Point No.,Normal Force [N],Gap [mm],Time [s]
1.0,15.417681,10.4466,1746
2.0,15.387105,10.4475,1746
3.0,14.959057,10.4551,1746
4.0,13.905567,10.4661,1746
5.0,12.718926,10.4781,1746
6.0,11.691398,10.4910,1746
7.0,10.919256,10.5024,1746
8.0,10.306047,10.5150,1746
9.0,9.897707,10.5265,1746
10.0,9.594343,10.5396,1746
11.0,9.382962,10.5512,1746
12.0,9.188572,10.5645,1746
13.0,9.025024,10.5759,1746
14.0,8.793623,10.5891,1746
15.0,8.570783,10.6007,1746
16.0,8.323445,10.6145,1746
17.0,8.106604,10.6254,1746
18.0,7.870069,10.6378,1746
19.0,7.657354,10.6505,1746
20.0,7.451207,10.6634,1746
21.0,7.259052,10.6749,1746
22.0,7.146812,10.6815,1746
23.0,6.876154,10.6997,1746
24.0,6.702004,10.7113,1746
25.0,6.524240,10.7245,1746
26.0,6.360593,10.7360,1746
27.0,6.189733,10.7493,1746
28.0,6.099062,10.7551,1747
29.0,5.876582,10.7741,1747
30.0,5.740537,10.7857,1747
31.0,5.598149,10.7989,1747
32.0,5.465563,10.8097,1747
33.0,5.323893,10.8238,1747
34.0,5.194520,10.8345,1747
35.0,5.058270,10.8483,1747
36.0,4.932127,10.8602,1747
37.0,4.803773,10.8731,1747
38.0,4.685165,10.8845,1747
39.0,4.562201,10.8971,1747
40.0,4.450448,10.9091,1747
41.0,4.331994,10.9217,1747
42.0,4.225118,10.9333,1747
43.0,4.113944,10.9466,1747
44.0,4.020705,10.9588,1747
45.0,3.926912,10.9715,1747
46.0,3.833500,10.9831,1747
47.0,3.731275,10.9966,1747
48.0,3.639565,11.0080,1747
49.0,3.544607,11.0213,1747
50.0,3.455240,11.0329,1747
51.0,3.363455,11.0462,1747
52.0,3.277897,11.0578,1747
53.0,3.187306,11.0710,1747
54.0,3.106683,11.0827,1747
55.0,3.018079,11.0959,1747
56.0,2.939208,11.1076,1747
57.0,2.850393,11.1208,1747
58.0,2.765548,11.1325,1747
59.0,2.680895,11.1457,1747
60.0,2.601359,11.1574,1747
61.0,2.515994,11.1700,1747
62.0,2.434854,11.1825,1747
63.0,2.347960,11.1955,1747
64.0,2.274514,11.2066,1747
65.0,2.196286,11.2203,1747
66.0,2.121637,11.2319,1747
67.0,2.031799,11.2452,1747
68.0,1.948940,11.2568,1748
69.0,1.857621,11.2696,1748
70.0,1.774644,11.2819,1748
71.0,1.683069,11.2947,1748
72.0,1.600939,11.3062,1748
73.0,1.511223,11.3196,1748
74.0,1.424595,11.3315,1748
75.0,1.334995,11.3447,1748
76.0,1.255159,11.3564,1748
77.0,1.168798,11.3699,1748
78.0,1.089461,11.3813,1748
79.0,1.002885,11.3943,1748
80.0,0.925949,11.4062,1748
81.0,0.841229,11.4195,1748
82.0,0.762682,11.4311,1748
83.0,0.680405,11.4439,1748
84.0,0.600834,11.4560,1748
85.0,0.511821,11.4688,1748
86.0,0.438601,11.4809,1748
87.0,0.365091,11.4940,1748
88.0,0.304933,11.5054,1748
89.0,0.235341,11.5187,1748
90.0,0.171186,11.5303,1748
91.0,0.101582,11.5440,1748
92.0,0.038349,11.5552,1748
93.0,-0.027672,11.5685,1748
94.0,-0.087699,11.5802,1748
95.0,-0.150770,11.5935,1748
96.0,-0.198185,11.6051,1748
97.0,-0.262458,11.6190,1748
98.0,-0.330794,11.6308,1748
99.0,-0.388925,11.6433,1748
100.0,-0.456140,11.6558,1748
101.0,-0.511335,11.6687,1748
102.0,-0.571805,11.6807,1748
103.0,-0.627903,11.6932,1748
104.0,-0.684871,11.7056,1748
105.0,-0.737988,11.7181,1748
106.0,-0.795422,11.7297,1748
107.0,-0.846335,11.7430,1748
108.0,-0.901683,11.7555,1749
109.0,-0.952984,11.7680,1749
110.0,-1.005079,11.7800,1749
111.0,-1.055329,11.7929,1749
112.0,-1.102341,11.8054,1749
113.0,-1.139179,11.8179,1749
114.0,-1.176406,11.8303,1749
115.0,-1.215937,11.8420,1749
116.0,-1.257729,11.8553,1749
117.0,-1.300496,11.8678,1749
118.0,-1.346766,11.8794,1749
119.0,-1.389239,11.8919,1749
120.0,-1.436070,11.9052,1749
121.0,-1.477862,11.9177,1749
122.0,-1.522123,11.9289,1749
123.0,-1.562066,11.9418,1749
124.0,-1.604567,11.9541,1749
125.0,-1.642626,11.9661,1749
126.0,-1.684862,11.9790,1749
127.0,-1.725361,11.9912,1749
128.0,-1.764591,12.0035,1749
129.0,-1.803663,12.0160,1749
130.0,-1.841464,12.0291,1749
131.0,-1.878893,12.0410,1749
132.0,-1.917109,12.0535,1749
133.0,-1.922198,12.0660,1749
134.0,-1.948923,12.0784,1749
135.0,-1.983721,12.0909,1749
136.0,-2.017606,12.1034,1749
137.0,-2.048215,12.1159,1749
138.0,-2.080646,12.1284,1749
139.0,-2.112608,12.1408,1749
140.0,-2.146464,12.1533,1749
141.0,-2.177047,12.1658,1749
142.0,-2.194667,12.1783,1749
143.0,-2.220937,12.1908,1749
144.0,-2.235066,12.2033,1749
145.0,-2.257183,12.2158,1749
146.0,-2.288433,12.2282,1749
147.0,-2.318423,12.2407,1749
148.0,-2.350049,12.2532,1750
149.0,-2.378481,12.2657,1750
150.0,-2.400119,12.2782,1750
151.0,-2.416425,12.2908,1750
152.0,-2.435340,12.3031,1750
153.0,-2.458101,12.3156,1750
154.0,-2.485846,12.3281,1750
155.0,-2.508816,12.3406,1750
156.0,-2.514318,12.3531,1750
157.0,-2.513275,12.3656,1750
158.0,-2.526578,12.3781,1750
159.0,-2.531263,12.3906,1750
160.0,-2.540325,12.4031,1750
161.0,-2.558602,12.4161,1750
162.0,-2.571561,12.4281,1750
163.0,-2.544681,12.4406,1750
164.0,-2.527870,12.4531,1750
165.0,-2.514098,12.4656,1750
166.0,-2.478164,12.4781,1750
167.0,-2.451399,12.4906,1750
168.0,-2.442735,12.5031,1750
169.0,-2.430046,12.5157,1750
170.0,-2.427233,12.5282,1750
171.0,-2.440008,12.5406,1750
172.0,-2.457546,12.5531,1750
173.0,-2.467115,12.5656,1750
174.0,-2.452726,12.5781,1750
175.0,-2.464729,12.5906,1750
176.0,-2.477564,12.6031,1750
177.0,-2.494914,12.6156,1750
178.0,-2.495544,12.6281,1750
179.0,-2.484123,12.6406,1750
180.0,-2.501849,12.6531,1750
181.0,-2.509984,12.6656,1750
182.0,-2.525050,12.6783,1750
183.0,-2.543664,12.6906,1750
184.0,-2.552332,12.7031,1750
185.0,-2.564579,12.7156,1750
186.0,-2.569248,12.7281,1750
187.0,-2.568090,12.7406,1750
188.0,-2.547606,12.7531,1751
189.0,-2.547434,12.7639,1751
190.0,-2.555406,12.7781,1751
191.0,-2.559319,12.7906,1751
192.0,-2.507620,12.8031,1751
193.0,-2.480161,12.8140,1751
194.0,-2.471385,12.8281,1751
195.0,-2.460191,12.8401,1751
196.0,-2.472124,12.8531,1751
197.0,-2.478801,12.8655,1751
198.0,-2.455536,12.8773,1751
199.0,-2.431068,12.8898,1751
200.0,-2.418557,12.9025,1751
201.0,-2.414922,12.9156,1751
202.0,-2.382884,12.9270,1751
203.0,-2.354935,12.9401,1751
204.0,-2.335395,12.9524,1751
205.0,-2.323823,12.9651,1751
206.0,-2.325610,12.9776,1751
207.0,-2.334373,12.9892,1751
208.0,-2.336553,13.0017,1751
209.0,-2.342191,13.0134,1751
210.0,-2.315860,13.0268,1751
211.0,-2.315388,13.0384,1751
212.0,-2.317472,13.0521,1751
213.0,-2.294336,13.0634,1751
214.0,-2.300247,13.0768,1751
215.0,-2.269768,13.0885,1751
216.0,-2.260986,13.1018,1751
217.0,-2.235463,13.1135,1751
218.0,-2.193552,13.1268,1751
219.0,-2.158283,13.1385,1751
220.0,-2.130511,13.1519,1751
221.0,-2.133532,13.1635,1751
222.0,-2.128166,13.1769,1751
223.0,-2.110596,13.1885,1751
224.0,-2.018468,13.2019,1751
225.0,-1.947056,13.2136,1751
226.0,-1.953263,13.2270,1751
227.0,-1.957160,13.2386,1751
228.0,-1.929609,13.2520,1752
229.0,-1.917792,13.2637,1752
230.0,-1.922837,13.2770,1752
231.0,-1.896727,13.2887,1752
232.0,-1.861908,13.3020,1752
233.0,-1.810277,13.3137,1752
234.0,-1.766485,13.3271,1752
235.0,-1.770712,13.3387,1752
236.0,-1.738259,13.3521,1752
237.0,-1.723724,13.3638,1752
238.0,-1.611243,13.3772,1752
239.0,-1.539572,13.3889,1752
240.0,-1.497470,13.4022,1752
241.0,-1.490387,13.4139,1752
242.0,-1.471826,13.4273,1752
243.0,-1.411589,13.4390,1752
244.0,-1.406905,13.4523,1752
245.0,-1.408015,13.4640,1752
246.0,-1.396240,13.4773,1752
247.0,-1.366957,13.4890,1752
248.0,-1.324144,13.5023,1752
249.0,-1.321767,13.5140,1752
250.0,-1.277806,13.5274,1752
251.0,-1.230929,13.5391,1752
252.0,-1.183577,13.5524,1752
253.0,-1.116251,13.5641,1752
254.0,-1.061919,13.5775,1752
255.0,-1.046005,13.5892,1752
256.0,-0.984560,13.6025,1752
257.0,-0.945406,13.6142,1752
258.0,-0.882226,13.6276,1752
259.0,-0.757531,13.6393,1752
260.0,-0.729351,13.6527,1752
261.0,-0.678939,13.6644,1752
262.0,-0.628501,13.6778,1752
263.0,-0.625120,13.6894,1752
264.0,-0.624253,13.7028,1752
265.0,-0.614687,13.7150,1752
266.0,-0.549066,13.7278,1752
267.0,-0.485922,13.7395,1752
268.0,-0.401443,13.7529,1753
269.0,-0.354230,13.7646,1753
270.0,-0.338330,13.7779,1753
271.0,-0.290926,13.7896,1753
272.0,-0.226625,13.8030,1753
273.0,-0.218456,13.8147,1753
274.0,-0.212503,13.8280,1753
275.0,-0.217447,13.8397,1753
276.0,-0.176807,13.8530,1753
277.0,-0.165876,13.8647,1753
278.0,-0.164502,13.8780,1753
279.0,-0.152891,13.8889,1753
280.0,-0.124568,13.9027,1753
281.0,-0.120135,13.9147,1753
282.0,-0.079961,13.9272,1753
283.0,-0.054865,13.9398,1753
284.0,-0.058404,13.9528,1753
285.0,-0.055713,13.9637,1753
286.0,-0.053746,13.9771,1753
287.0,-0.054106,13.9892,1753
288.0,-0.055426,14.0025,1753
289.0,-0.058475,14.0137,1753
290.0,-0.056416,14.0271,1753
291.0,-0.044616,14.0392,1753
292.0,0.005326,14.0519,1753
293.0,0.008753,14.0642,1753
294.0,0.009182,14.0778,1753
295.0,0.009695,14.0883,1753
296.0,0.010224,14.1017,1753
297.0,0.009733,14.1138,1753
298.0,0.008966,14.1267,1753
299.0,0.011157,14.1385,1753
300.0,0.010262,14.1519,1753
301.0,0.011231,14.1633,1753
302.0,0.010411,14.1771,1753
303.0,0.011614,14.1883,1753
304.0,0.009091,14.2017,1753
305.0,0.008636,14.2138,1753
306.0,0.010851,14.2267,1753
307.0,0.008743,14.2385,1753
308.0,0.009122,14.2519,1754
309.0,0.010720,14.2633,1754
310.0,0.008919,14.2771,1754
311.0,0.009235,14.2883,1754
312.0,0.008470,14.3017,1754
313.0,0.009122,14.3138,1754
314.0,0.008969,14.3267,1754
315.0,0.011279,14.3385,1754
316.0,0.009461,14.3519,1754
317.0,0.011983,14.3633,1754
318.0,0.010734,14.3771,1754
319.0,0.010501,14.3883,1754
320.0,0.008822,14.4017,1754
321.0,0.008413,14.4138,1754
322.0,0.008837,14.4267,1754
323.0,0.010522,14.4385,1754
324.0,0.009384,14.4519,1754
325.0,0.010482,14.4638,1754
326.0,0.010260,14.4771,1754
327.0,0.010225,14.4885,1754
328.0,0.009986,14.5019,1754
329.0,0.008834,14.5138,1754
330.0,0.008725,14.5271,1754
331.0,0.011912,14.5385,1754
332.0,0.010169,14.5519,1754
333.0,0.010803,14.5638,1754
334.0,0.008231,14.5771,1754
335.0,0.009464,14.5890,1754
336.0,0.009774,14.6019,1754
337.0,0.008849,14.6138,1754
338.0,0.010759,14.6271,1754
339.0,0.009102,14.6385,1754
340.0,0.009336,14.6523,1754
341.0,0.010212,14.6638,1754
342.0,0.008978,14.6771,1754
343.0,0.010803,14.6885,1754
344.0,0.009744,14.7019,1754
345.0,0.009933,14.7138,1754
346.0,0.010597,14.7271,1754
347.0,0.010283,14.7385,1754
348.0,0.008663,14.7523,1755
349.0,0.010623,14.7638,1755
350.0,0.007705,14.7771,1755
351.0,0.010220,14.7885,1755
352.0,0.009872,14.8019,1755
353.0,0.009282,14.8138,1755
354.0,0.011291,14.8271,1755
355.0,0.010501,14.8385,1755
356.0,0.009843,14.8519,1755
357.0,0.010157,14.8638,1755
358.0,0.010522,14.8771,1755
359.0,0.010289,14.8885,1755
360.0,0.009413,14.9019,1755
361.0,0.007852,14.9138,1755
362.0,0.009018,14.9267,1755
363.0,0.009638,14.9385,1755
364.0,0.008609,14.9519,1755
365.0,0.011518,14.9633,1755
366.0,0.009762,14.9771,1755
367.0,0.011189,14.9883,1755
368.0,0.011330,15.0008,1755
