Point No.,Normal Force [N],Gap [mm],Time [s]
1.0,7.322315,10.7181,3201
2.0,7.261907,10.7180,3201
3.0,7.232444,10.7180,3202
4.0,7.207721,10.7180,3202
5.0,7.193729,10.7180,3203
6.0,7.181535,10.7180,3203
7.0,7.170434,10.7180,3204
8.0,7.160208,10.7180,3204
9.0,7.151529,10.7180,3205
10.0,7.146739,10.7180,3205
11.0,7.142914,10.7180,3206
12.0,7.139977,10.7180,3206
13.0,7.136241,10.7180,3207
14.0,7.133113,10.7180,3207
15.0,7.130519,10.7180,3208
16.0,7.127875,10.7179,3208
17.0,7.125235,10.7179,3209
18.0,7.122245,10.7179,3209
19.0,7.120360,10.7179,3210
20.0,7.116909,10.7179,3210
21.0,7.115920,10.7179,3211
22.0,7.112881,10.7179,3211
23.0,7.110394,10.7179,3212
24.0,7.109143,10.7179,3212
25.0,7.107529,10.7179,3213
26.0,7.104822,10.7179,3213
27.0,7.102999,10.7179,3214
28.0,7.101167,10.7179,3214
29.0,7.100275,10.7179,3215
30.0,7.099226,10.7179,3215
31.0,7.096942,10.7179,3216
32.0,7.095754,10.7179,3216
33.0,7.094693,10.7179,3217
34.0,7.094851,10.7179,3217
35.0,7.092749,10.7179,3218
36.0,7.092796,10.7179,3218
37.0,7.091743,10.7179,3219
38.0,7.090571,10.7179,3219
39.0,7.089409,10.7179,3220
40.0,7.088192,10.7179,3220
