Point No.,Normal Force [N],Gap [mm],Time [s]
1.0,7.387070,10.7181,2124
2.0,7.330397,10.7181,2124
3.0,7.298689,10.7181,2125
4.0,7.271455,10.7180,2125
5.0,7.256129,10.7180,2126
6.0,7.247513,10.7180,2126
7.0,7.239017,10.7180,2127
8.0,7.230714,10.7180,2127
9.0,7.223989,10.7180,2128
10.0,7.217327,10.7180,2128
11.0,7.212694,10.7180,2129
12.0,7.208423,10.7180,2129
13.0,7.205116,10.7180,2130
14.0,7.202215,10.7180,2130
15.0,7.199401,10.7180,2131
16.0,7.197766,10.7180,2131
17.0,7.195125,10.7180,2132
18.0,7.193062,10.7180,2132
19.0,7.190913,10.7180,2133
20.0,7.189017,10.7180,2133
21.0,7.186556,10.7180,2134
22.0,7.184608,10.7180,2134
23.0,7.182454,10.7180,2135
24.0,7.180275,10.7180,2135
25.0,7.178959,10.7180,2136
26.0,7.176992,10.7180,2136
27.0,7.175994,10.7180,2137
28.0,7.173097,10.7180,2137
29.0,7.170310,10.7180,2138
30.0,7.168860,10.7180,2138
31.0,7.168128,10.7180,2139
32.0,7.166637,10.7180,2139
33.0,7.164751,10.7180,2140
34.0,7.163920,10.7180,2140
35.0,7.162113,10.7180,2141
36.0,7.159974,10.7180,2141
37.0,7.159121,10.7180,2142
38.0,7.158108,10.7180,2142
39.0,7.156358,10.7180,2143
40.0,7.154983,10.7180,2143
