Point No.,Normal Force [N],Gap [mm],Time [s]
1.0,7.282211,10.7187,5278
2.0,7.224665,10.7186,5279
3.0,7.192216,10.7186,5279
4.0,7.165267,10.7186,5280
5.0,7.147397,10.7186,5280
6.0,7.136256,10.7186,5281
7.0,7.127002,10.7186,5281
8.0,7.117783,10.7186,5282
9.0,7.110041,10.7186,5282
10.0,7.103467,10.7186,5283
11.0,7.099863,10.7186,5283
12.0,7.095419,10.7186,5284
13.0,7.091679,10.7186,5284
14.0,7.088669,10.7186,5285
15.0,7.086209,10.7186,5285
16.0,7.083964,10.7186,5286
17.0,7.081663,10.7185,5286
18.0,7.079237,10.7185,5287
19.0,7.076096,10.7185,5287
20.0,7.074306,10.7185,5288
21.0,7.072445,10.7185,5288
22.0,7.069709,10.7185,5289
23.0,7.066927,10.7185,5289
24.0,7.063476,10.7185,5290
25.0,7.062009,10.7185,5290
26.0,7.059489,10.7185,5291
27.0,7.057889,10.7185,5291
28.0,7.055670,10.7185,5292
29.0,7.053752,10.7185,5292
30.0,7.052145,10.7185,5293
31.0,7.050389,10.7185,5293
32.0,7.048119,10.7185,5294
33.0,7.046610,10.7185,5294
34.0,7.045901,10.7185,5295
35.0,7.044884,10.7185,5295
36.0,7.043542,10.7185,5296
37.0,7.042565,10.7185,5296
38.0,7.041831,10.7185,5297
39.0,7.041211,10.7185,5297
40.0,7.040874,10.7185,5298
