Point No.,Normal Force [N],Gap [mm],Time [s]
1.0,7.401105,10.7181,830.4
2.0,7.345123,10.7181,830.9
3.0,7.311033,10.7181,831.4
4.0,7.289496,10.7181,831.9
5.0,7.268866,10.7180,832.4
6.0,7.257848,10.7180,832.9
7.0,7.250699,10.7180,833.4
8.0,7.244548,10.7180,833.9
9.0,7.238981,10.7180,834.4
10.0,7.233524,10.7180,834.9
11.0,7.229527,10.7180,835.4
12.0,7.223651,10.7180,835.9
13.0,7.220067,10.7180,836.4
14.0,7.217214,10.7180,836.9
15.0,7.213189,10.7180,837.4
16.0,7.209556,10.7180,837.9
17.0,7.206279,10.7180,838.4
18.0,7.204680,10.7180,838.9
19.0,7.202749,10.7180,839.4
20.0,7.201192,10.7180,839.9
21.0,7.199035,10.7180,840.4
22.0,7.197424,10.7180,840.9
23.0,7.195786,10.7180,841.4
24.0,7.194716,10.7180,841.9
25.0,7.193430,10.7180,842.4
26.0,7.191871,10.7180,842.9
27.0,7.190304,10.7180,843.4
28.0,7.189434,10.7180,843.9
29.0,7.187187,10.7180,844.4
30.0,7.185980,10.7180,844.9
31.0,7.183941,10.7180,845.4
32.0,7.183123,10.7180,845.9
33.0,7.181768,10.7180,846.4
34.0,7.181340,10.7180,846.9
35.0,7.179049,10.7180,847.4
36.0,7.178251,10.7180,847.9
37.0,7.176193,10.7180,848.4
38.0,7.175071,10.7180,848.9
39.0,7.174368,10.7180,849.4
40.0,7.172510,10.7180,849.9
