Point No.,Normal Force [N],Gap [mm],Time [s]
1.0,7.353121,10.7162,3559
2.0,7.296476,10.7162,3559
3.0,7.258521,10.7162,3560
4.0,7.239749,10.7161,3560
5.0,7.222890,10.7161,3561
6.0,7.208744,10.7161,3561
7.0,7.200496,10.7161,3562
8.0,7.193717,10.7161,3562
9.0,7.187602,10.7161,3563
10.0,7.182120,10.7161,3563
11.0,7.177032,10.7161,3564
12.0,7.171620,10.7161,3564
13.0,7.165630,10.7161,3565
14.0,7.161658,10.7161,3565
15.0,7.158718,10.7161,3566
16.0,7.155412,10.7161,3566
17.0,7.152355,10.7161,3567
18.0,7.150100,10.7161,3567
19.0,7.148325,10.7161,3568
20.0,7.145777,10.7161,3568
21.0,7.143781,10.7161,3569
22.0,7.141810,10.7161,3569
23.0,7.140734,10.7161,3570
24.0,7.139689,10.7161,3570
25.0,7.138411,10.7161,3571
26.0,7.136788,10.7161,3571
27.0,7.135811,10.7161,3572
28.0,7.134449,10.7161,3572
29.0,7.132770,10.7161,3573
30.0,7.131215,10.7161,3573
31.0,7.130217,10.7161,3574
32.0,7.129266,10.7161,3574
33.0,7.127404,10.7161,3575
34.0,7.127426,10.7161,3575
35.0,7.126027,10.7161,3576
36.0,7.124611,10.7161,3576
37.0,7.122402,10.7161,3577
38.0,7.122024,10.7161,3577
39.0,7.121084,10.7161,3578
40.0,7.119750,10.7161,3578
