Point No.,Normal Force [N],Gap [mm],Time [s]
1.0,7.309611,10.7168,5350
2.0,7.249124,10.7168,5350
3.0,7.215386,10.7168,5351
4.0,7.193710,10.7167,5351
5.0,7.176459,10.7167,5352
6.0,7.160633,10.7167,5352
7.0,7.148717,10.7167,5353
8.0,7.141814,10.7167,5353
9.0,7.136057,10.7167,5354
10.0,7.131883,10.7167,5354
11.0,7.126259,10.7167,5355
12.0,7.122324,10.7167,5355
13.0,7.118269,10.7167,5356
14.0,7.113813,10.7167,5356
15.0,7.110001,10.7167,5357
16.0,7.106361,10.7167,5357
17.0,7.103899,10.7167,5358
18.0,7.101484,10.7167,5358
19.0,7.099234,10.7167,5359
20.0,7.097475,10.7167,5359
21.0,7.094767,10.7167,5360
22.0,7.092581,10.7167,5360
23.0,7.091922,10.7167,5361
24.0,7.090209,10.7167,5361
25.0,7.088465,10.7167,5362
26.0,7.087349,10.7167,5362
27.0,7.086289,10.7167,5363
28.0,7.085228,10.7167,5363
29.0,7.084679,10.7167,5364
30.0,7.083620,10.7167,5364
31.0,7.081684,10.7167,5365
32.0,7.080797,10.7167,5365
33.0,7.078769,10.7167,5366
34.0,7.078542,10.7167,5366
35.0,7.076602,10.7167,5367
36.0,7.075355,10.7167,5367
37.0,7.073277,10.7167,5368
38.0,7.073081,10.7167,5368
39.0,7.070847,10.7167,5369
40.0,7.071008,10.7167,5369
