Data stamp = , 20-04-2022 15:47:58 073

Calibration Values: 
Slope = , 26.54 , g/V 
Offset Voltage at no contact = , -0.501760 , V 

No , Time , Stage Position ,   Mass , Force 
   ,  (s) ,      (mm)      ,   (g)  , (mN)  

1 ,0.0000 ,0.64934 ,5.35669 ,52.55988 
2 ,0.2920 ,0.64955 ,5.35327 ,52.52631 
3 ,0.7083 ,0.65099 ,5.37038 ,52.69420 
4 ,0.9005 ,0.65309 ,5.37723 ,52.76135 
5 ,1.0926 ,0.65495 ,5.35327 ,52.52631 
6 ,1.2846 ,0.65686 ,5.38407 ,52.82851 
7 ,1.4766 ,0.65870 ,5.37381 ,52.72778 
8 ,1.6689 ,0.66067 ,5.34301 ,52.42557 
9 ,1.8606 ,0.66263 ,5.34643 ,52.45915 
10 ,2.0367 ,0.66444 ,5.31905 ,52.19052 
11 ,2.2127 ,0.66621 ,5.29510 ,51.95548 
12 ,2.3892 ,0.66795 ,5.28483 ,51.85474 
13 ,2.5813 ,0.66985 ,5.26087 ,51.61969 
14 ,2.7575 ,0.67164 ,5.24376 ,51.45180 
15 ,2.9334 ,0.67339 ,5.21639 ,51.18317 
16 ,3.1095 ,0.67521 ,5.20954 ,51.11602 
17 ,3.2856 ,0.67696 ,5.21639 ,51.18317 
18 ,3.4777 ,0.67881 ,5.17874 ,50.81381 
19 ,3.6537 ,0.68061 ,5.16848 ,50.71308 
20 ,3.8297 ,0.68240 ,5.14794 ,50.51161 
21 ,4.0059 ,0.68412 ,5.13083 ,50.34372 
22 ,4.1978 ,0.68597 ,5.11372 ,50.17583 
23 ,4.3740 ,0.68782 ,5.09661 ,50.00793 
24 ,4.5501 ,0.68960 ,5.07608 ,49.80646 
25 ,4.7097 ,0.69128 ,5.06581 ,49.70573 
26 ,4.8863 ,0.69298 ,5.05212 ,49.57142 
27 ,5.0785 ,0.69486 ,5.03159 ,49.36995 
28 ,5.2705 ,0.69676 ,5.01106 ,49.16848 
29 ,5.4628 ,0.69864 ,5.00079 ,49.06774 
30 ,5.6545 ,0.70055 ,4.97341 ,48.79911 
31 ,5.8306 ,0.70235 ,4.94946 ,48.56407 
32 ,6.0067 ,0.70412 ,4.94603 ,48.53049 
33 ,6.2144 ,0.70611 ,4.91866 ,48.26186 
34 ,6.4065 ,0.70814 ,4.89812 ,48.06039 
35 ,6.5828 ,0.70990 ,4.90155 ,48.09397 
36 ,6.7751 ,0.71183 ,4.87075 ,47.79177 
37 ,6.9672 ,0.71378 ,4.84679 ,47.55672 
38 ,7.1593 ,0.71566 ,4.83652 ,47.45598 
39 ,7.3351 ,0.71741 ,4.80915 ,47.18736 
40 ,7.5435 ,0.71946 ,4.80915 ,47.18736 
41 ,7.7033 ,0.72123 ,4.79546 ,47.05304 
42 ,7.8796 ,0.72287 ,4.77835 ,46.88515 
43 ,8.0555 ,0.72464 ,4.76124 ,46.71726 
44 ,8.2637 ,0.72662 ,4.73728 ,46.48221 
45 ,8.4397 ,0.72847 ,4.73386 ,46.44863 
46 ,8.6319 ,0.73032 ,4.70306 ,46.14643 
47 ,8.8079 ,0.73216 ,4.68253 ,45.94496 
48 ,8.9997 ,0.73404 ,4.67911 ,45.91138 
49 ,9.1921 ,0.73595 ,4.64488 ,45.57560 
50 ,9.3839 ,0.73790 ,4.63462 ,45.47486 
51 ,9.5604 ,0.73967 ,4.63119 ,45.44128 
52 ,9.7523 ,0.74155 ,4.59013 ,45.03835 
53 ,9.9443 ,0.74341 ,4.59355 ,45.07192 
54 ,10.1200 ,0.74522 ,4.57302 ,44.87045 
55 ,10.2964 ,0.74698 ,4.54564 ,44.60183 
56 ,10.4886 ,0.74886 ,4.53880 ,44.53467 
57 ,10.6804 ,0.75082 ,4.51142 ,44.26604 
58 ,10.8567 ,0.75265 ,4.50457 ,44.19889 
59 ,11.0329 ,0.75440 ,4.47378 ,43.89668 
60 ,11.2409 ,0.75631 ,4.46693 ,43.82953 
61 ,11.4169 ,0.75824 ,4.44640 ,43.62806 
62 ,11.5930 ,0.75998 ,4.41560 ,43.32585 
63 ,11.7691 ,0.76172 ,4.40533 ,43.22512 
64 ,11.9450 ,0.76345 ,4.40875 ,43.25870 
65 ,12.1212 ,0.76522 ,4.38138 ,42.99007 
66 ,12.2973 ,0.76701 ,4.36084 ,42.78860 
67 ,12.4733 ,0.76876 ,4.33689 ,42.55355 
68 ,12.6494 ,0.77052 ,4.32320 ,42.41924 
69 ,12.8254 ,0.77227 ,4.32662 ,42.45282 
70 ,13.0177 ,0.77411 ,4.30609 ,42.25135 
71 ,13.2097 ,0.77608 ,4.27871 ,41.98272 
72 ,13.3696 ,0.77787 ,4.27871 ,41.98272 
73 ,13.5297 ,0.77944 ,4.25476 ,41.74767 
74 ,13.7220 ,0.78119 ,4.23422 ,41.54620 
75 ,13.9142 ,0.78312 ,4.20685 ,41.27758 
76 ,14.1060 ,0.78507 ,4.21027 ,41.31115 
77 ,14.2821 ,0.78683 ,4.19658 ,41.17684 
78 ,14.4582 ,0.78864 ,4.15894 ,40.80748 
79 ,14.6504 ,0.79039 ,4.14525 ,40.67317 
80 ,14.8425 ,0.79241 ,4.13156 ,40.53885 
81 ,15.0344 ,0.79434 ,4.10418 ,40.27023 
82 ,15.2106 ,0.79615 ,4.08707 ,40.10233 
83 ,15.4024 ,0.79804 ,4.08707 ,40.10233 
84 ,15.5787 ,0.79985 ,4.06654 ,39.90087 
85 ,15.7866 ,0.80186 ,4.04600 ,39.69940 
86 ,15.9948 ,0.80393 ,4.02547 ,39.49793 
87 ,16.1708 ,0.80574 ,4.00836 ,39.33003 
88 ,16.3632 ,0.80760 ,4.00494 ,39.29646 
89 ,16.5546 ,0.80956 ,3.97072 ,38.96067 
90 ,16.7312 ,0.81133 ,3.95703 ,38.82636 
91 ,16.9391 ,0.81332 ,3.93992 ,38.65847 
92 ,17.1153 ,0.81523 ,3.91938 ,38.45700 
93 ,17.3073 ,0.81709 ,3.90912 ,38.35626 
94 ,17.4992 ,0.81894 ,3.86805 ,37.95332 
95 ,17.6755 ,0.82074 ,3.87147 ,37.98690 
96 ,17.8677 ,0.82262 ,3.87147 ,37.98690 
97 ,18.0596 ,0.82464 ,3.83383 ,37.61754 
98 ,18.2353 ,0.82635 ,3.81330 ,37.41607 
99 ,18.4119 ,0.82814 ,3.79961 ,37.28176 
100 ,18.6040 ,0.83001 ,3.79961 ,37.28176 
101 ,18.7958 ,0.83199 ,3.76539 ,36.94597 
102 ,18.9881 ,0.83384 ,3.77223 ,37.01313 
103 ,19.1640 ,0.83565 ,3.74485 ,36.74450 
104 ,19.3402 ,0.83742 ,3.72774 ,36.57661 
105 ,19.5324 ,0.83935 ,3.71063 ,36.40872 
106 ,19.7241 ,0.84129 ,3.69352 ,36.24083 
107 ,19.9165 ,0.84309 ,3.66614 ,35.97220 
108 ,20.1245 ,0.84519 ,3.67641 ,36.07294 
109 ,20.3006 ,0.84704 ,3.66272 ,35.93863 
110 ,20.4928 ,0.84888 ,3.62508 ,35.56926 
111 ,20.6687 ,0.85073 ,3.60797 ,35.40137 
112 ,20.8609 ,0.85252 ,3.60112 ,35.33422 
113 ,21.0368 ,0.85440 ,3.57375 ,35.06559 
114 ,21.2290 ,0.85631 ,3.56348 ,34.96485 
115 ,21.4371 ,0.85830 ,3.53268 ,34.66265 
116 ,21.6134 ,0.86012 ,3.51557 ,34.49476 
117 ,21.8214 ,0.86219 ,3.49846 ,34.32687 
118 ,22.0134 ,0.86410 ,3.48477 ,34.19255 
119 ,22.2054 ,0.86599 ,3.48819 ,34.22613 
120 ,22.3816 ,0.86781 ,3.44028 ,33.75604 
121 ,22.5578 ,0.86962 ,3.42659 ,33.62172 
122 ,22.7495 ,0.87146 ,3.40948 ,33.45383 
123 ,22.9575 ,0.87345 ,3.40948 ,33.45383 
124 ,23.1335 ,0.87534 ,3.38210 ,33.18520 
125 ,23.3100 ,0.87713 ,3.37184 ,33.08447 
126 ,23.5018 ,0.87901 ,3.36157 ,32.98374 
127 ,23.7100 ,0.88093 ,3.34788 ,32.84942 
128 ,23.9180 ,0.88319 ,3.31708 ,32.54722 
129 ,24.1098 ,0.88506 ,3.31024 ,32.48006 
130 ,24.2860 ,0.88685 ,3.28971 ,32.27859 
131 ,24.4785 ,0.88872 ,3.26575 ,32.04354 
132 ,24.6701 ,0.89061 ,3.27259 ,32.11070 
133 ,24.8466 ,0.89246 ,3.23837 ,31.77492 
134 ,25.0386 ,0.89439 ,3.22468 ,31.64060 
135 ,25.2307 ,0.89625 ,3.21100 ,31.50629 
136 ,25.4228 ,0.89818 ,3.18020 ,31.20409 
137 ,25.6144 ,0.90006 ,3.16309 ,31.03619 
138 ,25.7909 ,0.90188 ,3.14940 ,30.90188 
139 ,25.9986 ,0.90399 ,3.12886 ,30.70041 
140 ,26.1746 ,0.90573 ,3.11518 ,30.56610 
141 ,26.3508 ,0.90749 ,3.10833 ,30.49894 
142 ,26.5432 ,0.90937 ,3.07753 ,30.19674 
143 ,26.7347 ,0.91129 ,3.06042 ,30.02884 
144 ,26.9275 ,0.91320 ,3.06726 ,30.09600 
145 ,27.1354 ,0.91526 ,3.02962 ,29.72664 
146 ,27.2951 ,0.91705 ,3.04331 ,29.86095 
147 ,27.4716 ,0.91867 ,3.00567 ,29.49159 
148 ,27.6637 ,0.92052 ,2.99882 ,29.42444 
149 ,27.8398 ,0.92241 ,2.96802 ,29.12223 
150 ,28.0318 ,0.92422 ,2.95776 ,29.02150 
151 ,28.2080 ,0.92604 ,2.95433 ,28.98792 
152 ,28.3999 ,0.92806 ,2.92353 ,28.68571 
153 ,28.5761 ,0.92972 ,2.90642 ,28.51782 
154 ,28.7678 ,0.93168 ,2.91669 ,28.61856 
155 ,28.9603 ,0.93351 ,2.87905 ,28.24919 
156 ,29.1520 ,0.93550 ,2.87220 ,28.18204 
157 ,29.3285 ,0.93730 ,2.85167 ,27.98057 
158 ,29.5043 ,0.93903 ,2.83798 ,27.84625 
159 ,29.6800 ,0.94076 ,2.81745 ,27.64479 
160 ,29.8565 ,0.94257 ,2.80376 ,27.51047 
161 ,30.0325 ,0.94428 ,2.79691 ,27.44332 
162 ,30.2246 ,0.94613 ,2.76954 ,27.17469 
163 ,30.4007 ,0.94801 ,2.75927 ,27.07395 
164 ,30.5608 ,0.94971 ,2.75927 ,27.07395 
165 ,30.7207 ,0.95130 ,2.72847 ,26.77175 
166 ,30.8967 ,0.95298 ,2.73189 ,26.80533 
167 ,31.0732 ,0.95471 ,2.72163 ,26.70459 
168 ,31.2652 ,0.95664 ,2.69083 ,26.40239 
169 ,31.4572 ,0.95855 ,2.66003 ,26.10018 
170 ,31.6333 ,0.96025 ,2.66003 ,26.10018 
171 ,31.8090 ,0.96210 ,2.66345 ,26.13376 
172 ,31.9852 ,0.96379 ,2.60869 ,25.59651 
173 ,32.1933 ,0.96582 ,2.61554 ,25.66367 
174 ,32.3696 ,0.96770 ,2.59158 ,25.42862 
175 ,32.5453 ,0.96938 ,2.58474 ,25.36146 
176 ,32.7057 ,0.97114 ,2.55052 ,25.02568 
177 ,32.8975 ,0.97290 ,2.53683 ,24.89136 
178 ,33.0901 ,0.97483 ,2.55052 ,25.02568 
179 ,33.2981 ,0.97691 ,2.54710 ,24.99210 
180 ,33.4741 ,0.97871 ,2.50603 ,24.58916 
181 ,33.6498 ,0.98044 ,2.50945 ,24.62274 
182 ,33.8424 ,0.98232 ,2.47865 ,24.32053 
183 ,34.0504 ,0.98439 ,2.47865 ,24.32053 
184 ,34.2265 ,0.98623 ,2.44785 ,24.01833 
185 ,34.4186 ,0.98805 ,2.43759 ,23.91759 
186 ,34.5947 ,0.98993 ,2.42732 ,23.81686 
187 ,34.7862 ,0.99182 ,2.40679 ,23.61539 
188 ,34.9630 ,0.99359 ,2.37599 ,23.31318 
189 ,35.1546 ,0.99544 ,2.38968 ,23.44750 
190 ,35.3467 ,0.99736 ,2.34861 ,23.04456 
191 ,35.5391 ,0.99929 ,2.34519 ,23.01098 
192 ,35.7146 ,1.00108 ,2.32123 ,22.77593 
193 ,35.9072 ,1.00299 ,2.31781 ,22.74235 
194 ,36.0829 ,1.00478 ,2.29728 ,22.54088 
195 ,36.2748 ,1.00663 ,2.28701 ,22.44015 
196 ,36.4512 ,1.00848 ,2.28017 ,22.37299 
197 ,36.6433 ,1.01039 ,2.24594 ,22.03721 
198 ,36.8352 ,1.01223 ,2.22541 ,21.83574 
199 ,37.0275 ,1.01421 ,2.22199 ,21.80216 
200 ,37.2354 ,1.01621 ,2.22199 ,21.80216 
201 ,37.4279 ,1.01812 ,2.19119 ,21.49996 
202 ,37.6038 ,1.01997 ,2.16723 ,21.26491 
203 ,37.7955 ,1.02186 ,2.16723 ,21.26491 
204 ,37.9717 ,1.02371 ,2.13986 ,20.99628 
205 ,38.1481 ,1.02546 ,2.13644 ,20.96270 
206 ,38.3402 ,1.02742 ,2.12617 ,20.86197 
207 ,38.5322 ,1.02921 ,2.10564 ,20.66050 
208 ,38.6920 ,1.03097 ,2.07826 ,20.39187 
209 ,38.8523 ,1.03258 ,2.07141 ,20.32472 
210 ,39.0442 ,1.03433 ,2.06115 ,20.22398 
211 ,39.2365 ,1.03626 ,2.05088 ,20.12325 
212 ,39.4445 ,1.03832 ,2.02693 ,19.88820 
213 ,39.6686 ,1.04048 ,2.01324 ,19.75388 
214 ,39.8608 ,1.04253 ,1.99613 ,19.58599 
215 ,40.0364 ,1.04435 ,1.97902 ,19.41810 
216 ,40.2129 ,1.04606 ,1.98244 ,19.45168 
217 ,40.3887 ,1.04781 ,1.95506 ,19.18305 
218 ,40.5808 ,1.04972 ,1.91742 ,18.81369 
219 ,40.7569 ,1.05154 ,1.93453 ,18.98158 
220 ,40.9487 ,1.05340 ,1.91057 ,18.74654 
221 ,41.1407 ,1.05527 ,1.89346 ,18.57864 
222 ,41.3169 ,1.05711 ,1.86951 ,18.34360 
223 ,41.4930 ,1.05887 ,1.87635 ,18.41075 
224 ,41.6689 ,1.06068 ,1.84555 ,18.10855 
225 ,41.8449 ,1.06240 ,1.83871 ,18.04139 
226 ,42.0211 ,1.06421 ,1.83528 ,18.00781 
227 ,42.1973 ,1.06588 ,1.82502 ,17.90708 
228 ,42.3892 ,1.06778 ,1.80791 ,17.73919 
229 ,42.5494 ,1.06957 ,1.78053 ,17.47056 
230 ,42.7257 ,1.07119 ,1.76342 ,17.30267 
231 ,42.9339 ,1.07318 ,1.75315 ,17.20193 
232 ,43.1099 ,1.07508 ,1.75657 ,17.23551 
233 ,43.3020 ,1.07689 ,1.72235 ,16.89973 
234 ,43.4782 ,1.07868 ,1.72920 ,16.96689 
235 ,43.6862 ,1.08066 ,1.69498 ,16.63110 
236 ,43.8625 ,1.08253 ,1.67786 ,16.46321 
237 ,44.0707 ,1.08447 ,1.67786 ,16.46321 
238 ,44.2944 ,1.08672 ,1.64022 ,16.09385 
239 ,44.4703 ,1.08863 ,1.63338 ,16.02669 
240 ,44.6626 ,1.09047 ,1.61627 ,15.85880 
241 ,44.8708 ,1.09258 ,1.60600 ,15.75807 
242 ,45.0625 ,1.09446 ,1.58889 ,15.59018 
243 ,45.2389 ,1.09634 ,1.59573 ,15.65733 
244 ,45.4148 ,1.09805 ,1.56836 ,15.38871 
245 ,45.6230 ,1.10006 ,1.56493 ,15.35513 
246 ,45.8150 ,1.10201 ,1.55467 ,15.25439 
247 ,45.9912 ,1.10384 ,1.52045 ,14.91861 
248 ,46.1832 ,1.10577 ,1.51018 ,14.81787 
249 ,46.3593 ,1.10751 ,1.51360 ,14.85145 
250 ,46.5353 ,1.10926 ,1.49307 ,14.64998 
251 ,46.7115 ,1.11098 ,1.48280 ,14.54925 
252 ,46.9033 ,1.11298 ,1.46569 ,14.38136 
253 ,47.0955 ,1.11481 ,1.44858 ,14.21346 
254 ,47.2716 ,1.11662 ,1.43831 ,14.11273 
255 ,47.4475 ,1.11840 ,1.39383 ,13.67621 
256 ,47.6396 ,1.12026 ,1.41094 ,13.84410 
257 ,47.8315 ,1.12214 ,1.37329 ,13.47474 
258 ,48.0080 ,1.12401 ,1.36987 ,13.44116 
259 ,48.1998 ,1.12592 ,1.36645 ,13.40759 
260 ,48.3921 ,1.12783 ,1.34249 ,13.17254 
261 ,48.5680 ,1.12958 ,1.32538 ,13.00465 
262 ,48.7438 ,1.13133 ,1.31512 ,12.90391 
263 ,48.9197 ,1.13310 ,1.32196 ,12.97107 
264 ,49.0960 ,1.13482 ,1.30827 ,12.83675 
265 ,49.2723 ,1.13668 ,1.28432 ,12.60171 
266 ,49.4645 ,1.13851 ,1.27405 ,12.50097 
267 ,49.6406 ,1.14028 ,1.26036 ,12.36666 
268 ,49.8322 ,1.14216 ,1.23983 ,12.16519 
269 ,50.0247 ,1.14408 ,1.23298 ,12.09803 
270 ,50.2167 ,1.14603 ,1.22272 ,11.99730 
271 ,50.3927 ,1.14784 ,1.21587 ,11.93014 
272 ,50.5691 ,1.14959 ,1.18165 ,11.59436 
273 ,50.7449 ,1.15135 ,1.16796 ,11.46004 
274 ,50.9691 ,1.15361 ,1.15427 ,11.32573 
275 ,51.1613 ,1.15552 ,1.15427 ,11.32573 
276 ,51.3534 ,1.15742 ,1.13716 ,11.15784 
277 ,51.5453 ,1.15924 ,1.12347 ,11.02353 
278 ,51.7052 ,1.16105 ,1.10636 ,10.85563 
279 ,51.8815 ,1.16269 ,1.10979 ,10.88921 
280 ,52.0731 ,1.16467 ,1.06872 ,10.48627 
281 ,52.2497 ,1.16641 ,1.06872 ,10.48627 
282 ,52.4414 ,1.16823 ,1.05503 ,10.35196 
283 ,52.6173 ,1.17010 ,1.06872 ,10.48627 
284 ,52.7933 ,1.17182 ,1.04134 ,10.21765 
285 ,52.9857 ,1.17374 ,1.02765 ,10.08333 
286 ,53.1939 ,1.17580 ,1.02081 ,10.01618 
287 ,53.4181 ,1.17795 ,1.00370 ,9.84829 
288 ,53.6100 ,1.17989 ,0.98659 ,9.68039 
289 ,53.8019 ,1.18190 ,0.97974 ,9.61324 
290 ,53.9782 ,1.18370 ,0.96605 ,9.47892 
291 ,54.1705 ,1.18556 ,0.93868 ,9.21030 
292 ,54.3464 ,1.18735 ,0.92157 ,9.04241 
293 ,54.5227 ,1.18912 ,0.92157 ,9.04241 
294 ,54.7145 ,1.19100 ,0.91130 ,8.94167 
295 ,54.9069 ,1.19294 ,0.88392 ,8.67305 
296 ,55.0829 ,1.19474 ,0.88392 ,8.67305 
297 ,55.2752 ,1.19658 ,0.86681 ,8.50515 
298 ,55.4673 ,1.19855 ,0.85312 ,8.37084 
299 ,55.6749 ,1.20053 ,0.85312 ,8.37084 
300 ,55.8513 ,1.20243 ,0.81548 ,8.00148 
301 ,56.0433 ,1.20433 ,0.82917 ,8.13579 
302 ,56.2350 ,1.20619 ,0.81206 ,7.96790 
303 ,56.4113 ,1.20801 ,0.80863 ,7.93432 
304 ,56.6036 ,1.20992 ,0.78810 ,7.73285 
305 ,56.7950 ,1.21181 ,0.77784 ,7.63212 
306 ,56.9877 ,1.21372 ,0.75046 ,7.36349 
307 ,57.1958 ,1.21579 ,0.75388 ,7.39707 
308 ,57.3879 ,1.21776 ,0.73335 ,7.19560 
309 ,57.5799 ,1.21968 ,0.72992 ,7.16202 
310 ,57.7558 ,1.22142 ,0.72650 ,7.12844 
311 ,57.9481 ,1.22327 ,0.68886 ,6.75908 
312 ,58.1241 ,1.22512 ,0.69228 ,6.79266 
313 ,58.3323 ,1.22715 ,0.66148 ,6.49046 
314 ,58.5402 ,1.22924 ,0.67175 ,6.59119 
315 ,58.7324 ,1.23120 ,0.64437 ,6.32256 
316 ,58.9085 ,1.23296 ,0.63410 ,6.22183 
317 ,59.1165 ,1.23496 ,0.62042 ,6.08752 
318 ,59.3087 ,1.23694 ,0.59646 ,5.85247 
319 ,59.4843 ,1.23882 ,0.60330 ,5.91962 
320 ,59.6769 ,1.24056 ,0.58962 ,5.78531 
321 ,59.8689 ,1.24257 ,0.57593 ,5.65100 
322 ,60.0450 ,1.24429 ,0.56224 ,5.51668 
323 ,60.2370 ,1.24615 ,0.55882 ,5.48311 
324 ,60.4131 ,1.24797 ,0.53486 ,5.24806 
325 ,60.6050 ,1.24987 ,0.52459 ,5.14732 
326 ,60.7973 ,1.25176 ,0.51775 ,5.08017 
327 ,60.9894 ,1.25375 ,0.49380 ,4.84512 
328 ,61.1814 ,1.25564 ,0.50406 ,4.94585 
329 ,61.3736 ,1.25749 ,0.50064 ,4.91228 
330 ,61.5496 ,1.25939 ,0.46300 ,4.54291 
331 ,61.7417 ,1.26128 ,0.45957 ,4.50934 
332 ,61.9332 ,1.26323 ,0.44246 ,4.34144 
333 ,62.0934 ,1.26488 ,0.43220 ,4.24071 
334 ,62.2698 ,1.26656 ,0.42877 ,4.20713 
335 ,62.4778 ,1.26851 ,0.42535 ,4.17355 
336 ,62.6536 ,1.27036 ,0.41166 ,4.03924 
337 ,62.8460 ,1.27223 ,0.39113 ,3.83777 
338 ,63.0221 ,1.27408 ,0.38771 ,3.80419 
339 ,63.1983 ,1.27584 ,0.38429 ,3.77061 
340 ,63.3744 ,1.27758 ,0.35691 ,3.50199 
341 ,63.5664 ,1.27949 ,0.35691 ,3.50199 
342 ,63.7423 ,1.28129 ,0.34664 ,3.40125 
343 ,63.9341 ,1.28314 ,0.33638 ,3.30052 
344 ,64.1265 ,1.28508 ,0.31926 ,3.13263 
345 ,64.3186 ,1.28695 ,0.31584 ,3.09905 
346 ,64.5107 ,1.28893 ,0.29873 ,2.93116 
347 ,64.7188 ,1.29088 ,0.29189 ,2.86400 
348 ,64.9107 ,1.29288 ,0.27135 ,2.66253 
349 ,65.0869 ,1.29469 ,0.27135 ,2.66253 
350 ,65.2632 ,1.29650 ,0.26793 ,2.62895 
351 ,65.4391 ,1.29826 ,0.26793 ,2.62895 
352 ,65.6153 ,1.30002 ,0.24055 ,2.36032 
353 ,65.8069 ,1.30186 ,0.22687 ,2.22601 
354 ,65.9993 ,1.30383 ,0.22687 ,2.22601 
355 ,66.2071 ,1.30581 ,0.20291 ,1.99096 
356 ,66.3834 ,1.30776 ,0.20976 ,2.05812 
357 ,66.5596 ,1.30944 ,0.19949 ,1.95738 
358 ,66.7351 ,1.31119 ,0.18238 ,1.78949 
359 ,66.9116 ,1.31294 ,0.16527 ,1.62160 
360 ,67.0877 ,1.31467 ,0.15500 ,1.52087 
361 ,67.2799 ,1.31665 ,0.15842 ,1.55445 
362 ,67.4719 ,1.31851 ,0.12420 ,1.21866 
363 ,67.6480 ,1.32025 ,0.12762 ,1.25224 
364 ,67.8560 ,1.32219 ,0.11736 ,1.15151 
365 ,68.0318 ,1.32413 ,0.10025 ,0.98361 
366 ,68.2082 ,1.32595 ,0.08656 ,0.84930 
367 ,68.4002 ,1.32783 ,0.09340 ,0.91646 
368 ,68.5763 ,1.32958 ,0.07287 ,0.71499 
369 ,68.7841 ,1.33151 ,0.07629 ,0.74857 
370 ,68.9605 ,1.33345 ,0.05918 ,0.58067 
371 ,69.1520 ,1.33531 ,0.02496 ,0.24489 
372 ,69.3286 ,1.33712 ,0.02154 ,0.21131 
373 ,69.5045 ,1.33882 ,0.02496 ,0.24489 
374 ,69.6807 ,1.34063 ,0.02496 ,0.24489 
375 ,69.8728 ,1.34247 ,-0.00242 ,-0.02373 
376 ,70.0489 ,1.34433 ,-0.01269 ,-0.12447 
377 ,70.2086 ,1.34604 ,-0.01611 ,-0.15805 
378 ,70.3846 ,1.34766 ,-0.01953 ,-0.19163 
379 ,70.5770 ,1.34949 ,-0.02295 ,-0.22520 
380 ,70.7532 ,1.35133 ,-0.05375 ,-0.52741 
381 ,70.9292 ,1.35309 ,-0.06402 ,-0.62814 
382 ,71.1214 ,1.35499 ,-0.06060 ,-0.59457 
383 ,71.3134 ,1.35693 ,-0.09140 ,-0.89677 
384 ,71.5055 ,1.35889 ,-0.08455 ,-0.82961 
385 ,71.6976 ,1.36082 ,-0.08113 ,-0.79604 
386 ,71.8737 ,1.36254 ,-0.11877 ,-1.16540 
387 ,72.0658 ,1.36437 ,-0.12219 ,-1.19898 
388 ,72.2579 ,1.36643 ,-0.11535 ,-1.13182 
389 ,72.4500 ,1.36824 ,-0.13246 ,-1.29971 
390 ,72.6421 ,1.37026 ,-0.13588 ,-1.33329 
391 ,72.8180 ,1.37203 ,-0.15299 ,-1.50118 
392 ,72.9942 ,1.37373 ,-0.17353 ,-1.70265 
393 ,73.1862 ,1.37563 ,-0.15984 ,-1.56834 
394 ,73.3779 ,1.37751 ,-0.18379 ,-1.80338 
395 ,73.5543 ,1.37936 ,-0.20433 ,-2.00485 
396 ,73.7464 ,1.38128 ,-0.20433 ,-2.00485 
397 ,73.9227 ,1.38302 ,-0.20433 ,-2.00485 
398 ,74.1146 ,1.38498 ,-0.22144 ,-2.17275 
399 ,74.3066 ,1.38682 ,-0.21802 ,-2.13917 
400 ,74.4824 ,1.38861 ,-0.22828 ,-2.23990 
401 ,74.6589 ,1.39041 ,-0.23855 ,-2.34064 
402 ,74.8506 ,1.39237 ,-0.25224 ,-2.47495 
403 ,75.0271 ,1.39405 ,-0.26250 ,-2.57569 
404 ,75.2348 ,1.39612 ,-0.29673 ,-2.91147 
405 ,75.4112 ,1.39790 ,-0.29330 ,-2.87789 
406 ,75.5872 ,1.39963 ,-0.28304 ,-2.77716 
407 ,75.7634 ,1.40141 ,-0.29673 ,-2.91147 
408 ,75.9395 ,1.40325 ,-0.29330 ,-2.87789 
409 ,76.1473 ,1.40519 ,-0.30699 ,-3.01220 
410 ,76.3236 ,1.40701 ,-0.31384 ,-3.07936 
411 ,76.5317 ,1.40906 ,-0.34464 ,-3.38156 
412 ,76.6918 ,1.41084 ,-0.35490 ,-3.48230 
413 ,76.8681 ,1.41244 ,-0.34464 ,-3.38156 
414 ,77.0438 ,1.41425 ,-0.35148 ,-3.44872 
415 ,77.2196 ,1.41599 ,-0.36859 ,-3.61661 
416 ,77.3961 ,1.41772 ,-0.38570 ,-3.78450 
417 ,77.5882 ,1.41959 ,-0.37886 ,-3.71735 
418 ,77.7638 ,1.42145 ,-0.38912 ,-3.81808 
419 ,77.9562 ,1.42326 ,-0.41308 ,-4.05313 
420 ,78.1324 ,1.42513 ,-0.42335 ,-4.15387 
421 ,78.3242 ,1.42708 ,-0.42335 ,-4.15387 
422 ,78.5003 ,1.42880 ,-0.43019 ,-4.22102 
423 ,78.6922 ,1.43065 ,-0.44388 ,-4.35534 
424 ,78.8687 ,1.43249 ,-0.45072 ,-4.42249 
425 ,79.0764 ,1.43453 ,-0.46441 ,-4.55681 
426 ,79.2688 ,1.43639 ,-0.46441 ,-4.55681 
427 ,79.4606 ,1.43835 ,-0.48837 ,-4.79185 
428 ,79.6527 ,1.44028 ,-0.48152 ,-4.72470 
429 ,79.8605 ,1.44232 ,-0.50548 ,-4.95975 
430 ,80.0370 ,1.44413 ,-0.51574 ,-5.06048 
431 ,80.2130 ,1.44597 ,-0.50890 ,-4.99332 
432 ,80.3892 ,1.44764 ,-0.51232 ,-5.02690 
433 ,80.5652 ,1.44939 ,-0.53285 ,-5.22837 
434 ,80.7413 ,1.45127 ,-0.55681 ,-5.46342 
435 ,80.9170 ,1.45291 ,-0.56365 ,-5.53058 
436 ,81.0936 ,1.45470 ,-0.57050 ,-5.59773 
437 ,81.2856 ,1.45664 ,-0.57392 ,-5.63131 
438 ,81.4777 ,1.45847 ,-0.59445 ,-5.83278 
439 ,81.6537 ,1.46033 ,-0.59103 ,-5.79920 
440 ,81.8297 ,1.46207 ,-0.59445 ,-5.83278 
441 ,82.0057 ,1.46379 ,-0.59788 ,-5.86636 
442 ,82.1818 ,1.46559 ,-0.62525 ,-6.13499 
443 ,82.3739 ,1.46744 ,-0.62868 ,-6.16856 
444 ,82.5660 ,1.46938 ,-0.63210 ,-6.20214 
445 ,82.7581 ,1.47134 ,-0.66290 ,-6.50435 
446 ,82.9340 ,1.47309 ,-0.65605 ,-6.43719 
447 ,83.1423 ,1.47515 ,-0.65947 ,-6.47077 
448 ,83.3340 ,1.47707 ,-0.68343 ,-6.70582 
449 ,83.5105 ,1.47885 ,-0.67316 ,-6.60508 
450 ,83.7024 ,1.48086 ,-0.70054 ,-6.87371 
451 ,83.8944 ,1.48264 ,-0.68685 ,-6.73940 
452 ,84.0703 ,1.48448 ,-0.70739 ,-6.94086 
453 ,84.2629 ,1.48633 ,-0.71765 ,-7.04160 
454 ,84.4709 ,1.48844 ,-0.70739 ,-6.94086 
455 ,84.6629 ,1.49032 ,-0.73134 ,-7.17591 
456 ,84.8390 ,1.49216 ,-0.74845 ,-7.34380 
457 ,85.0311 ,1.49407 ,-0.72792 ,-7.14233 
458 ,85.2231 ,1.49592 ,-0.76898 ,-7.54527 
459 ,85.3994 ,1.49776 ,-0.77925 ,-7.64601 
460 ,85.5913 ,1.49966 ,-0.77241 ,-7.57885 
461 ,85.7675 ,1.50146 ,-0.77925 ,-7.64601 
462 ,85.9754 ,1.50343 ,-0.78952 ,-7.74674 
463 ,86.1515 ,1.50533 ,-0.81005 ,-7.94821 
