Data stamp = , 20-04-2022 21:17:58 362

Calibration Values: 
Slope = , 26.54 , g/V 
Offset Voltage at no contact = , -0.501760 , V 

No , Time , Stage Position ,   Mass , Force 
   ,  (s) ,      (mm)      ,   (g)  , (mN)  

1 ,0.0000 ,0.64931 ,5.27114 ,51.72043 
2 ,0.2201 ,0.64940 ,5.28141 ,51.82116 
3 ,0.5402 ,0.65029 ,5.27114 ,51.72043 
4 ,0.8288 ,0.65204 ,5.28141 ,51.82116 
5 ,1.0205 ,0.65430 ,5.28141 ,51.82116 
6 ,1.2128 ,0.65609 ,5.28825 ,51.88832 
7 ,1.3889 ,0.65791 ,5.28825 ,51.88832 
8 ,1.5646 ,0.65965 ,5.29167 ,51.92190 
9 ,1.7246 ,0.66141 ,5.26772 ,51.68685 
10 ,1.8850 ,0.66301 ,5.24376 ,51.45180 
11 ,2.0771 ,0.66476 ,5.22323 ,51.25033 
12 ,2.2533 ,0.66663 ,5.23350 ,51.35107 
13 ,2.4293 ,0.66841 ,5.21639 ,51.18317 
14 ,2.5890 ,0.67007 ,5.18901 ,50.91455 
15 ,2.7654 ,0.67170 ,5.17532 ,50.78023 
16 ,2.9416 ,0.67346 ,5.15479 ,50.57876 
17 ,3.1334 ,0.67539 ,5.13425 ,50.37729 
18 ,3.3097 ,0.67724 ,5.11372 ,50.17583 
19 ,3.4858 ,0.67891 ,5.11372 ,50.17583 
20 ,3.6617 ,0.68062 ,5.08634 ,49.90720 
21 ,3.8379 ,0.68241 ,5.06239 ,49.67215 
22 ,4.0137 ,0.68418 ,5.04185 ,49.47068 
23 ,4.2060 ,0.68609 ,5.03501 ,49.40352 
24 ,4.3660 ,0.68782 ,5.00421 ,49.10132 
25 ,4.5581 ,0.68960 ,4.99052 ,48.96701 
26 ,4.7343 ,0.69138 ,4.98026 ,48.86627 
27 ,4.9104 ,0.69311 ,4.95630 ,48.63122 
28 ,5.1181 ,0.69517 ,4.93577 ,48.42975 
29 ,5.2947 ,0.69694 ,4.92550 ,48.32902 
30 ,5.4862 ,0.69884 ,4.91181 ,48.19471 
31 ,5.6623 ,0.70066 ,4.89470 ,48.02681 
32 ,5.8383 ,0.70241 ,4.86390 ,47.72461 
33 ,6.0149 ,0.70420 ,4.85364 ,47.62387 
34 ,6.2227 ,0.70622 ,4.82968 ,47.38883 
35 ,6.4146 ,0.70814 ,4.81257 ,47.22093 
36 ,6.6069 ,0.71005 ,4.78861 ,46.98589 
37 ,6.7988 ,0.71197 ,4.76466 ,46.75084 
38 ,6.9912 ,0.71387 ,4.77150 ,46.81800 
39 ,7.1993 ,0.71600 ,4.73728 ,46.48221 
40 ,7.3913 ,0.71792 ,4.72702 ,46.38148 
41 ,7.5675 ,0.71970 ,4.69622 ,46.07927 
42 ,7.7596 ,0.72164 ,4.68253 ,45.94496 
43 ,7.9511 ,0.72360 ,4.68937 ,46.01212 
44 ,8.1276 ,0.72529 ,4.66199 ,45.74349 
45 ,8.3038 ,0.72707 ,4.64488 ,45.57560 
46 ,8.4957 ,0.72894 ,4.61408 ,45.27339 
47 ,8.6716 ,0.73075 ,4.60382 ,45.17266 
48 ,8.8638 ,0.73268 ,4.58671 ,45.00477 
49 ,9.0397 ,0.73449 ,4.56617 ,44.80330 
50 ,9.2161 ,0.73620 ,4.54564 ,44.60183 
51 ,9.4079 ,0.73818 ,4.54222 ,44.56825 
52 ,9.6000 ,0.73988 ,4.52169 ,44.36678 
53 ,9.8081 ,0.74206 ,4.51142 ,44.26604 
54 ,9.9845 ,0.74389 ,4.49431 ,44.09815 
55 ,10.1604 ,0.74560 ,4.46351 ,43.79595 
56 ,10.3365 ,0.74738 ,4.43271 ,43.49374 
57 ,10.5126 ,0.74915 ,4.42586 ,43.42659 
58 ,10.7047 ,0.75105 ,4.40191 ,43.19154 
59 ,10.8967 ,0.75308 ,4.40533 ,43.22512 
60 ,11.0727 ,0.75477 ,4.38822 ,43.05723 
61 ,11.2649 ,0.75656 ,4.37453 ,42.92291 
62 ,11.4569 ,0.75856 ,4.33004 ,42.48639 
63 ,11.6330 ,0.76036 ,4.32320 ,42.41924 
64 ,11.8409 ,0.76236 ,4.29240 ,42.11703 
65 ,12.0332 ,0.76428 ,4.29582 ,42.15061 
66 ,12.2088 ,0.76616 ,4.27529 ,41.94914 
67 ,12.3853 ,0.76787 ,4.26845 ,41.88198 
68 ,12.5775 ,0.76963 ,4.24449 ,41.64694 
69 ,12.8013 ,0.77198 ,4.22053 ,41.41189 
70 ,12.9938 ,0.77392 ,4.21369 ,41.34473 
71 ,13.1697 ,0.77573 ,4.18974 ,41.10968 
72 ,13.3457 ,0.77746 ,4.17605 ,40.97537 
73 ,13.5379 ,0.77936 ,4.14525 ,40.67317 
74 ,13.7299 ,0.78131 ,4.14867 ,40.70674 
75 ,13.9218 ,0.78322 ,4.11103 ,40.33738 
76 ,14.0982 ,0.78494 ,4.10418 ,40.27023 
77 ,14.2737 ,0.78676 ,4.08023 ,40.03518 
78 ,14.4500 ,0.78846 ,4.06996 ,39.93444 
79 ,14.6582 ,0.79052 ,4.04600 ,39.69940 
80 ,14.8341 ,0.79236 ,4.03232 ,39.56508 
81 ,15.0423 ,0.79425 ,4.01520 ,39.39719 
82 ,15.2182 ,0.79619 ,3.98783 ,39.12856 
83 ,15.3942 ,0.79800 ,3.98441 ,39.09499 
84 ,15.5706 ,0.79976 ,3.96387 ,38.89352 
85 ,15.7625 ,0.80155 ,3.95703 ,38.82636 
86 ,15.9387 ,0.80338 ,3.93307 ,38.59131 
87 ,16.1144 ,0.80512 ,3.91938 ,38.45700 
88 ,16.2906 ,0.80689 ,3.90227 ,38.28911 
89 ,16.4667 ,0.80864 ,3.88858 ,38.15479 
90 ,16.6591 ,0.81055 ,3.86121 ,37.88617 
91 ,16.8670 ,0.81262 ,3.85436 ,37.81901 
92 ,17.0428 ,0.81437 ,3.84752 ,37.75185 
93 ,17.2189 ,0.81616 ,3.83041 ,37.58396 
94 ,17.4112 ,0.81807 ,3.82014 ,37.48323 
95 ,17.5870 ,0.81992 ,3.79961 ,37.28176 
96 ,17.7635 ,0.82158 ,3.77565 ,37.04671 
97 ,17.9395 ,0.82343 ,3.76196 ,36.91240 
98 ,18.1157 ,0.82515 ,3.73459 ,36.64377 
99 ,18.3076 ,0.82708 ,3.75170 ,36.81166 
100 ,18.4998 ,0.82903 ,3.72432 ,36.54303 
101 ,18.6755 ,0.83073 ,3.68325 ,36.14010 
102 ,18.8517 ,0.83253 ,3.67983 ,36.10652 
103 ,19.0279 ,0.83426 ,3.68325 ,36.14010 
104 ,19.2036 ,0.83602 ,3.66614 ,35.97220 
105 ,19.3800 ,0.83776 ,3.63192 ,35.63642 
106 ,19.5721 ,0.83960 ,3.61139 ,35.43495 
107 ,19.7482 ,0.84156 ,3.59770 ,35.30064 
108 ,19.9244 ,0.84318 ,3.60454 ,35.36779 
109 ,20.1323 ,0.84519 ,3.56006 ,34.93128 
110 ,20.3244 ,0.84725 ,3.55663 ,34.89770 
111 ,20.5004 ,0.84900 ,3.54295 ,34.76338 
112 ,20.6927 ,0.85082 ,3.53268 ,34.66265 
113 ,20.8687 ,0.85266 ,3.51899 ,34.52834 
114 ,21.0607 ,0.85455 ,3.48477 ,34.19255 
115 ,21.2368 ,0.85630 ,3.46766 ,34.02466 
116 ,21.4129 ,0.85809 ,3.45739 ,33.92393 
117 ,21.6050 ,0.86005 ,3.45739 ,33.92393 
118 ,21.7973 ,0.86197 ,3.41633 ,33.52099 
119 ,21.9892 ,0.86392 ,3.41290 ,33.48741 
120 ,22.1811 ,0.86570 ,3.38895 ,33.25236 
121 ,22.3734 ,0.86760 ,3.36157 ,32.98374 
122 ,22.5815 ,0.86969 ,3.33762 ,32.74869 
123 ,22.7576 ,0.87157 ,3.33077 ,32.68153 
124 ,22.9490 ,0.87348 ,3.32735 ,32.64795 
125 ,23.1416 ,0.87532 ,3.30682 ,32.44648 
126 ,23.3336 ,0.87732 ,3.29313 ,32.31217 
127 ,23.5417 ,0.87934 ,3.26575 ,32.04354 
128 ,23.7176 ,0.88112 ,3.25206 ,31.90923 
129 ,23.8939 ,0.88286 ,3.24180 ,31.80849 
130 ,24.0699 ,0.88463 ,3.22468 ,31.64060 
131 ,24.2461 ,0.88641 ,3.21442 ,31.53987 
132 ,24.4381 ,0.88834 ,3.16993 ,31.10335 
133 ,24.6301 ,0.89020 ,3.19388 ,31.33840 
134 ,24.8063 ,0.89207 ,3.16309 ,31.03619 
135 ,24.9984 ,0.89389 ,3.13913 ,30.80115 
136 ,25.1903 ,0.89592 ,3.14597 ,30.86830 
137 ,25.3824 ,0.89775 ,3.11175 ,30.53252 
138 ,25.5587 ,0.89955 ,3.09464 ,30.36463 
139 ,25.7502 ,0.90144 ,3.08438 ,30.26389 
140 ,25.9267 ,0.90325 ,3.07753 ,30.19674 
141 ,26.1184 ,0.90510 ,3.04673 ,29.89453 
142 ,26.2950 ,0.90689 ,3.01593 ,29.59233 
143 ,26.4870 ,0.90879 ,3.02620 ,29.69306 
144 ,26.6790 ,0.91070 ,3.00909 ,29.52517 
145 ,26.8710 ,0.91259 ,2.98171 ,29.25654 
146 ,27.0473 ,0.91444 ,2.97829 ,29.22297 
147 ,27.2388 ,0.91634 ,2.94749 ,28.92076 
148 ,27.4153 ,0.91811 ,2.92353 ,28.68571 
149 ,27.6075 ,0.92004 ,2.93038 ,28.75287 
150 ,27.8156 ,0.92211 ,2.89958 ,28.45066 
151 ,28.0076 ,0.92405 ,2.89616 ,28.41709 
152 ,28.1836 ,0.92578 ,2.87905 ,28.24919 
153 ,28.3597 ,0.92753 ,2.86536 ,28.11488 
154 ,28.5358 ,0.92931 ,2.84140 ,27.87983 
155 ,28.7116 ,0.93103 ,2.82429 ,27.71194 
156 ,28.8880 ,0.93284 ,2.82771 ,27.74552 
157 ,29.0640 ,0.93461 ,2.78665 ,27.34258 
158 ,29.2401 ,0.93633 ,2.77980 ,27.27542 
159 ,29.4161 ,0.93811 ,2.77980 ,27.27542 
160 ,29.5922 ,0.93988 ,2.76611 ,27.14111 
161 ,29.7684 ,0.94158 ,2.74900 ,26.97322 
162 ,29.9765 ,0.94358 ,2.72505 ,26.73817 
163 ,30.1686 ,0.94557 ,2.72163 ,26.70459 
164 ,30.3606 ,0.94751 ,2.70452 ,26.53670 
165 ,30.5366 ,0.94931 ,2.66687 ,26.16734 
166 ,30.7125 ,0.95108 ,2.65660 ,26.06661 
167 ,30.9208 ,0.95299 ,2.63607 ,25.86514 
168 ,31.1127 ,0.95499 ,2.64634 ,25.96587 
169 ,31.3209 ,0.95700 ,2.60869 ,25.59651 
170 ,31.5127 ,0.95898 ,2.60869 ,25.59651 
171 ,31.7053 ,0.96094 ,2.59158 ,25.42862 
172 ,31.9133 ,0.96298 ,2.55736 ,25.09283 
173 ,32.1373 ,0.96503 ,2.55052 ,25.02568 
174 ,32.3294 ,0.96720 ,2.53341 ,24.85779 
175 ,32.5055 ,0.96900 ,2.51972 ,24.72347 
176 ,32.6814 ,0.97072 ,2.50945 ,24.62274 
177 ,32.8577 ,0.97253 ,2.49576 ,24.48842 
178 ,33.0496 ,0.97436 ,2.49576 ,24.48842 
179 ,33.2257 ,0.97618 ,2.46839 ,24.21980 
180 ,33.4017 ,0.97789 ,2.46154 ,24.15264 
181 ,33.5780 ,0.97971 ,2.41705 ,23.71612 
182 ,33.7695 ,0.98158 ,2.41021 ,23.64897 
183 ,33.9455 ,0.98337 ,2.41363 ,23.68255 
184 ,34.1218 ,0.98513 ,2.38283 ,23.38034 
185 ,34.3301 ,0.98728 ,2.37941 ,23.34676 
186 ,34.5219 ,0.98907 ,2.35203 ,23.07814 
187 ,34.6984 ,0.99086 ,2.34519 ,23.01098 
188 ,34.8903 ,0.99279 ,2.32465 ,22.80951 
189 ,35.0666 ,0.99455 ,2.32465 ,22.80951 
190 ,35.2582 ,0.99650 ,2.29385 ,22.50731 
191 ,35.4348 ,0.99831 ,2.27674 ,22.33941 
192 ,35.6267 ,1.00009 ,2.26306 ,22.20510 
193 ,35.8184 ,1.00203 ,2.24252 ,22.00363 
194 ,35.9950 ,1.00389 ,2.22883 ,21.86932 
195 ,36.1710 ,1.00563 ,2.21857 ,21.76858 
196 ,36.3629 ,1.00754 ,2.20146 ,21.60069 
197 ,36.5550 ,1.00944 ,2.19119 ,21.49996 
198 ,36.7307 ,1.01125 ,2.17066 ,21.29849 
199 ,36.9068 ,1.01300 ,2.16723 ,21.26491 
200 ,37.0996 ,1.01482 ,2.13986 ,20.99628 
201 ,37.2751 ,1.01670 ,2.12275 ,20.82839 
202 ,37.4513 ,1.01839 ,2.11248 ,20.72766 
203 ,37.6596 ,1.02045 ,2.08852 ,20.49261 
204 ,37.8357 ,1.02229 ,2.08168 ,20.42545 
205 ,38.0276 ,1.02420 ,2.09195 ,20.52619 
206 ,38.2198 ,1.02609 ,2.06457 ,20.25756 
207 ,38.3962 ,1.02790 ,2.04746 ,20.08967 
208 ,38.5720 ,1.02968 ,2.03377 ,19.95535 
209 ,38.7638 ,1.03159 ,2.02693 ,19.88820 
210 ,38.9561 ,1.03345 ,1.99613 ,19.58599 
211 ,39.1478 ,1.03543 ,1.99955 ,19.61957 
212 ,39.3563 ,1.03744 ,1.96533 ,19.28379 
213 ,39.5484 ,1.03935 ,1.96190 ,19.25021 
214 ,39.7401 ,1.04126 ,1.94822 ,19.11590 
215 ,39.9161 ,1.04309 ,1.92084 ,18.84727 
216 ,40.0922 ,1.04481 ,1.90715 ,18.71296 
217 ,40.2842 ,1.04666 ,1.92084 ,18.84727 
218 ,40.4607 ,1.04846 ,1.89346 ,18.57864 
219 ,40.6686 ,1.05053 ,1.87635 ,18.41075 
220 ,40.8448 ,1.05236 ,1.85924 ,18.24286 
221 ,41.0208 ,1.05415 ,1.84897 ,18.14213 
222 ,41.1966 ,1.05584 ,1.82502 ,17.90708 
223 ,41.3894 ,1.05773 ,1.81475 ,17.80634 
224 ,41.5653 ,1.05954 ,1.80449 ,17.70561 
225 ,41.7572 ,1.06139 ,1.78395 ,17.50414 
226 ,41.9334 ,1.06317 ,1.77026 ,17.36983 
227 ,42.1413 ,1.06523 ,1.76000 ,17.26909 
228 ,42.3175 ,1.06703 ,1.74631 ,17.13478 
229 ,42.4936 ,1.06881 ,1.71551 ,16.83257 
230 ,42.7016 ,1.07082 ,1.72578 ,16.93331 
231 ,42.8776 ,1.07267 ,1.70524 ,16.73184 
232 ,43.0537 ,1.07438 ,1.68129 ,16.49679 
233 ,43.2299 ,1.07616 ,1.67444 ,16.42963 
234 ,43.4218 ,1.07802 ,1.67444 ,16.42963 
235 ,43.6140 ,1.08003 ,1.65049 ,16.19458 
236 ,43.7901 ,1.08177 ,1.62995 ,15.99311 
237 ,43.9820 ,1.08362 ,1.62653 ,15.95954 
238 ,44.1578 ,1.08549 ,1.60942 ,15.79164 
239 ,44.3499 ,1.08732 ,1.58204 ,15.52302 
240 ,44.5259 ,1.08923 ,1.58547 ,15.55660 
241 ,44.7181 ,1.09100 ,1.56836 ,15.38871 
242 ,44.8940 ,1.09282 ,1.55124 ,15.22081 
243 ,45.0864 ,1.09470 ,1.53413 ,15.05292 
244 ,45.2943 ,1.09680 ,1.52387 ,14.95219 
245 ,45.4704 ,1.09859 ,1.50333 ,14.75072 
246 ,45.6627 ,1.10044 ,1.50333 ,14.75072 
247 ,45.8707 ,1.10254 ,1.48622 ,14.58283 
248 ,46.0789 ,1.10457 ,1.47938 ,14.51567 
249 ,46.2868 ,1.10658 ,1.45885 ,14.31420 
250 ,46.4631 ,1.10847 ,1.44858 ,14.21346 
251 ,46.6390 ,1.11025 ,1.42462 ,13.97842 
252 ,46.8153 ,1.11201 ,1.39725 ,13.70979 
253 ,46.9910 ,1.11376 ,1.40067 ,13.74337 
254 ,47.1674 ,1.11554 ,1.39040 ,13.64263 
255 ,47.3435 ,1.11727 ,1.38698 ,13.60906 
256 ,47.5355 ,1.11921 ,1.34934 ,13.23969 
257 ,47.6957 ,1.12093 ,1.33907 ,13.13896 
258 ,47.8715 ,1.12257 ,1.34249 ,13.17254 
259 ,48.0634 ,1.12453 ,1.33907 ,13.13896 
260 ,48.2399 ,1.12625 ,1.31169 ,12.87033 
261 ,48.4320 ,1.12819 ,1.29458 ,12.70244 
262 ,48.6081 ,1.12996 ,1.29800 ,12.73602 
263 ,48.8162 ,1.13195 ,1.26720 ,12.43381 
264 ,49.0082 ,1.13398 ,1.27063 ,12.46739 
265 ,49.1841 ,1.13574 ,1.26720 ,12.43381 
266 ,49.3765 ,1.13764 ,1.23298 ,12.09803 
267 ,49.5845 ,1.13963 ,1.22614 ,12.03088 
268 ,49.7602 ,1.14144 ,1.22956 ,12.06445 
269 ,49.9524 ,1.14334 ,1.20218 ,11.79583 
270 ,50.1447 ,1.14529 ,1.19876 ,11.76225 
271 ,50.3365 ,1.14724 ,1.16454 ,11.42647 
272 ,50.5444 ,1.14921 ,1.15770 ,11.35931 
273 ,50.7368 ,1.15109 ,1.15770 ,11.35931 
274 ,50.9290 ,1.15312 ,1.13032 ,11.09068 
275 ,51.1050 ,1.15491 ,1.11663 ,10.95637 
276 ,51.2807 ,1.15667 ,1.10636 ,10.85563 
277 ,51.4732 ,1.15849 ,1.09610 ,10.75490 
278 ,51.6651 ,1.16054 ,1.09610 ,10.75490 
279 ,51.8733 ,1.16253 ,1.05503 ,10.35196 
280 ,52.0655 ,1.16454 ,1.05503 ,10.35196 
281 ,52.2734 ,1.16653 ,1.03450 ,10.15049 
282 ,52.4652 ,1.16845 ,1.02423 ,10.04976 
283 ,52.6414 ,1.17023 ,1.02765 ,10.08333 
284 ,52.8177 ,1.17202 ,1.00028 ,9.81471 
285 ,53.0094 ,1.17387 ,0.98317 ,9.64682 
286 ,53.1859 ,1.17571 ,0.97974 ,9.61324 
287 ,53.3940 ,1.17772 ,0.95237 ,9.34461 
288 ,53.5700 ,1.17954 ,0.93525 ,9.17672 
289 ,53.7461 ,1.18133 ,0.94894 ,9.31103 
290 ,53.9383 ,1.18326 ,0.92841 ,9.10956 
291 ,54.1302 ,1.18507 ,0.91130 ,8.94167 
292 ,54.3059 ,1.18692 ,0.91130 ,8.94167 
293 ,54.4824 ,1.18865 ,0.89419 ,8.77378 
294 ,54.6742 ,1.19050 ,0.85997 ,8.43800 
295 ,54.8506 ,1.19234 ,0.85997 ,8.43800 
296 ,55.0267 ,1.19410 ,0.84628 ,8.30368 
297 ,55.2187 ,1.19595 ,0.82575 ,8.10221 
298 ,55.3787 ,1.19775 ,0.81548 ,8.00148 
299 ,55.5548 ,1.19938 ,0.80179 ,7.86717 
300 ,55.7466 ,1.20120 ,0.78810 ,7.73285 
301 ,55.9390 ,1.20326 ,0.79152 ,7.76643 
302 ,56.1147 ,1.20499 ,0.77441 ,7.59854 
303 ,56.2751 ,1.20668 ,0.76415 ,7.49780 
304 ,56.4510 ,1.20837 ,0.75046 ,7.36349 
305 ,56.6432 ,1.21021 ,0.74361 ,7.29633 
306 ,56.8353 ,1.21219 ,0.72650 ,7.12844 
307 ,57.0275 ,1.21413 ,0.72650 ,7.12844 
308 ,57.2196 ,1.21598 ,0.70597 ,6.92697 
309 ,57.4112 ,1.21789 ,0.70255 ,6.89340 
310 ,57.6036 ,1.21983 ,0.69228 ,6.79266 
311 ,57.7798 ,1.22161 ,0.68201 ,6.69193 
312 ,57.9719 ,1.22349 ,0.65806 ,6.45688 
313 ,58.1638 ,1.22538 ,0.66148 ,6.49046 
314 ,58.3395 ,1.22719 ,0.64437 ,6.32256 
315 ,58.5161 ,1.22903 ,0.62384 ,6.12109 
316 ,58.7081 ,1.23094 ,0.61357 ,6.02036 
317 ,58.9001 ,1.23282 ,0.62042 ,6.08752 
318 ,59.0763 ,1.23461 ,0.58962 ,5.78531 
319 ,59.2683 ,1.23640 ,0.58962 ,5.78531 
320 ,59.4603 ,1.23847 ,0.56566 ,5.55026 
321 ,59.6364 ,1.24019 ,0.54855 ,5.38237 
322 ,59.8125 ,1.24197 ,0.53144 ,5.21448 
323 ,60.0047 ,1.24378 ,0.53828 ,5.28164 
324 ,60.1969 ,1.24576 ,0.51775 ,5.08017 
325 ,60.3889 ,1.24764 ,0.53828 ,5.28164 
326 ,60.5807 ,1.24952 ,0.51091 ,5.01301 
327 ,60.7566 ,1.25138 ,0.49037 ,4.81154 
328 ,60.9328 ,1.25313 ,0.46984 ,4.61007 
329 ,61.1407 ,1.25517 ,0.46984 ,4.61007 
330 ,61.3167 ,1.25708 ,0.45273 ,4.44218 
331 ,61.4929 ,1.25872 ,0.44588 ,4.37502 
332 ,61.6849 ,1.26063 ,0.44931 ,4.40860 
333 ,61.8611 ,1.26239 ,0.44246 ,4.34144 
334 ,62.0374 ,1.26420 ,0.40824 ,4.00566 
335 ,62.1972 ,1.26590 ,0.39797 ,3.90493 
336 ,62.3894 ,1.26767 ,0.40140 ,3.93850 
337 ,62.5655 ,1.26947 ,0.38771 ,3.80419 
338 ,62.7577 ,1.27129 ,0.37060 ,3.63630 
339 ,62.9499 ,1.27331 ,0.36033 ,3.53557 
340 ,63.1580 ,1.27522 ,0.34322 ,3.36767 
341 ,63.3499 ,1.27730 ,0.33980 ,3.33410 
342 ,63.5260 ,1.27908 ,0.33295 ,3.26694 
343 ,63.7182 ,1.28097 ,0.31242 ,3.06547 
344 ,63.8943 ,1.28272 ,0.29189 ,2.86400 
345 ,64.0701 ,1.28454 ,0.27478 ,2.69611 
346 ,64.2624 ,1.28635 ,0.28162 ,2.76326 
347 ,64.4705 ,1.28848 ,0.27478 ,2.69611 
348 ,64.6624 ,1.29037 ,0.25767 ,2.52822 
349 ,64.8706 ,1.29246 ,0.24055 ,2.36032 
350 ,65.0626 ,1.29437 ,0.23029 ,2.25959 
351 ,65.2548 ,1.29632 ,0.21318 ,2.09170 
352 ,65.4307 ,1.29811 ,0.20291 ,1.99096 
353 ,65.6069 ,1.29988 ,0.20291 ,1.99096 
354 ,65.7828 ,1.30161 ,0.20633 ,2.02454 
355 ,65.9591 ,1.30345 ,0.16869 ,1.65518 
356 ,66.1510 ,1.30524 ,0.17211 ,1.68876 
357 ,66.3274 ,1.30708 ,0.17211 ,1.68876 
358 ,66.5352 ,1.30907 ,0.13789 ,1.35298 
359 ,66.7274 ,1.31113 ,0.14131 ,1.38655 
360 ,66.8870 ,1.31281 ,0.11736 ,1.15151 
361 ,67.0791 ,1.31451 ,0.12078 ,1.18508 
362 ,67.2556 ,1.31635 ,0.08998 ,0.88288 
363 ,67.4315 ,1.31811 ,0.09340 ,0.91646 
364 ,67.6238 ,1.31998 ,0.08656 ,0.84930 
365 ,67.8316 ,1.32209 ,0.06260 ,0.61425 
366 ,68.0078 ,1.32396 ,0.05918 ,0.58067 
367 ,68.1840 ,1.32560 ,0.06260 ,0.61425 
368 ,68.3760 ,1.32757 ,0.03865 ,0.37920 
369 ,68.5682 ,1.32942 ,0.04207 ,0.41278 
370 ,68.7602 ,1.33138 ,0.03180 ,0.31205 
371 ,68.9520 ,1.33326 ,0.00443 ,0.04342 
372 ,69.1444 ,1.33517 ,-0.00926 ,-0.09089 
373 ,69.3364 ,1.33709 ,-0.01953 ,-0.19163 
374 ,69.5122 ,1.33891 ,-0.02637 ,-0.25878 
375 ,69.7366 ,1.34091 ,-0.02980 ,-0.29236 
376 ,69.9126 ,1.34288 ,-0.04691 ,-0.46025 
377 ,70.0883 ,1.34468 ,-0.05375 ,-0.52741 
378 ,70.2647 ,1.34646 ,-0.05717 ,-0.56099 
379 ,70.4727 ,1.34841 ,-0.07771 ,-0.76246 
380 ,70.6649 ,1.35040 ,-0.06402 ,-0.62814 
381 ,70.8570 ,1.35238 ,-0.09482 ,-0.93035 
382 ,71.0491 ,1.35419 ,-0.09824 ,-0.96393 
383 ,71.2412 ,1.35608 ,-0.09824 ,-0.96393 
384 ,71.4173 ,1.35795 ,-0.10508 ,-1.03108 
385 ,71.6093 ,1.35991 ,-0.13588 ,-1.33329 
386 ,71.7854 ,1.36162 ,-0.11877 ,-1.16540 
387 ,71.9775 ,1.36357 ,-0.14273 ,-1.40045 
388 ,72.1535 ,1.36529 ,-0.15642 ,-1.53476 
389 ,72.3615 ,1.36733 ,-0.16668 ,-1.63549 
390 ,72.5696 ,1.36940 ,-0.18379 ,-1.80338 
391 ,72.7615 ,1.37125 ,-0.19406 ,-1.90412 
392 ,72.9379 ,1.37318 ,-0.18379 ,-1.80338 
393 ,73.1301 ,1.37501 ,-0.19748 ,-1.93770 
394 ,73.3216 ,1.37691 ,-0.21802 ,-2.13917 
395 ,73.5141 ,1.37888 ,-0.23855 ,-2.34064 
396 ,73.7062 ,1.38084 ,-0.22828 ,-2.23990 
397 ,73.9143 ,1.38275 ,-0.25566 ,-2.50853 
398 ,74.1223 ,1.38494 ,-0.24881 ,-2.44137 
399 ,74.2984 ,1.38681 ,-0.28304 ,-2.77716 
400 ,74.4743 ,1.38851 ,-0.26935 ,-2.64284 
401 ,74.6504 ,1.39026 ,-0.28988 ,-2.84431 
402 ,74.8426 ,1.39213 ,-0.29330 ,-2.87789 
403 ,75.0343 ,1.39415 ,-0.30699 ,-3.01220 
404 ,75.2105 ,1.39583 ,-0.32068 ,-3.14652 
405 ,75.4025 ,1.39772 ,-0.32752 ,-3.21367 
406 ,75.5789 ,1.39959 ,-0.34121 ,-3.34799 
407 ,75.7709 ,1.40145 ,-0.34806 ,-3.41514 
408 ,75.9471 ,1.40325 ,-0.36175 ,-3.54946 
409 ,76.1391 ,1.40516 ,-0.35490 ,-3.48230 
410 ,76.3150 ,1.40691 ,-0.37201 ,-3.65019 
411 ,76.5071 ,1.40884 ,-0.38228 ,-3.75093 
412 ,76.6994 ,1.41064 ,-0.37886 ,-3.71735 
413 ,76.9075 ,1.41278 ,-0.39597 ,-3.88524 
414 ,77.0995 ,1.41467 ,-0.40966 ,-4.01955 
415 ,77.2756 ,1.41650 ,-0.43019 ,-4.22102 
416 ,77.4677 ,1.41846 ,-0.42335 ,-4.15387 
417 ,77.6436 ,1.42018 ,-0.43019 ,-4.22102 
418 ,77.8200 ,1.42195 ,-0.43361 ,-4.25460 
419 ,78.0119 ,1.42383 ,-0.46783 ,-4.59038 
420 ,78.2039 ,1.42574 ,-0.45757 ,-4.48965 
421 ,78.3800 ,1.42754 ,-0.46099 ,-4.52323 
422 ,78.5720 ,1.42940 ,-0.49863 ,-4.89259 
423 ,78.7481 ,1.43128 ,-0.48837 ,-4.79185 
424 ,78.9243 ,1.43303 ,-0.50548 ,-4.95975 
425 ,79.1322 ,1.43507 ,-0.52943 ,-5.19479 
426 ,79.3083 ,1.43680 ,-0.53285 ,-5.22837 
427 ,79.4845 ,1.43862 ,-0.53285 ,-5.22837 
428 ,79.6764 ,1.44052 ,-0.53628 ,-5.26195 
429 ,79.8686 ,1.44241 ,-0.56365 ,-5.53058 
430 ,80.0604 ,1.44432 ,-0.55681 ,-5.46342 
431 ,80.2526 ,1.44619 ,-0.56708 ,-5.56415 
432 ,80.4286 ,1.44804 ,-0.58761 ,-5.76562 
433 ,80.6208 ,1.44990 ,-0.58077 ,-5.69847 
434 ,80.7966 ,1.45180 ,-0.60472 ,-5.93352 
435 ,80.9730 ,1.45350 ,-0.59788 ,-5.86636 
436 ,81.1650 ,1.45538 ,-0.60814 ,-5.96709 
437 ,81.3410 ,1.45712 ,-0.60814 ,-5.96709 
438 ,81.5172 ,1.45897 ,-0.63552 ,-6.23572 
439 ,81.7089 ,1.46078 ,-0.63894 ,-6.26930 
440 ,81.8690 ,1.46253 ,-0.64579 ,-6.33646 
441 ,82.0452 ,1.46420 ,-0.65263 ,-6.40361 
442 ,82.2374 ,1.46610 ,-0.65263 ,-6.40361 
443 ,82.4136 ,1.46783 ,-0.68001 ,-6.67224 
444 ,82.5896 ,1.46970 ,-0.67316 ,-6.60508 
445 ,82.7658 ,1.47142 ,-0.68001 ,-6.67224 
446 ,82.9414 ,1.47312 ,-0.68343 ,-6.70582 
447 ,83.1176 ,1.47493 ,-0.69027 ,-6.77297 
448 ,83.3260 ,1.47694 ,-0.69027 ,-6.77297 
449 ,83.5177 ,1.47882 ,-0.71765 ,-7.04160 
450 ,83.6941 ,1.48064 ,-0.71423 ,-7.00802 
451 ,83.8861 ,1.48260 ,-0.73134 ,-7.17591 
452 ,84.0618 ,1.48439 ,-0.72107 ,-7.07518 
453 ,84.2544 ,1.48618 ,-0.75872 ,-7.44454 
454 ,84.4464 ,1.48811 ,-0.75187 ,-7.37738 
455 ,84.6545 ,1.49012 ,-0.75187 ,-7.37738 
456 ,84.8623 ,1.49229 ,-0.75187 ,-7.37738 
457 ,85.0382 ,1.49417 ,-0.78952 ,-7.74674 
458 ,85.2146 ,1.49586 ,-0.78267 ,-7.67959 
459 ,85.4068 ,1.49774 ,-0.79978 ,-7.84748 
460 ,85.5829 ,1.49952 ,-0.80663 ,-7.91464 
461 ,85.7910 ,1.50160 ,-0.81347 ,-7.98179 
462 ,85.9670 ,1.50338 ,-0.83058 ,-8.14968 
463 ,86.1591 ,1.50529 ,-0.81689 ,-8.01537 
