Data stamp = , 20-04-2022 23:56:23 821

Calibration Values: 
Slope = , 26.54 , g/V 
Offset Voltage at no contact = , -0.501760 , V 

No , Time , Stage Position ,   Mass , Force 
   ,  (s) ,      (mm)      ,   (g)  , (mN)  

1 ,0.0000 ,0.64937 ,5.26430 ,51.65327 
2 ,0.2014 ,0.64943 ,5.28483 ,51.85474 
3 ,0.6820 ,0.65099 ,5.28825 ,51.88832 
4 ,0.8901 ,0.65300 ,5.26772 ,51.68685 
5 ,1.0821 ,0.65492 ,5.27456 ,51.75401 
6 ,1.2583 ,0.65672 ,5.26430 ,51.65327 
7 ,1.4342 ,0.65839 ,5.26430 ,51.65327 
8 ,1.6263 ,0.66027 ,5.27114 ,51.72043 
9 ,1.8184 ,0.66221 ,5.26087 ,51.61969 
10 ,2.0266 ,0.66434 ,5.24034 ,51.41822 
11 ,2.2344 ,0.66644 ,5.21296 ,51.14960 
12 ,2.4266 ,0.66839 ,5.21296 ,51.14960 
13 ,2.6187 ,0.67026 ,5.17190 ,50.74666 
14 ,2.8110 ,0.67224 ,5.18216 ,50.84739 
15 ,3.0028 ,0.67412 ,5.13425 ,50.37729 
16 ,3.1790 ,0.67591 ,5.12056 ,50.24298 
17 ,3.3548 ,0.67766 ,5.10345 ,50.07509 
18 ,3.5312 ,0.67945 ,5.07950 ,49.84004 
19 ,3.7233 ,0.68135 ,5.06581 ,49.70573 
20 ,3.8992 ,0.68311 ,5.04528 ,49.50426 
21 ,4.0753 ,0.68486 ,5.02817 ,49.33637 
22 ,4.2516 ,0.68667 ,5.03159 ,49.36995 
23 ,4.4272 ,0.68846 ,4.99394 ,49.00058 
24 ,4.6038 ,0.69018 ,4.99052 ,48.96701 
25 ,4.8115 ,0.69225 ,4.96657 ,48.73196 
26 ,4.9879 ,0.69400 ,4.95972 ,48.66480 
27 ,5.1800 ,0.69584 ,4.93235 ,48.39618 
28 ,5.3720 ,0.69780 ,4.92208 ,48.29544 
29 ,5.5315 ,0.69955 ,4.89128 ,47.99324 
30 ,5.7402 ,0.70136 ,4.86732 ,47.75819 
31 ,5.9482 ,0.70353 ,4.85021 ,47.59030 
32 ,6.1257 ,0.70543 ,4.80915 ,47.18736 
33 ,6.3163 ,0.70731 ,4.81257 ,47.22093 
34 ,6.5085 ,0.70920 ,4.80573 ,47.15378 
35 ,6.7001 ,0.71107 ,4.77150 ,46.81800 
36 ,6.8925 ,0.71307 ,4.76124 ,46.71726 
37 ,7.0685 ,0.71484 ,4.75097 ,46.61653 
38 ,7.2609 ,0.71674 ,4.72017 ,46.31432 
39 ,7.4528 ,0.71859 ,4.71675 ,46.28074 
40 ,7.6286 ,0.72041 ,4.68937 ,46.01212 
41 ,7.8210 ,0.72229 ,4.65857 ,45.70991 
42 ,8.0291 ,0.72433 ,4.65515 ,45.67633 
43 ,8.2050 ,0.72615 ,4.63462 ,45.47486 
44 ,8.3971 ,0.72802 ,4.62093 ,45.34055 
45 ,8.5894 ,0.73006 ,4.60382 ,45.17266 
46 ,8.7808 ,0.73196 ,4.57644 ,44.90403 
47 ,8.9574 ,0.73370 ,4.55249 ,44.66898 
48 ,9.1495 ,0.73551 ,4.55933 ,44.73614 
49 ,9.3255 ,0.73736 ,4.53537 ,44.50109 
50 ,9.5176 ,0.73924 ,4.52169 ,44.36678 
51 ,9.7097 ,0.74120 ,4.51826 ,44.33320 
52 ,9.9017 ,0.74319 ,4.49089 ,44.06457 
53 ,10.0779 ,0.74490 ,4.47378 ,43.89668 
54 ,10.2540 ,0.74665 ,4.44298 ,43.59448 
55 ,10.4458 ,0.74850 ,4.43955 ,43.56090 
56 ,10.6381 ,0.75050 ,4.40533 ,43.22512 
57 ,10.8140 ,0.75226 ,4.40191 ,43.19154 
58 ,10.9902 ,0.75401 ,4.40191 ,43.19154 
59 ,11.1823 ,0.75587 ,4.35058 ,42.68786 
60 ,11.3743 ,0.75778 ,4.35742 ,42.75502 
61 ,11.5665 ,0.75968 ,4.33689 ,42.55355 
62 ,11.7586 ,0.76162 ,4.31978 ,42.38566 
63 ,11.9343 ,0.76347 ,4.29582 ,42.15061 
64 ,12.1105 ,0.76517 ,4.29240 ,42.11703 
65 ,12.3189 ,0.76726 ,4.25476 ,41.74767 
66 ,12.5269 ,0.76937 ,4.25133 ,41.71409 
67 ,12.7030 ,0.77116 ,4.22053 ,41.41189 
68 ,12.8949 ,0.77304 ,4.22396 ,41.44547 
69 ,13.0711 ,0.77487 ,4.18974 ,41.10968 
70 ,13.2473 ,0.77657 ,4.17947 ,41.00895 
71 ,13.4549 ,0.77861 ,4.16920 ,40.90821 
72 ,13.6314 ,0.78042 ,4.16236 ,40.84106 
73 ,13.8234 ,0.78227 ,4.12129 ,40.43812 
74 ,13.9996 ,0.78412 ,4.10418 ,40.27023 
75 ,14.1912 ,0.78597 ,4.10418 ,40.27023 
76 ,14.3836 ,0.78790 ,4.06312 ,39.86729 
77 ,14.5596 ,0.78967 ,4.05627 ,39.80013 
78 ,14.7357 ,0.79148 ,4.04943 ,39.73297 
79 ,14.9118 ,0.79319 ,4.03916 ,39.63224 
80 ,15.1038 ,0.79507 ,4.00836 ,39.33003 
81 ,15.3120 ,0.79712 ,3.99467 ,39.19572 
82 ,15.5039 ,0.79919 ,3.97414 ,38.99425 
83 ,15.6961 ,0.80103 ,3.96045 ,38.85994 
84 ,15.9042 ,0.80297 ,3.93992 ,38.65847 
85 ,16.1121 ,0.80514 ,3.93650 ,38.62489 
86 ,16.2884 ,0.80698 ,3.89885 ,38.25553 
87 ,16.4645 ,0.80877 ,3.88516 ,38.12122 
88 ,16.6566 ,0.81065 ,3.87832 ,38.05406 
89 ,16.8644 ,0.81259 ,3.85436 ,37.81901 
90 ,17.0567 ,0.81457 ,3.84067 ,37.68470 
91 ,17.2328 ,0.81648 ,3.81672 ,37.44965 
92 ,17.4088 ,0.81820 ,3.81672 ,37.44965 
93 ,17.6009 ,0.82011 ,3.78592 ,37.14744 
94 ,17.7930 ,0.82196 ,3.77908 ,37.08029 
95 ,17.9694 ,0.82380 ,3.76881 ,36.97955 
96 ,18.1449 ,0.82553 ,3.73117 ,36.61019 
97 ,18.3212 ,0.82729 ,3.70379 ,36.34157 
98 ,18.5453 ,0.82957 ,3.70037 ,36.30799 
99 ,18.7533 ,0.83154 ,3.69010 ,36.20725 
100 ,18.9294 ,0.83342 ,3.67641 ,36.07294 
101 ,19.1215 ,0.83527 ,3.64561 ,35.77073 
102 ,19.2974 ,0.83705 ,3.62850 ,35.60284 
103 ,19.4733 ,0.83879 ,3.63877 ,35.70358 
104 ,19.6658 ,0.84073 ,3.59428 ,35.26706 
105 ,19.8579 ,0.84269 ,3.59086 ,35.23348 
106 ,20.0500 ,0.84454 ,3.57032 ,35.03201 
107 ,20.2420 ,0.84659 ,3.56006 ,34.93128 
108 ,20.4339 ,0.84836 ,3.54637 ,34.79696 
109 ,20.6099 ,0.85018 ,3.52241 ,34.56192 
110 ,20.7862 ,0.85194 ,3.50188 ,34.36045 
111 ,20.9623 ,0.85372 ,3.48135 ,34.15898 
112 ,21.1542 ,0.85557 ,3.49846 ,34.32687 
113 ,21.3465 ,0.85741 ,3.45739 ,33.92393 
114 ,21.5386 ,0.85938 ,3.44028 ,33.75604 
115 ,21.7466 ,0.86153 ,3.41290 ,33.48741 
116 ,21.9387 ,0.86350 ,3.41975 ,33.55457 
117 ,22.1307 ,0.86539 ,3.39237 ,33.28594 
118 ,22.3069 ,0.86714 ,3.36499 ,33.01731 
119 ,22.4828 ,0.86897 ,3.35473 ,32.91658 
120 ,22.6745 ,0.87071 ,3.33077 ,32.68153 
121 ,22.8510 ,0.87260 ,3.32051 ,32.58080 
122 ,23.0589 ,0.87458 ,3.32735 ,32.64795 
123 ,23.2511 ,0.87660 ,3.27259 ,32.11070 
124 ,23.4429 ,0.87844 ,3.28286 ,32.21143 
125 ,23.6194 ,0.88029 ,3.25891 ,31.97639 
126 ,23.8114 ,0.88214 ,3.23837 ,31.77492 
127 ,23.9875 ,0.88395 ,3.21784 ,31.57345 
128 ,24.1795 ,0.88596 ,3.21100 ,31.50629 
129 ,24.3556 ,0.88767 ,3.19388 ,31.33840 
130 ,24.5637 ,0.88965 ,3.17677 ,31.17051 
131 ,24.7719 ,0.89165 ,3.17335 ,31.13693 
132 ,24.9635 ,0.89361 ,3.13229 ,30.73399 
133 ,25.1394 ,0.89546 ,3.12202 ,30.63325 
134 ,25.3158 ,0.89718 ,3.12202 ,30.63325 
135 ,25.4920 ,0.89896 ,3.10149 ,30.43178 
136 ,25.6676 ,0.90083 ,3.06384 ,30.06242 
137 ,25.8597 ,0.90261 ,3.07069 ,30.12958 
138 ,26.0521 ,0.90453 ,3.05700 ,29.99527 
139 ,26.2924 ,0.90695 ,3.04331 ,29.86095 
140 ,26.4843 ,0.90886 ,3.00224 ,29.45801 
141 ,26.6603 ,0.91071 ,2.98855 ,29.32370 
142 ,26.8686 ,0.91256 ,2.97487 ,29.18939 
143 ,27.0604 ,0.91456 ,2.96118 ,29.05507 
144 ,27.2364 ,0.91637 ,2.95776 ,29.02150 
145 ,27.4129 ,0.91816 ,2.94407 ,28.88718 
146 ,27.6209 ,0.92010 ,2.90642 ,28.51782 
147 ,27.7968 ,0.92201 ,2.90300 ,28.48424 
148 ,27.9734 ,0.92383 ,2.90300 ,28.48424 
149 ,28.1491 ,0.92553 ,2.86536 ,28.11488 
150 ,28.3251 ,0.92727 ,2.84825 ,27.94699 
151 ,28.5333 ,0.92934 ,2.84140 ,27.87983 
152 ,28.7253 ,0.93120 ,2.81402 ,27.61121 
153 ,28.9013 ,0.93308 ,2.80034 ,27.47689 
154 ,29.1095 ,0.93512 ,2.78665 ,27.34258 
155 ,29.2855 ,0.93689 ,2.76269 ,27.10753 
156 ,29.4776 ,0.93874 ,2.75927 ,27.07395 
157 ,29.6537 ,0.94056 ,2.73189 ,26.80533 
158 ,29.8618 ,0.94257 ,2.71820 ,26.67101 
159 ,30.0379 ,0.94444 ,2.71136 ,26.60386 
160 ,30.2454 ,0.94642 ,2.68398 ,26.33523 
161 ,30.4220 ,0.94826 ,2.66003 ,26.10018 
162 ,30.5982 ,0.95008 ,2.66687 ,26.16734 
163 ,30.7738 ,0.95186 ,2.64634 ,25.96587 
164 ,30.9661 ,0.95362 ,2.64634 ,25.96587 
165 ,31.1742 ,0.95570 ,2.61896 ,25.69724 
166 ,31.3820 ,0.95777 ,2.60185 ,25.52935 
167 ,31.5583 ,0.95964 ,2.58474 ,25.36146 
168 ,31.7345 ,0.96139 ,2.57789 ,25.29430 
169 ,31.9425 ,0.96337 ,2.55394 ,25.05926 
170 ,32.1187 ,0.96519 ,2.54025 ,24.92494 
171 ,32.3267 ,0.96732 ,2.51972 ,24.72347 
172 ,32.5028 ,0.96916 ,2.51287 ,24.65632 
173 ,32.6788 ,0.97083 ,2.50261 ,24.55558 
174 ,32.8550 ,0.97255 ,2.49234 ,24.45485 
175 ,33.0631 ,0.97461 ,2.46154 ,24.15264 
176 ,33.2552 ,0.97653 ,2.44443 ,23.98475 
177 ,33.4631 ,0.97857 ,2.43074 ,23.85044 
178 ,33.6554 ,0.98050 ,2.43074 ,23.85044 
179 ,33.8795 ,0.98266 ,2.40679 ,23.61539 
180 ,34.0874 ,0.98487 ,2.37256 ,23.27961 
181 ,34.2633 ,0.98665 ,2.37941 ,23.34676 
182 ,34.4396 ,0.98843 ,2.36230 ,23.17887 
183 ,34.6156 ,0.99018 ,2.35203 ,23.07814 
184 ,34.7918 ,0.99194 ,2.33492 ,22.91024 
185 ,34.9838 ,0.99381 ,2.30070 ,22.57446 
186 ,35.1599 ,0.99563 ,2.29043 ,22.47373 
187 ,35.3680 ,0.99758 ,2.26648 ,22.23868 
188 ,35.5440 ,0.99950 ,2.25963 ,22.17152 
189 ,35.7040 ,1.00114 ,2.24252 ,22.00363 
190 ,35.8804 ,1.00280 ,2.22541 ,21.83574 
191 ,36.0560 ,1.00459 ,2.23226 ,21.90290 
192 ,36.2320 ,1.00630 ,2.20488 ,21.63427 
193 ,36.4081 ,1.00807 ,2.18435 ,21.43280 
194 ,36.5842 ,1.00984 ,2.15697 ,21.16417 
195 ,36.7604 ,1.01160 ,2.16039 ,21.19775 
196 ,36.9367 ,1.01341 ,2.16723 ,21.26491 
197 ,37.1288 ,1.01533 ,2.12959 ,20.89555 
198 ,37.3207 ,1.01720 ,2.10906 ,20.69408 
199 ,37.5130 ,1.01909 ,2.11590 ,20.76123 
200 ,37.7048 ,1.02099 ,2.08168 ,20.42545 
201 ,37.8969 ,1.02306 ,2.07484 ,20.35829 
202 ,38.0735 ,1.02476 ,2.06115 ,20.22398 
203 ,38.2653 ,1.02660 ,2.04061 ,20.02251 
204 ,38.4573 ,1.02850 ,2.03035 ,19.92178 
205 ,38.6335 ,1.03032 ,2.01666 ,19.78746 
206 ,38.8412 ,1.03230 ,1.97902 ,19.41810 
207 ,39.0336 ,1.03430 ,1.97217 ,19.35094 
208 ,39.2255 ,1.03622 ,1.95848 ,19.21663 
209 ,39.4177 ,1.03814 ,1.96533 ,19.28379 
210 ,39.6098 ,1.04010 ,1.93111 ,18.94801 
211 ,39.7859 ,1.04190 ,1.91742 ,18.81369 
212 ,39.9615 ,1.04367 ,1.92426 ,18.88085 
213 ,40.1380 ,1.04536 ,1.90715 ,18.71296 
214 ,40.3140 ,1.04711 ,1.91399 ,18.78011 
215 ,40.5062 ,1.04899 ,1.87635 ,18.41075 
216 ,40.6984 ,1.05093 ,1.87635 ,18.41075 
217 ,40.8744 ,1.05278 ,1.83871 ,18.04139 
218 ,41.0501 ,1.05447 ,1.82844 ,17.94066 
219 ,41.2266 ,1.05628 ,1.80106 ,17.67203 
220 ,41.4186 ,1.05817 ,1.81133 ,17.77276 
221 ,41.6107 ,1.06010 ,1.79422 ,17.60487 
222 ,41.7866 ,1.06183 ,1.76000 ,17.26909 
223 ,41.9789 ,1.06377 ,1.77026 ,17.36983 
224 ,42.1705 ,1.06568 ,1.73946 ,17.06762 
225 ,42.3469 ,1.06746 ,1.72235 ,16.89973 
226 ,42.5390 ,1.06939 ,1.72235 ,16.89973 
227 ,42.7308 ,1.07126 ,1.69498 ,16.63110 
228 ,42.9232 ,1.07321 ,1.69155 ,16.59752 
229 ,43.1152 ,1.07515 ,1.67786 ,16.46321 
230 ,43.3074 ,1.07703 ,1.65391 ,16.22816 
231 ,43.4994 ,1.07897 ,1.65391 ,16.22816 
232 ,43.6755 ,1.08075 ,1.64022 ,16.09385 
233 ,43.8516 ,1.08250 ,1.62311 ,15.92596 
234 ,44.0276 ,1.08428 ,1.59916 ,15.69091 
235 ,44.2193 ,1.08616 ,1.58889 ,15.59018 
236 ,44.3957 ,1.08793 ,1.60258 ,15.72449 
237 ,44.6039 ,1.08995 ,1.57520 ,15.45586 
238 ,44.7959 ,1.09190 ,1.55467 ,15.25439 
239 ,44.9880 ,1.09379 ,1.54782 ,15.18724 
240 ,45.1635 ,1.09560 ,1.52045 ,14.91861 
241 ,45.3397 ,1.09747 ,1.52045 ,14.91861 
242 ,45.5162 ,1.09916 ,1.50676 ,14.78430 
243 ,45.7083 ,1.10105 ,1.47938 ,14.51567 
244 ,45.9164 ,1.10299 ,1.47596 ,14.48209 
245 ,46.1085 ,1.10506 ,1.45885 ,14.31420 
246 ,46.3005 ,1.10697 ,1.43831 ,14.11273 
247 ,46.4766 ,1.10876 ,1.42462 ,13.97842 
248 ,46.6526 ,1.11048 ,1.41778 ,13.91126 
249 ,46.8771 ,1.11258 ,1.39725 ,13.70979 
250 ,47.0688 ,1.11461 ,1.37671 ,13.50832 
251 ,47.2446 ,1.11641 ,1.38014 ,13.54190 
252 ,47.4369 ,1.11825 ,1.36303 ,13.37401 
253 ,47.6290 ,1.12026 ,1.34591 ,13.20612 
254 ,47.8210 ,1.12216 ,1.33907 ,13.13896 
255 ,47.9972 ,1.12394 ,1.32538 ,13.00465 
256 ,48.1738 ,1.12577 ,1.31512 ,12.90391 
257 ,48.3493 ,1.12761 ,1.29458 ,12.70244 
258 ,48.5410 ,1.12934 ,1.28774 ,12.63528 
259 ,48.7174 ,1.13114 ,1.28432 ,12.60171 
260 ,48.9094 ,1.13306 ,1.26036 ,12.36666 
261 ,49.0856 ,1.13479 ,1.23641 ,12.13161 
262 ,49.2778 ,1.13669 ,1.23641 ,12.13161 
263 ,49.4699 ,1.13869 ,1.22272 ,11.99730 
264 ,49.6614 ,1.14051 ,1.22272 ,11.99730 
265 ,49.8539 ,1.14245 ,1.20561 ,11.82941 
266 ,50.0460 ,1.14434 ,1.18165 ,11.59436 
267 ,50.2382 ,1.14634 ,1.19192 ,11.69509 
268 ,50.4460 ,1.14836 ,1.16796 ,11.46004 
269 ,50.6383 ,1.15026 ,1.14401 ,11.22500 
270 ,50.8142 ,1.15207 ,1.12347 ,11.02353 
271 ,51.0065 ,1.15396 ,1.11663 ,10.95637 
272 ,51.2144 ,1.15600 ,1.10294 ,10.82206 
273 ,51.3906 ,1.15785 ,1.08583 ,10.65416 
274 ,51.5826 ,1.15965 ,1.06530 ,10.45270 
275 ,51.7585 ,1.16160 ,1.07899 ,10.58701 
276 ,51.9508 ,1.16345 ,1.03792 ,10.18407 
277 ,52.1428 ,1.16539 ,1.05503 ,10.35196 
278 ,52.3191 ,1.16712 ,1.04134 ,10.21765 
279 ,52.5111 ,1.16909 ,1.00712 ,9.88186 
280 ,52.7191 ,1.17107 ,1.01054 ,9.91544 
281 ,52.8948 ,1.17291 ,1.00712 ,9.88186 
282 ,53.0715 ,1.17469 ,0.98317 ,9.64682 
283 ,53.2791 ,1.17667 ,0.97974 ,9.61324 
284 ,53.4554 ,1.17848 ,0.95921 ,9.41177 
285 ,53.6476 ,1.18042 ,0.93525 ,9.17672 
286 ,53.8396 ,1.18231 ,0.92841 ,9.10956 
287 ,54.0317 ,1.18428 ,0.91814 ,9.00883 
288 ,54.2397 ,1.18633 ,0.89419 ,8.77378 
289 ,54.4158 ,1.18808 ,0.89419 ,8.77378 
290 ,54.6078 ,1.18992 ,0.88050 ,8.63947 
291 ,54.7840 ,1.19179 ,0.87708 ,8.60589 
292 ,54.9763 ,1.19364 ,0.85312 ,8.37084 
293 ,55.1683 ,1.19565 ,0.83259 ,8.16937 
294 ,55.3603 ,1.19757 ,0.83259 ,8.16937 
295 ,55.5524 ,1.19951 ,0.81548 ,8.00148 
296 ,55.7605 ,1.20149 ,0.80179 ,7.86717 
297 ,55.9523 ,1.20346 ,0.78468 ,7.69927 
298 ,56.1441 ,1.20533 ,0.77099 ,7.56496 
299 ,56.3207 ,1.20709 ,0.76415 ,7.49780 
300 ,56.4967 ,1.20890 ,0.75046 ,7.36349 
301 ,56.6729 ,1.21072 ,0.73335 ,7.19560 
302 ,56.8649 ,1.21250 ,0.71624 ,7.02771 
303 ,57.0569 ,1.21445 ,0.71624 ,7.02771 
304 ,57.2809 ,1.21649 ,0.69570 ,6.82624 
305 ,57.4732 ,1.21862 ,0.68201 ,6.69193 
306 ,57.6651 ,1.22050 ,0.66490 ,6.52403 
307 ,57.8733 ,1.22253 ,0.65806 ,6.45688 
308 ,58.0652 ,1.22464 ,0.66490 ,6.52403 
309 ,58.2569 ,1.22645 ,0.63753 ,6.25541 
310 ,58.4495 ,1.22836 ,0.61699 ,6.05394 
311 ,58.6415 ,1.23029 ,0.62384 ,6.12109 
312 ,58.8176 ,1.23214 ,0.61015 ,5.98678 
313 ,59.0097 ,1.23397 ,0.58962 ,5.78531 
314 ,59.2176 ,1.23605 ,0.58619 ,5.75173 
315 ,59.3935 ,1.23780 ,0.56908 ,5.58384 
316 ,59.5701 ,1.23962 ,0.54855 ,5.38237 
317 ,59.7619 ,1.24149 ,0.54855 ,5.38237 
318 ,59.9381 ,1.24337 ,0.54513 ,5.34879 
319 ,60.1302 ,1.24516 ,0.51433 ,5.04659 
320 ,60.3220 ,1.24707 ,0.49722 ,4.87870 
321 ,60.4978 ,1.24901 ,0.48695 ,4.77796 
322 ,60.7064 ,1.25083 ,0.49380 ,4.84512 
323 ,60.8985 ,1.25290 ,0.48695 ,4.77796 
324 ,61.1066 ,1.25484 ,0.48011 ,4.71081 
325 ,61.2985 ,1.25687 ,0.44931 ,4.40860 
326 ,61.4743 ,1.25867 ,0.44588 ,4.37502 
327 ,61.6505 ,1.26048 ,0.42535 ,4.17355 
328 ,61.8588 ,1.26245 ,0.42877 ,4.20713 
329 ,62.0346 ,1.26425 ,0.40140 ,3.93850 
330 ,62.2269 ,1.26619 ,0.39113 ,3.83777 
331 ,62.4346 ,1.26818 ,0.37060 ,3.63630 
332 ,62.6110 ,1.26998 ,0.36375 ,3.56914 
333 ,62.7869 ,1.27176 ,0.37402 ,3.66988 
334 ,62.9796 ,1.27363 ,0.34664 ,3.40125 
335 ,63.1553 ,1.27546 ,0.33295 ,3.26694 
336 ,63.3634 ,1.27747 ,0.34322 ,3.36767 
337 ,63.5395 ,1.27931 ,0.31926 ,3.13263 
338 ,63.7157 ,1.28108 ,0.30558 ,2.99831 
339 ,63.9236 ,1.28309 ,0.30558 ,2.99831 
340 ,64.0994 ,1.28488 ,0.29531 ,2.89758 
341 ,64.2918 ,1.28685 ,0.26109 ,2.56179 
342 ,64.4838 ,1.28871 ,0.27135 ,2.66253 
343 ,64.6597 ,1.29051 ,0.25767 ,2.52822 
344 ,64.8360 ,1.29231 ,0.24398 ,2.39390 
345 ,65.0440 ,1.29425 ,0.23371 ,2.29317 
346 ,65.2202 ,1.29612 ,0.21318 ,2.09170 
347 ,65.3962 ,1.29784 ,0.20291 ,1.99096 
348 ,65.5884 ,1.29967 ,0.18580 ,1.82307 
349 ,65.7800 ,1.30168 ,0.18580 ,1.82307 
350 ,65.9565 ,1.30345 ,0.17896 ,1.75592 
351 ,66.1644 ,1.30540 ,0.14816 ,1.45371 
352 ,66.3726 ,1.30762 ,0.14131 ,1.38655 
353 ,66.5646 ,1.30945 ,0.15158 ,1.48729 
354 ,66.7408 ,1.31130 ,0.12762 ,1.25224 
355 ,66.9328 ,1.31327 ,0.12762 ,1.25224 
356 ,67.1090 ,1.31498 ,0.10025 ,0.98361 
357 ,67.3167 ,1.31689 ,0.09340 ,0.91646 
358 ,67.5092 ,1.31896 ,0.07971 ,0.78214 
359 ,67.7011 ,1.32082 ,0.05576 ,0.54710 
360 ,67.8769 ,1.32269 ,0.05576 ,0.54710 
361 ,68.0534 ,1.32441 ,0.03865 ,0.37920 
362 ,68.2454 ,1.32641 ,0.05234 ,0.51352 
363 ,68.4376 ,1.32820 ,0.02496 ,0.24489 
364 ,68.6455 ,1.33025 ,0.01469 ,0.14416 
365 ,68.8698 ,1.33240 ,0.00100 ,0.00984 
366 ,69.0617 ,1.33444 ,-0.01269 ,-0.12447 
367 ,69.2536 ,1.33635 ,-0.01953 ,-0.19163 
368 ,69.4299 ,1.33820 ,-0.02637 ,-0.25878 
369 ,69.6219 ,1.34016 ,-0.04691 ,-0.46025 
370 ,69.7981 ,1.34187 ,-0.05033 ,-0.49383 
371 ,69.9901 ,1.34375 ,-0.04348 ,-0.42667 
372 ,70.1661 ,1.34554 ,-0.06060 ,-0.59457 
373 ,70.3584 ,1.34745 ,-0.07428 ,-0.72888 
374 ,70.5504 ,1.34935 ,-0.07771 ,-0.76246 
375 ,70.7585 ,1.35142 ,-0.10851 ,-1.06466 
376 ,70.9505 ,1.35333 ,-0.09140 ,-0.89677 
377 ,71.1262 ,1.35513 ,-0.10508 ,-1.03108 
378 ,71.3024 ,1.35697 ,-0.11193 ,-1.09824 
379 ,71.4944 ,1.35879 ,-0.14615 ,-1.43402 
380 ,71.6707 ,1.36063 ,-0.14957 ,-1.46760 
381 ,71.8469 ,1.36233 ,-0.13931 ,-1.36687 
382 ,72.0389 ,1.36417 ,-0.17695 ,-1.73623 
383 ,72.2468 ,1.36625 ,-0.17011 ,-1.66907 
384 ,72.4230 ,1.36806 ,-0.17353 ,-1.70265 
385 ,72.6311 ,1.37013 ,-0.18722 ,-1.83696 
386 ,72.8072 ,1.37192 ,-0.18722 ,-1.83696 
387 ,72.9994 ,1.37388 ,-0.21459 ,-2.10559 
388 ,73.1913 ,1.37571 ,-0.21459 ,-2.10559 
389 ,73.3514 ,1.37746 ,-0.21459 ,-2.10559 
390 ,73.5276 ,1.37918 ,-0.21802 ,-2.13917 
391 ,73.7197 ,1.38101 ,-0.23170 ,-2.27348 
392 ,73.9277 ,1.38303 ,-0.24197 ,-2.37422 
393 ,74.1198 ,1.38501 ,-0.26935 ,-2.64284 
394 ,74.3275 ,1.38707 ,-0.26593 ,-2.60926 
395 ,74.5200 ,1.38898 ,-0.29673 ,-2.91147 
396 ,74.7119 ,1.39099 ,-0.28988 ,-2.84431 
397 ,74.8880 ,1.39277 ,-0.29673 ,-2.91147 
398 ,75.0804 ,1.39460 ,-0.31384 ,-3.07936 
399 ,75.2723 ,1.39664 ,-0.31726 ,-3.11294 
400 ,75.4643 ,1.39841 ,-0.33437 ,-3.28083 
401 ,75.6400 ,1.40030 ,-0.33779 ,-3.31441 
402 ,75.8325 ,1.40213 ,-0.34121 ,-3.34799 
403 ,76.0244 ,1.40405 ,-0.36517 ,-3.58303 
404 ,76.2167 ,1.40602 ,-0.37886 ,-3.71735 
405 ,76.3927 ,1.40782 ,-0.37544 ,-3.68377 
406 ,76.5688 ,1.40957 ,-0.38570 ,-3.78450 
407 ,76.7448 ,1.41132 ,-0.39597 ,-3.88524 
408 ,76.9369 ,1.41317 ,-0.40623 ,-3.98597 
409 ,77.1127 ,1.41495 ,-0.41308 ,-4.05313 
410 ,77.2889 ,1.41676 ,-0.41308 ,-4.05313 
411 ,77.4813 ,1.41865 ,-0.44046 ,-4.32176 
412 ,77.6734 ,1.42059 ,-0.45414 ,-4.45607 
413 ,77.8816 ,1.42262 ,-0.45414 ,-4.45607 
414 ,78.0574 ,1.42445 ,-0.47126 ,-4.62396 
415 ,78.2491 ,1.42636 ,-0.47468 ,-4.65754 
416 ,78.4251 ,1.42811 ,-0.48494 ,-4.75828 
417 ,78.6012 ,1.42985 ,-0.49863 ,-4.89259 
418 ,78.7932 ,1.43168 ,-0.50890 ,-4.99332 
419 ,78.9694 ,1.43355 ,-0.51574 ,-5.06048 
420 ,79.1294 ,1.43527 ,-0.50890 ,-4.99332 
421 ,79.3055 ,1.43687 ,-0.51574 ,-5.06048 
422 ,79.4817 ,1.43864 ,-0.53628 ,-5.26195 
423 ,79.6577 ,1.44042 ,-0.53970 ,-5.29553 
424 ,79.8335 ,1.44219 ,-0.54312 ,-5.32911 
425 ,80.0097 ,1.44394 ,-0.55681 ,-5.46342 
426 ,80.1859 ,1.44569 ,-0.55681 ,-5.46342 
427 ,80.3619 ,1.44741 ,-0.58077 ,-5.69847 
428 ,80.5380 ,1.44923 ,-0.58077 ,-5.69847 
429 ,80.6979 ,1.45094 ,-0.60130 ,-5.89994 
430 ,80.8580 ,1.45253 ,-0.60472 ,-5.93352 
431 ,81.0342 ,1.45417 ,-0.61499 ,-6.03425 
432 ,81.2103 ,1.45592 ,-0.61156 ,-6.00067 
433 ,81.3861 ,1.45772 ,-0.62183 ,-6.10141 
434 ,81.5624 ,1.45947 ,-0.63552 ,-6.23572 
435 ,81.7385 ,1.46121 ,-0.64579 ,-6.33646 
436 ,81.9146 ,1.46293 ,-0.63894 ,-6.26930 
437 ,82.0906 ,1.46474 ,-0.64579 ,-6.33646 
438 ,82.2667 ,1.46651 ,-0.64579 ,-6.33646 
439 ,82.4428 ,1.46824 ,-0.67659 ,-6.63866 
440 ,82.6188 ,1.47002 ,-0.70054 ,-6.87371 
441 ,82.7790 ,1.47174 ,-0.69370 ,-6.80655 
442 ,82.9389 ,1.47333 ,-0.69027 ,-6.77297 
443 ,83.1314 ,1.47509 ,-0.68685 ,-6.73940 
444 ,83.3396 ,1.47715 ,-0.70739 ,-6.94086 
445 ,83.5477 ,1.47929 ,-0.70739 ,-6.94086 
446 ,83.7397 ,1.48112 ,-0.73476 ,-7.20949 
447 ,83.9319 ,1.48309 ,-0.72450 ,-7.10876 
448 ,84.1238 ,1.48499 ,-0.75187 ,-7.37738 
449 ,84.3320 ,1.48709 ,-0.73818 ,-7.24307 
450 ,84.5241 ,1.48898 ,-0.76556 ,-7.51170 
451 ,84.7320 ,1.49114 ,-0.75530 ,-7.41096 
452 ,84.9083 ,1.49292 ,-0.76556 ,-7.51170 
453 ,85.0999 ,1.49484 ,-0.79294 ,-7.78032 
454 ,85.2763 ,1.49659 ,-0.79978 ,-7.84748 
455 ,85.4520 ,1.49837 ,-0.78610 ,-7.71317 
456 ,85.6280 ,1.50012 ,-0.78952 ,-7.74674 
457 ,85.8046 ,1.50185 ,-0.81689 ,-8.01537 
458 ,85.9802 ,1.50361 ,-0.83058 ,-8.14968 
459 ,86.1722 ,1.50547 ,-0.82374 ,-8.08253 
460 ,86.3482 ,1.50738 ,-0.84427 ,-8.28400 
461 ,86.5245 ,1.50911 ,-0.84427 ,-8.28400 
462 ,86.7328 ,1.51114 ,-0.84769 ,-8.31758 
463 ,86.9248 ,1.51305 ,-0.86823 ,-8.51904 
