Data stamp = , 21-04-2022 08:04:45 865

Calibration Values: 
Slope = , 26.54 , g/V 
Offset Voltage at no contact = , -0.501760 , V 

No , Time , Stage Position ,   Mass , Force 
   ,  (s) ,      (mm)      ,   (g)  , (mN)  

1 ,0.0000 ,0.64937 ,5.27114 ,51.72043 
2 ,0.2203 ,0.64947 ,5.27798 ,51.78758 
3 ,0.6845 ,0.65087 ,5.26087 ,51.61969 
4 ,0.8767 ,0.65291 ,5.27456 ,51.75401 
5 ,1.0526 ,0.65470 ,5.24718 ,51.48538 
6 ,1.2128 ,0.65641 ,5.26430 ,51.65327 
7 ,1.3889 ,0.65798 ,5.27114 ,51.72043 
8 ,1.5650 ,0.65976 ,5.26772 ,51.68685 
9 ,1.7410 ,0.66153 ,5.25403 ,51.55254 
10 ,1.9171 ,0.66329 ,5.24376 ,51.45180 
11 ,2.1090 ,0.66521 ,5.20612 ,51.08244 
12 ,2.2851 ,0.66705 ,5.20612 ,51.08244 
13 ,2.4772 ,0.66881 ,5.18216 ,50.84739 
14 ,2.6534 ,0.67069 ,5.15479 ,50.57876 
15 ,2.8295 ,0.67244 ,5.14794 ,50.51161 
16 ,3.0055 ,0.67421 ,5.13768 ,50.41087 
17 ,3.1819 ,0.67593 ,5.11714 ,50.20940 
18 ,3.3579 ,0.67771 ,5.09661 ,50.00793 
19 ,3.5501 ,0.67959 ,5.08634 ,49.90720 
20 ,3.7263 ,0.68139 ,5.06581 ,49.70573 
21 ,3.9182 ,0.68324 ,5.02474 ,49.30279 
22 ,4.0946 ,0.68510 ,5.02132 ,49.26921 
23 ,4.2865 ,0.68702 ,5.02474 ,49.30279 
24 ,4.4623 ,0.68878 ,5.01790 ,49.23563 
25 ,4.6387 ,0.69052 ,4.96999 ,48.76554 
26 ,4.8307 ,0.69241 ,4.96999 ,48.76554 
27 ,5.0069 ,0.69422 ,4.95288 ,48.59764 
28 ,5.1988 ,0.69604 ,4.92208 ,48.29544 
29 ,5.3750 ,0.69797 ,4.92208 ,48.29544 
30 ,5.5510 ,0.69969 ,4.91523 ,48.22828 
31 ,5.7269 ,0.70141 ,4.88786 ,47.95966 
32 ,5.9189 ,0.70327 ,4.85706 ,47.65745 
33 ,6.0953 ,0.70511 ,4.84679 ,47.55672 
34 ,6.2872 ,0.70696 ,4.82284 ,47.32167 
35 ,6.4634 ,0.70877 ,4.81257 ,47.22093 
36 ,6.6553 ,0.71070 ,4.78519 ,46.95231 
37 ,6.8473 ,0.71253 ,4.78519 ,46.95231 
38 ,7.0395 ,0.71442 ,4.76466 ,46.75084 
39 ,7.2157 ,0.71627 ,4.73044 ,46.41506 
40 ,7.3915 ,0.71809 ,4.73044 ,46.41506 
41 ,7.5837 ,0.71996 ,4.68937 ,46.01212 
42 ,7.7759 ,0.72180 ,4.70306 ,46.14643 
43 ,7.9520 ,0.72368 ,4.66884 ,45.81065 
44 ,8.1601 ,0.72567 ,4.63119 ,45.44128 
45 ,8.3522 ,0.72760 ,4.64831 ,45.60918 
46 ,8.5601 ,0.72955 ,4.61066 ,45.23981 
47 ,8.7684 ,0.73171 ,4.60040 ,45.13908 
48 ,8.9443 ,0.73360 ,4.57644 ,44.90403 
49 ,9.1206 ,0.73531 ,4.55249 ,44.66898 
50 ,9.3284 ,0.73738 ,4.55933 ,44.73614 
51 ,9.5046 ,0.73917 ,4.53537 ,44.50109 
52 ,9.6809 ,0.74095 ,4.50115 ,44.16531 
53 ,9.8728 ,0.74287 ,4.51826 ,44.33320 
54 ,10.0649 ,0.74471 ,4.47378 ,43.89668 
55 ,10.2566 ,0.74666 ,4.46009 ,43.76237 
56 ,10.4490 ,0.74857 ,4.47035 ,43.86310 
57 ,10.6566 ,0.75060 ,4.43271 ,43.49374 
58 ,10.8331 ,0.75246 ,4.41560 ,43.32585 
59 ,11.0091 ,0.75421 ,4.39849 ,43.15796 
60 ,11.2013 ,0.75611 ,4.36427 ,42.82218 
61 ,11.3934 ,0.75802 ,4.37111 ,42.88933 
62 ,11.5853 ,0.75993 ,4.33689 ,42.55355 
63 ,11.7773 ,0.76179 ,4.32662 ,42.45282 
64 ,12.0017 ,0.76398 ,4.30267 ,42.21777 
65 ,12.1934 ,0.76603 ,4.29582 ,42.15061 
66 ,12.3857 ,0.76791 ,4.25476 ,41.74767 
67 ,12.5778 ,0.76987 ,4.25133 ,41.71409 
68 ,12.7697 ,0.77185 ,4.23422 ,41.54620 
69 ,12.9460 ,0.77357 ,4.21711 ,41.37831 
70 ,13.1541 ,0.77561 ,4.21369 ,41.34473 
71 ,13.3140 ,0.77736 ,4.17947 ,41.00895 
72 ,13.4903 ,0.77902 ,4.16920 ,40.90821 
73 ,13.6823 ,0.78094 ,4.14183 ,40.63959 
74 ,13.8581 ,0.78266 ,4.14183 ,40.63959 
75 ,14.0341 ,0.78451 ,4.11103 ,40.33738 
76 ,14.1941 ,0.78615 ,4.10076 ,40.23665 
77 ,14.3543 ,0.78775 ,4.08707 ,40.10233 
78 ,14.5143 ,0.78937 ,4.08023 ,40.03518 
79 ,14.7068 ,0.79106 ,4.06996 ,39.93444 
80 ,14.8988 ,0.79307 ,4.03916 ,39.63224 
81 ,15.0749 ,0.79492 ,4.02205 ,39.46435 
82 ,15.2670 ,0.79682 ,4.00152 ,39.26288 
83 ,15.4590 ,0.79862 ,3.99125 ,39.16214 
84 ,15.6352 ,0.80045 ,3.97414 ,38.99425 
85 ,15.8111 ,0.80220 ,3.95703 ,38.82636 
86 ,15.9870 ,0.80399 ,3.93650 ,38.62489 
87 ,16.1794 ,0.80578 ,3.90570 ,38.32268 
88 ,16.3873 ,0.80791 ,3.89543 ,38.22195 
89 ,16.5793 ,0.80980 ,3.88858 ,38.15479 
90 ,16.7556 ,0.81165 ,3.87490 ,38.02048 
91 ,16.9317 ,0.81345 ,3.86121 ,37.88617 
92 ,17.1554 ,0.81553 ,3.83041 ,37.58396 
93 ,17.3319 ,0.81744 ,3.83041 ,37.58396 
94 ,17.5239 ,0.81945 ,3.80987 ,37.38249 
95 ,17.7159 ,0.82119 ,3.79276 ,37.21460 
96 ,17.8920 ,0.82295 ,3.76196 ,36.91240 
97 ,18.0681 ,0.82479 ,3.74485 ,36.74450 
98 ,18.2598 ,0.82664 ,3.73801 ,36.67735 
99 ,18.4523 ,0.82852 ,3.73459 ,36.64377 
100 ,18.6443 ,0.83050 ,3.70721 ,36.37514 
101 ,18.8203 ,0.83232 ,3.68325 ,36.14010 
102 ,18.9960 ,0.83406 ,3.67983 ,36.10652 
103 ,19.1884 ,0.83584 ,3.65246 ,35.83789 
104 ,19.3644 ,0.83774 ,3.62166 ,35.53569 
105 ,19.5407 ,0.83951 ,3.63192 ,35.63642 
106 ,19.7328 ,0.84132 ,3.58743 ,35.19990 
107 ,19.9409 ,0.84340 ,3.58743 ,35.19990 
108 ,20.1488 ,0.84551 ,3.54295 ,34.76338 
109 ,20.3250 ,0.84732 ,3.54295 ,34.76338 
110 ,20.5168 ,0.84917 ,3.53610 ,34.69623 
111 ,20.7250 ,0.85130 ,3.50872 ,34.42760 
112 ,20.9012 ,0.85314 ,3.49846 ,34.32687 
113 ,21.0932 ,0.85503 ,3.48135 ,34.15898 
114 ,21.2693 ,0.85680 ,3.45739 ,33.92393 
115 ,21.4451 ,0.85852 ,3.44370 ,33.78961 
116 ,21.6215 ,0.86031 ,3.42659 ,33.62172 
117 ,21.8295 ,0.86230 ,3.40606 ,33.42025 
118 ,22.0053 ,0.86413 ,3.39579 ,33.31952 
119 ,22.1818 ,0.86590 ,3.38210 ,33.18520 
120 ,22.3576 ,0.86762 ,3.37184 ,33.08447 
121 ,22.5494 ,0.86952 ,3.34446 ,32.81584 
122 ,22.7259 ,0.87134 ,3.33419 ,32.71511 
123 ,22.9020 ,0.87313 ,3.33077 ,32.68153 
124 ,23.0781 ,0.87481 ,3.31024 ,32.48006 
125 ,23.2540 ,0.87662 ,3.27944 ,32.17786 
126 ,23.4462 ,0.87854 ,3.26917 ,32.07712 
127 ,23.6379 ,0.88044 ,3.24522 ,31.84207 
128 ,23.8144 ,0.88217 ,3.21100 ,31.50629 
129 ,24.0060 ,0.88402 ,3.22126 ,31.60702 
130 ,24.1820 ,0.88592 ,3.20073 ,31.40555 
131 ,24.3587 ,0.88767 ,3.19046 ,31.30482 
132 ,24.5668 ,0.88968 ,3.15966 ,31.00262 
133 ,24.7747 ,0.89167 ,3.13571 ,30.76757 
134 ,24.9669 ,0.89374 ,3.12544 ,30.66683 
135 ,25.1430 ,0.89551 ,3.12202 ,30.63325 
136 ,25.3350 ,0.89743 ,3.08438 ,30.26389 
137 ,25.5110 ,0.89915 ,3.07411 ,30.16316 
138 ,25.6872 ,0.90093 ,3.06384 ,30.06242 
139 ,25.8793 ,0.90278 ,3.04331 ,29.86095 
140 ,26.0714 ,0.90481 ,3.03647 ,29.79380 
141 ,26.2634 ,0.90669 ,3.02962 ,29.72664 
142 ,26.4393 ,0.90841 ,2.99882 ,29.42444 
143 ,26.6155 ,0.91023 ,2.97487 ,29.18939 
144 ,26.7912 ,0.91202 ,2.97144 ,29.15581 
145 ,26.9676 ,0.91373 ,2.96802 ,29.12223 
146 ,27.1598 ,0.91559 ,2.93380 ,28.78645 
147 ,27.3519 ,0.91749 ,2.93038 ,28.75287 
148 ,27.5440 ,0.91953 ,2.91327 ,28.58498 
149 ,27.7360 ,0.92135 ,2.88247 ,28.28277 
150 ,27.9277 ,0.92330 ,2.86536 ,28.11488 
151 ,28.1041 ,0.92510 ,2.85851 ,28.04772 
152 ,28.2800 ,0.92679 ,2.83114 ,27.77910 
153 ,28.4559 ,0.92862 ,2.81745 ,27.64479 
154 ,28.6481 ,0.93047 ,2.80034 ,27.47689 
155 ,28.8245 ,0.93231 ,2.80376 ,27.51047 
156 ,29.0005 ,0.93415 ,2.76954 ,27.17469 
157 ,29.1766 ,0.93587 ,2.77980 ,27.27542 
158 ,29.3527 ,0.93759 ,2.74558 ,26.93964 
159 ,29.5448 ,0.93941 ,2.71478 ,26.63744 
160 ,29.7369 ,0.94141 ,2.71478 ,26.63744 
161 ,29.9289 ,0.94324 ,2.72163 ,26.70459 
162 ,30.1210 ,0.94528 ,2.68398 ,26.33523 
163 ,30.3129 ,0.94715 ,2.66345 ,26.13376 
164 ,30.4891 ,0.94897 ,2.66003 ,26.10018 
165 ,30.6813 ,0.95075 ,2.64976 ,25.99945 
166 ,30.8894 ,0.95291 ,2.63607 ,25.86514 
167 ,31.0810 ,0.95477 ,2.59158 ,25.42862 
168 ,31.2575 ,0.95662 ,2.58816 ,25.39504 
169 ,31.4494 ,0.95845 ,2.58474 ,25.36146 
170 ,31.6255 ,0.96027 ,2.57105 ,25.22715 
171 ,31.8018 ,0.96205 ,2.52998 ,24.82421 
172 ,32.0098 ,0.96406 ,2.54710 ,24.99210 
173 ,32.2015 ,0.96600 ,2.50945 ,24.62274 
174 ,32.3780 ,0.96780 ,2.49918 ,24.52200 
175 ,32.5540 ,0.96960 ,2.49576 ,24.48842 
176 ,32.7621 ,0.97152 ,2.46496 ,24.18622 
177 ,32.9381 ,0.97340 ,2.45812 ,24.11906 
178 ,33.1142 ,0.97516 ,2.44101 ,23.95117 
179 ,33.3063 ,0.97715 ,2.42048 ,23.74970 
180 ,33.4826 ,0.97887 ,2.40679 ,23.61539 
181 ,33.6743 ,0.98066 ,2.41021 ,23.64897 
182 ,33.8504 ,0.98255 ,2.39994 ,23.54823 
183 ,34.0265 ,0.98427 ,2.37599 ,23.31318 
184 ,34.2027 ,0.98604 ,2.34177 ,22.97740 
185 ,34.3948 ,0.98795 ,2.34861 ,23.04456 
186 ,34.5866 ,0.98987 ,2.32123 ,22.77593 
187 ,34.7629 ,0.99169 ,2.31097 ,22.67520 
188 ,34.9550 ,0.99353 ,2.31097 ,22.67520 
189 ,35.1471 ,0.99542 ,2.27332 ,22.30584 
190 ,35.3389 ,0.99733 ,2.26306 ,22.20510 
191 ,35.5312 ,0.99931 ,2.25963 ,22.17152 
192 ,35.7233 ,1.00122 ,2.23226 ,21.90290 
193 ,35.9314 ,1.00324 ,2.21515 ,21.73500 
194 ,36.1394 ,1.00535 ,2.21857 ,21.76858 
195 ,36.3311 ,1.00724 ,2.18435 ,21.43280 
196 ,36.5076 ,1.00905 ,2.17408 ,21.33206 
197 ,36.6838 ,1.01086 ,2.13986 ,20.99628 
198 ,36.8756 ,1.01270 ,2.14670 ,21.06344 
199 ,37.0519 ,1.01458 ,2.13986 ,20.99628 
200 ,37.2438 ,1.01641 ,2.11248 ,20.72766 
201 ,37.4038 ,1.01819 ,2.10221 ,20.62692 
202 ,37.5959 ,1.01992 ,2.09195 ,20.52619 
203 ,37.7879 ,1.02189 ,2.06799 ,20.29114 
204 ,37.9642 ,1.02367 ,2.05773 ,20.19040 
205 ,38.1562 ,1.02558 ,2.05430 ,20.15682 
206 ,38.3480 ,1.02747 ,2.00639 ,19.68673 
207 ,38.5244 ,1.02930 ,2.00982 ,19.72031 
208 ,38.7165 ,1.03113 ,2.00297 ,19.65315 
209 ,38.9244 ,1.03322 ,1.97902 ,19.41810 
210 ,39.1167 ,1.03517 ,1.97902 ,19.41810 
211 ,39.3247 ,1.03724 ,1.94479 ,19.08232 
212 ,39.5328 ,1.03921 ,1.93795 ,19.01516 
213 ,39.7248 ,1.04118 ,1.90715 ,18.71296 
214 ,39.9008 ,1.04303 ,1.89688 ,18.61222 
215 ,40.0771 ,1.04483 ,1.89346 ,18.57864 
216 ,40.2851 ,1.04674 ,1.88319 ,18.47791 
217 ,40.4611 ,1.04864 ,1.86608 ,18.31002 
218 ,40.6534 ,1.05049 ,1.85924 ,18.24286 
219 ,40.8613 ,1.05250 ,1.82502 ,17.90708 
220 ,41.0693 ,1.05466 ,1.82160 ,17.87350 
221 ,41.2455 ,1.05647 ,1.79764 ,17.63845 
222 ,41.4536 ,1.05836 ,1.80449 ,17.70561 
223 ,41.6937 ,1.06066 ,1.77369 ,17.40340 
224 ,41.8857 ,1.06278 ,1.74631 ,17.13478 
225 ,42.0777 ,1.06473 ,1.75657 ,17.23551 
226 ,42.2539 ,1.06651 ,1.73946 ,17.06762 
227 ,42.4620 ,1.06859 ,1.71893 ,16.86615 
228 ,42.6699 ,1.07057 ,1.69840 ,16.66468 
229 ,42.8458 ,1.07244 ,1.67444 ,16.42963 
230 ,43.0222 ,1.07425 ,1.65391 ,16.22816 
231 ,43.2301 ,1.07619 ,1.65733 ,16.26174 
232 ,43.4063 ,1.07802 ,1.64022 ,16.09385 
233 ,43.5984 ,1.07987 ,1.63338 ,16.02669 
234 ,43.7900 ,1.08189 ,1.61969 ,15.89238 
235 ,43.9820 ,1.08377 ,1.60942 ,15.79164 
236 ,44.1580 ,1.08562 ,1.59573 ,15.65733 
237 ,44.3342 ,1.08738 ,1.55809 ,15.28797 
238 ,44.5263 ,1.08922 ,1.56493 ,15.35513 
239 ,44.7667 ,1.09164 ,1.54098 ,15.12008 
240 ,44.9589 ,1.09353 ,1.53756 ,15.08650 
241 ,45.1510 ,1.09550 ,1.52045 ,14.91861 
242 ,45.3429 ,1.09742 ,1.50676 ,14.78430 
243 ,45.5191 ,1.09920 ,1.49649 ,14.68356 
244 ,45.7111 ,1.10108 ,1.48280 ,14.54925 
245 ,45.8873 ,1.10286 ,1.44858 ,14.21346 
246 ,46.0950 ,1.10486 ,1.44174 ,14.14631 
247 ,46.2715 ,1.10674 ,1.43489 ,14.07915 
248 ,46.4635 ,1.10863 ,1.43147 ,14.04557 
249 ,46.6556 ,1.11056 ,1.40409 ,13.77695 
250 ,46.8475 ,1.11238 ,1.39383 ,13.67621 
251 ,47.0236 ,1.11420 ,1.39040 ,13.64263 
252 ,47.1994 ,1.11596 ,1.38698 ,13.60906 
253 ,47.3758 ,1.11779 ,1.35960 ,13.34043 
254 ,47.5517 ,1.11949 ,1.34934 ,13.23969 
255 ,47.7440 ,1.12140 ,1.34591 ,13.20612 
256 ,47.9359 ,1.12328 ,1.32196 ,12.97107 
257 ,48.1283 ,1.12517 ,1.30485 ,12.80318 
258 ,48.3039 ,1.12711 ,1.30485 ,12.80318 
259 ,48.4806 ,1.12878 ,1.29458 ,12.70244 
260 ,48.6724 ,1.13074 ,1.26720 ,12.43381 
261 ,48.8483 ,1.13246 ,1.25352 ,12.29950 
262 ,49.0407 ,1.13433 ,1.25352 ,12.29950 
263 ,49.2167 ,1.13621 ,1.23641 ,12.13161 
264 ,49.3926 ,1.13787 ,1.21929 ,11.96372 
265 ,49.5689 ,1.13965 ,1.20561 ,11.82941 
266 ,49.7609 ,1.14157 ,1.21929 ,11.96372 
267 ,49.9370 ,1.14332 ,1.18850 ,11.66151 
268 ,50.1290 ,1.14514 ,1.17138 ,11.49362 
269 ,50.3051 ,1.14699 ,1.15427 ,11.32573 
270 ,50.4814 ,1.14876 ,1.15770 ,11.35931 
271 ,50.6569 ,1.15051 ,1.13716 ,11.15784 
272 ,50.8335 ,1.15231 ,1.12690 ,11.05710 
273 ,51.0411 ,1.15418 ,1.11663 ,10.95637 
274 ,51.2174 ,1.15610 ,1.09952 ,10.78848 
275 ,51.3936 ,1.15788 ,1.08241 ,10.62059 
276 ,51.5855 ,1.15978 ,1.07556 ,10.55343 
277 ,51.7935 ,1.16173 ,1.05161 ,10.31838 
278 ,51.9859 ,1.16371 ,1.05161 ,10.31838 
279 ,52.1936 ,1.16581 ,1.02081 ,10.01618 
280 ,52.3696 ,1.16768 ,1.00370 ,9.84829 
281 ,52.5458 ,1.16944 ,1.01054 ,9.91544 
282 ,52.7219 ,1.17122 ,1.01054 ,9.91544 
283 ,52.9143 ,1.17306 ,0.97290 ,9.54608 
284 ,53.1224 ,1.17511 ,0.98317 ,9.64682 
285 ,53.3144 ,1.17711 ,0.95579 ,9.37819 
286 ,53.5066 ,1.17896 ,0.95921 ,9.41177 
287 ,53.6984 ,1.18087 ,0.93868 ,9.21030 
288 ,53.8907 ,1.18289 ,0.93183 ,9.14314 
289 ,54.0827 ,1.18470 ,0.92157 ,9.04241 
290 ,54.2588 ,1.18657 ,0.90103 ,8.84094 
291 ,54.4830 ,1.18859 ,0.88392 ,8.67305 
292 ,54.6586 ,1.19050 ,0.87708 ,8.60589 
293 ,54.8349 ,1.19235 ,0.85654 ,8.40442 
294 ,55.0270 ,1.19419 ,0.84286 ,8.27011 
295 ,55.2032 ,1.19595 ,0.83943 ,8.23653 
296 ,55.3952 ,1.19789 ,0.81548 ,8.00148 
297 ,55.5713 ,1.19966 ,0.80179 ,7.86717 
298 ,55.7629 ,1.20161 ,0.80863 ,7.93432 
299 ,55.9556 ,1.20345 ,0.77784 ,7.63212 
300 ,56.1474 ,1.20536 ,0.78468 ,7.69927 
301 ,56.3396 ,1.20726 ,0.76072 ,7.46423 
302 ,56.5156 ,1.20909 ,0.74704 ,7.32991 
303 ,56.7076 ,1.21092 ,0.74361 ,7.29633 
304 ,56.8998 ,1.21292 ,0.72308 ,7.09486 
305 ,57.0919 ,1.21473 ,0.70597 ,6.92697 
306 ,57.2679 ,1.21668 ,0.69570 ,6.82624 
307 ,57.4440 ,1.21843 ,0.67517 ,6.62477 
308 ,57.6360 ,1.22022 ,0.67859 ,6.65835 
309 ,57.8122 ,1.22201 ,0.66148 ,6.49046 
310 ,57.9878 ,1.22394 ,0.65464 ,6.42330 
311 ,58.1642 ,1.22557 ,0.63410 ,6.22183 
312 ,58.3399 ,1.22734 ,0.64779 ,6.35614 
313 ,58.5483 ,1.22932 ,0.61357 ,6.02036 
314 ,58.7563 ,1.23145 ,0.60673 ,5.95320 
315 ,58.9484 ,1.23333 ,0.60330 ,5.91962 
316 ,59.1404 ,1.23526 ,0.57935 ,5.68458 
317 ,59.3328 ,1.23728 ,0.56224 ,5.51668 
318 ,59.5246 ,1.23913 ,0.55197 ,5.41595 
319 ,59.7169 ,1.24114 ,0.56566 ,5.55026 
320 ,59.8927 ,1.24286 ,0.53486 ,5.24806 
321 ,60.0846 ,1.24477 ,0.53486 ,5.24806 
322 ,60.2610 ,1.24653 ,0.50748 ,4.97943 
323 ,60.4370 ,1.24829 ,0.48695 ,4.77796 
324 ,60.6292 ,1.25013 ,0.48695 ,4.77796 
325 ,60.8051 ,1.25195 ,0.48353 ,4.74438 
326 ,60.9816 ,1.25376 ,0.48695 ,4.77796 
327 ,61.1735 ,1.25566 ,0.45957 ,4.50934 
328 ,61.3496 ,1.25746 ,0.46642 ,4.57649 
329 ,61.5577 ,1.25944 ,0.43904 ,4.30787 
330 ,61.7658 ,1.26153 ,0.42535 ,4.17355 
331 ,61.9576 ,1.26345 ,0.39797 ,3.90493 
332 ,62.1499 ,1.26542 ,0.40824 ,4.00566 
333 ,62.3419 ,1.26729 ,0.38086 ,3.73703 
334 ,62.5177 ,1.26905 ,0.36718 ,3.60272 
335 ,62.6935 ,1.27092 ,0.37402 ,3.66988 
336 ,62.8537 ,1.27258 ,0.36033 ,3.53557 
337 ,63.0461 ,1.27430 ,0.35691 ,3.50199 
338 ,63.2540 ,1.27641 ,0.35006 ,3.43483 
339 ,63.4466 ,1.27833 ,0.32953 ,3.23336 
340 ,63.6385 ,1.28030 ,0.30215 ,2.96473 
341 ,63.8305 ,1.28211 ,0.30900 ,3.03189 
342 ,64.0065 ,1.28393 ,0.29531 ,2.89758 
343 ,64.1829 ,1.28572 ,0.27478 ,2.69611 
344 ,64.3742 ,1.28758 ,0.26793 ,2.62895 
345 ,64.5669 ,1.28956 ,0.26451 ,2.59537 
346 ,64.7749 ,1.29160 ,0.25424 ,2.49464 
347 ,64.9669 ,1.29348 ,0.22687 ,2.22601 
348 ,65.1430 ,1.29536 ,0.20976 ,2.05812 
349 ,65.3191 ,1.29708 ,0.19949 ,1.95738 
350 ,65.5269 ,1.29906 ,0.20291 ,1.99096 
351 ,65.7032 ,1.30096 ,0.18922 ,1.85665 
352 ,65.8950 ,1.30282 ,0.18238 ,1.78949 
353 ,66.0714 ,1.30464 ,0.16527 ,1.62160 
354 ,66.2635 ,1.30655 ,0.14473 ,1.42013 
355 ,66.4395 ,1.30832 ,0.13447 ,1.31940 
356 ,66.5996 ,1.30999 ,0.14131 ,1.38655 
357 ,66.7759 ,1.31165 ,0.11393 ,1.11793 
358 ,66.9677 ,1.31349 ,0.11051 ,1.08435 
359 ,67.1438 ,1.31531 ,0.10367 ,1.01719 
360 ,67.3201 ,1.31708 ,0.08998 ,0.88288 
361 ,67.5119 ,1.31900 ,0.08998 ,0.88288 
362 ,67.7202 ,1.32104 ,0.05918 ,0.58067 
363 ,67.8963 ,1.32282 ,0.05576 ,0.54710 
364 ,68.0725 ,1.32463 ,0.06260 ,0.61425 
365 ,68.2482 ,1.32638 ,0.04549 ,0.44636 
366 ,68.4404 ,1.32821 ,0.01811 ,0.17773 
367 ,68.6326 ,1.33012 ,0.03522 ,0.34563 
368 ,68.8247 ,1.33210 ,0.01469 ,0.14416 
369 ,69.0166 ,1.33404 ,-0.00242 ,-0.02373 
370 ,69.2086 ,1.33597 ,-0.00926 ,-0.09089 
371 ,69.4009 ,1.33780 ,-0.02980 ,-0.29236 
372 ,69.5772 ,1.33968 ,-0.03322 ,-0.32594 
373 ,69.7525 ,1.34155 ,-0.02295 ,-0.22520 
374 ,69.9291 ,1.34317 ,-0.02980 ,-0.29236 
375 ,70.1371 ,1.34518 ,-0.07086 ,-0.69530 
376 ,70.3290 ,1.34715 ,-0.05717 ,-0.56099 
377 ,70.5213 ,1.34898 ,-0.08113 ,-0.79604 
378 ,70.7130 ,1.35101 ,-0.08455 ,-0.82961 
379 ,70.8733 ,1.35274 ,-0.09482 ,-0.93035 
380 ,71.0495 ,1.35435 ,-0.09482 ,-0.93035 
381 ,71.2256 ,1.35611 ,-0.11877 ,-1.16540 
382 ,71.4018 ,1.35793 ,-0.13246 ,-1.29971 
383 ,71.5937 ,1.35981 ,-0.13246 ,-1.29971 
384 ,71.7699 ,1.36153 ,-0.13931 ,-1.36687 
385 ,71.9459 ,1.36331 ,-0.15642 ,-1.53476 
386 ,72.1220 ,1.36507 ,-0.17353 ,-1.70265 
387 ,72.2981 ,1.36684 ,-0.17353 ,-1.70265 
388 ,72.4902 ,1.36872 ,-0.18722 ,-1.83696 
389 ,72.6819 ,1.37060 ,-0.20775 ,-2.03843 
390 ,72.8581 ,1.37243 ,-0.21802 ,-2.13917 
391 ,73.0341 ,1.37427 ,-0.21802 ,-2.13917 
392 ,73.2105 ,1.37596 ,-0.21802 ,-2.13917 
393 ,73.3863 ,1.37777 ,-0.23855 ,-2.34064 
394 ,73.5786 ,1.37964 ,-0.25908 ,-2.54211 
395 ,73.7545 ,1.38143 ,-0.24881 ,-2.44137 
396 ,73.9467 ,1.38334 ,-0.26250 ,-2.57569 
397 ,74.1383 ,1.38519 ,-0.28304 ,-2.77716 
398 ,74.2984 ,1.38697 ,-0.27277 ,-2.67642 
399 ,74.4746 ,1.38860 ,-0.28304 ,-2.77716 
400 ,74.6511 ,1.39039 ,-0.28646 ,-2.81073 
401 ,74.8432 ,1.39221 ,-0.31384 ,-3.07936 
402 ,75.0353 ,1.39418 ,-0.30357 ,-2.97863 
403 ,75.2269 ,1.39609 ,-0.31726 ,-3.11294 
404 ,75.4194 ,1.39801 ,-0.35148 ,-3.44872 
405 ,75.6116 ,1.39988 ,-0.33779 ,-3.31441 
406 ,75.8036 ,1.40186 ,-0.36517 ,-3.58303 
407 ,76.0117 ,1.40392 ,-0.37201 ,-3.65019 
408 ,76.2033 ,1.40581 ,-0.38570 ,-3.78450 
409 ,76.3797 ,1.40771 ,-0.38912 ,-3.81808 
410 ,76.5877 ,1.40970 ,-0.40966 ,-4.01955 
411 ,76.7955 ,1.41174 ,-0.39597 ,-3.88524 
412 ,76.9720 ,1.41358 ,-0.40281 ,-3.95240 
413 ,77.1479 ,1.41530 ,-0.41992 ,-4.12029 
414 ,77.3241 ,1.41707 ,-0.43361 ,-4.25460 
415 ,77.5001 ,1.41887 ,-0.44730 ,-4.38891 
416 ,77.6761 ,1.42065 ,-0.45072 ,-4.42249 
417 ,77.8680 ,1.42244 ,-0.45757 ,-4.48965 
418 ,78.0603 ,1.42437 ,-0.47468 ,-4.65754 
419 ,78.2525 ,1.42641 ,-0.47126 ,-4.62396 
420 ,78.4283 ,1.42807 ,-0.49863 ,-4.89259 
421 ,78.6206 ,1.43007 ,-0.49863 ,-4.89259 
422 ,78.7965 ,1.43180 ,-0.49863 ,-4.89259 
423 ,78.9888 ,1.43372 ,-0.51917 ,-5.09406 
424 ,79.1806 ,1.43563 ,-0.51232 ,-5.02690 
425 ,79.3726 ,1.43759 ,-0.52943 ,-5.19479 
426 ,79.5809 ,1.43961 ,-0.54654 ,-5.36268 
427 ,79.7891 ,1.44168 ,-0.55681 ,-5.46342 
428 ,79.9812 ,1.44365 ,-0.57050 ,-5.59773 
429 ,80.1733 ,1.44556 ,-0.55681 ,-5.46342 
430 ,80.3493 ,1.44734 ,-0.57392 ,-5.63131 
431 ,80.5574 ,1.44938 ,-0.59788 ,-5.86636 
432 ,80.7334 ,1.45117 ,-0.58077 ,-5.69847 
433 ,80.9255 ,1.45302 ,-0.61499 ,-6.03425 
434 ,81.0856 ,1.45482 ,-0.62183 ,-6.10141 
435 ,81.2617 ,1.45643 ,-0.63894 ,-6.26930 
436 ,81.4378 ,1.45823 ,-0.62183 ,-6.10141 
437 ,81.6139 ,1.46005 ,-0.64921 ,-6.37003 
438 ,81.8060 ,1.46188 ,-0.65263 ,-6.40361 
439 ,81.9980 ,1.46379 ,-0.66290 ,-6.50435 
440 ,82.1741 ,1.46560 ,-0.65947 ,-6.47077 
441 ,82.3661 ,1.46739 ,-0.66290 ,-6.50435 
442 ,82.5262 ,1.46922 ,-0.66974 ,-6.57150 
443 ,82.7344 ,1.47113 ,-0.68001 ,-6.67224 
444 ,82.9264 ,1.47309 ,-0.71765 ,-7.04160 
445 ,83.1026 ,1.47486 ,-0.72107 ,-7.07518 
446 ,83.3107 ,1.47682 ,-0.71765 ,-7.04160 
447 ,83.4867 ,1.47873 ,-0.71765 ,-7.04160 
448 ,83.6624 ,1.48044 ,-0.73476 ,-7.20949 
449 ,83.8710 ,1.48245 ,-0.73134 ,-7.17591 
450 ,84.0629 ,1.48448 ,-0.75872 ,-7.44454 
451 ,84.2227 ,1.48618 ,-0.75872 ,-7.44454 
452 ,84.3990 ,1.48779 ,-0.76556 ,-7.51170 
453 ,84.5750 ,1.48956 ,-0.77241 ,-7.57885 
454 ,84.7828 ,1.49159 ,-0.77241 ,-7.57885 
455 ,84.9592 ,1.49340 ,-0.79636 ,-7.81390 
456 ,85.1513 ,1.49528 ,-0.79294 ,-7.78032 
457 ,85.3273 ,1.49708 ,-0.79636 ,-7.81390 
458 ,85.5035 ,1.49883 ,-0.82032 ,-8.04895 
459 ,85.6956 ,1.50074 ,-0.82032 ,-8.04895 
460 ,85.8876 ,1.50261 ,-0.84085 ,-8.25042 
461 ,86.0638 ,1.50446 ,-0.85454 ,-8.38473 
462 ,86.2559 ,1.50628 ,-0.83743 ,-8.21684 
463 ,86.4477 ,1.50821 ,-0.87507 ,-8.58620 
