Data stamp = , 21-04-2022 00:49:11 593

Calibration Values: 
Slope = , 26.54 , g/V 
Offset Voltage at no contact = , -0.501760 , V 

No , Time , Stage Position ,   Mass , Force 
   ,  (s) ,      (mm)      ,   (g)  , (mN)  

1 ,0.0000 ,0.64934 ,5.25745 ,51.58611 
2 ,0.2369 ,0.64944 ,5.28825 ,51.88832 
3 ,0.5895 ,0.65046 ,5.27456 ,51.75401 
4 ,0.7815 ,0.65208 ,5.28825 ,51.88832 
5 ,0.9735 ,0.65374 ,5.26772 ,51.68685 
6 ,1.1817 ,0.65586 ,5.27114 ,51.72043 
7 ,1.3737 ,0.65774 ,5.28483 ,51.85474 
8 ,1.5500 ,0.65956 ,5.27114 ,51.72043 
9 ,1.7255 ,0.66147 ,5.28141 ,51.82116 
10 ,1.9021 ,0.66310 ,5.26087 ,51.61969 
11 ,2.1101 ,0.66517 ,5.22665 ,51.28391 
12 ,2.3182 ,0.66718 ,5.22665 ,51.28391 
13 ,2.4939 ,0.66900 ,5.19585 ,50.98170 
14 ,2.6864 ,0.67088 ,5.17532 ,50.78023 
15 ,2.8782 ,0.67278 ,5.15479 ,50.57876 
16 ,3.0700 ,0.67475 ,5.13768 ,50.41087 
17 ,3.2467 ,0.67658 ,5.12399 ,50.27656 
18 ,3.4226 ,0.67833 ,5.11372 ,50.17583 
19 ,3.5982 ,0.68004 ,5.10003 ,50.04151 
20 ,3.7903 ,0.68187 ,5.05897 ,49.63857 
21 ,3.9823 ,0.68387 ,5.05554 ,49.60499 
22 ,4.1585 ,0.68568 ,5.04528 ,49.50426 
23 ,4.3511 ,0.68746 ,5.01106 ,49.16848 
24 ,4.5586 ,0.68960 ,4.99394 ,49.00058 
25 ,4.7349 ,0.69139 ,4.98368 ,48.89985 
26 ,4.9272 ,0.69330 ,4.96315 ,48.69838 
27 ,5.1191 ,0.69512 ,4.95288 ,48.59764 
28 ,5.2953 ,0.69702 ,4.92892 ,48.36260 
29 ,5.4712 ,0.69880 ,4.89812 ,48.06039 
30 ,5.6637 ,0.70063 ,4.89470 ,48.02681 
31 ,5.8554 ,0.70257 ,4.85706 ,47.65745 
32 ,6.0478 ,0.70455 ,4.84337 ,47.52314 
33 ,6.2557 ,0.70656 ,4.82284 ,47.32167 
34 ,6.4476 ,0.70849 ,4.80230 ,47.12020 
35 ,6.6234 ,0.71031 ,4.77493 ,46.85157 
36 ,6.8156 ,0.71216 ,4.77835 ,46.88515 
37 ,6.9916 ,0.71397 ,4.76124 ,46.71726 
38 ,7.1840 ,0.71586 ,4.74070 ,46.51579 
39 ,7.3918 ,0.71796 ,4.69964 ,46.11285 
40 ,7.5683 ,0.71978 ,4.69622 ,46.07927 
41 ,7.7762 ,0.72178 ,4.67911 ,45.91138 
42 ,7.9525 ,0.72356 ,4.66884 ,45.81065 
43 ,8.1285 ,0.72535 ,4.63804 ,45.50844 
44 ,8.3047 ,0.72712 ,4.63804 ,45.50844 
45 ,8.5123 ,0.72907 ,4.60382 ,45.17266 
46 ,8.6888 ,0.73096 ,4.59013 ,45.03835 
47 ,8.8804 ,0.73284 ,4.56960 ,44.83688 
48 ,9.0570 ,0.73465 ,4.57986 ,44.93761 
49 ,9.2492 ,0.73650 ,4.53537 ,44.50109 
50 ,9.4571 ,0.73857 ,4.53195 ,44.46751 
51 ,9.6492 ,0.74053 ,4.50800 ,44.23247 
52 ,9.8412 ,0.74242 ,4.50115 ,44.16531 
53 ,10.0174 ,0.74424 ,4.47378 ,43.89668 
54 ,10.1932 ,0.74604 ,4.44640 ,43.62806 
55 ,10.3692 ,0.74773 ,4.42244 ,43.39301 
56 ,10.5455 ,0.74948 ,4.40875 ,43.25870 
57 ,10.7372 ,0.75140 ,4.40875 ,43.25870 
58 ,10.9133 ,0.75325 ,4.36769 ,42.85576 
59 ,11.1058 ,0.75504 ,4.37453 ,42.92291 
60 ,11.2980 ,0.75705 ,4.36427 ,42.82218 
61 ,11.5058 ,0.75901 ,4.33689 ,42.55355 
62 ,11.6816 ,0.76083 ,4.33347 ,42.51997 
63 ,11.8740 ,0.76274 ,4.30609 ,42.25135 
64 ,12.0821 ,0.76479 ,4.28213 ,42.01630 
65 ,12.2581 ,0.76663 ,4.26502 ,41.84841 
66 ,12.4338 ,0.76837 ,4.26160 ,41.81483 
67 ,12.6103 ,0.77011 ,4.23422 ,41.54620 
68 ,12.8179 ,0.77214 ,4.21711 ,41.37831 
69 ,12.9944 ,0.77396 ,4.20685 ,41.27758 
70 ,13.1864 ,0.77592 ,4.17605 ,40.97537 
71 ,13.3622 ,0.77764 ,4.15894 ,40.80748 
72 ,13.5387 ,0.77943 ,4.16236 ,40.84106 
73 ,13.7304 ,0.78125 ,4.11787 ,40.40454 
74 ,13.9225 ,0.78322 ,4.11445 ,40.37096 
75 ,14.0989 ,0.78504 ,4.10418 ,40.27023 
76 ,14.2751 ,0.78679 ,4.09734 ,40.20307 
77 ,14.4671 ,0.78860 ,4.05969 ,39.83371 
78 ,14.6592 ,0.79059 ,4.05627 ,39.80013 
79 ,14.8672 ,0.79262 ,4.02889 ,39.53150 
80 ,15.0431 ,0.79447 ,4.00494 ,39.29646 
81 ,15.2194 ,0.79622 ,4.00152 ,39.26288 
82 ,15.4274 ,0.79819 ,3.96045 ,38.85994 
83 ,15.6196 ,0.80017 ,3.96045 ,38.85994 
84 ,15.8117 ,0.80209 ,3.92281 ,38.49058 
85 ,16.0193 ,0.80421 ,3.92281 ,38.49058 
86 ,16.1958 ,0.80600 ,3.90912 ,38.35626 
87 ,16.3880 ,0.80782 ,3.87490 ,38.02048 
88 ,16.5636 ,0.80967 ,3.87490 ,38.02048 
89 ,16.7398 ,0.81141 ,3.86805 ,37.95332 
90 ,16.9484 ,0.81349 ,3.83383 ,37.61754 
91 ,17.1402 ,0.81537 ,3.83725 ,37.65112 
92 ,17.3161 ,0.81719 ,3.80645 ,37.34891 
93 ,17.4924 ,0.81894 ,3.78592 ,37.14744 
94 ,17.7004 ,0.82097 ,3.78250 ,37.11387 
95 ,17.8764 ,0.82273 ,3.76539 ,36.94597 
96 ,18.0686 ,0.82471 ,3.73117 ,36.61019 
97 ,18.2607 ,0.82665 ,3.70721 ,36.37514 
98 ,18.4527 ,0.82858 ,3.69694 ,36.27441 
99 ,18.6289 ,0.83028 ,3.68668 ,36.17367 
100 ,18.8369 ,0.83238 ,3.67299 ,36.03936 
101 ,19.0125 ,0.83416 ,3.64561 ,35.77073 
102 ,19.2046 ,0.83594 ,3.61823 ,35.50211 
103 ,19.3810 ,0.83785 ,3.61139 ,35.43495 
104 ,19.5732 ,0.83974 ,3.61481 ,35.46853 
105 ,19.7491 ,0.84152 ,3.57375 ,35.06559 
106 ,19.9575 ,0.84353 ,3.57717 ,35.09917 
107 ,20.1491 ,0.84546 ,3.54637 ,34.79696 
108 ,20.3091 ,0.84720 ,3.53610 ,34.69623 
109 ,20.4856 ,0.84885 ,3.51215 ,34.46118 
110 ,20.6777 ,0.85076 ,3.49846 ,34.32687 
111 ,20.8537 ,0.85254 ,3.49846 ,34.32687 
112 ,21.0299 ,0.85432 ,3.46424 ,33.99108 
113 ,21.2219 ,0.85620 ,3.45397 ,33.89035 
114 ,21.3975 ,0.85798 ,3.45397 ,33.89035 
115 ,21.5738 ,0.85974 ,3.44713 ,33.82319 
116 ,21.7661 ,0.86166 ,3.40264 ,33.38667 
117 ,21.9262 ,0.86337 ,3.40264 ,33.38667 
118 ,22.1183 ,0.86506 ,3.37868 ,33.15163 
119 ,22.3104 ,0.86707 ,3.35473 ,32.91658 
120 ,22.5023 ,0.86894 ,3.35473 ,32.91658 
121 ,22.6785 ,0.87079 ,3.34788 ,32.84942 
122 ,23.0946 ,0.87383 ,3.30682 ,32.44648 
123 ,23.3026 ,0.87692 ,3.29997 ,32.37933 
124 ,23.4789 ,0.87879 ,3.28628 ,32.24501 
125 ,23.6709 ,0.88064 ,3.23837 ,31.77492 
126 ,23.8629 ,0.88264 ,3.22126 ,31.60702 
127 ,24.0551 ,0.88455 ,3.22811 ,31.67418 
128 ,24.2633 ,0.88653 ,3.19046 ,31.30482 
129 ,24.4550 ,0.88853 ,3.18704 ,31.27124 
130 ,24.6308 ,0.89035 ,3.16993 ,31.10335 
131 ,24.8074 ,0.89208 ,3.13913 ,30.80115 
132 ,24.9995 ,0.89399 ,3.13913 ,30.80115 
133 ,25.1915 ,0.89583 ,3.11175 ,30.53252 
134 ,25.3676 ,0.89769 ,3.08780 ,30.29747 
135 ,25.5591 ,0.89962 ,3.07411 ,30.16316 
136 ,25.7194 ,0.90127 ,3.07411 ,30.16316 
137 ,25.9118 ,0.90300 ,3.07069 ,30.12958 
138 ,26.1199 ,0.90513 ,3.04673 ,29.89453 
139 ,26.3278 ,0.90711 ,3.01251 ,29.55875 
140 ,26.5361 ,0.90930 ,3.00224 ,29.45801 
141 ,26.7437 ,0.91137 ,2.98171 ,29.25654 
142 ,26.9198 ,0.91319 ,2.97144 ,29.15581 
143 ,27.0959 ,0.91491 ,2.95091 ,28.95434 
144 ,27.2724 ,0.91669 ,2.93722 ,28.82003 
145 ,27.4641 ,0.91858 ,2.91669 ,28.61856 
146 ,27.6564 ,0.92053 ,2.90985 ,28.55140 
147 ,27.8322 ,0.92228 ,2.90300 ,28.48424 
148 ,28.0086 ,0.92406 ,2.86878 ,28.14846 
149 ,28.2005 ,0.92593 ,2.87220 ,28.18204 
150 ,28.3607 ,0.92771 ,2.85509 ,28.01415 
151 ,28.5368 ,0.92938 ,2.84482 ,27.91341 
152 ,28.7289 ,0.93120 ,2.81745 ,27.64479 
153 ,28.9529 ,0.93346 ,2.79691 ,27.44332 
154 ,29.1290 ,0.93521 ,2.79007 ,27.37616 
155 ,29.3209 ,0.93709 ,2.76954 ,27.17469 
156 ,29.4972 ,0.93896 ,2.76269 ,27.10753 
157 ,29.6729 ,0.94066 ,2.73531 ,26.83891 
158 ,29.8493 ,0.94246 ,2.72847 ,26.77175 
159 ,30.0091 ,0.94418 ,2.69425 ,26.43597 
160 ,30.1692 ,0.94576 ,2.70452 ,26.53670 
161 ,30.3454 ,0.94741 ,2.66687 ,26.16734 
162 ,30.5215 ,0.94916 ,2.66687 ,26.16734 
163 ,30.6977 ,0.95097 ,2.65660 ,26.06661 
164 ,30.8738 ,0.95270 ,2.64634 ,25.96587 
165 ,31.0494 ,0.95452 ,2.62238 ,25.73082 
166 ,31.2417 ,0.95630 ,2.61212 ,25.63009 
167 ,31.4339 ,0.95828 ,2.60527 ,25.56293 
168 ,31.6261 ,0.96012 ,2.57105 ,25.22715 
169 ,31.8181 ,0.96210 ,2.57789 ,25.29430 
170 ,31.9941 ,0.96388 ,2.55736 ,25.09283 
171 ,32.2021 ,0.96589 ,2.53341 ,24.85779 
172 ,32.3783 ,0.96774 ,2.52998 ,24.82421 
173 ,32.5544 ,0.96946 ,2.50603 ,24.58916 
174 ,32.7625 ,0.97155 ,2.48550 ,24.38769 
175 ,32.9545 ,0.97343 ,2.47181 ,24.25338 
176 ,33.1467 ,0.97534 ,2.44101 ,23.95117 
177 ,33.3545 ,0.97747 ,2.45127 ,24.05191 
178 ,33.5308 ,0.97922 ,2.43074 ,23.85044 
179 ,33.7228 ,0.98111 ,2.41363 ,23.68255 
180 ,33.9149 ,0.98306 ,2.40679 ,23.61539 
181 ,34.1230 ,0.98510 ,2.37256 ,23.27961 
182 ,34.2987 ,0.98695 ,2.37256 ,23.27961 
183 ,34.4912 ,0.98882 ,2.32808 ,22.84309 
184 ,34.6831 ,0.99077 ,2.32123 ,22.77593 
185 ,34.8592 ,0.99257 ,2.32123 ,22.77593 
186 ,35.0675 ,0.99451 ,2.31781 ,22.74235 
187 ,35.2595 ,0.99652 ,2.29043 ,22.47373 
188 ,35.4195 ,0.99825 ,2.27332 ,22.30584 
189 ,35.5953 ,0.99987 ,2.26648 ,22.23868 
190 ,35.7718 ,1.00166 ,2.24252 ,22.00363 
191 ,35.9636 ,1.00353 ,2.21857 ,21.76858 
192 ,36.1399 ,1.00542 ,2.20830 ,21.66785 
193 ,36.3477 ,1.00736 ,2.18435 ,21.43280 
194 ,36.5242 ,1.00917 ,2.18092 ,21.39922 
195 ,36.7001 ,1.01098 ,2.17408 ,21.33206 
196 ,36.9082 ,1.01297 ,2.13986 ,20.99628 
197 ,37.1002 ,1.01487 ,2.14670 ,21.06344 
198 ,37.2922 ,1.01679 ,2.12959 ,20.89555 
199 ,37.4839 ,1.01874 ,2.10221 ,20.62692 
200 ,37.6605 ,1.02057 ,2.09537 ,20.55976 
201 ,37.8524 ,1.02246 ,2.08852 ,20.49261 
202 ,38.0447 ,1.02433 ,2.06457 ,20.25756 
203 ,38.2368 ,1.02619 ,2.04404 ,20.05609 
204 ,38.4447 ,1.02832 ,2.03719 ,19.98893 
205 ,38.6208 ,1.03016 ,2.01666 ,19.78746 
206 ,38.7971 ,1.03194 ,2.00982 ,19.72031 
207 ,38.9887 ,1.03379 ,1.98928 ,19.51884 
208 ,39.1652 ,1.03559 ,1.96533 ,19.28379 
209 ,39.3571 ,1.03747 ,1.97217 ,19.35094 
210 ,39.5332 ,1.03927 ,1.94822 ,19.11590 
211 ,39.7253 ,1.04119 ,1.92426 ,18.88085 
212 ,39.9171 ,1.04310 ,1.93111 ,18.94801 
213 ,40.0930 ,1.04485 ,1.92084 ,18.84727 
214 ,40.2695 ,1.04663 ,1.90373 ,18.67938 
215 ,40.4616 ,1.04846 ,1.87977 ,18.44433 
216 ,40.6378 ,1.05031 ,1.86951 ,18.34360 
217 ,40.8298 ,1.05217 ,1.85924 ,18.24286 
218 ,41.0059 ,1.05394 ,1.82844 ,17.94066 
219 ,41.1819 ,1.05581 ,1.83186 ,17.97423 
220 ,41.3578 ,1.05752 ,1.82844 ,17.94066 
221 ,41.5501 ,1.05944 ,1.80449 ,17.70561 
222 ,41.7257 ,1.06116 ,1.79080 ,17.57129 
223 ,41.9019 ,1.06292 ,1.76000 ,17.26909 
224 ,42.1101 ,1.06495 ,1.77026 ,17.36983 
225 ,42.3023 ,1.06690 ,1.73604 ,17.03404 
226 ,42.4942 ,1.06877 ,1.72235 ,16.89973 
227 ,42.7021 ,1.07090 ,1.70866 ,16.76542 
228 ,42.8786 ,1.07270 ,1.69498 ,16.63110 
229 ,43.0547 ,1.07444 ,1.69498 ,16.63110 
230 ,43.2470 ,1.07633 ,1.67102 ,16.39605 
231 ,43.4389 ,1.07826 ,1.67444 ,16.42963 
232 ,43.6309 ,1.08019 ,1.63680 ,16.06027 
233 ,43.8227 ,1.08209 ,1.61284 ,15.82522 
234 ,43.9990 ,1.08390 ,1.60942 ,15.79164 
235 ,44.1913 ,1.08584 ,1.60942 ,15.79164 
236 ,44.3993 ,1.08779 ,1.57520 ,15.45586 
237 ,44.5913 ,1.08979 ,1.58204 ,15.52302 
238 ,44.7514 ,1.09155 ,1.56151 ,15.32155 
239 ,44.9275 ,1.09324 ,1.53756 ,15.08650 
240 ,45.1194 ,1.09506 ,1.53071 ,15.01934 
241 ,45.3277 ,1.09716 ,1.51360 ,14.85145 
242 ,45.5035 ,1.09892 ,1.49991 ,14.71714 
243 ,45.6954 ,1.10089 ,1.48965 ,14.61640 
244 ,45.8720 ,1.10263 ,1.48280 ,14.54925 
245 ,46.0475 ,1.10452 ,1.45542 ,14.28062 
246 ,46.2241 ,1.10614 ,1.44174 ,14.14631 
247 ,46.4321 ,1.10818 ,1.44858 ,14.21346 
248 ,46.6082 ,1.10999 ,1.43147 ,14.04557 
249 ,46.7838 ,1.11172 ,1.41094 ,13.84410 
250 ,46.9765 ,1.11369 ,1.40067 ,13.74337 
251 ,47.1683 ,1.11561 ,1.39725 ,13.70979 
252 ,47.3605 ,1.11746 ,1.35618 ,13.30685 
253 ,47.5365 ,1.11927 ,1.35276 ,13.27327 
254 ,47.7286 ,1.12118 ,1.34934 ,13.23969 
255 ,47.9206 ,1.12306 ,1.34934 ,13.23969 
256 ,48.0969 ,1.12487 ,1.30143 ,12.76960 
257 ,48.2885 ,1.12678 ,1.31854 ,12.93749 
258 ,48.4485 ,1.12848 ,1.29800 ,12.73602 
259 ,48.6247 ,1.13013 ,1.28774 ,12.63528 
260 ,48.8009 ,1.13188 ,1.26378 ,12.40024 
261 ,48.9773 ,1.13367 ,1.26036 ,12.36666 
262 ,49.1854 ,1.13570 ,1.24667 ,12.23235 
263 ,49.3613 ,1.13756 ,1.23298 ,12.09803 
264 ,49.5533 ,1.13940 ,1.23983 ,12.16519 
265 ,49.7455 ,1.14128 ,1.20561 ,11.82941 
266 ,49.9213 ,1.14313 ,1.20561 ,11.82941 
267 ,50.1297 ,1.14509 ,1.18850 ,11.66151 
268 ,50.3213 ,1.14714 ,1.17138 ,11.49362 
269 ,50.4977 ,1.14887 ,1.16112 ,11.39289 
270 ,50.6739 ,1.15068 ,1.15770 ,11.35931 
271 ,50.8658 ,1.15253 ,1.12347 ,11.02353 
272 ,51.0422 ,1.15433 ,1.11321 ,10.92279 
273 ,51.2340 ,1.15621 ,1.11321 ,10.92279 
274 ,51.4097 ,1.15801 ,1.11321 ,10.92279 
275 ,51.6023 ,1.15979 ,1.08583 ,10.65416 
276 ,51.8101 ,1.16193 ,1.08583 ,10.65416 
277 ,51.9864 ,1.16370 ,1.06187 ,10.41912 
278 ,52.1780 ,1.16561 ,1.03792 ,10.18407 
279 ,52.3544 ,1.16739 ,1.02765 ,10.08333 
280 ,52.5144 ,1.16916 ,1.03108 ,10.11691 
281 ,52.6907 ,1.17077 ,1.01396 ,9.94902 
282 ,52.8827 ,1.17269 ,0.99001 ,9.71397 
283 ,53.0749 ,1.17456 ,0.99343 ,9.74755 
284 ,53.2669 ,1.17655 ,0.98659 ,9.68039 
285 ,53.4432 ,1.17826 ,0.94552 ,9.27745 
286 ,53.6512 ,1.18030 ,0.95579 ,9.37819 
287 ,53.8431 ,1.18224 ,0.91472 ,8.97525 
288 ,54.0353 ,1.18416 ,0.92499 ,9.07598 
289 ,54.2274 ,1.18606 ,0.89761 ,8.80736 
290 ,54.4194 ,1.18802 ,0.89419 ,8.77378 
291 ,54.5950 ,1.18990 ,0.88392 ,8.67305 
292 ,54.7715 ,1.19161 ,0.87708 ,8.60589 
293 ,54.9473 ,1.19340 ,0.85997 ,8.43800 
294 ,55.1235 ,1.19506 ,0.85312 ,8.37084 
295 ,55.3318 ,1.19708 ,0.82575 ,8.10221 
296 ,55.5239 ,1.19909 ,0.81206 ,7.96790 
297 ,55.7000 ,1.20092 ,0.82232 ,8.06864 
298 ,55.8760 ,1.20261 ,0.79152 ,7.76643 
299 ,56.0519 ,1.20435 ,0.79152 ,7.76643 
300 ,56.2281 ,1.20614 ,0.78468 ,7.69927 
301 ,56.4042 ,1.20795 ,0.76757 ,7.53138 
302 ,56.5802 ,1.20980 ,0.74704 ,7.32991 
303 ,56.7719 ,1.21156 ,0.73335 ,7.19560 
304 ,56.9485 ,1.21334 ,0.73677 ,7.22918 
305 ,57.1245 ,1.21511 ,0.71624 ,7.02771 
306 ,57.3165 ,1.21700 ,0.70255 ,6.89340 
307 ,57.4924 ,1.21878 ,0.69913 ,6.85982 
308 ,57.7163 ,1.22099 ,0.67517 ,6.62477 
309 ,57.8929 ,1.22279 ,0.66490 ,6.52403 
310 ,58.1010 ,1.22483 ,0.65806 ,6.45688 
311 ,58.3089 ,1.22687 ,0.64779 ,6.35614 
312 ,58.4850 ,1.22869 ,0.63410 ,6.22183 
313 ,58.6772 ,1.23066 ,0.61699 ,6.05394 
314 ,58.8527 ,1.23244 ,0.60673 ,5.95320 
315 ,59.0289 ,1.23414 ,0.60673 ,5.95320 
316 ,59.2052 ,1.23592 ,0.58962 ,5.78531 
317 ,59.3814 ,1.23765 ,0.56566 ,5.55026 
318 ,59.5733 ,1.23962 ,0.57251 ,5.61742 
319 ,59.7653 ,1.24146 ,0.55197 ,5.41595 
320 ,59.9572 ,1.24343 ,0.54855 ,5.38237 
321 ,60.1335 ,1.24519 ,0.54855 ,5.38237 
322 ,60.3258 ,1.24711 ,0.52117 ,5.11375 
323 ,60.5176 ,1.24894 ,0.52117 ,5.11375 
324 ,60.7097 ,1.25087 ,0.50064 ,4.91228 
325 ,60.9021 ,1.25280 ,0.48011 ,4.71081 
326 ,61.0937 ,1.25477 ,0.47668 ,4.67723 
327 ,61.2702 ,1.25653 ,0.48011 ,4.71081 
328 ,61.4623 ,1.25850 ,0.44246 ,4.34144 
329 ,61.6542 ,1.26035 ,0.44588 ,4.37502 
330 ,61.8464 ,1.26223 ,0.43220 ,4.24071 
331 ,62.0224 ,1.26408 ,0.41166 ,4.03924 
332 ,62.2144 ,1.26597 ,0.42193 ,4.13997 
333 ,62.4067 ,1.26793 ,0.40482 ,3.97208 
334 ,62.5985 ,1.26985 ,0.38086 ,3.73703 
335 ,62.8069 ,1.27180 ,0.38086 ,3.73703 
336 ,63.0148 ,1.27389 ,0.38429 ,3.77061 
337 ,63.1905 ,1.27580 ,0.33980 ,3.33410 
338 ,63.3669 ,1.27753 ,0.33638 ,3.30052 
339 ,63.5430 ,1.27928 ,0.31926 ,3.13263 
340 ,63.7188 ,1.28106 ,0.30900 ,3.03189 
341 ,63.8953 ,1.28284 ,0.30558 ,2.99831 
342 ,64.0867 ,1.28468 ,0.30215 ,2.96473 
343 ,64.2628 ,1.28653 ,0.28504 ,2.79684 
344 ,64.4389 ,1.28822 ,0.25424 ,2.49464 
345 ,64.6152 ,1.28998 ,0.25424 ,2.49464 
346 ,64.8394 ,1.29227 ,0.23713 ,2.32675 
347 ,65.0317 ,1.29411 ,0.24740 ,2.42748 
348 ,65.2079 ,1.29587 ,0.23371 ,2.29317 
349 ,65.3999 ,1.29775 ,0.20976 ,2.05812 
350 ,65.5917 ,1.29976 ,0.21318 ,2.09170 
351 ,65.7679 ,1.30150 ,0.19949 ,1.95738 
352 ,65.9438 ,1.30327 ,0.18580 ,1.82307 
353 ,66.1200 ,1.30499 ,0.16527 ,1.62160 
354 ,66.2962 ,1.30676 ,0.17553 ,1.72234 
355 ,66.5041 ,1.30880 ,0.14816 ,1.45371 
356 ,66.6804 ,1.31063 ,0.13105 ,1.28582 
357 ,66.8725 ,1.31247 ,0.13789 ,1.35298 
358 ,67.0487 ,1.31434 ,0.11736 ,1.15151 
359 ,67.2244 ,1.31609 ,0.10025 ,0.98361 
360 ,67.4006 ,1.31779 ,0.10025 ,0.98361 
361 ,67.5767 ,1.31964 ,0.06602 ,0.64783 
362 ,67.7687 ,1.32154 ,0.07629 ,0.74857 
363 ,67.9449 ,1.32326 ,0.05576 ,0.54710 
364 ,68.1689 ,1.32538 ,0.04891 ,0.47994 
365 ,68.3609 ,1.32738 ,0.04549 ,0.44636 
366 ,68.5206 ,1.32915 ,0.02496 ,0.24489 
367 ,68.6972 ,1.33079 ,0.03180 ,0.31205 
368 ,68.8893 ,1.33272 ,0.01469 ,0.14416 
369 ,69.0814 ,1.33454 ,0.00100 ,0.00984 
370 ,69.2733 ,1.33655 ,-0.00584 ,-0.05731 
371 ,69.4974 ,1.33860 ,-0.01953 ,-0.19163 
372 ,69.6735 ,1.34050 ,-0.02295 ,-0.22520 
373 ,69.8499 ,1.34235 ,-0.02980 ,-0.29236 
374 ,70.0416 ,1.34419 ,-0.04691 ,-0.46025 
375 ,70.2178 ,1.34598 ,-0.06060 ,-0.59457 
376 ,70.3935 ,1.34773 ,-0.06402 ,-0.62814 
377 ,70.5699 ,1.34952 ,-0.06402 ,-0.62814 
378 ,70.7300 ,1.35121 ,-0.09482 ,-0.93035 
379 ,70.9220 ,1.35299 ,-0.09482 ,-0.93035 
380 ,71.1142 ,1.35490 ,-0.09140 ,-0.89677 
381 ,71.3219 ,1.35690 ,-0.12219 ,-1.19898 
382 ,71.4984 ,1.35878 ,-0.12904 ,-1.26613 
383 ,71.6740 ,1.36051 ,-0.12562 ,-1.23255 
384 ,71.8505 ,1.36230 ,-0.13246 ,-1.29971 
385 ,72.0426 ,1.36423 ,-0.15984 ,-1.56834 
386 ,72.2345 ,1.36607 ,-0.16326 ,-1.60191 
387 ,72.4427 ,1.36809 ,-0.18037 ,-1.76981 
388 ,72.6346 ,1.37007 ,-0.16326 ,-1.60191 
389 ,72.8103 ,1.37197 ,-0.20090 ,-1.97128 
390 ,72.9868 ,1.37369 ,-0.20775 ,-2.03843 
391 ,73.1791 ,1.37554 ,-0.20775 ,-2.03843 
392 ,73.3710 ,1.37751 ,-0.21802 ,-2.13917 
393 ,73.5629 ,1.37949 ,-0.23855 ,-2.34064 
394 ,73.7551 ,1.38125 ,-0.24539 ,-2.40779 
395 ,73.9470 ,1.38315 ,-0.26935 ,-2.64284 
396 ,74.1394 ,1.38522 ,-0.26593 ,-2.60926 
397 ,74.3314 ,1.38708 ,-0.25566 ,-2.50853 
398 ,74.5235 ,1.38896 ,-0.29673 ,-2.91147 
399 ,74.7317 ,1.39103 ,-0.28988 ,-2.84431 
400 ,74.9232 ,1.39293 ,-0.33095 ,-3.24725 
401 ,75.1157 ,1.39487 ,-0.31726 ,-3.11294 
402 ,75.3236 ,1.39694 ,-0.32752 ,-3.21367 
403 ,75.5157 ,1.39885 ,-0.33779 ,-3.31441 
404 ,75.6918 ,1.40070 ,-0.33095 ,-3.24725 
405 ,75.8680 ,1.40249 ,-0.34464 ,-3.38156 
406 ,76.0601 ,1.40446 ,-0.34464 ,-3.38156 
407 ,76.2522 ,1.40624 ,-0.35832 ,-3.51588 
408 ,76.4282 ,1.40807 ,-0.37544 ,-3.68377 
409 ,76.6042 ,1.40984 ,-0.39597 ,-3.88524 
410 ,76.7804 ,1.41161 ,-0.39939 ,-3.91882 
411 ,76.9884 ,1.41354 ,-0.38912 ,-3.81808 
412 ,77.1961 ,1.41567 ,-0.40966 ,-4.01955 
413 ,77.3885 ,1.41760 ,-0.43361 ,-4.25460 
414 ,77.5646 ,1.41940 ,-0.44046 ,-4.32176 
415 ,77.7408 ,1.42119 ,-0.45072 ,-4.42249 
416 ,77.9167 ,1.42295 ,-0.45414 ,-4.45607 
417 ,78.0925 ,1.42469 ,-0.45757 ,-4.48965 
418 ,78.2690 ,1.42650 ,-0.47468 ,-4.65754 
419 ,78.4448 ,1.42823 ,-0.47468 ,-4.65754 
420 ,78.6211 ,1.42998 ,-0.50206 ,-4.92617 
421 ,78.8128 ,1.43190 ,-0.48152 ,-4.72470 
422 ,78.9893 ,1.43368 ,-0.51574 ,-5.06048 
423 ,79.1810 ,1.43550 ,-0.52259 ,-5.12764 
424 ,79.3732 ,1.43743 ,-0.53285 ,-5.22837 
425 ,79.5653 ,1.43941 ,-0.54312 ,-5.32911 
426 ,79.7416 ,1.44120 ,-0.55681 ,-5.46342 
427 ,79.9175 ,1.44294 ,-0.54997 ,-5.39626 
428 ,80.0936 ,1.44470 ,-0.54997 ,-5.39626 
429 ,80.2693 ,1.44646 ,-0.56023 ,-5.49700 
430 ,80.4460 ,1.44827 ,-0.57050 ,-5.59773 
431 ,80.6540 ,1.45024 ,-0.56708 ,-5.56415 
432 ,80.8460 ,1.45213 ,-0.58419 ,-5.73205 
433 ,81.0381 ,1.45412 ,-0.58761 ,-5.76562 
434 ,81.2301 ,1.45600 ,-0.61499 ,-6.03425 
435 ,81.3901 ,1.45776 ,-0.61499 ,-6.03425 
436 ,81.5664 ,1.45948 ,-0.62525 ,-6.13499 
437 ,81.7584 ,1.46126 ,-0.62868 ,-6.16856 
438 ,81.9507 ,1.46326 ,-0.63894 ,-6.26930 
439 ,82.1426 ,1.46509 ,-0.65947 ,-6.47077 
440 ,82.3345 ,1.46702 ,-0.64921 ,-6.37003 
441 ,82.5107 ,1.46885 ,-0.65947 ,-6.47077 
442 ,82.7184 ,1.47091 ,-0.68001 ,-6.67224 
443 ,82.9106 ,1.47276 ,-0.67659 ,-6.63866 
444 ,83.0870 ,1.47464 ,-0.67659 ,-6.63866 
445 ,83.2949 ,1.47658 ,-0.68001 ,-6.67224 
446 ,83.4867 ,1.47863 ,-0.69370 ,-6.80655 
447 ,83.6631 ,1.48038 ,-0.71765 ,-7.04160 
448 ,83.8552 ,1.48229 ,-0.71081 ,-6.97444 
449 ,84.0474 ,1.48429 ,-0.71423 ,-7.00802 
450 ,84.2233 ,1.48598 ,-0.72792 ,-7.14233 
451 ,84.4313 ,1.48802 ,-0.73476 ,-7.20949 
452 ,84.6073 ,1.48983 ,-0.74503 ,-7.31023 
453 ,84.7995 ,1.49171 ,-0.77241 ,-7.57885 
454 ,84.9754 ,1.49350 ,-0.76556 ,-7.51170 
455 ,85.1836 ,1.49558 ,-0.77925 ,-7.64601 
456 ,85.3757 ,1.49742 ,-0.78952 ,-7.74674 
457 ,85.5517 ,1.49930 ,-0.78952 ,-7.74674 
458 ,85.7278 ,1.50108 ,-0.81347 ,-7.98179 
459 ,85.9200 ,1.50297 ,-0.81347 ,-7.98179 
460 ,86.0959 ,1.50466 ,-0.82374 ,-8.08253 
461 ,86.2721 ,1.50646 ,-0.81347 ,-7.98179 
462 ,86.4801 ,1.50853 ,-0.83743 ,-8.21684 
463 ,86.6558 ,1.51030 ,-0.86481 ,-8.48547 
