Data stamp = , 21-04-2022 04:26:59 711

Calibration Values: 
Slope = , 26.54 , g/V 
Offset Voltage at no contact = , -0.501760 , V 

No , Time , Stage Position ,   Mass , Force 
   ,  (s) ,      (mm)      ,   (g)  , (mN)  

1 ,0.0000 ,0.64943 ,5.24376 ,51.45180 
2 ,0.2195 ,0.64953 ,5.25745 ,51.58611 
3 ,0.5558 ,0.65043 ,5.26087 ,51.61969 
4 ,0.7479 ,0.65189 ,5.25061 ,51.51896 
5 ,0.9560 ,0.65366 ,5.24718 ,51.48538 
6 ,1.1484 ,0.65570 ,5.25403 ,51.55254 
7 ,1.3244 ,0.65743 ,5.26430 ,51.65327 
8 ,1.5004 ,0.65917 ,5.26772 ,51.68685 
9 ,1.6766 ,0.66094 ,5.23692 ,51.38464 
10 ,1.8521 ,0.66269 ,5.23007 ,51.31749 
11 ,2.0442 ,0.66457 ,5.22665 ,51.28391 
12 ,2.2204 ,0.66647 ,5.19927 ,51.01528 
13 ,2.4125 ,0.66825 ,5.19927 ,51.01528 
14 ,2.6209 ,0.67037 ,5.17874 ,50.81381 
15 ,2.7971 ,0.67212 ,5.15479 ,50.57876 
16 ,2.9731 ,0.67393 ,5.13083 ,50.34372 
17 ,3.1487 ,0.67568 ,5.13083 ,50.34372 
18 ,3.3413 ,0.67747 ,5.13083 ,50.34372 
19 ,3.5331 ,0.67951 ,5.07608 ,49.80646 
20 ,3.7253 ,0.68144 ,5.08634 ,49.90720 
21 ,3.9014 ,0.68317 ,5.07608 ,49.80646 
22 ,4.0935 ,0.68505 ,5.03843 ,49.43710 
23 ,4.2696 ,0.68695 ,5.02474 ,49.30279 
24 ,4.4613 ,0.68888 ,4.99394 ,49.00058 
25 ,4.6538 ,0.69069 ,4.96999 ,48.76554 
26 ,4.8457 ,0.69265 ,4.97341 ,48.79911 
27 ,5.0217 ,0.69439 ,4.96657 ,48.73196 
28 ,5.2141 ,0.69627 ,4.93235 ,48.39618 
29 ,5.4223 ,0.69826 ,4.90497 ,48.12755 
30 ,5.6142 ,0.70025 ,4.89812 ,48.06039 
31 ,5.8063 ,0.70227 ,4.87417 ,47.82534 
32 ,5.9984 ,0.70407 ,4.85021 ,47.59030 
33 ,6.2060 ,0.70607 ,4.83995 ,47.48956 
34 ,6.3825 ,0.70799 ,4.82626 ,47.35525 
35 ,6.5585 ,0.70973 ,4.79888 ,47.08662 
36 ,6.7505 ,0.71168 ,4.77150 ,46.81800 
37 ,6.9267 ,0.71344 ,4.78519 ,46.95231 
38 ,7.1027 ,0.71518 ,4.76124 ,46.71726 
39 ,7.2788 ,0.71690 ,4.72702 ,46.38148 
40 ,7.4708 ,0.71884 ,4.70306 ,46.14643 
41 ,7.6788 ,0.72092 ,4.68595 ,45.97854 
42 ,7.8711 ,0.72287 ,4.67568 ,45.87780 
43 ,8.0632 ,0.72480 ,4.65515 ,45.67633 
44 ,8.2707 ,0.72678 ,4.63804 ,45.50844 
45 ,8.4473 ,0.72865 ,4.63119 ,45.44128 
46 ,8.6234 ,0.73045 ,4.61066 ,45.23981 
47 ,8.7990 ,0.73213 ,4.58328 ,44.97119 
48 ,9.0075 ,0.73408 ,4.57302 ,44.87045 
49 ,9.1996 ,0.73611 ,4.55249 ,44.66898 
50 ,9.3755 ,0.73790 ,4.53880 ,44.53467 
51 ,9.5838 ,0.73987 ,4.53195 ,44.46751 
52 ,9.7757 ,0.74181 ,4.51826 ,44.33320 
53 ,9.9518 ,0.74363 ,4.48404 ,43.99742 
54 ,10.1601 ,0.74569 ,4.47378 ,43.89668 
55 ,10.3522 ,0.74762 ,4.44640 ,43.62806 
56 ,10.5602 ,0.74958 ,4.42586 ,43.42659 
57 ,10.7522 ,0.75162 ,4.40875 ,43.25870 
58 ,10.9281 ,0.75344 ,4.39849 ,43.15796 
59 ,11.1044 ,0.75522 ,4.39164 ,43.09080 
60 ,11.2965 ,0.75704 ,4.35058 ,42.68786 
61 ,11.4884 ,0.75899 ,4.34031 ,42.58713 
62 ,11.6806 ,0.76095 ,4.34031 ,42.58713 
63 ,11.8567 ,0.76267 ,4.30267 ,42.21777 
64 ,12.0488 ,0.76458 ,4.30267 ,42.21777 
65 ,12.2247 ,0.76638 ,4.28556 ,42.04988 
66 ,12.4007 ,0.76813 ,4.27871 ,41.98272 
67 ,12.5926 ,0.77003 ,4.23422 ,41.54620 
68 ,12.7690 ,0.77185 ,4.22738 ,41.47905 
69 ,12.9609 ,0.77376 ,4.21711 ,41.37831 
70 ,13.1691 ,0.77568 ,4.20342 ,41.24400 
71 ,13.3613 ,0.77774 ,4.19316 ,41.14326 
72 ,13.5374 ,0.77953 ,4.15894 ,40.80748 
73 ,13.7295 ,0.78147 ,4.13156 ,40.53885 
74 ,13.9214 ,0.78328 ,4.12471 ,40.47170 
75 ,14.0974 ,0.78516 ,4.10418 ,40.27023 
76 ,14.3055 ,0.78712 ,4.09734 ,40.20307 
77 ,14.4978 ,0.78902 ,4.06312 ,39.86729 
78 ,14.6899 ,0.79099 ,4.04600 ,39.69940 
79 ,14.8819 ,0.79291 ,4.04943 ,39.73297 
80 ,15.0738 ,0.79492 ,4.00836 ,39.33003 
81 ,15.2659 ,0.79679 ,4.01178 ,39.36361 
82 ,15.4580 ,0.79870 ,3.98783 ,39.12856 
83 ,15.6501 ,0.80059 ,3.97756 ,39.02783 
84 ,15.8263 ,0.80237 ,3.95703 ,38.82636 
85 ,16.0342 ,0.80445 ,3.92623 ,38.52415 
86 ,16.2264 ,0.80633 ,3.92281 ,38.49058 
87 ,16.4025 ,0.80816 ,3.91254 ,38.38984 
88 ,16.6106 ,0.81011 ,3.87832 ,38.05406 
89 ,16.8025 ,0.81215 ,3.87490 ,38.02048 
90 ,16.9786 ,0.81390 ,3.84752 ,37.75185 
91 ,17.1708 ,0.81578 ,3.81330 ,37.41607 
92 ,17.3625 ,0.81770 ,3.81672 ,37.44965 
93 ,17.5390 ,0.81951 ,3.79619 ,37.24818 
94 ,17.7470 ,0.82154 ,3.78250 ,37.11387 
95 ,17.9231 ,0.82342 ,3.75512 ,36.84524 
96 ,18.0991 ,0.82514 ,3.75170 ,36.81166 
97 ,18.2751 ,0.82687 ,3.71748 ,36.47588 
98 ,18.4508 ,0.82864 ,3.71063 ,36.40872 
99 ,18.6275 ,0.83040 ,3.69352 ,36.24083 
100 ,18.8355 ,0.83240 ,3.66614 ,35.97220 
101 ,19.0278 ,0.83429 ,3.65930 ,35.90505 
102 ,19.2359 ,0.83643 ,3.65246 ,35.83789 
103 ,19.4280 ,0.83833 ,3.63192 ,35.63642 
104 ,19.6199 ,0.84028 ,3.60797 ,35.40137 
105 ,19.8281 ,0.84234 ,3.59086 ,35.23348 
106 ,20.0040 ,0.84420 ,3.58059 ,35.13275 
107 ,20.1802 ,0.84595 ,3.57032 ,35.03201 
108 ,20.3721 ,0.84779 ,3.52926 ,34.62907 
109 ,20.5481 ,0.84957 ,3.52926 ,34.62907 
110 ,20.7404 ,0.85153 ,3.51215 ,34.46118 
111 ,20.9324 ,0.85346 ,3.48819 ,34.22613 
112 ,21.1084 ,0.85522 ,3.47108 ,34.05824 
113 ,21.2844 ,0.85693 ,3.46081 ,33.95751 
114 ,21.4766 ,0.85882 ,3.43344 ,33.68888 
115 ,21.6524 ,0.86057 ,3.41633 ,33.52099 
116 ,21.8448 ,0.86248 ,3.39921 ,33.35310 
117 ,22.0527 ,0.86456 ,3.38553 ,33.21878 
118 ,22.2291 ,0.86640 ,3.37526 ,33.11805 
119 ,22.4212 ,0.86827 ,3.35815 ,32.95016 
120 ,22.6132 ,0.87023 ,3.34104 ,32.78227 
121 ,22.8052 ,0.87208 ,3.33419 ,32.71511 
122 ,23.0134 ,0.87415 ,3.30682 ,32.44648 
123 ,23.2050 ,0.87614 ,3.29655 ,32.34575 
124 ,23.3814 ,0.87792 ,3.29313 ,32.31217 
125 ,23.5734 ,0.87982 ,3.24522 ,31.84207 
126 ,23.7653 ,0.88175 ,3.22126 ,31.60702 
127 ,23.9415 ,0.88351 ,3.23153 ,31.70776 
128 ,24.1175 ,0.88529 ,3.20073 ,31.40555 
129 ,24.3098 ,0.88719 ,3.20073 ,31.40555 
130 ,24.4857 ,0.88891 ,3.18362 ,31.23766 
131 ,24.6619 ,0.89079 ,3.16309 ,31.03619 
132 ,24.8380 ,0.89243 ,3.14597 ,30.86830 
133 ,25.0303 ,0.89428 ,3.12202 ,30.63325 
134 ,25.2222 ,0.89632 ,3.11518 ,30.56610 
135 ,25.3983 ,0.89807 ,3.10149 ,30.43178 
136 ,25.6063 ,0.90013 ,3.09122 ,30.33105 
137 ,25.8144 ,0.90207 ,3.05358 ,29.96169 
138 ,26.0063 ,0.90411 ,3.06384 ,30.06242 
139 ,26.1825 ,0.90593 ,3.04673 ,29.89453 
140 ,26.3747 ,0.90772 ,3.01251 ,29.55875 
141 ,26.5667 ,0.90976 ,2.99882 ,29.42444 
142 ,26.7588 ,0.91170 ,2.98171 ,29.25654 
143 ,26.9347 ,0.91355 ,2.96460 ,29.08865 
144 ,27.1110 ,0.91518 ,2.93722 ,28.82003 
145 ,27.2869 ,0.91692 ,2.93380 ,28.78645 
146 ,27.4789 ,0.91876 ,2.92011 ,28.65213 
147 ,27.6709 ,0.92075 ,2.88589 ,28.31635 
148 ,27.8471 ,0.92252 ,2.88589 ,28.31635 
149 ,28.0235 ,0.92431 ,2.88589 ,28.31635 
150 ,28.1993 ,0.92609 ,2.86878 ,28.14846 
151 ,28.3915 ,0.92804 ,2.82087 ,27.67836 
152 ,28.5993 ,0.92992 ,2.82087 ,27.67836 
153 ,28.7917 ,0.93203 ,2.79691 ,27.44332 
154 ,28.9837 ,0.93396 ,2.79691 ,27.44332 
155 ,29.1913 ,0.93590 ,2.76611 ,27.14111 
156 ,29.3678 ,0.93775 ,2.75927 ,27.07395 
157 ,29.5600 ,0.93967 ,2.73189 ,26.80533 
158 ,29.7361 ,0.94145 ,2.71478 ,26.63744 
159 ,29.9122 ,0.94321 ,2.70794 ,26.57028 
160 ,30.1203 ,0.94524 ,2.69767 ,26.46954 
161 ,30.2803 ,0.94702 ,2.67029 ,26.20092 
162 ,30.4560 ,0.94859 ,2.66345 ,26.13376 
163 ,30.6483 ,0.95052 ,2.66345 ,26.13376 
164 ,30.8246 ,0.95231 ,2.64976 ,25.99945 
165 ,31.0166 ,0.95419 ,2.61896 ,25.69724 
166 ,31.2246 ,0.95616 ,2.62581 ,25.76440 
167 ,31.4166 ,0.95828 ,2.59158 ,25.42862 
168 ,31.6088 ,0.96014 ,2.58132 ,25.32788 
169 ,31.7849 ,0.96191 ,2.57447 ,25.26073 
170 ,31.9768 ,0.96377 ,2.53683 ,24.89136 
171 ,32.1530 ,0.96567 ,2.54025 ,24.92494 
172 ,32.3449 ,0.96742 ,2.51972 ,24.72347 
173 ,32.5371 ,0.96939 ,2.48892 ,24.42127 
174 ,32.7132 ,0.97120 ,2.46839 ,24.21980 
175 ,32.9052 ,0.97308 ,2.48550 ,24.38769 
176 ,33.0814 ,0.97486 ,2.46496 ,24.18622 
177 ,33.2733 ,0.97672 ,2.43416 ,23.88402 
178 ,33.4492 ,0.97852 ,2.43074 ,23.85044 
179 ,33.6415 ,0.98043 ,2.41363 ,23.68255 
180 ,33.8498 ,0.98244 ,2.38625 ,23.41392 
181 ,34.0417 ,0.98442 ,2.37256 ,23.27961 
182 ,34.2179 ,0.98626 ,2.36572 ,23.21245 
183 ,34.4097 ,0.98806 ,2.35888 ,23.14529 
184 ,34.6020 ,0.99000 ,2.34177 ,22.97740 
185 ,34.7779 ,0.99188 ,2.31781 ,22.74235 
186 ,34.9537 ,0.99362 ,2.29043 ,22.47373 
187 ,35.1303 ,0.99532 ,2.29385 ,22.50731 
188 ,35.3062 ,0.99708 ,2.30070 ,22.57446 
189 ,35.4824 ,0.99882 ,2.28017 ,22.37299 
190 ,35.6742 ,1.00069 ,2.25279 ,22.10437 
191 ,35.8825 ,1.00273 ,2.24937 ,22.07079 
192 ,36.0745 ,1.00472 ,2.21857 ,21.76858 
193 ,36.2665 ,1.00673 ,2.21515 ,21.73500 
194 ,36.4427 ,1.00851 ,2.19461 ,21.53353 
195 ,36.6344 ,1.01035 ,2.18777 ,21.46638 
196 ,36.8268 ,1.01224 ,2.17066 ,21.29849 
197 ,37.0350 ,1.01442 ,2.14670 ,21.06344 
198 ,37.2270 ,1.01625 ,2.15012 ,21.09702 
199 ,37.4031 ,1.01810 ,2.12617 ,20.86197 
200 ,37.5950 ,1.02001 ,2.09879 ,20.59334 
201 ,37.7711 ,1.02173 ,2.08168 ,20.42545 
202 ,37.9473 ,1.02345 ,2.09537 ,20.55976 
203 ,38.1235 ,1.02526 ,2.06799 ,20.29114 
204 ,38.3154 ,1.02714 ,2.04746 ,20.08967 
205 ,38.5235 ,1.02924 ,2.03035 ,19.92178 
206 ,38.6997 ,1.03109 ,2.01666 ,19.78746 
207 ,38.8754 ,1.03277 ,1.99955 ,19.61957 
208 ,39.0674 ,1.03473 ,1.99613 ,19.58599 
209 ,39.2439 ,1.03648 ,1.99270 ,19.55241 
210 ,39.4519 ,1.03851 ,1.96533 ,19.28379 
211 ,39.6440 ,1.04040 ,1.93111 ,18.94801 
212 ,39.8359 ,1.04234 ,1.93795 ,19.01516 
213 ,40.0284 ,1.04432 ,1.92084 ,18.84727 
214 ,40.2204 ,1.04625 ,1.89688 ,18.61222 
215 ,40.3963 ,1.04798 ,1.87635 ,18.41075 
216 ,40.5722 ,1.04980 ,1.88319 ,18.47791 
217 ,40.7645 ,1.05164 ,1.85924 ,18.24286 
218 ,40.9561 ,1.05354 ,1.84213 ,18.07497 
219 ,41.1487 ,1.05549 ,1.84897 ,18.14213 
220 ,41.3563 ,1.05752 ,1.81817 ,17.83992 
221 ,41.5326 ,1.05932 ,1.80449 ,17.70561 
222 ,41.7088 ,1.06113 ,1.79764 ,17.63845 
223 ,41.9010 ,1.06297 ,1.77026 ,17.36983 
224 ,42.0764 ,1.06483 ,1.76000 ,17.26909 
225 ,42.2530 ,1.06657 ,1.75657 ,17.23551 
226 ,42.4610 ,1.06858 ,1.71551 ,16.83257 
227 ,42.6371 ,1.07043 ,1.71209 ,16.79899 
228 ,42.8449 ,1.07243 ,1.70182 ,16.69826 
229 ,43.0374 ,1.07428 ,1.68129 ,16.49679 
230 ,43.2295 ,1.07630 ,1.67786 ,16.46321 
231 ,43.4375 ,1.07831 ,1.65391 ,16.22816 
232 ,43.6297 ,1.08027 ,1.66075 ,16.29532 
233 ,43.8216 ,1.08219 ,1.62311 ,15.92596 
234 ,43.9976 ,1.08400 ,1.60942 ,15.79164 
235 ,44.1734 ,1.08573 ,1.59916 ,15.69091 
236 ,44.3659 ,1.08761 ,1.58889 ,15.59018 
237 ,44.5580 ,1.08954 ,1.57178 ,15.42228 
238 ,44.7660 ,1.09161 ,1.55467 ,15.25439 
239 ,44.9422 ,1.09344 ,1.54440 ,15.15366 
240 ,45.1343 ,1.09530 ,1.53756 ,15.08650 
241 ,45.3424 ,1.09739 ,1.51702 ,14.88503 
242 ,45.5503 ,1.09941 ,1.52045 ,14.91861 
243 ,45.7263 ,1.10127 ,1.49991 ,14.71714 
244 ,45.9184 ,1.10324 ,1.46569 ,14.38136 
245 ,46.0945 ,1.10494 ,1.47253 ,14.44851 
246 ,46.2867 ,1.10678 ,1.45542 ,14.28062 
247 ,46.4628 ,1.10873 ,1.43147 ,14.04557 
248 ,46.6547 ,1.11057 ,1.42805 ,14.01199 
249 ,46.8469 ,1.11238 ,1.41778 ,13.91126 
250 ,47.0390 ,1.11439 ,1.38698 ,13.60906 
251 ,47.2312 ,1.11624 ,1.39040 ,13.64263 
252 ,47.4068 ,1.11811 ,1.38014 ,13.54190 
253 ,47.5833 ,1.11987 ,1.36303 ,13.37401 
254 ,47.7913 ,1.12185 ,1.35618 ,13.30685 
255 ,47.9668 ,1.12363 ,1.34249 ,13.17254 
256 ,48.1435 ,1.12542 ,1.32196 ,12.97107 
257 ,48.3194 ,1.12724 ,1.31512 ,12.90391 
258 ,48.4952 ,1.12894 ,1.28774 ,12.63528 
259 ,48.6715 ,1.13076 ,1.28432 ,12.60171 
260 ,48.8638 ,1.13262 ,1.25352 ,12.29950 
261 ,49.0556 ,1.13455 ,1.25694 ,12.33308 
262 ,49.2478 ,1.13638 ,1.23983 ,12.16519 
263 ,49.4240 ,1.13823 ,1.20561 ,11.82941 
264 ,49.6159 ,1.14009 ,1.20218 ,11.79583 
265 ,49.7921 ,1.14192 ,1.20903 ,11.86298 
266 ,49.9841 ,1.14380 ,1.18507 ,11.62794 
267 ,50.1603 ,1.14560 ,1.17138 ,11.49362 
268 ,50.3684 ,1.14769 ,1.15770 ,11.35931 
269 ,50.5603 ,1.14953 ,1.14401 ,11.22500 
270 ,50.7204 ,1.15131 ,1.14058 ,11.19142 
271 ,50.9124 ,1.15309 ,1.14058 ,11.19142 
272 ,51.0886 ,1.15485 ,1.12005 ,10.98995 
273 ,51.2967 ,1.15689 ,1.10294 ,10.82206 
274 ,51.4887 ,1.15882 ,1.07899 ,10.58701 
275 ,51.6806 ,1.16077 ,1.05845 ,10.38554 
276 ,51.8728 ,1.16268 ,1.07556 ,10.55343 
277 ,52.0649 ,1.16462 ,1.04819 ,10.28480 
278 ,52.2411 ,1.16641 ,1.02765 ,10.08333 
279 ,52.4492 ,1.16844 ,1.01739 ,9.98260 
280 ,52.6413 ,1.17036 ,0.99343 ,9.74755 
281 ,52.8332 ,1.17230 ,0.99343 ,9.74755 
282 ,53.0251 ,1.17409 ,0.99001 ,9.71397 
283 ,53.2175 ,1.17606 ,0.95921 ,9.41177 
284 ,53.4095 ,1.17803 ,0.94894 ,9.31103 
285 ,53.6016 ,1.17999 ,0.94210 ,9.24388 
286 ,53.7777 ,1.18177 ,0.93868 ,9.21030 
287 ,53.9537 ,1.18358 ,0.92841 ,9.10956 
288 ,54.1458 ,1.18536 ,0.89419 ,8.77378 
289 ,54.3220 ,1.18721 ,0.89077 ,8.74020 
290 ,54.5139 ,1.18905 ,0.89761 ,8.80736 
291 ,54.6901 ,1.19088 ,0.87366 ,8.57231 
292 ,54.8822 ,1.19272 ,0.85654 ,8.40442 
293 ,55.0739 ,1.19467 ,0.85312 ,8.37084 
294 ,55.2823 ,1.19674 ,0.82917 ,8.13579 
295 ,55.4582 ,1.19856 ,0.81890 ,8.03506 
296 ,55.6340 ,1.20030 ,0.82917 ,8.13579 
297 ,55.8105 ,1.20209 ,0.81548 ,8.00148 
298 ,56.0022 ,1.20391 ,0.78468 ,7.69927 
299 ,56.1787 ,1.20581 ,0.77099 ,7.56496 
300 ,56.3866 ,1.20776 ,0.75046 ,7.36349 
301 ,56.5628 ,1.20960 ,0.75046 ,7.36349 
302 ,56.7549 ,1.21146 ,0.74704 ,7.32991 
303 ,56.9470 ,1.21336 ,0.71966 ,7.06129 
304 ,57.1390 ,1.21530 ,0.72308 ,7.09486 
305 ,57.3311 ,1.21722 ,0.68886 ,6.75908 
306 ,57.5072 ,1.21906 ,0.69228 ,6.79266 
307 ,57.7151 ,1.22101 ,0.66833 ,6.55761 
308 ,57.8914 ,1.22289 ,0.67517 ,6.62477 
309 ,58.0675 ,1.22468 ,0.64437 ,6.32256 
310 ,58.2595 ,1.22650 ,0.63410 ,6.22183 
311 ,58.4517 ,1.22847 ,0.63068 ,6.18825 
312 ,58.6437 ,1.23035 ,0.61015 ,5.98678 
313 ,58.8357 ,1.23226 ,0.61357 ,6.02036 
314 ,59.0280 ,1.23426 ,0.59304 ,5.81889 
315 ,59.2036 ,1.23598 ,0.56566 ,5.55026 
316 ,59.3960 ,1.23787 ,0.58277 ,5.71815 
317 ,59.5881 ,1.23980 ,0.54855 ,5.38237 
318 ,59.7801 ,1.24168 ,0.55197 ,5.41595 
319 ,59.9722 ,1.24366 ,0.54171 ,5.31522 
320 ,60.1479 ,1.24558 ,0.51091 ,5.01301 
321 ,60.3239 ,1.24717 ,0.49037 ,4.81154 
322 ,60.5000 ,1.24897 ,0.49380 ,4.84512 
323 ,60.6765 ,1.25070 ,0.48695 ,4.77796 
324 ,60.8685 ,1.25270 ,0.46984 ,4.61007 
325 ,61.0444 ,1.25439 ,0.46300 ,4.54291 
326 ,61.2368 ,1.25625 ,0.46984 ,4.61007 
327 ,61.4284 ,1.25822 ,0.44588 ,4.37502 
328 ,61.6210 ,1.26012 ,0.43904 ,4.30787 
329 ,61.7969 ,1.26191 ,0.41851 ,4.10640 
330 ,61.9885 ,1.26383 ,0.40824 ,4.00566 
331 ,62.1809 ,1.26568 ,0.41509 ,4.07282 
332 ,62.3727 ,1.26771 ,0.38771 ,3.80419 
333 ,62.5647 ,1.26955 ,0.36033 ,3.53557 
334 ,62.7409 ,1.27135 ,0.36033 ,3.53557 
335 ,62.9173 ,1.27310 ,0.36375 ,3.56914 
336 ,63.1415 ,1.27538 ,0.32953 ,3.23336 
337 ,63.3335 ,1.27726 ,0.33638 ,3.30052 
338 ,63.5093 ,1.27903 ,0.31584 ,3.09905 
339 ,63.6858 ,1.28078 ,0.29873 ,2.93116 
340 ,63.8778 ,1.28269 ,0.30900 ,3.03189 
341 ,64.0698 ,1.28453 ,0.28847 ,2.83042 
342 ,64.2780 ,1.28663 ,0.27478 ,2.69611 
343 ,64.4697 ,1.28858 ,0.25424 ,2.49464 
344 ,64.6782 ,1.29056 ,0.24055 ,2.36032 
345 ,64.8860 ,1.29272 ,0.23029 ,2.25959 
346 ,65.0623 ,1.29451 ,0.22344 ,2.19243 
347 ,65.2543 ,1.29642 ,0.21318 ,2.09170 
348 ,65.4463 ,1.29839 ,0.20291 ,1.99096 
349 ,65.6381 ,1.30033 ,0.19949 ,1.95738 
350 ,65.8147 ,1.30208 ,0.18580 ,1.82307 
351 ,66.0227 ,1.30403 ,0.17896 ,1.75592 
352 ,66.1988 ,1.30594 ,0.15842 ,1.55445 
353 ,66.3903 ,1.30776 ,0.13789 ,1.35298 
354 ,66.5668 ,1.30956 ,0.12078 ,1.18508 
355 ,66.7425 ,1.31135 ,0.11393 ,1.11793 
356 ,66.9348 ,1.31321 ,0.11393 ,1.11793 
357 ,67.1268 ,1.31518 ,0.09340 ,0.91646 
358 ,67.3031 ,1.31695 ,0.09682 ,0.95004 
359 ,67.4793 ,1.31872 ,0.08998 ,0.88288 
360 ,67.6713 ,1.32060 ,0.05234 ,0.51352 
361 ,67.8633 ,1.32260 ,0.06945 ,0.68141 
362 ,68.0394 ,1.32429 ,0.06602 ,0.64783 
363 ,68.2315 ,1.32617 ,0.03180 ,0.31205 
364 ,68.4073 ,1.32801 ,0.02838 ,0.27847 
365 ,68.5837 ,1.32976 ,0.02154 ,0.21131 
366 ,68.7758 ,1.33165 ,0.02838 ,0.27847 
367 ,68.9521 ,1.33347 ,-0.00584 ,-0.05731 
368 ,69.1437 ,1.33541 ,-0.01953 ,-0.19163 
369 ,69.3521 ,1.33742 ,-0.04006 ,-0.39310 
370 ,69.5601 ,1.33949 ,-0.01611 ,-0.15805 
371 ,69.7678 ,1.34155 ,-0.05033 ,-0.49383 
372 ,69.9438 ,1.34334 ,-0.05033 ,-0.49383 
373 ,70.1204 ,1.34515 ,-0.05033 ,-0.49383 
374 ,70.3121 ,1.34697 ,-0.07771 ,-0.76246 
375 ,70.4885 ,1.34873 ,-0.07428 ,-0.72888 
376 ,70.6802 ,1.35063 ,-0.08455 ,-0.82961 
377 ,70.8564 ,1.35254 ,-0.08797 ,-0.86319 
378 ,71.0323 ,1.35423 ,-0.10166 ,-0.99751 
379 ,71.2087 ,1.35596 ,-0.11877 ,-1.16540 
380 ,71.4168 ,1.35793 ,-0.12219 ,-1.19898 
381 ,71.5927 ,1.35989 ,-0.13931 ,-1.36687 
382 ,71.7689 ,1.36159 ,-0.14957 ,-1.46760 
383 ,71.9611 ,1.36353 ,-0.14273 ,-1.40045 
384 ,72.1366 ,1.36538 ,-0.15984 ,-1.56834 
385 ,72.3131 ,1.36701 ,-0.17695 ,-1.73623 
386 ,72.4892 ,1.36878 ,-0.19064 ,-1.87054 
387 ,72.6653 ,1.37055 ,-0.20090 ,-1.97128 
388 ,72.8574 ,1.37245 ,-0.21459 ,-2.10559 
389 ,73.0335 ,1.37433 ,-0.20775 ,-2.03843 
390 ,73.2090 ,1.37599 ,-0.22828 ,-2.23990 
391 ,73.3854 ,1.37777 ,-0.22828 ,-2.23990 
392 ,73.5777 ,1.37959 ,-0.24881 ,-2.44137 
393 ,73.7695 ,1.38154 ,-0.24197 ,-2.37422 
394 ,73.9459 ,1.38337 ,-0.25566 ,-2.50853 
395 ,74.1378 ,1.38519 ,-0.26935 ,-2.64284 
396 ,74.3140 ,1.38700 ,-0.26935 ,-2.64284 
397 ,74.4738 ,1.38874 ,-0.28988 ,-2.84431 
398 ,74.6501 ,1.39041 ,-0.30699 ,-3.01220 
399 ,74.8422 ,1.39226 ,-0.29673 ,-2.91147 
400 ,75.0182 ,1.39411 ,-0.29330 ,-2.87789 
401 ,75.1944 ,1.39584 ,-0.33437 ,-3.28083 
402 ,75.3703 ,1.39766 ,-0.32410 ,-3.18010 
403 ,75.5464 ,1.39931 ,-0.32410 ,-3.18010 
404 ,75.7385 ,1.40116 ,-0.34464 ,-3.38156 
405 ,75.9306 ,1.40313 ,-0.36175 ,-3.54946 
406 ,76.1066 ,1.40494 ,-0.36517 ,-3.58303 
407 ,76.2987 ,1.40679 ,-0.38570 ,-3.78450 
408 ,76.4907 ,1.40877 ,-0.40623 ,-3.98597 
409 ,76.6829 ,1.41070 ,-0.39255 ,-3.85166 
410 ,76.8748 ,1.41256 ,-0.41992 ,-4.12029 
411 ,77.0669 ,1.41459 ,-0.41992 ,-4.12029 
412 ,77.2592 ,1.41641 ,-0.42677 ,-4.18744 
413 ,77.4350 ,1.41825 ,-0.43703 ,-4.28818 
414 ,77.6111 ,1.42007 ,-0.43703 ,-4.28818 
415 ,77.8033 ,1.42193 ,-0.44730 ,-4.38891 
416 ,77.9954 ,1.42378 ,-0.47810 ,-4.69112 
417 ,78.2034 ,1.42588 ,-0.45757 ,-4.48965 
418 ,78.3795 ,1.42766 ,-0.47810 ,-4.69112 
419 ,78.5712 ,1.42954 ,-0.49179 ,-4.82543 
420 ,78.7477 ,1.43138 ,-0.49521 ,-4.85901 
421 ,78.9398 ,1.43332 ,-0.49863 ,-4.89259 
422 ,79.1320 ,1.43515 ,-0.52259 ,-5.12764 
423 ,79.3240 ,1.43708 ,-0.52601 ,-5.16121 
424 ,79.5157 ,1.43896 ,-0.54997 ,-5.39626 
425 ,79.6760 ,1.44075 ,-0.54312 ,-5.32911 
426 ,79.8520 ,1.44240 ,-0.56023 ,-5.49700 
427 ,80.0442 ,1.44428 ,-0.56365 ,-5.53058 
428 ,80.2202 ,1.44611 ,-0.57050 ,-5.59773 
429 ,80.3962 ,1.44782 ,-0.59103 ,-5.79920 
430 ,80.5884 ,1.44969 ,-0.57392 ,-5.63131 
431 ,80.7643 ,1.45148 ,-0.59103 ,-5.79920 
432 ,80.9406 ,1.45327 ,-0.61156 ,-6.00067 
433 ,81.1167 ,1.45503 ,-0.62868 ,-6.16856 
434 ,81.3085 ,1.45700 ,-0.61156 ,-6.00067 
435 ,81.5007 ,1.45882 ,-0.63552 ,-6.23572 
436 ,81.6769 ,1.46069 ,-0.64921 ,-6.37003 
437 ,81.8687 ,1.46251 ,-0.65263 ,-6.40361 
438 ,82.0771 ,1.46457 ,-0.66632 ,-6.53793 
439 ,82.2686 ,1.46653 ,-0.64579 ,-6.33646 
440 ,82.4452 ,1.46828 ,-0.66290 ,-6.50435 
441 ,82.6370 ,1.47019 ,-0.68001 ,-6.67224 
442 ,82.8131 ,1.47199 ,-0.69370 ,-6.80655 
443 ,83.0050 ,1.47388 ,-0.69370 ,-6.80655 
444 ,83.1976 ,1.47582 ,-0.71081 ,-6.97444 
445 ,83.4054 ,1.47787 ,-0.72450 ,-7.10876 
446 ,83.5975 ,1.47978 ,-0.72450 ,-7.10876 
447 ,83.7897 ,1.48174 ,-0.72107 ,-7.07518 
448 ,83.9658 ,1.48356 ,-0.74845 ,-7.34380 
449 ,84.1420 ,1.48528 ,-0.74845 ,-7.34380 
450 ,84.3181 ,1.48707 ,-0.75530 ,-7.41096 
451 ,84.4938 ,1.48884 ,-0.75187 ,-7.37738 
452 ,84.6699 ,1.49058 ,-0.75530 ,-7.41096 
453 ,84.8621 ,1.49244 ,-0.78267 ,-7.67959 
454 ,85.0541 ,1.49433 ,-0.77241 ,-7.57885 
455 ,85.2465 ,1.49628 ,-0.78267 ,-7.67959 
456 ,85.4388 ,1.49821 ,-0.79636 ,-7.81390 
457 ,85.6467 ,1.50020 ,-0.82032 ,-8.04895 
458 ,85.8387 ,1.50214 ,-0.81689 ,-8.01537 
459 ,86.0307 ,1.50418 ,-0.83743 ,-8.21684 
460 ,86.2228 ,1.50603 ,-0.84769 ,-8.31758 
461 ,86.4146 ,1.50797 ,-0.84769 ,-8.31758 
462 ,86.5909 ,1.50975 ,-0.84769 ,-8.31758 
463 ,86.7671 ,1.51156 ,-0.84427 ,-8.28400 
