Data stamp = , 21-04-2022 12:35:21 023

Calibration Values: 
Slope = , 26.54 , g/V 
Offset Voltage at no contact = , -0.501760 , V 

No , Time , Stage Position ,   Mass , Force 
   ,  (s) ,      (mm)      ,   (g)  , (mN)  

1 ,0.0000 ,0.64934 ,5.28141 ,51.82116 
2 ,0.2112 ,0.64943 ,5.27456 ,51.75401 
3 ,0.5645 ,0.65038 ,5.29167 ,51.92190 
4 ,0.7719 ,0.65202 ,5.29167 ,51.92190 
5 ,0.9792 ,0.65387 ,5.27114 ,51.72043 
6 ,1.1557 ,0.65561 ,5.27114 ,51.72043 
7 ,1.3477 ,0.65750 ,5.28825 ,51.88832 
8 ,1.5236 ,0.65927 ,5.28825 ,51.88832 
9 ,1.7001 ,0.66109 ,5.25745 ,51.58611 
10 ,1.8919 ,0.66295 ,5.25403 ,51.55254 
11 ,2.1000 ,0.66510 ,5.22323 ,51.25033 
12 ,2.2921 ,0.66696 ,5.21639 ,51.18317 
13 ,2.4684 ,0.66878 ,5.19585 ,50.98170 
14 ,2.6445 ,0.67052 ,5.18216 ,50.84739 
15 ,2.8366 ,0.67241 ,5.16163 ,50.64592 
16 ,3.0441 ,0.67437 ,5.13425 ,50.37729 
17 ,3.2208 ,0.67634 ,5.11714 ,50.20940 
18 ,3.4125 ,0.67813 ,5.10688 ,50.10867 
19 ,3.5888 ,0.67998 ,5.09661 ,50.00793 
20 ,3.7808 ,0.68183 ,5.05554 ,49.60499 
21 ,3.9733 ,0.68380 ,5.04528 ,49.50426 
22 ,4.1650 ,0.68572 ,5.03843 ,49.43710 
23 ,4.3411 ,0.68747 ,5.00421 ,49.10132 
24 ,4.5172 ,0.68921 ,4.99394 ,49.00058 
25 ,4.6931 ,0.69104 ,4.98710 ,48.93343 
26 ,4.8852 ,0.69297 ,4.95630 ,48.63122 
27 ,5.0614 ,0.69476 ,4.92208 ,48.29544 
28 ,5.2534 ,0.69657 ,4.92892 ,48.36260 
29 ,5.4296 ,0.69837 ,4.92892 ,48.36260 
30 ,5.6376 ,0.70037 ,4.87759 ,47.85892 
31 ,5.8135 ,0.70221 ,4.86048 ,47.69103 
32 ,5.9898 ,0.70401 ,4.86732 ,47.75819 
33 ,6.1819 ,0.70584 ,4.82968 ,47.38883 
34 ,6.3899 ,0.70793 ,4.81257 ,47.22093 
35 ,6.5819 ,0.70984 ,4.78177 ,46.91873 
36 ,6.7582 ,0.71167 ,4.77493 ,46.85157 
37 ,6.9502 ,0.71346 ,4.75439 ,46.65010 
38 ,7.1422 ,0.71557 ,4.73044 ,46.41506 
39 ,7.3340 ,0.71734 ,4.71333 ,46.24716 
40 ,7.5264 ,0.71927 ,4.70990 ,46.21359 
41 ,7.7345 ,0.72139 ,4.69279 ,46.04569 
42 ,7.9105 ,0.72321 ,4.67568 ,45.87780 
43 ,8.1024 ,0.72506 ,4.65173 ,45.64275 
44 ,8.2788 ,0.72685 ,4.63119 ,45.44128 
45 ,8.4704 ,0.72869 ,4.62777 ,45.40771 
46 ,8.6467 ,0.73053 ,4.61066 ,45.23981 
47 ,8.8387 ,0.73235 ,4.58671 ,45.00477 
48 ,9.0470 ,0.73438 ,4.55591 ,44.70256 
49 ,9.2711 ,0.73662 ,4.53880 ,44.53467 
50 ,9.4631 ,0.73862 ,4.52511 ,44.40036 
51 ,9.6552 ,0.74053 ,4.49773 ,44.13173 
52 ,9.8471 ,0.74255 ,4.49773 ,44.13173 
53 ,10.0393 ,0.74442 ,4.47378 ,43.89668 
54 ,10.2154 ,0.74618 ,4.44982 ,43.66163 
55 ,10.4077 ,0.74815 ,4.46009 ,43.76237 
56 ,10.5994 ,0.75007 ,4.42586 ,43.42659 
57 ,10.8078 ,0.75203 ,4.41560 ,43.32585 
58 ,11.0157 ,0.75420 ,4.38138 ,42.99007 
59 ,11.1918 ,0.75606 ,4.37795 ,42.95649 
60 ,11.3836 ,0.75781 ,4.35058 ,42.68786 
61 ,11.5601 ,0.75965 ,4.32320 ,42.41924 
62 ,11.7519 ,0.76147 ,4.33004 ,42.48639 
63 ,11.9441 ,0.76348 ,4.30609 ,42.25135 
64 ,12.1199 ,0.76536 ,4.27529 ,41.94914 
65 ,12.2960 ,0.76698 ,4.26502 ,41.84841 
66 ,12.4882 ,0.76893 ,4.26845 ,41.88198 
67 ,12.6962 ,0.77097 ,4.23422 ,41.54620 
68 ,12.8724 ,0.77275 ,4.21369 ,41.34473 
69 ,13.0485 ,0.77462 ,4.21027 ,41.31115 
70 ,13.2245 ,0.77627 ,4.18974 ,41.10968 
71 ,13.4007 ,0.77806 ,4.16578 ,40.87464 
72 ,13.5927 ,0.77991 ,4.15551 ,40.77390 
73 ,13.7690 ,0.78176 ,4.14525 ,40.67317 
74 ,13.9611 ,0.78360 ,4.10760 ,40.30380 
75 ,14.1366 ,0.78540 ,4.09734 ,40.20307 
76 ,14.3130 ,0.78714 ,4.08365 ,40.06876 
77 ,14.5050 ,0.78905 ,4.07680 ,40.00160 
78 ,14.6812 ,0.79084 ,4.05285 ,39.76655 
79 ,14.8733 ,0.79271 ,4.02889 ,39.53150 
80 ,15.0654 ,0.79466 ,4.02547 ,39.49793 
81 ,15.2893 ,0.79682 ,4.01520 ,39.39719 
82 ,15.4655 ,0.79867 ,4.00836 ,39.33003 
83 ,15.6734 ,0.80077 ,3.96729 ,38.92709 
84 ,15.8658 ,0.80262 ,3.96729 ,38.92709 
85 ,16.0734 ,0.80460 ,3.93307 ,38.59131 
86 ,16.2499 ,0.80652 ,3.92281 ,38.49058 
87 ,16.4419 ,0.80843 ,3.89885 ,38.25553 
88 ,16.6020 ,0.81014 ,3.87490 ,38.02048 
89 ,16.7782 ,0.81181 ,3.86121 ,37.88617 
90 ,16.9705 ,0.81367 ,3.86121 ,37.88617 
91 ,17.1783 ,0.81574 ,3.82699 ,37.55038 
92 ,17.3702 ,0.81772 ,3.82356 ,37.51681 
93 ,17.5785 ,0.81977 ,3.78934 ,37.18102 
94 ,17.7706 ,0.82167 ,3.78250 ,37.11387 
95 ,17.9465 ,0.82352 ,3.76881 ,36.97955 
96 ,18.1383 ,0.82530 ,3.75512 ,36.84524 
97 ,18.3468 ,0.82732 ,3.72774 ,36.57661 
98 ,18.5549 ,0.82951 ,3.70721 ,36.37514 
99 ,18.7467 ,0.83140 ,3.69010 ,36.20725 
100 ,18.9230 ,0.83323 ,3.68325 ,36.14010 
101 ,19.1149 ,0.83506 ,3.66614 ,35.97220 
102 ,19.3071 ,0.83709 ,3.64219 ,35.73716 
103 ,19.5152 ,0.83914 ,3.62508 ,35.56926 
104 ,19.7073 ,0.84107 ,3.62508 ,35.56926 
105 ,19.8834 ,0.84289 ,3.60112 ,35.33422 
106 ,20.0755 ,0.84470 ,3.56348 ,34.96485 
107 ,20.2515 ,0.84661 ,3.56690 ,34.99843 
108 ,20.4274 ,0.84831 ,3.54637 ,34.79696 
109 ,20.6356 ,0.85028 ,3.51899 ,34.52834 
110 ,20.8115 ,0.85213 ,3.51557 ,34.49476 
111 ,20.9879 ,0.85394 ,3.50530 ,34.39402 
112 ,21.1637 ,0.85572 ,3.47450 ,34.09182 
113 ,21.3558 ,0.85754 ,3.46766 ,34.02466 
114 ,21.5319 ,0.85938 ,3.46424 ,33.99108 
115 ,21.7240 ,0.86123 ,3.43344 ,33.68888 
116 ,21.9162 ,0.86309 ,3.40948 ,33.45383 
117 ,22.0923 ,0.86499 ,3.40606 ,33.42025 
118 ,22.2686 ,0.86674 ,3.38895 ,33.25236 
119 ,22.4601 ,0.86853 ,3.37526 ,33.11805 
120 ,22.6524 ,0.87048 ,3.36157 ,32.98374 
121 ,22.8284 ,0.87226 ,3.34446 ,32.81584 
122 ,23.0046 ,0.87404 ,3.33762 ,32.74869 
123 ,23.1968 ,0.87601 ,3.29655 ,32.34575 
124 ,23.3729 ,0.87774 ,3.27944 ,32.17786 
125 ,23.5646 ,0.87965 ,3.28971 ,32.27859 
126 ,23.7410 ,0.88143 ,3.25548 ,31.94281 
127 ,23.9329 ,0.88332 ,3.23837 ,31.77492 
128 ,24.1089 ,0.88507 ,3.22811 ,31.67418 
129 ,24.3009 ,0.88701 ,3.20073 ,31.40555 
130 ,24.4774 ,0.88877 ,3.19046 ,31.30482 
131 ,24.6690 ,0.89070 ,3.18362 ,31.23766 
132 ,24.8454 ,0.89249 ,3.16651 ,31.06977 
133 ,25.0531 ,0.89446 ,3.14597 ,30.86830 
134 ,25.2618 ,0.89656 ,3.12202 ,30.63325 
135 ,25.4701 ,0.89860 ,3.09464 ,30.36463 
136 ,25.6617 ,0.90055 ,3.08780 ,30.29747 
137 ,25.8377 ,0.90236 ,3.06384 ,30.06242 
138 ,26.0137 ,0.90412 ,3.05358 ,29.96169 
139 ,26.1897 ,0.90591 ,3.05015 ,29.92811 
140 ,26.3821 ,0.90771 ,3.02278 ,29.65948 
141 ,26.5739 ,0.90968 ,3.01593 ,29.59233 
142 ,26.7664 ,0.91156 ,3.00567 ,29.49159 
143 ,26.9584 ,0.91355 ,2.96460 ,29.08865 
144 ,27.1504 ,0.91548 ,2.95776 ,29.02150 
145 ,27.3424 ,0.91737 ,2.95433 ,28.98792 
146 ,27.5186 ,0.91913 ,2.91669 ,28.61856 
147 ,27.7104 ,0.92107 ,2.92011 ,28.65213 
148 ,27.9023 ,0.92297 ,2.89273 ,28.38351 
149 ,28.0788 ,0.92482 ,2.87905 ,28.24919 
150 ,28.2868 ,0.92679 ,2.86536 ,28.11488 
151 ,28.4789 ,0.92880 ,2.83798 ,27.84625 
152 ,28.6709 ,0.93077 ,2.84140 ,27.87983 
153 ,28.8471 ,0.93246 ,2.82429 ,27.71194 
154 ,29.0389 ,0.93434 ,2.80376 ,27.51047 
155 ,29.2312 ,0.93629 ,2.78322 ,27.30900 
156 ,29.4233 ,0.93821 ,2.77638 ,27.24185 
157 ,29.6154 ,0.94005 ,2.75243 ,27.00680 
158 ,29.7914 ,0.94196 ,2.75927 ,27.07395 
159 ,29.9676 ,0.94367 ,2.74216 ,26.90606 
160 ,30.1596 ,0.94556 ,2.72847 ,26.77175 
161 ,30.3516 ,0.94747 ,2.69767 ,26.46954 
162 ,30.5277 ,0.94928 ,2.69425 ,26.43597 
163 ,30.7354 ,0.95124 ,2.66687 ,26.16734 
164 ,30.9120 ,0.95310 ,2.66003 ,26.10018 
165 ,31.0877 ,0.95490 ,2.64634 ,25.96587 
166 ,31.2800 ,0.95674 ,2.61212 ,25.63009 
167 ,31.4721 ,0.95866 ,2.59843 ,25.49577 
168 ,31.6642 ,0.96053 ,2.58132 ,25.32788 
169 ,31.8722 ,0.96264 ,2.58132 ,25.32788 
170 ,32.0484 ,0.96448 ,2.57105 ,25.22715 
171 ,32.2240 ,0.96623 ,2.53683 ,24.89136 
172 ,32.4007 ,0.96802 ,2.52998 ,24.82421 
173 ,32.5927 ,0.96983 ,2.51972 ,24.72347 
174 ,32.7843 ,0.97174 ,2.50261 ,24.55558 
175 ,32.9608 ,0.97356 ,2.46839 ,24.21980 
176 ,33.1526 ,0.97541 ,2.46496 ,24.18622 
177 ,33.3609 ,0.97751 ,2.44785 ,24.01833 
178 ,33.5367 ,0.97933 ,2.42048 ,23.74970 
179 ,33.7130 ,0.98110 ,2.41705 ,23.71612 
180 ,33.8891 ,0.98287 ,2.43074 ,23.85044 
181 ,34.0812 ,0.98468 ,2.38625 ,23.41392 
182 ,34.2732 ,0.98659 ,2.38283 ,23.38034 
183 ,34.4814 ,0.98873 ,2.36230 ,23.17887 
184 ,34.6732 ,0.99072 ,2.33834 ,22.94382 
185 ,34.8816 ,0.99274 ,2.31781 ,22.74235 
186 ,35.1056 ,0.99483 ,2.32465 ,22.80951 
187 ,35.2814 ,0.99672 ,2.30070 ,22.57446 
188 ,35.4898 ,0.99879 ,2.29385 ,22.50731 
189 ,35.6819 ,1.00077 ,2.26648 ,22.23868 
190 ,35.8737 ,1.00268 ,2.23910 ,21.97005 
191 ,36.0498 ,1.00443 ,2.22541 ,21.83574 
192 ,36.2100 ,1.00618 ,2.23226 ,21.90290 
193 ,36.3701 ,1.00775 ,2.21172 ,21.70143 
194 ,36.5460 ,1.00942 ,2.21515 ,21.73500 
195 ,36.7223 ,1.01116 ,2.19119 ,21.49996 
196 ,36.9143 ,1.01300 ,2.16039 ,21.19775 
197 ,37.1065 ,1.01495 ,2.16723 ,21.26491 
198 ,37.2986 ,1.01688 ,2.12617 ,20.86197 
199 ,37.4742 ,1.01873 ,2.13301 ,20.92912 
200 ,37.6507 ,1.02042 ,2.11248 ,20.72766 
201 ,37.8428 ,1.02240 ,2.10906 ,20.69408 
202 ,38.0348 ,1.02430 ,2.07141 ,20.32472 
203 ,38.2109 ,1.02606 ,2.05773 ,20.19040 
204 ,38.3870 ,1.02782 ,2.04746 ,20.08967 
205 ,38.5626 ,1.02962 ,2.03719 ,19.98893 
206 ,38.7390 ,1.03131 ,2.01666 ,19.78746 
207 ,38.9468 ,1.03335 ,2.01666 ,19.78746 
208 ,39.1068 ,1.03516 ,2.01324 ,19.75388 
209 ,39.2830 ,1.03675 ,1.98586 ,19.48526 
210 ,39.4596 ,1.03855 ,1.97559 ,19.38452 
211 ,39.6511 ,1.04043 ,1.94822 ,19.11590 
212 ,39.8431 ,1.04230 ,1.94479 ,19.08232 
213 ,40.0191 ,1.04413 ,1.92084 ,18.84727 
214 ,40.1955 ,1.04593 ,1.90031 ,18.64580 
215 ,40.4037 ,1.04792 ,1.90031 ,18.64580 
216 ,40.5959 ,1.04980 ,1.88319 ,18.47791 
217 ,40.7715 ,1.05168 ,1.87977 ,18.44433 
218 ,40.9644 ,1.05349 ,1.86266 ,18.27644 
219 ,41.1559 ,1.05547 ,1.82502 ,17.90708 
220 ,41.3482 ,1.05740 ,1.82502 ,17.90708 
221 ,41.5563 ,1.05944 ,1.79764 ,17.63845 
222 ,41.7324 ,1.06123 ,1.78053 ,17.47056 
223 ,41.9079 ,1.06304 ,1.78395 ,17.50414 
224 ,42.0845 ,1.06474 ,1.77026 ,17.36983 
225 ,42.2926 ,1.06680 ,1.76684 ,17.33625 
226 ,42.4686 ,1.06865 ,1.74631 ,17.13478 
227 ,42.6447 ,1.07040 ,1.72920 ,16.96689 
228 ,42.8207 ,1.07213 ,1.71551 ,16.83257 
229 ,42.9968 ,1.07388 ,1.69498 ,16.63110 
230 ,43.1728 ,1.07565 ,1.67786 ,16.46321 
231 ,43.3490 ,1.07741 ,1.67444 ,16.42963 
232 ,43.5571 ,1.07947 ,1.65733 ,16.26174 
233 ,43.7492 ,1.08143 ,1.64707 ,16.16101 
234 ,43.9252 ,1.08317 ,1.63338 ,16.02669 
235 ,44.1013 ,1.08493 ,1.62653 ,15.95954 
236 ,44.2774 ,1.08665 ,1.58889 ,15.59018 
237 ,44.4533 ,1.08846 ,1.57862 ,15.48944 
238 ,44.6455 ,1.09031 ,1.58547 ,15.55660 
239 ,44.8535 ,1.09239 ,1.56493 ,15.35513 
240 ,45.0458 ,1.09427 ,1.56493 ,15.35513 
241 ,45.2378 ,1.09624 ,1.52729 ,14.98577 
242 ,45.4138 ,1.09805 ,1.52729 ,14.98577 
243 ,45.6060 ,1.09989 ,1.50676 ,14.78430 
244 ,45.8139 ,1.10197 ,1.48622 ,14.58283 
245 ,45.9902 ,1.10384 ,1.47938 ,14.51567 
246 ,46.1819 ,1.10566 ,1.46911 ,14.41493 
247 ,46.3904 ,1.10776 ,1.45542 ,14.28062 
248 ,46.5985 ,1.10987 ,1.43489 ,14.07915 
249 ,46.7904 ,1.11177 ,1.42805 ,14.01199 
250 ,46.9668 ,1.11360 ,1.41094 ,13.84410 
251 ,47.1427 ,1.11531 ,1.40067 ,13.74337 
252 ,47.3346 ,1.11722 ,1.38356 ,13.57548 
253 ,47.5588 ,1.11932 ,1.38356 ,13.57548 
254 ,47.7508 ,1.12146 ,1.35276 ,13.27327 
255 ,47.9430 ,1.12329 ,1.34591 ,13.20612 
256 ,48.1188 ,1.12515 ,1.31854 ,12.93749 
257 ,48.2950 ,1.12685 ,1.30143 ,12.76960 
258 ,48.4871 ,1.12873 ,1.30827 ,12.83675 
259 ,48.6792 ,1.13067 ,1.27747 ,12.53455 
260 ,48.8552 ,1.13245 ,1.27747 ,12.53455 
261 ,49.0313 ,1.13420 ,1.25694 ,12.33308 
262 ,49.2074 ,1.13602 ,1.25694 ,12.33308 
263 ,49.3993 ,1.13784 ,1.24325 ,12.19877 
264 ,49.6076 ,1.13998 ,1.22614 ,12.03088 
265 ,49.8156 ,1.14195 ,1.20903 ,11.86298 
266 ,49.9917 ,1.14380 ,1.19534 ,11.72867 
267 ,50.1679 ,1.14558 ,1.18850 ,11.66151 
268 ,50.3603 ,1.14748 ,1.17138 ,11.49362 
269 ,50.5514 ,1.14933 ,1.17138 ,11.49362 
270 ,50.7280 ,1.15118 ,1.14743 ,11.25857 
271 ,50.9200 ,1.15312 ,1.14743 ,11.25857 
272 ,51.0960 ,1.15488 ,1.10979 ,10.88921 
273 ,51.2881 ,1.15677 ,1.11321 ,10.92279 
274 ,51.4803 ,1.15861 ,1.10294 ,10.82206 
275 ,51.6402 ,1.16040 ,1.07556 ,10.55343 
276 ,51.8164 ,1.16202 ,1.07556 ,10.55343 
277 ,51.9926 ,1.16383 ,1.05845 ,10.38554 
278 ,52.1688 ,1.16558 ,1.04819 ,10.28480 
279 ,52.3606 ,1.16752 ,1.04476 ,10.25123 
280 ,52.5370 ,1.16930 ,1.01054 ,9.91544 
281 ,52.7444 ,1.17128 ,1.01396 ,9.94902 
282 ,52.9204 ,1.17317 ,1.00028 ,9.81471 
283 ,53.0966 ,1.17488 ,0.99001 ,9.71397 
284 ,53.2885 ,1.17670 ,0.97632 ,9.57966 
285 ,53.4807 ,1.17864 ,0.97632 ,9.57966 
286 ,53.6731 ,1.18061 ,0.94552 ,9.27745 
287 ,53.8814 ,1.18266 ,0.95237 ,9.34461 
288 ,54.0895 ,1.18477 ,0.91814 ,9.00883 
289 ,54.2815 ,1.18661 ,0.92841 ,9.10956 
290 ,54.4735 ,1.18853 ,0.90103 ,8.84094 
291 ,54.6496 ,1.19034 ,0.90103 ,8.84094 
292 ,54.8093 ,1.19212 ,0.88734 ,8.70662 
293 ,54.9858 ,1.19378 ,0.87023 ,8.53873 
294 ,55.1779 ,1.19569 ,0.85997 ,8.43800 
295 ,55.3859 ,1.19770 ,0.84628 ,8.30368 
296 ,55.5781 ,1.19967 ,0.83259 ,8.16937 
297 ,55.7862 ,1.20165 ,0.83259 ,8.16937 
298 ,55.9942 ,1.20374 ,0.79837 ,7.83359 
299 ,56.1702 ,1.20557 ,0.78126 ,7.66570 
300 ,56.3464 ,1.20735 ,0.80179 ,7.86717 
301 ,56.5223 ,1.20907 ,0.77441 ,7.59854 
302 ,56.6983 ,1.21088 ,0.75388 ,7.39707 
303 ,56.8906 ,1.21279 ,0.74704 ,7.32991 
304 ,57.0823 ,1.21463 ,0.74361 ,7.29633 
305 ,57.2588 ,1.21646 ,0.72308 ,7.09486 
306 ,57.4346 ,1.21821 ,0.71966 ,7.06129 
307 ,57.6428 ,1.22015 ,0.69570 ,6.82624 
308 ,57.8507 ,1.22231 ,0.69228 ,6.79266 
309 ,58.0427 ,1.22422 ,0.67175 ,6.59119 
310 ,58.2348 ,1.22614 ,0.65806 ,6.45688 
311 ,58.4272 ,1.22814 ,0.64779 ,6.35614 
312 ,58.6031 ,1.22990 ,0.63410 ,6.22183 
313 ,58.8274 ,1.23196 ,0.63410 ,6.22183 
314 ,59.0033 ,1.23391 ,0.62042 ,6.08752 
315 ,59.1791 ,1.23564 ,0.60673 ,5.95320 
316 ,59.3716 ,1.23747 ,0.58619 ,5.75173 
317 ,59.5793 ,1.23956 ,0.57251 ,5.61742 
318 ,59.7558 ,1.24147 ,0.55539 ,5.44953 
319 ,59.9639 ,1.24346 ,0.55882 ,5.48311 
320 ,60.1558 ,1.24534 ,0.54171 ,5.31522 
321 ,60.3320 ,1.24725 ,0.54513 ,5.34879 
322 ,60.5080 ,1.24902 ,0.53144 ,5.21448 
323 ,60.6841 ,1.25070 ,0.51775 ,5.08017 
324 ,60.8924 ,1.25274 ,0.50406 ,4.94585 
325 ,61.0682 ,1.25456 ,0.49722 ,4.87870 
326 ,61.2440 ,1.25630 ,0.49037 ,4.81154 
327 ,61.4205 ,1.25805 ,0.49037 ,4.81154 
328 ,61.6283 ,1.26006 ,0.45957 ,4.50934 
329 ,61.8207 ,1.26197 ,0.45615 ,4.47576 
330 ,62.0127 ,1.26396 ,0.42535 ,4.17355 
331 ,62.1887 ,1.26576 ,0.41851 ,4.10640 
332 ,62.3645 ,1.26749 ,0.41851 ,4.10640 
333 ,62.5408 ,1.26933 ,0.39455 ,3.87135 
334 ,62.7170 ,1.27100 ,0.38086 ,3.73703 
335 ,62.9250 ,1.27296 ,0.38086 ,3.73703 
336 ,63.1172 ,1.27494 ,0.36718 ,3.60272 
337 ,63.2930 ,1.27686 ,0.37060 ,3.63630 
338 ,63.4690 ,1.27852 ,0.35006 ,3.43483 
339 ,63.6614 ,1.28038 ,0.32611 ,3.19978 
340 ,63.8535 ,1.28239 ,0.30558 ,2.99831 
341 ,64.0293 ,1.28414 ,0.32269 ,3.16620 
342 ,64.2215 ,1.28610 ,0.31242 ,3.06547 
343 ,64.3974 ,1.28784 ,0.28847 ,2.83042 
344 ,64.5892 ,1.28984 ,0.28504 ,2.79684 
345 ,64.7657 ,1.29150 ,0.28847 ,2.83042 
346 ,64.9419 ,1.29325 ,0.25082 ,2.46106 
347 ,65.1496 ,1.29529 ,0.24740 ,2.42748 
348 ,65.3261 ,1.29712 ,0.25082 ,2.46106 
349 ,65.5182 ,1.29896 ,0.21660 ,2.12528 
350 ,65.7102 ,1.30088 ,0.21318 ,2.09170 
351 ,65.8863 ,1.30268 ,0.22344 ,2.19243 
352 ,66.0783 ,1.30459 ,0.18238 ,1.78949 
353 ,66.2543 ,1.30633 ,0.16869 ,1.65518 
354 ,66.4304 ,1.30814 ,0.17896 ,1.75592 
355 ,66.6065 ,1.30989 ,0.16527 ,1.62160 
356 ,66.7666 ,1.31164 ,0.15842 ,1.55445 
357 ,66.9428 ,1.31324 ,0.14473 ,1.42013 
358 ,67.1344 ,1.31511 ,0.13447 ,1.31940 
359 ,67.3108 ,1.31699 ,0.13105 ,1.28582 
360 ,67.4866 ,1.31869 ,0.11736 ,1.15151 
361 ,67.6789 ,1.32055 ,0.08998 ,0.88288 
362 ,67.8387 ,1.32229 ,0.08314 ,0.81572 
363 ,68.0152 ,1.32399 ,0.08314 ,0.81572 
364 ,68.1913 ,1.32576 ,0.07629 ,0.74857 
365 ,68.3994 ,1.32780 ,0.05234 ,0.51352 
366 ,68.6234 ,1.32990 ,0.05918 ,0.58067 
367 ,68.8151 ,1.33191 ,0.02496 ,0.24489 
368 ,68.9916 ,1.33379 ,0.03180 ,0.31205 
369 ,69.1995 ,1.33575 ,-0.00242 ,-0.02373 
370 ,69.3756 ,1.33754 ,-0.01611 ,-0.15805 
371 ,69.5678 ,1.33942 ,-0.00926 ,-0.09089 
372 ,69.7599 ,1.34135 ,-0.01269 ,-0.12447 
373 ,69.9518 ,1.34333 ,-0.01953 ,-0.19163 
374 ,70.1439 ,1.34518 ,-0.04691 ,-0.46025 
375 ,70.3200 ,1.34707 ,-0.04691 ,-0.46025 
376 ,70.4960 ,1.34881 ,-0.07086 ,-0.69530 
377 ,70.6725 ,1.35053 ,-0.06744 ,-0.66172 
378 ,70.8643 ,1.35239 ,-0.07771 ,-0.76246 
379 ,71.0402 ,1.35423 ,-0.08113 ,-0.79604 
380 ,71.2325 ,1.35610 ,-0.09824 ,-0.96393 
381 ,71.4405 ,1.35818 ,-0.11193 ,-1.09824 
382 ,71.6163 ,1.35997 ,-0.13246 ,-1.29971 
383 ,71.8086 ,1.36178 ,-0.13588 ,-1.33329 
384 ,72.0008 ,1.36384 ,-0.13931 ,-1.36687 
385 ,72.2089 ,1.36577 ,-0.16326 ,-1.60191 
386 ,72.4008 ,1.36789 ,-0.17695 ,-1.73623 
387 ,72.5769 ,1.36955 ,-0.17353 ,-1.70265 
388 ,72.7532 ,1.37133 ,-0.18379 ,-1.80338 
389 ,72.9450 ,1.37319 ,-0.19406 ,-1.90412 
390 ,73.1048 ,1.37499 ,-0.20433 ,-2.00485 
391 ,73.2970 ,1.37673 ,-0.21459 ,-2.10559 
392 ,73.4894 ,1.37863 ,-0.21459 ,-2.10559 
393 ,73.6812 ,1.38058 ,-0.23170 ,-2.27348 
394 ,73.8735 ,1.38246 ,-0.24197 ,-2.37422 
395 ,74.0492 ,1.38428 ,-0.24197 ,-2.37422 
396 ,74.2091 ,1.38603 ,-0.24197 ,-2.37422 
397 ,74.3857 ,1.38767 ,-0.26250 ,-2.57569 
398 ,74.6097 ,1.38978 ,-0.28304 ,-2.77716 
399 ,74.7858 ,1.39166 ,-0.28304 ,-2.77716 
400 ,74.9618 ,1.39344 ,-0.30015 ,-2.94505 
401 ,75.1380 ,1.39520 ,-0.31726 ,-3.11294 
402 ,75.3296 ,1.39708 ,-0.30357 ,-2.97863 
403 ,75.5061 ,1.39887 ,-0.32752 ,-3.21367 
404 ,75.6820 ,1.40059 ,-0.34464 ,-3.38156 
405 ,75.8903 ,1.40268 ,-0.36517 ,-3.58303 
406 ,76.0823 ,1.40457 ,-0.37201 ,-3.65019 
407 ,76.2584 ,1.40641 ,-0.37201 ,-3.65019 
408 ,76.4503 ,1.40819 ,-0.37201 ,-3.65019 
409 ,76.6262 ,1.41008 ,-0.38570 ,-3.78450 
410 ,76.8028 ,1.41182 ,-0.38228 ,-3.75093 
411 ,77.0265 ,1.41389 ,-0.38570 ,-3.78450 
412 ,77.2189 ,1.41591 ,-0.41992 ,-4.12029 
413 ,77.3946 ,1.41772 ,-0.43703 ,-4.28818 
414 ,77.6030 ,1.41981 ,-0.42677 ,-4.18744 
415 ,77.7950 ,1.42173 ,-0.44730 ,-4.38891 
416 ,77.9714 ,1.42349 ,-0.45414 ,-4.45607 
417 ,78.1634 ,1.42542 ,-0.46099 ,-4.52323 
418 ,78.3715 ,1.42737 ,-0.47126 ,-4.62396 
419 ,78.5633 ,1.42943 ,-0.46441 ,-4.55681 
420 ,78.7396 ,1.43119 ,-0.49179 ,-4.82543 
421 ,78.9316 ,1.43305 ,-0.48494 ,-4.75828 
422 ,79.1074 ,1.43488 ,-0.49863 ,-4.89259 
423 ,79.2837 ,1.43665 ,-0.49521 ,-4.85901 
424 ,79.4756 ,1.43851 ,-0.52943 ,-5.19479 
425 ,79.6517 ,1.44027 ,-0.52943 ,-5.19479 
426 ,79.8278 ,1.44208 ,-0.53628 ,-5.26195 
427 ,80.0041 ,1.44380 ,-0.53285 ,-5.22837 
428 ,80.1961 ,1.44566 ,-0.56365 ,-5.53058 
429 ,80.3882 ,1.44772 ,-0.56023 ,-5.49700 
430 ,80.5802 ,1.44952 ,-0.59103 ,-5.79920 
431 ,80.7563 ,1.45135 ,-0.59103 ,-5.79920 
432 ,80.9483 ,1.45327 ,-0.58419 ,-5.73205 
433 ,81.1405 ,1.45506 ,-0.59103 ,-5.79920 
434 ,81.3486 ,1.45715 ,-0.60130 ,-5.89994 
435 ,81.5406 ,1.45922 ,-0.62183 ,-6.10141 
436 ,81.7323 ,1.46107 ,-0.62183 ,-6.10141 
437 ,81.9247 ,1.46293 ,-0.64579 ,-6.33646 
438 ,82.1328 ,1.46508 ,-0.64236 ,-6.30288 
439 ,82.3086 ,1.46687 ,-0.64236 ,-6.30288 
440 ,82.5007 ,1.46874 ,-0.66974 ,-6.57150 
441 ,82.6771 ,1.47051 ,-0.69027 ,-6.77297 
442 ,82.8690 ,1.47245 ,-0.67316 ,-6.60508 
443 ,83.0291 ,1.47417 ,-0.68343 ,-6.70582 
444 ,83.2053 ,1.47585 ,-0.68001 ,-6.67224 
445 ,83.3814 ,1.47757 ,-0.70054 ,-6.87371 
446 ,83.5895 ,1.47957 ,-0.72107 ,-7.07518 
447 ,83.7976 ,1.48163 ,-0.71081 ,-6.97444 
448 ,83.9896 ,1.48378 ,-0.71423 ,-7.00802 
449 ,84.1814 ,1.48553 ,-0.74161 ,-7.27665 
450 ,84.3577 ,1.48736 ,-0.74845 ,-7.34380 
451 ,84.5337 ,1.48907 ,-0.75187 ,-7.37738 
452 ,84.7099 ,1.49085 ,-0.77241 ,-7.57885 
453 ,84.8860 ,1.49260 ,-0.76898 ,-7.54527 
454 ,85.0780 ,1.49453 ,-0.77241 ,-7.57885 
455 ,85.2700 ,1.49644 ,-0.77583 ,-7.61243 
456 ,85.4463 ,1.49827 ,-0.78267 ,-7.67959 
457 ,85.6541 ,1.50023 ,-0.81005 ,-7.94821 
458 ,85.8464 ,1.50213 ,-0.77925 ,-7.64601 
459 ,86.0380 ,1.50404 ,-0.83401 ,-8.18326 
460 ,86.2146 ,1.50595 ,-0.82374 ,-8.08253 
461 ,86.4065 ,1.50780 ,-0.83401 ,-8.18326 
462 ,86.5985 ,1.50969 ,-0.85454 ,-8.38473 
463 ,86.7906 ,1.51168 ,-0.85796 ,-8.41831 
