Data stamp = , 21-04-2022 09:17:21 334

Calibration Values: 
Slope = , 26.54 , g/V 
Offset Voltage at no contact = , -0.501760 , V 

No , Time , Stage Position ,   Mass , Force 
   ,  (s) ,      (mm)      ,   (g)  , (mN)  

1 ,0.0000 ,0.64940 ,5.25403 ,51.55254 
2 ,0.2127 ,0.64949 ,5.24718 ,51.48538 
3 ,0.5332 ,0.65030 ,5.27114 ,51.72043 
4 ,0.7411 ,0.65182 ,5.27798 ,51.78758 
5 ,0.9335 ,0.65348 ,5.24718 ,51.48538 
6 ,1.1255 ,0.65538 ,5.28483 ,51.85474 
7 ,1.3174 ,0.65718 ,5.25061 ,51.51896 
8 ,1.4932 ,0.65909 ,5.26087 ,51.61969 
9 ,1.6697 ,0.66081 ,5.25745 ,51.58611 
10 ,1.8613 ,0.66266 ,5.23692 ,51.38464 
11 ,2.0372 ,0.66462 ,5.22323 ,51.25033 
12 ,2.2294 ,0.66638 ,5.23350 ,51.35107 
13 ,2.4058 ,0.66825 ,5.20612 ,51.08244 
14 ,2.6300 ,0.67045 ,5.17532 ,50.78023 
15 ,2.8059 ,0.67224 ,5.17532 ,50.78023 
16 ,2.9818 ,0.67394 ,5.14452 ,50.47803 
17 ,3.1583 ,0.67577 ,5.11372 ,50.17583 
18 ,3.3503 ,0.67766 ,5.09319 ,49.97436 
19 ,3.5422 ,0.67954 ,5.08977 ,49.94078 
20 ,3.7341 ,0.68141 ,5.06581 ,49.70573 
21 ,3.9106 ,0.68323 ,5.05897 ,49.63857 
22 ,4.1024 ,0.68508 ,5.02817 ,49.33637 
23 ,4.2946 ,0.68702 ,5.01448 ,49.20205 
24 ,4.4708 ,0.68884 ,4.99394 ,49.00058 
25 ,4.6467 ,0.69056 ,4.99052 ,48.96701 
26 ,4.8230 ,0.69241 ,4.98026 ,48.86627 
27 ,5.0146 ,0.69429 ,4.93577 ,48.42975 
28 ,5.1909 ,0.69606 ,4.93577 ,48.42975 
29 ,5.4150 ,0.69813 ,4.91181 ,48.19471 
30 ,5.5913 ,0.70005 ,4.89128 ,47.99324 
31 ,5.7830 ,0.70203 ,4.86732 ,47.75819 
32 ,5.9594 ,0.70374 ,4.83652 ,47.45598 
33 ,6.1351 ,0.70553 ,4.85021 ,47.59030 
34 ,6.3115 ,0.70725 ,4.82626 ,47.35525 
35 ,6.4872 ,0.70904 ,4.81599 ,47.25451 
36 ,6.6633 ,0.71075 ,4.78519 ,46.95231 
37 ,6.8395 ,0.71254 ,4.76124 ,46.71726 
38 ,7.0319 ,0.71448 ,4.75782 ,46.68368 
39 ,7.2235 ,0.71637 ,4.73044 ,46.41506 
40 ,7.4000 ,0.71815 ,4.71675 ,46.28074 
41 ,7.5918 ,0.72008 ,4.69622 ,46.07927 
42 ,7.7682 ,0.72181 ,4.69279 ,46.04569 
43 ,7.9600 ,0.72375 ,4.64831 ,45.60918 
44 ,8.1524 ,0.72566 ,4.64146 ,45.54202 
45 ,8.3444 ,0.72750 ,4.63119 ,45.44128 
46 ,8.5364 ,0.72952 ,4.59697 ,45.10550 
47 ,8.7125 ,0.73127 ,4.59697 ,45.10550 
48 ,8.9045 ,0.73311 ,4.57986 ,44.93761 
49 ,9.0967 ,0.73503 ,4.55591 ,44.70256 
50 ,9.2887 ,0.73703 ,4.55249 ,44.66898 
51 ,9.4488 ,0.73873 ,4.54906 ,44.63541 
52 ,9.6244 ,0.74038 ,4.53880 ,44.53467 
53 ,9.8010 ,0.74213 ,4.49773 ,44.13173 
54 ,9.9930 ,0.74395 ,4.49089 ,44.06457 
55 ,10.1692 ,0.74580 ,4.47035 ,43.86310 
56 ,10.3613 ,0.74764 ,4.43955 ,43.56090 
57 ,10.5373 ,0.74953 ,4.41902 ,43.35943 
58 ,10.7291 ,0.75140 ,4.41902 ,43.35943 
59 ,10.9054 ,0.75318 ,4.40191 ,43.19154 
60 ,11.0973 ,0.75509 ,4.37795 ,42.95649 
61 ,11.2895 ,0.75703 ,4.36769 ,42.85576 
62 ,11.4655 ,0.75876 ,4.34716 ,42.65429 
63 ,11.6416 ,0.76060 ,4.31636 ,42.35208 
64 ,11.8339 ,0.76240 ,4.31636 ,42.35208 
65 ,12.0098 ,0.76424 ,4.30951 ,42.28492 
66 ,12.1859 ,0.76597 ,4.26502 ,41.84841 
67 ,12.3779 ,0.76790 ,4.25133 ,41.71409 
68 ,12.5538 ,0.76965 ,4.23765 ,41.57978 
69 ,12.7461 ,0.77154 ,4.23080 ,41.51262 
70 ,12.9383 ,0.77354 ,4.18974 ,41.10968 
71 ,13.1139 ,0.77526 ,4.18289 ,41.04253 
72 ,13.2904 ,0.77702 ,4.18974 ,41.10968 
73 ,13.4824 ,0.77886 ,4.14525 ,40.67317 
74 ,13.6742 ,0.78081 ,4.14867 ,40.70674 
75 ,13.8506 ,0.78262 ,4.14183 ,40.63959 
76 ,14.0584 ,0.78460 ,4.09049 ,40.13591 
77 ,14.2507 ,0.78656 ,4.08707 ,40.10233 
78 ,14.4269 ,0.78838 ,4.08023 ,40.03518 
79 ,14.6030 ,0.79010 ,4.05627 ,39.80013 
80 ,14.8110 ,0.79215 ,4.04943 ,39.73297 
81 ,15.0032 ,0.79406 ,4.02889 ,39.53150 
82 ,15.1952 ,0.79597 ,3.99467 ,39.19572 
83 ,15.3872 ,0.79790 ,3.98783 ,39.12856 
84 ,15.5793 ,0.79991 ,3.96729 ,38.92709 
85 ,15.7711 ,0.80174 ,3.95361 ,38.79278 
86 ,15.9475 ,0.80359 ,3.93992 ,38.65847 
87 ,16.1393 ,0.80552 ,3.90912 ,38.35626 
88 ,16.3477 ,0.80749 ,3.89201 ,38.18837 
89 ,16.5394 ,0.80942 ,3.87832 ,38.05406 
90 ,16.7477 ,0.81147 ,3.86805 ,37.95332 
91 ,16.9239 ,0.81333 ,3.84410 ,37.71828 
92 ,17.1160 ,0.81528 ,3.83041 ,37.58396 
93 ,17.3080 ,0.81719 ,3.82014 ,37.48323 
94 ,17.4839 ,0.81888 ,3.79619 ,37.24818 
95 ,17.6600 ,0.82071 ,3.76196 ,36.91240 
96 ,17.8522 ,0.82259 ,3.76881 ,36.97955 
97 ,18.0440 ,0.82448 ,3.73117 ,36.61019 
98 ,18.2363 ,0.82642 ,3.72090 ,36.50946 
99 ,18.4125 ,0.82823 ,3.70379 ,36.34157 
100 ,18.6045 ,0.83006 ,3.68668 ,36.17367 
101 ,18.7966 ,0.83197 ,3.68668 ,36.17367 
102 ,18.9885 ,0.83398 ,3.67299 ,36.03936 
103 ,19.1807 ,0.83584 ,3.62508 ,35.56926 
104 ,19.3727 ,0.83780 ,3.61823 ,35.50211 
105 ,19.5488 ,0.83955 ,3.60797 ,35.40137 
106 ,19.7408 ,0.84151 ,3.57375 ,35.06559 
107 ,19.9170 ,0.84325 ,3.56690 ,34.99843 
108 ,20.0927 ,0.84500 ,3.55663 ,34.89770 
109 ,20.2852 ,0.84684 ,3.54637 ,34.79696 
110 ,20.4932 ,0.84894 ,3.52584 ,34.59549 
111 ,20.6694 ,0.85076 ,3.52241 ,34.56192 
112 ,20.8452 ,0.85252 ,3.49504 ,34.29329 
113 ,21.0377 ,0.85438 ,3.47792 ,34.12540 
114 ,21.2296 ,0.85630 ,3.45739 ,33.92393 
115 ,21.4057 ,0.85815 ,3.44028 ,33.75604 
116 ,21.5977 ,0.86003 ,3.41290 ,33.48741 
117 ,21.7738 ,0.86182 ,3.41290 ,33.48741 
118 ,21.9659 ,0.86366 ,3.36157 ,32.98374 
119 ,22.1581 ,0.86557 ,3.38895 ,33.25236 
120 ,22.3339 ,0.86754 ,3.36842 ,33.05089 
121 ,22.5263 ,0.86926 ,3.32735 ,32.64795 
122 ,22.7183 ,0.87118 ,3.31366 ,32.51364 
123 ,22.9104 ,0.87319 ,3.31024 ,32.48006 
124 ,23.0860 ,0.87497 ,3.28628 ,32.24501 
125 ,23.2625 ,0.87676 ,3.27602 ,32.14428 
126 ,23.4542 ,0.87854 ,3.26917 ,32.07712 
127 ,23.6465 ,0.88051 ,3.24522 ,31.84207 
128 ,23.8545 ,0.88252 ,3.21442 ,31.53987 
129 ,24.0310 ,0.88440 ,3.21442 ,31.53987 
130 ,24.2227 ,0.88624 ,3.18362 ,31.23766 
131 ,24.3985 ,0.88815 ,3.18362 ,31.23766 
132 ,24.5750 ,0.88979 ,3.16309 ,31.03619 
133 ,24.7832 ,0.89185 ,3.12886 ,30.70041 
134 ,24.9751 ,0.89382 ,3.12886 ,30.70041 
135 ,25.1672 ,0.89576 ,3.10833 ,30.49894 
136 ,25.3591 ,0.89762 ,3.08438 ,30.26389 
137 ,25.5352 ,0.89952 ,3.08095 ,30.23031 
138 ,25.7275 ,0.90127 ,3.06384 ,30.06242 
139 ,25.9196 ,0.90328 ,3.03304 ,29.76022 
140 ,26.1115 ,0.90507 ,3.02962 ,29.72664 
141 ,26.3035 ,0.90712 ,3.00567 ,29.49159 
142 ,26.4954 ,0.90893 ,2.98171 ,29.25654 
143 ,26.6879 ,0.91090 ,2.96460 ,29.08865 
144 ,26.8959 ,0.91298 ,2.95091 ,28.95434 
145 ,27.0721 ,0.91478 ,2.93380 ,28.78645 
146 ,27.2801 ,0.91670 ,2.92011 ,28.65213 
147 ,27.4562 ,0.91865 ,2.90985 ,28.55140 
148 ,27.6478 ,0.92046 ,2.87905 ,28.24919 
149 ,27.8244 ,0.92233 ,2.86536 ,28.11488 
150 ,28.0165 ,0.92408 ,2.84825 ,27.94699 
151 ,28.1923 ,0.92594 ,2.84482 ,27.91341 
152 ,28.3687 ,0.92778 ,2.82771 ,27.74552 
153 ,28.5446 ,0.92954 ,2.81745 ,27.64479 
154 ,28.7204 ,0.93122 ,2.78665 ,27.34258 
155 ,28.8968 ,0.93304 ,2.77980 ,27.27542 
156 ,29.0889 ,0.93495 ,2.76269 ,27.10753 
157 ,29.2811 ,0.93680 ,2.73531 ,26.83891 
158 ,29.4571 ,0.93862 ,2.73189 ,26.80533 
159 ,29.6489 ,0.94052 ,2.72163 ,26.70459 
160 ,29.8090 ,0.94227 ,2.70109 ,26.50312 
161 ,29.9851 ,0.94388 ,2.68398 ,26.33523 
162 ,30.1774 ,0.94569 ,2.67029 ,26.20092 
163 ,30.3692 ,0.94775 ,2.66687 ,26.16734 
164 ,30.5615 ,0.94961 ,2.62238 ,25.73082 
165 ,30.7534 ,0.95154 ,2.63607 ,25.86514 
166 ,30.9456 ,0.95350 ,2.60527 ,25.56293 
167 ,31.1536 ,0.95552 ,2.59501 ,25.46220 
168 ,31.3299 ,0.95734 ,2.59158 ,25.42862 
169 ,31.5056 ,0.95910 ,2.55736 ,25.09283 
170 ,31.6819 ,0.96085 ,2.53341 ,24.85779 
171 ,31.8576 ,0.96263 ,2.54025 ,24.92494 
172 ,32.0342 ,0.96444 ,2.52656 ,24.79063 
173 ,32.2102 ,0.96616 ,2.51972 ,24.72347 
174 ,32.4021 ,0.96799 ,2.47181 ,24.25338 
175 ,32.5782 ,0.96981 ,2.45812 ,24.11906 
176 ,32.7700 ,0.97172 ,2.46154 ,24.15264 
177 ,32.9460 ,0.97350 ,2.44443 ,23.98475 
178 ,33.1384 ,0.97537 ,2.43416 ,23.88402 
179 ,33.3466 ,0.97741 ,2.41021 ,23.64897 
180 ,33.5383 ,0.97936 ,2.39652 ,23.51465 
181 ,33.7148 ,0.98117 ,2.39310 ,23.48108 
182 ,33.9229 ,0.98311 ,2.36914 ,23.24603 
183 ,34.1148 ,0.98509 ,2.36230 ,23.17887 
184 ,34.3070 ,0.98716 ,2.33492 ,22.91024 
185 ,34.4828 ,0.98885 ,2.31439 ,22.70877 
186 ,34.6589 ,0.99064 ,2.30412 ,22.60804 
187 ,34.8513 ,0.99258 ,2.30754 ,22.64162 
188 ,35.0428 ,0.99443 ,2.26990 ,22.27226 
189 ,35.2193 ,0.99618 ,2.24937 ,22.07079 
190 ,35.4270 ,0.99825 ,2.23910 ,21.97005 
191 ,35.6034 ,0.99999 ,2.21857 ,21.76858 
192 ,35.7796 ,1.00184 ,2.21172 ,21.70143 
193 ,35.9557 ,1.00357 ,2.22199 ,21.80216 
194 ,36.1473 ,1.00548 ,2.18092 ,21.39922 
195 ,36.3078 ,1.00723 ,2.17066 ,21.29849 
196 ,36.4999 ,1.00899 ,2.15012 ,21.09702 
197 ,36.6759 ,1.01082 ,2.15012 ,21.09702 
198 ,36.8521 ,1.01255 ,2.15012 ,21.09702 
199 ,37.0601 ,1.01456 ,2.12275 ,20.82839 
200 ,37.2358 ,1.01640 ,2.09537 ,20.55976 
201 ,37.4280 ,1.01826 ,2.08852 ,20.49261 
202 ,37.6043 ,1.02007 ,2.07826 ,20.39187 
203 ,37.7964 ,1.02188 ,2.07826 ,20.39187 
204 ,37.9885 ,1.02390 ,2.06115 ,20.22398 
205 ,38.1966 ,1.02593 ,2.03377 ,19.95535 
206 ,38.3886 ,1.02796 ,2.01324 ,19.75388 
207 ,38.5641 ,1.02966 ,2.01324 ,19.75388 
208 ,38.7243 ,1.03138 ,1.98244 ,19.45168 
209 ,38.9004 ,1.03300 ,1.95848 ,19.21663 
210 ,39.0764 ,1.03476 ,1.94822 ,19.11590 
211 ,39.2848 ,1.03672 ,1.95164 ,19.14948 
212 ,39.4930 ,1.03890 ,1.93795 ,19.01516 
213 ,39.6852 ,1.04080 ,1.91399 ,18.78011 
214 ,39.8772 ,1.04282 ,1.89346 ,18.57864 
215 ,40.0694 ,1.04469 ,1.89004 ,18.54507 
216 ,40.2613 ,1.04655 ,1.86951 ,18.34360 
217 ,40.4372 ,1.04838 ,1.83871 ,18.04139 
218 ,40.6296 ,1.05024 ,1.85240 ,18.17570 
219 ,40.8376 ,1.05238 ,1.81475 ,17.80634 
220 ,41.0292 ,1.05424 ,1.81817 ,17.83992 
221 ,41.2217 ,1.05620 ,1.79080 ,17.57129 
222 ,41.4301 ,1.05826 ,1.78737 ,17.53772 
223 ,41.6216 ,1.06014 ,1.77026 ,17.36983 
224 ,41.8140 ,1.06208 ,1.75657 ,17.23551 
225 ,42.0062 ,1.06399 ,1.71893 ,16.86615 
226 ,42.2142 ,1.06614 ,1.73604 ,17.03404 
227 ,42.4064 ,1.06799 ,1.71551 ,16.83257 
228 ,42.5823 ,1.06986 ,1.69498 ,16.63110 
229 ,42.7745 ,1.07167 ,1.69498 ,16.63110 
230 ,42.9663 ,1.07369 ,1.68813 ,16.56395 
231 ,43.1745 ,1.07569 ,1.66418 ,16.32890 
232 ,43.3507 ,1.07748 ,1.65049 ,16.19458 
233 ,43.5424 ,1.07936 ,1.62311 ,15.92596 
234 ,43.7185 ,1.08116 ,1.60600 ,15.75807 
235 ,43.9108 ,1.08301 ,1.58889 ,15.59018 
236 ,44.0711 ,1.08477 ,1.59573 ,15.65733 
237 ,44.2629 ,1.08655 ,1.56836 ,15.38871 
238 ,44.4391 ,1.08839 ,1.55467 ,15.25439 
239 ,44.6152 ,1.09014 ,1.53756 ,15.08650 
240 ,44.7908 ,1.09199 ,1.54098 ,15.12008 
241 ,44.9675 ,1.09368 ,1.53756 ,15.08650 
242 ,45.1434 ,1.09548 ,1.50333 ,14.75072 
243 ,45.3194 ,1.09719 ,1.49307 ,14.64998 
244 ,45.4956 ,1.09890 ,1.49649 ,14.68356 
245 ,45.7032 ,1.10095 ,1.47253 ,14.44851 
246 ,45.8797 ,1.10277 ,1.44516 ,14.17989 
247 ,46.0558 ,1.10455 ,1.43489 ,14.07915 
248 ,46.2317 ,1.10627 ,1.44858 ,14.21346 
249 ,46.4080 ,1.10809 ,1.42805 ,14.01199 
250 ,46.5840 ,1.10980 ,1.41778 ,13.91126 
251 ,46.7762 ,1.11179 ,1.39725 ,13.70979 
252 ,46.9680 ,1.11360 ,1.37671 ,13.50832 
253 ,47.1443 ,1.11538 ,1.35618 ,13.30685 
254 ,47.3524 ,1.11745 ,1.37671 ,13.50832 
255 ,47.5440 ,1.11939 ,1.32880 ,13.03822 
256 ,47.7205 ,1.12117 ,1.30827 ,12.83675 
257 ,47.9126 ,1.12303 ,1.32880 ,13.03822 
258 ,48.1046 ,1.12494 ,1.30827 ,12.83675 
259 ,48.2966 ,1.12698 ,1.28089 ,12.56813 
260 ,48.4889 ,1.12875 ,1.27405 ,12.50097 
261 ,48.6969 ,1.13084 ,1.26720 ,12.43381 
262 ,48.8729 ,1.13270 ,1.25352 ,12.29950 
263 ,49.0487 ,1.13446 ,1.25009 ,12.26592 
264 ,49.2412 ,1.13631 ,1.21245 ,11.89656 
265 ,49.4332 ,1.13826 ,1.21587 ,11.93014 
266 ,49.6094 ,1.14009 ,1.20561 ,11.82941 
267 ,49.8014 ,1.14195 ,1.17823 ,11.56078 
268 ,50.0095 ,1.14399 ,1.18507 ,11.62794 
269 ,50.1854 ,1.14581 ,1.15085 ,11.29215 
270 ,50.3617 ,1.14756 ,1.14401 ,11.22500 
271 ,50.5534 ,1.14944 ,1.15085 ,11.29215 
272 ,50.7299 ,1.15127 ,1.14058 ,11.19142 
273 ,50.9219 ,1.15312 ,1.10294 ,10.82206 
274 ,51.0980 ,1.15497 ,1.08925 ,10.68774 
275 ,51.2900 ,1.15679 ,1.08241 ,10.62059 
276 ,51.4982 ,1.15882 ,1.06872 ,10.48627 
277 ,51.6902 ,1.16083 ,1.06530 ,10.45270 
278 ,51.8983 ,1.16282 ,1.03450 ,10.15049 
279 ,52.0744 ,1.16472 ,1.04134 ,10.21765 
280 ,52.2500 ,1.16644 ,1.04134 ,10.21765 
281 ,52.4425 ,1.16835 ,1.01739 ,9.98260 
282 ,52.6345 ,1.17030 ,0.99001 ,9.71397 
283 ,52.8266 ,1.17227 ,0.99343 ,9.74755 
284 ,53.0029 ,1.17397 ,0.96948 ,9.51250 
285 ,53.1785 ,1.17580 ,0.94894 ,9.31103 
286 ,53.3707 ,1.17771 ,0.94894 ,9.31103 
287 ,53.5465 ,1.17944 ,0.95237 ,9.34461 
288 ,53.7230 ,1.18120 ,0.92499 ,9.07598 
289 ,53.9151 ,1.18303 ,0.89761 ,8.80736 
290 ,54.1231 ,1.18505 ,0.88050 ,8.63947 
291 ,54.2992 ,1.18695 ,0.89077 ,8.74020 
292 ,54.4913 ,1.18877 ,0.88392 ,8.67305 
293 ,54.6673 ,1.19066 ,0.88392 ,8.67305 
294 ,54.8594 ,1.19257 ,0.83601 ,8.20295 
295 ,55.0513 ,1.19444 ,0.83259 ,8.16937 
296 ,55.2277 ,1.19627 ,0.82917 ,8.13579 
297 ,55.4353 ,1.19823 ,0.81890 ,8.03506 
298 ,55.6114 ,1.20008 ,0.79495 ,7.80001 
299 ,55.8199 ,1.20197 ,0.78468 ,7.69927 
300 ,56.0120 ,1.20407 ,0.77099 ,7.56496 
301 ,56.1880 ,1.20587 ,0.77441 ,7.59854 
302 ,56.3961 ,1.20785 ,0.76072 ,7.46423 
303 ,56.5717 ,1.20970 ,0.73677 ,7.22918 
304 ,56.7484 ,1.21137 ,0.72308 ,7.09486 
305 ,56.9405 ,1.21336 ,0.71281 ,6.99413 
306 ,57.1325 ,1.21522 ,0.70255 ,6.89340 
307 ,57.3084 ,1.21706 ,0.69228 ,6.79266 
308 ,57.4844 ,1.21876 ,0.66833 ,6.55761 
309 ,57.6606 ,1.22053 ,0.66833 ,6.55761 
310 ,57.8368 ,1.22232 ,0.64095 ,6.28899 
311 ,58.0128 ,1.22407 ,0.64437 ,6.32256 
312 ,58.2047 ,1.22595 ,0.63753 ,6.25541 
313 ,58.3969 ,1.22789 ,0.60673 ,5.95320 
314 ,58.5728 ,1.22964 ,0.61357 ,6.02036 
315 ,58.7490 ,1.23140 ,0.60673 ,5.95320 
316 ,58.9251 ,1.23321 ,0.59646 ,5.85247 
317 ,59.1012 ,1.23490 ,0.57251 ,5.61742 
318 ,59.2933 ,1.23677 ,0.55882 ,5.48311 
319 ,59.4854 ,1.23885 ,0.56224 ,5.51668 
320 ,59.6775 ,1.24070 ,0.53144 ,5.21448 
321 ,59.8855 ,1.24262 ,0.53144 ,5.21448 
322 ,60.1096 ,1.24488 ,0.52802 ,5.18090 
323 ,60.3018 ,1.24690 ,0.49037 ,4.81154 
324 ,60.5096 ,1.24897 ,0.49722 ,4.87870 
325 ,60.7019 ,1.25089 ,0.46984 ,4.61007 
326 ,60.8935 ,1.25275 ,0.46642 ,4.57649 
327 ,61.0697 ,1.25465 ,0.46300 ,4.54291 
328 ,61.2461 ,1.25638 ,0.44588 ,4.37502 
329 ,61.4383 ,1.25831 ,0.41851 ,4.10640 
330 ,61.6141 ,1.26004 ,0.41851 ,4.10640 
331 ,61.8224 ,1.26201 ,0.40140 ,3.93850 
332 ,62.0142 ,1.26399 ,0.39113 ,3.83777 
333 ,62.2063 ,1.26590 ,0.38429 ,3.77061 
334 ,62.4141 ,1.26787 ,0.35691 ,3.50199 
335 ,62.5902 ,1.26981 ,0.36375 ,3.56914 
336 ,62.7664 ,1.27159 ,0.37060 ,3.63630 
337 ,62.9426 ,1.27339 ,0.33638 ,3.30052 
338 ,63.1509 ,1.27539 ,0.33980 ,3.33410 
339 ,63.3590 ,1.27747 ,0.32269 ,3.16620 
340 ,63.5349 ,1.27927 ,0.29873 ,2.93116 
341 ,63.7111 ,1.28100 ,0.30558 ,2.99831 
342 ,63.8872 ,1.28278 ,0.29531 ,2.89758 
343 ,64.0789 ,1.28463 ,0.26793 ,2.62895 
344 ,64.2553 ,1.28645 ,0.26793 ,2.62895 
345 ,64.4317 ,1.28823 ,0.26109 ,2.56179 
346 ,64.6073 ,1.29000 ,0.24740 ,2.42748 
347 ,64.7835 ,1.29174 ,0.23029 ,2.25959 
348 ,64.9597 ,1.29345 ,0.21318 ,2.09170 
349 ,65.2954 ,1.29610 ,0.22002 ,2.15885 
350 ,65.4878 ,1.29870 ,0.19264 ,1.89023 
351 ,65.6799 ,1.30068 ,0.16527 ,1.62160 
352 ,65.8879 ,1.30273 ,0.16869 ,1.65518 
353 ,66.0639 ,1.30454 ,0.15842 ,1.55445 
354 ,66.2398 ,1.30635 ,0.15500 ,1.52087 
355 ,66.4162 ,1.30805 ,0.13789 ,1.35298 
356 ,66.5920 ,1.30989 ,0.13105 ,1.28582 
357 ,66.7684 ,1.31158 ,0.12762 ,1.25224 
358 ,66.9444 ,1.31330 ,0.11051 ,1.08435 
359 ,67.1363 ,1.31520 ,0.10709 ,1.05077 
360 ,67.3286 ,1.31716 ,0.10367 ,1.01719 
361 ,67.5045 ,1.31893 ,0.07287 ,0.71499 
362 ,67.6967 ,1.32081 ,0.06945 ,0.68141 
363 ,67.8730 ,1.32262 ,0.06260 ,0.61425 
364 ,68.0487 ,1.32441 ,0.05234 ,0.51352 
365 ,68.2570 ,1.32648 ,0.02838 ,0.27847 
366 ,68.4649 ,1.32843 ,0.02154 ,0.21131 
367 ,68.6572 ,1.33044 ,0.01127 ,0.11058 
368 ,68.8492 ,1.33238 ,0.01127 ,0.11058 
369 ,69.0412 ,1.33428 ,-0.01269 ,-0.12447 
370 ,69.2174 ,1.33608 ,-0.01953 ,-0.19163 
371 ,69.4090 ,1.33792 ,-0.01611 ,-0.15805 
372 ,69.5853 ,1.33974 ,-0.03664 ,-0.35952 
373 ,69.7774 ,1.34162 ,-0.04691 ,-0.46025 
374 ,69.9855 ,1.34359 ,-0.07086 ,-0.69530 
375 ,70.1616 ,1.34551 ,-0.06744 ,-0.66172 
376 ,70.3536 ,1.34734 ,-0.07771 ,-0.76246 
377 ,70.5457 ,1.34939 ,-0.09824 ,-0.96393 
378 ,70.7220 ,1.35107 ,-0.10166 ,-0.99751 
379 ,70.9141 ,1.35296 ,-0.10851 ,-1.06466 
380 ,71.1221 ,1.35506 ,-0.12219 ,-1.19898 
381 ,71.2983 ,1.35688 ,-0.13246 ,-1.29971 
382 ,71.5064 ,1.35888 ,-0.14615 ,-1.43402 
383 ,71.6823 ,1.36076 ,-0.14615 ,-1.43402 
384 ,71.8744 ,1.36267 ,-0.15299 ,-1.50118 
385 ,72.0505 ,1.36440 ,-0.15642 ,-1.53476 
386 ,72.2426 ,1.36625 ,-0.18037 ,-1.76981 
387 ,72.4348 ,1.36816 ,-0.17695 ,-1.73623 
388 ,72.6108 ,1.37000 ,-0.18379 ,-1.80338 
389 ,72.8026 ,1.37184 ,-0.21117 ,-2.07201 
390 ,72.9947 ,1.37380 ,-0.19406 ,-1.90412 
391 ,73.1711 ,1.37558 ,-0.22144 ,-2.17275 
392 ,73.3632 ,1.37740 ,-0.23513 ,-2.30706 
393 ,73.5552 ,1.37933 ,-0.23855 ,-2.34064 
394 ,73.7469 ,1.38127 ,-0.24881 ,-2.44137 
395 ,73.9233 ,1.38309 ,-0.28646 ,-2.81073 
396 ,74.0989 ,1.38487 ,-0.26935 ,-2.64284 
397 ,74.2915 ,1.38681 ,-0.26250 ,-2.57569 
398 ,74.4995 ,1.38879 ,-0.29673 ,-2.91147 
399 ,74.6757 ,1.39065 ,-0.30699 ,-3.01220 
400 ,74.8517 ,1.39243 ,-0.32068 ,-3.14652 
401 ,75.0280 ,1.39417 ,-0.32068 ,-3.14652 
402 ,75.2036 ,1.39589 ,-0.33779 ,-3.31441 
403 ,75.3800 ,1.39768 ,-0.35832 ,-3.51588 
404 ,75.5718 ,1.39963 ,-0.36175 ,-3.54946 
405 ,75.7482 ,1.40135 ,-0.35490 ,-3.48230 
406 ,75.9401 ,1.40329 ,-0.38570 ,-3.78450 
407 ,76.1162 ,1.40510 ,-0.37201 ,-3.65019 
408 ,76.3083 ,1.40686 ,-0.39255 ,-3.85166 
409 ,76.4843 ,1.40870 ,-0.40281 ,-3.95240 
410 ,76.6605 ,1.41046 ,-0.40623 ,-3.98597 
411 ,76.8526 ,1.41236 ,-0.40966 ,-4.01955 
412 ,77.0444 ,1.41424 ,-0.43703 ,-4.28818 
413 ,77.2526 ,1.41632 ,-0.43019 ,-4.22102 
414 ,77.4290 ,1.41817 ,-0.43703 ,-4.28818 
415 ,77.6208 ,1.41999 ,-0.45072 ,-4.42249 
416 ,77.7969 ,1.42182 ,-0.45757 ,-4.48965 
417 ,77.9888 ,1.42365 ,-0.46441 ,-4.55681 
418 ,78.1971 ,1.42572 ,-0.49521 ,-4.85901 
419 ,78.3892 ,1.42776 ,-0.47810 ,-4.69112 
420 ,78.5811 ,1.42960 ,-0.49863 ,-4.89259 
421 ,78.7573 ,1.43138 ,-0.50206 ,-4.92617 
422 ,78.9494 ,1.43330 ,-0.52601 ,-5.16121 
423 ,79.1249 ,1.43514 ,-0.51917 ,-5.09406 
424 ,79.3176 ,1.43695 ,-0.53970 ,-5.29553 
425 ,79.4933 ,1.43886 ,-0.54654 ,-5.36268 
426 ,79.6694 ,1.44053 ,-0.53285 ,-5.22837 
427 ,79.8458 ,1.44230 ,-0.55681 ,-5.46342 
428 ,80.0378 ,1.44413 ,-0.55681 ,-5.46342 
429 ,80.2137 ,1.44595 ,-0.55681 ,-5.46342 
430 ,80.4060 ,1.44789 ,-0.58419 ,-5.73205 
431 ,80.5981 ,1.44979 ,-0.57392 ,-5.63131 
432 ,80.7901 ,1.45167 ,-0.60814 ,-5.96709 
433 ,80.9658 ,1.45350 ,-0.61499 ,-6.03425 
434 ,81.1422 ,1.45524 ,-0.62183 ,-6.10141 
435 ,81.3341 ,1.45706 ,-0.61841 ,-6.06783 
436 ,81.5103 ,1.45891 ,-0.62183 ,-6.10141 
437 ,81.6706 ,1.46066 ,-0.64579 ,-6.33646 
438 ,81.8467 ,1.46226 ,-0.66290 ,-6.50435 
439 ,82.0389 ,1.46425 ,-0.66290 ,-6.50435 
440 ,82.2309 ,1.46608 ,-0.66290 ,-6.50435 
441 ,82.4069 ,1.46795 ,-0.68001 ,-6.67224 
442 ,82.5990 ,1.46986 ,-0.68343 ,-6.70582 
443 ,82.7750 ,1.47165 ,-0.68343 ,-6.70582 
444 ,82.9671 ,1.47355 ,-0.69370 ,-6.80655 
445 ,83.1429 ,1.47522 ,-0.71423 ,-7.00802 
446 ,83.3192 ,1.47704 ,-0.71423 ,-7.00802 
447 ,83.4953 ,1.47873 ,-0.71423 ,-7.00802 
448 ,83.6875 ,1.48072 ,-0.74161 ,-7.27665 
449 ,83.8635 ,1.48245 ,-0.74845 ,-7.34380 
450 ,84.0556 ,1.48438 ,-0.74503 ,-7.31023 
451 ,84.2475 ,1.48621 ,-0.76898 ,-7.54527 
452 ,84.4233 ,1.48805 ,-0.76898 ,-7.54527 
453 ,84.5998 ,1.48984 ,-0.76898 ,-7.54527 
454 ,84.8236 ,1.49190 ,-0.77925 ,-7.64601 
455 ,84.9999 ,1.49386 ,-0.78952 ,-7.74674 
456 ,85.1917 ,1.49569 ,-0.79636 ,-7.81390 
457 ,85.3678 ,1.49751 ,-0.83058 ,-8.14968 
458 ,85.5282 ,1.49924 ,-0.84085 ,-8.25042 
459 ,85.7038 ,1.50089 ,-0.83401 ,-8.18326 
460 ,85.8961 ,1.50274 ,-0.81347 ,-7.98179 
461 ,86.0724 ,1.50455 ,-0.82716 ,-8.11611 
462 ,86.2960 ,1.50673 ,-0.83743 ,-8.21684 
463 ,86.4724 ,1.50856 ,-0.84769 ,-8.31758 
