Data stamp = , 21-04-2022 03:01:11 178

Calibration Values: 
Slope = , 26.54 , g/V 
Offset Voltage at no contact = , -0.501760 , V 

No , Time , Stage Position ,   Mass , Force 
   ,  (s) ,      (mm)      ,   (g)  , (mN)  

1 ,0.0000 ,0.64946 ,5.26087 ,51.61969 
2 ,0.2148 ,0.64955 ,5.26087 ,51.61969 
3 ,0.6794 ,0.65092 ,5.26430 ,51.65327 
4 ,0.8873 ,0.65319 ,5.27798 ,51.78758 
5 ,1.0795 ,0.65507 ,5.25745 ,51.58611 
6 ,1.2556 ,0.65679 ,5.27114 ,51.72043 
7 ,1.4313 ,0.65854 ,5.28483 ,51.85474 
8 ,1.6080 ,0.66029 ,5.27114 ,51.72043 
9 ,1.7837 ,0.66211 ,5.24718 ,51.48538 
10 ,1.9759 ,0.66393 ,5.24034 ,51.41822 
11 ,2.1520 ,0.66580 ,5.22323 ,51.25033 
12 ,2.3281 ,0.66753 ,5.20954 ,51.11602 
13 ,2.5042 ,0.66931 ,5.18216 ,50.84739 
14 ,2.6800 ,0.67103 ,5.16505 ,50.67950 
15 ,2.8562 ,0.67282 ,5.15821 ,50.61234 
16 ,3.0480 ,0.67470 ,5.13768 ,50.41087 
17 ,3.2083 ,0.67641 ,5.12056 ,50.24298 
18 ,3.3843 ,0.67807 ,5.09319 ,49.97436 
19 ,3.5762 ,0.67995 ,5.08292 ,49.87362 
20 ,3.7526 ,0.68180 ,5.06923 ,49.73931 
21 ,3.9287 ,0.68352 ,5.05554 ,49.60499 
22 ,4.1208 ,0.68539 ,5.03159 ,49.36995 
23 ,4.3129 ,0.68731 ,5.01106 ,49.16848 
24 ,4.5209 ,0.68942 ,4.99394 ,49.00058 
25 ,4.7130 ,0.69135 ,4.98710 ,48.93343 
26 ,4.9210 ,0.69339 ,4.94946 ,48.56407 
27 ,5.0972 ,0.69521 ,4.93235 ,48.39618 
28 ,5.2728 ,0.69693 ,4.92550 ,48.32902 
29 ,5.4653 ,0.69878 ,4.90155 ,48.09397 
30 ,5.6575 ,0.70081 ,4.88786 ,47.95966 
31 ,5.8496 ,0.70267 ,4.85364 ,47.62387 
32 ,6.0255 ,0.70447 ,4.83310 ,47.42240 
33 ,6.2016 ,0.70624 ,4.82284 ,47.32167 
34 ,6.3613 ,0.70795 ,4.81941 ,47.28809 
35 ,6.5535 ,0.70976 ,4.81257 ,47.22093 
36 ,6.7459 ,0.71168 ,4.76808 ,46.78442 
37 ,6.9381 ,0.71360 ,4.76808 ,46.78442 
38 ,7.1300 ,0.71553 ,4.74755 ,46.58295 
39 ,7.3057 ,0.71725 ,4.70990 ,46.21359 
40 ,7.4822 ,0.71898 ,4.70648 ,46.18001 
41 ,7.6582 ,0.72081 ,4.68253 ,45.94496 
42 ,7.8340 ,0.72254 ,4.67226 ,45.84422 
43 ,8.0264 ,0.72441 ,4.64146 ,45.54202 
44 ,8.2344 ,0.72652 ,4.61408 ,45.27339 
45 ,8.4261 ,0.72838 ,4.62093 ,45.34055 
46 ,8.6021 ,0.73029 ,4.60724 ,45.20624 
47 ,8.7621 ,0.73196 ,4.57986 ,44.93761 
48 ,8.9384 ,0.73362 ,4.56617 ,44.80330 
49 ,9.1468 ,0.73569 ,4.53537 ,44.50109 
50 ,9.3225 ,0.73751 ,4.54564 ,44.60183 
51 ,9.4989 ,0.73921 ,4.51826 ,44.33320 
52 ,9.6590 ,0.74092 ,4.51826 ,44.33320 
53 ,9.8351 ,0.74252 ,4.49431 ,44.09815 
54 ,10.0268 ,0.74440 ,4.45666 ,43.72879 
55 ,10.2031 ,0.74621 ,4.46009 ,43.76237 
56 ,10.3952 ,0.74808 ,4.43955 ,43.56090 
57 ,10.5874 ,0.75001 ,4.40875 ,43.25870 
58 ,10.7792 ,0.75197 ,4.41218 ,43.29227 
59 ,11.0034 ,0.75410 ,4.37111 ,42.88933 
60 ,11.1797 ,0.75603 ,4.36427 ,42.82218 
61 ,11.3717 ,0.75791 ,4.34373 ,42.62071 
62 ,11.5476 ,0.75965 ,4.31978 ,42.38566 
63 ,11.7554 ,0.76175 ,4.31636 ,42.35208 
64 ,11.9318 ,0.76353 ,4.29582 ,42.15061 
65 ,12.1240 ,0.76538 ,4.26845 ,41.88198 
66 ,12.3322 ,0.76748 ,4.25476 ,41.74767 
67 ,12.5242 ,0.76941 ,4.24449 ,41.64694 
68 ,12.7162 ,0.77134 ,4.21711 ,41.37831 
69 ,12.8919 ,0.77310 ,4.20000 ,41.21042 
70 ,13.0684 ,0.77487 ,4.18289 ,41.04253 
71 ,13.2443 ,0.77661 ,4.17947 ,41.00895 
72 ,13.4206 ,0.77842 ,4.16578 ,40.87464 
73 ,13.6128 ,0.78030 ,4.12471 ,40.47170 
74 ,13.8366 ,0.78233 ,4.11445 ,40.37096 
75 ,14.0447 ,0.78459 ,4.10760 ,40.30380 
76 ,14.2367 ,0.78656 ,4.08023 ,40.03518 
77 ,14.4449 ,0.78846 ,4.05627 ,39.80013 
78 ,14.6367 ,0.79051 ,4.03574 ,39.59866 
79 ,14.8131 ,0.79227 ,4.01520 ,39.39719 
80 ,14.9889 ,0.79415 ,4.00494 ,39.29646 
81 ,15.1653 ,0.79583 ,3.99809 ,39.22930 
82 ,15.3733 ,0.79788 ,3.96045 ,38.85994 
83 ,15.5494 ,0.79969 ,3.95018 ,38.75920 
84 ,15.7254 ,0.80141 ,3.95018 ,38.75920 
85 ,15.9017 ,0.80320 ,3.93307 ,38.59131 
86 ,16.0772 ,0.80498 ,3.89885 ,38.25553 
87 ,16.2698 ,0.80677 ,3.88858 ,38.15479 
88 ,16.4778 ,0.80894 ,3.86463 ,37.91975 
89 ,16.6540 ,0.81069 ,3.84752 ,37.75185 
90 ,16.8620 ,0.81266 ,3.84752 ,37.75185 
91 ,17.0381 ,0.81457 ,3.81330 ,37.41607 
92 ,17.2301 ,0.81641 ,3.80987 ,37.38249 
93 ,17.4062 ,0.81826 ,3.79961 ,37.28176 
94 ,17.5824 ,0.81999 ,3.78250 ,37.11387 
95 ,17.7744 ,0.82190 ,3.74485 ,36.74450 
96 ,17.9664 ,0.82380 ,3.74485 ,36.74450 
97 ,18.1586 ,0.82565 ,3.73801 ,36.67735 
98 ,18.3506 ,0.82760 ,3.70379 ,36.34157 
99 ,18.5585 ,0.82966 ,3.68668 ,36.17367 
100 ,18.7347 ,0.83154 ,3.66957 ,36.00578 
101 ,18.9107 ,0.83327 ,3.65246 ,35.83789 
102 ,19.1029 ,0.83516 ,3.64219 ,35.73716 
103 ,19.2787 ,0.83709 ,3.60797 ,35.40137 
104 ,19.4551 ,0.83875 ,3.59770 ,35.30064 
105 ,19.6466 ,0.84069 ,3.60454 ,35.36779 
106 ,19.8230 ,0.84238 ,3.57717 ,35.09917 
107 ,20.0309 ,0.84433 ,3.56690 ,34.99843 
108 ,20.2075 ,0.84620 ,3.54637 ,34.79696 
109 ,20.3993 ,0.84811 ,3.51215 ,34.46118 
110 ,20.5755 ,0.84992 ,3.49846 ,34.32687 
111 ,20.7676 ,0.85180 ,3.50188 ,34.36045 
112 ,20.9436 ,0.85360 ,3.47792 ,34.12540 
113 ,21.1358 ,0.85547 ,3.46424 ,33.99108 
114 ,21.3278 ,0.85745 ,3.45055 ,33.85677 
115 ,21.5036 ,0.85923 ,3.40948 ,33.45383 
116 ,21.6801 ,0.86092 ,3.39921 ,33.35310 
117 ,21.8722 ,0.86289 ,3.39579 ,33.31952 
118 ,22.0638 ,0.86470 ,3.37526 ,33.11805 
119 ,22.2563 ,0.86663 ,3.35130 ,32.88300 
120 ,22.4484 ,0.86857 ,3.34788 ,32.84942 
121 ,22.6405 ,0.87050 ,3.32051 ,32.58080 
122 ,22.8484 ,0.87258 ,3.30682 ,32.44648 
123 ,23.0245 ,0.87443 ,3.29997 ,32.37933 
124 ,23.2167 ,0.87633 ,3.26917 ,32.07712 
125 ,23.4087 ,0.87824 ,3.26233 ,32.00996 
126 ,23.5845 ,0.88001 ,3.25548 ,31.94281 
127 ,23.7769 ,0.88182 ,3.22468 ,31.64060 
128 ,23.9848 ,0.88398 ,3.20757 ,31.47271 
129 ,24.1771 ,0.88586 ,3.19046 ,31.30482 
130 ,24.4012 ,0.88805 ,3.16309 ,31.03619 
131 ,24.5772 ,0.88995 ,3.14940 ,30.90188 
132 ,24.7373 ,0.89162 ,3.14940 ,30.90188 
133 ,24.9133 ,0.89328 ,3.13229 ,30.73399 
134 ,25.1214 ,0.89527 ,3.09806 ,30.39821 
135 ,25.3135 ,0.89729 ,3.08780 ,30.29747 
136 ,25.5056 ,0.89917 ,3.06384 ,30.06242 
137 ,25.6975 ,0.90103 ,3.05358 ,29.96169 
138 ,25.8737 ,0.90296 ,3.04673 ,29.89453 
139 ,26.0658 ,0.90478 ,3.02962 ,29.72664 
140 ,26.2419 ,0.90651 ,2.99540 ,29.39086 
141 ,26.4179 ,0.90829 ,2.98855 ,29.32370 
142 ,26.5939 ,0.91005 ,2.98855 ,29.32370 
143 ,26.7701 ,0.91185 ,2.96802 ,29.12223 
144 ,26.9622 ,0.91371 ,2.93722 ,28.82003 
145 ,27.1702 ,0.91575 ,2.93380 ,28.78645 
146 ,27.3463 ,0.91763 ,2.92353 ,28.68571 
147 ,27.5385 ,0.91953 ,2.89958 ,28.45066 
148 ,27.7144 ,0.92135 ,2.88589 ,28.31635 
149 ,27.8902 ,0.92313 ,2.86536 ,28.11488 
150 ,28.0662 ,0.92485 ,2.85851 ,28.04772 
151 ,28.2585 ,0.92667 ,2.84482 ,27.91341 
152 ,28.4827 ,0.92878 ,2.80376 ,27.51047 
153 ,28.6590 ,0.93077 ,2.80376 ,27.51047 
154 ,28.8510 ,0.93262 ,2.80034 ,27.47689 
155 ,29.0429 ,0.93450 ,2.76269 ,27.10753 
156 ,29.2027 ,0.93629 ,2.76269 ,27.10753 
157 ,29.3792 ,0.93792 ,2.74558 ,26.93964 
158 ,29.5552 ,0.93970 ,2.74900 ,26.97322 
159 ,29.7314 ,0.94142 ,2.72847 ,26.77175 
160 ,29.9234 ,0.94334 ,2.68740 ,26.36881 
161 ,30.0995 ,0.94517 ,2.68056 ,26.30165 
162 ,30.2755 ,0.94692 ,2.69083 ,26.40239 
163 ,30.4835 ,0.94899 ,2.66003 ,26.10018 
164 ,30.6758 ,0.95088 ,2.65318 ,26.03303 
165 ,30.8679 ,0.95270 ,2.63265 ,25.83156 
166 ,31.0754 ,0.95483 ,2.60869 ,25.59651 
167 ,31.2520 ,0.95670 ,2.58474 ,25.36146 
168 ,31.4281 ,0.95845 ,2.57789 ,25.29430 
169 ,31.6363 ,0.96043 ,2.57447 ,25.26073 
170 ,31.8122 ,0.96223 ,2.56763 ,25.19357 
171 ,31.9882 ,0.96400 ,2.53683 ,24.89136 
172 ,32.1639 ,0.96589 ,2.51630 ,24.68989 
173 ,32.3401 ,0.96757 ,2.51287 ,24.65632 
174 ,32.5166 ,0.96927 ,2.50603 ,24.58916 
175 ,32.7246 ,0.97118 ,2.47523 ,24.28696 
176 ,32.9168 ,0.97318 ,2.45470 ,24.08549 
177 ,33.1248 ,0.97518 ,2.45470 ,24.08549 
178 ,33.3009 ,0.97715 ,2.43759 ,23.91759 
179 ,33.4768 ,0.97885 ,2.42390 ,23.78328 
180 ,33.6528 ,0.98060 ,2.39652 ,23.51465 
181 ,33.8288 ,0.98241 ,2.38968 ,23.44750 
182 ,34.0051 ,0.98414 ,2.36914 ,23.24603 
183 ,34.1813 ,0.98593 ,2.37256 ,23.27961 
184 ,34.3893 ,0.98793 ,2.31781 ,22.74235 
185 ,34.5651 ,0.98974 ,2.31439 ,22.70877 
186 ,34.7575 ,0.99158 ,2.31781 ,22.74235 
187 ,34.9655 ,0.99369 ,2.29043 ,22.47373 
188 ,35.1575 ,0.99564 ,2.29385 ,22.50731 
189 ,35.3654 ,0.99761 ,2.27332 ,22.30584 
190 ,35.5575 ,0.99966 ,2.25621 ,22.13794 
191 ,35.7497 ,1.00159 ,2.23568 ,21.93647 
192 ,35.9259 ,1.00338 ,2.21172 ,21.70143 
193 ,36.1018 ,1.00516 ,2.21515 ,21.73500 
194 ,36.2778 ,1.00688 ,2.19803 ,21.56711 
195 ,36.5021 ,1.00901 ,2.17408 ,21.33206 
196 ,36.6942 ,1.01102 ,2.17408 ,21.33206 
197 ,36.8864 ,1.01288 ,2.14670 ,21.06344 
198 ,37.0623 ,1.01479 ,2.12617 ,20.86197 
199 ,37.2385 ,1.01650 ,2.12275 ,20.82839 
200 ,37.4304 ,1.01831 ,2.08510 ,20.45903 
201 ,37.6065 ,1.02016 ,2.08852 ,20.49261 
202 ,37.7825 ,1.02189 ,2.07826 ,20.39187 
203 ,37.9587 ,1.02364 ,2.06115 ,20.22398 
204 ,38.1348 ,1.02543 ,2.05430 ,20.15682 
205 ,38.3269 ,1.02730 ,2.04061 ,20.02251 
206 ,38.5190 ,1.02925 ,2.03719 ,19.98893 
207 ,38.7111 ,1.03116 ,1.99955 ,19.61957 
208 ,38.9028 ,1.03313 ,1.98244 ,19.45168 
209 ,39.0791 ,1.03485 ,1.97217 ,19.35094 
210 ,39.2710 ,1.03673 ,1.94137 ,19.04874 
211 ,39.4471 ,1.03860 ,1.94479 ,19.08232 
212 ,39.6234 ,1.04037 ,1.92768 ,18.91443 
213 ,39.8156 ,1.04212 ,1.92426 ,18.88085 
214 ,40.0076 ,1.04416 ,1.88662 ,18.51149 
215 ,40.1997 ,1.04604 ,1.89004 ,18.54507 
216 ,40.3756 ,1.04787 ,1.87635 ,18.41075 
217 ,40.5678 ,1.04964 ,1.85240 ,18.17570 
218 ,40.7594 ,1.05164 ,1.85582 ,18.20928 
219 ,40.9360 ,1.05340 ,1.82844 ,17.94066 
220 ,41.1281 ,1.05540 ,1.82160 ,17.87350 
221 ,41.3202 ,1.05730 ,1.80791 ,17.73919 
222 ,41.5281 ,1.05935 ,1.78395 ,17.50414 
223 ,41.7202 ,1.06126 ,1.78737 ,17.53772 
224 ,41.8963 ,1.06304 ,1.76342 ,17.30267 
225 ,42.1045 ,1.06508 ,1.75657 ,17.23551 
226 ,42.2964 ,1.06700 ,1.72920 ,16.96689 
227 ,42.4726 ,1.06881 ,1.71893 ,16.86615 
228 ,42.6806 ,1.07079 ,1.69498 ,16.63110 
229 ,42.8723 ,1.07273 ,1.67786 ,16.46321 
230 ,43.0646 ,1.07464 ,1.67444 ,16.42963 
231 ,43.2568 ,1.07659 ,1.64022 ,16.09385 
232 ,43.4329 ,1.07840 ,1.64707 ,16.16101 
233 ,43.6570 ,1.08047 ,1.62995 ,15.99311 
234 ,43.8490 ,1.08254 ,1.62311 ,15.92596 
235 ,44.0090 ,1.08429 ,1.61627 ,15.85880 
236 ,44.1851 ,1.08594 ,1.59916 ,15.69091 
237 ,44.3611 ,1.08766 ,1.58547 ,15.55660 
238 ,44.5374 ,1.08948 ,1.55809 ,15.28797 
239 ,44.7293 ,1.09133 ,1.55124 ,15.22081 
240 ,44.9376 ,1.09336 ,1.52729 ,14.98577 
241 ,45.1293 ,1.09530 ,1.52387 ,14.95219 
242 ,45.3057 ,1.09712 ,1.50333 ,14.75072 
243 ,45.4817 ,1.09888 ,1.49991 ,14.71714 
244 ,45.6579 ,1.10064 ,1.48622 ,14.58283 
245 ,45.8498 ,1.10257 ,1.46227 ,14.34778 
246 ,46.0260 ,1.10435 ,1.45885 ,14.31420 
247 ,46.2179 ,1.10624 ,1.42805 ,14.01199 
248 ,46.4105 ,1.10815 ,1.42805 ,14.01199 
249 ,46.6021 ,1.11009 ,1.41094 ,13.84410 
250 ,46.7783 ,1.11187 ,1.39383 ,13.67621 
251 ,46.9704 ,1.11370 ,1.39040 ,13.64263 
252 ,47.1620 ,1.11561 ,1.37329 ,13.47474 
253 ,47.3386 ,1.11746 ,1.35618 ,13.30685 
254 ,47.5301 ,1.11937 ,1.36303 ,13.37401 
255 ,47.7068 ,1.12114 ,1.34934 ,13.23969 
256 ,47.8988 ,1.12306 ,1.31854 ,12.93749 
257 ,48.1069 ,1.12500 ,1.31854 ,12.93749 
258 ,48.2829 ,1.12694 ,1.28089 ,12.56813 
259 ,48.4590 ,1.12864 ,1.27747 ,12.53455 
260 ,48.6510 ,1.13055 ,1.26378 ,12.40024 
261 ,48.8427 ,1.13242 ,1.26720 ,12.43381 
262 ,49.0027 ,1.13417 ,1.24325 ,12.19877 
263 ,49.1790 ,1.13580 ,1.23983 ,12.16519 
264 ,49.3551 ,1.13758 ,1.21245 ,11.89656 
265 ,49.5314 ,1.13934 ,1.20903 ,11.86298 
266 ,49.7233 ,1.14121 ,1.20218 ,11.79583 
267 ,49.9155 ,1.14320 ,1.17481 ,11.52720 
268 ,50.1076 ,1.14504 ,1.16796 ,11.46004 
269 ,50.2838 ,1.14689 ,1.16112 ,11.39289 
270 ,50.4756 ,1.14873 ,1.15085 ,11.29215 
271 ,50.6518 ,1.15057 ,1.12005 ,10.98995 
272 ,50.8280 ,1.15233 ,1.12690 ,11.05710 
273 ,51.0201 ,1.15415 ,1.08925 ,10.68774 
274 ,51.2440 ,1.15626 ,1.10979 ,10.88921 
275 ,51.4197 ,1.15832 ,1.08583 ,10.65416 
276 ,51.5961 ,1.16003 ,1.05845 ,10.38554 
277 ,51.7720 ,1.16177 ,1.06530 ,10.45270 
278 ,51.9483 ,1.16354 ,1.05503 ,10.35196 
279 ,52.1403 ,1.16536 ,1.04476 ,10.25123 
280 ,52.3165 ,1.16721 ,1.00712 ,9.88186 
281 ,52.5082 ,1.16911 ,1.01396 ,9.94902 
282 ,52.6844 ,1.17090 ,1.00028 ,9.81471 
283 ,52.8927 ,1.17291 ,0.99685 ,9.78113 
284 ,53.0527 ,1.17469 ,0.97632 ,9.57966 
285 ,53.2284 ,1.17631 ,0.96948 ,9.51250 
286 ,53.4049 ,1.17804 ,0.94552 ,9.27745 
287 ,53.6126 ,1.17998 ,0.93183 ,9.14314 
288 ,53.8052 ,1.18198 ,0.92499 ,9.07598 
289 ,53.9968 ,1.18405 ,0.89761 ,8.80736 
290 ,54.1734 ,1.18577 ,0.89761 ,8.80736 
291 ,54.3811 ,1.18782 ,0.87708 ,8.60589 
292 ,54.5895 ,1.18989 ,0.86681 ,8.50515 
293 ,54.7815 ,1.19181 ,0.84628 ,8.30368 
294 ,55.0056 ,1.19393 ,0.82575 ,8.10221 
295 ,55.1977 ,1.19595 ,0.82232 ,8.06864 
296 ,55.3895 ,1.19797 ,0.81890 ,8.03506 
297 ,55.5816 ,1.19979 ,0.79837 ,7.83359 
298 ,55.7739 ,1.20170 ,0.77099 ,7.56496 
299 ,55.9501 ,1.20355 ,0.77784 ,7.63212 
300 ,56.1421 ,1.20541 ,0.75046 ,7.36349 
301 ,56.3342 ,1.20728 ,0.75730 ,7.43065 
302 ,56.5422 ,1.20931 ,0.72650 ,7.12844 
303 ,56.7182 ,1.21120 ,0.71624 ,7.02771 
304 ,56.8944 ,1.21301 ,0.70597 ,6.92697 
305 ,57.0863 ,1.21486 ,0.69570 ,6.82624 
306 ,57.2785 ,1.21669 ,0.68201 ,6.69193 
307 ,57.4545 ,1.21855 ,0.68201 ,6.69193 
308 ,57.6626 ,1.22057 ,0.64437 ,6.32256 
309 ,57.8384 ,1.22239 ,0.65464 ,6.42330 
310 ,58.0309 ,1.22426 ,0.64437 ,6.32256 
311 ,58.2226 ,1.22620 ,0.61699 ,6.05394 
312 ,58.4149 ,1.22811 ,0.63068 ,6.18825 
313 ,58.5909 ,1.22990 ,0.60673 ,5.95320 
314 ,58.7669 ,1.23171 ,0.58277 ,5.71815 
315 ,58.9587 ,1.23366 ,0.57935 ,5.68458 
316 ,59.1353 ,1.23537 ,0.57935 ,5.68458 
317 ,59.3116 ,1.23712 ,0.55882 ,5.48311 
318 ,59.5032 ,1.23900 ,0.54513 ,5.34879 
319 ,59.6956 ,1.24090 ,0.54171 ,5.31522 
320 ,59.8876 ,1.24286 ,0.53144 ,5.21448 
321 ,60.0796 ,1.24487 ,0.51433 ,5.04659 
322 ,60.2717 ,1.24665 ,0.48353 ,4.74438 
323 ,60.4638 ,1.24860 ,0.49037 ,4.81154 
324 ,60.6399 ,1.25039 ,0.48011 ,4.71081 
325 ,60.8158 ,1.25214 ,0.47668 ,4.67723 
326 ,60.9920 ,1.25391 ,0.46300 ,4.54291 
327 ,61.1681 ,1.25566 ,0.44246 ,4.34144 
328 ,61.3602 ,1.25761 ,0.43562 ,4.27429 
329 ,61.5361 ,1.25942 ,0.44246 ,4.34144 
330 ,61.7119 ,1.26118 ,0.39455 ,3.87135 
331 ,61.8884 ,1.26287 ,0.39797 ,3.90493 
332 ,62.0643 ,1.26465 ,0.39455 ,3.87135 
333 ,62.2405 ,1.26643 ,0.36718 ,3.60272 
334 ,62.4326 ,1.26835 ,0.36718 ,3.60272 
335 ,62.6246 ,1.27022 ,0.35691 ,3.50199 
336 ,62.8325 ,1.27217 ,0.33295 ,3.26694 
337 ,63.0089 ,1.27408 ,0.32611 ,3.19978 
338 ,63.2006 ,1.27608 ,0.32953 ,3.23336 
339 ,63.3770 ,1.27780 ,0.31584 ,3.09905 
340 ,63.5529 ,1.27959 ,0.28847 ,2.83042 
341 ,63.7292 ,1.28128 ,0.28162 ,2.76326 
342 ,63.9211 ,1.28319 ,0.28162 ,2.76326 
343 ,64.0969 ,1.28500 ,0.28162 ,2.76326 
344 ,64.2729 ,1.28673 ,0.27135 ,2.66253 
345 ,64.4494 ,1.28854 ,0.23371 ,2.29317 
346 ,64.6416 ,1.29042 ,0.25082 ,2.46106 
347 ,64.8492 ,1.29230 ,0.21660 ,2.12528 
348 ,65.0256 ,1.29422 ,0.22002 ,2.15885 
349 ,65.2178 ,1.29609 ,0.20633 ,2.02454 
350 ,65.4098 ,1.29803 ,0.18238 ,1.78949 
351 ,65.5856 ,1.29991 ,0.17896 ,1.75592 
352 ,65.7620 ,1.30163 ,0.17211 ,1.68876 
353 ,65.9538 ,1.30346 ,0.15842 ,1.55445 
354 ,66.1461 ,1.30545 ,0.15158 ,1.48729 
355 ,66.3380 ,1.30740 ,0.14131 ,1.38655 
356 ,66.5303 ,1.30929 ,0.12420 ,1.21866 
357 ,66.7221 ,1.31114 ,0.13105 ,1.28582 
358 ,66.9304 ,1.31323 ,0.10367 ,1.01719 
359 ,67.1063 ,1.31508 ,0.09340 ,0.91646 
360 ,67.3146 ,1.31708 ,0.07629 ,0.74857 
361 ,67.4901 ,1.31894 ,0.07971 ,0.78214 
362 ,67.6666 ,1.32066 ,0.05918 ,0.58067 
363 ,67.8587 ,1.32254 ,0.04891 ,0.47994 
364 ,68.0348 ,1.32434 ,0.04207 ,0.41278 
365 ,68.2269 ,1.32617 ,0.03865 ,0.37920 
366 ,68.4349 ,1.32817 ,0.02154 ,0.21131 
367 ,68.6269 ,1.33022 ,-0.00242 ,-0.02373 
368 ,68.8029 ,1.33202 ,0.00785 ,0.07700 
369 ,68.9626 ,1.33371 ,-0.00926 ,-0.09089 
370 ,69.1388 ,1.33546 ,-0.02295 ,-0.22520 
371 ,69.3149 ,1.33718 ,-0.02980 ,-0.29236 
372 ,69.5072 ,1.33898 ,-0.04006 ,-0.39310 
373 ,69.7313 ,1.34127 ,-0.05717 ,-0.56099 
374 ,69.9237 ,1.34323 ,-0.04691 ,-0.46025 
375 ,70.1316 ,1.34522 ,-0.07086 ,-0.69530 
376 ,70.3078 ,1.34707 ,-0.07428 ,-0.72888 
377 ,70.4999 ,1.34898 ,-0.09482 ,-0.93035 
378 ,70.6915 ,1.35088 ,-0.11193 ,-1.09824 
379 ,70.8680 ,1.35268 ,-0.11877 ,-1.16540 
380 ,71.0600 ,1.35462 ,-0.12904 ,-1.26613 
381 ,71.2362 ,1.35630 ,-0.12219 ,-1.19898 
382 ,71.4122 ,1.35817 ,-0.11877 ,-1.16540 
383 ,71.5880 ,1.35987 ,-0.15642 ,-1.53476 
384 ,71.7479 ,1.36155 ,-0.15299 ,-1.50118 
385 ,71.9243 ,1.36325 ,-0.14615 ,-1.43402 
386 ,72.1162 ,1.36515 ,-0.18037 ,-1.76981 
387 ,72.2924 ,1.36695 ,-0.19748 ,-1.93770 
388 ,72.4685 ,1.36865 ,-0.18379 ,-1.80338 
389 ,72.6446 ,1.37035 ,-0.18037 ,-1.76981 
390 ,72.8205 ,1.37214 ,-0.20090 ,-1.97128 
391 ,73.0129 ,1.37401 ,-0.21117 ,-2.07201 
392 ,73.2048 ,1.37605 ,-0.23855 ,-2.34064 
393 ,73.3809 ,1.37783 ,-0.24539 ,-2.40779 
394 ,73.5567 ,1.37950 ,-0.25566 ,-2.50853 
395 ,73.7332 ,1.38125 ,-0.25566 ,-2.50853 
396 ,73.9407 ,1.38332 ,-0.26935 ,-2.64284 
397 ,74.1172 ,1.38516 ,-0.28646 ,-2.81073 
398 ,74.3093 ,1.38704 ,-0.26935 ,-2.64284 
399 ,74.4853 ,1.38885 ,-0.28304 ,-2.77716 
400 ,74.6935 ,1.39074 ,-0.30015 ,-2.94505 
401 ,74.8854 ,1.39277 ,-0.31041 ,-3.04578 
402 ,75.0616 ,1.39457 ,-0.32410 ,-3.18010 
403 ,75.2533 ,1.39647 ,-0.32752 ,-3.21367 
404 ,75.4298 ,1.39825 ,-0.32410 ,-3.18010 
405 ,75.6218 ,1.40019 ,-0.34464 ,-3.38156 
406 ,75.7977 ,1.40195 ,-0.36859 ,-3.61661 
407 ,76.0059 ,1.40398 ,-0.35832 ,-3.51588 
408 ,76.1821 ,1.40574 ,-0.36859 ,-3.61661 
409 ,76.3740 ,1.40768 ,-0.38228 ,-3.75093 
410 ,76.5821 ,1.40968 ,-0.40966 ,-4.01955 
411 ,76.7579 ,1.41154 ,-0.41650 ,-4.08671 
412 ,76.9343 ,1.41325 ,-0.40623 ,-3.98597 
413 ,77.1103 ,1.41505 ,-0.41308 ,-4.05313 
414 ,77.2866 ,1.41682 ,-0.43361 ,-4.25460 
415 ,77.4785 ,1.41876 ,-0.46441 ,-4.55681 
416 ,77.6543 ,1.42050 ,-0.44730 ,-4.38891 
417 ,77.8468 ,1.42239 ,-0.46783 ,-4.59038 
418 ,78.0388 ,1.42425 ,-0.47126 ,-4.62396 
419 ,78.2304 ,1.42634 ,-0.48837 ,-4.79185 
420 ,78.4227 ,1.42811 ,-0.49863 ,-4.89259 
421 ,78.5988 ,1.42991 ,-0.51232 ,-5.02690 
422 ,78.8071 ,1.43195 ,-0.50890 ,-4.99332 
423 ,78.9992 ,1.43386 ,-0.50890 ,-4.99332 
424 ,79.1912 ,1.43578 ,-0.53628 ,-5.26195 
425 ,79.3993 ,1.43785 ,-0.53285 ,-5.22837 
426 ,79.5914 ,1.43985 ,-0.53970 ,-5.29553 
427 ,79.7994 ,1.44179 ,-0.56023 ,-5.49700 
428 ,79.9755 ,1.44372 ,-0.56023 ,-5.49700 
429 ,80.1675 ,1.44552 ,-0.58077 ,-5.69847 
430 ,80.3596 ,1.44744 ,-0.57734 ,-5.66489 
431 ,80.5358 ,1.44935 ,-0.59445 ,-5.83278 
432 ,80.7438 ,1.45124 ,-0.59445 ,-5.83278 
433 ,80.9360 ,1.45320 ,-0.60130 ,-5.89994 
434 ,81.1281 ,1.45522 ,-0.62183 ,-6.10141 
435 ,81.3198 ,1.45706 ,-0.61841 ,-6.06783 
436 ,81.5122 ,1.45901 ,-0.62868 ,-6.16856 
437 ,81.6883 ,1.46082 ,-0.64236 ,-6.30288 
438 ,81.8803 ,1.46269 ,-0.65605 ,-6.43719 
439 ,82.0564 ,1.46445 ,-0.66290 ,-6.50435 
440 ,82.2645 ,1.46648 ,-0.66974 ,-6.57150 
441 ,82.4566 ,1.46852 ,-0.66632 ,-6.53793 
442 ,82.6486 ,1.47038 ,-0.68343 ,-6.70582 
443 ,82.8568 ,1.47239 ,-0.68685 ,-6.73940 
444 ,83.0488 ,1.47433 ,-0.70054 ,-6.87371 
445 ,83.2410 ,1.47633 ,-0.71081 ,-6.97444 
446 ,83.4331 ,1.47821 ,-0.72107 ,-7.07518 
447 ,83.6089 ,1.48005 ,-0.73134 ,-7.17591 
448 ,83.8011 ,1.48182 ,-0.72107 ,-7.07518 
449 ,84.0094 ,1.48397 ,-0.76214 ,-7.47812 
450 ,84.2011 ,1.48593 ,-0.74845 ,-7.34380 
451 ,84.3771 ,1.48768 ,-0.74503 ,-7.31023 
452 ,84.5533 ,1.48943 ,-0.75530 ,-7.41096 
453 ,84.7291 ,1.49134 ,-0.77241 ,-7.57885 
454 ,84.9057 ,1.49299 ,-0.78610 ,-7.71317 
455 ,85.0977 ,1.49483 ,-0.77241 ,-7.57885 
456 ,85.2737 ,1.49663 ,-0.79294 ,-7.78032 
457 ,85.4659 ,1.49847 ,-0.80663 ,-7.91464 
458 ,85.6580 ,1.50039 ,-0.80663 ,-7.91464 
459 ,85.8499 ,1.50236 ,-0.83058 ,-8.14968 
460 ,86.0261 ,1.50418 ,-0.83058 ,-8.14968 
461 ,86.2340 ,1.50617 ,-0.84427 ,-8.28400 
462 ,86.4103 ,1.50799 ,-0.85796 ,-8.41831 
463 ,86.6021 ,1.50997 ,-0.85112 ,-8.35115 
