Data stamp = , 21-04-2022 03:07:47 151

Calibration Values: 
Slope = , 26.54 , g/V 
Offset Voltage at no contact = , -0.501760 , V 

No , Time , Stage Position ,   Mass , Force 
   ,  (s) ,      (mm)      ,   (g)  , (mN)  

1 ,0.0000 ,0.64934 ,5.25403 ,51.55254 
2 ,0.2159 ,0.64941 ,5.27456 ,51.75401 
3 ,0.5685 ,0.65036 ,5.25403 ,51.55254 
4 ,0.7765 ,0.65204 ,5.27456 ,51.75401 
5 ,0.9688 ,0.65368 ,5.23692 ,51.38464 
6 ,1.1768 ,0.65580 ,5.26087 ,51.61969 
7 ,1.3688 ,0.65766 ,5.25403 ,51.55254 
8 ,1.5447 ,0.65951 ,5.25061 ,51.51896 
9 ,1.7369 ,0.66141 ,5.24718 ,51.48538 
10 ,1.9129 ,0.66323 ,5.23692 ,51.38464 
11 ,2.0891 ,0.66495 ,5.23007 ,51.31749 
12 ,2.2812 ,0.66679 ,5.22323 ,51.25033 
13 ,2.4732 ,0.66874 ,5.20270 ,51.04886 
14 ,2.6654 ,0.67074 ,5.17874 ,50.81381 
15 ,2.8575 ,0.67255 ,5.15479 ,50.57876 
16 ,3.0654 ,0.67470 ,5.15136 ,50.54519 
17 ,3.2415 ,0.67652 ,5.11714 ,50.20940 
18 ,3.4173 ,0.67823 ,5.11030 ,50.14225 
19 ,3.6098 ,0.68010 ,5.09319 ,49.97436 
20 ,3.8017 ,0.68215 ,5.07608 ,49.80646 
21 ,3.9778 ,0.68387 ,5.05554 ,49.60499 
22 ,4.1540 ,0.68558 ,5.02817 ,49.33637 
23 ,4.3458 ,0.68749 ,5.02817 ,49.33637 
24 ,4.5377 ,0.68938 ,5.01448 ,49.20205 
25 ,4.7300 ,0.69136 ,4.97683 ,48.83269 
26 ,4.9062 ,0.69313 ,4.95972 ,48.66480 
27 ,5.0822 ,0.69486 ,4.96999 ,48.76554 
28 ,5.2741 ,0.69673 ,4.93577 ,48.42975 
29 ,5.4504 ,0.69858 ,4.89470 ,48.02681 
30 ,5.6422 ,0.70041 ,4.90839 ,48.16113 
31 ,5.8185 ,0.70225 ,4.87759 ,47.85892 
32 ,6.0107 ,0.70413 ,4.86390 ,47.72461 
33 ,6.2026 ,0.70601 ,4.85021 ,47.59030 
34 ,6.3948 ,0.70796 ,4.80915 ,47.18736 
35 ,6.5870 ,0.70983 ,4.79546 ,47.05304 
36 ,6.7791 ,0.71178 ,4.77835 ,46.88515 
37 ,6.9551 ,0.71362 ,4.76124 ,46.71726 
38 ,7.1315 ,0.71535 ,4.74070 ,46.51579 
39 ,7.3073 ,0.71715 ,4.73728 ,46.48221 
40 ,7.4830 ,0.71885 ,4.71333 ,46.24716 
41 ,7.6594 ,0.72062 ,4.69622 ,46.07927 
42 ,7.8516 ,0.72255 ,4.66884 ,45.81065 
43 ,8.0275 ,0.72433 ,4.66542 ,45.77707 
44 ,8.2194 ,0.72617 ,4.63804 ,45.50844 
45 ,8.4117 ,0.72812 ,4.63119 ,45.44128 
46 ,8.6199 ,0.73022 ,4.60382 ,45.17266 
47 ,8.7960 ,0.73201 ,4.59013 ,45.03835 
48 ,8.9877 ,0.73384 ,4.58671 ,45.00477 
49 ,9.1800 ,0.73588 ,4.55249 ,44.66898 
50 ,9.3558 ,0.73763 ,4.53195 ,44.46751 
51 ,9.5321 ,0.73937 ,4.51826 ,44.33320 
52 ,9.7082 ,0.74115 ,4.50457 ,44.19889 
53 ,9.8843 ,0.74289 ,4.50457 ,44.19889 
54 ,10.0764 ,0.74478 ,4.46693 ,43.82953 
55 ,10.2843 ,0.74685 ,4.44982 ,43.66163 
56 ,10.4765 ,0.74870 ,4.43955 ,43.56090 
57 ,10.7007 ,0.75087 ,4.42244 ,43.39301 
58 ,10.9084 ,0.75310 ,4.39849 ,43.15796 
59 ,11.0846 ,0.75494 ,4.36427 ,42.82218 
60 ,11.2768 ,0.75670 ,4.36769 ,42.85576 
61 ,11.4690 ,0.75882 ,4.34716 ,42.65429 
62 ,11.6607 ,0.76061 ,4.33347 ,42.51997 
63 ,11.8691 ,0.76259 ,4.31978 ,42.38566 
64 ,12.0767 ,0.76463 ,4.28556 ,42.04988 
65 ,12.2533 ,0.76660 ,4.24791 ,41.68051 
66 ,12.4450 ,0.76838 ,4.26845 ,41.88198 
67 ,12.6215 ,0.77023 ,4.23422 ,41.54620 
68 ,12.7971 ,0.77207 ,4.21711 ,41.37831 
69 ,12.9571 ,0.77371 ,4.20000 ,41.21042 
70 ,13.1172 ,0.77530 ,4.17947 ,41.00895 
71 ,13.2937 ,0.77701 ,4.16920 ,40.90821 
72 ,13.4857 ,0.77892 ,4.16920 ,40.90821 
73 ,13.6778 ,0.78080 ,4.12814 ,40.50527 
74 ,13.8700 ,0.78271 ,4.12129 ,40.43812 
75 ,14.0617 ,0.78459 ,4.10076 ,40.23665 
76 ,14.2536 ,0.78658 ,4.07680 ,40.00160 
77 ,14.4462 ,0.78844 ,4.06654 ,39.90087 
78 ,14.6543 ,0.79053 ,4.05969 ,39.83371 
79 ,14.8463 ,0.79249 ,4.04258 ,39.66582 
80 ,15.0222 ,0.79424 ,4.01520 ,39.39719 
81 ,15.2145 ,0.79615 ,4.00494 ,39.29646 
82 ,15.4064 ,0.79810 ,3.98098 ,39.06141 
83 ,15.5665 ,0.79980 ,3.97072 ,38.96067 
84 ,15.7427 ,0.80145 ,3.95703 ,38.82636 
85 ,15.9344 ,0.80340 ,3.92623 ,38.52415 
86 ,16.1109 ,0.80514 ,3.92623 ,38.52415 
87 ,16.2869 ,0.80686 ,3.91596 ,38.42342 
88 ,16.4465 ,0.80859 ,3.89201 ,38.18837 
89 ,16.6229 ,0.81020 ,3.87832 ,38.05406 
90 ,16.7991 ,0.81202 ,3.84752 ,37.75185 
91 ,16.9912 ,0.81386 ,3.84752 ,37.75185 
92 ,17.1674 ,0.81569 ,3.83725 ,37.65112 
93 ,17.3433 ,0.81747 ,3.80987 ,37.38249 
94 ,17.5194 ,0.81918 ,3.78250 ,37.11387 
95 ,17.6956 ,0.82097 ,3.78592 ,37.14744 
96 ,17.9035 ,0.82298 ,3.76196 ,36.91240 
97 ,18.0793 ,0.82480 ,3.73117 ,36.61019 
98 ,18.2555 ,0.82658 ,3.73117 ,36.61019 
99 ,18.4317 ,0.82833 ,3.72432 ,36.54303 
100 ,18.6235 ,0.83017 ,3.67983 ,36.10652 
101 ,18.7998 ,0.83197 ,3.67983 ,36.10652 
102 ,18.9760 ,0.83379 ,3.67299 ,36.03936 
103 ,19.1682 ,0.83565 ,3.64561 ,35.77073 
104 ,19.3602 ,0.83764 ,3.62508 ,35.56926 
105 ,19.5521 ,0.83946 ,3.61139 ,35.43495 
106 ,19.7122 ,0.84126 ,3.60112 ,35.33422 
107 ,19.8885 ,0.84290 ,3.57717 ,35.09917 
108 ,20.0646 ,0.84470 ,3.56690 ,34.99843 
109 ,20.2565 ,0.84659 ,3.54979 ,34.83054 
110 ,20.4325 ,0.84831 ,3.55321 ,34.86412 
111 ,20.6085 ,0.85009 ,3.51557 ,34.49476 
112 ,20.7847 ,0.85185 ,3.49504 ,34.29329 
113 ,20.9610 ,0.85360 ,3.48819 ,34.22613 
114 ,21.1371 ,0.85541 ,3.48819 ,34.22613 
115 ,21.3129 ,0.85717 ,3.47792 ,34.12540 
116 ,21.5050 ,0.85898 ,3.45055 ,33.85677 
117 ,21.6810 ,0.86089 ,3.43344 ,33.68888 
118 ,21.8572 ,0.86255 ,3.41975 ,33.55457 
119 ,22.0493 ,0.86451 ,3.39579 ,33.31952 
120 ,22.2415 ,0.86639 ,3.37868 ,33.15163 
121 ,22.4336 ,0.86832 ,3.35815 ,32.95016 
122 ,22.6414 ,0.87034 ,3.35130 ,32.88300 
123 ,22.8173 ,0.87214 ,3.32393 ,32.61437 
124 ,22.9938 ,0.87392 ,3.32393 ,32.61437 
125 ,23.2018 ,0.87592 ,3.28971 ,32.27859 
126 ,23.3779 ,0.87777 ,3.27602 ,32.14428 
127 ,23.5856 ,0.87978 ,3.25891 ,31.97639 
128 ,23.7616 ,0.88168 ,3.24180 ,31.80849 
129 ,23.9377 ,0.88342 ,3.23837 ,31.77492 
130 ,24.1142 ,0.88510 ,3.22126 ,31.60702 
131 ,24.3063 ,0.88708 ,3.19388 ,31.33840 
132 ,24.4983 ,0.88891 ,3.16993 ,31.10335 
133 ,24.6743 ,0.89070 ,3.17335 ,31.13693 
134 ,24.8505 ,0.89249 ,3.13913 ,30.80115 
135 ,25.0424 ,0.89436 ,3.12202 ,30.63325 
136 ,25.2347 ,0.89625 ,3.10833 ,30.49894 
137 ,25.4104 ,0.89809 ,3.09464 ,30.36463 
138 ,25.6022 ,0.89995 ,3.06726 ,30.09600 
139 ,25.7949 ,0.90189 ,3.07753 ,30.19674 
140 ,26.0027 ,0.90392 ,3.06384 ,30.06242 
141 ,26.1950 ,0.90584 ,3.03647 ,29.79380 
142 ,26.3870 ,0.90790 ,3.01935 ,29.62590 
143 ,26.5790 ,0.90970 ,3.00909 ,29.52517 
144 ,26.7552 ,0.91151 ,2.99198 ,29.35728 
145 ,26.9313 ,0.91329 ,2.97144 ,29.15581 
146 ,27.1070 ,0.91507 ,2.95433 ,28.98792 
147 ,27.2834 ,0.91679 ,2.93038 ,28.75287 
148 ,27.4754 ,0.91870 ,2.93038 ,28.75287 
149 ,27.6514 ,0.92048 ,2.89616 ,28.41709 
150 ,27.8276 ,0.92240 ,2.89273 ,28.38351 
151 ,28.0035 ,0.92394 ,2.88247 ,28.28277 
152 ,28.1795 ,0.92577 ,2.86536 ,28.11488 
153 ,28.3718 ,0.92771 ,2.83456 ,27.81268 
154 ,28.5639 ,0.92960 ,2.83798 ,27.84625 
155 ,28.7560 ,0.93145 ,2.80718 ,27.54405 
156 ,28.9481 ,0.93349 ,2.78322 ,27.30900 
157 ,29.1403 ,0.93537 ,2.77980 ,27.27542 
158 ,29.2999 ,0.93709 ,2.77638 ,27.24185 
159 ,29.4921 ,0.93878 ,2.76954 ,27.17469 
160 ,29.6842 ,0.94071 ,2.72505 ,26.73817 
161 ,29.8604 ,0.94257 ,2.74216 ,26.90606 
162 ,30.0523 ,0.94453 ,2.68740 ,26.36881 
163 ,30.2446 ,0.94635 ,2.69425 ,26.43597 
164 ,30.4369 ,0.94836 ,2.68056 ,26.30165 
165 ,30.6287 ,0.95030 ,2.64976 ,25.99945 
166 ,30.8048 ,0.95199 ,2.64976 ,25.99945 
167 ,30.9967 ,0.95393 ,2.62923 ,25.79798 
168 ,31.2047 ,0.95588 ,2.61554 ,25.66367 
169 ,31.3810 ,0.95775 ,2.60869 ,25.59651 
170 ,31.5891 ,0.95976 ,2.58132 ,25.32788 
171 ,31.7971 ,0.96183 ,2.58132 ,25.32788 
172 ,31.9730 ,0.96368 ,2.54710 ,24.99210 
173 ,32.1653 ,0.96563 ,2.53683 ,24.89136 
174 ,32.3574 ,0.96741 ,2.52656 ,24.79063 
175 ,32.5494 ,0.96942 ,2.48550 ,24.38769 
176 ,32.7255 ,0.97121 ,2.49234 ,24.45485 
177 ,32.9013 ,0.97295 ,2.47523 ,24.28696 
178 ,33.1096 ,0.97499 ,2.45812 ,24.11906 
179 ,33.2854 ,0.97680 ,2.43759 ,23.91759 
180 ,33.4616 ,0.97853 ,2.44443 ,23.98475 
181 ,33.6695 ,0.98057 ,2.40336 ,23.58181 
182 ,33.8619 ,0.98254 ,2.39994 ,23.54823 
183 ,34.0538 ,0.98448 ,2.37599 ,23.31318 
184 ,34.2302 ,0.98627 ,2.36230 ,23.17887 
185 ,34.4381 ,0.98831 ,2.34519 ,23.01098 
186 ,34.6139 ,0.99015 ,2.33492 ,22.91024 
187 ,34.7904 ,0.99190 ,2.32808 ,22.84309 
188 ,34.9821 ,0.99373 ,2.31097 ,22.67520 
189 ,35.1745 ,0.99560 ,2.29728 ,22.54088 
190 ,35.3664 ,0.99752 ,2.28701 ,22.44015 
191 ,35.5745 ,0.99955 ,2.26306 ,22.20510 
192 ,35.7504 ,1.00141 ,2.24252 ,22.00363 
193 ,35.9268 ,1.00322 ,2.22541 ,21.83574 
194 ,36.1184 ,1.00504 ,2.20830 ,21.66785 
195 ,36.3105 ,1.00694 ,2.20488 ,21.63427 
196 ,36.4866 ,1.00885 ,2.19119 ,21.49996 
197 ,36.6631 ,1.01055 ,2.18777 ,21.46638 
198 ,36.8551 ,1.01248 ,2.14670 ,21.06344 
199 ,37.0313 ,1.01425 ,2.14328 ,21.02986 
200 ,37.2233 ,1.01612 ,2.13986 ,20.99628 
201 ,37.4154 ,1.01806 ,2.10906 ,20.69408 
202 ,37.6071 ,1.01997 ,2.11248 ,20.72766 
203 ,37.7835 ,1.02179 ,2.09537 ,20.55976 
204 ,37.9595 ,1.02361 ,2.05430 ,20.15682 
205 ,38.1518 ,1.02546 ,2.05430 ,20.15682 
206 ,38.3437 ,1.02731 ,2.04746 ,20.08967 
207 ,38.5199 ,1.02915 ,2.04746 ,20.08967 
208 ,38.7120 ,1.03108 ,2.00297 ,19.65315 
209 ,38.9196 ,1.03306 ,1.99955 ,19.61957 
210 ,39.1279 ,1.03504 ,1.98586 ,19.48526 
211 ,39.3201 ,1.03708 ,1.95506 ,19.18305 
212 ,39.4961 ,1.03889 ,1.93795 ,19.01516 
213 ,39.6722 ,1.04062 ,1.93111 ,18.94801 
214 ,39.8643 ,1.04249 ,1.91742 ,18.81369 
215 ,40.0405 ,1.04440 ,1.89688 ,18.61222 
216 ,40.2164 ,1.04606 ,1.89346 ,18.57864 
217 ,40.3923 ,1.04782 ,1.87293 ,18.37717 
218 ,40.5687 ,1.04962 ,1.86951 ,18.34360 
219 ,40.7448 ,1.05139 ,1.87293 ,18.37717 
220 ,40.9206 ,1.05313 ,1.85582 ,18.20928 
221 ,41.1128 ,1.05499 ,1.83528 ,18.00781 
222 ,41.3050 ,1.05703 ,1.83186 ,17.97423 
223 ,41.4970 ,1.05890 ,1.78395 ,17.50414 
224 ,41.6731 ,1.06062 ,1.76684 ,17.33625 
225 ,41.8810 ,1.06265 ,1.76342 ,17.30267 
226 ,42.0573 ,1.06451 ,1.76000 ,17.26909 
227 ,42.2335 ,1.06623 ,1.74289 ,17.10120 
228 ,42.4256 ,1.06823 ,1.74289 ,17.10120 
229 ,42.6175 ,1.07009 ,1.71209 ,16.79899 
230 ,42.7935 ,1.07184 ,1.69840 ,16.66468 
231 ,42.9853 ,1.07368 ,1.69498 ,16.63110 
232 ,43.1619 ,1.07552 ,1.67444 ,16.42963 
233 ,43.3539 ,1.07737 ,1.65049 ,16.19458 
234 ,43.5619 ,1.07951 ,1.65049 ,16.19458 
235 ,43.7540 ,1.08142 ,1.63680 ,16.06027 
236 ,43.9302 ,1.08320 ,1.61969 ,15.89238 
237 ,44.1222 ,1.08511 ,1.59231 ,15.62375 
238 ,44.3305 ,1.08712 ,1.58889 ,15.59018 
239 ,44.5223 ,1.08919 ,1.55467 ,15.25439 
240 ,44.6986 ,1.09091 ,1.55124 ,15.22081 
241 ,44.8742 ,1.09269 ,1.53756 ,15.08650 
242 ,45.0506 ,1.09438 ,1.53413 ,15.05292 
243 ,45.2425 ,1.09633 ,1.52387 ,14.95219 
244 ,45.4187 ,1.09814 ,1.51360 ,14.85145 
245 ,45.6108 ,1.10002 ,1.48622 ,14.58283 
246 ,45.8187 ,1.10204 ,1.47253 ,14.44851 
247 ,46.0110 ,1.10400 ,1.47253 ,14.44851 
248 ,46.2030 ,1.10595 ,1.45885 ,14.31420 
249 ,46.3948 ,1.10789 ,1.43831 ,14.11273 
250 ,46.5712 ,1.10962 ,1.43147 ,14.04557 
251 ,46.7633 ,1.11153 ,1.41094 ,13.84410 
252 ,46.9554 ,1.11340 ,1.39725 ,13.70979 
253 ,47.1475 ,1.11532 ,1.38698 ,13.60906 
254 ,47.3392 ,1.11727 ,1.36303 ,13.37401 
255 ,47.5152 ,1.11908 ,1.35618 ,13.30685 
256 ,47.7076 ,1.12092 ,1.33907 ,13.13896 
257 ,47.8996 ,1.12287 ,1.31512 ,12.90391 
258 ,48.0759 ,1.12464 ,1.30827 ,12.83675 
259 ,48.2840 ,1.12668 ,1.29458 ,12.70244 
260 ,48.4601 ,1.12857 ,1.29116 ,12.66886 
261 ,48.6516 ,1.13039 ,1.28089 ,12.56813 
262 ,48.8279 ,1.13223 ,1.26378 ,12.40024 
263 ,49.0037 ,1.13398 ,1.24667 ,12.23235 
264 ,49.1797 ,1.13576 ,1.25694 ,12.33308 
265 ,49.3559 ,1.13746 ,1.21245 ,11.89656 
266 ,49.5481 ,1.13930 ,1.20218 ,11.79583 
267 ,49.7565 ,1.14140 ,1.18850 ,11.66151 
268 ,49.9486 ,1.14347 ,1.17481 ,11.52720 
269 ,50.1243 ,1.14514 ,1.17138 ,11.49362 
270 ,50.3168 ,1.14698 ,1.16454 ,11.42647 
271 ,50.5248 ,1.14896 ,1.13716 ,11.15784 
272 ,50.7006 ,1.15092 ,1.11321 ,10.92279 
273 ,50.8770 ,1.15266 ,1.12005 ,10.98995 
274 ,51.1010 ,1.15473 ,1.12347 ,11.02353 
275 ,51.2771 ,1.15666 ,1.08583 ,10.65416 
276 ,51.4533 ,1.15839 ,1.09952 ,10.78848 
277 ,51.6453 ,1.16024 ,1.05503 ,10.35196 
278 ,51.8370 ,1.16221 ,1.07214 ,10.51985 
279 ,52.0135 ,1.16403 ,1.04476 ,10.25123 
280 ,52.2214 ,1.16603 ,1.02423 ,10.04976 
281 ,52.3975 ,1.16785 ,1.02423 ,10.04976 
282 ,52.5735 ,1.16962 ,1.01396 ,9.94902 
283 ,52.7659 ,1.17151 ,0.98659 ,9.68039 
284 ,52.9737 ,1.17355 ,0.98317 ,9.64682 
285 ,53.1658 ,1.17561 ,0.95921 ,9.41177 
286 ,53.3416 ,1.17730 ,0.94210 ,9.24388 
287 ,53.5180 ,1.17910 ,0.94552 ,9.27745 
288 ,53.6943 ,1.18080 ,0.95579 ,9.37819 
289 ,53.8702 ,1.18263 ,0.90788 ,8.90809 
290 ,54.0463 ,1.18432 ,0.89761 ,8.80736 
291 ,54.2223 ,1.18607 ,0.88392 ,8.67305 
292 ,54.4145 ,1.18794 ,0.88050 ,8.63947 
293 ,54.6064 ,1.18985 ,0.86681 ,8.50515 
294 ,54.8307 ,1.19193 ,0.84628 ,8.30368 
295 ,55.0064 ,1.19399 ,0.84286 ,8.27011 
296 ,55.1989 ,1.19578 ,0.83601 ,8.20295 
297 ,55.4070 ,1.19782 ,0.81548 ,8.00148 
298 ,55.6147 ,1.19998 ,0.81890 ,8.03506 
299 ,55.8228 ,1.20199 ,0.79495 ,7.80001 
300 ,56.0468 ,1.20416 ,0.77099 ,7.56496 
301 ,56.2232 ,1.20604 ,0.75388 ,7.39707 
302 ,56.4472 ,1.20815 ,0.75046 ,7.36349 
303 ,56.6395 ,1.21030 ,0.74361 ,7.29633 
304 ,56.8154 ,1.21200 ,0.72992 ,7.16202 
305 ,56.9914 ,1.21375 ,0.71624 ,7.02771 
306 ,57.1833 ,1.21563 ,0.69570 ,6.82624 
307 ,57.3758 ,1.21753 ,0.68544 ,6.72550 
308 ,57.5678 ,1.21954 ,0.67859 ,6.65835 
309 ,57.7759 ,1.22152 ,0.65121 ,6.38972 
310 ,57.9679 ,1.22350 ,0.63068 ,6.18825 
311 ,58.1601 ,1.22550 ,0.63753 ,6.25541 
312 ,58.3363 ,1.22725 ,0.63068 ,6.18825 
313 ,58.5281 ,1.22916 ,0.60673 ,5.95320 
314 ,58.6881 ,1.23083 ,0.58619 ,5.75173 
315 ,58.8803 ,1.23261 ,0.59304 ,5.81889 
316 ,59.0722 ,1.23455 ,0.57935 ,5.68458 
317 ,59.2485 ,1.23636 ,0.56224 ,5.51668 
318 ,59.4405 ,1.23822 ,0.55197 ,5.41595 
319 ,59.6326 ,1.24009 ,0.53828 ,5.28164 
320 ,59.8084 ,1.24197 ,0.52802 ,5.18090 
321 ,59.9847 ,1.24366 ,0.50748 ,4.97943 
322 ,60.1607 ,1.24551 ,0.51775 ,5.08017 
323 ,60.3366 ,1.24722 ,0.51091 ,5.01301 
324 ,60.4969 ,1.24895 ,0.49380 ,4.84512 
325 ,60.6730 ,1.25057 ,0.49380 ,4.84512 
326 ,60.8491 ,1.25235 ,0.47326 ,4.64365 
327 ,61.0413 ,1.25420 ,0.45957 ,4.50934 
328 ,61.2173 ,1.25609 ,0.45273 ,4.44218 
329 ,61.4092 ,1.25791 ,0.43904 ,4.30787 
330 ,61.5852 ,1.25968 ,0.41851 ,4.10640 
331 ,61.7934 ,1.26172 ,0.42193 ,4.13997 
332 ,62.0015 ,1.26379 ,0.40140 ,3.93850 
333 ,62.1936 ,1.26568 ,0.39113 ,3.83777 
334 ,62.3855 ,1.26768 ,0.37744 ,3.70346 
335 ,62.5773 ,1.26956 ,0.38429 ,3.77061 
336 ,62.7539 ,1.27137 ,0.37060 ,3.63630 
337 ,62.9460 ,1.27328 ,0.34322 ,3.36767 
338 ,63.1383 ,1.27516 ,0.34664 ,3.40125 
339 ,63.3139 ,1.27701 ,0.33295 ,3.26694 
340 ,63.4902 ,1.27882 ,0.29873 ,2.93116 
341 ,63.6823 ,1.28061 ,0.31584 ,3.09905 
342 ,63.8584 ,1.28242 ,0.29531 ,2.89758 
343 ,64.0504 ,1.28430 ,0.28504 ,2.79684 
344 ,64.2423 ,1.28618 ,0.27820 ,2.72969 
345 ,64.4666 ,1.28832 ,0.26793 ,2.62895 
346 ,64.6586 ,1.29037 ,0.26109 ,2.56179 
347 ,64.8348 ,1.29223 ,0.24398 ,2.39390 
348 ,65.0269 ,1.29411 ,0.21660 ,2.12528 
349 ,65.2027 ,1.29591 ,0.20633 ,2.02454 
350 ,65.3789 ,1.29760 ,0.20291 ,1.99096 
351 ,65.5551 ,1.29938 ,0.19607 ,1.92381 
352 ,65.7471 ,1.30131 ,0.17896 ,1.75592 
353 ,65.9552 ,1.30335 ,0.17211 ,1.68876 
354 ,66.1632 ,1.30537 ,0.16869 ,1.65518 
355 ,66.3392 ,1.30719 ,0.15842 ,1.55445 
356 ,66.5154 ,1.30900 ,0.13789 ,1.35298 
357 ,66.7394 ,1.31104 ,0.12078 ,1.18508 
358 ,66.9154 ,1.31297 ,0.12078 ,1.18508 
359 ,67.0917 ,1.31474 ,0.10025 ,0.98361 
360 ,67.2838 ,1.31660 ,0.08314 ,0.81572 
361 ,67.4595 ,1.31842 ,0.08998 ,0.88288 
362 ,67.6680 ,1.32034 ,0.05918 ,0.58067 
363 ,67.8439 ,1.32222 ,0.05576 ,0.54710 
364 ,68.0036 ,1.32399 ,0.05918 ,0.58067 
365 ,68.1800 ,1.32559 ,0.04549 ,0.44636 
366 ,68.3561 ,1.32740 ,0.03865 ,0.37920 
367 ,68.5483 ,1.32931 ,0.01127 ,0.11058 
368 ,68.7563 ,1.33127 ,0.00785 ,0.07700 
369 ,68.9484 ,1.33331 ,-0.01269 ,-0.12447 
370 ,69.1564 ,1.33522 ,-0.01611 ,-0.15805 
371 ,69.3806 ,1.33748 ,-0.02980 ,-0.29236 
372 ,69.5725 ,1.33954 ,-0.03664 ,-0.35952 
373 ,69.7648 ,1.34137 ,-0.02980 ,-0.29236 
374 ,69.9565 ,1.34328 ,-0.05375 ,-0.52741 
375 ,70.1329 ,1.34516 ,-0.06402 ,-0.62814 
376 ,70.3089 ,1.34688 ,-0.09140 ,-0.89677 
377 ,70.4851 ,1.34869 ,-0.09824 ,-0.96393 
378 ,70.7090 ,1.35067 ,-0.09824 ,-0.96393 
379 ,70.8850 ,1.35267 ,-0.10166 ,-0.99751 
380 ,71.0772 ,1.35454 ,-0.11193 ,-1.09824 
381 ,71.2529 ,1.35630 ,-0.13588 ,-1.33329 
382 ,71.4454 ,1.35822 ,-0.12904 ,-1.26613 
383 ,71.6535 ,1.36023 ,-0.13246 ,-1.29971 
384 ,71.8455 ,1.36226 ,-0.15642 ,-1.53476 
385 ,72.0217 ,1.36398 ,-0.15642 ,-1.53476 
386 ,72.2133 ,1.36590 ,-0.17011 ,-1.66907 
387 ,72.3899 ,1.36771 ,-0.19748 ,-1.93770 
388 ,72.5817 ,1.36968 ,-0.19064 ,-1.87054 
389 ,72.7416 ,1.37134 ,-0.20433 ,-2.00485 
390 ,72.9176 ,1.37297 ,-0.20433 ,-2.00485 
391 ,73.0778 ,1.37472 ,-0.22144 ,-2.17275 
392 ,73.2379 ,1.37631 ,-0.22486 ,-2.20632 
393 ,73.4300 ,1.37805 ,-0.25224 ,-2.47495 
394 ,73.6220 ,1.37998 ,-0.24539 ,-2.40779 
395 ,73.7822 ,1.38172 ,-0.25566 ,-2.50853 
396 ,73.9585 ,1.38335 ,-0.25566 ,-2.50853 
397 ,74.1505 ,1.38529 ,-0.27619 ,-2.71000 
398 ,74.3583 ,1.38721 ,-0.28304 ,-2.77716 
399 ,74.5348 ,1.38918 ,-0.29330 ,-2.87789 
400 ,74.7269 ,1.39106 ,-0.30015 ,-2.94505 
401 ,74.9189 ,1.39293 ,-0.31041 ,-3.04578 
402 ,75.1111 ,1.39490 ,-0.32752 ,-3.21367 
403 ,75.3030 ,1.39676 ,-0.32752 ,-3.21367 
404 ,75.4951 ,1.39870 ,-0.34464 ,-3.38156 
405 ,75.6871 ,1.40057 ,-0.34464 ,-3.38156 
406 ,75.8952 ,1.40266 ,-0.37886 ,-3.71735 
407 ,76.0873 ,1.40459 ,-0.36859 ,-3.61661 
408 ,76.2793 ,1.40653 ,-0.38228 ,-3.75093 
409 ,76.4555 ,1.40836 ,-0.39597 ,-3.88524 
410 ,76.6472 ,1.41023 ,-0.40281 ,-3.95240 
411 ,76.8556 ,1.41234 ,-0.40966 ,-4.01955 
412 ,77.0477 ,1.41424 ,-0.41992 ,-4.12029 
413 ,77.2238 ,1.41603 ,-0.43361 ,-4.25460 
414 ,77.4159 ,1.41795 ,-0.45414 ,-4.45607 
415 ,77.6238 ,1.41995 ,-0.45757 ,-4.48965 
416 ,77.7999 ,1.42176 ,-0.45072 ,-4.42249 
417 ,78.0079 ,1.42381 ,-0.46441 ,-4.55681 
418 ,78.2000 ,1.42571 ,-0.47468 ,-4.65754 
419 ,78.4082 ,1.42769 ,-0.49863 ,-4.89259 
420 ,78.6004 ,1.42980 ,-0.48837 ,-4.79185 
421 ,78.7923 ,1.43166 ,-0.50548 ,-4.95975 
422 ,78.9844 ,1.43351 ,-0.51232 ,-5.02690 
423 ,79.1765 ,1.43543 ,-0.52259 ,-5.12764 
424 ,79.3846 ,1.43743 ,-0.52601 ,-5.16121 
425 ,79.5606 ,1.43937 ,-0.53970 ,-5.29553 
426 ,79.7364 ,1.44111 ,-0.55681 ,-5.46342 
427 ,79.9127 ,1.44286 ,-0.57050 ,-5.59773 
428 ,80.1208 ,1.44499 ,-0.58419 ,-5.73205 
429 ,80.2970 ,1.44674 ,-0.59445 ,-5.83278 
430 ,80.4891 ,1.44856 ,-0.57734 ,-5.66489 
431 ,80.6811 ,1.45052 ,-0.60130 ,-5.89994 
432 ,80.8893 ,1.45263 ,-0.59445 ,-5.83278 
433 ,81.0973 ,1.45466 ,-0.62525 ,-6.13499 
434 ,81.2894 ,1.45654 ,-0.63210 ,-6.20214 
435 ,81.4815 ,1.45862 ,-0.65263 ,-6.40361 
436 ,81.6575 ,1.46035 ,-0.65947 ,-6.47077 
437 ,81.8494 ,1.46228 ,-0.65605 ,-6.43719 
438 ,82.0416 ,1.46419 ,-0.66290 ,-6.50435 
439 ,82.2338 ,1.46610 ,-0.68001 ,-6.67224 
440 ,82.4095 ,1.46785 ,-0.68343 ,-6.70582 
441 ,82.5859 ,1.46964 ,-0.70054 ,-6.87371 
442 ,82.7780 ,1.47153 ,-0.68343 ,-6.70582 
443 ,82.9539 ,1.47331 ,-0.70739 ,-6.94086 
444 ,83.1462 ,1.47524 ,-0.70054 ,-6.87371 
445 ,83.3382 ,1.47716 ,-0.72792 ,-7.14233 
446 ,83.5144 ,1.47885 ,-0.73476 ,-7.20949 
447 ,83.7384 ,1.48102 ,-0.71423 ,-7.00802 
448 ,83.9305 ,1.48300 ,-0.74161 ,-7.27665 
449 ,84.1222 ,1.48487 ,-0.72792 ,-7.14233 
450 ,84.2987 ,1.48674 ,-0.75872 ,-7.44454 
451 ,84.5068 ,1.48875 ,-0.75872 ,-7.44454 
452 ,84.6987 ,1.49067 ,-0.78610 ,-7.71317 
453 ,84.8750 ,1.49254 ,-0.79294 ,-7.78032 
454 ,85.0670 ,1.49436 ,-0.77583 ,-7.61243 
455 ,85.2591 ,1.49628 ,-0.81005 ,-7.94821 
456 ,85.4512 ,1.49828 ,-0.78952 ,-7.74674 
457 ,85.6273 ,1.50003 ,-0.79978 ,-7.84748 
458 ,85.8193 ,1.50197 ,-0.82374 ,-8.08253 
459 ,85.9952 ,1.50373 ,-0.84427 ,-8.28400 
460 ,86.1713 ,1.50545 ,-0.83743 ,-8.21684 
461 ,86.3635 ,1.50733 ,-0.83743 ,-8.21684 
462 ,86.5714 ,1.50942 ,-0.86138 ,-8.45189 
463 ,86.7636 ,1.51133 ,-0.86138 ,-8.45189 
