Data stamp = , 21-04-2022 00:09:35 412

Calibration Values: 
Slope = , 26.54 , g/V 
Offset Voltage at no contact = , -0.501760 , V 

No , Time , Stage Position ,   Mass , Force 
   ,  (s) ,      (mm)      ,   (g)  , (mN)  

1 ,0.0000 ,0.64934 ,5.27114 ,51.72043 
2 ,0.2287 ,0.64943 ,5.28141 ,51.82116 
3 ,0.7092 ,0.65089 ,5.27798 ,51.78758 
4 ,0.9170 ,0.65322 ,5.26772 ,51.68685 
5 ,1.0934 ,0.65504 ,5.29167 ,51.92190 
6 ,1.3013 ,0.65698 ,5.28483 ,51.85474 
7 ,1.5096 ,0.65914 ,5.29852 ,51.98905 
8 ,1.7016 ,0.66102 ,5.27114 ,51.72043 
9 ,1.8938 ,0.66300 ,5.24718 ,51.48538 
10 ,2.0859 ,0.66491 ,5.23007 ,51.31749 
11 ,2.2937 ,0.66693 ,5.21981 ,51.21675 
12 ,2.5019 ,0.66899 ,5.18901 ,50.91455 
13 ,2.6937 ,0.67091 ,5.18216 ,50.84739 
14 ,2.8701 ,0.67275 ,5.16848 ,50.71308 
15 ,3.0299 ,0.67448 ,5.15136 ,50.54519 
16 ,3.2063 ,0.67619 ,5.13425 ,50.37729 
17 ,3.3984 ,0.67806 ,5.10003 ,50.04151 
18 ,3.5905 ,0.67994 ,5.09661 ,50.00793 
19 ,3.7825 ,0.68182 ,5.05554 ,49.60499 
20 ,3.9586 ,0.68364 ,5.04528 ,49.50426 
21 ,4.1503 ,0.68549 ,5.03843 ,49.43710 
22 ,4.3268 ,0.68731 ,5.01790 ,49.23563 
23 ,4.5188 ,0.68921 ,5.00763 ,49.13490 
24 ,4.7269 ,0.69125 ,4.98026 ,48.86627 
25 ,4.9028 ,0.69314 ,4.96315 ,48.69838 
26 ,5.0789 ,0.69483 ,4.95288 ,48.59764 
27 ,5.2549 ,0.69667 ,4.92892 ,48.36260 
28 ,5.4629 ,0.69865 ,4.90497 ,48.12755 
29 ,5.6391 ,0.70046 ,4.89470 ,48.02681 
30 ,5.8312 ,0.70238 ,4.88444 ,47.92608 
31 ,6.0072 ,0.70419 ,4.87075 ,47.79177 
32 ,6.1833 ,0.70587 ,4.84679 ,47.55672 
33 ,6.3593 ,0.70772 ,4.81599 ,47.25451 
34 ,6.5356 ,0.70944 ,4.81941 ,47.28809 
35 ,6.7276 ,0.71126 ,4.78177 ,46.91873 
36 ,6.9199 ,0.71330 ,4.77493 ,46.85157 
37 ,7.1115 ,0.71508 ,4.75782 ,46.68368 
38 ,7.2718 ,0.71688 ,4.72702 ,46.38148 
39 ,7.4479 ,0.71853 ,4.70306 ,46.14643 
40 ,7.6561 ,0.72057 ,4.69964 ,46.11285 
41 ,7.8320 ,0.72239 ,4.68253 ,45.94496 
42 ,8.0238 ,0.72427 ,4.67226 ,45.84422 
43 ,8.2162 ,0.72613 ,4.65515 ,45.67633 
44 ,8.4078 ,0.72818 ,4.64146 ,45.54202 
45 ,8.5844 ,0.72994 ,4.61066 ,45.23981 
46 ,8.7764 ,0.73181 ,4.59697 ,45.10550 
47 ,8.9522 ,0.73353 ,4.58328 ,44.97119 
48 ,9.1285 ,0.73532 ,4.55933 ,44.73614 
49 ,9.3045 ,0.73713 ,4.54222 ,44.56825 
50 ,9.4805 ,0.73885 ,4.53880 ,44.53467 
51 ,9.6727 ,0.74076 ,4.50457 ,44.19889 
52 ,9.8648 ,0.74273 ,4.49431 ,44.09815 
53 ,10.0570 ,0.74456 ,4.46351 ,43.79595 
54 ,10.2648 ,0.74655 ,4.46693 ,43.82953 
55 ,10.4731 ,0.74869 ,4.43613 ,43.52732 
56 ,10.6488 ,0.75058 ,4.42586 ,43.42659 
57 ,10.8252 ,0.75230 ,4.40875 ,43.25870 
58 ,11.0173 ,0.75412 ,4.39849 ,43.15796 
59 ,11.2256 ,0.75624 ,4.36427 ,42.82218 
60 ,11.4175 ,0.75816 ,4.34373 ,42.62071 
61 ,11.5936 ,0.75996 ,4.32662 ,42.45282 
62 ,11.7856 ,0.76179 ,4.31636 ,42.35208 
63 ,11.9778 ,0.76379 ,4.28213 ,42.01630 
64 ,12.1696 ,0.76565 ,4.28556 ,42.04988 
65 ,12.3460 ,0.76753 ,4.25133 ,41.71409 
66 ,12.5539 ,0.76947 ,4.25818 ,41.78125 
67 ,12.7296 ,0.77134 ,4.23422 ,41.54620 
68 ,12.9061 ,0.77313 ,4.21711 ,41.37831 
69 ,13.0980 ,0.77498 ,4.18974 ,41.10968 
70 ,13.2903 ,0.77688 ,4.18631 ,41.07611 
71 ,13.4983 ,0.77896 ,4.15209 ,40.74032 
72 ,13.6744 ,0.78075 ,4.13156 ,40.53885 
73 ,13.8504 ,0.78259 ,4.11445 ,40.37096 
74 ,14.0265 ,0.78430 ,4.10760 ,40.30380 
75 ,14.2024 ,0.78606 ,4.07338 ,39.96802 
76 ,14.3787 ,0.78779 ,4.08365 ,40.06876 
77 ,14.5547 ,0.78953 ,4.07338 ,39.96802 
78 ,14.7309 ,0.79131 ,4.04600 ,39.69940 
79 ,14.9064 ,0.79316 ,4.02547 ,39.49793 
80 ,15.0829 ,0.79485 ,4.00152 ,39.26288 
81 ,15.2906 ,0.79686 ,3.98441 ,39.09499 
82 ,15.4831 ,0.79874 ,3.96729 ,38.92709 
83 ,15.6750 ,0.80072 ,3.94676 ,38.72562 
84 ,15.8672 ,0.80265 ,3.93307 ,38.59131 
85 ,16.0589 ,0.80457 ,3.93650 ,38.62489 
86 ,16.2510 ,0.80655 ,3.89543 ,38.22195 
87 ,16.4271 ,0.80832 ,3.87832 ,38.05406 
88 ,16.6034 ,0.80999 ,3.88516 ,38.12122 
89 ,16.7796 ,0.81183 ,3.87147 ,37.98690 
90 ,16.9712 ,0.81372 ,3.82699 ,37.55038 
91 ,17.1478 ,0.81550 ,3.81672 ,37.44965 
92 ,17.3398 ,0.81740 ,3.80645 ,37.34891 
93 ,17.5161 ,0.81920 ,3.79961 ,37.28176 
94 ,17.7077 ,0.82109 ,3.76196 ,36.91240 
95 ,17.8999 ,0.82301 ,3.75854 ,36.87882 
96 ,18.0759 ,0.82474 ,3.74828 ,36.77808 
97 ,18.2681 ,0.82664 ,3.72090 ,36.50946 
98 ,18.4442 ,0.82845 ,3.71748 ,36.47588 
99 ,18.6205 ,0.83021 ,3.70379 ,36.34157 
100 ,18.8122 ,0.83212 ,3.66614 ,35.97220 
101 ,19.0046 ,0.83397 ,3.66272 ,35.93863 
102 ,19.1801 ,0.83585 ,3.63534 ,35.67000 
103 ,19.3564 ,0.83760 ,3.61481 ,35.46853 
104 ,19.5489 ,0.83949 ,3.61481 ,35.46853 
105 ,19.7569 ,0.84155 ,3.58059 ,35.13275 
106 ,19.9650 ,0.84356 ,3.57375 ,35.06559 
107 ,20.1570 ,0.84557 ,3.54295 ,34.76338 
108 ,20.3485 ,0.84747 ,3.53952 ,34.72981 
109 ,20.5406 ,0.84933 ,3.51215 ,34.46118 
110 ,20.7167 ,0.85121 ,3.50530 ,34.39402 
111 ,20.9091 ,0.85305 ,3.48819 ,34.22613 
112 ,21.1174 ,0.85521 ,3.45739 ,33.92393 
113 ,21.3090 ,0.85713 ,3.44713 ,33.82319 
114 ,21.5014 ,0.85892 ,3.41975 ,33.55457 
115 ,21.6936 ,0.86085 ,3.41975 ,33.55457 
116 ,21.8857 ,0.86277 ,3.38895 ,33.25236 
117 ,22.1095 ,0.86499 ,3.37868 ,33.15163 
118 ,22.3017 ,0.86694 ,3.35130 ,32.88300 
119 ,22.4779 ,0.86875 ,3.34104 ,32.78227 
120 ,22.6379 ,0.87047 ,3.33077 ,32.68153 
121 ,22.8139 ,0.87214 ,3.32393 ,32.61437 
122 ,22.9899 ,0.87389 ,3.29655 ,32.34575 
123 ,23.1982 ,0.87593 ,3.28628 ,32.24501 
124 ,23.3741 ,0.87775 ,3.27602 ,32.14428 
125 ,23.5499 ,0.87947 ,3.26917 ,32.07712 
126 ,23.7265 ,0.88121 ,3.22126 ,31.60702 
127 ,23.9187 ,0.88321 ,3.22811 ,31.67418 
128 ,24.0945 ,0.88490 ,3.21784 ,31.57345 
129 ,24.2867 ,0.88679 ,3.17335 ,31.13693 
130 ,24.4783 ,0.88872 ,3.17677 ,31.17051 
131 ,24.6382 ,0.89048 ,3.16651 ,31.06977 
132 ,24.8146 ,0.89211 ,3.14597 ,30.86830 
133 ,24.9908 ,0.89390 ,3.12886 ,30.70041 
134 ,25.1826 ,0.89580 ,3.09806 ,30.39821 
135 ,25.3751 ,0.89769 ,3.09122 ,30.33105 
136 ,25.5511 ,0.89952 ,3.07069 ,30.12958 
137 ,25.7429 ,0.90137 ,3.05358 ,29.96169 
138 ,25.9194 ,0.90317 ,3.06042 ,30.02884 
139 ,26.1274 ,0.90519 ,3.01251 ,29.55875 
140 ,26.3195 ,0.90720 ,3.02620 ,29.69306 
141 ,26.4954 ,0.90898 ,3.00567 ,29.49159 
142 ,26.6716 ,0.91072 ,2.97487 ,29.18939 
143 ,26.8634 ,0.91265 ,2.96118 ,29.05507 
144 ,27.0557 ,0.91453 ,2.94064 ,28.85360 
145 ,27.2316 ,0.91628 ,2.92011 ,28.65213 
146 ,27.4240 ,0.91817 ,2.92011 ,28.65213 
147 ,27.5999 ,0.92010 ,2.89616 ,28.41709 
148 ,27.7758 ,0.92176 ,2.88247 ,28.28277 
149 ,27.9681 ,0.92358 ,2.87562 ,28.21562 
150 ,28.1761 ,0.92566 ,2.83456 ,27.81268 
151 ,28.3682 ,0.92763 ,2.83456 ,27.81268 
152 ,28.5443 ,0.92944 ,2.82429 ,27.71194 
153 ,28.7364 ,0.93123 ,2.80376 ,27.51047 
154 ,28.9279 ,0.93333 ,2.78665 ,27.34258 
155 ,29.1039 ,0.93510 ,2.75585 ,27.04038 
156 ,29.2805 ,0.93674 ,2.75927 ,27.07395 
157 ,29.4567 ,0.93855 ,2.72847 ,26.77175 
158 ,29.6485 ,0.94043 ,2.73189 ,26.80533 
159 ,29.8568 ,0.94254 ,2.70794 ,26.57028 
160 ,30.0166 ,0.94423 ,2.70452 ,26.53670 
161 ,30.1930 ,0.94591 ,2.68056 ,26.30165 
162 ,30.4010 ,0.94792 ,2.67029 ,26.20092 
163 ,30.5772 ,0.94976 ,2.65318 ,26.03303 
164 ,30.7852 ,0.95170 ,2.64976 ,25.99945 
165 ,30.9773 ,0.95375 ,2.61212 ,25.63009 
166 ,31.1369 ,0.95546 ,2.60869 ,25.59651 
167 ,31.3134 ,0.95706 ,2.59501 ,25.46220 
168 ,31.5056 ,0.95893 ,2.56078 ,25.12641 
169 ,31.6976 ,0.96092 ,2.55052 ,25.02568 
170 ,31.8734 ,0.96270 ,2.55052 ,25.02568 
171 ,32.0815 ,0.96464 ,2.51630 ,24.68989 
172 ,32.2737 ,0.96664 ,2.51972 ,24.72347 
173 ,32.4817 ,0.96871 ,2.48207 ,24.35411 
174 ,32.6580 ,0.97054 ,2.46839 ,24.21980 
175 ,32.8661 ,0.97251 ,2.45812 ,24.11906 
176 ,33.0742 ,0.97464 ,2.46496 ,24.18622 
177 ,33.2502 ,0.97650 ,2.42048 ,23.74970 
178 ,33.4264 ,0.97822 ,2.41705 ,23.71612 
179 ,33.6344 ,0.98022 ,2.40336 ,23.58181 
180 ,33.8103 ,0.98207 ,2.38968 ,23.44750 
181 ,34.0187 ,0.98410 ,2.38625 ,23.41392 
182 ,34.2267 ,0.98604 ,2.35203 ,23.07814 
183 ,34.4028 ,0.98796 ,2.32465 ,22.80951 
184 ,34.5949 ,0.98996 ,2.32808 ,22.84309 
185 ,34.7869 ,0.99172 ,2.30070 ,22.57446 
186 ,34.9949 ,0.99385 ,2.29043 ,22.47373 
187 ,35.1711 ,0.99564 ,2.26990 ,22.27226 
188 ,35.3627 ,0.99754 ,2.25963 ,22.17152 
189 ,35.5392 ,0.99933 ,2.25279 ,22.10437 
190 ,35.7312 ,1.00114 ,2.21857 ,21.76858 
191 ,35.9393 ,1.00329 ,2.21515 ,21.73500 
192 ,36.1151 ,1.00506 ,2.20488 ,21.63427 
193 ,36.3075 ,1.00703 ,2.18092 ,21.39922 
194 ,36.4993 ,1.00886 ,2.18435 ,21.43280 
195 ,36.6916 ,1.01079 ,2.14670 ,21.06344 
196 ,36.8677 ,1.01259 ,2.13986 ,20.99628 
197 ,37.0598 ,1.01455 ,2.13644 ,20.96270 
198 ,37.2516 ,1.01641 ,2.09879 ,20.59334 
199 ,37.4278 ,1.01822 ,2.09879 ,20.59334 
200 ,37.6040 ,1.01992 ,2.08510 ,20.45903 
201 ,37.8280 ,1.02218 ,2.06115 ,20.22398 
202 ,38.0202 ,1.02406 ,2.06115 ,20.22398 
203 ,38.2280 ,1.02618 ,2.04404 ,20.05609 
204 ,38.4043 ,1.02794 ,2.03377 ,19.95535 
205 ,38.5800 ,1.02975 ,2.01324 ,19.75388 
206 ,38.7566 ,1.03154 ,1.99613 ,19.58599 
207 ,38.9486 ,1.03344 ,1.99270 ,19.55241 
208 ,39.1726 ,1.03545 ,1.98244 ,19.45168 
209 ,39.3806 ,1.03766 ,1.94137 ,19.04874 
210 ,39.5568 ,1.03953 ,1.92426 ,18.88085 
211 ,39.7328 ,1.04123 ,1.91399 ,18.78011 
212 ,39.9084 ,1.04300 ,1.91057 ,18.74654 
213 ,40.0848 ,1.04475 ,1.89346 ,18.57864 
214 ,40.2770 ,1.04663 ,1.87293 ,18.37717 
215 ,40.4690 ,1.04854 ,1.86266 ,18.27644 
216 ,40.6606 ,1.05050 ,1.85582 ,18.20928 
217 ,40.8529 ,1.05241 ,1.83186 ,17.97423 
218 ,41.0451 ,1.05435 ,1.83871 ,18.04139 
219 ,41.2215 ,1.05615 ,1.80791 ,17.73919 
220 ,41.4134 ,1.05803 ,1.79764 ,17.63845 
221 ,41.5896 ,1.05976 ,1.79080 ,17.57129 
222 ,41.7656 ,1.06160 ,1.77026 ,17.36983 
223 ,41.9577 ,1.06343 ,1.74973 ,17.16836 
224 ,42.1497 ,1.06537 ,1.74631 ,17.13478 
225 ,42.3416 ,1.06727 ,1.73946 ,17.06762 
226 ,42.5338 ,1.06925 ,1.71209 ,16.79899 
227 ,42.7100 ,1.07100 ,1.70182 ,16.69826 
228 ,42.9177 ,1.07292 ,1.68813 ,16.56395 
229 ,43.0939 ,1.07490 ,1.67786 ,16.46321 
230 ,43.2862 ,1.07673 ,1.64364 ,16.12743 
231 ,43.4784 ,1.07862 ,1.64022 ,16.09385 
232 ,43.6539 ,1.08047 ,1.63338 ,16.02669 
233 ,43.9901 ,1.08379 ,1.61284 ,15.82522 
234 ,44.1826 ,1.08565 ,1.58204 ,15.52302 
235 ,44.3907 ,1.08777 ,1.57178 ,15.42228 
236 ,44.5825 ,1.08964 ,1.55467 ,15.25439 
237 ,44.7588 ,1.09149 ,1.54098 ,15.12008 
238 ,44.9349 ,1.09321 ,1.54440 ,15.15366 
239 ,45.1106 ,1.09505 ,1.51702 ,14.88503 
240 ,45.2869 ,1.09675 ,1.50333 ,14.75072 
241 ,45.4792 ,1.09869 ,1.51018 ,14.81787 
242 ,45.6711 ,1.10060 ,1.46227 ,14.34778 
243 ,45.8474 ,1.10241 ,1.45542 ,14.28062 
244 ,46.0393 ,1.10426 ,1.45885 ,14.31420 
245 ,46.2155 ,1.10605 ,1.44516 ,14.17989 
246 ,46.4237 ,1.10808 ,1.41436 ,13.87768 
247 ,46.6156 ,1.11009 ,1.41094 ,13.84410 
248 ,46.7915 ,1.11182 ,1.38698 ,13.60906 
249 ,46.9998 ,1.11381 ,1.39040 ,13.64263 
250 ,47.1914 ,1.11574 ,1.36645 ,13.40759 
251 ,47.3679 ,1.11758 ,1.35276 ,13.27327 
252 ,47.5598 ,1.11949 ,1.35618 ,13.30685 
253 ,47.7360 ,1.12130 ,1.33907 ,13.13896 
254 ,47.9281 ,1.12321 ,1.32880 ,13.03822 
255 ,48.1202 ,1.12503 ,1.31854 ,12.93749 
256 ,48.2958 ,1.12685 ,1.29458 ,12.70244 
257 ,48.4883 ,1.12873 ,1.28774 ,12.63528 
258 ,48.6962 ,1.13082 ,1.26720 ,12.43381 
259 ,48.8725 ,1.13262 ,1.24667 ,12.23235 
260 ,49.0645 ,1.13462 ,1.25009 ,12.26592 
261 ,49.2401 ,1.13640 ,1.21587 ,11.93014 
262 ,49.4166 ,1.13805 ,1.21245 ,11.89656 
263 ,49.5925 ,1.13981 ,1.19876 ,11.76225 
264 ,49.7688 ,1.14156 ,1.19534 ,11.72867 
265 ,49.9768 ,1.14355 ,1.18850 ,11.66151 
266 ,50.1849 ,1.14562 ,1.17823 ,11.56078 
267 ,50.3769 ,1.14762 ,1.14743 ,11.25857 
268 ,50.5691 ,1.14956 ,1.14401 ,11.22500 
269 ,50.7610 ,1.15154 ,1.12690 ,11.05710 
270 ,50.9372 ,1.15328 ,1.11663 ,10.95637 
271 ,51.1132 ,1.15514 ,1.11321 ,10.92279 
272 ,51.3053 ,1.15688 ,1.09952 ,10.78848 
273 ,51.4813 ,1.15868 ,1.08925 ,10.68774 
274 ,51.6576 ,1.16046 ,1.07214 ,10.51985 
275 ,51.8656 ,1.16244 ,1.06187 ,10.41912 
276 ,52.0576 ,1.16446 ,1.04476 ,10.25123 
277 ,52.2337 ,1.16619 ,1.03450 ,10.15049 
278 ,52.4098 ,1.16806 ,1.01396 ,9.94902 
279 ,52.6015 ,1.16988 ,0.99685 ,9.78113 
280 ,52.7778 ,1.17166 ,0.99343 ,9.74755 
281 ,52.9540 ,1.17339 ,0.96605 ,9.47892 
282 ,53.1301 ,1.17515 ,0.97290 ,9.54608 
283 ,53.3059 ,1.17699 ,0.96948 ,9.51250 
284 ,53.4820 ,1.17870 ,0.93525 ,9.17672 
285 ,53.6579 ,1.18052 ,0.94894 ,9.31103 
286 ,53.8344 ,1.18224 ,0.92499 ,9.07598 
287 ,54.0266 ,1.18413 ,0.90788 ,8.90809 
288 ,54.2344 ,1.18614 ,0.89761 ,8.80736 
289 ,54.4426 ,1.18826 ,0.87023 ,8.53873 
290 ,54.6507 ,1.19023 ,0.88392 ,8.67305 
291 ,54.8264 ,1.19215 ,0.84970 ,8.33726 
292 ,55.0029 ,1.19391 ,0.84286 ,8.27011 
293 ,55.1950 ,1.19575 ,0.84970 ,8.33726 
294 ,55.3708 ,1.19764 ,0.81548 ,8.00148 
295 ,55.5470 ,1.19936 ,0.81206 ,7.96790 
296 ,55.7069 ,1.20107 ,0.80179 ,7.86717 
297 ,55.8672 ,1.20264 ,0.78810 ,7.73285 
298 ,56.0429 ,1.20425 ,0.77784 ,7.63212 
299 ,56.2189 ,1.20608 ,0.77441 ,7.59854 
300 ,56.3953 ,1.20782 ,0.76415 ,7.49780 
301 ,56.5713 ,1.20960 ,0.75730 ,7.43065 
302 ,56.7477 ,1.21136 ,0.73677 ,7.22918 
303 ,56.9393 ,1.21325 ,0.73335 ,7.19560 
304 ,57.1154 ,1.21502 ,0.72308 ,7.09486 
305 ,57.2918 ,1.21675 ,0.69570 ,6.82624 
306 ,57.4837 ,1.21860 ,0.69570 ,6.82624 
307 ,57.6759 ,1.22050 ,0.68886 ,6.75908 
308 ,57.8520 ,1.22234 ,0.65806 ,6.45688 
309 ,58.0281 ,1.22414 ,0.64095 ,6.28899 
310 ,58.2042 ,1.22596 ,0.64437 ,6.32256 
311 ,58.3802 ,1.22771 ,0.62726 ,6.15467 
312 ,58.5722 ,1.22952 ,0.61699 ,6.05394 
313 ,58.7804 ,1.23152 ,0.62726 ,6.15467 
314 ,58.9722 ,1.23357 ,0.58962 ,5.78531 
315 ,59.1485 ,1.23535 ,0.58619 ,5.75173 
316 ,59.3407 ,1.23726 ,0.58962 ,5.78531 
317 ,59.5323 ,1.23923 ,0.58277 ,5.71815 
318 ,59.7085 ,1.24089 ,0.55197 ,5.41595 
319 ,59.8849 ,1.24267 ,0.55882 ,5.48311 
320 ,60.0926 ,1.24474 ,0.55197 ,5.41595 
321 ,60.2690 ,1.24656 ,0.51775 ,5.08017 
322 ,60.4768 ,1.24854 ,0.50064 ,4.91228 
323 ,60.6532 ,1.25044 ,0.49722 ,4.87870 
324 ,60.8452 ,1.25223 ,0.51091 ,5.01301 
325 ,61.0374 ,1.25418 ,0.47326 ,4.64365 
326 ,61.2288 ,1.25609 ,0.47326 ,4.64365 
327 ,61.4055 ,1.25793 ,0.46984 ,4.61007 
328 ,61.5973 ,1.25984 ,0.44588 ,4.37502 
329 ,61.7896 ,1.26168 ,0.44588 ,4.37502 
330 ,61.9814 ,1.26366 ,0.42877 ,4.20713 
331 ,62.1575 ,1.26545 ,0.41166 ,4.03924 
332 ,62.3337 ,1.26718 ,0.37744 ,3.70346 
333 ,62.5097 ,1.26893 ,0.39113 ,3.83777 
334 ,62.6698 ,1.27064 ,0.38771 ,3.80419 
335 ,62.8460 ,1.27232 ,0.38086 ,3.73703 
336 ,63.0218 ,1.27406 ,0.35691 ,3.50199 
337 ,63.2141 ,1.27594 ,0.34664 ,3.40125 
338 ,63.4062 ,1.27791 ,0.34664 ,3.40125 
339 ,63.5983 ,1.27976 ,0.32953 ,3.23336 
340 ,63.7744 ,1.28156 ,0.31926 ,3.13263 
341 ,63.9664 ,1.28345 ,0.30900 ,3.03189 
342 ,64.1426 ,1.28526 ,0.28847 ,2.83042 
343 ,64.3667 ,1.28733 ,0.27478 ,2.69611 
344 ,64.5588 ,1.28941 ,0.26451 ,2.59537 
345 ,64.7508 ,1.29134 ,0.26451 ,2.59537 
346 ,64.9270 ,1.29304 ,0.25424 ,2.49464 
347 ,65.1028 ,1.29485 ,0.23371 ,2.29317 
348 ,65.3106 ,1.29686 ,0.23029 ,2.25959 
349 ,65.5026 ,1.29874 ,0.20976 ,2.05812 
350 ,65.6790 ,1.30065 ,0.18238 ,1.78949 
351 ,65.8711 ,1.30247 ,0.19264 ,1.89023 
352 ,66.0475 ,1.30429 ,0.18580 ,1.82307 
353 ,66.2396 ,1.30617 ,0.17553 ,1.72234 
354 ,66.4313 ,1.30813 ,0.16869 ,1.65518 
355 ,66.6072 ,1.31004 ,0.14473 ,1.42013 
356 ,66.7835 ,1.31161 ,0.13105 ,1.28582 
357 ,66.9913 ,1.31364 ,0.13105 ,1.28582 
358 ,67.1674 ,1.31549 ,0.12078 ,1.18508 
359 ,67.3596 ,1.31734 ,0.10367 ,1.01719 
360 ,67.5356 ,1.31918 ,0.09682 ,0.95004 
361 ,67.7277 ,1.32101 ,0.06945 ,0.68141 
362 ,67.9204 ,1.32302 ,0.07287 ,0.71499 
363 ,68.1121 ,1.32493 ,0.07287 ,0.71499 
364 ,68.2883 ,1.32674 ,0.04891 ,0.47994 
365 ,68.4963 ,1.32865 ,0.04891 ,0.47994 
366 ,68.6723 ,1.33050 ,0.03522 ,0.34563 
367 ,68.8641 ,1.33240 ,0.01811 ,0.17773 
368 ,69.0405 ,1.33417 ,0.01127 ,0.11058 
369 ,69.2167 ,1.33598 ,0.01811 ,0.17773 
370 ,69.3927 ,1.33773 ,-0.00242 ,-0.02373 
371 ,69.5688 ,1.33951 ,-0.01953 ,-0.19163 
372 ,69.7610 ,1.34135 ,-0.01269 ,-0.12447 
373 ,69.9528 ,1.34328 ,-0.02980 ,-0.29236 
374 ,70.1610 ,1.34528 ,-0.04348 ,-0.42667 
375 ,70.3371 ,1.34718 ,-0.04691 ,-0.46025 
376 ,70.5133 ,1.34894 ,-0.05375 ,-0.52741 
377 ,70.6893 ,1.35070 ,-0.07086 ,-0.69530 
378 ,70.8970 ,1.35274 ,-0.08113 ,-0.79604 
379 ,71.0895 ,1.35464 ,-0.09140 ,-0.89677 
380 ,71.2656 ,1.35649 ,-0.10166 ,-0.99751 
381 ,71.4416 ,1.35819 ,-0.09140 ,-0.89677 
382 ,71.6175 ,1.36000 ,-0.10508 ,-1.03108 
383 ,71.7935 ,1.36169 ,-0.12562 ,-1.23255 
384 ,71.9854 ,1.36367 ,-0.11535 ,-1.13182 
385 ,72.1777 ,1.36548 ,-0.14615 ,-1.43402 
386 ,72.3698 ,1.36748 ,-0.17011 ,-1.66907 
387 ,72.5461 ,1.36929 ,-0.16668 ,-1.63549 
388 ,72.7381 ,1.37117 ,-0.18722 ,-1.83696 
389 ,72.9303 ,1.37309 ,-0.19748 ,-1.93770 
390 ,73.1062 ,1.37485 ,-0.19406 ,-1.90412 
391 ,73.2823 ,1.37666 ,-0.19748 ,-1.93770 
392 ,73.4744 ,1.37845 ,-0.22144 ,-2.17275 
393 ,73.6666 ,1.38036 ,-0.21459 ,-2.10559 
394 ,73.8586 ,1.38238 ,-0.24539 ,-2.40779 
395 ,74.0346 ,1.38417 ,-0.23855 ,-2.34064 
396 ,74.2107 ,1.38587 ,-0.25908 ,-2.54211 
397 ,74.4027 ,1.38778 ,-0.25908 ,-2.54211 
398 ,74.5788 ,1.38958 ,-0.26250 ,-2.57569 
399 ,74.7550 ,1.39130 ,-0.28304 ,-2.77716 
400 ,74.9306 ,1.39316 ,-0.27961 ,-2.74358 
401 ,75.1070 ,1.39488 ,-0.28646 ,-2.81073 
402 ,75.2991 ,1.39669 ,-0.30357 ,-2.97863 
403 ,75.4909 ,1.39866 ,-0.30699 ,-3.01220 
404 ,75.6673 ,1.40045 ,-0.31726 ,-3.11294 
405 ,75.8589 ,1.40233 ,-0.34121 ,-3.34799 
406 ,76.0354 ,1.40415 ,-0.34806 ,-3.41514 
407 ,76.2115 ,1.40591 ,-0.33095 ,-3.24725 
408 ,76.4356 ,1.40801 ,-0.38228 ,-3.75093 
409 ,76.6432 ,1.41017 ,-0.38570 ,-3.78450 
410 ,76.8197 ,1.41193 ,-0.37886 ,-3.71735 
411 ,77.0277 ,1.41395 ,-0.39597 ,-3.88524 
412 ,77.2198 ,1.41591 ,-0.42335 ,-4.15387 
413 ,77.3959 ,1.41771 ,-0.41650 ,-4.08671 
414 ,77.5718 ,1.41948 ,-0.41992 ,-4.12029 
415 ,77.7479 ,1.42126 ,-0.42335 ,-4.15387 
416 ,77.9077 ,1.42300 ,-0.44388 ,-4.35534 
417 ,78.0843 ,1.42462 ,-0.45757 ,-4.48965 
418 ,78.2762 ,1.42645 ,-0.44046 ,-4.32176 
419 ,78.4519 ,1.42827 ,-0.47126 ,-4.62396 
420 ,78.6283 ,1.43008 ,-0.47810 ,-4.69112 
421 ,78.8207 ,1.43198 ,-0.49179 ,-4.82543 
422 ,78.9967 ,1.43375 ,-0.51574 ,-5.06048 
423 ,79.1723 ,1.43550 ,-0.49863 ,-4.89259 
424 ,79.3485 ,1.43727 ,-0.50890 ,-4.99332 
425 ,79.5084 ,1.43897 ,-0.53285 ,-5.22837 
426 ,79.6849 ,1.44062 ,-0.52601 ,-5.16121 
427 ,79.8929 ,1.44262 ,-0.53285 ,-5.22837 
428 ,80.1009 ,1.44473 ,-0.55339 ,-5.42984 
429 ,80.2771 ,1.44655 ,-0.55681 ,-5.46342 
430 ,80.4851 ,1.44853 ,-0.58077 ,-5.69847 
431 ,80.6610 ,1.45034 ,-0.58077 ,-5.69847 
432 ,80.8369 ,1.45212 ,-0.58419 ,-5.73205 
433 ,81.0290 ,1.45396 ,-0.60472 ,-5.93352 
434 ,81.2211 ,1.45588 ,-0.58761 ,-5.76562 
435 ,81.3973 ,1.45777 ,-0.59788 ,-5.86636 
436 ,81.6057 ,1.45986 ,-0.63210 ,-6.20214 
437 ,81.7977 ,1.46171 ,-0.61499 ,-6.03425 
438 ,81.9895 ,1.46362 ,-0.64579 ,-6.33646 
439 ,82.1659 ,1.46547 ,-0.64921 ,-6.37003 
440 ,82.3740 ,1.46739 ,-0.65605 ,-6.43719 
441 ,82.5661 ,1.46936 ,-0.67316 ,-6.60508 
442 ,82.7417 ,1.47130 ,-0.68001 ,-6.67224 
443 ,82.9185 ,1.47299 ,-0.66974 ,-6.57150 
444 ,83.1100 ,1.47486 ,-0.69712 ,-6.84013 
445 ,83.2864 ,1.47664 ,-0.69370 ,-6.80655 
446 ,83.4622 ,1.47843 ,-0.70054 ,-6.87371 
447 ,83.6383 ,1.48013 ,-0.69712 ,-6.84013 
448 ,83.8143 ,1.48191 ,-0.71765 ,-7.04160 
449 ,84.0067 ,1.48373 ,-0.72792 ,-7.14233 
450 ,84.1987 ,1.48569 ,-0.72792 ,-7.14233 
451 ,84.3747 ,1.48749 ,-0.75187 ,-7.37738 
452 ,84.5665 ,1.48935 ,-0.75530 ,-7.41096 
453 ,84.7267 ,1.49115 ,-0.75872 ,-7.44454 
454 ,84.8867 ,1.49274 ,-0.76214 ,-7.47812 
455 ,85.0950 ,1.49452 ,-0.76556 ,-7.51170 
456 ,85.3031 ,1.49672 ,-0.77241 ,-7.57885 
457 ,85.4792 ,1.49860 ,-0.78610 ,-7.71317 
458 ,85.6554 ,1.50032 ,-0.80321 ,-7.88106 
459 ,85.8474 ,1.50222 ,-0.80321 ,-7.88106 
460 ,86.0392 ,1.50418 ,-0.83058 ,-8.14968 
461 ,86.2152 ,1.50589 ,-0.82716 ,-8.11611 
462 ,86.4077 ,1.50770 ,-0.84085 ,-8.25042 
463 ,86.6158 ,1.50985 ,-0.83743 ,-8.21684 
