Data stamp = , 21-04-2022 10:43:09 340

Calibration Values: 
Slope = , 26.54 , g/V 
Offset Voltage at no contact = , -0.501760 , V 

No , Time , Stage Position ,   Mass , Force 
   ,  (s) ,      (mm)      ,   (g)  , (mN)  

1 ,0.0000 ,0.64946 ,5.29167 ,51.92190 
2 ,0.2340 ,0.64957 ,5.28483 ,51.85474 
3 ,0.5545 ,0.65046 ,5.29510 ,51.95548 
4 ,0.7464 ,0.65198 ,5.30536 ,52.05621 
5 ,0.9385 ,0.65358 ,5.29852 ,51.98905 
6 ,1.1149 ,0.65533 ,5.28825 ,51.88832 
7 ,1.3230 ,0.65727 ,5.30878 ,52.08979 
8 ,1.5151 ,0.65933 ,5.28141 ,51.82116 
9 ,1.7230 ,0.66137 ,5.28141 ,51.82116 
10 ,1.8992 ,0.66317 ,5.25403 ,51.55254 
11 ,2.0753 ,0.66495 ,5.23692 ,51.38464 
12 ,2.2830 ,0.66690 ,5.21296 ,51.14960 
13 ,2.4596 ,0.66878 ,5.20954 ,51.11602 
14 ,2.6516 ,0.67072 ,5.17190 ,50.74666 
15 ,2.8437 ,0.67253 ,5.15479 ,50.57876 
16 ,3.0513 ,0.67460 ,5.14794 ,50.51161 
17 ,3.2277 ,0.67645 ,5.13083 ,50.34372 
18 ,3.4198 ,0.67835 ,5.09661 ,50.00793 
19 ,3.5959 ,0.68014 ,5.08977 ,49.94078 
20 ,3.7720 ,0.68190 ,5.05897 ,49.63857 
21 ,3.9480 ,0.68364 ,5.05897 ,49.63857 
22 ,4.1076 ,0.68537 ,5.04185 ,49.47068 
23 ,4.3000 ,0.68711 ,5.01106 ,49.16848 
24 ,4.5083 ,0.68915 ,5.00763 ,49.13490 
25 ,4.7002 ,0.69110 ,4.96315 ,48.69838 
26 ,4.8767 ,0.69295 ,4.95630 ,48.63122 
27 ,5.0684 ,0.69482 ,4.94946 ,48.56407 
28 ,5.2441 ,0.69662 ,4.93235 ,48.39618 
29 ,5.4204 ,0.69836 ,4.91523 ,48.22828 
30 ,5.6124 ,0.70028 ,4.89812 ,48.06039 
31 ,5.7888 ,0.70206 ,4.87759 ,47.85892 
32 ,5.9807 ,0.70393 ,4.84679 ,47.55672 
33 ,6.1726 ,0.70585 ,4.83995 ,47.48956 
34 ,6.3489 ,0.70764 ,4.81941 ,47.28809 
35 ,6.5409 ,0.70958 ,4.81941 ,47.28809 
36 ,6.7491 ,0.71154 ,4.78861 ,46.98589 
37 ,6.9411 ,0.71359 ,4.76808 ,46.78442 
38 ,7.1173 ,0.71535 ,4.73386 ,46.44863 
39 ,7.3091 ,0.71728 ,4.72702 ,46.38148 
40 ,7.5174 ,0.71933 ,4.70990 ,46.21359 
41 ,7.7095 ,0.72124 ,4.69279 ,46.04569 
42 ,7.8856 ,0.72306 ,4.67911 ,45.91138 
43 ,8.0779 ,0.72493 ,4.64831 ,45.60918 
44 ,8.2693 ,0.72681 ,4.63804 ,45.50844 
45 ,8.4457 ,0.72860 ,4.63804 ,45.50844 
46 ,8.6219 ,0.73035 ,4.61751 ,45.30697 
47 ,8.7980 ,0.73214 ,4.59013 ,45.03835 
48 ,8.9741 ,0.73389 ,4.56617 ,44.80330 
49 ,9.1501 ,0.73573 ,4.57644 ,44.90403 
50 ,9.3261 ,0.73741 ,4.55591 ,44.70256 
51 ,9.5020 ,0.73916 ,4.53537 ,44.50109 
52 ,9.6785 ,0.74095 ,4.51484 ,44.29962 
53 ,9.8700 ,0.74281 ,4.51484 ,44.29962 
54 ,10.0625 ,0.74471 ,4.47035 ,43.86310 
55 ,10.2705 ,0.74682 ,4.47035 ,43.86310 
56 ,10.4465 ,0.74857 ,4.44298 ,43.59448 
57 ,10.6066 ,0.75034 ,4.42586 ,43.42659 
58 ,10.7827 ,0.75197 ,4.40875 ,43.25870 
59 ,10.9749 ,0.75382 ,4.38138 ,42.99007 
60 ,11.1831 ,0.75593 ,4.36769 ,42.85576 
61 ,11.3750 ,0.75786 ,4.35058 ,42.68786 
62 ,11.5346 ,0.75961 ,4.32662 ,42.45282 
63 ,11.7113 ,0.76127 ,4.29924 ,42.18419 
64 ,11.9033 ,0.76322 ,4.31293 ,42.31850 
65 ,12.0796 ,0.76493 ,4.30951 ,42.28492 
66 ,12.2552 ,0.76679 ,4.26845 ,41.88198 
67 ,12.4314 ,0.76848 ,4.24791 ,41.68051 
68 ,12.6237 ,0.77039 ,4.25476 ,41.74767 
69 ,12.8158 ,0.77226 ,4.20000 ,41.21042 
70 ,13.0238 ,0.77428 ,4.20685 ,41.27758 
71 ,13.2160 ,0.77635 ,4.17605 ,40.97537 
72 ,13.4081 ,0.77816 ,4.17262 ,40.94179 
73 ,13.6161 ,0.78030 ,4.14867 ,40.70674 
74 ,13.7918 ,0.78208 ,4.12814 ,40.50527 
75 ,13.9683 ,0.78383 ,4.12471 ,40.47170 
76 ,14.1602 ,0.78571 ,4.11103 ,40.33738 
77 ,14.3364 ,0.78750 ,4.08023 ,40.03518 
78 ,14.5443 ,0.78944 ,4.08365 ,40.06876 
79 ,14.7206 ,0.79134 ,4.05285 ,39.76655 
80 ,14.8961 ,0.79322 ,4.02889 ,39.53150 
81 ,15.0726 ,0.79489 ,4.01520 ,39.39719 
82 ,15.2486 ,0.79663 ,4.00494 ,39.29646 
83 ,15.4408 ,0.79852 ,3.98783 ,39.12856 
84 ,15.6169 ,0.80033 ,3.96387 ,38.89352 
85 ,15.7929 ,0.80208 ,3.93992 ,38.65847 
86 ,16.0010 ,0.80406 ,3.91938 ,38.45700 
87 ,16.1932 ,0.80606 ,3.90570 ,38.32268 
88 ,16.4008 ,0.80808 ,3.89543 ,38.22195 
89 ,16.5775 ,0.80989 ,3.88174 ,38.08764 
90 ,16.7534 ,0.81164 ,3.85094 ,37.78543 
91 ,16.9452 ,0.81358 ,3.85436 ,37.81901 
92 ,17.1374 ,0.81547 ,3.82014 ,37.48323 
93 ,17.3295 ,0.81747 ,3.81672 ,37.44965 
94 ,17.5056 ,0.81919 ,3.80987 ,37.38249 
95 ,17.6977 ,0.82106 ,3.77565 ,37.04671 
96 ,17.8741 ,0.82289 ,3.75854 ,36.87882 
97 ,18.0654 ,0.82473 ,3.76196 ,36.91240 
98 ,18.2418 ,0.82651 ,3.74143 ,36.71093 
99 ,18.4180 ,0.82831 ,3.72432 ,36.54303 
100 ,18.6102 ,0.83021 ,3.69010 ,36.20725 
101 ,18.8022 ,0.83213 ,3.69010 ,36.20725 
102 ,19.0104 ,0.83417 ,3.68668 ,36.17367 
103 ,19.2024 ,0.83607 ,3.64561 ,35.77073 
104 ,19.3946 ,0.83807 ,3.62508 ,35.56926 
105 ,19.5866 ,0.83996 ,3.61481 ,35.46853 
106 ,19.7788 ,0.84184 ,3.58059 ,35.13275 
107 ,19.9707 ,0.84378 ,3.58743 ,35.19990 
108 ,20.1625 ,0.84564 ,3.57032 ,35.03201 
109 ,20.3387 ,0.84751 ,3.56348 ,34.96485 
110 ,20.5306 ,0.84936 ,3.53610 ,34.69623 
111 ,20.7069 ,0.85120 ,3.50530 ,34.39402 
112 ,20.8990 ,0.85312 ,3.49846 ,34.32687 
113 ,21.0751 ,0.85489 ,3.46766 ,34.02466 
114 ,21.2509 ,0.85663 ,3.47108 ,34.05824 
115 ,21.4272 ,0.85843 ,3.45055 ,33.85677 
116 ,21.6194 ,0.86023 ,3.41975 ,33.55457 
117 ,21.8113 ,0.86216 ,3.40948 ,33.45383 
118 ,22.0195 ,0.86427 ,3.39921 ,33.35310 
119 ,22.2115 ,0.86620 ,3.35815 ,32.95016 
120 ,22.3875 ,0.86797 ,3.35473 ,32.91658 
121 ,22.5637 ,0.86974 ,3.36499 ,33.01731 
122 ,22.7559 ,0.87159 ,3.31708 ,32.54722 
123 ,22.9479 ,0.87353 ,3.31708 ,32.54722 
124 ,23.1241 ,0.87536 ,3.31024 ,32.48006 
125 ,23.3156 ,0.87727 ,3.26917 ,32.07712 
126 ,23.4760 ,0.87898 ,3.25891 ,31.97639 
127 ,23.6523 ,0.88064 ,3.23837 ,31.77492 
128 ,23.8442 ,0.88246 ,3.24180 ,31.80849 
129 ,24.0203 ,0.88428 ,3.22126 ,31.60702 
130 ,24.2123 ,0.88615 ,3.18362 ,31.23766 
131 ,24.3886 ,0.88797 ,3.18020 ,31.20409 
132 ,24.5808 ,0.88981 ,3.16309 ,31.03619 
133 ,24.7725 ,0.89183 ,3.14255 ,30.83472 
134 ,24.9489 ,0.89358 ,3.13229 ,30.73399 
135 ,25.1406 ,0.89549 ,3.13571 ,30.76757 
136 ,25.3164 ,0.89739 ,3.08780 ,30.29747 
137 ,25.4926 ,0.89905 ,3.07753 ,30.19674 
138 ,25.6690 ,0.90083 ,3.06042 ,30.02884 
139 ,25.8608 ,0.90269 ,3.07069 ,30.12958 
140 ,26.0371 ,0.90447 ,3.03989 ,29.82737 
141 ,26.2452 ,0.90645 ,3.02620 ,29.69306 
142 ,26.4373 ,0.90842 ,3.00909 ,29.52517 
143 ,26.6290 ,0.91035 ,2.98855 ,29.32370 
144 ,26.8054 ,0.91217 ,2.97487 ,29.18939 
145 ,26.9975 ,0.91405 ,2.94749 ,28.92076 
146 ,27.1737 ,0.91586 ,2.94407 ,28.88718 
147 ,27.3497 ,0.91763 ,2.93038 ,28.75287 
148 ,27.5414 ,0.91944 ,2.90300 ,28.48424 
149 ,27.7178 ,0.92123 ,2.89616 ,28.41709 
150 ,27.8939 ,0.92301 ,2.86193 ,28.08130 
151 ,28.0861 ,0.92489 ,2.88247 ,28.28277 
152 ,28.2942 ,0.92693 ,2.82087 ,27.67836 
153 ,28.4862 ,0.92891 ,2.84140 ,27.87983 
154 ,28.6784 ,0.93087 ,2.82087 ,27.67836 
155 ,28.8861 ,0.93286 ,2.80718 ,27.54405 
156 ,29.0786 ,0.93486 ,2.78665 ,27.34258 
157 ,29.2705 ,0.93680 ,2.77638 ,27.24185 
158 ,29.4466 ,0.93858 ,2.75243 ,27.00680 
159 ,29.6386 ,0.94036 ,2.75243 ,27.00680 
160 ,29.8303 ,0.94237 ,2.72847 ,26.77175 
161 ,30.0070 ,0.94418 ,2.71136 ,26.60386 
162 ,30.1989 ,0.94607 ,2.69425 ,26.43597 
163 ,30.3910 ,0.94792 ,2.67372 ,26.23450 
164 ,30.5990 ,0.95008 ,2.66345 ,26.13376 
165 ,30.7910 ,0.95200 ,2.63607 ,25.86514 
166 ,30.9832 ,0.95385 ,2.62581 ,25.76440 
167 ,31.1753 ,0.95578 ,2.61554 ,25.66367 
168 ,31.3674 ,0.95767 ,2.60527 ,25.56293 
169 ,31.5595 ,0.95961 ,2.58816 ,25.39504 
170 ,31.7675 ,0.96171 ,2.57789 ,25.29430 
171 ,31.9592 ,0.96356 ,2.56078 ,25.12641 
172 ,32.1514 ,0.96550 ,2.51972 ,24.72347 
173 ,32.3433 ,0.96750 ,2.52998 ,24.82421 
174 ,32.5196 ,0.96923 ,2.51287 ,24.65632 
175 ,32.6957 ,0.97104 ,2.48207 ,24.35411 
176 ,32.9039 ,0.97305 ,2.47865 ,24.32053 
177 ,33.0795 ,0.97483 ,2.46839 ,24.21980 
178 ,33.2559 ,0.97662 ,2.45127 ,24.05191 
179 ,33.4323 ,0.97836 ,2.43074 ,23.85044 
180 ,33.6241 ,0.98022 ,2.42048 ,23.74970 
181 ,33.7999 ,0.98206 ,2.41705 ,23.71612 
182 ,33.9765 ,0.98384 ,2.39652 ,23.51465 
183 ,34.1684 ,0.98567 ,2.38283 ,23.38034 
184 ,34.3440 ,0.98751 ,2.37256 ,23.27961 
185 ,34.5205 ,0.98927 ,2.36230 ,23.17887 
186 ,34.7126 ,0.99115 ,2.32465 ,22.80951 
187 ,34.9205 ,0.99322 ,2.31781 ,22.74235 
188 ,35.0966 ,0.99503 ,2.30754 ,22.64162 
189 ,35.3205 ,0.99708 ,2.27674 ,22.33941 
190 ,35.5129 ,0.99915 ,2.25963 ,22.17152 
191 ,35.7049 ,1.00101 ,2.25621 ,22.13794 
192 ,35.8971 ,1.00303 ,2.23910 ,21.97005 
193 ,36.0732 ,1.00481 ,2.21172 ,21.70143 
194 ,36.2489 ,1.00656 ,2.20488 ,21.63427 
195 ,36.4252 ,1.00826 ,2.19803 ,21.56711 
196 ,36.6335 ,1.01039 ,2.17408 ,21.33206 
197 ,36.8095 ,1.01221 ,2.17066 ,21.29849 
198 ,36.9856 ,1.01393 ,2.16039 ,21.19775 
199 ,37.1779 ,1.01579 ,2.13644 ,20.96270 
200 ,37.3695 ,1.01771 ,2.12959 ,20.89555 
201 ,37.5618 ,1.01965 ,2.09537 ,20.55976 
202 ,37.7700 ,1.02172 ,2.08510 ,20.45903 
203 ,37.9620 ,1.02366 ,2.09879 ,20.59334 
204 ,38.1540 ,1.02551 ,2.05430 ,20.15682 
205 ,38.3621 ,1.02756 ,2.06115 ,20.22398 
206 ,38.5381 ,1.02943 ,2.03377 ,19.95535 
207 ,38.7463 ,1.03148 ,2.01324 ,19.75388 
208 ,38.9381 ,1.03335 ,1.99613 ,19.58599 
209 ,39.1144 ,1.03524 ,1.98244 ,19.45168 
210 ,39.2903 ,1.03692 ,1.96875 ,19.31737 
211 ,39.4823 ,1.03880 ,1.97902 ,19.41810 
212 ,39.6747 ,1.04070 ,1.93453 ,18.98158 
213 ,39.8666 ,1.04265 ,1.93111 ,18.94801 
214 ,40.0589 ,1.04459 ,1.89688 ,18.61222 
215 ,40.2510 ,1.04657 ,1.87977 ,18.44433 
216 ,40.4429 ,1.04843 ,1.89004 ,18.54507 
217 ,40.6025 ,1.05023 ,1.87293 ,18.37717 
218 ,40.7791 ,1.05180 ,1.84555 ,18.10855 
219 ,40.9552 ,1.05358 ,1.83871 ,18.04139 
220 ,41.1473 ,1.05546 ,1.82844 ,17.94066 
221 ,41.3234 ,1.05733 ,1.82160 ,17.87350 
222 ,41.4993 ,1.05913 ,1.78737 ,17.53772 
223 ,41.6755 ,1.06078 ,1.79422 ,17.60487 
224 ,41.8511 ,1.06256 ,1.76684 ,17.33625 
225 ,42.0273 ,1.06429 ,1.77711 ,17.43698 
226 ,42.2034 ,1.06609 ,1.76684 ,17.33625 
227 ,42.3798 ,1.06779 ,1.74289 ,17.10120 
228 ,42.5559 ,1.06958 ,1.72578 ,16.93331 
229 ,42.7479 ,1.07142 ,1.71893 ,16.86615 
230 ,42.9239 ,1.07324 ,1.71209 ,16.79899 
231 ,43.1161 ,1.07517 ,1.67786 ,16.46321 
232 ,43.2919 ,1.07694 ,1.66075 ,16.29532 
233 ,43.5003 ,1.07898 ,1.64707 ,16.16101 
234 ,43.6923 ,1.08094 ,1.62653 ,15.95954 
235 ,43.8683 ,1.08269 ,1.62311 ,15.92596 
236 ,44.0604 ,1.08467 ,1.60258 ,15.72449 
237 ,44.2527 ,1.08651 ,1.59573 ,15.65733 
238 ,44.4286 ,1.08837 ,1.59916 ,15.69091 
239 ,44.6046 ,1.09012 ,1.58547 ,15.55660 
240 ,44.7967 ,1.09196 ,1.55124 ,15.22081 
241 ,44.9888 ,1.09388 ,1.53756 ,15.08650 
242 ,45.1970 ,1.09594 ,1.52045 ,14.91861 
243 ,45.3887 ,1.09780 ,1.51702 ,14.88503 
244 ,45.5812 ,1.09977 ,1.51702 ,14.88503 
245 ,45.7569 ,1.10161 ,1.47938 ,14.51567 
246 ,45.9491 ,1.10347 ,1.47938 ,14.51567 
247 ,46.1252 ,1.10526 ,1.46569 ,14.38136 
248 ,46.3173 ,1.10719 ,1.43489 ,14.07915 
249 ,46.5092 ,1.10905 ,1.45885 ,14.31420 
250 ,46.7171 ,1.11107 ,1.41436 ,13.87768 
251 ,46.8934 ,1.11296 ,1.41094 ,13.84410 
252 ,47.1015 ,1.11486 ,1.39040 ,13.64263 
253 ,47.2936 ,1.11688 ,1.38014 ,13.54190 
254 ,47.4858 ,1.11888 ,1.36987 ,13.44116 
255 ,47.6778 ,1.12073 ,1.34934 ,13.23969 
256 ,47.8540 ,1.12258 ,1.33565 ,13.10538 
257 ,48.0615 ,1.12448 ,1.33907 ,13.13896 
258 ,48.2380 ,1.12640 ,1.31512 ,12.90391 
259 ,48.4139 ,1.12812 ,1.28432 ,12.60171 
260 ,48.6063 ,1.13006 ,1.29116 ,12.66886 
261 ,48.7822 ,1.13182 ,1.28089 ,12.56813 
262 ,48.9584 ,1.13364 ,1.26036 ,12.36666 
263 ,49.1341 ,1.13532 ,1.25352 ,12.29950 
264 ,49.3106 ,1.13713 ,1.24667 ,12.23235 
265 ,49.5186 ,1.13920 ,1.23641 ,12.13161 
266 ,49.7107 ,1.14115 ,1.21929 ,11.96372 
267 ,49.9027 ,1.14302 ,1.20218 ,11.79583 
268 ,50.0790 ,1.14479 ,1.19876 ,11.76225 
269 ,50.2548 ,1.14659 ,1.18165 ,11.59436 
270 ,50.4309 ,1.14829 ,1.16454 ,11.42647 
271 ,50.6385 ,1.15033 ,1.15427 ,11.32573 
272 ,50.7986 ,1.15210 ,1.14743 ,11.25857 
273 ,50.9750 ,1.15376 ,1.12690 ,11.05710 
274 ,51.1508 ,1.15546 ,1.12347 ,11.02353 
275 ,51.3272 ,1.15727 ,1.13032 ,11.09068 
276 ,51.5194 ,1.15919 ,1.09610 ,10.75490 
277 ,51.7115 ,1.16109 ,1.08241 ,10.62059 
278 ,51.9035 ,1.16300 ,1.06187 ,10.41912 
279 ,52.1116 ,1.16494 ,1.06530 ,10.45270 
280 ,52.3034 ,1.16696 ,1.04476 ,10.25123 
281 ,52.4797 ,1.16880 ,1.03450 ,10.15049 
282 ,52.6878 ,1.17085 ,1.03792 ,10.18407 
283 ,52.8639 ,1.17259 ,1.00370 ,9.84829 
284 ,53.0560 ,1.17444 ,0.99343 ,9.74755 
285 ,53.2481 ,1.17641 ,1.00028 ,9.81471 
286 ,53.4400 ,1.17835 ,0.97290 ,9.54608 
287 ,53.6322 ,1.18029 ,0.96948 ,9.51250 
288 ,53.8245 ,1.18214 ,0.94894 ,9.31103 
289 ,54.0165 ,1.18410 ,0.92841 ,9.10956 
290 ,54.2085 ,1.18601 ,0.92841 ,9.10956 
291 ,54.4002 ,1.18788 ,0.90103 ,8.84094 
292 ,54.5766 ,1.18974 ,0.88734 ,8.70662 
293 ,54.7686 ,1.19162 ,0.89077 ,8.74020 
294 ,54.9448 ,1.19345 ,0.89419 ,8.77378 
295 ,55.1204 ,1.19525 ,0.85654 ,8.40442 
296 ,55.2970 ,1.19697 ,0.84286 ,8.27011 
297 ,55.4891 ,1.19884 ,0.83943 ,8.23653 
298 ,55.6971 ,1.20089 ,0.81890 ,8.03506 
299 ,55.8892 ,1.20291 ,0.81890 ,8.03506 
300 ,56.0814 ,1.20476 ,0.79837 ,7.83359 
301 ,56.2568 ,1.20661 ,0.78810 ,7.73285 
302 ,56.4491 ,1.20839 ,0.77784 ,7.63212 
303 ,56.6250 ,1.21021 ,0.78126 ,7.66570 
304 ,56.8012 ,1.21202 ,0.74361 ,7.29633 
305 ,57.0097 ,1.21414 ,0.75046 ,7.36349 
306 ,57.2017 ,1.21600 ,0.71966 ,7.06129 
307 ,57.3936 ,1.21788 ,0.72308 ,7.09486 
308 ,57.5859 ,1.21984 ,0.70939 ,6.96055 
309 ,57.7620 ,1.22158 ,0.70939 ,6.96055 
310 ,57.9701 ,1.22362 ,0.69570 ,6.82624 
311 ,58.1783 ,1.22570 ,0.65806 ,6.45688 
312 ,58.3863 ,1.22767 ,0.64437 ,6.32256 
313 ,58.5787 ,1.22971 ,0.62726 ,6.15467 
314 ,58.7860 ,1.23175 ,0.64095 ,6.28899 
315 ,58.9624 ,1.23354 ,0.61357 ,6.02036 
316 ,59.1385 ,1.23535 ,0.61357 ,6.02036 
317 ,59.3304 ,1.23720 ,0.61015 ,5.98678 
318 ,59.5067 ,1.23901 ,0.59988 ,5.88605 
319 ,59.6829 ,1.24076 ,0.57935 ,5.68458 
320 ,59.8589 ,1.24260 ,0.55539 ,5.44953 
321 ,60.0347 ,1.24430 ,0.53828 ,5.28164 
322 ,60.2110 ,1.24614 ,0.54513 ,5.34879 
323 ,60.3870 ,1.24783 ,0.54513 ,5.34879 
324 ,60.5630 ,1.24959 ,0.53144 ,5.21448 
325 ,60.7392 ,1.25136 ,0.49380 ,4.84512 
326 ,60.9312 ,1.25331 ,0.50064 ,4.91228 
327 ,61.1074 ,1.25500 ,0.49380 ,4.84512 
328 ,61.3154 ,1.25698 ,0.48011 ,4.71081 
329 ,61.4914 ,1.25885 ,0.46642 ,4.57649 
330 ,61.6676 ,1.26061 ,0.44588 ,4.37502 
331 ,61.8437 ,1.26246 ,0.45615 ,4.47576 
332 ,62.0196 ,1.26421 ,0.42877 ,4.20713 
333 ,62.1957 ,1.26589 ,0.42535 ,4.17355 
334 ,62.3875 ,1.26778 ,0.42535 ,4.17355 
335 ,62.5639 ,1.26960 ,0.40140 ,3.93850 
336 ,62.7559 ,1.27148 ,0.38429 ,3.77061 
337 ,62.9317 ,1.27328 ,0.38429 ,3.77061 
338 ,63.1079 ,1.27503 ,0.37744 ,3.70346 
339 ,63.3001 ,1.27696 ,0.35006 ,3.43483 
340 ,63.4763 ,1.27873 ,0.33638 ,3.30052 
341 ,63.6845 ,1.28068 ,0.35006 ,3.43483 
342 ,63.8763 ,1.28265 ,0.32611 ,3.19978 
343 ,64.0520 ,1.28446 ,0.32269 ,3.16620 
344 ,64.2285 ,1.28622 ,0.30215 ,2.96473 
345 ,64.4364 ,1.28825 ,0.29531 ,2.89758 
346 ,64.6127 ,1.29010 ,0.28504 ,2.79684 
347 ,64.8047 ,1.29193 ,0.27135 ,2.66253 
348 ,64.9967 ,1.29396 ,0.25424 ,2.49464 
349 ,65.1888 ,1.29574 ,0.25767 ,2.52822 
350 ,65.3806 ,1.29768 ,0.22344 ,2.19243 
351 ,65.5566 ,1.29948 ,0.21660 ,2.12528 
352 ,65.7330 ,1.30134 ,0.20976 ,2.05812 
353 ,65.9411 ,1.30330 ,0.19264 ,1.89023 
354 ,66.1169 ,1.30511 ,0.17896 ,1.75592 
355 ,66.3092 ,1.30695 ,0.19607 ,1.92381 
356 ,66.5011 ,1.30887 ,0.18238 ,1.78949 
357 ,66.6934 ,1.31082 ,0.17553 ,1.72234 
358 ,66.8694 ,1.31269 ,0.15500 ,1.52087 
359 ,67.0457 ,1.31441 ,0.14473 ,1.42013 
360 ,67.2535 ,1.31636 ,0.12420 ,1.21866 
361 ,67.4458 ,1.31829 ,0.11736 ,1.15151 
362 ,67.6378 ,1.32031 ,0.10025 ,0.98361 
363 ,67.8300 ,1.32215 ,0.11393 ,1.11793 
364 ,68.0218 ,1.32412 ,0.08656 ,0.84930 
365 ,68.1981 ,1.32591 ,0.07629 ,0.74857 
366 ,68.3897 ,1.32780 ,0.08314 ,0.81572 
367 ,68.5662 ,1.32960 ,0.06945 ,0.68141 
368 ,68.7263 ,1.33132 ,0.04549 ,0.44636 
369 ,68.9345 ,1.33318 ,0.05576 ,0.54710 
370 ,69.1424 ,1.33527 ,0.02838 ,0.27847 
371 ,69.3185 ,1.33716 ,0.02496 ,0.24489 
372 ,69.4944 ,1.33884 ,0.01469 ,0.14416 
373 ,69.6705 ,1.34060 ,0.00785 ,0.07700 
374 ,69.8626 ,1.34253 ,-0.00584 ,-0.05731 
375 ,70.0388 ,1.34430 ,-0.02637 ,-0.25878 
376 ,70.2309 ,1.34613 ,-0.01953 ,-0.19163 
377 ,70.4229 ,1.34808 ,-0.04348 ,-0.42667 
378 ,70.6151 ,1.35002 ,-0.05033 ,-0.49383 
379 ,70.8230 ,1.35212 ,-0.07086 ,-0.69530 
380 ,70.9993 ,1.35391 ,-0.08113 ,-0.79604 
381 ,71.2071 ,1.35596 ,-0.07086 ,-0.69530 
382 ,71.3992 ,1.35784 ,-0.09140 ,-0.89677 
383 ,71.6071 ,1.35993 ,-0.10166 ,-0.99751 
384 ,71.7836 ,1.36172 ,-0.11193 ,-1.09824 
385 ,71.9596 ,1.36350 ,-0.13246 ,-1.29971 
386 ,72.1514 ,1.36535 ,-0.12219 ,-1.19898 
387 ,72.3277 ,1.36725 ,-0.15642 ,-1.53476 
388 ,72.5037 ,1.36892 ,-0.15984 ,-1.56834 
389 ,72.6796 ,1.37070 ,-0.16668 ,-1.63549 
390 ,72.8560 ,1.37248 ,-0.17353 ,-1.70265 
391 ,73.0481 ,1.37436 ,-0.17695 ,-1.73623 
392 ,73.2560 ,1.37641 ,-0.18037 ,-1.76981 
393 ,73.4320 ,1.37821 ,-0.19748 ,-1.93770 
394 ,73.6082 ,1.37996 ,-0.20090 ,-1.97128 
395 ,73.7844 ,1.38173 ,-0.21459 ,-2.10559 
396 ,73.9606 ,1.38348 ,-0.23855 ,-2.34064 
397 ,74.1362 ,1.38530 ,-0.25566 ,-2.50853 
398 ,74.3123 ,1.38702 ,-0.23855 ,-2.34064 
399 ,74.5366 ,1.38917 ,-0.26593 ,-2.60926 
400 ,74.7285 ,1.39121 ,-0.26935 ,-2.64284 
401 ,74.9048 ,1.39300 ,-0.28646 ,-2.81073 
402 ,75.0966 ,1.39488 ,-0.30357 ,-2.97863 
403 ,75.2889 ,1.39679 ,-0.28646 ,-2.81073 
404 ,75.4647 ,1.39857 ,-0.31384 ,-3.07936 
405 ,75.6571 ,1.40046 ,-0.32068 ,-3.14652 
406 ,75.8489 ,1.40230 ,-0.33095 ,-3.24725 
407 ,76.0252 ,1.40415 ,-0.33095 ,-3.24725 
408 ,76.2013 ,1.40594 ,-0.35148 ,-3.44872 
409 ,76.3934 ,1.40778 ,-0.36175 ,-3.54946 
410 ,76.6173 ,1.40989 ,-0.37201 ,-3.65019 
411 ,76.7934 ,1.41186 ,-0.36517 ,-3.58303 
412 ,77.0014 ,1.41384 ,-0.39255 ,-3.85166 
413 ,77.1937 ,1.41581 ,-0.39597 ,-3.88524 
414 ,77.3699 ,1.41760 ,-0.40281 ,-3.95240 
415 ,77.5459 ,1.41937 ,-0.43019 ,-4.22102 
416 ,77.7699 ,1.42142 ,-0.41308 ,-4.05313 
417 ,77.9457 ,1.42333 ,-0.43361 ,-4.25460 
418 ,78.1219 ,1.42511 ,-0.46099 ,-4.52323 
419 ,78.3138 ,1.42695 ,-0.43703 ,-4.28818 
420 ,78.5222 ,1.42899 ,-0.46783 ,-4.59038 
421 ,78.7141 ,1.43098 ,-0.46441 ,-4.55681 
422 ,78.8905 ,1.43279 ,-0.46099 ,-4.52323 
423 ,79.0661 ,1.43470 ,-0.50548 ,-4.95975 
424 ,79.2426 ,1.43633 ,-0.50890 ,-4.99332 
425 ,79.4187 ,1.43810 ,-0.51232 ,-5.02690 
426 ,79.6107 ,1.44001 ,-0.51574 ,-5.06048 
427 ,79.8026 ,1.44187 ,-0.52601 ,-5.16121 
428 ,79.9949 ,1.44387 ,-0.53285 ,-5.22837 
429 ,80.1705 ,1.44562 ,-0.54997 ,-5.39626 
430 ,80.3470 ,1.44737 ,-0.53970 ,-5.29553 
431 ,80.5389 ,1.44920 ,-0.56365 ,-5.53058 
432 ,80.7472 ,1.45132 ,-0.58419 ,-5.73205 
433 ,80.9390 ,1.45320 ,-0.57050 ,-5.59773 
434 ,81.1311 ,1.45508 ,-0.57734 ,-5.66489 
435 ,81.3232 ,1.45702 ,-0.58761 ,-5.76562 
436 ,81.5154 ,1.45906 ,-0.59445 ,-5.83278 
437 ,81.6913 ,1.46081 ,-0.61499 ,-6.03425 
438 ,81.8997 ,1.46273 ,-0.62183 ,-6.10141 
439 ,82.0918 ,1.46480 ,-0.62525 ,-6.13499 
440 ,82.2997 ,1.46681 ,-0.62525 ,-6.13499 
441 ,82.4916 ,1.46868 ,-0.64236 ,-6.30288 
442 ,82.6679 ,1.47056 ,-0.65947 ,-6.47077 
443 ,82.8438 ,1.47235 ,-0.67659 ,-6.63866 
444 ,83.0201 ,1.47406 ,-0.68343 ,-6.70582 
445 ,83.2118 ,1.47592 ,-0.68343 ,-6.70582 
446 ,83.3882 ,1.47771 ,-0.69712 ,-6.84013 
447 ,83.5642 ,1.47954 ,-0.70054 ,-6.87371 
448 ,83.7564 ,1.48142 ,-0.71081 ,-6.97444 
449 ,83.9481 ,1.48337 ,-0.71423 ,-7.00802 
450 ,84.1245 ,1.48510 ,-0.74161 ,-7.27665 
451 ,84.3164 ,1.48704 ,-0.72792 ,-7.14233 
452 ,84.4766 ,1.48875 ,-0.72450 ,-7.10876 
453 ,84.6528 ,1.49039 ,-0.74845 ,-7.34380 
454 ,84.8288 ,1.49223 ,-0.75872 ,-7.44454 
455 ,85.0049 ,1.49395 ,-0.78267 ,-7.67959 
456 ,85.1808 ,1.49574 ,-0.76556 ,-7.51170 
457 ,85.3729 ,1.49761 ,-0.77583 ,-7.61243 
458 ,85.5326 ,1.49929 ,-0.79294 ,-7.78032 
459 ,85.7093 ,1.50098 ,-0.79294 ,-7.78032 
460 ,85.9011 ,1.50280 ,-0.81689 ,-8.01537 
461 ,86.0934 ,1.50475 ,-0.82032 ,-8.04895 
462 ,86.2853 ,1.50662 ,-0.83058 ,-8.14968 
463 ,86.4776 ,1.50867 ,-0.81347 ,-7.98179 
