Data stamp = , 20-04-2022 14:15:34 626

Calibration Values: 
Slope = , 26.54 , g/V 
Offset Voltage at no contact = , -0.501760 , V 

No , Time , Stage Position ,   Mass , Force 
   ,  (s) ,      (mm)      ,   (g)  , (mN)  

1 ,0.0000 ,0.64934 ,5.34643 ,52.45915 
2 ,0.2188 ,0.64943 ,5.35327 ,52.52631 
3 ,0.7310 ,0.65099 ,5.34643 ,52.45915 
4 ,0.9237 ,0.65329 ,5.34643 ,52.45915 
5 ,1.1313 ,0.65527 ,5.36354 ,52.62704 
6 ,1.3233 ,0.65727 ,5.35327 ,52.52631 
7 ,1.5154 ,0.65921 ,5.35327 ,52.52631 
8 ,1.6917 ,0.66100 ,5.33616 ,52.35841 
9 ,1.8834 ,0.66285 ,5.33958 ,52.39199 
10 ,2.0594 ,0.66473 ,5.30878 ,52.08979 
11 ,2.2514 ,0.66655 ,5.29167 ,51.92190 
12 ,2.4276 ,0.66839 ,5.27798 ,51.78758 
13 ,2.6039 ,0.67023 ,5.28483 ,51.85474 
14 ,2.7800 ,0.67192 ,5.26087 ,51.61969 
15 ,2.9559 ,0.67371 ,5.24034 ,51.41822 
16 ,3.1319 ,0.67542 ,5.22665 ,51.28391 
17 ,3.3082 ,0.67722 ,5.19243 ,50.94813 
18 ,3.4843 ,0.67900 ,5.18559 ,50.88097 
19 ,3.6760 ,0.68078 ,5.17190 ,50.74666 
20 ,3.8524 ,0.68262 ,5.16163 ,50.64592 
21 ,4.0285 ,0.68437 ,5.13425 ,50.37729 
22 ,4.2202 ,0.68622 ,5.11030 ,50.14225 
23 ,4.3963 ,0.68811 ,5.11030 ,50.14225 
24 ,4.5724 ,0.68989 ,5.08292 ,49.87362 
25 ,4.7489 ,0.69158 ,5.07608 ,49.80646 
26 ,4.9250 ,0.69340 ,5.06923 ,49.73931 
27 ,5.1010 ,0.69511 ,5.04185 ,49.47068 
28 ,5.2927 ,0.69696 ,5.01106 ,49.16848 
29 ,5.4850 ,0.69888 ,5.00763 ,49.13490 
30 ,5.6770 ,0.70079 ,4.98710 ,48.93343 
31 ,5.8694 ,0.70273 ,4.95630 ,48.63122 
32 ,6.0612 ,0.70463 ,4.95630 ,48.63122 
33 ,6.2373 ,0.70645 ,4.92550 ,48.32902 
34 ,6.4451 ,0.70839 ,4.89470 ,48.02681 
35 ,6.6374 ,0.71043 ,4.90497 ,48.12755 
36 ,6.8136 ,0.71228 ,4.88786 ,47.95966 
37 ,7.0052 ,0.71416 ,4.85364 ,47.62387 
38 ,7.1974 ,0.71597 ,4.83310 ,47.42240 
39 ,7.3735 ,0.71788 ,4.82284 ,47.32167 
40 ,7.5659 ,0.71970 ,4.80230 ,47.12020 
41 ,7.7421 ,0.72152 ,4.78519 ,46.95231 
42 ,7.9185 ,0.72331 ,4.76466 ,46.75084 
43 ,8.1099 ,0.72512 ,4.74413 ,46.54937 
44 ,8.3022 ,0.72704 ,4.73728 ,46.48221 
45 ,8.4780 ,0.72887 ,4.72702 ,46.38148 
46 ,8.6545 ,0.73069 ,4.69622 ,46.07927 
47 ,8.8301 ,0.73238 ,4.67911 ,45.91138 
48 ,9.0064 ,0.73413 ,4.66884 ,45.81065 
49 ,9.1825 ,0.73598 ,4.66884 ,45.81065 
50 ,9.3584 ,0.73768 ,4.63462 ,45.47486 
51 ,9.5508 ,0.73953 ,4.61066 ,45.23981 
52 ,9.7268 ,0.74143 ,4.60724 ,45.20624 
53 ,9.9029 ,0.74309 ,4.59013 ,45.03835 
54 ,10.0790 ,0.74487 ,4.56617 ,44.80330 
55 ,10.2551 ,0.74668 ,4.56617 ,44.80330 
56 ,10.4308 ,0.74840 ,4.55591 ,44.70256 
57 ,10.6069 ,0.75019 ,4.51484 ,44.29962 
58 ,10.7992 ,0.75200 ,4.52169 ,44.36678 
59 ,10.9752 ,0.75388 ,4.50115 ,44.16531 
60 ,11.1512 ,0.75561 ,4.48746 ,44.03100 
61 ,11.3276 ,0.75735 ,4.46009 ,43.76237 
62 ,11.5035 ,0.75910 ,4.44298 ,43.59448 
63 ,11.6794 ,0.76089 ,4.41218 ,43.29227 
64 ,11.8718 ,0.76274 ,4.40875 ,43.25870 
65 ,12.0478 ,0.76458 ,4.40533 ,43.22512 
66 ,12.2236 ,0.76630 ,4.36084 ,42.78860 
67 ,12.4156 ,0.76818 ,4.36427 ,42.82218 
68 ,12.5917 ,0.77010 ,4.32662 ,42.45282 
69 ,12.7839 ,0.77182 ,4.33004 ,42.48639 
70 ,12.9760 ,0.77380 ,4.30609 ,42.25135 
71 ,13.1683 ,0.77574 ,4.27871 ,41.98272 
72 ,13.3599 ,0.77764 ,4.27871 ,41.98272 
73 ,13.5361 ,0.77943 ,4.24107 ,41.61336 
74 ,13.7122 ,0.78125 ,4.22053 ,41.41189 
75 ,13.8881 ,0.78297 ,4.22396 ,41.44547 
76 ,14.0646 ,0.78476 ,4.20000 ,41.21042 
77 ,14.2402 ,0.78648 ,4.18289 ,41.04253 
78 ,14.4168 ,0.78823 ,4.16920 ,40.90821 
79 ,14.6087 ,0.79008 ,4.13840 ,40.60601 
80 ,14.7850 ,0.79189 ,4.12129 ,40.43812 
81 ,14.9606 ,0.79373 ,4.12129 ,40.43812 
82 ,15.1532 ,0.79552 ,4.10760 ,40.30380 
83 ,15.3610 ,0.79769 ,4.09049 ,40.13591 
84 ,15.5534 ,0.79957 ,4.05285 ,39.76655 
85 ,15.7452 ,0.80144 ,4.04943 ,39.73297 
86 ,15.9215 ,0.80332 ,4.03232 ,39.56508 
87 ,16.1135 ,0.80514 ,4.01178 ,39.36361 
88 ,16.3057 ,0.80709 ,3.98783 ,39.12856 
89 ,16.4977 ,0.80900 ,3.98441 ,39.09499 
90 ,16.6897 ,0.81097 ,3.95703 ,38.82636 
91 ,16.8979 ,0.81289 ,3.95703 ,38.82636 
92 ,17.0895 ,0.81501 ,3.92281 ,38.49058 
93 ,17.2657 ,0.81681 ,3.90570 ,38.32268 
94 ,17.4582 ,0.81856 ,3.89885 ,38.25553 
95 ,17.6341 ,0.82049 ,3.87490 ,38.02048 
96 ,17.8102 ,0.82219 ,3.86463 ,37.91975 
97 ,18.0024 ,0.82404 ,3.84752 ,37.75185 
98 ,18.1944 ,0.82597 ,3.83725 ,37.65112 
99 ,18.3702 ,0.82778 ,3.81330 ,37.41607 
100 ,18.5627 ,0.82964 ,3.79276 ,37.21460 
101 ,18.7705 ,0.83167 ,3.78250 ,37.11387 
102 ,18.9628 ,0.83356 ,3.75170 ,36.81166 
103 ,19.1547 ,0.83560 ,3.75512 ,36.84524 
104 ,19.3309 ,0.83731 ,3.73117 ,36.61019 
105 ,19.5229 ,0.83920 ,3.70037 ,36.30799 
106 ,19.7151 ,0.84117 ,3.69694 ,36.27441 
107 ,19.8910 ,0.84309 ,3.66272 ,35.93863 
108 ,20.0672 ,0.84474 ,3.66272 ,35.93863 
109 ,20.2589 ,0.84668 ,3.63877 ,35.70358 
110 ,20.4514 ,0.84850 ,3.62508 ,35.56926 
111 ,20.6593 ,0.85057 ,3.60112 ,35.33422 
112 ,20.8355 ,0.85239 ,3.60112 ,35.33422 
113 ,21.0275 ,0.85423 ,3.56690 ,34.99843 
114 ,21.1873 ,0.85602 ,3.56348 ,34.96485 
115 ,21.3632 ,0.85776 ,3.54295 ,34.76338 
116 ,21.5554 ,0.85959 ,3.52584 ,34.59549 
117 ,21.7477 ,0.86149 ,3.51557 ,34.49476 
118 ,21.9558 ,0.86357 ,3.49846 ,34.32687 
119 ,22.1481 ,0.86542 ,3.46766 ,34.02466 
120 ,22.3561 ,0.86757 ,3.46424 ,33.99108 
121 ,22.5641 ,0.86962 ,3.43686 ,33.72246 
122 ,22.7560 ,0.87157 ,3.42317 ,33.58814 
123 ,22.9324 ,0.87337 ,3.41633 ,33.52099 
124 ,23.1242 ,0.87517 ,3.38210 ,33.18520 
125 ,23.3001 ,0.87707 ,3.36499 ,33.01731 
126 ,23.4765 ,0.87880 ,3.36157 ,32.98374 
127 ,23.6686 ,0.88066 ,3.33762 ,32.74869 
128 ,23.8764 ,0.88273 ,3.33419 ,32.71511 
129 ,24.0689 ,0.88474 ,3.31024 ,32.48006 
130 ,24.2607 ,0.88663 ,3.27944 ,32.17786 
131 ,24.4688 ,0.88863 ,3.26575 ,32.04354 
132 ,24.6446 ,0.89044 ,3.24864 ,31.87565 
133 ,24.8212 ,0.89223 ,3.22811 ,31.67418 
134 ,25.0132 ,0.89409 ,3.23495 ,31.74134 
135 ,25.1888 ,0.89595 ,3.22468 ,31.64060 
136 ,25.3809 ,0.89780 ,3.17677 ,31.17051 
137 ,25.5569 ,0.89960 ,3.17677 ,31.17051 
138 ,25.7332 ,0.90138 ,3.17677 ,31.17051 
139 ,25.9255 ,0.90328 ,3.14597 ,30.86830 
140 ,26.1179 ,0.90523 ,3.12886 ,30.70041 
141 ,26.2933 ,0.90699 ,3.10833 ,30.49894 
142 ,26.4697 ,0.90871 ,3.11518 ,30.56610 
143 ,26.6619 ,0.91074 ,3.08095 ,30.23031 
144 ,26.8379 ,0.91236 ,3.06384 ,30.06242 
145 ,27.0140 ,0.91414 ,3.05015 ,29.92811 
146 ,27.2062 ,0.91599 ,3.02962 ,29.72664 
147 ,27.3821 ,0.91797 ,3.00909 ,29.52517 
148 ,27.5583 ,0.91963 ,2.98513 ,29.29012 
149 ,27.7500 ,0.92150 ,2.99198 ,29.35728 
150 ,27.9263 ,0.92325 ,2.97144 ,29.15581 
151 ,28.1186 ,0.92517 ,2.95091 ,28.95434 
152 ,28.3105 ,0.92717 ,2.94407 ,28.88718 
153 ,28.4866 ,0.92889 ,2.94064 ,28.85360 
154 ,28.6787 ,0.93081 ,2.89958 ,28.45066 
155 ,28.8546 ,0.93262 ,2.89616 ,28.41709 
156 ,29.0470 ,0.93445 ,2.86878 ,28.14846 
157 ,29.2384 ,0.93642 ,2.85851 ,28.04772 
158 ,29.4305 ,0.93826 ,2.84825 ,27.94699 
159 ,29.6065 ,0.94011 ,2.81745 ,27.64479 
160 ,29.7989 ,0.94190 ,2.80718 ,27.54405 
161 ,30.0067 ,0.94406 ,2.78322 ,27.30900 
162 ,30.1832 ,0.94587 ,2.76954 ,27.17469 
163 ,30.3754 ,0.94767 ,2.77980 ,27.27542 
164 ,30.5834 ,0.94986 ,2.72847 ,26.77175 
165 ,30.7915 ,0.95189 ,2.73874 ,26.87248 
166 ,30.9675 ,0.95371 ,2.72163 ,26.70459 
167 ,31.1275 ,0.95538 ,2.68056 ,26.30165 
168 ,31.3037 ,0.95703 ,2.68398 ,26.33523 
169 ,31.4958 ,0.95891 ,2.67029 ,26.20092 
170 ,31.7040 ,0.96097 ,2.64634 ,25.96587 
171 ,31.8959 ,0.96296 ,2.63607 ,25.86514 
172 ,32.0721 ,0.96470 ,2.61896 ,25.69724 
173 ,32.2481 ,0.96649 ,2.60869 ,25.59651 
174 ,32.4242 ,0.96833 ,2.58816 ,25.39504 
175 ,32.6003 ,0.96999 ,2.56078 ,25.12641 
176 ,32.7922 ,0.97187 ,2.57789 ,25.29430 
177 ,32.9683 ,0.97369 ,2.56078 ,25.12641 
178 ,33.1442 ,0.97556 ,2.52314 ,24.75705 
179 ,33.3202 ,0.97719 ,2.50603 ,24.58916 
180 ,33.4966 ,0.97894 ,2.49918 ,24.52200 
181 ,33.6725 ,0.98069 ,2.47523 ,24.28696 
182 ,33.8647 ,0.98257 ,2.47523 ,24.28696 
183 ,34.0409 ,0.98442 ,2.45470 ,24.08549 
184 ,34.2329 ,0.98628 ,2.45812 ,24.11906 
185 ,34.4090 ,0.98812 ,2.43759 ,23.91759 
186 ,34.6009 ,0.98999 ,2.41363 ,23.68255 
187 ,34.7770 ,0.99184 ,2.38968 ,23.44750 
188 ,34.9531 ,0.99351 ,2.38625 ,23.41392 
189 ,35.1293 ,0.99523 ,2.39652 ,23.51465 
190 ,35.3373 ,0.99727 ,2.36230 ,23.17887 
191 ,35.5135 ,0.99911 ,2.32123 ,22.77593 
192 ,35.7056 ,1.00102 ,2.32808 ,22.84309 
193 ,35.8816 ,1.00280 ,2.30754 ,22.64162 
194 ,36.0737 ,1.00468 ,2.30754 ,22.64162 
195 ,36.2658 ,1.00665 ,2.28359 ,22.40657 
196 ,36.4895 ,1.00875 ,2.27332 ,22.30584 
197 ,36.6815 ,1.01071 ,2.25621 ,22.13794 
198 ,36.8580 ,1.01259 ,2.22541 ,21.83574 
199 ,37.0339 ,1.01431 ,2.21172 ,21.70143 
200 ,37.2262 ,1.01622 ,2.22199 ,21.80216 
201 ,37.4183 ,1.01809 ,2.19119 ,21.49996 
202 ,37.5944 ,1.01991 ,2.18092 ,21.39922 
203 ,37.7702 ,1.02173 ,2.16381 ,21.23133 
204 ,37.9624 ,1.02357 ,2.14328 ,21.02986 
205 ,38.1384 ,1.02535 ,2.12959 ,20.89555 
206 ,38.3307 ,1.02726 ,2.13644 ,20.96270 
207 ,38.5385 ,1.02930 ,2.10221 ,20.62692 
208 ,38.7308 ,1.03126 ,2.09195 ,20.52619 
209 ,38.9225 ,1.03322 ,2.08168 ,20.42545 
210 ,39.0987 ,1.03498 ,2.06457 ,20.25756 
211 ,39.2910 ,1.03686 ,2.04404 ,20.05609 
212 ,39.4826 ,1.03892 ,2.01324 ,19.75388 
213 ,39.6590 ,1.04056 ,2.01666 ,19.78746 
214 ,39.8513 ,1.04249 ,2.01666 ,19.78746 
215 ,40.0592 ,1.04453 ,1.97902 ,19.41810 
216 ,40.2514 ,1.04647 ,1.97559 ,19.38452 
217 ,40.4272 ,1.04820 ,1.97559 ,19.38452 
218 ,40.6193 ,1.05008 ,1.93795 ,19.01516 
219 ,40.8113 ,1.05202 ,1.93795 ,19.01516 
220 ,41.0038 ,1.05397 ,1.93453 ,18.98158 
221 ,41.2276 ,1.05615 ,1.89004 ,18.54507 
222 ,41.4200 ,1.05811 ,1.88662 ,18.51149 
223 ,41.6116 ,1.06004 ,1.87293 ,18.37717 
224 ,41.7880 ,1.06187 ,1.86951 ,18.34360 
225 ,42.0118 ,1.06391 ,1.83871 ,18.04139 
226 ,42.2042 ,1.06590 ,1.82160 ,17.87350 
227 ,42.3960 ,1.06797 ,1.80106 ,17.67203 
228 ,42.6043 ,1.06986 ,1.80791 ,17.73919 
229 ,42.7963 ,1.07183 ,1.77369 ,17.40340 
230 ,42.9724 ,1.07375 ,1.76684 ,17.33625 
231 ,43.1485 ,1.07549 ,1.77026 ,17.36983 
232 ,43.3563 ,1.07744 ,1.73262 ,17.00046 
233 ,43.5324 ,1.07926 ,1.72920 ,16.96689 
234 ,43.7248 ,1.08113 ,1.71209 ,16.79899 
235 ,43.9168 ,1.08307 ,1.68471 ,16.53037 
236 ,44.1248 ,1.08514 ,1.67444 ,16.42963 
237 ,44.3326 ,1.08719 ,1.67444 ,16.42963 
238 ,44.5090 ,1.08909 ,1.65733 ,16.26174 
239 ,44.7011 ,1.09088 ,1.63338 ,16.02669 
240 ,44.9092 ,1.09295 ,1.63680 ,16.06027 
241 ,45.0847 ,1.09484 ,1.61284 ,15.82522 
242 ,45.2614 ,1.09658 ,1.60942 ,15.79164 
243 ,45.4534 ,1.09855 ,1.58889 ,15.59018 
244 ,45.6616 ,1.10056 ,1.55809 ,15.28797 
245 ,45.8535 ,1.10248 ,1.55467 ,15.25439 
246 ,46.0456 ,1.10433 ,1.53071 ,15.01934 
247 ,46.2058 ,1.10612 ,1.52387 ,14.95219 
248 ,46.3818 ,1.10773 ,1.51018 ,14.81787 
249 ,46.5575 ,1.10955 ,1.48965 ,14.61640 
250 ,46.7340 ,1.11127 ,1.48965 ,14.61640 
251 ,46.9101 ,1.11308 ,1.48965 ,14.61640 
252 ,47.0861 ,1.11493 ,1.44858 ,14.21346 
253 ,47.2617 ,1.11656 ,1.44174 ,14.14631 
254 ,47.4381 ,1.11832 ,1.41778 ,13.91126 
255 ,47.6304 ,1.12019 ,1.43489 ,14.07915 
256 ,47.8226 ,1.12210 ,1.40067 ,13.74337 
257 ,47.9985 ,1.12395 ,1.37671 ,13.50832 
258 ,48.1744 ,1.12576 ,1.39040 ,13.64263 
259 ,48.3665 ,1.12758 ,1.36987 ,13.44116 
260 ,48.5268 ,1.12930 ,1.35960 ,13.34043 
261 ,48.7028 ,1.13096 ,1.33907 ,13.13896 
262 ,48.8944 ,1.13280 ,1.34249 ,13.17254 
263 ,49.0709 ,1.13463 ,1.31169 ,12.87033 
264 ,49.2468 ,1.13641 ,1.30485 ,12.80318 
265 ,49.4230 ,1.13810 ,1.30827 ,12.83675 
266 ,49.5992 ,1.13993 ,1.26720 ,12.43381 
267 ,49.7913 ,1.14179 ,1.26378 ,12.40024 
268 ,49.9834 ,1.14372 ,1.24325 ,12.19877 
269 ,50.1595 ,1.14555 ,1.23298 ,12.09803 
270 ,50.3515 ,1.14736 ,1.23983 ,12.16519 
271 ,50.5437 ,1.14936 ,1.21929 ,11.96372 
272 ,50.7353 ,1.15122 ,1.20218 ,11.79583 
273 ,50.9120 ,1.15306 ,1.18165 ,11.59436 
274 ,51.1039 ,1.15495 ,1.17138 ,11.49362 
275 ,51.2795 ,1.15675 ,1.16112 ,11.39289 
276 ,51.4558 ,1.15845 ,1.13716 ,11.15784 
277 ,51.6637 ,1.16049 ,1.14058 ,11.19142 
278 ,51.8397 ,1.16236 ,1.12005 ,10.98995 
279 ,52.0159 ,1.16409 ,1.10979 ,10.88921 
280 ,52.1924 ,1.16586 ,1.10294 ,10.82206 
281 ,52.3843 ,1.16768 ,1.08241 ,10.62059 
282 ,52.5761 ,1.16964 ,1.07556 ,10.55343 
283 ,52.7685 ,1.17153 ,1.07214 ,10.51985 
284 ,52.9926 ,1.17370 ,1.05845 ,10.38554 
285 ,53.1686 ,1.17559 ,1.04476 ,10.25123 
286 ,53.3928 ,1.17759 ,1.00712 ,9.88186 
287 ,53.5847 ,1.17973 ,0.99001 ,9.71397 
288 ,53.7607 ,1.18154 ,0.98659 ,9.68039 
289 ,53.9529 ,1.18343 ,0.97290 ,9.54608 
290 ,54.1450 ,1.18539 ,0.96948 ,9.51250 
291 ,54.3213 ,1.18714 ,0.94894 ,9.31103 
292 ,54.4970 ,1.18890 ,0.93525 ,9.17672 
293 ,54.6893 ,1.19071 ,0.94552 ,9.27745 
294 ,54.8812 ,1.19278 ,0.92157 ,9.04241 
295 ,55.0574 ,1.19451 ,0.89761 ,8.80736 
296 ,55.2656 ,1.19651 ,0.88050 ,8.63947 
297 ,55.4575 ,1.19843 ,0.86681 ,8.50515 
298 ,55.6497 ,1.20044 ,0.87366 ,8.57231 
299 ,55.8252 ,1.20224 ,0.84286 ,8.27011 
300 ,56.0177 ,1.20407 ,0.83601 ,8.20295 
301 ,56.2100 ,1.20603 ,0.84286 ,8.27011 
302 ,56.4020 ,1.20793 ,0.81206 ,7.96790 
303 ,56.5780 ,1.20965 ,0.78810 ,7.73285 
304 ,56.7541 ,1.21145 ,0.77784 ,7.63212 
305 ,56.9457 ,1.21331 ,0.79152 ,7.76643 
306 ,57.1221 ,1.21518 ,0.76757 ,7.53138 
307 ,57.3144 ,1.21704 ,0.75046 ,7.36349 
308 ,57.5223 ,1.21903 ,0.71624 ,7.02771 
309 ,57.7305 ,1.22104 ,0.72650 ,7.12844 
310 ,57.9226 ,1.22309 ,0.69570 ,6.82624 
311 ,58.0985 ,1.22487 ,0.67859 ,6.65835 
312 ,58.2907 ,1.22681 ,0.69570 ,6.82624 
313 ,58.4827 ,1.22879 ,0.66148 ,6.49046 
314 ,58.6589 ,1.23048 ,0.64095 ,6.28899 
315 ,58.8666 ,1.23251 ,0.64095 ,6.28899 
316 ,59.0427 ,1.23435 ,0.62042 ,6.08752 
317 ,59.2350 ,1.23627 ,0.63410 ,6.22183 
318 ,59.4273 ,1.23816 ,0.63068 ,6.18825 
319 ,59.6195 ,1.24006 ,0.59304 ,5.81889 
320 ,59.8113 ,1.24203 ,0.60330 ,5.91962 
321 ,59.9874 ,1.24373 ,0.58962 ,5.78531 
322 ,60.1955 ,1.24576 ,0.56908 ,5.58384 
323 ,60.3712 ,1.24760 ,0.54171 ,5.31522 
324 ,60.5473 ,1.24937 ,0.54513 ,5.34879 
325 ,60.7238 ,1.25112 ,0.50748 ,4.97943 
326 ,60.9156 ,1.25300 ,0.51433 ,5.04659 
327 ,61.1078 ,1.25488 ,0.49722 ,4.87870 
328 ,61.2997 ,1.25681 ,0.48011 ,4.71081 
329 ,61.4920 ,1.25880 ,0.48695 ,4.77796 
330 ,61.6680 ,1.26058 ,0.47326 ,4.64365 
331 ,61.8602 ,1.26249 ,0.45273 ,4.44218 
332 ,62.0520 ,1.26436 ,0.44588 ,4.37502 
333 ,62.2283 ,1.26619 ,0.43904 ,4.30787 
334 ,62.4043 ,1.26799 ,0.41166 ,4.03924 
335 ,62.5961 ,1.26975 ,0.40140 ,3.93850 
336 ,62.7725 ,1.27160 ,0.40482 ,3.97208 
337 ,62.9487 ,1.27332 ,0.39455 ,3.87135 
338 ,63.1727 ,1.27546 ,0.38771 ,3.80419 
339 ,63.3965 ,1.27766 ,0.37060 ,3.63630 
340 ,63.5728 ,1.27965 ,0.33980 ,3.33410 
341 ,63.7487 ,1.28141 ,0.33295 ,3.26694 
342 ,63.9410 ,1.28329 ,0.31926 ,3.13263 
343 ,64.1332 ,1.28523 ,0.32269 ,3.16620 
344 ,64.3252 ,1.28718 ,0.30215 ,2.96473 
345 ,64.5011 ,1.28889 ,0.29189 ,2.86400 
346 ,64.6773 ,1.29065 ,0.28847 ,2.83042 
347 ,64.8694 ,1.29252 ,0.27478 ,2.69611 
348 ,65.0615 ,1.29451 ,0.25082 ,2.46106 
349 ,65.2536 ,1.29632 ,0.26109 ,2.56179 
350 ,65.4294 ,1.29820 ,0.23713 ,2.32675 
351 ,65.6218 ,1.30002 ,0.23029 ,2.25959 
352 ,65.8134 ,1.30203 ,0.22344 ,2.19243 
353 ,65.9894 ,1.30374 ,0.20633 ,2.02454 
354 ,66.1820 ,1.30559 ,0.18580 ,1.82307 
355 ,66.3900 ,1.30769 ,0.18238 ,1.78949 
356 ,66.5818 ,1.30975 ,0.17553 ,1.72234 
357 ,66.7582 ,1.31145 ,0.15158 ,1.48729 
358 ,66.9503 ,1.31330 ,0.15842 ,1.55445 
359 ,67.1263 ,1.31518 ,0.12420 ,1.21866 
360 ,67.3182 ,1.31699 ,0.13447 ,1.31940 
361 ,67.5106 ,1.31885 ,0.12078 ,1.18508 
362 ,67.6862 ,1.32087 ,0.08314 ,0.81572 
363 ,67.8624 ,1.32254 ,0.07971 ,0.78214 
364 ,68.0388 ,1.32428 ,0.07629 ,0.74857 
365 ,68.2304 ,1.32610 ,0.08656 ,0.84930 
366 ,68.4068 ,1.32788 ,0.06602 ,0.64783 
367 ,68.5989 ,1.32974 ,0.05918 ,0.58067 
368 ,68.7750 ,1.33159 ,0.03522 ,0.34563 
369 ,68.9511 ,1.33334 ,0.04549 ,0.44636 
370 ,69.1592 ,1.33543 ,0.01127 ,0.11058 
371 ,69.3512 ,1.33732 ,0.00443 ,0.04342 
372 ,69.5272 ,1.33922 ,0.00443 ,0.04342 
373 ,69.7033 ,1.34091 ,-0.00926 ,-0.09089 
374 ,69.8792 ,1.34266 ,-0.02295 ,-0.22520 
375 ,70.0555 ,1.34444 ,-0.02980 ,-0.29236 
376 ,70.2476 ,1.34633 ,-0.02980 ,-0.29236 
377 ,70.4237 ,1.34812 ,-0.04691 ,-0.46025 
378 ,70.5998 ,1.34984 ,-0.07086 ,-0.69530 
379 ,70.7918 ,1.35178 ,-0.07428 ,-0.72888 
380 ,70.9674 ,1.35347 ,-0.07086 ,-0.69530 
381 ,71.1600 ,1.35544 ,-0.09140 ,-0.89677 
382 ,71.3678 ,1.35745 ,-0.11193 ,-1.09824 
383 ,71.5601 ,1.35943 ,-0.11193 ,-1.09824 
384 ,71.7361 ,1.36123 ,-0.12219 ,-1.19898 
385 ,71.9119 ,1.36296 ,-0.12219 ,-1.19898 
386 ,72.1041 ,1.36486 ,-0.14957 ,-1.46760 
387 ,72.3285 ,1.36695 ,-0.14615 ,-1.43402 
388 ,72.5364 ,1.36914 ,-0.14957 ,-1.46760 
389 ,72.7125 ,1.37098 ,-0.15642 ,-1.53476 
390 ,72.9046 ,1.37289 ,-0.17695 ,-1.73623 
391 ,73.0967 ,1.37472 ,-0.18722 ,-1.83696 
392 ,73.2888 ,1.37673 ,-0.19064 ,-1.87054 
393 ,73.4807 ,1.37854 ,-0.21117 ,-2.07201 
394 ,73.6730 ,1.38052 ,-0.21117 ,-2.07201 
395 ,73.8810 ,1.38255 ,-0.23855 ,-2.34064 
396 ,74.0726 ,1.38447 ,-0.24197 ,-2.37422 
397 ,74.2651 ,1.38644 ,-0.25566 ,-2.50853 
398 ,74.4732 ,1.38850 ,-0.25224 ,-2.47495 
399 ,74.6493 ,1.39035 ,-0.26250 ,-2.57569 
400 ,74.8573 ,1.39239 ,-0.27619 ,-2.71000 
401 ,75.0334 ,1.39417 ,-0.27619 ,-2.71000 
402 ,75.2092 ,1.39590 ,-0.28646 ,-2.81073 
403 ,75.4014 ,1.39772 ,-0.31726 ,-3.11294 
404 ,75.5932 ,1.39979 ,-0.31041 ,-3.04578 
405 ,75.7859 ,1.40163 ,-0.33095 ,-3.24725 
406 ,75.9776 ,1.40352 ,-0.32752 ,-3.21367 
407 ,76.1860 ,1.40562 ,-0.35490 ,-3.48230 
408 ,76.3779 ,1.40761 ,-0.35490 ,-3.48230 
409 ,76.5859 ,1.40962 ,-0.37886 ,-3.71735 
410 ,76.7622 ,1.41145 ,-0.38228 ,-3.75093 
411 ,76.9541 ,1.41332 ,-0.37886 ,-3.71735 
412 ,77.1302 ,1.41511 ,-0.39597 ,-3.88524 
413 ,77.3544 ,1.41720 ,-0.40966 ,-4.01955 
414 ,77.5304 ,1.41912 ,-0.40966 ,-4.01955 
415 ,77.7225 ,1.42102 ,-0.43703 ,-4.28818 
416 ,77.9147 ,1.42288 ,-0.42677 ,-4.18744 
417 ,78.1228 ,1.42504 ,-0.45414 ,-4.45607 
418 ,78.3151 ,1.42687 ,-0.44730 ,-4.38891 
419 ,78.5227 ,1.42889 ,-0.46099 ,-4.52323 
420 ,78.7310 ,1.43113 ,-0.45757 ,-4.48965 
421 ,78.9390 ,1.43313 ,-0.46099 ,-4.52323 
422 ,79.1150 ,1.43498 ,-0.49521 ,-4.85901 
423 ,79.3069 ,1.43684 ,-0.50206 ,-4.92617 
424 ,79.4830 ,1.43862 ,-0.50890 ,-4.99332 
425 ,79.6750 ,1.44047 ,-0.52943 ,-5.19479 
426 ,79.8674 ,1.44246 ,-0.52601 ,-5.16121 
427 ,80.0435 ,1.44425 ,-0.54997 ,-5.39626 
428 ,80.2357 ,1.44607 ,-0.53628 ,-5.26195 
429 ,80.4437 ,1.44820 ,-0.55681 ,-5.46342 
430 ,80.6357 ,1.45009 ,-0.54654 ,-5.36268 
431 ,80.8279 ,1.45210 ,-0.58077 ,-5.69847 
432 ,81.0198 ,1.45396 ,-0.58419 ,-5.73205 
433 ,81.1957 ,1.45575 ,-0.58419 ,-5.73205 
434 ,81.3717 ,1.45750 ,-0.57734 ,-5.66489 
435 ,81.5480 ,1.45929 ,-0.58761 ,-5.76562 
436 ,81.7400 ,1.46111 ,-0.61841 ,-6.06783 
437 ,81.9322 ,1.46318 ,-0.62525 ,-6.13499 
438 ,82.1083 ,1.46489 ,-0.62525 ,-6.13499 
439 ,82.2843 ,1.46672 ,-0.64579 ,-6.33646 
440 ,82.4604 ,1.46841 ,-0.65947 ,-6.47077 
441 ,82.6365 ,1.47019 ,-0.65605 ,-6.43719 
442 ,82.8287 ,1.47209 ,-0.66290 ,-6.50435 
443 ,83.0364 ,1.47411 ,-0.66290 ,-6.50435 
444 ,83.2128 ,1.47596 ,-0.65947 ,-6.47077 
445 ,83.4048 ,1.47789 ,-0.69370 ,-6.80655 
446 ,83.5810 ,1.47962 ,-0.69712 ,-6.84013 
447 ,83.7726 ,1.48149 ,-0.70054 ,-6.87371 
448 ,83.9491 ,1.48330 ,-0.70396 ,-6.90729 
449 ,84.1413 ,1.48518 ,-0.73476 ,-7.20949 
450 ,84.3332 ,1.48709 ,-0.72792 ,-7.14233 
451 ,84.5249 ,1.48898 ,-0.74845 ,-7.34380 
452 ,84.7013 ,1.49080 ,-0.76214 ,-7.47812 
453 ,84.8934 ,1.49279 ,-0.76556 ,-7.51170 
454 ,85.0694 ,1.49450 ,-0.76556 ,-7.51170 
455 ,85.2450 ,1.49633 ,-0.78267 ,-7.67959 
456 ,85.4213 ,1.49796 ,-0.79294 ,-7.78032 
457 ,85.6133 ,1.49988 ,-0.77925 ,-7.64601 
458 ,85.8055 ,1.50176 ,-0.79978 ,-7.84748 
459 ,85.9976 ,1.50376 ,-0.81005 ,-7.94821 
460 ,86.1900 ,1.50571 ,-0.80663 ,-7.91464 
461 ,86.3818 ,1.50758 ,-0.82032 ,-8.04895 
462 ,86.5741 ,1.50949 ,-0.81347 ,-7.98179 
463 ,86.7660 ,1.51143 ,-0.84427 ,-8.28400 
