Data stamp = , 21-04-2022 01:35:24 030

Calibration Values: 
Slope = , 26.54 , g/V 
Offset Voltage at no contact = , -0.501760 , V 

No , Time , Stage Position ,   Mass , Force 
   ,  (s) ,      (mm)      ,   (g)  , (mN)  

1 ,0.0000 ,0.64937 ,5.28825 ,51.88832 
2 ,0.3185 ,0.64960 ,5.27456 ,51.75401 
3 ,0.6068 ,0.65073 ,5.27798 ,51.78758 
4 ,0.8150 ,0.65239 ,5.27456 ,51.75401 
5 ,1.0067 ,0.65418 ,5.27456 ,51.75401 
6 ,1.1668 ,0.65590 ,5.27114 ,51.72043 
7 ,1.3431 ,0.65753 ,5.27798 ,51.78758 
8 ,1.5193 ,0.65925 ,5.26430 ,51.65327 
9 ,1.6950 ,0.66102 ,5.26087 ,51.61969 
10 ,1.8715 ,0.66278 ,5.25403 ,51.55254 
11 ,2.0631 ,0.66476 ,5.23692 ,51.38464 
12 ,2.2397 ,0.66653 ,5.20954 ,51.11602 
13 ,2.4157 ,0.66827 ,5.19243 ,50.94813 
14 ,2.5919 ,0.67002 ,5.18559 ,50.88097 
15 ,2.7678 ,0.67179 ,5.17532 ,50.78023 
16 ,2.9599 ,0.67371 ,5.14452 ,50.47803 
17 ,3.1517 ,0.67555 ,5.14110 ,50.44445 
18 ,3.3439 ,0.67753 ,5.12056 ,50.24298 
19 ,3.5682 ,0.67966 ,5.10688 ,50.10867 
20 ,3.7602 ,0.68170 ,5.05212 ,49.57142 
21 ,3.9363 ,0.68343 ,5.04528 ,49.50426 
22 ,4.1444 ,0.68543 ,5.03843 ,49.43710 
23 ,4.3204 ,0.68728 ,5.00763 ,49.13490 
24 ,4.5286 ,0.68923 ,4.99737 ,49.03416 
25 ,4.7206 ,0.69122 ,4.96315 ,48.69838 
26 ,4.8965 ,0.69302 ,4.94261 ,48.49691 
27 ,5.0728 ,0.69480 ,4.94261 ,48.49691 
28 ,5.2645 ,0.69670 ,4.92892 ,48.36260 
29 ,5.4570 ,0.69862 ,4.90155 ,48.09397 
30 ,5.6650 ,0.70065 ,4.89812 ,48.06039 
31 ,5.8726 ,0.70275 ,4.86732 ,47.75819 
32 ,6.0492 ,0.70458 ,4.85364 ,47.62387 
33 ,6.2253 ,0.70638 ,4.82968 ,47.38883 
34 ,6.4012 ,0.70817 ,4.80915 ,47.18736 
35 ,6.5772 ,0.70986 ,4.78861 ,46.98589 
36 ,6.7534 ,0.71161 ,4.77493 ,46.85157 
37 ,6.9294 ,0.71334 ,4.77150 ,46.81800 
38 ,7.1214 ,0.71528 ,4.75439 ,46.65010 
39 ,7.2976 ,0.71710 ,4.73728 ,46.48221 
40 ,7.4577 ,0.71878 ,4.71333 ,46.24716 
41 ,7.6334 ,0.72043 ,4.68595 ,45.97854 
42 ,7.8099 ,0.72218 ,4.68595 ,45.97854 
43 ,8.0015 ,0.72414 ,4.66542 ,45.77707 
44 ,8.1780 ,0.72583 ,4.63804 ,45.50844 
45 ,8.3538 ,0.72763 ,4.62777 ,45.40771 
46 ,8.5463 ,0.72954 ,4.60724 ,45.20624 
47 ,8.7537 ,0.73155 ,4.59013 ,45.03835 
48 ,8.9303 ,0.73338 ,4.59013 ,45.03835 
49 ,9.1222 ,0.73526 ,4.55933 ,44.73614 
50 ,9.2985 ,0.73710 ,4.52511 ,44.40036 
51 ,9.4904 ,0.73897 ,4.53195 ,44.46751 
52 ,9.6824 ,0.74088 ,4.51142 ,44.26604 
53 ,9.8746 ,0.74281 ,4.48062 ,43.96384 
54 ,10.0667 ,0.74474 ,4.48062 ,43.96384 
55 ,10.2428 ,0.74649 ,4.46351 ,43.79595 
56 ,10.4511 ,0.74854 ,4.44298 ,43.59448 
57 ,10.6427 ,0.75044 ,4.40875 ,43.25870 
58 ,10.8190 ,0.75226 ,4.38822 ,43.05723 
59 ,10.9950 ,0.75407 ,4.37111 ,42.88933 
60 ,11.1871 ,0.75595 ,4.37111 ,42.88933 
61 ,11.3632 ,0.75768 ,4.35058 ,42.68786 
62 ,11.5392 ,0.75950 ,4.34031 ,42.58713 
63 ,11.7153 ,0.76124 ,4.30609 ,42.25135 
64 ,11.8910 ,0.76299 ,4.31293 ,42.31850 
65 ,12.0675 ,0.76477 ,4.29924 ,42.18419 
66 ,12.2595 ,0.76669 ,4.26845 ,41.88198 
67 ,12.4357 ,0.76844 ,4.24449 ,41.64694 
68 ,12.6438 ,0.77043 ,4.22738 ,41.47905 
69 ,12.8198 ,0.77224 ,4.21369 ,41.34473 
70 ,13.0117 ,0.77414 ,4.22053 ,41.41189 
71 ,13.1880 ,0.77594 ,4.18974 ,41.10968 
72 ,13.3638 ,0.77771 ,4.17605 ,40.97537 
73 ,13.5562 ,0.77952 ,4.13840 ,40.60601 
74 ,13.7482 ,0.78150 ,4.14183 ,40.63959 
75 ,13.9397 ,0.78338 ,4.09734 ,40.20307 
76 ,14.1157 ,0.78527 ,4.10760 ,40.30380 
77 ,14.2918 ,0.78698 ,4.06996 ,39.93444 
78 ,14.4843 ,0.78886 ,4.06654 ,39.90087 
79 ,14.7086 ,0.79110 ,4.05627 ,39.80013 
80 ,14.9164 ,0.79319 ,4.01178 ,39.36361 
81 ,15.0927 ,0.79501 ,3.99467 ,39.19572 
82 ,15.2845 ,0.79692 ,3.99809 ,39.22930 
83 ,15.4608 ,0.79865 ,3.98098 ,39.06141 
84 ,15.6369 ,0.80045 ,3.95703 ,38.82636 
85 ,15.8129 ,0.80217 ,3.94676 ,38.72562 
86 ,16.0210 ,0.80418 ,3.91596 ,38.42342 
87 ,16.1972 ,0.80600 ,3.90570 ,38.32268 
88 ,16.3732 ,0.80778 ,3.88516 ,38.12122 
89 ,16.5813 ,0.80979 ,3.87147 ,37.98690 
90 ,16.7893 ,0.81189 ,3.87490 ,38.02048 
91 ,16.9654 ,0.81370 ,3.85094 ,37.78543 
92 ,17.1575 ,0.81562 ,3.81672 ,37.44965 
93 ,17.3814 ,0.81779 ,3.77908 ,37.08029 
94 ,17.5896 ,0.81993 ,3.78934 ,37.18102 
95 ,17.7658 ,0.82167 ,3.78592 ,37.14744 
96 ,17.9578 ,0.82359 ,3.75854 ,36.87882 
97 ,18.1499 ,0.82553 ,3.73801 ,36.67735 
98 ,18.3261 ,0.82729 ,3.72774 ,36.57661 
99 ,18.5019 ,0.82909 ,3.71063 ,36.40872 
100 ,18.6941 ,0.83097 ,3.66957 ,36.00578 
101 ,18.8861 ,0.83291 ,3.66614 ,35.97220 
102 ,19.0623 ,0.83465 ,3.66272 ,35.93863 
103 ,19.2543 ,0.83659 ,3.62508 ,35.56926 
104 ,19.4304 ,0.83836 ,3.61481 ,35.46853 
105 ,19.6223 ,0.84021 ,3.59770 ,35.30064 
106 ,19.7985 ,0.84203 ,3.58743 ,35.19990 
107 ,19.9907 ,0.84391 ,3.57375 ,35.06559 
108 ,20.1821 ,0.84585 ,3.54637 ,34.79696 
109 ,20.3747 ,0.84774 ,3.52926 ,34.62907 
110 ,20.5668 ,0.84973 ,3.52926 ,34.62907 
111 ,20.7427 ,0.85148 ,3.50530 ,34.39402 
112 ,20.9348 ,0.85330 ,3.48477 ,34.19255 
113 ,21.1269 ,0.85521 ,3.47792 ,34.12540 
114 ,21.3027 ,0.85706 ,3.46081 ,33.95751 
115 ,21.4792 ,0.85881 ,3.44370 ,33.78961 
116 ,21.6870 ,0.86085 ,3.41975 ,33.55457 
117 ,21.8631 ,0.86263 ,3.41290 ,33.48741 
118 ,22.0395 ,0.86443 ,3.37526 ,33.11805 
119 ,22.2156 ,0.86618 ,3.35815 ,32.95016 
120 ,22.4072 ,0.86802 ,3.35130 ,32.88300 
121 ,22.5835 ,0.86990 ,3.34104 ,32.78227 
122 ,22.7599 ,0.87162 ,3.31708 ,32.54722 
123 ,22.9679 ,0.87356 ,3.31024 ,32.48006 
124 ,23.1599 ,0.87555 ,3.29313 ,32.31217 
125 ,23.3520 ,0.87754 ,3.26917 ,32.07712 
126 ,23.5281 ,0.87927 ,3.26917 ,32.07712 
127 ,23.7201 ,0.88118 ,3.22811 ,31.67418 
128 ,23.8959 ,0.88300 ,3.21784 ,31.57345 
129 ,24.0721 ,0.88472 ,3.20073 ,31.40555 
130 ,24.2803 ,0.88676 ,3.19046 ,31.30482 
131 ,24.4565 ,0.88860 ,3.16993 ,31.10335 
132 ,24.6488 ,0.89048 ,3.16993 ,31.10335 
133 ,24.8726 ,0.89261 ,3.14940 ,30.90188 
134 ,25.0647 ,0.89457 ,3.12886 ,30.70041 
135 ,25.2728 ,0.89664 ,3.10491 ,30.46536 
136 ,25.4649 ,0.89857 ,3.09806 ,30.39821 
137 ,25.6409 ,0.90048 ,3.07411 ,30.16316 
138 ,25.8329 ,0.90227 ,3.05015 ,29.92811 
139 ,26.0252 ,0.90417 ,3.03647 ,29.79380 
140 ,26.2172 ,0.90610 ,3.03304 ,29.76022 
141 ,26.3932 ,0.90790 ,3.00224 ,29.45801 
142 ,26.6014 ,0.90995 ,2.98855 ,29.32370 
143 ,26.7934 ,0.91186 ,2.97487 ,29.18939 
144 ,27.0175 ,0.91403 ,2.95091 ,28.95434 
145 ,27.1935 ,0.91593 ,2.91669 ,28.61856 
146 ,27.3857 ,0.91791 ,2.94064 ,28.85360 
147 ,27.5618 ,0.91964 ,2.90985 ,28.55140 
148 ,27.7538 ,0.92150 ,2.88247 ,28.28277 
149 ,27.9298 ,0.92335 ,2.87905 ,28.24919 
150 ,28.1219 ,0.92515 ,2.85851 ,28.04772 
151 ,28.2979 ,0.92701 ,2.83798 ,27.84625 
152 ,28.4581 ,0.92870 ,2.83114 ,27.77910 
153 ,28.6341 ,0.93030 ,2.81402 ,27.61121 
154 ,28.8421 ,0.93238 ,2.80376 ,27.51047 
155 ,29.0182 ,0.93418 ,2.77638 ,27.24185 
156 ,29.1960 ,0.93595 ,2.77296 ,27.20827 
157 ,29.4023 ,0.93794 ,2.76611 ,27.14111 
158 ,29.6106 ,0.94005 ,2.75585 ,27.04038 
159 ,29.8022 ,0.94197 ,2.72505 ,26.73817 
160 ,29.9786 ,0.94378 ,2.71478 ,26.63744 
161 ,30.1708 ,0.94569 ,2.68740 ,26.36881 
162 ,30.3467 ,0.94747 ,2.69083 ,26.40239 
163 ,30.5387 ,0.94944 ,2.67372 ,26.23450 
164 ,30.7148 ,0.95120 ,2.62923 ,25.79798 
165 ,30.8905 ,0.95302 ,2.65660 ,26.06661 
166 ,31.0829 ,0.95476 ,2.63607 ,25.86514 
167 ,31.2751 ,0.95674 ,2.58816 ,25.39504 
168 ,31.4512 ,0.95850 ,2.60185 ,25.52935 
169 ,31.6274 ,0.96027 ,2.58474 ,25.36146 
170 ,31.8194 ,0.96212 ,2.54710 ,24.99210 
171 ,32.0114 ,0.96409 ,2.54367 ,24.95852 
172 ,32.1871 ,0.96588 ,2.54025 ,24.92494 
173 ,32.3797 ,0.96774 ,2.51972 ,24.72347 
174 ,32.6038 ,0.96990 ,2.49576 ,24.48842 
175 ,32.7959 ,0.97197 ,2.47523 ,24.28696 
176 ,32.9879 ,0.97385 ,2.47865 ,24.32053 
177 ,33.1800 ,0.97575 ,2.45812 ,24.11906 
178 ,33.3716 ,0.97767 ,2.43416 ,23.88402 
179 ,33.5642 ,0.97952 ,2.43416 ,23.88402 
180 ,33.7722 ,0.98165 ,2.41021 ,23.64897 
181 ,33.9485 ,0.98349 ,2.40336 ,23.58181 
182 ,34.1400 ,0.98541 ,2.36572 ,23.21245 
183 ,34.3164 ,0.98717 ,2.34519 ,23.01098 
184 ,34.5085 ,0.98897 ,2.35545 ,23.11171 
185 ,34.6844 ,0.99086 ,2.34861 ,23.04456 
186 ,34.8766 ,0.99276 ,2.30412 ,22.60804 
187 ,35.0688 ,0.99468 ,2.30754 ,22.64162 
188 ,35.2608 ,0.99649 ,2.28017 ,22.37299 
189 ,35.4368 ,0.99832 ,2.25963 ,22.17152 
190 ,35.6129 ,1.00007 ,2.26648 ,22.23868 
191 ,35.8046 ,1.00200 ,2.24937 ,22.07079 
192 ,35.9806 ,1.00380 ,2.21857 ,21.76858 
193 ,36.1566 ,1.00552 ,2.21515 ,21.73500 
194 ,36.3330 ,1.00736 ,2.20146 ,21.60069 
195 ,36.5250 ,1.00924 ,2.19119 ,21.49996 
196 ,36.7172 ,1.01116 ,2.15697 ,21.16417 
197 ,36.9092 ,1.01300 ,2.15355 ,21.13059 
198 ,37.1175 ,1.01506 ,2.12275 ,20.82839 
199 ,37.3091 ,1.01698 ,2.13301 ,20.92912 
200 ,37.4855 ,1.01888 ,2.11932 ,20.79481 
201 ,37.6775 ,1.02078 ,2.09537 ,20.55976 
202 ,37.8699 ,1.02261 ,2.08510 ,20.45903 
203 ,38.0615 ,1.02453 ,2.04404 ,20.05609 
204 ,38.2379 ,1.02632 ,2.05430 ,20.15682 
205 ,38.4295 ,1.02823 ,2.03719 ,19.98893 
206 ,38.6061 ,1.03007 ,2.03035 ,19.92178 
207 ,38.7978 ,1.03192 ,1.98586 ,19.48526 
208 ,38.9901 ,1.03384 ,2.00982 ,19.72031 
209 ,39.1823 ,1.03572 ,1.97559 ,19.38452 
210 ,39.3584 ,1.03759 ,1.95848 ,19.21663 
211 ,39.5504 ,1.03950 ,1.96190 ,19.25021 
212 ,39.7265 ,1.04123 ,1.94822 ,19.11590 
213 ,39.9027 ,1.04295 ,1.90715 ,18.71296 
214 ,40.0947 ,1.04498 ,1.92084 ,18.84727 
215 ,40.2709 ,1.04671 ,1.88662 ,18.51149 
216 ,40.4628 ,1.04851 ,1.86608 ,18.31002 
217 ,40.6550 ,1.05040 ,1.86266 ,18.27644 
218 ,40.8630 ,1.05244 ,1.83871 ,18.04139 
219 ,41.0392 ,1.05440 ,1.82502 ,17.90708 
220 ,41.2307 ,1.05631 ,1.82502 ,17.90708 
221 ,41.4073 ,1.05805 ,1.82844 ,17.94066 
222 ,41.5991 ,1.05991 ,1.78053 ,17.47056 
223 ,41.7754 ,1.06173 ,1.76684 ,17.33625 
224 ,41.9675 ,1.06362 ,1.77711 ,17.43698 
225 ,42.1435 ,1.06539 ,1.75315 ,17.20193 
226 ,42.3193 ,1.06712 ,1.73604 ,17.03404 
227 ,42.4957 ,1.06888 ,1.72235 ,16.89973 
228 ,42.6874 ,1.07075 ,1.71893 ,16.86615 
229 ,42.8639 ,1.07263 ,1.70182 ,16.69826 
230 ,43.0717 ,1.07458 ,1.69498 ,16.63110 
231 ,43.2641 ,1.07651 ,1.65049 ,16.19458 
232 ,43.4401 ,1.07842 ,1.65733 ,16.26174 
233 ,43.6163 ,1.08009 ,1.63338 ,16.02669 
234 ,43.7921 ,1.08189 ,1.62653 ,15.95954 
235 ,43.9683 ,1.08363 ,1.61627 ,15.85880 
236 ,44.1445 ,1.08541 ,1.59231 ,15.62375 
237 ,44.3365 ,1.08735 ,1.59231 ,15.62375 
238 ,44.5124 ,1.08906 ,1.58547 ,15.55660 
239 ,44.7047 ,1.09089 ,1.54782 ,15.18724 
240 ,44.8968 ,1.09283 ,1.54440 ,15.15366 
241 ,45.0888 ,1.09487 ,1.54098 ,15.12008 
242 ,45.2809 ,1.09678 ,1.50333 ,14.75072 
243 ,45.4730 ,1.09860 ,1.51702 ,14.88503 
244 ,45.6650 ,1.10056 ,1.47938 ,14.51567 
245 ,45.8567 ,1.10248 ,1.47253 ,14.44851 
246 ,46.0332 ,1.10424 ,1.46911 ,14.41493 
247 ,46.2413 ,1.10631 ,1.44858 ,14.21346 
248 ,46.4174 ,1.10814 ,1.42120 ,13.94484 
249 ,46.6095 ,1.10999 ,1.41436 ,13.87768 
250 ,46.7855 ,1.11182 ,1.40409 ,13.77695 
251 ,46.9772 ,1.11370 ,1.38014 ,13.54190 
252 ,47.1538 ,1.11545 ,1.39725 ,13.70979 
253 ,47.3618 ,1.11746 ,1.36303 ,13.37401 
254 ,47.5539 ,1.11940 ,1.37329 ,13.47474 
255 ,47.7295 ,1.12125 ,1.35618 ,13.30685 
256 ,47.9060 ,1.12296 ,1.32196 ,12.97107 
257 ,48.0978 ,1.12481 ,1.31169 ,12.87033 
258 ,48.2742 ,1.12668 ,1.30827 ,12.83675 
259 ,48.4661 ,1.12851 ,1.28089 ,12.56813 
260 ,48.6583 ,1.13048 ,1.28774 ,12.63528 
261 ,48.8503 ,1.13239 ,1.28089 ,12.56813 
262 ,49.0264 ,1.13417 ,1.25009 ,12.26592 
263 ,49.1865 ,1.13592 ,1.23641 ,12.13161 
264 ,49.3786 ,1.13768 ,1.24325 ,12.19877 
265 ,49.5548 ,1.13949 ,1.23641 ,12.13161 
266 ,49.7467 ,1.14135 ,1.19876 ,11.76225 
267 ,49.9389 ,1.14326 ,1.18850 ,11.66151 
268 ,50.1310 ,1.14517 ,1.17138 ,11.49362 
269 ,50.3227 ,1.14707 ,1.15427 ,11.32573 
270 ,50.5150 ,1.14904 ,1.16112 ,11.39289 
271 ,50.6910 ,1.15080 ,1.16112 ,11.39289 
272 ,50.8832 ,1.15265 ,1.11321 ,10.92279 
273 ,51.0749 ,1.15469 ,1.11663 ,10.95637 
274 ,51.2670 ,1.15656 ,1.07899 ,10.58701 
275 ,51.4435 ,1.15839 ,1.07899 ,10.58701 
276 ,51.6353 ,1.16024 ,1.08583 ,10.65416 
277 ,51.8113 ,1.16202 ,1.06530 ,10.45270 
278 ,51.9878 ,1.16381 ,1.05503 ,10.35196 
279 ,52.1798 ,1.16572 ,1.03450 ,10.15049 
280 ,52.3556 ,1.16747 ,1.03108 ,10.11691 
281 ,52.5317 ,1.16922 ,1.01396 ,9.94902 
282 ,52.7239 ,1.17112 ,0.98317 ,9.64682 
283 ,52.9000 ,1.17298 ,0.98659 ,9.68039 
284 ,53.0920 ,1.17482 ,0.95921 ,9.41177 
285 ,53.2682 ,1.17654 ,0.96263 ,9.44535 
286 ,53.4442 ,1.17832 ,0.94552 ,9.27745 
287 ,53.6204 ,1.18011 ,0.93868 ,9.21030 
288 ,53.8124 ,1.18199 ,0.92841 ,9.10956 
289 ,54.0040 ,1.18389 ,0.90788 ,8.90809 
290 ,54.1963 ,1.18579 ,0.91130 ,8.94167 
291 ,54.3886 ,1.18779 ,0.88734 ,8.70662 
292 ,54.5966 ,1.18977 ,0.88050 ,8.63947 
293 ,54.7728 ,1.19161 ,0.86681 ,8.50515 
294 ,54.9490 ,1.19339 ,0.85654 ,8.40442 
295 ,55.1409 ,1.19534 ,0.83259 ,8.16937 
296 ,55.3331 ,1.19713 ,0.82232 ,8.06864 
297 ,55.5090 ,1.19903 ,0.80521 ,7.90074 
298 ,55.6850 ,1.20078 ,0.79837 ,7.83359 
299 ,55.8933 ,1.20275 ,0.78126 ,7.66570 
300 ,56.0692 ,1.20470 ,0.77441 ,7.59854 
301 ,56.2610 ,1.20659 ,0.77099 ,7.56496 
302 ,56.4374 ,1.20828 ,0.75730 ,7.43065 
303 ,56.6291 ,1.21018 ,0.73335 ,7.19560 
304 ,56.8056 ,1.21197 ,0.70939 ,6.96055 
305 ,56.9977 ,1.21388 ,0.72308 ,7.09486 
306 ,57.2058 ,1.21589 ,0.69228 ,6.79266 
307 ,57.3979 ,1.21777 ,0.69913 ,6.85982 
308 ,57.5897 ,1.21977 ,0.67175 ,6.59119 
309 ,57.7656 ,1.22152 ,0.65121 ,6.38972 
310 ,57.9581 ,1.22347 ,0.66833 ,6.55761 
311 ,58.1500 ,1.22541 ,0.63753 ,6.25541 
312 ,58.3258 ,1.22713 ,0.62042 ,6.08752 
313 ,58.5020 ,1.22892 ,0.60330 ,5.91962 
314 ,58.7259 ,1.23102 ,0.60330 ,5.91962 
315 ,58.9182 ,1.23302 ,0.59988 ,5.88605 
316 ,59.1103 ,1.23503 ,0.57593 ,5.65100 
317 ,59.2864 ,1.23677 ,0.56566 ,5.55026 
318 ,59.4625 ,1.23847 ,0.55539 ,5.44953 
319 ,59.6387 ,1.24029 ,0.55539 ,5.44953 
320 ,59.8302 ,1.24210 ,0.53144 ,5.21448 
321 ,60.0067 ,1.24395 ,0.53144 ,5.21448 
322 ,60.1828 ,1.24569 ,0.51091 ,5.01301 
323 ,60.3909 ,1.24776 ,0.51433 ,5.04659 
324 ,60.5990 ,1.24972 ,0.50064 ,4.91228 
325 ,60.8071 ,1.25181 ,0.48011 ,4.71081 
326 ,60.9991 ,1.25386 ,0.47668 ,4.67723 
327 ,61.2072 ,1.25582 ,0.46300 ,4.54291 
328 ,61.3993 ,1.25786 ,0.45273 ,4.44218 
329 ,61.6072 ,1.25984 ,0.42193 ,4.13997 
330 ,61.7994 ,1.26181 ,0.43562 ,4.27429 
331 ,61.9751 ,1.26361 ,0.41851 ,4.10640 
332 ,62.1675 ,1.26551 ,0.39113 ,3.83777 
333 ,62.3436 ,1.26733 ,0.38771 ,3.80419 
334 ,62.5358 ,1.26915 ,0.36718 ,3.60272 
335 ,62.7278 ,1.27111 ,0.36033 ,3.53557 
336 ,62.9039 ,1.27293 ,0.37060 ,3.63630 
337 ,63.0960 ,1.27487 ,0.32269 ,3.16620 
338 ,63.2721 ,1.27657 ,0.33295 ,3.26694 
339 ,63.4481 ,1.27842 ,0.32611 ,3.19978 
340 ,63.6242 ,1.28016 ,0.30215 ,2.96473 
341 ,63.8002 ,1.28185 ,0.31584 ,3.09905 
342 ,63.9763 ,1.28363 ,0.29189 ,2.86400 
343 ,64.1360 ,1.28535 ,0.27135 ,2.66253 
344 ,64.3123 ,1.28698 ,0.27135 ,2.66253 
345 ,64.4886 ,1.28873 ,0.25424 ,2.49464 
346 ,64.6964 ,1.29078 ,0.25424 ,2.49464 
347 ,64.8728 ,1.29259 ,0.23029 ,2.25959 
348 ,65.0646 ,1.29450 ,0.22687 ,2.22601 
349 ,65.2564 ,1.29642 ,0.21660 ,2.12528 
350 ,65.4649 ,1.29842 ,0.20291 ,1.99096 
351 ,65.6570 ,1.30039 ,0.19264 ,1.89023 
352 ,65.8331 ,1.30215 ,0.17896 ,1.75592 
353 ,66.0569 ,1.30426 ,0.17211 ,1.68876 
354 ,66.2330 ,1.30613 ,0.16527 ,1.62160 
355 ,66.4093 ,1.30801 ,0.15158 ,1.48729 
356 ,66.6173 ,1.30989 ,0.15500 ,1.52087 
357 ,66.7931 ,1.31180 ,0.12762 ,1.25224 
358 ,66.9696 ,1.31355 ,0.10709 ,1.05077 
359 ,67.1617 ,1.31550 ,0.10709 ,1.05077 
360 ,67.3539 ,1.31731 ,0.09682 ,0.95004 
361 ,67.5460 ,1.31935 ,0.06945 ,0.68141 
362 ,67.7380 ,1.32119 ,0.08656 ,0.84930 
363 ,67.9298 ,1.32313 ,0.05576 ,0.54710 
364 ,68.1381 ,1.32509 ,0.06260 ,0.61425 
365 ,68.3141 ,1.32700 ,0.05234 ,0.51352 
366 ,68.4901 ,1.32869 ,0.01811 ,0.17773 
367 ,68.6984 ,1.33079 ,0.02496 ,0.24489 
368 ,68.8900 ,1.33276 ,0.01469 ,0.14416 
369 ,69.0666 ,1.33452 ,0.00443 ,0.04342 
370 ,69.2586 ,1.33642 ,0.00443 ,0.04342 
371 ,69.4503 ,1.33833 ,-0.02295 ,-0.22520 
372 ,69.6268 ,1.34015 ,-0.04006 ,-0.39310 
373 ,69.8349 ,1.34207 ,-0.03322 ,-0.32594 
374 ,70.0265 ,1.34414 ,-0.06060 ,-0.59457 
375 ,70.2030 ,1.34583 ,-0.05375 ,-0.52741 
376 ,70.4267 ,1.34796 ,-0.07428 ,-0.72888 
377 ,70.6026 ,1.34987 ,-0.08455 ,-0.82961 
378 ,70.7788 ,1.35162 ,-0.06744 ,-0.66172 
379 ,70.9553 ,1.35338 ,-0.09140 ,-0.89677 
380 ,71.1312 ,1.35513 ,-0.11535 ,-1.13182 
381 ,71.3233 ,1.35709 ,-0.11535 ,-1.13182 
382 ,71.4995 ,1.35888 ,-0.11193 ,-1.09824 
383 ,71.6914 ,1.36072 ,-0.14273 ,-1.40045 
384 ,71.8836 ,1.36261 ,-0.14615 ,-1.43402 
385 ,72.0758 ,1.36458 ,-0.14615 ,-1.43402 
386 ,72.2837 ,1.36659 ,-0.15642 ,-1.53476 
387 ,72.4917 ,1.36875 ,-0.19064 ,-1.87054 
388 ,72.6834 ,1.37070 ,-0.18379 ,-1.80338 
389 ,72.8601 ,1.37243 ,-0.19748 ,-1.93770 
390 ,73.0839 ,1.37450 ,-0.20775 ,-2.03843 
391 ,73.2602 ,1.37641 ,-0.20775 ,-2.03843 
392 ,73.4363 ,1.37819 ,-0.22828 ,-2.23990 
393 ,73.6283 ,1.38003 ,-0.24197 ,-2.37422 
394 ,73.8203 ,1.38192 ,-0.24539 ,-2.40779 
395 ,73.9964 ,1.38379 ,-0.24539 ,-2.40779 
396 ,74.1724 ,1.38551 ,-0.26935 ,-2.64284 
397 ,74.3807 ,1.38758 ,-0.26593 ,-2.60926 
398 ,74.5563 ,1.38947 ,-0.28646 ,-2.81073 
399 ,74.7162 ,1.39111 ,-0.30357 ,-2.97863 
400 ,74.8923 ,1.39274 ,-0.29673 ,-2.91147 
401 ,75.0689 ,1.39450 ,-0.31384 ,-3.07936 
402 ,75.2771 ,1.39654 ,-0.31726 ,-3.11294 
403 ,75.4849 ,1.39860 ,-0.33437 ,-3.28083 
404 ,75.6930 ,1.40068 ,-0.35490 ,-3.48230 
405 ,75.8689 ,1.40250 ,-0.35148 ,-3.44872 
406 ,76.0455 ,1.40430 ,-0.36175 ,-3.54946 
407 ,76.2691 ,1.40645 ,-0.37544 ,-3.68377 
408 ,76.4456 ,1.40828 ,-0.39255 ,-3.85166 
409 ,76.6375 ,1.41013 ,-0.39255 ,-3.85166 
410 ,76.8136 ,1.41192 ,-0.40966 ,-4.01955 
411 ,76.9896 ,1.41373 ,-0.41308 ,-4.05313 
412 ,77.1659 ,1.41546 ,-0.41992 ,-4.12029 
413 ,77.3579 ,1.41733 ,-0.43361 ,-4.25460 
414 ,77.5336 ,1.41913 ,-0.44046 ,-4.32176 
415 ,77.7101 ,1.42087 ,-0.44046 ,-4.32176 
416 ,77.9020 ,1.42276 ,-0.43703 ,-4.28818 
417 ,78.0940 ,1.42479 ,-0.47810 ,-4.69112 
418 ,78.2701 ,1.42652 ,-0.48494 ,-4.75828 
419 ,78.4623 ,1.42836 ,-0.48837 ,-4.79185 
420 ,78.6383 ,1.43024 ,-0.50890 ,-4.99332 
421 ,78.8305 ,1.43203 ,-0.50206 ,-4.92617 
422 ,79.0224 ,1.43397 ,-0.50890 ,-4.99332 
423 ,79.2146 ,1.43597 ,-0.51574 ,-5.06048 
424 ,79.4226 ,1.43798 ,-0.52259 ,-5.12764 
425 ,79.6148 ,1.43983 ,-0.54997 ,-5.39626 
426 ,79.8069 ,1.44177 ,-0.54312 ,-5.32911 
427 ,79.9830 ,1.44368 ,-0.54312 ,-5.32911 
428 ,80.1745 ,1.44553 ,-0.56365 ,-5.53058 
429 ,80.3514 ,1.44728 ,-0.57392 ,-5.63131 
430 ,80.5269 ,1.44910 ,-0.58419 ,-5.73205 
431 ,80.7191 ,1.45092 ,-0.58419 ,-5.73205 
432 ,80.8950 ,1.45273 ,-0.59788 ,-5.86636 
433 ,81.0870 ,1.45468 ,-0.61156 ,-6.00067 
434 ,81.2633 ,1.45639 ,-0.60814 ,-5.96709 
435 ,81.4395 ,1.45818 ,-0.62183 ,-6.10141 
436 ,81.6316 ,1.46005 ,-0.63894 ,-6.26930 
437 ,81.8397 ,1.46212 ,-0.63210 ,-6.20214 
438 ,82.0317 ,1.46406 ,-0.65263 ,-6.40361 
439 ,82.2237 ,1.46607 ,-0.64921 ,-6.37003 
440 ,82.4159 ,1.46789 ,-0.65605 ,-6.43719 
441 ,82.6080 ,1.46990 ,-0.67659 ,-6.63866 
442 ,82.8160 ,1.47188 ,-0.69370 ,-6.80655 
443 ,82.9921 ,1.47376 ,-0.69027 ,-6.77297 
444 ,83.1842 ,1.47559 ,-0.68001 ,-6.67224 
445 ,83.3758 ,1.47752 ,-0.70739 ,-6.94086 
446 ,83.5524 ,1.47932 ,-0.71423 ,-7.00802 
447 ,83.7443 ,1.48124 ,-0.71765 ,-7.04160 
448 ,83.9364 ,1.48305 ,-0.72107 ,-7.07518 
449 ,84.1445 ,1.48515 ,-0.74161 ,-7.27665 
450 ,84.3364 ,1.48710 ,-0.75872 ,-7.44454 
451 ,84.5287 ,1.48898 ,-0.75187 ,-7.37738 
452 ,84.7368 ,1.49105 ,-0.77925 ,-7.64601 
453 ,84.9289 ,1.49302 ,-0.77241 ,-7.57885 
454 ,85.1210 ,1.49491 ,-0.77925 ,-7.64601 
455 ,85.3130 ,1.49687 ,-0.79636 ,-7.81390 
456 ,85.4887 ,1.49872 ,-0.79636 ,-7.81390 
457 ,85.6652 ,1.50041 ,-0.80321 ,-7.88106 
458 ,85.8572 ,1.50236 ,-0.82032 ,-8.04895 
459 ,86.0334 ,1.50412 ,-0.83743 ,-8.21684 
460 ,86.2409 ,1.50615 ,-0.84085 ,-8.25042 
461 ,86.4175 ,1.50797 ,-0.85454 ,-8.38473 
462 ,86.6254 ,1.50997 ,-0.84769 ,-8.31758 
463 ,86.8018 ,1.51176 ,-0.85796 ,-8.41831 
