Data stamp = , 21-04-2022 06:38:58 428

Calibration Values: 
Slope = , 26.54 , g/V 
Offset Voltage at no contact = , -0.501760 , V 

No , Time , Stage Position ,   Mass , Force 
   ,  (s) ,      (mm)      ,   (g)  , (mN)  

1 ,0.0000 ,0.64934 ,5.24718 ,51.48538 
2 ,0.2171 ,0.64943 ,5.24034 ,51.41822 
3 ,0.5213 ,0.65023 ,5.25403 ,51.55254 
4 ,0.7294 ,0.65161 ,5.24718 ,51.48538 
5 ,0.9212 ,0.65323 ,5.25403 ,51.55254 
6 ,1.0973 ,0.65508 ,5.25061 ,51.51896 
7 ,1.3057 ,0.65701 ,5.25061 ,51.51896 
8 ,1.4974 ,0.65908 ,5.24034 ,51.41822 
9 ,1.6733 ,0.66081 ,5.23692 ,51.38464 
10 ,1.8494 ,0.66256 ,5.23692 ,51.38464 
11 ,2.0416 ,0.66440 ,5.22323 ,51.25033 
12 ,2.2181 ,0.66626 ,5.20954 ,51.11602 
13 ,2.4100 ,0.66817 ,5.19927 ,51.01528 
14 ,2.5857 ,0.66992 ,5.17532 ,50.78023 
15 ,2.7620 ,0.67177 ,5.16505 ,50.67950 
16 ,2.9541 ,0.67359 ,5.13083 ,50.34372 
17 ,3.1303 ,0.67539 ,5.12741 ,50.31014 
18 ,3.3063 ,0.67715 ,5.11372 ,50.17583 
19 ,3.4984 ,0.67894 ,5.10688 ,50.10867 
20 ,3.6741 ,0.68082 ,5.06581 ,49.70573 
21 ,3.8825 ,0.68282 ,5.05212 ,49.57142 
22 ,4.0586 ,0.68461 ,5.04528 ,49.50426 
23 ,4.2187 ,0.68638 ,5.00421 ,49.10132 
24 ,4.3949 ,0.68801 ,5.00421 ,49.10132 
25 ,4.5867 ,0.68992 ,4.99052 ,48.96701 
26 ,4.7789 ,0.69177 ,4.95288 ,48.59764 
27 ,4.9551 ,0.69364 ,4.95972 ,48.66480 
28 ,5.1309 ,0.69536 ,4.92550 ,48.32902 
29 ,5.3229 ,0.69724 ,4.92892 ,48.36260 
30 ,5.4994 ,0.69906 ,4.88786 ,47.95966 
31 ,5.6913 ,0.70091 ,4.88786 ,47.95966 
32 ,5.8834 ,0.70283 ,4.86390 ,47.72461 
33 ,6.0596 ,0.70467 ,4.84337 ,47.52314 
34 ,6.2676 ,0.70665 ,4.84337 ,47.52314 
35 ,6.4597 ,0.70871 ,4.80573 ,47.15378 
36 ,6.6513 ,0.71057 ,4.77493 ,46.85157 
37 ,6.8280 ,0.71235 ,4.78177 ,46.91873 
38 ,7.0199 ,0.71432 ,4.73728 ,46.48221 
39 ,7.2119 ,0.71613 ,4.73728 ,46.48221 
40 ,7.3881 ,0.71793 ,4.73728 ,46.48221 
41 ,7.5796 ,0.71990 ,4.70306 ,46.14643 
42 ,7.7557 ,0.72167 ,4.68253 ,45.94496 
43 ,7.9478 ,0.72344 ,4.67568 ,45.87780 
44 ,8.1400 ,0.72543 ,4.63462 ,45.47486 
45 ,8.3481 ,0.72752 ,4.62777 ,45.40771 
46 ,8.5245 ,0.72938 ,4.61751 ,45.30697 
47 ,8.7323 ,0.73136 ,4.60382 ,45.17266 
48 ,8.9091 ,0.73315 ,4.56275 ,44.76972 
49 ,9.1005 ,0.73499 ,4.55249 ,44.66898 
50 ,9.2767 ,0.73681 ,4.54222 ,44.56825 
51 ,9.4365 ,0.73854 ,4.51826 ,44.33320 
52 ,9.6130 ,0.74015 ,4.49773 ,44.13173 
53 ,9.8210 ,0.74213 ,4.47720 ,43.93026 
54 ,10.0450 ,0.74434 ,4.48404 ,43.99742 
55 ,10.2371 ,0.74636 ,4.45666 ,43.72879 
56 ,10.4450 ,0.74841 ,4.42586 ,43.42659 
57 ,10.6212 ,0.75025 ,4.41218 ,43.29227 
58 ,10.7975 ,0.75198 ,4.38138 ,42.99007 
59 ,11.0056 ,0.75410 ,4.38822 ,43.05723 
60 ,11.1812 ,0.75596 ,4.35058 ,42.68786 
61 ,11.3734 ,0.75771 ,4.35058 ,42.68786 
62 ,11.5498 ,0.75953 ,4.34716 ,42.65429 
63 ,11.7578 ,0.76160 ,4.29924 ,42.18419 
64 ,11.9499 ,0.76350 ,4.30267 ,42.21777 
65 ,12.1260 ,0.76530 ,4.28213 ,42.01630 
66 ,12.3176 ,0.76716 ,4.25133 ,41.71409 
67 ,12.4942 ,0.76901 ,4.24449 ,41.64694 
68 ,12.7020 ,0.77103 ,4.21711 ,41.37831 
69 ,12.9102 ,0.77300 ,4.21711 ,41.37831 
70 ,13.0863 ,0.77494 ,4.18631 ,41.07611 
71 ,13.2621 ,0.77664 ,4.16578 ,40.87464 
72 ,13.4384 ,0.77839 ,4.15209 ,40.74032 
73 ,13.6465 ,0.78038 ,4.14183 ,40.63959 
74 ,13.8225 ,0.78226 ,4.11103 ,40.33738 
75 ,13.9988 ,0.78402 ,4.09049 ,40.13591 
76 ,14.1908 ,0.78590 ,4.09049 ,40.13591 
77 ,14.3666 ,0.78779 ,4.06654 ,39.90087 
78 ,14.5430 ,0.78941 ,4.03916 ,39.63224 
79 ,14.7510 ,0.79147 ,4.03916 ,39.63224 
80 ,14.9271 ,0.79332 ,4.02205 ,39.46435 
81 ,15.1191 ,0.79529 ,4.00152 ,39.26288 
82 ,15.2950 ,0.79701 ,3.98441 ,39.09499 
83 ,15.4869 ,0.79892 ,3.97414 ,38.99425 
84 ,15.6631 ,0.80066 ,3.94334 ,38.69205 
85 ,15.8395 ,0.80243 ,3.92281 ,38.49058 
86 ,16.0312 ,0.80432 ,3.91254 ,38.38984 
87 ,16.2076 ,0.80612 ,3.90912 ,38.35626 
88 ,16.3836 ,0.80785 ,3.88858 ,38.15479 
89 ,16.5594 ,0.80961 ,3.84410 ,37.71828 
90 ,16.7518 ,0.81152 ,3.86805 ,37.95332 
91 ,16.9600 ,0.81358 ,3.82356 ,37.51681 
92 ,17.1520 ,0.81552 ,3.82699 ,37.55038 
93 ,17.3601 ,0.81748 ,3.77908 ,37.08029 
94 ,17.5360 ,0.81941 ,3.76539 ,36.94597 
95 ,17.7283 ,0.82126 ,3.75170 ,36.81166 
96 ,17.9201 ,0.82326 ,3.73117 ,36.61019 
97 ,18.1120 ,0.82515 ,3.72090 ,36.50946 
98 ,18.3045 ,0.82700 ,3.71405 ,36.44230 
99 ,18.5126 ,0.82909 ,3.69352 ,36.24083 
100 ,18.7042 ,0.83104 ,3.66614 ,35.97220 
101 ,18.8966 ,0.83286 ,3.65246 ,35.83789 
102 ,19.1046 ,0.83505 ,3.61481 ,35.46853 
103 ,19.2807 ,0.83686 ,3.60112 ,35.33422 
104 ,19.4725 ,0.83872 ,3.59770 ,35.30064 
105 ,19.6489 ,0.84051 ,3.59428 ,35.26706 
106 ,19.8247 ,0.84226 ,3.54295 ,34.76338 
107 ,20.0173 ,0.84410 ,3.54295 ,34.76338 
108 ,20.2253 ,0.84623 ,3.52926 ,34.62907 
109 ,20.4009 ,0.84806 ,3.51215 ,34.46118 
110 ,20.5774 ,0.84984 ,3.49504 ,34.29329 
111 ,20.7693 ,0.85169 ,3.47108 ,34.05824 
112 ,20.9775 ,0.85371 ,3.45739 ,33.92393 
113 ,21.1537 ,0.85557 ,3.44028 ,33.75604 
114 ,21.3298 ,0.85731 ,3.43001 ,33.65530 
115 ,21.5215 ,0.85916 ,3.40606 ,33.42025 
116 ,21.7138 ,0.86115 ,3.39579 ,33.31952 
117 ,21.8899 ,0.86289 ,3.38895 ,33.25236 
118 ,22.0660 ,0.86468 ,3.35815 ,32.95016 
119 ,22.2581 ,0.86656 ,3.33077 ,32.68153 
120 ,22.4342 ,0.86831 ,3.33419 ,32.71511 
121 ,22.6258 ,0.87022 ,3.29313 ,32.31217 
122 ,22.8023 ,0.87198 ,3.27944 ,32.17786 
123 ,22.9940 ,0.87385 ,3.28628 ,32.24501 
124 ,23.1704 ,0.87571 ,3.26233 ,32.00996 
125 ,23.3784 ,0.87768 ,3.25206 ,31.90923 
126 ,23.5546 ,0.87956 ,3.23153 ,31.70776 
127 ,23.7624 ,0.88154 ,3.20757 ,31.47271 
128 ,23.9389 ,0.88337 ,3.19388 ,31.33840 
129 ,24.1305 ,0.88529 ,3.18704 ,31.27124 
130 ,24.3069 ,0.88707 ,3.15624 ,30.96904 
131 ,24.4827 ,0.88880 ,3.13913 ,30.80115 
132 ,24.6591 ,0.89058 ,3.12886 ,30.70041 
133 ,24.8510 ,0.89251 ,3.12544 ,30.66683 
134 ,25.0273 ,0.89434 ,3.08780 ,30.29747 
135 ,25.2029 ,0.89603 ,3.08438 ,30.26389 
136 ,25.3794 ,0.89778 ,3.06042 ,30.02884 
137 ,25.5554 ,0.89957 ,3.04673 ,29.89453 
138 ,25.7635 ,0.90156 ,3.02278 ,29.65948 
139 ,25.9397 ,0.90338 ,3.02278 ,29.65948 
140 ,26.1316 ,0.90524 ,3.00224 ,29.45801 
141 ,26.3078 ,0.90711 ,2.99198 ,29.35728 
142 ,26.5156 ,0.90908 ,2.97144 ,29.15581 
143 ,26.6917 ,0.91091 ,2.95776 ,29.02150 
144 ,26.9165 ,0.91290 ,2.93380 ,28.78645 
145 ,27.0918 ,0.91488 ,2.92696 ,28.71929 
146 ,27.2842 ,0.91672 ,2.89616 ,28.41709 
147 ,27.4601 ,0.91862 ,2.88931 ,28.34993 
148 ,27.6521 ,0.92046 ,2.88247 ,28.28277 
149 ,27.8284 ,0.92230 ,2.85167 ,27.98057 
150 ,28.0204 ,0.92409 ,2.84140 ,27.87983 
151 ,28.1965 ,0.92593 ,2.82771 ,27.74552 
152 ,28.3882 ,0.92785 ,2.79349 ,27.40974 
153 ,28.5805 ,0.92975 ,2.78322 ,27.30900 
154 ,28.7885 ,0.93177 ,2.76611 ,27.14111 
155 ,28.9649 ,0.93365 ,2.74900 ,26.97322 
156 ,29.1408 ,0.93544 ,2.75243 ,27.00680 
157 ,29.3328 ,0.93721 ,2.74558 ,26.93964 
158 ,29.6847 ,0.94079 ,2.71136 ,26.60386 
159 ,29.8611 ,0.94259 ,2.68740 ,26.36881 
160 ,30.0531 ,0.94448 ,2.65318 ,26.03303 
161 ,30.2294 ,0.94627 ,2.65660 ,26.06661 
162 ,30.4375 ,0.94826 ,2.66687 ,26.16734 
163 ,30.6294 ,0.95020 ,2.61896 ,25.69724 
164 ,30.8057 ,0.95203 ,2.59158 ,25.42862 
165 ,30.9977 ,0.95391 ,2.59501 ,25.46220 
166 ,31.1898 ,0.95579 ,2.57105 ,25.22715 
167 ,31.3817 ,0.95775 ,2.56763 ,25.19357 
168 ,31.5738 ,0.95964 ,2.56078 ,25.12641 
169 ,31.7501 ,0.96145 ,2.54025 ,24.92494 
170 ,31.9420 ,0.96333 ,2.51972 ,24.72347 
171 ,32.1181 ,0.96512 ,2.51287 ,24.65632 
172 ,32.2778 ,0.96686 ,2.49918 ,24.52200 
173 ,32.4542 ,0.96855 ,2.48207 ,24.35411 
174 ,32.6301 ,0.97028 ,2.47181 ,24.25338 
175 ,32.8223 ,0.97209 ,2.44785 ,24.01833 
176 ,33.0143 ,0.97407 ,2.43759 ,23.91759 
177 ,33.1904 ,0.97585 ,2.42048 ,23.74970 
178 ,33.3667 ,0.97763 ,2.39652 ,23.51465 
179 ,33.5424 ,0.97942 ,2.40679 ,23.61539 
180 ,33.7188 ,0.98114 ,2.38625 ,23.41392 
181 ,33.8788 ,0.98286 ,2.37256 ,23.27961 
182 ,34.0549 ,0.98451 ,2.37256 ,23.27961 
183 ,34.2471 ,0.98644 ,2.33834 ,22.94382 
184 ,34.4392 ,0.98830 ,2.32808 ,22.84309 
185 ,34.6312 ,0.99022 ,2.30754 ,22.64162 
186 ,34.8389 ,0.99230 ,2.29385 ,22.50731 
187 ,35.0314 ,0.99421 ,2.27332 ,22.30584 
188 ,35.2234 ,0.99621 ,2.26306 ,22.20510 
189 ,35.4153 ,0.99811 ,2.24594 ,22.03721 
190 ,35.5913 ,0.99981 ,2.23226 ,21.90290 
191 ,35.7835 ,1.00176 ,2.20830 ,21.66785 
192 ,35.9593 ,1.00353 ,2.20146 ,21.60069 
193 ,36.1516 ,1.00541 ,2.17750 ,21.36564 
194 ,36.3439 ,1.00730 ,2.15697 ,21.16417 
195 ,36.5516 ,1.00939 ,2.16039 ,21.19775 
196 ,36.7281 ,1.01124 ,2.13986 ,20.99628 
197 ,36.9362 ,1.01322 ,2.13301 ,20.92912 
198 ,37.1120 ,1.01507 ,2.11248 ,20.72766 
199 ,37.2880 ,1.01683 ,2.09879 ,20.59334 
200 ,37.4964 ,1.01876 ,2.08852 ,20.49261 
201 ,37.7044 ,1.02096 ,2.07826 ,20.39187 
202 ,37.8965 ,1.02293 ,2.05773 ,20.19040 
203 ,38.0882 ,1.02478 ,2.03377 ,19.95535 
204 ,38.2644 ,1.02663 ,2.02350 ,19.85462 
205 ,38.4566 ,1.02850 ,2.02693 ,19.88820 
206 ,38.6647 ,1.03051 ,1.99955 ,19.61957 
207 ,38.8408 ,1.03233 ,1.99270 ,19.55241 
208 ,39.0650 ,1.03447 ,1.95506 ,19.18305 
209 ,39.2571 ,1.03653 ,1.95848 ,19.21663 
210 ,39.4492 ,1.03838 ,1.93453 ,18.98158 
211 ,39.6254 ,1.04020 ,1.90715 ,18.71296 
212 ,39.8177 ,1.04211 ,1.92768 ,18.91443 
213 ,40.0094 ,1.04409 ,1.89004 ,18.54507 
214 ,40.1854 ,1.04580 ,1.88662 ,18.51149 
215 ,40.3614 ,1.04752 ,1.86266 ,18.27644 
216 ,40.5375 ,1.04932 ,1.85582 ,18.20928 
217 ,40.7137 ,1.05109 ,1.84213 ,18.07497 
218 ,40.9062 ,1.05297 ,1.82160 ,17.87350 
219 ,41.0816 ,1.05475 ,1.80449 ,17.70561 
220 ,41.2738 ,1.05666 ,1.79080 ,17.57129 
221 ,41.4660 ,1.05861 ,1.76684 ,17.33625 
222 ,41.6740 ,1.06062 ,1.76684 ,17.33625 
223 ,41.8661 ,1.06250 ,1.74631 ,17.13478 
224 ,42.0740 ,1.06457 ,1.73604 ,17.03404 
225 ,42.2503 ,1.06644 ,1.72235 ,16.89973 
226 ,42.4260 ,1.06820 ,1.70524 ,16.73184 
227 ,42.6185 ,1.07004 ,1.71209 ,16.79899 
228 ,42.7946 ,1.07186 ,1.70182 ,16.69826 
229 ,42.9867 ,1.07377 ,1.66418 ,16.32890 
230 ,43.1787 ,1.07562 ,1.65733 ,16.26174 
231 ,43.4025 ,1.07776 ,1.64022 ,16.09385 
232 ,43.5787 ,1.07968 ,1.64022 ,16.09385 
233 ,43.7870 ,1.08167 ,1.59916 ,15.69091 
234 ,43.9629 ,1.08358 ,1.60600 ,15.75807 
235 ,44.1550 ,1.08549 ,1.58547 ,15.55660 
236 ,44.3310 ,1.08722 ,1.56151 ,15.32155 
237 ,44.5390 ,1.08928 ,1.55124 ,15.22081 
238 ,44.7313 ,1.09121 ,1.53756 ,15.08650 
239 ,44.9394 ,1.09327 ,1.54782 ,15.18724 
240 ,45.1154 ,1.09506 ,1.52387 ,14.95219 
241 ,45.2912 ,1.09681 ,1.49649 ,14.68356 
242 ,45.4836 ,1.09865 ,1.47938 ,14.51567 
243 ,45.6592 ,1.10053 ,1.46227 ,14.34778 
244 ,45.8358 ,1.10228 ,1.46227 ,14.34778 
245 ,46.0278 ,1.10420 ,1.43489 ,14.07915 
246 ,46.2039 ,1.10596 ,1.44516 ,14.17989 
247 ,46.3959 ,1.10776 ,1.41436 ,13.87768 
248 ,46.5719 ,1.10961 ,1.41436 ,13.87768 
249 ,46.7481 ,1.11147 ,1.39725 ,13.70979 
250 ,46.9239 ,1.11312 ,1.39725 ,13.70979 
251 ,47.1164 ,1.11502 ,1.37329 ,13.47474 
252 ,47.3082 ,1.11691 ,1.35618 ,13.30685 
253 ,47.5005 ,1.11888 ,1.34591 ,13.20612 
254 ,47.7245 ,1.12098 ,1.32196 ,12.97107 
255 ,47.9171 ,1.12302 ,1.32196 ,12.97107 
256 ,48.1246 ,1.12507 ,1.31169 ,12.87033 
257 ,48.3007 ,1.12688 ,1.29800 ,12.73602 
258 ,48.4928 ,1.12879 ,1.26720 ,12.43381 
259 ,48.6849 ,1.13070 ,1.27063 ,12.46739 
260 ,48.8765 ,1.13261 ,1.25009 ,12.26592 
261 ,49.0527 ,1.13443 ,1.24667 ,12.23235 
262 ,49.2289 ,1.13619 ,1.21245 ,11.89656 
263 ,49.4210 ,1.13810 ,1.22614 ,12.03088 
264 ,49.6133 ,1.13997 ,1.19534 ,11.72867 
265 ,49.8053 ,1.14200 ,1.18850 ,11.66151 
266 ,49.9812 ,1.14374 ,1.18507 ,11.62794 
267 ,50.1574 ,1.14545 ,1.17138 ,11.49362 
268 ,50.3174 ,1.14718 ,1.13374 ,11.12426 
269 ,50.5098 ,1.14906 ,1.12347 ,11.02353 
270 ,50.6857 ,1.15073 ,1.12690 ,11.05710 
271 ,50.8778 ,1.15262 ,1.10979 ,10.88921 
272 ,51.0698 ,1.15450 ,1.09267 ,10.72132 
273 ,51.2779 ,1.15651 ,1.08583 ,10.65416 
274 ,51.4540 ,1.15847 ,1.07214 ,10.51985 
275 ,51.6458 ,1.16039 ,1.05161 ,10.31838 
276 ,51.8542 ,1.16243 ,1.04134 ,10.21765 
277 ,52.0458 ,1.16428 ,1.03108 ,10.11691 
278 ,52.2384 ,1.16621 ,1.02423 ,10.04976 
279 ,52.4464 ,1.16825 ,1.01054 ,9.91544 
280 ,52.6385 ,1.17020 ,0.99685 ,9.78113 
281 ,52.8147 ,1.17205 ,0.97632 ,9.57966 
282 ,53.0387 ,1.17422 ,0.96263 ,9.44535 
283 ,53.2307 ,1.17616 ,0.93525 ,9.17672 
284 ,53.4068 ,1.17797 ,0.94210 ,9.24388 
285 ,53.5828 ,1.17970 ,0.93525 ,9.17672 
286 ,53.7750 ,1.18168 ,0.92499 ,9.07598 
287 ,53.9669 ,1.18356 ,0.90103 ,8.84094 
288 ,54.1432 ,1.18533 ,0.89077 ,8.74020 
289 ,54.3192 ,1.18714 ,0.87366 ,8.57231 
290 ,54.5111 ,1.18894 ,0.86339 ,8.47158 
291 ,54.7033 ,1.19091 ,0.85997 ,8.43800 
292 ,54.8794 ,1.19267 ,0.84628 ,8.30368 
293 ,55.0713 ,1.19455 ,0.82575 ,8.10221 
294 ,55.2472 ,1.19638 ,0.81206 ,7.96790 
295 ,55.4397 ,1.19823 ,0.81890 ,8.03506 
296 ,55.6477 ,1.20027 ,0.79495 ,7.80001 
297 ,55.8241 ,1.20215 ,0.80179 ,7.86717 
298 ,55.9999 ,1.20393 ,0.76072 ,7.46423 
299 ,56.1759 ,1.20565 ,0.75730 ,7.43065 
300 ,56.3519 ,1.20738 ,0.74704 ,7.32991 
301 ,56.5441 ,1.20932 ,0.74019 ,7.26276 
302 ,56.7361 ,1.21124 ,0.71624 ,7.02771 
303 ,56.9118 ,1.21299 ,0.69913 ,6.85982 
304 ,57.0883 ,1.21471 ,0.69913 ,6.85982 
305 ,57.2804 ,1.21668 ,0.69570 ,6.82624 
306 ,57.4561 ,1.21844 ,0.68201 ,6.69193 
307 ,57.6326 ,1.22021 ,0.67175 ,6.59119 
308 ,57.8246 ,1.22215 ,0.66490 ,6.52403 
309 ,58.0006 ,1.22391 ,0.63068 ,6.18825 
310 ,58.1767 ,1.22562 ,0.62384 ,6.12109 
311 ,58.3688 ,1.22745 ,0.60673 ,5.95320 
312 ,58.5604 ,1.22939 ,0.62726 ,6.15467 
313 ,58.7370 ,1.23126 ,0.59646 ,5.85247 
314 ,58.9289 ,1.23308 ,0.59988 ,5.88605 
315 ,59.1051 ,1.23490 ,0.57935 ,5.68458 
316 ,59.2808 ,1.23668 ,0.57935 ,5.68458 
317 ,59.4572 ,1.23838 ,0.56566 ,5.55026 
318 ,59.6170 ,1.24013 ,0.53486 ,5.24806 
319 ,59.7935 ,1.24181 ,0.52117 ,5.11375 
320 ,59.9856 ,1.24370 ,0.53486 ,5.24806 
321 ,60.1774 ,1.24558 ,0.50748 ,4.97943 
322 ,60.3697 ,1.24754 ,0.48695 ,4.77796 
323 ,60.5614 ,1.24945 ,0.48695 ,4.77796 
324 ,60.7378 ,1.25130 ,0.46300 ,4.54291 
325 ,60.9138 ,1.25296 ,0.46642 ,4.57649 
326 ,61.0899 ,1.25477 ,0.44588 ,4.37502 
327 ,61.2662 ,1.25649 ,0.43904 ,4.30787 
328 ,61.4577 ,1.25851 ,0.41166 ,4.03924 
329 ,61.6179 ,1.26013 ,0.42193 ,4.13997 
330 ,61.7939 ,1.26176 ,0.41166 ,4.03924 
331 ,61.9703 ,1.26356 ,0.38771 ,3.80419 
332 ,62.1624 ,1.26549 ,0.40482 ,3.97208 
333 ,62.3544 ,1.26733 ,0.36033 ,3.53557 
334 ,62.5306 ,1.26917 ,0.35349 ,3.46841 
335 ,62.7386 ,1.27122 ,0.36033 ,3.53557 
336 ,62.9305 ,1.27313 ,0.33295 ,3.26694 
337 ,63.1225 ,1.27508 ,0.33638 ,3.30052 
338 ,63.2989 ,1.27685 ,0.30900 ,3.03189 
339 ,63.4907 ,1.27868 ,0.30900 ,3.03189 
340 ,63.6829 ,1.28059 ,0.29873 ,2.93116 
341 ,63.8587 ,1.28242 ,0.29531 ,2.89758 
342 ,64.0512 ,1.28431 ,0.26451 ,2.59537 
343 ,64.2592 ,1.28640 ,0.26793 ,2.62895 
344 ,64.4514 ,1.28832 ,0.24740 ,2.42748 
345 ,64.6593 ,1.29030 ,0.24055 ,2.36032 
346 ,64.8513 ,1.29230 ,0.22002 ,2.15885 
347 ,65.0274 ,1.29409 ,0.20976 ,2.05812 
348 ,65.2036 ,1.29593 ,0.20976 ,2.05812 
349 ,65.3796 ,1.29763 ,0.21318 ,2.09170 
350 ,65.5558 ,1.29940 ,0.16869 ,1.65518 
351 ,65.7638 ,1.30139 ,0.19607 ,1.92381 
352 ,65.9399 ,1.30332 ,0.16185 ,1.58802 
353 ,66.1160 ,1.30498 ,0.15158 ,1.48729 
354 ,66.3081 ,1.30692 ,0.14816 ,1.45371 
355 ,66.5159 ,1.30883 ,0.11051 ,1.08435 
356 ,66.7240 ,1.31095 ,0.13105 ,1.28582 
357 ,66.9168 ,1.31302 ,0.11393 ,1.11793 
358 ,67.1079 ,1.31495 ,0.08656 ,0.84930 
359 ,67.2845 ,1.31668 ,0.10025 ,0.98361 
360 ,67.4922 ,1.31865 ,0.06260 ,0.61425 
361 ,67.6845 ,1.32060 ,0.07629 ,0.74857 
362 ,67.8605 ,1.32238 ,0.05576 ,0.54710 
363 ,68.0687 ,1.32445 ,0.04891 ,0.47994 
364 ,68.2443 ,1.32629 ,0.04549 ,0.44636 
365 ,68.4204 ,1.32805 ,0.02496 ,0.24489 
366 ,68.6125 ,1.32986 ,0.00443 ,0.04342 
367 ,68.8371 ,1.33216 ,-0.02295 ,-0.22520 
368 ,69.0291 ,1.33407 ,-0.00242 ,-0.02373 
369 ,69.2208 ,1.33595 ,-0.01953 ,-0.19163 
370 ,69.3972 ,1.33776 ,-0.03664 ,-0.35952 
371 ,69.6373 ,1.33992 ,-0.02637 ,-0.25878 
372 ,69.8294 ,1.34212 ,-0.04348 ,-0.42667 
373 ,70.0055 ,1.34391 ,-0.05033 ,-0.49383 
374 ,70.1977 ,1.34575 ,-0.08113 ,-0.79604 
375 ,70.4057 ,1.34777 ,-0.07428 ,-0.72888 
376 ,70.6136 ,1.34989 ,-0.09482 ,-0.93035 
377 ,70.8058 ,1.35187 ,-0.09824 ,-0.96393 
378 ,70.9818 ,1.35360 ,-0.11193 ,-1.09824 
379 ,71.1739 ,1.35550 ,-0.13588 ,-1.33329 
380 ,71.3657 ,1.35748 ,-0.12904 ,-1.26613 
381 ,71.5741 ,1.35955 ,-0.15984 ,-1.56834 
382 ,71.7821 ,1.36156 ,-0.15642 ,-1.53476 
383 ,71.9741 ,1.36351 ,-0.17353 ,-1.70265 
384 ,72.1663 ,1.36541 ,-0.16668 ,-1.63549 
385 ,72.3424 ,1.36725 ,-0.18037 ,-1.76981 
386 ,72.5345 ,1.36910 ,-0.20433 ,-2.00485 
387 ,72.7264 ,1.37102 ,-0.22144 ,-2.17275 
388 ,72.9192 ,1.37294 ,-0.23170 ,-2.27348 
389 ,73.1104 ,1.37488 ,-0.22486 ,-2.20632 
390 ,73.2869 ,1.37671 ,-0.22144 ,-2.17275 
391 ,73.4789 ,1.37851 ,-0.25566 ,-2.50853 
392 ,73.6550 ,1.38035 ,-0.25908 ,-2.54211 
393 ,73.8472 ,1.38226 ,-0.26593 ,-2.60926 
394 ,74.0392 ,1.38420 ,-0.26935 ,-2.64284 
395 ,74.2311 ,1.38609 ,-0.27619 ,-2.71000 
396 ,74.4231 ,1.38799 ,-0.30699 ,-3.01220 
397 ,74.6150 ,1.38984 ,-0.30015 ,-2.94505 
398 ,74.8075 ,1.39182 ,-0.31041 ,-3.04578 
399 ,75.0157 ,1.39389 ,-0.33779 ,-3.31441 
400 ,75.2236 ,1.39593 ,-0.34464 ,-3.38156 
401 ,75.3998 ,1.39781 ,-0.34806 ,-3.41514 
402 ,75.5917 ,1.39963 ,-0.34121 ,-3.34799 
403 ,75.7676 ,1.40150 ,-0.37886 ,-3.71735 
404 ,75.9439 ,1.40322 ,-0.35490 ,-3.48230 
405 ,76.1199 ,1.40498 ,-0.36859 ,-3.61661 
406 ,76.3281 ,1.40695 ,-0.38912 ,-3.81808 
407 ,76.5362 ,1.40908 ,-0.41308 ,-4.05313 
408 ,76.7282 ,1.41100 ,-0.40281 ,-3.95240 
409 ,76.9202 ,1.41295 ,-0.42335 ,-4.15387 
410 ,77.0959 ,1.41483 ,-0.43019 ,-4.22102 
411 ,77.2880 ,1.41661 ,-0.43703 ,-4.28818 
412 ,77.4800 ,1.41849 ,-0.44046 ,-4.32176 
413 ,77.6723 ,1.42050 ,-0.45757 ,-4.48965 
414 ,77.8643 ,1.42236 ,-0.46441 ,-4.55681 
415 ,78.0408 ,1.42421 ,-0.47126 ,-4.62396 
416 ,78.2649 ,1.42631 ,-0.48837 ,-4.79185 
417 ,78.4408 ,1.42819 ,-0.50206 ,-4.92617 
418 ,78.6330 ,1.43005 ,-0.50548 ,-4.95975 
419 ,78.8252 ,1.43205 ,-0.51232 ,-5.02690 
420 ,79.0331 ,1.43402 ,-0.52601 ,-5.16121 
421 ,79.2093 ,1.43590 ,-0.52259 ,-5.12764 
422 ,79.3853 ,1.43763 ,-0.52943 ,-5.19479 
423 ,79.6095 ,1.43974 ,-0.53970 ,-5.29553 
424 ,79.8013 ,1.44170 ,-0.57050 ,-5.59773 
425 ,79.9932 ,1.44371 ,-0.57392 ,-5.63131 
426 ,80.1857 ,1.44553 ,-0.56708 ,-5.56415 
427 ,80.3773 ,1.44759 ,-0.59788 ,-5.86636 
428 ,80.5698 ,1.44951 ,-0.58761 ,-5.76562 
429 ,80.7939 ,1.45154 ,-0.61841 ,-6.06783 
430 ,80.9860 ,1.45355 ,-0.61156 ,-6.00067 
431 ,81.1456 ,1.45537 ,-0.62183 ,-6.10141 
432 ,81.3220 ,1.45696 ,-0.63210 ,-6.20214 
433 ,81.4982 ,1.45872 ,-0.65263 ,-6.40361 
434 ,81.6902 ,1.46060 ,-0.63210 ,-6.20214 
435 ,81.8663 ,1.46247 ,-0.65263 ,-6.40361 
436 ,82.0581 ,1.46420 ,-0.66974 ,-6.57150 
437 ,82.2503 ,1.46624 ,-0.65263 ,-6.40361 
438 ,82.4262 ,1.46808 ,-0.67659 ,-6.63866 
439 ,82.6346 ,1.46999 ,-0.68685 ,-6.73940 
440 ,82.8105 ,1.47188 ,-0.69027 ,-6.77297 
441 ,82.9867 ,1.47362 ,-0.68343 ,-6.70582 
442 ,83.1629 ,1.47535 ,-0.69712 ,-6.84013 
443 ,83.3546 ,1.47734 ,-0.72107 ,-7.07518 
444 ,83.5630 ,1.47933 ,-0.73134 ,-7.17591 
445 ,83.7552 ,1.48136 ,-0.75187 ,-7.37738 
446 ,83.9311 ,1.48314 ,-0.74503 ,-7.31023 
447 ,84.1073 ,1.48487 ,-0.73818 ,-7.24307 
448 ,84.2829 ,1.48662 ,-0.76214 ,-7.47812 
449 ,84.4755 ,1.48846 ,-0.75872 ,-7.44454 
450 ,84.6831 ,1.49053 ,-0.78952 ,-7.74674 
451 ,84.8595 ,1.49235 ,-0.79978 ,-7.84748 
452 ,85.0356 ,1.49413 ,-0.79294 ,-7.78032 
453 ,85.2115 ,1.49589 ,-0.79636 ,-7.81390 
454 ,85.3873 ,1.49761 ,-0.79636 ,-7.81390 
455 ,85.5635 ,1.49939 ,-0.82374 ,-8.08253 
456 ,85.7401 ,1.50115 ,-0.83401 ,-8.18326 
457 ,85.9479 ,1.50319 ,-0.83743 ,-8.21684 
458 ,86.1400 ,1.50515 ,-0.86481 ,-8.48547 
459 ,86.3318 ,1.50701 ,-0.86481 ,-8.48547 
460 ,86.5241 ,1.50893 ,-0.85796 ,-8.41831 
461 ,86.7163 ,1.51084 ,-0.86138 ,-8.45189 
462 ,86.9245 ,1.51290 ,-0.87165 ,-8.55262 
463 ,87.1166 ,1.51487 ,-0.88192 ,-8.65336 
