Data stamp = , 21-04-2022 12:15:33 274

Calibration Values: 
Slope = , 26.54 , g/V 
Offset Voltage at no contact = , -0.501760 , V 

No , Time , Stage Position ,   Mass , Force 
   ,  (s) ,      (mm)      ,   (g)  , (mN)  

1 ,0.0000 ,0.64940 ,5.31221 ,52.12337 
2 ,0.2272 ,0.64950 ,5.31905 ,52.19052 
3 ,0.5474 ,0.65042 ,5.28825 ,51.88832 
4 ,0.7552 ,0.65194 ,5.29167 ,51.92190 
5 ,0.9475 ,0.65368 ,5.31221 ,52.12337 
6 ,1.1398 ,0.65554 ,5.29167 ,51.92190 
7 ,1.3479 ,0.65750 ,5.30878 ,52.08979 
8 ,1.5399 ,0.65946 ,5.29167 ,51.92190 
9 ,1.7160 ,0.66131 ,5.27798 ,51.78758 
10 ,1.8915 ,0.66319 ,5.27456 ,51.75401 
11 ,2.0682 ,0.66488 ,5.25061 ,51.51896 
12 ,2.2602 ,0.66676 ,5.22323 ,51.25033 
13 ,2.4363 ,0.66851 ,5.20954 ,51.11602 
14 ,2.6124 ,0.67029 ,5.18901 ,50.91455 
15 ,2.8205 ,0.67222 ,5.17874 ,50.81381 
16 ,2.9805 ,0.67409 ,5.14452 ,50.47803 
17 ,3.1565 ,0.67568 ,5.14110 ,50.44445 
18 ,3.3328 ,0.67750 ,5.11714 ,50.20940 
19 ,3.5249 ,0.67940 ,5.11030 ,50.14225 
20 ,3.7168 ,0.68129 ,5.07950 ,49.84004 
21 ,3.8929 ,0.68307 ,5.07265 ,49.77289 
22 ,4.0688 ,0.68482 ,5.07608 ,49.80646 
23 ,4.2448 ,0.68660 ,5.05212 ,49.57142 
24 ,4.4371 ,0.68843 ,5.01448 ,49.20205 
25 ,4.6293 ,0.69046 ,5.01106 ,49.16848 
26 ,4.8212 ,0.69232 ,4.97341 ,48.79911 
27 ,4.9972 ,0.69410 ,4.95288 ,48.59764 
28 ,5.1733 ,0.69584 ,4.93577 ,48.42975 
29 ,5.3493 ,0.69766 ,4.92892 ,48.36260 
30 ,5.5417 ,0.69945 ,4.92208 ,48.29544 
31 ,5.7339 ,0.70148 ,4.88786 ,47.95966 
32 ,5.9258 ,0.70340 ,4.88101 ,47.89250 
33 ,6.1020 ,0.70515 ,4.86390 ,47.72461 
34 ,6.3100 ,0.70715 ,4.82968 ,47.38883 
35 ,6.5020 ,0.70917 ,4.80915 ,47.18736 
36 ,6.6939 ,0.71100 ,4.79546 ,47.05304 
37 ,6.8701 ,0.71286 ,4.78861 ,46.98589 
38 ,7.0298 ,0.71454 ,4.77493 ,46.85157 
39 ,7.2062 ,0.71620 ,4.76124 ,46.71726 
40 ,7.3823 ,0.71801 ,4.73044 ,46.41506 
41 ,7.5743 ,0.71984 ,4.71333 ,46.24716 
42 ,7.7664 ,0.72180 ,4.70648 ,46.18001 
43 ,7.9586 ,0.72373 ,4.67568 ,45.87780 
44 ,8.1343 ,0.72548 ,4.66884 ,45.81065 
45 ,8.3104 ,0.72722 ,4.66199 ,45.74349 
46 ,8.4868 ,0.72900 ,4.63804 ,45.50844 
47 ,8.6947 ,0.73102 ,4.61408 ,45.27339 
48 ,8.8709 ,0.73284 ,4.59697 ,45.10550 
49 ,9.0465 ,0.73461 ,4.59355 ,45.07192 
50 ,9.2232 ,0.73636 ,4.57644 ,44.90403 
51 ,9.4147 ,0.73822 ,4.54564 ,44.60183 
52 ,9.5913 ,0.74007 ,4.53880 ,44.53467 
53 ,9.7994 ,0.74207 ,4.51142 ,44.26604 
54 ,9.9752 ,0.74389 ,4.48062 ,43.96384 
55 ,10.1835 ,0.74590 ,4.47720 ,43.93026 
56 ,10.3916 ,0.74802 ,4.47035 ,43.86310 
57 ,10.5836 ,0.74987 ,4.43613 ,43.52732 
58 ,10.7595 ,0.75175 ,4.41902 ,43.35943 
59 ,10.9517 ,0.75359 ,4.41560 ,43.32585 
60 ,11.1118 ,0.75536 ,4.40875 ,43.25870 
61 ,11.2876 ,0.75704 ,4.38480 ,43.02365 
62 ,11.4639 ,0.75883 ,4.36084 ,42.78860 
63 ,11.6244 ,0.76048 ,4.34031 ,42.58713 
64 ,11.8001 ,0.76213 ,4.31293 ,42.31850 
65 ,11.9760 ,0.76389 ,4.30951 ,42.28492 
66 ,12.1682 ,0.76574 ,4.30609 ,42.25135 
67 ,12.3603 ,0.76771 ,4.27529 ,41.94914 
68 ,12.5364 ,0.76950 ,4.24791 ,41.68051 
69 ,12.7123 ,0.77128 ,4.24791 ,41.68051 
70 ,12.8885 ,0.77299 ,4.24449 ,41.64694 
71 ,13.0967 ,0.77491 ,4.19316 ,41.14326 
72 ,13.3046 ,0.77708 ,4.17947 ,41.00895 
73 ,13.4808 ,0.77892 ,4.17262 ,40.94179 
74 ,13.6568 ,0.78067 ,4.15551 ,40.77390 
75 ,13.8331 ,0.78245 ,4.14525 ,40.67317 
76 ,14.0410 ,0.78441 ,4.13840 ,40.60601 
77 ,14.2169 ,0.78626 ,4.10418 ,40.27023 
78 ,14.4254 ,0.78829 ,4.09734 ,40.20307 
79 ,14.6172 ,0.79026 ,4.09049 ,40.13591 
80 ,14.7927 ,0.79209 ,4.06312 ,39.86729 
81 ,14.9693 ,0.79383 ,4.04600 ,39.69940 
82 ,15.1453 ,0.79555 ,4.03232 ,39.56508 
83 ,15.3375 ,0.79740 ,3.99467 ,39.19572 
84 ,15.5134 ,0.79925 ,3.97414 ,38.99425 
85 ,15.6897 ,0.80099 ,3.98441 ,39.09499 
86 ,15.8653 ,0.80275 ,3.96729 ,38.92709 
87 ,16.0418 ,0.80451 ,3.93992 ,38.65847 
88 ,16.2339 ,0.80644 ,3.91596 ,38.42342 
89 ,16.4259 ,0.80827 ,3.92281 ,38.49058 
90 ,16.6020 ,0.81010 ,3.89201 ,38.18837 
91 ,16.7781 ,0.81189 ,3.87832 ,38.05406 
92 ,16.9702 ,0.81374 ,3.85779 ,37.85259 
93 ,17.1619 ,0.81571 ,3.84410 ,37.71828 
94 ,17.3539 ,0.81757 ,3.82014 ,37.48323 
95 ,17.5299 ,0.81950 ,3.82014 ,37.48323 
96 ,17.7224 ,0.82126 ,3.80303 ,37.31534 
97 ,17.9303 ,0.82340 ,3.77223 ,37.01313 
98 ,18.1062 ,0.82520 ,3.75854 ,36.87882 
99 ,18.2827 ,0.82693 ,3.74828 ,36.77808 
100 ,18.4588 ,0.82871 ,3.72432 ,36.54303 
101 ,18.6350 ,0.83041 ,3.70379 ,36.34157 
102 ,18.8268 ,0.83231 ,3.68325 ,36.14010 
103 ,19.0345 ,0.83442 ,3.66614 ,35.97220 
104 ,19.2267 ,0.83632 ,3.66957 ,36.00578 
105 ,19.4027 ,0.83811 ,3.64561 ,35.77073 
106 ,19.5948 ,0.83996 ,3.61823 ,35.50211 
107 ,19.7709 ,0.84187 ,3.61823 ,35.50211 
108 ,19.9469 ,0.84358 ,3.59770 ,35.30064 
109 ,20.1391 ,0.84543 ,3.56348 ,34.96485 
110 ,20.3477 ,0.84738 ,3.56690 ,34.99843 
111 ,20.5553 ,0.84958 ,3.54295 ,34.76338 
112 ,20.7319 ,0.85142 ,3.53268 ,34.66265 
113 ,20.9078 ,0.85317 ,3.52584 ,34.59549 
114 ,21.0999 ,0.85505 ,3.49161 ,34.25971 
115 ,21.2755 ,0.85685 ,3.48135 ,34.15898 
116 ,21.4681 ,0.85873 ,3.47792 ,34.12540 
117 ,21.6601 ,0.86064 ,3.44028 ,33.75604 
118 ,21.8842 ,0.86280 ,3.42659 ,33.62172 
119 ,22.0761 ,0.86474 ,3.40948 ,33.45383 
120 ,22.2524 ,0.86658 ,3.38553 ,33.21878 
121 ,22.4124 ,0.86831 ,3.38210 ,33.18520 
122 ,22.5885 ,0.86999 ,3.36842 ,33.05089 
123 ,22.7806 ,0.87190 ,3.34104 ,32.78227 
124 ,22.9567 ,0.87363 ,3.32735 ,32.64795 
125 ,23.1322 ,0.87548 ,3.33762 ,32.74869 
126 ,23.3088 ,0.87711 ,3.31708 ,32.54722 
127 ,23.4848 ,0.87898 ,3.27602 ,32.14428 
128 ,23.6611 ,0.88068 ,3.26917 ,32.07712 
129 ,23.8528 ,0.88252 ,3.24180 ,31.80849 
130 ,24.0452 ,0.88444 ,3.23495 ,31.74134 
131 ,24.2372 ,0.88635 ,3.22126 ,31.60702 
132 ,24.4131 ,0.88819 ,3.19388 ,31.33840 
133 ,24.5893 ,0.89003 ,3.19731 ,31.37198 
134 ,24.7811 ,0.89188 ,3.16651 ,31.06977 
135 ,24.9575 ,0.89361 ,3.14597 ,30.86830 
136 ,25.1494 ,0.89549 ,3.15282 ,30.93546 
137 ,25.3254 ,0.89733 ,3.12886 ,30.70041 
138 ,25.5016 ,0.89908 ,3.11175 ,30.53252 
139 ,25.6937 ,0.90099 ,3.08095 ,30.23031 
140 ,25.9019 ,0.90307 ,3.07411 ,30.16316 
141 ,26.0937 ,0.90494 ,3.07069 ,30.12958 
142 ,26.2699 ,0.90677 ,3.04673 ,29.89453 
143 ,26.4781 ,0.90877 ,3.01593 ,29.59233 
144 ,26.6697 ,0.91070 ,3.02278 ,29.65948 
145 ,26.8298 ,0.91247 ,3.00224 ,29.45801 
146 ,26.9899 ,0.91408 ,2.99882 ,29.42444 
147 ,27.1662 ,0.91578 ,2.97487 ,29.18939 
148 ,27.3585 ,0.91766 ,2.94407 ,28.88718 
149 ,27.5503 ,0.91950 ,2.95091 ,28.95434 
150 ,27.7261 ,0.92135 ,2.92011 ,28.65213 
151 ,27.9028 ,0.92308 ,2.92353 ,28.68571 
152 ,28.0943 ,0.92510 ,2.89616 ,28.41709 
153 ,28.2706 ,0.92674 ,2.87905 ,28.24919 
154 ,28.4948 ,0.92884 ,2.84825 ,27.94699 
155 ,28.6710 ,0.93078 ,2.83798 ,27.84625 
156 ,28.8471 ,0.93252 ,2.83456 ,27.81268 
157 ,29.0230 ,0.93429 ,2.81745 ,27.64479 
158 ,29.1831 ,0.93598 ,2.79349 ,27.40974 
159 ,29.3593 ,0.93767 ,2.77638 ,27.24185 
160 ,29.5352 ,0.93941 ,2.75927 ,27.07395 
161 ,29.7274 ,0.94126 ,2.76611 ,27.14111 
162 ,29.9036 ,0.94302 ,2.74216 ,26.90606 
163 ,30.0955 ,0.94499 ,2.72505 ,26.73817 
164 ,30.2876 ,0.94684 ,2.72505 ,26.73817 
165 ,30.4796 ,0.94883 ,2.69425 ,26.43597 
166 ,30.6558 ,0.95062 ,2.67029 ,26.20092 
167 ,30.8480 ,0.95244 ,2.67029 ,26.20092 
168 ,31.0237 ,0.95435 ,2.64292 ,25.93229 
169 ,31.2001 ,0.95607 ,2.63265 ,25.83156 
170 ,31.3921 ,0.95792 ,2.62238 ,25.73082 
171 ,31.5841 ,0.95987 ,2.61212 ,25.63009 
172 ,31.7605 ,0.96167 ,2.59501 ,25.46220 
173 ,31.9519 ,0.96368 ,2.58474 ,25.36146 
174 ,32.1282 ,0.96538 ,2.56421 ,25.15999 
175 ,32.3205 ,0.96723 ,2.54025 ,24.92494 
176 ,32.5124 ,0.96913 ,2.53683 ,24.89136 
177 ,32.7047 ,0.97104 ,2.52314 ,24.75705 
178 ,32.8964 ,0.97290 ,2.49576 ,24.48842 
179 ,33.0724 ,0.97471 ,2.46839 ,24.21980 
180 ,33.2488 ,0.97655 ,2.47523 ,24.28696 
181 ,33.4411 ,0.97847 ,2.45470 ,24.08549 
182 ,33.6331 ,0.98032 ,2.43074 ,23.85044 
183 ,33.8251 ,0.98225 ,2.43759 ,23.91759 
184 ,34.0332 ,0.98419 ,2.40336 ,23.58181 
185 ,34.2252 ,0.98627 ,2.39652 ,23.51465 
186 ,34.4171 ,0.98812 ,2.36572 ,23.21245 
187 ,34.6095 ,0.99012 ,2.36572 ,23.21245 
188 ,34.8014 ,0.99198 ,2.33834 ,22.94382 
189 ,34.9776 ,0.99378 ,2.31781 ,22.74235 
190 ,35.1695 ,0.99579 ,2.31097 ,22.67520 
191 ,35.3457 ,0.99752 ,2.29385 ,22.50731 
192 ,35.5697 ,0.99956 ,2.28017 ,22.37299 
193 ,35.7619 ,1.00157 ,2.26306 ,22.20510 
194 ,35.9535 ,1.00350 ,2.24594 ,22.03721 
195 ,36.1300 ,1.00536 ,2.24594 ,22.03721 
196 ,36.3057 ,1.00713 ,2.23226 ,21.90290 
197 ,36.4982 ,1.00896 ,2.19461 ,21.53353 
198 ,36.6903 ,1.01084 ,2.20488 ,21.63427 
199 ,36.8662 ,1.01270 ,2.17750 ,21.36564 
200 ,37.0424 ,1.01443 ,2.16381 ,21.23133 
201 ,37.2341 ,1.01628 ,2.15012 ,21.09702 
202 ,37.4102 ,1.01815 ,2.13301 ,20.92912 
203 ,37.5861 ,1.01994 ,2.12275 ,20.82839 
204 ,37.7783 ,1.02178 ,2.10221 ,20.62692 
205 ,37.9702 ,1.02369 ,2.09879 ,20.59334 
206 ,38.1626 ,1.02557 ,2.07141 ,20.32472 
207 ,38.3547 ,1.02759 ,2.05430 ,20.15682 
208 ,38.5305 ,1.02933 ,2.04404 ,20.05609 
209 ,38.7070 ,1.03109 ,2.03377 ,19.95535 
210 ,38.8991 ,1.03303 ,2.02008 ,19.82104 
211 ,39.0749 ,1.03473 ,1.99613 ,19.58599 
212 ,39.2673 ,1.03672 ,1.99613 ,19.58599 
213 ,39.4430 ,1.03851 ,1.96875 ,19.31737 
214 ,39.6195 ,1.04017 ,1.95848 ,19.21663 
215 ,39.8115 ,1.04211 ,1.95164 ,19.14948 
216 ,40.0036 ,1.04402 ,1.93111 ,18.94801 
217 ,40.1795 ,1.04588 ,1.90373 ,18.67938 
218 ,40.3718 ,1.04760 ,1.90715 ,18.71296 
219 ,40.5637 ,1.04962 ,1.89004 ,18.54507 
220 ,40.7398 ,1.05148 ,1.85924 ,18.24286 
221 ,40.9316 ,1.05324 ,1.86266 ,18.27644 
222 ,41.1081 ,1.05507 ,1.86266 ,18.27644 
223 ,41.3001 ,1.05696 ,1.82160 ,17.87350 
224 ,41.4761 ,1.05875 ,1.80449 ,17.70561 
225 ,41.6522 ,1.06062 ,1.81133 ,17.77276 
226 ,41.8282 ,1.06227 ,1.79764 ,17.63845 
227 ,42.0039 ,1.06403 ,1.78737 ,17.53772 
228 ,42.1800 ,1.06581 ,1.75657 ,17.23551 
229 ,42.3565 ,1.06756 ,1.73946 ,17.06762 
230 ,42.5483 ,1.06953 ,1.73604 ,17.03404 
231 ,42.7406 ,1.07133 ,1.72235 ,16.89973 
232 ,42.9329 ,1.07329 ,1.71209 ,16.79899 
233 ,43.1088 ,1.07512 ,1.70524 ,16.73184 
234 ,43.3006 ,1.07699 ,1.67102 ,16.39605 
235 ,43.4930 ,1.07884 ,1.67444 ,16.42963 
236 ,43.6690 ,1.08072 ,1.66418 ,16.32890 
237 ,43.8767 ,1.08264 ,1.64707 ,16.16101 
238 ,44.0690 ,1.08461 ,1.62311 ,15.92596 
239 ,44.2772 ,1.08678 ,1.60942 ,15.79164 
240 ,44.4531 ,1.08858 ,1.58204 ,15.52302 
241 ,44.6296 ,1.09030 ,1.58889 ,15.59018 
242 ,44.8215 ,1.09220 ,1.56836 ,15.38871 
243 ,44.9811 ,1.09392 ,1.54782 ,15.18724 
244 ,45.1577 ,1.09554 ,1.54440 ,15.15366 
245 ,45.3498 ,1.09745 ,1.53071 ,15.01934 
246 ,45.5418 ,1.09932 ,1.50333 ,14.75072 
247 ,45.7500 ,1.10145 ,1.51018 ,14.81787 
248 ,45.9419 ,1.10338 ,1.48622 ,14.58283 
249 ,46.1342 ,1.10534 ,1.47938 ,14.51567 
250 ,46.3421 ,1.10732 ,1.45885 ,14.31420 
251 ,46.5343 ,1.10930 ,1.45200 ,14.24704 
252 ,46.7263 ,1.11115 ,1.43147 ,14.04557 
253 ,46.9181 ,1.11309 ,1.41778 ,13.91126 
254 ,47.1100 ,1.11515 ,1.38698 ,13.60906 
255 ,47.2703 ,1.11679 ,1.39725 ,13.70979 
256 ,47.4946 ,1.11870 ,1.36645 ,13.40759 
257 ,47.6866 ,1.12086 ,1.36645 ,13.40759 
258 ,47.8946 ,1.12274 ,1.34591 ,13.20612 
259 ,48.0868 ,1.12483 ,1.34934 ,13.23969 
260 ,48.2788 ,1.12678 ,1.31854 ,12.93749 
261 ,48.4869 ,1.12875 ,1.31512 ,12.90391 
262 ,48.6789 ,1.13067 ,1.29116 ,12.66886 
263 ,48.8548 ,1.13251 ,1.27747 ,12.53455 
264 ,49.0472 ,1.13436 ,1.28089 ,12.56813 
265 ,49.2231 ,1.13634 ,1.24667 ,12.23235 
266 ,49.4315 ,1.13825 ,1.25009 ,12.26592 
267 ,49.6235 ,1.14025 ,1.22956 ,12.06445 
268 ,49.8154 ,1.14204 ,1.22956 ,12.06445 
269 ,50.0234 ,1.14414 ,1.19876 ,11.76225 
270 ,50.1993 ,1.14599 ,1.17481 ,11.52720 
271 ,50.3593 ,1.14771 ,1.17138 ,11.49362 
272 ,50.5358 ,1.14930 ,1.17823 ,11.56078 
273 ,50.7283 ,1.15118 ,1.16454 ,11.42647 
274 ,50.9200 ,1.15312 ,1.12347 ,11.02353 
275 ,51.1120 ,1.15505 ,1.13716 ,11.15784 
276 ,51.3041 ,1.15694 ,1.12347 ,11.02353 
277 ,51.5121 ,1.15902 ,1.11663 ,10.95637 
278 ,51.6882 ,1.16089 ,1.09952 ,10.78848 
279 ,51.8802 ,1.16279 ,1.07214 ,10.51985 
280 ,52.0563 ,1.16454 ,1.06187 ,10.41912 
281 ,52.2325 ,1.16634 ,1.06530 ,10.45270 
282 ,52.4084 ,1.16803 ,1.05503 ,10.35196 
283 ,52.6328 ,1.17011 ,1.04134 ,10.21765 
284 ,52.8567 ,1.17243 ,1.01054 ,9.91544 
285 ,53.0488 ,1.17443 ,1.00028 ,9.81471 
286 ,53.2244 ,1.17625 ,0.99001 ,9.71397 
287 ,53.4168 ,1.17803 ,0.97632 ,9.57966 
288 ,53.6248 ,1.18007 ,0.97974 ,9.61324 
289 ,53.8010 ,1.18198 ,0.94894 ,9.31103 
290 ,53.9770 ,1.18368 ,0.92841 ,9.10956 
291 ,54.1531 ,1.18549 ,0.93183 ,9.14314 
292 ,54.3294 ,1.18725 ,0.93525 ,9.17672 
293 ,54.5048 ,1.18907 ,0.90788 ,8.90809 
294 ,54.6813 ,1.19074 ,0.89761 ,8.80736 
295 ,54.8574 ,1.19256 ,0.87023 ,8.53873 
296 ,55.0655 ,1.19445 ,0.87023 ,8.53873 
297 ,55.2574 ,1.19643 ,0.86681 ,8.50515 
298 ,55.4494 ,1.19842 ,0.85997 ,8.43800 
299 ,55.6415 ,1.20038 ,0.83601 ,8.20295 
300 ,55.8499 ,1.20244 ,0.83259 ,8.16937 
301 ,56.0420 ,1.20429 ,0.80863 ,7.93432 
302 ,56.2342 ,1.20620 ,0.81206 ,7.96790 
303 ,56.4259 ,1.20812 ,0.79152 ,7.76643 
304 ,56.6022 ,1.20998 ,0.77441 ,7.59854 
305 ,56.7938 ,1.21180 ,0.76757 ,7.53138 
306 ,56.9703 ,1.21371 ,0.75730 ,7.43065 
307 ,57.1780 ,1.21570 ,0.74704 ,7.32991 
308 ,57.3541 ,1.21745 ,0.72992 ,7.16202 
309 ,57.5306 ,1.21926 ,0.72992 ,7.16202 
310 ,57.7065 ,1.22101 ,0.70255 ,6.89340 
311 ,57.8822 ,1.22280 ,0.69570 ,6.82624 
312 ,58.0588 ,1.22452 ,0.67859 ,6.65835 
313 ,58.2507 ,1.22645 ,0.67517 ,6.62477 
314 ,58.4269 ,1.22819 ,0.66148 ,6.49046 
315 ,58.6029 ,1.22996 ,0.65464 ,6.42330 
316 ,58.8107 ,1.23198 ,0.65121 ,6.38972 
317 ,59.0032 ,1.23384 ,0.64437 ,6.32256 
318 ,59.1949 ,1.23592 ,0.61015 ,5.98678 
319 ,59.3713 ,1.23764 ,0.59988 ,5.88605 
320 ,59.5794 ,1.23967 ,0.58619 ,5.75173 
321 ,59.7716 ,1.24163 ,0.57935 ,5.68458 
322 ,59.9636 ,1.24350 ,0.57935 ,5.68458 
323 ,60.1557 ,1.24545 ,0.54171 ,5.31522 
324 ,60.3475 ,1.24745 ,0.55539 ,5.44953 
325 ,60.5397 ,1.24931 ,0.52802 ,5.18090 
326 ,60.7159 ,1.25105 ,0.51091 ,5.01301 
327 ,60.9079 ,1.25292 ,0.52117 ,5.11375 
328 ,61.1155 ,1.25503 ,0.50406 ,4.94585 
329 ,61.2921 ,1.25685 ,0.47326 ,4.64365 
330 ,61.4841 ,1.25875 ,0.48011 ,4.71081 
331 ,61.6922 ,1.26079 ,0.46642 ,4.57649 
332 ,61.8841 ,1.26283 ,0.44588 ,4.37502 
333 ,62.0604 ,1.26456 ,0.43904 ,4.30787 
334 ,62.2523 ,1.26643 ,0.43562 ,4.27429 
335 ,62.4287 ,1.26825 ,0.41851 ,4.10640 
336 ,62.6207 ,1.27003 ,0.40482 ,3.97208 
337 ,62.7968 ,1.27192 ,0.38429 ,3.77061 
338 ,62.9726 ,1.27370 ,0.39797 ,3.90493 
339 ,63.1489 ,1.27545 ,0.38086 ,3.73703 
340 ,63.3408 ,1.27729 ,0.35006 ,3.43483 
341 ,63.5330 ,1.27924 ,0.35006 ,3.43483 
342 ,63.7090 ,1.28102 ,0.35006 ,3.43483 
343 ,63.8850 ,1.28275 ,0.34664 ,3.40125 
344 ,64.0769 ,1.28469 ,0.30900 ,3.03189 
345 ,64.2532 ,1.28640 ,0.30215 ,2.96473 
346 ,64.4291 ,1.28822 ,0.29531 ,2.89758 
347 ,64.6213 ,1.29010 ,0.27478 ,2.69611 
348 ,64.8298 ,1.29214 ,0.26793 ,2.62895 
349 ,65.0211 ,1.29409 ,0.26109 ,2.56179 
350 ,65.1977 ,1.29584 ,0.24055 ,2.36032 
351 ,65.3895 ,1.29773 ,0.24398 ,2.39390 
352 ,65.5818 ,1.29967 ,0.23029 ,2.25959 
353 ,65.7738 ,1.30171 ,0.23029 ,2.25959 
354 ,65.9500 ,1.30342 ,0.21318 ,2.09170 
355 ,66.1421 ,1.30526 ,0.18922 ,1.85665 
356 ,66.3498 ,1.30731 ,0.19607 ,1.92381 
357 ,66.5261 ,1.30919 ,0.18238 ,1.78949 
358 ,66.7023 ,1.31091 ,0.17553 ,1.72234 
359 ,66.9103 ,1.31294 ,0.17211 ,1.68876 
360 ,67.1024 ,1.31488 ,0.13789 ,1.35298 
361 ,67.2947 ,1.31680 ,0.14473 ,1.42013 
362 ,67.4861 ,1.31867 ,0.12420 ,1.21866 
363 ,67.6625 ,1.32052 ,0.12420 ,1.21866 
364 ,67.8547 ,1.32248 ,0.09340 ,0.91646 
365 ,68.0309 ,1.32425 ,0.10025 ,0.98361 
366 ,68.2224 ,1.32616 ,0.08998 ,0.88288 
367 ,68.3988 ,1.32789 ,0.07287 ,0.71499 
368 ,68.6064 ,1.32982 ,0.05918 ,0.58067 
369 ,68.7829 ,1.33175 ,0.06260 ,0.61425 
370 ,68.9911 ,1.33368 ,0.03522 ,0.34563 
371 ,69.1669 ,1.33559 ,0.03865 ,0.37920 
372 ,69.3433 ,1.33732 ,0.02838 ,0.27847 
373 ,69.5353 ,1.33919 ,0.00443 ,0.04342 
374 ,69.7270 ,1.34113 ,0.00443 ,0.04342 
375 ,69.9193 ,1.34299 ,-0.02295 ,-0.22520 
376 ,70.1116 ,1.34496 ,-0.01953 ,-0.19163 
377 ,70.3194 ,1.34700 ,-0.01953 ,-0.19163 
378 ,70.5117 ,1.34904 ,-0.05375 ,-0.52741 
379 ,70.6878 ,1.35080 ,-0.04691 ,-0.46025 
380 ,70.8799 ,1.35258 ,-0.06402 ,-0.62814 
381 ,71.0878 ,1.35468 ,-0.07428 ,-0.72888 
382 ,71.2800 ,1.35658 ,-0.08455 ,-0.82961 
383 ,71.4559 ,1.35846 ,-0.10166 ,-0.99751 
384 ,71.6483 ,1.36037 ,-0.09824 ,-0.96393 
385 ,71.8401 ,1.36229 ,-0.11535 ,-1.13182 
386 ,72.0326 ,1.36414 ,-0.12219 ,-1.19898 
387 ,72.2403 ,1.36627 ,-0.14957 ,-1.46760 
388 ,72.4327 ,1.36812 ,-0.15642 ,-1.53476 
389 ,72.6246 ,1.37007 ,-0.15984 ,-1.56834 
390 ,72.8167 ,1.37198 ,-0.18722 ,-1.83696 
391 ,73.0087 ,1.37398 ,-0.17353 ,-1.70265 
392 ,73.1848 ,1.37571 ,-0.18722 ,-1.83696 
393 ,73.3769 ,1.37761 ,-0.22144 ,-2.17275 
394 ,73.5850 ,1.37963 ,-0.21117 ,-2.07201 
395 ,73.7610 ,1.38150 ,-0.20775 ,-2.03843 
396 ,73.9372 ,1.38325 ,-0.23170 ,-2.27348 
397 ,74.1452 ,1.38525 ,-0.24197 ,-2.37422 
398 ,74.3374 ,1.38729 ,-0.26250 ,-2.57569 
399 ,74.5293 ,1.38921 ,-0.27619 ,-2.71000 
400 ,74.7217 ,1.39103 ,-0.26250 ,-2.57569 
401 ,74.9136 ,1.39296 ,-0.28304 ,-2.77716 
402 ,75.0893 ,1.39479 ,-0.28988 ,-2.84431 
403 ,75.2817 ,1.39663 ,-0.31384 ,-3.07936 
404 ,75.4739 ,1.39860 ,-0.32068 ,-3.14652 
405 ,75.6659 ,1.40052 ,-0.30357 ,-2.97863 
406 ,75.8580 ,1.40236 ,-0.33095 ,-3.24725 
407 ,76.0342 ,1.40422 ,-0.35148 ,-3.44872 
408 ,76.2096 ,1.40597 ,-0.34806 ,-3.41514 
409 ,76.3861 ,1.40772 ,-0.33095 ,-3.24725 
410 ,76.5943 ,1.40976 ,-0.35832 ,-3.51588 
411 ,76.7862 ,1.41167 ,-0.36859 ,-3.61661 
412 ,76.9784 ,1.41361 ,-0.40281 ,-3.95240 
413 ,77.1545 ,1.41543 ,-0.39939 ,-3.91882 
414 ,77.3464 ,1.41733 ,-0.39597 ,-3.88524 
415 ,77.5546 ,1.41932 ,-0.41650 ,-4.08671 
416 ,77.7303 ,1.42122 ,-0.41308 ,-4.05313 
417 ,77.9224 ,1.42306 ,-0.43703 ,-4.28818 
418 ,78.0984 ,1.42492 ,-0.45072 ,-4.42249 
419 ,78.2908 ,1.42668 ,-0.45072 ,-4.42249 
420 ,78.5311 ,1.42900 ,-0.46441 ,-4.55681 
421 ,78.7393 ,1.43126 ,-0.47810 ,-4.69112 
422 ,78.9316 ,1.43313 ,-0.47468 ,-4.65754 
423 ,79.1234 ,1.43504 ,-0.48837 ,-4.79185 
424 ,79.3152 ,1.43699 ,-0.50206 ,-4.92617 
425 ,79.4915 ,1.43874 ,-0.51917 ,-5.09406 
426 ,79.6677 ,1.44055 ,-0.51574 ,-5.06048 
427 ,79.8597 ,1.44238 ,-0.53285 ,-5.22837 
428 ,80.0517 ,1.44448 ,-0.52601 ,-5.16121 
429 ,80.2435 ,1.44622 ,-0.53970 ,-5.29553 
430 ,80.4199 ,1.44804 ,-0.54654 ,-5.36268 
431 ,80.6118 ,1.45003 ,-0.56708 ,-5.56415 
432 ,80.8202 ,1.45192 ,-0.56023 ,-5.49700 
433 ,81.0122 ,1.45390 ,-0.57050 ,-5.59773 
434 ,81.2043 ,1.45584 ,-0.59788 ,-5.86636 
435 ,81.3801 ,1.45761 ,-0.59103 ,-5.79920 
436 ,81.5720 ,1.45954 ,-0.60130 ,-5.89994 
437 ,81.7486 ,1.46135 ,-0.61841 ,-6.06783 
438 ,81.9406 ,1.46324 ,-0.62525 ,-6.13499 
439 ,82.1326 ,1.46511 ,-0.62525 ,-6.13499 
440 ,82.3084 ,1.46696 ,-0.64236 ,-6.30288 
441 ,82.4847 ,1.46865 ,-0.63552 ,-6.23572 
442 ,82.6765 ,1.47064 ,-0.66974 ,-6.57150 
443 ,82.8530 ,1.47239 ,-0.66290 ,-6.50435 
444 ,83.0291 ,1.47419 ,-0.67316 ,-6.60508 
445 ,83.2051 ,1.47592 ,-0.66632 ,-6.53793 
446 ,83.4292 ,1.47799 ,-0.68685 ,-6.73940 
447 ,83.6212 ,1.48009 ,-0.69712 ,-6.84013 
448 ,83.7973 ,1.48193 ,-0.71423 ,-7.00802 
449 ,83.9735 ,1.48357 ,-0.72450 ,-7.10876 
450 ,84.1655 ,1.48542 ,-0.71081 ,-6.97444 
451 ,84.3416 ,1.48725 ,-0.73818 ,-7.24307 
452 ,84.5177 ,1.48900 ,-0.74503 ,-7.31023 
453 ,84.6938 ,1.49077 ,-0.76214 ,-7.47812 
454 ,84.8858 ,1.49264 ,-0.74845 ,-7.34380 
455 ,85.0780 ,1.49464 ,-0.77925 ,-7.64601 
456 ,85.2700 ,1.49657 ,-0.76556 ,-7.51170 
457 ,85.4619 ,1.49840 ,-0.79294 ,-7.78032 
458 ,85.6542 ,1.50038 ,-0.79978 ,-7.84748 
459 ,85.8462 ,1.50219 ,-0.78952 ,-7.74674 
460 ,86.0543 ,1.50431 ,-0.80321 ,-7.88106 
461 ,86.2459 ,1.50627 ,-0.81689 ,-8.01537 
462 ,86.4224 ,1.50806 ,-0.82032 ,-8.04895 
463 ,86.6140 ,1.50996 ,-0.84427 ,-8.28400 
