Data stamp = , 20-04-2022 15:08:21 831

Calibration Values: 
Slope = , 26.54 , g/V 
Offset Voltage at no contact = , -0.501760 , V 

No , Time , Stage Position ,   Mass , Force 
   ,  (s) ,      (mm)      ,   (g)  , (mN)  

1 ,0.0000 ,0.64937 ,5.38065 ,52.79493 
2 ,0.2183 ,0.64946 ,5.35669 ,52.55988 
3 ,0.6829 ,0.65081 ,5.36696 ,52.66062 
4 ,0.9066 ,0.65312 ,5.37381 ,52.72778 
5 ,1.0991 ,0.65503 ,5.35327 ,52.52631 
6 ,1.2912 ,0.65701 ,5.38749 ,52.86209 
7 ,1.4992 ,0.65903 ,5.38407 ,52.82851 
8 ,1.6754 ,0.66084 ,5.36354 ,52.62704 
9 ,1.8672 ,0.66272 ,5.33616 ,52.35841 
10 ,2.0595 ,0.66473 ,5.31905 ,52.19052 
11 ,2.2352 ,0.66653 ,5.30878 ,52.08979 
12 ,2.4277 ,0.66835 ,5.28141 ,51.82116 
13 ,2.6198 ,0.67033 ,5.25403 ,51.55254 
14 ,3.0519 ,0.67336 ,5.27456 ,51.75401 
15 ,3.2760 ,0.67676 ,5.21639 ,51.18317 
16 ,3.4840 ,0.67889 ,5.18216 ,50.84739 
17 ,3.6921 ,0.68098 ,5.17190 ,50.74666 
18 ,3.8681 ,0.68276 ,5.15479 ,50.57876 
19 ,4.0442 ,0.68460 ,5.13768 ,50.41087 
20 ,4.2204 ,0.68632 ,5.11714 ,50.20940 
21 ,4.3961 ,0.68811 ,5.12056 ,50.24298 
22 ,4.5885 ,0.68999 ,5.08634 ,49.90720 
23 ,4.7965 ,0.69199 ,5.07265 ,49.77289 
24 ,4.9885 ,0.69396 ,5.03501 ,49.40352 
25 ,5.1644 ,0.69571 ,5.03501 ,49.40352 
26 ,5.3568 ,0.69767 ,5.02474 ,49.30279 
27 ,5.5325 ,0.69950 ,4.99394 ,49.00058 
28 ,5.7246 ,0.70126 ,4.97341 ,48.79911 
29 ,5.9011 ,0.70315 ,4.95630 ,48.63122 
30 ,6.1408 ,0.70528 ,4.95288 ,48.59764 
31 ,6.3330 ,0.70735 ,4.92550 ,48.32902 
32 ,6.5090 ,0.70919 ,4.91181 ,48.19471 
33 ,6.6851 ,0.71091 ,4.89128 ,47.99324 
34 ,6.8775 ,0.71288 ,4.87075 ,47.79177 
35 ,7.0696 ,0.71470 ,4.86048 ,47.69103 
36 ,7.2776 ,0.71680 ,4.85021 ,47.59030 
37 ,7.4537 ,0.71862 ,4.83652 ,47.45598 
38 ,7.6453 ,0.72053 ,4.78519 ,46.95231 
39 ,7.8378 ,0.72239 ,4.78177 ,46.91873 
40 ,8.0455 ,0.72448 ,4.74413 ,46.54937 
41 ,8.2215 ,0.72637 ,4.74755 ,46.58295 
42 ,8.3815 ,0.72803 ,4.73044 ,46.41506 
43 ,8.5578 ,0.72971 ,4.73044 ,46.41506 
44 ,8.7498 ,0.73155 ,4.68937 ,46.01212 
45 ,8.9262 ,0.73334 ,4.66884 ,45.81065 
46 ,9.1183 ,0.73516 ,4.67911 ,45.91138 
47 ,9.3104 ,0.73716 ,4.63119 ,45.44128 
48 ,9.4865 ,0.73892 ,4.62093 ,45.34055 
49 ,9.6787 ,0.74079 ,4.61066 ,45.23981 
50 ,9.8868 ,0.74286 ,4.57644 ,44.90403 
51 ,10.0627 ,0.74481 ,4.57986 ,44.93761 
52 ,10.2388 ,0.74649 ,4.56960 ,44.83688 
53 ,10.4309 ,0.74834 ,4.52853 ,44.43394 
54 ,10.6391 ,0.75034 ,4.53537 ,44.50109 
55 ,10.8309 ,0.75233 ,4.48062 ,43.96384 
56 ,11.0232 ,0.75426 ,4.49089 ,44.06457 
57 ,11.2151 ,0.75622 ,4.46693 ,43.82953 
58 ,11.4233 ,0.75819 ,4.44298 ,43.59448 
59 ,11.5994 ,0.76013 ,4.44298 ,43.59448 
60 ,11.8075 ,0.76205 ,4.40875 ,43.25870 
61 ,11.9996 ,0.76407 ,4.40191 ,43.19154 
62 ,12.1596 ,0.76579 ,4.38138 ,42.99007 
63 ,12.3356 ,0.76742 ,4.36427 ,42.82218 
64 ,12.5278 ,0.76937 ,4.33347 ,42.51997 
65 ,12.7199 ,0.77127 ,4.31636 ,42.35208 
66 ,12.8957 ,0.77304 ,4.31293 ,42.31850 
67 ,13.0719 ,0.77482 ,4.29240 ,42.11703 
68 ,13.2481 ,0.77657 ,4.26845 ,41.88198 
69 ,13.4242 ,0.77832 ,4.25818 ,41.78125 
70 ,13.5998 ,0.78005 ,4.25818 ,41.78125 
71 ,13.7759 ,0.78186 ,4.22738 ,41.47905 
72 ,13.9518 ,0.78358 ,4.22053 ,41.41189 
73 ,14.1279 ,0.78535 ,4.18289 ,41.04253 
74 ,14.3040 ,0.78709 ,4.17947 ,41.00895 
75 ,14.4965 ,0.78902 ,4.14867 ,40.70674 
76 ,14.7047 ,0.79106 ,4.14525 ,40.67317 
77 ,14.8809 ,0.79290 ,4.14183 ,40.63959 
78 ,15.0567 ,0.79466 ,4.11445 ,40.37096 
79 ,15.2328 ,0.79639 ,4.09049 ,40.13591 
80 ,15.4251 ,0.79827 ,4.08365 ,40.06876 
81 ,15.6170 ,0.80023 ,4.05969 ,39.83371 
82 ,15.7931 ,0.80199 ,4.03574 ,39.59866 
83 ,15.9852 ,0.80391 ,4.02547 ,39.49793 
84 ,16.1610 ,0.80568 ,4.03574 ,39.59866 
85 ,16.3373 ,0.80752 ,3.98441 ,39.09499 
86 ,16.5291 ,0.80931 ,3.97756 ,39.02783 
87 ,16.7213 ,0.81128 ,3.96387 ,38.89352 
88 ,16.8976 ,0.81307 ,3.93992 ,38.65847 
89 ,17.0738 ,0.81483 ,3.91596 ,38.42342 
90 ,17.2655 ,0.81674 ,3.90912 ,38.35626 
91 ,17.4578 ,0.81858 ,3.89543 ,38.22195 
92 ,17.6497 ,0.82057 ,3.87490 ,38.02048 
93 ,17.8259 ,0.82229 ,3.85779 ,37.85259 
94 ,18.0339 ,0.82438 ,3.85436 ,37.81901 
95 ,18.2261 ,0.82623 ,3.81672 ,37.44965 
96 ,18.4017 ,0.82815 ,3.81330 ,37.41607 
97 ,18.5939 ,0.82993 ,3.78934 ,37.18102 
98 ,18.8023 ,0.83193 ,3.77908 ,37.08029 
99 ,18.9945 ,0.83403 ,3.74143 ,36.71093 
100 ,19.1862 ,0.83584 ,3.74485 ,36.74450 
101 ,19.3626 ,0.83772 ,3.73117 ,36.61019 
102 ,19.5545 ,0.83957 ,3.70037 ,36.30799 
103 ,19.7307 ,0.84140 ,3.68668 ,36.17367 
104 ,19.9226 ,0.84327 ,3.67983 ,36.10652 
105 ,20.0989 ,0.84509 ,3.66957 ,36.00578 
106 ,20.2910 ,0.84699 ,3.62850 ,35.60284 
107 ,20.4836 ,0.84882 ,3.63192 ,35.63642 
108 ,20.6749 ,0.85076 ,3.60112 ,35.33422 
109 ,20.8512 ,0.85257 ,3.58743 ,35.19990 
110 ,21.0428 ,0.85449 ,3.58401 ,35.16632 
111 ,21.2194 ,0.85621 ,3.56348 ,34.96485 
112 ,21.4115 ,0.85803 ,3.53952 ,34.72981 
113 ,21.6031 ,0.86018 ,3.51899 ,34.52834 
114 ,21.7796 ,0.86188 ,3.51899 ,34.52834 
115 ,21.9717 ,0.86375 ,3.48477 ,34.19255 
116 ,22.1476 ,0.86551 ,3.48819 ,34.22613 
117 ,22.3237 ,0.86726 ,3.46766 ,34.02466 
118 ,22.4998 ,0.86908 ,3.45739 ,33.92393 
119 ,22.6916 ,0.87096 ,3.42317 ,33.58814 
120 ,22.8681 ,0.87276 ,3.41633 ,33.52099 
121 ,23.0760 ,0.87477 ,3.38553 ,33.21878 
122 ,23.2523 ,0.87659 ,3.37526 ,33.11805 
123 ,23.4439 ,0.87844 ,3.37868 ,33.15163 
124 ,23.6203 ,0.88026 ,3.35473 ,32.91658 
125 ,23.8121 ,0.88214 ,3.32393 ,32.61437 
126 ,23.9885 ,0.88393 ,3.31366 ,32.51364 
127 ,24.1807 ,0.88586 ,3.30339 ,32.41290 
128 ,24.3564 ,0.88765 ,3.27944 ,32.17786 
129 ,24.5486 ,0.88950 ,3.27259 ,32.11070 
130 ,24.7408 ,0.89135 ,3.26233 ,32.00996 
131 ,24.9009 ,0.89319 ,3.23495 ,31.74134 
132 ,25.0770 ,0.89482 ,3.20757 ,31.47271 
133 ,25.2691 ,0.89664 ,3.20073 ,31.40555 
134 ,25.4612 ,0.89867 ,3.19046 ,31.30482 
135 ,25.6531 ,0.90051 ,3.17677 ,31.17051 
136 ,25.8290 ,0.90233 ,3.15966 ,31.00262 
137 ,26.0051 ,0.90405 ,3.14255 ,30.83472 
138 ,26.1969 ,0.90596 ,3.10491 ,30.46536 
139 ,26.3734 ,0.90777 ,3.09464 ,30.36463 
140 ,26.5495 ,0.90950 ,3.09122 ,30.33105 
141 ,26.7737 ,0.91163 ,3.08095 ,30.23031 
142 ,26.9495 ,0.91349 ,3.06384 ,30.06242 
143 ,27.1419 ,0.91537 ,3.03647 ,29.79380 
144 ,27.3498 ,0.91739 ,3.01593 ,29.59233 
145 ,27.5578 ,0.91956 ,3.00224 ,29.45801 
146 ,27.7339 ,0.92136 ,2.97829 ,29.22297 
147 ,27.9262 ,0.92320 ,2.98513 ,29.29012 
148 ,28.0857 ,0.92502 ,2.96118 ,29.05507 
149 ,28.2622 ,0.92666 ,2.94407 ,28.88718 
150 ,28.4382 ,0.92842 ,2.92696 ,28.71929 
151 ,28.6143 ,0.93021 ,2.91327 ,28.58498 
152 ,28.7904 ,0.93193 ,2.88931 ,28.34993 
153 ,28.9665 ,0.93368 ,2.89616 ,28.41709 
154 ,29.1582 ,0.93556 ,2.86193 ,28.08130 
155 ,29.3345 ,0.93735 ,2.84482 ,27.91341 
156 ,29.5426 ,0.93939 ,2.82771 ,27.74552 
157 ,29.7189 ,0.94122 ,2.80376 ,27.51047 
158 ,29.9109 ,0.94314 ,2.80034 ,27.47689 
159 ,30.0870 ,0.94485 ,2.80376 ,27.51047 
160 ,30.2947 ,0.94687 ,2.77296 ,27.20827 
161 ,30.4712 ,0.94871 ,2.75585 ,27.04038 
162 ,30.6633 ,0.95057 ,2.73531 ,26.83891 
163 ,30.8550 ,0.95254 ,2.74216 ,26.90606 
164 ,31.0472 ,0.95442 ,2.70794 ,26.57028 
165 ,31.2552 ,0.95651 ,2.68740 ,26.36881 
166 ,31.4475 ,0.95853 ,2.67029 ,26.20092 
167 ,31.6396 ,0.96040 ,2.65660 ,26.06661 
168 ,31.8154 ,0.96215 ,2.62923 ,25.79798 
169 ,32.0077 ,0.96406 ,2.63607 ,25.86514 
170 ,32.1998 ,0.96595 ,2.59501 ,25.46220 
171 ,32.3914 ,0.96789 ,2.59843 ,25.49577 
172 ,32.5678 ,0.96973 ,2.58132 ,25.32788 
173 ,32.7595 ,0.97162 ,2.56078 ,25.12641 
174 ,32.9361 ,0.97334 ,2.53683 ,24.89136 
175 ,33.1121 ,0.97525 ,2.55052 ,25.02568 
176 ,33.3043 ,0.97699 ,2.52314 ,24.75705 
177 ,33.4798 ,0.97888 ,2.50261 ,24.55558 
178 ,33.6563 ,0.98053 ,2.48892 ,24.42127 
179 ,33.8483 ,0.98241 ,2.48892 ,24.42127 
180 ,34.0405 ,0.98429 ,2.47181 ,24.25338 
181 ,34.2324 ,0.98626 ,2.44785 ,24.01833 
182 ,34.4085 ,0.98806 ,2.44101 ,23.95117 
183 ,34.6006 ,0.99003 ,2.41363 ,23.68255 
184 ,34.7928 ,0.99194 ,2.41363 ,23.68255 
185 ,34.9848 ,0.99378 ,2.39652 ,23.51465 
186 ,35.1610 ,0.99561 ,2.36230 ,23.17887 
187 ,35.3691 ,0.99754 ,2.36572 ,23.21245 
188 ,35.5608 ,0.99961 ,2.33492 ,22.91024 
189 ,35.7369 ,1.00140 ,2.30754 ,22.64162 
190 ,35.9453 ,1.00345 ,2.31781 ,22.74235 
191 ,36.1532 ,1.00535 ,2.30754 ,22.64162 
192 ,36.3294 ,1.00730 ,2.28017 ,22.37299 
193 ,36.5057 ,1.00910 ,2.25963 ,22.17152 
194 ,36.6813 ,1.01079 ,2.23568 ,21.93647 
195 ,36.8577 ,1.01258 ,2.23226 ,21.90290 
196 ,37.0338 ,1.01434 ,2.22541 ,21.83574 
197 ,37.2257 ,1.01621 ,2.20830 ,21.66785 
198 ,37.4020 ,1.01803 ,2.19119 ,21.49996 
199 ,37.5940 ,1.01984 ,2.20146 ,21.60069 
200 ,37.7859 ,1.02183 ,2.16723 ,21.26491 
201 ,37.9787 ,1.02379 ,2.13986 ,20.99628 
202 ,38.1699 ,1.02565 ,2.14328 ,21.02986 
203 ,38.3299 ,1.02742 ,2.12617 ,20.86197 
204 ,38.4899 ,1.02902 ,2.11932 ,20.79481 
205 ,38.6499 ,1.03062 ,2.10564 ,20.66050 
206 ,38.8421 ,1.03231 ,2.08168 ,20.42545 
207 ,39.0501 ,1.03434 ,2.06799 ,20.29114 
208 ,39.2426 ,1.03635 ,2.03719 ,19.98893 
209 ,39.4502 ,1.03844 ,2.03377 ,19.95535 
210 ,39.6103 ,1.04021 ,2.03035 ,19.92178 
211 ,39.8025 ,1.04195 ,1.99613 ,19.58599 
212 ,40.0105 ,1.04399 ,2.00639 ,19.68673 
213 ,40.1867 ,1.04584 ,1.98586 ,19.48526 
214 ,40.3629 ,1.04759 ,1.95848 ,19.21663 
215 ,40.5387 ,1.04938 ,1.93795 ,19.01516 
216 ,40.7310 ,1.05122 ,1.93453 ,18.98158 
217 ,40.9069 ,1.05311 ,1.91399 ,18.78011 
218 ,41.0993 ,1.05496 ,1.90373 ,18.67938 
219 ,41.2913 ,1.05689 ,1.89004 ,18.54507 
220 ,41.4676 ,1.05865 ,1.88319 ,18.47791 
221 ,41.6597 ,1.06047 ,1.86266 ,18.27644 
222 ,41.8514 ,1.06251 ,1.85240 ,18.17570 
223 ,42.0435 ,1.06442 ,1.82844 ,17.94066 
224 ,42.2199 ,1.06619 ,1.79764 ,17.63845 
225 ,42.4118 ,1.06807 ,1.82160 ,17.87350 
226 ,42.5882 ,1.06986 ,1.78737 ,17.53772 
227 ,42.7797 ,1.07180 ,1.76684 ,17.33625 
228 ,42.9559 ,1.07349 ,1.76684 ,17.33625 
229 ,43.1317 ,1.07536 ,1.74973 ,17.16836 
230 ,43.3082 ,1.07705 ,1.74631 ,17.13478 
231 ,43.5001 ,1.07896 ,1.71209 ,16.79899 
232 ,43.6925 ,1.08085 ,1.72578 ,16.93331 
233 ,43.9002 ,1.08292 ,1.68129 ,16.49679 
234 ,44.0765 ,1.08470 ,1.67786 ,16.46321 
235 ,44.2526 ,1.08649 ,1.67444 ,16.42963 
236 ,44.4127 ,1.08820 ,1.64364 ,16.12743 
237 ,44.6047 ,1.08996 ,1.63680 ,16.06027 
238 ,44.7810 ,1.09174 ,1.60942 ,15.79164 
239 ,44.9731 ,1.09356 ,1.60942 ,15.79164 
240 ,45.1812 ,1.09567 ,1.59573 ,15.65733 
241 ,45.3571 ,1.09754 ,1.56836 ,15.38871 
242 ,45.5492 ,1.09938 ,1.56836 ,15.38871 
243 ,45.7250 ,1.10118 ,1.56151 ,15.32155 
244 ,45.9014 ,1.10295 ,1.53413 ,15.05292 
245 ,46.0771 ,1.10477 ,1.52729 ,14.98577 
246 ,46.2535 ,1.10643 ,1.53071 ,15.01934 
247 ,46.4615 ,1.10854 ,1.49307 ,14.64998 
248 ,46.6536 ,1.11056 ,1.48965 ,14.61640 
249 ,46.8298 ,1.11225 ,1.48622 ,14.58283 
250 ,47.0218 ,1.11416 ,1.45542 ,14.28062 
251 ,47.1978 ,1.11593 ,1.45200 ,14.24704 
252 ,47.3737 ,1.11768 ,1.43831 ,14.11273 
253 ,47.5823 ,1.11972 ,1.40751 ,13.81053 
254 ,47.7577 ,1.12155 ,1.40409 ,13.77695 
255 ,47.9341 ,1.12325 ,1.40067 ,13.74337 
256 ,48.1261 ,1.12523 ,1.38698 ,13.60906 
257 ,48.3019 ,1.12698 ,1.35618 ,13.30685 
258 ,48.4941 ,1.12875 ,1.36987 ,13.44116 
259 ,48.6866 ,1.13074 ,1.32538 ,13.00465 
260 ,48.8943 ,1.13283 ,1.33223 ,13.07180 
261 ,49.0706 ,1.13469 ,1.32880 ,13.03822 
262 ,49.2627 ,1.13656 ,1.28089 ,12.56813 
263 ,49.4389 ,1.13834 ,1.28089 ,12.56813 
264 ,49.6144 ,1.14020 ,1.27747 ,12.53455 
265 ,49.8070 ,1.14201 ,1.25009 ,12.26592 
266 ,49.9990 ,1.14392 ,1.25694 ,12.33308 
267 ,50.1753 ,1.14568 ,1.24667 ,12.23235 
268 ,50.3512 ,1.14743 ,1.22614 ,12.03088 
269 ,50.5272 ,1.14927 ,1.20561 ,11.82941 
270 ,50.7032 ,1.15093 ,1.18507 ,11.62794 
271 ,50.8791 ,1.15271 ,1.16454 ,11.42647 
272 ,51.0555 ,1.15449 ,1.18165 ,11.59436 
273 ,51.2311 ,1.15626 ,1.17138 ,11.49362 
274 ,51.3916 ,1.15797 ,1.14401 ,11.22500 
275 ,51.5995 ,1.15982 ,1.12347 ,11.02353 
276 ,51.7757 ,1.16170 ,1.13032 ,11.09068 
277 ,51.9677 ,1.16357 ,1.12005 ,10.98995 
278 ,52.1599 ,1.16551 ,1.08925 ,10.68774 
279 ,52.3680 ,1.16746 ,1.05845 ,10.38554 
280 ,52.5601 ,1.16951 ,1.07214 ,10.51985 
281 ,52.7522 ,1.17136 ,1.05503 ,10.35196 
282 ,52.9280 ,1.17329 ,1.04134 ,10.21765 
283 ,53.1201 ,1.17511 ,1.03450 ,10.15049 
284 ,53.2962 ,1.17685 ,1.03108 ,10.11691 
285 ,53.4889 ,1.17878 ,1.00028 ,9.81471 
286 ,53.6646 ,1.18058 ,0.97632 ,9.57966 
287 ,53.8565 ,1.18246 ,0.98659 ,9.68039 
288 ,54.0326 ,1.18432 ,0.95579 ,9.37819 
289 ,54.2408 ,1.18620 ,0.94894 ,9.31103 
290 ,54.4329 ,1.18829 ,0.93868 ,9.21030 
291 ,54.6248 ,1.19015 ,0.92499 ,9.07598 
292 ,54.8011 ,1.19192 ,0.91814 ,9.00883 
293 ,55.0087 ,1.19399 ,0.88392 ,8.67305 
294 ,55.1851 ,1.19575 ,0.88050 ,8.63947 
295 ,55.3773 ,1.19763 ,0.87708 ,8.60589 
296 ,55.5852 ,1.19974 ,0.86681 ,8.50515 
297 ,55.7775 ,1.20162 ,0.84970 ,8.33726 
298 ,55.9536 ,1.20346 ,0.85654 ,8.40442 
299 ,56.1615 ,1.20547 ,0.84286 ,8.27011 
300 ,56.3697 ,1.20747 ,0.82232 ,8.06864 
301 ,56.5618 ,1.20955 ,0.79837 ,7.83359 
302 ,56.7533 ,1.21151 ,0.77441 ,7.59854 
303 ,56.9458 ,1.21334 ,0.76415 ,7.49780 
304 ,57.1377 ,1.21535 ,0.77441 ,7.59854 
305 ,57.3141 ,1.21706 ,0.76415 ,7.49780 
306 ,57.5220 ,1.21911 ,0.74361 ,7.29633 
307 ,57.6982 ,1.22091 ,0.73335 ,7.19560 
308 ,57.9061 ,1.22292 ,0.69913 ,6.85982 
309 ,58.1304 ,1.22494 ,0.70597 ,6.92697 
310 ,58.3223 ,1.22713 ,0.66833 ,6.55761 
311 ,58.4985 ,1.22889 ,0.67175 ,6.59119 
312 ,58.6746 ,1.23069 ,0.67517 ,6.62477 
313 ,58.8986 ,1.23276 ,0.66148 ,6.49046 
314 ,59.0748 ,1.23465 ,0.65464 ,6.42330 
315 ,59.2665 ,1.23659 ,0.61015 ,5.98678 
316 ,59.4590 ,1.23840 ,0.62042 ,6.08752 
317 ,59.6510 ,1.24041 ,0.61357 ,6.02036 
318 ,59.8432 ,1.24222 ,0.58619 ,5.75173 
319 ,60.0351 ,1.24427 ,0.56908 ,5.58384 
320 ,60.2112 ,1.24598 ,0.55882 ,5.48311 
321 ,60.4030 ,1.24786 ,0.56566 ,5.55026 
322 ,60.5796 ,1.24971 ,0.54513 ,5.34879 
323 ,60.7874 ,1.25175 ,0.51775 ,5.08017 
324 ,60.9637 ,1.25354 ,0.52802 ,5.18090 
325 ,61.1556 ,1.25538 ,0.51433 ,5.04659 
326 ,61.3477 ,1.25727 ,0.48353 ,4.74438 
327 ,61.5237 ,1.25911 ,0.48353 ,4.74438 
328 ,61.6998 ,1.26089 ,0.46984 ,4.61007 
329 ,61.8756 ,1.26261 ,0.46300 ,4.54291 
330 ,62.0519 ,1.26440 ,0.45273 ,4.44218 
331 ,62.2281 ,1.26615 ,0.43220 ,4.24071 
332 ,62.4041 ,1.26804 ,0.44246 ,4.34144 
333 ,62.5804 ,1.26968 ,0.43562 ,4.27429 
334 ,62.7883 ,1.27170 ,0.40824 ,4.00566 
335 ,62.9645 ,1.27352 ,0.39455 ,3.87135 
336 ,63.1725 ,1.27552 ,0.38086 ,3.73703 
337 ,63.3643 ,1.27750 ,0.37744 ,3.70346 
338 ,63.5244 ,1.27924 ,0.37060 ,3.63630 
339 ,63.7008 ,1.28089 ,0.35006 ,3.43483 
340 ,63.8927 ,1.28288 ,0.33295 ,3.26694 
341 ,64.0688 ,1.28451 ,0.31926 ,3.13263 
342 ,64.2445 ,1.28632 ,0.30558 ,2.99831 
343 ,64.4050 ,1.28803 ,0.30900 ,3.03189 
344 ,64.5812 ,1.28972 ,0.30215 ,2.96473 
345 ,64.7732 ,1.29158 ,0.27820 ,2.72969 
346 ,64.9813 ,1.29357 ,0.27478 ,2.69611 
347 ,65.1573 ,1.29549 ,0.26793 ,2.62895 
348 ,65.3330 ,1.29724 ,0.24740 ,2.42748 
349 ,65.5254 ,1.29908 ,0.24055 ,2.36032 
350 ,65.7014 ,1.30090 ,0.24055 ,2.36032 
351 ,65.8936 ,1.30273 ,0.23371 ,2.29317 
352 ,66.0858 ,1.30473 ,0.20633 ,2.02454 
353 ,66.2616 ,1.30651 ,0.21318 ,2.09170 
354 ,66.4218 ,1.30821 ,0.19607 ,1.92381 
355 ,66.6139 ,1.30999 ,0.16869 ,1.65518 
356 ,66.8216 ,1.31208 ,0.18238 ,1.78949 
357 ,66.9981 ,1.31386 ,0.17896 ,1.75592 
358 ,67.1741 ,1.31563 ,0.14816 ,1.45371 
359 ,67.3499 ,1.31735 ,0.13105 ,1.28582 
360 ,67.5262 ,1.31909 ,0.11736 ,1.15151 
361 ,67.7340 ,1.32114 ,0.10367 ,1.01719 
362 ,67.9101 ,1.32298 ,0.09682 ,0.95004 
363 ,68.1026 ,1.32485 ,0.10367 ,1.01719 
364 ,68.2945 ,1.32683 ,0.07971 ,0.78214 
365 ,68.4708 ,1.32859 ,0.05918 ,0.58067 
366 ,68.6304 ,1.33028 ,0.04891 ,0.47994 
367 ,68.8063 ,1.33196 ,0.03865 ,0.37920 
368 ,68.9825 ,1.33368 ,0.06260 ,0.61425 
369 ,69.1911 ,1.33562 ,0.02496 ,0.24489 
370 ,69.4151 ,1.33796 ,-0.00242 ,-0.02373 
371 ,69.6071 ,1.33992 ,0.00443 ,0.04342 
372 ,69.7834 ,1.34168 ,0.00443 ,0.04342 
373 ,69.9594 ,1.34350 ,-0.01269 ,-0.12447 
374 ,70.1352 ,1.34532 ,-0.02295 ,-0.22520 
375 ,70.3114 ,1.34697 ,-0.03322 ,-0.32594 
376 ,70.4879 ,1.34876 ,-0.04006 ,-0.39310 
377 ,70.6636 ,1.35048 ,-0.04348 ,-0.42667 
378 ,70.8399 ,1.35228 ,-0.04691 ,-0.46025 
379 ,71.0313 ,1.35416 ,-0.08113 ,-0.79604 
380 ,71.2233 ,1.35599 ,-0.07086 ,-0.69530 
381 ,71.3996 ,1.35784 ,-0.08113 ,-0.79604 
382 ,71.5916 ,1.35975 ,-0.10851 ,-1.06466 
383 ,71.8315 ,1.36198 ,-0.10166 ,-0.99751 
384 ,72.0240 ,1.36401 ,-0.12562 ,-1.23255 
385 ,72.2001 ,1.36588 ,-0.12219 ,-1.19898 
386 ,72.3923 ,1.36776 ,-0.13931 ,-1.36687 
387 ,72.5845 ,1.36964 ,-0.13246 ,-1.29971 
388 ,72.7765 ,1.37159 ,-0.16668 ,-1.63549 
389 ,72.9685 ,1.37356 ,-0.16326 ,-1.60191 
390 ,73.1445 ,1.37531 ,-0.18037 ,-1.76981 
391 ,73.3204 ,1.37716 ,-0.19064 ,-1.87054 
392 ,73.5129 ,1.37895 ,-0.19406 ,-1.90412 
393 ,73.7048 ,1.38086 ,-0.19748 ,-1.93770 
394 ,73.8811 ,1.38265 ,-0.20090 ,-1.97128 
395 ,74.0730 ,1.38449 ,-0.22144 ,-2.17275 
396 ,74.2652 ,1.38641 ,-0.22828 ,-2.23990 
397 ,74.4731 ,1.38853 ,-0.24197 ,-2.37422 
398 ,74.6973 ,1.39067 ,-0.26250 ,-2.57569 
399 ,74.8896 ,1.39271 ,-0.25224 ,-2.47495 
400 ,75.0654 ,1.39449 ,-0.25908 ,-2.54211 
401 ,75.2416 ,1.39625 ,-0.27961 ,-2.74358 
402 ,75.4336 ,1.39822 ,-0.27619 ,-2.71000 
403 ,75.6098 ,1.39994 ,-0.30357 ,-2.97863 
404 ,75.8017 ,1.40188 ,-0.30357 ,-2.97863 
405 ,75.9778 ,1.40360 ,-0.31726 ,-3.11294 
406 ,76.1699 ,1.40555 ,-0.32752 ,-3.21367 
407 ,76.3459 ,1.40728 ,-0.32068 ,-3.14652 
408 ,76.5217 ,1.40906 ,-0.34806 ,-3.41514 
409 ,76.6980 ,1.41084 ,-0.35490 ,-3.48230 
410 ,76.9059 ,1.41287 ,-0.36517 ,-3.58303 
411 ,77.0979 ,1.41467 ,-0.36859 ,-3.61661 
412 ,77.2745 ,1.41660 ,-0.38912 ,-3.81808 
413 ,77.4823 ,1.41861 ,-0.38912 ,-3.81808 
414 ,77.6585 ,1.42040 ,-0.40623 ,-3.98597 
415 ,77.8345 ,1.42214 ,-0.42335 ,-4.15387 
416 ,78.0108 ,1.42393 ,-0.41650 ,-4.08671 
417 ,78.2027 ,1.42580 ,-0.43703 ,-4.28818 
418 ,78.3790 ,1.42763 ,-0.44730 ,-4.38891 
419 ,78.5710 ,1.42947 ,-0.43361 ,-4.25460 
420 ,78.7630 ,1.43139 ,-0.45757 ,-4.48965 
421 ,78.9551 ,1.43335 ,-0.48152 ,-4.72470 
422 ,79.1311 ,1.43515 ,-0.48837 ,-4.79185 
423 ,79.3070 ,1.43690 ,-0.48494 ,-4.75828 
424 ,79.4993 ,1.43874 ,-0.50548 ,-4.95975 
425 ,79.6915 ,1.44069 ,-0.49863 ,-4.89259 
426 ,79.8833 ,1.44260 ,-0.51574 ,-5.06048 
427 ,80.0754 ,1.44454 ,-0.53628 ,-5.26195 
428 ,80.2516 ,1.44635 ,-0.53628 ,-5.26195 
429 ,80.4277 ,1.44808 ,-0.54997 ,-5.39626 
430 ,80.6198 ,1.44990 ,-0.54312 ,-5.32911 
431 ,80.8115 ,1.45192 ,-0.55681 ,-5.46342 
432 ,80.9883 ,1.45374 ,-0.56023 ,-5.49700 
433 ,81.1800 ,1.45560 ,-0.57050 ,-5.59773 
434 ,81.3559 ,1.45734 ,-0.59788 ,-5.86636 
435 ,81.5643 ,1.45938 ,-0.58419 ,-5.73205 
436 ,81.7402 ,1.46129 ,-0.60472 ,-5.93352 
437 ,81.9159 ,1.46295 ,-0.62525 ,-6.13499 
438 ,82.0921 ,1.46476 ,-0.61841 ,-6.06783 
439 ,82.2686 ,1.46652 ,-0.62525 ,-6.13499 
440 ,82.4446 ,1.46825 ,-0.62183 ,-6.10141 
441 ,82.6526 ,1.47032 ,-0.63210 ,-6.20214 
442 ,82.8286 ,1.47215 ,-0.64921 ,-6.37003 
443 ,83.0207 ,1.47400 ,-0.66290 ,-6.50435 
444 ,83.1968 ,1.47576 ,-0.68001 ,-6.67224 
445 ,83.3891 ,1.47766 ,-0.66974 ,-6.57150 
446 ,83.5811 ,1.47957 ,-0.68001 ,-6.67224 
447 ,83.7732 ,1.48152 ,-0.68001 ,-6.67224 
448 ,83.9648 ,1.48338 ,-0.70054 ,-6.87371 
449 ,84.1412 ,1.48519 ,-0.70054 ,-6.87371 
450 ,84.3494 ,1.48723 ,-0.70739 ,-6.94086 
451 ,84.5414 ,1.48924 ,-0.72107 ,-7.07518 
452 ,84.7496 ,1.49111 ,-0.72792 ,-7.14233 
453 ,84.9415 ,1.49315 ,-0.74845 ,-7.34380 
454 ,85.1334 ,1.49504 ,-0.74503 ,-7.31023 
455 ,85.3256 ,1.49692 ,-0.75530 ,-7.41096 
456 ,85.5177 ,1.49895 ,-0.77241 ,-7.57885 
457 ,85.6938 ,1.50073 ,-0.77583 ,-7.61243 
458 ,85.8699 ,1.50248 ,-0.78267 ,-7.67959 
459 ,86.0617 ,1.50440 ,-0.78952 ,-7.74674 
460 ,86.2220 ,1.50612 ,-0.80321 ,-7.88106 
461 ,86.3977 ,1.50778 ,-0.81005 ,-7.94821 
462 ,86.5741 ,1.50949 ,-0.79978 ,-7.84748 
463 ,86.7501 ,1.51133 ,-0.81005 ,-7.94821 
