Data stamp = , 20-04-2022 18:06:35 554

Calibration Values: 
Slope = , 26.54 , g/V 
Offset Voltage at no contact = , -0.501760 , V 

No , Time , Stage Position ,   Mass , Force 
   ,  (s) ,      (mm)      ,   (g)  , (mN)  

1 ,0.0000 ,0.64937 ,5.31221 ,52.12337 
2 ,0.2103 ,0.64946 ,5.31905 ,52.19052 
3 ,0.6267 ,0.65061 ,5.31563 ,52.15694 
4 ,0.8190 ,0.65245 ,5.32932 ,52.29126 
5 ,1.0267 ,0.65447 ,5.30878 ,52.08979 
6 ,1.2029 ,0.65613 ,5.31221 ,52.12337 
7 ,1.3952 ,0.65803 ,5.31563 ,52.15694 
8 ,1.6032 ,0.65998 ,5.31563 ,52.15694 
9 ,1.7952 ,0.66209 ,5.30194 ,52.02263 
10 ,1.9714 ,0.66389 ,5.28483 ,51.85474 
11 ,2.1790 ,0.66586 ,5.28825 ,51.88832 
12 ,2.3875 ,0.66788 ,5.25061 ,51.51896 
13 ,2.5952 ,0.67002 ,5.23350 ,51.35107 
14 ,2.7717 ,0.67189 ,5.21296 ,51.14960 
15 ,2.9634 ,0.67386 ,5.20270 ,51.04886 
16 ,3.1397 ,0.67556 ,5.19585 ,50.98170 
17 ,3.3318 ,0.67743 ,5.16848 ,50.71308 
18 ,3.5080 ,0.67924 ,5.14110 ,50.44445 
19 ,3.7001 ,0.68110 ,5.14452 ,50.47803 
20 ,3.8921 ,0.68301 ,5.11030 ,50.14225 
21 ,4.0682 ,0.68482 ,5.09319 ,49.97436 
22 ,4.2603 ,0.68665 ,5.09319 ,49.97436 
23 ,4.4683 ,0.68880 ,5.06239 ,49.67215 
24 ,4.6604 ,0.69078 ,5.02817 ,49.33637 
25 ,4.8685 ,0.69269 ,5.03159 ,49.36995 
26 ,5.0766 ,0.69483 ,5.00763 ,49.13490 
27 ,5.2685 ,0.69673 ,4.98710 ,48.93343 
28 ,5.4604 ,0.69868 ,4.98026 ,48.86627 
29 ,5.6367 ,0.70049 ,4.95288 ,48.59764 
30 ,5.8129 ,0.70227 ,4.94603 ,48.53049 
31 ,5.9889 ,0.70404 ,4.92208 ,48.29544 
32 ,6.1648 ,0.70576 ,4.89128 ,47.99324 
33 ,6.3569 ,0.70766 ,4.89470 ,48.02681 
34 ,6.5332 ,0.70952 ,4.86390 ,47.72461 
35 ,6.7093 ,0.71121 ,4.84679 ,47.55672 
36 ,6.8853 ,0.71304 ,4.82968 ,47.38883 
37 ,7.0613 ,0.71476 ,4.81941 ,47.28809 
38 ,7.2534 ,0.71669 ,4.80915 ,47.18736 
39 ,7.4451 ,0.71858 ,4.77493 ,46.85157 
40 ,7.6215 ,0.72034 ,4.76124 ,46.71726 
41 ,7.7977 ,0.72210 ,4.75097 ,46.61653 
42 ,7.9896 ,0.72400 ,4.73044 ,46.41506 
43 ,8.1819 ,0.72592 ,4.71675 ,46.28074 
44 ,8.3739 ,0.72786 ,4.70306 ,46.14643 
45 ,8.5657 ,0.72973 ,4.68253 ,45.94496 
46 ,8.7420 ,0.73155 ,4.66199 ,45.74349 
47 ,8.9503 ,0.73357 ,4.65515 ,45.67633 
48 ,9.1418 ,0.73548 ,4.62777 ,45.40771 
49 ,9.3183 ,0.73732 ,4.59697 ,45.10550 
50 ,9.4943 ,0.73905 ,4.60724 ,45.20624 
51 ,9.6701 ,0.74082 ,4.58671 ,45.00477 
52 ,9.8624 ,0.74274 ,4.55933 ,44.73614 
53 ,10.0546 ,0.74468 ,4.56275 ,44.76972 
54 ,10.2467 ,0.74649 ,4.53195 ,44.46751 
55 ,10.4388 ,0.74851 ,4.51142 ,44.26604 
56 ,10.6308 ,0.75034 ,4.50115 ,44.16531 
57 ,10.8064 ,0.75230 ,4.47720 ,43.93026 
58 ,11.1911 ,0.75500 ,4.46351 ,43.79595 
59 ,11.3828 ,0.75796 ,4.42244 ,43.39301 
60 ,11.5592 ,0.75971 ,4.39849 ,43.15796 
61 ,11.7351 ,0.76146 ,4.39849 ,43.15796 
62 ,11.9114 ,0.76328 ,4.37111 ,42.88933 
63 ,12.0874 ,0.76498 ,4.35742 ,42.75502 
64 ,12.2635 ,0.76673 ,4.35742 ,42.75502 
65 ,12.4396 ,0.76851 ,4.31978 ,42.38566 
66 ,12.6314 ,0.77036 ,4.32320 ,42.41924 
67 ,12.7916 ,0.77217 ,4.30267 ,42.21777 
68 ,12.9517 ,0.77374 ,4.28213 ,42.01630 
69 ,13.1114 ,0.77532 ,4.27529 ,41.94914 
70 ,13.2879 ,0.77701 ,4.26160 ,41.81483 
71 ,13.4638 ,0.77877 ,4.23765 ,41.57978 
72 ,13.6560 ,0.78065 ,4.23422 ,41.54620 
73 ,13.8481 ,0.78252 ,4.20342 ,41.24400 
74 ,14.0402 ,0.78443 ,4.18974 ,41.10968 
75 ,14.2162 ,0.78629 ,4.17605 ,40.97537 
76 ,14.3924 ,0.78807 ,4.16578 ,40.87464 
77 ,14.5685 ,0.78978 ,4.15551 ,40.77390 
78 ,14.7445 ,0.79155 ,4.13156 ,40.53885 
79 ,14.9527 ,0.79358 ,4.12471 ,40.47170 
80 ,15.1608 ,0.79568 ,4.08707 ,40.10233 
81 ,15.3527 ,0.79769 ,4.08707 ,40.10233 
82 ,15.5291 ,0.79941 ,4.06654 ,39.90087 
83 ,15.7047 ,0.80115 ,4.04600 ,39.69940 
84 ,15.8971 ,0.80295 ,4.02205 ,39.46435 
85 ,16.0887 ,0.80501 ,4.01178 ,39.36361 
86 ,16.2651 ,0.80680 ,3.98441 ,39.09499 
87 ,16.4571 ,0.80864 ,3.97072 ,38.96067 
88 ,16.6494 ,0.81058 ,3.96045 ,38.85994 
89 ,16.8571 ,0.81262 ,3.92965 ,38.55773 
90 ,17.0336 ,0.81441 ,3.91596 ,38.42342 
91 ,17.2252 ,0.81632 ,3.90912 ,38.35626 
92 ,17.4179 ,0.81824 ,3.88516 ,38.12122 
93 ,17.6097 ,0.82020 ,3.88858 ,38.15479 
94 ,17.8017 ,0.82209 ,3.85779 ,37.85259 
95 ,17.9778 ,0.82390 ,3.83041 ,37.58396 
96 ,18.1539 ,0.82565 ,3.81330 ,37.41607 
97 ,18.3618 ,0.82754 ,3.81330 ,37.41607 
98 ,18.5541 ,0.82961 ,3.77908 ,37.08029 
99 ,18.7621 ,0.83171 ,3.76539 ,36.94597 
100 ,18.9382 ,0.83347 ,3.74485 ,36.74450 
101 ,19.1141 ,0.83525 ,3.72090 ,36.50946 
102 ,19.3064 ,0.83710 ,3.73117 ,36.61019 
103 ,19.4986 ,0.83904 ,3.69694 ,36.27441 
104 ,19.6906 ,0.84102 ,3.68668 ,36.17367 
105 ,19.8827 ,0.84292 ,3.68325 ,36.14010 
106 ,20.0907 ,0.84483 ,3.64219 ,35.73716 
107 ,20.2667 ,0.84672 ,3.64219 ,35.73716 
108 ,20.4425 ,0.84846 ,3.62166 ,35.53569 
109 ,20.6347 ,0.85037 ,3.59428 ,35.26706 
110 ,20.8271 ,0.85231 ,3.60112 ,35.33422 
111 ,21.0192 ,0.85417 ,3.56690 ,34.99843 
112 ,21.1947 ,0.85599 ,3.53952 ,34.72981 
113 ,21.3871 ,0.85782 ,3.53268 ,34.66265 
114 ,21.5951 ,0.85993 ,3.50872 ,34.42760 
115 ,21.7714 ,0.86178 ,3.50530 ,34.39402 
116 ,21.9476 ,0.86359 ,3.47792 ,34.12540 
117 ,22.1555 ,0.86557 ,3.45739 ,33.92393 
118 ,22.3317 ,0.86739 ,3.43344 ,33.68888 
119 ,22.5073 ,0.86916 ,3.44370 ,33.78961 
120 ,22.6992 ,0.87102 ,3.41633 ,33.52099 
121 ,22.8593 ,0.87278 ,3.38895 ,33.25236 
122 ,23.0357 ,0.87446 ,3.38210 ,33.18520 
123 ,23.2441 ,0.87649 ,3.37184 ,33.08447 
124 ,23.4360 ,0.87841 ,3.35473 ,32.91658 
125 ,23.6280 ,0.88028 ,3.35130 ,32.88300 
126 ,23.8363 ,0.88235 ,3.31366 ,32.51364 
127 ,24.0283 ,0.88437 ,3.28971 ,32.27859 
128 ,24.2043 ,0.88606 ,3.28971 ,32.27859 
129 ,24.3800 ,0.88787 ,3.28286 ,32.21143 
130 ,24.5400 ,0.88958 ,3.25548 ,31.94281 
131 ,24.7001 ,0.89116 ,3.23495 ,31.74134 
132 ,24.8764 ,0.89288 ,3.22126 ,31.60702 
133 ,25.0686 ,0.89472 ,3.20757 ,31.47271 
134 ,25.2608 ,0.89656 ,3.21442 ,31.53987 
135 ,25.4369 ,0.89847 ,3.17335 ,31.13693 
136 ,25.6127 ,0.90022 ,3.15966 ,31.00262 
137 ,25.8047 ,0.90204 ,3.15966 ,31.00262 
138 ,25.9971 ,0.90395 ,3.13571 ,30.76757 
139 ,26.1891 ,0.90596 ,3.10491 ,30.46536 
140 ,26.3813 ,0.90777 ,3.10833 ,30.49894 
141 ,26.5893 ,0.90989 ,3.08095 ,30.23031 
142 ,26.7814 ,0.91180 ,3.06726 ,30.09600 
143 ,26.9735 ,0.91373 ,3.02962 ,29.72664 
144 ,27.1654 ,0.91569 ,3.02620 ,29.69306 
145 ,27.3415 ,0.91744 ,3.02278 ,29.65948 
146 ,27.5176 ,0.91925 ,2.99882 ,29.42444 
147 ,27.6937 ,0.92097 ,2.97487 ,29.18939 
148 ,27.8697 ,0.92275 ,2.95091 ,28.95434 
149 ,28.0617 ,0.92462 ,2.95776 ,29.02150 
150 ,28.2380 ,0.92642 ,2.95776 ,29.02150 
151 ,28.4140 ,0.92817 ,2.92011 ,28.65213 
152 ,28.5901 ,0.92996 ,2.89273 ,28.38351 
153 ,28.7822 ,0.93183 ,2.89273 ,28.38351 
154 ,28.9743 ,0.93374 ,2.86878 ,28.14846 
155 ,29.1663 ,0.93559 ,2.84140 ,27.87983 
156 ,29.3740 ,0.93773 ,2.82429 ,27.71194 
157 ,29.5504 ,0.93956 ,2.81745 ,27.64479 
158 ,29.7105 ,0.94125 ,2.79349 ,27.40974 
159 ,29.9026 ,0.94299 ,2.79691 ,27.44332 
160 ,30.0782 ,0.94479 ,2.79007 ,27.37616 
161 ,30.2708 ,0.94670 ,2.75927 ,27.07395 
162 ,30.4789 ,0.94875 ,2.75243 ,27.00680 
163 ,30.6709 ,0.95079 ,2.72163 ,26.70459 
164 ,30.8309 ,0.95244 ,2.70452 ,26.53670 
165 ,31.0069 ,0.95413 ,2.69083 ,26.40239 
166 ,31.1827 ,0.95588 ,2.68740 ,26.36881 
167 ,31.3751 ,0.95770 ,2.67029 ,26.20092 
168 ,31.5673 ,0.95963 ,2.66003 ,26.10018 
169 ,31.7433 ,0.96145 ,2.63607 ,25.86514 
170 ,31.9354 ,0.96330 ,2.63607 ,25.86514 
171 ,32.1115 ,0.96511 ,2.61554 ,25.66367 
172 ,32.2712 ,0.96687 ,2.58132 ,25.32788 
173 ,32.4477 ,0.96858 ,2.57447 ,25.26073 
174 ,32.6397 ,0.97043 ,2.56421 ,25.15999 
175 ,32.8156 ,0.97218 ,2.55736 ,25.09283 
176 ,33.0078 ,0.97408 ,2.52656 ,24.79063 
177 ,33.1840 ,0.97588 ,2.51287 ,24.65632 
178 ,33.3600 ,0.97773 ,2.50261 ,24.55558 
179 ,33.5358 ,0.97932 ,2.50603 ,24.58916 
180 ,33.7122 ,0.98115 ,2.47523 ,24.28696 
181 ,33.9041 ,0.98299 ,2.46839 ,24.21980 
182 ,34.0804 ,0.98486 ,2.44443 ,23.98475 
183 ,34.2724 ,0.98666 ,2.42732 ,23.81686 
184 ,34.4484 ,0.98853 ,2.41021 ,23.64897 
185 ,34.6242 ,0.99029 ,2.38625 ,23.41392 
186 ,34.8167 ,0.99214 ,2.38968 ,23.44750 
187 ,35.0086 ,0.99416 ,2.36230 ,23.17887 
188 ,35.2008 ,0.99604 ,2.36230 ,23.17887 
189 ,35.3927 ,0.99786 ,2.34177 ,22.97740 
190 ,35.5848 ,0.99978 ,2.31781 ,22.74235 
191 ,35.7606 ,1.00162 ,2.30412 ,22.60804 
192 ,35.9371 ,1.00340 ,2.30412 ,22.60804 
193 ,36.1291 ,1.00533 ,2.28017 ,22.37299 
194 ,36.3051 ,1.00710 ,2.25279 ,22.10437 
195 ,36.4969 ,1.00901 ,2.24252 ,22.00363 
196 ,36.6734 ,1.01073 ,2.23910 ,21.97005 
197 ,36.8814 ,1.01277 ,2.21857 ,21.76858 
198 ,37.0574 ,1.01456 ,2.20830 ,21.66785 
199 ,37.2495 ,1.01644 ,2.19461 ,21.53353 
200 ,37.4417 ,1.01844 ,2.16723 ,21.26491 
201 ,37.6332 ,1.02038 ,2.14670 ,21.06344 
202 ,37.8098 ,1.02208 ,2.12617 ,20.86197 
203 ,38.0019 ,1.02398 ,2.11932 ,20.79481 
204 ,38.1780 ,1.02574 ,2.11248 ,20.72766 
205 ,38.3699 ,1.02766 ,2.10906 ,20.69408 
206 ,38.5461 ,1.02944 ,2.07484 ,20.35829 
207 ,38.7383 ,1.03141 ,2.07484 ,20.35829 
208 ,38.9305 ,1.03332 ,2.05773 ,20.19040 
209 ,39.1220 ,1.03526 ,2.02693 ,19.88820 
210 ,39.2984 ,1.03696 ,2.02350 ,19.85462 
211 ,39.4743 ,1.03874 ,2.01666 ,19.78746 
212 ,39.6661 ,1.04065 ,1.98586 ,19.48526 
213 ,39.8426 ,1.04247 ,1.97217 ,19.35094 
214 ,40.0345 ,1.04431 ,1.98244 ,19.45168 
215 ,40.1948 ,1.04606 ,1.95848 ,19.21663 
216 ,40.3708 ,1.04769 ,1.95164 ,19.14948 
217 ,40.5630 ,1.04962 ,1.91742 ,18.81369 
218 ,40.7390 ,1.05136 ,1.90715 ,18.71296 
219 ,40.9471 ,1.05338 ,1.90373 ,18.67938 
220 ,41.1392 ,1.05545 ,1.87635 ,18.41075 
221 ,41.3633 ,1.05747 ,1.85582 ,18.20928 
222 ,41.5548 ,1.05951 ,1.85240 ,18.17570 
223 ,41.7315 ,1.06130 ,1.84555 ,18.10855 
224 ,41.9075 ,1.06307 ,1.83186 ,17.97423 
225 ,42.0835 ,1.06480 ,1.80449 ,17.70561 
226 ,42.2756 ,1.06668 ,1.80106 ,17.67203 
227 ,42.4517 ,1.06852 ,1.79422 ,17.60487 
228 ,42.6595 ,1.07056 ,1.76342 ,17.30267 
229 ,42.8519 ,1.07247 ,1.76342 ,17.30267 
230 ,43.0119 ,1.07422 ,1.74289 ,17.10120 
231 ,43.2040 ,1.07589 ,1.73604 ,17.03404 
232 ,43.3802 ,1.07779 ,1.70182 ,16.69826 
233 ,43.5882 ,1.07982 ,1.69155 ,16.59752 
234 ,43.7802 ,1.08181 ,1.67102 ,16.39605 
235 ,43.9564 ,1.08353 ,1.66760 ,16.36248 
236 ,44.1643 ,1.08559 ,1.64364 ,16.12743 
237 ,44.3566 ,1.08757 ,1.63338 ,16.02669 
238 ,44.5326 ,1.08935 ,1.63338 ,16.02669 
239 ,44.7407 ,1.09135 ,1.60258 ,15.72449 
240 ,44.9166 ,1.09320 ,1.58889 ,15.59018 
241 ,45.0924 ,1.09490 ,1.56836 ,15.38871 
242 ,45.2689 ,1.09665 ,1.57520 ,15.45586 
243 ,45.4606 ,1.09857 ,1.54440 ,15.15366 
244 ,45.6370 ,1.10032 ,1.53071 ,15.01934 
245 ,45.8293 ,1.10231 ,1.53756 ,15.08650 
246 ,46.0211 ,1.10420 ,1.51360 ,14.85145 
247 ,46.1970 ,1.10592 ,1.49649 ,14.68356 
248 ,46.3894 ,1.10786 ,1.49307 ,14.64998 
249 ,46.5809 ,1.10978 ,1.45542 ,14.28062 
250 ,46.7735 ,1.11161 ,1.45542 ,14.28062 
251 ,46.9815 ,1.11370 ,1.43831 ,14.11273 
252 ,47.1574 ,1.11558 ,1.42120 ,13.94484 
253 ,47.3496 ,1.11748 ,1.42462 ,13.97842 
254 ,47.5419 ,1.11937 ,1.38356 ,13.57548 
255 ,47.7338 ,1.12122 ,1.40067 ,13.74337 
256 ,47.9100 ,1.12308 ,1.37329 ,13.47474 
257 ,48.1019 ,1.12494 ,1.35276 ,13.27327 
258 ,48.2777 ,1.12672 ,1.34591 ,13.20612 
259 ,48.4541 ,1.12854 ,1.33565 ,13.10538 
260 ,48.6304 ,1.13031 ,1.32196 ,12.97107 
261 ,48.8222 ,1.13216 ,1.30143 ,12.76960 
262 ,48.9984 ,1.13399 ,1.28432 ,12.60171 
263 ,49.1905 ,1.13582 ,1.29800 ,12.73602 
264 ,49.3663 ,1.13762 ,1.27063 ,12.46739 
265 ,49.5585 ,1.13946 ,1.25694 ,12.33308 
266 ,49.7507 ,1.14144 ,1.24325 ,12.19877 
267 ,49.9588 ,1.14344 ,1.21929 ,11.96372 
268 ,50.1509 ,1.14546 ,1.21929 ,11.96372 
269 ,50.3272 ,1.14730 ,1.21587 ,11.93014 
270 ,50.5031 ,1.14898 ,1.18507 ,11.62794 
271 ,50.7111 ,1.15103 ,1.19534 ,11.72867 
272 ,50.9193 ,1.15313 ,1.15770 ,11.35931 
273 ,51.1113 ,1.15500 ,1.16112 ,11.39289 
274 ,51.3033 ,1.15695 ,1.13716 ,11.15784 
275 ,51.5111 ,1.15900 ,1.14401 ,11.22500 
276 ,51.7195 ,1.16102 ,1.09267 ,10.72132 
277 ,51.9116 ,1.16304 ,1.10294 ,10.82206 
278 ,52.1035 ,1.16489 ,1.08241 ,10.62059 
279 ,52.2636 ,1.16670 ,1.05503 ,10.35196 
280 ,52.4398 ,1.16835 ,1.05161 ,10.31838 
281 ,52.6316 ,1.17018 ,1.05161 ,10.31838 
282 ,52.8239 ,1.17212 ,1.02081 ,10.01618 
283 ,53.0319 ,1.17419 ,1.03450 ,10.15049 
284 ,53.2081 ,1.17600 ,1.01396 ,9.94902 
285 ,53.3840 ,1.17776 ,1.00370 ,9.84829 
286 ,53.5602 ,1.17956 ,0.98317 ,9.64682 
287 ,53.7519 ,1.18144 ,0.97632 ,9.57966 
288 ,53.9286 ,1.18323 ,0.96605 ,9.47892 
289 ,54.1204 ,1.18510 ,0.94210 ,9.24388 
290 ,54.2963 ,1.18689 ,0.91814 ,9.00883 
291 ,54.4887 ,1.18886 ,0.91472 ,8.97525 
292 ,54.6804 ,1.19071 ,0.90788 ,8.90809 
293 ,54.8728 ,1.19270 ,0.88734 ,8.70662 
294 ,55.0646 ,1.19458 ,0.88392 ,8.67305 
295 ,55.2410 ,1.19635 ,0.87366 ,8.57231 
296 ,55.4327 ,1.19824 ,0.87023 ,8.53873 
297 ,55.6251 ,1.20012 ,0.85654 ,8.40442 
298 ,55.8007 ,1.20194 ,0.84970 ,8.33726 
299 ,55.9773 ,1.20377 ,0.81206 ,7.96790 
300 ,56.1692 ,1.20566 ,0.81206 ,7.96790 
301 ,56.3614 ,1.20756 ,0.78810 ,7.73285 
302 ,56.5375 ,1.20933 ,0.76757 ,7.53138 
303 ,56.7135 ,1.21113 ,0.78468 ,7.69927 
304 ,56.8892 ,1.21283 ,0.76415 ,7.49780 
305 ,57.0656 ,1.21464 ,0.75730 ,7.43065 
306 ,57.2577 ,1.21648 ,0.72650 ,7.12844 
307 ,57.4497 ,1.21843 ,0.74019 ,7.26276 
308 ,57.6260 ,1.22018 ,0.73677 ,7.22918 
309 ,57.8339 ,1.22222 ,0.70939 ,6.96055 
310 ,58.0099 ,1.22401 ,0.69228 ,6.79266 
311 ,58.1862 ,1.22579 ,0.67517 ,6.62477 
312 ,58.3782 ,1.22774 ,0.68201 ,6.69193 
313 ,58.5704 ,1.22961 ,0.65806 ,6.45688 
314 ,58.7299 ,1.23137 ,0.65806 ,6.45688 
315 ,58.9064 ,1.23296 ,0.64779 ,6.35614 
316 ,59.0985 ,1.23484 ,0.63068 ,6.18825 
317 ,59.2745 ,1.23668 ,0.60330 ,5.91962 
318 ,59.4667 ,1.23867 ,0.59646 ,5.85247 
319 ,59.6422 ,1.24035 ,0.58962 ,5.78531 
320 ,59.8190 ,1.24214 ,0.57593 ,5.65100 
321 ,60.0110 ,1.24404 ,0.56224 ,5.51668 
322 ,60.2030 ,1.24595 ,0.56566 ,5.55026 
323 ,60.3950 ,1.24784 ,0.52802 ,5.18090 
324 ,60.5871 ,1.24971 ,0.54855 ,5.38237 
325 ,60.7792 ,1.25175 ,0.51433 ,5.04659 
326 ,60.9553 ,1.25348 ,0.50064 ,4.91228 
327 ,61.1470 ,1.25538 ,0.50064 ,4.91228 
328 ,61.3395 ,1.25723 ,0.49380 ,4.84512 
329 ,61.5476 ,1.25933 ,0.48011 ,4.71081 
330 ,61.7233 ,1.26119 ,0.46642 ,4.57649 
331 ,61.8996 ,1.26291 ,0.44588 ,4.37502 
332 ,62.0917 ,1.26484 ,0.43904 ,4.30787 
333 ,62.2673 ,1.26662 ,0.43220 ,4.24071 
334 ,62.4439 ,1.26835 ,0.42535 ,4.17355 
335 ,62.6519 ,1.27038 ,0.40482 ,3.97208 
336 ,62.8119 ,1.27215 ,0.39797 ,3.90493 
337 ,62.9881 ,1.27376 ,0.38771 ,3.80419 
338 ,63.1638 ,1.27557 ,0.38086 ,3.73703 
339 ,63.3398 ,1.27730 ,0.37060 ,3.63630 
340 ,63.4997 ,1.27905 ,0.35349 ,3.46841 
341 ,63.6599 ,1.28061 ,0.34322 ,3.36767 
342 ,63.8201 ,1.28223 ,0.34322 ,3.36767 
343 ,63.9801 ,1.28383 ,0.32269 ,3.16620 
344 ,64.1401 ,1.28542 ,0.31926 ,3.13263 
345 ,64.3323 ,1.28711 ,0.31584 ,3.09905 
346 ,64.5083 ,1.28899 ,0.28162 ,2.76326 
347 ,64.6684 ,1.29072 ,0.28847 ,2.83042 
348 ,64.8285 ,1.29231 ,0.28504 ,2.79684 
349 ,65.0044 ,1.29392 ,0.26793 ,2.62895 
350 ,65.1806 ,1.29569 ,0.26451 ,2.59537 
351 ,65.3567 ,1.29749 ,0.24740 ,2.42748 
352 ,65.5327 ,1.29919 ,0.23371 ,2.29317 
353 ,65.7087 ,1.30097 ,0.22687 ,2.22601 
354 ,65.8688 ,1.30271 ,0.22344 ,2.19243 
355 ,66.0290 ,1.30431 ,0.19949 ,1.95738 
356 ,66.2051 ,1.30597 ,0.19264 ,1.89023 
357 ,66.3811 ,1.30769 ,0.19949 ,1.95738 
358 ,66.5572 ,1.30948 ,0.17553 ,1.72234 
359 ,66.7332 ,1.31120 ,0.15158 ,1.48729 
360 ,66.9094 ,1.31298 ,0.14473 ,1.42013 
361 ,67.0854 ,1.31477 ,0.15158 ,1.48729 
362 ,67.2614 ,1.31651 ,0.14131 ,1.38655 
363 ,67.4376 ,1.31826 ,0.12762 ,1.25224 
364 ,67.6295 ,1.32024 ,0.11393 ,1.11793 
365 ,67.8056 ,1.32190 ,0.10367 ,1.01719 
366 ,67.9821 ,1.32369 ,0.10367 ,1.01719 
367 ,68.1579 ,1.32552 ,0.08314 ,0.81572 
368 ,68.3663 ,1.32738 ,0.08998 ,0.88288 
369 ,68.5582 ,1.32938 ,0.06260 ,0.61425 
370 ,68.7343 ,1.33120 ,0.04549 ,0.44636 
371 ,68.9105 ,1.33304 ,0.03180 ,0.31205 
372 ,69.1026 ,1.33486 ,0.04207 ,0.41278 
373 ,69.3107 ,1.33688 ,0.01811 ,0.17773 
374 ,69.4867 ,1.33878 ,0.00785 ,0.07700 
375 ,69.6788 ,1.34057 ,0.00100 ,0.00984 
376 ,69.8708 ,1.34255 ,-0.02637 ,-0.25878 
377 ,70.0629 ,1.34449 ,-0.01953 ,-0.19163 
378 ,70.2549 ,1.34634 ,-0.01953 ,-0.19163 
379 ,70.4471 ,1.34824 ,-0.06060 ,-0.59457 
380 ,70.6393 ,1.35031 ,-0.05375 ,-0.52741 
381 ,70.8310 ,1.35212 ,-0.06744 ,-0.66172 
382 ,71.0072 ,1.35398 ,-0.07771 ,-0.76246 
383 ,71.1835 ,1.35570 ,-0.08455 ,-0.82961 
384 ,71.3754 ,1.35766 ,-0.10166 ,-0.99751 
385 ,71.5831 ,1.35964 ,-0.10508 ,-1.03108 
386 ,71.7592 ,1.36146 ,-0.10166 ,-0.99751 
387 ,71.9355 ,1.36325 ,-0.10508 ,-1.03108 
388 ,72.1116 ,1.36497 ,-0.14273 ,-1.40045 
389 ,72.2878 ,1.36678 ,-0.15642 ,-1.53476 
390 ,72.4799 ,1.36863 ,-0.13931 ,-1.36687 
391 ,72.6720 ,1.37063 ,-0.16326 ,-1.60191 
392 ,72.8476 ,1.37238 ,-0.17695 ,-1.73623 
393 ,73.0238 ,1.37408 ,-0.19064 ,-1.87054 
394 ,73.1999 ,1.37589 ,-0.18379 ,-1.80338 
395 ,73.3923 ,1.37778 ,-0.21117 ,-2.07201 
396 ,73.5840 ,1.37963 ,-0.20775 ,-2.03843 
397 ,73.7763 ,1.38156 ,-0.22144 ,-2.17275 
398 ,73.9522 ,1.38338 ,-0.23170 ,-2.27348 
399 ,74.1448 ,1.38523 ,-0.23855 ,-2.34064 
400 ,74.3524 ,1.38732 ,-0.25908 ,-2.54211 
401 ,74.5288 ,1.38917 ,-0.26250 ,-2.57569 
402 ,74.7366 ,1.39115 ,-0.26935 ,-2.64284 
403 ,74.9290 ,1.39307 ,-0.29330 ,-2.87789 
404 ,75.1046 ,1.39490 ,-0.29330 ,-2.87789 
405 ,75.2812 ,1.39664 ,-0.28988 ,-2.84431 
406 ,75.4891 ,1.39866 ,-0.32410 ,-3.18010 
407 ,75.6651 ,1.40049 ,-0.32410 ,-3.18010 
408 ,75.8413 ,1.40227 ,-0.31726 ,-3.11294 
409 ,76.0334 ,1.40417 ,-0.34464 ,-3.38156 
410 ,76.2092 ,1.40599 ,-0.34806 ,-3.41514 
411 ,76.4336 ,1.40809 ,-0.34464 ,-3.38156 
412 ,76.6257 ,1.41010 ,-0.35832 ,-3.51588 
413 ,76.8177 ,1.41192 ,-0.37544 ,-3.68377 
414 ,77.0095 ,1.41389 ,-0.39255 ,-3.85166 
415 ,77.1857 ,1.41568 ,-0.40623 ,-3.98597 
416 ,77.3780 ,1.41763 ,-0.38912 ,-3.81808 
417 ,77.5700 ,1.41960 ,-0.41650 ,-4.08671 
418 ,77.7459 ,1.42128 ,-0.42335 ,-4.15387 
419 ,77.9703 ,1.42339 ,-0.42335 ,-4.15387 
420 ,78.1623 ,1.42545 ,-0.44730 ,-4.38891 
421 ,78.3383 ,1.42724 ,-0.42677 ,-4.18744 
422 ,78.5144 ,1.42899 ,-0.44388 ,-4.35534 
423 ,78.7064 ,1.43087 ,-0.47126 ,-4.62396 
424 ,78.8825 ,1.43265 ,-0.47468 ,-4.65754 
425 ,79.0587 ,1.43445 ,-0.47126 ,-4.62396 
426 ,79.2667 ,1.43649 ,-0.50890 ,-4.99332 
427 ,79.4587 ,1.43840 ,-0.49863 ,-4.89259 
428 ,79.6508 ,1.44036 ,-0.51232 ,-5.02690 
429 ,79.8431 ,1.44216 ,-0.52259 ,-5.12764 
430 ,80.0348 ,1.44419 ,-0.52259 ,-5.12764 
431 ,80.2111 ,1.44592 ,-0.53628 ,-5.26195 
432 ,80.3870 ,1.44775 ,-0.55339 ,-5.42984 
433 ,80.5633 ,1.44955 ,-0.54997 ,-5.39626 
434 ,80.7554 ,1.45132 ,-0.57050 ,-5.59773 
435 ,80.9474 ,1.45323 ,-0.57734 ,-5.66489 
436 ,81.1236 ,1.45506 ,-0.60130 ,-5.89994 
437 ,81.3154 ,1.45690 ,-0.58077 ,-5.69847 
438 ,81.4913 ,1.45874 ,-0.59788 ,-5.86636 
439 ,81.6676 ,1.46051 ,-0.59445 ,-5.83278 
440 ,81.8596 ,1.46245 ,-0.61499 ,-6.03425 
441 ,82.0517 ,1.46433 ,-0.63210 ,-6.20214 
442 ,82.2278 ,1.46610 ,-0.63894 ,-6.26930 
443 ,82.4042 ,1.46783 ,-0.65263 ,-6.40361 
444 ,82.5957 ,1.46970 ,-0.64921 ,-6.37003 
445 ,82.7722 ,1.47158 ,-0.63894 ,-6.26930 
446 ,82.9638 ,1.47349 ,-0.67659 ,-6.63866 
447 ,83.1397 ,1.47531 ,-0.66290 ,-6.50435 
448 ,83.2998 ,1.47697 ,-0.66974 ,-6.57150 
449 ,83.4923 ,1.47865 ,-0.68685 ,-6.73940 
450 ,83.7005 ,1.48083 ,-0.71765 ,-7.04160 
451 ,83.8765 ,1.48258 ,-0.69712 ,-6.84013 
452 ,84.0527 ,1.48436 ,-0.70396 ,-6.90729 
453 ,84.2288 ,1.48614 ,-0.72107 ,-7.07518 
454 ,84.4202 ,1.48799 ,-0.73134 ,-7.17591 
455 ,84.5965 ,1.48978 ,-0.72107 ,-7.07518 
456 ,84.7727 ,1.49155 ,-0.73134 ,-7.17591 
457 ,84.9650 ,1.49347 ,-0.76898 ,-7.54527 
458 ,85.1569 ,1.49539 ,-0.77241 ,-7.57885 
459 ,85.3331 ,1.49720 ,-0.77583 ,-7.61243 
460 ,85.5409 ,1.49910 ,-0.79294 ,-7.78032 
461 ,85.7174 ,1.50101 ,-0.77925 ,-7.64601 
462 ,85.9094 ,1.50293 ,-0.78267 ,-7.67959 
463 ,86.1015 ,1.50485 ,-0.79636 ,-7.81390 
