Data stamp = , 21-04-2022 08:24:33 905

Calibration Values: 
Slope = , 26.54 , g/V 
Offset Voltage at no contact = , -0.501760 , V 

No , Time , Stage Position ,   Mass , Force 
   ,  (s) ,      (mm)      ,   (g)  , (mN)  

1 ,0.0000 ,0.64934 ,5.28825 ,51.88832 
2 ,0.2104 ,0.64941 ,5.28483 ,51.85474 
3 ,0.7070 ,0.65086 ,5.27456 ,51.75401 
4 ,0.9147 ,0.65323 ,5.27456 ,51.75401 
5 ,1.0912 ,0.65503 ,5.27798 ,51.78758 
6 ,1.2672 ,0.65677 ,5.28483 ,51.85474 
7 ,1.4751 ,0.65882 ,5.28483 ,51.85474 
8 ,1.6672 ,0.66071 ,5.25403 ,51.55254 
9 ,1.8755 ,0.66279 ,5.26772 ,51.68685 
10 ,2.0515 ,0.66467 ,5.23692 ,51.38464 
11 ,2.2596 ,0.66666 ,5.21296 ,51.14960 
12 ,2.4515 ,0.66855 ,5.18901 ,50.91455 
13 ,2.6597 ,0.67069 ,5.17190 ,50.74666 
14 ,2.8678 ,0.67273 ,5.12741 ,50.31014 
15 ,3.0439 ,0.67459 ,5.12741 ,50.31014 
16 ,3.2198 ,0.67632 ,5.10003 ,50.04151 
17 ,3.4119 ,0.67826 ,5.10688 ,50.10867 
18 ,3.6197 ,0.68023 ,5.07608 ,49.80646 
19 ,3.7962 ,0.68206 ,5.07265 ,49.77289 
20 ,3.9723 ,0.68381 ,5.04870 ,49.53784 
21 ,4.1482 ,0.68556 ,5.01448 ,49.20205 
22 ,4.3245 ,0.68738 ,4.99737 ,49.03416 
23 ,4.5166 ,0.68929 ,4.99052 ,48.96701 
24 ,4.7083 ,0.69116 ,4.97683 ,48.83269 
25 ,4.8848 ,0.69298 ,4.95630 ,48.63122 
26 ,5.0930 ,0.69501 ,4.94261 ,48.49691 
27 ,5.2688 ,0.69681 ,4.92892 ,48.36260 
28 ,5.4449 ,0.69853 ,4.88444 ,47.92608 
29 ,5.6210 ,0.70027 ,4.87417 ,47.82534 
30 ,5.7967 ,0.70206 ,4.87417 ,47.82534 
31 ,5.9888 ,0.70391 ,4.82968 ,47.38883 
32 ,6.1813 ,0.70597 ,4.81599 ,47.25451 
33 ,6.3734 ,0.70782 ,4.80573 ,47.15378 
34 ,6.5651 ,0.70968 ,4.78519 ,46.95231 
35 ,6.7414 ,0.71151 ,4.75782 ,46.68368 
36 ,6.9174 ,0.71324 ,4.75097 ,46.61653 
37 ,7.0933 ,0.71503 ,4.75782 ,46.68368 
38 ,7.2696 ,0.71675 ,4.72359 ,46.34790 
39 ,7.4457 ,0.71856 ,4.70648 ,46.18001 
40 ,7.6058 ,0.72028 ,4.67568 ,45.87780 
41 ,7.7820 ,0.72194 ,4.67226 ,45.84422 
42 ,7.9576 ,0.72375 ,4.66199 ,45.74349 
43 ,8.1340 ,0.72545 ,4.64146 ,45.54202 
44 ,8.3101 ,0.72722 ,4.63462 ,45.47486 
45 ,8.5021 ,0.72905 ,4.59355 ,45.07192 
46 ,8.6944 ,0.73099 ,4.61066 ,45.23981 
47 ,8.8704 ,0.73280 ,4.57644 ,44.90403 
48 ,9.0460 ,0.73461 ,4.55249 ,44.66898 
49 ,9.2225 ,0.73634 ,4.54222 ,44.56825 
50 ,9.4305 ,0.73837 ,4.51826 ,44.33320 
51 ,9.6061 ,0.74012 ,4.51484 ,44.29962 
52 ,9.7825 ,0.74191 ,4.48062 ,43.96384 
53 ,9.9747 ,0.74381 ,4.47378 ,43.89668 
54 ,10.1507 ,0.74564 ,4.44982 ,43.66163 
55 ,10.3269 ,0.74733 ,4.43613 ,43.52732 
56 ,10.5189 ,0.74921 ,4.42586 ,43.42659 
57 ,10.7110 ,0.75125 ,4.41218 ,43.29227 
58 ,10.8871 ,0.75303 ,4.37111 ,42.88933 
59 ,11.0632 ,0.75475 ,4.36427 ,42.82218 
60 ,11.2551 ,0.75666 ,4.36427 ,42.82218 
61 ,11.4473 ,0.75850 ,4.33689 ,42.55355 
62 ,11.6394 ,0.76047 ,4.31293 ,42.31850 
63 ,11.8154 ,0.76224 ,4.29924 ,42.18419 
64 ,12.0072 ,0.76411 ,4.29240 ,42.11703 
65 ,12.1836 ,0.76589 ,4.26502 ,41.84841 
66 ,12.3597 ,0.76771 ,4.24449 ,41.64694 
67 ,12.5676 ,0.76969 ,4.23765 ,41.57978 
68 ,12.7598 ,0.77160 ,4.21369 ,41.34473 
69 ,12.9361 ,0.77344 ,4.18974 ,41.10968 
70 ,13.1437 ,0.77548 ,4.17605 ,40.97537 
71 ,13.3196 ,0.77727 ,4.15551 ,40.77390 
72 ,13.4964 ,0.77903 ,4.16236 ,40.84106 
73 ,13.6880 ,0.78090 ,4.12129 ,40.43812 
74 ,13.8644 ,0.78272 ,4.11103 ,40.33738 
75 ,14.0725 ,0.78465 ,4.10418 ,40.27023 
76 ,14.2485 ,0.78657 ,4.08023 ,40.03518 
77 ,14.4241 ,0.78829 ,4.06654 ,39.90087 
78 ,14.6007 ,0.79007 ,4.03916 ,39.63224 
79 ,14.8086 ,0.79214 ,4.02889 ,39.53150 
80 ,15.0006 ,0.79400 ,4.01178 ,39.36361 
81 ,15.1769 ,0.79580 ,4.00152 ,39.26288 
82 ,15.3688 ,0.79778 ,3.98783 ,39.12856 
83 ,15.5448 ,0.79950 ,3.97756 ,39.02783 
84 ,15.7371 ,0.80142 ,3.93650 ,38.62489 
85 ,15.9291 ,0.80338 ,3.92281 ,38.49058 
86 ,16.1051 ,0.80510 ,3.91596 ,38.42342 
87 ,16.2814 ,0.80687 ,3.88858 ,38.15479 
88 ,16.4574 ,0.80862 ,3.87490 ,38.02048 
89 ,16.6332 ,0.81037 ,3.86463 ,37.91975 
90 ,16.8096 ,0.81216 ,3.85779 ,37.85259 
91 ,17.0016 ,0.81410 ,3.82014 ,37.48323 
92 ,17.1775 ,0.81579 ,3.82014 ,37.48323 
93 ,17.3698 ,0.81766 ,3.81330 ,37.41607 
94 ,17.5617 ,0.81964 ,3.77565 ,37.04671 
95 ,17.7538 ,0.82158 ,3.76881 ,36.97955 
96 ,17.9458 ,0.82353 ,3.74485 ,36.74450 
97 ,18.1381 ,0.82550 ,3.72090 ,36.50946 
98 ,18.3303 ,0.82738 ,3.72432 ,36.54303 
99 ,18.5543 ,0.82950 ,3.70379 ,36.34157 
100 ,18.7461 ,0.83145 ,3.66272 ,35.93863 
101 ,18.9225 ,0.83327 ,3.65246 ,35.83789 
102 ,19.1145 ,0.83512 ,3.64903 ,35.80431 
103 ,19.2906 ,0.83699 ,3.64219 ,35.73716 
104 ,19.4668 ,0.83872 ,3.61139 ,35.43495 
105 ,19.6749 ,0.84075 ,3.59086 ,35.23348 
106 ,19.8667 ,0.84266 ,3.57375 ,35.06559 
107 ,20.0429 ,0.84451 ,3.55663 ,34.89770 
108 ,20.2510 ,0.84649 ,3.53952 ,34.72981 
109 ,20.4271 ,0.84833 ,3.51899 ,34.52834 
110 ,20.6350 ,0.85038 ,3.51215 ,34.46118 
111 ,20.8110 ,0.85216 ,3.49504 ,34.29329 
112 ,21.0031 ,0.85405 ,3.46766 ,34.02466 
113 ,21.1793 ,0.85580 ,3.44713 ,33.82319 
114 ,21.3712 ,0.85767 ,3.45055 ,33.85677 
115 ,21.5636 ,0.85971 ,3.41975 ,33.55457 
116 ,21.7554 ,0.86150 ,3.40606 ,33.42025 
117 ,21.9312 ,0.86335 ,3.40948 ,33.45383 
118 ,22.1236 ,0.86516 ,3.38553 ,33.21878 
119 ,22.3159 ,0.86722 ,3.34788 ,32.84942 
120 ,22.5077 ,0.86905 ,3.32735 ,32.64795 
121 ,22.6840 ,0.87089 ,3.32393 ,32.61437 
122 ,22.8601 ,0.87262 ,3.29997 ,32.37933 
123 ,23.0362 ,0.87439 ,3.29997 ,32.37933 
124 ,23.2600 ,0.87649 ,3.27259 ,32.11070 
125 ,23.4361 ,0.87840 ,3.24864 ,31.87565 
126 ,23.6124 ,0.88020 ,3.24864 ,31.87565 
127 ,23.7880 ,0.88195 ,3.22811 ,31.67418 
128 ,23.9659 ,0.88370 ,3.20073 ,31.40555 
129 ,24.1560 ,0.88564 ,3.20073 ,31.40555 
130 ,24.3484 ,0.88748 ,3.18362 ,31.23766 
131 ,24.5728 ,0.88972 ,3.15966 ,31.00262 
132 ,24.7648 ,0.89165 ,3.13913 ,30.80115 
133 ,24.9409 ,0.89344 ,3.12202 ,30.63325 
134 ,25.1006 ,0.89516 ,3.10833 ,30.49894 
135 ,25.2932 ,0.89691 ,3.10833 ,30.49894 
136 ,25.5009 ,0.89899 ,3.05358 ,29.96169 
137 ,25.7092 ,0.90108 ,3.06042 ,30.02884 
138 ,25.9013 ,0.90294 ,3.04331 ,29.86095 
139 ,26.0930 ,0.90505 ,3.03304 ,29.76022 
140 ,26.2690 ,0.90672 ,3.02278 ,29.65948 
141 ,26.4452 ,0.90848 ,3.00567 ,29.49159 
142 ,26.6373 ,0.91042 ,2.96460 ,29.08865 
143 ,26.8133 ,0.91212 ,2.97829 ,29.22297 
144 ,27.0058 ,0.91398 ,2.95091 ,28.95434 
145 ,27.1820 ,0.91580 ,2.92011 ,28.65213 
146 ,27.3740 ,0.91775 ,2.90985 ,28.55140 
147 ,27.5821 ,0.91973 ,2.88589 ,28.31635 
148 ,27.7575 ,0.92167 ,2.87905 ,28.24919 
149 ,27.9339 ,0.92338 ,2.86536 ,28.11488 
150 ,28.1259 ,0.92529 ,2.87220 ,28.18204 
151 ,28.3018 ,0.92703 ,2.83456 ,27.81268 
152 ,28.4939 ,0.92887 ,2.82429 ,27.71194 
153 ,28.6700 ,0.93075 ,2.81402 ,27.61121 
154 ,28.8461 ,0.93247 ,2.80034 ,27.47689 
155 ,29.0221 ,0.93424 ,2.79349 ,27.40974 
156 ,29.1822 ,0.93594 ,2.75243 ,27.00680 
157 ,29.3582 ,0.93757 ,2.73874 ,26.87248 
158 ,29.5343 ,0.93935 ,2.71478 ,26.63744 
159 ,29.7104 ,0.94113 ,2.71478 ,26.63744 
160 ,29.8865 ,0.94282 ,2.72847 ,26.77175 
161 ,30.0625 ,0.94463 ,2.68740 ,26.36881 
162 ,30.2226 ,0.94633 ,2.67029 ,26.20092 
163 ,30.3987 ,0.94798 ,2.65318 ,26.03303 
164 ,30.5746 ,0.94974 ,2.64292 ,25.93229 
165 ,30.7507 ,0.95152 ,2.64292 ,25.93229 
166 ,30.9269 ,0.95326 ,2.62923 ,25.79798 
167 ,31.1029 ,0.95505 ,2.61554 ,25.66367 
168 ,31.2789 ,0.95681 ,2.58816 ,25.39504 
169 ,31.4551 ,0.95855 ,2.56421 ,25.15999 
170 ,31.6311 ,0.96031 ,2.56421 ,25.15999 
171 ,31.8072 ,0.96205 ,2.55736 ,25.09283 
172 ,31.9833 ,0.96381 ,2.53341 ,24.85779 
173 ,32.1592 ,0.96560 ,2.52656 ,24.79063 
174 ,32.3354 ,0.96731 ,2.49576 ,24.48842 
175 ,32.5115 ,0.96911 ,2.49576 ,24.48842 
176 ,32.6877 ,0.97089 ,2.48892 ,24.42127 
177 ,32.8798 ,0.97279 ,2.44785 ,24.01833 
178 ,33.0562 ,0.97454 ,2.43759 ,23.91759 
179 ,33.2481 ,0.97642 ,2.44101 ,23.95117 
180 ,33.4243 ,0.97824 ,2.43759 ,23.91759 
181 ,33.6323 ,0.98028 ,2.40679 ,23.61539 
182 ,33.8084 ,0.98209 ,2.39652 ,23.51465 
183 ,34.0006 ,0.98403 ,2.36230 ,23.17887 
184 ,34.1766 ,0.98577 ,2.35203 ,23.07814 
185 ,34.3685 ,0.98767 ,2.35203 ,23.07814 
186 ,34.5607 ,0.98951 ,2.32123 ,22.77593 
187 ,34.7523 ,0.99146 ,2.30070 ,22.57446 
188 ,34.9450 ,0.99335 ,2.30412 ,22.60804 
189 ,35.1369 ,0.99529 ,2.26306 ,22.20510 
190 ,35.3129 ,0.99711 ,2.25279 ,22.10437 
191 ,35.4890 ,0.99888 ,2.26306 ,22.20510 
192 ,35.6652 ,1.00063 ,2.24252 ,22.00363 
193 ,35.8570 ,1.00246 ,2.21172 ,21.70143 
194 ,36.0330 ,1.00431 ,2.21857 ,21.76858 
195 ,36.2095 ,1.00609 ,2.20146 ,21.60069 
196 ,36.4016 ,1.00790 ,2.17408 ,21.33206 
197 ,36.5938 ,1.00990 ,2.16723 ,21.26491 
198 ,36.8015 ,1.01185 ,2.14328 ,21.02986 
199 ,37.0097 ,1.01399 ,2.13301 ,20.92912 
200 ,37.1856 ,1.01587 ,2.12959 ,20.89555 
201 ,37.3940 ,1.01786 ,2.09537 ,20.55976 
202 ,37.6021 ,1.01992 ,2.07141 ,20.32472 
203 ,37.7940 ,1.02183 ,2.06799 ,20.29114 
204 ,37.9699 ,1.02366 ,2.05773 ,20.19040 
205 ,38.1462 ,1.02545 ,2.04746 ,20.08967 
206 ,38.3541 ,1.02745 ,2.03035 ,19.92178 
207 ,38.5465 ,1.02944 ,2.02693 ,19.88820 
208 ,38.7223 ,1.03122 ,1.99613 ,19.58599 
209 ,38.9144 ,1.03309 ,1.98244 ,19.45168 
210 ,39.3468 ,1.03622 ,1.96875 ,19.31737 
211 ,39.5548 ,1.03946 ,1.92426 ,18.88085 
212 ,39.7310 ,1.04132 ,1.91742 ,18.81369 
213 ,39.9232 ,1.04313 ,1.90715 ,18.71296 
214 ,40.0991 ,1.04502 ,1.87635 ,18.41075 
215 ,40.2750 ,1.04680 ,1.87977 ,18.44433 
216 ,40.4672 ,1.04861 ,1.86951 ,18.34360 
217 ,40.6591 ,1.05048 ,1.85582 ,18.20928 
218 ,40.8353 ,1.05244 ,1.82844 ,17.94066 
219 ,41.0274 ,1.05418 ,1.83186 ,17.97423 
220 ,41.2032 ,1.05601 ,1.81475 ,17.80634 
221 ,41.3959 ,1.05791 ,1.79080 ,17.57129 
222 ,41.5873 ,1.05986 ,1.78395 ,17.50414 
223 ,41.7635 ,1.06158 ,1.77026 ,17.36983 
224 ,41.9558 ,1.06348 ,1.74631 ,17.13478 
225 ,42.1477 ,1.06539 ,1.74289 ,17.10120 
226 ,42.3559 ,1.06744 ,1.72235 ,16.89973 
227 ,42.5321 ,1.06931 ,1.70182 ,16.69826 
228 ,42.7242 ,1.07113 ,1.69498 ,16.63110 
229 ,42.9162 ,1.07318 ,1.67786 ,16.46321 
230 ,43.0924 ,1.07489 ,1.66075 ,16.29532 
231 ,43.2683 ,1.07667 ,1.65391 ,16.22816 
232 ,43.4445 ,1.07850 ,1.65049 ,16.19458 
233 ,43.6205 ,1.08014 ,1.62995 ,15.99311 
234 ,43.8286 ,1.08215 ,1.62653 ,15.95954 
235 ,44.0367 ,1.08428 ,1.59573 ,15.65733 
236 ,44.2125 ,1.08608 ,1.58547 ,15.55660 
237 ,44.4049 ,1.08799 ,1.57862 ,15.48944 
238 ,44.5971 ,1.08992 ,1.55467 ,15.25439 
239 ,44.7890 ,1.09178 ,1.55124 ,15.22081 
240 ,44.9650 ,1.09360 ,1.53756 ,15.08650 
241 ,45.1571 ,1.09547 ,1.49991 ,14.71714 
242 ,45.3490 ,1.09750 ,1.50676 ,14.78430 
243 ,45.5249 ,1.09917 ,1.49991 ,14.71714 
244 ,45.7173 ,1.10104 ,1.46227 ,14.34778 
245 ,45.8936 ,1.10290 ,1.44858 ,14.21346 
246 ,46.1017 ,1.10487 ,1.45542 ,14.28062 
247 ,46.2938 ,1.10690 ,1.43147 ,14.04557 
248 ,46.4858 ,1.10876 ,1.42462 ,13.97842 
249 ,46.6774 ,1.11069 ,1.41778 ,13.91126 
250 ,46.8537 ,1.11245 ,1.39040 ,13.64263 
251 ,47.0459 ,1.11440 ,1.39725 ,13.70979 
252 ,47.2378 ,1.11627 ,1.36303 ,13.37401 
253 ,47.4301 ,1.11819 ,1.36645 ,13.40759 
254 ,47.6060 ,1.12003 ,1.35960 ,13.34043 
255 ,47.8141 ,1.12207 ,1.32196 ,12.97107 
256 ,48.0058 ,1.12392 ,1.32538 ,13.00465 
257 ,48.1983 ,1.12587 ,1.30485 ,12.80318 
258 ,48.3901 ,1.12780 ,1.29800 ,12.73602 
259 ,48.5666 ,1.12955 ,1.27405 ,12.50097 
260 ,48.7423 ,1.13141 ,1.27063 ,12.46739 
261 ,48.9346 ,1.13326 ,1.23983 ,12.16519 
262 ,49.1428 ,1.13532 ,1.25694 ,12.33308 
263 ,49.3509 ,1.13732 ,1.21929 ,11.96372 
264 ,49.5588 ,1.13940 ,1.21245 ,11.89656 
265 ,49.7671 ,1.14151 ,1.20561 ,11.82941 
266 ,49.9269 ,1.14331 ,1.19534 ,11.72867 
267 ,50.1032 ,1.14497 ,1.18165 ,11.59436 
268 ,50.2791 ,1.14675 ,1.17138 ,11.49362 
269 ,50.4714 ,1.14860 ,1.14743 ,11.25857 
270 ,50.6634 ,1.15052 ,1.14058 ,11.19142 
271 ,50.8235 ,1.15227 ,1.13374 ,11.12426 
272 ,50.9993 ,1.15393 ,1.11321 ,10.92279 
273 ,51.1918 ,1.15587 ,1.08583 ,10.65416 
274 ,51.3999 ,1.15784 ,1.08583 ,10.65416 
275 ,51.5758 ,1.15973 ,1.06872 ,10.48627 
276 ,51.7520 ,1.16147 ,1.05503 ,10.35196 
277 ,51.9439 ,1.16329 ,1.05161 ,10.31838 
278 ,52.1361 ,1.16521 ,1.02423 ,10.04976 
279 ,52.3442 ,1.16728 ,1.02081 ,10.01618 
280 ,52.5362 ,1.16928 ,1.00712 ,9.88186 
281 ,52.7282 ,1.17116 ,0.99685 ,9.78113 
282 ,52.9201 ,1.17307 ,0.99001 ,9.71397 
283 ,53.0960 ,1.17489 ,0.97290 ,9.54608 
284 ,53.2726 ,1.17664 ,0.94210 ,9.24388 
285 ,53.4644 ,1.17852 ,0.93868 ,9.21030 
286 ,53.6567 ,1.18049 ,0.93525 ,9.17672 
287 ,53.8327 ,1.18231 ,0.91814 ,9.00883 
288 ,54.0244 ,1.18405 ,0.90103 ,8.84094 
289 ,54.2489 ,1.18629 ,0.89761 ,8.80736 
290 ,54.4409 ,1.18824 ,0.87708 ,8.60589 
291 ,54.6490 ,1.19031 ,0.86681 ,8.50515 
292 ,54.8251 ,1.19216 ,0.85654 ,8.40442 
293 ,55.0172 ,1.19406 ,0.84970 ,8.33726 
294 ,55.1930 ,1.19585 ,0.82917 ,8.13579 
295 ,55.3693 ,1.19760 ,0.80179 ,7.86717 
296 ,55.5775 ,1.19960 ,0.81206 ,7.96790 
297 ,55.7695 ,1.20155 ,0.78810 ,7.73285 
298 ,55.9777 ,1.20361 ,0.78810 ,7.73285 
299 ,56.1857 ,1.20570 ,0.77784 ,7.63212 
300 ,56.3456 ,1.20748 ,0.75730 ,7.43065 
301 ,56.5219 ,1.20912 ,0.75388 ,7.39707 
302 ,56.7140 ,1.21107 ,0.73335 ,7.19560 
303 ,56.9221 ,1.21299 ,0.72308 ,7.09486 
304 ,57.1140 ,1.21500 ,0.70597 ,6.92697 
305 ,57.2902 ,1.21683 ,0.69228 ,6.79266 
306 ,57.4662 ,1.21862 ,0.69913 ,6.85982 
307 ,57.6580 ,1.22047 ,0.66833 ,6.55761 
308 ,57.8344 ,1.22223 ,0.66148 ,6.49046 
309 ,58.0104 ,1.22397 ,0.63068 ,6.18825 
310 ,58.2025 ,1.22595 ,0.64437 ,6.32256 
311 ,58.3944 ,1.22771 ,0.63753 ,6.25541 
312 ,58.5546 ,1.22958 ,0.60673 ,5.95320 
313 ,58.7466 ,1.23136 ,0.59988 ,5.88605 
314 ,58.9064 ,1.23306 ,0.59304 ,5.81889 
315 ,59.0823 ,1.23478 ,0.58277 ,5.71815 
316 ,59.2744 ,1.23656 ,0.56908 ,5.58384 
317 ,59.4344 ,1.23837 ,0.56224 ,5.51668 
318 ,59.6430 ,1.24016 ,0.54513 ,5.34879 
319 ,59.8832 ,1.24255 ,0.52459 ,5.14732 
320 ,60.0910 ,1.24480 ,0.52459 ,5.14732 
321 ,60.2674 ,1.24656 ,0.50406 ,4.94585 
322 ,60.4435 ,1.24837 ,0.49380 ,4.84512 
323 ,60.6191 ,1.25017 ,0.49722 ,4.87870 
324 ,60.7957 ,1.25187 ,0.48695 ,4.77796 
325 ,60.9717 ,1.25361 ,0.45957 ,4.50934 
326 ,61.1637 ,1.25557 ,0.46300 ,4.54291 
327 ,61.3556 ,1.25740 ,0.46642 ,4.57649 
328 ,61.5477 ,1.25930 ,0.42535 ,4.17355 
329 ,61.7556 ,1.26131 ,0.43220 ,4.24071 
330 ,61.9319 ,1.26323 ,0.40824 ,4.00566 
331 ,62.1078 ,1.26494 ,0.39113 ,3.83777 
332 ,62.3003 ,1.26694 ,0.40140 ,3.93850 
333 ,62.4923 ,1.26876 ,0.35691 ,3.50199 
334 ,62.6679 ,1.27055 ,0.36718 ,3.60272 
335 ,62.8439 ,1.27243 ,0.35349 ,3.46841 
336 ,63.0200 ,1.27405 ,0.35006 ,3.43483 
337 ,63.2446 ,1.27621 ,0.32611 ,3.19978 
338 ,63.4363 ,1.27825 ,0.32611 ,3.19978 
339 ,63.6447 ,1.28017 ,0.30215 ,2.96473 
340 ,63.8364 ,1.28220 ,0.29873 ,2.93116 
341 ,64.0128 ,1.28399 ,0.29873 ,2.93116 
342 ,64.1888 ,1.28575 ,0.27478 ,2.69611 
343 ,64.3650 ,1.28750 ,0.25082 ,2.46106 
344 ,64.5730 ,1.28957 ,0.24055 ,2.36032 
345 ,64.7652 ,1.29147 ,0.23371 ,2.29317 
346 ,64.9410 ,1.29333 ,0.24055 ,2.36032 
347 ,65.1173 ,1.29504 ,0.22687 ,2.22601 
348 ,65.3094 ,1.29689 ,0.21660 ,2.12528 
349 ,65.4856 ,1.29876 ,0.18580 ,1.82307 
350 ,65.6936 ,1.30071 ,0.19949 ,1.95738 
351 ,65.9019 ,1.30279 ,0.18580 ,1.82307 
352 ,66.0937 ,1.30475 ,0.17211 ,1.68876 
353 ,66.2698 ,1.30661 ,0.13789 ,1.35298 
354 ,66.4776 ,1.30848 ,0.14816 ,1.45371 
355 ,66.6539 ,1.31042 ,0.13447 ,1.31940 
356 ,66.8459 ,1.31225 ,0.10367 ,1.01719 
357 ,67.0217 ,1.31409 ,0.10709 ,1.05077 
358 ,67.2142 ,1.31591 ,0.10709 ,1.05077 
359 ,67.4223 ,1.31801 ,0.08656 ,0.84930 
360 ,67.6143 ,1.31995 ,0.06602 ,0.64783 
361 ,67.8064 ,1.32193 ,0.05234 ,0.51352 
362 ,67.9986 ,1.32377 ,0.04207 ,0.41278 
363 ,68.1745 ,1.32571 ,0.03522 ,0.34563 
364 ,68.3505 ,1.32732 ,0.02838 ,0.27847 
365 ,68.5427 ,1.32928 ,0.02496 ,0.24489 
366 ,68.7507 ,1.33129 ,-0.00926 ,-0.09089 
367 ,68.9264 ,1.33317 ,0.00100 ,0.00984 
368 ,69.1028 ,1.33483 ,-0.02295 ,-0.22520 
369 ,69.2629 ,1.33662 ,0.00100 ,0.00984 
370 ,69.4390 ,1.33823 ,-0.02295 ,-0.22520 
371 ,69.6312 ,1.34014 ,-0.05033 ,-0.49383 
372 ,69.8067 ,1.34193 ,-0.05033 ,-0.49383 
373 ,69.9832 ,1.34372 ,-0.06744 ,-0.66172 
374 ,70.1914 ,1.34564 ,-0.08113 ,-0.79604 
375 ,70.3994 ,1.34777 ,-0.06744 ,-0.66172 
376 ,70.5756 ,1.34964 ,-0.08113 ,-0.79604 
377 ,70.7673 ,1.35145 ,-0.09140 ,-0.89677 
378 ,70.9437 ,1.35325 ,-0.11877 ,-1.16540 
379 ,71.1356 ,1.35522 ,-0.11193 ,-1.09824 
380 ,71.3115 ,1.35696 ,-0.12904 ,-1.26613 
381 ,71.5039 ,1.35884 ,-0.14957 ,-1.46760 
382 ,71.7121 ,1.36092 ,-0.14957 ,-1.46760 
383 ,71.9039 ,1.36284 ,-0.14957 ,-1.46760 
384 ,72.0961 ,1.36475 ,-0.15642 ,-1.53476 
385 ,72.2881 ,1.36666 ,-0.17695 ,-1.73623 
386 ,72.4643 ,1.36851 ,-0.19748 ,-1.93770 
387 ,72.6564 ,1.37041 ,-0.19064 ,-1.87054 
388 ,72.8484 ,1.37230 ,-0.22144 ,-2.17275 
389 ,73.0405 ,1.37420 ,-0.22486 ,-2.20632 
390 ,73.2166 ,1.37603 ,-0.22486 ,-2.20632 
391 ,73.4086 ,1.37792 ,-0.25566 ,-2.50853 
392 ,73.6169 ,1.37994 ,-0.24197 ,-2.37422 
393 ,73.8248 ,1.38204 ,-0.26935 ,-2.64284 
394 ,73.9848 ,1.38379 ,-0.26250 ,-2.57569 
395 ,74.1771 ,1.38558 ,-0.26593 ,-2.60926 
396 ,74.3690 ,1.38743 ,-0.27619 ,-2.71000 
397 ,74.5608 ,1.38936 ,-0.30015 ,-2.94505 
398 ,74.7373 ,1.39121 ,-0.31384 ,-3.07936 
399 ,74.9130 ,1.39310 ,-0.31726 ,-3.11294 
400 ,75.0733 ,1.39468 ,-0.33437 ,-3.28083 
401 ,75.2494 ,1.39635 ,-0.33779 ,-3.31441 
402 ,75.4257 ,1.39807 ,-0.34806 ,-3.41514 
403 ,75.6012 ,1.39987 ,-0.35490 ,-3.48230 
404 ,75.7774 ,1.40159 ,-0.36175 ,-3.54946 
405 ,75.9858 ,1.40363 ,-0.38570 ,-3.78450 
406 ,76.1940 ,1.40562 ,-0.36175 ,-3.54946 
407 ,76.3698 ,1.40755 ,-0.39939 ,-3.91882 
408 ,76.5780 ,1.40953 ,-0.39939 ,-3.91882 
409 ,76.7699 ,1.41145 ,-0.40281 ,-3.95240 
410 ,76.9456 ,1.41328 ,-0.43019 ,-4.22102 
411 ,77.1222 ,1.41507 ,-0.44046 ,-4.32176 
412 ,77.3139 ,1.41692 ,-0.44388 ,-4.35534 
413 ,77.5062 ,1.41887 ,-0.44730 ,-4.38891 
414 ,77.6824 ,1.42067 ,-0.47126 ,-4.62396 
415 ,77.8907 ,1.42272 ,-0.47126 ,-4.62396 
416 ,78.0825 ,1.42464 ,-0.49179 ,-4.82543 
417 ,78.2585 ,1.42644 ,-0.49179 ,-4.82543 
418 ,78.4507 ,1.42822 ,-0.48837 ,-4.79185 
419 ,78.6267 ,1.43012 ,-0.50206 ,-4.92617 
420 ,78.8024 ,1.43184 ,-0.52943 ,-5.19479 
421 ,78.9789 ,1.43365 ,-0.52259 ,-5.12764 
422 ,79.1711 ,1.43553 ,-0.51917 ,-5.09406 
423 ,79.3631 ,1.43740 ,-0.54654 ,-5.36268 
424 ,79.5711 ,1.43947 ,-0.54654 ,-5.36268 
425 ,79.7469 ,1.44135 ,-0.56023 ,-5.49700 
426 ,79.9229 ,1.44302 ,-0.58077 ,-5.69847 
427 ,80.1154 ,1.44492 ,-0.57392 ,-5.63131 
428 ,80.3073 ,1.44693 ,-0.60472 ,-5.93352 
429 ,80.4835 ,1.44864 ,-0.60130 ,-5.89994 
430 ,80.6596 ,1.45038 ,-0.61156 ,-6.00067 
431 ,80.8516 ,1.45227 ,-0.61156 ,-6.00067 
432 ,81.0276 ,1.45406 ,-0.61499 ,-6.03425 
433 ,81.2037 ,1.45585 ,-0.63552 ,-6.23572 
434 ,81.4278 ,1.45791 ,-0.64921 ,-6.37003 
435 ,81.6199 ,1.45993 ,-0.64579 ,-6.33646 
436 ,81.8121 ,1.46181 ,-0.64921 ,-6.37003 
437 ,82.0041 ,1.46379 ,-0.67659 ,-6.63866 
438 ,82.1802 ,1.46562 ,-0.67659 ,-6.63866 
439 ,82.3724 ,1.46753 ,-0.66974 ,-6.57150 
440 ,82.5645 ,1.46933 ,-0.70054 ,-6.87371 
441 ,82.7565 ,1.47134 ,-0.69712 ,-6.84013 
442 ,82.9325 ,1.47320 ,-0.71081 ,-6.97444 
443 ,83.1082 ,1.47490 ,-0.69712 ,-6.84013 
444 ,83.2847 ,1.47669 ,-0.72450 ,-7.10876 
445 ,83.4767 ,1.47854 ,-0.73134 ,-7.17591 
446 ,83.6528 ,1.48031 ,-0.72792 ,-7.14233 
447 ,83.8449 ,1.48223 ,-0.75187 ,-7.37738 
448 ,84.0049 ,1.48398 ,-0.76898 ,-7.54527 
449 ,84.1808 ,1.48564 ,-0.77241 ,-7.57885 
450 ,84.3565 ,1.48741 ,-0.76898 ,-7.54527 
451 ,84.5326 ,1.48913 ,-0.78610 ,-7.71317 
452 ,84.6927 ,1.49085 ,-0.77583 ,-7.61243 
453 ,84.8693 ,1.49252 ,-0.79294 ,-7.78032 
454 ,85.0611 ,1.49442 ,-0.81005 ,-7.94821 
455 ,85.2374 ,1.49614 ,-0.81347 ,-7.98179 
456 ,85.4133 ,1.49794 ,-0.80663 ,-7.91464 
457 ,85.6214 ,1.49994 ,-0.84427 ,-8.28400 
458 ,85.8135 ,1.50188 ,-0.82032 ,-8.04895 
459 ,86.0054 ,1.50383 ,-0.84427 ,-8.28400 
460 ,86.1814 ,1.50558 ,-0.86481 ,-8.48547 
461 ,86.3576 ,1.50735 ,-0.86823 ,-8.51904 
462 ,86.5499 ,1.50923 ,-0.86138 ,-8.45189 
463 ,86.7420 ,1.51124 ,-0.89560 ,-8.78767 
