Data stamp = , 20-04-2022 20:05:22 788

Calibration Values: 
Slope = , 26.54 , g/V 
Offset Voltage at no contact = , -0.501760 , V 

No , Time , Stage Position ,   Mass , Force 
   ,  (s) ,      (mm)      ,   (g)  , (mN)  

1 ,0.0000 ,0.64937 ,5.29510 ,51.95548 
2 ,0.2066 ,0.64946 ,5.28141 ,51.82116 
3 ,0.5112 ,0.65024 ,5.30878 ,52.08979 
4 ,0.7191 ,0.65163 ,5.29167 ,51.92190 
5 ,0.9111 ,0.65326 ,5.27456 ,51.75401 
6 ,1.0871 ,0.65498 ,5.28825 ,51.88832 
7 ,1.2474 ,0.65669 ,5.29510 ,51.95548 
8 ,1.4234 ,0.65828 ,5.29852 ,51.98905 
9 ,1.5995 ,0.66013 ,5.28825 ,51.88832 
10 ,1.8237 ,0.66215 ,5.26772 ,51.68685 
11 ,2.0318 ,0.66443 ,5.23350 ,51.35107 
12 ,2.2237 ,0.66644 ,5.23350 ,51.35107 
13 ,2.3999 ,0.66814 ,5.22323 ,51.25033 
14 ,2.5919 ,0.67011 ,5.18901 ,50.91455 
15 ,2.7840 ,0.67190 ,5.18559 ,50.88097 
16 ,2.9597 ,0.67371 ,5.18559 ,50.88097 
17 ,3.1360 ,0.67550 ,5.14452 ,50.47803 
18 ,3.3602 ,0.67776 ,5.12741 ,50.31014 
19 ,3.5522 ,0.67961 ,5.11714 ,50.20940 
20 ,3.7282 ,0.68142 ,5.06923 ,49.73931 
21 ,3.9202 ,0.68324 ,5.08977 ,49.94078 
22 ,4.1124 ,0.68527 ,5.03501 ,49.40352 
23 ,4.3207 ,0.68730 ,5.04185 ,49.47068 
24 ,4.5287 ,0.68937 ,4.99052 ,48.96701 
25 ,4.7049 ,0.69117 ,5.00079 ,49.06774 
26 ,4.8969 ,0.69302 ,4.96999 ,48.76554 
27 ,5.1045 ,0.69508 ,4.96315 ,48.69838 
28 ,5.2812 ,0.69690 ,4.93919 ,48.46333 
29 ,5.4730 ,0.69877 ,4.91866 ,48.26186 
30 ,5.6652 ,0.70073 ,4.90839 ,48.16113 
31 ,5.8570 ,0.70260 ,4.86732 ,47.75819 
32 ,6.0333 ,0.70444 ,4.85706 ,47.65745 
33 ,6.2094 ,0.70624 ,4.83310 ,47.42240 
34 ,6.3853 ,0.70793 ,4.82284 ,47.32167 
35 ,6.5775 ,0.70983 ,4.81257 ,47.22093 
36 ,6.7537 ,0.71165 ,4.79888 ,47.08662 
37 ,6.9457 ,0.71352 ,4.78861 ,46.98589 
38 ,7.1219 ,0.71532 ,4.77150 ,46.81800 
39 ,7.2980 ,0.71710 ,4.74755 ,46.58295 
40 ,7.4900 ,0.71894 ,4.72702 ,46.38148 
41 ,7.6660 ,0.72075 ,4.71333 ,46.24716 
42 ,7.8583 ,0.72261 ,4.69279 ,46.04569 
43 ,8.0502 ,0.72457 ,4.68595 ,45.97854 
44 ,8.2262 ,0.72634 ,4.66199 ,45.74349 
45 ,8.4184 ,0.72825 ,4.63462 ,45.47486 
46 ,8.5945 ,0.73003 ,4.61408 ,45.27339 
47 ,8.7705 ,0.73181 ,4.59013 ,45.03835 
48 ,8.9464 ,0.73354 ,4.59013 ,45.03835 
49 ,9.1548 ,0.73560 ,4.55933 ,44.73614 
50 ,9.3466 ,0.73751 ,4.55591 ,44.70256 
51 ,9.5389 ,0.73943 ,4.53537 ,44.50109 
52 ,9.7311 ,0.74133 ,4.52853 ,44.43394 
53 ,9.9390 ,0.74340 ,4.50457 ,44.19889 
54 ,10.1153 ,0.74525 ,4.49431 ,44.09815 
55 ,10.2912 ,0.74700 ,4.46693 ,43.82953 
56 ,10.4832 ,0.74891 ,4.46009 ,43.76237 
57 ,10.6752 ,0.75083 ,4.41902 ,43.35943 
58 ,10.8671 ,0.75277 ,4.41560 ,43.32585 
59 ,11.0595 ,0.75468 ,4.39507 ,43.12438 
60 ,11.2675 ,0.75670 ,4.38480 ,43.02365 
61 ,11.4596 ,0.75861 ,4.36427 ,42.82218 
62 ,11.6515 ,0.76055 ,4.33347 ,42.51997 
63 ,11.8438 ,0.76249 ,4.33347 ,42.51997 
64 ,12.0356 ,0.76439 ,4.30951 ,42.28492 
65 ,12.2278 ,0.76630 ,4.30951 ,42.28492 
66 ,12.4038 ,0.76812 ,4.28213 ,42.01630 
67 ,12.5955 ,0.77011 ,4.25818 ,41.78125 
68 ,12.7721 ,0.77183 ,4.22738 ,41.47905 
69 ,12.9482 ,0.77357 ,4.22396 ,41.44547 
70 ,13.1562 ,0.77546 ,4.20000 ,41.21042 
71 ,13.3323 ,0.77740 ,4.18631 ,41.07611 
72 ,13.5085 ,0.77921 ,4.17947 ,41.00895 
73 ,13.7000 ,0.78113 ,4.16920 ,40.90821 
74 ,13.8764 ,0.78284 ,4.14525 ,40.67317 
75 ,14.0526 ,0.78460 ,4.11787 ,40.40454 
76 ,14.2288 ,0.78635 ,4.11103 ,40.33738 
77 ,14.4209 ,0.78828 ,4.09391 ,40.16949 
78 ,14.6288 ,0.79029 ,4.08365 ,40.06876 
79 ,14.8049 ,0.79209 ,4.06654 ,39.90087 
80 ,14.9810 ,0.79389 ,4.04943 ,39.73297 
81 ,15.1572 ,0.79568 ,4.02547 ,39.49793 
82 ,15.3812 ,0.79788 ,4.00152 ,39.26288 
83 ,15.5734 ,0.79976 ,3.98098 ,39.06141 
84 ,15.7493 ,0.80157 ,3.97072 ,38.96067 
85 ,15.9252 ,0.80333 ,3.96729 ,38.92709 
86 ,16.1336 ,0.80536 ,3.92623 ,38.52415 
87 ,16.3255 ,0.80728 ,3.92965 ,38.55773 
88 ,16.5177 ,0.80926 ,3.89885 ,38.25553 
89 ,16.7097 ,0.81112 ,3.90570 ,38.32268 
90 ,16.9176 ,0.81323 ,3.87147 ,37.98690 
91 ,17.1099 ,0.81523 ,3.86121 ,37.88617 
92 ,17.2858 ,0.81696 ,3.85779 ,37.85259 
93 ,17.4780 ,0.81884 ,3.81672 ,37.44965 
94 ,17.6538 ,0.82062 ,3.78934 ,37.18102 
95 ,17.8623 ,0.82254 ,3.80645 ,37.34891 
96 ,18.0543 ,0.82455 ,3.75512 ,36.84524 
97 ,18.2464 ,0.82654 ,3.76881 ,36.97955 
98 ,18.4225 ,0.82831 ,3.73801 ,36.67735 
99 ,18.5982 ,0.83009 ,3.72432 ,36.54303 
100 ,18.7747 ,0.83183 ,3.70037 ,36.30799 
101 ,18.9983 ,0.83391 ,3.69694 ,36.27441 
102 ,19.1749 ,0.83579 ,3.66272 ,35.93863 
103 ,19.3666 ,0.83770 ,3.67299 ,36.03936 
104 ,19.5429 ,0.83948 ,3.65246 ,35.83789 
105 ,19.7189 ,0.84127 ,3.62508 ,35.56926 
106 ,19.8950 ,0.84306 ,3.61481 ,35.46853 
107 ,20.0707 ,0.84474 ,3.59086 ,35.23348 
108 ,20.2471 ,0.84653 ,3.57717 ,35.09917 
109 ,20.4392 ,0.84844 ,3.56348 ,34.96485 
110 ,20.6154 ,0.85018 ,3.52241 ,34.56192 
111 ,20.8074 ,0.85212 ,3.54979 ,34.83054 
112 ,20.9995 ,0.85397 ,3.49846 ,34.32687 
113 ,21.1915 ,0.85595 ,3.49161 ,34.25971 
114 ,21.3677 ,0.85768 ,3.49161 ,34.25971 
115 ,21.5598 ,0.85961 ,3.46424 ,33.99108 
116 ,21.7518 ,0.86149 ,3.45055 ,33.85677 
117 ,21.9278 ,0.86337 ,3.44370 ,33.78961 
118 ,22.1039 ,0.86509 ,3.41975 ,33.55457 
119 ,22.2800 ,0.86687 ,3.39579 ,33.31952 
120 ,22.4721 ,0.86879 ,3.39237 ,33.28594 
121 ,22.6637 ,0.87066 ,3.37526 ,33.11805 
122 ,22.8400 ,0.87248 ,3.33419 ,32.71511 
123 ,23.0482 ,0.87446 ,3.33762 ,32.74869 
124 ,23.2240 ,0.87630 ,3.33419 ,32.71511 
125 ,23.4004 ,0.87808 ,3.30339 ,32.41290 
126 ,23.5923 ,0.88000 ,3.29313 ,32.31217 
127 ,23.7849 ,0.88182 ,3.27602 ,32.14428 
128 ,23.9925 ,0.88395 ,3.26575 ,32.04354 
129 ,24.2007 ,0.88598 ,3.25206 ,31.90923 
130 ,24.3606 ,0.88777 ,3.21784 ,31.57345 
131 ,24.5367 ,0.88943 ,3.19046 ,31.30482 
132 ,24.7129 ,0.89115 ,3.18020 ,31.20409 
133 ,24.8891 ,0.89291 ,3.17335 ,31.13693 
134 ,25.0813 ,0.89487 ,3.14940 ,30.90188 
135 ,25.2569 ,0.89660 ,3.13229 ,30.73399 
136 ,25.4328 ,0.89835 ,3.13229 ,30.73399 
137 ,25.6093 ,0.90013 ,3.11175 ,30.53252 
138 ,25.7854 ,0.90189 ,3.10491 ,30.46536 
139 ,25.9776 ,0.90383 ,3.07411 ,30.16316 
140 ,26.1696 ,0.90573 ,3.08438 ,30.26389 
141 ,26.3457 ,0.90749 ,3.05358 ,29.96169 
142 ,26.5217 ,0.90925 ,3.03989 ,29.82737 
143 ,26.6976 ,0.91099 ,2.99882 ,29.42444 
144 ,26.8743 ,0.91278 ,3.01251 ,29.55875 
145 ,27.0659 ,0.91467 ,2.99540 ,29.39086 
146 ,27.2416 ,0.91651 ,2.98171 ,29.25654 
147 ,27.4181 ,0.91820 ,2.94407 ,28.88718 
148 ,27.6102 ,0.92013 ,2.94749 ,28.92076 
149 ,27.7863 ,0.92190 ,2.94064 ,28.85360 
150 ,27.9942 ,0.92381 ,2.90985 ,28.55140 
151 ,28.1705 ,0.92577 ,2.90300 ,28.48424 
152 ,28.3466 ,0.92750 ,2.88589 ,28.31635 
153 ,28.5387 ,0.92935 ,2.84482 ,27.91341 
154 ,28.7145 ,0.93120 ,2.85509 ,28.01415 
155 ,28.9067 ,0.93303 ,2.84140 ,27.87983 
156 ,29.0989 ,0.93501 ,2.81402 ,27.61121 
157 ,29.2909 ,0.93683 ,2.80376 ,27.51047 
158 ,29.4668 ,0.93870 ,2.79691 ,27.44332 
159 ,29.6430 ,0.94052 ,2.76269 ,27.10753 
160 ,29.8188 ,0.94219 ,2.74558 ,26.93964 
161 ,30.0112 ,0.94412 ,2.74216 ,26.90606 
162 ,30.1871 ,0.94585 ,2.72505 ,26.73817 
163 ,30.3794 ,0.94769 ,2.71136 ,26.60386 
164 ,30.5715 ,0.94971 ,2.70794 ,26.57028 
165 ,30.7471 ,0.95146 ,2.67714 ,26.26807 
166 ,30.9234 ,0.95330 ,2.67714 ,26.26807 
167 ,31.1154 ,0.95515 ,2.63265 ,25.83156 
168 ,31.2916 ,0.95694 ,2.63265 ,25.83156 
169 ,31.4677 ,0.95866 ,2.63265 ,25.83156 
170 ,31.6759 ,0.96063 ,2.59158 ,25.42862 
171 ,31.8515 ,0.96264 ,2.59158 ,25.42862 
172 ,32.0440 ,0.96436 ,2.58474 ,25.36146 
173 ,32.2521 ,0.96649 ,2.56078 ,25.12641 
174 ,32.4441 ,0.96840 ,2.52998 ,24.82421 
175 ,32.6360 ,0.97037 ,2.51630 ,24.68989 
176 ,32.8283 ,0.97222 ,2.52656 ,24.79063 
177 ,33.0204 ,0.97413 ,2.48550 ,24.38769 
178 ,33.2281 ,0.97624 ,2.46839 ,24.21980 
179 ,33.4046 ,0.97801 ,2.46839 ,24.21980 
180 ,33.5966 ,0.97997 ,2.42048 ,23.74970 
181 ,33.7729 ,0.98178 ,2.42390 ,23.78328 
182 ,33.9644 ,0.98370 ,2.41705 ,23.71612 
183 ,34.1402 ,0.98551 ,2.38625 ,23.41392 
184 ,34.3003 ,0.98716 ,2.36914 ,23.24603 
185 ,34.4769 ,0.98881 ,2.35545 ,23.11171 
186 ,34.6851 ,0.99086 ,2.35203 ,23.07814 
187 ,34.8609 ,0.99264 ,2.34177 ,22.97740 
188 ,35.0689 ,0.99453 ,2.32123 ,22.77593 
189 ,35.2452 ,0.99644 ,2.30412 ,22.60804 
190 ,35.4374 ,0.99840 ,2.28359 ,22.40657 
191 ,35.6453 ,1.00039 ,2.26648 ,22.23868 
192 ,35.8536 ,1.00238 ,2.25279 ,22.10437 
193 ,36.0297 ,1.00434 ,2.24252 ,22.00363 
194 ,36.2217 ,1.00621 ,2.23226 ,21.90290 
195 ,36.4138 ,1.00819 ,2.23226 ,21.90290 
196 ,36.5900 ,1.00994 ,2.21172 ,21.70143 
197 ,36.7981 ,1.01184 ,2.19461 ,21.53353 
198 ,37.0057 ,1.01398 ,2.17750 ,21.36564 
199 ,37.1821 ,1.01580 ,2.17408 ,21.33206 
200 ,37.3578 ,1.01764 ,2.12959 ,20.89555 
201 ,37.5341 ,1.01928 ,2.13301 ,20.92912 
202 ,37.7101 ,1.02109 ,2.11248 ,20.72766 
203 ,37.8860 ,1.02280 ,2.11248 ,20.72766 
204 ,38.0626 ,1.02463 ,2.08852 ,20.49261 
205 ,38.2542 ,1.02648 ,2.06799 ,20.29114 
206 ,38.4466 ,1.02839 ,2.05430 ,20.15682 
207 ,38.6543 ,1.03046 ,2.05430 ,20.15682 
208 ,38.8308 ,1.03228 ,2.04404 ,20.05609 
209 ,39.0385 ,1.03434 ,2.00297 ,19.65315 
210 ,39.2148 ,1.03613 ,1.99955 ,19.61957 
211 ,39.4065 ,1.03801 ,1.98244 ,19.45168 
212 ,39.5830 ,1.03979 ,1.95848 ,19.21663 
213 ,39.7592 ,1.04158 ,1.93795 ,19.01516 
214 ,39.9511 ,1.04344 ,1.94822 ,19.11590 
215 ,40.1273 ,1.04527 ,1.92768 ,18.91443 
216 ,40.3352 ,1.04728 ,1.90715 ,18.71296 
217 ,40.5114 ,1.04908 ,1.90715 ,18.71296 
218 ,40.6873 ,1.05084 ,1.89346 ,18.57864 
219 ,40.8953 ,1.05289 ,1.84897 ,18.14213 
220 ,41.0877 ,1.05488 ,1.86266 ,18.27644 
221 ,41.2636 ,1.05668 ,1.82844 ,17.94066 
222 ,41.4718 ,1.05864 ,1.81817 ,17.83992 
223 ,41.6796 ,1.06061 ,1.79080 ,17.57129 
224 ,41.8720 ,1.06267 ,1.80106 ,17.67203 
225 ,42.0802 ,1.06466 ,1.76342 ,17.30267 
226 ,42.2561 ,1.06657 ,1.73946 ,17.06762 
227 ,42.4322 ,1.06832 ,1.74289 ,17.10120 
228 ,42.6240 ,1.07014 ,1.72235 ,16.89973 
229 ,42.8004 ,1.07200 ,1.70182 ,16.69826 
230 ,42.9925 ,1.07393 ,1.69840 ,16.66468 
231 ,43.1685 ,1.07569 ,1.68813 ,16.56395 
232 ,43.3446 ,1.07740 ,1.68129 ,16.49679 
233 ,43.5687 ,1.07966 ,1.67786 ,16.46321 
234 ,43.7608 ,1.08162 ,1.63680 ,16.06027 
235 ,43.9527 ,1.08349 ,1.61969 ,15.89238 
236 ,44.1288 ,1.08522 ,1.62653 ,15.95954 
237 ,44.3210 ,1.08707 ,1.61284 ,15.82522 
238 ,44.5131 ,1.08909 ,1.58889 ,15.59018 
239 ,44.6887 ,1.09088 ,1.57862 ,15.48944 
240 ,44.8650 ,1.09266 ,1.55809 ,15.28797 
241 ,45.0732 ,1.09462 ,1.54098 ,15.12008 
242 ,45.2652 ,1.09667 ,1.52045 ,14.91861 
243 ,45.4415 ,1.09840 ,1.52387 ,14.95219 
244 ,45.6334 ,1.10025 ,1.51018 ,14.81787 
245 ,45.8091 ,1.10204 ,1.48622 ,14.58283 
246 ,46.0016 ,1.10394 ,1.46911 ,14.41493 
247 ,46.1937 ,1.10592 ,1.45885 ,14.31420 
248 ,46.3860 ,1.10780 ,1.44858 ,14.21346 
249 ,46.5940 ,1.10977 ,1.43831 ,14.11273 
250 ,46.8020 ,1.11179 ,1.41778 ,13.91126 
251 ,46.9941 ,1.11384 ,1.41094 ,13.84410 
252 ,47.1860 ,1.11573 ,1.38356 ,13.57548 
253 ,47.3621 ,1.11755 ,1.37671 ,13.50832 
254 ,47.5381 ,1.11932 ,1.36303 ,13.37401 
255 ,47.7303 ,1.12127 ,1.35276 ,13.27327 
256 ,47.9381 ,1.12325 ,1.34249 ,13.17254 
257 ,48.1143 ,1.12512 ,1.33565 ,13.10538 
258 ,48.2903 ,1.12682 ,1.31854 ,12.93749 
259 ,48.4666 ,1.12859 ,1.30827 ,12.83675 
260 ,48.6585 ,1.13045 ,1.29116 ,12.66886 
261 ,48.8508 ,1.13235 ,1.27063 ,12.46739 
262 ,49.0424 ,1.13427 ,1.26036 ,12.36666 
263 ,49.2190 ,1.13618 ,1.23641 ,12.13161 
264 ,49.4428 ,1.13823 ,1.23641 ,12.13161 
265 ,49.6192 ,1.14017 ,1.21587 ,11.93014 
266 ,49.7951 ,1.14197 ,1.22272 ,11.99730 
267 ,49.9711 ,1.14370 ,1.21587 ,11.93014 
268 ,50.1468 ,1.14536 ,1.19534 ,11.72867 
269 ,50.3234 ,1.14720 ,1.18165 ,11.59436 
270 ,50.5314 ,1.14915 ,1.16796 ,11.46004 
271 ,50.7075 ,1.15105 ,1.15427 ,11.32573 
272 ,50.8836 ,1.15278 ,1.13374 ,11.12426 
273 ,51.0596 ,1.15453 ,1.10979 ,10.88921 
274 ,51.2356 ,1.15626 ,1.11663 ,10.95637 
275 ,51.4118 ,1.15806 ,1.10636 ,10.85563 
276 ,51.5878 ,1.15984 ,1.08925 ,10.68774 
277 ,51.7637 ,1.16157 ,1.06187 ,10.41912 
278 ,51.9720 ,1.16363 ,1.05503 ,10.35196 
279 ,52.1480 ,1.16543 ,1.05161 ,10.31838 
280 ,52.3241 ,1.16723 ,1.01739 ,9.98260 
281 ,52.5002 ,1.16895 ,1.01739 ,9.98260 
282 ,52.6764 ,1.17071 ,1.00028 ,9.81471 
283 ,52.8682 ,1.17265 ,1.01054 ,9.91544 
284 ,53.0444 ,1.17444 ,0.96605 ,9.47892 
285 ,53.2526 ,1.17632 ,0.95237 ,9.34461 
286 ,53.4446 ,1.17826 ,0.94894 ,9.31103 
287 ,53.6527 ,1.18027 ,0.95237 ,9.34461 
288 ,53.8449 ,1.18235 ,0.93183 ,9.14314 
289 ,54.0369 ,1.18428 ,0.91130 ,8.94167 
290 ,54.2130 ,1.18609 ,0.89761 ,8.80736 
291 ,54.4046 ,1.18788 ,0.88734 ,8.70662 
292 ,54.5971 ,1.18989 ,0.88050 ,8.63947 
293 ,54.7731 ,1.19176 ,0.87708 ,8.60589 
294 ,54.9493 ,1.19340 ,0.85654 ,8.40442 
295 ,55.1413 ,1.19530 ,0.82917 ,8.13579 
296 ,55.3335 ,1.19722 ,0.84628 ,8.30368 
297 ,55.5089 ,1.19904 ,0.82232 ,8.06864 
298 ,55.6856 ,1.20078 ,0.81548 ,8.00148 
299 ,55.8777 ,1.20278 ,0.80179 ,7.86717 
300 ,56.0537 ,1.20445 ,0.78810 ,7.73285 
301 ,56.2618 ,1.20642 ,0.76757 ,7.53138 
302 ,56.4858 ,1.20861 ,0.76072 ,7.46423 
303 ,56.6620 ,1.21051 ,0.75730 ,7.43065 
304 ,56.8701 ,1.21253 ,0.72308 ,7.09486 
305 ,57.0620 ,1.21448 ,0.72308 ,7.09486 
306 ,57.2381 ,1.21636 ,0.70939 ,6.96055 
307 ,57.4143 ,1.21804 ,0.69570 ,6.82624 
308 ,57.6062 ,1.21997 ,0.69570 ,6.82624 
309 ,57.7826 ,1.22178 ,0.66490 ,6.52403 
310 ,57.9584 ,1.22350 ,0.65464 ,6.42330 
311 ,58.1663 ,1.22540 ,0.64095 ,6.28899 
312 ,58.3746 ,1.22761 ,0.64437 ,6.32256 
313 ,58.5668 ,1.22946 ,0.62726 ,6.15467 
314 ,58.7425 ,1.23134 ,0.61699 ,6.05394 
315 ,58.9188 ,1.23312 ,0.58962 ,5.78531 
316 ,59.0946 ,1.23483 ,0.58962 ,5.78531 
317 ,59.2709 ,1.23663 ,0.58277 ,5.71815 
318 ,59.4630 ,1.23847 ,0.56908 ,5.58384 
319 ,59.6389 ,1.24028 ,0.53828 ,5.28164 
320 ,59.8310 ,1.24211 ,0.55539 ,5.44953 
321 ,60.0232 ,1.24411 ,0.54171 ,5.31522 
322 ,60.1994 ,1.24593 ,0.51775 ,5.08017 
323 ,60.3755 ,1.24768 ,0.52117 ,5.11375 
324 ,60.5676 ,1.24961 ,0.50748 ,4.97943 
325 ,60.7757 ,1.25159 ,0.50406 ,4.94585 
326 ,60.9517 ,1.25341 ,0.48695 ,4.77796 
327 ,61.1758 ,1.25557 ,0.46642 ,4.57649 
328 ,61.3518 ,1.25745 ,0.46642 ,4.57649 
329 ,61.5279 ,1.25921 ,0.45273 ,4.44218 
330 ,61.7038 ,1.26093 ,0.43220 ,4.24071 
331 ,61.8956 ,1.26287 ,0.41166 ,4.03924 
332 ,62.0721 ,1.26466 ,0.42193 ,4.13997 
333 ,62.2641 ,1.26651 ,0.40482 ,3.97208 
334 ,62.4403 ,1.26835 ,0.38429 ,3.77061 
335 ,62.6483 ,1.27032 ,0.38771 ,3.80419 
336 ,62.8405 ,1.27232 ,0.37060 ,3.63630 
337 ,63.0159 ,1.27409 ,0.36375 ,3.56914 
338 ,63.1926 ,1.27583 ,0.34664 ,3.40125 
339 ,63.3685 ,1.27755 ,0.33980 ,3.33410 
340 ,63.5608 ,1.27949 ,0.31242 ,3.06547 
341 ,63.7690 ,1.28156 ,0.31584 ,3.09905 
342 ,63.9608 ,1.28344 ,0.28847 ,2.83042 
343 ,64.1207 ,1.28523 ,0.27478 ,2.69611 
344 ,64.2970 ,1.28688 ,0.25424 ,2.49464 
345 ,64.4730 ,1.28863 ,0.27135 ,2.66253 
346 ,64.6811 ,1.29055 ,0.25082 ,2.46106 
347 ,64.8412 ,1.29240 ,0.23371 ,2.29317 
348 ,65.0172 ,1.29403 ,0.22344 ,2.19243 
349 ,65.1772 ,1.29577 ,0.23029 ,2.25959 
350 ,65.3534 ,1.29743 ,0.22002 ,2.15885 
351 ,65.5295 ,1.29918 ,0.20633 ,2.02454 
352 ,65.7375 ,1.30116 ,0.19607 ,1.92381 
353 ,65.9136 ,1.30301 ,0.17896 ,1.75592 
354 ,66.0898 ,1.30476 ,0.17896 ,1.75592 
355 ,66.2817 ,1.30670 ,0.16185 ,1.58802 
356 ,66.4739 ,1.30862 ,0.14816 ,1.45371 
357 ,66.6820 ,1.31061 ,0.12420 ,1.21866 
358 ,66.8581 ,1.31249 ,0.12078 ,1.18508 
359 ,67.0660 ,1.31439 ,0.11051 ,1.08435 
360 ,67.2579 ,1.31642 ,0.08998 ,0.88288 
361 ,67.4343 ,1.31823 ,0.06945 ,0.68141 
362 ,67.6263 ,1.32009 ,0.07971 ,0.78214 
363 ,67.8181 ,1.32202 ,0.06260 ,0.61425 
364 ,67.9944 ,1.32380 ,0.06260 ,0.61425 
365 ,68.1706 ,1.32559 ,0.05918 ,0.58067 
366 ,68.3624 ,1.32748 ,0.04207 ,0.41278 
367 ,68.5708 ,1.32950 ,0.03180 ,0.31205 
368 ,68.7627 ,1.33145 ,0.01469 ,0.14416 
369 ,68.9709 ,1.33345 ,-0.00242 ,-0.02373 
370 ,69.1629 ,1.33551 ,-0.00584 ,-0.05731 
371 ,69.3387 ,1.33728 ,-0.01953 ,-0.19163 
372 ,69.5310 ,1.33913 ,-0.02295 ,-0.22520 
373 ,69.7232 ,1.34107 ,-0.04006 ,-0.39310 
374 ,69.8990 ,1.34288 ,-0.05033 ,-0.49383 
375 ,70.0752 ,1.34470 ,-0.04691 ,-0.46025 
376 ,70.2513 ,1.34639 ,-0.05033 ,-0.49383 
377 ,70.4271 ,1.34812 ,-0.06060 ,-0.59457 
378 ,70.6032 ,1.34987 ,-0.07086 ,-0.69530 
379 ,70.7957 ,1.35182 ,-0.09482 ,-0.93035 
380 ,70.9877 ,1.35368 ,-0.09140 ,-0.89677 
381 ,71.1799 ,1.35567 ,-0.11877 ,-1.16540 
382 ,71.3878 ,1.35767 ,-0.11193 ,-1.09824 
383 ,71.5639 ,1.35956 ,-0.13246 ,-1.29971 
384 ,71.7399 ,1.36128 ,-0.14273 ,-1.40045 
385 ,71.9321 ,1.36318 ,-0.14615 ,-1.43402 
386 ,72.1241 ,1.36506 ,-0.16326 ,-1.60191 
387 ,72.3159 ,1.36700 ,-0.17695 ,-1.73623 
388 ,72.4923 ,1.36875 ,-0.18037 ,-1.76981 
389 ,72.7003 ,1.37085 ,-0.19748 ,-1.93770 
390 ,72.8764 ,1.37273 ,-0.20090 ,-1.97128 
391 ,73.0522 ,1.37437 ,-0.20090 ,-1.97128 
392 ,73.2444 ,1.37621 ,-0.21117 ,-2.07201 
393 ,73.4207 ,1.37806 ,-0.23170 ,-2.27348 
394 ,73.5966 ,1.37985 ,-0.22828 ,-2.23990 
395 ,73.7888 ,1.38169 ,-0.23513 ,-2.30706 
396 ,73.9808 ,1.38367 ,-0.25908 ,-2.54211 
397 ,74.1566 ,1.38538 ,-0.27277 ,-2.67642 
398 ,74.3650 ,1.38740 ,-0.27277 ,-2.67642 
399 ,74.5406 ,1.38927 ,-0.28304 ,-2.77716 
400 ,74.7169 ,1.39099 ,-0.29673 ,-2.91147 
401 ,74.9089 ,1.39294 ,-0.29673 ,-2.91147 
402 ,75.1172 ,1.39503 ,-0.30015 ,-2.94505 
403 ,75.2930 ,1.39672 ,-0.32068 ,-3.14652 
404 ,75.5014 ,1.39873 ,-0.33437 ,-3.28083 
405 ,75.6775 ,1.40062 ,-0.36175 ,-3.54946 
406 ,75.8530 ,1.40239 ,-0.35490 ,-3.48230 
407 ,76.0297 ,1.40417 ,-0.35490 ,-3.48230 
408 ,76.2214 ,1.40605 ,-0.37544 ,-3.68377 
409 ,76.3977 ,1.40782 ,-0.37886 ,-3.71735 
410 ,76.5738 ,1.40960 ,-0.38912 ,-3.81808 
411 ,76.7820 ,1.41151 ,-0.38912 ,-3.81808 
412 ,76.9739 ,1.41357 ,-0.40281 ,-3.95240 
413 ,77.1661 ,1.41551 ,-0.39597 ,-3.88524 
414 ,77.3580 ,1.41737 ,-0.44046 ,-4.32176 
415 ,77.5341 ,1.41918 ,-0.44730 ,-4.38891 
416 ,77.7261 ,1.42104 ,-0.43019 ,-4.22102 
417 ,77.9180 ,1.42306 ,-0.44730 ,-4.38891 
418 ,78.0784 ,1.42476 ,-0.46441 ,-4.55681 
419 ,78.2544 ,1.42635 ,-0.48152 ,-4.72470 
420 ,78.4465 ,1.42833 ,-0.46441 ,-4.55681 
421 ,78.6704 ,1.43037 ,-0.48494 ,-4.75828 
422 ,78.8624 ,1.43244 ,-0.51232 ,-5.02690 
423 ,79.0224 ,1.43418 ,-0.51917 ,-5.09406 
424 ,79.1990 ,1.43584 ,-0.51917 ,-5.09406 
425 ,79.4065 ,1.43784 ,-0.51232 ,-5.02690 
426 ,79.5832 ,1.43966 ,-0.52601 ,-5.16121 
427 ,79.7911 ,1.44171 ,-0.52943 ,-5.19479 
428 ,79.9671 ,1.44346 ,-0.54312 ,-5.32911 
429 ,80.1432 ,1.44533 ,-0.56023 ,-5.49700 
430 ,80.3191 ,1.44700 ,-0.57734 ,-5.66489 
431 ,80.5115 ,1.44890 ,-0.57050 ,-5.59773 
432 ,80.7032 ,1.45079 ,-0.58419 ,-5.73205 
433 ,80.8798 ,1.45263 ,-0.60130 ,-5.89994 
434 ,81.0716 ,1.45457 ,-0.60814 ,-5.96709 
435 ,81.2637 ,1.45643 ,-0.61156 ,-6.00067 
436 ,81.4559 ,1.45842 ,-0.62525 ,-6.13499 
437 ,81.6319 ,1.46014 ,-0.64236 ,-6.30288 
438 ,81.8238 ,1.46200 ,-0.63210 ,-6.20214 
439 ,82.0001 ,1.46384 ,-0.65263 ,-6.40361 
440 ,82.1917 ,1.46576 ,-0.65263 ,-6.40361 
441 ,82.3682 ,1.46751 ,-0.64921 ,-6.37003 
442 ,82.5602 ,1.46938 ,-0.67316 ,-6.60508 
443 ,82.7523 ,1.47124 ,-0.69370 ,-6.80655 
444 ,82.9443 ,1.47325 ,-0.68685 ,-6.73940 
445 ,83.1205 ,1.47503 ,-0.69712 ,-6.84013 
446 ,83.3120 ,1.47687 ,-0.70054 ,-6.87371 
447 ,83.4886 ,1.47868 ,-0.69712 ,-6.84013 
448 ,83.6808 ,1.48060 ,-0.72450 ,-7.10876 
449 ,83.8726 ,1.48245 ,-0.70396 ,-6.90729 
450 ,84.0489 ,1.48433 ,-0.71081 ,-6.97444 
451 ,84.2409 ,1.48611 ,-0.72450 ,-7.10876 
452 ,84.4649 ,1.48838 ,-0.74845 ,-7.34380 
453 ,84.6728 ,1.49045 ,-0.75530 ,-7.41096 
454 ,84.8489 ,1.49230 ,-0.75187 ,-7.37738 
455 ,85.0573 ,1.49430 ,-0.76898 ,-7.54527 
456 ,85.2493 ,1.49621 ,-0.76556 ,-7.51170 
457 ,85.4250 ,1.49812 ,-0.79636 ,-7.81390 
458 ,85.6173 ,1.50000 ,-0.79294 ,-7.78032 
459 ,85.8096 ,1.50192 ,-0.79636 ,-7.81390 
460 ,86.0017 ,1.50382 ,-0.81689 ,-8.01537 
461 ,86.1936 ,1.50567 ,-0.82032 ,-8.04895 
462 ,86.3697 ,1.50751 ,-0.82032 ,-8.04895 
463 ,86.5458 ,1.50923 ,-0.83058 ,-8.14968 
