Data stamp = , 21-04-2022 02:54:35 346

Calibration Values: 
Slope = , 26.54 , g/V 
Offset Voltage at no contact = , -0.501760 , V 

No , Time , Stage Position ,   Mass , Force 
   ,  (s) ,      (mm)      ,   (g)  , (mN)  

1 ,0.0000 ,0.64940 ,5.26430 ,51.65327 
2 ,0.2166 ,0.64949 ,5.25061 ,51.51896 
3 ,0.6487 ,0.65071 ,5.26087 ,51.61969 
4 ,0.8248 ,0.65253 ,5.25745 ,51.58611 
5 ,1.0172 ,0.65434 ,5.25745 ,51.58611 
6 ,1.2092 ,0.65619 ,5.28825 ,51.88832 
7 ,1.3854 ,0.65796 ,5.27456 ,51.75401 
8 ,1.5614 ,0.65972 ,5.26772 ,51.68685 
9 ,1.7533 ,0.66167 ,5.25403 ,51.55254 
10 ,1.9295 ,0.66351 ,5.24034 ,51.41822 
11 ,2.1215 ,0.66530 ,5.22665 ,51.28391 
12 ,2.3138 ,0.66717 ,5.20612 ,51.08244 
13 ,2.5056 ,0.66916 ,5.17532 ,50.78023 
14 ,2.6978 ,0.67106 ,5.15821 ,50.61234 
15 ,2.8896 ,0.67301 ,5.14794 ,50.51161 
16 ,3.0655 ,0.67480 ,5.13768 ,50.41087 
17 ,3.2575 ,0.67666 ,5.09319 ,49.97436 
18 ,3.4497 ,0.67861 ,5.10003 ,50.04151 
19 ,3.6418 ,0.68049 ,5.06239 ,49.67215 
20 ,3.8182 ,0.68233 ,5.04528 ,49.50426 
21 ,4.0102 ,0.68419 ,5.03501 ,49.40352 
22 ,4.2185 ,0.68622 ,5.01106 ,49.16848 
23 ,4.4103 ,0.68817 ,5.00421 ,49.10132 
24 ,4.5866 ,0.68998 ,4.97341 ,48.79911 
25 ,4.7465 ,0.69173 ,4.96315 ,48.69838 
26 ,4.9227 ,0.69334 ,4.95288 ,48.59764 
27 ,5.1149 ,0.69530 ,4.90839 ,48.16113 
28 ,5.3069 ,0.69709 ,4.90155 ,48.09397 
29 ,5.4829 ,0.69894 ,4.87759 ,47.85892 
30 ,5.6749 ,0.70081 ,4.88101 ,47.89250 
31 ,5.8670 ,0.70273 ,4.85364 ,47.62387 
32 ,6.0589 ,0.70467 ,4.83995 ,47.48956 
33 ,6.2671 ,0.70674 ,4.82284 ,47.32167 
34 ,6.4431 ,0.70859 ,4.80915 ,47.18736 
35 ,6.6355 ,0.71051 ,4.77493 ,46.85157 
36 ,6.8271 ,0.71235 ,4.77835 ,46.88515 
37 ,7.0197 ,0.71426 ,4.73044 ,46.41506 
38 ,7.2114 ,0.71618 ,4.73728 ,46.48221 
39 ,7.4198 ,0.71825 ,4.69964 ,46.11285 
40 ,7.6115 ,0.72016 ,4.68253 ,45.94496 
41 ,7.7879 ,0.72200 ,4.69279 ,46.04569 
42 ,7.9800 ,0.72387 ,4.63119 ,45.44128 
43 ,8.2041 ,0.72599 ,4.63119 ,45.44128 
44 ,8.3961 ,0.72801 ,4.61408 ,45.27339 
45 ,8.5882 ,0.72999 ,4.60040 ,45.13908 
46 ,8.7641 ,0.73175 ,4.59013 ,45.03835 
47 ,8.9561 ,0.73369 ,4.56275 ,44.76972 
48 ,9.1324 ,0.73548 ,4.54906 ,44.63541 
49 ,9.3407 ,0.73736 ,4.51826 ,44.33320 
50 ,9.5484 ,0.73955 ,4.52511 ,44.40036 
51 ,9.7568 ,0.74155 ,4.48404 ,43.99742 
52 ,9.9488 ,0.74365 ,4.47378 ,43.89668 
53 ,10.1087 ,0.74529 ,4.46693 ,43.82953 
54 ,10.2848 ,0.74697 ,4.44640 ,43.62806 
55 ,10.4608 ,0.74872 ,4.42929 ,43.46016 
56 ,10.6531 ,0.75057 ,4.43271 ,43.49374 
57 ,10.8611 ,0.75270 ,4.39164 ,43.09080 
58 ,11.0372 ,0.75447 ,4.37453 ,42.92291 
59 ,11.2292 ,0.75640 ,4.37795 ,42.95649 
60 ,11.4212 ,0.75828 ,4.34373 ,42.62071 
61 ,11.6134 ,0.76022 ,4.34031 ,42.58713 
62 ,11.8214 ,0.76219 ,4.32320 ,42.41924 
63 ,12.0136 ,0.76421 ,4.28556 ,42.04988 
64 ,12.2052 ,0.76609 ,4.26845 ,41.88198 
65 ,12.3818 ,0.76791 ,4.24449 ,41.64694 
66 ,12.5898 ,0.76994 ,4.25818 ,41.78125 
67 ,12.7660 ,0.77175 ,4.22053 ,41.41189 
68 ,12.9739 ,0.77374 ,4.20685 ,41.27758 
69 ,13.1661 ,0.77565 ,4.20342 ,41.24400 
70 ,13.3740 ,0.77780 ,4.16920 ,40.90821 
71 ,13.5662 ,0.77966 ,4.14867 ,40.70674 
72 ,13.7579 ,0.78164 ,4.13156 ,40.53885 
73 ,13.9344 ,0.78342 ,4.11103 ,40.33738 
74 ,14.1264 ,0.78527 ,4.10418 ,40.27023 
75 ,14.3021 ,0.78715 ,4.08023 ,40.03518 
76 ,14.4785 ,0.78887 ,4.05969 ,39.83371 
77 ,14.6707 ,0.79078 ,4.05627 ,39.80013 
78 ,14.8787 ,0.79279 ,4.02205 ,39.46435 
79 ,15.0548 ,0.79456 ,4.00836 ,39.33003 
80 ,15.2624 ,0.79666 ,3.98441 ,39.09499 
81 ,15.4385 ,0.79846 ,3.96387 ,38.89352 
82 ,15.6150 ,0.80026 ,3.95018 ,38.75920 
83 ,15.8071 ,0.80220 ,3.95018 ,38.75920 
84 ,15.9831 ,0.80391 ,3.93307 ,38.59131 
85 ,16.1752 ,0.80584 ,3.91254 ,38.38984 
86 ,16.3673 ,0.80766 ,3.89885 ,38.25553 
87 ,16.5593 ,0.80958 ,3.87832 ,38.05406 
88 ,16.7511 ,0.81152 ,3.87490 ,38.02048 
89 ,16.9274 ,0.81336 ,3.85094 ,37.78543 
90 ,17.1036 ,0.81514 ,3.82699 ,37.55038 
91 ,17.3277 ,0.81732 ,3.80645 ,37.34891 
92 ,17.5195 ,0.81920 ,3.79619 ,37.24818 
93 ,17.7278 ,0.82126 ,3.77565 ,37.04671 
94 ,17.9356 ,0.82337 ,3.74828 ,36.77808 
95 ,18.1120 ,0.82521 ,3.75170 ,36.81166 
96 ,18.3039 ,0.82710 ,3.72090 ,36.50946 
97 ,18.4961 ,0.82891 ,3.70037 ,36.30799 
98 ,18.6717 ,0.83076 ,3.69010 ,36.20725 
99 ,18.8641 ,0.83269 ,3.68668 ,36.17367 
100 ,19.0562 ,0.83448 ,3.65588 ,35.87147 
101 ,19.2320 ,0.83646 ,3.64561 ,35.77073 
102 ,19.4083 ,0.83815 ,3.63534 ,35.67000 
103 ,19.5846 ,0.83992 ,3.60454 ,35.36779 
104 ,19.7765 ,0.84177 ,3.60112 ,35.33422 
105 ,19.9523 ,0.84358 ,3.58059 ,35.13275 
106 ,20.1287 ,0.84535 ,3.56348 ,34.96485 
107 ,20.3048 ,0.84713 ,3.54979 ,34.83054 
108 ,20.4809 ,0.84888 ,3.52584 ,34.59549 
109 ,20.6888 ,0.85085 ,3.52584 ,34.59549 
110 ,20.8489 ,0.85266 ,3.49161 ,34.25971 
111 ,21.0088 ,0.85426 ,3.48135 ,34.15898 
112 ,21.1851 ,0.85591 ,3.47108 ,34.05824 
113 ,21.3612 ,0.85764 ,3.44370 ,33.78961 
114 ,21.5532 ,0.85951 ,3.44713 ,33.82319 
115 ,21.7450 ,0.86155 ,3.40264 ,33.38667 
116 ,21.9213 ,0.86322 ,3.39579 ,33.31952 
117 ,22.0976 ,0.86503 ,3.37526 ,33.11805 
118 ,22.3054 ,0.86700 ,3.38210 ,33.18520 
119 ,22.4978 ,0.86904 ,3.34446 ,32.81584 
120 ,22.6898 ,0.87098 ,3.33762 ,32.74869 
121 ,22.9137 ,0.87300 ,3.32051 ,32.58080 
122 ,23.1058 ,0.87516 ,3.30682 ,32.44648 
123 ,23.3141 ,0.87714 ,3.29655 ,32.34575 
124 ,23.5061 ,0.87907 ,3.26233 ,32.00996 
125 ,23.6820 ,0.88090 ,3.24180 ,31.80849 
126 ,23.8743 ,0.88277 ,3.22811 ,31.67418 
127 ,24.0661 ,0.88478 ,3.19388 ,31.33840 
128 ,24.2424 ,0.88643 ,3.20415 ,31.43913 
129 ,24.4021 ,0.88818 ,3.17677 ,31.17051 
130 ,24.5781 ,0.88990 ,3.18020 ,31.20409 
131 ,24.7542 ,0.89157 ,3.14940 ,30.90188 
132 ,24.9304 ,0.89332 ,3.13913 ,30.80115 
133 ,25.1063 ,0.89510 ,3.12544 ,30.66683 
134 ,25.2828 ,0.89685 ,3.10149 ,30.43178 
135 ,25.4588 ,0.89873 ,3.09806 ,30.39821 
136 ,25.6351 ,0.90043 ,3.07411 ,30.16316 
137 ,25.8110 ,0.90218 ,3.05700 ,29.99527 
138 ,26.0027 ,0.90396 ,3.05358 ,29.96169 
139 ,26.1789 ,0.90580 ,3.01251 ,29.55875 
140 ,26.3554 ,0.90762 ,3.01251 ,29.55875 
141 ,26.5476 ,0.90954 ,2.99882 ,29.42444 
142 ,26.7234 ,0.91123 ,2.97829 ,29.22297 
143 ,26.9154 ,0.91307 ,2.96460 ,29.08865 
144 ,27.1077 ,0.91517 ,2.95091 ,28.95434 
145 ,27.2994 ,0.91693 ,2.93722 ,28.82003 
146 ,27.4759 ,0.91878 ,2.92353 ,28.68571 
147 ,27.7001 ,0.92088 ,2.89616 ,28.41709 
148 ,27.8918 ,0.92288 ,2.88247 ,28.28277 
149 ,28.0677 ,0.92476 ,2.88247 ,28.28277 
150 ,28.2601 ,0.92652 ,2.84825 ,27.94699 
151 ,28.4361 ,0.92839 ,2.83456 ,27.81268 
152 ,28.6122 ,0.93017 ,2.83114 ,27.77910 
153 ,28.8042 ,0.93202 ,2.80718 ,27.54405 
154 ,28.9964 ,0.93400 ,2.78665 ,27.34258 
155 ,29.1724 ,0.93571 ,2.78322 ,27.30900 
156 ,29.3485 ,0.93750 ,2.77296 ,27.20827 
157 ,29.5246 ,0.93928 ,2.75243 ,27.00680 
158 ,29.7168 ,0.94111 ,2.74216 ,26.90606 
159 ,29.9088 ,0.94304 ,2.72505 ,26.73817 
160 ,30.1018 ,0.94501 ,2.69083 ,26.40239 
161 ,30.2769 ,0.94681 ,2.68398 ,26.33523 
162 ,30.4527 ,0.94852 ,2.68740 ,26.36881 
163 ,30.6290 ,0.95040 ,2.64634 ,25.96587 
164 ,30.8206 ,0.95224 ,2.63265 ,25.83156 
165 ,30.9973 ,0.95400 ,2.62581 ,25.76440 
166 ,31.1893 ,0.95587 ,2.60869 ,25.59651 
167 ,31.3973 ,0.95793 ,2.59501 ,25.46220 
168 ,31.5569 ,0.95968 ,2.59843 ,25.49577 
169 ,31.7335 ,0.96140 ,2.57447 ,25.26073 
170 ,31.9414 ,0.96337 ,2.54025 ,24.92494 
171 ,32.1337 ,0.96524 ,2.52998 ,24.82421 
172 ,32.3257 ,0.96729 ,2.52656 ,24.79063 
173 ,32.5019 ,0.96900 ,2.49918 ,24.52200 
174 ,32.7097 ,0.97104 ,2.49918 ,24.52200 
175 ,32.9017 ,0.97293 ,2.47181 ,24.25338 
176 ,33.0777 ,0.97481 ,2.45812 ,24.11906 
177 ,33.2701 ,0.97672 ,2.46154 ,24.15264 
178 ,33.4617 ,0.97856 ,2.43074 ,23.85044 
179 ,33.6381 ,0.98037 ,2.41363 ,23.68255 
180 ,33.8142 ,0.98214 ,2.41363 ,23.68255 
181 ,34.0059 ,0.98411 ,2.39310 ,23.48108 
182 ,34.1823 ,0.98580 ,2.36572 ,23.21245 
183 ,34.3746 ,0.98767 ,2.36572 ,23.21245 
184 ,34.5826 ,0.98978 ,2.33492 ,22.91024 
185 ,34.7582 ,0.99175 ,2.32465 ,22.80951 
186 ,34.9347 ,0.99338 ,2.31439 ,22.70877 
187 ,35.1269 ,0.99522 ,2.28359 ,22.40657 
188 ,35.3190 ,0.99720 ,2.29385 ,22.50731 
189 ,35.5110 ,0.99908 ,2.25963 ,22.17152 
190 ,35.6871 ,1.00089 ,2.26648 ,22.23868 
191 ,35.8792 ,1.00274 ,2.24252 ,22.00363 
192 ,36.0873 ,1.00487 ,2.22199 ,21.80216 
193 ,36.2794 ,1.00672 ,2.20830 ,21.66785 
194 ,36.4715 ,1.00867 ,2.20488 ,21.63427 
195 ,36.6795 ,1.01074 ,2.17750 ,21.36564 
196 ,36.8872 ,1.01284 ,2.15355 ,21.13059 
197 ,37.0797 ,1.01478 ,2.14670 ,21.06344 
198 ,37.2878 ,1.01676 ,2.12617 ,20.86197 
199 ,37.4799 ,1.01874 ,2.11932 ,20.79481 
200 ,37.6560 ,1.02054 ,2.10564 ,20.66050 
201 ,37.8320 ,1.02232 ,2.10221 ,20.62692 
202 ,38.0076 ,1.02411 ,2.05773 ,20.19040 
203 ,38.1841 ,1.02581 ,2.04746 ,20.08967 
204 ,38.3761 ,1.02775 ,2.05088 ,20.12325 
205 ,38.5522 ,1.02950 ,2.04746 ,20.08967 
206 ,38.7284 ,1.03129 ,2.00982 ,19.72031 
207 ,38.9044 ,1.03304 ,1.99270 ,19.55241 
208 ,39.0800 ,1.03475 ,1.97902 ,19.41810 
209 ,39.2726 ,1.03663 ,1.96190 ,19.25021 
210 ,39.4647 ,1.03854 ,1.94822 ,19.11590 
211 ,39.6723 ,1.04064 ,1.94137 ,19.04874 
212 ,39.8488 ,1.04247 ,1.92084 ,18.84727 
213 ,40.0410 ,1.04432 ,1.90715 ,18.71296 
214 ,40.2165 ,1.04613 ,1.90031 ,18.64580 
215 ,40.3927 ,1.04792 ,1.90373 ,18.67938 
216 ,40.5687 ,1.04963 ,1.89346 ,18.57864 
217 ,40.7447 ,1.05145 ,1.84897 ,18.14213 
218 ,40.9207 ,1.05314 ,1.83871 ,18.04139 
219 ,41.0969 ,1.05495 ,1.81817 ,17.83992 
220 ,41.2728 ,1.05673 ,1.83186 ,17.97423 
221 ,41.4488 ,1.05855 ,1.79764 ,17.63845 
222 ,41.6089 ,1.06021 ,1.78395 ,17.50414 
223 ,41.8011 ,1.06190 ,1.76684 ,17.33625 
224 ,41.9773 ,1.06374 ,1.78053 ,17.47056 
225 ,42.1373 ,1.06547 ,1.76000 ,17.26909 
226 ,42.3140 ,1.06711 ,1.76000 ,17.26909 
227 ,42.5215 ,1.06909 ,1.72578 ,16.93331 
228 ,42.6976 ,1.07094 ,1.72235 ,16.89973 
229 ,42.8577 ,1.07269 ,1.70866 ,16.76542 
230 ,43.0337 ,1.07432 ,1.68813 ,16.56395 
231 ,43.2098 ,1.07606 ,1.69155 ,16.59752 
232 ,43.3859 ,1.07782 ,1.65733 ,16.26174 
233 ,43.5619 ,1.07963 ,1.64022 ,16.09385 
234 ,43.7380 ,1.08135 ,1.62995 ,15.99311 
235 ,43.9140 ,1.08310 ,1.62653 ,15.95954 
236 ,44.0901 ,1.08489 ,1.61284 ,15.82522 
237 ,44.2662 ,1.08664 ,1.59231 ,15.62375 
238 ,44.4262 ,1.08837 ,1.57862 ,15.48944 
239 ,44.6023 ,1.09002 ,1.55467 ,15.25439 
240 ,44.7946 ,1.09183 ,1.55124 ,15.22081 
241 ,44.9866 ,1.09382 ,1.54098 ,15.12008 
242 ,45.1790 ,1.09573 ,1.53071 ,15.01934 
243 ,45.3708 ,1.09764 ,1.50676 ,14.78430 
244 ,45.5470 ,1.09939 ,1.50676 ,14.78430 
245 ,45.7391 ,1.10131 ,1.48622 ,14.58283 
246 ,45.9310 ,1.10321 ,1.46911 ,14.41493 
247 ,46.1074 ,1.10505 ,1.45542 ,14.28062 
248 ,46.2996 ,1.10697 ,1.44174 ,14.14631 
249 ,46.4915 ,1.10885 ,1.43489 ,14.07915 
250 ,46.6836 ,1.11073 ,1.41094 ,13.84410 
251 ,46.8755 ,1.11261 ,1.42120 ,13.94484 
252 ,47.0513 ,1.11445 ,1.39725 ,13.70979 
253 ,47.2278 ,1.11621 ,1.36987 ,13.44116 
254 ,47.4199 ,1.11811 ,1.37329 ,13.47474 
255 ,47.5958 ,1.11997 ,1.35276 ,13.27327 
256 ,47.7877 ,1.12178 ,1.32196 ,12.97107 
257 ,47.9961 ,1.12385 ,1.32880 ,13.03822 
258 ,48.1880 ,1.12583 ,1.30485 ,12.80318 
259 ,48.3642 ,1.12759 ,1.28774 ,12.63528 
260 ,48.5404 ,1.12936 ,1.29116 ,12.66886 
261 ,48.7482 ,1.13143 ,1.27405 ,12.50097 
262 ,48.9244 ,1.13321 ,1.26036 ,12.36666 
263 ,49.1005 ,1.13493 ,1.25694 ,12.33308 
264 ,49.2922 ,1.13682 ,1.22614 ,12.03088 
265 ,49.4684 ,1.13866 ,1.21929 ,11.96372 
266 ,49.6605 ,1.14048 ,1.21245 ,11.89656 
267 ,49.8526 ,1.14243 ,1.19876 ,11.76225 
268 ,50.0448 ,1.14433 ,1.17481 ,11.52720 
269 ,50.2371 ,1.14631 ,1.18165 ,11.59436 
270 ,50.4449 ,1.14823 ,1.14401 ,11.22500 
271 ,50.6372 ,1.15032 ,1.14743 ,11.25857 
272 ,50.8289 ,1.15217 ,1.12005 ,10.98995 
273 ,51.0210 ,1.15414 ,1.12005 ,10.98995 
274 ,51.1975 ,1.15594 ,1.11321 ,10.92279 
275 ,51.4214 ,1.15798 ,1.07214 ,10.51985 
276 ,51.6134 ,1.16001 ,1.07214 ,10.51985 
277 ,51.7897 ,1.16188 ,1.07214 ,10.51985 
278 ,51.9814 ,1.16368 ,1.06187 ,10.41912 
279 ,52.1579 ,1.16551 ,1.05503 ,10.35196 
280 ,52.3497 ,1.16737 ,1.02081 ,10.01618 
281 ,52.5420 ,1.16922 ,1.00370 ,9.84829 
282 ,52.7339 ,1.17131 ,1.01396 ,9.94902 
283 ,52.9102 ,1.17303 ,0.98317 ,9.64682 
284 ,53.1023 ,1.17492 ,0.97290 ,9.54608 
285 ,53.2942 ,1.17687 ,0.97290 ,9.54608 
286 ,53.4703 ,1.17862 ,0.94894 ,9.31103 
287 ,53.6465 ,1.18042 ,0.93868 ,9.21030 
288 ,53.8385 ,1.18233 ,0.91814 ,9.00883 
289 ,54.0140 ,1.18415 ,0.90788 ,8.90809 
290 ,54.2066 ,1.18598 ,0.89419 ,8.77378 
291 ,54.3987 ,1.18789 ,0.88734 ,8.70662 
292 ,54.5746 ,1.18966 ,0.88392 ,8.67305 
293 ,54.7668 ,1.19149 ,0.86339 ,8.47158 
294 ,54.9428 ,1.19333 ,0.84286 ,8.27011 
295 ,55.1188 ,1.19514 ,0.85312 ,8.37084 
296 ,55.3108 ,1.19703 ,0.81890 ,8.03506 
297 ,55.5187 ,1.19907 ,0.82575 ,8.10221 
298 ,55.6953 ,1.20087 ,0.80521 ,7.90074 
299 ,55.8873 ,1.20280 ,0.78126 ,7.66570 
300 ,56.0794 ,1.20461 ,0.78468 ,7.69927 
301 ,56.2715 ,1.20658 ,0.76415 ,7.49780 
302 ,56.4797 ,1.20865 ,0.76415 ,7.49780 
303 ,56.6878 ,1.21075 ,0.73335 ,7.19560 
304 ,56.8798 ,1.21267 ,0.73335 ,7.19560 
305 ,57.0717 ,1.21457 ,0.70597 ,6.92697 
306 ,57.2637 ,1.21661 ,0.69913 ,6.85982 
307 ,57.4398 ,1.21839 ,0.69913 ,6.85982 
308 ,57.6480 ,1.22027 ,0.66833 ,6.55761 
309 ,57.8401 ,1.22232 ,0.67859 ,6.65835 
310 ,58.0163 ,1.22407 ,0.66833 ,6.55761 
311 ,58.2082 ,1.22596 ,0.63410 ,6.22183 
312 ,58.4001 ,1.22783 ,0.64095 ,6.28899 
313 ,58.5761 ,1.22970 ,0.63068 ,6.18825 
314 ,58.7525 ,1.23145 ,0.60673 ,5.95320 
315 ,58.9446 ,1.23328 ,0.59304 ,5.81889 
316 ,59.1367 ,1.23526 ,0.57935 ,5.68458 
317 ,59.3287 ,1.23716 ,0.56224 ,5.51668 
318 ,59.5209 ,1.23905 ,0.55882 ,5.48311 
319 ,59.7127 ,1.24098 ,0.53144 ,5.21448 
320 ,59.9530 ,1.24322 ,0.52117 ,5.11375 
321 ,60.1290 ,1.24526 ,0.52117 ,5.11375 
322 ,60.3052 ,1.24694 ,0.50406 ,4.94585 
323 ,60.6894 ,1.24980 ,0.50064 ,4.91228 
324 ,60.8975 ,1.25280 ,0.46984 ,4.61007 
325 ,61.0732 ,1.25464 ,0.45273 ,4.44218 
326 ,61.2494 ,1.25640 ,0.44931 ,4.40860 
327 ,61.4576 ,1.25844 ,0.44931 ,4.40860 
328 ,61.6332 ,1.26023 ,0.43562 ,4.27429 
329 ,61.8095 ,1.26201 ,0.40824 ,4.00566 
330 ,61.9857 ,1.26376 ,0.40824 ,4.00566 
331 ,62.1618 ,1.26552 ,0.41509 ,4.07282 
332 ,62.3378 ,1.26726 ,0.39797 ,3.90493 
333 ,62.5138 ,1.26901 ,0.37744 ,3.70346 
334 ,62.6897 ,1.27092 ,0.35006 ,3.43483 
335 ,62.8662 ,1.27258 ,0.34322 ,3.36767 
336 ,63.0578 ,1.27450 ,0.36375 ,3.56914 
337 ,63.2343 ,1.27627 ,0.34322 ,3.36767 
338 ,63.4423 ,1.27826 ,0.31242 ,3.06547 
339 ,63.6345 ,1.28027 ,0.31242 ,3.06547 
340 ,63.8104 ,1.28198 ,0.28847 ,2.83042 
341 ,64.0023 ,1.28390 ,0.29531 ,2.89758 
342 ,64.1787 ,1.28568 ,0.29531 ,2.89758 
343 ,64.3708 ,1.28755 ,0.25082 ,2.46106 
344 ,64.5628 ,1.28943 ,0.25767 ,2.52822 
345 ,64.7389 ,1.29131 ,0.25424 ,2.49464 
346 ,64.9150 ,1.29303 ,0.23371 ,2.29317 
347 ,65.1068 ,1.29488 ,0.21318 ,2.09170 
348 ,65.2992 ,1.29677 ,0.19607 ,1.92381 
349 ,65.5073 ,1.29880 ,0.19264 ,1.89023 
350 ,65.6832 ,1.30077 ,0.18238 ,1.78949 
351 ,65.8750 ,1.30262 ,0.19264 ,1.89023 
352 ,66.0675 ,1.30450 ,0.16185 ,1.58802 
353 ,66.2435 ,1.30632 ,0.15158 ,1.48729 
354 ,66.4034 ,1.30804 ,0.14473 ,1.42013 
355 ,66.5798 ,1.30969 ,0.13789 ,1.35298 
356 ,66.7715 ,1.31154 ,0.11393 ,1.11793 
357 ,66.9635 ,1.31345 ,0.11736 ,1.15151 
358 ,67.1398 ,1.31527 ,0.10025 ,0.98361 
359 ,67.3480 ,1.31728 ,0.08656 ,0.84930 
360 ,67.5241 ,1.31907 ,0.07629 ,0.74857 
361 ,67.7003 ,1.32091 ,0.06945 ,0.68141 
362 ,67.8923 ,1.32273 ,0.04891 ,0.47994 
363 ,68.0837 ,1.32473 ,0.04549 ,0.44636 
364 ,68.2603 ,1.32651 ,0.03522 ,0.34563 
365 ,68.4364 ,1.32826 ,0.02838 ,0.27847 
366 ,68.6285 ,1.33006 ,0.00785 ,0.07700 
367 ,68.8365 ,1.33222 ,0.01127 ,0.11058 
368 ,69.0126 ,1.33396 ,-0.00926 ,-0.09089 
369 ,69.1888 ,1.33579 ,-0.02295 ,-0.22520 
370 ,69.3826 ,1.33770 ,-0.00926 ,-0.09089 
371 ,69.5729 ,1.33963 ,-0.03664 ,-0.35952 
372 ,69.7648 ,1.34143 ,-0.05375 ,-0.52741 
373 ,69.9409 ,1.34325 ,-0.06060 ,-0.59457 
374 ,70.1169 ,1.34509 ,-0.06744 ,-0.66172 
375 ,70.3092 ,1.34688 ,-0.08797 ,-0.86319 
376 ,70.5171 ,1.34894 ,-0.09140 ,-0.89677 
377 ,70.6934 ,1.35085 ,-0.10508 ,-1.03108 
378 ,70.8852 ,1.35274 ,-0.10851 ,-1.06466 
379 ,71.0613 ,1.35446 ,-0.11193 ,-1.09824 
380 ,71.2531 ,1.35630 ,-0.12904 ,-1.26613 
381 ,71.4296 ,1.35814 ,-0.14615 ,-1.43402 
382 ,71.6376 ,1.36023 ,-0.13931 ,-1.36687 
383 ,71.8138 ,1.36201 ,-0.15984 ,-1.56834 
384 ,72.0058 ,1.36382 ,-0.15984 ,-1.56834 
385 ,72.1815 ,1.36567 ,-0.17011 ,-1.66907 
386 ,72.3576 ,1.36744 ,-0.16668 ,-1.63549 
387 ,72.5498 ,1.36937 ,-0.20775 ,-2.03843 
388 ,72.7421 ,1.37121 ,-0.18379 ,-1.80338 
389 ,72.9342 ,1.37316 ,-0.22144 ,-2.17275 
390 ,73.1102 ,1.37501 ,-0.23513 ,-2.30706 
391 ,73.2864 ,1.37673 ,-0.25566 ,-2.50853 
392 ,73.4785 ,1.37860 ,-0.23170 ,-2.27348 
393 ,73.6706 ,1.38051 ,-0.23855 ,-2.34064 
394 ,73.8786 ,1.38261 ,-0.24881 ,-2.44137 
395 ,74.0546 ,1.38442 ,-0.26250 ,-2.57569 
396 ,74.2468 ,1.38630 ,-0.28304 ,-2.77716 
397 ,74.4386 ,1.38823 ,-0.27619 ,-2.71000 
398 ,74.6149 ,1.39009 ,-0.31041 ,-3.04578 
399 ,74.8069 ,1.39192 ,-0.31384 ,-3.07936 
400 ,74.9991 ,1.39386 ,-0.31726 ,-3.11294 
401 ,75.1751 ,1.39561 ,-0.31384 ,-3.07936 
402 ,75.3510 ,1.39733 ,-0.33779 ,-3.31441 
403 ,75.5590 ,1.39937 ,-0.32752 ,-3.21367 
404 ,75.7512 ,1.40129 ,-0.35490 ,-3.48230 
405 ,75.9754 ,1.40344 ,-0.37544 ,-3.68377 
406 ,76.1835 ,1.40552 ,-0.37201 ,-3.65019 
407 ,76.3757 ,1.40750 ,-0.37886 ,-3.71735 
408 ,76.5837 ,1.40954 ,-0.39939 ,-3.91882 
409 ,76.7597 ,1.41154 ,-0.40966 ,-4.01955 
410 ,76.9517 ,1.41335 ,-0.41650 ,-4.08671 
411 ,77.1279 ,1.41511 ,-0.43361 ,-4.25460 
412 ,77.3200 ,1.41702 ,-0.43361 ,-4.25460 
413 ,77.5280 ,1.41906 ,-0.44730 ,-4.38891 
414 ,77.7038 ,1.42083 ,-0.46099 ,-4.52323 
415 ,77.8803 ,1.42265 ,-0.46783 ,-4.59038 
416 ,78.0884 ,1.42462 ,-0.48494 ,-4.75828 
417 ,78.2804 ,1.42670 ,-0.47810 ,-4.69112 
418 ,78.4565 ,1.42839 ,-0.48494 ,-4.75828 
419 ,78.6326 ,1.43012 ,-0.49863 ,-4.89259 
420 ,78.8084 ,1.43192 ,-0.50890 ,-4.99332 
421 ,78.9847 ,1.43367 ,-0.51232 ,-5.02690 
422 ,79.1769 ,1.43553 ,-0.52601 ,-5.16121 
423 ,79.4014 ,1.43765 ,-0.53970 ,-5.29553 
424 ,79.5928 ,1.43974 ,-0.53970 ,-5.29553 
425 ,79.7688 ,1.44151 ,-0.56023 ,-5.49700 
426 ,79.9930 ,1.44362 ,-0.57392 ,-5.63131 
427 ,80.1853 ,1.44569 ,-0.59103 ,-5.79920 
428 ,80.3773 ,1.44750 ,-0.57392 ,-5.63131 
429 ,80.5693 ,1.44945 ,-0.59445 ,-5.83278 
430 ,80.7455 ,1.45130 ,-0.60814 ,-5.96709 
431 ,80.9370 ,1.45315 ,-0.59103 ,-5.79920 
432 ,81.1136 ,1.45499 ,-0.61156 ,-6.00067 
433 ,81.3055 ,1.45689 ,-0.63210 ,-6.20214 
434 ,81.4978 ,1.45871 ,-0.62183 ,-6.10141 
435 ,81.6897 ,1.46073 ,-0.65605 ,-6.43719 
436 ,81.8817 ,1.46254 ,-0.64579 ,-6.33646 
437 ,82.0579 ,1.46439 ,-0.66290 ,-6.50435 
438 ,82.2339 ,1.46610 ,-0.65947 ,-6.47077 
439 ,82.4261 ,1.46806 ,-0.68685 ,-6.73940 
440 ,82.6182 ,1.46997 ,-0.68343 ,-6.70582 
441 ,82.8100 ,1.47187 ,-0.69027 ,-6.77297 
442 ,83.0024 ,1.47381 ,-0.69712 ,-6.84013 
443 ,83.1941 ,1.47579 ,-0.70054 ,-6.87371 
444 ,83.3865 ,1.47757 ,-0.72107 ,-7.07518 
445 ,83.5786 ,1.47952 ,-0.70396 ,-6.90729 
446 ,83.8026 ,1.48168 ,-0.72107 ,-7.07518 
447 ,83.9946 ,1.48373 ,-0.73818 ,-7.24307 
448 ,84.1705 ,1.48556 ,-0.74845 ,-7.34380 
449 ,84.3468 ,1.48732 ,-0.77583 ,-7.61243 
450 ,84.5544 ,1.48936 ,-0.76556 ,-7.51170 
451 ,84.7305 ,1.49107 ,-0.76898 ,-7.54527 
452 ,84.9065 ,1.49284 ,-0.78610 ,-7.71317 
453 ,85.0831 ,1.49468 ,-0.79636 ,-7.81390 
454 ,85.2586 ,1.49653 ,-0.78267 ,-7.67959 
455 ,85.4507 ,1.49822 ,-0.78267 ,-7.67959 
456 ,85.6432 ,1.50017 ,-0.80663 ,-7.91464 
457 ,85.8351 ,1.50216 ,-0.80663 ,-7.91464 
458 ,86.0271 ,1.50401 ,-0.84427 ,-8.28400 
459 ,86.2036 ,1.50587 ,-0.84085 ,-8.25042 
460 ,86.3956 ,1.50775 ,-0.83058 ,-8.14968 
461 ,86.5711 ,1.50955 ,-0.83743 ,-8.21684 
462 ,86.7633 ,1.51140 ,-0.85112 ,-8.35115 
463 ,86.9395 ,1.51319 ,-0.86138 ,-8.45189 
