Data stamp = , 20-04-2022 14:08:58 355

Calibration Values: 
Slope = , 26.54 , g/V 
Offset Voltage at no contact = , -0.501760 , V 

No , Time , Stage Position ,   Mass , Force 
   ,  (s) ,      (mm)      ,   (g)  , (mN)  

1 ,0.0000 ,0.64943 ,5.39776 ,52.96282 
2 ,0.2342 ,0.64956 ,5.39776 ,52.96282 
3 ,0.7299 ,0.65106 ,5.41487 ,53.13072 
4 ,0.9382 ,0.65345 ,5.40460 ,53.02998 
5 ,1.1623 ,0.65559 ,5.41487 ,53.13072 
6 ,1.3547 ,0.65755 ,5.39776 ,52.96282 
7 ,1.5302 ,0.65943 ,5.40118 ,52.99640 
8 ,1.7064 ,0.66118 ,5.37723 ,52.76135 
9 ,1.8825 ,0.66298 ,5.35669 ,52.55988 
10 ,2.0743 ,0.66485 ,5.32932 ,52.29126 
11 ,2.2665 ,0.66677 ,5.32932 ,52.29126 
12 ,2.4748 ,0.66876 ,5.29510 ,51.95548 
13 ,2.7311 ,0.67138 ,5.26772 ,51.68685 
14 ,2.9389 ,0.67345 ,5.26087 ,51.61969 
15 ,3.1311 ,0.67545 ,5.24034 ,51.41822 
16 ,3.3232 ,0.67746 ,5.20270 ,51.04886 
17 ,3.4992 ,0.67922 ,5.23350 ,51.35107 
18 ,3.6753 ,0.68103 ,5.18216 ,50.84739 
19 ,3.8516 ,0.68269 ,5.16163 ,50.64592 
20 ,4.0434 ,0.68454 ,5.13768 ,50.41087 
21 ,4.2355 ,0.68647 ,5.13425 ,50.37729 
22 ,4.4274 ,0.68842 ,5.12056 ,50.24298 
23 ,4.6357 ,0.69039 ,5.11030 ,50.14225 
24 ,4.8277 ,0.69246 ,5.06581 ,49.70573 
25 ,5.0198 ,0.69431 ,5.03501 ,49.40352 
26 ,5.2119 ,0.69625 ,5.03501 ,49.40352 
27 ,5.4040 ,0.69815 ,5.01448 ,49.20205 
28 ,5.5800 ,0.69993 ,4.98368 ,48.89985 
29 ,5.8201 ,0.70212 ,4.96999 ,48.76554 
30 ,6.0282 ,0.70438 ,4.96315 ,48.69838 
31 ,6.2042 ,0.70619 ,4.93577 ,48.42975 
32 ,6.4125 ,0.70810 ,4.91866 ,48.26186 
33 ,6.6044 ,0.71015 ,4.88786 ,47.95966 
34 ,6.7964 ,0.71207 ,4.87075 ,47.79177 
35 ,6.9726 ,0.71387 ,4.86048 ,47.69103 
36 ,7.1806 ,0.71588 ,4.82284 ,47.32167 
37 ,7.3567 ,0.71767 ,4.81599 ,47.25451 
38 ,7.5327 ,0.71944 ,4.81257 ,47.22093 
39 ,7.7087 ,0.72121 ,4.80915 ,47.18736 
40 ,7.8849 ,0.72301 ,4.76466 ,46.75084 
41 ,8.0929 ,0.72509 ,4.73044 ,46.41506 
42 ,8.3011 ,0.72701 ,4.74413 ,46.54937 
43 ,8.4931 ,0.72907 ,4.72359 ,46.34790 
44 ,8.6853 ,0.73099 ,4.70648 ,46.18001 
45 ,8.8611 ,0.73282 ,4.68253 ,45.94496 
46 ,9.0698 ,0.73472 ,4.65857 ,45.70991 
47 ,9.2614 ,0.73679 ,4.65515 ,45.67633 
48 ,9.4536 ,0.73865 ,4.63462 ,45.47486 
49 ,9.6617 ,0.74058 ,4.60040 ,45.13908 
50 ,9.8697 ,0.74273 ,4.59355 ,45.07192 
51 ,10.0457 ,0.74459 ,4.57302 ,44.87045 
52 ,10.2377 ,0.74640 ,4.55591 ,44.70256 
53 ,10.4298 ,0.74835 ,4.54222 ,44.56825 
54 ,10.6219 ,0.75025 ,4.50800 ,44.23247 
55 ,10.8618 ,0.75255 ,4.50800 ,44.23247 
56 ,11.0380 ,0.75450 ,4.47378 ,43.89668 
57 ,11.2302 ,0.75633 ,4.46351 ,43.79595 
58 ,11.4062 ,0.75824 ,4.42586 ,43.42659 
59 ,11.5822 ,0.76000 ,4.42929 ,43.46016 
60 ,11.7583 ,0.76179 ,4.40875 ,43.25870 
61 ,11.9345 ,0.76347 ,4.39507 ,43.12438 
62 ,12.1104 ,0.76528 ,4.39164 ,43.09080 
63 ,12.3025 ,0.76708 ,4.35742 ,42.75502 
64 ,12.4786 ,0.76890 ,4.33347 ,42.51997 
65 ,12.6547 ,0.77064 ,4.33004 ,42.48639 
66 ,12.8467 ,0.77248 ,4.30951 ,42.28492 
67 ,13.0227 ,0.77441 ,4.29924 ,42.18419 
68 ,13.2147 ,0.77618 ,4.29240 ,42.11703 
69 ,13.3909 ,0.77800 ,4.26845 ,41.88198 
70 ,13.5829 ,0.77987 ,4.23080 ,41.51262 
71 ,13.8067 ,0.78195 ,4.22396 ,41.44547 
72 ,14.0631 ,0.78437 ,4.20000 ,41.21042 
73 ,14.2233 ,0.78647 ,4.18974 ,41.10968 
74 ,14.3992 ,0.78812 ,4.16236 ,40.84106 
75 ,14.5754 ,0.78985 ,4.14867 ,40.70674 
76 ,14.7515 ,0.79160 ,4.14183 ,40.63959 
77 ,14.9276 ,0.79335 ,4.12471 ,40.47170 
78 ,15.1197 ,0.79523 ,4.08707 ,40.10233 
79 ,15.2957 ,0.79714 ,4.08707 ,40.10233 
80 ,15.4719 ,0.79886 ,4.07338 ,39.96802 
81 ,15.6484 ,0.80064 ,4.06312 ,39.86729 
82 ,15.8403 ,0.80247 ,4.03916 ,39.63224 
83 ,16.0322 ,0.80440 ,4.02205 ,39.46435 
84 ,16.2244 ,0.80635 ,3.99467 ,39.19572 
85 ,16.4166 ,0.80826 ,3.99125 ,39.16214 
86 ,16.5926 ,0.81001 ,3.99125 ,39.16214 
87 ,16.7685 ,0.81187 ,3.95018 ,38.75920 
88 ,16.9447 ,0.81356 ,3.92281 ,38.49058 
89 ,17.1204 ,0.81530 ,3.91938 ,38.45700 
90 ,17.2967 ,0.81711 ,3.89543 ,38.22195 
91 ,17.4730 ,0.81883 ,3.89201 ,38.18837 
92 ,17.6490 ,0.82060 ,3.87147 ,37.98690 
93 ,17.8252 ,0.82235 ,3.84752 ,37.75185 
94 ,18.0011 ,0.82407 ,3.82356 ,37.51681 
95 ,18.1929 ,0.82603 ,3.81672 ,37.44965 
96 ,18.3854 ,0.82791 ,3.79961 ,37.28176 
97 ,18.5774 ,0.82986 ,3.80303 ,37.31534 
98 ,18.7693 ,0.83186 ,3.77908 ,37.08029 
99 ,18.9455 ,0.83356 ,3.76196 ,36.91240 
100 ,19.1377 ,0.83535 ,3.72774 ,36.57661 
101 ,19.3294 ,0.83729 ,3.71405 ,36.44230 
102 ,19.5059 ,0.83913 ,3.70379 ,36.34157 
103 ,19.7140 ,0.84117 ,3.68668 ,36.17367 
104 ,19.9221 ,0.84320 ,3.68668 ,36.17367 
105 ,20.1140 ,0.84518 ,3.65930 ,35.90505 
106 ,20.2901 ,0.84699 ,3.64219 ,35.73716 
107 ,20.4662 ,0.84872 ,3.62850 ,35.60284 
108 ,20.6420 ,0.85053 ,3.60797 ,35.40137 
109 ,20.8341 ,0.85242 ,3.61139 ,35.43495 
110 ,21.0265 ,0.85432 ,3.56690 ,34.99843 
111 ,21.2186 ,0.85623 ,3.56690 ,34.99843 
112 ,21.3944 ,0.85803 ,3.56348 ,34.96485 
113 ,21.5869 ,0.85997 ,3.52584 ,34.59549 
114 ,21.7786 ,0.86184 ,3.52926 ,34.62907 
115 ,21.9546 ,0.86359 ,3.50530 ,34.39402 
116 ,22.1469 ,0.86554 ,3.47108 ,34.05824 
117 ,22.3387 ,0.86742 ,3.45397 ,33.89035 
118 ,22.5306 ,0.86932 ,3.43001 ,33.65530 
119 ,22.7548 ,0.87150 ,3.43686 ,33.72246 
120 ,22.9469 ,0.87350 ,3.42659 ,33.62172 
121 ,23.1710 ,0.87569 ,3.40264 ,33.38667 
122 ,23.3792 ,0.87775 ,3.36157 ,32.98374 
123 ,23.6031 ,0.87997 ,3.36842 ,33.05089 
124 ,23.7956 ,0.88197 ,3.32393 ,32.61437 
125 ,23.9875 ,0.88393 ,3.31366 ,32.51364 
126 ,24.1793 ,0.88589 ,3.31366 ,32.51364 
127 ,24.3555 ,0.88762 ,3.30339 ,32.41290 
128 ,24.5317 ,0.88942 ,3.26233 ,32.00996 
129 ,24.7077 ,0.89114 ,3.24864 ,31.87565 
130 ,24.8840 ,0.89291 ,3.23153 ,31.70776 
131 ,25.0601 ,0.89475 ,3.22811 ,31.67418 
132 ,25.2358 ,0.89646 ,3.22126 ,31.60702 
133 ,25.4119 ,0.89820 ,3.18704 ,31.27124 
134 ,25.5881 ,0.89995 ,3.16309 ,31.03619 
135 ,25.7801 ,0.90186 ,3.18020 ,31.20409 
136 ,25.9565 ,0.90363 ,3.14255 ,30.83472 
137 ,26.1644 ,0.90561 ,3.14255 ,30.83472 
138 ,26.3567 ,0.90753 ,3.11175 ,30.53252 
139 ,26.5324 ,0.90944 ,3.09806 ,30.39821 
140 ,26.7086 ,0.91113 ,3.06726 ,30.09600 
141 ,26.8844 ,0.91288 ,3.07411 ,30.16316 
142 ,27.0769 ,0.91479 ,3.05700 ,29.99527 
143 ,27.2689 ,0.91674 ,3.02278 ,29.65948 
144 ,27.4609 ,0.91864 ,3.02278 ,29.65948 
145 ,27.6690 ,0.92058 ,2.99882 ,29.42444 
146 ,27.8772 ,0.92273 ,2.99198 ,29.35728 
147 ,28.0692 ,0.92470 ,2.96802 ,29.12223 
148 ,28.2614 ,0.92661 ,2.95091 ,28.95434 
149 ,28.4532 ,0.92852 ,2.92353 ,28.68571 
150 ,28.6296 ,0.93033 ,2.90642 ,28.51782 
151 ,28.8215 ,0.93221 ,2.91669 ,28.61856 
152 ,28.9978 ,0.93403 ,2.88589 ,28.31635 
153 ,29.1898 ,0.93584 ,2.86536 ,28.11488 
154 ,29.3816 ,0.93789 ,2.86536 ,28.11488 
155 ,29.5739 ,0.93980 ,2.83114 ,27.77910 
156 ,29.7661 ,0.94165 ,2.82429 ,27.71194 
157 ,29.9421 ,0.94352 ,2.80718 ,27.54405 
158 ,30.1338 ,0.94539 ,2.78665 ,27.34258 
159 ,30.3262 ,0.94728 ,2.78665 ,27.34258 
160 ,30.5023 ,0.94918 ,2.75927 ,27.07395 
161 ,30.6783 ,0.95084 ,2.76269 ,27.10753 
162 ,30.8705 ,0.95264 ,2.73531 ,26.83891 
163 ,31.0625 ,0.95457 ,2.71820 ,26.67101 
164 ,31.2382 ,0.95640 ,2.70109 ,26.50312 
165 ,31.4148 ,0.95818 ,2.68056 ,26.30165 
166 ,31.6228 ,0.96018 ,2.67372 ,26.23450 
167 ,31.8149 ,0.96216 ,2.64634 ,25.96587 
168 ,31.9906 ,0.96394 ,2.62581 ,25.76440 
169 ,32.1671 ,0.96570 ,2.60185 ,25.52935 
170 ,32.3429 ,0.96757 ,2.60527 ,25.56293 
171 ,32.5191 ,0.96920 ,2.58816 ,25.39504 
172 ,32.7111 ,0.97113 ,2.55736 ,25.09283 
173 ,32.9032 ,0.97305 ,2.56078 ,25.12641 
174 ,33.0794 ,0.97480 ,2.54710 ,24.99210 
175 ,33.2554 ,0.97669 ,2.51287 ,24.65632 
176 ,33.4313 ,0.97828 ,2.49576 ,24.48842 
177 ,33.6074 ,0.98012 ,2.48550 ,24.38769 
178 ,33.7995 ,0.98206 ,2.48207 ,24.35411 
179 ,34.0076 ,0.98403 ,2.47181 ,24.25338 
180 ,34.1998 ,0.98604 ,2.45812 ,24.11906 
181 ,34.3918 ,0.98792 ,2.43416 ,23.88402 
182 ,34.5837 ,0.98978 ,2.43416 ,23.88402 
183 ,34.7599 ,0.99171 ,2.39652 ,23.51465 
184 ,34.9519 ,0.99351 ,2.38968 ,23.44750 
185 ,35.1442 ,0.99538 ,2.38283 ,23.38034 
186 ,35.3362 ,0.99729 ,2.34861 ,23.04456 
187 ,35.5120 ,0.99920 ,2.34861 ,23.04456 
188 ,35.7043 ,1.00102 ,2.33150 ,22.87667 
189 ,35.8965 ,1.00292 ,2.32808 ,22.84309 
190 ,36.0884 ,1.00484 ,2.29385 ,22.50731 
191 ,36.2647 ,1.00676 ,2.29385 ,22.50731 
192 ,36.4405 ,1.00848 ,2.25621 ,22.13794 
193 ,36.6164 ,1.01029 ,2.24937 ,22.07079 
194 ,36.7927 ,1.01194 ,2.22199 ,21.80216 
195 ,36.9845 ,1.01385 ,2.23568 ,21.93647 
196 ,37.1609 ,1.01558 ,2.22199 ,21.80216 
197 ,37.3527 ,1.01752 ,2.19803 ,21.56711 
198 ,37.5286 ,1.01937 ,2.19119 ,21.49996 
199 ,37.7049 ,1.02105 ,2.17408 ,21.33206 
200 ,37.8969 ,1.02297 ,2.16381 ,21.23133 
201 ,38.1049 ,1.02492 ,2.12617 ,20.86197 
202 ,38.3293 ,1.02710 ,2.12959 ,20.89555 
203 ,38.5214 ,1.02925 ,2.10906 ,20.69408 
204 ,38.7134 ,1.03112 ,2.08510 ,20.45903 
205 ,38.8895 ,1.03290 ,2.07141 ,20.32472 
206 ,39.0654 ,1.03466 ,2.06799 ,20.29114 
207 ,39.2416 ,1.03645 ,2.07141 ,20.32472 
208 ,39.4180 ,1.03819 ,2.02693 ,19.88820 
209 ,39.5940 ,1.03997 ,2.01666 ,19.78746 
210 ,39.7857 ,1.04185 ,1.99955 ,19.61957 
211 ,39.9781 ,1.04376 ,1.98928 ,19.51884 
212 ,40.1702 ,1.04567 ,1.98244 ,19.45168 
213 ,40.3464 ,1.04756 ,1.97217 ,19.35094 
214 ,40.5062 ,1.04915 ,1.95848 ,19.21663 
215 ,40.6823 ,1.05081 ,1.94822 ,19.11590 
216 ,40.8744 ,1.05266 ,1.91399 ,18.78011 
217 ,41.0505 ,1.05460 ,1.91399 ,18.78011 
218 ,41.2422 ,1.05645 ,1.89688 ,18.61222 
219 ,41.4345 ,1.05832 ,1.88319 ,18.47791 
220 ,41.6266 ,1.06031 ,1.87635 ,18.41075 
221 ,41.8185 ,1.06218 ,1.85240 ,18.17570 
222 ,41.9947 ,1.06393 ,1.81817 ,17.83992 
223 ,42.1866 ,1.06582 ,1.83528 ,18.00781 
224 ,42.3788 ,1.06783 ,1.79764 ,17.63845 
225 ,42.5708 ,1.06961 ,1.79764 ,17.63845 
226 ,42.7470 ,1.07146 ,1.79080 ,17.57129 
227 ,42.9554 ,1.07340 ,1.76342 ,17.30267 
228 ,43.1470 ,1.07552 ,1.74631 ,17.13478 
229 ,43.3234 ,1.07724 ,1.74631 ,17.13478 
230 ,43.5156 ,1.07910 ,1.72235 ,16.89973 
231 ,43.7236 ,1.08113 ,1.70182 ,16.69826 
232 ,43.9476 ,1.08337 ,1.69155 ,16.59752 
233 ,44.1398 ,1.08538 ,1.68813 ,16.56395 
234 ,44.3481 ,1.08741 ,1.66418 ,16.32890 
235 ,44.5559 ,1.08951 ,1.64022 ,16.09385 
236 ,44.7481 ,1.09140 ,1.63680 ,16.06027 
237 ,44.9241 ,1.09323 ,1.63680 ,16.06027 
238 ,45.0999 ,1.09497 ,1.60942 ,15.79164 
239 ,45.2759 ,1.09685 ,1.58547 ,15.55660 
240 ,45.4523 ,1.09852 ,1.56836 ,15.38871 
241 ,45.6442 ,1.10040 ,1.57520 ,15.45586 
242 ,45.8205 ,1.10216 ,1.56493 ,15.35513 
243 ,45.9966 ,1.10394 ,1.52729 ,14.98577 
244 ,46.1723 ,1.10573 ,1.52387 ,14.95219 
245 ,46.3484 ,1.10747 ,1.53413 ,15.05292 
246 ,46.5248 ,1.10923 ,1.51702 ,14.88503 
247 ,46.7006 ,1.11096 ,1.49307 ,14.64998 
248 ,46.8929 ,1.11293 ,1.48622 ,14.58283 
249 ,47.0691 ,1.11471 ,1.45885 ,14.31420 
250 ,47.2450 ,1.11644 ,1.45542 ,14.28062 
251 ,47.4208 ,1.11812 ,1.44174 ,14.14631 
252 ,47.6133 ,1.12004 ,1.41436 ,13.87768 
253 ,47.8374 ,1.12220 ,1.39040 ,13.64263 
254 ,48.0450 ,1.12434 ,1.41094 ,13.84410 
255 ,48.2215 ,1.12621 ,1.38698 ,13.60906 
256 ,48.3975 ,1.12792 ,1.35618 ,13.30685 
257 ,48.5732 ,1.12972 ,1.34249 ,13.17254 
258 ,48.7499 ,1.13147 ,1.35276 ,13.27327 
259 ,48.9415 ,1.13342 ,1.33223 ,13.07180 
260 ,49.1177 ,1.13513 ,1.30827 ,12.83675 
261 ,49.2938 ,1.13688 ,1.29800 ,12.73602 
262 ,49.4700 ,1.13866 ,1.29800 ,12.73602 
263 ,49.6620 ,1.14058 ,1.28774 ,12.63528 
264 ,49.8382 ,1.14233 ,1.25694 ,12.33308 
265 ,50.0300 ,1.14420 ,1.25694 ,12.33308 
266 ,50.2064 ,1.14608 ,1.25352 ,12.29950 
267 ,50.3985 ,1.14790 ,1.21245 ,11.89656 
268 ,50.5743 ,1.14981 ,1.21929 ,11.96372 
269 ,50.7506 ,1.15145 ,1.20561 ,11.82941 
270 ,50.9424 ,1.15336 ,1.18850 ,11.66151 
271 ,51.1347 ,1.15523 ,1.18507 ,11.62794 
272 ,51.3269 ,1.15715 ,1.17823 ,11.56078 
273 ,51.5025 ,1.15900 ,1.14401 ,11.22500 
274 ,51.6792 ,1.16074 ,1.13374 ,11.12426 
275 ,51.8869 ,1.16278 ,1.12347 ,11.02353 
276 ,52.0631 ,1.16459 ,1.10636 ,10.85563 
277 ,52.2549 ,1.16647 ,1.10636 ,10.85563 
278 ,52.4788 ,1.16858 ,1.06872 ,10.48627 
279 ,52.6870 ,1.17071 ,1.07556 ,10.55343 
280 ,52.8791 ,1.17269 ,1.05161 ,10.31838 
281 ,53.0393 ,1.17447 ,1.02765 ,10.08333 
282 ,53.2155 ,1.17613 ,1.02423 ,10.04976 
283 ,53.3914 ,1.17784 ,1.02423 ,10.04976 
284 ,53.5673 ,1.17966 ,1.01054 ,9.91544 
285 ,53.7596 ,1.18163 ,0.98317 ,9.64682 
286 ,53.9514 ,1.18340 ,1.01054 ,9.91544 
287 ,54.1277 ,1.18526 ,0.97974 ,9.61324 
288 ,54.3198 ,1.18715 ,0.94894 ,9.31103 
289 ,54.5119 ,1.18903 ,0.94210 ,9.24388 
290 ,54.7040 ,1.19093 ,0.93868 ,9.21030 
291 ,54.8962 ,1.19286 ,0.91814 ,9.00883 
292 ,55.0878 ,1.19480 ,0.91472 ,8.97525 
293 ,55.2643 ,1.19660 ,0.90446 ,8.87451 
294 ,55.4565 ,1.19850 ,0.87366 ,8.57231 
295 ,55.6645 ,1.20060 ,0.86339 ,8.47158 
296 ,55.9044 ,1.20301 ,0.84628 ,8.30368 
297 ,56.1124 ,1.20501 ,0.83943 ,8.23653 
298 ,56.3050 ,1.20691 ,0.82575 ,8.10221 
299 ,56.5128 ,1.20898 ,0.80521 ,7.90074 
300 ,56.6889 ,1.21089 ,0.79495 ,7.80001 
301 ,56.8652 ,1.21257 ,0.79837 ,7.83359 
302 ,57.0569 ,1.21446 ,0.76757 ,7.53138 
303 ,57.2807 ,1.21655 ,0.75730 ,7.43065 
304 ,57.4729 ,1.21860 ,0.76072 ,7.46423 
305 ,57.6654 ,1.22060 ,0.75046 ,7.36349 
306 ,57.8580 ,1.22250 ,0.72308 ,7.09486 
307 ,58.0335 ,1.22423 ,0.69913 ,6.85982 
308 ,58.2091 ,1.22608 ,0.70597 ,6.92697 
309 ,58.3852 ,1.22780 ,0.69228 ,6.79266 
310 ,58.5773 ,1.22965 ,0.66833 ,6.55761 
311 ,58.7533 ,1.23150 ,0.65806 ,6.45688 
312 ,58.9298 ,1.23328 ,0.65121 ,6.38972 
313 ,59.1056 ,1.23503 ,0.64095 ,6.28899 
314 ,59.2977 ,1.23688 ,0.61699 ,6.05394 
315 ,59.4898 ,1.23875 ,0.62384 ,6.12109 
316 ,59.6822 ,1.24069 ,0.59646 ,5.85247 
317 ,59.8580 ,1.24248 ,0.58962 ,5.78531 
318 ,60.0503 ,1.24443 ,0.58277 ,5.71815 
319 ,60.2421 ,1.24637 ,0.56224 ,5.51668 
320 ,60.4181 ,1.24812 ,0.55539 ,5.44953 
321 ,60.5945 ,1.24997 ,0.54513 ,5.34879 
322 ,60.7865 ,1.25179 ,0.54513 ,5.34879 
323 ,60.9626 ,1.25363 ,0.51775 ,5.08017 
324 ,61.1385 ,1.25536 ,0.51775 ,5.08017 
325 ,61.3306 ,1.25713 ,0.50064 ,4.91228 
326 ,61.5225 ,1.25914 ,0.49380 ,4.84512 
327 ,61.6985 ,1.26087 ,0.46300 ,4.54291 
328 ,61.8587 ,1.26262 ,0.46984 ,4.61007 
329 ,62.0509 ,1.26437 ,0.45273 ,4.44218 
330 ,62.2430 ,1.26638 ,0.44246 ,4.34144 
331 ,62.4348 ,1.26822 ,0.44246 ,4.34144 
332 ,62.6107 ,1.27007 ,0.42535 ,4.17355 
333 ,62.7869 ,1.27183 ,0.40140 ,3.93850 
334 ,62.9469 ,1.27352 ,0.40140 ,3.93850 
335 ,63.1235 ,1.27519 ,0.38771 ,3.80419 
336 ,63.3153 ,1.27708 ,0.37060 ,3.63630 
337 ,63.5076 ,1.27892 ,0.36718 ,3.60272 
338 ,63.6833 ,1.28078 ,0.36033 ,3.53557 
339 ,63.8759 ,1.28258 ,0.35691 ,3.50199 
340 ,64.0679 ,1.28459 ,0.34322 ,3.36767 
341 ,64.2439 ,1.28647 ,0.30558 ,2.99831 
342 ,64.4200 ,1.28812 ,0.30900 ,3.03189 
343 ,64.6121 ,1.28998 ,0.30558 ,2.99831 
344 ,64.8039 ,1.29193 ,0.29189 ,2.86400 
345 ,64.9800 ,1.29370 ,0.27478 ,2.69611 
346 ,65.1720 ,1.29559 ,0.27135 ,2.66253 
347 ,65.3482 ,1.29741 ,0.26451 ,2.59537 
348 ,65.5401 ,1.29929 ,0.23713 ,2.32675 
349 ,65.7325 ,1.30115 ,0.24740 ,2.42748 
350 ,65.9081 ,1.30306 ,0.21660 ,2.12528 
351 ,66.0846 ,1.30473 ,0.20976 ,2.05812 
352 ,66.2605 ,1.30649 ,0.18922 ,1.85665 
353 ,66.4369 ,1.30829 ,0.18922 ,1.85665 
354 ,66.6289 ,1.31023 ,0.19607 ,1.92381 
355 ,66.8209 ,1.31211 ,0.16527 ,1.62160 
356 ,67.0130 ,1.31403 ,0.14816 ,1.45371 
357 ,67.1891 ,1.31579 ,0.16185 ,1.58802 
358 ,67.3652 ,1.31760 ,0.13105 ,1.28582 
359 ,67.5573 ,1.31938 ,0.13789 ,1.35298 
360 ,67.7332 ,1.32123 ,0.12420 ,1.21866 
361 ,67.9093 ,1.32299 ,0.11736 ,1.15151 
362 ,68.1176 ,1.32499 ,0.09682 ,0.95004 
363 ,68.3254 ,1.32705 ,0.07629 ,0.74857 
364 ,68.5177 ,1.32901 ,0.06602 ,0.64783 
365 ,68.7096 ,1.33091 ,0.04549 ,0.44636 
366 ,68.9018 ,1.33286 ,0.03865 ,0.37920 
367 ,69.0774 ,1.33476 ,0.04549 ,0.44636 
368 ,69.2539 ,1.33643 ,0.04891 ,0.47994 
369 ,69.4302 ,1.33817 ,0.03180 ,0.31205 
370 ,69.6059 ,1.33996 ,0.01811 ,0.17773 
371 ,69.7979 ,1.34183 ,0.00785 ,0.07700 
372 ,69.9899 ,1.34387 ,-0.01269 ,-0.12447 
373 ,70.1660 ,1.34566 ,-0.02637 ,-0.25878 
374 ,70.3424 ,1.34731 ,-0.04006 ,-0.39310 
375 ,70.5345 ,1.34922 ,-0.02980 ,-0.29236 
376 ,70.7264 ,1.35115 ,-0.05375 ,-0.52741 
377 ,70.9185 ,1.35298 ,-0.06060 ,-0.59457 
378 ,71.0947 ,1.35484 ,-0.06744 ,-0.66172 
379 ,71.2544 ,1.35653 ,-0.06744 ,-0.66172 
380 ,71.4306 ,1.35822 ,-0.08797 ,-0.86319 
381 ,71.6227 ,1.36009 ,-0.11193 ,-1.09824 
382 ,71.7988 ,1.36188 ,-0.12219 ,-1.19898 
383 ,71.9751 ,1.36365 ,-0.10508 ,-1.03108 
384 ,72.1671 ,1.36561 ,-0.14615 ,-1.43402 
385 ,72.3431 ,1.36739 ,-0.13931 ,-1.36687 
386 ,72.5193 ,1.36914 ,-0.13588 ,-1.33329 
387 ,72.7113 ,1.37099 ,-0.14957 ,-1.46760 
388 ,72.9035 ,1.37290 ,-0.16668 ,-1.63549 
389 ,73.0795 ,1.37468 ,-0.19064 ,-1.87054 
390 ,73.2879 ,1.37668 ,-0.19406 ,-1.90412 
391 ,73.4794 ,1.37864 ,-0.21117 ,-2.07201 
392 ,73.6559 ,1.38044 ,-0.21117 ,-2.07201 
393 ,73.8479 ,1.38238 ,-0.21459 ,-2.10559 
394 ,74.0561 ,1.38434 ,-0.21802 ,-2.13917 
395 ,74.2479 ,1.38633 ,-0.23513 ,-2.30706 
396 ,74.4398 ,1.38831 ,-0.24539 ,-2.40779 
397 ,74.6163 ,1.39001 ,-0.26935 ,-2.64284 
398 ,74.8079 ,1.39201 ,-0.27961 ,-2.74358 
399 ,74.9844 ,1.39370 ,-0.29330 ,-2.87789 
400 ,75.1602 ,1.39543 ,-0.29330 ,-2.87789 
401 ,75.3526 ,1.39740 ,-0.28988 ,-2.84431 
402 ,75.5283 ,1.39920 ,-0.31726 ,-3.11294 
403 ,75.7047 ,1.40092 ,-0.33095 ,-3.24725 
404 ,75.8966 ,1.40284 ,-0.32410 ,-3.18010 
405 ,76.0887 ,1.40470 ,-0.34121 ,-3.34799 
406 ,76.2807 ,1.40666 ,-0.35490 ,-3.48230 
407 ,76.4730 ,1.40858 ,-0.34806 ,-3.41514 
408 ,76.7125 ,1.41087 ,-0.37544 ,-3.68377 
409 ,76.9210 ,1.41300 ,-0.35832 ,-3.51588 
410 ,77.0972 ,1.41489 ,-0.37886 ,-3.71735 
411 ,77.3056 ,1.41686 ,-0.40623 ,-3.98597 
412 ,77.4973 ,1.41884 ,-0.38570 ,-3.78450 
413 ,77.6892 ,1.42069 ,-0.40966 ,-4.01955 
414 ,77.8811 ,1.42263 ,-0.43019 ,-4.22102 
415 ,78.0576 ,1.42443 ,-0.42677 ,-4.18744 
416 ,78.2336 ,1.42620 ,-0.42677 ,-4.18744 
417 ,78.4093 ,1.42797 ,-0.44046 ,-4.32176 
418 ,78.5856 ,1.42967 ,-0.45757 ,-4.48965 
419 ,78.7775 ,1.43160 ,-0.44730 ,-4.38891 
420 ,78.9540 ,1.43342 ,-0.45757 ,-4.48965 
421 ,79.1619 ,1.43537 ,-0.48494 ,-4.75828 
422 ,79.3699 ,1.43738 ,-0.49521 ,-4.85901 
423 ,79.5618 ,1.43947 ,-0.50548 ,-4.95975 
424 ,79.7380 ,1.44123 ,-0.50890 ,-4.99332 
425 ,79.9140 ,1.44305 ,-0.53628 ,-5.26195 
426 ,80.0902 ,1.44473 ,-0.53628 ,-5.26195 
427 ,80.2825 ,1.44670 ,-0.53628 ,-5.26195 
428 ,80.4587 ,1.44842 ,-0.53285 ,-5.22837 
429 ,80.6667 ,1.45046 ,-0.57050 ,-5.59773 
430 ,80.8746 ,1.45256 ,-0.56365 ,-5.53058 
431 ,81.0825 ,1.45458 ,-0.58761 ,-5.76562 
432 ,81.2745 ,1.45659 ,-0.58761 ,-5.76562 
433 ,81.4670 ,1.45846 ,-0.60814 ,-5.96709 
434 ,81.6751 ,1.46049 ,-0.59445 ,-5.83278 
435 ,81.8827 ,1.46256 ,-0.62525 ,-6.13499 
436 ,82.0909 ,1.46470 ,-0.62183 ,-6.10141 
437 ,82.2834 ,1.46671 ,-0.64236 ,-6.30288 
438 ,82.4751 ,1.46858 ,-0.63894 ,-6.26930 
439 ,82.6514 ,1.47037 ,-0.64921 ,-6.37003 
440 ,82.8432 ,1.47222 ,-0.66632 ,-6.53793 
441 ,83.0356 ,1.47420 ,-0.67316 ,-6.60508 
442 ,83.2273 ,1.47611 ,-0.68685 ,-6.73940 
443 ,83.4196 ,1.47801 ,-0.68001 ,-6.67224 
444 ,83.5798 ,1.47977 ,-0.69370 ,-6.80655 
445 ,83.7559 ,1.48140 ,-0.70396 ,-6.90729 
446 ,83.9481 ,1.48330 ,-0.71765 ,-7.04160 
447 ,84.1399 ,1.48518 ,-0.70739 ,-6.94086 
448 ,84.4279 ,1.48768 ,-0.75187 ,-7.37738 
449 ,84.6840 ,1.49054 ,-0.73476 ,-7.20949 
450 ,84.8764 ,1.49255 ,-0.74161 ,-7.27665 
451 ,85.0683 ,1.49448 ,-0.76898 ,-7.54527 
452 ,85.2441 ,1.49624 ,-0.76556 ,-7.51170 
453 ,85.4365 ,1.49812 ,-0.78267 ,-7.67959 
454 ,85.6123 ,1.50006 ,-0.79636 ,-7.81390 
455 ,85.7883 ,1.50169 ,-0.80321 ,-7.88106 
456 ,85.9648 ,1.50348 ,-0.81347 ,-7.98179 
457 ,86.1569 ,1.50538 ,-0.81689 ,-8.01537 
458 ,86.3328 ,1.50714 ,-0.82032 ,-8.04895 
459 ,86.5087 ,1.50895 ,-0.82032 ,-8.04895 
460 ,86.6852 ,1.51064 ,-0.84427 ,-8.28400 
461 ,86.8771 ,1.51253 ,-0.83401 ,-8.18326 
462 ,87.0534 ,1.51436 ,-0.84769 ,-8.31758 
463 ,87.2453 ,1.51631 ,-0.86481 ,-8.48547 
