Data stamp = , 21-04-2022 10:36:33 590

Calibration Values: 
Slope = , 26.54 , g/V 
Offset Voltage at no contact = , -0.501760 , V 

No , Time , Stage Position ,   Mass , Force 
   ,  (s) ,      (mm)      ,   (g)  , (mN)  

1 ,0.0000 ,0.64937 ,5.28825 ,51.88832 
2 ,0.2272 ,0.64946 ,5.32247 ,52.22410 
3 ,0.4834 ,0.65016 ,5.29852 ,51.98905 
4 ,0.6751 ,0.65140 ,5.29510 ,51.95548 
5 ,0.8673 ,0.65282 ,5.31563 ,52.15694 
6 ,1.0594 ,0.65468 ,5.30194 ,52.02263 
7 ,1.2677 ,0.65672 ,5.32247 ,52.22410 
8 ,1.4437 ,0.65849 ,5.30536 ,52.05621 
9 ,1.6197 ,0.66030 ,5.28483 ,51.85474 
10 ,1.8119 ,0.66221 ,5.28825 ,51.88832 
11 ,1.9877 ,0.66408 ,5.25403 ,51.55254 
12 ,2.1802 ,0.66588 ,5.22323 ,51.25033 
13 ,2.3562 ,0.66768 ,5.21296 ,51.14960 
14 ,2.5643 ,0.66975 ,5.20612 ,51.08244 
15 ,2.7563 ,0.67170 ,5.17190 ,50.74666 
16 ,2.9324 ,0.67349 ,5.15479 ,50.57876 
17 ,3.1246 ,0.67542 ,5.14110 ,50.44445 
18 ,3.3167 ,0.67731 ,5.11372 ,50.17583 
19 ,3.5088 ,0.67926 ,5.11030 ,50.14225 
20 ,3.6844 ,0.68104 ,5.08977 ,49.94078 
21 ,3.8607 ,0.68272 ,5.06923 ,49.73931 
22 ,4.0688 ,0.68473 ,5.06239 ,49.67215 
23 ,4.2449 ,0.68658 ,5.03159 ,49.36995 
24 ,4.4371 ,0.68851 ,5.00763 ,49.13490 
25 ,4.6290 ,0.69039 ,5.01106 ,49.16848 
26 ,4.8052 ,0.69222 ,4.98368 ,48.89985 
27 ,4.9811 ,0.69396 ,4.95288 ,48.59764 
28 ,5.1573 ,0.69571 ,4.93577 ,48.42975 
29 ,5.3495 ,0.69754 ,4.92208 ,48.29544 
30 ,5.5736 ,0.69979 ,4.89812 ,48.06039 
31 ,5.7496 ,0.70167 ,4.86732 ,47.75819 
32 ,5.9413 ,0.70352 ,4.84679 ,47.55672 
33 ,6.1172 ,0.70525 ,4.83995 ,47.48956 
34 ,6.2934 ,0.70707 ,4.81257 ,47.22093 
35 ,6.4858 ,0.70888 ,4.81257 ,47.22093 
36 ,6.6618 ,0.71076 ,4.79204 ,47.01946 
37 ,6.8378 ,0.71247 ,4.76808 ,46.78442 
38 ,7.0142 ,0.71428 ,4.76124 ,46.71726 
39 ,7.2062 ,0.71613 ,4.73386 ,46.44863 
40 ,7.3979 ,0.71801 ,4.72017 ,46.31432 
41 ,7.5744 ,0.71987 ,4.69964 ,46.11285 
42 ,7.7822 ,0.72197 ,4.67911 ,45.91138 
43 ,7.9744 ,0.72390 ,4.65857 ,45.70991 
44 ,8.1505 ,0.72557 ,4.65173 ,45.64275 
45 ,8.3426 ,0.72750 ,4.62777 ,45.40771 
46 ,8.5347 ,0.72942 ,4.62435 ,45.37413 
47 ,8.7427 ,0.73147 ,4.59355 ,45.07192 
48 ,8.9191 ,0.73325 ,4.56617 ,44.80330 
49 ,9.1109 ,0.73518 ,4.56960 ,44.83688 
50 ,9.3030 ,0.73704 ,4.55591 ,44.70256 
51 ,9.4949 ,0.73900 ,4.52853 ,44.43394 
52 ,9.6870 ,0.74099 ,4.50457 ,44.19889 
53 ,9.8793 ,0.74289 ,4.48404 ,43.99742 
54 ,10.0554 ,0.74469 ,4.47035 ,43.86310 
55 ,10.2474 ,0.74650 ,4.46009 ,43.76237 
56 ,10.4395 ,0.74845 ,4.42586 ,43.42659 
57 ,10.6311 ,0.75038 ,4.42929 ,43.46016 
58 ,10.8077 ,0.75219 ,4.41902 ,43.35943 
59 ,11.0157 ,0.75423 ,4.37795 ,42.95649 
60 ,11.1919 ,0.75599 ,4.38480 ,43.02365 
61 ,11.4000 ,0.75806 ,4.34716 ,42.65429 
62 ,11.5920 ,0.75997 ,4.33689 ,42.55355 
63 ,11.7680 ,0.76189 ,4.32320 ,42.41924 
64 ,11.9442 ,0.76354 ,4.30951 ,42.28492 
65 ,12.1363 ,0.76533 ,4.26502 ,41.84841 
66 ,12.3444 ,0.76746 ,4.26160 ,41.81483 
67 ,12.5364 ,0.76934 ,4.23765 ,41.57978 
68 ,12.7280 ,0.77134 ,4.22738 ,41.47905 
69 ,12.9046 ,0.77316 ,4.21369 ,41.34473 
70 ,13.0965 ,0.77504 ,4.17605 ,40.97537 
71 ,13.3042 ,0.77710 ,4.15209 ,40.74032 
72 ,13.4804 ,0.77887 ,4.13840 ,40.60601 
73 ,13.6568 ,0.78065 ,4.13498 ,40.57243 
74 ,13.8486 ,0.78253 ,4.11103 ,40.33738 
75 ,14.0249 ,0.78434 ,4.12129 ,40.43812 
76 ,14.2009 ,0.78612 ,4.09049 ,40.13591 
77 ,14.4090 ,0.78800 ,4.07680 ,40.00160 
78 ,14.6012 ,0.79007 ,4.04600 ,39.69940 
79 ,14.7933 ,0.79199 ,4.03574 ,39.59866 
80 ,14.9691 ,0.79383 ,4.01520 ,39.39719 
81 ,15.1455 ,0.79553 ,4.01520 ,39.39719 
82 ,15.3373 ,0.79741 ,3.97072 ,38.96067 
83 ,15.5457 ,0.79941 ,3.98098 ,39.06141 
84 ,15.7372 ,0.80136 ,3.95703 ,38.82636 
85 ,15.9137 ,0.80322 ,3.93650 ,38.62489 
86 ,16.0896 ,0.80494 ,3.93307 ,38.59131 
87 ,16.2818 ,0.80684 ,3.91596 ,38.42342 
88 ,16.4899 ,0.80891 ,3.89543 ,38.22195 
89 ,16.6661 ,0.81074 ,3.87832 ,38.05406 
90 ,16.8580 ,0.81275 ,3.85094 ,37.78543 
91 ,17.0338 ,0.81442 ,3.83383 ,37.61754 
92 ,17.2263 ,0.81625 ,3.80987 ,37.38249 
93 ,17.4338 ,0.81837 ,3.81330 ,37.41607 
94 ,17.6263 ,0.82030 ,3.76881 ,36.97955 
95 ,17.8346 ,0.82237 ,3.76196 ,36.91240 
96 ,18.0264 ,0.82428 ,3.74828 ,36.77808 
97 ,18.2188 ,0.82623 ,3.71405 ,36.44230 
98 ,18.4265 ,0.82829 ,3.71405 ,36.44230 
99 ,18.6190 ,0.83019 ,3.67641 ,36.07294 
100 ,18.7948 ,0.83205 ,3.67299 ,36.03936 
101 ,18.9710 ,0.83381 ,3.67299 ,36.03936 
102 ,19.1629 ,0.83565 ,3.64561 ,35.77073 
103 ,19.3553 ,0.83753 ,3.63192 ,35.63642 
104 ,19.5631 ,0.83964 ,3.60454 ,35.36779 
105 ,19.7393 ,0.84142 ,3.59086 ,35.23348 
106 ,19.9313 ,0.84330 ,3.57375 ,35.06559 
107 ,20.1234 ,0.84532 ,3.55321 ,34.86412 
108 ,20.2831 ,0.84700 ,3.54637 ,34.79696 
109 ,20.4593 ,0.84865 ,3.52241 ,34.56192 
110 ,20.6353 ,0.85041 ,3.50530 ,34.39402 
111 ,20.7957 ,0.85213 ,3.50872 ,34.42760 
112 ,20.9878 ,0.85392 ,3.49846 ,34.32687 
113 ,21.1798 ,0.85580 ,3.46424 ,33.99108 
114 ,21.3555 ,0.85761 ,3.44370 ,33.78961 
115 ,21.5482 ,0.85946 ,3.43686 ,33.72246 
116 ,21.7396 ,0.86146 ,3.41633 ,33.52099 
117 ,21.9157 ,0.86321 ,3.39921 ,33.35310 
118 ,22.1083 ,0.86503 ,3.38895 ,33.25236 
119 ,22.3001 ,0.86698 ,3.36157 ,32.98374 
120 ,22.4763 ,0.86886 ,3.34104 ,32.78227 
121 ,22.6523 ,0.87054 ,3.34446 ,32.81584 
122 ,22.8286 ,0.87235 ,3.33762 ,32.74869 
123 ,23.0202 ,0.87417 ,3.29655 ,32.34575 
124 ,23.1803 ,0.87598 ,3.27259 ,32.11070 
125 ,23.3564 ,0.87759 ,3.27602 ,32.14428 
126 ,23.5324 ,0.87936 ,3.25206 ,31.90923 
127 ,23.6924 ,0.88109 ,3.24522 ,31.84207 
128 ,23.8525 ,0.88270 ,3.23153 ,31.70776 
129 ,24.0286 ,0.88433 ,3.21784 ,31.57345 
130 ,24.2048 ,0.88609 ,3.20073 ,31.40555 
131 ,24.3648 ,0.88783 ,3.18020 ,31.20409 
132 ,24.5249 ,0.88942 ,3.17335 ,31.13693 
133 ,24.7008 ,0.89106 ,3.16309 ,31.03619 
134 ,24.8770 ,0.89283 ,3.12886 ,30.70041 
135 ,25.0530 ,0.89463 ,3.13571 ,30.76757 
136 ,25.2292 ,0.89632 ,3.11860 ,30.59968 
137 ,25.4213 ,0.89816 ,3.09464 ,30.36463 
138 ,25.5813 ,0.89998 ,3.07753 ,30.19674 
139 ,25.7574 ,0.90160 ,3.06384 ,30.06242 
140 ,25.9334 ,0.90336 ,3.05700 ,29.99527 
141 ,26.1096 ,0.90517 ,3.02620 ,29.69306 
142 ,26.2857 ,0.90689 ,3.02278 ,29.65948 
143 ,26.4616 ,0.90867 ,3.00909 ,29.52517 
144 ,26.6377 ,0.91042 ,2.97144 ,29.15581 
145 ,26.8138 ,0.91220 ,2.96802 ,29.12223 
146 ,26.9900 ,0.91389 ,2.96802 ,29.12223 
147 ,27.1659 ,0.91567 ,2.96118 ,29.05507 
148 ,27.3426 ,0.91747 ,2.94064 ,28.85360 
149 ,27.5346 ,0.91940 ,2.90985 ,28.55140 
150 ,27.7423 ,0.92129 ,2.88247 ,28.28277 
151 ,27.9187 ,0.92322 ,2.87562 ,28.21562 
152 ,28.1268 ,0.92521 ,2.85851 ,28.04772 
153 ,28.3190 ,0.92717 ,2.82771 ,27.74552 
154 ,28.5109 ,0.92910 ,2.83456 ,27.81268 
155 ,28.6866 ,0.93093 ,2.81060 ,27.57763 
156 ,28.8625 ,0.93269 ,2.80376 ,27.51047 
157 ,29.0551 ,0.93450 ,2.77296 ,27.20827 
158 ,29.2631 ,0.93664 ,2.75927 ,27.07395 
159 ,29.4709 ,0.93871 ,2.75585 ,27.04038 
160 ,29.6475 ,0.94049 ,2.74900 ,26.97322 
161 ,29.8394 ,0.94240 ,2.71820 ,26.67101 
162 ,30.0151 ,0.94419 ,2.69425 ,26.43597 
163 ,30.1916 ,0.94590 ,2.69767 ,26.46954 
164 ,30.3836 ,0.94778 ,2.67372 ,26.23450 
165 ,30.5758 ,0.94974 ,2.65660 ,26.06661 
166 ,30.7678 ,0.95168 ,2.65318 ,26.03303 
167 ,30.9599 ,0.95364 ,2.62581 ,25.76440 
168 ,31.1519 ,0.95547 ,2.61554 ,25.66367 
169 ,31.3601 ,0.95757 ,2.59501 ,25.46220 
170 ,31.5361 ,0.95935 ,2.57105 ,25.22715 
171 ,31.7123 ,0.96114 ,2.56078 ,25.12641 
172 ,31.9044 ,0.96309 ,2.56763 ,25.19357 
173 ,32.0961 ,0.96496 ,2.52314 ,24.75705 
174 ,32.2885 ,0.96693 ,2.52656 ,24.79063 
175 ,32.4802 ,0.96879 ,2.49234 ,24.45485 
176 ,32.6726 ,0.97064 ,2.48550 ,24.38769 
177 ,32.8805 ,0.97277 ,2.47181 ,24.25338 
178 ,33.0726 ,0.97464 ,2.44785 ,24.01833 
179 ,33.2648 ,0.97661 ,2.43074 ,23.85044 
180 ,33.4408 ,0.97838 ,2.41021 ,23.64897 
181 ,33.6172 ,0.98019 ,2.39994 ,23.54823 
182 ,33.7931 ,0.98193 ,2.40679 ,23.61539 
183 ,33.9852 ,0.98376 ,2.36572 ,23.21245 
184 ,34.1933 ,0.98586 ,2.36230 ,23.17887 
185 ,34.3694 ,0.98774 ,2.35203 ,23.07814 
186 ,34.5614 ,0.98958 ,2.33492 ,22.91024 
187 ,34.7691 ,0.99163 ,2.32808 ,22.84309 
188 ,34.9457 ,0.99350 ,2.32465 ,22.80951 
189 ,35.1378 ,0.99532 ,2.28359 ,22.40657 
190 ,35.3454 ,0.99729 ,2.28359 ,22.40657 
191 ,35.5377 ,0.99929 ,2.26648 ,22.23868 
192 ,35.7139 ,1.00109 ,2.23910 ,21.97005 
193 ,35.9059 ,1.00299 ,2.23226 ,21.90290 
194 ,36.0820 ,1.00480 ,2.22199 ,21.80216 
195 ,36.2738 ,1.00666 ,2.21172 ,21.70143 
196 ,36.4501 ,1.00847 ,2.19803 ,21.56711 
197 ,36.6264 ,1.01026 ,2.19803 ,21.56711 
198 ,36.8180 ,1.01213 ,2.16039 ,21.19775 
199 ,36.9945 ,1.01396 ,2.14670 ,21.06344 
200 ,37.1705 ,1.01570 ,2.13644 ,20.96270 
201 ,37.3624 ,1.01755 ,2.12275 ,20.82839 
202 ,37.5387 ,1.01939 ,2.09879 ,20.59334 
203 ,37.7306 ,1.02131 ,2.08852 ,20.49261 
204 ,37.9389 ,1.02323 ,2.08168 ,20.42545 
205 ,38.1306 ,1.02520 ,2.06799 ,20.29114 
206 ,38.3070 ,1.02704 ,2.06799 ,20.29114 
207 ,38.4990 ,1.02887 ,2.03719 ,19.98893 
208 ,38.6752 ,1.03078 ,2.00639 ,19.68673 
209 ,38.8668 ,1.03265 ,2.00639 ,19.68673 
210 ,39.0433 ,1.03437 ,2.00639 ,19.68673 
211 ,39.2195 ,1.03621 ,1.96875 ,19.31737 
212 ,39.4115 ,1.03804 ,1.96875 ,19.31737 
213 ,39.6031 ,1.03994 ,1.95164 ,19.14948 
214 ,39.7796 ,1.04179 ,1.93111 ,18.94801 
215 ,39.9557 ,1.04358 ,1.91742 ,18.81369 
216 ,40.1477 ,1.04540 ,1.90373 ,18.67938 
217 ,40.3238 ,1.04724 ,1.90031 ,18.64580 
218 ,40.4996 ,1.04899 ,1.88319 ,18.47791 
219 ,40.6756 ,1.05072 ,1.84897 ,18.14213 
220 ,40.8520 ,1.05250 ,1.84213 ,18.07497 
221 ,41.0280 ,1.05426 ,1.84555 ,18.10855 
222 ,41.2041 ,1.05604 ,1.84213 ,18.07497 
223 ,41.4123 ,1.05805 ,1.81133 ,17.77276 
224 ,41.6364 ,1.06018 ,1.80106 ,17.67203 
225 ,41.8283 ,1.06231 ,1.77369 ,17.40340 
226 ,42.0044 ,1.06402 ,1.78737 ,17.53772 
227 ,42.1805 ,1.06576 ,1.75657 ,17.23551 
228 ,42.3565 ,1.06756 ,1.72920 ,16.96689 
229 ,42.5328 ,1.06932 ,1.72578 ,16.93331 
230 ,42.7249 ,1.07122 ,1.71893 ,16.86615 
231 ,42.9005 ,1.07294 ,1.70182 ,16.69826 
232 ,43.0769 ,1.07477 ,1.67102 ,16.39605 
233 ,43.2531 ,1.07654 ,1.65733 ,16.26174 
234 ,43.4609 ,1.07856 ,1.66760 ,16.36248 
235 ,43.6372 ,1.08033 ,1.63680 ,16.06027 
236 ,43.8131 ,1.08207 ,1.62995 ,15.99311 
237 ,43.9892 ,1.08387 ,1.61969 ,15.89238 
238 ,44.2135 ,1.08597 ,1.62653 ,15.95954 
239 ,44.4052 ,1.08799 ,1.60600 ,15.75807 
240 ,44.5816 ,1.08976 ,1.58547 ,15.55660 
241 ,44.7737 ,1.09162 ,1.57178 ,15.42228 
242 ,44.9494 ,1.09347 ,1.54440 ,15.15366 
243 ,45.1419 ,1.09534 ,1.53413 ,15.05292 
244 ,45.3661 ,1.09751 ,1.54098 ,15.12008 
245 ,45.5580 ,1.09952 ,1.49649 ,14.68356 
246 ,45.7341 ,1.10131 ,1.47938 ,14.51567 
247 ,45.9261 ,1.10318 ,1.48965 ,14.61640 
248 ,46.1023 ,1.10499 ,1.46569 ,14.38136 
249 ,46.2784 ,1.10677 ,1.45885 ,14.31420 
250 ,46.4700 ,1.10863 ,1.44174 ,14.14631 
251 ,46.6625 ,1.11054 ,1.44174 ,14.14631 
252 ,46.8706 ,1.11254 ,1.42805 ,14.01199 
253 ,47.0627 ,1.11458 ,1.40067 ,13.74337 
254 ,47.2546 ,1.11647 ,1.36987 ,13.44116 
255 ,47.4785 ,1.11860 ,1.39040 ,13.64263 
256 ,47.6709 ,1.12060 ,1.36303 ,13.37401 
257 ,47.8789 ,1.12268 ,1.32196 ,12.97107 
258 ,48.0708 ,1.12461 ,1.33907 ,13.13896 
259 ,48.2632 ,1.12652 ,1.31512 ,12.90391 
260 ,48.4552 ,1.12853 ,1.30143 ,12.76960 
261 ,48.6474 ,1.13036 ,1.29458 ,12.70244 
262 ,48.8394 ,1.13233 ,1.27747 ,12.53455 
263 ,49.0156 ,1.13414 ,1.26036 ,12.36666 
264 ,49.2075 ,1.13605 ,1.26036 ,12.36666 
265 ,49.3836 ,1.13778 ,1.24667 ,12.23235 
266 ,49.5915 ,1.13977 ,1.21929 ,11.96372 
267 ,49.7676 ,1.14165 ,1.22272 ,11.99730 
268 ,49.9438 ,1.14335 ,1.21587 ,11.93014 
269 ,50.1358 ,1.14525 ,1.18507 ,11.62794 
270 ,50.3117 ,1.14704 ,1.18165 ,11.59436 
271 ,50.5196 ,1.14909 ,1.16796 ,11.46004 
272 ,50.6960 ,1.15092 ,1.13032 ,11.09068 
273 ,50.8882 ,1.15290 ,1.14743 ,11.25857 
274 ,51.0642 ,1.15456 ,1.13032 ,11.09068 
275 ,51.2400 ,1.15632 ,1.13032 ,11.09068 
276 ,51.4320 ,1.15819 ,1.10294 ,10.82206 
277 ,51.6084 ,1.16007 ,1.10294 ,10.82206 
278 ,51.8004 ,1.16193 ,1.08241 ,10.62059 
279 ,51.9927 ,1.16384 ,1.06530 ,10.45270 
280 ,52.1847 ,1.16572 ,1.05845 ,10.38554 
281 ,52.3608 ,1.16756 ,1.05503 ,10.35196 
282 ,52.5364 ,1.16930 ,1.02765 ,10.08333 
283 ,52.7130 ,1.17104 ,1.00370 ,9.84829 
284 ,52.9215 ,1.17308 ,1.00712 ,9.88186 
285 ,53.1130 ,1.17501 ,0.98317 ,9.64682 
286 ,53.3053 ,1.17698 ,0.98659 ,9.68039 
287 ,53.5288 ,1.17903 ,0.96263 ,9.44535 
288 ,53.7054 ,1.18101 ,0.96263 ,9.44535 
289 ,53.8970 ,1.18295 ,0.94552 ,9.27745 
290 ,54.0894 ,1.18477 ,0.93868 ,9.21030 
291 ,54.2814 ,1.18667 ,0.92157 ,9.04241 
292 ,54.4578 ,1.18851 ,0.91472 ,8.97525 
293 ,54.6333 ,1.19030 ,0.90103 ,8.84094 
294 ,54.8096 ,1.19200 ,0.88050 ,8.63947 
295 ,55.0180 ,1.19404 ,0.87366 ,8.57231 
296 ,55.2100 ,1.19594 ,0.87366 ,8.57231 
297 ,55.4019 ,1.19789 ,0.84628 ,8.30368 
298 ,55.5780 ,1.19977 ,0.83259 ,8.16937 
299 ,55.7699 ,1.20155 ,0.83601 ,8.20295 
300 ,55.9462 ,1.20336 ,0.81890 ,8.03506 
301 ,56.1383 ,1.20524 ,0.80863 ,7.93432 
302 ,56.3303 ,1.20721 ,0.77784 ,7.63212 
303 ,56.5383 ,1.20912 ,0.77784 ,7.63212 
304 ,56.7146 ,1.21104 ,0.76415 ,7.49780 
305 ,56.9066 ,1.21305 ,0.74704 ,7.32991 
306 ,57.0986 ,1.21499 ,0.72650 ,7.12844 
307 ,57.2748 ,1.21667 ,0.71966 ,7.06129 
308 ,57.4508 ,1.21844 ,0.71966 ,7.06129 
309 ,57.6429 ,1.22022 ,0.70255 ,6.89340 
310 ,57.8507 ,1.22235 ,0.69570 ,6.82624 
311 ,58.0430 ,1.22429 ,0.69228 ,6.79266 
312 ,58.2347 ,1.22630 ,0.66490 ,6.52403 
313 ,58.4111 ,1.22802 ,0.64779 ,6.35614 
314 ,58.5869 ,1.22983 ,0.64437 ,6.32256 
315 ,58.7632 ,1.23158 ,0.63753 ,6.25541 
316 ,58.9390 ,1.23325 ,0.61357 ,6.02036 
317 ,59.1155 ,1.23506 ,0.61357 ,6.02036 
318 ,59.3075 ,1.23700 ,0.61357 ,6.02036 
319 ,59.5022 ,1.23888 ,0.58277 ,5.71815 
320 ,59.6914 ,1.24089 ,0.57593 ,5.65100 
321 ,59.8995 ,1.24283 ,0.56908 ,5.58384 
322 ,60.0917 ,1.24480 ,0.54855 ,5.38237 
323 ,60.2839 ,1.24674 ,0.53144 ,5.21448 
324 ,60.4600 ,1.24854 ,0.52802 ,5.18090 
325 ,60.6517 ,1.25035 ,0.52459 ,5.14732 
326 ,60.8281 ,1.25220 ,0.50748 ,4.97943 
327 ,61.0203 ,1.25402 ,0.49037 ,4.81154 
328 ,61.1963 ,1.25587 ,0.47668 ,4.67723 
329 ,61.3884 ,1.25778 ,0.46642 ,4.57649 
330 ,61.5643 ,1.25958 ,0.46984 ,4.61007 
331 ,61.7563 ,1.26146 ,0.44931 ,4.40860 
332 ,61.9326 ,1.26323 ,0.43220 ,4.24071 
333 ,62.1248 ,1.26513 ,0.43904 ,4.30787 
334 ,62.3168 ,1.26704 ,0.40140 ,3.93850 
335 ,62.5249 ,1.26908 ,0.40824 ,4.00566 
336 ,62.7006 ,1.27089 ,0.39455 ,3.87135 
337 ,62.8770 ,1.27267 ,0.37402 ,3.66988 
338 ,63.0691 ,1.27447 ,0.36718 ,3.60272 
339 ,63.2608 ,1.27641 ,0.35006 ,3.43483 
340 ,63.4372 ,1.27828 ,0.34322 ,3.36767 
341 ,63.6292 ,1.28019 ,0.34322 ,3.36767 
342 ,63.8055 ,1.28198 ,0.32269 ,3.16620 
343 ,63.9974 ,1.28382 ,0.29531 ,2.89758 
344 ,64.1735 ,1.28558 ,0.29189 ,2.86400 
345 ,64.3652 ,1.28755 ,0.30558 ,2.99831 
346 ,64.5415 ,1.28931 ,0.29531 ,2.89758 
347 ,64.7333 ,1.29123 ,0.25767 ,2.52822 
348 ,64.9097 ,1.29295 ,0.26451 ,2.59537 
349 ,65.1019 ,1.29486 ,0.24740 ,2.42748 
350 ,65.3098 ,1.29689 ,0.23371 ,2.29317 
351 ,65.4859 ,1.29877 ,0.22344 ,2.19243 
352 ,65.7102 ,1.30085 ,0.20633 ,2.02454 
353 ,65.9021 ,1.30288 ,0.20633 ,2.02454 
354 ,66.0943 ,1.30473 ,0.17896 ,1.75592 
355 ,66.2862 ,1.30676 ,0.18238 ,1.78949 
356 ,66.4779 ,1.30865 ,0.16527 ,1.62160 
357 ,66.6545 ,1.31044 ,0.15500 ,1.52087 
358 ,66.8626 ,1.31234 ,0.13447 ,1.31940 
359 ,67.0703 ,1.31451 ,0.14473 ,1.42013 
360 ,67.2469 ,1.31635 ,0.13105 ,1.28582 
361 ,67.4387 ,1.31827 ,0.10709 ,1.05077 
362 ,67.6309 ,1.32020 ,0.09682 ,0.95004 
363 ,67.8231 ,1.32211 ,0.10709 ,1.05077 
364 ,68.0150 ,1.32400 ,0.07287 ,0.71499 
365 ,68.2072 ,1.32587 ,0.08656 ,0.84930 
366 ,68.3833 ,1.32773 ,0.05918 ,0.58067 
367 ,68.5750 ,1.32961 ,0.04891 ,0.47994 
368 ,68.7514 ,1.33139 ,0.02838 ,0.27847 
369 ,68.9435 ,1.33334 ,0.03865 ,0.37920 
370 ,69.1196 ,1.33505 ,0.01127 ,0.11058 
371 ,69.2955 ,1.33686 ,0.00100 ,0.00984 
372 ,69.4719 ,1.33858 ,0.01469 ,0.14416 
373 ,69.6475 ,1.34043 ,-0.00584 ,-0.05731 
374 ,69.8236 ,1.34210 ,-0.01611 ,-0.15805 
375 ,70.0161 ,1.34407 ,-0.03664 ,-0.35952 
376 ,70.2081 ,1.34588 ,-0.03322 ,-0.32594 
377 ,70.4162 ,1.34798 ,-0.04691 ,-0.46025 
378 ,70.5923 ,1.34974 ,-0.06744 ,-0.66172 
379 ,70.7999 ,1.35169 ,-0.08797 ,-0.86319 
380 ,70.9764 ,1.35365 ,-0.09482 ,-0.93035 
381 ,71.1525 ,1.35543 ,-0.10166 ,-0.99751 
382 ,71.3608 ,1.35745 ,-0.11193 ,-1.09824 
383 ,71.5686 ,1.35938 ,-0.09824 ,-0.96393 
384 ,71.7448 ,1.36133 ,-0.11535 ,-1.13182 
385 ,71.9528 ,1.36334 ,-0.12219 ,-1.19898 
386 ,72.1448 ,1.36532 ,-0.12904 ,-1.26613 
387 ,72.3208 ,1.36709 ,-0.15984 ,-1.56834 
388 ,72.4967 ,1.36885 ,-0.17353 ,-1.70265 
389 ,72.6730 ,1.37060 ,-0.19064 ,-1.87054 
390 ,72.8649 ,1.37248 ,-0.18722 ,-1.83696 
391 ,73.0571 ,1.37443 ,-0.20775 ,-2.03843 
392 ,73.2490 ,1.37634 ,-0.19748 ,-1.93770 
393 ,73.4413 ,1.37821 ,-0.22144 ,-2.17275 
394 ,73.6332 ,1.38022 ,-0.23855 ,-2.34064 
395 ,73.8414 ,1.38211 ,-0.24197 ,-2.37422 
396 ,74.0336 ,1.38408 ,-0.24197 ,-2.37422 
397 ,74.2256 ,1.38614 ,-0.24539 ,-2.40779 
398 ,74.3855 ,1.38781 ,-0.26935 ,-2.64284 
399 ,74.5616 ,1.38943 ,-0.27277 ,-2.67642 
400 ,74.7378 ,1.39122 ,-0.29673 ,-2.91147 
401 ,74.9458 ,1.39315 ,-0.30699 ,-3.01220 
402 ,75.1220 ,1.39507 ,-0.31041 ,-3.04578 
403 ,75.3299 ,1.39707 ,-0.30015 ,-2.94505 
404 ,75.5060 ,1.39892 ,-0.32410 ,-3.18010 
405 ,75.6981 ,1.40081 ,-0.35148 ,-3.44872 
406 ,75.8742 ,1.40259 ,-0.33779 ,-3.31441 
407 ,76.0499 ,1.40433 ,-0.33779 ,-3.31441 
408 ,76.2422 ,1.40621 ,-0.37201 ,-3.65019 
409 ,76.4345 ,1.40819 ,-0.37201 ,-3.65019 
410 ,76.6265 ,1.41004 ,-0.38912 ,-3.81808 
411 ,76.8026 ,1.41188 ,-0.39255 ,-3.85166 
412 ,76.9788 ,1.41360 ,-0.40281 ,-3.95240 
413 ,77.1704 ,1.41552 ,-0.39939 ,-3.91882 
414 ,77.3629 ,1.41740 ,-0.39939 ,-3.91882 
415 ,77.5548 ,1.41938 ,-0.41992 ,-4.12029 
416 ,77.7309 ,1.42120 ,-0.42335 ,-4.15387 
417 ,77.9230 ,1.42307 ,-0.44388 ,-4.35534 
418 ,78.0987 ,1.42480 ,-0.45757 ,-4.48965 
419 ,78.2751 ,1.42658 ,-0.45757 ,-4.48965 
420 ,78.4513 ,1.42832 ,-0.46783 ,-4.59038 
421 ,78.6429 ,1.43017 ,-0.49863 ,-4.89259 
422 ,78.8193 ,1.43200 ,-0.49179 ,-4.82543 
423 ,78.9794 ,1.43375 ,-0.48837 ,-4.79185 
424 ,79.1875 ,1.43556 ,-0.50548 ,-4.95975 
425 ,79.3636 ,1.43749 ,-0.52259 ,-5.12764 
426 ,79.5877 ,1.43956 ,-0.54312 ,-5.32911 
427 ,79.7637 ,1.44151 ,-0.53628 ,-5.26195 
428 ,79.9717 ,1.44348 ,-0.54312 ,-5.32911 
429 ,80.1639 ,1.44549 ,-0.55681 ,-5.46342 
430 ,80.3398 ,1.44724 ,-0.57392 ,-5.63131 
431 ,80.5476 ,1.44923 ,-0.56365 ,-5.53058 
432 ,80.7243 ,1.45110 ,-0.58077 ,-5.69847 
433 ,80.9162 ,1.45292 ,-0.58419 ,-5.73205 
434 ,81.1083 ,1.45490 ,-0.58077 ,-5.69847 
435 ,81.3164 ,1.45686 ,-0.59445 ,-5.83278 
436 ,81.5084 ,1.45881 ,-0.61841 ,-6.06783 
437 ,81.6843 ,1.46070 ,-0.63210 ,-6.20214 
438 ,81.8605 ,1.46244 ,-0.64236 ,-6.30288 
439 ,82.0527 ,1.46428 ,-0.63552 ,-6.23572 
440 ,82.2287 ,1.46611 ,-0.64579 ,-6.33646 
441 ,82.4048 ,1.46788 ,-0.66290 ,-6.50435 
442 ,82.5968 ,1.46971 ,-0.66632 ,-6.53793 
443 ,82.7888 ,1.47165 ,-0.68685 ,-6.73940 
444 ,82.9650 ,1.47347 ,-0.68343 ,-6.70582 
445 ,83.1570 ,1.47540 ,-0.69370 ,-6.80655 
446 ,83.3332 ,1.47710 ,-0.68343 ,-6.70582 
447 ,83.5091 ,1.47888 ,-0.69370 ,-6.80655 
448 ,83.7334 ,1.48101 ,-0.71423 ,-7.00802 
449 ,83.9257 ,1.48308 ,-0.72107 ,-7.07518 
450 ,84.1175 ,1.48500 ,-0.74161 ,-7.27665 
451 ,84.2934 ,1.48672 ,-0.72107 ,-7.07518 
452 ,84.4697 ,1.48856 ,-0.75872 ,-7.44454 
453 ,84.6613 ,1.49035 ,-0.74845 ,-7.34380 
454 ,84.8378 ,1.49222 ,-0.77925 ,-7.64601 
455 ,85.0459 ,1.49424 ,-0.78952 ,-7.74674 
456 ,85.2380 ,1.49615 ,-0.77583 ,-7.61243 
457 ,85.4300 ,1.49813 ,-0.78952 ,-7.74674 
458 ,85.6062 ,1.49987 ,-0.80321 ,-7.88106 
459 ,85.7661 ,1.50159 ,-0.82374 ,-8.08253 
460 ,85.9422 ,1.50324 ,-0.83058 ,-8.14968 
461 ,86.1344 ,1.50516 ,-0.81347 ,-7.98179 
462 ,86.3260 ,1.50704 ,-0.82716 ,-8.11611 
463 ,86.5020 ,1.50879 ,-0.84085 ,-8.25042 
