Data stamp = , 21-04-2022 12:08:57 482

Calibration Values: 
Slope = , 26.54 , g/V 
Offset Voltage at no contact = , -0.501760 , V 

No , Time , Stage Position ,   Mass , Force 
   ,  (s) ,      (mm)      ,   (g)  , (mN)  

1 ,0.0000 ,0.64937 ,5.30536 ,52.05621 
2 ,0.2246 ,0.64947 ,5.29852 ,51.98905 
3 ,0.6249 ,0.65062 ,5.27798 ,51.78758 
4 ,0.8331 ,0.65247 ,5.28483 ,51.85474 
5 ,1.0093 ,0.65419 ,5.29852 ,51.98905 
6 ,1.2175 ,0.65624 ,5.30536 ,52.05621 
7 ,1.4089 ,0.65806 ,5.30536 ,52.05621 
8 ,1.6015 ,0.66001 ,5.30194 ,52.02263 
9 ,1.7935 ,0.66205 ,5.28483 ,51.85474 
10 ,1.9697 ,0.66381 ,5.26087 ,51.61969 
11 ,2.1778 ,0.66586 ,5.24718 ,51.48538 
12 ,2.3696 ,0.66772 ,5.23350 ,51.35107 
13 ,2.5454 ,0.66963 ,5.19927 ,51.01528 
14 ,2.7055 ,0.67126 ,5.17190 ,50.74666 
15 ,2.8656 ,0.67288 ,5.15136 ,50.54519 
16 ,3.0416 ,0.67451 ,5.15479 ,50.57876 
17 ,3.2342 ,0.67635 ,5.12741 ,50.31014 
18 ,3.4422 ,0.67846 ,5.10345 ,50.07509 
19 ,3.6342 ,0.68037 ,5.10003 ,50.04151 
20 ,3.8103 ,0.68218 ,5.08634 ,49.90720 
21 ,3.9860 ,0.68396 ,5.05554 ,49.60499 
22 ,4.1623 ,0.68569 ,5.02817 ,49.33637 
23 ,4.3544 ,0.68766 ,5.03159 ,49.36995 
24 ,4.5466 ,0.68967 ,5.00421 ,49.10132 
25 ,4.7227 ,0.69132 ,4.98368 ,48.89985 
26 ,4.8988 ,0.69305 ,4.96315 ,48.69838 
27 ,5.0746 ,0.69485 ,4.95972 ,48.66480 
28 ,5.2509 ,0.69660 ,4.94603 ,48.53049 
29 ,5.4591 ,0.69868 ,4.91181 ,48.19471 
30 ,5.6350 ,0.70050 ,4.90155 ,48.09397 
31 ,5.8110 ,0.70219 ,4.88786 ,47.95966 
32 ,6.0034 ,0.70412 ,4.84337 ,47.52314 
33 ,6.1951 ,0.70598 ,4.86390 ,47.72461 
34 ,6.3713 ,0.70782 ,4.84337 ,47.52314 
35 ,6.5474 ,0.70957 ,4.81257 ,47.22093 
36 ,6.7075 ,0.71129 ,4.78861 ,46.98589 
37 ,6.8836 ,0.71296 ,4.77835 ,46.88515 
38 ,7.0755 ,0.71487 ,4.77493 ,46.85157 
39 ,7.2674 ,0.71671 ,4.73728 ,46.48221 
40 ,7.4757 ,0.71875 ,4.73044 ,46.41506 
41 ,7.6841 ,0.72082 ,4.70306 ,46.14643 
42 ,7.8763 ,0.72277 ,4.68595 ,45.97854 
43 ,8.0841 ,0.72480 ,4.66199 ,45.74349 
44 ,8.2601 ,0.72665 ,4.64831 ,45.60918 
45 ,8.4363 ,0.72850 ,4.61751 ,45.30697 
46 ,8.6284 ,0.73029 ,4.61066 ,45.23981 
47 ,8.8363 ,0.73241 ,4.60382 ,45.17266 
48 ,9.0285 ,0.73430 ,4.57302 ,44.87045 
49 ,9.2207 ,0.73621 ,4.56960 ,44.83688 
50 ,9.3963 ,0.73808 ,4.54222 ,44.56825 
51 ,9.5567 ,0.73978 ,4.53880 ,44.53467 
52 ,9.7328 ,0.74141 ,4.52853 ,44.43394 
53 ,9.9251 ,0.74325 ,4.49089 ,44.06457 
54 ,10.1329 ,0.74526 ,4.48746 ,44.03100 
55 ,10.3250 ,0.74726 ,4.46351 ,43.79595 
56 ,10.5007 ,0.74905 ,4.44982 ,43.66163 
57 ,10.6932 ,0.75090 ,4.43271 ,43.49374 
58 ,10.9013 ,0.75310 ,4.39164 ,43.09080 
59 ,11.0774 ,0.75487 ,4.39507 ,43.12438 
60 ,11.2693 ,0.75670 ,4.36769 ,42.85576 
61 ,11.4453 ,0.75850 ,4.35058 ,42.68786 
62 ,11.6375 ,0.76042 ,4.35400 ,42.72144 
63 ,11.8137 ,0.76216 ,4.33347 ,42.51997 
64 ,11.9898 ,0.76399 ,4.30951 ,42.28492 
65 ,12.1660 ,0.76574 ,4.27529 ,41.94914 
66 ,12.3739 ,0.76771 ,4.26160 ,41.81483 
67 ,12.5657 ,0.76975 ,4.26160 ,41.81483 
68 ,12.7260 ,0.77146 ,4.24449 ,41.64694 
69 ,12.9181 ,0.77320 ,4.23765 ,41.57978 
70 ,13.0941 ,0.77501 ,4.22053 ,41.41189 
71 ,13.2701 ,0.77676 ,4.18631 ,41.07611 
72 ,13.4303 ,0.77847 ,4.16578 ,40.87464 
73 ,13.6064 ,0.78014 ,4.15551 ,40.77390 
74 ,13.8145 ,0.78212 ,4.14183 ,40.63959 
75 ,14.0065 ,0.78419 ,4.13156 ,40.53885 
76 ,14.1827 ,0.78593 ,4.11103 ,40.33738 
77 ,14.3908 ,0.78784 ,4.10076 ,40.23665 
78 ,14.5827 ,0.78989 ,4.08707 ,40.10233 
79 ,14.7585 ,0.79160 ,4.08707 ,40.10233 
80 ,14.9351 ,0.79344 ,4.03574 ,39.59866 
81 ,15.1430 ,0.79542 ,4.03232 ,39.56508 
82 ,15.3191 ,0.79727 ,4.01520 ,39.39719 
83 ,15.5111 ,0.79909 ,4.00494 ,39.29646 
84 ,15.6871 ,0.80097 ,3.98783 ,39.12856 
85 ,15.8789 ,0.80281 ,3.97072 ,38.96067 
86 ,16.0555 ,0.80459 ,3.95361 ,38.79278 
87 ,16.2311 ,0.80642 ,3.92965 ,38.55773 
88 ,16.4230 ,0.80817 ,3.90912 ,38.35626 
89 ,16.6157 ,0.81015 ,3.88516 ,38.12122 
90 ,16.8078 ,0.81214 ,3.87490 ,38.02048 
91 ,16.9997 ,0.81396 ,3.86805 ,37.95332 
92 ,17.1918 ,0.81590 ,3.84067 ,37.68470 
93 ,17.3680 ,0.81778 ,3.81330 ,37.41607 
94 ,17.5600 ,0.81966 ,3.82014 ,37.48323 
95 ,17.7521 ,0.82148 ,3.78592 ,37.14744 
96 ,17.9443 ,0.82342 ,3.78934 ,37.18102 
97 ,18.1363 ,0.82538 ,3.75512 ,36.84524 
98 ,18.3444 ,0.82740 ,3.74485 ,36.74450 
99 ,18.5206 ,0.82925 ,3.72090 ,36.50946 
100 ,18.6965 ,0.83103 ,3.71405 ,36.44230 
101 ,18.8725 ,0.83283 ,3.67983 ,36.10652 
102 ,19.0482 ,0.83449 ,3.66614 ,35.97220 
103 ,19.2249 ,0.83633 ,3.66614 ,35.97220 
104 ,19.4489 ,0.83840 ,3.63534 ,35.67000 
105 ,19.6407 ,0.84031 ,3.62508 ,35.56926 
106 ,19.8650 ,0.84254 ,3.60797 ,35.40137 
107 ,20.0571 ,0.84461 ,3.59086 ,35.23348 
108 ,20.2330 ,0.84652 ,3.56690 ,34.99843 
109 ,20.4089 ,0.84812 ,3.54979 ,34.83054 
110 ,20.5848 ,0.84990 ,3.54295 ,34.76338 
111 ,20.7612 ,0.85161 ,3.52584 ,34.59549 
112 ,20.9373 ,0.85338 ,3.50188 ,34.36045 
113 ,21.1135 ,0.85524 ,3.48477 ,34.19255 
114 ,21.3056 ,0.85700 ,3.48819 ,34.22613 
115 ,21.5137 ,0.85905 ,3.45397 ,33.89035 
116 ,21.7057 ,0.86104 ,3.45055 ,33.85677 
117 ,21.9138 ,0.86300 ,3.43344 ,33.68888 
118 ,22.1058 ,0.86503 ,3.42317 ,33.58814 
119 ,22.2975 ,0.86694 ,3.37526 ,33.11805 
120 ,22.4739 ,0.86878 ,3.37526 ,33.11805 
121 ,22.6502 ,0.87051 ,3.35130 ,32.88300 
122 ,22.8421 ,0.87236 ,3.34104 ,32.78227 
123 ,23.0183 ,0.87424 ,3.32735 ,32.64795 
124 ,23.1782 ,0.87595 ,3.30339 ,32.41290 
125 ,23.3383 ,0.87751 ,3.27944 ,32.17786 
126 ,23.5145 ,0.87917 ,3.27259 ,32.11070 
127 ,23.7066 ,0.88111 ,3.27944 ,32.17786 
128 ,23.9146 ,0.88309 ,3.24180 ,31.80849 
129 ,24.0905 ,0.88493 ,3.22811 ,31.67418 
130 ,24.2827 ,0.88679 ,3.21442 ,31.53987 
131 ,24.4587 ,0.88857 ,3.20073 ,31.40555 
132 ,24.6345 ,0.89042 ,3.18704 ,31.27124 
133 ,24.8267 ,0.89220 ,3.17677 ,31.17051 
134 ,25.0027 ,0.89408 ,3.13913 ,30.80115 
135 ,25.1792 ,0.89578 ,3.14940 ,30.90188 
136 ,25.3872 ,0.89783 ,3.11860 ,30.59968 
137 ,25.5788 ,0.89981 ,3.10833 ,30.49894 
138 ,25.7714 ,0.90163 ,3.07069 ,30.12958 
139 ,25.9633 ,0.90360 ,3.07411 ,30.16316 
140 ,26.1396 ,0.90543 ,3.06042 ,30.02884 
141 ,26.3316 ,0.90727 ,3.04331 ,29.86095 
142 ,26.5237 ,0.90917 ,3.02278 ,29.65948 
143 ,26.7158 ,0.91105 ,2.99540 ,29.39086 
144 ,26.9079 ,0.91310 ,2.99540 ,29.39086 
145 ,27.0998 ,0.91498 ,2.98513 ,29.29012 
146 ,27.2919 ,0.91679 ,2.93722 ,28.82003 
147 ,27.4680 ,0.91868 ,2.94064 ,28.85360 
148 ,27.6442 ,0.92046 ,2.93038 ,28.75287 
149 ,27.8361 ,0.92239 ,2.90642 ,28.51782 
150 ,28.0443 ,0.92435 ,2.89616 ,28.41709 
151 ,28.2364 ,0.92632 ,2.88247 ,28.28277 
152 ,28.4282 ,0.92822 ,2.87220 ,28.18204 
153 ,28.6202 ,0.93018 ,2.85851 ,28.04772 
154 ,28.8121 ,0.93211 ,2.83456 ,27.81268 
155 ,29.0050 ,0.93396 ,2.81402 ,27.61121 
156 ,29.1968 ,0.93591 ,2.79349 ,27.40974 
157 ,29.3888 ,0.93785 ,2.77980 ,27.27542 
158 ,29.5649 ,0.93966 ,2.77980 ,27.27542 
159 ,29.7407 ,0.94141 ,2.75585 ,27.04038 
160 ,29.9330 ,0.94332 ,2.74558 ,26.93964 
161 ,30.1092 ,0.94509 ,2.72163 ,26.70459 
162 ,30.3011 ,0.94693 ,2.68740 ,26.36881 
163 ,30.4773 ,0.94878 ,2.68740 ,26.36881 
164 ,30.6693 ,0.95068 ,2.67714 ,26.26807 
165 ,30.8454 ,0.95245 ,2.67372 ,26.23450 
166 ,31.0051 ,0.95416 ,2.64634 ,25.96587 
167 ,31.1975 ,0.95594 ,2.63265 ,25.83156 
168 ,31.3735 ,0.95777 ,2.63607 ,25.86514 
169 ,31.5657 ,0.95968 ,2.60527 ,25.56293 
170 ,31.7734 ,0.96171 ,2.59501 ,25.46220 
171 ,31.9655 ,0.96366 ,2.57789 ,25.29430 
172 ,32.1578 ,0.96550 ,2.55736 ,25.09283 
173 ,32.3660 ,0.96764 ,2.54025 ,24.92494 
174 ,32.5578 ,0.96952 ,2.51972 ,24.72347 
175 ,32.7342 ,0.97134 ,2.51287 ,24.65632 
176 ,32.9099 ,0.97312 ,2.48892 ,24.42127 
177 ,33.0859 ,0.97484 ,2.48892 ,24.42127 
178 ,33.2625 ,0.97665 ,2.47865 ,24.32053 
179 ,33.4545 ,0.97844 ,2.46154 ,24.15264 
180 ,33.6463 ,0.98035 ,2.44101 ,23.95117 
181 ,33.8227 ,0.98216 ,2.41021 ,23.64897 
182 ,34.0148 ,0.98408 ,2.41021 ,23.64897 
183 ,34.2068 ,0.98604 ,2.40336 ,23.58181 
184 ,34.3828 ,0.98783 ,2.37599 ,23.31318 
185 ,34.5749 ,0.98961 ,2.35545 ,23.11171 
186 ,34.7828 ,0.99171 ,2.32123 ,22.77593 
187 ,34.9750 ,0.99373 ,2.32808 ,22.84309 
188 ,35.1671 ,0.99564 ,2.30754 ,22.64162 
189 ,35.3594 ,0.99754 ,2.28701 ,22.44015 
190 ,35.5511 ,0.99945 ,2.29043 ,22.47373 
191 ,35.7435 ,1.00136 ,2.26306 ,22.20510 
192 ,35.9355 ,1.00326 ,2.25621 ,22.13794 
193 ,36.1116 ,1.00504 ,2.24937 ,22.07079 
194 ,36.2873 ,1.00689 ,2.21172 ,21.70143 
195 ,36.4638 ,1.00864 ,2.20488 ,21.63427 
196 ,36.6714 ,1.01061 ,2.19119 ,21.49996 
197 ,36.8480 ,1.01243 ,2.18435 ,21.43280 
198 ,37.0396 ,1.01431 ,2.15012 ,21.09702 
199 ,37.2318 ,1.01621 ,2.15355 ,21.13059 
200 ,37.4077 ,1.01802 ,2.13644 ,20.96270 
201 ,37.5842 ,1.01984 ,2.11590 ,20.76123 
202 ,37.7761 ,1.02175 ,2.10221 ,20.62692 
203 ,37.9682 ,1.02360 ,2.08852 ,20.49261 
204 ,38.1444 ,1.02542 ,2.06457 ,20.25756 
205 ,38.3363 ,1.02730 ,2.06799 ,20.29114 
206 ,38.5445 ,1.02927 ,2.05773 ,20.19040 
207 ,38.7366 ,1.03128 ,2.04404 ,20.05609 
208 ,38.9288 ,1.03325 ,2.02350 ,19.85462 
209 ,39.1043 ,1.03501 ,1.99613 ,19.58599 
210 ,39.2804 ,1.03675 ,1.97902 ,19.41810 
211 ,39.4568 ,1.03849 ,1.97217 ,19.35094 
212 ,39.6327 ,1.04037 ,1.97217 ,19.35094 
213 ,39.8090 ,1.04208 ,1.95848 ,19.21663 
214 ,40.0172 ,1.04409 ,1.94479 ,19.08232 
215 ,40.2089 ,1.04599 ,1.92084 ,18.84727 
216 ,40.4173 ,1.04807 ,1.89688 ,18.61222 
217 ,40.6249 ,1.05018 ,1.87293 ,18.37717 
218 ,40.8014 ,1.05195 ,1.86266 ,18.27644 
219 ,40.9935 ,1.05383 ,1.86951 ,18.34360 
220 ,41.1856 ,1.05580 ,1.84213 ,18.07497 
221 ,41.3937 ,1.05772 ,1.84213 ,18.07497 
222 ,41.5856 ,1.05980 ,1.80449 ,17.70561 
223 ,41.7458 ,1.06152 ,1.79422 ,17.60487 
224 ,41.9220 ,1.06316 ,1.78053 ,17.47056 
225 ,42.1141 ,1.06511 ,1.77369 ,17.40340 
226 ,42.3222 ,1.06712 ,1.76342 ,17.30267 
227 ,42.5142 ,1.06904 ,1.73946 ,17.06762 
228 ,42.7062 ,1.07101 ,1.73262 ,17.00046 
229 ,42.8984 ,1.07291 ,1.71551 ,16.83257 
230 ,43.0902 ,1.07483 ,1.71209 ,16.79899 
231 ,43.2985 ,1.07678 ,1.69840 ,16.66468 
232 ,43.4905 ,1.07875 ,1.67786 ,16.46321 
233 ,43.6666 ,1.08059 ,1.66075 ,16.29532 
234 ,43.8422 ,1.08245 ,1.64364 ,16.12743 
235 ,44.0189 ,1.08416 ,1.62995 ,15.99311 
236 ,44.2108 ,1.08610 ,1.62653 ,15.95954 
237 ,44.4030 ,1.08792 ,1.60258 ,15.72449 
238 ,44.6110 ,1.09000 ,1.58889 ,15.59018 
239 ,44.7871 ,1.09181 ,1.57862 ,15.48944 
240 ,44.9791 ,1.09368 ,1.55809 ,15.28797 
241 ,45.1550 ,1.09546 ,1.55809 ,15.28797 
242 ,45.3314 ,1.09729 ,1.54440 ,15.15366 
243 ,45.5233 ,1.09913 ,1.51702 ,14.88503 
244 ,45.6992 ,1.10096 ,1.51360 ,14.85145 
245 ,45.8754 ,1.10271 ,1.51018 ,14.81787 
246 ,46.0673 ,1.10457 ,1.47596 ,14.48209 
247 ,46.2437 ,1.10636 ,1.45885 ,14.31420 
248 ,46.4355 ,1.10822 ,1.46227 ,14.34778 
249 ,46.6433 ,1.11029 ,1.44516 ,14.17989 
250 ,46.8197 ,1.11216 ,1.43489 ,14.07915 
251 ,47.0282 ,1.11414 ,1.40067 ,13.74337 
252 ,47.2199 ,1.11605 ,1.40409 ,13.77695 
253 ,47.4441 ,1.11822 ,1.39383 ,13.67621 
254 ,47.6204 ,1.12013 ,1.36987 ,13.44116 
255 ,47.8122 ,1.12195 ,1.35960 ,13.34043 
256 ,48.0045 ,1.12389 ,1.33907 ,13.13896 
257 ,48.1641 ,1.12571 ,1.32880 ,13.03822 
258 ,48.3404 ,1.12733 ,1.31169 ,12.87033 
259 ,48.5327 ,1.12926 ,1.32880 ,13.03822 
260 ,48.7248 ,1.13109 ,1.29800 ,12.73602 
261 ,48.9168 ,1.13312 ,1.29458 ,12.70244 
262 ,49.0928 ,1.13487 ,1.27063 ,12.46739 
263 ,49.2689 ,1.13657 ,1.26378 ,12.40024 
264 ,49.4445 ,1.13837 ,1.22956 ,12.06445 
265 ,49.6370 ,1.14028 ,1.23983 ,12.16519 
266 ,49.8292 ,1.14218 ,1.20561 ,11.82941 
267 ,50.0053 ,1.14401 ,1.20218 ,11.79583 
268 ,50.1968 ,1.14587 ,1.20561 ,11.82941 
269 ,50.3728 ,1.14765 ,1.18165 ,11.59436 
270 ,50.5651 ,1.14949 ,1.15770 ,11.35931 
271 ,50.7736 ,1.15164 ,1.16454 ,11.42647 
272 ,50.9654 ,1.15357 ,1.13716 ,11.15784 
273 ,51.1417 ,1.15533 ,1.13032 ,11.09068 
274 ,51.3494 ,1.15737 ,1.12690 ,11.05710 
275 ,51.5260 ,1.15918 ,1.10294 ,10.82206 
276 ,51.7015 ,1.16105 ,1.10979 ,10.88921 
277 ,51.8779 ,1.16265 ,1.08925 ,10.68774 
278 ,52.0540 ,1.16444 ,1.07899 ,10.58701 
279 ,52.2302 ,1.16626 ,1.04476 ,10.25123 
280 ,52.4378 ,1.16822 ,1.04819 ,10.28480 
281 ,52.6464 ,1.17036 ,1.02423 ,10.04976 
282 ,52.8382 ,1.17224 ,1.02081 ,10.01618 
283 ,53.0465 ,1.17435 ,1.00712 ,9.88186 
284 ,53.2545 ,1.17639 ,1.00370 ,9.84829 
285 ,53.4466 ,1.17824 ,0.99685 ,9.78113 
286 ,53.6227 ,1.18017 ,0.97290 ,9.54608 
287 ,53.8148 ,1.18208 ,0.95237 ,9.34461 
288 ,54.0069 ,1.18390 ,0.94210 ,9.24388 
289 ,54.1990 ,1.18584 ,0.93868 ,9.21030 
290 ,54.3908 ,1.18776 ,0.91814 ,9.00883 
291 ,54.5668 ,1.18956 ,0.89419 ,8.77378 
292 ,54.7428 ,1.19136 ,0.89761 ,8.80736 
293 ,54.9192 ,1.19316 ,0.87366 ,8.57231 
294 ,55.1111 ,1.19490 ,0.88734 ,8.70662 
295 ,55.2872 ,1.19680 ,0.84970 ,8.33726 
296 ,55.4470 ,1.19848 ,0.86339 ,8.47158 
297 ,55.6390 ,1.20028 ,0.84628 ,8.30368 
298 ,55.8315 ,1.20215 ,0.81890 ,8.03506 
299 ,56.0074 ,1.20401 ,0.80863 ,7.93432 
300 ,56.1996 ,1.20587 ,0.81206 ,7.96790 
301 ,56.3917 ,1.20770 ,0.79152 ,7.76643 
302 ,56.5839 ,1.20976 ,0.78468 ,7.69927 
303 ,56.7595 ,1.21146 ,0.76757 ,7.53138 
304 ,56.9519 ,1.21331 ,0.76757 ,7.53138 
305 ,57.1601 ,1.21547 ,0.72992 ,7.16202 
306 ,57.3522 ,1.21732 ,0.72308 ,7.09486 
307 ,57.5442 ,1.21925 ,0.72308 ,7.09486 
308 ,57.7203 ,1.22113 ,0.69913 ,6.85982 
309 ,57.8961 ,1.22283 ,0.69570 ,6.82624 
310 ,58.0884 ,1.22474 ,0.66490 ,6.52403 
311 ,58.2646 ,1.22653 ,0.66148 ,6.49046 
312 ,58.4572 ,1.22843 ,0.65806 ,6.45688 
313 ,58.6488 ,1.23037 ,0.62384 ,6.12109 
314 ,58.8405 ,1.23231 ,0.64779 ,6.35614 
315 ,59.0326 ,1.23423 ,0.61015 ,5.98678 
316 ,59.2249 ,1.23609 ,0.62726 ,6.15467 
317 ,59.4009 ,1.23790 ,0.60673 ,5.95320 
318 ,59.5931 ,1.23972 ,0.58962 ,5.78531 
319 ,59.7692 ,1.24159 ,0.57935 ,5.68458 
320 ,59.9768 ,1.24356 ,0.55539 ,5.44953 
321 ,60.1534 ,1.24547 ,0.54513 ,5.34879 
322 ,60.3454 ,1.24733 ,0.54513 ,5.34879 
323 ,60.5214 ,1.24914 ,0.54855 ,5.38237 
324 ,60.6971 ,1.25083 ,0.53144 ,5.21448 
325 ,60.8736 ,1.25258 ,0.50064 ,4.91228 
326 ,61.0653 ,1.25455 ,0.50064 ,4.91228 
327 ,61.2418 ,1.25634 ,0.49380 ,4.84512 
328 ,61.4338 ,1.25812 ,0.46984 ,4.61007 
329 ,61.7860 ,1.26170 ,0.46300 ,4.54291 
330 ,61.9942 ,1.26372 ,0.43220 ,4.24071 
331 ,62.1701 ,1.26564 ,0.44588 ,4.37502 
332 ,62.3458 ,1.26734 ,0.44246 ,4.34144 
333 ,62.5219 ,1.26912 ,0.41509 ,4.07282 
334 ,62.6980 ,1.27083 ,0.40140 ,3.93850 
335 ,62.8903 ,1.27269 ,0.39797 ,3.90493 
336 ,63.0986 ,1.27479 ,0.37402 ,3.66988 
337 ,63.2745 ,1.27660 ,0.35349 ,3.46841 
338 ,63.4505 ,1.27835 ,0.34322 ,3.36767 
339 ,63.6427 ,1.28023 ,0.35691 ,3.50199 
340 ,63.8349 ,1.28210 ,0.32953 ,3.23336 
341 ,64.0108 ,1.28396 ,0.32611 ,3.19978 
342 ,64.2028 ,1.28594 ,0.33980 ,3.33410 
343 ,64.3951 ,1.28775 ,0.28162 ,2.76326 
344 ,64.6031 ,1.28986 ,0.28847 ,2.83042 
345 ,64.7953 ,1.29182 ,0.27135 ,2.66253 
346 ,65.0034 ,1.29387 ,0.27478 ,2.69611 
347 ,65.2114 ,1.29583 ,0.24740 ,2.42748 
348 ,65.3873 ,1.29776 ,0.24740 ,2.42748 
349 ,65.5636 ,1.29951 ,0.23713 ,2.32675 
350 ,65.7557 ,1.30135 ,0.20976 ,2.05812 
351 ,65.9475 ,1.30333 ,0.21318 ,2.09170 
352 ,66.1400 ,1.30518 ,0.19264 ,1.89023 
353 ,66.3157 ,1.30705 ,0.17211 ,1.68876 
354 ,66.5077 ,1.30893 ,0.17553 ,1.72234 
355 ,66.7000 ,1.31084 ,0.16869 ,1.65518 
356 ,66.8756 ,1.31267 ,0.15158 ,1.48729 
357 ,67.0678 ,1.31445 ,0.16527 ,1.62160 
358 ,67.2438 ,1.31633 ,0.12078 ,1.18508 
359 ,67.4202 ,1.31805 ,0.12078 ,1.18508 
360 ,67.6124 ,1.31986 ,0.11051 ,1.08435 
361 ,67.7886 ,1.32176 ,0.11051 ,1.08435 
362 ,67.9966 ,1.32378 ,0.07971 ,0.78214 
363 ,68.1885 ,1.32573 ,0.08656 ,0.84930 
364 ,68.3648 ,1.32748 ,0.06602 ,0.64783 
365 ,68.5564 ,1.32932 ,0.06260 ,0.61425 
366 ,68.7330 ,1.33122 ,0.04207 ,0.41278 
367 ,68.9410 ,1.33323 ,0.02838 ,0.27847 
368 ,69.1330 ,1.33506 ,0.02838 ,0.27847 
369 ,69.3091 ,1.33694 ,0.02496 ,0.24489 
370 ,69.5008 ,1.33877 ,0.00443 ,0.04342 
371 ,69.6772 ,1.34059 ,-0.01269 ,-0.12447 
372 ,69.8533 ,1.34237 ,-0.01953 ,-0.19163 
373 ,70.0455 ,1.34426 ,-0.00926 ,-0.09089 
374 ,70.2375 ,1.34614 ,-0.03322 ,-0.32594 
375 ,70.4454 ,1.34812 ,-0.03664 ,-0.35952 
376 ,70.6375 ,1.35022 ,-0.05717 ,-0.56099 
377 ,70.8297 ,1.35219 ,-0.06744 ,-0.66172 
378 ,71.0218 ,1.35405 ,-0.07771 ,-0.76246 
379 ,71.2298 ,1.35604 ,-0.07086 ,-0.69530 
380 ,71.4058 ,1.35792 ,-0.09140 ,-0.89677 
381 ,71.5981 ,1.35975 ,-0.10851 ,-1.06466 
382 ,71.7897 ,1.36163 ,-0.11535 ,-1.13182 
383 ,71.9821 ,1.36357 ,-0.12219 ,-1.19898 
384 ,72.2064 ,1.36576 ,-0.13246 ,-1.29971 
385 ,72.3985 ,1.36777 ,-0.16326 ,-1.60191 
386 ,72.5901 ,1.36972 ,-0.13931 ,-1.36687 
387 ,72.7665 ,1.37147 ,-0.15299 ,-1.50118 
388 ,72.9426 ,1.37325 ,-0.17695 ,-1.73623 
389 ,73.1187 ,1.37504 ,-0.19064 ,-1.87054 
390 ,73.3108 ,1.37687 ,-0.19406 ,-1.90412 
391 ,73.4868 ,1.37875 ,-0.21117 ,-2.07201 
392 ,73.6629 ,1.38049 ,-0.21802 ,-2.13917 
393 ,73.8548 ,1.38233 ,-0.24197 ,-2.37422 
394 ,74.0469 ,1.38431 ,-0.23170 ,-2.27348 
395 ,74.2389 ,1.38621 ,-0.26250 ,-2.57569 
396 ,74.4473 ,1.38826 ,-0.25908 ,-2.54211 
397 ,74.6393 ,1.39017 ,-0.27961 ,-2.74358 
398 ,74.8312 ,1.39204 ,-0.25908 ,-2.54211 
399 ,75.0069 ,1.39395 ,-0.30015 ,-2.94505 
400 ,75.1836 ,1.39571 ,-0.29673 ,-2.91147 
401 ,75.3914 ,1.39765 ,-0.30699 ,-3.01220 
402 ,75.5675 ,1.39947 ,-0.30699 ,-3.01220 
403 ,75.7437 ,1.40128 ,-0.31726 ,-3.11294 
404 ,75.9357 ,1.40317 ,-0.34464 ,-3.38156 
405 ,76.1279 ,1.40507 ,-0.33779 ,-3.31441 
406 ,76.3039 ,1.40688 ,-0.36175 ,-3.54946 
407 ,76.5280 ,1.40892 ,-0.35490 ,-3.48230 
408 ,76.7197 ,1.41103 ,-0.38912 ,-3.81808 
409 ,76.9122 ,1.41282 ,-0.39597 ,-3.88524 
410 ,77.1044 ,1.41486 ,-0.39255 ,-3.85166 
411 ,77.2963 ,1.41673 ,-0.41650 ,-4.08671 
412 ,77.5045 ,1.41881 ,-0.41650 ,-4.08671 
413 ,77.7124 ,1.42084 ,-0.41992 ,-4.12029 
414 ,77.9203 ,1.42298 ,-0.45072 ,-4.42249 
415 ,78.0965 ,1.42478 ,-0.45414 ,-4.45607 
416 ,78.2886 ,1.42661 ,-0.45072 ,-4.42249 
417 ,78.4647 ,1.42848 ,-0.46441 ,-4.55681 
418 ,78.6570 ,1.43031 ,-0.47810 ,-4.69112 
419 ,78.8329 ,1.43215 ,-0.49179 ,-4.82543 
420 ,79.0410 ,1.43416 ,-0.49863 ,-4.89259 
421 ,79.2330 ,1.43613 ,-0.50206 ,-4.92617 
422 ,79.4254 ,1.43801 ,-0.51574 ,-5.06048 
423 ,79.6335 ,1.44008 ,-0.51574 ,-5.06048 
424 ,79.8254 ,1.44197 ,-0.53628 ,-5.26195 
425 ,80.0015 ,1.44385 ,-0.54654 ,-5.36268 
426 ,80.1936 ,1.44568 ,-0.53285 ,-5.22837 
427 ,80.3853 ,1.44762 ,-0.56023 ,-5.49700 
428 ,80.5938 ,1.44966 ,-0.54997 ,-5.39626 
429 ,80.7856 ,1.45159 ,-0.57392 ,-5.63131 
430 ,80.9619 ,1.45340 ,-0.59445 ,-5.83278 
431 ,81.1538 ,1.45525 ,-0.57050 ,-5.59773 
432 ,81.3460 ,1.45716 ,-0.60130 ,-5.89994 
433 ,81.5061 ,1.45896 ,-0.62183 ,-6.10141 
434 ,81.6821 ,1.46068 ,-0.63894 ,-6.26930 
435 ,81.8742 ,1.46251 ,-0.61499 ,-6.03425 
436 ,82.0500 ,1.46428 ,-0.63552 ,-6.23572 
437 ,82.2263 ,1.46604 ,-0.64921 ,-6.37003 
438 ,82.4024 ,1.46776 ,-0.65605 ,-6.43719 
439 ,82.5785 ,1.46955 ,-0.65605 ,-6.43719 
440 ,82.7546 ,1.47136 ,-0.66632 ,-6.53793 
441 ,82.9306 ,1.47306 ,-0.66290 ,-6.50435 
442 ,83.1066 ,1.47489 ,-0.68001 ,-6.67224 
443 ,83.2989 ,1.47677 ,-0.70054 ,-6.87371 
444 ,83.5226 ,1.47885 ,-0.70054 ,-6.87371 
445 ,83.6990 ,1.48073 ,-0.71765 ,-7.04160 
446 ,83.8909 ,1.48263 ,-0.72450 ,-7.10876 
447 ,84.0672 ,1.48445 ,-0.72450 ,-7.10876 
448 ,84.2591 ,1.48630 ,-0.74161 ,-7.27665 
449 ,84.4515 ,1.48830 ,-0.73818 ,-7.24307 
450 ,84.6432 ,1.49012 ,-0.76556 ,-7.51170 
451 ,84.8196 ,1.49201 ,-0.76214 ,-7.47812 
452 ,85.0116 ,1.49391 ,-0.76214 ,-7.47812 
453 ,85.2037 ,1.49573 ,-0.77583 ,-7.61243 
454 ,85.3958 ,1.49774 ,-0.77583 ,-7.61243 
455 ,85.5718 ,1.49949 ,-0.78610 ,-7.71317 
456 ,85.7475 ,1.50124 ,-0.81005 ,-7.94821 
457 ,85.9241 ,1.50305 ,-0.83401 ,-8.18326 
458 ,86.1161 ,1.50491 ,-0.81347 ,-7.98179 
459 ,86.3082 ,1.50681 ,-0.82716 ,-8.11611 
460 ,86.5163 ,1.50893 ,-0.83058 ,-8.14968 
461 ,86.7083 ,1.51083 ,-0.84427 ,-8.28400 
462 ,86.8844 ,1.51261 ,-0.85454 ,-8.38473 
463 ,87.0602 ,1.51434 ,-0.85796 ,-8.41831 
