Data stamp = , 20-04-2022 18:46:11 366

Calibration Values: 
Slope = , 26.54 , g/V 
Offset Voltage at no contact = , -0.501760 , V 

No , Time , Stage Position ,   Mass , Force 
   ,  (s) ,      (mm)      ,   (g)  , (mN)  

1 ,0.0000 ,0.64934 ,5.30194 ,52.02263 
2 ,0.2189 ,0.64944 ,5.28825 ,51.88832 
3 ,0.5715 ,0.65043 ,5.29852 ,51.98905 
4 ,0.7795 ,0.65210 ,5.27798 ,51.78758 
5 ,0.9716 ,0.65382 ,5.28483 ,51.85474 
6 ,1.1798 ,0.65589 ,5.27114 ,51.72043 
7 ,1.3718 ,0.65777 ,5.30194 ,52.02263 
8 ,1.5478 ,0.65954 ,5.28483 ,51.85474 
9 ,1.7239 ,0.66142 ,5.28483 ,51.85474 
10 ,1.8996 ,0.66310 ,5.25745 ,51.58611 
11 ,2.0922 ,0.66497 ,5.24376 ,51.45180 
12 ,2.2679 ,0.66679 ,5.24034 ,51.41822 
13 ,2.4441 ,0.66855 ,5.20270 ,51.04886 
14 ,2.6525 ,0.67061 ,5.19585 ,50.98170 
15 ,2.8604 ,0.67255 ,5.18216 ,50.84739 
16 ,3.0526 ,0.67464 ,5.16163 ,50.64592 
17 ,3.2605 ,0.67666 ,5.13768 ,50.41087 
18 ,3.4366 ,0.67849 ,5.12741 ,50.31014 
19 ,3.6288 ,0.68036 ,5.08977 ,49.94078 
20 ,3.8048 ,0.68215 ,5.06581 ,49.70573 
21 ,3.9805 ,0.68391 ,5.05897 ,49.63857 
22 ,4.1730 ,0.68578 ,5.06239 ,49.67215 
23 ,4.3968 ,0.68797 ,5.02132 ,49.26921 
24 ,4.5891 ,0.68998 ,5.00421 ,49.10132 
25 ,4.7972 ,0.69199 ,5.00079 ,49.06774 
26 ,5.0053 ,0.69410 ,4.96999 ,48.76554 
27 ,5.1813 ,0.69588 ,4.93919 ,48.46333 
28 ,5.3733 ,0.69778 ,4.94946 ,48.56407 
29 ,5.5497 ,0.69958 ,4.90839 ,48.16113 
30 ,5.7415 ,0.70154 ,4.89470 ,48.02681 
31 ,5.9172 ,0.70323 ,4.88786 ,47.95966 
32 ,6.0932 ,0.70501 ,4.88101 ,47.89250 
33 ,6.2533 ,0.70677 ,4.85364 ,47.62387 
34 ,6.4457 ,0.70847 ,4.83995 ,47.48956 
35 ,6.6858 ,0.71088 ,4.80230 ,47.12020 
36 ,6.8781 ,0.71288 ,4.79888 ,47.08662 
37 ,7.0700 ,0.71476 ,4.78177 ,46.91873 
38 ,7.2618 ,0.71664 ,4.76124 ,46.71726 
39 ,7.4382 ,0.71844 ,4.74413 ,46.54937 
40 ,7.6459 ,0.72048 ,4.71675 ,46.28074 
41 ,7.8224 ,0.72231 ,4.69964 ,46.11285 
42 ,8.0305 ,0.72435 ,4.69964 ,46.11285 
43 ,8.2224 ,0.72624 ,4.67568 ,45.87780 
44 ,8.4146 ,0.72822 ,4.65515 ,45.67633 
45 ,8.6067 ,0.73018 ,4.63462 ,45.47486 
46 ,8.7989 ,0.73198 ,4.63804 ,45.50844 
47 ,8.9908 ,0.73391 ,4.60040 ,45.13908 
48 ,9.1831 ,0.73586 ,4.60040 ,45.13908 
49 ,9.3907 ,0.73786 ,4.56960 ,44.83688 
50 ,9.5992 ,0.73991 ,4.53880 ,44.53467 
51 ,9.7913 ,0.74203 ,4.53195 ,44.46751 
52 ,9.9834 ,0.74383 ,4.51142 ,44.26604 
53 ,10.1753 ,0.74577 ,4.49431 ,44.09815 
54 ,10.3517 ,0.74758 ,4.47720 ,43.93026 
55 ,10.5433 ,0.74958 ,4.46693 ,43.82953 
56 ,10.7355 ,0.75131 ,4.44982 ,43.66163 
57 ,10.9275 ,0.75328 ,4.42586 ,43.42659 
58 ,11.1198 ,0.75529 ,4.41560 ,43.32585 
59 ,11.3116 ,0.75711 ,4.38480 ,43.02365 
60 ,11.5035 ,0.75911 ,4.36769 ,42.85576 
61 ,11.6798 ,0.76087 ,4.36427 ,42.82218 
62 ,11.8717 ,0.76275 ,4.32662 ,42.45282 
63 ,12.0482 ,0.76456 ,4.31978 ,42.38566 
64 ,12.2563 ,0.76654 ,4.30267 ,42.21777 
65 ,12.4483 ,0.76847 ,4.27871 ,41.98272 
66 ,12.6563 ,0.77042 ,4.29240 ,42.11703 
67 ,12.8325 ,0.77239 ,4.26160 ,41.81483 
68 ,13.0245 ,0.77424 ,4.24791 ,41.68051 
69 ,13.2166 ,0.77618 ,4.23422 ,41.54620 
70 ,13.4084 ,0.77813 ,4.19316 ,41.14326 
71 ,13.6007 ,0.78011 ,4.18631 ,41.07611 
72 ,13.7767 ,0.78180 ,4.17947 ,41.00895 
73 ,13.9688 ,0.78371 ,4.15551 ,40.77390 
74 ,14.1610 ,0.78554 ,4.13840 ,40.60601 
75 ,14.3531 ,0.78755 ,4.12471 ,40.47170 
76 ,14.5292 ,0.78938 ,4.10076 ,40.23665 
77 ,14.7209 ,0.79123 ,4.10076 ,40.23665 
78 ,14.8972 ,0.79304 ,4.08707 ,40.10233 
79 ,15.0731 ,0.79481 ,4.04943 ,39.73297 
80 ,15.2494 ,0.79667 ,4.02889 ,39.53150 
81 ,15.4575 ,0.79857 ,4.02547 ,39.49793 
82 ,15.6499 ,0.80061 ,4.00152 ,39.26288 
83 ,15.8252 ,0.80230 ,3.98783 ,39.12856 
84 ,16.0177 ,0.80415 ,3.97072 ,38.96067 
85 ,16.2099 ,0.80616 ,3.93992 ,38.65847 
86 ,16.3858 ,0.80786 ,3.93992 ,38.65847 
87 ,16.5780 ,0.80976 ,3.94334 ,38.69205 
88 ,16.7542 ,0.81155 ,3.90570 ,38.32268 
89 ,16.9458 ,0.81348 ,3.88516 ,38.12122 
90 ,17.1383 ,0.81534 ,3.87490 ,38.02048 
91 ,17.3304 ,0.81731 ,3.84752 ,37.75185 
92 ,17.5225 ,0.81929 ,3.84752 ,37.75185 
93 ,17.7144 ,0.82119 ,3.83383 ,37.61754 
94 ,17.9064 ,0.82301 ,3.81330 ,37.41607 
95 ,18.0987 ,0.82506 ,3.79276 ,37.21460 
96 ,18.3065 ,0.82703 ,3.76196 ,36.91240 
97 ,18.4989 ,0.82904 ,3.77223 ,37.01313 
98 ,18.6907 ,0.83091 ,3.71748 ,36.47588 
99 ,18.8830 ,0.83282 ,3.71748 ,36.47588 
100 ,19.0590 ,0.83460 ,3.71748 ,36.47588 
101 ,19.2351 ,0.83636 ,3.70037 ,36.30799 
102 ,19.4111 ,0.83814 ,3.65588 ,35.87147 
103 ,19.5871 ,0.83992 ,3.63877 ,35.70358 
104 ,19.7791 ,0.84180 ,3.63534 ,35.67000 
105 ,19.9552 ,0.84362 ,3.62508 ,35.56926 
106 ,20.1314 ,0.84532 ,3.60112 ,35.33422 
107 ,20.3076 ,0.84707 ,3.58059 ,35.13275 
108 ,20.4997 ,0.84898 ,3.58401 ,35.16632 
109 ,20.6914 ,0.85091 ,3.54295 ,34.76338 
110 ,20.8677 ,0.85270 ,3.53610 ,34.69623 
111 ,21.0439 ,0.85452 ,3.52241 ,34.56192 
112 ,21.2039 ,0.85617 ,3.51557 ,34.49476 
113 ,21.3803 ,0.85783 ,3.50872 ,34.42760 
114 ,21.5878 ,0.85984 ,3.49504 ,34.29329 
115 ,21.7643 ,0.86165 ,3.46766 ,34.02466 
116 ,21.9564 ,0.86350 ,3.43344 ,33.68888 
117 ,22.1483 ,0.86541 ,3.44028 ,33.75604 
118 ,22.3244 ,0.86725 ,3.42659 ,33.62172 
119 ,22.5161 ,0.86914 ,3.40264 ,33.38667 
120 ,22.6926 ,0.87092 ,3.37184 ,33.08447 
121 ,22.9164 ,0.87312 ,3.34446 ,32.81584 
122 ,23.1088 ,0.87503 ,3.35130 ,32.88300 
123 ,23.3003 ,0.87694 ,3.32393 ,32.61437 
124 ,23.4769 ,0.87879 ,3.31708 ,32.54722 
125 ,23.6687 ,0.88074 ,3.28971 ,32.27859 
126 ,23.8611 ,0.88256 ,3.28628 ,32.24501 
127 ,24.0528 ,0.88447 ,3.25891 ,31.97639 
128 ,24.2291 ,0.88627 ,3.24864 ,31.87565 
129 ,24.4053 ,0.88807 ,3.23495 ,31.74134 
130 ,24.6133 ,0.89014 ,3.21784 ,31.57345 
131 ,24.7734 ,0.89186 ,3.19046 ,31.30482 
132 ,24.9656 ,0.89367 ,3.18020 ,31.20409 
133 ,25.1576 ,0.89558 ,3.16993 ,31.10335 
134 ,25.3337 ,0.89737 ,3.13913 ,30.80115 
135 ,25.5254 ,0.89927 ,3.12886 ,30.70041 
136 ,25.7017 ,0.90102 ,3.12202 ,30.63325 
137 ,25.9100 ,0.90304 ,3.10833 ,30.49894 
138 ,26.1020 ,0.90500 ,3.07753 ,30.19674 
139 ,26.2782 ,0.90677 ,3.06726 ,30.09600 
140 ,26.4697 ,0.90871 ,3.04673 ,29.89453 
141 ,26.6461 ,0.91052 ,3.03989 ,29.82737 
142 ,26.8223 ,0.91224 ,3.03647 ,29.79380 
143 ,26.9982 ,0.91400 ,3.00909 ,29.52517 
144 ,27.1745 ,0.91572 ,2.97487 ,29.18939 
145 ,27.3665 ,0.91756 ,2.96802 ,29.12223 
146 ,27.5583 ,0.91957 ,2.95776 ,29.02150 
147 ,27.7347 ,0.92136 ,2.93038 ,28.75287 
148 ,27.9265 ,0.92326 ,2.93722 ,28.82003 
149 ,28.1187 ,0.92513 ,2.88931 ,28.34993 
150 ,28.2946 ,0.92693 ,2.88589 ,28.31635 
151 ,28.4868 ,0.92881 ,2.89273 ,28.38351 
152 ,28.6629 ,0.93069 ,2.85509 ,28.01415 
153 ,28.8231 ,0.93234 ,2.84140 ,27.87983 
154 ,29.0149 ,0.93412 ,2.82429 ,27.71194 
155 ,29.1909 ,0.93593 ,2.80718 ,27.54405 
156 ,29.3833 ,0.93779 ,2.80034 ,27.47689 
157 ,29.5750 ,0.93974 ,2.76269 ,27.10753 
158 ,29.7514 ,0.94146 ,2.76954 ,27.17469 
159 ,29.9275 ,0.94323 ,2.76269 ,27.10753 
160 ,30.1197 ,0.94514 ,2.73874 ,26.87248 
161 ,30.2954 ,0.94702 ,2.72847 ,26.77175 
162 ,30.4718 ,0.94874 ,2.71136 ,26.60386 
163 ,30.6638 ,0.95057 ,2.68740 ,26.36881 
164 ,30.8558 ,0.95247 ,2.66687 ,26.16734 
165 ,31.0640 ,0.95447 ,2.66003 ,26.10018 
166 ,31.2400 ,0.95642 ,2.64292 ,25.93229 
167 ,31.4322 ,0.95826 ,2.62238 ,25.73082 
168 ,31.6242 ,0.96025 ,2.62581 ,25.76440 
169 ,31.7999 ,0.96196 ,2.58474 ,25.36146 
170 ,31.9924 ,0.96379 ,2.57789 ,25.29430 
171 ,32.2004 ,0.96592 ,2.56763 ,25.19357 
172 ,32.3765 ,0.96773 ,2.55052 ,25.02568 
173 ,32.5848 ,0.96978 ,2.52656 ,24.79063 
174 ,32.7927 ,0.97181 ,2.49918 ,24.52200 
175 ,32.9687 ,0.97365 ,2.50945 ,24.62274 
176 ,33.1448 ,0.97541 ,2.49918 ,24.52200 
177 ,33.3205 ,0.97720 ,2.46839 ,24.21980 
178 ,33.4970 ,0.97892 ,2.45470 ,24.08549 
179 ,33.6890 ,0.98082 ,2.43759 ,23.91759 
180 ,33.8650 ,0.98263 ,2.44443 ,23.98475 
181 ,34.0411 ,0.98443 ,2.41021 ,23.64897 
182 ,34.2332 ,0.98628 ,2.39994 ,23.54823 
183 ,34.4093 ,0.98809 ,2.39310 ,23.48108 
184 ,34.5854 ,0.98993 ,2.35203 ,23.07814 
185 ,34.7609 ,0.99160 ,2.34861 ,23.04456 
186 ,34.9538 ,0.99347 ,2.33834 ,22.94382 
187 ,35.1455 ,0.99532 ,2.32465 ,22.80951 
188 ,35.3537 ,0.99745 ,2.30754 ,22.64162 
189 ,35.5297 ,0.99927 ,2.29728 ,22.54088 
190 ,35.7058 ,1.00098 ,2.29385 ,22.50731 
191 ,35.8980 ,1.00287 ,2.25279 ,22.10437 
192 ,36.1055 ,1.00494 ,2.25621 ,22.13794 
193 ,36.2821 ,1.00681 ,2.22883 ,21.86932 
194 ,36.4739 ,1.00877 ,2.21172 ,21.70143 
195 ,36.6661 ,1.01057 ,2.20488 ,21.63427 
196 ,36.8583 ,1.01258 ,2.17066 ,21.29849 
197 ,37.0344 ,1.01437 ,2.16381 ,21.23133 
198 ,37.2100 ,1.01614 ,2.15697 ,21.16417 
199 ,37.3861 ,1.01781 ,2.14328 ,21.02986 
200 ,37.5625 ,1.01957 ,2.12617 ,20.86197 
201 ,37.7545 ,1.02146 ,2.10564 ,20.66050 
202 ,37.9627 ,1.02350 ,2.08168 ,20.42545 
203 ,38.1549 ,1.02551 ,2.07141 ,20.32472 
204 ,38.3305 ,1.02729 ,2.07141 ,20.32472 
205 ,38.5069 ,1.02903 ,2.05773 ,20.19040 
206 ,38.7309 ,1.03102 ,2.01324 ,19.75388 
207 ,38.9231 ,1.03313 ,1.99613 ,19.58599 
208 ,39.0989 ,1.03491 ,1.99613 ,19.58599 
209 ,39.2911 ,1.03686 ,1.99955 ,19.61957 
210 ,39.4832 ,1.03871 ,1.98928 ,19.51884 
211 ,39.6751 ,1.04081 ,1.96533 ,19.28379 
212 ,39.8514 ,1.04244 ,1.95506 ,19.18305 
213 ,40.0275 ,1.04424 ,1.93111 ,18.94801 
214 ,40.2196 ,1.04606 ,1.90373 ,18.67938 
215 ,40.3954 ,1.04795 ,1.91057 ,18.74654 
216 ,40.5718 ,1.04967 ,1.88662 ,18.51149 
217 ,40.7795 ,1.05164 ,1.84897 ,18.14213 
218 ,40.9720 ,1.05364 ,1.85924 ,18.24286 
219 ,41.1640 ,1.05555 ,1.83871 ,18.04139 
220 ,41.3401 ,1.05735 ,1.82160 ,17.87350 
221 ,41.5157 ,1.05909 ,1.81133 ,17.77276 
222 ,41.6922 ,1.06084 ,1.81475 ,17.80634 
223 ,41.8681 ,1.06267 ,1.77711 ,17.43698 
224 ,42.0444 ,1.06441 ,1.75657 ,17.23551 
225 ,42.2364 ,1.06625 ,1.76684 ,17.33625 
226 ,42.4445 ,1.06836 ,1.73262 ,17.00046 
227 ,42.6528 ,1.07033 ,1.73262 ,17.00046 
228 ,42.8763 ,1.07257 ,1.71551 ,16.83257 
229 ,43.0527 ,1.07445 ,1.70866 ,16.76542 
230 ,43.2288 ,1.07623 ,1.68471 ,16.53037 
231 ,43.4047 ,1.07805 ,1.67444 ,16.42963 
232 ,43.5809 ,1.07974 ,1.64707 ,16.16101 
233 ,43.7567 ,1.08154 ,1.63338 ,16.02669 
234 ,43.9651 ,1.08359 ,1.61627 ,15.85880 
235 ,44.1732 ,1.08563 ,1.61284 ,15.82522 
236 ,44.3653 ,1.08756 ,1.59916 ,15.69091 
237 ,44.5572 ,1.08944 ,1.59573 ,15.65733 
238 ,44.7332 ,1.09127 ,1.57520 ,15.45586 
239 ,44.9415 ,1.09318 ,1.54782 ,15.18724 
240 ,45.1333 ,1.09530 ,1.54782 ,15.18724 
241 ,45.3416 ,1.09723 ,1.51702 ,14.88503 
242 ,45.5335 ,1.09924 ,1.51018 ,14.81787 
243 ,45.7097 ,1.10102 ,1.49649 ,14.68356 
244 ,45.8856 ,1.10276 ,1.47938 ,14.51567 
245 ,46.1099 ,1.10489 ,1.48280 ,14.54925 
246 ,46.3020 ,1.10690 ,1.45200 ,14.24704 
247 ,46.4940 ,1.10884 ,1.45200 ,14.24704 
248 ,46.6700 ,1.11064 ,1.42120 ,13.94484 
249 ,46.8458 ,1.11241 ,1.41778 ,13.91126 
250 ,47.0223 ,1.11416 ,1.40409 ,13.77695 
251 ,47.2142 ,1.11601 ,1.39383 ,13.67621 
252 ,47.4062 ,1.11797 ,1.36645 ,13.40759 
253 ,47.5984 ,1.11984 ,1.35960 ,13.34043 
254 ,47.7746 ,1.12169 ,1.36303 ,13.37401 
255 ,47.9663 ,1.12348 ,1.32538 ,13.00465 
256 ,48.1427 ,1.12536 ,1.31854 ,12.93749 
257 ,48.3188 ,1.12717 ,1.31854 ,12.93749 
258 ,48.4945 ,1.12895 ,1.28774 ,12.63528 
259 ,48.6705 ,1.13060 ,1.27063 ,12.46739 
260 ,48.8467 ,1.13240 ,1.26720 ,12.43381 
261 ,49.0229 ,1.13417 ,1.25352 ,12.29950 
262 ,49.2150 ,1.13611 ,1.26036 ,12.36666 
263 ,49.3911 ,1.13781 ,1.23641 ,12.13161 
264 ,49.5670 ,1.13955 ,1.21587 ,11.93014 
265 ,49.7434 ,1.14137 ,1.20561 ,11.82941 
266 ,49.9355 ,1.14322 ,1.19876 ,11.76225 
267 ,50.1274 ,1.14510 ,1.19192 ,11.69509 
268 ,50.3198 ,1.14715 ,1.19192 ,11.69509 
269 ,50.4955 ,1.14892 ,1.16454 ,11.42647 
270 ,50.6715 ,1.15064 ,1.14743 ,11.25857 
271 ,50.8473 ,1.15242 ,1.12005 ,10.98995 
272 ,51.0238 ,1.15415 ,1.14401 ,11.22500 
273 ,51.2158 ,1.15600 ,1.09952 ,10.78848 
274 ,51.4239 ,1.15812 ,1.10294 ,10.82206 
275 ,51.6000 ,1.15995 ,1.08241 ,10.62059 
276 ,51.7757 ,1.16164 ,1.08583 ,10.65416 
277 ,51.9524 ,1.16344 ,1.05503 ,10.35196 
278 ,52.1439 ,1.16540 ,1.04819 ,10.28480 
279 ,52.3204 ,1.16714 ,1.05161 ,10.31838 
280 ,52.5284 ,1.16911 ,1.02423 ,10.04976 
281 ,52.7044 ,1.17096 ,1.00712 ,9.88186 
282 ,52.8644 ,1.17265 ,1.01054 ,9.91544 
283 ,53.0406 ,1.17429 ,0.99685 ,9.78113 
284 ,53.2323 ,1.17628 ,0.96948 ,9.51250 
285 ,53.4247 ,1.17808 ,0.94552 ,9.27745 
286 ,53.6008 ,1.17992 ,0.96605 ,9.47892 
287 ,53.7926 ,1.18179 ,0.94210 ,9.24388 
288 ,53.9687 ,1.18359 ,0.91814 ,9.00883 
289 ,54.1450 ,1.18531 ,0.90788 ,8.90809 
290 ,54.3207 ,1.18711 ,0.91130 ,8.94167 
291 ,54.4970 ,1.18887 ,0.89761 ,8.80736 
292 ,54.6731 ,1.19062 ,0.86681 ,8.50515 
293 ,54.8493 ,1.19243 ,0.85312 ,8.37084 
294 ,55.0253 ,1.19412 ,0.86339 ,8.47158 
295 ,55.2015 ,1.19594 ,0.84628 ,8.30368 
296 ,55.4092 ,1.19794 ,0.83601 ,8.20295 
297 ,55.6016 ,1.19986 ,0.82575 ,8.10221 
298 ,55.7789 ,1.20162 ,0.79837 ,7.83359 
299 ,55.9699 ,1.20362 ,0.77784 ,7.63212 
300 ,56.1779 ,1.20559 ,0.78126 ,7.66570 
301 ,56.3701 ,1.20750 ,0.76757 ,7.53138 
302 ,56.5462 ,1.20944 ,0.76757 ,7.53138 
303 ,56.7221 ,1.21113 ,0.75046 ,7.36349 
304 ,56.8982 ,1.21286 ,0.73335 ,7.19560 
305 ,57.1062 ,1.21492 ,0.73677 ,7.22918 
306 ,57.2824 ,1.21672 ,0.72650 ,7.12844 
307 ,57.4745 ,1.21862 ,0.69913 ,6.85982 
308 ,57.6505 ,1.22038 ,0.67175 ,6.59119 
309 ,57.8425 ,1.22229 ,0.68201 ,6.69193 
310 ,58.0185 ,1.22404 ,0.65806 ,6.45688 
311 ,58.2107 ,1.22601 ,0.64437 ,6.32256 
312 ,58.3866 ,1.22771 ,0.64437 ,6.32256 
313 ,58.5789 ,1.22958 ,0.63410 ,6.22183 
314 ,58.7550 ,1.23149 ,0.60673 ,5.95320 
315 ,58.9631 ,1.23349 ,0.61015 ,5.98678 
316 ,59.1552 ,1.23537 ,0.57935 ,5.68458 
317 ,59.3472 ,1.23738 ,0.58277 ,5.71815 
318 ,59.5233 ,1.23914 ,0.57251 ,5.61742 
319 ,59.7149 ,1.24093 ,0.54855 ,5.38237 
320 ,59.9074 ,1.24287 ,0.53828 ,5.28164 
321 ,60.0996 ,1.24487 ,0.54855 ,5.38237 
322 ,60.2754 ,1.24663 ,0.52117 ,5.11375 
323 ,60.4836 ,1.24854 ,0.52802 ,5.18090 
324 ,60.6755 ,1.25055 ,0.50064 ,4.91228 
325 ,60.8518 ,1.25236 ,0.49037 ,4.81154 
326 ,61.0277 ,1.25417 ,0.47668 ,4.67723 
327 ,61.2040 ,1.25590 ,0.47326 ,4.64365 
328 ,61.3960 ,1.25783 ,0.45957 ,4.50934 
329 ,61.5721 ,1.25962 ,0.43562 ,4.27429 
330 ,61.7483 ,1.26138 ,0.44246 ,4.34144 
331 ,61.9241 ,1.26318 ,0.43220 ,4.24071 
332 ,62.1158 ,1.26501 ,0.40140 ,3.93850 
333 ,62.2923 ,1.26678 ,0.38086 ,3.73703 
334 ,62.5004 ,1.26883 ,0.38771 ,3.80419 
335 ,62.6766 ,1.27061 ,0.37060 ,3.63630 
336 ,62.8526 ,1.27243 ,0.35691 ,3.50199 
337 ,63.0603 ,1.27437 ,0.36718 ,3.60272 
338 ,63.2365 ,1.27621 ,0.35349 ,3.46841 
339 ,63.4287 ,1.27812 ,0.33638 ,3.30052 
340 ,63.6049 ,1.27992 ,0.34322 ,3.36767 
341 ,63.7808 ,1.28167 ,0.31584 ,3.09905 
342 ,63.9727 ,1.28357 ,0.28847 ,2.83042 
343 ,64.1492 ,1.28536 ,0.29189 ,2.86400 
344 ,64.3252 ,1.28712 ,0.29189 ,2.86400 
345 ,64.5333 ,1.28906 ,0.26793 ,2.62895 
346 ,64.7252 ,1.29104 ,0.25424 ,2.49464 
347 ,64.9174 ,1.29295 ,0.23713 ,2.32675 
348 ,65.1255 ,1.29502 ,0.24740 ,2.42748 
349 ,65.3016 ,1.29689 ,0.23029 ,2.25959 
350 ,65.4776 ,1.29870 ,0.21660 ,2.12528 
351 ,65.6540 ,1.30039 ,0.19949 ,1.95738 
352 ,65.8459 ,1.30233 ,0.20291 ,1.99096 
353 ,66.0380 ,1.30422 ,0.18580 ,1.82307 
354 ,66.2138 ,1.30604 ,0.17896 ,1.75592 
355 ,66.4056 ,1.30788 ,0.16527 ,1.62160 
356 ,66.5817 ,1.30969 ,0.14816 ,1.45371 
357 ,66.7737 ,1.31151 ,0.14816 ,1.45371 
358 ,66.9661 ,1.31348 ,0.13105 ,1.28582 
359 ,67.1744 ,1.31560 ,0.11393 ,1.11793 
360 ,67.3664 ,1.31750 ,0.10709 ,1.05077 
361 ,67.5587 ,1.31941 ,0.07287 ,0.71499 
362 ,67.7345 ,1.32125 ,0.09682 ,0.95004 
363 ,67.9104 ,1.32292 ,0.07971 ,0.78214 
364 ,68.0866 ,1.32469 ,0.06945 ,0.68141 
365 ,68.2944 ,1.32674 ,0.05576 ,0.54710 
366 ,68.4869 ,1.32861 ,0.04549 ,0.44636 
367 ,68.6790 ,1.33063 ,0.01127 ,0.11058 
368 ,68.8707 ,1.33245 ,0.02838 ,0.27847 
369 ,69.0474 ,1.33432 ,0.01811 ,0.17773 
370 ,69.2550 ,1.33633 ,-0.00584 ,-0.05731 
371 ,69.4312 ,1.33823 ,-0.01269 ,-0.12447 
372 ,69.6072 ,1.33989 ,-0.00926 ,-0.09089 
373 ,69.7835 ,1.34167 ,-0.02980 ,-0.29236 
374 ,69.9751 ,1.34360 ,-0.03664 ,-0.35952 
375 ,70.1517 ,1.34534 ,-0.04348 ,-0.42667 
376 ,70.3112 ,1.34709 ,-0.06060 ,-0.59457 
377 ,70.4717 ,1.34869 ,-0.06060 ,-0.59457 
378 ,70.6637 ,1.35044 ,-0.08113 ,-0.79604 
379 ,70.8558 ,1.35233 ,-0.09824 ,-0.96393 
380 ,71.0319 ,1.35416 ,-0.08113 ,-0.79604 
381 ,71.2080 ,1.35594 ,-0.11193 ,-1.09824 
382 ,71.4161 ,1.35792 ,-0.11193 ,-1.09824 
383 ,71.5921 ,1.35974 ,-0.11193 ,-1.09824 
384 ,71.7683 ,1.36152 ,-0.12562 ,-1.23255 
385 ,71.9603 ,1.36340 ,-0.14273 ,-1.40045 
386 ,72.1362 ,1.36522 ,-0.15299 ,-1.50118 
387 ,72.3123 ,1.36695 ,-0.16326 ,-1.60191 
388 ,72.4884 ,1.36870 ,-0.15299 ,-1.50118 
389 ,72.6642 ,1.37054 ,-0.18379 ,-1.80338 
390 ,72.8565 ,1.37232 ,-0.18037 ,-1.76981 
391 ,73.0485 ,1.37423 ,-0.19748 ,-1.93770 
392 ,73.2247 ,1.37612 ,-0.20775 ,-2.03843 
393 ,73.4168 ,1.37790 ,-0.22144 ,-2.17275 
394 ,73.6086 ,1.37990 ,-0.23170 ,-2.27348 
395 ,73.7850 ,1.38169 ,-0.23855 ,-2.34064 
396 ,74.0091 ,1.38382 ,-0.24539 ,-2.40779 
397 ,74.2170 ,1.38593 ,-0.25224 ,-2.47495 
398 ,74.4093 ,1.38783 ,-0.26935 ,-2.64284 
399 ,74.6011 ,1.38979 ,-0.30015 ,-2.94505 
400 ,74.7773 ,1.39153 ,-0.28646 ,-2.81073 
401 ,74.9537 ,1.39335 ,-0.28988 ,-2.84431 
402 ,75.1295 ,1.39513 ,-0.29330 ,-2.87789 
403 ,75.3056 ,1.39685 ,-0.32068 ,-3.14652 
404 ,75.4817 ,1.39861 ,-0.34121 ,-3.34799 
405 ,75.6738 ,1.40052 ,-0.32410 ,-3.18010 
406 ,75.8499 ,1.40230 ,-0.33095 ,-3.24725 
407 ,76.0261 ,1.40408 ,-0.35832 ,-3.51588 
408 ,76.2341 ,1.40599 ,-0.35832 ,-3.51588 
409 ,76.4583 ,1.40825 ,-0.36175 ,-3.54946 
410 ,76.6343 ,1.41019 ,-0.37201 ,-3.65019 
411 ,76.8419 ,1.41209 ,-0.40281 ,-3.95240 
412 ,77.0344 ,1.41409 ,-0.39597 ,-3.88524 
413 ,77.2262 ,1.41599 ,-0.43019 ,-4.22102 
414 ,77.4023 ,1.41782 ,-0.41992 ,-4.12029 
415 ,77.5945 ,1.41969 ,-0.41308 ,-4.05313 
416 ,77.7707 ,1.42153 ,-0.44046 ,-4.32176 
417 ,77.9787 ,1.42352 ,-0.45072 ,-4.42249 
418 ,78.1551 ,1.42533 ,-0.44046 ,-4.32176 
419 ,78.3309 ,1.42714 ,-0.45072 ,-4.42249 
420 ,78.5387 ,1.42916 ,-0.45757 ,-4.48965 
421 ,78.7310 ,1.43110 ,-0.48837 ,-4.79185 
422 ,78.9067 ,1.43285 ,-0.50206 ,-4.92617 
423 ,79.0833 ,1.43461 ,-0.51232 ,-5.02690 
424 ,79.2752 ,1.43657 ,-0.50206 ,-4.92617 
425 ,79.4509 ,1.43830 ,-0.52601 ,-5.16121 
426 ,79.6270 ,1.44004 ,-0.53628 ,-5.26195 
427 ,79.8191 ,1.44187 ,-0.53970 ,-5.29553 
428 ,80.0114 ,1.44384 ,-0.55339 ,-5.42984 
429 ,80.2037 ,1.44578 ,-0.57392 ,-5.63131 
430 ,80.3955 ,1.44772 ,-0.56365 ,-5.53058 
431 ,80.6038 ,1.44970 ,-0.58761 ,-5.76562 
432 ,80.7959 ,1.45168 ,-0.58761 ,-5.76562 
433 ,80.9880 ,1.45374 ,-0.61841 ,-6.06783 
434 ,81.1639 ,1.45541 ,-0.61499 ,-6.03425 
435 ,81.3402 ,1.45718 ,-0.61156 ,-6.00067 
436 ,81.5321 ,1.45906 ,-0.61499 ,-6.03425 
437 ,81.7243 ,1.46108 ,-0.63894 ,-6.26930 
438 ,81.9002 ,1.46282 ,-0.63552 ,-6.23572 
439 ,82.0924 ,1.46465 ,-0.64579 ,-6.33646 
440 ,82.2845 ,1.46655 ,-0.66290 ,-6.50435 
441 ,82.4927 ,1.46862 ,-0.67659 ,-6.63866 
442 ,82.6686 ,1.47050 ,-0.69027 ,-6.77297 
443 ,82.8284 ,1.47218 ,-0.69027 ,-6.77297 
444 ,83.0048 ,1.47381 ,-0.69370 ,-6.80655 
445 ,83.1969 ,1.47573 ,-0.68001 ,-6.67224 
446 ,83.3890 ,1.47764 ,-0.71081 ,-6.97444 
447 ,83.5809 ,1.47959 ,-0.69027 ,-6.77297 
448 ,83.7571 ,1.48134 ,-0.70054 ,-6.87371 
449 ,83.9492 ,1.48321 ,-0.71423 ,-7.00802 
450 ,84.1575 ,1.48534 ,-0.72107 ,-7.07518 
451 ,84.3329 ,1.48712 ,-0.72792 ,-7.14233 
452 ,84.5254 ,1.48895 ,-0.74161 ,-7.27665 
453 ,84.7015 ,1.49083 ,-0.75187 ,-7.37738 
454 ,84.8775 ,1.49255 ,-0.75530 ,-7.41096 
455 ,85.0542 ,1.49433 ,-0.75187 ,-7.37738 
456 ,85.2618 ,1.49621 ,-0.77241 ,-7.57885 
457 ,85.4540 ,1.49825 ,-0.78952 ,-7.74674 
458 ,85.6458 ,1.50023 ,-0.79294 ,-7.78032 
459 ,85.8218 ,1.50201 ,-0.79294 ,-7.78032 
460 ,85.9981 ,1.50380 ,-0.81347 ,-7.98179 
461 ,86.1899 ,1.50571 ,-0.83743 ,-8.21684 
462 ,86.3660 ,1.50745 ,-0.84085 ,-8.25042 
463 ,86.5582 ,1.50928 ,-0.83401 ,-8.18326 
