Data stamp = , 21-04-2022 02:01:47 494

Calibration Values: 
Slope = , 26.54 , g/V 
Offset Voltage at no contact = , -0.501760 , V 

No , Time , Stage Position ,   Mass , Force 
   ,  (s) ,      (mm)      ,   (g)  , (mN)  

1 ,0.0000 ,0.64937 ,5.25061 ,51.51896 
2 ,0.2166 ,0.64947 ,5.24718 ,51.48538 
3 ,0.6807 ,0.65083 ,5.24034 ,51.41822 
4 ,0.8729 ,0.65288 ,5.25061 ,51.51896 
5 ,1.0490 ,0.65465 ,5.25403 ,51.55254 
6 ,1.2410 ,0.65656 ,5.25403 ,51.55254 
7 ,1.4331 ,0.65849 ,5.24718 ,51.48538 
8 ,1.6091 ,0.66024 ,5.25061 ,51.51896 
9 ,1.7852 ,0.66201 ,5.24718 ,51.48538 
10 ,1.9772 ,0.66389 ,5.21639 ,51.18317 
11 ,2.1534 ,0.66568 ,5.17874 ,50.81381 
12 ,2.3454 ,0.66756 ,5.19585 ,50.98170 
13 ,2.5214 ,0.66934 ,5.17190 ,50.74666 
14 ,2.7137 ,0.67119 ,5.14452 ,50.47803 
15 ,2.9057 ,0.67322 ,5.14794 ,50.51161 
16 ,3.0978 ,0.67515 ,5.10688 ,50.10867 
17 ,3.2896 ,0.67709 ,5.11714 ,50.20940 
18 ,3.4657 ,0.67881 ,5.10003 ,50.04151 
19 ,3.6579 ,0.68065 ,5.05554 ,49.60499 
20 ,3.8663 ,0.68281 ,5.04185 ,49.47068 
21 ,4.0906 ,0.68499 ,5.03501 ,49.40352 
22 ,4.2987 ,0.68712 ,4.99394 ,49.00058 
23 ,4.4906 ,0.68909 ,4.99052 ,48.96701 
24 ,4.6823 ,0.69088 ,4.95630 ,48.63122 
25 ,4.8746 ,0.69279 ,4.93577 ,48.42975 
26 ,5.0668 ,0.69479 ,4.93919 ,48.46333 
27 ,5.2590 ,0.69668 ,4.89470 ,48.02681 
28 ,5.4511 ,0.69869 ,4.89128 ,47.99324 
29 ,5.6427 ,0.70060 ,4.85706 ,47.65745 
30 ,5.8188 ,0.70232 ,4.84679 ,47.55672 
31 ,5.9951 ,0.70412 ,4.82968 ,47.38883 
32 ,6.1873 ,0.70600 ,4.83652 ,47.45598 
33 ,6.3791 ,0.70788 ,4.79546 ,47.05304 
34 ,6.5552 ,0.70968 ,4.77150 ,46.81800 
35 ,6.7310 ,0.71148 ,4.77835 ,46.88515 
36 ,6.9235 ,0.71331 ,4.75097 ,46.61653 
37 ,7.1312 ,0.71535 ,4.73386 ,46.44863 
38 ,7.3073 ,0.71728 ,4.70990 ,46.21359 
39 ,7.4834 ,0.71894 ,4.70648 ,46.18001 
40 ,7.6758 ,0.72081 ,4.68595 ,45.97854 
41 ,7.8680 ,0.72282 ,4.66199 ,45.74349 
42 ,8.0277 ,0.72451 ,4.64146 ,45.54202 
43 ,8.2039 ,0.72620 ,4.63119 ,45.44128 
44 ,8.3803 ,0.72799 ,4.62093 ,45.34055 
45 ,8.5721 ,0.72978 ,4.61066 ,45.23981 
46 ,8.7480 ,0.73159 ,4.59355 ,45.07192 
47 ,8.9241 ,0.73335 ,4.57302 ,44.87045 
48 ,9.1167 ,0.73521 ,4.55249 ,44.66898 
49 ,9.3084 ,0.73726 ,4.52169 ,44.36678 
50 ,9.4844 ,0.73902 ,4.51826 ,44.33320 
51 ,9.6604 ,0.74073 ,4.49089 ,44.06457 
52 ,9.8526 ,0.74258 ,4.47378 ,43.89668 
53 ,10.0289 ,0.74448 ,4.45324 ,43.69521 
54 ,10.1889 ,0.74612 ,4.43955 ,43.56090 
55 ,10.3647 ,0.74777 ,4.41902 ,43.35943 
56 ,10.5409 ,0.74952 ,4.40191 ,43.19154 
57 ,10.7331 ,0.75138 ,4.41218 ,43.29227 
58 ,10.9249 ,0.75341 ,4.37111 ,42.88933 
59 ,11.1012 ,0.75509 ,4.36427 ,42.82218 
60 ,11.2771 ,0.75689 ,4.35742 ,42.75502 
61 ,11.4370 ,0.75859 ,4.34716 ,42.65429 
62 ,11.6135 ,0.76022 ,4.31636 ,42.35208 
63 ,11.7893 ,0.76200 ,4.30609 ,42.25135 
64 ,11.9816 ,0.76383 ,4.29240 ,42.11703 
65 ,12.1575 ,0.76567 ,4.28213 ,42.01630 
66 ,12.3334 ,0.76742 ,4.25818 ,41.78125 
67 ,12.5255 ,0.76933 ,4.22738 ,41.47905 
68 ,12.7018 ,0.77108 ,4.21027 ,41.31115 
69 ,12.8780 ,0.77293 ,4.21369 ,41.34473 
70 ,13.1020 ,0.77495 ,4.18974 ,41.10968 
71 ,13.2780 ,0.77688 ,4.17605 ,40.97537 
72 ,13.4380 ,0.77860 ,4.16578 ,40.87464 
73 ,13.6142 ,0.78023 ,4.15209 ,40.74032 
74 ,13.8065 ,0.78217 ,4.10076 ,40.23665 
75 ,13.9985 ,0.78403 ,4.10418 ,40.27023 
76 ,14.1583 ,0.78581 ,4.10076 ,40.23665 
77 ,14.3345 ,0.78744 ,4.08023 ,40.03518 
78 ,14.6065 ,0.79016 ,4.04600 ,39.69940 
79 ,14.7664 ,0.79189 ,4.02547 ,39.49793 
80 ,14.9269 ,0.79349 ,4.00836 ,39.33003 
81 ,15.1191 ,0.79532 ,4.00152 ,39.26288 
82 ,15.3109 ,0.79718 ,3.97756 ,39.02783 
83 ,15.4872 ,0.79897 ,3.95703 ,38.82636 
84 ,15.6468 ,0.80071 ,3.95018 ,38.75920 
85 ,15.8551 ,0.80246 ,3.93307 ,38.59131 
86 ,16.0473 ,0.80447 ,3.90570 ,38.32268 
87 ,16.2075 ,0.80629 ,3.89201 ,38.18837 
88 ,16.3831 ,0.80792 ,3.87832 ,38.05406 
89 ,16.5593 ,0.80973 ,3.87490 ,38.02048 
90 ,16.7515 ,0.81151 ,3.84067 ,37.68470 
91 ,16.9274 ,0.81346 ,3.84067 ,37.68470 
92 ,17.1037 ,0.81515 ,3.81672 ,37.44965 
93 ,17.2957 ,0.81703 ,3.80303 ,37.31534 
94 ,17.4875 ,0.81891 ,3.78934 ,37.18102 
95 ,17.6796 ,0.82088 ,3.78250 ,37.11387 
96 ,17.8398 ,0.82257 ,3.75854 ,36.87882 
97 ,17.9999 ,0.82420 ,3.74828 ,36.77808 
98 ,18.1758 ,0.82584 ,3.72774 ,36.57661 
99 ,18.3519 ,0.82757 ,3.69694 ,36.27441 
100 ,18.5279 ,0.82935 ,3.68668 ,36.17367 
101 ,18.6881 ,0.83110 ,3.67983 ,36.10652 
102 ,18.8481 ,0.83269 ,3.66957 ,36.00578 
103 ,19.0081 ,0.83428 ,3.65246 ,35.83789 
104 ,19.1683 ,0.83585 ,3.63877 ,35.70358 
105 ,19.3284 ,0.83745 ,3.62508 ,35.56926 
106 ,19.4883 ,0.83906 ,3.60797 ,35.40137 
107 ,19.6485 ,0.84065 ,3.59770 ,35.30064 
108 ,19.8086 ,0.84229 ,3.59086 ,35.23348 
109 ,19.9846 ,0.84392 ,3.56690 ,34.99843 
110 ,20.1607 ,0.84566 ,3.56006 ,34.93128 
111 ,20.3369 ,0.84742 ,3.52241 ,34.56192 
112 ,20.5127 ,0.84916 ,3.50872 ,34.42760 
113 ,20.6889 ,0.85096 ,3.48135 ,34.15898 
114 ,20.8651 ,0.85277 ,3.49504 ,34.29329 
115 ,21.0250 ,0.85445 ,3.47792 ,34.12540 
116 ,21.2011 ,0.85604 ,3.45397 ,33.89035 
117 ,21.3773 ,0.85789 ,3.44370 ,33.78961 
118 ,21.5373 ,0.85956 ,3.42659 ,33.62172 
119 ,21.6973 ,0.86115 ,3.40264 ,33.38667 
120 ,21.8573 ,0.86276 ,3.38210 ,33.18520 
121 ,22.0175 ,0.86439 ,3.38895 ,33.25236 
122 ,22.1777 ,0.86596 ,3.37184 ,33.08447 
123 ,22.3537 ,0.86757 ,3.34104 ,32.78227 
124 ,22.5297 ,0.86933 ,3.34446 ,32.81584 
125 ,22.6898 ,0.87111 ,3.32393 ,32.61437 
126 ,22.8658 ,0.87276 ,3.32735 ,32.64795 
127 ,23.0258 ,0.87446 ,3.29997 ,32.37933 
128 ,23.2021 ,0.87605 ,3.26917 ,32.07712 
129 ,23.3782 ,0.87783 ,3.25206 ,31.90923 
130 ,23.5541 ,0.87962 ,3.22468 ,31.64060 
131 ,23.7302 ,0.88131 ,3.23495 ,31.74134 
132 ,23.9062 ,0.88309 ,3.22126 ,31.60702 
133 ,24.0822 ,0.88491 ,3.20415 ,31.43913 
134 ,24.2583 ,0.88669 ,3.19046 ,31.30482 
135 ,24.4184 ,0.88838 ,3.15624 ,30.96904 
136 ,24.6105 ,0.89010 ,3.15624 ,30.96904 
137 ,24.7866 ,0.89192 ,3.14597 ,30.86830 
138 ,24.9466 ,0.89364 ,3.12544 ,30.66683 
139 ,25.1068 ,0.89525 ,3.10491 ,30.46536 
140 ,25.2829 ,0.89691 ,3.08095 ,30.23031 
141 ,25.4429 ,0.89860 ,3.07411 ,30.16316 
142 ,25.6189 ,0.90022 ,3.06042 ,30.02884 
143 ,25.7791 ,0.90196 ,3.05358 ,29.96169 
144 ,25.9711 ,0.90371 ,3.03989 ,29.82737 
145 ,26.1470 ,0.90554 ,3.02962 ,29.72664 
146 ,26.3072 ,0.90723 ,3.00909 ,29.52517 
147 ,26.4832 ,0.90892 ,2.98513 ,29.29012 
148 ,26.6435 ,0.91058 ,2.97487 ,29.18939 
149 ,26.8197 ,0.91223 ,2.94749 ,28.92076 
150 ,26.9797 ,0.91392 ,2.95091 ,28.95434 
151 ,27.1395 ,0.91555 ,2.93722 ,28.82003 
152 ,27.2996 ,0.91715 ,2.92696 ,28.71929 
153 ,27.4598 ,0.91874 ,2.91327 ,28.58498 
154 ,27.6199 ,0.92033 ,2.90300 ,28.48424 
155 ,27.7958 ,0.92199 ,2.87905 ,28.24919 
156 ,27.9721 ,0.92377 ,2.87905 ,28.24919 
157 ,28.1481 ,0.92552 ,2.86536 ,28.11488 
158 ,28.3241 ,0.92733 ,2.83798 ,27.84625 
159 ,28.5002 ,0.92902 ,2.81402 ,27.61121 
160 ,28.6602 ,0.93075 ,2.81060 ,27.57763 
161 ,28.8203 ,0.93234 ,2.80718 ,27.54405 
162 ,28.9803 ,0.93397 ,2.77980 ,27.27542 
163 ,29.1564 ,0.93558 ,2.76269 ,27.10753 
164 ,29.3165 ,0.93734 ,2.76954 ,27.17469 
165 ,29.4766 ,0.93893 ,2.74216 ,26.90606 
166 ,29.6367 ,0.94050 ,2.73189 ,26.80533 
167 ,29.8127 ,0.94212 ,2.72505 ,26.73817 
168 ,29.9888 ,0.94393 ,2.71136 ,26.60386 
169 ,30.1648 ,0.94569 ,2.69083 ,26.40239 
170 ,30.3410 ,0.94740 ,2.67714 ,26.26807 
171 ,30.5010 ,0.94913 ,2.67029 ,26.20092 
172 ,30.6772 ,0.95082 ,2.63265 ,25.83156 
173 ,30.8371 ,0.95251 ,2.65318 ,26.03303 
174 ,31.0132 ,0.95417 ,2.63607 ,25.86514 
175 ,31.1894 ,0.95592 ,2.61554 ,25.66367 
176 ,31.3814 ,0.95776 ,2.58816 ,25.39504 
177 ,31.5575 ,0.95967 ,2.58474 ,25.36146 
178 ,31.7335 ,0.96137 ,2.55736 ,25.09283 
179 ,31.9097 ,0.96314 ,2.56078 ,25.12641 
180 ,32.1017 ,0.96495 ,2.52314 ,24.75705 
181 ,32.2778 ,0.96688 ,2.53683 ,24.89136 
182 ,32.4538 ,0.96855 ,2.49576 ,24.48842 
183 ,32.6461 ,0.97041 ,2.48207 ,24.35411 
184 ,32.8221 ,0.97222 ,2.45812 ,24.11906 
185 ,32.9981 ,0.97406 ,2.47181 ,24.25338 
186 ,33.1742 ,0.97576 ,2.44785 ,24.01833 
187 ,33.3502 ,0.97751 ,2.43759 ,23.91759 
188 ,33.5263 ,0.97927 ,2.41021 ,23.64897 
189 ,33.7023 ,0.98114 ,2.40679 ,23.61539 
190 ,33.8784 ,0.98280 ,2.38968 ,23.44750 
191 ,34.0546 ,0.98455 ,2.38625 ,23.41392 
192 ,34.2307 ,0.98633 ,2.37599 ,23.31318 
193 ,34.4067 ,0.98806 ,2.34519 ,23.01098 
194 ,34.5987 ,0.98996 ,2.34861 ,23.04456 
195 ,34.7908 ,0.99191 ,2.31439 ,22.70877 
196 ,34.9990 ,0.99383 ,2.30070 ,22.57446 
197 ,35.1749 ,0.99577 ,2.29728 ,22.54088 
198 ,35.3510 ,0.99751 ,2.26648 ,22.23868 
199 ,35.5270 ,0.99933 ,2.24252 ,22.00363 
200 ,35.6871 ,1.00099 ,2.24252 ,22.00363 
201 ,35.8632 ,1.00270 ,2.23910 ,21.97005 
202 ,36.0393 ,1.00446 ,2.22883 ,21.86932 
203 ,36.2315 ,1.00627 ,2.20146 ,21.60069 
204 ,36.4074 ,1.00813 ,2.18092 ,21.39922 
205 ,36.5675 ,1.00982 ,2.16381 ,21.23133 
206 ,36.7596 ,1.01156 ,2.17408 ,21.33206 
207 ,36.9517 ,1.01345 ,2.13644 ,20.96270 
208 ,37.1278 ,1.01529 ,2.12617 ,20.86197 
209 ,37.3038 ,1.01707 ,2.11590 ,20.76123 
210 ,37.4800 ,1.01888 ,2.10221 ,20.62692 
211 ,37.6722 ,1.02067 ,2.08168 ,20.42545 
212 ,37.8480 ,1.02256 ,2.09195 ,20.52619 
213 ,38.0242 ,1.02425 ,2.04404 ,20.05609 
214 ,38.2003 ,1.02603 ,2.05430 ,20.15682 
215 ,38.3925 ,1.02791 ,2.03377 ,19.95535 
216 ,38.5848 ,1.02985 ,2.03035 ,19.92178 
217 ,38.7768 ,1.03176 ,2.00982 ,19.72031 
218 ,38.9527 ,1.03360 ,1.98586 ,19.48526 
219 ,39.1449 ,1.03543 ,1.97559 ,19.38452 
220 ,39.3372 ,1.03742 ,1.95848 ,19.21663 
221 ,39.5292 ,1.03930 ,1.93795 ,19.01516 
222 ,39.7053 ,1.04115 ,1.94479 ,19.08232 
223 ,39.8811 ,1.04278 ,1.91057 ,18.74654 
224 ,40.0571 ,1.04454 ,1.91742 ,18.81369 
225 ,40.2491 ,1.04645 ,1.87635 ,18.41075 
226 ,40.4256 ,1.04823 ,1.87293 ,18.37717 
227 ,40.6172 ,1.05018 ,1.85924 ,18.24286 
228 ,40.7777 ,1.05189 ,1.85240 ,18.17570 
229 ,40.9538 ,1.05354 ,1.82844 ,17.94066 
230 ,41.1454 ,1.05546 ,1.81817 ,17.83992 
231 ,41.3380 ,1.05734 ,1.80106 ,17.67203 
232 ,41.5459 ,1.05938 ,1.80449 ,17.70561 
233 ,41.7220 ,1.06117 ,1.78737 ,17.53772 
234 ,41.8978 ,1.06297 ,1.76684 ,17.33625 
235 ,42.0742 ,1.06474 ,1.73946 ,17.06762 
236 ,42.2498 ,1.06649 ,1.73262 ,17.00046 
237 ,42.4262 ,1.06826 ,1.72235 ,16.89973 
238 ,42.6184 ,1.07015 ,1.70866 ,16.76542 
239 ,42.7946 ,1.07194 ,1.68129 ,16.49679 
240 ,42.9867 ,1.07383 ,1.66075 ,16.29532 
241 ,43.1789 ,1.07573 ,1.65733 ,16.26174 
242 ,43.3548 ,1.07759 ,1.67444 ,16.42963 
243 ,43.5309 ,1.07929 ,1.65049 ,16.19458 
244 ,43.7228 ,1.08113 ,1.62653 ,15.95954 
245 ,43.8987 ,1.08298 ,1.61284 ,15.82522 
246 ,44.0749 ,1.08473 ,1.59231 ,15.62375 
247 ,44.2671 ,1.08665 ,1.60258 ,15.72449 
248 ,44.4431 ,1.08840 ,1.58889 ,15.59018 
249 ,44.6193 ,1.09016 ,1.56151 ,15.32155 
250 ,44.8111 ,1.09209 ,1.54782 ,15.18724 
251 ,44.9873 ,1.09384 ,1.54440 ,15.15366 
252 ,45.1635 ,1.09559 ,1.52045 ,14.91861 
253 ,45.3715 ,1.09766 ,1.51702 ,14.88503 
254 ,45.5473 ,1.09943 ,1.50676 ,14.78430 
255 ,45.7234 ,1.10118 ,1.48280 ,14.54925 
256 ,45.8994 ,1.10293 ,1.45542 ,14.28062 
257 ,46.0595 ,1.10468 ,1.45885 ,14.31420 
258 ,46.2195 ,1.10627 ,1.44516 ,14.17989 
259 ,46.4117 ,1.10802 ,1.43831 ,14.11273 
260 ,46.5876 ,1.10987 ,1.43147 ,14.04557 
261 ,46.7638 ,1.11162 ,1.41094 ,13.84410 
262 ,46.9399 ,1.11337 ,1.40751 ,13.81053 
263 ,47.1160 ,1.11518 ,1.37671 ,13.50832 
264 ,47.2920 ,1.11685 ,1.37329 ,13.47474 
265 ,47.4681 ,1.11869 ,1.36987 ,13.44116 
266 ,47.6442 ,1.12039 ,1.35276 ,13.27327 
267 ,47.8201 ,1.12214 ,1.32880 ,13.03822 
268 ,47.9962 ,1.12392 ,1.31854 ,12.93749 
269 ,48.1723 ,1.12570 ,1.31854 ,12.93749 
270 ,48.3483 ,1.12746 ,1.30143 ,12.76960 
271 ,48.5245 ,1.12921 ,1.30143 ,12.76960 
272 ,48.7005 ,1.13099 ,1.27747 ,12.53455 
273 ,48.8926 ,1.13281 ,1.25009 ,12.26592 
274 ,49.0691 ,1.13474 ,1.25009 ,12.26592 
275 ,49.2447 ,1.13650 ,1.21587 ,11.93014 
276 ,49.4048 ,1.13813 ,1.21929 ,11.96372 
277 ,49.5811 ,1.13974 ,1.21245 ,11.89656 
278 ,49.7730 ,1.14166 ,1.21587 ,11.93014 
279 ,49.9490 ,1.14344 ,1.19876 ,11.76225 
280 ,50.1250 ,1.14519 ,1.18165 ,11.59436 
281 ,50.3012 ,1.14695 ,1.15770 ,11.35931 
282 ,50.4773 ,1.14873 ,1.15085 ,11.29215 
283 ,50.6534 ,1.15048 ,1.14058 ,11.19142 
284 ,50.8294 ,1.15223 ,1.13716 ,11.15784 
285 ,50.9895 ,1.15399 ,1.11321 ,10.92279 
286 ,51.1656 ,1.15562 ,1.10979 ,10.88921 
287 ,51.3416 ,1.15733 ,1.08583 ,10.65416 
288 ,51.5177 ,1.15911 ,1.08583 ,10.65416 
289 ,51.6937 ,1.16089 ,1.07556 ,10.55343 
290 ,51.8700 ,1.16265 ,1.07214 ,10.51985 
291 ,52.0462 ,1.16444 ,1.05503 ,10.35196 
292 ,52.2220 ,1.16613 ,1.03450 ,10.15049 
293 ,52.3981 ,1.16795 ,1.03108 ,10.11691 
294 ,52.5902 ,1.16978 ,0.99343 ,9.74755 
295 ,52.7664 ,1.17160 ,0.98659 ,9.68039 
296 ,52.9262 ,1.17330 ,0.96948 ,9.51250 
297 ,53.1343 ,1.17517 ,0.97974 ,9.61324 
298 ,53.3104 ,1.17709 ,0.94552 ,9.27745 
299 ,53.4865 ,1.17881 ,0.94210 ,9.24388 
300 ,53.6625 ,1.18059 ,0.93183 ,9.14314 
301 ,53.8386 ,1.18231 ,0.92157 ,9.04241 
302 ,54.0148 ,1.18412 ,0.92499 ,9.07598 
303 ,54.1908 ,1.18593 ,0.90103 ,8.84094 
304 ,54.3669 ,1.18759 ,0.87366 ,8.57231 
305 ,54.5430 ,1.18939 ,0.85997 ,8.43800 
306 ,54.7190 ,1.19111 ,0.87366 ,8.57231 
307 ,54.8951 ,1.19291 ,0.87366 ,8.57231 
308 ,55.0711 ,1.19466 ,0.85654 ,8.40442 
309 ,55.2473 ,1.19646 ,0.83943 ,8.23653 
310 ,55.4394 ,1.19833 ,0.82917 ,8.13579 
311 ,55.6153 ,1.20011 ,0.82232 ,8.06864 
312 ,55.7913 ,1.20181 ,0.80179 ,7.86717 
313 ,55.9677 ,1.20364 ,0.77784 ,7.63212 
314 ,56.1436 ,1.20541 ,0.79152 ,7.76643 
315 ,56.3196 ,1.20710 ,0.76072 ,7.46423 
316 ,56.4957 ,1.20888 ,0.75730 ,7.43065 
317 ,56.6718 ,1.21062 ,0.73677 ,7.22918 
318 ,56.8478 ,1.21240 ,0.71966 ,7.06129 
319 ,57.0239 ,1.21416 ,0.70255 ,6.89340 
320 ,57.1999 ,1.21589 ,0.70597 ,6.92697 
321 ,57.3761 ,1.21773 ,0.69570 ,6.82624 
322 ,57.5521 ,1.21942 ,0.67859 ,6.65835 
323 ,57.7282 ,1.22123 ,0.65806 ,6.45688 
324 ,57.9042 ,1.22298 ,0.65806 ,6.45688 
325 ,58.0803 ,1.22471 ,0.64779 ,6.35614 
326 ,58.2403 ,1.22646 ,0.64779 ,6.35614 
327 ,58.4165 ,1.22808 ,0.63753 ,6.25541 
328 ,58.5926 ,1.22989 ,0.60330 ,5.91962 
329 ,58.7848 ,1.23177 ,0.61015 ,5.98678 
330 ,58.9772 ,1.23368 ,0.59646 ,5.85247 
331 ,59.1851 ,1.23570 ,0.57935 ,5.68458 
332 ,59.3772 ,1.23777 ,0.56566 ,5.55026 
333 ,59.5692 ,1.23953 ,0.55197 ,5.41595 
334 ,59.7289 ,1.24133 ,0.55197 ,5.41595 
335 ,59.9053 ,1.24300 ,0.53486 ,5.24806 
336 ,60.0970 ,1.24490 ,0.52802 ,5.18090 
337 ,60.2731 ,1.24666 ,0.50064 ,4.91228 
338 ,60.4496 ,1.24841 ,0.49037 ,4.81154 
339 ,60.6417 ,1.25026 ,0.50064 ,4.91228 
340 ,60.8334 ,1.25227 ,0.47668 ,4.67723 
341 ,61.0256 ,1.25417 ,0.46984 ,4.61007 
342 ,61.2016 ,1.25589 ,0.46300 ,4.54291 
343 ,61.3779 ,1.25773 ,0.45273 ,4.44218 
344 ,61.5696 ,1.25958 ,0.43562 ,4.27429 
345 ,61.7620 ,1.26144 ,0.42193 ,4.13997 
346 ,61.9702 ,1.26357 ,0.42535 ,4.17355 
347 ,62.1619 ,1.26546 ,0.38771 ,3.80419 
348 ,62.3380 ,1.26727 ,0.39455 ,3.87135 
349 ,62.5143 ,1.26901 ,0.36718 ,3.60272 
350 ,62.7222 ,1.27106 ,0.36033 ,3.53557 
351 ,62.8986 ,1.27290 ,0.35006 ,3.43483 
352 ,63.0581 ,1.27457 ,0.32269 ,3.16620 
353 ,63.2505 ,1.27632 ,0.30900 ,3.03189 
354 ,63.4426 ,1.27826 ,0.30558 ,2.99831 
355 ,63.6343 ,1.28032 ,0.31242 ,3.06547 
356 ,63.8264 ,1.28208 ,0.30215 ,2.96473 
357 ,64.0025 ,1.28392 ,0.29873 ,2.93116 
358 ,64.1787 ,1.28570 ,0.26793 ,2.62895 
359 ,64.3551 ,1.28749 ,0.24740 ,2.42748 
360 ,64.5472 ,1.28940 ,0.24740 ,2.42748 
361 ,64.7393 ,1.29135 ,0.23713 ,2.32675 
362 ,64.9151 ,1.29304 ,0.21660 ,2.12528 
363 ,65.1071 ,1.29486 ,0.20633 ,2.02454 
364 ,65.2834 ,1.29673 ,0.21660 ,2.12528 
365 ,65.4596 ,1.29861 ,0.19264 ,1.89023 
366 ,65.6353 ,1.30030 ,0.17553 ,1.72234 
367 ,65.8114 ,1.30199 ,0.17553 ,1.72234 
368 ,65.9879 ,1.30380 ,0.17553 ,1.72234 
369 ,66.1799 ,1.30577 ,0.15158 ,1.48729 
370 ,66.3719 ,1.30760 ,0.14473 ,1.42013 
371 ,66.5640 ,1.30948 ,0.13447 ,1.31940 
372 ,66.7398 ,1.31126 ,0.11736 ,1.15151 
373 ,66.9159 ,1.31307 ,0.08998 ,0.88288 
374 ,67.1081 ,1.31492 ,0.11393 ,1.11793 
375 ,67.3004 ,1.31687 ,0.07287 ,0.71499 
376 ,67.4764 ,1.31877 ,0.07629 ,0.74857 
377 ,67.6524 ,1.32039 ,0.07629 ,0.74857 
378 ,67.8445 ,1.32227 ,0.04549 ,0.44636 
379 ,68.0362 ,1.32423 ,0.03522 ,0.34563 
380 ,68.3726 ,1.32759 ,0.05576 ,0.54710 
381 ,68.5647 ,1.32945 ,0.02496 ,0.24489 
382 ,68.7570 ,1.33145 ,0.01127 ,0.11058 
383 ,68.9490 ,1.33334 ,0.00443 ,0.04342 
384 ,69.1408 ,1.33533 ,-0.01269 ,-0.12447 
385 ,69.3172 ,1.33706 ,-0.04006 ,-0.39310 
386 ,69.4928 ,1.33879 ,-0.01953 ,-0.19163 
387 ,69.6691 ,1.34059 ,-0.03322 ,-0.32594 
388 ,69.8454 ,1.34234 ,-0.05717 ,-0.56099 
389 ,70.0374 ,1.34423 ,-0.07086 ,-0.69530 
390 ,70.2292 ,1.34611 ,-0.07428 ,-0.72888 
391 ,70.4053 ,1.34798 ,-0.08455 ,-0.82961 
392 ,70.5815 ,1.34968 ,-0.09140 ,-0.89677 
393 ,70.7579 ,1.35146 ,-0.10508 ,-1.03108 
394 ,70.9499 ,1.35340 ,-0.09824 ,-0.96393 
395 ,71.1577 ,1.35543 ,-0.11535 ,-1.13182 
396 ,71.3336 ,1.35716 ,-0.12904 ,-1.26613 
397 ,71.5257 ,1.35908 ,-0.13931 ,-1.36687 
398 ,71.7180 ,1.36095 ,-0.15299 ,-1.50118 
399 ,71.9103 ,1.36298 ,-0.14957 ,-1.46760 
400 ,72.1022 ,1.36494 ,-0.17353 ,-1.70265 
401 ,72.2783 ,1.36671 ,-0.16326 ,-1.60191 
402 ,72.4380 ,1.36837 ,-0.18037 ,-1.76981 
403 ,72.5982 ,1.36997 ,-0.18037 ,-1.76981 
404 ,72.7901 ,1.37171 ,-0.21117 ,-2.07201 
405 ,72.9662 ,1.37354 ,-0.21117 ,-2.07201 
406 ,73.1424 ,1.37532 ,-0.23513 ,-2.30706 
407 ,73.3344 ,1.37717 ,-0.22828 ,-2.23990 
408 ,73.5106 ,1.37901 ,-0.23170 ,-2.27348 
409 ,73.7190 ,1.38092 ,-0.26250 ,-2.57569 
410 ,73.9107 ,1.38303 ,-0.27277 ,-2.67642 
411 ,74.1031 ,1.38493 ,-0.28304 ,-2.77716 
412 ,74.2791 ,1.38663 ,-0.28304 ,-2.77716 
413 ,74.4709 ,1.38851 ,-0.28304 ,-2.77716 
414 ,74.6309 ,1.39029 ,-0.31726 ,-3.11294 
415 ,74.8072 ,1.39200 ,-0.31726 ,-3.11294 
416 ,74.9996 ,1.39386 ,-0.33437 ,-3.28083 
417 ,75.2076 ,1.39586 ,-0.34464 ,-3.38156 
418 ,75.3833 ,1.39765 ,-0.34464 ,-3.38156 
419 ,75.5595 ,1.39944 ,-0.34464 ,-3.38156 
420 ,75.7517 ,1.40135 ,-0.36517 ,-3.58303 
421 ,75.9598 ,1.40339 ,-0.38570 ,-3.78450 
422 ,76.1517 ,1.40536 ,-0.38912 ,-3.81808 
423 ,76.3277 ,1.40711 ,-0.40281 ,-3.95240 
424 ,76.5039 ,1.40889 ,-0.40281 ,-3.95240 
425 ,76.6963 ,1.41083 ,-0.39939 ,-3.91882 
426 ,76.8882 ,1.41272 ,-0.41650 ,-4.08671 
427 ,77.0802 ,1.41470 ,-0.40966 ,-4.01955 
428 ,77.2400 ,1.41637 ,-0.42677 ,-4.18744 
429 ,77.4161 ,1.41804 ,-0.43361 ,-4.25460 
430 ,77.6083 ,1.41988 ,-0.45757 ,-4.48965 
431 ,77.8164 ,1.42199 ,-0.44388 ,-4.35534 
432 ,78.0086 ,1.42394 ,-0.48152 ,-4.72470 
433 ,78.2005 ,1.42591 ,-0.48837 ,-4.79185 
434 ,78.3766 ,1.42763 ,-0.48152 ,-4.72470 
435 ,78.5525 ,1.42940 ,-0.49863 ,-4.89259 
436 ,78.7290 ,1.43113 ,-0.50890 ,-4.99332 
437 ,78.9207 ,1.43307 ,-0.51574 ,-5.06048 
438 ,79.0967 ,1.43489 ,-0.52601 ,-5.16121 
439 ,79.2730 ,1.43658 ,-0.54312 ,-5.32911 
440 ,79.4652 ,1.43848 ,-0.54654 ,-5.36268 
441 ,79.6410 ,1.44036 ,-0.54997 ,-5.39626 
442 ,79.8009 ,1.44196 ,-0.54997 ,-5.39626 
443 ,79.9932 ,1.44371 ,-0.57050 ,-5.59773 
444 ,80.1852 ,1.44565 ,-0.58419 ,-5.73205 
445 ,80.3613 ,1.44743 ,-0.58419 ,-5.73205 
446 ,80.5374 ,1.44922 ,-0.59103 ,-5.79920 
447 ,80.7134 ,1.45094 ,-0.60130 ,-5.89994 
448 ,80.8895 ,1.45272 ,-0.60814 ,-5.96709 
449 ,81.0656 ,1.45451 ,-0.62183 ,-6.10141 
450 ,81.2416 ,1.45623 ,-0.61841 ,-6.06783 
451 ,81.4177 ,1.45802 ,-0.62868 ,-6.16856 
452 ,81.5777 ,1.45976 ,-0.63894 ,-6.26930 
453 ,81.7538 ,1.46139 ,-0.64921 ,-6.37003 
454 ,81.9299 ,1.46315 ,-0.65263 ,-6.40361 
455 ,82.1059 ,1.46490 ,-0.66632 ,-6.53793 
456 ,82.2820 ,1.46662 ,-0.65263 ,-6.40361 
457 ,82.4420 ,1.46836 ,-0.66974 ,-6.57150 
458 ,82.6181 ,1.47005 ,-0.67659 ,-6.63866 
459 ,82.8105 ,1.47187 ,-0.68343 ,-6.70582 
460 ,82.9862 ,1.47379 ,-0.69027 ,-6.77297 
461 ,83.1623 ,1.47547 ,-0.69370 ,-6.80655 
462 ,83.3384 ,1.47722 ,-0.69712 ,-6.84013 
463 ,83.5145 ,1.47897 ,-0.73476 ,-7.20949 
