Data stamp = , 20-04-2022 19:32:22 895

Calibration Values: 
Slope = , 26.54 , g/V 
Offset Voltage at no contact = , -0.501760 , V 

No , Time , Stage Position ,   Mass , Force 
   ,  (s) ,      (mm)      ,   (g)  , (mN)  

1 ,0.0000 ,0.64934 ,5.30194 ,52.02263 
2 ,0.2037 ,0.64943 ,5.31221 ,52.12337 
3 ,0.5241 ,0.65022 ,5.29852 ,51.98905 
4 ,0.7004 ,0.65156 ,5.30194 ,52.02263 
5 ,0.9084 ,0.65320 ,5.31221 ,52.12337 
6 ,1.0846 ,0.65498 ,5.32247 ,52.22410 
7 ,1.2766 ,0.65686 ,5.30536 ,52.05621 
8 ,1.4526 ,0.65857 ,5.31221 ,52.12337 
9 ,1.6285 ,0.66037 ,5.29852 ,51.98905 
10 ,1.8048 ,0.66218 ,5.29510 ,51.95548 
11 ,2.0129 ,0.66418 ,5.26430 ,51.65327 
12 ,2.2049 ,0.66615 ,5.26087 ,51.61969 
13 ,2.3811 ,0.66794 ,5.23007 ,51.31749 
14 ,2.5731 ,0.66976 ,5.21981 ,51.21675 
15 ,2.7654 ,0.67173 ,5.18559 ,50.88097 
16 ,2.9567 ,0.67368 ,5.16505 ,50.67950 
17 ,3.1492 ,0.67555 ,5.15479 ,50.57876 
18 ,3.3413 ,0.67759 ,5.13083 ,50.34372 
19 ,3.5494 ,0.67954 ,5.12741 ,50.31014 
20 ,3.7414 ,0.68152 ,5.10003 ,50.04151 
21 ,3.9176 ,0.68330 ,5.09661 ,50.00793 
22 ,4.0937 ,0.68499 ,5.06923 ,49.73931 
23 ,4.2696 ,0.68683 ,5.06581 ,49.70573 
24 ,4.4458 ,0.68856 ,5.04870 ,49.53784 
25 ,4.6219 ,0.69034 ,5.01448 ,49.20205 
26 ,4.8141 ,0.69216 ,5.00421 ,49.10132 
27 ,5.0060 ,0.69415 ,4.98368 ,48.89985 
28 ,5.2141 ,0.69620 ,4.95630 ,48.63122 
29 ,5.4221 ,0.69824 ,4.92208 ,48.29544 
30 ,5.6303 ,0.70024 ,4.92892 ,48.36260 
31 ,5.8220 ,0.70235 ,4.89470 ,48.02681 
32 ,5.9984 ,0.70410 ,4.87075 ,47.79177 
33 ,6.1901 ,0.70591 ,4.86390 ,47.72461 
34 ,6.3661 ,0.70782 ,4.83310 ,47.42240 
35 ,6.5424 ,0.70955 ,4.82284 ,47.32167 
36 ,6.7507 ,0.71158 ,4.81599 ,47.25451 
37 ,6.9428 ,0.71346 ,4.78519 ,46.95231 
38 ,7.1349 ,0.71543 ,4.77835 ,46.88515 
39 ,7.3110 ,0.71723 ,4.76466 ,46.75084 
40 ,7.5351 ,0.71930 ,4.73044 ,46.41506 
41 ,7.7268 ,0.72129 ,4.72017 ,46.31432 
42 ,7.9031 ,0.72314 ,4.69964 ,46.11285 
43 ,8.0952 ,0.72499 ,4.68253 ,45.94496 
44 ,8.2713 ,0.72684 ,4.67911 ,45.91138 
45 ,8.4636 ,0.72869 ,4.64488 ,45.57560 
46 ,8.6715 ,0.73076 ,4.64831 ,45.60918 
47 ,8.8635 ,0.73270 ,4.60040 ,45.13908 
48 ,9.0394 ,0.73449 ,4.59013 ,45.03835 
49 ,9.2317 ,0.73639 ,4.59013 ,45.03835 
50 ,9.4234 ,0.73843 ,4.56275 ,44.76972 
51 ,9.5999 ,0.74006 ,4.53880 ,44.53467 
52 ,9.8077 ,0.74216 ,4.53537 ,44.50109 
53 ,9.9840 ,0.74405 ,4.50457 ,44.19889 
54 ,10.1600 ,0.74570 ,4.49089 ,44.06457 
55 ,10.3360 ,0.74745 ,4.46693 ,43.82953 
56 ,10.5122 ,0.74923 ,4.46009 ,43.76237 
57 ,10.7042 ,0.75111 ,4.45666 ,43.72879 
58 ,10.8803 ,0.75287 ,4.41560 ,43.32585 
59 ,11.0564 ,0.75469 ,4.40533 ,43.22512 
60 ,11.2320 ,0.75641 ,4.40191 ,43.19154 
61 ,11.4084 ,0.75815 ,4.38822 ,43.05723 
62 ,11.5845 ,0.75990 ,4.35400 ,42.72144 
63 ,11.7604 ,0.76172 ,4.34716 ,42.65429 
64 ,11.9368 ,0.76344 ,4.33347 ,42.51997 
65 ,12.1289 ,0.76528 ,4.31978 ,42.38566 
66 ,12.3527 ,0.76733 ,4.30267 ,42.21777 
67 ,12.5609 ,0.76965 ,4.25818 ,41.78125 
68 ,12.7530 ,0.77157 ,4.27187 ,41.91556 
69 ,12.9614 ,0.77364 ,4.23080 ,41.51262 
70 ,13.1530 ,0.77557 ,4.22396 ,41.44547 
71 ,13.3293 ,0.77733 ,4.22053 ,41.41189 
72 ,13.5054 ,0.77911 ,4.19658 ,41.17684 
73 ,13.7133 ,0.78118 ,4.17262 ,40.94179 
74 ,13.8895 ,0.78293 ,4.16236 ,40.84106 
75 ,14.0659 ,0.78472 ,4.14183 ,40.63959 
76 ,14.2418 ,0.78653 ,4.11445 ,40.37096 
77 ,14.4339 ,0.78830 ,4.13156 ,40.53885 
78 ,14.6099 ,0.79020 ,4.12129 ,40.43812 
79 ,14.8179 ,0.79220 ,4.08023 ,40.03518 
80 ,15.0259 ,0.79416 ,4.04943 ,39.73297 
81 ,15.2022 ,0.79609 ,4.03916 ,39.63224 
82 ,15.3779 ,0.79785 ,4.02547 ,39.49793 
83 ,15.5864 ,0.79988 ,4.00494 ,39.29646 
84 ,15.7782 ,0.80177 ,3.99125 ,39.16214 
85 ,15.9866 ,0.80384 ,3.98441 ,39.09499 
86 ,16.1786 ,0.80582 ,3.95018 ,38.75920 
87 ,16.3705 ,0.80776 ,3.94334 ,38.69205 
88 ,16.5468 ,0.80954 ,3.92281 ,38.49058 
89 ,16.7547 ,0.81147 ,3.90912 ,38.35626 
90 ,16.9469 ,0.81353 ,3.89543 ,38.22195 
91 ,17.1546 ,0.81558 ,3.87490 ,38.02048 
92 ,17.3466 ,0.81746 ,3.85436 ,37.81901 
93 ,17.5226 ,0.81931 ,3.82699 ,37.55038 
94 ,17.7150 ,0.82113 ,3.83725 ,37.65112 
95 ,17.9072 ,0.82310 ,3.78934 ,37.18102 
96 ,18.1153 ,0.82517 ,3.78250 ,37.11387 
97 ,18.3235 ,0.82724 ,3.75170 ,36.81166 
98 ,18.5155 ,0.82915 ,3.76196 ,36.91240 
99 ,18.7237 ,0.83124 ,3.71748 ,36.47588 
100 ,18.9475 ,0.83328 ,3.72432 ,36.54303 
101 ,19.1397 ,0.83534 ,3.69694 ,36.27441 
102 ,19.3159 ,0.83721 ,3.68668 ,36.17367 
103 ,19.5077 ,0.83913 ,3.66272 ,35.93863 
104 ,19.6999 ,0.84098 ,3.64219 ,35.73716 
105 ,19.8762 ,0.84280 ,3.63534 ,35.67000 
106 ,20.0681 ,0.84478 ,3.59428 ,35.26706 
107 ,20.2604 ,0.84656 ,3.59428 ,35.26706 
108 ,20.4686 ,0.84866 ,3.55663 ,34.89770 
109 ,20.6445 ,0.85051 ,3.54295 ,34.76338 
110 ,20.8362 ,0.85236 ,3.54637 ,34.79696 
111 ,21.0123 ,0.85417 ,3.52926 ,34.62907 
112 ,21.2202 ,0.85611 ,3.49161 ,34.25971 
113 ,21.4125 ,0.85808 ,3.49161 ,34.25971 
114 ,21.5888 ,0.85990 ,3.48477 ,34.19255 
115 ,21.7809 ,0.86181 ,3.46081 ,33.95751 
116 ,21.9889 ,0.86386 ,3.42317 ,33.58814 
117 ,22.1810 ,0.86589 ,3.41290 ,33.48741 
118 ,22.3568 ,0.86767 ,3.41290 ,33.48741 
119 ,22.5332 ,0.86937 ,3.39921 ,33.35310 
120 ,22.6929 ,0.87114 ,3.38895 ,33.25236 
121 ,22.8694 ,0.87270 ,3.35815 ,32.95016 
122 ,23.0769 ,0.87472 ,3.33077 ,32.68153 
123 ,23.2696 ,0.87668 ,3.33419 ,32.71511 
124 ,23.4455 ,0.87851 ,3.29997 ,32.37933 
125 ,23.6376 ,0.88041 ,3.29655 ,32.34575 
126 ,23.8135 ,0.88219 ,3.29655 ,32.34575 
127 ,24.0218 ,0.88408 ,3.26233 ,32.00996 
128 ,24.2137 ,0.88612 ,3.26575 ,32.04354 
129 ,24.4056 ,0.88797 ,3.21784 ,31.57345 
130 ,24.5821 ,0.88988 ,3.19731 ,31.37198 
131 ,24.7741 ,0.89178 ,3.19731 ,31.37198 
132 ,24.9501 ,0.89358 ,3.19046 ,31.30482 
133 ,25.1420 ,0.89548 ,3.15282 ,30.93546 
134 ,25.3182 ,0.89723 ,3.15624 ,30.96904 
135 ,25.4940 ,0.89896 ,3.13571 ,30.76757 
136 ,25.6865 ,0.90089 ,3.11518 ,30.56610 
137 ,25.9104 ,0.90300 ,3.10149 ,30.43178 
138 ,26.0866 ,0.90485 ,3.07411 ,30.16316 
139 ,26.2948 ,0.90683 ,3.07069 ,30.12958 
140 ,26.4711 ,0.90871 ,3.05015 ,29.92811 
141 ,26.6467 ,0.91054 ,3.02962 ,29.72664 
142 ,26.8227 ,0.91228 ,3.00567 ,29.49159 
143 ,27.0149 ,0.91415 ,3.02278 ,29.65948 
144 ,27.1911 ,0.91593 ,2.99540 ,29.39086 
145 ,27.3673 ,0.91771 ,2.95776 ,29.02150 
146 ,27.5593 ,0.91963 ,2.94407 ,28.88718 
147 ,27.7352 ,0.92139 ,2.95091 ,28.95434 
148 ,27.9272 ,0.92329 ,2.91669 ,28.61856 
149 ,28.1034 ,0.92507 ,2.89958 ,28.45066 
150 ,28.2795 ,0.92683 ,2.88931 ,28.34993 
151 ,28.4718 ,0.92865 ,2.87220 ,28.18204 
152 ,28.6637 ,0.93061 ,2.84825 ,27.94699 
153 ,28.8398 ,0.93241 ,2.85509 ,28.01415 
154 ,29.0319 ,0.93434 ,2.82771 ,27.74552 
155 ,29.2400 ,0.93632 ,2.81060 ,27.57763 
156 ,29.4320 ,0.93826 ,2.78665 ,27.34258 
157 ,29.6240 ,0.94025 ,2.77296 ,27.20827 
158 ,29.7838 ,0.94195 ,2.75243 ,27.00680 
159 ,29.9602 ,0.94361 ,2.73874 ,26.87248 
160 ,30.1522 ,0.94552 ,2.73531 ,26.83891 
161 ,30.3284 ,0.94728 ,2.72163 ,26.70459 
162 ,30.5365 ,0.94935 ,2.69767 ,26.46954 
163 ,30.7286 ,0.95129 ,2.69767 ,26.46954 
164 ,30.9044 ,0.95311 ,2.67029 ,26.20092 
165 ,31.0806 ,0.95482 ,2.65318 ,26.03303 
166 ,31.2568 ,0.95661 ,2.64634 ,25.96587 
167 ,31.4488 ,0.95853 ,2.61554 ,25.66367 
168 ,31.6565 ,0.96040 ,2.62238 ,25.73082 
169 ,31.8326 ,0.96232 ,2.59843 ,25.49577 
170 ,32.0088 ,0.96410 ,2.57447 ,25.26073 
171 ,32.2012 ,0.96601 ,2.56421 ,25.15999 
172 ,32.4091 ,0.96799 ,2.55394 ,25.05926 
173 ,32.5853 ,0.96984 ,2.51287 ,24.65632 
174 ,32.7613 ,0.97161 ,2.52656 ,24.79063 
175 ,32.9371 ,0.97337 ,2.51972 ,24.72347 
176 ,33.1135 ,0.97521 ,2.47181 ,24.25338 
177 ,33.2896 ,0.97687 ,2.48207 ,24.35411 
178 ,33.4978 ,0.97888 ,2.46496 ,24.18622 
179 ,33.6738 ,0.98075 ,2.44443 ,23.98475 
180 ,33.8658 ,0.98263 ,2.44101 ,23.95117 
181 ,34.0416 ,0.98439 ,2.40679 ,23.61539 
182 ,34.2340 ,0.98624 ,2.39994 ,23.54823 
183 ,34.4421 ,0.98831 ,2.36572 ,23.21245 
184 ,34.6342 ,0.99031 ,2.36572 ,23.21245 
185 ,34.8262 ,0.99227 ,2.34177 ,22.97740 
186 ,35.0343 ,0.99430 ,2.33492 ,22.91024 
187 ,35.2263 ,0.99620 ,2.31097 ,22.67520 
188 ,35.4345 ,0.99827 ,2.29385 ,22.50731 
189 ,35.6266 ,1.00019 ,2.29043 ,22.47373 
190 ,35.8344 ,1.00214 ,2.28359 ,22.40657 
191 ,36.0107 ,1.00412 ,2.23568 ,21.93647 
192 ,36.1865 ,1.00584 ,2.23226 ,21.90290 
193 ,36.3787 ,1.00775 ,2.23910 ,21.97005 
194 ,36.7310 ,1.01130 ,2.19119 ,21.49996 
195 ,36.9387 ,1.01326 ,2.17750 ,21.36564 
196 ,37.1148 ,1.01514 ,2.17750 ,21.36564 
197 ,37.2909 ,1.01689 ,2.14670 ,21.06344 
198 ,37.4831 ,1.01879 ,2.11932 ,20.79481 
199 ,37.6755 ,1.02074 ,2.13301 ,20.92912 
200 ,37.8673 ,1.02262 ,2.11932 ,20.79481 
201 ,38.0435 ,1.02440 ,2.09195 ,20.52619 
202 ,38.2513 ,1.02635 ,2.06799 ,20.29114 
203 ,38.4115 ,1.02820 ,2.04746 ,20.08967 
204 ,38.5874 ,1.02984 ,2.04061 ,20.02251 
205 ,38.7639 ,1.03160 ,2.03035 ,19.92178 
206 ,38.9558 ,1.03363 ,2.00639 ,19.68673 
207 ,39.1316 ,1.03529 ,2.00297 ,19.65315 
208 ,39.3240 ,1.03717 ,1.98586 ,19.48526 
209 ,39.5321 ,1.03928 ,1.96190 ,19.25021 
210 ,39.7242 ,1.04121 ,1.96190 ,19.25021 
211 ,39.9163 ,1.04310 ,1.94137 ,19.04874 
212 ,40.0924 ,1.04491 ,1.92768 ,18.91443 
213 ,40.2845 ,1.04679 ,1.91742 ,18.81369 
214 ,40.4922 ,1.04883 ,1.89346 ,18.57864 
215 ,40.6687 ,1.05066 ,1.87293 ,18.37717 
216 ,40.8447 ,1.05246 ,1.86608 ,18.31002 
217 ,41.0688 ,1.05451 ,1.84897 ,18.14213 
218 ,41.2609 ,1.05651 ,1.84213 ,18.07497 
219 ,41.4530 ,1.05842 ,1.83871 ,18.04139 
220 ,41.6286 ,1.06030 ,1.81475 ,17.80634 
221 ,41.8208 ,1.06209 ,1.80106 ,17.67203 
222 ,42.0132 ,1.06413 ,1.77711 ,17.43698 
223 ,42.2052 ,1.06600 ,1.76342 ,17.30267 
224 ,42.3967 ,1.06800 ,1.73262 ,17.00046 
225 ,42.5891 ,1.06983 ,1.72920 ,16.96689 
226 ,42.7814 ,1.07178 ,1.72235 ,16.89973 
227 ,42.9895 ,1.07380 ,1.70182 ,16.69826 
228 ,43.1973 ,1.07585 ,1.68471 ,16.53037 
229 ,43.3737 ,1.07764 ,1.67102 ,16.39605 
230 ,43.5658 ,1.07954 ,1.65391 ,16.22816 
231 ,43.7574 ,1.08158 ,1.63338 ,16.02669 
232 ,43.9338 ,1.08328 ,1.64707 ,16.16101 
233 ,44.1260 ,1.08512 ,1.61284 ,15.82522 
234 ,44.3179 ,1.08712 ,1.61627 ,15.85880 
235 ,44.5100 ,1.08901 ,1.58204 ,15.52302 
236 ,44.6862 ,1.09082 ,1.56493 ,15.35513 
237 ,44.8620 ,1.09270 ,1.56836 ,15.38871 
238 ,45.0383 ,1.09430 ,1.56493 ,15.35513 
239 ,45.2304 ,1.09618 ,1.53756 ,15.08650 
240 ,45.4225 ,1.09812 ,1.53756 ,15.08650 
241 ,45.5986 ,1.09996 ,1.51702 ,14.88503 
242 ,45.7907 ,1.10190 ,1.49307 ,14.64998 
243 ,45.9828 ,1.10368 ,1.47938 ,14.51567 
244 ,46.1747 ,1.10573 ,1.46569 ,14.38136 
245 ,46.3506 ,1.10747 ,1.45200 ,14.24704 
246 ,46.5268 ,1.10921 ,1.44516 ,14.17989 
247 ,46.7027 ,1.11099 ,1.44174 ,14.14631 
248 ,46.8949 ,1.11283 ,1.41094 ,13.84410 
249 ,47.0711 ,1.11468 ,1.40751 ,13.81053 
250 ,47.2791 ,1.11669 ,1.38014 ,13.54190 
251 ,47.4711 ,1.11866 ,1.35960 ,13.34043 
252 ,47.6473 ,1.12041 ,1.35960 ,13.34043 
253 ,47.8393 ,1.12225 ,1.34591 ,13.20612 
254 ,48.0469 ,1.12433 ,1.31512 ,12.90391 
255 ,48.2234 ,1.12621 ,1.32880 ,13.03822 
256 ,48.4149 ,1.12809 ,1.30143 ,12.76960 
257 ,48.6235 ,1.13004 ,1.30485 ,12.80318 
258 ,48.8156 ,1.13203 ,1.26720 ,12.43381 
259 ,48.9917 ,1.13386 ,1.27747 ,12.53455 
260 ,49.1516 ,1.13558 ,1.26036 ,12.36666 
261 ,49.3437 ,1.13726 ,1.24325 ,12.19877 
262 ,49.5359 ,1.13930 ,1.22956 ,12.06445 
263 ,49.7120 ,1.14108 ,1.19876 ,11.76225 
264 ,49.8880 ,1.14278 ,1.19534 ,11.72867 
265 ,50.0642 ,1.14459 ,1.19534 ,11.72867 
266 ,50.2563 ,1.14646 ,1.18507 ,11.62794 
267 ,50.4482 ,1.14838 ,1.17481 ,11.52720 
268 ,50.6405 ,1.15027 ,1.16796 ,11.46004 
269 ,50.8165 ,1.15211 ,1.14058 ,11.19142 
270 ,51.0086 ,1.15398 ,1.14058 ,11.19142 
271 ,51.1847 ,1.15586 ,1.11663 ,10.95637 
272 ,51.3769 ,1.15763 ,1.10636 ,10.85563 
273 ,51.5849 ,1.15981 ,1.08925 ,10.68774 
274 ,51.7771 ,1.16169 ,1.07556 ,10.55343 
275 ,51.9692 ,1.16365 ,1.06530 ,10.45270 
276 ,52.1769 ,1.16561 ,1.05161 ,10.31838 
277 ,52.3529 ,1.16752 ,1.04476 ,10.25123 
278 ,52.5291 ,1.16922 ,1.01739 ,9.98260 
279 ,52.7212 ,1.17104 ,0.99685 ,9.78113 
280 ,52.8972 ,1.17290 ,1.00370 ,9.84829 
281 ,53.0738 ,1.17469 ,0.98317 ,9.64682 
282 ,53.2655 ,1.17654 ,0.98659 ,9.68039 
283 ,53.4416 ,1.17827 ,0.97290 ,9.54608 
284 ,53.6176 ,1.18010 ,0.95579 ,9.37819 
285 ,53.7937 ,1.18187 ,0.93525 ,9.17672 
286 ,53.9701 ,1.18361 ,0.92499 ,9.07598 
287 ,54.1617 ,1.18547 ,0.92841 ,9.10956 
288 ,54.3540 ,1.18741 ,0.89761 ,8.80736 
289 ,54.5460 ,1.18931 ,0.90788 ,8.90809 
290 ,54.7541 ,1.19136 ,0.88050 ,8.63947 
291 ,54.9462 ,1.19339 ,0.86681 ,8.50515 
292 ,55.1224 ,1.19517 ,0.86681 ,8.50515 
293 ,55.3144 ,1.19702 ,0.83943 ,8.23653 
294 ,55.4900 ,1.19884 ,0.85312 ,8.37084 
295 ,55.6664 ,1.20059 ,0.82232 ,8.06864 
296 ,55.8426 ,1.20234 ,0.81206 ,7.96790 
297 ,56.0185 ,1.20409 ,0.80179 ,7.86717 
298 ,56.2265 ,1.20610 ,0.79495 ,7.80001 
299 ,56.4030 ,1.20795 ,0.78468 ,7.69927 
300 ,56.5950 ,1.20980 ,0.74704 ,7.32991 
301 ,56.7709 ,1.21158 ,0.74361 ,7.29633 
302 ,56.9632 ,1.21353 ,0.74019 ,7.26276 
303 ,57.1547 ,1.21535 ,0.72308 ,7.09486 
304 ,57.3472 ,1.21728 ,0.69913 ,6.85982 
305 ,57.5232 ,1.21913 ,0.69570 ,6.82624 
306 ,57.6833 ,1.22086 ,0.68886 ,6.75908 
307 ,57.8914 ,1.22269 ,0.66833 ,6.55761 
308 ,58.0676 ,1.22457 ,0.66148 ,6.49046 
309 ,58.2756 ,1.22659 ,0.64095 ,6.28899 
310 ,58.4676 ,1.22852 ,0.64437 ,6.32256 
311 ,58.6434 ,1.23035 ,0.63068 ,6.18825 
312 ,58.8199 ,1.23210 ,0.62042 ,6.08752 
313 ,59.0118 ,1.23403 ,0.60330 ,5.91962 
314 ,59.2038 ,1.23593 ,0.59988 ,5.88605 
315 ,59.3961 ,1.23781 ,0.57593 ,5.65100 
316 ,59.5724 ,1.23961 ,0.56908 ,5.58384 
317 ,59.7478 ,1.24150 ,0.56566 ,5.55026 
318 ,59.9244 ,1.24312 ,0.54513 ,5.34879 
319 ,60.1004 ,1.24493 ,0.54171 ,5.31522 
320 ,60.2766 ,1.24666 ,0.51775 ,5.08017 
321 ,60.4526 ,1.24854 ,0.51775 ,5.08017 
322 ,60.6285 ,1.25022 ,0.49722 ,4.87870 
323 ,60.8205 ,1.25219 ,0.48695 ,4.77796 
324 ,61.0126 ,1.25399 ,0.48353 ,4.74438 
325 ,61.2049 ,1.25592 ,0.48011 ,4.71081 
326 ,61.3807 ,1.25773 ,0.46300 ,4.54291 
327 ,61.5569 ,1.25944 ,0.43562 ,4.27429 
328 ,61.7331 ,1.26124 ,0.43220 ,4.24071 
329 ,61.9248 ,1.26321 ,0.42877 ,4.20713 
330 ,62.1170 ,1.26497 ,0.40824 ,4.00566 
331 ,62.2929 ,1.26679 ,0.40140 ,3.93850 
332 ,62.4849 ,1.26867 ,0.39455 ,3.87135 
333 ,62.6770 ,1.27055 ,0.38429 ,3.77061 
334 ,62.8530 ,1.27246 ,0.39113 ,3.83777 
335 ,63.0453 ,1.27424 ,0.37402 ,3.66988 
336 ,63.2855 ,1.27676 ,0.35006 ,3.43483 
337 ,63.4777 ,1.27860 ,0.33638 ,3.30052 
338 ,63.6537 ,1.28045 ,0.31584 ,3.09905 
339 ,63.8298 ,1.28217 ,0.32953 ,3.23336 
340 ,64.0061 ,1.28395 ,0.31584 ,3.09905 
341 ,64.1822 ,1.28570 ,0.30900 ,3.03189 
342 ,64.3902 ,1.28774 ,0.29873 ,2.93116 
343 ,64.5982 ,1.28976 ,0.27820 ,2.72969 
344 ,64.7744 ,1.29163 ,0.26109 ,2.56179 
345 ,64.9668 ,1.29349 ,0.25767 ,2.52822 
346 ,65.1421 ,1.29529 ,0.25424 ,2.49464 
347 ,65.3186 ,1.29705 ,0.23029 ,2.25959 
348 ,65.5265 ,1.29908 ,0.23029 ,2.25959 
349 ,65.7023 ,1.30088 ,0.20633 ,2.02454 
350 ,65.8788 ,1.30269 ,0.18922 ,1.85665 
351 ,66.0711 ,1.30448 ,0.19264 ,1.89023 
352 ,66.2629 ,1.30652 ,0.17896 ,1.75592 
353 ,66.4387 ,1.30826 ,0.16185 ,1.58802 
354 ,66.6153 ,1.31002 ,0.15158 ,1.48729 
355 ,66.8068 ,1.31199 ,0.13447 ,1.31940 
356 ,66.9991 ,1.31374 ,0.14131 ,1.38655 
357 ,67.1751 ,1.31565 ,0.11051 ,1.08435 
358 ,67.3671 ,1.31750 ,0.11736 ,1.15151 
359 ,67.5596 ,1.31941 ,0.08656 ,0.84930 
360 ,67.7514 ,1.32132 ,0.10025 ,0.98361 
361 ,67.9435 ,1.32330 ,0.06602 ,0.64783 
362 ,68.1199 ,1.32511 ,0.05576 ,0.54710 
363 ,68.3273 ,1.32710 ,0.05576 ,0.54710 
364 ,68.5038 ,1.32887 ,0.04549 ,0.44636 
365 ,68.6799 ,1.33070 ,0.01469 ,0.14416 
366 ,68.8721 ,1.33257 ,0.03522 ,0.34563 
367 ,69.0641 ,1.33449 ,0.01811 ,0.17773 
368 ,69.2402 ,1.33623 ,0.00100 ,0.00984 
369 ,69.4159 ,1.33804 ,-0.01953 ,-0.19163 
370 ,69.5922 ,1.33984 ,-0.01269 ,-0.12447 
371 ,69.7684 ,1.34153 ,-0.01953 ,-0.19163 
372 ,69.9605 ,1.34343 ,-0.04348 ,-0.42667 
373 ,70.1525 ,1.34540 ,-0.04691 ,-0.46025 
374 ,70.3447 ,1.34735 ,-0.06744 ,-0.66172 
375 ,70.5203 ,1.34907 ,-0.08113 ,-0.79604 
376 ,70.7129 ,1.35089 ,-0.06060 ,-0.59457 
377 ,70.9369 ,1.35306 ,-0.08113 ,-0.79604 
378 ,71.1130 ,1.35499 ,-0.09482 ,-0.93035 
379 ,71.3210 ,1.35698 ,-0.11877 ,-1.16540 
380 ,71.5131 ,1.35894 ,-0.10508 ,-1.03108 
381 ,71.6890 ,1.36075 ,-0.12562 ,-1.23255 
382 ,71.8653 ,1.36249 ,-0.12904 ,-1.26613 
383 ,72.0414 ,1.36429 ,-0.14957 ,-1.46760 
384 ,72.2657 ,1.36634 ,-0.15299 ,-1.50118 
385 ,72.4735 ,1.36844 ,-0.15642 ,-1.53476 
386 ,72.6493 ,1.37034 ,-0.18379 ,-1.80338 
387 ,72.8417 ,1.37229 ,-0.19748 ,-1.93770 
388 ,73.0497 ,1.37424 ,-0.18722 ,-1.83696 
389 ,73.2259 ,1.37609 ,-0.19748 ,-1.93770 
390 ,73.4339 ,1.37809 ,-0.19748 ,-1.93770 
391 ,73.6098 ,1.37990 ,-0.21802 ,-2.13917 
392 ,73.7855 ,1.38166 ,-0.23513 ,-2.30706 
393 ,73.9623 ,1.38348 ,-0.25224 ,-2.47495 
394 ,74.1542 ,1.38541 ,-0.24881 ,-2.44137 
395 ,74.3461 ,1.38721 ,-0.27961 ,-2.74358 
396 ,74.5221 ,1.38908 ,-0.28304 ,-2.77716 
397 ,74.7143 ,1.39096 ,-0.26935 ,-2.64284 
398 ,74.9223 ,1.39296 ,-0.30699 ,-3.01220 
399 ,75.1148 ,1.39500 ,-0.29330 ,-2.87789 
400 ,75.3225 ,1.39692 ,-0.30015 ,-2.94505 
401 ,75.4827 ,1.39876 ,-0.33437 ,-3.28083 
402 ,75.6586 ,1.40043 ,-0.35148 ,-3.44872 
403 ,75.8347 ,1.40214 ,-0.33437 ,-3.28083 
404 ,76.0107 ,1.40396 ,-0.33437 ,-3.28083 
405 ,76.2030 ,1.40587 ,-0.36517 ,-3.58303 
406 ,76.3950 ,1.40774 ,-0.35490 ,-3.48230 
407 ,76.5869 ,1.40962 ,-0.37201 ,-3.65019 
408 ,76.7633 ,1.41145 ,-0.38228 ,-3.75093 
409 ,76.9392 ,1.41322 ,-0.40623 ,-3.98597 
410 ,77.1314 ,1.41505 ,-0.39255 ,-3.85166 
411 ,77.3234 ,1.41707 ,-0.41650 ,-4.08671 
412 ,77.4996 ,1.41886 ,-0.42335 ,-4.15387 
413 ,77.6910 ,1.42071 ,-0.41308 ,-4.05313 
414 ,77.8831 ,1.42259 ,-0.44730 ,-4.38891 
415 ,78.0593 ,1.42444 ,-0.45757 ,-4.48965 
416 ,78.2515 ,1.42625 ,-0.45072 ,-4.42249 
417 ,78.4754 ,1.42855 ,-0.46099 ,-4.52323 
418 ,78.6681 ,1.43046 ,-0.47810 ,-4.69112 
419 ,78.8600 ,1.43244 ,-0.49863 ,-4.89259 
420 ,79.0522 ,1.43422 ,-0.51232 ,-5.02690 
421 ,79.2442 ,1.43625 ,-0.53628 ,-5.26195 
422 ,79.4363 ,1.43819 ,-0.52259 ,-5.12764 
423 ,79.6125 ,1.43995 ,-0.51232 ,-5.02690 
424 ,79.8046 ,1.44183 ,-0.53628 ,-5.26195 
425 ,79.9966 ,1.44378 ,-0.54654 ,-5.36268 
426 ,80.1726 ,1.44550 ,-0.55339 ,-5.42984 
427 ,80.3486 ,1.44732 ,-0.55681 ,-5.46342 
428 ,80.5408 ,1.44928 ,-0.57392 ,-5.63131 
429 ,80.7487 ,1.45114 ,-0.58077 ,-5.69847 
430 ,80.9407 ,1.45324 ,-0.60130 ,-5.89994 
431 ,81.1171 ,1.45498 ,-0.59788 ,-5.86636 
432 ,81.2927 ,1.45687 ,-0.60130 ,-5.89994 
433 ,81.4704 ,1.45853 ,-0.61499 ,-6.03425 
434 ,81.6611 ,1.46046 ,-0.64236 ,-6.30288 
435 ,81.8530 ,1.46229 ,-0.62525 ,-6.13499 
436 ,82.0453 ,1.46426 ,-0.64921 ,-6.37003 
437 ,82.2371 ,1.46611 ,-0.64921 ,-6.37003 
438 ,82.4132 ,1.46801 ,-0.64921 ,-6.37003 
439 ,82.5896 ,1.46971 ,-0.67316 ,-6.60508 
440 ,82.7975 ,1.47175 ,-0.66974 ,-6.57150 
441 ,82.9740 ,1.47350 ,-0.67659 ,-6.63866 
442 ,83.1497 ,1.47534 ,-0.68001 ,-6.67224 
443 ,83.3416 ,1.47716 ,-0.70739 ,-6.94086 
444 ,83.5019 ,1.47891 ,-0.71081 ,-6.97444 
445 ,83.6781 ,1.48059 ,-0.72107 ,-7.07518 
446 ,83.8542 ,1.48238 ,-0.71081 ,-6.97444 
447 ,84.0463 ,1.48427 ,-0.73476 ,-7.20949 
448 ,84.2379 ,1.48609 ,-0.72450 ,-7.10876 
449 ,84.4143 ,1.48795 ,-0.73818 ,-7.24307 
450 ,84.6063 ,1.48984 ,-0.75530 ,-7.41096 
451 ,84.7985 ,1.49179 ,-0.76214 ,-7.47812 
452 ,84.9746 ,1.49351 ,-0.75872 ,-7.44454 
453 ,85.1505 ,1.49532 ,-0.76214 ,-7.47812 
454 ,85.3428 ,1.49714 ,-0.77925 ,-7.64601 
455 ,85.5348 ,1.49917 ,-0.78267 ,-7.67959 
456 ,85.7267 ,1.50101 ,-0.80663 ,-7.91464 
457 ,85.9190 ,1.50293 ,-0.79636 ,-7.81390 
458 ,86.1111 ,1.50481 ,-0.80663 ,-7.91464 
459 ,86.3192 ,1.50687 ,-0.84085 ,-8.25042 
460 ,86.5269 ,1.50902 ,-0.83058 ,-8.14968 
461 ,86.7027 ,1.51082 ,-0.84769 ,-8.31758 
462 ,86.8792 ,1.51258 ,-0.86138 ,-8.45189 
463 ,87.0717 ,1.51440 ,-0.86481 ,-8.48547 
