Data stamp = , 21-04-2022 08:50:57 678

Calibration Values: 
Slope = , 26.54 , g/V 
Offset Voltage at no contact = , -0.501760 , V 

No , Time , Stage Position ,   Mass , Force 
   ,  (s) ,      (mm)      ,   (g)  , (mN)  

1 ,0.0000 ,0.64934 ,5.26430 ,51.65327 
2 ,0.2370 ,0.64946 ,5.27798 ,51.78758 
3 ,0.5576 ,0.65033 ,5.28141 ,51.82116 
4 ,0.7655 ,0.65194 ,5.26430 ,51.65327 
5 ,0.9413 ,0.65351 ,5.27798 ,51.78758 
6 ,1.1338 ,0.65533 ,5.28825 ,51.88832 
7 ,1.3417 ,0.65734 ,5.28141 ,51.82116 
8 ,1.5340 ,0.65927 ,5.28141 ,51.82116 
9 ,1.7420 ,0.66140 ,5.25403 ,51.55254 
10 ,1.9499 ,0.66354 ,5.24034 ,51.41822 
11 ,2.1418 ,0.66555 ,5.22323 ,51.25033 
12 ,2.3338 ,0.66737 ,5.21981 ,51.21675 
13 ,2.5259 ,0.66925 ,5.18559 ,50.88097 
14 ,2.7020 ,0.67109 ,5.16163 ,50.64592 
15 ,2.8781 ,0.67285 ,5.13425 ,50.37729 
16 ,3.0704 ,0.67472 ,5.13425 ,50.37729 
17 ,3.2466 ,0.67658 ,5.11714 ,50.20940 
18 ,3.4223 ,0.67827 ,5.08634 ,49.90720 
19 ,3.5989 ,0.68004 ,5.07265 ,49.77289 
20 ,3.8066 ,0.68211 ,5.03843 ,49.43710 
21 ,3.9989 ,0.68400 ,5.01448 ,49.20205 
22 ,4.1749 ,0.68584 ,5.01106 ,49.16848 
23 ,4.3831 ,0.68773 ,4.98368 ,48.89985 
24 ,4.5749 ,0.68986 ,4.98710 ,48.93343 
25 ,4.7509 ,0.69160 ,4.97341 ,48.79911 
26 ,4.9273 ,0.69336 ,4.93919 ,48.46333 
27 ,5.1193 ,0.69521 ,4.90839 ,48.16113 
28 ,5.2955 ,0.69705 ,4.90497 ,48.12755 
29 ,5.4875 ,0.69896 ,4.86732 ,47.75819 
30 ,5.6796 ,0.70088 ,4.85364 ,47.62387 
31 ,5.8716 ,0.70272 ,4.86048 ,47.69103 
32 ,6.0478 ,0.70458 ,4.84337 ,47.52314 
33 ,6.2399 ,0.70639 ,4.79888 ,47.08662 
34 ,6.4316 ,0.70834 ,4.80230 ,47.12020 
35 ,6.6080 ,0.71014 ,4.78519 ,46.95231 
36 ,6.8000 ,0.71213 ,4.76808 ,46.78442 
37 ,6.9760 ,0.71378 ,4.73728 ,46.48221 
38 ,7.1678 ,0.71578 ,4.69964 ,46.11285 
39 ,7.3439 ,0.71754 ,4.70648 ,46.18001 
40 ,7.5363 ,0.71935 ,4.68253 ,45.94496 
41 ,7.7284 ,0.72137 ,4.67568 ,45.87780 
42 ,7.9041 ,0.72314 ,4.64831 ,45.60918 
43 ,8.0805 ,0.72481 ,4.62777 ,45.40771 
44 ,8.2722 ,0.72666 ,4.62093 ,45.34055 
45 ,8.4486 ,0.72856 ,4.61066 ,45.23981 
46 ,8.6248 ,0.73031 ,4.57986 ,44.93761 
47 ,8.8167 ,0.73217 ,4.57302 ,44.87045 
48 ,9.0088 ,0.73417 ,4.55249 ,44.66898 
49 ,9.2008 ,0.73598 ,4.52511 ,44.40036 
50 ,9.3605 ,0.73777 ,4.50800 ,44.23247 
51 ,9.5371 ,0.73940 ,4.50457 ,44.19889 
52 ,9.7293 ,0.74134 ,4.48404 ,43.99742 
53 ,9.9050 ,0.74311 ,4.46693 ,43.82953 
54 ,10.0813 ,0.74485 ,4.44640 ,43.62806 
55 ,10.2575 ,0.74660 ,4.43271 ,43.49374 
56 ,10.4494 ,0.74847 ,4.41902 ,43.35943 
57 ,10.6254 ,0.75034 ,4.39849 ,43.15796 
58 ,10.8175 ,0.75222 ,4.37453 ,42.92291 
59 ,10.9937 ,0.75396 ,4.37453 ,42.92291 
60 ,11.1698 ,0.75577 ,4.35400 ,42.72144 
61 ,11.3619 ,0.75756 ,4.31978 ,42.38566 
62 ,11.5698 ,0.75965 ,4.31636 ,42.35208 
63 ,11.7459 ,0.76149 ,4.29582 ,42.15061 
64 ,11.9218 ,0.76326 ,4.27529 ,41.94914 
65 ,12.0983 ,0.76500 ,4.26160 ,41.81483 
66 ,12.2899 ,0.76688 ,4.26160 ,41.81483 
67 ,12.4824 ,0.76874 ,4.23765 ,41.57978 
68 ,12.6738 ,0.77076 ,4.22738 ,41.47905 
69 ,12.8499 ,0.77250 ,4.21027 ,41.31115 
70 ,13.0260 ,0.77434 ,4.17605 ,40.97537 
71 ,13.2025 ,0.77606 ,4.15894 ,40.80748 
72 ,13.4106 ,0.77812 ,4.15551 ,40.77390 
73 ,13.5866 ,0.77992 ,4.13840 ,40.60601 
74 ,13.7788 ,0.78175 ,4.12471 ,40.47170 
75 ,13.9707 ,0.78370 ,4.11445 ,40.37096 
76 ,14.1470 ,0.78554 ,4.09391 ,40.16949 
77 ,14.3391 ,0.78742 ,4.07338 ,39.96802 
78 ,14.5471 ,0.78940 ,4.05285 ,39.76655 
79 ,14.7387 ,0.79132 ,4.03232 ,39.56508 
80 ,14.9153 ,0.79316 ,4.00836 ,39.33003 
81 ,15.0914 ,0.79495 ,4.01520 ,39.39719 
82 ,15.2996 ,0.79689 ,3.97414 ,38.99425 
83 ,15.4916 ,0.79893 ,3.97756 ,39.02783 
84 ,15.6675 ,0.80074 ,3.95361 ,38.79278 
85 ,15.8596 ,0.80253 ,3.93992 ,38.65847 
86 ,16.0357 ,0.80440 ,3.91596 ,38.42342 
87 ,16.2279 ,0.80625 ,3.90227 ,38.28911 
88 ,16.4199 ,0.80814 ,3.87832 ,38.05406 
89 ,16.5798 ,0.80992 ,3.87147 ,37.98690 
90 ,16.7721 ,0.81167 ,3.86463 ,37.91975 
91 ,16.9639 ,0.81364 ,3.84752 ,37.75185 
92 ,17.1400 ,0.81549 ,3.82356 ,37.51681 
93 ,17.3162 ,0.81715 ,3.79961 ,37.28176 
94 ,17.5083 ,0.81910 ,3.78250 ,37.11387 
95 ,17.7000 ,0.82103 ,3.74485 ,36.74450 
96 ,17.8765 ,0.82276 ,3.75170 ,36.81166 
97 ,18.0684 ,0.82464 ,3.74485 ,36.74450 
98 ,18.2605 ,0.82657 ,3.72090 ,36.50946 
99 ,18.4365 ,0.82843 ,3.70379 ,36.34157 
100 ,18.6124 ,0.83011 ,3.69694 ,36.27441 
101 ,18.7889 ,0.83189 ,3.68668 ,36.17367 
102 ,18.9806 ,0.83384 ,3.65588 ,35.87147 
103 ,19.1730 ,0.83570 ,3.64219 ,35.73716 
104 ,19.3810 ,0.83774 ,3.61481 ,35.46853 
105 ,19.5730 ,0.83965 ,3.59770 ,35.30064 
106 ,19.7654 ,0.84167 ,3.58743 ,35.19990 
107 ,19.9569 ,0.84352 ,3.57717 ,35.09917 
108 ,20.1170 ,0.84530 ,3.55663 ,34.89770 
109 ,20.2936 ,0.84697 ,3.53952 ,34.72981 
110 ,20.5015 ,0.84894 ,3.51899 ,34.52834 
111 ,20.7097 ,0.85105 ,3.50530 ,34.39402 
112 ,20.9018 ,0.85296 ,3.47450 ,34.09182 
113 ,21.0938 ,0.85486 ,3.48819 ,34.22613 
114 ,21.2698 ,0.85671 ,3.46081 ,33.95751 
115 ,21.4620 ,0.85863 ,3.42659 ,33.62172 
116 ,21.6703 ,0.86066 ,3.41975 ,33.55457 
117 ,21.8782 ,0.86265 ,3.39237 ,33.28594 
118 ,22.0542 ,0.86459 ,3.37868 ,33.15163 
119 ,22.2301 ,0.86631 ,3.38210 ,33.18520 
120 ,22.4223 ,0.86813 ,3.34446 ,32.81584 
121 ,22.6464 ,0.87028 ,3.33419 ,32.71511 
122 ,22.8386 ,0.87232 ,3.31366 ,32.51364 
123 ,23.0304 ,0.87430 ,3.30682 ,32.44648 
124 ,23.2068 ,0.87609 ,3.28286 ,32.21143 
125 ,23.3827 ,0.87794 ,3.26233 ,32.00996 
126 ,23.5746 ,0.87977 ,3.26233 ,32.00996 
127 ,23.7667 ,0.88169 ,3.22468 ,31.64060 
128 ,23.9590 ,0.88348 ,3.22468 ,31.64060 
129 ,24.1350 ,0.88538 ,3.21442 ,31.53987 
130 ,24.3109 ,0.88708 ,3.19388 ,31.33840 
131 ,24.4871 ,0.88888 ,3.16309 ,31.03619 
132 ,24.6468 ,0.89060 ,3.14940 ,30.90188 
133 ,24.8393 ,0.89233 ,3.14255 ,30.83472 
134 ,25.0311 ,0.89428 ,3.11860 ,30.59968 
135 ,25.2074 ,0.89608 ,3.10149 ,30.43178 
136 ,25.3994 ,0.89800 ,3.09464 ,30.36463 
137 ,25.5754 ,0.89975 ,3.07069 ,30.12958 
138 ,25.7676 ,0.90160 ,3.03989 ,29.82737 
139 ,25.9438 ,0.90348 ,3.03304 ,29.76022 
140 ,26.1358 ,0.90532 ,3.03647 ,29.79380 
141 ,26.3439 ,0.90740 ,2.99540 ,29.39086 
142 ,26.5355 ,0.90931 ,3.00909 ,29.52517 
143 ,26.7120 ,0.91112 ,2.98855 ,29.32370 
144 ,26.9041 ,0.91304 ,2.95433 ,28.98792 
145 ,27.0799 ,0.91478 ,2.94407 ,28.88718 
146 ,27.2563 ,0.91658 ,2.93380 ,28.78645 
147 ,27.4482 ,0.91845 ,2.91327 ,28.58498 
148 ,27.6080 ,0.92018 ,2.87220 ,28.18204 
149 ,27.7845 ,0.92188 ,2.87220 ,28.18204 
150 ,28.0086 ,0.92393 ,2.85851 ,28.04772 
151 ,28.2005 ,0.92588 ,2.84140 ,27.87983 
152 ,28.4087 ,0.92791 ,2.80718 ,27.54405 
153 ,28.5849 ,0.92986 ,2.80376 ,27.51047 
154 ,28.7769 ,0.93167 ,2.80034 ,27.47689 
155 ,28.9528 ,0.93348 ,2.79349 ,27.40974 
156 ,29.1288 ,0.93527 ,2.75927 ,27.07395 
157 ,29.3210 ,0.93715 ,2.75243 ,27.00680 
158 ,29.4971 ,0.93907 ,2.74558 ,26.93964 
159 ,29.7052 ,0.94087 ,2.72505 ,26.73817 
160 ,29.9133 ,0.94301 ,2.69767 ,26.46954 
161 ,30.1055 ,0.94504 ,2.68056 ,26.30165 
162 ,30.2813 ,0.94684 ,2.66687 ,26.16734 
163 ,30.4576 ,0.94850 ,2.66345 ,26.13376 
164 ,30.6494 ,0.95052 ,2.63265 ,25.83156 
165 ,30.8255 ,0.95225 ,2.61896 ,25.69724 
166 ,31.0174 ,0.95412 ,2.62923 ,25.79798 
167 ,31.2095 ,0.95598 ,2.58816 ,25.39504 
168 ,31.3859 ,0.95785 ,2.57789 ,25.29430 
169 ,31.5778 ,0.95964 ,2.55736 ,25.09283 
170 ,31.7701 ,0.96164 ,2.55052 ,25.02568 
171 ,31.9456 ,0.96350 ,2.55736 ,25.09283 
172 ,32.1221 ,0.96516 ,2.51630 ,24.68989 
173 ,32.3142 ,0.96704 ,2.50603 ,24.58916 
174 ,32.5063 ,0.96895 ,2.47523 ,24.28696 
175 ,32.6984 ,0.97086 ,2.48550 ,24.38769 
176 ,32.8745 ,0.97267 ,2.46839 ,24.21980 
177 ,33.0665 ,0.97470 ,2.45127 ,24.05191 
178 ,33.2425 ,0.97633 ,2.43074 ,23.85044 
179 ,33.4187 ,0.97814 ,2.43416 ,23.88402 
180 ,33.5949 ,0.97993 ,2.40336 ,23.58181 
181 ,33.7870 ,0.98180 ,2.37941 ,23.34676 
182 ,34.0109 ,0.98392 ,2.39652 ,23.51465 
183 ,34.1871 ,0.98589 ,2.36914 ,23.24603 
184 ,34.3627 ,0.98760 ,2.33834 ,22.94382 
185 ,34.5392 ,0.98933 ,2.33834 ,22.94382 
186 ,34.7312 ,0.99127 ,2.31781 ,22.74235 
187 ,34.9072 ,0.99305 ,2.28017 ,22.37299 
188 ,35.0996 ,0.99487 ,2.28359 ,22.40657 
189 ,35.3073 ,0.99698 ,2.26648 ,22.23868 
190 ,35.4995 ,0.99895 ,2.25621 ,22.13794 
191 ,35.6915 ,1.00077 ,2.22883 ,21.86932 
192 ,35.8678 ,1.00265 ,2.22199 ,21.80216 
193 ,36.0596 ,1.00456 ,2.20830 ,21.66785 
194 ,36.2355 ,1.00628 ,2.21172 ,21.70143 
195 ,36.4280 ,1.00816 ,2.17750 ,21.36564 
196 ,36.6361 ,1.01030 ,2.16039 ,21.19775 
197 ,36.8281 ,1.01221 ,2.13644 ,20.96270 
198 ,37.0041 ,1.01398 ,2.13644 ,20.96270 
199 ,37.1801 ,1.01571 ,2.12959 ,20.89555 
200 ,37.3559 ,1.01751 ,2.11932 ,20.79481 
201 ,37.5323 ,1.01927 ,2.07826 ,20.39187 
202 ,37.7244 ,1.02109 ,2.08852 ,20.49261 
203 ,37.9005 ,1.02291 ,2.06457 ,20.25756 
204 ,38.0767 ,1.02472 ,2.05430 ,20.15682 
205 ,38.2846 ,1.02660 ,2.02693 ,19.88820 
206 ,38.6045 ,1.02928 ,2.02008 ,19.82104 
207 ,38.8129 ,1.03196 ,1.98244 ,19.45168 
208 ,39.0051 ,1.03389 ,1.98586 ,19.48526 
209 ,39.1973 ,1.03590 ,1.97902 ,19.41810 
210 ,39.3893 ,1.03779 ,1.92768 ,18.91443 
211 ,39.5811 ,1.03975 ,1.92768 ,18.91443 
212 ,39.7573 ,1.04151 ,1.92084 ,18.84727 
213 ,39.9333 ,1.04327 ,1.90031 ,18.64580 
214 ,40.1095 ,1.04504 ,1.88319 ,18.47791 
215 ,40.2856 ,1.04683 ,1.87293 ,18.37717 
216 ,40.4775 ,1.04862 ,1.84897 ,18.14213 
217 ,40.6376 ,1.05042 ,1.85240 ,18.17570 
218 ,40.8137 ,1.05211 ,1.83871 ,18.04139 
219 ,41.0059 ,1.05390 ,1.82502 ,17.90708 
220 ,41.1977 ,1.05582 ,1.81133 ,17.77276 
221 ,41.3739 ,1.05768 ,1.79764 ,17.63845 
222 ,41.5658 ,1.05948 ,1.77711 ,17.43698 
223 ,41.7580 ,1.06155 ,1.75315 ,17.20193 
224 ,41.9340 ,1.06321 ,1.73946 ,17.06762 
225 ,42.1103 ,1.06505 ,1.72920 ,16.96689 
226 ,42.3184 ,1.06706 ,1.72578 ,16.93331 
227 ,42.5100 ,1.06897 ,1.69840 ,16.66468 
228 ,42.7022 ,1.07087 ,1.68471 ,16.53037 
229 ,42.8947 ,1.07285 ,1.67786 ,16.46321 
230 ,43.0865 ,1.07480 ,1.65391 ,16.22816 
231 ,43.2627 ,1.07654 ,1.66418 ,16.32890 
232 ,43.4707 ,1.07855 ,1.62995 ,15.99311 
233 ,43.6467 ,1.08041 ,1.61627 ,15.85880 
234 ,43.8385 ,1.08229 ,1.62653 ,15.95954 
235 ,44.0147 ,1.08409 ,1.59916 ,15.69091 
236 ,44.2070 ,1.08592 ,1.57862 ,15.48944 
237 ,44.3832 ,1.08772 ,1.58547 ,15.55660 
238 ,44.5913 ,1.08968 ,1.56151 ,15.32155 
239 ,44.7995 ,1.09181 ,1.54782 ,15.18724 
240 ,44.9912 ,1.09376 ,1.52729 ,14.98577 
241 ,45.1996 ,1.09582 ,1.52045 ,14.91861 
242 ,45.4075 ,1.09792 ,1.50333 ,14.75072 
243 ,45.6157 ,1.09997 ,1.47938 ,14.51567 
244 ,45.8077 ,1.10194 ,1.47938 ,14.51567 
245 ,45.9833 ,1.10378 ,1.44516 ,14.17989 
246 ,46.1755 ,1.10557 ,1.45542 ,14.28062 
247 ,46.3678 ,1.10757 ,1.43147 ,14.04557 
248 ,46.5600 ,1.10940 ,1.42120 ,13.94484 
249 ,46.7359 ,1.11127 ,1.41094 ,13.84410 
250 ,46.9122 ,1.11305 ,1.38698 ,13.60906 
251 ,47.0883 ,1.11483 ,1.37671 ,13.50832 
252 ,47.2803 ,1.11659 ,1.38014 ,13.54190 
253 ,47.4718 ,1.11854 ,1.34249 ,13.17254 
254 ,47.6645 ,1.12055 ,1.33907 ,13.13896 
255 ,47.8886 ,1.12265 ,1.32196 ,12.97107 
256 ,48.0645 ,1.12461 ,1.30485 ,12.80318 
257 ,48.2567 ,1.12646 ,1.29458 ,12.70244 
258 ,48.4649 ,1.12850 ,1.28432 ,12.60171 
259 ,48.6565 ,1.13044 ,1.25694 ,12.33308 
260 ,48.8490 ,1.13238 ,1.25694 ,12.33308 
261 ,49.0409 ,1.13431 ,1.25694 ,12.33308 
262 ,49.2167 ,1.13605 ,1.22956 ,12.06445 
263 ,49.3933 ,1.13780 ,1.21587 ,11.93014 
264 ,49.5692 ,1.13956 ,1.19534 ,11.72867 
265 ,49.7455 ,1.14135 ,1.20561 ,11.82941 
266 ,49.9374 ,1.14328 ,1.18507 ,11.62794 
267 ,50.1296 ,1.14511 ,1.17823 ,11.56078 
268 ,50.3376 ,1.14723 ,1.14058 ,11.19142 
269 ,50.4976 ,1.14902 ,1.13716 ,11.15784 
270 ,50.6737 ,1.15064 ,1.11663 ,10.95637 
271 ,50.8817 ,1.15262 ,1.11321 ,10.92279 
272 ,51.0899 ,1.15478 ,1.10294 ,10.82206 
273 ,51.2657 ,1.15656 ,1.10294 ,10.82206 
274 ,51.4741 ,1.15857 ,1.06872 ,10.48627 
275 ,51.6661 ,1.16056 ,1.06872 ,10.48627 
276 ,51.8583 ,1.16240 ,1.04819 ,10.28480 
277 ,52.0498 ,1.16437 ,1.02765 ,10.08333 
278 ,52.2264 ,1.16616 ,1.02081 ,10.01618 
279 ,52.4020 ,1.16788 ,1.03450 ,10.15049 
280 ,52.5784 ,1.16964 ,1.00028 ,9.81471 
281 ,52.7865 ,1.17171 ,1.00370 ,9.84829 
282 ,52.9786 ,1.17373 ,0.96605 ,9.47892 
283 ,53.1706 ,1.17555 ,0.96605 ,9.47892 
284 ,53.3627 ,1.17747 ,0.95579 ,9.37819 
285 ,53.5548 ,1.17935 ,0.92157 ,9.04241 
286 ,53.7309 ,1.18120 ,0.92157 ,9.04241 
287 ,53.9231 ,1.18304 ,0.91814 ,9.00883 
288 ,54.1151 ,1.18495 ,0.89077 ,8.74020 
289 ,54.3071 ,1.18690 ,0.89761 ,8.80736 
290 ,54.4832 ,1.18867 ,0.89077 ,8.74020 
291 ,54.6593 ,1.19043 ,0.86339 ,8.47158 
292 ,54.8675 ,1.19254 ,0.85654 ,8.40442 
293 ,55.0755 ,1.19453 ,0.84286 ,8.27011 
294 ,55.2675 ,1.19655 ,0.82232 ,8.06864 
295 ,55.4437 ,1.19834 ,0.82232 ,8.06864 
296 ,55.6354 ,1.20021 ,0.79495 ,7.80001 
297 ,55.8119 ,1.20199 ,0.77441 ,7.59854 
298 ,56.0036 ,1.20391 ,0.77784 ,7.63212 
299 ,56.1798 ,1.20565 ,0.76072 ,7.46423 
300 ,56.3561 ,1.20744 ,0.75046 ,7.36349 
301 ,56.5481 ,1.20931 ,0.74019 ,7.26276 
302 ,56.7562 ,1.21132 ,0.73677 ,7.22918 
303 ,56.9483 ,1.21339 ,0.71281 ,6.99413 
304 ,57.1402 ,1.21521 ,0.70597 ,6.92697 
305 ,57.3484 ,1.21729 ,0.70597 ,6.92697 
306 ,57.5405 ,1.21919 ,0.67517 ,6.62477 
307 ,57.7166 ,1.22104 ,0.65464 ,6.42330 
308 ,57.9087 ,1.22295 ,0.65121 ,6.38972 
309 ,58.1002 ,1.22486 ,0.63753 ,6.25541 
310 ,58.2929 ,1.22669 ,0.61357 ,6.02036 
311 ,58.5008 ,1.22879 ,0.60673 ,5.95320 
312 ,58.7089 ,1.23088 ,0.60673 ,5.95320 
313 ,58.8850 ,1.23266 ,0.60673 ,5.95320 
314 ,59.0608 ,1.23445 ,0.58619 ,5.75173 
315 ,59.2372 ,1.23618 ,0.56224 ,5.51668 
316 ,59.4454 ,1.23816 ,0.56908 ,5.58384 
317 ,59.6693 ,1.24051 ,0.55539 ,5.44953 
318 ,59.8613 ,1.24239 ,0.53486 ,5.24806 
319 ,60.0376 ,1.24426 ,0.53144 ,5.21448 
320 ,60.2293 ,1.24615 ,0.50748 ,4.97943 
321 ,60.4377 ,1.24821 ,0.49380 ,4.84512 
322 ,60.6138 ,1.25000 ,0.48011 ,4.71081 
323 ,60.8059 ,1.25192 ,0.47668 ,4.67723 
324 ,60.9975 ,1.25379 ,0.46642 ,4.57649 
325 ,61.1738 ,1.25560 ,0.44931 ,4.40860 
326 ,61.3500 ,1.25730 ,0.43904 ,4.30787 
327 ,61.5262 ,1.25912 ,0.43904 ,4.30787 
328 ,61.7182 ,1.26108 ,0.41851 ,4.10640 
329 ,61.8942 ,1.26274 ,0.39113 ,3.83777 
330 ,62.0699 ,1.26462 ,0.40482 ,3.97208 
331 ,62.2460 ,1.26630 ,0.38771 ,3.80419 
332 ,62.4221 ,1.26809 ,0.38086 ,3.73703 
333 ,62.6143 ,1.26985 ,0.34664 ,3.40125 
334 ,62.8065 ,1.27194 ,0.36033 ,3.53557 
335 ,62.9988 ,1.27382 ,0.33980 ,3.33410 
336 ,63.1745 ,1.27557 ,0.31584 ,3.09905 
337 ,63.3668 ,1.27752 ,0.31584 ,3.09905 
338 ,63.5590 ,1.27943 ,0.29531 ,2.89758 
339 ,63.7510 ,1.28126 ,0.28847 ,2.83042 
340 ,63.9430 ,1.28317 ,0.27478 ,2.69611 
341 ,64.1352 ,1.28507 ,0.25767 ,2.52822 
342 ,64.3432 ,1.28724 ,0.26793 ,2.62895 
343 ,64.5512 ,1.28931 ,0.24740 ,2.42748 
344 ,64.7433 ,1.29121 ,0.22687 ,2.22601 
345 ,64.9194 ,1.29303 ,0.20633 ,2.02454 
346 ,65.1274 ,1.29504 ,0.22002 ,2.15885 
347 ,65.3031 ,1.29685 ,0.20291 ,1.99096 
348 ,65.4795 ,1.29864 ,0.18922 ,1.85665 
349 ,65.6878 ,1.30069 ,0.18580 ,1.82307 
350 ,65.8958 ,1.30275 ,0.15500 ,1.52087 
351 ,66.0718 ,1.30454 ,0.15158 ,1.48729 
352 ,66.2479 ,1.30628 ,0.15500 ,1.52087 
353 ,66.4240 ,1.30807 ,0.14473 ,1.42013 
354 ,66.6002 ,1.30983 ,0.12762 ,1.25224 
355 ,66.8082 ,1.31187 ,0.12420 ,1.21866 
356 ,67.0003 ,1.31381 ,0.09682 ,0.95004 
357 ,67.1761 ,1.31562 ,0.07629 ,0.74857 
358 ,67.3844 ,1.31757 ,0.08314 ,0.81572 
359 ,67.5601 ,1.31938 ,0.07287 ,0.71499 
360 ,67.7366 ,1.32119 ,0.04891 ,0.47994 
361 ,67.9446 ,1.32318 ,0.04549 ,0.44636 
362 ,68.1205 ,1.32501 ,0.03522 ,0.34563 
363 ,68.3127 ,1.32689 ,0.03522 ,0.34563 
364 ,68.4883 ,1.32868 ,0.01811 ,0.17773 
365 ,68.6810 ,1.33063 ,0.00443 ,0.04342 
366 ,68.8891 ,1.33270 ,-0.01611 ,-0.15805 
367 ,69.0651 ,1.33449 ,-0.00926 ,-0.09089 
368 ,69.2571 ,1.33639 ,-0.02637 ,-0.25878 
369 ,69.4333 ,1.33812 ,-0.04006 ,-0.39310 
370 ,69.6249 ,1.34003 ,-0.03322 ,-0.32594 
371 ,69.8013 ,1.34187 ,-0.03664 ,-0.35952 
372 ,69.9934 ,1.34376 ,-0.06744 ,-0.66172 
373 ,70.1855 ,1.34562 ,-0.06060 ,-0.59457 
374 ,70.3936 ,1.34764 ,-0.08455 ,-0.82961 
375 ,70.5858 ,1.34959 ,-0.09482 ,-0.93035 
376 ,70.7776 ,1.35153 ,-0.12904 ,-1.26613 
377 ,70.9697 ,1.35356 ,-0.10851 ,-1.06466 
378 ,71.1619 ,1.35535 ,-0.13246 ,-1.29971 
379 ,71.3701 ,1.35744 ,-0.11877 ,-1.16540 
380 ,71.5460 ,1.35933 ,-0.14615 ,-1.43402 
381 ,71.7218 ,1.36099 ,-0.16326 ,-1.60191 
382 ,71.9143 ,1.36284 ,-0.16668 ,-1.63549 
383 ,72.1059 ,1.36496 ,-0.17011 ,-1.66907 
384 ,72.2824 ,1.36666 ,-0.19406 ,-1.90412 
385 ,72.4744 ,1.36846 ,-0.20433 ,-2.00485 
386 ,72.6825 ,1.37061 ,-0.21459 ,-2.10559 
387 ,72.8585 ,1.37243 ,-0.21117 ,-2.07201 
388 ,73.0348 ,1.37413 ,-0.22486 ,-2.20632 
389 ,73.2263 ,1.37599 ,-0.22486 ,-2.20632 
390 ,73.4184 ,1.37792 ,-0.24539 ,-2.40779 
391 ,73.6104 ,1.37981 ,-0.24539 ,-2.40779 
392 ,73.7869 ,1.38170 ,-0.25908 ,-2.54211 
393 ,73.9952 ,1.38370 ,-0.29330 ,-2.87789 
394 ,74.1871 ,1.38565 ,-0.27277 ,-2.67642 
395 ,74.3630 ,1.38748 ,-0.28988 ,-2.84431 
396 ,74.5553 ,1.38931 ,-0.29330 ,-2.87789 
397 ,74.7313 ,1.39111 ,-0.32068 ,-3.14652 
398 ,74.9073 ,1.39297 ,-0.32068 ,-3.14652 
399 ,75.0835 ,1.39463 ,-0.33437 ,-3.28083 
400 ,75.2916 ,1.39662 ,-0.34464 ,-3.38156 
401 ,75.4677 ,1.39848 ,-0.34464 ,-3.38156 
402 ,75.6598 ,1.40035 ,-0.37544 ,-3.68377 
403 ,75.8517 ,1.40234 ,-0.37201 ,-3.65019 
404 ,76.0276 ,1.40406 ,-0.37886 ,-3.71735 
405 ,76.2360 ,1.40605 ,-0.39939 ,-3.91882 
406 ,76.4118 ,1.40798 ,-0.38912 ,-3.81808 
407 ,76.5882 ,1.40966 ,-0.41992 ,-4.12029 
408 ,76.7800 ,1.41153 ,-0.43019 ,-4.22102 
409 ,76.9564 ,1.41335 ,-0.43703 ,-4.28818 
410 ,77.1485 ,1.41520 ,-0.42677 ,-4.18744 
411 ,77.3245 ,1.41699 ,-0.44388 ,-4.35534 
412 ,77.5327 ,1.41906 ,-0.46783 ,-4.59038 
413 ,77.7087 ,1.42087 ,-0.46783 ,-4.59038 
414 ,77.9003 ,1.42276 ,-0.48837 ,-4.79185 
415 ,78.0769 ,1.42451 ,-0.50548 ,-4.95975 
416 ,78.2688 ,1.42641 ,-0.49179 ,-4.82543 
417 ,78.4608 ,1.42839 ,-0.49521 ,-4.85901 
418 ,78.6528 ,1.43020 ,-0.52601 ,-5.16121 
419 ,78.8291 ,1.43212 ,-0.53285 ,-5.22837 
420 ,79.0529 ,1.43418 ,-0.53628 ,-5.26195 
421 ,79.2448 ,1.43619 ,-0.54997 ,-5.39626 
422 ,79.4370 ,1.43810 ,-0.56708 ,-5.56415 
423 ,79.6134 ,1.43988 ,-0.57050 ,-5.59773 
424 ,79.7895 ,1.44168 ,-0.57050 ,-5.59773 
425 ,79.9655 ,1.44346 ,-0.57734 ,-5.66489 
426 ,80.1735 ,1.44544 ,-0.58077 ,-5.69847 
427 ,80.3657 ,1.44732 ,-0.59445 ,-5.83278 
428 ,80.5577 ,1.44934 ,-0.60814 ,-5.96709 
429 ,80.7339 ,1.45114 ,-0.62525 ,-6.13499 
430 ,80.9256 ,1.45294 ,-0.60814 ,-5.96709 
431 ,81.1020 ,1.45476 ,-0.62868 ,-6.16856 
432 ,81.2942 ,1.45662 ,-0.64579 ,-6.33646 
433 ,81.4700 ,1.45846 ,-0.64579 ,-6.33646 
434 ,81.6462 ,1.46022 ,-0.65263 ,-6.40361 
435 ,81.8224 ,1.46200 ,-0.65947 ,-6.47077 
436 ,82.0144 ,1.46394 ,-0.68001 ,-6.67224 
437 ,82.2065 ,1.46579 ,-0.66632 ,-6.53793 
438 ,82.3987 ,1.46773 ,-0.69712 ,-6.84013 
439 ,82.5906 ,1.46965 ,-0.71081 ,-6.97444 
440 ,82.7827 ,1.47165 ,-0.70739 ,-6.94086 
441 ,82.9909 ,1.47366 ,-0.70054 ,-6.87371 
442 ,83.1829 ,1.47559 ,-0.73134 ,-7.17591 
443 ,83.3746 ,1.47750 ,-0.73476 ,-7.20949 
444 ,83.5506 ,1.47932 ,-0.73476 ,-7.20949 
445 ,83.7266 ,1.48102 ,-0.74503 ,-7.31023 
446 ,83.9031 ,1.48280 ,-0.75187 ,-7.37738 
447 ,84.0791 ,1.48454 ,-0.78267 ,-7.67959 
448 ,84.2553 ,1.48634 ,-0.78267 ,-7.67959 
449 ,84.4471 ,1.48825 ,-0.77925 ,-7.64601 
450 ,84.6394 ,1.49009 ,-0.78610 ,-7.71317 
451 ,84.8153 ,1.49193 ,-0.80663 ,-7.91464 
452 ,85.0076 ,1.49379 ,-0.79636 ,-7.81390 
453 ,85.1837 ,1.49558 ,-0.81005 ,-7.94821 
454 ,85.3758 ,1.49751 ,-0.84769 ,-8.31758 
455 ,85.5679 ,1.49939 ,-0.82032 ,-8.04895 
456 ,85.7759 ,1.50149 ,-0.85112 ,-8.35115 
457 ,85.9680 ,1.50345 ,-0.84085 ,-8.25042 
458 ,86.1600 ,1.50531 ,-0.85796 ,-8.41831 
459 ,86.3362 ,1.50714 ,-0.87507 ,-8.58620 
460 ,86.5277 ,1.50902 ,-0.86823 ,-8.51904 
461 ,86.7200 ,1.51090 ,-0.88876 ,-8.72051 
462 ,86.9123 ,1.51283 ,-0.88534 ,-8.68694 
463 ,87.1364 ,1.51495 ,-0.91614 ,-8.98914 
