Data stamp = , 21-04-2022 11:42:33 192

Calibration Values: 
Slope = , 26.54 , g/V 
Offset Voltage at no contact = , -0.501760 , V 

No , Time , Stage Position ,   Mass , Force 
   ,  (s) ,      (mm)      ,   (g)  , (mN)  

1 ,0.0000 ,0.64940 ,5.28483 ,51.85474 
2 ,0.2340 ,0.64950 ,5.27798 ,51.78758 
3 ,0.5540 ,0.65042 ,5.25745 ,51.58611 
4 ,0.7621 ,0.65191 ,5.26430 ,51.65327 
5 ,0.9697 ,0.65380 ,5.28483 ,51.85474 
6 ,1.1618 ,0.65570 ,5.27114 ,51.72043 
7 ,1.3539 ,0.65758 ,5.28141 ,51.82116 
8 ,1.5462 ,0.65960 ,5.27456 ,51.75401 
9 ,1.7705 ,0.66183 ,5.26772 ,51.68685 
10 ,1.9787 ,0.66393 ,5.24718 ,51.48538 
11 ,2.1706 ,0.66583 ,5.21981 ,51.21675 
12 ,2.3304 ,0.66756 ,5.20270 ,51.04886 
13 ,2.5067 ,0.66919 ,5.17532 ,50.78023 
14 ,2.6825 ,0.67103 ,5.17532 ,50.78023 
15 ,2.8589 ,0.67276 ,5.15821 ,50.61234 
16 ,3.0351 ,0.67448 ,5.16163 ,50.64592 
17 ,3.2432 ,0.67645 ,5.12056 ,50.24298 
18 ,3.4357 ,0.67846 ,5.12399 ,50.27656 
19 ,3.6272 ,0.68042 ,5.08292 ,49.87362 
20 ,3.8033 ,0.68217 ,5.05897 ,49.63857 
21 ,3.9793 ,0.68394 ,5.05554 ,49.60499 
22 ,4.1551 ,0.68566 ,5.04185 ,49.47068 
23 ,4.3154 ,0.68741 ,5.01790 ,49.23563 
24 ,4.4917 ,0.68909 ,5.00763 ,49.13490 
25 ,4.6838 ,0.69094 ,4.98368 ,48.89985 
26 ,4.8596 ,0.69281 ,4.96999 ,48.76554 
27 ,5.0359 ,0.69448 ,4.96315 ,48.69838 
28 ,5.2280 ,0.69636 ,4.92892 ,48.36260 
29 ,5.4039 ,0.69823 ,4.91523 ,48.22828 
30 ,5.5961 ,0.70001 ,4.89128 ,47.99324 
31 ,5.8038 ,0.70213 ,4.87075 ,47.79177 
32 ,5.9802 ,0.70393 ,4.85021 ,47.59030 
33 ,6.1724 ,0.70587 ,4.85021 ,47.59030 
34 ,6.3484 ,0.70761 ,4.82626 ,47.35525 
35 ,6.5242 ,0.70941 ,4.80230 ,47.12020 
36 ,6.7163 ,0.71123 ,4.78177 ,46.91873 
37 ,6.9243 ,0.71323 ,4.76124 ,46.71726 
38 ,7.1165 ,0.71528 ,4.76466 ,46.75084 
39 ,7.3244 ,0.71734 ,4.73386 ,46.44863 
40 ,7.5010 ,0.71913 ,4.70990 ,46.21359 
41 ,7.6930 ,0.72099 ,4.70306 ,46.14643 
42 ,7.8690 ,0.72285 ,4.67568 ,45.87780 
43 ,8.0448 ,0.72459 ,4.65515 ,45.67633 
44 ,8.2213 ,0.72633 ,4.64831 ,45.60918 
45 ,8.4133 ,0.72824 ,4.63804 ,45.50844 
46 ,8.5894 ,0.73008 ,4.61751 ,45.30697 
47 ,8.7814 ,0.73185 ,4.59697 ,45.10550 
48 ,8.9896 ,0.73392 ,4.58328 ,44.97119 
49 ,9.1816 ,0.73586 ,4.55591 ,44.70256 
50 ,9.3577 ,0.73771 ,4.54564 ,44.60183 
51 ,9.5337 ,0.73945 ,4.53195 ,44.46751 
52 ,9.7419 ,0.74144 ,4.50457 ,44.19889 
53 ,9.9336 ,0.74338 ,4.50115 ,44.16531 
54 ,10.1101 ,0.74520 ,4.47035 ,43.86310 
55 ,10.3019 ,0.74707 ,4.44298 ,43.59448 
56 ,10.5101 ,0.74920 ,4.43613 ,43.52732 
57 ,10.7018 ,0.75108 ,4.40875 ,43.25870 
58 ,10.8781 ,0.75296 ,4.40533 ,43.22512 
59 ,11.0863 ,0.75490 ,4.39507 ,43.12438 
60 ,11.2621 ,0.75681 ,4.37453 ,42.92291 
61 ,11.4544 ,0.75857 ,4.33347 ,42.51997 
62 ,11.6462 ,0.76061 ,4.34373 ,42.62071 
63 ,11.8227 ,0.76237 ,4.30609 ,42.25135 
64 ,12.0308 ,0.76436 ,4.28898 ,42.08345 
65 ,12.2069 ,0.76616 ,4.26845 ,41.88198 
66 ,12.4149 ,0.76820 ,4.27529 ,41.94914 
67 ,12.6228 ,0.77035 ,4.22053 ,41.41189 
68 ,12.7990 ,0.77213 ,4.22053 ,41.41189 
69 ,12.9748 ,0.77390 ,4.22053 ,41.41189 
70 ,13.1513 ,0.77562 ,4.20000 ,41.21042 
71 ,13.3433 ,0.77759 ,4.17605 ,40.97537 
72 ,13.5194 ,0.77930 ,4.15209 ,40.74032 
73 ,13.7275 ,0.78132 ,4.15209 ,40.74032 
74 ,13.9194 ,0.78331 ,4.10760 ,40.30380 
75 ,14.1277 ,0.78532 ,4.10076 ,40.23665 
76 ,14.3196 ,0.78727 ,4.08707 ,40.10233 
77 ,14.4955 ,0.78912 ,4.05627 ,39.80013 
78 ,14.6718 ,0.79081 ,4.04943 ,39.73297 
79 ,14.8479 ,0.79256 ,4.03232 ,39.56508 
80 ,15.0398 ,0.79443 ,4.02547 ,39.49793 
81 ,15.2321 ,0.79641 ,4.00152 ,39.26288 
82 ,15.4402 ,0.79833 ,3.96045 ,38.85994 
83 ,15.6161 ,0.80034 ,3.97414 ,38.99425 
84 ,15.8082 ,0.80217 ,3.92623 ,38.52415 
85 ,15.9842 ,0.80393 ,3.91596 ,38.42342 
86 ,16.1605 ,0.80571 ,3.90227 ,38.28911 
87 ,16.3525 ,0.80766 ,3.90912 ,38.35626 
88 ,16.5445 ,0.80956 ,3.87832 ,38.05406 
89 ,16.7205 ,0.81128 ,3.85779 ,37.85259 
90 ,16.9126 ,0.81317 ,3.85436 ,37.81901 
91 ,17.0888 ,0.81501 ,3.83383 ,37.61754 
92 ,17.2810 ,0.81686 ,3.80645 ,37.34891 
93 ,17.4409 ,0.81862 ,3.80303 ,37.31534 
94 ,17.6170 ,0.82028 ,3.78934 ,37.18102 
95 ,17.7931 ,0.82211 ,3.75512 ,36.84524 
96 ,17.9851 ,0.82394 ,3.76196 ,36.91240 
97 ,18.1772 ,0.82579 ,3.74485 ,36.74450 
98 ,18.3534 ,0.82763 ,3.71405 ,36.44230 
99 ,18.5615 ,0.82967 ,3.69010 ,36.20725 
100 ,18.7531 ,0.83167 ,3.66957 ,36.00578 
101 ,18.9455 ,0.83349 ,3.65246 ,35.83789 
102 ,19.1375 ,0.83541 ,3.64561 ,35.77073 
103 ,19.3137 ,0.83723 ,3.63192 ,35.63642 
104 ,19.4898 ,0.83897 ,3.62508 ,35.56926 
105 ,19.6657 ,0.84072 ,3.58401 ,35.16632 
106 ,19.8575 ,0.84263 ,3.58743 ,35.19990 
107 ,20.0342 ,0.84445 ,3.56348 ,34.96485 
108 ,20.2100 ,0.84618 ,3.55321 ,34.86412 
109 ,20.3856 ,0.84793 ,3.52241 ,34.56192 
110 ,20.5778 ,0.84984 ,3.51215 ,34.46118 
111 ,20.7539 ,0.85161 ,3.50188 ,34.36045 
112 ,20.9299 ,0.85337 ,3.49846 ,34.32687 
113 ,21.1059 ,0.85512 ,3.47108 ,34.05824 
114 ,21.2822 ,0.85687 ,3.46081 ,33.95751 
115 ,21.4583 ,0.85866 ,3.44028 ,33.75604 
116 ,21.6344 ,0.86041 ,3.43344 ,33.68888 
117 ,21.8104 ,0.86217 ,3.42317 ,33.58814 
118 ,21.9705 ,0.86391 ,3.39237 ,33.28594 
119 ,22.1624 ,0.86564 ,3.36499 ,33.01731 
120 ,22.3387 ,0.86742 ,3.35815 ,32.95016 
121 ,22.4986 ,0.86917 ,3.35815 ,32.95016 
122 ,22.6586 ,0.87077 ,3.35130 ,32.88300 
123 ,22.8349 ,0.87243 ,3.32735 ,32.64795 
124 ,23.0109 ,0.87417 ,3.31024 ,32.48006 
125 ,23.2029 ,0.87603 ,3.26917 ,32.07712 
126 ,23.3797 ,0.87784 ,3.26233 ,32.00996 
127 ,23.5710 ,0.87987 ,3.25548 ,31.94281 
128 ,23.7472 ,0.88153 ,3.23495 ,31.74134 
129 ,23.9232 ,0.88329 ,3.21784 ,31.57345 
130 ,24.0993 ,0.88503 ,3.20757 ,31.47271 
131 ,24.2913 ,0.88695 ,3.19731 ,31.37198 
132 ,24.4674 ,0.88874 ,3.17335 ,31.13693 
133 ,24.6276 ,0.89048 ,3.15282 ,30.93546 
134 ,24.8036 ,0.89207 ,3.13913 ,30.80115 
135 ,24.9796 ,0.89386 ,3.12202 ,30.63325 
136 ,25.1561 ,0.89567 ,3.11860 ,30.59968 
137 ,25.3640 ,0.89766 ,3.09464 ,30.36463 
138 ,25.5883 ,0.89981 ,3.08780 ,30.29747 
139 ,25.7642 ,0.90169 ,3.05358 ,29.96169 
140 ,25.9723 ,0.90373 ,3.05015 ,29.92811 
141 ,26.1486 ,0.90558 ,3.03989 ,29.82737 
142 ,26.3246 ,0.90733 ,3.00909 ,29.52517 
143 ,26.5164 ,0.90922 ,2.98855 ,29.32370 
144 ,26.7083 ,0.91122 ,2.96802 ,29.12223 
145 ,26.8844 ,0.91287 ,2.96802 ,29.12223 
146 ,27.0605 ,0.91465 ,2.94407 ,28.88718 
147 ,27.2371 ,0.91648 ,2.93038 ,28.75287 
148 ,27.4287 ,0.91830 ,2.92696 ,28.71929 
149 ,27.6211 ,0.92021 ,2.89616 ,28.41709 
150 ,27.8292 ,0.92224 ,2.87220 ,28.18204 
151 ,28.0212 ,0.92419 ,2.87220 ,28.18204 
152 ,28.1969 ,0.92601 ,2.85851 ,28.04772 
153 ,28.3732 ,0.92778 ,2.84482 ,27.91341 
154 ,28.5655 ,0.92961 ,2.84140 ,27.87983 
155 ,28.7896 ,0.93180 ,2.80376 ,27.51047 
156 ,28.9816 ,0.93386 ,2.77980 ,27.27542 
157 ,29.1578 ,0.93561 ,2.78322 ,27.30900 
158 ,29.3342 ,0.93735 ,2.76954 ,27.17469 
159 ,29.5258 ,0.93925 ,2.74216 ,26.90606 
160 ,29.7020 ,0.94107 ,2.72163 ,26.70459 
161 ,29.8780 ,0.94279 ,2.71820 ,26.67101 
162 ,30.0862 ,0.94492 ,2.69425 ,26.43597 
163 ,30.2783 ,0.94676 ,2.68740 ,26.36881 
164 ,30.4704 ,0.94874 ,2.65660 ,26.06661 
165 ,30.6622 ,0.95063 ,2.64292 ,25.93229 
166 ,30.8544 ,0.95261 ,2.63949 ,25.89871 
167 ,31.0465 ,0.95448 ,2.60185 ,25.52935 
168 ,31.2387 ,0.95646 ,2.61212 ,25.63009 
169 ,31.4313 ,0.95831 ,2.58816 ,25.39504 
170 ,31.6224 ,0.96031 ,2.58474 ,25.36146 
171 ,31.8150 ,0.96210 ,2.55394 ,25.05926 
172 ,32.0069 ,0.96409 ,2.56421 ,25.15999 
173 ,32.1988 ,0.96604 ,2.52656 ,24.79063 
174 ,32.3748 ,0.96785 ,2.50603 ,24.58916 
175 ,32.5673 ,0.96974 ,2.49576 ,24.48842 
176 ,32.7591 ,0.97162 ,2.47865 ,24.32053 
177 ,32.9351 ,0.97339 ,2.46154 ,24.15264 
178 ,33.1114 ,0.97512 ,2.46154 ,24.15264 
179 ,33.3036 ,0.97701 ,2.43759 ,23.91759 
180 ,33.4955 ,0.97904 ,2.42732 ,23.81686 
181 ,33.6716 ,0.98073 ,2.42048 ,23.74970 
182 ,33.8634 ,0.98257 ,2.38968 ,23.44750 
183 ,34.0555 ,0.98456 ,2.37941 ,23.34676 
184 ,34.2476 ,0.98644 ,2.36230 ,23.17887 
185 ,34.4399 ,0.98846 ,2.34177 ,22.97740 
186 ,34.6316 ,0.99037 ,2.33492 ,22.91024 
187 ,34.8078 ,0.99213 ,2.33492 ,22.91024 
188 ,34.9839 ,0.99391 ,2.30070 ,22.57446 
189 ,35.1602 ,0.99564 ,2.28701 ,22.44015 
190 ,35.3522 ,0.99749 ,2.27674 ,22.33941 
191 ,35.5443 ,0.99940 ,2.25279 ,22.10437 
192 ,35.7364 ,1.00136 ,2.24252 ,22.00363 
193 ,35.9281 ,1.00324 ,2.22199 ,21.80216 
194 ,36.1043 ,1.00507 ,2.20488 ,21.63427 
195 ,36.2806 ,1.00685 ,2.19461 ,21.53353 
196 ,36.4727 ,1.00877 ,2.18777 ,21.46638 
197 ,36.6647 ,1.01067 ,2.15012 ,21.09702 
198 ,36.8568 ,1.01262 ,2.16039 ,21.19775 
199 ,37.0329 ,1.01436 ,2.13986 ,20.99628 
200 ,37.2249 ,1.01625 ,2.12275 ,20.82839 
201 ,37.4010 ,1.01804 ,2.08852 ,20.49261 
202 ,37.6090 ,1.02013 ,2.09537 ,20.55976 
203 ,37.7852 ,1.02183 ,2.07141 ,20.32472 
204 ,37.9613 ,1.02363 ,2.05088 ,20.12325 
205 ,38.1214 ,1.02533 ,2.04746 ,20.08967 
206 ,38.2974 ,1.02695 ,2.03719 ,19.98893 
207 ,38.5692 ,1.02927 ,2.03719 ,19.98893 
208 ,38.7457 ,1.03154 ,2.01324 ,19.75388 
209 ,38.9537 ,1.03349 ,1.99613 ,19.58599 
210 ,39.1295 ,1.03530 ,1.98586 ,19.48526 
211 ,39.3217 ,1.03720 ,1.95164 ,19.14948 
212 ,39.5301 ,1.03924 ,1.94137 ,19.04874 
213 ,39.7221 ,1.04116 ,1.93111 ,18.94801 
214 ,39.8982 ,1.04301 ,1.91399 ,18.78011 
215 ,40.0902 ,1.04479 ,1.91057 ,18.74654 
216 ,40.2823 ,1.04676 ,1.89004 ,18.54507 
217 ,40.4741 ,1.04871 ,1.87977 ,18.44433 
218 ,40.6505 ,1.05048 ,1.87635 ,18.41075 
219 ,40.8266 ,1.05227 ,1.84555 ,18.10855 
220 ,41.0187 ,1.05409 ,1.83528 ,18.00781 
221 ,41.2108 ,1.05601 ,1.82502 ,17.90708 
222 ,41.4184 ,1.05817 ,1.80106 ,17.67203 
223 ,41.6269 ,1.06017 ,1.79764 ,17.63845 
224 ,41.8189 ,1.06221 ,1.75315 ,17.20193 
225 ,41.9949 ,1.06396 ,1.76342 ,17.30267 
226 ,42.1711 ,1.06569 ,1.74631 ,17.13478 
227 ,42.3467 ,1.06744 ,1.72920 ,16.96689 
228 ,42.5232 ,1.06922 ,1.72578 ,16.93331 
229 ,42.7154 ,1.07109 ,1.70866 ,16.76542 
230 ,42.9075 ,1.07299 ,1.67786 ,16.46321 
231 ,43.0993 ,1.07495 ,1.66760 ,16.36248 
232 ,43.2756 ,1.07678 ,1.66418 ,16.32890 
233 ,43.4512 ,1.07856 ,1.65049 ,16.19458 
234 ,43.6277 ,1.08025 ,1.63338 ,16.02669 
235 ,43.8038 ,1.08203 ,1.62995 ,15.99311 
236 ,44.0119 ,1.08407 ,1.62311 ,15.92596 
237 ,44.2037 ,1.08597 ,1.58547 ,15.55660 
238 ,44.3799 ,1.08786 ,1.57520 ,15.45586 
239 ,44.5400 ,1.08951 ,1.58547 ,15.55660 
240 ,44.7159 ,1.09113 ,1.56493 ,15.35513 
241 ,44.9082 ,1.09298 ,1.54098 ,15.12008 
242 ,45.1003 ,1.09495 ,1.53071 ,15.01934 
243 ,45.2923 ,1.09687 ,1.52387 ,14.95219 
244 ,45.4843 ,1.09879 ,1.49649 ,14.68356 
245 ,45.6605 ,1.10057 ,1.48965 ,14.61640 
246 ,45.8526 ,1.10247 ,1.47938 ,14.51567 
247 ,46.0445 ,1.10438 ,1.45885 ,14.31420 
248 ,46.2368 ,1.10631 ,1.45542 ,14.28062 
249 ,46.4285 ,1.10819 ,1.43489 ,14.07915 
250 ,46.6044 ,1.11009 ,1.42805 ,14.01199 
251 ,46.7808 ,1.11181 ,1.40409 ,13.77695 
252 ,46.9725 ,1.11365 ,1.41436 ,13.87768 
253 ,47.1649 ,1.11554 ,1.38356 ,13.57548 
254 ,47.3569 ,1.11746 ,1.36303 ,13.37401 
255 ,47.5492 ,1.11942 ,1.35618 ,13.30685 
256 ,47.7248 ,1.12128 ,1.33223 ,13.07180 
257 ,47.9013 ,1.12299 ,1.31512 ,12.90391 
258 ,48.0934 ,1.12484 ,1.31169 ,12.87033 
259 ,48.3015 ,1.12695 ,1.30827 ,12.83675 
260 ,48.4776 ,1.12878 ,1.28089 ,12.56813 
261 ,48.6693 ,1.13063 ,1.28774 ,12.63528 
262 ,48.8297 ,1.13239 ,1.26036 ,12.36666 
263 ,48.9897 ,1.13399 ,1.26378 ,12.40024 
264 ,49.1657 ,1.13560 ,1.24325 ,12.19877 
265 ,49.3420 ,1.13743 ,1.22614 ,12.03088 
266 ,49.5340 ,1.13931 ,1.21587 ,11.93014 
267 ,49.7099 ,1.14106 ,1.21929 ,11.96372 
268 ,49.9178 ,1.14304 ,1.18507 ,11.62794 
269 ,50.1263 ,1.14510 ,1.18850 ,11.66151 
270 ,50.3181 ,1.14718 ,1.15085 ,11.29215 
271 ,50.5104 ,1.14909 ,1.16796 ,11.46004 
272 ,50.7182 ,1.15106 ,1.14058 ,11.19142 
273 ,50.9101 ,1.15304 ,1.10294 ,10.82206 
274 ,51.0866 ,1.15487 ,1.12347 ,11.02353 
275 ,51.2947 ,1.15680 ,1.10979 ,10.88921 
276 ,51.4868 ,1.15874 ,1.09267 ,10.72132 
277 ,51.6948 ,1.16075 ,1.08583 ,10.65416 
278 ,51.8870 ,1.16278 ,1.06530 ,10.45270 
279 ,52.0948 ,1.16479 ,1.06872 ,10.48627 
280 ,52.2711 ,1.16669 ,1.04476 ,10.25123 
281 ,52.4791 ,1.16870 ,1.02081 ,10.01618 
282 ,52.6552 ,1.17046 ,1.01396 ,9.94902 
283 ,52.8474 ,1.17239 ,1.00712 ,9.88186 
284 ,53.0394 ,1.17429 ,0.97290 ,9.54608 
285 ,53.2317 ,1.17622 ,0.97974 ,9.61324 
286 ,53.4395 ,1.17827 ,0.94210 ,9.24388 
287 ,53.6157 ,1.18010 ,0.94552 ,9.27745 
288 ,53.8077 ,1.18193 ,0.93868 ,9.21030 
289 ,53.9837 ,1.18378 ,0.91472 ,8.97525 
290 ,54.1756 ,1.18558 ,0.91130 ,8.94167 
291 ,54.3520 ,1.18747 ,0.90446 ,8.87451 
292 ,54.5280 ,1.18926 ,0.90446 ,8.87451 
293 ,54.7038 ,1.19095 ,0.86339 ,8.47158 
294 ,54.8801 ,1.19275 ,0.84970 ,8.33726 
295 ,55.0561 ,1.19448 ,0.85312 ,8.37084 
296 ,55.2319 ,1.19626 ,0.84628 ,8.30368 
297 ,55.4084 ,1.19808 ,0.82917 ,8.13579 
298 ,55.6005 ,1.19998 ,0.80521 ,7.90074 
299 ,55.7926 ,1.20183 ,0.81890 ,8.03506 
300 ,55.9687 ,1.20368 ,0.80863 ,7.93432 
301 ,56.1608 ,1.20547 ,0.77784 ,7.63212 
302 ,56.3526 ,1.20740 ,0.77441 ,7.59854 
303 ,56.5288 ,1.20925 ,0.76072 ,7.46423 
304 ,56.7207 ,1.21119 ,0.73335 ,7.19560 
305 ,56.9129 ,1.21305 ,0.72992 ,7.16202 
306 ,57.0891 ,1.21484 ,0.72992 ,7.16202 
307 ,57.2810 ,1.21668 ,0.69228 ,6.79266 
308 ,57.4412 ,1.21846 ,0.67859 ,6.65835 
309 ,57.6173 ,1.22013 ,0.66833 ,6.55761 
310 ,57.7934 ,1.22187 ,0.67175 ,6.59119 
311 ,57.9854 ,1.22379 ,0.66148 ,6.49046 
312 ,58.1775 ,1.22572 ,0.63753 ,6.25541 
313 ,58.3856 ,1.22764 ,0.64437 ,6.32256 
314 ,58.5615 ,1.22961 ,0.62384 ,6.12109 
315 ,58.7534 ,1.23140 ,0.61015 ,5.98678 
316 ,58.9296 ,1.23322 ,0.62042 ,6.08752 
317 ,59.1537 ,1.23541 ,0.58962 ,5.78531 
318 ,59.3461 ,1.23730 ,0.57935 ,5.68458 
319 ,59.5541 ,1.23936 ,0.56908 ,5.58384 
320 ,59.7304 ,1.24124 ,0.56566 ,5.55026 
321 ,59.9223 ,1.24312 ,0.53828 ,5.28164 
322 ,60.0980 ,1.24494 ,0.52117 ,5.11375 
323 ,60.2745 ,1.24668 ,0.52459 ,5.14732 
324 ,60.4664 ,1.24853 ,0.50406 ,4.94585 
325 ,60.6744 ,1.25063 ,0.48695 ,4.77796 
326 ,60.8505 ,1.25242 ,0.50064 ,4.91228 
327 ,61.0586 ,1.25440 ,0.48353 ,4.74438 
328 ,61.2506 ,1.25640 ,0.46984 ,4.61007 
329 ,61.4270 ,1.25821 ,0.46300 ,4.54291 
330 ,61.6185 ,1.26007 ,0.42535 ,4.17355 
331 ,61.8107 ,1.26198 ,0.44246 ,4.34144 
332 ,61.9871 ,1.26377 ,0.41851 ,4.10640 
333 ,62.2274 ,1.26615 ,0.40482 ,3.97208 
334 ,62.4357 ,1.26822 ,0.39797 ,3.90493 
335 ,62.6277 ,1.27019 ,0.38771 ,3.80419 
336 ,62.8195 ,1.27213 ,0.36033 ,3.53557 
337 ,63.0117 ,1.27405 ,0.36033 ,3.53557 
338 ,63.1874 ,1.27587 ,0.33295 ,3.26694 
339 ,63.3638 ,1.27755 ,0.32611 ,3.19978 
340 ,63.5399 ,1.27927 ,0.32269 ,3.16620 
341 ,63.7320 ,1.28118 ,0.31926 ,3.13263 
342 ,63.9242 ,1.28309 ,0.30558 ,2.99831 
343 ,64.1323 ,1.28524 ,0.29873 ,2.93116 
344 ,64.3241 ,1.28709 ,0.28162 ,2.76326 
345 ,64.5003 ,1.28896 ,0.25082 ,2.46106 
346 ,64.6923 ,1.29075 ,0.27135 ,2.66253 
347 ,64.8840 ,1.29266 ,0.25767 ,2.52822 
348 ,65.0606 ,1.29450 ,0.23371 ,2.29317 
349 ,65.2525 ,1.29638 ,0.23371 ,2.29317 
350 ,65.4441 ,1.29829 ,0.20976 ,2.05812 
351 ,65.6369 ,1.30024 ,0.19607 ,1.92381 
352 ,65.8129 ,1.30206 ,0.19607 ,1.92381 
353 ,66.0047 ,1.30389 ,0.17553 ,1.72234 
354 ,66.1809 ,1.30572 ,0.17211 ,1.68876 
355 ,66.3730 ,1.30762 ,0.16869 ,1.65518 
356 ,66.5650 ,1.30945 ,0.16527 ,1.62160 
357 ,66.7412 ,1.31132 ,0.14473 ,1.42013 
358 ,66.9333 ,1.31324 ,0.12762 ,1.25224 
359 ,67.1089 ,1.31498 ,0.12762 ,1.25224 
360 ,67.2854 ,1.31671 ,0.12420 ,1.21866 
361 ,67.4776 ,1.31865 ,0.08656 ,0.84930 
362 ,67.6534 ,1.32041 ,0.08998 ,0.88288 
363 ,67.8456 ,1.32225 ,0.08656 ,0.84930 
364 ,68.0218 ,1.32407 ,0.06602 ,0.64783 
365 ,68.2137 ,1.32595 ,0.05918 ,0.58067 
366 ,68.4058 ,1.32798 ,0.06260 ,0.61425 
367 ,68.5975 ,1.32977 ,0.04549 ,0.44636 
368 ,68.7740 ,1.33161 ,0.02838 ,0.27847 
369 ,68.9817 ,1.33356 ,0.01811 ,0.17773 
370 ,69.1578 ,1.33547 ,-0.00584 ,-0.05731 
371 ,69.3500 ,1.33737 ,0.01127 ,0.11058 
372 ,69.5264 ,1.33919 ,-0.00242 ,-0.02373 
373 ,69.7184 ,1.34100 ,-0.03664 ,-0.35952 
374 ,69.8945 ,1.34285 ,-0.04691 ,-0.46025 
375 ,70.0703 ,1.34467 ,-0.04348 ,-0.42667 
376 ,70.2462 ,1.34633 ,-0.04691 ,-0.46025 
377 ,70.4227 ,1.34809 ,-0.06060 ,-0.59457 
378 ,70.5987 ,1.34987 ,-0.07086 ,-0.69530 
379 ,70.7747 ,1.35162 ,-0.09140 ,-0.89677 
380 ,70.9509 ,1.35340 ,-0.09140 ,-0.89677 
381 ,71.1271 ,1.35521 ,-0.08797 ,-0.86319 
382 ,71.3346 ,1.35716 ,-0.11193 ,-1.09824 
383 ,71.4949 ,1.35895 ,-0.12904 ,-1.26613 
384 ,71.6709 ,1.36061 ,-0.12904 ,-1.26613 
385 ,71.8474 ,1.36238 ,-0.12904 ,-1.26613 
386 ,72.0399 ,1.36417 ,-0.16326 ,-1.60191 
387 ,72.2154 ,1.36601 ,-0.17353 ,-1.70265 
388 ,72.3910 ,1.36783 ,-0.16326 ,-1.60191 
389 ,72.5676 ,1.36959 ,-0.18037 ,-1.76981 
390 ,72.7436 ,1.37139 ,-0.19406 ,-1.90412 
391 ,72.9196 ,1.37308 ,-0.19406 ,-1.90412 
392 ,73.0958 ,1.37480 ,-0.22144 ,-2.17275 
393 ,73.2880 ,1.37668 ,-0.20090 ,-1.97128 
394 ,73.4800 ,1.37867 ,-0.22486 ,-2.20632 
395 ,73.6560 ,1.38047 ,-0.24539 ,-2.40779 
396 ,73.8323 ,1.38220 ,-0.23855 ,-2.34064 
397 ,74.0241 ,1.38404 ,-0.25224 ,-2.47495 
398 ,74.2323 ,1.38605 ,-0.26250 ,-2.57569 
399 ,74.4085 ,1.38799 ,-0.25908 ,-2.54211 
400 ,74.6004 ,1.38979 ,-0.27277 ,-2.67642 
401 ,74.8086 ,1.39197 ,-0.27961 ,-2.74358 
402 ,75.0007 ,1.39386 ,-0.30699 ,-3.01220 
403 ,75.1769 ,1.39567 ,-0.31726 ,-3.11294 
404 ,75.3847 ,1.39765 ,-0.31726 ,-3.11294 
405 ,75.5766 ,1.39956 ,-0.34806 ,-3.41514 
406 ,75.7530 ,1.40140 ,-0.34464 ,-3.38156 
407 ,75.9454 ,1.40332 ,-0.33095 ,-3.24725 
408 ,76.1208 ,1.40511 ,-0.36859 ,-3.61661 
409 ,76.2971 ,1.40679 ,-0.37201 ,-3.65019 
410 ,76.4733 ,1.40858 ,-0.37886 ,-3.71735 
411 ,76.6490 ,1.41042 ,-0.37201 ,-3.65019 
412 ,76.8415 ,1.41215 ,-0.37886 ,-3.71735 
413 ,77.0494 ,1.41431 ,-0.39255 ,-3.85166 
414 ,77.2255 ,1.41607 ,-0.39939 ,-3.91882 
415 ,77.4495 ,1.41823 ,-0.41650 ,-4.08671 
416 ,77.6578 ,1.42037 ,-0.44046 ,-4.32176 
417 ,77.8658 ,1.42241 ,-0.43703 ,-4.28818 
418 ,78.0900 ,1.42472 ,-0.43703 ,-4.28818 
419 ,78.2820 ,1.42664 ,-0.47126 ,-4.62396 
420 ,78.4902 ,1.42871 ,-0.47468 ,-4.65754 
421 ,78.6823 ,1.43063 ,-0.49521 ,-4.85901 
422 ,78.8584 ,1.43247 ,-0.49521 ,-4.85901 
423 ,79.0500 ,1.43437 ,-0.51232 ,-5.02690 
424 ,79.2425 ,1.43623 ,-0.51917 ,-5.09406 
425 ,79.4506 ,1.43835 ,-0.51232 ,-5.02690 
426 ,79.6427 ,1.44027 ,-0.52601 ,-5.16121 
427 ,79.8343 ,1.44215 ,-0.53628 ,-5.26195 
428 ,80.0109 ,1.44399 ,-0.53628 ,-5.26195 
429 ,80.2347 ,1.44607 ,-0.55339 ,-5.42984 
430 ,80.4430 ,1.44824 ,-0.56365 ,-5.53058 
431 ,80.6352 ,1.45012 ,-0.56365 ,-5.53058 
432 ,80.8429 ,1.45224 ,-0.59103 ,-5.79920 
433 ,81.0192 ,1.45406 ,-0.60814 ,-5.96709 
434 ,81.2113 ,1.45592 ,-0.58419 ,-5.73205 
435 ,81.4195 ,1.45785 ,-0.62183 ,-6.10141 
436 ,81.6114 ,1.45990 ,-0.61841 ,-6.06783 
437 ,81.7873 ,1.46174 ,-0.62183 ,-6.10141 
438 ,81.9634 ,1.46349 ,-0.62525 ,-6.13499 
439 ,82.1552 ,1.46537 ,-0.65947 ,-6.47077 
440 ,82.3478 ,1.46720 ,-0.64921 ,-6.37003 
441 ,82.5399 ,1.46919 ,-0.67316 ,-6.60508 
442 ,82.7315 ,1.47117 ,-0.66974 ,-6.57150 
443 ,82.9077 ,1.47292 ,-0.68001 ,-6.67224 
444 ,83.0835 ,1.47462 ,-0.68343 ,-6.70582 
445 ,83.2760 ,1.47650 ,-0.69712 ,-6.84013 
446 ,83.4682 ,1.47846 ,-0.72107 ,-7.07518 
447 ,83.6763 ,1.48056 ,-0.72107 ,-7.07518 
448 ,83.8524 ,1.48242 ,-0.70739 ,-6.94086 
449 ,84.0285 ,1.48413 ,-0.72450 ,-7.10876 
450 ,84.2045 ,1.48588 ,-0.73134 ,-7.17591 
451 ,84.3806 ,1.48763 ,-0.74845 ,-7.34380 
452 ,84.5568 ,1.48940 ,-0.76556 ,-7.51170 
453 ,84.7488 ,1.49128 ,-0.75872 ,-7.44454 
454 ,84.9567 ,1.49322 ,-0.79294 ,-7.78032 
455 ,85.1648 ,1.49545 ,-0.77241 ,-7.57885 
456 ,85.3412 ,1.49726 ,-0.78610 ,-7.71317 
457 ,85.5332 ,1.49915 ,-0.81005 ,-7.94821 
458 ,85.7251 ,1.50102 ,-0.79978 ,-7.84748 
459 ,85.9173 ,1.50294 ,-0.82716 ,-8.11611 
460 ,86.0932 ,1.50474 ,-0.82032 ,-8.04895 
461 ,86.2692 ,1.50652 ,-0.81347 ,-7.98179 
462 ,86.4614 ,1.50838 ,-0.85454 ,-8.38473 
463 ,86.6373 ,1.51025 ,-0.85454 ,-8.38473 
