Point No.,Normal Force [N],Gap [mm],Time [s]
1,4.007356,11.2180,386.8210
2,4.007674,11.2180,386.8260
3,4.007669,11.2180,386.8310
4,4.007351,11.2180,386.8360
5,4.005878,11.2180,386.8410
6,4.005766,11.2180,386.8460
7,4.005284,11.2180,386.8510
8,4.003704,11.2180,386.8560
9,3.999921,11.2205,386.8600
10,3.992303,11.2205,386.8650
11,3.985565,11.2230,386.8700
12,3.971990,11.2230,386.8750
13,3.961529,11.2280,386.8800
14,3.945055,11.2280,386.8850
15,3.925523,11.2323,386.8900
16,3.899242,11.2323,386.8960
17,3.863325,11.2379,386.9010
18,3.843793,11.2379,386.9060
19,3.809979,11.2422,386.9110
20,3.786435,11.2422,386.9160
21,3.754800,11.2472,386.9210
22,3.733991,11.2472,386.9260
23,3.702128,11.2522,386.9310
24,3.680435,11.2522,386.9360
25,3.645808,11.2578,386.9410
26,3.627332,11.2578,386.9460
27,3.595493,11.2621,386.9510
28,3.576231,11.2621,386.9560
29,3.544873,11.2671,386.9610
30,3.525027,11.2671,386.9650
31,3.504550,11.2721,386.9700
32,3.476152,11.2721,386.9750
33,3.455281,11.2777,386.9800
34,3.428277,11.2776,386.9850
35,3.406682,11.2820,386.9900
36,3.379406,11.2820,386.9950
37,3.357905,11.2870,387.0000
38,3.332504,11.2870,387.0050
39,3.312528,11.2920,387.0100
40,3.284405,11.2919,387.0150
41,3.263633,11.2975,387.0200
42,3.236470,11.2975,387.0250
43,3.216699,11.3019,387.0300
44,3.189067,11.3019,387.0350
45,3.168805,11.3069,387.0400
46,3.144124,11.3069,387.0450
47,3.124583,11.3118,387.0500
48,3.099322,11.3118,387.0550
49,3.078681,11.3174,387.0600
50,3.054394,11.3174,387.0650
51,3.035455,11.3218,387.0700
52,3.008773,11.3218,387.0750
53,2.989100,11.3274,387.0800
54,2.963409,11.3274,387.0850
55,2.943124,11.3317,387.0900
56,2.917106,11.3317,387.0950
57,2.896718,11.3373,387.1000
58,2.872818,11.3373,387.1050
59,2.854160,11.3417,387.1100
60,2.830578,11.3417,387.1150
61,2.811017,11.3473,387.1200
62,2.786477,11.3473,387.1250
63,2.767103,11.3516,387.1300
64,2.741146,11.3516,387.1350
65,2.720987,11.3572,387.1400
66,2.698471,11.3572,387.1450
67,2.680098,11.3616,387.1500
68,2.656942,11.3616,387.1550
69,2.637961,11.3666,387.1600
70,2.616119,11.3665,387.1650
71,2.597807,11.3715,387.1700
72,2.574739,11.3715,387.1750
73,2.555128,11.3771,387.1800
74,2.532177,11.3771,387.1850
75,2.512579,11.3815,387.1900
76,2.488240,11.3815,387.1950
77,2.468881,11.3871,387.2000
78,2.446692,11.3871,387.2050
79,2.427524,11.3914,387.2100
80,2.403890,11.3914,387.2150
81,2.384438,11.3970,387.2200
82,2.362806,11.3970,387.2250
83,2.343994,11.4014,387.2300
84,2.320711,11.4014,387.2350
85,2.302483,11.4070,387.2400
86,2.281146,11.4070,387.2450
87,2.264545,11.4113,387.2500
88,2.243802,11.4113,387.2550
89,2.228731,11.4169,387.2600
90,2.211410,11.4169,387.2650
91,2.196007,11.4213,387.2700
92,2.176222,11.4213,387.2750
93,2.159472,11.4269,387.2800
94,2.140435,11.4269,387.2850
95,2.123741,11.4319,387.2900
96,2.101380,11.4319,387.2950
97,2.082773,11.4369,387.3000
98,2.061033,11.4368,387.3050
99,2.042166,11.4412,387.3100
100,2.018532,11.4412,387.3150
101,2.000169,11.4468,387.3200
102,1.979995,11.4468,387.3250
103,1.962647,11.4512,387.3300
104,1.939790,11.4511,387.3350
105,1.920215,11.4568,387.3400
106,1.898041,11.4567,387.3450
107,1.879729,11.4611,387.3500
108,1.856437,11.4611,387.3550
109,1.837452,11.4667,387.3600
110,1.816371,11.4667,387.3650
111,1.798654,11.4711,387.3700
112,1.776661,11.4710,387.3750
113,1.757629,11.4767,387.3800
114,1.736292,11.4766,387.3850
115,1.717685,11.4810,387.3900
116,1.695390,11.4810,387.3950
117,1.676675,11.4866,387.4000
118,1.657409,11.4866,387.4050
119,1.640542,11.4910,387.4100
120,1.619182,11.4910,387.4150
121,1.599860,11.4966,387.4200
122,1.579533,11.4966,387.4250
123,1.560739,11.5009,387.4300
124,1.537746,11.5009,387.4350
125,1.519406,11.5065,387.4400
126,1.498943,11.5065,387.4450
127,1.480159,11.5109,387.4500
128,1.458280,11.5109,387.4550
129,1.439163,11.5165,387.4600
130,1.419308,11.5165,387.4650
131,1.400945,11.5208,387.4700
132,1.378892,11.5208,387.4750
133,1.360660,11.5264,387.4800
134,1.341997,11.5264,387.4850
135,1.326056,11.5314,387.4900
136,1.305551,11.5314,387.4950
137,1.287234,11.5364,387.5000
138,1.267253,11.5364,387.5050
139,1.250115,11.5407,387.5100
140,1.229979,11.5407,387.5150
141,1.212443,11.5463,387.5200
142,1.192705,11.5463,387.5250
143,1.175969,11.5507,387.5300
144,1.155642,11.5507,387.5350
145,1.137073,11.5563,387.5400
146,1.116937,11.5563,387.5450
147,1.099663,11.5606,387.5500
148,1.079897,11.5606,387.5550
149,1.063175,11.5663,387.5600
150,1.044101,11.5662,387.5650
151,1.027075,11.5712,387.5700
152,1.007243,11.5712,387.5750
153,0.989226,11.5762,387.5800
154,0.969394,11.5762,387.5850
155,0.951859,11.5812,387.5900
156,0.931064,11.5812,387.5950
157,0.913196,11.5862,387.6000
158,0.894585,11.5862,387.6050
159,0.879172,11.5905,387.6100
160,0.860426,11.5905,387.6150
161,0.844470,11.5961,387.6200
162,0.826654,11.5961,387.6250
163,0.810316,11.6005,387.6300
164,0.791550,11.6005,387.6350
165,0.774805,11.6061,387.6400
166,0.757526,11.6061,387.6450
167,0.741403,11.6104,387.6500
168,0.721618,11.6104,387.6550
169,0.704232,11.6160,387.6600
170,0.686420,11.6160,387.6650
171,0.670101,11.6210,387.6700
172,0.650938,11.6210,387.6750
173,0.633912,11.6260,387.6800
174,0.616198,11.6260,387.6850
175,0.599509,11.6310,387.6900
176,0.580842,11.6310,387.6950
177,0.561585,11.6360,387.7000
178,0.542048,11.6359,387.7050
179,0.524129,11.6409,387.7100
180,0.503587,11.6409,387.7150
181,0.485205,11.6459,387.7200
182,0.466032,11.6459,387.7250
183,0.450133,11.6503,387.7300
184,0.431812,11.6503,387.7350
185,0.417639,11.6559,387.7400
186,0.403213,11.6559,387.7450
187,0.389633,11.6609,387.7500
188,0.374005,11.6608,387.7550
189,0.357573,11.6658,387.7600
190,0.344447,11.6658,387.7650
191,0.332008,11.6708,387.7700
192,0.317316,11.6708,387.7750
193,0.304302,11.6758,387.7800
194,0.290680,11.6758,387.7850
195,0.277517,11.6808,387.7900
196,0.261646,11.6808,387.7950
197,0.246603,11.6858,387.8000
198,0.231008,11.6858,387.8050
199,0.216989,11.6901,387.8100
200,0.200659,11.6901,387.8150
201,0.186163,11.6957,387.8200
202,0.171728,11.6957,387.8250
203,0.158289,11.7001,387.8300
204,0.142623,11.7001,387.8350
205,0.128183,11.7057,387.8400
206,0.113149,11.7057,387.8450
207,0.099621,11.7107,387.8500
208,0.084802,11.7107,387.8550
209,0.071040,11.7157,387.8600
210,0.056708,11.7157,387.8650
211,0.043016,11.7200,387.8700
212,0.027618,11.7200,387.8750
213,0.013215,11.7256,387.8800
214,-0.000814,11.7256,387.8850
215,-0.014000,11.7300,387.8900
216,-0.029928,11.7300,387.8950
217,-0.044438,11.7356,387.9000
218,-0.057961,11.7356,387.9050
219,-0.070498,11.7400,387.9100
220,-0.083877,11.7400,387.9150
221,-0.097596,11.7456,387.9200
222,-0.111139,11.7456,387.9250
223,-0.124311,11.7499,387.9300
224,-0.140304,11.7499,387.9350
225,-0.155539,11.7555,387.9400
226,-0.169984,11.7555,387.9450
227,-0.183077,11.7599,387.9500
228,-0.197568,11.7599,387.9550
229,-0.211414,11.7655,387.9600
230,-0.224592,11.7655,387.9650
231,-0.236970,11.7699,387.9700
232,-0.250933,11.7699,387.9750
233,-0.264330,11.7755,387.9800
234,-0.277737,11.7755,387.9850
235,-0.290245,11.7798,387.9900
236,-0.304190,11.7798,387.9950
237,-0.317723,11.7854,388.0000
238,-0.330030,11.7854,388.0050
239,-0.343156,11.7898,388.0100
240,-0.357723,11.7898,388.0150
241,-0.376881,11.7954,388.0210
242,-0.384442,11.7954,388.0250
243,-0.396437,11.7998,388.0300
244,-0.410077,11.7998,388.0350
245,-0.422319,11.8054,388.0400
246,-0.433907,11.8054,388.0450
247,-0.446074,11.8097,388.0500
248,-0.459537,11.8097,388.0550
249,-0.472626,11.8153,388.0600
250,-0.484952,11.8153,388.0650
251,-0.496956,11.8197,388.0700
252,-0.509787,11.8197,388.0750
253,-0.523180,11.8253,388.0800
254,-0.536310,11.8253,388.0850
255,-0.548099,11.8297,388.0900
256,-0.560758,11.8297,388.0950
257,-0.573664,11.8353,388.1000
258,-0.586233,11.8353,388.1050
259,-0.597222,11.8396,388.1100
260,-0.609577,11.8396,388.1150
261,-0.621361,11.8453,388.1200
262,-0.633182,11.8453,388.1250
263,-0.645102,11.8496,388.1300
264,-0.659009,11.8496,388.1350
265,-0.669413,11.8552,388.1400
266,-0.680342,11.8552,388.1450
267,-0.690629,11.8596,388.1500
268,-0.700379,11.8596,388.1550
269,-0.710171,11.8652,388.1600
270,-0.718948,11.8652,388.1650
271,-0.727795,11.8696,388.1700
272,-0.736142,11.8696,388.1750
273,-0.746159,11.8752,388.1800
274,-0.754781,11.8752,388.1850
275,-0.764807,11.8796,388.1900
276,-0.785055,11.8795,388.1950
277,-0.801637,11.8845,388.2000
278,-0.812158,11.8845,388.2050
279,-0.820056,11.8895,388.2100
280,-0.826154,11.8895,388.2150
281,-0.836731,11.8951,388.2200
282,-0.849343,11.8951,388.2250
283,-0.861660,11.8995,388.2300
284,-0.871129,11.8995,388.2350
285,-0.882511,11.9045,388.2400
286,-0.892598,11.9045,388.2450
287,-0.904134,11.9095,388.2500
288,-0.916558,11.9095,388.2550
289,-0.929137,11.9151,388.2600
290,-0.940748,11.9151,388.2650
291,-0.951298,11.9194,388.2700
292,-0.962609,11.9194,388.2750
293,-0.974080,11.9244,388.2800
294,-0.984265,11.9244,388.2850
295,-0.994090,11.9294,388.2900
296,-1.003844,11.9294,388.2950
297,-1.014388,11.9350,388.3000
298,-1.024400,11.9350,388.3050
299,-1.034365,11.9394,388.3100
300,-1.044110,11.9394,388.3150
301,-1.055221,11.9444,388.3200
302,-1.064611,11.9444,388.3250
303,-1.074019,11.9494,388.3300
304,-1.084709,11.9494,388.3350
305,-1.095254,11.9550,388.3400
306,-1.105513,11.9550,388.3450
307,-1.114922,11.9593,388.3500
308,-1.124620,11.9593,388.3550
309,-1.134566,11.9643,388.3600
310,-1.143039,11.9643,388.3650
311,-1.151129,11.9693,388.3700
312,-1.160079,11.9693,388.3750
313,-1.168314,11.9749,388.3800
314,-1.176596,11.9749,388.3850
315,-1.183947,11.9793,388.3900
316,-1.192050,11.9793,388.3950
317,-1.200117,11.9843,388.4000
318,-1.207248,11.9843,388.4050
319,-1.214623,11.9893,388.4100
320,-1.221936,11.9893,388.4150
321,-1.231120,11.9893,388.4200
322,-1.238742,11.9949,388.4250
323,-1.246369,11.9993,388.4300
324,-1.254781,11.9993,388.4350
325,-1.264265,12.0043,388.4400
326,-1.272125,12.0042,388.4450
327,-1.280608,12.0092,388.4500
328,-1.289712,12.0092,388.4550
329,-1.299715,12.0149,388.4600
330,-1.308702,12.0149,388.4650
331,-1.316961,12.0192,388.4700
332,-1.325925,12.0192,388.4750
333,-1.336615,12.0242,388.4800
334,-1.345111,12.0242,388.4850
335,-1.353449,12.0292,388.4900
336,-1.361342,12.0292,388.4950
337,-1.370671,12.0348,388.5000
338,-1.379589,12.0348,388.5050
339,-1.387804,12.0348,388.5100
340,-1.396353,12.0392,388.5150
341,-1.405780,12.0392,388.5200
342,-1.413664,12.0442,388.5250
343,-1.421604,12.0492,388.5300
344,-1.429624,12.0492,388.5350
345,-1.438125,12.0548,388.5400
346,-1.445415,12.0548,388.5450
347,-1.452569,12.0591,388.5500
348,-1.460290,12.0591,388.5550
349,-1.469736,12.0641,388.5600
350,-1.477480,12.0641,388.5650
351,-1.485710,12.0691,388.5700
352,-1.494267,12.0691,388.5750
353,-1.503348,12.0747,388.5800
354,-1.513023,12.0747,388.5850
355,-1.521211,12.0791,388.5900
356,-1.530283,12.0791,388.5950
357,-1.539935,12.0791,388.6000
358,-1.548333,12.0841,388.6050
359,-1.556849,12.0841,388.6100
360,-1.565803,12.0891,388.6150
361,-1.575375,12.0891,388.6200
362,-1.583428,12.0947,388.6250
363,-1.589801,12.0991,388.6300
364,-1.597933,12.0991,388.6350
365,-1.607674,12.1041,388.6400
366,-1.617340,12.1040,388.6450
367,-1.626318,12.1090,388.6500
368,-1.635067,12.1090,388.6550
369,-1.644242,12.1140,388.6600
370,-1.651663,12.1140,388.6650
371,-1.658466,12.1190,388.6700
372,-1.666126,12.1190,388.6750
373,-1.675549,12.1240,388.6800
374,-1.682610,12.1240,388.6850
375,-1.690049,12.1290,388.6900
376,-1.697396,12.1290,388.6950
377,-1.705317,12.1290,388.7000
378,-1.712705,12.1346,388.7050
379,-1.719158,12.1346,388.7100
380,-1.726738,12.1390,388.7150
381,-1.735610,12.1390,388.7200
382,-1.742002,12.1440,388.7250
383,-1.749184,12.1490,388.7300
384,-1.757381,12.1490,388.7350
385,-1.765013,12.1540,388.7400
386,-1.769989,12.1540,388.7450
387,-1.772757,12.1590,388.7500
388,-1.775366,12.1590,388.7550
389,-1.781361,12.1639,388.7600
390,-1.785897,12.1639,388.7650
391,-1.791480,12.1689,388.7700
392,-1.796446,12.1689,388.7750
393,-1.803507,12.1739,388.7800
394,-1.809371,12.1739,388.7850
395,-1.812752,12.1739,388.7900
396,-1.813304,12.1789,388.7950
397,-1.818354,12.1789,388.8000
398,-1.822881,12.1839,388.8050
399,-1.829465,12.1839,388.8100
400,-1.837082,12.1889,388.8150
401,-1.844812,12.1889,388.8200
402,-1.851887,12.1945,388.8250
403,-1.857961,12.1989,388.8300
404,-1.866182,12.1989,388.8350
405,-1.875099,12.2039,388.8400
406,-1.882647,12.2039,388.8450
407,-1.890012,12.2089,388.8500
408,-1.897152,12.2089,388.8550
409,-1.905182,12.2139,388.8600
410,-1.912448,12.2139,388.8650
411,-1.918476,12.2189,388.8700
412,-1.925411,12.2189,388.8750
413,-1.933192,12.2189,388.8800
414,-1.940052,12.2239,388.8850
415,-1.946635,12.2239,388.8900
416,-1.954211,12.2288,388.8960
417,-1.966398,12.2345,388.9010
418,-1.969717,12.2345,388.9060
419,-1.977344,12.2388,388.9110
420,-1.977035,12.2388,388.9160
421,-1.982787,12.2438,388.9210
422,-1.981997,12.2438,388.9260
423,-1.987473,12.2488,388.9310
424,-1.988871,12.2488,388.9360
425,-1.997480,12.2544,388.9410
426,-1.999794,12.2544,388.9460
427,-2.004723,12.2588,388.9510
428,-2.003292,12.2588,388.9560
429,-2.008048,12.2638,388.9610
430,-2.007491,12.2638,388.9660
431,-2.013687,12.2688,388.9710
432,-2.015833,12.2688,388.9760
433,-2.025144,12.2744,388.9810
434,-2.025649,12.2744,388.9860
435,-2.029006,12.2788,388.9910
436,-2.029091,12.2788,388.9960
437,-2.036975,12.2838,389.0010
438,-2.037709,12.2838,389.0060
439,-2.045303,12.2888,389.0110
440,-2.047734,12.2888,389.0160
441,-2.057765,12.2944,389.0210
442,-2.058929,12.2944,389.0260
443,-2.060931,12.2988,389.0310
444,-2.058771,12.2988,389.0360
445,-2.063690,12.3038,389.0410
446,-2.063404,12.3038,389.0460
447,-2.070433,12.3088,389.0510
448,-2.072888,12.3088,389.0560
449,-2.083012,12.3144,389.0610
450,-2.085364,12.3144,389.0660
451,-2.092976,12.3188,389.0710
452,-2.095488,12.3188,389.0760
453,-2.106177,12.3238,389.0810
454,-2.107595,12.3238,389.0860
455,-2.113683,12.3288,389.0910
456,-2.115464,12.3288,389.0960
457,-2.124803,12.3344,389.1010
458,-2.126813,12.3344,389.1060
459,-2.134674,12.3387,389.1110
460,-2.136624,12.3387,389.1160
461,-2.146734,12.3437,389.1210
462,-2.148441,12.3437,389.1260
463,-2.152981,12.3487,389.1310
464,-2.152747,12.3487,389.1360
465,-2.158074,12.3544,389.1410
466,-2.158621,12.3544,389.1460
467,-2.165266,12.3587,389.1510
468,-2.167459,12.3587,389.1560
469,-2.177732,12.3637,389.1610
470,-2.179795,12.3637,389.1660
471,-2.188703,12.3687,389.1710
472,-2.192121,12.3687,389.1760
473,-2.202203,12.3743,389.1810
474,-2.205882,12.3743,389.1860
475,-2.214589,12.3787,389.1910
476,-2.217475,12.3787,389.1960
477,-2.227955,12.3837,389.2010
478,-2.230414,12.3837,389.2060
479,-2.238878,12.3887,389.2110
480,-2.241516,12.3887,389.2160
481,-2.251452,12.3943,389.2210
482,-2.254272,12.3943,389.2260
483,-2.262694,12.3987,389.2310
484,-2.265495,12.3987,389.2360
485,-2.275203,12.4037,389.2410
486,-2.277368,12.4037,389.2460
487,-2.285004,12.4087,389.2510
488,-2.287945,12.4087,389.2560
489,-2.298116,12.4143,389.2610
490,-2.301230,12.4143,389.2660
491,-2.309932,12.4186,389.2710
492,-2.313379,12.4186,389.2760
493,-2.324101,12.4236,389.2810
494,-2.326519,12.4236,389.2860
495,-2.334552,12.4286,389.2910
496,-2.336778,12.4286,389.2960
497,-2.346248,12.4342,389.3010
498,-2.349479,12.4342,389.3060
499,-2.356755,12.4386,389.3110
500,-2.359261,12.4386,389.3160
501,-2.368572,12.4436,389.3210
502,-2.370531,12.4436,389.3260
503,-2.378149,12.4486,389.3310
504,-2.380332,12.4486,389.3360
505,-2.387650,12.4542,389.3410
506,-2.386495,12.4542,389.3460
507,-2.386439,12.4586,389.3510
508,-2.384372,12.4586,389.3560
509,-2.385359,12.4636,389.3610
510,-2.382853,12.4636,389.3660
511,-2.385775,12.4686,389.3710
512,-2.387122,12.4686,389.3760
513,-2.395062,12.4742,389.3810
514,-2.397756,12.4742,389.3860
515,-2.404218,12.4786,389.3910
516,-2.406439,12.4786,389.3960
517,-2.415988,12.4836,389.4010
518,-2.418761,12.4836,389.4060
519,-2.426996,12.4886,389.4110
520,-2.430405,12.4886,389.4160
521,-2.439706,12.4942,389.4210
522,-2.442591,12.4942,389.4260
523,-2.448824,12.4986,389.4310
524,-2.452027,12.4986,389.4360
525,-2.461903,12.5035,389.4410
526,-2.463946,12.5035,389.4460
527,-2.470747,12.5085,389.4510
528,-2.473122,12.5085,389.4560
529,-2.481511,12.5142,389.4610
530,-2.484354,12.5142,389.4660
531,-2.490036,12.5185,389.4710
532,-2.492097,12.5185,389.4760
533,-2.497625,12.5242,389.4810
534,-2.494950,12.5242,389.4860
535,-2.493716,12.5285,389.4910
536,-2.492200,12.5285,389.4960
537,-2.496699,12.5342,389.5010
538,-2.498438,12.5342,389.5060
539,-2.503316,12.5385,389.5110
540,-2.505640,12.5385,389.5160
541,-2.515109,12.5441,389.5210
542,-2.518003,12.5441,389.5260
543,-2.524737,12.5485,389.5310
544,-2.527478,12.5485,389.5360
545,-2.535750,12.5541,389.5410
546,-2.539154,12.5541,389.5460
547,-2.545354,12.5585,389.5510
548,-2.547997,12.5585,389.5560
549,-2.557564,12.5641,389.5610
550,-2.560299,12.5641,389.5660
551,-2.567735,12.5685,389.5710
552,-2.570250,12.5685,389.5760
553,-2.577713,12.5741,389.5810
554,-2.580183,12.5741,389.5860
555,-2.584522,12.5785,389.5910
556,-2.586621,12.5785,389.5960
557,-2.594431,12.5835,389.6010
558,-2.596442,12.5835,389.6060
559,-2.601758,12.5885,389.6110
560,-2.604354,12.5885,389.6160
561,-2.612294,12.5941,389.6210
562,-2.614450,12.5941,389.6260
563,-2.617485,12.5985,389.6310
564,-2.618574,12.5985,389.6360
565,-2.625256,12.6035,389.6410
566,-2.626935,12.6035,389.6460
567,-2.629581,12.6084,389.6510
568,-2.626561,12.6085,389.6560
569,-2.625715,12.6141,389.6610
570,-2.625036,12.6141,389.6660
571,-2.625682,12.6185,389.6710
572,-2.625822,12.6185,389.6760
573,-2.630512,12.6241,389.6810
574,-2.630966,12.6241,389.6860
575,-2.629839,12.6284,389.6910
576,-2.626491,12.6285,389.6960
577,-2.626547,12.6341,389.7010
578,-2.626313,12.6341,389.7060
579,-2.627931,12.6384,389.7110
580,-2.628819,12.6384,389.7160
581,-2.633912,12.6434,389.7210
582,-2.635408,12.6434,389.7260
583,-2.640075,12.6484,389.7310
584,-2.641824,12.6484,389.7360
585,-2.646930,12.6541,389.7410
586,-2.645747,12.6541,389.7460
587,-2.640631,12.6584,389.7510
588,-2.636834,12.6584,389.7560
589,-2.634665,12.6641,389.7610
590,-2.628352,12.6641,389.7660
591,-2.621099,12.6685,389.7710
592,-2.617531,12.6685,389.7760
593,-2.618621,12.6741,389.7810
594,-2.618850,12.6741,389.7860
595,-2.617007,12.6785,389.7910
596,-2.611855,12.6785,389.7960
597,-2.605626,12.6841,389.8010
598,-2.595002,12.6841,389.8060
599,-2.577461,12.6885,389.8110
600,-2.568394,12.6885,389.8160
601,-2.564064,12.6941,389.8210
602,-2.562432,12.6941,389.8260
603,-2.562535,12.6985,389.8310
604,-2.563634,12.6985,389.8360
605,-2.569151,12.7041,389.8410
606,-2.571031,12.7041,389.8460
607,-2.575782,12.7085,389.8510
608,-2.577358,12.7085,389.8560
609,-2.576483,12.7141,389.8610
610,-2.572588,12.7141,389.8660
611,-2.567842,12.7185,389.8710
612,-2.566753,12.7185,389.8760
613,-2.569488,12.7241,389.8810
614,-2.569783,12.7241,389.8860
615,-2.572083,12.7285,389.8910
616,-2.573538,12.7285,389.8960
617,-2.578826,12.7341,389.9010
618,-2.581408,12.7341,389.9060
619,-2.584017,12.7385,389.9110
620,-2.585214,12.7385,389.9160
621,-2.589385,12.7435,389.9210
622,-2.591186,12.7435,389.9260
623,-2.594216,12.7485,389.9310
624,-2.596287,12.7485,389.9360
625,-2.600094,12.7541,389.9410
626,-2.594623,12.7541,389.9460
627,-2.577756,12.7585,389.9510
628,-2.567917,12.7585,389.9560
629,-2.555792,12.7635,389.9610
630,-2.547089,12.7635,389.9660
631,-2.537709,12.7685,389.9710
632,-2.534717,12.7685,389.9760
633,-2.535937,12.7741,389.9810
