Point No.,Normal Force [N],Gap [mm],Time [s]
1,2.444761,12.2052,630.8990
2,2.445289,12.2052,630.9041
3,2.445219,12.2052,630.9091
4,2.443685,12.2052,630.9140
5,2.442806,12.2052,630.9190
6,2.442782,12.2052,630.9240
7,2.443465,12.2052,630.9290
8,2.443638,12.2052,630.9340
9,2.440907,12.2052,630.9380
10,2.435431,12.2077,630.9431
11,2.430451,12.2077,630.9481
12,2.426360,12.2102,630.9530
13,2.415937,12.2102,630.9580
14,2.409133,12.2145,630.9630
15,2.396563,12.2145,630.9680
16,2.381829,12.2195,630.9741
17,2.369413,12.2195,630.9790
18,2.352566,12.2251,630.9840
19,2.341398,12.2251,630.9890
20,2.326238,12.2295,630.9940
21,2.313351,12.2295,630.9990
22,2.298812,12.2345,631.0040
23,2.287749,12.2345,631.0090
24,2.273720,12.2395,631.0140
25,2.262534,12.2395,631.0190
26,2.248394,12.2451,631.0240
27,2.238494,12.2451,631.0291
28,2.224742,12.2494,631.0341
29,2.213164,12.2494,631.0390
30,2.201309,12.2544,631.0430
31,2.190077,12.2544,631.0480
32,2.177639,12.2594,631.0530
33,2.165756,12.2594,631.0580
34,2.152598,12.2650,631.0630
35,2.142100,12.2650,631.0681
36,2.128964,12.2694,631.0731
37,2.116760,12.2694,631.0780
38,2.104508,12.2744,631.0830
39,2.096647,12.2744,631.0880
40,2.084709,12.2794,631.0930
41,2.074328,12.2793,631.0980
42,2.059677,12.2850,631.1030
43,2.049207,12.2850,631.1080
44,2.035095,12.2893,631.1130
45,2.024853,12.2893,631.1180
46,2.011518,12.2943,631.1230
47,2.002268,12.2943,631.1281
48,1.988483,12.2993,631.1331
49,1.977073,12.2993,631.1380
50,1.961969,12.3049,631.1430
51,1.953056,12.3049,631.1480
52,1.939635,12.3093,631.1530
53,1.929483,12.3093,631.1580
54,1.915805,12.3143,631.1630
55,1.906865,12.3142,631.1680
56,1.893556,12.3192,631.1730
57,1.884798,12.3192,631.1780
58,1.870554,12.3249,631.1830
59,1.862586,12.3248,631.1880
60,1.848487,12.3292,631.1931
61,1.838158,12.3292,631.1981
62,1.824265,12.3342,631.2030
63,1.815039,12.3342,631.2080
64,1.801244,12.3392,631.2130
65,1.791836,12.3392,631.2180
66,1.777522,12.3448,631.2230
67,1.770405,12.3448,631.2280
68,1.757288,12.3492,631.2330
69,1.748403,12.3492,631.2380
70,1.734496,12.3541,631.2430
71,1.726523,12.3541,631.2480
72,1.713112,12.3591,631.2531
73,1.704765,12.3591,631.2581
74,1.690741,12.3647,631.2630
75,1.683470,12.3647,631.2680
76,1.669142,12.3691,631.2730
77,1.659163,12.3691,631.2780
78,1.645677,12.3741,631.2830
79,1.639439,12.3741,631.2880
80,1.626355,12.3791,631.2930
81,1.618045,12.3791,631.2980
82,1.602656,12.3847,631.3030
83,1.596773,12.3847,631.3080
84,1.584134,12.3891,631.3130
85,1.577835,12.3891,631.3181
86,1.564494,12.3940,631.3231
87,1.557971,12.3940,631.3280
88,1.543231,12.3990,631.3330
89,1.533991,12.3990,631.3380
90,1.518644,12.4046,631.3430
91,1.513019,12.4046,631.3480
92,1.499289,12.4090,631.3530
93,1.491008,12.4090,631.3580
94,1.476853,12.4146,631.3630
95,1.470461,12.4146,631.3680
96,1.456432,12.4190,631.3730
97,1.450297,12.4190,631.3781
98,1.436437,12.4246,631.3831
99,1.432065,12.4246,631.3880
100,1.418593,12.4290,631.3930
101,1.411457,12.4290,631.3980
102,1.397863,12.4346,631.4030
103,1.391934,12.4346,631.4080
104,1.378588,12.4389,631.4130
105,1.371976,12.4389,631.4180
106,1.356979,12.4446,631.4230
107,1.351550,12.4445,631.4280
108,1.337503,12.4489,631.4330
109,1.331405,12.4489,631.4380
110,1.318377,12.4545,631.4431
111,1.313804,12.4545,631.4481
112,1.299504,12.4589,631.4530
113,1.291990,12.4589,631.4580
114,1.277064,12.4645,631.4630
115,1.272350,12.4645,631.4680
116,1.259411,12.4689,631.4730
117,1.254216,12.4689,631.4780
118,1.240889,12.4745,631.4830
119,1.236414,12.4745,631.4880
120,1.222497,12.4788,631.4930
121,1.216007,12.4788,631.4980
122,1.201679,12.4845,631.5031
123,1.199546,12.4845,631.5081
124,1.187398,12.4888,631.5130
125,1.181595,12.4888,631.5180
126,1.167397,12.4944,631.5230
127,1.161655,12.4944,631.5280
128,1.147431,12.4994,631.5330
129,1.142072,12.4994,631.5380
130,1.127351,12.5044,631.5430
131,1.124031,12.5044,631.5480
132,1.110405,12.5088,631.5530
133,1.105181,12.5088,631.5580
134,1.091766,12.5144,631.5630
135,1.088604,12.5144,631.5681
136,1.075254,12.5188,631.5731
137,1.071728,12.5188,631.5780
138,1.057307,12.5244,631.5830
139,1.053332,12.5244,631.5880
140,1.038789,12.5287,631.5930
141,1.032869,12.5287,631.5980
142,1.019060,12.5344,631.6030
143,1.015768,12.5343,631.6080
144,1.001903,12.5387,631.6130
145,0.998228,12.5387,631.6180
146,0.984255,12.5443,631.6230
147,0.981828,12.5443,631.6281
148,0.967781,12.5487,631.6331
149,0.963119,12.5487,631.6380
150,0.948861,12.5543,631.6430
151,0.944204,12.5543,631.6480
152,0.929988,12.5587,631.6530
153,0.925490,12.5587,631.6580
154,0.911405,12.5643,631.6630
155,0.909890,12.5643,631.6680
156,0.896194,12.5687,631.6730
157,0.892514,12.5687,631.6780
158,0.878803,12.5743,631.6830
159,0.875483,12.5743,631.6880
160,0.861599,12.5786,631.6931
161,0.857325,12.5786,631.6981
162,0.842637,12.5842,631.7030
163,0.839846,12.5842,631.7080
164,0.825588,12.5892,631.7130
165,0.821501,12.5892,631.7180
166,0.807669,12.5942,631.7230
167,0.805677,12.5942,631.7280
168,0.792719,12.5986,631.7330
169,0.788801,12.5986,631.7380
170,0.774108,12.6042,631.7430
171,0.771873,12.6042,631.7480
172,0.758134,12.6086,631.7531
173,0.754702,12.6086,631.7581
174,0.740930,12.6142,631.7630
175,0.738223,12.6142,631.7680
176,0.724639,12.6186,631.7730
177,0.720215,12.6186,631.7780
178,0.704915,12.6242,631.7830
179,0.702432,12.6242,631.7880
180,0.688562,12.6285,631.7930
181,0.685850,12.6285,631.7980
182,0.672046,12.6341,631.8030
183,0.669306,12.6341,631.8080
184,0.655366,12.6391,631.8130
185,0.652205,12.6391,631.8181
186,0.637774,12.6441,631.8231
187,0.636811,12.6441,631.8280
188,0.622857,12.6491,631.8330
189,0.619734,12.6491,631.8380
190,0.605901,12.6541,631.8430
191,0.603947,12.6541,631.8480
192,0.590419,12.6585,631.8530
193,0.587066,12.6585,631.8580
194,0.571882,12.6641,631.8630
195,0.569932,12.6641,631.8680
196,0.555319,12.6685,631.8730
197,0.553266,12.6685,631.8781
198,0.538434,12.6741,631.8831
199,0.536577,12.6741,631.8880
200,0.522085,12.6784,631.8930
201,0.518345,12.6784,631.8980
202,0.503343,12.6840,631.9030
203,0.502890,12.6840,631.9080
204,0.489259,12.6890,631.9130
205,0.486416,12.6890,631.9180
206,0.472513,12.6940,631.9230
207,0.470189,12.6940,631.9280
208,0.456591,12.6984,631.9330
209,0.453556,12.6984,631.9380
210,0.438429,12.7040,631.9431
211,0.437288,12.7040,631.9481
212,0.423563,12.7084,631.9530
213,0.420622,12.7084,631.9580
214,0.406280,12.7140,631.9630
215,0.404036,12.7140,631.9680
216,0.390433,12.7184,631.9730
217,0.387669,12.7184,631.9780
218,0.372219,12.7240,631.9830
219,0.369998,12.7240,631.9880
220,0.355679,12.7283,631.9930
221,0.353065,12.7283,631.9980
222,0.341992,12.7340,632.0031
223,0.340748,12.7340,632.0081
224,0.330208,12.7383,632.0130
225,0.328006,12.7383,632.0180
226,0.316633,12.7439,632.0230
227,0.316367,12.7439,632.0280
228,0.305887,12.7483,632.0330
229,0.304129,12.7483,632.0380
230,0.292616,12.7539,632.0430
231,0.291798,12.7539,632.0480
232,0.281379,12.7583,632.0530
233,0.281389,12.7583,632.0580
234,0.270526,12.7639,632.0630
235,0.271340,12.7639,632.0681
236,0.260047,12.7683,632.0731
237,0.258457,12.7683,632.0780
238,0.246607,12.7739,632.0830
239,0.246163,12.7739,632.0880
240,0.235160,12.7783,632.0930
241,0.235034,12.7783,632.0980
242,0.223208,12.7839,632.1030
243,0.222600,12.7839,632.1080
244,0.210428,12.7882,632.1130
245,0.209334,12.7882,632.1180
246,0.198092,12.7939,632.1230
247,0.199257,12.7939,632.1281
248,0.188099,12.7982,632.1331
249,0.186406,12.7982,632.1380
250,0.173519,12.8039,632.1430
251,0.172906,12.8039,632.1480
252,0.161847,12.8082,632.1530
253,0.161725,12.8082,632.1580
254,0.150498,12.8138,632.1630
255,0.150531,12.8138,632.1680
256,0.138471,12.8182,632.1730
257,0.136091,12.8182,632.1780
258,0.123764,12.8238,632.1830
259,0.123783,12.8238,632.1880
260,0.112471,12.8282,632.1931
261,0.111274,12.8282,632.1981
262,0.099308,12.8338,632.2030
263,0.098550,12.8338,632.2080
264,0.087010,12.8382,632.2130
265,0.085476,12.8382,632.2180
266,0.073846,12.8438,632.2230
267,0.075590,12.8438,632.2280
268,0.065134,12.8482,632.2330
269,0.064700,12.8482,632.2380
270,0.052593,12.8538,632.2430
271,0.051737,12.8538,632.2480
272,0.040650,12.8582,632.2531
273,0.040715,12.8582,632.2581
274,0.030040,12.8638,632.2630
275,0.031690,12.8638,632.2680
276,0.021015,12.8681,632.2730
277,0.019308,12.8681,632.2780
278,0.006883,12.8738,632.2830
279,0.006612,12.8738,632.2880
280,-0.003933,12.8781,632.2930
281,-0.004110,12.8781,632.2980
282,-0.015184,12.8837,632.3030
283,-0.014491,12.8837,632.3080
284,-0.025261,12.8881,632.3130
285,-0.025443,12.8881,632.3181
286,-0.036268,12.8931,632.3231
287,-0.035843,12.8931,632.3280
288,-0.046612,12.8981,632.3330
289,-0.047519,12.8981,632.3380
290,-0.058938,12.9037,632.3430
291,-0.058289,12.9037,632.3480
292,-0.068216,12.9081,632.3530
293,-0.067538,12.9081,632.3580
294,-0.077966,12.9131,632.3630
295,-0.076610,12.9131,632.3680
296,-0.086752,12.9181,632.3730
297,-0.086776,12.9181,632.3781
298,-0.097704,12.9237,632.3831
299,-0.096900,12.9237,632.3880
300,-0.106799,12.9281,632.3930
301,-0.106233,12.9281,632.3980
302,-0.116890,12.9331,632.4030
303,-0.116834,12.9331,632.4080
304,-0.127033,12.9380,632.4130
305,-0.126668,12.9380,632.4180
306,-0.136876,12.9437,632.4230
307,-0.134636,12.9437,632.4280
308,-0.143446,12.9480,632.4330
309,-0.142937,12.9480,632.4380
310,-0.153706,12.9530,632.4431
311,-0.153369,12.9530,632.4481
312,-0.163442,12.9580,632.4530
313,-0.163269,12.9580,632.4580
314,-0.173673,12.9636,632.4630
315,-0.172616,12.9636,632.4680
316,-0.182530,12.9680,632.4730
317,-0.182511,12.9680,632.4780
318,-0.193327,12.9730,632.4830
319,-0.192916,12.9730,632.4880
320,-0.202670,12.9780,632.4930
321,-0.201969,12.9780,632.4980
322,-0.211938,12.9836,632.5031
323,-0.211143,12.9836,632.5081
324,-0.221422,12.9880,632.5130
325,-0.221740,12.9880,632.5180
326,-0.232111,12.9930,632.5230
327,-0.230825,12.9930,632.5280
328,-0.240566,12.9980,632.5330
329,-0.241071,12.9980,632.5380
330,-0.251728,13.0036,632.5430
331,-0.251087,13.0036,632.5480
332,-0.260037,13.0080,632.5530
333,-0.259303,13.0080,632.5580
334,-0.269596,13.0130,632.5630
335,-0.269217,13.0130,632.5681
336,-0.279458,13.0180,632.5731
337,-0.280355,13.0180,632.5780
338,-0.291181,13.0236,632.5830
339,-0.289427,13.0236,632.5880
340,-0.297045,13.0279,632.5930
341,-0.295361,13.0279,632.5980
342,-0.305602,13.0329,632.6030
343,-0.305050,13.0329,632.6080
344,-0.314870,13.0379,632.6130
345,-0.315717,13.0379,632.6180
346,-0.325373,13.0436,632.6230
347,-0.324101,13.0436,632.6281
348,-0.331583,13.0479,632.6331
349,-0.329806,13.0479,632.6380
350,-0.340818,13.0529,632.6430
351,-0.341328,13.0529,632.6480
352,-0.351069,13.0579,632.6530
353,-0.351873,13.0579,632.6580
354,-0.361244,13.0635,632.6630
355,-0.358345,13.0635,632.6680
356,-0.364737,13.0679,632.6730
357,-0.363166,13.0679,632.6780
358,-0.370774,13.0729,632.6830
359,-0.369521,13.0729,632.6880
360,-0.378307,13.0779,632.6931
361,-0.376502,13.0779,632.6981
362,-0.386037,13.0835,632.7030
363,-0.386233,13.0835,632.7080
364,-0.394304,13.0879,632.7130
365,-0.391288,13.0879,632.7180
366,-0.398957,13.0929,632.7230
367,-0.395478,13.0929,632.7280
368,-0.402338,13.0979,632.7330
369,-0.400468,13.0979,632.7380
370,-0.407351,13.1035,632.7430
371,-0.403975,13.1035,632.7480
372,-0.410839,13.1079,632.7531
373,-0.409577,13.1079,632.7581
374,-0.416212,13.1129,632.7630
375,-0.412504,13.1129,632.7680
376,-0.418200,13.1179,632.7730
377,-0.416909,13.1179,632.7780
378,-0.424279,13.1229,632.7830
379,-0.422712,13.1229,632.7880
380,-0.428960,13.1279,632.7930
381,-0.429315,13.1279,632.7980
382,-0.444288,13.1329,632.8030
383,-0.447875,13.1329,632.8080
384,-0.452331,13.1379,632.8130
385,-0.448436,13.1379,632.8181
386,-0.455436,13.1429,632.8231
387,-0.452317,13.1429,632.8280
388,-0.458373,13.1479,632.8330
389,-0.455581,13.1479,632.8380
390,-0.462516,13.1529,632.8430
391,-0.460355,13.1529,632.8480
392,-0.466607,13.1578,632.8530
393,-0.465200,13.1579,632.8580
394,-0.471756,13.1635,632.8630
395,-0.468899,13.1635,632.8680
396,-0.474566,13.1678,632.8730
397,-0.471644,13.1678,632.8781
398,-0.477442,13.1728,632.8831
399,-0.474997,13.1728,632.8880
400,-0.481833,13.1778,632.8930
401,-0.481534,13.1778,632.8980
402,-0.487473,13.1828,632.9030
403,-0.483816,13.1828,632.9080
404,-0.490297,13.1878,632.9130
405,-0.490849,13.1878,632.9180
406,-0.498789,13.1928,632.9230
407,-0.500917,13.1928,632.9280
408,-0.508029,13.1978,632.9330
409,-0.509493,13.1978,632.9380
410,-0.515796,13.2034,632.9431
411,-0.515067,13.2034,632.9481
412,-0.520117,13.2078,632.9530
413,-0.518111,13.2078,632.9580
414,-0.523086,13.2128,632.9630
415,-0.520252,13.2128,632.9680
416,-0.527903,13.2178,632.9741
417,-0.526640,13.2178,632.9790
418,-0.542315,13.2228,632.9840
419,-0.537596,13.2228,632.9890
420,-0.543877,13.2278,632.9940
421,-0.538340,13.2278,632.9990
422,-0.546088,13.2328,633.0040
423,-0.540758,13.2328,633.0090
424,-0.548389,13.2378,633.0140
425,-0.543872,13.2378,633.0190
426,-0.552747,13.2434,633.0240
427,-0.546561,13.2434,633.0291
428,-0.552359,13.2478,633.0341
429,-0.547173,13.2478,633.0390
430,-0.554833,13.2528,633.0440
431,-0.548380,13.2528,633.0490
432,-0.553566,13.2578,633.0540
433,-0.547262,13.2578,633.0590
434,-0.553481,13.2634,633.0640
435,-0.545953,13.2634,633.0690
436,-0.551242,13.2678,633.0740
437,-0.545855,13.2678,633.0790
438,-0.554000,13.2728,633.0840
439,-0.548169,13.2728,633.0891
440,-0.554421,13.2778,633.0941
441,-0.548941,13.2778,633.0991
442,-0.556409,13.2834,633.1040
443,-0.549825,13.2834,633.1090
444,-0.555296,13.2878,633.1140
445,-0.549502,13.2878,633.1190
446,-0.556025,13.2928,633.1240
447,-0.549698,13.2928,633.1290
448,-0.555170,13.2978,633.1340
449,-0.548590,13.2978,633.1390
450,-0.552317,13.3034,633.1440
451,-0.542965,13.3034,633.1490
452,-0.544470,13.3078,633.1541
453,-0.538775,13.3078,633.1591
454,-0.547192,13.3128,633.1640
455,-0.540238,13.3128,633.1690
456,-0.545583,13.3178,633.1740
457,-0.539986,13.3178,633.1790
458,-0.546654,13.3234,633.1840
459,-0.540992,13.3234,633.1890
460,-0.546696,13.3278,633.1940
461,-0.541436,13.3278,633.1990
462,-0.546065,13.3328,633.2040
463,-0.537545,13.3328,633.2090
464,-0.542263,13.3378,633.2141
465,-0.538443,13.3378,633.2191
466,-0.545350,13.3434,633.2241
467,-0.540126,13.3434,633.2290
468,-0.550362,13.3478,633.2340
469,-0.546261,13.3478,633.2390
470,-0.550601,13.3528,633.2440
471,-0.544003,13.3528,633.2490
472,-0.549605,13.3578,633.2540
473,-0.544405,13.3578,633.2590
474,-0.550694,13.3634,633.2640
475,-0.543713,13.3634,633.2690
476,-0.546724,13.3678,633.2740
477,-0.540912,13.3678,633.2791
478,-0.547725,13.3728,633.2841
479,-0.544213,13.3728,633.2890
480,-0.551578,13.3778,633.2940
481,-0.547187,13.3778,633.2990
482,-0.554258,13.3834,633.3040
483,-0.549044,13.3834,633.3090
484,-0.555179,13.3878,633.3140
485,-0.549642,13.3878,633.3190
486,-0.555988,13.3928,633.3240
487,-0.550938,13.3928,633.3290
488,-0.556109,13.3978,633.3340
489,-0.551171,13.3978,633.3391
490,-0.558321,13.4034,633.3441
491,-0.552373,13.4034,633.3491
492,-0.555216,13.4078,633.3540
493,-0.548782,13.4078,633.3590
494,-0.554215,13.4128,633.3640
495,-0.548380,13.4128,633.3690
496,-0.553135,13.4178,633.3740
497,-0.548614,13.4178,633.3790
498,-0.555628,13.4234,633.3840
499,-0.550325,13.4234,633.3890
500,-0.555511,13.4278,633.3940
501,-0.550624,13.4278,633.3990
502,-0.557236,13.4328,633.4041
503,-0.551854,13.4328,633.4091
504,-0.556586,13.4378,633.4140
505,-0.551106,13.4378,633.4190
506,-0.556526,13.4434,633.4240
507,-0.550727,13.4434,633.4290
508,-0.554954,13.4478,633.4340
509,-0.549338,13.4478,633.4390
510,-0.553262,13.4528,633.4440
511,-0.546804,13.4528,633.4490
512,-0.551153,13.4578,633.4540
513,-0.547052,13.4578,633.4590
514,-0.554580,13.4634,633.4641
515,-0.551705,13.4634,633.4691
516,-0.556166,13.4678,633.4741
517,-0.550040,13.4678,633.4790
518,-0.553248,13.4728,633.4840
519,-0.546537,13.4728,633.4890
520,-0.545579,13.4778,633.4940
521,-0.538808,13.4778,633.4990
522,-0.540631,13.4834,633.5040
523,-0.536016,13.4834,633.5090
524,-0.543713,13.4878,633.5140
525,-0.541417,13.4878,633.5190
526,-0.545298,13.4928,633.5240
527,-0.540047,13.4928,633.5291
528,-0.545527,13.4978,633.5341
529,-0.541838,13.4978,633.5390
530,-0.548141,13.5034,633.5440
531,-0.544639,13.5034,633.5490
532,-0.550110,13.5078,633.5540
533,-0.546481,13.5078,633.5590
534,-0.552944,13.5128,633.5640
535,-0.547211,13.5128,633.5690
536,-0.547028,13.5178,633.5740
537,-0.541613,13.5178,633.5790
538,-0.545770,13.5234,633.5840
539,-0.541379,13.5234,633.5891
540,-0.544788,13.5278,633.5941
541,-0.540327,13.5278,633.5991
542,-0.541160,13.5334,633.6040
543,-0.530587,13.5334,633.6090
544,-0.526738,13.5378,633.6140
545,-0.522408,13.5378,633.6190
546,-0.530765,13.5434,633.6240
547,-0.526537,13.5434,633.6290
548,-0.526009,13.5478,633.6340
549,-0.520299,13.5478,633.6390
550,-0.522941,13.5528,633.6440
551,-0.519888,13.5528,633.6490
552,-0.522796,13.5578,633.6541
553,-0.520014,13.5578,633.6591
554,-0.524073,13.5634,633.6640
555,-0.521272,13.5634,633.6690
556,-0.518555,13.5678,633.6740
557,-0.508969,13.5678,633.6790
558,-0.507795,13.5735,633.6840
559,-0.504040,13.5735,633.6890
560,-0.508371,13.5778,633.6940
561,-0.503764,13.5778,633.6990
562,-0.507472,13.5835,633.7040
563,-0.506743,13.5835,633.7090
564,-0.512939,13.5878,633.7141
565,-0.510316,13.5878,633.7191
566,-0.510662,13.5928,633.7241
567,-0.503783,13.5928,633.7290
568,-0.506734,13.5978,633.7340
569,-0.507300,13.5978,633.7390
570,-0.516254,13.6034,633.7440
571,-0.515908,13.6034,633.7490
572,-0.520182,13.6078,633.7540
573,-0.517372,13.6078,633.7590
574,-0.521015,13.6128,633.7640
575,-0.517877,13.6128,633.7690
576,-0.520168,13.6178,633.7740
577,-0.518279,13.6178,633.7791
578,-0.520687,13.6234,633.7841
579,-0.516044,13.6234,633.7890
580,-0.514122,13.6278,633.7940
581,-0.509100,13.6278,633.7990
582,-0.508646,13.6335,633.8040
583,-0.500645,13.6335,633.8090
584,-0.497929,13.6378,633.8140
585,-0.493149,13.6378,633.8190
586,-0.496727,13.6435,633.8240
587,-0.492874,13.6435,633.8290
588,-0.487819,13.6478,633.8340
589,-0.479743,13.6478,633.8391
590,-0.479425,13.6528,633.8441
591,-0.473748,13.6528,633.8491
592,-0.475455,13.6578,633.8540
593,-0.472715,13.6578,633.8590
594,-0.476516,13.6635,633.8640
595,-0.474075,13.6635,633.8690
596,-0.476142,13.6678,633.8740
597,-0.471396,13.6678,633.8790
598,-0.472434,13.6735,633.8840
599,-0.466252,13.6735,633.8890
600,-0.465289,13.6779,633.8940
601,-0.460066,13.6779,633.8990
602,-0.461436,13.6835,633.9041
603,-0.456063,13.6835,633.9091
604,-0.449811,13.6879,633.9140
605,-0.439953,13.6879,633.9190
606,-0.431877,13.6929,633.9240
607,-0.422904,13.6929,633.9290
608,-0.421071,13.6979,633.9340
609,-0.418172,13.6979,633.9390
610,-0.420182,13.7035,633.9440
611,-0.416689,13.7035,633.9490
612,-0.417709,13.7079,633.9540
613,-0.415104,13.7079,633.9590
614,-0.418971,13.7135,633.9641
615,-0.417082,13.7135,633.9691
616,-0.418261,13.7179,633.9741
617,-0.412457,13.7179,633.9790
618,-0.411069,13.7235,633.9840
619,-0.406537,13.7235,633.9890
620,-0.406846,13.7279,633.9940
621,-0.404171,13.7279,633.9990
622,-0.407739,13.7329,634.0040
623,-0.405766,13.7329,634.0090
624,-0.407931,13.7379,634.0140
625,-0.405373,13.7379,634.0190
626,-0.408230,13.7435,634.0240
627,-0.406860,13.7435,634.0291
628,-0.408188,13.7479,634.0341
629,-0.405948,13.7479,634.0390
630,-0.408174,13.7529,634.0440
631,-0.405639,13.7529,634.0490
632,-0.407056,13.7579,634.0540
633,-0.404868,13.7579,634.0590
634,-0.404620,13.7635,634.0640
635,-0.399836,13.7635,634.0690
636,-0.393841,13.7679,634.0740
637,-0.388431,13.7679,634.0790
638,-0.389652,13.7729,634.0840
639,-0.388618,13.7729,634.0891
640,-0.390793,13.7779,634.0941
641,-0.387192,13.7779,634.0991
642,-0.382806,13.7835,634.1040
643,-0.376399,13.7835,634.1090
644,-0.368043,13.7879,634.1140
645,-0.360982,13.7879,634.1190
646,-0.357891,13.7929,634.1240
647,-0.354959,13.7929,634.1290
648,-0.357433,13.7979,634.1340
649,-0.357882,13.7979,634.1390
650,-0.361641,13.8035,634.1440
651,-0.361090,13.8035,634.1490
652,-0.359560,13.8079,634.1541
653,-0.356563,13.8079,634.1591
654,-0.357957,13.8129,634.1640
655,-0.357021,13.8129,634.1690
656,-0.358508,13.8179,634.1740
