Point No.,Normal Force [N],Gap [mm],Time [s]
1.0,4.364028,11.8457,869.7
2.0,4.329856,11.8457,870.2
3.0,4.308553,11.8457,870.7
4.0,4.290266,11.8457,871.2
5.0,4.279243,11.8457,871.7
6.0,4.270064,11.8456,872.2
7.0,4.260495,11.8456,872.7
8.0,4.251346,11.8456,873.2
9.0,4.244662,11.8456,873.7
10.0,4.237096,11.8456,874.2
11.0,4.232514,11.8456,874.7
12.0,4.228942,11.8456,875.2
13.0,4.226231,11.8456,875.7
14.0,4.223446,11.8456,876.2
15.0,4.220962,11.8456,876.7
16.0,4.218358,11.8456,877.2
17.0,4.215273,11.8456,877.7
18.0,4.212317,11.8456,878.2
19.0,4.210670,11.8456,878.7
20.0,4.207736,11.8456,879.2
21.0,4.205496,11.8456,879.7
22.0,4.204404,11.8456,880.2
23.0,4.201848,11.8456,880.7
24.0,4.200806,11.8456,881.2
25.0,4.198295,11.8456,881.7
26.0,4.196728,11.8456,882.2
27.0,4.194936,11.8456,882.7
28.0,4.193417,11.8456,883.2
29.0,4.191667,11.8456,883.7
30.0,4.190005,11.8456,884.2
31.0,4.189052,11.8456,884.7
32.0,4.188002,11.8456,885.2
33.0,4.186326,11.8456,885.7
34.0,4.184206,11.8456,886.2
35.0,4.183491,11.8456,886.7
36.0,4.181345,11.8456,887.2
37.0,4.181349,11.8456,887.7
38.0,4.179626,11.8456,888.2
39.0,4.178469,11.8456,888.7
40.0,4.177807,11.8456,889.2
