Point No.,Normal Force [N],Gap [mm],Time [s]
1.0,3.981889,11.8867,1486
2.0,3.950135,11.8867,1486
3.0,3.932204,11.8867,1487
4.0,3.915371,11.8867,1487
5.0,3.902591,11.8867,1488
6.0,3.894146,11.8867,1488
7.0,3.888412,11.8867,1489
8.0,3.881669,11.8867,1489
9.0,3.877248,11.8867,1490
10.0,3.873282,11.8867,1490
11.0,3.868420,11.8867,1491
12.0,3.863367,11.8866,1491
13.0,3.859663,11.8866,1492
14.0,3.855529,11.8866,1492
15.0,3.851532,11.8866,1493
16.0,3.848455,11.8866,1493
17.0,3.846000,11.8866,1494
18.0,3.844759,11.8866,1494
19.0,3.842844,11.8866,1495
20.0,3.840791,11.8866,1495
21.0,3.838253,11.8866,1496
22.0,3.837056,11.8866,1496
23.0,3.835819,11.8866,1497
24.0,3.834722,11.8866,1497
25.0,3.833123,11.8866,1498
26.0,3.831661,11.8866,1498
27.0,3.830633,11.8866,1499
28.0,3.829375,11.8866,1499
29.0,3.828490,11.8866,1500
30.0,3.827383,11.8866,1500
31.0,3.826571,11.8866,1501
32.0,3.825706,11.8866,1501
33.0,3.823710,11.8866,1502
34.0,3.823193,11.8866,1502
35.0,3.822829,11.8866,1503
36.0,3.821564,11.8866,1503
37.0,3.820935,11.8866,1504
38.0,3.820513,11.8866,1504
39.0,3.819709,11.8866,1505
40.0,3.818709,11.8866,1505
