Data stamp = , 23-04-2022 08:46:53 955

Calibration Values: 
Slope = , 26.54 , g/V 
Offset Voltage at no contact = , -0.501760 , V 

No , Time , Stage Position ,   Mass , Force 
   ,  (s) ,      (mm)      ,   (g)  , (mN)  

1 ,0.0000 ,0.69942 ,5.29510 ,51.95548 
2 ,0.2098 ,0.69952 ,5.28825 ,51.88832 
3 ,0.5784 ,0.70044 ,5.30536 ,52.05621 
4 ,0.7702 ,0.70215 ,5.30536 ,52.05621 
5 ,0.9625 ,0.70378 ,5.30194 ,52.02263 
6 ,1.1867 ,0.70587 ,5.29510 ,51.95548 
7 ,1.3783 ,0.70791 ,5.30194 ,52.02263 
8 ,1.5544 ,0.70963 ,5.29852 ,51.98905 
9 ,1.7306 ,0.71151 ,5.27798 ,51.78758 
10 ,1.9226 ,0.71337 ,5.27114 ,51.72043 
11 ,2.1308 ,0.71549 ,5.25061 ,51.51896 
12 ,2.3067 ,0.71725 ,5.24376 ,51.45180 
13 ,2.4828 ,0.71898 ,5.22323 ,51.25033 
14 ,2.6750 ,0.72086 ,5.20612 ,51.08244 
15 ,2.8511 ,0.72267 ,5.18559 ,50.88097 
16 ,3.0272 ,0.72449 ,5.16848 ,50.71308 
17 ,3.2351 ,0.72640 ,5.13083 ,50.34372 
18 ,3.4114 ,0.72827 ,5.12056 ,50.24298 
19 ,3.5875 ,0.73003 ,5.12741 ,50.31014 
20 ,3.7955 ,0.73194 ,5.07950 ,49.84004 
21 ,4.0032 ,0.73416 ,5.07265 ,49.77289 
22 ,4.1795 ,0.73595 ,5.05212 ,49.57142 
23 ,4.3713 ,0.73787 ,5.04870 ,49.53784 
24 ,4.5478 ,0.73965 ,5.02474 ,49.30279 
25 ,4.7397 ,0.74150 ,4.98026 ,48.86627 
26 ,4.9160 ,0.74331 ,4.97341 ,48.79911 
27 ,5.1239 ,0.74529 ,4.95630 ,48.63122 
28 ,5.3156 ,0.74722 ,4.93919 ,48.46333 
29 ,5.4924 ,0.74908 ,4.92208 ,48.29544 
30 ,5.6683 ,0.75086 ,4.90839 ,48.16113 
31 ,5.8599 ,0.75271 ,4.87075 ,47.79177 
32 ,6.0520 ,0.75461 ,4.86732 ,47.75819 
33 ,6.2281 ,0.75643 ,4.85706 ,47.65745 
34 ,6.3882 ,0.75816 ,4.84679 ,47.55672 
35 ,6.5643 ,0.75984 ,4.82626 ,47.35525 
36 ,6.7567 ,0.76166 ,4.79204 ,47.01946 
37 ,6.9647 ,0.76373 ,4.77493 ,46.85157 
38 ,7.1570 ,0.76574 ,4.75782 ,46.68368 
39 ,7.3486 ,0.76765 ,4.75097 ,46.61653 
40 ,7.5088 ,0.76937 ,4.73386 ,46.44863 
41 ,7.6851 ,0.77099 ,4.71675 ,46.28074 
42 ,7.8612 ,0.77275 ,4.68937 ,46.01212 
43 ,8.0370 ,0.77449 ,4.66884 ,45.81065 
44 ,8.2133 ,0.77627 ,4.64831 ,45.60918 
45 ,8.4215 ,0.77836 ,4.63119 ,45.44128 
46 ,8.6134 ,0.78024 ,4.61751 ,45.30697 
47 ,8.8055 ,0.78215 ,4.59697 ,45.10550 
48 ,8.9817 ,0.78398 ,4.58671 ,45.00477 
49 ,9.1578 ,0.78575 ,4.57644 ,44.90403 
50 ,9.3658 ,0.78772 ,4.55933 ,44.73614 
51 ,9.5578 ,0.78962 ,4.54222 ,44.56825 
52 ,9.7500 ,0.79160 ,4.52511 ,44.40036 
53 ,9.9579 ,0.79371 ,4.48062 ,43.96384 
54 ,10.1341 ,0.79553 ,4.47720 ,43.93026 
55 ,10.3422 ,0.79750 ,4.45666 ,43.72879 
56 ,10.5342 ,0.79940 ,4.44640 ,43.62806 
57 ,10.7101 ,0.80119 ,4.42244 ,43.39301 
58 ,10.8866 ,0.80301 ,4.41560 ,43.32585 
59 ,11.0625 ,0.80476 ,4.38480 ,43.02365 
60 ,11.2544 ,0.80663 ,4.37453 ,42.92291 
61 ,11.4627 ,0.80868 ,4.35742 ,42.75502 
62 ,11.6707 ,0.81066 ,4.33689 ,42.55355 
63 ,11.8468 ,0.81262 ,4.32662 ,42.45282 
64 ,12.0389 ,0.81456 ,4.28898 ,42.08345 
65 ,12.2150 ,0.81635 ,4.27529 ,41.94914 
66 ,12.4069 ,0.81814 ,4.27871 ,41.98272 
67 ,12.5832 ,0.81996 ,4.25818 ,41.78125 
68 ,12.7749 ,0.82180 ,4.23765 ,41.57978 
69 ,12.9672 ,0.82375 ,4.23080 ,41.51262 
70 ,13.1594 ,0.82576 ,4.19658 ,41.17684 
71 ,13.3353 ,0.82747 ,4.17947 ,41.00895 
72 ,13.5112 ,0.82926 ,4.17947 ,41.00895 
73 ,13.7034 ,0.83119 ,4.15209 ,40.74032 
74 ,13.8794 ,0.83298 ,4.12129 ,40.43812 
75 ,14.0557 ,0.83471 ,4.10076 ,40.23665 
76 ,14.2477 ,0.83655 ,4.11445 ,40.37096 
77 ,14.4237 ,0.83839 ,4.09049 ,40.13591 
78 ,14.5999 ,0.84015 ,4.05969 ,39.83371 
79 ,14.7760 ,0.84193 ,4.05969 ,39.83371 
80 ,14.9677 ,0.84374 ,4.04600 ,39.69940 
81 ,15.1601 ,0.84564 ,4.01178 ,39.36361 
82 ,15.3681 ,0.84777 ,4.01178 ,39.36361 
83 ,15.5442 ,0.84957 ,3.97756 ,39.02783 
84 ,15.7844 ,0.85177 ,3.94676 ,38.72562 
85 ,15.9927 ,0.85400 ,3.93992 ,38.65847 
86 ,16.1845 ,0.85592 ,3.92965 ,38.55773 
87 ,16.3606 ,0.85773 ,3.89201 ,38.18837 
88 ,16.5687 ,0.85978 ,3.89885 ,38.25553 
89 ,16.7608 ,0.86169 ,3.87490 ,38.02048 
90 ,16.9528 ,0.86365 ,3.85094 ,37.78543 
91 ,17.1286 ,0.86538 ,3.84752 ,37.75185 
92 ,17.3050 ,0.86719 ,3.82356 ,37.51681 
93 ,17.4971 ,0.86899 ,3.79961 ,37.28176 
94 ,17.6893 ,0.87089 ,3.78250 ,37.11387 
95 ,17.8813 ,0.87287 ,3.75854 ,36.87882 
96 ,18.0892 ,0.87487 ,3.75854 ,36.87882 
97 ,18.2654 ,0.87678 ,3.74143 ,36.71093 
98 ,18.4416 ,0.87853 ,3.71405 ,36.44230 
99 ,18.6337 ,0.88038 ,3.69352 ,36.24083 
100 ,18.8257 ,0.88232 ,3.67299 ,36.03936 
101 ,19.0178 ,0.88418 ,3.64219 ,35.73716 
102 ,19.2097 ,0.88621 ,3.64219 ,35.73716 
103 ,19.3695 ,0.88793 ,3.63877 ,35.70358 
104 ,19.5780 ,0.88985 ,3.60112 ,35.33422 
105 ,19.7699 ,0.89182 ,3.59086 ,35.23348 
106 ,19.9461 ,0.89360 ,3.58059 ,35.13275 
107 ,20.1221 ,0.89535 ,3.55321 ,34.86412 
108 ,20.3141 ,0.89715 ,3.53610 ,34.69623 
109 ,20.5063 ,0.89912 ,3.52241 ,34.56192 
110 ,20.6984 ,0.90109 ,3.49846 ,34.32687 
111 ,20.8904 ,0.90297 ,3.49504 ,34.29329 
112 ,21.0666 ,0.90478 ,3.48477 ,34.19255 
113 ,21.2746 ,0.90679 ,3.45055 ,33.85677 
114 ,21.4503 ,0.90860 ,3.44028 ,33.75604 
115 ,21.6265 ,0.91037 ,3.44370 ,33.78961 
116 ,21.8026 ,0.91212 ,3.40948 ,33.45383 
117 ,21.9788 ,0.91386 ,3.38553 ,33.21878 
118 ,22.1710 ,0.91586 ,3.37526 ,33.11805 
119 ,22.3785 ,0.91779 ,3.34788 ,32.84942 
120 ,22.5710 ,0.91972 ,3.34104 ,32.78227 
121 ,22.7630 ,0.92169 ,3.31708 ,32.54722 
122 ,22.9550 ,0.92358 ,3.30339 ,32.41290 
123 ,23.1313 ,0.92543 ,3.29997 ,32.37933 
124 ,23.3075 ,0.92718 ,3.28971 ,32.27859 
125 ,23.4837 ,0.92890 ,3.24864 ,31.87565 
126 ,23.6755 ,0.93077 ,3.24180 ,31.80849 
127 ,23.8678 ,0.93272 ,3.23153 ,31.70776 
128 ,24.0598 ,0.93457 ,3.20073 ,31.40555 
129 ,24.2358 ,0.93647 ,3.16993 ,31.10335 
130 ,24.4119 ,0.93827 ,3.17677 ,31.17051 
131 ,24.5880 ,0.93993 ,3.16993 ,31.10335 
132 ,24.7961 ,0.94195 ,3.14597 ,30.86830 
133 ,24.9881 ,0.94396 ,3.12544 ,30.66683 
134 ,25.1641 ,0.94571 ,3.12202 ,30.63325 
135 ,25.3563 ,0.94766 ,3.08438 ,30.26389 
136 ,25.5642 ,0.94969 ,3.08438 ,30.26389 
137 ,25.7721 ,0.95170 ,3.06726 ,30.09600 
138 ,25.9484 ,0.95353 ,3.05700 ,29.99527 
139 ,26.1243 ,0.95533 ,3.03304 ,29.76022 
140 ,26.3005 ,0.95710 ,3.01935 ,29.62590 
141 ,26.4767 ,0.95882 ,2.99882 ,29.42444 
142 ,26.6529 ,0.96062 ,2.98855 ,29.32370 
143 ,26.8290 ,0.96242 ,2.97829 ,29.22297 
144 ,27.0048 ,0.96410 ,2.96460 ,29.08865 
145 ,27.1811 ,0.96592 ,2.92353 ,28.68571 
146 ,27.3568 ,0.96763 ,2.92011 ,28.65213 
147 ,27.5328 ,0.96936 ,2.89616 ,28.41709 
148 ,27.7089 ,0.97114 ,2.88247 ,28.28277 
149 ,27.8850 ,0.97293 ,2.88931 ,28.34993 
150 ,28.0610 ,0.97467 ,2.87562 ,28.21562 
151 ,28.2371 ,0.97645 ,2.85167 ,27.98057 
152 ,28.4132 ,0.97821 ,2.82429 ,27.71194 
153 ,28.5731 ,0.97994 ,2.81060 ,27.57763 
154 ,28.7492 ,0.98156 ,2.80718 ,27.54405 
155 ,28.9253 ,0.98327 ,2.80376 ,27.51047 
156 ,29.1014 ,0.98505 ,2.79349 ,27.40974 
157 ,29.2776 ,0.98690 ,2.76611 ,27.14111 
158 ,29.4375 ,0.98857 ,2.74216 ,26.90606 
159 ,29.5976 ,0.99018 ,2.72505 ,26.73817 
160 ,29.7737 ,0.99185 ,2.71478 ,26.63744 
161 ,29.9498 ,0.99353 ,2.70109 ,26.50312 
162 ,30.1259 ,0.99535 ,2.69425 ,26.43597 
163 ,30.3019 ,0.99706 ,2.70109 ,26.50312 
164 ,30.4781 ,0.99886 ,2.66003 ,26.10018 
165 ,30.6541 ,1.00055 ,2.62923 ,25.79798 
166 ,30.8302 ,1.00230 ,2.62238 ,25.73082 
167 ,31.0062 ,1.00412 ,2.62581 ,25.76440 
168 ,31.1983 ,1.00601 ,2.59843 ,25.49577 
169 ,31.3743 ,1.00777 ,2.58474 ,25.36146 
170 ,31.5504 ,1.00955 ,2.57789 ,25.29430 
171 ,31.7271 ,1.01134 ,2.55052 ,25.02568 
172 ,31.9350 ,1.01335 ,2.52998 ,24.82421 
173 ,32.1107 ,1.01525 ,2.54025 ,24.92494 
174 ,32.3031 ,1.01705 ,2.52998 ,24.82421 
175 ,32.5112 ,1.01921 ,2.48892 ,24.42127 
176 ,32.6876 ,1.02092 ,2.48207 ,24.35411 
177 ,32.8794 ,1.02283 ,2.46154 ,24.15264 
178 ,33.0555 ,1.02462 ,2.45127 ,24.05191 
179 ,33.2472 ,1.02654 ,2.44101 ,23.95117 
180 ,33.4235 ,1.02826 ,2.43416 ,23.88402 
181 ,33.6157 ,1.03013 ,2.39652 ,23.51465 
182 ,33.8078 ,1.03204 ,2.38968 ,23.44750 
183 ,33.9995 ,1.03406 ,2.36914 ,23.24603 
184 ,34.1760 ,1.03577 ,2.35545 ,23.11171 
185 ,34.3676 ,1.03772 ,2.34177 ,22.97740 
186 ,34.5440 ,1.03947 ,2.33150 ,22.87667 
187 ,34.7201 ,1.04123 ,2.32465 ,22.80951 
188 ,34.8962 ,1.04297 ,2.29728 ,22.54088 
189 ,35.0721 ,1.04473 ,2.26990 ,22.27226 
190 ,35.2484 ,1.04653 ,2.26990 ,22.27226 
191 ,35.4403 ,1.04845 ,2.27332 ,22.30584 
192 ,35.6324 ,1.05042 ,2.24594 ,22.03721 
193 ,35.8085 ,1.05214 ,2.22541 ,21.83574 
194 ,36.0002 ,1.05400 ,2.21857 ,21.76858 
195 ,36.1767 ,1.05580 ,2.19119 ,21.49996 
196 ,36.4008 ,1.05800 ,2.18435 ,21.43280 
197 ,36.5928 ,1.05988 ,2.15697 ,21.16417 
198 ,36.8011 ,1.06202 ,2.15355 ,21.13059 
199 ,36.9927 ,1.06393 ,2.13301 ,20.92912 
200 ,37.1851 ,1.06581 ,2.13301 ,20.92912 
201 ,37.3769 ,1.06773 ,2.10564 ,20.66050 
202 ,37.5528 ,1.06955 ,2.07484 ,20.35829 
203 ,37.7293 ,1.07133 ,2.06799 ,20.29114 
204 ,37.9055 ,1.07311 ,2.06115 ,20.22398 
205 ,38.0975 ,1.07503 ,2.05430 ,20.15682 
206 ,38.2897 ,1.07687 ,2.02350 ,19.85462 
207 ,38.4815 ,1.07878 ,2.01666 ,19.78746 
208 ,38.6577 ,1.08059 ,2.01666 ,19.78746 
209 ,38.8336 ,1.08235 ,1.98928 ,19.51884 
210 ,39.0419 ,1.08435 ,1.97902 ,19.41810 
211 ,39.2179 ,1.08617 ,1.96190 ,19.25021 
212 ,39.4100 ,1.08807 ,1.93795 ,19.01516 
213 ,39.5858 ,1.08986 ,1.93453 ,18.98158 
214 ,39.7777 ,1.09180 ,1.89688 ,18.61222 
215 ,39.9377 ,1.09353 ,1.89346 ,18.57864 
216 ,40.1139 ,1.09515 ,1.89004 ,18.54507 
217 ,40.3065 ,1.09697 ,1.86951 ,18.34360 
218 ,40.4984 ,1.09894 ,1.85924 ,18.24286 
219 ,40.6905 ,1.10098 ,1.85582 ,18.20928 
220 ,40.8665 ,1.10270 ,1.82844 ,17.94066 
221 ,41.0587 ,1.10461 ,1.83528 ,18.00781 
222 ,41.2346 ,1.10636 ,1.80106 ,17.67203 
223 ,41.4429 ,1.10843 ,1.80106 ,17.67203 
224 ,41.6349 ,1.11035 ,1.78053 ,17.47056 
225 ,41.8266 ,1.11229 ,1.76000 ,17.26909 
226 ,42.0029 ,1.11404 ,1.75657 ,17.23551 
227 ,42.1951 ,1.11588 ,1.73604 ,17.03404 
228 ,42.3712 ,1.11773 ,1.72920 ,16.96689 
229 ,42.5633 ,1.11967 ,1.70866 ,16.76542 
230 ,42.7554 ,1.12155 ,1.69840 ,16.66468 
231 ,42.9474 ,1.12347 ,1.67444 ,16.42963 
232 ,43.1231 ,1.12528 ,1.66418 ,16.32890 
233 ,43.2996 ,1.12703 ,1.66418 ,16.32890 
234 ,43.4916 ,1.12892 ,1.62995 ,15.99311 
235 ,43.6678 ,1.13071 ,1.61627 ,15.85880 
236 ,43.8758 ,1.13270 ,1.61627 ,15.85880 
237 ,44.0678 ,1.13471 ,1.59916 ,15.69091 
238 ,44.2598 ,1.13657 ,1.59573 ,15.65733 
239 ,44.4361 ,1.13839 ,1.58204 ,15.52302 
240 ,44.6281 ,1.14028 ,1.55124 ,15.22081 
241 ,44.8041 ,1.14205 ,1.54782 ,15.18724 
242 ,44.9803 ,1.14383 ,1.53756 ,15.08650 
243 ,45.1721 ,1.14567 ,1.49991 ,14.71714 
244 ,45.3642 ,1.14761 ,1.51702 ,14.88503 
245 ,45.5402 ,1.14946 ,1.48622 ,14.58283 
246 ,45.7166 ,1.15113 ,1.47938 ,14.51567 
247 ,45.9086 ,1.15309 ,1.45542 ,14.28062 
248 ,46.0843 ,1.15484 ,1.45542 ,14.28062 
249 ,46.2608 ,1.15663 ,1.44174 ,14.14631 
250 ,46.4689 ,1.15863 ,1.41094 ,13.84410 
251 ,46.6450 ,1.16045 ,1.40751 ,13.81053 
252 ,46.8371 ,1.16226 ,1.40409 ,13.77695 
253 ,47.0131 ,1.16412 ,1.37329 ,13.47474 
254 ,47.1888 ,1.16599 ,1.38014 ,13.54190 
255 ,47.3651 ,1.16763 ,1.35618 ,13.30685 
256 ,47.5731 ,1.16970 ,1.33907 ,13.13896 
257 ,47.7654 ,1.17158 ,1.33223 ,13.07180 
258 ,47.9576 ,1.17349 ,1.32880 ,13.03822 
259 ,48.1653 ,1.17555 ,1.31169 ,12.87033 
260 ,48.3418 ,1.17743 ,1.29458 ,12.70244 
261 ,48.5497 ,1.17945 ,1.27405 ,12.50097 
262 ,48.7417 ,1.18133 ,1.27063 ,12.46739 
263 ,48.9180 ,1.18320 ,1.26720 ,12.43381 
264 ,49.1261 ,1.18520 ,1.22956 ,12.06445 
265 ,49.3018 ,1.18699 ,1.22272 ,11.99730 
266 ,49.4782 ,1.18877 ,1.21245 ,11.89656 
267 ,49.6541 ,1.19049 ,1.19534 ,11.72867 
268 ,49.8303 ,1.19228 ,1.18165 ,11.59436 
269 ,50.0224 ,1.19415 ,1.19192 ,11.69509 
270 ,50.2144 ,1.19620 ,1.17138 ,11.49362 
271 ,50.4061 ,1.19807 ,1.14401 ,11.22500 
272 ,50.5985 ,1.19986 ,1.13716 ,11.15784 
273 ,50.7907 ,1.20181 ,1.11321 ,10.92279 
274 ,50.9823 ,1.20385 ,1.10636 ,10.85563 
275 ,51.1585 ,1.20560 ,1.10294 ,10.82206 
276 ,51.3346 ,1.20737 ,1.09952 ,10.78848 
277 ,51.5105 ,1.20920 ,1.05845 ,10.38554 
278 ,51.6871 ,1.21085 ,1.05503 ,10.35196 
279 ,51.8792 ,1.21280 ,1.05161 ,10.31838 
280 ,52.0710 ,1.21470 ,1.02765 ,10.08333 
281 ,52.2472 ,1.21646 ,1.01396 ,9.94902 
282 ,52.4552 ,1.21837 ,1.01396 ,9.94902 
283 ,52.6313 ,1.22025 ,0.99001 ,9.71397 
284 ,52.8231 ,1.22219 ,0.99001 ,9.71397 
285 ,53.0156 ,1.22408 ,0.97632 ,9.57966 
286 ,53.1917 ,1.22595 ,0.96263 ,9.44535 
287 ,53.3674 ,1.22766 ,0.93868 ,9.21030 
288 ,53.5436 ,1.22938 ,0.93183 ,9.14314 
289 ,53.7198 ,1.23118 ,0.93525 ,9.17672 
290 ,53.9278 ,1.23317 ,0.89419 ,8.77378 
291 ,54.1038 ,1.23500 ,0.89761 ,8.80736 
292 ,54.2958 ,1.23694 ,0.89077 ,8.74020 
293 ,54.4881 ,1.23886 ,0.88050 ,8.63947 
294 ,54.6640 ,1.24060 ,0.85997 ,8.43800 
295 ,54.8563 ,1.24249 ,0.85997 ,8.43800 
296 ,55.0481 ,1.24449 ,0.83259 ,8.16937 
297 ,55.2242 ,1.24622 ,0.81206 ,7.96790 
298 ,55.4165 ,1.24813 ,0.82575 ,8.10221 
299 ,55.6245 ,1.25013 ,0.79495 ,7.80001 
300 ,55.8324 ,1.25222 ,0.78468 ,7.69927 
301 ,56.0087 ,1.25407 ,0.76415 ,7.49780 
302 ,56.1845 ,1.25579 ,0.75730 ,7.43065 
303 ,56.3771 ,1.25762 ,0.75730 ,7.43065 
304 ,56.5530 ,1.25952 ,0.74704 ,7.32991 
305 ,56.7449 ,1.26140 ,0.71624 ,7.02771 
306 ,56.9532 ,1.26335 ,0.71624 ,7.02771 
307 ,57.1451 ,1.26541 ,0.68544 ,6.72550 
308 ,57.3373 ,1.26721 ,0.67859 ,6.65835 
309 ,57.5453 ,1.26933 ,0.67859 ,6.65835 
310 ,57.7216 ,1.27121 ,0.65806 ,6.45688 
311 ,57.9133 ,1.27306 ,0.65806 ,6.45688 
312 ,58.0898 ,1.27488 ,0.64437 ,6.32256 
313 ,58.2813 ,1.27678 ,0.63753 ,6.25541 
314 ,58.6497 ,1.27949 ,0.63410 ,6.22183 
315 ,58.8260 ,1.28218 ,0.58619 ,5.75173 
316 ,59.0498 ,1.28428 ,0.58619 ,5.75173 
317 ,59.2261 ,1.28621 ,0.56566 ,5.55026 
318 ,59.4021 ,1.28795 ,0.55882 ,5.48311 
319 ,59.5944 ,1.28986 ,0.55539 ,5.44953 
320 ,59.7862 ,1.29183 ,0.52459 ,5.14732 
321 ,59.9622 ,1.29355 ,0.52117 ,5.11375 
322 ,60.1384 ,1.29537 ,0.51433 ,5.04659 
323 ,60.3144 ,1.29708 ,0.51091 ,5.01301 
324 ,60.4907 ,1.29887 ,0.50406 ,4.94585 
325 ,60.6827 ,1.30069 ,0.49380 ,4.84512 
326 ,60.8587 ,1.30254 ,0.48353 ,4.74438 
327 ,61.0507 ,1.30448 ,0.46984 ,4.61007 
328 ,61.2268 ,1.30620 ,0.44588 ,4.37502 
329 ,61.4029 ,1.30798 ,0.43562 ,4.27429 
330 ,61.5950 ,1.30992 ,0.44588 ,4.37502 
331 ,61.7711 ,1.31165 ,0.41851 ,4.10640 
332 ,61.9793 ,1.31370 ,0.42193 ,4.13997 
333 ,62.1710 ,1.31560 ,0.39113 ,3.83777 
334 ,62.3474 ,1.31744 ,0.39455 ,3.87135 
335 ,62.5395 ,1.31937 ,0.39113 ,3.83777 
336 ,62.7315 ,1.32120 ,0.36718 ,3.60272 
337 ,62.9554 ,1.32332 ,0.33638 ,3.30052 
338 ,63.1316 ,1.32522 ,0.33980 ,3.33410 
339 ,63.3074 ,1.32700 ,0.32953 ,3.23336 
340 ,63.4837 ,1.32877 ,0.31584 ,3.09905 
341 ,63.6598 ,1.33054 ,0.31242 ,3.06547 
342 ,63.8358 ,1.33229 ,0.31242 ,3.06547 
343 ,64.0119 ,1.33403 ,0.30558 ,2.99831 
344 ,64.1883 ,1.33579 ,0.27820 ,2.72969 
345 ,64.3638 ,1.33754 ,0.26793 ,2.62895 
346 ,64.5402 ,1.33932 ,0.25767 ,2.52822 
347 ,64.7162 ,1.34111 ,0.26109 ,2.56179 
348 ,64.8925 ,1.34285 ,0.24398 ,2.39390 
349 ,65.0842 ,1.34470 ,0.22344 ,2.19243 
350 ,65.2924 ,1.34669 ,0.22002 ,2.15885 
351 ,65.5006 ,1.34885 ,0.21318 ,2.09170 
352 ,65.6923 ,1.35076 ,0.20976 ,2.05812 
353 ,65.8844 ,1.35267 ,0.19264 ,1.89023 
354 ,66.0604 ,1.35451 ,0.17896 ,1.75592 
355 ,66.2203 ,1.35624 ,0.18580 ,1.82307 
356 ,66.3965 ,1.35787 ,0.16869 ,1.65518 
357 ,66.5726 ,1.35968 ,0.16185 ,1.58802 
358 ,66.7648 ,1.36153 ,0.13105 ,1.28582 
359 ,66.9730 ,1.36360 ,0.13447 ,1.31940 
360 ,67.1647 ,1.36551 ,0.10709 ,1.05077 
361 ,67.3409 ,1.36733 ,0.09340 ,0.91646 
362 ,67.5169 ,1.36907 ,0.10709 ,1.05077 
363 ,67.6931 ,1.37083 ,0.10025 ,0.98361 
364 ,67.8691 ,1.37270 ,0.06945 ,0.68141 
365 ,68.0452 ,1.37442 ,0.08314 ,0.81572 
366 ,68.2212 ,1.37621 ,0.06260 ,0.61425 
367 ,68.3973 ,1.37796 ,0.05918 ,0.58067 
368 ,68.5735 ,1.37961 ,0.04207 ,0.41278 
369 ,68.7495 ,1.38144 ,0.04549 ,0.44636 
370 ,68.9580 ,1.38338 ,0.01811 ,0.17773 
371 ,69.1501 ,1.38542 ,0.01811 ,0.17773 
372 ,69.3579 ,1.38751 ,0.00785 ,0.07700 
373 ,69.5341 ,1.38925 ,0.01127 ,0.11058 
374 ,69.7101 ,1.39100 ,-0.01611 ,-0.15805 
375 ,69.9184 ,1.39306 ,-0.02295 ,-0.22520 
376 ,70.1264 ,1.39517 ,-0.04006 ,-0.39310 
377 ,70.3025 ,1.39689 ,-0.05717 ,-0.56099 
378 ,70.4942 ,1.39876 ,-0.06744 ,-0.66172 
379 ,70.6707 ,1.40059 ,-0.07428 ,-0.72888 
380 ,70.8623 ,1.40246 ,-0.09140 ,-0.89677 
381 ,71.0386 ,1.40430 ,-0.08797 ,-0.86319 
382 ,71.2148 ,1.40602 ,-0.08455 ,-0.82961 
383 ,71.3908 ,1.40780 ,-0.08455 ,-0.82961 
384 ,71.5668 ,1.40957 ,-0.12904 ,-1.26613 
385 ,71.7430 ,1.41135 ,-0.12904 ,-1.26613 
386 ,71.9348 ,1.41325 ,-0.13588 ,-1.33329 
387 ,72.1273 ,1.41514 ,-0.15984 ,-1.56834 
388 ,72.3352 ,1.41708 ,-0.14957 ,-1.46760 
389 ,72.5113 ,1.41902 ,-0.15642 ,-1.53476 
390 ,72.6877 ,1.42080 ,-0.17353 ,-1.70265 
391 ,72.9114 ,1.42287 ,-0.17011 ,-1.66907 
392 ,73.0876 ,1.42476 ,-0.19748 ,-1.93770 
393 ,73.2633 ,1.42652 ,-0.21802 ,-2.13917 
394 ,73.4398 ,1.42832 ,-0.22486 ,-2.20632 
395 ,73.6479 ,1.43036 ,-0.23170 ,-2.27348 
396 ,73.8238 ,1.43215 ,-0.23170 ,-2.27348 
397 ,74.0000 ,1.43390 ,-0.25566 ,-2.50853 
398 ,74.1760 ,1.43571 ,-0.25224 ,-2.47495 
399 ,74.3682 ,1.43750 ,-0.26593 ,-2.60926 
400 ,74.5763 ,1.43950 ,-0.26935 ,-2.64284 
401 ,74.7839 ,1.44160 ,-0.28646 ,-2.81073 
402 ,74.9763 ,1.44359 ,-0.29673 ,-2.91147 
403 ,75.1680 ,1.44555 ,-0.28646 ,-2.81073 
404 ,75.3442 ,1.44731 ,-0.32068 ,-3.14652 
405 ,75.5206 ,1.44916 ,-0.31384 ,-3.07936 
406 ,75.6966 ,1.45085 ,-0.32410 ,-3.18010 
407 ,75.8727 ,1.45260 ,-0.32410 ,-3.18010 
408 ,76.0489 ,1.45438 ,-0.34806 ,-3.41514 
409 ,76.2405 ,1.45620 ,-0.35490 ,-3.48230 
410 ,76.4168 ,1.45808 ,-0.37201 ,-3.65019 
411 ,76.6251 ,1.46009 ,-0.38570 ,-3.78450 
412 ,76.8330 ,1.46215 ,-0.36859 ,-3.61661 
413 ,77.0250 ,1.46411 ,-0.39939 ,-3.91882 
414 ,77.2174 ,1.46608 ,-0.40281 ,-3.95240 
415 ,77.4094 ,1.46796 ,-0.40281 ,-3.95240 
416 ,77.5853 ,1.46974 ,-0.41992 ,-4.12029 
417 ,77.7614 ,1.47156 ,-0.44046 ,-4.32176 
418 ,77.9374 ,1.47327 ,-0.43703 ,-4.28818 
419 ,78.1135 ,1.47499 ,-0.42335 ,-4.15387 
420 ,78.2895 ,1.47675 ,-0.44388 ,-4.35534 
421 ,78.4817 ,1.47872 ,-0.46783 ,-4.59038 
422 ,78.6578 ,1.48045 ,-0.46783 ,-4.59038 
423 ,78.8335 ,1.48222 ,-0.46441 ,-4.55681 
424 ,79.0099 ,1.48400 ,-0.47810 ,-4.69112 
425 ,79.1860 ,1.48572 ,-0.50548 ,-4.95975 
426 ,79.3621 ,1.48744 ,-0.51232 ,-5.02690 
427 ,79.5540 ,1.48929 ,-0.51574 ,-5.06048 
428 ,79.7463 ,1.49123 ,-0.50890 ,-4.99332 
429 ,79.9224 ,1.49312 ,-0.54312 ,-5.32911 
430 ,80.0985 ,1.49484 ,-0.54997 ,-5.39626 
431 ,80.2907 ,1.49676 ,-0.53628 ,-5.26195 
432 ,80.4826 ,1.49867 ,-0.58077 ,-5.69847 
433 ,80.6746 ,1.50060 ,-0.56708 ,-5.56415 
434 ,80.8668 ,1.50252 ,-0.57392 ,-5.63131 
435 ,81.0425 ,1.50427 ,-0.59103 ,-5.79920 
436 ,81.2189 ,1.50612 ,-0.59788 ,-5.86636 
437 ,81.3950 ,1.50786 ,-0.60472 ,-5.93352 
438 ,81.5711 ,1.50955 ,-0.60472 ,-5.93352 
439 ,81.7469 ,1.51128 ,-0.62525 ,-6.13499 
440 ,81.9232 ,1.51309 ,-0.63552 ,-6.23572 
441 ,82.0993 ,1.51484 ,-0.65605 ,-6.43719 
442 ,82.2754 ,1.51660 ,-0.64579 ,-6.33646 
443 ,82.4672 ,1.51854 ,-0.64579 ,-6.33646 
444 ,82.6756 ,1.52058 ,-0.65947 ,-6.47077 
445 ,82.8676 ,1.52256 ,-0.66632 ,-6.53793 
446 ,83.0597 ,1.52449 ,-0.68685 ,-6.73940 
447 ,83.2514 ,1.52635 ,-0.68343 ,-6.70582 
448 ,83.4275 ,1.52815 ,-0.69712 ,-6.84013 
449 ,83.6037 ,1.52988 ,-0.71423 ,-7.00802 
450 ,83.8116 ,1.53192 ,-0.71423 ,-7.00802 
451 ,84.0040 ,1.53383 ,-0.73818 ,-7.24307 
452 ,84.1962 ,1.53583 ,-0.74845 ,-7.34380 
453 ,84.3720 ,1.53759 ,-0.74161 ,-7.27665 
454 ,84.5642 ,1.53938 ,-0.75187 ,-7.37738 
455 ,84.7564 ,1.54141 ,-0.76898 ,-7.54527 
456 ,84.9480 ,1.54335 ,-0.76556 ,-7.51170 
457 ,85.1565 ,1.54524 ,-0.77241 ,-7.57885 
458 ,85.3327 ,1.54717 ,-0.79636 ,-7.81390 
459 ,85.5408 ,1.54916 ,-0.79978 ,-7.84748 
460 ,85.7169 ,1.55101 ,-0.81689 ,-8.01537 
461 ,85.9089 ,1.55292 ,-0.80663 ,-7.91464 
462 ,86.0848 ,1.55473 ,-0.82374 ,-8.08253 
463 ,86.2770 ,1.55663 ,-0.83743 ,-8.21684 
