Data stamp = , 23-04-2022 12:08:35 556

Calibration Values: 
Slope = , 26.54 , g/V 
Offset Voltage at no contact = , -0.501760 , V 

No , Time , Stage Position ,   Mass , Force 
   ,  (s) ,      (mm)      ,   (g)  , (mN)  

1 ,0.0000 ,0.69945 ,5.34301 ,52.42557 
2 ,0.2086 ,0.69952 ,5.33616 ,52.35841 
3 ,0.6570 ,0.70103 ,5.32589 ,52.25768 
4 ,0.8650 ,0.70289 ,5.32589 ,52.25768 
5 ,1.0574 ,0.70471 ,5.32589 ,52.25768 
6 ,1.2334 ,0.70656 ,5.32589 ,52.25768 
7 ,1.4251 ,0.70834 ,5.32589 ,52.25768 
8 ,1.6015 ,0.71016 ,5.30878 ,52.08979 
9 ,1.7936 ,0.71209 ,5.31221 ,52.12337 
10 ,1.9857 ,0.71400 ,5.28483 ,51.85474 
11 ,2.1936 ,0.71610 ,5.28141 ,51.82116 
12 ,2.3700 ,0.71789 ,5.24034 ,51.41822 
13 ,2.5615 ,0.71973 ,5.21981 ,51.21675 
14 ,2.7540 ,0.72172 ,5.21981 ,51.21675 
15 ,2.9461 ,0.72369 ,5.18901 ,50.91455 
16 ,3.1383 ,0.72551 ,5.18216 ,50.84739 
17 ,3.3303 ,0.72747 ,5.15479 ,50.57876 
18 ,3.5380 ,0.72945 ,5.13425 ,50.37729 
19 ,3.7144 ,0.73131 ,5.12741 ,50.31014 
20 ,3.9224 ,0.73334 ,5.09661 ,50.00793 
21 ,4.0986 ,0.73516 ,5.06581 ,49.70573 
22 ,4.2745 ,0.73695 ,5.06239 ,49.67215 
23 ,4.4827 ,0.73894 ,5.03159 ,49.36995 
24 ,4.6586 ,0.74076 ,5.02132 ,49.26921 
25 ,4.8670 ,0.74273 ,5.01106 ,49.16848 
26 ,5.0749 ,0.74490 ,5.00079 ,49.06774 
27 ,5.2510 ,0.74668 ,4.95630 ,48.63122 
28 ,5.4592 ,0.74860 ,4.92550 ,48.32902 
29 ,5.6673 ,0.75077 ,4.90839 ,48.16113 
30 ,5.8429 ,0.75267 ,4.90839 ,48.16113 
31 ,6.0194 ,0.75437 ,4.87759 ,47.85892 
32 ,6.2109 ,0.75635 ,4.85021 ,47.59030 
33 ,6.4032 ,0.75821 ,4.83995 ,47.48956 
34 ,6.6117 ,0.76019 ,4.83310 ,47.42240 
35 ,6.8033 ,0.76229 ,4.79546 ,47.05304 
36 ,6.9799 ,0.76398 ,4.78177 ,46.91873 
37 ,7.1718 ,0.76595 ,4.76124 ,46.71726 
38 ,7.3478 ,0.76767 ,4.76124 ,46.71726 
39 ,7.5240 ,0.76940 ,4.72359 ,46.34790 
40 ,7.7159 ,0.77129 ,4.70990 ,46.21359 
41 ,7.8918 ,0.77306 ,4.70306 ,46.14643 
42 ,8.0843 ,0.77494 ,4.67226 ,45.84422 
43 ,8.2923 ,0.77702 ,4.65857 ,45.70991 
44 ,8.4843 ,0.77893 ,4.61751 ,45.30697 
45 ,8.6605 ,0.78081 ,4.62435 ,45.37413 
46 ,8.8524 ,0.78269 ,4.62093 ,45.34055 
47 ,9.0605 ,0.78469 ,4.59697 ,45.10550 
48 ,9.2367 ,0.78656 ,4.57302 ,44.87045 
49 ,9.4285 ,0.78844 ,4.56617 ,44.80330 
50 ,9.5886 ,0.79014 ,4.52853 ,44.43394 
51 ,9.7646 ,0.79180 ,4.51484 ,44.29962 
52 ,9.9568 ,0.79371 ,4.49773 ,44.13173 
53 ,10.1329 ,0.79546 ,4.50457 ,44.19889 
54 ,10.3090 ,0.79725 ,4.48062 ,43.96384 
55 ,10.4851 ,0.79900 ,4.43955 ,43.56090 
56 ,10.6770 ,0.80088 ,4.43955 ,43.56090 
57 ,10.8690 ,0.80289 ,4.42586 ,43.42659 
58 ,11.0452 ,0.80456 ,4.39849 ,43.15796 
59 ,11.2214 ,0.80636 ,4.37453 ,42.92291 
60 ,11.3975 ,0.80813 ,4.35742 ,42.75502 
61 ,11.5895 ,0.80996 ,4.34373 ,42.62071 
62 ,11.7656 ,0.81174 ,4.33347 ,42.51997 
63 ,11.9418 ,0.81356 ,4.30951 ,42.28492 
64 ,12.1178 ,0.81540 ,4.28898 ,42.08345 
65 ,12.2938 ,0.81708 ,4.29582 ,42.15061 
66 ,12.4860 ,0.81899 ,4.25476 ,41.74767 
67 ,12.6781 ,0.82100 ,4.25476 ,41.74767 
68 ,12.8699 ,0.82289 ,4.23080 ,41.51262 
69 ,13.0461 ,0.82463 ,4.21027 ,41.31115 
70 ,13.2220 ,0.82636 ,4.18631 ,41.07611 
71 ,13.3984 ,0.82815 ,4.16920 ,40.90821 
72 ,13.6062 ,0.83014 ,4.15551 ,40.77390 
73 ,13.7985 ,0.83207 ,4.14525 ,40.67317 
74 ,13.9744 ,0.83388 ,4.12471 ,40.47170 
75 ,14.1666 ,0.83573 ,4.10418 ,40.27023 
76 ,14.3428 ,0.83756 ,4.08707 ,40.10233 
77 ,14.5348 ,0.83942 ,4.07338 ,39.96802 
78 ,14.7428 ,0.84152 ,4.03574 ,39.59866 
79 ,14.9348 ,0.84341 ,4.03574 ,39.59866 
80 ,15.1110 ,0.84525 ,4.03574 ,39.59866 
81 ,15.2872 ,0.84704 ,4.00152 ,39.26288 
82 ,15.4947 ,0.84904 ,3.98783 ,39.12856 
83 ,15.6713 ,0.85082 ,3.96729 ,38.92709 
84 ,15.8634 ,0.85280 ,3.94334 ,38.69205 
85 ,16.0550 ,0.85461 ,3.93992 ,38.65847 
86 ,16.2315 ,0.85646 ,3.91938 ,38.45700 
87 ,16.4237 ,0.85844 ,3.90227 ,38.28911 
88 ,16.5996 ,0.86012 ,3.87490 ,38.02048 
89 ,16.7758 ,0.86188 ,3.86463 ,37.91975 
90 ,16.9518 ,0.86366 ,3.86463 ,37.91975 
91 ,17.1279 ,0.86544 ,3.85094 ,37.78543 
92 ,17.3038 ,0.86714 ,3.81672 ,37.44965 
93 ,17.5120 ,0.86913 ,3.82014 ,37.48323 
94 ,17.6718 ,0.87099 ,3.77565 ,37.04671 
95 ,17.8639 ,0.87267 ,3.76881 ,36.97955 
96 ,18.0564 ,0.87465 ,3.74828 ,36.77808 
97 ,18.2319 ,0.87644 ,3.73117 ,36.61019 
98 ,18.4085 ,0.87824 ,3.71748 ,36.47588 
99 ,18.6164 ,0.88016 ,3.68668 ,36.17367 
100 ,18.7925 ,0.88201 ,3.68325 ,36.14010 
101 ,18.9846 ,0.88392 ,3.66957 ,36.00578 
102 ,19.1607 ,0.88570 ,3.64219 ,35.73716 
103 ,19.3527 ,0.88759 ,3.62850 ,35.60284 
104 ,19.5448 ,0.88947 ,3.60797 ,35.40137 
105 ,19.7525 ,0.89162 ,3.59428 ,35.26706 
106 ,19.9291 ,0.89345 ,3.58059 ,35.13275 
107 ,20.1211 ,0.89539 ,3.55663 ,34.89770 
108 ,20.2973 ,0.89708 ,3.54637 ,34.79696 
109 ,20.5054 ,0.89908 ,3.51899 ,34.52834 
110 ,20.6811 ,0.90097 ,3.51557 ,34.49476 
111 ,20.8571 ,0.90271 ,3.48477 ,34.19255 
112 ,21.0335 ,0.90444 ,3.47792 ,34.12540 
113 ,21.2097 ,0.90621 ,3.47792 ,34.12540 
114 ,21.4017 ,0.90812 ,3.43001 ,33.65530 
115 ,21.5932 ,0.91007 ,3.43001 ,33.65530 
116 ,21.7858 ,0.91191 ,3.41290 ,33.48741 
117 ,21.9938 ,0.91387 ,3.39237 ,33.28594 
118 ,22.1701 ,0.91586 ,3.38553 ,33.21878 
119 ,22.3461 ,0.91760 ,3.37184 ,33.08447 
120 ,22.5222 ,0.91928 ,3.33762 ,32.74869 
121 ,22.7141 ,0.92118 ,3.33419 ,32.71511 
122 ,22.8901 ,0.92300 ,3.31366 ,32.51364 
123 ,23.0822 ,0.92486 ,3.28971 ,32.27859 
124 ,23.2742 ,0.92677 ,3.28971 ,32.27859 
125 ,23.4505 ,0.92865 ,3.27259 ,32.11070 
126 ,23.6426 ,0.93053 ,3.24180 ,31.80849 
127 ,23.8346 ,0.93247 ,3.21100 ,31.50629 
128 ,24.0107 ,0.93422 ,3.20073 ,31.40555 
129 ,24.2185 ,0.93619 ,3.19388 ,31.33840 
130 ,24.4106 ,0.93817 ,3.18362 ,31.23766 
131 ,24.5864 ,0.93996 ,3.17677 ,31.17051 
132 ,24.7786 ,0.94187 ,3.12202 ,30.63325 
133 ,24.9547 ,0.94365 ,3.11518 ,30.56610 
134 ,25.1308 ,0.94543 ,3.10491 ,30.46536 
135 ,25.3073 ,0.94719 ,3.10149 ,30.43178 
136 ,25.5154 ,0.94920 ,3.08095 ,30.23031 
137 ,25.7075 ,0.95116 ,3.07411 ,30.16316 
138 ,25.8995 ,0.95310 ,3.03647 ,29.79380 
139 ,26.0916 ,0.95495 ,3.03304 ,29.76022 
140 ,26.2837 ,0.95691 ,3.02620 ,29.69306 
141 ,26.4918 ,0.95891 ,3.00909 ,29.52517 
142 ,26.6837 ,0.96089 ,2.99540 ,29.39086 
143 ,26.8756 ,0.96279 ,2.96460 ,29.08865 
144 ,27.0519 ,0.96461 ,2.95433 ,28.98792 
145 ,27.2281 ,0.96642 ,2.94064 ,28.85360 
146 ,27.4200 ,0.96830 ,2.91669 ,28.61856 
147 ,27.6121 ,0.97018 ,2.90642 ,28.51782 
148 ,27.7883 ,0.97197 ,2.90642 ,28.51782 
149 ,27.9803 ,0.97382 ,2.86536 ,28.11488 
150 ,28.1562 ,0.97562 ,2.85167 ,27.98057 
151 ,28.3325 ,0.97742 ,2.83114 ,27.77910 
152 ,28.5244 ,0.97924 ,2.84140 ,27.87983 
153 ,28.7326 ,0.98140 ,2.79691 ,27.44332 
154 ,28.9087 ,0.98315 ,2.81060 ,27.57763 
155 ,29.1008 ,0.98506 ,2.77980 ,27.27542 
156 ,29.2927 ,0.98694 ,2.76954 ,27.17469 
157 ,29.4844 ,0.98889 ,2.74558 ,26.93964 
158 ,29.6770 ,0.99077 ,2.73531 ,26.83891 
159 ,29.8850 ,0.99287 ,2.72163 ,26.70459 
160 ,30.0611 ,0.99468 ,2.69425 ,26.43597 
161 ,30.2529 ,0.99655 ,2.69083 ,26.40239 
162 ,30.4454 ,0.99845 ,2.67714 ,26.26807 
163 ,30.6373 ,1.00041 ,2.64976 ,25.99945 
164 ,30.8295 ,1.00230 ,2.64292 ,25.93229 
165 ,31.0215 ,1.00426 ,2.60869 ,25.59651 
166 ,31.1975 ,1.00603 ,2.59843 ,25.49577 
167 ,31.3736 ,1.00780 ,2.57447 ,25.26073 
168 ,31.5497 ,1.00956 ,2.57789 ,25.29430 
169 ,31.7575 ,1.01153 ,2.57105 ,25.22715 
170 ,31.9499 ,1.01357 ,2.54710 ,24.99210 
171 ,32.1259 ,1.01536 ,2.55052 ,25.02568 
172 ,32.3180 ,1.01724 ,2.51630 ,24.68989 
173 ,32.5100 ,1.01915 ,2.50603 ,24.58916 
174 ,32.6858 ,1.02087 ,2.49576 ,24.48842 
175 ,32.8623 ,1.02268 ,2.47523 ,24.28696 
176 ,33.0704 ,1.02473 ,2.46496 ,24.18622 
177 ,33.2622 ,1.02661 ,2.43759 ,23.91759 
178 ,33.4384 ,1.02847 ,2.42048 ,23.74970 
179 ,33.6144 ,1.03019 ,2.39994 ,23.54823 
180 ,33.7906 ,1.03195 ,2.41363 ,23.68255 
181 ,33.9666 ,1.03370 ,2.39310 ,23.48108 
182 ,34.1426 ,1.03546 ,2.36914 ,23.24603 
183 ,34.3187 ,1.03727 ,2.35203 ,23.07814 
184 ,34.4949 ,1.03899 ,2.32808 ,22.84309 
185 ,34.6870 ,1.04093 ,2.33150 ,22.87667 
186 ,34.8790 ,1.04284 ,2.31439 ,22.70877 
187 ,35.0712 ,1.04482 ,2.29043 ,22.47373 
188 ,35.2793 ,1.04669 ,2.27332 ,22.30584 
189 ,35.4712 ,1.04880 ,2.25279 ,22.10437 
190 ,35.6473 ,1.05053 ,2.25963 ,22.17152 
191 ,35.8550 ,1.05252 ,2.21515 ,21.73500 
192 ,36.0473 ,1.05444 ,2.22199 ,21.80216 
193 ,36.2394 ,1.05645 ,2.18777 ,21.46638 
194 ,36.4152 ,1.05823 ,2.17408 ,21.33206 
195 ,36.6232 ,1.06015 ,2.17750 ,21.36564 
196 ,36.7994 ,1.06205 ,2.15697 ,21.16417 
197 ,36.9914 ,1.06391 ,2.12959 ,20.89555 
198 ,37.1677 ,1.06572 ,2.13301 ,20.92912 
199 ,37.3761 ,1.06776 ,2.10564 ,20.66050 
200 ,37.5683 ,1.06970 ,2.10906 ,20.69408 
201 ,37.7601 ,1.07167 ,2.06799 ,20.29114 
202 ,37.9523 ,1.07350 ,2.07141 ,20.32472 
203 ,38.1604 ,1.07559 ,2.04746 ,20.08967 
204 ,38.3521 ,1.07761 ,2.03377 ,19.95535 
205 ,38.5284 ,1.07932 ,2.02008 ,19.82104 
206 ,38.7044 ,1.08108 ,2.02693 ,19.88820 
207 ,38.8966 ,1.08302 ,1.98586 ,19.48526 
208 ,39.0727 ,1.08482 ,1.97559 ,19.38452 
209 ,39.2486 ,1.08661 ,1.95848 ,19.21663 
210 ,39.4568 ,1.08850 ,1.95164 ,19.14948 
211 ,39.6489 ,1.09046 ,1.92426 ,18.88085 
212 ,39.8249 ,1.09229 ,1.92426 ,18.88085 
213 ,40.0011 ,1.09407 ,1.90715 ,18.71296 
214 ,40.1928 ,1.09602 ,1.90373 ,18.67938 
215 ,40.3693 ,1.09774 ,1.87977 ,18.44433 
216 ,40.5932 ,1.09984 ,1.86951 ,18.34360 
217 ,40.7853 ,1.10180 ,1.86608 ,18.31002 
218 ,40.9614 ,1.10369 ,1.81817 ,17.83992 
219 ,41.1376 ,1.10543 ,1.82160 ,17.87350 
220 ,41.3294 ,1.10732 ,1.79080 ,17.57129 
221 ,41.4892 ,1.10903 ,1.80106 ,17.67203 
222 ,41.6657 ,1.11067 ,1.79080 ,17.57129 
223 ,41.8418 ,1.11245 ,1.77369 ,17.40340 
224 ,42.0339 ,1.11429 ,1.74289 ,17.10120 
225 ,42.2260 ,1.11624 ,1.73946 ,17.06762 
226 ,42.4180 ,1.11828 ,1.71893 ,16.86615 
227 ,42.5941 ,1.11994 ,1.69840 ,16.66468 
228 ,42.8183 ,1.12210 ,1.69840 ,16.66468 
229 ,43.0102 ,1.12423 ,1.69498 ,16.63110 
230 ,43.1863 ,1.12589 ,1.68471 ,16.53037 
231 ,43.3624 ,1.12764 ,1.66418 ,16.32890 
232 ,43.5384 ,1.12942 ,1.63680 ,16.06027 
233 ,43.7303 ,1.13133 ,1.62311 ,15.92596 
234 ,43.9066 ,1.13306 ,1.62653 ,15.95954 
235 ,44.0985 ,1.13497 ,1.58547 ,15.55660 
236 ,44.2909 ,1.13689 ,1.58889 ,15.59018 
237 ,44.4824 ,1.13880 ,1.56493 ,15.35513 
238 ,44.6591 ,1.14064 ,1.56836 ,15.38871 
239 ,44.8832 ,1.14275 ,1.55124 ,15.22081 
240 ,45.0751 ,1.14474 ,1.51702 ,14.88503 
241 ,45.2832 ,1.14675 ,1.51018 ,14.81787 
242 ,45.4751 ,1.14876 ,1.49649 ,14.68356 
243 ,45.6509 ,1.15057 ,1.47938 ,14.51567 
244 ,45.8275 ,1.15231 ,1.48622 ,14.58283 
245 ,46.0193 ,1.15427 ,1.45542 ,14.28062 
246 ,46.1951 ,1.15603 ,1.44516 ,14.17989 
247 ,46.3716 ,1.15774 ,1.42462 ,13.97842 
248 ,46.5799 ,1.15976 ,1.40067 ,13.74337 
249 ,46.7717 ,1.16167 ,1.41436 ,13.87768 
250 ,46.9638 ,1.16368 ,1.39725 ,13.70979 
251 ,47.1560 ,1.16546 ,1.37671 ,13.50832 
252 ,47.3479 ,1.16749 ,1.38014 ,13.54190 
253 ,47.5401 ,1.16927 ,1.35960 ,13.34043 
254 ,47.7157 ,1.17120 ,1.33565 ,13.10538 
255 ,47.8923 ,1.17295 ,1.32880 ,13.03822 
256 ,48.0844 ,1.17488 ,1.31854 ,12.93749 
257 ,48.2763 ,1.17670 ,1.29458 ,12.70244 
258 ,48.4521 ,1.17851 ,1.28774 ,12.63528 
259 ,48.6282 ,1.18031 ,1.28774 ,12.63528 
260 ,48.8202 ,1.18227 ,1.26378 ,12.40024 
261 ,49.0126 ,1.18409 ,1.24325 ,12.19877 
262 ,49.2208 ,1.18609 ,1.22272 ,11.99730 
263 ,49.4126 ,1.18807 ,1.21929 ,11.96372 
264 ,49.6049 ,1.19001 ,1.20903 ,11.86298 
265 ,49.7970 ,1.19200 ,1.18507 ,11.62794 
266 ,49.9728 ,1.19374 ,1.18165 ,11.59436 
267 ,50.1492 ,1.19552 ,1.17138 ,11.49362 
268 ,50.3411 ,1.19741 ,1.15427 ,11.32573 
269 ,50.5173 ,1.19922 ,1.14743 ,11.25857 
270 ,50.7090 ,1.20110 ,1.14058 ,11.19142 
271 ,50.8853 ,1.20283 ,1.13716 ,11.15784 
272 ,51.0452 ,1.20460 ,1.11321 ,10.92279 
273 ,51.2376 ,1.20629 ,1.09267 ,10.72132 
274 ,51.4293 ,1.20824 ,1.09267 ,10.72132 
275 ,51.6372 ,1.21028 ,1.06530 ,10.45270 
276 ,51.8459 ,1.21232 ,1.06187 ,10.41912 
277 ,52.0215 ,1.21430 ,1.03108 ,10.11691 
278 ,52.2135 ,1.21607 ,1.01739 ,9.98260 
279 ,52.3900 ,1.21789 ,1.02765 ,10.08333 
280 ,52.5661 ,1.21967 ,1.00712 ,9.88186 
281 ,52.7742 ,1.22165 ,0.98659 ,9.68039 
282 ,52.9819 ,1.22375 ,0.96605 ,9.47892 
283 ,53.1584 ,1.22554 ,0.96263 ,9.44535 
284 ,53.3344 ,1.22739 ,0.94552 ,9.27745 
285 ,53.5265 ,1.22917 ,0.93868 ,9.21030 
286 ,53.7026 ,1.23101 ,0.93183 ,9.14314 
287 ,53.8947 ,1.23286 ,0.91130 ,8.94167 
288 ,54.0868 ,1.23489 ,0.91130 ,8.94167 
289 ,54.2626 ,1.23661 ,0.90103 ,8.84094 
290 ,54.4549 ,1.23849 ,0.87708 ,8.60589 
291 ,54.6465 ,1.24037 ,0.87366 ,8.57231 
292 ,54.8390 ,1.24229 ,0.84628 ,8.30368 
293 ,55.0311 ,1.24436 ,0.84628 ,8.30368 
294 ,55.2067 ,1.24601 ,0.84970 ,8.33726 
295 ,55.3992 ,1.24792 ,0.80521 ,7.90074 
296 ,55.5911 ,1.24988 ,0.79495 ,7.80001 
297 ,55.7674 ,1.25169 ,0.78810 ,7.73285 
298 ,55.9594 ,1.25357 ,0.77784 ,7.63212 
299 ,56.1356 ,1.25536 ,0.76415 ,7.49780 
300 ,56.3112 ,1.25708 ,0.75388 ,7.39707 
301 ,56.4878 ,1.25888 ,0.75046 ,7.36349 
302 ,56.6798 ,1.26080 ,0.74019 ,7.26276 
303 ,56.8558 ,1.26259 ,0.72308 ,7.09486 
304 ,57.0318 ,1.26437 ,0.73677 ,7.22918 
305 ,57.2077 ,1.26608 ,0.70255 ,6.89340 
306 ,57.3996 ,1.26788 ,0.69228 ,6.79266 
307 ,57.5762 ,1.26978 ,0.67175 ,6.59119 
308 ,57.7841 ,1.27175 ,0.67859 ,6.65835 
309 ,57.9603 ,1.27360 ,0.64779 ,6.35614 
310 ,58.1523 ,1.27549 ,0.64095 ,6.28899 
311 ,58.3442 ,1.27736 ,0.63753 ,6.25541 
312 ,58.5203 ,1.27915 ,0.63068 ,6.18825 
313 ,58.6965 ,1.28090 ,0.59646 ,5.85247 
314 ,58.8886 ,1.28282 ,0.60673 ,5.95320 
315 ,59.0806 ,1.28478 ,0.59988 ,5.88605 
316 ,59.2568 ,1.28656 ,0.56908 ,5.58384 
317 ,59.4649 ,1.28857 ,0.57593 ,5.65100 
318 ,59.6569 ,1.29048 ,0.53828 ,5.28164 
319 ,59.8645 ,1.29250 ,0.54171 ,5.31522 
320 ,60.0411 ,1.29435 ,0.52459 ,5.14732 
321 ,60.2492 ,1.29636 ,0.53144 ,5.21448 
322 ,60.4413 ,1.29836 ,0.51091 ,5.01301 
323 ,60.6490 ,1.30040 ,0.49722 ,4.87870 
324 ,60.8255 ,1.30227 ,0.48353 ,4.74438 
325 ,61.0334 ,1.30425 ,0.46642 ,4.57649 
326 ,61.2096 ,1.30606 ,0.45957 ,4.50934 
327 ,61.4016 ,1.30792 ,0.45615 ,4.47576 
328 ,61.5779 ,1.30975 ,0.43220 ,4.24071 
329 ,61.7858 ,1.31174 ,0.43220 ,4.24071 
330 ,61.9618 ,1.31356 ,0.42535 ,4.17355 
331 ,62.1380 ,1.31536 ,0.40824 ,4.00566 
332 ,62.3460 ,1.31730 ,0.39113 ,3.83777 
333 ,62.5381 ,1.31937 ,0.39455 ,3.87135 
334 ,62.7302 ,1.32120 ,0.36718 ,3.60272 
335 ,62.9064 ,1.32304 ,0.35349 ,3.46841 
336 ,63.0984 ,1.32492 ,0.37060 ,3.63630 
337 ,63.2906 ,1.32678 ,0.34322 ,3.36767 
338 ,63.4823 ,1.32882 ,0.32269 ,3.16620 
339 ,63.6745 ,1.33065 ,0.30900 ,3.03189 
340 ,63.8503 ,1.33250 ,0.31584 ,3.09905 
341 ,64.0268 ,1.33428 ,0.29873 ,2.93116 
342 ,64.2348 ,1.33623 ,0.27820 ,2.72969 
343 ,64.4109 ,1.33807 ,0.27478 ,2.69611 
344 ,64.5872 ,1.33984 ,0.27820 ,2.72969 
345 ,64.7793 ,1.34177 ,0.25424 ,2.49464 
346 ,64.9547 ,1.34353 ,0.24398 ,2.39390 
347 ,65.1472 ,1.34534 ,0.24055 ,2.36032 
348 ,65.3231 ,1.34713 ,0.23713 ,2.32675 
349 ,65.4994 ,1.34892 ,0.22344 ,2.19243 
350 ,65.6752 ,1.35067 ,0.20633 ,2.02454 
351 ,65.8839 ,1.35274 ,0.20291 ,1.99096 
352 ,66.0593 ,1.35454 ,0.18922 ,1.85665 
353 ,66.2357 ,1.35627 ,0.16869 ,1.65518 
354 ,66.4277 ,1.35814 ,0.16869 ,1.65518 
355 ,66.6038 ,1.35997 ,0.15500 ,1.52087 
356 ,66.8120 ,1.36201 ,0.12762 ,1.25224 
357 ,67.0039 ,1.36394 ,0.12762 ,1.25224 
358 ,67.1801 ,1.36574 ,0.13447 ,1.31940 
359 ,67.3723 ,1.36765 ,0.10367 ,1.01719 
360 ,67.5801 ,1.36961 ,0.10709 ,1.05077 
361 ,67.7564 ,1.37149 ,0.08998 ,0.88288 
362 ,67.9485 ,1.37335 ,0.07287 ,0.71499 
363 ,68.1401 ,1.37529 ,0.07629 ,0.74857 
364 ,68.3323 ,1.37719 ,0.04549 ,0.44636 
365 ,68.5245 ,1.37917 ,0.05234 ,0.51352 
366 ,68.7007 ,1.38096 ,0.04549 ,0.44636 
367 ,68.8769 ,1.38271 ,0.02838 ,0.27847 
368 ,69.0848 ,1.38474 ,0.02838 ,0.27847 
369 ,69.2605 ,1.38650 ,0.01811 ,0.17773 
370 ,69.4370 ,1.38832 ,0.00443 ,0.04342 
371 ,69.6291 ,1.39023 ,-0.01611 ,-0.15805 
372 ,69.8212 ,1.39207 ,-0.00242 ,-0.02373 
373 ,70.0293 ,1.39423 ,-0.04006 ,-0.39310 
374 ,70.2052 ,1.39602 ,-0.04691 ,-0.46025 
375 ,70.3814 ,1.39774 ,-0.05375 ,-0.52741 
376 ,70.5575 ,1.39952 ,-0.05033 ,-0.49383 
377 ,70.7497 ,1.40132 ,-0.07771 ,-0.76246 
378 ,70.9577 ,1.40332 ,-0.08455 ,-0.82961 
379 ,71.1497 ,1.40542 ,-0.10166 ,-0.99751 
380 ,71.3258 ,1.40721 ,-0.09824 ,-0.96393 
381 ,71.5175 ,1.40911 ,-0.09482 ,-0.93035 
382 ,71.6940 ,1.41084 ,-0.11877 ,-1.16540 
383 ,71.8859 ,1.41272 ,-0.12904 ,-1.26613 
384 ,72.0778 ,1.41473 ,-0.11193 ,-1.09824 
385 ,72.2542 ,1.41647 ,-0.14273 ,-1.40045 
386 ,72.4302 ,1.41832 ,-0.15642 ,-1.53476 
387 ,72.6061 ,1.41999 ,-0.18037 ,-1.76981 
388 ,72.8145 ,1.42193 ,-0.16668 ,-1.63549 
389 ,73.0063 ,1.42390 ,-0.17353 ,-1.70265 
390 ,73.1986 ,1.42584 ,-0.18722 ,-1.83696 
391 ,73.4065 ,1.42784 ,-0.19064 ,-1.87054 
392 ,73.5822 ,1.42976 ,-0.20090 ,-1.97128 
393 ,73.7587 ,1.43149 ,-0.21459 ,-2.10559 
394 ,73.9349 ,1.43326 ,-0.22828 ,-2.23990 
395 ,74.1269 ,1.43514 ,-0.25224 ,-2.47495 
396 ,74.3351 ,1.43716 ,-0.25566 ,-2.50853 
397 ,74.5270 ,1.43918 ,-0.26250 ,-2.57569 
398 ,74.7191 ,1.44107 ,-0.26250 ,-2.57569 
399 ,74.9112 ,1.44297 ,-0.27277 ,-2.67642 
400 ,75.1031 ,1.44492 ,-0.28988 ,-2.84431 
401 ,75.2954 ,1.44684 ,-0.28988 ,-2.84431 
402 ,75.4875 ,1.44877 ,-0.30357 ,-2.97863 
403 ,75.6636 ,1.45053 ,-0.32410 ,-3.18010 
404 ,75.8878 ,1.45264 ,-0.33095 ,-3.24725 
405 ,76.0956 ,1.45477 ,-0.33437 ,-3.28083 
406 ,76.2714 ,1.45668 ,-0.36517 ,-3.58303 
407 ,76.4799 ,1.45856 ,-0.35832 ,-3.51588 
408 ,76.6721 ,1.46065 ,-0.35148 ,-3.44872 
409 ,76.8639 ,1.46247 ,-0.37544 ,-3.68377 
410 ,77.0561 ,1.46439 ,-0.39255 ,-3.85166 
411 ,77.2321 ,1.46621 ,-0.38570 ,-3.78450 
412 ,77.4083 ,1.46799 ,-0.42335 ,-4.15387 
413 ,77.6004 ,1.46981 ,-0.40281 ,-3.95240 
414 ,77.7922 ,1.47180 ,-0.43361 ,-4.25460 
415 ,77.9843 ,1.47365 ,-0.42677 ,-4.18744 
416 ,78.1926 ,1.47573 ,-0.44388 ,-4.35534 
417 ,78.3849 ,1.47767 ,-0.46783 ,-4.59038 
418 ,78.5766 ,1.47968 ,-0.45414 ,-4.45607 
419 ,78.7528 ,1.48137 ,-0.47126 ,-4.62396 
420 ,78.9285 ,1.48321 ,-0.48494 ,-4.75828 
421 ,79.1049 ,1.48497 ,-0.48837 ,-4.79185 
422 ,79.2970 ,1.48685 ,-0.48152 ,-4.72470 
423 ,79.4728 ,1.48860 ,-0.50206 ,-4.92617 
424 ,79.6651 ,1.49044 ,-0.51574 ,-5.06048 
425 ,79.8573 ,1.49244 ,-0.52259 ,-5.12764 
426 ,80.0488 ,1.49433 ,-0.53628 ,-5.26195 
427 ,80.2254 ,1.49617 ,-0.53628 ,-5.26195 
428 ,80.4176 ,1.49806 ,-0.53970 ,-5.29553 
429 ,80.6412 ,1.50015 ,-0.54997 ,-5.39626 
430 ,80.8176 ,1.50207 ,-0.56023 ,-5.49700 
431 ,80.9936 ,1.50380 ,-0.57050 ,-5.59773 
432 ,81.1859 ,1.50571 ,-0.57734 ,-5.66489 
433 ,81.3937 ,1.50775 ,-0.60130 ,-5.89994 
434 ,81.6019 ,1.50982 ,-0.60814 ,-5.96709 
435 ,81.7781 ,1.51166 ,-0.61156 ,-6.00067 
436 ,81.9700 ,1.51363 ,-0.63552 ,-6.23572 
437 ,82.1777 ,1.51561 ,-0.62183 ,-6.10141 
438 ,82.3543 ,1.51746 ,-0.63210 ,-6.20214 
439 ,82.5623 ,1.51946 ,-0.65263 ,-6.40361 
440 ,82.7384 ,1.52125 ,-0.65605 ,-6.43719 
441 ,82.9464 ,1.52329 ,-0.68001 ,-6.67224 
442 ,83.1385 ,1.52522 ,-0.68001 ,-6.67224 
443 ,83.2983 ,1.52695 ,-0.68001 ,-6.67224 
444 ,83.4743 ,1.52864 ,-0.69027 ,-6.77297 
445 ,83.6505 ,1.53039 ,-0.69712 ,-6.84013 
446 ,83.8267 ,1.53217 ,-0.71423 ,-7.00802 
447 ,84.0027 ,1.53392 ,-0.74161 ,-7.27665 
448 ,84.1949 ,1.53581 ,-0.72792 ,-7.14233 
449 ,84.3705 ,1.53755 ,-0.72792 ,-7.14233 
450 ,84.5467 ,1.53932 ,-0.74161 ,-7.27665 
451 ,84.7229 ,1.54104 ,-0.77241 ,-7.57885 
452 ,84.8993 ,1.54287 ,-0.77241 ,-7.57885 
453 ,85.1069 ,1.54491 ,-0.77583 ,-7.61243 
454 ,85.3153 ,1.54688 ,-0.78952 ,-7.74674 
455 ,85.5230 ,1.54903 ,-0.79978 ,-7.84748 
456 ,85.6993 ,1.55088 ,-0.80663 ,-7.91464 
457 ,85.8755 ,1.55263 ,-0.81347 ,-7.98179 
458 ,86.0512 ,1.55434 ,-0.80663 ,-7.91464 
459 ,86.2593 ,1.55642 ,-0.83058 ,-8.14968 
460 ,86.4194 ,1.55820 ,-0.84769 ,-8.31758 
461 ,86.5956 ,1.55983 ,-0.84085 ,-8.25042 
462 ,86.7716 ,1.56161 ,-0.85112 ,-8.35115 
463 ,86.9476 ,1.56332 ,-0.84769 ,-8.31758 
