Data stamp = , 23-04-2022 15:10:38 005

Calibration Values: 
Slope = , 26.54 , g/V 
Offset Voltage at no contact = , -0.501760 , V 

No , Time , Stage Position ,   Mass , Force 
   ,  (s) ,      (mm)      ,   (g)  , (mN)  

1 ,0.0000 ,0.69939 ,5.31905 ,52.19052 
2 ,0.2004 ,0.69948 ,5.32932 ,52.29126 
3 ,0.5207 ,0.70031 ,5.30536 ,52.05621 
4 ,0.7449 ,0.70183 ,5.32589 ,52.25768 
5 ,0.9208 ,0.70343 ,5.31221 ,52.12337 
6 ,1.1130 ,0.70525 ,5.32589 ,52.25768 
7 ,1.2892 ,0.70703 ,5.32932 ,52.29126 
8 ,1.4652 ,0.70884 ,5.31905 ,52.19052 
9 ,1.6573 ,0.71063 ,5.31221 ,52.12337 
10 ,1.8652 ,0.71279 ,5.29510 ,51.95548 
11 ,2.0415 ,0.71458 ,5.30536 ,52.05621 
12 ,2.2496 ,0.71661 ,5.27456 ,51.75401 
13 ,2.4412 ,0.71855 ,5.24376 ,51.45180 
14 ,2.6172 ,0.72035 ,5.21981 ,51.21675 
15 ,2.7772 ,0.72207 ,5.19585 ,50.98170 
16 ,2.9539 ,0.72376 ,5.19585 ,50.98170 
17 ,3.1619 ,0.72575 ,5.16163 ,50.64592 
18 ,3.3380 ,0.72752 ,5.14452 ,50.47803 
19 ,3.5456 ,0.72952 ,5.11714 ,50.20940 
20 ,3.7222 ,0.73140 ,5.11030 ,50.14225 
21 ,3.9141 ,0.73319 ,5.10003 ,50.04151 
22 ,4.0742 ,0.73500 ,5.07950 ,49.84004 
23 ,4.2504 ,0.73668 ,5.05554 ,49.60499 
24 ,4.4585 ,0.73862 ,5.01790 ,49.23563 
25 ,4.6664 ,0.74073 ,5.03843 ,49.43710 
26 ,4.8425 ,0.74255 ,5.00421 ,49.10132 
27 ,5.0187 ,0.74434 ,4.98710 ,48.93343 
28 ,5.2268 ,0.74636 ,4.96999 ,48.76554 
29 ,5.4028 ,0.74819 ,4.95288 ,48.59764 
30 ,5.5789 ,0.74994 ,4.91866 ,48.26186 
31 ,5.7871 ,0.75191 ,4.90839 ,48.16113 
32 ,5.9950 ,0.75401 ,4.89812 ,48.06039 
33 ,6.1712 ,0.75590 ,4.86390 ,47.72461 
34 ,6.3470 ,0.75761 ,4.86048 ,47.69103 
35 ,6.5229 ,0.75939 ,4.83995 ,47.48956 
36 ,6.6992 ,0.76114 ,4.82284 ,47.32167 
37 ,6.8749 ,0.76286 ,4.78861 ,46.98589 
38 ,7.0511 ,0.76465 ,4.78519 ,46.95231 
39 ,7.2271 ,0.76640 ,4.78177 ,46.91873 
40 ,7.4032 ,0.76815 ,4.77150 ,46.81800 
41 ,7.5794 ,0.77000 ,4.73386 ,46.44863 
42 ,7.7557 ,0.77173 ,4.70990 ,46.21359 
43 ,7.9316 ,0.77351 ,4.71333 ,46.24716 
44 ,8.1238 ,0.77530 ,4.68937 ,46.01212 
45 ,8.3157 ,0.77734 ,4.65515 ,45.67633 
46 ,8.5080 ,0.77918 ,4.66199 ,45.74349 
47 ,8.6841 ,0.78103 ,4.64488 ,45.57560 
48 ,8.8760 ,0.78284 ,4.61066 ,45.23981 
49 ,9.0682 ,0.78482 ,4.60724 ,45.20624 
50 ,9.2602 ,0.78677 ,4.58328 ,44.97119 
51 ,9.4523 ,0.78867 ,4.56275 ,44.76972 
52 ,9.6280 ,0.79040 ,4.56617 ,44.80330 
53 ,9.8045 ,0.79221 ,4.53880 ,44.53467 
54 ,9.9802 ,0.79393 ,4.51142 ,44.26604 
55 ,10.1568 ,0.79572 ,4.49431 ,44.09815 
56 ,10.3645 ,0.79775 ,4.48062 ,43.96384 
57 ,10.5406 ,0.79956 ,4.45666 ,43.72879 
58 ,10.7487 ,0.80160 ,4.46009 ,43.76237 
59 ,10.9409 ,0.80359 ,4.41560 ,43.32585 
60 ,11.1329 ,0.80542 ,4.39507 ,43.12438 
61 ,11.3091 ,0.80721 ,4.39849 ,43.15796 
62 ,11.4851 ,0.80902 ,4.39164 ,43.09080 
63 ,11.6612 ,0.81071 ,4.36084 ,42.78860 
64 ,11.8373 ,0.81251 ,4.32662 ,42.45282 
65 ,12.0294 ,0.81444 ,4.33004 ,42.48639 
66 ,12.2055 ,0.81620 ,4.30609 ,42.25135 
67 ,12.3977 ,0.81816 ,4.27871 ,41.98272 
68 ,12.5735 ,0.81986 ,4.25476 ,41.74767 
69 ,12.7657 ,0.82170 ,4.24449 ,41.64694 
70 ,12.9578 ,0.82368 ,4.22738 ,41.47905 
71 ,13.1498 ,0.82565 ,4.21711 ,41.37831 
72 ,13.3418 ,0.82745 ,4.18289 ,41.04253 
73 ,13.5335 ,0.82955 ,4.18631 ,41.07611 
74 ,13.7257 ,0.83142 ,4.17262 ,40.94179 
75 ,13.9177 ,0.83327 ,4.13498 ,40.57243 
76 ,14.1098 ,0.83522 ,4.13498 ,40.57243 
77 ,14.3018 ,0.83706 ,4.09734 ,40.20307 
78 ,14.4620 ,0.83888 ,4.08365 ,40.06876 
79 ,14.6538 ,0.84059 ,4.07680 ,40.00160 
80 ,14.8303 ,0.84247 ,4.06996 ,39.93444 
81 ,15.0227 ,0.84433 ,4.04600 ,39.69940 
82 ,15.2146 ,0.84630 ,4.01863 ,39.43077 
83 ,15.3902 ,0.84801 ,4.01520 ,39.39719 
84 ,15.5668 ,0.84974 ,3.99809 ,39.22930 
85 ,15.7587 ,0.85171 ,3.96729 ,38.92709 
86 ,15.9345 ,0.85349 ,3.95018 ,38.75920 
87 ,16.1109 ,0.85524 ,3.93992 ,38.65847 
88 ,16.3028 ,0.85707 ,3.92623 ,38.52415 
89 ,16.4951 ,0.85910 ,3.89543 ,38.22195 
90 ,16.7191 ,0.86123 ,3.86805 ,37.95332 
91 ,16.8951 ,0.86309 ,3.86463 ,37.91975 
92 ,17.0711 ,0.86483 ,3.86121 ,37.88617 
93 ,17.2472 ,0.86658 ,3.84752 ,37.75185 
94 ,17.4553 ,0.86860 ,3.81672 ,37.44965 
95 ,17.6473 ,0.87055 ,3.81330 ,37.41607 
96 ,17.8395 ,0.87248 ,3.77565 ,37.04671 
97 ,18.0476 ,0.87445 ,3.76881 ,36.97955 
98 ,18.2398 ,0.87647 ,3.73801 ,36.67735 
99 ,18.4318 ,0.87840 ,3.73459 ,36.64377 
100 ,18.6399 ,0.88045 ,3.71405 ,36.44230 
101 ,18.8159 ,0.88223 ,3.68668 ,36.17367 
102 ,19.0241 ,0.88424 ,3.66957 ,36.00578 
103 ,19.2160 ,0.88624 ,3.64903 ,35.80431 
104 ,19.4082 ,0.88810 ,3.64561 ,35.77073 
105 ,19.6002 ,0.89004 ,3.61481 ,35.46853 
106 ,19.7925 ,0.89195 ,3.59086 ,35.23348 
107 ,20.0001 ,0.89405 ,3.57375 ,35.06559 
108 ,20.1766 ,0.89581 ,3.55663 ,34.89770 
109 ,20.3845 ,0.89794 ,3.54979 ,34.83054 
110 ,20.5767 ,0.89990 ,3.51557 ,34.49476 
111 ,20.7683 ,0.90170 ,3.52584 ,34.59549 
112 ,20.9448 ,0.90354 ,3.50188 ,34.36045 
113 ,21.1367 ,0.90545 ,3.48135 ,34.15898 
114 ,21.3130 ,0.90726 ,3.46081 ,33.95751 
115 ,21.5050 ,0.90912 ,3.45397 ,33.89035 
116 ,21.7129 ,0.91118 ,3.43686 ,33.72246 
117 ,21.9047 ,0.91312 ,3.41975 ,33.55457 
118 ,22.0809 ,0.91489 ,3.40606 ,33.42025 
119 ,22.2408 ,0.91661 ,3.37526 ,33.11805 
120 ,22.4170 ,0.91825 ,3.35815 ,32.95016 
121 ,22.5931 ,0.92001 ,3.34104 ,32.78227 
122 ,22.8014 ,0.92204 ,3.32735 ,32.64795 
123 ,22.9934 ,0.92394 ,3.30339 ,32.41290 
124 ,23.1696 ,0.92578 ,3.29313 ,32.31217 
125 ,23.3457 ,0.92753 ,3.29313 ,32.31217 
126 ,23.5379 ,0.92940 ,3.24864 ,31.87565 
127 ,23.7299 ,0.93141 ,3.23495 ,31.74134 
128 ,23.9219 ,0.93329 ,3.23837 ,31.77492 
129 ,24.1138 ,0.93514 ,3.20073 ,31.40555 
130 ,24.3061 ,0.93715 ,3.19731 ,31.37198 
131 ,24.4983 ,0.93905 ,3.16651 ,31.06977 
132 ,24.6903 ,0.94097 ,3.15624 ,30.96904 
133 ,24.8663 ,0.94275 ,3.14255 ,30.83472 
134 ,25.0421 ,0.94447 ,3.13229 ,30.73399 
135 ,25.2344 ,0.94638 ,3.09464 ,30.36463 
136 ,25.4104 ,0.94818 ,3.08780 ,30.29747 
137 ,25.6026 ,0.95009 ,3.08438 ,30.26389 
138 ,25.7787 ,0.95189 ,3.07069 ,30.12958 
139 ,25.9868 ,0.95391 ,3.06042 ,30.02884 
140 ,26.1629 ,0.95570 ,3.03989 ,29.82737 
141 ,26.3389 ,0.95745 ,3.00909 ,29.52517 
142 ,26.5150 ,0.95919 ,2.98855 ,29.32370 
143 ,26.6911 ,0.96097 ,2.98855 ,29.32370 
144 ,26.8671 ,0.96277 ,2.97144 ,29.15581 
145 ,27.0591 ,0.96465 ,2.94749 ,28.92076 
146 ,27.2353 ,0.96642 ,2.92353 ,28.68571 
147 ,27.4114 ,0.96820 ,2.91669 ,28.61856 
148 ,27.5875 ,0.96997 ,2.90642 ,28.51782 
149 ,27.7634 ,0.97167 ,2.89958 ,28.45066 
150 ,27.9556 ,0.97360 ,2.86878 ,28.14846 
151 ,28.1476 ,0.97557 ,2.86193 ,28.08130 
152 ,28.3235 ,0.97729 ,2.84825 ,27.94699 
153 ,28.5318 ,0.97932 ,2.82087 ,27.67836 
154 ,28.7078 ,0.98117 ,2.81402 ,27.61121 
155 ,28.8999 ,0.98305 ,2.79349 ,27.40974 
156 ,29.0760 ,0.98487 ,2.76269 ,27.10753 
157 ,29.2521 ,0.98661 ,2.76269 ,27.10753 
158 ,29.4602 ,0.98865 ,2.75243 ,27.00680 
159 ,29.6521 ,0.99067 ,2.74216 ,26.90606 
160 ,29.8283 ,0.99236 ,2.71478 ,26.63744 
161 ,30.0362 ,0.99427 ,2.69425 ,26.43597 
162 ,30.2444 ,0.99647 ,2.69767 ,26.46954 
163 ,30.4204 ,0.99837 ,2.65660 ,26.06661 
164 ,30.5968 ,0.99999 ,2.64292 ,25.93229 
165 ,30.7888 ,1.00191 ,2.64976 ,25.99945 
166 ,30.9808 ,1.00383 ,2.63265 ,25.83156 
167 ,31.1729 ,1.00573 ,2.61212 ,25.63009 
168 ,31.3648 ,1.00762 ,2.59843 ,25.49577 
169 ,31.5405 ,1.00943 ,2.58816 ,25.39504 
170 ,31.7492 ,1.01151 ,2.56763 ,25.19357 
171 ,31.9411 ,1.01345 ,2.55052 ,25.02568 
172 ,32.1493 ,1.01541 ,2.54025 ,24.92494 
173 ,32.3571 ,1.01746 ,2.50945 ,24.62274 
174 ,32.5494 ,1.01949 ,2.49918 ,24.52200 
175 ,32.7252 ,1.02132 ,2.48550 ,24.38769 
176 ,32.9175 ,1.02325 ,2.46839 ,24.21980 
177 ,33.0938 ,1.02495 ,2.44785 ,24.01833 
178 ,33.2857 ,1.02691 ,2.43416 ,23.88402 
179 ,33.4615 ,1.02868 ,2.42390 ,23.78328 
180 ,33.6375 ,1.03042 ,2.41021 ,23.64897 
181 ,33.8139 ,1.03218 ,2.38625 ,23.41392 
182 ,34.0060 ,1.03412 ,2.37256 ,23.27961 
183 ,34.1984 ,1.03599 ,2.36572 ,23.21245 
184 ,34.4062 ,1.03798 ,2.33492 ,22.91024 
185 ,34.5982 ,1.04001 ,2.34861 ,23.04456 
186 ,34.7582 ,1.04174 ,2.31781 ,22.74235 
187 ,34.9504 ,1.04349 ,2.29728 ,22.54088 
188 ,35.1266 ,1.04530 ,2.28701 ,22.44015 
189 ,35.3346 ,1.04740 ,2.26648 ,22.23868 
190 ,35.5266 ,1.04927 ,2.25279 ,22.10437 
191 ,35.7185 ,1.05123 ,2.26306 ,22.20510 
192 ,35.9109 ,1.05313 ,2.21515 ,21.73500 
193 ,36.1026 ,1.05512 ,2.21515 ,21.73500 
194 ,36.2949 ,1.05696 ,2.20146 ,21.60069 
195 ,36.4709 ,1.05874 ,2.16723 ,21.26491 
196 ,36.6629 ,1.06061 ,2.17408 ,21.33206 
197 ,36.8388 ,1.06243 ,2.16381 ,21.23133 
198 ,37.0311 ,1.06435 ,2.12617 ,20.86197 
199 ,37.2073 ,1.06617 ,2.11590 ,20.76123 
200 ,37.3996 ,1.06797 ,2.11248 ,20.72766 
201 ,37.5915 ,1.06989 ,2.08510 ,20.45903 
202 ,37.7836 ,1.07177 ,2.07484 ,20.35829 
203 ,37.9591 ,1.07368 ,2.07141 ,20.32472 
204 ,38.1356 ,1.07537 ,2.05430 ,20.15682 
205 ,38.3279 ,1.07724 ,2.03719 ,19.98893 
206 ,38.5197 ,1.07916 ,2.03377 ,19.95535 
207 ,38.7119 ,1.08117 ,2.01324 ,19.75388 
208 ,38.8880 ,1.08291 ,1.98928 ,19.51884 
209 ,39.0639 ,1.08477 ,1.99613 ,19.58599 
210 ,39.2401 ,1.08645 ,1.96875 ,19.31737 
211 ,39.4162 ,1.08820 ,1.96533 ,19.28379 
212 ,39.6082 ,1.09002 ,1.92768 ,18.91443 
213 ,39.7844 ,1.09184 ,1.91742 ,18.81369 
214 ,39.9605 ,1.09365 ,1.91742 ,18.81369 
215 ,40.1526 ,1.09550 ,1.90031 ,18.64580 
216 ,40.3445 ,1.09747 ,1.88662 ,18.51149 
217 ,40.5367 ,1.09941 ,1.87293 ,18.37717 
218 ,40.7447 ,1.10140 ,1.84213 ,18.07497 
219 ,40.9369 ,1.10340 ,1.85582 ,18.20928 
220 ,41.1286 ,1.10524 ,1.81817 ,17.83992 
221 ,41.3211 ,1.10720 ,1.82160 ,17.87350 
222 ,41.5132 ,1.10914 ,1.78395 ,17.50414 
223 ,41.6888 ,1.11093 ,1.76000 ,17.26909 
224 ,41.8652 ,1.11270 ,1.76342 ,17.30267 
225 ,42.0570 ,1.11461 ,1.76000 ,17.26909 
226 ,42.2494 ,1.11649 ,1.74973 ,17.16836 
227 ,42.4255 ,1.11830 ,1.71893 ,16.86615 
228 ,42.6177 ,1.12015 ,1.72920 ,16.96689 
229 ,42.8098 ,1.12211 ,1.69155 ,16.59752 
230 ,43.0018 ,1.12410 ,1.67786 ,16.46321 
231 ,43.1937 ,1.12586 ,1.68471 ,16.53037 
232 ,43.3698 ,1.12778 ,1.65733 ,16.26174 
233 ,43.5619 ,1.12958 ,1.66075 ,16.29532 
234 ,43.7700 ,1.13172 ,1.62995 ,15.99311 
235 ,43.9782 ,1.13367 ,1.61627 ,15.85880 
236 ,44.1703 ,1.13567 ,1.59231 ,15.62375 
237 ,44.3459 ,1.13752 ,1.60258 ,15.72449 
238 ,44.5224 ,1.13923 ,1.57178 ,15.42228 
239 ,44.7303 ,1.14131 ,1.54782 ,15.18724 
240 ,44.9064 ,1.14307 ,1.53756 ,15.08650 
241 ,45.0986 ,1.14494 ,1.54782 ,15.18724 
242 ,45.2908 ,1.14689 ,1.52729 ,14.98577 
243 ,45.4825 ,1.14885 ,1.51018 ,14.81787 
244 ,45.6748 ,1.15077 ,1.49307 ,14.64998 
245 ,45.8665 ,1.15255 ,1.46569 ,14.38136 
246 ,46.0749 ,1.15469 ,1.46227 ,14.34778 
247 ,46.2669 ,1.15657 ,1.45200 ,14.24704 
248 ,46.4587 ,1.15861 ,1.44858 ,14.21346 
249 ,46.7629 ,1.16106 ,1.45542 ,14.28062 
250 ,46.9553 ,1.16344 ,1.40751 ,13.81053 
251 ,47.1474 ,1.16549 ,1.38014 ,13.54190 
252 ,47.3231 ,1.16721 ,1.38014 ,13.54190 
253 ,47.5155 ,1.16918 ,1.38356 ,13.57548 
254 ,47.7077 ,1.17097 ,1.35618 ,13.30685 
255 ,47.9000 ,1.17300 ,1.34934 ,13.23969 
256 ,48.1079 ,1.17489 ,1.31512 ,12.90391 
257 ,48.2998 ,1.17692 ,1.31854 ,12.93749 
258 ,48.4760 ,1.17877 ,1.31169 ,12.87033 
259 ,48.6678 ,1.18077 ,1.29116 ,12.66886 
260 ,48.8438 ,1.18240 ,1.27063 ,12.46739 
261 ,49.0361 ,1.18435 ,1.27063 ,12.46739 
262 ,49.2122 ,1.18606 ,1.23641 ,12.13161 
263 ,49.3882 ,1.18788 ,1.22614 ,12.03088 
264 ,49.5644 ,1.18957 ,1.22272 ,11.99730 
265 ,49.7400 ,1.19138 ,1.22614 ,12.03088 
266 ,49.9166 ,1.19314 ,1.20218 ,11.79583 
267 ,50.0926 ,1.19490 ,1.18507 ,11.62794 
268 ,50.2688 ,1.19665 ,1.16454 ,11.42647 
269 ,50.4608 ,1.19862 ,1.17138 ,11.49362 
270 ,50.6527 ,1.20053 ,1.14401 ,11.22500 
271 ,50.8610 ,1.20250 ,1.13716 ,11.15784 
272 ,51.0528 ,1.20450 ,1.12690 ,11.05710 
273 ,51.2450 ,1.20635 ,1.10294 ,10.82206 
274 ,51.4212 ,1.20818 ,1.09952 ,10.78848 
275 ,51.5974 ,1.20996 ,1.09267 ,10.72132 
276 ,51.7894 ,1.21174 ,1.06872 ,10.48627 
277 ,51.9815 ,1.21385 ,1.05845 ,10.38554 
278 ,52.1736 ,1.21565 ,1.02765 ,10.08333 
279 ,52.3497 ,1.21748 ,1.02423 ,10.04976 
280 ,52.5575 ,1.21949 ,1.02423 ,10.04976 
281 ,52.7498 ,1.22146 ,1.00370 ,9.84829 
282 ,52.9415 ,1.22336 ,0.98659 ,9.68039 
283 ,53.1181 ,1.22515 ,0.98317 ,9.64682 
284 ,53.3101 ,1.22707 ,0.96263 ,9.44535 
285 ,53.5022 ,1.22895 ,0.95921 ,9.41177 
286 ,53.7101 ,1.23104 ,0.93525 ,9.17672 
287 ,53.8863 ,1.23284 ,0.91472 ,8.97525 
288 ,54.0783 ,1.23470 ,0.92157 ,9.04241 
289 ,54.2703 ,1.23662 ,0.89761 ,8.80736 
290 ,54.4466 ,1.23844 ,0.89077 ,8.74020 
291 ,54.6383 ,1.24032 ,0.88734 ,8.70662 
292 ,54.8466 ,1.24238 ,0.85654 ,8.40442 
293 ,55.0227 ,1.24423 ,0.87366 ,8.57231 
294 ,55.2308 ,1.24625 ,0.83943 ,8.23653 
295 ,55.4225 ,1.24816 ,0.84286 ,8.27011 
296 ,55.5986 ,1.24994 ,0.83259 ,8.16937 
297 ,55.7749 ,1.25172 ,0.81890 ,8.03506 
298 ,55.9510 ,1.25347 ,0.78810 ,7.73285 
299 ,56.1267 ,1.25526 ,0.78468 ,7.69927 
300 ,56.3192 ,1.25704 ,0.76757 ,7.53138 
301 ,56.5112 ,1.25914 ,0.77099 ,7.56496 
302 ,56.6873 ,1.26084 ,0.74361 ,7.29633 
303 ,56.8632 ,1.26271 ,0.74704 ,7.32991 
304 ,57.0553 ,1.26442 ,0.72992 ,7.16202 
305 ,57.2472 ,1.26632 ,0.71281 ,6.99413 
306 ,57.4394 ,1.26828 ,0.70597 ,6.92697 
307 ,57.6157 ,1.27011 ,0.70597 ,6.92697 
308 ,57.7917 ,1.27191 ,0.66833 ,6.55761 
309 ,57.9678 ,1.27363 ,0.66490 ,6.52403 
310 ,58.1437 ,1.27538 ,0.63753 ,6.25541 
311 ,58.3196 ,1.27715 ,0.65121 ,6.38972 
312 ,58.5120 ,1.27899 ,0.63753 ,6.25541 
313 ,58.7039 ,1.28099 ,0.61699 ,6.05394 
314 ,58.8963 ,1.28297 ,0.61357 ,6.02036 
315 ,59.0722 ,1.28470 ,0.58962 ,5.78531 
316 ,59.2643 ,1.28653 ,0.58277 ,5.71815 
317 ,59.4563 ,1.28845 ,0.57251 ,5.61742 
318 ,59.6643 ,1.29055 ,0.55197 ,5.41595 
319 ,59.8565 ,1.29255 ,0.56566 ,5.55026 
320 ,60.0326 ,1.29425 ,0.54171 ,5.31522 
321 ,60.2087 ,1.29603 ,0.52459 ,5.14732 
322 ,60.3847 ,1.29776 ,0.50748 ,4.97943 
323 ,60.5607 ,1.29953 ,0.50064 ,4.91228 
324 ,60.7848 ,1.30163 ,0.50406 ,4.94585 
325 ,60.9610 ,1.30355 ,0.48011 ,4.71081 
326 ,61.1531 ,1.30536 ,0.46300 ,4.54291 
327 ,61.3451 ,1.30734 ,0.46642 ,4.57649 
328 ,61.5369 ,1.30934 ,0.45957 ,4.50934 
329 ,61.7133 ,1.31106 ,0.43904 ,4.30787 
330 ,61.9054 ,1.31300 ,0.42193 ,4.13997 
331 ,62.0975 ,1.31490 ,0.43220 ,4.24071 
332 ,62.2735 ,1.31668 ,0.40824 ,4.00566 
333 ,62.4495 ,1.31840 ,0.38429 ,3.77061 
334 ,62.6255 ,1.32024 ,0.36718 ,3.60272 
335 ,62.8174 ,1.32213 ,0.38429 ,3.77061 
336 ,63.0094 ,1.32399 ,0.35691 ,3.50199 
337 ,63.1854 ,1.32579 ,0.35349 ,3.46841 
338 ,63.3616 ,1.32756 ,0.34664 ,3.40125 
339 ,63.5861 ,1.32967 ,0.31242 ,3.06547 
340 ,63.7781 ,1.33171 ,0.32611 ,3.19978 
341 ,63.9542 ,1.33347 ,0.30558 ,2.99831 
342 ,64.1303 ,1.33528 ,0.29189 ,2.86400 
343 ,64.3064 ,1.33696 ,0.28162 ,2.76326 
344 ,64.4986 ,1.33881 ,0.28162 ,2.76326 
345 ,64.7065 ,1.34082 ,0.24740 ,2.42748 
346 ,64.8826 ,1.34279 ,0.25767 ,2.52822 
347 ,65.0746 ,1.34461 ,0.24055 ,2.36032 
348 ,65.2668 ,1.34658 ,0.22344 ,2.19243 
349 ,65.4588 ,1.34847 ,0.22687 ,2.22601 
350 ,65.6350 ,1.35027 ,0.22002 ,2.15885 
351 ,65.8427 ,1.35231 ,0.21318 ,2.09170 
352 ,66.0192 ,1.35413 ,0.20291 ,1.99096 
353 ,66.2273 ,1.35617 ,0.17896 ,1.75592 
354 ,66.4192 ,1.35809 ,0.17896 ,1.75592 
355 ,66.5955 ,1.35990 ,0.16869 ,1.65518 
356 ,66.7714 ,1.36169 ,0.13789 ,1.35298 
357 ,66.9472 ,1.36341 ,0.12762 ,1.25224 
358 ,67.1396 ,1.36523 ,0.14816 ,1.45371 
359 ,67.3477 ,1.36738 ,0.12420 ,1.21866 
360 ,67.5237 ,1.36917 ,0.11736 ,1.15151 
361 ,67.7158 ,1.37101 ,0.11051 ,1.08435 
362 ,67.9079 ,1.37292 ,0.08998 ,0.88288 
363 ,68.0839 ,1.37477 ,0.07971 ,0.78214 
364 ,68.2760 ,1.37665 ,0.07629 ,0.74857 
365 ,68.4522 ,1.37843 ,0.04207 ,0.41278 
366 ,68.6439 ,1.38031 ,0.06260 ,0.61425 
367 ,68.8202 ,1.38208 ,0.04549 ,0.44636 
368 ,68.9964 ,1.38388 ,0.04207 ,0.41278 
369 ,69.1884 ,1.38583 ,0.01127 ,0.11058 
370 ,69.3805 ,1.38770 ,0.01469 ,0.14416 
371 ,69.5886 ,1.38966 ,-0.01611 ,-0.15805 
372 ,69.7807 ,1.39165 ,-0.00926 ,-0.09089 
373 ,69.9726 ,1.39360 ,-0.03322 ,-0.32594 
374 ,70.1644 ,1.39552 ,-0.02980 ,-0.29236 
375 ,70.3409 ,1.39730 ,-0.02980 ,-0.29236 
376 ,70.5330 ,1.39918 ,-0.06060 ,-0.59457 
377 ,70.7090 ,1.40103 ,-0.06060 ,-0.59457 
378 ,70.9011 ,1.40287 ,-0.06744 ,-0.66172 
379 ,71.0773 ,1.40468 ,-0.08113 ,-0.79604 
380 ,71.2691 ,1.40651 ,-0.10508 ,-1.03108 
381 ,71.4610 ,1.40848 ,-0.09140 ,-0.89677 
382 ,71.6534 ,1.41048 ,-0.10851 ,-1.06466 
383 ,71.8453 ,1.41226 ,-0.12562 ,-1.23255 
384 ,72.0214 ,1.41412 ,-0.13246 ,-1.29971 
385 ,72.2135 ,1.41600 ,-0.14273 ,-1.40045 
386 ,72.3898 ,1.41784 ,-0.14957 ,-1.46760 
387 ,72.5818 ,1.41967 ,-0.15299 ,-1.50118 
388 ,72.7739 ,1.42161 ,-0.17011 ,-1.66907 
389 ,72.9659 ,1.42352 ,-0.18722 ,-1.83696 
390 ,73.1582 ,1.42549 ,-0.18722 ,-1.83696 
391 ,73.3496 ,1.42744 ,-0.19406 ,-1.90412 
392 ,73.5263 ,1.42921 ,-0.22144 ,-2.17275 
393 ,73.7342 ,1.43120 ,-0.20090 ,-1.97128 
394 ,73.9263 ,1.43311 ,-0.23170 ,-2.27348 
395 ,74.1024 ,1.43486 ,-0.24197 ,-2.37422 
396 ,74.2785 ,1.43664 ,-0.24881 ,-2.44137 
397 ,74.4703 ,1.43852 ,-0.26250 ,-2.57569 
398 ,74.6466 ,1.44030 ,-0.27961 ,-2.74358 
399 ,74.8225 ,1.44214 ,-0.26250 ,-2.57569 
400 ,75.0146 ,1.44394 ,-0.26935 ,-2.64284 
401 ,75.1907 ,1.44582 ,-0.30699 ,-3.01220 
402 ,75.3669 ,1.44751 ,-0.31726 ,-3.11294 
403 ,75.5428 ,1.44929 ,-0.30015 ,-2.94505 
404 ,75.7191 ,1.45106 ,-0.31041 ,-3.04578 
405 ,75.8952 ,1.45283 ,-0.32752 ,-3.21367 
406 ,76.0711 ,1.45458 ,-0.34121 ,-3.34799 
407 ,76.2632 ,1.45649 ,-0.33095 ,-3.24725 
408 ,76.4393 ,1.45837 ,-0.36175 ,-3.54946 
409 ,76.5994 ,1.46000 ,-0.37201 ,-3.65019 
410 ,76.7755 ,1.46159 ,-0.35832 ,-3.51588 
411 ,76.9516 ,1.46343 ,-0.38228 ,-3.75093 
412 ,77.1596 ,1.46543 ,-0.38570 ,-3.78450 
413 ,77.3357 ,1.46722 ,-0.40623 ,-3.98597 
414 ,77.5598 ,1.46933 ,-0.40623 ,-3.98597 
415 ,77.7679 ,1.47158 ,-0.43019 ,-4.22102 
416 ,77.9439 ,1.47328 ,-0.41992 ,-4.12029 
417 ,78.1361 ,1.47525 ,-0.43361 ,-4.25460 
418 ,78.3281 ,1.47707 ,-0.45072 ,-4.42249 
419 ,78.5523 ,1.47927 ,-0.47468 ,-4.65754 
420 ,78.7439 ,1.48123 ,-0.45757 ,-4.48965 
421 ,78.9205 ,1.48309 ,-0.47126 ,-4.62396 
422 ,79.0968 ,1.48489 ,-0.49521 ,-4.85901 
423 ,79.3206 ,1.48694 ,-0.49521 ,-4.85901 
424 ,79.5126 ,1.48898 ,-0.50548 ,-4.95975 
425 ,79.6885 ,1.49077 ,-0.52601 ,-5.16121 
426 ,79.8645 ,1.49248 ,-0.51917 ,-5.09406 
427 ,80.0727 ,1.49452 ,-0.55339 ,-5.42984 
428 ,80.2490 ,1.49634 ,-0.55339 ,-5.42984 
429 ,80.4570 ,1.49837 ,-0.56023 ,-5.49700 
430 ,80.6330 ,1.50025 ,-0.56365 ,-5.53058 
431 ,80.8087 ,1.50194 ,-0.58077 ,-5.69847 
432 ,80.9850 ,1.50375 ,-0.57050 ,-5.59773 
433 ,81.1773 ,1.50564 ,-0.57392 ,-5.63131 
434 ,81.3691 ,1.50745 ,-0.60472 ,-5.93352 
435 ,81.5615 ,1.50949 ,-0.58419 ,-5.73205 
436 ,81.7693 ,1.51137 ,-0.61499 ,-6.03425 
437 ,81.9612 ,1.51344 ,-0.62525 ,-6.13499 
438 ,82.1692 ,1.51551 ,-0.63552 ,-6.23572 
439 ,82.3455 ,1.51734 ,-0.64236 ,-6.30288 
440 ,82.5377 ,1.51927 ,-0.64236 ,-6.30288 
441 ,82.7299 ,1.52115 ,-0.66632 ,-6.53793 
442 ,82.9058 ,1.52290 ,-0.66974 ,-6.57150 
443 ,83.0981 ,1.52476 ,-0.67316 ,-6.60508 
444 ,83.2740 ,1.52660 ,-0.69712 ,-6.84013 
445 ,83.4662 ,1.52845 ,-0.68343 ,-6.70582 
446 ,83.6423 ,1.53035 ,-0.70396 ,-6.90729 
447 ,83.8185 ,1.53205 ,-0.70054 ,-6.87371 
448 ,84.0105 ,1.53395 ,-0.71765 ,-7.04160 
449 ,84.1866 ,1.53571 ,-0.73134 ,-7.17591 
450 ,84.3624 ,1.53749 ,-0.72792 ,-7.14233 
451 ,84.5547 ,1.53931 ,-0.74845 ,-7.34380 
452 ,84.7468 ,1.54125 ,-0.76556 ,-7.51170 
453 ,84.9548 ,1.54330 ,-0.77925 ,-7.64601 
454 ,85.1466 ,1.54518 ,-0.77241 ,-7.57885 
455 ,85.3391 ,1.54720 ,-0.78267 ,-7.67959 
456 ,85.5311 ,1.54909 ,-0.79978 ,-7.84748 
457 ,85.7069 ,1.55091 ,-0.81005 ,-7.94821 
458 ,85.8833 ,1.55265 ,-0.80663 ,-7.91464 
459 ,86.0752 ,1.55456 ,-0.81005 ,-7.94821 
460 ,86.2509 ,1.55633 ,-0.82716 ,-8.11611 
461 ,86.4433 ,1.55819 ,-0.83058 ,-8.14968 
462 ,86.6517 ,1.56031 ,-0.84085 ,-8.25042 
463 ,86.8436 ,1.56221 ,-0.85112 ,-8.35115 
