Data stamp = , 23-04-2022 15:17:09 023

Calibration Values: 
Slope = , 26.54 , g/V 
Offset Voltage at no contact = , -0.501760 , V 

No , Time , Stage Position ,   Mass , Force 
   ,  (s) ,      (mm)      ,   (g)  , (mN)  

1 ,0.0000 ,0.69939 ,5.28141 ,51.82116 
2 ,0.2820 ,0.69960 ,5.26430 ,51.65327 
3 ,0.5225 ,0.70043 ,5.28483 ,51.85474 
4 ,0.7305 ,0.70173 ,5.28825 ,51.88832 
5 ,0.9229 ,0.70340 ,5.28483 ,51.85474 
6 ,1.1148 ,0.70538 ,5.27456 ,51.75401 
7 ,1.2910 ,0.70706 ,5.27798 ,51.78758 
8 ,1.4992 ,0.70901 ,5.28483 ,51.85474 
9 ,1.7069 ,0.71116 ,5.26430 ,51.65327 
10 ,1.8833 ,0.71298 ,5.26772 ,51.68685 
11 ,2.0912 ,0.71502 ,5.25403 ,51.55254 
12 ,2.2834 ,0.71697 ,5.25745 ,51.58611 
13 ,2.4593 ,0.71878 ,5.24034 ,51.41822 
14 ,2.6674 ,0.72081 ,5.20612 ,51.08244 
15 ,2.8594 ,0.72273 ,5.19927 ,51.01528 
16 ,3.0517 ,0.72468 ,5.17532 ,50.78023 
17 ,3.2436 ,0.72659 ,5.15136 ,50.54519 
18 ,3.4195 ,0.72833 ,5.14794 ,50.51161 
19 ,3.5958 ,0.73013 ,5.12741 ,50.31014 
20 ,3.7876 ,0.73204 ,5.09319 ,49.97436 
21 ,3.9640 ,0.73381 ,5.07950 ,49.84004 
22 ,4.1561 ,0.73580 ,5.06923 ,49.73931 
23 ,4.3322 ,0.73748 ,5.04185 ,49.47068 
24 ,4.5083 ,0.73923 ,5.01790 ,49.23563 
25 ,4.7163 ,0.74130 ,4.99737 ,49.03416 
26 ,4.8922 ,0.74308 ,4.99052 ,48.96701 
27 ,5.0686 ,0.74483 ,4.96315 ,48.69838 
28 ,5.2606 ,0.74666 ,4.97341 ,48.79911 
29 ,5.4527 ,0.74860 ,4.94261 ,48.49691 
30 ,5.6608 ,0.75071 ,4.92208 ,48.29544 
31 ,5.8686 ,0.75267 ,4.88786 ,47.95966 
32 ,6.0609 ,0.75474 ,4.88444 ,47.92608 
33 ,6.2849 ,0.75687 ,4.86048 ,47.69103 
34 ,6.4611 ,0.75877 ,4.84337 ,47.52314 
35 ,6.6369 ,0.76058 ,4.81599 ,47.25451 
36 ,6.8133 ,0.76230 ,4.80230 ,47.12020 
37 ,7.0050 ,0.76412 ,4.78519 ,46.95231 
38 ,7.1814 ,0.76599 ,4.77493 ,46.85157 
39 ,7.3895 ,0.76800 ,4.73728 ,46.48221 
40 ,7.5656 ,0.76978 ,4.72702 ,46.38148 
41 ,7.7737 ,0.77186 ,4.71333 ,46.24716 
42 ,7.9818 ,0.77379 ,4.69279 ,46.04569 
43 ,8.1738 ,0.77589 ,4.68595 ,45.97854 
44 ,8.3658 ,0.77777 ,4.65173 ,45.64275 
45 ,8.5420 ,0.77959 ,4.63804 ,45.50844 
46 ,8.7341 ,0.78150 ,4.62093 ,45.34055 
47 ,8.9262 ,0.78339 ,4.60040 ,45.13908 
48 ,9.1180 ,0.78530 ,4.59697 ,45.10550 
49 ,9.2944 ,0.78715 ,4.55933 ,44.73614 
50 ,9.4862 ,0.78895 ,4.53880 ,44.53467 
51 ,9.6785 ,0.79083 ,4.55591 ,44.70256 
52 ,9.8865 ,0.79297 ,4.50800 ,44.23247 
53 ,10.0627 ,0.79476 ,4.49431 ,44.09815 
54 ,10.2543 ,0.79667 ,4.47720 ,43.93026 
55 ,10.4466 ,0.79854 ,4.46351 ,43.79595 
56 ,10.6228 ,0.80036 ,4.44640 ,43.62806 
57 ,10.7988 ,0.80211 ,4.43613 ,43.52732 
58 ,10.9750 ,0.80390 ,4.42244 ,43.39301 
59 ,11.1670 ,0.80575 ,4.38138 ,42.99007 
60 ,11.3426 ,0.80763 ,4.39507 ,43.12438 
61 ,11.5193 ,0.80928 ,4.38138 ,42.99007 
62 ,11.7271 ,0.81133 ,4.34716 ,42.65429 
63 ,11.9033 ,0.81316 ,4.31978 ,42.38566 
64 ,12.0793 ,0.81496 ,4.29924 ,42.18419 
65 ,12.2552 ,0.81673 ,4.29582 ,42.15061 
66 ,12.4153 ,0.81842 ,4.26845 ,41.88198 
67 ,12.5919 ,0.82004 ,4.25818 ,41.78125 
68 ,12.7838 ,0.82196 ,4.23422 ,41.54620 
69 ,12.9598 ,0.82369 ,4.22738 ,41.47905 
70 ,13.1358 ,0.82555 ,4.21711 ,41.37831 
71 ,13.3121 ,0.82728 ,4.20000 ,41.21042 
72 ,13.5041 ,0.82916 ,4.17262 ,40.94179 
73 ,13.6801 ,0.83094 ,4.15894 ,40.80748 
74 ,13.8561 ,0.83272 ,4.14183 ,40.63959 
75 ,14.0481 ,0.83458 ,4.10760 ,40.30380 
76 ,14.2243 ,0.83637 ,4.10418 ,40.27023 
77 ,14.4163 ,0.83831 ,4.09049 ,40.13591 
78 ,14.6085 ,0.84015 ,4.06312 ,39.86729 
79 ,14.8003 ,0.84218 ,4.06654 ,39.90087 
80 ,15.0086 ,0.84414 ,4.02205 ,39.46435 
81 ,15.2163 ,0.84621 ,4.02889 ,39.53150 
82 ,15.3929 ,0.84804 ,4.00494 ,39.29646 
83 ,15.5685 ,0.84981 ,3.97072 ,38.96067 
84 ,15.7610 ,0.85174 ,3.97072 ,38.96067 
85 ,15.9526 ,0.85366 ,3.95018 ,38.75920 
86 ,16.1130 ,0.85535 ,3.92281 ,38.49058 
87 ,16.2892 ,0.85701 ,3.90227 ,38.28911 
88 ,16.4652 ,0.85885 ,3.90912 ,38.35626 
89 ,16.6570 ,0.86063 ,3.88858 ,38.15479 
90 ,16.8492 ,0.86258 ,3.85436 ,37.81901 
91 ,17.0415 ,0.86451 ,3.83383 ,37.61754 
92 ,17.2336 ,0.86641 ,3.82699 ,37.55038 
93 ,17.4255 ,0.86832 ,3.80303 ,37.31534 
94 ,17.6018 ,0.87015 ,3.79619 ,37.24818 
95 ,17.7935 ,0.87195 ,3.77223 ,37.01313 
96 ,17.9699 ,0.87383 ,3.73801 ,36.67735 
97 ,18.1779 ,0.87585 ,3.74143 ,36.71093 
98 ,18.3700 ,0.87773 ,3.70721 ,36.37514 
99 ,18.5461 ,0.87958 ,3.70037 ,36.30799 
100 ,18.7381 ,0.88146 ,3.70037 ,36.30799 
101 ,18.9142 ,0.88322 ,3.67299 ,36.03936 
102 ,19.1062 ,0.88512 ,3.65246 ,35.83789 
103 ,19.2824 ,0.88694 ,3.64561 ,35.77073 
104 ,19.4905 ,0.88899 ,3.60797 ,35.40137 
105 ,19.6825 ,0.89086 ,3.60112 ,35.33422 
106 ,19.8583 ,0.89271 ,3.58401 ,35.16632 
107 ,20.0346 ,0.89453 ,3.56006 ,34.93128 
108 ,20.2270 ,0.89637 ,3.54295 ,34.76338 
109 ,20.4030 ,0.89816 ,3.51899 ,34.52834 
110 ,20.5786 ,0.89987 ,3.51557 ,34.49476 
111 ,20.7709 ,0.90182 ,3.50530 ,34.39402 
112 ,20.9469 ,0.90357 ,3.47108 ,34.05824 
113 ,21.1390 ,0.90543 ,3.46081 ,33.95751 
114 ,21.3469 ,0.90749 ,3.45055 ,33.85677 
115 ,21.5233 ,0.90946 ,3.43001 ,33.65530 
116 ,21.6994 ,0.91107 ,3.41975 ,33.55457 
117 ,21.8755 ,0.91285 ,3.40948 ,33.45383 
118 ,22.0831 ,0.91484 ,3.38895 ,33.25236 
119 ,22.2756 ,0.91674 ,3.36499 ,33.01731 
120 ,22.4834 ,0.91886 ,3.35815 ,32.95016 
121 ,22.6436 ,0.92065 ,3.33762 ,32.74869 
122 ,22.8197 ,0.92228 ,3.31708 ,32.54722 
123 ,22.9958 ,0.92406 ,3.28628 ,32.24501 
124 ,23.1715 ,0.92581 ,3.29655 ,32.34575 
125 ,23.3478 ,0.92757 ,3.25206 ,31.90923 
126 ,23.5400 ,0.92951 ,3.24864 ,31.87565 
127 ,23.7162 ,0.93125 ,3.23837 ,31.77492 
128 ,23.8923 ,0.93316 ,3.20415 ,31.43913 
129 ,24.0680 ,0.93480 ,3.19388 ,31.33840 
130 ,24.2598 ,0.93673 ,3.18704 ,31.27124 
131 ,24.4362 ,0.93843 ,3.17335 ,31.13693 
132 ,24.6286 ,0.94036 ,3.14597 ,30.86830 
133 ,24.8205 ,0.94222 ,3.13913 ,30.80115 
134 ,25.0126 ,0.94420 ,3.10833 ,30.49894 
135 ,25.1886 ,0.94600 ,3.09806 ,30.39821 
136 ,25.3647 ,0.94770 ,3.07753 ,30.19674 
137 ,25.5408 ,0.94950 ,3.06042 ,30.02884 
138 ,25.7170 ,0.95126 ,3.05015 ,29.92811 
139 ,25.9091 ,0.95314 ,3.02962 ,29.72664 
140 ,26.1172 ,0.95512 ,3.02278 ,29.65948 
141 ,26.3092 ,0.95710 ,2.99540 ,29.39086 
142 ,26.5012 ,0.95907 ,2.99198 ,29.35728 
143 ,26.6933 ,0.96101 ,2.97144 ,29.15581 
144 ,26.8693 ,0.96273 ,2.94749 ,28.92076 
145 ,27.0453 ,0.96455 ,2.92353 ,28.68571 
146 ,27.2375 ,0.96643 ,2.91669 ,28.61856 
147 ,27.4293 ,0.96831 ,2.89616 ,28.41709 
148 ,27.6218 ,0.97022 ,2.89958 ,28.45066 
149 ,27.8298 ,0.97229 ,2.87220 ,28.18204 
150 ,28.0218 ,0.97429 ,2.84482 ,27.91341 
151 ,28.1980 ,0.97605 ,2.84140 ,27.87983 
152 ,28.4061 ,0.97808 ,2.81745 ,27.64479 
153 ,28.5979 ,0.98000 ,2.79691 ,27.44332 
154 ,28.7739 ,0.98180 ,2.79349 ,27.40974 
155 ,28.9663 ,0.98362 ,2.75927 ,27.07395 
156 ,29.1583 ,0.98564 ,2.76611 ,27.14111 
157 ,29.3344 ,0.98744 ,2.75927 ,27.07395 
158 ,29.5263 ,0.98927 ,2.72163 ,26.70459 
159 ,29.7186 ,0.99134 ,2.71136 ,26.60386 
160 ,29.9106 ,0.99316 ,2.70794 ,26.57028 
161 ,30.0868 ,0.99493 ,2.67372 ,26.23450 
162 ,30.2788 ,0.99688 ,2.68056 ,26.30165 
163 ,30.4709 ,0.99867 ,2.64634 ,25.96587 
164 ,30.6626 ,1.00063 ,2.62581 ,25.76440 
165 ,30.8389 ,1.00243 ,2.61896 ,25.69724 
166 ,31.0470 ,1.00445 ,2.60185 ,25.52935 
167 ,31.2232 ,1.00628 ,2.58132 ,25.32788 
168 ,31.4153 ,1.00818 ,2.57789 ,25.29430 
169 ,31.6073 ,1.01006 ,2.54367 ,24.95852 
170 ,31.7831 ,1.01189 ,2.52998 ,24.82421 
171 ,31.9595 ,1.01364 ,2.53341 ,24.85779 
172 ,32.1514 ,1.01549 ,2.51972 ,24.72347 
173 ,32.3436 ,1.01749 ,2.48550 ,24.38769 
174 ,32.5355 ,1.01936 ,2.48550 ,24.38769 
175 ,32.7117 ,1.02118 ,2.47181 ,24.25338 
176 ,32.8876 ,1.02296 ,2.44785 ,24.01833 
177 ,33.0639 ,1.02469 ,2.43416 ,23.88402 
178 ,33.2556 ,1.02659 ,2.43074 ,23.85044 
179 ,33.4322 ,1.02836 ,2.41705 ,23.71612 
180 ,33.6242 ,1.03029 ,2.37256 ,23.27961 
181 ,33.8162 ,1.03218 ,2.39652 ,23.51465 
182 ,33.9923 ,1.03398 ,2.36572 ,23.21245 
183 ,34.1839 ,1.03587 ,2.33834 ,22.94382 
184 ,34.3603 ,1.03760 ,2.32808 ,22.84309 
185 ,34.5365 ,1.03944 ,2.32808 ,22.84309 
186 ,34.7286 ,1.04123 ,2.30070 ,22.57446 
187 ,34.9041 ,1.04307 ,2.28017 ,22.37299 
188 ,35.0962 ,1.04491 ,2.27332 ,22.30584 
189 ,35.2724 ,1.04677 ,2.26648 ,22.23868 
190 ,35.5130 ,1.04905 ,2.24937 ,22.07079 
191 ,35.7050 ,1.05107 ,2.21172 ,21.70143 
192 ,35.8967 ,1.05297 ,2.20488 ,21.63427 
193 ,36.0566 ,1.05470 ,2.21172 ,21.70143 
194 ,36.2333 ,1.05638 ,2.18777 ,21.46638 
195 ,36.4413 ,1.05836 ,2.16723 ,21.26491 
196 ,36.6174 ,1.06021 ,2.13986 ,20.99628 
197 ,36.8256 ,1.06222 ,2.12617 ,20.86197 
198 ,37.0335 ,1.06438 ,2.12275 ,20.82839 
199 ,37.2256 ,1.06625 ,2.08852 ,20.49261 
200 ,37.4176 ,1.06816 ,2.10221 ,20.62692 
201 ,37.6098 ,1.07006 ,2.07141 ,20.32472 
202 ,37.8014 ,1.07208 ,2.05088 ,20.12325 
203 ,37.9781 ,1.07381 ,2.04404 ,20.05609 
204 ,38.1696 ,1.07575 ,2.03719 ,19.98893 
205 ,38.3456 ,1.07753 ,2.01666 ,19.78746 
206 ,38.5222 ,1.07925 ,1.99955 ,19.61957 
207 ,38.7139 ,1.08111 ,1.99613 ,19.58599 
208 ,38.8902 ,1.08295 ,1.98928 ,19.51884 
209 ,39.0660 ,1.08463 ,1.94479 ,19.08232 
210 ,39.2580 ,1.08658 ,1.94822 ,19.11590 
211 ,39.4503 ,1.08846 ,1.94137 ,19.04874 
212 ,39.6266 ,1.09028 ,1.90373 ,18.67938 
213 ,39.8185 ,1.09213 ,1.91399 ,18.78011 
214 ,40.0107 ,1.09413 ,1.90031 ,18.64580 
215 ,40.1864 ,1.09588 ,1.87293 ,18.37717 
216 ,40.3625 ,1.09764 ,1.85582 ,18.20928 
217 ,40.5550 ,1.09951 ,1.86266 ,18.27644 
218 ,40.7471 ,1.10140 ,1.83186 ,17.97423 
219 ,40.9390 ,1.10340 ,1.82160 ,17.87350 
220 ,41.1152 ,1.10518 ,1.81475 ,17.80634 
221 ,41.3233 ,1.10716 ,1.79764 ,17.63845 
222 ,41.5151 ,1.10913 ,1.78395 ,17.50414 
223 ,41.7072 ,1.11105 ,1.75315 ,17.20193 
224 ,41.8835 ,1.11289 ,1.73946 ,17.06762 
225 ,42.0755 ,1.11475 ,1.73946 ,17.06762 
226 ,42.2515 ,1.11653 ,1.73262 ,17.00046 
227 ,42.4274 ,1.11832 ,1.71209 ,16.79899 
228 ,42.6039 ,1.12004 ,1.68471 ,16.53037 
229 ,42.8119 ,1.12206 ,1.69498 ,16.63110 
230 ,43.0035 ,1.12398 ,1.66075 ,16.29532 
231 ,43.1956 ,1.12590 ,1.64707 ,16.16101 
232 ,43.3881 ,1.12784 ,1.66075 ,16.29532 
233 ,43.5640 ,1.12966 ,1.64022 ,16.09385 
234 ,43.7400 ,1.13144 ,1.59916 ,15.69091 
235 ,43.9323 ,1.13335 ,1.60600 ,15.75807 
236 ,44.1082 ,1.13509 ,1.59916 ,15.69091 
237 ,44.3006 ,1.13704 ,1.56836 ,15.38871 
238 ,44.4763 ,1.13880 ,1.55809 ,15.28797 
239 ,44.6682 ,1.14067 ,1.56836 ,15.38871 
240 ,44.8446 ,1.14245 ,1.53413 ,15.05292 
241 ,45.0367 ,1.14434 ,1.52387 ,14.95219 
242 ,45.2128 ,1.14616 ,1.52045 ,14.91861 
243 ,45.4050 ,1.14800 ,1.48280 ,14.54925 
244 ,45.6129 ,1.15007 ,1.48280 ,14.54925 
245 ,45.7886 ,1.15188 ,1.48622 ,14.58283 
246 ,45.9652 ,1.15364 ,1.44858 ,14.21346 
247 ,46.2051 ,1.15573 ,1.44174 ,14.14631 
248 ,46.3814 ,1.15780 ,1.42462 ,13.97842 
249 ,46.5734 ,1.15968 ,1.42462 ,13.97842 
250 ,46.7495 ,1.16147 ,1.40409 ,13.77695 
251 ,46.9255 ,1.16332 ,1.38356 ,13.57548 
252 ,47.1175 ,1.16514 ,1.36987 ,13.44116 
253 ,47.3097 ,1.16701 ,1.36645 ,13.40759 
254 ,47.5339 ,1.16915 ,1.33907 ,13.13896 
255 ,47.7260 ,1.17120 ,1.31169 ,12.87033 
256 ,47.9017 ,1.17300 ,1.30143 ,12.76960 
257 ,48.0942 ,1.17489 ,1.30485 ,12.80318 
258 ,48.3023 ,1.17696 ,1.27405 ,12.50097 
259 ,48.4942 ,1.17893 ,1.27747 ,12.53455 
260 ,48.6704 ,1.18074 ,1.27747 ,12.53455 
261 ,48.8621 ,1.18259 ,1.23983 ,12.16519 
262 ,49.0384 ,1.18434 ,1.22614 ,12.03088 
263 ,49.2463 ,1.18641 ,1.23298 ,12.09803 
264 ,49.4384 ,1.18835 ,1.20903 ,11.86298 
265 ,49.6147 ,1.19012 ,1.19876 ,11.76225 
266 ,49.7907 ,1.19190 ,1.19192 ,11.69509 
267 ,49.9667 ,1.19362 ,1.17138 ,11.49362 
268 ,50.1428 ,1.19541 ,1.16112 ,11.39289 
269 ,50.3510 ,1.19735 ,1.14401 ,11.22500 
270 ,50.5431 ,1.19941 ,1.13032 ,11.09068 
271 ,50.7351 ,1.20139 ,1.13374 ,11.12426 
272 ,50.9108 ,1.20317 ,1.11663 ,10.95637 
273 ,51.0868 ,1.20483 ,1.10294 ,10.82206 
274 ,51.2629 ,1.20659 ,1.09610 ,10.75490 
275 ,51.4392 ,1.20843 ,1.06872 ,10.48627 
276 ,51.6474 ,1.21034 ,1.06530 ,10.45270 
277 ,51.8233 ,1.21226 ,1.05503 ,10.35196 
278 ,52.0156 ,1.21409 ,1.03450 ,10.15049 
279 ,52.2074 ,1.21598 ,1.03450 ,10.15049 
280 ,52.3838 ,1.21783 ,1.01396 ,9.94902 
281 ,52.5919 ,1.21986 ,1.00028 ,9.81471 
282 ,52.7840 ,1.22180 ,0.97974 ,9.61324 
283 ,52.9920 ,1.22387 ,0.97632 ,9.57966 
284 ,53.1680 ,1.22562 ,0.97632 ,9.57966 
285 ,53.3439 ,1.22738 ,0.93525 ,9.17672 
286 ,53.5202 ,1.22914 ,0.92499 ,9.07598 
287 ,53.7123 ,1.23107 ,0.92499 ,9.07598 
288 ,53.9046 ,1.23298 ,0.90103 ,8.84094 
289 ,54.0800 ,1.23481 ,0.88392 ,8.67305 
290 ,54.2563 ,1.23652 ,0.87366 ,8.57231 
291 ,54.4483 ,1.23838 ,0.88392 ,8.67305 
292 ,54.6247 ,1.24022 ,0.86681 ,8.50515 
293 ,54.8167 ,1.24209 ,0.84628 ,8.30368 
294 ,54.9929 ,1.24389 ,0.82917 ,8.13579 
295 ,55.1684 ,1.24569 ,0.84628 ,8.30368 
296 ,55.3770 ,1.24764 ,0.81206 ,7.96790 
297 ,55.5690 ,1.24971 ,0.80521 ,7.90074 
298 ,55.7451 ,1.25141 ,0.80863 ,7.93432 
299 ,55.9213 ,1.25321 ,0.78126 ,7.66570 
300 ,56.0970 ,1.25497 ,0.77441 ,7.59854 
301 ,56.2894 ,1.25679 ,0.75388 ,7.39707 
302 ,56.4972 ,1.25888 ,0.74704 ,7.32991 
303 ,56.6736 ,1.26070 ,0.72308 ,7.09486 
304 ,56.8655 ,1.26261 ,0.73335 ,7.19560 
305 ,57.0416 ,1.26439 ,0.71624 ,7.02771 
306 ,57.2335 ,1.26624 ,0.69913 ,6.85982 
307 ,57.4259 ,1.26826 ,0.69913 ,6.85982 
308 ,57.6015 ,1.26995 ,0.67859 ,6.65835 
309 ,57.7780 ,1.27173 ,0.66148 ,6.49046 
310 ,57.9702 ,1.27364 ,0.65806 ,6.45688 
311 ,58.1462 ,1.27546 ,0.63410 ,6.22183 
312 ,58.3224 ,1.27718 ,0.63068 ,6.18825 
313 ,58.5304 ,1.27919 ,0.63410 ,6.22183 
314 ,58.7381 ,1.28129 ,0.61015 ,5.98678 
315 ,58.9145 ,1.28310 ,0.59646 ,5.85247 
316 ,59.0746 ,1.28484 ,0.57935 ,5.68458 
317 ,59.2505 ,1.28642 ,0.58619 ,5.75173 
318 ,59.4267 ,1.28820 ,0.58277 ,5.71815 
319 ,59.6189 ,1.29008 ,0.55539 ,5.44953 
320 ,59.8109 ,1.29207 ,0.55539 ,5.44953 
321 ,59.9870 ,1.29377 ,0.55197 ,5.41595 
322 ,60.1787 ,1.29565 ,0.52459 ,5.14732 
323 ,60.3710 ,1.29765 ,0.50406 ,4.94585 
324 ,60.5633 ,1.29960 ,0.50406 ,4.94585 
325 ,60.7552 ,1.30144 ,0.49380 ,4.84512 
326 ,60.9314 ,1.30326 ,0.47326 ,4.64365 
327 ,61.1234 ,1.30515 ,0.47326 ,4.64365 
328 ,61.2995 ,1.30695 ,0.45273 ,4.44218 
329 ,61.4755 ,1.30870 ,0.43220 ,4.24071 
330 ,61.6516 ,1.31047 ,0.43220 ,4.24071 
331 ,61.8435 ,1.31234 ,0.42877 ,4.20713 
332 ,62.0038 ,1.31410 ,0.40140 ,3.93850 
333 ,62.1799 ,1.31578 ,0.40140 ,3.93850 
334 ,62.3719 ,1.31757 ,0.39455 ,3.87135 
335 ,62.5479 ,1.31938 ,0.38771 ,3.80419 
336 ,62.7401 ,1.32126 ,0.36718 ,3.60272 
337 ,62.9163 ,1.32307 ,0.35691 ,3.50199 
338 ,63.1242 ,1.32512 ,0.35349 ,3.46841 
339 ,63.3164 ,1.32710 ,0.32953 ,3.23336 
340 ,63.5084 ,1.32904 ,0.32611 ,3.19978 
341 ,63.7007 ,1.33089 ,0.32611 ,3.19978 
342 ,63.8605 ,1.33267 ,0.29531 ,2.89758 
343 ,64.0524 ,1.33447 ,0.28504 ,2.79684 
344 ,64.2287 ,1.33626 ,0.28504 ,2.79684 
345 ,64.4051 ,1.33798 ,0.28162 ,2.76326 
346 ,64.6129 ,1.34003 ,0.26451 ,2.59537 
347 ,64.7889 ,1.34181 ,0.25082 ,2.46106 
348 ,64.9648 ,1.34358 ,0.24398 ,2.39390 
349 ,65.1407 ,1.34535 ,0.22687 ,2.22601 
350 ,65.3170 ,1.34709 ,0.22344 ,2.19243 
351 ,65.5253 ,1.34914 ,0.21660 ,2.12528 
352 ,65.7012 ,1.35089 ,0.19949 ,1.95738 
353 ,65.8770 ,1.35268 ,0.18580 ,1.82307 
354 ,66.0535 ,1.35448 ,0.17896 ,1.75592 
355 ,66.2454 ,1.35627 ,0.18238 ,1.78949 
356 ,66.4216 ,1.35812 ,0.16527 ,1.62160 
357 ,66.5976 ,1.35989 ,0.15500 ,1.52087 
358 ,66.8058 ,1.36191 ,0.14473 ,1.42013 
359 ,66.9819 ,1.36376 ,0.13789 ,1.35298 
360 ,67.1740 ,1.36566 ,0.10367 ,1.01719 
361 ,67.3822 ,1.36773 ,0.11393 ,1.11793 
362 ,67.5901 ,1.36978 ,0.09340 ,0.91646 
363 ,67.7823 ,1.37160 ,0.08998 ,0.88288 
364 ,67.9743 ,1.37359 ,0.06945 ,0.68141 
365 ,68.1664 ,1.37550 ,0.07629 ,0.74857 
366 ,68.3421 ,1.37736 ,0.06602 ,0.64783 
367 ,68.5345 ,1.37926 ,0.04891 ,0.47994 
368 ,68.7265 ,1.38119 ,0.03865 ,0.37920 
369 ,68.9186 ,1.38299 ,0.02496 ,0.24489 
370 ,69.1106 ,1.38501 ,0.01127 ,0.11058 
371 ,69.3029 ,1.38689 ,0.01127 ,0.11058 
372 ,69.4946 ,1.38893 ,0.00785 ,0.07700 
373 ,69.6709 ,1.39061 ,-0.01611 ,-0.15805 
374 ,69.8630 ,1.39256 ,-0.01953 ,-0.19163 
375 ,70.0550 ,1.39439 ,-0.04348 ,-0.42667 
376 ,70.2310 ,1.39629 ,-0.04691 ,-0.46025 
377 ,70.4072 ,1.39796 ,-0.04691 ,-0.46025 
378 ,70.5833 ,1.39973 ,-0.05717 ,-0.56099 
379 ,70.7592 ,1.40147 ,-0.07771 ,-0.76246 
380 ,70.9514 ,1.40335 ,-0.08113 ,-0.79604 
381 ,71.1271 ,1.40516 ,-0.09140 ,-0.89677 
382 ,71.3035 ,1.40694 ,-0.08797 ,-0.86319 
383 ,71.4794 ,1.40868 ,-0.11877 ,-1.16540 
384 ,71.6397 ,1.41040 ,-0.12562 ,-1.23255 
385 ,71.8158 ,1.41208 ,-0.13931 ,-1.36687 
386 ,71.9918 ,1.41396 ,-0.12904 ,-1.26613 
387 ,72.1680 ,1.41558 ,-0.12904 ,-1.26613 
388 ,72.3760 ,1.41759 ,-0.17695 ,-1.73623 
389 ,72.5519 ,1.41941 ,-0.17695 ,-1.73623 
390 ,72.7281 ,1.42112 ,-0.17695 ,-1.73623 
391 ,72.9203 ,1.42303 ,-0.18379 ,-1.80338 
392 ,73.1123 ,1.42498 ,-0.20433 ,-2.00485 
393 ,73.2883 ,1.42680 ,-0.19748 ,-1.93770 
394 ,73.4805 ,1.42868 ,-0.21117 ,-2.07201 
395 ,73.6563 ,1.43046 ,-0.21802 ,-2.13917 
396 ,73.8483 ,1.43234 ,-0.21117 ,-2.07201 
397 ,74.0565 ,1.43438 ,-0.25908 ,-2.54211 
398 ,74.2487 ,1.43636 ,-0.24197 ,-2.37422 
399 ,74.4408 ,1.43827 ,-0.25224 ,-2.47495 
400 ,74.6169 ,1.44002 ,-0.27619 ,-2.71000 
401 ,74.7925 ,1.44187 ,-0.26935 ,-2.64284 
402 ,74.9688 ,1.44356 ,-0.28646 ,-2.81073 
403 ,75.1448 ,1.44534 ,-0.27961 ,-2.74358 
404 ,75.3369 ,1.44725 ,-0.30699 ,-3.01220 
405 ,75.5293 ,1.44912 ,-0.30699 ,-3.01220 
406 ,75.7213 ,1.45100 ,-0.32752 ,-3.21367 
407 ,75.8971 ,1.45289 ,-0.33779 ,-3.31441 
408 ,76.0734 ,1.45458 ,-0.34464 ,-3.38156 
409 ,76.2491 ,1.45636 ,-0.35148 ,-3.44872 
410 ,76.4257 ,1.45812 ,-0.34464 ,-3.38156 
411 ,76.6176 ,1.46002 ,-0.36517 ,-3.58303 
412 ,76.7937 ,1.46184 ,-0.38912 ,-3.81808 
413 ,76.9697 ,1.46355 ,-0.38912 ,-3.81808 
414 ,77.1459 ,1.46534 ,-0.38228 ,-3.75093 
415 ,77.3217 ,1.46710 ,-0.40623 ,-3.98597 
416 ,77.4982 ,1.46884 ,-0.42677 ,-4.18744 
417 ,77.6901 ,1.47073 ,-0.42335 ,-4.15387 
418 ,77.8980 ,1.47283 ,-0.45072 ,-4.42249 
419 ,78.0582 ,1.47457 ,-0.44046 ,-4.32176 
420 ,78.2344 ,1.47615 ,-0.45757 ,-4.48965 
421 ,78.4422 ,1.47822 ,-0.45072 ,-4.42249 
422 ,78.6185 ,1.48003 ,-0.45757 ,-4.48965 
423 ,78.8105 ,1.48191 ,-0.46783 ,-4.59038 
424 ,79.0027 ,1.48388 ,-0.48837 ,-4.79185 
425 ,79.1787 ,1.48569 ,-0.48837 ,-4.79185 
426 ,79.3707 ,1.48752 ,-0.49521 ,-4.85901 
427 ,79.5469 ,1.48932 ,-0.50890 ,-4.99332 
428 ,79.7389 ,1.49124 ,-0.52259 ,-5.12764 
429 ,79.9150 ,1.49302 ,-0.53970 ,-5.29553 
430 ,80.0908 ,1.49475 ,-0.54654 ,-5.36268 
431 ,80.2832 ,1.49663 ,-0.54312 ,-5.32911 
432 ,80.4591 ,1.49853 ,-0.56365 ,-5.53058 
433 ,80.6353 ,1.50023 ,-0.57392 ,-5.63131 
434 ,80.8116 ,1.50200 ,-0.58419 ,-5.73205 
435 ,81.0356 ,1.50407 ,-0.58419 ,-5.73205 
436 ,81.2272 ,1.50608 ,-0.58761 ,-5.76562 
437 ,81.4036 ,1.50791 ,-0.57734 ,-5.66489 
438 ,81.5960 ,1.50982 ,-0.62183 ,-6.10141 
439 ,81.7879 ,1.51175 ,-0.59445 ,-5.83278 
440 ,81.9800 ,1.51367 ,-0.61841 ,-6.06783 
441 ,82.1561 ,1.51544 ,-0.64579 ,-6.33646 
442 ,82.3317 ,1.51723 ,-0.63552 ,-6.23572 
443 ,82.5081 ,1.51892 ,-0.64579 ,-6.33646 
444 ,82.7002 ,1.52080 ,-0.66632 ,-6.53793 
445 ,82.9081 ,1.52288 ,-0.65947 ,-6.47077 
446 ,83.1002 ,1.52476 ,-0.67316 ,-6.60508 
447 ,83.2764 ,1.52664 ,-0.69712 ,-6.84013 
448 ,83.4524 ,1.52836 ,-0.70396 ,-6.90729 
449 ,83.6766 ,1.53039 ,-0.69712 ,-6.84013 
450 ,83.8685 ,1.53246 ,-0.72107 ,-7.07518 
451 ,84.0608 ,1.53437 ,-0.72792 ,-7.14233 
452 ,84.2527 ,1.53640 ,-0.75187 ,-7.37738 
453 ,84.4449 ,1.53829 ,-0.74161 ,-7.27665 
454 ,84.6209 ,1.54008 ,-0.74503 ,-7.31023 
455 ,84.8130 ,1.54202 ,-0.76556 ,-7.51170 
456 ,85.0053 ,1.54383 ,-0.76898 ,-7.54527 
457 ,85.1973 ,1.54583 ,-0.77925 ,-7.64601 
458 ,85.4055 ,1.54782 ,-0.78610 ,-7.71317 
459 ,85.6135 ,1.54994 ,-0.80321 ,-7.88106 
460 ,85.8055 ,1.55190 ,-0.78610 ,-7.71317 
461 ,85.9816 ,1.55367 ,-0.81005 ,-7.94821 
462 ,86.1895 ,1.55561 ,-0.82374 ,-8.08253 
463 ,86.3976 ,1.55773 ,-0.82032 ,-8.04895 
