Data stamp = , 23-04-2022 14:18:38 325

Calibration Values: 
Slope = , 26.54 , g/V 
Offset Voltage at no contact = , -0.501760 , V 

No , Time , Stage Position ,   Mass , Force 
   ,  (s) ,      (mm)      ,   (g)  , (mN)  

1 ,0.0000 ,0.69945 ,5.32247 ,52.22410 
2 ,0.2156 ,0.69954 ,5.30878 ,52.08979 
3 ,0.4719 ,0.70020 ,5.33616 ,52.35841 
4 ,0.6801 ,0.70145 ,5.32589 ,52.25768 
5 ,0.8721 ,0.70304 ,5.32589 ,52.25768 
6 ,1.0644 ,0.70484 ,5.34643 ,52.45915 
7 ,1.2563 ,0.70680 ,5.32589 ,52.25768 
8 ,1.4645 ,0.70879 ,5.33616 ,52.35841 
9 ,1.6565 ,0.71072 ,5.30878 ,52.08979 
10 ,1.8484 ,0.71263 ,5.29852 ,51.98905 
11 ,2.0566 ,0.71474 ,5.28141 ,51.82116 
12 ,2.2487 ,0.71669 ,5.26087 ,51.61969 
13 ,2.4568 ,0.71878 ,5.24376 ,51.45180 
14 ,2.6328 ,0.72060 ,5.25745 ,51.58611 
15 ,2.8250 ,0.72244 ,5.21296 ,51.14960 
16 ,3.0331 ,0.72451 ,5.18216 ,50.84739 
17 ,3.2091 ,0.72633 ,5.16163 ,50.64592 
18 ,3.3853 ,0.72805 ,5.16505 ,50.67950 
19 ,3.5772 ,0.72999 ,5.13425 ,50.37729 
20 ,3.7694 ,0.73193 ,5.11714 ,50.20940 
21 ,3.9455 ,0.73365 ,5.11030 ,50.14225 
22 ,4.1215 ,0.73550 ,5.08634 ,49.90720 
23 ,4.3137 ,0.73732 ,5.05897 ,49.63857 
24 ,4.5056 ,0.73920 ,5.06581 ,49.70573 
25 ,4.6976 ,0.74117 ,5.03501 ,49.40352 
26 ,4.8738 ,0.74295 ,5.00763 ,49.13490 
27 ,5.0656 ,0.74478 ,4.99737 ,49.03416 
28 ,5.2421 ,0.74659 ,4.96657 ,48.73196 
29 ,5.4501 ,0.74870 ,4.94603 ,48.53049 
30 ,5.6422 ,0.75061 ,4.94261 ,48.49691 
31 ,5.8342 ,0.75254 ,4.91523 ,48.22828 
32 ,6.0262 ,0.75447 ,4.89470 ,48.02681 
33 ,6.2020 ,0.75621 ,4.88101 ,47.89250 
34 ,6.3622 ,0.75794 ,4.87417 ,47.82534 
35 ,6.5384 ,0.75962 ,4.85364 ,47.62387 
36 ,6.7145 ,0.76141 ,4.83652 ,47.45598 
37 ,6.8906 ,0.76309 ,4.80230 ,47.12020 
38 ,7.0668 ,0.76485 ,4.79546 ,47.05304 
39 ,7.2584 ,0.76679 ,4.79204 ,47.01946 
40 ,7.4349 ,0.76857 ,4.74755 ,46.58295 
41 ,7.6106 ,0.77036 ,4.74413 ,46.54937 
42 ,7.7707 ,0.77204 ,4.72017 ,46.31432 
43 ,7.9467 ,0.77367 ,4.70648 ,46.18001 
44 ,8.1232 ,0.77543 ,4.68595 ,45.97854 
45 ,8.3149 ,0.77733 ,4.68937 ,46.01212 
46 ,8.5075 ,0.77924 ,4.65173 ,45.64275 
47 ,8.7314 ,0.78137 ,4.62435 ,45.37413 
48 ,8.9232 ,0.78335 ,4.63462 ,45.47486 
49 ,9.0997 ,0.78521 ,4.61066 ,45.23981 
50 ,9.2918 ,0.78707 ,4.57302 ,44.87045 
51 ,9.4837 ,0.78895 ,4.57302 ,44.87045 
52 ,9.6757 ,0.79090 ,4.54222 ,44.56825 
53 ,9.8679 ,0.79276 ,4.52169 ,44.36678 
54 ,10.0440 ,0.79459 ,4.51142 ,44.26604 
55 ,10.2357 ,0.79645 ,4.48746 ,44.03100 
56 ,10.4282 ,0.79838 ,4.47035 ,43.86310 
57 ,10.6200 ,0.80037 ,4.46009 ,43.76237 
58 ,10.7964 ,0.80224 ,4.45666 ,43.72879 
59 ,10.9884 ,0.80403 ,4.40875 ,43.25870 
60 ,11.1645 ,0.80585 ,4.41902 ,43.35943 
61 ,11.3406 ,0.80756 ,4.38822 ,43.05723 
62 ,11.5166 ,0.80932 ,4.38480 ,43.02365 
63 ,11.7089 ,0.81125 ,4.34716 ,42.65429 
64 ,11.9169 ,0.81321 ,4.34031 ,42.58713 
65 ,12.1089 ,0.81531 ,4.30951 ,42.28492 
66 ,12.3010 ,0.81715 ,4.31293 ,42.31850 
67 ,12.4931 ,0.81906 ,4.27529 ,41.94914 
68 ,12.7010 ,0.82113 ,4.27529 ,41.94914 
69 ,12.8771 ,0.82291 ,4.23765 ,41.57978 
70 ,13.0533 ,0.82469 ,4.22396 ,41.44547 
71 ,13.2294 ,0.82652 ,4.20685 ,41.27758 
72 ,13.4214 ,0.82836 ,4.19658 ,41.17684 
73 ,13.5973 ,0.83019 ,4.18974 ,41.10968 
74 ,13.7897 ,0.83202 ,4.14867 ,40.70674 
75 ,13.9818 ,0.83403 ,4.13498 ,40.57243 
76 ,14.1737 ,0.83588 ,4.13840 ,40.60601 
77 ,14.3499 ,0.83766 ,4.09391 ,40.16949 
78 ,14.5419 ,0.83949 ,4.08023 ,40.03518 
79 ,14.7339 ,0.84145 ,4.06654 ,39.90087 
80 ,14.9258 ,0.84339 ,4.03916 ,39.63224 
81 ,15.1021 ,0.84518 ,4.02547 ,39.49793 
82 ,15.2782 ,0.84699 ,4.01520 ,39.39719 
83 ,15.4703 ,0.84881 ,3.98783 ,39.12856 
84 ,15.6624 ,0.85075 ,3.97414 ,38.99425 
85 ,15.8382 ,0.85257 ,3.96045 ,38.85994 
86 ,16.0302 ,0.85451 ,3.93650 ,38.62489 
87 ,16.2227 ,0.85634 ,3.92623 ,38.52415 
88 ,16.4143 ,0.85824 ,3.91596 ,38.42342 
89 ,16.5908 ,0.86009 ,3.89885 ,38.25553 
90 ,16.7826 ,0.86193 ,3.86805 ,37.95332 
91 ,16.9584 ,0.86375 ,3.86121 ,37.88617 
92 ,17.1349 ,0.86556 ,3.84752 ,37.75185 
93 ,17.3268 ,0.86733 ,3.80645 ,37.34891 
94 ,17.5031 ,0.86918 ,3.80987 ,37.38249 
95 ,17.6792 ,0.87093 ,3.78592 ,37.14744 
96 ,17.8550 ,0.87274 ,3.76881 ,36.97955 
97 ,18.0310 ,0.87443 ,3.76196 ,36.91240 
98 ,18.2234 ,0.87628 ,3.74485 ,36.74450 
99 ,18.4155 ,0.87829 ,3.73117 ,36.61019 
100 ,18.5913 ,0.88010 ,3.71405 ,36.44230 
101 ,18.7997 ,0.88207 ,3.69010 ,36.20725 
102 ,18.9917 ,0.88399 ,3.67299 ,36.03936 
103 ,19.1677 ,0.88584 ,3.65588 ,35.87147 
104 ,19.3438 ,0.88761 ,3.61823 ,35.50211 
105 ,19.5357 ,0.88952 ,3.62166 ,35.53569 
106 ,19.7120 ,0.89130 ,3.60797 ,35.40137 
107 ,19.9039 ,0.89312 ,3.58743 ,35.19990 
108 ,20.0801 ,0.89500 ,3.54979 ,34.83054 
109 ,20.2717 ,0.89691 ,3.54979 ,34.83054 
110 ,20.4483 ,0.89864 ,3.54295 ,34.76338 
111 ,20.6561 ,0.90065 ,3.51899 ,34.52834 
112 ,20.8323 ,0.90247 ,3.51215 ,34.46118 
113 ,21.0087 ,0.90427 ,3.49846 ,34.32687 
114 ,21.1845 ,0.90602 ,3.46424 ,33.99108 
115 ,21.3926 ,0.90801 ,3.46766 ,34.02466 
116 ,21.6003 ,0.91008 ,3.42317 ,33.58814 
117 ,21.7764 ,0.91186 ,3.41290 ,33.48741 
118 ,21.9364 ,0.91360 ,3.40948 ,33.45383 
119 ,22.1289 ,0.91530 ,3.40264 ,33.38667 
120 ,22.3046 ,0.91725 ,3.35130 ,32.88300 
121 ,22.4811 ,0.91897 ,3.33762 ,32.74869 
122 ,22.6731 ,0.92091 ,3.34788 ,32.84942 
123 ,22.8812 ,0.92282 ,3.32393 ,32.61437 
124 ,23.0733 ,0.92483 ,3.29997 ,32.37933 
125 ,23.2653 ,0.92683 ,3.26917 ,32.07712 
126 ,23.4413 ,0.92851 ,3.26233 ,32.00996 
127 ,23.6174 ,0.93026 ,3.24864 ,31.87565 
128 ,23.7977 ,0.93208 ,3.23837 ,31.77492 
129 ,24.0015 ,0.93413 ,3.20073 ,31.40555 
130 ,24.1778 ,0.93591 ,3.18362 ,31.23766 
131 ,24.3698 ,0.93785 ,3.19388 ,31.33840 
132 ,24.5457 ,0.93966 ,3.14940 ,30.90188 
133 ,24.7379 ,0.94139 ,3.14597 ,30.86830 
134 ,24.9300 ,0.94332 ,3.14940 ,30.90188 
135 ,25.1223 ,0.94536 ,3.09806 ,30.39821 
136 ,25.3143 ,0.94725 ,3.09122 ,30.33105 
137 ,25.4903 ,0.94903 ,3.08095 ,30.23031 
138 ,25.6823 ,0.95092 ,3.06042 ,30.02884 
139 ,25.8905 ,0.95301 ,3.05700 ,29.99527 
140 ,26.0826 ,0.95492 ,3.01593 ,29.59233 
141 ,26.2907 ,0.95702 ,3.01935 ,29.62590 
142 ,26.4827 ,0.95885 ,2.98855 ,29.32370 
143 ,26.6746 ,0.96078 ,2.97487 ,29.18939 
144 ,26.8508 ,0.96264 ,2.96460 ,29.08865 
145 ,27.0270 ,0.96436 ,2.95091 ,28.95434 
146 ,27.2189 ,0.96633 ,2.92011 ,28.65213 
147 ,27.3952 ,0.96808 ,2.89616 ,28.41709 
148 ,27.5871 ,0.97000 ,2.89958 ,28.45066 
149 ,27.7792 ,0.97191 ,2.87905 ,28.24919 
150 ,27.9712 ,0.97382 ,2.86878 ,28.14846 
151 ,28.1474 ,0.97559 ,2.86536 ,28.11488 
152 ,28.3394 ,0.97745 ,2.82087 ,27.67836 
153 ,28.5153 ,0.97924 ,2.81402 ,27.61121 
154 ,28.6916 ,0.98102 ,2.80376 ,27.51047 
155 ,28.8834 ,0.98293 ,2.79349 ,27.40974 
156 ,29.0598 ,0.98472 ,2.75585 ,27.04038 
157 ,29.2678 ,0.98674 ,2.73531 ,26.83891 
158 ,29.4439 ,0.98856 ,2.73874 ,26.87248 
159 ,29.6358 ,0.99053 ,2.69767 ,26.46954 
160 ,29.8437 ,0.99238 ,2.70794 ,26.57028 
161 ,30.0204 ,0.99430 ,2.68056 ,26.30165 
162 ,30.2283 ,0.99637 ,2.67714 ,26.26807 
163 ,30.4362 ,0.99838 ,2.64976 ,25.99945 
164 ,30.6125 ,1.00022 ,2.63607 ,25.86514 
165 ,30.8206 ,1.00227 ,2.61212 ,25.63009 
166 ,31.0126 ,1.00431 ,2.61554 ,25.66367 
167 ,31.2045 ,1.00615 ,2.59158 ,25.42862 
168 ,31.3967 ,1.00809 ,2.58132 ,25.32788 
169 ,31.5729 ,1.00982 ,2.55736 ,25.09283 
170 ,31.7489 ,1.01162 ,2.55394 ,25.05926 
171 ,31.9408 ,1.01350 ,2.52998 ,24.82421 
172 ,32.1172 ,1.01533 ,2.50603 ,24.58916 
173 ,32.3251 ,1.01730 ,2.49576 ,24.48842 
174 ,32.5012 ,1.01908 ,2.49234 ,24.45485 
175 ,32.6934 ,1.02096 ,2.47523 ,24.28696 
176 ,32.8854 ,1.02291 ,2.47181 ,24.25338 
177 ,33.0610 ,1.02478 ,2.43416 ,23.88402 
178 ,33.2375 ,1.02648 ,2.42390 ,23.78328 
179 ,33.4297 ,1.02829 ,2.40336 ,23.58181 
180 ,33.6217 ,1.03023 ,2.38968 ,23.44750 
181 ,33.8137 ,1.03220 ,2.37599 ,23.31318 
182 ,33.9899 ,1.03402 ,2.34861 ,23.04456 
183 ,34.1656 ,1.03571 ,2.35203 ,23.07814 
184 ,34.3580 ,1.03765 ,2.34177 ,22.97740 
185 ,34.5499 ,1.03962 ,2.31097 ,22.67520 
186 ,34.7260 ,1.04139 ,2.30754 ,22.64162 
187 ,34.9181 ,1.04325 ,2.28701 ,22.44015 
188 ,35.0943 ,1.04505 ,2.26648 ,22.23868 
189 ,35.2862 ,1.04692 ,2.25621 ,22.13794 
190 ,35.4785 ,1.04881 ,2.24594 ,22.03721 
191 ,35.6705 ,1.05075 ,2.23568 ,21.93647 
192 ,35.8786 ,1.05275 ,2.21172 ,21.70143 
193 ,36.0546 ,1.05463 ,2.18777 ,21.46638 
194 ,36.2303 ,1.05638 ,2.19119 ,21.49996 
195 ,36.4231 ,1.05819 ,2.17066 ,21.29849 
196 ,36.6149 ,1.06024 ,2.15012 ,21.09702 
197 ,36.7910 ,1.06206 ,2.12959 ,20.89555 
198 ,36.9826 ,1.06393 ,2.12617 ,20.86197 
199 ,37.1426 ,1.06563 ,2.12275 ,20.82839 
200 ,37.3188 ,1.06725 ,2.10221 ,20.62692 
201 ,37.5114 ,1.06907 ,2.09537 ,20.55976 
202 ,37.7033 ,1.07120 ,2.06799 ,20.29114 
203 ,37.8955 ,1.07298 ,2.04404 ,20.05609 
204 ,38.0873 ,1.07487 ,2.05088 ,20.12325 
205 ,38.2636 ,1.07677 ,2.02693 ,19.88820 
206 ,38.4398 ,1.07845 ,2.02693 ,19.88820 
207 ,38.6319 ,1.08028 ,2.00982 ,19.72031 
208 ,38.8236 ,1.08232 ,1.97902 ,19.41810 
209 ,39.0000 ,1.08410 ,1.98586 ,19.48526 
210 ,39.1917 ,1.08601 ,1.95164 ,19.14948 
211 ,39.3681 ,1.08780 ,1.93795 ,19.01516 
212 ,39.5759 ,1.08970 ,1.92426 ,18.88085 
213 ,39.7683 ,1.09168 ,1.91742 ,18.81369 
214 ,39.9603 ,1.09365 ,1.91742 ,18.81369 
215 ,40.1685 ,1.09564 ,1.89004 ,18.54507 
216 ,40.3764 ,1.09779 ,1.86608 ,18.31002 
217 ,40.5522 ,1.09954 ,1.84897 ,18.14213 
218 ,40.7284 ,1.10137 ,1.83528 ,18.00781 
219 ,40.9210 ,1.10327 ,1.84213 ,18.07497 
220 ,41.1128 ,1.10512 ,1.81817 ,17.83992 
221 ,41.3047 ,1.10706 ,1.81817 ,17.83992 
222 ,41.4968 ,1.10907 ,1.79764 ,17.63845 
223 ,41.6891 ,1.11088 ,1.77026 ,17.36983 
224 ,41.8808 ,1.11280 ,1.76342 ,17.30267 
225 ,42.0572 ,1.11465 ,1.76000 ,17.26909 
226 ,42.2649 ,1.11671 ,1.73604 ,17.03404 
227 ,42.4413 ,1.11848 ,1.72578 ,16.93331 
228 ,42.6175 ,1.12025 ,1.71551 ,16.83257 
229 ,42.8253 ,1.12223 ,1.69498 ,16.63110 
230 ,43.0175 ,1.12420 ,1.68129 ,16.49679 
231 ,43.1937 ,1.12605 ,1.65391 ,16.22816 
232 ,43.3697 ,1.12778 ,1.64707 ,16.16101 
233 ,43.5453 ,1.12947 ,1.64707 ,16.16101 
234 ,43.7218 ,1.13131 ,1.62653 ,15.95954 
235 ,43.9141 ,1.13316 ,1.60600 ,15.75807 
236 ,44.0901 ,1.13498 ,1.59573 ,15.65733 
237 ,44.2822 ,1.13678 ,1.58889 ,15.59018 
238 ,44.4902 ,1.13889 ,1.55467 ,15.25439 
239 ,44.6662 ,1.14070 ,1.53413 ,15.05292 
240 ,44.8420 ,1.14245 ,1.55467 ,15.25439 
241 ,45.0344 ,1.14433 ,1.51360 ,14.85145 
242 ,45.2264 ,1.14625 ,1.51702 ,14.88503 
243 ,45.4187 ,1.14810 ,1.49991 ,14.71714 
244 ,45.6266 ,1.15023 ,1.49307 ,14.64998 
245 ,45.8027 ,1.15207 ,1.47253 ,14.44851 
246 ,45.9949 ,1.15396 ,1.45542 ,14.28062 
247 ,46.2190 ,1.15609 ,1.44174 ,14.14631 
248 ,46.3950 ,1.15803 ,1.44174 ,14.14631 
249 ,46.5869 ,1.15989 ,1.39725 ,13.70979 
250 ,46.7792 ,1.16186 ,1.41436 ,13.87768 
251 ,46.9711 ,1.16371 ,1.38356 ,13.57548 
252 ,47.1631 ,1.16559 ,1.36303 ,13.37401 
253 ,47.3554 ,1.16758 ,1.38014 ,13.54190 
254 ,47.5313 ,1.16940 ,1.35960 ,13.34043 
255 ,47.7235 ,1.17122 ,1.35960 ,13.34043 
256 ,47.9156 ,1.17314 ,1.32880 ,13.03822 
257 ,48.0914 ,1.17504 ,1.30827 ,12.83675 
258 ,48.2674 ,1.17668 ,1.29800 ,12.73602 
259 ,48.4437 ,1.17848 ,1.28089 ,12.56813 
260 ,48.6679 ,1.18062 ,1.26036 ,12.36666 
261 ,48.8438 ,1.18254 ,1.26720 ,12.43381 
262 ,49.0361 ,1.18440 ,1.25694 ,12.33308 
263 ,49.2279 ,1.18630 ,1.22614 ,12.03088 
264 ,49.4203 ,1.18816 ,1.21929 ,11.96372 
265 ,49.5961 ,1.18998 ,1.21929 ,11.96372 
266 ,49.7885 ,1.19183 ,1.18165 ,11.59436 
267 ,49.9803 ,1.19374 ,1.18507 ,11.62794 
268 ,50.1724 ,1.19578 ,1.17138 ,11.49362 
269 ,50.3486 ,1.19750 ,1.16454 ,11.42647 
270 ,50.5565 ,1.19954 ,1.14401 ,11.22500 
271 ,50.7485 ,1.20152 ,1.13032 ,11.09068 
272 ,50.9248 ,1.20337 ,1.10636 ,10.85563 
273 ,51.1170 ,1.20521 ,1.12347 ,11.02353 
274 ,51.3085 ,1.20710 ,1.09952 ,10.78848 
275 ,51.4850 ,1.20885 ,1.07214 ,10.51985 
276 ,51.6932 ,1.21091 ,1.06872 ,10.48627 
277 ,51.8852 ,1.21282 ,1.04134 ,10.21765 
278 ,52.0772 ,1.21479 ,1.05161 ,10.31838 
279 ,52.2850 ,1.21681 ,1.02081 ,10.01618 
280 ,52.4616 ,1.21865 ,1.00370 ,9.84829 
281 ,52.6535 ,1.22056 ,1.01396 ,9.94902 
282 ,52.8297 ,1.22232 ,1.00028 ,9.81471 
283 ,53.0057 ,1.22406 ,0.96948 ,9.51250 
284 ,53.1978 ,1.22598 ,0.97632 ,9.57966 
285 ,53.3900 ,1.22793 ,0.96605 ,9.47892 
286 ,53.5820 ,1.22983 ,0.92499 ,9.07598 
287 ,53.7741 ,1.23177 ,0.93183 ,9.14314 
288 ,53.9501 ,1.23350 ,0.92157 ,9.04241 
289 ,54.1421 ,1.23547 ,0.89419 ,8.77378 
290 ,54.3343 ,1.23735 ,0.90788 ,8.90809 
291 ,54.5100 ,1.23914 ,0.89077 ,8.74020 
292 ,54.6862 ,1.24086 ,0.88392 ,8.67305 
293 ,54.8785 ,1.24277 ,0.85997 ,8.43800 
294 ,55.0546 ,1.24456 ,0.85312 ,8.37084 
295 ,55.2466 ,1.24646 ,0.82917 ,8.13579 
296 ,55.4228 ,1.24822 ,0.81548 ,8.00148 
297 ,55.5984 ,1.25000 ,0.82232 ,8.06864 
298 ,55.7908 ,1.25182 ,0.79495 ,7.80001 
299 ,55.9830 ,1.25382 ,0.79495 ,7.80001 
300 ,56.1747 ,1.25574 ,0.79152 ,7.76643 
301 ,56.3511 ,1.25754 ,0.76757 ,7.53138 
302 ,56.5270 ,1.25927 ,0.75388 ,7.39707 
303 ,56.7028 ,1.26100 ,0.72992 ,7.16202 
304 ,56.8788 ,1.26280 ,0.72650 ,7.12844 
305 ,57.0551 ,1.26456 ,0.71966 ,7.06129 
306 ,57.2315 ,1.26634 ,0.72308 ,7.09486 
307 ,57.4237 ,1.26816 ,0.67859 ,6.65835 
308 ,57.5996 ,1.26995 ,0.68544 ,6.72550 
309 ,57.7756 ,1.27181 ,0.67517 ,6.62477 
310 ,57.9838 ,1.27379 ,0.65464 ,6.42330 
311 ,58.1755 ,1.27571 ,0.66148 ,6.49046 
312 ,58.3520 ,1.27747 ,0.65464 ,6.42330 
313 ,58.5440 ,1.27947 ,0.61357 ,6.02036 
314 ,58.7357 ,1.28131 ,0.62042 ,6.08752 
315 ,58.9120 ,1.28314 ,0.61357 ,6.02036 
316 ,59.1041 ,1.28494 ,0.59988 ,5.88605 
317 ,59.2958 ,1.28688 ,0.57593 ,5.65100 
318 ,59.4722 ,1.28871 ,0.57251 ,5.61742 
319 ,59.6483 ,1.29048 ,0.57251 ,5.61742 
320 ,59.8403 ,1.29233 ,0.54513 ,5.34879 
321 ,60.0485 ,1.29447 ,0.54513 ,5.34879 
322 ,60.2406 ,1.29642 ,0.50748 ,4.97943 
323 ,60.4328 ,1.29829 ,0.52802 ,5.18090 
324 ,60.6408 ,1.30033 ,0.49380 ,4.84512 
325 ,60.8329 ,1.30225 ,0.50748 ,4.97943 
326 ,61.0250 ,1.30419 ,0.47668 ,4.67723 
327 ,61.2169 ,1.30619 ,0.46642 ,4.57649 
328 ,61.4090 ,1.30803 ,0.47668 ,4.67723 
329 ,61.5848 ,1.30983 ,0.45273 ,4.44218 
330 ,61.7613 ,1.31160 ,0.42535 ,4.17355 
331 ,61.9371 ,1.31348 ,0.43220 ,4.24071 
332 ,62.1134 ,1.31508 ,0.41851 ,4.10640 
333 ,62.3055 ,1.31705 ,0.40824 ,4.00566 
334 ,62.4976 ,1.31890 ,0.38429 ,3.77061 
335 ,62.7056 ,1.32095 ,0.36375 ,3.56914 
336 ,62.8977 ,1.32289 ,0.37060 ,3.63630 
337 ,63.0734 ,1.32469 ,0.36375 ,3.56914 
338 ,63.2500 ,1.32651 ,0.35691 ,3.50199 
339 ,63.4579 ,1.32849 ,0.33638 ,3.30052 
340 ,63.6660 ,1.33052 ,0.32611 ,3.19978 
341 ,63.8422 ,1.33244 ,0.30558 ,2.99831 
342 ,64.0662 ,1.33455 ,0.30900 ,3.03189 
343 ,64.2422 ,1.33652 ,0.28847 ,2.83042 
344 ,64.4186 ,1.33817 ,0.27820 ,2.72969 
345 ,64.6105 ,1.34009 ,0.28504 ,2.79684 
346 ,64.8021 ,1.34204 ,0.26451 ,2.59537 
347 ,64.9941 ,1.34385 ,0.26109 ,2.56179 
348 ,65.1703 ,1.34567 ,0.23371 ,2.29317 
349 ,65.3462 ,1.34750 ,0.23371 ,2.29317 
350 ,65.5224 ,1.34919 ,0.22344 ,2.19243 
351 ,65.7145 ,1.35108 ,0.22002 ,2.15885 
352 ,65.9067 ,1.35293 ,0.20633 ,2.02454 
353 ,66.0990 ,1.35487 ,0.17896 ,1.75592 
354 ,66.2907 ,1.35682 ,0.18922 ,1.85665 
355 ,66.4671 ,1.35865 ,0.18238 ,1.78949 
356 ,66.6593 ,1.36058 ,0.14816 ,1.45371 
357 ,66.8672 ,1.36257 ,0.15500 ,1.52087 
358 ,67.0594 ,1.36445 ,0.13789 ,1.35298 
359 ,67.2515 ,1.36652 ,0.13105 ,1.28582 
360 ,67.4431 ,1.36850 ,0.10709 ,1.05077 
361 ,67.6197 ,1.37018 ,0.10025 ,0.98361 
362 ,67.8116 ,1.37213 ,0.09682 ,0.95004 
363 ,67.9877 ,1.37380 ,0.10709 ,1.05077 
364 ,68.1799 ,1.37564 ,0.06602 ,0.64783 
365 ,68.3558 ,1.37752 ,0.05918 ,0.58067 
366 ,68.5315 ,1.37936 ,0.04891 ,0.47994 
367 ,68.7082 ,1.38102 ,0.05918 ,0.58067 
368 ,68.8997 ,1.38296 ,0.02496 ,0.24489 
369 ,69.0761 ,1.38475 ,0.01127 ,0.11058 
370 ,69.2523 ,1.38646 ,0.02154 ,0.21131 
371 ,69.4444 ,1.38839 ,0.00443 ,0.04342 
372 ,69.6364 ,1.39028 ,-0.00584 ,-0.05731 
373 ,69.8125 ,1.39208 ,-0.00584 ,-0.05731 
374 ,70.0206 ,1.39412 ,-0.01269 ,-0.12447 
375 ,70.1968 ,1.39592 ,-0.04691 ,-0.46025 
376 ,70.3727 ,1.39771 ,-0.03322 ,-0.32594 
377 ,70.5488 ,1.39944 ,-0.04006 ,-0.39310 
378 ,70.7248 ,1.40113 ,-0.05033 ,-0.49383 
379 ,70.9009 ,1.40296 ,-0.07086 ,-0.69530 
380 ,71.0771 ,1.40469 ,-0.08797 ,-0.86319 
381 ,71.3012 ,1.40679 ,-0.09140 ,-0.89677 
382 ,71.4933 ,1.40883 ,-0.09140 ,-0.89677 
383 ,71.6851 ,1.41074 ,-0.10851 ,-1.06466 
384 ,71.8614 ,1.41259 ,-0.11877 ,-1.16540 
385 ,72.0535 ,1.41456 ,-0.12219 ,-1.19898 
386 ,72.2295 ,1.41623 ,-0.13931 ,-1.36687 
387 ,72.4055 ,1.41795 ,-0.14957 ,-1.46760 
388 ,72.5976 ,1.41985 ,-0.16326 ,-1.60191 
389 ,72.7894 ,1.42182 ,-0.15299 ,-1.50118 
390 ,72.9978 ,1.42381 ,-0.18037 ,-1.76981 
391 ,73.2055 ,1.42591 ,-0.19064 ,-1.87054 
392 ,73.3821 ,1.42773 ,-0.19748 ,-1.93770 
393 ,73.5741 ,1.42963 ,-0.21459 ,-2.10559 
394 ,73.7503 ,1.43141 ,-0.22144 ,-2.17275 
395 ,73.9583 ,1.43348 ,-0.22828 ,-2.23990 
396 ,74.1504 ,1.43542 ,-0.23855 ,-2.34064 
397 ,74.3421 ,1.43730 ,-0.25566 ,-2.50853 
398 ,74.5185 ,1.43912 ,-0.26593 ,-2.60926 
399 ,74.6942 ,1.44090 ,-0.26593 ,-2.60926 
400 ,74.8706 ,1.44265 ,-0.27961 ,-2.74358 
401 ,75.0786 ,1.44469 ,-0.28646 ,-2.81073 
402 ,75.2708 ,1.44664 ,-0.28988 ,-2.84431 
403 ,75.4628 ,1.44855 ,-0.30015 ,-2.94505 
404 ,75.6709 ,1.45056 ,-0.30699 ,-3.01220 
405 ,75.8630 ,1.45248 ,-0.32410 ,-3.18010 
406 ,76.0387 ,1.45431 ,-0.32752 ,-3.21367 
407 ,76.2150 ,1.45608 ,-0.35148 ,-3.44872 
408 ,76.4069 ,1.45798 ,-0.34121 ,-3.34799 
409 ,76.5833 ,1.45979 ,-0.35148 ,-3.44872 
410 ,76.7750 ,1.46161 ,-0.37201 ,-3.65019 
411 ,76.9515 ,1.46344 ,-0.37544 ,-3.68377 
412 ,77.1431 ,1.46531 ,-0.37201 ,-3.65019 
413 ,77.3195 ,1.46715 ,-0.39597 ,-3.88524 
414 ,77.5114 ,1.46892 ,-0.41308 ,-4.05313 
415 ,77.7035 ,1.47092 ,-0.40966 ,-4.01955 
416 ,77.8955 ,1.47282 ,-0.43361 ,-4.25460 
417 ,78.0719 ,1.47464 ,-0.43361 ,-4.25460 
418 ,78.2640 ,1.47655 ,-0.43019 ,-4.22102 
419 ,78.4401 ,1.47834 ,-0.46441 ,-4.55681 
420 ,78.6322 ,1.48019 ,-0.46441 ,-4.55681 
421 ,78.8244 ,1.48210 ,-0.45072 ,-4.42249 
422 ,79.0165 ,1.48413 ,-0.48494 ,-4.75828 
423 ,79.1923 ,1.48585 ,-0.50890 ,-4.99332 
424 ,79.3683 ,1.48763 ,-0.48837 ,-4.79185 
425 ,79.5763 ,1.48961 ,-0.50548 ,-4.95975 
426 ,79.7687 ,1.49162 ,-0.51917 ,-5.09406 
427 ,79.9445 ,1.49337 ,-0.51574 ,-5.06048 
428 ,80.1365 ,1.49520 ,-0.54997 ,-5.39626 
429 ,80.3286 ,1.49723 ,-0.53628 ,-5.26195 
430 ,80.5211 ,1.49913 ,-0.53970 ,-5.29553 
431 ,80.7290 ,1.50112 ,-0.56708 ,-5.56415 
432 ,80.9047 ,1.50293 ,-0.57392 ,-5.63131 
433 ,81.0971 ,1.50481 ,-0.59788 ,-5.86636 
434 ,81.2890 ,1.50681 ,-0.59103 ,-5.79920 
435 ,81.4811 ,1.50872 ,-0.58419 ,-5.73205 
436 ,81.6730 ,1.51054 ,-0.61156 ,-6.00067 
437 ,81.8491 ,1.51237 ,-0.61499 ,-6.03425 
438 ,82.0253 ,1.51417 ,-0.62868 ,-6.16856 
439 ,82.2016 ,1.51593 ,-0.61841 ,-6.06783 
440 ,82.3935 ,1.51787 ,-0.64236 ,-6.30288 
441 ,82.5855 ,1.51974 ,-0.63552 ,-6.23572 
442 ,82.7617 ,1.52153 ,-0.64921 ,-6.37003 
443 ,82.9699 ,1.52354 ,-0.65947 ,-6.47077 
444 ,83.1457 ,1.52538 ,-0.66974 ,-6.57150 
445 ,83.3379 ,1.52724 ,-0.68343 ,-6.70582 
446 ,83.5141 ,1.52908 ,-0.70054 ,-6.87371 
447 ,83.7062 ,1.53091 ,-0.70054 ,-6.87371 
448 ,83.9144 ,1.53301 ,-0.70054 ,-6.87371 
449 ,84.0904 ,1.53484 ,-0.72450 ,-7.10876 
450 ,84.2824 ,1.53675 ,-0.72450 ,-7.10876 
451 ,84.4586 ,1.53844 ,-0.73476 ,-7.20949 
452 ,84.6341 ,1.54029 ,-0.74845 ,-7.34380 
453 ,84.8104 ,1.54202 ,-0.76556 ,-7.51170 
454 ,85.0028 ,1.54390 ,-0.76556 ,-7.51170 
455 ,85.2108 ,1.54584 ,-0.77925 ,-7.64601 
456 ,85.4029 ,1.54787 ,-0.78267 ,-7.67959 
457 ,85.5950 ,1.54978 ,-0.80663 ,-7.91464 
458 ,85.8030 ,1.55180 ,-0.79294 ,-7.78032 
459 ,85.9951 ,1.55381 ,-0.82374 ,-8.08253 
460 ,86.1871 ,1.55569 ,-0.81689 ,-8.01537 
461 ,86.3793 ,1.55760 ,-0.82716 ,-8.11611 
462 ,86.5873 ,1.55966 ,-0.83743 ,-8.21684 
463 ,86.7791 ,1.56168 ,-0.83743 ,-8.21684 
