Data stamp = , 22-04-2022 18:21:46 163

Calibration Values: 
Slope = , 26.54 , g/V 
Offset Voltage at no contact = , -0.501760 , V 

No , Time , Stage Position ,   Mass , Force 
   ,  (s) ,      (mm)      ,   (g)  , (mN)  

1 ,0.0000 ,0.69939 ,5.39092 ,52.89567 
2 ,0.2132 ,0.69948 ,5.37038 ,52.69420 
3 ,0.5173 ,0.70033 ,5.39434 ,52.92925 
4 ,0.7098 ,0.70162 ,5.38065 ,52.79493 
5 ,0.9177 ,0.70331 ,5.37723 ,52.76135 
6 ,1.1101 ,0.70521 ,5.37723 ,52.76135 
7 ,1.3019 ,0.70707 ,5.38749 ,52.86209 
8 ,1.5098 ,0.70910 ,5.37381 ,52.72778 
9 ,1.6863 ,0.71104 ,5.37381 ,52.72778 
10 ,1.8784 ,0.71299 ,5.37381 ,52.72778 
11 ,2.0544 ,0.71481 ,5.33958 ,52.39199 
12 ,2.2306 ,0.71649 ,5.31563 ,52.15694 
13 ,2.4386 ,0.71849 ,5.32247 ,52.22410 
14 ,2.6147 ,0.72032 ,5.28141 ,51.82116 
15 ,2.7905 ,0.72207 ,5.26430 ,51.65327 
16 ,2.9827 ,0.72394 ,5.27114 ,51.72043 
17 ,3.1588 ,0.72575 ,5.25061 ,51.51896 
18 ,3.3665 ,0.72764 ,5.23007 ,51.31749 
19 ,3.5590 ,0.72974 ,5.20270 ,51.04886 
20 ,3.7347 ,0.73153 ,5.18216 ,50.84739 
21 ,3.9112 ,0.73327 ,5.16163 ,50.64592 
22 ,4.1031 ,0.73519 ,5.15821 ,50.61234 
23 ,4.2790 ,0.73700 ,5.16163 ,50.64592 
24 ,4.4714 ,0.73881 ,5.11372 ,50.17583 
25 ,4.6793 ,0.74086 ,5.10003 ,50.04151 
26 ,4.8715 ,0.74290 ,5.06581 ,49.70573 
27 ,5.0634 ,0.74480 ,5.06923 ,49.73931 
28 ,5.2398 ,0.74657 ,5.05212 ,49.57142 
29 ,5.4476 ,0.74856 ,5.03159 ,49.36995 
30 ,5.6241 ,0.75039 ,5.01106 ,49.16848 
31 ,5.7998 ,0.75222 ,4.99394 ,49.00058 
32 ,5.9919 ,0.75408 ,4.96315 ,48.69838 
33 ,6.1680 ,0.75589 ,4.94946 ,48.56407 
34 ,6.3440 ,0.75762 ,4.94603 ,48.53049 
35 ,6.5360 ,0.75952 ,4.90839 ,48.16113 
36 ,6.7280 ,0.76147 ,4.88101 ,47.89250 
37 ,6.9042 ,0.76321 ,4.88786 ,47.95966 
38 ,7.0963 ,0.76513 ,4.85364 ,47.62387 
39 ,7.3041 ,0.76714 ,4.86048 ,47.69103 
40 ,7.4806 ,0.76892 ,4.82626 ,47.35525 
41 ,7.6725 ,0.77089 ,4.80230 ,47.12020 
42 ,7.8487 ,0.77266 ,4.77493 ,46.85157 
43 ,8.0248 ,0.77438 ,4.77150 ,46.81800 
44 ,8.2008 ,0.77618 ,4.75439 ,46.65010 
45 ,8.3769 ,0.77791 ,4.72702 ,46.38148 
46 ,8.5690 ,0.77984 ,4.69964 ,46.11285 
47 ,8.7611 ,0.78169 ,4.70306 ,46.14643 
48 ,8.9532 ,0.78376 ,4.68595 ,45.97854 
49 ,9.1288 ,0.78545 ,4.64831 ,45.60918 
50 ,9.3050 ,0.78720 ,4.64488 ,45.57560 
51 ,9.4814 ,0.78895 ,4.64831 ,45.60918 
52 ,9.6572 ,0.79072 ,4.61751 ,45.30697 
53 ,9.8495 ,0.79262 ,4.59355 ,45.07192 
54 ,10.0415 ,0.79453 ,4.59013 ,45.03835 
55 ,10.2337 ,0.79645 ,4.56275 ,44.76972 
56 ,10.4097 ,0.79825 ,4.52853 ,44.43394 
57 ,10.6018 ,0.80007 ,4.53195 ,44.46751 
58 ,10.7934 ,0.80209 ,4.50800 ,44.23247 
59 ,10.9699 ,0.80387 ,4.47378 ,43.89668 
60 ,11.1458 ,0.80559 ,4.47720 ,43.93026 
61 ,11.3058 ,0.80730 ,4.46351 ,43.79595 
62 ,11.4822 ,0.80897 ,4.44298 ,43.59448 
63 ,11.6738 ,0.81084 ,4.41902 ,43.35943 
64 ,11.8504 ,0.81266 ,4.39507 ,43.12438 
65 ,12.0584 ,0.81469 ,4.39164 ,43.09080 
66 ,12.2345 ,0.81651 ,4.37453 ,42.92291 
67 ,12.4265 ,0.81833 ,4.35742 ,42.75502 
68 ,12.6182 ,0.82027 ,4.33689 ,42.55355 
69 ,12.7949 ,0.82206 ,4.31636 ,42.35208 
70 ,13.0027 ,0.82415 ,4.29924 ,42.18419 
71 ,13.2109 ,0.82607 ,4.26845 ,41.88198 
72 ,13.4025 ,0.82810 ,4.27529 ,41.94914 
73 ,13.5790 ,0.82996 ,4.26160 ,41.81483 
74 ,13.7706 ,0.83175 ,4.22738 ,41.47905 
75 ,13.9468 ,0.83361 ,4.18974 ,41.10968 
76 ,14.1068 ,0.83530 ,4.20342 ,41.24400 
77 ,14.2992 ,0.83702 ,4.18631 ,41.07611 
78 ,14.5074 ,0.83913 ,4.16236 ,40.84106 
79 ,14.6991 ,0.84100 ,4.13840 ,40.60601 
80 ,14.8755 ,0.84290 ,4.12471 ,40.47170 
81 ,15.0675 ,0.84478 ,4.10076 ,40.23665 
82 ,15.2593 ,0.84671 ,4.09734 ,40.20307 
83 ,15.4354 ,0.84844 ,4.08023 ,40.03518 
84 ,15.6114 ,0.85024 ,4.04943 ,39.73297 
85 ,15.8040 ,0.85203 ,4.03574 ,39.59866 
86 ,16.0120 ,0.85423 ,4.00836 ,39.33003 
87 ,16.1882 ,0.85598 ,3.98441 ,39.09499 
88 ,16.3960 ,0.85803 ,3.97756 ,39.02783 
89 ,16.5721 ,0.85984 ,3.95361 ,38.79278 
90 ,16.7804 ,0.86175 ,3.96045 ,38.85994 
91 ,16.9884 ,0.86392 ,3.93307 ,38.59131 
92 ,17.1645 ,0.86579 ,3.90912 ,38.35626 
93 ,17.3565 ,0.86768 ,3.87490 ,38.02048 
94 ,17.5484 ,0.86965 ,3.86463 ,37.91975 
95 ,17.7405 ,0.87146 ,3.86805 ,37.95332 
96 ,17.9174 ,0.87328 ,3.85094 ,37.78543 
97 ,18.0928 ,0.87501 ,3.81330 ,37.41607 
98 ,18.2690 ,0.87679 ,3.79961 ,37.28176 
99 ,18.4450 ,0.87861 ,3.78934 ,37.18102 
100 ,18.6213 ,0.88035 ,3.77908 ,37.08029 
101 ,18.8131 ,0.88220 ,3.74485 ,36.74450 
102 ,19.0054 ,0.88407 ,3.73117 ,36.61019 
103 ,19.1972 ,0.88605 ,3.73459 ,36.64377 
104 ,19.3734 ,0.88786 ,3.70037 ,36.30799 
105 ,19.5653 ,0.88979 ,3.69352 ,36.24083 
106 ,19.7417 ,0.89153 ,3.68325 ,36.14010 
107 ,19.9336 ,0.89339 ,3.63877 ,35.70358 
108 ,20.1417 ,0.89546 ,3.63534 ,35.67000 
109 ,20.3014 ,0.89726 ,3.60797 ,35.40137 
110 ,20.4777 ,0.89890 ,3.62166 ,35.53569 
111 ,20.6693 ,0.90067 ,3.58401 ,35.16632 
112 ,20.8616 ,0.90269 ,3.57375 ,35.06559 
113 ,21.0541 ,0.90459 ,3.54979 ,34.83054 
114 ,21.2779 ,0.90670 ,3.52926 ,34.62907 
115 ,21.4543 ,0.90864 ,3.51215 ,34.46118 
116 ,21.6459 ,0.91059 ,3.49504 ,34.29329 
117 ,21.8225 ,0.91233 ,3.48819 ,34.22613 
118 ,22.0143 ,0.91421 ,3.48135 ,34.15898 
119 ,22.1904 ,0.91599 ,3.44028 ,33.75604 
120 ,22.3663 ,0.91775 ,3.43344 ,33.68888 
121 ,22.5586 ,0.91967 ,3.42659 ,33.62172 
122 ,22.7505 ,0.92151 ,3.39237 ,33.28594 
123 ,22.9268 ,0.92338 ,3.37526 ,33.11805 
124 ,23.1189 ,0.92524 ,3.37526 ,33.11805 
125 ,23.3110 ,0.92721 ,3.34104 ,32.78227 
126 ,23.5192 ,0.92925 ,3.35473 ,32.91658 
127 ,23.7110 ,0.93110 ,3.32393 ,32.61437 
128 ,23.8872 ,0.93294 ,3.29313 ,32.31217 
129 ,24.0789 ,0.93488 ,3.29655 ,32.34575 
130 ,24.2555 ,0.93663 ,3.28286 ,32.21143 
131 ,24.4634 ,0.93868 ,3.24522 ,31.84207 
132 ,24.6393 ,0.94047 ,3.25206 ,31.90923 
133 ,24.8476 ,0.94257 ,3.21784 ,31.57345 
134 ,25.0394 ,0.94450 ,3.21784 ,31.57345 
135 ,25.2155 ,0.94629 ,3.18362 ,31.23766 
136 ,25.3917 ,0.94801 ,3.16651 ,31.06977 
137 ,25.5677 ,0.94976 ,3.15282 ,30.93546 
138 ,25.7595 ,0.95162 ,3.15282 ,30.93546 
139 ,25.9520 ,0.95347 ,3.13913 ,30.80115 
140 ,26.1601 ,0.95569 ,3.11860 ,30.59968 
141 ,26.3521 ,0.95751 ,3.07411 ,30.16316 
142 ,26.5603 ,0.95973 ,3.06726 ,30.09600 
143 ,26.7522 ,0.96154 ,3.05358 ,29.96169 
144 ,26.9286 ,0.96339 ,3.03304 ,29.76022 
145 ,27.1044 ,0.96511 ,3.02962 ,29.72664 
146 ,27.2802 ,0.96690 ,3.01935 ,29.62590 
147 ,27.4725 ,0.96874 ,2.99882 ,29.42444 
148 ,27.6482 ,0.97050 ,2.97829 ,29.22297 
149 ,27.8244 ,0.97229 ,2.97487 ,29.18939 
150 ,28.0008 ,0.97408 ,2.96118 ,29.05507 
151 ,28.1768 ,0.97583 ,2.95776 ,29.02150 
152 ,28.3528 ,0.97761 ,2.91327 ,28.58498 
153 ,28.5291 ,0.97940 ,2.90300 ,28.48424 
154 ,28.7211 ,0.98130 ,2.89958 ,28.45066 
155 ,28.9133 ,0.98317 ,2.89273 ,28.38351 
156 ,29.1052 ,0.98513 ,2.85509 ,28.01415 
157 ,29.2970 ,0.98697 ,2.84482 ,27.91341 
158 ,29.4729 ,0.98881 ,2.83456 ,27.81268 
159 ,29.6495 ,0.99054 ,2.80376 ,27.51047 
160 ,29.8416 ,0.99245 ,2.81060 ,27.57763 
161 ,30.0176 ,0.99429 ,2.79691 ,27.44332 
162 ,30.1936 ,0.99598 ,2.76954 ,27.17469 
163 ,30.3697 ,0.99778 ,2.74558 ,26.93964 
164 ,30.5617 ,0.99966 ,2.74900 ,26.97322 
165 ,30.7379 ,1.00143 ,2.73531 ,26.83891 
166 ,30.9458 ,1.00350 ,2.71136 ,26.60386 
167 ,31.1381 ,1.00539 ,2.69425 ,26.43597 
168 ,31.3302 ,1.00740 ,2.66687 ,26.16734 
169 ,31.5383 ,1.00936 ,2.66345 ,26.13376 
170 ,31.7139 ,1.01125 ,2.62238 ,25.73082 
171 ,31.8905 ,1.01300 ,2.63265 ,25.83156 
172 ,32.0982 ,1.01497 ,2.62238 ,25.73082 
173 ,32.2905 ,1.01683 ,2.60185 ,25.52935 
174 ,32.4666 ,1.01872 ,2.57789 ,25.29430 
175 ,32.6423 ,1.02046 ,2.56421 ,25.15999 
176 ,32.8187 ,1.02229 ,2.56763 ,25.19357 
177 ,33.0108 ,1.02414 ,2.52656 ,24.79063 
178 ,33.2028 ,1.02603 ,2.52998 ,24.82421 
179 ,33.3950 ,1.02799 ,2.50261 ,24.55558 
180 ,33.6190 ,1.03008 ,2.50261 ,24.55558 
181 ,33.7951 ,1.03198 ,2.48207 ,24.35411 
182 ,33.9711 ,1.03376 ,2.45470 ,24.08549 
183 ,34.1473 ,1.03551 ,2.44101 ,23.95117 
184 ,34.3551 ,1.03753 ,2.42732 ,23.81686 
185 ,34.5472 ,1.03951 ,2.40679 ,23.61539 
186 ,34.7234 ,1.04126 ,2.39652 ,23.51465 
187 ,34.8994 ,1.04303 ,2.38625 ,23.41392 
188 ,35.0917 ,1.04492 ,2.35888 ,23.14529 
189 ,35.2677 ,1.04676 ,2.32808 ,22.84309 
190 ,35.4439 ,1.04851 ,2.33150 ,22.87667 
191 ,35.6358 ,1.05034 ,2.33150 ,22.87667 
192 ,35.8441 ,1.05244 ,2.31439 ,22.70877 
193 ,36.0360 ,1.05435 ,2.29728 ,22.54088 
194 ,36.2122 ,1.05620 ,2.27674 ,22.33941 
195 ,36.4042 ,1.05808 ,2.25963 ,22.17152 
196 ,36.5803 ,1.05982 ,2.25963 ,22.17152 
197 ,36.7723 ,1.06176 ,2.22541 ,21.83574 
198 ,36.9481 ,1.06349 ,2.20830 ,21.66785 
199 ,37.1405 ,1.06536 ,2.19803 ,21.56711 
200 ,37.3482 ,1.06750 ,2.18435 ,21.43280 
201 ,37.5407 ,1.06935 ,2.18092 ,21.39922 
202 ,37.7327 ,1.07135 ,2.15355 ,21.13059 
203 ,37.9249 ,1.07320 ,2.13644 ,20.96270 
204 ,38.1007 ,1.07503 ,2.12617 ,20.86197 
205 ,38.2768 ,1.07678 ,2.12617 ,20.86197 
206 ,38.4370 ,1.07849 ,2.09879 ,20.59334 
207 ,38.6130 ,1.08018 ,2.08510 ,20.45903 
208 ,38.7891 ,1.08191 ,2.05773 ,20.19040 
209 ,38.9810 ,1.08377 ,2.07484 ,20.35829 
210 ,39.1732 ,1.08568 ,2.03719 ,19.98893 
211 ,39.3493 ,1.08756 ,2.02693 ,19.88820 
212 ,39.5252 ,1.08926 ,2.00297 ,19.65315 
213 ,39.7174 ,1.09123 ,2.02008 ,19.82104 
214 ,39.8935 ,1.09296 ,1.98586 ,19.48526 
215 ,40.0695 ,1.09468 ,1.96190 ,19.25021 
216 ,40.2457 ,1.09646 ,1.95848 ,19.21663 
217 ,40.4376 ,1.09839 ,1.96190 ,19.25021 
218 ,40.6138 ,1.10019 ,1.94137 ,19.04874 
219 ,40.7899 ,1.10190 ,1.91399 ,18.78011 
220 ,40.9658 ,1.10365 ,1.89688 ,18.61222 
221 ,41.1581 ,1.10551 ,1.89346 ,18.57864 
222 ,41.3338 ,1.10741 ,1.87293 ,18.37717 
223 ,41.5262 ,1.10921 ,1.85582 ,18.20928 
224 ,41.7344 ,1.11131 ,1.83186 ,17.97423 
225 ,41.9104 ,1.11315 ,1.84213 ,18.07497 
226 ,42.1185 ,1.11518 ,1.83186 ,17.97423 
227 ,42.3101 ,1.11711 ,1.79764 ,17.63845 
228 ,42.4863 ,1.11886 ,1.78395 ,17.50414 
229 ,42.6947 ,1.12092 ,1.77026 ,17.36983 
230 ,42.8868 ,1.12277 ,1.74631 ,17.13478 
231 ,43.0789 ,1.12475 ,1.74289 ,17.10120 
232 ,43.2546 ,1.12663 ,1.71551 ,16.83257 
233 ,43.4309 ,1.12829 ,1.71893 ,16.86615 
234 ,43.6068 ,1.13006 ,1.69155 ,16.59752 
235 ,43.7831 ,1.13189 ,1.70866 ,16.76542 
236 ,43.9592 ,1.13363 ,1.68813 ,16.56395 
237 ,44.1513 ,1.13544 ,1.64707 ,16.16101 
238 ,44.3433 ,1.13740 ,1.66075 ,16.29532 
239 ,44.5032 ,1.13912 ,1.63680 ,16.06027 
240 ,44.6795 ,1.14083 ,1.64022 ,16.09385 
241 ,44.8874 ,1.14281 ,1.60258 ,15.72449 
242 ,45.0796 ,1.14481 ,1.61284 ,15.82522 
243 ,45.2555 ,1.14656 ,1.58889 ,15.59018 
244 ,45.4317 ,1.14834 ,1.57862 ,15.48944 
245 ,45.6398 ,1.15023 ,1.54782 ,15.18724 
246 ,45.8317 ,1.15236 ,1.54098 ,15.12008 
247 ,46.0080 ,1.15411 ,1.52045 ,14.91861 
248 ,46.2001 ,1.15606 ,1.52045 ,14.91861 
249 ,46.3921 ,1.15785 ,1.49649 ,14.68356 
250 ,46.5679 ,1.15966 ,1.47596 ,14.48209 
251 ,46.7443 ,1.16147 ,1.45200 ,14.24704 
252 ,46.9524 ,1.16346 ,1.45200 ,14.24704 
253 ,47.1287 ,1.16524 ,1.43147 ,14.04557 
254 ,47.3206 ,1.16718 ,1.44174 ,14.14631 
255 ,47.5123 ,1.16911 ,1.42120 ,13.94484 
256 ,47.6885 ,1.17087 ,1.39725 ,13.70979 
257 ,47.8963 ,1.17290 ,1.40067 ,13.74337 
258 ,48.0723 ,1.17470 ,1.38014 ,13.54190 
259 ,48.2485 ,1.17648 ,1.35960 ,13.34043 
260 ,48.4730 ,1.17870 ,1.35276 ,13.27327 
261 ,48.6648 ,1.18065 ,1.32196 ,12.97107 
262 ,48.8571 ,1.18252 ,1.32196 ,12.97107 
263 ,49.0812 ,1.18463 ,1.30485 ,12.80318 
264 ,49.2893 ,1.18676 ,1.30827 ,12.83675 
265 ,49.5134 ,1.18896 ,1.27063 ,12.46739 
266 ,49.6895 ,1.19087 ,1.26036 ,12.36666 
267 ,49.8816 ,1.19272 ,1.25694 ,12.33308 
268 ,50.0735 ,1.19471 ,1.24325 ,12.19877 
269 ,50.2655 ,1.19655 ,1.20903 ,11.86298 
270 ,50.4738 ,1.19865 ,1.21587 ,11.93014 
271 ,50.6499 ,1.20050 ,1.19192 ,11.69509 
272 ,50.8256 ,1.20222 ,1.16454 ,11.42647 
273 ,51.0181 ,1.20412 ,1.17481 ,11.52720 
274 ,51.2262 ,1.20619 ,1.14058 ,11.19142 
275 ,51.4023 ,1.20807 ,1.14058 ,11.19142 
276 ,51.5943 ,1.20999 ,1.12005 ,10.98995 
277 ,51.7706 ,1.21170 ,1.11663 ,10.95637 
278 ,51.9461 ,1.21343 ,1.09610 ,10.75490 
279 ,52.1224 ,1.21530 ,1.10979 ,10.88921 
280 ,52.3147 ,1.21712 ,1.08583 ,10.65416 
281 ,52.4905 ,1.21891 ,1.05845 ,10.38554 
282 ,52.6667 ,1.22063 ,1.05161 ,10.31838 
283 ,52.8907 ,1.22271 ,1.02765 ,10.08333 
284 ,53.0504 ,1.22462 ,1.01739 ,9.98260 
285 ,53.2429 ,1.22627 ,1.00370 ,9.84829 
286 ,53.4350 ,1.22833 ,1.01396 ,9.94902 
287 ,53.6111 ,1.23010 ,0.97974 ,9.61324 
288 ,53.8032 ,1.23198 ,0.96605 ,9.47892 
289 ,53.9952 ,1.23389 ,0.96948 ,9.51250 
290 ,54.1713 ,1.23569 ,0.94894 ,9.31103 
291 ,54.3794 ,1.23767 ,0.93525 ,9.17672 
292 ,54.5555 ,1.23949 ,0.92841 ,9.10956 
293 ,54.7475 ,1.24142 ,0.89761 ,8.80736 
294 ,54.9397 ,1.24334 ,0.91130 ,8.94167 
295 ,55.1315 ,1.24529 ,0.88734 ,8.70662 
296 ,55.3078 ,1.24713 ,0.86681 ,8.50515 
297 ,55.4839 ,1.24879 ,0.85312 ,8.37084 
298 ,55.6920 ,1.25085 ,0.84970 ,8.33726 
299 ,55.9001 ,1.25286 ,0.82917 ,8.13579 
300 ,56.0920 ,1.25490 ,0.82232 ,8.06864 
301 ,56.2677 ,1.25663 ,0.80179 ,7.86717 
302 ,56.4438 ,1.25840 ,0.77784 ,7.63212 
303 ,56.6363 ,1.26028 ,0.79152 ,7.76643 
304 ,56.8285 ,1.26216 ,0.76072 ,7.46423 
305 ,57.0365 ,1.26430 ,0.76072 ,7.46423 
306 ,57.2285 ,1.26616 ,0.73335 ,7.19560 
307 ,57.4046 ,1.26796 ,0.72650 ,7.12844 
308 ,57.5967 ,1.26995 ,0.73335 ,7.19560 
309 ,57.7888 ,1.27186 ,0.70939 ,6.96055 
310 ,57.9648 ,1.27355 ,0.68886 ,6.75908 
311 ,58.1568 ,1.27548 ,0.69228 ,6.79266 
312 ,58.3331 ,1.27730 ,0.67859 ,6.65835 
313 ,58.5086 ,1.27914 ,0.64779 ,6.35614 
314 ,58.6848 ,1.28080 ,0.63410 ,6.22183 
315 ,58.8611 ,1.28259 ,0.64437 ,6.32256 
316 ,59.0532 ,1.28449 ,0.63753 ,6.25541 
317 ,59.2296 ,1.28626 ,0.60673 ,5.95320 
318 ,59.4210 ,1.28816 ,0.60673 ,5.95320 
319 ,59.5975 ,1.28998 ,0.57251 ,5.61742 
320 ,59.7735 ,1.29180 ,0.57251 ,5.61742 
321 ,59.9336 ,1.29338 ,0.55882 ,5.48311 
322 ,60.1097 ,1.29507 ,0.55882 ,5.48311 
323 ,60.3178 ,1.29704 ,0.54171 ,5.31522 
324 ,60.5095 ,1.29896 ,0.52802 ,5.18090 
325 ,60.7017 ,1.30087 ,0.51433 ,5.04659 
326 ,60.8940 ,1.30288 ,0.50748 ,4.97943 
327 ,61.0860 ,1.30479 ,0.49037 ,4.81154 
328 ,61.2778 ,1.30666 ,0.50064 ,4.91228 
329 ,61.4543 ,1.30848 ,0.48011 ,4.71081 
330 ,61.6299 ,1.31039 ,0.45615 ,4.47576 
331 ,61.8066 ,1.31202 ,0.44588 ,4.37502 
332 ,61.9984 ,1.31384 ,0.45615 ,4.47576 
333 ,62.1743 ,1.31565 ,0.44931 ,4.40860 
334 ,62.3506 ,1.31741 ,0.41509 ,4.07282 
335 ,62.5270 ,1.31919 ,0.39797 ,3.90493 
336 ,62.7186 ,1.32116 ,0.39797 ,3.90493 
337 ,62.9108 ,1.32302 ,0.38429 ,3.77061 
338 ,63.1190 ,1.32495 ,0.37402 ,3.66988 
339 ,63.2950 ,1.32692 ,0.37060 ,3.63630 
340 ,63.4710 ,1.32869 ,0.33980 ,3.33410 
341 ,63.6472 ,1.33040 ,0.33638 ,3.30052 
342 ,63.8227 ,1.33224 ,0.32953 ,3.23336 
343 ,63.9993 ,1.33393 ,0.31242 ,3.06547 
344 ,64.1754 ,1.33566 ,0.30900 ,3.03189 
345 ,64.3515 ,1.33747 ,0.29873 ,2.93116 
346 ,64.5595 ,1.33955 ,0.28847 ,2.83042 
347 ,64.7354 ,1.34129 ,0.28504 ,2.79684 
348 ,64.9436 ,1.34333 ,0.25767 ,2.52822 
349 ,65.1192 ,1.34516 ,0.24398 ,2.39390 
350 ,65.2958 ,1.34685 ,0.23713 ,2.32675 
351 ,65.4719 ,1.34866 ,0.24055 ,2.36032 
352 ,65.6641 ,1.35057 ,0.20633 ,2.02454 
353 ,65.8398 ,1.35238 ,0.21318 ,2.09170 
354 ,66.0159 ,1.35413 ,0.19607 ,1.92381 
355 ,66.1922 ,1.35586 ,0.19949 ,1.95738 
356 ,66.3842 ,1.35773 ,0.16869 ,1.65518 
357 ,66.5603 ,1.35955 ,0.16185 ,1.58802 
358 ,66.7683 ,1.36149 ,0.15500 ,1.52087 
359 ,66.9764 ,1.36359 ,0.13105 ,1.28582 
360 ,67.1683 ,1.36551 ,0.12762 ,1.25224 
361 ,67.3447 ,1.36736 ,0.11393 ,1.11793 
362 ,67.5525 ,1.36939 ,0.10709 ,1.05077 
363 ,67.7287 ,1.37120 ,0.10025 ,0.98361 
364 ,67.9046 ,1.37294 ,0.07629 ,0.74857 
365 ,68.0809 ,1.37474 ,0.07971 ,0.78214 
366 ,68.2569 ,1.37647 ,0.07971 ,0.78214 
367 ,68.4491 ,1.37838 ,0.06602 ,0.64783 
368 ,68.6410 ,1.38022 ,0.04207 ,0.41278 
369 ,68.8494 ,1.38230 ,0.05576 ,0.54710 
370 ,69.0570 ,1.38444 ,0.04891 ,0.47994 
371 ,69.2334 ,1.38628 ,0.03865 ,0.37920 
372 ,69.4255 ,1.38816 ,-0.00242 ,-0.02373 
373 ,69.6336 ,1.39010 ,0.00785 ,0.07700 
374 ,69.8097 ,1.39201 ,-0.01269 ,-0.12447 
375 ,70.0176 ,1.39405 ,-0.00926 ,-0.09089 
376 ,70.1938 ,1.39580 ,-0.01611 ,-0.15805 
377 ,70.3858 ,1.39777 ,-0.03664 ,-0.35952 
378 ,70.5619 ,1.39952 ,-0.05717 ,-0.56099 
379 ,70.7381 ,1.40125 ,-0.06402 ,-0.62814 
380 ,70.9304 ,1.40312 ,-0.07428 ,-0.72888 
381 ,71.1222 ,1.40511 ,-0.08797 ,-0.86319 
382 ,71.2822 ,1.40685 ,-0.07428 ,-0.72888 
383 ,71.4584 ,1.40847 ,-0.08455 ,-0.82961 
384 ,71.6344 ,1.41027 ,-0.09140 ,-0.89677 
385 ,71.8264 ,1.41208 ,-0.11877 ,-1.16540 
386 ,72.0346 ,1.41419 ,-0.12562 ,-1.23255 
387 ,72.2265 ,1.41610 ,-0.13246 ,-1.29971 
388 ,72.4026 ,1.41790 ,-0.15642 ,-1.53476 
389 ,72.5948 ,1.41983 ,-0.13931 ,-1.36687 
390 ,72.7709 ,1.42163 ,-0.15984 ,-1.56834 
391 ,72.9788 ,1.42361 ,-0.19064 ,-1.87054 
392 ,73.1549 ,1.42543 ,-0.15984 ,-1.56834 
393 ,73.3307 ,1.42720 ,-0.18722 ,-1.83696 
394 ,73.5067 ,1.42902 ,-0.20090 ,-1.97128 
395 ,73.6828 ,1.43081 ,-0.19748 ,-1.93770 
396 ,73.8748 ,1.43254 ,-0.20433 ,-2.00485 
397 ,74.0510 ,1.43440 ,-0.21459 ,-2.10559 
398 ,74.2275 ,1.43620 ,-0.23855 ,-2.34064 
399 ,74.4510 ,1.43826 ,-0.24539 ,-2.40779 
400 ,74.6275 ,1.44017 ,-0.25566 ,-2.50853 
401 ,74.8037 ,1.44189 ,-0.26935 ,-2.64284 
402 ,75.0117 ,1.44390 ,-0.26593 ,-2.60926 
403 ,75.2037 ,1.44585 ,-0.27277 ,-2.67642 
404 ,75.3798 ,1.44769 ,-0.29673 ,-2.91147 
405 ,75.5560 ,1.44944 ,-0.29330 ,-2.87789 
406 ,75.7480 ,1.45133 ,-0.31726 ,-3.11294 
407 ,75.9243 ,1.45315 ,-0.33437 ,-3.28083 
408 ,76.0999 ,1.45490 ,-0.32752 ,-3.21367 
409 ,76.2760 ,1.45662 ,-0.32410 ,-3.18010 
410 ,76.4685 ,1.45852 ,-0.34806 ,-3.41514 
411 ,76.6445 ,1.46031 ,-0.36517 ,-3.58303 
412 ,76.8363 ,1.46225 ,-0.36517 ,-3.58303 
413 ,77.0124 ,1.46401 ,-0.36517 ,-3.58303 
414 ,77.2206 ,1.46592 ,-0.39939 ,-3.91882 
415 ,77.4288 ,1.46811 ,-0.40281 ,-3.95240 
416 ,77.5887 ,1.46992 ,-0.40623 ,-3.98597 
417 ,77.7808 ,1.47167 ,-0.41308 ,-4.05313 
418 ,77.9568 ,1.47343 ,-0.42335 ,-4.15387 
419 ,78.1332 ,1.47521 ,-0.41308 ,-4.05313 
420 ,78.3252 ,1.47706 ,-0.43703 ,-4.28818 
421 ,78.5010 ,1.47891 ,-0.45414 ,-4.45607 
422 ,78.6929 ,1.48080 ,-0.45072 ,-4.42249 
423 ,78.8695 ,1.48260 ,-0.46441 ,-4.55681 
424 ,79.0770 ,1.48462 ,-0.48152 ,-4.72470 
425 ,79.2536 ,1.48640 ,-0.47468 ,-4.65754 
426 ,79.4296 ,1.48818 ,-0.50206 ,-4.92617 
427 ,79.6058 ,1.48993 ,-0.51232 ,-5.02690 
428 ,79.7975 ,1.49187 ,-0.51917 ,-5.09406 
429 ,79.9736 ,1.49363 ,-0.50548 ,-4.95975 
430 ,80.1656 ,1.49553 ,-0.50548 ,-4.95975 
431 ,80.3421 ,1.49729 ,-0.53970 ,-5.29553 
432 ,80.5502 ,1.49930 ,-0.54997 ,-5.39626 
433 ,80.7416 ,1.50130 ,-0.56023 ,-5.49700 
434 ,80.9342 ,1.50318 ,-0.55681 ,-5.46342 
435 ,81.1103 ,1.50498 ,-0.56708 ,-5.56415 
436 ,81.2864 ,1.50672 ,-0.58761 ,-5.76562 
437 ,81.4786 ,1.50861 ,-0.60130 ,-5.89994 
438 ,81.6705 ,1.51058 ,-0.59445 ,-5.83278 
439 ,81.8461 ,1.51227 ,-0.60814 ,-5.96709 
440 ,82.0226 ,1.51405 ,-0.61841 ,-6.06783 
441 ,82.1987 ,1.51587 ,-0.60814 ,-5.96709 
442 ,82.4228 ,1.51783 ,-0.62525 ,-6.13499 
443 ,82.6308 ,1.52001 ,-0.62868 ,-6.16856 
444 ,82.8069 ,1.52197 ,-0.64579 ,-6.33646 
445 ,82.9987 ,1.52374 ,-0.65263 ,-6.40361 
446 ,83.1911 ,1.52571 ,-0.66632 ,-6.53793 
447 ,83.3830 ,1.52775 ,-0.66632 ,-6.53793 
448 ,83.5590 ,1.52940 ,-0.66974 ,-6.57150 
449 ,83.7347 ,1.53118 ,-0.68685 ,-6.73940 
450 ,83.9275 ,1.53313 ,-0.71081 ,-6.97444 
451 ,84.1031 ,1.53492 ,-0.70396 ,-6.90729 
452 ,84.2954 ,1.53674 ,-0.70054 ,-6.87371 
453 ,84.4716 ,1.53855 ,-0.72450 ,-7.10876 
454 ,84.6636 ,1.54045 ,-0.74503 ,-7.31023 
455 ,84.8398 ,1.54227 ,-0.73476 ,-7.20949 
456 ,85.0157 ,1.54406 ,-0.74503 ,-7.31023 
457 ,85.1916 ,1.54575 ,-0.76898 ,-7.54527 
458 ,85.3679 ,1.54753 ,-0.77925 ,-7.64601 
459 ,85.5757 ,1.54953 ,-0.77583 ,-7.61243 
460 ,85.7521 ,1.55135 ,-0.78267 ,-7.67959 
461 ,85.9284 ,1.55310 ,-0.79978 ,-7.84748 
462 ,86.1205 ,1.55505 ,-0.81689 ,-8.01537 
463 ,86.2958 ,1.55695 ,-0.80663 ,-7.91464 
