Data stamp = , 23-04-2022 17:46:47 889

Calibration Values: 
Slope = , 26.54 , g/V 
Offset Voltage at no contact = , -0.501760 , V 

No , Time , Stage Position ,   Mass , Force 
   ,  (s) ,      (mm)      ,   (g)  , (mN)  

1 ,0.0000 ,0.69945 ,5.29167 ,51.92190 
2 ,0.2035 ,0.69952 ,5.31221 ,52.12337 
3 ,0.6521 ,0.70098 ,5.30536 ,52.05621 
4 ,0.8437 ,0.70280 ,5.29852 ,51.98905 
5 ,1.0202 ,0.70442 ,5.29167 ,51.92190 
6 ,1.1960 ,0.70617 ,5.28825 ,51.88832 
7 ,1.3724 ,0.70791 ,5.29852 ,51.98905 
8 ,1.5804 ,0.70995 ,5.31563 ,52.15694 
9 ,1.7885 ,0.71207 ,5.29167 ,51.92190 
10 ,1.9645 ,0.71387 ,5.28141 ,51.82116 
11 ,2.1407 ,0.71560 ,5.25745 ,51.58611 
12 ,2.3327 ,0.71754 ,5.22665 ,51.28391 
13 ,2.5245 ,0.71941 ,5.24034 ,51.41822 
14 ,2.7167 ,0.72133 ,5.19585 ,50.98170 
15 ,2.9089 ,0.72330 ,5.19243 ,50.94813 
16 ,3.1168 ,0.72527 ,5.17532 ,50.78023 
17 ,3.3091 ,0.72722 ,5.14794 ,50.51161 
18 ,3.5011 ,0.72910 ,5.14452 ,50.47803 
19 ,3.6935 ,0.73110 ,5.11372 ,50.17583 
20 ,3.9011 ,0.73312 ,5.10688 ,50.10867 
21 ,4.0934 ,0.73512 ,5.05212 ,49.57142 
22 ,4.2695 ,0.73691 ,5.06239 ,49.67215 
23 ,4.4616 ,0.73885 ,5.04870 ,49.53784 
24 ,4.6375 ,0.74058 ,5.02132 ,49.26921 
25 ,4.8137 ,0.74235 ,4.99394 ,49.00058 
26 ,5.0055 ,0.74430 ,4.99394 ,49.00058 
27 ,5.1819 ,0.74602 ,4.96315 ,48.69838 
28 ,5.3580 ,0.74777 ,4.94261 ,48.49691 
29 ,5.5500 ,0.74965 ,4.92892 ,48.36260 
30 ,5.7417 ,0.75166 ,4.91523 ,48.22828 
31 ,5.9339 ,0.75344 ,4.89812 ,48.06039 
32 ,6.1263 ,0.75544 ,4.88101 ,47.89250 
33 ,6.3024 ,0.75730 ,4.85364 ,47.62387 
34 ,6.4785 ,0.75902 ,4.83995 ,47.48956 
35 ,6.6706 ,0.76084 ,4.83652 ,47.45598 
36 ,6.8783 ,0.76288 ,4.79888 ,47.08662 
37 ,7.0547 ,0.76472 ,4.77493 ,46.85157 
38 ,7.2467 ,0.76666 ,4.76124 ,46.71726 
39 ,7.4389 ,0.76848 ,4.73728 ,46.48221 
40 ,7.6310 ,0.77052 ,4.71675 ,46.28074 
41 ,7.8230 ,0.77239 ,4.72017 ,46.31432 
42 ,8.0150 ,0.77427 ,4.67226 ,45.84422 
43 ,8.2232 ,0.77644 ,4.66884 ,45.81065 
44 ,8.3993 ,0.77819 ,4.65515 ,45.67633 
45 ,8.5749 ,0.78001 ,4.63462 ,45.47486 
46 ,8.7669 ,0.78179 ,4.61751 ,45.30697 
47 ,8.9591 ,0.78370 ,4.58671 ,45.00477 
48 ,9.1516 ,0.78570 ,4.57986 ,44.93761 
49 ,9.3435 ,0.78762 ,4.57302 ,44.87045 
50 ,9.5198 ,0.78943 ,4.55591 ,44.70256 
51 ,9.7115 ,0.79131 ,4.52169 ,44.36678 
52 ,9.8877 ,0.79301 ,4.52169 ,44.36678 
53 ,10.0636 ,0.79485 ,4.50115 ,44.16531 
54 ,10.2561 ,0.79670 ,4.46009 ,43.76237 
55 ,10.4481 ,0.79868 ,4.45324 ,43.69521 
56 ,10.6563 ,0.80071 ,4.42244 ,43.39301 
57 ,10.8804 ,0.80289 ,4.42586 ,43.42659 
58 ,11.0564 ,0.80475 ,4.39507 ,43.12438 
59 ,11.2481 ,0.80660 ,4.39164 ,43.09080 
60 ,11.4565 ,0.80867 ,4.34373 ,42.62071 
61 ,11.6323 ,0.81052 ,4.34373 ,42.62071 
62 ,11.8086 ,0.81219 ,4.32320 ,42.41924 
63 ,11.9845 ,0.81410 ,4.31636 ,42.35208 
64 ,12.1604 ,0.81578 ,4.30609 ,42.25135 
65 ,12.3366 ,0.81751 ,4.29240 ,42.11703 
66 ,12.5128 ,0.81934 ,4.26845 ,41.88198 
67 ,12.7051 ,0.82126 ,4.24791 ,41.68051 
68 ,12.8971 ,0.82308 ,4.22053 ,41.41189 
69 ,13.0732 ,0.82489 ,4.20685 ,41.27758 
70 ,13.2493 ,0.82664 ,4.18631 ,41.07611 
71 ,13.4414 ,0.82856 ,4.18974 ,41.10968 
72 ,13.6655 ,0.83078 ,4.16920 ,40.90821 
73 ,13.8737 ,0.83285 ,4.13840 ,40.60601 
74 ,14.0656 ,0.83480 ,4.13156 ,40.53885 
75 ,14.2577 ,0.83668 ,4.08023 ,40.03518 
76 ,14.4498 ,0.83859 ,4.09391 ,40.16949 
77 ,14.6577 ,0.84067 ,4.06312 ,39.86729 
78 ,14.8500 ,0.84267 ,4.03232 ,39.56508 
79 ,15.0420 ,0.84451 ,4.04600 ,39.69940 
80 ,15.2342 ,0.84646 ,4.00836 ,39.33003 
81 ,15.4098 ,0.84834 ,3.99467 ,39.19572 
82 ,15.6024 ,0.85016 ,3.98783 ,39.12856 
83 ,15.8102 ,0.85223 ,3.95361 ,38.79278 
84 ,15.9865 ,0.85401 ,3.96045 ,38.85994 
85 ,16.1626 ,0.85583 ,3.93307 ,38.59131 
86 ,16.3707 ,0.85776 ,3.90570 ,38.32268 
87 ,16.5627 ,0.85971 ,3.89885 ,38.25553 
88 ,16.7386 ,0.86152 ,3.88858 ,38.15479 
89 ,16.9144 ,0.86334 ,3.85436 ,37.81901 
90 ,17.1067 ,0.86518 ,3.84410 ,37.71828 
91 ,17.2987 ,0.86717 ,3.82014 ,37.48323 
92 ,17.4750 ,0.86897 ,3.79619 ,37.24818 
93 ,17.6511 ,0.87066 ,3.77565 ,37.04671 
94 ,17.8273 ,0.87248 ,3.76881 ,36.97955 
95 ,18.0193 ,0.87430 ,3.75512 ,36.84524 
96 ,18.1952 ,0.87609 ,3.73801 ,36.67735 
97 ,18.3878 ,0.87796 ,3.73801 ,36.67735 
98 ,18.5634 ,0.87978 ,3.71063 ,36.40872 
99 ,18.7556 ,0.88165 ,3.68668 ,36.17367 
100 ,18.9316 ,0.88350 ,3.65588 ,35.87147 
101 ,19.1239 ,0.88535 ,3.66272 ,35.93863 
102 ,19.3318 ,0.88746 ,3.62508 ,35.56926 
103 ,19.5399 ,0.88947 ,3.63192 ,35.63642 
104 ,19.7155 ,0.89128 ,3.60454 ,35.36779 
105 ,19.8920 ,0.89310 ,3.57375 ,35.06559 
106 ,20.0680 ,0.89484 ,3.55321 ,34.86412 
107 ,20.2441 ,0.89657 ,3.55663 ,34.89770 
108 ,20.4203 ,0.89834 ,3.54295 ,34.76338 
109 ,20.6444 ,0.90046 ,3.53268 ,34.66265 
110 ,20.8204 ,0.90237 ,3.49846 ,34.32687 
111 ,20.9965 ,0.90409 ,3.48477 ,34.19255 
112 ,21.1887 ,0.90597 ,3.47450 ,34.09182 
113 ,21.3647 ,0.90781 ,3.45739 ,33.92393 
114 ,21.5728 ,0.90984 ,3.42659 ,33.62172 
115 ,21.7648 ,0.91172 ,3.42659 ,33.62172 
116 ,21.9248 ,0.91349 ,3.40606 ,33.42025 
117 ,22.1010 ,0.91516 ,3.39579 ,33.31952 
118 ,22.2769 ,0.91688 ,3.37184 ,33.08447 
119 ,22.4527 ,0.91880 ,3.34446 ,32.81584 
120 ,22.6130 ,0.92037 ,3.33077 ,32.68153 
121 ,22.8051 ,0.92215 ,3.33077 ,32.68153 
122 ,22.9812 ,0.92394 ,3.31024 ,32.48006 
123 ,23.1573 ,0.92572 ,3.29655 ,32.34575 
124 ,23.3335 ,0.92747 ,3.26917 ,32.07712 
125 ,23.5095 ,0.92926 ,3.25206 ,31.90923 
126 ,23.6855 ,0.93097 ,3.24180 ,31.80849 
127 ,23.8617 ,0.93278 ,3.24180 ,31.80849 
128 ,24.0215 ,0.93448 ,3.22126 ,31.60702 
129 ,24.1975 ,0.93612 ,3.20073 ,31.40555 
130 ,24.3898 ,0.93797 ,3.18704 ,31.27124 
131 ,24.5659 ,0.93979 ,3.18020 ,31.20409 
132 ,24.7259 ,0.94151 ,3.16651 ,31.06977 
133 ,24.9340 ,0.94334 ,3.13913 ,30.80115 
134 ,25.1260 ,0.94547 ,3.13571 ,30.76757 
135 ,25.3023 ,0.94715 ,3.12202 ,30.63325 
136 ,25.4943 ,0.94903 ,3.07753 ,30.19674 
137 ,25.6705 ,0.95088 ,3.08095 ,30.23031 
138 ,25.8785 ,0.95282 ,3.08095 ,30.23031 
139 ,26.0864 ,0.95495 ,3.05015 ,29.92811 
140 ,26.2626 ,0.95684 ,3.02962 ,29.72664 
141 ,26.4708 ,0.95871 ,3.00909 ,29.52517 
142 ,26.6627 ,0.96069 ,3.00224 ,29.45801 
143 ,26.8389 ,0.96254 ,2.98855 ,29.32370 
144 ,27.0309 ,0.96436 ,2.96802 ,29.12223 
145 ,27.2066 ,0.96629 ,2.95776 ,29.02150 
146 ,27.3834 ,0.96799 ,2.94749 ,28.92076 
147 ,27.5753 ,0.96995 ,2.91669 ,28.61856 
148 ,27.7513 ,0.97161 ,2.89616 ,28.41709 
149 ,27.9434 ,0.97357 ,2.89273 ,28.38351 
150 ,28.1354 ,0.97543 ,2.87905 ,28.24919 
151 ,28.3110 ,0.97720 ,2.84482 ,27.91341 
152 ,28.4876 ,0.97895 ,2.84482 ,27.91341 
153 ,28.6797 ,0.98080 ,2.84140 ,27.87983 
154 ,28.8718 ,0.98284 ,2.80718 ,27.54405 
155 ,29.0478 ,0.98459 ,2.79349 ,27.40974 
156 ,29.2559 ,0.98665 ,2.78665 ,27.34258 
157 ,29.4159 ,0.98840 ,2.74900 ,26.97322 
158 ,29.5920 ,0.99006 ,2.73874 ,26.87248 
159 ,29.7680 ,0.99185 ,2.72505 ,26.73817 
160 ,29.9442 ,0.99356 ,2.71820 ,26.67101 
161 ,30.1203 ,0.99532 ,2.71478 ,26.63744 
162 ,30.3123 ,0.99716 ,2.68740 ,26.36881 
163 ,30.4724 ,0.99897 ,2.67029 ,26.20092 
164 ,30.6484 ,1.00061 ,2.65660 ,26.06661 
165 ,30.8565 ,1.00249 ,2.63265 ,25.83156 
166 ,31.0327 ,1.00442 ,2.60185 ,25.52935 
167 ,31.2248 ,1.00634 ,2.61554 ,25.66367 
168 ,31.4165 ,1.00821 ,2.58132 ,25.32788 
169 ,31.6247 ,1.01026 ,2.58474 ,25.36146 
170 ,31.8167 ,1.01233 ,2.56421 ,25.15999 
171 ,32.0089 ,1.01411 ,2.55052 ,25.02568 
172 ,32.2009 ,1.01611 ,2.52998 ,24.82421 
173 ,32.3934 ,1.01807 ,2.51287 ,24.65632 
174 ,32.5688 ,1.01975 ,2.49918 ,24.52200 
175 ,32.7454 ,1.02159 ,2.48550 ,24.38769 
176 ,32.9531 ,1.02363 ,2.45812 ,24.11906 
177 ,33.1455 ,1.02557 ,2.46839 ,24.21980 
178 ,33.3376 ,1.02745 ,2.43416 ,23.88402 
179 ,33.5296 ,1.02937 ,2.41705 ,23.71612 
180 ,33.7055 ,1.03113 ,2.42048 ,23.74970 
181 ,33.8817 ,1.03293 ,2.39994 ,23.54823 
182 ,34.0739 ,1.03482 ,2.37256 ,23.27961 
183 ,34.2820 ,1.03682 ,2.36914 ,23.24603 
184 ,34.4902 ,1.03898 ,2.35203 ,23.07814 
185 ,34.7139 ,1.04119 ,2.32465 ,22.80951 
186 ,34.9061 ,1.04317 ,2.32123 ,22.77593 
187 ,35.0984 ,1.04505 ,2.29385 ,22.50731 
188 ,35.2905 ,1.04692 ,2.28701 ,22.44015 
189 ,35.4820 ,1.04889 ,2.26648 ,22.23868 
190 ,35.6585 ,1.05066 ,2.24937 ,22.07079 
191 ,35.8341 ,1.05250 ,2.24594 ,22.03721 
192 ,36.0103 ,1.05416 ,2.22541 ,21.83574 
193 ,36.2027 ,1.05606 ,2.20146 ,21.60069 
194 ,36.3788 ,1.05785 ,2.20146 ,21.60069 
195 ,36.5709 ,1.05979 ,2.17066 ,21.29849 
196 ,36.7468 ,1.06154 ,2.17750 ,21.36564 
197 ,36.9386 ,1.06342 ,2.13986 ,20.99628 
198 ,37.1148 ,1.06520 ,2.11248 ,20.72766 
199 ,37.2910 ,1.06700 ,2.11932 ,20.79481 
200 ,37.4670 ,1.06872 ,2.09879 ,20.59334 
201 ,37.6433 ,1.07050 ,2.10221 ,20.62692 
202 ,37.8194 ,1.07231 ,2.09195 ,20.52619 
203 ,37.9952 ,1.07409 ,2.08168 ,20.42545 
204 ,38.1717 ,1.07584 ,2.04061 ,20.02251 
205 ,38.3638 ,1.07770 ,2.04404 ,20.05609 
206 ,38.5558 ,1.07958 ,2.01666 ,19.78746 
207 ,38.7478 ,1.08155 ,2.01324 ,19.75388 
208 ,38.9400 ,1.08345 ,1.99955 ,19.61957 
209 ,39.1159 ,1.08531 ,1.98586 ,19.48526 
210 ,39.2921 ,1.08699 ,1.96190 ,19.25021 
211 ,39.4843 ,1.08891 ,1.95848 ,19.21663 
212 ,39.6923 ,1.09094 ,1.94137 ,19.04874 
213 ,39.8679 ,1.09277 ,1.93111 ,18.94801 
214 ,40.0445 ,1.09451 ,1.92768 ,18.91443 
215 ,40.2364 ,1.09643 ,1.89688 ,18.61222 
216 ,40.4285 ,1.09834 ,1.88662 ,18.51149 
217 ,40.6367 ,1.10037 ,1.87293 ,18.37717 
218 ,40.8287 ,1.10234 ,1.86266 ,18.27644 
219 ,41.0208 ,1.10422 ,1.82160 ,17.87350 
220 ,41.2124 ,1.10615 ,1.81817 ,17.83992 
221 ,41.3890 ,1.10792 ,1.81475 ,17.80634 
222 ,41.5970 ,1.10999 ,1.79764 ,17.63845 
223 ,41.8050 ,1.11197 ,1.79080 ,17.57129 
224 ,41.9967 ,1.11397 ,1.76684 ,17.33625 
225 ,42.1893 ,1.11588 ,1.74289 ,17.10120 
226 ,42.3814 ,1.11786 ,1.73946 ,17.06762 
227 ,42.5735 ,1.11983 ,1.71893 ,16.86615 
228 ,42.7654 ,1.12165 ,1.71551 ,16.83257 
229 ,42.9416 ,1.12348 ,1.70866 ,16.76542 
230 ,43.1496 ,1.12545 ,1.67444 ,16.42963 
231 ,43.3413 ,1.12751 ,1.67102 ,16.39605 
232 ,43.5177 ,1.12926 ,1.65391 ,16.22816 
233 ,43.7099 ,1.13118 ,1.63680 ,16.06027 
234 ,43.9020 ,1.13309 ,1.62995 ,15.99311 
235 ,44.0939 ,1.13491 ,1.61284 ,15.82522 
236 ,44.2861 ,1.13686 ,1.60258 ,15.72449 
237 ,44.4781 ,1.13880 ,1.57178 ,15.42228 
238 ,44.6542 ,1.14061 ,1.55467 ,15.25439 
239 ,44.8624 ,1.14265 ,1.55809 ,15.28797 
240 ,45.0380 ,1.14444 ,1.53071 ,15.01934 
241 ,45.2306 ,1.14629 ,1.53413 ,15.05292 
242 ,45.4225 ,1.14820 ,1.51360 ,14.85145 
243 ,45.5982 ,1.15003 ,1.50676 ,14.78430 
244 ,45.7907 ,1.15195 ,1.48965 ,14.61640 
245 ,45.9667 ,1.15370 ,1.49307 ,14.64998 
246 ,46.1749 ,1.15574 ,1.46227 ,14.34778 
247 ,46.3667 ,1.15766 ,1.45200 ,14.24704 
248 ,46.5586 ,1.15962 ,1.43831 ,14.11273 
249 ,46.7349 ,1.16141 ,1.40409 ,13.77695 
250 ,46.9111 ,1.16316 ,1.40751 ,13.81053 
251 ,47.1032 ,1.16495 ,1.40751 ,13.81053 
252 ,47.2955 ,1.16701 ,1.38698 ,13.60906 
253 ,47.5032 ,1.16903 ,1.38356 ,13.57548 
254 ,47.6631 ,1.17078 ,1.34934 ,13.23969 
255 ,47.8395 ,1.17247 ,1.33565 ,13.10538 
256 ,48.0317 ,1.17431 ,1.34249 ,13.17254 
257 ,48.2398 ,1.17634 ,1.31512 ,12.90391 
258 ,48.4318 ,1.17826 ,1.31854 ,12.93749 
259 ,48.6238 ,1.18023 ,1.28089 ,12.56813 
260 ,48.8157 ,1.18217 ,1.29116 ,12.66886 
261 ,49.0237 ,1.18412 ,1.26036 ,12.36666 
262 ,49.2159 ,1.18613 ,1.26378 ,12.40024 
263 ,49.3923 ,1.18797 ,1.25352 ,12.29950 
264 ,49.5677 ,1.18976 ,1.23298 ,12.09803 
265 ,49.7442 ,1.19146 ,1.22956 ,12.06445 
266 ,49.9043 ,1.19320 ,1.19876 ,11.76225 
267 ,50.0644 ,1.19480 ,1.17138 ,11.49362 
268 ,50.2563 ,1.19652 ,1.18507 ,11.62794 
269 ,50.4326 ,1.19833 ,1.16454 ,11.42647 
270 ,50.6244 ,1.20025 ,1.15427 ,11.32573 
271 ,50.8165 ,1.20216 ,1.13374 ,11.12426 
272 ,50.9927 ,1.20397 ,1.12347 ,11.02353 
273 ,51.1847 ,1.20587 ,1.11321 ,10.92279 
274 ,51.3609 ,1.20766 ,1.10636 ,10.85563 
275 ,51.5369 ,1.20938 ,1.07556 ,10.55343 
276 ,51.7131 ,1.21116 ,1.09267 ,10.72132 
277 ,51.9050 ,1.21309 ,1.05845 ,10.38554 
278 ,52.0972 ,1.21492 ,1.05503 ,10.35196 
279 ,52.2893 ,1.21683 ,1.03450 ,10.15049 
280 ,52.4654 ,1.21866 ,1.02423 ,10.04976 
281 ,52.6574 ,1.22057 ,0.99685 ,9.78113 
282 ,52.8496 ,1.22244 ,0.99343 ,9.74755 
283 ,53.0412 ,1.22436 ,0.98317 ,9.64682 
284 ,53.2175 ,1.22620 ,0.96605 ,9.47892 
285 ,53.4098 ,1.22809 ,0.97290 ,9.54608 
286 ,53.6016 ,1.23000 ,0.94210 ,9.24388 
287 ,53.7779 ,1.23178 ,0.92841 ,9.10956 
288 ,53.9700 ,1.23375 ,0.93183 ,9.14314 
289 ,54.1621 ,1.23563 ,0.91130 ,8.94167 
290 ,54.3542 ,1.23755 ,0.90788 ,8.90809 
291 ,54.5623 ,1.23958 ,0.87708 ,8.60589 
292 ,54.7383 ,1.24146 ,0.86339 ,8.47158 
293 ,54.9305 ,1.24324 ,0.87708 ,8.60589 
294 ,55.1062 ,1.24509 ,0.85997 ,8.43800 
295 ,55.2822 ,1.24687 ,0.83259 ,8.16937 
296 ,55.4586 ,1.24859 ,0.82917 ,8.13579 
297 ,55.6344 ,1.25038 ,0.82575 ,8.10221 
298 ,55.8107 ,1.25216 ,0.80863 ,7.93432 
299 ,56.0188 ,1.25414 ,0.80179 ,7.86717 
300 ,56.2266 ,1.25627 ,0.77441 ,7.59854 
301 ,56.4188 ,1.25812 ,0.77099 ,7.56496 
302 ,56.6112 ,1.26000 ,0.76415 ,7.49780 
303 ,56.8031 ,1.26198 ,0.72992 ,7.16202 
304 ,56.9954 ,1.26396 ,0.71966 ,7.06129 
305 ,57.2033 ,1.26599 ,0.70255 ,6.89340 
306 ,57.3795 ,1.26781 ,0.69228 ,6.79266 
307 ,57.5714 ,1.26974 ,0.69913 ,6.85982 
308 ,57.7796 ,1.27169 ,0.66490 ,6.52403 
309 ,57.9554 ,1.27361 ,0.66833 ,6.55761 
310 ,58.1318 ,1.27533 ,0.67175 ,6.59119 
311 ,58.3235 ,1.27726 ,0.64095 ,6.28899 
312 ,58.4999 ,1.27896 ,0.62726 ,6.15467 
313 ,58.6920 ,1.28093 ,0.62384 ,6.12109 
314 ,58.9001 ,1.28298 ,0.60673 ,5.95320 
315 ,59.0921 ,1.28494 ,0.60673 ,5.95320 
316 ,59.2843 ,1.28683 ,0.57593 ,5.65100 
317 ,59.4758 ,1.28867 ,0.58962 ,5.78531 
318 ,59.6520 ,1.29053 ,0.57593 ,5.65100 
319 ,59.8284 ,1.29225 ,0.55882 ,5.48311 
320 ,60.0202 ,1.29424 ,0.53828 ,5.28164 
321 ,60.2126 ,1.29612 ,0.53486 ,5.24806 
322 ,60.3888 ,1.29795 ,0.50406 ,4.94585 
323 ,60.5647 ,1.29963 ,0.50406 ,4.94585 
324 ,60.7408 ,1.30138 ,0.49037 ,4.81154 
325 ,60.9328 ,1.30332 ,0.49380 ,4.84512 
326 ,61.1090 ,1.30505 ,0.47668 ,4.67723 
327 ,61.3011 ,1.30687 ,0.46642 ,4.57649 
328 ,61.4932 ,1.30880 ,0.44931 ,4.40860 
329 ,61.6851 ,1.31085 ,0.43904 ,4.30787 
330 ,61.8613 ,1.31263 ,0.41851 ,4.10640 
331 ,62.0534 ,1.31447 ,0.41851 ,4.10640 
332 ,62.2454 ,1.31648 ,0.41509 ,4.07282 
333 ,62.4216 ,1.31820 ,0.38086 ,3.73703 
334 ,62.6133 ,1.32012 ,0.39113 ,3.83777 
335 ,62.7896 ,1.32186 ,0.37402 ,3.66988 
336 ,62.9978 ,1.32388 ,0.36375 ,3.56914 
337 ,63.1738 ,1.32575 ,0.36033 ,3.53557 
338 ,63.3817 ,1.32775 ,0.34664 ,3.40125 
339 ,63.5741 ,1.32967 ,0.34664 ,3.40125 
340 ,63.7655 ,1.33168 ,0.30900 ,3.03189 
341 ,63.9422 ,1.33343 ,0.30215 ,2.96473 
342 ,64.1503 ,1.33534 ,0.29189 ,2.86400 
343 ,64.3423 ,1.33731 ,0.28847 ,2.83042 
344 ,64.5344 ,1.33933 ,0.28847 ,2.83042 
345 ,64.7266 ,1.34124 ,0.25424 ,2.49464 
346 ,64.9022 ,1.34306 ,0.26109 ,2.56179 
347 ,65.0944 ,1.34486 ,0.25082 ,2.46106 
348 ,65.2706 ,1.34667 ,0.24055 ,2.36032 
349 ,65.4463 ,1.34839 ,0.22002 ,2.15885 
350 ,65.6229 ,1.35022 ,0.19949 ,1.95738 
351 ,65.8149 ,1.35217 ,0.22002 ,2.15885 
352 ,66.0069 ,1.35397 ,0.18238 ,1.78949 
353 ,66.1990 ,1.35595 ,0.17896 ,1.75592 
354 ,66.3912 ,1.35787 ,0.18238 ,1.78949 
355 ,66.5833 ,1.35977 ,0.15500 ,1.52087 
356 ,66.7914 ,1.36179 ,0.15500 ,1.52087 
357 ,66.9670 ,1.36363 ,0.14131 ,1.38655 
358 ,67.1434 ,1.36541 ,0.12078 ,1.18508 
359 ,67.3195 ,1.36714 ,0.11393 ,1.11793 
360 ,67.4956 ,1.36889 ,0.13789 ,1.35298 
361 ,67.6877 ,1.37082 ,0.09682 ,0.95004 
362 ,67.8638 ,1.37261 ,0.06945 ,0.68141 
363 ,68.0555 ,1.37443 ,0.09340 ,0.91646 
364 ,68.2319 ,1.37627 ,0.07629 ,0.74857 
365 ,68.4241 ,1.37812 ,0.03865 ,0.37920 
366 ,68.6159 ,1.38007 ,0.06260 ,0.61425 
367 ,68.8080 ,1.38192 ,0.02838 ,0.27847 
368 ,68.9998 ,1.38391 ,0.03522 ,0.34563 
369 ,69.1757 ,1.38570 ,0.02496 ,0.24489 
370 ,69.3519 ,1.38752 ,0.02154 ,0.21131 
371 ,69.5283 ,1.38927 ,0.00100 ,0.00984 
372 ,69.7523 ,1.39140 ,-0.00242 ,-0.02373 
373 ,69.9446 ,1.39344 ,-0.00926 ,-0.09089 
374 ,70.1207 ,1.39519 ,-0.03664 ,-0.35952 
375 ,70.2965 ,1.39689 ,-0.02980 ,-0.29236 
376 ,70.4727 ,1.39867 ,-0.05033 ,-0.49383 
377 ,70.6487 ,1.40043 ,-0.04691 ,-0.46025 
378 ,70.8250 ,1.40217 ,-0.07428 ,-0.72888 
379 ,71.0169 ,1.40408 ,-0.07771 ,-0.76246 
380 ,71.2091 ,1.40596 ,-0.07771 ,-0.76246 
381 ,71.4171 ,1.40803 ,-0.10508 ,-1.03108 
382 ,71.6090 ,1.41007 ,-0.10166 ,-0.99751 
383 ,71.8011 ,1.41198 ,-0.12904 ,-1.26613 
384 ,71.9930 ,1.41389 ,-0.13246 ,-1.29971 
385 ,72.1691 ,1.41564 ,-0.12904 ,-1.26613 
386 ,72.3451 ,1.41737 ,-0.15299 ,-1.50118 
387 ,72.5377 ,1.41922 ,-0.16326 ,-1.60191 
388 ,72.7298 ,1.42126 ,-0.16326 ,-1.60191 
389 ,72.9219 ,1.42317 ,-0.18037 ,-1.76981 
390 ,73.0979 ,1.42494 ,-0.19406 ,-1.90412 
391 ,73.2740 ,1.42670 ,-0.18722 ,-1.83696 
392 ,73.4821 ,1.42865 ,-0.20775 ,-2.03843 
393 ,73.6901 ,1.43065 ,-0.21459 ,-2.10559 
394 ,73.8823 ,1.43276 ,-0.24197 ,-2.37422 
395 ,74.0903 ,1.43469 ,-0.24539 ,-2.40779 
396 ,74.2824 ,1.43671 ,-0.24881 ,-2.44137 
397 ,74.4742 ,1.43870 ,-0.23513 ,-2.30706 
398 ,74.6663 ,1.44053 ,-0.27619 ,-2.71000 
399 ,74.8586 ,1.44247 ,-0.27277 ,-2.67642 
400 ,75.0506 ,1.44435 ,-0.30015 ,-2.94505 
401 ,75.2267 ,1.44619 ,-0.28988 ,-2.84431 
402 ,75.4188 ,1.44815 ,-0.31041 ,-3.04578 
403 ,75.6263 ,1.45006 ,-0.31384 ,-3.07936 
404 ,75.8027 ,1.45196 ,-0.32752 ,-3.21367 
405 ,75.9790 ,1.45372 ,-0.32752 ,-3.21367 
406 ,76.1873 ,1.45575 ,-0.34806 ,-3.41514 
407 ,76.3792 ,1.45767 ,-0.35490 ,-3.48230 
408 ,76.5869 ,1.45973 ,-0.35490 ,-3.48230 
409 ,76.7793 ,1.46171 ,-0.37886 ,-3.71735 
410 ,76.9874 ,1.46374 ,-0.36517 ,-3.58303 
411 ,77.1796 ,1.46566 ,-0.38912 ,-3.81808 
412 ,77.3713 ,1.46755 ,-0.40623 ,-3.98597 
413 ,77.5476 ,1.46941 ,-0.39939 ,-3.91882 
414 ,77.7553 ,1.47143 ,-0.40966 ,-4.01955 
415 ,77.9478 ,1.47330 ,-0.44730 ,-4.38891 
416 ,78.1399 ,1.47534 ,-0.44730 ,-4.38891 
417 ,78.3159 ,1.47704 ,-0.43361 ,-4.25460 
418 ,78.4922 ,1.47884 ,-0.45414 ,-4.45607 
419 ,78.6842 ,1.48079 ,-0.47468 ,-4.65754 
420 ,78.8438 ,1.48251 ,-0.47468 ,-4.65754 
421 ,79.0203 ,1.48413 ,-0.48494 ,-4.75828 
422 ,79.2284 ,1.48611 ,-0.49863 ,-4.89259 
423 ,79.4205 ,1.48814 ,-0.51232 ,-5.02690 
424 ,79.6119 ,1.48997 ,-0.50890 ,-4.99332 
425 ,79.8041 ,1.49194 ,-0.51574 ,-5.06048 
426 ,79.9803 ,1.49375 ,-0.54312 ,-5.32911 
427 ,80.1565 ,1.49544 ,-0.52943 ,-5.19479 
428 ,80.3324 ,1.49723 ,-0.53285 ,-5.22837 
429 ,80.5088 ,1.49898 ,-0.56023 ,-5.49700 
430 ,80.7007 ,1.50085 ,-0.55681 ,-5.46342 
431 ,80.8768 ,1.50273 ,-0.57050 ,-5.59773 
432 ,81.0686 ,1.50459 ,-0.57392 ,-5.63131 
433 ,81.2451 ,1.50635 ,-0.59445 ,-5.83278 
434 ,81.4528 ,1.50840 ,-0.59445 ,-5.83278 
435 ,81.6451 ,1.51030 ,-0.60814 ,-5.96709 
436 ,81.8533 ,1.51235 ,-0.61841 ,-6.06783 
437 ,82.0614 ,1.51446 ,-0.61841 ,-6.06783 
438 ,82.2534 ,1.51640 ,-0.62868 ,-6.16856 
439 ,82.4296 ,1.51820 ,-0.63552 ,-6.23572 
440 ,82.6213 ,1.52007 ,-0.65605 ,-6.43719 
441 ,82.7977 ,1.52188 ,-0.66290 ,-6.50435 
442 ,82.9737 ,1.52363 ,-0.65947 ,-6.47077 
443 ,83.1498 ,1.52541 ,-0.66974 ,-6.57150 
444 ,83.3418 ,1.52730 ,-0.69027 ,-6.77297 
445 ,83.5180 ,1.52906 ,-0.68685 ,-6.73940 
446 ,83.7260 ,1.53116 ,-0.72450 ,-7.10876 
447 ,83.9182 ,1.53297 ,-0.71423 ,-7.00802 
448 ,84.1263 ,1.53511 ,-0.73134 ,-7.17591 
449 ,84.3018 ,1.53695 ,-0.72107 ,-7.07518 
450 ,84.4944 ,1.53876 ,-0.74161 ,-7.27665 
451 ,84.7024 ,1.54087 ,-0.74503 ,-7.31023 
452 ,84.8785 ,1.54269 ,-0.76556 ,-7.51170 
453 ,85.0703 ,1.54453 ,-0.77925 ,-7.64601 
454 ,85.2787 ,1.54660 ,-0.76898 ,-7.54527 
455 ,85.4707 ,1.54855 ,-0.79294 ,-7.78032 
456 ,85.6308 ,1.55031 ,-0.80663 ,-7.91464 
457 ,85.7908 ,1.55192 ,-0.81347 ,-7.98179 
458 ,85.9668 ,1.55355 ,-0.81689 ,-8.01537 
459 ,86.1590 ,1.55542 ,-0.81005 ,-7.94821 
460 ,86.3350 ,1.55725 ,-0.81347 ,-7.98179 
461 ,86.5111 ,1.55899 ,-0.84085 ,-8.25042 
462 ,86.7034 ,1.56093 ,-0.85796 ,-8.41831 
463 ,86.8955 ,1.56278 ,-0.84427 ,-8.28400 
