Data stamp = , 23-04-2022 08:20:52 214

Calibration Values: 
Slope = , 26.54 , g/V 
Offset Voltage at no contact = , -0.501760 , V 

No , Time , Stage Position ,   Mass , Force 
   ,  (s) ,      (mm)      ,   (g)  , (mN)  

1 ,0.0000 ,0.69936 ,5.24376 ,51.45180 
2 ,0.2101 ,0.69944 ,5.24034 ,51.41822 
3 ,0.6904 ,0.70103 ,5.23007 ,51.31749 
4 ,0.8984 ,0.70310 ,5.26772 ,51.68685 
5 ,1.0906 ,0.70498 ,5.24718 ,51.48538 
6 ,1.2989 ,0.70693 ,5.26087 ,51.61969 
7 ,1.5071 ,0.70893 ,5.24376 ,51.45180 
8 ,1.6991 ,0.71116 ,5.25061 ,51.51896 
9 ,1.8747 ,0.71282 ,5.25061 ,51.51896 
10 ,2.0513 ,0.71461 ,5.20954 ,51.11602 
11 ,2.2433 ,0.71649 ,5.21296 ,51.14960 
12 ,2.4194 ,0.71831 ,5.20954 ,51.11602 
13 ,2.5954 ,0.72002 ,5.18559 ,50.88097 
14 ,2.8030 ,0.72203 ,5.15479 ,50.57876 
15 ,2.9794 ,0.72387 ,5.15136 ,50.54519 
16 ,3.1876 ,0.72595 ,5.11372 ,50.17583 
17 ,3.3797 ,0.72783 ,5.12056 ,50.24298 
18 ,3.5559 ,0.72961 ,5.09319 ,49.97436 
19 ,3.7638 ,0.73166 ,5.07265 ,49.77289 
20 ,3.9715 ,0.73372 ,5.02474 ,49.30279 
21 ,4.1480 ,0.73557 ,5.01448 ,49.20205 
22 ,4.3242 ,0.73736 ,4.99737 ,49.03416 
23 ,4.5003 ,0.73908 ,5.00079 ,49.06774 
24 ,4.6921 ,0.74099 ,4.96657 ,48.73196 
25 ,4.8841 ,0.74290 ,4.94946 ,48.56407 
26 ,5.0764 ,0.74475 ,4.93577 ,48.42975 
27 ,5.2843 ,0.74687 ,4.90839 ,48.16113 
28 ,5.4766 ,0.74880 ,4.88444 ,47.92608 
29 ,5.6527 ,0.75058 ,4.88101 ,47.89250 
30 ,5.8447 ,0.75251 ,4.85364 ,47.62387 
31 ,6.0209 ,0.75431 ,4.83652 ,47.45598 
32 ,6.2126 ,0.75619 ,4.82626 ,47.35525 
33 ,6.4050 ,0.75810 ,4.80230 ,47.12020 
34 ,6.5807 ,0.75990 ,4.78519 ,46.95231 
35 ,6.7892 ,0.76189 ,4.75782 ,46.68368 
36 ,6.9808 ,0.76386 ,4.75097 ,46.61653 
37 ,7.1568 ,0.76563 ,4.74070 ,46.51579 
38 ,7.3334 ,0.76743 ,4.72017 ,46.31432 
39 ,7.5415 ,0.76944 ,4.69622 ,46.07927 
40 ,7.7491 ,0.77154 ,4.67911 ,45.91138 
41 ,7.9092 ,0.77328 ,4.65515 ,45.67633 
42 ,8.0693 ,0.77487 ,4.62435 ,45.37413 
43 ,8.2454 ,0.77654 ,4.61066 ,45.23981 
44 ,8.4219 ,0.77831 ,4.60724 ,45.20624 
45 ,8.6139 ,0.78016 ,4.59355 ,45.07192 
46 ,8.8059 ,0.78211 ,4.56960 ,44.83688 
47 ,8.9821 ,0.78387 ,4.56275 ,44.76972 
48 ,9.1582 ,0.78568 ,4.54222 ,44.56825 
49 ,9.3497 ,0.78749 ,4.52853 ,44.43394 
50 ,9.5262 ,0.78931 ,4.50115 ,44.16531 
51 ,9.7025 ,0.79104 ,4.48062 ,43.96384 
52 ,9.8783 ,0.79287 ,4.48062 ,43.96384 
53 ,10.0864 ,0.79495 ,4.44640 ,43.62806 
54 ,10.2948 ,0.79699 ,4.42929 ,43.46016 
55 ,10.4706 ,0.79881 ,4.41902 ,43.35943 
56 ,10.6625 ,0.80064 ,4.41218 ,43.29227 
57 ,10.8383 ,0.80241 ,4.39849 ,43.15796 
58 ,11.0149 ,0.80425 ,4.37795 ,42.95649 
59 ,11.2068 ,0.80603 ,4.34716 ,42.65429 
60 ,11.3830 ,0.80788 ,4.34031 ,42.58713 
61 ,11.5590 ,0.80966 ,4.32320 ,42.41924 
62 ,11.7512 ,0.81154 ,4.29924 ,42.18419 
63 ,11.9431 ,0.81339 ,4.27871 ,41.98272 
64 ,12.1513 ,0.81556 ,4.25133 ,41.71409 
65 ,12.3275 ,0.81735 ,4.24449 ,41.64694 
66 ,12.5190 ,0.81919 ,4.22738 ,41.47905 
67 ,12.6956 ,0.82106 ,4.21027 ,41.31115 
68 ,12.8871 ,0.82294 ,4.18631 ,41.07611 
69 ,13.0956 ,0.82495 ,4.17262 ,40.94179 
70 ,13.2715 ,0.82677 ,4.16236 ,40.84106 
71 ,13.4795 ,0.82882 ,4.14867 ,40.70674 
72 ,13.6398 ,0.83056 ,4.13840 ,40.60601 
73 ,13.8160 ,0.83225 ,4.12471 ,40.47170 
74 ,14.0081 ,0.83416 ,4.08365 ,40.06876 
75 ,14.1999 ,0.83598 ,4.08707 ,40.10233 
76 ,14.3763 ,0.83785 ,4.06312 ,39.86729 
77 ,14.5522 ,0.83960 ,4.04943 ,39.73297 
78 ,14.7282 ,0.84139 ,4.01863 ,39.43077 
79 ,14.9044 ,0.84306 ,3.99467 ,39.19572 
80 ,15.0801 ,0.84487 ,3.98098 ,39.06141 
81 ,15.2563 ,0.84662 ,3.98098 ,39.06141 
82 ,15.4333 ,0.84836 ,3.96045 ,38.85994 
83 ,15.6406 ,0.85041 ,3.93992 ,38.65847 
84 ,15.8007 ,0.85216 ,3.93650 ,38.62489 
85 ,15.9766 ,0.85382 ,3.91254 ,38.38984 
86 ,16.1530 ,0.85557 ,3.90570 ,38.32268 
87 ,16.3450 ,0.85741 ,3.87490 ,38.02048 
88 ,16.5531 ,0.85948 ,3.86463 ,37.91975 
89 ,16.7452 ,0.86147 ,3.82356 ,37.51681 
90 ,16.9377 ,0.86337 ,3.81672 ,37.44965 
91 ,17.1294 ,0.86535 ,3.79619 ,37.24818 
92 ,17.3212 ,0.86730 ,3.78934 ,37.18102 
93 ,17.5132 ,0.86911 ,3.77908 ,37.08029 
94 ,17.7054 ,0.87102 ,3.74143 ,36.71093 
95 ,17.8810 ,0.87281 ,3.72090 ,36.50946 
96 ,18.0577 ,0.87464 ,3.71063 ,36.40872 
97 ,18.2495 ,0.87653 ,3.70037 ,36.30799 
98 ,18.4418 ,0.87838 ,3.67983 ,36.10652 
99 ,18.6497 ,0.88047 ,3.64903 ,35.80431 
100 ,18.8259 ,0.88229 ,3.63877 ,35.70358 
101 ,19.0019 ,0.88404 ,3.62166 ,35.53569 
102 ,19.2100 ,0.88609 ,3.61139 ,35.43495 
103 ,19.3861 ,0.88787 ,3.60112 ,35.33422 
104 ,19.5621 ,0.88966 ,3.57375 ,35.06559 
105 ,19.7384 ,0.89143 ,3.57032 ,35.03201 
106 ,19.9308 ,0.89335 ,3.56006 ,34.93128 
107 ,20.1383 ,0.89532 ,3.51215 ,34.46118 
108 ,20.3145 ,0.89720 ,3.51215 ,34.46118 
109 ,20.4904 ,0.89895 ,3.50530 ,34.39402 
110 ,20.6825 ,0.90077 ,3.46766 ,34.02466 
111 ,20.8583 ,0.90259 ,3.44713 ,33.82319 
112 ,21.0505 ,0.90452 ,3.44713 ,33.82319 
113 ,21.2427 ,0.90647 ,3.40948 ,33.45383 
114 ,21.4350 ,0.90833 ,3.40606 ,33.42025 
115 ,21.6268 ,0.91020 ,3.40606 ,33.42025 
116 ,21.8351 ,0.91230 ,3.38553 ,33.21878 
117 ,22.0110 ,0.91409 ,3.37184 ,33.08447 
118 ,22.2192 ,0.91612 ,3.34104 ,32.78227 
119 ,22.3951 ,0.91795 ,3.34788 ,32.84942 
120 ,22.5714 ,0.91970 ,3.31708 ,32.54722 
121 ,22.7634 ,0.92161 ,3.27259 ,32.11070 
122 ,22.9555 ,0.92346 ,3.27602 ,32.14428 
123 ,23.1318 ,0.92531 ,3.27602 ,32.14428 
124 ,23.3236 ,0.92724 ,3.23495 ,31.74134 
125 ,23.5158 ,0.92912 ,3.22811 ,31.67418 
126 ,23.7239 ,0.93115 ,3.20415 ,31.43913 
127 ,23.9159 ,0.93314 ,3.18362 ,31.23766 
128 ,24.1080 ,0.93505 ,3.18020 ,31.20409 
129 ,24.2837 ,0.93681 ,3.15282 ,30.93546 
130 ,24.4601 ,0.93862 ,3.13229 ,30.73399 
131 ,24.6519 ,0.94053 ,3.13913 ,30.80115 
132 ,24.8285 ,0.94230 ,3.11518 ,30.56610 
133 ,25.0204 ,0.94420 ,3.08438 ,30.26389 
134 ,25.2124 ,0.94611 ,3.09122 ,30.33105 
135 ,25.3880 ,0.94792 ,3.05015 ,29.92811 
136 ,25.5643 ,0.94967 ,3.05700 ,29.99527 
137 ,25.7567 ,0.95155 ,3.03647 ,29.79380 
138 ,25.9488 ,0.95339 ,3.01593 ,29.59233 
139 ,26.1409 ,0.95541 ,2.99198 ,29.35728 
140 ,26.3490 ,0.95737 ,2.98855 ,29.32370 
141 ,26.5410 ,0.95945 ,2.96118 ,29.05507 
142 ,26.7491 ,0.96139 ,2.95433 ,28.98792 
143 ,26.9256 ,0.96331 ,2.94749 ,28.92076 
144 ,27.1011 ,0.96505 ,2.92696 ,28.71929 
145 ,27.2773 ,0.96678 ,2.89958 ,28.45066 
146 ,27.4693 ,0.96871 ,2.90300 ,28.48424 
147 ,27.6773 ,0.97072 ,2.86878 ,28.14846 
148 ,27.8694 ,0.97269 ,2.86193 ,28.08130 
149 ,28.0456 ,0.97446 ,2.85851 ,28.04772 
150 ,28.2376 ,0.97637 ,2.81402 ,27.61121 
151 ,28.4137 ,0.97811 ,2.81060 ,27.57763 
152 ,28.6053 ,0.98009 ,2.79349 ,27.40974 
153 ,28.7813 ,0.98180 ,2.77296 ,27.20827 
154 ,28.9574 ,0.98359 ,2.76269 ,27.10753 
155 ,29.1175 ,0.98531 ,2.75927 ,27.07395 
156 ,29.2937 ,0.98695 ,2.73874 ,26.87248 
157 ,29.5021 ,0.98898 ,2.72163 ,26.70459 
158 ,29.6778 ,0.99074 ,2.69767 ,26.46954 
159 ,29.8541 ,0.99252 ,2.69083 ,26.40239 
160 ,30.0463 ,0.99436 ,2.67714 ,26.26807 
161 ,30.2225 ,0.99618 ,2.65660 ,26.06661 
162 ,30.4143 ,0.99809 ,2.64292 ,25.93229 
163 ,30.6063 ,0.99999 ,2.64634 ,25.96587 
164 ,30.7826 ,1.00178 ,2.61554 ,25.66367 
165 ,30.9587 ,1.00354 ,2.58132 ,25.32788 
166 ,31.1348 ,1.00539 ,2.58132 ,25.32788 
167 ,31.3110 ,1.00705 ,2.58474 ,25.36146 
168 ,31.4867 ,1.00889 ,2.57105 ,25.22715 
169 ,31.6625 ,1.01060 ,2.55052 ,25.02568 
170 ,31.8388 ,1.01235 ,2.51972 ,24.72347 
171 ,32.0151 ,1.01409 ,2.50603 ,24.58916 
172 ,32.2392 ,1.01622 ,2.48892 ,24.42127 
173 ,32.4152 ,1.01816 ,2.47181 ,24.25338 
174 ,32.6073 ,1.02000 ,2.47523 ,24.28696 
175 ,32.7834 ,1.02179 ,2.45812 ,24.11906 
176 ,32.9754 ,1.02374 ,2.44443 ,23.98475 
177 ,33.1516 ,1.02543 ,2.43074 ,23.85044 
178 ,33.3434 ,1.02733 ,2.39994 ,23.54823 
179 ,33.5358 ,1.02930 ,2.39994 ,23.54823 
180 ,33.7117 ,1.03110 ,2.38283 ,23.38034 
181 ,33.8879 ,1.03285 ,2.36914 ,23.24603 
182 ,34.0960 ,1.03478 ,2.34519 ,23.01098 
183 ,34.2878 ,1.03688 ,2.33834 ,22.94382 
184 ,34.4642 ,1.03861 ,2.32465 ,22.80951 
185 ,34.6720 ,1.04065 ,2.30070 ,22.57446 
186 ,34.8483 ,1.04246 ,2.29385 ,22.50731 
187 ,35.0400 ,1.04435 ,2.27332 ,22.30584 
188 ,35.2164 ,1.04613 ,2.24937 ,22.07079 
189 ,35.4086 ,1.04794 ,2.24937 ,22.07079 
190 ,35.6005 ,1.04989 ,2.20488 ,21.63427 
191 ,35.7767 ,1.05176 ,2.20488 ,21.63427 
192 ,35.9848 ,1.05373 ,2.20488 ,21.63427 
193 ,36.1609 ,1.05568 ,2.17750 ,21.36564 
194 ,36.3371 ,1.05735 ,2.16381 ,21.23133 
195 ,36.5289 ,1.05924 ,2.16723 ,21.26491 
196 ,36.7051 ,1.06095 ,2.16039 ,21.19775 
197 ,36.9125 ,1.06300 ,2.12959 ,20.89555 
198 ,37.1213 ,1.06511 ,2.11248 ,20.72766 
199 ,37.3134 ,1.06703 ,2.08852 ,20.49261 
200 ,37.5214 ,1.06912 ,2.08168 ,20.42545 
201 ,37.6974 ,1.07101 ,2.06115 ,20.22398 
202 ,37.8730 ,1.07270 ,2.04746 ,20.08967 
203 ,38.0494 ,1.07442 ,2.05088 ,20.12325 
204 ,38.2253 ,1.07622 ,2.03035 ,19.92178 
205 ,38.4179 ,1.07804 ,2.01666 ,19.78746 
206 ,38.6258 ,1.08018 ,2.00982 ,19.72031 
207 ,38.8179 ,1.08203 ,1.96533 ,19.28379 
208 ,38.9938 ,1.08393 ,1.95506 ,19.18305 
209 ,39.1861 ,1.08585 ,1.95848 ,19.21663 
210 ,39.3618 ,1.08763 ,1.92426 ,18.88085 
211 ,39.5384 ,1.08936 ,1.92768 ,18.91443 
212 ,39.7303 ,1.09124 ,1.90373 ,18.67938 
213 ,39.9062 ,1.09299 ,1.89688 ,18.61222 
214 ,40.1145 ,1.09502 ,1.87635 ,18.41075 
215 ,40.3226 ,1.09712 ,1.86951 ,18.34360 
216 ,40.4824 ,1.09888 ,1.83871 ,18.04139 
217 ,40.6748 ,1.10064 ,1.83871 ,18.04139 
218 ,40.8506 ,1.10247 ,1.81817 ,17.83992 
219 ,41.0430 ,1.10440 ,1.82160 ,17.87350 
220 ,41.2510 ,1.10639 ,1.79422 ,17.60487 
221 ,41.4274 ,1.10824 ,1.78395 ,17.50414 
222 ,41.6032 ,1.11006 ,1.76684 ,17.33625 
223 ,41.7792 ,1.11172 ,1.76000 ,17.26909 
224 ,41.9553 ,1.11347 ,1.73946 ,17.06762 
225 ,42.1474 ,1.11534 ,1.73946 ,17.06762 
226 ,42.3555 ,1.11742 ,1.71551 ,16.83257 
227 ,42.5312 ,1.11927 ,1.68813 ,16.56395 
228 ,42.7077 ,1.12105 ,1.67786 ,16.46321 
229 ,42.8993 ,1.12292 ,1.68129 ,16.49679 
230 ,43.1079 ,1.12493 ,1.65733 ,16.26174 
231 ,43.2999 ,1.12687 ,1.63338 ,16.02669 
232 ,43.4917 ,1.12885 ,1.61627 ,15.85880 
233 ,43.6836 ,1.13068 ,1.62653 ,15.95954 
234 ,43.8602 ,1.13254 ,1.59231 ,15.62375 
235 ,44.0523 ,1.13443 ,1.58204 ,15.52302 
236 ,44.2441 ,1.13631 ,1.57520 ,15.45586 
237 ,44.4363 ,1.13834 ,1.56151 ,15.32155 
238 ,44.6123 ,1.14001 ,1.53413 ,15.05292 
239 ,44.7881 ,1.14182 ,1.53071 ,15.01934 
240 ,44.9966 ,1.14382 ,1.52045 ,14.91861 
241 ,45.1886 ,1.14584 ,1.49991 ,14.71714 
242 ,45.3968 ,1.14775 ,1.50333 ,14.75072 
243 ,45.5726 ,1.14966 ,1.46569 ,14.38136 
244 ,45.7644 ,1.15159 ,1.47253 ,14.44851 
245 ,45.9729 ,1.15352 ,1.44174 ,14.14631 
246 ,46.1491 ,1.15540 ,1.42805 ,14.01199 
247 ,46.3409 ,1.15728 ,1.42120 ,13.94484 
248 ,46.5493 ,1.15935 ,1.39383 ,13.67621 
249 ,46.7571 ,1.16147 ,1.38698 ,13.60906 
250 ,46.9332 ,1.16323 ,1.35960 ,13.34043 
251 ,47.1255 ,1.16513 ,1.36303 ,13.37401 
252 ,47.3013 ,1.16692 ,1.36987 ,13.44116 
253 ,47.4933 ,1.16889 ,1.33223 ,13.07180 
254 ,47.6697 ,1.17064 ,1.31854 ,12.93749 
255 ,47.8615 ,1.17247 ,1.31169 ,12.87033 
256 ,48.0535 ,1.17443 ,1.28774 ,12.63528 
257 ,48.2456 ,1.17636 ,1.28089 ,12.56813 
258 ,48.4380 ,1.17824 ,1.27747 ,12.53455 
259 ,48.6301 ,1.18020 ,1.25694 ,12.33308 
260 ,48.8060 ,1.18199 ,1.24325 ,12.19877 
261 ,48.9818 ,1.18370 ,1.25009 ,12.26592 
262 ,49.1583 ,1.18552 ,1.22614 ,12.03088 
263 ,49.3503 ,1.18740 ,1.19876 ,11.76225 
264 ,49.5265 ,1.18925 ,1.19534 ,11.72867 
265 ,49.7184 ,1.19106 ,1.17823 ,11.56078 
266 ,49.9102 ,1.19292 ,1.16454 ,11.42647 
267 ,50.0862 ,1.19476 ,1.15427 ,11.32573 
268 ,50.2623 ,1.19655 ,1.14401 ,11.22500 
269 ,50.4548 ,1.19836 ,1.14743 ,11.25857 
270 ,50.6469 ,1.20033 ,1.12347 ,11.02353 
271 ,50.8390 ,1.20231 ,1.11663 ,10.95637 
272 ,51.0151 ,1.20403 ,1.09952 ,10.78848 
273 ,51.2071 ,1.20603 ,1.07899 ,10.58701 
274 ,51.3830 ,1.20770 ,1.06872 ,10.48627 
275 ,51.5593 ,1.20951 ,1.05161 ,10.31838 
276 ,51.7352 ,1.21129 ,1.04476 ,10.25123 
277 ,51.9430 ,1.21320 ,1.03792 ,10.18407 
278 ,52.1516 ,1.21538 ,1.00370 ,9.84829 
279 ,52.3276 ,1.21719 ,0.99685 ,9.78113 
280 ,52.5356 ,1.21916 ,0.98317 ,9.64682 
281 ,52.7118 ,1.22098 ,0.97974 ,9.61324 
282 ,52.9036 ,1.22293 ,0.96263 ,9.44535 
283 ,53.0959 ,1.22478 ,0.94552 ,9.27745 
284 ,53.2715 ,1.22668 ,0.93525 ,9.17672 
285 ,53.4801 ,1.22853 ,0.92841 ,9.10956 
286 ,53.6881 ,1.23066 ,0.90788 ,8.90809 
287 ,53.8801 ,1.23264 ,0.91130 ,8.94167 
288 ,54.0881 ,1.23459 ,0.89077 ,8.74020 
289 ,54.2645 ,1.23653 ,0.88050 ,8.63947 
290 ,54.4724 ,1.23857 ,0.85997 ,8.43800 
291 ,54.6643 ,1.24053 ,0.84628 ,8.30368 
292 ,54.8564 ,1.24238 ,0.82917 ,8.13579 
293 ,55.0323 ,1.24424 ,0.82232 ,8.06864 
294 ,55.2247 ,1.24609 ,0.81890 ,8.03506 
295 ,55.4164 ,1.24808 ,0.81548 ,8.00148 
296 ,55.6088 ,1.24993 ,0.78468 ,7.69927 
297 ,55.8009 ,1.25187 ,0.78126 ,7.66570 
298 ,55.9765 ,1.25367 ,0.77441 ,7.59854 
299 ,56.1531 ,1.25544 ,0.75046 ,7.36349 
300 ,56.3449 ,1.25727 ,0.73335 ,7.19560 
301 ,56.5369 ,1.25934 ,0.72992 ,7.16202 
302 ,56.7294 ,1.26112 ,0.70597 ,6.92697 
303 ,56.9054 ,1.26290 ,0.70255 ,6.89340 
304 ,57.0974 ,1.26475 ,0.70597 ,6.92697 
305 ,57.2734 ,1.26660 ,0.68201 ,6.69193 
306 ,57.4496 ,1.26839 ,0.66833 ,6.55761 
307 ,57.6417 ,1.27020 ,0.66148 ,6.49046 
308 ,57.8179 ,1.27210 ,0.65806 ,6.45688 
309 ,57.9773 ,1.27379 ,0.65806 ,6.45688 
310 ,58.1538 ,1.27541 ,0.63410 ,6.22183 
311 ,58.3301 ,1.27718 ,0.61357 ,6.02036 
312 ,58.5221 ,1.27903 ,0.61015 ,5.98678 
313 ,58.6980 ,1.28081 ,0.60330 ,5.91962 
314 ,58.8739 ,1.28258 ,0.59304 ,5.81889 
315 ,59.0822 ,1.28462 ,0.58277 ,5.71815 
316 ,59.2903 ,1.28672 ,0.54855 ,5.38237 
317 ,59.4663 ,1.28857 ,0.55197 ,5.41595 
318 ,59.6584 ,1.29040 ,0.54171 ,5.31522 
319 ,59.8504 ,1.29230 ,0.52802 ,5.18090 
320 ,60.0427 ,1.29419 ,0.50406 ,4.94585 
321 ,60.2184 ,1.29606 ,0.50748 ,4.97943 
322 ,60.4108 ,1.29791 ,0.48353 ,4.74438 
323 ,60.6026 ,1.29985 ,0.48011 ,4.71081 
324 ,60.7786 ,1.30167 ,0.46642 ,4.57649 
325 ,60.9548 ,1.30342 ,0.46642 ,4.57649 
326 ,61.1471 ,1.30534 ,0.44588 ,4.37502 
327 ,61.3391 ,1.30728 ,0.43220 ,4.24071 
328 ,61.5152 ,1.30900 ,0.43220 ,4.24071 
329 ,61.6913 ,1.31079 ,0.42877 ,4.20713 
330 ,61.8670 ,1.31251 ,0.40140 ,3.93850 
331 ,62.0596 ,1.31439 ,0.39797 ,3.90493 
332 ,62.2517 ,1.31639 ,0.39113 ,3.83777 
333 ,62.4597 ,1.31826 ,0.37402 ,3.66988 
334 ,62.6517 ,1.32037 ,0.37402 ,3.66988 
335 ,62.8279 ,1.32216 ,0.35006 ,3.43483 
336 ,63.0037 ,1.32388 ,0.32611 ,3.19978 
337 ,63.1960 ,1.32569 ,0.32611 ,3.19978 
338 ,63.3720 ,1.32763 ,0.30900 ,3.03189 
339 ,63.5482 ,1.32936 ,0.29189 ,2.86400 
340 ,63.7402 ,1.33133 ,0.30558 ,2.99831 
341 ,63.9162 ,1.33305 ,0.28504 ,2.79684 
342 ,64.1083 ,1.33493 ,0.27135 ,2.66253 
343 ,64.3165 ,1.33700 ,0.27135 ,2.66253 
344 ,64.5086 ,1.33887 ,0.25082 ,2.46106 
345 ,64.6844 ,1.34069 ,0.23713 ,2.32675 
346 ,64.8602 ,1.34244 ,0.21318 ,2.09170 
347 ,65.0365 ,1.34425 ,0.22002 ,2.15885 
348 ,65.2286 ,1.34611 ,0.22002 ,2.15885 
349 ,65.4208 ,1.34804 ,0.19607 ,1.92381 
350 ,65.5969 ,1.34983 ,0.18922 ,1.85665 
351 ,65.8050 ,1.35177 ,0.18580 ,1.82307 
352 ,65.9810 ,1.35368 ,0.15500 ,1.52087 
353 ,66.1726 ,1.35553 ,0.16527 ,1.62160 
354 ,66.3487 ,1.35739 ,0.13447 ,1.31940 
355 ,66.5088 ,1.35907 ,0.13789 ,1.35298 
356 ,66.6689 ,1.36066 ,0.12762 ,1.25224 
357 ,66.8450 ,1.36229 ,0.13105 ,1.28582 
358 ,67.0210 ,1.36401 ,0.10367 ,1.01719 
359 ,67.1972 ,1.36582 ,0.09340 ,0.91646 
360 ,67.3732 ,1.36755 ,0.08656 ,0.84930 
361 ,67.5493 ,1.36933 ,0.08656 ,0.84930 
362 ,67.7253 ,1.37115 ,0.07287 ,0.71499 
363 ,67.9013 ,1.37290 ,0.05918 ,0.58067 
364 ,68.0774 ,1.37462 ,0.04891 ,0.47994 
365 ,68.2376 ,1.37634 ,0.04207 ,0.41278 
366 ,68.3976 ,1.37793 ,0.03522 ,0.34563 
367 ,68.5577 ,1.37952 ,0.02496 ,0.24489 
368 ,68.7177 ,1.38114 ,0.02154 ,0.21131 
369 ,68.8777 ,1.38275 ,0.01127 ,0.11058 
370 ,69.0380 ,1.38434 ,0.00100 ,0.00984 
371 ,69.2140 ,1.38599 ,-0.01611 ,-0.15805 
372 ,69.3901 ,1.38771 ,-0.01269 ,-0.12447 
373 ,69.5822 ,1.38956 ,-0.03322 ,-0.32594 
374 ,69.7582 ,1.39141 ,-0.05717 ,-0.56099 
375 ,69.9183 ,1.39315 ,-0.04691 ,-0.46025 
376 ,70.1103 ,1.39484 ,-0.06060 ,-0.59457 
377 ,70.2865 ,1.39669 ,-0.04348 ,-0.42667 
378 ,70.4625 ,1.39842 ,-0.07428 ,-0.72888 
379 ,70.6386 ,1.40029 ,-0.07428 ,-0.72888 
380 ,70.8145 ,1.40198 ,-0.10851 ,-1.06466 
381 ,70.9909 ,1.40368 ,-0.10508 ,-1.03108 
382 ,71.1992 ,1.40570 ,-0.11193 ,-1.09824 
383 ,71.4072 ,1.40781 ,-0.12562 ,-1.23255 
384 ,71.5833 ,1.40972 ,-0.13588 ,-1.33329 
385 ,71.7594 ,1.41142 ,-0.15642 ,-1.53476 
386 ,71.9514 ,1.41332 ,-0.14615 ,-1.43402 
387 ,72.1277 ,1.41510 ,-0.15299 ,-1.50118 
388 ,72.3358 ,1.41714 ,-0.15642 ,-1.53476 
389 ,72.5436 ,1.41912 ,-0.19064 ,-1.87054 
390 ,72.7359 ,1.42119 ,-0.20090 ,-1.97128 
391 ,72.9436 ,1.42322 ,-0.21459 ,-2.10559 
392 ,73.1681 ,1.42542 ,-0.21117 ,-2.07201 
393 ,73.3600 ,1.42737 ,-0.22486 ,-2.20632 
394 ,73.5362 ,1.42921 ,-0.23170 ,-2.27348 
395 ,73.6958 ,1.43090 ,-0.23170 ,-2.27348 
396 ,73.8884 ,1.43259 ,-0.24197 ,-2.37422 
397 ,74.0960 ,1.43476 ,-0.25908 ,-2.54211 
398 ,74.2725 ,1.43658 ,-0.26935 ,-2.64284 
399 ,74.4804 ,1.43856 ,-0.29330 ,-2.87789 
400 ,74.6726 ,1.44050 ,-0.28646 ,-2.81073 
401 ,74.8645 ,1.44250 ,-0.29330 ,-2.87789 
402 ,75.0568 ,1.44437 ,-0.31726 ,-3.11294 
403 ,75.2487 ,1.44630 ,-0.31726 ,-3.11294 
404 ,75.4409 ,1.44821 ,-0.33095 ,-3.24725 
405 ,75.6170 ,1.44999 ,-0.33779 ,-3.31441 
406 ,75.8088 ,1.45187 ,-0.34806 ,-3.41514 
407 ,75.9848 ,1.45369 ,-0.35832 ,-3.51588 
408 ,76.1932 ,1.45572 ,-0.37201 ,-3.65019 
409 ,76.4013 ,1.45764 ,-0.39255 ,-3.85166 
410 ,76.5935 ,1.45965 ,-0.37886 ,-3.71735 
411 ,76.7854 ,1.46155 ,-0.38912 ,-3.81808 
412 ,76.9616 ,1.46337 ,-0.41992 ,-4.12029 
413 ,77.1375 ,1.46519 ,-0.42677 ,-4.18744 
414 ,77.3297 ,1.46709 ,-0.40966 ,-4.01955 
415 ,77.5377 ,1.46901 ,-0.44388 ,-4.35534 
416 ,77.7136 ,1.47095 ,-0.44730 ,-4.38891 
417 ,77.8897 ,1.47270 ,-0.45072 ,-4.42249 
418 ,78.0498 ,1.47441 ,-0.45072 ,-4.42249 
419 ,78.2263 ,1.47607 ,-0.44730 ,-4.38891 
420 ,78.4181 ,1.47792 ,-0.47810 ,-4.69112 
421 ,78.5940 ,1.47973 ,-0.49521 ,-4.85901 
422 ,78.7703 ,1.48153 ,-0.48837 ,-4.79185 
423 ,78.9464 ,1.48327 ,-0.48837 ,-4.79185 
424 ,79.1544 ,1.48535 ,-0.51917 ,-5.09406 
425 ,79.3622 ,1.48733 ,-0.52943 ,-5.19479 
426 ,79.5388 ,1.48918 ,-0.53285 ,-5.22837 
427 ,79.7306 ,1.49109 ,-0.52943 ,-5.19479 
428 ,79.9064 ,1.49283 ,-0.53970 ,-5.29553 
429 ,80.0826 ,1.49458 ,-0.56365 ,-5.53058 
430 ,80.2588 ,1.49643 ,-0.56708 ,-5.56415 
431 ,80.4509 ,1.49827 ,-0.56708 ,-5.56415 
432 ,80.6268 ,1.50009 ,-0.57050 ,-5.59773 
433 ,80.8031 ,1.50184 ,-0.57734 ,-5.66489 
434 ,81.0111 ,1.50382 ,-0.58419 ,-5.73205 
435 ,81.1870 ,1.50567 ,-0.60472 ,-5.93352 
436 ,81.3953 ,1.50758 ,-0.63210 ,-6.20214 
437 ,81.5713 ,1.50949 ,-0.63210 ,-6.20214 
438 ,81.7475 ,1.51125 ,-0.62183 ,-6.10141 
439 ,81.9395 ,1.51310 ,-0.64921 ,-6.37003 
440 ,82.1156 ,1.51491 ,-0.64921 ,-6.37003 
441 ,82.3235 ,1.51692 ,-0.66290 ,-6.50435 
442 ,82.5157 ,1.51893 ,-0.67316 ,-6.60508 
443 ,82.7399 ,1.52099 ,-0.68001 ,-6.67224 
444 ,82.9318 ,1.52304 ,-0.67659 ,-6.63866 
445 ,83.1076 ,1.52481 ,-0.68685 ,-6.73940 
446 ,83.2837 ,1.52663 ,-0.69027 ,-6.77297 
447 ,83.4601 ,1.52833 ,-0.71423 ,-7.00802 
448 ,83.6519 ,1.53035 ,-0.72450 ,-7.10876 
449 ,83.8441 ,1.53217 ,-0.73818 ,-7.24307 
450 ,84.0364 ,1.53406 ,-0.73818 ,-7.24307 
451 ,84.2284 ,1.53602 ,-0.75187 ,-7.37738 
452 ,84.4361 ,1.53806 ,-0.74845 ,-7.34380 
453 ,84.6289 ,1.53997 ,-0.77583 ,-7.61243 
454 ,84.8207 ,1.54201 ,-0.76898 ,-7.54527 
455 ,85.0127 ,1.54384 ,-0.77583 ,-7.61243 
456 ,85.2048 ,1.54571 ,-0.76898 ,-7.54527 
457 ,85.3969 ,1.54766 ,-0.79978 ,-7.84748 
458 ,85.5888 ,1.54960 ,-0.79978 ,-7.84748 
459 ,85.7650 ,1.55139 ,-0.81689 ,-8.01537 
460 ,85.9571 ,1.55336 ,-0.83401 ,-8.18326 
461 ,86.1490 ,1.55520 ,-0.82716 ,-8.11611 
462 ,86.3413 ,1.55712 ,-0.85454 ,-8.38473 
463 ,86.5173 ,1.55897 ,-0.85796 ,-8.41831 
