Data stamp = , 22-04-2022 15:27:38 641

Calibration Values: 
Slope = , 26.54 , g/V 
Offset Voltage at no contact = , -0.501760 , V 

No , Time , Stage Position ,   Mass , Force 
   ,  (s) ,      (mm)      ,   (g)  , (mN)  

1 ,0.0000 ,0.74950 ,5.03159 ,49.36995 
2 ,0.2306 ,0.74962 ,5.03501 ,49.40352 
3 ,0.5511 ,0.75052 ,5.04870 ,49.53784 
4 ,0.7590 ,0.75207 ,5.03501 ,49.40352 
5 ,0.9511 ,0.75388 ,5.03843 ,49.43710 
6 ,1.1430 ,0.75563 ,5.05212 ,49.57142 
7 ,1.3351 ,0.75761 ,5.04870 ,49.53784 
8 ,1.5273 ,0.75942 ,5.02817 ,49.33637 
9 ,1.7036 ,0.76131 ,5.04185 ,49.47068 
10 ,1.8957 ,0.76321 ,5.01790 ,49.23563 
11 ,2.1038 ,0.76530 ,5.00421 ,49.10132 
12 ,2.3118 ,0.76736 ,4.97341 ,48.79911 
13 ,2.5034 ,0.76933 ,4.96315 ,48.69838 
14 ,2.6960 ,0.77112 ,4.97341 ,48.79911 
15 ,2.8878 ,0.77310 ,4.93577 ,48.42975 
16 ,3.0642 ,0.77490 ,4.93235 ,48.39618 
17 ,3.2722 ,0.77692 ,4.87417 ,47.82534 
18 ,3.4483 ,0.77874 ,4.88101 ,47.89250 
19 ,3.6239 ,0.78058 ,4.86390 ,47.72461 
20 ,3.8005 ,0.78233 ,4.84679 ,47.55672 
21 ,3.9924 ,0.78419 ,4.80573 ,47.15378 
22 ,4.1685 ,0.78593 ,4.81257 ,47.22093 
23 ,4.3443 ,0.78769 ,4.79888 ,47.08662 
24 ,4.5367 ,0.78962 ,4.76124 ,46.71726 
25 ,4.7126 ,0.79137 ,4.74070 ,46.51579 
26 ,4.9048 ,0.79332 ,4.75097 ,46.61653 
27 ,5.0967 ,0.79523 ,4.72017 ,46.31432 
28 ,5.3049 ,0.79728 ,4.70648 ,46.18001 
29 ,5.4810 ,0.79908 ,4.69622 ,46.07927 
30 ,5.6573 ,0.80085 ,4.66884 ,45.81065 
31 ,5.8330 ,0.80266 ,4.65515 ,45.67633 
32 ,6.0254 ,0.80444 ,4.64146 ,45.54202 
33 ,6.2173 ,0.80639 ,4.62093 ,45.34055 
34 ,6.4254 ,0.80846 ,4.61066 ,45.23981 
35 ,6.6015 ,0.81027 ,4.59697 ,45.10550 
36 ,6.7774 ,0.81200 ,4.56617 ,44.80330 
37 ,6.9536 ,0.81391 ,4.55933 ,44.73614 
38 ,7.1616 ,0.81587 ,4.53880 ,44.53467 
39 ,7.3377 ,0.81763 ,4.51826 ,44.33320 
40 ,7.5139 ,0.81941 ,4.48746 ,44.03100 
41 ,7.6901 ,0.82117 ,4.47378 ,43.89668 
42 ,7.8818 ,0.82304 ,4.46693 ,43.82953 
43 ,8.0742 ,0.82498 ,4.42244 ,43.39301 
44 ,8.2822 ,0.82705 ,4.40191 ,43.19154 
45 ,8.4584 ,0.82880 ,4.41218 ,43.29227 
46 ,8.6664 ,0.83088 ,4.39507 ,43.12438 
47 ,8.8586 ,0.83286 ,4.37453 ,42.92291 
48 ,9.0502 ,0.83467 ,4.34373 ,42.62071 
49 ,9.2266 ,0.83651 ,4.33689 ,42.55355 
50 ,9.4186 ,0.83847 ,4.33689 ,42.55355 
51 ,9.5947 ,0.84016 ,4.28556 ,42.04988 
52 ,9.7711 ,0.84193 ,4.27529 ,41.94914 
53 ,9.9630 ,0.84391 ,4.26845 ,41.88198 
54 ,10.1386 ,0.84566 ,4.26160 ,41.81483 
55 ,10.3470 ,0.84761 ,4.21027 ,41.31115 
56 ,10.5229 ,0.84948 ,4.21711 ,41.37831 
57 ,10.6993 ,0.85127 ,4.20685 ,41.27758 
58 ,10.8752 ,0.85299 ,4.17605 ,40.97537 
59 ,11.0669 ,0.85493 ,4.16236 ,40.84106 
60 ,11.2434 ,0.85668 ,4.16236 ,40.84106 
61 ,11.4354 ,0.85857 ,4.13156 ,40.53885 
62 ,11.6115 ,0.86035 ,4.10076 ,40.23665 
63 ,11.8035 ,0.86232 ,4.08707 ,40.10233 
64 ,11.9797 ,0.86404 ,4.07680 ,40.00160 
65 ,12.1556 ,0.86582 ,4.06312 ,39.86729 
66 ,12.3475 ,0.86767 ,4.02547 ,39.49793 
67 ,12.5239 ,0.86948 ,4.02205 ,39.46435 
68 ,12.7000 ,0.87124 ,4.01863 ,39.43077 
69 ,12.8762 ,0.87299 ,3.97756 ,39.02783 
70 ,13.0682 ,0.87485 ,3.97414 ,38.99425 
71 ,13.2601 ,0.87673 ,3.95361 ,38.79278 
72 ,13.4523 ,0.87872 ,3.92623 ,38.52415 
73 ,13.6605 ,0.88074 ,3.92281 ,38.49058 
74 ,13.8363 ,0.88262 ,3.90227 ,38.28911 
75 ,14.0284 ,0.88446 ,3.87147 ,37.98690 
76 ,14.2047 ,0.88630 ,3.86121 ,37.88617 
77 ,14.3963 ,0.88812 ,3.84752 ,37.75185 
78 ,14.5728 ,0.88998 ,3.82014 ,37.48323 
79 ,14.7487 ,0.89188 ,3.81672 ,37.44965 
80 ,14.9408 ,0.89363 ,3.79619 ,37.24818 
81 ,15.1487 ,0.89562 ,3.78250 ,37.11387 
82 ,15.3570 ,0.89781 ,3.76881 ,36.97955 
83 ,15.5327 ,0.89955 ,3.73801 ,36.67735 
84 ,15.7093 ,0.90137 ,3.70379 ,36.34157 
85 ,15.9170 ,0.90333 ,3.70379 ,36.34157 
86 ,16.1093 ,0.90533 ,3.67641 ,36.07294 
87 ,16.2853 ,0.90711 ,3.66614 ,35.97220 
88 ,16.4774 ,0.90896 ,3.65930 ,35.90505 
89 ,16.6535 ,0.91084 ,3.64219 ,35.73716 
90 ,16.8136 ,0.91246 ,3.61139 ,35.43495 
91 ,16.9897 ,0.91411 ,3.59770 ,35.30064 
92 ,17.1818 ,0.91603 ,3.59428 ,35.26706 
93 ,17.3577 ,0.91787 ,3.58743 ,35.19990 
94 ,17.5339 ,0.91959 ,3.55663 ,34.89770 
95 ,17.7260 ,0.92141 ,3.53610 ,34.69623 
96 ,17.9340 ,0.92352 ,3.51557 ,34.49476 
97 ,18.1097 ,0.92531 ,3.49846 ,34.32687 
98 ,18.2860 ,0.92706 ,3.47792 ,34.12540 
99 ,18.4784 ,0.92900 ,3.49161 ,34.25971 
100 ,18.6701 ,0.93090 ,3.45055 ,33.85677 
101 ,18.8464 ,0.93272 ,3.43344 ,33.68888 
102 ,19.0226 ,0.93447 ,3.43686 ,33.72246 
103 ,19.1986 ,0.93625 ,3.41975 ,33.55457 
104 ,19.3748 ,0.93794 ,3.39921 ,33.35310 
105 ,19.5506 ,0.93980 ,3.37526 ,33.11805 
106 ,19.7424 ,0.94164 ,3.35473 ,32.91658 
107 ,19.9510 ,0.94369 ,3.34104 ,32.78227 
108 ,20.1430 ,0.94571 ,3.33762 ,32.74869 
109 ,20.3191 ,0.94744 ,3.32735 ,32.64795 
110 ,20.5111 ,0.94935 ,3.27944 ,32.17786 
111 ,20.6872 ,0.95110 ,3.28286 ,32.21143 
112 ,20.8629 ,0.95289 ,3.26575 ,32.04354 
113 ,21.0393 ,0.95461 ,3.25891 ,31.97639 
114 ,21.2150 ,0.95632 ,3.24180 ,31.80849 
115 ,21.3911 ,0.95812 ,3.21784 ,31.57345 
116 ,21.5512 ,0.95983 ,3.19731 ,31.37198 
117 ,21.7112 ,0.96146 ,3.18362 ,31.23766 
118 ,21.8875 ,0.96304 ,3.16993 ,31.10335 
119 ,22.0795 ,0.96490 ,3.15282 ,30.93546 
120 ,22.2880 ,0.96707 ,3.13571 ,30.76757 
121 ,22.4796 ,0.96901 ,3.13913 ,30.80115 
122 ,22.6559 ,0.97072 ,3.12544 ,30.66683 
123 ,22.8480 ,0.97264 ,3.08438 ,30.26389 
124 ,23.0402 ,0.97458 ,3.09122 ,30.33105 
125 ,23.2322 ,0.97639 ,3.06384 ,30.06242 
126 ,23.4404 ,0.97859 ,3.05015 ,29.92811 
127 ,23.6321 ,0.98043 ,3.02278 ,29.65948 
128 ,23.8245 ,0.98238 ,3.00909 ,29.52517 
129 ,24.0005 ,0.98423 ,2.99882 ,29.42444 
130 ,24.1606 ,0.98592 ,2.99540 ,29.39086 
131 ,24.3366 ,0.98751 ,2.98513 ,29.29012 
132 ,24.5288 ,0.98937 ,2.95776 ,29.02150 
133 ,24.7209 ,0.99146 ,2.94407 ,28.88718 
134 ,24.8969 ,0.99315 ,2.92011 ,28.65213 
135 ,25.0888 ,0.99510 ,2.90985 ,28.55140 
136 ,25.2812 ,0.99701 ,2.87905 ,28.24919 
137 ,25.4893 ,0.99904 ,2.85851 ,28.04772 
138 ,25.6814 ,1.00095 ,2.85509 ,28.01415 
139 ,25.8573 ,1.00286 ,2.83798 ,27.84625 
140 ,26.0492 ,1.00462 ,2.80718 ,27.54405 
141 ,26.2251 ,1.00647 ,2.81402 ,27.61121 
142 ,26.4016 ,1.00821 ,2.77980 ,27.27542 
143 ,26.5938 ,1.01006 ,2.77980 ,27.27542 
144 ,26.8017 ,1.01211 ,2.76611 ,27.14111 
145 ,27.0098 ,1.01412 ,2.72505 ,26.73817 
146 ,27.2017 ,1.01614 ,2.73189 ,26.80533 
147 ,27.3779 ,1.01796 ,2.71820 ,26.67101 
148 ,27.5538 ,1.01976 ,2.71136 ,26.60386 
149 ,27.7460 ,1.02166 ,2.67372 ,26.23450 
150 ,27.9222 ,1.02341 ,2.65660 ,26.06661 
151 ,28.1302 ,1.02538 ,2.63607 ,25.86514 
152 ,28.3222 ,1.02730 ,2.62923 ,25.79798 
153 ,28.5141 ,1.02928 ,2.61554 ,25.66367 
154 ,28.7063 ,1.03122 ,2.59158 ,25.42862 
155 ,28.8986 ,1.03307 ,2.57105 ,25.22715 
156 ,29.0906 ,1.03508 ,2.56421 ,25.15999 
157 ,29.2827 ,1.03693 ,2.55052 ,25.02568 
158 ,29.4583 ,1.03876 ,2.54367 ,24.95852 
159 ,29.6348 ,1.04053 ,2.53683 ,24.89136 
160 ,29.8107 ,1.04230 ,2.50945 ,24.62274 
161 ,30.0031 ,1.04413 ,2.49576 ,24.48842 
162 ,30.1949 ,1.04613 ,2.47865 ,24.32053 
163 ,30.3871 ,1.04800 ,2.45812 ,24.11906 
164 ,30.5947 ,1.05004 ,2.45470 ,24.08549 
165 ,30.7547 ,1.05185 ,2.43074 ,23.85044 
166 ,30.9310 ,1.05348 ,2.42732 ,23.81686 
167 ,31.1550 ,1.05559 ,2.40679 ,23.61539 
168 ,31.3473 ,1.05759 ,2.37256 ,23.27961 
169 ,31.5235 ,1.05941 ,2.36572 ,23.21245 
170 ,31.6996 ,1.06114 ,2.34177 ,22.97740 
171 ,31.8917 ,1.06311 ,2.35203 ,23.07814 
172 ,32.0838 ,1.06511 ,2.32465 ,22.80951 
173 ,32.2599 ,1.06674 ,2.31781 ,22.74235 
174 ,32.4519 ,1.06861 ,2.29728 ,22.54088 
175 ,32.6276 ,1.07043 ,2.28017 ,22.37299 
176 ,32.8200 ,1.07231 ,2.26648 ,22.23868 
177 ,33.0281 ,1.07435 ,2.23226 ,21.90290 
178 ,33.2362 ,1.07635 ,2.25279 ,22.10437 
179 ,33.4283 ,1.07840 ,2.21515 ,21.73500 
180 ,33.6203 ,1.08027 ,2.19461 ,21.53353 
181 ,33.8123 ,1.08225 ,2.18777 ,21.46638 
182 ,33.9885 ,1.08407 ,2.15697 ,21.16417 
183 ,34.1647 ,1.08584 ,2.13644 ,20.96270 
184 ,34.3565 ,1.08772 ,2.13644 ,20.96270 
185 ,34.5327 ,1.08949 ,2.12959 ,20.89555 
186 ,34.7088 ,1.09127 ,2.11590 ,20.76123 
187 ,34.9006 ,1.09323 ,2.08852 ,20.49261 
188 ,35.0769 ,1.09497 ,2.07141 ,20.32472 
189 ,35.2691 ,1.09681 ,2.06115 ,20.22398 
190 ,35.4610 ,1.09879 ,2.04404 ,20.05609 
191 ,35.6370 ,1.10056 ,2.03719 ,19.98893 
192 ,35.8450 ,1.10254 ,2.01324 ,19.75388 
193 ,36.0212 ,1.10440 ,1.99613 ,19.58599 
194 ,36.2133 ,1.10626 ,1.99613 ,19.58599 
195 ,36.4052 ,1.10827 ,1.98586 ,19.48526 
196 ,36.5815 ,1.11000 ,1.94137 ,19.04874 
197 ,36.7738 ,1.11185 ,1.96190 ,19.25021 
198 ,36.9493 ,1.11363 ,1.94479 ,19.08232 
199 ,37.1255 ,1.11541 ,1.91057 ,18.74654 
200 ,37.3177 ,1.11723 ,1.88319 ,18.47791 
201 ,37.5095 ,1.11927 ,1.89688 ,18.61222 
202 ,37.6859 ,1.12098 ,1.86951 ,18.34360 
203 ,37.8937 ,1.12302 ,1.86951 ,18.34360 
204 ,38.0856 ,1.12503 ,1.84213 ,18.07497 
205 ,38.2620 ,1.12676 ,1.81817 ,17.83992 
206 ,38.4381 ,1.12850 ,1.80106 ,17.67203 
207 ,38.6143 ,1.13031 ,1.81475 ,17.80634 
208 ,38.7904 ,1.13208 ,1.78737 ,17.53772 
209 ,38.9824 ,1.13392 ,1.76684 ,17.33625 
210 ,39.1903 ,1.13600 ,1.75657 ,17.23551 
211 ,39.3666 ,1.13780 ,1.74289 ,17.10120 
212 ,39.5588 ,1.13975 ,1.71893 ,16.86615 
213 ,39.7506 ,1.14160 ,1.71893 ,16.86615 
214 ,39.9266 ,1.14338 ,1.71551 ,16.83257 
215 ,40.1030 ,1.14514 ,1.68813 ,16.56395 
216 ,40.2950 ,1.14699 ,1.69840 ,16.66468 
217 ,40.4710 ,1.14886 ,1.67102 ,16.39605 
218 ,40.6471 ,1.15062 ,1.64707 ,16.16101 
219 ,40.8552 ,1.15262 ,1.65049 ,16.19458 
220 ,41.0632 ,1.15472 ,1.60600 ,15.75807 
221 ,41.2394 ,1.15653 ,1.59231 ,15.62375 
222 ,41.4474 ,1.15855 ,1.58547 ,15.55660 
223 ,41.6393 ,1.16055 ,1.56151 ,15.32155 
224 ,41.8316 ,1.16237 ,1.56836 ,15.38871 
225 ,42.0076 ,1.16425 ,1.55809 ,15.28797 
226 ,42.1837 ,1.16597 ,1.52729 ,14.98577 
227 ,42.3594 ,1.16768 ,1.51702 ,14.88503 
228 ,42.5356 ,1.16950 ,1.48622 ,14.58283 
229 ,42.7439 ,1.17153 ,1.49991 ,14.71714 
230 ,42.9197 ,1.17335 ,1.46227 ,14.34778 
231 ,43.1121 ,1.17526 ,1.47253 ,14.44851 
232 ,43.2879 ,1.17706 ,1.45542 ,14.28062 
233 ,43.4639 ,1.17873 ,1.43831 ,14.11273 
234 ,43.6404 ,1.18053 ,1.41778 ,13.91126 
235 ,43.9440 ,1.18304 ,1.41436 ,13.87768 
236 ,44.1206 ,1.18533 ,1.37671 ,13.50832 
237 ,44.2964 ,1.18706 ,1.37671 ,13.50832 
238 ,44.4724 ,1.18884 ,1.36303 ,13.37401 
239 ,44.6645 ,1.19071 ,1.32880 ,13.03822 
240 ,44.8565 ,1.19272 ,1.33565 ,13.10538 
241 ,45.0809 ,1.19474 ,1.31854 ,12.93749 
242 ,45.2731 ,1.19681 ,1.31169 ,12.87033 
243 ,45.4651 ,1.19878 ,1.29458 ,12.70244 
244 ,45.6568 ,1.20063 ,1.27405 ,12.50097 
245 ,45.8331 ,1.20245 ,1.27063 ,12.46739 
246 ,46.0090 ,1.20423 ,1.25352 ,12.29950 
247 ,46.1853 ,1.20600 ,1.23983 ,12.16519 
248 ,46.3613 ,1.20775 ,1.22614 ,12.03088 
249 ,46.5373 ,1.20948 ,1.20561 ,11.82941 
250 ,46.7454 ,1.21148 ,1.19876 ,11.76225 
251 ,46.9374 ,1.21350 ,1.17138 ,11.49362 
252 ,47.1137 ,1.21524 ,1.17138 ,11.49362 
253 ,47.3217 ,1.21716 ,1.16454 ,11.42647 
254 ,47.5138 ,1.21926 ,1.13374 ,11.12426 
255 ,47.7055 ,1.22115 ,1.13716 ,11.15784 
256 ,47.8820 ,1.22296 ,1.11321 ,10.92279 
257 ,48.0739 ,1.22481 ,1.09952 ,10.78848 
258 ,48.2341 ,1.22653 ,1.09267 ,10.72132 
259 ,48.4102 ,1.22822 ,1.07556 ,10.55343 
260 ,48.5861 ,1.22996 ,1.07214 ,10.51985 
261 ,48.7625 ,1.23171 ,1.05845 ,10.38554 
262 ,48.9544 ,1.23359 ,1.04819 ,10.28480 
263 ,49.1463 ,1.23548 ,1.03450 ,10.15049 
264 ,49.3384 ,1.23741 ,1.00028 ,9.81471 
265 ,49.5307 ,1.23939 ,1.01396 ,9.94902 
266 ,49.7066 ,1.24118 ,1.00370 ,9.84829 
267 ,49.8984 ,1.24303 ,0.95921 ,9.41177 
268 ,50.0749 ,1.24487 ,0.95237 ,9.34461 
269 ,50.2669 ,1.24676 ,0.95237 ,9.34461 
270 ,50.4430 ,1.24856 ,0.94552 ,9.27745 
271 ,50.6191 ,1.25031 ,0.91814 ,9.00883 
272 ,50.8109 ,1.25224 ,0.92499 ,9.07598 
273 ,51.0191 ,1.25414 ,0.89761 ,8.80736 
274 ,51.1950 ,1.25599 ,0.88734 ,8.70662 
275 ,51.3874 ,1.25789 ,0.89077 ,8.74020 
276 ,51.5634 ,1.25975 ,0.85997 ,8.43800 
277 ,51.7394 ,1.26147 ,0.83943 ,8.23653 
278 ,51.9156 ,1.26323 ,0.82917 ,8.13579 
279 ,52.1077 ,1.26519 ,0.80863 ,7.93432 
280 ,52.2839 ,1.26697 ,0.82575 ,8.10221 
281 ,52.4755 ,1.26882 ,0.80179 ,7.86717 
282 ,52.6518 ,1.27064 ,0.78810 ,7.73285 
283 ,52.8600 ,1.27264 ,0.76415 ,7.49780 
284 ,53.0522 ,1.27457 ,0.76072 ,7.46423 
285 ,53.2602 ,1.27659 ,0.73677 ,7.22918 
286 ,53.4682 ,1.27871 ,0.75388 ,7.39707 
287 ,53.6444 ,1.28051 ,0.73335 ,7.19560 
288 ,53.8205 ,1.28233 ,0.70597 ,6.92697 
289 ,54.0124 ,1.28417 ,0.68886 ,6.75908 
290 ,54.1882 ,1.28597 ,0.69228 ,6.79266 
291 ,54.3647 ,1.28774 ,0.69228 ,6.79266 
292 ,54.5567 ,1.28965 ,0.65121 ,6.38972 
293 ,54.7328 ,1.29148 ,0.66148 ,6.49046 
294 ,54.9089 ,1.29317 ,0.64437 ,6.32256 
295 ,55.0849 ,1.29492 ,0.63410 ,6.22183 
296 ,55.2764 ,1.29676 ,0.62726 ,6.15467 
297 ,55.4531 ,1.29862 ,0.60330 ,5.91962 
298 ,55.6610 ,1.30062 ,0.58277 ,5.71815 
299 ,55.8371 ,1.30243 ,0.56908 ,5.58384 
300 ,56.0132 ,1.30419 ,0.56224 ,5.51668 
301 ,56.1893 ,1.30594 ,0.56908 ,5.58384 
302 ,56.3489 ,1.30765 ,0.55882 ,5.48311 
303 ,56.5255 ,1.30932 ,0.53486 ,5.24806 
304 ,56.7175 ,1.31119 ,0.51433 ,5.04659 
305 ,56.8936 ,1.31301 ,0.51091 ,5.01301 
306 ,57.0699 ,1.31480 ,0.50064 ,4.91228 
307 ,57.2618 ,1.31667 ,0.49380 ,4.84512 
308 ,57.4379 ,1.31845 ,0.48011 ,4.71081 
309 ,57.6300 ,1.32028 ,0.47326 ,4.64365 
310 ,57.8381 ,1.32232 ,0.46984 ,4.61007 
311 ,58.0140 ,1.32423 ,0.43904 ,4.30787 
312 ,58.1902 ,1.32608 ,0.44588 ,4.37502 
313 ,58.3661 ,1.32772 ,0.43562 ,4.27429 
314 ,58.5422 ,1.32950 ,0.41509 ,4.07282 
315 ,58.7342 ,1.33140 ,0.39797 ,3.90493 
316 ,58.9105 ,1.33318 ,0.38429 ,3.77061 
317 ,59.0866 ,1.33492 ,0.37744 ,3.70346 
318 ,59.2626 ,1.33681 ,0.35006 ,3.43483 
319 ,59.4387 ,1.33847 ,0.34322 ,3.36767 
320 ,59.6143 ,1.34021 ,0.34664 ,3.40125 
321 ,59.7909 ,1.34197 ,0.34664 ,3.40125 
322 ,59.9990 ,1.34400 ,0.31584 ,3.09905 
323 ,60.1907 ,1.34598 ,0.30215 ,2.96473 
324 ,60.3671 ,1.34770 ,0.31584 ,3.09905 
325 ,60.5592 ,1.34970 ,0.28504 ,2.79684 
326 ,60.7512 ,1.35156 ,0.28162 ,2.76326 
327 ,60.9434 ,1.35343 ,0.25767 ,2.52822 
328 ,61.1512 ,1.35548 ,0.24055 ,2.36032 
329 ,61.3275 ,1.35731 ,0.24740 ,2.42748 
330 ,61.5355 ,1.35935 ,0.23371 ,2.29317 
331 ,61.6952 ,1.36111 ,0.22002 ,2.15885 
332 ,61.8717 ,1.36276 ,0.21318 ,2.09170 
333 ,62.0797 ,1.36472 ,0.20976 ,2.05812 
334 ,62.2559 ,1.36663 ,0.18238 ,1.78949 
335 ,62.4320 ,1.36838 ,0.18238 ,1.78949 
336 ,62.6075 ,1.37012 ,0.17553 ,1.72234 
337 ,62.7838 ,1.37184 ,0.17211 ,1.68876 
338 ,62.9601 ,1.37367 ,0.14816 ,1.45371 
339 ,63.1520 ,1.37558 ,0.13789 ,1.35298 
340 ,63.3280 ,1.37738 ,0.13105 ,1.28582 
341 ,63.5043 ,1.37908 ,0.10709 ,1.05077 
342 ,63.6804 ,1.38086 ,0.10025 ,0.98361 
343 ,63.8560 ,1.38262 ,0.08656 ,0.84930 
344 ,64.0326 ,1.38437 ,0.07287 ,0.71499 
345 ,64.2083 ,1.38616 ,0.07629 ,0.74857 
346 ,64.3845 ,1.38794 ,0.05576 ,0.54710 
347 ,64.5606 ,1.38965 ,0.04207 ,0.41278 
348 ,64.7528 ,1.39143 ,0.03865 ,0.37920 
349 ,64.9126 ,1.39328 ,0.03522 ,0.34563 
350 ,65.0891 ,1.39494 ,0.02154 ,0.21131 
351 ,65.2968 ,1.39692 ,0.00443 ,0.04342 
352 ,65.4730 ,1.39874 ,-0.00926 ,-0.09089 
353 ,65.6652 ,1.40061 ,-0.00242 ,-0.02373 
354 ,65.8573 ,1.40252 ,-0.04691 ,-0.46025 
355 ,66.0490 ,1.40449 ,-0.02980 ,-0.29236 
356 ,66.2253 ,1.40628 ,-0.02980 ,-0.29236 
357 ,66.4174 ,1.40819 ,-0.06744 ,-0.66172 
358 ,66.6096 ,1.41004 ,-0.06744 ,-0.66172 
359 ,66.8016 ,1.41201 ,-0.07428 ,-0.72888 
360 ,66.9777 ,1.41386 ,-0.08455 ,-0.82961 
361 ,67.1538 ,1.41567 ,-0.09140 ,-0.89677 
362 ,67.3457 ,1.41743 ,-0.09482 ,-0.93035 
363 ,67.5540 ,1.41954 ,-0.12904 ,-1.26613 
364 ,67.7459 ,1.42147 ,-0.11877 ,-1.16540 
365 ,67.9381 ,1.42341 ,-0.14273 ,-1.40045 
366 ,68.1142 ,1.42518 ,-0.15642 ,-1.53476 
367 ,68.3061 ,1.42706 ,-0.14273 ,-1.40045 
368 ,68.4984 ,1.42902 ,-0.19064 ,-1.87054 
369 ,68.6745 ,1.43077 ,-0.18379 ,-1.80338 
370 ,68.8506 ,1.43253 ,-0.18037 ,-1.76981 
371 ,69.0426 ,1.43440 ,-0.21117 ,-2.07201 
372 ,69.2026 ,1.43614 ,-0.21117 ,-2.07201 
373 ,69.3949 ,1.43792 ,-0.21459 ,-2.10559 
374 ,69.5868 ,1.43989 ,-0.22486 ,-2.20632 
375 ,69.7630 ,1.44165 ,-0.22828 ,-2.23990 
376 ,69.9546 ,1.44359 ,-0.25908 ,-2.54211 
377 ,70.1308 ,1.44531 ,-0.24539 ,-2.40779 
378 ,70.3388 ,1.44741 ,-0.27277 ,-2.67642 
379 ,70.5150 ,1.44916 ,-0.28988 ,-2.84431 
380 ,70.7070 ,1.45104 ,-0.26935 ,-2.64284 
381 ,70.8832 ,1.45285 ,-0.28988 ,-2.84431 
382 ,71.0912 ,1.45487 ,-0.29673 ,-2.91147 
383 ,71.2836 ,1.45678 ,-0.32068 ,-3.14652 
384 ,71.4435 ,1.45858 ,-0.33095 ,-3.24725 
385 ,71.6193 ,1.46021 ,-0.33779 ,-3.31441 
386 ,71.7958 ,1.46196 ,-0.35832 ,-3.51588 
387 ,71.9879 ,1.46384 ,-0.34464 ,-3.38156 
388 ,72.1799 ,1.46582 ,-0.37544 ,-3.68377 
389 ,72.3881 ,1.46777 ,-0.36859 ,-3.61661 
390 ,72.5800 ,1.46983 ,-0.37544 ,-3.68377 
391 ,72.7561 ,1.47158 ,-0.40281 ,-3.95240 
392 ,72.9481 ,1.47339 ,-0.39597 ,-3.88524 
393 ,73.1244 ,1.47524 ,-0.40281 ,-3.95240 
394 ,73.3164 ,1.47715 ,-0.42335 ,-4.15387 
395 ,73.5241 ,1.47907 ,-0.43361 ,-4.25460 
396 ,73.7165 ,1.48111 ,-0.44388 ,-4.35534 
397 ,73.8927 ,1.48293 ,-0.45414 ,-4.45607 
398 ,74.0686 ,1.48470 ,-0.45072 ,-4.42249 
399 ,74.2448 ,1.48642 ,-0.45072 ,-4.42249 
400 ,74.4367 ,1.48832 ,-0.49179 ,-4.82543 
401 ,74.6449 ,1.49034 ,-0.49863 ,-4.89259 
402 ,74.8367 ,1.49227 ,-0.48837 ,-4.79185 
403 ,75.0291 ,1.49426 ,-0.49179 ,-4.82543 
404 ,75.2209 ,1.49627 ,-0.50890 ,-4.99332 
405 ,75.4133 ,1.49809 ,-0.52943 ,-5.19479 
406 ,75.6053 ,1.50001 ,-0.52601 ,-5.16121 
407 ,75.8134 ,1.50206 ,-0.56023 ,-5.49700 
408 ,76.0215 ,1.50411 ,-0.53970 ,-5.29553 
409 ,76.1976 ,1.50598 ,-0.56708 ,-5.56415 
410 ,76.3738 ,1.50774 ,-0.57734 ,-5.66489 
411 ,76.5496 ,1.50949 ,-0.57050 ,-5.59773 
412 ,76.7255 ,1.51124 ,-0.58419 ,-5.73205 
413 ,76.9019 ,1.51305 ,-0.58761 ,-5.76562 
414 ,77.1099 ,1.51504 ,-0.59445 ,-5.83278 
415 ,77.2858 ,1.51683 ,-0.60472 ,-5.93352 
416 ,77.4622 ,1.51864 ,-0.62183 ,-6.10141 
417 ,77.6382 ,1.52042 ,-0.63894 ,-6.26930 
418 ,77.8138 ,1.52217 ,-0.65263 ,-6.40361 
419 ,77.9904 ,1.52392 ,-0.64921 ,-6.37003 
420 ,78.1985 ,1.52590 ,-0.67316 ,-6.60508 
421 ,78.3745 ,1.52775 ,-0.65263 ,-6.40361 
422 ,78.5665 ,1.52965 ,-0.68001 ,-6.67224 
423 ,78.7427 ,1.53142 ,-0.68343 ,-6.70582 
424 ,78.9347 ,1.53326 ,-0.69027 ,-6.77297 
425 ,79.1107 ,1.53510 ,-0.71765 ,-7.04160 
426 ,79.2866 ,1.53689 ,-0.71765 ,-7.04160 
427 ,79.4630 ,1.53863 ,-0.71081 ,-6.97444 
428 ,79.6551 ,1.54055 ,-0.74503 ,-7.31023 
429 ,79.8311 ,1.54234 ,-0.74161 ,-7.27665 
430 ,79.9910 ,1.54402 ,-0.73476 ,-7.20949 
431 ,80.1671 ,1.54564 ,-0.75530 ,-7.41096 
432 ,80.3433 ,1.54743 ,-0.76556 ,-7.51170 
433 ,80.5194 ,1.54919 ,-0.78610 ,-7.71317 
434 ,80.6954 ,1.55091 ,-0.80321 ,-7.88106 
435 ,80.8718 ,1.55272 ,-0.79978 ,-7.84748 
436 ,81.0795 ,1.55479 ,-0.79294 ,-7.78032 
437 ,81.2551 ,1.55655 ,-0.79978 ,-7.84748 
438 ,81.4314 ,1.55827 ,-0.82374 ,-8.08253 
439 ,81.5915 ,1.55999 ,-0.82374 ,-8.08253 
440 ,81.7677 ,1.56164 ,-0.84769 ,-8.31758 
441 ,81.9920 ,1.56372 ,-0.83743 ,-8.21684 
442 ,82.1681 ,1.56566 ,-0.85796 ,-8.41831 
443 ,82.3603 ,1.56754 ,-0.85796 ,-8.41831 
444 ,82.5521 ,1.56947 ,-0.86823 ,-8.51904 
445 ,82.7442 ,1.57142 ,-0.86481 ,-8.48547 
446 ,82.9204 ,1.57314 ,-0.88192 ,-8.65336 
447 ,83.1123 ,1.57509 ,-0.90587 ,-8.88841 
448 ,83.2885 ,1.57684 ,-0.90245 ,-8.85483 
449 ,83.4806 ,1.57871 ,-0.90245 ,-8.85483 
450 ,83.6886 ,1.58079 ,-0.91614 ,-8.98914 
451 ,83.8805 ,1.58266 ,-0.93667 ,-9.19061 
452 ,84.0568 ,1.58458 ,-0.95036 ,-9.32492 
453 ,84.2325 ,1.58635 ,-0.92298 ,-9.05630 
454 ,84.4250 ,1.58815 ,-0.94694 ,-9.29135 
455 ,84.6330 ,1.59021 ,-0.95720 ,-9.39208 
456 ,84.8092 ,1.59206 ,-0.98458 ,-9.66071 
457 ,85.0012 ,1.59398 ,-0.97089 ,-9.52639 
458 ,85.1774 ,1.59578 ,-0.98116 ,-9.62713 
459 ,85.3533 ,1.59753 ,-0.98458 ,-9.66071 
460 ,85.5295 ,1.59926 ,-1.00169 ,-9.82860 
461 ,85.7212 ,1.60111 ,-0.99485 ,-9.76144 
462 ,85.8975 ,1.60292 ,-1.00854 ,-9.89576 
