Data stamp = , 22-04-2022 22:41:57 186

Calibration Values: 
Slope = , 26.54 , g/V 
Offset Voltage at no contact = , -0.501760 , V 

No , Time , Stage Position ,   Mass , Force 
   ,  (s) ,      (mm)      ,   (g)  , (mN)  

1 ,0.0000 ,0.69939 ,5.33958 ,52.39199 
2 ,0.2919 ,0.69958 ,5.31905 ,52.19052 
3 ,0.5800 ,0.70060 ,5.30878 ,52.08979 
4 ,0.7727 ,0.70210 ,5.31905 ,52.19052 
5 ,0.9646 ,0.70382 ,5.31905 ,52.19052 
6 ,1.1564 ,0.70568 ,5.33958 ,52.39199 
7 ,1.3326 ,0.70744 ,5.34301 ,52.42557 
8 ,1.5244 ,0.70938 ,5.34985 ,52.49273 
9 ,1.7006 ,0.71113 ,5.32247 ,52.22410 
10 ,1.8777 ,0.71292 ,5.31221 ,52.12337 
11 ,2.0848 ,0.71500 ,5.28483 ,51.85474 
12 ,2.2771 ,0.71696 ,5.29510 ,51.95548 
13 ,2.4532 ,0.71872 ,5.26430 ,51.65327 
14 ,2.6450 ,0.72062 ,5.23692 ,51.38464 
15 ,2.8210 ,0.72236 ,5.20612 ,51.08244 
16 ,3.0131 ,0.72417 ,5.21639 ,51.18317 
17 ,3.2055 ,0.72614 ,5.17874 ,50.81381 
18 ,3.3976 ,0.72812 ,5.17532 ,50.78023 
19 ,3.6054 ,0.73015 ,5.13425 ,50.37729 
20 ,3.7975 ,0.73210 ,5.14794 ,50.51161 
21 ,3.9898 ,0.73408 ,5.11372 ,50.17583 
22 ,4.1658 ,0.73591 ,5.09661 ,50.00793 
23 ,4.3420 ,0.73755 ,5.06239 ,49.67215 
24 ,4.5336 ,0.73943 ,5.06923 ,49.73931 
25 ,4.7096 ,0.74131 ,5.04528 ,49.50426 
26 ,4.8860 ,0.74302 ,5.02132 ,49.26921 
27 ,5.0941 ,0.74503 ,5.01106 ,49.16848 
28 ,5.2859 ,0.74697 ,4.97683 ,48.83269 
29 ,5.4619 ,0.74876 ,4.96315 ,48.69838 
30 ,5.6219 ,0.75048 ,4.97341 ,48.79911 
31 ,5.8141 ,0.75223 ,4.94261 ,48.49691 
32 ,5.9901 ,0.75404 ,4.92550 ,48.32902 
33 ,6.1667 ,0.75587 ,4.89128 ,47.99324 
34 ,6.3586 ,0.75778 ,4.88786 ,47.95966 
35 ,6.5348 ,0.75947 ,4.88444 ,47.92608 
36 ,6.6948 ,0.76121 ,4.86048 ,47.69103 
37 ,6.8710 ,0.76287 ,4.85021 ,47.59030 
38 ,7.0470 ,0.76463 ,4.80573 ,47.15378 
39 ,7.2232 ,0.76634 ,4.78519 ,46.95231 
40 ,7.3990 ,0.76813 ,4.78177 ,46.91873 
41 ,7.5912 ,0.77006 ,4.76466 ,46.75084 
42 ,7.7833 ,0.77197 ,4.74413 ,46.54937 
43 ,7.9594 ,0.77374 ,4.71333 ,46.24716 
44 ,8.1515 ,0.77564 ,4.70648 ,46.18001 
45 ,8.3436 ,0.77755 ,4.67568 ,45.87780 
46 ,8.5196 ,0.77930 ,4.66199 ,45.74349 
47 ,8.6955 ,0.78108 ,4.65857 ,45.70991 
48 ,8.8878 ,0.78293 ,4.63804 ,45.50844 
49 ,9.0799 ,0.78497 ,4.61066 ,45.23981 
50 ,9.2721 ,0.78679 ,4.61408 ,45.27339 
51 ,9.4797 ,0.78881 ,4.58671 ,45.00477 
52 ,9.6560 ,0.79074 ,4.57644 ,44.90403 
53 ,9.8481 ,0.79263 ,4.55591 ,44.70256 
54 ,10.0243 ,0.79437 ,4.53537 ,44.50109 
55 ,10.2002 ,0.79615 ,4.50800 ,44.23247 
56 ,10.3925 ,0.79800 ,4.49773 ,44.13173 
57 ,10.5680 ,0.79982 ,4.49089 ,44.06457 
58 ,10.7446 ,0.80155 ,4.45666 ,43.72879 
59 ,10.9526 ,0.80359 ,4.44982 ,43.66163 
60 ,11.1443 ,0.80550 ,4.42586 ,43.42659 
61 ,11.3045 ,0.80725 ,4.39849 ,43.15796 
62 ,11.4967 ,0.80902 ,4.37795 ,42.95649 
63 ,11.7048 ,0.81101 ,4.35742 ,42.75502 
64 ,11.8811 ,0.81292 ,4.35058 ,42.68786 
65 ,12.0890 ,0.81489 ,4.34716 ,42.65429 
66 ,12.2972 ,0.81706 ,4.31978 ,42.38566 
67 ,12.4892 ,0.81902 ,4.29240 ,42.11703 
68 ,12.6651 ,0.82078 ,4.28556 ,42.04988 
69 ,12.8414 ,0.82254 ,4.25133 ,41.71409 
70 ,13.0335 ,0.82442 ,4.26160 ,41.81483 
71 ,13.2096 ,0.82627 ,4.23765 ,41.57978 
72 ,13.3858 ,0.82801 ,4.19658 ,41.17684 
73 ,13.5616 ,0.82987 ,4.18631 ,41.07611 
74 ,13.7539 ,0.83158 ,4.15894 ,40.80748 
75 ,13.9457 ,0.83350 ,4.15894 ,40.80748 
76 ,14.1540 ,0.83560 ,4.14525 ,40.67317 
77 ,14.3458 ,0.83745 ,4.12814 ,40.50527 
78 ,14.5219 ,0.83929 ,4.09049 ,40.13591 
79 ,14.6981 ,0.84111 ,4.08365 ,40.06876 
80 ,14.8740 ,0.84285 ,4.06654 ,39.90087 
81 ,15.0824 ,0.84476 ,4.05627 ,39.80013 
82 ,15.2744 ,0.84681 ,4.03574 ,39.59866 
83 ,15.4663 ,0.84879 ,4.01178 ,39.36361 
84 ,15.6587 ,0.85060 ,3.98783 ,39.12856 
85 ,15.8504 ,0.85263 ,3.98441 ,39.09499 
86 ,16.0105 ,0.85433 ,3.94676 ,38.72562 
87 ,16.2028 ,0.85612 ,3.93650 ,38.62489 
88 ,16.3786 ,0.85787 ,3.90912 ,38.35626 
89 ,16.5549 ,0.85959 ,3.90912 ,38.35626 
90 ,16.7469 ,0.86147 ,3.89885 ,38.25553 
91 ,16.9391 ,0.86340 ,3.87832 ,38.05406 
92 ,17.1311 ,0.86541 ,3.86121 ,37.88617 
93 ,17.3234 ,0.86725 ,3.83041 ,37.58396 
94 ,17.4993 ,0.86913 ,3.81330 ,37.41607 
95 ,17.6753 ,0.87090 ,3.79276 ,37.21460 
96 ,17.8680 ,0.87281 ,3.78250 ,37.11387 
97 ,18.0597 ,0.87472 ,3.76881 ,36.97955 
98 ,18.2517 ,0.87657 ,3.75170 ,36.81166 
99 ,18.4598 ,0.87861 ,3.72090 ,36.50946 
100 ,18.6514 ,0.88064 ,3.70721 ,36.37514 
101 ,18.8280 ,0.88233 ,3.69694 ,36.27441 
102 ,19.0200 ,0.88420 ,3.67299 ,36.03936 
103 ,19.2115 ,0.88621 ,3.65588 ,35.87147 
104 ,19.3882 ,0.88800 ,3.64903 ,35.80431 
105 ,19.6123 ,0.89014 ,3.61481 ,35.46853 
106 ,19.8202 ,0.89226 ,3.58743 ,35.19990 
107 ,20.0124 ,0.89424 ,3.58401 ,35.16632 
108 ,20.2043 ,0.89618 ,3.54979 ,34.83054 
109 ,20.3804 ,0.89787 ,3.54979 ,34.83054 
110 ,20.5566 ,0.89963 ,3.52584 ,34.59549 
111 ,20.7487 ,0.90157 ,3.52241 ,34.56192 
112 ,20.9566 ,0.90358 ,3.49504 ,34.29329 
113 ,21.1324 ,0.90543 ,3.48135 ,34.15898 
114 ,21.3090 ,0.90720 ,3.47792 ,34.12540 
115 ,21.4850 ,0.90902 ,3.44713 ,33.82319 
116 ,21.6771 ,0.91084 ,3.42317 ,33.58814 
117 ,21.8692 ,0.91268 ,3.42317 ,33.58814 
118 ,22.0771 ,0.91472 ,3.38895 ,33.25236 
119 ,22.2533 ,0.91660 ,3.38553 ,33.21878 
120 ,22.4130 ,0.91830 ,3.37184 ,33.08447 
121 ,22.6054 ,0.92008 ,3.34446 ,32.81584 
122 ,22.7976 ,0.92204 ,3.32393 ,32.61437 
123 ,22.9896 ,0.92386 ,3.29997 ,32.37933 
124 ,23.1657 ,0.92577 ,3.31024 ,32.48006 
125 ,23.3416 ,0.92750 ,3.28971 ,32.27859 
126 ,23.5176 ,0.92926 ,3.26917 ,32.07712 
127 ,23.6936 ,0.93101 ,3.24864 ,31.87565 
128 ,23.9020 ,0.93300 ,3.24522 ,31.84207 
129 ,24.0939 ,0.93504 ,3.21784 ,31.57345 
130 ,24.2703 ,0.93679 ,3.20073 ,31.40555 
131 ,24.4621 ,0.93864 ,3.18704 ,31.27124 
132 ,24.6540 ,0.94053 ,3.15624 ,30.96904 
133 ,24.8304 ,0.94238 ,3.15966 ,31.00262 
134 ,25.0225 ,0.94426 ,3.13913 ,30.80115 
135 ,25.1986 ,0.94601 ,3.11518 ,30.56610 
136 ,25.4228 ,0.94807 ,3.10491 ,30.46536 
137 ,25.5987 ,0.95011 ,3.08438 ,30.26389 
138 ,25.7908 ,0.95197 ,3.07069 ,30.12958 
139 ,25.9668 ,0.95377 ,3.05358 ,29.96169 
140 ,26.1590 ,0.95557 ,3.06042 ,30.02884 
141 ,26.3510 ,0.95761 ,3.03304 ,29.76022 
142 ,26.5269 ,0.95932 ,3.01935 ,29.62590 
143 ,26.7193 ,0.96121 ,2.99882 ,29.42444 
144 ,26.9109 ,0.96312 ,2.97144 ,29.15581 
145 ,27.0709 ,0.96490 ,2.96460 ,29.08865 
146 ,27.2472 ,0.96656 ,2.95091 ,28.95434 
147 ,27.4395 ,0.96849 ,2.94064 ,28.85360 
148 ,27.6154 ,0.97021 ,2.92011 ,28.65213 
149 ,27.7913 ,0.97196 ,2.90300 ,28.48424 
150 ,27.9675 ,0.97375 ,2.88931 ,28.34993 
151 ,28.1757 ,0.97573 ,2.88931 ,28.34993 
152 ,28.3680 ,0.97768 ,2.85509 ,28.01415 
153 ,28.5599 ,0.97967 ,2.84482 ,27.91341 
154 ,28.7356 ,0.98149 ,2.83114 ,27.77910 
155 ,28.9118 ,0.98315 ,2.80376 ,27.51047 
156 ,29.0881 ,0.98490 ,2.79349 ,27.40974 
157 ,29.2804 ,0.98684 ,2.79349 ,27.40974 
158 ,29.4881 ,0.98879 ,2.78322 ,27.30900 
159 ,29.6645 ,0.99069 ,2.76611 ,27.14111 
160 ,29.8565 ,0.99262 ,2.73874 ,26.87248 
161 ,30.0320 ,0.99442 ,2.72505 ,26.73817 
162 ,30.2086 ,0.99608 ,2.70109 ,26.50312 
163 ,30.3848 ,0.99786 ,2.68740 ,26.36881 
164 ,30.5609 ,0.99968 ,2.68398 ,26.33523 
165 ,30.7529 ,1.00155 ,2.64634 ,25.96587 
166 ,30.9285 ,1.00337 ,2.63607 ,25.86514 
167 ,31.0886 ,1.00501 ,2.63949 ,25.89871 
168 ,31.2812 ,1.00676 ,2.62581 ,25.76440 
169 ,31.4887 ,1.00892 ,2.60185 ,25.52935 
170 ,31.6809 ,1.01084 ,2.59158 ,25.42862 
171 ,31.8572 ,1.01261 ,2.57789 ,25.29430 
172 ,32.0334 ,1.01440 ,2.55052 ,25.02568 
173 ,32.2413 ,1.01628 ,2.54710 ,24.99210 
174 ,32.4337 ,1.01831 ,2.52314 ,24.75705 
175 ,32.6255 ,1.02032 ,2.50603 ,24.58916 
176 ,32.8017 ,1.02202 ,2.50261 ,24.55558 
177 ,33.0100 ,1.02402 ,2.46839 ,24.21980 
178 ,33.2176 ,1.02606 ,2.47181 ,24.25338 
179 ,33.4100 ,1.02810 ,2.44443 ,23.98475 
180 ,33.6021 ,1.03007 ,2.43416 ,23.88402 
181 ,33.7783 ,1.03183 ,2.40679 ,23.61539 
182 ,33.9541 ,1.03357 ,2.39652 ,23.51465 
183 ,34.1301 ,1.03536 ,2.38283 ,23.38034 
184 ,34.3060 ,1.03723 ,2.36914 ,23.24603 
185 ,34.4822 ,1.03890 ,2.37941 ,23.34676 
186 ,34.6905 ,1.04096 ,2.32123 ,22.77593 
187 ,34.8825 ,1.04287 ,2.33492 ,22.91024 
188 ,35.0588 ,1.04459 ,2.31781 ,22.74235 
189 ,35.2508 ,1.04648 ,2.29043 ,22.47373 
190 ,35.4264 ,1.04832 ,2.28359 ,22.40657 
191 ,35.6029 ,1.05004 ,2.27674 ,22.33941 
192 ,35.7792 ,1.05177 ,2.26306 ,22.20510 
193 ,35.9711 ,1.05373 ,2.22883 ,21.86932 
194 ,36.1470 ,1.05546 ,2.21857 ,21.76858 
195 ,36.3232 ,1.05725 ,2.20488 ,21.63427 
196 ,36.4989 ,1.05902 ,2.19803 ,21.56711 
197 ,36.6754 ,1.06075 ,2.19461 ,21.53353 
198 ,36.8680 ,1.06276 ,2.17066 ,21.29849 
199 ,37.0595 ,1.06460 ,2.16381 ,21.23133 
200 ,37.2356 ,1.06641 ,2.15355 ,21.13059 
201 ,37.4437 ,1.06840 ,2.13644 ,20.96270 
202 ,37.6357 ,1.07030 ,2.11590 ,20.76123 
203 ,37.8119 ,1.07215 ,2.08852 ,20.49261 
204 ,38.0201 ,1.07409 ,2.07484 ,20.35829 
205 ,38.2121 ,1.07616 ,2.06799 ,20.29114 
206 ,38.4042 ,1.07802 ,2.04746 ,20.08967 
207 ,38.6118 ,1.08014 ,2.04061 ,20.02251 
208 ,38.7881 ,1.08193 ,2.00982 ,19.72031 
209 ,38.9804 ,1.08385 ,2.01324 ,19.75388 
210 ,39.1884 ,1.08585 ,1.98586 ,19.48526 
211 ,39.3809 ,1.08772 ,1.98586 ,19.48526 
212 ,39.5726 ,1.08977 ,1.96190 ,19.25021 
213 ,39.7644 ,1.09158 ,1.95164 ,19.14948 
214 ,39.9405 ,1.09340 ,1.93795 ,19.01516 
215 ,40.1166 ,1.09518 ,1.93111 ,18.94801 
216 ,40.2926 ,1.09697 ,1.90715 ,18.71296 
217 ,40.4849 ,1.09885 ,1.88662 ,18.51149 
218 ,40.6770 ,1.10080 ,1.88662 ,18.51149 
219 ,40.8851 ,1.10280 ,1.85924 ,18.24286 
220 ,41.0770 ,1.10470 ,1.84213 ,18.07497 
221 ,41.2693 ,1.10665 ,1.81817 ,17.83992 
222 ,41.4611 ,1.10862 ,1.83871 ,18.04139 
223 ,41.6695 ,1.11063 ,1.80449 ,17.70561 
224 ,41.8610 ,1.11258 ,1.79422 ,17.60487 
225 ,42.0375 ,1.11445 ,1.78053 ,17.47056 
226 ,42.2295 ,1.11631 ,1.76342 ,17.30267 
227 ,42.4058 ,1.11803 ,1.74289 ,17.10120 
228 ,42.6136 ,1.12013 ,1.73262 ,17.00046 
229 ,42.7899 ,1.12190 ,1.71551 ,16.83257 
230 ,42.9814 ,1.12375 ,1.70866 ,16.76542 
231 ,43.1574 ,1.12558 ,1.69155 ,16.59752 
232 ,43.3335 ,1.12736 ,1.66075 ,16.29532 
233 ,43.5256 ,1.12921 ,1.66760 ,16.36248 
234 ,43.7021 ,1.13102 ,1.65049 ,16.19458 
235 ,43.9102 ,1.13315 ,1.61969 ,15.89238 
236 ,44.1022 ,1.13494 ,1.63680 ,16.06027 
237 ,44.2785 ,1.13682 ,1.61284 ,15.82522 
238 ,44.4544 ,1.13858 ,1.58889 ,15.59018 
239 ,44.6305 ,1.14029 ,1.57862 ,15.48944 
240 ,44.8226 ,1.14213 ,1.56836 ,15.38871 
241 ,45.0147 ,1.14415 ,1.56836 ,15.38871 
242 ,45.1907 ,1.14596 ,1.53413 ,15.05292 
243 ,45.3828 ,1.14780 ,1.52729 ,14.98577 
244 ,45.5751 ,1.14971 ,1.52045 ,14.91861 
245 ,45.7830 ,1.15166 ,1.51018 ,14.81787 
246 ,45.9749 ,1.15373 ,1.49307 ,14.64998 
247 ,46.1668 ,1.15558 ,1.47253 ,14.44851 
248 ,46.3432 ,1.15742 ,1.43831 ,14.11273 
249 ,46.5352 ,1.15941 ,1.43831 ,14.11273 
250 ,46.7113 ,1.16106 ,1.44174 ,14.14631 
251 ,46.8872 ,1.16284 ,1.41778 ,13.91126 
252 ,47.0796 ,1.16472 ,1.39383 ,13.67621 
253 ,47.2712 ,1.16667 ,1.38698 ,13.60906 
254 ,47.4476 ,1.16846 ,1.37329 ,13.47474 
255 ,47.6394 ,1.17040 ,1.35276 ,13.27327 
256 ,47.8158 ,1.17209 ,1.35960 ,13.34043 
257 ,48.0237 ,1.17416 ,1.33223 ,13.07180 
258 ,48.2000 ,1.17599 ,1.32538 ,13.00465 
259 ,48.3916 ,1.17792 ,1.29800 ,12.73602 
260 ,48.5682 ,1.17967 ,1.29800 ,12.73602 
261 ,48.7441 ,1.18144 ,1.28432 ,12.60171 
262 ,48.9203 ,1.18319 ,1.26378 ,12.40024 
263 ,49.1123 ,1.18510 ,1.28089 ,12.56813 
264 ,49.2884 ,1.18683 ,1.23983 ,12.16519 
265 ,49.4641 ,1.18858 ,1.22614 ,12.03088 
266 ,49.6405 ,1.19040 ,1.21587 ,11.93014 
267 ,49.8327 ,1.19231 ,1.23298 ,12.09803 
268 ,50.0084 ,1.19402 ,1.18850 ,11.66151 
269 ,50.2008 ,1.19600 ,1.17481 ,11.52720 
270 ,50.3928 ,1.19786 ,1.18165 ,11.59436 
271 ,50.5529 ,1.19960 ,1.15427 ,11.32573 
272 ,50.7288 ,1.20127 ,1.15427 ,11.32573 
273 ,50.9210 ,1.20310 ,1.13032 ,11.09068 
274 ,51.1130 ,1.20503 ,1.13716 ,11.15784 
275 ,51.2891 ,1.20690 ,1.12005 ,10.98995 
276 ,51.4813 ,1.20874 ,1.08925 ,10.68774 
277 ,51.6573 ,1.21057 ,1.07899 ,10.58701 
278 ,51.8494 ,1.21245 ,1.07214 ,10.51985 
279 ,52.0255 ,1.21422 ,1.05503 ,10.35196 
280 ,52.2017 ,1.21601 ,1.04134 ,10.21765 
281 ,52.3937 ,1.21795 ,1.03450 ,10.15049 
282 ,52.7294 ,1.22054 ,1.01739 ,9.98260 
283 ,52.9219 ,1.22315 ,0.98317 ,9.64682 
284 ,53.1140 ,1.22508 ,0.98659 ,9.68039 
285 ,53.2900 ,1.22685 ,0.97632 ,9.57966 
286 ,53.4821 ,1.22876 ,0.95579 ,9.37819 
287 ,53.6582 ,1.23050 ,0.93868 ,9.21030 
288 ,53.8339 ,1.23238 ,0.94552 ,9.27745 
289 ,54.0102 ,1.23407 ,0.92841 ,9.10956 
290 ,54.2020 ,1.23605 ,0.89419 ,8.77378 
291 ,54.3787 ,1.23771 ,0.89761 ,8.80736 
292 ,54.5703 ,1.23959 ,0.89077 ,8.74020 
293 ,54.7626 ,1.24162 ,0.87023 ,8.53873 
294 ,54.9545 ,1.24346 ,0.86339 ,8.47158 
295 ,55.1466 ,1.24535 ,0.86339 ,8.47158 
296 ,55.3227 ,1.24716 ,0.83943 ,8.23653 
297 ,55.4986 ,1.24891 ,0.80179 ,7.86717 
298 ,55.6909 ,1.25087 ,0.81890 ,8.03506 
299 ,55.8827 ,1.25277 ,0.80521 ,7.90074 
300 ,56.0754 ,1.25463 ,0.78810 ,7.73285 
301 ,56.2831 ,1.25670 ,0.76072 ,7.46423 
302 ,56.4593 ,1.25854 ,0.75388 ,7.39707 
303 ,56.6514 ,1.26044 ,0.75046 ,7.36349 
304 ,56.8434 ,1.26233 ,0.73335 ,7.19560 
305 ,57.0355 ,1.26425 ,0.72308 ,7.09486 
306 ,57.2272 ,1.26618 ,0.72650 ,7.12844 
307 ,57.4197 ,1.26810 ,0.69228 ,6.79266 
308 ,57.6277 ,1.27011 ,0.67517 ,6.62477 
309 ,57.8199 ,1.27215 ,0.67859 ,6.65835 
310 ,57.9955 ,1.27402 ,0.65464 ,6.42330 
311 ,58.1721 ,1.27567 ,0.62726 ,6.15467 
312 ,58.3805 ,1.27766 ,0.62726 ,6.15467 
313 ,58.5557 ,1.27949 ,0.61015 ,5.98678 
314 ,58.7321 ,1.28124 ,0.59646 ,5.85247 
315 ,58.9082 ,1.28307 ,0.60330 ,5.91962 
316 ,59.0839 ,1.28486 ,0.58277 ,5.71815 
317 ,59.2765 ,1.28666 ,0.58277 ,5.71815 
318 ,59.4685 ,1.28863 ,0.55882 ,5.48311 
319 ,59.6606 ,1.29043 ,0.57593 ,5.65100 
320 ,59.8526 ,1.29246 ,0.53486 ,5.24806 
321 ,60.0287 ,1.29418 ,0.53486 ,5.24806 
322 ,60.2043 ,1.29597 ,0.53486 ,5.24806 
323 ,60.3967 ,1.29782 ,0.51433 ,5.04659 
324 ,60.5889 ,1.29969 ,0.49722 ,4.87870 
325 ,60.7648 ,1.30157 ,0.49380 ,4.84512 
326 ,60.9731 ,1.30351 ,0.46984 ,4.61007 
327 ,61.1490 ,1.30542 ,0.45957 ,4.50934 
328 ,61.3411 ,1.30731 ,0.45615 ,4.47576 
329 ,61.5169 ,1.30909 ,0.44246 ,4.34144 
330 ,61.6931 ,1.31087 ,0.42535 ,4.17355 
331 ,61.8849 ,1.31275 ,0.43220 ,4.24071 
332 ,62.0614 ,1.31453 ,0.41509 ,4.07282 
333 ,62.2375 ,1.31629 ,0.40140 ,3.93850 
334 ,62.4297 ,1.31811 ,0.39113 ,3.83777 
335 ,62.6217 ,1.32011 ,0.39113 ,3.83777 
336 ,62.8133 ,1.32202 ,0.37402 ,3.66988 
337 ,62.9894 ,1.32378 ,0.35006 ,3.43483 
338 ,63.1658 ,1.32553 ,0.34664 ,3.40125 
339 ,63.3420 ,1.32734 ,0.33295 ,3.26694 
340 ,63.5019 ,1.32907 ,0.33638 ,3.30052 
341 ,63.6783 ,1.33073 ,0.32269 ,3.16620 
342 ,63.8861 ,1.33273 ,0.30215 ,2.96473 
343 ,64.0782 ,1.33467 ,0.29189 ,2.86400 
344 ,64.2544 ,1.33643 ,0.28847 ,2.83042 
345 ,64.4620 ,1.33855 ,0.28504 ,2.79684 
346 ,64.6385 ,1.34028 ,0.26793 ,2.62895 
347 ,64.8145 ,1.34202 ,0.24398 ,2.39390 
348 ,64.9904 ,1.34385 ,0.23713 ,2.32675 
349 ,65.1668 ,1.34562 ,0.23371 ,2.29317 
350 ,65.3588 ,1.34753 ,0.22344 ,2.19243 
351 ,65.5506 ,1.34936 ,0.19949 ,1.95738 
352 ,65.7430 ,1.35126 ,0.19607 ,1.92381 
353 ,65.9670 ,1.35346 ,0.17896 ,1.75592 
354 ,66.1590 ,1.35548 ,0.17896 ,1.75592 
355 ,66.3513 ,1.35744 ,0.15842 ,1.55445 
356 ,66.5431 ,1.35939 ,0.16527 ,1.62160 
357 ,66.7034 ,1.36108 ,0.15158 ,1.48729 
358 ,66.8799 ,1.36271 ,0.15158 ,1.48729 
359 ,67.0552 ,1.36445 ,0.11736 ,1.15151 
360 ,67.2317 ,1.36623 ,0.11051 ,1.08435 
361 ,67.4077 ,1.36797 ,0.08998 ,0.88288 
362 ,67.5838 ,1.36975 ,0.08656 ,0.84930 
363 ,67.7757 ,1.37160 ,0.07287 ,0.71499 
364 ,67.9519 ,1.37341 ,0.05918 ,0.58067 
365 ,68.1279 ,1.37522 ,0.05918 ,0.58067 
366 ,68.3041 ,1.37697 ,0.05576 ,0.54710 
367 ,68.4960 ,1.37886 ,0.05576 ,0.54710 
368 ,68.6723 ,1.38066 ,0.02838 ,0.27847 
369 ,68.8482 ,1.38238 ,0.02154 ,0.21131 
370 ,69.0243 ,1.38414 ,0.01811 ,0.17773 
371 ,69.2004 ,1.38589 ,0.00785 ,0.07700 
372 ,69.3765 ,1.38761 ,0.00100 ,0.00984 
373 ,69.5527 ,1.38943 ,-0.01953 ,-0.19163 
374 ,69.7446 ,1.39130 ,-0.01611 ,-0.15805 
375 ,69.9365 ,1.39319 ,-0.04006 ,-0.39310 
376 ,70.1289 ,1.39522 ,-0.04691 ,-0.46025 
377 ,70.3209 ,1.39707 ,-0.04348 ,-0.42667 
378 ,70.5124 ,1.39898 ,-0.07428 ,-0.72888 
379 ,70.7050 ,1.40092 ,-0.08113 ,-0.79604 
380 ,70.8966 ,1.40284 ,-0.06402 ,-0.62814 
381 ,71.0733 ,1.40465 ,-0.09140 ,-0.89677 
382 ,71.2814 ,1.40666 ,-0.09824 ,-0.96393 
383 ,71.4893 ,1.40871 ,-0.12219 ,-1.19898 
384 ,71.6654 ,1.41052 ,-0.14273 ,-1.40045 
385 ,71.8575 ,1.41247 ,-0.13931 ,-1.36687 
386 ,72.0332 ,1.41422 ,-0.13931 ,-1.36687 
387 ,72.2097 ,1.41599 ,-0.15642 ,-1.53476 
388 ,72.4017 ,1.41790 ,-0.15984 ,-1.56834 
389 ,72.5777 ,1.41962 ,-0.16668 ,-1.63549 
390 ,72.7540 ,1.42145 ,-0.16326 ,-1.60191 
391 ,72.9619 ,1.42346 ,-0.19064 ,-1.87054 
392 ,73.1699 ,1.42542 ,-0.20775 ,-2.03843 
393 ,73.3786 ,1.42762 ,-0.20090 ,-1.97128 
394 ,73.5541 ,1.42947 ,-0.21802 ,-2.13917 
395 ,73.7303 ,1.43119 ,-0.23513 ,-2.30706 
396 ,73.9222 ,1.43307 ,-0.24197 ,-2.37422 
397 ,74.0982 ,1.43485 ,-0.23855 ,-2.34064 
398 ,74.2741 ,1.43668 ,-0.26593 ,-2.60926 
399 ,74.4984 ,1.43864 ,-0.27277 ,-2.67642 
400 ,74.6907 ,1.44068 ,-0.28988 ,-2.84431 
401 ,74.8831 ,1.44266 ,-0.28304 ,-2.77716 
402 ,75.0748 ,1.44460 ,-0.29673 ,-2.91147 
403 ,75.2506 ,1.44638 ,-0.30357 ,-2.97863 
404 ,75.4267 ,1.44813 ,-0.33437 ,-3.28083 
405 ,75.6190 ,1.45011 ,-0.32410 ,-3.18010 
406 ,75.7949 ,1.45183 ,-0.31384 ,-3.07936 
407 ,75.9870 ,1.45369 ,-0.34806 ,-3.41514 
408 ,76.1632 ,1.45549 ,-0.36859 ,-3.61661 
409 ,76.3233 ,1.45719 ,-0.34121 ,-3.34799 
410 ,76.4994 ,1.45882 ,-0.36517 ,-3.58303 
411 ,76.7074 ,1.46086 ,-0.39255 ,-3.85166 
412 ,76.9150 ,1.46286 ,-0.36859 ,-3.61661 
413 ,77.0917 ,1.46477 ,-0.38912 ,-3.81808 
414 ,77.2837 ,1.46671 ,-0.40966 ,-4.01955 
415 ,77.4437 ,1.46839 ,-0.40623 ,-3.98597 
416 ,77.6358 ,1.47016 ,-0.41308 ,-4.05313 
417 ,77.8120 ,1.47200 ,-0.41992 ,-4.12029 
418 ,78.0041 ,1.47390 ,-0.45072 ,-4.42249 
419 ,78.1800 ,1.47564 ,-0.44388 ,-4.35534 
420 ,78.3878 ,1.47768 ,-0.45072 ,-4.42249 
421 ,78.5643 ,1.47951 ,-0.47468 ,-4.65754 
422 ,78.7563 ,1.48134 ,-0.46441 ,-4.55681 
423 ,78.9484 ,1.48324 ,-0.48837 ,-4.79185 
424 ,79.1245 ,1.48509 ,-0.49179 ,-4.82543 
425 ,79.3325 ,1.48712 ,-0.50548 ,-4.95975 
426 ,79.4921 ,1.48889 ,-0.51574 ,-5.06048 
427 ,79.7008 ,1.49076 ,-0.50890 ,-4.99332 
428 ,79.9086 ,1.49289 ,-0.54312 ,-5.32911 
429 ,80.0850 ,1.49469 ,-0.54312 ,-5.32911 
430 ,80.2610 ,1.49647 ,-0.54997 ,-5.39626 
431 ,80.4369 ,1.49821 ,-0.54654 ,-5.36268 
432 ,80.6129 ,1.50010 ,-0.54997 ,-5.39626 
433 ,80.7891 ,1.50175 ,-0.56365 ,-5.53058 
434 ,80.9813 ,1.50370 ,-0.57734 ,-5.66489 
435 ,81.1734 ,1.50557 ,-0.56023 ,-5.49700 
436 ,81.3655 ,1.50745 ,-0.60814 ,-5.96709 
437 ,81.5575 ,1.50937 ,-0.59103 ,-5.79920 
438 ,81.7335 ,1.51121 ,-0.61156 ,-6.00067 
439 ,81.9256 ,1.51302 ,-0.63552 ,-6.23572 
440 ,82.1017 ,1.51487 ,-0.64579 ,-6.33646 
441 ,82.2778 ,1.51662 ,-0.63210 ,-6.20214 
442 ,82.4535 ,1.51835 ,-0.63894 ,-6.26930 
443 ,82.6455 ,1.52020 ,-0.64236 ,-6.30288 
444 ,82.8216 ,1.52208 ,-0.66632 ,-6.53793 
445 ,82.9977 ,1.52380 ,-0.67659 ,-6.63866 
446 ,83.1738 ,1.52559 ,-0.68001 ,-6.67224 
447 ,83.3659 ,1.52742 ,-0.70396 ,-6.90729 
448 ,83.5420 ,1.52924 ,-0.71081 ,-6.97444 
449 ,83.7020 ,1.53097 ,-0.71081 ,-6.97444 
450 ,83.8785 ,1.53262 ,-0.72107 ,-7.07518 
451 ,84.0381 ,1.53437 ,-0.70739 ,-6.94086 
452 ,84.2142 ,1.53597 ,-0.72107 ,-7.07518 
453 ,84.3903 ,1.53775 ,-0.72792 ,-7.14233 
454 ,84.5664 ,1.53947 ,-0.74845 ,-7.34380 
455 ,84.7425 ,1.54123 ,-0.75187 ,-7.37738 
456 ,84.9023 ,1.54300 ,-0.77583 ,-7.61243 
457 ,85.0787 ,1.54462 ,-0.78610 ,-7.71317 
458 ,85.2547 ,1.54635 ,-0.77583 ,-7.61243 
459 ,85.4307 ,1.54811 ,-0.77925 ,-7.64601 
460 ,85.6067 ,1.54989 ,-0.78610 ,-7.71317 
461 ,85.7829 ,1.55164 ,-0.82374 ,-8.08253 
462 ,85.9588 ,1.55343 ,-0.81005 ,-7.94821 
463 ,86.1350 ,1.55517 ,-0.82032 ,-8.04895 
