Data stamp = , 23-04-2022 17:53:18 524

Calibration Values: 
Slope = , 26.54 , g/V 
Offset Voltage at no contact = , -0.501760 , V 

No , Time , Stage Position ,   Mass , Force 
   ,  (s) ,      (mm)      ,   (g)  , (mN)  

1 ,0.0000 ,0.69939 ,5.29167 ,51.92190 
2 ,0.2008 ,0.69948 ,5.30878 ,52.08979 
3 ,0.4411 ,0.70008 ,5.30878 ,52.08979 
4 ,0.6494 ,0.70123 ,5.31221 ,52.12337 
5 ,0.8734 ,0.70295 ,5.30536 ,52.05621 
6 ,1.0656 ,0.70482 ,5.31905 ,52.19052 
7 ,1.2571 ,0.70674 ,5.29167 ,51.92190 
8 ,1.4336 ,0.70843 ,5.30194 ,52.02263 
9 ,1.6253 ,0.71033 ,5.28483 ,51.85474 
10 ,1.8017 ,0.71213 ,5.27798 ,51.78758 
11 ,1.9938 ,0.71409 ,5.27114 ,51.72043 
12 ,2.1857 ,0.71597 ,5.24376 ,51.45180 
13 ,2.3615 ,0.71788 ,5.21981 ,51.21675 
14 ,2.5541 ,0.71962 ,5.23007 ,51.31749 
15 ,2.7461 ,0.72169 ,5.19243 ,50.94813 
16 ,2.9543 ,0.72371 ,5.17190 ,50.74666 
17 ,3.1463 ,0.72560 ,5.15821 ,50.61234 
18 ,3.3543 ,0.72766 ,5.14452 ,50.47803 
19 ,3.5300 ,0.72942 ,5.12056 ,50.24298 
20 ,3.7065 ,0.73123 ,5.10345 ,50.07509 
21 ,3.8827 ,0.73300 ,5.08634 ,49.90720 
22 ,4.0587 ,0.73478 ,5.06239 ,49.67215 
23 ,4.2506 ,0.73665 ,5.06923 ,49.73931 
24 ,4.4585 ,0.73866 ,5.02132 ,49.26921 
25 ,4.6509 ,0.74057 ,5.01106 ,49.16848 
26 ,4.8590 ,0.74274 ,4.99052 ,48.96701 
27 ,5.0350 ,0.74455 ,4.97683 ,48.83269 
28 ,5.2111 ,0.74627 ,4.96657 ,48.73196 
29 ,5.4192 ,0.74819 ,4.93235 ,48.39618 
30 ,5.5951 ,0.75020 ,4.92550 ,48.32902 
31 ,5.7714 ,0.75188 ,4.91866 ,48.26186 
32 ,5.9635 ,0.75373 ,4.87075 ,47.79177 
33 ,6.1556 ,0.75566 ,4.87417 ,47.82534 
34 ,6.3636 ,0.75764 ,4.84337 ,47.52314 
35 ,6.5553 ,0.75962 ,4.81941 ,47.28809 
36 ,6.7157 ,0.76140 ,4.81257 ,47.22093 
37 ,6.9077 ,0.76315 ,4.78519 ,46.95231 
38 ,7.0840 ,0.76498 ,4.76466 ,46.75084 
39 ,7.2761 ,0.76689 ,4.76124 ,46.71726 
40 ,7.4681 ,0.76879 ,4.72359 ,46.34790 
41 ,7.6442 ,0.77060 ,4.71675 ,46.28074 
42 ,7.8357 ,0.77248 ,4.69964 ,46.11285 
43 ,8.0124 ,0.77427 ,4.69622 ,46.07927 
44 ,8.2042 ,0.77619 ,4.65173 ,45.64275 
45 ,8.3965 ,0.77812 ,4.65173 ,45.64275 
46 ,8.5884 ,0.78004 ,4.61751 ,45.30697 
47 ,8.7642 ,0.78180 ,4.60040 ,45.13908 
48 ,8.9567 ,0.78368 ,4.60382 ,45.17266 
49 ,9.1649 ,0.78572 ,4.56960 ,44.83688 
50 ,9.3567 ,0.78762 ,4.56960 ,44.83688 
51 ,9.5487 ,0.78959 ,4.53537 ,44.50109 
52 ,9.7250 ,0.79141 ,4.52169 ,44.36678 
53 ,9.9171 ,0.79323 ,4.51484 ,44.29962 
54 ,10.1251 ,0.79533 ,4.47378 ,43.89668 
55 ,10.3172 ,0.79728 ,4.47378 ,43.89668 
56 ,10.4932 ,0.79905 ,4.46009 ,43.76237 
57 ,10.6696 ,0.80084 ,4.42586 ,43.42659 
58 ,10.8779 ,0.80287 ,4.42929 ,43.46016 
59 ,11.0536 ,0.80473 ,4.40191 ,43.19154 
60 ,11.2456 ,0.80655 ,4.38480 ,43.02365 
61 ,11.4376 ,0.80851 ,4.38138 ,42.99007 
62 ,11.6137 ,0.81023 ,4.36084 ,42.78860 
63 ,11.8058 ,0.81211 ,4.31978 ,42.38566 
64 ,11.9815 ,0.81410 ,4.30609 ,42.25135 
65 ,12.1581 ,0.81569 ,4.30267 ,42.21777 
66 ,12.3661 ,0.81772 ,4.27187 ,41.91556 
67 ,12.5580 ,0.81966 ,4.26845 ,41.88198 
68 ,12.7503 ,0.82157 ,4.22738 ,41.47905 
69 ,12.9423 ,0.82355 ,4.21711 ,41.37831 
70 ,13.1184 ,0.82531 ,4.22053 ,41.41189 
71 ,13.2946 ,0.82708 ,4.20685 ,41.27758 
72 ,13.4864 ,0.82894 ,4.16920 ,40.90821 
73 ,13.6627 ,0.83073 ,4.15209 ,40.74032 
74 ,13.8386 ,0.83254 ,4.15209 ,40.74032 
75 ,14.0309 ,0.83431 ,4.13840 ,40.60601 
76 ,14.2228 ,0.83637 ,4.10418 ,40.27023 
77 ,14.4152 ,0.83824 ,4.10760 ,40.30380 
78 ,14.6070 ,0.84019 ,4.06996 ,39.93444 
79 ,14.7829 ,0.84199 ,4.03916 ,39.63224 
80 ,14.9752 ,0.84381 ,4.04258 ,39.66582 
81 ,15.1829 ,0.84586 ,4.01520 ,39.39719 
82 ,15.3594 ,0.84774 ,4.00152 ,39.26288 
83 ,15.5511 ,0.84965 ,3.99467 ,39.19572 
84 ,15.7276 ,0.85142 ,3.96045 ,38.85994 
85 ,15.9516 ,0.85347 ,3.95018 ,38.75920 
86 ,16.1438 ,0.85551 ,3.93650 ,38.62489 
87 ,16.3518 ,0.85757 ,3.90570 ,38.32268 
88 ,16.5117 ,0.85933 ,3.89543 ,38.22195 
89 ,16.6878 ,0.86095 ,3.87147 ,37.98690 
90 ,16.8641 ,0.86274 ,3.85779 ,37.85259 
91 ,17.0721 ,0.86475 ,3.84752 ,37.75185 
92 ,17.2643 ,0.86676 ,3.83041 ,37.58396 
93 ,17.4400 ,0.86853 ,3.82014 ,37.48323 
94 ,17.6162 ,0.87025 ,3.81330 ,37.41607 
95 ,17.7924 ,0.87200 ,3.78934 ,37.18102 
96 ,17.9843 ,0.87386 ,3.76881 ,36.97955 
97 ,18.1764 ,0.87585 ,3.74485 ,36.74450 
98 ,18.3529 ,0.87764 ,3.73117 ,36.61019 
99 ,18.5765 ,0.87975 ,3.71405 ,36.44230 
100 ,18.7529 ,0.88168 ,3.70721 ,36.37514 
101 ,18.9449 ,0.88348 ,3.68668 ,36.17367 
102 ,19.1370 ,0.88539 ,3.65246 ,35.83789 
103 ,19.3289 ,0.88732 ,3.62850 ,35.60284 
104 ,19.5206 ,0.88927 ,3.61139 ,35.43495 
105 ,19.7127 ,0.89116 ,3.59770 ,35.30064 
106 ,19.8887 ,0.89307 ,3.59428 ,35.26706 
107 ,20.0649 ,0.89474 ,3.56348 ,34.96485 
108 ,20.2410 ,0.89650 ,3.54979 ,34.83054 
109 ,20.4170 ,0.89828 ,3.55663 ,34.89770 
110 ,20.6089 ,0.90014 ,3.51557 ,34.49476 
111 ,20.7851 ,0.90199 ,3.51215 ,34.46118 
112 ,20.9774 ,0.90383 ,3.50530 ,34.39402 
113 ,21.1692 ,0.90573 ,3.47108 ,34.05824 
114 ,21.3619 ,0.90766 ,3.46424 ,33.99108 
115 ,21.5700 ,0.90975 ,3.42659 ,33.62172 
116 ,21.7618 ,0.91174 ,3.41633 ,33.52099 
117 ,21.9380 ,0.91349 ,3.41633 ,33.52099 
118 ,22.1302 ,0.91529 ,3.38895 ,33.25236 
119 ,22.3222 ,0.91728 ,3.38553 ,33.21878 
120 ,22.5144 ,0.91921 ,3.33762 ,32.74869 
121 ,22.6904 ,0.92103 ,3.33762 ,32.74869 
122 ,22.8821 ,0.92287 ,3.31366 ,32.51364 
123 ,23.0742 ,0.92482 ,3.29655 ,32.34575 
124 ,23.2664 ,0.92670 ,3.27259 ,32.11070 
125 ,23.4587 ,0.92867 ,3.26917 ,32.07712 
126 ,23.6505 ,0.93059 ,3.23837 ,31.77492 
127 ,23.8266 ,0.93237 ,3.22126 ,31.60702 
128 ,24.0029 ,0.93413 ,3.22468 ,31.64060 
129 ,24.2108 ,0.93612 ,3.19046 ,31.30482 
130 ,24.3707 ,0.93789 ,3.19046 ,31.30482 
131 ,24.5472 ,0.93954 ,3.17677 ,31.17051 
132 ,24.7393 ,0.94144 ,3.15624 ,30.96904 
133 ,24.9149 ,0.94326 ,3.14940 ,30.90188 
134 ,25.1074 ,0.94505 ,3.12202 ,30.63325 
135 ,25.2994 ,0.94706 ,3.11518 ,30.56610 
136 ,25.4749 ,0.94881 ,3.10149 ,30.43178 
137 ,25.6676 ,0.95073 ,3.09464 ,30.36463 
138 ,25.8755 ,0.95273 ,3.08095 ,30.23031 
139 ,26.0515 ,0.95457 ,3.03647 ,29.79380 
140 ,26.2279 ,0.95640 ,3.02962 ,29.72664 
141 ,26.4038 ,0.95820 ,3.01593 ,29.59233 
142 ,26.5798 ,0.95983 ,3.01251 ,29.55875 
143 ,26.7881 ,0.96191 ,2.97487 ,29.18939 
144 ,26.9641 ,0.96368 ,2.96460 ,29.08865 
145 ,27.1398 ,0.96553 ,2.94064 ,28.85360 
146 ,27.3323 ,0.96729 ,2.93722 ,28.82003 
147 ,27.5404 ,0.96939 ,2.90985 ,28.55140 
148 ,27.7325 ,0.97134 ,2.89616 ,28.41709 
149 ,27.9245 ,0.97321 ,2.89616 ,28.41709 
150 ,28.1006 ,0.97506 ,2.88247 ,28.28277 
151 ,28.2767 ,0.97684 ,2.84482 ,27.91341 
152 ,28.4682 ,0.97876 ,2.82771 ,27.74552 
153 ,28.6764 ,0.98072 ,2.82771 ,27.74552 
154 ,28.8688 ,0.98276 ,2.79691 ,27.44332 
155 ,29.0606 ,0.98458 ,2.80376 ,27.51047 
156 ,29.2527 ,0.98658 ,2.75243 ,27.00680 
157 ,29.4291 ,0.98838 ,2.75585 ,27.04038 
158 ,29.6212 ,0.99032 ,2.74216 ,26.90606 
159 ,29.7972 ,0.99203 ,2.72163 ,26.70459 
160 ,29.9892 ,0.99394 ,2.69767 ,26.46954 
161 ,30.1655 ,0.99573 ,2.71820 ,26.67101 
162 ,30.3575 ,0.99762 ,2.68740 ,26.36881 
163 ,30.5336 ,0.99936 ,2.66687 ,26.16734 
164 ,30.7416 ,1.00143 ,2.64634 ,25.96587 
165 ,30.9338 ,1.00335 ,2.61896 ,25.69724 
166 ,31.1258 ,1.00533 ,2.62581 ,25.76440 
167 ,31.3178 ,1.00726 ,2.59501 ,25.46220 
168 ,31.5096 ,1.00908 ,2.58132 ,25.32788 
169 ,31.6858 ,1.01092 ,2.58474 ,25.36146 
170 ,31.8941 ,1.01297 ,2.55736 ,25.09283 
171 ,32.0861 ,1.01484 ,2.54367 ,24.95852 
172 ,32.2623 ,1.01666 ,2.52998 ,24.82421 
173 ,32.4381 ,1.01845 ,2.49576 ,24.48842 
174 ,32.6305 ,1.02029 ,2.50945 ,24.62274 
175 ,32.8385 ,1.02239 ,2.47181 ,24.25338 
176 ,33.0149 ,1.02417 ,2.46154 ,24.15264 
177 ,33.2227 ,1.02624 ,2.45127 ,24.05191 
178 ,33.3988 ,1.02801 ,2.43074 ,23.85044 
179 ,33.5745 ,1.02985 ,2.41705 ,23.71612 
180 ,33.7508 ,1.03156 ,2.39994 ,23.54823 
181 ,33.9269 ,1.03331 ,2.39310 ,23.48108 
182 ,34.1033 ,1.03510 ,2.39652 ,23.51465 
183 ,34.3109 ,1.03704 ,2.35203 ,23.07814 
184 ,34.5347 ,1.03919 ,2.35545 ,23.11171 
185 ,34.7748 ,1.04161 ,2.31097 ,22.67520 
186 ,34.9829 ,1.04370 ,2.29385 ,22.50731 
187 ,35.1592 ,1.04565 ,2.27674 ,22.33941 
188 ,35.4151 ,1.04803 ,2.26648 ,22.23868 
189 ,35.6074 ,1.05011 ,2.24594 ,22.03721 
190 ,35.8633 ,1.05262 ,2.22199 ,21.80216 
191 ,36.0714 ,1.05466 ,2.22199 ,21.80216 
192 ,36.2801 ,1.05668 ,2.20488 ,21.63427 
193 ,36.6958 ,1.06008 ,2.17408 ,21.33206 
194 ,36.9518 ,1.06340 ,2.16039 ,21.19775 
195 ,37.1918 ,1.06569 ,2.13301 ,20.92912 
196 ,37.3843 ,1.06783 ,2.10221 ,20.62692 
197 ,37.6080 ,1.07015 ,2.08852 ,20.49261 
198 ,37.8481 ,1.07225 ,2.09537 ,20.55976 
199 ,38.0405 ,1.07432 ,2.07826 ,20.39187 
200 ,38.2804 ,1.07675 ,2.06115 ,20.22398 
201 ,38.5207 ,1.07891 ,2.02693 ,19.88820 
202 ,38.7926 ,1.08181 ,2.02008 ,19.82104 
203 ,39.0648 ,1.08428 ,1.98586 ,19.48526 
204 ,39.2407 ,1.08643 ,1.96875 ,19.31737 
205 ,39.4168 ,1.08821 ,1.95506 ,19.18305 
206 ,39.6249 ,1.09012 ,1.93111 ,18.94801 
207 ,39.8174 ,1.09213 ,1.92768 ,18.91443 
208 ,40.0409 ,1.09430 ,1.90715 ,18.71296 
209 ,40.2652 ,1.09642 ,1.90373 ,18.67938 
210 ,40.4577 ,1.09853 ,1.86951 ,18.34360 
211 ,40.6972 ,1.10096 ,1.85582 ,18.20928 
212 ,40.9537 ,1.10317 ,1.84555 ,18.10855 
213 ,41.2094 ,1.10596 ,1.81475 ,17.80634 
214 ,41.4336 ,1.10817 ,1.80791 ,17.73919 
215 ,41.6416 ,1.11037 ,1.80449 ,17.70561 
216 ,41.8336 ,1.11232 ,1.76342 ,17.30267 
217 ,42.0897 ,1.11452 ,1.77026 ,17.36983 
218 ,42.2818 ,1.11672 ,1.73262 ,17.00046 
219 ,42.4739 ,1.11865 ,1.73946 ,17.06762 
220 ,42.6500 ,1.12057 ,1.71209 ,16.79899 
221 ,42.8100 ,1.12222 ,1.71551 ,16.83257 
222 ,42.9862 ,1.12389 ,1.70182 ,16.69826 
223 ,43.2103 ,1.12592 ,1.67102 ,16.39605 
224 ,43.4025 ,1.12799 ,1.67102 ,16.39605 
225 ,43.6424 ,1.13033 ,1.65733 ,16.26174 
226 ,43.8344 ,1.13238 ,1.62311 ,15.92596 
227 ,44.0106 ,1.13418 ,1.62311 ,15.92596 
228 ,44.1866 ,1.13587 ,1.61284 ,15.82522 
229 ,44.3948 ,1.13783 ,1.58547 ,15.55660 
230 ,44.5711 ,1.13975 ,1.58889 ,15.59018 
231 ,44.7949 ,1.14189 ,1.56836 ,15.38871 
232 ,44.9869 ,1.14386 ,1.55124 ,15.22081 
233 ,45.1791 ,1.14573 ,1.53071 ,15.01934 
234 ,45.3551 ,1.14755 ,1.52045 ,14.91861 
235 ,45.5632 ,1.14950 ,1.50333 ,14.75072 
236 ,45.7395 ,1.15140 ,1.49307 ,14.64998 
237 ,45.9153 ,1.15319 ,1.47253 ,14.44851 
238 ,46.1234 ,1.15508 ,1.46569 ,14.38136 
239 ,46.3155 ,1.15714 ,1.43147 ,14.04557 
240 ,46.5235 ,1.15912 ,1.44858 ,14.21346 
241 ,46.7157 ,1.16107 ,1.42805 ,14.01199 
242 ,46.8917 ,1.16297 ,1.40751 ,13.81053 
243 ,47.0681 ,1.16472 ,1.40751 ,13.81053 
244 ,47.3399 ,1.16702 ,1.38356 ,13.57548 
245 ,47.5325 ,1.16928 ,1.37329 ,13.47474 
246 ,47.7721 ,1.17166 ,1.35618 ,13.30685 
247 ,47.9643 ,1.17361 ,1.32880 ,13.03822 
248 ,48.1568 ,1.17545 ,1.32538 ,13.00465 
249 ,48.4604 ,1.17829 ,1.30485 ,12.80318 
250 ,48.6525 ,1.18046 ,1.30143 ,12.76960 
251 ,48.8289 ,1.18231 ,1.28774 ,12.63528 
252 ,49.0846 ,1.18470 ,1.27405 ,12.50097 
253 ,49.2607 ,1.18664 ,1.26036 ,12.36666 
254 ,49.4528 ,1.18842 ,1.24667 ,12.23235 
255 ,49.6609 ,1.19050 ,1.24325 ,12.19877 
256 ,49.8531 ,1.19246 ,1.21587 ,11.93014 
257 ,50.0132 ,1.19423 ,1.20561 ,11.82941 
258 ,50.3817 ,1.19686 ,1.17823 ,11.56078 
259 ,50.5414 ,1.19952 ,1.16112 ,11.39289 
260 ,50.7333 ,1.20126 ,1.14743 ,11.25857 
261 ,50.9413 ,1.20326 ,1.12690 ,11.05710 
262 ,51.1015 ,1.20512 ,1.13374 ,11.12426 
263 ,51.2776 ,1.20677 ,1.10979 ,10.88921 
264 ,51.5016 ,1.20879 ,1.08925 ,10.68774 
265 ,51.6939 ,1.21085 ,1.10294 ,10.82206 
266 ,51.8698 ,1.21269 ,1.08241 ,10.62059 
267 ,52.0780 ,1.21461 ,1.05503 ,10.35196 
268 ,52.2541 ,1.21652 ,1.07899 ,10.58701 
269 ,52.4300 ,1.21827 ,1.04134 ,10.21765 
270 ,52.6382 ,1.22019 ,1.02081 ,10.01618 
271 ,52.8302 ,1.22228 ,1.02081 ,10.01618 
272 ,52.9904 ,1.22398 ,0.99685 ,9.78113 
273 ,53.1823 ,1.22578 ,1.00028 ,9.81471 
274 ,53.3906 ,1.22780 ,0.98659 ,9.68039 
275 ,53.5665 ,1.22967 ,0.95579 ,9.37819 
276 ,53.8066 ,1.23174 ,0.93868 ,9.21030 
277 ,53.9987 ,1.23388 ,0.92841 ,9.10956 
278 ,54.1747 ,1.23567 ,0.93525 ,9.17672 
279 ,54.3668 ,1.23761 ,0.92499 ,9.07598 
280 ,54.5590 ,1.23953 ,0.89077 ,8.74020 
281 ,54.7350 ,1.24127 ,0.90446 ,8.87451 
282 ,54.9591 ,1.24337 ,0.88734 ,8.70662 
283 ,55.1511 ,1.24545 ,0.85654 ,8.40442 
284 ,55.3274 ,1.24726 ,0.84970 ,8.33726 
285 ,55.5034 ,1.24904 ,0.84286 ,8.27011 
286 ,55.7274 ,1.25118 ,0.81548 ,8.00148 
287 ,55.9199 ,1.25313 ,0.81206 ,7.96790 
288 ,56.1275 ,1.25525 ,0.80521 ,7.90074 
289 ,56.3036 ,1.25698 ,0.78810 ,7.73285 
290 ,56.4957 ,1.25892 ,0.78468 ,7.69927 
291 ,56.6878 ,1.26080 ,0.74361 ,7.29633 
292 ,56.8959 ,1.26277 ,0.73335 ,7.19560 
293 ,57.0721 ,1.26474 ,0.72992 ,7.16202 
294 ,57.2801 ,1.26662 ,0.71281 ,6.99413 
295 ,57.4721 ,1.26860 ,0.71281 ,6.99413 
296 ,57.6643 ,1.27049 ,0.69913 ,6.85982 
297 ,57.8402 ,1.27236 ,0.68201 ,6.69193 
298 ,58.0323 ,1.27424 ,0.68201 ,6.69193 
299 ,58.2244 ,1.27618 ,0.65806 ,6.45688 
300 ,58.4166 ,1.27807 ,0.65464 ,6.42330 
301 ,58.6408 ,1.28030 ,0.65806 ,6.45688 
302 ,58.8647 ,1.28258 ,0.63753 ,6.25541 
303 ,59.0567 ,1.28449 ,0.61357 ,6.02036 
304 ,59.2648 ,1.28647 ,0.60330 ,5.91962 
305 ,59.4570 ,1.28858 ,0.58962 ,5.78531 
306 ,59.6810 ,1.29077 ,0.57251 ,5.61742 
307 ,59.8570 ,1.29253 ,0.56566 ,5.55026 
308 ,60.0492 ,1.29437 ,0.53828 ,5.28164 
309 ,60.2413 ,1.29629 ,0.54513 ,5.34879 
310 ,60.4333 ,1.29822 ,0.52459 ,5.14732 
311 ,60.6254 ,1.30020 ,0.50748 ,4.97943 
312 ,60.8174 ,1.30206 ,0.51775 ,5.08017 
313 ,60.9935 ,1.30393 ,0.48695 ,4.77796 
314 ,61.1696 ,1.30572 ,0.48695 ,4.77796 
315 ,61.3617 ,1.30749 ,0.47668 ,4.67723 
316 ,61.5537 ,1.30942 ,0.47326 ,4.64365 
317 ,61.7297 ,1.31132 ,0.43562 ,4.27429 
318 ,61.8898 ,1.31298 ,0.43562 ,4.27429 
319 ,62.0980 ,1.31473 ,0.42877 ,4.20713 
320 ,62.2903 ,1.31683 ,0.40824 ,4.00566 
321 ,62.5141 ,1.31910 ,0.40824 ,4.00566 
322 ,62.7223 ,1.32104 ,0.40140 ,3.93850 
323 ,62.9143 ,1.32302 ,0.37744 ,3.70346 
324 ,63.0904 ,1.32492 ,0.37060 ,3.63630 
325 ,63.3145 ,1.32689 ,0.35691 ,3.50199 
326 ,63.4905 ,1.32890 ,0.32953 ,3.23336 
327 ,63.6828 ,1.33070 ,0.34664 ,3.40125 
328 ,63.9547 ,1.33312 ,0.32953 ,3.23336 
329 ,64.1468 ,1.33531 ,0.29873 ,2.93116 
330 ,64.3229 ,1.33721 ,0.29873 ,2.93116 
331 ,64.5149 ,1.33906 ,0.30558 ,2.99831 
332 ,64.7230 ,1.34108 ,0.27820 ,2.72969 
333 ,64.9151 ,1.34299 ,0.25424 ,2.49464 
334 ,65.1231 ,1.34503 ,0.24740 ,2.42748 
335 ,65.3154 ,1.34703 ,0.24055 ,2.36032 
336 ,65.5395 ,1.34926 ,0.24740 ,2.42748 
337 ,65.7318 ,1.35118 ,0.20633 ,2.02454 
338 ,65.9401 ,1.35324 ,0.21318 ,2.09170 
339 ,66.1477 ,1.35534 ,0.19607 ,1.92381 
340 ,66.3397 ,1.35732 ,0.18580 ,1.82307 
341 ,66.5161 ,1.35908 ,0.18238 ,1.78949 
342 ,66.7559 ,1.36144 ,0.16869 ,1.65518 
343 ,66.9319 ,1.36330 ,0.14816 ,1.45371 
344 ,67.1082 ,1.36496 ,0.14473 ,1.42013 
345 ,67.2841 ,1.36684 ,0.14816 ,1.45371 
346 ,67.4922 ,1.36870 ,0.10367 ,1.01719 
347 ,67.7163 ,1.37101 ,0.10367 ,1.01719 
348 ,67.8923 ,1.37281 ,0.08656 ,0.84930 
349 ,68.0844 ,1.37474 ,0.09340 ,0.91646 
350 ,68.2765 ,1.37660 ,0.07971 ,0.78214 
351 ,68.4526 ,1.37841 ,0.06945 ,0.68141 
352 ,68.7566 ,1.38137 ,0.05918 ,0.58067 
353 ,68.9647 ,1.38351 ,0.03865 ,0.37920 
354 ,69.1408 ,1.38530 ,0.04207 ,0.41278 
355 ,69.3329 ,1.38716 ,0.02496 ,0.24489 
356 ,69.5250 ,1.38907 ,0.01469 ,0.14416 
357 ,69.7011 ,1.39097 ,-0.00584 ,-0.05731 
358 ,69.9091 ,1.39290 ,-0.01269 ,-0.12447 
359 ,70.1013 ,1.39488 ,-0.01269 ,-0.12447 
360 ,70.2933 ,1.39678 ,-0.05033 ,-0.49383 
361 ,70.5174 ,1.39889 ,-0.04691 ,-0.46025 
362 ,70.6934 ,1.40089 ,-0.06402 ,-0.62814 
363 ,70.8695 ,1.40258 ,-0.08113 ,-0.79604 
364 ,71.0616 ,1.40446 ,-0.07086 ,-0.69530 
365 ,71.2698 ,1.40644 ,-0.09482 ,-0.93035 
366 ,71.4617 ,1.40845 ,-0.08455 ,-0.82961 
367 ,71.6538 ,1.41042 ,-0.10508 ,-1.03108 
368 ,71.8462 ,1.41234 ,-0.11877 ,-1.16540 
369 ,72.0220 ,1.41421 ,-0.13246 ,-1.29971 
370 ,72.2941 ,1.41635 ,-0.13246 ,-1.29971 
371 ,72.4862 ,1.41873 ,-0.13246 ,-1.29971 
372 ,72.6623 ,1.42049 ,-0.14615 ,-1.43402 
373 ,72.8703 ,1.42246 ,-0.17695 ,-1.73623 
374 ,73.0304 ,1.42434 ,-0.17353 ,-1.70265 
375 ,73.1904 ,1.42591 ,-0.18037 ,-1.76981 
376 ,73.4147 ,1.42778 ,-0.18379 ,-1.80338 
377 ,73.5746 ,1.42979 ,-0.21802 ,-2.13917 
378 ,73.7508 ,1.43138 ,-0.21459 ,-2.10559 
379 ,74.0227 ,1.43364 ,-0.22486 ,-2.20632 
380 ,74.1829 ,1.43584 ,-0.24539 ,-2.40779 
381 ,74.3590 ,1.43747 ,-0.24197 ,-2.37422 
382 ,74.5830 ,1.43953 ,-0.25224 ,-2.47495 
383 ,74.7592 ,1.44155 ,-0.27961 ,-2.74358 
384 ,74.9353 ,1.44321 ,-0.28646 ,-2.81073 
385 ,75.1592 ,1.44527 ,-0.27619 ,-2.71000 
386 ,75.3513 ,1.44735 ,-0.31041 ,-3.04578 
387 ,75.5275 ,1.44913 ,-0.29330 ,-2.87789 
388 ,75.7355 ,1.45111 ,-0.31041 ,-3.04578 
389 ,75.9276 ,1.45308 ,-0.31384 ,-3.07936 
390 ,76.1199 ,1.45505 ,-0.33095 ,-3.24725 
391 ,76.3758 ,1.45742 ,-0.35148 ,-3.44872 
392 ,76.5998 ,1.45971 ,-0.34464 ,-3.38156 
393 ,76.8079 ,1.46186 ,-0.37201 ,-3.65019 
394 ,77.0322 ,1.46400 ,-0.36517 ,-3.58303 
395 ,77.2883 ,1.46671 ,-0.37886 ,-3.71735 
396 ,77.5282 ,1.46906 ,-0.40623 ,-3.98597 
397 ,77.7203 ,1.47105 ,-0.38912 ,-3.81808 
398 ,77.8970 ,1.47285 ,-0.43019 ,-4.22102 
399 ,78.1205 ,1.47499 ,-0.44388 ,-4.35534 
400 ,78.3126 ,1.47691 ,-0.44730 ,-4.38891 
401 ,78.5051 ,1.47889 ,-0.45072 ,-4.42249 
402 ,78.7287 ,1.48120 ,-0.46783 ,-4.59038 
403 ,78.9207 ,1.48300 ,-0.47468 ,-4.65754 
404 ,79.1129 ,1.48503 ,-0.46783 ,-4.59038 
405 ,79.3049 ,1.48690 ,-0.48494 ,-4.75828 
406 ,79.4974 ,1.48882 ,-0.50548 ,-4.95975 
407 ,79.7691 ,1.49153 ,-0.49863 ,-4.89259 
408 ,79.9773 ,1.49353 ,-0.51917 ,-5.09406 
409 ,80.1698 ,1.49551 ,-0.54997 ,-5.39626 
410 ,80.3773 ,1.49764 ,-0.53628 ,-5.26195 
411 ,80.5694 ,1.49955 ,-0.54654 ,-5.36268 
412 ,80.7618 ,1.50147 ,-0.55681 ,-5.46342 
413 ,81.0175 ,1.50392 ,-0.57392 ,-5.63131 
414 ,81.2096 ,1.50589 ,-0.57734 ,-5.66489 
415 ,81.3862 ,1.50775 ,-0.58077 ,-5.69847 
416 ,81.6098 ,1.50990 ,-0.58419 ,-5.73205 
417 ,81.8018 ,1.51179 ,-0.59788 ,-5.86636 
418 ,81.9779 ,1.51369 ,-0.63210 ,-6.20214 
419 ,82.1540 ,1.51544 ,-0.63210 ,-6.20214 
420 ,82.3621 ,1.51736 ,-0.62868 ,-6.16856 
421 ,82.5542 ,1.51934 ,-0.64921 ,-6.37003 
422 ,82.7783 ,1.52170 ,-0.65605 ,-6.43719 
423 ,82.9709 ,1.52352 ,-0.65947 ,-6.47077 
424 ,83.1945 ,1.52576 ,-0.67316 ,-6.60508 
425 ,83.3864 ,1.52764 ,-0.68343 ,-6.70582 
426 ,83.5788 ,1.52956 ,-0.69712 ,-6.84013 
427 ,83.8348 ,1.53211 ,-0.70739 ,-6.94086 
428 ,84.0267 ,1.53409 ,-0.72107 ,-7.07518 
429 ,84.2192 ,1.53597 ,-0.72792 ,-7.14233 
430 ,84.4911 ,1.53863 ,-0.72792 ,-7.14233 
431 ,84.6990 ,1.54081 ,-0.75530 ,-7.41096 
432 ,84.8753 ,1.54265 ,-0.74503 ,-7.31023 
433 ,85.0514 ,1.54437 ,-0.75872 ,-7.44454 
434 ,85.2595 ,1.54638 ,-0.76556 ,-7.51170 
435 ,85.4355 ,1.54817 ,-0.78610 ,-7.71317 
436 ,85.6115 ,1.54994 ,-0.79294 ,-7.78032 
437 ,85.7717 ,1.55167 ,-0.77925 ,-7.64601 
438 ,85.9637 ,1.55339 ,-0.79978 ,-7.84748 
439 ,86.1397 ,1.55524 ,-0.81005 ,-7.94821 
440 ,86.3157 ,1.55703 ,-0.83401 ,-8.18326 
441 ,86.4918 ,1.55883 ,-0.82716 ,-8.11611 
442 ,86.6680 ,1.56052 ,-0.83058 ,-8.14968 
443 ,86.8600 ,1.56238 ,-0.84427 ,-8.28400 
444 ,87.0362 ,1.56416 ,-0.86481 ,-8.48547 
445 ,87.2123 ,1.56595 ,-0.86138 ,-8.45189 
446 ,87.3883 ,1.56772 ,-0.86138 ,-8.45189 
447 ,87.5803 ,1.56957 ,-0.87507 ,-8.58620 
448 ,87.7723 ,1.57146 ,-0.87849 ,-8.61978 
449 ,87.9644 ,1.57339 ,-0.89560 ,-8.78767 
450 ,88.1565 ,1.57536 ,-0.90587 ,-8.88841 
451 ,88.3325 ,1.57724 ,-0.89218 ,-8.75409 
452 ,88.5247 ,1.57897 ,-0.91614 ,-8.98914 
453 ,88.7167 ,1.58101 ,-0.92983 ,-9.12345 
454 ,88.9248 ,1.58302 ,-0.91614 ,-8.98914 
455 ,89.1013 ,1.58486 ,-0.94694 ,-9.29135 
456 ,89.3095 ,1.58693 ,-0.94009 ,-9.22419 
457 ,89.5012 ,1.58884 ,-0.95378 ,-9.35850 
458 ,89.6936 ,1.59070 ,-0.95720 ,-9.39208 
459 ,89.9012 ,1.59276 ,-0.97774 ,-9.59355 
460 ,90.0932 ,1.59470 ,-0.98800 ,-9.69429 
461 ,90.2856 ,1.59665 ,-0.99143 ,-9.72786 
462 ,90.5094 ,1.59884 ,-0.99143 ,-9.72786 
