Data stamp = , 22-04-2022 22:28:56 270

Calibration Values: 
Slope = , 26.54 , g/V 
Offset Voltage at no contact = , -0.501760 , V 

No , Time , Stage Position ,   Mass , Force 
   ,  (s) ,      (mm)      ,   (g)  , (mN)  

1 ,0.0000 ,0.69936 ,5.33616 ,52.35841 
2 ,0.2055 ,0.69945 ,5.33274 ,52.32484 
3 ,0.5258 ,0.70025 ,5.35327 ,52.52631 
4 ,0.7021 ,0.70158 ,5.34643 ,52.45915 
5 ,0.8940 ,0.70311 ,5.34301 ,52.42557 
6 ,1.0704 ,0.70484 ,5.35327 ,52.52631 
7 ,1.2780 ,0.70681 ,5.36012 ,52.59346 
8 ,1.4866 ,0.70885 ,5.34643 ,52.45915 
9 ,1.6626 ,0.71079 ,5.33958 ,52.39199 
10 ,1.8707 ,0.71286 ,5.31563 ,52.15694 
11 ,2.0626 ,0.71480 ,5.30878 ,52.08979 
12 ,2.2384 ,0.71651 ,5.29167 ,51.92190 
13 ,2.4148 ,0.71833 ,5.27798 ,51.78758 
14 ,2.6069 ,0.72024 ,5.23350 ,51.35107 
15 ,2.7831 ,0.72194 ,5.23007 ,51.31749 
16 ,2.9912 ,0.72401 ,5.19927 ,51.01528 
17 ,3.1990 ,0.72598 ,5.19243 ,50.94813 
18 ,3.3913 ,0.72802 ,5.18216 ,50.84739 
19 ,3.5670 ,0.72977 ,5.14794 ,50.51161 
20 ,3.7430 ,0.73156 ,5.13083 ,50.34372 
21 ,3.9191 ,0.73331 ,5.11372 ,50.17583 
22 ,4.0955 ,0.73506 ,5.10688 ,50.10867 
23 ,4.3033 ,0.73712 ,5.07950 ,49.84004 
24 ,4.4798 ,0.73891 ,5.07265 ,49.77289 
25 ,4.6715 ,0.74080 ,5.04528 ,49.50426 
26 ,4.8638 ,0.74273 ,5.02817 ,49.33637 
27 ,5.0562 ,0.74472 ,5.02132 ,49.26921 
28 ,5.2320 ,0.74643 ,4.99394 ,49.00058 
29 ,5.4080 ,0.74822 ,4.96315 ,48.69838 
30 ,5.6002 ,0.75015 ,4.94603 ,48.53049 
31 ,5.7922 ,0.75210 ,4.93919 ,48.46333 
32 ,5.9683 ,0.75382 ,4.91181 ,48.19471 
33 ,6.1605 ,0.75574 ,4.90497 ,48.12755 
34 ,6.3686 ,0.75771 ,4.88444 ,47.92608 
35 ,6.5602 ,0.75966 ,4.86732 ,47.75819 
36 ,6.7367 ,0.76149 ,4.85706 ,47.65745 
37 ,6.9288 ,0.76334 ,4.81941 ,47.28809 
38 ,7.1049 ,0.76514 ,4.79204 ,47.01946 
39 ,7.3129 ,0.76707 ,4.79546 ,47.05304 
40 ,7.4889 ,0.76902 ,4.76124 ,46.71726 
41 ,7.6490 ,0.77071 ,4.74070 ,46.51579 
42 ,7.8250 ,0.77233 ,4.72359 ,46.34790 
43 ,8.0012 ,0.77414 ,4.72017 ,46.31432 
44 ,8.2093 ,0.77606 ,4.69964 ,46.11285 
45 ,8.4014 ,0.77804 ,4.68253 ,45.94496 
46 ,8.5933 ,0.78003 ,4.65857 ,45.70991 
47 ,8.7695 ,0.78180 ,4.63119 ,45.44128 
48 ,8.9456 ,0.78361 ,4.62777 ,45.40771 
49 ,9.1378 ,0.78552 ,4.62093 ,45.34055 
50 ,9.3298 ,0.78737 ,4.58328 ,44.97119 
51 ,9.5057 ,0.78915 ,4.57986 ,44.93761 
52 ,9.6816 ,0.79091 ,4.56617 ,44.80330 
53 ,9.8579 ,0.79269 ,4.54222 ,44.56825 
54 ,10.0499 ,0.79459 ,4.52169 ,44.36678 
55 ,10.2260 ,0.79635 ,4.50115 ,44.16531 
56 ,10.4183 ,0.79825 ,4.48746 ,44.03100 
57 ,10.6423 ,0.80040 ,4.46693 ,43.82953 
58 ,10.8498 ,0.80257 ,4.43613 ,43.52732 
59 ,11.0262 ,0.80435 ,4.43271 ,43.49374 
60 ,11.2024 ,0.80610 ,4.40533 ,43.22512 
61 ,11.3786 ,0.80791 ,4.40875 ,43.25870 
62 ,11.5706 ,0.80982 ,4.38822 ,43.05723 
63 ,11.7628 ,0.81165 ,4.36427 ,42.82218 
64 ,11.9387 ,0.81364 ,4.35058 ,42.68786 
65 ,12.1147 ,0.81524 ,4.34373 ,42.62071 
66 ,12.2908 ,0.81708 ,4.32662 ,42.45282 
67 ,12.4669 ,0.81880 ,4.29240 ,42.11703 
68 ,12.6430 ,0.82047 ,4.27187 ,41.91556 
69 ,12.8190 ,0.82228 ,4.25476 ,41.74767 
70 ,13.0112 ,0.82412 ,4.26502 ,41.84841 
71 ,13.2034 ,0.82611 ,4.22738 ,41.47905 
72 ,13.6517 ,0.82935 ,4.21027 ,41.31115 
73 ,13.8436 ,0.83244 ,4.16920 ,40.90821 
74 ,14.0353 ,0.83436 ,4.17262 ,40.94179 
75 ,14.2115 ,0.83619 ,4.13840 ,40.60601 
76 ,14.4037 ,0.83809 ,4.10418 ,40.27023 
77 ,14.5799 ,0.83990 ,4.08707 ,40.10233 
78 ,14.7719 ,0.84183 ,4.08023 ,40.03518 
79 ,14.9481 ,0.84359 ,4.06654 ,39.90087 
80 ,15.1397 ,0.84550 ,4.04258 ,39.66582 
81 ,15.3321 ,0.84731 ,4.03916 ,39.63224 
82 ,15.5082 ,0.84920 ,4.01178 ,39.36361 
83 ,15.7163 ,0.85124 ,4.00836 ,39.33003 
84 ,15.8924 ,0.85306 ,3.96729 ,38.92709 
85 ,16.0684 ,0.85478 ,3.96045 ,38.85994 
86 ,16.2605 ,0.85666 ,3.93650 ,38.62489 
87 ,16.4687 ,0.85860 ,3.92623 ,38.52415 
88 ,16.6608 ,0.86070 ,3.89201 ,38.18837 
89 ,16.8686 ,0.86261 ,3.88516 ,38.12122 
90 ,17.0766 ,0.86486 ,3.87147 ,37.98690 
91 ,17.2525 ,0.86662 ,3.86121 ,37.88617 
92 ,17.4289 ,0.86841 ,3.83041 ,37.58396 
93 ,17.6209 ,0.87028 ,3.81672 ,37.44965 
94 ,17.7969 ,0.87204 ,3.82014 ,37.48323 
95 ,18.0052 ,0.87411 ,3.76881 ,36.97955 
96 ,18.1810 ,0.87601 ,3.76881 ,36.97955 
97 ,18.3569 ,0.87764 ,3.74143 ,36.71093 
98 ,18.5331 ,0.87939 ,3.74485 ,36.74450 
99 ,18.7094 ,0.88117 ,3.72774 ,36.57661 
100 ,18.8856 ,0.88291 ,3.69694 ,36.27441 
101 ,19.0617 ,0.88482 ,3.68668 ,36.17367 
102 ,19.2376 ,0.88641 ,3.65588 ,35.87147 
103 ,19.4134 ,0.88821 ,3.65930 ,35.90505 
104 ,19.6058 ,0.89013 ,3.61823 ,35.50211 
105 ,19.8300 ,0.89220 ,3.62508 ,35.56926 
106 ,20.0219 ,0.89421 ,3.59428 ,35.26706 
107 ,20.1981 ,0.89606 ,3.58401 ,35.16632 
108 ,20.3901 ,0.89797 ,3.56348 ,34.96485 
109 ,20.5657 ,0.89971 ,3.54637 ,34.79696 
110 ,20.7423 ,0.90145 ,3.52584 ,34.59549 
111 ,20.9183 ,0.90326 ,3.51899 ,34.52834 
112 ,21.1103 ,0.90510 ,3.48819 ,34.22613 
113 ,21.2862 ,0.90691 ,3.47450 ,34.09182 
114 ,21.4944 ,0.90899 ,3.46424 ,33.99108 
115 ,21.6866 ,0.91093 ,3.45397 ,33.89035 
116 ,21.8786 ,0.91287 ,3.42317 ,33.58814 
117 ,22.0547 ,0.91462 ,3.41633 ,33.52099 
118 ,22.2308 ,0.91635 ,3.40606 ,33.42025 
119 ,22.4226 ,0.91830 ,3.37526 ,33.11805 
120 ,22.5990 ,0.92008 ,3.35473 ,32.91658 
121 ,22.7908 ,0.92204 ,3.34104 ,32.78227 
122 ,22.9991 ,0.92387 ,3.32051 ,32.58080 
123 ,23.1749 ,0.92582 ,3.31708 ,32.54722 
124 ,23.3671 ,0.92763 ,3.31024 ,32.48006 
125 ,23.5434 ,0.92948 ,3.27602 ,32.14428 
126 ,23.7350 ,0.93133 ,3.26917 ,32.07712 
127 ,23.9115 ,0.93317 ,3.25206 ,31.90923 
128 ,24.0877 ,0.93496 ,3.24864 ,31.87565 
129 ,24.2796 ,0.93689 ,3.19731 ,31.37198 
130 ,24.4718 ,0.93870 ,3.19731 ,31.37198 
131 ,24.6638 ,0.94065 ,3.18020 ,31.20409 
132 ,24.8394 ,0.94254 ,3.16309 ,31.03619 
133 ,25.0158 ,0.94425 ,3.15624 ,30.96904 
134 ,25.2079 ,0.94614 ,3.13913 ,30.80115 
135 ,25.3841 ,0.94791 ,3.12544 ,30.66683 
136 ,25.5760 ,0.94982 ,3.11518 ,30.56610 
137 ,25.7842 ,0.95181 ,3.08780 ,30.29747 
138 ,25.9605 ,0.95366 ,3.05700 ,29.99527 
139 ,26.1683 ,0.95562 ,3.06384 ,30.06242 
140 ,26.3445 ,0.95748 ,3.04673 ,29.89453 
141 ,26.5206 ,0.95931 ,3.01935 ,29.62590 
142 ,26.6966 ,0.96098 ,2.99540 ,29.39086 
143 ,26.8887 ,0.96293 ,3.00567 ,29.49159 
144 ,27.0644 ,0.96465 ,2.97829 ,29.22297 
145 ,27.2409 ,0.96643 ,2.96460 ,29.08865 
146 ,27.4327 ,0.96830 ,2.95433 ,28.98792 
147 ,27.6250 ,0.97025 ,2.93038 ,28.75287 
148 ,27.8170 ,0.97223 ,2.91327 ,28.58498 
149 ,27.9931 ,0.97392 ,2.89958 ,28.45066 
150 ,28.1692 ,0.97575 ,2.89273 ,28.38351 
151 ,28.3613 ,0.97768 ,2.86536 ,28.11488 
152 ,28.5375 ,0.97942 ,2.84482 ,27.91341 
153 ,28.7295 ,0.98130 ,2.84482 ,27.91341 
154 ,28.9216 ,0.98325 ,2.81402 ,27.61121 
155 ,29.0973 ,0.98496 ,2.80376 ,27.51047 
156 ,29.2738 ,0.98679 ,2.79691 ,27.44332 
157 ,29.4658 ,0.98867 ,2.77638 ,27.24185 
158 ,29.6580 ,0.99064 ,2.75585 ,27.04038 
159 ,29.8499 ,0.99248 ,2.75243 ,27.00680 
160 ,30.0259 ,0.99427 ,2.73531 ,26.83891 
161 ,30.2017 ,0.99601 ,2.71478 ,26.63744 
162 ,30.3941 ,0.99790 ,2.70452 ,26.53670 
163 ,30.5703 ,0.99975 ,2.69083 ,26.40239 
164 ,30.7462 ,1.00152 ,2.68398 ,26.33523 
165 ,30.9220 ,1.00324 ,2.65660 ,26.06661 
166 ,31.0981 ,1.00496 ,2.64292 ,25.93229 
167 ,31.2901 ,1.00692 ,2.63607 ,25.86514 
168 ,31.4986 ,1.00892 ,2.60527 ,25.56293 
169 ,31.7068 ,1.01105 ,2.60527 ,25.56293 
170 ,31.8988 ,1.01302 ,2.56078 ,25.12641 
171 ,32.0909 ,1.01497 ,2.56421 ,25.15999 
172 ,32.2669 ,1.01673 ,2.55052 ,25.02568 
173 ,32.4747 ,1.01872 ,2.54025 ,24.92494 
174 ,32.6670 ,1.02061 ,2.52656 ,24.79063 
175 ,32.8429 ,1.02240 ,2.50603 ,24.58916 
176 ,33.0512 ,1.02450 ,2.50603 ,24.58916 
177 ,33.2271 ,1.02634 ,2.48550 ,24.38769 
178 ,33.4189 ,1.02817 ,2.44785 ,24.01833 
179 ,33.6113 ,1.03004 ,2.44101 ,23.95117 
180 ,33.8033 ,1.03208 ,2.43416 ,23.88402 
181 ,33.9793 ,1.03382 ,2.39994 ,23.54823 
182 ,34.1717 ,1.03575 ,2.39652 ,23.51465 
183 ,34.3636 ,1.03763 ,2.36572 ,23.21245 
184 ,34.5394 ,1.03941 ,2.36572 ,23.21245 
185 ,34.7318 ,1.04126 ,2.35545 ,23.11171 
186 ,34.9080 ,1.04313 ,2.34177 ,22.97740 
187 ,35.0840 ,1.04486 ,2.33492 ,22.91024 
188 ,35.2762 ,1.04671 ,2.29385 ,22.50731 
189 ,35.4682 ,1.04861 ,2.29043 ,22.47373 
190 ,35.6277 ,1.05040 ,2.28359 ,22.40657 
191 ,35.8043 ,1.05211 ,2.27332 ,22.30584 
192 ,36.0123 ,1.05409 ,2.24937 ,22.07079 
193 ,36.1885 ,1.05584 ,2.24937 ,22.07079 
194 ,36.3806 ,1.05779 ,2.21857 ,21.76858 
195 ,36.5722 ,1.05973 ,2.19119 ,21.49996 
196 ,36.7482 ,1.06149 ,2.20146 ,21.60069 
197 ,36.9245 ,1.06320 ,2.18435 ,21.43280 
198 ,37.1009 ,1.06502 ,2.16381 ,21.23133 
199 ,37.2769 ,1.06680 ,2.13644 ,20.96270 
200 ,37.4688 ,1.06859 ,2.13986 ,20.99628 
201 ,37.6445 ,1.07044 ,2.12617 ,20.86197 
202 ,37.8205 ,1.07224 ,2.09195 ,20.52619 
203 ,37.9806 ,1.07394 ,2.08852 ,20.49261 
204 ,38.1570 ,1.07563 ,2.05773 ,20.19040 
205 ,38.3654 ,1.07769 ,2.08510 ,20.45903 
206 ,38.5730 ,1.07966 ,2.04404 ,20.05609 
207 ,38.7497 ,1.08151 ,2.03035 ,19.92178 
208 ,38.9416 ,1.08342 ,2.02693 ,19.88820 
209 ,39.1333 ,1.08534 ,2.00639 ,19.68673 
210 ,39.3098 ,1.08710 ,1.98928 ,19.51884 
211 ,39.5018 ,1.08903 ,1.97902 ,19.41810 
212 ,39.6780 ,1.09075 ,1.95164 ,19.14948 
213 ,39.8701 ,1.09272 ,1.94822 ,19.11590 
214 ,40.0621 ,1.09455 ,1.94137 ,19.04874 
215 ,40.2701 ,1.09665 ,1.92768 ,18.91443 
216 ,40.4461 ,1.09850 ,1.90715 ,18.71296 
217 ,40.6220 ,1.10024 ,1.90373 ,18.67938 
218 ,40.7983 ,1.10197 ,1.86951 ,18.34360 
219 ,41.0060 ,1.10397 ,1.86266 ,18.27644 
220 ,41.1984 ,1.10589 ,1.85582 ,18.20928 
221 ,41.4063 ,1.10803 ,1.84555 ,18.10855 
222 ,41.5828 ,1.10984 ,1.81817 ,17.83992 
223 ,41.7745 ,1.11172 ,1.79422 ,17.60487 
224 ,41.9668 ,1.11365 ,1.79422 ,17.60487 
225 ,42.1588 ,1.11545 ,1.75657 ,17.23551 
226 ,42.3511 ,1.11746 ,1.75657 ,17.23551 
227 ,42.5590 ,1.11955 ,1.74289 ,17.10120 
228 ,42.7350 ,1.12131 ,1.71551 ,16.83257 
229 ,42.9112 ,1.12309 ,1.70866 ,16.76542 
230 ,43.0872 ,1.12485 ,1.71209 ,16.79899 
231 ,43.2630 ,1.12657 ,1.69498 ,16.63110 
232 ,43.4714 ,1.12867 ,1.67444 ,16.42963 
233 ,43.6635 ,1.13064 ,1.67102 ,16.39605 
234 ,43.8395 ,1.13236 ,1.65391 ,16.22816 
235 ,44.0154 ,1.13418 ,1.62311 ,15.92596 
236 ,44.1913 ,1.13589 ,1.60942 ,15.79164 
237 ,44.3836 ,1.13777 ,1.61627 ,15.85880 
238 ,44.5757 ,1.13974 ,1.58547 ,15.55660 
239 ,44.7679 ,1.14156 ,1.56836 ,15.38871 
240 ,44.9599 ,1.14354 ,1.57520 ,15.45586 
241 ,45.1360 ,1.14532 ,1.55124 ,15.22081 
242 ,45.3116 ,1.14713 ,1.52387 ,14.95219 
243 ,45.5041 ,1.14895 ,1.52387 ,14.95219 
244 ,45.6802 ,1.15089 ,1.51018 ,14.81787 
245 ,45.8565 ,1.15256 ,1.50333 ,14.75072 
246 ,46.0644 ,1.15456 ,1.49991 ,14.71714 
247 ,46.2565 ,1.15654 ,1.47596 ,14.48209 
248 ,46.4326 ,1.15828 ,1.44174 ,14.14631 
249 ,46.6247 ,1.16021 ,1.45885 ,14.31420 
250 ,46.8167 ,1.16207 ,1.42120 ,13.94484 
251 ,46.9928 ,1.16389 ,1.40409 ,13.77695 
252 ,47.1849 ,1.16571 ,1.39383 ,13.67621 
253 ,47.3770 ,1.16776 ,1.38698 ,13.60906 
254 ,47.5690 ,1.16960 ,1.36645 ,13.40759 
255 ,47.7611 ,1.17158 ,1.38356 ,13.57548 
256 ,47.9373 ,1.17329 ,1.34591 ,13.20612 
257 ,48.1453 ,1.17534 ,1.34249 ,13.17254 
258 ,48.3374 ,1.17730 ,1.31169 ,12.87033 
259 ,48.5453 ,1.17925 ,1.30827 ,12.83675 
260 ,48.7216 ,1.18119 ,1.31512 ,12.90391 
261 ,48.9137 ,1.18310 ,1.27405 ,12.50097 
262 ,49.1057 ,1.18492 ,1.28432 ,12.60171 
263 ,49.2819 ,1.18679 ,1.27063 ,12.46739 
264 ,49.4898 ,1.18875 ,1.25352 ,12.29950 
265 ,49.6819 ,1.19074 ,1.23298 ,12.09803 
266 ,49.8581 ,1.19257 ,1.20903 ,11.86298 
267 ,50.0659 ,1.19454 ,1.21245 ,11.89656 
268 ,50.2422 ,1.19638 ,1.20218 ,11.79583 
269 ,50.4341 ,1.19830 ,1.17138 ,11.49362 
270 ,50.6258 ,1.20025 ,1.16454 ,11.42647 
271 ,50.8024 ,1.20196 ,1.15085 ,11.29215 
272 ,51.0100 ,1.20397 ,1.13032 ,11.09068 
273 ,51.2022 ,1.20592 ,1.13374 ,11.12426 
274 ,51.3946 ,1.20780 ,1.10979 ,10.88921 
275 ,51.5867 ,1.20983 ,1.10294 ,10.82206 
276 ,51.7624 ,1.21155 ,1.08583 ,10.65416 
277 ,51.9387 ,1.21336 ,1.07214 ,10.51985 
278 ,52.1307 ,1.21528 ,1.04819 ,10.28480 
279 ,52.3231 ,1.21710 ,1.04819 ,10.28480 
280 ,52.5309 ,1.21923 ,1.01739 ,9.98260 
281 ,52.7231 ,1.22117 ,1.02423 ,10.04976 
282 ,52.8988 ,1.22292 ,1.00712 ,9.88186 
283 ,53.0914 ,1.22487 ,0.97974 ,9.61324 
284 ,53.2829 ,1.22675 ,0.99343 ,9.74755 
285 ,53.4597 ,1.22853 ,0.96605 ,9.47892 
286 ,53.6355 ,1.23029 ,0.95237 ,9.34461 
287 ,53.8276 ,1.23216 ,0.94210 ,9.24388 
288 ,54.0196 ,1.23403 ,0.92499 ,9.07598 
289 ,54.2437 ,1.23624 ,0.92157 ,9.04241 
290 ,54.4357 ,1.23825 ,0.90103 ,8.84094 
291 ,54.6280 ,1.24018 ,0.89077 ,8.74020 
292 ,54.8198 ,1.24214 ,0.88392 ,8.67305 
293 ,54.9801 ,1.24385 ,0.85997 ,8.43800 
294 ,55.1562 ,1.24550 ,0.84970 ,8.33726 
295 ,55.3484 ,1.24735 ,0.82232 ,8.06864 
296 ,55.5566 ,1.24946 ,0.82917 ,8.13579 
297 ,55.7645 ,1.25152 ,0.81548 ,8.00148 
298 ,55.9721 ,1.25360 ,0.78126 ,7.66570 
299 ,56.1482 ,1.25541 ,0.77784 ,7.63212 
300 ,56.3247 ,1.25716 ,0.75388 ,7.39707 
301 ,56.5008 ,1.25893 ,0.76757 ,7.53138 
302 ,56.6929 ,1.26086 ,0.73677 ,7.22918 
303 ,56.9008 ,1.26275 ,0.72650 ,7.12844 
304 ,57.0767 ,1.26468 ,0.72308 ,7.09486 
305 ,57.2530 ,1.26647 ,0.71281 ,6.99413 
306 ,57.4611 ,1.26848 ,0.70939 ,6.96055 
307 ,57.6373 ,1.27026 ,0.69228 ,6.79266 
308 ,57.8293 ,1.27224 ,0.66148 ,6.49046 
309 ,58.0213 ,1.27412 ,0.65464 ,6.42330 
310 ,58.1809 ,1.27587 ,0.66148 ,6.49046 
311 ,58.3579 ,1.27753 ,0.64095 ,6.28899 
312 ,58.5653 ,1.27954 ,0.61699 ,6.05394 
313 ,58.7575 ,1.28150 ,0.61015 ,5.98678 
314 ,58.9336 ,1.28323 ,0.59646 ,5.85247 
315 ,59.1097 ,1.28503 ,0.58619 ,5.75173 
316 ,59.2692 ,1.28673 ,0.56908 ,5.58384 
317 ,59.4457 ,1.28839 ,0.55539 ,5.44953 
318 ,59.6217 ,1.29016 ,0.55197 ,5.41595 
319 ,59.8299 ,1.29214 ,0.52802 ,5.18090 
320 ,60.0221 ,1.29411 ,0.53828 ,5.28164 
321 ,60.2137 ,1.29596 ,0.51433 ,5.04659 
322 ,60.3902 ,1.29779 ,0.50748 ,4.97943 
323 ,60.5822 ,1.29973 ,0.50406 ,4.94585 
324 ,60.7742 ,1.30157 ,0.47326 ,4.64365 
325 ,60.9505 ,1.30339 ,0.46642 ,4.57649 
326 ,61.1266 ,1.30514 ,0.45615 ,4.47576 
327 ,61.3185 ,1.30699 ,0.45615 ,4.47576 
328 ,61.4946 ,1.30884 ,0.45957 ,4.50934 
329 ,61.6868 ,1.31075 ,0.41166 ,4.03924 
330 ,61.8788 ,1.31266 ,0.41509 ,4.07282 
331 ,62.0869 ,1.31469 ,0.39455 ,3.87135 
332 ,62.2790 ,1.31671 ,0.40140 ,3.93850 
333 ,62.4705 ,1.31858 ,0.37402 ,3.66988 
334 ,62.6471 ,1.32040 ,0.36033 ,3.53557 
335 ,62.8231 ,1.32212 ,0.36375 ,3.56914 
336 ,62.9833 ,1.32387 ,0.36375 ,3.56914 
337 ,63.1750 ,1.32556 ,0.34322 ,3.36767 
338 ,63.3516 ,1.32741 ,0.32953 ,3.23336 
339 ,63.5430 ,1.32931 ,0.32269 ,3.16620 
340 ,63.7191 ,1.33119 ,0.31584 ,3.09905 
341 ,63.8792 ,1.33282 ,0.31242 ,3.06547 
342 ,64.0393 ,1.33439 ,0.29873 ,2.93116 
343 ,64.2155 ,1.33607 ,0.29531 ,2.89758 
344 ,64.3916 ,1.33783 ,0.26793 ,2.62895 
345 ,64.5677 ,1.33958 ,0.25424 ,2.49464 
346 ,64.7440 ,1.34136 ,0.24398 ,2.39390 
347 ,64.9523 ,1.34339 ,0.23713 ,2.32675 
348 ,65.1282 ,1.34522 ,0.21660 ,2.12528 
349 ,65.3203 ,1.34709 ,0.22002 ,2.15885 
350 ,65.5284 ,1.34900 ,0.20976 ,2.05812 
351 ,65.7199 ,1.35107 ,0.19264 ,1.89023 
352 ,65.8964 ,1.35280 ,0.19607 ,1.92381 
353 ,66.0727 ,1.35461 ,0.17896 ,1.75592 
354 ,66.2644 ,1.35643 ,0.17211 ,1.68876 
355 ,66.4569 ,1.35846 ,0.16527 ,1.62160 
356 ,66.6489 ,1.36032 ,0.13789 ,1.35298 
357 ,66.8248 ,1.36213 ,0.12420 ,1.21866 
358 ,67.0010 ,1.36389 ,0.13105 ,1.28582 
359 ,67.1930 ,1.36582 ,0.12078 ,1.18508 
360 ,67.3849 ,1.36776 ,0.09340 ,0.91646 
361 ,67.6093 ,1.36972 ,0.09682 ,0.95004 
362 ,67.8009 ,1.37181 ,0.10025 ,0.98361 
363 ,67.9774 ,1.37366 ,0.07287 ,0.71499 
364 ,68.1854 ,1.37566 ,0.05234 ,0.51352 
365 ,68.3776 ,1.37764 ,0.05234 ,0.51352 
366 ,68.5856 ,1.37965 ,0.02154 ,0.21131 
367 ,68.7777 ,1.38159 ,0.03522 ,0.34563 
368 ,68.9697 ,1.38350 ,0.01127 ,0.11058 
369 ,69.1619 ,1.38549 ,0.00100 ,0.00984 
370 ,69.3376 ,1.38727 ,0.00100 ,0.00984 
371 ,69.5300 ,1.38909 ,-0.02637 ,-0.25878 
372 ,69.7056 ,1.39097 ,-0.04348 ,-0.42667 
373 ,69.8820 ,1.39268 ,-0.02637 ,-0.25878 
374 ,70.0740 ,1.39459 ,-0.03664 ,-0.35952 
375 ,70.2662 ,1.39653 ,-0.05375 ,-0.52741 
376 ,70.4582 ,1.39845 ,-0.05717 ,-0.56099 
377 ,70.6341 ,1.40019 ,-0.06744 ,-0.66172 
378 ,70.8104 ,1.40195 ,-0.08113 ,-0.79604 
379 ,71.0025 ,1.40390 ,-0.10851 ,-1.06466 
380 ,71.1947 ,1.40575 ,-0.10166 ,-0.99751 
381 ,71.4186 ,1.40788 ,-0.10851 ,-1.06466 
382 ,71.5947 ,1.40981 ,-0.11535 ,-1.13182 
383 ,71.7867 ,1.41173 ,-0.14273 ,-1.40045 
384 ,71.9950 ,1.41365 ,-0.14273 ,-1.40045 
385 ,72.2028 ,1.41583 ,-0.15642 ,-1.53476 
386 ,72.3792 ,1.41765 ,-0.15642 ,-1.53476 
387 ,72.5868 ,1.41963 ,-0.18722 ,-1.83696 
388 ,72.7633 ,1.42150 ,-0.18379 ,-1.80338 
389 ,72.9555 ,1.42339 ,-0.18379 ,-1.80338 
390 ,73.1472 ,1.42537 ,-0.20433 ,-2.00485 
391 ,73.3394 ,1.42718 ,-0.22486 ,-2.20632 
392 ,73.5634 ,1.42937 ,-0.23170 ,-2.27348 
393 ,73.7560 ,1.43142 ,-0.22828 ,-2.23990 
394 ,73.9318 ,1.43319 ,-0.25224 ,-2.47495 
395 ,74.1077 ,1.43496 ,-0.25566 ,-2.50853 
396 ,74.2835 ,1.43668 ,-0.26250 ,-2.57569 
397 ,74.4758 ,1.43852 ,-0.26935 ,-2.64284 
398 ,74.6837 ,1.44063 ,-0.27961 ,-2.74358 
399 ,74.8600 ,1.44244 ,-0.27961 ,-2.74358 
400 ,75.0357 ,1.44420 ,-0.29673 ,-2.91147 
401 ,75.2123 ,1.44597 ,-0.30699 ,-3.01220 
402 ,75.4043 ,1.44783 ,-0.32410 ,-3.18010 
403 ,75.5805 ,1.44967 ,-0.31384 ,-3.07936 
404 ,75.7724 ,1.45151 ,-0.33779 ,-3.31441 
405 ,75.9486 ,1.45336 ,-0.35490 ,-3.48230 
406 ,76.1407 ,1.45519 ,-0.33437 ,-3.28083 
407 ,76.3167 ,1.45703 ,-0.35490 ,-3.48230 
408 ,76.4926 ,1.45881 ,-0.36859 ,-3.61661 
409 ,76.6848 ,1.46070 ,-0.38228 ,-3.75093 
410 ,76.8769 ,1.46264 ,-0.37886 ,-3.71735 
411 ,77.0690 ,1.46452 ,-0.40281 ,-3.95240 
412 ,77.2612 ,1.46646 ,-0.39939 ,-3.91882 
413 ,77.4688 ,1.46837 ,-0.42335 ,-4.15387 
414 ,77.6452 ,1.47031 ,-0.43361 ,-4.25460 
415 ,77.8533 ,1.47232 ,-0.44730 ,-4.38891 
416 ,78.0294 ,1.47408 ,-0.44730 ,-4.38891 
417 ,78.2055 ,1.47588 ,-0.46441 ,-4.55681 
418 ,78.3976 ,1.47777 ,-0.46441 ,-4.55681 
419 ,78.5733 ,1.47957 ,-0.48152 ,-4.72470 
420 ,78.7495 ,1.48137 ,-0.49863 ,-4.89259 
421 ,78.9419 ,1.48324 ,-0.48494 ,-4.75828 
422 ,79.1337 ,1.48516 ,-0.49863 ,-4.89259 
423 ,79.3099 ,1.48694 ,-0.51574 ,-5.06048 
424 ,79.5018 ,1.48879 ,-0.51917 ,-5.09406 
425 ,79.6776 ,1.49064 ,-0.50548 ,-4.95975 
426 ,79.8541 ,1.49239 ,-0.53628 ,-5.26195 
427 ,80.0302 ,1.49418 ,-0.54997 ,-5.39626 
428 ,80.2062 ,1.49592 ,-0.56365 ,-5.53058 
429 ,80.3984 ,1.49781 ,-0.55681 ,-5.46342 
430 ,80.5905 ,1.49975 ,-0.58761 ,-5.76562 
431 ,80.7826 ,1.50163 ,-0.57050 ,-5.59773 
432 ,80.9587 ,1.50344 ,-0.57392 ,-5.63131 
433 ,81.1510 ,1.50535 ,-0.60130 ,-5.89994 
434 ,81.3266 ,1.50714 ,-0.61499 ,-6.03425 
435 ,81.5189 ,1.50892 ,-0.61156 ,-6.00067 
436 ,81.7109 ,1.51090 ,-0.62868 ,-6.16856 
437 ,81.8711 ,1.51264 ,-0.63552 ,-6.23572 
438 ,82.0472 ,1.51431 ,-0.63552 ,-6.23572 
439 ,82.2227 ,1.51609 ,-0.64579 ,-6.33646 
440 ,82.3992 ,1.51784 ,-0.63894 ,-6.26930 
441 ,82.5911 ,1.51965 ,-0.65947 ,-6.47077 
442 ,82.7834 ,1.52159 ,-0.66290 ,-6.50435 
443 ,82.9913 ,1.52371 ,-0.68685 ,-6.73940 
444 ,83.1676 ,1.52551 ,-0.70054 ,-6.87371 
445 ,83.3597 ,1.52745 ,-0.68343 ,-6.70582 
446 ,83.5357 ,1.52914 ,-0.71081 ,-6.97444 
447 ,83.7437 ,1.53119 ,-0.70054 ,-6.87371 
448 ,83.9195 ,1.53304 ,-0.72450 ,-7.10876 
449 ,84.1118 ,1.53488 ,-0.74503 ,-7.31023 
450 ,84.3200 ,1.53692 ,-0.72107 ,-7.07518 
451 ,84.5279 ,1.53905 ,-0.75872 ,-7.44454 
452 ,84.7040 ,1.54084 ,-0.75187 ,-7.37738 
453 ,84.8802 ,1.54265 ,-0.76556 ,-7.51170 
454 ,85.0721 ,1.54448 ,-0.78952 ,-7.74674 
455 ,85.2483 ,1.54632 ,-0.79978 ,-7.84748 
456 ,85.4404 ,1.54827 ,-0.81005 ,-7.94821 
457 ,85.6162 ,1.54999 ,-0.80663 ,-7.91464 
458 ,85.7925 ,1.55171 ,-0.82374 ,-8.08253 
459 ,85.9846 ,1.55355 ,-0.82716 ,-8.11611 
460 ,86.1607 ,1.55540 ,-0.81689 ,-8.01537 
461 ,86.3368 ,1.55717 ,-0.84085 ,-8.25042 
462 ,86.5128 ,1.55902 ,-0.84085 ,-8.25042 
463 ,86.6890 ,1.56069 ,-0.87165 ,-8.55262 
