Data stamp = , 23-04-2022 03:08:36 139

Calibration Values: 
Slope = , 26.54 , g/V 
Offset Voltage at no contact = , -0.501760 , V 

No , Time , Stage Position ,   Mass , Force 
   ,  (s) ,      (mm)      ,   (g)  , (mN)  

1 ,0.0000 ,0.69936 ,5.32932 ,52.29126 
2 ,0.2028 ,0.69945 ,5.33958 ,52.39199 
3 ,0.5229 ,0.70025 ,5.31563 ,52.15694 
4 ,0.7471 ,0.70181 ,5.33274 ,52.32484 
5 ,0.9392 ,0.70359 ,5.33616 ,52.35841 
6 ,1.1314 ,0.70541 ,5.31563 ,52.15694 
7 ,1.3234 ,0.70726 ,5.32589 ,52.25768 
8 ,1.5152 ,0.70909 ,5.32589 ,52.25768 
9 ,1.7072 ,0.71124 ,5.32589 ,52.25768 
10 ,1.8995 ,0.71302 ,5.30878 ,52.08979 
11 ,2.0918 ,0.71503 ,5.27456 ,51.75401 
12 ,2.2839 ,0.71699 ,5.27456 ,51.75401 
13 ,2.4600 ,0.71876 ,5.25403 ,51.55254 
14 ,2.6680 ,0.72078 ,5.24376 ,51.45180 
15 ,2.8441 ,0.72258 ,5.21296 ,51.14960 
16 ,3.0198 ,0.72435 ,5.19927 ,51.01528 
17 ,3.1962 ,0.72607 ,5.16848 ,50.71308 
18 ,3.3723 ,0.72786 ,5.14452 ,50.47803 
19 ,3.5643 ,0.72965 ,5.12399 ,50.27656 
20 ,3.7406 ,0.73158 ,5.12399 ,50.27656 
21 ,3.9327 ,0.73338 ,5.09661 ,50.00793 
22 ,4.1082 ,0.73528 ,5.08292 ,49.87362 
23 ,4.2847 ,0.73697 ,5.08292 ,49.87362 
24 ,4.4608 ,0.73876 ,5.05554 ,49.60499 
25 ,4.6690 ,0.74082 ,5.03843 ,49.43710 
26 ,4.8770 ,0.74281 ,4.99052 ,48.96701 
27 ,5.0531 ,0.74465 ,4.98026 ,48.86627 
28 ,5.2288 ,0.74641 ,4.96999 ,48.76554 
29 ,5.4209 ,0.74828 ,4.96315 ,48.69838 
30 ,5.5971 ,0.75010 ,4.93235 ,48.39618 
31 ,5.7889 ,0.75203 ,4.91181 ,48.19471 
32 ,5.9653 ,0.75376 ,4.90155 ,48.09397 
33 ,6.1415 ,0.75557 ,4.90155 ,48.09397 
34 ,6.3015 ,0.75727 ,4.85364 ,47.62387 
35 ,6.4777 ,0.75888 ,4.85364 ,47.62387 
36 ,6.6535 ,0.76070 ,4.83652 ,47.45598 
37 ,6.8298 ,0.76242 ,4.80230 ,47.12020 
38 ,7.0059 ,0.76417 ,4.80230 ,47.12020 
39 ,7.2136 ,0.76621 ,4.75782 ,46.68368 
40 ,7.3900 ,0.76802 ,4.75439 ,46.65010 
41 ,7.5822 ,0.76984 ,4.74413 ,46.54937 
42 ,7.7901 ,0.77199 ,4.69279 ,46.04569 
43 ,7.9662 ,0.77374 ,4.69279 ,46.04569 
44 ,8.1584 ,0.77573 ,4.67911 ,45.91138 
45 ,8.3501 ,0.77755 ,4.66199 ,45.74349 
46 ,8.5425 ,0.77947 ,4.63119 ,45.44128 
47 ,8.7346 ,0.78148 ,4.63462 ,45.47486 
48 ,8.9267 ,0.78335 ,4.61408 ,45.27339 
49 ,9.1187 ,0.78524 ,4.58328 ,44.97119 
50 ,9.3107 ,0.78714 ,4.55933 ,44.73614 
51 ,9.4866 ,0.78898 ,4.54906 ,44.63541 
52 ,9.6629 ,0.79074 ,4.53537 ,44.50109 
53 ,9.8549 ,0.79263 ,4.50457 ,44.19889 
54 ,10.0311 ,0.79444 ,4.48062 ,43.96384 
55 ,10.2390 ,0.79638 ,4.49431 ,44.09815 
56 ,10.4313 ,0.79839 ,4.44640 ,43.62806 
57 ,10.6392 ,0.80040 ,4.44298 ,43.59448 
58 ,10.8475 ,0.80257 ,4.40875 ,43.25870 
59 ,11.0552 ,0.80456 ,4.39849 ,43.15796 
60 ,11.2477 ,0.80654 ,4.37795 ,42.95649 
61 ,11.4716 ,0.80868 ,4.34716 ,42.65429 
62 ,11.6477 ,0.81055 ,4.32320 ,42.41924 
63 ,11.8238 ,0.81230 ,4.30951 ,42.28492 
64 ,11.9998 ,0.81413 ,4.30951 ,42.28492 
65 ,12.1758 ,0.81584 ,4.28898 ,42.08345 
66 ,12.3680 ,0.81772 ,4.27871 ,41.98272 
67 ,12.5439 ,0.81957 ,4.24791 ,41.68051 
68 ,12.7202 ,0.82129 ,4.24449 ,41.64694 
69 ,12.8962 ,0.82305 ,4.21369 ,41.34473 
70 ,13.0724 ,0.82483 ,4.18631 ,41.07611 
71 ,13.2639 ,0.82673 ,4.17605 ,40.97537 
72 ,13.4561 ,0.82858 ,4.16920 ,40.90821 
73 ,13.6321 ,0.83040 ,4.14867 ,40.70674 
74 ,13.8083 ,0.83221 ,4.11787 ,40.40454 
75 ,14.0168 ,0.83429 ,4.10418 ,40.27023 
76 ,14.2248 ,0.83632 ,4.08023 ,40.03518 
77 ,14.4009 ,0.83811 ,4.06996 ,39.93444 
78 ,14.5931 ,0.83997 ,4.03574 ,39.59866 
79 ,14.7850 ,0.84190 ,4.03574 ,39.59866 
80 ,14.9612 ,0.84376 ,4.01863 ,39.43077 
81 ,15.1531 ,0.84562 ,3.99467 ,39.19572 
82 ,15.3293 ,0.84735 ,3.97756 ,39.02783 
83 ,15.5214 ,0.84927 ,3.97414 ,38.99425 
84 ,15.6974 ,0.85111 ,3.95018 ,38.75920 
85 ,15.8892 ,0.85290 ,3.92623 ,38.52415 
86 ,16.0817 ,0.85484 ,3.91254 ,38.38984 
87 ,16.2738 ,0.85682 ,3.88516 ,38.12122 
88 ,16.4657 ,0.85866 ,3.88174 ,38.08764 
89 ,16.6578 ,0.86056 ,3.85779 ,37.85259 
90 ,16.8337 ,0.86241 ,3.84752 ,37.75185 
91 ,17.0096 ,0.86420 ,3.82699 ,37.55038 
92 ,17.2019 ,0.86607 ,3.80987 ,37.38249 
93 ,17.3941 ,0.86803 ,3.78934 ,37.18102 
94 ,17.5699 ,0.86978 ,3.75512 ,36.84524 
95 ,17.7619 ,0.87179 ,3.75512 ,36.84524 
96 ,17.9383 ,0.87343 ,3.73459 ,36.64377 
97 ,18.1143 ,0.87517 ,3.72090 ,36.50946 
98 ,18.2906 ,0.87701 ,3.69694 ,36.27441 
99 ,18.4826 ,0.87886 ,3.69010 ,36.20725 
100 ,18.6588 ,0.88067 ,3.66272 ,35.93863 
101 ,18.8509 ,0.88258 ,3.64561 ,35.77073 
102 ,19.0430 ,0.88446 ,3.63534 ,35.67000 
103 ,19.2189 ,0.88627 ,3.62166 ,35.53569 
104 ,19.4110 ,0.88812 ,3.58401 ,35.16632 
105 ,19.5871 ,0.88995 ,3.57717 ,35.09917 
106 ,19.7632 ,0.89173 ,3.56690 ,34.99843 
107 ,19.9552 ,0.89364 ,3.55321 ,34.86412 
108 ,20.1314 ,0.89536 ,3.52584 ,34.59549 
109 ,20.3395 ,0.89743 ,3.52241 ,34.56192 
110 ,20.5473 ,0.89950 ,3.49161 ,34.25971 
111 ,20.7231 ,0.90131 ,3.48135 ,34.15898 
112 ,20.8995 ,0.90306 ,3.47792 ,34.12540 
113 ,21.0917 ,0.90498 ,3.44370 ,33.78961 
114 ,21.2674 ,0.90676 ,3.41290 ,33.48741 
115 ,21.4599 ,0.90864 ,3.43686 ,33.72246 
116 ,21.6521 ,0.91059 ,3.38895 ,33.25236 
117 ,21.8277 ,0.91239 ,3.36842 ,33.05089 
118 ,22.0202 ,0.91427 ,3.37184 ,33.08447 
119 ,22.2119 ,0.91612 ,3.34446 ,32.81584 
120 ,22.4039 ,0.91809 ,3.32735 ,32.64795 
121 ,22.5801 ,0.91985 ,3.32051 ,32.58080 
122 ,22.7883 ,0.92196 ,3.29997 ,32.37933 
123 ,22.9643 ,0.92368 ,3.27944 ,32.17786 
124 ,23.1566 ,0.92555 ,3.27602 ,32.14428 
125 ,23.3485 ,0.92749 ,3.24180 ,31.80849 
126 ,23.5565 ,0.92953 ,3.24522 ,31.84207 
127 ,23.7485 ,0.93149 ,3.20415 ,31.43913 
128 ,23.9084 ,0.93326 ,3.18704 ,31.27124 
129 ,24.0845 ,0.93488 ,3.18704 ,31.27124 
130 ,24.2606 ,0.93665 ,3.16993 ,31.10335 
131 ,24.4368 ,0.93845 ,3.15966 ,31.00262 
132 ,24.6451 ,0.94044 ,3.13571 ,30.76757 
133 ,24.8533 ,0.94254 ,3.11860 ,30.59968 
134 ,25.0293 ,0.94437 ,3.10833 ,30.49894 
135 ,25.2373 ,0.94629 ,3.08438 ,30.26389 
136 ,25.4132 ,0.94817 ,3.07069 ,30.12958 
137 ,25.6051 ,0.95009 ,3.04331 ,29.86095 
138 ,25.7816 ,0.95189 ,3.04331 ,29.86095 
139 ,25.9579 ,0.95369 ,3.03647 ,29.79380 
140 ,26.1337 ,0.95540 ,3.02962 ,29.72664 
141 ,26.3258 ,0.95725 ,2.96802 ,29.12223 
142 ,26.5178 ,0.95920 ,2.99198 ,29.35728 
143 ,26.6939 ,0.96097 ,2.97487 ,29.18939 
144 ,26.9021 ,0.96302 ,2.94749 ,28.92076 
145 ,27.1101 ,0.96503 ,2.94749 ,28.92076 
146 ,27.3023 ,0.96696 ,2.92011 ,28.65213 
147 ,27.4944 ,0.96895 ,2.91327 ,28.58498 
148 ,27.7021 ,0.97101 ,2.88589 ,28.31635 
149 ,27.8785 ,0.97283 ,2.86878 ,28.14846 
150 ,28.0545 ,0.97455 ,2.84482 ,27.91341 
151 ,28.2627 ,0.97664 ,2.82771 ,27.74552 
152 ,28.4548 ,0.97857 ,2.82087 ,27.67836 
153 ,28.6307 ,0.98037 ,2.80376 ,27.51047 
154 ,28.8229 ,0.98214 ,2.79007 ,27.37616 
155 ,28.9989 ,0.98404 ,2.76269 ,27.10753 
156 ,29.1748 ,0.98586 ,2.76611 ,27.14111 
157 ,29.3512 ,0.98758 ,2.74216 ,26.90606 
158 ,29.5271 ,0.98930 ,2.70794 ,26.57028 
159 ,29.7193 ,0.99123 ,2.70452 ,26.53670 
160 ,29.8951 ,0.99299 ,2.70452 ,26.53670 
161 ,30.0874 ,0.99488 ,2.67372 ,26.23450 
162 ,30.2635 ,0.99665 ,2.65660 ,26.06661 
163 ,30.4556 ,0.99856 ,2.65660 ,26.06661 
164 ,30.6636 ,1.00058 ,2.63607 ,25.86514 
165 ,30.8398 ,1.00242 ,2.60869 ,25.59651 
166 ,31.0158 ,1.00417 ,2.60527 ,25.56293 
167 ,31.1919 ,1.00608 ,2.56078 ,25.12641 
168 ,31.3679 ,1.00773 ,2.56078 ,25.12641 
169 ,31.5439 ,1.00946 ,2.54367 ,24.95852 
170 ,31.7361 ,1.01138 ,2.55052 ,25.02568 
171 ,31.9121 ,1.01325 ,2.50261 ,24.55558 
172 ,32.0882 ,1.01488 ,2.51287 ,24.65632 
173 ,32.2803 ,1.01683 ,2.48207 ,24.35411 
174 ,32.4565 ,1.01857 ,2.48550 ,24.38769 
175 ,32.6323 ,1.02036 ,2.46839 ,24.21980 
176 ,32.8566 ,1.02242 ,2.46154 ,24.15264 
177 ,33.0323 ,1.02434 ,2.45127 ,24.05191 
178 ,33.2088 ,1.02616 ,2.42048 ,23.74970 
179 ,33.4006 ,1.02803 ,2.38625 ,23.41392 
180 ,33.5929 ,1.02991 ,2.37941 ,23.34676 
181 ,33.7849 ,1.03186 ,2.36572 ,23.21245 
182 ,33.9611 ,1.03364 ,2.35545 ,23.11171 
183 ,34.1528 ,1.03554 ,2.34861 ,23.04456 
184 ,34.3292 ,1.03727 ,2.31097 ,22.67520 
185 ,34.5051 ,1.03906 ,2.30070 ,22.57446 
186 ,34.6813 ,1.04077 ,2.28701 ,22.44015 
187 ,34.8573 ,1.04259 ,2.27674 ,22.33941 
188 ,35.0335 ,1.04432 ,2.27332 ,22.30584 
189 ,35.2091 ,1.04616 ,2.23910 ,21.97005 
190 ,35.4017 ,1.04790 ,2.23568 ,21.93647 
191 ,35.5936 ,1.05001 ,2.20488 ,21.63427 
192 ,35.7698 ,1.05168 ,2.20146 ,21.60069 
193 ,35.9619 ,1.05365 ,2.17750 ,21.36564 
194 ,36.1540 ,1.05549 ,2.17066 ,21.29849 
195 ,36.3300 ,1.05741 ,2.15697 ,21.16417 
196 ,36.5221 ,1.05913 ,2.15012 ,21.09702 
197 ,36.6982 ,1.06098 ,2.12617 ,20.86197 
198 ,36.8902 ,1.06291 ,2.10906 ,20.69408 
199 ,37.0822 ,1.06486 ,2.08852 ,20.49261 
200 ,37.2582 ,1.06660 ,2.07826 ,20.39187 
201 ,37.4506 ,1.06843 ,2.06115 ,20.22398 
202 ,37.6585 ,1.07056 ,2.05088 ,20.12325 
203 ,37.8345 ,1.07231 ,2.04404 ,20.05609 
204 ,38.0103 ,1.07412 ,2.04061 ,20.02251 
205 ,38.2027 ,1.07589 ,2.00297 ,19.65315 
206 ,38.3785 ,1.07779 ,1.98928 ,19.51884 
207 ,38.5550 ,1.07955 ,1.97559 ,19.38452 
208 ,38.7630 ,1.08159 ,1.95506 ,19.18305 
209 ,38.9871 ,1.08385 ,1.93795 ,19.01516 
210 ,39.1791 ,1.08582 ,1.92768 ,18.91443 
211 ,39.3553 ,1.08753 ,1.93453 ,18.98158 
212 ,39.5631 ,1.08957 ,1.89346 ,18.57864 
213 ,39.7554 ,1.09153 ,1.89346 ,18.57864 
214 ,39.9474 ,1.09343 ,1.87635 ,18.41075 
215 ,40.1236 ,1.09519 ,1.85240 ,18.17570 
216 ,40.3156 ,1.09706 ,1.86951 ,18.34360 
217 ,40.5233 ,1.09914 ,1.82160 ,17.87350 
218 ,40.6997 ,1.10098 ,1.80449 ,17.70561 
219 ,40.9078 ,1.10301 ,1.81133 ,17.77276 
220 ,41.0998 ,1.10493 ,1.77711 ,17.43698 
221 ,41.2760 ,1.10677 ,1.77026 ,17.36983 
222 ,41.4523 ,1.10850 ,1.76342 ,17.30267 
223 ,41.6277 ,1.11028 ,1.74973 ,17.16836 
224 ,41.8198 ,1.11213 ,1.73604 ,17.03404 
225 ,42.0284 ,1.11426 ,1.72235 ,16.89973 
226 ,42.2204 ,1.11612 ,1.70866 ,16.76542 
227 ,42.3964 ,1.11792 ,1.69498 ,16.63110 
228 ,42.5727 ,1.11971 ,1.68471 ,16.53037 
229 ,42.7487 ,1.12159 ,1.65733 ,16.26174 
230 ,42.9246 ,1.12322 ,1.64022 ,16.09385 
231 ,43.1167 ,1.12516 ,1.62653 ,15.95954 
232 ,43.2929 ,1.12691 ,1.63338 ,16.02669 
233 ,43.5169 ,1.12889 ,1.61627 ,15.85880 
234 ,43.6930 ,1.13089 ,1.59231 ,15.62375 
235 ,43.9011 ,1.13294 ,1.56151 ,15.32155 
236 ,44.1089 ,1.13501 ,1.55124 ,15.22081 
237 ,44.2852 ,1.13684 ,1.55124 ,15.22081 
238 ,44.4613 ,1.13857 ,1.52729 ,14.98577 
239 ,44.6374 ,1.14032 ,1.52045 ,14.91861 
240 ,44.8452 ,1.14239 ,1.52729 ,14.98577 
241 ,45.0376 ,1.14430 ,1.49649 ,14.68356 
242 ,45.2297 ,1.14628 ,1.49307 ,14.64998 
243 ,45.4217 ,1.14810 ,1.45542 ,14.28062 
244 ,45.5978 ,1.14994 ,1.44858 ,14.21346 
245 ,45.7740 ,1.15169 ,1.43831 ,14.11273 
246 ,45.9495 ,1.15352 ,1.42805 ,14.01199 
247 ,46.1260 ,1.15520 ,1.42120 ,13.94484 
248 ,46.3181 ,1.15715 ,1.39725 ,13.70979 
249 ,46.5100 ,1.15909 ,1.39040 ,13.64263 
250 ,46.6861 ,1.16083 ,1.37671 ,13.50832 
251 ,46.8783 ,1.16268 ,1.35960 ,13.34043 
252 ,47.0704 ,1.16463 ,1.35618 ,13.30685 
253 ,47.2783 ,1.16669 ,1.32196 ,12.97107 
254 ,47.4545 ,1.16851 ,1.30827 ,12.83675 
255 ,47.6467 ,1.17046 ,1.31169 ,12.87033 
256 ,47.8546 ,1.17237 ,1.28432 ,12.60171 
257 ,48.0304 ,1.17427 ,1.29458 ,12.70244 
258 ,48.2228 ,1.17616 ,1.27405 ,12.50097 
259 ,48.4148 ,1.17811 ,1.24325 ,12.19877 
260 ,48.5910 ,1.17986 ,1.24667 ,12.23235 
261 ,48.7669 ,1.18166 ,1.23641 ,12.13161 
262 ,48.9430 ,1.18338 ,1.21929 ,11.96372 
263 ,49.1189 ,1.18517 ,1.20218 ,11.79583 
264 ,49.2953 ,1.18689 ,1.19192 ,11.69509 
265 ,49.5031 ,1.18897 ,1.16796 ,11.46004 
266 ,49.6795 ,1.19072 ,1.16454 ,11.42647 
267 ,49.8391 ,1.19247 ,1.15085 ,11.29215 
268 ,50.0154 ,1.19410 ,1.14401 ,11.22500 
269 ,50.1913 ,1.19598 ,1.13374 ,11.12426 
270 ,50.3676 ,1.19769 ,1.12690 ,11.05710 
271 ,50.5599 ,1.19955 ,1.10294 ,10.82206 
272 ,50.7677 ,1.20145 ,1.10294 ,10.82206 
273 ,50.9601 ,1.20352 ,1.06187 ,10.41912 
274 ,51.1678 ,1.20559 ,1.07899 ,10.58701 
275 ,51.3600 ,1.20753 ,1.04476 ,10.25123 
276 ,51.5202 ,1.20929 ,1.01396 ,9.94902 
277 ,51.6960 ,1.21086 ,1.01396 ,9.94902 
278 ,51.8883 ,1.21285 ,1.02423 ,10.04976 
279 ,52.0806 ,1.21474 ,0.99343 ,9.74755 
280 ,52.2725 ,1.21665 ,1.00028 ,9.81471 
281 ,52.4487 ,1.21844 ,0.99001 ,9.71397 
282 ,52.6407 ,1.22030 ,0.96605 ,9.47892 
283 ,52.8328 ,1.22222 ,0.95579 ,9.37819 
284 ,53.0409 ,1.22429 ,0.93868 ,9.21030 
285 ,53.2168 ,1.22614 ,0.92499 ,9.07598 
286 ,53.3926 ,1.22785 ,0.92157 ,9.04241 
287 ,53.5852 ,1.22977 ,0.90788 ,8.90809 
288 ,53.7772 ,1.23171 ,0.88734 ,8.70662 
289 ,53.9692 ,1.23354 ,0.89077 ,8.74020 
290 ,54.1612 ,1.23560 ,0.87023 ,8.53873 
291 ,54.3373 ,1.23732 ,0.84970 ,8.33726 
292 ,54.5130 ,1.23902 ,0.83943 ,8.23653 
293 ,54.6895 ,1.24085 ,0.84628 ,8.30368 
294 ,54.8974 ,1.24287 ,0.81890 ,8.03506 
295 ,55.1054 ,1.24491 ,0.80179 ,7.86717 
296 ,55.2975 ,1.24690 ,0.81206 ,7.96790 
297 ,55.4736 ,1.24867 ,0.77441 ,7.59854 
298 ,55.6498 ,1.25055 ,0.78810 ,7.73285 
299 ,55.8420 ,1.25229 ,0.76415 ,7.49780 
300 ,56.0337 ,1.25420 ,0.74361 ,7.29633 
301 ,56.2262 ,1.25609 ,0.72992 ,7.16202 
302 ,56.4342 ,1.25821 ,0.72308 ,7.09486 
303 ,56.6098 ,1.26013 ,0.71624 ,7.02771 
304 ,56.7859 ,1.26184 ,0.71624 ,7.02771 
305 ,56.9784 ,1.26363 ,0.68201 ,6.69193 
306 ,57.1545 ,1.26549 ,0.66148 ,6.49046 
307 ,57.3303 ,1.26721 ,0.66490 ,6.52403 
308 ,57.5227 ,1.26911 ,0.64779 ,6.35614 
309 ,57.6983 ,1.27095 ,0.64437 ,6.32256 
310 ,57.8909 ,1.27278 ,0.63753 ,6.25541 
311 ,58.0987 ,1.27491 ,0.63068 ,6.18825 
312 ,58.2750 ,1.27673 ,0.60330 ,5.91962 
313 ,58.4669 ,1.27854 ,0.61015 ,5.98678 
314 ,58.6432 ,1.28036 ,0.59304 ,5.81889 
315 ,58.8187 ,1.28217 ,0.56908 ,5.58384 
316 ,59.0112 ,1.28392 ,0.56908 ,5.58384 
317 ,59.2032 ,1.28597 ,0.56566 ,5.55026 
318 ,59.3794 ,1.28771 ,0.54171 ,5.31522 
319 ,59.5715 ,1.28963 ,0.53144 ,5.21448 
320 ,59.7635 ,1.29157 ,0.54171 ,5.31522 
321 ,59.9395 ,1.29333 ,0.51433 ,5.04659 
322 ,60.1156 ,1.29504 ,0.49037 ,4.81154 
323 ,60.2918 ,1.29683 ,0.48695 ,4.77796 
324 ,60.4839 ,1.29874 ,0.49380 ,4.84512 
325 ,60.6759 ,1.30062 ,0.46984 ,4.61007 
326 ,60.8680 ,1.30250 ,0.46984 ,4.61007 
327 ,61.0436 ,1.30440 ,0.45615 ,4.47576 
328 ,61.2361 ,1.30623 ,0.42193 ,4.13997 
329 ,61.4441 ,1.30827 ,0.43220 ,4.24071 
330 ,61.6364 ,1.31020 ,0.40140 ,3.93850 
331 ,61.8283 ,1.31215 ,0.39455 ,3.87135 
332 ,62.0040 ,1.31396 ,0.40824 ,4.00566 
333 ,62.1806 ,1.31574 ,0.39455 ,3.87135 
334 ,62.3724 ,1.31762 ,0.35691 ,3.50199 
335 ,62.5487 ,1.31939 ,0.37060 ,3.63630 
336 ,62.7245 ,1.32116 ,0.36033 ,3.53557 
337 ,62.9168 ,1.32307 ,0.33638 ,3.30052 
338 ,63.1084 ,1.32487 ,0.30558 ,2.99831 
339 ,63.2848 ,1.32673 ,0.32953 ,3.23336 
340 ,63.4928 ,1.32868 ,0.29189 ,2.86400 
341 ,63.6690 ,1.33057 ,0.28504 ,2.79684 
342 ,63.8449 ,1.33240 ,0.29531 ,2.89758 
343 ,64.0212 ,1.33413 ,0.28847 ,2.83042 
344 ,64.1970 ,1.33589 ,0.26793 ,2.62895 
345 ,64.3728 ,1.33773 ,0.25767 ,2.52822 
346 ,64.5654 ,1.33945 ,0.24055 ,2.36032 
347 ,64.7577 ,1.34135 ,0.23713 ,2.32675 
348 ,64.9656 ,1.34350 ,0.22344 ,2.19243 
349 ,65.1577 ,1.34547 ,0.20633 ,2.02454 
350 ,65.3173 ,1.34718 ,0.19607 ,1.92381 
351 ,65.4939 ,1.34884 ,0.18580 ,1.82307 
352 ,65.6859 ,1.35073 ,0.18580 ,1.82307 
353 ,65.8616 ,1.35252 ,0.17896 ,1.75592 
354 ,66.0538 ,1.35443 ,0.16527 ,1.62160 
355 ,66.2302 ,1.35620 ,0.15158 ,1.48729 
356 ,66.4058 ,1.35800 ,0.13789 ,1.35298 
357 ,66.5981 ,1.35978 ,0.13789 ,1.35298 
358 ,66.7903 ,1.36181 ,0.11393 ,1.11793 
359 ,66.9662 ,1.36357 ,0.11736 ,1.15151 
360 ,67.1587 ,1.36548 ,0.11051 ,1.08435 
361 ,67.3344 ,1.36726 ,0.09340 ,0.91646 
362 ,67.5262 ,1.36910 ,0.08998 ,0.88288 
363 ,67.7026 ,1.37090 ,0.08314 ,0.81572 
364 ,67.8788 ,1.37270 ,0.06260 ,0.61425 
365 ,68.0869 ,1.37474 ,0.05918 ,0.58067 
366 ,68.2788 ,1.37660 ,0.04891 ,0.47994 
367 ,68.4710 ,1.37854 ,0.02496 ,0.24489 
368 ,68.6311 ,1.38031 ,0.02838 ,0.27847 
369 ,68.8071 ,1.38197 ,0.01127 ,0.11058 
370 ,68.9832 ,1.38367 ,0.02154 ,0.21131 
371 ,69.1913 ,1.38579 ,-0.01611 ,-0.15805 
372 ,69.3675 ,1.38756 ,-0.01611 ,-0.15805 
373 ,69.5597 ,1.38947 ,-0.01953 ,-0.19163 
374 ,69.7676 ,1.39150 ,-0.03664 ,-0.35952 
375 ,69.9596 ,1.39347 ,-0.04006 ,-0.39310 
376 ,70.1357 ,1.39519 ,-0.05717 ,-0.56099 
377 ,70.3118 ,1.39698 ,-0.07428 ,-0.72888 
378 ,70.5036 ,1.39885 ,-0.06402 ,-0.62814 
379 ,70.6957 ,1.40076 ,-0.09482 ,-0.93035 
380 ,70.8881 ,1.40265 ,-0.08797 ,-0.86319 
381 ,71.0801 ,1.40468 ,-0.09482 ,-0.93035 
382 ,71.2564 ,1.40640 ,-0.10851 ,-1.06466 
383 ,71.4484 ,1.40835 ,-0.11535 ,-1.13182 
384 ,71.6404 ,1.41026 ,-0.13246 ,-1.29971 
385 ,71.8324 ,1.41217 ,-0.14957 ,-1.46760 
386 ,72.0082 ,1.41395 ,-0.16326 ,-1.60191 
387 ,72.2166 ,1.41597 ,-0.16326 ,-1.60191 
388 ,72.3923 ,1.41776 ,-0.18379 ,-1.80338 
389 ,72.5689 ,1.41957 ,-0.19064 ,-1.87054 
390 ,72.7449 ,1.42134 ,-0.19406 ,-1.90412 
391 ,72.9209 ,1.42307 ,-0.18722 ,-1.83696 
392 ,73.0969 ,1.42480 ,-0.20433 ,-2.00485 
393 ,73.2891 ,1.42667 ,-0.21117 ,-2.07201 
394 ,73.4812 ,1.42864 ,-0.21802 ,-2.13917 
395 ,73.6731 ,1.43056 ,-0.25224 ,-2.47495 
396 ,73.8809 ,1.43252 ,-0.24197 ,-2.37422 
397 ,74.0729 ,1.43454 ,-0.25908 ,-2.54211 
398 ,74.2491 ,1.43636 ,-0.27961 ,-2.74358 
399 ,74.4576 ,1.43830 ,-0.27619 ,-2.71000 
400 ,74.6496 ,1.44042 ,-0.28304 ,-2.77716 
401 ,74.8255 ,1.44211 ,-0.30357 ,-2.97863 
402 ,75.0173 ,1.44400 ,-0.29330 ,-2.87789 
403 ,75.2099 ,1.44582 ,-0.31041 ,-3.04578 
404 ,75.4338 ,1.44805 ,-0.32752 ,-3.21367 
405 ,75.6261 ,1.45005 ,-0.33095 ,-3.24725 
406 ,75.8022 ,1.45187 ,-0.34121 ,-3.34799 
407 ,75.9782 ,1.45368 ,-0.33779 ,-3.31441 
408 ,76.1701 ,1.45553 ,-0.37544 ,-3.68377 
409 ,76.3623 ,1.45747 ,-0.37201 ,-3.65019 
410 ,76.5544 ,1.45939 ,-0.38228 ,-3.75093 
411 ,76.7466 ,1.46132 ,-0.39255 ,-3.85166 
412 ,76.9544 ,1.46331 ,-0.39939 ,-3.91882 
413 ,77.1303 ,1.46514 ,-0.40966 ,-4.01955 
414 ,77.3228 ,1.46704 ,-0.40966 ,-4.01955 
415 ,77.5148 ,1.46897 ,-0.40281 ,-3.95240 
416 ,77.7068 ,1.47091 ,-0.44388 ,-4.35534 
417 ,77.8824 ,1.47267 ,-0.44730 ,-4.38891 
418 ,78.0751 ,1.47458 ,-0.44388 ,-4.35534 
419 ,78.2668 ,1.47646 ,-0.46783 ,-4.59038 
420 ,78.4432 ,1.47827 ,-0.47126 ,-4.62396 
421 ,78.6193 ,1.48003 ,-0.47810 ,-4.69112 
422 ,78.7952 ,1.48178 ,-0.48152 ,-4.72470 
423 ,78.9716 ,1.48357 ,-0.49863 ,-4.89259 
424 ,79.1635 ,1.48554 ,-0.49179 ,-4.82543 
425 ,79.3391 ,1.48723 ,-0.51574 ,-5.06048 
426 ,79.5157 ,1.48895 ,-0.49863 ,-4.89259 
427 ,79.7076 ,1.49093 ,-0.54997 ,-5.39626 
428 ,79.8839 ,1.49270 ,-0.53970 ,-5.29553 
429 ,80.0759 ,1.49456 ,-0.54654 ,-5.36268 
430 ,80.2681 ,1.49653 ,-0.56708 ,-5.56415 
431 ,80.4758 ,1.49847 ,-0.57050 ,-5.59773 
432 ,80.6682 ,1.50052 ,-0.58419 ,-5.73205 
433 ,80.8600 ,1.50243 ,-0.58419 ,-5.73205 
434 ,81.0525 ,1.50442 ,-0.59103 ,-5.79920 
435 ,81.2284 ,1.50614 ,-0.61156 ,-6.00067 
436 ,81.4203 ,1.50797 ,-0.61156 ,-6.00067 
437 ,81.6123 ,1.50987 ,-0.62525 ,-6.13499 
438 ,81.8042 ,1.51185 ,-0.63552 ,-6.23572 
439 ,81.9807 ,1.51363 ,-0.63894 ,-6.26930 
440 ,82.1728 ,1.51554 ,-0.63894 ,-6.26930 
441 ,82.3648 ,1.51742 ,-0.65947 ,-6.47077 
442 ,82.5565 ,1.51940 ,-0.65947 ,-6.47077 
443 ,82.7331 ,1.52115 ,-0.66632 ,-6.53793 
444 ,82.9249 ,1.52303 ,-0.68685 ,-6.73940 
445 ,83.1172 ,1.52497 ,-0.68685 ,-6.73940 
446 ,83.3090 ,1.52692 ,-0.70054 ,-6.87371 
447 ,83.5011 ,1.52880 ,-0.72450 ,-7.10876 
448 ,83.6614 ,1.53058 ,-0.70739 ,-6.94086 
449 ,83.8531 ,1.53227 ,-0.72450 ,-7.10876 
450 ,84.0451 ,1.53419 ,-0.74161 ,-7.27665 
451 ,84.2214 ,1.53603 ,-0.74845 ,-7.34380 
452 ,84.3976 ,1.53781 ,-0.74161 ,-7.27665 
453 ,84.5737 ,1.53954 ,-0.73818 ,-7.24307 
454 ,84.7495 ,1.54138 ,-0.77583 ,-7.61243 
455 ,84.9418 ,1.54316 ,-0.77241 ,-7.57885 
456 ,85.1338 ,1.54507 ,-0.78267 ,-7.67959 
457 ,85.3421 ,1.54711 ,-0.80663 ,-7.91464 
458 ,85.5342 ,1.54916 ,-0.79294 ,-7.78032 
459 ,85.7418 ,1.55104 ,-0.81005 ,-7.94821 
460 ,85.9340 ,1.55307 ,-0.80321 ,-7.88106 
461 ,86.1423 ,1.55517 ,-0.83401 ,-8.18326 
462 ,86.3183 ,1.55702 ,-0.83401 ,-8.18326 
463 ,86.4945 ,1.55878 ,-0.83743 ,-8.21684 
