Data stamp = , 22-04-2022 21:56:23 432

Calibration Values: 
Slope = , 26.54 , g/V 
Offset Voltage at no contact = , -0.501760 , V 

No , Time , Stage Position ,   Mass , Force 
   ,  (s) ,      (mm)      ,   (g)  , (mN)  

1 ,0.0000 ,0.69936 ,5.35669 ,52.55988 
2 ,0.2144 ,0.69945 ,5.32589 ,52.25768 
3 ,0.5830 ,0.70047 ,5.35669 ,52.55988 
4 ,0.7911 ,0.70224 ,5.33958 ,52.39199 
5 ,0.9991 ,0.70409 ,5.33616 ,52.35841 
6 ,1.2072 ,0.70611 ,5.34643 ,52.45915 
7 ,1.3832 ,0.70789 ,5.36354 ,52.62704 
8 ,1.5754 ,0.70980 ,5.33958 ,52.39199 
9 ,1.7836 ,0.71191 ,5.32247 ,52.22410 
10 ,1.9756 ,0.71390 ,5.30878 ,52.08979 
11 ,2.1516 ,0.71569 ,5.27798 ,51.78758 
12 ,2.3434 ,0.71753 ,5.28141 ,51.82116 
13 ,2.5198 ,0.71935 ,5.25403 ,51.55254 
14 ,2.7119 ,0.72126 ,5.23350 ,51.35107 
15 ,2.9040 ,0.72306 ,5.22323 ,51.25033 
16 ,3.0801 ,0.72492 ,5.21296 ,51.14960 
17 ,3.2722 ,0.72677 ,5.17874 ,50.81381 
18 ,3.4640 ,0.72868 ,5.17532 ,50.78023 
19 ,3.6403 ,0.73050 ,5.14794 ,50.51161 
20 ,3.8161 ,0.73238 ,5.12399 ,50.27656 
21 ,3.9925 ,0.73408 ,5.08977 ,49.94078 
22 ,4.1843 ,0.73601 ,5.09661 ,50.00793 
23 ,4.3766 ,0.73796 ,5.05212 ,49.57142 
24 ,4.5526 ,0.73965 ,5.05212 ,49.57142 
25 ,4.7285 ,0.74141 ,5.04185 ,49.47068 
26 ,4.9208 ,0.74325 ,5.02817 ,49.33637 
27 ,5.1129 ,0.74525 ,4.98368 ,48.89985 
28 ,5.3050 ,0.74706 ,4.97341 ,48.79911 
29 ,5.5288 ,0.74924 ,4.96657 ,48.73196 
30 ,5.7209 ,0.75131 ,4.95288 ,48.59764 
31 ,5.9133 ,0.75328 ,4.91523 ,48.22828 
32 ,6.0893 ,0.75498 ,4.90839 ,48.16113 
33 ,6.2814 ,0.75685 ,4.89812 ,48.06039 
34 ,6.4572 ,0.75883 ,4.87075 ,47.79177 
35 ,6.6331 ,0.76044 ,4.83310 ,47.42240 
36 ,6.8095 ,0.76223 ,4.82626 ,47.35525 
37 ,7.0019 ,0.76417 ,4.81599 ,47.25451 
38 ,7.1938 ,0.76602 ,4.80230 ,47.12020 
39 ,7.3697 ,0.76780 ,4.77150 ,46.81800 
40 ,7.5459 ,0.76959 ,4.75097 ,46.61653 
41 ,7.7374 ,0.77140 ,4.74755 ,46.58295 
42 ,7.9141 ,0.77328 ,4.73044 ,46.41506 
43 ,8.1222 ,0.77522 ,4.68937 ,46.01212 
44 ,8.3142 ,0.77724 ,4.69964 ,46.11285 
45 ,8.4742 ,0.77899 ,4.67226 ,45.84422 
46 ,8.6502 ,0.78062 ,4.65515 ,45.67633 
47 ,8.8259 ,0.78237 ,4.63804 ,45.50844 
48 ,9.0027 ,0.78415 ,4.62435 ,45.37413 
49 ,9.2106 ,0.78615 ,4.59013 ,45.03835 
50 ,9.4027 ,0.78806 ,4.58671 ,45.00477 
51 ,9.5943 ,0.79008 ,4.58328 ,44.97119 
52 ,9.7708 ,0.79177 ,4.55933 ,44.73614 
53 ,9.9467 ,0.79358 ,4.52853 ,44.43394 
54 ,10.1389 ,0.79549 ,4.52169 ,44.36678 
55 ,10.3311 ,0.79734 ,4.49773 ,44.13173 
56 ,10.5391 ,0.79935 ,4.47720 ,43.93026 
57 ,10.7147 ,0.80128 ,4.47720 ,43.93026 
58 ,10.8910 ,0.80303 ,4.44640 ,43.62806 
59 ,11.0672 ,0.80482 ,4.41218 ,43.29227 
60 ,11.2755 ,0.80679 ,4.41560 ,43.32585 
61 ,11.4674 ,0.80867 ,4.39507 ,43.12438 
62 ,11.6436 ,0.81052 ,4.35742 ,42.75502 
63 ,11.8516 ,0.81253 ,4.35400 ,42.72144 
64 ,12.0437 ,0.81460 ,4.33689 ,42.55355 
65 ,12.2197 ,0.81628 ,4.31636 ,42.35208 
66 ,12.3958 ,0.81808 ,4.31293 ,42.31850 
67 ,12.5877 ,0.81998 ,4.28213 ,42.01630 
68 ,12.7800 ,0.82186 ,4.25476 ,41.74767 
69 ,12.9562 ,0.82368 ,4.24107 ,41.61336 
70 ,13.1481 ,0.82553 ,4.23422 ,41.54620 
71 ,13.3242 ,0.82731 ,4.20000 ,41.21042 
72 ,13.5004 ,0.82910 ,4.18974 ,41.10968 
73 ,13.6924 ,0.83104 ,4.19658 ,41.17684 
74 ,13.8845 ,0.83285 ,4.14867 ,40.70674 
75 ,14.0766 ,0.83482 ,4.14183 ,40.63959 
76 ,14.2684 ,0.83684 ,4.12129 ,40.43812 
77 ,14.4602 ,0.83863 ,4.10418 ,40.27023 
78 ,14.6369 ,0.84046 ,4.08707 ,40.10233 
79 ,14.8608 ,0.84264 ,4.07338 ,39.96802 
80 ,15.0849 ,0.84483 ,4.05285 ,39.76655 
81 ,15.2770 ,0.84672 ,4.02547 ,39.49793 
82 ,15.4530 ,0.84866 ,4.02547 ,39.49793 
83 ,15.6451 ,0.85047 ,3.99467 ,39.19572 
84 ,15.8372 ,0.85252 ,3.99809 ,39.22930 
85 ,16.0134 ,0.85423 ,3.96045 ,38.85994 
86 ,16.2053 ,0.85615 ,3.95703 ,38.82636 
87 ,16.3655 ,0.85783 ,3.91938 ,38.45700 
88 ,16.5414 ,0.85951 ,3.92623 ,38.52415 
89 ,16.7175 ,0.86127 ,3.88858 ,38.15479 
90 ,16.8937 ,0.86306 ,3.88516 ,38.12122 
91 ,17.0859 ,0.86494 ,3.87147 ,37.98690 
92 ,17.2779 ,0.86690 ,3.83725 ,37.65112 
93 ,17.4694 ,0.86878 ,3.84752 ,37.75185 
94 ,17.6620 ,0.87058 ,3.83041 ,37.58396 
95 ,17.8862 ,0.87277 ,3.80303 ,37.31534 
96 ,18.0623 ,0.87469 ,3.78250 ,37.11387 
97 ,18.2540 ,0.87662 ,3.75512 ,36.84524 
98 ,18.4301 ,0.87834 ,3.73801 ,36.67735 
99 ,18.6223 ,0.88026 ,3.72090 ,36.50946 
100 ,18.8144 ,0.88219 ,3.70379 ,36.34157 
101 ,18.9906 ,0.88401 ,3.68325 ,36.14010 
102 ,19.1987 ,0.88600 ,3.69010 ,36.20725 
103 ,19.4067 ,0.88806 ,3.66272 ,35.93863 
104 ,19.5987 ,0.89003 ,3.62508 ,35.56926 
105 ,19.8070 ,0.89211 ,3.62508 ,35.56926 
106 ,19.9988 ,0.89401 ,3.59770 ,35.30064 
107 ,20.1751 ,0.89583 ,3.58059 ,35.13275 
108 ,20.3511 ,0.89764 ,3.56348 ,34.96485 
109 ,20.5270 ,0.89937 ,3.56006 ,34.93128 
110 ,20.7192 ,0.90125 ,3.54979 ,34.83054 
111 ,20.9114 ,0.90317 ,3.49846 ,34.32687 
112 ,21.1035 ,0.90505 ,3.51557 ,34.49476 
113 ,21.2950 ,0.90705 ,3.48477 ,34.19255 
114 ,21.4716 ,0.90884 ,3.45739 ,33.92393 
115 ,21.6633 ,0.91080 ,3.44370 ,33.78961 
116 ,21.8556 ,0.91255 ,3.43344 ,33.68888 
117 ,22.0478 ,0.91450 ,3.41975 ,33.55457 
118 ,22.2238 ,0.91631 ,3.41633 ,33.52099 
119 ,22.3998 ,0.91807 ,3.39579 ,33.31952 
120 ,22.5761 ,0.91979 ,3.35815 ,32.95016 
121 ,22.7835 ,0.92185 ,3.36499 ,33.01731 
122 ,22.9602 ,0.92367 ,3.33762 ,32.74869 
123 ,23.1522 ,0.92564 ,3.31708 ,32.54722 
124 ,23.3281 ,0.92737 ,3.29313 ,32.31217 
125 ,23.5363 ,0.92940 ,3.27602 ,32.14428 
126 ,23.7120 ,0.93120 ,3.25891 ,31.97639 
127 ,23.8722 ,0.93289 ,3.24864 ,31.87565 
128 ,24.0484 ,0.93448 ,3.22811 ,31.67418 
129 ,24.2246 ,0.93632 ,3.22126 ,31.60702 
130 ,24.4167 ,0.93816 ,3.21784 ,31.57345 
131 ,24.6084 ,0.94008 ,3.19046 ,31.30482 
132 ,24.7688 ,0.94184 ,3.17677 ,31.17051 
133 ,24.9449 ,0.94348 ,3.14940 ,30.90188 
134 ,25.1210 ,0.94528 ,3.15966 ,31.00262 
135 ,25.3129 ,0.94711 ,3.11518 ,30.56610 
136 ,25.4888 ,0.94893 ,3.10149 ,30.43178 
137 ,25.6651 ,0.95072 ,3.09464 ,30.36463 
138 ,25.8251 ,0.95243 ,3.09122 ,30.33105 
139 ,25.9849 ,0.95400 ,3.08438 ,30.26389 
140 ,26.1614 ,0.95563 ,3.07069 ,30.12958 
141 ,26.3695 ,0.95767 ,3.04673 ,29.89453 
142 ,26.5613 ,0.95957 ,3.03304 ,29.76022 
143 ,26.7536 ,0.96155 ,3.01251 ,29.55875 
144 ,26.9297 ,0.96337 ,2.98513 ,29.29012 
145 ,27.1057 ,0.96515 ,2.98855 ,29.32370 
146 ,27.2818 ,0.96683 ,2.96802 ,29.12223 
147 ,27.4740 ,0.96868 ,2.95776 ,29.02150 
148 ,27.6659 ,0.97069 ,2.92011 ,28.65213 
149 ,27.8260 ,0.97241 ,2.90300 ,28.48424 
150 ,28.0182 ,0.97416 ,2.91327 ,28.58498 
151 ,28.2104 ,0.97614 ,2.88247 ,28.28277 
152 ,28.4022 ,0.97802 ,2.85509 ,28.01415 
153 ,28.5783 ,0.97987 ,2.85851 ,28.04772 
154 ,28.7705 ,0.98174 ,2.84482 ,27.91341 
155 ,28.9466 ,0.98350 ,2.81745 ,27.64479 
156 ,29.1382 ,0.98541 ,2.82087 ,27.67836 
157 ,29.3307 ,0.98729 ,2.80034 ,27.47689 
158 ,29.5388 ,0.98936 ,2.77638 ,27.24185 
159 ,29.7308 ,0.99133 ,2.74558 ,26.93964 
160 ,29.9075 ,0.99309 ,2.74216 ,26.90606 
161 ,30.0989 ,0.99497 ,2.72505 ,26.73817 
162 ,30.2751 ,0.99675 ,2.72163 ,26.70459 
163 ,30.4669 ,0.99872 ,2.70109 ,26.50312 
164 ,30.6591 ,1.00054 ,2.67372 ,26.23450 
165 ,30.8513 ,1.00245 ,2.67372 ,26.23450 
166 ,31.0432 ,1.00447 ,2.64976 ,25.99945 
167 ,31.2193 ,1.00622 ,2.62923 ,25.79798 
168 ,31.3954 ,1.00799 ,2.63607 ,25.86514 
169 ,31.5715 ,1.00972 ,2.61896 ,25.69724 
170 ,31.7795 ,1.01175 ,2.59501 ,25.46220 
171 ,31.9556 ,1.01360 ,2.58816 ,25.39504 
172 ,32.1318 ,1.01539 ,2.57447 ,25.26073 
173 ,32.3396 ,1.01736 ,2.54710 ,24.99210 
174 ,32.5158 ,1.01930 ,2.54367 ,24.95852 
175 ,32.7078 ,1.02105 ,2.50945 ,24.62274 
176 ,32.8842 ,1.02283 ,2.48207 ,24.35411 
177 ,33.0762 ,1.02481 ,2.48892 ,24.42127 
178 ,33.2680 ,1.02670 ,2.47523 ,24.28696 
179 ,33.4439 ,1.02848 ,2.44785 ,24.01833 
180 ,33.6365 ,1.03033 ,2.44101 ,23.95117 
181 ,33.8444 ,1.03242 ,2.41705 ,23.71612 
182 ,34.0364 ,1.03431 ,2.41363 ,23.68255 
183 ,34.2605 ,1.03650 ,2.37256 ,23.27961 
184 ,34.4206 ,1.03832 ,2.36914 ,23.24603 
185 ,34.5967 ,1.03997 ,2.35545 ,23.11171 
186 ,34.7728 ,1.04176 ,2.35203 ,23.07814 
187 ,34.9809 ,1.04378 ,2.33492 ,22.91024 
188 ,35.1729 ,1.04575 ,2.31439 ,22.70877 
189 ,35.3490 ,1.04749 ,2.30070 ,22.57446 
190 ,35.5411 ,1.04948 ,2.28359 ,22.40657 
191 ,35.7172 ,1.05117 ,2.25963 ,22.17152 
192 ,35.9092 ,1.05303 ,2.25963 ,22.17152 
193 ,36.0853 ,1.05489 ,2.24594 ,22.03721 
194 ,36.2613 ,1.05663 ,2.22541 ,21.83574 
195 ,36.4371 ,1.05838 ,2.19119 ,21.49996 
196 ,36.6132 ,1.06014 ,2.20146 ,21.60069 
197 ,36.7891 ,1.06190 ,2.19461 ,21.53353 
198 ,36.9653 ,1.06365 ,2.17750 ,21.36564 
199 ,37.1417 ,1.06544 ,2.15697 ,21.16417 
200 ,37.3339 ,1.06740 ,2.13986 ,20.99628 
201 ,37.5260 ,1.06925 ,2.14328 ,21.02986 
202 ,37.7021 ,1.07103 ,2.11590 ,20.76123 
203 ,37.8620 ,1.07275 ,2.08510 ,20.45903 
204 ,38.0542 ,1.07448 ,2.07826 ,20.39187 
205 ,38.2303 ,1.07626 ,2.07484 ,20.35829 
206 ,38.4068 ,1.07808 ,2.06799 ,20.29114 
207 ,38.5984 ,1.07999 ,2.03719 ,19.98893 
208 ,38.8066 ,1.08200 ,2.03035 ,19.92178 
209 ,38.9982 ,1.08397 ,2.00297 ,19.65315 
210 ,39.1905 ,1.08589 ,1.99613 ,19.58599 
211 ,39.3666 ,1.08764 ,1.99955 ,19.61957 
212 ,39.5428 ,1.08946 ,1.97559 ,19.38452 
213 ,39.7188 ,1.09120 ,1.95164 ,19.14948 
214 ,39.9266 ,1.09318 ,1.95506 ,19.18305 
215 ,40.0864 ,1.09500 ,1.94479 ,19.08232 
216 ,40.2627 ,1.09662 ,1.92768 ,18.91443 
217 ,40.4550 ,1.09850 ,1.91742 ,18.81369 
218 ,40.6471 ,1.10044 ,1.88319 ,18.47791 
219 ,40.8233 ,1.10226 ,1.87293 ,18.37717 
220 ,41.0473 ,1.10432 ,1.86608 ,18.31002 
221 ,41.2232 ,1.10618 ,1.85582 ,18.20928 
222 ,41.3996 ,1.10793 ,1.83186 ,17.97423 
223 ,41.5756 ,1.10974 ,1.81133 ,17.77276 
224 ,41.7838 ,1.11174 ,1.81133 ,17.77276 
225 ,41.9758 ,1.11367 ,1.78395 ,17.50414 
226 ,42.1680 ,1.11572 ,1.76342 ,17.30267 
227 ,42.3599 ,1.11755 ,1.77369 ,17.40340 
228 ,42.5361 ,1.11934 ,1.74973 ,17.16836 
229 ,42.7280 ,1.12120 ,1.73946 ,17.06762 
230 ,42.9042 ,1.12302 ,1.72578 ,16.93331 
231 ,43.0642 ,1.12474 ,1.70866 ,16.76542 
232 ,43.2243 ,1.12636 ,1.70524 ,16.73184 
233 ,43.4001 ,1.12800 ,1.69155 ,16.59752 
234 ,43.6085 ,1.13000 ,1.66418 ,16.32890 
235 ,43.7846 ,1.13182 ,1.65391 ,16.22816 
236 ,43.9608 ,1.13356 ,1.65733 ,16.26174 
237 ,44.1363 ,1.13541 ,1.62653 ,15.95954 
238 ,44.3125 ,1.13714 ,1.61284 ,15.82522 
239 ,44.5047 ,1.13904 ,1.60600 ,15.75807 
240 ,44.6810 ,1.14079 ,1.59916 ,15.69091 
241 ,44.8731 ,1.14271 ,1.56836 ,15.38871 
242 ,45.0648 ,1.14463 ,1.55809 ,15.28797 
243 ,45.2413 ,1.14640 ,1.55467 ,15.25439 
244 ,45.4333 ,1.14828 ,1.51702 ,14.88503 
245 ,45.6253 ,1.15023 ,1.51360 ,14.85145 
246 ,45.8014 ,1.15198 ,1.51018 ,14.81787 
247 ,45.9773 ,1.15374 ,1.49991 ,14.71714 
248 ,46.1695 ,1.15567 ,1.46569 ,14.38136 
249 ,46.3454 ,1.15745 ,1.46227 ,14.34778 
250 ,46.7777 ,1.16051 ,1.45885 ,14.31420 
251 ,46.9539 ,1.16352 ,1.42462 ,13.97842 
252 ,47.1300 ,1.16532 ,1.40067 ,13.74337 
253 ,47.3220 ,1.16720 ,1.40751 ,13.81053 
254 ,47.4981 ,1.16897 ,1.38356 ,13.57548 
255 ,47.6743 ,1.17069 ,1.36303 ,13.37401 
256 ,47.8501 ,1.17249 ,1.34591 ,13.20612 
257 ,48.0264 ,1.17421 ,1.33907 ,13.13896 
258 ,48.2180 ,1.17609 ,1.33223 ,13.07180 
259 ,48.4105 ,1.17792 ,1.31854 ,12.93749 
260 ,48.5865 ,1.17979 ,1.29458 ,12.70244 
261 ,48.7626 ,1.18161 ,1.29800 ,12.73602 
262 ,48.9543 ,1.18352 ,1.28774 ,12.63528 
263 ,49.1468 ,1.18547 ,1.25694 ,12.33308 
264 ,49.3709 ,1.18749 ,1.25352 ,12.29950 
265 ,49.5626 ,1.18947 ,1.22956 ,12.06445 
266 ,49.7551 ,1.19148 ,1.23298 ,12.09803 
267 ,49.9470 ,1.19349 ,1.20903 ,11.86298 
268 ,50.1228 ,1.19518 ,1.19192 ,11.69509 
269 ,50.3152 ,1.19708 ,1.19876 ,11.76225 
270 ,50.4912 ,1.19888 ,1.17138 ,11.49362 
271 ,50.6991 ,1.20079 ,1.16796 ,11.46004 
272 ,50.8753 ,1.20269 ,1.15085 ,11.29215 
273 ,51.0675 ,1.20460 ,1.12005 ,10.98995 
274 ,51.2595 ,1.20645 ,1.10294 ,10.82206 
275 ,51.4676 ,1.20856 ,1.08583 ,10.65416 
276 ,51.6757 ,1.21068 ,1.09267 ,10.72132 
277 ,51.8518 ,1.21244 ,1.07214 ,10.51985 
278 ,52.0277 ,1.21430 ,1.06872 ,10.48627 
279 ,52.2201 ,1.21605 ,1.04476 ,10.25123 
280 ,52.4118 ,1.21808 ,1.02765 ,10.08333 
281 ,52.6043 ,1.21989 ,1.01739 ,9.98260 
282 ,52.8119 ,1.22197 ,1.01396 ,9.94902 
283 ,52.9883 ,1.22381 ,1.00712 ,9.88186 
284 ,53.1803 ,1.22576 ,0.96948 ,9.51250 
285 ,53.3564 ,1.22752 ,0.96605 ,9.47892 
286 ,53.5326 ,1.22930 ,0.97290 ,9.54608 
287 ,53.7247 ,1.23120 ,0.93868 ,9.21030 
288 ,53.9164 ,1.23306 ,0.93868 ,9.21030 
289 ,54.1089 ,1.23494 ,0.92841 ,9.10956 
290 ,54.3327 ,1.23712 ,0.91130 ,8.94167 
291 ,54.5249 ,1.23914 ,0.88392 ,8.67305 
292 ,54.7005 ,1.24090 ,0.88392 ,8.67305 
293 ,54.8925 ,1.24279 ,0.88050 ,8.63947 
294 ,55.0526 ,1.24459 ,0.86339 ,8.47158 
295 ,55.2291 ,1.24621 ,0.86339 ,8.47158 
296 ,55.4370 ,1.24834 ,0.81890 ,8.03506 
297 ,55.6454 ,1.25036 ,0.81890 ,8.03506 
298 ,55.8374 ,1.25235 ,0.79495 ,7.80001 
299 ,56.0134 ,1.25407 ,0.80179 ,7.86717 
300 ,56.1896 ,1.25579 ,0.78810 ,7.73285 
301 ,56.3976 ,1.25787 ,0.76757 ,7.53138 
302 ,56.5732 ,1.25966 ,0.76072 ,7.46423 
303 ,56.7654 ,1.26147 ,0.75388 ,7.39707 
304 ,56.9414 ,1.26337 ,0.73677 ,7.22918 
305 ,57.1338 ,1.26514 ,0.72308 ,7.09486 
306 ,57.3261 ,1.26718 ,0.72308 ,7.09486 
307 ,57.5180 ,1.26909 ,0.70255 ,6.89340 
308 ,57.6943 ,1.27092 ,0.67859 ,6.65835 
309 ,57.8863 ,1.27275 ,0.68886 ,6.75908 
310 ,58.0782 ,1.27462 ,0.65464 ,6.42330 
311 ,58.2540 ,1.27648 ,0.63753 ,6.25541 
312 ,58.4301 ,1.27826 ,0.62726 ,6.15467 
313 ,58.6226 ,1.28022 ,0.63753 ,6.25541 
314 ,58.8148 ,1.28195 ,0.60673 ,5.95320 
315 ,59.0070 ,1.28393 ,0.61015 ,5.98678 
316 ,59.1829 ,1.28578 ,0.59988 ,5.88605 
317 ,59.3745 ,1.28772 ,0.57935 ,5.68458 
318 ,59.5510 ,1.28944 ,0.55539 ,5.44953 
319 ,59.7430 ,1.29131 ,0.57593 ,5.65100 
320 ,59.9192 ,1.29309 ,0.54855 ,5.38237 
321 ,60.0952 ,1.29491 ,0.53828 ,5.28164 
322 ,60.2712 ,1.29661 ,0.51775 ,5.08017 
323 ,60.4469 ,1.29839 ,0.51091 ,5.01301 
324 ,60.6235 ,1.30018 ,0.50748 ,4.97943 
325 ,60.8315 ,1.30220 ,0.49037 ,4.81154 
326 ,61.0396 ,1.30413 ,0.47668 ,4.67723 
327 ,61.2157 ,1.30606 ,0.44931 ,4.40860 
328 ,61.4078 ,1.30803 ,0.44931 ,4.40860 
329 ,61.6159 ,1.31005 ,0.44246 ,4.34144 
330 ,61.8078 ,1.31198 ,0.42193 ,4.13997 
331 ,61.9841 ,1.31377 ,0.42877 ,4.20713 
332 ,62.1761 ,1.31563 ,0.40482 ,3.97208 
333 ,62.3681 ,1.31751 ,0.40482 ,3.97208 
334 ,62.5438 ,1.31945 ,0.39455 ,3.87135 
335 ,62.7203 ,1.32114 ,0.38771 ,3.80419 
336 ,62.9129 ,1.32301 ,0.36375 ,3.56914 
337 ,63.1046 ,1.32490 ,0.35691 ,3.50199 
338 ,63.2806 ,1.32673 ,0.35691 ,3.50199 
339 ,63.4564 ,1.32847 ,0.33980 ,3.33410 
340 ,63.6324 ,1.33022 ,0.32953 ,3.23336 
341 ,63.8088 ,1.33200 ,0.30215 ,2.96473 
342 ,63.9847 ,1.33378 ,0.29189 ,2.86400 
343 ,64.1770 ,1.33566 ,0.28504 ,2.79684 
344 ,64.3689 ,1.33748 ,0.27820 ,2.72969 
345 ,64.5450 ,1.33933 ,0.25082 ,2.46106 
346 ,64.7372 ,1.34120 ,0.27478 ,2.69611 
347 ,64.9292 ,1.34315 ,0.24398 ,2.39390 
348 ,65.1212 ,1.34512 ,0.24398 ,2.39390 
349 ,65.2974 ,1.34690 ,0.23713 ,2.32675 
350 ,65.4893 ,1.34871 ,0.20633 ,2.02454 
351 ,65.6975 ,1.35080 ,0.20633 ,2.02454 
352 ,65.8736 ,1.35264 ,0.20291 ,1.99096 
353 ,66.0655 ,1.35454 ,0.17553 ,1.72234 
354 ,66.2737 ,1.35646 ,0.18580 ,1.82307 
355 ,66.4818 ,1.35853 ,0.15500 ,1.52087 
356 ,66.6576 ,1.36056 ,0.15842 ,1.55445 
357 ,66.8337 ,1.36223 ,0.14473 ,1.42013 
358 ,67.0257 ,1.36413 ,0.12762 ,1.25224 
359 ,67.2181 ,1.36607 ,0.12078 ,1.18508 
360 ,67.4108 ,1.36793 ,0.09682 ,0.95004 
361 ,67.6023 ,1.36991 ,0.10709 ,1.05077 
362 ,67.7944 ,1.37182 ,0.09682 ,0.95004 
363 ,67.9864 ,1.37375 ,0.07971 ,0.78214 
364 ,68.1626 ,1.37552 ,0.05918 ,0.58067 
365 ,68.3546 ,1.37743 ,0.06602 ,0.64783 
366 ,68.5626 ,1.37939 ,0.04207 ,0.41278 
367 ,68.7547 ,1.38143 ,0.03865 ,0.37920 
368 ,68.9309 ,1.38321 ,0.03522 ,0.34563 
369 ,69.1228 ,1.38510 ,0.00100 ,0.00984 
370 ,69.2990 ,1.38692 ,0.00443 ,0.04342 
371 ,69.5231 ,1.38895 ,-0.00584 ,-0.05731 
372 ,69.7151 ,1.39096 ,-0.00926 ,-0.09089 
373 ,69.9077 ,1.39288 ,-0.03322 ,-0.32594 
374 ,70.0989 ,1.39490 ,-0.05033 ,-0.49383 
375 ,70.2754 ,1.39663 ,-0.05717 ,-0.56099 
376 ,70.4672 ,1.39848 ,-0.04691 ,-0.46025 
377 ,70.6433 ,1.40032 ,-0.07086 ,-0.69530 
378 ,70.8356 ,1.40220 ,-0.06402 ,-0.62814 
379 ,71.0597 ,1.40431 ,-0.08113 ,-0.79604 
380 ,71.2357 ,1.40629 ,-0.09140 ,-0.89677 
381 ,71.4124 ,1.40804 ,-0.11535 ,-1.13182 
382 ,71.6040 ,1.40985 ,-0.11535 ,-1.13182 
383 ,71.7960 ,1.41185 ,-0.14273 ,-1.40045 
384 ,71.9878 ,1.41368 ,-0.13931 ,-1.36687 
385 ,72.1799 ,1.41559 ,-0.16326 ,-1.60191 
386 ,72.3722 ,1.41747 ,-0.15642 ,-1.53476 
387 ,72.5642 ,1.41941 ,-0.17353 ,-1.70265 
388 ,72.7563 ,1.42138 ,-0.19064 ,-1.87054 
389 ,72.9323 ,1.42325 ,-0.20090 ,-1.97128 
390 ,73.1244 ,1.42507 ,-0.20090 ,-1.97128 
391 ,73.3162 ,1.42695 ,-0.22144 ,-2.17275 
392 ,73.4926 ,1.42878 ,-0.22486 ,-2.20632 
393 ,73.6682 ,1.43061 ,-0.22486 ,-2.20632 
394 ,73.8607 ,1.43252 ,-0.23855 ,-2.34064 
395 ,74.0525 ,1.43440 ,-0.25908 ,-2.54211 
396 ,74.2289 ,1.43617 ,-0.25566 ,-2.50853 
397 ,74.4205 ,1.43805 ,-0.24881 ,-2.44137 
398 ,74.6132 ,1.43995 ,-0.27619 ,-2.71000 
399 ,74.8372 ,1.44211 ,-0.27961 ,-2.74358 
400 ,75.0132 ,1.44400 ,-0.30699 ,-3.01220 
401 ,75.1892 ,1.44572 ,-0.31041 ,-3.04578 
402 ,75.3654 ,1.44753 ,-0.30357 ,-2.97863 
403 ,75.5573 ,1.44935 ,-0.32752 ,-3.21367 
404 ,75.7336 ,1.45122 ,-0.34464 ,-3.38156 
405 ,75.9253 ,1.45308 ,-0.34464 ,-3.38156 
406 ,76.1014 ,1.45487 ,-0.33779 ,-3.31441 
407 ,76.2774 ,1.45658 ,-0.34806 ,-3.41514 
408 ,76.4534 ,1.45839 ,-0.35832 ,-3.51588 
409 ,76.6454 ,1.46038 ,-0.37544 ,-3.68377 
410 ,76.8216 ,1.46209 ,-0.38228 ,-3.75093 
411 ,76.9977 ,1.46388 ,-0.37544 ,-3.68377 
412 ,77.1577 ,1.46556 ,-0.40281 ,-3.95240 
413 ,77.3338 ,1.46715 ,-0.40966 ,-4.01955 
414 ,77.4938 ,1.46890 ,-0.43019 ,-4.22102 
415 ,77.6700 ,1.47056 ,-0.43361 ,-4.25460 
416 ,77.8299 ,1.47228 ,-0.43703 ,-4.28818 
417 ,78.0061 ,1.47387 ,-0.44046 ,-4.32176 
418 ,78.1822 ,1.47569 ,-0.44388 ,-4.35534 
419 ,78.3582 ,1.47742 ,-0.44730 ,-4.38891 
420 ,78.5343 ,1.47917 ,-0.46441 ,-4.55681 
421 ,78.7104 ,1.48096 ,-0.48152 ,-4.72470 
422 ,78.8864 ,1.48268 ,-0.49863 ,-4.89259 
423 ,79.0624 ,1.48446 ,-0.49863 ,-4.89259 
424 ,79.2226 ,1.48617 ,-0.48837 ,-4.79185 
425 ,79.3987 ,1.48784 ,-0.50206 ,-4.92617 
426 ,79.5907 ,1.48970 ,-0.51574 ,-5.06048 
427 ,79.7668 ,1.49147 ,-0.53628 ,-5.26195 
428 ,79.9428 ,1.49328 ,-0.54654 ,-5.36268 
429 ,80.1029 ,1.49499 ,-0.53628 ,-5.26195 
430 ,80.2630 ,1.49657 ,-0.56023 ,-5.49700 
431 ,80.4555 ,1.49834 ,-0.54312 ,-5.32911 
432 ,80.6316 ,1.50015 ,-0.56023 ,-5.49700 
433 ,80.8232 ,1.50213 ,-0.56365 ,-5.53058 
434 ,80.9997 ,1.50389 ,-0.59103 ,-5.79920 
435 ,81.2239 ,1.50590 ,-0.60814 ,-5.96709 
436 ,81.4004 ,1.50787 ,-0.61499 ,-6.03425 
437 ,81.5916 ,1.50975 ,-0.59788 ,-5.86636 
438 ,81.7679 ,1.51151 ,-0.62525 ,-6.13499 
439 ,81.9276 ,1.51321 ,-0.63210 ,-6.20214 
440 ,82.1042 ,1.51488 ,-0.64579 ,-6.33646 
441 ,82.2962 ,1.51682 ,-0.64579 ,-6.33646 
442 ,82.4720 ,1.51861 ,-0.64236 ,-6.30288 
443 ,82.6800 ,1.52058 ,-0.66974 ,-6.57150 
444 ,82.8724 ,1.52246 ,-0.67316 ,-6.60508 
445 ,83.0481 ,1.52427 ,-0.68001 ,-6.67224 
446 ,83.2246 ,1.52608 ,-0.68343 ,-6.70582 
447 ,83.4328 ,1.52797 ,-0.70739 ,-6.94086 
448 ,83.6408 ,1.53022 ,-0.71081 ,-6.97444 
449 ,83.8330 ,1.53214 ,-0.71423 ,-7.00802 
450 ,84.0248 ,1.53409 ,-0.73134 ,-7.17591 
451 ,84.2171 ,1.53596 ,-0.72792 ,-7.14233 
452 ,84.4251 ,1.53804 ,-0.76898 ,-7.54527 
453 ,84.6172 ,1.53997 ,-0.76556 ,-7.51170 
454 ,84.8092 ,1.54183 ,-0.76898 ,-7.54527 
455 ,84.9852 ,1.54370 ,-0.75872 ,-7.44454 
456 ,85.1772 ,1.54549 ,-0.79636 ,-7.81390 
457 ,85.3535 ,1.54737 ,-0.79636 ,-7.81390 
458 ,85.5615 ,1.54927 ,-0.81005 ,-7.94821 
459 ,85.7536 ,1.55136 ,-0.81005 ,-7.94821 
460 ,85.9297 ,1.55313 ,-0.80663 ,-7.91464 
461 ,86.1218 ,1.55495 ,-0.84085 ,-8.25042 
462 ,86.3299 ,1.55703 ,-0.82374 ,-8.08253 
463 ,86.5059 ,1.55886 ,-0.84769 ,-8.31758 
