Data stamp = , 23-04-2022 19:37:23 187

Calibration Values: 
Slope = , 26.54 , g/V 
Offset Voltage at no contact = , -0.501760 , V 

No , Time , Stage Position ,   Mass , Force 
   ,  (s) ,      (mm)      ,   (g)  , (mN)  

1 ,0.0000 ,0.69942 ,5.31905 ,52.19052 
2 ,0.2134 ,0.69950 ,5.29852 ,51.98905 
3 ,0.6617 ,0.70101 ,5.30536 ,52.05621 
4 ,0.8539 ,0.70279 ,5.31563 ,52.15694 
5 ,1.0461 ,0.70457 ,5.31905 ,52.19052 
6 ,1.2223 ,0.70642 ,5.31905 ,52.19052 
7 ,1.3983 ,0.70815 ,5.30536 ,52.05621 
8 ,1.5741 ,0.70989 ,5.30878 ,52.08979 
9 ,1.7503 ,0.71162 ,5.30536 ,52.05621 
10 ,1.9265 ,0.71340 ,5.29852 ,51.98905 
11 ,2.1187 ,0.71538 ,5.25403 ,51.55254 
12 ,2.3107 ,0.71722 ,5.25403 ,51.55254 
13 ,2.5027 ,0.71925 ,5.22323 ,51.25033 
14 ,2.6788 ,0.72099 ,5.20612 ,51.08244 
15 ,2.8709 ,0.72287 ,5.20270 ,51.04886 
16 ,3.0469 ,0.72462 ,5.18216 ,50.84739 
17 ,3.2391 ,0.72658 ,5.15821 ,50.61234 
18 ,3.4150 ,0.72831 ,5.14452 ,50.47803 
19 ,3.6073 ,0.73025 ,5.13425 ,50.37729 
20 ,3.7994 ,0.73207 ,5.10345 ,50.07509 
21 ,3.9915 ,0.73403 ,5.11030 ,50.14225 
22 ,4.1996 ,0.73614 ,5.05212 ,49.57142 
23 ,4.3755 ,0.73799 ,5.05212 ,49.57142 
24 ,4.5517 ,0.73970 ,5.04185 ,49.47068 
25 ,4.7433 ,0.74162 ,4.99394 ,49.00058 
26 ,4.9193 ,0.74341 ,5.00763 ,49.13490 
27 ,5.0958 ,0.74510 ,4.99394 ,49.00058 
28 ,5.2720 ,0.74691 ,4.97683 ,48.83269 
29 ,5.4643 ,0.74876 ,4.95630 ,48.63122 
30 ,5.6719 ,0.75077 ,4.92208 ,48.29544 
31 ,5.8642 ,0.75277 ,4.89128 ,47.99324 
32 ,6.0402 ,0.75461 ,4.87759 ,47.85892 
33 ,6.2163 ,0.75631 ,4.86390 ,47.72461 
34 ,6.4083 ,0.75816 ,4.84679 ,47.55672 
35 ,6.5843 ,0.76003 ,4.82968 ,47.38883 
36 ,6.7765 ,0.76184 ,4.82284 ,47.32167 
37 ,6.9525 ,0.76369 ,4.80230 ,47.12020 
38 ,7.1446 ,0.76557 ,4.75782 ,46.68368 
39 ,7.3524 ,0.76767 ,4.74755 ,46.58295 
40 ,7.5288 ,0.76944 ,4.74413 ,46.54937 
41 ,7.7368 ,0.77148 ,4.72017 ,46.31432 
42 ,7.9130 ,0.77328 ,4.70648 ,46.18001 
43 ,8.1048 ,0.77516 ,4.66884 ,45.81065 
44 ,8.2972 ,0.77708 ,4.67226 ,45.84422 
45 ,8.4890 ,0.77908 ,4.64146 ,45.54202 
46 ,8.6813 ,0.78094 ,4.64146 ,45.54202 
47 ,8.8889 ,0.78297 ,4.60040 ,45.13908 
48 ,9.0655 ,0.78479 ,4.57986 ,44.93761 
49 ,9.2410 ,0.78657 ,4.56960 ,44.83688 
50 ,9.4175 ,0.78828 ,4.56960 ,44.83688 
51 ,9.6096 ,0.79023 ,4.55249 ,44.66898 
52 ,9.7857 ,0.79202 ,4.52169 ,44.36678 
53 ,9.9778 ,0.79392 ,4.52169 ,44.36678 
54 ,10.1699 ,0.79572 ,4.47720 ,43.93026 
55 ,10.3619 ,0.79779 ,4.44640 ,43.62806 
56 ,10.5381 ,0.79954 ,4.44640 ,43.62806 
57 ,10.7460 ,0.80157 ,4.43271 ,43.49374 
58 ,10.9382 ,0.80345 ,4.40875 ,43.25870 
59 ,11.1462 ,0.80550 ,4.38822 ,43.05723 
60 ,11.3224 ,0.80735 ,4.37453 ,42.92291 
61 ,11.5301 ,0.80937 ,4.34716 ,42.65429 
62 ,11.7224 ,0.81129 ,4.34031 ,42.58713 
63 ,11.9145 ,0.81335 ,4.31978 ,42.38566 
64 ,12.1066 ,0.81520 ,4.30267 ,42.21777 
65 ,12.3147 ,0.81716 ,4.29240 ,42.11703 
66 ,12.4907 ,0.81906 ,4.26160 ,41.81483 
67 ,12.6670 ,0.82081 ,4.23765 ,41.57978 
68 ,12.8593 ,0.82275 ,4.23765 ,41.57978 
69 ,13.0349 ,0.82460 ,4.21369 ,41.34473 
70 ,13.2111 ,0.82629 ,4.19658 ,41.17684 
71 ,13.3871 ,0.82798 ,4.17947 ,41.00895 
72 ,13.5632 ,0.82982 ,4.16236 ,40.84106 
73 ,13.7391 ,0.83149 ,4.16236 ,40.84106 
74 ,13.9148 ,0.83321 ,4.13840 ,40.60601 
75 ,14.0915 ,0.83502 ,4.11787 ,40.40454 
76 ,14.2676 ,0.83678 ,4.08365 ,40.06876 
77 ,14.4597 ,0.83874 ,4.09734 ,40.20307 
78 ,14.6355 ,0.84047 ,4.07680 ,40.00160 
79 ,14.8118 ,0.84226 ,4.04600 ,39.69940 
80 ,15.0038 ,0.84414 ,4.03916 ,39.63224 
81 ,15.1960 ,0.84601 ,4.01863 ,39.43077 
82 ,15.3879 ,0.84793 ,3.98098 ,39.06141 
83 ,15.5959 ,0.84992 ,3.97414 ,38.99425 
84 ,15.8200 ,0.85220 ,3.95018 ,38.75920 
85 ,16.0438 ,0.85451 ,3.93307 ,38.59131 
86 ,16.2361 ,0.85642 ,3.92965 ,38.55773 
87 ,16.4284 ,0.85840 ,3.89201 ,38.18837 
88 ,16.6202 ,0.86023 ,3.90227 ,38.28911 
89 ,16.8124 ,0.86217 ,3.86121 ,37.88617 
90 ,16.9884 ,0.86401 ,3.82356 ,37.51681 
91 ,17.1807 ,0.86588 ,3.82699 ,37.55038 
92 ,17.3724 ,0.86781 ,3.80303 ,37.31534 
93 ,17.5645 ,0.86977 ,3.79276 ,37.21460 
94 ,17.7407 ,0.87152 ,3.77908 ,37.08029 
95 ,17.9329 ,0.87338 ,3.74485 ,36.74450 
96 ,18.1246 ,0.87531 ,3.75170 ,36.81166 
97 ,18.3012 ,0.87714 ,3.73801 ,36.67735 
98 ,18.4932 ,0.87896 ,3.69694 ,36.27441 
99 ,18.6852 ,0.88096 ,3.68325 ,36.14010 
100 ,18.8771 ,0.88280 ,3.66957 ,36.00578 
101 ,19.0696 ,0.88477 ,3.64903 ,35.80431 
102 ,19.2774 ,0.88679 ,3.62850 ,35.60284 
103 ,19.4537 ,0.88869 ,3.60797 ,35.40137 
104 ,19.6615 ,0.89071 ,3.60797 ,35.40137 
105 ,19.8378 ,0.89249 ,3.60454 ,35.36779 
106 ,20.0295 ,0.89434 ,3.56006 ,34.93128 
107 ,20.2059 ,0.89616 ,3.54979 ,34.83054 
108 ,20.3820 ,0.89800 ,3.53952 ,34.72981 
109 ,20.5740 ,0.89971 ,3.51557 ,34.49476 
110 ,20.7498 ,0.90159 ,3.50530 ,34.39402 
111 ,20.9423 ,0.90348 ,3.49161 ,34.25971 
112 ,21.1503 ,0.90545 ,3.47108 ,34.05824 
113 ,21.3424 ,0.90752 ,3.45055 ,33.85677 
114 ,21.5183 ,0.90927 ,3.43344 ,33.68888 
115 ,21.6945 ,0.91105 ,3.41975 ,33.55457 
116 ,21.8866 ,0.91300 ,3.39921 ,33.35310 
117 ,22.0786 ,0.91492 ,3.40264 ,33.38667 
118 ,22.2547 ,0.91670 ,3.36157 ,32.98374 
119 ,22.4464 ,0.91846 ,3.33762 ,32.74869 
120 ,22.6229 ,0.92034 ,3.33419 ,32.71511 
121 ,22.8152 ,0.92224 ,3.30682 ,32.44648 
122 ,22.9910 ,0.92397 ,3.28628 ,32.24501 
123 ,23.1828 ,0.92588 ,3.30682 ,32.44648 
124 ,23.3592 ,0.92775 ,3.27602 ,32.14428 
125 ,23.5668 ,0.92969 ,3.26917 ,32.07712 
126 ,23.7433 ,0.93151 ,3.24864 ,31.87565 
127 ,23.9349 ,0.93343 ,3.20073 ,31.40555 
128 ,24.1114 ,0.93518 ,3.20757 ,31.47271 
129 ,24.3031 ,0.93711 ,3.19731 ,31.37198 
130 ,24.4796 ,0.93891 ,3.19046 ,31.30482 
131 ,24.6875 ,0.94090 ,3.16993 ,31.10335 
132 ,24.8639 ,0.94270 ,3.14940 ,30.90188 
133 ,25.0719 ,0.94464 ,3.14255 ,30.83472 
134 ,25.2798 ,0.94686 ,3.10833 ,30.49894 
135 ,25.4559 ,0.94864 ,3.08780 ,30.29747 
136 ,25.6639 ,0.95069 ,3.08780 ,30.29747 
137 ,25.8401 ,0.95248 ,3.06384 ,30.06242 
138 ,26.0162 ,0.95426 ,3.03989 ,29.82737 
139 ,26.2242 ,0.95630 ,3.02620 ,29.69306 
140 ,26.4004 ,0.95810 ,3.01251 ,29.55875 
141 ,26.5764 ,0.95987 ,2.98513 ,29.29012 
142 ,26.7526 ,0.96161 ,2.95776 ,29.02150 
143 ,26.9443 ,0.96346 ,2.98171 ,29.25654 
144 ,27.1522 ,0.96551 ,2.95091 ,28.95434 
145 ,27.3443 ,0.96744 ,2.94064 ,28.85360 
146 ,27.5363 ,0.96941 ,2.92011 ,28.65213 
147 ,27.7289 ,0.97127 ,2.90985 ,28.55140 
148 ,27.9209 ,0.97328 ,2.89958 ,28.45066 
149 ,28.0971 ,0.97508 ,2.86193 ,28.08130 
150 ,28.3050 ,0.97707 ,2.86193 ,28.08130 
151 ,28.4972 ,0.97897 ,2.82771 ,27.74552 
152 ,28.6732 ,0.98085 ,2.84482 ,27.91341 
153 ,28.8493 ,0.98255 ,2.80718 ,27.54405 
154 ,29.0250 ,0.98432 ,2.80376 ,27.51047 
155 ,29.2015 ,0.98609 ,2.77638 ,27.24185 
156 ,29.3936 ,0.98800 ,2.75585 ,27.04038 
157 ,29.5696 ,0.98978 ,2.74900 ,26.97322 
158 ,29.7294 ,0.99149 ,2.74216 ,26.90606 
159 ,29.9058 ,0.99313 ,2.73874 ,26.87248 
160 ,30.0976 ,0.99502 ,2.69425 ,26.43597 
161 ,30.2899 ,0.99700 ,2.70109 ,26.50312 
162 ,30.4818 ,0.99891 ,2.68056 ,26.30165 
163 ,30.6742 ,1.00073 ,2.65660 ,26.06661 
164 ,30.8661 ,1.00267 ,2.64976 ,25.99945 
165 ,31.0422 ,1.00452 ,2.63607 ,25.86514 
166 ,31.2342 ,1.00635 ,2.60527 ,25.56293 
167 ,31.4425 ,1.00835 ,2.59158 ,25.42862 
168 ,31.6502 ,1.01042 ,2.58132 ,25.32788 
169 ,31.8421 ,1.01245 ,2.55736 ,25.09283 
170 ,32.0186 ,1.01428 ,2.54025 ,24.92494 
171 ,32.2107 ,1.01618 ,2.53341 ,24.85779 
172 ,32.4027 ,1.01807 ,2.50603 ,24.58916 
173 ,32.5788 ,1.01984 ,2.49576 ,24.48842 
174 ,32.7548 ,1.02160 ,2.48550 ,24.38769 
175 ,32.9310 ,1.02339 ,2.47523 ,24.28696 
176 ,33.1071 ,1.02510 ,2.46154 ,24.15264 
177 ,33.2992 ,1.02699 ,2.43759 ,23.91759 
178 ,33.5071 ,1.02909 ,2.43074 ,23.85044 
179 ,33.7154 ,1.03103 ,2.41363 ,23.68255 
180 ,33.9390 ,1.03326 ,2.39994 ,23.54823 
181 ,34.1153 ,1.03523 ,2.36230 ,23.17887 
182 ,34.3235 ,1.03726 ,2.37256 ,23.27961 
183 ,34.5156 ,1.03916 ,2.34861 ,23.04456 
184 ,34.6917 ,1.04100 ,2.33492 ,22.91024 
185 ,34.8838 ,1.04285 ,2.30754 ,22.64162 
186 ,35.0917 ,1.04488 ,2.30412 ,22.60804 
187 ,35.2679 ,1.04676 ,2.29043 ,22.47373 
188 ,35.4439 ,1.04846 ,2.25621 ,22.13794 
189 ,35.6200 ,1.05021 ,2.24252 ,22.00363 
190 ,35.7961 ,1.05206 ,2.22541 ,21.83574 
191 ,35.9883 ,1.05390 ,2.23226 ,21.90290 
192 ,36.1803 ,1.05581 ,2.21857 ,21.76858 
193 ,36.3723 ,1.05775 ,2.19803 ,21.56711 
194 ,36.5485 ,1.05950 ,2.17408 ,21.33206 
195 ,36.7562 ,1.06151 ,2.17408 ,21.33206 
196 ,36.9322 ,1.06335 ,2.16039 ,21.19775 
197 ,37.1087 ,1.06511 ,2.15012 ,21.09702 
198 ,37.3008 ,1.06706 ,2.12617 ,20.86197 
199 ,37.5088 ,1.06906 ,2.10564 ,20.66050 
200 ,37.6848 ,1.07090 ,2.07826 ,20.39187 
201 ,37.8770 ,1.07282 ,2.07826 ,20.39187 
202 ,38.0694 ,1.07466 ,2.05773 ,20.19040 
203 ,38.2609 ,1.07662 ,2.05088 ,20.12325 
204 ,38.4373 ,1.07839 ,2.02693 ,19.88820 
205 ,38.6453 ,1.08040 ,2.00982 ,19.72031 
206 ,38.8696 ,1.08259 ,2.00297 ,19.65315 
207 ,39.0455 ,1.08448 ,1.98244 ,19.45168 
208 ,39.2216 ,1.08627 ,1.96875 ,19.31737 
209 ,39.4136 ,1.08812 ,1.96875 ,19.31737 
210 ,39.6055 ,1.09008 ,1.94137 ,19.04874 
211 ,39.7818 ,1.09186 ,1.92084 ,18.84727 
212 ,39.9578 ,1.09359 ,1.91399 ,18.78011 
213 ,40.1496 ,1.09551 ,1.91399 ,18.78011 
214 ,40.3260 ,1.09729 ,1.89346 ,18.57864 
215 ,40.5339 ,1.09935 ,1.88319 ,18.47791 
216 ,40.7581 ,1.10153 ,1.85924 ,18.24286 
217 ,40.9504 ,1.10352 ,1.84213 ,18.07497 
218 ,41.1424 ,1.10541 ,1.81817 ,17.83992 
219 ,41.3345 ,1.10733 ,1.82160 ,17.87350 
220 ,41.5103 ,1.10913 ,1.81475 ,17.80634 
221 ,41.7024 ,1.11093 ,1.78737 ,17.53772 
222 ,41.9265 ,1.11318 ,1.78737 ,17.53772 
223 ,42.1186 ,1.11512 ,1.74289 ,17.10120 
224 ,42.3267 ,1.11727 ,1.72578 ,16.93331 
225 ,42.5187 ,1.11911 ,1.70866 ,16.76542 
226 ,42.7110 ,1.12114 ,1.72578 ,16.93331 
227 ,42.9030 ,1.12311 ,1.70182 ,16.69826 
228 ,43.0946 ,1.12485 ,1.68471 ,16.53037 
229 ,43.2710 ,1.12671 ,1.67786 ,16.46321 
230 ,43.4473 ,1.12848 ,1.64707 ,16.16101 
231 ,43.6229 ,1.13033 ,1.65733 ,16.26174 
232 ,43.8152 ,1.13211 ,1.62995 ,15.99311 
233 ,44.0233 ,1.13417 ,1.60942 ,15.79164 
234 ,44.1995 ,1.13605 ,1.61284 ,15.82522 
235 ,44.4077 ,1.13797 ,1.60258 ,15.72449 
236 ,44.5997 ,1.13994 ,1.57520 ,15.45586 
237 ,44.7594 ,1.14175 ,1.57520 ,15.45586 
238 ,44.9358 ,1.14337 ,1.56493 ,15.35513 
239 ,45.1119 ,1.14519 ,1.52729 ,14.98577 
240 ,45.2880 ,1.14692 ,1.52387 ,14.95219 
241 ,45.4960 ,1.14890 ,1.51360 ,14.85145 
242 ,45.6723 ,1.15074 ,1.50676 ,14.78430 
243 ,45.8322 ,1.15246 ,1.48280 ,14.54925 
244 ,46.0083 ,1.15409 ,1.46911 ,14.41493 
245 ,46.2002 ,1.15605 ,1.47596 ,14.48209 
246 ,46.3924 ,1.15788 ,1.46569 ,14.38136 
247 ,46.5685 ,1.15972 ,1.43147 ,14.04557 
248 ,46.7764 ,1.16170 ,1.43489 ,14.07915 
249 ,46.9527 ,1.16351 ,1.42120 ,13.94484 
250 ,47.1444 ,1.16542 ,1.38698 ,13.60906 
251 ,47.3368 ,1.16731 ,1.40067 ,13.74337 
252 ,47.5129 ,1.16918 ,1.35276 ,13.27327 
253 ,47.6889 ,1.17087 ,1.34591 ,13.20612 
254 ,47.8810 ,1.17269 ,1.34249 ,13.17254 
255 ,48.0733 ,1.17470 ,1.33223 ,13.07180 
256 ,48.2813 ,1.17676 ,1.32196 ,12.97107 
257 ,48.4572 ,1.17861 ,1.31169 ,12.87033 
258 ,48.6331 ,1.18033 ,1.30143 ,12.76960 
259 ,48.8250 ,1.18224 ,1.27747 ,12.53455 
260 ,49.0011 ,1.18399 ,1.26036 ,12.36666 
261 ,49.1776 ,1.18581 ,1.26720 ,12.43381 
262 ,49.3699 ,1.18767 ,1.24667 ,12.23235 
263 ,49.5457 ,1.18945 ,1.21929 ,11.96372 
264 ,49.7378 ,1.19130 ,1.22272 ,11.99730 
265 ,49.9298 ,1.19323 ,1.19192 ,11.69509 
266 ,50.1055 ,1.19504 ,1.17823 ,11.56078 
267 ,50.2819 ,1.19684 ,1.17138 ,11.49362 
268 ,50.4582 ,1.19856 ,1.17138 ,11.49362 
269 ,50.6662 ,1.20050 ,1.15085 ,11.29215 
270 ,50.8582 ,1.20261 ,1.14401 ,11.22500 
271 ,51.0340 ,1.20436 ,1.12005 ,10.98995 
272 ,51.2103 ,1.20616 ,1.12005 ,10.98995 
273 ,51.3863 ,1.20788 ,1.09267 ,10.72132 
274 ,51.5786 ,1.20977 ,1.09610 ,10.75490 
275 ,51.7703 ,1.21164 ,1.07556 ,10.55343 
276 ,51.9466 ,1.21340 ,1.05503 ,10.35196 
277 ,52.1388 ,1.21534 ,1.04476 ,10.25123 
278 ,52.3148 ,1.21718 ,1.04134 ,10.21765 
279 ,52.5066 ,1.21906 ,1.02423 ,10.04976 
280 ,52.6830 ,1.22085 ,1.02765 ,10.08333 
281 ,52.8907 ,1.22282 ,1.00028 ,9.81471 
282 ,53.0672 ,1.22464 ,0.98317 ,9.64682 
283 ,53.2591 ,1.22655 ,0.97974 ,9.61324 
284 ,53.4353 ,1.22831 ,0.96948 ,9.51250 
285 ,53.6113 ,1.23025 ,0.94552 ,9.27745 
286 ,53.7872 ,1.23182 ,0.92841 ,9.10956 
287 ,53.9796 ,1.23373 ,0.93868 ,9.21030 
288 ,54.1717 ,1.23570 ,0.90788 ,8.90809 
289 ,54.3476 ,1.23748 ,0.89419 ,8.77378 
290 ,54.5237 ,1.23920 ,0.88050 ,8.63947 
291 ,54.7158 ,1.24115 ,0.88392 ,8.67305 
292 ,54.9240 ,1.24319 ,0.88050 ,8.63947 
293 ,55.1000 ,1.24500 ,0.85997 ,8.43800 
294 ,55.2921 ,1.24684 ,0.84286 ,8.27011 
295 ,55.4837 ,1.24875 ,0.83601 ,8.20295 
296 ,55.6604 ,1.25060 ,0.82575 ,8.10221 
297 ,55.8202 ,1.25232 ,0.81206 ,7.96790 
298 ,55.9963 ,1.25391 ,0.79152 ,7.76643 
299 ,56.1885 ,1.25577 ,0.78126 ,7.66570 
300 ,56.3642 ,1.25768 ,0.77784 ,7.63212 
301 ,56.5403 ,1.25936 ,0.77099 ,7.56496 
302 ,56.7166 ,1.26114 ,0.74361 ,7.29633 
303 ,56.9408 ,1.26321 ,0.74361 ,7.29633 
304 ,57.1327 ,1.26523 ,0.71966 ,7.06129 
305 ,57.3247 ,1.26718 ,0.71624 ,7.02771 
306 ,57.5168 ,1.26905 ,0.69913 ,6.85982 
307 ,57.7090 ,1.27102 ,0.68886 ,6.75908 
308 ,57.9010 ,1.27301 ,0.67859 ,6.65835 
309 ,58.0934 ,1.27487 ,0.66148 ,6.49046 
310 ,58.2692 ,1.27670 ,0.63753 ,6.25541 
311 ,58.4451 ,1.27841 ,0.63753 ,6.25541 
312 ,58.6375 ,1.28029 ,0.62042 ,6.08752 
313 ,58.8136 ,1.28215 ,0.62384 ,6.12109 
314 ,58.9897 ,1.28384 ,0.61357 ,6.02036 
315 ,59.1815 ,1.28578 ,0.60673 ,5.95320 
316 ,59.3739 ,1.28769 ,0.57935 ,5.68458 
317 ,59.5813 ,1.28972 ,0.56224 ,5.51668 
318 ,59.7736 ,1.29167 ,0.54855 ,5.38237 
319 ,59.9500 ,1.29348 ,0.52802 ,5.18090 
320 ,60.1581 ,1.29549 ,0.53144 ,5.21448 
321 ,60.3503 ,1.29739 ,0.53828 ,5.28164 
322 ,60.5421 ,1.29941 ,0.51775 ,5.08017 
323 ,60.7340 ,1.30119 ,0.50064 ,4.91228 
324 ,60.9102 ,1.30306 ,0.47668 ,4.67723 
325 ,61.0864 ,1.30482 ,0.48695 ,4.77796 
326 ,61.2625 ,1.30658 ,0.49037 ,4.81154 
327 ,61.4387 ,1.30838 ,0.46984 ,4.61007 
328 ,61.6307 ,1.31024 ,0.44931 ,4.40860 
329 ,61.8227 ,1.31219 ,0.44246 ,4.34144 
330 ,61.9987 ,1.31390 ,0.42535 ,4.17355 
331 ,62.1749 ,1.31571 ,0.40482 ,3.97208 
332 ,62.3669 ,1.31756 ,0.41851 ,4.10640 
333 ,62.5749 ,1.31957 ,0.39455 ,3.87135 
334 ,62.7512 ,1.32149 ,0.37060 ,3.63630 
335 ,62.9432 ,1.32340 ,0.38771 ,3.80419 
336 ,63.1350 ,1.32525 ,0.34664 ,3.40125 
337 ,63.3434 ,1.32732 ,0.36375 ,3.56914 
338 ,63.5353 ,1.32925 ,0.32953 ,3.23336 
339 ,63.7275 ,1.33114 ,0.35349 ,3.46841 
340 ,63.9196 ,1.33307 ,0.31926 ,3.13263 
341 ,64.1437 ,1.33530 ,0.30215 ,2.96473 
342 ,64.3198 ,1.33713 ,0.29189 ,2.86400 
343 ,64.5118 ,1.33900 ,0.29873 ,2.93116 
344 ,64.7037 ,1.34098 ,0.28504 ,2.79684 
345 ,64.8960 ,1.34283 ,0.25082 ,2.46106 
346 ,65.0881 ,1.34473 ,0.25767 ,2.52822 
347 ,65.2642 ,1.34656 ,0.24740 ,2.42748 
348 ,65.4562 ,1.34849 ,0.21660 ,2.12528 
349 ,65.6483 ,1.35037 ,0.23371 ,2.29317 
350 ,65.8244 ,1.35216 ,0.21660 ,2.12528 
351 ,66.0001 ,1.35395 ,0.19264 ,1.89023 
352 ,66.1765 ,1.35563 ,0.17896 ,1.75592 
353 ,66.3527 ,1.35745 ,0.17211 ,1.68876 
354 ,66.5607 ,1.35952 ,0.17553 ,1.72234 
355 ,66.7367 ,1.36128 ,0.15158 ,1.48729 
356 ,66.9289 ,1.36318 ,0.15500 ,1.52087 
357 ,67.1049 ,1.36503 ,0.13447 ,1.31940 
358 ,67.2966 ,1.36685 ,0.11393 ,1.11793 
359 ,67.4728 ,1.36867 ,0.10709 ,1.05077 
360 ,67.6492 ,1.37038 ,0.11393 ,1.11793 
361 ,67.8413 ,1.37227 ,0.09682 ,0.95004 
362 ,68.0333 ,1.37429 ,0.08656 ,0.84930 
363 ,68.2251 ,1.37611 ,0.07287 ,0.71499 
364 ,68.4010 ,1.37796 ,0.06945 ,0.68141 
365 ,68.5770 ,1.37971 ,0.05234 ,0.51352 
366 ,68.7854 ,1.38172 ,0.03865 ,0.37920 
367 ,68.9937 ,1.38383 ,0.04549 ,0.44636 
368 ,69.1696 ,1.38564 ,0.03180 ,0.31205 
369 ,69.3617 ,1.38751 ,0.00443 ,0.04342 
370 ,69.5379 ,1.38933 ,-0.00242 ,-0.02373 
371 ,69.7296 ,1.39124 ,0.00100 ,0.00984 
372 ,69.9062 ,1.39300 ,0.01127 ,0.11058 
373 ,70.0982 ,1.39490 ,-0.03664 ,-0.35952 
374 ,70.2745 ,1.39663 ,-0.04348 ,-0.42667 
375 ,70.4662 ,1.39850 ,-0.04348 ,-0.42667 
376 ,70.6421 ,1.40033 ,-0.05033 ,-0.49383 
377 ,70.8345 ,1.40224 ,-0.07428 ,-0.72888 
378 ,71.0262 ,1.40408 ,-0.07428 ,-0.72888 
379 ,71.2186 ,1.40603 ,-0.09140 ,-0.89677 
380 ,71.3944 ,1.40787 ,-0.09824 ,-0.96393 
381 ,71.5704 ,1.40973 ,-0.09482 ,-0.93035 
382 ,71.7628 ,1.41150 ,-0.12219 ,-1.19898 
383 ,71.9549 ,1.41345 ,-0.13246 ,-1.29971 
384 ,72.1310 ,1.41524 ,-0.13931 ,-1.36687 
385 ,72.3232 ,1.41718 ,-0.14615 ,-1.43402 
386 ,72.5310 ,1.41919 ,-0.15299 ,-1.50118 
387 ,72.6909 ,1.42091 ,-0.14957 ,-1.46760 
388 ,72.8672 ,1.42260 ,-0.15642 ,-1.53476 
389 ,73.0435 ,1.42434 ,-0.19064 ,-1.87054 
390 ,73.2353 ,1.42617 ,-0.20090 ,-1.97128 
391 ,73.4437 ,1.42827 ,-0.21459 ,-2.10559 
392 ,73.6518 ,1.43040 ,-0.19748 ,-1.93770 
393 ,73.8436 ,1.43228 ,-0.21802 ,-2.13917 
394 ,74.0359 ,1.43421 ,-0.23855 ,-2.34064 
395 ,74.2279 ,1.43610 ,-0.23855 ,-2.34064 
396 ,74.4200 ,1.43813 ,-0.25566 ,-2.50853 
397 ,74.6116 ,1.44001 ,-0.24539 ,-2.40779 
398 ,74.7878 ,1.44176 ,-0.25224 ,-2.47495 
399 ,74.9798 ,1.44371 ,-0.28646 ,-2.81073 
400 ,75.1720 ,1.44553 ,-0.26935 ,-2.64284 
401 ,75.3478 ,1.44743 ,-0.29330 ,-2.87789 
402 ,75.5400 ,1.44923 ,-0.31384 ,-3.07936 
403 ,75.7324 ,1.45117 ,-0.31726 ,-3.11294 
404 ,75.9402 ,1.45323 ,-0.32068 ,-3.14652 
405 ,76.1325 ,1.45515 ,-0.33095 ,-3.24725 
406 ,76.3247 ,1.45705 ,-0.32410 ,-3.18010 
407 ,76.5329 ,1.45919 ,-0.33779 ,-3.31441 
408 ,76.7250 ,1.46114 ,-0.35490 ,-3.48230 
409 ,76.9169 ,1.46309 ,-0.35148 ,-3.44872 
410 ,77.0931 ,1.46477 ,-0.37886 ,-3.71735 
411 ,77.2693 ,1.46662 ,-0.37886 ,-3.71735 
412 ,77.4451 ,1.46831 ,-0.39255 ,-3.85166 
413 ,77.6213 ,1.47012 ,-0.41650 ,-4.08671 
414 ,77.7974 ,1.47190 ,-0.42335 ,-4.15387 
415 ,78.0215 ,1.47398 ,-0.43361 ,-4.25460 
416 ,78.2134 ,1.47595 ,-0.43361 ,-4.25460 
417 ,78.3896 ,1.47789 ,-0.45757 ,-4.48965 
418 ,78.5651 ,1.47951 ,-0.46099 ,-4.52323 
419 ,78.7575 ,1.48145 ,-0.47126 ,-4.62396 
420 ,78.9498 ,1.48338 ,-0.46099 ,-4.52323 
421 ,79.1257 ,1.48512 ,-0.47468 ,-4.65754 
422 ,79.3178 ,1.48698 ,-0.48152 ,-4.72470 
423 ,79.5098 ,1.48895 ,-0.50206 ,-4.92617 
424 ,79.6860 ,1.49069 ,-0.50548 ,-4.95975 
425 ,79.8621 ,1.49254 ,-0.52943 ,-5.19479 
426 ,80.0541 ,1.49437 ,-0.51574 ,-5.06048 
427 ,80.2460 ,1.49630 ,-0.52259 ,-5.12764 
428 ,80.4383 ,1.49822 ,-0.53285 ,-5.22837 
429 ,80.6305 ,1.50023 ,-0.55339 ,-5.42984 
430 ,80.8065 ,1.50189 ,-0.55681 ,-5.46342 
431 ,80.9827 ,1.50370 ,-0.57050 ,-5.59773 
432 ,81.1747 ,1.50558 ,-0.57392 ,-5.63131 
433 ,81.3504 ,1.50738 ,-0.58761 ,-5.76562 
434 ,81.5429 ,1.50923 ,-0.61156 ,-6.00067 
435 ,81.7189 ,1.51112 ,-0.60814 ,-5.96709 
436 ,81.8950 ,1.51288 ,-0.60472 ,-5.93352 
437 ,82.0871 ,1.51468 ,-0.62868 ,-6.16856 
438 ,82.2632 ,1.51653 ,-0.65605 ,-6.43719 
439 ,82.4389 ,1.51825 ,-0.64236 ,-6.30288 
440 ,82.6153 ,1.52007 ,-0.63552 ,-6.23572 
441 ,82.8074 ,1.52194 ,-0.65605 ,-6.43719 
442 ,82.9993 ,1.52386 ,-0.67316 ,-6.60508 
443 ,83.1756 ,1.52558 ,-0.66974 ,-6.57150 
444 ,83.3676 ,1.52746 ,-0.66632 ,-6.53793 
445 ,83.5598 ,1.52950 ,-0.69370 ,-6.80655 
446 ,83.7358 ,1.53119 ,-0.69712 ,-6.84013 
447 ,83.9280 ,1.53306 ,-0.70739 ,-6.94086 
448 ,84.1200 ,1.53505 ,-0.73476 ,-7.20949 
449 ,84.3121 ,1.53698 ,-0.72107 ,-7.07518 
450 ,84.4882 ,1.53879 ,-0.73818 ,-7.24307 
451 ,84.6643 ,1.54055 ,-0.74503 ,-7.31023 
452 ,84.8564 ,1.54241 ,-0.73818 ,-7.24307 
453 ,85.0485 ,1.54427 ,-0.76556 ,-7.51170 
454 ,85.2406 ,1.54623 ,-0.77241 ,-7.57885 
455 ,85.4486 ,1.54827 ,-0.77583 ,-7.61243 
456 ,85.6402 ,1.55030 ,-0.78267 ,-7.67959 
457 ,85.8168 ,1.55206 ,-0.78610 ,-7.71317 
458 ,86.0085 ,1.55393 ,-0.81347 ,-7.98179 
459 ,86.1847 ,1.55568 ,-0.82374 ,-8.08253 
460 ,86.3610 ,1.55746 ,-0.83743 ,-8.21684 
461 ,86.5531 ,1.55941 ,-0.81347 ,-7.98179 
462 ,86.7447 ,1.56129 ,-0.84085 ,-8.25042 
463 ,86.9372 ,1.56313 ,-0.85112 ,-8.35115 
