Data stamp = , 22-04-2022 19:07:16 862

Calibration Values: 
Slope = , 26.54 , g/V 
Offset Voltage at no contact = , -0.501760 , V 

No , Time , Stage Position ,   Mass , Force 
   ,  (s) ,      (mm)      ,   (g)  , (mN)  

1 ,0.0000 ,0.69936 ,5.38065 ,52.79493 
2 ,0.2205 ,0.69947 ,5.37381 ,52.72778 
3 ,0.5410 ,0.70030 ,5.38065 ,52.79493 
4 ,0.7489 ,0.70186 ,5.39092 ,52.89567 
5 ,0.9410 ,0.70353 ,5.35327 ,52.52631 
6 ,1.1331 ,0.70537 ,5.37723 ,52.76135 
7 ,1.3093 ,0.70715 ,5.39092 ,52.89567 
8 ,1.5014 ,0.70900 ,5.38065 ,52.79493 
9 ,1.6775 ,0.71089 ,5.36012 ,52.59346 
10 ,1.8696 ,0.71280 ,5.36012 ,52.59346 
11 ,2.0617 ,0.71471 ,5.33274 ,52.32484 
12 ,2.2377 ,0.71649 ,5.30194 ,52.02263 
13 ,2.4136 ,0.71828 ,5.30878 ,52.08979 
14 ,2.5898 ,0.72003 ,5.29510 ,51.95548 
15 ,2.7656 ,0.72172 ,5.28825 ,51.88832 
16 ,2.9901 ,0.72384 ,5.25061 ,51.51896 
17 ,3.1822 ,0.72594 ,5.22665 ,51.28391 
18 ,3.3741 ,0.72779 ,5.21981 ,51.21675 
19 ,3.5504 ,0.72958 ,5.21639 ,51.18317 
20 ,3.7584 ,0.73163 ,5.17532 ,50.78023 
21 ,3.9505 ,0.73354 ,5.16505 ,50.67950 
22 ,4.1426 ,0.73550 ,5.12741 ,50.31014 
23 ,4.3345 ,0.73744 ,5.11714 ,50.20940 
24 ,4.5107 ,0.73921 ,5.10688 ,50.10867 
25 ,4.6868 ,0.74101 ,5.10003 ,50.04151 
26 ,4.8948 ,0.74295 ,5.06239 ,49.67215 
27 ,5.0869 ,0.74496 ,5.05554 ,49.60499 
28 ,5.2788 ,0.74682 ,5.02474 ,49.30279 
29 ,5.4711 ,0.74879 ,5.01106 ,49.16848 
30 ,5.6472 ,0.75058 ,4.99737 ,49.03416 
31 ,5.8230 ,0.75236 ,4.96999 ,48.76554 
32 ,5.9990 ,0.75405 ,4.94603 ,48.53049 
33 ,6.1911 ,0.75598 ,4.94603 ,48.53049 
34 ,6.3991 ,0.75803 ,4.90155 ,48.09397 
35 ,6.5750 ,0.75981 ,4.89128 ,47.99324 
36 ,6.7516 ,0.76160 ,4.88786 ,47.95966 
37 ,6.9435 ,0.76353 ,4.86390 ,47.72461 
38 ,7.1353 ,0.76548 ,4.84337 ,47.52314 
39 ,7.3117 ,0.76720 ,4.82968 ,47.38883 
40 ,7.5037 ,0.76912 ,4.80915 ,47.18736 
41 ,7.6799 ,0.77089 ,4.78519 ,46.95231 
42 ,7.8719 ,0.77278 ,4.76124 ,46.71726 
43 ,8.0481 ,0.77453 ,4.75782 ,46.68368 
44 ,8.2077 ,0.77625 ,4.73386 ,46.44863 
45 ,8.3841 ,0.77790 ,4.71333 ,46.24716 
46 ,8.5600 ,0.77966 ,4.68253 ,45.94496 
47 ,8.7364 ,0.78147 ,4.68253 ,45.94496 
48 ,8.9285 ,0.78338 ,4.67568 ,45.87780 
49 ,9.1365 ,0.78543 ,4.64146 ,45.54202 
50 ,9.3125 ,0.78715 ,4.62093 ,45.34055 
51 ,9.4886 ,0.78893 ,4.61408 ,45.27339 
52 ,9.6646 ,0.79074 ,4.60382 ,45.17266 
53 ,9.8569 ,0.79258 ,4.56275 ,44.76972 
54 ,10.0328 ,0.79438 ,4.55249 ,44.66898 
55 ,10.2248 ,0.79636 ,4.54564 ,44.60183 
56 ,10.4008 ,0.79806 ,4.52169 ,44.36678 
57 ,10.5771 ,0.79979 ,4.50115 ,44.16531 
58 ,10.7851 ,0.80189 ,4.49089 ,44.06457 
59 ,10.9612 ,0.80368 ,4.46693 ,43.82953 
60 ,11.1374 ,0.80543 ,4.43613 ,43.52732 
61 ,11.3290 ,0.80730 ,4.44640 ,43.62806 
62 ,11.5053 ,0.80915 ,4.42586 ,43.42659 
63 ,11.6976 ,0.81103 ,4.39507 ,43.12438 
64 ,11.8736 ,0.81279 ,4.37795 ,42.95649 
65 ,12.0656 ,0.81463 ,4.37453 ,42.92291 
66 ,12.2418 ,0.81645 ,4.35400 ,42.72144 
67 ,12.4177 ,0.81824 ,4.32320 ,42.41924 
68 ,12.6100 ,0.82012 ,4.30609 ,42.25135 
69 ,12.8018 ,0.82219 ,4.28213 ,42.01630 
70 ,12.9781 ,0.82385 ,4.26845 ,41.88198 
71 ,13.1702 ,0.82573 ,4.25818 ,41.78125 
72 ,13.3622 ,0.82764 ,4.22396 ,41.44547 
73 ,13.5540 ,0.82951 ,4.22738 ,41.47905 
74 ,13.7304 ,0.83136 ,4.18974 ,41.10968 
75 ,13.9223 ,0.83324 ,4.19316 ,41.14326 
76 ,14.0985 ,0.83503 ,4.17947 ,41.00895 
77 ,14.2745 ,0.83678 ,4.15209 ,40.74032 
78 ,14.4510 ,0.83855 ,4.12471 ,40.47170 
79 ,14.6424 ,0.84047 ,4.13156 ,40.53885 
80 ,14.8182 ,0.84223 ,4.10760 ,40.30380 
81 ,15.0108 ,0.84417 ,4.07338 ,39.96802 
82 ,15.2028 ,0.84602 ,4.08023 ,40.03518 
83 ,15.3790 ,0.84783 ,4.05627 ,39.80013 
84 ,15.5551 ,0.84965 ,4.03916 ,39.63224 
85 ,15.7307 ,0.85133 ,4.01863 ,39.43077 
86 ,15.9071 ,0.85312 ,3.99467 ,39.19572 
87 ,16.0833 ,0.85483 ,3.99125 ,39.16214 
88 ,16.2750 ,0.85674 ,3.96387 ,38.89352 
89 ,16.4516 ,0.85853 ,3.94676 ,38.72562 
90 ,16.6436 ,0.86038 ,3.94334 ,38.69205 
91 ,16.8516 ,0.86249 ,3.90227 ,38.28911 
92 ,17.0277 ,0.86435 ,3.88516 ,38.12122 
93 ,17.2034 ,0.86602 ,3.87147 ,37.98690 
94 ,17.3958 ,0.86790 ,3.88174 ,38.08764 
95 ,17.5877 ,0.86991 ,3.83041 ,37.58396 
96 ,17.7638 ,0.87165 ,3.83041 ,37.58396 
97 ,17.9563 ,0.87353 ,3.81330 ,37.41607 
98 ,18.1638 ,0.87560 ,3.80645 ,37.34891 
99 ,18.3403 ,0.87745 ,3.77223 ,37.01313 
100 ,18.5482 ,0.87931 ,3.74485 ,36.74450 
101 ,18.7244 ,0.88127 ,3.73459 ,36.64377 
102 ,18.9002 ,0.88310 ,3.72090 ,36.50946 
103 ,19.0767 ,0.88478 ,3.71748 ,36.47588 
104 ,19.2687 ,0.88663 ,3.67299 ,36.03936 
105 ,19.4607 ,0.88857 ,3.67299 ,36.03936 
106 ,19.6207 ,0.89035 ,3.66614 ,35.97220 
107 ,19.7966 ,0.89202 ,3.64903 ,35.80431 
108 ,19.9726 ,0.89373 ,3.61481 ,35.46853 
109 ,20.1492 ,0.89554 ,3.60112 ,35.33422 
110 ,20.3572 ,0.89748 ,3.59428 ,35.26706 
111 ,20.5652 ,0.89959 ,3.57032 ,35.03201 
112 ,20.7413 ,0.90143 ,3.55663 ,34.89770 
113 ,20.9171 ,0.90317 ,3.55321 ,34.86412 
114 ,21.1255 ,0.90527 ,3.51899 ,34.52834 
115 ,21.3333 ,0.90727 ,3.50188 ,34.36045 
116 ,21.5096 ,0.90915 ,3.47450 ,34.09182 
117 ,21.6856 ,0.91087 ,3.46766 ,34.02466 
118 ,21.8936 ,0.91290 ,3.45397 ,33.89035 
119 ,22.0697 ,0.91472 ,3.42659 ,33.62172 
120 ,22.2298 ,0.91642 ,3.40948 ,33.45383 
121 ,22.4058 ,0.91804 ,3.38553 ,33.21878 
122 ,22.5981 ,0.91988 ,3.38210 ,33.18520 
123 ,22.7740 ,0.92179 ,3.37868 ,33.15163 
124 ,22.9662 ,0.92362 ,3.34104 ,32.78227 
125 ,23.1581 ,0.92556 ,3.34788 ,32.84942 
126 ,23.3503 ,0.92749 ,3.31708 ,32.54722 
127 ,23.5580 ,0.92948 ,3.31708 ,32.54722 
128 ,23.7345 ,0.93132 ,3.28971 ,32.27859 
129 ,23.9105 ,0.93308 ,3.27259 ,32.11070 
130 ,24.0867 ,0.93485 ,3.25206 ,31.90923 
131 ,24.2624 ,0.93663 ,3.23837 ,31.77492 
132 ,24.4550 ,0.93852 ,3.24864 ,31.87565 
133 ,24.6629 ,0.94062 ,3.21100 ,31.50629 
134 ,24.8546 ,0.94250 ,3.20073 ,31.40555 
135 ,25.0308 ,0.94431 ,3.18020 ,31.20409 
136 ,25.2391 ,0.94629 ,3.14940 ,30.90188 
137 ,25.4313 ,0.94826 ,3.14597 ,30.86830 
138 ,25.6389 ,0.95037 ,3.13913 ,30.80115 
139 ,25.8154 ,0.95212 ,3.11175 ,30.53252 
140 ,26.0075 ,0.95398 ,3.10149 ,30.43178 
141 ,26.1837 ,0.95584 ,3.06042 ,30.02884 
142 ,26.3757 ,0.95780 ,3.07411 ,30.16316 
143 ,26.5678 ,0.95958 ,3.06042 ,30.02884 
144 ,26.7918 ,0.96177 ,3.02620 ,29.69306 
145 ,26.9839 ,0.96375 ,2.99882 ,29.42444 
146 ,27.1919 ,0.96583 ,3.00567 ,29.49159 
147 ,27.3682 ,0.96766 ,2.97829 ,29.22297 
148 ,27.5439 ,0.96944 ,2.95776 ,29.02150 
149 ,27.7203 ,0.97121 ,2.94064 ,28.85360 
150 ,27.8963 ,0.97290 ,2.95091 ,28.95434 
151 ,28.0724 ,0.97468 ,2.94064 ,28.85360 
152 ,28.2485 ,0.97649 ,2.90300 ,28.48424 
153 ,28.4246 ,0.97819 ,2.88247 ,28.28277 
154 ,28.6001 ,0.98010 ,2.88247 ,28.28277 
155 ,28.7768 ,0.98177 ,2.86193 ,28.08130 
156 ,28.9686 ,0.98365 ,2.85509 ,28.01415 
157 ,29.1609 ,0.98556 ,2.83456 ,27.81268 
158 ,29.3529 ,0.98748 ,2.83798 ,27.84625 
159 ,29.5611 ,0.98955 ,2.79691 ,27.44332 
160 ,29.7530 ,0.99144 ,2.79007 ,27.37616 
161 ,29.9292 ,0.99331 ,2.78322 ,27.30900 
162 ,30.1209 ,0.99516 ,2.74558 ,26.93964 
163 ,30.2974 ,0.99698 ,2.73531 ,26.83891 
164 ,30.4892 ,0.99882 ,2.74216 ,26.90606 
165 ,30.6815 ,1.00074 ,2.70452 ,26.53670 
166 ,30.8576 ,1.00259 ,2.69083 ,26.40239 
167 ,31.0496 ,1.00447 ,2.69083 ,26.40239 
168 ,31.2257 ,1.00621 ,2.67372 ,26.23450 
169 ,31.4017 ,1.00797 ,2.64634 ,25.96587 
170 ,31.5779 ,1.00981 ,2.63607 ,25.86514 
171 ,31.7697 ,1.01170 ,2.62238 ,25.73082 
172 ,31.9621 ,1.01357 ,2.59843 ,25.49577 
173 ,32.1701 ,1.01563 ,2.59158 ,25.42862 
174 ,32.3782 ,1.01759 ,2.55736 ,25.09283 
175 ,32.5702 ,1.01962 ,2.56078 ,25.12641 
176 ,32.7464 ,1.02141 ,2.54025 ,24.92494 
177 ,32.9383 ,1.02332 ,2.52656 ,24.79063 
178 ,33.1144 ,1.02508 ,2.50945 ,24.62274 
179 ,33.3066 ,1.02695 ,2.50261 ,24.55558 
180 ,33.4827 ,1.02882 ,2.48550 ,24.38769 
181 ,33.6587 ,1.03061 ,2.46154 ,24.15264 
182 ,33.8508 ,1.03249 ,2.45470 ,24.08549 
183 ,34.0427 ,1.03444 ,2.43074 ,23.85044 
184 ,34.2349 ,1.03623 ,2.41363 ,23.68255 
185 ,34.4429 ,1.03825 ,2.39652 ,23.51465 
186 ,34.6350 ,1.04021 ,2.38968 ,23.44750 
187 ,34.8111 ,1.04205 ,2.37941 ,23.34676 
188 ,35.0028 ,1.04396 ,2.35203 ,23.07814 
189 ,35.1792 ,1.04580 ,2.34177 ,22.97740 
190 ,35.3871 ,1.04776 ,2.34177 ,22.97740 
191 ,35.5794 ,1.04964 ,2.30412 ,22.60804 
192 ,35.7715 ,1.05167 ,2.29728 ,22.54088 
193 ,35.9634 ,1.05352 ,2.27332 ,22.30584 
194 ,36.1557 ,1.05550 ,2.25621 ,22.13794 
195 ,36.3477 ,1.05744 ,2.25621 ,22.13794 
196 ,36.5238 ,1.05921 ,2.24594 ,22.03721 
197 ,36.7157 ,1.06103 ,2.22541 ,21.83574 
198 ,36.8919 ,1.06288 ,2.21515 ,21.73500 
199 ,37.0839 ,1.06480 ,2.20488 ,21.63427 
200 ,37.2600 ,1.06655 ,2.17750 ,21.36564 
201 ,37.4521 ,1.06846 ,2.18092 ,21.39922 
202 ,37.6438 ,1.07036 ,2.14670 ,21.06344 
203 ,37.8201 ,1.07211 ,2.14670 ,21.06344 
204 ,37.9960 ,1.07390 ,2.11248 ,20.72766 
205 ,38.1723 ,1.07569 ,2.10906 ,20.69408 
206 ,38.3639 ,1.07748 ,2.09537 ,20.55976 
207 ,38.5406 ,1.07936 ,2.08168 ,20.42545 
208 ,38.7326 ,1.08122 ,2.07141 ,20.32472 
209 ,38.9245 ,1.08310 ,2.05088 ,20.12325 
210 ,39.1163 ,1.08508 ,2.03035 ,19.92178 
211 ,39.2924 ,1.08693 ,2.03035 ,19.92178 
212 ,39.4843 ,1.08871 ,2.00297 ,19.65315 
213 ,39.6609 ,1.09056 ,1.99613 ,19.58599 
214 ,39.8691 ,1.09266 ,1.99270 ,19.55241 
215 ,40.0612 ,1.09458 ,1.96190 ,19.25021 
216 ,40.2529 ,1.09645 ,1.94479 ,19.08232 
217 ,40.4293 ,1.09822 ,1.94137 ,19.04874 
218 ,40.5893 ,1.09994 ,1.92768 ,18.91443 
219 ,40.7653 ,1.10159 ,1.91742 ,18.81369 
220 ,40.9578 ,1.10343 ,1.87977 ,18.44433 
221 ,41.1653 ,1.10556 ,1.87977 ,18.44433 
222 ,41.3574 ,1.10754 ,1.86951 ,18.34360 
223 ,41.5336 ,1.10924 ,1.84897 ,18.14213 
224 ,41.7098 ,1.11105 ,1.84213 ,18.07497 
225 ,41.9018 ,1.11299 ,1.83871 ,18.04139 
226 ,42.0937 ,1.11484 ,1.80106 ,17.67203 
227 ,42.2861 ,1.11669 ,1.81475 ,17.80634 
228 ,42.4778 ,1.11872 ,1.78053 ,17.47056 
229 ,42.6540 ,1.12045 ,1.76342 ,17.30267 
230 ,42.8619 ,1.12245 ,1.76000 ,17.26909 
231 ,43.0379 ,1.12427 ,1.74289 ,17.10120 
232 ,43.1980 ,1.12602 ,1.71893 ,16.86615 
233 ,43.3581 ,1.12765 ,1.70866 ,16.76542 
234 ,43.5344 ,1.12931 ,1.70866 ,16.76542 
235 ,43.7266 ,1.13125 ,1.69840 ,16.66468 
236 ,43.9187 ,1.13319 ,1.67102 ,16.39605 
237 ,44.0946 ,1.13487 ,1.65049 ,16.19458 
238 ,44.2707 ,1.13663 ,1.65391 ,16.22816 
239 ,44.4470 ,1.13841 ,1.64707 ,16.16101 
240 ,44.6386 ,1.14033 ,1.63680 ,16.06027 
241 ,44.8306 ,1.14214 ,1.60600 ,15.75807 
242 ,45.0391 ,1.14430 ,1.58889 ,15.59018 
243 ,45.2311 ,1.14622 ,1.58889 ,15.59018 
244 ,45.4073 ,1.14800 ,1.57178 ,15.42228 
245 ,45.5993 ,1.14991 ,1.56493 ,15.35513 
246 ,45.7914 ,1.15186 ,1.53413 ,15.05292 
247 ,45.9835 ,1.15371 ,1.54098 ,15.12008 
248 ,46.1914 ,1.15580 ,1.49649 ,14.68356 
249 ,46.3676 ,1.15758 ,1.49649 ,14.68356 
250 ,46.5917 ,1.15970 ,1.48280 ,14.54925 
251 ,46.7835 ,1.16176 ,1.47596 ,14.48209 
252 ,46.9599 ,1.16355 ,1.45885 ,14.31420 
253 ,47.1680 ,1.16551 ,1.45542 ,14.28062 
254 ,47.3600 ,1.16750 ,1.43489 ,14.07915 
255 ,47.5356 ,1.16928 ,1.41778 ,13.91126 
256 ,47.7277 ,1.17115 ,1.40409 ,13.77695 
257 ,47.9197 ,1.17308 ,1.39725 ,13.70979 
258 ,48.0959 ,1.17489 ,1.38356 ,13.57548 
259 ,48.2719 ,1.17660 ,1.35618 ,13.30685 
260 ,48.4480 ,1.17838 ,1.33907 ,13.13896 
261 ,48.6400 ,1.18026 ,1.34249 ,13.17254 
262 ,48.8001 ,1.18203 ,1.31854 ,12.93749 
263 ,49.0083 ,1.18380 ,1.30143 ,12.76960 
264 ,49.2007 ,1.18594 ,1.30827 ,12.83675 
265 ,49.4087 ,1.18795 ,1.27747 ,12.53455 
266 ,49.6008 ,1.18989 ,1.27747 ,12.53455 
267 ,49.7926 ,1.19179 ,1.25694 ,12.33308 
268 ,49.9852 ,1.19368 ,1.25009 ,12.26592 
269 ,50.1930 ,1.19581 ,1.20218 ,11.79583 
270 ,50.3853 ,1.19772 ,1.21929 ,11.96372 
271 ,50.5770 ,1.19960 ,1.19534 ,11.72867 
272 ,50.7531 ,1.20142 ,1.17481 ,11.52720 
273 ,50.9295 ,1.20321 ,1.15770 ,11.35931 
274 ,51.1377 ,1.20511 ,1.14401 ,11.22500 
275 ,51.3136 ,1.20706 ,1.14401 ,11.22500 
276 ,51.5057 ,1.20884 ,1.13032 ,11.09068 
277 ,51.6818 ,1.21070 ,1.13374 ,11.12426 
278 ,51.8738 ,1.21263 ,1.09610 ,10.75490 
279 ,52.0659 ,1.21449 ,1.10979 ,10.88921 
280 ,52.2577 ,1.21651 ,1.09267 ,10.72132 
281 ,52.4341 ,1.21821 ,1.07899 ,10.58701 
282 ,52.6423 ,1.22030 ,1.07556 ,10.55343 
283 ,52.8021 ,1.22203 ,1.04476 ,10.25123 
284 ,52.9785 ,1.22371 ,1.05161 ,10.31838 
285 ,53.1705 ,1.22560 ,1.00028 ,9.81471 
286 ,53.3622 ,1.22745 ,1.01739 ,9.98260 
287 ,53.5384 ,1.22930 ,1.00712 ,9.88186 
288 ,53.7305 ,1.23118 ,0.96605 ,9.47892 
289 ,53.8907 ,1.23292 ,0.96605 ,9.47892 
290 ,54.0829 ,1.23467 ,0.96605 ,9.47892 
291 ,54.2750 ,1.23663 ,0.94894 ,9.31103 
292 ,54.4666 ,1.23857 ,0.91814 ,9.00883 
293 ,54.6429 ,1.24035 ,0.91130 ,8.94167 
294 ,54.8351 ,1.24222 ,0.91130 ,8.94167 
295 ,55.0114 ,1.24397 ,0.89077 ,8.74020 
296 ,55.2194 ,1.24602 ,0.88392 ,8.67305 
297 ,55.4115 ,1.24793 ,0.85312 ,8.37084 
298 ,55.5871 ,1.24974 ,0.84628 ,8.30368 
299 ,55.7636 ,1.25150 ,0.84970 ,8.33726 
300 ,55.9556 ,1.25335 ,0.83943 ,8.23653 
301 ,56.1477 ,1.25539 ,0.80521 ,7.90074 
302 ,56.3557 ,1.25735 ,0.79495 ,7.80001 
303 ,56.5479 ,1.25936 ,0.77441 ,7.59854 
304 ,56.7397 ,1.26125 ,0.78810 ,7.73285 
305 ,56.9318 ,1.26323 ,0.75730 ,7.43065 
306 ,57.1081 ,1.26495 ,0.74704 ,7.32991 
307 ,57.3162 ,1.26698 ,0.74704 ,7.32991 
308 ,57.4922 ,1.26879 ,0.73335 ,7.19560 
309 ,57.6679 ,1.27055 ,0.71281 ,6.99413 
310 ,57.8603 ,1.27236 ,0.70939 ,6.96055 
311 ,58.0527 ,1.27443 ,0.68544 ,6.72550 
312 ,58.2286 ,1.27619 ,0.66833 ,6.55761 
313 ,58.4206 ,1.27800 ,0.68886 ,6.75908 
314 ,58.5966 ,1.27987 ,0.65464 ,6.42330 
315 ,58.7882 ,1.28179 ,0.63068 ,6.18825 
316 ,58.9647 ,1.28349 ,0.62384 ,6.12109 
317 ,59.1570 ,1.28535 ,0.62726 ,6.15467 
318 ,59.3329 ,1.28718 ,0.60330 ,5.91962 
319 ,59.5091 ,1.28899 ,0.59988 ,5.88605 
320 ,59.6851 ,1.29072 ,0.57935 ,5.68458 
321 ,59.8770 ,1.29262 ,0.58962 ,5.78531 
322 ,60.0691 ,1.29444 ,0.56566 ,5.55026 
323 ,60.2614 ,1.29639 ,0.55539 ,5.44953 
324 ,60.4531 ,1.29835 ,0.52802 ,5.18090 
325 ,60.6456 ,1.30023 ,0.52802 ,5.18090 
326 ,60.8534 ,1.30234 ,0.51433 ,5.04659 
327 ,61.0294 ,1.30418 ,0.50748 ,4.97943 
328 ,61.2218 ,1.30600 ,0.50406 ,4.94585 
329 ,61.4137 ,1.30792 ,0.47668 ,4.67723 
330 ,61.6059 ,1.30995 ,0.46300 ,4.54291 
331 ,61.7980 ,1.31183 ,0.46984 ,4.61007 
332 ,61.9737 ,1.31359 ,0.44588 ,4.37502 
333 ,62.1501 ,1.31540 ,0.42535 ,4.17355 
334 ,62.3583 ,1.31735 ,0.41851 ,4.10640 
335 ,62.5340 ,1.31922 ,0.41509 ,4.07282 
336 ,62.7264 ,1.32103 ,0.38086 ,3.73703 
337 ,62.9341 ,1.32315 ,0.37744 ,3.70346 
338 ,63.1265 ,1.32509 ,0.36718 ,3.60272 
339 ,63.3023 ,1.32692 ,0.36375 ,3.56914 
340 ,63.4945 ,1.32874 ,0.34664 ,3.40125 
341 ,63.6706 ,1.33060 ,0.33295 ,3.26694 
342 ,63.8469 ,1.33228 ,0.31926 ,3.13263 
343 ,64.0228 ,1.33407 ,0.30900 ,3.03189 
344 ,64.1986 ,1.33582 ,0.31242 ,3.06547 
345 ,64.3750 ,1.33763 ,0.30900 ,3.03189 
346 ,64.5511 ,1.33944 ,0.27135 ,2.66253 
347 ,64.7272 ,1.34113 ,0.26793 ,2.62895 
348 ,64.9032 ,1.34290 ,0.26451 ,2.59537 
349 ,65.0952 ,1.34476 ,0.26109 ,2.56179 
350 ,65.2713 ,1.34655 ,0.24740 ,2.42748 
351 ,65.4474 ,1.34833 ,0.20976 ,2.05812 
352 ,65.6395 ,1.35022 ,0.23029 ,2.25959 
353 ,65.8156 ,1.35196 ,0.22002 ,2.15885 
354 ,66.0397 ,1.35417 ,0.19949 ,1.95738 
355 ,66.2476 ,1.35626 ,0.17211 ,1.68876 
356 ,66.4399 ,1.35821 ,0.18580 ,1.82307 
357 ,66.6320 ,1.36016 ,0.16869 ,1.65518 
358 ,66.8236 ,1.36209 ,0.14816 ,1.45371 
359 ,67.0000 ,1.36385 ,0.14816 ,1.45371 
360 ,67.1923 ,1.36574 ,0.13447 ,1.31940 
361 ,67.3679 ,1.36765 ,0.10367 ,1.01719 
362 ,67.5601 ,1.36934 ,0.11051 ,1.08435 
363 ,67.7684 ,1.37147 ,0.09340 ,0.91646 
364 ,67.9440 ,1.37324 ,0.08656 ,0.84930 
365 ,68.1206 ,1.37504 ,0.08314 ,0.81572 
366 ,68.3125 ,1.37697 ,0.08656 ,0.84930 
367 ,68.5207 ,1.37889 ,0.06602 ,0.64783 
368 ,68.6966 ,1.38076 ,0.06945 ,0.68141 
369 ,68.8724 ,1.38256 ,0.04891 ,0.47994 
370 ,69.0649 ,1.38447 ,0.03522 ,0.34563 
371 ,69.2571 ,1.38646 ,0.02838 ,0.27847 
372 ,69.4493 ,1.38834 ,0.01469 ,0.14416 
373 ,69.6251 ,1.39010 ,-0.00584 ,-0.05731 
374 ,69.8010 ,1.39192 ,0.00443 ,0.04342 
375 ,69.9769 ,1.39361 ,-0.00926 ,-0.09089 
376 ,70.1533 ,1.39533 ,-0.01269 ,-0.12447 
377 ,70.3294 ,1.39714 ,-0.02980 ,-0.29236 
378 ,70.5054 ,1.39883 ,-0.06060 ,-0.59457 
379 ,70.6977 ,1.40081 ,-0.05033 ,-0.49383 
380 ,70.9056 ,1.40281 ,-0.07086 ,-0.69530 
381 ,71.0978 ,1.40469 ,-0.07086 ,-0.69530 
382 ,71.2736 ,1.40657 ,-0.07771 ,-0.76246 
383 ,71.4500 ,1.40844 ,-0.09824 ,-0.96393 
384 ,71.6259 ,1.41011 ,-0.11193 ,-1.09824 
385 ,71.8498 ,1.41220 ,-0.10851 ,-1.06466 
386 ,72.0739 ,1.41453 ,-0.11535 ,-1.13182 
387 ,72.2662 ,1.41648 ,-0.14273 ,-1.40045 
388 ,72.4579 ,1.41830 ,-0.15642 ,-1.53476 
389 ,72.6340 ,1.42014 ,-0.13931 ,-1.36687 
390 ,72.8264 ,1.42208 ,-0.17011 ,-1.66907 
391 ,73.0024 ,1.42381 ,-0.19064 ,-1.87054 
392 ,73.1785 ,1.42561 ,-0.19406 ,-1.90412 
393 ,73.3706 ,1.42749 ,-0.18379 ,-1.80338 
394 ,73.5628 ,1.42945 ,-0.21459 ,-2.10559 
395 ,73.7548 ,1.43133 ,-0.20090 ,-1.97128 
396 ,73.9308 ,1.43311 ,-0.21802 ,-2.13917 
397 ,74.1066 ,1.43486 ,-0.22828 ,-2.23990 
398 ,74.2831 ,1.43668 ,-0.23855 ,-2.34064 
399 ,74.4587 ,1.43839 ,-0.24197 ,-2.37422 
400 ,74.6351 ,1.44014 ,-0.24539 ,-2.40779 
401 ,74.8272 ,1.44211 ,-0.26935 ,-2.64284 
402 ,75.0032 ,1.44385 ,-0.28304 ,-2.77716 
403 ,75.1951 ,1.44574 ,-0.27619 ,-2.71000 
404 ,75.3715 ,1.44754 ,-0.28646 ,-2.81073 
405 ,75.5636 ,1.44944 ,-0.30699 ,-3.01220 
406 ,75.7557 ,1.45132 ,-0.30357 ,-2.97863 
407 ,75.9316 ,1.45318 ,-0.33437 ,-3.28083 
408 ,76.0916 ,1.45486 ,-0.31726 ,-3.11294 
409 ,76.2837 ,1.45655 ,-0.34806 ,-3.41514 
410 ,76.4602 ,1.45842 ,-0.34464 ,-3.38156 
411 ,76.6679 ,1.46043 ,-0.35148 ,-3.44872 
412 ,76.8437 ,1.46222 ,-0.37201 ,-3.65019 
413 ,77.0202 ,1.46400 ,-0.38570 ,-3.78450 
414 ,77.2122 ,1.46591 ,-0.37544 ,-3.68377 
415 ,77.4203 ,1.46790 ,-0.39597 ,-3.88524 
416 ,77.5962 ,1.46980 ,-0.40623 ,-3.98597 
417 ,77.8041 ,1.47177 ,-0.41992 ,-4.12029 
418 ,77.9805 ,1.47362 ,-0.43703 ,-4.28818 
419 ,78.1561 ,1.47548 ,-0.41308 ,-4.05313 
420 ,78.3326 ,1.47713 ,-0.43019 ,-4.22102 
421 ,78.5086 ,1.47901 ,-0.45757 ,-4.48965 
422 ,78.6847 ,1.48063 ,-0.46099 ,-4.52323 
423 ,78.8609 ,1.48242 ,-0.46441 ,-4.55681 
424 ,79.0531 ,1.48435 ,-0.47126 ,-4.62396 
425 ,79.2446 ,1.48620 ,-0.47468 ,-4.65754 
426 ,79.4371 ,1.48805 ,-0.50206 ,-4.92617 
427 ,79.6132 ,1.48991 ,-0.49863 ,-4.89259 
428 ,79.8051 ,1.49175 ,-0.51917 ,-5.09406 
429 ,79.9814 ,1.49362 ,-0.53628 ,-5.26195 
430 ,80.1575 ,1.49541 ,-0.53970 ,-5.29553 
431 ,80.3496 ,1.49726 ,-0.53628 ,-5.26195 
432 ,80.5416 ,1.49921 ,-0.55681 ,-5.46342 
433 ,80.7333 ,1.50105 ,-0.54654 ,-5.36268 
434 ,80.9094 ,1.50286 ,-0.56365 ,-5.53058 
435 ,81.0857 ,1.50458 ,-0.58419 ,-5.73205 
436 ,81.2619 ,1.50640 ,-0.59445 ,-5.83278 
437 ,81.4535 ,1.50828 ,-0.58077 ,-5.69847 
438 ,81.6303 ,1.51010 ,-0.58077 ,-5.69847 
439 ,81.8218 ,1.51192 ,-0.61156 ,-6.00067 
440 ,81.9978 ,1.51379 ,-0.61499 ,-6.03425 
441 ,82.1742 ,1.51552 ,-0.61499 ,-6.03425 
442 ,82.3823 ,1.51755 ,-0.63894 ,-6.26930 
443 ,82.5742 ,1.51943 ,-0.63210 ,-6.20214 
444 ,82.7664 ,1.52143 ,-0.65263 ,-6.40361 
445 ,82.9425 ,1.52320 ,-0.65947 ,-6.47077 
446 ,83.1344 ,1.52506 ,-0.64579 ,-6.33646 
447 ,83.3426 ,1.52714 ,-0.66974 ,-6.57150 
448 ,83.5185 ,1.52895 ,-0.67659 ,-6.63866 
449 ,83.6946 ,1.53075 ,-0.69027 ,-6.77297 
450 ,83.8869 ,1.53261 ,-0.70739 ,-6.94086 
451 ,84.0630 ,1.53434 ,-0.71765 ,-7.04160 
452 ,84.2550 ,1.53625 ,-0.70396 ,-6.90729 
453 ,84.4468 ,1.53826 ,-0.72107 ,-7.07518 
454 ,84.6389 ,1.54013 ,-0.72792 ,-7.14233 
455 ,84.8153 ,1.54192 ,-0.72107 ,-7.07518 
456 ,85.0072 ,1.54383 ,-0.74845 ,-7.34380 
457 ,85.1835 ,1.54559 ,-0.76898 ,-7.54527 
458 ,85.3755 ,1.54750 ,-0.76556 ,-7.51170 
459 ,85.5675 ,1.54943 ,-0.77583 ,-7.61243 
460 ,85.7436 ,1.55115 ,-0.78952 ,-7.74674 
461 ,85.9197 ,1.55295 ,-0.79636 ,-7.81390 
462 ,86.0958 ,1.55469 ,-0.79636 ,-7.81390 
463 ,86.2719 ,1.55648 ,-0.80663 ,-7.91464 
