Data stamp = , 23-04-2022 02:49:05 640

Calibration Values: 
Slope = , 26.54 , g/V 
Offset Voltage at no contact = , -0.501760 , V 

No , Time , Stage Position ,   Mass , Force 
   ,  (s) ,      (mm)      ,   (g)  , (mN)  

1 ,0.0000 ,0.69936 ,5.31221 ,52.12337 
2 ,0.2353 ,0.69948 ,5.30194 ,52.02263 
3 ,0.5398 ,0.70037 ,5.32247 ,52.22410 
4 ,0.7320 ,0.70174 ,5.31221 ,52.12337 
5 ,0.9241 ,0.70336 ,5.32589 ,52.25768 
6 ,1.1322 ,0.70540 ,5.31905 ,52.19052 
7 ,1.3401 ,0.70737 ,5.33274 ,52.32484 
8 ,1.5164 ,0.70923 ,5.31905 ,52.19052 
9 ,1.7083 ,0.71111 ,5.30878 ,52.08979 
10 ,1.9164 ,0.71311 ,5.28483 ,51.85474 
11 ,2.1245 ,0.71537 ,5.28483 ,51.85474 
12 ,2.3167 ,0.71728 ,5.25061 ,51.51896 
13 ,2.4926 ,0.71901 ,5.23007 ,51.31749 
14 ,2.6849 ,0.72097 ,5.22323 ,51.25033 
15 ,2.8609 ,0.72277 ,5.20954 ,51.11602 
16 ,3.0366 ,0.72452 ,5.19243 ,50.94813 
17 ,3.2128 ,0.72623 ,5.15136 ,50.54519 
18 ,3.3892 ,0.72798 ,5.16505 ,50.67950 
19 ,3.5970 ,0.73006 ,5.12056 ,50.24298 
20 ,3.7892 ,0.73193 ,5.12056 ,50.24298 
21 ,3.9653 ,0.73375 ,5.10345 ,50.07509 
22 ,4.1415 ,0.73557 ,5.08634 ,49.90720 
23 ,4.3015 ,0.73728 ,5.05554 ,49.60499 
24 ,4.4774 ,0.73888 ,5.04528 ,49.50426 
25 ,4.6696 ,0.74070 ,5.03159 ,49.36995 
26 ,4.8457 ,0.74257 ,5.02132 ,49.26921 
27 ,5.0376 ,0.74453 ,4.98026 ,48.86627 
28 ,5.2617 ,0.74656 ,4.98026 ,48.86627 
29 ,5.4539 ,0.74862 ,4.93919 ,48.46333 
30 ,5.6622 ,0.75061 ,4.93235 ,48.39618 
31 ,5.8541 ,0.75258 ,4.90497 ,48.12755 
32 ,6.0300 ,0.75446 ,4.88786 ,47.95966 
33 ,6.2223 ,0.75635 ,4.87417 ,47.82534 
34 ,6.4140 ,0.75824 ,4.83995 ,47.48956 
35 ,6.6063 ,0.76013 ,4.84337 ,47.52314 
36 ,6.7824 ,0.76194 ,4.83310 ,47.42240 
37 ,6.9585 ,0.76366 ,4.80915 ,47.18736 
38 ,7.1346 ,0.76544 ,4.77493 ,46.85157 
39 ,7.3103 ,0.76723 ,4.76124 ,46.71726 
40 ,7.4867 ,0.76896 ,4.76124 ,46.71726 
41 ,7.6629 ,0.77073 ,4.73386 ,46.44863 
42 ,7.8550 ,0.77262 ,4.71333 ,46.24716 
43 ,8.0470 ,0.77452 ,4.69622 ,46.07927 
44 ,8.2392 ,0.77643 ,4.67911 ,45.91138 
45 ,8.4313 ,0.77833 ,4.66884 ,45.81065 
46 ,8.6233 ,0.78032 ,4.63804 ,45.50844 
47 ,8.7994 ,0.78214 ,4.61751 ,45.30697 
48 ,9.0075 ,0.78415 ,4.59355 ,45.07192 
49 ,9.2156 ,0.78609 ,4.56960 ,44.83688 
50 ,9.4237 ,0.78823 ,4.56960 ,44.83688 
51 ,9.5993 ,0.79014 ,4.52853 ,44.43394 
52 ,9.7758 ,0.79185 ,4.52853 ,44.43394 
53 ,9.9676 ,0.79371 ,4.51484 ,44.29962 
54 ,10.1440 ,0.79553 ,4.51484 ,44.29962 
55 ,10.3361 ,0.79737 ,4.46009 ,43.76237 
56 ,10.5279 ,0.79938 ,4.44298 ,43.59448 
57 ,10.7038 ,0.80112 ,4.45324 ,43.69521 
58 ,10.8643 ,0.80285 ,4.42929 ,43.46016 
59 ,11.0400 ,0.80448 ,4.42586 ,43.42659 
60 ,11.2324 ,0.80645 ,4.37453 ,42.92291 
61 ,11.4243 ,0.80835 ,4.37111 ,42.88933 
62 ,11.6004 ,0.81010 ,4.36427 ,42.82218 
63 ,11.7762 ,0.81176 ,4.34373 ,42.62071 
64 ,11.9527 ,0.81362 ,4.31636 ,42.35208 
65 ,12.1608 ,0.81571 ,4.31293 ,42.31850 
66 ,12.3526 ,0.81762 ,4.27187 ,41.91556 
67 ,12.5449 ,0.81951 ,4.26160 ,41.81483 
68 ,12.7368 ,0.82141 ,4.25476 ,41.74767 
69 ,12.9451 ,0.82348 ,4.23765 ,41.57978 
70 ,13.1371 ,0.82547 ,4.20342 ,41.24400 
71 ,13.3133 ,0.82719 ,4.18631 ,41.07611 
72 ,13.5055 ,0.82915 ,4.18289 ,41.04253 
73 ,13.6973 ,0.83098 ,4.14867 ,40.70674 
74 ,13.8732 ,0.83280 ,4.13498 ,40.57243 
75 ,14.0496 ,0.83452 ,4.10076 ,40.23665 
76 ,14.2255 ,0.83633 ,4.09734 ,40.20307 
77 ,14.4015 ,0.83809 ,4.09049 ,40.13591 
78 ,14.5778 ,0.83983 ,4.08023 ,40.03518 
79 ,14.7699 ,0.84169 ,4.03916 ,39.63224 
80 ,14.9618 ,0.84365 ,4.03916 ,39.63224 
81 ,15.1698 ,0.84566 ,4.01520 ,39.39719 
82 ,15.3623 ,0.84758 ,3.98441 ,39.09499 
83 ,15.5543 ,0.84965 ,3.97756 ,39.02783 
84 ,15.7785 ,0.85175 ,3.95703 ,38.82636 
85 ,15.9540 ,0.85363 ,3.93650 ,38.62489 
86 ,16.1306 ,0.85543 ,3.91938 ,38.45700 
87 ,16.3224 ,0.85729 ,3.91254 ,38.38984 
88 ,16.5148 ,0.85907 ,3.89543 ,38.22195 
89 ,16.7228 ,0.86131 ,3.86463 ,37.91975 
90 ,16.8989 ,0.86306 ,3.86463 ,37.91975 
91 ,17.0744 ,0.86486 ,3.81330 ,37.41607 
92 ,17.2510 ,0.86659 ,3.79961 ,37.28176 
93 ,17.4269 ,0.86834 ,3.78592 ,37.14744 
94 ,17.6027 ,0.87016 ,3.79619 ,37.24818 
95 ,17.7793 ,0.87190 ,3.77908 ,37.08029 
96 ,17.9553 ,0.87360 ,3.75854 ,36.87882 
97 ,18.1312 ,0.87542 ,3.73459 ,36.64377 
98 ,18.3235 ,0.87732 ,3.72090 ,36.50946 
99 ,18.5311 ,0.87936 ,3.71063 ,36.40872 
100 ,18.7075 ,0.88112 ,3.66957 ,36.00578 
101 ,18.8840 ,0.88290 ,3.66614 ,35.97220 
102 ,19.0759 ,0.88477 ,3.64219 ,35.73716 
103 ,19.2675 ,0.88663 ,3.63192 ,35.63642 
104 ,19.4440 ,0.88853 ,3.60797 ,35.40137 
105 ,19.6361 ,0.89038 ,3.60454 ,35.36779 
106 ,19.8437 ,0.89237 ,3.57032 ,35.03201 
107 ,20.0203 ,0.89427 ,3.57375 ,35.06559 
108 ,20.2123 ,0.89616 ,3.55321 ,34.86412 
109 ,20.3884 ,0.89794 ,3.53268 ,34.66265 
110 ,20.5963 ,0.89997 ,3.50872 ,34.42760 
111 ,20.7725 ,0.90178 ,3.50188 ,34.36045 
112 ,20.9805 ,0.90383 ,3.48135 ,34.15898 
113 ,21.1727 ,0.90570 ,3.46424 ,33.99108 
114 ,21.3804 ,0.90778 ,3.43001 ,33.65530 
115 ,21.5568 ,0.90962 ,3.42659 ,33.62172 
116 ,21.7329 ,0.91141 ,3.41975 ,33.55457 
117 ,21.9250 ,0.91329 ,3.39237 ,33.28594 
118 ,22.1011 ,0.91510 ,3.37868 ,33.15163 
119 ,22.2933 ,0.91698 ,3.37526 ,33.11805 
120 ,22.4689 ,0.91876 ,3.36157 ,32.98374 
121 ,22.6451 ,0.92059 ,3.33762 ,32.74869 
122 ,22.8373 ,0.92241 ,3.33077 ,32.68153 
123 ,23.0133 ,0.92413 ,3.31366 ,32.51364 
124 ,23.2055 ,0.92610 ,3.27259 ,32.11070 
125 ,23.3974 ,0.92801 ,3.27259 ,32.11070 
126 ,23.5732 ,0.92977 ,3.25548 ,31.94281 
127 ,23.7498 ,0.93158 ,3.24180 ,31.80849 
128 ,23.9418 ,0.93348 ,3.21442 ,31.53987 
129 ,24.1179 ,0.93528 ,3.21442 ,31.53987 
130 ,24.3257 ,0.93719 ,3.17335 ,31.13693 
131 ,24.5021 ,0.93909 ,3.16651 ,31.06977 
132 ,24.6939 ,0.94094 ,3.16651 ,31.06977 
133 ,24.8859 ,0.94282 ,3.13229 ,30.73399 
134 ,25.0623 ,0.94467 ,3.11860 ,30.59968 
135 ,25.2703 ,0.94674 ,3.10491 ,30.46536 
136 ,25.4465 ,0.94848 ,3.08438 ,30.26389 
137 ,25.6385 ,0.95037 ,3.08095 ,30.23031 
138 ,25.8302 ,0.95237 ,3.06042 ,30.02884 
139 ,26.0064 ,0.95412 ,3.03304 ,29.76022 
140 ,26.1987 ,0.95603 ,3.02278 ,29.65948 
141 ,26.3748 ,0.95782 ,3.01935 ,29.62590 
142 ,26.5669 ,0.95964 ,2.98171 ,29.25654 
143 ,26.7429 ,0.96146 ,2.96802 ,29.12223 
144 ,26.9190 ,0.96328 ,2.96118 ,29.05507 
145 ,27.1111 ,0.96512 ,2.95091 ,28.95434 
146 ,27.2872 ,0.96690 ,2.92353 ,28.68571 
147 ,27.4953 ,0.96887 ,2.90642 ,28.51782 
148 ,27.6873 ,0.97091 ,2.89273 ,28.38351 
149 ,27.8630 ,0.97264 ,2.87562 ,28.21562 
150 ,28.0394 ,0.97446 ,2.85509 ,28.01415 
151 ,28.2635 ,0.97648 ,2.83798 ,27.84625 
152 ,28.4557 ,0.97850 ,2.82771 ,27.74552 
153 ,28.6477 ,0.98045 ,2.80718 ,27.54405 
154 ,28.8394 ,0.98236 ,2.78665 ,27.34258 
155 ,29.0158 ,0.98413 ,2.77980 ,27.27542 
156 ,29.2079 ,0.98602 ,2.75585 ,27.04038 
157 ,29.3998 ,0.98790 ,2.73189 ,26.80533 
158 ,29.5923 ,0.98997 ,2.73189 ,26.80533 
159 ,29.7682 ,0.99172 ,2.72505 ,26.73817 
160 ,29.9600 ,0.99367 ,2.69083 ,26.40239 
161 ,30.1523 ,0.99547 ,2.69425 ,26.43597 
162 ,30.3441 ,0.99745 ,2.66687 ,26.16734 
163 ,30.5206 ,0.99924 ,2.64976 ,25.99945 
164 ,30.7124 ,1.00117 ,2.66345 ,26.13376 
165 ,30.8888 ,1.00290 ,2.63949 ,25.89871 
166 ,31.0804 ,1.00481 ,2.59843 ,25.49577 
167 ,31.2729 ,1.00666 ,2.58474 ,25.36146 
168 ,31.4648 ,1.00867 ,2.57447 ,25.26073 
169 ,31.6410 ,1.01044 ,2.55394 ,25.05926 
170 ,31.8167 ,1.01214 ,2.55052 ,25.02568 
171 ,32.0092 ,1.01408 ,2.53683 ,24.89136 
172 ,32.2008 ,1.01602 ,2.51287 ,24.65632 
173 ,32.3933 ,1.01783 ,2.49576 ,24.48842 
174 ,32.5853 ,1.01982 ,2.47523 ,24.28696 
175 ,32.7614 ,1.02164 ,2.44785 ,24.01833 
176 ,32.9535 ,1.02347 ,2.46154 ,24.15264 
177 ,33.1455 ,1.02545 ,2.44101 ,23.95117 
178 ,33.3217 ,1.02721 ,2.41363 ,23.68255 
179 ,33.4976 ,1.02898 ,2.39994 ,23.54823 
180 ,33.6738 ,1.03073 ,2.39310 ,23.48108 
181 ,33.8500 ,1.03247 ,2.39310 ,23.48108 
182 ,34.0420 ,1.03438 ,2.34861 ,23.04456 
183 ,34.2339 ,1.03629 ,2.35545 ,23.11171 
184 ,34.3940 ,1.03807 ,2.34177 ,22.97740 
185 ,34.5697 ,1.03970 ,2.32123 ,22.77593 
186 ,34.7457 ,1.04151 ,2.28359 ,22.40657 
187 ,34.9378 ,1.04335 ,2.26648 ,22.23868 
188 ,35.1143 ,1.04518 ,2.26990 ,22.27226 
189 ,35.3225 ,1.04724 ,2.23910 ,21.97005 
190 ,35.5303 ,1.04927 ,2.25279 ,22.10437 
191 ,35.7066 ,1.05113 ,2.21857 ,21.76858 
192 ,35.8829 ,1.05284 ,2.20488 ,21.63427 
193 ,36.0588 ,1.05459 ,2.18777 ,21.46638 
194 ,36.2347 ,1.05648 ,2.19461 ,21.53353 
195 ,36.4110 ,1.05813 ,2.16381 ,21.23133 
196 ,36.6028 ,1.06004 ,2.14670 ,21.06344 
197 ,36.7952 ,1.06196 ,2.12617 ,20.86197 
198 ,36.9711 ,1.06371 ,2.11248 ,20.72766 
199 ,37.1473 ,1.06542 ,2.11248 ,20.72766 
200 ,37.3233 ,1.06727 ,2.08510 ,20.45903 
201 ,37.4994 ,1.06900 ,2.08168 ,20.42545 
202 ,37.6914 ,1.07088 ,2.06799 ,20.29114 
203 ,37.8835 ,1.07288 ,2.04061 ,20.02251 
204 ,38.0594 ,1.07458 ,2.03035 ,19.92178 
205 ,38.2356 ,1.07630 ,2.00982 ,19.72031 
206 ,38.4117 ,1.07810 ,2.00297 ,19.65315 
207 ,38.6034 ,1.08009 ,1.97559 ,19.38452 
208 ,38.7799 ,1.08181 ,1.97559 ,19.38452 
209 ,38.9559 ,1.08352 ,1.95848 ,19.21663 
210 ,39.1320 ,1.08533 ,1.94137 ,19.04874 
211 ,39.3236 ,1.08723 ,1.92426 ,18.88085 
212 ,39.4999 ,1.08903 ,1.90373 ,18.67938 
213 ,39.6918 ,1.09083 ,1.90373 ,18.67938 
214 ,39.8843 ,1.09273 ,1.89346 ,18.57864 
215 ,40.0603 ,1.09461 ,1.86608 ,18.31002 
216 ,40.2364 ,1.09634 ,1.84213 ,18.07497 
217 ,40.4126 ,1.09809 ,1.85240 ,18.17570 
218 ,40.5885 ,1.09987 ,1.83871 ,18.04139 
219 ,40.7642 ,1.10161 ,1.84213 ,18.07497 
220 ,40.9567 ,1.10350 ,1.80791 ,17.73919 
221 ,41.1647 ,1.10557 ,1.79422 ,17.60487 
222 ,41.3568 ,1.10745 ,1.78395 ,17.50414 
223 ,41.5326 ,1.10932 ,1.75657 ,17.23551 
224 ,41.7250 ,1.11127 ,1.76000 ,17.26909 
225 ,41.9168 ,1.11306 ,1.72235 ,16.89973 
226 ,42.1092 ,1.11494 ,1.72235 ,16.89973 
227 ,42.3171 ,1.11706 ,1.70524 ,16.73184 
228 ,42.5093 ,1.11898 ,1.71551 ,16.83257 
229 ,42.7175 ,1.12105 ,1.68129 ,16.49679 
230 ,42.9091 ,1.12297 ,1.67102 ,16.39605 
231 ,43.0851 ,1.12484 ,1.65049 ,16.19458 
232 ,43.2775 ,1.12669 ,1.63680 ,16.06027 
233 ,43.4859 ,1.12880 ,1.63338 ,16.02669 
234 ,43.6617 ,1.13061 ,1.61969 ,15.89238 
235 ,43.8374 ,1.13232 ,1.57862 ,15.48944 
236 ,43.9975 ,1.13407 ,1.57178 ,15.42228 
237 ,44.2059 ,1.13599 ,1.58547 ,15.55660 
238 ,44.3977 ,1.13794 ,1.54440 ,15.15366 
239 ,44.5741 ,1.13974 ,1.53413 ,15.05292 
240 ,44.7502 ,1.14148 ,1.53756 ,15.08650 
241 ,44.9262 ,1.14329 ,1.52045 ,14.91861 
242 ,45.1024 ,1.14497 ,1.51360 ,14.85145 
243 ,45.2784 ,1.14669 ,1.48622 ,14.58283 
244 ,45.4704 ,1.14871 ,1.46911 ,14.41493 
245 ,45.6467 ,1.15042 ,1.46569 ,14.38136 
246 ,45.8384 ,1.15233 ,1.44858 ,14.21346 
247 ,46.0308 ,1.15427 ,1.44174 ,14.14631 
248 ,46.2229 ,1.15610 ,1.42120 ,13.94484 
249 ,46.3986 ,1.15809 ,1.40751 ,13.81053 
250 ,46.5911 ,1.15981 ,1.39725 ,13.70979 
251 ,46.7670 ,1.16163 ,1.39040 ,13.64263 
252 ,46.9589 ,1.16346 ,1.34934 ,13.23969 
253 ,47.1352 ,1.16532 ,1.34934 ,13.23969 
254 ,47.3433 ,1.16736 ,1.34591 ,13.20612 
255 ,47.5353 ,1.16928 ,1.31169 ,12.87033 
256 ,47.7114 ,1.17104 ,1.30143 ,12.76960 
257 ,47.9034 ,1.17301 ,1.30827 ,12.83675 
258 ,48.1115 ,1.17497 ,1.28089 ,12.56813 
259 ,48.2872 ,1.17692 ,1.28432 ,12.60171 
260 ,48.4795 ,1.17865 ,1.26720 ,12.43381 
261 ,48.6878 ,1.18077 ,1.25009 ,12.26592 
262 ,48.8637 ,1.18256 ,1.24667 ,12.23235 
263 ,49.0400 ,1.18438 ,1.22956 ,12.06445 
264 ,49.2319 ,1.18619 ,1.20903 ,11.86298 
265 ,49.4080 ,1.18813 ,1.19876 ,11.76225 
266 ,49.5838 ,1.18979 ,1.19876 ,11.76225 
267 ,49.7602 ,1.19154 ,1.19192 ,11.69509 
268 ,49.9363 ,1.19330 ,1.16112 ,11.39289 
269 ,50.1441 ,1.19530 ,1.15085 ,11.29215 
270 ,50.3204 ,1.19716 ,1.14401 ,11.22500 
271 ,50.4964 ,1.19884 ,1.12347 ,11.02353 
272 ,50.6726 ,1.20065 ,1.09610 ,10.75490 
273 ,50.8488 ,1.20243 ,1.08925 ,10.68774 
274 ,51.0568 ,1.20445 ,1.08241 ,10.62059 
275 ,51.2487 ,1.20633 ,1.06872 ,10.48627 
276 ,51.4405 ,1.20826 ,1.06187 ,10.41912 
277 ,51.6169 ,1.21009 ,1.05161 ,10.31838 
278 ,51.8086 ,1.21200 ,1.01739 ,9.98260 
279 ,51.9853 ,1.21379 ,1.02423 ,10.04976 
280 ,52.1934 ,1.21582 ,1.00370 ,9.84829 
281 ,52.3853 ,1.21772 ,1.00712 ,9.88186 
282 ,52.5769 ,1.21964 ,0.97290 ,9.54608 
283 ,52.7692 ,1.22152 ,0.96605 ,9.47892 
284 ,52.9616 ,1.22355 ,0.95921 ,9.41177 
285 ,53.1536 ,1.22551 ,0.92157 ,9.04241 
286 ,53.3297 ,1.22728 ,0.91472 ,8.97525 
287 ,53.5054 ,1.22904 ,0.92499 ,9.07598 
288 ,53.6658 ,1.23067 ,0.91814 ,9.00883 
289 ,53.8419 ,1.23238 ,0.91472 ,8.97525 
290 ,54.0339 ,1.23424 ,0.89077 ,8.74020 
291 ,54.2097 ,1.23598 ,0.87366 ,8.57231 
292 ,54.3858 ,1.23780 ,0.86339 ,8.47158 
293 ,54.5618 ,1.23953 ,0.84286 ,8.27011 
294 ,54.7381 ,1.24133 ,0.84970 ,8.33726 
295 ,54.9144 ,1.24303 ,0.82232 ,8.06864 
296 ,55.1065 ,1.24506 ,0.82917 ,8.13579 
297 ,55.2825 ,1.24674 ,0.81548 ,8.00148 
298 ,55.4584 ,1.24854 ,0.79837 ,7.83359 
299 ,55.6347 ,1.25028 ,0.76757 ,7.53138 
300 ,55.8264 ,1.25224 ,0.77099 ,7.56496 
301 ,56.0028 ,1.25395 ,0.77441 ,7.59854 
302 ,56.1948 ,1.25583 ,0.74704 ,7.32991 
303 ,56.3869 ,1.25771 ,0.72992 ,7.16202 
304 ,56.5630 ,1.25958 ,0.73335 ,7.19560 
305 ,56.7392 ,1.26133 ,0.71624 ,7.02771 
306 ,56.9470 ,1.26334 ,0.69913 ,6.85982 
307 ,57.1553 ,1.26545 ,0.67859 ,6.65835 
308 ,57.3313 ,1.26723 ,0.67517 ,6.62477 
309 ,57.5395 ,1.26923 ,0.66490 ,6.52403 
310 ,57.7315 ,1.27121 ,0.65121 ,6.38972 
311 ,57.9234 ,1.27310 ,0.64095 ,6.28899 
312 ,58.0997 ,1.27495 ,0.63753 ,6.25541 
313 ,58.2919 ,1.27683 ,0.61015 ,5.98678 
314 ,58.4677 ,1.27864 ,0.61699 ,6.05394 
315 ,58.6440 ,1.28036 ,0.60673 ,5.95320 
316 ,58.8518 ,1.28227 ,0.58277 ,5.71815 
317 ,59.0280 ,1.28414 ,0.56224 ,5.51668 
318 ,59.2362 ,1.28623 ,0.55539 ,5.44953 
319 ,59.4117 ,1.28817 ,0.54513 ,5.34879 
320 ,59.5880 ,1.28975 ,0.53486 ,5.24806 
321 ,59.7483 ,1.29151 ,0.53144 ,5.21448 
322 ,59.9561 ,1.29330 ,0.53144 ,5.21448 
323 ,60.1485 ,1.29539 ,0.50748 ,4.97943 
324 ,60.3566 ,1.29746 ,0.49722 ,4.87870 
325 ,60.5486 ,1.29940 ,0.47326 ,4.64365 
326 ,60.7567 ,1.30131 ,0.47326 ,4.64365 
327 ,60.9487 ,1.30345 ,0.44931 ,4.40860 
328 ,61.1408 ,1.30529 ,0.45957 ,4.50934 
329 ,61.3169 ,1.30706 ,0.45615 ,4.47576 
330 ,61.5091 ,1.30903 ,0.42535 ,4.17355 
331 ,61.7012 ,1.31093 ,0.42535 ,4.17355 
332 ,61.8931 ,1.31285 ,0.41509 ,4.07282 
333 ,62.0693 ,1.31456 ,0.39455 ,3.87135 
334 ,62.2613 ,1.31645 ,0.39455 ,3.87135 
335 ,62.4370 ,1.31826 ,0.38771 ,3.80419 
336 ,62.6136 ,1.32005 ,0.35691 ,3.50199 
337 ,62.8055 ,1.32189 ,0.35349 ,3.46841 
338 ,62.9817 ,1.32374 ,0.34322 ,3.36767 
339 ,63.1739 ,1.32556 ,0.33638 ,3.30052 
340 ,63.3819 ,1.32764 ,0.32611 ,3.19978 
341 ,63.5900 ,1.32970 ,0.32269 ,3.16620 
342 ,63.7979 ,1.33186 ,0.31242 ,3.06547 
343 ,63.9903 ,1.33379 ,0.29873 ,2.93116 
344 ,64.1823 ,1.33573 ,0.27820 ,2.72969 
345 ,64.3743 ,1.33757 ,0.26109 ,2.56179 
346 ,64.5824 ,1.33964 ,0.26451 ,2.59537 
347 ,64.7584 ,1.34151 ,0.25082 ,2.46106 
348 ,64.9343 ,1.34325 ,0.24055 ,2.36032 
349 ,65.1426 ,1.34525 ,0.23029 ,2.25959 
350 ,65.3345 ,1.34722 ,0.22344 ,2.19243 
351 ,65.5428 ,1.34920 ,0.19607 ,1.92381 
352 ,65.7347 ,1.35123 ,0.21318 ,2.09170 
353 ,65.9109 ,1.35302 ,0.18580 ,1.82307 
354 ,66.1029 ,1.35483 ,0.17896 ,1.75592 
355 ,66.2791 ,1.35666 ,0.16527 ,1.62160 
356 ,66.4866 ,1.35856 ,0.14473 ,1.42013 
357 ,66.6632 ,1.36050 ,0.13447 ,1.31940 
358 ,66.8713 ,1.36249 ,0.14816 ,1.45371 
359 ,67.0953 ,1.36465 ,0.12420 ,1.21866 
360 ,67.2714 ,1.36660 ,0.11051 ,1.08435 
361 ,67.4473 ,1.36834 ,0.09340 ,0.91646 
362 ,67.6074 ,1.37004 ,0.07629 ,0.74857 
363 ,67.7833 ,1.37178 ,0.07971 ,0.78214 
364 ,67.9757 ,1.37356 ,0.06945 ,0.68141 
365 ,68.1837 ,1.37566 ,0.05918 ,0.58067 
366 ,68.3598 ,1.37745 ,0.06260 ,0.61425 
367 ,68.5515 ,1.37940 ,0.04549 ,0.44636 
368 ,68.7436 ,1.38124 ,0.02496 ,0.24489 
369 ,68.9358 ,1.38316 ,0.03180 ,0.31205 
370 ,69.1281 ,1.38512 ,0.01811 ,0.17773 
371 ,69.3201 ,1.38711 ,-0.00584 ,-0.05731 
372 ,69.5123 ,1.38896 ,0.00100 ,0.00984 
373 ,69.7041 ,1.39089 ,-0.02637 ,-0.25878 
374 ,69.8799 ,1.39269 ,-0.04006 ,-0.39310 
375 ,70.0563 ,1.39441 ,-0.04348 ,-0.42667 
376 ,70.2327 ,1.39622 ,-0.04006 ,-0.39310 
377 ,70.4247 ,1.39801 ,-0.06402 ,-0.62814 
378 ,70.6168 ,1.40007 ,-0.07771 ,-0.76246 
379 ,70.7923 ,1.40185 ,-0.09140 ,-0.89677 
380 ,70.9850 ,1.40358 ,-0.08455 ,-0.82961 
381 ,71.1927 ,1.40577 ,-0.08797 ,-0.86319 
382 ,71.3691 ,1.40753 ,-0.10166 ,-0.99751 
383 ,71.5612 ,1.40947 ,-0.12219 ,-1.19898 
384 ,71.7528 ,1.41141 ,-0.12219 ,-1.19898 
385 ,71.9292 ,1.41316 ,-0.12562 ,-1.23255 
386 ,72.1214 ,1.41510 ,-0.15299 ,-1.50118 
387 ,72.3135 ,1.41692 ,-0.15642 ,-1.53476 
388 ,72.5056 ,1.41886 ,-0.18037 ,-1.76981 
389 ,72.6977 ,1.42075 ,-0.18379 ,-1.80338 
390 ,72.9051 ,1.42287 ,-0.20090 ,-1.97128 
391 ,73.0817 ,1.42469 ,-0.19406 ,-1.90412 
392 ,73.2577 ,1.42641 ,-0.20433 ,-2.00485 
393 ,73.4499 ,1.42827 ,-0.21802 ,-2.13917 
394 ,73.6421 ,1.43017 ,-0.22486 ,-2.20632 
395 ,73.8337 ,1.43212 ,-0.22828 ,-2.23990 
396 ,74.0258 ,1.43413 ,-0.24539 ,-2.40779 
397 ,74.2021 ,1.43587 ,-0.26250 ,-2.57569 
398 ,74.3783 ,1.43762 ,-0.26250 ,-2.57569 
399 ,74.5543 ,1.43941 ,-0.25908 ,-2.54211 
400 ,74.7303 ,1.44119 ,-0.26593 ,-2.60926 
401 ,74.9225 ,1.44307 ,-0.30357 ,-2.97863 
402 ,75.0983 ,1.44479 ,-0.30015 ,-2.94505 
403 ,75.2745 ,1.44658 ,-0.30699 ,-3.01220 
404 ,75.4667 ,1.44848 ,-0.31726 ,-3.11294 
405 ,75.6587 ,1.45031 ,-0.33437 ,-3.28083 
406 ,75.8509 ,1.45225 ,-0.32410 ,-3.18010 
407 ,76.0431 ,1.45423 ,-0.35490 ,-3.48230 
408 ,76.2350 ,1.45611 ,-0.34121 ,-3.34799 
409 ,76.4431 ,1.45818 ,-0.36859 ,-3.61661 
410 ,76.6031 ,1.45996 ,-0.38228 ,-3.75093 
411 ,76.7791 ,1.46159 ,-0.39255 ,-3.85166 
412 ,77.2109 ,1.46470 ,-0.38228 ,-3.75093 
413 ,77.3872 ,1.46769 ,-0.40281 ,-3.95240 
414 ,77.5796 ,1.46954 ,-0.41650 ,-4.08671 
415 ,77.7557 ,1.47137 ,-0.42677 ,-4.18744 
416 ,77.9317 ,1.47314 ,-0.43019 ,-4.22102 
417 ,78.1077 ,1.47487 ,-0.43703 ,-4.28818 
418 ,78.2835 ,1.47669 ,-0.46099 ,-4.52323 
419 ,78.4599 ,1.47841 ,-0.46783 ,-4.59038 
420 ,78.6361 ,1.48019 ,-0.48837 ,-4.79185 
421 ,78.8280 ,1.48209 ,-0.47126 ,-4.62396 
422 ,79.0041 ,1.48386 ,-0.48837 ,-4.79185 
423 ,79.2123 ,1.48586 ,-0.49521 ,-4.85901 
424 ,79.4043 ,1.48781 ,-0.51232 ,-5.02690 
425 ,79.5803 ,1.48961 ,-0.52943 ,-5.19479 
426 ,79.7725 ,1.49147 ,-0.53285 ,-5.22837 
427 ,79.9645 ,1.49346 ,-0.53628 ,-5.26195 
428 ,80.1726 ,1.49547 ,-0.53628 ,-5.26195 
429 ,80.3486 ,1.49730 ,-0.54654 ,-5.36268 
430 ,80.5565 ,1.49933 ,-0.58077 ,-5.69847 
431 ,80.7486 ,1.50131 ,-0.55681 ,-5.46342 
432 ,80.9250 ,1.50310 ,-0.59445 ,-5.83278 
433 ,81.1010 ,1.50482 ,-0.60130 ,-5.89994 
434 ,81.2929 ,1.50665 ,-0.59445 ,-5.83278 
435 ,81.4688 ,1.50853 ,-0.59788 ,-5.86636 
436 ,81.6610 ,1.51036 ,-0.62183 ,-6.10141 
437 ,81.8370 ,1.51219 ,-0.64921 ,-6.37003 
438 ,82.0293 ,1.51407 ,-0.61499 ,-6.03425 
439 ,82.2214 ,1.51600 ,-0.64579 ,-6.33646 
440 ,82.4135 ,1.51791 ,-0.65947 ,-6.47077 
441 ,82.6051 ,1.51976 ,-0.65605 ,-6.43719 
442 ,82.7817 ,1.52162 ,-0.67316 ,-6.60508 
443 ,82.9897 ,1.52364 ,-0.66632 ,-6.53793 
444 ,83.1975 ,1.52574 ,-0.70054 ,-6.87371 
445 ,83.3901 ,1.52769 ,-0.69027 ,-6.77297 
446 ,83.5659 ,1.52952 ,-0.71423 ,-7.00802 
447 ,83.7419 ,1.53134 ,-0.72450 ,-7.10876 
448 ,83.9341 ,1.53313 ,-0.72450 ,-7.10876 
449 ,84.1259 ,1.53504 ,-0.73818 ,-7.24307 
450 ,84.3502 ,1.53715 ,-0.74161 ,-7.27665 
451 ,84.5419 ,1.53924 ,-0.75530 ,-7.41096 
452 ,84.7181 ,1.54100 ,-0.77241 ,-7.57885 
453 ,84.8945 ,1.54281 ,-0.75187 ,-7.37738 
454 ,85.0866 ,1.54467 ,-0.76898 ,-7.54527 
455 ,85.2627 ,1.54644 ,-0.79294 ,-7.78032 
456 ,85.4547 ,1.54829 ,-0.78610 ,-7.71317 
457 ,85.6465 ,1.55020 ,-0.80663 ,-7.91464 
458 ,85.8063 ,1.55199 ,-0.80321 ,-7.88106 
459 ,85.9826 ,1.55362 ,-0.82032 ,-8.04895 
460 ,86.1749 ,1.55550 ,-0.83401 ,-8.18326 
461 ,86.3668 ,1.55743 ,-0.83743 ,-8.21684 
462 ,86.5592 ,1.55932 ,-0.85796 ,-8.41831 
463 ,86.7512 ,1.56130 ,-0.84769 ,-8.31758 
