Data stamp = , 22-04-2022 18:02:15 118

Calibration Values: 
Slope = , 26.54 , g/V 
Offset Voltage at no contact = , -0.501760 , V 

No , Time , Stage Position ,   Mass , Force 
   ,  (s) ,      (mm)      ,   (g)  , (mN)  

1 ,0.0000 ,0.69948 ,5.37381 ,52.72778 
2 ,0.2150 ,0.69955 ,5.37723 ,52.76135 
3 ,0.7115 ,0.70120 ,5.38407 ,52.82851 
4 ,0.9039 ,0.70334 ,5.37723 ,52.76135 
5 ,1.0794 ,0.70505 ,5.39434 ,52.92925 
6 ,1.2559 ,0.70678 ,5.40118 ,52.99640 
7 ,1.4317 ,0.70852 ,5.39092 ,52.89567 
8 ,1.6081 ,0.71027 ,5.37381 ,52.72778 
9 ,1.8002 ,0.71226 ,5.37038 ,52.69420 
10 ,1.9921 ,0.71414 ,5.34643 ,52.45915 
11 ,2.1839 ,0.71607 ,5.33616 ,52.35841 
12 ,2.3605 ,0.71782 ,5.32932 ,52.29126 
13 ,2.5363 ,0.71965 ,5.30878 ,52.08979 
14 ,2.7126 ,0.72139 ,5.29167 ,51.92190 
15 ,2.9046 ,0.72325 ,5.27456 ,51.75401 
16 ,3.0808 ,0.72503 ,5.25061 ,51.51896 
17 ,3.2727 ,0.72688 ,5.23692 ,51.38464 
18 ,3.4649 ,0.72887 ,5.21639 ,51.18317 
19 ,3.6730 ,0.73091 ,5.19585 ,50.98170 
20 ,3.8650 ,0.73289 ,5.16505 ,50.67950 
21 ,4.0570 ,0.73481 ,5.16163 ,50.64592 
22 ,4.2331 ,0.73661 ,5.13768 ,50.41087 
23 ,4.4250 ,0.73856 ,5.12741 ,50.31014 
24 ,4.6332 ,0.74054 ,5.10003 ,50.04151 
25 ,4.7932 ,0.74229 ,5.07608 ,49.80646 
26 ,4.9694 ,0.74394 ,5.05897 ,49.63857 
27 ,5.1453 ,0.74573 ,5.03159 ,49.36995 
28 ,5.3532 ,0.74762 ,5.02474 ,49.30279 
29 ,5.5136 ,0.74949 ,5.01790 ,49.23563 
30 ,5.6897 ,0.75114 ,5.00763 ,49.13490 
31 ,5.8657 ,0.75289 ,4.96657 ,48.73196 
32 ,6.0419 ,0.75468 ,4.93577 ,48.42975 
33 ,6.2340 ,0.75660 ,4.95288 ,48.59764 
34 ,6.4260 ,0.75847 ,4.90497 ,48.12755 
35 ,6.6022 ,0.76028 ,4.88786 ,47.95966 
36 ,6.8101 ,0.76226 ,4.86732 ,47.75819 
37 ,6.9862 ,0.76408 ,4.84679 ,47.55672 
38 ,7.1784 ,0.76595 ,4.85021 ,47.59030 
39 ,7.3543 ,0.76778 ,4.83652 ,47.45598 
40 ,7.5301 ,0.76959 ,4.81941 ,47.28809 
41 ,7.7065 ,0.77129 ,4.78861 ,46.98589 
42 ,7.9306 ,0.77348 ,4.76808 ,46.78442 
43 ,8.1063 ,0.77527 ,4.75439 ,46.65010 
44 ,8.2826 ,0.77708 ,4.72017 ,46.31432 
45 ,8.4587 ,0.77885 ,4.70306 ,46.14643 
46 ,8.6346 ,0.78058 ,4.68595 ,45.97854 
47 ,8.8110 ,0.78237 ,4.68937 ,46.01212 
48 ,8.9868 ,0.78406 ,4.66199 ,45.74349 
49 ,9.1632 ,0.78584 ,4.64488 ,45.57560 
50 ,9.3548 ,0.78769 ,4.63462 ,45.47486 
51 ,9.5309 ,0.78951 ,4.61751 ,45.30697 
52 ,9.6909 ,0.79125 ,4.61066 ,45.23981 
53 ,9.8674 ,0.79294 ,4.59013 ,45.03835 
54 ,10.0596 ,0.79486 ,4.54564 ,44.60183 
55 ,10.2358 ,0.79667 ,4.55591 ,44.70256 
56 ,10.4119 ,0.79835 ,4.52511 ,44.40036 
57 ,10.6035 ,0.80031 ,4.49431 ,44.09815 
58 ,10.7797 ,0.80206 ,4.48404 ,43.99742 
59 ,10.9718 ,0.80397 ,4.47035 ,43.86310 
60 ,11.1796 ,0.80596 ,4.45666 ,43.72879 
61 ,11.3560 ,0.80776 ,4.42586 ,43.42659 
62 ,11.5320 ,0.80953 ,4.41218 ,43.29227 
63 ,11.7082 ,0.81130 ,4.40533 ,43.22512 
64 ,11.8840 ,0.81304 ,4.38822 ,43.05723 
65 ,12.0605 ,0.81486 ,4.36769 ,42.85576 
66 ,12.2525 ,0.81676 ,4.34373 ,42.62071 
67 ,12.4286 ,0.81846 ,4.33689 ,42.55355 
68 ,12.6207 ,0.82037 ,4.30267 ,42.21777 
69 ,12.8128 ,0.82234 ,4.29582 ,42.15061 
70 ,13.0206 ,0.82428 ,4.28556 ,42.04988 
71 ,13.1967 ,0.82623 ,4.25476 ,41.74767 
72 ,13.3889 ,0.82799 ,4.23080 ,41.51262 
73 ,13.5651 ,0.82986 ,4.22738 ,41.47905 
74 ,13.7410 ,0.83165 ,4.20342 ,41.24400 
75 ,13.9334 ,0.83353 ,4.17947 ,41.00895 
76 ,14.1252 ,0.83540 ,4.17262 ,40.94179 
77 ,14.3333 ,0.83753 ,4.13498 ,40.57243 
78 ,14.5411 ,0.83961 ,4.13498 ,40.57243 
79 ,14.7174 ,0.84135 ,4.11787 ,40.40454 
80 ,14.9098 ,0.84323 ,4.09734 ,40.20307 
81 ,15.1013 ,0.84522 ,4.07680 ,40.00160 
82 ,15.2938 ,0.84710 ,4.04258 ,39.66582 
83 ,15.4855 ,0.84904 ,4.04600 ,39.69940 
84 ,15.6619 ,0.85082 ,4.03574 ,39.59866 
85 ,15.8539 ,0.85274 ,3.99467 ,39.19572 
86 ,16.0301 ,0.85451 ,3.97756 ,39.02783 
87 ,16.2060 ,0.85621 ,3.97072 ,38.96067 
88 ,16.3818 ,0.85802 ,3.97414 ,38.99425 
89 ,16.5581 ,0.85975 ,3.94334 ,38.69205 
90 ,16.7342 ,0.86152 ,3.91938 ,38.45700 
91 ,16.9107 ,0.86331 ,3.89885 ,38.25553 
92 ,17.1024 ,0.86518 ,3.90570 ,38.32268 
93 ,17.2786 ,0.86701 ,3.88516 ,38.12122 
94 ,17.4547 ,0.86872 ,3.84752 ,37.75185 
95 ,17.6466 ,0.87058 ,3.82699 ,37.55038 
96 ,17.8388 ,0.87257 ,3.81672 ,37.44965 
97 ,18.0149 ,0.87433 ,3.81330 ,37.41607 
98 ,18.1910 ,0.87611 ,3.78250 ,37.11387 
99 ,18.3669 ,0.87786 ,3.76539 ,36.94597 
100 ,18.5430 ,0.87964 ,3.74828 ,36.77808 
101 ,18.7192 ,0.88138 ,3.74485 ,36.74450 
102 ,18.9271 ,0.88334 ,3.70037 ,36.30799 
103 ,19.1194 ,0.88541 ,3.70037 ,36.30799 
104 ,19.2956 ,0.88713 ,3.68325 ,36.14010 
105 ,19.4872 ,0.88898 ,3.65588 ,35.87147 
106 ,19.6636 ,0.89083 ,3.64903 ,35.80431 
107 ,19.8395 ,0.89258 ,3.64219 ,35.73716 
108 ,20.0477 ,0.89457 ,3.60112 ,35.33422 
109 ,20.2237 ,0.89638 ,3.58743 ,35.19990 
110 ,20.4000 ,0.89819 ,3.59770 ,35.30064 
111 ,20.5758 ,0.90000 ,3.56690 ,34.99843 
112 ,20.7842 ,0.90199 ,3.53610 ,34.69623 
113 ,20.9757 ,0.90393 ,3.53952 ,34.72981 
114 ,21.1523 ,0.90570 ,3.53268 ,34.66265 
115 ,21.3603 ,0.90771 ,3.49846 ,34.32687 
116 ,21.5359 ,0.90953 ,3.48135 ,34.15898 
117 ,21.7124 ,0.91131 ,3.46424 ,33.99108 
118 ,21.9206 ,0.91332 ,3.44370 ,33.78961 
119 ,22.1127 ,0.91527 ,3.43001 ,33.65530 
120 ,22.3047 ,0.91712 ,3.40606 ,33.42025 
121 ,22.4808 ,0.91897 ,3.38210 ,33.18520 
122 ,22.6408 ,0.92072 ,3.38553 ,33.21878 
123 ,22.8169 ,0.92237 ,3.36842 ,33.05089 
124 ,23.0092 ,0.92418 ,3.34104 ,32.78227 
125 ,23.1851 ,0.92604 ,3.33419 ,32.71511 
126 ,23.3612 ,0.92779 ,3.32393 ,32.61437 
127 ,23.5533 ,0.92967 ,3.31708 ,32.54722 
128 ,23.7292 ,0.93149 ,3.29655 ,32.34575 
129 ,23.9056 ,0.93321 ,3.26917 ,32.07712 
130 ,24.0973 ,0.93520 ,3.26575 ,32.04354 
131 ,24.2735 ,0.93690 ,3.25548 ,31.94281 
132 ,24.4655 ,0.93886 ,3.22811 ,31.67418 
133 ,24.6736 ,0.94079 ,3.22811 ,31.67418 
134 ,24.8816 ,0.94292 ,3.18362 ,31.23766 
135 ,25.0737 ,0.94485 ,3.17677 ,31.17051 
136 ,25.2497 ,0.94671 ,3.16993 ,31.10335 
137 ,25.4260 ,0.94843 ,3.14940 ,30.90188 
138 ,25.6179 ,0.95030 ,3.11860 ,30.59968 
139 ,25.7937 ,0.95209 ,3.12544 ,30.66683 
140 ,25.9700 ,0.95390 ,3.09122 ,30.33105 
141 ,26.1619 ,0.95576 ,3.07753 ,30.19674 
142 ,26.3381 ,0.95753 ,3.05700 ,29.99527 
143 ,26.5304 ,0.95944 ,3.07069 ,30.12958 
144 ,26.7225 ,0.96139 ,3.03304 ,29.76022 
145 ,26.9141 ,0.96326 ,3.02962 ,29.72664 
146 ,27.0907 ,0.96506 ,3.00224 ,29.45801 
147 ,27.2988 ,0.96713 ,2.96802 ,29.12223 
148 ,27.5386 ,0.96929 ,2.96802 ,29.12223 
149 ,27.7149 ,0.97129 ,2.94064 ,28.85360 
150 ,27.8910 ,0.97306 ,2.94749 ,28.92076 
151 ,28.0991 ,0.97500 ,2.92696 ,28.71929 
152 ,28.2911 ,0.97707 ,2.89958 ,28.45066 
153 ,28.4830 ,0.97891 ,2.88247 ,28.28277 
154 ,28.6592 ,0.98075 ,2.86536 ,28.11488 
155 ,28.8352 ,0.98248 ,2.84482 ,27.91341 
156 ,29.0109 ,0.98426 ,2.84825 ,27.94699 
157 ,29.1870 ,0.98607 ,2.83798 ,27.84625 
158 ,29.3796 ,0.98786 ,2.80376 ,27.51047 
159 ,29.5556 ,0.98977 ,2.80034 ,27.47689 
160 ,29.7476 ,0.99163 ,2.78322 ,27.30900 
161 ,29.9237 ,0.99335 ,2.76954 ,27.17469 
162 ,30.0994 ,0.99515 ,2.74900 ,26.97322 
163 ,30.2918 ,0.99700 ,2.73531 ,26.83891 
164 ,30.4681 ,0.99876 ,2.72505 ,26.73817 
165 ,30.6758 ,1.00082 ,2.69767 ,26.46954 
166 ,30.8680 ,1.00283 ,2.70109 ,26.50312 
167 ,31.0445 ,1.00459 ,2.67714 ,26.26807 
168 ,31.2361 ,1.00641 ,2.64634 ,25.96587 
169 ,31.4126 ,1.00831 ,2.63607 ,25.86514 
170 ,31.6044 ,1.01017 ,2.63265 ,25.83156 
171 ,31.8125 ,1.01214 ,2.60527 ,25.56293 
172 ,32.0206 ,1.01425 ,2.60185 ,25.52935 
173 ,32.2122 ,1.01616 ,2.57105 ,25.22715 
174 ,32.3888 ,1.01807 ,2.55052 ,25.02568 
175 ,32.5805 ,1.01998 ,2.55052 ,25.02568 
176 ,32.7567 ,1.02170 ,2.52656 ,24.79063 
177 ,32.9647 ,1.02369 ,2.52656 ,24.79063 
178 ,33.1570 ,1.02562 ,2.48892 ,24.42127 
179 ,33.3489 ,1.02758 ,2.47523 ,24.28696 
180 ,33.5253 ,1.02937 ,2.46154 ,24.15264 
181 ,33.7172 ,1.03132 ,2.45127 ,24.05191 
182 ,33.9093 ,1.03319 ,2.44101 ,23.95117 
183 ,34.0855 ,1.03498 ,2.42048 ,23.74970 
184 ,34.2775 ,1.03683 ,2.41705 ,23.71612 
185 ,34.4696 ,1.03884 ,2.37941 ,23.34676 
186 ,34.6617 ,1.04077 ,2.39310 ,23.48108 
187 ,34.8537 ,1.04265 ,2.34861 ,23.04456 
188 ,35.0618 ,1.04466 ,2.37256 ,23.27961 
189 ,35.2379 ,1.04651 ,2.33150 ,22.87667 
190 ,35.4138 ,1.04825 ,2.31097 ,22.67520 
191 ,35.6061 ,1.05017 ,2.28701 ,22.44015 
192 ,35.7980 ,1.05217 ,2.29728 ,22.54088 
193 ,35.9743 ,1.05389 ,2.27332 ,22.30584 
194 ,36.1661 ,1.05578 ,2.24594 ,22.03721 
195 ,36.3423 ,1.05757 ,2.23226 ,21.90290 
196 ,36.5341 ,1.05940 ,2.22199 ,21.80216 
197 ,36.7265 ,1.06132 ,2.20830 ,21.66785 
198 ,36.9184 ,1.06326 ,2.20146 ,21.60069 
199 ,37.1107 ,1.06517 ,2.17066 ,21.29849 
200 ,37.2864 ,1.06697 ,2.15355 ,21.13059 
201 ,37.4629 ,1.06874 ,2.15355 ,21.13059 
202 ,37.6549 ,1.07071 ,2.12275 ,20.82839 
203 ,37.8311 ,1.07244 ,2.12959 ,20.89555 
204 ,38.0069 ,1.07426 ,2.10906 ,20.69408 
205 ,38.2151 ,1.07616 ,2.10221 ,20.62692 
206 ,38.3910 ,1.07804 ,2.08168 ,20.42545 
207 ,38.5992 ,1.08005 ,2.07484 ,20.35829 
208 ,38.7913 ,1.08199 ,2.05773 ,20.19040 
209 ,38.9996 ,1.08407 ,2.02008 ,19.82104 
210 ,39.1916 ,1.08602 ,2.03035 ,19.92178 
211 ,39.3674 ,1.08779 ,1.99955 ,19.61957 
212 ,39.5433 ,1.08960 ,1.99613 ,19.58599 
213 ,39.7195 ,1.09130 ,1.97217 ,19.35094 
214 ,39.9119 ,1.09320 ,1.97217 ,19.35094 
215 ,40.1197 ,1.09519 ,1.92768 ,18.91443 
216 ,40.3117 ,1.09720 ,1.93111 ,18.94801 
217 ,40.4881 ,1.09900 ,1.92426 ,18.88085 
218 ,40.6959 ,1.10101 ,1.91057 ,18.74654 
219 ,40.8721 ,1.10292 ,1.89346 ,18.57864 
220 ,41.0482 ,1.10461 ,1.87635 ,18.41075 
221 ,41.2401 ,1.10645 ,1.86951 ,18.34360 
222 ,41.4162 ,1.10824 ,1.85240 ,18.17570 
223 ,41.6085 ,1.11019 ,1.84897 ,18.14213 
224 ,41.7846 ,1.11197 ,1.82160 ,17.87350 
225 ,41.9765 ,1.11376 ,1.81475 ,17.80634 
226 ,42.1528 ,1.11570 ,1.80449 ,17.70561 
227 ,42.3447 ,1.11749 ,1.77026 ,17.36983 
228 ,42.5209 ,1.11933 ,1.76684 ,17.33625 
229 ,42.7131 ,1.12122 ,1.75657 ,17.23551 
230 ,42.9052 ,1.12312 ,1.73946 ,17.06762 
231 ,43.1132 ,1.12517 ,1.73262 ,17.00046 
232 ,43.3213 ,1.12727 ,1.69498 ,16.63110 
233 ,43.5133 ,1.12918 ,1.69840 ,16.66468 
234 ,43.6894 ,1.13096 ,1.68813 ,16.56395 
235 ,43.8972 ,1.13299 ,1.65733 ,16.26174 
236 ,44.0735 ,1.13484 ,1.62995 ,15.99311 
237 ,44.2335 ,1.13653 ,1.64364 ,16.12743 
238 ,44.4096 ,1.13818 ,1.62653 ,15.95954 
239 ,44.5858 ,1.13993 ,1.61969 ,15.89238 
240 ,44.7934 ,1.14195 ,1.59573 ,15.65733 
241 ,44.9695 ,1.14377 ,1.58889 ,15.59018 
242 ,45.1454 ,1.14552 ,1.58547 ,15.55660 
243 ,45.3218 ,1.14733 ,1.56836 ,15.38871 
244 ,45.5142 ,1.14921 ,1.54098 ,15.12008 
245 ,45.6901 ,1.15102 ,1.52045 ,14.91861 
246 ,45.8983 ,1.15301 ,1.53756 ,15.08650 
247 ,46.0743 ,1.15485 ,1.50676 ,14.78430 
248 ,46.2825 ,1.15685 ,1.49991 ,14.71714 
249 ,46.4902 ,1.15882 ,1.46227 ,14.34778 
250 ,46.6667 ,1.16072 ,1.45542 ,14.28062 
251 ,46.8585 ,1.16259 ,1.43831 ,14.11273 
252 ,47.0348 ,1.16444 ,1.42805 ,14.01199 
253 ,47.2107 ,1.16622 ,1.41094 ,13.84410 
254 ,47.4190 ,1.16822 ,1.41436 ,13.87768 
255 ,47.6109 ,1.17021 ,1.38698 ,13.60906 
256 ,47.7871 ,1.17192 ,1.38356 ,13.57548 
257 ,47.9792 ,1.17390 ,1.36645 ,13.40759 
258 ,48.1713 ,1.17571 ,1.35276 ,13.27327 
259 ,48.3789 ,1.17773 ,1.33223 ,13.07180 
260 ,48.5556 ,1.17960 ,1.32196 ,12.97107 
261 ,48.7475 ,1.18151 ,1.30143 ,12.76960 
262 ,48.9236 ,1.18330 ,1.29800 ,12.73602 
263 ,49.0999 ,1.18508 ,1.29800 ,12.73602 
264 ,49.2755 ,1.18684 ,1.27405 ,12.50097 
265 ,49.4514 ,1.18862 ,1.26036 ,12.36666 
266 ,49.6600 ,1.19055 ,1.25009 ,12.26592 
267 ,49.8680 ,1.19267 ,1.22272 ,11.99730 
268 ,50.0601 ,1.19458 ,1.21245 ,11.89656 
269 ,50.2521 ,1.19668 ,1.19192 ,11.69509 
270 ,50.4442 ,1.19849 ,1.18850 ,11.66151 
271 ,50.6203 ,1.20025 ,1.17138 ,11.49362 
272 ,50.8124 ,1.20221 ,1.17138 ,11.49362 
273 ,50.9885 ,1.20398 ,1.14058 ,11.19142 
274 ,51.1645 ,1.20570 ,1.13032 ,11.09068 
275 ,51.3727 ,1.20767 ,1.11321 ,10.92279 
276 ,51.5643 ,1.20967 ,1.10294 ,10.82206 
277 ,51.7408 ,1.21151 ,1.10294 ,10.82206 
278 ,51.9488 ,1.21349 ,1.07214 ,10.51985 
279 ,52.1249 ,1.21532 ,1.06530 ,10.45270 
280 ,52.3011 ,1.21707 ,1.04819 ,10.28480 
281 ,52.4771 ,1.21884 ,1.06187 ,10.41912 
282 ,52.6687 ,1.22078 ,1.03792 ,10.18407 
283 ,52.8607 ,1.22261 ,1.02081 ,10.01618 
284 ,53.0371 ,1.22448 ,1.01396 ,9.94902 
285 ,53.2293 ,1.22636 ,1.00370 ,9.84829 
286 ,53.4056 ,1.22812 ,0.97974 ,9.61324 
287 ,53.5816 ,1.22987 ,0.96605 ,9.47892 
288 ,53.7412 ,1.23162 ,0.95921 ,9.41177 
289 ,53.9177 ,1.23322 ,0.95237 ,9.34461 
290 ,54.0938 ,1.23503 ,0.94552 ,9.27745 
291 ,54.2858 ,1.23687 ,0.91472 ,8.97525 
292 ,54.4779 ,1.23876 ,0.91814 ,9.00883 
293 ,54.6539 ,1.24060 ,0.91130 ,8.94167 
294 ,54.8456 ,1.24245 ,0.87708 ,8.60589 
295 ,55.0221 ,1.24429 ,0.87366 ,8.57231 
296 ,55.2141 ,1.24630 ,0.87366 ,8.57231 
297 ,55.3904 ,1.24796 ,0.86339 ,8.47158 
298 ,55.5822 ,1.24987 ,0.83259 ,8.16937 
299 ,55.7581 ,1.25162 ,0.81890 ,8.03506 
300 ,55.9505 ,1.25353 ,0.82575 ,8.10221 
301 ,56.1587 ,1.25554 ,0.80179 ,7.86717 
302 ,56.3347 ,1.25736 ,0.79152 ,7.76643 
303 ,56.5265 ,1.25930 ,0.78126 ,7.66570 
304 ,56.7027 ,1.26109 ,0.75730 ,7.43065 
305 ,56.8947 ,1.26291 ,0.76757 ,7.53138 
306 ,57.0870 ,1.26484 ,0.74361 ,7.29633 
307 ,57.2789 ,1.26686 ,0.70597 ,6.92697 
308 ,57.4550 ,1.26858 ,0.69913 ,6.85982 
309 ,57.6311 ,1.27035 ,0.70597 ,6.92697 
310 ,57.8233 ,1.27227 ,0.69913 ,6.85982 
311 ,58.0151 ,1.27418 ,0.67859 ,6.65835 
312 ,58.2070 ,1.27606 ,0.67517 ,6.62477 
313 ,58.3995 ,1.27793 ,0.66148 ,6.49046 
314 ,58.6077 ,1.28007 ,0.64437 ,6.32256 
315 ,58.7996 ,1.28205 ,0.62042 ,6.08752 
316 ,58.9756 ,1.28377 ,0.61015 ,5.98678 
317 ,59.1513 ,1.28568 ,0.61357 ,6.02036 
318 ,59.3119 ,1.28730 ,0.60673 ,5.95320 
319 ,59.5039 ,1.28900 ,0.59646 ,5.85247 
320 ,59.6800 ,1.29084 ,0.57251 ,5.61742 
321 ,59.8561 ,1.29256 ,0.55197 ,5.41595 
322 ,60.0480 ,1.29451 ,0.55539 ,5.44953 
323 ,60.2239 ,1.29626 ,0.54855 ,5.38237 
324 ,60.4162 ,1.29811 ,0.51433 ,5.04659 
325 ,60.5925 ,1.29999 ,0.50064 ,4.91228 
326 ,60.7844 ,1.30187 ,0.51433 ,5.04659 
327 ,60.9606 ,1.30364 ,0.50748 ,4.97943 
328 ,61.1524 ,1.30559 ,0.47668 ,4.67723 
329 ,61.3447 ,1.30750 ,0.47668 ,4.67723 
330 ,61.5206 ,1.30926 ,0.47326 ,4.64365 
331 ,61.7286 ,1.31125 ,0.44588 ,4.37502 
332 ,61.9050 ,1.31308 ,0.44246 ,4.34144 
333 ,62.1131 ,1.31512 ,0.41166 ,4.03924 
334 ,62.3207 ,1.31709 ,0.42193 ,4.13997 
335 ,62.4971 ,1.31896 ,0.40482 ,3.97208 
336 ,62.6891 ,1.32095 ,0.37060 ,3.63630 
337 ,62.8654 ,1.32266 ,0.36718 ,3.60272 
338 ,63.0572 ,1.32454 ,0.36718 ,3.60272 
339 ,63.2333 ,1.32633 ,0.34664 ,3.40125 
340 ,63.4095 ,1.32815 ,0.31926 ,3.13263 
341 ,63.6014 ,1.33003 ,0.33638 ,3.30052 
342 ,63.7937 ,1.33193 ,0.31584 ,3.09905 
343 ,63.9857 ,1.33378 ,0.30215 ,2.96473 
344 ,64.1619 ,1.33563 ,0.30900 ,3.03189 
345 ,64.3378 ,1.33741 ,0.29531 ,2.89758 
346 ,64.5136 ,1.33914 ,0.28504 ,2.79684 
347 ,64.6901 ,1.34094 ,0.26109 ,2.56179 
348 ,64.8822 ,1.34285 ,0.24740 ,2.42748 
349 ,65.0581 ,1.34458 ,0.25424 ,2.49464 
350 ,65.2341 ,1.34637 ,0.24740 ,2.42748 
351 ,65.4424 ,1.34843 ,0.22687 ,2.22601 
352 ,65.6345 ,1.35029 ,0.22002 ,2.15885 
353 ,65.8265 ,1.35228 ,0.18922 ,1.85665 
354 ,66.0187 ,1.35420 ,0.18580 ,1.82307 
355 ,66.2104 ,1.35604 ,0.17896 ,1.75592 
356 ,66.3868 ,1.35792 ,0.15500 ,1.52087 
357 ,66.6109 ,1.36000 ,0.15842 ,1.55445 
358 ,66.7866 ,1.36182 ,0.14131 ,1.38655 
359 ,66.9790 ,1.36384 ,0.13105 ,1.28582 
360 ,67.1710 ,1.36572 ,0.13105 ,1.28582 
361 ,67.3472 ,1.36744 ,0.11393 ,1.11793 
362 ,67.5232 ,1.36921 ,0.08998 ,0.88288 
363 ,67.7151 ,1.37102 ,0.08998 ,0.88288 
364 ,67.9075 ,1.37303 ,0.06945 ,0.68141 
365 ,68.1154 ,1.37512 ,0.07971 ,0.78214 
366 ,68.3235 ,1.37720 ,0.05234 ,0.51352 
367 ,68.4994 ,1.37905 ,0.04549 ,0.44636 
368 ,68.6918 ,1.38079 ,0.04549 ,0.44636 
369 ,68.8836 ,1.38275 ,0.03180 ,0.31205 
370 ,69.0596 ,1.38463 ,0.00100 ,0.00984 
371 ,69.2517 ,1.38641 ,0.01811 ,0.17773 
372 ,69.4441 ,1.38844 ,0.01127 ,0.11058 
373 ,69.6199 ,1.39023 ,-0.00926 ,-0.09089 
374 ,69.8118 ,1.39208 ,-0.00242 ,-0.02373 
375 ,69.9877 ,1.39389 ,-0.02295 ,-0.22520 
376 ,70.1640 ,1.39562 ,-0.02980 ,-0.29236 
377 ,70.3885 ,1.39778 ,-0.03322 ,-0.32594 
378 ,70.5963 ,1.39988 ,-0.06060 ,-0.59457 
379 ,70.7886 ,1.40185 ,-0.06402 ,-0.62814 
380 ,70.9643 ,1.40371 ,-0.07428 ,-0.72888 
381 ,71.1405 ,1.40543 ,-0.08455 ,-0.82961 
382 ,71.3329 ,1.40730 ,-0.10508 ,-1.03108 
383 ,71.5248 ,1.40921 ,-0.10508 ,-1.03108 
384 ,71.7010 ,1.41102 ,-0.11193 ,-1.09824 
385 ,71.8769 ,1.41272 ,-0.12904 ,-1.26613 
386 ,72.0689 ,1.41463 ,-0.12562 ,-1.23255 
387 ,72.2613 ,1.41658 ,-0.14957 ,-1.46760 
388 ,72.4534 ,1.41852 ,-0.15299 ,-1.50118 
389 ,72.6294 ,1.42030 ,-0.17011 ,-1.66907 
390 ,72.8053 ,1.42202 ,-0.16326 ,-1.60191 
391 ,72.9975 ,1.42386 ,-0.19064 ,-1.87054 
392 ,73.1733 ,1.42568 ,-0.20090 ,-1.97128 
393 ,73.3498 ,1.42744 ,-0.20433 ,-2.00485 
394 ,73.5415 ,1.42945 ,-0.21117 ,-2.07201 
395 ,73.7178 ,1.43112 ,-0.21802 ,-2.13917 
396 ,73.8935 ,1.43294 ,-0.23513 ,-2.30706 
397 ,74.0539 ,1.43466 ,-0.24539 ,-2.40779 
398 ,74.2298 ,1.43629 ,-0.25566 ,-2.50853 
399 ,74.4221 ,1.43819 ,-0.24539 ,-2.40779 
400 ,74.6143 ,1.44011 ,-0.26593 ,-2.60926 
401 ,74.7904 ,1.44193 ,-0.27277 ,-2.67642 
402 ,74.9984 ,1.44391 ,-0.27619 ,-2.71000 
403 ,75.1745 ,1.44569 ,-0.30015 ,-2.94505 
404 ,75.3661 ,1.44760 ,-0.29330 ,-2.87789 
405 ,75.5426 ,1.44942 ,-0.29673 ,-2.91147 
406 ,75.7186 ,1.45117 ,-0.31041 ,-3.04578 
407 ,75.8948 ,1.45295 ,-0.33437 ,-3.28083 
408 ,76.0708 ,1.45468 ,-0.34806 ,-3.41514 
409 ,76.2468 ,1.45643 ,-0.34121 ,-3.34799 
410 ,76.4385 ,1.45837 ,-0.33437 ,-3.28083 
411 ,76.6151 ,1.46016 ,-0.36175 ,-3.54946 
412 ,76.8072 ,1.46203 ,-0.37544 ,-3.68377 
413 ,77.0153 ,1.46400 ,-0.38912 ,-3.81808 
414 ,77.2233 ,1.46611 ,-0.38570 ,-3.78450 
415 ,77.3995 ,1.46799 ,-0.39597 ,-3.88524 
416 ,77.5915 ,1.46989 ,-0.41308 ,-4.05313 
417 ,77.7673 ,1.47162 ,-0.43703 ,-4.28818 
418 ,77.9435 ,1.47337 ,-0.43361 ,-4.25460 
419 ,78.1196 ,1.47516 ,-0.42677 ,-4.18744 
420 ,78.2955 ,1.47691 ,-0.43703 ,-4.28818 
421 ,78.4879 ,1.47876 ,-0.46099 ,-4.52323 
422 ,78.6800 ,1.48076 ,-0.46099 ,-4.52323 
423 ,78.8556 ,1.48248 ,-0.47126 ,-4.62396 
424 ,79.0320 ,1.48427 ,-0.47126 ,-4.62396 
425 ,79.2083 ,1.48607 ,-0.49521 ,-4.85901 
426 ,79.4159 ,1.48806 ,-0.49179 ,-4.82543 
427 ,79.5924 ,1.48988 ,-0.50206 ,-4.92617 
428 ,79.7842 ,1.49176 ,-0.53285 ,-5.22837 
429 ,79.9605 ,1.49353 ,-0.52943 ,-5.19479 
430 ,80.1364 ,1.49529 ,-0.53970 ,-5.29553 
431 ,80.3281 ,1.49714 ,-0.54997 ,-5.39626 
432 ,80.5048 ,1.49899 ,-0.56365 ,-5.53058 
433 ,80.6809 ,1.50079 ,-0.57050 ,-5.59773 
434 ,80.8568 ,1.50254 ,-0.57734 ,-5.66489 
435 ,81.0489 ,1.50440 ,-0.57734 ,-5.66489 
436 ,81.2250 ,1.50624 ,-0.59788 ,-5.86636 
437 ,81.4171 ,1.50803 ,-0.60130 ,-5.89994 
438 ,81.6091 ,1.51000 ,-0.60472 ,-5.93352 
439 ,81.7853 ,1.51178 ,-0.61499 ,-6.03425 
440 ,81.9931 ,1.51372 ,-0.62525 ,-6.13499 
441 ,82.1854 ,1.51581 ,-0.64579 ,-6.33646 
442 ,82.3772 ,1.51765 ,-0.63894 ,-6.26930 
443 ,82.5696 ,1.51953 ,-0.65263 ,-6.40361 
444 ,82.7614 ,1.52148 ,-0.67659 ,-6.63866 
445 ,82.9373 ,1.52344 ,-0.67659 ,-6.63866 
446 ,83.1138 ,1.52507 ,-0.68001 ,-6.67224 
447 ,83.3057 ,1.52698 ,-0.68343 ,-6.70582 
448 ,83.4979 ,1.52883 ,-0.70396 ,-6.90729 
449 ,83.7059 ,1.53100 ,-0.71423 ,-7.00802 
450 ,83.8978 ,1.53282 ,-0.71765 ,-7.04160 
451 ,84.0741 ,1.53465 ,-0.73476 ,-7.20949 
452 ,84.2502 ,1.53642 ,-0.70396 ,-6.90729 
453 ,84.4263 ,1.53814 ,-0.73134 ,-7.17591 
454 ,84.6343 ,1.54029 ,-0.74845 ,-7.34380 
455 ,84.8104 ,1.54207 ,-0.75530 ,-7.41096 
456 ,84.9862 ,1.54380 ,-0.76214 ,-7.47812 
457 ,85.1465 ,1.54552 ,-0.77241 ,-7.57885 
458 ,85.3225 ,1.54718 ,-0.77241 ,-7.57885 
459 ,85.5308 ,1.54908 ,-0.77583 ,-7.61243 
460 ,85.7228 ,1.55106 ,-0.79636 ,-7.81390 
461 ,85.9152 ,1.55298 ,-0.80321 ,-7.88106 
462 ,86.1066 ,1.55499 ,-0.80663 ,-7.91464 
463 ,86.3146 ,1.55698 ,-0.83058 ,-8.14968 
