Data stamp = , 23-04-2022 05:51:16 772

Calibration Values: 
Slope = , 26.54 , g/V 
Offset Voltage at no contact = , -0.501760 , V 

No , Time , Stage Position ,   Mass , Force 
   ,  (s) ,      (mm)      ,   (g)  , (mN)  

1 ,0.0000 ,0.69936 ,5.30194 ,52.02263 
2 ,0.2296 ,0.69948 ,5.28825 ,51.88832 
3 ,0.5347 ,0.70033 ,5.30194 ,52.02263 
4 ,0.7424 ,0.70183 ,5.28825 ,51.88832 
5 ,0.9503 ,0.70361 ,5.29167 ,51.92190 
6 ,1.1425 ,0.70553 ,5.28141 ,51.82116 
7 ,1.3343 ,0.70740 ,5.28825 ,51.88832 
8 ,1.5102 ,0.70920 ,5.29510 ,51.95548 
9 ,1.6866 ,0.71095 ,5.27456 ,51.75401 
10 ,1.8627 ,0.71273 ,5.26772 ,51.68685 
11 ,2.0548 ,0.71461 ,5.25061 ,51.51896 
12 ,2.2310 ,0.71642 ,5.23007 ,51.31749 
13 ,2.4230 ,0.71843 ,5.22665 ,51.28391 
14 ,2.5987 ,0.72012 ,5.21296 ,51.14960 
15 ,2.7751 ,0.72190 ,5.17874 ,50.81381 
16 ,2.9513 ,0.72362 ,5.17874 ,50.81381 
17 ,3.1270 ,0.72544 ,5.14794 ,50.51161 
18 ,3.3194 ,0.72735 ,5.14452 ,50.47803 
19 ,3.5113 ,0.72917 ,5.11030 ,50.14225 
20 ,3.7032 ,0.73114 ,5.08634 ,49.90720 
21 ,3.8795 ,0.73293 ,5.08292 ,49.87362 
22 ,4.0557 ,0.73465 ,5.06239 ,49.67215 
23 ,4.2318 ,0.73649 ,5.05554 ,49.60499 
24 ,4.4079 ,0.73822 ,5.01106 ,49.16848 
25 ,4.5839 ,0.74003 ,5.02474 ,49.30279 
26 ,4.7595 ,0.74171 ,4.99394 ,49.00058 
27 ,4.9360 ,0.74346 ,4.99052 ,48.96701 
28 ,5.1123 ,0.74525 ,4.95630 ,48.63122 
29 ,5.3042 ,0.74707 ,4.94261 ,48.49691 
30 ,5.4804 ,0.74894 ,4.92550 ,48.32902 
31 ,5.6883 ,0.75090 ,4.89812 ,48.06039 
32 ,5.8642 ,0.75273 ,4.87075 ,47.79177 
33 ,6.0404 ,0.75453 ,4.86048 ,47.69103 
34 ,6.2162 ,0.75630 ,4.85364 ,47.62387 
35 ,6.3926 ,0.75806 ,4.83310 ,47.42240 
36 ,6.5687 ,0.75985 ,4.81257 ,47.22093 
37 ,6.7607 ,0.76166 ,4.81599 ,47.25451 
38 ,6.9368 ,0.76344 ,4.78861 ,46.98589 
39 ,7.1288 ,0.76541 ,4.75439 ,46.65010 
40 ,7.3369 ,0.76742 ,4.75097 ,46.61653 
41 ,7.5131 ,0.76924 ,4.73044 ,46.41506 
42 ,7.7051 ,0.77119 ,4.69279 ,46.04569 
43 ,7.8972 ,0.77300 ,4.68595 ,45.97854 
44 ,8.0892 ,0.77495 ,4.64831 ,45.60918 
45 ,8.2653 ,0.77673 ,4.63119 ,45.44128 
46 ,8.4414 ,0.77851 ,4.63119 ,45.44128 
47 ,8.6174 ,0.78030 ,4.61751 ,45.30697 
48 ,8.7935 ,0.78202 ,4.60382 ,45.17266 
49 ,8.9855 ,0.78392 ,4.56960 ,44.83688 
50 ,9.1778 ,0.78590 ,4.55249 ,44.66898 
51 ,9.3698 ,0.78778 ,4.52511 ,44.40036 
52 ,9.5460 ,0.78954 ,4.51142 ,44.26604 
53 ,9.7381 ,0.79139 ,4.49089 ,44.06457 
54 ,9.9141 ,0.79323 ,4.48746 ,44.03100 
55 ,10.1216 ,0.79526 ,4.47378 ,43.89668 
56 ,10.2983 ,0.79712 ,4.45666 ,43.72879 
57 ,10.4901 ,0.79899 ,4.42929 ,43.46016 
58 ,10.6663 ,0.80072 ,4.39849 ,43.15796 
59 ,10.8422 ,0.80252 ,4.39507 ,43.12438 
60 ,11.0185 ,0.80432 ,4.38822 ,43.05723 
61 ,11.2102 ,0.80617 ,4.34373 ,42.62071 
62 ,11.3706 ,0.80786 ,4.33689 ,42.55355 
63 ,11.5467 ,0.80956 ,4.32662 ,42.45282 
64 ,11.7226 ,0.81132 ,4.30951 ,42.28492 
65 ,11.8988 ,0.81305 ,4.31293 ,42.31850 
66 ,12.0909 ,0.81501 ,4.27529 ,41.94914 
67 ,12.2665 ,0.81680 ,4.25133 ,41.71409 
68 ,12.4433 ,0.81849 ,4.24791 ,41.68051 
69 ,12.6350 ,0.82044 ,4.23080 ,41.51262 
70 ,12.8271 ,0.82225 ,4.20342 ,41.24400 
71 ,13.0029 ,0.82413 ,4.18974 ,41.10968 
72 ,13.1792 ,0.82587 ,4.18631 ,41.07611 
73 ,13.3549 ,0.82764 ,4.14867 ,40.70674 
74 ,13.5312 ,0.82938 ,4.14867 ,40.70674 
75 ,13.7076 ,0.83116 ,4.10760 ,40.30380 
76 ,13.8995 ,0.83308 ,4.11445 ,40.37096 
77 ,14.0757 ,0.83482 ,4.09734 ,40.20307 
78 ,14.2677 ,0.83671 ,4.06654 ,39.90087 
79 ,14.4434 ,0.83850 ,4.05627 ,39.80013 
80 ,14.6200 ,0.84028 ,4.04600 ,39.69940 
81 ,14.8280 ,0.84229 ,4.02205 ,39.46435 
82 ,15.0041 ,0.84413 ,3.99467 ,39.19572 
83 ,15.1803 ,0.84588 ,3.99467 ,39.19572 
84 ,15.3722 ,0.84789 ,3.95703 ,38.82636 
85 ,15.5484 ,0.84954 ,3.94334 ,38.69205 
86 ,15.7723 ,0.85166 ,3.92281 ,38.49058 
87 ,15.9485 ,0.85353 ,3.90227 ,38.28911 
88 ,16.1406 ,0.85547 ,3.89543 ,38.22195 
89 ,16.3487 ,0.85748 ,3.87490 ,38.02048 
90 ,16.5245 ,0.85930 ,3.84752 ,37.75185 
91 ,16.7168 ,0.86121 ,3.84410 ,37.71828 
92 ,16.9089 ,0.86316 ,3.80987 ,37.38249 
93 ,17.1169 ,0.86516 ,3.79961 ,37.28176 
94 ,17.2929 ,0.86706 ,3.77908 ,37.08029 
95 ,17.4690 ,0.86876 ,3.77565 ,37.04671 
96 ,17.6449 ,0.87048 ,3.75170 ,36.81166 
97 ,17.8371 ,0.87236 ,3.74143 ,36.71093 
98 ,18.0294 ,0.87439 ,3.70721 ,36.37514 
99 ,18.2214 ,0.87622 ,3.71063 ,36.40872 
100 ,18.4135 ,0.87821 ,3.70037 ,36.30799 
101 ,18.5897 ,0.88001 ,3.66614 ,35.97220 
102 ,18.7815 ,0.88189 ,3.64219 ,35.73716 
103 ,18.9739 ,0.88375 ,3.62166 ,35.53569 
104 ,19.1659 ,0.88565 ,3.61481 ,35.46853 
105 ,19.3579 ,0.88759 ,3.60112 ,35.33422 
106 ,19.5339 ,0.88942 ,3.59086 ,35.23348 
107 ,19.7421 ,0.89143 ,3.57717 ,35.09917 
108 ,19.9181 ,0.89326 ,3.55321 ,34.86412 
109 ,20.1100 ,0.89509 ,3.51899 ,34.52834 
110 ,20.3023 ,0.89702 ,3.52241 ,34.56192 
111 ,20.4938 ,0.89892 ,3.47792 ,34.12540 
112 ,20.6703 ,0.90074 ,3.47792 ,34.12540 
113 ,20.8460 ,0.90247 ,3.46081 ,33.95751 
114 ,21.0381 ,0.90436 ,3.44713 ,33.82319 
115 ,21.2305 ,0.90625 ,3.42659 ,33.62172 
116 ,21.4067 ,0.90810 ,3.41975 ,33.55457 
117 ,21.5988 ,0.90994 ,3.39579 ,33.31952 
118 ,21.7907 ,0.91195 ,3.38210 ,33.18520 
119 ,21.9664 ,0.91371 ,3.34788 ,32.84942 
120 ,22.1430 ,0.91543 ,3.34788 ,32.84942 
121 ,22.3348 ,0.91731 ,3.33762 ,32.74869 
122 ,22.5110 ,0.91916 ,3.31024 ,32.48006 
123 ,22.6870 ,0.92091 ,3.27944 ,32.17786 
124 ,22.8792 ,0.92284 ,3.27944 ,32.17786 
125 ,23.0712 ,0.92472 ,3.24864 ,31.87565 
126 ,23.2475 ,0.92651 ,3.23495 ,31.74134 
127 ,23.4395 ,0.92833 ,3.22811 ,31.67418 
128 ,23.6477 ,0.93045 ,3.21784 ,31.57345 
129 ,23.8395 ,0.93237 ,3.20415 ,31.43913 
130 ,24.0158 ,0.93421 ,3.18020 ,31.20409 
131 ,24.2399 ,0.93630 ,3.17677 ,31.17051 
132 ,24.4317 ,0.93839 ,3.13913 ,30.80115 
133 ,24.6240 ,0.94024 ,3.13913 ,30.80115 
134 ,24.8160 ,0.94214 ,3.11518 ,30.56610 
135 ,25.0082 ,0.94402 ,3.09464 ,30.36463 
136 ,25.2163 ,0.94609 ,3.07753 ,30.19674 
137 ,25.4242 ,0.94820 ,3.07069 ,30.12958 
138 ,25.6004 ,0.95008 ,3.06726 ,30.09600 
139 ,25.7923 ,0.95194 ,3.01251 ,29.55875 
140 ,25.9685 ,0.95372 ,3.00909 ,29.52517 
141 ,26.1606 ,0.95568 ,3.00567 ,29.49159 
142 ,26.3367 ,0.95744 ,2.97829 ,29.22297 
143 ,26.5285 ,0.95932 ,2.95433 ,28.98792 
144 ,26.7046 ,0.96104 ,2.95091 ,28.95434 
145 ,26.8965 ,0.96295 ,2.94407 ,28.88718 
146 ,27.1048 ,0.96500 ,2.92696 ,28.71929 
147 ,27.2966 ,0.96688 ,2.91669 ,28.61856 
148 ,27.4891 ,0.96885 ,2.88247 ,28.28277 
149 ,27.6812 ,0.97088 ,2.87905 ,28.24919 
150 ,27.8732 ,0.97277 ,2.85167 ,27.98057 
151 ,28.0492 ,0.97458 ,2.85509 ,28.01415 
152 ,28.2252 ,0.97626 ,2.81745 ,27.64479 
153 ,28.4010 ,0.97802 ,2.81402 ,27.61121 
154 ,28.5773 ,0.97983 ,2.80376 ,27.51047 
155 ,28.7695 ,0.98175 ,2.78322 ,27.30900 
156 ,28.9458 ,0.98344 ,2.77296 ,27.20827 
157 ,29.1215 ,0.98523 ,2.75243 ,27.00680 
158 ,29.3138 ,0.98717 ,2.72847 ,26.77175 
159 ,29.4899 ,0.98889 ,2.71820 ,26.67101 
160 ,29.6979 ,0.99090 ,2.71136 ,26.60386 
161 ,29.9059 ,0.99299 ,2.68398 ,26.33523 
162 ,30.1138 ,0.99507 ,2.67029 ,26.20092 
163 ,30.2901 ,0.99690 ,2.65318 ,26.03303 
164 ,30.4821 ,0.99883 ,2.65660 ,26.06661 
165 ,30.6583 ,1.00057 ,2.64634 ,25.96587 
166 ,30.8503 ,1.00254 ,2.60527 ,25.56293 
167 ,31.0104 ,1.00423 ,2.60527 ,25.56293 
168 ,31.1864 ,1.00587 ,2.58132 ,25.32788 
169 ,31.3946 ,1.00790 ,2.56078 ,25.12641 
170 ,31.5863 ,1.00981 ,2.55052 ,25.02568 
171 ,31.7628 ,1.01165 ,2.54025 ,24.92494 
172 ,31.9710 ,1.01363 ,2.51287 ,24.65632 
173 ,32.1790 ,1.01570 ,2.52314 ,24.75705 
174 ,32.3547 ,1.01761 ,2.50261 ,24.55558 
175 ,32.5311 ,1.01934 ,2.46496 ,24.18622 
176 ,32.7232 ,1.02121 ,2.46839 ,24.21980 
177 ,32.9312 ,1.02322 ,2.43416 ,23.88402 
178 ,33.1394 ,1.02523 ,2.44443 ,23.98475 
179 ,33.3314 ,1.02723 ,2.42390 ,23.78328 
180 ,33.5396 ,1.02938 ,2.41021 ,23.64897 
181 ,33.7311 ,1.03125 ,2.37941 ,23.34676 
182 ,33.9236 ,1.03319 ,2.38283 ,23.38034 
183 ,34.1313 ,1.03527 ,2.34177 ,22.97740 
184 ,34.3078 ,1.03708 ,2.33150 ,22.87667 
185 ,34.4998 ,1.03902 ,2.32808 ,22.84309 
186 ,34.6919 ,1.04087 ,2.29043 ,22.47373 
187 ,34.8680 ,1.04275 ,2.30070 ,22.57446 
188 ,35.0440 ,1.04443 ,2.27674 ,22.33941 
189 ,35.2361 ,1.04629 ,2.28017 ,22.37299 
190 ,35.4121 ,1.04817 ,2.24594 ,22.03721 
191 ,35.6043 ,1.05001 ,2.24252 ,22.00363 
192 ,35.7962 ,1.05186 ,2.20488 ,21.63427 
193 ,35.9724 ,1.05370 ,2.19461 ,21.53353 
194 ,36.1642 ,1.05558 ,2.19119 ,21.49996 
195 ,36.3407 ,1.05737 ,2.17750 ,21.36564 
196 ,36.5167 ,1.05921 ,2.16723 ,21.26491 
197 ,36.7085 ,1.06110 ,2.14328 ,21.02986 
198 ,36.9008 ,1.06295 ,2.13644 ,20.96270 
199 ,37.0926 ,1.06489 ,2.11590 ,20.76123 
200 ,37.2847 ,1.06684 ,2.09879 ,20.59334 
201 ,37.4930 ,1.06885 ,2.08168 ,20.42545 
202 ,37.6692 ,1.07071 ,2.06115 ,20.22398 
203 ,37.8607 ,1.07253 ,2.07826 ,20.39187 
204 ,38.0368 ,1.07436 ,2.04404 ,20.05609 
205 ,38.2133 ,1.07611 ,2.03719 ,19.98893 
206 ,38.4215 ,1.07811 ,2.02693 ,19.88820 
207 ,38.6133 ,1.08005 ,1.98586 ,19.48526 
208 ,38.7894 ,1.08191 ,1.97902 ,19.41810 
209 ,38.9656 ,1.08363 ,1.97217 ,19.35094 
210 ,39.1738 ,1.08566 ,1.95164 ,19.14948 
211 ,39.3655 ,1.08766 ,1.93111 ,18.94801 
212 ,39.5578 ,1.08960 ,1.94137 ,19.04874 
213 ,39.7339 ,1.09135 ,1.91057 ,18.74654 
214 ,39.9258 ,1.09323 ,1.89346 ,18.57864 
215 ,40.1179 ,1.09508 ,1.89346 ,18.57864 
216 ,40.3101 ,1.09703 ,1.87293 ,18.37717 
217 ,40.5182 ,1.09913 ,1.86266 ,18.27644 
218 ,40.6943 ,1.10096 ,1.83528 ,18.00781 
219 ,40.8704 ,1.10268 ,1.81817 ,17.83992 
220 ,41.0625 ,1.10458 ,1.83186 ,17.97423 
221 ,41.2542 ,1.10643 ,1.80449 ,17.70561 
222 ,41.4307 ,1.10830 ,1.78395 ,17.50414 
223 ,41.6226 ,1.11021 ,1.77369 ,17.40340 
224 ,41.7983 ,1.11198 ,1.78395 ,17.50414 
225 ,41.9744 ,1.11367 ,1.75657 ,17.23551 
226 ,42.1509 ,1.11545 ,1.72920 ,16.96689 
227 ,42.3106 ,1.11720 ,1.70866 ,16.76542 
228 ,42.4708 ,1.11882 ,1.70182 ,16.69826 
229 ,42.6472 ,1.12042 ,1.68813 ,16.56395 
230 ,42.8230 ,1.12220 ,1.69155 ,16.59752 
231 ,43.0150 ,1.12407 ,1.66075 ,16.29532 
232 ,43.1909 ,1.12585 ,1.66075 ,16.29532 
233 ,43.3509 ,1.12762 ,1.63680 ,16.06027 
234 ,43.5270 ,1.12926 ,1.64364 ,16.12743 
235 ,43.7035 ,1.13095 ,1.61969 ,15.89238 
236 ,43.8952 ,1.13284 ,1.60600 ,15.75807 
237 ,44.0877 ,1.13487 ,1.58547 ,15.55660 
238 ,44.2955 ,1.13688 ,1.57862 ,15.48944 
239 ,44.4712 ,1.13864 ,1.56836 ,15.38871 
240 ,44.6479 ,1.14046 ,1.54098 ,15.12008 
241 ,44.8240 ,1.14218 ,1.53071 ,15.01934 
242 ,45.0000 ,1.14396 ,1.54440 ,15.15366 
243 ,45.1918 ,1.14581 ,1.51702 ,14.88503 
244 ,45.3840 ,1.14775 ,1.50333 ,14.75072 
245 ,45.5598 ,1.14955 ,1.48965 ,14.61640 
246 ,45.7363 ,1.15134 ,1.48965 ,14.61640 
247 ,45.9280 ,1.15326 ,1.46227 ,14.34778 
248 ,46.1044 ,1.15497 ,1.44858 ,14.21346 
249 ,46.3121 ,1.15707 ,1.43147 ,14.04557 
250 ,46.5045 ,1.15896 ,1.42462 ,13.97842 
251 ,46.7125 ,1.16102 ,1.41436 ,13.87768 
252 ,46.9047 ,1.16301 ,1.39040 ,13.64263 
253 ,47.0967 ,1.16481 ,1.38698 ,13.60906 
254 ,47.2888 ,1.16676 ,1.35960 ,13.34043 
255 ,47.4967 ,1.16881 ,1.35960 ,13.34043 
256 ,47.6885 ,1.17087 ,1.33565 ,13.10538 
257 ,47.8649 ,1.17263 ,1.32196 ,12.97107 
258 ,48.0412 ,1.17435 ,1.30485 ,12.80318 
259 ,48.2648 ,1.17645 ,1.29458 ,12.70244 
260 ,48.4418 ,1.17832 ,1.28089 ,12.56813 
261 ,48.6332 ,1.18026 ,1.28089 ,12.56813 
262 ,48.8094 ,1.18202 ,1.25694 ,12.33308 
263 ,48.9854 ,1.18375 ,1.23298 ,12.09803 
264 ,49.1615 ,1.18556 ,1.24667 ,12.23235 
265 ,49.3377 ,1.18730 ,1.23298 ,12.09803 
266 ,49.5137 ,1.18907 ,1.22272 ,11.99730 
267 ,49.7057 ,1.19091 ,1.20218 ,11.79583 
268 ,49.8817 ,1.19275 ,1.18165 ,11.59436 
269 ,50.0580 ,1.19454 ,1.17481 ,11.52720 
270 ,50.2501 ,1.19638 ,1.15085 ,11.29215 
271 ,50.4421 ,1.19836 ,1.13716 ,11.15784 
272 ,50.6183 ,1.20017 ,1.14743 ,11.25857 
273 ,50.8263 ,1.20209 ,1.11663 ,10.95637 
274 ,51.0023 ,1.20394 ,1.08925 ,10.68774 
275 ,51.2104 ,1.20592 ,1.09952 ,10.78848 
276 ,51.4024 ,1.20795 ,1.06872 ,10.48627 
277 ,51.5786 ,1.20973 ,1.06187 ,10.41912 
278 ,51.7706 ,1.21162 ,1.05845 ,10.38554 
279 ,51.9622 ,1.21347 ,1.03108 ,10.11691 
280 ,52.1383 ,1.21537 ,1.03108 ,10.11691 
281 ,52.3144 ,1.21709 ,1.02765 ,10.08333 
282 ,52.5067 ,1.21903 ,0.98659 ,9.68039 
283 ,52.6991 ,1.22094 ,1.00028 ,9.81471 
284 ,52.8909 ,1.22277 ,0.98317 ,9.64682 
285 ,53.0507 ,1.22457 ,0.94894 ,9.31103 
286 ,53.2272 ,1.22624 ,0.95237 ,9.34461 
287 ,53.4193 ,1.22809 ,0.94894 ,9.31103 
288 ,53.6113 ,1.23000 ,0.91472 ,8.97525 
289 ,53.8029 ,1.23188 ,0.91130 ,8.94167 
290 ,53.9954 ,1.23384 ,0.90788 ,8.90809 
291 ,54.2031 ,1.23591 ,0.88734 ,8.70662 
292 ,54.3796 ,1.23771 ,0.86681 ,8.50515 
293 ,54.5554 ,1.23946 ,0.87023 ,8.53873 
294 ,54.7480 ,1.24140 ,0.84970 ,8.33726 
295 ,54.9400 ,1.24341 ,0.84286 ,8.27011 
296 ,55.1159 ,1.24504 ,0.83601 ,8.20295 
297 ,55.2920 ,1.24684 ,0.82232 ,8.06864 
298 ,55.4681 ,1.24862 ,0.81206 ,7.96790 
299 ,55.6602 ,1.25055 ,0.79495 ,7.80001 
300 ,55.8683 ,1.25252 ,0.77784 ,7.63212 
301 ,56.0604 ,1.25452 ,0.75730 ,7.43065 
302 ,56.2362 ,1.25634 ,0.77784 ,7.63212 
303 ,56.4441 ,1.25818 ,0.73335 ,7.19560 
304 ,56.6364 ,1.26029 ,0.72992 ,7.16202 
305 ,56.8120 ,1.26202 ,0.73677 ,7.22918 
306 ,57.0047 ,1.26393 ,0.69913 ,6.85982 
307 ,57.1968 ,1.26581 ,0.70255 ,6.89340 
308 ,57.4044 ,1.26787 ,0.67517 ,6.62477 
309 ,57.5810 ,1.26972 ,0.66148 ,6.49046 
310 ,57.7890 ,1.27173 ,0.65806 ,6.45688 
311 ,57.9650 ,1.27355 ,0.64779 ,6.35614 
312 ,58.1733 ,1.27549 ,0.64437 ,6.32256 
313 ,58.3649 ,1.27759 ,0.61015 ,5.98678 
314 ,58.5251 ,1.27927 ,0.60330 ,5.91962 
315 ,58.7176 ,1.28100 ,0.58962 ,5.78531 
316 ,58.9095 ,1.28298 ,0.58277 ,5.71815 
317 ,59.1015 ,1.28492 ,0.56908 ,5.58384 
318 ,59.2777 ,1.28672 ,0.55882 ,5.48311 
319 ,59.4694 ,1.28861 ,0.56908 ,5.58384 
320 ,59.6458 ,1.29035 ,0.55539 ,5.44953 
321 ,59.8535 ,1.29233 ,0.51091 ,5.01301 
322 ,60.0460 ,1.29427 ,0.53144 ,5.21448 
323 ,60.2540 ,1.29639 ,0.51091 ,5.01301 
324 ,60.4466 ,1.29826 ,0.51433 ,5.04659 
325 ,60.6217 ,1.30014 ,0.46642 ,4.57649 
326 ,60.7982 ,1.30187 ,0.47326 ,4.64365 
327 ,60.9743 ,1.30365 ,0.46984 ,4.61007 
328 ,61.1664 ,1.30550 ,0.45273 ,4.44218 
329 ,61.3585 ,1.30746 ,0.45273 ,4.44218 
330 ,61.5663 ,1.30957 ,0.43904 ,4.30787 
331 ,61.7426 ,1.31129 ,0.41166 ,4.03924 
332 ,61.9185 ,1.31304 ,0.39797 ,3.90493 
333 ,62.0947 ,1.31482 ,0.39797 ,3.90493 
334 ,62.2710 ,1.31661 ,0.39797 ,3.90493 
335 ,62.4632 ,1.31853 ,0.38429 ,3.77061 
336 ,62.6552 ,1.32049 ,0.37402 ,3.66988 
337 ,62.8310 ,1.32232 ,0.36718 ,3.60272 
338 ,63.0072 ,1.32399 ,0.35349 ,3.46841 
339 ,63.1833 ,1.32571 ,0.32953 ,3.23336 
340 ,63.3915 ,1.32776 ,0.34322 ,3.36767 
341 ,63.5834 ,1.32970 ,0.31242 ,3.06547 
342 ,63.7595 ,1.33149 ,0.29873 ,2.93116 
343 ,63.9517 ,1.33337 ,0.30215 ,2.96473 
344 ,64.1275 ,1.33528 ,0.27135 ,2.66253 
345 ,64.3036 ,1.33693 ,0.27820 ,2.72969 
346 ,64.5116 ,1.33895 ,0.26451 ,2.59537 
347 ,64.6877 ,1.34072 ,0.25767 ,2.52822 
348 ,64.8635 ,1.34253 ,0.23371 ,2.29317 
349 ,65.0402 ,1.34429 ,0.23029 ,2.25959 
350 ,65.2480 ,1.34629 ,0.21318 ,2.09170 
351 ,65.4407 ,1.34827 ,0.20291 ,1.99096 
352 ,65.6319 ,1.35019 ,0.18922 ,1.85665 
353 ,65.8240 ,1.35210 ,0.18922 ,1.85665 
354 ,66.0000 ,1.35391 ,0.16869 ,1.65518 
355 ,66.1764 ,1.35561 ,0.16185 ,1.58802 
356 ,66.3842 ,1.35755 ,0.15500 ,1.52087 
357 ,66.5606 ,1.35946 ,0.12762 ,1.25224 
358 ,66.7368 ,1.36127 ,0.12420 ,1.21866 
359 ,66.9128 ,1.36303 ,0.13105 ,1.28582 
360 ,67.1208 ,1.36493 ,0.09682 ,0.95004 
361 ,67.2969 ,1.36679 ,0.10367 ,1.01719 
362 ,67.4731 ,1.36862 ,0.08998 ,0.88288 
363 ,67.6649 ,1.37050 ,0.08314 ,0.81572 
364 ,67.8571 ,1.37242 ,0.05918 ,0.58067 
365 ,68.0333 ,1.37421 ,0.06602 ,0.64783 
366 ,68.2250 ,1.37612 ,0.05576 ,0.54710 
367 ,68.4335 ,1.37813 ,0.03865 ,0.37920 
368 ,68.6254 ,1.38006 ,0.02838 ,0.27847 
369 ,68.8016 ,1.38191 ,0.01469 ,0.14416 
370 ,68.9935 ,1.38388 ,0.02838 ,0.27847 
371 ,69.1695 ,1.38560 ,-0.00242 ,-0.02373 
372 ,69.3618 ,1.38749 ,-0.00584 ,-0.05731 
373 ,69.5538 ,1.38946 ,-0.02637 ,-0.25878 
374 ,69.7294 ,1.39116 ,-0.02637 ,-0.25878 
375 ,69.8896 ,1.39286 ,-0.04006 ,-0.39310 
376 ,70.0661 ,1.39452 ,-0.04006 ,-0.39310 
377 ,70.2577 ,1.39646 ,-0.06060 ,-0.59457 
378 ,70.4343 ,1.39819 ,-0.07086 ,-0.69530 
379 ,70.6422 ,1.40026 ,-0.08455 ,-0.82961 
380 ,70.8504 ,1.40229 ,-0.07771 ,-0.76246 
381 ,71.0263 ,1.40409 ,-0.09482 ,-0.93035 
382 ,71.2186 ,1.40602 ,-0.11193 ,-1.09824 
383 ,71.4105 ,1.40796 ,-0.11193 ,-1.09824 
384 ,71.5706 ,1.40970 ,-0.11877 ,-1.16540 
385 ,71.7467 ,1.41129 ,-0.13246 ,-1.29971 
386 ,71.9228 ,1.41306 ,-0.14957 ,-1.46760 
387 ,72.1149 ,1.41507 ,-0.13931 ,-1.36687 
388 ,72.2910 ,1.41676 ,-0.15984 ,-1.56834 
389 ,72.4830 ,1.41876 ,-0.19064 ,-1.87054 
390 ,72.6592 ,1.42045 ,-0.19406 ,-1.90412 
391 ,72.8352 ,1.42224 ,-0.20433 ,-2.00485 
392 ,73.0272 ,1.42406 ,-0.20090 ,-1.97128 
393 ,73.2032 ,1.42585 ,-0.21802 ,-2.13917 
394 ,73.3953 ,1.42772 ,-0.21802 ,-2.13917 
395 ,73.5714 ,1.42956 ,-0.22486 ,-2.20632 
396 ,73.7635 ,1.43145 ,-0.25224 ,-2.47495 
397 ,73.9397 ,1.43323 ,-0.26935 ,-2.64284 
398 ,74.1315 ,1.43520 ,-0.26935 ,-2.64284 
399 ,74.3237 ,1.43703 ,-0.26593 ,-2.60926 
400 ,74.5315 ,1.43910 ,-0.26935 ,-2.64284 
401 ,74.7080 ,1.44088 ,-0.27619 ,-2.71000 
402 ,74.9157 ,1.44297 ,-0.30015 ,-2.94505 
403 ,75.1080 ,1.44492 ,-0.29673 ,-2.91147 
404 ,75.2838 ,1.44665 ,-0.31041 ,-3.04578 
405 ,75.5083 ,1.44875 ,-0.31726 ,-3.11294 
406 ,75.6841 ,1.45068 ,-0.32068 ,-3.14652 
407 ,75.8603 ,1.45243 ,-0.35832 ,-3.51588 
408 ,76.0364 ,1.45423 ,-0.35832 ,-3.51588 
409 ,76.2285 ,1.45613 ,-0.36175 ,-3.54946 
410 ,76.4046 ,1.45788 ,-0.36517 ,-3.58303 
411 ,76.5966 ,1.45979 ,-0.38912 ,-3.81808 
412 ,76.7725 ,1.46155 ,-0.39939 ,-3.91882 
413 ,76.9646 ,1.46346 ,-0.40281 ,-3.95240 
414 ,77.1410 ,1.46528 ,-0.40623 ,-3.98597 
415 ,77.3492 ,1.46728 ,-0.41308 ,-4.05313 
416 ,77.5570 ,1.46923 ,-0.43361 ,-4.25460 
417 ,77.7490 ,1.47133 ,-0.43019 ,-4.22102 
418 ,77.9251 ,1.47315 ,-0.45757 ,-4.48965 
419 ,78.1013 ,1.47486 ,-0.45414 ,-4.45607 
420 ,78.2934 ,1.47669 ,-0.46441 ,-4.55681 
421 ,78.4854 ,1.47865 ,-0.47468 ,-4.65754 
422 ,78.6775 ,1.48050 ,-0.49863 ,-4.89259 
423 ,78.8691 ,1.48255 ,-0.50890 ,-4.99332 
424 ,79.0455 ,1.48429 ,-0.48494 ,-4.75828 
425 ,79.2374 ,1.48623 ,-0.51232 ,-5.02690 
426 ,79.4138 ,1.48793 ,-0.52601 ,-5.16121 
427 ,79.6058 ,1.48981 ,-0.51917 ,-5.09406 
428 ,79.7980 ,1.49176 ,-0.53970 ,-5.29553 
429 ,79.9900 ,1.49373 ,-0.53970 ,-5.29553 
430 ,80.1661 ,1.49553 ,-0.54654 ,-5.36268 
431 ,80.3581 ,1.49739 ,-0.57050 ,-5.59773 
432 ,80.5340 ,1.49915 ,-0.58077 ,-5.69847 
433 ,80.7262 ,1.50109 ,-0.58077 ,-5.69847 
434 ,80.9024 ,1.50289 ,-0.60130 ,-5.89994 
435 ,81.0784 ,1.50462 ,-0.60130 ,-5.89994 
436 ,81.2705 ,1.50650 ,-0.61156 ,-6.00067 
437 ,81.4622 ,1.50844 ,-0.60472 ,-5.93352 
438 ,81.6387 ,1.51022 ,-0.63210 ,-6.20214 
439 ,81.8145 ,1.51191 ,-0.64579 ,-6.33646 
440 ,82.0067 ,1.51386 ,-0.63894 ,-6.26930 
441 ,82.2147 ,1.51592 ,-0.66974 ,-6.57150 
442 ,82.4230 ,1.51799 ,-0.64921 ,-6.37003 
443 ,82.6148 ,1.51988 ,-0.67659 ,-6.63866 
444 ,82.8071 ,1.52185 ,-0.66974 ,-6.57150 
445 ,82.9831 ,1.52370 ,-0.69712 ,-6.84013 
446 ,83.1589 ,1.52541 ,-0.71081 ,-6.97444 
447 ,83.3353 ,1.52721 ,-0.71765 ,-7.04160 
448 ,83.5273 ,1.52909 ,-0.71081 ,-6.97444 
449 ,83.7196 ,1.53096 ,-0.73818 ,-7.24307 
450 ,83.9116 ,1.53291 ,-0.75187 ,-7.37738 
451 ,84.0877 ,1.53470 ,-0.75530 ,-7.41096 
452 ,84.2637 ,1.53641 ,-0.73818 ,-7.24307 
453 ,84.4559 ,1.53839 ,-0.75872 ,-7.44454 
454 ,84.6478 ,1.54027 ,-0.76556 ,-7.51170 
455 ,84.8236 ,1.54204 ,-0.76214 ,-7.47812 
456 ,84.9996 ,1.54383 ,-0.76214 ,-7.47812 
457 ,85.1762 ,1.54552 ,-0.79636 ,-7.81390 
458 ,85.3841 ,1.54760 ,-0.79636 ,-7.81390 
459 ,85.5922 ,1.54964 ,-0.80321 ,-7.88106 
460 ,85.7684 ,1.55150 ,-0.82374 ,-8.08253 
461 ,85.9604 ,1.55336 ,-0.82032 ,-8.04895 
462 ,86.1525 ,1.55523 ,-0.83401 ,-8.18326 
463 ,86.3442 ,1.55721 ,-0.82716 ,-8.11611 
