Data stamp = , 23-04-2022 02:55:36 174

Calibration Values: 
Slope = , 26.54 , g/V 
Offset Voltage at no contact = , -0.501760 , V 

No , Time , Stage Position ,   Mass , Force 
   ,  (s) ,      (mm)      ,   (g)  , (mN)  

1 ,0.0000 ,0.69942 ,5.33958 ,52.39199 
2 ,0.2180 ,0.69952 ,5.33958 ,52.39199 
3 ,0.6026 ,0.70056 ,5.33616 ,52.35841 
4 ,0.8105 ,0.70243 ,5.32932 ,52.29126 
5 ,1.0027 ,0.70420 ,5.34643 ,52.45915 
6 ,1.1948 ,0.70613 ,5.34301 ,52.42557 
7 ,1.3709 ,0.70791 ,5.34643 ,52.45915 
8 ,1.5631 ,0.70976 ,5.35327 ,52.52631 
9 ,1.7548 ,0.71167 ,5.33274 ,52.32484 
10 ,1.9312 ,0.71359 ,5.32932 ,52.29126 
11 ,2.1232 ,0.71540 ,5.32932 ,52.29126 
12 ,2.2995 ,0.71719 ,5.30194 ,52.02263 
13 ,2.4912 ,0.71904 ,5.27798 ,51.78758 
14 ,2.6835 ,0.72098 ,5.27798 ,51.78758 
15 ,2.8596 ,0.72280 ,5.25403 ,51.55254 
16 ,3.0358 ,0.72454 ,5.24376 ,51.45180 
17 ,3.2437 ,0.72662 ,5.21296 ,51.14960 
18 ,3.4195 ,0.72836 ,5.20954 ,51.11602 
19 ,3.6119 ,0.73024 ,5.15821 ,50.61234 
20 ,3.8041 ,0.73223 ,5.15479 ,50.57876 
21 ,4.0121 ,0.73420 ,5.14794 ,50.51161 
22 ,4.2042 ,0.73627 ,5.12399 ,50.27656 
23 ,4.3964 ,0.73814 ,5.11372 ,50.17583 
24 ,4.5722 ,0.73993 ,5.09661 ,50.00793 
25 ,4.7803 ,0.74188 ,5.06239 ,49.67215 
26 ,4.9564 ,0.74370 ,5.05554 ,49.60499 
27 ,5.1645 ,0.74582 ,5.00763 ,49.13490 
28 ,5.3566 ,0.74764 ,5.01448 ,49.20205 
29 ,5.5482 ,0.74968 ,4.97683 ,48.83269 
30 ,5.7408 ,0.75150 ,4.95972 ,48.66480 
31 ,5.9327 ,0.75351 ,4.94261 ,48.49691 
32 ,6.1090 ,0.75528 ,4.91866 ,48.26186 
33 ,6.3010 ,0.75716 ,4.92208 ,48.29544 
34 ,6.4770 ,0.75899 ,4.90155 ,48.09397 
35 ,6.6527 ,0.76077 ,4.86390 ,47.72461 
36 ,6.8448 ,0.76259 ,4.87075 ,47.79177 
37 ,7.0208 ,0.76436 ,4.85706 ,47.65745 
38 ,7.1968 ,0.76611 ,4.83310 ,47.42240 
39 ,7.3729 ,0.76788 ,4.78861 ,46.98589 
40 ,7.5495 ,0.76969 ,4.78519 ,46.95231 
41 ,7.7410 ,0.77172 ,4.76808 ,46.78442 
42 ,7.9336 ,0.77350 ,4.74755 ,46.58295 
43 ,8.1257 ,0.77542 ,4.72017 ,46.31432 
44 ,8.3179 ,0.77737 ,4.72702 ,46.38148 
45 ,8.5257 ,0.77927 ,4.70306 ,46.14643 
46 ,8.7020 ,0.78118 ,4.68253 ,45.94496 
47 ,8.8779 ,0.78297 ,4.66884 ,45.81065 
48 ,9.0542 ,0.78473 ,4.65857 ,45.70991 
49 ,9.2462 ,0.78664 ,4.61408 ,45.27339 
50 ,9.4223 ,0.78841 ,4.60040 ,45.13908 
51 ,9.5985 ,0.79013 ,4.59355 ,45.07192 
52 ,9.7905 ,0.79208 ,4.56617 ,44.80330 
53 ,9.9825 ,0.79390 ,4.55933 ,44.73614 
54 ,10.1745 ,0.79584 ,4.54906 ,44.63541 
55 ,10.3506 ,0.79769 ,4.51484 ,44.29962 
56 ,10.5268 ,0.79943 ,4.48404 ,43.99742 
57 ,10.7345 ,0.80142 ,4.48404 ,43.99742 
58 ,10.9425 ,0.80361 ,4.46693 ,43.82953 
59 ,11.1191 ,0.80539 ,4.44982 ,43.66163 
60 ,11.3111 ,0.80724 ,4.42586 ,43.42659 
61 ,11.5031 ,0.80918 ,4.40875 ,43.25870 
62 ,11.6791 ,0.81095 ,4.39164 ,43.09080 
63 ,11.8548 ,0.81273 ,4.38822 ,43.05723 
64 ,12.0309 ,0.81444 ,4.34031 ,42.58713 
65 ,12.2072 ,0.81623 ,4.32662 ,42.45282 
66 ,12.4154 ,0.81823 ,4.31978 ,42.38566 
67 ,12.5917 ,0.82008 ,4.29582 ,42.15061 
68 ,12.7997 ,0.82211 ,4.29582 ,42.15061 
69 ,12.9755 ,0.82385 ,4.27871 ,41.98272 
70 ,13.1676 ,0.82585 ,4.25133 ,41.71409 
71 ,13.3599 ,0.82778 ,4.23422 ,41.54620 
72 ,13.5359 ,0.82952 ,4.23080 ,41.51262 
73 ,13.7595 ,0.83158 ,4.18289 ,41.04253 
74 ,13.9521 ,0.83368 ,4.16920 ,40.90821 
75 ,14.1279 ,0.83541 ,4.14525 ,40.67317 
76 ,14.3203 ,0.83731 ,4.13840 ,40.60601 
77 ,14.5122 ,0.83923 ,4.12129 ,40.43812 
78 ,14.6724 ,0.84097 ,4.09734 ,40.20307 
79 ,14.8485 ,0.84267 ,4.08023 ,40.03518 
80 ,15.0566 ,0.84461 ,4.06996 ,39.93444 
81 ,15.2644 ,0.84671 ,4.05285 ,39.76655 
82 ,15.4408 ,0.84856 ,4.04258 ,39.66582 
83 ,15.6327 ,0.85047 ,4.01520 ,39.39719 
84 ,15.8246 ,0.85239 ,3.98098 ,39.06141 
85 ,16.0013 ,0.85416 ,3.97756 ,39.02783 
86 ,16.2091 ,0.85608 ,3.97414 ,38.99425 
87 ,16.4172 ,0.85822 ,3.95703 ,38.82636 
88 ,16.6093 ,0.86022 ,3.92623 ,38.52415 
89 ,16.8013 ,0.86216 ,3.89885 ,38.25553 
90 ,16.9773 ,0.86391 ,3.89885 ,38.25553 
91 ,17.1533 ,0.86570 ,3.87490 ,38.02048 
92 ,17.3296 ,0.86744 ,3.85779 ,37.85259 
93 ,17.5214 ,0.86930 ,3.84067 ,37.68470 
94 ,17.6976 ,0.87124 ,3.82699 ,37.55038 
95 ,17.8899 ,0.87296 ,3.81672 ,37.44965 
96 ,18.0818 ,0.87487 ,3.76539 ,36.94597 
97 ,18.2898 ,0.87698 ,3.75512 ,36.84524 
98 ,18.4816 ,0.87895 ,3.73801 ,36.67735 
99 ,18.6578 ,0.88068 ,3.75512 ,36.84524 
100 ,18.8341 ,0.88246 ,3.72432 ,36.54303 
101 ,19.0260 ,0.88436 ,3.70037 ,36.30799 
102 ,19.2023 ,0.88614 ,3.67641 ,36.07294 
103 ,19.3783 ,0.88796 ,3.67299 ,36.03936 
104 ,19.5542 ,0.88963 ,3.65930 ,35.90505 
105 ,19.7304 ,0.89147 ,3.63877 ,35.70358 
106 ,19.9383 ,0.89344 ,3.62850 ,35.60284 
107 ,20.1307 ,0.89533 ,3.59428 ,35.26706 
108 ,20.3386 ,0.89745 ,3.58401 ,35.16632 
109 ,20.5307 ,0.89943 ,3.56348 ,34.96485 
110 ,20.6907 ,0.90113 ,3.53610 ,34.69623 
111 ,20.8668 ,0.90277 ,3.51899 ,34.52834 
112 ,21.0429 ,0.90453 ,3.50872 ,34.42760 
113 ,21.2348 ,0.90644 ,3.51557 ,34.49476 
114 ,21.4110 ,0.90825 ,3.48819 ,34.22613 
115 ,21.5872 ,0.91001 ,3.46424 ,33.99108 
116 ,21.7632 ,0.91173 ,3.44028 ,33.75604 
117 ,21.9552 ,0.91365 ,3.44713 ,33.82319 
118 ,22.1474 ,0.91552 ,3.41290 ,33.48741 
119 ,22.3553 ,0.91760 ,3.41290 ,33.48741 
120 ,22.5315 ,0.91943 ,3.39237 ,33.28594 
121 ,22.7072 ,0.92115 ,3.36842 ,33.05089 
122 ,22.8998 ,0.92301 ,3.33762 ,32.74869 
123 ,23.1079 ,0.92513 ,3.32393 ,32.61437 
124 ,23.2839 ,0.92696 ,3.31024 ,32.48006 
125 ,23.4758 ,0.92883 ,3.30682 ,32.44648 
126 ,23.6676 ,0.93072 ,3.27944 ,32.17786 
127 ,23.8597 ,0.93268 ,3.27602 ,32.14428 
128 ,24.0198 ,0.93442 ,3.25548 ,31.94281 
129 ,24.1798 ,0.93603 ,3.24522 ,31.84207 
130 ,24.3562 ,0.93767 ,3.24180 ,31.80849 
131 ,24.5483 ,0.93953 ,3.19731 ,31.37198 
132 ,24.7561 ,0.94155 ,3.17677 ,31.17051 
133 ,24.9323 ,0.94343 ,3.19046 ,31.30482 
134 ,25.1086 ,0.94515 ,3.15624 ,30.96904 
135 ,25.3007 ,0.94706 ,3.15624 ,30.96904 
136 ,25.4929 ,0.94904 ,3.11860 ,30.59968 
137 ,25.6688 ,0.95085 ,3.11518 ,30.56610 
138 ,25.8608 ,0.95267 ,3.11518 ,30.56610 
139 ,26.0529 ,0.95454 ,3.07753 ,30.19674 
140 ,26.2448 ,0.95646 ,3.07753 ,30.19674 
141 ,26.4371 ,0.95849 ,3.05358 ,29.96169 
142 ,26.6132 ,0.96025 ,3.05015 ,29.92811 
143 ,26.7895 ,0.96206 ,3.01935 ,29.62590 
144 ,26.9813 ,0.96391 ,2.99198 ,29.35728 
145 ,27.1574 ,0.96567 ,2.98171 ,29.25654 
146 ,27.3496 ,0.96763 ,2.97144 ,29.15581 
147 ,27.5415 ,0.96949 ,2.94407 ,28.88718 
148 ,27.7175 ,0.97124 ,2.94407 ,28.88718 
149 ,27.8939 ,0.97305 ,2.93380 ,28.78645 
150 ,28.0698 ,0.97483 ,2.93038 ,28.75287 
151 ,28.2619 ,0.97668 ,2.88931 ,28.34993 
152 ,28.4540 ,0.97866 ,2.88589 ,28.31635 
153 ,28.6459 ,0.98050 ,2.85509 ,28.01415 
154 ,28.8218 ,0.98229 ,2.83456 ,27.81268 
155 ,28.9983 ,0.98404 ,2.83456 ,27.81268 
156 ,29.1898 ,0.98607 ,2.80034 ,27.47689 
157 ,29.3824 ,0.98780 ,2.80034 ,27.47689 
158 ,29.5741 ,0.98986 ,2.78665 ,27.34258 
159 ,29.7503 ,0.99163 ,2.76269 ,27.10753 
160 ,29.9266 ,0.99340 ,2.73531 ,26.83891 
161 ,30.1187 ,0.99522 ,2.74216 ,26.90606 
162 ,30.3266 ,0.99723 ,2.71820 ,26.67101 
163 ,30.5029 ,0.99910 ,2.69767 ,26.46954 
164 ,30.7108 ,1.00106 ,2.69425 ,26.43597 
165 ,30.9029 ,1.00308 ,2.66003 ,26.10018 
166 ,31.0949 ,1.00501 ,2.65660 ,26.06661 
167 ,31.2711 ,1.00679 ,2.62238 ,25.73082 
168 ,31.4632 ,1.00870 ,2.61554 ,25.66367 
169 ,31.6713 ,1.01077 ,2.60185 ,25.52935 
170 ,31.8631 ,1.01268 ,2.57447 ,25.26073 
171 ,32.0394 ,1.01449 ,2.57789 ,25.29430 
172 ,32.2315 ,1.01640 ,2.54710 ,24.99210 
173 ,32.4232 ,1.01826 ,2.54367 ,24.95852 
174 ,32.6155 ,1.02020 ,2.52656 ,24.79063 
175 ,32.8077 ,1.02217 ,2.49576 ,24.48842 
176 ,32.9833 ,1.02395 ,2.50603 ,24.58916 
177 ,33.1598 ,1.02564 ,2.48550 ,24.38769 
178 ,33.3518 ,1.02762 ,2.46154 ,24.15264 
179 ,33.5275 ,1.02931 ,2.44101 ,23.95117 
180 ,33.7040 ,1.03115 ,2.42390 ,23.78328 
181 ,33.8960 ,1.03301 ,2.42390 ,23.78328 
182 ,34.0882 ,1.03488 ,2.39652 ,23.51465 
183 ,34.2802 ,1.03686 ,2.40336 ,23.58181 
184 ,34.4563 ,1.03863 ,2.36572 ,23.21245 
185 ,34.6644 ,1.04065 ,2.35545 ,23.11171 
186 ,34.8564 ,1.04266 ,2.33492 ,22.91024 
187 ,35.0326 ,1.04438 ,2.32465 ,22.80951 
188 ,35.2087 ,1.04616 ,2.29385 ,22.50731 
189 ,35.3843 ,1.04797 ,2.29728 ,22.54088 
190 ,35.5609 ,1.04964 ,2.26990 ,22.27226 
191 ,35.7367 ,1.05139 ,2.28017 ,22.37299 
192 ,35.9129 ,1.05322 ,2.24937 ,22.07079 
193 ,36.0889 ,1.05507 ,2.22883 ,21.86932 
194 ,36.2650 ,1.05670 ,2.20488 ,21.63427 
195 ,36.4412 ,1.05851 ,2.20830 ,21.66785 
196 ,36.6332 ,1.06031 ,2.19461 ,21.53353 
197 ,36.8093 ,1.06214 ,2.16381 ,21.23133 
198 ,36.9854 ,1.06394 ,2.14670 ,21.06344 
199 ,37.1775 ,1.06585 ,2.15697 ,21.16417 
200 ,37.3695 ,1.06772 ,2.12275 ,20.82839 
201 ,37.5454 ,1.06951 ,2.09879 ,20.59334 
202 ,37.7536 ,1.07152 ,2.08852 ,20.49261 
203 ,37.9618 ,1.07352 ,2.07484 ,20.35829 
204 ,38.1538 ,1.07559 ,2.07484 ,20.35829 
205 ,38.3298 ,1.07734 ,2.05430 ,20.15682 
206 ,38.5059 ,1.07904 ,2.02350 ,19.85462 
207 ,38.6822 ,1.08088 ,2.02350 ,19.85462 
208 ,38.8737 ,1.08275 ,2.00639 ,19.68673 
209 ,39.0502 ,1.08461 ,1.98928 ,19.51884 
210 ,39.2261 ,1.08629 ,1.96875 ,19.31737 
211 ,39.4342 ,1.08836 ,1.95848 ,19.21663 
212 ,39.6263 ,1.09022 ,1.94822 ,19.11590 
213 ,39.8505 ,1.09244 ,1.93453 ,18.98158 
214 ,40.0427 ,1.09441 ,1.92768 ,18.91443 
215 ,40.2346 ,1.09643 ,1.89004 ,18.54507 
216 ,40.4106 ,1.09814 ,1.88319 ,18.47791 
217 ,40.5868 ,1.09993 ,1.87293 ,18.37717 
218 ,40.7787 ,1.10172 ,1.86608 ,18.31002 
219 ,41.0028 ,1.10403 ,1.85240 ,18.17570 
220 ,41.2110 ,1.10610 ,1.82160 ,17.87350 
221 ,41.4032 ,1.10792 ,1.80449 ,17.70561 
222 ,41.5949 ,1.11002 ,1.80449 ,17.70561 
223 ,41.7709 ,1.11172 ,1.78395 ,17.50414 
224 ,41.9469 ,1.11350 ,1.75315 ,17.20193 
225 ,42.1230 ,1.11528 ,1.75315 ,17.20193 
226 ,42.3154 ,1.11711 ,1.73262 ,17.00046 
227 ,42.5077 ,1.11911 ,1.71551 ,16.83257 
228 ,42.6997 ,1.12108 ,1.72578 ,16.93331 
229 ,42.8918 ,1.12293 ,1.69840 ,16.66468 
230 ,43.0677 ,1.12474 ,1.67102 ,16.39605 
231 ,43.2434 ,1.12644 ,1.65391 ,16.22816 
232 ,43.4200 ,1.12824 ,1.67102 ,16.39605 
233 ,43.6119 ,1.13015 ,1.64364 ,16.12743 
234 ,43.7881 ,1.13195 ,1.62311 ,15.92596 
235 ,43.9962 ,1.13396 ,1.62311 ,15.92596 
236 ,44.2202 ,1.13612 ,1.60258 ,15.72449 
237 ,44.4123 ,1.13812 ,1.59231 ,15.62375 
238 ,44.5883 ,1.13994 ,1.56151 ,15.32155 
239 ,44.7643 ,1.14167 ,1.54440 ,15.15366 
240 ,44.9405 ,1.14345 ,1.54098 ,15.12008 
241 ,45.1325 ,1.14535 ,1.53413 ,15.05292 
242 ,45.3243 ,1.14726 ,1.51018 ,14.81787 
243 ,45.5009 ,1.14906 ,1.51018 ,14.81787 
244 ,45.7088 ,1.15108 ,1.47253 ,14.44851 
245 ,45.8849 ,1.15290 ,1.46569 ,14.38136 
246 ,46.0769 ,1.15472 ,1.45885 ,14.31420 
247 ,46.2531 ,1.15654 ,1.44858 ,14.21346 
248 ,46.4288 ,1.15831 ,1.42805 ,14.01199 
249 ,46.6051 ,1.16010 ,1.41436 ,13.87768 
250 ,46.7975 ,1.16204 ,1.41436 ,13.87768 
251 ,47.0055 ,1.16403 ,1.39040 ,13.64263 
252 ,47.1974 ,1.16599 ,1.38356 ,13.57548 
253 ,47.3737 ,1.16775 ,1.35960 ,13.34043 
254 ,47.5492 ,1.16956 ,1.35960 ,13.34043 
255 ,47.7254 ,1.17128 ,1.32880 ,13.03822 
256 ,47.9179 ,1.17322 ,1.33907 ,13.13896 
257 ,48.1095 ,1.17510 ,1.31512 ,12.90391 
258 ,48.2859 ,1.17685 ,1.29800 ,12.73602 
259 ,48.4781 ,1.17873 ,1.29800 ,12.73602 
260 ,48.6700 ,1.18080 ,1.28432 ,12.60171 
261 ,48.8461 ,1.18243 ,1.25352 ,12.29950 
262 ,49.0221 ,1.18424 ,1.25352 ,12.29950 
263 ,49.1985 ,1.18598 ,1.26036 ,12.36666 
264 ,49.4064 ,1.18801 ,1.22614 ,12.03088 
265 ,49.5986 ,1.19004 ,1.22272 ,11.99730 
266 ,49.7906 ,1.19187 ,1.19876 ,11.76225 
267 ,50.0146 ,1.19415 ,1.18165 ,11.59436 
268 ,50.2066 ,1.19604 ,1.17823 ,11.56078 
269 ,50.3828 ,1.19782 ,1.16112 ,11.39289 
270 ,50.5587 ,1.19957 ,1.16112 ,11.39289 
271 ,50.7506 ,1.20146 ,1.12690 ,11.05710 
272 ,50.9270 ,1.20333 ,1.11663 ,10.95637 
273 ,51.1191 ,1.20524 ,1.12347 ,11.02353 
274 ,51.3112 ,1.20710 ,1.08925 ,10.68774 
275 ,51.5030 ,1.20894 ,1.08925 ,10.68774 
276 ,51.6793 ,1.21082 ,1.08583 ,10.65416 
277 ,51.8710 ,1.21263 ,1.04476 ,10.25123 
278 ,52.0476 ,1.21444 ,1.02765 ,10.08333 
279 ,52.2396 ,1.21637 ,1.04476 ,10.25123 
280 ,52.4318 ,1.21831 ,1.01054 ,9.91544 
281 ,52.6238 ,1.22021 ,1.01739 ,9.98260 
282 ,52.7998 ,1.22209 ,0.99001 ,9.71397 
283 ,52.9758 ,1.22378 ,0.97290 ,9.54608 
284 ,53.1520 ,1.22551 ,0.95921 ,9.41177 
285 ,53.3281 ,1.22723 ,0.95579 ,9.37819 
286 ,53.5361 ,1.22932 ,0.93525 ,9.17672 
287 ,53.7279 ,1.23124 ,0.93525 ,9.17672 
288 ,53.9203 ,1.23317 ,0.93183 ,9.14314 
289 ,54.1285 ,1.23528 ,0.90103 ,8.84094 
290 ,54.3364 ,1.23730 ,0.89419 ,8.77378 
291 ,54.5126 ,1.23911 ,0.88050 ,8.63947 
292 ,54.7045 ,1.24102 ,0.87366 ,8.57231 
293 ,54.8807 ,1.24279 ,0.85997 ,8.43800 
294 ,55.0404 ,1.24452 ,0.84628 ,8.30368 
295 ,55.2168 ,1.24621 ,0.84628 ,8.30368 
296 ,55.4089 ,1.24809 ,0.81548 ,8.00148 
297 ,55.5850 ,1.24991 ,0.81206 ,7.96790 
298 ,55.7611 ,1.25160 ,0.81548 ,8.00148 
299 ,55.9852 ,1.25372 ,0.79837 ,7.83359 
300 ,56.1932 ,1.25584 ,0.77099 ,7.56496 
301 ,56.3853 ,1.25775 ,0.76072 ,7.46423 
302 ,56.5934 ,1.25979 ,0.74019 ,7.26276 
303 ,56.7695 ,1.26165 ,0.72650 ,7.12844 
304 ,56.9453 ,1.26339 ,0.72650 ,7.12844 
305 ,57.1217 ,1.26519 ,0.71624 ,7.02771 
306 ,57.3298 ,1.26727 ,0.69570 ,6.82624 
307 ,57.5218 ,1.26920 ,0.69228 ,6.79266 
308 ,57.6979 ,1.27093 ,0.68544 ,6.72550 
309 ,57.8739 ,1.27272 ,0.66148 ,6.49046 
310 ,58.0660 ,1.27455 ,0.64779 ,6.35614 
311 ,58.2578 ,1.27653 ,0.64095 ,6.28899 
312 ,58.4502 ,1.27842 ,0.61699 ,6.05394 
313 ,58.6422 ,1.28040 ,0.62726 ,6.15467 
314 ,58.8184 ,1.28217 ,0.61015 ,5.98678 
315 ,59.0424 ,1.28434 ,0.59988 ,5.88605 
316 ,59.2504 ,1.28638 ,0.57935 ,5.68458 
317 ,59.4263 ,1.28823 ,0.56566 ,5.55026 
318 ,59.6186 ,1.29004 ,0.56566 ,5.55026 
319 ,59.7947 ,1.29190 ,0.54171 ,5.31522 
320 ,59.9708 ,1.29373 ,0.52459 ,5.14732 
321 ,60.1627 ,1.29555 ,0.53828 ,5.28164 
322 ,60.3389 ,1.29740 ,0.53144 ,5.21448 
323 ,60.5469 ,1.29937 ,0.50406 ,4.94585 
324 ,60.7390 ,1.30138 ,0.50748 ,4.97943 
325 ,60.9152 ,1.30308 ,0.48011 ,4.71081 
326 ,61.0908 ,1.30498 ,0.45615 ,4.47576 
327 ,61.2672 ,1.30666 ,0.45615 ,4.47576 
328 ,61.4589 ,1.30843 ,0.44931 ,4.40860 
329 ,61.6354 ,1.31031 ,0.43904 ,4.30787 
330 ,61.8435 ,1.31234 ,0.43562 ,4.27429 
331 ,62.0515 ,1.31442 ,0.40482 ,3.97208 
332 ,62.2436 ,1.31645 ,0.40824 ,4.00566 
333 ,62.4197 ,1.31811 ,0.40482 ,3.97208 
334 ,62.5793 ,1.31988 ,0.37744 ,3.70346 
335 ,62.7555 ,1.32152 ,0.36375 ,3.56914 
336 ,62.9480 ,1.32339 ,0.35691 ,3.50199 
337 ,63.1240 ,1.32521 ,0.35691 ,3.50199 
338 ,63.3160 ,1.32712 ,0.35006 ,3.43483 
339 ,63.4920 ,1.32888 ,0.32269 ,3.16620 
340 ,63.6682 ,1.33063 ,0.30215 ,2.96473 
341 ,63.8441 ,1.33241 ,0.31584 ,3.09905 
342 ,64.0204 ,1.33420 ,0.31242 ,3.06547 
343 ,64.2125 ,1.33605 ,0.28504 ,2.79684 
344 ,64.4043 ,1.33795 ,0.28162 ,2.76326 
345 ,64.5806 ,1.33977 ,0.28504 ,2.79684 
346 ,64.7727 ,1.34164 ,0.24398 ,2.39390 
347 ,64.9807 ,1.34372 ,0.25767 ,2.52822 
348 ,65.1728 ,1.34572 ,0.23713 ,2.32675 
349 ,65.3646 ,1.34751 ,0.21660 ,2.12528 
350 ,65.5410 ,1.34939 ,0.22687 ,2.22601 
351 ,65.7326 ,1.35124 ,0.19949 ,1.95738 
352 ,65.9250 ,1.35317 ,0.19949 ,1.95738 
353 ,66.1170 ,1.35505 ,0.18238 ,1.78949 
354 ,66.3093 ,1.35698 ,0.17553 ,1.72234 
355 ,66.4850 ,1.35876 ,0.16185 ,1.58802 
356 ,66.6615 ,1.36058 ,0.15842 ,1.55445 
357 ,66.8531 ,1.36245 ,0.14473 ,1.42013 
358 ,67.0291 ,1.36423 ,0.13105 ,1.28582 
359 ,67.2055 ,1.36599 ,0.12420 ,1.21866 
360 ,67.3979 ,1.36792 ,0.12420 ,1.21866 
361 ,67.5893 ,1.36980 ,0.08998 ,0.88288 
362 ,67.7493 ,1.37156 ,0.08314 ,0.81572 
363 ,67.9255 ,1.37318 ,0.08314 ,0.81572 
364 ,68.1021 ,1.37496 ,0.08314 ,0.81572 
365 ,68.2941 ,1.37689 ,0.07287 ,0.71499 
366 ,68.4859 ,1.37872 ,0.06260 ,0.61425 
367 ,68.6621 ,1.38057 ,0.04891 ,0.47994 
368 ,68.8378 ,1.38233 ,0.04207 ,0.41278 
369 ,69.0141 ,1.38405 ,0.04549 ,0.44636 
370 ,69.1905 ,1.38582 ,0.01811 ,0.17773 
371 ,69.3985 ,1.38784 ,0.00785 ,0.07700 
372 ,69.5746 ,1.38974 ,0.00100 ,0.00984 
373 ,69.7666 ,1.39162 ,-0.02637 ,-0.25878 
374 ,69.9745 ,1.39360 ,-0.01611 ,-0.15805 
375 ,70.1503 ,1.39551 ,-0.04691 ,-0.46025 
376 ,70.3267 ,1.39714 ,-0.04348 ,-0.42667 
377 ,70.5029 ,1.39893 ,-0.05375 ,-0.52741 
378 ,70.6950 ,1.40083 ,-0.07428 ,-0.72888 
379 ,70.8867 ,1.40274 ,-0.08113 ,-0.79604 
380 ,71.0632 ,1.40456 ,-0.07428 ,-0.72888 
381 ,71.2710 ,1.40661 ,-0.08455 ,-0.82961 
382 ,71.4633 ,1.40857 ,-0.09824 ,-0.96393 
383 ,71.6552 ,1.41045 ,-0.09824 ,-0.96393 
384 ,71.8474 ,1.41234 ,-0.12562 ,-1.23255 
385 ,72.0233 ,1.41415 ,-0.14273 ,-1.40045 
386 ,72.2312 ,1.41616 ,-0.14957 ,-1.46760 
387 ,72.4075 ,1.41798 ,-0.16326 ,-1.60191 
388 ,72.6156 ,1.41995 ,-0.14957 ,-1.46760 
389 ,72.8075 ,1.42199 ,-0.18379 ,-1.80338 
390 ,72.9840 ,1.42378 ,-0.18722 ,-1.83696 
391 ,73.1758 ,1.42559 ,-0.17011 ,-1.66907 
392 ,73.3520 ,1.42740 ,-0.19406 ,-1.90412 
393 ,73.5121 ,1.42915 ,-0.21117 ,-2.07201 
394 ,73.6882 ,1.43084 ,-0.21459 ,-2.10559 
395 ,73.8644 ,1.43256 ,-0.22828 ,-2.23990 
396 ,74.0564 ,1.43448 ,-0.22144 ,-2.17275 
397 ,74.2484 ,1.43642 ,-0.24881 ,-2.44137 
398 ,74.4245 ,1.43817 ,-0.24539 ,-2.40779 
399 ,74.6007 ,1.43995 ,-0.26250 ,-2.57569 
400 ,74.7927 ,1.44180 ,-0.27619 ,-2.71000 
401 ,74.9687 ,1.44362 ,-0.28988 ,-2.84431 
402 ,75.1446 ,1.44537 ,-0.28988 ,-2.84431 
403 ,75.3207 ,1.44712 ,-0.29330 ,-2.87789 
404 ,75.4809 ,1.44885 ,-0.30015 ,-2.94505 
405 ,75.6570 ,1.45046 ,-0.30015 ,-2.94505 
406 ,75.8491 ,1.45232 ,-0.33779 ,-3.31441 
407 ,76.0412 ,1.45432 ,-0.32410 ,-3.18010 
408 ,76.2332 ,1.45623 ,-0.33437 ,-3.28083 
409 ,76.4250 ,1.45812 ,-0.36517 ,-3.58303 
410 ,76.6172 ,1.46005 ,-0.35148 ,-3.44872 
411 ,76.8095 ,1.46191 ,-0.37886 ,-3.71735 
412 ,77.0015 ,1.46385 ,-0.36175 ,-3.54946 
413 ,77.1776 ,1.46565 ,-0.37544 ,-3.68377 
414 ,77.3538 ,1.46742 ,-0.38570 ,-3.78450 
415 ,77.5453 ,1.46939 ,-0.42335 ,-4.15387 
416 ,77.7538 ,1.47145 ,-0.39939 ,-3.91882 
417 ,77.9459 ,1.47334 ,-0.42335 ,-4.15387 
418 ,78.1220 ,1.47516 ,-0.43019 ,-4.22102 
419 ,78.3141 ,1.47700 ,-0.44046 ,-4.32176 
420 ,78.5061 ,1.47892 ,-0.44388 ,-4.35534 
421 ,78.6982 ,1.48091 ,-0.45414 ,-4.45607 
422 ,78.8743 ,1.48263 ,-0.45072 ,-4.42249 
423 ,79.0663 ,1.48449 ,-0.49179 ,-4.82543 
424 ,79.2423 ,1.48637 ,-0.48152 ,-4.72470 
425 ,79.4184 ,1.48809 ,-0.49863 ,-4.89259 
426 ,79.5946 ,1.48984 ,-0.48837 ,-4.79185 
427 ,79.7865 ,1.49168 ,-0.52259 ,-5.12764 
428 ,79.9627 ,1.49360 ,-0.50548 ,-4.95975 
429 ,80.1385 ,1.49529 ,-0.50890 ,-4.99332 
430 ,80.3308 ,1.49720 ,-0.53285 ,-5.22837 
431 ,80.5067 ,1.49892 ,-0.54654 ,-5.36268 
432 ,80.6829 ,1.50073 ,-0.57392 ,-5.63131 
433 ,80.8748 ,1.50254 ,-0.54312 ,-5.32911 
434 ,81.0670 ,1.50449 ,-0.57734 ,-5.66489 
435 ,81.2431 ,1.50628 ,-0.57734 ,-5.66489 
436 ,81.4192 ,1.50807 ,-0.58419 ,-5.73205 
437 ,81.5950 ,1.50982 ,-0.59445 ,-5.83278 
438 ,81.7714 ,1.51156 ,-0.59103 ,-5.79920 
439 ,81.9472 ,1.51334 ,-0.61499 ,-6.03425 
440 ,82.1395 ,1.51528 ,-0.61499 ,-6.03425 
441 ,82.3477 ,1.51727 ,-0.63210 ,-6.20214 
442 ,82.5398 ,1.51933 ,-0.63552 ,-6.23572 
443 ,82.7317 ,1.52119 ,-0.62868 ,-6.16856 
444 ,82.9076 ,1.52293 ,-0.65947 ,-6.47077 
445 ,83.1000 ,1.52478 ,-0.66974 ,-6.57150 
446 ,83.2920 ,1.52683 ,-0.69712 ,-6.84013 
447 ,83.4682 ,1.52857 ,-0.68343 ,-6.70582 
448 ,83.6600 ,1.53048 ,-0.70054 ,-6.87371 
449 ,83.8679 ,1.53245 ,-0.68685 ,-6.73940 
450 ,84.0440 ,1.53428 ,-0.71765 ,-7.04160 
451 ,84.2200 ,1.53606 ,-0.73818 ,-7.24307 
452 ,84.3964 ,1.53785 ,-0.72792 ,-7.14233 
453 ,84.5886 ,1.53979 ,-0.73134 ,-7.17591 
454 ,84.7643 ,1.54160 ,-0.73476 ,-7.20949 
455 ,84.9408 ,1.54329 ,-0.76898 ,-7.54527 
456 ,85.1327 ,1.54516 ,-0.74845 ,-7.34380 
457 ,85.3410 ,1.54725 ,-0.77925 ,-7.64601 
458 ,85.5486 ,1.54925 ,-0.78267 ,-7.67959 
459 ,85.7248 ,1.55110 ,-0.80663 ,-7.91464 
460 ,85.9327 ,1.55303 ,-0.80663 ,-7.91464 
461 ,86.1089 ,1.55495 ,-0.80663 ,-7.91464 
462 ,86.3012 ,1.55686 ,-0.82032 ,-8.04895 
463 ,86.4774 ,1.55862 ,-0.82032 ,-8.04895 
