Data stamp = , 23-04-2022 16:48:15 279

Calibration Values: 
Slope = , 26.54 , g/V 
Offset Voltage at no contact = , -0.501760 , V 

No , Time , Stage Position ,   Mass , Force 
   ,  (s) ,      (mm)      ,   (g)  , (mN)  

1 ,0.0000 ,0.69939 ,5.31563 ,52.15694 
2 ,0.2001 ,0.69947 ,5.30536 ,52.05621 
3 ,0.6489 ,0.70089 ,5.30878 ,52.08979 
4 ,0.8568 ,0.70280 ,5.31221 ,52.12337 
5 ,1.0330 ,0.70448 ,5.30194 ,52.02263 
6 ,1.2410 ,0.70648 ,5.32247 ,52.22410 
7 ,1.4172 ,0.70834 ,5.29510 ,51.95548 
8 ,1.5929 ,0.71006 ,5.30878 ,52.08979 
9 ,1.7852 ,0.71188 ,5.28141 ,51.82116 
10 ,1.9613 ,0.71375 ,5.27456 ,51.75401 
11 ,2.1532 ,0.71567 ,5.25403 ,51.55254 
12 ,2.6012 ,0.71887 ,5.24718 ,51.48538 
13 ,2.7935 ,0.72204 ,5.21639 ,51.18317 
14 ,2.9696 ,0.72388 ,5.19585 ,50.98170 
15 ,3.1458 ,0.72564 ,5.15136 ,50.54519 
16 ,3.3379 ,0.72751 ,5.16505 ,50.67950 
17 ,3.5142 ,0.72929 ,5.15136 ,50.54519 
18 ,3.7058 ,0.73112 ,5.11030 ,50.14225 
19 ,3.9143 ,0.73318 ,5.10688 ,50.10867 
20 ,4.1061 ,0.73515 ,5.08292 ,49.87362 
21 ,4.2978 ,0.73713 ,5.07608 ,49.80646 
22 ,4.4743 ,0.73888 ,5.05897 ,49.63857 
23 ,4.6823 ,0.74092 ,5.04528 ,49.50426 
24 ,4.8584 ,0.74276 ,5.01448 ,49.20205 
25 ,5.0343 ,0.74451 ,5.01106 ,49.16848 
26 ,5.2264 ,0.74631 ,4.97341 ,48.79911 
27 ,5.4347 ,0.74845 ,4.95972 ,48.66480 
28 ,5.6427 ,0.75055 ,4.94946 ,48.56407 
29 ,5.8191 ,0.75238 ,4.92550 ,48.32902 
30 ,6.0108 ,0.75424 ,4.88786 ,47.95966 
31 ,6.2028 ,0.75625 ,4.88786 ,47.95966 
32 ,6.3788 ,0.75796 ,4.87075 ,47.79177 
33 ,6.5551 ,0.75975 ,4.84679 ,47.55672 
34 ,6.7311 ,0.76147 ,4.82284 ,47.32167 
35 ,6.9073 ,0.76325 ,4.79888 ,47.08662 
36 ,7.0833 ,0.76495 ,4.79204 ,47.01946 
37 ,7.2755 ,0.76686 ,4.78519 ,46.95231 
38 ,7.4835 ,0.76890 ,4.75782 ,46.68368 
39 ,7.6755 ,0.77095 ,4.74413 ,46.54937 
40 ,7.8517 ,0.77268 ,4.72017 ,46.31432 
41 ,8.0432 ,0.77456 ,4.68937 ,46.01212 
42 ,8.2200 ,0.77635 ,4.68595 ,45.97854 
43 ,8.3959 ,0.77816 ,4.66542 ,45.77707 
44 ,8.5880 ,0.77992 ,4.65173 ,45.64275 
45 ,8.7639 ,0.78179 ,4.62777 ,45.40771 
46 ,8.9400 ,0.78361 ,4.62093 ,45.34055 
47 ,9.1157 ,0.78530 ,4.60382 ,45.17266 
48 ,9.2922 ,0.78707 ,4.59355 ,45.07192 
49 ,9.4683 ,0.78881 ,4.55933 ,44.73614 
50 ,9.6441 ,0.79055 ,4.52853 ,44.43394 
51 ,9.8363 ,0.79244 ,4.53880 ,44.53467 
52 ,10.0282 ,0.79432 ,4.50800 ,44.23247 
53 ,10.1882 ,0.79610 ,4.48404 ,43.99742 
54 ,10.3487 ,0.79778 ,4.47378 ,43.89668 
55 ,10.5248 ,0.79938 ,4.45666 ,43.72879 
56 ,10.7171 ,0.80120 ,4.43271 ,43.49374 
57 ,10.8930 ,0.80308 ,4.43955 ,43.56090 
58 ,11.1010 ,0.80511 ,4.41902 ,43.35943 
59 ,11.2931 ,0.80701 ,4.40191 ,43.19154 
60 ,11.4692 ,0.80881 ,4.36769 ,42.85576 
61 ,11.6931 ,0.81094 ,4.36084 ,42.78860 
62 ,11.8694 ,0.81285 ,4.33689 ,42.55355 
63 ,12.0614 ,0.81474 ,4.30951 ,42.28492 
64 ,12.2376 ,0.81654 ,4.30609 ,42.25135 
65 ,12.4451 ,0.81855 ,4.27187 ,41.91556 
66 ,12.6211 ,0.82037 ,4.26845 ,41.88198 
67 ,12.7972 ,0.82213 ,4.24791 ,41.68051 
68 ,12.9736 ,0.82393 ,4.24107 ,41.61336 
69 ,13.1819 ,0.82589 ,4.22053 ,41.41189 
70 ,13.3736 ,0.82783 ,4.20000 ,41.21042 
71 ,13.5496 ,0.82970 ,4.16578 ,40.87464 
72 ,13.7261 ,0.83136 ,4.16236 ,40.84106 
73 ,13.9184 ,0.83320 ,4.15551 ,40.77390 
74 ,14.1104 ,0.83519 ,4.12814 ,40.50527 
75 ,14.3022 ,0.83706 ,4.11103 ,40.33738 
76 ,14.4780 ,0.83888 ,4.08023 ,40.03518 
77 ,14.6544 ,0.84065 ,4.09049 ,40.13591 
78 ,14.8624 ,0.84269 ,4.06312 ,39.86729 
79 ,15.0543 ,0.84462 ,4.05627 ,39.80013 
80 ,15.2308 ,0.84640 ,4.03232 ,39.56508 
81 ,15.4225 ,0.84828 ,3.99467 ,39.19572 
82 ,15.6149 ,0.85034 ,3.98441 ,39.09499 
83 ,15.7909 ,0.85200 ,3.97414 ,38.99425 
84 ,15.9668 ,0.85381 ,3.95703 ,38.82636 
85 ,16.1591 ,0.85572 ,3.93650 ,38.62489 
86 ,16.3512 ,0.85760 ,3.91938 ,38.45700 
87 ,16.5592 ,0.85967 ,3.90570 ,38.32268 
88 ,16.7353 ,0.86147 ,3.88858 ,38.15479 
89 ,16.9592 ,0.86359 ,3.85779 ,37.85259 
90 ,17.1355 ,0.86542 ,3.84752 ,37.75185 
91 ,17.3115 ,0.86725 ,3.84410 ,37.71828 
92 ,17.5032 ,0.86905 ,3.81330 ,37.41607 
93 ,17.6792 ,0.87088 ,3.77908 ,37.08029 
94 ,17.8555 ,0.87264 ,3.77565 ,37.04671 
95 ,18.0637 ,0.87471 ,3.75170 ,36.81166 
96 ,18.2399 ,0.87647 ,3.73801 ,36.67735 
97 ,18.4161 ,0.87826 ,3.72432 ,36.54303 
98 ,18.6080 ,0.88017 ,3.70037 ,36.30799 
99 ,18.7997 ,0.88197 ,3.67299 ,36.03936 
100 ,18.9762 ,0.88383 ,3.66614 ,35.97220 
101 ,19.1683 ,0.88573 ,3.64561 ,35.77073 
102 ,19.3604 ,0.88770 ,3.63534 ,35.67000 
103 ,19.5365 ,0.88950 ,3.61481 ,35.46853 
104 ,19.7286 ,0.89143 ,3.60797 ,35.40137 
105 ,19.9206 ,0.89323 ,3.57717 ,35.09917 
106 ,20.1127 ,0.89516 ,3.58401 ,35.16632 
107 ,20.3208 ,0.89724 ,3.54979 ,34.83054 
108 ,20.5128 ,0.89921 ,3.54295 ,34.76338 
109 ,20.7049 ,0.90103 ,3.51899 ,34.52834 
110 ,20.9127 ,0.90312 ,3.49846 ,34.32687 
111 ,21.0890 ,0.90500 ,3.48477 ,34.19255 
112 ,21.2650 ,0.90673 ,3.46081 ,33.95751 
113 ,21.4412 ,0.90849 ,3.43344 ,33.68888 
114 ,21.6332 ,0.91035 ,3.42659 ,33.62172 
115 ,21.8092 ,0.91223 ,3.40948 ,33.45383 
116 ,21.9850 ,0.91395 ,3.38553 ,33.21878 
117 ,22.1775 ,0.91580 ,3.36842 ,33.05089 
118 ,22.3853 ,0.91794 ,3.35130 ,32.88300 
119 ,22.5776 ,0.91975 ,3.33077 ,32.68153 
120 ,22.7694 ,0.92185 ,3.30682 ,32.44648 
121 ,22.9458 ,0.92355 ,3.29997 ,32.37933 
122 ,23.1375 ,0.92539 ,3.29655 ,32.34575 
123 ,23.3137 ,0.92724 ,3.28286 ,32.21143 
124 ,23.4898 ,0.92891 ,3.27259 ,32.11070 
125 ,23.6820 ,0.93085 ,3.24180 ,31.80849 
126 ,23.8581 ,0.93269 ,3.22468 ,31.64060 
127 ,24.0502 ,0.93458 ,3.22126 ,31.60702 
128 ,24.2422 ,0.93644 ,3.18704 ,31.27124 
129 ,24.4183 ,0.93824 ,3.17335 ,31.13693 
130 ,24.5942 ,0.94001 ,3.18020 ,31.20409 
131 ,24.8020 ,0.94205 ,3.13571 ,30.76757 
132 ,24.9786 ,0.94387 ,3.12544 ,30.66683 
133 ,25.1706 ,0.94575 ,3.12886 ,30.70041 
134 ,25.3627 ,0.94766 ,3.09464 ,30.36463 
135 ,25.5708 ,0.94976 ,3.08095 ,30.23031 
136 ,25.7628 ,0.95165 ,3.05015 ,29.92811 
137 ,25.9549 ,0.95364 ,3.06384 ,30.06242 
138 ,26.1310 ,0.95538 ,3.03647 ,29.79380 
139 ,26.3227 ,0.95722 ,3.01251 ,29.55875 
140 ,26.4991 ,0.95904 ,2.98513 ,29.29012 
141 ,26.7073 ,0.96111 ,2.97487 ,29.18939 
142 ,26.8831 ,0.96292 ,2.97487 ,29.18939 
143 ,27.0754 ,0.96476 ,2.96802 ,29.12223 
144 ,27.2675 ,0.96671 ,2.94064 ,28.85360 
145 ,27.4592 ,0.96872 ,2.90985 ,28.55140 
146 ,27.6356 ,0.97040 ,2.92696 ,28.71929 
147 ,27.8277 ,0.97229 ,2.88931 ,28.34993 
148 ,28.0357 ,0.97438 ,2.87905 ,28.24919 
149 ,28.2279 ,0.97633 ,2.85509 ,28.01415 
150 ,28.4196 ,0.97821 ,2.83456 ,27.81268 
151 ,28.5959 ,0.98006 ,2.82429 ,27.71194 
152 ,28.8040 ,0.98210 ,2.80376 ,27.51047 
153 ,29.0121 ,0.98414 ,2.80376 ,27.51047 
154 ,29.2040 ,0.98607 ,2.76954 ,27.17469 
155 ,29.4121 ,0.98806 ,2.77296 ,27.20827 
156 ,29.6205 ,0.99021 ,2.73189 ,26.80533 
157 ,29.8125 ,0.99225 ,2.72163 ,26.70459 
158 ,29.9882 ,0.99395 ,2.71136 ,26.60386 
159 ,30.1646 ,0.99570 ,2.70109 ,26.50312 
160 ,30.3566 ,0.99764 ,2.66003 ,26.10018 
161 ,30.5328 ,0.99934 ,2.67372 ,26.23450 
162 ,30.7248 ,1.00128 ,2.64976 ,25.99945 
163 ,30.9010 ,1.00309 ,2.61554 ,25.66367 
164 ,31.0926 ,1.00488 ,2.62923 ,25.79798 
165 ,31.2688 ,1.00679 ,2.62238 ,25.73082 
166 ,31.4451 ,1.00850 ,2.59501 ,25.46220 
167 ,31.6211 ,1.01028 ,2.56078 ,25.12641 
168 ,31.7970 ,1.01202 ,2.53683 ,24.89136 
169 ,31.9893 ,1.01393 ,2.55394 ,25.05926 
170 ,32.1653 ,1.01579 ,2.50945 ,24.62274 
171 ,32.3414 ,1.01746 ,2.51287 ,24.65632 
172 ,32.5176 ,1.01924 ,2.50603 ,24.58916 
173 ,32.7255 ,1.02124 ,2.47181 ,24.25338 
174 ,32.9179 ,1.02320 ,2.46496 ,24.18622 
175 ,33.1257 ,1.02522 ,2.46496 ,24.18622 
176 ,33.3019 ,1.02707 ,2.43759 ,23.91759 
177 ,33.5100 ,1.02903 ,2.42048 ,23.74970 
178 ,33.7179 ,1.03116 ,2.39994 ,23.54823 
179 ,33.8775 ,1.03296 ,2.39310 ,23.48108 
180 ,34.0541 ,1.03456 ,2.37256 ,23.27961 
181 ,34.2461 ,1.03640 ,2.37599 ,23.31318 
182 ,34.4226 ,1.03826 ,2.34519 ,23.01098 
183 ,34.6145 ,1.04017 ,2.33492 ,22.91024 
184 ,34.8063 ,1.04214 ,2.33492 ,22.91024 
185 ,34.9824 ,1.04386 ,2.30412 ,22.60804 
186 ,35.1745 ,1.04567 ,2.27674 ,22.33941 
187 ,35.3507 ,1.04752 ,2.28701 ,22.44015 
188 ,35.5268 ,1.04931 ,2.25963 ,22.17152 
189 ,35.7348 ,1.05129 ,2.23568 ,21.93647 
190 ,35.9110 ,1.05314 ,2.23568 ,21.93647 
191 ,36.1191 ,1.05518 ,2.20488 ,21.63427 
192 ,36.3271 ,1.05722 ,2.20830 ,21.66785 
193 ,36.5191 ,1.05918 ,2.16039 ,21.19775 
194 ,36.6954 ,1.06094 ,2.15012 ,21.09702 
195 ,36.8874 ,1.06292 ,2.15697 ,21.16417 
196 ,37.0949 ,1.06489 ,2.12275 ,20.82839 
197 ,37.2715 ,1.06677 ,2.11932 ,20.79481 
198 ,37.4795 ,1.06875 ,2.09879 ,20.59334 
199 ,37.6556 ,1.07062 ,2.07484 ,20.35829 
200 ,37.8315 ,1.07234 ,2.07826 ,20.39187 
201 ,38.0235 ,1.07425 ,2.06115 ,20.22398 
202 ,38.2156 ,1.07614 ,2.03377 ,19.95535 
203 ,38.3919 ,1.07792 ,2.02350 ,19.85462 
204 ,38.5838 ,1.07984 ,2.02008 ,19.82104 
205 ,38.7760 ,1.08167 ,1.99270 ,19.55241 
206 ,38.9520 ,1.08365 ,2.00297 ,19.65315 
207 ,39.1283 ,1.08531 ,1.98928 ,19.51884 
208 ,39.3202 ,1.08723 ,1.95506 ,19.18305 
209 ,39.5125 ,1.08916 ,1.95506 ,19.18305 
210 ,39.7205 ,1.09117 ,1.91742 ,18.81369 
211 ,39.8966 ,1.09302 ,1.90373 ,18.67938 
212 ,40.0886 ,1.09484 ,1.91399 ,18.78011 
213 ,40.2643 ,1.09664 ,1.90715 ,18.71296 
214 ,40.4405 ,1.09843 ,1.86951 ,18.34360 
215 ,40.6487 ,1.10040 ,1.85924 ,18.24286 
216 ,40.8410 ,1.10244 ,1.83528 ,18.00781 
217 ,41.0331 ,1.10435 ,1.83186 ,17.97423 
218 ,41.2090 ,1.10615 ,1.81817 ,17.83992 
219 ,41.3688 ,1.10782 ,1.82502 ,17.90708 
220 ,41.5451 ,1.10951 ,1.80791 ,17.73919 
221 ,41.7374 ,1.11133 ,1.77026 ,17.36983 
222 ,41.9294 ,1.11322 ,1.78737 ,17.53772 
223 ,42.1055 ,1.11510 ,1.75657 ,17.23551 
224 ,42.2816 ,1.11684 ,1.74289 ,17.10120 
225 ,42.4895 ,1.11873 ,1.73946 ,17.06762 
226 ,42.6657 ,1.12067 ,1.73604 ,17.03404 
227 ,42.8738 ,1.12260 ,1.70524 ,16.73184 
228 ,43.0655 ,1.12468 ,1.69498 ,16.63110 
229 ,43.2418 ,1.12640 ,1.66760 ,16.36248 
230 ,43.4182 ,1.12818 ,1.65391 ,16.22816 
231 ,43.6259 ,1.13016 ,1.63680 ,16.06027 
232 ,43.8179 ,1.13219 ,1.62311 ,15.92596 
233 ,43.9939 ,1.13398 ,1.60600 ,15.75807 
234 ,44.1701 ,1.13570 ,1.59573 ,15.65733 
235 ,44.3622 ,1.13767 ,1.58889 ,15.59018 
236 ,44.5381 ,1.13939 ,1.56836 ,15.38871 
237 ,44.7300 ,1.14128 ,1.57178 ,15.42228 
238 ,44.8902 ,1.14302 ,1.55467 ,15.25439 
239 ,45.0503 ,1.14463 ,1.54440 ,15.15366 
240 ,45.2271 ,1.14627 ,1.53756 ,15.08650 
241 ,45.4189 ,1.14825 ,1.50333 ,14.75072 
242 ,45.5946 ,1.14995 ,1.48622 ,14.58283 
243 ,45.7709 ,1.15167 ,1.49649 ,14.68356 
244 ,45.9628 ,1.15351 ,1.48622 ,14.58283 
245 ,46.1392 ,1.15536 ,1.46911 ,14.41493 
246 ,46.3147 ,1.15715 ,1.43147 ,14.04557 
247 ,46.4912 ,1.15890 ,1.44858 ,14.21346 
248 ,46.6832 ,1.16078 ,1.43489 ,14.07915 
249 ,46.8593 ,1.16258 ,1.40409 ,13.77695 
250 ,47.0514 ,1.16454 ,1.40409 ,13.77695 
251 ,47.2275 ,1.16622 ,1.40409 ,13.77695 
252 ,47.4032 ,1.16801 ,1.37329 ,13.47474 
253 ,47.5956 ,1.16994 ,1.34934 ,13.23969 
254 ,47.7718 ,1.17173 ,1.34249 ,13.17254 
255 ,47.9638 ,1.17361 ,1.34249 ,13.17254 
256 ,48.1559 ,1.17552 ,1.30827 ,12.83675 
257 ,48.3478 ,1.17740 ,1.32196 ,12.97107 
258 ,48.5400 ,1.17941 ,1.28774 ,12.63528 
259 ,48.7163 ,1.18120 ,1.27747 ,12.53455 
260 ,48.9078 ,1.18307 ,1.28432 ,12.60171 
261 ,49.1003 ,1.18493 ,1.24667 ,12.23235 
262 ,49.3242 ,1.18708 ,1.23298 ,12.09803 
263 ,49.5166 ,1.18922 ,1.21929 ,11.96372 
264 ,49.7082 ,1.19111 ,1.21587 ,11.93014 
265 ,49.8845 ,1.19281 ,1.21587 ,11.93014 
266 ,50.0768 ,1.19474 ,1.17823 ,11.56078 
267 ,50.2689 ,1.19670 ,1.18165 ,11.59436 
268 ,50.4929 ,1.19891 ,1.15085 ,11.29215 
269 ,50.6689 ,1.20066 ,1.14743 ,11.25857 
270 ,50.8450 ,1.20245 ,1.14058 ,11.19142 
271 ,51.0527 ,1.20450 ,1.12005 ,10.98995 
272 ,51.2292 ,1.20627 ,1.10979 ,10.88921 
273 ,51.4213 ,1.20824 ,1.08583 ,10.65416 
274 ,51.5972 ,1.20998 ,1.08241 ,10.62059 
275 ,51.7733 ,1.21170 ,1.07214 ,10.51985 
276 ,51.9814 ,1.21365 ,1.05845 ,10.38554 
277 ,52.1571 ,1.21553 ,1.03792 ,10.18407 
278 ,52.3334 ,1.21731 ,1.03792 ,10.18407 
279 ,52.5255 ,1.21913 ,1.03108 ,10.11691 
280 ,52.7018 ,1.22101 ,1.02081 ,10.01618 
281 ,52.8939 ,1.22285 ,1.00028 ,9.81471 
282 ,53.0859 ,1.22476 ,0.99001 ,9.71397 
283 ,53.2779 ,1.22674 ,0.96948 ,9.51250 
284 ,53.4700 ,1.22854 ,0.95237 ,9.34461 
285 ,53.6460 ,1.23047 ,0.95921 ,9.41177 
286 ,53.8383 ,1.23233 ,0.95237 ,9.34461 
287 ,54.0302 ,1.23417 ,0.93183 ,9.14314 
288 ,54.2542 ,1.23636 ,0.92157 ,9.04241 
289 ,54.4462 ,1.23844 ,0.90788 ,8.90809 
290 ,54.6545 ,1.24041 ,0.88392 ,8.67305 
291 ,54.8467 ,1.24246 ,0.87708 ,8.60589 
292 ,55.0228 ,1.24423 ,0.86681 ,8.50515 
293 ,55.2150 ,1.24617 ,0.85312 ,8.37084 
294 ,55.3744 ,1.24784 ,0.82917 ,8.13579 
295 ,55.5667 ,1.24953 ,0.83601 ,8.20295 
296 ,55.7589 ,1.25155 ,0.81206 ,7.96790 
297 ,55.9350 ,1.25331 ,0.79837 ,7.83359 
298 ,56.1272 ,1.25522 ,0.79837 ,7.83359 
299 ,56.3190 ,1.25705 ,0.75730 ,7.43065 
300 ,56.5273 ,1.25915 ,0.76415 ,7.49780 
301 ,56.7349 ,1.26124 ,0.73677 ,7.22918 
302 ,56.9114 ,1.26305 ,0.72992 ,7.16202 
303 ,57.0875 ,1.26479 ,0.72992 ,7.16202 
304 ,57.2796 ,1.26666 ,0.71624 ,7.02771 
305 ,57.4714 ,1.26872 ,0.70597 ,6.92697 
306 ,57.6479 ,1.27045 ,0.69228 ,6.79266 
307 ,57.8399 ,1.27227 ,0.66833 ,6.55761 
308 ,58.0160 ,1.27414 ,0.65464 ,6.42330 
309 ,58.1917 ,1.27590 ,0.66148 ,6.49046 
310 ,58.3678 ,1.27764 ,0.66490 ,6.52403 
311 ,58.5757 ,1.27963 ,0.62726 ,6.15467 
312 ,58.7683 ,1.28156 ,0.62384 ,6.12109 
313 ,58.9603 ,1.28354 ,0.59988 ,5.88605 
314 ,59.1685 ,1.28551 ,0.61357 ,6.02036 
315 ,59.3439 ,1.28739 ,0.59304 ,5.81889 
316 ,59.5206 ,1.28924 ,0.55197 ,5.41595 
317 ,59.7125 ,1.29107 ,0.55882 ,5.48311 
318 ,59.8887 ,1.29284 ,0.55197 ,5.41595 
319 ,60.0648 ,1.29454 ,0.54855 ,5.38237 
320 ,60.2570 ,1.29657 ,0.51775 ,5.08017 
321 ,60.4490 ,1.29848 ,0.52459 ,5.14732 
322 ,60.6411 ,1.30031 ,0.49380 ,4.84512 
323 ,60.8171 ,1.30218 ,0.50064 ,4.91228 
324 ,60.9929 ,1.30389 ,0.48695 ,4.77796 
325 ,61.1692 ,1.30574 ,0.49037 ,4.81154 
326 ,61.3452 ,1.30737 ,0.47668 ,4.67723 
327 ,61.5214 ,1.30921 ,0.45273 ,4.44218 
328 ,61.7293 ,1.31113 ,0.44588 ,4.37502 
329 ,61.9219 ,1.31313 ,0.42193 ,4.13997 
330 ,62.1136 ,1.31511 ,0.39797 ,3.90493 
331 ,62.2897 ,1.31686 ,0.41851 ,4.10640 
332 ,62.4659 ,1.31853 ,0.41166 ,4.03924 
333 ,62.6737 ,1.32063 ,0.39797 ,3.90493 
334 ,62.8496 ,1.32246 ,0.38086 ,3.73703 
335 ,63.0261 ,1.32423 ,0.37744 ,3.70346 
336 ,63.2177 ,1.32611 ,0.34322 ,3.36767 
337 ,63.3938 ,1.32782 ,0.33980 ,3.33410 
338 ,63.5702 ,1.32961 ,0.35006 ,3.43483 
339 ,63.7463 ,1.33143 ,0.34322 ,3.36767 
340 ,63.9221 ,1.33315 ,0.31242 ,3.06547 
341 ,64.1145 ,1.33502 ,0.30215 ,2.96473 
342 ,64.3386 ,1.33716 ,0.28847 ,2.83042 
343 ,64.5466 ,1.33926 ,0.28504 ,2.79684 
344 ,64.7226 ,1.34111 ,0.26109 ,2.56179 
345 ,64.8989 ,1.34293 ,0.25424 ,2.49464 
346 ,65.0906 ,1.34476 ,0.25424 ,2.49464 
347 ,65.2670 ,1.34661 ,0.25082 ,2.46106 
348 ,65.4426 ,1.34833 ,0.22002 ,2.15885 
349 ,65.6189 ,1.35019 ,0.22687 ,2.22601 
350 ,65.8111 ,1.35199 ,0.21660 ,2.12528 
351 ,66.0192 ,1.35404 ,0.18580 ,1.82307 
352 ,66.1949 ,1.35586 ,0.18238 ,1.78949 
353 ,66.3712 ,1.35760 ,0.18922 ,1.85665 
354 ,66.5475 ,1.35940 ,0.17896 ,1.75592 
355 ,66.7236 ,1.36118 ,0.16527 ,1.62160 
356 ,66.9316 ,1.36316 ,0.15842 ,1.55445 
357 ,67.1236 ,1.36509 ,0.12762 ,1.25224 
358 ,67.3158 ,1.36711 ,0.11051 ,1.08435 
359 ,67.5078 ,1.36904 ,0.10367 ,1.01719 
360 ,67.7000 ,1.37079 ,0.11051 ,1.08435 
361 ,67.9238 ,1.37303 ,0.10025 ,0.98361 
362 ,68.0840 ,1.37485 ,0.07629 ,0.74857 
363 ,68.2916 ,1.37666 ,0.08998 ,0.88288 
364 ,68.4682 ,1.37859 ,0.06602 ,0.64783 
365 ,68.6439 ,1.38033 ,0.05576 ,0.54710 
366 ,68.8205 ,1.38208 ,0.03180 ,0.31205 
367 ,69.0123 ,1.38401 ,0.03522 ,0.34563 
368 ,69.2046 ,1.38592 ,0.02838 ,0.27847 
369 ,69.3806 ,1.38775 ,0.02496 ,0.24489 
370 ,69.5568 ,1.38944 ,-0.00926 ,-0.09089 
371 ,69.7646 ,1.39147 ,-0.00584 ,-0.05731 
372 ,69.9569 ,1.39350 ,-0.02295 ,-0.22520 
373 ,70.1329 ,1.39529 ,-0.00584 ,-0.05731 
374 ,70.3091 ,1.39699 ,-0.02980 ,-0.29236 
375 ,70.5166 ,1.39898 ,-0.05375 ,-0.52741 
376 ,70.6933 ,1.40083 ,-0.06744 ,-0.66172 
377 ,70.8851 ,1.40266 ,-0.06402 ,-0.62814 
378 ,71.0612 ,1.40452 ,-0.08455 ,-0.82961 
379 ,71.2372 ,1.40631 ,-0.09482 ,-0.93035 
380 ,71.4131 ,1.40810 ,-0.09140 ,-0.89677 
381 ,71.5895 ,1.40982 ,-0.10508 ,-1.03108 
382 ,71.7972 ,1.41180 ,-0.11877 ,-1.16540 
383 ,71.9736 ,1.41363 ,-0.12904 ,-1.26613 
384 ,72.1814 ,1.41565 ,-0.14615 ,-1.43402 
385 ,72.3578 ,1.41747 ,-0.15642 ,-1.53476 
386 ,72.5496 ,1.41932 ,-0.14615 ,-1.43402 
387 ,72.7261 ,1.42119 ,-0.14615 ,-1.43402 
388 ,72.9177 ,1.42313 ,-0.16668 ,-1.63549 
389 ,73.1098 ,1.42495 ,-0.17353 ,-1.70265 
390 ,73.3017 ,1.42683 ,-0.20775 ,-2.03843 
391 ,73.4782 ,1.42871 ,-0.21117 ,-2.07201 
392 ,73.6860 ,1.43071 ,-0.20775 ,-2.03843 
393 ,73.8626 ,1.43252 ,-0.21459 ,-2.10559 
394 ,74.0545 ,1.43445 ,-0.23855 ,-2.34064 
395 ,74.2467 ,1.43630 ,-0.22486 ,-2.20632 
396 ,74.4387 ,1.43827 ,-0.26250 ,-2.57569 
397 ,74.6148 ,1.44004 ,-0.26935 ,-2.64284 
398 ,74.8067 ,1.44187 ,-0.26593 ,-2.60926 
399 ,74.9829 ,1.44371 ,-0.27961 ,-2.74358 
400 ,75.1591 ,1.44550 ,-0.30015 ,-2.94505 
401 ,75.3510 ,1.44735 ,-0.27961 ,-2.74358 
402 ,75.5273 ,1.44919 ,-0.28988 ,-2.84431 
403 ,75.7195 ,1.45106 ,-0.32752 ,-3.21367 
404 ,75.8953 ,1.45294 ,-0.31726 ,-3.11294 
405 ,76.0873 ,1.45466 ,-0.33095 ,-3.24725 
406 ,76.2633 ,1.45646 ,-0.34121 ,-3.34799 
407 ,76.4553 ,1.45836 ,-0.36175 ,-3.54946 
408 ,76.6797 ,1.46050 ,-0.36175 ,-3.54946 
409 ,76.8713 ,1.46258 ,-0.36859 ,-3.61661 
410 ,77.0478 ,1.46438 ,-0.38228 ,-3.75093 
411 ,77.2559 ,1.46642 ,-0.39597 ,-3.88524 
412 ,77.4479 ,1.46834 ,-0.38912 ,-3.81808 
413 ,77.6401 ,1.47031 ,-0.40623 ,-3.98597 
414 ,77.8481 ,1.47231 ,-0.40966 ,-4.01955 
415 ,78.0238 ,1.47416 ,-0.43703 ,-4.28818 
416 ,78.2163 ,1.47598 ,-0.44388 ,-4.35534 
417 ,78.3922 ,1.47785 ,-0.44730 ,-4.38891 
418 ,78.5842 ,1.47965 ,-0.46441 ,-4.55681 
419 ,78.7764 ,1.48155 ,-0.47126 ,-4.62396 
420 ,78.9526 ,1.48337 ,-0.47126 ,-4.62396 
421 ,79.1284 ,1.48518 ,-0.48152 ,-4.72470 
422 ,79.3047 ,1.48695 ,-0.49179 ,-4.82543 
423 ,79.5124 ,1.48891 ,-0.49521 ,-4.85901 
424 ,79.6889 ,1.49076 ,-0.49863 ,-4.89259 
425 ,79.8807 ,1.49262 ,-0.52259 ,-5.12764 
426 ,80.0569 ,1.49448 ,-0.53628 ,-5.26195 
427 ,80.2490 ,1.49633 ,-0.53285 ,-5.22837 
428 ,80.4728 ,1.49853 ,-0.54997 ,-5.39626 
429 ,80.6650 ,1.50044 ,-0.56708 ,-5.56415 
430 ,80.8732 ,1.50252 ,-0.56365 ,-5.53058 
431 ,81.0653 ,1.50439 ,-0.55681 ,-5.46342 
432 ,81.2415 ,1.50622 ,-0.58419 ,-5.73205 
433 ,81.4176 ,1.50803 ,-0.60814 ,-5.96709 
434 ,81.6094 ,1.50997 ,-0.60130 ,-5.89994 
435 ,81.8016 ,1.51178 ,-0.62525 ,-6.13499 
436 ,81.9939 ,1.51367 ,-0.62868 ,-6.16856 
437 ,82.1860 ,1.51563 ,-0.63552 ,-6.23572 
438 ,82.3780 ,1.51762 ,-0.63894 ,-6.26930 
439 ,82.5858 ,1.51968 ,-0.64579 ,-6.33646 
440 ,82.7781 ,1.52151 ,-0.65947 ,-6.47077 
441 ,82.9860 ,1.52363 ,-0.66290 ,-6.50435 
442 ,83.1784 ,1.52558 ,-0.68343 ,-6.70582 
443 ,83.3700 ,1.52752 ,-0.66632 ,-6.53793 
444 ,83.5621 ,1.52947 ,-0.68343 ,-6.70582 
445 ,83.7544 ,1.53132 ,-0.70054 ,-6.87371 
446 ,83.9467 ,1.53336 ,-0.70739 ,-6.94086 
447 ,84.1384 ,1.53517 ,-0.72450 ,-7.10876 
448 ,84.3147 ,1.53699 ,-0.74161 ,-7.27665 
449 ,84.4908 ,1.53877 ,-0.72107 ,-7.07518 
450 ,84.6828 ,1.54068 ,-0.74161 ,-7.27665 
451 ,84.8589 ,1.54244 ,-0.76556 ,-7.51170 
452 ,85.0510 ,1.54434 ,-0.77241 ,-7.57885 
453 ,85.2590 ,1.54642 ,-0.78610 ,-7.71317 
454 ,85.4350 ,1.54816 ,-0.78952 ,-7.74674 
455 ,85.6111 ,1.55008 ,-0.78610 ,-7.71317 
456 ,85.7873 ,1.55174 ,-0.79636 ,-7.81390 
457 ,85.9951 ,1.55371 ,-0.80663 ,-7.91464 
458 ,86.1875 ,1.55561 ,-0.79978 ,-7.84748 
459 ,86.3792 ,1.55757 ,-0.82374 ,-8.08253 
460 ,86.5872 ,1.55966 ,-0.83058 ,-8.14968 
461 ,86.7637 ,1.56147 ,-0.81689 ,-8.01537 
462 ,86.9399 ,1.56323 ,-0.86481 ,-8.48547 
463 ,87.1480 ,1.56523 ,-0.84769 ,-8.31758 
