Data stamp = , 23-04-2022 10:31:01 238

Calibration Values: 
Slope = , 26.54 , g/V 
Offset Voltage at no contact = , -0.501760 , V 

No , Time , Stage Position ,   Mass , Force 
   ,  (s) ,      (mm)      ,   (g)  , (mN)  

1 ,0.0000 ,0.69942 ,5.34301 ,52.42557 
2 ,0.2010 ,0.69950 ,5.32932 ,52.29126 
3 ,0.6493 ,0.70089 ,5.35669 ,52.55988 
4 ,0.8413 ,0.70264 ,5.33958 ,52.39199 
5 ,1.0173 ,0.70436 ,5.34985 ,52.49273 
6 ,1.1931 ,0.70608 ,5.34643 ,52.45915 
7 ,1.3696 ,0.70782 ,5.33958 ,52.39199 
8 ,1.5777 ,0.70989 ,5.34643 ,52.45915 
9 ,1.7693 ,0.71193 ,5.30194 ,52.02263 
10 ,1.9456 ,0.71366 ,5.29510 ,51.95548 
11 ,2.1538 ,0.71569 ,5.29167 ,51.92190 
12 ,2.3299 ,0.71745 ,5.26087 ,51.61969 
13 ,2.5219 ,0.71936 ,5.23007 ,51.31749 
14 ,2.6982 ,0.72117 ,5.22665 ,51.28391 
15 ,3.0499 ,0.72384 ,5.19927 ,51.01528 
16 ,3.2424 ,0.72648 ,5.15821 ,50.61234 
17 ,3.4504 ,0.72866 ,5.14794 ,50.51161 
18 ,3.6585 ,0.73064 ,5.11372 ,50.17583 
19 ,3.8506 ,0.73255 ,5.11372 ,50.17583 
20 ,4.0587 ,0.73472 ,5.08634 ,49.90720 
21 ,4.2669 ,0.73691 ,5.06923 ,49.73931 
22 ,4.4424 ,0.73867 ,5.05212 ,49.57142 
23 ,4.6190 ,0.74037 ,5.03843 ,49.43710 
24 ,4.8270 ,0.74246 ,4.99394 ,49.00058 
25 ,5.0191 ,0.74429 ,5.00421 ,49.10132 
26 ,5.2111 ,0.74630 ,4.97683 ,48.83269 
27 ,5.3873 ,0.74808 ,4.94946 ,48.56407 
28 ,5.5634 ,0.74987 ,4.93919 ,48.46333 
29 ,5.7553 ,0.75181 ,4.91181 ,48.19471 
30 ,5.9473 ,0.75360 ,4.90497 ,48.12755 
31 ,6.1395 ,0.75554 ,4.88786 ,47.95966 
32 ,6.3154 ,0.75736 ,4.86390 ,47.72461 
33 ,6.5076 ,0.75928 ,4.83310 ,47.42240 
34 ,6.6838 ,0.76099 ,4.81599 ,47.25451 
35 ,6.8758 ,0.76293 ,4.80915 ,47.18736 
36 ,7.0520 ,0.76474 ,4.79546 ,47.05304 
37 ,7.2440 ,0.76656 ,4.76808 ,46.78442 
38 ,7.4360 ,0.76845 ,4.75097 ,46.61653 
39 ,7.6278 ,0.77035 ,4.73728 ,46.48221 
40 ,7.8203 ,0.77226 ,4.70990 ,46.21359 
41 ,8.0284 ,0.77437 ,4.68595 ,45.97854 
42 ,8.2204 ,0.77632 ,4.68253 ,45.94496 
43 ,8.3966 ,0.77809 ,4.65857 ,45.70991 
44 ,8.5886 ,0.78007 ,4.62435 ,45.37413 
45 ,8.7807 ,0.78195 ,4.62093 ,45.34055 
46 ,8.9567 ,0.78373 ,4.62093 ,45.34055 
47 ,9.1486 ,0.78564 ,4.57644 ,44.90403 
48 ,9.3569 ,0.78756 ,4.57986 ,44.93761 
49 ,9.5649 ,0.78972 ,4.55249 ,44.66898 
50 ,9.7411 ,0.79157 ,4.51826 ,44.33320 
51 ,9.9331 ,0.79344 ,4.52169 ,44.36678 
52 ,10.1411 ,0.79553 ,4.49773 ,44.13173 
53 ,10.3174 ,0.79734 ,4.48404 ,43.99742 
54 ,10.5094 ,0.79925 ,4.46351 ,43.79595 
55 ,10.7015 ,0.80117 ,4.42586 ,43.42659 
56 ,10.8771 ,0.80291 ,4.43613 ,43.52732 
57 ,11.0696 ,0.80476 ,4.41902 ,43.35943 
58 ,11.2456 ,0.80674 ,4.38480 ,43.02365 
59 ,11.4375 ,0.80848 ,4.39164 ,43.09080 
60 ,11.6138 ,0.81027 ,4.37795 ,42.95649 
61 ,11.7897 ,0.81203 ,4.34031 ,42.58713 
62 ,11.9815 ,0.81396 ,4.31636 ,42.35208 
63 ,12.1580 ,0.81571 ,4.30951 ,42.28492 
64 ,12.3339 ,0.81747 ,4.29924 ,42.18419 
65 ,12.5101 ,0.81920 ,4.28556 ,42.04988 
66 ,12.6862 ,0.82100 ,4.24449 ,41.64694 
67 ,12.8784 ,0.82283 ,4.23422 ,41.54620 
68 ,13.0540 ,0.82467 ,4.22738 ,41.47905 
69 ,13.2466 ,0.82654 ,4.19316 ,41.14326 
70 ,13.4383 ,0.82855 ,4.17605 ,40.97537 
71 ,13.6146 ,0.83025 ,4.17605 ,40.97537 
72 ,13.8228 ,0.83228 ,4.13156 ,40.53885 
73 ,14.0309 ,0.83432 ,4.13498 ,40.57243 
74 ,14.2229 ,0.83637 ,4.10760 ,40.30380 
75 ,14.4148 ,0.83826 ,4.09049 ,40.13591 
76 ,14.6231 ,0.84032 ,4.06996 ,39.93444 
77 ,14.7993 ,0.84215 ,4.04258 ,39.66582 
78 ,15.0073 ,0.84420 ,4.03232 ,39.56508 
79 ,15.1990 ,0.84605 ,4.02547 ,39.49793 
80 ,15.3914 ,0.84799 ,3.99125 ,39.16214 
81 ,15.5836 ,0.84999 ,3.96729 ,38.92709 
82 ,15.7756 ,0.85187 ,3.95018 ,38.75920 
83 ,15.9677 ,0.85378 ,3.94334 ,38.69205 
84 ,16.1436 ,0.85561 ,3.92965 ,38.55773 
85 ,16.3193 ,0.85731 ,3.91254 ,38.38984 
86 ,16.4959 ,0.85904 ,3.91254 ,38.38984 
87 ,16.6875 ,0.86096 ,3.87832 ,38.05406 
88 ,16.8640 ,0.86274 ,3.85094 ,37.78543 
89 ,17.0561 ,0.86462 ,3.86121 ,37.88617 
90 ,17.2482 ,0.86658 ,3.83383 ,37.61754 
91 ,17.4242 ,0.86835 ,3.80987 ,37.38249 
92 ,17.6001 ,0.87013 ,3.78592 ,37.14744 
93 ,17.7925 ,0.87200 ,3.77908 ,37.08029 
94 ,18.0166 ,0.87414 ,3.76196 ,36.91240 
95 ,18.2086 ,0.87620 ,3.73801 ,36.67735 
96 ,18.3845 ,0.87793 ,3.71748 ,36.47588 
97 ,18.5606 ,0.87975 ,3.69694 ,36.27441 
98 ,18.7367 ,0.88146 ,3.71748 ,36.47588 
99 ,18.9129 ,0.88325 ,3.67983 ,36.10652 
100 ,19.0890 ,0.88500 ,3.65246 ,35.83789 
101 ,19.2970 ,0.88701 ,3.65930 ,35.90505 
102 ,19.4730 ,0.88891 ,3.60797 ,35.40137 
103 ,19.6491 ,0.89058 ,3.60797 ,35.40137 
104 ,19.8250 ,0.89234 ,3.59428 ,35.26706 
105 ,20.0013 ,0.89414 ,3.57032 ,35.03201 
106 ,20.1934 ,0.89611 ,3.55663 ,34.89770 
107 ,20.3697 ,0.89780 ,3.53952 ,34.72981 
108 ,20.5453 ,0.89955 ,3.52241 ,34.56192 
109 ,20.7374 ,0.90148 ,3.51899 ,34.52834 
110 ,20.9135 ,0.90336 ,3.50530 ,34.39402 
111 ,21.0897 ,0.90503 ,3.48819 ,34.22613 
112 ,21.2658 ,0.90676 ,3.45739 ,33.92393 
113 ,21.4740 ,0.90880 ,3.45397 ,33.89035 
114 ,21.6497 ,0.91067 ,3.43344 ,33.68888 
115 ,21.8418 ,0.91247 ,3.40948 ,33.45383 
116 ,22.0502 ,0.91456 ,3.38895 ,33.25236 
117 ,22.2260 ,0.91635 ,3.36842 ,33.05089 
118 ,22.4184 ,0.91816 ,3.34788 ,32.84942 
119 ,22.6101 ,0.92023 ,3.35130 ,32.88300 
120 ,22.8021 ,0.92204 ,3.32051 ,32.58080 
121 ,22.9780 ,0.92387 ,3.31366 ,32.51364 
122 ,23.1540 ,0.92568 ,3.28286 ,32.21143 
123 ,23.3302 ,0.92743 ,3.28286 ,32.21143 
124 ,23.5066 ,0.92924 ,3.25891 ,31.97639 
125 ,23.7146 ,0.93116 ,3.25548 ,31.94281 
126 ,23.9068 ,0.93308 ,3.23495 ,31.74134 
127 ,24.0830 ,0.93492 ,3.19731 ,31.37198 
128 ,24.2750 ,0.93689 ,3.20415 ,31.43913 
129 ,24.4511 ,0.93864 ,3.19388 ,31.33840 
130 ,24.6431 ,0.94055 ,3.15624 ,30.96904 
131 ,24.8193 ,0.94231 ,3.15282 ,30.93546 
132 ,25.0112 ,0.94418 ,3.14597 ,30.86830 
133 ,25.2354 ,0.94619 ,3.10833 ,30.49894 
134 ,25.4435 ,0.94846 ,3.09464 ,30.36463 
135 ,25.6195 ,0.95033 ,3.07753 ,30.19674 
136 ,25.8116 ,0.95227 ,3.08095 ,30.23031 
137 ,26.0033 ,0.95404 ,3.05358 ,29.96169 
138 ,26.1958 ,0.95598 ,3.02620 ,29.69306 
139 ,26.4039 ,0.95810 ,3.01593 ,29.59233 
140 ,26.5958 ,0.95999 ,3.01251 ,29.55875 
141 ,26.7719 ,0.96180 ,2.98513 ,29.29012 
142 ,26.9480 ,0.96368 ,2.95433 ,28.98792 
143 ,27.1238 ,0.96528 ,2.94407 ,28.88718 
144 ,27.3002 ,0.96707 ,2.93722 ,28.82003 
145 ,27.4762 ,0.96884 ,2.92696 ,28.71929 
146 ,27.6684 ,0.97078 ,2.91327 ,28.58498 
147 ,27.8605 ,0.97271 ,2.89958 ,28.45066 
148 ,28.0525 ,0.97459 ,2.88247 ,28.28277 
149 ,28.2285 ,0.97634 ,2.85851 ,28.04772 
150 ,28.4045 ,0.97812 ,2.84140 ,27.87983 
151 ,28.5967 ,0.97997 ,2.83798 ,27.84625 
152 ,28.7884 ,0.98196 ,2.81060 ,27.57763 
153 ,28.9650 ,0.98370 ,2.79691 ,27.44332 
154 ,29.1728 ,0.98573 ,2.78322 ,27.30900 
155 ,29.3652 ,0.98773 ,2.74900 ,26.97322 
156 ,29.5728 ,0.98977 ,2.75243 ,27.00680 
157 ,29.7490 ,0.99155 ,2.73531 ,26.83891 
158 ,29.9412 ,0.99348 ,2.71136 ,26.60386 
159 ,30.1172 ,0.99520 ,2.72163 ,26.70459 
160 ,30.2930 ,0.99701 ,2.69767 ,26.46954 
161 ,30.4854 ,0.99885 ,2.67029 ,26.20092 
162 ,30.6934 ,1.00085 ,2.64976 ,25.99945 
163 ,30.8855 ,1.00292 ,2.63949 ,25.89871 
164 ,31.0936 ,1.00494 ,2.62923 ,25.79798 
165 ,31.2857 ,1.00687 ,2.60869 ,25.59651 
166 ,31.4618 ,1.00877 ,2.59843 ,25.49577 
167 ,31.6539 ,1.01054 ,2.58474 ,25.36146 
168 ,31.8300 ,1.01235 ,2.56421 ,25.15999 
169 ,32.0060 ,1.01411 ,2.54025 ,24.92494 
170 ,32.1823 ,1.01590 ,2.52998 ,24.82421 
171 ,32.3744 ,1.01772 ,2.52314 ,24.75705 
172 ,32.5823 ,1.01981 ,2.48892 ,24.42127 
173 ,32.7585 ,1.02169 ,2.48550 ,24.38769 
174 ,32.9823 ,1.02369 ,2.46154 ,24.15264 
175 ,33.1586 ,1.02565 ,2.46839 ,24.21980 
176 ,33.3504 ,1.02759 ,2.43759 ,23.91759 
177 ,33.5264 ,1.02931 ,2.41705 ,23.71612 
178 ,33.7188 ,1.03125 ,2.41021 ,23.64897 
179 ,33.9268 ,1.03325 ,2.39652 ,23.51465 
180 ,34.1350 ,1.03532 ,2.37941 ,23.34676 
181 ,34.3270 ,1.03730 ,2.34861 ,23.04456 
182 ,34.5346 ,1.03924 ,2.34177 ,22.97740 
183 ,34.7111 ,1.04122 ,2.31781 ,22.74235 
184 ,34.9030 ,1.04303 ,2.30754 ,22.64162 
185 ,35.0794 ,1.04482 ,2.31097 ,22.67520 
186 ,35.2715 ,1.04669 ,2.26990 ,22.27226 
187 ,35.4634 ,1.04864 ,2.26306 ,22.20510 
188 ,35.6395 ,1.05046 ,2.25621 ,22.13794 
189 ,35.8316 ,1.05234 ,2.22883 ,21.86932 
190 ,36.0237 ,1.05422 ,2.22541 ,21.83574 
191 ,36.2157 ,1.05619 ,2.20830 ,21.66785 
192 ,36.3920 ,1.05798 ,2.19119 ,21.49996 
193 ,36.5840 ,1.05989 ,2.17066 ,21.29849 
194 ,36.7598 ,1.06167 ,2.16039 ,21.19775 
195 ,36.9519 ,1.06352 ,2.14328 ,21.02986 
196 ,37.1439 ,1.06549 ,2.12275 ,20.82839 
197 ,37.3360 ,1.06730 ,2.11590 ,20.76123 
198 ,37.5438 ,1.06938 ,2.10564 ,20.66050 
199 ,37.7205 ,1.07126 ,2.09195 ,20.52619 
200 ,37.9284 ,1.07329 ,2.06115 ,20.22398 
201 ,38.1043 ,1.07508 ,2.05088 ,20.12325 
202 ,38.2965 ,1.07699 ,2.05088 ,20.12325 
203 ,38.4886 ,1.07878 ,2.03035 ,19.92178 
204 ,38.6646 ,1.08072 ,1.99955 ,19.61957 
205 ,38.8568 ,1.08253 ,2.00982 ,19.72031 
206 ,39.0329 ,1.08433 ,1.98928 ,19.51884 
207 ,39.2086 ,1.08614 ,1.96875 ,19.31737 
208 ,39.3848 ,1.08789 ,1.94137 ,19.04874 
209 ,39.5929 ,1.08983 ,1.94137 ,19.04874 
210 ,39.7848 ,1.09181 ,1.92426 ,18.88085 
211 ,39.9930 ,1.09390 ,1.91399 ,18.78011 
212 ,40.1852 ,1.09585 ,1.88662 ,18.51149 
213 ,40.3934 ,1.09789 ,1.88319 ,18.47791 
214 ,40.5696 ,1.09971 ,1.85240 ,18.17570 
215 ,40.7615 ,1.10161 ,1.85924 ,18.24286 
216 ,40.9852 ,1.10372 ,1.85240 ,18.17570 
217 ,41.1454 ,1.10560 ,1.82160 ,17.87350 
218 ,41.3218 ,1.10728 ,1.80106 ,17.67203 
219 ,41.5138 ,1.10920 ,1.80449 ,17.70561 
220 ,41.7061 ,1.11105 ,1.75657 ,17.23551 
221 ,41.9137 ,1.11316 ,1.77711 ,17.43698 
222 ,42.0902 ,1.11488 ,1.75657 ,17.23551 
223 ,42.2663 ,1.11669 ,1.72578 ,16.93331 
224 ,42.4744 ,1.11872 ,1.71893 ,16.86615 
225 ,42.6661 ,1.12064 ,1.71209 ,16.79899 
226 ,42.8585 ,1.12245 ,1.69155 ,16.59752 
227 ,43.0506 ,1.12448 ,1.68129 ,16.49679 
228 ,43.2423 ,1.12640 ,1.67102 ,16.39605 
229 ,43.4187 ,1.12824 ,1.66760 ,16.36248 
230 ,43.6109 ,1.13013 ,1.64364 ,16.12743 
231 ,43.8186 ,1.13217 ,1.64022 ,16.09385 
232 ,43.9946 ,1.13395 ,1.60600 ,15.75807 
233 ,44.1870 ,1.13580 ,1.58889 ,15.59018 
234 ,44.3951 ,1.13790 ,1.59231 ,15.62375 
235 ,44.5711 ,1.13977 ,1.55809 ,15.28797 
236 ,44.7473 ,1.14154 ,1.54440 ,15.15366 
237 ,44.9553 ,1.14342 ,1.54782 ,15.18724 
238 ,45.1635 ,1.14549 ,1.53413 ,15.05292 
239 ,45.3553 ,1.14753 ,1.52045 ,14.91861 
240 ,45.5476 ,1.14953 ,1.49307 ,14.64998 
241 ,45.7397 ,1.15144 ,1.48622 ,14.58283 
242 ,45.9157 ,1.15322 ,1.48622 ,14.58283 
243 ,46.0918 ,1.15491 ,1.46227 ,14.34778 
244 ,46.2682 ,1.15670 ,1.43147 ,14.04557 
245 ,46.4597 ,1.15860 ,1.43147 ,14.04557 
246 ,46.6682 ,1.16061 ,1.42120 ,13.94484 
247 ,46.8602 ,1.16260 ,1.40067 ,13.74337 
248 ,47.0361 ,1.16435 ,1.39040 ,13.64263 
249 ,47.2124 ,1.16615 ,1.38356 ,13.57548 
250 ,47.4042 ,1.16804 ,1.36303 ,13.37401 
251 ,47.5800 ,1.16989 ,1.35618 ,13.30685 
252 ,47.7566 ,1.17154 ,1.33565 ,13.10538 
253 ,47.9804 ,1.17357 ,1.31854 ,12.93749 
254 ,48.1567 ,1.17552 ,1.32880 ,13.03822 
255 ,48.3329 ,1.17734 ,1.30485 ,12.80318 
256 ,48.5409 ,1.17925 ,1.28089 ,12.56813 
257 ,48.7169 ,1.18123 ,1.25009 ,12.26592 
258 ,48.9091 ,1.18304 ,1.25009 ,12.26592 
259 ,49.1012 ,1.18498 ,1.25352 ,12.29950 
260 ,49.2933 ,1.18686 ,1.24667 ,12.23235 
261 ,49.4852 ,1.18883 ,1.20903 ,11.86298 
262 ,49.6769 ,1.19076 ,1.20218 ,11.79583 
263 ,49.8535 ,1.19257 ,1.20218 ,11.79583 
264 ,50.0453 ,1.19445 ,1.17481 ,11.52720 
265 ,50.2215 ,1.19623 ,1.15770 ,11.35931 
266 ,50.3975 ,1.19799 ,1.16454 ,11.42647 
267 ,50.5898 ,1.19990 ,1.14058 ,11.19142 
268 ,50.7815 ,1.20178 ,1.12690 ,11.05710 
269 ,50.9899 ,1.20371 ,1.13032 ,11.09068 
270 ,51.1659 ,1.20565 ,1.10294 ,10.82206 
271 ,51.3581 ,1.20759 ,1.10294 ,10.82206 
272 ,51.5500 ,1.20948 ,1.06530 ,10.45270 
273 ,51.7421 ,1.21136 ,1.06872 ,10.48627 
274 ,51.9182 ,1.21317 ,1.06530 ,10.45270 
275 ,52.0942 ,1.21489 ,1.04476 ,10.25123 
276 ,52.2707 ,1.21671 ,1.03792 ,10.18407 
277 ,52.4943 ,1.21878 ,1.00370 ,9.84829 
278 ,52.6707 ,1.22072 ,0.99685 ,9.78113 
279 ,52.8627 ,1.22261 ,0.97290 ,9.54608 
280 ,53.0548 ,1.22459 ,0.97290 ,9.54608 
281 ,53.2469 ,1.22650 ,0.95237 ,9.34461 
282 ,53.4390 ,1.22828 ,0.95921 ,9.41177 
283 ,53.6150 ,1.23021 ,0.93183 ,9.14314 
284 ,53.7911 ,1.23188 ,0.93183 ,9.14314 
285 ,53.9828 ,1.23373 ,0.92499 ,9.07598 
286 ,54.1750 ,1.23563 ,0.90446 ,8.87451 
287 ,54.3834 ,1.23776 ,0.88050 ,8.63947 
288 ,54.5915 ,1.23972 ,0.85997 ,8.43800 
289 ,54.7835 ,1.24175 ,0.86339 ,8.47158 
290 ,54.9596 ,1.24360 ,0.84970 ,8.33726 
291 ,55.1515 ,1.24557 ,0.81206 ,7.96790 
292 ,55.3276 ,1.24723 ,0.81890 ,8.03506 
293 ,55.5037 ,1.24898 ,0.80863 ,7.93432 
294 ,55.6959 ,1.25086 ,0.80863 ,7.93432 
295 ,55.8879 ,1.25290 ,0.79152 ,7.76643 
296 ,56.0801 ,1.25466 ,0.77441 ,7.59854 
297 ,56.2881 ,1.25673 ,0.76757 ,7.53138 
298 ,56.4963 ,1.25888 ,0.74361 ,7.29633 
299 ,56.6883 ,1.26079 ,0.71966 ,7.06129 
300 ,56.8803 ,1.26275 ,0.72308 ,7.09486 
301 ,57.0564 ,1.26455 ,0.71624 ,7.02771 
302 ,57.2481 ,1.26644 ,0.70939 ,6.96055 
303 ,57.4243 ,1.26822 ,0.68544 ,6.72550 
304 ,57.6007 ,1.26998 ,0.67517 ,6.62477 
305 ,57.7926 ,1.27183 ,0.66148 ,6.49046 
306 ,57.9689 ,1.27364 ,0.64779 ,6.35614 
307 ,58.1773 ,1.27565 ,0.65806 ,6.45688 
308 ,58.3526 ,1.27756 ,0.62726 ,6.15467 
309 ,58.5289 ,1.27924 ,0.62384 ,6.12109 
310 ,58.6886 ,1.28099 ,0.59988 ,5.88605 
311 ,58.8486 ,1.28255 ,0.58962 ,5.78531 
312 ,59.0247 ,1.28417 ,0.57935 ,5.68458 
313 ,59.2173 ,1.28602 ,0.56908 ,5.58384 
314 ,59.4250 ,1.28813 ,0.55539 ,5.44953 
315 ,59.6173 ,1.29008 ,0.55539 ,5.44953 
316 ,59.7935 ,1.29190 ,0.55539 ,5.44953 
317 ,60.0015 ,1.29390 ,0.52459 ,5.14732 
318 ,60.1777 ,1.29572 ,0.52117 ,5.11375 
319 ,60.3853 ,1.29775 ,0.49380 ,4.84512 
320 ,60.5619 ,1.29962 ,0.48353 ,4.74438 
321 ,60.7698 ,1.30158 ,0.48695 ,4.77796 
322 ,60.9458 ,1.30338 ,0.47326 ,4.64365 
323 ,61.1221 ,1.30518 ,0.45957 ,4.50934 
324 ,61.3140 ,1.30706 ,0.45957 ,4.50934 
325 ,61.5218 ,1.30913 ,0.44246 ,4.34144 
326 ,61.6984 ,1.31097 ,0.42193 ,4.13997 
327 ,61.8903 ,1.31288 ,0.42193 ,4.13997 
328 ,62.0825 ,1.31472 ,0.40824 ,4.00566 
329 ,62.2905 ,1.31683 ,0.40482 ,3.97208 
330 ,62.4826 ,1.31874 ,0.38086 ,3.73703 
331 ,62.6587 ,1.32049 ,0.37060 ,3.63630 
332 ,62.8669 ,1.32262 ,0.35006 ,3.43483 
333 ,63.0589 ,1.32455 ,0.34664 ,3.40125 
334 ,63.2510 ,1.32645 ,0.32953 ,3.23336 
335 ,63.4431 ,1.32833 ,0.33638 ,3.30052 
336 ,63.6347 ,1.33030 ,0.31926 ,3.13263 
337 ,63.8272 ,1.33216 ,0.31584 ,3.09905 
338 ,64.0352 ,1.33425 ,0.30558 ,2.99831 
339 ,64.2273 ,1.33617 ,0.28162 ,2.76326 
340 ,64.4035 ,1.33799 ,0.27135 ,2.66253 
341 ,64.5953 ,1.33981 ,0.27135 ,2.66253 
342 ,64.8036 ,1.34193 ,0.24398 ,2.39390 
343 ,64.9796 ,1.34376 ,0.24398 ,2.39390 
344 ,65.1719 ,1.34557 ,0.23713 ,2.32675 
345 ,65.3477 ,1.34745 ,0.22687 ,2.22601 
346 ,65.5239 ,1.34917 ,0.20633 ,2.02454 
347 ,65.7320 ,1.35110 ,0.22002 ,2.15885 
348 ,65.9239 ,1.35314 ,0.18922 ,1.85665 
349 ,66.1162 ,1.35500 ,0.18922 ,1.85665 
350 ,66.3083 ,1.35697 ,0.16185 ,1.58802 
351 ,66.5004 ,1.35892 ,0.15500 ,1.52087 
352 ,66.6922 ,1.36080 ,0.15500 ,1.52087 
353 ,66.8841 ,1.36273 ,0.12420 ,1.21866 
354 ,67.0763 ,1.36458 ,0.11051 ,1.08435 
355 ,67.2527 ,1.36647 ,0.11736 ,1.15151 
356 ,67.4607 ,1.36850 ,0.10025 ,0.98361 
357 ,67.6528 ,1.37039 ,0.09682 ,0.95004 
358 ,67.8448 ,1.37233 ,0.08314 ,0.81572 
359 ,68.0209 ,1.37414 ,0.05576 ,0.54710 
360 ,68.2289 ,1.37612 ,0.05918 ,0.58067 
361 ,68.4210 ,1.37809 ,0.04549 ,0.44636 
362 ,68.6132 ,1.38001 ,0.04891 ,0.47994 
363 ,68.8050 ,1.38197 ,0.03522 ,0.34563 
364 ,68.9969 ,1.38386 ,0.03180 ,0.31205 
365 ,69.1894 ,1.38579 ,0.01127 ,0.11058 
366 ,69.3815 ,1.38774 ,-0.00242 ,-0.02373 
367 ,69.5736 ,1.38963 ,-0.00584 ,-0.05731 
368 ,69.7495 ,1.39146 ,-0.01269 ,-0.12447 
369 ,69.9416 ,1.39332 ,-0.03322 ,-0.32594 
370 ,70.1012 ,1.39503 ,-0.03322 ,-0.32594 
371 ,70.2779 ,1.39672 ,-0.04348 ,-0.42667 
372 ,70.4855 ,1.39871 ,-0.05033 ,-0.49383 
373 ,70.6620 ,1.40052 ,-0.08455 ,-0.82961 
374 ,70.8538 ,1.40242 ,-0.07771 ,-0.76246 
375 ,71.0296 ,1.40419 ,-0.07771 ,-0.76246 
376 ,71.1900 ,1.40596 ,-0.09824 ,-0.96393 
377 ,71.3658 ,1.40758 ,-0.10508 ,-1.03108 
378 ,71.5421 ,1.40930 ,-0.12904 ,-1.26613 
379 ,71.7181 ,1.41106 ,-0.13246 ,-1.29971 
380 ,71.9104 ,1.41303 ,-0.11877 ,-1.16540 
381 ,72.1026 ,1.41483 ,-0.14957 ,-1.46760 
382 ,72.2945 ,1.41683 ,-0.15299 ,-1.50118 
383 ,72.4707 ,1.41867 ,-0.16668 ,-1.63549 
384 ,72.6467 ,1.42036 ,-0.16326 ,-1.60191 
385 ,72.8389 ,1.42228 ,-0.17353 ,-1.70265 
386 ,73.0310 ,1.42424 ,-0.18722 ,-1.83696 
387 ,73.2390 ,1.42610 ,-0.21117 ,-2.07201 
388 ,73.4311 ,1.42820 ,-0.20775 ,-2.03843 
389 ,73.6233 ,1.43014 ,-0.22828 ,-2.23990 
390 ,73.8152 ,1.43199 ,-0.22828 ,-2.23990 
391 ,74.0232 ,1.43410 ,-0.23170 ,-2.27348 
392 ,74.1995 ,1.43587 ,-0.24881 ,-2.44137 
393 ,74.3909 ,1.43785 ,-0.25566 ,-2.50853 
394 ,74.5676 ,1.43961 ,-0.26593 ,-2.60926 
395 ,74.7758 ,1.44167 ,-0.27277 ,-2.67642 
396 ,74.9674 ,1.44353 ,-0.28646 ,-2.81073 
397 ,75.1597 ,1.44544 ,-0.30357 ,-2.97863 
398 ,75.3358 ,1.44724 ,-0.30699 ,-3.01220 
399 ,75.5436 ,1.44926 ,-0.32068 ,-3.14652 
400 ,75.7361 ,1.45116 ,-0.31726 ,-3.11294 
401 ,75.9280 ,1.45313 ,-0.34464 ,-3.38156 
402 ,76.1202 ,1.45505 ,-0.35832 ,-3.51588 
403 ,76.3282 ,1.45703 ,-0.35148 ,-3.44872 
404 ,76.5040 ,1.45891 ,-0.36859 ,-3.61661 
405 ,76.6964 ,1.46089 ,-0.37201 ,-3.65019 
406 ,76.8885 ,1.46279 ,-0.36859 ,-3.61661 
407 ,77.0806 ,1.46471 ,-0.39939 ,-3.91882 
408 ,77.2726 ,1.46662 ,-0.39939 ,-3.91882 
409 ,77.4488 ,1.46834 ,-0.38570 ,-3.78450 
410 ,77.6403 ,1.47038 ,-0.41308 ,-4.05313 
411 ,77.8005 ,1.47203 ,-0.42677 ,-4.18744 
412 ,77.9925 ,1.47376 ,-0.44388 ,-4.35534 
413 ,78.1690 ,1.47557 ,-0.43019 ,-4.22102 
414 ,78.3612 ,1.47752 ,-0.45757 ,-4.48965 
415 ,78.5690 ,1.47942 ,-0.46783 ,-4.59038 
416 ,78.7286 ,1.48127 ,-0.47468 ,-4.65754 
417 ,78.9051 ,1.48295 ,-0.48494 ,-4.75828 
418 ,79.0814 ,1.48471 ,-0.49179 ,-4.82543 
419 ,79.2737 ,1.48665 ,-0.49863 ,-4.89259 
420 ,79.4653 ,1.48851 ,-0.50890 ,-4.99332 
421 ,79.6417 ,1.49028 ,-0.52943 ,-5.19479 
422 ,79.8336 ,1.49216 ,-0.51574 ,-5.06048 
423 ,80.0098 ,1.49399 ,-0.52601 ,-5.16121 
424 ,80.1856 ,1.49570 ,-0.54312 ,-5.32911 
425 ,80.3619 ,1.49748 ,-0.56023 ,-5.49700 
426 ,80.5701 ,1.49952 ,-0.55339 ,-5.42984 
427 ,80.7782 ,1.50156 ,-0.57392 ,-5.63131 
428 ,80.9861 ,1.50373 ,-0.58077 ,-5.69847 
429 ,81.1623 ,1.50549 ,-0.60814 ,-5.96709 
430 ,81.3540 ,1.50735 ,-0.59103 ,-5.79920 
431 ,81.5462 ,1.50924 ,-0.61156 ,-6.00067 
432 ,81.7224 ,1.51109 ,-0.61499 ,-6.03425 
433 ,81.9141 ,1.51294 ,-0.61841 ,-6.06783 
434 ,82.0905 ,1.51478 ,-0.61841 ,-6.06783 
435 ,82.2986 ,1.51678 ,-0.64579 ,-6.33646 
436 ,82.4905 ,1.51874 ,-0.65263 ,-6.40361 
437 ,82.6668 ,1.52054 ,-0.66290 ,-6.50435 
438 ,82.8589 ,1.52239 ,-0.66974 ,-6.57150 
439 ,83.0510 ,1.52440 ,-0.66974 ,-6.57150 
440 ,83.2431 ,1.52629 ,-0.69027 ,-6.77297 
441 ,83.4345 ,1.52815 ,-0.69027 ,-6.77297 
442 ,83.6266 ,1.53005 ,-0.70396 ,-6.90729 
443 ,83.8028 ,1.53188 ,-0.72107 ,-7.07518 
444 ,83.9791 ,1.53368 ,-0.72450 ,-7.10876 
445 ,84.1553 ,1.53548 ,-0.73134 ,-7.17591 
446 ,84.3471 ,1.53730 ,-0.74161 ,-7.27665 
447 ,84.5235 ,1.53908 ,-0.75187 ,-7.37738 
448 ,84.6995 ,1.54086 ,-0.76898 ,-7.54527 
449 ,84.8759 ,1.54265 ,-0.77241 ,-7.57885 
450 ,85.0838 ,1.54469 ,-0.77925 ,-7.64601 
451 ,85.2759 ,1.54660 ,-0.78267 ,-7.67959 
452 ,85.4680 ,1.54854 ,-0.78610 ,-7.71317 
453 ,85.6600 ,1.55042 ,-0.80663 ,-7.91464 
454 ,85.8680 ,1.55246 ,-0.79978 ,-7.84748 
455 ,86.0442 ,1.55428 ,-0.82374 ,-8.08253 
456 ,86.2198 ,1.55616 ,-0.83058 ,-8.14968 
457 ,86.3963 ,1.55782 ,-0.85112 ,-8.35115 
458 ,86.6044 ,1.55983 ,-0.84427 ,-8.28400 
459 ,86.7805 ,1.56167 ,-0.85454 ,-8.38473 
460 ,86.9726 ,1.56355 ,-0.85454 ,-8.38473 
461 ,87.1486 ,1.56530 ,-0.85796 ,-8.41831 
462 ,87.3405 ,1.56724 ,-0.88192 ,-8.65336 
463 ,87.5166 ,1.56899 ,-0.89903 ,-8.82125 
