Data stamp = , 22-04-2022 14:30:10 483

Calibration Values: 
Slope = , 26.54 , g/V 
Offset Voltage at no contact = , -0.501760 , V 

No , Time , Stage Position ,   Mass , Force 
   ,  (s) ,      (mm)      ,   (g)  , (mN)  

1 ,0.0000 ,0.74968 ,5.00421 ,49.10132 
2 ,0.2350 ,0.74980 ,5.01106 ,49.16848 
3 ,0.7794 ,0.75156 ,5.01106 ,49.16848 
4 ,0.9717 ,0.75420 ,5.00421 ,49.10132 
5 ,1.1796 ,0.75622 ,5.01448 ,49.20205 
6 ,1.3729 ,0.75812 ,5.02132 ,49.26921 
7 ,1.5636 ,0.76000 ,5.01106 ,49.16848 
8 ,1.7555 ,0.76195 ,5.02132 ,49.26921 
9 ,1.9477 ,0.76383 ,4.98710 ,48.93343 
10 ,2.1238 ,0.76574 ,4.99052 ,48.96701 
11 ,2.3158 ,0.76756 ,4.97683 ,48.83269 
12 ,2.5078 ,0.76956 ,4.94261 ,48.49691 
13 ,2.7000 ,0.77138 ,4.93577 ,48.42975 
14 ,2.9081 ,0.77338 ,4.91181 ,48.19471 
15 ,3.1001 ,0.77539 ,4.91523 ,48.22828 
16 ,3.2922 ,0.77737 ,4.87417 ,47.82534 
17 ,3.4683 ,0.77914 ,4.86390 ,47.72461 
18 ,3.6600 ,0.78113 ,4.84679 ,47.55672 
19 ,3.8364 ,0.78281 ,4.82968 ,47.38883 
20 ,4.0125 ,0.78459 ,4.82284 ,47.32167 
21 ,4.2205 ,0.78660 ,4.80915 ,47.18736 
22 ,4.4126 ,0.78852 ,4.76808 ,46.78442 
23 ,4.5897 ,0.79030 ,4.75097 ,46.61653 
24 ,4.7807 ,0.79220 ,4.74755 ,46.58295 
25 ,4.9728 ,0.79412 ,4.71333 ,46.24716 
26 ,5.1649 ,0.79599 ,4.68937 ,46.01212 
27 ,5.3409 ,0.79790 ,4.68937 ,46.01212 
28 ,5.5170 ,0.79963 ,4.67911 ,45.91138 
29 ,5.7092 ,0.80141 ,4.64146 ,45.54202 
30 ,5.9013 ,0.80348 ,4.62093 ,45.34055 
31 ,6.0932 ,0.80530 ,4.61408 ,45.27339 
32 ,6.2856 ,0.80730 ,4.57986 ,44.93761 
33 ,6.4615 ,0.80903 ,4.56275 ,44.76972 
34 ,6.6537 ,0.81091 ,4.54564 ,44.60183 
35 ,6.8455 ,0.81295 ,4.52853 ,44.43394 
36 ,7.0378 ,0.81472 ,4.51484 ,44.29962 
37 ,7.2297 ,0.81677 ,4.49089 ,44.06457 
38 ,7.4058 ,0.81851 ,4.45666 ,43.72879 
39 ,7.5980 ,0.82027 ,4.44982 ,43.66163 
40 ,7.8060 ,0.82237 ,4.41902 ,43.35943 
41 ,7.9820 ,0.82422 ,4.40533 ,43.22512 
42 ,8.1581 ,0.82601 ,4.38822 ,43.05723 
43 ,8.3502 ,0.82788 ,4.39507 ,43.12438 
44 ,8.5263 ,0.82971 ,4.36427 ,42.82218 
45 ,8.7184 ,0.83161 ,4.35742 ,42.75502 
46 ,8.9105 ,0.83343 ,4.34031 ,42.58713 
47 ,9.0867 ,0.83527 ,4.30267 ,42.21777 
48 ,9.2954 ,0.83734 ,4.29582 ,42.15061 
49 ,9.4866 ,0.83929 ,4.27529 ,41.94914 
50 ,9.6628 ,0.84107 ,4.25476 ,41.74767 
51 ,9.8551 ,0.84290 ,4.25133 ,41.71409 
52 ,10.0310 ,0.84474 ,4.22738 ,41.47905 
53 ,10.2231 ,0.84659 ,4.21027 ,41.31115 
54 ,10.4151 ,0.84862 ,4.18974 ,41.10968 
55 ,10.6072 ,0.85043 ,4.15894 ,40.80748 
56 ,10.7834 ,0.85225 ,4.14525 ,40.67317 
57 ,10.9754 ,0.85410 ,4.14867 ,40.70674 
58 ,11.1673 ,0.85611 ,4.12814 ,40.50527 
59 ,11.3595 ,0.85798 ,4.11103 ,40.33738 
60 ,11.5516 ,0.85987 ,4.08023 ,40.03518 
61 ,11.7437 ,0.86177 ,4.05969 ,39.83371 
62 ,11.9356 ,0.86375 ,4.05285 ,39.76655 
63 ,12.1117 ,0.86553 ,4.02547 ,39.49793 
64 ,12.3038 ,0.86733 ,4.01178 ,39.36361 
65 ,12.4799 ,0.86923 ,3.99125 ,39.16214 
66 ,12.6720 ,0.87112 ,3.97756 ,39.02783 
67 ,12.8639 ,0.87302 ,3.96045 ,38.85994 
68 ,13.0401 ,0.87478 ,3.95018 ,38.75920 
69 ,13.2162 ,0.87660 ,3.93650 ,38.62489 
70 ,13.4083 ,0.87841 ,3.89885 ,38.25553 
71 ,13.6004 ,0.88041 ,3.89201 ,38.18837 
72 ,13.7764 ,0.88220 ,3.88858 ,38.15479 
73 ,13.9685 ,0.88410 ,3.85436 ,37.81901 
74 ,14.1606 ,0.88603 ,3.84067 ,37.68470 
75 ,14.3365 ,0.88778 ,3.81330 ,37.41607 
76 ,14.5286 ,0.88962 ,3.81672 ,37.44965 
77 ,14.7207 ,0.89156 ,3.78250 ,37.11387 
78 ,14.9289 ,0.89367 ,3.74485 ,36.74450 
79 ,15.1532 ,0.89580 ,3.74143 ,36.71093 
80 ,15.3453 ,0.89777 ,3.72090 ,36.50946 
81 ,15.5374 ,0.89981 ,3.70379 ,36.34157 
82 ,15.7294 ,0.90166 ,3.70037 ,36.30799 
83 ,15.9215 ,0.90357 ,3.67641 ,36.07294 
84 ,16.1138 ,0.90548 ,3.66614 ,35.97220 
85 ,16.3055 ,0.90743 ,3.63534 ,35.67000 
86 ,16.4817 ,0.90919 ,3.62508 ,35.56926 
87 ,16.6736 ,0.91103 ,3.62508 ,35.56926 
88 ,16.8661 ,0.91297 ,3.59428 ,35.26706 
89 ,17.0420 ,0.91481 ,3.56348 ,34.96485 
90 ,17.2182 ,0.91658 ,3.56006 ,34.93128 
91 ,17.4263 ,0.91849 ,3.53610 ,34.69623 
92 ,17.6018 ,0.92046 ,3.53610 ,34.69623 
93 ,17.7778 ,0.92218 ,3.52241 ,34.56192 
94 ,17.9700 ,0.92399 ,3.49846 ,34.32687 
95 ,18.1619 ,0.92599 ,3.47450 ,34.09182 
96 ,18.3380 ,0.92779 ,3.47108 ,34.05824 
97 ,18.5301 ,0.92964 ,3.44028 ,33.75604 
98 ,18.7222 ,0.93158 ,3.41633 ,33.52099 
99 ,18.9303 ,0.93354 ,3.41633 ,33.52099 
100 ,19.0904 ,0.93543 ,3.39237 ,33.28594 
101 ,19.2991 ,0.93727 ,3.39237 ,33.28594 
102 ,19.5231 ,0.93963 ,3.34788 ,32.84942 
103 ,19.7150 ,0.94148 ,3.35473 ,32.91658 
104 ,19.8911 ,0.94334 ,3.31366 ,32.51364 
105 ,20.0832 ,0.94525 ,3.30682 ,32.44648 
106 ,20.3075 ,0.94729 ,3.28628 ,32.24501 
107 ,20.4992 ,0.94944 ,3.27944 ,32.17786 
108 ,20.7076 ,0.95135 ,3.25548 ,31.94281 
109 ,20.8995 ,0.95336 ,3.23837 ,31.77492 
110 ,21.0758 ,0.95512 ,3.23153 ,31.70776 
111 ,21.2678 ,0.95696 ,3.20757 ,31.47271 
112 ,21.4759 ,0.95912 ,3.20415 ,31.43913 
113 ,21.6840 ,0.96111 ,3.16651 ,31.06977 
114 ,22.0677 ,0.96403 ,3.17677 ,31.17051 
115 ,22.2599 ,0.96693 ,3.14255 ,30.83472 
116 ,22.4361 ,0.96882 ,3.11175 ,30.53252 
117 ,22.6280 ,0.97063 ,3.09464 ,30.36463 
118 ,22.8044 ,0.97241 ,3.08438 ,30.26389 
119 ,22.9964 ,0.97426 ,3.08438 ,30.26389 
120 ,23.1892 ,0.97620 ,3.03647 ,29.79380 
121 ,23.3966 ,0.97828 ,3.02620 ,29.69306 
122 ,23.5728 ,0.98009 ,3.02962 ,29.72664 
123 ,23.7646 ,0.98200 ,3.00567 ,29.49159 
124 ,23.9408 ,0.98376 ,2.97487 ,29.18939 
125 ,24.1326 ,0.98564 ,2.97487 ,29.18939 
126 ,24.3246 ,0.98754 ,2.93722 ,28.82003 
127 ,24.5167 ,0.98951 ,2.94749 ,28.92076 
128 ,24.7251 ,0.99149 ,2.93038 ,28.75287 
129 ,24.9169 ,0.99353 ,2.91327 ,28.58498 
130 ,25.1088 ,0.99541 ,2.87905 ,28.24919 
131 ,25.3173 ,0.99738 ,2.86193 ,28.08130 
132 ,25.5096 ,0.99940 ,2.84140 ,27.87983 
133 ,25.7654 ,1.00166 ,2.84140 ,27.87983 
134 ,25.9906 ,1.00414 ,2.80376 ,27.51047 
135 ,26.1819 ,1.00618 ,2.78322 ,27.30900 
136 ,26.3898 ,1.00816 ,2.77296 ,27.20827 
137 ,26.5986 ,1.01016 ,2.76611 ,27.14111 
138 ,26.8055 ,1.01223 ,2.72505 ,26.73817 
139 ,26.9817 ,1.01415 ,2.71136 ,26.60386 
140 ,27.1739 ,1.01602 ,2.72847 ,26.77175 
141 ,27.3657 ,1.01797 ,2.68740 ,26.36881 
142 ,27.5584 ,1.01982 ,2.67029 ,26.20092 
143 ,27.7344 ,1.02176 ,2.66003 ,26.10018 
144 ,27.9102 ,1.02344 ,2.65660 ,26.06661 
145 ,28.0867 ,1.02517 ,2.61212 ,25.63009 
146 ,28.2783 ,1.02711 ,2.61896 ,25.69724 
147 ,28.4547 ,1.02889 ,2.60527 ,25.56293 
148 ,28.6308 ,1.03062 ,2.58816 ,25.39504 
149 ,28.8069 ,1.03242 ,2.56421 ,25.15999 
150 ,28.9991 ,1.03422 ,2.57447 ,25.26073 
151 ,29.1919 ,1.03621 ,2.53683 ,24.89136 
152 ,29.3832 ,1.03816 ,2.52314 ,24.75705 
153 ,29.5592 ,1.03994 ,2.50945 ,24.62274 
154 ,29.7668 ,1.04196 ,2.48207 ,24.35411 
155 ,29.9588 ,1.04387 ,2.47181 ,24.25338 
156 ,30.1351 ,1.04574 ,2.46154 ,24.15264 
157 ,30.3432 ,1.04771 ,2.44785 ,24.01833 
158 ,30.5192 ,1.04953 ,2.43074 ,23.85044 
159 ,30.7116 ,1.05142 ,2.41363 ,23.68255 
160 ,30.9037 ,1.05333 ,2.39994 ,23.54823 
161 ,31.5596 ,1.05750 ,2.37599 ,23.31318 
162 ,31.7678 ,1.06190 ,2.33492 ,22.91024 
163 ,31.9757 ,1.06415 ,2.31439 ,22.70877 
164 ,32.2000 ,1.06617 ,2.28701 ,22.44015 
165 ,32.4238 ,1.06855 ,2.25621 ,22.13794 
166 ,32.6484 ,1.07069 ,2.24594 ,22.03721 
167 ,32.8732 ,1.07295 ,2.23910 ,21.97005 
168 ,33.0968 ,1.07524 ,2.21857 ,21.76858 
169 ,33.2882 ,1.07721 ,2.20146 ,21.60069 
170 ,33.4803 ,1.07909 ,2.18777 ,21.46638 
171 ,33.6725 ,1.08101 ,2.17750 ,21.36564 
172 ,33.8644 ,1.08295 ,2.15012 ,21.09702 
173 ,34.0564 ,1.08486 ,2.13644 ,20.96270 
174 ,34.2485 ,1.08681 ,2.11932 ,20.79481 
175 ,34.4410 ,1.08874 ,2.09195 ,20.52619 
176 ,34.6489 ,1.09081 ,2.09879 ,20.59334 
177 ,34.8409 ,1.09273 ,2.07484 ,20.35829 
178 ,35.0492 ,1.09474 ,2.06799 ,20.29114 
179 ,35.2575 ,1.09687 ,2.03377 ,19.95535 
180 ,35.4815 ,1.09908 ,2.01324 ,19.75388 
181 ,35.6895 ,1.10121 ,2.02008 ,19.82104 
182 ,35.8816 ,1.10311 ,1.99270 ,19.55241 
183 ,36.1055 ,1.10526 ,1.97902 ,19.41810 
184 ,36.3138 ,1.10742 ,1.97559 ,19.38452 
185 ,36.4898 ,1.10927 ,1.93795 ,19.01516 
186 ,36.6818 ,1.11109 ,1.92084 ,18.84727 
187 ,36.9215 ,1.11337 ,1.93453 ,18.98158 
188 ,37.1296 ,1.11558 ,1.91742 ,18.81369 
189 ,37.3216 ,1.11748 ,1.87635 ,18.41075 
190 ,37.5141 ,1.11945 ,1.86266 ,18.27644 
191 ,37.7542 ,1.12181 ,1.85924 ,18.24286 
192 ,37.9622 ,1.12391 ,1.84213 ,18.07497 
193 ,38.1543 ,1.12587 ,1.80791 ,17.73919 
194 ,38.3464 ,1.12771 ,1.80106 ,17.67203 
195 ,38.5386 ,1.12959 ,1.77026 ,17.36983 
196 ,38.7306 ,1.13160 ,1.77026 ,17.36983 
197 ,38.9226 ,1.13351 ,1.73946 ,17.06762 
198 ,39.1146 ,1.13541 ,1.74289 ,17.10120 
199 ,39.3067 ,1.13739 ,1.73604 ,17.03404 
200 ,39.4994 ,1.13928 ,1.69155 ,16.59752 
201 ,39.6912 ,1.14119 ,1.70182 ,16.69826 
202 ,39.8990 ,1.14323 ,1.67102 ,16.39605 
203 ,40.0910 ,1.14519 ,1.68471 ,16.53037 
204 ,40.3149 ,1.14748 ,1.64022 ,16.09385 
205 ,40.5554 ,1.14969 ,1.64022 ,16.09385 
206 ,40.8111 ,1.15245 ,1.60942 ,15.79164 
207 ,41.0194 ,1.15443 ,1.57520 ,15.45586 
208 ,41.2594 ,1.15675 ,1.56151 ,15.32155 
209 ,41.4675 ,1.15895 ,1.58204 ,15.52302 
210 ,41.6756 ,1.16096 ,1.53413 ,15.05292 
211 ,41.8837 ,1.16304 ,1.52387 ,14.95219 
212 ,42.1081 ,1.16535 ,1.51702 ,14.88503 
213 ,42.3160 ,1.16744 ,1.49649 ,14.68356 
214 ,42.5239 ,1.16950 ,1.49307 ,14.64998 
215 ,42.7160 ,1.17145 ,1.45885 ,14.31420 
216 ,42.9242 ,1.17351 ,1.46569 ,14.38136 
217 ,43.1803 ,1.17593 ,1.44516 ,14.17989 
218 ,43.4049 ,1.17829 ,1.43147 ,14.04557 
219 ,43.6605 ,1.18069 ,1.40751 ,13.81053 
220 ,43.8845 ,1.18316 ,1.39383 ,13.67621 
221 ,44.0937 ,1.18512 ,1.37329 ,13.47474 
222 ,44.3329 ,1.18769 ,1.36987 ,13.44116 
223 ,44.5411 ,1.18966 ,1.32538 ,13.00465 
224 ,44.7489 ,1.19174 ,1.33223 ,13.07180 
225 ,44.9410 ,1.19365 ,1.30827 ,12.83675 
226 ,45.1170 ,1.19555 ,1.28774 ,12.63528 
227 ,45.3091 ,1.19735 ,1.27747 ,12.53455 
228 ,45.5010 ,1.19929 ,1.27405 ,12.50097 
229 ,45.6934 ,1.20122 ,1.23983 ,12.16519 
230 ,45.8852 ,1.20317 ,1.23298 ,12.09803 
231 ,46.0773 ,1.20502 ,1.22272 ,11.99730 
232 ,46.2695 ,1.20696 ,1.21587 ,11.93014 
233 ,46.4616 ,1.20885 ,1.19876 ,11.76225 
234 ,46.6377 ,1.21076 ,1.19534 ,11.72867 
235 ,46.8297 ,1.21253 ,1.17138 ,11.49362 
236 ,47.0218 ,1.21458 ,1.15085 ,11.29215 
237 ,47.2140 ,1.21636 ,1.13374 ,11.12426 
238 ,47.4060 ,1.21828 ,1.13716 ,11.15784 
239 ,47.5981 ,1.22024 ,1.08925 ,10.68774 
240 ,47.7741 ,1.22209 ,1.12005 ,10.98995 
241 ,47.9662 ,1.22390 ,1.10636 ,10.85563 
242 ,48.1583 ,1.22585 ,1.06187 ,10.41912 
243 ,48.3505 ,1.22776 ,1.07899 ,10.58701 
244 ,48.5424 ,1.22964 ,1.05845 ,10.38554 
245 ,48.7346 ,1.23158 ,1.03792 ,10.18407 
246 ,48.9267 ,1.23347 ,1.05503 ,10.35196 
247 ,49.1187 ,1.23541 ,1.00370 ,9.84829 
248 ,49.3111 ,1.23736 ,0.99343 ,9.74755 
249 ,49.5189 ,1.23943 ,0.97632 ,9.57966 
250 ,49.7110 ,1.24131 ,0.96948 ,9.51250 
251 ,49.8875 ,1.24321 ,0.97632 ,9.57966 
252 ,50.0793 ,1.24502 ,0.93183 ,9.14314 
253 ,50.2711 ,1.24694 ,0.93183 ,9.14314 
254 ,50.4793 ,1.24905 ,0.92499 ,9.07598 
255 ,50.6874 ,1.25106 ,0.92157 ,9.04241 
256 ,50.8959 ,1.25318 ,0.90103 ,8.84094 
257 ,51.0876 ,1.25519 ,0.88050 ,8.63947 
258 ,51.2965 ,1.25708 ,0.85997 ,8.43800 
259 ,51.5199 ,1.25955 ,0.84286 ,8.27011 
260 ,51.7120 ,1.26133 ,0.83943 ,8.23653 
261 ,51.9199 ,1.26344 ,0.81890 ,8.03506 
262 ,52.0961 ,1.26530 ,0.79495 ,7.80001 
263 ,52.3039 ,1.26720 ,0.79495 ,7.80001 
264 ,52.4962 ,1.26921 ,0.76757 ,7.53138 
265 ,52.7045 ,1.27121 ,0.78126 ,7.66570 
266 ,52.9285 ,1.27351 ,0.76072 ,7.46423 
267 ,53.1205 ,1.27546 ,0.75388 ,7.39707 
268 ,53.3127 ,1.27734 ,0.71624 ,7.02771 
269 ,53.5208 ,1.27938 ,0.71624 ,7.02771 
270 ,53.7128 ,1.28137 ,0.69228 ,6.79266 
271 ,53.9209 ,1.28333 ,0.69228 ,6.79266 
272 ,54.1289 ,1.28556 ,0.67175 ,6.59119 
273 ,54.3370 ,1.28760 ,0.66148 ,6.49046 
274 ,54.5290 ,1.28951 ,0.65806 ,6.45688 
275 ,54.7211 ,1.29144 ,0.63753 ,6.25541 
276 ,54.9292 ,1.29349 ,0.62384 ,6.12109 
277 ,55.1214 ,1.29540 ,0.63068 ,6.18825 
278 ,55.3292 ,1.29750 ,0.60330 ,5.91962 
279 ,55.5374 ,1.29962 ,0.60330 ,5.91962 
280 ,55.7296 ,1.30151 ,0.57251 ,5.61742 
281 ,55.9217 ,1.30345 ,0.57593 ,5.65100 
282 ,56.1458 ,1.30561 ,0.55197 ,5.41595 
283 ,56.3539 ,1.30776 ,0.52802 ,5.18090 
284 ,56.5618 ,1.30982 ,0.53486 ,5.24806 
285 ,56.8021 ,1.31211 ,0.51091 ,5.01301 
286 ,57.0102 ,1.31432 ,0.48011 ,4.71081 
287 ,57.2023 ,1.31620 ,0.48695 ,4.77796 
288 ,57.4103 ,1.31830 ,0.47668 ,4.67723 
289 ,57.6025 ,1.32021 ,0.46300 ,4.54291 
290 ,57.8106 ,1.32225 ,0.44588 ,4.37502 
291 ,58.0186 ,1.32435 ,0.43220 ,4.24071 
292 ,58.2107 ,1.32632 ,0.40824 ,4.00566 
293 ,58.4188 ,1.32842 ,0.40824 ,4.00566 
294 ,58.6270 ,1.33044 ,0.38771 ,3.80419 
295 ,58.8510 ,1.33260 ,0.38771 ,3.80419 
296 ,59.0590 ,1.33490 ,0.36033 ,3.53557 
297 ,59.2511 ,1.33675 ,0.35349 ,3.46841 
298 ,59.4592 ,1.33872 ,0.34322 ,3.36767 
299 ,59.6512 ,1.34072 ,0.31242 ,3.06547 
300 ,59.8432 ,1.34261 ,0.32269 ,3.16620 
301 ,60.0513 ,1.34465 ,0.30558 ,2.99831 
302 ,60.2436 ,1.34664 ,0.30558 ,2.99831 
303 ,60.4517 ,1.34869 ,0.28162 ,2.76326 
304 ,60.6597 ,1.35083 ,0.26451 ,2.59537 
305 ,60.8517 ,1.35277 ,0.26451 ,2.59537 
306 ,61.0439 ,1.35459 ,0.25082 ,2.46106 
307 ,61.2840 ,1.35703 ,0.22344 ,2.19243 
308 ,61.5106 ,1.35936 ,0.20633 ,2.02454 
309 ,61.7318 ,1.36149 ,0.20291 ,1.99096 
310 ,61.9731 ,1.36385 ,0.19607 ,1.92381 
311 ,62.2124 ,1.36620 ,0.17211 ,1.68876 
312 ,62.4207 ,1.36838 ,0.16185 ,1.58802 
313 ,62.6767 ,1.37092 ,0.14131 ,1.38655 
314 ,62.9008 ,1.37321 ,0.14473 ,1.42013 
315 ,63.1086 ,1.37531 ,0.11736 ,1.15151 
316 ,63.3009 ,1.37726 ,0.10025 ,0.98361 
317 ,63.4929 ,1.37908 ,0.09340 ,0.91646 
318 ,63.7012 ,1.38109 ,0.07971 ,0.78214 
319 ,63.9090 ,1.38329 ,0.07629 ,0.74857 
320 ,64.1014 ,1.38519 ,0.07629 ,0.74857 
321 ,64.2932 ,1.38721 ,0.06260 ,0.61425 
322 ,64.4854 ,1.38907 ,0.02838 ,0.27847 
323 ,64.6774 ,1.39092 ,0.02496 ,0.24489 
324 ,64.8694 ,1.39288 ,0.01811 ,0.17773 
325 ,65.0778 ,1.39490 ,0.00785 ,0.07700 
326 ,65.2853 ,1.39707 ,0.00443 ,0.04342 
327 ,65.4775 ,1.39898 ,-0.00584 ,-0.05731 
328 ,65.6866 ,1.40103 ,-0.02295 ,-0.22520 
329 ,65.9100 ,1.40319 ,-0.03664 ,-0.35952 
330 ,66.1181 ,1.40532 ,-0.04691 ,-0.46025 
331 ,66.3099 ,1.40736 ,-0.04006 ,-0.39310 
332 ,66.5183 ,1.40931 ,-0.05033 ,-0.49383 
333 ,66.7104 ,1.41131 ,-0.08455 ,-0.82961 
334 ,66.9181 ,1.41336 ,-0.07771 ,-0.76246 
335 ,67.1103 ,1.41527 ,-0.09140 ,-0.89677 
336 ,67.3186 ,1.41740 ,-0.10166 ,-0.99751 
337 ,67.5103 ,1.41927 ,-0.13931 ,-1.36687 
338 ,67.7027 ,1.42116 ,-0.12904 ,-1.26613 
339 ,67.9266 ,1.42332 ,-0.17695 ,-1.73623 
340 ,68.1347 ,1.42548 ,-0.16326 ,-1.60191 
341 ,68.3271 ,1.42744 ,-0.17695 ,-1.73623 
342 ,68.5187 ,1.42937 ,-0.15984 ,-1.56834 
343 ,68.7109 ,1.43131 ,-0.20433 ,-2.00485 
344 ,68.9191 ,1.43333 ,-0.20775 ,-2.03843 
345 ,69.1274 ,1.43542 ,-0.20433 ,-2.00485 
346 ,69.3355 ,1.43751 ,-0.21802 ,-2.13917 
347 ,69.5435 ,1.43963 ,-0.24197 ,-2.37422 
348 ,69.7354 ,1.44151 ,-0.24197 ,-2.37422 
349 ,69.9434 ,1.44352 ,-0.26935 ,-2.64284 
350 ,70.1353 ,1.44552 ,-0.26935 ,-2.64284 
351 ,70.3277 ,1.44751 ,-0.27619 ,-2.71000 
352 ,70.5358 ,1.44948 ,-0.28988 ,-2.84431 
353 ,70.7275 ,1.45139 ,-0.30015 ,-2.94505 
354 ,70.9201 ,1.45339 ,-0.30015 ,-2.94505 
355 ,71.1282 ,1.45547 ,-0.32752 ,-3.21367 
356 ,71.3358 ,1.45748 ,-0.32068 ,-3.14652 
357 ,71.5284 ,1.45942 ,-0.35832 ,-3.51588 
358 ,71.7039 ,1.46132 ,-0.34464 ,-3.38156 
359 ,71.8960 ,1.46308 ,-0.35490 ,-3.48230 
360 ,72.0880 ,1.46505 ,-0.38570 ,-3.78450 
361 ,72.2801 ,1.46697 ,-0.37201 ,-3.65019 
362 ,72.5042 ,1.46911 ,-0.39255 ,-3.85166 
363 ,72.7441 ,1.47162 ,-0.41992 ,-4.12029 
364 ,72.9524 ,1.47373 ,-0.40281 ,-3.95240 
365 ,73.1768 ,1.47580 ,-0.42677 ,-4.18744 
366 ,73.4967 ,1.47898 ,-0.45757 ,-4.48965 
367 ,73.7049 ,1.48121 ,-0.46783 ,-4.59038 
368 ,73.9130 ,1.48330 ,-0.47810 ,-4.69112 
369 ,74.1210 ,1.48525 ,-0.48494 ,-4.75828 
370 ,74.3450 ,1.48751 ,-0.48837 ,-4.79185 
371 ,74.5208 ,1.48946 ,-0.49521 ,-4.85901 
372 ,74.7149 ,1.49127 ,-0.50890 ,-4.99332 
373 ,74.9373 ,1.49343 ,-0.53285 ,-5.22837 
374 ,75.1452 ,1.49560 ,-0.52943 ,-5.19479 
375 ,75.3374 ,1.49754 ,-0.53628 ,-5.26195 
376 ,75.5455 ,1.49956 ,-0.55339 ,-5.42984 
377 ,75.7374 ,1.50152 ,-0.56023 ,-5.49700 
378 ,75.9455 ,1.50356 ,-0.56708 ,-5.56415 
379 ,76.1695 ,1.50568 ,-0.60472 ,-5.93352 
380 ,76.3619 ,1.50778 ,-0.58761 ,-5.76562 
381 ,76.6501 ,1.51057 ,-0.62183 ,-6.10141 
382 ,76.8583 ,1.51268 ,-0.61499 ,-6.03425 
383 ,77.0344 ,1.51458 ,-0.63210 ,-6.20214 
384 ,77.2262 ,1.51637 ,-0.63894 ,-6.26930 
385 ,77.4185 ,1.51832 ,-0.63552 ,-6.23572 
386 ,77.6264 ,1.52038 ,-0.66290 ,-6.50435 
387 ,77.8346 ,1.52248 ,-0.64921 ,-6.37003 
388 ,78.0427 ,1.52455 ,-0.68001 ,-6.67224 
389 ,78.2348 ,1.52645 ,-0.68001 ,-6.67224 
390 ,78.4429 ,1.52855 ,-0.70396 ,-6.90729 
391 ,78.6351 ,1.53049 ,-0.69712 ,-6.84013 
392 ,78.8430 ,1.53253 ,-0.73134 ,-7.17591 
393 ,79.0512 ,1.53462 ,-0.74845 ,-7.34380 
394 ,79.2431 ,1.53656 ,-0.74845 ,-7.34380 
395 ,79.4350 ,1.53851 ,-0.74845 ,-7.34380 
396 ,79.6431 ,1.54048 ,-0.75530 ,-7.41096 
397 ,79.8355 ,1.54244 ,-0.75187 ,-7.37738 
398 ,80.0434 ,1.54463 ,-0.76898 ,-7.54527 
399 ,80.2356 ,1.54645 ,-0.77925 ,-7.64601 
400 ,80.4594 ,1.54870 ,-0.78267 ,-7.67959 
401 ,80.6522 ,1.55064 ,-0.79978 ,-7.84748 
402 ,80.8598 ,1.55268 ,-0.80321 ,-7.88106 
403 ,81.0520 ,1.55464 ,-0.81689 ,-8.01537 
404 ,81.2440 ,1.55654 ,-0.84427 ,-8.28400 
405 ,81.4518 ,1.55855 ,-0.83401 ,-8.18326 
406 ,81.6439 ,1.56052 ,-0.86823 ,-8.51904 
407 ,81.8364 ,1.56250 ,-0.85796 ,-8.41831 
408 ,82.0281 ,1.56448 ,-0.86823 ,-8.51904 
409 ,82.2525 ,1.56648 ,-0.89560 ,-8.78767 
410 ,82.4447 ,1.56852 ,-0.89560 ,-8.78767 
411 ,82.6522 ,1.57062 ,-0.89903 ,-8.82125 
412 ,82.8447 ,1.57254 ,-0.92983 ,-9.12345 
413 ,83.0529 ,1.57466 ,-0.92983 ,-9.12345 
414 ,83.2610 ,1.57664 ,-0.94009 ,-9.22419 
415 ,83.4850 ,1.57891 ,-0.94694 ,-9.29135 
416 ,83.6927 ,1.58101 ,-0.94351 ,-9.25777 
417 ,83.8852 ,1.58296 ,-0.96063 ,-9.42566 
418 ,84.0939 ,1.58505 ,-0.95036 ,-9.32492 
419 ,84.3020 ,1.58712 ,-0.98800 ,-9.69429 
420 ,84.4935 ,1.58903 ,-0.97431 ,-9.55997 
421 ,84.6852 ,1.59091 ,-1.01196 ,-9.92933 
422 ,84.8935 ,1.59301 ,-0.99827 ,-9.79502 
423 ,85.0855 ,1.59496 ,-1.02565 ,-10.06365 
424 ,85.2947 ,1.59706 ,-1.01196 ,-9.92933 
425 ,85.5016 ,1.59908 ,-1.03249 ,-10.13080 
426 ,85.7098 ,1.60114 ,-1.04276 ,-10.23154 
427 ,85.9339 ,1.60343 ,-1.03934 ,-10.19796 
428 ,86.1259 ,1.60543 ,-1.08725 ,-10.66806 
429 ,86.3341 ,1.60738 ,-1.06671 ,-10.46659 
430 ,86.5259 ,1.60933 ,-1.08040 ,-10.60090 
431 ,86.7500 ,1.61149 ,-1.10093 ,-10.80237 
432 ,87.0237 ,1.61427 ,-1.10093 ,-10.80237 
433 ,87.2624 ,1.61676 ,-1.11462 ,-10.93668 
434 ,87.4706 ,1.61878 ,-1.13858 ,-11.17173 
435 ,87.6783 ,1.62089 ,-1.13516 ,-11.13815 
436 ,87.8867 ,1.62297 ,-1.15227 ,-11.30604 
437 ,88.0950 ,1.62507 ,-1.14200 ,-11.20531 
438 ,88.7709 ,1.62961 ,-1.16253 ,-11.40678 
439 ,89.0230 ,1.63437 ,-1.19333 ,-11.70898 
440 ,89.2472 ,1.63653 ,-1.21387 ,-11.91045 
441 ,89.4555 ,1.63863 ,-1.21044 ,-11.87688 
442 ,89.9195 ,1.64204 ,-1.23440 ,-12.11192 
443 ,90.8634 ,1.64911 ,-1.25151 ,-12.27981 
444 ,91.1040 ,1.65494 ,-1.28573 ,-12.61560 
445 ,91.3282 ,1.65730 ,-1.30284 ,-12.78349 
446 ,91.5198 ,1.65928 ,-1.32338 ,-12.98496 
447 ,91.7124 ,1.66122 ,-1.30284 ,-12.78349 
448 ,91.9042 ,1.66314 ,-1.33364 ,-13.08569 
449 ,92.1122 ,1.66518 ,-1.32680 ,-13.01854 
450 ,92.3043 ,1.66715 ,-1.34391 ,-13.18643 
451 ,92.5128 ,1.66915 ,-1.33706 ,-13.11927 
452 ,92.7363 ,1.67134 ,-1.35760 ,-13.32074 
453 ,92.9444 ,1.67348 ,-1.36786 ,-13.42148 
454 ,93.1369 ,1.67545 ,-1.36444 ,-13.38790 
455 ,93.3448 ,1.67752 ,-1.39182 ,-13.65653 
456 ,93.5208 ,1.67943 ,-1.37471 ,-13.48863 
457 ,93.7127 ,1.68116 ,-1.38840 ,-13.62295 
458 ,93.9048 ,1.68320 ,-1.40209 ,-13.75726 
459 ,94.1129 ,1.68530 ,-1.42604 ,-13.99231 
460 ,94.3210 ,1.68719 ,-1.42262 ,-13.95873 
461 ,94.5131 ,1.68919 ,-1.42262 ,-13.95873 
