Data stamp = , 23-04-2022 13:26:36 842

Calibration Values: 
Slope = , 26.54 , g/V 
Offset Voltage at no contact = , -0.501760 , V 

No , Time , Stage Position ,   Mass , Force 
   ,  (s) ,      (mm)      ,   (g)  , (mN)  

1 ,0.0000 ,0.69948 ,5.35669 ,52.55988 
2 ,0.2339 ,0.69960 ,5.33958 ,52.39199 
3 ,0.5541 ,0.70049 ,5.32589 ,52.25768 
4 ,0.7625 ,0.70202 ,5.32932 ,52.29126 
5 ,0.9543 ,0.70384 ,5.35669 ,52.55988 
6 ,1.1466 ,0.70562 ,5.34301 ,52.42557 
7 ,1.3388 ,0.70748 ,5.35327 ,52.52631 
8 ,1.5303 ,0.70954 ,5.32932 ,52.29126 
9 ,1.7069 ,0.71136 ,5.30878 ,52.08979 
10 ,1.9150 ,0.71336 ,5.32247 ,52.22410 
11 ,2.1068 ,0.71527 ,5.27798 ,51.78758 
12 ,2.2994 ,0.71718 ,5.27456 ,51.75401 
13 ,2.4911 ,0.71910 ,5.24718 ,51.48538 
14 ,2.6511 ,0.72086 ,5.22665 ,51.28391 
15 ,2.8113 ,0.72247 ,5.21296 ,51.14960 
16 ,2.9873 ,0.72410 ,5.20270 ,51.04886 
17 ,3.1793 ,0.72607 ,5.17874 ,50.81381 
18 ,3.3714 ,0.72782 ,5.17532 ,50.78023 
19 ,3.5633 ,0.72986 ,5.14452 ,50.47803 
20 ,3.7395 ,0.73162 ,5.11372 ,50.17583 
21 ,3.9478 ,0.73359 ,5.11030 ,50.14225 
22 ,4.1239 ,0.73548 ,5.07950 ,49.84004 
23 ,4.3319 ,0.73752 ,5.08634 ,49.90720 
24 ,4.5398 ,0.73961 ,5.02817 ,49.33637 
25 ,4.7317 ,0.74152 ,5.03159 ,49.36995 
26 ,4.9082 ,0.74332 ,5.02474 ,49.30279 
27 ,5.0839 ,0.74509 ,4.99052 ,48.96701 
28 ,5.2602 ,0.74682 ,4.96999 ,48.76554 
29 ,5.4363 ,0.74860 ,4.95972 ,48.66480 
30 ,5.6443 ,0.75057 ,4.93235 ,48.39618 
31 ,5.8200 ,0.75239 ,4.91181 ,48.19471 
32 ,5.9806 ,0.75415 ,4.90497 ,48.12755 
33 ,6.1726 ,0.75595 ,4.88786 ,47.95966 
34 ,6.3646 ,0.75787 ,4.86390 ,47.72461 
35 ,6.5567 ,0.75971 ,4.85021 ,47.59030 
36 ,6.7489 ,0.76173 ,4.83995 ,47.48956 
37 ,6.9246 ,0.76342 ,4.81941 ,47.28809 
38 ,7.1331 ,0.76552 ,4.79888 ,47.08662 
39 ,7.3091 ,0.76733 ,4.77835 ,46.88515 
40 ,7.5012 ,0.76925 ,4.74070 ,46.51579 
41 ,7.6772 ,0.77102 ,4.72017 ,46.31432 
42 ,7.8693 ,0.77296 ,4.73044 ,46.41506 
43 ,8.0611 ,0.77481 ,4.69964 ,46.11285 
44 ,8.2533 ,0.77669 ,4.68937 ,46.01212 
45 ,8.4296 ,0.77852 ,4.67911 ,45.91138 
46 ,8.6216 ,0.78045 ,4.64488 ,45.57560 
47 ,8.8137 ,0.78227 ,4.61066 ,45.23981 
48 ,8.9894 ,0.78412 ,4.62435 ,45.37413 
49 ,9.1819 ,0.78596 ,4.60040 ,45.13908 
50 ,9.3899 ,0.78804 ,4.58671 ,45.00477 
51 ,9.5659 ,0.78985 ,4.57644 ,44.90403 
52 ,9.7580 ,0.79169 ,4.53537 ,44.50109 
53 ,9.9500 ,0.79367 ,4.53537 ,44.50109 
54 ,10.1741 ,0.79577 ,4.50115 ,44.16531 
55 ,10.3503 ,0.79773 ,4.48062 ,43.96384 
56 ,10.5264 ,0.79947 ,4.48404 ,43.99742 
57 ,10.7025 ,0.80122 ,4.46009 ,43.76237 
58 ,10.8946 ,0.80311 ,4.43613 ,43.52732 
59 ,11.0866 ,0.80504 ,4.41902 ,43.35943 
60 ,11.2626 ,0.80679 ,4.40875 ,43.25870 
61 ,11.4388 ,0.80861 ,4.37453 ,42.92291 
62 ,11.6305 ,0.81049 ,4.35058 ,42.68786 
63 ,11.8063 ,0.81221 ,4.36084 ,42.78860 
64 ,11.9989 ,0.81415 ,4.32320 ,42.41924 
65 ,12.2067 ,0.81619 ,4.30609 ,42.25135 
66 ,12.3991 ,0.81813 ,4.27871 ,41.98272 
67 ,12.5913 ,0.82011 ,4.26502 ,41.84841 
68 ,12.7830 ,0.82202 ,4.27187 ,41.91556 
69 ,12.9750 ,0.82388 ,4.22738 ,41.47905 
70 ,13.1670 ,0.82578 ,4.22738 ,41.47905 
71 ,13.3430 ,0.82766 ,4.21027 ,41.31115 
72 ,13.5195 ,0.82942 ,4.18289 ,41.04253 
73 ,13.7438 ,0.83158 ,4.16920 ,40.90821 
74 ,13.9679 ,0.83374 ,4.14525 ,40.67317 
75 ,14.1438 ,0.83565 ,4.13840 ,40.60601 
76 ,14.3197 ,0.83740 ,4.10418 ,40.27023 
77 ,14.5281 ,0.83935 ,4.08707 ,40.10233 
78 ,14.7200 ,0.84143 ,4.08023 ,40.03518 
79 ,14.9283 ,0.84331 ,4.05627 ,39.80013 
80 ,15.1524 ,0.84562 ,4.01520 ,39.39719 
81 ,15.3441 ,0.84761 ,4.02889 ,39.53150 
82 ,15.5524 ,0.84967 ,3.98441 ,39.09499 
83 ,15.7287 ,0.85152 ,3.98098 ,39.06141 
84 ,15.9207 ,0.85340 ,3.96387 ,38.89352 
85 ,16.1128 ,0.85526 ,3.94676 ,38.72562 
86 ,16.3209 ,0.85731 ,3.91938 ,38.45700 
87 ,16.5125 ,0.85921 ,3.90570 ,38.32268 
88 ,16.6891 ,0.86109 ,3.88174 ,38.08764 
89 ,16.8972 ,0.86311 ,3.85436 ,37.81901 
90 ,17.0893 ,0.86506 ,3.85779 ,37.85259 
91 ,17.2969 ,0.86707 ,3.81330 ,37.41607 
92 ,17.4733 ,0.86892 ,3.80987 ,37.38249 
93 ,17.6494 ,0.87069 ,3.80303 ,37.31534 
94 ,17.8415 ,0.87258 ,3.77565 ,37.04671 
95 ,18.0171 ,0.87437 ,3.76196 ,36.91240 
96 ,18.2096 ,0.87618 ,3.73459 ,36.64377 
97 ,18.4177 ,0.87829 ,3.70721 ,36.37514 
98 ,18.6098 ,0.88031 ,3.70037 ,36.30799 
99 ,18.8022 ,0.88207 ,3.69010 ,36.20725 
100 ,19.0099 ,0.88417 ,3.66957 ,36.00578 
101 ,19.2021 ,0.88612 ,3.65246 ,35.83789 
102 ,19.3785 ,0.88791 ,3.64219 ,35.73716 
103 ,19.5702 ,0.88977 ,3.61823 ,35.50211 
104 ,19.7619 ,0.89173 ,3.61481 ,35.46853 
105 ,19.9383 ,0.89360 ,3.57717 ,35.09917 
106 ,20.1464 ,0.89561 ,3.57375 ,35.06559 
107 ,20.3224 ,0.89740 ,3.56690 ,34.99843 
108 ,20.4984 ,0.89918 ,3.54979 ,34.83054 
109 ,20.6907 ,0.90102 ,3.51557 ,34.49476 
110 ,20.8663 ,0.90287 ,3.50530 ,34.39402 
111 ,21.0588 ,0.90465 ,3.48477 ,34.19255 
112 ,21.2508 ,0.90661 ,3.46766 ,34.02466 
113 ,21.4269 ,0.90841 ,3.45397 ,33.89035 
114 ,21.6031 ,0.91023 ,3.44370 ,33.78961 
115 ,21.8110 ,0.91220 ,3.41290 ,33.48741 
116 ,21.9707 ,0.91396 ,3.38895 ,33.25236 
117 ,22.1472 ,0.91558 ,3.38210 ,33.18520 
118 ,22.3233 ,0.91737 ,3.37526 ,33.11805 
119 ,22.4993 ,0.91915 ,3.36842 ,33.05089 
120 ,22.6755 ,0.92093 ,3.32393 ,32.61437 
121 ,22.8675 ,0.92278 ,3.33419 ,32.71511 
122 ,23.0592 ,0.92478 ,3.31708 ,32.54722 
123 ,23.2193 ,0.92648 ,3.28286 ,32.21143 
124 ,23.3793 ,0.92807 ,3.26233 ,32.00996 
125 ,23.5393 ,0.92967 ,3.27259 ,32.11070 
126 ,23.7158 ,0.93135 ,3.24864 ,31.87565 
127 ,23.9076 ,0.93320 ,3.22126 ,31.60702 
128 ,24.0834 ,0.93499 ,3.21100 ,31.50629 
129 ,24.2601 ,0.93677 ,3.19046 ,31.30482 
130 ,24.4681 ,0.93875 ,3.17677 ,31.17051 
131 ,24.6441 ,0.94058 ,3.16309 ,31.03619 
132 ,24.8202 ,0.94234 ,3.15282 ,30.93546 
133 ,24.9965 ,0.94410 ,3.12544 ,30.66683 
134 ,25.1720 ,0.94591 ,3.10149 ,30.43178 
135 ,25.3483 ,0.94763 ,3.08780 ,30.29747 
136 ,25.5406 ,0.94957 ,3.08780 ,30.29747 
137 ,25.7324 ,0.95146 ,3.06384 ,30.06242 
138 ,25.9247 ,0.95333 ,3.04331 ,29.86095 
139 ,26.1168 ,0.95524 ,3.02962 ,29.72664 
140 ,26.2927 ,0.95713 ,3.00909 ,29.52517 
141 ,26.4690 ,0.95884 ,2.98513 ,29.29012 
142 ,26.6768 ,0.96082 ,2.98513 ,29.29012 
143 ,26.8531 ,0.96264 ,2.95776 ,29.02150 
144 ,27.0610 ,0.96468 ,2.95776 ,29.02150 
145 ,27.2372 ,0.96646 ,2.91669 ,28.61856 
146 ,27.4132 ,0.96828 ,2.92011 ,28.65213 
147 ,27.6051 ,0.97021 ,2.88931 ,28.34993 
148 ,27.7814 ,0.97199 ,2.87562 ,28.21562 
149 ,27.9574 ,0.97366 ,2.86536 ,28.11488 
150 ,28.1496 ,0.97556 ,2.83456 ,27.81268 
151 ,28.3573 ,0.97763 ,2.82429 ,27.71194 
152 ,28.5498 ,0.97955 ,2.80376 ,27.51047 
153 ,28.7578 ,0.98166 ,2.79349 ,27.40974 
154 ,28.9499 ,0.98354 ,2.77638 ,27.24185 
155 ,29.1420 ,0.98564 ,2.77638 ,27.24185 
156 ,29.3180 ,0.98735 ,2.75243 ,27.00680 
157 ,29.5098 ,0.98923 ,2.72505 ,26.73817 
158 ,29.6861 ,0.99098 ,2.70452 ,26.53670 
159 ,29.8623 ,0.99274 ,2.70452 ,26.53670 
160 ,30.0544 ,0.99459 ,2.68740 ,26.36881 
161 ,30.2305 ,0.99644 ,2.66003 ,26.10018 
162 ,30.4226 ,0.99831 ,2.65660 ,26.06661 
163 ,30.6145 ,1.00023 ,2.63949 ,25.89871 
164 ,30.7908 ,1.00206 ,2.61554 ,25.66367 
165 ,30.9667 ,1.00383 ,2.59158 ,25.42862 
166 ,31.1429 ,1.00555 ,2.58132 ,25.32788 
167 ,31.3509 ,1.00754 ,2.58474 ,25.36146 
168 ,31.5430 ,1.00949 ,2.54710 ,24.99210 
169 ,31.7350 ,1.01143 ,2.54367 ,24.95852 
170 ,31.9432 ,1.01353 ,2.51287 ,24.65632 
171 ,32.1512 ,1.01552 ,2.50603 ,24.58916 
172 ,32.3273 ,1.01745 ,2.48892 ,24.42127 
173 ,32.5195 ,1.01923 ,2.48207 ,24.35411 
174 ,32.7115 ,1.02115 ,2.45470 ,24.08549 
175 ,32.8874 ,1.02303 ,2.42732 ,23.81686 
176 ,33.0637 ,1.02478 ,2.41705 ,23.71612 
177 ,33.2552 ,1.02662 ,2.42048 ,23.74970 
178 ,33.4318 ,1.02844 ,2.40679 ,23.61539 
179 ,33.6237 ,1.03036 ,2.37599 ,23.31318 
180 ,33.7999 ,1.03224 ,2.37941 ,23.34676 
181 ,33.9760 ,1.03386 ,2.36230 ,23.17887 
182 ,34.1679 ,1.03580 ,2.34177 ,22.97740 
183 ,34.3440 ,1.03756 ,2.32123 ,22.77593 
184 ,34.5201 ,1.03932 ,2.30412 ,22.60804 
185 ,34.7122 ,1.04129 ,2.27674 ,22.33941 
186 ,34.8723 ,1.04294 ,2.27674 ,22.33941 
187 ,35.0484 ,1.04462 ,2.26990 ,22.27226 
188 ,35.2245 ,1.04632 ,2.25279 ,22.10437 
189 ,35.4003 ,1.04810 ,2.23910 ,21.97005 
190 ,35.5767 ,1.04983 ,2.23910 ,21.97005 
191 ,35.7845 ,1.05187 ,2.20830 ,21.66785 
192 ,35.9768 ,1.05394 ,2.20830 ,21.66785 
193 ,36.1689 ,1.05581 ,2.17750 ,21.36564 
194 ,36.3450 ,1.05753 ,2.16723 ,21.26491 
195 ,36.5210 ,1.05944 ,2.15697 ,21.16417 
196 ,36.7128 ,1.06114 ,2.14328 ,21.02986 
197 ,36.8892 ,1.06301 ,2.12959 ,20.89555 
198 ,37.0812 ,1.06488 ,2.10906 ,20.69408 
199 ,37.2893 ,1.06697 ,2.07484 ,20.35829 
200 ,37.4653 ,1.06875 ,2.07141 ,20.32472 
201 ,37.6414 ,1.07062 ,2.08168 ,20.42545 
202 ,37.8176 ,1.07224 ,2.06115 ,20.22398 
203 ,38.0092 ,1.07420 ,2.04404 ,20.05609 
204 ,38.1857 ,1.07592 ,2.01666 ,19.78746 
205 ,38.3776 ,1.07786 ,2.00297 ,19.65315 
206 ,38.5539 ,1.07963 ,1.99955 ,19.61957 
207 ,38.7301 ,1.08143 ,1.98586 ,19.48526 
208 ,38.9058 ,1.08324 ,1.94822 ,19.11590 
209 ,39.0818 ,1.08500 ,1.95506 ,19.18305 
210 ,39.2582 ,1.08670 ,1.93453 ,18.98158 
211 ,39.4341 ,1.08840 ,1.93453 ,18.98158 
212 ,39.6263 ,1.09030 ,1.90715 ,18.71296 
213 ,39.8023 ,1.09215 ,1.89688 ,18.61222 
214 ,39.9786 ,1.09387 ,1.89346 ,18.57864 
215 ,40.1702 ,1.09588 ,1.86608 ,18.31002 
216 ,40.3467 ,1.09763 ,1.86266 ,18.27644 
217 ,40.5387 ,1.09951 ,1.84555 ,18.10855 
218 ,40.7309 ,1.10137 ,1.82844 ,17.94066 
219 ,40.9228 ,1.10333 ,1.82160 ,17.87350 
220 ,41.0992 ,1.10508 ,1.80791 ,17.73919 
221 ,41.2911 ,1.10694 ,1.78395 ,17.50414 
222 ,41.4832 ,1.10892 ,1.76000 ,17.26909 
223 ,41.6751 ,1.11077 ,1.76684 ,17.33625 
224 ,41.8672 ,1.11274 ,1.75657 ,17.23551 
225 ,42.0433 ,1.11451 ,1.72920 ,16.96689 
226 ,42.2351 ,1.11640 ,1.72578 ,16.93331 
227 ,42.4114 ,1.11818 ,1.71551 ,16.83257 
228 ,42.6036 ,1.12006 ,1.69498 ,16.63110 
229 ,42.7796 ,1.12188 ,1.67102 ,16.39605 
230 ,42.9715 ,1.12380 ,1.68471 ,16.53037 
231 ,43.1477 ,1.12560 ,1.66418 ,16.32890 
232 ,43.3237 ,1.12730 ,1.63338 ,16.02669 
233 ,43.4999 ,1.12908 ,1.62653 ,15.95954 
234 ,43.6919 ,1.13105 ,1.60942 ,15.79164 
235 ,43.8840 ,1.13284 ,1.59573 ,15.65733 
236 ,44.0759 ,1.13478 ,1.60258 ,15.72449 
237 ,44.2683 ,1.13669 ,1.56493 ,15.35513 
238 ,44.4439 ,1.13857 ,1.56836 ,15.38871 
239 ,44.6204 ,1.14029 ,1.52729 ,14.98577 
240 ,44.7966 ,1.14207 ,1.54098 ,15.12008 
241 ,45.0044 ,1.14409 ,1.50676 ,14.78430 
242 ,45.1966 ,1.14606 ,1.50676 ,14.78430 
243 ,45.3724 ,1.14778 ,1.50676 ,14.78430 
244 ,45.5804 ,1.14979 ,1.47596 ,14.48209 
245 ,45.7569 ,1.15163 ,1.46911 ,14.41493 
246 ,45.9489 ,1.15347 ,1.45542 ,14.28062 
247 ,46.1411 ,1.15543 ,1.43831 ,14.11273 
248 ,46.3170 ,1.15724 ,1.42120 ,13.94484 
249 ,46.4932 ,1.15902 ,1.43147 ,14.04557 
250 ,46.7012 ,1.16091 ,1.40409 ,13.77695 
251 ,46.8774 ,1.16287 ,1.37671 ,13.50832 
252 ,47.0534 ,1.16462 ,1.38356 ,13.57548 
253 ,47.2295 ,1.16639 ,1.37329 ,13.47474 
254 ,47.4215 ,1.16826 ,1.34249 ,13.17254 
255 ,47.5975 ,1.17004 ,1.34934 ,13.23969 
256 ,47.7735 ,1.17176 ,1.33907 ,13.13896 
257 ,47.9657 ,1.17373 ,1.29800 ,12.73602 
258 ,48.1575 ,1.17569 ,1.28432 ,12.60171 
259 ,48.3495 ,1.17756 ,1.29116 ,12.66886 
260 ,48.5258 ,1.17934 ,1.26720 ,12.43381 
261 ,48.7176 ,1.18115 ,1.27405 ,12.50097 
262 ,48.9102 ,1.18307 ,1.24667 ,12.23235 
263 ,49.1025 ,1.18504 ,1.22956 ,12.06445 
264 ,49.2939 ,1.18699 ,1.23298 ,12.09803 
265 ,49.4704 ,1.18875 ,1.21587 ,11.93014 
266 ,49.6942 ,1.19088 ,1.18165 ,11.59436 
267 ,49.8864 ,1.19291 ,1.18507 ,11.62794 
268 ,50.0786 ,1.19488 ,1.16112 ,11.39289 
269 ,50.2707 ,1.19674 ,1.15770 ,11.35931 
270 ,50.4788 ,1.19868 ,1.14743 ,11.25857 
271 ,50.6709 ,1.20079 ,1.13374 ,11.12426 
272 ,50.8786 ,1.20269 ,1.09952 ,10.78848 
273 ,51.0709 ,1.20470 ,1.11321 ,10.92279 
274 ,51.2791 ,1.20680 ,1.08925 ,10.68774 
275 ,51.4711 ,1.20872 ,1.07899 ,10.58701 
276 ,51.6472 ,1.21054 ,1.06530 ,10.45270 
277 ,51.8233 ,1.21231 ,1.04134 ,10.21765 
278 ,51.9988 ,1.21419 ,1.04476 ,10.25123 
279 ,52.1755 ,1.21582 ,1.02423 ,10.04976 
280 ,52.3835 ,1.21780 ,1.01054 ,9.91544 
281 ,52.5595 ,1.21965 ,0.99685 ,9.78113 
282 ,52.7516 ,1.22155 ,0.99343 ,9.74755 
283 ,52.9437 ,1.22346 ,0.96948 ,9.51250 
284 ,53.1198 ,1.22522 ,0.95579 ,9.37819 
285 ,53.2957 ,1.22699 ,0.95579 ,9.37819 
286 ,53.4719 ,1.22873 ,0.94552 ,9.27745 
287 ,53.6480 ,1.23057 ,0.93183 ,9.14314 
288 ,53.8555 ,1.23252 ,0.90446 ,8.87451 
289 ,54.0481 ,1.23448 ,0.90103 ,8.84094 
290 ,54.2562 ,1.23658 ,0.89761 ,8.80736 
291 ,54.4482 ,1.23849 ,0.88392 ,8.67305 
292 ,54.6244 ,1.24026 ,0.86681 ,8.50515 
293 ,54.8482 ,1.24242 ,0.84970 ,8.33726 
294 ,55.0245 ,1.24430 ,0.84970 ,8.33726 
295 ,55.2002 ,1.24609 ,0.82232 ,8.06864 
296 ,55.3768 ,1.24780 ,0.80179 ,7.86717 
297 ,55.5687 ,1.24962 ,0.81890 ,8.03506 
298 ,55.7447 ,1.25150 ,0.79152 ,7.76643 
299 ,55.9369 ,1.25340 ,0.76757 ,7.53138 
300 ,56.1127 ,1.25525 ,0.77441 ,7.59854 
301 ,56.2885 ,1.25689 ,0.76757 ,7.53138 
302 ,56.4651 ,1.25870 ,0.75388 ,7.39707 
303 ,56.6572 ,1.26052 ,0.74361 ,7.29633 
304 ,56.8332 ,1.26242 ,0.73335 ,7.19560 
305 ,57.0414 ,1.26442 ,0.69913 ,6.85982 
306 ,57.2336 ,1.26637 ,0.70255 ,6.89340 
307 ,57.4254 ,1.26822 ,0.69570 ,6.82624 
308 ,57.6176 ,1.27011 ,0.67517 ,6.62477 
309 ,57.8098 ,1.27201 ,0.65121 ,6.38972 
310 ,58.0019 ,1.27399 ,0.64095 ,6.28899 
311 ,58.1779 ,1.27584 ,0.63068 ,6.18825 
312 ,58.3695 ,1.27762 ,0.63410 ,6.22183 
313 ,58.5460 ,1.27947 ,0.62384 ,6.12109 
314 ,58.7539 ,1.28148 ,0.60330 ,5.91962 
315 ,58.9301 ,1.28336 ,0.58619 ,5.75173 
316 ,59.1061 ,1.28505 ,0.59304 ,5.81889 
317 ,59.3143 ,1.28709 ,0.57593 ,5.65100 
318 ,59.5064 ,1.28905 ,0.55539 ,5.44953 
319 ,59.6825 ,1.29084 ,0.54513 ,5.34879 
320 ,59.8740 ,1.29274 ,0.54171 ,5.31522 
321 ,60.0505 ,1.29451 ,0.53828 ,5.28164 
322 ,60.2744 ,1.29666 ,0.51091 ,5.01301 
323 ,60.4503 ,1.29854 ,0.51433 ,5.04659 
324 ,60.6107 ,1.30024 ,0.50406 ,4.94585 
325 ,60.7869 ,1.30185 ,0.49380 ,4.84512 
326 ,60.9790 ,1.30374 ,0.45957 ,4.50934 
327 ,61.1710 ,1.30565 ,0.46984 ,4.61007 
328 ,61.3630 ,1.30754 ,0.46300 ,4.54291 
329 ,61.5230 ,1.30937 ,0.42535 ,4.17355 
330 ,61.6993 ,1.31101 ,0.42535 ,4.17355 
331 ,61.8912 ,1.31292 ,0.41509 ,4.07282 
332 ,62.0993 ,1.31483 ,0.39455 ,3.87135 
333 ,62.2753 ,1.31671 ,0.38429 ,3.77061 
334 ,62.4514 ,1.31853 ,0.39113 ,3.83777 
335 ,62.6432 ,1.32043 ,0.38086 ,3.73703 
336 ,62.8197 ,1.32224 ,0.35691 ,3.50199 
337 ,63.0277 ,1.32419 ,0.35691 ,3.50199 
338 ,63.2198 ,1.32613 ,0.33295 ,3.26694 
339 ,63.4116 ,1.32804 ,0.33295 ,3.26694 
340 ,63.6041 ,1.33002 ,0.32269 ,3.16620 
341 ,63.7797 ,1.33186 ,0.30215 ,2.96473 
342 ,63.9559 ,1.33355 ,0.30215 ,2.96473 
343 ,64.1641 ,1.33557 ,0.28847 ,2.83042 
344 ,64.3403 ,1.33744 ,0.27135 ,2.66253 
345 ,64.5484 ,1.33941 ,0.28162 ,2.76326 
346 ,64.7404 ,1.34139 ,0.26793 ,2.62895 
347 ,64.9003 ,1.34312 ,0.24398 ,2.39390 
348 ,65.0765 ,1.34478 ,0.23029 ,2.25959 
349 ,65.2526 ,1.34650 ,0.22002 ,2.15885 
350 ,65.4608 ,1.34855 ,0.20976 ,2.05812 
351 ,65.6526 ,1.35051 ,0.18922 ,1.85665 
352 ,65.8290 ,1.35233 ,0.18580 ,1.82307 
353 ,66.0209 ,1.35416 ,0.18922 ,1.85665 
354 ,66.2291 ,1.35623 ,0.18238 ,1.78949 
355 ,66.4210 ,1.35821 ,0.16527 ,1.62160 
356 ,66.6131 ,1.36006 ,0.15500 ,1.52087 
357 ,66.8050 ,1.36194 ,0.14816 ,1.45371 
358 ,66.9969 ,1.36397 ,0.12420 ,1.21866 
359 ,67.1733 ,1.36570 ,0.11736 ,1.15151 
360 ,67.3493 ,1.36751 ,0.11051 ,1.08435 
361 ,67.5255 ,1.36921 ,0.11393 ,1.11793 
362 ,67.7016 ,1.37108 ,0.07971 ,0.78214 
363 ,67.8777 ,1.37274 ,0.06602 ,0.64783 
364 ,68.0532 ,1.37448 ,0.07287 ,0.71499 
365 ,68.2298 ,1.37630 ,0.05576 ,0.54710 
366 ,68.4377 ,1.37831 ,0.04207 ,0.41278 
367 ,68.6139 ,1.38010 ,0.03180 ,0.31205 
368 ,68.8060 ,1.38203 ,0.04207 ,0.41278 
369 ,68.9981 ,1.38388 ,0.02154 ,0.21131 
370 ,69.1741 ,1.38576 ,0.00785 ,0.07700 
371 ,69.3662 ,1.38767 ,0.00785 ,0.07700 
372 ,69.5424 ,1.38947 ,-0.02295 ,-0.22520 
373 ,69.7185 ,1.39118 ,-0.01269 ,-0.12447 
374 ,69.9103 ,1.39307 ,-0.03322 ,-0.32594 
375 ,70.1187 ,1.39511 ,-0.05375 ,-0.52741 
376 ,70.3106 ,1.39702 ,-0.06060 ,-0.59457 
377 ,70.5028 ,1.39899 ,-0.04691 ,-0.46025 
378 ,70.6785 ,1.40074 ,-0.05717 ,-0.56099 
379 ,70.8549 ,1.40247 ,-0.08455 ,-0.82961 
380 ,71.0469 ,1.40449 ,-0.08113 ,-0.79604 
381 ,71.2227 ,1.40629 ,-0.10166 ,-0.99751 
382 ,71.3992 ,1.40800 ,-0.09824 ,-0.96393 
383 ,71.6072 ,1.40995 ,-0.12562 ,-1.23255 
384 ,71.7993 ,1.41191 ,-0.14273 ,-1.40045 
385 ,71.9753 ,1.41370 ,-0.14615 ,-1.43402 
386 ,72.1514 ,1.41551 ,-0.14615 ,-1.43402 
387 ,72.3111 ,1.41721 ,-0.15642 ,-1.53476 
388 ,72.4875 ,1.41889 ,-0.15642 ,-1.53476 
389 ,72.6637 ,1.42058 ,-0.16668 ,-1.63549 
390 ,72.8554 ,1.42243 ,-0.18722 ,-1.83696 
391 ,73.0478 ,1.42434 ,-0.19748 ,-1.93770 
392 ,73.2398 ,1.42636 ,-0.19064 ,-1.87054 
393 ,73.4001 ,1.42808 ,-0.21117 ,-2.07201 
394 ,73.5594 ,1.42969 ,-0.22828 ,-2.23990 
395 ,73.7194 ,1.43129 ,-0.23170 ,-2.27348 
396 ,73.8957 ,1.43294 ,-0.23513 ,-2.30706 
397 ,74.0883 ,1.43480 ,-0.23513 ,-2.30706 
398 ,74.2803 ,1.43677 ,-0.24539 ,-2.40779 
399 ,74.4719 ,1.43870 ,-0.26935 ,-2.64284 
400 ,74.6485 ,1.44047 ,-0.28304 ,-2.77716 
401 ,74.8406 ,1.44240 ,-0.27961 ,-2.74358 
402 ,75.0487 ,1.44435 ,-0.28304 ,-2.77716 
403 ,75.2406 ,1.44639 ,-0.29330 ,-2.87789 
404 ,75.4167 ,1.44808 ,-0.31041 ,-3.04578 
405 ,75.6247 ,1.45011 ,-0.31041 ,-3.04578 
406 ,75.8170 ,1.45215 ,-0.32752 ,-3.21367 
407 ,75.9929 ,1.45393 ,-0.34121 ,-3.34799 
408 ,76.1689 ,1.45565 ,-0.36175 ,-3.54946 
409 ,76.3610 ,1.45754 ,-0.34806 ,-3.41514 
410 ,76.5372 ,1.45935 ,-0.36517 ,-3.58303 
411 ,76.7133 ,1.46116 ,-0.37886 ,-3.71735 
412 ,76.8893 ,1.46289 ,-0.38912 ,-3.81808 
413 ,77.0655 ,1.46458 ,-0.39255 ,-3.85166 
414 ,77.2574 ,1.46640 ,-0.40281 ,-3.95240 
415 ,77.4496 ,1.46833 ,-0.41650 ,-4.08671 
416 ,77.6573 ,1.47046 ,-0.42335 ,-4.15387 
417 ,77.8496 ,1.47235 ,-0.43019 ,-4.22102 
418 ,78.0578 ,1.47445 ,-0.42677 ,-4.18744 
419 ,78.2659 ,1.47653 ,-0.43361 ,-4.25460 
420 ,78.4740 ,1.47859 ,-0.44388 ,-4.35534 
421 ,78.6659 ,1.48054 ,-0.45757 ,-4.48965 
422 ,78.8421 ,1.48238 ,-0.46441 ,-4.55681 
423 ,79.0502 ,1.48436 ,-0.48494 ,-4.75828 
424 ,79.2422 ,1.48634 ,-0.49521 ,-4.85901 
425 ,79.4342 ,1.48821 ,-0.49179 ,-4.82543 
426 ,79.6426 ,1.49031 ,-0.50206 ,-4.92617 
427 ,79.8340 ,1.49226 ,-0.53285 ,-5.22837 
428 ,80.0108 ,1.49407 ,-0.53970 ,-5.29553 
429 ,80.2188 ,1.49602 ,-0.53285 ,-5.22837 
430 ,80.4108 ,1.49794 ,-0.55681 ,-5.46342 
431 ,80.6029 ,1.49988 ,-0.54312 ,-5.32911 
432 ,80.7789 ,1.50168 ,-0.56023 ,-5.49700 
433 ,80.9549 ,1.50345 ,-0.57734 ,-5.66489 
434 ,81.1311 ,1.50525 ,-0.59103 ,-5.79920 
435 ,81.3072 ,1.50704 ,-0.59445 ,-5.83278 
436 ,81.5152 ,1.50895 ,-0.60472 ,-5.93352 
437 ,81.7233 ,1.51109 ,-0.59103 ,-5.79920 
438 ,81.8996 ,1.51293 ,-0.61841 ,-6.06783 
439 ,82.0915 ,1.51482 ,-0.63552 ,-6.23572 
440 ,82.2996 ,1.51686 ,-0.63210 ,-6.20214 
441 ,82.4917 ,1.51886 ,-0.65263 ,-6.40361 
442 ,82.6837 ,1.52074 ,-0.66290 ,-6.50435 
443 ,82.8598 ,1.52253 ,-0.65947 ,-6.47077 
444 ,83.0516 ,1.52437 ,-0.67659 ,-6.63866 
445 ,83.2275 ,1.52619 ,-0.70739 ,-6.94086 
446 ,83.4036 ,1.52791 ,-0.68685 ,-6.73940 
447 ,83.5801 ,1.52975 ,-0.69370 ,-6.80655 
448 ,83.7721 ,1.53167 ,-0.71765 ,-7.04160 
449 ,83.9318 ,1.53333 ,-0.73476 ,-7.20949 
450 ,84.1080 ,1.53500 ,-0.72450 ,-7.10876 
451 ,84.3004 ,1.53683 ,-0.73134 ,-7.17591 
452 ,84.4764 ,1.53873 ,-0.73818 ,-7.24307 
453 ,84.6526 ,1.54043 ,-0.75872 ,-7.44454 
454 ,84.8287 ,1.54225 ,-0.76556 ,-7.51170 
455 ,85.0208 ,1.54412 ,-0.76898 ,-7.54527 
456 ,85.2124 ,1.54607 ,-0.78952 ,-7.74674 
457 ,85.4047 ,1.54790 ,-0.78610 ,-7.71317 
458 ,85.6129 ,1.54998 ,-0.80663 ,-7.91464 
459 ,85.8050 ,1.55187 ,-0.78952 ,-7.74674 
460 ,85.9811 ,1.55371 ,-0.80321 ,-7.88106 
461 ,86.1572 ,1.55552 ,-0.80663 ,-7.91464 
462 ,86.3332 ,1.55722 ,-0.83401 ,-8.18326 
463 ,86.5091 ,1.55905 ,-0.85796 ,-8.41831 
