Data stamp = , 23-04-2022 19:56:54 340

Calibration Values: 
Slope = , 26.54 , g/V 
Offset Voltage at no contact = , -0.501760 , V 

No , Time , Stage Position ,   Mass , Force 
   ,  (s) ,      (mm)      ,   (g)  , (mN)  

1 ,0.0000 ,0.69936 ,5.30536 ,52.05621 
2 ,0.2139 ,0.69947 ,5.30194 ,52.02263 
3 ,0.5343 ,0.70028 ,5.31563 ,52.15694 
4 ,0.7423 ,0.70180 ,5.33616 ,52.35841 
5 ,0.9346 ,0.70349 ,5.30878 ,52.08979 
6 ,1.1103 ,0.70521 ,5.31221 ,52.12337 
7 ,1.2868 ,0.70694 ,5.32247 ,52.22410 
8 ,1.4948 ,0.70896 ,5.31905 ,52.19052 
9 ,1.6869 ,0.71100 ,5.31221 ,52.12337 
10 ,1.8795 ,0.71288 ,5.29852 ,51.98905 
11 ,2.0871 ,0.71484 ,5.26430 ,51.65327 
12 ,2.2791 ,0.71696 ,5.26430 ,51.65327 
13 ,2.4708 ,0.71879 ,5.24718 ,51.48538 
14 ,2.6473 ,0.72051 ,5.22665 ,51.28391 
15 ,2.8394 ,0.72248 ,5.21981 ,51.21675 
16 ,3.0310 ,0.72436 ,5.17874 ,50.81381 
17 ,3.2075 ,0.72618 ,5.17190 ,50.74666 
18 ,3.3833 ,0.72789 ,5.15821 ,50.61234 
19 ,3.5597 ,0.72965 ,5.13768 ,50.41087 
20 ,3.7357 ,0.73147 ,5.10688 ,50.10867 
21 ,3.9277 ,0.73330 ,5.10345 ,50.07509 
22 ,4.0875 ,0.73507 ,5.08977 ,49.94078 
23 ,4.2636 ,0.73675 ,5.07265 ,49.77289 
24 ,4.4557 ,0.73867 ,5.03159 ,49.36995 
25 ,4.6318 ,0.74042 ,5.02132 ,49.26921 
26 ,4.8240 ,0.74229 ,5.02474 ,49.30279 
27 ,5.0001 ,0.74407 ,5.00421 ,49.10132 
28 ,5.1760 ,0.74586 ,4.96315 ,48.69838 
29 ,5.3679 ,0.74774 ,4.93577 ,48.42975 
30 ,5.5279 ,0.74949 ,4.94261 ,48.49691 
31 ,5.7200 ,0.75121 ,4.91523 ,48.22828 
32 ,5.8805 ,0.75300 ,4.89470 ,48.02681 
33 ,6.0566 ,0.75468 ,4.88444 ,47.92608 
34 ,6.2485 ,0.75657 ,4.86390 ,47.72461 
35 ,6.4407 ,0.75840 ,4.86390 ,47.72461 
36 ,6.6489 ,0.76048 ,4.84679 ,47.55672 
37 ,6.8571 ,0.76261 ,4.78861 ,46.98589 
38 ,7.0492 ,0.76449 ,4.79888 ,47.08662 
39 ,7.2412 ,0.76647 ,4.77493 ,46.85157 
40 ,7.4332 ,0.76837 ,4.73386 ,46.44863 
41 ,7.6252 ,0.77035 ,4.72702 ,46.38148 
42 ,7.8173 ,0.77220 ,4.69622 ,46.07927 
43 ,8.0095 ,0.77411 ,4.69279 ,46.04569 
44 ,8.2015 ,0.77600 ,4.68595 ,45.97854 
45 ,8.3933 ,0.77803 ,4.64831 ,45.60918 
46 ,8.5699 ,0.77984 ,4.65173 ,45.64275 
47 ,8.7458 ,0.78154 ,4.62777 ,45.40771 
48 ,8.9217 ,0.78326 ,4.61408 ,45.27339 
49 ,9.1139 ,0.78523 ,4.57986 ,44.93761 
50 ,9.2898 ,0.78695 ,4.56617 ,44.80330 
51 ,9.4817 ,0.78877 ,4.56275 ,44.76972 
52 ,9.6737 ,0.79072 ,4.53537 ,44.50109 
53 ,9.8502 ,0.79263 ,4.52853 ,44.43394 
54 ,10.0263 ,0.79428 ,4.50457 ,44.19889 
55 ,10.2023 ,0.79612 ,4.49773 ,44.13173 
56 ,10.3790 ,0.79785 ,4.46693 ,43.82953 
57 ,10.5702 ,0.79970 ,4.46009 ,43.76237 
58 ,10.7467 ,0.80157 ,4.42929 ,43.46016 
59 ,10.9387 ,0.80348 ,4.41560 ,43.32585 
60 ,11.1148 ,0.80527 ,4.38138 ,42.99007 
61 ,11.2908 ,0.80699 ,4.39507 ,43.12438 
62 ,11.4669 ,0.80874 ,4.37453 ,42.92291 
63 ,11.6585 ,0.81050 ,4.35400 ,42.72144 
64 ,11.8350 ,0.81241 ,4.32320 ,42.41924 
65 ,12.0112 ,0.81419 ,4.30267 ,42.21777 
66 ,12.2192 ,0.81609 ,4.29924 ,42.18419 
67 ,12.4274 ,0.81829 ,4.27187 ,41.91556 
68 ,12.6192 ,0.82024 ,4.25818 ,41.78125 
69 ,12.8111 ,0.82208 ,4.23765 ,41.57978 
70 ,13.0034 ,0.82407 ,4.21027 ,41.31115 
71 ,13.2115 ,0.82606 ,4.18631 ,41.07611 
72 ,13.3876 ,0.82795 ,4.19658 ,41.17684 
73 ,13.5638 ,0.82970 ,4.17262 ,40.94179 
74 ,13.7394 ,0.83145 ,4.14525 ,40.67317 
75 ,13.9157 ,0.83321 ,4.12814 ,40.50527 
76 ,14.1240 ,0.83516 ,4.13156 ,40.53885 
77 ,14.2997 ,0.83703 ,4.08707 ,40.10233 
78 ,14.4764 ,0.83881 ,4.06996 ,39.93444 
79 ,14.6839 ,0.84073 ,4.05285 ,39.76655 
80 ,14.8599 ,0.84267 ,4.04600 ,39.69940 
81 ,15.0364 ,0.84442 ,4.01863 ,39.43077 
82 ,15.2766 ,0.84667 ,4.01178 ,39.36361 
83 ,15.4683 ,0.84875 ,4.00836 ,39.33003 
84 ,15.6447 ,0.85048 ,3.98783 ,39.12856 
85 ,15.8203 ,0.85231 ,3.95018 ,38.75920 
86 ,15.9964 ,0.85400 ,3.93650 ,38.62489 
87 ,16.1888 ,0.85595 ,3.93992 ,38.65847 
88 ,16.3814 ,0.85783 ,3.90227 ,38.28911 
89 ,16.5888 ,0.85990 ,3.89543 ,38.22195 
90 ,16.7813 ,0.86179 ,3.87832 ,38.05406 
91 ,16.9571 ,0.86363 ,3.85436 ,37.81901 
92 ,17.1493 ,0.86550 ,3.84752 ,37.75185 
93 ,17.3413 ,0.86749 ,3.81672 ,37.44965 
94 ,17.5334 ,0.86936 ,3.80303 ,37.31534 
95 ,17.7255 ,0.87131 ,3.78934 ,37.18102 
96 ,17.9173 ,0.87318 ,3.76196 ,36.91240 
97 ,18.1092 ,0.87516 ,3.75170 ,36.81166 
98 ,18.3015 ,0.87695 ,3.74143 ,36.71093 
99 ,18.4937 ,0.87902 ,3.70721 ,36.37514 
100 ,18.6859 ,0.88082 ,3.69352 ,36.24083 
101 ,18.8779 ,0.88274 ,3.67299 ,36.03936 
102 ,19.0540 ,0.88462 ,3.64561 ,35.77073 
103 ,19.2298 ,0.88644 ,3.65246 ,35.83789 
104 ,19.4056 ,0.88812 ,3.63192 ,35.63642 
105 ,19.5819 ,0.88988 ,3.60797 ,35.40137 
106 ,19.7742 ,0.89173 ,3.58743 ,35.19990 
107 ,19.9503 ,0.89350 ,3.58059 ,35.13275 
108 ,20.1584 ,0.89555 ,3.54979 ,34.83054 
109 ,20.3345 ,0.89739 ,3.53610 ,34.69623 
110 ,20.5266 ,0.89928 ,3.53610 ,34.69623 
111 ,20.7185 ,0.90118 ,3.49504 ,34.29329 
112 ,20.8943 ,0.90299 ,3.48135 ,34.15898 
113 ,21.0866 ,0.90476 ,3.48477 ,34.19255 
114 ,21.2945 ,0.90695 ,3.44713 ,33.82319 
115 ,21.4869 ,0.90880 ,3.44370 ,33.78961 
116 ,21.6791 ,0.91086 ,3.41290 ,33.48741 
117 ,21.8551 ,0.91259 ,3.39579 ,33.31952 
118 ,22.0472 ,0.91438 ,3.39579 ,33.31952 
119 ,22.2553 ,0.91650 ,3.37868 ,33.15163 
120 ,22.4310 ,0.91842 ,3.37868 ,33.15163 
121 ,22.6075 ,0.92011 ,3.35130 ,32.88300 
122 ,22.8155 ,0.92218 ,3.32393 ,32.61437 
123 ,23.0077 ,0.92408 ,3.33077 ,32.68153 
124 ,23.1997 ,0.92599 ,3.27602 ,32.14428 
125 ,23.3917 ,0.92797 ,3.27944 ,32.17786 
126 ,23.5839 ,0.92976 ,3.25206 ,31.90923 
127 ,23.7918 ,0.93186 ,3.24522 ,31.84207 
128 ,23.9679 ,0.93370 ,3.23153 ,31.70776 
129 ,24.1598 ,0.93559 ,3.20757 ,31.47271 
130 ,24.3359 ,0.93733 ,3.18704 ,31.27124 
131 ,24.5117 ,0.93919 ,3.19388 ,31.33840 
132 ,24.6881 ,0.94090 ,3.16309 ,31.03619 
133 ,24.8806 ,0.94276 ,3.14597 ,30.86830 
134 ,25.0560 ,0.94457 ,3.11860 ,30.59968 
135 ,25.2326 ,0.94629 ,3.12544 ,30.66683 
136 ,25.4246 ,0.94815 ,3.10491 ,30.46536 
137 ,25.6002 ,0.95012 ,3.09122 ,30.33105 
138 ,25.7928 ,0.95190 ,3.08780 ,30.29747 
139 ,25.9847 ,0.95382 ,3.05015 ,29.92811 
140 ,26.1607 ,0.95560 ,3.03647 ,29.79380 
141 ,26.3530 ,0.95759 ,3.01935 ,29.62590 
142 ,26.5291 ,0.95929 ,3.01593 ,29.59233 
143 ,26.7210 ,0.96116 ,2.98855 ,29.32370 
144 ,26.8969 ,0.96299 ,2.97144 ,29.15581 
145 ,27.0893 ,0.96487 ,2.98171 ,29.25654 
146 ,27.2974 ,0.96697 ,2.94064 ,28.85360 
147 ,27.4890 ,0.96891 ,2.93722 ,28.82003 
148 ,27.6813 ,0.97073 ,2.92353 ,28.68571 
149 ,27.8735 ,0.97270 ,2.88247 ,28.28277 
150 ,28.0495 ,0.97448 ,2.89273 ,28.38351 
151 ,28.2257 ,0.97620 ,2.87220 ,28.18204 
152 ,28.4176 ,0.97814 ,2.84825 ,27.94699 
153 ,28.6098 ,0.98000 ,2.83798 ,27.84625 
154 ,28.8015 ,0.98196 ,2.81402 ,27.61121 
155 ,28.9940 ,0.98382 ,2.82429 ,27.71194 
156 ,29.2020 ,0.98595 ,2.79007 ,27.37616 
157 ,29.3942 ,0.98789 ,2.77980 ,27.27542 
158 ,29.6022 ,0.98996 ,2.73874 ,26.87248 
159 ,29.7783 ,0.99185 ,2.73531 ,26.83891 
160 ,29.9543 ,0.99353 ,2.73189 ,26.80533 
161 ,30.1301 ,0.99525 ,2.71478 ,26.63744 
162 ,30.3065 ,0.99704 ,2.70452 ,26.53670 
163 ,30.4827 ,0.99878 ,2.68056 ,26.30165 
164 ,30.6744 ,1.00069 ,2.67029 ,26.20092 
165 ,30.8505 ,1.00246 ,2.66345 ,26.13376 
166 ,31.0266 ,1.00426 ,2.63607 ,25.86514 
167 ,31.2028 ,1.00605 ,2.61896 ,25.69724 
168 ,31.3794 ,1.00777 ,2.59158 ,25.42862 
169 ,31.5551 ,1.00958 ,2.59843 ,25.49577 
170 ,31.7471 ,1.01141 ,2.57789 ,25.29430 
171 ,31.9071 ,1.01318 ,2.55736 ,25.09283 
172 ,32.0991 ,1.01491 ,2.53683 ,24.89136 
173 ,32.2910 ,1.01678 ,2.54025 ,24.92494 
174 ,32.4833 ,1.01873 ,2.52656 ,24.79063 
175 ,32.6593 ,1.02055 ,2.48550 ,24.38769 
176 ,32.8355 ,1.02237 ,2.48892 ,24.42127 
177 ,33.0597 ,1.02446 ,2.45812 ,24.11906 
178 ,33.2356 ,1.02643 ,2.45812 ,24.11906 
179 ,33.4278 ,1.02820 ,2.42732 ,23.81686 
180 ,33.6199 ,1.03013 ,2.40679 ,23.61539 
181 ,33.8118 ,1.03202 ,2.41705 ,23.71612 
182 ,34.0043 ,1.03406 ,2.39310 ,23.48108 
183 ,34.1957 ,1.03589 ,2.37941 ,23.34676 
184 ,34.3883 ,1.03779 ,2.35203 ,23.07814 
185 ,34.5964 ,1.03989 ,2.36230 ,23.17887 
186 ,34.7721 ,1.04176 ,2.31097 ,22.67520 
187 ,34.9485 ,1.04345 ,2.31439 ,22.70877 
188 ,35.1402 ,1.04534 ,2.29728 ,22.54088 
189 ,35.3164 ,1.04709 ,2.29043 ,22.47373 
190 ,35.4926 ,1.04890 ,2.27674 ,22.33941 
191 ,35.7007 ,1.05088 ,2.24937 ,22.07079 
192 ,35.8927 ,1.05287 ,2.24937 ,22.07079 
193 ,36.0850 ,1.05472 ,2.21515 ,21.73500 
194 ,36.2929 ,1.05687 ,2.21857 ,21.76858 
195 ,36.4852 ,1.05874 ,2.18092 ,21.39922 
196 ,36.6930 ,1.06085 ,2.17750 ,21.36564 
197 ,36.8694 ,1.06266 ,2.16381 ,21.23133 
198 ,37.0610 ,1.06450 ,2.14328 ,21.02986 
199 ,37.2534 ,1.06654 ,2.14328 ,21.02986 
200 ,37.4291 ,1.06823 ,2.12959 ,20.89555 
201 ,37.6056 ,1.07002 ,2.09537 ,20.55976 
202 ,37.7976 ,1.07189 ,2.10221 ,20.62692 
203 ,37.9895 ,1.07381 ,2.07141 ,20.32472 
204 ,38.1819 ,1.07578 ,2.04404 ,20.05609 
205 ,38.3576 ,1.07750 ,2.04746 ,20.08967 
206 ,38.5335 ,1.07931 ,2.03377 ,19.95535 
207 ,38.7101 ,1.08105 ,2.01324 ,19.75388 
208 ,38.9020 ,1.08296 ,1.99955 ,19.61957 
209 ,39.0783 ,1.08471 ,1.98244 ,19.45168 
210 ,39.3021 ,1.08694 ,1.95506 ,19.18305 
211 ,39.4944 ,1.08884 ,1.96190 ,19.25021 
212 ,39.6865 ,1.09076 ,1.95848 ,19.21663 
213 ,39.8791 ,1.09273 ,1.92768 ,18.91443 
214 ,40.0703 ,1.09462 ,1.91742 ,18.81369 
215 ,40.2302 ,1.09634 ,1.89688 ,18.61222 
216 ,40.4068 ,1.09802 ,1.86951 ,18.34360 
217 ,40.5988 ,1.09989 ,1.87977 ,18.44433 
218 ,40.7909 ,1.10177 ,1.86266 ,18.27644 
219 ,40.9990 ,1.10387 ,1.85240 ,18.17570 
220 ,41.1907 ,1.10577 ,1.82844 ,17.94066 
221 ,41.3671 ,1.10758 ,1.81817 ,17.83992 
222 ,41.5432 ,1.10936 ,1.79080 ,17.57129 
223 ,41.7191 ,1.11124 ,1.80791 ,17.73919 
224 ,41.9109 ,1.11298 ,1.77026 ,17.36983 
225 ,42.0873 ,1.11483 ,1.77026 ,17.36983 
226 ,42.2956 ,1.11688 ,1.75315 ,17.20193 
227 ,42.4874 ,1.11879 ,1.72920 ,16.96689 
228 ,42.6637 ,1.12060 ,1.70524 ,16.73184 
229 ,42.8716 ,1.12262 ,1.71209 ,16.79899 
230 ,43.0639 ,1.12446 ,1.69155 ,16.59752 
231 ,43.2558 ,1.12644 ,1.68471 ,16.53037 
232 ,43.4481 ,1.12843 ,1.66075 ,16.29532 
233 ,43.6397 ,1.13031 ,1.64707 ,16.16101 
234 ,43.8162 ,1.13214 ,1.64022 ,16.09385 
235 ,43.9922 ,1.13380 ,1.63680 ,16.06027 
236 ,44.1684 ,1.13560 ,1.60600 ,15.75807 
237 ,44.3605 ,1.13745 ,1.58547 ,15.55660 
238 ,44.5524 ,1.13944 ,1.59573 ,15.65733 
239 ,44.7285 ,1.14127 ,1.56151 ,15.32155 
240 ,44.8886 ,1.14294 ,1.54782 ,15.18724 
241 ,45.0484 ,1.14452 ,1.53756 ,15.08650 
242 ,45.2568 ,1.14632 ,1.54440 ,15.15366 
243 ,45.4488 ,1.14839 ,1.52045 ,14.91861 
244 ,45.6245 ,1.15016 ,1.50333 ,14.75072 
245 ,45.8011 ,1.15194 ,1.50333 ,14.75072 
246 ,45.9931 ,1.15386 ,1.47938 ,14.51567 
247 ,46.1852 ,1.15574 ,1.46227 ,14.34778 
248 ,46.3772 ,1.15772 ,1.46227 ,14.34778 
249 ,46.5532 ,1.15943 ,1.45200 ,14.24704 
250 ,46.7290 ,1.16118 ,1.43147 ,14.04557 
251 ,46.9056 ,1.16298 ,1.41094 ,13.84410 
252 ,47.0813 ,1.16476 ,1.40751 ,13.81053 
253 ,47.2577 ,1.16653 ,1.40751 ,13.81053 
254 ,47.4657 ,1.16849 ,1.39040 ,13.64263 
255 ,47.6579 ,1.17043 ,1.38014 ,13.54190 
256 ,47.8499 ,1.17233 ,1.35276 ,13.27327 
257 ,48.0260 ,1.17418 ,1.33565 ,13.10538 
258 ,48.2340 ,1.17617 ,1.33565 ,13.10538 
259 ,48.4097 ,1.17801 ,1.31512 ,12.90391 
260 ,48.5860 ,1.17976 ,1.30143 ,12.76960 
261 ,48.7942 ,1.18176 ,1.29116 ,12.66886 
262 ,48.9703 ,1.18365 ,1.27063 ,12.46739 
263 ,49.1465 ,1.18536 ,1.25352 ,12.29950 
264 ,49.3386 ,1.18728 ,1.26036 ,12.36666 
265 ,49.5465 ,1.18934 ,1.22956 ,12.06445 
266 ,49.7226 ,1.19116 ,1.21929 ,11.96372 
267 ,49.9147 ,1.19308 ,1.21929 ,11.96372 
268 ,50.0905 ,1.19482 ,1.20561 ,11.82941 
269 ,50.2829 ,1.19671 ,1.19192 ,11.69509 
270 ,50.4910 ,1.19875 ,1.16112 ,11.39289 
271 ,50.6991 ,1.20089 ,1.15770 ,11.35931 
272 ,50.8909 ,1.20280 ,1.13716 ,11.15784 
273 ,51.0671 ,1.20458 ,1.12690 ,11.05710 
274 ,51.2272 ,1.20627 ,1.11663 ,10.95637 
275 ,51.4189 ,1.20807 ,1.11663 ,10.95637 
276 ,51.5954 ,1.20992 ,1.12005 ,10.98995 
277 ,51.8035 ,1.21190 ,1.09267 ,10.72132 
278 ,52.0115 ,1.21400 ,1.06187 ,10.41912 
279 ,52.2036 ,1.21582 ,1.05503 ,10.35196 
280 ,52.3797 ,1.21769 ,1.04134 ,10.21765 
281 ,52.5558 ,1.21945 ,1.04134 ,10.21765 
282 ,52.7317 ,1.22120 ,1.02423 ,10.04976 
283 ,52.9238 ,1.22318 ,1.01739 ,9.98260 
284 ,53.1000 ,1.22487 ,0.99685 ,9.78113 
285 ,53.2759 ,1.22668 ,1.00028 ,9.81471 
286 ,53.4843 ,1.22856 ,0.98659 ,9.68039 
287 ,53.6601 ,1.23047 ,0.96263 ,9.44535 
288 ,53.8524 ,1.23239 ,0.94210 ,9.24388 
289 ,54.0442 ,1.23429 ,0.92157 ,9.04241 
290 ,54.2365 ,1.23628 ,0.91472 ,8.97525 
291 ,54.4284 ,1.23814 ,0.89419 ,8.77378 
292 ,54.6045 ,1.23996 ,0.87708 ,8.60589 
293 ,54.7964 ,1.24179 ,0.90103 ,8.84094 
294 ,54.9888 ,1.24376 ,0.87023 ,8.53873 
295 ,55.1966 ,1.24574 ,0.85997 ,8.43800 
296 ,55.4049 ,1.24786 ,0.83943 ,8.23653 
297 ,55.5809 ,1.24969 ,0.84970 ,8.33726 
298 ,55.7726 ,1.25156 ,0.81206 ,7.96790 
299 ,55.9490 ,1.25337 ,0.81206 ,7.96790 
300 ,56.1411 ,1.25520 ,0.80179 ,7.86717 
301 ,56.3174 ,1.25704 ,0.78810 ,7.73285 
302 ,56.5095 ,1.25889 ,0.77099 ,7.56496 
303 ,56.7015 ,1.26086 ,0.77099 ,7.56496 
304 ,56.8779 ,1.26275 ,0.74361 ,7.29633 
305 ,57.0536 ,1.26439 ,0.75388 ,7.39707 
306 ,57.2296 ,1.26622 ,0.71624 ,7.02771 
307 ,57.4055 ,1.26790 ,0.71624 ,7.02771 
308 ,57.5978 ,1.26979 ,0.71624 ,7.02771 
309 ,57.7739 ,1.27166 ,0.68886 ,6.75908 
310 ,57.9661 ,1.27354 ,0.68201 ,6.69193 
311 ,58.1582 ,1.27548 ,0.68201 ,6.69193 
312 ,58.3502 ,1.27737 ,0.63753 ,6.25541 
313 ,58.5262 ,1.27918 ,0.65121 ,6.38972 
314 ,58.7184 ,1.28105 ,0.63410 ,6.22183 
315 ,58.9262 ,1.28307 ,0.62726 ,6.15467 
316 ,59.1185 ,1.28505 ,0.62042 ,6.08752 
317 ,59.3105 ,1.28691 ,0.59304 ,5.81889 
318 ,59.4865 ,1.28873 ,0.58619 ,5.75173 
319 ,59.6785 ,1.29064 ,0.58619 ,5.75173 
320 ,59.8868 ,1.29263 ,0.56224 ,5.51668 
321 ,60.0785 ,1.29466 ,0.55539 ,5.44953 
322 ,60.2549 ,1.29642 ,0.54513 ,5.34879 
323 ,60.4470 ,1.29825 ,0.53144 ,5.21448 
324 ,60.6227 ,1.30014 ,0.53144 ,5.21448 
325 ,60.8151 ,1.30203 ,0.51433 ,5.04659 
326 ,60.9909 ,1.30378 ,0.49380 ,4.84512 
327 ,61.1672 ,1.30561 ,0.50748 ,4.97943 
328 ,61.3433 ,1.30731 ,0.49380 ,4.84512 
329 ,61.5354 ,1.30925 ,0.46642 ,4.57649 
330 ,61.7115 ,1.31104 ,0.45957 ,4.50934 
331 ,61.9033 ,1.31294 ,0.44931 ,4.40860 
332 ,62.0955 ,1.31483 ,0.44588 ,4.37502 
333 ,62.2715 ,1.31658 ,0.42535 ,4.17355 
334 ,62.4477 ,1.31830 ,0.40824 ,4.00566 
335 ,62.6236 ,1.32009 ,0.39455 ,3.87135 
336 ,62.8157 ,1.32190 ,0.39797 ,3.90493 
337 ,62.9920 ,1.32374 ,0.37744 ,3.70346 
338 ,63.1840 ,1.32572 ,0.37060 ,3.63630 
339 ,63.3762 ,1.32750 ,0.37402 ,3.66988 
340 ,63.5842 ,1.32967 ,0.35349 ,3.46841 
341 ,63.7603 ,1.33146 ,0.35691 ,3.50199 
342 ,63.9523 ,1.33342 ,0.32269 ,3.16620 
343 ,64.1285 ,1.33514 ,0.30215 ,2.96473 
344 ,64.3200 ,1.33707 ,0.30558 ,2.99831 
345 ,64.4967 ,1.33882 ,0.29873 ,2.93116 
346 ,64.6887 ,1.34073 ,0.27135 ,2.66253 
347 ,64.8809 ,1.34260 ,0.28162 ,2.76326 
348 ,65.0568 ,1.34444 ,0.27478 ,2.69611 
349 ,65.2649 ,1.34637 ,0.25082 ,2.46106 
350 ,65.4567 ,1.34834 ,0.24740 ,2.42748 
351 ,65.6486 ,1.35027 ,0.22344 ,2.19243 
352 ,65.8245 ,1.35209 ,0.23029 ,2.25959 
353 ,66.0006 ,1.35387 ,0.21318 ,2.09170 
354 ,66.1767 ,1.35566 ,0.18922 ,1.85665 
355 ,66.3533 ,1.35739 ,0.17553 ,1.72234 
356 ,66.6095 ,1.35984 ,0.18580 ,1.82307 
357 ,66.8174 ,1.36201 ,0.15500 ,1.52087 
358 ,66.9935 ,1.36379 ,0.15500 ,1.52087 
359 ,67.1857 ,1.36561 ,0.17211 ,1.68876 
360 ,67.3781 ,1.36765 ,0.15500 ,1.52087 
361 ,67.5858 ,1.36964 ,0.12762 ,1.25224 
362 ,67.7617 ,1.37144 ,0.13105 ,1.28582 
363 ,67.9376 ,1.37322 ,0.12078 ,1.18508 
364 ,68.1139 ,1.37494 ,0.08656 ,0.84930 
365 ,68.2899 ,1.37672 ,0.08998 ,0.88288 
366 ,68.4660 ,1.37851 ,0.08314 ,0.81572 
367 ,68.6257 ,1.38020 ,0.07971 ,0.78214 
368 ,68.8022 ,1.38184 ,0.05918 ,0.58067 
369 ,68.9944 ,1.38367 ,0.04891 ,0.47994 
370 ,69.1860 ,1.38573 ,0.04207 ,0.41278 
371 ,69.3624 ,1.38746 ,0.04891 ,0.47994 
372 ,69.5385 ,1.38923 ,0.02496 ,0.24489 
373 ,69.7303 ,1.39109 ,0.00443 ,0.04342 
374 ,69.9547 ,1.39328 ,0.01127 ,0.11058 
375 ,70.1468 ,1.39517 ,-0.01611 ,-0.15805 
376 ,70.3388 ,1.39729 ,-0.02637 ,-0.25878 
377 ,70.5149 ,1.39898 ,-0.03664 ,-0.35952 
378 ,70.7070 ,1.40089 ,-0.04348 ,-0.42667 
379 ,70.8990 ,1.40274 ,-0.05033 ,-0.49383 
380 ,71.0750 ,1.40462 ,-0.07428 ,-0.72888 
381 ,71.2672 ,1.40638 ,-0.08113 ,-0.79604 
382 ,71.4592 ,1.40833 ,-0.08797 ,-0.86319 
383 ,71.6353 ,1.41017 ,-0.09482 ,-0.93035 
384 ,71.8270 ,1.41207 ,-0.09482 ,-0.93035 
385 ,72.0195 ,1.41396 ,-0.11193 ,-1.09824 
386 ,72.2273 ,1.41603 ,-0.11193 ,-1.09824 
387 ,72.4036 ,1.41787 ,-0.11877 ,-1.16540 
388 ,72.5794 ,1.41966 ,-0.14957 ,-1.46760 
389 ,72.7713 ,1.42154 ,-0.15642 ,-1.53476 
390 ,72.9474 ,1.42330 ,-0.15642 ,-1.53476 
391 ,73.1236 ,1.42504 ,-0.14957 ,-1.46760 
392 ,73.2999 ,1.42683 ,-0.17353 ,-1.70265 
393 ,73.4921 ,1.42873 ,-0.19064 ,-1.87054 
394 ,73.6681 ,1.43062 ,-0.18379 ,-1.80338 
395 ,73.8443 ,1.43224 ,-0.20433 ,-2.00485 
396 ,74.0364 ,1.43413 ,-0.23855 ,-2.34064 
397 ,74.2281 ,1.43609 ,-0.23170 ,-2.27348 
398 ,74.4044 ,1.43788 ,-0.22828 ,-2.23990 
399 ,74.5803 ,1.43957 ,-0.24197 ,-2.37422 
400 ,74.7566 ,1.44138 ,-0.27277 ,-2.67642 
401 ,74.9327 ,1.44311 ,-0.27961 ,-2.74358 
402 ,75.1246 ,1.44506 ,-0.25566 ,-2.50853 
403 ,75.3169 ,1.44692 ,-0.27961 ,-2.74358 
404 ,75.5087 ,1.44896 ,-0.28304 ,-2.77716 
405 ,75.6849 ,1.45065 ,-0.28988 ,-2.84431 
406 ,75.8770 ,1.45257 ,-0.32068 ,-3.14652 
407 ,76.0527 ,1.45433 ,-0.32410 ,-3.18010 
408 ,76.2291 ,1.45604 ,-0.31726 ,-3.11294 
409 ,76.4208 ,1.45801 ,-0.33095 ,-3.24725 
410 ,76.5974 ,1.45980 ,-0.35490 ,-3.48230 
411 ,76.8052 ,1.46175 ,-0.34464 ,-3.38156 
412 ,76.9975 ,1.46375 ,-0.37201 ,-3.65019 
413 ,77.1892 ,1.46563 ,-0.36175 ,-3.54946 
414 ,77.3656 ,1.46747 ,-0.37886 ,-3.71735 
415 ,77.5576 ,1.46939 ,-0.40966 ,-4.01955 
416 ,77.7176 ,1.47110 ,-0.40281 ,-3.95240 
417 ,77.8938 ,1.47274 ,-0.41650 ,-4.08671 
418 ,78.0861 ,1.47467 ,-0.40281 ,-3.95240 
419 ,78.2776 ,1.47650 ,-0.43361 ,-4.25460 
420 ,78.4541 ,1.47837 ,-0.45072 ,-4.42249 
421 ,78.6300 ,1.48008 ,-0.44730 ,-4.38891 
422 ,78.8222 ,1.48200 ,-0.44046 ,-4.32176 
423 ,78.9982 ,1.48376 ,-0.48152 ,-4.72470 
424 ,79.1903 ,1.48569 ,-0.47126 ,-4.62396 
425 ,79.3665 ,1.48742 ,-0.47810 ,-4.69112 
426 ,79.5425 ,1.48918 ,-0.47810 ,-4.69112 
427 ,79.7667 ,1.49134 ,-0.49521 ,-4.85901 
428 ,79.9587 ,1.49331 ,-0.52943 ,-5.19479 
429 ,80.1349 ,1.49515 ,-0.51917 ,-5.09406 
430 ,80.3269 ,1.49704 ,-0.52601 ,-5.16121 
431 ,80.5029 ,1.49883 ,-0.53285 ,-5.22837 
432 ,80.6950 ,1.50071 ,-0.55339 ,-5.42984 
433 ,80.8711 ,1.50248 ,-0.54312 ,-5.32911 
434 ,81.0794 ,1.50450 ,-0.57734 ,-5.66489 
435 ,81.2874 ,1.50649 ,-0.58419 ,-5.73205 
436 ,81.4791 ,1.50859 ,-0.57734 ,-5.66489 
437 ,81.6713 ,1.51042 ,-0.59788 ,-5.86636 
438 ,81.8474 ,1.51224 ,-0.59103 ,-5.79920 
439 ,82.0555 ,1.51430 ,-0.61499 ,-6.03425 
440 ,82.2316 ,1.51609 ,-0.62183 ,-6.10141 
441 ,82.4236 ,1.51800 ,-0.63210 ,-6.20214 
442 ,82.5994 ,1.51990 ,-0.63894 ,-6.26930 
443 ,82.7760 ,1.52156 ,-0.65263 ,-6.40361 
444 ,82.9838 ,1.52357 ,-0.65263 ,-6.40361 
445 ,83.1759 ,1.52552 ,-0.67316 ,-6.60508 
446 ,83.3678 ,1.52742 ,-0.66632 ,-6.53793 
447 ,83.5601 ,1.52934 ,-0.69712 ,-6.84013 
448 ,83.7361 ,1.53113 ,-0.70396 ,-6.90729 
449 ,83.9284 ,1.53304 ,-0.68685 ,-6.73940 
450 ,84.1203 ,1.53494 ,-0.73134 ,-7.17591 
451 ,84.3125 ,1.53688 ,-0.72450 ,-7.10876 
452 ,84.5045 ,1.53881 ,-0.73134 ,-7.17591 
453 ,84.6961 ,1.54080 ,-0.74503 ,-7.31023 
454 ,84.8886 ,1.54265 ,-0.74161 ,-7.27665 
455 ,85.0808 ,1.54459 ,-0.77241 ,-7.57885 
456 ,85.2728 ,1.54645 ,-0.75530 ,-7.41096 
457 ,85.4490 ,1.54825 ,-0.76556 ,-7.51170 
458 ,85.6570 ,1.55029 ,-0.78610 ,-7.71317 
459 ,85.8167 ,1.55205 ,-0.77925 ,-7.64601 
460 ,85.9930 ,1.55370 ,-0.79978 ,-7.84748 
461 ,86.1852 ,1.55562 ,-0.81005 ,-7.94821 
462 ,86.3613 ,1.55737 ,-0.82032 ,-8.04895 
463 ,86.5534 ,1.55924 ,-0.81347 ,-7.98179 
