Data stamp = , 23-04-2022 22:13:32 963

Calibration Values: 
Slope = , 26.54 , g/V 
Offset Voltage at no contact = , -0.501760 , V 

No , Time , Stage Position ,   Mass , Force 
   ,  (s) ,      (mm)      ,   (g)  , (mN)  

1 ,0.0000 ,0.69939 ,5.27456 ,51.75401 
2 ,0.2862 ,0.69958 ,5.27798 ,51.78758 
3 ,0.6067 ,0.70066 ,5.27456 ,51.75401 
4 ,0.8147 ,0.70237 ,5.27456 ,51.75401 
5 ,1.0225 ,0.70432 ,5.26087 ,51.61969 
6 ,1.1988 ,0.70610 ,5.26087 ,51.61969 
7 ,1.3746 ,0.70783 ,5.28825 ,51.88832 
8 ,1.5671 ,0.70971 ,5.27456 ,51.75401 
9 ,1.7750 ,0.71178 ,5.27114 ,51.72043 
10 ,1.9511 ,0.71363 ,5.25403 ,51.55254 
11 ,2.1593 ,0.71566 ,5.23007 ,51.31749 
12 ,2.3512 ,0.71757 ,5.23692 ,51.38464 
13 ,2.5273 ,0.71948 ,5.20954 ,51.11602 
14 ,2.7355 ,0.72134 ,5.19585 ,50.98170 
15 ,2.9274 ,0.72334 ,5.19927 ,51.01528 
16 ,3.1036 ,0.72518 ,5.17532 ,50.78023 
17 ,3.2957 ,0.72704 ,5.15479 ,50.57876 
18 ,3.4719 ,0.72884 ,5.13768 ,50.41087 
19 ,3.6960 ,0.73094 ,5.11030 ,50.14225 
20 ,3.8880 ,0.73302 ,5.11372 ,50.17583 
21 ,4.0801 ,0.73486 ,5.07950 ,49.84004 
22 ,4.2722 ,0.73677 ,5.06239 ,49.67215 
23 ,4.4643 ,0.73875 ,5.04870 ,49.53784 
24 ,4.6563 ,0.74074 ,5.04870 ,49.53784 
25 ,4.8322 ,0.74244 ,5.01790 ,49.23563 
26 ,5.0084 ,0.74430 ,4.99737 ,49.03416 
27 ,5.1844 ,0.74598 ,4.98710 ,48.93343 
28 ,5.3603 ,0.74768 ,4.95972 ,48.66480 
29 ,5.5525 ,0.74959 ,4.96315 ,48.69838 
30 ,5.7445 ,0.75150 ,4.92892 ,48.36260 
31 ,5.9369 ,0.75353 ,4.89470 ,48.02681 
32 ,6.1286 ,0.75533 ,4.90839 ,48.16113 
33 ,6.3050 ,0.75723 ,4.87759 ,47.85892 
34 ,6.4809 ,0.75899 ,4.85706 ,47.65745 
35 ,6.6732 ,0.76086 ,4.83995 ,47.48956 
36 ,6.8331 ,0.76255 ,4.82968 ,47.38883 
37 ,7.0090 ,0.76421 ,4.79546 ,47.05304 
38 ,7.1853 ,0.76605 ,4.78519 ,46.95231 
39 ,7.3613 ,0.76768 ,4.77150 ,46.81800 
40 ,7.5374 ,0.76952 ,4.74413 ,46.54937 
41 ,7.7296 ,0.77138 ,4.74070 ,46.51579 
42 ,7.9214 ,0.77323 ,4.70648 ,46.18001 
43 ,8.1137 ,0.77519 ,4.68595 ,45.97854 
44 ,8.2898 ,0.77701 ,4.69964 ,46.11285 
45 ,8.4660 ,0.77877 ,4.67226 ,45.84422 
46 ,8.6741 ,0.78070 ,4.65173 ,45.64275 
47 ,8.8817 ,0.78288 ,4.62093 ,45.34055 
48 ,9.0580 ,0.78468 ,4.60724 ,45.20624 
49 ,9.2339 ,0.78641 ,4.59697 ,45.10550 
50 ,9.4102 ,0.78819 ,4.58328 ,44.97119 
51 ,9.5861 ,0.78995 ,4.56617 ,44.80330 
52 ,9.7623 ,0.79167 ,4.55249 ,44.66898 
53 ,9.9543 ,0.79368 ,4.50457 ,44.19889 
54 ,10.1466 ,0.79550 ,4.51826 ,44.33320 
55 ,10.3385 ,0.79749 ,4.48062 ,43.96384 
56 ,10.5147 ,0.79928 ,4.47035 ,43.86310 
57 ,10.6908 ,0.80101 ,4.45666 ,43.72879 
58 ,10.8827 ,0.80289 ,4.45324 ,43.69521 
59 ,11.0586 ,0.80473 ,4.41902 ,43.35943 
60 ,11.2349 ,0.80647 ,4.39849 ,43.15796 
61 ,11.4268 ,0.80842 ,4.40875 ,43.25870 
62 ,11.6191 ,0.81021 ,4.35058 ,42.68786 
63 ,11.8109 ,0.81215 ,4.34716 ,42.65429 
64 ,12.0033 ,0.81412 ,4.33347 ,42.51997 
65 ,12.2274 ,0.81630 ,4.30951 ,42.28492 
66 ,12.4355 ,0.81839 ,4.28898 ,42.08345 
67 ,12.6274 ,0.82027 ,4.28556 ,42.04988 
68 ,12.8035 ,0.82206 ,4.25818 ,41.78125 
69 ,12.9797 ,0.82391 ,4.24107 ,41.61336 
70 ,13.1874 ,0.82592 ,4.23080 ,41.51262 
71 ,13.3639 ,0.82775 ,4.21027 ,41.31115 
72 ,13.5718 ,0.82977 ,4.18631 ,41.07611 
73 ,13.7481 ,0.83158 ,4.16236 ,40.84106 
74 ,13.9401 ,0.83345 ,4.14183 ,40.63959 
75 ,14.1160 ,0.83525 ,4.11787 ,40.40454 
76 ,14.2918 ,0.83699 ,4.12471 ,40.47170 
77 ,14.4684 ,0.83878 ,4.09391 ,40.16949 
78 ,14.6443 ,0.84056 ,4.08707 ,40.10233 
79 ,14.8360 ,0.84250 ,4.06654 ,39.90087 
80 ,15.0123 ,0.84426 ,4.04600 ,39.69940 
81 ,15.2205 ,0.84632 ,4.02547 ,39.49793 
82 ,15.4282 ,0.84831 ,4.01863 ,39.43077 
83 ,15.6045 ,0.85010 ,4.01178 ,39.36361 
84 ,15.7967 ,0.85197 ,3.96045 ,38.85994 
85 ,15.9889 ,0.85397 ,3.96387 ,38.89352 
86 ,16.1810 ,0.85586 ,3.92623 ,38.52415 
87 ,16.3888 ,0.85790 ,3.93307 ,38.59131 
88 ,16.5809 ,0.85980 ,3.90227 ,38.28911 
89 ,16.7733 ,0.86179 ,3.86463 ,37.91975 
90 ,16.9489 ,0.86362 ,3.86805 ,37.95332 
91 ,17.1252 ,0.86534 ,3.87490 ,38.02048 
92 ,17.3010 ,0.86709 ,3.83725 ,37.65112 
93 ,17.4776 ,0.86886 ,3.80645 ,37.34891 
94 ,17.6853 ,0.87076 ,3.80987 ,37.38249 
95 ,17.8778 ,0.87287 ,3.77565 ,37.04671 
96 ,18.0532 ,0.87465 ,3.75512 ,36.84524 
97 ,18.2458 ,0.87652 ,3.75854 ,36.87882 
98 ,18.4539 ,0.87857 ,3.73459 ,36.64377 
99 ,18.6295 ,0.88045 ,3.71748 ,36.47588 
100 ,18.8060 ,0.88210 ,3.70037 ,36.30799 
101 ,18.9819 ,0.88388 ,3.68325 ,36.14010 
102 ,19.1742 ,0.88579 ,3.65246 ,35.83789 
103 ,19.3662 ,0.88770 ,3.65588 ,35.87147 
104 ,19.5422 ,0.88949 ,3.63877 ,35.70358 
105 ,19.7180 ,0.89122 ,3.60454 ,35.36779 
106 ,19.8945 ,0.89302 ,3.58743 ,35.19990 
107 ,20.1025 ,0.89501 ,3.57375 ,35.06559 
108 ,20.2788 ,0.89685 ,3.56348 ,34.96485 
109 ,20.4706 ,0.89874 ,3.54637 ,34.79696 
110 ,20.6628 ,0.90058 ,3.54295 ,34.76338 
111 ,20.8549 ,0.90259 ,3.50530 ,34.39402 
112 ,21.0304 ,0.90436 ,3.49161 ,34.25971 
113 ,21.2390 ,0.90642 ,3.47108 ,34.05824 
114 ,21.4472 ,0.90847 ,3.47108 ,34.05824 
115 ,21.6229 ,0.91027 ,3.44713 ,33.82319 
116 ,21.7989 ,0.91207 ,3.41633 ,33.52099 
117 ,21.9913 ,0.91386 ,3.42317 ,33.58814 
118 ,22.1831 ,0.91590 ,3.40606 ,33.42025 
119 ,22.3757 ,0.91771 ,3.38210 ,33.18520 
120 ,22.5676 ,0.91972 ,3.36499 ,33.01731 
121 ,22.7435 ,0.92144 ,3.34446 ,32.81584 
122 ,22.9193 ,0.92322 ,3.32393 ,32.61437 
123 ,23.1116 ,0.92510 ,3.31024 ,32.48006 
124 ,23.3038 ,0.92703 ,3.29655 ,32.34575 
125 ,23.4798 ,0.92881 ,3.27602 ,32.14428 
126 ,23.6719 ,0.93082 ,3.24864 ,31.87565 
127 ,23.8481 ,0.93252 ,3.25548 ,31.94281 
128 ,24.0240 ,0.93442 ,3.22811 ,31.67418 
129 ,24.2322 ,0.93636 ,3.21442 ,31.53987 
130 ,24.4243 ,0.93829 ,3.19046 ,31.30482 
131 ,24.6164 ,0.94014 ,3.16309 ,31.03619 
132 ,24.8084 ,0.94211 ,3.16993 ,31.10335 
133 ,25.0163 ,0.94404 ,3.14597 ,30.86830 
134 ,25.2086 ,0.94609 ,3.13571 ,30.76757 
135 ,25.4008 ,0.94810 ,3.11518 ,30.56610 
136 ,25.5928 ,0.94992 ,3.08780 ,30.29747 
137 ,25.7691 ,0.95175 ,3.08438 ,30.26389 
138 ,25.9610 ,0.95359 ,3.05700 ,29.99527 
139 ,26.1366 ,0.95541 ,3.03647 ,29.79380 
140 ,26.3131 ,0.95715 ,3.02278 ,29.65948 
141 ,26.4892 ,0.95893 ,3.02278 ,29.65948 
142 ,26.6812 ,0.96085 ,3.00567 ,29.49159 
143 ,26.8570 ,0.96261 ,2.96802 ,29.12223 
144 ,27.0330 ,0.96442 ,2.97829 ,29.22297 
145 ,27.2091 ,0.96610 ,2.95776 ,29.02150 
146 ,27.4014 ,0.96798 ,2.92696 ,28.71929 
147 ,27.5936 ,0.96999 ,2.92011 ,28.65213 
148 ,27.7858 ,0.97190 ,2.91669 ,28.61856 
149 ,27.9779 ,0.97371 ,2.88247 ,28.28277 
150 ,28.1701 ,0.97570 ,2.88247 ,28.28277 
151 ,28.3459 ,0.97750 ,2.86536 ,28.11488 
152 ,28.5381 ,0.97933 ,2.83798 ,27.84625 
153 ,28.7302 ,0.98127 ,2.83114 ,27.77910 
154 ,28.9224 ,0.98317 ,2.80376 ,27.51047 
155 ,29.1304 ,0.98531 ,2.77638 ,27.24185 
156 ,29.3380 ,0.98733 ,2.77638 ,27.24185 
157 ,29.5145 ,0.98918 ,2.74900 ,26.97322 
158 ,29.7225 ,0.99127 ,2.74216 ,26.90606 
159 ,29.9145 ,0.99308 ,2.72163 ,26.70459 
160 ,30.0903 ,0.99488 ,2.71820 ,26.67101 
161 ,30.2669 ,0.99668 ,2.71136 ,26.60386 
162 ,30.4424 ,0.99845 ,2.69425 ,26.43597 
163 ,30.6349 ,1.00032 ,2.65660 ,26.06661 
164 ,30.8107 ,1.00210 ,2.66003 ,26.10018 
165 ,31.0030 ,1.00404 ,2.65318 ,26.03303 
166 ,31.1949 ,1.00586 ,2.61896 ,25.69724 
167 ,31.3872 ,1.00789 ,2.60869 ,25.59651 
168 ,31.5789 ,1.00975 ,2.57789 ,25.29430 
169 ,31.7554 ,1.01159 ,2.55736 ,25.09283 
170 ,31.9474 ,1.01347 ,2.56421 ,25.15999 
171 ,32.1075 ,1.01523 ,2.54367 ,24.95852 
172 ,32.2996 ,1.01697 ,2.52656 ,24.79063 
173 ,32.4759 ,1.01879 ,2.51287 ,24.65632 
174 ,32.6678 ,1.02076 ,2.49234 ,24.45485 
175 ,32.8438 ,1.02242 ,2.49234 ,24.45485 
176 ,33.0194 ,1.02427 ,2.45812 ,24.11906 
177 ,33.2114 ,1.02605 ,2.47181 ,24.25338 
178 ,33.4037 ,1.02794 ,2.44101 ,23.95117 
179 ,33.6122 ,1.03007 ,2.41363 ,23.68255 
180 ,33.8363 ,1.03223 ,2.39994 ,23.54823 
181 ,34.0443 ,1.03437 ,2.38968 ,23.44750 
182 ,34.2365 ,1.03631 ,2.36230 ,23.17887 
183 ,34.4284 ,1.03829 ,2.36914 ,23.24603 
184 ,34.6047 ,1.04001 ,2.34519 ,23.01098 
185 ,34.7802 ,1.04185 ,2.31781 ,22.74235 
186 ,34.9569 ,1.04360 ,2.30070 ,22.57446 
187 ,35.1489 ,1.04545 ,2.30412 ,22.60804 
188 ,35.3407 ,1.04740 ,2.27674 ,22.33941 
189 ,35.5170 ,1.04916 ,2.25963 ,22.17152 
190 ,35.7092 ,1.05106 ,2.26306 ,22.20510 
191 ,35.9010 ,1.05291 ,2.22541 ,21.83574 
192 ,36.0928 ,1.05486 ,2.20830 ,21.66785 
193 ,36.2696 ,1.05670 ,2.21172 ,21.70143 
194 ,36.4934 ,1.05877 ,2.19461 ,21.53353 
195 ,36.6692 ,1.06074 ,2.17066 ,21.29849 
196 ,36.8456 ,1.06247 ,2.17750 ,21.36564 
197 ,37.0375 ,1.06437 ,2.13986 ,20.99628 
198 ,37.2457 ,1.06638 ,2.13644 ,20.96270 
199 ,37.4216 ,1.06823 ,2.12275 ,20.82839 
200 ,37.5979 ,1.07001 ,2.09879 ,20.59334 
201 ,37.7895 ,1.07189 ,2.09537 ,20.55976 
202 ,37.9657 ,1.07366 ,2.08852 ,20.49261 
203 ,38.1578 ,1.07549 ,2.05773 ,20.19040 
204 ,38.3822 ,1.07764 ,2.03719 ,19.98893 
205 ,38.5745 ,1.07966 ,2.02693 ,19.88820 
206 ,38.7663 ,1.08164 ,2.03035 ,19.92178 
207 ,38.9421 ,1.08339 ,2.00982 ,19.72031 
208 ,39.1183 ,1.08516 ,1.98244 ,19.45168 
209 ,39.2945 ,1.08694 ,1.95506 ,19.18305 
210 ,39.4867 ,1.08877 ,1.96533 ,19.28379 
211 ,39.6788 ,1.09073 ,1.93111 ,18.94801 
212 ,39.8548 ,1.09258 ,1.92426 ,18.88085 
213 ,40.0305 ,1.09427 ,1.91742 ,18.81369 
214 ,40.2069 ,1.09602 ,1.91742 ,18.81369 
215 ,40.4149 ,1.09804 ,1.87635 ,18.41075 
216 ,40.6071 ,1.10006 ,1.88319 ,18.47791 
217 ,40.7832 ,1.10184 ,1.87977 ,18.44433 
218 ,40.9591 ,1.10366 ,1.84213 ,18.07497 
219 ,41.1353 ,1.10534 ,1.82844 ,17.94066 
220 ,41.3275 ,1.10723 ,1.84213 ,18.07497 
221 ,41.5353 ,1.10923 ,1.80791 ,17.73919 
222 ,41.7115 ,1.11114 ,1.79080 ,17.57129 
223 ,41.9037 ,1.11296 ,1.78395 ,17.50414 
224 ,42.0953 ,1.11497 ,1.76000 ,17.26909 
225 ,42.2874 ,1.11697 ,1.75657 ,17.23551 
226 ,42.4636 ,1.11863 ,1.75315 ,17.20193 
227 ,42.6560 ,1.12050 ,1.71893 ,16.86615 
228 ,42.8319 ,1.12225 ,1.71551 ,16.83257 
229 ,43.0239 ,1.12414 ,1.69155 ,16.59752 
230 ,43.2002 ,1.12599 ,1.68471 ,16.53037 
231 ,43.3764 ,1.12774 ,1.66760 ,16.36248 
232 ,43.5681 ,1.12968 ,1.68129 ,16.49679 
233 ,43.7605 ,1.13152 ,1.63338 ,16.02669 
234 ,43.9523 ,1.13342 ,1.63338 ,16.02669 
235 ,44.1286 ,1.13526 ,1.62653 ,15.95954 
236 ,44.3205 ,1.13713 ,1.60258 ,15.72449 
237 ,44.4967 ,1.13905 ,1.59916 ,15.69091 
238 ,44.6886 ,1.14081 ,1.59916 ,15.69091 
239 ,44.8649 ,1.14265 ,1.56493 ,15.35513 
240 ,45.0569 ,1.14452 ,1.54440 ,15.15366 
241 ,45.2809 ,1.14669 ,1.52729 ,14.98577 
242 ,45.4568 ,1.14855 ,1.51018 ,14.81787 
243 ,45.6492 ,1.15046 ,1.53071 ,15.01934 
244 ,45.8572 ,1.15249 ,1.49649 ,14.68356 
245 ,46.0652 ,1.15459 ,1.47938 ,14.51567 
246 ,46.2414 ,1.15635 ,1.46569 ,14.38136 
247 ,46.4335 ,1.15832 ,1.46227 ,14.34778 
248 ,46.6091 ,1.16008 ,1.45542 ,14.28062 
249 ,46.8014 ,1.16191 ,1.41094 ,13.84410 
250 ,46.9777 ,1.16379 ,1.42120 ,13.94484 
251 ,47.1537 ,1.16552 ,1.39383 ,13.67621 
252 ,47.3299 ,1.16724 ,1.40751 ,13.81053 
253 ,47.5219 ,1.16916 ,1.37329 ,13.47474 
254 ,47.6975 ,1.17093 ,1.37329 ,13.47474 
255 ,47.8742 ,1.17265 ,1.35960 ,13.34043 
256 ,48.0659 ,1.17462 ,1.35618 ,13.30685 
257 ,48.2745 ,1.17670 ,1.31512 ,12.90391 
258 ,48.4662 ,1.17865 ,1.32196 ,12.97107 
259 ,48.6425 ,1.18034 ,1.29800 ,12.73602 
260 ,48.8504 ,1.18235 ,1.30143 ,12.76960 
261 ,49.0423 ,1.18434 ,1.26720 ,12.43381 
262 ,49.2347 ,1.18626 ,1.25694 ,12.33308 
263 ,49.4267 ,1.18811 ,1.25352 ,12.29950 
264 ,49.6185 ,1.19012 ,1.22272 ,11.99730 
265 ,49.7947 ,1.19186 ,1.22956 ,12.06445 
266 ,49.9870 ,1.19381 ,1.21929 ,11.96372 
267 ,50.1950 ,1.19578 ,1.19534 ,11.72867 
268 ,50.3871 ,1.19783 ,1.20218 ,11.79583 
269 ,50.5631 ,1.19952 ,1.16454 ,11.42647 
270 ,50.7392 ,1.20138 ,1.15770 ,11.35931 
271 ,50.9308 ,1.20317 ,1.15085 ,11.29215 
272 ,51.1231 ,1.20508 ,1.14401 ,11.22500 
273 ,51.3154 ,1.20705 ,1.13032 ,11.09068 
274 ,51.4916 ,1.20884 ,1.12690 ,11.05710 
275 ,51.6832 ,1.21076 ,1.09952 ,10.78848 
276 ,51.8598 ,1.21253 ,1.08241 ,10.62059 
277 ,52.0674 ,1.21470 ,1.07214 ,10.51985 
278 ,52.2438 ,1.21635 ,1.05845 ,10.38554 
279 ,52.4197 ,1.21812 ,1.04476 ,10.25123 
280 ,52.5959 ,1.21989 ,1.03792 ,10.18407 
281 ,52.7719 ,1.22164 ,1.04134 ,10.21765 
282 ,52.9483 ,1.22343 ,1.02765 ,10.08333 
283 ,53.1400 ,1.22532 ,0.99001 ,9.71397 
284 ,53.3321 ,1.22720 ,1.00370 ,9.84829 
285 ,53.5084 ,1.22903 ,0.98659 ,9.68039 
286 ,53.7164 ,1.23102 ,0.96948 ,9.51250 
287 ,53.9086 ,1.23296 ,0.95579 ,9.37819 
288 ,54.1003 ,1.23486 ,0.92841 ,9.10956 
289 ,54.2769 ,1.23674 ,0.92499 ,9.07598 
290 ,54.4848 ,1.23870 ,0.90788 ,8.90809 
291 ,54.6765 ,1.24064 ,0.91472 ,8.97525 
292 ,54.8525 ,1.24248 ,0.89419 ,8.77378 
293 ,55.0289 ,1.24427 ,0.88050 ,8.63947 
294 ,55.2206 ,1.24611 ,0.86339 ,8.47158 
295 ,55.3975 ,1.24794 ,0.84970 ,8.33726 
296 ,55.5893 ,1.24984 ,0.85997 ,8.43800 
297 ,55.7973 ,1.25173 ,0.83943 ,8.23653 
298 ,55.9894 ,1.25388 ,0.81206 ,7.96790 
299 ,56.1655 ,1.25560 ,0.81206 ,7.96790 
300 ,56.3413 ,1.25729 ,0.79495 ,7.80001 
301 ,56.5176 ,1.25912 ,0.78468 ,7.69927 
302 ,56.6937 ,1.26090 ,0.76757 ,7.53138 
303 ,56.9017 ,1.26290 ,0.77099 ,7.56496 
304 ,57.0778 ,1.26468 ,0.74704 ,7.32991 
305 ,57.2539 ,1.26643 ,0.75046 ,7.36349 
306 ,57.4617 ,1.26845 ,0.70597 ,6.92697 
307 ,57.6542 ,1.27036 ,0.72308 ,7.09486 
308 ,57.8619 ,1.27249 ,0.69228 ,6.79266 
309 ,58.0542 ,1.27446 ,0.69570 ,6.82624 
310 ,58.2301 ,1.27618 ,0.68544 ,6.72550 
311 ,58.4060 ,1.27799 ,0.66833 ,6.55761 
312 ,58.5983 ,1.27979 ,0.65121 ,6.38972 
313 ,58.7906 ,1.28179 ,0.64779 ,6.35614 
314 ,58.9825 ,1.28373 ,0.61699 ,6.05394 
315 ,59.1743 ,1.28562 ,0.62726 ,6.15467 
316 ,59.3507 ,1.28739 ,0.62384 ,6.12109 
317 ,59.5589 ,1.28935 ,0.59304 ,5.81889 
318 ,59.7347 ,1.29123 ,0.58277 ,5.71815 
319 ,59.9111 ,1.29300 ,0.58962 ,5.78531 
320 ,60.1027 ,1.29482 ,0.55539 ,5.44953 
321 ,60.3113 ,1.29693 ,0.55197 ,5.41595 
322 ,60.5033 ,1.29899 ,0.52459 ,5.14732 
323 ,60.6953 ,1.30077 ,0.52459 ,5.14732 
324 ,60.8872 ,1.30278 ,0.53486 ,5.24806 
325 ,61.0635 ,1.30450 ,0.49722 ,4.87870 
326 ,61.2556 ,1.30649 ,0.48695 ,4.77796 
327 ,61.4315 ,1.30824 ,0.49380 ,4.84512 
328 ,61.6233 ,1.31012 ,0.47668 ,4.67723 
329 ,61.8159 ,1.31196 ,0.45273 ,4.44218 
330 ,62.0079 ,1.31393 ,0.45957 ,4.50934 
331 ,62.1836 ,1.31575 ,0.43220 ,4.24071 
332 ,62.3600 ,1.31748 ,0.43220 ,4.24071 
333 ,62.5681 ,1.31954 ,0.41509 ,4.07282 
334 ,62.7443 ,1.32133 ,0.39113 ,3.83777 
335 ,62.9363 ,1.32326 ,0.39455 ,3.87135 
336 ,63.1120 ,1.32502 ,0.39797 ,3.90493 
337 ,63.3044 ,1.32690 ,0.37060 ,3.63630 
338 ,63.4965 ,1.32887 ,0.36718 ,3.60272 
339 ,63.6886 ,1.33073 ,0.33638 ,3.30052 
340 ,63.8810 ,1.33264 ,0.34322 ,3.36767 
341 ,64.0729 ,1.33465 ,0.33295 ,3.26694 
342 ,64.2490 ,1.33635 ,0.33295 ,3.26694 
343 ,64.4409 ,1.33827 ,0.29531 ,2.89758 
344 ,64.6170 ,1.34006 ,0.30558 ,2.99831 
345 ,64.7926 ,1.34180 ,0.31242 ,3.06547 
346 ,64.9852 ,1.34365 ,0.27478 ,2.69611 
347 ,65.1928 ,1.34573 ,0.28162 ,2.76326 
348 ,65.3694 ,1.34757 ,0.26793 ,2.62895 
349 ,65.5612 ,1.34948 ,0.22687 ,2.22601 
350 ,65.7535 ,1.35134 ,0.24740 ,2.42748 
351 ,65.9454 ,1.35330 ,0.20633 ,2.02454 
352 ,66.1371 ,1.35525 ,0.22002 ,2.15885 
353 ,66.3296 ,1.35719 ,0.20976 ,2.05812 
354 ,66.5058 ,1.35898 ,0.18922 ,1.85665 
355 ,66.6979 ,1.36082 ,0.19264 ,1.89023 
356 ,66.8900 ,1.36273 ,0.16527 ,1.62160 
357 ,67.0819 ,1.36459 ,0.15842 ,1.55445 
358 ,67.2742 ,1.36658 ,0.16185 ,1.58802 
359 ,67.4662 ,1.36853 ,0.12078 ,1.18508 
360 ,67.6583 ,1.37048 ,0.12420 ,1.21866 
361 ,67.8344 ,1.37220 ,0.12762 ,1.25224 
362 ,68.0421 ,1.37411 ,0.10025 ,0.98361 
363 ,68.2345 ,1.37615 ,0.11051 ,1.08435 
364 ,68.4265 ,1.37818 ,0.08314 ,0.81572 
365 ,68.6027 ,1.37996 ,0.06945 ,0.68141 
366 ,68.8105 ,1.38188 ,0.06260 ,0.61425 
367 ,69.0027 ,1.38391 ,0.05234 ,0.51352 
368 ,69.3386 ,1.38651 ,0.04891 ,0.47994 
369 ,69.5471 ,1.38917 ,0.03522 ,0.34563 
370 ,69.7391 ,1.39127 ,0.00785 ,0.07700 
371 ,69.9152 ,1.39304 ,0.01811 ,0.17773 
372 ,70.1392 ,1.39510 ,-0.00584 ,-0.05731 
373 ,70.3313 ,1.39713 ,-0.01953 ,-0.19163 
374 ,70.5074 ,1.39896 ,-0.03322 ,-0.32594 
375 ,70.6834 ,1.40067 ,-0.04348 ,-0.42667 
376 ,70.8597 ,1.40246 ,-0.05033 ,-0.49383 
377 ,71.0517 ,1.40430 ,-0.06060 ,-0.59457 
378 ,71.2437 ,1.40628 ,-0.07771 ,-0.76246 
379 ,71.4197 ,1.40803 ,-0.08113 ,-0.79604 
380 ,71.6120 ,1.40992 ,-0.07428 ,-0.72888 
381 ,71.8040 ,1.41183 ,-0.10166 ,-0.99751 
382 ,72.0122 ,1.41393 ,-0.09140 ,-0.89677 
383 ,72.1881 ,1.41587 ,-0.12562 ,-1.23255 
384 ,72.3643 ,1.41752 ,-0.13588 ,-1.33329 
385 ,72.5563 ,1.41941 ,-0.11877 ,-1.16540 
386 ,72.7644 ,1.42145 ,-0.15299 ,-1.50118 
387 ,72.9403 ,1.42332 ,-0.13931 ,-1.36687 
388 ,73.1165 ,1.42504 ,-0.15299 ,-1.50118 
389 ,73.2923 ,1.42673 ,-0.15642 ,-1.53476 
390 ,73.4843 ,1.42868 ,-0.17695 ,-1.73623 
391 ,73.6765 ,1.43053 ,-0.19064 ,-1.87054 
392 ,73.8688 ,1.43257 ,-0.20090 ,-1.97128 
393 ,74.0449 ,1.43428 ,-0.22144 ,-2.17275 
394 ,74.2365 ,1.43613 ,-0.19748 ,-1.93770 
395 ,74.4128 ,1.43795 ,-0.21459 ,-2.10559 
396 ,74.5888 ,1.43972 ,-0.24881 ,-2.44137 
397 ,74.7652 ,1.44152 ,-0.24539 ,-2.40779 
398 ,74.9569 ,1.44336 ,-0.24881 ,-2.44137 
399 ,75.1328 ,1.44514 ,-0.26250 ,-2.57569 
400 ,75.3094 ,1.44693 ,-0.27619 ,-2.71000 
401 ,75.5012 ,1.44877 ,-0.27961 ,-2.74358 
402 ,75.6776 ,1.45059 ,-0.27619 ,-2.71000 
403 ,75.8537 ,1.45240 ,-0.28304 ,-2.77716 
404 ,76.0614 ,1.45441 ,-0.31384 ,-3.07936 
405 ,76.2374 ,1.45620 ,-0.30699 ,-3.01220 
406 ,76.4138 ,1.45793 ,-0.31726 ,-3.11294 
407 ,76.6059 ,1.45983 ,-0.33437 ,-3.28083 
408 ,76.7980 ,1.46177 ,-0.33779 ,-3.31441 
409 ,76.9901 ,1.46369 ,-0.35832 ,-3.51588 
410 ,77.1663 ,1.46550 ,-0.37544 ,-3.68377 
411 ,77.3743 ,1.46750 ,-0.37544 ,-3.68377 
412 ,77.5820 ,1.46962 ,-0.37544 ,-3.68377 
413 ,77.7580 ,1.47142 ,-0.38228 ,-3.75093 
414 ,77.9343 ,1.47322 ,-0.39597 ,-3.88524 
415 ,78.1266 ,1.47513 ,-0.42335 ,-4.15387 
416 ,78.3345 ,1.47707 ,-0.41308 ,-4.05313 
417 ,78.5107 ,1.47889 ,-0.42335 ,-4.15387 
418 ,78.7027 ,1.48088 ,-0.44730 ,-4.38891 
419 ,78.8949 ,1.48271 ,-0.44730 ,-4.38891 
420 ,79.0867 ,1.48456 ,-0.44388 ,-4.35534 
421 ,79.2630 ,1.48650 ,-0.46441 ,-4.55681 
422 ,79.4391 ,1.48821 ,-0.45757 ,-4.48965 
423 ,79.6312 ,1.49012 ,-0.48152 ,-4.72470 
424 ,79.8232 ,1.49200 ,-0.47810 ,-4.69112 
425 ,80.0312 ,1.49407 ,-0.51574 ,-5.06048 
426 ,80.2073 ,1.49592 ,-0.52259 ,-5.12764 
427 ,80.3995 ,1.49778 ,-0.51232 ,-5.02690 
428 ,80.6073 ,1.49988 ,-0.53285 ,-5.22837 
429 ,80.7836 ,1.50165 ,-0.54654 ,-5.36268 
430 ,80.9753 ,1.50347 ,-0.53285 ,-5.22837 
431 ,81.1996 ,1.50561 ,-0.55681 ,-5.46342 
432 ,81.3760 ,1.50759 ,-0.55339 ,-5.42984 
433 ,81.5681 ,1.50945 ,-0.57734 ,-5.66489 
434 ,81.7601 ,1.51137 ,-0.57050 ,-5.59773 
435 ,81.9519 ,1.51325 ,-0.60814 ,-5.96709 
436 ,82.1278 ,1.51513 ,-0.59788 ,-5.86636 
437 ,82.3042 ,1.51686 ,-0.61841 ,-6.06783 
438 ,82.4805 ,1.51860 ,-0.61156 ,-6.00067 
439 ,82.6565 ,1.52042 ,-0.61841 ,-6.06783 
440 ,82.8325 ,1.52214 ,-0.64236 ,-6.30288 
441 ,83.0244 ,1.52401 ,-0.65263 ,-6.40361 
442 ,83.2162 ,1.52597 ,-0.63894 ,-6.26930 
443 ,83.3928 ,1.52775 ,-0.66632 ,-6.53793 
444 ,83.5848 ,1.52956 ,-0.65263 ,-6.40361 
445 ,83.7611 ,1.53142 ,-0.68001 ,-6.67224 
446 ,83.9530 ,1.53328 ,-0.68685 ,-6.73940 
447 ,84.1449 ,1.53516 ,-0.68343 ,-6.70582 
448 ,84.3372 ,1.53723 ,-0.70739 ,-6.94086 
449 ,84.5135 ,1.53898 ,-0.71765 ,-7.04160 
450 ,84.7212 ,1.54100 ,-0.71081 ,-6.97444 
451 ,84.9135 ,1.54287 ,-0.73134 ,-7.17591 
452 ,85.1216 ,1.54499 ,-0.73134 ,-7.17591 
453 ,85.3132 ,1.54693 ,-0.75872 ,-7.44454 
454 ,85.4898 ,1.54873 ,-0.76898 ,-7.54527 
455 ,85.6817 ,1.55056 ,-0.76214 ,-7.47812 
456 ,85.8742 ,1.55253 ,-0.77583 ,-7.61243 
457 ,86.0501 ,1.55431 ,-0.78267 ,-7.67959 
458 ,86.2420 ,1.55623 ,-0.78952 ,-7.74674 
459 ,86.4340 ,1.55820 ,-0.80663 ,-7.91464 
460 ,86.6102 ,1.55986 ,-0.80321 ,-7.88106 
461 ,86.7861 ,1.56168 ,-0.81005 ,-7.94821 
462 ,86.9781 ,1.56349 ,-0.81689 ,-8.01537 
463 ,87.1538 ,1.56534 ,-0.82374 ,-8.08253 
