Data stamp = , 23-04-2022 14:31:38 088

Calibration Values: 
Slope = , 26.54 , g/V 
Offset Voltage at no contact = , -0.501760 , V 

No , Time , Stage Position ,   Mass , Force 
   ,  (s) ,      (mm)      ,   (g)  , (mN)  

1 ,0.0000 ,0.69942 ,5.31221 ,52.12337 
2 ,0.2169 ,0.69951 ,5.31905 ,52.19052 
3 ,0.4733 ,0.70017 ,5.31563 ,52.15694 
4 ,0.6652 ,0.70139 ,5.32589 ,52.25768 
5 ,0.8418 ,0.70273 ,5.31905 ,52.19052 
6 ,1.0497 ,0.70466 ,5.32247 ,52.22410 
7 ,1.2418 ,0.70656 ,5.32932 ,52.29126 
8 ,1.4339 ,0.70850 ,5.30536 ,52.05621 
9 ,1.6259 ,0.71038 ,5.30878 ,52.08979 
10 ,1.8177 ,0.71238 ,5.29167 ,51.92190 
11 ,2.0101 ,0.71420 ,5.28825 ,51.88832 
12 ,2.2017 ,0.71623 ,5.26772 ,51.68685 
13 ,2.3782 ,0.71799 ,5.25061 ,51.51896 
14 ,2.5704 ,0.71983 ,5.25403 ,51.55254 
15 ,2.7460 ,0.72171 ,5.22323 ,51.25033 
16 ,2.9383 ,0.72344 ,5.20270 ,51.04886 
17 ,3.1464 ,0.72560 ,5.20612 ,51.08244 
18 ,3.3226 ,0.72738 ,5.17190 ,50.74666 
19 ,3.5146 ,0.72923 ,5.13425 ,50.37729 
20 ,3.7067 ,0.73133 ,5.13083 ,50.34372 
21 ,3.8827 ,0.73303 ,5.12399 ,50.27656 
22 ,4.0748 ,0.73496 ,5.08634 ,49.90720 
23 ,4.2349 ,0.73663 ,5.06923 ,49.73931 
24 ,4.4266 ,0.73840 ,5.06923 ,49.73931 
25 ,4.6191 ,0.74034 ,5.04185 ,49.47068 
26 ,4.8112 ,0.74232 ,5.00763 ,49.13490 
27 ,5.0032 ,0.74420 ,5.01790 ,49.23563 
28 ,5.1793 ,0.74595 ,4.98368 ,48.89985 
29 ,5.3870 ,0.74802 ,4.97341 ,48.79911 
30 ,5.5792 ,0.74988 ,4.94603 ,48.53049 
31 ,5.7876 ,0.75203 ,4.91866 ,48.26186 
32 ,5.9792 ,0.75394 ,4.90497 ,48.12755 
33 ,6.1558 ,0.75574 ,4.89470 ,48.02681 
34 ,6.3477 ,0.75758 ,4.88786 ,47.95966 
35 ,6.5238 ,0.75942 ,4.86390 ,47.72461 
36 ,6.6998 ,0.76116 ,4.84337 ,47.52314 
37 ,6.8760 ,0.76293 ,4.81941 ,47.28809 
38 ,7.0677 ,0.76477 ,4.80915 ,47.18736 
39 ,7.2441 ,0.76662 ,4.79888 ,47.08662 
40 ,7.4363 ,0.76850 ,4.75439 ,46.65010 
41 ,7.6282 ,0.77036 ,4.75782 ,46.68368 
42 ,7.8204 ,0.77237 ,4.72702 ,46.38148 
43 ,7.9965 ,0.77412 ,4.69622 ,46.07927 
44 ,8.1884 ,0.77608 ,4.68253 ,45.94496 
45 ,8.3647 ,0.77782 ,4.68253 ,45.94496 
46 ,8.5726 ,0.77985 ,4.64831 ,45.60918 
47 ,8.7648 ,0.78179 ,4.64488 ,45.57560 
48 ,8.9568 ,0.78376 ,4.62777 ,45.40771 
49 ,9.1490 ,0.78555 ,4.57644 ,44.90403 
50 ,9.3410 ,0.78753 ,4.58671 ,45.00477 
51 ,9.5171 ,0.78932 ,4.57302 ,44.87045 
52 ,9.6928 ,0.79112 ,4.53537 ,44.50109 
53 ,9.8693 ,0.79290 ,4.52169 ,44.36678 
54 ,10.0769 ,0.79494 ,4.50800 ,44.23247 
55 ,10.2534 ,0.79670 ,4.48404 ,43.99742 
56 ,10.4454 ,0.79861 ,4.47720 ,43.93026 
57 ,10.6216 ,0.80037 ,4.47720 ,43.93026 
58 ,10.7972 ,0.80220 ,4.43271 ,43.49374 
59 ,10.9735 ,0.80394 ,4.42586 ,43.42659 
60 ,11.1816 ,0.80585 ,4.42929 ,43.46016 
61 ,11.3899 ,0.80797 ,4.36769 ,42.85576 
62 ,11.5818 ,0.80998 ,4.38480 ,43.02365 
63 ,11.7740 ,0.81181 ,4.34031 ,42.58713 
64 ,11.9660 ,0.81374 ,4.34031 ,42.58713 
65 ,12.1580 ,0.81576 ,4.31978 ,42.38566 
66 ,12.3341 ,0.81747 ,4.28898 ,42.08345 
67 ,12.5103 ,0.81920 ,4.28898 ,42.08345 
68 ,12.7024 ,0.82120 ,4.26502 ,41.84841 
69 ,12.8943 ,0.82310 ,4.25476 ,41.74767 
70 ,13.0705 ,0.82489 ,4.22738 ,41.47905 
71 ,13.2785 ,0.82689 ,4.20000 ,41.21042 
72 ,13.4708 ,0.82887 ,4.19316 ,41.14326 
73 ,13.6628 ,0.83073 ,4.17605 ,40.97537 
74 ,13.8709 ,0.83279 ,4.16578 ,40.87464 
75 ,14.0469 ,0.83464 ,4.13840 ,40.60601 
76 ,14.2230 ,0.83637 ,4.11445 ,40.37096 
77 ,14.3831 ,0.83808 ,4.11103 ,40.33738 
78 ,14.5592 ,0.83974 ,4.10076 ,40.23665 
79 ,14.7513 ,0.84158 ,4.04943 ,39.73297 
80 ,14.9430 ,0.84353 ,4.05969 ,39.83371 
81 ,15.1355 ,0.84551 ,4.03916 ,39.63224 
82 ,15.3273 ,0.84741 ,4.00836 ,39.33003 
83 ,15.5035 ,0.84917 ,4.00494 ,39.29646 
84 ,15.6793 ,0.85094 ,3.99467 ,39.19572 
85 ,15.8556 ,0.85267 ,3.96387 ,38.89352 
86 ,16.0315 ,0.85448 ,3.94676 ,38.72562 
87 ,16.2237 ,0.85637 ,3.92965 ,38.55773 
88 ,16.4002 ,0.85811 ,3.93307 ,38.59131 
89 ,16.5759 ,0.85987 ,3.89543 ,38.22195 
90 ,16.7521 ,0.86166 ,3.87490 ,38.02048 
91 ,16.9441 ,0.86353 ,3.87147 ,37.98690 
92 ,17.1362 ,0.86557 ,3.83383 ,37.61754 
93 ,17.3124 ,0.86723 ,3.83383 ,37.61754 
94 ,17.5205 ,0.86927 ,3.82699 ,37.55038 
95 ,17.7126 ,0.87127 ,3.78934 ,37.18102 
96 ,17.9046 ,0.87324 ,3.78250 ,37.11387 
97 ,18.0807 ,0.87494 ,3.77223 ,37.01313 
98 ,18.2564 ,0.87671 ,3.76196 ,36.91240 
99 ,18.4329 ,0.87847 ,3.72432 ,36.54303 
100 ,18.6409 ,0.88049 ,3.72090 ,36.50946 
101 ,18.8330 ,0.88245 ,3.69010 ,36.20725 
102 ,19.0091 ,0.88424 ,3.66614 ,35.97220 
103 ,19.2011 ,0.88612 ,3.63877 ,35.70358 
104 ,19.3768 ,0.88786 ,3.63877 ,35.70358 
105 ,19.5853 ,0.88994 ,3.60454 ,35.36779 
106 ,19.7772 ,0.89192 ,3.61823 ,35.50211 
107 ,19.9533 ,0.89366 ,3.58743 ,35.19990 
108 ,20.1455 ,0.89554 ,3.56348 ,34.96485 
109 ,20.3214 ,0.89733 ,3.54979 ,34.83054 
110 ,20.5135 ,0.89920 ,3.53610 ,34.69623 
111 ,20.6898 ,0.90103 ,3.51899 ,34.52834 
112 ,20.8657 ,0.90284 ,3.49161 ,34.25971 
113 ,21.0418 ,0.90452 ,3.49161 ,34.25971 
114 ,21.2177 ,0.90631 ,3.49161 ,34.25971 
115 ,21.3940 ,0.90807 ,3.46081 ,33.95751 
116 ,21.5700 ,0.90984 ,3.43344 ,33.68888 
117 ,21.7617 ,0.91170 ,3.43001 ,33.65530 
118 ,21.9378 ,0.91351 ,3.40948 ,33.45383 
119 ,22.1139 ,0.91523 ,3.40264 ,33.38667 
120 ,22.2903 ,0.91701 ,3.38553 ,33.21878 
121 ,22.4664 ,0.91876 ,3.34788 ,32.84942 
122 ,22.6424 ,0.92059 ,3.33419 ,32.71511 
123 ,22.8346 ,0.92246 ,3.32735 ,32.64795 
124 ,23.0106 ,0.92416 ,3.29313 ,32.31217 
125 ,23.2025 ,0.92607 ,3.28971 ,32.27859 
126 ,23.3784 ,0.92789 ,3.28286 ,32.21143 
127 ,23.5547 ,0.92966 ,3.25548 ,31.94281 
128 ,23.7468 ,0.93151 ,3.24180 ,31.80849 
129 ,23.9229 ,0.93330 ,3.21784 ,31.57345 
130 ,24.1151 ,0.93514 ,3.20757 ,31.47271 
131 ,24.3069 ,0.93715 ,3.18704 ,31.27124 
132 ,24.4995 ,0.93899 ,3.18704 ,31.27124 
133 ,24.6749 ,0.94088 ,3.16651 ,31.06977 
134 ,24.8514 ,0.94266 ,3.14597 ,30.86830 
135 ,25.0434 ,0.94451 ,3.13571 ,30.76757 
136 ,25.2355 ,0.94641 ,3.11860 ,30.59968 
137 ,25.4117 ,0.94824 ,3.10491 ,30.46536 
138 ,25.6037 ,0.95006 ,3.07753 ,30.19674 
139 ,25.7792 ,0.95200 ,3.07069 ,30.12958 
140 ,25.9558 ,0.95369 ,3.06042 ,30.02884 
141 ,26.1476 ,0.95553 ,3.01935 ,29.62590 
142 ,26.3236 ,0.95732 ,3.00224 ,29.45801 
143 ,26.5000 ,0.95910 ,3.00224 ,29.45801 
144 ,26.6758 ,0.96086 ,3.00224 ,29.45801 
145 ,26.8517 ,0.96264 ,2.97487 ,29.18939 
146 ,27.0441 ,0.96448 ,2.93380 ,28.78645 
147 ,27.2202 ,0.96624 ,2.93722 ,28.82003 
148 ,27.3968 ,0.96805 ,2.93038 ,28.75287 
149 ,27.5883 ,0.97003 ,2.89616 ,28.41709 
150 ,27.7645 ,0.97175 ,2.86878 ,28.14846 
151 ,27.9401 ,0.97353 ,2.86536 ,28.11488 
152 ,28.1326 ,0.97541 ,2.86536 ,28.11488 
153 ,28.3247 ,0.97722 ,2.83114 ,27.77910 
154 ,28.5167 ,0.97923 ,2.82087 ,27.67836 
155 ,28.6931 ,0.98102 ,2.80718 ,27.54405 
156 ,28.9010 ,0.98300 ,2.78665 ,27.34258 
157 ,29.0769 ,0.98484 ,2.78322 ,27.30900 
158 ,29.2692 ,0.98681 ,2.75243 ,27.00680 
159 ,29.4451 ,0.98860 ,2.74216 ,26.90606 
160 ,29.6213 ,0.99026 ,2.71820 ,26.67101 
161 ,29.7969 ,0.99204 ,2.71136 ,26.60386 
162 ,29.9734 ,0.99379 ,2.70109 ,26.50312 
163 ,30.1652 ,0.99570 ,2.67372 ,26.23450 
164 ,30.3574 ,0.99760 ,2.67029 ,26.20092 
165 ,30.5334 ,0.99945 ,2.65660 ,26.06661 
166 ,30.7257 ,1.00127 ,2.62581 ,25.76440 
167 ,30.9174 ,1.00328 ,2.61554 ,25.66367 
168 ,31.0934 ,1.00501 ,2.61554 ,25.66367 
169 ,31.2858 ,1.00688 ,2.59501 ,25.46220 
170 ,31.4780 ,1.00882 ,2.58474 ,25.36146 
171 ,31.6700 ,1.01070 ,2.55736 ,25.09283 
172 ,31.8622 ,1.01262 ,2.54025 ,24.92494 
173 ,32.0699 ,1.01465 ,2.52998 ,24.82421 
174 ,32.2461 ,1.01654 ,2.50261 ,24.55558 
175 ,32.4383 ,1.01844 ,2.48550 ,24.38769 
176 ,32.6145 ,1.02025 ,2.49234 ,24.45485 
177 ,32.8065 ,1.02214 ,2.46154 ,24.15264 
178 ,32.9989 ,1.02405 ,2.44101 ,23.95117 
179 ,33.1746 ,1.02586 ,2.43759 ,23.91759 
180 ,33.3508 ,1.02758 ,2.42390 ,23.78328 
181 ,33.5428 ,1.02952 ,2.39652 ,23.51465 
182 ,33.7188 ,1.03122 ,2.39310 ,23.48108 
183 ,33.8950 ,1.03301 ,2.38625 ,23.41392 
184 ,34.0550 ,1.03473 ,2.37599 ,23.31318 
185 ,34.2311 ,1.03640 ,2.34861 ,23.04456 
186 ,34.3910 ,1.03810 ,2.32808 ,22.84309 
187 ,34.5673 ,1.03970 ,2.31097 ,22.67520 
188 ,34.7433 ,1.04151 ,2.29385 ,22.50731 
189 ,34.9355 ,1.04344 ,2.29385 ,22.50731 
190 ,35.1275 ,1.04534 ,2.27674 ,22.33941 
191 ,35.3194 ,1.04724 ,2.26306 ,22.20510 
192 ,35.5116 ,1.04916 ,2.24937 ,22.07079 
193 ,35.7036 ,1.05106 ,2.22199 ,21.80216 
194 ,35.8798 ,1.05291 ,2.20488 ,21.63427 
195 ,36.0719 ,1.05477 ,2.20146 ,21.60069 
196 ,36.2478 ,1.05661 ,2.19119 ,21.49996 
197 ,36.4240 ,1.05832 ,2.16381 ,21.23133 
198 ,36.5840 ,1.06002 ,2.14328 ,21.02986 
199 ,36.7761 ,1.06181 ,2.15355 ,21.13059 
200 ,36.9679 ,1.06364 ,2.15012 ,21.09702 
201 ,37.1603 ,1.06568 ,2.10906 ,20.69408 
202 ,37.3364 ,1.06744 ,2.10221 ,20.62692 
203 ,37.5443 ,1.06947 ,2.07484 ,20.35829 
204 ,37.7364 ,1.07139 ,2.08168 ,20.42545 
205 ,37.9126 ,1.07321 ,2.06457 ,20.25756 
206 ,38.1047 ,1.07505 ,2.04061 ,20.02251 
207 ,38.3127 ,1.07700 ,2.04061 ,20.02251 
208 ,38.5048 ,1.07912 ,2.02350 ,19.85462 
209 ,38.6969 ,1.08100 ,1.98586 ,19.48526 
210 ,38.8890 ,1.08285 ,1.98928 ,19.51884 
211 ,39.0811 ,1.08487 ,1.96533 ,19.28379 
212 ,39.2892 ,1.08688 ,1.95848 ,19.21663 
213 ,39.4813 ,1.08891 ,1.91742 ,18.81369 
214 ,39.6733 ,1.09076 ,1.93453 ,18.98158 
215 ,39.8495 ,1.09258 ,1.90715 ,18.71296 
216 ,40.0571 ,1.09455 ,1.89004 ,18.54507 
217 ,40.2335 ,1.09636 ,1.88319 ,18.47791 
218 ,40.4096 ,1.09815 ,1.87635 ,18.41075 
219 ,40.5856 ,1.09989 ,1.85240 ,18.17570 
220 ,40.7776 ,1.10181 ,1.83528 ,18.00781 
221 ,40.9698 ,1.10376 ,1.84213 ,18.07497 
222 ,41.1939 ,1.10582 ,1.80791 ,17.73919 
223 ,41.3859 ,1.10780 ,1.81133 ,17.77276 
224 ,41.5781 ,1.10984 ,1.76684 ,17.33625 
225 ,41.7860 ,1.11185 ,1.76342 ,17.30267 
226 ,41.9942 ,1.11391 ,1.76342 ,17.30267 
227 ,42.1864 ,1.11592 ,1.74973 ,17.16836 
228 ,42.3784 ,1.11774 ,1.71551 ,16.83257 
229 ,42.5705 ,1.11978 ,1.71551 ,16.83257 
230 ,42.7784 ,1.12175 ,1.68813 ,16.56395 
231 ,42.9701 ,1.12373 ,1.68129 ,16.49679 
232 ,43.1627 ,1.12558 ,1.66760 ,16.36248 
233 ,43.3543 ,1.12765 ,1.64707 ,16.16101 
234 ,43.5463 ,1.12940 ,1.64022 ,16.09385 
235 ,43.7384 ,1.13137 ,1.61969 ,15.89238 
236 ,43.9309 ,1.13334 ,1.60942 ,15.79164 
237 ,44.1229 ,1.13538 ,1.57862 ,15.48944 
238 ,44.3151 ,1.13710 ,1.59231 ,15.62375 
239 ,44.4911 ,1.13896 ,1.56493 ,15.35513 
240 ,44.6833 ,1.14074 ,1.55467 ,15.25439 
241 ,44.8755 ,1.14278 ,1.52729 ,14.98577 
242 ,45.0673 ,1.14466 ,1.53071 ,15.01934 
243 ,45.2756 ,1.14672 ,1.51018 ,14.81787 
244 ,45.4676 ,1.14871 ,1.49991 ,14.71714 
245 ,45.6757 ,1.15067 ,1.48280 ,14.54925 
246 ,45.8678 ,1.15271 ,1.47596 ,14.48209 
247 ,46.0598 ,1.15466 ,1.44174 ,14.14631 
248 ,46.2356 ,1.15637 ,1.43831 ,14.11273 
249 ,46.4120 ,1.15817 ,1.43831 ,14.11273 
250 ,46.6041 ,1.16007 ,1.41436 ,13.87768 
251 ,46.7963 ,1.16193 ,1.41094 ,13.84410 
252 ,46.9721 ,1.16379 ,1.38014 ,13.54190 
253 ,47.1643 ,1.16562 ,1.38014 ,13.54190 
254 ,47.3724 ,1.16765 ,1.36303 ,13.37401 
255 ,47.5644 ,1.16960 ,1.32880 ,13.03822 
256 ,47.7404 ,1.17144 ,1.31854 ,12.93749 
257 ,47.9165 ,1.17317 ,1.30827 ,12.83675 
258 ,48.1087 ,1.17515 ,1.31854 ,12.93749 
259 ,48.3007 ,1.17693 ,1.27747 ,12.53455 
260 ,48.4770 ,1.17884 ,1.29116 ,12.66886 
261 ,48.6687 ,1.18066 ,1.28089 ,12.56813 
262 ,48.8450 ,1.18247 ,1.27405 ,12.50097 
263 ,49.0211 ,1.18425 ,1.23641 ,12.13161 
264 ,49.2292 ,1.18620 ,1.21929 ,11.96372 
265 ,49.4049 ,1.18804 ,1.23641 ,12.13161 
266 ,49.5975 ,1.18995 ,1.19534 ,11.72867 
267 ,49.8052 ,1.19197 ,1.18507 ,11.62794 
268 ,49.9815 ,1.19387 ,1.17481 ,11.52720 
269 ,50.1575 ,1.19555 ,1.15427 ,11.32573 
270 ,50.3496 ,1.19743 ,1.16112 ,11.39289 
271 ,50.5412 ,1.19942 ,1.12690 ,11.05710 
272 ,50.7175 ,1.20117 ,1.13374 ,11.12426 
273 ,50.8941 ,1.20295 ,1.12005 ,10.98995 
274 ,51.1017 ,1.20499 ,1.09267 ,10.72132 
275 ,51.2780 ,1.20677 ,1.08241 ,10.62059 
276 ,51.4701 ,1.20865 ,1.09267 ,10.72132 
277 ,51.6621 ,1.21060 ,1.06187 ,10.41912 
278 ,51.8382 ,1.21238 ,1.03792 ,10.18407 
279 ,52.0462 ,1.21439 ,1.04134 ,10.21765 
280 ,52.2542 ,1.21637 ,1.01396 ,9.94902 
281 ,52.4305 ,1.21833 ,1.01739 ,9.98260 
282 ,52.6221 ,1.22024 ,0.98659 ,9.68039 
283 ,52.7821 ,1.22199 ,0.99685 ,9.78113 
284 ,52.9421 ,1.22355 ,0.96948 ,9.51250 
285 ,53.1185 ,1.22515 ,0.96948 ,9.51250 
286 ,53.2944 ,1.22694 ,0.94210 ,9.24388 
287 ,53.4705 ,1.22871 ,0.94894 ,9.31103 
288 ,53.6465 ,1.23043 ,0.94210 ,9.24388 
289 ,53.8227 ,1.23222 ,0.92841 ,9.10956 
290 ,53.9826 ,1.23395 ,0.90788 ,8.90809 
291 ,54.1427 ,1.23553 ,0.89077 ,8.74020 
292 ,54.3188 ,1.23717 ,0.88734 ,8.70662 
293 ,54.4949 ,1.23891 ,0.87366 ,8.57231 
294 ,54.6709 ,1.24070 ,0.86681 ,8.50515 
295 ,54.8470 ,1.24245 ,0.87023 ,8.53873 
296 ,55.0230 ,1.24426 ,0.84628 ,8.30368 
297 ,55.1831 ,1.24596 ,0.82917 ,8.13579 
298 ,55.3752 ,1.24777 ,0.81548 ,8.00148 
299 ,55.5513 ,1.24949 ,0.80179 ,7.86717 
300 ,55.7274 ,1.25124 ,0.79837 ,7.83359 
301 ,55.9034 ,1.25300 ,0.79495 ,7.80001 
302 ,56.0795 ,1.25478 ,0.78126 ,7.66570 
303 ,56.2555 ,1.25654 ,0.76415 ,7.49780 
304 ,56.4317 ,1.25828 ,0.75046 ,7.36349 
305 ,56.6077 ,1.26004 ,0.74361 ,7.29633 
306 ,56.7838 ,1.26184 ,0.75046 ,7.36349 
307 ,56.9599 ,1.26357 ,0.71966 ,7.06129 
308 ,57.1358 ,1.26530 ,0.70597 ,6.92697 
309 ,57.3121 ,1.26708 ,0.69228 ,6.79266 
310 ,57.4724 ,1.26880 ,0.69913 ,6.85982 
311 ,57.6486 ,1.27048 ,0.69228 ,6.79266 
312 ,57.8404 ,1.27237 ,0.67859 ,6.65835 
313 ,58.0323 ,1.27430 ,0.64437 ,6.32256 
314 ,58.2086 ,1.27606 ,0.65121 ,6.38972 
315 ,58.4165 ,1.27825 ,0.63410 ,6.22183 
316 ,58.5930 ,1.27989 ,0.61015 ,5.98678 
317 ,58.7851 ,1.28183 ,0.61699 ,6.05394 
318 ,58.9770 ,1.28365 ,0.58277 ,5.71815 
319 ,59.1692 ,1.28562 ,0.58619 ,5.75173 
320 ,59.3772 ,1.28768 ,0.56566 ,5.55026 
321 ,59.5853 ,1.28975 ,0.55882 ,5.48311 
322 ,59.7614 ,1.29163 ,0.55197 ,5.41595 
323 ,59.9373 ,1.29333 ,0.53486 ,5.24806 
324 ,60.1294 ,1.29527 ,0.54171 ,5.31522 
325 ,60.3217 ,1.29721 ,0.51433 ,5.04659 
326 ,60.5298 ,1.29919 ,0.51433 ,5.04659 
327 ,60.7219 ,1.30110 ,0.49380 ,4.84512 
328 ,60.9140 ,1.30306 ,0.50064 ,4.91228 
329 ,61.1062 ,1.30502 ,0.47668 ,4.67723 
330 ,61.2820 ,1.30680 ,0.46642 ,4.57649 
331 ,61.4581 ,1.30856 ,0.44588 ,4.37502 
332 ,61.6502 ,1.31046 ,0.43904 ,4.30787 
333 ,61.8263 ,1.31231 ,0.42193 ,4.13997 
334 ,62.0183 ,1.31413 ,0.40824 ,4.00566 
335 ,62.1946 ,1.31590 ,0.39797 ,3.90493 
336 ,62.3866 ,1.31782 ,0.40824 ,4.00566 
337 ,62.5784 ,1.31976 ,0.37744 ,3.70346 
338 ,62.7702 ,1.32170 ,0.37744 ,3.70346 
339 ,62.9464 ,1.32340 ,0.37402 ,3.66988 
340 ,63.1227 ,1.32520 ,0.35691 ,3.50199 
341 ,63.2989 ,1.32692 ,0.34322 ,3.36767 
342 ,63.5068 ,1.32904 ,0.33980 ,3.33410 
343 ,63.6989 ,1.33097 ,0.31926 ,3.13263 
344 ,63.8751 ,1.33270 ,0.30215 ,2.96473 
345 ,64.0512 ,1.33451 ,0.29189 ,2.86400 
346 ,64.2272 ,1.33616 ,0.30558 ,2.99831 
347 ,64.4036 ,1.33796 ,0.29531 ,2.89758 
348 ,64.5956 ,1.33987 ,0.26451 ,2.59537 
349 ,64.7874 ,1.34180 ,0.25767 ,2.52822 
350 ,64.9636 ,1.34358 ,0.25424 ,2.49464 
351 ,65.1715 ,1.34556 ,0.22687 ,2.22601 
352 ,65.3476 ,1.34748 ,0.22687 ,2.22601 
353 ,65.5236 ,1.34916 ,0.22687 ,2.22601 
354 ,65.7000 ,1.35098 ,0.23371 ,2.29317 
355 ,65.8923 ,1.35282 ,0.19607 ,1.92381 
356 ,66.0999 ,1.35475 ,0.19949 ,1.95738 
357 ,66.2760 ,1.35666 ,0.17211 ,1.68876 
358 ,66.4521 ,1.35849 ,0.15500 ,1.52087 
359 ,66.6278 ,1.36019 ,0.15842 ,1.55445 
360 ,66.8202 ,1.36207 ,0.14131 ,1.38655 
361 ,66.9965 ,1.36395 ,0.13789 ,1.35298 
362 ,67.1882 ,1.36588 ,0.12420 ,1.21866 
363 ,67.3967 ,1.36790 ,0.10709 ,1.05077 
364 ,67.5884 ,1.36985 ,0.10709 ,1.05077 
365 ,67.7648 ,1.37157 ,0.09682 ,0.95004 
366 ,67.9566 ,1.37348 ,0.07971 ,0.78214 
367 ,68.1329 ,1.37528 ,0.06945 ,0.68141 
368 ,68.3407 ,1.37733 ,0.06945 ,0.68141 
369 ,68.5171 ,1.37915 ,0.05234 ,0.51352 
370 ,68.7249 ,1.38106 ,0.04549 ,0.44636 
371 ,68.9332 ,1.38331 ,0.02154 ,0.21131 
372 ,69.1249 ,1.38517 ,0.03522 ,0.34563 
373 ,69.3012 ,1.38697 ,0.02496 ,0.24489 
374 ,69.5090 ,1.38895 ,0.00100 ,0.00984 
375 ,69.6855 ,1.39077 ,0.00785 ,0.07700 
376 ,69.8772 ,1.39269 ,-0.01611 ,-0.15805 
377 ,70.0697 ,1.39453 ,-0.04006 ,-0.39310 
378 ,70.2454 ,1.39646 ,-0.04006 ,-0.39310 
379 ,70.4218 ,1.39816 ,-0.04348 ,-0.42667 
380 ,70.6138 ,1.40007 ,-0.06402 ,-0.62814 
381 ,70.7900 ,1.40185 ,-0.08797 ,-0.86319 
382 ,70.9657 ,1.40361 ,-0.07771 ,-0.76246 
383 ,71.1421 ,1.40533 ,-0.07771 ,-0.76246 
384 ,71.3181 ,1.40712 ,-0.09140 ,-0.89677 
385 ,71.4942 ,1.40892 ,-0.10851 ,-1.06466 
386 ,71.6700 ,1.41064 ,-0.11535 ,-1.13182 
387 ,71.8623 ,1.41255 ,-0.12562 ,-1.23255 
388 ,72.0379 ,1.41427 ,-0.13246 ,-1.29971 
389 ,72.2141 ,1.41602 ,-0.15642 ,-1.53476 
390 ,72.3905 ,1.41782 ,-0.15984 ,-1.56834 
391 ,72.5666 ,1.41957 ,-0.15299 ,-1.50118 
392 ,72.7747 ,1.42161 ,-0.17695 ,-1.73623 
393 ,72.9666 ,1.42358 ,-0.18379 ,-1.80338 
394 ,73.1429 ,1.42537 ,-0.18379 ,-1.80338 
395 ,73.3348 ,1.42730 ,-0.20433 ,-2.00485 
396 ,73.5266 ,1.42918 ,-0.21117 ,-2.07201 
397 ,73.7032 ,1.43096 ,-0.21459 ,-2.10559 
398 ,73.8952 ,1.43281 ,-0.24197 ,-2.37422 
399 ,74.0871 ,1.43477 ,-0.24539 ,-2.40779 
400 ,74.2794 ,1.43674 ,-0.23513 ,-2.30706 
401 ,74.4712 ,1.43865 ,-0.26593 ,-2.60926 
402 ,74.6635 ,1.44058 ,-0.25224 ,-2.47495 
403 ,74.8556 ,1.44243 ,-0.28646 ,-2.81073 
404 ,75.0473 ,1.44429 ,-0.28646 ,-2.81073 
405 ,75.2234 ,1.44614 ,-0.29330 ,-2.87789 
406 ,75.4158 ,1.44801 ,-0.31041 ,-3.04578 
407 ,75.6078 ,1.44998 ,-0.32068 ,-3.14652 
408 ,75.7839 ,1.45173 ,-0.32410 ,-3.18010 
409 ,75.9921 ,1.45366 ,-0.34121 ,-3.34799 
410 ,76.1680 ,1.45559 ,-0.34806 ,-3.41514 
411 ,76.3761 ,1.45761 ,-0.35832 ,-3.51588 
412 ,76.5681 ,1.45961 ,-0.38570 ,-3.78450 
413 ,76.7443 ,1.46136 ,-0.37544 ,-3.68377 
414 ,76.9364 ,1.46323 ,-0.37886 ,-3.71735 
415 ,77.1284 ,1.46509 ,-0.39939 ,-3.91882 
416 ,77.3205 ,1.46700 ,-0.40281 ,-3.95240 
417 ,77.4966 ,1.46882 ,-0.39939 ,-3.91882 
418 ,77.7048 ,1.47097 ,-0.41308 ,-4.05313 
419 ,77.8968 ,1.47282 ,-0.42335 ,-4.15387 
420 ,78.0889 ,1.47483 ,-0.43703 ,-4.28818 
421 ,78.2810 ,1.47665 ,-0.43019 ,-4.22102 
422 ,78.4727 ,1.47857 ,-0.47126 ,-4.62396 
423 ,78.6489 ,1.48043 ,-0.47468 ,-4.65754 
424 ,78.8412 ,1.48233 ,-0.47126 ,-4.62396 
425 ,79.0171 ,1.48407 ,-0.46783 ,-4.59038 
426 ,79.2094 ,1.48598 ,-0.50548 ,-4.95975 
427 ,79.4174 ,1.48802 ,-0.49521 ,-4.85901 
428 ,79.5929 ,1.48987 ,-0.52259 ,-5.12764 
429 ,79.7696 ,1.49160 ,-0.53285 ,-5.22837 
430 ,79.9616 ,1.49354 ,-0.52601 ,-5.16121 
431 ,80.1376 ,1.49528 ,-0.52259 ,-5.12764 
432 ,80.3137 ,1.49703 ,-0.54312 ,-5.32911 
433 ,80.5219 ,1.49908 ,-0.54312 ,-5.32911 
434 ,80.7141 ,1.50095 ,-0.57734 ,-5.66489 
435 ,80.9221 ,1.50308 ,-0.56708 ,-5.56415 
436 ,81.1143 ,1.50496 ,-0.59788 ,-5.86636 
437 ,81.3221 ,1.50700 ,-0.58761 ,-5.76562 
438 ,81.5144 ,1.50902 ,-0.58761 ,-5.76562 
439 ,81.6901 ,1.51083 ,-0.61499 ,-6.03425 
440 ,81.8659 ,1.51252 ,-0.63210 ,-6.20214 
441 ,82.0422 ,1.51427 ,-0.62525 ,-6.13499 
442 ,82.2022 ,1.51602 ,-0.63552 ,-6.23572 
443 ,82.3784 ,1.51769 ,-0.63210 ,-6.20214 
444 ,82.5548 ,1.51940 ,-0.64579 ,-6.33646 
445 ,82.7626 ,1.52143 ,-0.65605 ,-6.43719 
446 ,82.9549 ,1.52338 ,-0.66290 ,-6.50435 
447 ,83.1470 ,1.52535 ,-0.68685 ,-6.73940 
448 ,83.3232 ,1.52711 ,-0.69712 ,-6.84013 
449 ,83.5152 ,1.52898 ,-0.69712 ,-6.84013 
450 ,83.7073 ,1.53096 ,-0.72107 ,-7.07518 
451 ,83.9154 ,1.53294 ,-0.71081 ,-6.97444 
452 ,84.0915 ,1.53481 ,-0.71765 ,-7.04160 
453 ,84.2996 ,1.53680 ,-0.72450 ,-7.10876 
454 ,84.4756 ,1.53867 ,-0.73134 ,-7.17591 
455 ,84.6675 ,1.54049 ,-0.75530 ,-7.41096 
456 ,84.8758 ,1.54258 ,-0.75530 ,-7.41096 
457 ,85.0675 ,1.54447 ,-0.78610 ,-7.71317 
458 ,85.2595 ,1.54641 ,-0.77583 ,-7.61243 
459 ,85.4359 ,1.54823 ,-0.77241 ,-7.57885 
460 ,85.6439 ,1.55027 ,-0.78610 ,-7.71317 
461 ,85.8202 ,1.55205 ,-0.79636 ,-7.81390 
462 ,85.9959 ,1.55389 ,-0.81689 ,-8.01537 
463 ,86.1880 ,1.55569 ,-0.83743 ,-8.21684 
