Data stamp = , 23-04-2022 04:59:13 700

Calibration Values: 
Slope = , 26.54 , g/V 
Offset Voltage at no contact = , -0.501760 , V 

No , Time , Stage Position ,   Mass , Force 
   ,  (s) ,      (mm)      ,   (g)  , (mN)  

1 ,0.0000 ,0.69939 ,5.33274 ,52.32484 
2 ,0.2173 ,0.69948 ,5.35327 ,52.52631 
3 ,0.5377 ,0.70033 ,5.32589 ,52.25768 
4 ,0.7295 ,0.70170 ,5.34643 ,52.45915 
5 ,0.9057 ,0.70323 ,5.32247 ,52.22410 
6 ,1.0980 ,0.70509 ,5.35327 ,52.52631 
7 ,1.2898 ,0.70694 ,5.33274 ,52.32484 
8 ,1.4981 ,0.70888 ,5.36012 ,52.59346 
9 ,1.6902 ,0.71100 ,5.31563 ,52.15694 
10 ,1.8663 ,0.71279 ,5.30194 ,52.02263 
11 ,2.0424 ,0.71464 ,5.30536 ,52.05621 
12 ,2.2182 ,0.71633 ,5.29510 ,51.95548 
13 ,2.3946 ,0.71808 ,5.28141 ,51.82116 
14 ,2.5705 ,0.71984 ,5.24718 ,51.48538 
15 ,2.7627 ,0.72171 ,5.23007 ,51.31749 
16 ,2.9549 ,0.72373 ,5.19585 ,50.98170 
17 ,3.1464 ,0.72557 ,5.18559 ,50.88097 
18 ,3.3228 ,0.72735 ,5.16163 ,50.64592 
19 ,3.4988 ,0.72908 ,5.16163 ,50.64592 
20 ,3.6750 ,0.73086 ,5.14110 ,50.44445 
21 ,3.8671 ,0.73273 ,5.12056 ,50.24298 
22 ,4.0592 ,0.73472 ,5.10003 ,50.04151 
23 ,4.2671 ,0.73672 ,5.07265 ,49.77289 
24 ,4.4433 ,0.73859 ,5.05554 ,49.60499 
25 ,4.6194 ,0.74034 ,5.04528 ,49.50426 
26 ,4.8113 ,0.74216 ,5.01106 ,49.16848 
27 ,4.9873 ,0.74401 ,5.00421 ,49.10132 
28 ,5.1795 ,0.74586 ,4.98710 ,48.93343 
29 ,5.3717 ,0.74780 ,4.96999 ,48.76554 
30 ,5.5477 ,0.74961 ,4.94603 ,48.53049 
31 ,5.7237 ,0.75133 ,4.93235 ,48.39618 
32 ,5.8999 ,0.75313 ,4.90497 ,48.12755 
33 ,6.0756 ,0.75484 ,4.90839 ,48.16113 
34 ,6.2523 ,0.75663 ,4.88101 ,47.89250 
35 ,6.4600 ,0.75867 ,4.85706 ,47.65745 
36 ,6.6362 ,0.76049 ,4.84337 ,47.52314 
37 ,6.8283 ,0.76230 ,4.81941 ,47.28809 
38 ,7.0202 ,0.76431 ,4.79888 ,47.08662 
39 ,7.1959 ,0.76605 ,4.79888 ,47.08662 
40 ,7.3722 ,0.76784 ,4.76808 ,46.78442 
41 ,7.5645 ,0.76974 ,4.73386 ,46.44863 
42 ,7.7725 ,0.77182 ,4.73386 ,46.44863 
43 ,7.9646 ,0.77366 ,4.70648 ,46.18001 
44 ,8.1408 ,0.77555 ,4.69622 ,46.07927 
45 ,8.3329 ,0.77739 ,4.67568 ,45.87780 
46 ,8.5248 ,0.77934 ,4.63804 ,45.50844 
47 ,8.7171 ,0.78121 ,4.64146 ,45.54202 
48 ,8.9091 ,0.78319 ,4.60724 ,45.20624 
49 ,9.1012 ,0.78501 ,4.60724 ,45.20624 
50 ,9.2929 ,0.78695 ,4.58671 ,45.00477 
51 ,9.4694 ,0.78879 ,4.57302 ,44.87045 
52 ,9.6613 ,0.79071 ,4.54222 ,44.56825 
53 ,9.8375 ,0.79249 ,4.53195 ,44.46751 
54 ,10.0136 ,0.79422 ,4.52169 ,44.36678 
55 ,10.1895 ,0.79593 ,4.47720 ,43.93026 
56 ,10.3653 ,0.79775 ,4.45324 ,43.69521 
57 ,10.5578 ,0.79956 ,4.46351 ,43.79595 
58 ,10.7659 ,0.80171 ,4.41902 ,43.35943 
59 ,10.9579 ,0.80359 ,4.42929 ,43.46016 
60 ,11.1340 ,0.80540 ,4.40875 ,43.25870 
61 ,11.3261 ,0.80727 ,4.37453 ,42.92291 
62 ,11.5342 ,0.80935 ,4.37453 ,42.92291 
63 ,11.7264 ,0.81129 ,4.33347 ,42.51997 
64 ,11.9182 ,0.81316 ,4.34031 ,42.58713 
65 ,12.0943 ,0.81505 ,4.31636 ,42.35208 
66 ,12.2704 ,0.81683 ,4.28898 ,42.08345 
67 ,12.4465 ,0.81853 ,4.26160 ,41.81483 
68 ,12.6547 ,0.82055 ,4.26845 ,41.88198 
69 ,12.8627 ,0.82266 ,4.23765 ,41.57978 
70 ,13.0388 ,0.82448 ,4.21711 ,41.37831 
71 ,13.2470 ,0.82646 ,4.17947 ,41.00895 
72 ,13.4229 ,0.82830 ,4.17605 ,40.97537 
73 ,13.5986 ,0.83006 ,4.16236 ,40.84106 
74 ,13.7751 ,0.83180 ,4.15894 ,40.80748 
75 ,13.9511 ,0.83359 ,4.14183 ,40.63959 
76 ,14.1274 ,0.83535 ,4.11445 ,40.37096 
77 ,14.3193 ,0.83721 ,4.09734 ,40.20307 
78 ,14.5114 ,0.83916 ,4.07338 ,39.96802 
79 ,14.7034 ,0.84104 ,4.05627 ,39.80013 
80 ,14.8793 ,0.84285 ,4.03916 ,39.63224 
81 ,15.0552 ,0.84462 ,4.02547 ,39.49793 
82 ,15.2318 ,0.84639 ,4.01863 ,39.43077 
83 ,15.4235 ,0.84828 ,3.98098 ,39.06141 
84 ,15.6000 ,0.85006 ,3.97756 ,39.02783 
85 ,15.7918 ,0.85200 ,3.94676 ,38.72562 
86 ,15.9681 ,0.85378 ,3.95018 ,38.75920 
87 ,16.1600 ,0.85561 ,3.91596 ,38.42342 
88 ,16.3521 ,0.85757 ,3.91596 ,38.42342 
89 ,16.5281 ,0.85932 ,3.89201 ,38.18837 
90 ,16.7201 ,0.86124 ,3.85436 ,37.81901 
91 ,16.8960 ,0.86305 ,3.84752 ,37.75185 
92 ,17.0885 ,0.86497 ,3.84752 ,37.75185 
93 ,17.2805 ,0.86682 ,3.82356 ,37.51681 
94 ,17.4567 ,0.86865 ,3.78934 ,37.18102 
95 ,17.6327 ,0.87035 ,3.79276 ,37.21460 
96 ,17.8244 ,0.87222 ,3.74828 ,36.77808 
97 ,18.0009 ,0.87404 ,3.73117 ,36.61019 
98 ,18.2088 ,0.87608 ,3.74143 ,36.71093 
99 ,18.4171 ,0.87809 ,3.71405 ,36.44230 
100 ,18.6091 ,0.88022 ,3.70037 ,36.30799 
101 ,18.8011 ,0.88203 ,3.67299 ,36.03936 
102 ,18.9767 ,0.88382 ,3.65246 ,35.83789 
103 ,19.1535 ,0.88560 ,3.63877 ,35.70358 
104 ,19.3451 ,0.88752 ,3.61823 ,35.50211 
105 ,19.5374 ,0.88943 ,3.59770 ,35.30064 
106 ,19.7293 ,0.89130 ,3.59770 ,35.30064 
107 ,19.9054 ,0.89312 ,3.56348 ,34.96485 
108 ,20.1135 ,0.89510 ,3.57032 ,35.03201 
109 ,20.3057 ,0.89708 ,3.53610 ,34.69623 
110 ,20.4977 ,0.89892 ,3.50188 ,34.36045 
111 ,20.7057 ,0.90106 ,3.50188 ,34.36045 
112 ,20.9137 ,0.90313 ,3.49846 ,34.32687 
113 ,21.0896 ,0.90492 ,3.47450 ,34.09182 
114 ,21.2659 ,0.90670 ,3.45739 ,33.92393 
115 ,21.4582 ,0.90867 ,3.42659 ,33.62172 
116 ,21.6340 ,0.91037 ,3.41633 ,33.52099 
117 ,21.8263 ,0.91226 ,3.39921 ,33.35310 
118 ,21.9862 ,0.91399 ,3.37526 ,33.11805 
119 ,22.1621 ,0.91569 ,3.37526 ,33.11805 
120 ,22.3386 ,0.91746 ,3.35130 ,32.88300 
121 ,22.5306 ,0.91940 ,3.34788 ,32.84942 
122 ,22.7228 ,0.92123 ,3.31366 ,32.51364 
123 ,22.9307 ,0.92322 ,3.30682 ,32.44648 
124 ,23.1070 ,0.92515 ,3.29655 ,32.34575 
125 ,23.2986 ,0.92690 ,3.26575 ,32.04354 
126 ,23.4748 ,0.92877 ,3.25548 ,31.94281 
127 ,23.6511 ,0.93062 ,3.23495 ,31.74134 
128 ,23.8272 ,0.93231 ,3.22468 ,31.64060 
129 ,24.0353 ,0.93432 ,3.20757 ,31.47271 
130 ,24.2272 ,0.93635 ,3.20415 ,31.43913 
131 ,24.4030 ,0.93805 ,3.17677 ,31.17051 
132 ,24.5795 ,0.93980 ,3.14597 ,30.86830 
133 ,24.7554 ,0.94157 ,3.14597 ,30.86830 
134 ,24.9477 ,0.94342 ,3.14255 ,30.83472 
135 ,25.1555 ,0.94549 ,3.10833 ,30.49894 
136 ,25.3316 ,0.94734 ,3.09464 ,30.36463 
137 ,25.5077 ,0.94910 ,3.08438 ,30.26389 
138 ,25.6840 ,0.95085 ,3.06042 ,30.02884 
139 ,25.8920 ,0.95276 ,3.04331 ,29.86095 
140 ,26.0839 ,0.95486 ,3.03989 ,29.82737 
141 ,26.2600 ,0.95662 ,2.99882 ,29.42444 
142 ,26.4358 ,0.95842 ,2.99198 ,29.35728 
143 ,26.6124 ,0.96014 ,2.98171 ,29.25654 
144 ,26.7883 ,0.96191 ,2.97487 ,29.18939 
145 ,26.9803 ,0.96381 ,2.94749 ,28.92076 
146 ,27.1726 ,0.96567 ,2.94407 ,28.88718 
147 ,27.3647 ,0.96763 ,2.92011 ,28.65213 
148 ,27.5568 ,0.96960 ,2.90985 ,28.55140 
149 ,27.7328 ,0.97132 ,2.88931 ,28.34993 
150 ,27.9089 ,0.97309 ,2.88589 ,28.31635 
151 ,28.1008 ,0.97500 ,2.85509 ,28.01415 
152 ,28.2770 ,0.97678 ,2.83114 ,27.77910 
153 ,28.4530 ,0.97853 ,2.81745 ,27.64479 
154 ,28.6288 ,0.98035 ,2.82087 ,27.67836 
155 ,28.8054 ,0.98201 ,2.80376 ,27.51047 
156 ,28.9812 ,0.98395 ,2.75927 ,27.07395 
157 ,29.1574 ,0.98561 ,2.76611 ,27.14111 
158 ,29.3333 ,0.98733 ,2.74216 ,26.90606 
159 ,29.5096 ,0.98913 ,2.74900 ,26.97322 
160 ,29.7011 ,0.99092 ,2.71478 ,26.63744 
161 ,29.8772 ,0.99284 ,2.69425 ,26.43597 
162 ,30.0533 ,0.99452 ,2.68398 ,26.33523 
163 ,30.2297 ,0.99633 ,2.67714 ,26.26807 
164 ,30.4380 ,0.99844 ,2.64976 ,25.99945 
165 ,30.6462 ,1.00047 ,2.65318 ,26.03303 
166 ,30.8380 ,1.00240 ,2.62238 ,25.73082 
167 ,31.0460 ,1.00445 ,2.60869 ,25.59651 
168 ,31.2223 ,1.00625 ,2.59843 ,25.49577 
169 ,31.4143 ,1.00819 ,2.58816 ,25.39504 
170 ,31.5904 ,1.00993 ,2.56078 ,25.12641 
171 ,31.7664 ,1.01168 ,2.55736 ,25.09283 
172 ,31.9584 ,1.01353 ,2.52998 ,24.82421 
173 ,32.1509 ,1.01551 ,2.51972 ,24.72347 
174 ,32.3269 ,1.01730 ,2.50261 ,24.55558 
175 ,32.5030 ,1.01912 ,2.47865 ,24.32053 
176 ,32.6789 ,1.02077 ,2.47523 ,24.28696 
177 ,32.8549 ,1.02252 ,2.45812 ,24.11906 
178 ,33.0472 ,1.02443 ,2.45127 ,24.05191 
179 ,33.2389 ,1.02643 ,2.42732 ,23.81686 
180 ,33.4313 ,1.02832 ,2.41021 ,23.64897 
181 ,33.6388 ,1.03027 ,2.38968 ,23.44750 
182 ,33.8154 ,1.03212 ,2.37599 ,23.31318 
183 ,33.9911 ,1.03402 ,2.36572 ,23.21245 
184 ,34.1675 ,1.03564 ,2.35888 ,23.14529 
185 ,34.3595 ,1.03753 ,2.33492 ,22.91024 
186 ,34.5356 ,1.03937 ,2.31097 ,22.67520 
187 ,34.7277 ,1.04128 ,2.32465 ,22.80951 
188 ,34.9037 ,1.04310 ,2.29728 ,22.54088 
189 ,35.0799 ,1.04476 ,2.29043 ,22.47373 
190 ,35.2559 ,1.04653 ,2.27332 ,22.30584 
191 ,35.4481 ,1.04841 ,2.25963 ,22.17152 
192 ,35.6399 ,1.05033 ,2.22541 ,21.83574 
193 ,35.8161 ,1.05221 ,2.21515 ,21.73500 
194 ,36.0082 ,1.05408 ,2.20146 ,21.60069 
195 ,36.2002 ,1.05593 ,2.19461 ,21.53353 
196 ,36.3924 ,1.05794 ,2.17066 ,21.29849 
197 ,36.5685 ,1.05969 ,2.16723 ,21.26491 
198 ,36.7606 ,1.06152 ,2.15355 ,21.13059 
199 ,36.9527 ,1.06349 ,2.12959 ,20.89555 
200 ,37.1283 ,1.06531 ,2.11590 ,20.76123 
201 ,37.3047 ,1.06702 ,2.11248 ,20.72766 
202 ,37.5124 ,1.06906 ,2.09879 ,20.59334 
203 ,37.7048 ,1.07092 ,2.07141 ,20.32472 
204 ,37.8970 ,1.07292 ,2.06799 ,20.29114 
205 ,38.0730 ,1.07469 ,2.04404 ,20.05609 
206 ,38.2487 ,1.07645 ,2.03719 ,19.98893 
207 ,38.4251 ,1.07821 ,2.03719 ,19.98893 
208 ,38.6331 ,1.08024 ,2.00639 ,19.68673 
209 ,38.8090 ,1.08205 ,1.98928 ,19.51884 
210 ,38.9851 ,1.08384 ,1.99270 ,19.55241 
211 ,39.1775 ,1.08572 ,1.96875 ,19.31737 
212 ,39.3695 ,1.08767 ,1.95506 ,19.18305 
213 ,39.5615 ,1.08955 ,1.94479 ,19.08232 
214 ,39.7534 ,1.09149 ,1.91399 ,18.78011 
215 ,39.9299 ,1.09327 ,1.90715 ,18.71296 
216 ,40.1215 ,1.09512 ,1.90715 ,18.71296 
217 ,40.2980 ,1.09691 ,1.89004 ,18.54507 
218 ,40.4897 ,1.09879 ,1.85240 ,18.17570 
219 ,40.6982 ,1.10094 ,1.85924 ,18.24286 
220 ,40.8903 ,1.10277 ,1.83528 ,18.00781 
221 ,41.0820 ,1.10474 ,1.82844 ,17.94066 
222 ,41.2584 ,1.10649 ,1.80791 ,17.73919 
223 ,41.4341 ,1.10825 ,1.79422 ,17.60487 
224 ,41.6105 ,1.11010 ,1.78053 ,17.47056 
225 ,41.8026 ,1.11206 ,1.78053 ,17.47056 
226 ,41.9787 ,1.11373 ,1.77026 ,17.36983 
227 ,42.1707 ,1.11570 ,1.73604 ,17.03404 
228 ,42.3467 ,1.11745 ,1.73262 ,17.00046 
229 ,42.5224 ,1.11914 ,1.73262 ,17.00046 
230 ,42.7150 ,1.12101 ,1.69840 ,16.66468 
231 ,42.9068 ,1.12306 ,1.68471 ,16.53037 
232 ,43.0831 ,1.12487 ,1.69155 ,16.59752 
233 ,43.2591 ,1.12656 ,1.67444 ,16.42963 
234 ,43.4351 ,1.12825 ,1.66075 ,16.29532 
235 ,43.6273 ,1.13015 ,1.64364 ,16.12743 
236 ,43.8034 ,1.13197 ,1.64022 ,16.09385 
237 ,43.9955 ,1.13386 ,1.60942 ,15.79164 
238 ,44.1876 ,1.13584 ,1.60258 ,15.72449 
239 ,44.3956 ,1.13780 ,1.59916 ,15.69091 
240 ,44.6038 ,1.13988 ,1.57520 ,15.45586 
241 ,44.7958 ,1.14188 ,1.55467 ,15.25439 
242 ,44.9879 ,1.14382 ,1.53071 ,15.01934 
243 ,45.1640 ,1.14560 ,1.53413 ,15.05292 
244 ,45.3562 ,1.14752 ,1.52387 ,14.95219 
245 ,45.5640 ,1.14944 ,1.51702 ,14.88503 
246 ,45.7562 ,1.15144 ,1.48280 ,14.54925 
247 ,45.9324 ,1.15325 ,1.47596 ,14.48209 
248 ,46.1239 ,1.15519 ,1.45542 ,14.28062 
249 ,46.3001 ,1.15705 ,1.45885 ,14.31420 
250 ,46.4601 ,1.15865 ,1.44174 ,14.14631 
251 ,46.6523 ,1.16037 ,1.41778 ,13.91126 
252 ,46.8447 ,1.16240 ,1.39725 ,13.70979 
253 ,47.0366 ,1.16437 ,1.41094 ,13.84410 
254 ,47.2128 ,1.16613 ,1.38014 ,13.54190 
255 ,47.3888 ,1.16785 ,1.36987 ,13.44116 
256 ,47.5649 ,1.16957 ,1.36987 ,13.44116 
257 ,47.7572 ,1.17148 ,1.35618 ,13.30685 
258 ,47.9330 ,1.17330 ,1.32880 ,13.03822 
259 ,48.1091 ,1.17511 ,1.32196 ,12.97107 
260 ,48.2692 ,1.17673 ,1.29458 ,12.70244 
261 ,48.4451 ,1.17835 ,1.30143 ,12.76960 
262 ,48.6213 ,1.18024 ,1.29116 ,12.66886 
263 ,48.7975 ,1.18189 ,1.27747 ,12.53455 
264 ,48.9736 ,1.18365 ,1.27747 ,12.53455 
265 ,49.1656 ,1.18556 ,1.25009 ,12.26592 
266 ,49.3417 ,1.18735 ,1.23298 ,12.09803 
267 ,49.5177 ,1.18910 ,1.24325 ,12.19877 
268 ,49.6939 ,1.19087 ,1.21587 ,11.93014 
269 ,49.8859 ,1.19276 ,1.19192 ,11.69509 
270 ,50.0621 ,1.19457 ,1.17481 ,11.52720 
271 ,50.2544 ,1.19648 ,1.18507 ,11.62794 
272 ,50.4301 ,1.19824 ,1.15770 ,11.35931 
273 ,50.6060 ,1.19996 ,1.13374 ,11.12426 
274 ,50.7983 ,1.20192 ,1.14058 ,11.19142 
275 ,51.0061 ,1.20396 ,1.11321 ,10.92279 
276 ,51.1985 ,1.20589 ,1.10636 ,10.85563 
277 ,51.4225 ,1.20802 ,1.09610 ,10.75490 
278 ,51.6144 ,1.20999 ,1.08241 ,10.62059 
279 ,51.7905 ,1.21186 ,1.06872 ,10.48627 
280 ,51.9827 ,1.21375 ,1.04476 ,10.25123 
281 ,52.1585 ,1.21557 ,1.04819 ,10.28480 
282 ,52.3349 ,1.21731 ,1.03450 ,10.15049 
283 ,52.5109 ,1.21903 ,1.01054 ,9.91544 
284 ,52.6872 ,1.22078 ,0.99001 ,9.71397 
285 ,52.8788 ,1.22274 ,0.99685 ,9.78113 
286 ,53.0552 ,1.22443 ,0.98659 ,9.68039 
287 ,53.2308 ,1.22621 ,0.96605 ,9.47892 
288 ,53.4074 ,1.22803 ,0.94552 ,9.27745 
289 ,53.5994 ,1.22993 ,0.94552 ,9.27745 
290 ,53.7755 ,1.23165 ,0.94894 ,9.31103 
291 ,53.9674 ,1.23354 ,0.91814 ,9.00883 
292 ,54.1436 ,1.23540 ,0.89761 ,8.80736 
293 ,54.3193 ,1.23707 ,0.89761 ,8.80736 
294 ,54.4958 ,1.23885 ,0.89761 ,8.80736 
295 ,54.6719 ,1.24061 ,0.88392 ,8.67305 
296 ,54.8637 ,1.24245 ,0.86681 ,8.50515 
297 ,55.0719 ,1.24458 ,0.84628 ,8.30368 
298 ,55.2640 ,1.24650 ,0.82917 ,8.13579 
299 ,55.4565 ,1.24840 ,0.83943 ,8.23653 
300 ,55.6483 ,1.25036 ,0.80179 ,7.86717 
301 ,55.8563 ,1.25239 ,0.81206 ,7.96790 
302 ,56.0323 ,1.25423 ,0.80179 ,7.86717 
303 ,56.2243 ,1.25609 ,0.75730 ,7.43065 
304 ,56.4162 ,1.25806 ,0.77099 ,7.56496 
305 ,56.5927 ,1.25985 ,0.75388 ,7.39707 
306 ,56.7843 ,1.26185 ,0.72992 ,7.16202 
307 ,56.9607 ,1.26354 ,0.72308 ,7.09486 
308 ,57.1368 ,1.26526 ,0.71966 ,7.06129 
309 ,57.3129 ,1.26704 ,0.70255 ,6.89340 
310 ,57.5045 ,1.26896 ,0.68544 ,6.72550 
311 ,57.6811 ,1.27071 ,0.67175 ,6.59119 
312 ,57.8732 ,1.27265 ,0.69228 ,6.79266 
313 ,58.0493 ,1.27444 ,0.65806 ,6.45688 
314 ,58.2413 ,1.27634 ,0.62726 ,6.15467 
315 ,58.4333 ,1.27816 ,0.62726 ,6.15467 
316 ,58.5929 ,1.27995 ,0.62042 ,6.08752 
317 ,58.7695 ,1.28164 ,0.62726 ,6.15467 
318 ,58.9775 ,1.28364 ,0.59646 ,5.85247 
319 ,59.1697 ,1.28551 ,0.57251 ,5.61742 
320 ,59.3618 ,1.28746 ,0.57935 ,5.68458 
321 ,59.5541 ,1.28937 ,0.57935 ,5.68458 
322 ,59.7454 ,1.29138 ,0.54171 ,5.31522 
323 ,59.9220 ,1.29313 ,0.53486 ,5.24806 
324 ,60.1301 ,1.29511 ,0.52802 ,5.18090 
325 ,60.3221 ,1.29706 ,0.51433 ,5.04659 
326 ,60.5141 ,1.29906 ,0.51775 ,5.08017 
327 ,60.6899 ,1.30085 ,0.49722 ,4.87870 
328 ,60.8664 ,1.30259 ,0.47668 ,4.67723 
329 ,61.0583 ,1.30448 ,0.47326 ,4.64365 
330 ,61.2343 ,1.30623 ,0.46642 ,4.57649 
331 ,61.4264 ,1.30808 ,0.45273 ,4.44218 
332 ,61.6026 ,1.30996 ,0.44246 ,4.34144 
333 ,61.7784 ,1.31171 ,0.42877 ,4.20713 
334 ,61.9548 ,1.31345 ,0.42193 ,4.13997 
335 ,62.1309 ,1.31518 ,0.41509 ,4.07282 
336 ,62.3230 ,1.31706 ,0.39113 ,3.83777 
337 ,62.4990 ,1.31888 ,0.38429 ,3.77061 
338 ,62.6911 ,1.32079 ,0.38429 ,3.77061 
339 ,62.8668 ,1.32256 ,0.36718 ,3.60272 
340 ,63.0594 ,1.32448 ,0.34664 ,3.40125 
341 ,63.2515 ,1.32641 ,0.35691 ,3.50199 
342 ,63.4274 ,1.32818 ,0.33980 ,3.33410 
343 ,63.6033 ,1.32996 ,0.32269 ,3.16620 
344 ,63.7795 ,1.33171 ,0.30215 ,2.96473 
345 ,63.9711 ,1.33352 ,0.31926 ,3.13263 
346 ,64.1637 ,1.33546 ,0.30558 ,2.99831 
347 ,64.3717 ,1.33754 ,0.29873 ,2.93116 
348 ,64.5634 ,1.33941 ,0.27478 ,2.69611 
349 ,64.7561 ,1.34132 ,0.24055 ,2.36032 
350 ,64.9320 ,1.34320 ,0.24398 ,2.39390 
351 ,65.1081 ,1.34495 ,0.24740 ,2.42748 
352 ,65.3002 ,1.34675 ,0.23029 ,2.25959 
353 ,65.4922 ,1.34882 ,0.22344 ,2.19243 
354 ,65.6844 ,1.35067 ,0.20633 ,2.02454 
355 ,65.8764 ,1.35251 ,0.18580 ,1.82307 
356 ,66.0683 ,1.35458 ,0.19264 ,1.89023 
357 ,66.2605 ,1.35640 ,0.16869 ,1.65518 
358 ,66.4525 ,1.35840 ,0.17211 ,1.68876 
359 ,66.6287 ,1.36016 ,0.16527 ,1.62160 
360 ,66.8204 ,1.36207 ,0.13789 ,1.35298 
361 ,67.0128 ,1.36398 ,0.14131 ,1.38655 
362 ,67.2045 ,1.36586 ,0.12762 ,1.25224 
363 ,67.3967 ,1.36783 ,0.11051 ,1.08435 
364 ,67.5729 ,1.36961 ,0.09340 ,0.91646 
365 ,67.7493 ,1.37136 ,0.09682 ,0.95004 
366 ,67.9409 ,1.37322 ,0.08314 ,0.81572 
367 ,68.1334 ,1.37513 ,0.08314 ,0.81572 
368 ,68.3248 ,1.37708 ,0.05234 ,0.51352 
369 ,68.5174 ,1.37894 ,0.03865 ,0.37920 
370 ,68.7094 ,1.38092 ,0.05918 ,0.58067 
371 ,68.8853 ,1.38270 ,0.04207 ,0.41278 
372 ,69.0616 ,1.38449 ,0.03865 ,0.37920 
373 ,69.2538 ,1.38641 ,0.00785 ,0.07700 
374 ,69.4617 ,1.38842 ,-0.00926 ,-0.09089 
375 ,69.6539 ,1.39041 ,-0.00926 ,-0.09089 
376 ,69.8460 ,1.39227 ,-0.00584 ,-0.05731 
377 ,70.0381 ,1.39417 ,-0.03664 ,-0.35952 
378 ,70.2300 ,1.39615 ,-0.04006 ,-0.39310 
379 ,70.3897 ,1.39787 ,-0.05033 ,-0.49383 
380 ,70.5816 ,1.39959 ,-0.06060 ,-0.59457 
381 ,70.7739 ,1.40154 ,-0.07086 ,-0.69530 
382 ,70.9822 ,1.40368 ,-0.07086 ,-0.69530 
383 ,71.1742 ,1.40559 ,-0.08455 ,-0.82961 
384 ,71.3661 ,1.40749 ,-0.10166 ,-0.99751 
385 ,71.5423 ,1.40927 ,-0.10508 ,-1.03108 
386 ,71.7342 ,1.41110 ,-0.12562 ,-1.23255 
387 ,71.9104 ,1.41294 ,-0.12219 ,-1.19898 
388 ,72.0704 ,1.41467 ,-0.12904 ,-1.26613 
389 ,72.2305 ,1.41625 ,-0.14273 ,-1.40045 
390 ,72.3906 ,1.41785 ,-0.14957 ,-1.46760 
391 ,72.5666 ,1.41951 ,-0.14615 ,-1.43402 
392 ,72.7426 ,1.42126 ,-0.17695 ,-1.73623 
393 ,72.9187 ,1.42304 ,-0.18722 ,-1.83696 
394 ,73.1109 ,1.42485 ,-0.18379 ,-1.80338 
395 ,73.3029 ,1.42679 ,-0.20433 ,-2.00485 
396 ,73.4951 ,1.42870 ,-0.22144 ,-2.17275 
397 ,73.7032 ,1.43084 ,-0.22144 ,-2.17275 
398 ,73.8954 ,1.43281 ,-0.23855 ,-2.34064 
399 ,74.1035 ,1.43482 ,-0.22144 ,-2.17275 
400 ,74.2954 ,1.43677 ,-0.26593 ,-2.60926 
401 ,74.4713 ,1.43867 ,-0.25224 ,-2.47495 
402 ,74.6477 ,1.44034 ,-0.27277 ,-2.67642 
403 ,74.8395 ,1.44222 ,-0.29673 ,-2.91147 
404 ,74.9995 ,1.44397 ,-0.30699 ,-3.01220 
405 ,75.1600 ,1.44555 ,-0.30357 ,-2.97863 
406 ,75.3360 ,1.44718 ,-0.31384 ,-3.07936 
407 ,75.5118 ,1.44891 ,-0.31726 ,-3.11294 
408 ,75.6719 ,1.45066 ,-0.30699 ,-3.01220 
409 ,75.8641 ,1.45238 ,-0.33095 ,-3.24725 
410 ,76.0722 ,1.45454 ,-0.34121 ,-3.34799 
411 ,76.2805 ,1.45652 ,-0.36175 ,-3.54946 
412 ,76.4722 ,1.45859 ,-0.35832 ,-3.51588 
413 ,76.6484 ,1.46031 ,-0.35832 ,-3.51588 
414 ,76.8244 ,1.46205 ,-0.36859 ,-3.61661 
415 ,77.0005 ,1.46384 ,-0.37886 ,-3.71735 
416 ,77.1929 ,1.46572 ,-0.40966 ,-4.01955 
417 ,77.3688 ,1.46764 ,-0.39597 ,-3.88524 
418 ,77.5446 ,1.46930 ,-0.39255 ,-3.85166 
419 ,77.7207 ,1.47111 ,-0.41650 ,-4.08671 
420 ,77.9289 ,1.47295 ,-0.44046 ,-4.32176 
421 ,78.1212 ,1.47500 ,-0.43019 ,-4.22102 
422 ,78.3133 ,1.47691 ,-0.47468 ,-4.65754 
423 ,78.5048 ,1.47885 ,-0.44730 ,-4.38891 
424 ,78.6811 ,1.48060 ,-0.45072 ,-4.42249 
425 ,78.8576 ,1.48244 ,-0.48152 ,-4.72470 
426 ,79.0495 ,1.48430 ,-0.48837 ,-4.79185 
427 ,79.2254 ,1.48608 ,-0.48152 ,-4.72470 
428 ,79.4017 ,1.48781 ,-0.50548 ,-4.95975 
429 ,79.5933 ,1.48967 ,-0.51917 ,-5.09406 
430 ,79.7698 ,1.49149 ,-0.51917 ,-5.09406 
431 ,79.9457 ,1.49328 ,-0.51917 ,-5.09406 
432 ,80.1215 ,1.49502 ,-0.52943 ,-5.19479 
433 ,80.2980 ,1.49682 ,-0.54997 ,-5.39626 
434 ,80.5061 ,1.49879 ,-0.53628 ,-5.26195 
435 ,80.7138 ,1.50090 ,-0.58077 ,-5.69847 
436 ,80.8903 ,1.50271 ,-0.57734 ,-5.66489 
437 ,81.0503 ,1.50443 ,-0.57050 ,-5.59773 
438 ,81.2261 ,1.50606 ,-0.58077 ,-5.69847 
439 ,81.4025 ,1.50780 ,-0.59788 ,-5.86636 
440 ,81.5944 ,1.50975 ,-0.61841 ,-6.06783 
441 ,81.7706 ,1.51154 ,-0.61156 ,-6.00067 
442 ,81.9303 ,1.51323 ,-0.60472 ,-5.93352 
443 ,82.1066 ,1.51493 ,-0.63210 ,-6.20214 
444 ,82.2989 ,1.51679 ,-0.63552 ,-6.23572 
445 ,82.4909 ,1.51874 ,-0.65605 ,-6.43719 
446 ,82.6991 ,1.52071 ,-0.66632 ,-6.53793 
447 ,82.8912 ,1.52272 ,-0.67316 ,-6.60508 
448 ,83.0509 ,1.52444 ,-0.66974 ,-6.57150 
449 ,83.2268 ,1.52609 ,-0.68343 ,-6.70582 
450 ,83.4032 ,1.52778 ,-0.68343 ,-6.70582 
451 ,83.6110 ,1.52989 ,-0.71765 ,-7.04160 
452 ,83.8032 ,1.53179 ,-0.70739 ,-6.94086 
453 ,83.9954 ,1.53371 ,-0.72792 ,-7.14233 
454 ,84.1713 ,1.53548 ,-0.73476 ,-7.20949 
455 ,84.3474 ,1.53730 ,-0.73476 ,-7.20949 
456 ,84.5394 ,1.53918 ,-0.74503 ,-7.31023 
457 ,84.7318 ,1.54109 ,-0.76898 ,-7.54527 
458 ,84.9396 ,1.54314 ,-0.76898 ,-7.54527 
459 ,85.1157 ,1.54495 ,-0.76556 ,-7.51170 
460 ,85.3238 ,1.54695 ,-0.76898 ,-7.54527 
461 ,85.4999 ,1.54878 ,-0.78952 ,-7.74674 
462 ,85.6599 ,1.55050 ,-0.79978 ,-7.84748 
463 ,85.8360 ,1.55215 ,-0.79636 ,-7.81390 
