Data stamp = , 02-06-2022 18:30:57 735

Calibration Values: 
Slope = , 26.54 , g/V 
Offset Voltage at no contact = , -0.501760 , V 

No , Time , Stage Position ,   Mass , Force 
   ,  (s) ,      (mm)      ,   (g)  , (mN)  

1 ,0.0000 ,0.84961 ,5.34985 ,52.49273 
2 ,0.2139 ,0.84971 ,5.33958 ,52.39199 
3 ,0.6786 ,0.85108 ,5.33958 ,52.39199 
4 ,0.9344 ,0.85353 ,5.36012 ,52.59346 
5 ,1.1747 ,0.85599 ,5.34643 ,52.45915 
6 ,1.3985 ,0.85819 ,5.34301 ,52.42557 
7 ,1.6223 ,0.86051 ,5.33958 ,52.39199 
8 ,1.8306 ,0.86264 ,5.29852 ,51.98905 
9 ,2.0390 ,0.86472 ,5.29510 ,51.95548 
10 ,2.2947 ,0.86726 ,5.25061 ,51.51896 
11 ,2.5027 ,0.86934 ,5.25745 ,51.58611 
12 ,2.6947 ,0.87133 ,5.19927 ,51.01528 
13 ,2.9190 ,0.87354 ,5.20612 ,51.08244 
14 ,3.1435 ,0.87576 ,5.18216 ,50.84739 
15 ,3.3675 ,0.87799 ,5.15136 ,50.54519 
16 ,3.5754 ,0.88006 ,5.13083 ,50.34372 
17 ,3.7832 ,0.88211 ,5.12741 ,50.31014 
18 ,3.9916 ,0.88431 ,5.07950 ,49.84004 
19 ,4.2155 ,0.88643 ,5.06923 ,49.73931 
20 ,4.4399 ,0.88876 ,5.05554 ,49.60499 
21 ,4.6479 ,0.89084 ,5.00763 ,49.13490 
22 ,4.8722 ,0.89310 ,4.98710 ,48.93343 
23 ,5.0961 ,0.89533 ,4.98026 ,48.86627 
24 ,5.3041 ,0.89750 ,4.97341 ,48.79911 
25 ,5.5123 ,0.89949 ,4.93577 ,48.42975 
26 ,5.7363 ,0.90164 ,4.92208 ,48.29544 
27 ,5.9603 ,0.90389 ,4.90839 ,48.16113 
28 ,6.2004 ,0.90626 ,4.87075 ,47.79177 
29 ,6.4248 ,0.90851 ,4.85021 ,47.59030 
30 ,6.6489 ,0.91089 ,4.81941 ,47.28809 
31 ,6.8569 ,0.91290 ,4.81941 ,47.28809 
32 ,7.0810 ,0.91513 ,4.79204 ,47.01946 
33 ,7.2731 ,0.91718 ,4.75097 ,46.61653 
34 ,7.4811 ,0.91911 ,4.75782 ,46.68368 
35 ,7.6890 ,0.92120 ,4.71675 ,46.28074 
36 ,7.9134 ,0.92346 ,4.69964 ,46.11285 
37 ,8.1215 ,0.92552 ,4.68937 ,46.01212 
38 ,8.3291 ,0.92760 ,4.65515 ,45.67633 
39 ,8.5376 ,0.92966 ,4.65857 ,45.70991 
40 ,8.7613 ,0.93196 ,4.61408 ,45.27339 
41 ,8.9699 ,0.93399 ,4.58671 ,45.00477 
42 ,9.1938 ,0.93626 ,4.58328 ,44.97119 
43 ,9.3855 ,0.93832 ,4.57302 ,44.87045 
44 ,9.6099 ,0.94046 ,4.52511 ,44.40036 
45 ,9.8497 ,0.94269 ,4.52853 ,44.43394 
46 ,10.0582 ,0.94486 ,4.50800 ,44.23247 
47 ,10.2661 ,0.94699 ,4.49089 ,44.06457 
48 ,10.4745 ,0.94900 ,4.47035 ,43.86310 
49 ,10.7145 ,0.95132 ,4.44640 ,43.62806 
50 ,10.9386 ,0.95369 ,4.42929 ,43.46016 
51 ,11.1463 ,0.95576 ,4.40191 ,43.19154 
52 ,11.3545 ,0.95780 ,4.37795 ,42.95649 
53 ,11.5628 ,0.95992 ,4.36427 ,42.82218 
54 ,11.8189 ,0.96248 ,4.34373 ,42.62071 
55 ,12.0430 ,0.96471 ,4.31636 ,42.35208 
56 ,12.2510 ,0.96680 ,4.29240 ,42.11703 
57 ,12.4592 ,0.96885 ,4.28556 ,42.04988 
58 ,12.6673 ,0.97094 ,4.24107 ,41.61336 
59 ,12.8755 ,0.97309 ,4.25476 ,41.74767 
60 ,13.0995 ,0.97525 ,4.22396 ,41.44547 
61 ,13.3074 ,0.97736 ,4.20000 ,41.21042 
62 ,13.5313 ,0.97961 ,4.16236 ,40.84106 
63 ,13.7397 ,0.98169 ,4.16578 ,40.87464 
64 ,13.9311 ,0.98375 ,4.11787 ,40.40454 
65 ,14.1398 ,0.98567 ,4.14183 ,40.63959 
66 ,14.3640 ,0.98793 ,4.09734 ,40.20307 
67 ,14.5722 ,0.99002 ,4.09049 ,40.13591 
68 ,14.7959 ,0.99223 ,4.06312 ,39.86729 
69 ,15.0038 ,0.99427 ,4.04258 ,39.66582 
70 ,15.2121 ,0.99641 ,4.02547 ,39.49793 
71 ,15.4363 ,0.99862 ,4.00836 ,39.33003 
72 ,15.6605 ,1.00086 ,3.99125 ,39.16214 
73 ,15.8525 ,1.00297 ,3.94676 ,38.72562 
74 ,16.0762 ,1.00503 ,3.95361 ,38.79278 
75 ,16.3008 ,1.00732 ,3.93307 ,38.59131 
76 ,16.5249 ,1.00953 ,3.89201 ,38.18837 
77 ,16.7488 ,1.01175 ,3.88858 ,38.15479 
78 ,16.9568 ,1.01385 ,3.87832 ,38.05406 
79 ,17.1809 ,1.01612 ,3.85094 ,37.78543 
80 ,17.4212 ,1.01835 ,3.80987 ,37.38249 
81 ,17.6613 ,1.02077 ,3.80303 ,37.31534 
82 ,17.8533 ,1.02296 ,3.78250 ,37.11387 
83 ,18.0772 ,1.02507 ,3.76881 ,36.97955 
84 ,18.3012 ,1.02731 ,3.74485 ,36.74450 
85 ,18.5415 ,1.02962 ,3.72774 ,36.57661 
86 ,18.7657 ,1.03195 ,3.69010 ,36.20725 
87 ,18.9899 ,1.03418 ,3.68668 ,36.17367 
88 ,19.1979 ,1.03629 ,3.67983 ,36.10652 
89 ,19.4060 ,1.03846 ,3.64903 ,35.80431 
90 ,19.6460 ,1.04074 ,3.63534 ,35.67000 
91 ,19.8698 ,1.04294 ,3.61481 ,35.46853 
92 ,20.0784 ,1.04504 ,3.58743 ,35.19990 
93 ,20.3024 ,1.04727 ,3.56690 ,34.99843 
94 ,20.5106 ,1.04938 ,3.56690 ,34.99843 
95 ,20.7345 ,1.05163 ,3.54295 ,34.76338 
96 ,20.9587 ,1.05381 ,3.51899 ,34.52834 
97 ,21.1824 ,1.05609 ,3.49504 ,34.29329 
98 ,21.3744 ,1.05810 ,3.48135 ,34.15898 
99 ,21.5829 ,1.06012 ,3.45055 ,33.85677 
100 ,21.7909 ,1.06219 ,3.46081 ,33.95751 
101 ,22.0150 ,1.06438 ,3.43344 ,33.68888 
102 ,22.2392 ,1.06662 ,3.39921 ,33.35310 
103 ,22.4472 ,1.06875 ,3.37868 ,33.15163 
104 ,22.6708 ,1.07100 ,3.37526 ,33.11805 
105 ,22.8949 ,1.07318 ,3.35815 ,32.95016 
106 ,23.1191 ,1.07540 ,3.32735 ,32.64795 
107 ,23.3913 ,1.07818 ,3.31024 ,32.48006 
108 ,23.6157 ,1.08043 ,3.29997 ,32.37933 
109 ,23.8398 ,1.08264 ,3.25206 ,31.90923 
110 ,24.0477 ,1.08473 ,3.24522 ,31.84207 
111 ,24.2722 ,1.08699 ,3.22811 ,31.67418 
112 ,24.4799 ,1.08901 ,3.20073 ,31.40555 
113 ,24.6721 ,1.09105 ,3.18704 ,31.27124 
114 ,24.8805 ,1.09304 ,3.16993 ,31.10335 
115 ,25.1039 ,1.09524 ,3.16309 ,31.03619 
116 ,25.3282 ,1.09745 ,3.15624 ,30.96904 
117 ,25.5364 ,1.09958 ,3.12202 ,30.63325 
118 ,25.7607 ,1.10184 ,3.08438 ,30.26389 
119 ,25.9688 ,1.10397 ,3.08780 ,30.29747 
120 ,26.1602 ,1.10596 ,3.07411 ,30.16316 
121 ,26.3687 ,1.10795 ,3.05700 ,29.99527 
122 ,26.5770 ,1.10999 ,3.03304 ,29.76022 
123 ,26.8008 ,1.11222 ,3.00224 ,29.45801 
124 ,27.0249 ,1.11443 ,2.99540 ,29.39086 
125 ,27.2488 ,1.11668 ,2.98171 ,29.25654 
126 ,27.4734 ,1.11894 ,2.96460 ,29.08865 
127 ,27.6974 ,1.12115 ,2.92353 ,28.68571 
128 ,27.9054 ,1.12329 ,2.91327 ,28.58498 
129 ,28.1293 ,1.12558 ,2.90642 ,28.51782 
130 ,28.3374 ,1.12759 ,2.87562 ,28.21562 
131 ,28.5615 ,1.12991 ,2.85167 ,27.98057 
132 ,28.7858 ,1.13207 ,2.84140 ,27.87983 
133 ,28.9936 ,1.13423 ,2.83114 ,27.77910 
134 ,29.2020 ,1.13630 ,2.79691 ,27.44332 
135 ,29.4100 ,1.13835 ,2.79691 ,27.44332 
136 ,29.6181 ,1.14044 ,2.76269 ,27.10753 
137 ,29.8422 ,1.14267 ,2.74900 ,26.97322 
138 ,30.0504 ,1.14476 ,2.74558 ,26.93964 
139 ,30.2583 ,1.14682 ,2.71136 ,26.60386 
140 ,30.4663 ,1.14892 ,2.70109 ,26.50312 
141 ,30.6900 ,1.15108 ,2.67714 ,26.26807 
142 ,30.8986 ,1.15316 ,2.66003 ,26.10018 
143 ,31.1067 ,1.15532 ,2.64976 ,25.99945 
144 ,31.3308 ,1.15752 ,2.65318 ,26.03303 
145 ,31.5389 ,1.15957 ,2.61212 ,25.63009 
146 ,31.7626 ,1.16180 ,2.58816 ,25.39504 
147 ,31.9712 ,1.16396 ,2.58816 ,25.39504 
148 ,32.1949 ,1.16615 ,2.55394 ,25.05926 
149 ,32.4034 ,1.16835 ,2.53683 ,24.89136 
150 ,32.6114 ,1.17037 ,2.53341 ,24.85779 
151 ,32.8351 ,1.17253 ,2.50945 ,24.62274 
152 ,33.0597 ,1.17482 ,2.47865 ,24.32053 
153 ,33.2834 ,1.17706 ,2.46496 ,24.18622 
154 ,33.4919 ,1.17913 ,2.47181 ,24.25338 
155 ,33.6998 ,1.18125 ,2.43416 ,23.88402 
156 ,33.9080 ,1.18327 ,2.42048 ,23.74970 
157 ,34.1159 ,1.18540 ,2.38968 ,23.44750 
158 ,34.3400 ,1.18759 ,2.37941 ,23.34676 
159 ,34.5482 ,1.18970 ,2.37599 ,23.31318 
160 ,34.7402 ,1.19176 ,2.35545 ,23.11171 
161 ,34.9961 ,1.19413 ,2.32465 ,22.80951 
162 ,35.2043 ,1.19623 ,2.31439 ,22.70877 
163 ,35.4126 ,1.19834 ,2.30412 ,22.60804 
164 ,35.6364 ,1.20053 ,2.28359 ,22.40657 
165 ,35.8447 ,1.20263 ,2.26306 ,22.20510 
166 ,36.0686 ,1.20493 ,2.25963 ,22.17152 
167 ,36.2604 ,1.20696 ,2.22883 ,21.86932 
168 ,36.4688 ,1.20887 ,2.23226 ,21.90290 
169 ,36.6931 ,1.21113 ,2.19803 ,21.56711 
170 ,36.8847 ,1.21318 ,2.17408 ,21.33206 
171 ,37.0772 ,1.21508 ,2.17750 ,21.36564 
172 ,37.3010 ,1.21719 ,2.13986 ,20.99628 
173 ,37.5415 ,1.21954 ,2.13986 ,20.99628 
174 ,37.7656 ,1.22188 ,2.11248 ,20.72766 
175 ,37.9737 ,1.22390 ,2.09879 ,20.59334 
176 ,38.1976 ,1.22618 ,2.07141 ,20.32472 
177 ,38.4057 ,1.22825 ,2.05088 ,20.12325 
178 ,38.6300 ,1.23043 ,2.02693 ,19.88820 
179 ,38.8541 ,1.23274 ,2.03719 ,19.98893 
180 ,39.0621 ,1.23483 ,2.01324 ,19.75388 
181 ,39.2861 ,1.23701 ,1.99270 ,19.55241 
182 ,39.4944 ,1.23914 ,1.98586 ,19.48526 
183 ,39.7183 ,1.24146 ,1.95506 ,19.18305 
184 ,39.9423 ,1.24363 ,1.94822 ,19.11590 
185 ,40.1344 ,1.24567 ,1.92768 ,18.91443 
186 ,40.3587 ,1.24773 ,1.90715 ,18.71296 
187 ,40.5668 ,1.24985 ,1.89688 ,18.61222 
188 ,40.7906 ,1.25216 ,1.88319 ,18.47791 
189 ,41.0150 ,1.25434 ,1.86266 ,18.27644 
190 ,41.2231 ,1.25643 ,1.84213 ,18.07497 
191 ,41.4471 ,1.25863 ,1.83528 ,18.00781 
192 ,41.6550 ,1.26076 ,1.81817 ,17.83992 
193 ,41.8795 ,1.26294 ,1.78053 ,17.47056 
194 ,42.0874 ,1.26507 ,1.78395 ,17.50414 
195 ,42.3115 ,1.26733 ,1.76000 ,17.26909 
196 ,42.5195 ,1.26941 ,1.72578 ,16.93331 
197 ,42.7436 ,1.27163 ,1.72578 ,16.93331 
198 ,42.9513 ,1.27371 ,1.71209 ,16.79899 
199 ,43.1598 ,1.27587 ,1.67444 ,16.42963 
200 ,43.3837 ,1.27801 ,1.67786 ,16.46321 
201 ,43.6080 ,1.28022 ,1.67444 ,16.42963 
202 ,43.8321 ,1.28250 ,1.66075 ,16.29532 
203 ,44.0398 ,1.28457 ,1.62311 ,15.92596 
204 ,44.2804 ,1.28691 ,1.61284 ,15.82522 
205 ,44.5043 ,1.28924 ,1.58889 ,15.59018 
206 ,44.7125 ,1.29132 ,1.57520 ,15.45586 
207 ,44.9044 ,1.29332 ,1.55124 ,15.22081 
208 ,45.1127 ,1.29533 ,1.54440 ,15.15366 
209 ,45.3205 ,1.29747 ,1.53071 ,15.01934 
210 ,45.5609 ,1.29970 ,1.51702 ,14.88503 
211 ,45.7850 ,1.30202 ,1.49991 ,14.71714 
212 ,45.9931 ,1.30415 ,1.47596 ,14.48209 
213 ,46.2170 ,1.30631 ,1.45542 ,14.28062 
214 ,46.4091 ,1.30835 ,1.45885 ,14.31420 
215 ,46.6172 ,1.31037 ,1.41436 ,13.87768 
216 ,46.8413 ,1.31254 ,1.40751 ,13.81053 
217 ,47.0494 ,1.31463 ,1.41436 ,13.87768 
218 ,47.2733 ,1.31680 ,1.37671 ,13.50832 
219 ,47.4974 ,1.31910 ,1.35276 ,13.27327 
220 ,47.7054 ,1.32119 ,1.35276 ,13.27327 
221 ,47.9138 ,1.32329 ,1.33223 ,13.07180 
222 ,48.1378 ,1.32552 ,1.30827 ,12.83675 
223 ,48.3617 ,1.32783 ,1.30827 ,12.83675 
224 ,48.5697 ,1.32989 ,1.29800 ,12.73602 
225 ,48.7620 ,1.33189 ,1.26378 ,12.40024 
226 ,48.9703 ,1.33387 ,1.26036 ,12.36666 
227 ,49.1941 ,1.33611 ,1.23641 ,12.13161 
228 ,49.4019 ,1.33820 ,1.24667 ,12.23235 
229 ,49.6099 ,1.34024 ,1.21929 ,11.96372 
230 ,49.8505 ,1.34257 ,1.18850 ,11.66151 
231 ,50.0748 ,1.34492 ,1.17138 ,11.49362 
232 ,50.2827 ,1.34699 ,1.16454 ,11.42647 
233 ,50.5066 ,1.34917 ,1.16112 ,11.39289 
234 ,50.7145 ,1.35131 ,1.12005 ,10.98995 
235 ,50.9388 ,1.35363 ,1.11663 ,10.95637 
236 ,51.1630 ,1.35576 ,1.11663 ,10.95637 
237 ,51.3707 ,1.35784 ,1.11663 ,10.95637 
238 ,51.5794 ,1.35990 ,1.11663 ,10.95637 
239 ,51.7872 ,1.36203 ,1.29458 ,12.70244 
240 ,52.0113 ,1.36426 ,1.29116 ,12.66886 
241 ,52.2194 ,1.36640 ,1.30143 ,12.76960 
242 ,52.4273 ,1.36838 ,1.30143 ,12.76960 
243 ,52.6354 ,1.37048 ,1.28774 ,12.63528 
244 ,52.8438 ,1.37261 ,1.28432 ,12.60171 
245 ,53.0516 ,1.37480 ,1.27063 ,12.46739 
246 ,53.2600 ,1.37673 ,1.26720 ,12.43381 
247 ,53.4679 ,1.37885 ,1.25352 ,12.29950 
248 ,53.6761 ,1.38090 ,1.23983 ,12.16519 
249 ,53.8841 ,1.38297 ,1.24325 ,12.19877 
250 ,54.0918 ,1.38514 ,1.22956 ,12.06445 
251 ,54.3001 ,1.38720 ,1.21245 ,11.89656 
252 ,54.5245 ,1.38936 ,1.21587 ,11.93014 
253 ,54.7321 ,1.39147 ,1.19192 ,11.69509 
254 ,54.9562 ,1.39363 ,1.17481 ,11.52720 
255 ,55.1642 ,1.39583 ,1.16454 ,11.42647 
256 ,55.3887 ,1.39797 ,1.16796 ,11.46004 
257 ,55.6129 ,1.40024 ,1.14743 ,11.25857 
258 ,55.8210 ,1.40237 ,1.14743 ,11.25857 
259 ,56.0450 ,1.40462 ,1.13716 ,11.15784 
260 ,56.2690 ,1.40682 ,1.12005 ,10.98995 
261 ,56.4932 ,1.40905 ,1.10636 ,10.85563 
262 ,56.7174 ,1.41128 ,1.10636 ,10.85563 
263 ,56.9415 ,1.41358 ,1.10294 ,10.82206 
264 ,57.1655 ,1.41583 ,1.10294 ,10.82206 
265 ,57.3892 ,1.41801 ,1.07214 ,10.51985 
266 ,57.6138 ,1.42023 ,1.06530 ,10.45270 
267 ,57.8379 ,1.42247 ,1.06187 ,10.41912 
268 ,58.0458 ,1.42460 ,1.06530 ,10.45270 
269 ,58.2540 ,1.42667 ,1.03108 ,10.11691 
270 ,58.4458 ,1.42870 ,1.05845 ,10.38554 
271 ,58.6702 ,1.43071 ,1.01739 ,9.98260 
272 ,58.8943 ,1.43308 ,1.01739 ,9.98260 
273 ,59.1024 ,1.43518 ,1.02765 ,10.08333 
274 ,59.3104 ,1.43725 ,1.01396 ,9.94902 
275 ,59.5024 ,1.43928 ,0.99001 ,9.71397 
276 ,59.7101 ,1.44130 ,1.00028 ,9.81471 
277 ,59.9186 ,1.44326 ,0.98659 ,9.68039 
278 ,60.1267 ,1.44544 ,0.99001 ,9.71397 
279 ,60.3508 ,1.44763 ,0.96263 ,9.44535 
280 ,60.5427 ,1.44969 ,0.97632 ,9.57966 
281 ,60.7505 ,1.45164 ,0.93868 ,9.21030 
282 ,60.9591 ,1.45371 ,0.94210 ,9.24388 
283 ,61.1832 ,1.45592 ,0.94552 ,9.27745 
284 ,61.4069 ,1.45815 ,0.93183 ,9.14314 
285 ,61.6313 ,1.46038 ,0.90788 ,8.90809 
286 ,61.8390 ,1.46253 ,0.91814 ,9.00883 
287 ,62.0635 ,1.46474 ,0.91130 ,8.94167 
288 ,62.3030 ,1.46715 ,0.91472 ,8.97525 
289 ,62.5112 ,1.46920 ,0.88050 ,8.63947 
290 ,62.7194 ,1.47126 ,0.88050 ,8.63947 
291 ,62.9278 ,1.47340 ,0.87708 ,8.60589 
292 ,63.1519 ,1.47564 ,0.87366 ,8.57231 
293 ,63.3757 ,1.47782 ,0.84970 ,8.33726 
294 ,63.5680 ,1.47990 ,0.85997 ,8.43800 
295 ,63.7921 ,1.48197 ,0.83601 ,8.20295 
296 ,64.0002 ,1.48408 ,0.85654 ,8.40442 
297 ,64.2080 ,1.48614 ,0.83943 ,8.23653 
298 ,64.4320 ,1.48837 ,0.82575 ,8.10221 
299 ,64.6723 ,1.49079 ,0.82575 ,8.10221 
300 ,64.8806 ,1.49295 ,0.80863 ,7.93432 
301 ,65.1048 ,1.49515 ,0.82575 ,8.10221 
302 ,65.3285 ,1.49741 ,0.80179 ,7.86717 
303 ,65.5367 ,1.49950 ,0.81548 ,8.00148 
304 ,65.7609 ,1.50173 ,0.81206 ,7.96790 
305 ,65.9848 ,1.50395 ,0.80521 ,7.90074 
306 ,66.1932 ,1.50599 ,0.77784 ,7.63212 
307 ,66.4008 ,1.50809 ,0.81206 ,7.96790 
308 ,66.6094 ,1.51017 ,0.78126 ,7.66570 
309 ,66.8334 ,1.51243 ,0.77099 ,7.56496 
310 ,67.0415 ,1.51447 ,0.78468 ,7.69927 
311 ,67.2657 ,1.51669 ,0.77784 ,7.63212 
312 ,67.4893 ,1.51898 ,0.77441 ,7.59854 
313 ,67.6975 ,1.52109 ,0.76757 ,7.53138 
314 ,67.9057 ,1.52326 ,0.77099 ,7.56496 
315 ,68.2257 ,1.52580 ,0.74361 ,7.29633 
316 ,68.4499 ,1.52855 ,0.75388 ,7.39707 
317 ,68.6581 ,1.53064 ,0.75046 ,7.36349 
318 ,68.8660 ,1.53268 ,0.74019 ,7.26276 
319 ,69.0744 ,1.53484 ,0.72308 ,7.09486 
320 ,69.2823 ,1.53692 ,0.74704 ,7.32991 
321 ,69.4904 ,1.53895 ,0.71966 ,7.06129 
322 ,69.6981 ,1.54104 ,0.72308 ,7.09486 
323 ,69.9065 ,1.54320 ,0.71966 ,7.06129 
324 ,70.1307 ,1.54542 ,0.71966 ,7.06129 
325 ,70.3389 ,1.54747 ,0.71966 ,7.06129 
326 ,70.5468 ,1.54954 ,0.72992 ,7.16202 
327 ,70.7705 ,1.55177 ,0.69913 ,6.85982 
328 ,70.9948 ,1.55403 ,0.70939 ,6.96055 
329 ,71.2192 ,1.55629 ,0.70939 ,6.96055 
330 ,71.4272 ,1.55833 ,0.68886 ,6.75908 
331 ,71.6514 ,1.56056 ,0.68201 ,6.69193 
332 ,71.8593 ,1.56265 ,0.70939 ,6.96055 
333 ,72.0833 ,1.56493 ,0.69913 ,6.85982 
334 ,72.3076 ,1.56712 ,0.68544 ,6.72550 
335 ,72.5317 ,1.56935 ,0.67517 ,6.62477 
336 ,72.7396 ,1.57142 ,0.69228 ,6.79266 
337 ,72.9639 ,1.57366 ,0.68544 ,6.72550 
338 ,73.2199 ,1.57614 ,0.68201 ,6.69193 
339 ,73.4442 ,1.57850 ,0.67517 ,6.62477 
340 ,73.6522 ,1.58062 ,0.66148 ,6.49046 
341 ,73.8602 ,1.58267 ,0.67517 ,6.62477 
342 ,74.0844 ,1.58486 ,0.67517 ,6.62477 
343 ,74.3084 ,1.58709 ,0.64779 ,6.35614 
344 ,74.5166 ,1.58929 ,0.65121 ,6.38972 
345 ,74.7404 ,1.59148 ,0.65464 ,6.42330 
346 ,74.9327 ,1.59350 ,0.65806 ,6.45688 
347 ,75.1568 ,1.59563 ,0.65464 ,6.42330 
348 ,75.3648 ,1.59771 ,0.64779 ,6.35614 
349 ,75.5730 ,1.59977 ,0.64095 ,6.28899 
350 ,75.7970 ,1.60201 ,0.65464 ,6.42330 
351 ,76.0050 ,1.60413 ,0.65121 ,6.38972 
352 ,76.2294 ,1.60637 ,0.62726 ,6.15467 
353 ,76.4209 ,1.60843 ,0.63410 ,6.22183 
354 ,76.6134 ,1.61029 ,0.62726 ,6.15467 
355 ,76.8375 ,1.61244 ,0.62384 ,6.12109 
356 ,77.0456 ,1.61452 ,0.63753 ,6.25541 
357 ,77.2697 ,1.61672 ,0.61357 ,6.02036 
358 ,77.4933 ,1.61897 ,0.62384 ,6.12109 
359 ,77.7177 ,1.62127 ,0.61357 ,6.02036 
360 ,77.9419 ,1.62345 ,0.64779 ,6.35614 
361 ,78.1498 ,1.62554 ,0.63410 ,6.22183 
362 ,78.3741 ,1.62778 ,0.62726 ,6.15467 
363 ,78.5977 ,1.63000 ,0.64437 ,6.32256 
364 ,78.8543 ,1.63256 ,0.63753 ,6.25541 
365 ,79.0623 ,1.63478 ,0.63068 ,6.18825 
366 ,79.2704 ,1.63668 ,0.64095 ,6.28899 
367 ,79.4944 ,1.63898 ,0.60673 ,5.95320 
368 ,79.7024 ,1.64105 ,0.64095 ,6.28899 
369 ,79.9264 ,1.64335 ,0.63068 ,6.18825 
370 ,80.1346 ,1.64539 ,0.61699 ,6.05394 
371 ,80.3590 ,1.64764 ,0.62726 ,6.15467 
372 ,80.5670 ,1.64969 ,0.63753 ,6.25541 
373 ,80.7750 ,1.65180 ,0.62384 ,6.12109 
374 ,80.9829 ,1.65385 ,0.63068 ,6.18825 
375 ,81.1912 ,1.65597 ,0.62042 ,6.08752 
376 ,81.4151 ,1.65817 ,0.62726 ,6.15467 
377 ,81.6071 ,1.66026 ,0.65464 ,6.42330 
378 ,81.7993 ,1.66215 ,0.64095 ,6.28899 
379 ,82.0072 ,1.66411 ,0.63410 ,6.22183 
380 ,82.2314 ,1.66634 ,0.62726 ,6.15467 
381 ,82.4555 ,1.66857 ,0.63068 ,6.18825 
382 ,82.6637 ,1.67069 ,0.64095 ,6.28899 
383 ,82.8720 ,1.67275 ,0.61699 ,6.05394 
384 ,83.0955 ,1.67499 ,0.63068 ,6.18825 
385 ,83.3515 ,1.67746 ,0.62726 ,6.15467 
386 ,83.5758 ,1.67976 ,0.63068 ,6.18825 
387 ,83.8163 ,1.68224 ,0.63410 ,6.22183 
388 ,84.0404 ,1.68442 ,0.64779 ,6.35614 
389 ,84.2640 ,1.68665 ,0.64095 ,6.28899 
390 ,84.4727 ,1.68877 ,0.63410 ,6.22183 
391 ,84.6647 ,1.69078 ,0.64095 ,6.28899 
392 ,84.8886 ,1.69283 ,0.66148 ,6.49046 
393 ,85.1126 ,1.69517 ,0.67859 ,6.65835 
394 ,85.3207 ,1.69722 ,0.70939 ,6.96055 
395 ,85.5611 ,1.69963 ,0.71966 ,7.06129 
396 ,85.7849 ,1.70186 ,0.71624 ,7.02771 
397 ,86.0093 ,1.70409 ,0.70597 ,6.92697 
398 ,86.2331 ,1.70635 ,0.68886 ,6.75908 
399 ,86.4410 ,1.70856 ,0.69570 ,6.82624 
400 ,86.6655 ,1.71063 ,0.69570 ,6.82624 
401 ,86.8897 ,1.71291 ,0.69570 ,6.82624 
402 ,87.1137 ,1.71521 ,0.69570 ,6.82624 
403 ,87.3218 ,1.71722 ,0.70597 ,6.92697 
404 ,87.5455 ,1.71944 ,0.70597 ,6.92697 
405 ,87.7539 ,1.72167 ,0.69913 ,6.85982 
406 ,87.9779 ,1.72373 ,0.70597 ,6.92697 
407 ,88.1859 ,1.72585 ,0.70939 ,6.96055 
408 ,88.4103 ,1.72812 ,0.69228 ,6.79266 
409 ,88.6501 ,1.73040 ,0.69570 ,6.82624 
410 ,88.8744 ,1.73273 ,0.70255 ,6.89340 
411 ,89.1145 ,1.73505 ,0.70255 ,6.89340 
412 ,89.3223 ,1.73736 ,0.70939 ,6.96055 
413 ,89.5788 ,1.73971 ,0.71281 ,6.99413 
414 ,89.8024 ,1.74203 ,0.71281 ,6.99413 
415 ,90.0270 ,1.74429 ,0.71966 ,7.06129 
416 ,90.2509 ,1.74652 ,0.70255 ,6.89340 
417 ,90.4749 ,1.74872 ,0.69570 ,6.82624 
418 ,90.6991 ,1.75099 ,0.69913 ,6.85982 
419 ,90.9229 ,1.75324 ,0.71966 ,7.06129 
420 ,91.1474 ,1.75550 ,0.70597 ,6.92697 
421 ,91.3716 ,1.75771 ,0.68886 ,6.75908 
422 ,91.6115 ,1.76001 ,0.70255 ,6.89340 
423 ,91.8355 ,1.76235 ,0.69913 ,6.85982 
424 ,92.0432 ,1.76442 ,0.69570 ,6.82624 
425 ,92.2678 ,1.76663 ,0.70255 ,6.89340 
426 ,92.4759 ,1.76874 ,0.69228 ,6.79266 
427 ,92.6839 ,1.77084 ,0.71966 ,7.06129 
428 ,92.8920 ,1.77293 ,0.69228 ,6.79266 
429 ,93.1160 ,1.77514 ,0.70255 ,6.89340 
430 ,93.3400 ,1.77739 ,0.71281 ,6.99413 
431 ,93.5482 ,1.77943 ,0.70939 ,6.96055 
432 ,93.7725 ,1.78173 ,0.69913 ,6.85982 
433 ,93.9641 ,1.78374 ,0.71624 ,7.02771 
434 ,94.1724 ,1.78571 ,0.69570 ,6.82624 
435 ,94.3806 ,1.78777 ,0.70255 ,6.89340 
436 ,94.5886 ,1.78982 ,0.70939 ,6.96055 
437 ,94.7965 ,1.79201 ,0.69913 ,6.85982 
438 ,95.0208 ,1.79421 ,0.70255 ,6.89340 
439 ,95.2289 ,1.79632 ,0.69913 ,6.85982 
440 ,95.4529 ,1.79855 ,0.69228 ,6.79266 
441 ,95.6931 ,1.80080 ,0.69570 ,6.82624 
442 ,95.9010 ,1.80300 ,0.71281 ,6.99413 
443 ,96.1094 ,1.80505 ,0.69570 ,6.82624 
444 ,96.3173 ,1.80721 ,0.70939 ,6.96055 
445 ,96.5415 ,1.80937 ,0.71281 ,6.99413 
446 ,96.7655 ,1.81158 ,0.70255 ,6.89340 
447 ,96.9738 ,1.81372 ,0.69228 ,6.79266 
448 ,97.1819 ,1.81578 ,0.71624 ,7.02771 
449 ,97.3898 ,1.81788 ,0.69913 ,6.85982 
450 ,97.5975 ,1.81992 ,0.69913 ,6.85982 
451 ,97.8058 ,1.82197 ,0.70597 ,6.92697 
452 ,97.9979 ,1.82404 ,0.69570 ,6.82624 
453 ,98.2060 ,1.82600 ,0.70939 ,6.96055 
454 ,98.4302 ,1.82829 ,0.69913 ,6.85982 
455 ,98.6222 ,1.83033 ,0.71624 ,7.02771 
456 ,98.8464 ,1.83245 ,0.68886 ,6.75908 
457 ,99.0705 ,1.83465 ,0.69913 ,6.85982 
458 ,99.2788 ,1.83672 ,0.70255 ,6.89340 
459 ,99.4867 ,1.83882 ,0.70597 ,6.92697 
460 ,99.6948 ,1.84091 ,0.68886 ,6.75908 
461 ,99.9186 ,1.84317 ,0.71281 ,6.99413 
462 ,100.1748 ,1.84569 ,0.69570 ,6.82624 
463 ,100.3990 ,1.84795 ,0.71281 ,6.99413 
464 ,100.6071 ,1.85003 ,0.71281 ,6.99413 
465 ,100.8153 ,1.85210 ,0.70255 ,6.89340 
466 ,101.0714 ,1.85455 ,0.71281 ,6.99413 
467 ,101.2954 ,1.85691 ,0.68544 ,6.72550 
