Data stamp = , 03-06-2022 09:23:47 755

Calibration Values: 
Slope = , 26.54 , g/V 
Offset Voltage at no contact = , -0.501760 , V 

No , Time , Stage Position ,   Mass , Force 
   ,  (s) ,      (mm)      ,   (g)  , (mN)  

1 ,0.0000 ,0.84961 ,5.27798 ,51.78758 
2 ,0.2089 ,0.84970 ,5.25403 ,51.55254 
3 ,0.8817 ,0.85263 ,5.28141 ,51.82116 
4 ,1.1216 ,0.85550 ,5.27456 ,51.75401 
5 ,1.3457 ,0.85770 ,5.27798 ,51.78758 
6 ,1.5694 ,0.86002 ,5.27114 ,51.72043 
7 ,1.7782 ,0.86217 ,5.25403 ,51.55254 
8 ,2.0021 ,0.86442 ,5.23350 ,51.35107 
9 ,2.1942 ,0.86643 ,5.20612 ,51.08244 
10 ,2.4343 ,0.86859 ,5.18901 ,50.91455 
11 ,2.6739 ,0.87106 ,5.15821 ,50.61234 
12 ,2.8824 ,0.87325 ,5.14794 ,50.51161 
13 ,3.0906 ,0.87525 ,5.12399 ,50.27656 
14 ,3.3147 ,0.87751 ,5.09661 ,50.00793 
15 ,3.5227 ,0.87958 ,5.09319 ,49.97436 
16 ,3.7149 ,0.88165 ,5.05554 ,49.60499 
17 ,3.9547 ,0.88382 ,5.04528 ,49.50426 
18 ,4.1789 ,0.88615 ,5.03159 ,49.36995 
19 ,4.3872 ,0.88821 ,4.99737 ,49.03416 
20 ,4.6110 ,0.89049 ,4.96999 ,48.76554 
21 ,4.8193 ,0.89253 ,4.95972 ,48.66480 
22 ,5.0754 ,0.89497 ,4.93919 ,48.46333 
23 ,5.3154 ,0.89749 ,4.90497 ,48.12755 
24 ,5.5395 ,0.89971 ,4.89470 ,48.02681 
25 ,5.7473 ,0.90182 ,4.86048 ,47.69103 
26 ,5.9396 ,0.90387 ,4.83995 ,47.48956 
27 ,6.1315 ,0.90574 ,4.82626 ,47.35525 
28 ,6.3398 ,0.90769 ,4.81599 ,47.25451 
29 ,6.5479 ,0.90982 ,4.79204 ,47.01946 
30 ,6.7718 ,0.91198 ,4.75782 ,46.68368 
31 ,6.9963 ,0.91428 ,4.73386 ,46.44863 
32 ,7.2037 ,0.91651 ,4.73044 ,46.41506 
33 ,7.4123 ,0.91846 ,4.69964 ,46.11285 
34 ,7.6360 ,0.92067 ,4.67911 ,45.91138 
35 ,7.8443 ,0.92275 ,4.67568 ,45.87780 
36 ,8.0523 ,0.92483 ,4.63119 ,45.44128 
37 ,8.2602 ,0.92693 ,4.62435 ,45.37413 
38 ,8.4850 ,0.92918 ,4.60724 ,45.20624 
39 ,8.7088 ,0.93141 ,4.57302 ,44.87045 
40 ,8.9170 ,0.93348 ,4.56275 ,44.76972 
41 ,9.1250 ,0.93556 ,4.53880 ,44.53467 
42 ,9.3331 ,0.93767 ,4.51142 ,44.26604 
43 ,9.5731 ,0.93998 ,4.50457 ,44.19889 
44 ,9.7970 ,0.94231 ,4.48404 ,43.99742 
45 ,10.0052 ,0.94435 ,4.48062 ,43.96384 
46 ,10.2133 ,0.94641 ,4.43613 ,43.52732 
47 ,10.4214 ,0.94856 ,4.43955 ,43.56090 
48 ,10.6295 ,0.95069 ,4.38480 ,43.02365 
49 ,10.8375 ,0.95264 ,4.38822 ,43.05723 
50 ,11.0459 ,0.95477 ,4.36769 ,42.85576 
51 ,11.2539 ,0.95691 ,4.34031 ,42.58713 
52 ,11.4620 ,0.95896 ,4.34031 ,42.58713 
53 ,11.6536 ,0.96098 ,4.30951 ,42.28492 
54 ,11.8620 ,0.96298 ,4.29924 ,42.18419 
55 ,12.0698 ,0.96506 ,4.28213 ,42.01630 
56 ,12.2939 ,0.96726 ,4.27187 ,41.91556 
57 ,12.5020 ,0.96933 ,4.26160 ,41.81483 
58 ,12.7101 ,0.97137 ,4.22738 ,41.47905 
59 ,12.9346 ,0.97365 ,4.19658 ,41.17684 
60 ,13.1745 ,0.97595 ,4.19658 ,41.17684 
61 ,13.3827 ,0.97812 ,4.16578 ,40.87464 
62 ,13.5909 ,0.98021 ,4.12471 ,40.47170 
63 ,13.8145 ,0.98245 ,4.11787 ,40.40454 
64 ,14.0389 ,0.98475 ,4.11103 ,40.33738 
65 ,14.2627 ,0.98698 ,4.08023 ,40.03518 
66 ,14.4713 ,0.98907 ,4.04258 ,39.66582 
67 ,14.6794 ,0.99115 ,4.04600 ,39.69940 
68 ,14.8874 ,0.99316 ,4.02205 ,39.46435 
69 ,15.1115 ,0.99545 ,4.00152 ,39.26288 
70 ,15.3355 ,0.99764 ,3.98441 ,39.09499 
71 ,15.5437 ,0.99975 ,3.96729 ,38.92709 
72 ,15.7514 ,1.00179 ,3.94334 ,38.69205 
73 ,15.9758 ,1.00405 ,3.93307 ,38.59131 
74 ,16.1836 ,1.00617 ,3.89885 ,38.25553 
75 ,16.3921 ,1.00816 ,3.87832 ,38.05406 
76 ,16.6001 ,1.01026 ,3.88516 ,38.12122 
77 ,16.8081 ,1.01237 ,3.85436 ,37.81901 
78 ,17.0321 ,1.01463 ,3.82356 ,37.51681 
79 ,17.2560 ,1.01682 ,3.81330 ,37.41607 
80 ,17.4805 ,1.01906 ,3.79961 ,37.28176 
81 ,17.7042 ,1.02134 ,3.77223 ,37.01313 
82 ,17.9127 ,1.02341 ,3.73801 ,36.67735 
83 ,18.1364 ,1.02567 ,3.74828 ,36.77808 
84 ,18.3449 ,1.02772 ,3.71748 ,36.47588 
85 ,18.5690 ,1.03000 ,3.67983 ,36.10652 
86 ,18.7769 ,1.03211 ,3.68668 ,36.17367 
87 ,18.9851 ,1.03417 ,3.65588 ,35.87147 
88 ,19.1929 ,1.03621 ,3.64219 ,35.73716 
89 ,19.4168 ,1.03842 ,3.62850 ,35.60284 
90 ,19.6253 ,1.04055 ,3.60112 ,35.33422 
91 ,19.8495 ,1.04279 ,3.57717 ,35.09917 
92 ,20.0734 ,1.04502 ,3.56006 ,34.93128 
93 ,20.2974 ,1.04728 ,3.53952 ,34.72981 
94 ,20.5052 ,1.04935 ,3.51215 ,34.46118 
95 ,20.7138 ,1.05142 ,3.50530 ,34.39402 
96 ,20.9379 ,1.05361 ,3.50530 ,34.39402 
97 ,21.1459 ,1.05571 ,3.46424 ,33.99108 
98 ,21.3701 ,1.05803 ,3.43686 ,33.72246 
99 ,21.5778 ,1.06008 ,3.45055 ,33.85677 
100 ,21.7862 ,1.06216 ,3.41290 ,33.48741 
101 ,21.9938 ,1.06434 ,3.38895 ,33.25236 
102 ,22.2024 ,1.06632 ,3.37526 ,33.11805 
103 ,22.4106 ,1.06839 ,3.35130 ,32.88300 
104 ,22.6345 ,1.07062 ,3.34104 ,32.78227 
105 ,22.8586 ,1.07286 ,3.32735 ,32.64795 
106 ,23.0828 ,1.07512 ,3.29655 ,32.34575 
107 ,23.3229 ,1.07753 ,3.26575 ,32.04354 
108 ,23.5468 ,1.07976 ,3.24864 ,31.87565 
109 ,23.7547 ,1.08180 ,3.25206 ,31.90923 
110 ,23.9793 ,1.08404 ,3.22811 ,31.67418 
111 ,24.2033 ,1.08626 ,3.20073 ,31.40555 
112 ,24.4114 ,1.08843 ,3.18362 ,31.23766 
113 ,24.6513 ,1.09065 ,3.17677 ,31.17051 
114 ,24.8753 ,1.09292 ,3.14255 ,30.83472 
115 ,25.0997 ,1.09531 ,3.12544 ,30.66683 
116 ,25.3235 ,1.09751 ,3.09122 ,30.33105 
117 ,25.5159 ,1.09957 ,3.09806 ,30.39821 
118 ,25.7240 ,1.10150 ,3.05015 ,29.92811 
119 ,25.9321 ,1.10356 ,3.05015 ,29.92811 
120 ,26.1559 ,1.10585 ,3.04673 ,29.89453 
121 ,26.3804 ,1.10809 ,3.01251 ,29.55875 
122 ,26.6041 ,1.11031 ,2.98513 ,29.29012 
123 ,26.8124 ,1.11242 ,2.97829 ,29.22297 
124 ,27.0362 ,1.11458 ,2.96118 ,29.05507 
125 ,27.2442 ,1.11669 ,2.93038 ,28.75287 
126 ,27.4526 ,1.11876 ,2.92696 ,28.71929 
127 ,27.6607 ,1.12088 ,2.90985 ,28.55140 
128 ,27.8849 ,1.12308 ,2.87905 ,28.24919 
129 ,28.1088 ,1.12536 ,2.86536 ,28.11488 
130 ,28.3167 ,1.12742 ,2.85509 ,28.01415 
131 ,28.5249 ,1.12950 ,2.81402 ,27.61121 
132 ,28.7490 ,1.13170 ,2.81060 ,27.57763 
133 ,28.9572 ,1.13382 ,2.81402 ,27.61121 
134 ,29.1653 ,1.13593 ,2.76611 ,27.14111 
135 ,29.3729 ,1.13797 ,2.76954 ,27.17469 
136 ,29.5815 ,1.14006 ,2.73874 ,26.87248 
137 ,29.7896 ,1.14213 ,2.73531 ,26.83891 
138 ,30.0133 ,1.14436 ,2.71136 ,26.60386 
139 ,30.2376 ,1.14659 ,2.70109 ,26.50312 
140 ,30.4453 ,1.14871 ,2.66003 ,26.10018 
141 ,30.6539 ,1.15076 ,2.65660 ,26.06661 
142 ,30.8619 ,1.15288 ,2.63949 ,25.89871 
143 ,31.0860 ,1.15505 ,2.61554 ,25.66367 
144 ,31.2942 ,1.15718 ,2.61896 ,25.69724 
145 ,31.4863 ,1.15925 ,2.58474 ,25.36146 
146 ,31.7102 ,1.16142 ,2.57447 ,25.26073 
147 ,31.9343 ,1.16358 ,2.55736 ,25.09283 
148 ,32.1424 ,1.16567 ,2.52314 ,24.75705 
149 ,32.3663 ,1.16793 ,2.50945 ,24.62274 
150 ,32.5746 ,1.16999 ,2.51287 ,24.65632 
151 ,32.8146 ,1.17233 ,2.48550 ,24.38769 
152 ,33.0384 ,1.17459 ,2.45470 ,24.08549 
153 ,33.2466 ,1.17668 ,2.43074 ,23.85044 
154 ,33.4710 ,1.17892 ,2.42390 ,23.78328 
155 ,33.6950 ,1.18106 ,2.39994 ,23.54823 
156 ,33.9511 ,1.18364 ,2.37599 ,23.31318 
157 ,34.1752 ,1.18597 ,2.37599 ,23.31318 
158 ,34.3833 ,1.18805 ,2.33492 ,22.91024 
159 ,34.5754 ,1.19012 ,2.33834 ,22.94382 
160 ,34.7993 ,1.19219 ,2.32123 ,22.77593 
161 ,35.0233 ,1.19450 ,2.27674 ,22.33941 
162 ,35.2798 ,1.19708 ,2.26306 ,22.20510 
163 ,35.4879 ,1.19909 ,2.25279 ,22.10437 
164 ,35.6959 ,1.20120 ,2.23910 ,21.97005 
165 ,35.9199 ,1.20342 ,2.22883 ,21.86932 
166 ,36.1598 ,1.20584 ,2.20146 ,21.60069 
167 ,36.3842 ,1.20805 ,2.16381 ,21.23133 
168 ,36.5921 ,1.21017 ,2.17066 ,21.29849 
169 ,36.8161 ,1.21234 ,2.15697 ,21.16417 
170 ,37.0081 ,1.21442 ,2.12617 ,20.86197 
171 ,37.2481 ,1.21658 ,2.12959 ,20.89555 
172 ,37.4725 ,1.21891 ,2.10906 ,20.69408 
173 ,37.6645 ,1.22101 ,2.06799 ,20.29114 
174 ,37.8725 ,1.22308 ,2.06115 ,20.22398 
175 ,38.0965 ,1.22516 ,2.05430 ,20.15682 
176 ,38.3208 ,1.22745 ,2.02693 ,19.88820 
177 ,38.5288 ,1.22948 ,2.02350 ,19.85462 
178 ,38.7368 ,1.23161 ,1.99955 ,19.61957 
179 ,38.9612 ,1.23385 ,1.96533 ,19.28379 
180 ,39.1690 ,1.23589 ,1.96533 ,19.28379 
181 ,39.3771 ,1.23795 ,1.95848 ,19.21663 
182 ,39.5856 ,1.24003 ,1.92084 ,18.84727 
183 ,39.7935 ,1.24214 ,1.91742 ,18.81369 
184 ,40.0174 ,1.24436 ,1.89004 ,18.54507 
185 ,40.2256 ,1.24649 ,1.87977 ,18.44433 
186 ,40.4332 ,1.24856 ,1.87635 ,18.41075 
187 ,40.6257 ,1.25057 ,1.84555 ,18.10855 
188 ,40.8498 ,1.25265 ,1.82844 ,17.94066 
189 ,41.0577 ,1.25478 ,1.82160 ,17.87350 
190 ,41.2497 ,1.25684 ,1.78395 ,17.50414 
191 ,41.4578 ,1.25876 ,1.78395 ,17.50414 
192 ,41.6822 ,1.26105 ,1.75657 ,17.23551 
193 ,41.9061 ,1.26325 ,1.73604 ,17.03404 
194 ,42.1142 ,1.26533 ,1.73262 ,17.00046 
195 ,42.3545 ,1.26774 ,1.72235 ,16.89973 
196 ,42.5784 ,1.27000 ,1.70524 ,16.73184 
197 ,42.8026 ,1.27220 ,1.65391 ,16.22816 
198 ,43.0425 ,1.27452 ,1.65391 ,16.22816 
199 ,43.2507 ,1.27680 ,1.64022 ,16.09385 
200 ,43.4427 ,1.27877 ,1.62311 ,15.92596 
201 ,43.6349 ,1.28064 ,1.62311 ,15.92596 
202 ,43.8591 ,1.28280 ,1.58547 ,15.55660 
203 ,44.0828 ,1.28503 ,1.56151 ,15.32155 
204 ,44.2915 ,1.28714 ,1.57178 ,15.42228 
205 ,44.4994 ,1.28919 ,1.53413 ,15.05292 
206 ,44.7071 ,1.29123 ,1.52045 ,14.91861 
207 ,44.9316 ,1.29351 ,1.51702 ,14.88503 
208 ,45.1556 ,1.29578 ,1.50333 ,14.75072 
209 ,45.3636 ,1.29797 ,1.47596 ,14.48209 
210 ,45.5877 ,1.30005 ,1.45885 ,14.31420 
211 ,45.7959 ,1.30214 ,1.45200 ,14.24704 
212 ,46.0035 ,1.30429 ,1.41778 ,13.91126 
213 ,46.2437 ,1.30658 ,1.40067 ,13.74337 
214 ,46.4523 ,1.30865 ,1.40409 ,13.77695 
215 ,46.6764 ,1.31095 ,1.38014 ,13.54190 
216 ,46.9002 ,1.31317 ,1.35276 ,13.27327 
217 ,47.1079 ,1.31521 ,1.34934 ,13.23969 
218 ,47.3325 ,1.31738 ,1.32880 ,13.03822 
219 ,47.5564 ,1.31979 ,1.31512 ,12.90391 
220 ,47.7806 ,1.32189 ,1.28774 ,12.63528 
221 ,47.9888 ,1.32403 ,1.28089 ,12.56813 
222 ,48.1963 ,1.32613 ,1.26378 ,12.40024 
223 ,48.4049 ,1.32818 ,1.24325 ,12.19877 
224 ,48.6131 ,1.33025 ,1.23298 ,12.09803 
225 ,48.8369 ,1.33254 ,1.22614 ,12.03088 
226 ,49.0612 ,1.33482 ,1.19534 ,11.72867 
227 ,49.2688 ,1.33686 ,1.19192 ,11.69509 
228 ,49.4773 ,1.33895 ,1.16796 ,11.46004 
229 ,49.7014 ,1.34116 ,1.15085 ,11.29215 
230 ,49.9416 ,1.34349 ,1.14058 ,11.19142 
231 ,50.1332 ,1.34562 ,1.12005 ,10.98995 
232 ,50.3414 ,1.34754 ,1.10294 ,10.82206 
233 ,50.5817 ,1.34989 ,1.08241 ,10.62059 
234 ,50.8059 ,1.35226 ,1.07556 ,10.55343 
235 ,51.0299 ,1.35445 ,1.05845 ,10.38554 
236 ,51.2379 ,1.35652 ,1.05161 ,10.31838 
237 ,51.4618 ,1.35879 ,1.01054 ,9.91544 
238 ,51.6860 ,1.36099 ,1.00370 ,9.84829 
239 ,51.9103 ,1.36328 ,1.00028 ,9.81471 
240 ,52.1503 ,1.36556 ,0.98317 ,9.64682 
241 ,52.3582 ,1.36774 ,0.96605 ,9.47892 
242 ,52.5664 ,1.36980 ,0.96263 ,9.44535 
243 ,52.7909 ,1.37208 ,0.94894 ,9.31103 
244 ,53.0308 ,1.37434 ,0.92499 ,9.07598 
245 ,53.3024 ,1.37710 ,0.89077 ,8.74020 
246 ,53.5265 ,1.37939 ,0.88392 ,8.67305 
247 ,53.7346 ,1.38149 ,0.87708 ,8.60589 
248 ,53.9591 ,1.38377 ,1.15085 ,11.29215 
249 ,54.1829 ,1.38599 ,1.15427 ,11.32573 
250 ,54.4073 ,1.38815 ,1.15085 ,11.29215 
251 ,54.6315 ,1.39041 ,1.14743 ,11.25857 
252 ,54.8391 ,1.39253 ,1.13374 ,11.12426 
253 ,55.0635 ,1.39482 ,1.12690 ,11.05710 
254 ,55.2878 ,1.39698 ,1.12347 ,11.02353 
255 ,55.4957 ,1.39922 ,1.10979 ,10.88921 
256 ,55.7039 ,1.40115 ,1.08583 ,10.65416 
257 ,55.9280 ,1.40342 ,1.09267 ,10.72132 
258 ,56.1680 ,1.40575 ,1.07899 ,10.58701 
259 ,56.3760 ,1.40790 ,1.07899 ,10.58701 
260 ,56.5682 ,1.40994 ,1.07556 ,10.55343 
261 ,56.7761 ,1.41191 ,1.06187 ,10.41912 
262 ,56.9848 ,1.41399 ,1.03450 ,10.15049 
263 ,57.2084 ,1.41629 ,1.05161 ,10.31838 
264 ,57.4161 ,1.41830 ,1.04476 ,10.25123 
265 ,57.6248 ,1.42042 ,1.02765 ,10.08333 
266 ,57.8809 ,1.42292 ,1.00712 ,9.88186 
267 ,58.1049 ,1.42507 ,1.01739 ,9.98260 
268 ,58.3288 ,1.42736 ,0.99343 ,9.74755 
269 ,58.5369 ,1.42951 ,0.98659 ,9.68039 
270 ,58.7451 ,1.43173 ,0.96605 ,9.47892 
271 ,58.9533 ,1.43367 ,0.98317 ,9.64682 
272 ,59.1452 ,1.43574 ,0.96263 ,9.44535 
273 ,59.3529 ,1.43763 ,0.95579 ,9.37819 
274 ,59.5454 ,1.43970 ,0.93525 ,9.17672 
275 ,59.7694 ,1.44186 ,0.94894 ,9.31103 
276 ,59.9776 ,1.44393 ,0.92157 ,9.04241 
277 ,60.1859 ,1.44597 ,0.91130 ,8.94167 
278 ,60.3934 ,1.44807 ,0.92499 ,9.07598 
279 ,60.6179 ,1.45030 ,0.90788 ,8.90809 
280 ,60.8416 ,1.45251 ,0.88050 ,8.63947 
281 ,61.0501 ,1.45458 ,0.89761 ,8.80736 
282 ,61.2741 ,1.45687 ,0.90446 ,8.87451 
283 ,61.4820 ,1.45897 ,0.87023 ,8.53873 
284 ,61.7063 ,1.46123 ,0.88050 ,8.63947 
285 ,61.9304 ,1.46344 ,0.87366 ,8.57231 
286 ,62.1546 ,1.46554 ,0.85312 ,8.37084 
287 ,62.3627 ,1.46773 ,0.84970 ,8.33726 
288 ,62.5707 ,1.46984 ,0.85654 ,8.40442 
289 ,62.7949 ,1.47197 ,0.83943 ,8.23653 
290 ,63.0190 ,1.47429 ,0.82575 ,8.10221 
291 ,63.2110 ,1.47634 ,0.83259 ,8.16937 
292 ,63.4350 ,1.47846 ,0.83259 ,8.16937 
293 ,63.6593 ,1.48075 ,0.80179 ,7.86717 
294 ,63.8994 ,1.48308 ,0.78810 ,7.73285 
295 ,64.1234 ,1.48537 ,0.79152 ,7.76643 
296 ,64.3154 ,1.48738 ,0.80521 ,7.90074 
297 ,64.5396 ,1.48949 ,0.78126 ,7.66570 
298 ,64.7477 ,1.49159 ,0.79495 ,7.80001 
299 ,64.9718 ,1.49385 ,0.79152 ,7.76643 
300 ,65.1955 ,1.49606 ,0.77441 ,7.59854 
301 ,65.4039 ,1.49815 ,0.76415 ,7.49780 
302 ,65.6122 ,1.50022 ,0.77441 ,7.59854 
303 ,65.8203 ,1.50227 ,0.75388 ,7.39707 
304 ,66.0278 ,1.50437 ,0.75388 ,7.39707 
305 ,66.2524 ,1.50649 ,0.75388 ,7.39707 
306 ,66.4444 ,1.50870 ,0.75046 ,7.36349 
307 ,66.6525 ,1.51061 ,0.75730 ,7.43065 
308 ,66.8764 ,1.51288 ,0.74361 ,7.29633 
309 ,67.0843 ,1.51494 ,0.72992 ,7.16202 
310 ,67.2930 ,1.51705 ,0.74704 ,7.32991 
311 ,67.5169 ,1.51927 ,0.73677 ,7.22918 
312 ,67.7249 ,1.52147 ,0.71624 ,7.02771 
313 ,67.9331 ,1.52342 ,0.73677 ,7.22918 
314 ,68.1568 ,1.52565 ,0.71624 ,7.02771 
315 ,68.3653 ,1.52778 ,0.71966 ,7.06129 
316 ,68.5893 ,1.52995 ,0.71624 ,7.02771 
317 ,68.8135 ,1.53220 ,0.71966 ,7.06129 
318 ,69.0372 ,1.53444 ,0.69570 ,6.82624 
319 ,69.2292 ,1.53651 ,0.71281 ,6.99413 
320 ,69.4538 ,1.53863 ,0.70939 ,6.96055 
321 ,69.6778 ,1.54086 ,0.68544 ,6.72550 
322 ,69.9020 ,1.54303 ,0.68544 ,6.72550 
323 ,70.1101 ,1.54516 ,0.69913 ,6.85982 
324 ,70.3180 ,1.54724 ,0.67517 ,6.62477 
325 ,70.5422 ,1.54954 ,0.67517 ,6.62477 
326 ,70.7661 ,1.55174 ,0.67175 ,6.59119 
327 ,70.9742 ,1.55383 ,0.67517 ,6.62477 
328 ,71.1825 ,1.55596 ,0.67859 ,6.65835 
329 ,71.4066 ,1.55814 ,0.67175 ,6.59119 
330 ,71.6305 ,1.56034 ,0.66490 ,6.52403 
331 ,71.8548 ,1.56263 ,0.66490 ,6.52403 
332 ,72.0464 ,1.56472 ,0.66148 ,6.49046 
333 ,72.2866 ,1.56696 ,0.65806 ,6.45688 
334 ,72.4947 ,1.56900 ,0.66490 ,6.52403 
335 ,72.7027 ,1.57110 ,0.65121 ,6.38972 
336 ,72.9110 ,1.57324 ,0.65806 ,6.45688 
337 ,73.1353 ,1.57541 ,0.63753 ,6.25541 
338 ,73.3434 ,1.57754 ,0.63753 ,6.25541 
339 ,73.5674 ,1.57973 ,0.64779 ,6.35614 
340 ,73.7756 ,1.58181 ,0.63753 ,6.25541 
341 ,73.9838 ,1.58394 ,0.62726 ,6.15467 
342 ,74.1919 ,1.58601 ,0.64437 ,6.32256 
343 ,74.3996 ,1.58812 ,0.62726 ,6.15467 
344 ,74.6078 ,1.59014 ,0.63753 ,6.25541 
345 ,74.8156 ,1.59220 ,0.63753 ,6.25541 
346 ,75.0242 ,1.59432 ,0.63068 ,6.18825 
347 ,75.2158 ,1.59634 ,0.63753 ,6.25541 
348 ,75.4402 ,1.59846 ,0.62042 ,6.08752 
349 ,75.6483 ,1.60054 ,0.63068 ,6.18825 
350 ,75.8560 ,1.60266 ,0.61699 ,6.05394 
351 ,76.0804 ,1.60490 ,0.59304 ,5.81889 
352 ,76.2886 ,1.60706 ,0.60673 ,5.95320 
353 ,76.4968 ,1.60903 ,0.59646 ,5.85247 
354 ,76.7208 ,1.61126 ,0.60330 ,5.91962 
355 ,76.9445 ,1.61347 ,0.61015 ,5.98678 
356 ,77.1686 ,1.61574 ,0.60330 ,5.91962 
357 ,77.3767 ,1.61786 ,0.59646 ,5.85247 
358 ,77.6009 ,1.62004 ,0.58277 ,5.71815 
359 ,77.8254 ,1.62232 ,0.58277 ,5.71815 
360 ,78.0332 ,1.62439 ,0.57935 ,5.68458 
361 ,78.2733 ,1.62676 ,0.58277 ,5.71815 
362 ,78.4815 ,1.62886 ,0.59304 ,5.81889 
363 ,78.7054 ,1.63112 ,0.60330 ,5.91962 
364 ,78.9138 ,1.63321 ,0.60330 ,5.91962 
365 ,79.1378 ,1.63542 ,0.60673 ,5.95320 
366 ,79.4257 ,1.63832 ,0.61699 ,6.05394 
367 ,79.6339 ,1.64038 ,0.59988 ,5.88605 
368 ,79.8419 ,1.64246 ,0.59988 ,5.88605 
369 ,80.0502 ,1.64455 ,0.60673 ,5.95320 
370 ,80.2739 ,1.64680 ,0.61015 ,5.98678 
371 ,80.4983 ,1.64906 ,0.61015 ,5.98678 
372 ,80.7224 ,1.65125 ,0.60330 ,5.91962 
373 ,80.9144 ,1.65331 ,0.60673 ,5.95320 
374 ,81.1227 ,1.65529 ,0.62384 ,6.12109 
375 ,81.3148 ,1.65731 ,0.62042 ,6.08752 
376 ,81.5387 ,1.65940 ,0.62726 ,6.15467 
377 ,81.7627 ,1.66170 ,0.62726 ,6.15467 
378 ,81.9869 ,1.66393 ,0.61699 ,6.05394 
379 ,82.2112 ,1.66607 ,0.60330 ,5.91962 
380 ,82.4349 ,1.66838 ,0.60673 ,5.95320 
381 ,82.6433 ,1.67049 ,0.62042 ,6.08752 
382 ,82.8673 ,1.67273 ,0.62042 ,6.08752 
383 ,83.0755 ,1.67492 ,0.62042 ,6.08752 
384 ,83.2836 ,1.67686 ,0.62042 ,6.08752 
385 ,83.5076 ,1.67910 ,0.62384 ,6.12109 
386 ,83.7317 ,1.68136 ,0.61015 ,5.98678 
387 ,83.9398 ,1.68346 ,0.60673 ,5.95320 
388 ,84.1477 ,1.68552 ,0.63410 ,6.22183 
389 ,84.3561 ,1.68756 ,0.60673 ,5.95320 
390 ,84.5801 ,1.68979 ,0.59646 ,5.85247 
391 ,84.8039 ,1.69206 ,0.64437 ,6.32256 
392 ,85.0123 ,1.69416 ,0.66833 ,6.55761 
393 ,85.2202 ,1.69625 ,0.67175 ,6.59119 
394 ,85.4282 ,1.69833 ,0.68886 ,6.75908 
395 ,85.6362 ,1.70040 ,0.67517 ,6.62477 
396 ,85.8441 ,1.70259 ,0.66833 ,6.55761 
397 ,86.0526 ,1.70457 ,0.67175 ,6.59119 
398 ,86.2763 ,1.70678 ,0.67175 ,6.59119 
399 ,86.4849 ,1.70887 ,0.68201 ,6.69193 
400 ,86.6766 ,1.71092 ,0.67859 ,6.65835 
401 ,86.8849 ,1.71288 ,0.68201 ,6.69193 
402 ,87.1089 ,1.71515 ,0.68201 ,6.69193 
403 ,87.3332 ,1.71734 ,0.66490 ,6.52403 
404 ,87.5412 ,1.71942 ,0.66490 ,6.52403 
405 ,87.7654 ,1.72168 ,0.68201 ,6.69193 
406 ,87.9896 ,1.72397 ,0.67859 ,6.65835 
407 ,88.2133 ,1.72620 ,0.67517 ,6.62477 
408 ,88.4217 ,1.72824 ,0.67859 ,6.65835 
409 ,88.6457 ,1.73047 ,0.68201 ,6.69193 
410 ,88.8538 ,1.73267 ,0.67859 ,6.65835 
411 ,89.0619 ,1.73464 ,0.66833 ,6.55761 
412 ,89.3020 ,1.73700 ,0.69228 ,6.79266 
413 ,89.5263 ,1.73927 ,0.68201 ,6.69193 
414 ,89.7819 ,1.74182 ,0.68201 ,6.69193 
415 ,90.0063 ,1.74407 ,0.69570 ,6.82624 
416 ,90.2142 ,1.74627 ,0.67175 ,6.59119 
417 ,90.4383 ,1.74843 ,0.67517 ,6.62477 
418 ,90.6621 ,1.75060 ,0.68544 ,6.72550 
419 ,90.8868 ,1.75286 ,0.67859 ,6.65835 
420 ,91.1107 ,1.75501 ,0.67175 ,6.59119 
421 ,91.3348 ,1.75721 ,0.67517 ,6.62477 
422 ,91.5910 ,1.75982 ,0.66833 ,6.55761 
423 ,91.8149 ,1.76216 ,0.66833 ,6.55761 
424 ,92.0231 ,1.76436 ,0.67859 ,6.65835 
425 ,92.2312 ,1.76637 ,0.66833 ,6.55761 
426 ,92.4391 ,1.76841 ,0.68201 ,6.69193 
427 ,92.6792 ,1.77080 ,0.69228 ,6.79266 
428 ,92.9034 ,1.77301 ,0.68544 ,6.72550 
429 ,93.1115 ,1.77511 ,0.66490 ,6.52403 
430 ,93.3197 ,1.77718 ,0.67175 ,6.59119 
431 ,93.5277 ,1.77928 ,0.68544 ,6.72550 
432 ,93.7515 ,1.78151 ,0.67175 ,6.59119 
433 ,93.9598 ,1.78363 ,0.68201 ,6.69193 
434 ,94.1677 ,1.78565 ,0.67859 ,6.65835 
435 ,94.3760 ,1.78772 ,0.66833 ,6.55761 
436 ,94.6001 ,1.78997 ,0.68201 ,6.69193 
437 ,94.8082 ,1.79205 ,0.67859 ,6.65835 
438 ,95.0322 ,1.79431 ,0.67175 ,6.59119 
439 ,95.2244 ,1.79636 ,0.67517 ,6.62477 
440 ,95.4324 ,1.79835 ,0.66148 ,6.49046 
441 ,95.6563 ,1.80053 ,0.66833 ,6.55761 
442 ,95.8965 ,1.80281 ,0.68544 ,6.72550 
443 ,96.1048 ,1.80502 ,0.68886 ,6.75908 
444 ,96.3128 ,1.80712 ,0.67517 ,6.62477 
445 ,96.5369 ,1.80935 ,0.68201 ,6.69193 
446 ,96.7449 ,1.81142 ,0.68544 ,6.72550 
447 ,96.9366 ,1.81348 ,0.67859 ,6.65835 
448 ,97.1452 ,1.81543 ,0.69228 ,6.79266 
449 ,97.3693 ,1.81766 ,0.67859 ,6.65835 
450 ,97.5772 ,1.81976 ,0.68201 ,6.69193 
451 ,97.7855 ,1.82183 ,0.67859 ,6.65835 
452 ,97.9931 ,1.82394 ,0.67175 ,6.59119 
453 ,98.2176 ,1.82619 ,0.68201 ,6.69193 
454 ,98.4415 ,1.82837 ,0.68886 ,6.75908 
455 ,98.6659 ,1.83063 ,0.69570 ,6.82624 
456 ,98.8900 ,1.83288 ,0.68886 ,6.75908 
457 ,99.1136 ,1.83509 ,0.67175 ,6.59119 
458 ,99.3220 ,1.83731 ,0.69228 ,6.79266 
459 ,99.5140 ,1.83926 ,0.67859 ,6.65835 
460 ,99.7382 ,1.84132 ,0.67517 ,6.62477 
461 ,99.9623 ,1.84360 ,0.68886 ,6.75908 
462 ,100.1540 ,1.84562 ,0.67859 ,6.65835 
463 ,100.3945 ,1.84770 ,0.68201 ,6.69193 
464 ,100.6345 ,1.85034 ,0.67859 ,6.65835 
465 ,100.8585 ,1.85255 ,0.68201 ,6.69193 
466 ,101.0824 ,1.85478 ,0.68201 ,6.69193 
467 ,101.2907 ,1.85684 ,0.66148 ,6.49046 
468 ,101.4990 ,1.85892 ,0.68544 ,6.72550 
