Data stamp = , 02-06-2022 12:12:45 460

Calibration Values: 
Slope = , 26.54 , g/V 
Offset Voltage at no contact = , -0.501760 , V 

No , Time , Stage Position ,   Mass , Force 
   ,  (s) ,      (mm)      ,   (g)  , (mN)  

1 ,0.0000 ,0.84955 ,5.38749 ,52.86209 
2 ,0.2108 ,0.84964 ,5.39092 ,52.89567 
3 ,1.0432 ,0.85328 ,5.38065 ,52.79493 
4 ,1.2993 ,0.85706 ,5.41145 ,53.09714 
5 ,1.5235 ,0.85943 ,5.41145 ,53.09714 
6 ,1.7635 ,0.86177 ,5.38065 ,52.79493 
7 ,2.0037 ,0.86430 ,5.37038 ,52.69420 
8 ,2.2277 ,0.86652 ,5.34301 ,52.42557 
9 ,2.4678 ,0.86897 ,5.31563 ,52.15694 
10 ,2.7077 ,0.87139 ,5.28483 ,51.85474 
11 ,2.9319 ,0.87369 ,5.25745 ,51.58611 
12 ,3.1719 ,0.87606 ,5.23007 ,51.31749 
13 ,3.4121 ,0.87835 ,5.20270 ,51.04886 
14 ,3.6521 ,0.88074 ,5.18901 ,50.91455 
15 ,3.8604 ,0.88291 ,5.17532 ,50.78023 
16 ,4.0843 ,0.88512 ,5.16505 ,50.67950 
17 ,4.2924 ,0.88733 ,5.13768 ,50.41087 
18 ,4.5167 ,0.88940 ,5.10688 ,50.10867 
19 ,4.7406 ,0.89170 ,5.08634 ,49.90720 
20 ,4.9647 ,0.89389 ,5.07265 ,49.77289 
21 ,5.1888 ,0.89624 ,5.05212 ,49.57142 
22 ,5.4290 ,0.89854 ,5.03159 ,49.36995 
23 ,5.6370 ,0.90070 ,4.99394 ,49.00058 
24 ,5.8451 ,0.90282 ,4.99737 ,49.03416 
25 ,6.0531 ,0.90492 ,4.96315 ,48.69838 
26 ,6.2772 ,0.90705 ,4.93577 ,48.42975 
27 ,6.5174 ,0.90944 ,4.90155 ,48.09397 
28 ,6.7253 ,0.91156 ,4.90497 ,48.12755 
29 ,6.9335 ,0.91374 ,4.88444 ,47.92608 
30 ,7.1418 ,0.91572 ,4.86048 ,47.69103 
31 ,7.3497 ,0.91791 ,4.85021 ,47.59030 
32 ,7.5898 ,0.92011 ,4.80915 ,47.18736 
33 ,7.8140 ,0.92240 ,4.79204 ,47.01946 
34 ,8.0381 ,0.92463 ,4.75439 ,46.65010 
35 ,8.2620 ,0.92693 ,4.74755 ,46.58295 
36 ,8.4862 ,0.92910 ,4.73386 ,46.44863 
37 ,8.7423 ,0.93163 ,4.72017 ,46.31432 
38 ,8.9503 ,0.93387 ,4.70306 ,46.14643 
39 ,9.1744 ,0.93606 ,4.65515 ,45.67633 
40 ,9.4145 ,0.93837 ,4.63804 ,45.50844 
41 ,9.6705 ,0.94079 ,4.61066 ,45.23981 
42 ,9.8947 ,0.94324 ,4.58328 ,44.97119 
43 ,10.1189 ,0.94546 ,4.56275 ,44.76972 
44 ,10.3268 ,0.94762 ,4.55249 ,44.66898 
45 ,10.5509 ,0.94977 ,4.54564 ,44.60183 
46 ,10.7590 ,0.95190 ,4.51484 ,44.29962 
47 ,10.9831 ,0.95419 ,4.48746 ,44.03100 
48 ,11.1912 ,0.95624 ,4.48062 ,43.96384 
49 ,11.4154 ,0.95839 ,4.45324 ,43.69521 
50 ,11.6554 ,0.96066 ,4.42244 ,43.39301 
51 ,11.8796 ,0.96308 ,4.42244 ,43.39301 
52 ,12.1197 ,0.96543 ,4.39507 ,43.12438 
53 ,12.3279 ,0.96757 ,4.39164 ,43.09080 
54 ,12.5358 ,0.96967 ,4.35400 ,42.72144 
55 ,12.7440 ,0.97175 ,4.34373 ,42.62071 
56 ,12.9681 ,0.97391 ,4.32662 ,42.45282 
57 ,13.2081 ,0.97629 ,4.29924 ,42.18419 
58 ,13.4163 ,0.97844 ,4.27529 ,41.94914 
59 ,13.6403 ,0.98066 ,4.25818 ,41.78125 
60 ,13.8644 ,0.98295 ,4.24107 ,41.61336 
61 ,14.0885 ,0.98515 ,4.23422 ,41.54620 
62 ,14.3285 ,0.98748 ,4.20342 ,41.24400 
63 ,14.5847 ,0.99009 ,4.17262 ,40.94179 
64 ,14.8567 ,0.99258 ,4.15209 ,40.74032 
65 ,15.1128 ,0.99526 ,4.12129 ,40.43812 
66 ,15.3529 ,0.99770 ,4.09049 ,40.13591 
67 ,15.5929 ,1.00022 ,4.08365 ,40.06876 
68 ,15.8331 ,1.00251 ,4.05627 ,39.80013 
69 ,16.0732 ,1.00497 ,4.03574 ,39.59866 
70 ,16.2973 ,1.00719 ,4.01520 ,39.39719 
71 ,16.5213 ,1.00953 ,3.99125 ,39.16214 
72 ,16.7455 ,1.01170 ,3.98098 ,39.06141 
73 ,16.9697 ,1.01391 ,3.95703 ,38.82636 
74 ,17.1776 ,1.01611 ,3.93307 ,38.59131 
75 ,17.3857 ,1.01809 ,3.92623 ,38.52415 
76 ,17.5938 ,1.02019 ,3.89885 ,38.25553 
77 ,17.8178 ,1.02239 ,3.88858 ,38.15479 
78 ,18.0421 ,1.02469 ,3.85436 ,37.81901 
79 ,18.2661 ,1.02686 ,3.84067 ,37.68470 
80 ,18.4742 ,1.02903 ,3.82699 ,37.55038 
81 ,18.7142 ,1.03132 ,3.79619 ,37.24818 
82 ,18.9223 ,1.03360 ,3.76881 ,36.97955 
83 ,19.1304 ,1.03562 ,3.77565 ,37.04671 
84 ,19.3546 ,1.03775 ,3.73117 ,36.61019 
85 ,19.5947 ,1.04010 ,3.70037 ,36.30799 
86 ,19.8187 ,1.04236 ,3.68325 ,36.14010 
87 ,20.0428 ,1.04464 ,3.67641 ,36.07294 
88 ,20.2509 ,1.04674 ,3.67983 ,36.10652 
89 ,20.4750 ,1.04889 ,3.63877 ,35.70358 
90 ,20.6831 ,1.05112 ,3.61481 ,35.46853 
91 ,20.9071 ,1.05333 ,3.62850 ,35.60284 
92 ,21.1634 ,1.05580 ,3.59428 ,35.26706 
93 ,21.4034 ,1.05836 ,3.54979 ,34.83054 
94 ,21.6274 ,1.06046 ,3.54979 ,34.83054 
95 ,21.8515 ,1.06278 ,3.52926 ,34.62907 
96 ,22.0597 ,1.06482 ,3.50188 ,34.36045 
97 ,22.2997 ,1.06714 ,3.48477 ,34.19255 
98 ,22.5238 ,1.06944 ,3.45739 ,33.92393 
99 ,22.7478 ,1.07168 ,3.45397 ,33.89035 
100 ,22.9560 ,1.07381 ,3.41975 ,33.55457 
101 ,23.1801 ,1.07597 ,3.39579 ,33.31952 
102 ,23.4044 ,1.07823 ,3.38553 ,33.21878 
103 ,23.6444 ,1.08053 ,3.37526 ,33.11805 
104 ,23.8683 ,1.08285 ,3.35473 ,32.91658 
105 ,24.0766 ,1.08500 ,3.32051 ,32.58080 
106 ,24.2846 ,1.08712 ,3.30682 ,32.44648 
107 ,24.5087 ,1.08930 ,3.29313 ,32.31217 
108 ,24.7167 ,1.09139 ,3.25891 ,31.97639 
109 ,24.9410 ,1.09366 ,3.24180 ,31.80849 
110 ,25.1489 ,1.09567 ,3.22811 ,31.67418 
111 ,25.3730 ,1.09786 ,3.21784 ,31.57345 
112 ,25.6131 ,1.10034 ,3.19046 ,31.30482 
113 ,25.8213 ,1.10251 ,3.16993 ,31.10335 
114 ,26.0455 ,1.10464 ,3.15624 ,30.96904 
115 ,26.2533 ,1.10685 ,3.14255 ,30.83472 
116 ,26.4775 ,1.10900 ,3.11175 ,30.53252 
117 ,26.7177 ,1.11133 ,3.10491 ,30.46536 
118 ,26.9419 ,1.11365 ,3.06726 ,30.09600 
119 ,27.1657 ,1.11580 ,3.06042 ,30.02884 
120 ,27.3738 ,1.11800 ,3.05358 ,29.96169 
121 ,27.6139 ,1.12019 ,3.01251 ,29.55875 
122 ,27.8541 ,1.12268 ,3.00909 ,29.52517 
123 ,28.0621 ,1.12487 ,2.98171 ,29.25654 
124 ,28.2862 ,1.12700 ,2.97487 ,29.18939 
125 ,28.5103 ,1.12936 ,2.95776 ,29.02150 
126 ,28.7184 ,1.13138 ,2.91327 ,28.58498 
127 ,28.9584 ,1.13386 ,2.90300 ,28.48424 
128 ,29.1825 ,1.13603 ,2.87905 ,28.24919 
129 ,29.4226 ,1.13829 ,2.88589 ,28.31635 
130 ,29.6468 ,1.14061 ,2.84482 ,27.91341 
131 ,29.8708 ,1.14291 ,2.84825 ,27.94699 
132 ,30.0949 ,1.14519 ,2.82087 ,27.67836 
133 ,30.3189 ,1.14743 ,2.77980 ,27.27542 
134 ,30.5432 ,1.14959 ,2.77296 ,27.20827 
135 ,30.7512 ,1.15180 ,2.76269 ,27.10753 
136 ,30.9752 ,1.15390 ,2.75585 ,27.04038 
137 ,31.2154 ,1.15629 ,2.72847 ,26.77175 
138 ,31.4235 ,1.15857 ,2.69767 ,26.46954 
139 ,31.6476 ,1.16056 ,2.70452 ,26.53670 
140 ,31.8718 ,1.16288 ,2.67029 ,26.20092 
141 ,32.0957 ,1.16508 ,2.64976 ,25.99945 
142 ,32.3358 ,1.16749 ,2.62238 ,25.73082 
143 ,32.5598 ,1.16975 ,2.59501 ,25.46220 
144 ,32.7841 ,1.17193 ,2.59501 ,25.46220 
145 ,33.0082 ,1.17428 ,2.57789 ,25.29430 
146 ,33.2162 ,1.17636 ,2.55736 ,25.09283 
147 ,33.4243 ,1.17854 ,2.53341 ,24.85779 
148 ,33.6803 ,1.18100 ,2.50603 ,24.58916 
149 ,33.9045 ,1.18327 ,2.49918 ,24.52200 
150 ,34.1126 ,1.18528 ,2.49576 ,24.48842 
151 ,34.3367 ,1.18754 ,2.45812 ,24.11906 
152 ,34.5607 ,1.18988 ,2.44101 ,23.95117 
153 ,34.7848 ,1.19200 ,2.42048 ,23.74970 
154 ,34.9930 ,1.19415 ,2.42048 ,23.74970 
155 ,35.2009 ,1.19616 ,2.38625 ,23.41392 
156 ,35.4250 ,1.19840 ,2.37256 ,23.27961 
157 ,35.6653 ,1.20081 ,2.34861 ,23.04456 
158 ,35.8733 ,1.20288 ,2.35203 ,23.07814 
159 ,36.0974 ,1.20511 ,2.31781 ,22.74235 
160 ,36.3213 ,1.20738 ,2.29043 ,22.47373 
161 ,36.5456 ,1.20960 ,2.28017 ,22.37299 
162 ,36.7857 ,1.21200 ,2.26306 ,22.20510 
163 ,36.9938 ,1.21417 ,2.24594 ,22.03721 
164 ,37.2018 ,1.21623 ,2.22199 ,21.80216 
165 ,37.4259 ,1.21839 ,2.21172 ,21.70143 
166 ,37.6340 ,1.22056 ,2.20830 ,21.66785 
167 ,37.8580 ,1.22271 ,2.18092 ,21.39922 
168 ,38.0823 ,1.22494 ,2.15697 ,21.16417 
169 ,38.3063 ,1.22716 ,2.15012 ,21.09702 
170 ,38.5144 ,1.22940 ,2.13301 ,20.92912 
171 ,38.7385 ,1.23147 ,2.11248 ,20.72766 
172 ,38.9625 ,1.23370 ,2.08168 ,20.42545 
173 ,39.1866 ,1.23601 ,2.06799 ,20.29114 
174 ,39.4108 ,1.23827 ,2.06457 ,20.25756 
175 ,39.6349 ,1.24055 ,2.03719 ,19.98893 
176 ,39.8590 ,1.24267 ,2.02008 ,19.82104 
177 ,40.0829 ,1.24491 ,1.98928 ,19.51884 
178 ,40.3071 ,1.24719 ,1.97559 ,19.38452 
179 ,40.5312 ,1.24949 ,1.97217 ,19.35094 
180 ,40.7392 ,1.25156 ,1.95164 ,19.14948 
181 ,40.9633 ,1.25378 ,1.92426 ,18.88085 
182 ,41.2035 ,1.25605 ,1.90715 ,18.71296 
183 ,41.4275 ,1.25840 ,1.88662 ,18.51149 
184 ,41.6356 ,1.26060 ,1.87977 ,18.44433 
185 ,41.8437 ,1.26270 ,1.85582 ,18.20928 
186 ,42.0677 ,1.26477 ,1.83871 ,18.04139 
187 ,42.2918 ,1.26702 ,1.83871 ,18.04139 
188 ,42.4999 ,1.26915 ,1.82160 ,17.87350 
189 ,42.7401 ,1.27141 ,1.78395 ,17.50414 
190 ,42.9640 ,1.27376 ,1.76684 ,17.33625 
191 ,43.1722 ,1.27594 ,1.76342 ,17.30267 
192 ,43.4122 ,1.27813 ,1.75315 ,17.20193 
193 ,43.6203 ,1.28040 ,1.72920 ,16.96689 
194 ,43.8606 ,1.28261 ,1.69155 ,16.59752 
195 ,44.0846 ,1.28500 ,1.68471 ,16.53037 
196 ,44.3247 ,1.28740 ,1.66075 ,16.29532 
197 ,44.5487 ,1.28956 ,1.64707 ,16.16101 
198 ,44.8049 ,1.29190 ,1.64707 ,16.16101 
199 ,45.0292 ,1.29443 ,1.60600 ,15.75807 
200 ,45.2532 ,1.29663 ,1.60942 ,15.79164 
201 ,45.4772 ,1.29884 ,1.58889 ,15.59018 
202 ,45.7172 ,1.30126 ,1.55124 ,15.22081 
203 ,45.9254 ,1.30348 ,1.54782 ,15.18724 
204 ,46.1336 ,1.30556 ,1.52729 ,14.98577 
205 ,46.3575 ,1.30766 ,1.51702 ,14.88503 
206 ,46.5817 ,1.30992 ,1.50333 ,14.75072 
207 ,46.8056 ,1.31215 ,1.46911 ,14.41493 
208 ,47.0139 ,1.31428 ,1.48280 ,14.54925 
209 ,47.2380 ,1.31641 ,1.45542 ,14.28062 
210 ,47.4621 ,1.31868 ,1.42120 ,13.94484 
211 ,47.6861 ,1.32094 ,1.42120 ,13.94484 
212 ,47.9101 ,1.32327 ,1.39725 ,13.70979 
213 ,48.1343 ,1.32547 ,1.36987 ,13.44116 
214 ,48.3584 ,1.32767 ,1.35618 ,13.30685 
215 ,48.5826 ,1.32992 ,1.33565 ,13.10538 
216 ,48.8067 ,1.33218 ,1.32196 ,12.97107 
217 ,49.0307 ,1.33449 ,1.30143 ,12.76960 
218 ,49.2548 ,1.33671 ,1.30827 ,12.83675 
219 ,49.4789 ,1.33891 ,1.27747 ,12.53455 
220 ,49.7030 ,1.34105 ,1.26378 ,12.40024 
221 ,49.9272 ,1.34336 ,1.24325 ,12.19877 
222 ,50.1352 ,1.34556 ,1.22614 ,12.03088 
223 ,50.3433 ,1.34760 ,1.20218 ,11.79583 
224 ,50.5514 ,1.34968 ,1.19192 ,11.69509 
225 ,50.7754 ,1.35184 ,1.18850 ,11.66151 
226 ,50.9836 ,1.35405 ,1.16796 ,11.46004 
227 ,51.2076 ,1.35615 ,1.14401 ,11.22500 
228 ,51.4318 ,1.35844 ,1.13032 ,11.09068 
229 ,51.6559 ,1.36066 ,1.12347 ,11.02353 
230 ,51.8959 ,1.36293 ,1.11321 ,10.92279 
231 ,52.1040 ,1.36525 ,1.09267 ,10.72132 
232 ,52.3281 ,1.36739 ,1.05845 ,10.38554 
233 ,52.5521 ,1.36962 ,1.05161 ,10.31838 
234 ,52.7603 ,1.37171 ,1.04819 ,10.28480 
235 ,52.9843 ,1.37392 ,1.00028 ,9.81471 
236 ,53.2244 ,1.37620 ,1.00370 ,9.84829 
237 ,53.4806 ,1.37885 ,0.97632 ,9.57966 
238 ,53.7368 ,1.38137 ,0.96948 ,9.51250 
239 ,53.9449 ,1.38356 ,1.26378 ,12.40024 
240 ,54.1849 ,1.38596 ,1.24667 ,12.23235 
241 ,54.4410 ,1.38844 ,1.24667 ,12.23235 
242 ,54.7131 ,1.39105 ,1.23298 ,12.09803 
243 ,54.9693 ,1.39373 ,1.23298 ,12.09803 
244 ,55.2093 ,1.39624 ,1.21245 ,11.89656 
245 ,55.4654 ,1.39869 ,1.19192 ,11.69509 
246 ,55.7215 ,1.40122 ,1.18850 ,11.66151 
247 ,55.9776 ,1.40380 ,1.18165 ,11.59436 
248 ,56.2337 ,1.40637 ,1.17138 ,11.49362 
249 ,56.4898 ,1.40890 ,1.15427 ,11.32573 
250 ,56.7459 ,1.41151 ,1.13374 ,11.12426 
251 ,57.0500 ,1.41449 ,1.13374 ,11.12426 
252 ,57.3061 ,1.41708 ,1.11321 ,10.92279 
253 ,57.5622 ,1.41964 ,1.09610 ,10.75490 
254 ,57.8183 ,1.42222 ,1.09610 ,10.75490 
255 ,58.0904 ,1.42485 ,1.09952 ,10.78848 
256 ,58.3466 ,1.42746 ,1.07214 ,10.51985 
257 ,58.5707 ,1.42979 ,1.06187 ,10.41912 
258 ,58.7947 ,1.43201 ,1.06530 ,10.45270 
259 ,59.0028 ,1.43416 ,1.05845 ,10.38554 
260 ,59.2430 ,1.43641 ,1.03792 ,10.18407 
261 ,59.4510 ,1.43862 ,1.02765 ,10.08333 
262 ,59.6590 ,1.44076 ,1.03792 ,10.18407 
263 ,59.8672 ,1.44278 ,1.02081 ,10.01618 
264 ,60.0753 ,1.44489 ,1.01396 ,9.94902 
265 ,60.3474 ,1.44738 ,1.01396 ,9.94902 
266 ,60.6035 ,1.45008 ,0.98659 ,9.68039 
267 ,60.8596 ,1.45260 ,0.99001 ,9.71397 
268 ,61.1157 ,1.45518 ,0.98317 ,9.64682 
269 ,61.3718 ,1.45777 ,0.97974 ,9.61324 
270 ,61.6279 ,1.46028 ,0.94894 ,9.31103 
271 ,61.8839 ,1.46285 ,0.92841 ,9.10956 
272 ,62.1401 ,1.46546 ,0.94210 ,9.24388 
273 ,62.3802 ,1.46785 ,0.91814 ,9.00883 
274 ,62.6042 ,1.47006 ,0.92499 ,9.07598 
275 ,62.8284 ,1.47234 ,0.90103 ,8.84094 
276 ,63.0844 ,1.47480 ,0.89077 ,8.74020 
277 ,63.3086 ,1.47716 ,0.87366 ,8.57231 
278 ,63.5326 ,1.47939 ,0.88050 ,8.63947 
279 ,63.7728 ,1.48178 ,0.87023 ,8.53873 
280 ,63.9968 ,1.48398 ,0.88392 ,8.67305 
281 ,64.2209 ,1.48624 ,0.88050 ,8.63947 
282 ,64.4290 ,1.48844 ,0.85997 ,8.43800 
283 ,64.6372 ,1.49045 ,0.87708 ,8.60589 
284 ,64.8611 ,1.49271 ,0.86681 ,8.50515 
285 ,65.0853 ,1.49488 ,0.84970 ,8.33726 
286 ,65.3094 ,1.49714 ,0.83943 ,8.23653 
287 ,65.5495 ,1.49948 ,0.84628 ,8.30368 
288 ,65.7575 ,1.50171 ,0.83601 ,8.20295 
289 ,65.9976 ,1.50395 ,0.82917 ,8.13579 
290 ,66.2217 ,1.50619 ,0.82917 ,8.13579 
291 ,66.4459 ,1.50853 ,0.83259 ,8.16937 
292 ,66.6699 ,1.51077 ,0.79837 ,7.83359 
293 ,66.8940 ,1.51294 ,0.80863 ,7.93432 
294 ,67.1341 ,1.51538 ,0.80179 ,7.86717 
295 ,67.3422 ,1.51761 ,0.81206 ,7.96790 
296 ,67.5663 ,1.51966 ,0.79837 ,7.83359 
297 ,67.7904 ,1.52192 ,0.77099 ,7.56496 
298 ,68.0144 ,1.52417 ,0.79152 ,7.76643 
299 ,68.2545 ,1.52659 ,0.78810 ,7.73285 
300 ,68.4786 ,1.52883 ,0.78468 ,7.69927 
301 ,68.7508 ,1.53150 ,0.76415 ,7.49780 
302 ,68.9749 ,1.53382 ,0.75388 ,7.39707 
303 ,69.1990 ,1.53603 ,0.77441 ,7.59854 
304 ,69.4230 ,1.53829 ,0.75730 ,7.43065 
305 ,69.6472 ,1.54053 ,0.74019 ,7.26276 
306 ,69.8712 ,1.54269 ,0.74704 ,7.32991 
307 ,70.0953 ,1.54499 ,0.74361 ,7.29633 
308 ,70.3195 ,1.54722 ,0.74019 ,7.26276 
309 ,70.5595 ,1.54956 ,0.72650 ,7.12844 
310 ,70.7836 ,1.55185 ,0.72650 ,7.12844 
311 ,71.0078 ,1.55410 ,0.71624 ,7.02771 
312 ,71.2318 ,1.55632 ,0.71281 ,6.99413 
313 ,71.4559 ,1.55854 ,0.72650 ,7.12844 
314 ,71.6800 ,1.56090 ,0.72308 ,7.09486 
315 ,71.9040 ,1.56310 ,0.70597 ,6.92697 
316 ,72.1121 ,1.56515 ,0.69913 ,6.85982 
317 ,72.3363 ,1.56740 ,0.71966 ,7.06129 
318 ,72.5603 ,1.56960 ,0.71281 ,6.99413 
319 ,72.7844 ,1.57193 ,0.70597 ,6.92697 
320 ,72.9925 ,1.57401 ,0.68544 ,6.72550 
321 ,73.2167 ,1.57617 ,0.70255 ,6.89340 
322 ,73.4247 ,1.57834 ,0.70597 ,6.92697 
323 ,73.6488 ,1.58049 ,0.68886 ,6.75908 
324 ,73.8888 ,1.58289 ,0.67859 ,6.65835 
325 ,74.1289 ,1.58521 ,0.68201 ,6.69193 
326 ,74.3531 ,1.58751 ,0.68201 ,6.69193 
327 ,74.5931 ,1.58999 ,0.66833 ,6.55761 
328 ,74.8173 ,1.59213 ,0.68201 ,6.69193 
329 ,75.0414 ,1.59442 ,0.67175 ,6.59119 
330 ,75.2815 ,1.59675 ,0.66833 ,6.55761 
331 ,75.5055 ,1.59911 ,0.65806 ,6.45688 
332 ,75.7296 ,1.60137 ,0.64779 ,6.35614 
333 ,75.9537 ,1.60356 ,0.65806 ,6.45688 
334 ,76.1778 ,1.60579 ,0.65464 ,6.42330 
335 ,76.4019 ,1.60802 ,0.65806 ,6.45688 
336 ,76.6260 ,1.61026 ,0.64437 ,6.32256 
337 ,76.8501 ,1.61249 ,0.64437 ,6.32256 
338 ,77.0742 ,1.61471 ,0.66148 ,6.49046 
339 ,77.3143 ,1.61710 ,0.66148 ,6.49046 
340 ,77.5384 ,1.61939 ,0.66490 ,6.52403 
341 ,77.7625 ,1.62162 ,0.66833 ,6.55761 
342 ,77.9706 ,1.62378 ,0.63410 ,6.22183 
343 ,78.1947 ,1.62596 ,0.65464 ,6.42330 
344 ,78.4347 ,1.62825 ,0.65121 ,6.38972 
345 ,78.6429 ,1.63052 ,0.66490 ,6.52403 
346 ,78.8669 ,1.63267 ,0.63410 ,6.22183 
347 ,79.0910 ,1.63494 ,0.64095 ,6.28899 
348 ,79.3151 ,1.63714 ,0.64095 ,6.28899 
349 ,79.5393 ,1.63942 ,0.64437 ,6.32256 
350 ,79.7632 ,1.64165 ,0.63068 ,6.18825 
351 ,80.0514 ,1.64449 ,0.64779 ,6.35614 
352 ,80.2754 ,1.64678 ,0.63068 ,6.18825 
353 ,80.4995 ,1.64904 ,0.63753 ,6.25541 
354 ,80.7236 ,1.65121 ,0.62726 ,6.15467 
355 ,80.9478 ,1.65348 ,0.61357 ,6.02036 
356 ,81.1719 ,1.65567 ,0.61699 ,6.05394 
357 ,81.3960 ,1.65793 ,0.61699 ,6.05394 
358 ,81.6200 ,1.66026 ,0.63753 ,6.25541 
359 ,81.8441 ,1.66247 ,0.63410 ,6.22183 
360 ,82.0682 ,1.66469 ,0.68201 ,6.69193 
361 ,82.2923 ,1.66688 ,0.69570 ,6.82624 
362 ,82.5164 ,1.66912 ,0.70939 ,6.96055 
363 ,82.7406 ,1.67144 ,0.70255 ,6.89340 
364 ,82.9806 ,1.67377 ,0.69228 ,6.79266 
365 ,83.2368 ,1.67629 ,0.68544 ,6.72550 
366 ,83.4609 ,1.67862 ,0.70255 ,6.89340 
367 ,83.6850 ,1.68090 ,0.67859 ,6.65835 
368 ,83.9251 ,1.68323 ,0.70255 ,6.89340 
369 ,84.1492 ,1.68546 ,0.69228 ,6.79266 
370 ,84.3732 ,1.68773 ,0.71281 ,6.99413 
371 ,84.5974 ,1.68990 ,0.70255 ,6.89340 
372 ,84.8215 ,1.69216 ,0.71624 ,7.02771 
373 ,85.0615 ,1.69461 ,0.71281 ,6.99413 
374 ,85.2857 ,1.69681 ,0.69570 ,6.82624 
375 ,85.5097 ,1.69906 ,0.69228 ,6.79266 
376 ,85.7338 ,1.70130 ,0.70939 ,6.96055 
377 ,85.9579 ,1.70355 ,0.72308 ,7.09486 
378 ,86.2140 ,1.70595 ,0.71624 ,7.02771 
379 ,86.4381 ,1.70833 ,0.71624 ,7.02771 
380 ,86.6621 ,1.71059 ,0.70255 ,6.89340 
381 ,86.8862 ,1.71286 ,0.69228 ,6.79266 
382 ,87.1424 ,1.71531 ,0.70597 ,6.92697 
383 ,87.4144 ,1.71795 ,0.72308 ,7.09486 
384 ,87.6705 ,1.72066 ,0.70597 ,6.92697 
385 ,87.9267 ,1.72321 ,0.70255 ,6.89340 
386 ,88.1988 ,1.72583 ,0.70939 ,6.96055 
387 ,88.4709 ,1.72856 ,0.72308 ,7.09486 
388 ,88.7110 ,1.73107 ,0.69913 ,6.85982 
389 ,88.9351 ,1.73327 ,0.71281 ,6.99413 
390 ,89.1432 ,1.73545 ,0.70939 ,6.96055 
391 ,89.3673 ,1.73757 ,0.70255 ,6.89340 
392 ,89.6234 ,1.74022 ,0.71281 ,6.99413 
393 ,89.8634 ,1.74260 ,0.69913 ,6.85982 
394 ,90.1196 ,1.74507 ,0.69913 ,6.85982 
395 ,90.3437 ,1.74733 ,0.69913 ,6.85982 
396 ,90.5838 ,1.74969 ,0.69570 ,6.82624 
397 ,90.8399 ,1.75235 ,0.70939 ,6.96055 
398 ,91.0960 ,1.75481 ,0.71281 ,6.99413 
399 ,91.3521 ,1.75754 ,0.71281 ,6.99413 
400 ,91.5601 ,1.75962 ,0.70939 ,6.96055 
401 ,91.7843 ,1.76173 ,0.69913 ,6.85982 
402 ,92.0244 ,1.76408 ,0.70255 ,6.89340 
403 ,92.2646 ,1.76653 ,0.70597 ,6.92697 
404 ,92.5047 ,1.76898 ,0.68886 ,6.75908 
405 ,92.7287 ,1.77122 ,0.69570 ,6.82624 
406 ,93.0008 ,1.77380 ,0.71966 ,7.06129 
407 ,93.2249 ,1.77613 ,0.69228 ,6.79266 
408 ,93.4650 ,1.77851 ,0.69913 ,6.85982 
409 ,93.7051 ,1.78096 ,0.69913 ,6.85982 
410 ,93.9453 ,1.78329 ,0.70597 ,6.92697 
411 ,94.1854 ,1.78580 ,0.69228 ,6.79266 
412 ,94.3934 ,1.78793 ,0.71966 ,7.06129 
413 ,94.6335 ,1.79021 ,0.72650 ,7.12844 
414 ,94.8736 ,1.79259 ,0.72650 ,7.12844 
415 ,95.0977 ,1.79488 ,0.71966 ,7.06129 
416 ,95.3378 ,1.79722 ,0.70597 ,6.92697 
417 ,95.5779 ,1.79964 ,0.71281 ,6.99413 
418 ,95.8020 ,1.80199 ,0.70597 ,6.92697 
419 ,96.0261 ,1.80409 ,0.70255 ,6.89340 
420 ,96.2342 ,1.80636 ,0.71281 ,6.99413 
421 ,96.4423 ,1.80836 ,0.70597 ,6.92697 
422 ,96.6663 ,1.81062 ,0.70255 ,6.89340 
423 ,96.8904 ,1.81282 ,0.70255 ,6.89340 
424 ,97.1146 ,1.81504 ,0.71281 ,6.99413 
425 ,97.3387 ,1.81728 ,0.71281 ,6.99413 
426 ,97.5629 ,1.81957 ,0.70939 ,6.96055 
427 ,97.8029 ,1.82186 ,0.69913 ,6.85982 
428 ,98.0270 ,1.82420 ,0.70597 ,6.92697 
429 ,98.2511 ,1.82648 ,0.70255 ,6.89340 
430 ,98.4751 ,1.82858 ,0.71624 ,7.02771 
431 ,98.7152 ,1.83100 ,0.71281 ,6.99413 
432 ,98.9553 ,1.83336 ,0.71966 ,7.06129 
433 ,99.1794 ,1.83578 ,0.71624 ,7.02771 
434 ,99.4035 ,1.83792 ,0.70255 ,6.89340 
435 ,99.6276 ,1.84016 ,0.70597 ,6.92697 
436 ,99.8357 ,1.84226 ,0.71624 ,7.02771 
437 ,100.0598 ,1.84448 ,0.72992 ,7.16202 
438 ,100.2840 ,1.84667 ,0.70255 ,6.89340 
439 ,100.5080 ,1.84898 ,0.69913 ,6.85982 
440 ,100.7161 ,1.85117 ,0.71281 ,6.99413 
441 ,100.9242 ,1.85317 ,0.69913 ,6.85982 
442 ,101.1483 ,1.85543 ,0.70939 ,6.96055 
443 ,101.3563 ,1.85751 ,0.72308 ,7.09486 
444 ,101.5805 ,1.85977 ,0.71624 ,7.02771 
445 ,101.8205 ,1.86204 ,0.70255 ,6.89340 
446 ,102.0447 ,1.86435 ,0.69913 ,6.85982 
447 ,102.2688 ,1.86659 ,0.69228 ,6.79266 
448 ,102.5088 ,1.86894 ,0.69570 ,6.82624 
449 ,102.7809 ,1.87171 ,0.71281 ,6.99413 
450 ,103.0210 ,1.87402 ,0.71281 ,6.99413 
451 ,103.2611 ,1.87643 ,0.70597 ,6.92697 
452 ,103.4693 ,1.87863 ,0.70597 ,6.92697 
453 ,103.6772 ,1.88070 ,0.71281 ,6.99413 
454 ,103.8853 ,1.88280 ,0.69228 ,6.79266 
455 ,104.1094 ,1.88493 ,0.72308 ,7.09486 
456 ,104.3175 ,1.88719 ,0.71281 ,6.99413 
457 ,104.5256 ,1.88915 ,0.70255 ,6.89340 
458 ,104.7176 ,1.89118 ,0.69570 ,6.82624 
459 ,104.9258 ,1.89316 ,0.69913 ,6.85982 
460 ,105.1338 ,1.89523 ,0.71281 ,6.99413 
461 ,105.3259 ,1.89729 ,0.70939 ,6.96055 
462 ,105.5180 ,1.89918 ,0.70597 ,6.92697 
463 ,105.7261 ,1.90110 ,0.71281 ,6.99413 
464 ,105.9342 ,1.90325 ,0.70939 ,6.96055 
465 ,106.1423 ,1.90529 ,0.70939 ,6.96055 
466 ,106.3503 ,1.90746 ,0.71624 ,7.02771 
467 ,106.5424 ,1.90944 ,0.71624 ,7.02771 
