Data stamp = , 03-06-2022 01:32:31 503

Calibration Values: 
Slope = , 26.54 , g/V 
Offset Voltage at no contact = , -0.501760 , V 

No , Time , Stage Position ,   Mass , Force 
   ,  (s) ,      (mm)      ,   (g)  , (mN)  

1 ,0.0000 ,0.84955 ,5.29510 ,51.95548 
2 ,0.2091 ,0.84962 ,5.30194 ,52.02263 
3 ,0.8658 ,0.85250 ,5.31905 ,52.19052 
4 ,1.1059 ,0.85522 ,5.29852 ,51.98905 
5 ,1.3301 ,0.85744 ,5.29852 ,51.98905 
6 ,1.5380 ,0.85964 ,5.29852 ,51.98905 
7 ,1.7619 ,0.86185 ,5.28483 ,51.85474 
8 ,1.9863 ,0.86416 ,5.25061 ,51.51896 
9 ,2.2105 ,0.86636 ,5.22323 ,51.25033 
10 ,2.4345 ,0.86860 ,5.19927 ,51.01528 
11 ,2.6423 ,0.87069 ,5.19243 ,50.94813 
12 ,2.8667 ,0.87290 ,5.17190 ,50.74666 
13 ,3.0748 ,0.87499 ,5.12741 ,50.31014 
14 ,3.2984 ,0.87726 ,5.12056 ,50.24298 
15 ,3.5069 ,0.87931 ,5.08977 ,49.94078 
16 ,3.7310 ,0.88153 ,5.05897 ,49.63857 
17 ,3.9386 ,0.88361 ,5.05212 ,49.57142 
18 ,4.1472 ,0.88573 ,5.03159 ,49.36995 
19 ,4.3713 ,0.88797 ,4.99394 ,49.00058 
20 ,4.5793 ,0.89007 ,4.98026 ,48.86627 
21 ,4.7871 ,0.89211 ,4.95972 ,48.66480 
22 ,5.0116 ,0.89427 ,4.93919 ,48.46333 
23 ,5.2355 ,0.89663 ,4.90839 ,48.16113 
24 ,5.4598 ,0.89887 ,4.90497 ,48.12755 
25 ,5.6679 ,0.90092 ,4.87759 ,47.85892 
26 ,5.8756 ,0.90304 ,4.85021 ,47.59030 
27 ,6.1000 ,0.90522 ,4.83995 ,47.48956 
28 ,6.3242 ,0.90746 ,4.81257 ,47.22093 
29 ,6.5320 ,0.90956 ,4.78177 ,46.91873 
30 ,6.7399 ,0.91166 ,4.78861 ,46.98589 
31 ,6.9482 ,0.91371 ,4.75097 ,46.61653 
32 ,7.1724 ,0.91593 ,4.73044 ,46.41506 
33 ,7.3966 ,0.91823 ,4.72359 ,46.34790 
34 ,7.6046 ,0.92032 ,4.69964 ,46.11285 
35 ,7.8123 ,0.92236 ,4.65857 ,45.70991 
36 ,8.0208 ,0.92441 ,4.67226 ,45.84422 
37 ,8.2450 ,0.92667 ,4.62777 ,45.40771 
38 ,8.4691 ,0.92894 ,4.59355 ,45.07192 
39 ,8.6770 ,0.93101 ,4.59013 ,45.03835 
40 ,8.8852 ,0.93308 ,4.56960 ,44.83688 
41 ,9.1092 ,0.93531 ,4.54906 ,44.63541 
42 ,9.3331 ,0.93757 ,4.52169 ,44.36678 
43 ,9.5413 ,0.93969 ,4.51826 ,44.33320 
44 ,9.7495 ,0.94167 ,4.48062 ,43.96384 
45 ,9.9737 ,0.94394 ,4.45666 ,43.72879 
46 ,10.1977 ,0.94620 ,4.45324 ,43.69521 
47 ,10.4058 ,0.94827 ,4.43613 ,43.52732 
48 ,10.6138 ,0.95037 ,4.39164 ,43.09080 
49 ,10.8223 ,0.95244 ,4.40191 ,43.19154 
50 ,11.0462 ,0.95470 ,4.37111 ,42.88933 
51 ,11.2543 ,0.95675 ,4.34716 ,42.65429 
52 ,11.4621 ,0.95885 ,4.33689 ,42.55355 
53 ,11.6544 ,0.96076 ,4.30951 ,42.28492 
54 ,11.8628 ,0.96285 ,4.30267 ,42.21777 
55 ,12.0865 ,0.96508 ,4.27871 ,41.98272 
56 ,12.2946 ,0.96715 ,4.25133 ,41.71409 
57 ,12.5023 ,0.96920 ,4.24107 ,41.61336 
58 ,12.7109 ,0.97136 ,4.20685 ,41.27758 
59 ,12.9347 ,0.97352 ,4.19658 ,41.17684 
60 ,13.1430 ,0.97562 ,4.18974 ,41.10968 
61 ,13.3511 ,0.97770 ,4.16920 ,40.90821 
62 ,13.5592 ,0.97984 ,4.15551 ,40.77390 
63 ,13.7672 ,0.98191 ,4.11103 ,40.33738 
64 ,13.9914 ,0.98413 ,4.09734 ,40.20307 
65 ,14.2155 ,0.98631 ,4.08707 ,40.10233 
66 ,14.4396 ,0.98859 ,4.06312 ,39.86729 
67 ,14.6637 ,0.99085 ,4.03574 ,39.59866 
68 ,14.8876 ,0.99309 ,4.00494 ,39.29646 
69 ,15.1118 ,0.99528 ,3.98783 ,39.12856 
70 ,15.3200 ,0.99738 ,3.99467 ,39.19572 
71 ,15.5281 ,0.99950 ,3.95703 ,38.82636 
72 ,15.7521 ,1.00173 ,3.93992 ,38.65847 
73 ,15.9758 ,1.00401 ,3.92281 ,38.49058 
74 ,16.1843 ,1.00602 ,3.91596 ,38.42342 
75 ,16.3922 ,1.00810 ,3.87147 ,37.98690 
76 ,16.6002 ,1.01023 ,3.87490 ,38.02048 
77 ,16.8721 ,1.01283 ,3.84752 ,37.75185 
78 ,17.1282 ,1.01533 ,3.81672 ,37.44965 
79 ,17.3529 ,1.01771 ,3.78592 ,37.14744 
80 ,17.5927 ,1.02010 ,3.76881 ,36.97955 
81 ,17.8170 ,1.02233 ,3.76196 ,36.91240 
82 ,18.0407 ,1.02463 ,3.75512 ,36.84524 
83 ,18.2652 ,1.02682 ,3.70037 ,36.30799 
84 ,18.4892 ,1.02911 ,3.68325 ,36.14010 
85 ,18.6974 ,1.03110 ,3.67641 ,36.07294 
86 ,18.9372 ,1.03348 ,3.65930 ,35.90505 
87 ,19.1292 ,1.03562 ,3.64561 ,35.77073 
88 ,19.3533 ,1.03772 ,3.61823 ,35.50211 
89 ,19.5777 ,1.03995 ,3.59428 ,35.26706 
90 ,19.7856 ,1.04207 ,3.57032 ,35.03201 
91 ,20.0098 ,1.04431 ,3.53952 ,34.72981 
92 ,20.2179 ,1.04636 ,3.56006 ,34.93128 
93 ,20.4421 ,1.04846 ,3.52926 ,34.62907 
94 ,20.6658 ,1.05085 ,3.49846 ,34.32687 
95 ,20.8741 ,1.05291 ,3.48819 ,34.22613 
96 ,21.0660 ,1.05496 ,3.47450 ,34.09182 
97 ,21.2904 ,1.05705 ,3.44713 ,33.82319 
98 ,21.4984 ,1.05912 ,3.44370 ,33.78961 
99 ,21.6745 ,1.06106 ,3.40606 ,33.42025 
100 ,21.8986 ,1.06301 ,3.38553 ,33.21878 
101 ,22.1226 ,1.06537 ,3.38895 ,33.25236 
102 ,22.3307 ,1.06746 ,3.34788 ,32.84942 
103 ,22.5385 ,1.06955 ,3.34788 ,32.84942 
104 ,22.7471 ,1.07161 ,3.31366 ,32.51364 
105 ,22.9549 ,1.07374 ,3.30682 ,32.44648 
106 ,23.1632 ,1.07579 ,3.28628 ,32.24501 
107 ,23.3709 ,1.07801 ,3.24864 ,31.87565 
108 ,23.5790 ,1.07995 ,3.25206 ,31.90923 
109 ,23.7874 ,1.08205 ,3.22468 ,31.64060 
110 ,24.0115 ,1.08426 ,3.19731 ,31.37198 
111 ,24.2196 ,1.08640 ,3.19388 ,31.33840 
112 ,24.4277 ,1.08843 ,3.16993 ,31.10335 
113 ,24.6358 ,1.09050 ,3.15966 ,31.00262 
114 ,24.8758 ,1.09285 ,3.14597 ,30.86830 
115 ,25.1000 ,1.09516 ,3.12544 ,30.66683 
116 ,25.3079 ,1.09720 ,3.09122 ,30.33105 
117 ,25.5001 ,1.09930 ,3.08095 ,30.23031 
118 ,25.7081 ,1.10121 ,3.05700 ,29.99527 
119 ,25.9164 ,1.10334 ,3.06042 ,30.02884 
120 ,26.1404 ,1.10556 ,3.03304 ,29.76022 
121 ,26.3486 ,1.10764 ,2.99540 ,29.39086 
122 ,26.5566 ,1.10981 ,2.99198 ,29.35728 
123 ,26.7645 ,1.11185 ,2.98171 ,29.25654 
124 ,26.9725 ,1.11382 ,2.93722 ,28.82003 
125 ,27.1488 ,1.11580 ,2.94064 ,28.85360 
126 ,27.3570 ,1.11773 ,2.92353 ,28.68571 
127 ,27.5648 ,1.11981 ,2.90642 ,28.51782 
128 ,27.7730 ,1.12188 ,2.87905 ,28.24919 
129 ,27.9970 ,1.12414 ,2.88247 ,28.28277 
130 ,28.2051 ,1.12633 ,2.85509 ,28.01415 
131 ,28.4769 ,1.12898 ,2.83456 ,27.81268 
132 ,28.6690 ,1.13098 ,2.81060 ,27.57763 
133 ,28.8612 ,1.13287 ,2.81060 ,27.57763 
134 ,29.0695 ,1.13488 ,2.76611 ,27.14111 
135 ,29.2936 ,1.13716 ,2.77638 ,27.24185 
136 ,29.5179 ,1.13930 ,2.74216 ,26.90606 
137 ,29.7257 ,1.14137 ,2.71478 ,26.63744 
138 ,29.9335 ,1.14357 ,2.68740 ,26.36881 
139 ,30.1420 ,1.14551 ,2.69083 ,26.40239 
140 ,30.3661 ,1.14783 ,2.65660 ,26.06661 
141 ,30.5742 ,1.14984 ,2.65660 ,26.06661 
142 ,30.7822 ,1.15196 ,2.63607 ,25.86514 
143 ,30.9904 ,1.15398 ,2.60869 ,25.59651 
144 ,31.2145 ,1.15619 ,2.60527 ,25.56293 
145 ,31.4222 ,1.15838 ,2.58474 ,25.36146 
146 ,31.6308 ,1.16045 ,2.55052 ,25.02568 
147 ,31.8228 ,1.16244 ,2.56078 ,25.12641 
148 ,32.0309 ,1.16446 ,2.51630 ,24.68989 
149 ,32.2387 ,1.16653 ,2.51972 ,24.72347 
150 ,32.4469 ,1.16857 ,2.48207 ,24.35411 
151 ,32.6872 ,1.17096 ,2.47865 ,24.32053 
152 ,32.9114 ,1.17322 ,2.44443 ,23.98475 
153 ,33.1195 ,1.17534 ,2.44785 ,24.01833 
154 ,33.3434 ,1.17753 ,2.42390 ,23.78328 
155 ,33.5516 ,1.17964 ,2.40336 ,23.58181 
156 ,33.8071 ,1.18208 ,2.37599 ,23.31318 
157 ,33.9998 ,1.18418 ,2.37941 ,23.34676 
158 ,34.2238 ,1.18636 ,2.36230 ,23.17887 
159 ,34.4479 ,1.18856 ,2.33492 ,22.91024 
160 ,34.6560 ,1.19068 ,2.30754 ,22.64162 
161 ,34.8639 ,1.19276 ,2.30070 ,22.57446 
162 ,35.0719 ,1.19489 ,2.28359 ,22.40657 
163 ,35.2963 ,1.19709 ,2.25963 ,22.17152 
164 ,35.5202 ,1.19936 ,2.26306 ,22.20510 
165 ,35.7284 ,1.20142 ,2.23568 ,21.93647 
166 ,35.9686 ,1.20385 ,2.20830 ,21.66785 
167 ,36.1924 ,1.20607 ,2.18435 ,21.43280 
168 ,36.4168 ,1.20830 ,2.18092 ,21.39922 
169 ,36.6249 ,1.21035 ,2.17408 ,21.33206 
170 ,36.8327 ,1.21247 ,2.13301 ,20.92912 
171 ,37.0407 ,1.21451 ,2.14328 ,21.02986 
172 ,37.2489 ,1.21658 ,2.10221 ,20.62692 
173 ,37.4411 ,1.21862 ,2.08852 ,20.49261 
174 ,37.6489 ,1.22060 ,2.07826 ,20.39187 
175 ,37.8574 ,1.22274 ,2.06457 ,20.25756 
176 ,38.0809 ,1.22489 ,2.06799 ,20.29114 
177 ,38.2895 ,1.22700 ,2.02693 ,19.88820 
178 ,38.4975 ,1.22913 ,2.01324 ,19.75388 
179 ,38.7057 ,1.23121 ,2.01324 ,19.75388 
180 ,38.9137 ,1.23325 ,1.97902 ,19.41810 
181 ,39.1214 ,1.23535 ,1.96875 ,19.31737 
182 ,39.3460 ,1.23754 ,1.95848 ,19.21663 
183 ,39.6181 ,1.24018 ,1.93453 ,18.98158 
184 ,39.8101 ,1.24233 ,1.91742 ,18.81369 
185 ,40.0342 ,1.24443 ,1.89688 ,18.61222 
186 ,40.2579 ,1.24666 ,1.87977 ,18.44433 
187 ,40.4664 ,1.24875 ,1.86608 ,18.31002 
188 ,40.6584 ,1.25080 ,1.83528 ,18.00781 
189 ,40.8664 ,1.25273 ,1.84555 ,18.10855 
190 ,41.0745 ,1.25482 ,1.81817 ,17.83992 
191 ,41.3143 ,1.25711 ,1.79080 ,17.57129 
192 ,41.5386 ,1.25947 ,1.78053 ,17.47056 
193 ,41.7627 ,1.26181 ,1.76684 ,17.33625 
194 ,41.9709 ,1.26392 ,1.75315 ,17.20193 
195 ,42.1788 ,1.26592 ,1.73604 ,17.03404 
196 ,42.4031 ,1.26810 ,1.72235 ,16.89973 
197 ,42.6272 ,1.27032 ,1.68129 ,16.49679 
198 ,42.8513 ,1.27262 ,1.67786 ,16.46321 
199 ,43.0592 ,1.27472 ,1.67102 ,16.39605 
200 ,43.2834 ,1.27688 ,1.66760 ,16.36248 
201 ,43.5076 ,1.27903 ,1.63338 ,16.02669 
202 ,43.7478 ,1.28159 ,1.60942 ,15.79164 
203 ,43.9718 ,1.28383 ,1.58204 ,15.52302 
204 ,44.1958 ,1.28603 ,1.56836 ,15.38871 
205 ,44.4200 ,1.28820 ,1.57862 ,15.48944 
206 ,44.6279 ,1.29043 ,1.55809 ,15.28797 
207 ,44.8360 ,1.29249 ,1.53071 ,15.01934 
208 ,45.0599 ,1.29470 ,1.52387 ,14.95219 
209 ,45.2520 ,1.29676 ,1.49991 ,14.71714 
210 ,45.4763 ,1.29878 ,1.48280 ,14.54925 
211 ,45.6844 ,1.30090 ,1.47938 ,14.51567 
212 ,45.9084 ,1.30322 ,1.44174 ,14.14631 
213 ,46.1325 ,1.30537 ,1.43831 ,14.11273 
214 ,46.3407 ,1.30750 ,1.41778 ,13.91126 
215 ,46.5649 ,1.30973 ,1.40409 ,13.77695 
216 ,46.7728 ,1.31183 ,1.37671 ,13.50832 
217 ,46.9810 ,1.31390 ,1.37671 ,13.50832 
218 ,47.2052 ,1.31609 ,1.37329 ,13.47474 
219 ,47.4132 ,1.31821 ,1.33907 ,13.13896 
220 ,47.6373 ,1.32046 ,1.30827 ,12.83675 
221 ,47.8454 ,1.32259 ,1.31169 ,12.87033 
222 ,48.0694 ,1.32471 ,1.29800 ,12.73602 
223 ,48.2776 ,1.32681 ,1.27063 ,12.46739 
224 ,48.4693 ,1.32891 ,1.26036 ,12.36666 
225 ,48.6617 ,1.33075 ,1.23641 ,12.13161 
226 ,48.8697 ,1.33275 ,1.24325 ,12.19877 
227 ,49.0776 ,1.33482 ,1.20903 ,11.86298 
228 ,49.2860 ,1.33694 ,1.21245 ,11.89656 
229 ,49.5261 ,1.33928 ,1.19534 ,11.72867 
230 ,49.7502 ,1.34151 ,1.17823 ,11.56078 
231 ,49.9583 ,1.34371 ,1.14058 ,11.19142 
232 ,50.1820 ,1.34588 ,1.13032 ,11.09068 
233 ,50.4225 ,1.34833 ,1.11663 ,10.95637 
234 ,50.6465 ,1.35051 ,1.12690 ,11.05710 
235 ,50.8546 ,1.35257 ,1.08241 ,10.62059 
236 ,51.0623 ,1.35470 ,1.08583 ,10.65416 
237 ,51.2704 ,1.35674 ,1.07214 ,10.51985 
238 ,51.4949 ,1.35898 ,1.03108 ,10.11691 
239 ,51.7190 ,1.36128 ,1.01739 ,9.98260 
240 ,51.9269 ,1.36327 ,1.02765 ,10.08333 
241 ,52.1349 ,1.36541 ,0.98659 ,9.68039 
242 ,52.3429 ,1.36748 ,0.98317 ,9.64682 
243 ,52.5509 ,1.36956 ,0.94894 ,9.31103 
244 ,52.7593 ,1.37160 ,0.94210 ,9.24388 
245 ,52.9675 ,1.37373 ,0.94210 ,9.24388 
246 ,53.1914 ,1.37596 ,0.91130 ,8.94167 
247 ,53.3997 ,1.37805 ,0.89761 ,8.80736 
248 ,53.6073 ,1.38025 ,0.89419 ,8.77378 
249 ,53.8157 ,1.38214 ,0.88392 ,8.67305 
250 ,54.0238 ,1.38430 ,0.87366 ,8.57231 
251 ,54.2320 ,1.38633 ,0.85312 ,8.37084 
252 ,54.4401 ,1.38845 ,0.83943 ,8.23653 
253 ,54.6636 ,1.39074 ,0.81890 ,8.03506 
254 ,54.8721 ,1.39274 ,0.80179 ,7.86717 
255 ,55.0804 ,1.39485 ,0.79152 ,7.76643 
256 ,55.2723 ,1.39688 ,0.78810 ,7.73285 
257 ,55.4804 ,1.39882 ,0.76415 ,7.49780 
258 ,55.6884 ,1.40097 ,1.07899 ,10.58701 
259 ,55.9120 ,1.40316 ,1.09952 ,10.78848 
260 ,56.1205 ,1.40523 ,1.09267 ,10.72132 
261 ,56.3286 ,1.40736 ,1.09267 ,10.72132 
262 ,56.5368 ,1.40935 ,1.07899 ,10.58701 
263 ,56.7611 ,1.41167 ,1.06872 ,10.48627 
264 ,56.9690 ,1.41381 ,1.07899 ,10.58701 
265 ,57.1771 ,1.41588 ,1.04819 ,10.28480 
266 ,57.3852 ,1.41790 ,1.06187 ,10.41912 
267 ,57.5933 ,1.41994 ,1.03450 ,10.15049 
268 ,57.8174 ,1.42218 ,1.02765 ,10.08333 
269 ,58.0254 ,1.42428 ,1.04134 ,10.21765 
270 ,58.2336 ,1.42634 ,1.01054 ,9.91544 
271 ,58.4576 ,1.42865 ,1.00028 ,9.81471 
272 ,58.6819 ,1.43088 ,1.01054 ,9.91544 
273 ,58.8896 ,1.43292 ,0.99343 ,9.74755 
274 ,59.0978 ,1.43501 ,0.96605 ,9.47892 
275 ,59.3381 ,1.43728 ,0.97290 ,9.54608 
276 ,59.5462 ,1.43951 ,0.97974 ,9.61324 
277 ,59.7863 ,1.44180 ,0.95579 ,9.37819 
278 ,59.9943 ,1.44399 ,0.94210 ,9.24388 
279 ,60.2182 ,1.44622 ,0.93525 ,9.17672 
280 ,60.4263 ,1.44826 ,0.94894 ,9.31103 
281 ,60.6346 ,1.45037 ,0.91814 ,9.00883 
282 ,60.8587 ,1.45260 ,0.90788 ,8.90809 
283 ,61.0668 ,1.45467 ,0.92499 ,9.07598 
284 ,61.2909 ,1.45694 ,0.90446 ,8.87451 
285 ,61.5150 ,1.45919 ,0.88050 ,8.63947 
286 ,61.8352 ,1.46187 ,0.88392 ,8.67305 
287 ,62.0431 ,1.46444 ,0.89419 ,8.77378 
288 ,62.2672 ,1.46668 ,0.88734 ,8.70662 
289 ,62.5074 ,1.46910 ,0.87708 ,8.60589 
290 ,62.7315 ,1.47136 ,0.87366 ,8.57231 
291 ,62.9396 ,1.47343 ,0.83943 ,8.23653 
292 ,63.1313 ,1.47547 ,0.85654 ,8.40442 
293 ,63.3239 ,1.47738 ,0.82917 ,8.13579 
294 ,63.5478 ,1.47951 ,0.83601 ,8.20295 
295 ,63.7560 ,1.48162 ,0.81890 ,8.03506 
296 ,63.9801 ,1.48381 ,0.80521 ,7.90074 
297 ,64.1881 ,1.48586 ,0.82917 ,8.13579 
298 ,64.3961 ,1.48795 ,0.80179 ,7.86717 
299 ,64.5882 ,1.48997 ,0.81206 ,7.96790 
300 ,64.7964 ,1.49194 ,0.79495 ,7.80001 
301 ,65.0044 ,1.49405 ,0.80863 ,7.93432 
302 ,65.2288 ,1.49633 ,0.80179 ,7.86717 
303 ,65.4527 ,1.49853 ,0.78810 ,7.73285 
304 ,65.6443 ,1.50060 ,0.77441 ,7.59854 
305 ,65.8530 ,1.50252 ,0.78468 ,7.69927 
306 ,66.0610 ,1.50472 ,0.77784 ,7.63212 
307 ,66.2691 ,1.50668 ,0.78468 ,7.69927 
308 ,66.4932 ,1.50893 ,0.77441 ,7.59854 
309 ,66.7009 ,1.51103 ,0.76415 ,7.49780 
310 ,66.9254 ,1.51319 ,0.76415 ,7.49780 
311 ,67.1491 ,1.51549 ,0.76757 ,7.53138 
312 ,67.3573 ,1.51752 ,0.74704 ,7.32991 
313 ,67.5656 ,1.51966 ,0.76072 ,7.46423 
314 ,67.7734 ,1.52170 ,0.75388 ,7.39707 
315 ,67.9976 ,1.52396 ,0.73335 ,7.19560 
316 ,68.2219 ,1.52624 ,0.72650 ,7.12844 
317 ,68.4298 ,1.52829 ,0.73677 ,7.22918 
318 ,68.6381 ,1.53035 ,0.72650 ,7.12844 
319 ,68.8621 ,1.53265 ,0.71281 ,6.99413 
320 ,69.0701 ,1.53478 ,0.72308 ,7.09486 
321 ,69.2622 ,1.53674 ,0.70597 ,6.92697 
322 ,69.4864 ,1.53884 ,0.73335 ,7.19560 
323 ,69.7105 ,1.54112 ,0.70939 ,6.96055 
324 ,69.9343 ,1.54338 ,0.69913 ,6.85982 
325 ,70.1423 ,1.54543 ,0.69913 ,6.85982 
326 ,70.3507 ,1.54746 ,0.70939 ,6.96055 
327 ,70.5907 ,1.54978 ,0.67859 ,6.65835 
328 ,70.7989 ,1.55199 ,0.68544 ,6.72550 
329 ,71.0230 ,1.55422 ,0.69570 ,6.82624 
330 ,71.2307 ,1.55629 ,0.69228 ,6.79266 
331 ,71.4390 ,1.55835 ,0.68201 ,6.69193 
332 ,71.6471 ,1.56043 ,0.68201 ,6.69193 
333 ,71.8553 ,1.56249 ,0.66833 ,6.55761 
334 ,72.0794 ,1.56479 ,0.65806 ,6.45688 
335 ,72.2871 ,1.56684 ,0.67175 ,6.59119 
336 ,72.5276 ,1.56929 ,0.67517 ,6.62477 
337 ,72.7514 ,1.57145 ,0.65806 ,6.45688 
338 ,72.9436 ,1.57355 ,0.65464 ,6.42330 
339 ,73.1515 ,1.57544 ,0.66148 ,6.49046 
340 ,73.3596 ,1.57759 ,0.65121 ,6.38972 
341 ,73.5682 ,1.57966 ,0.66490 ,6.52403 
342 ,73.7761 ,1.58178 ,0.65121 ,6.38972 
343 ,74.0002 ,1.58400 ,0.64437 ,6.32256 
344 ,74.2244 ,1.58621 ,0.64437 ,6.32256 
345 ,74.4320 ,1.58831 ,0.64437 ,6.32256 
346 ,74.6403 ,1.59037 ,0.62726 ,6.15467 
347 ,74.8645 ,1.59263 ,0.64095 ,6.28899 
348 ,75.0723 ,1.59468 ,0.61699 ,6.05394 
349 ,75.2967 ,1.59683 ,0.62726 ,6.15467 
350 ,75.5043 ,1.59898 ,0.64779 ,6.35614 
351 ,75.7290 ,1.60120 ,0.62384 ,6.12109 
352 ,75.9691 ,1.60357 ,0.62384 ,6.12109 
353 ,76.1930 ,1.60591 ,0.62042 ,6.08752 
354 ,76.4010 ,1.60798 ,0.62384 ,6.12109 
355 ,76.6249 ,1.61026 ,0.63410 ,6.22183 
356 ,76.8494 ,1.61245 ,0.61699 ,6.05394 
357 ,77.0729 ,1.61472 ,0.60673 ,5.95320 
358 ,77.2811 ,1.61675 ,0.61357 ,6.02036 
359 ,77.5051 ,1.61899 ,0.60673 ,5.95320 
360 ,77.7291 ,1.62128 ,0.61015 ,5.98678 
361 ,77.9536 ,1.62348 ,0.60673 ,5.95320 
362 ,78.1776 ,1.62573 ,0.59304 ,5.81889 
363 ,78.4019 ,1.62794 ,0.60330 ,5.91962 
364 ,78.6098 ,1.63003 ,0.59988 ,5.88605 
365 ,78.8177 ,1.63213 ,0.59646 ,5.85247 
366 ,79.0583 ,1.63442 ,0.59988 ,5.88605 
367 ,79.2821 ,1.63676 ,0.63068 ,6.18825 
368 ,79.4903 ,1.63898 ,0.63068 ,6.18825 
369 ,79.6983 ,1.64095 ,0.60330 ,5.91962 
370 ,79.9064 ,1.64303 ,0.62726 ,6.15467 
371 ,80.1465 ,1.64541 ,0.63410 ,6.22183 
372 ,80.3547 ,1.64752 ,0.61015 ,5.98678 
373 ,80.5789 ,1.64976 ,0.62042 ,6.08752 
374 ,80.8028 ,1.65196 ,0.63068 ,6.18825 
375 ,81.0111 ,1.65402 ,0.62384 ,6.12109 
376 ,81.2351 ,1.65628 ,0.62384 ,6.12109 
377 ,81.4592 ,1.65854 ,0.61699 ,6.05394 
378 ,81.6671 ,1.66061 ,0.64095 ,6.28899 
379 ,81.8753 ,1.66266 ,0.61357 ,6.02036 
380 ,82.0995 ,1.66497 ,0.62042 ,6.08752 
381 ,82.3236 ,1.66714 ,0.64095 ,6.28899 
382 ,82.5478 ,1.66943 ,0.62726 ,6.15467 
383 ,82.7717 ,1.67171 ,0.61015 ,5.98678 
384 ,82.9799 ,1.67373 ,0.62384 ,6.12109 
385 ,83.2200 ,1.67615 ,0.62384 ,6.12109 
386 ,83.4438 ,1.67838 ,0.63410 ,6.22183 
387 ,83.6682 ,1.68059 ,0.63410 ,6.22183 
388 ,83.8602 ,1.68263 ,0.61015 ,5.98678 
389 ,84.0684 ,1.68461 ,0.63068 ,6.18825 
390 ,84.2921 ,1.68684 ,0.62042 ,6.08752 
391 ,84.5164 ,1.68910 ,0.61357 ,6.02036 
392 ,84.7404 ,1.69122 ,0.63068 ,6.18825 
393 ,84.9487 ,1.69342 ,0.67859 ,6.65835 
394 ,85.1724 ,1.69563 ,0.66490 ,6.52403 
395 ,85.3808 ,1.69776 ,0.69570 ,6.82624 
396 ,85.5889 ,1.69982 ,0.69570 ,6.82624 
397 ,85.7970 ,1.70187 ,0.66833 ,6.55761 
398 ,86.0213 ,1.70416 ,0.68544 ,6.72550 
399 ,86.2293 ,1.70623 ,0.69570 ,6.82624 
400 ,86.4533 ,1.70845 ,0.68201 ,6.69193 
401 ,86.6608 ,1.71053 ,0.69228 ,6.79266 
402 ,86.8694 ,1.71264 ,0.69570 ,6.82624 
403 ,87.0776 ,1.71471 ,0.68201 ,6.69193 
404 ,87.3016 ,1.71696 ,0.69570 ,6.82624 
405 ,87.5098 ,1.71906 ,0.68544 ,6.72550 
406 ,87.7333 ,1.72124 ,0.67517 ,6.62477 
407 ,87.9418 ,1.72336 ,0.69228 ,6.79266 
408 ,88.1499 ,1.72554 ,0.70597 ,6.92697 
409 ,88.3416 ,1.72745 ,0.67859 ,6.65835 
410 ,88.5495 ,1.72942 ,0.69570 ,6.82624 
411 ,88.7417 ,1.73142 ,0.68886 ,6.75908 
412 ,88.9658 ,1.73357 ,0.68544 ,6.72550 
413 ,89.1741 ,1.73569 ,0.67175 ,6.59119 
414 ,89.3984 ,1.73781 ,0.70255 ,6.89340 
415 ,89.6223 ,1.74012 ,0.68886 ,6.75908 
416 ,89.8466 ,1.74242 ,0.70255 ,6.89340 
417 ,90.0866 ,1.74475 ,0.69228 ,6.79266 
418 ,90.3107 ,1.74698 ,0.68886 ,6.75908 
419 ,90.5186 ,1.74910 ,0.67859 ,6.65835 
420 ,90.7428 ,1.75131 ,0.70597 ,6.92697 
421 ,90.9511 ,1.75340 ,0.68201 ,6.69193 
422 ,91.2072 ,1.75584 ,0.68201 ,6.69193 
423 ,91.4314 ,1.75821 ,0.67859 ,6.65835 
424 ,91.6393 ,1.76030 ,0.69913 ,6.85982 
425 ,91.8474 ,1.76236 ,0.70255 ,6.89340 
426 ,92.0553 ,1.76447 ,0.68201 ,6.69193 
427 ,92.2957 ,1.76682 ,0.69570 ,6.82624 
428 ,92.5198 ,1.76912 ,0.68201 ,6.69193 
429 ,92.7437 ,1.77131 ,0.69913 ,6.85982 
430 ,92.9519 ,1.77342 ,0.68886 ,6.75908 
431 ,93.1760 ,1.77567 ,0.67859 ,6.65835 
432 ,93.4159 ,1.77801 ,0.68544 ,6.72550 
433 ,93.6722 ,1.78045 ,0.68544 ,6.72550 
434 ,93.8962 ,1.78285 ,0.68201 ,6.69193 
435 ,94.1043 ,1.78492 ,0.70255 ,6.89340 
436 ,94.3281 ,1.78717 ,0.69228 ,6.79266 
437 ,94.5522 ,1.78937 ,0.68544 ,6.72550 
438 ,94.7444 ,1.79147 ,0.68544 ,6.72550 
439 ,94.9525 ,1.79344 ,0.68201 ,6.69193 
440 ,95.1769 ,1.79559 ,0.68544 ,6.72550 
441 ,95.4010 ,1.79791 ,0.68201 ,6.69193 
442 ,95.6410 ,1.80027 ,0.69913 ,6.85982 
443 ,95.8651 ,1.80257 ,0.70255 ,6.89340 
444 ,96.0892 ,1.80466 ,0.68544 ,6.72550 
445 ,96.2813 ,1.80680 ,0.67859 ,6.65835 
446 ,96.4733 ,1.80874 ,0.69913 ,6.85982 
447 ,96.6973 ,1.81087 ,0.67859 ,6.65835 
448 ,96.9216 ,1.81311 ,0.69570 ,6.82624 
449 ,97.1298 ,1.81518 ,0.69228 ,6.79266 
450 ,97.3377 ,1.81728 ,0.68544 ,6.72550 
451 ,97.5615 ,1.81953 ,0.69570 ,6.82624 
452 ,97.7698 ,1.82155 ,0.68886 ,6.75908 
453 ,97.9781 ,1.82364 ,0.67517 ,6.62477 
454 ,98.2021 ,1.82585 ,0.70255 ,6.89340 
455 ,98.4262 ,1.82813 ,0.69570 ,6.82624 
456 ,98.6503 ,1.83037 ,0.68544 ,6.72550 
457 ,98.8583 ,1.83259 ,0.67859 ,6.65835 
458 ,99.0665 ,1.83449 ,0.69913 ,6.85982 
459 ,99.2745 ,1.83668 ,0.68201 ,6.69193 
460 ,99.4987 ,1.83882 ,0.68544 ,6.72550 
461 ,99.7068 ,1.84098 ,0.69913 ,6.85982 
462 ,99.9307 ,1.84315 ,0.68544 ,6.72550 
463 ,100.1388 ,1.84522 ,0.68201 ,6.69193 
464 ,100.3471 ,1.84728 ,0.69913 ,6.85982 
465 ,100.5548 ,1.84942 ,0.68544 ,6.72550 
466 ,100.7791 ,1.85162 ,0.69228 ,6.79266 
467 ,100.9869 ,1.85369 ,0.69570 ,6.82624 
468 ,101.1953 ,1.85580 ,0.67517 ,6.62477 
