Data stamp = , 03-06-2022 11:40:13 319

Calibration Values: 
Slope = , 26.54 , g/V 
Offset Voltage at no contact = , -0.501760 , V 

No , Time , Stage Position ,   Mass , Force 
   ,  (s) ,      (mm)      ,   (g)  , (mN)  

1 ,0.0000 ,0.84949 ,5.28483 ,51.85474 
2 ,0.2296 ,0.84961 ,5.30194 ,52.02263 
3 ,0.5978 ,0.85075 ,5.28141 ,51.82116 
4 ,0.8222 ,0.85257 ,5.28141 ,51.82116 
5 ,1.0619 ,0.85483 ,5.27456 ,51.75401 
6 ,1.2541 ,0.85685 ,5.28825 ,51.88832 
7 ,1.4784 ,0.85891 ,5.27456 ,51.75401 
8 ,1.6866 ,0.86107 ,5.25403 ,51.55254 
9 ,1.9107 ,0.86331 ,5.25403 ,51.55254 
10 ,2.1504 ,0.86574 ,5.23350 ,51.35107 
11 ,2.3909 ,0.86803 ,5.22665 ,51.28391 
12 ,2.6148 ,0.87036 ,5.19243 ,50.94813 
13 ,2.8231 ,0.87248 ,5.14452 ,50.47803 
14 ,3.0469 ,0.87471 ,5.13425 ,50.37729 
15 ,3.2712 ,0.87694 ,5.13083 ,50.34372 
16 ,3.5273 ,0.87958 ,5.08292 ,49.87362 
17 ,3.7513 ,0.88175 ,5.08634 ,49.90720 
18 ,3.9594 ,0.88386 ,5.06239 ,49.67215 
19 ,4.1676 ,0.88587 ,5.03501 ,49.40352 
20 ,4.4077 ,0.88832 ,5.01448 ,49.20205 
21 ,4.6317 ,0.89060 ,4.99052 ,48.96701 
22 ,4.8404 ,0.89261 ,4.96999 ,48.76554 
23 ,5.0635 ,0.89488 ,4.94261 ,48.49691 
24 ,5.2720 ,0.89692 ,4.93235 ,48.39618 
25 ,5.5120 ,0.89934 ,4.91523 ,48.22828 
26 ,5.7361 ,0.90157 ,4.88101 ,47.89250 
27 ,5.9441 ,0.90366 ,4.85706 ,47.65745 
28 ,6.1523 ,0.90586 ,4.84337 ,47.52314 
29 ,6.3764 ,0.90796 ,4.82968 ,47.38883 
30 ,6.6005 ,0.91023 ,4.79546 ,47.05304 
31 ,6.8084 ,0.91230 ,4.76808 ,46.78442 
32 ,7.0168 ,0.91444 ,4.76808 ,46.78442 
33 ,7.2410 ,0.91654 ,4.72702 ,46.38148 
34 ,7.4650 ,0.91886 ,4.71675 ,46.28074 
35 ,7.6728 ,0.92094 ,4.70990 ,46.21359 
36 ,7.8811 ,0.92301 ,4.67226 ,45.84422 
37 ,8.1051 ,0.92524 ,4.64831 ,45.60918 
38 ,8.3293 ,0.92749 ,4.63804 ,45.50844 
39 ,8.5533 ,0.92972 ,4.62777 ,45.40771 
40 ,8.7613 ,0.93182 ,4.57644 ,44.90403 
41 ,9.0016 ,0.93410 ,4.57302 ,44.87045 
42 ,9.2097 ,0.93632 ,4.55249 ,44.66898 
43 ,9.4337 ,0.93853 ,4.53195 ,44.46751 
44 ,9.6579 ,0.94078 ,4.52511 ,44.40036 
45 ,9.8815 ,0.94297 ,4.48746 ,44.03100 
46 ,10.0899 ,0.94511 ,4.47720 ,43.93026 
47 ,10.2979 ,0.94713 ,4.45666 ,43.72879 
48 ,10.5057 ,0.94934 ,4.42244 ,43.39301 
49 ,10.6980 ,0.95130 ,4.42929 ,43.46016 
50 ,10.8899 ,0.95323 ,4.38138 ,42.99007 
51 ,11.0824 ,0.95515 ,4.38480 ,43.02365 
52 ,11.3064 ,0.95721 ,4.34716 ,42.65429 
53 ,11.5143 ,0.95935 ,4.35742 ,42.75502 
54 ,11.7227 ,0.96142 ,4.30609 ,42.25135 
55 ,11.9308 ,0.96347 ,4.30609 ,42.25135 
56 ,12.1548 ,0.96569 ,4.29582 ,42.15061 
57 ,12.3631 ,0.96783 ,4.26160 ,41.81483 
58 ,12.5710 ,0.96990 ,4.24449 ,41.64694 
59 ,12.8112 ,0.97226 ,4.23422 ,41.54620 
60 ,13.0193 ,0.97432 ,4.21711 ,41.37831 
61 ,13.2592 ,0.97682 ,4.17947 ,41.00895 
62 ,13.4834 ,0.97894 ,4.15894 ,40.80748 
63 ,13.6916 ,0.98107 ,4.14183 ,40.63959 
64 ,13.9157 ,0.98331 ,4.13840 ,40.60601 
65 ,14.1235 ,0.98542 ,4.09734 ,40.20307 
66 ,14.3318 ,0.98760 ,4.09049 ,40.13591 
67 ,14.5719 ,0.98990 ,4.06654 ,39.90087 
68 ,14.7958 ,0.99213 ,4.05285 ,39.76655 
69 ,15.0041 ,0.99421 ,4.01863 ,39.43077 
70 ,15.2279 ,0.99646 ,4.00152 ,39.26288 
71 ,15.4362 ,0.99851 ,3.99125 ,39.16214 
72 ,15.6440 ,1.00058 ,3.96045 ,38.85994 
73 ,15.8525 ,1.00270 ,3.95703 ,38.82636 
74 ,16.0765 ,1.00491 ,3.92965 ,38.55773 
75 ,16.2846 ,1.00714 ,3.90570 ,38.32268 
76 ,16.5082 ,1.00921 ,3.89201 ,38.18837 
77 ,16.7168 ,1.01131 ,3.88174 ,38.08764 
78 ,16.9247 ,1.01347 ,3.84410 ,37.71828 
79 ,17.1490 ,1.01567 ,3.82014 ,37.48323 
80 ,17.3571 ,1.01777 ,3.82014 ,37.48323 
81 ,17.5646 ,1.01978 ,3.78934 ,37.18102 
82 ,17.7732 ,1.02188 ,3.78934 ,37.18102 
83 ,17.9971 ,1.02411 ,3.75512 ,36.84524 
84 ,18.2213 ,1.02638 ,3.74828 ,36.77808 
85 ,18.4295 ,1.02847 ,3.72090 ,36.50946 
86 ,18.6372 ,1.03054 ,3.71405 ,36.44230 
87 ,18.8456 ,1.03261 ,3.67299 ,36.03936 
88 ,19.0697 ,1.03486 ,3.66957 ,36.00578 
89 ,19.2778 ,1.03696 ,3.64903 ,35.80431 
90 ,19.5178 ,1.03928 ,3.63534 ,35.67000 
91 ,19.7417 ,1.04157 ,3.59770 ,35.30064 
92 ,19.9660 ,1.04383 ,3.57717 ,35.09917 
93 ,20.1901 ,1.04609 ,3.56348 ,34.96485 
94 ,20.3978 ,1.04817 ,3.54979 ,34.83054 
95 ,20.6384 ,1.05039 ,3.52241 ,34.56192 
96 ,20.8620 ,1.05276 ,3.50188 ,34.36045 
97 ,21.0863 ,1.05498 ,3.48477 ,34.19255 
98 ,21.2944 ,1.05711 ,3.48135 ,34.15898 
99 ,21.5024 ,1.05918 ,3.45397 ,33.89035 
100 ,21.7109 ,1.06125 ,3.42659 ,33.62172 
101 ,21.9348 ,1.06349 ,3.41290 ,33.48741 
102 ,22.1589 ,1.06574 ,3.39579 ,33.31952 
103 ,22.3832 ,1.06795 ,3.36842 ,33.05089 
104 ,22.6070 ,1.07017 ,3.33419 ,32.71511 
105 ,22.8313 ,1.07244 ,3.32393 ,32.61437 
106 ,23.0393 ,1.07450 ,3.32735 ,32.64795 
107 ,23.2635 ,1.07674 ,3.28286 ,32.21143 
108 ,23.4877 ,1.07903 ,3.27259 ,32.11070 
109 ,23.7113 ,1.08126 ,3.25206 ,31.90923 
110 ,23.9198 ,1.08327 ,3.23837 ,31.77492 
111 ,24.1278 ,1.08546 ,3.20415 ,31.43913 
112 ,24.3520 ,1.08758 ,3.20415 ,31.43913 
113 ,24.5762 ,1.08989 ,3.19388 ,31.33840 
114 ,24.8002 ,1.09218 ,3.16309 ,31.03619 
115 ,25.0080 ,1.09425 ,3.13229 ,30.73399 
116 ,25.2322 ,1.09642 ,3.13229 ,30.73399 
117 ,25.4723 ,1.09872 ,3.11518 ,30.56610 
118 ,25.6963 ,1.10111 ,3.08780 ,30.29747 
119 ,26.0167 ,1.10379 ,3.06384 ,30.06242 
120 ,26.2248 ,1.10639 ,3.02962 ,29.72664 
121 ,26.4325 ,1.10850 ,3.02962 ,29.72664 
122 ,26.6410 ,1.11053 ,3.00909 ,29.52517 
123 ,26.8331 ,1.11257 ,2.97487 ,29.18939 
124 ,27.0570 ,1.11465 ,2.97487 ,29.18939 
125 ,27.2649 ,1.11679 ,2.94064 ,28.85360 
126 ,27.4728 ,1.11885 ,2.94064 ,28.85360 
127 ,27.6973 ,1.12104 ,2.93380 ,28.78645 
128 ,27.9214 ,1.12337 ,2.89273 ,28.38351 
129 ,28.1455 ,1.12557 ,2.88589 ,28.31635 
130 ,28.3695 ,1.12783 ,2.85509 ,28.01415 
131 ,28.5932 ,1.13009 ,2.85167 ,27.98057 
132 ,28.8338 ,1.13233 ,2.82771 ,27.74552 
133 ,29.0579 ,1.13474 ,2.81745 ,27.64479 
134 ,29.2820 ,1.13695 ,2.77296 ,27.20827 
135 ,29.4899 ,1.13902 ,2.76269 ,27.10753 
136 ,29.6977 ,1.14118 ,2.75243 ,27.00680 
137 ,29.9382 ,1.14339 ,2.72505 ,26.73817 
138 ,30.1619 ,1.14576 ,2.71478 ,26.63744 
139 ,30.3864 ,1.14793 ,2.67029 ,26.20092 
140 ,30.5785 ,1.15004 ,2.67714 ,26.26807 
141 ,30.8022 ,1.15211 ,2.64976 ,25.99945 
142 ,31.0268 ,1.15433 ,2.62238 ,25.73082 
143 ,31.2508 ,1.15659 ,2.61896 ,25.69724 
144 ,31.4746 ,1.15886 ,2.60185 ,25.52935 
145 ,31.6829 ,1.16096 ,2.58816 ,25.39504 
146 ,31.8907 ,1.16316 ,2.54710 ,24.99210 
147 ,32.0990 ,1.16521 ,2.55052 ,25.02568 
148 ,32.3232 ,1.16727 ,2.52656 ,24.79063 
149 ,32.5312 ,1.16944 ,2.50603 ,24.58916 
150 ,32.7393 ,1.17147 ,2.50261 ,24.55558 
151 ,32.9475 ,1.17352 ,2.46496 ,24.18622 
152 ,33.1556 ,1.17571 ,2.47523 ,24.28696 
153 ,33.3796 ,1.17794 ,2.44443 ,23.98475 
154 ,33.5716 ,1.17996 ,2.41363 ,23.68255 
155 ,33.7957 ,1.18203 ,2.41363 ,23.68255 
156 ,34.0039 ,1.18409 ,2.37941 ,23.34676 
157 ,34.2280 ,1.18639 ,2.36230 ,23.17887 
158 ,34.4359 ,1.18840 ,2.35545 ,23.11171 
159 ,34.6442 ,1.19055 ,2.32808 ,22.84309 
160 ,34.8682 ,1.19278 ,2.30754 ,22.64162 
161 ,35.1078 ,1.19521 ,2.28017 ,22.37299 
162 ,35.3480 ,1.19746 ,2.26648 ,22.23868 
163 ,35.5566 ,1.19967 ,2.26306 ,22.20510 
164 ,35.7646 ,1.20183 ,2.24252 ,22.00363 
165 ,35.9888 ,1.20396 ,2.20830 ,21.66785 
166 ,36.2127 ,1.20623 ,2.20146 ,21.60069 
167 ,36.4209 ,1.20827 ,2.19119 ,21.49996 
168 ,36.6448 ,1.21043 ,2.16723 ,21.26491 
169 ,36.8688 ,1.21280 ,2.14328 ,21.02986 
170 ,37.0772 ,1.21490 ,2.13986 ,20.99628 
171 ,37.3170 ,1.21720 ,2.12275 ,20.82839 
172 ,37.5252 ,1.21938 ,2.09537 ,20.55976 
173 ,37.7653 ,1.22175 ,2.08168 ,20.42545 
174 ,37.9735 ,1.22392 ,2.05088 ,20.12325 
175 ,38.1815 ,1.22594 ,2.05430 ,20.15682 
176 ,38.3897 ,1.22802 ,2.00982 ,19.72031 
177 ,38.5973 ,1.23008 ,2.01324 ,19.75388 
178 ,38.7897 ,1.23209 ,1.99270 ,19.55241 
179 ,38.9980 ,1.23410 ,1.98586 ,19.48526 
180 ,39.2218 ,1.23626 ,1.96190 ,19.25021 
181 ,39.4301 ,1.23841 ,1.93111 ,18.94801 
182 ,39.6380 ,1.24054 ,1.94137 ,19.04874 
183 ,39.8783 ,1.24287 ,1.91742 ,18.81369 
184 ,40.1023 ,1.24510 ,1.89688 ,18.61222 
185 ,40.3105 ,1.24729 ,1.86608 ,18.31002 
186 ,40.5184 ,1.24927 ,1.86608 ,18.31002 
187 ,40.7265 ,1.25137 ,1.83871 ,18.04139 
188 ,40.9508 ,1.25357 ,1.82844 ,17.94066 
189 ,41.1749 ,1.25580 ,1.80791 ,17.73919 
190 ,41.3828 ,1.25789 ,1.79422 ,17.60487 
191 ,41.5910 ,1.26012 ,1.77026 ,17.36983 
192 ,41.7830 ,1.26200 ,1.77711 ,17.43698 
193 ,41.9910 ,1.26409 ,1.73604 ,17.03404 
194 ,42.1990 ,1.26609 ,1.74973 ,17.16836 
195 ,42.4073 ,1.26819 ,1.70866 ,16.76542 
196 ,42.6152 ,1.27030 ,1.68471 ,16.53037 
197 ,42.8398 ,1.27243 ,1.68813 ,16.56395 
198 ,43.0312 ,1.27453 ,1.64707 ,16.16101 
199 ,43.2237 ,1.27644 ,1.65391 ,16.22816 
200 ,43.4316 ,1.27839 ,1.61284 ,15.82522 
201 ,43.6400 ,1.28049 ,1.62311 ,15.92596 
202 ,43.8476 ,1.28265 ,1.59573 ,15.65733 
203 ,44.0560 ,1.28462 ,1.58889 ,15.59018 
204 ,44.2802 ,1.28691 ,1.56836 ,15.38871 
205 ,44.5041 ,1.28914 ,1.54098 ,15.12008 
206 ,44.7119 ,1.29128 ,1.51702 ,14.88503 
207 ,44.9205 ,1.29325 ,1.53413 ,15.05292 
208 ,45.1445 ,1.29550 ,1.48965 ,14.61640 
209 ,45.3685 ,1.29768 ,1.47596 ,14.48209 
210 ,45.5927 ,1.30002 ,1.45200 ,14.24704 
211 ,45.8007 ,1.30205 ,1.45200 ,14.24704 
212 ,46.0248 ,1.30429 ,1.42805 ,14.01199 
213 ,46.2329 ,1.30636 ,1.41094 ,13.84410 
214 ,46.4410 ,1.30846 ,1.39725 ,13.70979 
215 ,46.6807 ,1.31077 ,1.38014 ,13.54190 
216 ,46.8727 ,1.31291 ,1.36645 ,13.40759 
217 ,47.0809 ,1.31486 ,1.36987 ,13.44116 
218 ,47.2893 ,1.31693 ,1.33565 ,13.10538 
219 ,47.4974 ,1.31913 ,1.31854 ,12.93749 
220 ,47.7053 ,1.32113 ,1.31169 ,12.87033 
221 ,47.9297 ,1.32337 ,1.29116 ,12.66886 
222 ,48.1536 ,1.32555 ,1.27405 ,12.50097 
223 ,48.3937 ,1.32798 ,1.25694 ,12.33308 
224 ,48.6017 ,1.33005 ,1.24667 ,12.23235 
225 ,48.8100 ,1.33213 ,1.20903 ,11.86298 
226 ,49.0342 ,1.33442 ,1.21245 ,11.89656 
227 ,49.2580 ,1.33664 ,1.20903 ,11.86298 
228 ,49.4663 ,1.33868 ,1.16796 ,11.46004 
229 ,49.6899 ,1.34097 ,1.15085 ,11.29215 
230 ,49.8982 ,1.34301 ,1.15770 ,11.35931 
231 ,50.1064 ,1.34511 ,1.12347 ,11.02353 
232 ,50.3142 ,1.34731 ,1.11321 ,10.92279 
233 ,50.5227 ,1.34926 ,1.10979 ,10.88921 
234 ,50.7463 ,1.35153 ,1.08241 ,10.62059 
235 ,50.9548 ,1.35362 ,1.07556 ,10.55343 
236 ,51.1787 ,1.35579 ,1.06872 ,10.48627 
237 ,51.4191 ,1.35814 ,1.04134 ,10.21765 
238 ,51.6431 ,1.36048 ,1.02765 ,10.08333 
239 ,51.8509 ,1.36257 ,0.99685 ,9.78113 
240 ,52.0593 ,1.36465 ,1.00712 ,9.88186 
241 ,52.2834 ,1.36687 ,0.97974 ,9.61324 
242 ,52.5076 ,1.36907 ,0.95921 ,9.41177 
243 ,52.7312 ,1.37137 ,0.93183 ,9.14314 
244 ,52.9393 ,1.37343 ,0.93183 ,9.14314 
245 ,53.1478 ,1.37547 ,1.18165 ,11.59436 
246 ,53.3719 ,1.37773 ,1.19192 ,11.69509 
247 ,53.5799 ,1.37982 ,1.20561 ,11.82941 
248 ,53.7719 ,1.38187 ,1.18507 ,11.62794 
249 ,53.9801 ,1.38380 ,1.19192 ,11.69509 
250 ,54.2200 ,1.38611 ,1.16454 ,11.42647 
251 ,54.4283 ,1.38837 ,1.14058 ,11.19142 
252 ,54.6364 ,1.39042 ,1.16112 ,11.39289 
253 ,54.8605 ,1.39265 ,1.15085 ,11.29215 
254 ,55.0524 ,1.39466 ,1.12347 ,11.02353 
255 ,55.2925 ,1.39688 ,1.12690 ,11.05710 
256 ,55.5006 ,1.39915 ,1.12690 ,11.05710 
257 ,55.7089 ,1.40108 ,1.08583 ,10.65416 
258 ,55.9486 ,1.40339 ,1.10294 ,10.82206 
259 ,56.1728 ,1.40564 ,1.08583 ,10.65416 
260 ,56.3970 ,1.40806 ,1.09610 ,10.75490 
261 ,56.6212 ,1.41023 ,1.07556 ,10.55343 
262 ,56.8451 ,1.41246 ,1.05161 ,10.31838 
263 ,57.0693 ,1.41469 ,1.04819 ,10.28480 
264 ,57.2934 ,1.41692 ,1.05845 ,10.38554 
265 ,57.5174 ,1.41919 ,1.03792 ,10.18407 
266 ,57.7415 ,1.42145 ,1.04476 ,10.25123 
267 ,57.9657 ,1.42362 ,1.01054 ,9.91544 
268 ,58.1899 ,1.42591 ,1.00370 ,9.84829 
269 ,58.4297 ,1.42823 ,1.00028 ,9.81471 
270 ,58.6539 ,1.43052 ,1.00370 ,9.84829 
271 ,58.8620 ,1.43262 ,0.99001 ,9.71397 
272 ,59.0702 ,1.43475 ,0.96948 ,9.51250 
273 ,59.2939 ,1.43695 ,0.96948 ,9.51250 
274 ,59.5024 ,1.43903 ,0.94894 ,9.31103 
275 ,59.7263 ,1.44133 ,0.94210 ,9.24388 
276 ,59.9825 ,1.44381 ,0.94894 ,9.31103 
277 ,60.1907 ,1.44590 ,0.92841 ,9.10956 
278 ,60.3826 ,1.44795 ,0.94210 ,9.24388 
279 ,60.6069 ,1.45001 ,0.91814 ,9.00883 
280 ,60.8306 ,1.45227 ,0.91472 ,8.97525 
281 ,61.0549 ,1.45450 ,0.92157 ,9.04241 
282 ,61.2626 ,1.45662 ,0.90788 ,8.90809 
283 ,61.4712 ,1.45868 ,0.89077 ,8.74020 
284 ,61.6950 ,1.46092 ,0.90446 ,8.87451 
285 ,61.9032 ,1.46304 ,0.87366 ,8.57231 
286 ,62.1436 ,1.46534 ,0.86681 ,8.50515 
287 ,62.3673 ,1.46769 ,0.85654 ,8.40442 
288 ,62.5757 ,1.46981 ,0.85997 ,8.43800 
289 ,62.7836 ,1.47183 ,0.83943 ,8.23653 
290 ,63.0077 ,1.47404 ,0.84628 ,8.30368 
291 ,63.2159 ,1.47610 ,0.83601 ,8.20295 
292 ,63.4240 ,1.47822 ,0.81548 ,8.00148 
293 ,63.6481 ,1.48048 ,0.82232 ,8.06864 
294 ,63.8562 ,1.48252 ,0.82917 ,8.13579 
295 ,64.0637 ,1.48472 ,0.82232 ,8.06864 
296 ,64.2723 ,1.48669 ,0.81548 ,8.00148 
297 ,64.4963 ,1.48897 ,0.81890 ,8.03506 
298 ,64.7045 ,1.49099 ,0.80521 ,7.90074 
299 ,64.9126 ,1.49309 ,0.78810 ,7.73285 
300 ,65.1363 ,1.49538 ,0.79495 ,7.80001 
301 ,65.3605 ,1.49749 ,0.76757 ,7.53138 
302 ,65.5848 ,1.49983 ,0.77099 ,7.56496 
303 ,65.7928 ,1.50189 ,0.78468 ,7.69927 
304 ,66.0010 ,1.50399 ,0.77784 ,7.63212 
305 ,66.2086 ,1.50606 ,0.75730 ,7.43065 
306 ,66.4331 ,1.50826 ,0.76757 ,7.53138 
307 ,66.6412 ,1.51041 ,0.77099 ,7.56496 
308 ,66.8491 ,1.51243 ,0.75046 ,7.36349 
309 ,67.0414 ,1.51450 ,0.76415 ,7.49780 
310 ,67.2495 ,1.51646 ,0.73335 ,7.19560 
311 ,67.4736 ,1.51866 ,0.75046 ,7.36349 
312 ,67.6975 ,1.52097 ,0.75388 ,7.39707 
313 ,67.9058 ,1.52301 ,0.72650 ,7.12844 
314 ,68.0978 ,1.52508 ,0.75730 ,7.43065 
315 ,68.2899 ,1.52699 ,0.72308 ,7.09486 
316 ,68.4979 ,1.52902 ,0.71966 ,7.06129 
317 ,68.7061 ,1.53103 ,0.71281 ,6.99413 
318 ,68.9301 ,1.53328 ,0.70597 ,6.92697 
319 ,69.1543 ,1.53548 ,0.72308 ,7.09486 
320 ,69.3625 ,1.53762 ,0.70597 ,6.92697 
321 ,69.5701 ,1.53969 ,0.69228 ,6.79266 
322 ,69.7787 ,1.54177 ,0.71624 ,7.02771 
323 ,69.9866 ,1.54377 ,0.68886 ,6.75908 
324 ,70.1946 ,1.54591 ,0.70255 ,6.89340 
325 ,70.4189 ,1.54817 ,0.69228 ,6.79266 
326 ,70.6267 ,1.55029 ,0.67517 ,6.62477 
327 ,70.8830 ,1.55268 ,0.69228 ,6.79266 
328 ,71.1072 ,1.55504 ,0.67517 ,6.62477 
329 ,71.3312 ,1.55728 ,0.68201 ,6.69193 
330 ,71.5553 ,1.55948 ,0.68544 ,6.72550 
331 ,71.7789 ,1.56177 ,0.68544 ,6.72550 
332 ,71.9873 ,1.56383 ,0.66833 ,6.55761 
333 ,72.2112 ,1.56606 ,0.67517 ,6.62477 
334 ,72.4354 ,1.56827 ,0.67175 ,6.59119 
335 ,72.6598 ,1.57056 ,0.67517 ,6.62477 
336 ,72.8674 ,1.57262 ,0.64095 ,6.28899 
337 ,73.0919 ,1.57485 ,0.65464 ,6.42330 
338 ,73.3321 ,1.57715 ,0.66833 ,6.55761 
339 ,73.5401 ,1.57933 ,0.65121 ,6.38972 
340 ,73.7641 ,1.58158 ,0.64437 ,6.32256 
341 ,73.9720 ,1.58368 ,0.64437 ,6.32256 
342 ,74.1963 ,1.58586 ,0.64437 ,6.32256 
343 ,74.4205 ,1.58815 ,0.63068 ,6.18825 
344 ,74.6283 ,1.59024 ,0.62042 ,6.08752 
345 ,74.8366 ,1.59228 ,0.64437 ,6.32256 
346 ,75.0607 ,1.59455 ,0.62726 ,6.15467 
347 ,75.2845 ,1.59680 ,0.63068 ,6.18825 
348 ,75.4926 ,1.59885 ,0.64437 ,6.32256 
349 ,75.7331 ,1.60114 ,0.63753 ,6.25541 
350 ,75.9411 ,1.60337 ,0.62726 ,6.15467 
351 ,76.1492 ,1.60545 ,0.63410 ,6.22183 
352 ,76.3891 ,1.60784 ,0.61357 ,6.02036 
353 ,76.6133 ,1.61007 ,0.63410 ,6.22183 
354 ,76.8214 ,1.61225 ,0.63068 ,6.18825 
355 ,77.0454 ,1.61427 ,0.59646 ,5.85247 
356 ,77.2535 ,1.61647 ,0.61699 ,6.05394 
357 ,77.4777 ,1.61866 ,0.59304 ,5.81889 
358 ,77.7014 ,1.62093 ,0.59646 ,5.85247 
359 ,77.9097 ,1.62302 ,0.60330 ,5.91962 
360 ,78.1018 ,1.62507 ,0.60330 ,5.91962 
361 ,78.3101 ,1.62701 ,0.59988 ,5.88605 
362 ,78.5340 ,1.62924 ,0.60330 ,5.91962 
363 ,78.7422 ,1.63149 ,0.60673 ,5.95320 
364 ,78.9659 ,1.63354 ,0.58277 ,5.71815 
365 ,79.1744 ,1.63568 ,0.63410 ,6.22183 
366 ,79.3983 ,1.63790 ,0.62726 ,6.15467 
367 ,79.5902 ,1.63994 ,0.60330 ,5.91962 
368 ,79.7986 ,1.64191 ,0.62726 ,6.15467 
369 ,80.0228 ,1.64415 ,0.60673 ,5.95320 
370 ,80.2310 ,1.64624 ,0.61357 ,6.02036 
371 ,80.4548 ,1.64847 ,0.63068 ,6.18825 
372 ,80.6466 ,1.65052 ,0.61015 ,5.98678 
373 ,80.8551 ,1.65252 ,0.62726 ,6.15467 
374 ,81.0793 ,1.65473 ,0.61357 ,6.02036 
375 ,81.2870 ,1.65677 ,0.62726 ,6.15467 
376 ,81.4953 ,1.65887 ,0.62726 ,6.15467 
377 ,81.7191 ,1.66109 ,0.62042 ,6.08752 
378 ,81.9437 ,1.66335 ,0.62384 ,6.12109 
379 ,82.1678 ,1.66556 ,0.61699 ,6.05394 
380 ,82.3919 ,1.66784 ,0.62042 ,6.08752 
381 ,82.5999 ,1.66995 ,0.62726 ,6.15467 
382 ,82.8396 ,1.67218 ,0.61015 ,5.98678 
383 ,83.0642 ,1.67456 ,0.59988 ,5.88605 
384 ,83.2882 ,1.67682 ,0.61357 ,6.02036 
385 ,83.4802 ,1.67881 ,0.61357 ,6.02036 
386 ,83.7039 ,1.68090 ,0.60330 ,5.91962 
387 ,83.9124 ,1.68303 ,0.62726 ,6.15467 
388 ,84.1525 ,1.68542 ,0.63753 ,6.25541 
389 ,84.3765 ,1.68773 ,0.62726 ,6.15467 
390 ,84.6008 ,1.68992 ,0.61357 ,6.02036 
391 ,84.8088 ,1.69200 ,0.62726 ,6.15467 
392 ,85.0330 ,1.69422 ,0.67517 ,6.62477 
393 ,85.2570 ,1.69649 ,0.69228 ,6.79266 
394 ,85.4809 ,1.69872 ,0.67517 ,6.62477 
395 ,85.7048 ,1.70097 ,0.66833 ,6.55761 
396 ,85.9130 ,1.70298 ,0.69913 ,6.85982 
397 ,86.1215 ,1.70512 ,0.67859 ,6.65835 
398 ,86.3614 ,1.70753 ,0.68544 ,6.72550 
399 ,86.5856 ,1.70976 ,0.67517 ,6.62477 
400 ,86.8097 ,1.71200 ,0.67859 ,6.65835 
401 ,87.0178 ,1.71406 ,0.67859 ,6.65835 
402 ,87.2259 ,1.71620 ,0.67859 ,6.65835 
403 ,87.4496 ,1.71833 ,0.68201 ,6.69193 
404 ,87.6741 ,1.72062 ,0.69570 ,6.82624 
405 ,87.8820 ,1.72274 ,0.67859 ,6.65835 
406 ,88.1062 ,1.72493 ,0.68886 ,6.75908 
407 ,88.3139 ,1.72704 ,0.69228 ,6.79266 
408 ,88.5223 ,1.72911 ,0.68544 ,6.72550 
409 ,88.7466 ,1.73133 ,0.67517 ,6.62477 
410 ,88.9706 ,1.73357 ,0.68201 ,6.69193 
411 ,89.1627 ,1.73564 ,0.68544 ,6.72550 
412 ,89.4026 ,1.73774 ,0.67175 ,6.59119 
413 ,89.6267 ,1.74015 ,0.69228 ,6.79266 
414 ,89.8349 ,1.74222 ,0.69228 ,6.79266 
415 ,90.0433 ,1.74432 ,0.66833 ,6.55761 
416 ,90.2669 ,1.74656 ,0.68886 ,6.75908 
417 ,90.4752 ,1.74863 ,0.69228 ,6.79266 
418 ,90.6993 ,1.75086 ,0.68544 ,6.72550 
419 ,90.9075 ,1.75294 ,0.68201 ,6.69193 
420 ,91.0994 ,1.75500 ,0.68886 ,6.75908 
421 ,91.3076 ,1.75692 ,0.67859 ,6.65835 
422 ,91.5153 ,1.75902 ,0.69570 ,6.82624 
423 ,91.7553 ,1.76134 ,0.68201 ,6.69193 
424 ,91.9799 ,1.76356 ,0.68544 ,6.72550 
425 ,92.2036 ,1.76592 ,0.68201 ,6.69193 
426 ,92.4281 ,1.76809 ,0.67859 ,6.65835 
427 ,92.6360 ,1.77036 ,0.69228 ,6.79266 
428 ,92.8439 ,1.77229 ,0.66833 ,6.55761 
429 ,93.0524 ,1.77440 ,0.69228 ,6.79266 
430 ,93.2767 ,1.77664 ,0.68544 ,6.72550 
431 ,93.4845 ,1.77873 ,0.68201 ,6.69193 
432 ,93.6923 ,1.78089 ,0.68544 ,6.72550 
433 ,93.9005 ,1.78288 ,0.68544 ,6.72550 
434 ,94.1408 ,1.78524 ,0.68201 ,6.69193 
435 ,94.3648 ,1.78758 ,0.68201 ,6.69193 
436 ,94.5729 ,1.78954 ,0.69228 ,6.79266 
437 ,94.7650 ,1.79164 ,0.66833 ,6.55761 
438 ,94.9732 ,1.79361 ,0.69570 ,6.82624 
439 ,95.2291 ,1.79606 ,0.68201 ,6.69193 
440 ,95.4530 ,1.79838 ,0.68886 ,6.75908 
441 ,95.6929 ,1.80071 ,0.68886 ,6.75908 
442 ,95.9171 ,1.80307 ,0.68201 ,6.69193 
443 ,96.1733 ,1.80562 ,0.68201 ,6.69193 
444 ,96.3975 ,1.80785 ,0.68201 ,6.69193 
445 ,96.6218 ,1.81002 ,0.66833 ,6.55761 
446 ,96.8299 ,1.81218 ,0.68544 ,6.72550 
447 ,97.0539 ,1.81439 ,0.69913 ,6.85982 
448 ,97.2777 ,1.81668 ,0.67859 ,6.65835 
449 ,97.5019 ,1.81894 ,0.67175 ,6.59119 
450 ,97.7259 ,1.82110 ,0.68544 ,6.72550 
451 ,97.9503 ,1.82332 ,0.69228 ,6.79266 
452 ,98.1582 ,1.82541 ,0.68544 ,6.72550 
453 ,98.3826 ,1.82769 ,0.66833 ,6.55761 
454 ,98.6386 ,1.83012 ,0.67517 ,6.62477 
455 ,98.8628 ,1.83250 ,0.67859 ,6.65835 
456 ,99.0710 ,1.83458 ,0.68544 ,6.72550 
457 ,99.2789 ,1.83662 ,0.67175 ,6.59119 
458 ,99.4710 ,1.83869 ,0.68886 ,6.75908 
459 ,99.6948 ,1.84076 ,0.67859 ,6.65835 
460 ,99.9191 ,1.84298 ,0.67859 ,6.65835 
461 ,100.1112 ,1.84508 ,0.66833 ,6.55761 
462 ,100.3192 ,1.84706 ,0.67859 ,6.65835 
463 ,100.5274 ,1.84910 ,0.68544 ,6.72550 
464 ,100.7513 ,1.85134 ,0.69228 ,6.79266 
465 ,100.9917 ,1.85359 ,0.68544 ,6.72550 
466 ,101.1835 ,1.85582 ,0.68201 ,6.69193 
467 ,101.3917 ,1.85774 ,0.69570 ,6.82624 
