Data stamp = , 03-06-2022 07:07:21 728

Calibration Values: 
Slope = , 26.54 , g/V 
Offset Voltage at no contact = , -0.501760 , V 

No , Time , Stage Position ,   Mass , Force 
   ,  (s) ,      (mm)      ,   (g)  , (mN)  

1 ,0.0000 ,0.84961 ,5.30536 ,52.05621 
2 ,0.2313 ,0.84973 ,5.30536 ,52.05621 
3 ,0.7598 ,0.85148 ,5.30194 ,52.02263 
4 ,1.0320 ,0.85446 ,5.29167 ,51.92190 
5 ,1.2881 ,0.85696 ,5.30194 ,52.02263 
6 ,1.5123 ,0.85940 ,5.29167 ,51.92190 
7 ,1.7198 ,0.86155 ,5.27114 ,51.72043 
8 ,2.0241 ,0.86410 ,5.24376 ,51.45180 
9 ,2.2482 ,0.86679 ,5.21296 ,51.14960 
10 ,2.4565 ,0.86891 ,5.20270 ,51.04886 
11 ,2.6808 ,0.87120 ,5.18216 ,50.84739 
12 ,2.8887 ,0.87322 ,5.14794 ,50.51161 
13 ,3.0968 ,0.87531 ,5.13768 ,50.41087 
14 ,3.3209 ,0.87754 ,5.10688 ,50.10867 
15 ,3.5445 ,0.87975 ,5.07950 ,49.84004 
16 ,3.7530 ,0.88181 ,5.07608 ,49.80646 
17 ,3.9773 ,0.88408 ,5.06239 ,49.67215 
18 ,4.2013 ,0.88631 ,5.02817 ,49.33637 
19 ,4.4252 ,0.88857 ,4.99737 ,49.03416 
20 ,4.6334 ,0.89064 ,4.99394 ,49.00058 
21 ,4.8577 ,0.89286 ,4.97341 ,48.79911 
22 ,5.0815 ,0.89511 ,4.93919 ,48.46333 
23 ,5.2896 ,0.89726 ,4.92892 ,48.36260 
24 ,5.5137 ,0.89946 ,4.90497 ,48.12755 
25 ,5.7219 ,0.90156 ,4.87417 ,47.82534 
26 ,5.9301 ,0.90361 ,4.85364 ,47.62387 
27 ,6.1217 ,0.90565 ,4.85021 ,47.59030 
28 ,6.3142 ,0.90755 ,4.81941 ,47.28809 
29 ,6.5222 ,0.90950 ,4.79546 ,47.05304 
30 ,6.7304 ,0.91163 ,4.78519 ,46.95231 
31 ,6.9385 ,0.91370 ,4.76808 ,46.78442 
32 ,7.1625 ,0.91594 ,4.74413 ,46.54937 
33 ,7.4184 ,0.91835 ,4.71333 ,46.24716 
34 ,7.6428 ,0.92075 ,4.69279 ,46.04569 
35 ,7.8669 ,0.92300 ,4.66542 ,45.77707 
36 ,8.0748 ,0.92507 ,4.66884 ,45.81065 
37 ,8.2986 ,0.92728 ,4.63804 ,45.50844 
38 ,8.5232 ,0.92951 ,4.61066 ,45.23981 
39 ,8.7472 ,0.93177 ,4.57644 ,44.90403 
40 ,8.9553 ,0.93384 ,4.57302 ,44.87045 
41 ,9.1634 ,0.93591 ,4.54564 ,44.60183 
42 ,9.3715 ,0.93807 ,4.54564 ,44.60183 
43 ,9.5954 ,0.94025 ,4.52169 ,44.36678 
44 ,9.8034 ,0.94227 ,4.48404 ,43.99742 
45 ,10.0276 ,0.94453 ,4.47035 ,43.86310 
46 ,10.2514 ,0.94681 ,4.45666 ,43.72879 
47 ,10.5074 ,0.94929 ,4.44298 ,43.59448 
48 ,10.7795 ,0.95193 ,4.41560 ,43.32585 
49 ,11.0037 ,0.95435 ,4.37453 ,42.92291 
50 ,11.2280 ,0.95664 ,4.35742 ,42.75502 
51 ,11.4361 ,0.95869 ,4.34031 ,42.58713 
52 ,11.6601 ,0.96088 ,4.31636 ,42.35208 
53 ,11.9319 ,0.96346 ,4.31293 ,42.31850 
54 ,12.1560 ,0.96579 ,4.27871 ,41.98272 
55 ,12.3647 ,0.96799 ,4.24107 ,41.61336 
56 ,12.5888 ,0.97019 ,4.23080 ,41.51262 
57 ,12.8127 ,0.97236 ,4.21711 ,41.37831 
58 ,13.0688 ,0.97476 ,4.18631 ,41.07611 
59 ,13.2930 ,0.97725 ,4.17947 ,41.00895 
60 ,13.5012 ,0.97932 ,4.13840 ,40.60601 
61 ,13.7250 ,0.98153 ,4.12814 ,40.50527 
62 ,13.9333 ,0.98360 ,4.12129 ,40.43812 
63 ,14.1894 ,0.98605 ,4.09049 ,40.13591 
64 ,14.4132 ,0.98840 ,4.06996 ,39.93444 
65 ,14.6052 ,0.99051 ,4.03232 ,39.56508 
66 ,14.8134 ,0.99245 ,4.04258 ,39.66582 
67 ,15.0374 ,0.99461 ,4.01178 ,39.36361 
68 ,15.2455 ,0.99672 ,4.00836 ,39.33003 
69 ,15.4699 ,0.99899 ,3.97414 ,38.99425 
70 ,15.6937 ,1.00120 ,3.95703 ,38.82636 
71 ,15.9018 ,1.00332 ,3.91596 ,38.42342 
72 ,16.1262 ,1.00551 ,3.91596 ,38.42342 
73 ,16.3183 ,1.00759 ,3.89885 ,38.25553 
74 ,16.5260 ,1.00947 ,3.88174 ,38.08764 
75 ,16.7501 ,1.01173 ,3.86121 ,37.88617 
76 ,16.9743 ,1.01401 ,3.83383 ,37.61754 
77 ,17.1822 ,1.01609 ,3.81330 ,37.41607 
78 ,17.4062 ,1.01835 ,3.79961 ,37.28176 
79 ,17.6145 ,1.02045 ,3.78592 ,37.14744 
80 ,17.8388 ,1.02268 ,3.75512 ,36.84524 
81 ,18.0629 ,1.02491 ,3.72432 ,36.54303 
82 ,18.2710 ,1.02698 ,3.72090 ,36.50946 
83 ,18.4628 ,1.02905 ,3.68325 ,36.14010 
84 ,18.6873 ,1.03112 ,3.68668 ,36.17367 
85 ,18.9113 ,1.03338 ,3.66957 ,36.00578 
86 ,19.1353 ,1.03562 ,3.63534 ,35.67000 
87 ,19.3434 ,1.03768 ,3.61481 ,35.46853 
88 ,19.5514 ,1.03981 ,3.60797 ,35.40137 
89 ,19.7917 ,1.04209 ,3.57717 ,35.09917 
90 ,20.0158 ,1.04443 ,3.55663 ,34.89770 
91 ,20.2238 ,1.04653 ,3.54295 ,34.76338 
92 ,20.4320 ,1.04858 ,3.53610 ,34.69623 
93 ,20.6401 ,1.05071 ,3.50188 ,34.36045 
94 ,20.8802 ,1.05306 ,3.47792 ,34.12540 
95 ,21.1042 ,1.05529 ,3.46424 ,33.99108 
96 ,21.3121 ,1.05743 ,3.46081 ,33.95751 
97 ,21.5204 ,1.05944 ,3.41975 ,33.55457 
98 ,21.7442 ,1.06165 ,3.41290 ,33.48741 
99 ,21.9523 ,1.06378 ,3.39237 ,33.28594 
100 ,22.1607 ,1.06584 ,3.35815 ,32.95016 
101 ,22.3687 ,1.06792 ,3.36499 ,33.01731 
102 ,22.5768 ,1.06996 ,3.33077 ,32.68153 
103 ,22.7848 ,1.07208 ,3.31024 ,32.48006 
104 ,22.9925 ,1.07420 ,3.30339 ,32.41290 
105 ,23.2009 ,1.07622 ,3.26575 ,32.04354 
106 ,23.4091 ,1.07831 ,3.27602 ,32.14428 
107 ,23.6169 ,1.08041 ,3.23153 ,31.70776 
108 ,23.8413 ,1.08259 ,3.21784 ,31.57345 
109 ,24.0489 ,1.08477 ,3.21784 ,31.57345 
110 ,24.2577 ,1.08686 ,3.16651 ,31.06977 
111 ,24.5136 ,1.08939 ,3.17677 ,31.17051 
112 ,24.7377 ,1.09158 ,3.13913 ,30.80115 
113 ,24.9457 ,1.09368 ,3.12886 ,30.70041 
114 ,25.1694 ,1.09592 ,3.11860 ,30.59968 
115 ,25.3779 ,1.09808 ,3.07753 ,30.19674 
116 ,25.6020 ,1.10025 ,3.06384 ,30.06242 
117 ,25.8101 ,1.10232 ,3.06726 ,30.09600 
118 ,26.0021 ,1.10439 ,3.01935 ,29.62590 
119 ,26.2103 ,1.10633 ,3.02620 ,29.69306 
120 ,26.4341 ,1.10859 ,2.98855 ,29.32370 
121 ,26.6584 ,1.11080 ,2.97487 ,29.18939 
122 ,26.8665 ,1.11290 ,2.97144 ,29.15581 
123 ,27.0745 ,1.11500 ,2.94064 ,28.85360 
124 ,27.2829 ,1.11704 ,2.92011 ,28.65213 
125 ,27.4747 ,1.11908 ,2.93038 ,28.75287 
126 ,27.6828 ,1.12096 ,2.89616 ,28.41709 
127 ,27.8908 ,1.12312 ,2.87562 ,28.21562 
128 ,28.0990 ,1.12522 ,2.85509 ,28.01415 
129 ,28.3071 ,1.12730 ,2.85167 ,27.98057 
130 ,28.5306 ,1.12952 ,2.83114 ,27.77910 
131 ,28.7391 ,1.13165 ,2.78665 ,27.34258 
132 ,28.9632 ,1.13382 ,2.78322 ,27.30900 
133 ,29.1714 ,1.13596 ,2.77980 ,27.27542 
134 ,29.3953 ,1.13813 ,2.73874 ,26.87248 
135 ,29.6193 ,1.14042 ,2.72847 ,26.77175 
136 ,29.8438 ,1.14265 ,2.71478 ,26.63744 
137 ,30.0675 ,1.14494 ,2.69083 ,26.40239 
138 ,30.2760 ,1.14697 ,2.66003 ,26.10018 
139 ,30.5001 ,1.14915 ,2.66345 ,26.13376 
140 ,30.7399 ,1.15148 ,2.64634 ,25.96587 
141 ,30.9802 ,1.15390 ,2.62923 ,25.79798 
142 ,31.2043 ,1.15626 ,2.60869 ,25.59651 
143 ,31.4123 ,1.15839 ,2.58474 ,25.36146 
144 ,31.6205 ,1.16043 ,2.57105 ,25.22715 
145 ,31.8285 ,1.16247 ,2.55736 ,25.09283 
146 ,32.0686 ,1.16488 ,2.52998 ,24.82421 
147 ,32.2923 ,1.16708 ,2.50603 ,24.58916 
148 ,32.5163 ,1.16947 ,2.49234 ,24.45485 
149 ,32.7244 ,1.17151 ,2.45470 ,24.08549 
150 ,32.9646 ,1.17383 ,2.45470 ,24.08549 
151 ,33.2207 ,1.17628 ,2.44101 ,23.95117 
152 ,33.4771 ,1.17889 ,2.40679 ,23.61539 
153 ,33.7011 ,1.18125 ,2.38968 ,23.44750 
154 ,33.9094 ,1.18324 ,2.37256 ,23.27961 
155 ,34.1174 ,1.18536 ,2.34177 ,22.97740 
156 ,34.3574 ,1.18773 ,2.32465 ,22.80951 
157 ,34.5656 ,1.18985 ,2.33492 ,22.91024 
158 ,34.7898 ,1.19209 ,2.30070 ,22.57446 
159 ,35.0140 ,1.19431 ,2.27674 ,22.33941 
160 ,35.2381 ,1.19655 ,2.25279 ,22.10437 
161 ,35.4780 ,1.19893 ,2.23568 ,21.93647 
162 ,35.7021 ,1.20117 ,2.22541 ,21.83574 
163 ,35.9103 ,1.20326 ,2.20488 ,21.63427 
164 ,36.1342 ,1.20554 ,2.17750 ,21.36564 
165 ,36.3424 ,1.20761 ,2.18777 ,21.46638 
166 ,36.5985 ,1.21017 ,2.15012 ,21.09702 
167 ,36.8067 ,1.21231 ,2.13986 ,20.99628 
168 ,37.0307 ,1.21449 ,2.10906 ,20.69408 
169 ,37.2547 ,1.21672 ,2.08852 ,20.49261 
170 ,37.4625 ,1.21881 ,2.08852 ,20.49261 
171 ,37.7026 ,1.22118 ,2.06799 ,20.29114 
172 ,37.9269 ,1.22341 ,2.04746 ,20.08967 
173 ,38.1508 ,1.22573 ,2.03377 ,19.95535 
174 ,38.3427 ,1.22773 ,1.99955 ,19.61957 
175 ,38.5508 ,1.22967 ,1.99613 ,19.58599 
176 ,38.7590 ,1.23178 ,1.97902 ,19.41810 
177 ,38.9514 ,1.23381 ,1.97902 ,19.41810 
178 ,39.1756 ,1.23593 ,1.95164 ,19.14948 
179 ,39.3996 ,1.23819 ,1.93111 ,18.94801 
180 ,39.6078 ,1.24025 ,1.91057 ,18.74654 
181 ,39.8154 ,1.24236 ,1.88319 ,18.47791 
182 ,40.0400 ,1.24452 ,1.88662 ,18.51149 
183 ,40.2640 ,1.24681 ,1.87293 ,18.37717 
184 ,40.4723 ,1.24894 ,1.83528 ,18.00781 
185 ,40.6804 ,1.25098 ,1.82844 ,17.94066 
186 ,40.9039 ,1.25324 ,1.82160 ,17.87350 
187 ,41.1285 ,1.25550 ,1.80106 ,17.67203 
188 ,41.3524 ,1.25770 ,1.76684 ,17.33625 
189 ,41.5605 ,1.25982 ,1.76684 ,17.33625 
190 ,41.7684 ,1.26191 ,1.74631 ,17.13478 
191 ,42.0084 ,1.26421 ,1.73262 ,17.00046 
192 ,42.2327 ,1.26650 ,1.70182 ,16.69826 
193 ,42.4569 ,1.26879 ,1.69155 ,16.59752 
194 ,42.6649 ,1.27086 ,1.68129 ,16.49679 
195 ,42.8730 ,1.27293 ,1.65049 ,16.19458 
196 ,43.0811 ,1.27498 ,1.64707 ,16.16101 
197 ,43.2892 ,1.27711 ,1.61284 ,15.82522 
198 ,43.4972 ,1.27919 ,1.60942 ,15.79164 
199 ,43.7053 ,1.28122 ,1.60600 ,15.75807 
200 ,43.9296 ,1.28347 ,1.57178 ,15.42228 
201 ,44.1535 ,1.28572 ,1.56151 ,15.32155 
202 ,44.3617 ,1.28782 ,1.56836 ,15.38871 
203 ,44.5699 ,1.28988 ,1.53413 ,15.05292 
204 ,44.7940 ,1.29207 ,1.50333 ,14.75072 
205 ,45.0022 ,1.29421 ,1.51018 ,14.81787 
206 ,45.2260 ,1.29638 ,1.48280 ,14.54925 
207 ,45.4339 ,1.29851 ,1.46911 ,14.41493 
208 ,45.6419 ,1.30059 ,1.46569 ,14.38136 
209 ,45.8503 ,1.30266 ,1.42462 ,13.97842 
210 ,46.0584 ,1.30473 ,1.42805 ,14.01199 
211 ,46.2827 ,1.30699 ,1.41778 ,13.91126 
212 ,46.4901 ,1.30907 ,1.39383 ,13.67621 
213 ,46.7147 ,1.31132 ,1.36303 ,13.37401 
214 ,46.9388 ,1.31352 ,1.35276 ,13.27327 
215 ,47.2589 ,1.31630 ,1.35618 ,13.30685 
216 ,47.4509 ,1.31880 ,1.31512 ,12.90391 
217 ,47.6588 ,1.32068 ,1.30827 ,12.83675 
218 ,47.8669 ,1.32280 ,1.29116 ,12.66886 
219 ,48.0909 ,1.32506 ,1.26720 ,12.43381 
220 ,48.2992 ,1.32709 ,1.25352 ,12.29950 
221 ,48.5233 ,1.32939 ,1.24667 ,12.23235 
222 ,48.7311 ,1.33148 ,1.21929 ,11.96372 
223 ,48.9396 ,1.33358 ,1.20561 ,11.82941 
224 ,49.1637 ,1.33576 ,1.19876 ,11.76225 
225 ,49.3718 ,1.33785 ,1.16796 ,11.46004 
226 ,49.5638 ,1.33990 ,1.16454 ,11.42647 
227 ,49.7717 ,1.34186 ,1.14401 ,11.22500 
228 ,49.9961 ,1.34416 ,1.13374 ,11.12426 
229 ,50.2201 ,1.34636 ,1.12690 ,11.05710 
230 ,50.4279 ,1.34846 ,1.09610 ,10.75490 
231 ,50.6361 ,1.35048 ,1.08241 ,10.62059 
232 ,50.8284 ,1.35254 ,1.07556 ,10.55343 
233 ,51.0361 ,1.35454 ,1.05161 ,10.31838 
234 ,51.2444 ,1.35649 ,1.05503 ,10.35196 
235 ,51.4527 ,1.35865 ,1.01396 ,9.94902 
236 ,51.6608 ,1.36073 ,1.02081 ,10.01618 
237 ,51.8688 ,1.36280 ,0.99685 ,9.78113 
238 ,52.0925 ,1.36502 ,0.97632 ,9.57966 
239 ,52.3011 ,1.36717 ,0.98317 ,9.64682 
240 ,52.5251 ,1.36943 ,0.95579 ,9.37819 
241 ,52.7332 ,1.37149 ,0.92499 ,9.07598 
242 ,52.9413 ,1.37357 ,0.92499 ,9.07598 
243 ,53.1490 ,1.37574 ,0.92841 ,9.10956 
244 ,53.3895 ,1.37787 ,0.88392 ,8.67305 
245 ,53.6135 ,1.38029 ,0.87023 ,8.53873 
246 ,53.8217 ,1.38235 ,0.87023 ,8.53873 
247 ,54.0618 ,1.38465 ,0.84970 ,8.33726 
248 ,54.2855 ,1.38698 ,0.84628 ,8.30368 
249 ,54.4937 ,1.38907 ,1.03108 ,10.11691 
250 ,54.7181 ,1.39135 ,1.13032 ,11.09068 
251 ,54.9264 ,1.39335 ,1.13374 ,11.12426 
252 ,55.1499 ,1.39562 ,1.09952 ,10.78848 
253 ,55.3578 ,1.39774 ,1.11663 ,10.95637 
254 ,55.5826 ,1.39991 ,1.10636 ,10.85563 
255 ,55.8062 ,1.40217 ,1.10979 ,10.88921 
256 ,56.0303 ,1.40440 ,1.06872 ,10.48627 
257 ,56.2384 ,1.40650 ,1.07899 ,10.58701 
258 ,56.4465 ,1.40858 ,1.07556 ,10.55343 
259 ,56.6708 ,1.41090 ,1.06187 ,10.41912 
260 ,56.8949 ,1.41298 ,1.06530 ,10.45270 
261 ,57.1029 ,1.41516 ,1.05845 ,10.38554 
262 ,57.3111 ,1.41723 ,1.03108 ,10.11691 
263 ,57.5352 ,1.41948 ,1.02765 ,10.08333 
264 ,57.7592 ,1.42166 ,1.03792 ,10.18407 
265 ,57.9513 ,1.42376 ,1.00712 ,9.88186 
266 ,58.1594 ,1.42572 ,1.02081 ,10.01618 
267 ,58.3673 ,1.42776 ,0.98659 ,9.68039 
268 ,58.6077 ,1.43021 ,0.98317 ,9.64682 
269 ,58.8317 ,1.43238 ,0.97632 ,9.57966 
270 ,59.0399 ,1.43450 ,0.98317 ,9.64682 
271 ,59.2479 ,1.43660 ,0.95237 ,9.34461 
272 ,59.4880 ,1.43886 ,0.94552 ,9.27745 
273 ,59.7122 ,1.44123 ,0.93183 ,9.14314 
274 ,59.9522 ,1.44351 ,0.94552 ,9.27745 
275 ,60.1923 ,1.44591 ,0.93183 ,9.14314 
276 ,60.4004 ,1.44814 ,0.92841 ,9.10956 
277 ,60.6244 ,1.45033 ,0.91472 ,8.97525 
278 ,60.8325 ,1.45244 ,0.90103 ,8.84094 
279 ,61.0565 ,1.45467 ,0.92157 ,9.04241 
280 ,61.2647 ,1.45671 ,0.89761 ,8.80736 
281 ,61.4727 ,1.45881 ,0.88392 ,8.67305 
282 ,61.6808 ,1.46089 ,0.89419 ,8.77378 
283 ,61.8891 ,1.46293 ,0.87366 ,8.57231 
284 ,62.1126 ,1.46530 ,0.86681 ,8.50515 
285 ,62.3212 ,1.46731 ,0.87366 ,8.57231 
286 ,62.5453 ,1.46958 ,0.85312 ,8.37084 
287 ,62.7694 ,1.47183 ,0.84628 ,8.30368 
288 ,62.9613 ,1.47385 ,0.84970 ,8.33726 
289 ,63.1693 ,1.47578 ,0.82917 ,8.13579 
290 ,63.3934 ,1.47803 ,0.82575 ,8.10221 
291 ,63.6177 ,1.48029 ,0.83601 ,8.20295 
292 ,63.8257 ,1.48247 ,0.82232 ,8.06864 
293 ,64.0338 ,1.48443 ,0.81548 ,8.00148 
294 ,64.2420 ,1.48653 ,0.82575 ,8.10221 
295 ,64.4660 ,1.48872 ,0.78468 ,7.69927 
296 ,64.6738 ,1.49079 ,0.78468 ,7.69927 
297 ,64.8984 ,1.49308 ,0.79837 ,7.83359 
298 ,65.1222 ,1.49531 ,0.79495 ,7.80001 
299 ,65.3304 ,1.49738 ,0.77441 ,7.59854 
300 ,65.5219 ,1.49945 ,0.79152 ,7.76643 
301 ,65.7302 ,1.50137 ,0.75730 ,7.43065 
302 ,65.9226 ,1.50341 ,0.77441 ,7.59854 
303 ,66.1149 ,1.50538 ,0.76757 ,7.53138 
304 ,66.3387 ,1.50748 ,0.78468 ,7.69927 
305 ,66.5464 ,1.50958 ,0.74704 ,7.32991 
306 ,66.7709 ,1.51178 ,0.74361 ,7.29633 
307 ,66.9951 ,1.51401 ,0.75388 ,7.39707 
308 ,67.2031 ,1.51612 ,0.76072 ,7.46423 
309 ,67.4271 ,1.51835 ,0.73677 ,7.22918 
310 ,67.6351 ,1.52045 ,0.73677 ,7.22918 
311 ,67.8756 ,1.52284 ,0.74704 ,7.32991 
312 ,68.0992 ,1.52507 ,0.74019 ,7.26276 
313 ,68.3077 ,1.52718 ,0.72308 ,7.09486 
314 ,68.5156 ,1.52921 ,0.73335 ,7.19560 
315 ,68.7398 ,1.53150 ,0.72308 ,7.09486 
316 ,68.9797 ,1.53383 ,0.70939 ,6.96055 
317 ,69.2042 ,1.53616 ,0.70597 ,6.92697 
318 ,69.4280 ,1.53833 ,0.69570 ,6.82624 
319 ,69.6682 ,1.54077 ,0.69913 ,6.85982 
320 ,69.8920 ,1.54295 ,0.69913 ,6.85982 
321 ,70.1324 ,1.54533 ,0.69228 ,6.79266 
322 ,70.3401 ,1.54760 ,0.69913 ,6.85982 
323 ,70.5641 ,1.54966 ,0.68544 ,6.72550 
324 ,70.7888 ,1.55185 ,0.68886 ,6.75908 
325 ,71.0124 ,1.55418 ,0.67517 ,6.62477 
326 ,71.2368 ,1.55642 ,0.69228 ,6.79266 
327 ,71.4769 ,1.55877 ,0.68544 ,6.72550 
328 ,71.7011 ,1.56106 ,0.67859 ,6.65835 
329 ,71.9092 ,1.56316 ,0.65806 ,6.45688 
330 ,72.1332 ,1.56539 ,0.67517 ,6.62477 
331 ,72.3728 ,1.56773 ,0.65806 ,6.45688 
332 ,72.5969 ,1.57008 ,0.67517 ,6.62477 
333 ,72.8215 ,1.57229 ,0.66833 ,6.55761 
334 ,73.0934 ,1.57501 ,0.64437 ,6.32256 
335 ,73.3173 ,1.57727 ,0.65806 ,6.45688 
336 ,73.5417 ,1.57942 ,0.66490 ,6.52403 
337 ,73.7498 ,1.58167 ,0.63068 ,6.18825 
338 ,73.9576 ,1.58365 ,0.65806 ,6.45688 
339 ,74.1660 ,1.58566 ,0.63410 ,6.22183 
340 ,74.3737 ,1.58783 ,0.64779 ,6.35614 
341 ,74.5983 ,1.59003 ,0.64779 ,6.35614 
342 ,74.8384 ,1.59231 ,0.63753 ,6.25541 
343 ,75.0303 ,1.59442 ,0.61357 ,6.02036 
344 ,75.2706 ,1.59662 ,0.63068 ,6.18825 
345 ,75.4945 ,1.59890 ,0.62726 ,6.15467 
346 ,75.7345 ,1.60136 ,0.63753 ,6.25541 
347 ,75.9589 ,1.60366 ,0.63068 ,6.18825 
348 ,76.1508 ,1.60570 ,0.60673 ,5.95320 
349 ,76.3910 ,1.60783 ,0.62042 ,6.08752 
350 ,76.5990 ,1.61015 ,0.61015 ,5.98678 
351 ,76.8230 ,1.61223 ,0.61015 ,5.98678 
352 ,77.0468 ,1.61452 ,0.59988 ,5.88605 
353 ,77.2552 ,1.61658 ,0.61357 ,6.02036 
354 ,77.4793 ,1.61883 ,0.61015 ,5.98678 
355 ,77.6877 ,1.62093 ,0.59646 ,5.85247 
356 ,77.9116 ,1.62318 ,0.59988 ,5.88605 
357 ,78.1198 ,1.62528 ,0.59988 ,5.88605 
358 ,78.3599 ,1.62749 ,0.58962 ,5.78531 
359 ,78.5518 ,1.62969 ,0.58277 ,5.71815 
360 ,78.7759 ,1.63178 ,0.60330 ,5.91962 
361 ,78.9675 ,1.63385 ,0.58619 ,5.75173 
362 ,79.1761 ,1.63582 ,0.62384 ,6.12109 
363 ,79.4002 ,1.63803 ,0.63068 ,6.18825 
364 ,79.6241 ,1.64023 ,0.61015 ,5.98678 
365 ,79.8483 ,1.64251 ,0.60330 ,5.91962 
366 ,80.0560 ,1.64460 ,0.61699 ,6.05394 
367 ,80.2805 ,1.64679 ,0.61699 ,6.05394 
368 ,80.5044 ,1.64906 ,0.61015 ,5.98678 
369 ,80.7286 ,1.65132 ,0.61357 ,6.02036 
370 ,80.9528 ,1.65355 ,0.62384 ,6.12109 
371 ,81.1764 ,1.65580 ,0.63410 ,6.22183 
372 ,81.4009 ,1.65800 ,0.62384 ,6.12109 
373 ,81.6249 ,1.66027 ,0.61357 ,6.02036 
374 ,81.8330 ,1.66231 ,0.63068 ,6.18825 
375 ,82.0410 ,1.66460 ,0.63068 ,6.18825 
376 ,82.2330 ,1.66645 ,0.62042 ,6.08752 
377 ,82.4572 ,1.66861 ,0.63753 ,6.25541 
378 ,82.6815 ,1.67083 ,0.62384 ,6.12109 
379 ,82.9214 ,1.67322 ,0.61015 ,5.98678 
380 ,83.1454 ,1.67542 ,0.61015 ,5.98678 
381 ,83.3536 ,1.67754 ,0.62384 ,6.12109 
382 ,83.5938 ,1.67994 ,0.63410 ,6.22183 
383 ,83.8019 ,1.68218 ,0.63068 ,6.18825 
384 ,83.9935 ,1.68407 ,0.61357 ,6.02036 
385 ,84.2177 ,1.68616 ,0.61357 ,6.02036 
386 ,84.4261 ,1.68827 ,0.61357 ,6.02036 
387 ,84.6502 ,1.69055 ,0.61357 ,6.02036 
388 ,84.8583 ,1.69260 ,0.66833 ,6.55761 
389 ,85.0824 ,1.69471 ,0.66490 ,6.52403 
390 ,85.3065 ,1.69703 ,0.67859 ,6.65835 
391 ,85.5146 ,1.69919 ,0.69913 ,6.85982 
392 ,85.7222 ,1.70133 ,0.68886 ,6.75908 
393 ,85.9308 ,1.70330 ,0.68544 ,6.72550 
394 ,86.1389 ,1.70536 ,0.68544 ,6.72550 
395 ,86.3470 ,1.70751 ,0.68201 ,6.69193 
396 ,86.5708 ,1.70973 ,0.69228 ,6.79266 
397 ,86.7788 ,1.71184 ,0.68201 ,6.69193 
398 ,86.9712 ,1.71384 ,0.67859 ,6.65835 
399 ,87.1953 ,1.71588 ,0.69570 ,6.82624 
400 ,87.4193 ,1.71821 ,0.68886 ,6.75908 
401 ,87.6114 ,1.72022 ,0.66833 ,6.55761 
402 ,87.8352 ,1.72232 ,0.69228 ,6.79266 
403 ,88.0595 ,1.72464 ,0.67517 ,6.62477 
404 ,88.2836 ,1.72682 ,0.67859 ,6.65835 
405 ,88.4915 ,1.72891 ,0.68201 ,6.69193 
406 ,88.6999 ,1.73104 ,0.67859 ,6.65835 
407 ,88.9237 ,1.73322 ,0.67517 ,6.62477 
408 ,89.1482 ,1.73547 ,0.69228 ,6.79266 
409 ,89.3722 ,1.73770 ,0.69228 ,6.79266 
410 ,89.5804 ,1.73980 ,0.67859 ,6.65835 
411 ,89.7885 ,1.74188 ,0.67859 ,6.65835 
412 ,89.9962 ,1.74392 ,0.68886 ,6.75908 
413 ,90.2205 ,1.74618 ,0.67517 ,6.62477 
414 ,90.4446 ,1.74841 ,0.66833 ,6.55761 
415 ,90.6527 ,1.75051 ,0.68886 ,6.75908 
416 ,90.8928 ,1.75275 ,0.66833 ,6.55761 
417 ,91.1169 ,1.75515 ,0.67517 ,6.62477 
418 ,91.3570 ,1.75746 ,0.67859 ,6.65835 
419 ,91.5647 ,1.75962 ,0.67859 ,6.65835 
420 ,91.7891 ,1.76188 ,0.68201 ,6.69193 
421 ,91.9973 ,1.76392 ,0.68544 ,6.72550 
422 ,92.2053 ,1.76603 ,0.67517 ,6.62477 
423 ,92.4292 ,1.76828 ,0.69228 ,6.79266 
424 ,92.6374 ,1.77032 ,0.67859 ,6.65835 
425 ,92.8456 ,1.77240 ,0.68201 ,6.69193 
426 ,93.0697 ,1.77466 ,0.68886 ,6.75908 
427 ,93.2778 ,1.77676 ,0.68201 ,6.69193 
428 ,93.4855 ,1.77885 ,0.68544 ,6.72550 
429 ,93.6938 ,1.78089 ,0.69228 ,6.79266 
430 ,93.9020 ,1.78300 ,0.68201 ,6.69193 
431 ,94.1101 ,1.78504 ,0.68201 ,6.69193 
432 ,94.3182 ,1.78717 ,0.67859 ,6.65835 
433 ,94.5262 ,1.78918 ,0.68201 ,6.69193 
434 ,94.7662 ,1.79166 ,0.68886 ,6.75908 
435 ,94.9745 ,1.79386 ,0.68544 ,6.72550 
436 ,95.1827 ,1.79591 ,0.67175 ,6.59119 
437 ,95.3906 ,1.79792 ,0.68544 ,6.72550 
438 ,95.5985 ,1.80005 ,0.68886 ,6.75908 
439 ,95.8228 ,1.80220 ,0.67517 ,6.62477 
440 ,96.0470 ,1.80445 ,0.68886 ,6.75908 
441 ,96.2711 ,1.80664 ,0.69570 ,6.82624 
442 ,96.4631 ,1.80870 ,0.67859 ,6.65835 
443 ,96.6872 ,1.81079 ,0.68201 ,6.69193 
444 ,96.8951 ,1.81288 ,0.68544 ,6.72550 
445 ,97.1033 ,1.81496 ,0.67175 ,6.59119 
446 ,97.3115 ,1.81706 ,0.68886 ,6.75908 
447 ,97.5354 ,1.81925 ,0.67175 ,6.59119 
448 ,97.7433 ,1.82149 ,0.67175 ,6.59119 
449 ,97.9513 ,1.82350 ,0.69228 ,6.79266 
450 ,98.1594 ,1.82557 ,0.68544 ,6.72550 
451 ,98.3674 ,1.82764 ,0.68544 ,6.72550 
452 ,98.5595 ,1.82967 ,0.69228 ,6.79266 
453 ,98.7677 ,1.83165 ,0.68886 ,6.75908 
454 ,98.9922 ,1.83388 ,0.69913 ,6.85982 
455 ,99.2320 ,1.83633 ,0.68201 ,6.69193 
456 ,99.4403 ,1.83837 ,0.67517 ,6.62477 
457 ,99.6642 ,1.84060 ,0.67175 ,6.59119 
458 ,99.8725 ,1.84282 ,0.68886 ,6.75908 
459 ,100.0805 ,1.84474 ,0.67175 ,6.59119 
460 ,100.2888 ,1.84685 ,0.69570 ,6.82624 
461 ,100.5128 ,1.84907 ,0.68886 ,6.75908 
462 ,100.7369 ,1.85129 ,0.68886 ,6.75908 
463 ,100.9770 ,1.85365 ,0.66833 ,6.55761 
464 ,101.1851 ,1.85582 ,0.68201 ,6.69193 
465 ,101.3929 ,1.85787 ,0.69228 ,6.79266 
466 ,101.6009 ,1.85991 ,0.67517 ,6.62477 
467 ,101.8414 ,1.86216 ,0.70255 ,6.89340 
468 ,102.0655 ,1.86456 ,0.67859 ,6.65835 
