Data stamp = , 03-06-2022 04:50:56 180

Calibration Values: 
Slope = , 26.54 , g/V 
Offset Voltage at no contact = , -0.501760 , V 

No , Time , Stage Position ,   Mass , Force 
   ,  (s) ,      (mm)      ,   (g)  , (mN)  

1 ,0.0000 ,0.84964 ,5.28483 ,51.85474 
2 ,0.2088 ,0.84973 ,5.28141 ,51.82116 
3 ,1.0256 ,0.85336 ,5.30536 ,52.05621 
4 ,1.2492 ,0.85681 ,5.29510 ,51.95548 
5 ,1.4736 ,0.85897 ,5.28483 ,51.85474 
6 ,1.6656 ,0.86114 ,5.26430 ,51.65327 
7 ,1.8737 ,0.86308 ,5.24718 ,51.48538 
8 ,2.0817 ,0.86518 ,5.24034 ,51.41822 
9 ,2.2900 ,0.86733 ,5.24034 ,51.41822 
10 ,2.4982 ,0.86936 ,5.17190 ,50.74666 
11 ,2.7063 ,0.87146 ,5.17874 ,50.81381 
12 ,2.9299 ,0.87360 ,5.15821 ,50.61234 
13 ,3.1542 ,0.87586 ,5.11714 ,50.20940 
14 ,3.3784 ,0.87816 ,5.09661 ,50.00793 
15 ,3.5865 ,0.88017 ,5.08977 ,49.94078 
16 ,3.8422 ,0.88271 ,5.06923 ,49.73931 
17 ,4.0343 ,0.88479 ,5.05212 ,49.57142 
18 ,4.2585 ,0.88700 ,5.01448 ,49.20205 
19 ,4.4666 ,0.88908 ,5.01106 ,49.16848 
20 ,4.6908 ,0.89116 ,4.97341 ,48.79911 
21 ,4.9149 ,0.89353 ,4.94603 ,48.53049 
22 ,5.1390 ,0.89576 ,4.92892 ,48.36260 
23 ,5.3793 ,0.89818 ,4.90839 ,48.16113 
24 ,5.6035 ,0.90033 ,4.90497 ,48.12755 
25 ,5.8115 ,0.90243 ,4.87759 ,47.85892 
26 ,6.0354 ,0.90470 ,4.83652 ,47.45598 
27 ,6.2436 ,0.90675 ,4.84337 ,47.52314 
28 ,6.4516 ,0.90890 ,4.80230 ,47.12020 
29 ,6.6758 ,0.91110 ,4.77493 ,46.85157 
30 ,6.9001 ,0.91330 ,4.76124 ,46.71726 
31 ,7.1077 ,0.91540 ,4.75439 ,46.65010 
32 ,7.3322 ,0.91768 ,4.72702 ,46.38148 
33 ,7.5401 ,0.91970 ,4.70306 ,46.14643 
34 ,7.7483 ,0.92183 ,4.68937 ,46.01212 
35 ,7.9722 ,0.92402 ,4.66542 ,45.77707 
36 ,8.1805 ,0.92615 ,4.63462 ,45.47486 
37 ,8.3885 ,0.92827 ,4.62435 ,45.37413 
38 ,8.6124 ,0.93039 ,4.60724 ,45.20624 
39 ,8.8207 ,0.93256 ,4.56617 ,44.80330 
40 ,9.0123 ,0.93458 ,4.56960 ,44.83688 
41 ,9.2209 ,0.93655 ,4.53537 ,44.50109 
42 ,9.4449 ,0.93874 ,4.52511 ,44.40036 
43 ,9.6526 ,0.94082 ,4.50457 ,44.19889 
44 ,9.8612 ,0.94299 ,4.46351 ,43.79595 
45 ,10.0852 ,0.94515 ,4.46009 ,43.76237 
46 ,10.2934 ,0.94725 ,4.43955 ,43.56090 
47 ,10.5014 ,0.94934 ,4.42244 ,43.39301 
48 ,10.7251 ,0.95154 ,4.39507 ,43.12438 
49 ,10.9335 ,0.95377 ,4.38822 ,43.05723 
50 ,11.1577 ,0.95584 ,4.35058 ,42.68786 
51 ,11.3657 ,0.95796 ,4.34716 ,42.65429 
52 ,11.5899 ,0.96021 ,4.33347 ,42.51997 
53 ,11.7982 ,0.96231 ,4.29582 ,42.15061 
54 ,12.0218 ,0.96458 ,4.27187 ,41.91556 
55 ,12.2302 ,0.96664 ,4.26845 ,41.88198 
56 ,12.4382 ,0.96872 ,4.23080 ,41.51262 
57 ,12.6463 ,0.97075 ,4.22396 ,41.44547 
58 ,12.8543 ,0.97285 ,4.20000 ,41.21042 
59 ,13.0626 ,0.97494 ,4.17947 ,41.00895 
60 ,13.2866 ,0.97712 ,4.16920 ,40.90821 
61 ,13.4946 ,0.97926 ,4.14525 ,40.67317 
62 ,13.7188 ,0.98155 ,4.10760 ,40.30380 
63 ,13.9268 ,0.98357 ,4.10076 ,40.23665 
64 ,14.1345 ,0.98580 ,4.08365 ,40.06876 
65 ,14.3428 ,0.98771 ,4.05627 ,39.80013 
66 ,14.5512 ,0.98983 ,4.04943 ,39.73297 
67 ,14.7910 ,0.99220 ,4.03574 ,39.59866 
68 ,14.9994 ,0.99432 ,3.99467 ,39.19572 
69 ,15.2230 ,0.99650 ,3.96729 ,38.92709 
70 ,15.4315 ,0.99863 ,3.96729 ,38.92709 
71 ,15.6235 ,1.00066 ,3.93650 ,38.62489 
72 ,15.8476 ,1.00277 ,3.93307 ,38.59131 
73 ,16.0557 ,1.00485 ,3.90912 ,38.35626 
74 ,16.2635 ,1.00692 ,3.88516 ,38.12122 
75 ,16.4878 ,1.00921 ,3.88516 ,38.12122 
76 ,16.7119 ,1.01143 ,3.86463 ,37.91975 
77 ,16.9201 ,1.01350 ,3.83041 ,37.58396 
78 ,17.1121 ,1.01557 ,3.82699 ,37.55038 
79 ,17.3203 ,1.01748 ,3.78592 ,37.14744 
80 ,17.5443 ,1.01976 ,3.77908 ,37.08029 
81 ,17.7525 ,1.02182 ,3.75854 ,36.87882 
82 ,17.9606 ,1.02392 ,3.72774 ,36.57661 
83 ,18.1846 ,1.02618 ,3.71748 ,36.47588 
84 ,18.4087 ,1.02839 ,3.70037 ,36.30799 
85 ,18.6009 ,1.03042 ,3.66957 ,36.00578 
86 ,18.8089 ,1.03240 ,3.66614 ,35.97220 
87 ,19.0485 ,1.03472 ,3.64903 ,35.80431 
88 ,19.2410 ,1.03680 ,3.61481 ,35.46853 
89 ,19.4490 ,1.03881 ,3.60454 ,35.36779 
90 ,19.6569 ,1.04088 ,3.58059 ,35.13275 
91 ,19.8653 ,1.04298 ,3.55663 ,34.89770 
92 ,20.0895 ,1.04523 ,3.55321 ,34.86412 
93 ,20.2815 ,1.04725 ,3.52926 ,34.62907 
94 ,20.4897 ,1.04922 ,3.52584 ,34.59549 
95 ,20.7134 ,1.05144 ,3.49504 ,34.29329 
96 ,20.9377 ,1.05371 ,3.46766 ,34.02466 
97 ,21.1620 ,1.05584 ,3.43686 ,33.72246 
98 ,21.3699 ,1.05801 ,3.43686 ,33.72246 
99 ,21.5779 ,1.06004 ,3.41290 ,33.48741 
100 ,21.7863 ,1.06211 ,3.39237 ,33.28594 
101 ,21.9942 ,1.06423 ,3.36499 ,33.01731 
102 ,22.2184 ,1.06645 ,3.35473 ,32.91658 
103 ,22.4745 ,1.06900 ,3.33762 ,32.74869 
104 ,22.6986 ,1.07132 ,3.31708 ,32.54722 
105 ,22.9226 ,1.07348 ,3.28628 ,32.24501 
106 ,23.1468 ,1.07578 ,3.28971 ,32.27859 
107 ,23.3710 ,1.07796 ,3.26233 ,32.00996 
108 ,23.5790 ,1.08005 ,3.23153 ,31.70776 
109 ,23.8030 ,1.08229 ,3.21100 ,31.50629 
110 ,24.0112 ,1.08438 ,3.22468 ,31.64060 
111 ,24.2673 ,1.08684 ,3.19046 ,31.30482 
112 ,24.5074 ,1.08926 ,3.17677 ,31.17051 
113 ,24.7154 ,1.09142 ,3.14255 ,30.83472 
114 ,24.9396 ,1.09365 ,3.12202 ,30.63325 
115 ,25.1476 ,1.09575 ,3.11175 ,30.53252 
116 ,25.3717 ,1.09793 ,3.10149 ,30.43178 
117 ,25.5956 ,1.10022 ,3.07069 ,30.12958 
118 ,25.8040 ,1.10223 ,3.03304 ,29.76022 
119 ,26.0118 ,1.10440 ,3.04673 ,29.89453 
120 ,26.2201 ,1.10643 ,3.00567 ,29.49159 
121 ,26.4279 ,1.10854 ,3.00567 ,29.49159 
122 ,26.6362 ,1.11061 ,2.98171 ,29.25654 
123 ,26.8442 ,1.11270 ,2.96460 ,29.08865 
124 ,27.0681 ,1.11497 ,2.95433 ,28.98792 
125 ,27.2765 ,1.11697 ,2.93038 ,28.75287 
126 ,27.5005 ,1.11924 ,2.90300 ,28.48424 
127 ,27.7086 ,1.12134 ,2.89616 ,28.41709 
128 ,27.9322 ,1.12359 ,2.88589 ,28.31635 
129 ,28.1406 ,1.12566 ,2.84825 ,27.94699 
130 ,28.3648 ,1.12790 ,2.82771 ,27.74552 
131 ,28.5885 ,1.13017 ,2.82429 ,27.71194 
132 ,28.7972 ,1.13224 ,2.81745 ,27.64479 
133 ,29.0052 ,1.13434 ,2.77296 ,27.20827 
134 ,29.2133 ,1.13640 ,2.76954 ,27.17469 
135 ,29.4213 ,1.13844 ,2.74216 ,26.90606 
136 ,29.6452 ,1.14067 ,2.73189 ,26.80533 
137 ,29.8855 ,1.14309 ,2.70452 ,26.53670 
138 ,30.1095 ,1.14530 ,2.68740 ,26.36881 
139 ,30.3177 ,1.14742 ,2.67714 ,26.26807 
140 ,30.5572 ,1.14978 ,2.66687 ,26.16734 
141 ,30.7813 ,1.15202 ,2.63265 ,25.83156 
142 ,31.0058 ,1.15434 ,2.61212 ,25.63009 
143 ,31.2457 ,1.15667 ,2.58816 ,25.39504 
144 ,31.4541 ,1.15874 ,2.59843 ,25.49577 
145 ,31.6783 ,1.16102 ,2.56763 ,25.19357 
146 ,31.8861 ,1.16313 ,2.54710 ,24.99210 
147 ,32.1103 ,1.16537 ,2.52998 ,24.82421 
148 ,32.3343 ,1.16759 ,2.52314 ,24.75705 
149 ,32.5266 ,1.16964 ,2.47865 ,24.32053 
150 ,32.7345 ,1.17171 ,2.49234 ,24.45485 
151 ,32.9426 ,1.17365 ,2.45812 ,24.11906 
152 ,33.1665 ,1.17599 ,2.43759 ,23.91759 
153 ,33.3910 ,1.17813 ,2.42732 ,23.81686 
154 ,33.5989 ,1.18023 ,2.41021 ,23.64897 
155 ,33.7912 ,1.18228 ,2.37941 ,23.34676 
156 ,34.0152 ,1.18434 ,2.38625 ,23.41392 
157 ,34.2068 ,1.18645 ,2.34177 ,22.97740 
158 ,34.4314 ,1.18856 ,2.32808 ,22.84309 
159 ,34.6554 ,1.19072 ,2.33150 ,22.87667 
160 ,34.8633 ,1.19285 ,2.28701 ,22.44015 
161 ,35.0876 ,1.19514 ,2.26990 ,22.27226 
162 ,35.2954 ,1.19719 ,2.26648 ,22.23868 
163 ,35.5039 ,1.19926 ,2.24252 ,22.00363 
164 ,35.7278 ,1.20154 ,2.21515 ,21.73500 
165 ,35.9520 ,1.20375 ,2.21857 ,21.76858 
166 ,36.1600 ,1.20591 ,2.21172 ,21.70143 
167 ,36.3678 ,1.20783 ,2.18092 ,21.39922 
168 ,36.6084 ,1.21019 ,2.17408 ,21.33206 
169 ,36.8323 ,1.21253 ,2.13644 ,20.96270 
170 ,37.0404 ,1.21463 ,2.11932 ,20.79481 
171 ,37.2483 ,1.21668 ,2.11248 ,20.72766 
172 ,37.4726 ,1.21890 ,2.09537 ,20.55976 
173 ,37.7126 ,1.22134 ,2.07826 ,20.39187 
174 ,37.9364 ,1.22360 ,2.06457 ,20.25756 
175 ,38.1448 ,1.22563 ,2.03035 ,19.92178 
176 ,38.3687 ,1.22793 ,2.02008 ,19.82104 
177 ,38.6089 ,1.23019 ,2.00982 ,19.72031 
178 ,38.8330 ,1.23254 ,1.99270 ,19.55241 
179 ,39.0573 ,1.23477 ,1.97559 ,19.38452 
180 ,39.2972 ,1.23712 ,1.94479 ,19.08232 
181 ,39.5212 ,1.23942 ,1.92426 ,18.88085 
182 ,39.7451 ,1.24165 ,1.90373 ,18.67938 
183 ,39.9696 ,1.24389 ,1.88662 ,18.51149 
184 ,40.1937 ,1.24615 ,1.89346 ,18.57864 
185 ,40.4017 ,1.24837 ,1.87635 ,18.41075 
186 ,40.6097 ,1.25032 ,1.84555 ,18.10855 
187 ,40.8340 ,1.25255 ,1.84213 ,18.07497 
188 ,41.0578 ,1.25481 ,1.82160 ,17.87350 
189 ,41.2822 ,1.25704 ,1.78737 ,17.53772 
190 ,41.5062 ,1.25927 ,1.76000 ,17.26909 
191 ,41.7142 ,1.26134 ,1.77026 ,17.36983 
192 ,41.9222 ,1.26341 ,1.74631 ,17.13478 
193 ,42.1462 ,1.26561 ,1.73262 ,17.00046 
194 ,42.3866 ,1.26793 ,1.70866 ,16.76542 
195 ,42.5944 ,1.27013 ,1.70866 ,16.76542 
196 ,42.8029 ,1.27221 ,1.67444 ,16.42963 
197 ,43.0269 ,1.27446 ,1.64364 ,16.12743 
198 ,43.2667 ,1.27688 ,1.64022 ,16.09385 
199 ,43.4589 ,1.27895 ,1.62995 ,15.99311 
200 ,43.6671 ,1.28087 ,1.60600 ,15.75807 
201 ,43.9072 ,1.28316 ,1.59231 ,15.62375 
202 ,44.1153 ,1.28533 ,1.58547 ,15.55660 
203 ,44.3231 ,1.28747 ,1.56151 ,15.32155 
204 ,44.5312 ,1.28951 ,1.54782 ,15.18724 
205 ,44.7394 ,1.29163 ,1.54098 ,15.12008 
206 ,44.9634 ,1.29384 ,1.51018 ,14.81787 
207 ,45.1716 ,1.29591 ,1.50333 ,14.75072 
208 ,45.3793 ,1.29800 ,1.48965 ,14.61640 
209 ,45.6196 ,1.30037 ,1.47253 ,14.44851 
210 ,45.8439 ,1.30259 ,1.44858 ,14.21346 
211 ,46.0520 ,1.30472 ,1.44174 ,14.14631 
212 ,46.2759 ,1.30693 ,1.42805 ,14.01199 
213 ,46.4837 ,1.30903 ,1.40067 ,13.74337 
214 ,46.6924 ,1.31109 ,1.39040 ,13.64263 
215 ,46.9006 ,1.31317 ,1.39383 ,13.67621 
216 ,47.1085 ,1.31528 ,1.35618 ,13.30685 
217 ,47.3165 ,1.31740 ,1.34591 ,13.20612 
218 ,47.5403 ,1.31955 ,1.33907 ,13.13896 
219 ,47.7647 ,1.32174 ,1.28774 ,12.63528 
220 ,47.9888 ,1.32406 ,1.28432 ,12.60171 
221 ,48.1968 ,1.32619 ,1.29116 ,12.66886 
222 ,48.4049 ,1.32820 ,1.25352 ,12.29950 
223 ,48.6288 ,1.33041 ,1.24325 ,12.19877 
224 ,48.8531 ,1.33266 ,1.22956 ,12.06445 
225 ,49.0773 ,1.33498 ,1.22272 ,11.99730 
226 ,49.2853 ,1.33700 ,1.19192 ,11.69509 
227 ,49.4932 ,1.33909 ,1.18850 ,11.66151 
228 ,49.7016 ,1.34118 ,1.17481 ,11.52720 
229 ,49.9253 ,1.34340 ,1.14058 ,11.19142 
230 ,50.1494 ,1.34566 ,1.13032 ,11.09068 
231 ,50.3416 ,1.34767 ,1.13374 ,11.12426 
232 ,50.5499 ,1.34965 ,1.09952 ,10.78848 
233 ,50.7579 ,1.35175 ,1.09610 ,10.75490 
234 ,50.9820 ,1.35397 ,1.06530 ,10.45270 
235 ,51.1901 ,1.35607 ,1.06187 ,10.41912 
236 ,51.3984 ,1.35818 ,1.06187 ,10.41912 
237 ,51.6223 ,1.36032 ,1.03450 ,10.15049 
238 ,51.8304 ,1.36249 ,1.01054 ,9.91544 
239 ,52.0220 ,1.36451 ,1.02765 ,10.08333 
240 ,52.2303 ,1.36646 ,0.98659 ,9.68039 
241 ,52.4386 ,1.36854 ,0.98659 ,9.68039 
242 ,52.6628 ,1.37077 ,0.95579 ,9.37819 
243 ,52.8707 ,1.37290 ,0.93525 ,9.17672 
244 ,53.0787 ,1.37499 ,0.93868 ,9.21030 
245 ,53.3190 ,1.37732 ,0.92157 ,9.04241 
246 ,53.5429 ,1.37959 ,0.89419 ,8.77378 
247 ,53.7510 ,1.38163 ,0.88734 ,8.70662 
248 ,53.9593 ,1.38372 ,0.87708 ,8.60589 
249 ,54.1508 ,1.38582 ,0.85997 ,8.43800 
250 ,54.3592 ,1.38775 ,0.83943 ,8.23653 
251 ,54.5672 ,1.38979 ,1.12005 ,10.98995 
252 ,54.7756 ,1.39188 ,1.15427 ,11.32573 
253 ,54.9998 ,1.39411 ,1.15427 ,11.32573 
254 ,55.2235 ,1.39640 ,1.14058 ,11.19142 
255 ,55.4319 ,1.39845 ,1.12005 ,10.98995 
256 ,55.6559 ,1.40070 ,1.12005 ,10.98995 
257 ,55.8800 ,1.40296 ,1.12347 ,11.02353 
258 ,56.0882 ,1.40504 ,1.08241 ,10.62059 
259 ,56.3123 ,1.40731 ,1.08583 ,10.65416 
260 ,56.5039 ,1.40933 ,1.08241 ,10.62059 
261 ,56.8085 ,1.41177 ,1.08241 ,10.62059 
262 ,57.0003 ,1.41428 ,1.08583 ,10.65416 
263 ,57.2086 ,1.41625 ,1.04819 ,10.28480 
264 ,57.4326 ,1.41842 ,1.05161 ,10.31838 
265 ,57.6407 ,1.42055 ,1.05503 ,10.35196 
266 ,57.8489 ,1.42263 ,1.04134 ,10.21765 
267 ,58.0730 ,1.42492 ,1.02765 ,10.08333 
268 ,58.2806 ,1.42695 ,1.02081 ,10.01618 
269 ,58.4892 ,1.42899 ,1.01054 ,9.91544 
270 ,58.6967 ,1.43107 ,1.01396 ,9.94902 
271 ,58.9055 ,1.43317 ,0.99001 ,9.71397 
272 ,59.1135 ,1.43530 ,0.98317 ,9.64682 
273 ,59.3375 ,1.43750 ,0.98659 ,9.68039 
274 ,59.5616 ,1.43976 ,0.97290 ,9.54608 
275 ,59.7693 ,1.44186 ,0.94894 ,9.31103 
276 ,59.9937 ,1.44410 ,0.96605 ,9.47892 
277 ,60.2178 ,1.44623 ,0.95237 ,9.34461 
278 ,60.4259 ,1.44840 ,0.93525 ,9.17672 
279 ,60.6337 ,1.45050 ,0.93525 ,9.17672 
280 ,60.8421 ,1.45256 ,0.91472 ,8.97525 
281 ,61.0662 ,1.45473 ,0.91130 ,8.94167 
282 ,61.2901 ,1.45706 ,0.89419 ,8.77378 
283 ,61.4982 ,1.45914 ,0.91472 ,8.97525 
284 ,61.7065 ,1.46119 ,0.89077 ,8.74020 
285 ,61.9145 ,1.46326 ,0.89761 ,8.80736 
286 ,62.1223 ,1.46535 ,0.88050 ,8.63947 
287 ,62.3307 ,1.46742 ,0.87366 ,8.57231 
288 ,62.5387 ,1.46964 ,0.88734 ,8.70662 
289 ,62.7309 ,1.47153 ,0.85312 ,8.37084 
290 ,62.9389 ,1.47353 ,0.85997 ,8.43800 
291 ,63.1626 ,1.47576 ,0.84286 ,8.27011 
292 ,63.3713 ,1.47783 ,0.84286 ,8.27011 
293 ,63.5954 ,1.48010 ,0.85312 ,8.37084 
294 ,63.8188 ,1.48235 ,0.84286 ,8.27011 
295 ,64.0270 ,1.48440 ,0.81890 ,8.03506 
296 ,64.2351 ,1.48647 ,0.82917 ,8.13579 
297 ,64.4753 ,1.48889 ,0.81548 ,8.00148 
298 ,64.6997 ,1.49111 ,0.81890 ,8.03506 
299 ,64.9235 ,1.49335 ,0.79495 ,7.80001 
300 ,65.1316 ,1.49545 ,0.79495 ,7.80001 
301 ,65.3397 ,1.49754 ,0.79152 ,7.76643 
302 ,65.5639 ,1.49980 ,0.78810 ,7.73285 
303 ,65.7878 ,1.50203 ,0.77099 ,7.56496 
304 ,65.9963 ,1.50407 ,0.79152 ,7.76643 
305 ,66.2204 ,1.50633 ,0.77099 ,7.56496 
306 ,66.4443 ,1.50854 ,0.75388 ,7.39707 
307 ,66.6842 ,1.51095 ,0.75388 ,7.39707 
308 ,66.9083 ,1.51316 ,0.74704 ,7.32991 
309 ,67.1166 ,1.51530 ,0.76415 ,7.49780 
310 ,67.3407 ,1.51748 ,0.74704 ,7.32991 
311 ,67.5649 ,1.51969 ,0.74361 ,7.29633 
312 ,67.8050 ,1.52204 ,0.74704 ,7.32991 
313 ,68.0290 ,1.52440 ,0.73335 ,7.19560 
314 ,68.2211 ,1.52644 ,0.74704 ,7.32991 
315 ,68.4291 ,1.52838 ,0.71624 ,7.02771 
316 ,68.6534 ,1.53064 ,0.73335 ,7.19560 
317 ,68.8774 ,1.53280 ,0.71966 ,7.06129 
318 ,69.0854 ,1.53494 ,0.71624 ,7.02771 
319 ,69.2932 ,1.53704 ,0.72308 ,7.09486 
320 ,69.5016 ,1.53916 ,0.70939 ,6.96055 
321 ,69.7097 ,1.54129 ,0.69570 ,6.82624 
322 ,69.9336 ,1.54342 ,0.70939 ,6.96055 
323 ,70.1416 ,1.54553 ,0.70597 ,6.92697 
324 ,70.3660 ,1.54779 ,0.67517 ,6.62477 
325 ,70.5901 ,1.54994 ,0.69228 ,6.79266 
326 ,70.7818 ,1.55202 ,0.70939 ,6.96055 
327 ,71.0058 ,1.55409 ,0.67517 ,6.62477 
328 ,71.2142 ,1.55622 ,0.67859 ,6.65835 
329 ,71.4224 ,1.55840 ,0.68544 ,6.72550 
330 ,71.6305 ,1.56040 ,0.67175 ,6.59119 
331 ,71.8387 ,1.56249 ,0.67175 ,6.59119 
332 ,72.0622 ,1.56470 ,0.66490 ,6.52403 
333 ,72.2867 ,1.56693 ,0.65121 ,6.38972 
334 ,72.5108 ,1.56920 ,0.66148 ,6.49046 
335 ,72.7347 ,1.57141 ,0.67517 ,6.62477 
336 ,72.9591 ,1.57366 ,0.67859 ,6.65835 
337 ,73.1511 ,1.57571 ,0.63068 ,6.18825 
338 ,73.3752 ,1.57782 ,0.66490 ,6.52403 
339 ,73.5993 ,1.58008 ,0.65464 ,6.42330 
340 ,73.8073 ,1.58218 ,0.63753 ,6.25541 
341 ,74.0155 ,1.58420 ,0.65464 ,6.42330 
342 ,74.2395 ,1.58651 ,0.65464 ,6.42330 
343 ,74.4793 ,1.58878 ,0.62384 ,6.12109 
344 ,74.6879 ,1.59101 ,0.63410 ,6.22183 
345 ,74.8960 ,1.59304 ,0.63068 ,6.18825 
346 ,75.1039 ,1.59511 ,0.62726 ,6.15467 
347 ,75.3282 ,1.59729 ,0.62726 ,6.15467 
348 ,75.5359 ,1.59943 ,0.63753 ,6.25541 
349 ,75.7601 ,1.60168 ,0.62042 ,6.08752 
350 ,75.9843 ,1.60394 ,0.60673 ,5.95320 
351 ,76.1923 ,1.60604 ,0.62384 ,6.12109 
352 ,76.4166 ,1.60824 ,0.62384 ,6.12109 
353 ,76.6405 ,1.61048 ,0.61015 ,5.98678 
354 ,76.8644 ,1.61276 ,0.60330 ,5.91962 
355 ,77.0727 ,1.61480 ,0.59988 ,5.88605 
356 ,77.2808 ,1.61691 ,0.59988 ,5.88605 
357 ,77.4889 ,1.61897 ,0.58962 ,5.78531 
358 ,77.6965 ,1.62108 ,0.61357 ,6.02036 
359 ,77.9051 ,1.62311 ,0.59646 ,5.85247 
360 ,78.1129 ,1.62534 ,0.59304 ,5.81889 
361 ,78.3370 ,1.62742 ,0.61357 ,6.02036 
362 ,78.5453 ,1.62947 ,0.58277 ,5.71815 
363 ,78.7850 ,1.63197 ,0.58619 ,5.75173 
364 ,79.0095 ,1.63417 ,0.57935 ,5.68458 
365 ,79.2333 ,1.63634 ,0.61699 ,6.05394 
366 ,79.4417 ,1.63851 ,0.61015 ,5.98678 
367 ,79.6495 ,1.64067 ,0.60330 ,5.91962 
368 ,79.8418 ,1.64261 ,0.61699 ,6.05394 
369 ,80.0657 ,1.64462 ,0.61357 ,6.02036 
370 ,80.2898 ,1.64698 ,0.61015 ,5.98678 
371 ,80.4820 ,1.64899 ,0.63068 ,6.18825 
372 ,80.7063 ,1.65099 ,0.61357 ,6.02036 
373 ,80.9141 ,1.65323 ,0.62726 ,6.15467 
374 ,81.1222 ,1.65524 ,0.62384 ,6.12109 
375 ,81.3465 ,1.65740 ,0.62042 ,6.08752 
376 ,81.5703 ,1.65976 ,0.62384 ,6.12109 
377 ,81.7944 ,1.66202 ,0.63410 ,6.22183 
378 ,82.0028 ,1.66408 ,0.62042 ,6.08752 
379 ,82.2103 ,1.66616 ,0.61357 ,6.02036 
380 ,82.4189 ,1.66823 ,0.62726 ,6.15467 
381 ,82.6270 ,1.67030 ,0.61015 ,5.98678 
382 ,82.8506 ,1.67246 ,0.62384 ,6.12109 
383 ,83.0907 ,1.67489 ,0.63753 ,6.25541 
384 ,83.3307 ,1.67738 ,0.62384 ,6.12109 
385 ,83.5549 ,1.67964 ,0.63410 ,6.22183 
386 ,83.7951 ,1.68195 ,0.62726 ,6.15467 
387 ,84.0193 ,1.68424 ,0.63068 ,6.18825 
388 ,84.2753 ,1.68677 ,0.62042 ,6.08752 
389 ,84.4997 ,1.68902 ,0.62042 ,6.08752 
390 ,84.7239 ,1.69126 ,0.61357 ,6.02036 
391 ,84.9478 ,1.69351 ,0.64779 ,6.35614 
392 ,85.1559 ,1.69553 ,0.67517 ,6.62477 
393 ,85.3480 ,1.69760 ,0.67859 ,6.65835 
394 ,85.5396 ,1.69957 ,0.69570 ,6.82624 
395 ,85.7320 ,1.70145 ,0.67517 ,6.62477 
396 ,85.9562 ,1.70353 ,0.69228 ,6.79266 
397 ,86.1483 ,1.70560 ,0.68201 ,6.69193 
398 ,86.3404 ,1.70757 ,0.69913 ,6.85982 
399 ,86.5484 ,1.70955 ,0.67859 ,6.65835 
400 ,86.7725 ,1.71175 ,0.68886 ,6.75908 
401 ,86.9967 ,1.71401 ,0.69228 ,6.79266 
402 ,87.2048 ,1.71605 ,0.67859 ,6.65835 
403 ,87.4289 ,1.71831 ,0.67175 ,6.59119 
404 ,87.6529 ,1.72057 ,0.68886 ,6.75908 
405 ,87.8769 ,1.72277 ,0.69228 ,6.79266 
406 ,88.1013 ,1.72506 ,0.69570 ,6.82624 
407 ,88.3090 ,1.72723 ,0.69228 ,6.79266 
408 ,88.5329 ,1.72935 ,0.68201 ,6.69193 
409 ,88.7412 ,1.73142 ,0.68544 ,6.72550 
410 ,88.9493 ,1.73350 ,0.67859 ,6.65835 
411 ,89.1896 ,1.73592 ,0.67175 ,6.59119 
412 ,89.4135 ,1.73815 ,0.67859 ,6.65835 
413 ,89.6056 ,1.74018 ,0.68886 ,6.75908 
414 ,89.8138 ,1.74216 ,0.67517 ,6.62477 
415 ,90.0217 ,1.74424 ,0.68544 ,6.72550 
416 ,90.2461 ,1.74634 ,0.67517 ,6.62477 
417 ,90.4539 ,1.74854 ,0.68886 ,6.75908 
418 ,90.6623 ,1.75064 ,0.68544 ,6.72550 
419 ,90.8698 ,1.75271 ,0.67517 ,6.62477 
420 ,91.1258 ,1.75520 ,0.67859 ,6.65835 
421 ,91.3500 ,1.75754 ,0.68886 ,6.75908 
422 ,91.5584 ,1.75959 ,0.70255 ,6.89340 
423 ,91.7825 ,1.76184 ,0.68544 ,6.72550 
424 ,91.9906 ,1.76391 ,0.67175 ,6.59119 
425 ,92.1984 ,1.76603 ,0.69913 ,6.85982 
426 ,92.4224 ,1.76820 ,0.68201 ,6.69193 
427 ,92.6625 ,1.77057 ,0.67517 ,6.62477 
428 ,92.8866 ,1.77290 ,0.67517 ,6.62477 
429 ,93.1270 ,1.77524 ,0.68544 ,6.72550 
430 ,93.3508 ,1.77746 ,0.66833 ,6.55761 
431 ,93.5593 ,1.77953 ,0.70255 ,6.89340 
432 ,93.7993 ,1.78188 ,0.68544 ,6.72550 
433 ,93.9915 ,1.78403 ,0.68201 ,6.69193 
434 ,94.1997 ,1.78600 ,0.68886 ,6.75908 
435 ,94.4074 ,1.78804 ,0.67517 ,6.62477 
436 ,94.6318 ,1.79033 ,0.67859 ,6.65835 
437 ,94.8719 ,1.79258 ,0.68886 ,6.75908 
438 ,95.0797 ,1.79483 ,0.69228 ,6.79266 
439 ,95.2881 ,1.79685 ,0.66490 ,6.52403 
440 ,95.5277 ,1.79924 ,0.66833 ,6.55761 
441 ,95.7519 ,1.80155 ,0.67517 ,6.62477 
442 ,95.9763 ,1.80368 ,0.69228 ,6.79266 
443 ,96.1844 ,1.80580 ,0.68886 ,6.75908 
444 ,96.3925 ,1.80789 ,0.68201 ,6.69193 
445 ,96.6005 ,1.80999 ,0.69913 ,6.85982 
446 ,96.8086 ,1.81209 ,0.67859 ,6.65835 
447 ,97.0162 ,1.81412 ,0.68544 ,6.72550 
448 ,97.2248 ,1.81625 ,0.69228 ,6.79266 
449 ,97.4330 ,1.81830 ,0.67517 ,6.62477 
450 ,97.6409 ,1.82050 ,0.68544 ,6.72550 
451 ,97.8487 ,1.82244 ,0.67859 ,6.65835 
452 ,98.0572 ,1.82458 ,0.68201 ,6.69193 
453 ,98.2652 ,1.82662 ,0.68544 ,6.72550 
454 ,98.4891 ,1.82887 ,0.66490 ,6.52403 
455 ,98.6975 ,1.83094 ,0.68544 ,6.72550 
456 ,98.9211 ,1.83321 ,0.69913 ,6.85982 
457 ,99.1294 ,1.83530 ,0.68201 ,6.69193 
458 ,99.3375 ,1.83734 ,0.69570 ,6.82624 
459 ,99.5457 ,1.83951 ,0.69913 ,6.85982 
460 ,99.7538 ,1.84149 ,0.67175 ,6.59119 
461 ,100.0095 ,1.84391 ,0.69228 ,6.79266 
462 ,100.2340 ,1.84630 ,0.67517 ,6.62477 
463 ,100.4421 ,1.84850 ,0.69228 ,6.79266 
464 ,100.6502 ,1.85053 ,0.67517 ,6.62477 
465 ,100.8741 ,1.85268 ,0.67859 ,6.65835 
466 ,101.0821 ,1.85481 ,0.68886 ,6.75908 
467 ,101.3066 ,1.85697 ,0.67859 ,6.65835 
