Data stamp = , 02-06-2022 13:45:45 205

Calibration Values: 
Slope = , 26.54 , g/V 
Offset Voltage at no contact = , -0.501760 , V 

No , Time , Stage Position ,   Mass , Force 
   ,  (s) ,      (mm)      ,   (g)  , (mN)  

1 ,0.0000 ,0.84955 ,5.35327 ,52.52631 
2 ,0.2175 ,0.84965 ,5.37381 ,52.72778 
3 ,0.6823 ,0.85108 ,5.38065 ,52.79493 
4 ,0.9384 ,0.85354 ,5.36012 ,52.59346 
5 ,1.1941 ,0.85607 ,5.36354 ,52.62704 
6 ,1.4185 ,0.85834 ,5.36696 ,52.66062 
7 ,1.6584 ,0.86077 ,5.36354 ,52.62704 
8 ,1.8664 ,0.86293 ,5.32932 ,52.29126 
9 ,2.0749 ,0.86496 ,5.32247 ,52.22410 
10 ,2.2827 ,0.86710 ,5.28825 ,51.88832 
11 ,2.5228 ,0.86945 ,5.25403 ,51.55254 
12 ,2.7308 ,0.87157 ,5.25745 ,51.58611 
13 ,2.9552 ,0.87367 ,5.22665 ,51.28391 
14 ,3.1791 ,0.87603 ,5.19927 ,51.01528 
15 ,3.3873 ,0.87810 ,5.17532 ,50.78023 
16 ,3.6273 ,0.88052 ,5.16505 ,50.67950 
17 ,3.8514 ,0.88275 ,5.15479 ,50.57876 
18 ,4.0597 ,0.88487 ,5.12741 ,50.31014 
19 ,4.2838 ,0.88704 ,5.08977 ,49.94078 
20 ,4.5075 ,0.88933 ,5.06923 ,49.73931 
21 ,4.7477 ,0.89162 ,5.06239 ,49.67215 
22 ,4.9882 ,0.89405 ,5.03501 ,49.40352 
23 ,5.1962 ,0.89627 ,5.01790 ,49.23563 
24 ,5.3882 ,0.89825 ,4.98026 ,48.86627 
25 ,5.5962 ,0.90016 ,4.98026 ,48.86627 
26 ,5.8043 ,0.90227 ,4.94261 ,48.49691 
27 ,6.0124 ,0.90436 ,4.93919 ,48.46333 
28 ,6.2205 ,0.90645 ,4.91866 ,48.26186 
29 ,6.4287 ,0.90851 ,4.89470 ,48.02681 
30 ,6.6366 ,0.91065 ,4.87417 ,47.82534 
31 ,6.8444 ,0.91271 ,4.83995 ,47.48956 
32 ,7.0529 ,0.91470 ,4.83995 ,47.48956 
33 ,7.2610 ,0.91686 ,4.80230 ,47.12020 
34 ,7.4854 ,0.91906 ,4.78177 ,46.91873 
35 ,7.7091 ,0.92132 ,4.76124 ,46.71726 
36 ,7.9170 ,0.92342 ,4.74755 ,46.58295 
37 ,8.1574 ,0.92571 ,4.72017 ,46.31432 
38 ,8.3815 ,0.92808 ,4.70306 ,46.14643 
39 ,8.6054 ,0.93027 ,4.67568 ,45.87780 
40 ,8.8136 ,0.93240 ,4.67226 ,45.84422 
41 ,9.0218 ,0.93441 ,4.63119 ,45.44128 
42 ,9.2616 ,0.93681 ,4.61408 ,45.27339 
43 ,9.4860 ,0.93897 ,4.59697 ,45.10550 
44 ,9.6941 ,0.94116 ,4.59697 ,45.10550 
45 ,9.9021 ,0.94320 ,4.54564 ,44.60183 
46 ,10.1102 ,0.94543 ,4.53195 ,44.46751 
47 ,10.3502 ,0.94775 ,4.51826 ,44.33320 
48 ,10.5744 ,0.94996 ,4.50800 ,44.23247 
49 ,10.7823 ,0.95206 ,4.46351 ,43.79595 
50 ,10.9905 ,0.95423 ,4.44298 ,43.59448 
51 ,11.1987 ,0.95619 ,4.42586 ,43.42659 
52 ,11.4225 ,0.95842 ,4.41218 ,43.29227 
53 ,11.6468 ,0.96060 ,4.39849 ,43.15796 
54 ,11.8549 ,0.96276 ,4.38822 ,43.05723 
55 ,12.0788 ,0.96490 ,4.35400 ,42.72144 
56 ,12.3031 ,0.96719 ,4.34031 ,42.58713 
57 ,12.5273 ,0.96948 ,4.31978 ,42.38566 
58 ,12.7192 ,0.97143 ,4.30267 ,42.21777 
59 ,12.9273 ,0.97353 ,4.29240 ,42.11703 
60 ,13.1353 ,0.97556 ,4.29240 ,42.11703 
61 ,13.3594 ,0.97776 ,4.25133 ,41.71409 
62 ,13.5511 ,0.97973 ,4.23765 ,41.57978 
63 ,13.7597 ,0.98182 ,4.20685 ,41.27758 
64 ,13.9678 ,0.98391 ,4.17947 ,41.00895 
65 ,14.1915 ,0.98608 ,4.17605 ,40.97537 
66 ,14.3999 ,0.98819 ,4.15209 ,40.74032 
67 ,14.6075 ,0.99039 ,4.12129 ,40.43812 
68 ,14.8476 ,0.99264 ,4.12471 ,40.47170 
69 ,15.0557 ,0.99485 ,4.09049 ,40.13591 
70 ,15.2798 ,0.99700 ,4.04943 ,39.73297 
71 ,15.4887 ,0.99910 ,4.04943 ,39.73297 
72 ,15.7124 ,1.00136 ,4.03574 ,39.59866 
73 ,15.9364 ,1.00344 ,4.00836 ,39.33003 
74 ,16.1606 ,1.00577 ,3.99125 ,39.16214 
75 ,16.3688 ,1.00786 ,3.97072 ,38.96067 
76 ,16.5769 ,1.00997 ,3.96387 ,38.89352 
77 ,16.7852 ,1.01204 ,3.92281 ,38.49058 
78 ,16.9930 ,1.01409 ,3.91596 ,38.42342 
79 ,17.2009 ,1.01616 ,3.89201 ,38.18837 
80 ,17.4092 ,1.01831 ,3.86121 ,37.88617 
81 ,17.6172 ,1.02035 ,3.85779 ,37.85259 
82 ,17.8254 ,1.02245 ,3.83041 ,37.58396 
83 ,18.0332 ,1.02450 ,3.82356 ,37.51681 
84 ,18.2413 ,1.02661 ,3.79961 ,37.28176 
85 ,18.4497 ,1.02866 ,3.77223 ,37.01313 
86 ,18.6417 ,1.03070 ,3.76539 ,36.94597 
87 ,18.8659 ,1.03282 ,3.73117 ,36.61019 
88 ,19.0740 ,1.03488 ,3.73801 ,36.67735 
89 ,19.2980 ,1.03714 ,3.70721 ,36.37514 
90 ,19.4901 ,1.03924 ,3.67641 ,36.07294 
91 ,19.6982 ,1.04115 ,3.67983 ,36.10652 
92 ,19.8903 ,1.04323 ,3.64561 ,35.77073 
93 ,20.1142 ,1.04533 ,3.63534 ,35.67000 
94 ,20.3385 ,1.04756 ,3.63192 ,35.63642 
95 ,20.5625 ,1.04978 ,3.58743 ,35.19990 
96 ,20.7706 ,1.05189 ,3.57375 ,35.06559 
97 ,21.0106 ,1.05412 ,3.57032 ,35.03201 
98 ,21.2348 ,1.05649 ,3.54637 ,34.79696 
99 ,21.4427 ,1.05859 ,3.51557 ,34.49476 
100 ,21.6670 ,1.06081 ,3.49161 ,34.25971 
101 ,21.8751 ,1.06292 ,3.47792 ,34.12540 
102 ,22.0672 ,1.06501 ,3.45397 ,33.89035 
103 ,22.2755 ,1.06687 ,3.45739 ,33.92393 
104 ,22.4670 ,1.06902 ,3.40948 ,33.45383 
105 ,22.6755 ,1.07098 ,3.42659 ,33.62172 
106 ,22.8672 ,1.07301 ,3.37868 ,33.15163 
107 ,23.0436 ,1.07474 ,3.38210 ,33.18520 
108 ,23.2517 ,1.07667 ,3.35815 ,32.95016 
109 ,23.4438 ,1.07872 ,3.33419 ,32.71511 
110 ,23.6194 ,1.08050 ,3.34104 ,32.78227 
111 ,23.8280 ,1.08244 ,3.30339 ,32.41290 
112 ,24.0517 ,1.08464 ,3.28628 ,32.24501 
113 ,24.2601 ,1.08675 ,3.27602 ,32.14428 
114 ,24.4682 ,1.08885 ,3.25206 ,31.90923 
115 ,24.6759 ,1.09091 ,3.23153 ,31.70776 
116 ,24.8845 ,1.09308 ,3.21100 ,31.50629 
117 ,25.1086 ,1.09525 ,3.18020 ,31.20409 
118 ,25.3002 ,1.09729 ,3.18704 ,31.27124 
119 ,25.4925 ,1.09911 ,3.16309 ,31.03619 
120 ,25.7168 ,1.10131 ,3.15282 ,30.93546 
121 ,25.9247 ,1.10341 ,3.11860 ,30.59968 
122 ,26.1485 ,1.10559 ,3.10149 ,30.43178 
123 ,26.3409 ,1.10757 ,3.08095 ,30.23031 
124 ,26.5652 ,1.10975 ,3.05700 ,29.99527 
125 ,26.7732 ,1.11188 ,3.05015 ,29.92811 
126 ,26.9811 ,1.11398 ,3.03989 ,29.82737 
127 ,27.1895 ,1.11602 ,3.01593 ,29.59233 
128 ,27.3975 ,1.11811 ,3.01593 ,29.59233 
129 ,27.6056 ,1.12022 ,2.96802 ,29.12223 
130 ,27.8135 ,1.12229 ,2.96118 ,29.05507 
131 ,28.0053 ,1.12429 ,2.93722 ,28.82003 
132 ,28.2138 ,1.12633 ,2.94407 ,28.88718 
133 ,28.4217 ,1.12851 ,2.90985 ,28.55140 
134 ,28.6298 ,1.13038 ,2.88247 ,28.28277 
135 ,28.8376 ,1.13252 ,2.88589 ,28.31635 
136 ,29.0300 ,1.13449 ,2.85851 ,28.04772 
137 ,29.2381 ,1.13656 ,2.85509 ,28.01415 
138 ,29.4462 ,1.13867 ,2.83456 ,27.81268 
139 ,29.6703 ,1.14081 ,2.79691 ,27.44332 
140 ,29.8785 ,1.14293 ,2.79349 ,27.40974 
141 ,30.0706 ,1.14500 ,2.76611 ,27.14111 
142 ,30.2782 ,1.14688 ,2.76611 ,27.14111 
143 ,30.4869 ,1.14902 ,2.72847 ,26.77175 
144 ,30.7109 ,1.15124 ,2.71820 ,26.67101 
145 ,30.9028 ,1.15328 ,2.71136 ,26.60386 
146 ,31.1108 ,1.15522 ,2.68398 ,26.33523 
147 ,31.3348 ,1.15743 ,2.67714 ,26.26807 
148 ,31.5594 ,1.15975 ,2.66003 ,26.10018 
149 ,31.7831 ,1.16196 ,2.62923 ,25.79798 
150 ,32.0073 ,1.16421 ,2.60185 ,25.52935 
151 ,32.2154 ,1.16628 ,2.60185 ,25.52935 
152 ,32.4393 ,1.16852 ,2.57789 ,25.29430 
153 ,32.6473 ,1.17068 ,2.55736 ,25.09283 
154 ,32.8394 ,1.17266 ,2.53683 ,24.89136 
155 ,33.0638 ,1.17470 ,2.52314 ,24.75705 
156 ,33.2719 ,1.17683 ,2.49234 ,24.45485 
157 ,33.4961 ,1.17903 ,2.48892 ,24.42127 
158 ,33.7199 ,1.18131 ,2.47523 ,24.28696 
159 ,33.9282 ,1.18349 ,2.44101 ,23.95117 
160 ,34.1522 ,1.18561 ,2.43074 ,23.85044 
161 ,34.3763 ,1.18785 ,2.42390 ,23.78328 
162 ,34.5845 ,1.18995 ,2.39310 ,23.48108 
163 ,34.7924 ,1.19206 ,2.37941 ,23.34676 
164 ,35.0003 ,1.19413 ,2.36572 ,23.21245 
165 ,35.2085 ,1.19620 ,2.33150 ,22.87667 
166 ,35.4168 ,1.19834 ,2.33834 ,22.94382 
167 ,35.6246 ,1.20034 ,2.30754 ,22.64162 
168 ,35.8324 ,1.20247 ,2.30070 ,22.57446 
169 ,36.0410 ,1.20450 ,2.28701 ,22.44015 
170 ,36.2491 ,1.20667 ,2.26306 ,22.20510 
171 ,36.4732 ,1.20881 ,2.23910 ,21.97005 
172 ,36.6972 ,1.21104 ,2.23910 ,21.97005 
173 ,36.9049 ,1.21325 ,2.20488 ,21.63427 
174 ,37.1132 ,1.21524 ,2.18092 ,21.39922 
175 ,37.3213 ,1.21732 ,2.18092 ,21.39922 
176 ,37.5456 ,1.21957 ,2.14328 ,21.02986 
177 ,37.7538 ,1.22165 ,2.15012 ,21.09702 
178 ,37.9614 ,1.22371 ,2.13986 ,20.99628 
179 ,38.1859 ,1.22596 ,2.09537 ,20.55976 
180 ,38.3941 ,1.22812 ,2.08510 ,20.45903 
181 ,38.6020 ,1.23009 ,2.07141 ,20.32472 
182 ,38.8099 ,1.23217 ,2.04061 ,20.02251 
183 ,39.0340 ,1.23445 ,2.04061 ,20.02251 
184 ,39.2739 ,1.23690 ,2.02008 ,19.82104 
185 ,39.5144 ,1.23927 ,2.00297 ,19.65315 
186 ,39.7545 ,1.24165 ,1.97902 ,19.41810 
187 ,39.9625 ,1.24369 ,1.96875 ,19.31737 
188 ,40.1705 ,1.24579 ,1.94137 ,19.04874 
189 ,40.3948 ,1.24803 ,1.93111 ,18.94801 
190 ,40.6186 ,1.25028 ,1.92768 ,18.91443 
191 ,40.8110 ,1.25235 ,1.89346 ,18.57864 
192 ,41.0189 ,1.25427 ,1.87977 ,18.44433 
193 ,41.2432 ,1.25654 ,1.86608 ,18.31002 
194 ,41.4673 ,1.25880 ,1.83528 ,18.00781 
195 ,41.6914 ,1.26100 ,1.80791 ,17.73919 
196 ,41.8994 ,1.26312 ,1.81817 ,17.83992 
197 ,42.1236 ,1.26530 ,1.80791 ,17.73919 
198 ,42.3472 ,1.26753 ,1.76684 ,17.33625 
199 ,42.5713 ,1.26976 ,1.77369 ,17.40340 
200 ,42.7799 ,1.27188 ,1.75657 ,17.23551 
201 ,43.0039 ,1.27414 ,1.72920 ,16.96689 
202 ,43.2281 ,1.27643 ,1.69840 ,16.66468 
203 ,43.4360 ,1.27842 ,1.69498 ,16.63110 
204 ,43.6441 ,1.28054 ,1.68471 ,16.53037 
205 ,43.8844 ,1.28280 ,1.65049 ,16.19458 
206 ,44.0922 ,1.28503 ,1.63680 ,16.06027 
207 ,44.3161 ,1.28730 ,1.62653 ,15.95954 
208 ,44.5244 ,1.28938 ,1.60600 ,15.75807 
209 ,44.7484 ,1.29160 ,1.57520 ,15.45586 
210 ,44.9404 ,1.29357 ,1.58547 ,15.55660 
211 ,45.1648 ,1.29569 ,1.56151 ,15.32155 
212 ,45.3728 ,1.29781 ,1.53071 ,15.01934 
213 ,45.5810 ,1.29989 ,1.54098 ,15.12008 
214 ,45.7887 ,1.30195 ,1.51702 ,14.88503 
215 ,45.9810 ,1.30402 ,1.49307 ,14.64998 
216 ,46.1891 ,1.30597 ,1.47938 ,14.51567 
217 ,46.4132 ,1.30811 ,1.46911 ,14.41493 
218 ,46.6215 ,1.31034 ,1.46911 ,14.41493 
219 ,46.8453 ,1.31251 ,1.44516 ,14.17989 
220 ,47.0857 ,1.31483 ,1.39725 ,13.70979 
221 ,47.3097 ,1.31718 ,1.39383 ,13.67621 
222 ,47.5178 ,1.31929 ,1.39383 ,13.67621 
223 ,47.7258 ,1.32138 ,1.36303 ,13.37401 
224 ,47.9499 ,1.32352 ,1.34934 ,13.23969 
225 ,48.1740 ,1.32581 ,1.32880 ,13.03822 
226 ,48.3982 ,1.32799 ,1.32196 ,12.97107 
227 ,48.5902 ,1.33008 ,1.30485 ,12.80318 
228 ,48.8142 ,1.33216 ,1.28089 ,12.56813 
229 ,49.0224 ,1.33426 ,1.28774 ,12.63528 
230 ,49.2303 ,1.33648 ,1.25694 ,12.33308 
231 ,49.4383 ,1.33852 ,1.24667 ,12.23235 
232 ,49.6626 ,1.34070 ,1.22956 ,12.06445 
233 ,49.8867 ,1.34293 ,1.20903 ,11.86298 
234 ,50.0949 ,1.34499 ,1.18850 ,11.66151 
235 ,50.3189 ,1.34722 ,1.17481 ,11.52720 
236 ,50.5270 ,1.34939 ,1.17138 ,11.49362 
237 ,50.7505 ,1.35159 ,1.15427 ,11.32573 
238 ,50.9431 ,1.35359 ,1.13716 ,11.15784 
239 ,51.1672 ,1.35575 ,1.12690 ,11.05710 
240 ,51.3589 ,1.35780 ,1.08583 ,10.65416 
241 ,51.5675 ,1.35975 ,1.09610 ,10.75490 
242 ,51.7913 ,1.36194 ,1.05845 ,10.38554 
243 ,51.9993 ,1.36402 ,1.05161 ,10.31838 
244 ,52.2233 ,1.36625 ,1.05161 ,10.31838 
245 ,52.4312 ,1.36838 ,1.01739 ,9.98260 
246 ,52.6395 ,1.37047 ,0.99685 ,9.78113 
247 ,52.8479 ,1.37248 ,1.00712 ,9.88186 
248 ,53.0560 ,1.37456 ,0.97632 ,9.57966 
249 ,53.2801 ,1.37684 ,1.22956 ,12.06445 
250 ,53.4882 ,1.37894 ,1.24667 ,12.23235 
251 ,53.7121 ,1.38115 ,1.21929 ,11.96372 
252 ,53.9363 ,1.38342 ,1.21929 ,11.96372 
253 ,54.1442 ,1.38554 ,1.22956 ,12.06445 
254 ,54.3520 ,1.38753 ,1.20561 ,11.82941 
255 ,54.5603 ,1.38960 ,1.19534 ,11.72867 
256 ,54.7687 ,1.39169 ,1.19534 ,11.72867 
257 ,54.9768 ,1.39379 ,1.17138 ,11.49362 
258 ,55.2168 ,1.39618 ,1.15770 ,11.35931 
259 ,55.4406 ,1.39841 ,1.16112 ,11.39289 
260 ,55.6650 ,1.40070 ,1.15770 ,11.35931 
261 ,55.8730 ,1.40278 ,1.14058 ,11.19142 
262 ,56.0651 ,1.40476 ,1.13374 ,11.12426 
263 ,56.2891 ,1.40692 ,1.13032 ,11.09068 
264 ,56.4972 ,1.40899 ,1.10979 ,10.88921 
265 ,56.7055 ,1.41105 ,1.11663 ,10.95637 
266 ,56.9131 ,1.41317 ,1.08925 ,10.68774 
267 ,57.1377 ,1.41533 ,1.07556 ,10.55343 
268 ,57.3615 ,1.41766 ,1.06530 ,10.45270 
269 ,57.5699 ,1.41972 ,1.05845 ,10.38554 
270 ,57.7939 ,1.42201 ,1.04819 ,10.28480 
271 ,58.0016 ,1.42405 ,1.03450 ,10.15049 
272 ,58.2259 ,1.42631 ,1.05845 ,10.38554 
273 ,58.4500 ,1.42849 ,1.04476 ,10.25123 
274 ,58.6581 ,1.43056 ,1.02423 ,10.04976 
275 ,58.8821 ,1.43286 ,1.02423 ,10.04976 
276 ,59.0905 ,1.43492 ,1.02081 ,10.01618 
277 ,59.3143 ,1.43725 ,1.00028 ,9.81471 
278 ,59.5385 ,1.43941 ,0.98659 ,9.68039 
279 ,59.7626 ,1.44165 ,1.00028 ,9.81471 
280 ,59.9868 ,1.44391 ,0.99685 ,9.78113 
281 ,60.2109 ,1.44614 ,0.98317 ,9.64682 
282 ,60.4348 ,1.44843 ,0.96605 ,9.47892 
283 ,60.6431 ,1.45047 ,0.95579 ,9.37819 
284 ,60.8672 ,1.45272 ,0.95921 ,9.41177 
285 ,61.0911 ,1.45496 ,0.95237 ,9.34461 
286 ,61.3152 ,1.45712 ,0.93868 ,9.21030 
287 ,61.5231 ,1.45931 ,0.93525 ,9.17672 
288 ,61.7473 ,1.46143 ,0.93183 ,9.14314 
289 ,61.9554 ,1.46353 ,0.91814 ,9.00883 
290 ,62.1637 ,1.46563 ,0.91130 ,8.94167 
291 ,62.3877 ,1.46788 ,0.91130 ,8.94167 
292 ,62.6113 ,1.47012 ,0.89761 ,8.80736 
293 ,62.8200 ,1.47222 ,0.87023 ,8.53873 
294 ,63.0438 ,1.47439 ,0.88392 ,8.67305 
295 ,63.2521 ,1.47655 ,0.88392 ,8.67305 
296 ,63.4602 ,1.47862 ,0.85997 ,8.43800 
297 ,63.6679 ,1.48079 ,0.84970 ,8.33726 
298 ,63.8763 ,1.48273 ,0.84970 ,8.33726 
299 ,64.0842 ,1.48484 ,0.85312 ,8.37084 
300 ,64.2925 ,1.48693 ,0.85654 ,8.40442 
301 ,64.5166 ,1.48913 ,0.83259 ,8.16937 
302 ,64.7403 ,1.49137 ,0.82575 ,8.10221 
303 ,64.9487 ,1.49348 ,0.83601 ,8.20295 
304 ,65.1725 ,1.49574 ,0.84286 ,8.27011 
305 ,65.3808 ,1.49778 ,0.81548 ,8.00148 
306 ,65.6051 ,1.50004 ,0.82575 ,8.10221 
307 ,65.8287 ,1.50219 ,0.83259 ,8.16937 
308 ,66.0853 ,1.50487 ,0.81548 ,8.00148 
309 ,66.3093 ,1.50708 ,0.81890 ,8.03506 
310 ,66.5336 ,1.50934 ,0.80179 ,7.86717 
311 ,66.7414 ,1.51157 ,0.79495 ,7.80001 
312 ,66.9652 ,1.51360 ,0.78468 ,7.69927 
313 ,67.1738 ,1.51577 ,0.79495 ,7.80001 
314 ,67.3979 ,1.51800 ,0.77784 ,7.63212 
315 ,67.6217 ,1.52019 ,0.77441 ,7.59854 
316 ,67.8299 ,1.52233 ,0.78126 ,7.66570 
317 ,68.0376 ,1.52453 ,0.78126 ,7.66570 
318 ,68.2620 ,1.52663 ,0.76072 ,7.46423 
319 ,68.4863 ,1.52886 ,0.76757 ,7.53138 
320 ,68.6944 ,1.53093 ,0.76757 ,7.53138 
321 ,68.9184 ,1.53320 ,0.74704 ,7.32991 
322 ,69.1266 ,1.53529 ,0.75388 ,7.39707 
323 ,69.3666 ,1.53758 ,0.75046 ,7.36349 
324 ,69.5904 ,1.53989 ,0.75046 ,7.36349 
325 ,69.7990 ,1.54198 ,0.74019 ,7.26276 
326 ,70.0228 ,1.54422 ,0.72650 ,7.12844 
327 ,70.2470 ,1.54645 ,0.72992 ,7.16202 
328 ,70.4708 ,1.54870 ,0.74019 ,7.26276 
329 ,70.6952 ,1.55088 ,0.71966 ,7.06129 
330 ,70.9031 ,1.55301 ,0.70597 ,6.92697 
331 ,71.1111 ,1.55505 ,0.72308 ,7.09486 
332 ,71.3193 ,1.55718 ,0.70597 ,6.92697 
333 ,71.5270 ,1.55935 ,0.71281 ,6.99413 
334 ,71.7355 ,1.56132 ,0.71966 ,7.06129 
335 ,71.9434 ,1.56339 ,0.69570 ,6.82624 
336 ,72.1515 ,1.56550 ,0.72308 ,7.09486 
337 ,72.3757 ,1.56776 ,0.71966 ,7.06129 
338 ,72.5837 ,1.56983 ,0.69228 ,6.79266 
339 ,72.7921 ,1.57192 ,0.69913 ,6.85982 
340 ,73.0001 ,1.57399 ,0.68201 ,6.69193 
341 ,73.2082 ,1.57608 ,0.68544 ,6.72550 
342 ,73.4162 ,1.57815 ,0.68544 ,6.72550 
343 ,73.6239 ,1.58018 ,0.65806 ,6.45688 
344 ,73.8321 ,1.58231 ,0.67517 ,6.62477 
345 ,74.0402 ,1.58433 ,0.66490 ,6.52403 
346 ,74.2484 ,1.58646 ,0.66833 ,6.55761 
347 ,74.4566 ,1.58850 ,0.68544 ,6.72550 
348 ,74.6804 ,1.59073 ,0.65121 ,6.38972 
349 ,74.9043 ,1.59293 ,0.65464 ,6.42330 
350 ,75.1125 ,1.59505 ,0.66833 ,6.55761 
351 ,75.3204 ,1.59716 ,0.64437 ,6.32256 
352 ,75.5445 ,1.59938 ,0.65464 ,6.42330 
353 ,75.7688 ,1.60164 ,0.65806 ,6.45688 
354 ,76.0252 ,1.60423 ,0.64779 ,6.35614 
355 ,76.2654 ,1.60658 ,0.63753 ,6.25541 
356 ,76.4896 ,1.60885 ,0.64095 ,6.28899 
357 ,76.7137 ,1.61105 ,0.65121 ,6.38972 
358 ,76.9372 ,1.61327 ,0.63068 ,6.18825 
359 ,77.1617 ,1.61554 ,0.63068 ,6.18825 
360 ,77.3858 ,1.61784 ,0.64779 ,6.35614 
361 ,77.6100 ,1.62009 ,0.64437 ,6.32256 
362 ,77.8180 ,1.62214 ,0.65121 ,6.38972 
363 ,78.0419 ,1.62434 ,0.64437 ,6.32256 
364 ,78.2660 ,1.62666 ,0.65121 ,6.38972 
365 ,78.4902 ,1.62879 ,0.64095 ,6.28899 
366 ,78.6984 ,1.63093 ,0.64095 ,6.28899 
367 ,78.8903 ,1.63300 ,0.63410 ,6.22183 
368 ,79.0986 ,1.63496 ,0.64437 ,6.32256 
369 ,79.3224 ,1.63719 ,0.62042 ,6.08752 
370 ,79.5467 ,1.63944 ,0.62384 ,6.12109 
371 ,79.7708 ,1.64165 ,0.62726 ,6.15467 
372 ,79.9789 ,1.64374 ,0.62726 ,6.15467 
373 ,80.1870 ,1.64584 ,0.62726 ,6.15467 
374 ,80.3949 ,1.64788 ,0.63753 ,6.25541 
375 ,80.6031 ,1.64992 ,0.61357 ,6.02036 
376 ,80.8111 ,1.65207 ,0.63068 ,6.18825 
377 ,81.0192 ,1.65414 ,0.62726 ,6.15467 
378 ,81.2275 ,1.65622 ,0.62726 ,6.15467 
379 ,81.4351 ,1.65831 ,0.64779 ,6.35614 
380 ,81.6437 ,1.66039 ,0.63410 ,6.22183 
381 ,81.8678 ,1.66262 ,0.63410 ,6.22183 
382 ,82.0598 ,1.66470 ,0.65121 ,6.38972 
383 ,82.2678 ,1.66663 ,0.63068 ,6.18825 
384 ,82.4755 ,1.66864 ,0.64779 ,6.35614 
385 ,82.6998 ,1.67085 ,0.63753 ,6.25541 
386 ,82.9242 ,1.67317 ,0.63410 ,6.22183 
387 ,83.1322 ,1.67523 ,0.64779 ,6.35614 
388 ,83.3563 ,1.67743 ,0.64095 ,6.28899 
389 ,83.5642 ,1.67960 ,0.63410 ,6.22183 
390 ,83.8044 ,1.68199 ,0.63068 ,6.18825 
391 ,84.0126 ,1.68407 ,0.63753 ,6.25541 
392 ,84.2205 ,1.68614 ,0.63753 ,6.25541 
393 ,84.4288 ,1.68823 ,0.62726 ,6.15467 
394 ,84.6366 ,1.69031 ,0.69570 ,6.82624 
395 ,84.8770 ,1.69263 ,0.69570 ,6.82624 
396 ,85.1008 ,1.69490 ,0.70939 ,6.96055 
397 ,85.3092 ,1.69700 ,0.69913 ,6.85982 
398 ,85.5332 ,1.69925 ,0.69913 ,6.85982 
399 ,85.7410 ,1.70139 ,0.70939 ,6.96055 
400 ,85.9654 ,1.70359 ,0.69228 ,6.79266 
401 ,86.1734 ,1.70562 ,0.69913 ,6.85982 
402 ,86.3816 ,1.70772 ,0.70939 ,6.96055 
403 ,86.5896 ,1.70982 ,0.69570 ,6.82624 
404 ,86.7980 ,1.71191 ,0.71281 ,6.99413 
405 ,87.0218 ,1.71411 ,0.71624 ,7.02771 
406 ,87.2459 ,1.71635 ,0.69228 ,6.79266 
407 ,87.4860 ,1.71879 ,0.70255 ,6.89340 
408 ,87.7099 ,1.72099 ,0.68886 ,6.75908 
409 ,87.9185 ,1.72311 ,0.70597 ,6.92697 
410 ,88.1420 ,1.72532 ,0.69913 ,6.85982 
411 ,88.3664 ,1.72754 ,0.70597 ,6.92697 
412 ,88.6065 ,1.72990 ,0.69570 ,6.82624 
413 ,88.8465 ,1.73239 ,0.70597 ,6.92697 
414 ,89.0707 ,1.73461 ,0.69913 ,6.85982 
415 ,89.2784 ,1.73677 ,0.71281 ,6.99413 
416 ,89.4868 ,1.73873 ,0.70939 ,6.96055 
417 ,89.7106 ,1.74104 ,0.69913 ,6.85982 
418 ,89.9349 ,1.74322 ,0.69570 ,6.82624 
419 ,90.1591 ,1.74537 ,0.71281 ,6.99413 
420 ,90.3990 ,1.74781 ,0.69570 ,6.82624 
421 ,90.6233 ,1.75012 ,0.70939 ,6.96055 
422 ,90.8474 ,1.75235 ,0.69913 ,6.85982 
423 ,91.0711 ,1.75462 ,0.68201 ,6.69193 
424 ,91.2795 ,1.75670 ,0.70939 ,6.96055 
425 ,91.4876 ,1.75883 ,0.69570 ,6.82624 
426 ,91.7117 ,1.76102 ,0.70255 ,6.89340 
427 ,91.9197 ,1.76310 ,0.71281 ,6.99413 
428 ,92.1438 ,1.76536 ,0.70939 ,6.96055 
429 ,92.3517 ,1.76742 ,0.68544 ,6.72550 
430 ,92.5760 ,1.76971 ,0.69913 ,6.85982 
431 ,92.7841 ,1.77181 ,0.71281 ,6.99413 
432 ,93.0083 ,1.77396 ,0.70939 ,6.96055 
433 ,93.2163 ,1.77600 ,0.69913 ,6.85982 
434 ,93.4402 ,1.77828 ,0.71966 ,7.06129 
435 ,93.6485 ,1.78039 ,0.70939 ,6.96055 
436 ,93.8726 ,1.78261 ,0.69228 ,6.79266 
437 ,94.0967 ,1.78475 ,0.71281 ,6.99413 
438 ,94.3209 ,1.78709 ,0.70597 ,6.92697 
439 ,94.5448 ,1.78937 ,0.71624 ,7.02771 
440 ,94.7847 ,1.79164 ,0.69228 ,6.79266 
441 ,95.0090 ,1.79397 ,0.69913 ,6.85982 
442 ,95.2171 ,1.79610 ,0.70255 ,6.89340 
443 ,95.4412 ,1.79829 ,0.70939 ,6.96055 
444 ,95.6653 ,1.80056 ,0.70255 ,6.89340 
445 ,95.8733 ,1.80256 ,0.69570 ,6.82624 
446 ,96.0815 ,1.80466 ,0.72992 ,7.16202 
447 ,96.3055 ,1.80695 ,0.70597 ,6.92697 
448 ,96.5132 ,1.80896 ,0.69570 ,6.82624 
449 ,96.7217 ,1.81107 ,0.71966 ,7.06129 
450 ,96.9299 ,1.81326 ,0.71624 ,7.02771 
451 ,97.1380 ,1.81524 ,0.71281 ,6.99413 
452 ,97.3619 ,1.81750 ,0.72308 ,7.09486 
453 ,97.5700 ,1.81960 ,0.69570 ,6.82624 
454 ,97.7939 ,1.82181 ,0.69570 ,6.82624 
455 ,98.0177 ,1.82404 ,0.70255 ,6.89340 
456 ,98.2262 ,1.82607 ,0.71966 ,7.06129 
457 ,98.4504 ,1.82836 ,0.69913 ,6.85982 
458 ,98.6585 ,1.83047 ,0.69570 ,6.82624 
459 ,98.8825 ,1.83266 ,0.71624 ,7.02771 
460 ,99.0903 ,1.83474 ,0.68886 ,6.75908 
461 ,99.2986 ,1.83686 ,0.70597 ,6.92697 
462 ,99.4910 ,1.83887 ,0.71966 ,7.06129 
463 ,99.7150 ,1.84095 ,0.68544 ,6.72550 
464 ,99.9230 ,1.84308 ,0.71281 ,6.99413 
465 ,100.1466 ,1.84534 ,0.72308 ,7.09486 
466 ,100.3552 ,1.84747 ,0.69570 ,6.82624 
467 ,100.5633 ,1.84952 ,0.71624 ,7.02771 
