Data stamp = , 03-06-2022 01:44:55 503

Calibration Values: 
Slope = , 26.54 , g/V 
Offset Voltage at no contact = , -0.501760 , V 

No , Time , Stage Position ,   Mass , Force 
   ,  (s) ,      (mm)      ,   (g)  , (mN)  

1 ,0.0000 ,0.84958 ,5.32247 ,52.22410 
2 ,0.2134 ,0.84967 ,5.32247 ,52.22410 
3 ,0.8699 ,0.85261 ,5.31221 ,52.12337 
4 ,1.1099 ,0.85543 ,5.31563 ,52.15694 
5 ,1.3340 ,0.85758 ,5.33274 ,52.32484 
6 ,1.5904 ,0.85999 ,5.30194 ,52.02263 
7 ,1.8143 ,0.86245 ,5.28825 ,51.88832 
8 ,2.0222 ,0.86456 ,5.25403 ,51.55254 
9 ,2.2624 ,0.86695 ,5.21981 ,51.21675 
10 ,2.4867 ,0.86923 ,5.19243 ,50.94813 
11 ,2.6947 ,0.87133 ,5.19243 ,50.94813 
12 ,2.9184 ,0.87348 ,5.17532 ,50.78023 
13 ,3.1109 ,0.87555 ,5.12741 ,50.31014 
14 ,3.3350 ,0.87759 ,5.12399 ,50.27656 
15 ,3.5589 ,0.87993 ,5.10688 ,50.10867 
16 ,3.7836 ,0.88214 ,5.07950 ,49.84004 
17 ,4.0071 ,0.88437 ,5.04870 ,49.53784 
18 ,4.2154 ,0.88644 ,5.03843 ,49.43710 
19 ,4.4229 ,0.88861 ,5.00421 ,49.10132 
20 ,4.6150 ,0.89048 ,5.00079 ,49.06774 
21 ,4.8071 ,0.89246 ,4.97341 ,48.79911 
22 ,5.0156 ,0.89441 ,4.96657 ,48.73196 
23 ,5.2235 ,0.89656 ,4.93577 ,48.42975 
24 ,5.4473 ,0.89879 ,4.90839 ,48.16113 
25 ,5.6560 ,0.90090 ,4.90497 ,48.12755 
26 ,5.8637 ,0.90291 ,4.87075 ,47.79177 
27 ,6.0721 ,0.90505 ,4.86390 ,47.72461 
28 ,6.2962 ,0.90726 ,4.84679 ,47.55672 
29 ,6.5038 ,0.90937 ,4.81257 ,47.22093 
30 ,6.7124 ,0.91148 ,4.80573 ,47.15378 
31 ,6.9365 ,0.91365 ,4.77493 ,46.85157 
32 ,7.1444 ,0.91574 ,4.73728 ,46.48221 
33 ,7.3527 ,0.91778 ,4.73386 ,46.44863 
34 ,7.5607 ,0.91991 ,4.70990 ,46.21359 
35 ,7.8008 ,0.92228 ,4.68253 ,45.94496 
36 ,8.0249 ,0.92457 ,4.66199 ,45.74349 
37 ,8.2330 ,0.92663 ,4.64831 ,45.60918 
38 ,8.4569 ,0.92886 ,4.62777 ,45.40771 
39 ,8.6812 ,0.93112 ,4.60382 ,45.17266 
40 ,8.9052 ,0.93340 ,4.56960 ,44.83688 
41 ,9.1292 ,0.93556 ,4.55249 ,44.66898 
42 ,9.3373 ,0.93773 ,4.55249 ,44.66898 
43 ,9.5456 ,0.93979 ,4.51142 ,44.26604 
44 ,9.7697 ,0.94196 ,4.49431 ,44.09815 
45 ,9.9776 ,0.94410 ,4.48062 ,43.96384 
46 ,10.1860 ,0.94616 ,4.44298 ,43.59448 
47 ,10.3934 ,0.94824 ,4.44298 ,43.59448 
48 ,10.6017 ,0.95027 ,4.42586 ,43.42659 
49 ,10.8098 ,0.95241 ,4.39849 ,43.15796 
50 ,11.0341 ,0.95463 ,4.39849 ,43.15796 
51 ,11.2581 ,0.95687 ,4.36084 ,42.78860 
52 ,11.4823 ,0.95897 ,4.34031 ,42.58713 
53 ,11.7383 ,0.96167 ,4.32320 ,42.41924 
54 ,11.9624 ,0.96395 ,4.29240 ,42.11703 
55 ,12.1544 ,0.96595 ,4.28898 ,42.08345 
56 ,12.3624 ,0.96792 ,4.26160 ,41.81483 
57 ,12.5707 ,0.96993 ,4.23080 ,41.51262 
58 ,12.7948 ,0.97220 ,4.23080 ,41.51262 
59 ,13.0027 ,0.97432 ,4.20342 ,41.24400 
60 ,13.2268 ,0.97650 ,4.17262 ,40.94179 
61 ,13.4511 ,0.97875 ,4.15209 ,40.74032 
62 ,13.6752 ,0.98102 ,4.14867 ,40.70674 
63 ,13.8834 ,0.98315 ,4.11445 ,40.37096 
64 ,14.1073 ,0.98537 ,4.09391 ,40.16949 
65 ,14.3313 ,0.98761 ,4.08365 ,40.06876 
66 ,14.5551 ,0.98991 ,4.06654 ,39.90087 
67 ,14.7636 ,0.99191 ,4.03916 ,39.63224 
68 ,14.9716 ,0.99397 ,4.01863 ,39.43077 
69 ,15.1799 ,0.99611 ,4.00836 ,39.33003 
70 ,15.4038 ,0.99829 ,3.97756 ,39.02783 
71 ,15.6119 ,1.00034 ,3.96387 ,38.89352 
72 ,15.8200 ,1.00251 ,3.95018 ,38.75920 
73 ,16.0441 ,1.00474 ,3.91596 ,38.42342 
74 ,16.2681 ,1.00697 ,3.89201 ,38.18837 
75 ,16.4760 ,1.00905 ,3.90227 ,38.28911 
76 ,16.6845 ,1.01111 ,3.86805 ,37.95332 
77 ,16.9081 ,1.01335 ,3.84067 ,37.68470 
78 ,17.1164 ,1.01541 ,3.83041 ,37.58396 
79 ,17.3406 ,1.01768 ,3.82356 ,37.51681 
80 ,17.5483 ,1.01975 ,3.78250 ,37.11387 
81 ,17.7568 ,1.02183 ,3.78934 ,37.18102 
82 ,17.9968 ,1.02422 ,3.76539 ,36.94597 
83 ,18.2050 ,1.02632 ,3.71748 ,36.47588 
84 ,18.4290 ,1.02854 ,3.70379 ,36.34157 
85 ,18.6528 ,1.03068 ,3.70037 ,36.30799 
86 ,18.8452 ,1.03287 ,3.67299 ,36.03936 
87 ,19.0694 ,1.03497 ,3.64903 ,35.80431 
88 ,19.2778 ,1.03709 ,3.65588 ,35.87147 
89 ,19.4855 ,1.03922 ,3.61139 ,35.43495 
90 ,19.7094 ,1.04137 ,3.59428 ,35.26706 
91 ,19.9338 ,1.04361 ,3.59428 ,35.26706 
92 ,20.1576 ,1.04580 ,3.57032 ,35.03201 
93 ,20.3653 ,1.04791 ,3.53268 ,34.66265 
94 ,20.6058 ,1.05030 ,3.50530 ,34.39402 
95 ,20.8299 ,1.05249 ,3.49161 ,34.25971 
96 ,21.0539 ,1.05479 ,3.47450 ,34.09182 
97 ,21.2783 ,1.05702 ,3.46766 ,34.02466 
98 ,21.5024 ,1.05916 ,3.43686 ,33.72246 
99 ,21.7263 ,1.06145 ,3.40948 ,33.45383 
100 ,21.9184 ,1.06343 ,3.41633 ,33.52099 
101 ,22.1426 ,1.06555 ,3.37184 ,33.08447 
102 ,22.3502 ,1.06776 ,3.36499 ,33.01731 
103 ,22.5746 ,1.06986 ,3.35815 ,32.95016 
104 ,22.8149 ,1.07238 ,3.32735 ,32.64795 
105 ,23.0228 ,1.07445 ,3.31708 ,32.54722 
106 ,23.2309 ,1.07658 ,3.28286 ,32.21143 
107 ,23.4392 ,1.07858 ,3.28286 ,32.21143 
108 ,23.6631 ,1.08088 ,3.24522 ,31.84207 
109 ,23.8713 ,1.08292 ,3.22468 ,31.64060 
110 ,24.0634 ,1.08490 ,3.20757 ,31.47271 
111 ,24.2870 ,1.08706 ,3.18704 ,31.27124 
112 ,24.4953 ,1.08916 ,3.17677 ,31.17051 
113 ,24.7194 ,1.09142 ,3.16993 ,31.10335 
114 ,24.9278 ,1.09352 ,3.13571 ,30.76757 
115 ,25.1518 ,1.09570 ,3.11518 ,30.56610 
116 ,25.3594 ,1.09780 ,3.09806 ,30.39821 
117 ,25.5840 ,1.10003 ,3.08438 ,30.26389 
118 ,25.7920 ,1.10220 ,3.04331 ,29.86095 
119 ,25.9999 ,1.10423 ,3.05015 ,29.92811 
120 ,26.1922 ,1.10617 ,3.02278 ,29.65948 
121 ,26.4002 ,1.10821 ,3.01935 ,29.62590 
122 ,26.6084 ,1.11034 ,2.99198 ,29.35728 
123 ,26.8322 ,1.11254 ,2.96118 ,29.05507 
124 ,27.0245 ,1.11461 ,2.95433 ,28.98792 
125 ,27.2326 ,1.11653 ,2.94064 ,28.85360 
126 ,27.4563 ,1.11875 ,2.94407 ,28.88718 
127 ,27.6648 ,1.12082 ,2.89273 ,28.38351 
128 ,27.8565 ,1.12284 ,2.89616 ,28.41709 
129 ,28.0649 ,1.12488 ,2.85167 ,27.98057 
130 ,28.2571 ,1.12684 ,2.85851 ,28.04772 
131 ,28.4652 ,1.12895 ,2.82771 ,27.74552 
132 ,28.6729 ,1.13090 ,2.82429 ,27.71194 
133 ,28.8815 ,1.13310 ,2.79007 ,27.37616 
134 ,29.1054 ,1.13528 ,2.77296 ,27.20827 
135 ,29.3293 ,1.13749 ,2.75585 ,27.04038 
136 ,29.5373 ,1.13956 ,2.75927 ,27.07395 
137 ,29.7615 ,1.14183 ,2.72505 ,26.73817 
138 ,29.9698 ,1.14388 ,2.70452 ,26.53670 
139 ,30.1779 ,1.14603 ,2.70794 ,26.57028 
140 ,30.4017 ,1.14822 ,2.66345 ,26.13376 
141 ,30.6101 ,1.15030 ,2.63949 ,25.89871 
142 ,30.8341 ,1.15252 ,2.64634 ,25.96587 
143 ,31.0259 ,1.15457 ,2.61896 ,25.69724 
144 ,31.2342 ,1.15657 ,2.60527 ,25.56293 
145 ,31.4422 ,1.15861 ,2.58132 ,25.32788 
146 ,31.6344 ,1.16058 ,2.57105 ,25.22715 
147 ,31.8583 ,1.16277 ,2.56078 ,25.12641 
148 ,32.0822 ,1.16500 ,2.52656 ,24.79063 
149 ,32.2911 ,1.16705 ,2.50603 ,24.58916 
150 ,32.5148 ,1.16935 ,2.50261 ,24.55558 
151 ,32.7388 ,1.17161 ,2.48207 ,24.35411 
152 ,32.9467 ,1.17365 ,2.45812 ,24.11906 
153 ,33.1386 ,1.17574 ,2.45127 ,24.05191 
154 ,33.3631 ,1.17785 ,2.42390 ,23.78328 
155 ,33.5710 ,1.18002 ,2.40336 ,23.58181 
156 ,33.7953 ,1.18218 ,2.39310 ,23.48108 
157 ,34.0194 ,1.18440 ,2.37599 ,23.31318 
158 ,34.2275 ,1.18648 ,2.35203 ,23.07814 
159 ,34.4995 ,1.18925 ,2.34519 ,23.01098 
160 ,34.7237 ,1.19145 ,2.31781 ,22.74235 
161 ,34.9156 ,1.19349 ,2.29043 ,22.47373 
162 ,35.1239 ,1.19547 ,2.28359 ,22.40657 
163 ,35.3474 ,1.19766 ,2.25963 ,22.17152 
164 ,35.5558 ,1.19977 ,2.25963 ,22.17152 
165 ,35.7801 ,1.20194 ,2.23568 ,21.93647 
166 ,35.9877 ,1.20407 ,2.20146 ,21.60069 
167 ,36.1963 ,1.20614 ,2.21172 ,21.70143 
168 ,36.4043 ,1.20826 ,2.17750 ,21.36564 
169 ,36.6445 ,1.21051 ,2.15697 ,21.16417 
170 ,36.8680 ,1.21288 ,2.13644 ,20.96270 
171 ,37.0764 ,1.21490 ,2.14670 ,21.06344 
172 ,37.2846 ,1.21704 ,2.10564 ,20.66050 
173 ,37.4925 ,1.21909 ,2.08510 ,20.45903 
174 ,37.7166 ,1.22133 ,2.09537 ,20.55976 
175 ,37.9409 ,1.22360 ,2.06115 ,20.22398 
176 ,38.1490 ,1.22572 ,2.03377 ,19.95535 
177 ,38.3570 ,1.22783 ,2.03035 ,19.92178 
178 ,38.5813 ,1.22997 ,2.02693 ,19.88820 
179 ,38.7729 ,1.23200 ,1.97902 ,19.41810 
180 ,38.9814 ,1.23395 ,1.98586 ,19.48526 
181 ,39.2056 ,1.23623 ,1.96190 ,19.25021 
182 ,39.4295 ,1.23851 ,1.94822 ,19.11590 
183 ,39.6376 ,1.24056 ,1.94137 ,19.04874 
184 ,39.8452 ,1.24267 ,1.90715 ,18.71296 
185 ,40.0698 ,1.24485 ,1.88662 ,18.51149 
186 ,40.2939 ,1.24716 ,1.88662 ,18.51149 
187 ,40.5019 ,1.24918 ,1.86608 ,18.31002 
188 ,40.7098 ,1.25131 ,1.83528 ,18.00781 
189 ,40.9340 ,1.25351 ,1.83871 ,18.04139 
190 ,41.1581 ,1.25574 ,1.82160 ,17.87350 
191 ,41.3825 ,1.25803 ,1.80449 ,17.70561 
192 ,41.6064 ,1.26026 ,1.76000 ,17.26909 
193 ,41.8145 ,1.26245 ,1.75657 ,17.23551 
194 ,42.0227 ,1.26442 ,1.74631 ,17.13478 
195 ,42.2624 ,1.26676 ,1.70524 ,16.73184 
196 ,42.4867 ,1.26902 ,1.69498 ,16.63110 
197 ,42.6949 ,1.27109 ,1.69498 ,16.63110 
198 ,42.9029 ,1.27332 ,1.68813 ,16.56395 
199 ,43.1271 ,1.27545 ,1.64707 ,16.16101 
200 ,43.3509 ,1.27768 ,1.65391 ,16.22816 
201 ,43.5590 ,1.27976 ,1.64364 ,16.12743 
202 ,43.7672 ,1.28182 ,1.59916 ,15.69091 
203 ,43.9754 ,1.28390 ,1.60600 ,15.75807 
204 ,44.1673 ,1.28599 ,1.57520 ,15.45586 
205 ,44.3916 ,1.28800 ,1.56151 ,15.32155 
206 ,44.5996 ,1.29014 ,1.55809 ,15.28797 
207 ,44.8077 ,1.29223 ,1.51702 ,14.88503 
208 ,45.0157 ,1.29443 ,1.51018 ,14.81787 
209 ,45.2559 ,1.29671 ,1.50676 ,14.78430 
210 ,45.4638 ,1.29880 ,1.47596 ,14.48209 
211 ,45.6720 ,1.30088 ,1.46227 ,14.34778 
212 ,45.8799 ,1.30295 ,1.45885 ,14.31420 
213 ,46.1040 ,1.30520 ,1.42805 ,14.01199 
214 ,46.3124 ,1.30731 ,1.40409 ,13.77695 
215 ,46.5361 ,1.30948 ,1.40067 ,13.74337 
216 ,46.7446 ,1.31158 ,1.37329 ,13.47474 
217 ,46.9523 ,1.31371 ,1.37329 ,13.47474 
218 ,47.1767 ,1.31575 ,1.35276 ,13.27327 
219 ,47.3848 ,1.31801 ,1.33223 ,13.07180 
220 ,47.5924 ,1.32006 ,1.32196 ,12.97107 
221 ,47.7849 ,1.32213 ,1.31854 ,12.93749 
222 ,47.9930 ,1.32409 ,1.28774 ,12.63528 
223 ,48.2010 ,1.32611 ,1.27747 ,12.53455 
224 ,48.4092 ,1.32821 ,1.25009 ,12.26592 
225 ,48.6333 ,1.33046 ,1.23983 ,12.16519 
226 ,48.8574 ,1.33277 ,1.22956 ,12.06445 
227 ,49.0815 ,1.33490 ,1.21587 ,11.93014 
228 ,49.2901 ,1.33705 ,1.18507 ,11.62794 
229 ,49.5133 ,1.33922 ,1.18507 ,11.62794 
230 ,49.7057 ,1.34132 ,1.16796 ,11.46004 
231 ,49.9137 ,1.34327 ,1.15770 ,11.35931 
232 ,50.1379 ,1.34548 ,1.13716 ,11.15784 
233 ,50.3619 ,1.34776 ,1.11321 ,10.92279 
234 ,50.5861 ,1.35002 ,1.09610 ,10.75490 
235 ,50.8102 ,1.35219 ,1.07556 ,10.55343 
236 ,51.0021 ,1.35426 ,1.07899 ,10.58701 
237 ,51.2103 ,1.35617 ,1.04819 ,10.28480 
238 ,51.4184 ,1.35830 ,1.05161 ,10.31838 
239 ,51.6425 ,1.36058 ,1.02081 ,10.01618 
240 ,51.8668 ,1.36280 ,0.99685 ,9.78113 
241 ,52.0747 ,1.36490 ,0.99685 ,9.78113 
242 ,52.2829 ,1.36694 ,0.98659 ,9.68039 
243 ,52.5069 ,1.36918 ,0.95237 ,9.34461 
244 ,52.7149 ,1.37127 ,0.94552 ,9.27745 
245 ,52.9389 ,1.37351 ,0.95237 ,9.34461 
246 ,53.1470 ,1.37560 ,0.90788 ,8.90809 
247 ,53.3551 ,1.37765 ,0.89761 ,8.80736 
248 ,53.5472 ,1.37968 ,0.88734 ,8.70662 
249 ,53.7552 ,1.38166 ,0.88734 ,8.70662 
250 ,53.9635 ,1.38379 ,0.86339 ,8.47158 
251 ,54.1712 ,1.38582 ,0.84628 ,8.30368 
252 ,54.3957 ,1.38806 ,0.82917 ,8.13579 
253 ,54.6194 ,1.39032 ,0.82575 ,8.10221 
254 ,54.8277 ,1.39237 ,0.80179 ,7.86717 
255 ,55.0519 ,1.39468 ,0.77784 ,7.63212 
256 ,55.2599 ,1.39670 ,0.80863 ,7.93432 
257 ,55.4841 ,1.39895 ,1.09610 ,10.75490 
258 ,55.7083 ,1.40119 ,1.09267 ,10.72132 
259 ,55.9322 ,1.40348 ,1.09267 ,10.72132 
260 ,56.1403 ,1.40545 ,1.10636 ,10.85563 
261 ,56.3645 ,1.40774 ,1.08925 ,10.68774 
262 ,56.5882 ,1.41004 ,1.07214 ,10.51985 
263 ,56.8287 ,1.41243 ,1.07556 ,10.55343 
264 ,57.0528 ,1.41462 ,1.05503 ,10.35196 
265 ,57.2769 ,1.41688 ,1.06530 ,10.45270 
266 ,57.4851 ,1.41897 ,1.05503 ,10.35196 
267 ,57.7090 ,1.42116 ,1.03108 ,10.11691 
268 ,57.9331 ,1.42346 ,1.02081 ,10.01618 
269 ,58.1413 ,1.42553 ,1.03792 ,10.18407 
270 ,58.3492 ,1.42762 ,1.00028 ,9.81471 
271 ,58.5573 ,1.42967 ,1.01739 ,9.98260 
272 ,58.7654 ,1.43182 ,0.99685 ,9.78113 
273 ,58.9897 ,1.43400 ,0.98659 ,9.68039 
274 ,59.2136 ,1.43619 ,0.98659 ,9.68039 
275 ,59.4532 ,1.43870 ,0.97632 ,9.57966 
276 ,59.6613 ,1.44081 ,0.97632 ,9.57966 
277 ,59.8861 ,1.44301 ,0.94210 ,9.24388 
278 ,60.1421 ,1.44547 ,0.94210 ,9.24388 
279 ,60.3502 ,1.44759 ,0.92157 ,9.04241 
280 ,60.5740 ,1.44986 ,0.93183 ,9.14314 
281 ,60.7981 ,1.45203 ,0.93183 ,9.14314 
282 ,61.0225 ,1.45436 ,0.92157 ,9.04241 
283 ,61.2465 ,1.45655 ,0.91814 ,9.00883 
284 ,61.4546 ,1.45862 ,0.89419 ,8.77378 
285 ,61.6628 ,1.46076 ,0.91130 ,8.94167 
286 ,61.8870 ,1.46295 ,0.87708 ,8.60589 
287 ,62.1266 ,1.46538 ,0.87023 ,8.53873 
288 ,62.3348 ,1.46744 ,0.87366 ,8.57231 
289 ,62.5427 ,1.46954 ,0.86681 ,8.50515 
290 ,62.7513 ,1.47161 ,0.84970 ,8.33726 
291 ,62.9589 ,1.47368 ,0.86681 ,8.50515 
292 ,63.1672 ,1.47572 ,0.82917 ,8.13579 
293 ,63.3755 ,1.47779 ,0.84970 ,8.33726 
294 ,63.5835 ,1.47994 ,0.84286 ,8.27011 
295 ,63.7756 ,1.48193 ,0.82232 ,8.06864 
296 ,63.9838 ,1.48388 ,0.83259 ,8.16937 
297 ,64.2073 ,1.48615 ,0.81548 ,8.00148 
298 ,64.4153 ,1.48825 ,0.80863 ,7.93432 
299 ,64.6237 ,1.49031 ,0.81548 ,8.00148 
300 ,64.8156 ,1.49233 ,0.79495 ,7.80001 
301 ,65.0239 ,1.49439 ,0.80521 ,7.90074 
302 ,65.2322 ,1.49641 ,0.78468 ,7.69927 
303 ,65.4562 ,1.49863 ,0.80863 ,7.93432 
304 ,65.6644 ,1.50080 ,0.79495 ,7.80001 
305 ,65.8885 ,1.50297 ,0.77099 ,7.56496 
306 ,66.1126 ,1.50522 ,0.77099 ,7.56496 
307 ,66.3367 ,1.50742 ,0.77784 ,7.63212 
308 ,66.5605 ,1.50969 ,0.78126 ,7.66570 
309 ,66.7849 ,1.51184 ,0.77099 ,7.56496 
310 ,67.0089 ,1.51414 ,0.75730 ,7.43065 
311 ,67.2169 ,1.51627 ,0.77099 ,7.56496 
312 ,67.4250 ,1.51832 ,0.75388 ,7.39707 
313 ,67.6491 ,1.52049 ,0.74361 ,7.29633 
314 ,67.9053 ,1.52316 ,0.74704 ,7.32991 
315 ,68.1291 ,1.52536 ,0.72650 ,7.12844 
316 ,68.3535 ,1.52762 ,0.73335 ,7.19560 
317 ,68.5615 ,1.52972 ,0.75046 ,7.36349 
318 ,68.8017 ,1.53208 ,0.73677 ,7.22918 
319 ,69.0258 ,1.53431 ,0.70939 ,6.96055 
320 ,69.2499 ,1.53657 ,0.71281 ,6.99413 
321 ,69.4579 ,1.53863 ,0.72650 ,7.12844 
322 ,69.6817 ,1.54091 ,0.72308 ,7.09486 
323 ,69.9222 ,1.54316 ,0.71281 ,6.99413 
324 ,70.1463 ,1.54552 ,0.69913 ,6.85982 
325 ,70.3703 ,1.54771 ,0.69913 ,6.85982 
326 ,70.5780 ,1.54989 ,0.69913 ,6.85982 
327 ,70.7864 ,1.55190 ,0.69913 ,6.85982 
328 ,70.9946 ,1.55403 ,0.68886 ,6.75908 
329 ,71.2185 ,1.55625 ,0.70255 ,6.89340 
330 ,71.4427 ,1.55845 ,0.70255 ,6.89340 
331 ,71.6666 ,1.56075 ,0.68544 ,6.72550 
332 ,71.8910 ,1.56291 ,0.66148 ,6.49046 
333 ,72.1150 ,1.56523 ,0.67175 ,6.59119 
334 ,72.3390 ,1.56744 ,0.68544 ,6.72550 
335 ,72.5469 ,1.56954 ,0.68544 ,6.72550 
336 ,72.7550 ,1.57160 ,0.66148 ,6.49046 
337 ,72.9634 ,1.57369 ,0.67517 ,6.62477 
338 ,73.2034 ,1.57601 ,0.66833 ,6.55761 
339 ,73.4275 ,1.57834 ,0.65464 ,6.42330 
340 ,73.6357 ,1.58040 ,0.66490 ,6.52403 
341 ,73.8438 ,1.58250 ,0.65806 ,6.45688 
342 ,74.0678 ,1.58470 ,0.65806 ,6.45688 
343 ,74.2922 ,1.58690 ,0.65121 ,6.38972 
344 ,74.5158 ,1.58923 ,0.64779 ,6.35614 
345 ,74.7080 ,1.59121 ,0.65464 ,6.42330 
346 ,74.9322 ,1.59331 ,0.63753 ,6.25541 
347 ,75.1243 ,1.59540 ,0.65121 ,6.38972 
348 ,75.3321 ,1.59732 ,0.62726 ,6.15467 
349 ,75.5405 ,1.59948 ,0.64437 ,6.32256 
350 ,75.7644 ,1.60169 ,0.63753 ,6.25541 
351 ,75.9726 ,1.60379 ,0.61357 ,6.02036 
352 ,76.1963 ,1.60598 ,0.61699 ,6.05394 
353 ,76.4043 ,1.60809 ,0.63410 ,6.22183 
354 ,76.6127 ,1.61012 ,0.61699 ,6.05394 
355 ,76.8365 ,1.61239 ,0.62042 ,6.08752 
356 ,77.0450 ,1.61446 ,0.62042 ,6.08752 
357 ,77.2690 ,1.61672 ,0.61357 ,6.02036 
358 ,77.4767 ,1.61879 ,0.61015 ,5.98678 
359 ,77.6851 ,1.62088 ,0.62384 ,6.12109 
360 ,77.8932 ,1.62299 ,0.59646 ,5.85247 
361 ,78.1015 ,1.62504 ,0.61015 ,5.98678 
362 ,78.3096 ,1.62716 ,0.60673 ,5.95320 
363 ,78.5653 ,1.62965 ,0.61357 ,6.02036 
364 ,78.7736 ,1.63179 ,0.58619 ,5.75173 
365 ,78.9978 ,1.63402 ,0.59988 ,5.88605 
366 ,79.2218 ,1.63627 ,0.62726 ,6.15467 
367 ,79.4459 ,1.63848 ,0.62384 ,6.12109 
368 ,79.6537 ,1.64054 ,0.60673 ,5.95320 
369 ,79.8943 ,1.64283 ,0.62726 ,6.15467 
370 ,80.1182 ,1.64519 ,0.61699 ,6.05394 
371 ,80.3264 ,1.64742 ,0.63753 ,6.25541 
372 ,80.5342 ,1.64934 ,0.61015 ,5.98678 
373 ,80.7264 ,1.65140 ,0.63753 ,6.25541 
374 ,80.9506 ,1.65350 ,0.62384 ,6.12109 
375 ,81.1747 ,1.65577 ,0.62042 ,6.08752 
376 ,81.3985 ,1.65796 ,0.64095 ,6.28899 
377 ,81.6064 ,1.66005 ,0.64095 ,6.28899 
378 ,81.8149 ,1.66212 ,0.62384 ,6.12109 
379 ,82.0390 ,1.66441 ,0.64779 ,6.35614 
380 ,82.2631 ,1.66663 ,0.63410 ,6.22183 
381 ,82.4551 ,1.66868 ,0.61699 ,6.05394 
382 ,82.6793 ,1.67080 ,0.62726 ,6.15467 
383 ,82.8875 ,1.67287 ,0.63068 ,6.18825 
384 ,83.1115 ,1.67510 ,0.62384 ,6.12109 
385 ,83.3036 ,1.67715 ,0.62042 ,6.08752 
386 ,83.5117 ,1.67916 ,0.63068 ,6.18825 
387 ,83.7197 ,1.68126 ,0.63068 ,6.18825 
388 ,83.9436 ,1.68342 ,0.63410 ,6.22183 
389 ,84.1515 ,1.68552 ,0.61357 ,6.02036 
390 ,84.3600 ,1.68756 ,0.65806 ,6.45688 
391 ,84.6001 ,1.68990 ,0.67517 ,6.62477 
392 ,84.8242 ,1.69228 ,0.68544 ,6.72550 
393 ,85.0482 ,1.69448 ,0.68886 ,6.75908 
394 ,85.2559 ,1.69654 ,0.68544 ,6.72550 
395 ,85.4643 ,1.69859 ,0.70255 ,6.89340 
396 ,85.6726 ,1.70069 ,0.68201 ,6.69193 
397 ,85.8967 ,1.70298 ,0.67859 ,6.65835 
398 ,86.1046 ,1.70518 ,0.70255 ,6.89340 
399 ,86.3123 ,1.70712 ,0.67517 ,6.62477 
400 ,86.5209 ,1.70923 ,0.69228 ,6.79266 
401 ,86.7449 ,1.71146 ,0.69570 ,6.82624 
402 ,86.9530 ,1.71349 ,0.67859 ,6.65835 
403 ,87.1609 ,1.71569 ,0.67175 ,6.59119 
404 ,87.3849 ,1.71785 ,0.69228 ,6.79266 
405 ,87.6092 ,1.72009 ,0.69228 ,6.79266 
406 ,87.8333 ,1.72235 ,0.67517 ,6.62477 
407 ,88.0573 ,1.72454 ,0.67859 ,6.65835 
408 ,88.2655 ,1.72665 ,0.69913 ,6.85982 
409 ,88.4737 ,1.72871 ,0.67859 ,6.65835 
410 ,88.6976 ,1.73092 ,0.70597 ,6.92697 
411 ,88.9058 ,1.73306 ,0.70255 ,6.89340 
412 ,89.1614 ,1.73560 ,0.68886 ,6.75908 
413 ,89.4015 ,1.73798 ,0.69913 ,6.85982 
414 ,89.6098 ,1.74007 ,0.68544 ,6.72550 
415 ,89.8660 ,1.74257 ,0.67859 ,6.65835 
416 ,90.0902 ,1.74490 ,0.68886 ,6.75908 
417 ,90.3144 ,1.74700 ,0.68544 ,6.72550 
418 ,90.5222 ,1.74917 ,0.69913 ,6.85982 
419 ,90.7305 ,1.75127 ,0.69228 ,6.79266 
420 ,90.9545 ,1.75351 ,0.68544 ,6.72550 
421 ,91.1786 ,1.75568 ,0.68201 ,6.69193 
422 ,91.4028 ,1.75800 ,0.69228 ,6.79266 
423 ,91.5948 ,1.76007 ,0.68886 ,6.75908 
424 ,91.8030 ,1.76200 ,0.70255 ,6.89340 
425 ,92.0109 ,1.76408 ,0.67859 ,6.65835 
426 ,92.2189 ,1.76612 ,0.68544 ,6.72550 
427 ,92.4271 ,1.76823 ,0.69228 ,6.79266 
428 ,92.6514 ,1.77041 ,0.68544 ,6.72550 
429 ,92.8433 ,1.77252 ,0.68886 ,6.75908 
430 ,93.0511 ,1.77452 ,0.67859 ,6.65835 
431 ,93.2756 ,1.77667 ,0.68886 ,6.75908 
432 ,93.4837 ,1.77876 ,0.69913 ,6.85982 
433 ,93.6757 ,1.78084 ,0.67859 ,6.65835 
434 ,93.8998 ,1.78294 ,0.68886 ,6.75908 
435 ,94.1078 ,1.78504 ,0.69228 ,6.79266 
436 ,94.3319 ,1.78730 ,0.67859 ,6.65835 
437 ,94.5560 ,1.78950 ,0.68544 ,6.72550 
438 ,94.7640 ,1.79166 ,0.70255 ,6.89340 
439 ,94.9884 ,1.79386 ,0.68201 ,6.69193 
440 ,95.1963 ,1.79604 ,0.68886 ,6.75908 
441 ,95.4200 ,1.79822 ,0.70597 ,6.92697 
442 ,95.6601 ,1.80049 ,0.68886 ,6.75908 
443 ,95.9322 ,1.80311 ,0.70255 ,6.89340 
444 ,96.1563 ,1.80546 ,0.67517 ,6.62477 
445 ,96.3963 ,1.80786 ,0.68544 ,6.72550 
446 ,96.6206 ,1.81011 ,0.69570 ,6.82624 
447 ,96.8451 ,1.81243 ,0.69913 ,6.85982 
448 ,97.0531 ,1.81450 ,0.68201 ,6.69193 
449 ,97.2769 ,1.81673 ,0.68886 ,6.75908 
450 ,97.4856 ,1.81880 ,0.69570 ,6.82624 
451 ,97.7094 ,1.82107 ,0.68201 ,6.69193 
452 ,97.9335 ,1.82327 ,0.68201 ,6.69193 
453 ,98.1574 ,1.82550 ,0.68886 ,6.75908 
454 ,98.3657 ,1.82756 ,0.70597 ,6.92697 
455 ,98.5737 ,1.82968 ,0.68544 ,6.72550 
456 ,98.7656 ,1.83168 ,0.69570 ,6.82624 
457 ,98.9738 ,1.83366 ,0.68201 ,6.69193 
458 ,99.1819 ,1.83575 ,0.69913 ,6.85982 
459 ,99.3739 ,1.83786 ,0.69570 ,6.82624 
460 ,99.5981 ,1.83989 ,0.68886 ,6.75908 
461 ,99.8380 ,1.84232 ,0.67859 ,6.65835 
462 ,100.0463 ,1.84435 ,0.69228 ,6.79266 
463 ,100.2704 ,1.84662 ,0.69228 ,6.79266 
464 ,100.4785 ,1.84869 ,0.68886 ,6.75908 
465 ,100.7027 ,1.85096 ,0.70255 ,6.89340 
466 ,100.9103 ,1.85308 ,0.69913 ,6.85982 
467 ,101.1188 ,1.85510 ,0.69228 ,6.79266 
468 ,101.3265 ,1.85725 ,0.70255 ,6.89340 
