Data stamp = , 03-06-2022 14:21:29 271

Calibration Values: 
Slope = , 26.54 , g/V 
Offset Voltage at no contact = , -0.501760 , V 

No , Time , Stage Position ,   Mass , Force 
   ,  (s) ,      (mm)      ,   (g)  , (mN)  

1 ,0.0000 ,0.84955 ,5.31221 ,52.12337 
2 ,0.2011 ,0.84961 ,5.30194 ,52.02263 
3 ,1.0654 ,0.85347 ,5.30878 ,52.08979 
4 ,1.2735 ,0.85703 ,5.32932 ,52.29126 
5 ,1.4658 ,0.85903 ,5.29167 ,51.92190 
6 ,1.6900 ,0.86115 ,5.29852 ,51.98905 
7 ,1.9298 ,0.86359 ,5.27456 ,51.75401 
8 ,2.1379 ,0.86570 ,5.25745 ,51.58611 
9 ,2.3624 ,0.86795 ,5.21639 ,51.18317 
10 ,2.5863 ,0.87010 ,5.20954 ,51.11602 
11 ,2.8103 ,0.87239 ,5.18901 ,50.91455 
12 ,3.0183 ,0.87445 ,5.16505 ,50.67950 
13 ,3.2747 ,0.87692 ,5.14794 ,50.51161 
14 ,3.4985 ,0.87930 ,5.11030 ,50.14225 
15 ,3.7068 ,0.88137 ,5.08634 ,49.90720 
16 ,3.9149 ,0.88341 ,5.08634 ,49.90720 
17 ,4.1228 ,0.88558 ,5.04528 ,49.50426 
18 ,4.3790 ,0.88807 ,5.02817 ,49.33637 
19 ,4.6029 ,0.89035 ,4.98710 ,48.93343 
20 ,4.8117 ,0.89242 ,4.98710 ,48.93343 
21 ,5.0514 ,0.89479 ,4.95972 ,48.66480 
22 ,5.2751 ,0.89705 ,4.93919 ,48.46333 
23 ,5.4997 ,0.89931 ,4.91866 ,48.26186 
24 ,5.7396 ,0.90164 ,4.89128 ,47.99324 
25 ,5.9475 ,0.90377 ,4.87417 ,47.82534 
26 ,6.1719 ,0.90597 ,4.86048 ,47.69103 
27 ,6.3795 ,0.90822 ,4.84679 ,47.55672 
28 ,6.6039 ,0.91033 ,4.81599 ,47.25451 
29 ,6.8125 ,0.91237 ,4.78861 ,46.98589 
30 ,7.0842 ,0.91518 ,4.76466 ,46.75084 
31 ,7.2761 ,0.91720 ,4.75439 ,46.65010 
32 ,7.4839 ,0.91912 ,4.72359 ,46.34790 
33 ,7.7082 ,0.92136 ,4.70648 ,46.18001 
34 ,7.9321 ,0.92361 ,4.68937 ,46.01212 
35 ,8.1726 ,0.92601 ,4.66199 ,45.74349 
36 ,8.3966 ,0.92826 ,4.64146 ,45.54202 
37 ,8.6045 ,0.93034 ,4.60382 ,45.17266 
38 ,8.8447 ,0.93279 ,4.58328 ,44.97119 
39 ,9.0849 ,0.93511 ,4.56617 ,44.80330 
40 ,9.2928 ,0.93719 ,4.56275 ,44.76972 
41 ,9.5171 ,0.93948 ,4.53537 ,44.50109 
42 ,9.7568 ,0.94177 ,4.52169 ,44.36678 
43 ,9.9811 ,0.94415 ,4.48062 ,43.96384 
44 ,10.2213 ,0.94641 ,4.48404 ,43.99742 
45 ,10.4295 ,0.94865 ,4.44298 ,43.59448 
46 ,10.6375 ,0.95066 ,4.44640 ,43.62806 
47 ,10.8457 ,0.95273 ,4.40875 ,43.25870 
48 ,11.0854 ,0.95515 ,4.37453 ,42.92291 
49 ,11.2939 ,0.95725 ,4.37111 ,42.88933 
50 ,11.5179 ,0.95941 ,4.36427 ,42.82218 
51 ,11.7258 ,0.96152 ,4.32662 ,42.45282 
52 ,11.9662 ,0.96384 ,4.30609 ,42.25135 
53 ,12.1899 ,0.96618 ,4.30267 ,42.21777 
54 ,12.3984 ,0.96830 ,4.27529 ,41.94914 
55 ,12.5899 ,0.97028 ,4.24107 ,41.61336 
56 ,12.8461 ,0.97263 ,4.23422 ,41.54620 
57 ,13.0863 ,0.97499 ,4.21369 ,41.34473 
58 ,13.3261 ,0.97747 ,4.18289 ,41.04253 
59 ,13.5344 ,0.97967 ,4.17605 ,40.97537 
60 ,13.7583 ,0.98182 ,4.15551 ,40.77390 
61 ,13.9666 ,0.98400 ,4.13498 ,40.57243 
62 ,14.2066 ,0.98628 ,4.11787 ,40.40454 
63 ,14.4468 ,0.98866 ,4.07680 ,40.00160 
64 ,14.7032 ,0.99120 ,4.05285 ,39.76655 
65 ,14.9115 ,0.99337 ,4.05285 ,39.76655 
66 ,15.1194 ,0.99557 ,4.02889 ,39.53150 
67 ,15.3432 ,0.99770 ,4.00494 ,39.29646 
68 ,15.5671 ,0.99990 ,3.98441 ,39.09499 
69 ,15.7758 ,1.00201 ,3.97756 ,39.02783 
70 ,15.9996 ,1.00430 ,3.96045 ,38.85994 
71 ,16.2075 ,1.00644 ,3.91938 ,38.45700 
72 ,16.4160 ,1.00840 ,3.91596 ,38.42342 
73 ,16.6560 ,1.01080 ,3.89885 ,38.25553 
74 ,16.8802 ,1.01303 ,3.87147 ,37.98690 
75 ,17.1043 ,1.01535 ,3.85094 ,37.78543 
76 ,17.3128 ,1.01736 ,3.82699 ,37.55038 
77 ,17.5363 ,1.01965 ,3.82356 ,37.51681 
78 ,17.7923 ,1.02207 ,3.78592 ,37.14744 
79 ,18.0167 ,1.02444 ,3.77565 ,37.04671 
80 ,18.2406 ,1.02663 ,3.74828 ,36.77808 
81 ,18.4647 ,1.02895 ,3.72090 ,36.50946 
82 ,18.6887 ,1.03113 ,3.69694 ,36.27441 
83 ,18.9448 ,1.03364 ,3.67299 ,36.03936 
84 ,19.1530 ,1.03583 ,3.65930 ,35.90505 
85 ,19.3772 ,1.03795 ,3.65930 ,35.90505 
86 ,19.5692 ,1.04004 ,3.62850 ,35.60284 
87 ,19.7774 ,1.04201 ,3.61481 ,35.46853 
88 ,19.9854 ,1.04411 ,3.59086 ,35.23348 
89 ,20.1935 ,1.04615 ,3.59086 ,35.23348 
90 ,20.4014 ,1.04823 ,3.55663 ,34.89770 
91 ,20.6254 ,1.05045 ,3.51899 ,34.52834 
92 ,20.8498 ,1.05273 ,3.49504 ,34.29329 
93 ,21.0737 ,1.05496 ,3.50188 ,34.36045 
94 ,21.2820 ,1.05703 ,3.49161 ,34.25971 
95 ,21.4901 ,1.05928 ,3.47108 ,34.05824 
96 ,21.6981 ,1.06123 ,3.46081 ,33.95751 
97 ,21.9065 ,1.06332 ,3.42317 ,33.58814 
98 ,22.1140 ,1.06536 ,3.39921 ,33.35310 
99 ,22.3223 ,1.06751 ,3.39921 ,33.35310 
100 ,22.5463 ,1.06970 ,3.37868 ,33.15163 
101 ,22.7547 ,1.07181 ,3.34788 ,32.84942 
102 ,22.9785 ,1.07399 ,3.32735 ,32.64795 
103 ,23.1864 ,1.07610 ,3.30682 ,32.44648 
104 ,23.4110 ,1.07833 ,3.29313 ,32.31217 
105 ,23.6351 ,1.08060 ,3.27602 ,32.14428 
106 ,23.8431 ,1.08264 ,3.26233 ,32.00996 
107 ,24.0671 ,1.08487 ,3.23495 ,31.74134 
108 ,24.2753 ,1.08703 ,3.21784 ,31.57345 
109 ,24.5152 ,1.08939 ,3.20415 ,31.43913 
110 ,24.7395 ,1.09162 ,3.18704 ,31.27124 
111 ,24.9476 ,1.09371 ,3.15282 ,30.93546 
112 ,25.1715 ,1.09594 ,3.12544 ,30.66683 
113 ,25.3796 ,1.09798 ,3.13571 ,30.76757 
114 ,25.5877 ,1.10010 ,3.10833 ,30.49894 
115 ,25.8124 ,1.10225 ,3.08095 ,30.23031 
116 ,26.0360 ,1.10461 ,3.06384 ,30.06242 
117 ,26.2440 ,1.10666 ,3.06042 ,30.02884 
118 ,26.4522 ,1.10872 ,3.02620 ,29.69306 
119 ,26.6762 ,1.11096 ,3.02278 ,29.65948 
120 ,26.8843 ,1.11302 ,2.99540 ,29.39086 
121 ,27.0924 ,1.11518 ,2.97144 ,29.15581 
122 ,27.3010 ,1.11723 ,2.97829 ,29.22297 
123 ,27.5245 ,1.11942 ,2.94749 ,28.92076 
124 ,27.7162 ,1.12149 ,2.90985 ,28.55140 
125 ,27.9247 ,1.12345 ,2.90985 ,28.55140 
126 ,28.1488 ,1.12570 ,2.87905 ,28.24919 
127 ,28.3568 ,1.12778 ,2.87905 ,28.24919 
128 ,28.5651 ,1.12985 ,2.87220 ,28.18204 
129 ,28.7886 ,1.13214 ,2.83114 ,27.77910 
130 ,29.0128 ,1.13436 ,2.81060 ,27.57763 
131 ,29.2210 ,1.13641 ,2.80376 ,27.51047 
132 ,29.4291 ,1.13851 ,2.77638 ,27.24185 
133 ,29.6374 ,1.14055 ,2.76611 ,27.14111 
134 ,29.8453 ,1.14267 ,2.75585 ,27.04038 
135 ,30.0854 ,1.14491 ,2.72163 ,26.70459 
136 ,30.3101 ,1.14730 ,2.71136 ,26.60386 
137 ,30.5177 ,1.14938 ,2.70109 ,26.50312 
138 ,30.7254 ,1.15153 ,2.66345 ,26.13376 
139 ,30.9174 ,1.15351 ,2.65660 ,26.06661 
140 ,31.1254 ,1.15539 ,2.64634 ,25.96587 
141 ,31.3339 ,1.15758 ,2.61212 ,25.63009 
142 ,31.5582 ,1.15981 ,2.60185 ,25.52935 
143 ,31.7822 ,1.16199 ,2.60869 ,25.59651 
144 ,31.9904 ,1.16411 ,2.56421 ,25.15999 
145 ,32.2141 ,1.16631 ,2.54025 ,24.92494 
146 ,32.4224 ,1.16839 ,2.55052 ,25.02568 
147 ,32.6304 ,1.17050 ,2.51630 ,24.68989 
148 ,32.8387 ,1.17266 ,2.49918 ,24.52200 
149 ,33.0627 ,1.17482 ,2.49576 ,24.48842 
150 ,33.2705 ,1.17685 ,2.46496 ,24.18622 
151 ,33.4948 ,1.17913 ,2.43759 ,23.91759 
152 ,33.7188 ,1.18139 ,2.43416 ,23.88402 
153 ,33.9432 ,1.18362 ,2.41705 ,23.71612 
154 ,34.1511 ,1.18568 ,2.37941 ,23.34676 
155 ,34.3593 ,1.18782 ,2.37941 ,23.34676 
156 ,34.5833 ,1.19005 ,2.36230 ,23.17887 
157 ,34.8080 ,1.19227 ,2.34177 ,22.97740 
158 ,35.0315 ,1.19448 ,2.31439 ,22.70877 
159 ,35.2395 ,1.19658 ,2.30412 ,22.60804 
160 ,35.4477 ,1.19864 ,2.29043 ,22.47373 
161 ,35.6714 ,1.20084 ,2.25279 ,22.10437 
162 ,35.8960 ,1.20308 ,2.24937 ,22.07079 
163 ,36.0880 ,1.20522 ,2.23910 ,21.97005 
164 ,36.3122 ,1.20725 ,2.21172 ,21.70143 
165 ,36.5203 ,1.20938 ,2.19461 ,21.53353 
166 ,36.7283 ,1.21142 ,2.18092 ,21.39922 
167 ,36.9364 ,1.21359 ,2.16381 ,21.23133 
168 ,37.1442 ,1.21565 ,2.16039 ,21.19775 
169 ,37.3527 ,1.21776 ,2.11590 ,20.76123 
170 ,37.5766 ,1.21993 ,2.10906 ,20.69408 
171 ,37.8003 ,1.22213 ,2.10906 ,20.69408 
172 ,38.0403 ,1.22451 ,2.07826 ,20.39187 
173 ,38.2804 ,1.22694 ,2.07141 ,20.32472 
174 ,38.4890 ,1.22905 ,2.04746 ,20.08967 
175 ,38.7132 ,1.23131 ,2.01324 ,19.75388 
176 ,38.9047 ,1.23334 ,2.02008 ,19.82104 
177 ,39.1133 ,1.23529 ,1.99270 ,19.55241 
178 ,39.3530 ,1.23758 ,1.97559 ,19.38452 
179 ,39.5614 ,1.23977 ,1.97559 ,19.38452 
180 ,39.7856 ,1.24204 ,1.95506 ,19.18305 
181 ,39.9932 ,1.24411 ,1.91057 ,18.74654 
182 ,40.2017 ,1.24622 ,1.91057 ,18.74654 
183 ,40.4096 ,1.24840 ,1.90031 ,18.64580 
184 ,40.6339 ,1.25052 ,1.86266 ,18.27644 
185 ,40.8739 ,1.25281 ,1.85240 ,18.17570 
186 ,41.0816 ,1.25496 ,1.84555 ,18.10855 
187 ,41.3382 ,1.25755 ,1.81475 ,17.80634 
188 ,41.5782 ,1.25990 ,1.79764 ,17.63845 
189 ,41.7863 ,1.26207 ,1.80106 ,17.67203 
190 ,41.9943 ,1.26412 ,1.74973 ,17.16836 
191 ,42.1861 ,1.26616 ,1.76000 ,17.26909 
192 ,42.4105 ,1.26826 ,1.71893 ,16.86615 
193 ,42.6347 ,1.27049 ,1.70866 ,16.76542 
194 ,42.8423 ,1.27259 ,1.70866 ,16.76542 
195 ,43.0668 ,1.27484 ,1.68129 ,16.49679 
196 ,43.2907 ,1.27702 ,1.66418 ,16.32890 
197 ,43.5149 ,1.27931 ,1.65733 ,16.26174 
198 ,43.7390 ,1.28153 ,1.64707 ,16.16101 
199 ,43.9632 ,1.28377 ,1.61284 ,15.82522 
200 ,44.1549 ,1.28584 ,1.58547 ,15.55660 
201 ,44.3791 ,1.28793 ,1.57520 ,15.45586 
202 ,44.6032 ,1.29018 ,1.56836 ,15.38871 
203 ,44.8275 ,1.29233 ,1.53413 ,15.05292 
204 ,45.0516 ,1.29464 ,1.52045 ,14.91861 
205 ,45.2754 ,1.29680 ,1.51702 ,14.88503 
206 ,45.4998 ,1.29913 ,1.50333 ,14.75072 
207 ,45.7397 ,1.30151 ,1.48622 ,14.58283 
208 ,45.9640 ,1.30380 ,1.46911 ,14.41493 
209 ,46.1880 ,1.30601 ,1.43831 ,14.11273 
210 ,46.3961 ,1.30811 ,1.42120 ,13.94484 
211 ,46.6363 ,1.31040 ,1.41094 ,13.84410 
212 ,46.8762 ,1.31291 ,1.40409 ,13.77695 
213 ,47.1005 ,1.31512 ,1.38698 ,13.60906 
214 ,47.3246 ,1.31737 ,1.35618 ,13.30685 
215 ,47.5486 ,1.31950 ,1.33223 ,13.07180 
216 ,47.7406 ,1.32167 ,1.33223 ,13.07180 
217 ,47.9807 ,1.32384 ,1.32196 ,12.97107 
218 ,48.1888 ,1.32604 ,1.29116 ,12.66886 
219 ,48.3967 ,1.32808 ,1.27747 ,12.53455 
220 ,48.6050 ,1.33024 ,1.26720 ,12.43381 
221 ,48.8132 ,1.33237 ,1.24325 ,12.19877 
222 ,49.0211 ,1.33433 ,1.23641 ,12.13161 
223 ,49.2293 ,1.33639 ,1.20218 ,11.79583 
224 ,49.4374 ,1.33849 ,1.20903 ,11.86298 
225 ,49.6615 ,1.34072 ,1.18850 ,11.66151 
226 ,49.8856 ,1.34296 ,1.16454 ,11.42647 
227 ,50.0772 ,1.34503 ,1.15085 ,11.29215 
228 ,50.2697 ,1.34691 ,1.13716 ,11.15784 
229 ,50.4777 ,1.34901 ,1.12005 ,10.98995 
230 ,50.6858 ,1.35101 ,1.10294 ,10.82206 
231 ,50.9095 ,1.35317 ,1.08241 ,10.62059 
232 ,51.1178 ,1.35524 ,1.08925 ,10.68774 
233 ,51.3421 ,1.35751 ,1.05161 ,10.31838 
234 ,51.5821 ,1.35989 ,1.04819 ,10.28480 
235 ,51.7903 ,1.36200 ,1.02081 ,10.01618 
236 ,52.0146 ,1.36424 ,1.01396 ,9.94902 
237 ,52.2224 ,1.36631 ,1.00028 ,9.81471 
238 ,52.4626 ,1.36875 ,0.96605 ,9.47892 
239 ,52.7187 ,1.37111 ,0.96948 ,9.51250 
240 ,52.9429 ,1.37348 ,0.94552 ,9.27745 
241 ,53.1507 ,1.37561 ,0.93183 ,9.14314 
242 ,53.3590 ,1.37783 ,0.91472 ,8.97525 
243 ,53.5989 ,1.38010 ,0.90788 ,8.90809 
244 ,53.8232 ,1.38232 ,1.12690 ,11.05710 
245 ,54.0311 ,1.38440 ,1.16796 ,11.46004 
246 ,54.2393 ,1.38653 ,1.18850 ,11.66151 
247 ,54.4634 ,1.38874 ,1.18507 ,11.62794 
248 ,54.7036 ,1.39109 ,1.16112 ,11.39289 
249 ,54.9275 ,1.39339 ,1.15085 ,11.29215 
250 ,55.1516 ,1.39560 ,1.12347 ,11.02353 
251 ,55.3594 ,1.39769 ,1.14058 ,11.19142 
252 ,55.5838 ,1.39992 ,1.13032 ,11.09068 
253 ,55.8083 ,1.40217 ,1.09952 ,10.78848 
254 ,56.0319 ,1.40446 ,1.09952 ,10.78848 
255 ,56.2399 ,1.40648 ,1.09952 ,10.78848 
256 ,56.4641 ,1.40873 ,1.07556 ,10.55343 
257 ,56.6721 ,1.41077 ,1.08583 ,10.65416 
258 ,56.8801 ,1.41291 ,1.09610 ,10.75490 
259 ,57.1044 ,1.41514 ,1.06872 ,10.48627 
260 ,57.3126 ,1.41724 ,1.05503 ,10.35196 
261 ,57.5368 ,1.41947 ,1.06187 ,10.41912 
262 ,57.7606 ,1.42169 ,1.04134 ,10.21765 
263 ,57.9689 ,1.42377 ,1.01396 ,9.94902 
264 ,58.1928 ,1.42599 ,1.02081 ,10.01618 
265 ,58.4007 ,1.42813 ,1.01739 ,9.98260 
266 ,58.6090 ,1.43015 ,1.00028 ,9.81471 
267 ,58.8171 ,1.43230 ,1.00028 ,9.81471 
268 ,59.0407 ,1.43450 ,1.00712 ,9.88186 
269 ,59.2653 ,1.43663 ,0.96948 ,9.51250 
270 ,59.4895 ,1.43899 ,0.95579 ,9.37819 
271 ,59.6976 ,1.44106 ,0.96948 ,9.51250 
272 ,59.9058 ,1.44317 ,0.95579 ,9.37819 
273 ,60.1292 ,1.44537 ,0.94210 ,9.24388 
274 ,60.3375 ,1.44748 ,0.94552 ,9.27745 
275 ,60.5617 ,1.44971 ,0.92841 ,9.10956 
276 ,60.7698 ,1.45178 ,0.91814 ,9.00883 
277 ,60.9939 ,1.45406 ,0.90788 ,8.90809 
278 ,61.1857 ,1.45605 ,0.90788 ,8.90809 
279 ,61.4101 ,1.45821 ,0.89419 ,8.77378 
280 ,61.6183 ,1.46033 ,0.88734 ,8.70662 
281 ,61.8424 ,1.46248 ,0.89419 ,8.77378 
282 ,62.0503 ,1.46455 ,0.87366 ,8.57231 
283 ,62.2745 ,1.46687 ,0.87366 ,8.57231 
284 ,62.4985 ,1.46906 ,0.88050 ,8.63947 
285 ,62.7228 ,1.47133 ,0.87366 ,8.57231 
286 ,62.9469 ,1.47355 ,0.84628 ,8.30368 
287 ,63.1708 ,1.47580 ,0.84628 ,8.30368 
288 ,63.3790 ,1.47787 ,0.84628 ,8.30368 
289 ,63.6191 ,1.48028 ,0.84286 ,8.27011 
290 ,63.8430 ,1.48252 ,0.83259 ,8.16937 
291 ,64.0832 ,1.48494 ,0.83601 ,8.20295 
292 ,64.3076 ,1.48716 ,0.81206 ,7.96790 
293 ,64.5155 ,1.48923 ,0.80863 ,7.93432 
294 ,64.7394 ,1.49143 ,0.81206 ,7.96790 
295 ,64.9636 ,1.49369 ,0.80863 ,7.93432 
296 ,65.1716 ,1.49576 ,0.78126 ,7.66570 
297 ,65.3795 ,1.49789 ,0.78810 ,7.73285 
298 ,65.6039 ,1.50015 ,0.79152 ,7.76643 
299 ,65.8123 ,1.50222 ,0.77099 ,7.56496 
300 ,66.0361 ,1.50443 ,0.78468 ,7.69927 
301 ,66.2599 ,1.50665 ,0.79152 ,7.76643 
302 ,66.4683 ,1.50876 ,0.77784 ,7.63212 
303 ,66.6923 ,1.51095 ,0.75388 ,7.39707 
304 ,66.9003 ,1.51310 ,0.77441 ,7.59854 
305 ,67.1086 ,1.51514 ,0.75730 ,7.43065 
306 ,67.3323 ,1.51743 ,0.74704 ,7.32991 
307 ,67.5405 ,1.51956 ,0.75046 ,7.36349 
308 ,67.7487 ,1.52153 ,0.74704 ,7.32991 
309 ,67.9564 ,1.52360 ,0.75046 ,7.36349 
310 ,68.1487 ,1.52568 ,0.73677 ,7.22918 
311 ,68.3729 ,1.52774 ,0.72650 ,7.12844 
312 ,68.5971 ,1.52989 ,0.74704 ,7.32991 
313 ,68.8210 ,1.53230 ,0.73677 ,7.22918 
314 ,69.0287 ,1.53447 ,0.74019 ,7.26276 
315 ,69.2532 ,1.53658 ,0.70939 ,6.96055 
316 ,69.4775 ,1.53886 ,0.71281 ,6.99413 
317 ,69.6856 ,1.54093 ,0.71966 ,7.06129 
318 ,69.9096 ,1.54313 ,0.71281 ,6.99413 
319 ,70.1174 ,1.54521 ,0.70255 ,6.89340 
320 ,70.3418 ,1.54752 ,0.71966 ,7.06129 
321 ,70.5656 ,1.54970 ,0.70597 ,6.92697 
322 ,70.7738 ,1.55179 ,0.69228 ,6.79266 
323 ,70.9981 ,1.55400 ,0.68544 ,6.72550 
324 ,71.2221 ,1.55625 ,0.68886 ,6.75908 
325 ,71.4784 ,1.55871 ,0.69228 ,6.79266 
326 ,71.7024 ,1.56103 ,0.69570 ,6.82624 
327 ,71.9263 ,1.56333 ,0.67517 ,6.62477 
328 ,72.1345 ,1.56540 ,0.66833 ,6.55761 
329 ,72.3588 ,1.56759 ,0.66490 ,6.52403 
330 ,72.5827 ,1.56992 ,0.68544 ,6.72550 
331 ,72.7906 ,1.57205 ,0.67859 ,6.65835 
332 ,73.0151 ,1.57416 ,0.65464 ,6.42330 
333 ,73.2069 ,1.57624 ,0.67517 ,6.62477 
334 ,73.4311 ,1.57826 ,0.66490 ,6.52403 
335 ,73.6711 ,1.58072 ,0.64095 ,6.28899 
336 ,73.8950 ,1.58295 ,0.65464 ,6.42330 
337 ,74.0869 ,1.58500 ,0.66833 ,6.55761 
338 ,74.3111 ,1.58719 ,0.65121 ,6.38972 
339 ,74.5351 ,1.58944 ,0.65464 ,6.42330 
340 ,74.8076 ,1.59202 ,0.64779 ,6.35614 
341 ,75.0799 ,1.59478 ,0.62726 ,6.15467 
342 ,75.3043 ,1.59707 ,0.63068 ,6.18825 
343 ,75.5280 ,1.59926 ,0.64779 ,6.35614 
344 ,75.7359 ,1.60143 ,0.62726 ,6.15467 
345 ,75.9920 ,1.60389 ,0.62726 ,6.15467 
346 ,76.2163 ,1.60617 ,0.60330 ,5.91962 
347 ,76.4083 ,1.60819 ,0.62384 ,6.12109 
348 ,76.6485 ,1.61037 ,0.63068 ,6.18825 
349 ,76.8565 ,1.61260 ,0.61357 ,6.02036 
350 ,77.0967 ,1.61486 ,0.63068 ,6.18825 
351 ,77.3205 ,1.61723 ,0.61015 ,5.98678 
352 ,77.5449 ,1.61949 ,0.62726 ,6.15467 
353 ,77.7689 ,1.62171 ,0.63068 ,6.18825 
354 ,77.9768 ,1.62378 ,0.59988 ,5.88605 
355 ,78.2167 ,1.62608 ,0.62384 ,6.12109 
356 ,78.4253 ,1.62825 ,0.62384 ,6.12109 
357 ,78.6652 ,1.63054 ,0.62384 ,6.12109 
358 ,78.8892 ,1.63296 ,0.61699 ,6.05394 
359 ,79.1132 ,1.63501 ,0.60330 ,5.91962 
360 ,79.3374 ,1.63739 ,0.61015 ,5.98678 
361 ,79.5615 ,1.63962 ,0.62384 ,6.12109 
362 ,79.7697 ,1.64173 ,0.64437 ,6.32256 
363 ,79.9778 ,1.64390 ,0.63410 ,6.22183 
364 ,80.2017 ,1.64599 ,0.61699 ,6.05394 
365 ,80.4256 ,1.64828 ,0.64779 ,6.35614 
366 ,80.6500 ,1.65051 ,0.63410 ,6.22183 
367 ,80.8583 ,1.65259 ,0.62726 ,6.15467 
368 ,81.0822 ,1.65481 ,0.61015 ,5.98678 
369 ,81.2901 ,1.65691 ,0.64095 ,6.28899 
370 ,81.4983 ,1.65903 ,0.62726 ,6.15467 
371 ,81.7067 ,1.66107 ,0.63410 ,6.22183 
372 ,81.8987 ,1.66313 ,0.63410 ,6.22183 
373 ,82.1229 ,1.66524 ,0.62384 ,6.12109 
374 ,82.3465 ,1.66747 ,0.63410 ,6.22183 
375 ,82.5384 ,1.66947 ,0.62726 ,6.15467 
376 ,82.7468 ,1.67151 ,0.64095 ,6.28899 
377 ,82.9710 ,1.67367 ,0.64095 ,6.28899 
378 ,83.1792 ,1.67580 ,0.62384 ,6.12109 
379 ,83.4032 ,1.67805 ,0.63410 ,6.22183 
380 ,83.6270 ,1.68027 ,0.65464 ,6.42330 
381 ,83.8353 ,1.68240 ,0.63410 ,6.22183 
382 ,84.0594 ,1.68457 ,0.61699 ,6.05394 
383 ,84.2675 ,1.68680 ,0.61699 ,6.05394 
384 ,84.4755 ,1.68871 ,0.61699 ,6.05394 
385 ,84.6834 ,1.69085 ,0.62042 ,6.08752 
386 ,84.9239 ,1.69314 ,0.64779 ,6.35614 
387 ,85.1478 ,1.69547 ,0.68544 ,6.72550 
388 ,85.3561 ,1.69753 ,0.69570 ,6.82624 
389 ,85.6279 ,1.70006 ,0.69228 ,6.79266 
390 ,85.8197 ,1.70228 ,0.69913 ,6.85982 
391 ,86.0444 ,1.70442 ,0.67517 ,6.62477 
392 ,86.2684 ,1.70670 ,0.69570 ,6.82624 
393 ,86.4923 ,1.70882 ,0.68886 ,6.75908 
394 ,86.7166 ,1.71116 ,0.69570 ,6.82624 
395 ,86.9244 ,1.71326 ,0.68544 ,6.72550 
396 ,87.1646 ,1.71562 ,0.67859 ,6.65835 
397 ,87.3886 ,1.71785 ,0.71624 ,7.02771 
398 ,87.6129 ,1.72008 ,0.70255 ,6.89340 
399 ,87.8049 ,1.72213 ,0.68886 ,6.75908 
400 ,88.0291 ,1.72425 ,0.69228 ,6.79266 
401 ,88.2531 ,1.72653 ,0.69228 ,6.79266 
402 ,88.4612 ,1.72871 ,0.69228 ,6.79266 
403 ,88.6854 ,1.73080 ,0.68886 ,6.75908 
404 ,88.9254 ,1.73309 ,0.69913 ,6.85982 
405 ,89.1496 ,1.73545 ,0.69913 ,6.85982 
406 ,89.3896 ,1.73777 ,0.71966 ,7.06129 
407 ,89.6298 ,1.74018 ,0.69913 ,6.85982 
408 ,89.8379 ,1.74238 ,0.69913 ,6.85982 
409 ,90.0619 ,1.74455 ,0.68544 ,6.72550 
410 ,90.2861 ,1.74684 ,0.69228 ,6.79266 
411 ,90.5103 ,1.74911 ,0.70597 ,6.92697 
412 ,90.7497 ,1.75149 ,0.70939 ,6.96055 
413 ,90.9578 ,1.75357 ,0.69570 ,6.82624 
414 ,91.1660 ,1.75560 ,0.68201 ,6.69193 
415 ,91.3584 ,1.75768 ,0.70597 ,6.92697 
416 ,91.5982 ,1.75985 ,0.68544 ,6.72550 
417 ,91.8226 ,1.76217 ,0.68544 ,6.72550 
418 ,92.0305 ,1.76440 ,0.67859 ,6.65835 
419 ,92.2388 ,1.76637 ,0.69228 ,6.79266 
420 ,92.4469 ,1.76842 ,0.69570 ,6.82624 
421 ,92.6866 ,1.77074 ,0.69228 ,6.79266 
422 ,92.9110 ,1.77310 ,0.68886 ,6.75908 
423 ,93.1192 ,1.77513 ,0.68886 ,6.75908 
424 ,93.3273 ,1.77724 ,0.68544 ,6.72550 
425 ,93.5351 ,1.77928 ,0.70255 ,6.89340 
426 ,93.7591 ,1.78154 ,0.69228 ,6.79266 
427 ,93.9675 ,1.78363 ,0.68544 ,6.72550 
428 ,94.1755 ,1.78571 ,0.70597 ,6.92697 
429 ,94.3997 ,1.78791 ,0.69913 ,6.85982 
430 ,94.6075 ,1.79005 ,0.68201 ,6.69193 
431 ,94.8154 ,1.79211 ,0.69913 ,6.85982 
432 ,95.0559 ,1.79437 ,0.68886 ,6.75908 
433 ,95.2800 ,1.79677 ,0.68544 ,6.72550 
434 ,95.4879 ,1.79884 ,0.68201 ,6.69193 
435 ,95.7123 ,1.80106 ,0.68886 ,6.75908 
436 ,95.9198 ,1.80314 ,0.69913 ,6.85982 
437 ,96.1764 ,1.80563 ,0.70597 ,6.92697 
438 ,96.3845 ,1.80779 ,0.68886 ,6.75908 
439 ,96.5924 ,1.80985 ,0.70255 ,6.89340 
440 ,96.8004 ,1.81195 ,0.70597 ,6.92697 
441 ,97.0082 ,1.81407 ,0.67859 ,6.65835 
442 ,97.2328 ,1.81622 ,0.69570 ,6.82624 
443 ,97.4566 ,1.81851 ,0.70255 ,6.89340 
444 ,97.6807 ,1.82074 ,0.68886 ,6.75908 
445 ,97.8889 ,1.82280 ,0.68886 ,6.75908 
446 ,98.1286 ,1.82522 ,0.69913 ,6.85982 
447 ,98.3527 ,1.82745 ,0.69228 ,6.79266 
448 ,98.5927 ,1.82974 ,0.69913 ,6.85982 
449 ,98.8169 ,1.83213 ,0.69228 ,6.79266 
450 ,99.0730 ,1.83467 ,0.69228 ,6.79266 
451 ,99.2810 ,1.83678 ,0.69228 ,6.79266 
452 ,99.4897 ,1.83882 ,0.68201 ,6.69193 
453 ,99.6972 ,1.84091 ,0.69913 ,6.85982 
454 ,99.9218 ,1.84318 ,0.68886 ,6.75908 
455 ,100.1454 ,1.84535 ,0.67517 ,6.62477 
456 ,100.3696 ,1.84757 ,0.68544 ,6.72550 
457 ,100.6418 ,1.85032 ,0.70597 ,6.92697 
458 ,100.8500 ,1.85257 ,0.68886 ,6.75908 
459 ,101.0741 ,1.85468 ,0.69570 ,6.82624 
460 ,101.2984 ,1.85680 ,0.69228 ,6.79266 
461 ,101.5220 ,1.85916 ,0.70255 ,6.89340 
462 ,101.7626 ,1.86143 ,0.68886 ,6.75908 
463 ,101.9866 ,1.86381 ,0.67517 ,6.62477 
464 ,102.1786 ,1.86582 ,0.70255 ,6.89340 
465 ,102.4028 ,1.86797 ,0.69913 ,6.85982 
466 ,102.6264 ,1.87019 ,0.68201 ,6.69193 
467 ,102.8509 ,1.87241 ,0.68544 ,6.72550 
