Data stamp = , 02-06-2022 13:33:21 062

Calibration Values: 
Slope = , 26.54 , g/V 
Offset Voltage at no contact = , -0.501760 , V 

No , Time , Stage Position ,   Mass , Force 
   ,  (s) ,      (mm)      ,   (g)  , (mN)  

1 ,0.0000 ,0.84964 ,5.39434 ,52.92925 
2 ,0.2231 ,0.84974 ,5.38407 ,52.82851 
3 ,0.6558 ,0.85107 ,5.39092 ,52.89567 
4 ,0.8956 ,0.85327 ,5.39092 ,52.89567 
5 ,1.1196 ,0.85554 ,5.38407 ,52.82851 
6 ,1.3435 ,0.85774 ,5.38407 ,52.82851 
7 ,1.5836 ,0.86018 ,5.37723 ,52.76135 
8 ,1.7917 ,0.86239 ,5.34985 ,52.49273 
9 ,2.0159 ,0.86459 ,5.30194 ,52.02263 
10 ,2.2239 ,0.86665 ,5.31563 ,52.15694 
11 ,2.4486 ,0.86892 ,5.28483 ,51.85474 
12 ,2.6724 ,0.87115 ,5.25061 ,51.51896 
13 ,2.8968 ,0.87337 ,5.22323 ,51.25033 
14 ,3.1050 ,0.87547 ,5.23692 ,51.38464 
15 ,3.3445 ,0.87784 ,5.19927 ,51.01528 
16 ,3.5690 ,0.88004 ,5.17532 ,50.78023 
17 ,3.7929 ,0.88232 ,5.13768 ,50.41087 
18 ,4.0009 ,0.88439 ,5.12056 ,50.24298 
19 ,4.2090 ,0.88644 ,5.11030 ,50.14225 
20 ,4.4173 ,0.88858 ,5.07608 ,49.80646 
21 ,4.6575 ,0.89081 ,5.06923 ,49.73931 
22 ,4.8816 ,0.89325 ,5.03159 ,49.36995 
23 ,5.1057 ,0.89545 ,5.02817 ,49.33637 
24 ,5.3138 ,0.89750 ,4.98710 ,48.93343 
25 ,5.5219 ,0.89957 ,4.96999 ,48.76554 
26 ,5.7456 ,0.90182 ,4.96315 ,48.69838 
27 ,5.9540 ,0.90389 ,4.91866 ,48.26186 
28 ,6.1782 ,0.90616 ,4.90497 ,48.12755 
29 ,6.3857 ,0.90823 ,4.90497 ,48.12755 
30 ,6.5941 ,0.91033 ,4.85706 ,47.65745 
31 ,6.8022 ,0.91239 ,4.85364 ,47.62387 
32 ,7.0102 ,0.91447 ,4.82968 ,47.38883 
33 ,7.2184 ,0.91654 ,4.80573 ,47.15378 
34 ,7.4267 ,0.91864 ,4.80573 ,47.15378 
35 ,7.6507 ,0.92094 ,4.76808 ,46.78442 
36 ,7.8583 ,0.92288 ,4.74755 ,46.58295 
37 ,8.0668 ,0.92505 ,4.73044 ,46.41506 
38 ,8.2750 ,0.92715 ,4.69964 ,46.11285 
39 ,8.4993 ,0.92935 ,4.67568 ,45.87780 
40 ,8.7068 ,0.93147 ,4.67226 ,45.84422 
41 ,8.9151 ,0.93356 ,4.64146 ,45.54202 
42 ,9.1553 ,0.93587 ,4.61751 ,45.30697 
43 ,9.3793 ,0.93817 ,4.59355 ,45.07192 
44 ,9.5876 ,0.94023 ,4.59697 ,45.10550 
45 ,9.8115 ,0.94248 ,4.57644 ,44.90403 
46 ,10.0033 ,0.94454 ,4.53880 ,44.53467 
47 ,10.2439 ,0.94668 ,4.52169 ,44.36678 
48 ,10.4679 ,0.94901 ,4.51484 ,44.29962 
49 ,10.6920 ,0.95124 ,4.49089 ,44.06457 
50 ,10.8999 ,0.95336 ,4.46351 ,43.79595 
51 ,11.1083 ,0.95549 ,4.44982 ,43.66163 
52 ,11.3321 ,0.95775 ,4.40875 ,43.25870 
53 ,11.5562 ,0.95990 ,4.39164 ,43.09080 
54 ,11.7644 ,0.96194 ,4.39164 ,43.09080 
55 ,11.9562 ,0.96404 ,4.37111 ,42.88933 
56 ,12.1646 ,0.96598 ,4.35400 ,42.72144 
57 ,12.3728 ,0.96811 ,4.31978 ,42.38566 
58 ,12.5966 ,0.97030 ,4.30267 ,42.21777 
59 ,12.8049 ,0.97236 ,4.28556 ,42.04988 
60 ,13.0126 ,0.97446 ,4.26845 ,41.88198 
61 ,13.2208 ,0.97653 ,4.25133 ,41.71409 
62 ,13.4287 ,0.97865 ,4.23765 ,41.57978 
63 ,13.6373 ,0.98076 ,4.21027 ,41.31115 
64 ,13.8611 ,0.98302 ,4.19316 ,41.14326 
65 ,14.1014 ,0.98515 ,4.17947 ,41.00895 
66 ,14.3256 ,0.98761 ,4.16236 ,40.84106 
67 ,14.5172 ,0.98968 ,4.12814 ,40.50527 
68 ,14.7415 ,0.99176 ,4.11787 ,40.40454 
69 ,14.9658 ,0.99402 ,4.09734 ,40.20307 
70 ,15.1739 ,0.99605 ,4.06996 ,39.93444 
71 ,15.3977 ,0.99829 ,4.04600 ,39.69940 
72 ,15.6061 ,1.00034 ,4.04943 ,39.73297 
73 ,15.8298 ,1.00262 ,4.02547 ,39.49793 
74 ,16.0383 ,1.00474 ,3.99125 ,39.16214 
75 ,16.2618 ,1.00694 ,3.98098 ,39.06141 
76 ,16.4704 ,1.00901 ,3.95703 ,38.82636 
77 ,16.6942 ,1.01131 ,3.93650 ,38.62489 
78 ,16.8865 ,1.01334 ,3.92623 ,38.52415 
79 ,17.0947 ,1.01529 ,3.88858 ,38.15479 
80 ,17.3189 ,1.01751 ,3.86805 ,37.95332 
81 ,17.5264 ,1.01963 ,3.87490 ,38.02048 
82 ,17.7346 ,1.02176 ,3.83383 ,37.61754 
83 ,17.9426 ,1.02383 ,3.83041 ,37.58396 
84 ,18.1667 ,1.02597 ,3.81672 ,37.44965 
85 ,18.3588 ,1.02804 ,3.77223 ,37.01313 
86 ,18.5669 ,1.03000 ,3.78592 ,37.14744 
87 ,18.7913 ,1.03226 ,3.75854 ,36.87882 
88 ,19.0151 ,1.03453 ,3.72774 ,36.57661 
89 ,19.2396 ,1.03672 ,3.70037 ,36.30799 
90 ,19.4636 ,1.03892 ,3.68325 ,36.14010 
91 ,19.6715 ,1.04103 ,3.66614 ,35.97220 
92 ,19.8798 ,1.04310 ,3.64903 ,35.80431 
93 ,20.0880 ,1.04532 ,3.64219 ,35.73716 
94 ,20.3439 ,1.04776 ,3.62508 ,35.56926 
95 ,20.5680 ,1.04997 ,3.60454 ,35.36779 
96 ,20.7762 ,1.05209 ,3.57375 ,35.06559 
97 ,21.0001 ,1.05431 ,3.53610 ,34.69623 
98 ,21.2082 ,1.05641 ,3.53952 ,34.72981 
99 ,21.4323 ,1.05868 ,3.50188 ,34.36045 
100 ,21.6405 ,1.06069 ,3.49504 ,34.29329 
101 ,21.8487 ,1.06282 ,3.47792 ,34.12540 
102 ,22.0567 ,1.06489 ,3.45739 ,33.92393 
103 ,22.2807 ,1.06712 ,3.43001 ,33.65530 
104 ,22.4889 ,1.06916 ,3.43344 ,33.68888 
105 ,22.6970 ,1.07125 ,3.38553 ,33.21878 
106 ,22.9051 ,1.07336 ,3.39579 ,33.31952 
107 ,23.1132 ,1.07547 ,3.37184 ,33.08447 
108 ,23.3211 ,1.07756 ,3.34446 ,32.81584 
109 ,23.5288 ,1.07961 ,3.33762 ,32.74869 
110 ,23.7372 ,1.08167 ,3.30339 ,32.41290 
111 ,23.9776 ,1.08391 ,3.28628 ,32.24501 
112 ,24.2016 ,1.08627 ,3.27602 ,32.14428 
113 ,24.4096 ,1.08839 ,3.25891 ,31.97639 
114 ,24.6334 ,1.09060 ,3.22468 ,31.64060 
115 ,24.8417 ,1.09279 ,3.21100 ,31.50629 
116 ,25.0979 ,1.09505 ,3.20073 ,31.40555 
117 ,25.3220 ,1.09753 ,3.16993 ,31.10335 
118 ,25.5459 ,1.09974 ,3.16993 ,31.10335 
119 ,25.7379 ,1.10182 ,3.13571 ,30.76757 
120 ,25.9466 ,1.10372 ,3.11860 ,30.59968 
121 ,26.1544 ,1.10585 ,3.10491 ,30.46536 
122 ,26.3785 ,1.10811 ,3.06726 ,30.09600 
123 ,26.5864 ,1.11015 ,3.07069 ,30.12958 
124 ,26.7945 ,1.11219 ,3.04331 ,29.86095 
125 ,27.0348 ,1.11453 ,3.03647 ,29.79380 
126 ,27.2429 ,1.11671 ,3.02278 ,29.65948 
127 ,27.4509 ,1.11882 ,3.00567 ,29.49159 
128 ,27.6589 ,1.12083 ,2.96802 ,29.12223 
129 ,27.8671 ,1.12297 ,2.97144 ,29.15581 
130 ,28.0751 ,1.12501 ,2.93380 ,28.78645 
131 ,28.2994 ,1.12727 ,2.90642 ,28.51782 
132 ,28.5231 ,1.12947 ,2.89616 ,28.41709 
133 ,28.7315 ,1.13159 ,2.88931 ,28.34993 
134 ,28.9393 ,1.13382 ,2.86193 ,28.08130 
135 ,29.1477 ,1.13570 ,2.86193 ,28.08130 
136 ,29.3718 ,1.13796 ,2.84825 ,27.94699 
137 ,29.5957 ,1.14023 ,2.81060 ,27.57763 
138 ,29.8041 ,1.14227 ,2.79007 ,27.37616 
139 ,30.0282 ,1.14455 ,2.77980 ,27.27542 
140 ,30.2357 ,1.14666 ,2.75585 ,27.04038 
141 ,30.4442 ,1.14874 ,2.74558 ,26.93964 
142 ,30.6523 ,1.15078 ,2.72505 ,26.73817 
143 ,30.8761 ,1.15303 ,2.70109 ,26.50312 
144 ,31.0846 ,1.15510 ,2.69767 ,26.46954 
145 ,31.2922 ,1.15721 ,2.67372 ,26.23450 
146 ,31.5007 ,1.15928 ,2.64634 ,25.96587 
147 ,31.7088 ,1.16140 ,2.63607 ,25.86514 
148 ,31.9170 ,1.16346 ,2.60185 ,25.52935 
149 ,32.1249 ,1.16549 ,2.60185 ,25.52935 
150 ,32.3170 ,1.16760 ,2.58816 ,25.39504 
151 ,32.5411 ,1.16969 ,2.55394 ,25.05926 
152 ,32.7649 ,1.17190 ,2.55052 ,25.02568 
153 ,32.9728 ,1.17403 ,2.52998 ,24.82421 
154 ,33.1969 ,1.17622 ,2.49918 ,24.52200 
155 ,33.4049 ,1.17838 ,2.48207 ,24.35411 
156 ,33.6135 ,1.18040 ,2.47523 ,24.28696 
157 ,33.8216 ,1.18250 ,2.45127 ,24.05191 
158 ,34.0297 ,1.18460 ,2.45470 ,24.08549 
159 ,34.2537 ,1.18681 ,2.41363 ,23.68255 
160 ,34.4619 ,1.18887 ,2.39994 ,23.54823 
161 ,34.6859 ,1.19109 ,2.38968 ,23.44750 
162 ,34.8940 ,1.19316 ,2.37256 ,23.27961 
163 ,35.1178 ,1.19546 ,2.33834 ,22.94382 
164 ,35.3263 ,1.19748 ,2.33492 ,22.91024 
165 ,35.5499 ,1.19977 ,2.32465 ,22.80951 
166 ,35.7580 ,1.20180 ,2.30412 ,22.60804 
167 ,35.9666 ,1.20396 ,2.28017 ,22.37299 
168 ,36.1746 ,1.20604 ,2.26648 ,22.23868 
169 ,36.3826 ,1.20810 ,2.24594 ,22.03721 
170 ,36.5906 ,1.21017 ,2.25621 ,22.13794 
171 ,36.8145 ,1.21240 ,2.22883 ,21.86932 
172 ,37.0548 ,1.21477 ,2.19803 ,21.56711 
173 ,37.2628 ,1.21693 ,2.17750 ,21.36564 
174 ,37.4710 ,1.21892 ,2.17408 ,21.33206 
175 ,37.6951 ,1.22127 ,2.15697 ,21.16417 
176 ,37.9032 ,1.22321 ,2.12275 ,20.82839 
177 ,38.1274 ,1.22554 ,2.11932 ,20.79481 
178 ,38.3518 ,1.22776 ,2.10564 ,20.66050 
179 ,38.5591 ,1.22984 ,2.07141 ,20.32472 
180 ,38.7674 ,1.23188 ,2.07141 ,20.32472 
181 ,38.9752 ,1.23411 ,2.03377 ,19.95535 
182 ,39.1833 ,1.23607 ,2.02693 ,19.88820 
183 ,39.3915 ,1.23814 ,2.02693 ,19.88820 
184 ,39.6160 ,1.24031 ,1.98244 ,19.45168 
185 ,39.8400 ,1.24265 ,1.96533 ,19.28379 
186 ,40.0642 ,1.24491 ,1.95848 ,19.21663 
187 ,40.2883 ,1.24714 ,1.96533 ,19.28379 
188 ,40.4962 ,1.24917 ,1.92084 ,18.84727 
189 ,40.6884 ,1.25121 ,1.91057 ,18.74654 
190 ,40.8963 ,1.25319 ,1.89688 ,18.61222 
191 ,41.1367 ,1.25551 ,1.86951 ,18.34360 
192 ,41.3443 ,1.25767 ,1.85240 ,18.17570 
193 ,41.5367 ,1.25977 ,1.85240 ,18.17570 
194 ,41.7449 ,1.26165 ,1.82160 ,17.87350 
195 ,41.9531 ,1.26376 ,1.80791 ,17.73919 
196 ,42.1609 ,1.26583 ,1.78053 ,17.47056 
197 ,42.3692 ,1.26794 ,1.78053 ,17.47056 
198 ,42.6093 ,1.27032 ,1.77369 ,17.40340 
199 ,42.8329 ,1.27249 ,1.74289 ,17.10120 
200 ,43.0414 ,1.27462 ,1.71209 ,16.79899 
201 ,43.2656 ,1.27680 ,1.70182 ,16.69826 
202 ,43.4736 ,1.27901 ,1.70182 ,16.69826 
203 ,43.6977 ,1.28122 ,1.65733 ,16.26174 
204 ,43.9218 ,1.28345 ,1.65049 ,16.19458 
205 ,44.1458 ,1.28571 ,1.63338 ,16.02669 
206 ,44.3697 ,1.28794 ,1.63680 ,16.06027 
207 ,44.5938 ,1.29014 ,1.61284 ,15.82522 
208 ,44.8342 ,1.29243 ,1.58547 ,15.55660 
209 ,45.0582 ,1.29481 ,1.55467 ,15.25439 
210 ,45.2663 ,1.29692 ,1.55467 ,15.25439 
211 ,45.4743 ,1.29899 ,1.54440 ,15.15366 
212 ,45.6825 ,1.30101 ,1.49991 ,14.71714 
213 ,45.9065 ,1.30326 ,1.51018 ,14.81787 
214 ,46.1306 ,1.30546 ,1.49307 ,14.64998 
215 ,46.3386 ,1.30756 ,1.46227 ,14.34778 
216 ,46.5469 ,1.30967 ,1.46227 ,14.34778 
217 ,46.7709 ,1.31187 ,1.44174 ,14.14631 
218 ,46.9949 ,1.31403 ,1.41436 ,13.87768 
219 ,47.2193 ,1.31642 ,1.41094 ,13.84410 
220 ,47.4272 ,1.31851 ,1.40067 ,13.74337 
221 ,47.6511 ,1.32075 ,1.38356 ,13.57548 
222 ,47.8912 ,1.32311 ,1.35618 ,13.30685 
223 ,48.1157 ,1.32540 ,1.33565 ,13.10538 
224 ,48.3396 ,1.32756 ,1.31512 ,12.90391 
225 ,48.5478 ,1.32967 ,1.30485 ,12.80318 
226 ,48.7718 ,1.33190 ,1.29458 ,12.70244 
227 ,48.9797 ,1.33403 ,1.26720 ,12.43381 
228 ,49.1879 ,1.33610 ,1.27063 ,12.46739 
229 ,49.4122 ,1.33833 ,1.25352 ,12.29950 
230 ,49.6363 ,1.34053 ,1.22956 ,12.06445 
231 ,49.8444 ,1.34264 ,1.19192 ,11.69509 
232 ,50.0520 ,1.34476 ,1.19192 ,11.69509 
233 ,50.2603 ,1.34675 ,1.16454 ,11.42647 
234 ,50.4685 ,1.34884 ,1.16796 ,11.46004 
235 ,50.6765 ,1.35095 ,1.15770 ,11.35931 
236 ,50.8848 ,1.35301 ,1.12005 ,10.98995 
237 ,51.1090 ,1.35528 ,1.11663 ,10.95637 
238 ,51.3325 ,1.35749 ,1.10636 ,10.85563 
239 ,51.5406 ,1.35964 ,1.08241 ,10.62059 
240 ,51.7491 ,1.36165 ,1.07556 ,10.55343 
241 ,51.9732 ,1.36395 ,1.05845 ,10.38554 
242 ,52.1813 ,1.36605 ,1.04134 ,10.21765 
243 ,52.3890 ,1.36812 ,1.02423 ,10.04976 
244 ,52.5975 ,1.37013 ,1.02423 ,10.04976 
245 ,52.8215 ,1.37236 ,0.98317 ,9.64682 
246 ,53.0295 ,1.37443 ,0.98317 ,9.64682 
247 ,53.2375 ,1.37657 ,1.24667 ,12.23235 
248 ,53.4614 ,1.37876 ,1.22956 ,12.06445 
249 ,53.6861 ,1.38102 ,1.22614 ,12.03088 
250 ,53.9099 ,1.38331 ,1.23298 ,12.09803 
251 ,54.1181 ,1.38533 ,1.22614 ,12.03088 
252 ,54.3263 ,1.38745 ,1.19534 ,11.72867 
253 ,54.5344 ,1.38952 ,1.21587 ,11.93014 
254 ,54.7743 ,1.39186 ,1.17823 ,11.56078 
255 ,54.9982 ,1.39415 ,1.18507 ,11.62794 
256 ,55.2064 ,1.39621 ,1.15770 ,11.35931 
257 ,55.4147 ,1.39831 ,1.17481 ,11.52720 
258 ,55.6387 ,1.40055 ,1.15427 ,11.32573 
259 ,55.8467 ,1.40266 ,1.14401 ,11.22500 
260 ,56.0709 ,1.40487 ,1.14058 ,11.19142 
261 ,56.2791 ,1.40698 ,1.12347 ,11.02353 
262 ,56.5032 ,1.40919 ,1.09267 ,10.72132 
263 ,56.7272 ,1.41144 ,1.09952 ,10.78848 
264 ,56.9512 ,1.41376 ,1.10294 ,10.82206 
265 ,57.1754 ,1.41594 ,1.08583 ,10.65416 
266 ,57.3835 ,1.41803 ,1.06187 ,10.41912 
267 ,57.5916 ,1.42014 ,1.06530 ,10.45270 
268 ,57.8158 ,1.42239 ,1.05503 ,10.35196 
269 ,58.0556 ,1.42464 ,1.04819 ,10.28480 
270 ,58.2794 ,1.42699 ,1.04476 ,10.25123 
271 ,58.4880 ,1.42908 ,1.03108 ,10.11691 
272 ,58.7121 ,1.43123 ,1.03108 ,10.11691 
273 ,58.9200 ,1.43338 ,1.03108 ,10.11691 
274 ,59.2243 ,1.43598 ,1.00712 ,9.88186 
275 ,59.4485 ,1.43867 ,0.99343 ,9.74755 
276 ,59.6564 ,1.44076 ,1.00712 ,9.88186 
277 ,59.8646 ,1.44278 ,0.98317 ,9.64682 
278 ,60.0726 ,1.44489 ,0.97974 ,9.61324 
279 ,60.2965 ,1.44712 ,0.97632 ,9.57966 
280 ,60.5047 ,1.44926 ,0.95579 ,9.37819 
281 ,60.7129 ,1.45133 ,0.95921 ,9.41177 
282 ,60.9209 ,1.45336 ,0.95237 ,9.34461 
283 ,61.1292 ,1.45543 ,0.93525 ,9.17672 
284 ,61.3528 ,1.45767 ,0.94210 ,9.24388 
285 ,61.5772 ,1.45992 ,0.93525 ,9.17672 
286 ,61.7853 ,1.46199 ,0.91472 ,8.97525 
287 ,62.0097 ,1.46423 ,0.90788 ,8.90809 
288 ,62.2336 ,1.46646 ,0.90788 ,8.90809 
289 ,62.4576 ,1.46871 ,0.91472 ,8.97525 
290 ,62.6658 ,1.47079 ,0.87708 ,8.60589 
291 ,62.8738 ,1.47283 ,0.89761 ,8.80736 
292 ,63.0819 ,1.47490 ,0.88050 ,8.63947 
293 ,63.2897 ,1.47704 ,0.86681 ,8.50515 
294 ,63.4977 ,1.47907 ,0.87366 ,8.57231 
295 ,63.7063 ,1.48123 ,0.85312 ,8.37084 
296 ,63.9144 ,1.48333 ,0.84970 ,8.33726 
297 ,64.1224 ,1.48534 ,0.84628 ,8.30368 
298 ,64.3465 ,1.48754 ,0.83259 ,8.16937 
299 ,64.5701 ,1.48978 ,0.83601 ,8.20295 
300 ,64.7787 ,1.49194 ,0.84628 ,8.30368 
301 ,65.0026 ,1.49421 ,0.82917 ,8.13579 
302 ,65.2106 ,1.49620 ,0.82575 ,8.10221 
303 ,65.4348 ,1.49844 ,0.82575 ,8.10221 
304 ,65.6425 ,1.50063 ,0.82917 ,8.13579 
305 ,65.8671 ,1.50277 ,0.80863 ,7.93432 
306 ,66.0912 ,1.50501 ,0.80179 ,7.86717 
307 ,66.3153 ,1.50733 ,0.80521 ,7.90074 
308 ,66.5234 ,1.50939 ,0.80521 ,7.90074 
309 ,66.7473 ,1.51160 ,0.78810 ,7.73285 
310 ,66.9875 ,1.51396 ,0.78126 ,7.66570 
311 ,67.1956 ,1.51618 ,0.78468 ,7.69927 
312 ,67.4037 ,1.51825 ,0.78810 ,7.73285 
313 ,67.6117 ,1.52026 ,0.78126 ,7.66570 
314 ,67.8199 ,1.52232 ,0.77441 ,7.59854 
315 ,68.0278 ,1.52446 ,0.75388 ,7.39707 
316 ,68.2680 ,1.52672 ,0.75730 ,7.43065 
317 ,68.5083 ,1.52911 ,0.75730 ,7.43065 
318 ,68.7324 ,1.53142 ,0.75388 ,7.39707 
319 ,68.9403 ,1.53363 ,0.75046 ,7.36349 
320 ,69.1483 ,1.53562 ,0.75046 ,7.36349 
321 ,69.3726 ,1.53784 ,0.73677 ,7.22918 
322 ,69.5806 ,1.53992 ,0.75388 ,7.39707 
323 ,69.8048 ,1.54215 ,0.74361 ,7.29633 
324 ,70.0287 ,1.54441 ,0.72992 ,7.16202 
325 ,70.3170 ,1.54718 ,0.74704 ,7.32991 
326 ,70.5409 ,1.54956 ,0.73335 ,7.19560 
327 ,70.7491 ,1.55163 ,0.71624 ,7.02771 
328 ,70.9571 ,1.55370 ,0.71281 ,6.99413 
329 ,71.1651 ,1.55571 ,0.71281 ,6.99413 
330 ,71.4052 ,1.55810 ,0.70939 ,6.96055 
331 ,71.6295 ,1.56040 ,0.70255 ,6.89340 
332 ,71.8374 ,1.56249 ,0.70939 ,6.96055 
333 ,72.0616 ,1.56474 ,0.71281 ,6.99413 
334 ,72.2857 ,1.56699 ,0.70597 ,6.92697 
335 ,72.5257 ,1.56938 ,0.70597 ,6.92697 
336 ,72.7497 ,1.57162 ,0.69228 ,6.79266 
337 ,72.9580 ,1.57369 ,0.70255 ,6.89340 
338 ,73.1498 ,1.57571 ,0.69913 ,6.85982 
339 ,73.3583 ,1.57770 ,0.68544 ,6.72550 
340 ,73.5821 ,1.57992 ,0.69570 ,6.82624 
341 ,73.8063 ,1.58221 ,0.68544 ,6.72550 
342 ,74.0144 ,1.58420 ,0.66148 ,6.49046 
343 ,74.2225 ,1.58629 ,0.67175 ,6.59119 
344 ,74.4304 ,1.58839 ,0.66490 ,6.52403 
345 ,74.6547 ,1.59069 ,0.66148 ,6.49046 
346 ,74.8784 ,1.59285 ,0.66148 ,6.49046 
347 ,75.0866 ,1.59495 ,0.67175 ,6.59119 
348 ,75.2950 ,1.59710 ,0.65464 ,6.42330 
349 ,75.5193 ,1.59929 ,0.65121 ,6.38972 
350 ,75.7268 ,1.60137 ,0.65464 ,6.42330 
351 ,75.9510 ,1.60365 ,0.63410 ,6.22183 
352 ,76.1593 ,1.60570 ,0.63753 ,6.25541 
353 ,76.3833 ,1.60798 ,0.65121 ,6.38972 
354 ,76.5913 ,1.61000 ,0.63068 ,6.18825 
355 ,76.7991 ,1.61210 ,0.63753 ,6.25541 
356 ,77.0076 ,1.61416 ,0.64437 ,6.32256 
357 ,77.2318 ,1.61642 ,0.65464 ,6.42330 
358 ,77.4559 ,1.61853 ,0.65121 ,6.38972 
359 ,77.6797 ,1.62090 ,0.64437 ,6.32256 
360 ,77.8876 ,1.62297 ,0.65121 ,6.38972 
361 ,78.0959 ,1.62507 ,0.63410 ,6.22183 
362 ,78.3042 ,1.62710 ,0.65806 ,6.45688 
363 ,78.5124 ,1.62926 ,0.64779 ,6.35614 
364 ,78.7202 ,1.63127 ,0.65121 ,6.38972 
365 ,78.9442 ,1.63357 ,0.65464 ,6.42330 
366 ,79.1524 ,1.63567 ,0.63068 ,6.18825 
367 ,79.3766 ,1.63781 ,0.63753 ,6.25541 
368 ,79.5847 ,1.63994 ,0.64437 ,6.32256 
369 ,79.8089 ,1.64220 ,0.63753 ,6.25541 
370 ,80.0325 ,1.64439 ,0.63410 ,6.22183 
371 ,80.2569 ,1.64664 ,0.62384 ,6.12109 
372 ,80.4811 ,1.64887 ,0.62384 ,6.12109 
373 ,80.7052 ,1.65102 ,0.64095 ,6.28899 
374 ,80.9293 ,1.65339 ,0.62384 ,6.12109 
375 ,81.1370 ,1.65546 ,0.61015 ,5.98678 
376 ,81.3615 ,1.65769 ,0.62384 ,6.12109 
377 ,81.5692 ,1.65989 ,0.64437 ,6.32256 
378 ,81.7777 ,1.66188 ,0.63068 ,6.18825 
379 ,82.0018 ,1.66408 ,0.62726 ,6.15467 
380 ,82.2094 ,1.66622 ,0.63753 ,6.25541 
381 ,82.4338 ,1.66842 ,0.63068 ,6.18825 
382 ,82.6580 ,1.67065 ,0.63068 ,6.18825 
383 ,82.8661 ,1.67272 ,0.64779 ,6.35614 
384 ,83.0899 ,1.67499 ,0.64779 ,6.35614 
385 ,83.3143 ,1.67714 ,0.67859 ,6.65835 
386 ,83.5542 ,1.67964 ,0.67859 ,6.65835 
387 ,83.7786 ,1.68186 ,0.67175 ,6.59119 
388 ,84.0026 ,1.68405 ,0.69913 ,6.85982 
389 ,84.2263 ,1.68636 ,0.68886 ,6.75908 
390 ,84.4348 ,1.68840 ,0.68201 ,6.69193 
391 ,84.6589 ,1.69066 ,0.68201 ,6.69193 
392 ,84.8829 ,1.69289 ,0.70597 ,6.92697 
393 ,85.0910 ,1.69498 ,0.71624 ,7.02771 
394 ,85.2989 ,1.69705 ,0.68544 ,6.72550 
395 ,85.5232 ,1.69928 ,0.70255 ,6.89340 
396 ,85.7474 ,1.70145 ,0.70597 ,6.92697 
397 ,85.9714 ,1.70377 ,0.70597 ,6.92697 
398 ,86.1795 ,1.70588 ,0.69570 ,6.82624 
399 ,86.4035 ,1.70811 ,0.70255 ,6.89340 
400 ,86.6114 ,1.71014 ,0.69913 ,6.85982 
401 ,86.8516 ,1.71257 ,0.69913 ,6.85982 
402 ,87.0758 ,1.71483 ,0.68544 ,6.72550 
403 ,87.2838 ,1.71694 ,0.69913 ,6.85982 
404 ,87.4918 ,1.71895 ,0.70939 ,6.96055 
405 ,87.7000 ,1.72108 ,0.70255 ,6.89340 
406 ,87.9241 ,1.72330 ,0.70939 ,6.96055 
407 ,88.1323 ,1.72545 ,0.70939 ,6.96055 
408 ,88.3403 ,1.72744 ,0.69913 ,6.85982 
409 ,88.5644 ,1.72974 ,0.70939 ,6.96055 
410 ,88.7722 ,1.73177 ,0.71966 ,7.06129 
411 ,88.9965 ,1.73401 ,0.69913 ,6.85982 
412 ,89.2042 ,1.73607 ,0.70939 ,6.96055 
413 ,89.4128 ,1.73816 ,0.70597 ,6.92697 
414 ,89.6208 ,1.74025 ,0.68886 ,6.75908 
415 ,89.8449 ,1.74252 ,0.71281 ,6.99413 
416 ,90.0529 ,1.74456 ,0.71281 ,6.99413 
417 ,90.2610 ,1.74665 ,0.69228 ,6.79266 
418 ,90.4691 ,1.74876 ,0.70255 ,6.89340 
419 ,90.7093 ,1.75114 ,0.71624 ,7.02771 
420 ,90.9173 ,1.75324 ,0.70255 ,6.89340 
421 ,91.1250 ,1.75532 ,0.69228 ,6.79266 
422 ,91.3332 ,1.75738 ,0.71624 ,7.02771 
423 ,91.5736 ,1.75982 ,0.70597 ,6.92697 
424 ,91.7978 ,1.76200 ,0.69570 ,6.82624 
425 ,92.0058 ,1.76409 ,0.70255 ,6.89340 
426 ,92.1975 ,1.76614 ,0.71624 ,7.02771 
427 ,92.3898 ,1.76804 ,0.70939 ,6.96055 
428 ,92.6139 ,1.77014 ,0.71281 ,6.99413 
429 ,92.8224 ,1.77230 ,0.69570 ,6.82624 
430 ,93.0463 ,1.77450 ,0.70939 ,6.96055 
431 ,93.2701 ,1.77672 ,0.70939 ,6.96055 
432 ,93.4940 ,1.77895 ,0.71281 ,6.99413 
433 ,93.7180 ,1.78121 ,0.69570 ,6.82624 
434 ,93.9582 ,1.78355 ,0.67859 ,6.65835 
435 ,94.2303 ,1.78634 ,0.71281 ,6.99413 
436 ,94.4384 ,1.78838 ,0.69570 ,6.82624 
437 ,94.6470 ,1.79053 ,0.70597 ,6.92697 
438 ,94.8710 ,1.79276 ,0.71966 ,7.06129 
439 ,95.0792 ,1.79483 ,0.69913 ,6.85982 
440 ,95.2871 ,1.79686 ,0.70255 ,6.89340 
441 ,95.4948 ,1.79897 ,0.70939 ,6.96055 
442 ,95.6873 ,1.80103 ,0.69228 ,6.79266 
443 ,95.9113 ,1.80316 ,0.71624 ,7.02771 
444 ,96.1199 ,1.80517 ,0.70255 ,6.89340 
445 ,96.3434 ,1.80750 ,0.70255 ,6.89340 
446 ,96.5674 ,1.80972 ,0.70939 ,6.96055 
447 ,96.8078 ,1.81211 ,0.71281 ,6.99413 
448 ,97.0159 ,1.81426 ,0.70939 ,6.96055 
449 ,97.2235 ,1.81620 ,0.69570 ,6.82624 
450 ,97.4320 ,1.81832 ,0.71966 ,7.06129 
451 ,97.6559 ,1.82056 ,0.70597 ,6.92697 
452 ,97.8641 ,1.82266 ,0.70255 ,6.89340 
453 ,98.0884 ,1.82487 ,0.70939 ,6.96055 
454 ,98.2963 ,1.82699 ,0.70597 ,6.92697 
455 ,98.5045 ,1.82906 ,0.69913 ,6.85982 
456 ,98.7127 ,1.83114 ,0.71281 ,6.99413 
457 ,98.9521 ,1.83362 ,0.70597 ,6.92697 
458 ,99.1603 ,1.83563 ,0.69913 ,6.85982 
459 ,99.3683 ,1.83769 ,0.71281 ,6.99413 
460 ,99.5767 ,1.83977 ,0.70939 ,6.96055 
461 ,99.8009 ,1.84199 ,0.69228 ,6.79266 
462 ,100.0087 ,1.84410 ,0.70939 ,6.96055 
463 ,100.2171 ,1.84621 ,0.70939 ,6.96055 
464 ,100.4253 ,1.84822 ,0.69228 ,6.79266 
465 ,100.6334 ,1.85032 ,0.71624 ,7.02771 
466 ,100.8575 ,1.85258 ,0.70255 ,6.89340 
467 ,101.0651 ,1.85471 ,0.69913 ,6.85982 
