Data stamp = , 03-06-2022 14:02:52 947

Calibration Values: 
Slope = , 26.54 , g/V 
Offset Voltage at no contact = , -0.501760 , V 

No , Time , Stage Position ,   Mass , Force 
   ,  (s) ,      (mm)      ,   (g)  , (mN)  

1 ,0.0000 ,0.84952 ,5.31563 ,52.15694 
2 ,0.3098 ,0.84977 ,5.29510 ,51.95548 
3 ,0.6785 ,0.85121 ,5.29167 ,51.92190 
4 ,0.9503 ,0.85354 ,5.30878 ,52.08979 
5 ,1.1745 ,0.85596 ,5.29167 ,51.92190 
6 ,1.3826 ,0.85800 ,5.30878 ,52.08979 
7 ,1.5907 ,0.86013 ,5.29510 ,51.95548 
8 ,1.7989 ,0.86225 ,5.28825 ,51.88832 
9 ,2.0230 ,0.86446 ,5.25061 ,51.51896 
10 ,2.2310 ,0.86659 ,5.23692 ,51.38464 
11 ,2.4547 ,0.86886 ,5.22323 ,51.25033 
12 ,2.6633 ,0.87092 ,5.20270 ,51.04886 
13 ,2.8871 ,0.87315 ,5.17874 ,50.81381 
14 ,3.1112 ,0.87535 ,5.15821 ,50.61234 
15 ,3.3194 ,0.87743 ,5.13425 ,50.37729 
16 ,3.5271 ,0.87950 ,5.11714 ,50.20940 
17 ,3.7516 ,0.88179 ,5.08292 ,49.87362 
18 ,3.9917 ,0.88402 ,5.08292 ,49.87362 
19 ,4.1997 ,0.88624 ,5.05554 ,49.60499 
20 ,4.4078 ,0.88826 ,5.03501 ,49.40352 
21 ,4.6159 ,0.89041 ,5.01106 ,49.16848 
22 ,4.8556 ,0.89278 ,4.99052 ,48.96701 
23 ,5.1116 ,0.89530 ,4.95630 ,48.63122 
24 ,5.3357 ,0.89768 ,4.93577 ,48.42975 
25 ,5.5443 ,0.89969 ,4.93577 ,48.42975 
26 ,5.7360 ,0.90170 ,4.88101 ,47.89250 
27 ,5.9602 ,0.90386 ,4.88444 ,47.92608 
28 ,6.2006 ,0.90626 ,4.86732 ,47.75819 
29 ,6.4246 ,0.90848 ,4.83652 ,47.45598 
30 ,6.6328 ,0.91054 ,4.79546 ,47.05304 
31 ,6.8407 ,0.91266 ,4.79204 ,47.01946 
32 ,7.1126 ,0.91535 ,4.74755 ,46.58295 
33 ,7.3207 ,0.91744 ,4.74755 ,46.58295 
34 ,7.5287 ,0.91954 ,4.73044 ,46.41506 
35 ,7.7372 ,0.92166 ,4.71333 ,46.24716 
36 ,7.9610 ,0.92384 ,4.69279 ,46.04569 
37 ,8.1854 ,0.92613 ,4.66884 ,45.81065 
38 ,8.4096 ,0.92833 ,4.64146 ,45.54202 
39 ,8.6177 ,0.93037 ,4.61408 ,45.27339 
40 ,8.8418 ,0.93266 ,4.60724 ,45.20624 
41 ,9.0653 ,0.93489 ,4.59355 ,45.07192 
42 ,9.3374 ,0.93746 ,4.56960 ,44.83688 
43 ,9.5776 ,0.93998 ,4.53880 ,44.53467 
44 ,9.8177 ,0.94234 ,4.52169 ,44.36678 
45 ,10.0577 ,0.94476 ,4.50800 ,44.23247 
46 ,10.2659 ,0.94687 ,4.46693 ,43.82953 
47 ,10.5059 ,0.94928 ,4.45666 ,43.72879 
48 ,10.7300 ,0.95151 ,4.41902 ,43.35943 
49 ,10.9540 ,0.95377 ,4.40191 ,43.19154 
50 ,11.1782 ,0.95598 ,4.39507 ,43.12438 
51 ,11.4023 ,0.95818 ,4.37795 ,42.95649 
52 ,11.6424 ,0.96062 ,4.35400 ,42.72144 
53 ,11.8666 ,0.96291 ,4.32320 ,42.41924 
54 ,12.0585 ,0.96490 ,4.29582 ,42.15061 
55 ,12.2827 ,0.96706 ,4.28898 ,42.08345 
56 ,12.5069 ,0.96927 ,4.28213 ,42.01630 
57 ,12.7470 ,0.97167 ,4.23422 ,41.54620 
58 ,12.9870 ,0.97404 ,4.23765 ,41.57978 
59 ,13.1955 ,0.97617 ,4.18974 ,41.10968 
60 ,13.4196 ,0.97837 ,4.18289 ,41.04253 
61 ,13.6432 ,0.98061 ,4.17605 ,40.97537 
62 ,13.8678 ,0.98290 ,4.14867 ,40.70674 
63 ,14.0757 ,0.98494 ,4.11445 ,40.37096 
64 ,14.2839 ,0.98707 ,4.12129 ,40.43812 
65 ,14.5080 ,0.98933 ,4.08707 ,40.10233 
66 ,14.7162 ,0.99136 ,4.05627 ,39.80013 
67 ,14.9402 ,0.99366 ,4.04258 ,39.66582 
68 ,15.1642 ,0.99582 ,4.03916 ,39.63224 
69 ,15.3886 ,0.99812 ,4.00836 ,39.33003 
70 ,15.6283 ,1.00038 ,3.97414 ,38.99425 
71 ,15.8524 ,1.00274 ,3.96387 ,38.89352 
72 ,16.0926 ,1.00503 ,3.94334 ,38.69205 
73 ,16.3008 ,1.00736 ,3.91254 ,38.38984 
74 ,16.5248 ,1.00940 ,3.90912 ,38.35626 
75 ,16.7490 ,1.01156 ,3.89201 ,38.18837 
76 ,16.9885 ,1.01401 ,3.86805 ,37.95332 
77 ,17.2293 ,1.01637 ,3.84410 ,37.71828 
78 ,17.5013 ,1.01902 ,3.82699 ,37.55038 
79 ,17.7252 ,1.02151 ,3.80987 ,37.38249 
80 ,17.9491 ,1.02369 ,3.78592 ,37.14744 
81 ,18.1411 ,1.02573 ,3.74828 ,36.77808 
82 ,18.3654 ,1.02790 ,3.74485 ,36.74450 
83 ,18.5898 ,1.03008 ,3.72432 ,36.54303 
84 ,18.7979 ,1.03217 ,3.69352 ,36.24083 
85 ,19.0219 ,1.03443 ,3.67641 ,36.07294 
86 ,19.2456 ,1.03650 ,3.66614 ,35.97220 
87 ,19.4700 ,1.03892 ,3.64561 ,35.77073 
88 ,19.7102 ,1.04123 ,3.63877 ,35.70358 
89 ,19.9182 ,1.04336 ,3.58401 ,35.16632 
90 ,20.1263 ,1.04552 ,3.59086 ,35.23348 
91 ,20.3341 ,1.04753 ,3.57375 ,35.06559 
92 ,20.5583 ,1.04982 ,3.53610 ,34.69623 
93 ,20.7826 ,1.05202 ,3.50530 ,34.39402 
94 ,20.9741 ,1.05403 ,3.51899 ,34.52834 
95 ,21.1828 ,1.05600 ,3.49504 ,34.29329 
96 ,21.4066 ,1.05827 ,3.48135 ,34.15898 
97 ,21.6469 ,1.06052 ,3.44028 ,33.75604 
98 ,21.8547 ,1.06275 ,3.43001 ,33.65530 
99 ,22.0792 ,1.06493 ,3.40948 ,33.45383 
100 ,22.2711 ,1.06699 ,3.40948 ,33.45383 
101 ,22.4794 ,1.06896 ,3.37184 ,33.08447 
102 ,22.6871 ,1.07103 ,3.36157 ,32.98374 
103 ,22.8952 ,1.07310 ,3.34104 ,32.78227 
104 ,23.1195 ,1.07537 ,3.30682 ,32.44648 
105 ,23.3434 ,1.07759 ,3.29997 ,32.37933 
106 ,23.5678 ,1.07980 ,3.28628 ,32.24501 
107 ,23.7753 ,1.08191 ,3.26575 ,32.04354 
108 ,23.9838 ,1.08403 ,3.23837 ,31.77492 
109 ,24.2081 ,1.08620 ,3.23837 ,31.77492 
110 ,24.4161 ,1.08833 ,3.21442 ,31.53987 
111 ,24.6242 ,1.09041 ,3.18020 ,31.20409 
112 ,24.8319 ,1.09244 ,3.18704 ,31.27124 
113 ,25.0400 ,1.09465 ,3.14255 ,30.83472 
114 ,25.2484 ,1.09668 ,3.13913 ,30.80115 
115 ,25.4726 ,1.09890 ,3.13571 ,30.76757 
116 ,25.6808 ,1.10099 ,3.09806 ,30.39821 
117 ,25.8888 ,1.10306 ,3.09806 ,30.39821 
118 ,26.1286 ,1.10547 ,3.07411 ,30.16316 
119 ,26.3530 ,1.10763 ,3.05358 ,29.96169 
120 ,26.5929 ,1.11000 ,3.02620 ,29.69306 
121 ,26.8007 ,1.11217 ,3.00224 ,29.45801 
122 ,27.0252 ,1.11437 ,2.99198 ,29.35728 
123 ,27.2650 ,1.11684 ,2.96802 ,29.12223 
124 ,27.4891 ,1.11902 ,2.95091 ,28.95434 
125 ,27.6973 ,1.12112 ,2.92011 ,28.65213 
126 ,27.9053 ,1.12324 ,2.90985 ,28.55140 
127 ,28.1134 ,1.12525 ,2.90300 ,28.48424 
128 ,28.3375 ,1.12754 ,2.87905 ,28.24919 
129 ,28.5457 ,1.12958 ,2.85167 ,27.98057 
130 ,28.7536 ,1.13166 ,2.85167 ,27.98057 
131 ,28.9936 ,1.13396 ,2.83114 ,27.77910 
132 ,29.2020 ,1.13616 ,2.80718 ,27.54405 
133 ,29.4740 ,1.13883 ,2.79007 ,27.37616 
134 ,29.6822 ,1.14099 ,2.75927 ,27.07395 
135 ,29.8902 ,1.14304 ,2.75585 ,27.04038 
136 ,30.0980 ,1.14510 ,2.73531 ,26.83891 
137 ,30.3062 ,1.14715 ,2.72163 ,26.70459 
138 ,30.4980 ,1.14922 ,2.69767 ,26.46954 
139 ,30.7067 ,1.15119 ,2.68056 ,26.30165 
140 ,30.9306 ,1.15344 ,2.66003 ,26.10018 
141 ,31.1387 ,1.15551 ,2.65660 ,26.06661 
142 ,31.3625 ,1.15781 ,2.62238 ,25.73082 
143 ,31.5705 ,1.15982 ,2.61554 ,25.66367 
144 ,31.7950 ,1.16205 ,2.60869 ,25.59651 
145 ,32.0192 ,1.16440 ,2.57789 ,25.29430 
146 ,32.2433 ,1.16658 ,2.55052 ,25.02568 
147 ,32.4513 ,1.16870 ,2.54367 ,24.95852 
148 ,32.6750 ,1.17093 ,2.52998 ,24.82421 
149 ,32.8995 ,1.17311 ,2.50261 ,24.55558 
150 ,33.1236 ,1.17540 ,2.47181 ,24.25338 
151 ,33.3316 ,1.17756 ,2.45127 ,24.05191 
152 ,33.5396 ,1.17956 ,2.44785 ,24.01833 
153 ,33.7478 ,1.18163 ,2.41363 ,23.68255 
154 ,33.9719 ,1.18389 ,2.41363 ,23.68255 
155 ,34.1960 ,1.18601 ,2.41363 ,23.68255 
156 ,34.4040 ,1.18816 ,2.37599 ,23.31318 
157 ,34.6123 ,1.19023 ,2.35888 ,23.14529 
158 ,34.8203 ,1.19237 ,2.35203 ,23.07814 
159 ,35.0604 ,1.19467 ,2.33150 ,22.87667 
160 ,35.2685 ,1.19686 ,2.30412 ,22.60804 
161 ,35.4766 ,1.19903 ,2.29728 ,22.54088 
162 ,35.7007 ,1.20111 ,2.27674 ,22.33941 
163 ,35.9088 ,1.20324 ,2.23568 ,21.93647 
164 ,36.1166 ,1.20531 ,2.24252 ,22.00363 
165 ,36.3247 ,1.20741 ,2.21515 ,21.73500 
166 ,36.5491 ,1.20957 ,2.19803 ,21.56711 
167 ,36.7410 ,1.21167 ,2.19119 ,21.49996 
168 ,36.9651 ,1.21379 ,2.16723 ,21.26491 
169 ,37.1728 ,1.21582 ,2.15697 ,21.16417 
170 ,37.3814 ,1.21796 ,2.14328 ,21.02986 
171 ,37.6054 ,1.22013 ,2.11248 ,20.72766 
172 ,37.8136 ,1.22229 ,2.10564 ,20.66050 
173 ,38.0378 ,1.22448 ,2.08510 ,20.45903 
174 ,38.2455 ,1.22664 ,2.06457 ,20.25756 
175 ,38.4858 ,1.22889 ,2.03035 ,19.92178 
176 ,38.7101 ,1.23123 ,2.02008 ,19.82104 
177 ,38.9181 ,1.23333 ,2.02008 ,19.82104 
178 ,39.1419 ,1.23551 ,2.00982 ,19.72031 
179 ,39.3500 ,1.23755 ,1.96533 ,19.28379 
180 ,39.5742 ,1.23987 ,1.95848 ,19.21663 
181 ,39.7984 ,1.24210 ,1.94479 ,19.08232 
182 ,39.9905 ,1.24416 ,1.92768 ,18.91443 
183 ,40.1825 ,1.24605 ,1.91399 ,18.78011 
184 ,40.3908 ,1.24799 ,1.87635 ,18.41075 
185 ,40.5985 ,1.25010 ,1.87977 ,18.44433 
186 ,40.8068 ,1.25220 ,1.86266 ,18.27644 
187 ,41.0309 ,1.25442 ,1.82844 ,17.94066 
188 ,41.2230 ,1.25646 ,1.82844 ,17.94066 
189 ,41.4471 ,1.25854 ,1.81133 ,17.77276 
190 ,41.6548 ,1.26068 ,1.79764 ,17.63845 
191 ,41.8793 ,1.26290 ,1.77369 ,17.40340 
192 ,42.1031 ,1.26514 ,1.78053 ,17.47056 
193 ,42.3275 ,1.26740 ,1.74289 ,17.10120 
194 ,42.5195 ,1.26943 ,1.71893 ,16.86615 
195 ,42.7433 ,1.27147 ,1.71209 ,16.79899 
196 ,42.9676 ,1.27382 ,1.69155 ,16.59752 
197 ,43.1914 ,1.27597 ,1.67102 ,16.39605 
198 ,43.4155 ,1.27832 ,1.65391 ,16.22816 
199 ,43.6396 ,1.28045 ,1.64364 ,16.12743 
200 ,43.8476 ,1.28258 ,1.61969 ,15.89238 
201 ,44.0722 ,1.28485 ,1.59573 ,15.65733 
202 ,44.2963 ,1.28702 ,1.57862 ,15.48944 
203 ,44.5203 ,1.28934 ,1.57862 ,15.48944 
204 ,44.7123 ,1.29135 ,1.56151 ,15.32155 
205 ,44.9205 ,1.29329 ,1.54782 ,15.18724 
206 ,45.1281 ,1.29542 ,1.51702 ,14.88503 
207 ,45.3364 ,1.29743 ,1.50676 ,14.78430 
208 ,45.5447 ,1.29953 ,1.49307 ,14.64998 
209 ,45.7527 ,1.30160 ,1.46569 ,14.38136 
210 ,45.9609 ,1.30371 ,1.46227 ,14.34778 
211 ,46.1685 ,1.30577 ,1.43831 ,14.11273 
212 ,46.3771 ,1.30785 ,1.42462 ,13.97842 
213 ,46.5852 ,1.30995 ,1.43147 ,14.04557 
214 ,46.8092 ,1.31216 ,1.39383 ,13.67621 
215 ,47.0173 ,1.31422 ,1.36987 ,13.44116 
216 ,47.2411 ,1.31648 ,1.36303 ,13.37401 
217 ,47.4657 ,1.31880 ,1.35276 ,13.27327 
218 ,47.6898 ,1.32098 ,1.34249 ,13.17254 
219 ,47.9138 ,1.32318 ,1.31169 ,12.87033 
220 ,48.1375 ,1.32546 ,1.29458 ,12.70244 
221 ,48.3617 ,1.32763 ,1.28089 ,12.56813 
222 ,48.6021 ,1.33008 ,1.28089 ,12.56813 
223 ,48.8260 ,1.33240 ,1.25352 ,12.29950 
224 ,49.0341 ,1.33442 ,1.21929 ,11.96372 
225 ,49.2423 ,1.33664 ,1.20218 ,11.79583 
226 ,49.4664 ,1.33869 ,1.21245 ,11.89656 
227 ,49.6905 ,1.34098 ,1.18165 ,11.59436 
228 ,49.9146 ,1.34323 ,1.17138 ,11.49362 
229 ,50.1383 ,1.34547 ,1.14058 ,11.19142 
230 ,50.3306 ,1.34750 ,1.15427 ,11.32573 
231 ,50.5388 ,1.34948 ,1.11321 ,10.92279 
232 ,50.7466 ,1.35155 ,1.12347 ,11.02353 
233 ,50.9550 ,1.35357 ,1.08925 ,10.68774 
234 ,51.1465 ,1.35564 ,1.07214 ,10.51985 
235 ,51.3551 ,1.35761 ,1.05503 ,10.35196 
236 ,51.6112 ,1.36003 ,1.03450 ,10.15049 
237 ,51.8188 ,1.36239 ,1.02423 ,10.04976 
238 ,52.0274 ,1.36437 ,1.02765 ,10.08333 
239 ,52.2515 ,1.36659 ,1.01739 ,9.98260 
240 ,52.4597 ,1.36869 ,0.98317 ,9.64682 
241 ,52.6834 ,1.37086 ,0.96605 ,9.47892 
242 ,52.8914 ,1.37297 ,0.96605 ,9.47892 
243 ,53.0838 ,1.37501 ,0.92157 ,9.04241 
244 ,53.2921 ,1.37698 ,0.93183 ,9.14314 
245 ,53.5000 ,1.37917 ,0.90103 ,8.84094 
246 ,53.7240 ,1.38128 ,1.18165 ,11.59436 
247 ,53.9320 ,1.38337 ,1.20218 ,11.79583 
248 ,54.1560 ,1.38567 ,1.17823 ,11.56078 
249 ,54.3644 ,1.38767 ,1.16796 ,11.46004 
250 ,54.5724 ,1.38975 ,1.18165 ,11.59436 
251 ,54.7966 ,1.39205 ,1.16454 ,11.42647 
252 ,55.0044 ,1.39408 ,1.15085 ,11.29215 
253 ,55.2444 ,1.39648 ,1.14743 ,11.25857 
254 ,55.4689 ,1.39880 ,1.13374 ,11.12426 
255 ,55.6931 ,1.40099 ,1.14058 ,11.19142 
256 ,55.9170 ,1.40320 ,1.12690 ,11.05710 
257 ,56.1409 ,1.40545 ,1.09267 ,10.72132 
258 ,56.3491 ,1.40755 ,1.09952 ,10.78848 
259 ,56.5575 ,1.40965 ,1.08583 ,10.65416 
260 ,56.7814 ,1.41191 ,1.08241 ,10.62059 
261 ,57.0215 ,1.41414 ,1.05503 ,10.35196 
262 ,57.2296 ,1.41634 ,1.08583 ,10.65416 
263 ,57.4533 ,1.41861 ,1.06530 ,10.45270 
264 ,57.6617 ,1.42068 ,1.03450 ,10.15049 
265 ,57.8859 ,1.42290 ,1.02423 ,10.04976 
266 ,58.0938 ,1.42498 ,1.03450 ,10.15049 
267 ,58.3020 ,1.42718 ,1.03450 ,10.15049 
268 ,58.5095 ,1.42926 ,1.00712 ,9.88186 
269 ,58.7182 ,1.43123 ,1.01396 ,9.94902 
270 ,58.9102 ,1.43327 ,0.99001 ,9.71397 
271 ,59.1342 ,1.43533 ,0.98317 ,9.64682 
272 ,59.3424 ,1.43747 ,0.98317 ,9.64682 
273 ,59.5661 ,1.43970 ,0.96263 ,9.44535 
274 ,59.7907 ,1.44195 ,0.96605 ,9.47892 
275 ,60.0309 ,1.44423 ,0.96948 ,9.51250 
276 ,60.2388 ,1.44643 ,0.95921 ,9.41177 
277 ,60.4626 ,1.44862 ,0.92499 ,9.07598 
278 ,60.6707 ,1.45073 ,0.93183 ,9.14314 
279 ,60.8949 ,1.45302 ,0.93868 ,9.21030 
280 ,61.1191 ,1.45522 ,0.92499 ,9.07598 
281 ,61.3112 ,1.45725 ,0.90103 ,8.84094 
282 ,61.5351 ,1.45933 ,0.91130 ,8.94167 
283 ,61.7592 ,1.46162 ,0.91814 ,9.00883 
284 ,62.0156 ,1.46404 ,0.89761 ,8.80736 
285 ,62.2235 ,1.46637 ,0.90103 ,8.84094 
286 ,62.4318 ,1.46834 ,0.86681 ,8.50515 
287 ,62.6398 ,1.47043 ,0.88392 ,8.67305 
288 ,62.8319 ,1.47248 ,0.84286 ,8.27011 
289 ,63.0879 ,1.47492 ,0.85312 ,8.37084 
290 ,63.3121 ,1.47713 ,0.83943 ,8.23653 
291 ,63.5201 ,1.47935 ,0.85312 ,8.37084 
292 ,63.7442 ,1.48145 ,0.82917 ,8.13579 
293 ,63.9683 ,1.48370 ,0.82917 ,8.13579 
294 ,64.1760 ,1.48577 ,0.83259 ,8.16937 
295 ,64.4005 ,1.48799 ,0.83943 ,8.23653 
296 ,64.6086 ,1.49012 ,0.79837 ,7.83359 
297 ,64.8326 ,1.49233 ,0.80863 ,7.93432 
298 ,65.0244 ,1.49436 ,0.81548 ,8.00148 
299 ,65.2484 ,1.49644 ,0.80521 ,7.90074 
300 ,65.4565 ,1.49862 ,0.80521 ,7.90074 
301 ,65.6805 ,1.50089 ,0.80521 ,7.90074 
302 ,65.9048 ,1.50306 ,0.78126 ,7.66570 
303 ,66.1771 ,1.50570 ,0.78810 ,7.73285 
304 ,66.4013 ,1.50797 ,0.78810 ,7.73285 
305 ,66.6095 ,1.51012 ,0.77441 ,7.59854 
306 ,66.8174 ,1.51230 ,0.76757 ,7.53138 
307 ,67.0411 ,1.51437 ,0.75730 ,7.43065 
308 ,67.2493 ,1.51659 ,0.77784 ,7.63212 
309 ,67.4573 ,1.51857 ,0.76757 ,7.53138 
310 ,67.6978 ,1.52083 ,0.77099 ,7.56496 
311 ,67.9056 ,1.52316 ,0.76072 ,7.46423 
312 ,68.1139 ,1.52514 ,0.73677 ,7.22918 
313 ,68.3222 ,1.52720 ,0.74704 ,7.32991 
314 ,68.5458 ,1.52943 ,0.73335 ,7.19560 
315 ,68.7702 ,1.53177 ,0.73335 ,7.19560 
316 ,68.9946 ,1.53393 ,0.72992 ,7.16202 
317 ,69.2024 ,1.53603 ,0.74019 ,7.26276 
318 ,69.4266 ,1.53825 ,0.72992 ,7.16202 
319 ,69.6347 ,1.54032 ,0.71966 ,7.06129 
320 ,69.8747 ,1.54279 ,0.71281 ,6.99413 
321 ,70.0990 ,1.54501 ,0.71281 ,6.99413 
322 ,70.3229 ,1.54724 ,0.71281 ,6.99413 
323 ,70.5151 ,1.54925 ,0.69570 ,6.82624 
324 ,70.7230 ,1.55122 ,0.70255 ,6.89340 
325 ,70.9310 ,1.55332 ,0.69570 ,6.82624 
326 ,71.1553 ,1.55555 ,0.68544 ,6.72550 
327 ,71.3794 ,1.55779 ,0.69228 ,6.79266 
328 ,71.5874 ,1.55989 ,0.70255 ,6.89340 
329 ,71.8117 ,1.56208 ,0.68886 ,6.75908 
330 ,72.0193 ,1.56418 ,0.68544 ,6.72550 
331 ,72.2277 ,1.56628 ,0.69570 ,6.82624 
332 ,72.4357 ,1.56832 ,0.67859 ,6.65835 
333 ,72.6599 ,1.57056 ,0.68544 ,6.72550 
334 ,72.8836 ,1.57283 ,0.67859 ,6.65835 
335 ,73.0917 ,1.57490 ,0.67175 ,6.59119 
336 ,73.3001 ,1.57696 ,0.67175 ,6.59119 
337 ,73.5080 ,1.57906 ,0.67859 ,6.65835 
338 ,73.7164 ,1.58114 ,0.66490 ,6.52403 
339 ,73.9401 ,1.58342 ,0.66148 ,6.49046 
340 ,74.1482 ,1.58547 ,0.65806 ,6.45688 
341 ,74.3886 ,1.58779 ,0.65464 ,6.42330 
342 ,74.6128 ,1.59008 ,0.65121 ,6.38972 
343 ,74.8209 ,1.59216 ,0.64437 ,6.32256 
344 ,75.0449 ,1.59441 ,0.65464 ,6.42330 
345 ,75.2530 ,1.59664 ,0.66148 ,6.49046 
346 ,75.4771 ,1.59875 ,0.63753 ,6.25541 
347 ,75.6852 ,1.60083 ,0.64779 ,6.35614 
348 ,75.8773 ,1.60287 ,0.64437 ,6.32256 
349 ,76.1013 ,1.60499 ,0.62042 ,6.08752 
350 ,76.3095 ,1.60707 ,0.64437 ,6.32256 
351 ,76.5332 ,1.60930 ,0.62726 ,6.15467 
352 ,76.7413 ,1.61137 ,0.62384 ,6.12109 
353 ,76.9816 ,1.61366 ,0.62726 ,6.15467 
354 ,77.2058 ,1.61604 ,0.63410 ,6.22183 
355 ,77.4300 ,1.61827 ,0.62384 ,6.12109 
356 ,77.6698 ,1.62058 ,0.63068 ,6.18825 
357 ,77.8622 ,1.62270 ,0.61357 ,6.02036 
358 ,78.0701 ,1.62468 ,0.62384 ,6.12109 
359 ,78.2783 ,1.62676 ,0.59988 ,5.88605 
360 ,78.5023 ,1.62896 ,0.59304 ,5.81889 
361 ,78.7100 ,1.63103 ,0.62042 ,6.08752 
362 ,78.9184 ,1.63316 ,0.60330 ,5.91962 
363 ,79.1426 ,1.63536 ,0.61357 ,6.02036 
364 ,79.3508 ,1.63746 ,0.63753 ,6.25541 
365 ,79.5749 ,1.63966 ,0.64095 ,6.28899 
366 ,79.7985 ,1.64192 ,0.62384 ,6.12109 
367 ,80.0231 ,1.64412 ,0.61357 ,6.02036 
368 ,80.2471 ,1.64644 ,0.62726 ,6.15467 
369 ,80.4551 ,1.64850 ,0.62726 ,6.15467 
370 ,80.6954 ,1.65078 ,0.63068 ,6.18825 
371 ,80.9188 ,1.65312 ,0.64095 ,6.28899 
372 ,81.1273 ,1.65522 ,0.63410 ,6.22183 
373 ,81.3355 ,1.65746 ,0.64779 ,6.35614 
374 ,81.5597 ,1.65950 ,0.62384 ,6.12109 
375 ,81.7517 ,1.66160 ,0.62384 ,6.12109 
376 ,81.9756 ,1.66370 ,0.64779 ,6.35614 
377 ,82.1998 ,1.66600 ,0.63410 ,6.22183 
378 ,82.4076 ,1.66814 ,0.62384 ,6.12109 
379 ,82.6161 ,1.67013 ,0.64437 ,6.32256 
380 ,82.8244 ,1.67220 ,0.63753 ,6.25541 
381 ,83.0483 ,1.67444 ,0.63410 ,6.22183 
382 ,83.2721 ,1.67664 ,0.65121 ,6.38972 
383 ,83.5124 ,1.67892 ,0.66148 ,6.49046 
384 ,83.7205 ,1.68115 ,0.63753 ,6.25541 
385 ,83.9125 ,1.68317 ,0.63753 ,6.25541 
386 ,84.1046 ,1.68512 ,0.63753 ,6.25541 
387 ,84.3286 ,1.68719 ,0.62042 ,6.08752 
388 ,84.5690 ,1.68960 ,0.63753 ,6.25541 
389 ,84.7770 ,1.69168 ,0.64779 ,6.35614 
390 ,84.9852 ,1.69384 ,0.66148 ,6.49046 
391 ,85.1927 ,1.69585 ,0.68201 ,6.69193 
392 ,85.4009 ,1.69794 ,0.69570 ,6.82624 
393 ,85.6095 ,1.70003 ,0.68886 ,6.75908 
394 ,85.8334 ,1.70227 ,0.70597 ,6.92697 
395 ,86.0575 ,1.70455 ,0.71281 ,6.99413 
396 ,86.2818 ,1.70674 ,0.69913 ,6.85982 
397 ,86.4892 ,1.70894 ,0.69913 ,6.85982 
398 ,86.6977 ,1.71086 ,0.70939 ,6.96055 
399 ,86.9219 ,1.71311 ,0.70255 ,6.89340 
400 ,87.1460 ,1.71541 ,0.68544 ,6.72550 
401 ,87.3541 ,1.71745 ,0.70939 ,6.96055 
402 ,87.5778 ,1.71970 ,0.71281 ,6.99413 
403 ,87.7862 ,1.72183 ,0.69913 ,6.85982 
404 ,87.9943 ,1.72400 ,0.68201 ,6.69193 
405 ,88.2024 ,1.72595 ,0.71966 ,7.06129 
406 ,88.4266 ,1.72822 ,0.68544 ,6.72550 
407 ,88.6344 ,1.73024 ,0.69913 ,6.85982 
408 ,88.8744 ,1.73268 ,0.69228 ,6.79266 
409 ,89.0990 ,1.73487 ,0.71624 ,7.02771 
410 ,89.3227 ,1.73713 ,0.69228 ,6.79266 
411 ,89.5471 ,1.73935 ,0.68544 ,6.72550 
412 ,89.7550 ,1.74147 ,0.71281 ,6.99413 
413 ,89.9952 ,1.74389 ,0.68544 ,6.72550 
414 ,90.2033 ,1.74606 ,0.71281 ,6.99413 
415 ,90.4115 ,1.74803 ,0.67859 ,6.65835 
416 ,90.6194 ,1.75022 ,0.70255 ,6.89340 
417 ,90.8434 ,1.75232 ,0.69913 ,6.85982 
418 ,91.0676 ,1.75456 ,0.68201 ,6.69193 
419 ,91.3079 ,1.75688 ,0.70255 ,6.89340 
420 ,91.5318 ,1.75920 ,0.69913 ,6.85982 
421 ,91.7720 ,1.76162 ,0.68886 ,6.75908 
422 ,91.9959 ,1.76383 ,0.68886 ,6.75908 
423 ,92.2201 ,1.76615 ,0.70597 ,6.92697 
424 ,92.4440 ,1.76834 ,0.70939 ,6.96055 
425 ,92.6523 ,1.77049 ,0.69228 ,6.79266 
426 ,92.8604 ,1.77250 ,0.69913 ,6.85982 
427 ,93.0685 ,1.77460 ,0.70597 ,6.92697 
428 ,93.2927 ,1.77679 ,0.69228 ,6.79266 
429 ,93.5168 ,1.77909 ,0.68544 ,6.72550 
430 ,93.7407 ,1.78131 ,0.69913 ,6.85982 
431 ,93.9486 ,1.78338 ,0.69228 ,6.79266 
432 ,94.1891 ,1.78571 ,0.68886 ,6.75908 
433 ,94.4290 ,1.78822 ,0.69570 ,6.82624 
434 ,94.6692 ,1.79056 ,0.70255 ,6.89340 
435 ,94.9092 ,1.79287 ,0.68886 ,6.75908 
436 ,95.1172 ,1.79508 ,0.69913 ,6.85982 
437 ,95.3411 ,1.79724 ,0.69913 ,6.85982 
438 ,95.5654 ,1.79959 ,0.70597 ,6.92697 
439 ,95.7898 ,1.80180 ,0.71281 ,6.99413 
440 ,96.0135 ,1.80400 ,0.69228 ,6.79266 
441 ,96.2214 ,1.80610 ,0.69570 ,6.82624 
442 ,96.4299 ,1.80816 ,0.70597 ,6.92697 
443 ,96.6537 ,1.81044 ,0.69228 ,6.79266 
444 ,96.8781 ,1.81273 ,0.69228 ,6.79266 
445 ,97.0697 ,1.81473 ,0.71281 ,6.99413 
446 ,97.2622 ,1.81664 ,0.68544 ,6.72550 
447 ,97.4863 ,1.81869 ,0.71281 ,6.99413 
448 ,97.6780 ,1.82078 ,0.69228 ,6.79266 
449 ,97.8865 ,1.82269 ,0.71281 ,6.99413 
450 ,98.1106 ,1.82499 ,0.70255 ,6.89340 
451 ,98.3344 ,1.82718 ,0.69570 ,6.82624 
452 ,98.5426 ,1.82932 ,0.70939 ,6.96055 
453 ,98.7662 ,1.83155 ,0.71624 ,7.02771 
454 ,98.9748 ,1.83361 ,0.70255 ,6.89340 
455 ,99.1990 ,1.83578 ,0.70597 ,6.92697 
456 ,99.4391 ,1.83817 ,0.69228 ,6.79266 
457 ,99.6632 ,1.84053 ,0.70597 ,6.92697 
458 ,99.8867 ,1.84277 ,0.70597 ,6.92697 
459 ,100.1114 ,1.84486 ,0.68544 ,6.72550 
460 ,100.3195 ,1.84710 ,0.67517 ,6.62477 
461 ,100.5431 ,1.84924 ,0.69913 ,6.85982 
462 ,100.7517 ,1.85140 ,0.70939 ,6.96055 
463 ,100.9592 ,1.85356 ,0.70939 ,6.96055 
464 ,101.1678 ,1.85559 ,0.69913 ,6.85982 
465 ,101.4080 ,1.85780 ,0.70255 ,6.89340 
466 ,101.6320 ,1.86019 ,0.69913 ,6.85982 
467 ,101.8402 ,1.86229 ,0.68201 ,6.69193 
