Data stamp = , 02-06-2022 12:00:21 419

Calibration Values: 
Slope = , 26.54 , g/V 
Offset Voltage at no contact = , -0.501760 , V 

No , Time , Stage Position ,   Mass , Force 
   ,  (s) ,      (mm)      ,   (g)  , (mN)  

1 ,0.0000 ,0.84964 ,5.41487 ,53.13072 
2 ,0.2289 ,0.84976 ,5.41145 ,53.09714 
3 ,0.7574 ,0.85146 ,5.41487 ,53.13072 
4 ,0.9656 ,0.85414 ,5.42856 ,53.26503 
5 ,1.2056 ,0.85637 ,5.42172 ,53.19787 
6 ,1.4297 ,0.85862 ,5.43540 ,53.33219 
7 ,1.6697 ,0.86111 ,5.39434 ,52.92925 
8 ,1.8940 ,0.86334 ,5.36696 ,52.66062 
9 ,2.1021 ,0.86545 ,5.36012 ,52.59346 
10 ,2.3097 ,0.86748 ,5.33616 ,52.35841 
11 ,2.5180 ,0.86955 ,5.31563 ,52.15694 
12 ,2.7422 ,0.87181 ,5.30878 ,52.08979 
13 ,2.9823 ,0.87418 ,5.27798 ,51.78758 
14 ,3.2542 ,0.87688 ,5.24034 ,51.41822 
15 ,3.4463 ,0.87894 ,5.22665 ,51.28391 
16 ,3.6706 ,0.88103 ,5.20270 ,51.04886 
17 ,3.8784 ,0.88315 ,5.18216 ,50.84739 
18 ,4.0868 ,0.88526 ,5.16848 ,50.71308 
19 ,4.3109 ,0.88745 ,5.14110 ,50.44445 
20 ,4.5351 ,0.88974 ,5.11030 ,50.14225 
21 ,4.7751 ,0.89208 ,5.08634 ,49.90720 
22 ,4.9991 ,0.89421 ,5.08292 ,49.87362 
23 ,5.2071 ,0.89643 ,5.06239 ,49.67215 
24 ,5.4151 ,0.89854 ,5.03501 ,49.40352 
25 ,5.6234 ,0.90055 ,5.02132 ,49.26921 
26 ,5.8314 ,0.90264 ,4.99394 ,49.00058 
27 ,6.0391 ,0.90473 ,4.95288 ,48.59764 
28 ,6.2476 ,0.90680 ,4.95972 ,48.66480 
29 ,6.4558 ,0.90893 ,4.90839 ,48.16113 
30 ,6.6797 ,0.91115 ,4.90155 ,48.09397 
31 ,6.8880 ,0.91322 ,4.89470 ,48.02681 
32 ,7.1116 ,0.91543 ,4.86048 ,47.69103 
33 ,7.3202 ,0.91763 ,4.83652 ,47.45598 
34 ,7.5603 ,0.91985 ,4.82284 ,47.32167 
35 ,7.7683 ,0.92202 ,4.80230 ,47.12020 
36 ,7.9925 ,0.92421 ,4.76808 ,46.78442 
37 ,8.2001 ,0.92644 ,4.76124 ,46.71726 
38 ,8.4247 ,0.92858 ,4.74755 ,46.58295 
39 ,8.6487 ,0.93080 ,4.72017 ,46.31432 
40 ,8.8570 ,0.93294 ,4.69279 ,46.04569 
41 ,9.0811 ,0.93520 ,4.68253 ,45.94496 
42 ,9.3047 ,0.93738 ,4.66542 ,45.77707 
43 ,9.5289 ,0.93967 ,4.62777 ,45.40771 
44 ,9.7532 ,0.94186 ,4.59013 ,45.03835 
45 ,9.9773 ,0.94410 ,4.58328 ,44.97119 
46 ,10.1854 ,0.94616 ,4.58328 ,44.97119 
47 ,10.3932 ,0.94829 ,4.54564 ,44.60183 
48 ,10.6016 ,0.95043 ,4.53537 ,44.50109 
49 ,10.8257 ,0.95264 ,4.51826 ,44.33320 
50 ,11.0338 ,0.95474 ,4.48062 ,43.96384 
51 ,11.2577 ,0.95696 ,4.47378 ,43.89668 
52 ,11.4662 ,0.95897 ,4.46351 ,43.79595 
53 ,11.6898 ,0.96127 ,4.42586 ,43.42659 
54 ,11.9141 ,0.96347 ,4.40191 ,43.19154 
55 ,12.1063 ,0.96547 ,4.39849 ,43.15796 
56 ,12.3143 ,0.96745 ,4.37111 ,42.88933 
57 ,12.5224 ,0.96952 ,4.36769 ,42.85576 
58 ,12.7300 ,0.97164 ,4.33004 ,42.48639 
59 ,12.9386 ,0.97368 ,4.30609 ,42.25135 
60 ,13.1628 ,0.97594 ,4.31293 ,42.31850 
61 ,13.3868 ,0.97819 ,4.28556 ,42.04988 
62 ,13.5949 ,0.98031 ,4.23765 ,41.57978 
63 ,13.8024 ,0.98244 ,4.24449 ,41.64694 
64 ,14.0108 ,0.98452 ,4.20000 ,41.21042 
65 ,14.2350 ,0.98662 ,4.18289 ,41.04253 
66 ,14.4432 ,0.98875 ,4.16578 ,40.87464 
67 ,14.6514 ,0.99080 ,4.13840 ,40.60601 
68 ,14.8750 ,0.99306 ,4.13156 ,40.53885 
69 ,15.0994 ,0.99532 ,4.12129 ,40.43812 
70 ,15.3235 ,0.99755 ,4.11103 ,40.33738 
71 ,15.5317 ,0.99956 ,4.05627 ,39.80013 
72 ,15.7396 ,1.00176 ,4.05285 ,39.76655 
73 ,15.9476 ,1.00382 ,4.03574 ,39.59866 
74 ,16.1719 ,1.00611 ,4.00836 ,39.33003 
75 ,16.3801 ,1.00810 ,3.99467 ,39.19572 
76 ,16.5883 ,1.01020 ,3.98098 ,39.06141 
77 ,16.8123 ,1.01246 ,3.95018 ,38.75920 
78 ,17.0204 ,1.01452 ,3.94334 ,38.69205 
79 ,17.2282 ,1.01660 ,3.91596 ,38.42342 
80 ,17.4364 ,1.01863 ,3.89885 ,38.25553 
81 ,17.6446 ,1.02074 ,3.87490 ,38.02048 
82 ,17.8526 ,1.02285 ,3.84410 ,37.71828 
83 ,18.0768 ,1.02510 ,3.84067 ,37.68470 
84 ,18.2843 ,1.02720 ,3.83383 ,37.61754 
85 ,18.4928 ,1.02928 ,3.79961 ,37.28176 
86 ,18.7170 ,1.03147 ,3.79276 ,37.21460 
87 ,18.9252 ,1.03358 ,3.76881 ,36.97955 
88 ,19.1491 ,1.03586 ,3.73459 ,36.64377 
89 ,19.3728 ,1.03806 ,3.71063 ,36.40872 
90 ,19.5654 ,1.04013 ,3.71405 ,36.44230 
91 ,19.7894 ,1.04220 ,3.68668 ,36.17367 
92 ,20.0134 ,1.04434 ,3.67299 ,36.03936 
93 ,20.2217 ,1.04651 ,3.66272 ,35.93863 
94 ,20.4453 ,1.04878 ,3.63534 ,35.67000 
95 ,20.6539 ,1.05090 ,3.59428 ,35.26706 
96 ,20.8779 ,1.05310 ,3.59428 ,35.26706 
97 ,21.0701 ,1.05515 ,3.57375 ,35.06559 
98 ,21.2941 ,1.05718 ,3.54637 ,34.79696 
99 ,21.5180 ,1.05942 ,3.53610 ,34.69623 
100 ,21.7582 ,1.06183 ,3.51899 ,34.52834 
101 ,21.9821 ,1.06413 ,3.49161 ,34.25971 
102 ,22.1904 ,1.06617 ,3.47108 ,34.05824 
103 ,22.4140 ,1.06846 ,3.45055 ,33.85677 
104 ,22.6064 ,1.07037 ,3.43001 ,33.65530 
105 ,22.8306 ,1.07248 ,3.41975 ,33.55457 
106 ,23.0548 ,1.07480 ,3.39921 ,33.35310 
107 ,23.2627 ,1.07692 ,3.37526 ,33.11805 
108 ,23.4548 ,1.07887 ,3.36499 ,33.01731 
109 ,23.6470 ,1.08081 ,3.34788 ,32.84942 
110 ,23.8546 ,1.08292 ,3.32051 ,32.58080 
111 ,24.0470 ,1.08476 ,3.30339 ,32.41290 
112 ,24.2552 ,1.08681 ,3.28628 ,32.24501 
113 ,24.4469 ,1.08877 ,3.26917 ,32.07712 
114 ,24.6233 ,1.09067 ,3.26233 ,32.00996 
115 ,24.8633 ,1.09280 ,3.23495 ,31.74134 
116 ,25.1357 ,1.09538 ,3.21100 ,31.50629 
117 ,25.3597 ,1.09789 ,3.19388 ,31.33840 
118 ,25.5676 ,1.09992 ,3.15966 ,31.00262 
119 ,25.7599 ,1.10187 ,3.16993 ,31.10335 
120 ,25.9680 ,1.10395 ,3.14255 ,30.83472 
121 ,26.1920 ,1.10618 ,3.11860 ,30.59968 
122 ,26.4157 ,1.10844 ,3.10833 ,30.49894 
123 ,26.6239 ,1.11056 ,3.09464 ,30.36463 
124 ,26.8480 ,1.11274 ,3.06042 ,30.02884 
125 ,27.0564 ,1.11490 ,3.05015 ,29.92811 
126 ,27.2643 ,1.11691 ,3.03304 ,29.76022 
127 ,27.4724 ,1.11898 ,3.00909 ,29.52517 
128 ,27.6966 ,1.12125 ,2.99882 ,29.42444 
129 ,27.9204 ,1.12341 ,2.97829 ,29.22297 
130 ,28.1287 ,1.12558 ,2.94407 ,28.88718 
131 ,28.3529 ,1.12781 ,2.93380 ,28.78645 
132 ,28.5770 ,1.13007 ,2.92696 ,28.71929 
133 ,28.7850 ,1.13214 ,2.90300 ,28.48424 
134 ,28.9931 ,1.13418 ,2.87220 ,28.18204 
135 ,29.1851 ,1.13627 ,2.86193 ,28.08130 
136 ,29.3929 ,1.13816 ,2.84140 ,27.87983 
137 ,29.6012 ,1.14030 ,2.85509 ,28.01415 
138 ,29.8256 ,1.14248 ,2.80376 ,27.51047 
139 ,30.0331 ,1.14465 ,2.79007 ,27.37616 
140 ,30.2573 ,1.14686 ,2.77980 ,27.27542 
141 ,30.4653 ,1.14889 ,2.75243 ,27.00680 
142 ,30.6894 ,1.15115 ,2.72847 ,26.77175 
143 ,30.8975 ,1.15323 ,2.73531 ,26.83891 
144 ,31.1056 ,1.15529 ,2.69425 ,26.43597 
145 ,31.3136 ,1.15737 ,2.69767 ,26.46954 
146 ,31.5217 ,1.15947 ,2.68398 ,26.33523 
147 ,31.7297 ,1.16164 ,2.65318 ,26.03303 
148 ,31.9219 ,1.16361 ,2.64976 ,25.99945 
149 ,32.1139 ,1.16552 ,2.60869 ,25.59651 
150 ,32.3221 ,1.16749 ,2.61554 ,25.66367 
151 ,32.5301 ,1.16959 ,2.59158 ,25.42862 
152 ,32.7221 ,1.17163 ,2.58474 ,25.36146 
153 ,32.9463 ,1.17370 ,2.55736 ,25.09283 
154 ,33.1543 ,1.17580 ,2.53341 ,24.85779 
155 ,33.3626 ,1.17788 ,2.50945 ,24.62274 
156 ,33.5865 ,1.18008 ,2.49918 ,24.52200 
157 ,33.7947 ,1.18222 ,2.48550 ,24.38769 
158 ,34.0188 ,1.18445 ,2.46839 ,24.21980 
159 ,34.2268 ,1.18651 ,2.44443 ,23.98475 
160 ,34.4188 ,1.18858 ,2.44443 ,23.98475 
161 ,34.6270 ,1.19055 ,2.39310 ,23.48108 
162 ,34.8190 ,1.19259 ,2.39994 ,23.54823 
163 ,35.0270 ,1.19448 ,2.37941 ,23.34676 
164 ,35.2192 ,1.19654 ,2.37599 ,23.31318 
165 ,35.4273 ,1.19849 ,2.34519 ,23.01098 
166 ,35.6193 ,1.20057 ,2.34861 ,23.04456 
167 ,35.8274 ,1.20253 ,2.30412 ,22.60804 
168 ,36.0356 ,1.20467 ,2.30070 ,22.57446 
169 ,36.2596 ,1.20693 ,2.27674 ,22.33941 
170 ,36.4516 ,1.20887 ,2.24594 ,22.03721 
171 ,36.6598 ,1.21088 ,2.25621 ,22.13794 
172 ,36.8838 ,1.21304 ,2.23568 ,21.93647 
173 ,37.0759 ,1.21512 ,2.21515 ,21.73500 
174 ,37.2839 ,1.21707 ,2.19119 ,21.49996 
175 ,37.4920 ,1.21913 ,2.18777 ,21.46638 
176 ,37.6841 ,1.22121 ,2.16039 ,21.19775 
177 ,37.8923 ,1.22317 ,2.13986 ,20.99628 
178 ,38.0845 ,1.22518 ,2.13301 ,20.92912 
179 ,38.2764 ,1.22712 ,2.11248 ,20.72766 
180 ,38.5004 ,1.22923 ,2.10221 ,20.62692 
181 ,38.6925 ,1.23127 ,2.07141 ,20.32472 
182 ,38.9005 ,1.23324 ,2.07484 ,20.35829 
183 ,39.0927 ,1.23528 ,2.04404 ,20.05609 
184 ,39.3167 ,1.23732 ,2.04746 ,20.08967 
185 ,39.5248 ,1.23946 ,2.01324 ,19.75388 
186 ,39.7171 ,1.24153 ,2.00297 ,19.65315 
187 ,39.9251 ,1.24346 ,1.98586 ,19.48526 
188 ,40.1331 ,1.24557 ,1.98244 ,19.45168 
189 ,40.3412 ,1.24767 ,1.95506 ,19.18305 
190 ,40.5333 ,1.24968 ,1.94137 ,19.04874 
191 ,40.7575 ,1.25184 ,1.94137 ,19.04874 
192 ,40.9495 ,1.25385 ,1.91399 ,18.78011 
193 ,41.1576 ,1.25582 ,1.90373 ,18.67938 
194 ,41.3657 ,1.25789 ,1.87293 ,18.37717 
195 ,41.5737 ,1.25993 ,1.86608 ,18.31002 
196 ,41.7977 ,1.26216 ,1.83871 ,18.04139 
197 ,42.0059 ,1.26427 ,1.80449 ,17.70561 
198 ,42.2139 ,1.26632 ,1.81817 ,17.83992 
199 ,42.4221 ,1.26842 ,1.78737 ,17.53772 
200 ,42.6301 ,1.27052 ,1.77369 ,17.40340 
201 ,42.8542 ,1.27271 ,1.76342 ,17.30267 
202 ,43.0462 ,1.27478 ,1.73946 ,17.06762 
203 ,43.2544 ,1.27673 ,1.73946 ,17.06762 
204 ,43.4624 ,1.27883 ,1.70524 ,16.73184 
205 ,43.6706 ,1.28094 ,1.69155 ,16.59752 
206 ,43.8787 ,1.28301 ,1.69155 ,16.59752 
207 ,44.1027 ,1.28526 ,1.65391 ,16.22816 
208 ,44.3109 ,1.28733 ,1.65049 ,16.19458 
209 ,44.5029 ,1.28934 ,1.64022 ,16.09385 
210 ,44.6950 ,1.29126 ,1.61627 ,15.85880 
211 ,44.9031 ,1.29323 ,1.59231 ,15.62375 
212 ,45.1110 ,1.29536 ,1.59231 ,15.62375 
213 ,45.3032 ,1.29737 ,1.58547 ,15.55660 
214 ,45.5113 ,1.29931 ,1.54782 ,15.18724 
215 ,45.7034 ,1.30136 ,1.54782 ,15.18724 
216 ,45.9115 ,1.30332 ,1.54782 ,15.18724 
217 ,46.1196 ,1.30540 ,1.50676 ,14.78430 
218 ,46.3276 ,1.30759 ,1.48280 ,14.54925 
219 ,46.5356 ,1.30954 ,1.48965 ,14.61640 
220 ,46.7917 ,1.31205 ,1.46911 ,14.41493 
221 ,47.0797 ,1.31490 ,1.43147 ,14.04557 
222 ,47.3199 ,1.31734 ,1.41436 ,13.87768 
223 ,47.5600 ,1.31980 ,1.40067 ,13.74337 
224 ,47.7682 ,1.32187 ,1.38698 ,13.60906 
225 ,47.9763 ,1.32396 ,1.37671 ,13.50832 
226 ,48.1843 ,1.32606 ,1.33907 ,13.13896 
227 ,48.3923 ,1.32815 ,1.35276 ,13.27327 
228 ,48.5844 ,1.33019 ,1.31854 ,12.93749 
229 ,48.7925 ,1.33216 ,1.32538 ,13.00465 
230 ,48.9846 ,1.33419 ,1.28774 ,12.63528 
231 ,49.1926 ,1.33610 ,1.28774 ,12.63528 
232 ,49.4008 ,1.33827 ,1.26378 ,12.40024 
233 ,49.6249 ,1.34038 ,1.26378 ,12.40024 
234 ,49.8171 ,1.34250 ,1.25352 ,12.29950 
235 ,50.0252 ,1.34445 ,1.20218 ,11.79583 
236 ,50.2172 ,1.34649 ,1.21245 ,11.89656 
237 ,50.4252 ,1.34846 ,1.18850 ,11.66151 
238 ,50.6172 ,1.35045 ,1.18507 ,11.62794 
239 ,50.8255 ,1.35241 ,1.16796 ,11.46004 
240 ,51.0655 ,1.35473 ,1.16454 ,11.42647 
241 ,51.2734 ,1.35694 ,1.14058 ,11.19142 
242 ,51.4816 ,1.35903 ,1.10294 ,10.82206 
243 ,51.6897 ,1.36108 ,1.09267 ,10.72132 
244 ,51.9138 ,1.36327 ,1.08583 ,10.65416 
245 ,52.1220 ,1.36538 ,1.05845 ,10.38554 
246 ,52.3461 ,1.36764 ,1.03792 ,10.18407 
247 ,52.5541 ,1.36974 ,1.04476 ,10.25123 
248 ,52.7462 ,1.37174 ,1.01739 ,9.98260 
249 ,52.9703 ,1.37394 ,1.01739 ,9.98260 
250 ,53.1622 ,1.37590 ,0.99001 ,9.71397 
251 ,53.3543 ,1.37783 ,0.99001 ,9.71397 
252 ,53.5625 ,1.37980 ,1.24325 ,12.19877 
253 ,53.7706 ,1.38192 ,1.27063 ,12.46739 
254 ,53.9626 ,1.38395 ,1.23983 ,12.16519 
255 ,54.1546 ,1.38584 ,1.26378 ,12.40024 
256 ,54.3467 ,1.38772 ,1.22272 ,11.99730 
257 ,54.5550 ,1.38972 ,1.21929 ,11.96372 
258 ,54.7631 ,1.39182 ,1.20561 ,11.82941 
259 ,54.9550 ,1.39383 ,1.21929 ,11.96372 
260 ,55.1791 ,1.39596 ,1.19192 ,11.69509 
261 ,55.3713 ,1.39800 ,1.19192 ,11.69509 
262 ,55.5634 ,1.39992 ,1.17138 ,11.49362 
263 ,55.7554 ,1.40183 ,1.18507 ,11.62794 
264 ,55.9635 ,1.40379 ,1.14743 ,11.25857 
265 ,56.1556 ,1.40584 ,1.16112 ,11.39289 
266 ,56.3797 ,1.40793 ,1.14058 ,11.19142 
267 ,56.6196 ,1.41030 ,1.13032 ,11.09068 
268 ,56.8596 ,1.41271 ,1.10294 ,10.82206 
269 ,57.0679 ,1.41485 ,1.10636 ,10.85563 
270 ,57.2760 ,1.41695 ,1.08925 ,10.68774 
271 ,57.4841 ,1.41902 ,1.07899 ,10.58701 
272 ,57.6920 ,1.42107 ,1.08583 ,10.65416 
273 ,57.9003 ,1.42317 ,1.07214 ,10.51985 
274 ,58.1082 ,1.42526 ,1.08241 ,10.62059 
275 ,58.3163 ,1.42728 ,1.07214 ,10.51985 
276 ,58.5405 ,1.42964 ,1.04819 ,10.28480 
277 ,58.7486 ,1.43167 ,1.05845 ,10.38554 
278 ,58.9567 ,1.43370 ,1.05845 ,10.38554 
279 ,59.1647 ,1.43591 ,1.03450 ,10.15049 
280 ,59.3729 ,1.43788 ,1.03108 ,10.11691 
281 ,59.5809 ,1.43995 ,1.01054 ,9.91544 
282 ,59.7891 ,1.44203 ,1.01739 ,9.98260 
283 ,59.9970 ,1.44412 ,1.00028 ,9.81471 
284 ,60.2053 ,1.44617 ,1.00370 ,9.84829 
285 ,60.4132 ,1.44826 ,1.01396 ,9.94902 
286 ,60.6054 ,1.45033 ,0.97974 ,9.61324 
287 ,60.8296 ,1.45240 ,0.98317 ,9.64682 
288 ,61.0375 ,1.45454 ,0.95579 ,9.37819 
289 ,61.2457 ,1.45656 ,0.96263 ,9.44535 
290 ,61.4537 ,1.45868 ,0.95237 ,9.34461 
291 ,61.6458 ,1.46072 ,0.93525 ,9.17672 
292 ,61.8700 ,1.46288 ,0.95579 ,9.37819 
293 ,62.0941 ,1.46499 ,0.93868 ,9.21030 
294 ,62.3020 ,1.46713 ,0.91130 ,8.94167 
295 ,62.4941 ,1.46919 ,0.93525 ,9.17672 
296 ,62.7023 ,1.47118 ,0.89419 ,8.77378 
297 ,62.8943 ,1.47318 ,0.91130 ,8.94167 
298 ,63.0863 ,1.47515 ,0.89761 ,8.80736 
299 ,63.2945 ,1.47707 ,0.90103 ,8.84094 
300 ,63.4866 ,1.47913 ,0.88050 ,8.63947 
301 ,63.6947 ,1.48105 ,0.88050 ,8.63947 
302 ,63.8867 ,1.48312 ,0.86339 ,8.47158 
303 ,64.1268 ,1.48532 ,0.88050 ,8.63947 
304 ,64.3348 ,1.48744 ,0.86681 ,8.50515 
305 ,64.5428 ,1.48956 ,0.84970 ,8.33726 
306 ,64.7511 ,1.49165 ,0.86681 ,8.50515 
307 ,64.9752 ,1.49382 ,0.84970 ,8.33726 
308 ,65.1993 ,1.49609 ,0.85312 ,8.37084 
309 ,65.4073 ,1.49821 ,0.86339 ,8.47158 
310 ,65.6154 ,1.50025 ,0.83601 ,8.20295 
311 ,65.8074 ,1.50232 ,0.82575 ,8.10221 
312 ,66.0156 ,1.50429 ,0.82232 ,8.06864 
313 ,66.2076 ,1.50633 ,0.82232 ,8.06864 
314 ,66.4158 ,1.50826 ,0.80863 ,7.93432 
315 ,66.6238 ,1.51035 ,0.81890 ,8.03506 
316 ,66.8159 ,1.51240 ,0.80521 ,7.90074 
317 ,67.0080 ,1.51434 ,0.79495 ,7.80001 
318 ,67.2161 ,1.51625 ,0.79152 ,7.76643 
319 ,67.4403 ,1.51851 ,0.78468 ,7.69927 
320 ,67.6642 ,1.52078 ,0.79495 ,7.80001 
321 ,67.8563 ,1.52280 ,0.78468 ,7.69927 
322 ,68.0646 ,1.52476 ,0.78810 ,7.73285 
323 ,68.2565 ,1.52679 ,0.76757 ,7.53138 
324 ,68.4646 ,1.52877 ,0.78126 ,7.66570 
325 ,68.7047 ,1.53115 ,0.77099 ,7.56496 
326 ,68.9129 ,1.53323 ,0.75388 ,7.39707 
327 ,69.1049 ,1.53529 ,0.75046 ,7.36349 
328 ,69.3130 ,1.53721 ,0.76757 ,7.53138 
329 ,69.5210 ,1.53932 ,0.75730 ,7.43065 
330 ,69.7291 ,1.54141 ,0.76415 ,7.49780 
331 ,69.9212 ,1.54345 ,0.72992 ,7.16202 
332 ,70.1132 ,1.54536 ,0.75388 ,7.39707 
333 ,70.3053 ,1.54728 ,0.73335 ,7.19560 
334 ,70.5134 ,1.54922 ,0.72650 ,7.12844 
335 ,70.7374 ,1.55144 ,0.72308 ,7.09486 
336 ,70.9456 ,1.55355 ,0.74704 ,7.32991 
337 ,71.1538 ,1.55566 ,0.72650 ,7.12844 
338 ,71.3619 ,1.55776 ,0.71624 ,7.02771 
339 ,71.5538 ,1.55976 ,0.74019 ,7.26276 
340 ,71.7618 ,1.56171 ,0.72308 ,7.09486 
341 ,71.9700 ,1.56380 ,0.72650 ,7.12844 
342 ,72.1621 ,1.56585 ,0.69913 ,6.85982 
343 ,72.3542 ,1.56779 ,0.70597 ,6.92697 
344 ,72.5623 ,1.56977 ,0.69913 ,6.85982 
345 ,72.7705 ,1.57184 ,0.69570 ,6.82624 
346 ,72.9944 ,1.57407 ,0.70597 ,6.92697 
347 ,73.2026 ,1.57613 ,0.69913 ,6.85982 
348 ,73.3946 ,1.57814 ,0.69913 ,6.85982 
349 ,73.5867 ,1.58011 ,0.70597 ,6.92697 
350 ,73.7949 ,1.58206 ,0.67517 ,6.62477 
351 ,74.0028 ,1.58410 ,0.68201 ,6.69193 
352 ,74.2110 ,1.58616 ,0.68544 ,6.72550 
353 ,74.4031 ,1.58827 ,0.67517 ,6.62477 
354 ,74.6113 ,1.59019 ,0.68201 ,6.69193 
355 ,74.8193 ,1.59226 ,0.67859 ,6.65835 
356 ,75.0114 ,1.59432 ,0.68201 ,6.69193 
357 ,75.2515 ,1.59652 ,0.66833 ,6.55761 
358 ,75.4436 ,1.59863 ,0.67517 ,6.62477 
359 ,75.6356 ,1.60054 ,0.65806 ,6.45688 
360 ,75.8437 ,1.60255 ,0.66490 ,6.52403 
361 ,76.0358 ,1.60457 ,0.66148 ,6.49046 
362 ,76.2438 ,1.60655 ,0.68201 ,6.69193 
363 ,76.4360 ,1.60856 ,0.65121 ,6.38972 
364 ,76.6440 ,1.61051 ,0.66148 ,6.49046 
365 ,76.8520 ,1.61258 ,0.66148 ,6.49046 
366 ,77.0440 ,1.61465 ,0.67175 ,6.59119 
367 ,77.2523 ,1.61660 ,0.65806 ,6.45688 
368 ,77.4764 ,1.61886 ,0.65806 ,6.45688 
369 ,77.6845 ,1.62093 ,0.66148 ,6.49046 
370 ,77.8926 ,1.62299 ,0.65121 ,6.38972 
371 ,78.1008 ,1.62509 ,0.65806 ,6.45688 
372 ,78.3088 ,1.62716 ,0.65806 ,6.45688 
373 ,78.5328 ,1.62934 ,0.64779 ,6.35614 
374 ,78.7410 ,1.63149 ,0.65121 ,6.38972 
375 ,78.9491 ,1.63360 ,0.65806 ,6.45688 
376 ,79.1572 ,1.63563 ,0.63753 ,6.25541 
377 ,79.3652 ,1.63772 ,0.64437 ,6.32256 
378 ,79.5732 ,1.63981 ,0.62042 ,6.08752 
379 ,79.7814 ,1.64188 ,0.62384 ,6.12109 
380 ,79.9736 ,1.64390 ,0.63753 ,6.25541 
381 ,80.1655 ,1.64583 ,0.63753 ,6.25541 
382 ,80.3577 ,1.64774 ,0.62042 ,6.08752 
383 ,80.5660 ,1.64973 ,0.62726 ,6.15467 
384 ,80.7901 ,1.65194 ,0.61699 ,6.05394 
385 ,81.0141 ,1.65419 ,0.61699 ,6.05394 
386 ,81.2224 ,1.65624 ,0.62384 ,6.12109 
387 ,81.4466 ,1.65854 ,0.63068 ,6.18825 
388 ,81.6546 ,1.66064 ,0.67175 ,6.59119 
389 ,81.8783 ,1.66287 ,0.69570 ,6.82624 
390 ,82.0866 ,1.66494 ,0.69913 ,6.85982 
391 ,82.2948 ,1.66696 ,0.68201 ,6.69193 
392 ,82.5030 ,1.66909 ,0.70597 ,6.92697 
393 ,82.7268 ,1.67131 ,0.70255 ,6.89340 
394 ,82.9350 ,1.67341 ,0.69570 ,6.82624 
395 ,83.1432 ,1.67550 ,0.71281 ,6.99413 
396 ,83.3513 ,1.67756 ,0.69570 ,6.82624 
397 ,83.5594 ,1.67970 ,0.70255 ,6.89340 
398 ,83.7675 ,1.68170 ,0.70255 ,6.89340 
399 ,83.9911 ,1.68402 ,0.69913 ,6.85982 
400 ,84.1997 ,1.68607 ,0.71281 ,6.99413 
401 ,84.4238 ,1.68827 ,0.72308 ,7.09486 
402 ,84.6318 ,1.69036 ,0.69570 ,6.82624 
403 ,84.8399 ,1.69241 ,0.71624 ,7.02771 
404 ,85.0636 ,1.69469 ,0.71281 ,6.99413 
405 ,85.2879 ,1.69689 ,0.70597 ,6.92697 
406 ,85.5122 ,1.69920 ,0.70255 ,6.89340 
407 ,85.7203 ,1.70129 ,0.70939 ,6.96055 
408 ,85.9604 ,1.70358 ,0.70939 ,6.96055 
409 ,86.1520 ,1.70569 ,0.71624 ,7.02771 
410 ,86.3766 ,1.70783 ,0.69228 ,6.79266 
411 ,86.6008 ,1.71009 ,0.72650 ,7.12844 
412 ,86.8085 ,1.71225 ,0.71624 ,7.02771 
413 ,87.0167 ,1.71420 ,0.70597 ,6.92697 
414 ,87.2407 ,1.71640 ,0.72650 ,7.12844 
415 ,87.4808 ,1.71875 ,0.71624 ,7.02771 
416 ,87.7050 ,1.72114 ,0.70597 ,6.92697 
417 ,87.8971 ,1.72317 ,0.68201 ,6.69193 
418 ,88.1211 ,1.72519 ,0.72308 ,7.09486 
419 ,88.3454 ,1.72738 ,0.70939 ,6.96055 
420 ,88.5694 ,1.72971 ,0.69913 ,6.85982 
421 ,88.7936 ,1.73200 ,0.71281 ,6.99413 
422 ,89.0175 ,1.73420 ,0.70939 ,6.96055 
423 ,89.2095 ,1.73624 ,0.71966 ,7.06129 
424 ,89.4176 ,1.73819 ,0.71281 ,6.99413 
425 ,89.6254 ,1.74031 ,0.70597 ,6.92697 
426 ,89.8340 ,1.74239 ,0.70597 ,6.92697 
427 ,90.0418 ,1.74448 ,0.71966 ,7.06129 
428 ,90.2501 ,1.74653 ,0.68886 ,6.75908 
429 ,90.4582 ,1.74873 ,0.70255 ,6.89340 
430 ,90.6659 ,1.75070 ,0.71966 ,7.06129 
431 ,90.8745 ,1.75280 ,0.69913 ,6.85982 
432 ,91.0984 ,1.75501 ,0.71624 ,7.02771 
433 ,91.3226 ,1.75726 ,0.71966 ,7.06129 
434 ,91.5146 ,1.75930 ,0.70939 ,6.96055 
435 ,91.7223 ,1.76133 ,0.71624 ,7.02771 
436 ,91.9466 ,1.76347 ,0.71281 ,6.99413 
437 ,92.1709 ,1.76577 ,0.70939 ,6.96055 
438 ,92.3950 ,1.76784 ,0.71281 ,6.99413 
439 ,92.6187 ,1.77022 ,0.71624 ,7.02771 
440 ,92.8269 ,1.77229 ,0.71281 ,6.99413 
441 ,93.0511 ,1.77459 ,0.69913 ,6.85982 
442 ,93.2752 ,1.77675 ,0.70597 ,6.92697 
443 ,93.4833 ,1.77882 ,0.71281 ,6.99413 
444 ,93.6916 ,1.78097 ,0.71624 ,7.02771 
445 ,93.9152 ,1.78316 ,0.70597 ,6.92697 
446 ,94.1234 ,1.78527 ,0.71966 ,7.06129 
447 ,94.3317 ,1.78739 ,0.70255 ,6.89340 
448 ,94.5557 ,1.78959 ,0.69913 ,6.85982 
449 ,94.7641 ,1.79167 ,0.71966 ,7.06129 
450 ,94.9879 ,1.79390 ,0.71281 ,6.99413 
451 ,95.2122 ,1.79610 ,0.69913 ,6.85982 
452 ,95.4201 ,1.79820 ,0.71624 ,7.02771 
453 ,95.6280 ,1.80029 ,0.70939 ,6.96055 
454 ,95.8362 ,1.80238 ,0.70597 ,6.92697 
455 ,96.0445 ,1.80444 ,0.71624 ,7.02771 
456 ,96.2681 ,1.80663 ,0.70597 ,6.92697 
457 ,96.4767 ,1.80875 ,0.70939 ,6.96055 
458 ,96.6848 ,1.81084 ,0.72650 ,7.12844 
459 ,96.8929 ,1.81288 ,0.69570 ,6.82624 
460 ,97.1007 ,1.81502 ,0.71624 ,7.02771 
461 ,97.3086 ,1.81709 ,0.70597 ,6.92697 
462 ,97.5333 ,1.81935 ,0.71281 ,6.99413 
463 ,97.7569 ,1.82154 ,0.71966 ,7.06129 
464 ,97.9655 ,1.82366 ,0.71281 ,6.99413 
465 ,98.1734 ,1.82575 ,0.70255 ,6.89340 
466 ,98.3973 ,1.82796 ,0.69913 ,6.85982 
467 ,98.6532 ,1.83052 ,0.71966 ,7.06129 
