Data stamp = , 03-06-2022 04:38:32 306

Calibration Values: 
Slope = , 26.54 , g/V 
Offset Voltage at no contact = , -0.501760 , V 

No , Time , Stage Position ,   Mass , Force 
   ,  (s) ,      (mm)      ,   (g)  , (mN)  

1 ,0.0000 ,0.84949 ,5.29852 ,51.98905 
2 ,0.2119 ,0.84959 ,5.29167 ,51.92190 
3 ,0.6761 ,0.85095 ,5.29510 ,51.95548 
4 ,0.9162 ,0.85346 ,5.30194 ,52.02263 
5 ,1.1247 ,0.85560 ,5.29510 ,51.95548 
6 ,1.3167 ,0.85749 ,5.29167 ,51.92190 
7 ,1.5250 ,0.85946 ,5.27456 ,51.75401 
8 ,1.7489 ,0.86171 ,5.26087 ,51.61969 
9 ,2.0051 ,0.86416 ,5.24718 ,51.48538 
10 ,2.2289 ,0.86658 ,5.23350 ,51.35107 
11 ,2.4531 ,0.86873 ,5.21981 ,51.21675 
12 ,2.6614 ,0.87085 ,5.19585 ,50.98170 
13 ,2.8854 ,0.87315 ,5.15821 ,50.61234 
14 ,3.1415 ,0.87564 ,5.13768 ,50.41087 
15 ,3.3656 ,0.87787 ,5.11372 ,50.17583 
16 ,3.5737 ,0.87998 ,5.11714 ,50.20940 
17 ,3.7819 ,0.88204 ,5.07950 ,49.84004 
18 ,3.9738 ,0.88408 ,5.04185 ,49.47068 
19 ,4.1821 ,0.88606 ,5.04528 ,49.50426 
20 ,4.4062 ,0.88832 ,5.00763 ,49.13490 
21 ,4.6303 ,0.89052 ,4.99737 ,49.03416 
22 ,4.8703 ,0.89296 ,4.96657 ,48.73196 
23 ,5.1103 ,0.89525 ,4.95630 ,48.63122 
24 ,5.3344 ,0.89749 ,4.93235 ,48.39618 
25 ,5.5584 ,0.89982 ,4.91866 ,48.26186 
26 ,5.7827 ,0.90207 ,4.87759 ,47.85892 
27 ,6.0066 ,0.90428 ,4.85021 ,47.59030 
28 ,6.2149 ,0.90638 ,4.84337 ,47.52314 
29 ,6.4228 ,0.90848 ,4.81599 ,47.25451 
30 ,6.6311 ,0.91058 ,4.78519 ,46.95231 
31 ,6.8551 ,0.91274 ,4.78177 ,46.91873 
32 ,7.0632 ,0.91488 ,4.76466 ,46.75084 
33 ,7.2872 ,0.91709 ,4.73044 ,46.41506 
34 ,7.4951 ,0.91916 ,4.72017 ,46.31432 
35 ,7.7036 ,0.92122 ,4.69622 ,46.07927 
36 ,7.9277 ,0.92354 ,4.67226 ,45.84422 
37 ,8.1356 ,0.92556 ,4.66884 ,45.81065 
38 ,8.3437 ,0.92768 ,4.62435 ,45.37413 
39 ,8.5355 ,0.92967 ,4.62093 ,45.34055 
40 ,8.7440 ,0.93170 ,4.59355 ,45.07192 
41 ,8.9677 ,0.93390 ,4.55933 ,44.73614 
42 ,9.1756 ,0.93595 ,4.56617 ,44.80330 
43 ,9.3842 ,0.93807 ,4.53195 ,44.46751 
44 ,9.5762 ,0.94009 ,4.51142 ,44.26604 
45 ,9.8003 ,0.94222 ,4.50457 ,44.19889 
46 ,10.0246 ,0.94445 ,4.47378 ,43.89668 
47 ,10.2165 ,0.94649 ,4.46009 ,43.76237 
48 ,10.4248 ,0.94845 ,4.44298 ,43.59448 
49 ,10.6484 ,0.95071 ,4.41218 ,43.29227 
50 ,10.8568 ,0.95276 ,4.41218 ,43.29227 
51 ,11.0648 ,0.95483 ,4.37111 ,42.88933 
52 ,11.2731 ,0.95697 ,4.37111 ,42.88933 
53 ,11.4972 ,0.95913 ,4.35400 ,42.72144 
54 ,11.7053 ,0.96124 ,4.32320 ,42.41924 
55 ,11.9129 ,0.96333 ,4.30609 ,42.25135 
56 ,12.1213 ,0.96540 ,4.29240 ,42.11703 
57 ,12.3455 ,0.96769 ,4.26160 ,41.81483 
58 ,12.5536 ,0.96976 ,4.25133 ,41.71409 
59 ,12.7617 ,0.97185 ,4.21711 ,41.37831 
60 ,12.9854 ,0.97411 ,4.19316 ,41.14326 
61 ,13.2099 ,0.97627 ,4.17947 ,41.00895 
62 ,13.4340 ,0.97854 ,4.16236 ,40.84106 
63 ,13.6579 ,0.98077 ,4.14867 ,40.70674 
64 ,13.8661 ,0.98287 ,4.12814 ,40.50527 
65 ,14.0581 ,0.98491 ,4.10076 ,40.23665 
66 ,14.2984 ,0.98710 ,4.07338 ,39.96802 
67 ,14.5221 ,0.98943 ,4.07680 ,40.00160 
68 ,14.7306 ,0.99155 ,4.03232 ,39.56508 
69 ,14.9546 ,0.99372 ,4.01178 ,39.36361 
70 ,15.1626 ,0.99585 ,4.01178 ,39.36361 
71 ,15.4024 ,0.99815 ,3.97414 ,38.99425 
72 ,15.6109 ,1.00032 ,3.94676 ,38.72562 
73 ,15.8349 ,1.00255 ,3.94676 ,38.72562 
74 ,16.0590 ,1.00488 ,3.93992 ,38.65847 
75 ,16.2832 ,1.00701 ,3.91596 ,38.42342 
76 ,16.5073 ,1.00926 ,3.86805 ,37.95332 
77 ,16.7153 ,1.01149 ,3.85779 ,37.85259 
78 ,16.9394 ,1.01356 ,3.85436 ,37.81901 
79 ,17.1311 ,1.01564 ,3.82014 ,37.48323 
80 ,17.3714 ,1.01775 ,3.80987 ,37.38249 
81 ,17.5795 ,1.02003 ,3.78934 ,37.18102 
82 ,17.8038 ,1.02226 ,3.77565 ,37.04671 
83 ,18.0118 ,1.02431 ,3.74485 ,36.74450 
84 ,18.2199 ,1.02643 ,3.73459 ,36.64377 
85 ,18.4441 ,1.02861 ,3.71405 ,36.44230 
86 ,18.6519 ,1.03071 ,3.67983 ,36.10652 
87 ,18.8602 ,1.03275 ,3.67299 ,36.03936 
88 ,19.0681 ,1.03484 ,3.64903 ,35.80431 
89 ,19.2764 ,1.03707 ,3.62166 ,35.53569 
90 ,19.4846 ,1.03903 ,3.61823 ,35.50211 
91 ,19.6921 ,1.04110 ,3.58401 ,35.16632 
92 ,19.9166 ,1.04329 ,3.58401 ,35.16632 
93 ,20.1407 ,1.04555 ,3.56690 ,34.99843 
94 ,20.3487 ,1.04765 ,3.53610 ,34.69623 
95 ,20.5566 ,1.04976 ,3.51899 ,34.52834 
96 ,20.7649 ,1.05186 ,3.51215 ,34.46118 
97 ,20.9887 ,1.05408 ,3.47108 ,34.05824 
98 ,21.1811 ,1.05612 ,3.46081 ,33.95751 
99 ,21.3730 ,1.05805 ,3.44713 ,33.82319 
100 ,21.5813 ,1.05999 ,3.45055 ,33.85677 
101 ,21.7893 ,1.06211 ,3.40606 ,33.42025 
102 ,21.9810 ,1.06405 ,3.39579 ,33.31952 
103 ,22.1896 ,1.06601 ,3.35815 ,32.95016 
104 ,22.4137 ,1.06833 ,3.34104 ,32.78227 
105 ,22.6217 ,1.07039 ,3.34788 ,32.84942 
106 ,22.8299 ,1.07247 ,3.31708 ,32.54722 
107 ,23.0535 ,1.07470 ,3.29313 ,32.31217 
108 ,23.2459 ,1.07677 ,3.29997 ,32.37933 
109 ,23.4541 ,1.07874 ,3.26233 ,32.00996 
110 ,23.6621 ,1.08081 ,3.24522 ,31.84207 
111 ,23.8542 ,1.08286 ,3.23153 ,31.70776 
112 ,24.0624 ,1.08477 ,3.22468 ,31.64060 
113 ,24.2703 ,1.08687 ,3.18704 ,31.27124 
114 ,24.4783 ,1.08887 ,3.16993 ,31.10335 
115 ,24.6864 ,1.09101 ,3.15282 ,30.93546 
116 ,24.8948 ,1.09312 ,3.14255 ,30.83472 
117 ,25.1348 ,1.09551 ,3.11518 ,30.56610 
118 ,25.3423 ,1.09755 ,3.12202 ,30.63325 
119 ,25.5509 ,1.09961 ,3.08095 ,30.23031 
120 ,25.7749 ,1.10191 ,3.05700 ,29.99527 
121 ,25.9831 ,1.10397 ,3.06384 ,30.06242 
122 ,26.1912 ,1.10611 ,3.01935 ,29.62590 
123 ,26.3988 ,1.10808 ,3.00567 ,29.49159 
124 ,26.6234 ,1.11034 ,3.00567 ,29.49159 
125 ,26.8473 ,1.11258 ,2.97487 ,29.18939 
126 ,27.0555 ,1.11467 ,2.95091 ,28.95434 
127 ,27.2793 ,1.11694 ,2.94064 ,28.85360 
128 ,27.4873 ,1.11901 ,2.93038 ,28.75287 
129 ,27.7112 ,1.12139 ,2.90642 ,28.51782 
130 ,27.9193 ,1.12335 ,2.87220 ,28.18204 
131 ,28.1115 ,1.12535 ,2.87220 ,28.18204 
132 ,28.3199 ,1.12738 ,2.85509 ,28.01415 
133 ,28.5441 ,1.12955 ,2.82771 ,27.74552 
134 ,28.7680 ,1.13178 ,2.81402 ,27.61121 
135 ,28.9925 ,1.13410 ,2.80034 ,27.47689 
136 ,29.1844 ,1.13614 ,2.77638 ,27.24185 
137 ,29.4085 ,1.13818 ,2.75927 ,27.07395 
138 ,29.6166 ,1.14033 ,2.74558 ,26.93964 
139 ,29.8242 ,1.14232 ,2.73874 ,26.87248 
140 ,30.0329 ,1.14446 ,2.70452 ,26.53670 
141 ,30.2569 ,1.14672 ,2.68740 ,26.36881 
142 ,30.4649 ,1.14879 ,2.68740 ,26.36881 
143 ,30.6891 ,1.15103 ,2.64976 ,25.99945 
144 ,30.9127 ,1.15322 ,2.62581 ,25.76440 
145 ,31.1209 ,1.15529 ,2.62923 ,25.79798 
146 ,31.3293 ,1.15739 ,2.59843 ,25.49577 
147 ,31.5372 ,1.15949 ,2.57447 ,25.26073 
148 ,31.7454 ,1.16164 ,2.56763 ,25.19357 
149 ,31.9531 ,1.16367 ,2.54025 ,24.92494 
150 ,32.1774 ,1.16590 ,2.52656 ,24.79063 
151 ,32.4018 ,1.16809 ,2.50945 ,24.62274 
152 ,32.5938 ,1.17020 ,2.48892 ,24.42127 
153 ,32.8019 ,1.17208 ,2.48207 ,24.35411 
154 ,33.0258 ,1.17437 ,2.46839 ,24.21980 
155 ,33.2339 ,1.17650 ,2.43074 ,23.85044 
156 ,33.4579 ,1.17867 ,2.41021 ,23.64897 
157 ,33.6662 ,1.18080 ,2.41705 ,23.71612 
158 ,33.8743 ,1.18292 ,2.38968 ,23.44750 
159 ,34.0983 ,1.18515 ,2.36230 ,23.17887 
160 ,34.3064 ,1.18716 ,2.37256 ,23.27961 
161 ,34.5146 ,1.18928 ,2.32465 ,22.80951 
162 ,34.7227 ,1.19136 ,2.31439 ,22.70877 
163 ,34.9467 ,1.19358 ,2.30412 ,22.60804 
164 ,35.1707 ,1.19587 ,2.28359 ,22.40657 
165 ,35.3949 ,1.19811 ,2.24594 ,22.03721 
166 ,35.6025 ,1.20011 ,2.25279 ,22.10437 
167 ,35.8111 ,1.20218 ,2.23568 ,21.93647 
168 ,36.0189 ,1.20431 ,2.20830 ,21.66785 
169 ,36.2271 ,1.20638 ,2.20830 ,21.66785 
170 ,36.4348 ,1.20858 ,2.17066 ,21.29849 
171 ,36.7554 ,1.21119 ,2.14670 ,21.06344 
172 ,36.9796 ,1.21384 ,2.13644 ,20.96270 
173 ,37.2034 ,1.21614 ,2.11590 ,20.76123 
174 ,37.3958 ,1.21821 ,2.10564 ,20.66050 
175 ,37.6198 ,1.22027 ,2.07826 ,20.39187 
176 ,37.8439 ,1.22254 ,2.07826 ,20.39187 
177 ,38.0360 ,1.22461 ,2.04746 ,20.08967 
178 ,38.2601 ,1.22669 ,2.03035 ,19.92178 
179 ,38.4681 ,1.22878 ,2.03035 ,19.92178 
180 ,38.6758 ,1.23098 ,2.00639 ,19.68673 
181 ,38.8844 ,1.23299 ,1.99270 ,19.55241 
182 ,39.0923 ,1.23506 ,1.96190 ,19.25021 
183 ,39.3166 ,1.23726 ,1.94822 ,19.11590 
184 ,39.5243 ,1.23948 ,1.93453 ,18.98158 
185 ,39.7483 ,1.24158 ,1.92768 ,18.91443 
186 ,39.9728 ,1.24381 ,1.89346 ,18.57864 
187 ,40.1971 ,1.24606 ,1.87293 ,18.37717 
188 ,40.4049 ,1.24816 ,1.86608 ,18.31002 
189 ,40.6130 ,1.25023 ,1.84555 ,18.10855 
190 ,40.8051 ,1.25229 ,1.83528 ,18.00781 
191 ,41.0130 ,1.25430 ,1.82844 ,17.94066 
192 ,41.2214 ,1.25628 ,1.79422 ,17.60487 
193 ,41.4291 ,1.25838 ,1.79422 ,17.60487 
194 ,41.6535 ,1.26060 ,1.77369 ,17.40340 
195 ,41.8617 ,1.26272 ,1.75315 ,17.20193 
196 ,42.0691 ,1.26479 ,1.74631 ,17.13478 
197 ,42.2775 ,1.26688 ,1.71551 ,16.83257 
198 ,42.5020 ,1.26909 ,1.69840 ,16.66468 
199 ,42.7259 ,1.27137 ,1.70182 ,16.69826 
200 ,42.9339 ,1.27347 ,1.66418 ,16.32890 
201 ,43.1416 ,1.27552 ,1.65733 ,16.26174 
202 ,43.3660 ,1.27771 ,1.64022 ,16.09385 
203 ,43.5740 ,1.27981 ,1.61627 ,15.85880 
204 ,43.7982 ,1.28205 ,1.59231 ,15.62375 
205 ,44.0064 ,1.28417 ,1.59916 ,15.69091 
206 ,44.2303 ,1.28635 ,1.57862 ,15.48944 
207 ,44.4545 ,1.28873 ,1.55809 ,15.28797 
208 ,44.6787 ,1.29090 ,1.52729 ,14.98577 
209 ,44.8865 ,1.29297 ,1.53413 ,15.05292 
210 ,45.1107 ,1.29521 ,1.51360 ,14.85145 
211 ,45.3349 ,1.29744 ,1.47938 ,14.51567 
212 ,45.5590 ,1.29973 ,1.47596 ,14.48209 
213 ,45.7832 ,1.30187 ,1.44516 ,14.17989 
214 ,46.0070 ,1.30421 ,1.45885 ,14.31420 
215 ,46.2314 ,1.30638 ,1.43147 ,14.04557 
216 ,46.4551 ,1.30865 ,1.39725 ,13.70979 
217 ,46.6793 ,1.31088 ,1.38698 ,13.60906 
218 ,46.9036 ,1.31311 ,1.35960 ,13.34043 
219 ,47.0957 ,1.31512 ,1.36645 ,13.40759 
220 ,47.3198 ,1.31725 ,1.34249 ,13.17254 
221 ,47.5275 ,1.31937 ,1.34249 ,13.17254 
222 ,47.8640 ,1.32211 ,1.31169 ,12.87033 
223 ,48.0877 ,1.32496 ,1.28774 ,12.63528 
224 ,48.2958 ,1.32700 ,1.27063 ,12.46739 
225 ,48.5357 ,1.32938 ,1.24325 ,12.19877 
226 ,48.7598 ,1.33164 ,1.23298 ,12.09803 
227 ,48.9845 ,1.33388 ,1.21929 ,11.96372 
228 ,49.2245 ,1.33642 ,1.19876 ,11.76225 
229 ,49.4327 ,1.33843 ,1.18850 ,11.66151 
230 ,49.6565 ,1.34060 ,1.16796 ,11.46004 
231 ,49.8644 ,1.34267 ,1.15770 ,11.35931 
232 ,50.0889 ,1.34493 ,1.13716 ,11.15784 
233 ,50.3128 ,1.34716 ,1.13374 ,11.12426 
234 ,50.5211 ,1.34930 ,1.10294 ,10.82206 
235 ,50.7451 ,1.35152 ,1.09610 ,10.75490 
236 ,50.9368 ,1.35359 ,1.07899 ,10.58701 
237 ,51.1453 ,1.35563 ,1.05845 ,10.38554 
238 ,51.3534 ,1.35764 ,1.05503 ,10.35196 
239 ,51.5773 ,1.35983 ,1.03108 ,10.11691 
240 ,51.7855 ,1.36190 ,1.02081 ,10.01618 
241 ,51.9939 ,1.36402 ,0.99685 ,9.78113 
242 ,52.2336 ,1.36631 ,0.98659 ,9.68039 
243 ,52.4418 ,1.36848 ,0.96948 ,9.51250 
244 ,52.6499 ,1.37051 ,0.96263 ,9.44535 
245 ,52.8741 ,1.37281 ,0.95237 ,9.34461 
246 ,53.0819 ,1.37488 ,0.90446 ,8.87451 
247 ,53.2897 ,1.37701 ,0.93868 ,9.21030 
248 ,53.4984 ,1.37907 ,0.89761 ,8.80736 
249 ,53.7224 ,1.38122 ,0.87366 ,8.57231 
250 ,53.9305 ,1.38340 ,0.88050 ,8.63947 
251 ,54.1384 ,1.38542 ,0.84286 ,8.27011 
252 ,54.3621 ,1.38768 ,1.00712 ,9.88186 
253 ,54.5706 ,1.38978 ,1.13716 ,11.15784 
254 ,54.7788 ,1.39182 ,1.14058 ,11.19142 
255 ,55.0030 ,1.39406 ,1.13716 ,11.15784 
256 ,55.2108 ,1.39618 ,1.14743 ,11.25857 
257 ,55.4346 ,1.39836 ,1.13032 ,11.09068 
258 ,55.6591 ,1.40059 ,1.11663 ,10.95637 
259 ,55.8671 ,1.40275 ,1.10636 ,10.85563 
260 ,56.0752 ,1.40481 ,1.09952 ,10.78848 
261 ,56.2834 ,1.40686 ,1.09267 ,10.72132 
262 ,56.4754 ,1.40892 ,1.09610 ,10.75490 
263 ,56.6995 ,1.41096 ,1.08241 ,10.62059 
264 ,56.9237 ,1.41319 ,1.05845 ,10.38554 
265 ,57.1475 ,1.41548 ,1.07214 ,10.51985 
266 ,57.3556 ,1.41759 ,1.05845 ,10.38554 
267 ,57.5637 ,1.41969 ,1.03792 ,10.18407 
268 ,57.7878 ,1.42195 ,1.04134 ,10.21765 
269 ,58.0120 ,1.42409 ,1.03108 ,10.11691 
270 ,58.2203 ,1.42620 ,1.01396 ,9.94902 
271 ,58.4279 ,1.42830 ,1.01054 ,9.91544 
272 ,58.6364 ,1.43042 ,1.01054 ,9.91544 
273 ,58.8605 ,1.43268 ,0.98317 ,9.64682 
274 ,59.1008 ,1.43504 ,0.98659 ,9.68039 
275 ,59.3085 ,1.43712 ,0.97290 ,9.54608 
276 ,59.5327 ,1.43938 ,0.99001 ,9.71397 
277 ,59.7409 ,1.44148 ,0.95579 ,9.37819 
278 ,59.9646 ,1.44368 ,0.93525 ,9.17672 
279 ,60.1730 ,1.44575 ,0.96605 ,9.47892 
280 ,60.3648 ,1.44780 ,0.92841 ,9.10956 
281 ,60.5732 ,1.44977 ,0.94552 ,9.27745 
282 ,60.7974 ,1.45199 ,0.92841 ,9.10956 
283 ,61.0049 ,1.45406 ,0.90103 ,8.84094 
284 ,61.2135 ,1.45617 ,0.91814 ,9.00883 
285 ,61.4216 ,1.45824 ,0.89419 ,8.77378 
286 ,61.6297 ,1.46028 ,0.90103 ,8.84094 
287 ,61.8377 ,1.46240 ,0.89077 ,8.74020 
288 ,62.0459 ,1.46446 ,0.88050 ,8.63947 
289 ,62.2857 ,1.46693 ,0.87708 ,8.60589 
290 ,62.5101 ,1.46911 ,0.86339 ,8.47158 
291 ,62.7339 ,1.47139 ,0.87708 ,8.60589 
292 ,62.9582 ,1.47353 ,0.85997 ,8.43800 
293 ,63.1819 ,1.47580 ,0.83601 ,8.20295 
294 ,63.4062 ,1.47806 ,0.83259 ,8.16937 
295 ,63.6305 ,1.48026 ,0.82575 ,8.10221 
296 ,63.8384 ,1.48238 ,0.84628 ,8.30368 
297 ,64.0628 ,1.48465 ,0.81206 ,7.96790 
298 ,64.2708 ,1.48675 ,0.82575 ,8.10221 
299 ,64.4948 ,1.48888 ,0.80521 ,7.90074 
300 ,64.7190 ,1.49118 ,0.80179 ,7.86717 
301 ,64.9430 ,1.49346 ,0.79495 ,7.80001 
302 ,65.1670 ,1.49573 ,0.78126 ,7.66570 
303 ,65.3914 ,1.49792 ,0.79495 ,7.80001 
304 ,65.6311 ,1.50020 ,0.79495 ,7.80001 
305 ,65.8554 ,1.50252 ,0.78810 ,7.73285 
306 ,66.0472 ,1.50459 ,0.76757 ,7.53138 
307 ,66.2556 ,1.50653 ,0.79152 ,7.76643 
308 ,66.4635 ,1.50870 ,0.76757 ,7.53138 
309 ,66.6716 ,1.51073 ,0.76072 ,7.46423 
310 ,66.8798 ,1.51278 ,0.76757 ,7.53138 
311 ,67.1040 ,1.51495 ,0.74704 ,7.32991 
312 ,67.2958 ,1.51711 ,0.76415 ,7.49780 
313 ,67.5041 ,1.51905 ,0.74019 ,7.26276 
314 ,67.7437 ,1.52135 ,0.73677 ,7.22918 
315 ,67.9522 ,1.52352 ,0.74704 ,7.32991 
316 ,68.1604 ,1.52562 ,0.74019 ,7.26276 
317 ,68.3844 ,1.52781 ,0.72992 ,7.16202 
318 ,68.6085 ,1.53003 ,0.72992 ,7.16202 
319 ,68.8161 ,1.53217 ,0.74019 ,7.26276 
320 ,69.0405 ,1.53427 ,0.71281 ,6.99413 
321 ,69.2486 ,1.53647 ,0.70255 ,6.89340 
322 ,69.4728 ,1.53868 ,0.70939 ,6.96055 
323 ,69.6646 ,1.54075 ,0.71624 ,7.02771 
324 ,69.9849 ,1.54333 ,0.68886 ,6.75908 
325 ,70.1933 ,1.54596 ,0.70255 ,6.89340 
326 ,70.3847 ,1.54797 ,0.68544 ,6.72550 
327 ,70.5771 ,1.54988 ,0.69228 ,6.79266 
328 ,70.7853 ,1.55183 ,0.67175 ,6.59119 
329 ,70.9930 ,1.55403 ,0.67517 ,6.62477 
330 ,71.2174 ,1.55613 ,0.67517 ,6.62477 
331 ,71.4416 ,1.55833 ,0.68201 ,6.69193 
332 ,71.6496 ,1.56047 ,0.65806 ,6.45688 
333 ,71.8578 ,1.56253 ,0.67859 ,6.65835 
334 ,72.0658 ,1.56476 ,0.67175 ,6.59119 
335 ,72.2899 ,1.56684 ,0.66833 ,6.55761 
336 ,72.5139 ,1.56912 ,0.66490 ,6.52403 
337 ,72.7221 ,1.57120 ,0.67517 ,6.62477 
338 ,72.9301 ,1.57329 ,0.64437 ,6.32256 
339 ,73.1381 ,1.57534 ,0.65464 ,6.42330 
340 ,73.3461 ,1.57741 ,0.64437 ,6.32256 
341 ,73.5544 ,1.57952 ,0.65121 ,6.38972 
342 ,73.7463 ,1.58155 ,0.65121 ,6.38972 
343 ,73.9704 ,1.58365 ,0.63410 ,6.22183 
344 ,74.2106 ,1.58595 ,0.64437 ,6.32256 
345 ,74.4023 ,1.58815 ,0.64437 ,6.32256 
346 ,74.5949 ,1.59006 ,0.62042 ,6.08752 
347 ,74.8189 ,1.59215 ,0.64779 ,6.35614 
348 ,75.0428 ,1.59429 ,0.62384 ,6.12109 
349 ,75.2351 ,1.59642 ,0.63068 ,6.18825 
350 ,75.4429 ,1.59840 ,0.62726 ,6.15467 
351 ,75.6670 ,1.60063 ,0.60673 ,5.95320 
352 ,75.8753 ,1.60283 ,0.60673 ,5.95320 
353 ,76.0834 ,1.60483 ,0.61699 ,6.05394 
354 ,76.3073 ,1.60707 ,0.59988 ,5.88605 
355 ,76.5315 ,1.60926 ,0.59304 ,5.81889 
356 ,76.7875 ,1.61168 ,0.61015 ,5.98678 
357 ,77.0117 ,1.61413 ,0.59988 ,5.88605 
358 ,77.2198 ,1.61618 ,0.61357 ,6.02036 
359 ,77.4439 ,1.61837 ,0.59646 ,5.85247 
360 ,77.6520 ,1.62050 ,0.59646 ,5.85247 
361 ,77.8921 ,1.62290 ,0.59988 ,5.88605 
362 ,78.1162 ,1.62509 ,0.60330 ,5.91962 
363 ,78.3403 ,1.62735 ,0.59988 ,5.88605 
364 ,78.5643 ,1.62956 ,0.59304 ,5.81889 
365 ,78.7722 ,1.63178 ,0.58277 ,5.71815 
366 ,78.9968 ,1.63393 ,0.59646 ,5.85247 
367 ,79.2046 ,1.63611 ,0.63410 ,6.22183 
368 ,79.4125 ,1.63809 ,0.59988 ,5.88605 
369 ,79.6366 ,1.64030 ,0.62042 ,6.08752 
370 ,79.8449 ,1.64240 ,0.61699 ,6.05394 
371 ,80.0529 ,1.64446 ,0.61699 ,6.05394 
372 ,80.2609 ,1.64654 ,0.63410 ,6.22183 
373 ,80.4690 ,1.64861 ,0.60673 ,5.95320 
374 ,80.6770 ,1.65068 ,0.62726 ,6.15467 
375 ,80.9333 ,1.65331 ,0.60330 ,5.91962 
376 ,81.1572 ,1.65549 ,0.61357 ,6.02036 
377 ,81.3652 ,1.65758 ,0.63068 ,6.18825 
378 ,81.5731 ,1.65978 ,0.61357 ,6.02036 
379 ,81.7816 ,1.66177 ,0.63753 ,6.25541 
380 ,82.0057 ,1.66398 ,0.61699 ,6.05394 
381 ,82.2133 ,1.66607 ,0.62726 ,6.15467 
382 ,82.4059 ,1.66810 ,0.63410 ,6.22183 
383 ,82.6298 ,1.67021 ,0.61357 ,6.02036 
384 ,82.8540 ,1.67247 ,0.61015 ,5.98678 
385 ,83.0779 ,1.67470 ,0.63410 ,6.22183 
386 ,83.3018 ,1.67690 ,0.62384 ,6.12109 
387 ,83.5265 ,1.67919 ,0.62042 ,6.08752 
388 ,83.7344 ,1.68142 ,0.60673 ,5.95320 
389 ,83.9264 ,1.68330 ,0.63410 ,6.22183 
390 ,84.1346 ,1.68528 ,0.61699 ,6.05394 
391 ,84.3586 ,1.68750 ,0.63068 ,6.18825 
392 ,84.5828 ,1.68976 ,0.61015 ,5.98678 
393 ,84.8067 ,1.69197 ,0.61699 ,6.05394 
394 ,85.0149 ,1.69407 ,0.64779 ,6.35614 
395 ,85.2551 ,1.69635 ,0.67859 ,6.65835 
396 ,85.4793 ,1.69865 ,0.68886 ,6.75908 
397 ,85.7033 ,1.70100 ,0.68544 ,6.72550 
398 ,85.9114 ,1.70305 ,0.67517 ,6.62477 
399 ,86.1514 ,1.70534 ,0.68201 ,6.69193 
400 ,86.3593 ,1.70750 ,0.68886 ,6.75908 
401 ,86.5675 ,1.70960 ,0.67175 ,6.59119 
402 ,86.8076 ,1.71199 ,0.67517 ,6.62477 
403 ,87.0319 ,1.71425 ,0.67175 ,6.59119 
404 ,87.2559 ,1.71649 ,0.67175 ,6.59119 
405 ,87.4798 ,1.71869 ,0.68886 ,6.75908 
406 ,87.7197 ,1.72111 ,0.68886 ,6.75908 
407 ,87.9438 ,1.72339 ,0.68544 ,6.72550 
408 ,88.1357 ,1.72540 ,0.67175 ,6.59119 
409 ,88.3442 ,1.72739 ,0.68201 ,6.69193 
410 ,88.5682 ,1.72961 ,0.67517 ,6.62477 
411 ,88.7925 ,1.73185 ,0.66490 ,6.52403 
412 ,89.0006 ,1.73398 ,0.68544 ,6.72550 
413 ,89.2087 ,1.73596 ,0.67859 ,6.65835 
414 ,89.4330 ,1.73825 ,0.68201 ,6.69193 
415 ,89.6727 ,1.74053 ,0.68544 ,6.72550 
416 ,89.8808 ,1.74277 ,0.68886 ,6.75908 
417 ,90.1049 ,1.74493 ,0.67517 ,6.62477 
418 ,90.3291 ,1.74720 ,0.67175 ,6.59119 
419 ,90.5531 ,1.74943 ,0.67859 ,6.65835 
420 ,90.7772 ,1.75168 ,0.68201 ,6.69193 
421 ,90.9854 ,1.75375 ,0.68544 ,6.72550 
422 ,91.2574 ,1.75650 ,0.70939 ,6.96055 
423 ,91.4812 ,1.75872 ,0.68544 ,6.72550 
424 ,91.7056 ,1.76083 ,0.67517 ,6.62477 
425 ,91.9138 ,1.76306 ,0.68886 ,6.75908 
426 ,92.1377 ,1.76525 ,0.67517 ,6.62477 
427 ,92.3619 ,1.76748 ,0.69228 ,6.79266 
428 ,92.5861 ,1.76975 ,0.68544 ,6.72550 
429 ,92.7778 ,1.77182 ,0.67517 ,6.62477 
430 ,92.9700 ,1.77373 ,0.67175 ,6.59119 
431 ,93.1780 ,1.77565 ,0.69913 ,6.85982 
432 ,93.3864 ,1.77777 ,0.69228 ,6.79266 
433 ,93.6104 ,1.78001 ,0.67175 ,6.59119 
434 ,93.8346 ,1.78226 ,0.68201 ,6.69193 
435 ,94.0586 ,1.78446 ,0.69228 ,6.79266 
436 ,94.2666 ,1.78667 ,0.69228 ,6.79266 
437 ,94.4908 ,1.78883 ,0.67859 ,6.65835 
438 ,94.6985 ,1.79084 ,0.69913 ,6.85982 
439 ,94.9071 ,1.79295 ,0.68201 ,6.69193 
440 ,95.1152 ,1.79504 ,0.67859 ,6.65835 
441 ,95.3390 ,1.79734 ,0.69570 ,6.82624 
442 ,95.5630 ,1.79945 ,0.68544 ,6.72550 
443 ,95.7709 ,1.80161 ,0.66833 ,6.55761 
444 ,95.9794 ,1.80364 ,0.70255 ,6.89340 
445 ,96.2036 ,1.80581 ,0.67175 ,6.59119 
446 ,96.4274 ,1.80813 ,0.67517 ,6.62477 
447 ,96.6353 ,1.81023 ,0.67859 ,6.65835 
448 ,96.8438 ,1.81231 ,0.68544 ,6.72550 
449 ,97.0678 ,1.81454 ,0.67859 ,6.65835 
450 ,97.2758 ,1.81664 ,0.68886 ,6.75908 
451 ,97.4840 ,1.81871 ,0.68201 ,6.69193 
452 ,97.7076 ,1.82090 ,0.66833 ,6.55761 
453 ,97.9322 ,1.82311 ,0.67517 ,6.62477 
454 ,98.1401 ,1.82528 ,0.69913 ,6.85982 
455 ,98.3644 ,1.82753 ,0.68544 ,6.72550 
456 ,98.5724 ,1.82964 ,0.67859 ,6.65835 
457 ,98.7960 ,1.83183 ,0.68544 ,6.72550 
458 ,99.0205 ,1.83404 ,0.69570 ,6.82624 
459 ,99.2447 ,1.83635 ,0.68201 ,6.69193 
460 ,99.4687 ,1.83855 ,0.66833 ,6.55761 
461 ,99.6766 ,1.84063 ,0.69228 ,6.79266 
462 ,99.8845 ,1.84272 ,0.68886 ,6.75908 
463 ,100.1089 ,1.84495 ,0.66490 ,6.52403 
464 ,100.3332 ,1.84716 ,0.67175 ,6.59119 
465 ,100.5571 ,1.84943 ,0.68886 ,6.75908 
466 ,100.7648 ,1.85153 ,0.68544 ,6.72550 
467 ,100.9732 ,1.85359 ,0.66490 ,6.52403 
468 ,101.1976 ,1.85586 ,0.68886 ,6.75908 
