Data stamp = , 02-06-2022 23:09:56 231

Calibration Values: 
Slope = , 26.54 , g/V 
Offset Voltage at no contact = , -0.501760 , V 

No , Time , Stage Position ,   Mass , Force 
   ,  (s) ,      (mm)      ,   (g)  , (mN)  

1 ,0.0000 ,0.84946 ,5.29510 ,51.95548 
2 ,0.2289 ,0.84958 ,5.31563 ,52.15694 
3 ,0.6132 ,0.85072 ,5.32247 ,52.22410 
4 ,0.8212 ,0.85257 ,5.28483 ,51.85474 
5 ,1.0135 ,0.85446 ,5.30536 ,52.05621 
6 ,1.2216 ,0.85639 ,5.29510 ,51.95548 
7 ,1.4458 ,0.85860 ,5.29167 ,51.92190 
8 ,1.6699 ,0.86086 ,5.28141 ,51.82116 
9 ,1.8935 ,0.86315 ,5.27798 ,51.78758 
10 ,2.1180 ,0.86535 ,5.23007 ,51.31749 
11 ,2.3897 ,0.86797 ,5.21296 ,51.14960 
12 ,2.5982 ,0.87025 ,5.18559 ,50.88097 
13 ,2.8224 ,0.87246 ,5.16505 ,50.67950 
14 ,3.0300 ,0.87452 ,5.14452 ,50.47803 
15 ,3.2384 ,0.87660 ,5.12741 ,50.31014 
16 ,3.4467 ,0.87864 ,5.10688 ,50.10867 
17 ,3.6544 ,0.88073 ,5.10003 ,50.04151 
18 ,3.8624 ,0.88280 ,5.05554 ,49.60499 
19 ,4.0705 ,0.88491 ,5.05897 ,49.63857 
20 ,4.2945 ,0.88711 ,5.03159 ,49.36995 
21 ,4.5030 ,0.88927 ,4.99737 ,49.03416 
22 ,4.7269 ,0.89151 ,4.96999 ,48.76554 
23 ,4.9352 ,0.89360 ,4.98710 ,48.93343 
24 ,5.1429 ,0.89580 ,4.92550 ,48.32902 
25 ,5.3673 ,0.89793 ,4.92208 ,48.29544 
26 ,5.5914 ,0.90008 ,4.91181 ,48.19471 
27 ,5.7992 ,0.90214 ,4.87417 ,47.82534 
28 ,6.0235 ,0.90447 ,4.83995 ,47.48956 
29 ,6.2477 ,0.90663 ,4.84337 ,47.52314 
30 ,6.4555 ,0.90882 ,4.80573 ,47.15378 
31 ,6.6479 ,0.91080 ,4.77493 ,46.85157 
32 ,6.8558 ,0.91274 ,4.77493 ,46.85157 
33 ,7.0801 ,0.91497 ,4.74755 ,46.58295 
34 ,7.2881 ,0.91708 ,4.73044 ,46.41506 
35 ,7.5120 ,0.91935 ,4.72359 ,46.34790 
36 ,7.7519 ,0.92177 ,4.70306 ,46.14643 
37 ,7.9443 ,0.92376 ,4.66542 ,45.77707 
38 ,8.1524 ,0.92572 ,4.65173 ,45.64275 
39 ,8.3607 ,0.92778 ,4.63462 ,45.47486 
40 ,8.5686 ,0.93001 ,4.59697 ,45.10550 
41 ,8.7768 ,0.93198 ,4.60040 ,45.13908 
42 ,9.0329 ,0.93451 ,4.57986 ,44.93761 
43 ,9.2409 ,0.93658 ,4.53880 ,44.53467 
44 ,9.4650 ,0.93887 ,4.52169 ,44.36678 
45 ,9.6732 ,0.94091 ,4.51826 ,44.33320 
46 ,9.8971 ,0.94314 ,4.48062 ,43.96384 
47 ,10.1052 ,0.94528 ,4.44982 ,43.66163 
48 ,10.3134 ,0.94732 ,4.45666 ,43.72879 
49 ,10.5372 ,0.94957 ,4.43613 ,43.52732 
50 ,10.7456 ,0.95165 ,4.39849 ,43.15796 
51 ,10.9538 ,0.95368 ,4.39507 ,43.12438 
52 ,11.1617 ,0.95579 ,4.35058 ,42.68786 
53 ,11.3856 ,0.95804 ,4.35058 ,42.68786 
54 ,11.5936 ,0.96015 ,4.34716 ,42.65429 
55 ,11.8016 ,0.96216 ,4.30267 ,42.21777 
56 ,12.0102 ,0.96429 ,4.28556 ,42.04988 
57 ,12.2183 ,0.96636 ,4.27529 ,41.94914 
58 ,12.4261 ,0.96846 ,4.24107 ,41.61336 
59 ,12.6344 ,0.97051 ,4.24107 ,41.61336 
60 ,12.8581 ,0.97274 ,4.22053 ,41.41189 
61 ,13.0825 ,0.97502 ,4.18289 ,41.04253 
62 ,13.3066 ,0.97719 ,4.15894 ,40.80748 
63 ,13.5145 ,0.97932 ,4.15551 ,40.77390 
64 ,13.7225 ,0.98142 ,4.11787 ,40.40454 
65 ,13.9309 ,0.98346 ,4.12129 ,40.43812 
66 ,14.1549 ,0.98573 ,4.10418 ,40.27023 
67 ,14.3792 ,0.98793 ,4.06996 ,39.93444 
68 ,14.6033 ,0.99023 ,4.04258 ,39.66582 
69 ,14.8112 ,0.99232 ,4.03232 ,39.56508 
70 ,15.0193 ,0.99434 ,4.01863 ,39.43077 
71 ,15.2433 ,0.99656 ,3.99125 ,39.16214 
72 ,15.4515 ,0.99864 ,3.98441 ,39.09499 
73 ,15.6595 ,1.00073 ,3.96387 ,38.89352 
74 ,15.8676 ,1.00280 ,3.92281 ,38.49058 
75 ,16.0758 ,1.00487 ,3.93307 ,38.59131 
76 ,16.2835 ,1.00705 ,3.89201 ,38.18837 
77 ,16.4920 ,1.00911 ,3.89201 ,38.18837 
78 ,16.7161 ,1.01134 ,3.87147 ,37.98690 
79 ,16.9242 ,1.01351 ,3.85094 ,37.78543 
80 ,17.1323 ,1.01551 ,3.83725 ,37.65112 
81 ,17.3559 ,1.01775 ,3.80645 ,37.34891 
82 ,17.5483 ,1.01979 ,3.78934 ,37.18102 
83 ,17.7724 ,1.02182 ,3.78250 ,37.11387 
84 ,17.9644 ,1.02393 ,3.76196 ,36.91240 
85 ,18.1728 ,1.02593 ,3.74485 ,36.74450 
86 ,18.3806 ,1.02810 ,3.73117 ,36.61019 
87 ,18.5886 ,1.03013 ,3.69352 ,36.24083 
88 ,18.7968 ,1.03212 ,3.69352 ,36.24083 
89 ,19.0049 ,1.03421 ,3.65930 ,35.90505 
90 ,19.2131 ,1.03631 ,3.64561 ,35.77073 
91 ,19.4372 ,1.03854 ,3.63192 ,35.63642 
92 ,19.7092 ,1.04119 ,3.60454 ,35.36779 
93 ,19.9334 ,1.04348 ,3.59428 ,35.26706 
94 ,20.1574 ,1.04571 ,3.57032 ,35.03201 
95 ,20.3815 ,1.04794 ,3.53952 ,34.72981 
96 ,20.5896 ,1.05004 ,3.52584 ,34.59549 
97 ,20.8137 ,1.05233 ,3.50872 ,34.42760 
98 ,21.0376 ,1.05453 ,3.50188 ,34.36045 
99 ,21.2620 ,1.05671 ,3.46081 ,33.95751 
100 ,21.4700 ,1.05887 ,3.42659 ,33.62172 
101 ,21.6941 ,1.06104 ,3.42659 ,33.62172 
102 ,21.9021 ,1.06327 ,3.41975 ,33.55457 
103 ,22.0943 ,1.06512 ,3.40948 ,33.45383 
104 ,22.3183 ,1.06734 ,3.37184 ,33.08447 
105 ,22.5262 ,1.06939 ,3.34104 ,32.78227 
106 ,22.7506 ,1.07160 ,3.32735 ,32.64795 
107 ,22.9422 ,1.07366 ,3.31024 ,32.48006 
108 ,23.1507 ,1.07563 ,3.29997 ,32.37933 
109 ,23.3745 ,1.07786 ,3.28971 ,32.27859 
110 ,23.5989 ,1.08008 ,3.27602 ,32.14428 
111 ,23.8229 ,1.08234 ,3.25206 ,31.90923 
112 ,24.0306 ,1.08444 ,3.22811 ,31.67418 
113 ,24.2551 ,1.08674 ,3.19388 ,31.33840 
114 ,24.4633 ,1.08879 ,3.20073 ,31.40555 
115 ,24.6712 ,1.09082 ,3.16309 ,31.03619 
116 ,24.9113 ,1.09315 ,3.15282 ,30.93546 
117 ,25.1351 ,1.09547 ,3.12886 ,30.70041 
118 ,25.3596 ,1.09771 ,3.11518 ,30.56610 
119 ,25.5837 ,1.10000 ,3.09806 ,30.39821 
120 ,25.8076 ,1.10215 ,3.06384 ,30.06242 
121 ,26.0156 ,1.10423 ,3.05358 ,29.96169 
122 ,26.2555 ,1.10653 ,3.04331 ,29.86095 
123 ,26.4801 ,1.10889 ,3.02620 ,29.69306 
124 ,26.7041 ,1.11117 ,2.99540 ,29.39086 
125 ,26.9122 ,1.11324 ,2.96118 ,29.05507 
126 ,27.1203 ,1.11537 ,2.97487 ,29.18939 
127 ,27.3282 ,1.11741 ,2.92011 ,28.65213 
128 ,27.5362 ,1.11950 ,2.93722 ,28.82003 
129 ,27.7605 ,1.12168 ,2.91669 ,28.61856 
130 ,27.9846 ,1.12398 ,2.89958 ,28.45066 
131 ,28.1922 ,1.12608 ,2.85509 ,28.01415 
132 ,28.3848 ,1.12810 ,2.85167 ,27.98057 
133 ,28.6089 ,1.13017 ,2.82087 ,27.67836 
134 ,28.8330 ,1.13243 ,2.81402 ,27.61121 
135 ,29.0569 ,1.13463 ,2.79349 ,27.40974 
136 ,29.2652 ,1.13676 ,2.79007 ,27.37616 
137 ,29.4891 ,1.13902 ,2.75927 ,27.07395 
138 ,29.6969 ,1.14108 ,2.74900 ,26.97322 
139 ,29.9053 ,1.14313 ,2.74558 ,26.93964 
140 ,30.1130 ,1.14526 ,2.69425 ,26.43597 
141 ,30.3055 ,1.14733 ,2.70452 ,26.53670 
142 ,30.5136 ,1.14927 ,2.66687 ,26.16734 
143 ,30.7212 ,1.15144 ,2.66003 ,26.10018 
144 ,30.9295 ,1.15342 ,2.63607 ,25.86514 
145 ,31.1694 ,1.15565 ,2.60869 ,25.59651 
146 ,31.3779 ,1.15782 ,2.60869 ,25.59651 
147 ,31.6020 ,1.16019 ,2.58474 ,25.36146 
148 ,31.8576 ,1.16263 ,2.57447 ,25.26073 
149 ,32.0662 ,1.16472 ,2.56078 ,25.12641 
150 ,32.2902 ,1.16701 ,2.52314 ,24.75705 
151 ,32.4983 ,1.16905 ,2.51287 ,24.65632 
152 ,32.7064 ,1.17120 ,2.50603 ,24.58916 
153 ,32.9301 ,1.17336 ,2.47523 ,24.28696 
154 ,33.1383 ,1.17552 ,2.46496 ,24.18622 
155 ,33.3467 ,1.17757 ,2.45470 ,24.08549 
156 ,33.5704 ,1.17983 ,2.43074 ,23.85044 
157 ,33.7790 ,1.18190 ,2.40336 ,23.58181 
158 ,34.0025 ,1.18412 ,2.40679 ,23.61539 
159 ,34.2270 ,1.18641 ,2.37256 ,23.27961 
160 ,34.4509 ,1.18865 ,2.35203 ,23.07814 
161 ,34.6593 ,1.19068 ,2.34519 ,23.01098 
162 ,34.8672 ,1.19278 ,2.32465 ,22.80951 
163 ,35.0754 ,1.19486 ,2.29043 ,22.47373 
164 ,35.2992 ,1.19713 ,2.28701 ,22.44015 
165 ,35.5235 ,1.19932 ,2.27674 ,22.33941 
166 ,35.7477 ,1.20157 ,2.25621 ,22.13794 
167 ,35.9555 ,1.20361 ,2.22541 ,21.83574 
168 ,36.1799 ,1.20589 ,2.21857 ,21.76858 
169 ,36.4040 ,1.20812 ,2.19461 ,21.53353 
170 ,36.6281 ,1.21041 ,2.18092 ,21.39922 
171 ,36.8521 ,1.21258 ,2.15697 ,21.16417 
172 ,37.0602 ,1.21468 ,2.14328 ,21.02986 
173 ,37.2843 ,1.21696 ,2.13644 ,20.96270 
174 ,37.5083 ,1.21923 ,2.11590 ,20.76123 
175 ,37.7326 ,1.22145 ,2.08168 ,20.42545 
176 ,37.9244 ,1.22346 ,2.08852 ,20.49261 
177 ,38.1327 ,1.22540 ,2.05773 ,20.19040 
178 ,38.3248 ,1.22748 ,2.04061 ,20.02251 
179 ,38.5327 ,1.22939 ,2.01324 ,19.75388 
180 ,38.7410 ,1.23145 ,2.02008 ,19.82104 
181 ,38.9649 ,1.23375 ,1.99955 ,19.61957 
182 ,39.1731 ,1.23592 ,1.98244 ,19.45168 
183 ,39.3972 ,1.23799 ,1.95506 ,19.18305 
184 ,39.6048 ,1.24013 ,1.95848 ,19.21663 
185 ,39.8132 ,1.24219 ,1.92084 ,18.84727 
186 ,40.0535 ,1.24458 ,1.90715 ,18.71296 
187 ,40.2616 ,1.24669 ,1.87635 ,18.41075 
188 ,40.4855 ,1.24895 ,1.88319 ,18.47791 
189 ,40.6933 ,1.25098 ,1.85240 ,18.17570 
190 ,40.9176 ,1.25328 ,1.82844 ,17.94066 
191 ,41.1255 ,1.25548 ,1.82160 ,17.87350 
192 ,41.3338 ,1.25739 ,1.82160 ,17.87350 
193 ,41.5417 ,1.25955 ,1.77711 ,17.43698 
194 ,41.7656 ,1.26178 ,1.78395 ,17.50414 
195 ,42.0219 ,1.26421 ,1.76684 ,17.33625 
196 ,42.2784 ,1.26688 ,1.72235 ,16.89973 
197 ,42.5025 ,1.26909 ,1.73262 ,17.00046 
198 ,42.6945 ,1.27113 ,1.71551 ,16.83257 
199 ,42.9182 ,1.27339 ,1.68129 ,16.49679 
200 ,43.1267 ,1.27532 ,1.68813 ,16.56395 
201 ,43.3347 ,1.27742 ,1.65733 ,16.26174 
202 ,43.5429 ,1.27949 ,1.64364 ,16.12743 
203 ,43.7351 ,1.28156 ,1.62311 ,15.92596 
204 ,43.9431 ,1.28352 ,1.60942 ,15.79164 
205 ,44.1670 ,1.28575 ,1.60600 ,15.75807 
206 ,44.3911 ,1.28801 ,1.58204 ,15.52302 
207 ,44.5991 ,1.29002 ,1.55809 ,15.28797 
208 ,44.8071 ,1.29212 ,1.56836 ,15.38871 
209 ,45.0155 ,1.29421 ,1.52729 ,14.98577 
210 ,45.2394 ,1.29641 ,1.52729 ,14.98577 
211 ,45.4477 ,1.29855 ,1.51018 ,14.81787 
212 ,45.6557 ,1.30059 ,1.48280 ,14.54925 
213 ,45.8638 ,1.30278 ,1.46227 ,14.34778 
214 ,46.0720 ,1.30479 ,1.45885 ,14.31420 
215 ,46.2799 ,1.30683 ,1.42120 ,13.94484 
216 ,46.4880 ,1.30891 ,1.43489 ,14.07915 
217 ,46.6959 ,1.31098 ,1.40751 ,13.81053 
218 ,46.9203 ,1.31332 ,1.36987 ,13.44116 
219 ,47.1282 ,1.31531 ,1.38014 ,13.54190 
220 ,47.3359 ,1.31747 ,1.35618 ,13.30685 
221 ,47.5446 ,1.31951 ,1.35276 ,13.27327 
222 ,47.7684 ,1.32176 ,1.32880 ,13.03822 
223 ,47.9926 ,1.32397 ,1.31512 ,12.90391 
224 ,48.2007 ,1.32603 ,1.29116 ,12.66886 
225 ,48.4085 ,1.32814 ,1.29458 ,12.70244 
226 ,48.6325 ,1.33033 ,1.27063 ,12.46739 
227 ,48.8408 ,1.33241 ,1.23298 ,12.09803 
228 ,49.0651 ,1.33470 ,1.23298 ,12.09803 
229 ,49.2733 ,1.33675 ,1.22614 ,12.03088 
230 ,49.4653 ,1.33882 ,1.20218 ,11.79583 
231 ,49.6894 ,1.34100 ,1.19534 ,11.72867 
232 ,49.9134 ,1.34321 ,1.16796 ,11.46004 
233 ,50.1215 ,1.34521 ,1.14743 ,11.25857 
234 ,50.3457 ,1.34748 ,1.14058 ,11.19142 
235 ,50.5536 ,1.34959 ,1.13032 ,11.09068 
236 ,50.7776 ,1.35181 ,1.09610 ,10.75490 
237 ,50.9859 ,1.35391 ,1.10636 ,10.85563 
238 ,51.1940 ,1.35601 ,1.07899 ,10.58701 
239 ,51.4181 ,1.35817 ,1.04476 ,10.25123 
240 ,51.6261 ,1.36028 ,1.05845 ,10.38554 
241 ,51.8341 ,1.36239 ,1.04476 ,10.25123 
242 ,52.0424 ,1.36445 ,1.01054 ,9.91544 
243 ,52.2661 ,1.36669 ,0.99685 ,9.78113 
244 ,52.4744 ,1.36875 ,0.97974 ,9.61324 
245 ,52.6985 ,1.37102 ,0.97290 ,9.54608 
246 ,52.9064 ,1.37302 ,0.95579 ,9.37819 
247 ,53.1149 ,1.37513 ,0.96263 ,9.44535 
248 ,53.3229 ,1.37729 ,0.93183 ,9.14314 
249 ,53.5471 ,1.37950 ,0.91130 ,8.94167 
250 ,53.7709 ,1.38169 ,0.91130 ,8.94167 
251 ,53.9627 ,1.38379 ,0.87708 ,8.60589 
252 ,54.2033 ,1.38611 ,0.85997 ,8.43800 
253 ,54.4270 ,1.38826 ,0.85654 ,8.40442 
254 ,54.6350 ,1.39039 ,0.83601 ,8.20295 
255 ,54.8591 ,1.39258 ,1.12005 ,10.98995 
256 ,55.0831 ,1.39481 ,1.13032 ,11.09068 
257 ,55.3231 ,1.39724 ,1.12690 ,11.05710 
258 ,55.5473 ,1.39947 ,1.14743 ,11.25857 
259 ,55.7713 ,1.40178 ,1.13716 ,11.15784 
260 ,55.9796 ,1.40382 ,1.10636 ,10.85563 
261 ,56.2037 ,1.40606 ,1.10294 ,10.82206 
262 ,56.4282 ,1.40832 ,1.09610 ,10.75490 
263 ,56.6523 ,1.41056 ,1.09610 ,10.75490 
264 ,56.8763 ,1.41274 ,1.07556 ,10.55343 
265 ,57.1001 ,1.41504 ,1.06187 ,10.41912 
266 ,57.3081 ,1.41705 ,1.07899 ,10.58701 
267 ,57.5327 ,1.41931 ,1.05845 ,10.38554 
268 ,57.7567 ,1.42158 ,1.05161 ,10.31838 
269 ,57.9648 ,1.42377 ,1.03450 ,10.15049 
270 ,58.1888 ,1.42587 ,1.04476 ,10.25123 
271 ,58.4125 ,1.42814 ,1.03792 ,10.18407 
272 ,58.6530 ,1.43037 ,1.01054 ,9.91544 
273 ,58.8771 ,1.43278 ,1.00028 ,9.81471 
274 ,59.0852 ,1.43488 ,0.99343 ,9.74755 
275 ,59.2934 ,1.43692 ,0.99343 ,9.74755 
276 ,59.5014 ,1.43905 ,0.96948 ,9.51250 
277 ,59.7094 ,1.44107 ,0.97974 ,9.61324 
278 ,59.9176 ,1.44314 ,0.95579 ,9.37819 
279 ,60.1417 ,1.44546 ,0.94894 ,9.31103 
280 ,60.3498 ,1.44759 ,0.94210 ,9.24388 
281 ,60.5578 ,1.44952 ,0.93525 ,9.17672 
282 ,60.7819 ,1.45177 ,0.92499 ,9.07598 
283 ,60.9898 ,1.45388 ,0.93525 ,9.17672 
284 ,61.1821 ,1.45592 ,0.91814 ,9.00883 
285 ,61.3739 ,1.45785 ,0.92841 ,9.10956 
286 ,61.5824 ,1.45980 ,0.90103 ,8.84094 
287 ,61.8060 ,1.46206 ,0.90788 ,8.90809 
288 ,62.0306 ,1.46422 ,0.90446 ,8.87451 
289 ,62.2548 ,1.46649 ,0.89419 ,8.77378 
290 ,62.4627 ,1.46860 ,0.88392 ,8.67305 
291 ,62.6867 ,1.47089 ,0.87708 ,8.60589 
292 ,62.9104 ,1.47312 ,0.87366 ,8.57231 
293 ,63.1349 ,1.47532 ,0.85312 ,8.37084 
294 ,63.3430 ,1.47742 ,0.85312 ,8.37084 
295 ,63.5669 ,1.47967 ,0.84628 ,8.30368 
296 ,63.8068 ,1.48206 ,0.83943 ,8.23653 
297 ,64.0151 ,1.48410 ,0.83259 ,8.16937 
298 ,64.2229 ,1.48633 ,0.81548 ,8.00148 
299 ,64.4315 ,1.48834 ,0.82917 ,8.13579 
300 ,64.6717 ,1.49058 ,0.81206 ,7.96790 
301 ,64.8956 ,1.49292 ,0.80179 ,7.86717 
302 ,65.1034 ,1.49500 ,0.81206 ,7.96790 
303 ,65.3277 ,1.49725 ,0.81206 ,7.96790 
304 ,65.5360 ,1.49931 ,0.79152 ,7.76643 
305 ,65.7441 ,1.50141 ,0.78468 ,7.69927 
306 ,65.9680 ,1.50360 ,0.79837 ,7.83359 
307 ,66.1761 ,1.50576 ,0.78126 ,7.66570 
308 ,66.3841 ,1.50778 ,0.78468 ,7.69927 
309 ,66.6084 ,1.51004 ,0.79495 ,7.80001 
310 ,66.8165 ,1.51213 ,0.76757 ,7.53138 
311 ,67.0247 ,1.51424 ,0.76757 ,7.53138 
312 ,67.2164 ,1.51627 ,0.77099 ,7.56496 
313 ,67.4243 ,1.51822 ,0.75730 ,7.43065 
314 ,67.6330 ,1.52030 ,0.75388 ,7.39707 
315 ,67.8250 ,1.52233 ,0.73677 ,7.22918 
316 ,68.0492 ,1.52449 ,0.76757 ,7.53138 
317 ,68.2569 ,1.52650 ,0.73335 ,7.19560 
318 ,68.4809 ,1.52882 ,0.74704 ,7.32991 
319 ,68.7214 ,1.53116 ,0.71966 ,7.06129 
320 ,68.9454 ,1.53344 ,0.72992 ,7.16202 
321 ,69.1537 ,1.53551 ,0.72650 ,7.12844 
322 ,69.3616 ,1.53760 ,0.70597 ,6.92697 
323 ,69.5858 ,1.53985 ,0.72650 ,7.12844 
324 ,69.8418 ,1.54233 ,0.72308 ,7.09486 
325 ,70.0660 ,1.54460 ,0.71966 ,7.06129 
326 ,70.2742 ,1.54670 ,0.70597 ,6.92697 
327 ,70.4979 ,1.54893 ,0.69228 ,6.79266 
328 ,70.7060 ,1.55101 ,0.69570 ,6.82624 
329 ,70.9622 ,1.55345 ,0.70255 ,6.89340 
330 ,71.1864 ,1.55582 ,0.70597 ,6.92697 
331 ,71.4102 ,1.55800 ,0.68544 ,6.72550 
332 ,71.6345 ,1.56030 ,0.67517 ,6.62477 
333 ,71.8427 ,1.56238 ,0.67859 ,6.65835 
334 ,72.0666 ,1.56458 ,0.68886 ,6.75908 
335 ,72.2908 ,1.56683 ,0.68201 ,6.69193 
336 ,72.5148 ,1.56909 ,0.66490 ,6.52403 
337 ,72.7229 ,1.57120 ,0.67175 ,6.59119 
338 ,72.9310 ,1.57321 ,0.67859 ,6.65835 
339 ,73.1551 ,1.57543 ,0.66148 ,6.49046 
340 ,73.3793 ,1.57767 ,0.64095 ,6.28899 
341 ,73.6033 ,1.57996 ,0.65464 ,6.42330 
342 ,73.7953 ,1.58203 ,0.66148 ,6.49046 
343 ,74.0194 ,1.58412 ,0.63068 ,6.18825 
344 ,74.2113 ,1.58616 ,0.65121 ,6.38972 
345 ,74.4197 ,1.58814 ,0.63068 ,6.18825 
346 ,74.6437 ,1.59038 ,0.64437 ,6.32256 
347 ,74.8519 ,1.59244 ,0.65806 ,6.45688 
348 ,75.0440 ,1.59448 ,0.63068 ,6.18825 
349 ,75.2675 ,1.59656 ,0.64095 ,6.28899 
350 ,75.4921 ,1.59873 ,0.62384 ,6.12109 
351 ,75.7159 ,1.60110 ,0.62042 ,6.08752 
352 ,75.9242 ,1.60330 ,0.61699 ,6.05394 
353 ,76.1324 ,1.60532 ,0.63068 ,6.18825 
354 ,76.3240 ,1.60729 ,0.62042 ,6.08752 
355 ,76.5487 ,1.60942 ,0.63068 ,6.18825 
356 ,76.7723 ,1.61165 ,0.63410 ,6.22183 
357 ,76.9966 ,1.61389 ,0.60330 ,5.91962 
358 ,77.2208 ,1.61615 ,0.60330 ,5.91962 
359 ,77.4286 ,1.61825 ,0.62042 ,6.08752 
360 ,77.6528 ,1.62050 ,0.60330 ,5.91962 
361 ,77.8770 ,1.62265 ,0.60330 ,5.91962 
362 ,78.0852 ,1.62478 ,0.61015 ,5.98678 
363 ,78.3092 ,1.62703 ,0.62042 ,6.08752 
364 ,78.5333 ,1.62921 ,0.60330 ,5.91962 
365 ,78.7575 ,1.63149 ,0.58619 ,5.75173 
366 ,78.9653 ,1.63360 ,0.62384 ,6.12109 
367 ,79.1735 ,1.63568 ,0.63410 ,6.22183 
368 ,79.3976 ,1.63787 ,0.62726 ,6.15467 
369 ,79.6218 ,1.64017 ,0.62384 ,6.12109 
370 ,79.8618 ,1.64246 ,0.63068 ,6.18825 
371 ,80.0858 ,1.64478 ,0.63410 ,6.22183 
372 ,80.2937 ,1.64683 ,0.62726 ,6.15467 
373 ,80.4857 ,1.64892 ,0.62042 ,6.08752 
374 ,80.6944 ,1.65087 ,0.62726 ,6.15467 
375 ,80.9181 ,1.65312 ,0.61699 ,6.05394 
376 ,81.1582 ,1.65539 ,0.62042 ,6.08752 
377 ,81.3824 ,1.65768 ,0.63068 ,6.18825 
378 ,81.5906 ,1.65981 ,0.63068 ,6.18825 
379 ,81.8145 ,1.66207 ,0.62384 ,6.12109 
380 ,82.0384 ,1.66430 ,0.62726 ,6.15467 
381 ,82.2628 ,1.66653 ,0.64095 ,6.28899 
382 ,82.4710 ,1.66857 ,0.63753 ,6.25541 
383 ,82.6950 ,1.67083 ,0.63753 ,6.25541 
384 ,82.9031 ,1.67292 ,0.62726 ,6.15467 
385 ,83.1106 ,1.67502 ,0.63410 ,6.22183 
386 ,83.3193 ,1.67708 ,0.62384 ,6.12109 
387 ,83.5273 ,1.67919 ,0.63753 ,6.25541 
388 ,83.7513 ,1.68145 ,0.62726 ,6.15467 
389 ,83.9755 ,1.68371 ,0.61357 ,6.02036 
390 ,84.1992 ,1.68593 ,0.61357 ,6.02036 
391 ,84.4074 ,1.68798 ,0.63068 ,6.18825 
392 ,84.6315 ,1.69023 ,0.63068 ,6.18825 
393 ,84.8400 ,1.69228 ,0.62384 ,6.12109 
394 ,85.0481 ,1.69435 ,0.67517 ,6.62477 
395 ,85.2717 ,1.69660 ,0.68886 ,6.75908 
396 ,85.4963 ,1.69883 ,0.67859 ,6.65835 
397 ,85.7204 ,1.70111 ,0.68201 ,6.69193 
398 ,85.9285 ,1.70321 ,0.68886 ,6.75908 
399 ,86.1525 ,1.70540 ,0.68886 ,6.75908 
400 ,86.3601 ,1.70750 ,0.68886 ,6.75908 
401 ,86.5685 ,1.70967 ,0.69570 ,6.82624 
402 ,86.8086 ,1.71203 ,0.70597 ,6.92697 
403 ,87.0329 ,1.71425 ,0.69228 ,6.79266 
404 ,87.2570 ,1.71651 ,0.68201 ,6.69193 
405 ,87.4811 ,1.71866 ,0.68201 ,6.69193 
406 ,87.7210 ,1.72104 ,0.69228 ,6.79266 
407 ,87.9452 ,1.72339 ,0.69570 ,6.82624 
408 ,88.1532 ,1.72544 ,0.69228 ,6.79266 
409 ,88.3613 ,1.72752 ,0.69228 ,6.79266 
410 ,88.5855 ,1.72973 ,0.70255 ,6.89340 
411 ,88.8095 ,1.73198 ,0.69228 ,6.79266 
412 ,89.0337 ,1.73420 ,0.68544 ,6.72550 
413 ,89.2256 ,1.73624 ,0.69228 ,6.79266 
414 ,89.4499 ,1.73825 ,0.68544 ,6.72550 
415 ,89.6739 ,1.74061 ,0.67859 ,6.65835 
416 ,89.8818 ,1.74271 ,0.69913 ,6.85982 
417 ,90.0901 ,1.74480 ,0.69570 ,6.82624 
418 ,90.2981 ,1.74682 ,0.68886 ,6.75908 
419 ,90.5222 ,1.74910 ,0.68544 ,6.72550 
420 ,90.7462 ,1.75133 ,0.69913 ,6.85982 
421 ,90.9539 ,1.75353 ,0.69913 ,6.85982 
422 ,91.1625 ,1.75548 ,0.69228 ,6.79266 
423 ,91.4025 ,1.75780 ,0.70255 ,6.89340 
424 ,91.6107 ,1.75996 ,0.69228 ,6.79266 
425 ,91.8027 ,1.76204 ,0.68544 ,6.72550 
426 ,91.9943 ,1.76393 ,0.69913 ,6.85982 
427 ,92.2189 ,1.76609 ,0.68886 ,6.75908 
428 ,92.4431 ,1.76831 ,0.69228 ,6.79266 
429 ,92.6671 ,1.77054 ,0.69570 ,6.82624 
430 ,92.8911 ,1.77278 ,0.70597 ,6.92697 
431 ,93.0989 ,1.77488 ,0.69228 ,6.79266 
432 ,93.3392 ,1.77717 ,0.70255 ,6.89340 
433 ,93.5636 ,1.77947 ,0.68886 ,6.75908 
434 ,93.7710 ,1.78175 ,0.70255 ,6.89340 
435 ,93.9797 ,1.78364 ,0.68886 ,6.75908 
436 ,94.1875 ,1.78571 ,0.70597 ,6.92697 
437 ,94.4119 ,1.78797 ,0.68886 ,6.75908 
438 ,94.6357 ,1.79017 ,0.68886 ,6.75908 
439 ,94.8441 ,1.79230 ,0.69228 ,6.79266 
440 ,95.0520 ,1.79441 ,0.69570 ,6.82624 
441 ,95.2761 ,1.79663 ,0.69913 ,6.85982 
442 ,95.5002 ,1.79877 ,0.70597 ,6.92697 
443 ,95.7242 ,1.80109 ,0.70597 ,6.92697 
444 ,95.9164 ,1.80316 ,0.69570 ,6.82624 
445 ,96.1405 ,1.80523 ,0.68201 ,6.69193 
446 ,96.3646 ,1.80738 ,0.69570 ,6.82624 
447 ,96.6047 ,1.80980 ,0.70255 ,6.89340 
448 ,96.8288 ,1.81209 ,0.70255 ,6.89340 
449 ,97.0368 ,1.81422 ,0.68886 ,6.75908 
450 ,97.2768 ,1.81661 ,0.67859 ,6.65835 
451 ,97.5171 ,1.81906 ,0.68544 ,6.72550 
452 ,97.7573 ,1.82135 ,0.70255 ,6.89340 
453 ,97.9813 ,1.82368 ,0.69913 ,6.85982 
454 ,98.2054 ,1.82579 ,0.70255 ,6.89340 
455 ,98.4133 ,1.82799 ,0.69913 ,6.85982 
456 ,98.6376 ,1.83018 ,0.68544 ,6.72550 
457 ,98.8776 ,1.83257 ,0.68201 ,6.69193 
458 ,99.0858 ,1.83467 ,0.70255 ,6.89340 
459 ,99.2938 ,1.83680 ,0.69570 ,6.82624 
460 ,99.5180 ,1.83897 ,0.68544 ,6.72550 
461 ,99.7421 ,1.84124 ,0.69228 ,6.79266 
462 ,99.9659 ,1.84350 ,0.70255 ,6.89340 
463 ,100.1902 ,1.84575 ,0.70597 ,6.92697 
464 ,100.4143 ,1.84796 ,0.68886 ,6.75908 
465 ,100.6224 ,1.85008 ,0.68544 ,6.72550 
466 ,100.8143 ,1.85209 ,0.69570 ,6.82624 
467 ,101.0226 ,1.85411 ,0.69913 ,6.85982 
468 ,101.2464 ,1.85626 ,0.70255 ,6.89340 
