Data stamp = , 02-06-2022 21:12:08 124

Calibration Values: 
Slope = , 26.54 , g/V 
Offset Voltage at no contact = , -0.501760 , V 

No , Time , Stage Position ,   Mass , Force 
   ,  (s) ,      (mm)      ,   (g)  , (mN)  

1 ,0.0000 ,0.84964 ,5.30536 ,52.05621 
2 ,0.2128 ,0.84974 ,5.30194 ,52.02263 
3 ,0.6934 ,0.85114 ,5.31563 ,52.15694 
4 ,0.9332 ,0.85368 ,5.31221 ,52.12337 
5 ,1.1736 ,0.85596 ,5.30536 ,52.05621 
6 ,1.3818 ,0.85814 ,5.32247 ,52.22410 
7 ,1.6055 ,0.86035 ,5.30878 ,52.08979 
8 ,1.8139 ,0.86248 ,5.27798 ,51.78758 
9 ,2.0377 ,0.86483 ,5.25061 ,51.51896 
10 ,2.2460 ,0.86678 ,5.24034 ,51.41822 
11 ,2.4538 ,0.86891 ,5.20612 ,51.08244 
12 ,2.6621 ,0.87092 ,5.19927 ,51.01528 
13 ,2.8863 ,0.87319 ,5.18559 ,50.88097 
14 ,3.0944 ,0.87525 ,5.13768 ,50.41087 
15 ,3.3022 ,0.87735 ,5.15136 ,50.54519 
16 ,3.5264 ,0.87959 ,5.13425 ,50.37729 
17 ,3.7345 ,0.88169 ,5.08977 ,49.94078 
18 ,3.9588 ,0.88399 ,5.06923 ,49.73931 
19 ,4.1823 ,0.88618 ,5.05897 ,49.63857 
20 ,4.3908 ,0.88825 ,5.03843 ,49.43710 
21 ,4.6150 ,0.89054 ,4.99737 ,49.03416 
22 ,4.8230 ,0.89256 ,4.99394 ,49.00058 
23 ,5.0469 ,0.89482 ,4.96999 ,48.76554 
24 ,5.2548 ,0.89697 ,4.94603 ,48.53049 
25 ,5.4472 ,0.89898 ,4.92550 ,48.32902 
26 ,5.6715 ,0.90096 ,4.90497 ,48.12755 
27 ,5.8797 ,0.90316 ,4.87759 ,47.85892 
28 ,6.0714 ,0.90519 ,4.86732 ,47.75819 
29 ,6.2797 ,0.90710 ,4.85021 ,47.59030 
30 ,6.5198 ,0.90959 ,4.82284 ,47.32167 
31 ,6.7438 ,0.91173 ,4.80915 ,47.18736 
32 ,6.9517 ,0.91384 ,4.78177 ,46.91873 
33 ,7.1920 ,0.91615 ,4.74413 ,46.54937 
34 ,7.3999 ,0.91832 ,4.72017 ,46.31432 
35 ,7.6559 ,0.92078 ,4.72017 ,46.31432 
36 ,7.8803 ,0.92310 ,4.67226 ,45.84422 
37 ,8.0885 ,0.92524 ,4.67911 ,45.91138 
38 ,8.3123 ,0.92743 ,4.65173 ,45.64275 
39 ,8.5205 ,0.92954 ,4.62435 ,45.37413 
40 ,8.7285 ,0.93163 ,4.60382 ,45.17266 
41 ,8.9687 ,0.93387 ,4.59697 ,45.10550 
42 ,9.1769 ,0.93610 ,4.56960 ,44.83688 
43 ,9.3847 ,0.93823 ,4.55591 ,44.70256 
44 ,9.5929 ,0.94024 ,4.53195 ,44.46751 
45 ,9.8329 ,0.94257 ,4.49089 ,44.06457 
46 ,10.0411 ,0.94476 ,4.47720 ,43.93026 
47 ,10.2491 ,0.94683 ,4.47720 ,43.93026 
48 ,10.4732 ,0.94900 ,4.44982 ,43.66163 
49 ,10.6815 ,0.95110 ,4.41902 ,43.35943 
50 ,10.8895 ,0.95326 ,4.42929 ,43.46016 
51 ,11.0976 ,0.95525 ,4.38138 ,42.99007 
52 ,11.3056 ,0.95732 ,4.37453 ,42.92291 
53 ,11.4976 ,0.95936 ,4.35058 ,42.68786 
54 ,11.7057 ,0.96135 ,4.34716 ,42.65429 
55 ,11.9135 ,0.96339 ,4.30609 ,42.25135 
56 ,12.1380 ,0.96572 ,4.27529 ,41.94914 
57 ,12.3619 ,0.96789 ,4.26502 ,41.84841 
58 ,12.5701 ,0.97000 ,4.26502 ,41.84841 
59 ,12.7781 ,0.97209 ,4.22738 ,41.47905 
60 ,12.9864 ,0.97413 ,4.22396 ,41.44547 
61 ,13.2265 ,0.97640 ,4.19658 ,41.17684 
62 ,13.4506 ,0.97881 ,4.18631 ,41.07611 
63 ,13.6587 ,0.98088 ,4.14525 ,40.67317 
64 ,13.8506 ,0.98296 ,4.13840 ,40.60601 
65 ,14.0587 ,0.98499 ,4.11787 ,40.40454 
66 ,14.2668 ,0.98695 ,4.10760 ,40.30380 
67 ,14.4589 ,0.98898 ,4.08023 ,40.03518 
68 ,14.6670 ,0.99102 ,4.06996 ,39.93444 
69 ,14.8913 ,0.99319 ,4.05969 ,39.83371 
70 ,15.0989 ,0.99529 ,4.01520 ,39.39719 
71 ,15.3549 ,0.99771 ,3.99809 ,39.22930 
72 ,15.5793 ,1.00007 ,3.95703 ,38.82636 
73 ,15.8034 ,1.00227 ,3.94676 ,38.72562 
74 ,16.0116 ,1.00443 ,3.95361 ,38.79278 
75 ,16.2355 ,1.00669 ,3.91254 ,38.38984 
76 ,16.4271 ,1.00867 ,3.89543 ,38.22195 
77 ,16.6357 ,1.01064 ,3.88516 ,38.12122 
78 ,16.8598 ,1.01290 ,3.85436 ,37.81901 
79 ,17.0839 ,1.01509 ,3.83383 ,37.61754 
80 ,17.2920 ,1.01721 ,3.83725 ,37.65112 
81 ,17.4996 ,1.01940 ,3.80645 ,37.34891 
82 ,17.7081 ,1.02141 ,3.79619 ,37.24818 
83 ,17.9321 ,1.02354 ,3.77565 ,37.04671 
84 ,18.1403 ,1.02570 ,3.74828 ,36.77808 
85 ,18.3644 ,1.02796 ,3.73117 ,36.61019 
86 ,18.5720 ,1.03001 ,3.71748 ,36.47588 
87 ,18.7966 ,1.03226 ,3.69694 ,36.27441 
88 ,19.0207 ,1.03454 ,3.64903 ,35.80431 
89 ,19.2284 ,1.03658 ,3.66957 ,36.00578 
90 ,19.4205 ,1.03864 ,3.62850 ,35.60284 
91 ,19.6288 ,1.04056 ,3.62166 ,35.53569 
92 ,19.8368 ,1.04268 ,3.59428 ,35.26706 
93 ,20.0611 ,1.04483 ,3.57032 ,35.03201 
94 ,20.2852 ,1.04712 ,3.56006 ,34.93128 
95 ,20.4928 ,1.04921 ,3.54295 ,34.76338 
96 ,20.7013 ,1.05128 ,3.51215 ,34.46118 
97 ,20.9092 ,1.05339 ,3.52241 ,34.56192 
98 ,21.1335 ,1.05559 ,3.49504 ,34.29329 
99 ,21.3417 ,1.05770 ,3.47108 ,34.05824 
100 ,21.5497 ,1.05975 ,3.45739 ,33.92393 
101 ,21.7579 ,1.06187 ,3.42317 ,33.58814 
102 ,21.9820 ,1.06409 ,3.39579 ,33.31952 
103 ,22.2060 ,1.06620 ,3.40264 ,33.38667 
104 ,22.4139 ,1.06839 ,3.37184 ,33.08447 
105 ,22.6222 ,1.07050 ,3.34788 ,32.84942 
106 ,22.8300 ,1.07256 ,3.33762 ,32.74869 
107 ,23.0379 ,1.07473 ,3.32051 ,32.58080 
108 ,23.2464 ,1.07673 ,3.29655 ,32.34575 
109 ,23.4546 ,1.07880 ,3.28628 ,32.24501 
110 ,23.6787 ,1.08107 ,3.24522 ,31.84207 
111 ,23.9024 ,1.08324 ,3.23153 ,31.70776 
112 ,24.1105 ,1.08535 ,3.23837 ,31.77492 
113 ,24.3349 ,1.08760 ,3.21100 ,31.50629 
114 ,24.5590 ,1.08987 ,3.18020 ,31.20409 
115 ,24.7509 ,1.09184 ,3.18020 ,31.20409 
116 ,24.9592 ,1.09382 ,3.13571 ,30.76757 
117 ,25.1832 ,1.09608 ,3.13229 ,30.73399 
118 ,25.4074 ,1.09822 ,3.12544 ,30.66683 
119 ,25.6155 ,1.10040 ,3.10491 ,30.46536 
120 ,25.8235 ,1.10254 ,3.08095 ,30.23031 
121 ,26.0317 ,1.10458 ,3.07753 ,30.19674 
122 ,26.2557 ,1.10678 ,3.04673 ,29.89453 
123 ,26.4637 ,1.10889 ,3.01593 ,29.59233 
124 ,26.7038 ,1.11108 ,3.02620 ,29.69306 
125 ,26.9280 ,1.11350 ,2.99540 ,29.39086 
126 ,27.1359 ,1.11558 ,2.96460 ,29.08865 
127 ,27.3601 ,1.11784 ,2.94064 ,28.85360 
128 ,27.5679 ,1.11993 ,2.94064 ,28.85360 
129 ,27.7923 ,1.12216 ,2.91669 ,28.61856 
130 ,28.0164 ,1.12443 ,2.88931 ,28.34993 
131 ,28.2243 ,1.12650 ,2.88247 ,28.28277 
132 ,28.4326 ,1.12857 ,2.87905 ,28.24919 
133 ,28.6565 ,1.13079 ,2.83798 ,27.84625 
134 ,28.8647 ,1.13286 ,2.82429 ,27.71194 
135 ,29.0888 ,1.13503 ,2.80718 ,27.54405 
136 ,29.3128 ,1.13735 ,2.78322 ,27.30900 
137 ,29.5367 ,1.13966 ,2.76611 ,27.14111 
138 ,29.7446 ,1.14169 ,2.74558 ,26.93964 
139 ,29.9531 ,1.14373 ,2.73531 ,26.83891 
140 ,30.1771 ,1.14599 ,2.71478 ,26.63744 
141 ,30.3854 ,1.14810 ,2.69767 ,26.46954 
142 ,30.5933 ,1.15019 ,2.68740 ,26.36881 
143 ,30.8011 ,1.15227 ,2.66003 ,26.10018 
144 ,31.0093 ,1.15433 ,2.64976 ,25.99945 
145 ,31.2331 ,1.15656 ,2.63265 ,25.83156 
146 ,31.4572 ,1.15880 ,2.58816 ,25.39504 
147 ,31.6817 ,1.16103 ,2.57789 ,25.29430 
148 ,31.9376 ,1.16361 ,2.55736 ,25.09283 
149 ,32.1461 ,1.16575 ,2.54710 ,24.99210 
150 ,32.3702 ,1.16793 ,2.54710 ,24.99210 
151 ,32.5783 ,1.17005 ,2.51972 ,24.72347 
152 ,32.7867 ,1.17205 ,2.49576 ,24.48842 
153 ,32.9942 ,1.17416 ,2.48550 ,24.38769 
154 ,33.2503 ,1.17658 ,2.47181 ,24.25338 
155 ,33.4745 ,1.17893 ,2.44101 ,23.95117 
156 ,33.6988 ,1.18122 ,2.42048 ,23.74970 
157 ,33.9228 ,1.18348 ,2.40336 ,23.58181 
158 ,34.1464 ,1.18571 ,2.38968 ,23.44750 
159 ,34.3706 ,1.18791 ,2.38625 ,23.41392 
160 ,34.5789 ,1.19007 ,2.33150 ,22.87667 
161 ,34.8028 ,1.19221 ,2.32123 ,22.77593 
162 ,35.0112 ,1.19431 ,2.33492 ,22.91024 
163 ,35.2194 ,1.19639 ,2.28701 ,22.44015 
164 ,35.4432 ,1.19865 ,2.27332 ,22.30584 
165 ,35.6676 ,1.20091 ,2.27332 ,22.30584 
166 ,35.8756 ,1.20301 ,2.25621 ,22.13794 
167 ,36.0997 ,1.20512 ,2.22199 ,21.80216 
168 ,36.2921 ,1.20726 ,2.21515 ,21.73500 
169 ,36.5159 ,1.20938 ,2.18777 ,21.46638 
170 ,36.7398 ,1.21162 ,2.16723 ,21.26491 
171 ,36.9481 ,1.21372 ,2.15355 ,21.13059 
172 ,37.1562 ,1.21575 ,2.13644 ,20.96270 
173 ,37.3482 ,1.21782 ,2.11590 ,20.76123 
174 ,37.5559 ,1.21977 ,2.11248 ,20.72766 
175 ,37.7644 ,1.22184 ,2.09879 ,20.59334 
176 ,37.9726 ,1.22392 ,2.09195 ,20.52619 
177 ,38.1808 ,1.22607 ,2.05773 ,20.19040 
178 ,38.4208 ,1.22846 ,2.03035 ,19.92178 
179 ,38.6283 ,1.23047 ,2.04404 ,20.05609 
180 ,38.8528 ,1.23273 ,2.02350 ,19.85462 
181 ,39.0931 ,1.23499 ,1.99613 ,19.58599 
182 ,39.3011 ,1.23725 ,1.96533 ,19.28379 
183 ,39.5252 ,1.23945 ,1.95164 ,19.14948 
184 ,39.7489 ,1.24169 ,1.95848 ,19.21663 
185 ,39.9573 ,1.24388 ,1.93453 ,18.98158 
186 ,40.1814 ,1.24598 ,1.90031 ,18.64580 
187 ,40.4056 ,1.24819 ,1.88662 ,18.51149 
188 ,40.6137 ,1.25026 ,1.88319 ,18.47791 
189 ,40.8375 ,1.25261 ,1.85582 ,18.20928 
190 ,41.0777 ,1.25497 ,1.82502 ,17.90708 
191 ,41.3018 ,1.25717 ,1.80449 ,17.70561 
192 ,41.5260 ,1.25949 ,1.79422 ,17.60487 
193 ,41.7340 ,1.26156 ,1.78737 ,17.53772 
194 ,41.9581 ,1.26374 ,1.76342 ,17.30267 
195 ,42.1663 ,1.26595 ,1.75315 ,17.20193 
196 ,42.3905 ,1.26812 ,1.74289 ,17.10120 
197 ,42.6140 ,1.27032 ,1.72578 ,16.93331 
198 ,42.8226 ,1.27245 ,1.69840 ,16.66468 
199 ,43.0306 ,1.27452 ,1.69498 ,16.63110 
200 ,43.2385 ,1.27660 ,1.65391 ,16.22816 
201 ,43.4467 ,1.27863 ,1.65733 ,16.26174 
202 ,43.6548 ,1.28068 ,1.64022 ,16.09385 
203 ,43.8790 ,1.28304 ,1.62653 ,15.95954 
204 ,44.0871 ,1.28510 ,1.60942 ,15.79164 
205 ,44.3107 ,1.28730 ,1.59916 ,15.69091 
206 ,44.5193 ,1.28938 ,1.56836 ,15.38871 
207 ,44.7111 ,1.29139 ,1.56493 ,15.35513 
208 ,44.9355 ,1.29346 ,1.54440 ,15.15366 
209 ,45.1595 ,1.29578 ,1.51702 ,14.88503 
210 ,45.3832 ,1.29804 ,1.49307 ,14.64998 
211 ,45.6076 ,1.30026 ,1.49991 ,14.71714 
212 ,45.8317 ,1.30249 ,1.48280 ,14.54925 
213 ,46.0399 ,1.30457 ,1.45885 ,14.31420 
214 ,46.2638 ,1.30682 ,1.44174 ,14.14631 
215 ,46.4877 ,1.30906 ,1.42805 ,14.01199 
216 ,46.7121 ,1.31129 ,1.42462 ,13.97842 
217 ,46.9363 ,1.31348 ,1.38698 ,13.60906 
218 ,47.1600 ,1.31578 ,1.36645 ,13.40759 
219 ,47.3844 ,1.31798 ,1.35618 ,13.30685 
220 ,47.6080 ,1.32023 ,1.34934 ,13.23969 
221 ,47.8325 ,1.32246 ,1.33565 ,13.10538 
222 ,48.0567 ,1.32473 ,1.30143 ,12.76960 
223 ,48.2806 ,1.32687 ,1.29116 ,12.66886 
224 ,48.4888 ,1.32906 ,1.28774 ,12.63528 
225 ,48.6808 ,1.33107 ,1.26378 ,12.40024 
226 ,48.8892 ,1.33311 ,1.25694 ,12.33308 
227 ,49.1129 ,1.33528 ,1.24325 ,12.19877 
228 ,49.3212 ,1.33740 ,1.20903 ,11.86298 
229 ,49.5452 ,1.33965 ,1.20903 ,11.86298 
230 ,49.7694 ,1.34186 ,1.18850 ,11.66151 
231 ,49.9934 ,1.34411 ,1.16796 ,11.46004 
232 ,50.2174 ,1.34629 ,1.14743 ,11.25857 
233 ,50.4256 ,1.34840 ,1.14401 ,11.22500 
234 ,50.6335 ,1.35047 ,1.12005 ,10.98995 
235 ,50.8416 ,1.35260 ,1.09610 ,10.75490 
236 ,51.0496 ,1.35462 ,1.11663 ,10.95637 
237 ,51.2579 ,1.35669 ,1.06872 ,10.48627 
238 ,51.4660 ,1.35875 ,1.07214 ,10.51985 
239 ,51.6898 ,1.36104 ,1.05503 ,10.35196 
240 ,51.8978 ,1.36314 ,1.02423 ,10.04976 
241 ,52.0899 ,1.36519 ,1.01739 ,9.98260 
242 ,52.2820 ,1.36710 ,1.00028 ,9.81471 
243 ,52.4906 ,1.36907 ,0.99343 ,9.74755 
244 ,52.7145 ,1.37127 ,0.97632 ,9.57966 
245 ,52.9383 ,1.37353 ,0.95237 ,9.34461 
246 ,53.1465 ,1.37566 ,0.95579 ,9.37819 
247 ,53.3867 ,1.37797 ,0.92841 ,9.10956 
248 ,53.6110 ,1.38026 ,0.91472 ,8.97525 
249 ,53.8190 ,1.38235 ,0.89077 ,8.74020 
250 ,54.0429 ,1.38458 ,0.88050 ,8.63947 
251 ,54.2509 ,1.38668 ,0.87708 ,8.60589 
252 ,54.5073 ,1.38909 ,0.85312 ,8.37084 
253 ,54.7312 ,1.39146 ,1.14743 ,11.25857 
254 ,54.9554 ,1.39367 ,1.14401 ,11.22500 
255 ,55.1635 ,1.39577 ,1.14743 ,11.25857 
256 ,55.3716 ,1.39787 ,1.13032 ,11.09068 
257 ,55.5956 ,1.40007 ,1.12690 ,11.05710 
258 ,55.8198 ,1.40230 ,1.11321 ,10.92279 
259 ,56.0117 ,1.40440 ,1.11663 ,10.95637 
260 ,56.2359 ,1.40644 ,1.09267 ,10.72132 
261 ,56.4435 ,1.40857 ,1.09267 ,10.72132 
262 ,56.6517 ,1.41061 ,1.09610 ,10.75490 
263 ,56.8602 ,1.41268 ,1.08241 ,10.62059 
264 ,57.0519 ,1.41478 ,1.08241 ,10.62059 
265 ,57.2604 ,1.41672 ,1.06187 ,10.41912 
266 ,57.4843 ,1.41896 ,1.07556 ,10.55343 
267 ,57.6921 ,1.42104 ,1.06187 ,10.41912 
268 ,57.9006 ,1.42316 ,1.03450 ,10.15049 
269 ,58.1246 ,1.42543 ,1.03450 ,10.15049 
270 ,58.3325 ,1.42741 ,1.02765 ,10.08333 
271 ,58.5409 ,1.42951 ,1.01396 ,9.94902 
272 ,58.7326 ,1.43157 ,1.02081 ,10.01618 
273 ,58.9570 ,1.43371 ,0.99685 ,9.78113 
274 ,59.1650 ,1.43591 ,0.98659 ,9.68039 
275 ,59.3891 ,1.43801 ,1.00370 ,9.84829 
276 ,59.5973 ,1.44005 ,0.97632 ,9.57966 
277 ,59.8214 ,1.44235 ,0.97290 ,9.54608 
278 ,60.0454 ,1.44461 ,0.96605 ,9.47892 
279 ,60.2692 ,1.44676 ,0.95921 ,9.41177 
280 ,60.4777 ,1.44890 ,0.93868 ,9.21030 
281 ,60.7178 ,1.45114 ,0.94552 ,9.27745 
282 ,60.9574 ,1.45366 ,0.90446 ,8.87451 
283 ,61.1819 ,1.45592 ,0.91472 ,8.97525 
284 ,61.4059 ,1.45810 ,0.90446 ,8.87451 
285 ,61.6141 ,1.46025 ,0.89761 ,8.80736 
286 ,61.8384 ,1.46253 ,0.88392 ,8.67305 
287 ,62.0623 ,1.46473 ,0.88392 ,8.67305 
288 ,62.2869 ,1.46702 ,0.89419 ,8.77378 
289 ,62.5106 ,1.46920 ,0.87708 ,8.60589 
290 ,62.7186 ,1.47136 ,0.85654 ,8.40442 
291 ,62.9425 ,1.47353 ,0.86681 ,8.50515 
292 ,63.1508 ,1.47564 ,0.85997 ,8.43800 
293 ,63.3747 ,1.47780 ,0.83601 ,8.20295 
294 ,63.5990 ,1.48012 ,0.83259 ,8.16937 
295 ,63.8226 ,1.48235 ,0.84628 ,8.30368 
296 ,64.0310 ,1.48439 ,0.83259 ,8.16937 
297 ,64.2552 ,1.48662 ,0.81548 ,8.00148 
298 ,64.4790 ,1.48892 ,0.80863 ,7.93432 
299 ,64.7033 ,1.49107 ,0.81890 ,8.03506 
300 ,64.9113 ,1.49316 ,0.81548 ,8.00148 
301 ,65.1353 ,1.49544 ,0.79837 ,7.83359 
302 ,65.3433 ,1.49752 ,0.79837 ,7.83359 
303 ,65.5515 ,1.49964 ,0.79837 ,7.83359 
304 ,65.7599 ,1.50166 ,0.78126 ,7.66570 
305 ,65.9519 ,1.50373 ,0.79495 ,7.80001 
306 ,66.1599 ,1.50571 ,0.77441 ,7.59854 
307 ,66.3681 ,1.50778 ,0.79152 ,7.76643 
308 ,66.5758 ,1.50990 ,0.76757 ,7.53138 
309 ,66.8002 ,1.51207 ,0.76757 ,7.53138 
310 ,66.9923 ,1.51417 ,0.77441 ,7.59854 
311 ,67.2160 ,1.51628 ,0.75730 ,7.43065 
312 ,67.4242 ,1.51837 ,0.76757 ,7.53138 
313 ,67.6482 ,1.52058 ,0.75730 ,7.43065 
314 ,67.8888 ,1.52285 ,0.73335 ,7.19560 
315 ,68.1127 ,1.52522 ,0.74704 ,7.32991 
316 ,68.3367 ,1.52740 ,0.73335 ,7.19560 
317 ,68.5770 ,1.52969 ,0.74704 ,7.32991 
318 ,68.8006 ,1.53211 ,0.74361 ,7.29633 
319 ,69.0250 ,1.53434 ,0.74361 ,7.29633 
320 ,69.2331 ,1.53641 ,0.72308 ,7.09486 
321 ,69.4412 ,1.53849 ,0.73677 ,7.22918 
322 ,69.6653 ,1.54075 ,0.71966 ,7.06129 
323 ,69.8734 ,1.54282 ,0.70255 ,6.89340 
324 ,70.1135 ,1.54523 ,0.69570 ,6.82624 
325 ,70.3378 ,1.54746 ,0.70255 ,6.89340 
326 ,70.5616 ,1.54970 ,0.70255 ,6.89340 
327 ,70.7699 ,1.55182 ,0.70597 ,6.92697 
328 ,70.9940 ,1.55397 ,0.68886 ,6.75908 
329 ,71.2180 ,1.55625 ,0.68201 ,6.69193 
330 ,71.4579 ,1.55856 ,0.69570 ,6.82624 
331 ,71.6820 ,1.56101 ,0.68201 ,6.69193 
332 ,71.8905 ,1.56298 ,0.67859 ,6.65835 
333 ,72.1304 ,1.56525 ,0.66833 ,6.55761 
334 ,72.3706 ,1.56776 ,0.66833 ,6.55761 
335 ,72.5945 ,1.57001 ,0.65806 ,6.45688 
336 ,72.8027 ,1.57213 ,0.67175 ,6.59119 
337 ,73.0103 ,1.57429 ,0.68544 ,6.72550 
338 ,73.2190 ,1.57627 ,0.66490 ,6.52403 
339 ,73.4589 ,1.57859 ,0.67859 ,6.65835 
340 ,73.6508 ,1.58072 ,0.66833 ,6.55761 
341 ,73.8752 ,1.58273 ,0.65464 ,6.42330 
342 ,74.0992 ,1.58506 ,0.65806 ,6.45688 
343 ,74.2910 ,1.58712 ,0.67517 ,6.62477 
344 ,74.4994 ,1.58909 ,0.65464 ,6.42330 
345 ,74.7233 ,1.59132 ,0.66148 ,6.49046 
346 ,74.9472 ,1.59355 ,0.65121 ,6.38972 
347 ,75.1556 ,1.59560 ,0.64779 ,6.35614 
348 ,75.3637 ,1.59766 ,0.65464 ,6.42330 
349 ,75.5714 ,1.59976 ,0.62726 ,6.15467 
350 ,75.7800 ,1.60184 ,0.64437 ,6.32256 
351 ,76.0039 ,1.60414 ,0.64437 ,6.32256 
352 ,76.2120 ,1.60618 ,0.61357 ,6.02036 
353 ,76.4202 ,1.60824 ,0.63753 ,6.25541 
354 ,76.6438 ,1.61047 ,0.63410 ,6.22183 
355 ,76.8681 ,1.61274 ,0.63068 ,6.18825 
356 ,77.0923 ,1.61499 ,0.61015 ,5.98678 
357 ,77.3006 ,1.61709 ,0.63068 ,6.18825 
358 ,77.5245 ,1.61934 ,0.62726 ,6.15467 
359 ,77.7324 ,1.62137 ,0.61015 ,5.98678 
360 ,77.9727 ,1.62379 ,0.61015 ,5.98678 
361 ,78.1969 ,1.62605 ,0.61699 ,6.05394 
362 ,78.3889 ,1.62810 ,0.63068 ,6.18825 
363 ,78.5969 ,1.63000 ,0.60330 ,5.91962 
364 ,78.8051 ,1.63208 ,0.61357 ,6.02036 
365 ,79.0293 ,1.63439 ,0.64095 ,6.28899 
366 ,79.2532 ,1.63654 ,0.63410 ,6.22183 
367 ,79.4452 ,1.63864 ,0.63068 ,6.18825 
368 ,79.6534 ,1.64055 ,0.61357 ,6.02036 
369 ,79.8616 ,1.64280 ,0.62042 ,6.08752 
370 ,80.0532 ,1.64471 ,0.61699 ,6.05394 
371 ,80.2619 ,1.64664 ,0.63410 ,6.22183 
372 ,80.4858 ,1.64895 ,0.63068 ,6.18825 
373 ,80.6940 ,1.65096 ,0.62726 ,6.15467 
374 ,80.9181 ,1.65316 ,0.63068 ,6.18825 
375 ,81.1257 ,1.65532 ,0.63410 ,6.22183 
376 ,81.3503 ,1.65758 ,0.63410 ,6.22183 
377 ,81.5744 ,1.65976 ,0.64095 ,6.28899 
378 ,81.7823 ,1.66186 ,0.65806 ,6.45688 
379 ,81.9904 ,1.66395 ,0.63410 ,6.22183 
380 ,82.2144 ,1.66607 ,0.63410 ,6.22183 
381 ,82.4864 ,1.66892 ,0.64095 ,6.28899 
382 ,82.6946 ,1.67104 ,0.62726 ,6.15467 
383 ,82.9025 ,1.67317 ,0.63410 ,6.22183 
384 ,83.1269 ,1.67531 ,0.64779 ,6.35614 
385 ,83.3508 ,1.67757 ,0.62384 ,6.12109 
386 ,83.6072 ,1.67998 ,0.63068 ,6.18825 
387 ,83.8311 ,1.68234 ,0.62384 ,6.12109 
388 ,84.0392 ,1.68440 ,0.65464 ,6.42330 
389 ,84.2316 ,1.68648 ,0.62726 ,6.15467 
390 ,84.4552 ,1.68859 ,0.63753 ,6.25541 
391 ,84.6794 ,1.69090 ,0.63068 ,6.18825 
392 ,84.9036 ,1.69304 ,0.63753 ,6.25541 
393 ,85.1117 ,1.69517 ,0.68201 ,6.69193 
394 ,85.3198 ,1.69732 ,0.69913 ,6.85982 
395 ,85.5279 ,1.69931 ,0.69570 ,6.82624 
396 ,85.7359 ,1.70145 ,0.70939 ,6.96055 
397 ,85.9440 ,1.70345 ,0.69570 ,6.82624 
398 ,86.1520 ,1.70552 ,0.69228 ,6.79266 
399 ,86.3603 ,1.70764 ,0.71281 ,6.99413 
400 ,86.5683 ,1.70968 ,0.70597 ,6.92697 
401 ,86.7759 ,1.71180 ,0.69913 ,6.85982 
402 ,86.9841 ,1.71388 ,0.70255 ,6.89340 
403 ,87.2086 ,1.71595 ,0.68544 ,6.72550 
404 ,87.4327 ,1.71830 ,0.68886 ,6.75908 
405 ,87.6405 ,1.72043 ,0.70255 ,6.89340 
406 ,87.8486 ,1.72251 ,0.68886 ,6.75908 
407 ,88.0889 ,1.72489 ,0.69228 ,6.79266 
408 ,88.3130 ,1.72713 ,0.70255 ,6.89340 
409 ,88.5370 ,1.72935 ,0.70939 ,6.96055 
410 ,88.7452 ,1.73146 ,0.69913 ,6.85982 
411 ,88.9693 ,1.73370 ,0.68886 ,6.75908 
412 ,89.2090 ,1.73605 ,0.69228 ,6.79266 
413 ,89.4334 ,1.73825 ,0.70939 ,6.96055 
414 ,89.6414 ,1.74044 ,0.69913 ,6.85982 
415 ,89.8333 ,1.74248 ,0.68544 ,6.72550 
416 ,90.0417 ,1.74439 ,0.70939 ,6.96055 
417 ,90.2656 ,1.74675 ,0.68544 ,6.72550 
418 ,90.4900 ,1.74892 ,0.68544 ,6.72550 
419 ,90.7137 ,1.75115 ,0.70255 ,6.89340 
420 ,90.9220 ,1.75335 ,0.70255 ,6.89340 
421 ,91.1301 ,1.75529 ,0.69228 ,6.79266 
422 ,91.3863 ,1.75774 ,0.71281 ,6.99413 
423 ,91.6098 ,1.76013 ,0.69228 ,6.79266 
424 ,91.8499 ,1.76253 ,0.69228 ,6.79266 
425 ,92.0900 ,1.76479 ,0.70939 ,6.96055 
426 ,92.2984 ,1.76698 ,0.71624 ,7.02771 
427 ,92.5546 ,1.76941 ,0.70255 ,6.89340 
428 ,92.7789 ,1.77179 ,0.70939 ,6.96055 
429 ,93.0029 ,1.77399 ,0.70255 ,6.89340 
430 ,93.2270 ,1.77624 ,0.69228 ,6.79266 
431 ,93.4351 ,1.77832 ,0.70597 ,6.92697 
432 ,93.6592 ,1.78058 ,0.69570 ,6.82624 
433 ,93.8672 ,1.78269 ,0.69570 ,6.82624 
434 ,94.0754 ,1.78476 ,0.70597 ,6.92697 
435 ,94.2994 ,1.78699 ,0.69570 ,6.82624 
436 ,94.5235 ,1.78928 ,0.69228 ,6.79266 
437 ,94.7635 ,1.79154 ,0.69913 ,6.85982 
438 ,94.9878 ,1.79392 ,0.68886 ,6.75908 
439 ,95.2118 ,1.79610 ,0.70597 ,6.92697 
440 ,95.4199 ,1.79823 ,0.71281 ,6.99413 
441 ,95.6276 ,1.80026 ,0.69228 ,6.79266 
442 ,95.8358 ,1.80234 ,0.70255 ,6.89340 
443 ,96.0602 ,1.80456 ,0.69913 ,6.85982 
444 ,96.2683 ,1.80668 ,0.69570 ,6.82624 
445 ,96.4763 ,1.80870 ,0.71281 ,6.99413 
446 ,96.6845 ,1.81082 ,0.69913 ,6.85982 
447 ,96.8920 ,1.81291 ,0.69913 ,6.85982 
448 ,97.1007 ,1.81498 ,0.71281 ,6.99413 
449 ,97.3084 ,1.81708 ,0.69228 ,6.79266 
450 ,97.5169 ,1.81910 ,0.70939 ,6.96055 
451 ,97.7410 ,1.82136 ,0.70939 ,6.96055 
452 ,97.9646 ,1.82358 ,0.68544 ,6.72550 
453 ,98.1727 ,1.82568 ,0.70939 ,6.96055 
454 ,98.3813 ,1.82776 ,0.69228 ,6.79266 
455 ,98.6054 ,1.82999 ,0.69913 ,6.85982 
456 ,98.8293 ,1.83225 ,0.69570 ,6.82624 
457 ,99.0372 ,1.83432 ,0.70939 ,6.96055 
458 ,99.2775 ,1.83674 ,0.71281 ,6.99413 
459 ,99.5016 ,1.83895 ,0.70255 ,6.89340 
460 ,99.7093 ,1.84107 ,0.69570 ,6.82624 
461 ,99.9179 ,1.84308 ,0.69913 ,6.85982 
462 ,100.1259 ,1.84522 ,0.68544 ,6.72550 
463 ,100.3660 ,1.84761 ,0.71281 ,6.99413 
464 ,100.5902 ,1.84983 ,0.70597 ,6.92697 
465 ,100.8143 ,1.85213 ,0.70597 ,6.92697 
466 ,101.0224 ,1.85416 ,0.70255 ,6.89340 
467 ,101.2305 ,1.85628 ,0.70597 ,6.92697 
