Data stamp = , 03-06-2022 16:56:32 920

Calibration Values: 
Slope = , 26.54 , g/V 
Offset Voltage at no contact = , -0.501760 , V 

No , Time , Stage Position ,   Mass , Force 
   ,  (s) ,      (mm)      ,   (g)  , (mN)  

1 ,0.0000 ,0.84958 ,5.31563 ,52.15694 
2 ,0.2319 ,0.84970 ,5.29852 ,51.98905 
3 ,0.8082 ,0.85161 ,5.29510 ,51.95548 
4 ,1.0003 ,0.85440 ,5.29852 ,51.98905 
5 ,1.2088 ,0.85636 ,5.29852 ,51.98905 
6 ,1.4165 ,0.85844 ,5.29852 ,51.98905 
7 ,1.6408 ,0.86067 ,5.29167 ,51.92190 
8 ,1.8650 ,0.86292 ,5.29167 ,51.92190 
9 ,2.0729 ,0.86499 ,5.24034 ,51.41822 
10 ,2.2972 ,0.86729 ,5.22323 ,51.25033 
11 ,2.5210 ,0.86949 ,5.21981 ,51.21675 
12 ,2.7454 ,0.87176 ,5.19585 ,50.98170 
13 ,2.9694 ,0.87398 ,5.16505 ,50.67950 
14 ,3.1772 ,0.87605 ,5.14794 ,50.51161 
15 ,3.4017 ,0.87828 ,5.14110 ,50.44445 
16 ,3.6097 ,0.88051 ,5.11030 ,50.14225 
17 ,3.8337 ,0.88262 ,5.07265 ,49.77289 
18 ,4.0415 ,0.88482 ,5.05212 ,49.57142 
19 ,4.2501 ,0.88681 ,5.03159 ,49.36995 
20 ,4.4582 ,0.88889 ,5.01448 ,49.20205 
21 ,4.6662 ,0.89093 ,5.00079 ,49.06774 
22 ,4.9061 ,0.89335 ,4.96657 ,48.73196 
23 ,5.1302 ,0.89555 ,4.95972 ,48.66480 
24 ,5.3386 ,0.89766 ,4.93577 ,48.42975 
25 ,5.5306 ,0.89972 ,4.93235 ,48.39618 
26 ,5.7387 ,0.90166 ,4.89812 ,48.06039 
27 ,5.9463 ,0.90377 ,4.89128 ,47.99324 
28 ,6.1547 ,0.90583 ,4.85021 ,47.59030 
29 ,6.3626 ,0.90787 ,4.83995 ,47.48956 
30 ,6.5708 ,0.90998 ,4.80573 ,47.15378 
31 ,6.7951 ,0.91226 ,4.78861 ,46.98589 
32 ,7.0347 ,0.91463 ,4.76808 ,46.78442 
33 ,7.2432 ,0.91672 ,4.75097 ,46.61653 
34 ,7.4674 ,0.91893 ,4.72359 ,46.34790 
35 ,7.6914 ,0.92115 ,4.68937 ,46.01212 
36 ,7.8993 ,0.92330 ,4.67911 ,45.91138 
37 ,8.1073 ,0.92537 ,4.66199 ,45.74349 
38 ,8.3477 ,0.92779 ,4.64488 ,45.57560 
39 ,8.5716 ,0.92995 ,4.59013 ,45.03835 
40 ,8.7958 ,0.93219 ,4.59697 ,45.10550 
41 ,8.9879 ,0.93428 ,4.58328 ,44.97119 
42 ,9.2119 ,0.93635 ,4.54222 ,44.56825 
43 ,9.4517 ,0.93881 ,4.53537 ,44.50109 
44 ,9.6602 ,0.94091 ,4.53537 ,44.50109 
45 ,9.8843 ,0.94308 ,4.51484 ,44.29962 
46 ,10.1081 ,0.94536 ,4.47720 ,43.93026 
47 ,10.3004 ,0.94738 ,4.44640 ,43.62806 
48 ,10.5404 ,0.94969 ,4.44298 ,43.59448 
49 ,10.7645 ,0.95193 ,4.41560 ,43.32585 
50 ,10.9886 ,0.95410 ,4.40533 ,43.22512 
51 ,11.1807 ,0.95619 ,4.38138 ,42.99007 
52 ,11.3885 ,0.95812 ,4.35742 ,42.75502 
53 ,11.5966 ,0.96021 ,4.34716 ,42.65429 
54 ,11.8052 ,0.96225 ,4.33347 ,42.51997 
55 ,12.0132 ,0.96438 ,4.29582 ,42.15061 
56 ,12.2371 ,0.96662 ,4.29582 ,42.15061 
57 ,12.4614 ,0.96891 ,4.26845 ,41.88198 
58 ,12.6692 ,0.97094 ,4.23080 ,41.51262 
59 ,12.8776 ,0.97304 ,4.23765 ,41.57978 
60 ,13.0855 ,0.97512 ,4.21027 ,41.31115 
61 ,13.3256 ,0.97738 ,4.17605 ,40.97537 
62 ,13.5499 ,0.97978 ,4.15209 ,40.74032 
63 ,13.7736 ,0.98193 ,4.14867 ,40.70674 
64 ,13.9817 ,0.98408 ,4.13156 ,40.53885 
65 ,14.2062 ,0.98630 ,4.09049 ,40.13591 
66 ,14.4142 ,0.98837 ,4.08023 ,40.03518 
67 ,14.6383 ,0.99067 ,4.08023 ,40.03518 
68 ,14.8461 ,0.99273 ,4.04600 ,39.69940 
69 ,15.0706 ,0.99497 ,4.00494 ,39.29646 
70 ,15.3106 ,0.99733 ,3.99125 ,39.16214 
71 ,15.5189 ,0.99946 ,3.99125 ,39.16214 
72 ,15.7107 ,1.00146 ,3.96387 ,38.89352 
73 ,15.9188 ,1.00343 ,3.95361 ,38.79278 
74 ,16.1430 ,1.00564 ,3.93307 ,38.59131 
75 ,16.3509 ,1.00787 ,3.90912 ,38.35626 
76 ,16.5751 ,1.00993 ,3.89543 ,38.22195 
77 ,16.7991 ,1.01223 ,3.87490 ,38.02048 
78 ,17.0073 ,1.01434 ,3.84067 ,37.68470 
79 ,17.2154 ,1.01643 ,3.83725 ,37.65112 
80 ,17.4237 ,1.01850 ,3.82356 ,37.51681 
81 ,17.6314 ,1.02058 ,3.78250 ,37.11387 
82 ,17.8717 ,1.02291 ,3.76881 ,36.97955 
83 ,18.0797 ,1.02498 ,3.75854 ,36.87882 
84 ,18.3038 ,1.02721 ,3.74143 ,36.71093 
85 ,18.5120 ,1.02940 ,3.71748 ,36.47588 
86 ,18.7197 ,1.03148 ,3.70379 ,36.34157 
87 ,18.9283 ,1.03354 ,3.67299 ,36.03936 
88 ,19.1363 ,1.03562 ,3.66272 ,35.93863 
89 ,19.3759 ,1.03800 ,3.64219 ,35.73716 
90 ,19.6005 ,1.04023 ,3.62508 ,35.56926 
91 ,19.8247 ,1.04247 ,3.60112 ,35.33422 
92 ,20.0487 ,1.04472 ,3.56690 ,34.99843 
93 ,20.2725 ,1.04696 ,3.56006 ,34.93128 
94 ,20.4963 ,1.04912 ,3.55321 ,34.86412 
95 ,20.7049 ,1.05128 ,3.52584 ,34.59549 
96 ,20.9129 ,1.05333 ,3.50530 ,34.39402 
97 ,21.1371 ,1.05561 ,3.48819 ,34.22613 
98 ,21.3292 ,1.05765 ,3.45739 ,33.92393 
99 ,21.5370 ,1.05963 ,3.46424 ,33.99108 
100 ,21.7772 ,1.06190 ,3.43001 ,33.65530 
101 ,22.0012 ,1.06425 ,3.41633 ,33.52099 
102 ,22.2255 ,1.06642 ,3.38895 ,33.25236 
103 ,22.4336 ,1.06853 ,3.37526 ,33.11805 
104 ,22.6416 ,1.07062 ,3.35815 ,32.95016 
105 ,22.8975 ,1.07302 ,3.32393 ,32.61437 
106 ,23.1221 ,1.07540 ,3.31366 ,32.51364 
107 ,23.3458 ,1.07764 ,3.29313 ,32.31217 
108 ,23.5540 ,1.07974 ,3.28628 ,32.24501 
109 ,23.7622 ,1.08183 ,3.25891 ,31.97639 
110 ,24.0022 ,1.08410 ,3.22811 ,31.67418 
111 ,24.2102 ,1.08642 ,3.20073 ,31.40555 
112 ,24.4343 ,1.08850 ,3.20073 ,31.40555 
113 ,24.6584 ,1.09078 ,3.18020 ,31.20409 
114 ,24.8664 ,1.09285 ,3.15282 ,30.93546 
115 ,25.1065 ,1.09519 ,3.14597 ,30.86830 
116 ,25.3310 ,1.09750 ,3.11518 ,30.56610 
117 ,25.5386 ,1.09957 ,3.11518 ,30.56610 
118 ,25.7469 ,1.10165 ,3.07069 ,30.12958 
119 ,25.9550 ,1.10369 ,3.08095 ,30.23031 
120 ,26.1471 ,1.10579 ,3.03989 ,29.82737 
121 ,26.3552 ,1.10767 ,3.03647 ,29.79380 
122 ,26.5790 ,1.11002 ,3.01935 ,29.62590 
123 ,26.7707 ,1.11203 ,2.99540 ,29.39086 
124 ,27.0428 ,1.11436 ,2.95433 ,28.98792 
125 ,27.2829 ,1.11700 ,2.94749 ,28.92076 
126 ,27.5551 ,1.11962 ,2.93380 ,28.78645 
127 ,27.8111 ,1.12227 ,2.92353 ,28.68571 
128 ,28.0512 ,1.12464 ,2.89273 ,28.38351 
129 ,28.2594 ,1.12691 ,2.89958 ,28.45066 
130 ,28.4994 ,1.12908 ,2.85167 ,27.98057 
131 ,28.7240 ,1.13141 ,2.82771 ,27.74552 
132 ,28.9318 ,1.13356 ,2.81402 ,27.61121 
133 ,29.1561 ,1.13573 ,2.81060 ,27.57763 
134 ,29.3642 ,1.13777 ,2.77296 ,27.20827 
135 ,29.5881 ,1.14006 ,2.75927 ,27.07395 
136 ,29.8124 ,1.14233 ,2.75585 ,27.04038 
137 ,30.0362 ,1.14450 ,2.73189 ,26.80533 
138 ,30.2446 ,1.14663 ,2.70794 ,26.57028 
139 ,30.4525 ,1.14877 ,2.69767 ,26.46954 
140 ,30.6764 ,1.15090 ,2.68398 ,26.33523 
141 ,30.8849 ,1.15304 ,2.64634 ,25.96587 
142 ,31.0767 ,1.15505 ,2.64634 ,25.96587 
143 ,31.2690 ,1.15702 ,2.61212 ,25.63009 
144 ,31.4609 ,1.15892 ,2.61554 ,25.66367 
145 ,31.6692 ,1.16089 ,2.57789 ,25.29430 
146 ,31.8932 ,1.16309 ,2.58132 ,25.32788 
147 ,32.1174 ,1.16535 ,2.55394 ,25.05926 
148 ,32.3256 ,1.16749 ,2.52656 ,24.79063 
149 ,32.5496 ,1.16969 ,2.51972 ,24.72347 
150 ,32.7578 ,1.17180 ,2.51630 ,24.68989 
151 ,32.9974 ,1.17406 ,2.47181 ,24.25338 
152 ,33.2217 ,1.17635 ,2.46154 ,24.15264 
153 ,33.4300 ,1.17857 ,2.42732 ,23.81686 
154 ,33.6540 ,1.18065 ,2.43416 ,23.88402 
155 ,33.8782 ,1.18298 ,2.40336 ,23.58181 
156 ,34.1180 ,1.18526 ,2.37941 ,23.34676 
157 ,34.3584 ,1.18766 ,2.35888 ,23.14529 
158 ,34.5664 ,1.18983 ,2.34519 ,23.01098 
159 ,34.7745 ,1.19190 ,2.34177 ,22.97740 
160 ,34.9987 ,1.19418 ,2.31097 ,22.67520 
161 ,35.2386 ,1.19657 ,2.28359 ,22.40657 
162 ,35.4628 ,1.19881 ,2.26990 ,22.27226 
163 ,35.6867 ,1.20106 ,2.25279 ,22.10437 
164 ,35.8950 ,1.20315 ,2.24937 ,22.07079 
165 ,36.0867 ,1.20522 ,2.22199 ,21.80216 
166 ,36.2951 ,1.20709 ,2.21515 ,21.73500 
167 ,36.5031 ,1.20914 ,2.18435 ,21.43280 
168 ,36.7111 ,1.21127 ,2.17408 ,21.33206 
169 ,36.9194 ,1.21336 ,2.16039 ,21.19775 
170 ,37.1274 ,1.21546 ,2.13301 ,20.92912 
171 ,37.3350 ,1.21754 ,2.14670 ,21.06344 
172 ,37.5434 ,1.21961 ,2.10564 ,20.66050 
173 ,37.7517 ,1.22180 ,2.09195 ,20.52619 
174 ,37.9598 ,1.22376 ,2.06457 ,20.25756 
175 ,38.1839 ,1.22599 ,2.05088 ,20.12325 
176 ,38.4075 ,1.22824 ,2.04404 ,20.05609 
177 ,38.6317 ,1.23050 ,2.03719 ,19.98893 
178 ,38.8402 ,1.23255 ,1.99955 ,19.61957 
179 ,39.0482 ,1.23467 ,1.99613 ,19.58599 
180 ,39.2722 ,1.23688 ,1.98586 ,19.48526 
181 ,39.4804 ,1.23907 ,1.96190 ,19.25021 
182 ,39.7208 ,1.24139 ,1.92768 ,18.91443 
183 ,39.9446 ,1.24359 ,1.91399 ,18.78011 
184 ,40.1526 ,1.24580 ,1.90715 ,18.71296 
185 ,40.3768 ,1.24789 ,1.89004 ,18.54507 
186 ,40.5849 ,1.24999 ,1.85240 ,18.17570 
187 ,40.8090 ,1.25219 ,1.85240 ,18.17570 
188 ,41.0331 ,1.25442 ,1.84555 ,18.10855 
189 ,41.2572 ,1.25670 ,1.82502 ,17.90708 
190 ,41.4971 ,1.25915 ,1.80449 ,17.70561 
191 ,41.7373 ,1.26141 ,1.78053 ,17.47056 
192 ,41.9773 ,1.26396 ,1.77026 ,17.36983 
193 ,42.2014 ,1.26614 ,1.73262 ,17.00046 
194 ,42.4096 ,1.26819 ,1.73262 ,17.00046 
195 ,42.6174 ,1.27035 ,1.70866 ,16.76542 
196 ,42.8258 ,1.27242 ,1.68813 ,16.56395 
197 ,43.0335 ,1.27447 ,1.68129 ,16.49679 
198 ,43.2420 ,1.27653 ,1.65391 ,16.22816 
199 ,43.4660 ,1.27885 ,1.64707 ,16.16101 
200 ,43.6742 ,1.28084 ,1.64022 ,16.09385 
201 ,43.8982 ,1.28313 ,1.60942 ,15.79164 
202 ,44.1220 ,1.28535 ,1.59573 ,15.65733 
203 ,44.3464 ,1.28753 ,1.58547 ,15.55660 
204 ,44.5702 ,1.28982 ,1.56493 ,15.35513 
205 ,44.7946 ,1.29198 ,1.55124 ,15.22081 
206 ,45.0188 ,1.29437 ,1.52387 ,14.95219 
207 ,45.2426 ,1.29654 ,1.49649 ,14.68356 
208 ,45.4509 ,1.29876 ,1.49991 ,14.71714 
209 ,45.6750 ,1.30081 ,1.48965 ,14.61640 
210 ,45.8991 ,1.30313 ,1.46227 ,14.34778 
211 ,46.1069 ,1.30521 ,1.44858 ,14.21346 
212 ,46.3147 ,1.30733 ,1.43489 ,14.07915 
213 ,46.5233 ,1.30935 ,1.41094 ,13.84410 
214 ,46.7316 ,1.31148 ,1.40409 ,13.77695 
215 ,46.9555 ,1.31370 ,1.38356 ,13.57548 
216 ,47.1792 ,1.31590 ,1.34591 ,13.20612 
217 ,47.3712 ,1.31797 ,1.35618 ,13.30685 
218 ,47.5958 ,1.32002 ,1.33223 ,13.07180 
219 ,47.8199 ,1.32231 ,1.30827 ,12.83675 
220 ,48.0280 ,1.32442 ,1.30485 ,12.80318 
221 ,48.2520 ,1.32661 ,1.29116 ,12.66886 
222 ,48.4759 ,1.32888 ,1.26036 ,12.36666 
223 ,48.7160 ,1.33124 ,1.23641 ,12.13161 
224 ,48.9244 ,1.33334 ,1.22956 ,12.06445 
225 ,49.1484 ,1.33562 ,1.20903 ,11.86298 
226 ,49.3723 ,1.33780 ,1.20903 ,11.86298 
227 ,49.5805 ,1.34005 ,1.17138 ,11.49362 
228 ,49.8048 ,1.34215 ,1.16796 ,11.46004 
229 ,50.0290 ,1.34439 ,1.15770 ,11.35931 
230 ,50.2369 ,1.34653 ,1.12690 ,11.05710 
231 ,50.4608 ,1.34872 ,1.12347 ,11.02353 
232 ,50.6691 ,1.35082 ,1.12005 ,10.98995 
233 ,50.9090 ,1.35318 ,1.09952 ,10.78848 
234 ,51.1328 ,1.35547 ,1.06872 ,10.48627 
235 ,51.3727 ,1.35792 ,1.06187 ,10.41912 
236 ,51.5970 ,1.36010 ,1.03792 ,10.18407 
237 ,51.8054 ,1.36220 ,1.02423 ,10.04976 
238 ,52.0777 ,1.36475 ,1.01054 ,9.91544 
239 ,52.3014 ,1.36711 ,0.98317 ,9.64682 
240 ,52.5097 ,1.36920 ,0.97974 ,9.61324 
241 ,52.7499 ,1.37157 ,0.96605 ,9.47892 
242 ,52.9737 ,1.37382 ,0.93868 ,9.21030 
243 ,53.2141 ,1.37627 ,0.92499 ,9.07598 
244 ,53.4378 ,1.37848 ,0.90103 ,8.84094 
245 ,53.6622 ,1.38077 ,0.87708 ,8.60589 
246 ,53.8863 ,1.38291 ,1.18850 ,11.66151 
247 ,54.0944 ,1.38510 ,1.19192 ,11.69509 
248 ,54.3344 ,1.38746 ,1.16112 ,11.39289 
249 ,54.5585 ,1.38965 ,1.16112 ,11.39289 
250 ,54.7668 ,1.39186 ,1.15770 ,11.35931 
251 ,54.9747 ,1.39379 ,1.14743 ,11.25857 
252 ,55.1989 ,1.39603 ,1.12347 ,11.02353 
253 ,55.4389 ,1.39847 ,1.12347 ,11.02353 
254 ,55.6630 ,1.40068 ,1.11663 ,10.95637 
255 ,55.8712 ,1.40277 ,1.10979 ,10.88921 
256 ,56.0952 ,1.40504 ,1.08583 ,10.65416 
257 ,56.3194 ,1.40733 ,1.09267 ,10.72132 
258 ,56.5594 ,1.40954 ,1.09267 ,10.72132 
259 ,56.7675 ,1.41177 ,1.07899 ,10.58701 
260 ,56.9915 ,1.41400 ,1.06187 ,10.41912 
261 ,57.2157 ,1.41626 ,1.04819 ,10.28480 
262 ,57.4398 ,1.41846 ,1.04476 ,10.25123 
263 ,57.6797 ,1.42081 ,1.04476 ,10.25123 
264 ,57.8879 ,1.42295 ,1.03792 ,10.18407 
265 ,58.0960 ,1.42504 ,1.01396 ,9.94902 
266 ,58.3202 ,1.42730 ,1.00370 ,9.84829 
267 ,58.5283 ,1.42938 ,1.00712 ,9.88186 
268 ,58.7520 ,1.43163 ,0.98659 ,9.68039 
269 ,58.9764 ,1.43384 ,0.97974 ,9.61324 
270 ,59.1845 ,1.43590 ,0.98317 ,9.64682 
271 ,59.4086 ,1.43817 ,0.96605 ,9.47892 
272 ,59.6006 ,1.44020 ,0.94894 ,9.31103 
273 ,59.8243 ,1.44228 ,0.96605 ,9.47892 
274 ,60.0325 ,1.44439 ,0.94552 ,9.27745 
275 ,60.2408 ,1.44651 ,0.93868 ,9.21030 
276 ,60.4490 ,1.44859 ,0.93183 ,9.14314 
277 ,60.6731 ,1.45079 ,0.91130 ,8.94167 
278 ,60.8808 ,1.45291 ,0.92157 ,9.04241 
279 ,61.1051 ,1.45517 ,0.91814 ,9.00883 
280 ,61.3295 ,1.45729 ,0.90788 ,8.90809 
281 ,61.5214 ,1.45938 ,0.89077 ,8.74020 
282 ,61.7297 ,1.46136 ,0.90788 ,8.90809 
283 ,61.9374 ,1.46346 ,0.87708 ,8.60589 
284 ,62.1613 ,1.46570 ,0.89419 ,8.77378 
285 ,62.3855 ,1.46782 ,0.87023 ,8.53873 
286 ,62.6260 ,1.47028 ,0.85997 ,8.43800 
287 ,62.8341 ,1.47242 ,0.84286 ,8.27011 
288 ,63.0581 ,1.47462 ,0.84970 ,8.33726 
289 ,63.2980 ,1.47693 ,0.84970 ,8.33726 
290 ,63.5222 ,1.47933 ,0.83943 ,8.23653 
291 ,63.7302 ,1.48134 ,0.82575 ,8.10221 
292 ,63.9705 ,1.48376 ,0.81890 ,8.03506 
293 ,64.1946 ,1.48592 ,0.80179 ,7.86717 
294 ,64.4344 ,1.48840 ,0.80179 ,7.86717 
295 ,64.6588 ,1.49061 ,0.80863 ,7.93432 
296 ,64.8829 ,1.49287 ,0.81548 ,8.00148 
297 ,65.0906 ,1.49496 ,0.79495 ,7.80001 
298 ,65.2990 ,1.49714 ,0.78468 ,7.69927 
299 ,65.5230 ,1.49924 ,0.79837 ,7.83359 
300 ,65.7471 ,1.50155 ,0.78468 ,7.69927 
301 ,65.9711 ,1.50375 ,0.77099 ,7.56496 
302 ,66.1790 ,1.50589 ,0.77784 ,7.63212 
303 ,66.4034 ,1.50803 ,0.76757 ,7.53138 
304 ,66.6114 ,1.51013 ,0.75730 ,7.43065 
305 ,66.8357 ,1.51243 ,0.74704 ,7.32991 
306 ,67.0277 ,1.51444 ,0.76415 ,7.49780 
307 ,67.2519 ,1.51656 ,0.75388 ,7.39707 
308 ,67.4600 ,1.51866 ,0.74361 ,7.29633 
309 ,67.6676 ,1.52084 ,0.75388 ,7.39707 
310 ,67.8761 ,1.52280 ,0.73335 ,7.19560 
311 ,68.0842 ,1.52491 ,0.74704 ,7.32991 
312 ,68.3083 ,1.52711 ,0.73335 ,7.19560 
313 ,68.5326 ,1.52934 ,0.71281 ,6.99413 
314 ,68.7400 ,1.53141 ,0.72650 ,7.12844 
315 ,68.9645 ,1.53364 ,0.72650 ,7.12844 
316 ,69.1724 ,1.53587 ,0.71966 ,7.06129 
317 ,69.3967 ,1.53798 ,0.70939 ,6.96055 
318 ,69.6049 ,1.54011 ,0.71624 ,7.02771 
319 ,69.8286 ,1.54231 ,0.70597 ,6.92697 
320 ,70.0529 ,1.54454 ,0.68544 ,6.72550 
321 ,70.2931 ,1.54692 ,0.69228 ,6.79266 
322 ,70.5012 ,1.54908 ,0.70597 ,6.92697 
323 ,70.7253 ,1.55128 ,0.69913 ,6.85982 
324 ,70.9491 ,1.55342 ,0.67517 ,6.62477 
325 ,71.1734 ,1.55578 ,0.67175 ,6.59119 
326 ,71.4137 ,1.55804 ,0.68201 ,6.69193 
327 ,71.6377 ,1.56042 ,0.68886 ,6.75908 
328 ,71.8458 ,1.56249 ,0.68886 ,6.75908 
329 ,72.0695 ,1.56473 ,0.67175 ,6.59119 
330 ,72.3100 ,1.56708 ,0.65464 ,6.42330 
331 ,72.5340 ,1.56939 ,0.67175 ,6.59119 
332 ,72.7419 ,1.57146 ,0.68201 ,6.69193 
333 ,72.9503 ,1.57365 ,0.66148 ,6.49046 
334 ,73.1584 ,1.57557 ,0.67517 ,6.62477 
335 ,73.3821 ,1.57791 ,0.65806 ,6.45688 
336 ,73.6065 ,1.58005 ,0.65464 ,6.42330 
337 ,73.8145 ,1.58219 ,0.65121 ,6.38972 
338 ,74.0227 ,1.58422 ,0.66148 ,6.49046 
339 ,74.2467 ,1.58648 ,0.64779 ,6.35614 
340 ,74.4548 ,1.58860 ,0.65464 ,6.42330 
341 ,74.6627 ,1.59065 ,0.63753 ,6.25541 
342 ,74.8870 ,1.59286 ,0.63068 ,6.18825 
343 ,75.1111 ,1.59525 ,0.63410 ,6.22183 
344 ,75.3193 ,1.59722 ,0.65121 ,6.38972 
345 ,75.5268 ,1.59939 ,0.64095 ,6.28899 
346 ,75.7354 ,1.60133 ,0.64095 ,6.28899 
347 ,75.9754 ,1.60368 ,0.64095 ,6.28899 
348 ,76.1992 ,1.60605 ,0.64437 ,6.32256 
349 ,76.4078 ,1.60811 ,0.60330 ,5.91962 
350 ,76.5993 ,1.61013 ,0.62042 ,6.08752 
351 ,76.8239 ,1.61222 ,0.62726 ,6.15467 
352 ,77.0480 ,1.61451 ,0.60330 ,5.91962 
353 ,77.2877 ,1.61682 ,0.60673 ,5.95320 
354 ,77.4960 ,1.61898 ,0.61357 ,6.02036 
355 ,77.6877 ,1.62099 ,0.61699 ,6.05394 
356 ,77.9122 ,1.62316 ,0.59988 ,5.88605 
357 ,78.1202 ,1.62535 ,0.60673 ,5.95320 
358 ,78.3445 ,1.62738 ,0.60330 ,5.91962 
359 ,78.5523 ,1.62952 ,0.60330 ,5.91962 
360 ,78.7766 ,1.63165 ,0.61015 ,5.98678 
361 ,79.0167 ,1.63410 ,0.59646 ,5.85247 
362 ,79.2089 ,1.63618 ,0.61699 ,6.05394 
363 ,79.4170 ,1.63819 ,0.63068 ,6.18825 
364 ,79.6090 ,1.64019 ,0.61699 ,6.05394 
365 ,79.8333 ,1.64226 ,0.62384 ,6.12109 
366 ,80.0409 ,1.64440 ,0.62726 ,6.15467 
367 ,80.2492 ,1.64646 ,0.60330 ,5.91962 
368 ,80.4572 ,1.64855 ,0.62726 ,6.15467 
369 ,80.6976 ,1.65094 ,0.64095 ,6.28899 
370 ,80.9213 ,1.65320 ,0.63410 ,6.22183 
371 ,81.1294 ,1.65524 ,0.62042 ,6.08752 
372 ,81.3377 ,1.65737 ,0.64095 ,6.28899 
373 ,81.5459 ,1.65943 ,0.62384 ,6.12109 
374 ,81.7696 ,1.66167 ,0.62384 ,6.12109 
375 ,81.9779 ,1.66377 ,0.63410 ,6.22183 
376 ,82.1857 ,1.66596 ,0.63068 ,6.18825 
377 ,82.4100 ,1.66804 ,0.60673 ,5.95320 
378 ,82.6343 ,1.67034 ,0.63068 ,6.18825 
379 ,82.8585 ,1.67253 ,0.64095 ,6.28899 
380 ,83.0824 ,1.67489 ,0.62726 ,6.15467 
381 ,83.3062 ,1.67706 ,0.62384 ,6.12109 
382 ,83.5307 ,1.67921 ,0.62042 ,6.08752 
383 ,83.7388 ,1.68138 ,0.63410 ,6.22183 
384 ,83.9467 ,1.68343 ,0.61699 ,6.05394 
385 ,84.1709 ,1.68572 ,0.63068 ,6.18825 
386 ,84.3787 ,1.68778 ,0.62042 ,6.08752 
387 ,84.6192 ,1.69015 ,0.62726 ,6.15467 
388 ,84.8593 ,1.69244 ,0.61699 ,6.05394 
389 ,85.0834 ,1.69485 ,0.66148 ,6.49046 
390 ,85.3074 ,1.69702 ,0.69570 ,6.82624 
391 ,85.6273 ,1.69977 ,0.69570 ,6.82624 
392 ,85.8357 ,1.70234 ,0.70597 ,6.92697 
393 ,86.0595 ,1.70457 ,0.68886 ,6.75908 
394 ,86.2838 ,1.70675 ,0.68201 ,6.69193 
395 ,86.5080 ,1.70907 ,0.68886 ,6.75908 
396 ,86.7478 ,1.71129 ,0.69570 ,6.82624 
397 ,86.9719 ,1.71366 ,0.70255 ,6.89340 
398 ,87.1638 ,1.71567 ,0.68544 ,6.72550 
399 ,87.3719 ,1.71767 ,0.69228 ,6.79266 
400 ,87.5800 ,1.71974 ,0.68544 ,6.72550 
401 ,87.7881 ,1.72191 ,0.67175 ,6.59119 
402 ,87.9966 ,1.72391 ,0.70597 ,6.92697 
403 ,88.2046 ,1.72601 ,0.67175 ,6.59119 
404 ,88.4290 ,1.72827 ,0.66833 ,6.55761 
405 ,88.6369 ,1.73032 ,0.69570 ,6.82624 
406 ,88.8447 ,1.73241 ,0.67517 ,6.62477 
407 ,89.0848 ,1.73484 ,0.67517 ,6.62477 
408 ,89.3092 ,1.73706 ,0.69570 ,6.82624 
409 ,89.5332 ,1.73926 ,0.69913 ,6.85982 
410 ,89.7573 ,1.74158 ,0.69913 ,6.85982 
411 ,89.9812 ,1.74381 ,0.66490 ,6.52403 
412 ,90.2054 ,1.74602 ,0.69570 ,6.82624 
413 ,90.4294 ,1.74827 ,0.68886 ,6.75908 
414 ,90.6537 ,1.75044 ,0.70597 ,6.92697 
415 ,90.8618 ,1.75257 ,0.69228 ,6.79266 
416 ,91.0859 ,1.75480 ,0.68201 ,6.69193 
417 ,91.3257 ,1.75713 ,0.70597 ,6.92697 
418 ,91.5501 ,1.75943 ,0.68886 ,6.75908 
419 ,91.7739 ,1.76168 ,0.70255 ,6.89340 
420 ,91.9821 ,1.76389 ,0.69570 ,6.82624 
421 ,92.1902 ,1.76589 ,0.70597 ,6.92697 
422 ,92.4302 ,1.76820 ,0.69228 ,6.79266 
423 ,92.6384 ,1.77033 ,0.69913 ,6.85982 
424 ,92.8626 ,1.77259 ,0.68544 ,6.72550 
425 ,93.0707 ,1.77468 ,0.70255 ,6.89340 
426 ,93.2946 ,1.77680 ,0.69570 ,6.82624 
427 ,93.5027 ,1.77898 ,0.68544 ,6.72550 
428 ,93.7106 ,1.78100 ,0.70255 ,6.89340 
429 ,93.9190 ,1.78314 ,0.68886 ,6.75908 
430 ,94.1431 ,1.78532 ,0.67175 ,6.59119 
431 ,94.3510 ,1.78758 ,0.69228 ,6.79266 
432 ,94.5588 ,1.78951 ,0.69228 ,6.79266 
433 ,94.7672 ,1.79166 ,0.69228 ,6.79266 
434 ,94.9752 ,1.79383 ,0.70255 ,6.89340 
435 ,95.1835 ,1.79591 ,0.68201 ,6.69193 
436 ,95.3914 ,1.79782 ,0.71281 ,6.99413 
437 ,95.5997 ,1.80007 ,0.69570 ,6.82624 
438 ,95.8240 ,1.80221 ,0.68886 ,6.75908 
439 ,96.0480 ,1.80444 ,0.68886 ,6.75908 
440 ,96.2556 ,1.80649 ,0.68544 ,6.72550 
441 ,96.4640 ,1.80858 ,0.68886 ,6.75908 
442 ,96.6719 ,1.81063 ,0.69913 ,6.85982 
443 ,96.8961 ,1.81291 ,0.68201 ,6.69193 
444 ,97.1204 ,1.81514 ,0.67859 ,6.65835 
445 ,97.3286 ,1.81722 ,0.69913 ,6.85982 
446 ,97.5527 ,1.81944 ,0.69913 ,6.85982 
447 ,97.7764 ,1.82170 ,0.68886 ,6.75908 
448 ,98.0006 ,1.82396 ,0.68201 ,6.69193 
449 ,98.2248 ,1.82619 ,0.68886 ,6.75908 
450 ,98.4330 ,1.82823 ,0.69913 ,6.85982 
451 ,98.6408 ,1.83044 ,0.69570 ,6.82624 
452 ,98.8652 ,1.83254 ,0.69228 ,6.79266 
453 ,99.0732 ,1.83467 ,0.69913 ,6.85982 
454 ,99.2809 ,1.83672 ,0.68544 ,6.72550 
455 ,99.4894 ,1.83879 ,0.69228 ,6.79266 
456 ,99.7135 ,1.84108 ,0.69228 ,6.79266 
457 ,99.9377 ,1.84331 ,0.68886 ,6.75908 
458 ,100.1612 ,1.84550 ,0.68201 ,6.69193 
459 ,100.3697 ,1.84758 ,0.70255 ,6.89340 
460 ,100.5938 ,1.84986 ,0.69228 ,6.79266 
461 ,100.7859 ,1.85190 ,0.67859 ,6.65835 
462 ,101.0101 ,1.85400 ,0.69228 ,6.79266 
463 ,101.2178 ,1.85612 ,0.67859 ,6.65835 
464 ,101.4420 ,1.85834 ,0.68544 ,6.72550 
465 ,101.6658 ,1.86063 ,0.70255 ,6.89340 
466 ,101.8740 ,1.86265 ,0.69913 ,6.85982 
467 ,102.0979 ,1.86478 ,0.67859 ,6.65835 
