Data stamp = , 03-06-2022 14:52:29 699

Calibration Values: 
Slope = , 26.54 , g/V 
Offset Voltage at no contact = , -0.501760 , V 

No , Time , Stage Position ,   Mass , Force 
   ,  (s) ,      (mm)      ,   (g)  , (mN)  

1 ,0.0000 ,0.84949 ,5.29510 ,51.95548 
2 ,0.2061 ,0.84958 ,5.30194 ,52.02263 
3 ,0.8628 ,0.85247 ,5.30536 ,52.05621 
4 ,1.1187 ,0.85528 ,5.31905 ,52.19052 
5 ,1.3585 ,0.85776 ,5.31563 ,52.15694 
6 ,1.5830 ,0.86010 ,5.30878 ,52.08979 
7 ,1.8070 ,0.86228 ,5.28825 ,51.88832 
8 ,2.0314 ,0.86461 ,5.25403 ,51.55254 
9 ,2.2714 ,0.86691 ,5.23007 ,51.31749 
10 ,2.4793 ,0.86902 ,5.22323 ,51.25033 
11 ,2.7036 ,0.87136 ,5.19927 ,51.01528 
12 ,2.9117 ,0.87329 ,5.16848 ,50.71308 
13 ,3.1198 ,0.87547 ,5.16505 ,50.67950 
14 ,3.3279 ,0.87751 ,5.14110 ,50.44445 
15 ,3.5518 ,0.87977 ,5.10003 ,50.04151 
16 ,3.7757 ,0.88192 ,5.10345 ,50.07509 
17 ,3.9997 ,0.88417 ,5.07608 ,49.80646 
18 ,4.2080 ,0.88627 ,5.06581 ,49.70573 
19 ,4.4164 ,0.88838 ,5.01106 ,49.16848 
20 ,4.6244 ,0.89049 ,5.03843 ,49.43710 
21 ,4.8481 ,0.89271 ,4.99394 ,49.00058 
22 ,5.0566 ,0.89479 ,4.96315 ,48.69838 
23 ,5.2805 ,0.89707 ,4.94603 ,48.53049 
24 ,5.4888 ,0.89911 ,4.93577 ,48.42975 
25 ,5.7124 ,0.90122 ,4.89812 ,48.06039 
26 ,5.9204 ,0.90341 ,4.88786 ,47.95966 
27 ,6.1289 ,0.90552 ,4.88101 ,47.89250 
28 ,6.3370 ,0.90772 ,4.82626 ,47.35525 
29 ,6.5451 ,0.90966 ,4.82626 ,47.35525 
30 ,6.7529 ,0.91174 ,4.79204 ,47.01946 
31 ,6.9608 ,0.91381 ,4.79888 ,47.08662 
32 ,7.2174 ,0.91635 ,4.75439 ,46.65010 
33 ,7.4415 ,0.91857 ,4.74413 ,46.54937 
34 ,7.6652 ,0.92088 ,4.71675 ,46.28074 
35 ,7.8737 ,0.92291 ,4.68937 ,46.01212 
36 ,8.0974 ,0.92517 ,4.66884 ,45.81065 
37 ,8.3218 ,0.92741 ,4.65857 ,45.70991 
38 ,8.5458 ,0.92966 ,4.63804 ,45.50844 
39 ,8.7535 ,0.93177 ,4.60382 ,45.17266 
40 ,8.9618 ,0.93381 ,4.59355 ,45.07192 
41 ,9.1859 ,0.93604 ,4.58671 ,45.00477 
42 ,9.4103 ,0.93836 ,4.54906 ,44.63541 
43 ,9.6344 ,0.94055 ,4.52169 ,44.36678 
44 ,9.8424 ,0.94265 ,4.51484 ,44.29962 
45 ,10.0504 ,0.94470 ,4.49773 ,44.13173 
46 ,10.2746 ,0.94700 ,4.46693 ,43.82953 
47 ,10.4987 ,0.94920 ,4.45666 ,43.72879 
48 ,10.7226 ,0.95143 ,4.43271 ,43.49374 
49 ,10.9309 ,0.95349 ,4.39849 ,43.15796 
50 ,11.1389 ,0.95572 ,4.39164 ,43.09080 
51 ,11.3471 ,0.95764 ,4.38822 ,43.05723 
52 ,11.5548 ,0.95977 ,4.34031 ,42.58713 
53 ,11.7953 ,0.96202 ,4.32662 ,42.45282 
54 ,12.0192 ,0.96438 ,4.30951 ,42.28492 
55 ,12.2274 ,0.96642 ,4.29924 ,42.18419 
56 ,12.4355 ,0.96859 ,4.26502 ,41.84841 
57 ,12.6592 ,0.97075 ,4.25476 ,41.74767 
58 ,12.8677 ,0.97285 ,4.25476 ,41.74767 
59 ,13.0918 ,0.97509 ,4.21711 ,41.37831 
60 ,13.3159 ,0.97735 ,4.19316 ,41.14326 
61 ,13.5240 ,0.97945 ,4.18631 ,41.07611 
62 ,13.7479 ,0.98162 ,4.14867 ,40.70674 
63 ,13.9560 ,0.98373 ,4.12129 ,40.43812 
64 ,14.1637 ,0.98588 ,4.12471 ,40.47170 
65 ,14.4039 ,0.98822 ,4.10076 ,40.23665 
66 ,14.6439 ,0.99070 ,4.07338 ,39.96802 
67 ,14.8839 ,0.99293 ,4.04943 ,39.73297 
68 ,15.1083 ,0.99522 ,4.02205 ,39.46435 
69 ,15.4128 ,0.99818 ,4.00152 ,39.26288 
70 ,15.6367 ,1.00057 ,3.97072 ,38.96067 
71 ,15.8445 ,1.00265 ,3.96387 ,38.89352 
72 ,16.0688 ,1.00485 ,3.93650 ,38.62489 
73 ,16.2933 ,1.00713 ,3.90912 ,38.35626 
74 ,16.5333 ,1.00942 ,3.90912 ,38.35626 
75 ,16.7412 ,1.01162 ,3.88174 ,38.08764 
76 ,16.9654 ,1.01385 ,3.88174 ,38.08764 
77 ,17.2052 ,1.01615 ,3.84410 ,37.71828 
78 ,17.4135 ,1.01845 ,3.80987 ,37.38249 
79 ,17.6216 ,1.02042 ,3.82356 ,37.51681 
80 ,17.8453 ,1.02261 ,3.78934 ,37.18102 
81 ,18.0535 ,1.02469 ,3.75512 ,36.84524 
82 ,18.3419 ,1.02759 ,3.74485 ,36.74450 
83 ,18.5660 ,1.02985 ,3.72090 ,36.50946 
84 ,18.7741 ,1.03198 ,3.70037 ,36.30799 
85 ,18.9980 ,1.03412 ,3.68325 ,36.14010 
86 ,19.1902 ,1.03618 ,3.66614 ,35.97220 
87 ,19.4142 ,1.03829 ,3.63877 ,35.70358 
88 ,19.6224 ,1.04045 ,3.62850 ,35.60284 
89 ,19.8145 ,1.04243 ,3.59086 ,35.23348 
90 ,20.0061 ,1.04437 ,3.59086 ,35.23348 
91 ,20.2147 ,1.04628 ,3.56348 ,34.96485 
92 ,20.4224 ,1.04836 ,3.56348 ,34.96485 
93 ,20.6629 ,1.05066 ,3.54295 ,34.76338 
94 ,20.8870 ,1.05305 ,3.52584 ,34.59549 
95 ,21.0951 ,1.05512 ,3.47792 ,34.12540 
96 ,21.3190 ,1.05735 ,3.47450 ,34.09182 
97 ,21.5269 ,1.05944 ,3.45397 ,33.89035 
98 ,21.7512 ,1.06171 ,3.41975 ,33.55457 
99 ,21.9755 ,1.06391 ,3.41290 ,33.48741 
100 ,22.1834 ,1.06601 ,3.41975 ,33.55457 
101 ,22.3914 ,1.06804 ,3.36499 ,33.01731 
102 ,22.6157 ,1.07028 ,3.36157 ,32.98374 
103 ,22.8396 ,1.07254 ,3.34788 ,32.84942 
104 ,23.0638 ,1.07477 ,3.33077 ,32.68153 
105 ,23.2720 ,1.07681 ,3.30339 ,32.41290 
106 ,23.4962 ,1.07912 ,3.27259 ,32.11070 
107 ,23.7041 ,1.08119 ,3.27602 ,32.14428 
108 ,23.9123 ,1.08326 ,3.23153 ,31.70776 
109 ,24.1204 ,1.08533 ,3.23153 ,31.70776 
110 ,24.3445 ,1.08758 ,3.22126 ,31.60702 
111 ,24.5526 ,1.08967 ,3.19046 ,31.30482 
112 ,24.7606 ,1.09175 ,3.18704 ,31.27124 
113 ,24.9681 ,1.09385 ,3.16309 ,31.03619 
114 ,25.1767 ,1.09592 ,3.12202 ,30.63325 
115 ,25.3847 ,1.09799 ,3.13571 ,30.76757 
116 ,25.5929 ,1.10002 ,3.08780 ,30.29747 
117 ,25.8169 ,1.10228 ,3.08095 ,30.23031 
118 ,26.0408 ,1.10443 ,3.08095 ,30.23031 
119 ,26.2652 ,1.10680 ,3.05700 ,29.99527 
120 ,26.4891 ,1.10905 ,3.03647 ,29.79380 
121 ,26.6976 ,1.11109 ,2.99882 ,29.42444 
122 ,26.9052 ,1.11321 ,3.01251 ,29.55875 
123 ,27.1135 ,1.11528 ,2.96460 ,29.08865 
124 ,27.3534 ,1.11760 ,2.95433 ,28.98792 
125 ,27.5777 ,1.11994 ,2.93722 ,28.82003 
126 ,27.7858 ,1.12207 ,2.93380 ,28.78645 
127 ,28.0095 ,1.12424 ,2.90300 ,28.48424 
128 ,28.2176 ,1.12625 ,2.86878 ,28.14846 
129 ,28.4419 ,1.12861 ,2.88247 ,28.28277 
130 ,28.6660 ,1.13080 ,2.86193 ,28.08130 
131 ,28.8579 ,1.13280 ,2.81060 ,27.57763 
132 ,29.0663 ,1.13478 ,2.82087 ,27.67836 
133 ,29.2905 ,1.13698 ,2.79691 ,27.44332 
134 ,29.4822 ,1.13907 ,2.77638 ,27.24185 
135 ,29.6906 ,1.14106 ,2.77296 ,27.20827 
136 ,29.9146 ,1.14326 ,2.74900 ,26.97322 
137 ,30.1383 ,1.14562 ,2.70794 ,26.57028 
138 ,30.3624 ,1.14771 ,2.71136 ,26.60386 
139 ,30.5704 ,1.14987 ,2.69425 ,26.43597 
140 ,30.7784 ,1.15191 ,2.66687 ,26.16734 
141 ,31.0030 ,1.15398 ,2.66345 ,26.13376 
142 ,31.2111 ,1.15624 ,2.64292 ,25.93229 
143 ,31.4353 ,1.15835 ,2.62238 ,25.73082 
144 ,31.6430 ,1.16058 ,2.61212 ,25.63009 
145 ,31.8675 ,1.16282 ,2.60185 ,25.52935 
146 ,32.0915 ,1.16504 ,2.56763 ,25.19357 
147 ,32.3153 ,1.16725 ,2.53683 ,24.89136 
148 ,32.5238 ,1.16932 ,2.53341 ,24.85779 
149 ,32.7473 ,1.17161 ,2.52314 ,24.75705 
150 ,32.9720 ,1.17384 ,2.49234 ,24.45485 
151 ,33.1961 ,1.17607 ,2.46154 ,24.15264 
152 ,33.4041 ,1.17816 ,2.45812 ,24.11906 
153 ,33.6442 ,1.18043 ,2.44785 ,24.01833 
154 ,33.8679 ,1.18281 ,2.42732 ,23.81686 
155 ,34.0925 ,1.18504 ,2.38625 ,23.41392 
156 ,34.3166 ,1.18727 ,2.36914 ,23.24603 
157 ,34.5246 ,1.18937 ,2.36914 ,23.24603 
158 ,34.7486 ,1.19155 ,2.34861 ,23.04456 
159 ,34.9568 ,1.19369 ,2.32123 ,22.77593 
160 ,35.1807 ,1.19590 ,2.31097 ,22.67520 
161 ,35.4047 ,1.19821 ,2.29728 ,22.54088 
162 ,35.6287 ,1.20040 ,2.29043 ,22.47373 
163 ,35.8372 ,1.20248 ,2.24937 ,22.07079 
164 ,36.0610 ,1.20473 ,2.23226 ,21.90290 
165 ,36.2853 ,1.20697 ,2.22541 ,21.83574 
166 ,36.4934 ,1.20900 ,2.20488 ,21.63427 
167 ,36.7011 ,1.21110 ,2.19461 ,21.53353 
168 ,36.9095 ,1.21320 ,2.17066 ,21.29849 
169 ,37.1177 ,1.21530 ,2.14328 ,21.02986 
170 ,37.3254 ,1.21734 ,2.14328 ,21.02986 
171 ,37.5339 ,1.21944 ,2.11248 ,20.72766 
172 ,37.7417 ,1.22156 ,2.10564 ,20.66050 
173 ,37.9500 ,1.22365 ,2.09195 ,20.52619 
174 ,38.1581 ,1.22569 ,2.06115 ,20.22398 
175 ,38.3817 ,1.22796 ,2.05430 ,20.15682 
176 ,38.6061 ,1.23012 ,2.03035 ,19.92178 
177 ,38.8301 ,1.23244 ,2.02008 ,19.82104 
178 ,39.0545 ,1.23462 ,1.98244 ,19.45168 
179 ,39.2783 ,1.23690 ,1.97217 ,19.35094 
180 ,39.4864 ,1.23900 ,1.96533 ,19.28379 
181 ,39.7107 ,1.24118 ,1.96190 ,19.25021 
182 ,39.9347 ,1.24347 ,1.92426 ,18.88085 
183 ,40.1587 ,1.24567 ,1.90031 ,18.64580 
184 ,40.3669 ,1.24777 ,1.90715 ,18.71296 
185 ,40.5909 ,1.24996 ,1.87977 ,18.44433 
186 ,40.8310 ,1.25240 ,1.85924 ,18.24286 
187 ,41.0550 ,1.25471 ,1.83528 ,18.00781 
188 ,41.2955 ,1.25705 ,1.81817 ,17.83992 
189 ,41.5355 ,1.25931 ,1.78737 ,17.53772 
190 ,41.7592 ,1.26166 ,1.78053 ,17.47056 
191 ,41.9834 ,1.26392 ,1.77026 ,17.36983 
192 ,42.2076 ,1.26616 ,1.76684 ,17.33625 
193 ,42.4158 ,1.26838 ,1.72578 ,16.93331 
194 ,42.6239 ,1.27032 ,1.72578 ,16.93331 
195 ,42.8477 ,1.27255 ,1.70866 ,16.76542 
196 ,43.0720 ,1.27482 ,1.67786 ,16.46321 
197 ,43.2801 ,1.27683 ,1.66418 ,16.32890 
198 ,43.4880 ,1.27898 ,1.65733 ,16.26174 
199 ,43.6964 ,1.28118 ,1.63338 ,16.02669 
200 ,43.9041 ,1.28310 ,1.62311 ,15.92596 
201 ,44.1123 ,1.28519 ,1.60942 ,15.79164 
202 ,44.3207 ,1.28728 ,1.57520 ,15.45586 
203 ,44.5287 ,1.28950 ,1.56151 ,15.32155 
204 ,44.7368 ,1.29144 ,1.55467 ,15.25439 
205 ,44.9609 ,1.29362 ,1.51702 ,14.88503 
206 ,45.1847 ,1.29591 ,1.53071 ,15.01934 
207 ,45.3929 ,1.29803 ,1.50676 ,14.78430 
208 ,45.6009 ,1.30008 ,1.49307 ,14.64998 
209 ,45.8090 ,1.30217 ,1.46911 ,14.41493 
210 ,46.0173 ,1.30425 ,1.45200 ,14.24704 
211 ,46.2410 ,1.30649 ,1.42805 ,14.01199 
212 ,46.4655 ,1.30872 ,1.42462 ,13.97842 
213 ,46.6894 ,1.31095 ,1.41436 ,13.87768 
214 ,46.8813 ,1.31300 ,1.38698 ,13.60906 
215 ,47.0897 ,1.31495 ,1.37671 ,13.50832 
216 ,47.3136 ,1.31722 ,1.35960 ,13.34043 
217 ,47.5378 ,1.31947 ,1.33565 ,13.10538 
218 ,47.7617 ,1.32164 ,1.31854 ,12.93749 
219 ,47.9861 ,1.32396 ,1.32196 ,12.97107 
220 ,48.1943 ,1.32601 ,1.30143 ,12.76960 
221 ,48.4022 ,1.32804 ,1.27405 ,12.50097 
222 ,48.6104 ,1.33017 ,1.26378 ,12.40024 
223 ,48.8344 ,1.33242 ,1.24667 ,12.23235 
224 ,49.0583 ,1.33464 ,1.21587 ,11.93014 
225 ,49.2665 ,1.33671 ,1.23298 ,12.09803 
226 ,49.4907 ,1.33895 ,1.21587 ,11.93014 
227 ,49.7146 ,1.34107 ,1.17138 ,11.49362 
228 ,49.9229 ,1.34325 ,1.16454 ,11.42647 
229 ,50.1470 ,1.34553 ,1.16454 ,11.42647 
230 ,50.3390 ,1.34755 ,1.13716 ,11.15784 
231 ,50.5471 ,1.34952 ,1.12690 ,11.05710 
232 ,50.7707 ,1.35178 ,1.11663 ,10.95637 
233 ,50.9792 ,1.35382 ,1.07556 ,10.55343 
234 ,51.1874 ,1.35589 ,1.07556 ,10.55343 
235 ,51.3955 ,1.35803 ,1.06187 ,10.41912 
236 ,51.5876 ,1.36005 ,1.04476 ,10.25123 
237 ,51.8112 ,1.36214 ,1.03108 ,10.11691 
238 ,52.0358 ,1.36442 ,1.01396 ,9.94902 
239 ,52.2596 ,1.36669 ,0.99001 ,9.71397 
240 ,52.4679 ,1.36873 ,0.99001 ,9.71397 
241 ,52.6921 ,1.37101 ,0.98659 ,9.68039 
242 ,52.9155 ,1.37318 ,0.95237 ,9.34461 
243 ,53.1718 ,1.37573 ,0.94210 ,9.24388 
244 ,53.3959 ,1.37800 ,0.92499 ,9.07598 
245 ,53.6043 ,1.38007 ,0.91130 ,8.94167 
246 ,53.8286 ,1.38238 ,0.89761 ,8.80736 
247 ,54.0523 ,1.38459 ,1.17138 ,11.49362 
248 ,54.2928 ,1.38698 ,1.18507 ,11.62794 
249 ,54.5169 ,1.38921 ,1.15770 ,11.35931 
250 ,54.7085 ,1.39125 ,1.16454 ,11.42647 
251 ,54.9169 ,1.39318 ,1.15770 ,11.35931 
252 ,55.1245 ,1.39526 ,1.14743 ,11.25857 
253 ,55.3330 ,1.39736 ,1.14058 ,11.19142 
254 ,55.5250 ,1.39938 ,1.11663 ,10.95637 
255 ,55.7333 ,1.40140 ,1.13374 ,11.12426 
256 ,55.9573 ,1.40352 ,1.10294 ,10.82206 
257 ,56.1654 ,1.40570 ,1.10294 ,10.82206 
258 ,56.3730 ,1.40777 ,1.10294 ,10.82206 
259 ,56.5816 ,1.40986 ,1.08241 ,10.62059 
260 ,56.8056 ,1.41209 ,1.08583 ,10.65416 
261 ,57.0136 ,1.41416 ,1.07556 ,10.55343 
262 ,57.2219 ,1.41625 ,1.06187 ,10.41912 
263 ,57.4455 ,1.41846 ,1.05845 ,10.38554 
264 ,57.6699 ,1.42077 ,1.05503 ,10.35196 
265 ,57.8942 ,1.42298 ,1.02423 ,10.04976 
266 ,58.1182 ,1.42520 ,1.01054 ,9.91544 
267 ,58.3420 ,1.42747 ,1.02423 ,10.04976 
268 ,58.5499 ,1.42954 ,1.02423 ,10.04976 
269 ,58.7745 ,1.43177 ,0.99685 ,9.78113 
270 ,58.9987 ,1.43400 ,0.98317 ,9.64682 
271 ,59.2064 ,1.43620 ,0.96605 ,9.47892 
272 ,59.4148 ,1.43819 ,0.97632 ,9.57966 
273 ,59.6386 ,1.44040 ,0.95579 ,9.37819 
274 ,59.8628 ,1.44267 ,0.94552 ,9.27745 
275 ,60.1027 ,1.44495 ,0.95237 ,9.34461 
276 ,60.3270 ,1.44729 ,0.94210 ,9.24388 
277 ,60.5353 ,1.44938 ,0.92499 ,9.07598 
278 ,60.7590 ,1.45158 ,0.90788 ,8.90809 
279 ,60.9832 ,1.45388 ,0.93183 ,9.14314 
280 ,61.2072 ,1.45611 ,0.92841 ,9.10956 
281 ,61.4316 ,1.45830 ,0.92157 ,9.04241 
282 ,61.6395 ,1.46041 ,0.89077 ,8.74020 
283 ,61.8637 ,1.46257 ,0.89077 ,8.74020 
284 ,62.1039 ,1.46502 ,0.88734 ,8.70662 
285 ,62.3279 ,1.46728 ,0.88734 ,8.70662 
286 ,62.5520 ,1.46957 ,0.87366 ,8.57231 
287 ,62.7601 ,1.47164 ,0.84970 ,8.33726 
288 ,62.9682 ,1.47371 ,0.85997 ,8.43800 
289 ,63.2081 ,1.47594 ,0.83943 ,8.23653 
290 ,63.4164 ,1.47831 ,0.84628 ,8.30368 
291 ,63.6726 ,1.48079 ,0.84286 ,8.27011 
292 ,63.8968 ,1.48298 ,0.80863 ,7.93432 
293 ,64.1364 ,1.48523 ,0.80521 ,7.90074 
294 ,64.3606 ,1.48763 ,0.81548 ,8.00148 
295 ,64.5845 ,1.48984 ,0.81890 ,8.03506 
296 ,64.7930 ,1.49195 ,0.81548 ,8.00148 
297 ,65.0171 ,1.49420 ,0.79152 ,7.76643 
298 ,65.2251 ,1.49624 ,0.79152 ,7.76643 
299 ,65.4652 ,1.49854 ,0.79837 ,7.83359 
300 ,65.6890 ,1.50089 ,0.79152 ,7.76643 
301 ,65.8973 ,1.50297 ,0.77441 ,7.59854 
302 ,66.1214 ,1.50517 ,0.76757 ,7.53138 
303 ,66.3295 ,1.50727 ,0.78126 ,7.66570 
304 ,66.5855 ,1.50977 ,0.77441 ,7.59854 
305 ,66.7938 ,1.51202 ,0.77099 ,7.56496 
306 ,67.0177 ,1.51415 ,0.75388 ,7.39707 
307 ,67.2418 ,1.51641 ,0.74019 ,7.26276 
308 ,67.4659 ,1.51861 ,0.76757 ,7.53138 
309 ,67.7220 ,1.52106 ,0.76072 ,7.46423 
310 ,67.9462 ,1.52347 ,0.75730 ,7.43065 
311 ,68.1542 ,1.52567 ,0.75046 ,7.36349 
312 ,68.3784 ,1.52772 ,0.73677 ,7.22918 
313 ,68.5862 ,1.52987 ,0.73677 ,7.22918 
314 ,68.8104 ,1.53212 ,0.74361 ,7.29633 
315 ,69.0184 ,1.53428 ,0.72992 ,7.16202 
316 ,69.2426 ,1.53640 ,0.71966 ,7.06129 
317 ,69.4508 ,1.53851 ,0.72650 ,7.12844 
318 ,69.6749 ,1.54069 ,0.70939 ,6.96055 
319 ,69.8988 ,1.54291 ,0.70255 ,6.89340 
320 ,70.1070 ,1.54507 ,0.71281 ,6.99413 
321 ,70.3471 ,1.54736 ,0.71281 ,6.99413 
322 ,70.5551 ,1.54957 ,0.69913 ,6.85982 
323 ,70.7790 ,1.55174 ,0.69228 ,6.79266 
324 ,71.0349 ,1.55416 ,0.68886 ,6.75908 
325 ,71.2594 ,1.55651 ,0.68544 ,6.72550 
326 ,71.4837 ,1.55884 ,0.67517 ,6.62477 
327 ,71.6915 ,1.56094 ,0.70255 ,6.89340 
328 ,71.9158 ,1.56301 ,0.67859 ,6.65835 
329 ,72.1397 ,1.56534 ,0.68201 ,6.69193 
330 ,72.3636 ,1.56757 ,0.67175 ,6.59119 
331 ,72.5560 ,1.56963 ,0.67517 ,6.62477 
332 ,72.7642 ,1.57162 ,0.66833 ,6.55761 
333 ,72.9884 ,1.57387 ,0.67859 ,6.65835 
334 ,73.2121 ,1.57607 ,0.68201 ,6.69193 
335 ,73.4202 ,1.57814 ,0.65464 ,6.42330 
336 ,73.6282 ,1.58025 ,0.66148 ,6.49046 
337 ,73.8526 ,1.58241 ,0.64779 ,6.35614 
338 ,74.0607 ,1.58461 ,0.64779 ,6.35614 
339 ,74.2842 ,1.58680 ,0.65121 ,6.38972 
340 ,74.4925 ,1.58891 ,0.66490 ,6.52403 
341 ,74.7488 ,1.59124 ,0.64437 ,6.32256 
342 ,74.9569 ,1.59365 ,0.64779 ,6.35614 
343 ,75.1809 ,1.59579 ,0.63410 ,6.22183 
344 ,75.4047 ,1.59801 ,0.63753 ,6.25541 
345 ,75.6292 ,1.60022 ,0.64095 ,6.28899 
346 ,75.8534 ,1.60254 ,0.63753 ,6.25541 
347 ,76.0774 ,1.60474 ,0.61699 ,6.05394 
348 ,76.3017 ,1.60693 ,0.63068 ,6.18825 
349 ,76.5091 ,1.60916 ,0.65121 ,6.38972 
350 ,76.7173 ,1.61126 ,0.62726 ,6.15467 
351 ,76.9417 ,1.61337 ,0.61699 ,6.05394 
352 ,77.1499 ,1.61545 ,0.62384 ,6.12109 
353 ,77.3897 ,1.61781 ,0.61357 ,6.02036 
354 ,77.6137 ,1.62006 ,0.62726 ,6.15467 
355 ,77.8378 ,1.62232 ,0.59646 ,5.85247 
356 ,78.0462 ,1.62453 ,0.62042 ,6.08752 
357 ,78.2538 ,1.62659 ,0.61699 ,6.05394 
358 ,78.4625 ,1.62857 ,0.61015 ,5.98678 
359 ,78.6706 ,1.63063 ,0.60673 ,5.95320 
360 ,78.8945 ,1.63284 ,0.60330 ,5.91962 
361 ,79.1184 ,1.63514 ,0.62384 ,6.12109 
362 ,79.3427 ,1.63735 ,0.63068 ,6.18825 
363 ,79.5508 ,1.63943 ,0.63753 ,6.25541 
364 ,79.7907 ,1.64181 ,0.60673 ,5.95320 
365 ,80.0309 ,1.64425 ,0.62384 ,6.12109 
366 ,80.2551 ,1.64647 ,0.61357 ,6.02036 
367 ,80.4633 ,1.64860 ,0.63068 ,6.18825 
368 ,80.6874 ,1.65080 ,0.64437 ,6.32256 
369 ,80.9114 ,1.65300 ,0.64437 ,6.32256 
370 ,81.1356 ,1.65529 ,0.62726 ,6.15467 
371 ,81.3431 ,1.65749 ,0.62042 ,6.08752 
372 ,81.5517 ,1.65937 ,0.65121 ,6.38972 
373 ,81.7758 ,1.66166 ,0.62726 ,6.15467 
374 ,81.9836 ,1.66381 ,0.64779 ,6.35614 
375 ,82.1917 ,1.66588 ,0.64095 ,6.28899 
376 ,82.4000 ,1.66790 ,0.62726 ,6.15467 
377 ,82.6242 ,1.67017 ,0.64095 ,6.28899 
378 ,82.8481 ,1.67236 ,0.63410 ,6.22183 
379 ,83.0721 ,1.67464 ,0.62384 ,6.12109 
380 ,83.2799 ,1.67676 ,0.62726 ,6.15467 
381 ,83.4885 ,1.67878 ,0.64095 ,6.28899 
382 ,83.7127 ,1.68107 ,0.63068 ,6.18825 
383 ,83.9366 ,1.68330 ,0.63410 ,6.22183 
384 ,84.1606 ,1.68547 ,0.62726 ,6.15467 
385 ,84.3524 ,1.68757 ,0.64095 ,6.28899 
386 ,84.5769 ,1.68973 ,0.61699 ,6.05394 
387 ,84.8011 ,1.69189 ,0.63068 ,6.18825 
388 ,85.0411 ,1.69422 ,0.68201 ,6.69193 
389 ,85.2811 ,1.69662 ,0.70255 ,6.89340 
390 ,85.4728 ,1.69872 ,0.69228 ,6.79266 
391 ,85.6974 ,1.70088 ,0.68201 ,6.69193 
392 ,85.9214 ,1.70310 ,0.68886 ,6.75908 
393 ,86.1456 ,1.70527 ,0.69913 ,6.85982 
394 ,86.3694 ,1.70759 ,0.69570 ,6.82624 
395 ,86.5934 ,1.70987 ,0.68886 ,6.75908 
396 ,86.8176 ,1.71207 ,0.67859 ,6.65835 
397 ,87.0261 ,1.71416 ,0.68544 ,6.72550 
398 ,87.2497 ,1.71637 ,0.70255 ,6.89340 
399 ,87.4581 ,1.71847 ,0.69570 ,6.82624 
400 ,87.6818 ,1.72070 ,0.69228 ,6.79266 
401 ,87.9060 ,1.72296 ,0.71281 ,6.99413 
402 ,88.0982 ,1.72500 ,0.67859 ,6.65835 
403 ,88.3063 ,1.72706 ,0.68886 ,6.75908 
404 ,88.5145 ,1.72904 ,0.68544 ,6.72550 
405 ,88.7384 ,1.73127 ,0.68201 ,6.69193 
406 ,88.9627 ,1.73356 ,0.70255 ,6.89340 
407 ,89.1709 ,1.73564 ,0.69913 ,6.85982 
408 ,89.3950 ,1.73783 ,0.69228 ,6.79266 
409 ,89.6025 ,1.74004 ,0.68544 ,6.72550 
410 ,89.7949 ,1.74195 ,0.70255 ,6.89340 
411 ,90.0027 ,1.74392 ,0.70939 ,6.96055 
412 ,90.1948 ,1.74599 ,0.70255 ,6.89340 
413 ,90.4029 ,1.74790 ,0.69570 ,6.82624 
414 ,90.6109 ,1.75000 ,0.69570 ,6.82624 
415 ,90.8353 ,1.75223 ,0.68544 ,6.72550 
416 ,91.0434 ,1.75433 ,0.69570 ,6.82624 
417 ,91.2675 ,1.75659 ,0.69913 ,6.85982 
418 ,91.4758 ,1.75864 ,0.69570 ,6.82624 
419 ,91.7159 ,1.76092 ,0.69228 ,6.79266 
420 ,91.9240 ,1.76315 ,0.70597 ,6.92697 
421 ,92.1319 ,1.76528 ,0.69570 ,6.82624 
422 ,92.3720 ,1.76764 ,0.69228 ,6.79266 
423 ,92.5963 ,1.76985 ,0.68886 ,6.75908 
424 ,92.8204 ,1.77208 ,0.69228 ,6.79266 
425 ,93.0445 ,1.77434 ,0.71624 ,7.02771 
426 ,93.2684 ,1.77654 ,0.69570 ,6.82624 
427 ,93.4926 ,1.77879 ,0.68886 ,6.75908 
428 ,93.7167 ,1.78102 ,0.68544 ,6.72550 
429 ,93.9248 ,1.78313 ,0.71281 ,6.99413 
430 ,94.1484 ,1.78527 ,0.70597 ,6.92697 
431 ,94.3570 ,1.78749 ,0.69570 ,6.82624 
432 ,94.5970 ,1.78982 ,0.69228 ,6.79266 
433 ,94.8211 ,1.79207 ,0.69570 ,6.82624 
434 ,95.0452 ,1.79435 ,0.70597 ,6.92697 
435 ,95.2529 ,1.79647 ,0.68544 ,6.72550 
436 ,95.4614 ,1.79854 ,0.68201 ,6.69193 
437 ,95.7012 ,1.80075 ,0.68544 ,6.72550 
438 ,95.9255 ,1.80311 ,0.69913 ,6.85982 
439 ,96.1337 ,1.80521 ,0.68544 ,6.72550 
440 ,96.3414 ,1.80731 ,0.68886 ,6.75908 
441 ,96.5818 ,1.80958 ,0.71624 ,7.02771 
442 ,96.7895 ,1.81179 ,0.70939 ,6.96055 
443 ,96.9978 ,1.81380 ,0.69228 ,6.79266 
444 ,97.2060 ,1.81594 ,0.71281 ,6.99413 
445 ,97.4142 ,1.81802 ,0.68886 ,6.75908 
446 ,97.6062 ,1.82008 ,0.69570 ,6.82624 
447 ,97.8300 ,1.82215 ,0.69913 ,6.85982 
448 ,98.0384 ,1.82423 ,0.69228 ,6.79266 
449 ,98.2626 ,1.82652 ,0.70255 ,6.89340 
450 ,98.4867 ,1.82866 ,0.70255 ,6.89340 
451 ,98.6946 ,1.83082 ,0.68886 ,6.75908 
452 ,98.9025 ,1.83291 ,0.70597 ,6.92697 
453 ,99.1429 ,1.83518 ,0.70255 ,6.89340 
454 ,99.3670 ,1.83753 ,0.70597 ,6.92697 
455 ,99.5752 ,1.83963 ,0.69228 ,6.79266 
456 ,99.7833 ,1.84174 ,0.68886 ,6.75908 
457 ,100.0072 ,1.84395 ,0.69913 ,6.85982 
458 ,100.2630 ,1.84633 ,0.70939 ,6.96055 
459 ,100.4716 ,1.84853 ,0.69570 ,6.82624 
460 ,100.6796 ,1.85066 ,0.69228 ,6.79266 
461 ,100.8877 ,1.85285 ,0.70939 ,6.96055 
462 ,101.0959 ,1.85480 ,0.67175 ,6.59119 
463 ,101.3039 ,1.85693 ,0.70255 ,6.89340 
464 ,101.5121 ,1.85900 ,0.68886 ,6.75908 
465 ,101.7362 ,1.86123 ,0.68544 ,6.72550 
466 ,101.9441 ,1.86331 ,0.70255 ,6.89340 
467 ,102.1522 ,1.86535 ,0.70255 ,6.89340 
