Data stamp = , 02-06-2022 19:57:46 201

Calibration Values: 
Slope = , 26.54 , g/V 
Offset Voltage at no contact = , -0.501760 , V 

No , Time , Stage Position ,   Mass , Force 
   ,  (s) ,      (mm)      ,   (g)  , (mN)  

1 ,0.0000 ,0.84958 ,5.32932 ,52.29126 
2 ,0.2079 ,0.84967 ,5.31905 ,52.19052 
3 ,0.8481 ,0.85241 ,5.34301 ,52.42557 
4 ,1.0887 ,0.85513 ,5.32247 ,52.22410 
5 ,1.3448 ,0.85752 ,5.32932 ,52.29126 
6 ,1.5687 ,0.85999 ,5.32247 ,52.22410 
7 ,1.7768 ,0.86210 ,5.31221 ,52.12337 
8 ,1.9685 ,0.86413 ,5.29852 ,51.98905 
9 ,2.1931 ,0.86628 ,5.25745 ,51.58611 
10 ,2.4170 ,0.86848 ,5.24034 ,51.41822 
11 ,2.6412 ,0.87074 ,5.24034 ,51.41822 
12 ,2.8654 ,0.87299 ,5.20954 ,51.11602 
13 ,3.0890 ,0.87534 ,5.18216 ,50.84739 
14 ,3.3133 ,0.87751 ,5.15136 ,50.54519 
15 ,3.5376 ,0.87969 ,5.13768 ,50.41087 
16 ,3.7457 ,0.88178 ,5.11714 ,50.20940 
17 ,3.9536 ,0.88383 ,5.08977 ,49.94078 
18 ,4.1619 ,0.88596 ,5.09319 ,49.97436 
19 ,4.3860 ,0.88816 ,5.03501 ,49.40352 
20 ,4.6100 ,0.89044 ,5.02474 ,49.30279 
21 ,4.8181 ,0.89252 ,5.00763 ,49.13490 
22 ,5.0423 ,0.89469 ,5.00079 ,49.06774 
23 ,5.2504 ,0.89682 ,4.95972 ,48.66480 
24 ,5.4902 ,0.89925 ,4.93919 ,48.46333 
25 ,5.7149 ,0.90141 ,4.92892 ,48.36260 
26 ,5.9066 ,0.90352 ,4.90497 ,48.12755 
27 ,6.1147 ,0.90545 ,4.89128 ,47.99324 
28 ,6.3227 ,0.90761 ,4.87075 ,47.79177 
29 ,6.5467 ,0.90975 ,4.82968 ,47.38883 
30 ,6.7709 ,0.91204 ,4.81257 ,47.22093 
31 ,6.9791 ,0.91408 ,4.82284 ,47.32167 
32 ,7.2031 ,0.91629 ,4.78177 ,46.91873 
33 ,7.4111 ,0.91842 ,4.75782 ,46.68368 
34 ,7.6193 ,0.92049 ,4.75439 ,46.65010 
35 ,7.8273 ,0.92255 ,4.72017 ,46.31432 
36 ,8.0355 ,0.92462 ,4.70306 ,46.14643 
37 ,8.2436 ,0.92673 ,4.68937 ,46.01212 
38 ,8.4518 ,0.92884 ,4.65173 ,45.64275 
39 ,8.6753 ,0.93103 ,4.63804 ,45.50844 
40 ,8.8837 ,0.93313 ,4.62093 ,45.34055 
41 ,9.1079 ,0.93539 ,4.60040 ,45.13908 
42 ,9.3317 ,0.93762 ,4.57302 ,44.87045 
43 ,9.5397 ,0.93985 ,4.54564 ,44.60183 
44 ,9.7477 ,0.94176 ,4.54222 ,44.56825 
45 ,9.9562 ,0.94390 ,4.51826 ,44.33320 
46 ,10.1801 ,0.94607 ,4.51142 ,44.26604 
47 ,10.4044 ,0.94830 ,4.48062 ,43.96384 
48 ,10.6124 ,0.95043 ,4.44982 ,43.66163 
49 ,10.8202 ,0.95253 ,4.44982 ,43.66163 
50 ,11.0447 ,0.95476 ,4.42244 ,43.39301 
51 ,11.2685 ,0.95702 ,4.39507 ,43.12438 
52 ,11.4768 ,0.95906 ,4.39164 ,43.09080 
53 ,11.6851 ,0.96114 ,4.36084 ,42.78860 
54 ,11.8925 ,0.96323 ,4.32320 ,42.41924 
55 ,12.1171 ,0.96534 ,4.32662 ,42.45282 
56 ,12.3411 ,0.96767 ,4.30267 ,42.21777 
57 ,12.5495 ,0.96981 ,4.28213 ,42.01630 
58 ,12.7730 ,0.97199 ,4.25133 ,41.71409 
59 ,12.9814 ,0.97408 ,4.23765 ,41.57978 
60 ,13.1895 ,0.97613 ,4.21711 ,41.37831 
61 ,13.3977 ,0.97825 ,4.21027 ,41.31115 
62 ,13.6052 ,0.98044 ,4.19316 ,41.14326 
63 ,13.8615 ,0.98270 ,4.15209 ,40.74032 
64 ,14.0695 ,0.98494 ,4.13156 ,40.53885 
65 ,14.2939 ,0.98716 ,4.12471 ,40.47170 
66 ,14.5181 ,0.98946 ,4.10076 ,40.23665 
67 ,14.7262 ,0.99153 ,4.06996 ,39.93444 
68 ,14.9339 ,0.99363 ,4.06312 ,39.86729 
69 ,15.1420 ,0.99563 ,4.05627 ,39.80013 
70 ,15.3502 ,0.99780 ,4.01863 ,39.43077 
71 ,15.5745 ,0.99990 ,4.00836 ,39.33003 
72 ,15.7987 ,1.00224 ,3.98783 ,39.12856 
73 ,16.0227 ,1.00450 ,3.96729 ,38.92709 
74 ,16.2308 ,1.00660 ,3.93307 ,38.59131 
75 ,16.4388 ,1.00866 ,3.93307 ,38.59131 
76 ,16.6467 ,1.01070 ,3.90912 ,38.35626 
77 ,16.8706 ,1.01300 ,3.87832 ,38.05406 
78 ,17.0950 ,1.01520 ,3.85779 ,37.85259 
79 ,17.3513 ,1.01778 ,3.82699 ,37.55038 
80 ,17.5434 ,1.01982 ,3.82356 ,37.51681 
81 ,17.7513 ,1.02178 ,3.79276 ,37.21460 
82 ,17.9756 ,1.02393 ,3.79276 ,37.21460 
83 ,18.1994 ,1.02627 ,3.77223 ,37.01313 
84 ,18.4078 ,1.02835 ,3.75170 ,36.81166 
85 ,18.6318 ,1.03061 ,3.71063 ,36.40872 
86 ,18.8400 ,1.03263 ,3.71748 ,36.47588 
87 ,19.0480 ,1.03478 ,3.68668 ,36.17367 
88 ,19.2559 ,1.03686 ,3.66957 ,36.00578 
89 ,19.4643 ,1.03895 ,3.65930 ,35.90505 
90 ,19.6879 ,1.04115 ,3.63534 ,35.67000 
91 ,19.8961 ,1.04323 ,3.60112 ,35.33422 
92 ,20.1045 ,1.04534 ,3.59428 ,35.26706 
93 ,20.3286 ,1.04752 ,3.56348 ,34.96485 
94 ,20.5366 ,1.04963 ,3.54979 ,34.83054 
95 ,20.7603 ,1.05189 ,3.53952 ,34.72981 
96 ,20.9849 ,1.05405 ,3.51899 ,34.52834 
97 ,21.2089 ,1.05635 ,3.49504 ,34.29329 
98 ,21.4009 ,1.05843 ,3.48819 ,34.22613 
99 ,21.6251 ,1.06044 ,3.46424 ,33.99108 
100 ,21.8332 ,1.06259 ,3.43344 ,33.68888 
101 ,22.0573 ,1.06486 ,3.43001 ,33.65530 
102 ,22.2813 ,1.06705 ,3.42317 ,33.58814 
103 ,22.4894 ,1.06912 ,3.38210 ,33.18520 
104 ,22.6971 ,1.07123 ,3.36157 ,32.98374 
105 ,22.9053 ,1.07327 ,3.35815 ,32.95016 
106 ,23.1135 ,1.07543 ,3.33419 ,32.71511 
107 ,23.3537 ,1.07764 ,3.30682 ,32.44648 
108 ,23.5779 ,1.08003 ,3.29655 ,32.34575 
109 ,23.7860 ,1.08206 ,3.26575 ,32.04354 
110 ,24.0099 ,1.08432 ,3.24864 ,31.87565 
111 ,24.2341 ,1.08659 ,3.22126 ,31.60702 
112 ,24.4422 ,1.08866 ,3.22811 ,31.67418 
113 ,24.6503 ,1.09079 ,3.19731 ,31.37198 
114 ,24.8584 ,1.09282 ,3.16993 ,31.10335 
115 ,25.0665 ,1.09489 ,3.15966 ,31.00262 
116 ,25.2588 ,1.09691 ,3.12886 ,30.70041 
117 ,25.5147 ,1.09938 ,3.10833 ,30.49894 
118 ,25.7384 ,1.10162 ,3.10491 ,30.46536 
119 ,25.9466 ,1.10365 ,3.10491 ,30.46536 
120 ,26.1708 ,1.10589 ,3.07069 ,30.12958 
121 ,26.3790 ,1.10795 ,3.05358 ,29.96169 
122 ,26.5872 ,1.11009 ,3.03989 ,29.82737 
123 ,26.8111 ,1.11226 ,3.01251 ,29.55875 
124 ,27.0194 ,1.11437 ,2.99882 ,29.42444 
125 ,27.2274 ,1.11653 ,2.99198 ,29.35728 
126 ,27.4512 ,1.11876 ,2.93722 ,28.82003 
127 ,27.6596 ,1.12076 ,2.94064 ,28.85360 
128 ,27.8676 ,1.12293 ,2.91669 ,28.61856 
129 ,28.0916 ,1.12517 ,2.89616 ,28.41709 
130 ,28.3156 ,1.12735 ,2.87220 ,28.18204 
131 ,28.5075 ,1.12946 ,2.87220 ,28.18204 
132 ,28.7159 ,1.13137 ,2.84140 ,27.87983 
133 ,28.9241 ,1.13350 ,2.84140 ,27.87983 
134 ,29.1319 ,1.13552 ,2.81060 ,27.57763 
135 ,29.3401 ,1.13761 ,2.80376 ,27.51047 
136 ,29.5482 ,1.13975 ,2.77638 ,27.24185 
137 ,29.7882 ,1.14198 ,2.75927 ,27.07395 
138 ,30.0125 ,1.14433 ,2.73531 ,26.83891 
139 ,30.2203 ,1.14643 ,2.74216 ,26.90606 
140 ,30.4447 ,1.14866 ,2.70794 ,26.57028 
141 ,30.6528 ,1.15074 ,2.68056 ,26.30165 
142 ,30.8608 ,1.15288 ,2.67714 ,26.26807 
143 ,31.0851 ,1.15501 ,2.66003 ,26.10018 
144 ,31.3090 ,1.15733 ,2.62238 ,25.73082 
145 ,31.5172 ,1.15934 ,2.62238 ,25.73082 
146 ,31.7249 ,1.16147 ,2.61212 ,25.63009 
147 ,31.9332 ,1.16360 ,2.58132 ,25.32788 
148 ,32.1576 ,1.16577 ,2.58132 ,25.32788 
149 ,32.3657 ,1.16791 ,2.55052 ,25.02568 
150 ,32.5737 ,1.16995 ,2.51972 ,24.72347 
151 ,32.7978 ,1.17221 ,2.52998 ,24.82421 
152 ,33.0218 ,1.17443 ,2.51287 ,24.65632 
153 ,33.2298 ,1.17648 ,2.46839 ,24.21980 
154 ,33.4377 ,1.17858 ,2.46496 ,24.18622 
155 ,33.6619 ,1.18084 ,2.44785 ,24.01833 
156 ,33.8700 ,1.18291 ,2.42048 ,23.74970 
157 ,34.0777 ,1.18499 ,2.41705 ,23.71612 
158 ,34.2862 ,1.18703 ,2.38968 ,23.44750 
159 ,34.5104 ,1.18928 ,2.36230 ,23.17887 
160 ,34.7342 ,1.19148 ,2.34861 ,23.04456 
161 ,34.9426 ,1.19361 ,2.34177 ,22.97740 
162 ,35.1662 ,1.19582 ,2.33150 ,22.87667 
163 ,35.3748 ,1.19794 ,2.29043 ,22.47373 
164 ,35.5826 ,1.19999 ,2.30070 ,22.57446 
165 ,35.8069 ,1.20224 ,2.26990 ,22.27226 
166 ,36.0310 ,1.20448 ,2.22883 ,21.86932 
167 ,36.2386 ,1.20668 ,2.22883 ,21.86932 
168 ,36.4633 ,1.20881 ,2.22883 ,21.86932 
169 ,36.6873 ,1.21107 ,2.18777 ,21.46638 
170 ,36.8953 ,1.21312 ,2.18092 ,21.39922 
171 ,37.1513 ,1.21578 ,2.14670 ,21.06344 
172 ,37.3591 ,1.21786 ,2.14328 ,21.02986 
173 ,37.5676 ,1.21987 ,2.12275 ,20.82839 
174 ,37.7915 ,1.22209 ,2.09537 ,20.55976 
175 ,38.0159 ,1.22433 ,2.08168 ,20.42545 
176 ,38.2239 ,1.22648 ,2.08510 ,20.45903 
177 ,38.4156 ,1.22849 ,2.04746 ,20.08967 
178 ,38.6561 ,1.23067 ,2.05088 ,20.12325 
179 ,38.8800 ,1.23299 ,2.03377 ,19.95535 
180 ,39.1043 ,1.23521 ,2.00639 ,19.68673 
181 ,39.3123 ,1.23729 ,1.97902 ,19.41810 
182 ,39.5200 ,1.23940 ,1.98586 ,19.48526 
183 ,39.7445 ,1.24160 ,1.95848 ,19.21663 
184 ,39.9687 ,1.24375 ,1.92426 ,18.88085 
185 ,40.1767 ,1.24598 ,1.92084 ,18.84727 
186 ,40.4168 ,1.24824 ,1.91399 ,18.78011 
187 ,40.6408 ,1.25058 ,1.89004 ,18.54507 
188 ,40.8808 ,1.25299 ,1.86608 ,18.31002 
189 ,41.1053 ,1.25517 ,1.84897 ,18.14213 
190 ,41.3133 ,1.25733 ,1.81817 ,17.83992 
191 ,41.5373 ,1.25953 ,1.81817 ,17.83992 
192 ,41.7452 ,1.26162 ,1.80106 ,17.67203 
193 ,41.9694 ,1.26382 ,1.77026 ,17.36983 
194 ,42.1936 ,1.26615 ,1.74631 ,17.13478 
195 ,42.3856 ,1.26816 ,1.75315 ,17.20193 
196 ,42.5938 ,1.27007 ,1.71893 ,16.86615 
197 ,42.8178 ,1.27233 ,1.70524 ,16.73184 
198 ,43.0257 ,1.27446 ,1.70182 ,16.69826 
199 ,43.2341 ,1.27651 ,1.68471 ,16.53037 
200 ,43.4583 ,1.27874 ,1.66760 ,16.36248 
201 ,43.6501 ,1.28077 ,1.65391 ,16.22816 
202 ,43.8584 ,1.28278 ,1.63680 ,16.06027 
203 ,44.0821 ,1.28495 ,1.62995 ,15.99311 
204 ,44.2900 ,1.28704 ,1.58889 ,15.59018 
205 ,44.4986 ,1.28912 ,1.57862 ,15.48944 
206 ,44.7226 ,1.29138 ,1.58204 ,15.52302 
207 ,44.9463 ,1.29354 ,1.55124 ,15.22081 
208 ,45.1543 ,1.29574 ,1.53413 ,15.05292 
209 ,45.3628 ,1.29778 ,1.52045 ,14.91861 
210 ,45.5870 ,1.30008 ,1.49649 ,14.68356 
211 ,45.8108 ,1.30224 ,1.46569 ,14.38136 
212 ,46.0188 ,1.30437 ,1.47596 ,14.48209 
213 ,46.2268 ,1.30638 ,1.45885 ,14.31420 
214 ,46.4354 ,1.30855 ,1.43489 ,14.07915 
215 ,46.6596 ,1.31075 ,1.43147 ,14.04557 
216 ,46.8836 ,1.31304 ,1.42120 ,13.94484 
217 ,47.1075 ,1.31523 ,1.37671 ,13.50832 
218 ,47.3311 ,1.31747 ,1.35960 ,13.34043 
219 ,47.5396 ,1.31957 ,1.36645 ,13.40759 
220 ,47.7476 ,1.32165 ,1.33223 ,13.07180 
221 ,48.0041 ,1.32419 ,1.33907 ,13.13896 
222 ,48.2281 ,1.32642 ,1.29800 ,12.73602 
223 ,48.4357 ,1.32852 ,1.28432 ,12.60171 
224 ,48.6283 ,1.33059 ,1.28774 ,12.63528 
225 ,48.8524 ,1.33261 ,1.25009 ,12.26592 
226 ,49.0605 ,1.33476 ,1.25352 ,12.29950 
227 ,49.2686 ,1.33687 ,1.22272 ,11.99730 
228 ,49.4924 ,1.33901 ,1.21929 ,11.96372 
229 ,49.7324 ,1.34145 ,1.18850 ,11.66151 
230 ,49.9407 ,1.34362 ,1.19192 ,11.69509 
231 ,50.1649 ,1.34576 ,1.18165 ,11.59436 
232 ,50.3729 ,1.34785 ,1.13716 ,11.15784 
233 ,50.5808 ,1.34994 ,1.13374 ,11.12426 
234 ,50.8048 ,1.35215 ,1.11663 ,10.95637 
235 ,51.0290 ,1.35439 ,1.09952 ,10.78848 
236 ,51.2532 ,1.35668 ,1.07214 ,10.51985 
237 ,51.4615 ,1.35875 ,1.07899 ,10.58701 
238 ,51.6856 ,1.36093 ,1.07556 ,10.55343 
239 ,51.9415 ,1.36346 ,1.05161 ,10.31838 
240 ,52.1659 ,1.36582 ,1.03450 ,10.15049 
241 ,52.3737 ,1.36789 ,1.00028 ,9.81471 
242 ,52.5979 ,1.37012 ,0.99001 ,9.71397 
243 ,52.8217 ,1.37232 ,0.98317 ,9.64682 
244 ,53.0460 ,1.37461 ,0.96263 ,9.44535 
245 ,53.2700 ,1.37682 ,0.93183 ,9.14314 
246 ,53.4782 ,1.37891 ,0.92499 ,9.07598 
247 ,53.7023 ,1.38121 ,0.92499 ,9.07598 
248 ,53.9102 ,1.38332 ,0.90446 ,8.87451 
249 ,54.1342 ,1.38549 ,0.88050 ,8.63947 
250 ,54.3587 ,1.38770 ,0.86339 ,8.47158 
251 ,54.5667 ,1.38982 ,0.87023 ,8.53873 
252 ,54.7906 ,1.39201 ,0.84628 ,8.30368 
253 ,54.9988 ,1.39412 ,0.81548 ,8.00148 
254 ,55.2229 ,1.39643 ,0.82232 ,8.06864 
255 ,55.4311 ,1.39842 ,0.78126 ,7.66570 
256 ,55.6390 ,1.40052 ,0.85312 ,8.37084 
257 ,55.8630 ,1.40272 ,1.13032 ,11.09068 
258 ,56.0713 ,1.40482 ,1.11321 ,10.92279 
259 ,56.2953 ,1.40708 ,1.10636 ,10.85563 
260 ,56.5033 ,1.40914 ,1.11321 ,10.92279 
261 ,56.7276 ,1.41140 ,1.10636 ,10.85563 
262 ,56.9516 ,1.41363 ,1.08925 ,10.68774 
263 ,57.1756 ,1.41591 ,1.08583 ,10.65416 
264 ,57.3998 ,1.41811 ,1.08925 ,10.68774 
265 ,57.6075 ,1.42018 ,1.07556 ,10.55343 
266 ,57.8160 ,1.42225 ,1.05503 ,10.35196 
267 ,58.0401 ,1.42454 ,1.04819 ,10.28480 
268 ,58.2483 ,1.42661 ,1.05503 ,10.35196 
269 ,58.4718 ,1.42884 ,1.03108 ,10.11691 
270 ,58.6804 ,1.43091 ,1.03792 ,10.18407 
271 ,58.9043 ,1.43308 ,1.01739 ,9.98260 
272 ,59.1285 ,1.43542 ,1.00370 ,9.84829 
273 ,59.3687 ,1.43763 ,0.99343 ,9.74755 
274 ,59.5926 ,1.44004 ,0.98317 ,9.64682 
275 ,59.8008 ,1.44212 ,0.98317 ,9.64682 
276 ,60.0089 ,1.44418 ,0.97632 ,9.57966 
277 ,60.2331 ,1.44638 ,0.95921 ,9.41177 
278 ,60.4573 ,1.44871 ,0.94894 ,9.31103 
279 ,60.6809 ,1.45092 ,0.94210 ,9.24388 
280 ,60.8894 ,1.45299 ,0.93183 ,9.14314 
281 ,61.1135 ,1.45528 ,0.92499 ,9.07598 
282 ,61.3536 ,1.45759 ,0.91472 ,8.97525 
283 ,61.5776 ,1.45990 ,0.92157 ,9.04241 
284 ,61.8176 ,1.46218 ,0.92499 ,9.07598 
285 ,62.0257 ,1.46433 ,0.91130 ,8.94167 
286 ,62.2336 ,1.46648 ,0.88734 ,8.70662 
287 ,62.4579 ,1.46869 ,0.88392 ,8.67305 
288 ,62.6658 ,1.47073 ,0.88734 ,8.70662 
289 ,62.8578 ,1.47279 ,0.86681 ,8.50515 
290 ,63.0663 ,1.47471 ,0.87366 ,8.57231 
291 ,63.2743 ,1.47684 ,0.85312 ,8.37084 
292 ,63.5144 ,1.47911 ,0.85997 ,8.43800 
293 ,63.7384 ,1.48147 ,0.85312 ,8.37084 
294 ,63.9300 ,1.48353 ,0.84286 ,8.27011 
295 ,64.1385 ,1.48548 ,0.83601 ,8.20295 
296 ,64.3627 ,1.48770 ,0.83601 ,8.20295 
297 ,64.5708 ,1.48980 ,0.83259 ,8.16937 
298 ,64.7949 ,1.49204 ,0.81206 ,7.96790 
299 ,65.0025 ,1.49411 ,0.81890 ,8.03506 
300 ,65.2271 ,1.49628 ,0.79495 ,7.80001 
301 ,65.4673 ,1.49866 ,0.79495 ,7.80001 
302 ,65.6909 ,1.50099 ,0.79152 ,7.76643 
303 ,65.8994 ,1.50309 ,0.79837 ,7.83359 
304 ,66.1072 ,1.50525 ,0.79152 ,7.76643 
305 ,66.3313 ,1.50736 ,0.77099 ,7.56496 
306 ,66.5558 ,1.50966 ,0.77099 ,7.56496 
307 ,66.7642 ,1.51170 ,0.78126 ,7.66570 
308 ,66.9877 ,1.51398 ,0.76072 ,7.46423 
309 ,67.1797 ,1.51599 ,0.76415 ,7.49780 
310 ,67.4038 ,1.51807 ,0.76757 ,7.53138 
311 ,67.6278 ,1.52038 ,0.74704 ,7.32991 
312 ,67.8362 ,1.52248 ,0.74704 ,7.32991 
313 ,68.0599 ,1.52472 ,0.75388 ,7.39707 
314 ,68.2684 ,1.52673 ,0.74361 ,7.29633 
315 ,68.5085 ,1.52901 ,0.73335 ,7.19560 
316 ,68.7325 ,1.53141 ,0.72650 ,7.12844 
317 ,68.9401 ,1.53355 ,0.73677 ,7.22918 
318 ,69.1486 ,1.53554 ,0.71624 ,7.02771 
319 ,69.3405 ,1.53763 ,0.71624 ,7.02771 
320 ,69.5487 ,1.53951 ,0.71281 ,6.99413 
321 ,69.7730 ,1.54179 ,0.70597 ,6.92697 
322 ,69.9809 ,1.54389 ,0.72650 ,7.12844 
323 ,70.1892 ,1.54599 ,0.71624 ,7.02771 
324 ,70.3971 ,1.54808 ,0.70939 ,6.96055 
325 ,70.6532 ,1.55064 ,0.69228 ,6.79266 
326 ,70.8615 ,1.55269 ,0.71281 ,6.99413 
327 ,71.0852 ,1.55494 ,0.70597 ,6.92697 
328 ,71.3096 ,1.55714 ,0.68544 ,6.72550 
329 ,71.5336 ,1.55944 ,0.67517 ,6.62477 
330 ,71.7577 ,1.56164 ,0.69228 ,6.79266 
331 ,71.9658 ,1.56374 ,0.69228 ,6.79266 
332 ,72.1738 ,1.56575 ,0.66833 ,6.55761 
333 ,72.4141 ,1.56813 ,0.67859 ,6.65835 
334 ,72.6380 ,1.57043 ,0.67517 ,6.62477 
335 ,72.8463 ,1.57250 ,0.68201 ,6.69193 
336 ,73.0702 ,1.57474 ,0.65806 ,6.45688 
337 ,73.2787 ,1.57686 ,0.67517 ,6.62477 
338 ,73.5025 ,1.57910 ,0.68201 ,6.69193 
339 ,73.7261 ,1.58133 ,0.64779 ,6.35614 
340 ,73.9341 ,1.58342 ,0.64779 ,6.35614 
341 ,74.1424 ,1.58556 ,0.65464 ,6.42330 
342 ,74.3507 ,1.58760 ,0.65121 ,6.38972 
343 ,74.5746 ,1.58986 ,0.64779 ,6.35614 
344 ,74.7830 ,1.59191 ,0.65806 ,6.45688 
345 ,75.0067 ,1.59411 ,0.64095 ,6.28899 
346 ,75.2150 ,1.59618 ,0.63753 ,6.25541 
347 ,75.4232 ,1.59833 ,0.65121 ,6.38972 
348 ,75.6313 ,1.60037 ,0.62042 ,6.08752 
349 ,75.8714 ,1.60268 ,0.62042 ,6.08752 
350 ,76.0791 ,1.60483 ,0.64095 ,6.28899 
351 ,76.2877 ,1.60694 ,0.63068 ,6.18825 
352 ,76.5116 ,1.60917 ,0.61699 ,6.05394 
353 ,76.7198 ,1.61124 ,0.63410 ,6.22183 
354 ,76.9278 ,1.61334 ,0.62384 ,6.12109 
355 ,77.1354 ,1.61537 ,0.62042 ,6.08752 
356 ,77.3755 ,1.61780 ,0.61357 ,6.02036 
357 ,77.6000 ,1.62004 ,0.62384 ,6.12109 
358 ,77.8564 ,1.62262 ,0.61699 ,6.05394 
359 ,78.0803 ,1.62484 ,0.61699 ,6.05394 
360 ,78.3042 ,1.62708 ,0.61015 ,5.98678 
361 ,78.5124 ,1.62910 ,0.60330 ,5.91962 
362 ,78.7203 ,1.63121 ,0.61357 ,6.02036 
363 ,78.9446 ,1.63351 ,0.61015 ,5.98678 
364 ,79.1687 ,1.63560 ,0.61015 ,5.98678 
365 ,79.3764 ,1.63787 ,0.62042 ,6.08752 
366 ,79.5847 ,1.63985 ,0.63410 ,6.22183 
367 ,79.7930 ,1.64197 ,0.62384 ,6.12109 
368 ,80.0172 ,1.64418 ,0.63068 ,6.18825 
369 ,80.2252 ,1.64629 ,0.63410 ,6.22183 
370 ,80.4328 ,1.64842 ,0.61357 ,6.02036 
371 ,80.6255 ,1.65042 ,0.64095 ,6.28899 
372 ,80.8657 ,1.65253 ,0.62384 ,6.12109 
373 ,81.0893 ,1.65492 ,0.62042 ,6.08752 
374 ,81.3296 ,1.65737 ,0.62042 ,6.08752 
375 ,81.5534 ,1.65956 ,0.62384 ,6.12109 
376 ,81.7624 ,1.66170 ,0.65121 ,6.38972 
377 ,81.9855 ,1.66390 ,0.62384 ,6.12109 
378 ,82.1939 ,1.66599 ,0.63753 ,6.25541 
379 ,82.4182 ,1.66820 ,0.63753 ,6.25541 
380 ,82.6259 ,1.67030 ,0.62726 ,6.15467 
381 ,82.8504 ,1.67252 ,0.62042 ,6.08752 
382 ,83.0744 ,1.67479 ,0.63068 ,6.18825 
383 ,83.2986 ,1.67702 ,0.64095 ,6.28899 
384 ,83.4903 ,1.67906 ,0.63753 ,6.25541 
385 ,83.6986 ,1.68113 ,0.61699 ,6.05394 
386 ,83.9226 ,1.68323 ,0.63068 ,6.18825 
387 ,84.1307 ,1.68533 ,0.62042 ,6.08752 
388 ,84.3386 ,1.68741 ,0.64095 ,6.28899 
389 ,84.5467 ,1.68945 ,0.62042 ,6.08752 
390 ,84.7552 ,1.69160 ,0.62384 ,6.12109 
391 ,84.9790 ,1.69381 ,0.69228 ,6.79266 
392 ,85.2033 ,1.69601 ,0.68886 ,6.75908 
393 ,85.4115 ,1.69826 ,0.69570 ,6.82624 
394 ,85.6355 ,1.70038 ,0.69570 ,6.82624 
395 ,85.8274 ,1.70243 ,0.69913 ,6.85982 
396 ,86.0512 ,1.70452 ,0.68886 ,6.75908 
397 ,86.2601 ,1.70659 ,0.70939 ,6.96055 
398 ,86.4838 ,1.70874 ,0.69228 ,6.79266 
399 ,86.7079 ,1.71107 ,0.68886 ,6.75908 
400 ,86.9317 ,1.71331 ,0.69570 ,6.82624 
401 ,87.1560 ,1.71556 ,0.69913 ,6.85982 
402 ,87.3481 ,1.71760 ,0.70597 ,6.92697 
403 ,87.5564 ,1.71957 ,0.69570 ,6.82624 
404 ,87.7800 ,1.72181 ,0.70597 ,6.92697 
405 ,87.9884 ,1.72392 ,0.69228 ,6.79266 
406 ,88.2120 ,1.72611 ,0.69570 ,6.82624 
407 ,88.4365 ,1.72825 ,0.70255 ,6.89340 
408 ,88.6605 ,1.73060 ,0.71281 ,6.99413 
409 ,88.8684 ,1.73267 ,0.69228 ,6.79266 
410 ,89.0768 ,1.73478 ,0.69913 ,6.85982 
411 ,89.2688 ,1.73682 ,0.70597 ,6.92697 
412 ,89.4930 ,1.73892 ,0.68886 ,6.75908 
413 ,89.7009 ,1.74114 ,0.70255 ,6.89340 
414 ,89.9091 ,1.74309 ,0.68886 ,6.75908 
415 ,90.1172 ,1.74515 ,0.70255 ,6.89340 
416 ,90.3413 ,1.74730 ,0.69228 ,6.79266 
417 ,90.5656 ,1.74965 ,0.68544 ,6.72550 
418 ,90.7893 ,1.75187 ,0.70255 ,6.89340 
419 ,90.9976 ,1.75401 ,0.71624 ,7.02771 
420 ,91.2058 ,1.75606 ,0.69570 ,6.82624 
421 ,91.4138 ,1.75807 ,0.70255 ,6.89340 
422 ,91.6378 ,1.76028 ,0.70597 ,6.92697 
423 ,91.8940 ,1.76293 ,0.68886 ,6.75908 
424 ,92.1339 ,1.76523 ,0.70939 ,6.96055 
425 ,92.3418 ,1.76739 ,0.70597 ,6.92697 
426 ,92.5504 ,1.76947 ,0.68544 ,6.72550 
427 ,92.8063 ,1.77191 ,0.68886 ,6.75908 
428 ,93.0144 ,1.77414 ,0.70939 ,6.96055 
429 ,93.2384 ,1.77635 ,0.70939 ,6.96055 
430 ,93.4466 ,1.77847 ,0.68544 ,6.72550 
431 ,93.6705 ,1.78068 ,0.68544 ,6.72550 
432 ,93.8948 ,1.78296 ,0.71281 ,6.99413 
433 ,94.1189 ,1.78514 ,0.70939 ,6.96055 
434 ,94.3268 ,1.78727 ,0.69228 ,6.79266 
435 ,94.5507 ,1.78947 ,0.68886 ,6.75908 
436 ,94.7431 ,1.79153 ,0.70939 ,6.96055 
437 ,94.9511 ,1.79345 ,0.69913 ,6.85982 
438 ,95.1754 ,1.79564 ,0.69913 ,6.85982 
439 ,95.3833 ,1.79781 ,0.70597 ,6.92697 
440 ,95.6075 ,1.79999 ,0.69570 ,6.82624 
441 ,95.8154 ,1.80215 ,0.69913 ,6.85982 
442 ,96.0395 ,1.80434 ,0.70255 ,6.89340 
443 ,96.2477 ,1.80641 ,0.68886 ,6.75908 
444 ,96.4557 ,1.80851 ,0.69570 ,6.82624 
445 ,96.6641 ,1.81063 ,0.70597 ,6.92697 
446 ,96.8720 ,1.81267 ,0.68886 ,6.75908 
447 ,97.0955 ,1.81492 ,0.70939 ,6.96055 
448 ,97.3042 ,1.81697 ,0.68544 ,6.72550 
449 ,97.5118 ,1.81907 ,0.70597 ,6.92697 
450 ,97.7202 ,1.82114 ,0.70939 ,6.96055 
451 ,97.9282 ,1.82327 ,0.68544 ,6.72550 
452 ,98.1361 ,1.82541 ,0.69913 ,6.85982 
453 ,98.3765 ,1.82759 ,0.70939 ,6.96055 
454 ,98.6006 ,1.82993 ,0.70939 ,6.96055 
455 ,98.8248 ,1.83216 ,0.69228 ,6.79266 
456 ,99.0328 ,1.83426 ,0.69570 ,6.82624 
457 ,99.2408 ,1.83636 ,0.70255 ,6.89340 
458 ,99.4652 ,1.83862 ,0.68544 ,6.72550 
459 ,99.6894 ,1.84088 ,0.69570 ,6.82624 
460 ,99.8812 ,1.84289 ,0.71281 ,6.99413 
461 ,100.0895 ,1.84487 ,0.70255 ,6.89340 
462 ,100.3132 ,1.84707 ,0.69913 ,6.85982 
463 ,100.5373 ,1.84932 ,0.70939 ,6.96055 
464 ,100.7617 ,1.85156 ,0.70597 ,6.92697 
465 ,100.9697 ,1.85363 ,0.70597 ,6.92697 
466 ,101.1935 ,1.85591 ,0.70255 ,6.89340 
467 ,101.4178 ,1.85809 ,0.71281 ,6.99413 
468 ,101.6258 ,1.86015 ,0.69570 ,6.82624 
