Data stamp = , 03-06-2022 06:42:33 019

Calibration Values: 
Slope = , 26.54 , g/V 
Offset Voltage at no contact = , -0.501760 , V 

No , Time , Stage Position ,   Mass , Force 
   ,  (s) ,      (mm)      ,   (g)  , (mN)  

1 ,0.0000 ,0.84961 ,5.27456 ,51.75401 
2 ,0.2175 ,0.84971 ,5.30194 ,52.02263 
3 ,0.6176 ,0.85088 ,5.28825 ,51.88832 
4 ,0.8261 ,0.85273 ,5.29852 ,51.98905 
5 ,1.0660 ,0.85484 ,5.28141 ,51.82116 
6 ,1.2903 ,0.85720 ,5.28825 ,51.88832 
7 ,1.5141 ,0.85940 ,5.28483 ,51.85474 
8 ,1.7218 ,0.86146 ,5.27114 ,51.72043 
9 ,1.9305 ,0.86363 ,5.23692 ,51.38464 
10 ,2.1545 ,0.86589 ,5.22665 ,51.28391 
11 ,2.3626 ,0.86793 ,5.20954 ,51.11602 
12 ,2.5707 ,0.87016 ,5.18559 ,50.88097 
13 ,2.7785 ,0.87211 ,5.17190 ,50.74666 
14 ,2.9870 ,0.87418 ,5.14452 ,50.47803 
15 ,3.2111 ,0.87641 ,5.11372 ,50.17583 
16 ,3.4192 ,0.87848 ,5.10003 ,50.04151 
17 ,3.6273 ,0.88061 ,5.08292 ,49.87362 
18 ,3.8508 ,0.88281 ,5.04528 ,49.50426 
19 ,4.0594 ,0.88490 ,5.05212 ,49.57142 
20 ,4.2835 ,0.88711 ,5.02817 ,49.33637 
21 ,4.5075 ,0.88936 ,4.99737 ,49.03416 
22 ,4.7157 ,0.89146 ,4.95972 ,48.66480 
23 ,4.9233 ,0.89355 ,4.95288 ,48.59764 
24 ,5.1320 ,0.89565 ,4.92208 ,48.29544 
25 ,5.3560 ,0.89787 ,4.90839 ,48.16113 
26 ,5.5801 ,0.90010 ,4.89812 ,48.06039 
27 ,5.7882 ,0.90220 ,4.85706 ,47.65745 
28 ,6.0117 ,0.90443 ,4.82968 ,47.38883 
29 ,6.2364 ,0.90657 ,4.81941 ,47.28809 
30 ,6.4603 ,0.90890 ,4.79546 ,47.05304 
31 ,6.6844 ,0.91115 ,4.78861 ,46.98589 
32 ,6.8923 ,0.91320 ,4.76466 ,46.75084 
33 ,7.1162 ,0.91543 ,4.74070 ,46.51579 
34 ,7.3248 ,0.91752 ,4.72702 ,46.38148 
35 ,7.5485 ,0.91975 ,4.70306 ,46.14643 
36 ,7.7568 ,0.92185 ,4.67911 ,45.91138 
37 ,7.9650 ,0.92392 ,4.66199 ,45.74349 
38 ,8.1888 ,0.92619 ,4.62777 ,45.40771 
39 ,8.5253 ,0.92893 ,4.60724 ,45.20624 
40 ,8.7493 ,0.93180 ,4.57644 ,44.90403 
41 ,8.9734 ,0.93403 ,4.55591 ,44.70256 
42 ,9.1972 ,0.93628 ,4.53880 ,44.53467 
43 ,9.4056 ,0.93837 ,4.51142 ,44.26604 
44 ,9.6137 ,0.94043 ,4.49089 ,44.06457 
45 ,9.8378 ,0.94267 ,4.48746 ,44.03100 
46 ,10.0298 ,0.94471 ,4.47035 ,43.86310 
47 ,10.2379 ,0.94671 ,4.46009 ,43.76237 
48 ,10.4455 ,0.94875 ,4.42586 ,43.42659 
49 ,10.6541 ,0.95089 ,4.40191 ,43.19154 
50 ,10.8621 ,0.95289 ,4.39164 ,43.09080 
51 ,11.0863 ,0.95515 ,4.35400 ,42.72144 
52 ,11.3104 ,0.95740 ,4.34031 ,42.58713 
53 ,11.5179 ,0.95945 ,4.33689 ,42.55355 
54 ,11.7266 ,0.96156 ,4.30951 ,42.28492 
55 ,11.9508 ,0.96379 ,4.27187 ,41.91556 
56 ,12.1745 ,0.96604 ,4.26502 ,41.84841 
57 ,12.3989 ,0.96824 ,4.26160 ,41.81483 
58 ,12.6066 ,0.97031 ,4.21711 ,41.37831 
59 ,12.8470 ,0.97260 ,4.20685 ,41.27758 
60 ,13.0708 ,0.97497 ,4.17262 ,40.94179 
61 ,13.2792 ,0.97704 ,4.16920 ,40.90821 
62 ,13.4873 ,0.97913 ,4.14525 ,40.67317 
63 ,13.7111 ,0.98139 ,4.11103 ,40.33738 
64 ,13.9356 ,0.98372 ,4.10076 ,40.23665 
65 ,14.1595 ,0.98588 ,4.08023 ,40.03518 
66 ,14.3673 ,0.98793 ,4.06654 ,39.90087 
67 ,14.5914 ,0.99021 ,4.03232 ,39.56508 
68 ,14.8313 ,0.99262 ,4.02205 ,39.46435 
69 ,15.0877 ,0.99506 ,3.99467 ,39.19572 
70 ,15.3278 ,0.99751 ,3.98098 ,39.06141 
71 ,15.5360 ,0.99962 ,3.96387 ,38.89352 
72 ,15.7762 ,1.00207 ,3.92623 ,38.52415 
73 ,15.9999 ,1.00423 ,3.92281 ,38.49058 
74 ,16.2082 ,1.00631 ,3.89201 ,38.18837 
75 ,16.4165 ,1.00840 ,3.88174 ,38.08764 
76 ,16.6245 ,1.01057 ,3.87490 ,38.02048 
77 ,16.8487 ,1.01277 ,3.84067 ,37.68470 
78 ,17.0724 ,1.01501 ,3.80645 ,37.34891 
79 ,17.2967 ,1.01718 ,3.79276 ,37.21460 
80 ,17.5207 ,1.01944 ,3.79619 ,37.24818 
81 ,17.7450 ,1.02176 ,3.76196 ,36.91240 
82 ,17.9529 ,1.02379 ,3.73117 ,36.61019 
83 ,18.1768 ,1.02605 ,3.72432 ,36.54303 
84 ,18.4010 ,1.02828 ,3.72090 ,36.50946 
85 ,18.6094 ,1.03038 ,3.67299 ,36.03936 
86 ,18.8173 ,1.03243 ,3.66272 ,35.93863 
87 ,19.0416 ,1.03470 ,3.65588 ,35.87147 
88 ,19.2656 ,1.03680 ,3.61481 ,35.46853 
89 ,19.5058 ,1.03937 ,3.58743 ,35.19990 
90 ,19.7617 ,1.04170 ,3.57717 ,35.09917 
91 ,19.9857 ,1.04405 ,3.56348 ,34.96485 
92 ,20.2100 ,1.04635 ,3.53952 ,34.72981 
93 ,20.4338 ,1.04858 ,3.52241 ,34.56192 
94 ,20.6583 ,1.05082 ,3.51557 ,34.49476 
95 ,20.8824 ,1.05304 ,3.49161 ,34.25971 
96 ,21.0905 ,1.05514 ,3.45397 ,33.89035 
97 ,21.2987 ,1.05730 ,3.45055 ,33.85677 
98 ,21.5225 ,1.05941 ,3.44028 ,33.75604 
99 ,21.7306 ,1.06157 ,3.39579 ,33.31952 
100 ,21.9385 ,1.06362 ,3.39579 ,33.31952 
101 ,22.1468 ,1.06572 ,3.36499 ,33.01731 
102 ,22.3549 ,1.06778 ,3.33762 ,32.74869 
103 ,22.5789 ,1.07004 ,3.34446 ,32.81584 
104 ,22.7871 ,1.07208 ,3.31708 ,32.54722 
105 ,22.9953 ,1.07416 ,3.28628 ,32.24501 
106 ,23.2035 ,1.07620 ,3.29313 ,32.31217 
107 ,23.4113 ,1.07833 ,3.25206 ,31.90923 
108 ,23.6355 ,1.08057 ,3.24522 ,31.84207 
109 ,23.8592 ,1.08280 ,3.22468 ,31.64060 
110 ,24.0671 ,1.08486 ,3.20757 ,31.47271 
111 ,24.2754 ,1.08707 ,3.18020 ,31.20409 
112 ,24.4838 ,1.08907 ,3.17335 ,31.13693 
113 ,24.7079 ,1.09129 ,3.14255 ,30.83472 
114 ,24.9155 ,1.09336 ,3.13229 ,30.73399 
115 ,25.1241 ,1.09546 ,3.12544 ,30.66683 
116 ,25.3321 ,1.09754 ,3.09122 ,30.33105 
117 ,25.5403 ,1.09959 ,3.09122 ,30.33105 
118 ,25.7643 ,1.10185 ,3.07069 ,30.12958 
119 ,25.9722 ,1.10392 ,3.03304 ,29.76022 
120 ,26.1967 ,1.10621 ,3.02962 ,29.72664 
121 ,26.4207 ,1.10840 ,3.01251 ,29.55875 
122 ,26.6287 ,1.11053 ,2.97487 ,29.18939 
123 ,26.8525 ,1.11276 ,2.95776 ,29.02150 
124 ,27.0605 ,1.11483 ,2.95776 ,29.02150 
125 ,27.2685 ,1.11697 ,2.93722 ,28.82003 
126 ,27.4768 ,1.11891 ,2.90985 ,28.55140 
127 ,27.6851 ,1.12111 ,2.89958 ,28.45066 
128 ,27.8933 ,1.12322 ,2.87220 ,28.18204 
129 ,28.1014 ,1.12522 ,2.87220 ,28.18204 
130 ,28.3252 ,1.12749 ,2.84482 ,27.91341 
131 ,28.5336 ,1.12956 ,2.81745 ,27.64479 
132 ,28.7577 ,1.13178 ,2.80718 ,27.54405 
133 ,28.9813 ,1.13404 ,2.80034 ,27.47689 
134 ,29.1898 ,1.13611 ,2.74216 ,26.90606 
135 ,29.4138 ,1.13834 ,2.73189 ,26.80533 
136 ,29.6216 ,1.14038 ,2.73189 ,26.80533 
137 ,29.8301 ,1.14245 ,2.70794 ,26.57028 
138 ,30.0541 ,1.14469 ,2.69083 ,26.40239 
139 ,30.2622 ,1.14683 ,2.69083 ,26.40239 
140 ,30.4864 ,1.14905 ,2.66687 ,26.16734 
141 ,30.7102 ,1.15128 ,2.63265 ,25.83156 
142 ,30.9185 ,1.15344 ,2.61554 ,25.66367 
143 ,31.1426 ,1.15561 ,2.61212 ,25.63009 
144 ,31.3667 ,1.15780 ,2.58816 ,25.39504 
145 ,31.5906 ,1.16010 ,2.54710 ,24.99210 
146 ,31.8308 ,1.16236 ,2.55052 ,25.02568 
147 ,32.0548 ,1.16473 ,2.51972 ,24.72347 
148 ,32.2629 ,1.16682 ,2.51972 ,24.72347 
149 ,32.4713 ,1.16896 ,2.48207 ,24.35411 
150 ,32.6793 ,1.17103 ,2.48207 ,24.35411 
151 ,32.9035 ,1.17319 ,2.47181 ,24.25338 
152 ,33.1112 ,1.17531 ,2.43416 ,23.88402 
153 ,33.3356 ,1.17753 ,2.40679 ,23.61539 
154 ,33.5276 ,1.17959 ,2.42048 ,23.74970 
155 ,33.7192 ,1.18152 ,2.37599 ,23.31318 
156 ,33.9278 ,1.18345 ,2.37941 ,23.34676 
157 ,34.1197 ,1.18550 ,2.36230 ,23.17887 
158 ,34.3279 ,1.18754 ,2.33834 ,22.94382 
159 ,34.5360 ,1.18953 ,2.32465 ,22.80951 
160 ,34.7440 ,1.19167 ,2.31097 ,22.67520 
161 ,34.9842 ,1.19403 ,2.29385 ,22.50731 
162 ,35.2084 ,1.19623 ,2.26990 ,22.27226 
163 ,35.4004 ,1.19833 ,2.23910 ,21.97005 
164 ,35.6245 ,1.20037 ,2.24937 ,22.07079 
165 ,35.8322 ,1.20253 ,2.21172 ,21.70143 
166 ,36.0565 ,1.20482 ,2.19803 ,21.56711 
167 ,36.2804 ,1.20699 ,2.18777 ,21.46638 
168 ,36.4727 ,1.20904 ,2.16723 ,21.26491 
169 ,36.6808 ,1.21100 ,2.16039 ,21.19775 
170 ,36.8890 ,1.21308 ,2.13301 ,20.92912 
171 ,37.1127 ,1.21528 ,2.10564 ,20.66050 
172 ,37.3208 ,1.21732 ,2.10221 ,20.62692 
173 ,37.5291 ,1.21949 ,2.08510 ,20.45903 
174 ,37.7530 ,1.22171 ,2.05773 ,20.19040 
175 ,37.9771 ,1.22391 ,2.04061 ,20.02251 
176 ,38.1690 ,1.22599 ,2.05088 ,20.12325 
177 ,38.3774 ,1.22801 ,2.02008 ,19.82104 
178 ,38.6015 ,1.23015 ,2.00297 ,19.65315 
179 ,38.8097 ,1.23229 ,1.97559 ,19.38452 
180 ,39.0338 ,1.23454 ,1.95848 ,19.21663 
181 ,39.2414 ,1.23671 ,1.94479 ,19.08232 
182 ,39.4500 ,1.23867 ,1.92426 ,18.88085 
183 ,39.6579 ,1.24079 ,1.91742 ,18.81369 
184 ,39.8501 ,1.24281 ,1.90031 ,18.64580 
185 ,40.0737 ,1.24487 ,1.87293 ,18.37717 
186 ,40.2819 ,1.24697 ,1.86608 ,18.31002 
187 ,40.5064 ,1.24924 ,1.85924 ,18.24286 
188 ,40.7306 ,1.25144 ,1.82502 ,17.90708 
189 ,40.9386 ,1.25359 ,1.80791 ,17.73919 
190 ,41.1626 ,1.25584 ,1.80449 ,17.70561 
191 ,41.3707 ,1.25789 ,1.77711 ,17.43698 
192 ,41.6105 ,1.26026 ,1.74973 ,17.16836 
193 ,41.8189 ,1.26237 ,1.74289 ,17.10120 
194 ,42.0272 ,1.26443 ,1.72920 ,16.96689 
195 ,42.2190 ,1.26650 ,1.70182 ,16.69826 
196 ,42.4273 ,1.26845 ,1.70524 ,16.73184 
197 ,42.6671 ,1.27090 ,1.67786 ,16.46321 
198 ,42.8911 ,1.27309 ,1.65391 ,16.22816 
199 ,43.1155 ,1.27530 ,1.62995 ,15.99311 
200 ,43.3235 ,1.27740 ,1.64707 ,16.16101 
201 ,43.5312 ,1.27943 ,1.62311 ,15.92596 
202 ,43.7234 ,1.28151 ,1.60600 ,15.75807 
203 ,43.9314 ,1.28345 ,1.57520 ,15.45586 
204 ,44.1398 ,1.28558 ,1.57520 ,15.45586 
205 ,44.3478 ,1.28765 ,1.55809 ,15.28797 
206 ,44.5561 ,1.28967 ,1.52045 ,14.91861 
207 ,44.7476 ,1.29180 ,1.53756 ,15.08650 
208 ,44.9722 ,1.29393 ,1.49991 ,14.71714 
209 ,45.1964 ,1.29613 ,1.49649 ,14.68356 
210 ,45.4205 ,1.29838 ,1.47596 ,14.48209 
211 ,45.6287 ,1.30046 ,1.45200 ,14.24704 
212 ,45.8522 ,1.30265 ,1.44174 ,14.14631 
213 ,46.0766 ,1.30492 ,1.41436 ,13.87768 
214 ,46.2848 ,1.30701 ,1.41778 ,13.91126 
215 ,46.5088 ,1.30924 ,1.39725 ,13.70979 
216 ,46.7169 ,1.31132 ,1.36987 ,13.44116 
217 ,46.9410 ,1.31355 ,1.35618 ,13.30685 
218 ,47.1972 ,1.31598 ,1.35276 ,13.27327 
219 ,47.4212 ,1.31833 ,1.32196 ,12.97107 
220 ,47.6614 ,1.32065 ,1.31854 ,12.93749 
221 ,47.8694 ,1.32283 ,1.29800 ,12.73602 
222 ,48.0931 ,1.32514 ,1.27405 ,12.50097 
223 ,48.3171 ,1.32728 ,1.25352 ,12.29950 
224 ,48.5256 ,1.32941 ,1.25694 ,12.33308 
225 ,48.7492 ,1.33167 ,1.21245 ,11.89656 
226 ,48.9733 ,1.33388 ,1.21245 ,11.89656 
227 ,49.1978 ,1.33613 ,1.19534 ,11.72867 
228 ,49.4541 ,1.33868 ,1.16112 ,11.39289 
229 ,49.6941 ,1.34102 ,1.15770 ,11.35931 
230 ,49.9182 ,1.34334 ,1.14058 ,11.19142 
231 ,50.1422 ,1.34560 ,1.13716 ,11.15784 
232 ,50.3500 ,1.34761 ,1.12005 ,10.98995 
233 ,50.5585 ,1.34976 ,1.09610 ,10.75490 
234 ,50.7825 ,1.35193 ,1.08583 ,10.65416 
235 ,50.9908 ,1.35407 ,1.06872 ,10.48627 
236 ,51.1825 ,1.35608 ,1.04819 ,10.28480 
237 ,51.3908 ,1.35805 ,1.03450 ,10.15049 
238 ,51.6148 ,1.36035 ,1.01396 ,9.94902 
239 ,51.8390 ,1.36255 ,0.99685 ,9.78113 
240 ,52.0309 ,1.36456 ,0.99343 ,9.74755 
241 ,52.2553 ,1.36668 ,0.96605 ,9.47892 
242 ,52.4793 ,1.36891 ,0.95921 ,9.41177 
243 ,52.7032 ,1.37120 ,0.94894 ,9.31103 
244 ,52.9112 ,1.37322 ,0.92499 ,9.07598 
245 ,53.1196 ,1.37531 ,0.91130 ,8.94167 
246 ,53.3271 ,1.37748 ,0.90446 ,8.87451 
247 ,53.5196 ,1.37945 ,0.87708 ,8.60589 
248 ,53.7596 ,1.38172 ,0.87023 ,8.53873 
249 ,53.9675 ,1.38377 ,0.86681 ,8.50515 
250 ,54.1760 ,1.38589 ,0.83601 ,8.20295 
251 ,54.3841 ,1.38796 ,0.83259 ,8.16937 
252 ,54.5922 ,1.39006 ,0.80863 ,7.93432 
253 ,54.7999 ,1.39214 ,0.79495 ,7.80001 
254 ,55.0084 ,1.39421 ,1.12347 ,11.02353 
255 ,55.2485 ,1.39647 ,1.11663 ,10.95637 
256 ,55.4723 ,1.39886 ,1.10294 ,10.82206 
257 ,55.6805 ,1.40092 ,1.11321 ,10.92279 
258 ,55.8883 ,1.40300 ,1.10294 ,10.82206 
259 ,56.0805 ,1.40507 ,1.07899 ,10.58701 
260 ,56.2887 ,1.40701 ,1.08583 ,10.65416 
261 ,56.4809 ,1.40905 ,1.06530 ,10.45270 
262 ,56.6892 ,1.41106 ,1.07899 ,10.58701 
263 ,56.9129 ,1.41323 ,1.06530 ,10.45270 
264 ,57.1209 ,1.41536 ,1.06530 ,10.45270 
265 ,57.3453 ,1.41756 ,1.07556 ,10.55343 
266 ,57.5533 ,1.41963 ,1.02765 ,10.08333 
267 ,57.7775 ,1.42190 ,1.02423 ,10.04976 
268 ,57.9857 ,1.42399 ,1.03450 ,10.15049 
269 ,58.2094 ,1.42620 ,1.01739 ,9.98260 
270 ,58.4178 ,1.42826 ,1.00370 ,9.84829 
271 ,58.6418 ,1.43056 ,1.00370 ,9.84829 
272 ,58.8499 ,1.43260 ,0.99685 ,9.78113 
273 ,59.0418 ,1.43466 ,0.97974 ,9.61324 
274 ,59.2658 ,1.43679 ,0.97632 ,9.57966 
275 ,59.4742 ,1.43881 ,0.94894 ,9.31103 
276 ,59.6823 ,1.44091 ,0.95579 ,9.37819 
277 ,59.8904 ,1.44301 ,0.95237 ,9.34461 
278 ,60.1144 ,1.44527 ,0.92841 ,9.10956 
279 ,60.3221 ,1.44729 ,0.93525 ,9.17672 
280 ,60.5306 ,1.44945 ,0.92499 ,9.07598 
281 ,60.7547 ,1.45161 ,0.90446 ,8.87451 
282 ,60.9627 ,1.45369 ,0.91472 ,8.97525 
283 ,61.1710 ,1.45578 ,0.90103 ,8.84094 
284 ,61.3785 ,1.45788 ,0.89761 ,8.80736 
285 ,61.6033 ,1.46014 ,0.89077 ,8.74020 
286 ,61.8271 ,1.46232 ,0.90446 ,8.87451 
287 ,62.0352 ,1.46444 ,0.86681 ,8.50515 
288 ,62.2594 ,1.46671 ,0.86681 ,8.50515 
289 ,62.4675 ,1.46875 ,0.87366 ,8.57231 
290 ,62.7076 ,1.47115 ,0.86681 ,8.50515 
291 ,62.9317 ,1.47339 ,0.84286 ,8.27011 
292 ,63.1554 ,1.47557 ,0.83943 ,8.23653 
293 ,63.3799 ,1.47776 ,0.83943 ,8.23653 
294 ,63.5879 ,1.47997 ,0.82917 ,8.13579 
295 ,63.8120 ,1.48219 ,0.80521 ,7.90074 
296 ,64.0361 ,1.48448 ,0.79495 ,7.80001 
297 ,64.2603 ,1.48668 ,0.80179 ,7.86717 
298 ,64.4843 ,1.48886 ,0.80521 ,7.90074 
299 ,64.6924 ,1.49102 ,0.79495 ,7.80001 
300 ,64.9163 ,1.49318 ,0.80521 ,7.90074 
301 ,65.1403 ,1.49550 ,0.78126 ,7.66570 
302 ,65.3645 ,1.49770 ,0.79495 ,7.80001 
303 ,65.5726 ,1.49978 ,0.77441 ,7.59854 
304 ,65.7808 ,1.50187 ,0.76757 ,7.53138 
305 ,66.0049 ,1.50404 ,0.76415 ,7.49780 
306 ,66.2287 ,1.50635 ,0.78468 ,7.69927 
307 ,66.4371 ,1.50847 ,0.76072 ,7.46423 
308 ,66.6450 ,1.51048 ,0.77099 ,7.56496 
309 ,66.8531 ,1.51258 ,0.75046 ,7.36349 
310 ,67.0612 ,1.51466 ,0.76072 ,7.46423 
311 ,67.2693 ,1.51681 ,0.75730 ,7.43065 
312 ,67.4935 ,1.51905 ,0.73677 ,7.22918 
313 ,67.7172 ,1.52127 ,0.73677 ,7.22918 
314 ,67.9257 ,1.52329 ,0.74361 ,7.29633 
315 ,68.1333 ,1.52542 ,0.71966 ,7.06129 
316 ,68.3417 ,1.52746 ,0.73335 ,7.19560 
317 ,68.5659 ,1.52970 ,0.73677 ,7.22918 
318 ,68.7740 ,1.53180 ,0.70939 ,6.96055 
319 ,68.9821 ,1.53387 ,0.72650 ,7.12844 
320 ,69.1898 ,1.53602 ,0.71966 ,7.06129 
321 ,69.4142 ,1.53817 ,0.69913 ,6.85982 
322 ,69.6384 ,1.54048 ,0.69913 ,6.85982 
323 ,69.8623 ,1.54268 ,0.71281 ,6.99413 
324 ,70.0866 ,1.54494 ,0.71281 ,6.99413 
325 ,70.2943 ,1.54705 ,0.69570 ,6.82624 
326 ,70.5187 ,1.54921 ,0.68201 ,6.69193 
327 ,70.7426 ,1.55148 ,0.70597 ,6.92697 
328 ,70.9507 ,1.55357 ,0.68886 ,6.75908 
329 ,71.1750 ,1.55578 ,0.67175 ,6.59119 
330 ,71.3827 ,1.55786 ,0.69228 ,6.79266 
331 ,71.6072 ,1.56010 ,0.69228 ,6.79266 
332 ,71.8474 ,1.56240 ,0.67517 ,6.62477 
333 ,72.0714 ,1.56470 ,0.66148 ,6.49046 
334 ,72.2796 ,1.56686 ,0.65464 ,6.42330 
335 ,72.4711 ,1.56890 ,0.67175 ,6.59119 
336 ,72.6958 ,1.57101 ,0.66490 ,6.52403 
337 ,72.9197 ,1.57324 ,0.65806 ,6.45688 
338 ,73.1598 ,1.57552 ,0.65806 ,6.45688 
339 ,73.3680 ,1.57773 ,0.66490 ,6.52403 
340 ,73.5919 ,1.57995 ,0.65806 ,6.45688 
341 ,73.8162 ,1.58224 ,0.63068 ,6.18825 
342 ,74.0402 ,1.58442 ,0.64437 ,6.32256 
343 ,74.2644 ,1.58667 ,0.64437 ,6.32256 
344 ,74.4724 ,1.58884 ,0.64437 ,6.32256 
345 ,74.6964 ,1.59100 ,0.62726 ,6.15467 
346 ,74.9204 ,1.59324 ,0.63068 ,6.18825 
347 ,75.1285 ,1.59544 ,0.63068 ,6.18825 
348 ,75.3206 ,1.59735 ,0.61357 ,6.02036 
349 ,75.5289 ,1.59932 ,0.63410 ,6.22183 
350 ,75.7690 ,1.60174 ,0.63068 ,6.18825 
351 ,75.9767 ,1.60389 ,0.61015 ,5.98678 
352 ,76.1851 ,1.60588 ,0.62726 ,6.15467 
353 ,76.3930 ,1.60799 ,0.61357 ,6.02036 
354 ,76.6011 ,1.61002 ,0.61015 ,5.98678 
355 ,76.7933 ,1.61210 ,0.61357 ,6.02036 
356 ,77.0010 ,1.61402 ,0.61015 ,5.98678 
357 ,77.2096 ,1.61612 ,0.61357 ,6.02036 
358 ,77.4336 ,1.61835 ,0.59646 ,5.85247 
359 ,77.6415 ,1.62042 ,0.58962 ,5.78531 
360 ,77.8497 ,1.62254 ,0.61699 ,6.05394 
361 ,78.0735 ,1.62478 ,0.60330 ,5.91962 
362 ,78.2982 ,1.62700 ,0.58962 ,5.78531 
363 ,78.5219 ,1.62921 ,0.59304 ,5.81889 
364 ,78.7460 ,1.63153 ,0.59988 ,5.88605 
365 ,78.9703 ,1.63372 ,0.61015 ,5.98678 
366 ,79.1941 ,1.63598 ,0.61699 ,6.05394 
367 ,79.4182 ,1.63823 ,0.61357 ,6.02036 
368 ,79.6424 ,1.64041 ,0.61015 ,5.98678 
369 ,79.8663 ,1.64267 ,0.62726 ,6.15467 
370 ,80.0748 ,1.64474 ,0.61357 ,6.02036 
371 ,80.2826 ,1.64686 ,0.61699 ,6.05394 
372 ,80.5228 ,1.64924 ,0.61015 ,5.98678 
373 ,80.7470 ,1.65151 ,0.62042 ,6.08752 
374 ,80.9551 ,1.65357 ,0.62384 ,6.12109 
375 ,81.1792 ,1.65581 ,0.61357 ,6.02036 
376 ,81.3874 ,1.65793 ,0.63068 ,6.18825 
377 ,81.6273 ,1.66030 ,0.63068 ,6.18825 
378 ,81.8516 ,1.66250 ,0.63753 ,6.25541 
379 ,82.0593 ,1.66465 ,0.61015 ,5.98678 
380 ,82.2676 ,1.66669 ,0.62384 ,6.12109 
381 ,82.4757 ,1.66878 ,0.63068 ,6.18825 
382 ,82.6837 ,1.67083 ,0.63068 ,6.18825 
383 ,82.8758 ,1.67290 ,0.62726 ,6.15467 
384 ,83.0840 ,1.67488 ,0.62384 ,6.12109 
385 ,83.2922 ,1.67699 ,0.64095 ,6.28899 
386 ,83.5000 ,1.67899 ,0.62042 ,6.08752 
387 ,83.7076 ,1.68112 ,0.63410 ,6.22183 
388 ,83.9163 ,1.68313 ,0.61699 ,6.05394 
389 ,84.1244 ,1.68536 ,0.61015 ,5.98678 
390 ,84.3322 ,1.68734 ,0.62726 ,6.15467 
391 ,84.5245 ,1.68935 ,0.59988 ,5.88605 
392 ,84.7483 ,1.69148 ,0.65121 ,6.38972 
393 ,84.9725 ,1.69380 ,0.67175 ,6.59119 
394 ,85.1967 ,1.69587 ,0.67517 ,6.62477 
395 ,85.4208 ,1.69821 ,0.67175 ,6.59119 
396 ,85.6291 ,1.70030 ,0.69913 ,6.85982 
397 ,85.8528 ,1.70254 ,0.67859 ,6.65835 
398 ,86.1252 ,1.70503 ,0.69570 ,6.82624 
399 ,86.3491 ,1.70750 ,0.69228 ,6.79266 
400 ,86.5573 ,1.70958 ,0.68201 ,6.69193 
401 ,86.7810 ,1.71181 ,0.66833 ,6.55761 
402 ,86.9891 ,1.71395 ,0.68544 ,6.72550 
403 ,87.2130 ,1.71613 ,0.68886 ,6.75908 
404 ,87.4374 ,1.71821 ,0.68544 ,6.72550 
405 ,87.6297 ,1.72037 ,0.67517 ,6.62477 
406 ,87.8216 ,1.72231 ,0.67517 ,6.62477 
407 ,88.0300 ,1.72430 ,0.68886 ,6.75908 
408 ,88.2539 ,1.72650 ,0.67859 ,6.65835 
409 ,88.4617 ,1.72862 ,0.68201 ,6.69193 
410 ,88.6702 ,1.73066 ,0.68886 ,6.75908 
411 ,88.8944 ,1.73295 ,0.67859 ,6.65835 
412 ,89.1024 ,1.73503 ,0.68886 ,6.75908 
413 ,89.3103 ,1.73712 ,0.69228 ,6.79266 
414 ,89.5185 ,1.73914 ,0.67517 ,6.62477 
415 ,89.7266 ,1.74124 ,0.68544 ,6.72550 
416 ,89.9348 ,1.74331 ,0.69913 ,6.85982 
417 ,90.1588 ,1.74545 ,0.68544 ,6.72550 
418 ,90.3664 ,1.74777 ,0.67859 ,6.65835 
419 ,90.5750 ,1.74977 ,0.68544 ,6.72550 
420 ,90.7991 ,1.75192 ,0.67517 ,6.62477 
421 ,90.9911 ,1.75402 ,0.69228 ,6.79266 
422 ,91.1994 ,1.75599 ,0.68201 ,6.69193 
423 ,91.4071 ,1.75802 ,0.68886 ,6.75908 
424 ,91.6474 ,1.76029 ,0.69570 ,6.82624 
425 ,91.8875 ,1.76268 ,0.68886 ,6.75908 
426 ,92.0956 ,1.76494 ,0.68886 ,6.75908 
427 ,92.2876 ,1.76698 ,0.68201 ,6.69193 
428 ,92.4796 ,1.76889 ,0.68544 ,6.72550 
429 ,92.7038 ,1.77105 ,0.68201 ,6.69193 
430 ,92.9277 ,1.77326 ,0.68886 ,6.75908 
431 ,93.1518 ,1.77546 ,0.70255 ,6.89340 
432 ,93.3602 ,1.77756 ,0.68544 ,6.72550 
433 ,93.5682 ,1.77965 ,0.68544 ,6.72550 
434 ,93.7762 ,1.78179 ,0.67517 ,6.62477 
435 ,94.0006 ,1.78396 ,0.68886 ,6.75908 
436 ,94.2246 ,1.78616 ,0.68201 ,6.69193 
437 ,94.4486 ,1.78846 ,0.69228 ,6.79266 
438 ,94.6568 ,1.79056 ,0.68886 ,6.75908 
439 ,94.8967 ,1.79290 ,0.68201 ,6.69193 
440 ,95.1051 ,1.79504 ,0.67859 ,6.65835 
441 ,95.3610 ,1.79747 ,0.67175 ,6.59119 
442 ,95.5852 ,1.79983 ,0.68201 ,6.69193 
443 ,95.8092 ,1.80199 ,0.70597 ,6.92697 
444 ,96.0494 ,1.80443 ,0.70255 ,6.89340 
445 ,96.2734 ,1.80667 ,0.69228 ,6.79266 
446 ,96.4815 ,1.80874 ,0.67175 ,6.59119 
447 ,96.7215 ,1.81113 ,0.68544 ,6.72550 
448 ,96.9455 ,1.81337 ,0.68201 ,6.69193 
449 ,97.1697 ,1.81568 ,0.69228 ,6.79266 
450 ,97.3937 ,1.81786 ,0.69913 ,6.85982 
451 ,97.6020 ,1.81993 ,0.68201 ,6.69193 
452 ,97.8260 ,1.82215 ,0.68544 ,6.72550 
453 ,98.0341 ,1.82426 ,0.69570 ,6.82624 
454 ,98.2740 ,1.82668 ,0.68201 ,6.69193 
455 ,98.4982 ,1.82890 ,0.67517 ,6.62477 
456 ,98.7222 ,1.83114 ,0.66833 ,6.55761 
457 ,98.9305 ,1.83321 ,0.69913 ,6.85982 
458 ,99.1222 ,1.83525 ,0.67517 ,6.62477 
459 ,99.3304 ,1.83723 ,0.70255 ,6.89340 
460 ,99.5386 ,1.83935 ,0.68886 ,6.75908 
461 ,99.7468 ,1.84137 ,0.69570 ,6.82624 
462 ,99.9548 ,1.84355 ,0.69570 ,6.82624 
463 ,100.1786 ,1.84572 ,0.67859 ,6.65835 
464 ,100.3870 ,1.84782 ,0.67859 ,6.65835 
465 ,100.5953 ,1.84990 ,0.67859 ,6.65835 
466 ,100.8193 ,1.85213 ,0.67859 ,6.65835 
467 ,101.0431 ,1.85438 ,0.67517 ,6.62477 
468 ,101.2511 ,1.85645 ,0.69228 ,6.79266 
