Data stamp = , 02-06-2022 15:31:09 494

Calibration Values: 
Slope = , 26.54 , g/V 
Offset Voltage at no contact = , -0.501760 , V 

No , Time , Stage Position ,   Mass , Force 
   ,  (s) ,      (mm)      ,   (g)  , (mN)  

1 ,0.0000 ,0.84949 ,5.39092 ,52.89567 
2 ,0.2156 ,0.84959 ,5.37381 ,52.72778 
3 ,0.6476 ,0.85085 ,5.37038 ,52.69420 
4 ,0.8877 ,0.85306 ,5.36696 ,52.66062 
5 ,1.1281 ,0.85537 ,5.38065 ,52.79493 
6 ,1.3520 ,0.85758 ,5.38407 ,52.82851 
7 ,1.5604 ,0.85977 ,5.35669 ,52.55988 
8 ,1.7843 ,0.86198 ,5.31905 ,52.19052 
9 ,1.9921 ,0.86408 ,5.32932 ,52.29126 
10 ,2.2001 ,0.86618 ,5.29510 ,51.95548 
11 ,2.4243 ,0.86840 ,5.27456 ,51.75401 
12 ,2.6490 ,0.87069 ,5.26087 ,51.61969 
13 ,2.8890 ,0.87294 ,5.24376 ,51.45180 
14 ,3.0970 ,0.87520 ,5.21639 ,51.18317 
15 ,3.3212 ,0.87739 ,5.19585 ,50.98170 
16 ,3.5451 ,0.87965 ,5.16163 ,50.64592 
17 ,3.7689 ,0.88187 ,5.15479 ,50.57876 
18 ,3.9773 ,0.88396 ,5.10688 ,50.10867 
19 ,4.1853 ,0.88603 ,5.09661 ,50.00793 
20 ,4.3934 ,0.88812 ,5.08292 ,49.87362 
21 ,4.6013 ,0.89019 ,5.06239 ,49.67215 
22 ,4.8094 ,0.89229 ,5.04528 ,49.50426 
23 ,5.0334 ,0.89453 ,5.03159 ,49.36995 
24 ,5.2420 ,0.89660 ,4.98710 ,48.93343 
25 ,5.4659 ,0.89877 ,4.96657 ,48.73196 
26 ,5.6741 ,0.90093 ,4.96657 ,48.73196 
27 ,5.8979 ,0.90312 ,4.92550 ,48.32902 
28 ,6.0902 ,0.90517 ,4.91523 ,48.22828 
29 ,6.2984 ,0.90717 ,4.89470 ,48.02681 
30 ,6.5065 ,0.90925 ,4.87075 ,47.79177 
31 ,6.7306 ,0.91147 ,4.85706 ,47.65745 
32 ,6.9382 ,0.91360 ,4.82626 ,47.35525 
33 ,7.1468 ,0.91571 ,4.80230 ,47.12020 
34 ,7.3706 ,0.91787 ,4.78861 ,46.98589 
35 ,7.5788 ,0.91995 ,4.74413 ,46.54937 
36 ,7.7867 ,0.92202 ,4.74070 ,46.51579 
37 ,7.9946 ,0.92412 ,4.73044 ,46.41506 
38 ,8.2190 ,0.92634 ,4.69622 ,46.07927 
39 ,8.4272 ,0.92851 ,4.69964 ,46.11285 
40 ,8.6351 ,0.93056 ,4.65857 ,45.70991 
41 ,8.8432 ,0.93260 ,4.63462 ,45.47486 
42 ,9.0674 ,0.93485 ,4.62777 ,45.40771 
43 ,9.3073 ,0.93714 ,4.61066 ,45.23981 
44 ,9.5316 ,0.93948 ,4.58328 ,44.97119 
45 ,9.7399 ,0.94152 ,4.55933 ,44.73614 
46 ,9.9638 ,0.94380 ,4.54222 ,44.56825 
47 ,10.1719 ,0.94585 ,4.54564 ,44.60183 
48 ,10.3959 ,0.94811 ,4.49089 ,44.06457 
49 ,10.6521 ,0.95047 ,4.46693 ,43.82953 
50 ,10.8761 ,0.95291 ,4.44982 ,43.66163 
51 ,11.1002 ,0.95521 ,4.42586 ,43.42659 
52 ,11.3242 ,0.95738 ,4.41218 ,43.29227 
53 ,11.5483 ,0.95965 ,4.40875 ,43.25870 
54 ,11.7563 ,0.96175 ,4.36427 ,42.82218 
55 ,11.9644 ,0.96374 ,4.35742 ,42.75502 
56 ,12.1726 ,0.96586 ,4.34716 ,42.65429 
57 ,12.3964 ,0.96814 ,4.30951 ,42.28492 
58 ,12.5884 ,0.97008 ,4.31293 ,42.31850 
59 ,12.7806 ,0.97199 ,4.27529 ,41.94914 
60 ,12.9886 ,0.97407 ,4.27187 ,41.91556 
61 ,13.1970 ,0.97610 ,4.23422 ,41.54620 
62 ,13.4210 ,0.97834 ,4.21027 ,41.31115 
63 ,13.6127 ,0.98034 ,4.20685 ,41.27758 
64 ,13.8373 ,0.98254 ,4.18289 ,41.04253 
65 ,14.0452 ,0.98458 ,4.16578 ,40.87464 
66 ,14.2534 ,0.98668 ,4.14867 ,40.70674 
67 ,14.4776 ,0.98886 ,4.10760 ,40.30380 
68 ,14.6854 ,0.99101 ,4.11103 ,40.33738 
69 ,14.9095 ,0.99331 ,4.08707 ,40.10233 
70 ,15.1336 ,0.99544 ,4.05285 ,39.76655 
71 ,15.3414 ,0.99755 ,4.04258 ,39.66582 
72 ,15.5500 ,0.99965 ,4.03916 ,39.63224 
73 ,15.7581 ,1.00171 ,4.01178 ,39.36361 
74 ,15.9820 ,1.00401 ,4.00836 ,39.33003 
75 ,16.2062 ,1.00617 ,3.98098 ,39.06141 
76 ,16.4304 ,1.00848 ,3.96387 ,38.89352 
77 ,16.6383 ,1.01057 ,3.91596 ,38.42342 
78 ,16.8626 ,1.01274 ,3.91254 ,38.38984 
79 ,17.0543 ,1.01482 ,3.89201 ,38.18837 
80 ,17.2627 ,1.01673 ,3.87490 ,38.02048 
81 ,17.4707 ,1.01896 ,3.87490 ,38.02048 
82 ,17.6788 ,1.02089 ,3.82699 ,37.55038 
83 ,17.9028 ,1.02310 ,3.82699 ,37.55038 
84 ,18.1106 ,1.02524 ,3.80987 ,37.38249 
85 ,18.3192 ,1.02731 ,3.78250 ,37.11387 
86 ,18.5429 ,1.02956 ,3.75854 ,36.87882 
87 ,18.7673 ,1.03182 ,3.75170 ,36.81166 
88 ,18.9755 ,1.03393 ,3.71063 ,36.40872 
89 ,19.1832 ,1.03597 ,3.70379 ,36.34157 
90 ,19.4234 ,1.03838 ,3.69010 ,36.20725 
91 ,19.6478 ,1.04064 ,3.67299 ,36.03936 
92 ,19.8558 ,1.04269 ,3.62850 ,35.60284 
93 ,20.0637 ,1.04476 ,3.63192 ,35.63642 
94 ,20.2718 ,1.04680 ,3.59770 ,35.30064 
95 ,20.4798 ,1.04896 ,3.58401 ,35.16632 
96 ,20.7041 ,1.05112 ,3.57375 ,35.06559 
97 ,20.9122 ,1.05320 ,3.54637 ,34.79696 
98 ,21.1363 ,1.05549 ,3.51557 ,34.49476 
99 ,21.3604 ,1.05772 ,3.50872 ,34.42760 
100 ,21.6005 ,1.06012 ,3.49161 ,34.25971 
101 ,21.8245 ,1.06240 ,3.48135 ,34.15898 
102 ,22.0322 ,1.06442 ,3.45055 ,33.85677 
103 ,22.2246 ,1.06644 ,3.43344 ,33.68888 
104 ,22.4329 ,1.06843 ,3.41633 ,33.52099 
105 ,22.6407 ,1.07055 ,3.39921 ,33.35310 
106 ,22.8329 ,1.07244 ,3.37526 ,33.11805 
107 ,23.0411 ,1.07457 ,3.35815 ,32.95016 
108 ,23.2651 ,1.07671 ,3.36157 ,32.98374 
109 ,23.4892 ,1.07900 ,3.33077 ,32.68153 
110 ,23.6649 ,1.08092 ,3.30339 ,32.41290 
111 ,23.8893 ,1.08299 ,3.29655 ,32.34575 
112 ,24.0814 ,1.08508 ,3.26233 ,32.00996 
113 ,24.2733 ,1.08700 ,3.26233 ,32.00996 
114 ,24.4816 ,1.08897 ,3.24522 ,31.84207 
115 ,24.6737 ,1.09088 ,3.21100 ,31.50629 
116 ,24.8818 ,1.09301 ,3.20415 ,31.43913 
117 ,25.0739 ,1.09490 ,3.17335 ,31.13693 
118 ,25.2820 ,1.09694 ,3.16993 ,31.10335 
119 ,25.4900 ,1.09901 ,3.14940 ,30.90188 
120 ,25.6981 ,1.10110 ,3.11175 ,30.53252 
121 ,25.9059 ,1.10314 ,3.11860 ,30.59968 
122 ,26.1305 ,1.10540 ,3.10491 ,30.46536 
123 ,26.3542 ,1.10758 ,3.06726 ,30.09600 
124 ,26.5626 ,1.10971 ,3.07411 ,30.16316 
125 ,26.7707 ,1.11177 ,3.03989 ,29.82737 
126 ,26.9945 ,1.11404 ,3.01935 ,29.62590 
127 ,27.2184 ,1.11630 ,3.00224 ,29.45801 
128 ,27.4264 ,1.11837 ,2.99198 ,29.35728 
129 ,27.6349 ,1.12045 ,2.96802 ,29.12223 
130 ,27.8591 ,1.12270 ,2.94407 ,28.88718 
131 ,28.0832 ,1.12490 ,2.93722 ,28.82003 
132 ,28.2910 ,1.12698 ,2.90642 ,28.51782 
133 ,28.4993 ,1.12911 ,2.88931 ,28.34993 
134 ,28.6914 ,1.13111 ,2.88931 ,28.34993 
135 ,28.8995 ,1.13309 ,2.85509 ,28.01415 
136 ,29.1234 ,1.13529 ,2.84825 ,27.94699 
137 ,29.3312 ,1.13740 ,2.82429 ,27.71194 
138 ,29.5398 ,1.13949 ,2.80376 ,27.51047 
139 ,29.7637 ,1.14170 ,2.79349 ,27.40974 
140 ,29.9719 ,1.14379 ,2.77980 ,27.27542 
141 ,30.1800 ,1.14590 ,2.74558 ,26.93964 
142 ,30.3877 ,1.14793 ,2.74216 ,26.90606 
143 ,30.5962 ,1.15007 ,2.70452 ,26.53670 
144 ,30.8200 ,1.15224 ,2.70109 ,26.50312 
145 ,31.0281 ,1.15437 ,2.70109 ,26.50312 
146 ,31.2364 ,1.15648 ,2.67029 ,26.20092 
147 ,31.4445 ,1.15851 ,2.66003 ,26.10018 
148 ,31.6843 ,1.16096 ,2.63265 ,25.83156 
149 ,31.9087 ,1.16313 ,2.61554 ,25.66367 
150 ,32.1168 ,1.16530 ,2.58816 ,25.39504 
151 ,32.3567 ,1.16752 ,2.56763 ,25.19357 
152 ,32.5650 ,1.16970 ,2.55052 ,25.02568 
153 ,32.7888 ,1.17199 ,2.54367 ,24.95852 
154 ,32.9971 ,1.17403 ,2.51287 ,24.65632 
155 ,33.1891 ,1.17610 ,2.52314 ,24.75705 
156 ,33.4931 ,1.17855 ,2.48207 ,24.35411 
157 ,33.7015 ,1.18107 ,2.46154 ,24.15264 
158 ,33.9254 ,1.18342 ,2.46154 ,24.15264 
159 ,34.1496 ,1.18556 ,2.43074 ,23.85044 
160 ,34.3576 ,1.18767 ,2.39994 ,23.54823 
161 ,34.5816 ,1.18990 ,2.38625 ,23.41392 
162 ,34.8059 ,1.19208 ,2.37941 ,23.34676 
163 ,35.0297 ,1.19435 ,2.34861 ,23.04456 
164 ,35.2378 ,1.19645 ,2.32465 ,22.80951 
165 ,35.4463 ,1.19850 ,2.33492 ,22.91024 
166 ,35.6543 ,1.20059 ,2.30754 ,22.64162 
167 ,35.8783 ,1.20280 ,2.27674 ,22.33941 
168 ,36.1184 ,1.20517 ,2.27332 ,22.30584 
169 ,36.3263 ,1.20737 ,2.25963 ,22.17152 
170 ,36.5346 ,1.20936 ,2.22883 ,21.86932 
171 ,36.7428 ,1.21146 ,2.20830 ,21.66785 
172 ,36.9667 ,1.21374 ,2.20146 ,21.60069 
173 ,37.1748 ,1.21579 ,2.18092 ,21.39922 
174 ,37.3827 ,1.21786 ,2.17066 ,21.29849 
175 ,37.5912 ,1.21996 ,2.15697 ,21.16417 
176 ,37.7991 ,1.22207 ,2.12275 ,20.82839 
177 ,38.0231 ,1.22425 ,2.13301 ,20.92912 
178 ,38.2311 ,1.22634 ,2.09879 ,20.59334 
179 ,38.4395 ,1.22846 ,2.08168 ,20.42545 
180 ,38.6633 ,1.23069 ,2.05088 ,20.12325 
181 ,38.8876 ,1.23286 ,2.06115 ,20.22398 
182 ,39.0958 ,1.23497 ,2.00982 ,19.72031 
183 ,39.3194 ,1.23722 ,1.99613 ,19.58599 
184 ,39.5277 ,1.23932 ,2.00639 ,19.68673 
185 ,39.7360 ,1.24139 ,1.96533 ,19.28379 
186 ,39.9437 ,1.24348 ,1.96533 ,19.28379 
187 ,40.1522 ,1.24554 ,1.94479 ,19.08232 
188 ,40.3759 ,1.24776 ,1.91742 ,18.81369 
189 ,40.6002 ,1.25004 ,1.89688 ,18.61222 
190 ,40.8244 ,1.25226 ,1.90373 ,18.67938 
191 ,41.0484 ,1.25453 ,1.88662 ,18.51149 
192 ,41.2401 ,1.25654 ,1.84555 ,18.10855 
193 ,41.4489 ,1.25857 ,1.85582 ,18.20928 
194 ,41.6727 ,1.26076 ,1.81475 ,17.80634 
195 ,41.8967 ,1.26300 ,1.80449 ,17.70561 
196 ,42.1210 ,1.26523 ,1.78737 ,17.53772 
197 ,42.3291 ,1.26740 ,1.77711 ,17.43698 
198 ,42.5527 ,1.26955 ,1.77369 ,17.40340 
199 ,42.7926 ,1.27198 ,1.74289 ,17.10120 
200 ,43.0170 ,1.27418 ,1.71551 ,16.83257 
201 ,43.2896 ,1.27691 ,1.71209 ,16.79899 
202 ,43.5133 ,1.27914 ,1.68471 ,16.53037 
203 ,43.7214 ,1.28128 ,1.65733 ,16.26174 
204 ,43.9458 ,1.28351 ,1.66075 ,16.29532 
205 ,44.1696 ,1.28570 ,1.64364 ,16.12743 
206 ,44.3939 ,1.28791 ,1.61284 ,15.82522 
207 ,44.6178 ,1.29021 ,1.59573 ,15.65733 
208 ,44.8257 ,1.29224 ,1.58204 ,15.52302 
209 ,45.0502 ,1.29450 ,1.57862 ,15.48944 
210 ,45.2741 ,1.29674 ,1.54782 ,15.18724 
211 ,45.4983 ,1.29893 ,1.53756 ,15.08650 
212 ,45.7063 ,1.30109 ,1.52729 ,14.98577 
213 ,45.9145 ,1.30317 ,1.50676 ,14.78430 
214 ,46.1387 ,1.30540 ,1.47938 ,14.51567 
215 ,46.3623 ,1.30763 ,1.45885 ,14.31420 
216 ,46.5708 ,1.30972 ,1.45200 ,14.24704 
217 ,46.7947 ,1.31199 ,1.44858 ,14.21346 
218 ,47.0030 ,1.31399 ,1.41778 ,13.91126 
219 ,47.2108 ,1.31611 ,1.41094 ,13.84410 
220 ,47.4350 ,1.31833 ,1.38698 ,13.60906 
221 ,47.6111 ,1.32028 ,1.38014 ,13.54190 
222 ,47.8193 ,1.32221 ,1.35618 ,13.30685 
223 ,48.0273 ,1.32428 ,1.34934 ,13.23969 
224 ,48.2190 ,1.32630 ,1.31512 ,12.90391 
225 ,48.4115 ,1.32824 ,1.31854 ,12.93749 
226 ,48.6196 ,1.33018 ,1.28089 ,12.56813 
227 ,48.8277 ,1.33228 ,1.28774 ,12.63528 
228 ,49.0357 ,1.33436 ,1.26720 ,12.43381 
229 ,49.2435 ,1.33646 ,1.24667 ,12.23235 
230 ,49.4519 ,1.33853 ,1.23641 ,12.13161 
231 ,49.6601 ,1.34063 ,1.22272 ,11.99730 
232 ,49.8681 ,1.34269 ,1.22272 ,11.99730 
233 ,50.0921 ,1.34492 ,1.20218 ,11.79583 
234 ,50.3161 ,1.34716 ,1.16454 ,11.42647 
235 ,50.5558 ,1.34955 ,1.15427 ,11.32573 
236 ,50.7641 ,1.35161 ,1.13716 ,11.15784 
237 ,50.9562 ,1.35368 ,1.13374 ,11.12426 
238 ,51.1646 ,1.35563 ,1.10979 ,10.88921 
239 ,51.3888 ,1.35786 ,1.11321 ,10.92279 
240 ,51.5968 ,1.35999 ,1.07556 ,10.55343 
241 ,51.7725 ,1.36187 ,1.07556 ,10.55343 
242 ,51.9970 ,1.36395 ,1.04819 ,10.28480 
243 ,52.2049 ,1.36604 ,1.03792 ,10.18407 
244 ,52.4292 ,1.36831 ,1.02765 ,10.08333 
245 ,52.6367 ,1.37032 ,1.00028 ,9.81471 
246 ,52.8450 ,1.37243 ,1.00028 ,9.81471 
247 ,53.0535 ,1.37448 ,0.98659 ,9.68039 
248 ,53.2773 ,1.37679 ,0.96263 ,9.44535 
249 ,53.4855 ,1.37886 ,0.94894 ,9.31103 
250 ,53.6933 ,1.38095 ,0.92841 ,9.10956 
251 ,53.9017 ,1.38302 ,0.93525 ,9.17672 
252 ,54.1258 ,1.38526 ,1.16454 ,11.42647 
253 ,54.3339 ,1.38732 ,1.21587 ,11.93014 
254 ,54.5421 ,1.38942 ,1.19192 ,11.69509 
255 ,54.7659 ,1.39160 ,1.21587 ,11.93014 
256 ,54.9901 ,1.39393 ,1.19876 ,11.76225 
257 ,55.2140 ,1.39615 ,1.18850 ,11.66151 
258 ,55.4384 ,1.39826 ,1.16454 ,11.42647 
259 ,55.6624 ,1.40061 ,1.16112 ,11.39289 
260 ,55.9024 ,1.40301 ,1.15085 ,11.29215 
261 ,56.1267 ,1.40532 ,1.15085 ,11.29215 
262 ,56.3508 ,1.40747 ,1.14058 ,11.19142 
263 ,56.5588 ,1.40962 ,1.11321 ,10.92279 
264 ,56.7828 ,1.41183 ,1.09952 ,10.78848 
265 ,56.9907 ,1.41387 ,1.10979 ,10.88921 
266 ,57.1989 ,1.41600 ,1.09610 ,10.75490 
267 ,57.4232 ,1.41819 ,1.07214 ,10.51985 
268 ,57.6313 ,1.42029 ,1.09267 ,10.72132 
269 ,57.8230 ,1.42233 ,1.06530 ,10.45270 
270 ,58.0314 ,1.42429 ,1.08241 ,10.62059 
271 ,58.2395 ,1.42641 ,1.07214 ,10.51985 
272 ,58.4477 ,1.42845 ,1.06872 ,10.48627 
273 ,58.6555 ,1.43053 ,1.05503 ,10.35196 
274 ,58.8636 ,1.43259 ,1.03792 ,10.18407 
275 ,59.0874 ,1.43485 ,1.04819 ,10.28480 
276 ,59.2954 ,1.43693 ,1.03450 ,10.15049 
277 ,59.5039 ,1.43897 ,1.02081 ,10.01618 
278 ,59.7121 ,1.44107 ,1.01054 ,9.91544 
279 ,59.9202 ,1.44318 ,0.99685 ,9.78113 
280 ,60.1443 ,1.44544 ,0.99001 ,9.71397 
281 ,60.3679 ,1.44769 ,0.99685 ,9.78113 
282 ,60.5762 ,1.44974 ,0.97632 ,9.57966 
283 ,60.8005 ,1.45197 ,0.93183 ,9.14314 
284 ,61.0084 ,1.45409 ,0.96948 ,9.51250 
285 ,61.2328 ,1.45626 ,0.95237 ,9.34461 
286 ,61.4404 ,1.45842 ,0.93183 ,9.14314 
287 ,61.6489 ,1.46051 ,0.95237 ,9.34461 
288 ,61.8730 ,1.46267 ,0.93525 ,9.17672 
289 ,62.0968 ,1.46487 ,0.91472 ,8.97525 
290 ,62.3051 ,1.46697 ,0.90788 ,8.90809 
291 ,62.5292 ,1.46925 ,0.91472 ,8.97525 
292 ,62.7693 ,1.47155 ,0.90103 ,8.84094 
293 ,62.9933 ,1.47392 ,0.90103 ,8.84094 
294 ,63.2175 ,1.47613 ,0.87023 ,8.53873 
295 ,63.4256 ,1.47820 ,0.87023 ,8.53873 
296 ,63.6496 ,1.48044 ,0.87366 ,8.57231 
297 ,63.8737 ,1.48267 ,0.86681 ,8.50515 
298 ,64.0976 ,1.48494 ,0.84970 ,8.33726 
299 ,64.3059 ,1.48704 ,0.84970 ,8.33726 
300 ,64.5299 ,1.48927 ,0.85997 ,8.43800 
301 ,64.7381 ,1.49131 ,0.83259 ,8.16937 
302 ,64.9782 ,1.49376 ,0.82917 ,8.13579 
303 ,65.2023 ,1.49595 ,0.83259 ,8.16937 
304 ,65.3942 ,1.49802 ,0.83601 ,8.20295 
305 ,65.6184 ,1.50015 ,0.81548 ,8.00148 
306 ,65.8427 ,1.50233 ,0.81548 ,8.00148 
307 ,66.0663 ,1.50459 ,0.82575 ,8.10221 
308 ,66.2907 ,1.50675 ,0.81206 ,7.96790 
309 ,66.4988 ,1.50895 ,0.79837 ,7.83359 
310 ,66.7227 ,1.51115 ,0.81206 ,7.96790 
311 ,66.9631 ,1.51357 ,0.78810 ,7.73285 
312 ,67.2030 ,1.51596 ,0.79495 ,7.80001 
313 ,67.4273 ,1.51818 ,0.78810 ,7.73285 
314 ,67.6354 ,1.52029 ,0.78468 ,7.69927 
315 ,67.8435 ,1.52240 ,0.76757 ,7.53138 
316 ,68.0676 ,1.52463 ,0.78468 ,7.69927 
317 ,68.2754 ,1.52678 ,0.76415 ,7.49780 
318 ,68.4997 ,1.52890 ,0.75730 ,7.43065 
319 ,68.7236 ,1.53116 ,0.75388 ,7.39707 
320 ,68.9478 ,1.53345 ,0.75730 ,7.43065 
321 ,69.1876 ,1.53567 ,0.74704 ,7.32991 
322 ,69.3959 ,1.53791 ,0.74704 ,7.32991 
323 ,69.6202 ,1.54018 ,0.73335 ,7.19560 
324 ,69.8442 ,1.54234 ,0.73677 ,7.22918 
325 ,70.0683 ,1.54467 ,0.74019 ,7.26276 
326 ,70.2760 ,1.54671 ,0.72308 ,7.09486 
327 ,70.5004 ,1.54884 ,0.72992 ,7.16202 
328 ,70.7245 ,1.55112 ,0.71966 ,7.06129 
329 ,70.9327 ,1.55326 ,0.71966 ,7.06129 
330 ,71.1567 ,1.55549 ,0.70597 ,6.92697 
331 ,71.3649 ,1.55757 ,0.71624 ,7.02771 
332 ,71.5889 ,1.55985 ,0.70939 ,6.96055 
333 ,71.8288 ,1.56211 ,0.70597 ,6.92697 
334 ,72.0372 ,1.56434 ,0.68886 ,6.75908 
335 ,72.2613 ,1.56657 ,0.68201 ,6.69193 
336 ,72.4854 ,1.56881 ,0.69228 ,6.79266 
337 ,72.7094 ,1.57103 ,0.71281 ,6.99413 
338 ,72.9333 ,1.57320 ,0.67859 ,6.65835 
339 ,73.1576 ,1.57546 ,0.67175 ,6.59119 
340 ,73.3817 ,1.57773 ,0.67175 ,6.59119 
341 ,73.6057 ,1.57996 ,0.69228 ,6.79266 
342 ,73.8298 ,1.58222 ,0.69228 ,6.79266 
343 ,74.0539 ,1.58444 ,0.67859 ,6.65835 
344 ,74.2780 ,1.58670 ,0.65806 ,6.45688 
345 ,74.4861 ,1.58878 ,0.67175 ,6.59119 
346 ,74.7101 ,1.59101 ,0.66490 ,6.52403 
347 ,74.9180 ,1.59308 ,0.65121 ,6.38972 
348 ,75.1424 ,1.59532 ,0.65806 ,6.45688 
349 ,75.3663 ,1.59760 ,0.66148 ,6.49046 
350 ,75.5743 ,1.59967 ,0.65121 ,6.38972 
351 ,75.7827 ,1.60175 ,0.64437 ,6.32256 
352 ,76.0065 ,1.60400 ,0.65121 ,6.38972 
353 ,76.2308 ,1.60621 ,0.65121 ,6.38972 
354 ,76.4547 ,1.60846 ,0.64779 ,6.35614 
355 ,76.6628 ,1.61053 ,0.62726 ,6.15467 
356 ,76.8711 ,1.61263 ,0.64779 ,6.35614 
357 ,77.0789 ,1.61480 ,0.63068 ,6.18825 
358 ,77.2872 ,1.61679 ,0.63410 ,6.22183 
359 ,77.4952 ,1.61882 ,0.63068 ,6.18825 
360 ,77.7355 ,1.62131 ,0.63068 ,6.18825 
361 ,77.9591 ,1.62351 ,0.64437 ,6.32256 
362 ,78.1675 ,1.62554 ,0.66833 ,6.55761 
363 ,78.3915 ,1.62781 ,0.64437 ,6.32256 
364 ,78.6157 ,1.63001 ,0.63068 ,6.18825 
365 ,78.8236 ,1.63211 ,0.63753 ,6.25541 
366 ,79.0320 ,1.63423 ,0.64779 ,6.35614 
367 ,79.2561 ,1.63643 ,0.64095 ,6.28899 
368 ,79.4642 ,1.63851 ,0.63068 ,6.18825 
369 ,79.6723 ,1.64064 ,0.63410 ,6.22183 
370 ,79.8963 ,1.64293 ,0.62726 ,6.15467 
371 ,80.1204 ,1.64500 ,0.63068 ,6.18825 
372 ,80.3445 ,1.64730 ,0.63068 ,6.18825 
373 ,80.5526 ,1.64938 ,0.63753 ,6.25541 
374 ,80.7767 ,1.65164 ,0.62042 ,6.08752 
375 ,81.0008 ,1.65383 ,0.62042 ,6.08752 
376 ,81.2088 ,1.65600 ,0.63410 ,6.22183 
377 ,81.4004 ,1.65800 ,0.63410 ,6.22183 
378 ,81.6090 ,1.65998 ,0.65464 ,6.42330 
379 ,81.8329 ,1.66223 ,0.64779 ,6.35614 
380 ,82.0413 ,1.66432 ,0.63410 ,6.22183 
381 ,82.2491 ,1.66642 ,0.65464 ,6.42330 
382 ,82.4730 ,1.66854 ,0.65121 ,6.38972 
383 ,82.6976 ,1.67078 ,0.63410 ,6.22183 
384 ,82.9216 ,1.67311 ,0.62726 ,6.15467 
385 ,83.1297 ,1.67514 ,0.65121 ,6.38972 
386 ,83.3538 ,1.67743 ,0.64779 ,6.35614 
387 ,83.5616 ,1.67950 ,0.62384 ,6.12109 
388 ,83.7857 ,1.68180 ,0.63068 ,6.18825 
389 ,84.0099 ,1.68390 ,0.65464 ,6.42330 
390 ,84.2179 ,1.68609 ,0.63068 ,6.18825 
391 ,84.4422 ,1.68830 ,0.62384 ,6.12109 
392 ,84.6503 ,1.69034 ,0.65464 ,6.42330 
393 ,84.8901 ,1.69260 ,0.68201 ,6.69193 
394 ,85.0984 ,1.69486 ,0.68544 ,6.72550 
395 ,85.3064 ,1.69689 ,0.71624 ,7.02771 
396 ,85.5306 ,1.69922 ,0.71281 ,6.99413 
397 ,85.7221 ,1.70122 ,0.69913 ,6.85982 
398 ,85.9306 ,1.70317 ,0.71966 ,7.06129 
399 ,86.1550 ,1.70547 ,0.69570 ,6.82624 
400 ,86.3628 ,1.70751 ,0.69913 ,6.85982 
401 ,86.5711 ,1.70957 ,0.70597 ,6.92697 
402 ,86.7792 ,1.71168 ,0.69913 ,6.85982 
403 ,87.0032 ,1.71384 ,0.70255 ,6.89340 
404 ,87.2111 ,1.71595 ,0.72308 ,7.09486 
405 ,87.4195 ,1.71805 ,0.69913 ,6.85982 
406 ,87.6115 ,1.72012 ,0.70939 ,6.96055 
407 ,87.8197 ,1.72207 ,0.71281 ,6.99413 
408 ,88.0432 ,1.72429 ,0.70939 ,6.96055 
409 ,88.2837 ,1.72653 ,0.70597 ,6.92697 
410 ,88.4918 ,1.72891 ,0.70255 ,6.89340 
411 ,88.7000 ,1.73088 ,0.69228 ,6.79266 
412 ,88.9080 ,1.73296 ,0.71966 ,7.06129 
413 ,89.1318 ,1.73515 ,0.70939 ,6.96055 
414 ,89.3400 ,1.73729 ,0.69570 ,6.82624 
415 ,89.5642 ,1.73946 ,0.69228 ,6.79266 
416 ,89.7884 ,1.74172 ,0.70939 ,6.96055 
417 ,89.9965 ,1.74381 ,0.70597 ,6.92697 
418 ,90.2041 ,1.74588 ,0.69228 ,6.79266 
419 ,90.4283 ,1.74809 ,0.71281 ,6.99413 
420 ,90.6367 ,1.75022 ,0.70255 ,6.89340 
421 ,90.8450 ,1.75232 ,0.70255 ,6.89340 
422 ,91.0690 ,1.75453 ,0.71966 ,7.06129 
423 ,91.2928 ,1.75668 ,0.70597 ,6.92697 
424 ,91.5171 ,1.75901 ,0.71281 ,6.99413 
425 ,91.7573 ,1.76134 ,0.69570 ,6.82624 
426 ,91.9654 ,1.76350 ,0.69228 ,6.79266 
427 ,92.1730 ,1.76574 ,0.71966 ,7.06129 
428 ,92.3814 ,1.76764 ,0.69570 ,6.82624 
429 ,92.5895 ,1.76978 ,0.72308 ,7.09486 
430 ,92.8135 ,1.77189 ,0.70597 ,6.92697 
431 ,93.0216 ,1.77405 ,0.69228 ,6.79266 
432 ,93.2457 ,1.77627 ,0.69913 ,6.85982 
433 ,93.4540 ,1.77833 ,0.70255 ,6.89340 
434 ,93.6458 ,1.78043 ,0.69228 ,6.79266 
435 ,93.8540 ,1.78234 ,0.71966 ,7.06129 
436 ,94.0622 ,1.78444 ,0.70255 ,6.89340 
437 ,94.2702 ,1.78651 ,0.71281 ,6.99413 
438 ,94.4942 ,1.78873 ,0.70597 ,6.92697 
439 ,94.7020 ,1.79084 ,0.68886 ,6.75908 
440 ,94.9104 ,1.79293 ,0.70255 ,6.89340 
441 ,95.1186 ,1.79501 ,0.70939 ,6.96055 
442 ,95.3425 ,1.79727 ,0.69228 ,6.79266 
443 ,95.5506 ,1.79935 ,0.72308 ,7.09486 
444 ,95.7584 ,1.80142 ,0.70939 ,6.96055 
445 ,95.9670 ,1.80348 ,0.70597 ,6.92697 
446 ,96.1908 ,1.80575 ,0.70939 ,6.96055 
447 ,96.3991 ,1.80779 ,0.70255 ,6.89340 
448 ,96.6231 ,1.81002 ,0.69228 ,6.79266 
449 ,96.8310 ,1.81215 ,0.71966 ,7.06129 
450 ,97.0714 ,1.81439 ,0.71966 ,7.06129 
451 ,97.2953 ,1.81677 ,0.71624 ,7.02771 
452 ,97.5032 ,1.81883 ,0.69228 ,6.79266 
453 ,97.7117 ,1.82091 ,0.71966 ,7.06129 
454 ,97.9198 ,1.82302 ,0.70597 ,6.92697 
455 ,98.1278 ,1.82511 ,0.70939 ,6.96055 
456 ,98.3360 ,1.82710 ,0.71281 ,6.99413 
457 ,98.5280 ,1.82923 ,0.70255 ,6.89340 
458 ,98.7680 ,1.83143 ,0.70255 ,6.89340 
459 ,98.9921 ,1.83379 ,0.71624 ,7.02771 
460 ,99.2000 ,1.83578 ,0.69913 ,6.85982 
461 ,99.4084 ,1.83785 ,0.69913 ,6.85982 
462 ,99.6162 ,1.83995 ,0.71624 ,7.02771 
463 ,99.8246 ,1.84207 ,0.70939 ,6.96055 
464 ,100.0486 ,1.84427 ,0.70255 ,6.89340 
465 ,100.2562 ,1.84636 ,0.70255 ,6.89340 
466 ,100.4647 ,1.84846 ,0.69228 ,6.79266 
467 ,100.6888 ,1.85073 ,0.69228 ,6.79266 
