Data stamp = , 03-06-2022 03:36:31 946

Calibration Values: 
Slope = , 26.54 , g/V 
Offset Voltage at no contact = , -0.501760 , V 

No , Time , Stage Position ,   Mass , Force 
   ,  (s) ,      (mm)      ,   (g)  , (mN)  

1 ,0.0000 ,0.84958 ,5.28483 ,51.85474 
2 ,0.2033 ,0.84965 ,5.30878 ,52.08979 
3 ,0.9239 ,0.85276 ,5.27798 ,51.78758 
4 ,1.1321 ,0.85576 ,5.29167 ,51.92190 
5 ,1.3560 ,0.85779 ,5.28141 ,51.82116 
6 ,1.5800 ,0.86012 ,5.26430 ,51.65327 
7 ,1.7880 ,0.86222 ,5.25061 ,51.51896 
8 ,1.9967 ,0.86430 ,5.24376 ,51.45180 
9 ,2.2045 ,0.86640 ,5.20270 ,51.04886 
10 ,2.4127 ,0.86846 ,5.19927 ,51.01528 
11 ,2.6367 ,0.87069 ,5.17874 ,50.81381 
12 ,2.9566 ,0.87331 ,5.14110 ,50.44445 
13 ,3.1809 ,0.87617 ,5.10688 ,50.10867 
14 ,3.4046 ,0.87837 ,5.08292 ,49.87362 
15 ,3.6290 ,0.88058 ,5.08292 ,49.87362 
16 ,3.8371 ,0.88271 ,5.05212 ,49.57142 
17 ,4.0453 ,0.88475 ,5.02817 ,49.33637 
18 ,4.2533 ,0.88689 ,5.02474 ,49.30279 
19 ,4.4932 ,0.88915 ,4.98368 ,48.89985 
20 ,4.7175 ,0.89151 ,4.96315 ,48.69838 
21 ,4.9735 ,0.89405 ,4.93919 ,48.46333 
22 ,5.1978 ,0.89628 ,4.92550 ,48.32902 
23 ,5.4057 ,0.89841 ,4.89470 ,48.02681 
24 ,5.6295 ,0.90055 ,4.88786 ,47.95966 
25 ,5.8537 ,0.90288 ,4.86048 ,47.69103 
26 ,6.0782 ,0.90511 ,4.82626 ,47.35525 
27 ,6.3027 ,0.90727 ,4.80573 ,47.15378 
28 ,6.5104 ,0.90949 ,4.80915 ,47.18736 
29 ,6.7342 ,0.91170 ,4.77835 ,46.88515 
30 ,6.9584 ,0.91387 ,4.74070 ,46.51579 
31 ,7.1826 ,0.91616 ,4.70648 ,46.18001 
32 ,7.4067 ,0.91838 ,4.70990 ,46.21359 
33 ,7.6148 ,0.92048 ,4.68595 ,45.97854 
34 ,7.8067 ,0.92250 ,4.65515 ,45.67633 
35 ,8.0149 ,0.92443 ,4.65515 ,45.67633 
36 ,8.2231 ,0.92657 ,4.61751 ,45.30697 
37 ,8.4471 ,0.92880 ,4.61066 ,45.23981 
38 ,8.6712 ,0.93096 ,4.59355 ,45.07192 
39 ,8.8791 ,0.93307 ,4.55933 ,44.73614 
40 ,9.1035 ,0.93528 ,4.53880 ,44.53467 
41 ,9.3114 ,0.93738 ,4.53880 ,44.53467 
42 ,9.5353 ,0.93967 ,4.50457 ,44.19889 
43 ,9.7596 ,0.94181 ,4.48062 ,43.96384 
44 ,9.9837 ,0.94412 ,4.45666 ,43.72879 
45 ,10.1753 ,0.94619 ,4.44640 ,43.62806 
46 ,10.3839 ,0.94813 ,4.42244 ,43.39301 
47 ,10.5921 ,0.95017 ,4.41218 ,43.29227 
48 ,10.8006 ,0.95231 ,4.38138 ,42.99007 
49 ,11.0082 ,0.95441 ,4.35742 ,42.75502 
50 ,11.2321 ,0.95664 ,4.35742 ,42.75502 
51 ,11.4564 ,0.95885 ,4.31978 ,42.38566 
52 ,11.6804 ,0.96107 ,4.29924 ,42.18419 
53 ,11.8884 ,0.96320 ,4.28556 ,42.04988 
54 ,12.0966 ,0.96522 ,4.26502 ,41.84841 
55 ,12.3207 ,0.96751 ,4.22738 ,41.47905 
56 ,12.5448 ,0.96965 ,4.23422 ,41.54620 
57 ,12.7686 ,0.97197 ,4.20342 ,41.24400 
58 ,12.9931 ,0.97424 ,4.19316 ,41.14326 
59 ,13.2170 ,0.97646 ,4.16236 ,40.84106 
60 ,13.4410 ,0.97863 ,4.13498 ,40.57243 
61 ,13.6492 ,0.98079 ,4.12814 ,40.50527 
62 ,13.8573 ,0.98292 ,4.10760 ,40.30380 
63 ,14.0975 ,0.98528 ,4.08707 ,40.10233 
64 ,14.3052 ,0.98735 ,4.05969 ,39.83371 
65 ,14.5296 ,0.98958 ,4.03916 ,39.63224 
66 ,14.7373 ,0.99168 ,4.02205 ,39.46435 
67 ,14.9457 ,0.99370 ,3.99125 ,39.16214 
68 ,15.1538 ,0.99577 ,3.98441 ,39.09499 
69 ,15.3778 ,0.99806 ,3.97072 ,38.96067 
70 ,15.5860 ,1.00012 ,3.93992 ,38.65847 
71 ,15.7935 ,1.00227 ,3.92965 ,38.55773 
72 ,16.0021 ,1.00431 ,3.90570 ,38.32268 
73 ,16.2260 ,1.00653 ,3.88858 ,38.15479 
74 ,16.4503 ,1.00880 ,3.87490 ,38.02048 
75 ,16.6583 ,1.01089 ,3.84410 ,37.71828 
76 ,16.8660 ,1.01299 ,3.82356 ,37.51681 
77 ,17.0746 ,1.01506 ,3.82014 ,37.48323 
78 ,17.3302 ,1.01752 ,3.78934 ,37.18102 
79 ,17.5542 ,1.01979 ,3.78250 ,37.11387 
80 ,17.7627 ,1.02194 ,3.73117 ,36.61019 
81 ,17.9865 ,1.02412 ,3.72432 ,36.54303 
82 ,18.2111 ,1.02634 ,3.72090 ,36.50946 
83 ,18.4350 ,1.02866 ,3.70721 ,36.37514 
84 ,18.6593 ,1.03083 ,3.66272 ,35.93863 
85 ,18.8834 ,1.03312 ,3.64903 ,35.80431 
86 ,19.1070 ,1.03530 ,3.62166 ,35.53569 
87 ,19.3153 ,1.03743 ,3.61823 ,35.50211 
88 ,19.5396 ,1.03969 ,3.59086 ,35.23348 
89 ,19.7476 ,1.04179 ,3.57717 ,35.09917 
90 ,19.9557 ,1.04381 ,3.56006 ,34.93128 
91 ,20.1633 ,1.04591 ,3.52926 ,34.62907 
92 ,20.4040 ,1.04814 ,3.51215 ,34.46118 
93 ,20.6280 ,1.05053 ,3.49504 ,34.29329 
94 ,20.8520 ,1.05273 ,3.49504 ,34.29329 
95 ,21.0603 ,1.05482 ,3.46424 ,33.99108 
96 ,21.2840 ,1.05709 ,3.43686 ,33.72246 
97 ,21.4925 ,1.05922 ,3.42659 ,33.62172 
98 ,21.7162 ,1.06136 ,3.40948 ,33.45383 
99 ,21.9246 ,1.06346 ,3.37184 ,33.08447 
100 ,22.1484 ,1.06571 ,3.36499 ,33.01731 
101 ,22.3728 ,1.06802 ,3.36157 ,32.98374 
102 ,22.6129 ,1.07027 ,3.32051 ,32.58080 
103 ,22.8207 ,1.07259 ,3.30682 ,32.44648 
104 ,23.0289 ,1.07452 ,3.29997 ,32.37933 
105 ,23.2530 ,1.07675 ,3.26233 ,32.00996 
106 ,23.4613 ,1.07880 ,3.25891 ,31.97639 
107 ,23.6854 ,1.08114 ,3.23495 ,31.74134 
108 ,23.9094 ,1.08328 ,3.21784 ,31.57345 
109 ,24.1175 ,1.08541 ,3.20415 ,31.43913 
110 ,24.3256 ,1.08753 ,3.16993 ,31.10335 
111 ,24.5177 ,1.08946 ,3.16309 ,31.03619 
112 ,24.7254 ,1.09159 ,3.13229 ,30.73399 
113 ,24.9338 ,1.09356 ,3.13913 ,30.80115 
114 ,25.1421 ,1.09564 ,3.09806 ,30.39821 
115 ,25.3500 ,1.09773 ,3.09806 ,30.39821 
116 ,25.5901 ,1.10006 ,3.08780 ,30.29747 
117 ,25.7978 ,1.10215 ,3.05700 ,29.99527 
118 ,26.0064 ,1.10430 ,3.03304 ,29.76022 
119 ,26.2305 ,1.10658 ,3.02620 ,29.69306 
120 ,26.4386 ,1.10868 ,2.99882 ,29.42444 
121 ,26.6625 ,1.11085 ,2.97487 ,29.18939 
122 ,26.8703 ,1.11290 ,2.96460 ,29.08865 
123 ,27.0949 ,1.11519 ,2.94749 ,28.92076 
124 ,27.3189 ,1.11739 ,2.93380 ,28.78645 
125 ,27.5270 ,1.11946 ,2.89616 ,28.41709 
126 ,27.7666 ,1.12185 ,2.88247 ,28.28277 
127 ,27.9746 ,1.12408 ,2.87562 ,28.21562 
128 ,28.2147 ,1.12638 ,2.84825 ,27.94699 
129 ,28.4388 ,1.12867 ,2.83456 ,27.81268 
130 ,28.6789 ,1.13099 ,2.80034 ,27.47689 
131 ,28.8711 ,1.13297 ,2.80034 ,27.47689 
132 ,29.0795 ,1.13504 ,2.77980 ,27.27542 
133 ,29.2876 ,1.13705 ,2.75927 ,27.07395 
134 ,29.5118 ,1.13930 ,2.74900 ,26.97322 
135 ,29.7356 ,1.14160 ,2.73531 ,26.83891 
136 ,29.9438 ,1.14364 ,2.69425 ,26.43597 
137 ,30.1518 ,1.14573 ,2.69425 ,26.43597 
138 ,30.3597 ,1.14781 ,2.67029 ,26.20092 
139 ,30.5679 ,1.14984 ,2.66003 ,26.10018 
140 ,30.7929 ,1.15213 ,2.64976 ,25.99945 
141 ,31.0165 ,1.15431 ,2.63265 ,25.83156 
142 ,31.2404 ,1.15657 ,2.59158 ,25.42862 
143 ,31.4482 ,1.15865 ,2.58474 ,25.36146 
144 ,31.6565 ,1.16077 ,2.56763 ,25.19357 
145 ,31.8808 ,1.16295 ,2.54710 ,24.99210 
146 ,32.0888 ,1.16514 ,2.52998 ,24.82421 
147 ,32.3130 ,1.16721 ,2.51630 ,24.68989 
148 ,32.5366 ,1.16960 ,2.49576 ,24.48842 
149 ,32.7449 ,1.17171 ,2.47181 ,24.25338 
150 ,32.9691 ,1.17386 ,2.46839 ,24.21980 
151 ,33.1772 ,1.17600 ,2.45470 ,24.08549 
152 ,33.4015 ,1.17820 ,2.43074 ,23.85044 
153 ,33.6091 ,1.18030 ,2.40679 ,23.61539 
154 ,33.8495 ,1.18262 ,2.39652 ,23.51465 
155 ,34.0736 ,1.18493 ,2.38968 ,23.44750 
156 ,34.2816 ,1.18706 ,2.33834 ,22.94382 
157 ,34.5057 ,1.18928 ,2.33150 ,22.87667 
158 ,34.7138 ,1.19133 ,2.33492 ,22.91024 
159 ,34.9379 ,1.19364 ,2.28359 ,22.40657 
160 ,35.1616 ,1.19576 ,2.26648 ,22.23868 
161 ,35.3700 ,1.19795 ,2.25963 ,22.17152 
162 ,35.5779 ,1.19996 ,2.25279 ,22.10437 
163 ,35.7862 ,1.20200 ,2.22541 ,21.83574 
164 ,35.9941 ,1.20413 ,2.21857 ,21.76858 
165 ,36.2184 ,1.20639 ,2.20488 ,21.63427 
166 ,36.4425 ,1.20862 ,2.17408 ,21.33206 
167 ,36.6506 ,1.21075 ,2.16381 ,21.23133 
168 ,36.8587 ,1.21276 ,2.14328 ,21.02986 
169 ,37.1628 ,1.21535 ,2.12617 ,20.86197 
170 ,37.3871 ,1.21806 ,2.09879 ,20.59334 
171 ,37.5952 ,1.22018 ,2.09195 ,20.52619 
172 ,37.8037 ,1.22226 ,2.06799 ,20.29114 
173 ,38.0112 ,1.22427 ,2.05430 ,20.15682 
174 ,38.2192 ,1.22640 ,2.03377 ,19.95535 
175 ,38.4271 ,1.22843 ,2.01666 ,19.78746 
176 ,38.6354 ,1.23059 ,2.01666 ,19.78746 
177 ,38.8594 ,1.23279 ,1.99270 ,19.55241 
178 ,39.0674 ,1.23483 ,1.96875 ,19.31737 
179 ,39.2752 ,1.23704 ,1.95848 ,19.21663 
180 ,39.4836 ,1.23902 ,1.93453 ,18.98158 
181 ,39.6919 ,1.24109 ,1.92084 ,18.84727 
182 ,39.9160 ,1.24335 ,1.90715 ,18.71296 
183 ,40.1400 ,1.24561 ,1.88662 ,18.51149 
184 ,40.3317 ,1.24764 ,1.87293 ,18.37717 
185 ,40.5402 ,1.24964 ,1.85582 ,18.20928 
186 ,40.7481 ,1.25179 ,1.83871 ,18.04139 
187 ,40.9725 ,1.25395 ,1.82502 ,17.90708 
188 ,41.1966 ,1.25618 ,1.81133 ,17.77276 
189 ,41.4042 ,1.25825 ,1.79422 ,17.60487 
190 ,41.6284 ,1.26044 ,1.77369 ,17.40340 
191 ,41.8368 ,1.26271 ,1.76000 ,17.26909 
192 ,42.0448 ,1.26465 ,1.73946 ,17.06762 
193 ,42.2686 ,1.26686 ,1.72235 ,16.89973 
194 ,42.4929 ,1.26914 ,1.71551 ,16.83257 
195 ,42.7170 ,1.27135 ,1.69498 ,16.63110 
196 ,42.9409 ,1.27352 ,1.67102 ,16.39605 
197 ,43.1492 ,1.27565 ,1.67444 ,16.42963 
198 ,43.3734 ,1.27784 ,1.65049 ,16.19458 
199 ,43.5975 ,1.28013 ,1.62995 ,15.99311 
200 ,43.8376 ,1.28242 ,1.61284 ,15.82522 
201 ,44.0617 ,1.28482 ,1.59231 ,15.62375 
202 ,44.2698 ,1.28685 ,1.57520 ,15.45586 
203 ,44.4939 ,1.28912 ,1.56493 ,15.35513 
204 ,44.7020 ,1.29122 ,1.53756 ,15.08650 
205 ,44.8940 ,1.29320 ,1.53413 ,15.05292 
206 ,45.1020 ,1.29516 ,1.50333 ,14.75072 
207 ,45.3262 ,1.29739 ,1.48965 ,14.61640 
208 ,45.5342 ,1.29953 ,1.49307 ,14.64998 
209 ,45.7582 ,1.30167 ,1.47253 ,14.44851 
210 ,45.9660 ,1.30375 ,1.44174 ,14.14631 
211 ,46.1906 ,1.30594 ,1.44858 ,14.21346 
212 ,46.3985 ,1.30814 ,1.42120 ,13.94484 
213 ,46.6226 ,1.31040 ,1.39725 ,13.70979 
214 ,46.8147 ,1.31240 ,1.38698 ,13.60906 
215 ,47.0224 ,1.31441 ,1.36987 ,13.44116 
216 ,47.2308 ,1.31649 ,1.35618 ,13.30685 
217 ,47.4551 ,1.31871 ,1.34249 ,13.17254 
218 ,47.6471 ,1.32071 ,1.31169 ,12.87033 
219 ,47.8712 ,1.32285 ,1.31512 ,12.90391 
220 ,48.0951 ,1.32508 ,1.30485 ,12.80318 
221 ,48.3515 ,1.32769 ,1.26720 ,12.43381 
222 ,48.5756 ,1.32990 ,1.28089 ,12.56813 
223 ,48.7835 ,1.33199 ,1.22956 ,12.06445 
224 ,48.9918 ,1.33410 ,1.22956 ,12.06445 
225 ,49.1999 ,1.33617 ,1.21587 ,11.93014 
226 ,49.4236 ,1.33843 ,1.19534 ,11.72867 
227 ,49.6477 ,1.34057 ,1.17138 ,11.49362 
228 ,49.8558 ,1.34273 ,1.17823 ,11.56078 
229 ,50.0641 ,1.34486 ,1.14401 ,11.22500 
230 ,50.2722 ,1.34690 ,1.14401 ,11.22500 
231 ,50.4962 ,1.34910 ,1.12690 ,11.05710 
232 ,50.7204 ,1.35133 ,1.09952 ,10.78848 
233 ,50.9443 ,1.35354 ,1.06530 ,10.45270 
234 ,51.1684 ,1.35583 ,1.06530 ,10.45270 
235 ,51.3926 ,1.35809 ,1.05503 ,10.35196 
236 ,51.6008 ,1.36012 ,1.02081 ,10.01618 
237 ,51.8248 ,1.36236 ,1.00028 ,9.81471 
238 ,52.0488 ,1.36459 ,1.00028 ,9.81471 
239 ,52.2729 ,1.36690 ,1.01054 ,9.91544 
240 ,52.4808 ,1.36889 ,0.97632 ,9.57966 
241 ,52.6891 ,1.37095 ,0.95237 ,9.34461 
242 ,52.8970 ,1.37308 ,0.95237 ,9.34461 
243 ,53.1056 ,1.37516 ,0.91814 ,9.00883 
244 ,53.3295 ,1.37738 ,0.91814 ,9.00883 
245 ,53.5536 ,1.37969 ,0.91130 ,8.94167 
246 ,53.7612 ,1.38172 ,0.87023 ,8.53873 
247 ,53.9697 ,1.38379 ,0.87023 ,8.53873 
248 ,54.1778 ,1.38590 ,0.86339 ,8.47158 
249 ,54.3858 ,1.38799 ,0.82232 ,8.06864 
250 ,54.5941 ,1.39006 ,0.84286 ,8.27011 
251 ,54.8177 ,1.39230 ,0.82232 ,8.06864 
252 ,55.0737 ,1.39485 ,0.79495 ,7.80001 
253 ,55.2980 ,1.39715 ,0.79152 ,7.76643 
254 ,55.5219 ,1.39933 ,1.06530 ,10.45270 
255 ,55.7304 ,1.40150 ,1.10294 ,10.82206 
256 ,55.9540 ,1.40364 ,1.12347 ,11.02353 
257 ,56.1462 ,1.40571 ,1.08583 ,10.65416 
258 ,56.3547 ,1.40768 ,1.09267 ,10.72132 
259 ,56.5787 ,1.40986 ,1.08241 ,10.62059 
260 ,56.7868 ,1.41201 ,1.06872 ,10.48627 
261 ,56.9952 ,1.41409 ,1.07899 ,10.58701 
262 ,57.2189 ,1.41634 ,1.05845 ,10.38554 
263 ,57.4432 ,1.41849 ,1.04476 ,10.25123 
264 ,57.6670 ,1.42080 ,1.04134 ,10.21765 
265 ,57.8754 ,1.42285 ,1.03792 ,10.18407 
266 ,58.0997 ,1.42515 ,1.03792 ,10.18407 
267 ,58.3232 ,1.42740 ,1.00712 ,9.88186 
268 ,58.5475 ,1.42961 ,0.99685 ,9.78113 
269 ,58.7556 ,1.43167 ,1.00712 ,9.88186 
270 ,58.9639 ,1.43375 ,0.97974 ,9.61324 
271 ,59.1877 ,1.43597 ,0.97974 ,9.61324 
272 ,59.3959 ,1.43807 ,0.97290 ,9.54608 
273 ,59.6521 ,1.44040 ,0.95579 ,9.37819 
274 ,59.8763 ,1.44286 ,0.95921 ,9.41177 
275 ,60.0844 ,1.44496 ,0.93868 ,9.21030 
276 ,60.3084 ,1.44722 ,0.93183 ,9.14314 
277 ,60.5162 ,1.44928 ,0.93183 ,9.14314 
278 ,60.7405 ,1.45157 ,0.91814 ,9.00883 
279 ,60.9485 ,1.45359 ,0.91814 ,9.00883 
280 ,61.1567 ,1.45566 ,0.91472 ,8.97525 
281 ,61.3647 ,1.45788 ,0.89761 ,8.80736 
282 ,61.5886 ,1.45996 ,0.89077 ,8.74020 
283 ,61.7973 ,1.46205 ,0.89419 ,8.77378 
284 ,62.0050 ,1.46413 ,0.87366 ,8.57231 
285 ,62.1973 ,1.46617 ,0.88734 ,8.70662 
286 ,62.4054 ,1.46815 ,0.85997 ,8.43800 
287 ,62.6129 ,1.47028 ,0.87023 ,8.53873 
288 ,62.8374 ,1.47248 ,0.85654 ,8.40442 
289 ,63.0613 ,1.47474 ,0.84628 ,8.30368 
290 ,63.2855 ,1.47694 ,0.83943 ,8.23653 
291 ,63.4937 ,1.47903 ,0.83601 ,8.20295 
292 ,63.6857 ,1.48102 ,0.81548 ,8.00148 
293 ,63.8939 ,1.48308 ,0.82917 ,8.13579 
294 ,64.1180 ,1.48528 ,0.82232 ,8.06864 
295 ,64.3261 ,1.48735 ,0.81548 ,8.00148 
296 ,64.5341 ,1.48942 ,0.80863 ,7.93432 
297 ,64.7582 ,1.49166 ,0.80179 ,7.86717 
298 ,64.9822 ,1.49395 ,0.78810 ,7.73285 
299 ,65.2064 ,1.49614 ,0.77784 ,7.63212 
300 ,65.4305 ,1.49838 ,0.79152 ,7.76643 
301 ,65.6543 ,1.50063 ,0.79152 ,7.76643 
302 ,65.8785 ,1.50287 ,0.77441 ,7.59854 
303 ,66.0866 ,1.50493 ,0.77441 ,7.59854 
304 ,66.3108 ,1.50704 ,0.77441 ,7.59854 
305 ,66.5349 ,1.50944 ,0.78126 ,7.66570 
306 ,66.7269 ,1.51147 ,0.75388 ,7.39707 
307 ,66.9351 ,1.51345 ,0.77099 ,7.56496 
308 ,67.1427 ,1.51554 ,0.75388 ,7.39707 
309 ,67.3513 ,1.51762 ,0.75388 ,7.39707 
310 ,67.5751 ,1.51981 ,0.76415 ,7.49780 
311 ,67.7835 ,1.52191 ,0.75046 ,7.36349 
312 ,67.9911 ,1.52406 ,0.75046 ,7.36349 
313 ,68.1992 ,1.52605 ,0.74704 ,7.32991 
314 ,68.4237 ,1.52832 ,0.72650 ,7.12844 
315 ,68.6634 ,1.53067 ,0.72308 ,7.09486 
316 ,68.8877 ,1.53288 ,0.71624 ,7.02771 
317 ,69.0960 ,1.53504 ,0.72650 ,7.12844 
318 ,69.3196 ,1.53721 ,0.71281 ,6.99413 
319 ,69.5440 ,1.53943 ,0.71624 ,7.02771 
320 ,69.7522 ,1.54172 ,0.70597 ,6.92697 
321 ,69.9604 ,1.54368 ,0.70939 ,6.96055 
322 ,70.1685 ,1.54577 ,0.69570 ,6.82624 
323 ,70.4085 ,1.54819 ,0.69228 ,6.79266 
324 ,70.6644 ,1.55056 ,0.69913 ,6.85982 
325 ,70.8886 ,1.55292 ,0.67859 ,6.65835 
326 ,71.0969 ,1.55505 ,0.70255 ,6.89340 
327 ,71.3209 ,1.55730 ,0.67175 ,6.59119 
328 ,71.5451 ,1.55953 ,0.66148 ,6.49046 
329 ,71.7689 ,1.56173 ,0.66490 ,6.52403 
330 ,71.9771 ,1.56381 ,0.67859 ,6.65835 
331 ,72.1852 ,1.56588 ,0.65121 ,6.38972 
332 ,72.3933 ,1.56798 ,0.67517 ,6.62477 
333 ,72.6175 ,1.57024 ,0.67517 ,6.62477 
334 ,72.8414 ,1.57248 ,0.64437 ,6.32256 
335 ,73.0657 ,1.57476 ,0.64779 ,6.35614 
336 ,73.2898 ,1.57694 ,0.66148 ,6.49046 
337 ,73.5139 ,1.57919 ,0.65806 ,6.45688 
338 ,73.7219 ,1.58123 ,0.63753 ,6.25541 
339 ,73.9457 ,1.58352 ,0.64779 ,6.35614 
340 ,74.1701 ,1.58569 ,0.64779 ,6.35614 
341 ,74.3942 ,1.58804 ,0.64779 ,6.35614 
342 ,74.6025 ,1.59005 ,0.63410 ,6.22183 
343 ,74.8265 ,1.59228 ,0.62384 ,6.12109 
344 ,75.0665 ,1.59457 ,0.64437 ,6.32256 
345 ,75.2905 ,1.59694 ,0.65121 ,6.38972 
346 ,75.5147 ,1.59920 ,0.62726 ,6.15467 
347 ,75.7227 ,1.60127 ,0.62384 ,6.12109 
348 ,75.9309 ,1.60336 ,0.62042 ,6.08752 
349 ,76.1548 ,1.60556 ,0.63068 ,6.18825 
350 ,76.3630 ,1.60763 ,0.60673 ,5.95320 
351 ,76.5550 ,1.60971 ,0.61699 ,6.05394 
352 ,76.7632 ,1.61171 ,0.59646 ,5.85247 
353 ,76.9552 ,1.61372 ,0.62384 ,6.12109 
354 ,77.1789 ,1.61579 ,0.60673 ,5.95320 
355 ,77.4030 ,1.61806 ,0.58962 ,5.78531 
356 ,77.6111 ,1.62010 ,0.60330 ,5.91962 
357 ,77.8511 ,1.62249 ,0.61699 ,6.05394 
358 ,78.0752 ,1.62480 ,0.61357 ,6.02036 
359 ,78.2836 ,1.62688 ,0.58962 ,5.78531 
360 ,78.5080 ,1.62915 ,0.59988 ,5.88605 
361 ,78.7319 ,1.63137 ,0.59988 ,5.88605 
362 ,78.9241 ,1.63340 ,0.58619 ,5.75173 
363 ,79.1320 ,1.63532 ,0.59988 ,5.88605 
364 ,79.3562 ,1.63758 ,0.62726 ,6.15467 
365 ,79.5642 ,1.63969 ,0.60673 ,5.95320 
366 ,79.7562 ,1.64172 ,0.62384 ,6.12109 
367 ,79.9644 ,1.64369 ,0.60330 ,5.91962 
368 ,80.1885 ,1.64587 ,0.62384 ,6.12109 
369 ,80.3968 ,1.64801 ,0.61699 ,6.05394 
370 ,80.6204 ,1.65017 ,0.59988 ,5.88605 
371 ,80.8288 ,1.65229 ,0.62726 ,6.15467 
372 ,81.0369 ,1.65441 ,0.62384 ,6.12109 
373 ,81.2931 ,1.65698 ,0.64437 ,6.32256 
374 ,81.5172 ,1.65919 ,0.64437 ,6.32256 
375 ,81.7411 ,1.66144 ,0.61699 ,6.05394 
376 ,81.9493 ,1.66355 ,0.62726 ,6.15467 
377 ,82.1734 ,1.66580 ,0.64095 ,6.28899 
378 ,82.3975 ,1.66800 ,0.62726 ,6.15467 
379 ,82.6056 ,1.67005 ,0.62384 ,6.12109 
380 ,82.8132 ,1.67228 ,0.64095 ,6.28899 
381 ,83.0216 ,1.67428 ,0.61357 ,6.02036 
382 ,83.2458 ,1.67648 ,0.62726 ,6.15467 
383 ,83.4540 ,1.67854 ,0.62384 ,6.12109 
384 ,83.6780 ,1.68078 ,0.61699 ,6.05394 
385 ,83.8857 ,1.68286 ,0.61699 ,6.05394 
386 ,84.1101 ,1.68510 ,0.63068 ,6.18825 
387 ,84.3184 ,1.68721 ,0.62042 ,6.08752 
388 ,84.5262 ,1.68939 ,0.61699 ,6.05394 
389 ,84.7182 ,1.69129 ,0.63410 ,6.22183 
390 ,84.9264 ,1.69329 ,0.66833 ,6.55761 
391 ,85.1344 ,1.69537 ,0.66148 ,6.49046 
392 ,85.3587 ,1.69759 ,0.69570 ,6.82624 
393 ,85.5829 ,1.69986 ,0.68544 ,6.72550 
394 ,85.7907 ,1.70196 ,0.69913 ,6.85982 
395 ,86.0150 ,1.70413 ,0.69913 ,6.85982 
396 ,86.2228 ,1.70627 ,0.67175 ,6.59119 
397 ,86.4632 ,1.70852 ,0.68544 ,6.72550 
398 ,86.6874 ,1.71086 ,0.69228 ,6.79266 
399 ,86.8954 ,1.71298 ,0.68544 ,6.72550 
400 ,87.1037 ,1.71506 ,0.68544 ,6.72550 
401 ,87.2951 ,1.71707 ,0.68886 ,6.75908 
402 ,87.4873 ,1.71900 ,0.68201 ,6.69193 
403 ,87.6954 ,1.72092 ,0.68544 ,6.72550 
404 ,87.9035 ,1.72299 ,0.67859 ,6.65835 
405 ,88.1273 ,1.72529 ,0.68201 ,6.69193 
406 ,88.3355 ,1.72735 ,0.68886 ,6.75908 
407 ,88.5596 ,1.72958 ,0.67859 ,6.65835 
408 ,88.7680 ,1.73165 ,0.69570 ,6.82624 
409 ,88.9923 ,1.73379 ,0.68201 ,6.69193 
410 ,89.2165 ,1.73615 ,0.67859 ,6.65835 
411 ,89.4245 ,1.73822 ,0.68544 ,6.72550 
412 ,89.6484 ,1.74053 ,0.69913 ,6.85982 
413 ,89.8726 ,1.74273 ,0.69913 ,6.85982 
414 ,90.0805 ,1.74484 ,0.66833 ,6.55761 
415 ,90.3052 ,1.74701 ,0.69228 ,6.79266 
416 ,90.5288 ,1.74926 ,0.69570 ,6.82624 
417 ,90.7528 ,1.75162 ,0.69913 ,6.85982 
418 ,90.9610 ,1.75356 ,0.68201 ,6.69193 
419 ,91.1851 ,1.75584 ,0.70255 ,6.89340 
420 ,91.3931 ,1.75803 ,0.68886 ,6.75908 
421 ,91.6173 ,1.76003 ,0.68544 ,6.72550 
422 ,91.8251 ,1.76226 ,0.68886 ,6.75908 
423 ,92.0334 ,1.76434 ,0.68886 ,6.75908 
424 ,92.2573 ,1.76657 ,0.68201 ,6.69193 
425 ,92.4655 ,1.76864 ,0.69913 ,6.85982 
426 ,92.6735 ,1.77071 ,0.69228 ,6.79266 
427 ,92.8974 ,1.77294 ,0.68544 ,6.72550 
428 ,93.1059 ,1.77504 ,0.68544 ,6.72550 
429 ,93.3299 ,1.77724 ,0.70255 ,6.89340 
430 ,93.5540 ,1.77950 ,0.69913 ,6.85982 
431 ,93.7621 ,1.78159 ,0.67517 ,6.62477 
432 ,93.9538 ,1.78364 ,0.69913 ,6.85982 
433 ,94.1782 ,1.78580 ,0.67859 ,6.65835 
434 ,94.4024 ,1.78794 ,0.68201 ,6.69193 
435 ,94.5941 ,1.79005 ,0.69570 ,6.82624 
436 ,94.8025 ,1.79202 ,0.67175 ,6.59119 
437 ,95.0106 ,1.79411 ,0.69228 ,6.79266 
438 ,95.2184 ,1.79619 ,0.68201 ,6.69193 
439 ,95.4269 ,1.79825 ,0.69228 ,6.79266 
440 ,95.6669 ,1.80049 ,0.69913 ,6.85982 
441 ,95.8749 ,1.80272 ,0.68886 ,6.75908 
442 ,96.0987 ,1.80495 ,0.68201 ,6.69193 
443 ,96.3074 ,1.80700 ,0.68544 ,6.72550 
444 ,96.5150 ,1.80913 ,0.68201 ,6.69193 
445 ,96.7392 ,1.81139 ,0.67859 ,6.65835 
446 ,96.9472 ,1.81340 ,0.70939 ,6.96055 
447 ,97.1553 ,1.81549 ,0.68544 ,6.72550 
448 ,97.3792 ,1.81776 ,0.68544 ,6.72550 
449 ,97.5874 ,1.81980 ,0.69228 ,6.79266 
450 ,97.8118 ,1.82206 ,0.69913 ,6.85982 
451 ,98.0034 ,1.82412 ,0.67517 ,6.62477 
452 ,98.2279 ,1.82623 ,0.68544 ,6.72550 
453 ,98.4677 ,1.82853 ,0.69570 ,6.82624 
454 ,98.6762 ,1.83072 ,0.69228 ,6.79266 
455 ,98.8999 ,1.83299 ,0.67517 ,6.62477 
456 ,99.1081 ,1.83499 ,0.69570 ,6.82624 
457 ,99.3325 ,1.83726 ,0.69570 ,6.82624 
458 ,99.5401 ,1.83935 ,0.67175 ,6.59119 
459 ,99.7643 ,1.84153 ,0.68886 ,6.75908 
460 ,99.9885 ,1.84378 ,0.70255 ,6.89340 
461 ,100.2127 ,1.84601 ,0.69913 ,6.85982 
462 ,100.4209 ,1.84822 ,0.68544 ,6.72550 
463 ,100.6446 ,1.85038 ,0.68544 ,6.72550 
464 ,100.8690 ,1.85260 ,0.69570 ,6.82624 
465 ,101.0931 ,1.85484 ,0.69228 ,6.79266 
466 ,101.3171 ,1.85710 ,0.68544 ,6.72550 
467 ,101.5250 ,1.85917 ,0.69228 ,6.79266 
468 ,101.7491 ,1.86143 ,0.69913 ,6.85982 
