Data stamp = , 02-06-2022 16:45:34 515

Calibration Values: 
Slope = , 26.54 , g/V 
Offset Voltage at no contact = , -0.501760 , V 

No , Time , Stage Position ,   Mass , Force 
   ,  (s) ,      (mm)      ,   (g)  , (mN)  

1 ,0.0000 ,0.84958 ,5.37723 ,52.76135 
2 ,0.2206 ,0.84968 ,5.36354 ,52.62704 
3 ,0.7972 ,0.85156 ,5.37381 ,52.72778 
4 ,1.0210 ,0.85454 ,5.36354 ,52.62704 
5 ,1.2453 ,0.85665 ,5.38065 ,52.79493 
6 ,1.4692 ,0.85897 ,5.37381 ,52.72778 
7 ,1.6931 ,0.86124 ,5.37038 ,52.69420 
8 ,1.9013 ,0.86334 ,5.31563 ,52.15694 
9 ,2.1257 ,0.86563 ,5.30878 ,52.08979 
10 ,2.3497 ,0.86781 ,5.29852 ,51.98905 
11 ,2.5739 ,0.87000 ,5.26087 ,51.61969 
12 ,2.8135 ,0.87232 ,5.23007 ,51.31749 
13 ,3.0383 ,0.87465 ,5.20270 ,51.04886 
14 ,3.2620 ,0.87689 ,5.18901 ,50.91455 
15 ,3.4700 ,0.87899 ,5.19243 ,50.94813 
16 ,3.6783 ,0.88108 ,5.15136 ,50.54519 
17 ,3.9981 ,0.88372 ,5.12741 ,50.31014 
18 ,4.2067 ,0.88635 ,5.10003 ,50.04151 
19 ,4.4144 ,0.88841 ,5.08292 ,49.87362 
20 ,4.6228 ,0.89052 ,5.05554 ,49.60499 
21 ,4.8311 ,0.89262 ,5.03843 ,49.43710 
22 ,5.0545 ,0.89490 ,5.00763 ,49.13490 
23 ,5.2950 ,0.89711 ,4.99052 ,48.96701 
24 ,5.5352 ,0.89966 ,4.97341 ,48.79911 
25 ,5.7591 ,0.90191 ,4.94603 ,48.53049 
26 ,5.9833 ,0.90411 ,4.91523 ,48.22828 
27 ,6.2069 ,0.90641 ,4.90497 ,48.12755 
28 ,6.4152 ,0.90848 ,4.88444 ,47.92608 
29 ,6.6235 ,0.91055 ,4.84679 ,47.55672 
30 ,6.8316 ,0.91256 ,4.85364 ,47.62387 
31 ,7.0557 ,0.91488 ,4.82626 ,47.35525 
32 ,7.2794 ,0.91707 ,4.77835 ,46.88515 
33 ,7.5038 ,0.91940 ,4.76808 ,46.78442 
34 ,7.7280 ,0.92160 ,4.75097 ,46.61653 
35 ,7.9361 ,0.92367 ,4.73044 ,46.41506 
36 ,8.1441 ,0.92568 ,4.69964 ,46.11285 
37 ,8.3523 ,0.92779 ,4.70306 ,46.14643 
38 ,8.5764 ,0.93005 ,4.66884 ,45.81065 
39 ,8.8003 ,0.93230 ,4.64488 ,45.57560 
40 ,9.0085 ,0.93435 ,4.62435 ,45.37413 
41 ,9.2166 ,0.93645 ,4.61751 ,45.30697 
42 ,9.4247 ,0.93849 ,4.57986 ,44.93761 
43 ,9.6329 ,0.94059 ,4.58671 ,45.00477 
44 ,9.8570 ,0.94282 ,4.55591 ,44.70256 
45 ,10.0806 ,0.94509 ,4.52511 ,44.40036 
46 ,10.2891 ,0.94713 ,4.51142 ,44.26604 
47 ,10.4971 ,0.94925 ,4.49089 ,44.06457 
48 ,10.7052 ,0.95127 ,4.46351 ,43.79595 
49 ,10.9132 ,0.95337 ,4.46351 ,43.79595 
50 ,11.1211 ,0.95557 ,4.43271 ,43.49374 
51 ,11.3454 ,0.95772 ,4.41560 ,43.32585 
52 ,11.5536 ,0.95976 ,4.41560 ,43.32585 
53 ,11.7772 ,0.96206 ,4.36427 ,42.82218 
54 ,11.9696 ,0.96407 ,4.34373 ,42.62071 
55 ,12.1778 ,0.96607 ,4.33347 ,42.51997 
56 ,12.3859 ,0.96809 ,4.30951 ,42.28492 
57 ,12.6259 ,0.97041 ,4.29924 ,42.18419 
58 ,12.8497 ,0.97269 ,4.28213 ,42.01630 
59 ,13.0581 ,0.97487 ,4.26845 ,41.88198 
60 ,13.2823 ,0.97707 ,4.22738 ,41.47905 
61 ,13.5065 ,0.97935 ,4.21027 ,41.31115 
62 ,13.7306 ,0.98158 ,4.20342 ,41.24400 
63 ,13.9383 ,0.98368 ,4.16920 ,40.90821 
64 ,14.1625 ,0.98598 ,4.14867 ,40.70674 
65 ,14.3868 ,0.98808 ,4.12129 ,40.43812 
66 ,14.6106 ,0.99039 ,4.11787 ,40.40454 
67 ,14.8350 ,0.99255 ,4.10076 ,40.23665 
68 ,15.0747 ,0.99497 ,4.08023 ,40.03518 
69 ,15.3151 ,0.99730 ,4.04258 ,39.66582 
70 ,15.5392 ,0.99966 ,4.02889 ,39.53150 
71 ,15.7472 ,1.00169 ,4.00152 ,39.26288 
72 ,15.9709 ,1.00401 ,4.00152 ,39.26288 
73 ,16.1792 ,1.00606 ,3.97072 ,38.96067 
74 ,16.4036 ,1.00829 ,3.92965 ,38.55773 
75 ,16.6275 ,1.01057 ,3.91938 ,38.45700 
76 ,16.8359 ,1.01259 ,3.91938 ,38.45700 
77 ,17.0437 ,1.01478 ,3.89543 ,38.22195 
78 ,17.2519 ,1.01675 ,3.87147 ,37.98690 
79 ,17.4919 ,1.01918 ,3.85779 ,37.85259 
80 ,17.7159 ,1.02141 ,3.83041 ,37.58396 
81 ,17.9403 ,1.02367 ,3.80645 ,37.34891 
82 ,18.1643 ,1.02593 ,3.77908 ,37.08029 
83 ,18.3884 ,1.02813 ,3.77223 ,37.01313 
84 ,18.6125 ,1.03040 ,3.75854 ,36.87882 
85 ,18.8365 ,1.03262 ,3.74828 ,36.77808 
86 ,19.0444 ,1.03470 ,3.70379 ,36.34157 
87 ,19.2525 ,1.03673 ,3.69694 ,36.27441 
88 ,19.4608 ,1.03886 ,3.69010 ,36.20725 
89 ,19.6688 ,1.04097 ,3.65930 ,35.90505 
90 ,19.8930 ,1.04320 ,3.64561 ,35.77073 
91 ,20.1011 ,1.04523 ,3.61481 ,35.46853 
92 ,20.3253 ,1.04747 ,3.58059 ,35.13275 
93 ,20.5331 ,1.04957 ,3.59428 ,35.26706 
94 ,20.7410 ,1.05164 ,3.55663 ,34.89770 
95 ,20.9495 ,1.05373 ,3.53610 ,34.69623 
96 ,21.1735 ,1.05601 ,3.53610 ,34.69623 
97 ,21.4137 ,1.05827 ,3.50530 ,34.39402 
98 ,21.6217 ,1.06046 ,3.48135 ,34.15898 
99 ,21.8295 ,1.06257 ,3.45739 ,33.92393 
100 ,22.0381 ,1.06466 ,3.45397 ,33.89035 
101 ,22.2620 ,1.06684 ,3.41975 ,33.55457 
102 ,22.4539 ,1.06887 ,3.40264 ,33.38667 
103 ,22.6621 ,1.07082 ,3.38895 ,33.25236 
104 ,22.8701 ,1.07289 ,3.37184 ,33.08447 
105 ,23.1264 ,1.07541 ,3.34788 ,32.84942 
106 ,23.3502 ,1.07769 ,3.32393 ,32.61437 
107 ,23.5586 ,1.07976 ,3.32051 ,32.58080 
108 ,23.7664 ,1.08200 ,3.27944 ,32.17786 
109 ,23.9748 ,1.08394 ,3.29313 ,32.31217 
110 ,24.1987 ,1.08623 ,3.26233 ,32.00996 
111 ,24.4228 ,1.08842 ,3.23837 ,31.77492 
112 ,24.6307 ,1.09049 ,3.22126 ,31.60702 
113 ,24.8551 ,1.09279 ,3.21100 ,31.50629 
114 ,25.0471 ,1.09481 ,3.16993 ,31.10335 
115 ,25.2550 ,1.09677 ,3.18362 ,31.23766 
116 ,25.4949 ,1.09910 ,3.14597 ,30.86830 
117 ,25.7030 ,1.10123 ,3.12202 ,30.63325 
118 ,25.8949 ,1.10327 ,3.11518 ,30.56610 
119 ,26.1035 ,1.10529 ,3.08438 ,30.26389 
120 ,26.3272 ,1.10745 ,3.06384 ,30.06242 
121 ,26.5516 ,1.10981 ,3.06384 ,30.06242 
122 ,26.7758 ,1.11195 ,3.05700 ,29.99527 
123 ,26.9836 ,1.11404 ,3.01935 ,29.62590 
124 ,27.1759 ,1.11612 ,3.00909 ,29.52517 
125 ,27.3676 ,1.11802 ,2.98513 ,29.29012 
126 ,27.5920 ,1.12013 ,2.97144 ,29.15581 
127 ,27.8000 ,1.12219 ,2.95433 ,28.98792 
128 ,28.0081 ,1.12439 ,2.92696 ,28.71929 
129 ,28.2163 ,1.12633 ,2.93038 ,28.75287 
130 ,28.4242 ,1.12840 ,2.89958 ,28.45066 
131 ,28.6483 ,1.13073 ,2.86536 ,28.11488 
132 ,28.8565 ,1.13277 ,2.87220 ,28.18204 
133 ,29.0326 ,1.13472 ,2.84140 ,27.87983 
134 ,29.2409 ,1.13662 ,2.83114 ,27.77910 
135 ,29.4489 ,1.13870 ,2.80718 ,27.54405 
136 ,29.6405 ,1.14065 ,2.80376 ,27.51047 
137 ,29.8491 ,1.14268 ,2.78322 ,27.30900 
138 ,30.0732 ,1.14494 ,2.75927 ,27.07395 
139 ,30.2973 ,1.14718 ,2.76269 ,27.10753 
140 ,30.5373 ,1.14944 ,2.71478 ,26.63744 
141 ,30.7449 ,1.15178 ,2.69425 ,26.43597 
142 ,30.9535 ,1.15368 ,2.69083 ,26.40239 
143 ,31.1613 ,1.15584 ,2.67029 ,26.20092 
144 ,31.3693 ,1.15787 ,2.64634 ,25.96587 
145 ,31.5776 ,1.16003 ,2.63949 ,25.89871 
146 ,31.7855 ,1.16209 ,2.60185 ,25.52935 
147 ,32.0099 ,1.16432 ,2.59501 ,25.46220 
148 ,32.2181 ,1.16634 ,2.59843 ,25.49577 
149 ,32.4262 ,1.16845 ,2.55736 ,25.09283 
150 ,32.6503 ,1.17065 ,2.54710 ,24.99210 
151 ,32.8583 ,1.17276 ,2.53341 ,24.85779 
152 ,33.0984 ,1.17508 ,2.50603 ,24.58916 
153 ,33.3225 ,1.17746 ,2.49576 ,24.48842 
154 ,33.5465 ,1.17963 ,2.47865 ,24.32053 
155 ,33.7386 ,1.18171 ,2.46154 ,24.15264 
156 ,33.9467 ,1.18367 ,2.44443 ,23.98475 
157 ,34.1548 ,1.18588 ,2.43759 ,23.91759 
158 ,34.3629 ,1.18779 ,2.42048 ,23.74970 
159 ,34.5867 ,1.19007 ,2.37941 ,23.34676 
160 ,34.7951 ,1.19215 ,2.36572 ,23.21245 
161 ,35.0191 ,1.19435 ,2.36572 ,23.21245 
162 ,35.2433 ,1.19658 ,2.33834 ,22.94382 
163 ,35.4512 ,1.19864 ,2.30754 ,22.64162 
164 ,35.6593 ,1.20072 ,2.31097 ,22.67520 
165 ,35.8836 ,1.20305 ,2.28359 ,22.40657 
166 ,36.1077 ,1.20530 ,2.24594 ,22.03721 
167 ,36.3153 ,1.20742 ,2.23226 ,21.90290 
168 ,36.5239 ,1.20945 ,2.23226 ,21.90290 
169 ,36.7480 ,1.21164 ,2.20488 ,21.63427 
170 ,36.9560 ,1.21377 ,2.19803 ,21.56711 
171 ,37.1640 ,1.21579 ,2.18435 ,21.43280 
172 ,37.3878 ,1.21808 ,2.14670 ,21.06344 
173 ,37.6122 ,1.22028 ,2.14670 ,21.06344 
174 ,37.8363 ,1.22251 ,2.12959 ,20.89555 
175 ,38.0764 ,1.22474 ,2.11590 ,20.76123 
176 ,38.2843 ,1.22707 ,2.09195 ,20.52619 
177 ,38.4924 ,1.22913 ,2.07141 ,20.32472 
178 ,38.7324 ,1.23147 ,2.05430 ,20.15682 
179 ,38.9407 ,1.23357 ,2.03035 ,19.92178 
180 ,39.1490 ,1.23563 ,2.00982 ,19.72031 
181 ,39.3731 ,1.23790 ,1.99613 ,19.58599 
182 ,39.5972 ,1.24018 ,1.98586 ,19.48526 
183 ,39.8211 ,1.24245 ,1.96190 ,19.25021 
184 ,40.0451 ,1.24462 ,1.93453 ,18.98158 
185 ,40.2695 ,1.24687 ,1.93111 ,18.94801 
186 ,40.4777 ,1.24897 ,1.92084 ,18.84727 
187 ,40.6855 ,1.25105 ,1.90031 ,18.64580 
188 ,40.9256 ,1.25341 ,1.87977 ,18.44433 
189 ,41.1497 ,1.25566 ,1.85582 ,18.20928 
190 ,41.3739 ,1.25793 ,1.83528 ,18.00781 
191 ,41.5978 ,1.26003 ,1.84555 ,18.10855 
192 ,41.8381 ,1.26245 ,1.81817 ,17.83992 
193 ,42.0620 ,1.26475 ,1.80106 ,17.67203 
194 ,42.2701 ,1.26683 ,1.77026 ,17.36983 
195 ,42.4784 ,1.26893 ,1.77026 ,17.36983 
196 ,42.7184 ,1.27122 ,1.74631 ,17.13478 
197 ,42.9266 ,1.27347 ,1.72578 ,16.93331 
198 ,43.1346 ,1.27554 ,1.71209 ,16.79899 
199 ,43.3586 ,1.27778 ,1.69840 ,16.66468 
200 ,43.5668 ,1.27981 ,1.67786 ,16.46321 
201 ,43.7749 ,1.28191 ,1.65391 ,16.22816 
202 ,43.9829 ,1.28398 ,1.64707 ,16.16101 
203 ,44.2070 ,1.28626 ,1.61627 ,15.85880 
204 ,44.4152 ,1.28832 ,1.61627 ,15.85880 
205 ,44.6393 ,1.29051 ,1.59916 ,15.69091 
206 ,44.8473 ,1.29263 ,1.57178 ,15.42228 
207 ,45.0711 ,1.29486 ,1.54098 ,15.12008 
208 ,45.2952 ,1.29706 ,1.54098 ,15.12008 
209 ,45.5036 ,1.29913 ,1.52045 ,14.91861 
210 ,45.7116 ,1.30126 ,1.51018 ,14.81787 
211 ,45.9358 ,1.30352 ,1.48280 ,14.54925 
212 ,46.1438 ,1.30553 ,1.48622 ,14.58283 
213 ,46.3515 ,1.30765 ,1.45542 ,14.28062 
214 ,46.5760 ,1.30988 ,1.43831 ,14.11273 
215 ,46.7998 ,1.31215 ,1.43147 ,14.04557 
216 ,47.0239 ,1.31429 ,1.40409 ,13.77695 
217 ,47.2482 ,1.31658 ,1.38698 ,13.60906 
218 ,47.4559 ,1.31869 ,1.38698 ,13.60906 
219 ,47.6805 ,1.32092 ,1.36303 ,13.37401 
220 ,47.9045 ,1.32314 ,1.34249 ,13.17254 
221 ,48.1287 ,1.32540 ,1.32196 ,12.97107 
222 ,48.3527 ,1.32769 ,1.30143 ,12.76960 
223 ,48.5605 ,1.32973 ,1.30827 ,12.83675 
224 ,48.7849 ,1.33205 ,1.27747 ,12.53455 
225 ,49.0089 ,1.33425 ,1.26036 ,12.36666 
226 ,49.2651 ,1.33658 ,1.24325 ,12.19877 
227 ,49.4891 ,1.33898 ,1.21929 ,11.96372 
228 ,49.6968 ,1.34104 ,1.21587 ,11.93014 
229 ,49.9368 ,1.34346 ,1.18850 ,11.66151 
230 ,50.1450 ,1.34563 ,1.18850 ,11.66151 
231 ,50.3535 ,1.34766 ,1.15770 ,11.35931 
232 ,50.5776 ,1.34990 ,1.15085 ,11.29215 
233 ,50.7856 ,1.35200 ,1.14058 ,11.19142 
234 ,51.0095 ,1.35420 ,1.11663 ,10.95637 
235 ,51.2338 ,1.35639 ,1.08583 ,10.65416 
236 ,51.4580 ,1.35872 ,1.08583 ,10.65416 
237 ,51.6820 ,1.36093 ,1.07556 ,10.55343 
238 ,51.9061 ,1.36322 ,1.05503 ,10.35196 
239 ,52.1142 ,1.36532 ,1.02765 ,10.08333 
240 ,52.3222 ,1.36732 ,1.03792 ,10.18407 
241 ,52.5304 ,1.36942 ,1.00370 ,9.84829 
242 ,52.7385 ,1.37150 ,0.98317 ,9.64682 
243 ,52.9465 ,1.37363 ,0.99685 ,9.78113 
244 ,53.1541 ,1.37569 ,0.95921 ,9.41177 
245 ,53.3626 ,1.37773 ,0.96948 ,9.51250 
246 ,53.5704 ,1.37982 ,0.94210 ,9.24388 
247 ,53.7789 ,1.38187 ,0.93525 ,9.17672 
248 ,53.9870 ,1.38402 ,0.91814 ,9.00883 
249 ,54.2106 ,1.38622 ,0.92157 ,9.04241 
250 ,54.4348 ,1.38848 ,1.18165 ,11.59436 
251 ,54.6747 ,1.39090 ,1.19534 ,11.72867 
252 ,54.8988 ,1.39306 ,1.18850 ,11.66151 
253 ,55.1231 ,1.39533 ,1.19876 ,11.76225 
254 ,55.3791 ,1.39787 ,1.18507 ,11.62794 
255 ,55.5876 ,1.40000 ,1.17823 ,11.56078 
256 ,55.7955 ,1.40207 ,1.14743 ,11.25857 
257 ,56.0038 ,1.40418 ,1.17138 ,11.49362 
258 ,56.1959 ,1.40621 ,1.13032 ,11.09068 
259 ,56.4040 ,1.40813 ,1.16112 ,11.39289 
260 ,56.6439 ,1.41043 ,1.13032 ,11.09068 
261 ,56.8682 ,1.41282 ,1.12690 ,11.05710 
262 ,57.0763 ,1.41491 ,1.10636 ,10.85563 
263 ,57.2683 ,1.41693 ,1.10294 ,10.82206 
264 ,57.4925 ,1.41900 ,1.07214 ,10.51985 
265 ,57.7164 ,1.42118 ,1.09610 ,10.75490 
266 ,57.9408 ,1.42349 ,1.07214 ,10.51985 
267 ,58.1487 ,1.42565 ,1.07214 ,10.51985 
268 ,58.3569 ,1.42766 ,1.05503 ,10.35196 
269 ,58.5808 ,1.42992 ,1.04819 ,10.28480 
270 ,58.7890 ,1.43196 ,1.03792 ,10.18407 
271 ,58.9972 ,1.43406 ,1.02423 ,10.04976 
272 ,59.1892 ,1.43610 ,1.03792 ,10.18407 
273 ,59.3972 ,1.43807 ,1.01054 ,9.91544 
274 ,59.6053 ,1.44009 ,1.00712 ,9.88186 
275 ,59.8130 ,1.44221 ,1.00028 ,9.81471 
276 ,60.0536 ,1.44450 ,0.98659 ,9.68039 
277 ,60.2776 ,1.44689 ,0.97632 ,9.57966 
278 ,60.4857 ,1.44897 ,0.98659 ,9.68039 
279 ,60.7096 ,1.45117 ,0.97974 ,9.61324 
280 ,60.9173 ,1.45340 ,0.96605 ,9.47892 
281 ,61.1422 ,1.45552 ,0.95579 ,9.37819 
282 ,61.3660 ,1.45769 ,0.95579 ,9.37819 
283 ,61.6062 ,1.46000 ,0.93868 ,9.21030 
284 ,61.8301 ,1.46240 ,0.92841 ,9.10956 
285 ,62.0379 ,1.46441 ,0.91130 ,8.94167 
286 ,62.2624 ,1.46675 ,0.92499 ,9.07598 
287 ,62.4866 ,1.46894 ,0.91814 ,9.00883 
288 ,62.6785 ,1.47101 ,0.89761 ,8.80736 
289 ,62.8867 ,1.47292 ,0.90103 ,8.84094 
290 ,63.1104 ,1.47519 ,0.89419 ,8.77378 
291 ,63.3349 ,1.47741 ,0.88050 ,8.63947 
292 ,63.5590 ,1.47965 ,0.86681 ,8.50515 
293 ,63.7831 ,1.48185 ,0.86339 ,8.47158 
294 ,63.9910 ,1.48398 ,0.86339 ,8.47158 
295 ,64.2153 ,1.48624 ,0.84970 ,8.33726 
296 ,64.4393 ,1.48850 ,0.86681 ,8.50515 
297 ,64.6633 ,1.49070 ,0.84628 ,8.30368 
298 ,64.8715 ,1.49277 ,0.84286 ,8.27011 
299 ,65.0957 ,1.49507 ,0.82575 ,8.10221 
300 ,65.3037 ,1.49716 ,0.84628 ,8.30368 
301 ,65.5436 ,1.49946 ,0.84286 ,8.27011 
302 ,65.7678 ,1.50175 ,0.83259 ,8.16937 
303 ,65.9919 ,1.50399 ,0.82232 ,8.06864 
304 ,66.1998 ,1.50606 ,0.80179 ,7.86717 
305 ,66.4242 ,1.50835 ,0.81206 ,7.96790 
306 ,66.6320 ,1.51039 ,0.79837 ,7.83359 
307 ,66.8403 ,1.51245 ,0.79152 ,7.76643 
308 ,67.0643 ,1.51466 ,0.78810 ,7.73285 
309 ,67.2724 ,1.51681 ,0.79837 ,7.83359 
310 ,67.4967 ,1.51905 ,0.78468 ,7.69927 
311 ,67.6883 ,1.52108 ,0.77784 ,7.63212 
312 ,67.8968 ,1.52301 ,0.77099 ,7.56496 
313 ,68.1206 ,1.52524 ,0.78468 ,7.69927 
314 ,68.3448 ,1.52753 ,0.76072 ,7.46423 
315 ,68.5529 ,1.52956 ,0.75730 ,7.43065 
316 ,68.7766 ,1.53179 ,0.74704 ,7.32991 
317 ,68.9848 ,1.53402 ,0.74361 ,7.29633 
318 ,69.1931 ,1.53607 ,0.75388 ,7.39707 
319 ,69.4012 ,1.53807 ,0.74361 ,7.29633 
320 ,69.6095 ,1.54017 ,0.75046 ,7.36349 
321 ,69.8173 ,1.54227 ,0.73677 ,7.22918 
322 ,70.0419 ,1.54447 ,0.72992 ,7.16202 
323 ,70.2816 ,1.54677 ,0.73335 ,7.19560 
324 ,70.5058 ,1.54913 ,0.73335 ,7.19560 
325 ,70.7139 ,1.55119 ,0.72650 ,7.12844 
326 ,70.9378 ,1.55345 ,0.71966 ,7.06129 
327 ,71.1778 ,1.55581 ,0.70939 ,6.96055 
328 ,71.4021 ,1.55805 ,0.70939 ,6.96055 
329 ,71.6583 ,1.56078 ,0.71281 ,6.99413 
330 ,71.8663 ,1.56270 ,0.70597 ,6.92697 
331 ,72.0901 ,1.56493 ,0.71966 ,7.06129 
332 ,72.3146 ,1.56719 ,0.70597 ,6.92697 
333 ,72.5387 ,1.56941 ,0.70255 ,6.89340 
334 ,72.7468 ,1.57152 ,0.71281 ,6.99413 
335 ,72.9709 ,1.57371 ,0.69570 ,6.82624 
336 ,73.1945 ,1.57603 ,0.68201 ,6.69193 
337 ,73.4351 ,1.57827 ,0.68201 ,6.69193 
338 ,73.6588 ,1.58068 ,0.67859 ,6.65835 
339 ,73.8672 ,1.58272 ,0.68201 ,6.69193 
340 ,74.0753 ,1.58483 ,0.67175 ,6.59119 
341 ,74.2830 ,1.58686 ,0.67517 ,6.62477 
342 ,74.5232 ,1.58917 ,0.67517 ,6.62477 
343 ,74.7315 ,1.59136 ,0.66833 ,6.55761 
344 ,74.9556 ,1.59359 ,0.67517 ,6.62477 
345 ,75.1633 ,1.59570 ,0.66833 ,6.55761 
346 ,75.3717 ,1.59770 ,0.67175 ,6.59119 
347 ,75.6118 ,1.60018 ,0.65121 ,6.38972 
348 ,75.8362 ,1.60239 ,0.64779 ,6.35614 
349 ,76.0280 ,1.60446 ,0.65121 ,6.38972 
350 ,76.2362 ,1.60640 ,0.65121 ,6.38972 
351 ,76.4600 ,1.60865 ,0.63068 ,6.18825 
352 ,76.6684 ,1.61072 ,0.65806 ,6.45688 
353 ,76.8925 ,1.61290 ,0.65464 ,6.42330 
354 ,77.1163 ,1.61522 ,0.63068 ,6.18825 
355 ,77.3085 ,1.61726 ,0.62726 ,6.15467 
356 ,77.5164 ,1.61923 ,0.61699 ,6.05394 
357 ,77.7244 ,1.62124 ,0.62384 ,6.12109 
358 ,77.9329 ,1.62331 ,0.66490 ,6.52403 
359 ,78.1570 ,1.62560 ,0.65464 ,6.42330 
360 ,78.3652 ,1.62764 ,0.65806 ,6.45688 
361 ,78.5891 ,1.62997 ,0.65121 ,6.38972 
362 ,78.7968 ,1.63200 ,0.64437 ,6.32256 
363 ,79.0212 ,1.63427 ,0.63068 ,6.18825 
364 ,79.2452 ,1.63643 ,0.63753 ,6.25541 
365 ,79.4536 ,1.63856 ,0.65121 ,6.38972 
366 ,79.6775 ,1.64084 ,0.63410 ,6.22183 
367 ,79.9017 ,1.64303 ,0.63410 ,6.22183 
368 ,80.1257 ,1.64523 ,0.63753 ,6.25541 
369 ,80.3499 ,1.64748 ,0.64779 ,6.35614 
370 ,80.5579 ,1.64962 ,0.63068 ,6.18825 
371 ,80.7821 ,1.65178 ,0.61699 ,6.05394 
372 ,80.9901 ,1.65387 ,0.65464 ,6.42330 
373 ,81.2299 ,1.65629 ,0.64779 ,6.35614 
374 ,81.4382 ,1.65838 ,0.63410 ,6.22183 
375 ,81.6465 ,1.66049 ,0.64095 ,6.28899 
376 ,81.8705 ,1.66275 ,0.64095 ,6.28899 
377 ,82.0784 ,1.66479 ,0.64779 ,6.35614 
378 ,82.2867 ,1.66686 ,0.63753 ,6.25541 
379 ,82.5428 ,1.66943 ,0.63068 ,6.18825 
380 ,82.7509 ,1.67151 ,0.65806 ,6.45688 
381 ,82.9589 ,1.67373 ,0.64779 ,6.35614 
382 ,83.1670 ,1.67568 ,0.64437 ,6.32256 
383 ,83.3909 ,1.67792 ,0.64779 ,6.35614 
384 ,83.5994 ,1.67995 ,0.64095 ,6.28899 
385 ,83.8073 ,1.68208 ,0.65121 ,6.38972 
386 ,84.0154 ,1.68416 ,0.64779 ,6.35614 
387 ,84.2074 ,1.68619 ,0.63410 ,6.22183 
388 ,84.4151 ,1.68813 ,0.64437 ,6.32256 
389 ,84.6398 ,1.69036 ,0.63753 ,6.25541 
390 ,84.8634 ,1.69263 ,0.63410 ,6.22183 
391 ,85.0718 ,1.69467 ,0.68201 ,6.69193 
392 ,85.2957 ,1.69683 ,0.68886 ,6.75908 
393 ,85.5358 ,1.69936 ,0.70255 ,6.89340 
394 ,85.7596 ,1.70157 ,0.70255 ,6.89340 
395 ,85.9678 ,1.70366 ,0.69913 ,6.85982 
396 ,86.1758 ,1.70575 ,0.71624 ,7.02771 
397 ,86.3842 ,1.70783 ,0.69570 ,6.82624 
398 ,86.5925 ,1.70989 ,0.71966 ,7.06129 
399 ,86.8165 ,1.71213 ,0.69228 ,6.79266 
400 ,87.0407 ,1.71432 ,0.70597 ,6.92697 
401 ,87.2488 ,1.71652 ,0.71281 ,6.99413 
402 ,87.4725 ,1.71869 ,0.71281 ,6.99413 
403 ,87.6808 ,1.72078 ,0.69913 ,6.85982 
404 ,87.9049 ,1.72305 ,0.69913 ,6.85982 
405 ,88.1452 ,1.72532 ,0.71624 ,7.02771 
406 ,88.3691 ,1.72767 ,0.69913 ,6.85982 
407 ,88.5773 ,1.72977 ,0.70597 ,6.92697 
408 ,88.8334 ,1.73216 ,0.69913 ,6.85982 
409 ,89.0731 ,1.73467 ,0.70255 ,6.89340 
410 ,89.2975 ,1.73695 ,0.70597 ,6.92697 
411 ,89.5056 ,1.73902 ,0.69570 ,6.82624 
412 ,89.7296 ,1.74130 ,0.70939 ,6.96055 
413 ,89.9379 ,1.74335 ,0.70597 ,6.92697 
414 ,90.1618 ,1.74563 ,0.70255 ,6.89340 
415 ,90.3859 ,1.74781 ,0.69913 ,6.85982 
416 ,90.5779 ,1.74987 ,0.71624 ,7.02771 
417 ,90.8022 ,1.75195 ,0.70255 ,6.89340 
418 ,91.0262 ,1.75426 ,0.70939 ,6.96055 
419 ,91.2344 ,1.75631 ,0.70939 ,6.96055 
420 ,91.4583 ,1.75856 ,0.70255 ,6.89340 
421 ,91.6985 ,1.76083 ,0.68886 ,6.75908 
422 ,91.9065 ,1.76305 ,0.69913 ,6.85982 
423 ,92.1306 ,1.76526 ,0.71624 ,7.02771 
424 ,92.3548 ,1.76751 ,0.70939 ,6.96055 
425 ,92.5464 ,1.76956 ,0.69228 ,6.79266 
426 ,92.7869 ,1.77185 ,0.71966 ,7.06129 
427 ,92.9951 ,1.77392 ,0.70939 ,6.96055 
428 ,93.2352 ,1.77625 ,0.70255 ,6.89340 
429 ,93.4592 ,1.77851 ,0.69913 ,6.85982 
430 ,93.6674 ,1.78062 ,0.70597 ,6.92697 
431 ,93.8755 ,1.78275 ,0.70939 ,6.96055 
432 ,94.0992 ,1.78494 ,0.70255 ,6.89340 
433 ,94.3077 ,1.78702 ,0.70939 ,6.96055 
434 ,94.5154 ,1.78914 ,0.71624 ,7.02771 
435 ,94.7238 ,1.79116 ,0.69913 ,6.85982 
436 ,94.9319 ,1.79327 ,0.70939 ,6.96055 
437 ,95.1561 ,1.79550 ,0.71966 ,7.06129 
438 ,95.3640 ,1.79765 ,0.69570 ,6.82624 
439 ,95.5878 ,1.79982 ,0.70255 ,6.89340 
440 ,95.7802 ,1.80187 ,0.71966 ,7.06129 
441 ,96.0043 ,1.80392 ,0.70597 ,6.92697 
442 ,96.2124 ,1.80613 ,0.73335 ,7.19560 
443 ,96.4202 ,1.80811 ,0.70597 ,6.92697 
444 ,96.6443 ,1.81034 ,0.69228 ,6.79266 
445 ,96.8687 ,1.81260 ,0.69913 ,6.85982 
446 ,97.0768 ,1.81476 ,0.71281 ,6.99413 
447 ,97.3008 ,1.81695 ,0.69913 ,6.85982 
448 ,97.5090 ,1.81903 ,0.69913 ,6.85982 
449 ,97.7166 ,1.82116 ,0.70939 ,6.96055 
450 ,97.9410 ,1.82332 ,0.68886 ,6.75908 
451 ,98.1653 ,1.82556 ,0.69228 ,6.79266 
452 ,98.3735 ,1.82770 ,0.70597 ,6.92697 
453 ,98.5974 ,1.82989 ,0.70597 ,6.92697 
454 ,98.8055 ,1.83196 ,0.68201 ,6.69193 
455 ,99.0295 ,1.83426 ,0.71281 ,6.99413 
456 ,99.2536 ,1.83646 ,0.70939 ,6.96055 
457 ,99.4618 ,1.83852 ,0.69228 ,6.79266 
458 ,99.6700 ,1.84067 ,0.68544 ,6.72550 
459 ,99.8937 ,1.84280 ,0.73335 ,7.19560 
460 ,100.0860 ,1.84489 ,0.68201 ,6.69193 
461 ,100.2943 ,1.84685 ,0.71281 ,6.99413 
462 ,100.5023 ,1.84891 ,0.71281 ,6.99413 
463 ,100.7102 ,1.85105 ,0.71281 ,6.99413 
464 ,100.9184 ,1.85309 ,0.70255 ,6.89340 
465 ,101.1421 ,1.85535 ,0.70255 ,6.89340 
466 ,101.3345 ,1.85741 ,0.69913 ,6.85982 
467 ,101.5586 ,1.85952 ,0.71281 ,6.99413 
