Point No.,Normal Force [N],Gap [mm],Time [s]
1,4.295013,11.1950,376.5700
2,4.295381,11.1950,376.5800
3,4.295990,11.1950,376.5900
4,4.296898,11.1953,376.6000
5,4.293873,11.1960,376.6100
6,4.288045,11.1963,376.6200
7,4.281053,11.1966,376.6300
8,4.274138,11.1972,376.6400
9,4.267613,11.1978,376.6490
10,4.261078,11.1981,376.6590
11,4.254606,11.1988,376.6690
12,4.251424,11.1988,376.6790
13,4.249025,11.1994,376.6890
14,4.243957,11.2000,376.6990
15,4.236147,11.2006,376.7090
16,4.227775,11.2006,376.7200
17,4.222241,11.2016,376.7300
18,4.217309,11.2022,376.7400
19,4.211155,11.2028,376.7500
20,4.204144,11.2031,376.7600
21,4.200013,11.2034,376.7700
22,4.195886,11.2037,376.7800
23,4.193144,11.2040,376.7900
24,4.189316,11.2047,376.8000
25,4.181450,11.2053,376.8100
26,4.173240,11.2059,376.8200
27,4.166702,11.2065,376.8300
28,4.161573,11.2071,376.8400
29,4.155132,11.2078,376.8500
30,4.148530,11.2081,376.8590
31,4.145348,11.2081,376.8690
32,4.143425,11.2087,376.8790
33,4.139359,11.2087,376.8890
34,4.133266,11.2093,376.8990
35,4.128080,11.2099,376.9090
36,4.122105,11.2106,376.9190
37,4.115988,11.2112,376.9290
38,4.109755,11.2118,376.9390
39,4.104990,11.2124,376.9490
40,4.100393,11.2124,376.9590
41,4.096741,11.2130,376.9690
42,4.093987,11.2130,376.9790
43,4.088701,11.2137,376.9890
44,4.082106,11.2143,376.9990
45,4.075741,11.2149,377.0090
46,4.070054,11.2155,377.0190
47,4.062825,11.2161,377.0290
48,4.054834,11.2168,377.0390
49,4.049804,11.2174,377.0490
50,4.045280,11.2180,377.0590
51,4.041354,11.2180,377.0690
52,4.038349,11.2186,377.0790
53,4.034842,11.2193,377.0890
54,4.029820,11.2199,377.0990
55,4.025728,11.2199,377.1090
56,4.022658,11.2205,377.1190
57,4.017068,11.2211,377.1290
58,4.012191,11.2217,377.1390
59,4.008370,11.2224,377.1490
60,4.004202,11.2224,377.1590
61,4.000255,11.2230,377.1690
62,3.997419,11.2236,377.1790
63,3.995294,11.2236,377.1890
64,3.992467,11.2242,377.1990
65,3.987943,11.2249,377.2090
66,3.984386,11.2255,377.2190
67,3.978794,11.2261,377.2290
68,3.972949,11.2267,377.2390
69,3.967386,11.2273,377.2490
70,3.963531,11.2273,377.2590
71,3.961310,11.2280,377.2690
72,3.958254,11.2286,377.2790
73,3.956738,11.2292,377.2890
74,3.953689,11.2292,377.2990
75,3.949346,11.2292,377.3090
76,3.945680,11.2305,377.3190
77,3.939526,11.2311,377.3290
78,3.933886,11.2317,377.3390
79,3.929395,11.2323,377.3490
80,3.926778,11.2323,377.3590
81,3.924736,11.2329,377.3690
82,3.919030,11.2329,377.3790
83,3.913368,11.2336,377.3890
84,3.908270,11.2342,377.3990
85,3.904896,11.2342,377.4090
86,3.899733,11.2354,377.4190
87,3.892224,11.2360,377.4290
88,3.886718,11.2367,377.4390
89,3.880664,11.2373,377.4490
90,3.875881,11.2373,377.4590
91,3.872493,11.2379,377.4690
92,3.870517,11.2385,377.4790
93,3.866542,11.2392,377.4890
94,3.861824,11.2392,377.4990
95,3.858305,11.2398,377.5090
96,3.852970,11.2404,377.5190
97,3.846809,11.2410,377.5290
98,3.843561,11.2416,377.5390
99,3.838069,11.2423,377.5490
100,3.832221,11.2423,377.5590
101,3.828237,11.2429,377.5690
102,3.824345,11.2435,377.5790
103,3.820000,11.2435,377.5890
104,3.815403,11.2441,377.5990
105,3.814417,11.2441,377.6090
106,3.807929,11.2454,377.6190
107,3.801969,11.2460,377.6290
108,3.794192,11.2466,377.6390
109,3.789210,11.2466,377.6490
110,3.785285,11.2472,377.6590
111,3.780009,11.2479,377.6690
112,3.775450,11.2485,377.6790
113,3.772808,11.2491,377.6890
114,3.769446,11.2491,377.6990
115,3.768317,11.2491,377.7090
116,3.762257,11.2503,377.7190
117,3.754328,11.2510,377.7290
118,3.748511,11.2516,377.7390
119,3.746201,11.2516,377.7490
120,3.742790,11.2522,377.7590
121,3.738256,11.2528,377.7690
122,3.735093,11.2535,377.7790
123,3.730531,11.2535,377.7890
124,3.725860,11.2534,377.7990
125,3.724282,11.2541,377.8090
126,3.718499,11.2553,377.8190
127,3.710196,11.2559,377.8290
128,3.703510,11.2566,377.8390
129,3.699748,11.2566,377.8490
130,3.695516,11.2572,377.8590
131,3.689070,11.2578,377.8690
132,3.685731,11.2584,377.8790
133,3.682231,11.2590,377.8890
134,3.679537,11.2590,377.8990
135,3.675733,11.2597,377.9090
136,3.668410,11.2603,377.9190
137,3.663349,11.2609,377.9290
138,3.657204,11.2615,377.9390
139,3.653723,11.2615,377.9490
140,3.650056,11.2622,377.9590
141,3.644331,11.2628,377.9690
142,3.641674,11.2634,377.9790
143,3.638165,11.2634,377.9890
144,3.636482,11.2634,377.9990
145,3.632460,11.2640,378.0090
146,3.627101,11.2653,378.0190
147,3.620625,11.2659,378.0290
148,3.614524,11.2665,378.0390
149,3.610501,11.2665,378.0490
150,3.606589,11.2671,378.0590
151,3.601445,11.2677,378.0690
152,3.596725,11.2684,378.0790
153,3.593028,11.2684,378.0890
154,3.591742,11.2684,378.0990
155,3.589226,11.2690,378.1090
156,3.582937,11.2702,378.1190
157,3.575398,11.2709,378.1290
158,3.571295,11.2709,378.1390
159,3.568656,11.2715,378.1490
160,3.564096,11.2721,378.1590
161,3.558539,11.2727,378.1690
162,3.553732,11.2733,378.1790
163,3.550737,11.2733,378.1890
164,3.548350,11.2733,378.1990
165,3.543735,11.2740,378.2090
166,3.538174,11.2752,378.2190
167,3.531899,11.2758,378.2290
168,3.525771,11.2758,378.2390
169,3.521459,11.2765,378.2490
170,3.516074,11.2771,378.2590
171,3.511744,11.2777,378.2690
172,3.508001,11.2783,378.2790
173,3.505740,11.2783,378.2890
174,3.502879,11.2789,378.2990
175,3.498541,11.2796,378.3090
176,3.492549,11.2802,378.3190
177,3.488064,11.2808,378.3290
178,3.486432,11.2808,378.3390
179,3.482825,11.2814,378.3490
180,3.476519,11.2821,378.3590
181,3.472334,11.2827,378.3690
182,3.470714,11.2833,378.3790
183,3.468637,11.2833,378.3890
184,3.464997,11.2833,378.3990
185,3.461267,11.2839,378.4090
186,3.456867,11.2852,378.4190
187,3.451557,11.2858,378.4290
188,3.445586,11.2858,378.4390
189,3.441309,11.2864,378.4490
190,3.436954,11.2870,378.4590
191,3.430816,11.2876,378.4690
192,3.427578,11.2883,378.4790
193,3.426673,11.2883,378.4890
194,3.423608,11.2889,378.4990
195,3.419730,11.2889,378.5090
196,3.416770,11.2901,378.5190
197,3.411331,11.2901,378.5290
198,3.405833,11.2908,378.5390
199,3.401759,11.2914,378.5490
200,3.396877,11.2920,378.5590
201,3.390381,11.2926,378.5690
202,3.385085,11.2926,378.5790
203,3.382911,11.2932,378.5890
204,3.381471,11.2932,378.5990
205,3.377288,11.2939,378.6090
206,3.371195,11.2951,378.6190
207,3.365567,11.2951,378.6290
208,3.358778,11.2957,378.6390
209,3.354396,11.2964,378.6490
210,3.350052,11.2970,378.6590
211,3.344499,11.2976,378.6690
212,3.340337,11.2982,378.6790
213,3.340318,11.2982,378.6890
214,3.336657,11.2988,378.6990
215,3.329846,11.2995,378.7090
216,3.326084,11.3001,378.7190
217,3.322876,11.3001,378.7290
218,3.317653,11.3007,378.7390
219,3.312210,11.3013,378.7490
220,3.306916,11.3020,378.7590
221,3.302878,11.3026,378.7690
222,3.299973,11.3026,378.7790
223,3.297735,11.3032,378.7890
224,3.294873,11.3032,378.7990
225,3.290627,11.3038,378.8090
226,3.286849,11.3044,378.8190
227,3.283821,11.3051,378.8290
228,3.277463,11.3057,378.8390
229,3.270853,11.3063,378.8490
230,3.265950,11.3069,378.8590
231,3.262965,11.3075,378.8690
232,3.259304,11.3075,378.8790
233,3.254789,11.3082,378.8890
234,3.252895,11.3088,378.8990
235,3.249691,11.3094,378.9090
236,3.245621,11.3094,378.9190
237,3.242280,11.3100,378.9290
238,3.237536,11.3107,378.9390
239,3.231831,11.3113,378.9490
240,3.228506,11.3119,378.9590
241,3.224606,11.3125,378.9690
242,3.219503,11.3125,378.9790
243,3.214959,11.3131,378.9890
244,3.211686,11.3131,378.9990
245,3.208574,11.3144,379.0090
246,3.204454,11.3144,379.0190
247,3.199495,11.3150,379.0290
248,3.192341,11.3156,379.0390
249,3.185137,11.3169,379.0490
250,3.180323,11.3169,379.0590
251,3.177723,11.3175,379.0690
252,3.175525,11.3175,379.0790
253,3.171196,11.3181,379.0890
254,3.166014,11.3187,379.0990
255,3.164031,11.3194,379.1090
256,3.160581,11.3194,379.1190
257,3.154531,11.3200,379.1290
258,3.149413,11.3206,379.1390
259,3.144742,11.3212,379.1490
260,3.139341,11.3219,379.1590
261,3.137154,11.3218,379.1690
262,3.135445,11.3225,379.1790
263,3.130077,11.3231,379.1890
264,3.126229,11.3231,379.1990
265,3.124043,11.3243,379.2090
266,3.120879,11.3243,379.2190
267,3.116143,11.3250,379.2290
268,3.111146,11.3256,379.2390
269,3.104812,11.3262,379.2490
270,3.098342,11.3268,379.2590
271,3.096402,11.3268,379.2690
272,3.093416,11.3275,379.2790
273,3.089191,11.3281,379.2890
274,3.084532,11.3287,379.2990
275,3.081962,11.3293,379.3090
276,3.080704,11.3293,379.3190
277,3.075824,11.3299,379.3290
278,3.067767,11.3306,379.3390
279,3.063961,11.3312,379.3490
280,3.061497,11.3318,379.3590
281,3.058420,11.3318,379.3690
282,3.052775,11.3324,379.3790
283,3.051436,11.3331,379.3890
284,3.049334,11.3330,379.3990
285,3.045682,11.3337,379.4090
286,3.043079,11.3337,379.4190
287,3.037805,11.3349,379.4290
288,3.031878,11.3355,379.4390
289,3.024945,11.3368,379.4490
290,3.021908,11.3368,379.4590
291,3.017244,11.3368,379.4690
292,3.012006,11.3374,379.4790
293,3.009299,11.3380,379.4890
294,3.006549,11.3386,379.4990
295,3.002156,11.3386,379.5090
296,2.998408,11.3393,379.5190
297,2.993952,11.3399,379.5290
298,2.988137,11.3405,379.5390
299,2.983823,11.3411,379.5490
300,2.981677,11.3418,379.5590
301,2.978546,11.3418,379.5690
302,2.972458,11.3424,379.5790
303,2.968260,11.3430,379.5890
304,2.967164,11.3436,379.5990
305,2.964697,11.3436,379.6090
306,2.961700,11.3436,379.6190
307,2.958235,11.3449,379.6290
308,2.952700,11.3455,379.6390
309,2.944746,11.3461,379.6490
310,2.939067,11.3461,379.6590
311,2.936996,11.3467,379.6690
312,2.932128,11.3474,379.6790
313,2.926745,11.3480,379.6890
314,2.924809,11.3486,379.6990
315,2.923012,11.3486,379.7090
316,2.920157,11.3492,379.7190
317,2.915630,11.3498,379.7290
318,2.910517,11.3505,379.7390
319,2.905828,11.3511,379.7490
320,2.901137,11.3511,379.7590
321,2.897187,11.3517,379.7690
322,2.892853,11.3523,379.7790
323,2.890339,11.3530,379.7890
324,2.887358,11.3530,379.7990
325,2.884351,11.3530,379.8090
326,2.879145,11.3542,379.8190
327,2.873234,11.3548,379.8290
328,2.869002,11.3561,379.8390
329,2.864875,11.3561,379.8490
330,2.860106,11.3567,379.8590
331,2.856477,11.3567,379.8690
332,2.852551,11.3573,379.8790
333,2.848607,11.3579,379.8890
334,2.844560,11.3586,379.8990
335,2.841855,11.3586,379.9090
336,2.839579,11.3592,379.9190
337,2.834162,11.3598,379.9290
338,2.829205,11.3604,379.9390
339,2.827206,11.3610,379.9490
340,2.822988,11.3610,379.9590
341,2.819516,11.3617,379.9690
342,2.815806,11.3623,379.9790
343,2.811076,11.3629,379.9890
344,2.806965,11.3629,379.9990
345,2.804730,11.3635,380.0090
346,2.801279,11.3635,380.0190
347,2.797055,11.3648,380.0290
348,2.792269,11.3654,380.0390
349,2.788376,11.3660,380.0490
350,2.782500,11.3660,380.0590
351,2.777344,11.3666,380.0690
352,2.771878,11.3673,380.0790
353,2.767531,11.3679,380.0890
354,2.765569,11.3679,380.0990
355,2.764553,11.3685,380.1090
356,2.761279,11.3691,380.1190
357,2.756722,11.3698,380.1290
358,2.751151,11.3704,380.1390
359,2.747253,11.3704,380.1490
360,2.743816,11.3710,380.1590
361,2.737919,11.3716,380.1690
362,2.731848,11.3722,380.1790
363,2.728558,11.3729,380.1890
364,2.726077,11.3729,380.1990
365,2.721937,11.3729,380.2090
366,2.718041,11.3735,380.2190
367,2.713584,11.3747,380.2290
368,2.709004,11.3753,380.2390
369,2.703615,11.3753,380.2490
370,2.700538,11.3766,380.2590
371,2.694276,11.3766,380.2690
372,2.689322,11.3772,380.2790
373,2.688366,11.3778,380.2890
374,2.686725,11.3778,380.2990
375,2.681017,11.3785,380.3090
376,2.675949,11.3791,380.3190
377,2.671721,11.3797,380.3290
378,2.669414,11.3803,380.3390
379,2.665680,11.3803,380.3490
380,2.660879,11.3809,380.3590
381,2.656090,11.3816,380.3690
382,2.653194,11.3822,380.3790
383,2.651020,11.3828,380.3890
384,2.649785,11.3828,380.3990
385,2.646119,11.3834,380.4090
386,2.641020,11.3834,380.4190
387,2.636792,11.3847,380.4290
388,2.633409,11.3853,380.4390
389,2.628794,11.3853,380.4490
390,2.622537,11.3859,380.4590
391,2.618817,11.3865,380.4690
392,2.616332,11.3872,380.4790
393,2.612790,11.3878,380.4890
394,2.608499,11.3878,380.4990
395,2.605792,11.3884,380.5090
396,2.602675,11.3890,380.5190
397,2.597880,11.3897,380.5290
398,2.594876,11.3897,380.5390
399,2.590007,11.3903,380.5490
400,2.586119,11.3909,380.5590
401,2.580552,11.3915,380.5690
402,2.576659,11.3921,380.5790
403,2.573753,11.3921,380.5890
404,2.569516,11.3928,380.5990
405,2.567435,11.3928,380.6090
406,2.563935,11.3940,380.6190
407,2.559921,11.3946,380.6290
408,2.556121,11.3946,380.6390
409,2.551861,11.3953,380.6490
410,2.544495,11.3965,380.6590
411,2.539883,11.3971,380.6690
412,2.537826,11.3971,380.6790
413,2.535201,11.3977,380.6890
414,2.529413,11.3977,380.6990
415,2.524945,11.3984,380.7090
416,2.523460,11.3990,380.7200
417,2.516505,11.3996,380.7300
418,2.512775,11.3996,380.7400
419,2.510809,11.4002,380.7500
420,2.506004,11.4009,380.7600
421,2.501298,11.4015,380.7700
422,2.498534,11.4021,380.7800
423,2.495838,11.4021,380.7900
424,2.490557,11.4027,380.8000
425,2.488611,11.4033,380.8100
426,2.487917,11.4040,380.8200
427,2.483409,11.4040,380.8300
428,2.477735,11.4046,380.8400
429,2.472394,11.4052,380.8500
430,2.466563,11.4058,380.8600
431,2.461021,11.4065,380.8700
432,2.457744,11.4071,380.8800
433,2.456935,11.4071,380.8900
434,2.453096,11.4077,380.9000
435,2.447694,11.4083,380.9100
436,2.446612,11.4089,380.9200
437,2.443367,11.4089,380.9300
438,2.437735,11.4096,380.9400
439,2.432993,11.4102,380.9500
440,2.430180,11.4108,380.9600
441,2.425233,11.4114,380.9700
442,2.420751,11.4121,380.9800
443,2.418948,11.4121,380.9900
444,2.415699,11.4127,381.0000
445,2.410519,11.4127,381.0100
446,2.405537,11.4139,381.0200
447,2.402457,11.4139,381.0300
448,2.398272,11.4145,381.0400
449,2.391190,11.4152,381.0500
450,2.386612,11.4164,381.0600
451,2.381946,11.4170,381.0700
452,2.376933,11.4170,381.0800
453,2.374033,11.4170,381.0900
454,2.371193,11.4176,381.1000
455,2.367283,11.4183,381.1100
456,2.364029,11.4189,381.1200
457,2.364508,11.4189,381.1300
458,2.361144,11.4195,381.1400
459,2.353889,11.4201,381.1500
460,2.349624,11.4208,381.1600
461,2.346823,11.4214,381.1700
462,2.343575,11.4214,381.1800
463,2.339404,11.4220,381.1900
464,2.334952,11.4226,381.2000
465,2.331829,11.4233,381.2100
466,2.328342,11.4239,381.2200
467,2.325756,11.4239,381.2300
468,2.324251,11.4245,381.2400
469,2.317823,11.4251,381.2500
470,2.310367,11.4257,381.2600
471,2.304247,11.4264,381.2700
472,2.302299,11.4264,381.2800
473,2.298962,11.4270,381.2900
474,2.296327,11.4276,381.3000
475,2.293510,11.4282,381.3100
476,2.290145,11.4289,381.3200
477,2.287470,11.4289,381.3300
478,2.283058,11.4295,381.3400
479,2.277804,11.4301,381.3500
480,2.274372,11.4307,381.3600
481,2.270117,11.4313,381.3700
482,2.266939,11.4313,381.3800
483,2.264536,11.4320,381.3900
484,2.261966,11.4326,381.4000
485,2.259254,11.4332,381.4100
486,2.254361,11.4332,381.4200
487,2.252273,11.4338,381.4300
488,2.248146,11.4345,381.4400
489,2.243376,11.4351,381.4500
490,2.238158,11.4363,381.4600
491,2.235950,11.4363,381.4700
492,2.233178,11.4369,381.4800
493,2.229648,11.4369,381.4900
494,2.228513,11.4376,381.5000
495,2.225965,11.4382,381.5100
496,2.223901,11.4382,381.5200
497,2.221471,11.4388,381.5300
498,2.218412,11.4394,381.5400
499,2.214540,11.4401,381.5500
500,2.211541,11.4407,381.5600
501,2.208192,11.4413,381.5700
502,2.206565,11.4413,381.5800
503,2.204277,11.4419,381.5900
504,2.201868,11.4425,381.6000
505,2.198185,11.4432,381.6100
506,2.197148,11.4432,381.6200
507,2.195432,11.4438,381.6300
508,2.189158,11.4444,381.6400
509,2.183582,11.4450,381.6500
510,2.179939,11.4457,381.6600
511,2.178523,11.4457,381.6700
512,2.175378,11.4463,381.6800
513,2.172640,11.4469,381.6900
514,2.171134,11.4475,381.7000
515,2.166612,11.4482,381.7100
516,2.164650,11.4482,381.7200
517,2.163416,11.4488,381.7300
518,2.159060,11.4494,381.7400
519,2.152165,11.4500,381.7500
520,2.148071,11.4506,381.7600
521,2.146123,11.4506,381.7700
522,2.142135,11.4513,381.7800
523,2.136991,11.4519,381.7900
524,2.135193,11.4525,381.8000
525,2.131962,11.4525,381.8100
526,2.128284,11.4531,381.8200
527,2.125279,11.4538,381.8300
528,2.120874,11.4544,381.8400
529,2.114186,11.4556,381.8500
530,2.109953,11.4556,381.8600
531,2.106346,11.4562,381.8700
532,2.100756,11.4569,381.8800
533,2.095904,11.4569,381.8900
534,2.093961,11.4575,381.9000
535,2.090603,11.4581,381.9100
536,2.085941,11.4581,381.9200
537,2.084225,11.4587,381.9300
538,2.080413,11.4594,381.9400
539,2.074445,11.4606,381.9500
540,2.069827,11.4606,381.9600
541,2.066996,11.4606,381.9700
542,2.063683,11.4612,381.9800
543,2.059133,11.4618,381.9900
544,2.055270,11.4625,382.0000
545,2.052369,11.4625,382.0100
546,2.050893,11.4631,382.0200
547,2.047592,11.4637,382.0300
548,2.041429,11.4643,382.0400
549,2.035719,11.4650,382.0500
550,2.031960,11.4656,382.0600
551,2.027292,11.4656,382.0700
552,2.021990,11.4662,382.0800
553,2.017847,11.4668,382.0900
554,2.015476,11.4674,382.1000
555,2.013514,11.4674,382.1100
556,2.011295,11.4681,382.1200
557,2.006262,11.4687,382.1300
558,2.001726,11.4693,382.1400
559,2.000243,11.4699,382.1500
560,1.996797,11.4699,382.1600
561,1.991875,11.4706,382.1700
562,1.986598,11.4712,382.1800
563,1.983346,11.4718,382.1900
564,1.980854,11.4724,382.2000
565,1.977611,11.4724,382.2100
566,1.973488,11.4730,382.2200
567,1.968448,11.4737,382.2300
568,1.964333,11.4743,382.2400
569,1.961810,11.4749,382.2500
570,1.955626,11.4755,382.2600
571,1.951082,11.4762,382.2700
572,1.945925,11.4768,382.2800
573,1.942303,11.4774,382.2900
574,1.940206,11.4774,382.3000
575,1.936046,11.4774,382.3100
576,1.933369,11.4780,382.3200
577,1.929586,11.4786,382.3300
578,1.924312,11.4793,382.3400
579,1.920570,11.4799,382.3500
580,1.916486,11.4799,382.3600
581,1.912684,11.4805,382.3700
582,1.908843,11.4811,382.3800
583,1.905053,11.4817,382.3900
584,1.901730,11.4824,382.4000
585,1.899916,11.4824,382.4100
586,1.897215,11.4830,382.4200
587,1.894108,11.4836,382.4300
588,1.888964,11.4842,382.4400
589,1.885604,11.4849,382.4500
590,1.881127,11.4849,382.4600
591,1.875721,11.4855,382.4700
592,1.869993,11.4861,382.4800
593,1.866346,11.4867,382.4900
594,1.865460,11.4874,382.5000
595,1.861249,11.4873,382.5100
596,1.856463,11.4880,382.5200
597,1.853355,11.4886,382.5300
598,1.851564,11.4892,382.5400
599,1.848291,11.4892,382.5500
600,1.842649,11.4898,382.5600
601,1.837599,11.4905,382.5700
602,1.832958,11.4911,382.5800
603,1.830112,11.4917,382.5900
604,1.828115,11.4917,382.6000
605,1.823797,11.4923,382.6100
606,1.820568,11.4929,382.6200
607,1.816460,11.4936,382.6300
608,1.813164,11.4942,382.6400
609,1.808890,11.4942,382.6500
610,1.802137,11.4954,382.6600
611,1.796147,11.4961,382.6700
612,1.789600,11.4967,382.6800
613,1.786025,11.4973,382.6900
614,1.784436,11.4973,382.7000
615,1.781765,11.4973,382.7100
616,1.777173,11.4979,382.7200
617,1.773732,11.4985,382.7300
618,1.771922,11.4992,382.7400
619,1.768637,11.4992,382.7500
620,1.763867,11.4998,382.7600
621,1.760919,11.5004,382.7700
622,1.757255,11.5010,382.7800
623,1.753339,11.5017,382.7900
624,1.751286,11.5017,382.8000
625,1.748796,11.5023,382.8100
626,1.745086,11.5029,382.8200
627,1.741165,11.5035,382.8300
628,1.737124,11.5041,382.8400
629,1.732874,11.5041,382.8500
630,1.726563,11.5048,382.8600
631,1.722514,11.5054,382.8700
632,1.719995,11.5060,382.8800
633,1.716530,11.5066,382.8900
634,1.712640,11.5066,382.9000
635,1.708275,11.5073,382.9100
636,1.705747,11.5079,382.9200
637,1.703278,11.5085,382.9300
638,1.700722,11.5085,382.9400
639,1.696918,11.5091,382.9500
640,1.690304,11.5097,382.9600
641,1.685597,11.5104,382.9700
642,1.682708,11.5110,382.9800
643,1.680000,11.5110,382.9900
644,1.676378,11.5116,383.0000
645,1.672189,11.5122,383.0100
646,1.667971,11.5129,383.0200
647,1.664571,11.5135,383.0300
