Data stamp = , 05-05-2022 12:42:54 061

Calibration Values: 
Slope = , 26.54 , g/V 
Offset Voltage at no contact = , -0.501760 , V 

No , Time , Stage Position ,   Mass , Force 
   ,  (s) ,      (mm)      ,   (g)  , (mN)  

1 ,0.0000 ,0.64949 ,5.12741 ,50.31014 
2 ,0.2099 ,0.64955 ,5.12056 ,50.24298 
3 ,0.9464 ,0.65269 ,5.13768 ,50.41087 
4 ,1.1868 ,0.65594 ,5.12399 ,50.27656 
5 ,1.4267 ,0.65832 ,5.13768 ,50.41087 
6 ,1.6510 ,0.66064 ,5.11372 ,50.17583 
7 ,1.8751 ,0.66291 ,5.10688 ,50.10867 
8 ,2.0831 ,0.66507 ,5.12056 ,50.24298 
9 ,2.2911 ,0.66709 ,5.07608 ,49.80646 
10 ,2.4993 ,0.66918 ,5.06581 ,49.70573 
11 ,2.7234 ,0.67138 ,5.02474 ,49.30279 
12 ,2.9156 ,0.67341 ,5.01106 ,49.16848 
13 ,3.1234 ,0.67536 ,5.01448 ,49.20205 
14 ,3.3317 ,0.67747 ,4.98026 ,48.86627 
15 ,3.5557 ,0.67973 ,4.96315 ,48.69838 
16 ,3.7318 ,0.68170 ,4.94603 ,48.53049 
17 ,3.9238 ,0.68345 ,4.93577 ,48.42975 
18 ,4.1160 ,0.68536 ,4.89470 ,48.02681 
19 ,4.3239 ,0.68744 ,4.88786 ,47.95966 
20 ,4.5320 ,0.68954 ,4.85706 ,47.65745 
21 ,4.7401 ,0.69164 ,4.86732 ,47.75819 
22 ,4.9644 ,0.69380 ,4.82968 ,47.38883 
23 ,5.1722 ,0.69592 ,4.79546 ,47.05304 
24 ,5.3805 ,0.69797 ,4.79204 ,47.01946 
25 ,5.5886 ,0.70003 ,4.76466 ,46.75084 
26 ,5.7962 ,0.70213 ,4.75097 ,46.61653 
27 ,5.9883 ,0.70412 ,4.73728 ,46.48221 
28 ,6.1802 ,0.70601 ,4.71333 ,46.24716 
29 ,6.3724 ,0.70793 ,4.68595 ,45.97854 
30 ,6.5646 ,0.70989 ,4.69279 ,46.04569 
31 ,6.7566 ,0.71181 ,4.65515 ,45.67633 
32 ,6.9650 ,0.71388 ,4.64146 ,45.54202 
33 ,7.1728 ,0.71589 ,4.59697 ,45.10550 
34 ,7.3653 ,0.71782 ,4.61751 ,45.30697 
35 ,7.5894 ,0.72008 ,4.57302 ,44.87045 
36 ,7.7975 ,0.72216 ,4.55591 ,44.70256 
37 ,8.0053 ,0.72420 ,4.54564 ,44.60183 
38 ,8.1976 ,0.72615 ,4.51484 ,44.29962 
39 ,8.4057 ,0.72822 ,4.52169 ,44.36678 
40 ,8.6296 ,0.73044 ,4.46009 ,43.76237 
41 ,8.8218 ,0.73236 ,4.48062 ,43.96384 
42 ,9.0294 ,0.73445 ,4.43271 ,43.49374 
43 ,9.2220 ,0.73643 ,4.42586 ,43.42659 
44 ,9.4299 ,0.73843 ,4.40191 ,43.19154 
45 ,9.6220 ,0.74039 ,4.39507 ,43.12438 
46 ,9.8301 ,0.74242 ,4.37111 ,42.88933 
47 ,10.0221 ,0.74439 ,4.35400 ,42.72144 
48 ,10.2304 ,0.74649 ,4.32662 ,42.45282 
49 ,10.4385 ,0.74856 ,4.30267 ,42.21777 
50 ,10.6304 ,0.75050 ,4.28898 ,42.08345 
51 ,10.8386 ,0.75255 ,4.26502 ,41.84841 
52 ,11.0308 ,0.75452 ,4.25476 ,41.74767 
53 ,11.2384 ,0.75652 ,4.23765 ,41.57978 
54 ,11.4310 ,0.75850 ,4.23765 ,41.57978 
55 ,11.6390 ,0.76055 ,4.20000 ,41.21042 
56 ,11.8630 ,0.76272 ,4.19658 ,41.17684 
57 ,12.0552 ,0.76471 ,4.16236 ,40.84106 
58 ,12.2788 ,0.76697 ,4.13840 ,40.60601 
59 ,12.4874 ,0.76901 ,4.14183 ,40.63959 
60 ,12.7111 ,0.77121 ,4.10076 ,40.23665 
61 ,12.9035 ,0.77323 ,4.09391 ,40.16949 
62 ,13.1115 ,0.77526 ,4.06312 ,39.86729 
63 ,13.3197 ,0.77740 ,4.04943 ,39.73297 
64 ,13.5599 ,0.77976 ,4.02889 ,39.53150 
65 ,13.7838 ,0.78195 ,4.01178 ,39.36361 
66 ,13.9919 ,0.78411 ,4.00152 ,39.26288 
67 ,14.2003 ,0.78613 ,3.95703 ,38.82636 
68 ,14.3921 ,0.78812 ,3.94676 ,38.72562 
69 ,14.6003 ,0.79018 ,3.92965 ,38.55773 
70 ,14.7922 ,0.79214 ,3.92623 ,38.52415 
71 ,15.0006 ,0.79412 ,3.89543 ,38.22195 
72 ,15.2086 ,0.79623 ,3.89885 ,38.25553 
73 ,15.4009 ,0.79819 ,3.85436 ,37.81901 
74 ,15.6083 ,0.80020 ,3.83725 ,37.65112 
75 ,15.8166 ,0.80230 ,3.80987 ,37.38249 
76 ,16.0249 ,0.80444 ,3.80987 ,37.38249 
77 ,16.2330 ,0.80647 ,3.78592 ,37.14744 
78 ,16.4570 ,0.80868 ,3.75512 ,36.84524 
79 ,16.6490 ,0.81063 ,3.76539 ,36.94597 
80 ,16.8730 ,0.81285 ,3.71748 ,36.47588 
81 ,17.0812 ,0.81492 ,3.70721 ,36.37514 
82 ,17.2895 ,0.81708 ,3.70037 ,36.30799 
83 ,17.4975 ,0.81913 ,3.65930 ,35.90505 
84 ,17.7056 ,0.82117 ,3.65588 ,35.87147 
85 ,17.9134 ,0.82324 ,3.63192 ,35.63642 
86 ,18.1215 ,0.82536 ,3.61139 ,35.43495 
87 ,18.3299 ,0.82741 ,3.59770 ,35.30064 
88 ,18.5216 ,0.82948 ,3.57032 ,35.03201 
89 ,18.7300 ,0.83145 ,3.56348 ,34.96485 
90 ,18.9377 ,0.83350 ,3.52241 ,34.56192 
91 ,19.1301 ,0.83547 ,3.53268 ,34.66265 
92 ,19.3542 ,0.83761 ,3.48819 ,34.22613 
93 ,19.5623 ,0.83970 ,3.48819 ,34.22613 
94 ,19.7544 ,0.84172 ,3.47450 ,34.09182 
95 ,19.9466 ,0.84360 ,3.46766 ,34.02466 
96 ,20.1707 ,0.84586 ,3.43686 ,33.72246 
97 ,20.3788 ,0.84798 ,3.41633 ,33.52099 
98 ,20.5868 ,0.84999 ,3.40264 ,33.38667 
99 ,20.7787 ,0.85196 ,3.36842 ,33.05089 
100 ,20.9868 ,0.85403 ,3.35815 ,32.95016 
101 ,21.1950 ,0.85611 ,3.33419 ,32.71511 
102 ,21.4034 ,0.85818 ,3.31708 ,32.54722 
103 ,21.6109 ,0.86016 ,3.31024 ,32.48006 
104 ,21.8034 ,0.86217 ,3.28286 ,32.21143 
105 ,22.0114 ,0.86426 ,3.27944 ,32.17786 
106 ,22.2351 ,0.86647 ,3.24180 ,31.80849 
107 ,22.4434 ,0.86850 ,3.23495 ,31.74134 
108 ,22.6517 ,0.87067 ,3.23153 ,31.70776 
109 ,22.8596 ,0.87268 ,3.18362 ,31.23766 
110 ,23.0678 ,0.87478 ,3.18362 ,31.23766 
111 ,23.2600 ,0.87675 ,3.15624 ,30.96904 
112 ,23.4841 ,0.87894 ,3.15966 ,31.00262 
113 ,23.7081 ,0.88114 ,3.14940 ,30.90188 
114 ,23.9159 ,0.88326 ,3.10149 ,30.43178 
115 ,24.1239 ,0.88536 ,3.09122 ,30.33105 
116 ,24.3163 ,0.88730 ,3.06384 ,30.06242 
117 ,24.5562 ,0.88975 ,3.05358 ,29.96169 
118 ,24.7645 ,0.89178 ,3.02278 ,29.65948 
119 ,24.9725 ,0.89379 ,3.02620 ,29.69306 
120 ,25.1967 ,0.89597 ,2.99198 ,29.35728 
121 ,25.4208 ,0.89825 ,2.97829 ,29.22297 
122 ,25.6128 ,0.90022 ,2.97487 ,29.18939 
123 ,25.8051 ,0.90213 ,2.95433 ,28.98792 
124 ,25.9971 ,0.90411 ,2.93722 ,28.82003 
125 ,26.2052 ,0.90616 ,2.90642 ,28.51782 
126 ,26.3973 ,0.90812 ,2.89616 ,28.41709 
127 ,26.6050 ,0.91017 ,2.87905 ,28.24919 
128 ,26.8132 ,0.91224 ,2.86878 ,28.14846 
129 ,27.0213 ,0.91432 ,2.83798 ,27.84625 
130 ,27.2297 ,0.91639 ,2.84140 ,27.87983 
131 ,27.4218 ,0.91833 ,2.80718 ,27.54405 
132 ,27.6299 ,0.92036 ,2.81402 ,27.61121 
133 ,27.8537 ,0.92256 ,2.78665 ,27.34258 
134 ,28.0618 ,0.92475 ,2.75585 ,27.04038 
135 ,28.2700 ,0.92673 ,2.75585 ,27.04038 
136 ,28.4782 ,0.92890 ,2.73874 ,26.87248 
137 ,28.6861 ,0.93094 ,2.72163 ,26.70459 
138 ,28.8779 ,0.93288 ,2.70452 ,26.53670 
139 ,29.0703 ,0.93488 ,2.70109 ,26.50312 
140 ,29.2624 ,0.93676 ,2.66003 ,26.10018 
141 ,29.4705 ,0.93875 ,2.66003 ,26.10018 
142 ,29.6786 ,0.94087 ,2.63265 ,25.83156 
143 ,29.8867 ,0.94294 ,2.60527 ,25.56293 
144 ,30.0947 ,0.94509 ,2.61554 ,25.66367 
145 ,30.3028 ,0.94708 ,2.57789 ,25.29430 
146 ,30.4789 ,0.94900 ,2.58132 ,25.32788 
147 ,30.6708 ,0.95084 ,2.55736 ,25.09283 
148 ,30.8629 ,0.95272 ,2.52998 ,24.82421 
149 ,31.0548 ,0.95468 ,2.53341 ,24.85779 
150 ,31.2631 ,0.95675 ,2.50603 ,24.58916 
151 ,31.4714 ,0.95875 ,2.49918 ,24.52200 
152 ,31.6795 ,0.96088 ,2.46154 ,24.15264 
153 ,31.8717 ,0.96285 ,2.46839 ,24.21980 
154 ,32.0792 ,0.96484 ,2.44785 ,24.01833 
155 ,32.3032 ,0.96707 ,2.41705 ,23.71612 
156 ,32.5114 ,0.96916 ,2.42048 ,23.74970 
157 ,32.7680 ,0.97174 ,2.39310 ,23.48108 
158 ,32.9760 ,0.97387 ,2.38283 ,23.38034 
159 ,33.1840 ,0.97594 ,2.34177 ,22.97740 
160 ,33.4081 ,0.97815 ,2.34861 ,23.04456 
161 ,33.6159 ,0.98029 ,2.32808 ,22.84309 
162 ,33.8085 ,0.98220 ,2.30412 ,22.60804 
163 ,34.0162 ,0.98420 ,2.29385 ,22.50731 
164 ,34.2242 ,0.98626 ,2.26306 ,22.20510 
165 ,34.4002 ,0.98822 ,2.26306 ,22.20510 
166 ,34.5924 ,0.99006 ,2.26306 ,22.20510 
167 ,34.8010 ,0.99204 ,2.22199 ,21.80216 
168 ,35.0089 ,0.99413 ,2.21515 ,21.73500 
169 ,35.2169 ,0.99620 ,2.22199 ,21.80216 
170 ,35.4090 ,0.99812 ,2.18435 ,21.43280 
171 ,35.6650 ,1.00071 ,2.15012 ,21.09702 
172 ,35.8890 ,1.00294 ,2.15355 ,21.13059 
173 ,36.0972 ,1.00506 ,2.13644 ,20.96270 
174 ,36.2892 ,1.00701 ,2.10906 ,20.69408 
175 ,36.4974 ,1.00907 ,2.10564 ,20.66050 
176 ,36.7056 ,1.01111 ,2.07141 ,20.32472 
177 ,36.9293 ,1.01335 ,2.06799 ,20.29114 
178 ,37.1533 ,1.01558 ,2.06457 ,20.25756 
179 ,37.3613 ,1.01774 ,2.03719 ,19.98893 
180 ,37.5695 ,1.01975 ,2.01666 ,19.78746 
181 ,37.7939 ,1.02202 ,1.99955 ,19.61957 
182 ,38.0181 ,1.02431 ,1.98586 ,19.48526 
183 ,38.2418 ,1.02647 ,1.96533 ,19.28379 
184 ,38.4343 ,1.02842 ,1.96533 ,19.28379 
185 ,38.6421 ,1.03046 ,1.93111 ,18.94801 
186 ,38.8505 ,1.03252 ,1.93111 ,18.94801 
187 ,39.0586 ,1.03468 ,1.91742 ,18.81369 
188 ,39.2667 ,1.03677 ,1.87977 ,18.44433 
189 ,39.4744 ,1.03879 ,1.88319 ,18.47791 
190 ,39.6827 ,1.04088 ,1.85582 ,18.20928 
191 ,39.8905 ,1.04306 ,1.83871 ,18.04139 
192 ,40.0992 ,1.04504 ,1.82844 ,17.94066 
193 ,40.3230 ,1.04727 ,1.80449 ,17.70561 
194 ,40.5310 ,1.04932 ,1.80106 ,17.67203 
195 ,40.7393 ,1.05141 ,1.79080 ,17.57129 
196 ,40.9470 ,1.05348 ,1.76342 ,17.30267 
197 ,41.1556 ,1.05566 ,1.77369 ,17.40340 
198 ,41.3794 ,1.05785 ,1.73262 ,17.00046 
199 ,41.5877 ,1.05991 ,1.71893 ,16.86615 
200 ,41.7960 ,1.06200 ,1.72235 ,16.89973 
201 ,42.0039 ,1.06406 ,1.68129 ,16.49679 
202 ,42.2119 ,1.06619 ,1.67444 ,16.42963 
203 ,42.4200 ,1.06827 ,1.67786 ,16.46321 
204 ,42.6117 ,1.07028 ,1.64364 ,16.12743 
205 ,42.8200 ,1.07222 ,1.64364 ,16.12743 
206 ,43.0122 ,1.07419 ,1.62653 ,15.95954 
207 ,43.2199 ,1.07620 ,1.60942 ,15.79164 
208 ,43.4285 ,1.07831 ,1.60258 ,15.72449 
209 ,43.6523 ,1.08050 ,1.57520 ,15.45586 
210 ,43.8446 ,1.08256 ,1.56493 ,15.35513 
211 ,44.0687 ,1.08471 ,1.53756 ,15.08650 
212 ,44.2764 ,1.08675 ,1.55809 ,15.28797 
213 ,44.4849 ,1.08893 ,1.53071 ,15.01934 
214 ,44.6927 ,1.09100 ,1.51018 ,14.81787 
215 ,44.9012 ,1.09305 ,1.49649 ,14.68356 
216 ,45.1091 ,1.09512 ,1.47253 ,14.44851 
217 ,45.3172 ,1.09720 ,1.47253 ,14.44851 
218 ,45.5411 ,1.09948 ,1.43831 ,14.11273 
219 ,45.7495 ,1.10155 ,1.42805 ,14.01199 
220 ,45.9896 ,1.10382 ,1.43831 ,14.11273 
221 ,46.1976 ,1.10602 ,1.42120 ,13.94484 
222 ,46.3897 ,1.10792 ,1.37329 ,13.47474 
223 ,46.5977 ,1.10999 ,1.37671 ,13.50832 
224 ,46.7899 ,1.11194 ,1.35276 ,13.27327 
225 ,46.9819 ,1.11386 ,1.36303 ,13.37401 
226 ,47.1901 ,1.11592 ,1.32538 ,13.00465 
227 ,47.3983 ,1.11802 ,1.32538 ,13.00465 
228 ,47.6058 ,1.12010 ,1.30485 ,12.80318 
229 ,47.7983 ,1.12203 ,1.30485 ,12.80318 
230 ,48.0065 ,1.12411 ,1.28089 ,12.56813 
231 ,48.2144 ,1.12622 ,1.26720 ,12.43381 
232 ,48.4224 ,1.12821 ,1.26378 ,12.40024 
233 ,48.6303 ,1.13028 ,1.23983 ,12.16519 
234 ,48.8387 ,1.13240 ,1.23298 ,12.09803 
235 ,49.0305 ,1.13442 ,1.19876 ,11.76225 
236 ,49.2228 ,1.13625 ,1.20561 ,11.82941 
237 ,49.4470 ,1.13848 ,1.16796 ,11.46004 
238 ,49.6711 ,1.14071 ,1.16454 ,11.42647 
239 ,49.8791 ,1.14275 ,1.14743 ,11.25857 
240 ,50.0713 ,1.14475 ,1.13032 ,11.09068 
241 ,50.2794 ,1.14676 ,1.13716 ,11.15784 
242 ,50.4872 ,1.14887 ,1.10294 ,10.82206 
243 ,50.6953 ,1.15100 ,1.09952 ,10.78848 
244 ,50.8871 ,1.15301 ,1.08241 ,10.62059 
245 ,51.0958 ,1.15497 ,1.08925 ,10.68774 
246 ,51.3037 ,1.15702 ,1.07899 ,10.58701 
247 ,51.4956 ,1.15905 ,1.04819 ,10.28480 
248 ,51.7039 ,1.16103 ,1.03450 ,10.15049 
249 ,51.8960 ,1.16303 ,1.02423 ,10.04976 
250 ,52.1039 ,1.16498 ,1.01396 ,9.94902 
251 ,52.3121 ,1.16707 ,0.99685 ,9.78113 
252 ,52.5203 ,1.16919 ,0.99685 ,9.78113 
253 ,52.7442 ,1.17139 ,0.96605 ,9.47892 
254 ,52.9522 ,1.17346 ,0.95237 ,9.34461 
255 ,53.1441 ,1.17543 ,0.93868 ,9.21030 
256 ,53.3366 ,1.17738 ,0.93525 ,9.17672 
257 ,53.5446 ,1.17941 ,0.91472 ,8.97525 
258 ,53.7529 ,1.18152 ,0.89419 ,8.77378 
259 ,53.9605 ,1.18361 ,0.90446 ,8.87451 
260 ,54.1526 ,1.18553 ,0.88050 ,8.63947 
261 ,54.3770 ,1.18769 ,0.88392 ,8.67305 
262 ,54.6011 ,1.18995 ,0.86339 ,8.47158 
263 ,54.8088 ,1.19214 ,0.83943 ,8.23653 
264 ,55.0013 ,1.19402 ,0.84286 ,8.27011 
265 ,55.2091 ,1.19611 ,0.79837 ,7.83359 
266 ,55.4173 ,1.19814 ,0.80521 ,7.90074 
267 ,55.6256 ,1.20024 ,0.79837 ,7.83359 
268 ,55.8177 ,1.20216 ,0.77784 ,7.63212 
269 ,56.0417 ,1.20439 ,0.77441 ,7.59854 
270 ,56.2339 ,1.20636 ,0.75730 ,7.43065 
271 ,56.4254 ,1.20833 ,0.74361 ,7.29633 
272 ,56.6340 ,1.21030 ,0.73335 ,7.19560 
273 ,56.8581 ,1.21254 ,0.73335 ,7.19560 
274 ,57.0661 ,1.21460 ,0.69913 ,6.85982 
275 ,57.3221 ,1.21716 ,0.67859 ,6.65835 
276 ,57.5299 ,1.21922 ,0.66490 ,6.52403 
277 ,57.7223 ,1.22129 ,0.67175 ,6.59119 
278 ,57.9305 ,1.22327 ,0.64095 ,6.28899 
279 ,58.1386 ,1.22538 ,0.65464 ,6.42330 
280 ,58.3307 ,1.22732 ,0.61699 ,6.05394 
281 ,58.5388 ,1.22935 ,0.62042 ,6.08752 
282 ,58.7467 ,1.23147 ,0.59988 ,5.88605 
283 ,58.9549 ,1.23359 ,0.57935 ,5.68458 
284 ,59.1629 ,1.23557 ,0.58277 ,5.71815 
285 ,59.3712 ,1.23764 ,0.55197 ,5.41595 
286 ,59.5791 ,1.23978 ,0.56224 ,5.51668 
287 ,59.7870 ,1.24182 ,0.53486 ,5.24806 
288 ,59.9794 ,1.24381 ,0.54513 ,5.34879 
289 ,60.1874 ,1.24585 ,0.50748 ,4.97943 
290 ,60.3956 ,1.24796 ,0.49380 ,4.84512 
291 ,60.6033 ,1.25001 ,0.50406 ,4.94585 
292 ,60.7953 ,1.25197 ,0.48011 ,4.71081 
293 ,60.9873 ,1.25398 ,0.47326 ,4.64365 
294 ,61.1959 ,1.25595 ,0.45273 ,4.44218 
295 ,61.4197 ,1.25810 ,0.46300 ,4.54291 
296 ,61.6120 ,1.26012 ,0.42877 ,4.20713 
297 ,61.8360 ,1.26229 ,0.43220 ,4.24071 
298 ,62.0600 ,1.26455 ,0.41851 ,4.10640 
299 ,62.2519 ,1.26651 ,0.38429 ,3.77061 
300 ,62.4604 ,1.26857 ,0.39797 ,3.90493 
301 ,62.6682 ,1.27060 ,0.36033 ,3.53557 
302 ,62.8764 ,1.27269 ,0.37060 ,3.63630 
303 ,63.0681 ,1.27462 ,0.33980 ,3.33410 
304 ,63.2606 ,1.27656 ,0.33980 ,3.33410 
305 ,63.4848 ,1.27867 ,0.30900 ,3.03189 
306 ,63.6926 ,1.28087 ,0.30215 ,2.96473 
307 ,63.9010 ,1.28294 ,0.31242 ,3.06547 
308 ,64.0926 ,1.28497 ,0.29189 ,2.86400 
309 ,64.3011 ,1.28698 ,0.29189 ,2.86400 
310 ,64.5091 ,1.28905 ,0.26451 ,2.59537 
311 ,64.7172 ,1.29109 ,0.26793 ,2.62895 
312 ,64.9090 ,1.29303 ,0.23029 ,2.25959 
313 ,65.1173 ,1.29513 ,0.23713 ,2.32675 
314 ,65.3252 ,1.29725 ,0.22002 ,2.15885 
315 ,65.5174 ,1.29927 ,0.20976 ,2.05812 
316 ,65.7097 ,1.30106 ,0.19264 ,1.89023 
317 ,65.9172 ,1.30313 ,0.21318 ,2.09170 
318 ,66.1093 ,1.30515 ,0.20291 ,1.99096 
319 ,66.3015 ,1.30696 ,0.18922 ,1.85665 
320 ,66.5098 ,1.30910 ,0.15500 ,1.52087 
321 ,66.7340 ,1.31126 ,0.15158 ,1.48729 
322 ,66.9577 ,1.31352 ,0.14473 ,1.42013 
323 ,67.1341 ,1.31542 ,0.11393 ,1.11793 
324 ,67.3421 ,1.31735 ,0.13447 ,1.31940 
325 ,67.5339 ,1.31938 ,0.08314 ,0.81572 
326 ,67.7262 ,1.32120 ,0.10025 ,0.98361 
327 ,67.9182 ,1.32311 ,0.10367 ,1.01719 
328 ,68.1266 ,1.32521 ,0.07971 ,0.78214 
329 ,68.3347 ,1.32728 ,0.04549 ,0.44636 
330 ,68.5743 ,1.32967 ,0.04549 ,0.44636 
331 ,68.7668 ,1.33162 ,0.03865 ,0.37920 
332 ,68.9750 ,1.33372 ,0.01811 ,0.17773 
333 ,69.1829 ,1.33576 ,0.02496 ,0.24489 
334 ,69.3911 ,1.33786 ,0.00100 ,0.00984 
335 ,69.5992 ,1.33990 ,0.00100 ,0.00984 
336 ,69.8233 ,1.34213 ,-0.00926 ,-0.09089 
337 ,70.0474 ,1.34442 ,-0.03664 ,-0.35952 
338 ,70.2392 ,1.34636 ,-0.04006 ,-0.39310 
339 ,70.4635 ,1.34850 ,-0.05375 ,-0.52741 
340 ,70.6558 ,1.35051 ,-0.07428 ,-0.72888 
341 ,70.8476 ,1.35250 ,-0.06060 ,-0.59457 
342 ,71.0399 ,1.35432 ,-0.06060 ,-0.59457 
343 ,71.2317 ,1.35627 ,-0.09482 ,-0.93035 
344 ,71.4399 ,1.35838 ,-0.08455 ,-0.82961 
345 ,71.6320 ,1.36023 ,-0.12904 ,-1.26613 
346 ,71.8398 ,1.36238 ,-0.10851 ,-1.06466 
347 ,72.0639 ,1.36451 ,-0.14273 ,-1.40045 
348 ,72.2723 ,1.36672 ,-0.14273 ,-1.40045 
349 ,72.4805 ,1.36876 ,-0.15299 ,-1.50118 
350 ,72.6885 ,1.37080 ,-0.17011 ,-1.66907 
351 ,72.9123 ,1.37302 ,-0.17695 ,-1.73623 
352 ,73.1207 ,1.37515 ,-0.18037 ,-1.76981 
353 ,73.3286 ,1.37720 ,-0.19748 ,-1.93770 
354 ,73.5528 ,1.37940 ,-0.20775 ,-2.03843 
355 ,73.7609 ,1.38150 ,-0.21117 ,-2.07201 
356 ,73.9690 ,1.38360 ,-0.22144 ,-2.17275 
357 ,74.1769 ,1.38568 ,-0.23855 ,-2.34064 
358 ,74.3692 ,1.38758 ,-0.24881 ,-2.44137 
359 ,74.5773 ,1.38974 ,-0.25908 ,-2.54211 
360 ,74.7854 ,1.39178 ,-0.26250 ,-2.57569 
361 ,74.9934 ,1.39383 ,-0.28304 ,-2.77716 
362 ,75.1851 ,1.39580 ,-0.26593 ,-2.60926 
363 ,75.4096 ,1.39791 ,-0.30699 ,-3.01220 
364 ,75.6176 ,1.40010 ,-0.31384 ,-3.07936 
365 ,75.8098 ,1.40199 ,-0.30357 ,-2.97863 
366 ,76.0177 ,1.40403 ,-0.32410 ,-3.18010 
367 ,76.2097 ,1.40606 ,-0.34121 ,-3.34799 
368 ,76.4178 ,1.40806 ,-0.33779 ,-3.31441 
369 ,76.6420 ,1.41029 ,-0.35832 ,-3.51588 
370 ,76.8499 ,1.41239 ,-0.38570 ,-3.78450 
371 ,77.0422 ,1.41434 ,-0.36859 ,-3.61661 
372 ,77.2344 ,1.41629 ,-0.38570 ,-3.78450 
373 ,77.4420 ,1.41836 ,-0.38570 ,-3.78450 
374 ,77.6346 ,1.42027 ,-0.41650 ,-4.08671 
375 ,77.8424 ,1.42236 ,-0.41308 ,-4.05313 
376 ,78.0348 ,1.42428 ,-0.43361 ,-4.25460 
377 ,78.2426 ,1.42639 ,-0.41650 ,-4.08671 
378 ,78.4509 ,1.42846 ,-0.44388 ,-4.35534 
379 ,78.6589 ,1.43045 ,-0.44730 ,-4.38891 
380 ,78.8511 ,1.43243 ,-0.46441 ,-4.55681 
381 ,79.0751 ,1.43453 ,-0.46783 ,-4.59038 
382 ,79.2830 ,1.43671 ,-0.46441 ,-4.55681 
383 ,79.5071 ,1.43888 ,-0.49521 ,-4.85901 
384 ,79.7151 ,1.44106 ,-0.50206 ,-4.92617 
385 ,79.9233 ,1.44318 ,-0.50206 ,-4.92617 
386 ,80.1312 ,1.44520 ,-0.52943 ,-5.19479 
387 ,80.3236 ,1.44712 ,-0.50890 ,-4.99332 
388 ,80.5157 ,1.44904 ,-0.55681 ,-5.46342 
389 ,80.7077 ,1.45098 ,-0.54654 ,-5.36268 
390 ,80.9159 ,1.45304 ,-0.54997 ,-5.39626 
391 ,81.1400 ,1.45528 ,-0.56708 ,-5.56415 
392 ,81.3481 ,1.45732 ,-0.56023 ,-5.49700 
393 ,81.5561 ,1.45949 ,-0.59445 ,-5.83278 
394 ,81.7483 ,1.46142 ,-0.58761 ,-5.76562 
395 ,81.9404 ,1.46337 ,-0.61156 ,-6.00067 
396 ,82.1321 ,1.46528 ,-0.61841 ,-6.06783 
397 ,82.3406 ,1.46729 ,-0.61156 ,-6.00067 
398 ,82.5326 ,1.46923 ,-0.63894 ,-6.26930 
399 ,82.7408 ,1.47130 ,-0.63894 ,-6.26930 
400 ,82.9644 ,1.47350 ,-0.64236 ,-6.30288 
401 ,83.1729 ,1.47563 ,-0.66290 ,-6.50435 
402 ,83.3972 ,1.47785 ,-0.67316 ,-6.60508 
403 ,83.5891 ,1.47986 ,-0.66974 ,-6.57150 
404 ,83.7971 ,1.48185 ,-0.69370 ,-6.80655 
405 ,84.0054 ,1.48394 ,-0.68001 ,-6.67224 
406 ,84.1973 ,1.48595 ,-0.71081 ,-6.97444 
407 ,84.4057 ,1.48795 ,-0.71081 ,-6.97444 
408 ,84.6291 ,1.49016 ,-0.72450 ,-7.10876 
409 ,84.8218 ,1.49213 ,-0.72792 ,-7.14233 
410 ,85.0298 ,1.49421 ,-0.71765 ,-7.04160 
411 ,85.2377 ,1.49621 ,-0.74503 ,-7.31023 
412 ,85.4299 ,1.49819 ,-0.74845 ,-7.34380 
413 ,85.6217 ,1.50010 ,-0.74845 ,-7.34380 
414 ,85.8300 ,1.50217 ,-0.76898 ,-7.54527 
415 ,86.0380 ,1.50430 ,-0.78610 ,-7.71317 
416 ,86.2459 ,1.50640 ,-0.77583 ,-7.61243 
417 ,86.4701 ,1.50860 ,-0.79978 ,-7.84748 
418 ,86.6784 ,1.51071 ,-0.81005 ,-7.94821 
419 ,86.8865 ,1.51275 ,-0.80321 ,-7.88106 
420 ,87.0945 ,1.51485 ,-0.82716 ,-8.11611 
421 ,87.3027 ,1.51689 ,-0.83401 ,-8.18326 
422 ,87.5267 ,1.51912 ,-0.85112 ,-8.35115 
423 ,87.7348 ,1.52122 ,-0.86481 ,-8.48547 
424 ,87.9427 ,1.52328 ,-0.86138 ,-8.45189 
425 ,88.1510 ,1.52541 ,-0.88192 ,-8.65336 
426 ,88.3591 ,1.52746 ,-0.88534 ,-8.68694 
427 ,88.5507 ,1.52943 ,-0.87849 ,-8.61978 
428 ,88.7431 ,1.53131 ,-0.89218 ,-8.75409 
429 ,88.9513 ,1.53344 ,-0.90245 ,-8.85483 
430 ,89.1430 ,1.53529 ,-0.91272 ,-8.95556 
431 ,89.3356 ,1.53724 ,-0.92640 ,-9.08988 
432 ,89.5434 ,1.53932 ,-0.91956 ,-9.02272 
433 ,89.7677 ,1.54145 ,-0.94351 ,-9.25777 
434 ,89.9758 ,1.54364 ,-0.97089 ,-9.52639 
435 ,90.1838 ,1.54567 ,-0.93667 ,-9.19061 
436 ,90.4081 ,1.54782 ,-0.96405 ,-9.45924 
437 ,90.6319 ,1.55013 ,-0.97774 ,-9.59355 
438 ,90.8401 ,1.55224 ,-0.97774 ,-9.59355 
439 ,91.0482 ,1.55437 ,-0.98116 ,-9.62713 
440 ,91.2562 ,1.55642 ,-1.00854 ,-9.89576 
441 ,91.4484 ,1.55838 ,-0.99827 ,-9.79502 
442 ,91.6725 ,1.56055 ,-1.02565 ,-10.06365 
443 ,91.8804 ,1.56262 ,-1.02565 ,-10.06365 
444 ,92.0887 ,1.56477 ,-1.03934 ,-10.19796 
445 ,92.2968 ,1.56683 ,-1.04960 ,-10.29869 
446 ,92.4888 ,1.56875 ,-1.04276 ,-10.23154 
447 ,92.7123 ,1.57095 ,-1.07356 ,-10.53374 
448 ,92.9205 ,1.57304 ,-1.07014 ,-10.50016 
449 ,93.1448 ,1.57528 ,-1.06329 ,-10.43301 
450 ,93.3852 ,1.57766 ,-1.07698 ,-10.56732 
451 ,93.5930 ,1.57973 ,-1.10093 ,-10.80237 
452 ,93.8173 ,1.58199 ,-1.10436 ,-10.83595 
453 ,94.0090 ,1.58396 ,-1.10436 ,-10.83595 
454 ,94.2175 ,1.58598 ,-1.12489 ,-11.03742 
455 ,94.4256 ,1.58804 ,-1.12147 ,-11.00384 
456 ,94.6177 ,1.59002 ,-1.13173 ,-11.10457 
457 ,94.8416 ,1.59219 ,-1.13516 ,-11.13815 
458 ,95.0338 ,1.59419 ,-1.15569 ,-11.33962 
459 ,95.2418 ,1.59624 ,-1.15227 ,-11.30604 
460 ,95.4499 ,1.59833 ,-1.16938 ,-11.47394 
461 ,95.6421 ,1.60028 ,-1.17964 ,-11.57467 
