Data stamp = , 05-05-2022 19:27:59 651

Calibration Values: 
Slope = , 26.54 , g/V 
Offset Voltage at no contact = , -0.501760 , V 

No , Time , Stage Position ,   Mass , Force 
   ,  (s) ,      (mm)      ,   (g)  , (mN)  

1 ,0.0000 ,0.64946 ,5.19927 ,51.01528 
2 ,0.2320 ,0.64952 ,5.20270 ,51.04886 
3 ,0.8082 ,0.65207 ,5.19585 ,50.98170 
4 ,1.0328 ,0.65440 ,5.19927 ,51.01528 
5 ,1.2407 ,0.65660 ,5.21296 ,51.14960 
6 ,1.4648 ,0.65877 ,5.21639 ,51.18317 
7 ,1.6725 ,0.66097 ,5.19927 ,51.01528 
8 ,1.8648 ,0.66284 ,5.18216 ,50.84739 
9 ,2.0732 ,0.66498 ,5.16163 ,50.64592 
10 ,2.2812 ,0.66699 ,5.13425 ,50.37729 
11 ,2.4895 ,0.66908 ,5.12056 ,50.24298 
12 ,2.6972 ,0.67115 ,5.08634 ,49.90720 
13 ,2.9216 ,0.67339 ,5.07608 ,49.80646 
14 ,3.1454 ,0.67559 ,5.05897 ,49.63857 
15 ,3.3377 ,0.67757 ,5.03159 ,49.36995 
16 ,3.5618 ,0.67980 ,5.01106 ,49.16848 
17 ,3.7699 ,0.68195 ,4.99052 ,48.96701 
18 ,3.9779 ,0.68393 ,4.95288 ,48.59764 
19 ,4.1857 ,0.68606 ,4.94946 ,48.56407 
20 ,4.3781 ,0.68798 ,4.91866 ,48.26186 
21 ,4.5702 ,0.68995 ,4.92208 ,48.29544 
22 ,4.7946 ,0.69203 ,4.88444 ,47.92608 
23 ,5.0020 ,0.69428 ,4.87075 ,47.79177 
24 ,5.1944 ,0.69613 ,4.86048 ,47.69103 
25 ,5.3863 ,0.69807 ,4.83995 ,47.48956 
26 ,5.5786 ,0.69998 ,4.79204 ,47.01946 
27 ,5.7704 ,0.70197 ,4.79888 ,47.08662 
28 ,5.9787 ,0.70406 ,4.76466 ,46.75084 
29 ,6.2028 ,0.70624 ,4.74755 ,46.58295 
30 ,6.3951 ,0.70820 ,4.74070 ,46.51579 
31 ,6.6031 ,0.71022 ,4.70648 ,46.18001 
32 ,6.8271 ,0.71251 ,4.70990 ,46.21359 
33 ,7.0350 ,0.71449 ,4.66542 ,45.77707 
34 ,7.2592 ,0.71671 ,4.64146 ,45.54202 
35 ,7.4674 ,0.71884 ,4.62777 ,45.40771 
36 ,7.6912 ,0.72108 ,4.62093 ,45.34055 
37 ,7.8995 ,0.72325 ,4.57302 ,44.87045 
38 ,8.0916 ,0.72509 ,4.57302 ,44.87045 
39 ,8.2995 ,0.72725 ,4.54564 ,44.60183 
40 ,8.4917 ,0.72907 ,4.52511 ,44.40036 
41 ,8.6839 ,0.73104 ,4.50457 ,44.19889 
42 ,8.9075 ,0.73321 ,4.49773 ,44.13173 
43 ,9.1159 ,0.73531 ,4.46693 ,43.82953 
44 ,9.3397 ,0.73752 ,4.44982 ,43.66163 
45 ,9.5483 ,0.73962 ,4.44298 ,43.59448 
46 ,9.7723 ,0.74187 ,4.41902 ,43.35943 
47 ,9.9644 ,0.74382 ,4.37795 ,42.95649 
48 ,10.1725 ,0.74595 ,4.38822 ,43.05723 
49 ,10.3802 ,0.74796 ,4.35058 ,42.68786 
50 ,10.5887 ,0.75004 ,4.34716 ,42.65429 
51 ,10.8128 ,0.75227 ,4.33347 ,42.51997 
52 ,11.0208 ,0.75436 ,4.28213 ,42.01630 
53 ,11.2449 ,0.75657 ,4.27871 ,41.98272 
54 ,11.4530 ,0.75863 ,4.26502 ,41.84841 
55 ,11.6612 ,0.76080 ,4.23080 ,41.51262 
56 ,11.8851 ,0.76300 ,4.21711 ,41.37831 
57 ,12.0773 ,0.76494 ,4.19658 ,41.17684 
58 ,12.2853 ,0.76705 ,4.17262 ,40.94179 
59 ,12.4935 ,0.76912 ,4.16920 ,40.90821 
60 ,12.6851 ,0.77103 ,4.14525 ,40.67317 
61 ,12.8776 ,0.77296 ,4.11787 ,40.40454 
62 ,13.0856 ,0.77500 ,4.10760 ,40.30380 
63 ,13.3097 ,0.77721 ,4.08707 ,40.10233 
64 ,13.5019 ,0.77919 ,4.05969 ,39.83371 
65 ,13.7255 ,0.78142 ,4.03916 ,39.63224 
66 ,13.9178 ,0.78335 ,4.01863 ,39.43077 
67 ,14.1102 ,0.78526 ,4.00836 ,39.33003 
68 ,14.3182 ,0.78730 ,3.99125 ,39.16214 
69 ,14.5423 ,0.78947 ,3.96387 ,38.89352 
70 ,14.7660 ,0.79177 ,3.94676 ,38.72562 
71 ,14.9741 ,0.79389 ,3.93650 ,38.62489 
72 ,15.1665 ,0.79583 ,3.90227 ,38.28911 
73 ,15.3587 ,0.79775 ,3.88174 ,38.08764 
74 ,15.5988 ,0.80005 ,3.86121 ,37.88617 
75 ,15.8066 ,0.80222 ,3.84410 ,37.71828 
76 ,16.0146 ,0.80429 ,3.83725 ,37.65112 
77 ,16.2229 ,0.80644 ,3.79961 ,37.28176 
78 ,16.4468 ,0.80855 ,3.78934 ,37.18102 
79 ,16.6549 ,0.81065 ,3.77223 ,37.01313 
80 ,16.8632 ,0.81273 ,3.74485 ,36.74450 
81 ,17.0713 ,0.81483 ,3.72090 ,36.50946 
82 ,17.2953 ,0.81705 ,3.72090 ,36.50946 
83 ,17.5195 ,0.81932 ,3.68325 ,36.14010 
84 ,17.7271 ,0.82141 ,3.66957 ,36.00578 
85 ,17.9196 ,0.82334 ,3.66614 ,35.97220 
86 ,18.1436 ,0.82550 ,3.62508 ,35.56926 
87 ,18.3356 ,0.82751 ,3.62850 ,35.60284 
88 ,18.5279 ,0.82945 ,3.59770 ,35.30064 
89 ,18.7520 ,0.83161 ,3.60112 ,35.33422 
90 ,18.9440 ,0.83358 ,3.55663 ,34.89770 
91 ,19.1358 ,0.83554 ,3.55663 ,34.89770 
92 ,19.3603 ,0.83761 ,3.52241 ,34.56192 
93 ,19.5842 ,0.83997 ,3.49504 ,34.29329 
94 ,19.7925 ,0.84199 ,3.50872 ,34.42760 
95 ,19.9845 ,0.84400 ,3.45739 ,33.92393 
96 ,20.1765 ,0.84592 ,3.47108 ,34.05824 
97 ,20.4007 ,0.84801 ,3.42317 ,33.58814 
98 ,20.6088 ,0.85022 ,3.39921 ,33.35310 
99 ,20.8329 ,0.85248 ,3.39237 ,33.28594 
100 ,21.0567 ,0.85462 ,3.38895 ,33.25236 
101 ,21.2489 ,0.85663 ,3.35473 ,32.91658 
102 ,21.4572 ,0.85866 ,3.34104 ,32.78227 
103 ,21.6812 ,0.86091 ,3.29997 ,32.37933 
104 ,21.8734 ,0.86290 ,3.30682 ,32.44648 
105 ,22.0815 ,0.86494 ,3.27944 ,32.17786 
106 ,22.2737 ,0.86691 ,3.26917 ,32.07712 
107 ,22.4817 ,0.86898 ,3.25891 ,31.97639 
108 ,22.6898 ,0.87102 ,3.23153 ,31.70776 
109 ,22.8980 ,0.87308 ,3.22468 ,31.64060 
110 ,23.1057 ,0.87517 ,3.18704 ,31.27124 
111 ,23.3140 ,0.87724 ,3.17335 ,31.13693 
112 ,23.5057 ,0.87917 ,3.14940 ,30.90188 
113 ,23.7141 ,0.88122 ,3.13571 ,30.76757 
114 ,23.9382 ,0.88344 ,3.14255 ,30.83472 
115 ,24.1463 ,0.88557 ,3.09464 ,30.36463 
116 ,24.3543 ,0.88761 ,3.10491 ,30.46536 
117 ,24.5621 ,0.88969 ,3.07753 ,30.19674 
118 ,24.7701 ,0.89182 ,3.06042 ,30.02884 
119 ,24.9786 ,0.89389 ,3.04331 ,29.86095 
120 ,25.1707 ,0.89581 ,3.01935 ,29.62590 
121 ,25.3948 ,0.89800 ,3.01251 ,29.55875 
122 ,25.5869 ,0.90003 ,2.97487 ,29.18939 
123 ,25.8109 ,0.90217 ,2.97144 ,29.15581 
124 ,26.0031 ,0.90422 ,2.95776 ,29.02150 
125 ,26.1953 ,0.90609 ,2.93722 ,28.82003 
126 ,26.4194 ,0.90826 ,2.90642 ,28.51782 
127 ,26.6274 ,0.91039 ,2.88247 ,28.28277 
128 ,26.8515 ,0.91268 ,2.87905 ,28.24919 
129 ,27.0434 ,0.91459 ,2.86878 ,28.14846 
130 ,27.2514 ,0.91658 ,2.85167 ,27.98057 
131 ,27.4597 ,0.91864 ,2.83114 ,27.77910 
132 ,27.6517 ,0.92061 ,2.80718 ,27.54405 
133 ,27.8595 ,0.92265 ,2.81060 ,27.57763 
134 ,28.0679 ,0.92472 ,2.77638 ,27.24185 
135 ,28.2920 ,0.92698 ,2.75585 ,27.04038 
136 ,28.4841 ,0.92893 ,2.75927 ,27.07395 
137 ,28.6762 ,0.93085 ,2.73874 ,26.87248 
138 ,28.8842 ,0.93292 ,2.71136 ,26.60386 
139 ,29.0764 ,0.93489 ,2.70452 ,26.53670 
140 ,29.2685 ,0.93679 ,2.68740 ,26.36881 
141 ,29.4767 ,0.93878 ,2.67372 ,26.23450 
142 ,29.7007 ,0.94101 ,2.66003 ,26.10018 
143 ,29.9089 ,0.94321 ,2.61896 ,25.69724 
144 ,30.1004 ,0.94520 ,2.62923 ,25.79798 
145 ,30.2933 ,0.94705 ,2.59158 ,25.42862 
146 ,30.5011 ,0.94916 ,2.59501 ,25.46220 
147 ,30.7092 ,0.95119 ,2.56421 ,25.15999 
148 ,30.9173 ,0.95326 ,2.54710 ,24.99210 
149 ,31.1250 ,0.95533 ,2.51972 ,24.72347 
150 ,31.3336 ,0.95744 ,2.50603 ,24.58916 
151 ,31.5575 ,0.95963 ,2.50261 ,24.55558 
152 ,31.7497 ,0.96158 ,2.47865 ,24.32053 
153 ,31.9578 ,0.96369 ,2.46154 ,24.15264 
154 ,32.1658 ,0.96569 ,2.44785 ,24.01833 
155 ,32.3900 ,0.96796 ,2.42048 ,23.74970 
156 ,32.5982 ,0.97011 ,2.40679 ,23.61539 
157 ,32.8223 ,0.97226 ,2.40679 ,23.61539 
158 ,33.0461 ,0.97441 ,2.36572 ,23.21245 
159 ,33.2542 ,0.97669 ,2.34861 ,23.04456 
160 ,33.4624 ,0.97876 ,2.34861 ,23.04456 
161 ,33.6705 ,0.98076 ,2.30754 ,22.64162 
162 ,33.8627 ,0.98270 ,2.32123 ,22.77593 
163 ,34.0867 ,0.98491 ,2.29385 ,22.50731 
164 ,34.2946 ,0.98698 ,2.28359 ,22.40657 
165 ,34.5024 ,0.98905 ,2.26648 ,22.23868 
166 ,34.6948 ,0.99104 ,2.24252 ,22.00363 
167 ,34.9189 ,0.99318 ,2.22541 ,21.83574 
168 ,35.1110 ,0.99518 ,2.20146 ,21.60069 
169 ,35.3192 ,0.99725 ,2.20488 ,21.63427 
170 ,35.5270 ,0.99933 ,2.18435 ,21.43280 
171 ,35.7514 ,1.00153 ,2.14328 ,21.02986 
172 ,35.9753 ,1.00375 ,2.15355 ,21.13059 
173 ,36.1835 ,1.00587 ,2.12275 ,20.82839 
174 ,36.3917 ,1.00799 ,2.09879 ,20.59334 
175 ,36.5996 ,1.01004 ,2.10906 ,20.69408 
176 ,36.8237 ,1.01232 ,2.07484 ,20.35829 
177 ,37.0316 ,1.01443 ,2.04404 ,20.05609 
178 ,37.2238 ,1.01632 ,2.06457 ,20.25756 
179 ,37.4158 ,1.01823 ,2.02693 ,19.88820 
180 ,37.6242 ,1.02029 ,2.02693 ,19.88820 
181 ,37.8482 ,1.02239 ,2.00297 ,19.65315 
182 ,38.0724 ,1.02472 ,1.97217 ,19.35094 
183 ,38.2966 ,1.02701 ,1.96533 ,19.28379 
184 ,38.5044 ,1.02914 ,1.96190 ,19.25021 
185 ,38.7126 ,1.03116 ,1.92084 ,18.84727 
186 ,38.9204 ,1.03325 ,1.93795 ,19.01516 
187 ,39.1127 ,1.03521 ,1.89346 ,18.57864 
188 ,39.3047 ,1.03711 ,1.90031 ,18.64580 
189 ,39.5129 ,1.03918 ,1.85240 ,18.17570 
190 ,39.7045 ,1.04109 ,1.87293 ,18.37717 
191 ,39.8969 ,1.04301 ,1.83186 ,17.97423 
192 ,40.1049 ,1.04510 ,1.83871 ,18.04139 
193 ,40.3293 ,1.04736 ,1.80791 ,17.73919 
194 ,40.5374 ,1.04937 ,1.80106 ,17.67203 
195 ,40.7614 ,1.05163 ,1.80449 ,17.70561 
196 ,40.9535 ,1.05362 ,1.74631 ,17.13478 
197 ,41.1616 ,1.05568 ,1.75315 ,17.20193 
198 ,41.3697 ,1.05779 ,1.73604 ,17.03404 
199 ,41.5776 ,1.05976 ,1.72235 ,16.89973 
200 ,41.7858 ,1.06184 ,1.71551 ,16.83257 
201 ,41.9939 ,1.06396 ,1.67786 ,16.46321 
202 ,42.2175 ,1.06623 ,1.67102 ,16.39605 
203 ,42.4257 ,1.06830 ,1.67444 ,16.42963 
204 ,42.6177 ,1.07037 ,1.63680 ,16.06027 
205 ,42.8418 ,1.07247 ,1.64364 ,16.12743 
206 ,43.0339 ,1.07447 ,1.60600 ,15.75807 
207 ,43.2259 ,1.07643 ,1.61284 ,15.82522 
208 ,43.4506 ,1.07840 ,1.57862 ,15.48944 
209 ,43.6747 ,1.08079 ,1.55809 ,15.28797 
210 ,43.8827 ,1.08279 ,1.55809 ,15.28797 
211 ,44.0907 ,1.08503 ,1.54782 ,15.18724 
212 ,44.2824 ,1.08688 ,1.53413 ,15.05292 
213 ,44.4911 ,1.08897 ,1.51360 ,14.85145 
214 ,44.6991 ,1.09108 ,1.48965 ,14.61640 
215 ,44.9072 ,1.09308 ,1.48965 ,14.61640 
216 ,45.1150 ,1.09519 ,1.46227 ,14.34778 
217 ,45.3233 ,1.09723 ,1.45200 ,14.24704 
218 ,45.5151 ,1.09920 ,1.42462 ,13.97842 
219 ,45.7235 ,1.10126 ,1.44516 ,14.17989 
220 ,45.9151 ,1.10319 ,1.39725 ,13.70979 
221 ,46.1076 ,1.10509 ,1.41094 ,13.84410 
222 ,46.3155 ,1.10722 ,1.38014 ,13.54190 
223 ,46.5233 ,1.10921 ,1.38014 ,13.54190 
224 ,46.7158 ,1.11121 ,1.33907 ,13.13896 
225 ,46.9239 ,1.11322 ,1.35618 ,13.30685 
226 ,47.1318 ,1.11532 ,1.31169 ,12.87033 
227 ,47.3242 ,1.11726 ,1.31854 ,12.93749 
228 ,47.5322 ,1.11930 ,1.28432 ,12.60171 
229 ,47.7563 ,1.12150 ,1.29458 ,12.70244 
230 ,47.9643 ,1.12364 ,1.27747 ,12.53455 
231 ,48.1885 ,1.12580 ,1.25352 ,12.29950 
232 ,48.4284 ,1.12831 ,1.23298 ,12.09803 
233 ,48.6204 ,1.13036 ,1.21929 ,11.96372 
234 ,48.8288 ,1.13236 ,1.20903 ,11.86298 
235 ,49.0368 ,1.13439 ,1.18850 ,11.66151 
236 ,49.2446 ,1.13646 ,1.20218 ,11.79583 
237 ,49.4685 ,1.13866 ,1.17481 ,11.52720 
238 ,49.6444 ,1.14061 ,1.15770 ,11.35931 
239 ,49.8367 ,1.14240 ,1.13716 ,11.15784 
240 ,50.0291 ,1.14428 ,1.13374 ,11.12426 
241 ,50.2212 ,1.14631 ,1.13032 ,11.09068 
242 ,50.4133 ,1.14813 ,1.10294 ,10.82206 
243 ,50.6053 ,1.15008 ,1.09952 ,10.78848 
244 ,50.8293 ,1.15233 ,1.06872 ,10.48627 
245 ,51.0535 ,1.15454 ,1.05845 ,10.38554 
246 ,51.2616 ,1.15663 ,1.05161 ,10.31838 
247 ,51.4536 ,1.15860 ,1.03792 ,10.18407 
248 ,51.6617 ,1.16056 ,1.02765 ,10.08333 
249 ,51.8698 ,1.16269 ,1.00712 ,9.88186 
250 ,52.0778 ,1.16475 ,0.99685 ,9.78113 
251 ,52.2698 ,1.16670 ,0.99001 ,9.71397 
252 ,52.4940 ,1.16890 ,0.96263 ,9.44535 
253 ,52.6862 ,1.17090 ,0.96605 ,9.47892 
254 ,52.8942 ,1.17291 ,0.94210 ,9.24388 
255 ,53.0858 ,1.17488 ,0.92841 ,9.10956 
256 ,53.2945 ,1.17689 ,0.91814 ,9.00883 
257 ,53.5026 ,1.17899 ,0.92841 ,9.10956 
258 ,53.7106 ,1.18113 ,0.90103 ,8.84094 
259 ,53.9344 ,1.18335 ,0.86681 ,8.50515 
260 ,54.1425 ,1.18534 ,0.88050 ,8.63947 
261 ,54.3668 ,1.18763 ,0.85654 ,8.40442 
262 ,54.5910 ,1.18986 ,0.82917 ,8.13579 
263 ,54.7828 ,1.19183 ,0.83601 ,8.20295 
264 ,54.9751 ,1.19378 ,0.81206 ,7.96790 
265 ,55.1829 ,1.19578 ,0.80521 ,7.90074 
266 ,55.3751 ,1.19776 ,0.77099 ,7.56496 
267 ,55.5835 ,1.19979 ,0.77784 ,7.63212 
268 ,55.8075 ,1.20203 ,0.76072 ,7.46423 
269 ,56.0155 ,1.20415 ,0.74019 ,7.26276 
270 ,56.2237 ,1.20627 ,0.75388 ,7.39707 
271 ,56.4476 ,1.20843 ,0.71281 ,6.99413 
272 ,56.6558 ,1.21053 ,0.69913 ,6.85982 
273 ,56.8638 ,1.21260 ,0.69913 ,6.85982 
274 ,57.0719 ,1.21464 ,0.67517 ,6.62477 
275 ,57.2641 ,1.21667 ,0.68201 ,6.69193 
276 ,57.4718 ,1.21872 ,0.64779 ,6.35614 
277 ,57.6803 ,1.22079 ,0.65806 ,6.45688 
278 ,57.8885 ,1.22292 ,0.63410 ,6.22183 
279 ,58.0965 ,1.22496 ,0.61015 ,5.98678 
280 ,58.3041 ,1.22697 ,0.60673 ,5.95320 
281 ,58.4965 ,1.22897 ,0.58277 ,5.71815 
282 ,58.7047 ,1.23101 ,0.59304 ,5.81889 
283 ,58.9288 ,1.23327 ,0.57593 ,5.65100 
284 ,59.1368 ,1.23535 ,0.56224 ,5.51668 
285 ,59.3928 ,1.23773 ,0.55197 ,5.41595 
286 ,59.6009 ,1.23994 ,0.53486 ,5.24806 
287 ,59.8253 ,1.24223 ,0.52459 ,5.14732 
288 ,60.0332 ,1.24432 ,0.49037 ,4.81154 
289 ,60.2249 ,1.24624 ,0.49380 ,4.84512 
290 ,60.4170 ,1.24812 ,0.47326 ,4.64365 
291 ,60.6091 ,1.25013 ,0.48011 ,4.71081 
292 ,60.8173 ,1.25213 ,0.45273 ,4.44218 
293 ,61.0256 ,1.25429 ,0.45957 ,4.50934 
294 ,61.2336 ,1.25631 ,0.41851 ,4.10640 
295 ,61.4256 ,1.25822 ,0.43562 ,4.27429 
296 ,61.6179 ,1.26019 ,0.41166 ,4.03924 
297 ,61.8416 ,1.26230 ,0.41166 ,4.03924 
298 ,62.0502 ,1.26444 ,0.38771 ,3.80419 
299 ,62.2582 ,1.26659 ,0.36375 ,3.56914 
300 ,62.4500 ,1.26860 ,0.37060 ,3.63630 
301 ,62.6584 ,1.27051 ,0.35691 ,3.50199 
302 ,62.8663 ,1.27256 ,0.34322 ,3.36767 
303 ,63.0585 ,1.27468 ,0.31926 ,3.13263 
304 ,63.2502 ,1.27653 ,0.31926 ,3.13263 
305 ,63.4427 ,1.27841 ,0.31242 ,3.06547 
306 ,63.6506 ,1.28049 ,0.29531 ,2.89758 
307 ,63.8589 ,1.28253 ,0.28162 ,2.76326 
308 ,64.0507 ,1.28454 ,0.27478 ,2.69611 
309 ,64.2431 ,1.28641 ,0.26109 ,2.56179 
310 ,64.4509 ,1.28849 ,0.24740 ,2.42748 
311 ,64.6593 ,1.29046 ,0.24055 ,2.36032 
312 ,64.8672 ,1.29255 ,0.24055 ,2.36032 
313 ,65.0589 ,1.29462 ,0.20291 ,1.99096 
314 ,65.2996 ,1.29685 ,0.22002 ,2.15885 
315 ,65.5076 ,1.29905 ,0.20633 ,2.02454 
316 ,65.7157 ,1.30113 ,0.16527 ,1.62160 
317 ,65.9238 ,1.30316 ,0.17896 ,1.75592 
318 ,66.1320 ,1.30526 ,0.15158 ,1.48729 
319 ,66.3399 ,1.30735 ,0.16185 ,1.58802 
320 ,66.5481 ,1.30944 ,0.14131 ,1.38655 
321 ,66.7723 ,1.31167 ,0.11736 ,1.15151 
322 ,66.9804 ,1.31375 ,0.10709 ,1.05077 
323 ,67.1884 ,1.31582 ,0.09340 ,0.91646 
324 ,67.3802 ,1.31775 ,0.08998 ,0.88288 
325 ,67.5726 ,1.31969 ,0.06945 ,0.68141 
326 ,67.7807 ,1.32171 ,0.07971 ,0.78214 
327 ,67.9886 ,1.32383 ,0.06260 ,0.61425 
328 ,68.1808 ,1.32578 ,0.03865 ,0.37920 
329 ,68.3886 ,1.32783 ,0.02838 ,0.27847 
330 ,68.5972 ,1.32993 ,0.01469 ,0.14416 
331 ,68.8211 ,1.33212 ,0.01127 ,0.11058 
332 ,69.0292 ,1.33429 ,-0.00242 ,-0.02373 
333 ,69.2373 ,1.33635 ,-0.01269 ,-0.12447 
334 ,69.4453 ,1.33840 ,-0.00926 ,-0.09089 
335 ,69.6693 ,1.34066 ,-0.04006 ,-0.39310 
336 ,69.8776 ,1.34279 ,-0.05033 ,-0.49383 
337 ,70.0854 ,1.34478 ,-0.04006 ,-0.39310 
338 ,70.2936 ,1.34688 ,-0.07771 ,-0.76246 
339 ,70.4858 ,1.34885 ,-0.06744 ,-0.66172 
340 ,70.6935 ,1.35083 ,-0.09482 ,-0.93035 
341 ,70.9179 ,1.35295 ,-0.08113 ,-0.79604 
342 ,71.1421 ,1.35531 ,-0.10508 ,-1.03108 
343 ,71.3340 ,1.35729 ,-0.12562 ,-1.23255 
344 ,71.5419 ,1.35940 ,-0.12904 ,-1.26613 
345 ,71.7339 ,1.36136 ,-0.12904 ,-1.26613 
346 ,71.9424 ,1.36334 ,-0.13588 ,-1.33329 
347 ,72.1343 ,1.36537 ,-0.14615 ,-1.43402 
348 ,72.3426 ,1.36733 ,-0.18722 ,-1.83696 
349 ,72.5503 ,1.36948 ,-0.17353 ,-1.70265 
350 ,72.7427 ,1.37134 ,-0.18722 ,-1.83696 
351 ,72.9344 ,1.37343 ,-0.19064 ,-1.87054 
352 ,73.1429 ,1.37535 ,-0.21117 ,-2.07201 
353 ,73.3667 ,1.37752 ,-0.22144 ,-2.17275 
354 ,73.5591 ,1.37950 ,-0.24197 ,-2.37422 
355 ,73.7831 ,1.38169 ,-0.22828 ,-2.23990 
356 ,73.9748 ,1.38367 ,-0.26250 ,-2.57569 
357 ,74.1833 ,1.38576 ,-0.25908 ,-2.54211 
358 ,74.3915 ,1.38787 ,-0.26935 ,-2.64284 
359 ,74.5995 ,1.38990 ,-0.28988 ,-2.84431 
360 ,74.7916 ,1.39188 ,-0.28304 ,-2.77716 
361 ,74.9837 ,1.39374 ,-0.30699 ,-3.01220 
362 ,75.1917 ,1.39581 ,-0.31726 ,-3.11294 
363 ,75.4157 ,1.39800 ,-0.33095 ,-3.24725 
364 ,75.6078 ,1.39997 ,-0.32068 ,-3.14652 
365 ,75.8156 ,1.40211 ,-0.34806 ,-3.41514 
366 ,76.0239 ,1.40412 ,-0.34806 ,-3.41514 
367 ,76.2319 ,1.40635 ,-0.35832 ,-3.51588 
368 ,76.4238 ,1.40817 ,-0.37201 ,-3.65019 
369 ,76.6163 ,1.41008 ,-0.38570 ,-3.78450 
370 ,76.8240 ,1.41209 ,-0.37886 ,-3.71735 
371 ,77.0165 ,1.41411 ,-0.41650 ,-4.08671 
372 ,77.2244 ,1.41615 ,-0.39255 ,-3.85166 
373 ,77.4326 ,1.41825 ,-0.42335 ,-4.15387 
374 ,77.6407 ,1.42037 ,-0.44388 ,-4.35534 
375 ,77.8487 ,1.42236 ,-0.43019 ,-4.22102 
376 ,78.0409 ,1.42429 ,-0.46441 ,-4.55681 
377 ,78.2486 ,1.42636 ,-0.45757 ,-4.48965 
378 ,78.4409 ,1.42829 ,-0.47468 ,-4.65754 
379 ,78.6331 ,1.43027 ,-0.47810 ,-4.69112 
380 ,78.8572 ,1.43244 ,-0.49179 ,-4.82543 
381 ,79.0651 ,1.43457 ,-0.49179 ,-4.82543 
382 ,79.2734 ,1.43667 ,-0.49863 ,-4.89259 
383 ,79.4651 ,1.43856 ,-0.50206 ,-4.92617 
384 ,79.6736 ,1.44063 ,-0.52259 ,-5.12764 
385 ,79.8813 ,1.44279 ,-0.53628 ,-5.26195 
386 ,80.0737 ,1.44474 ,-0.52943 ,-5.19479 
387 ,80.2656 ,1.44657 ,-0.55339 ,-5.42984 
388 ,80.4901 ,1.44877 ,-0.55339 ,-5.42984 
389 ,80.6818 ,1.45079 ,-0.58419 ,-5.73205 
390 ,80.8741 ,1.45266 ,-0.57392 ,-5.63131 
391 ,81.0662 ,1.45455 ,-0.58419 ,-5.73205 
392 ,81.2742 ,1.45664 ,-0.59445 ,-5.83278 
393 ,81.4823 ,1.45869 ,-0.60814 ,-5.96709 
394 ,81.6742 ,1.46069 ,-0.61156 ,-6.00067 
395 ,81.9305 ,1.46320 ,-0.61499 ,-6.03425 
396 ,82.1386 ,1.46528 ,-0.64236 ,-6.30288 
397 ,82.3627 ,1.46745 ,-0.64921 ,-6.37003 
398 ,82.5707 ,1.46960 ,-0.65263 ,-6.40361 
399 ,82.7790 ,1.47169 ,-0.66974 ,-6.57150 
400 ,82.9870 ,1.47379 ,-0.66632 ,-6.53793 
401 ,83.1950 ,1.47586 ,-0.68001 ,-6.67224 
402 ,83.4032 ,1.47789 ,-0.70054 ,-6.87371 
403 ,83.6111 ,1.47997 ,-0.68685 ,-6.73940 
404 ,83.8194 ,1.48212 ,-0.71765 ,-7.04160 
405 ,84.0434 ,1.48432 ,-0.72450 ,-7.10876 
406 ,84.2509 ,1.48636 ,-0.71423 ,-7.00802 
407 ,84.4434 ,1.48834 ,-0.74503 ,-7.31023 
408 ,84.6515 ,1.49035 ,-0.73818 ,-7.24307 
409 ,84.8436 ,1.49232 ,-0.75872 ,-7.44454 
410 ,85.0515 ,1.49437 ,-0.75530 ,-7.41096 
411 ,85.2599 ,1.49644 ,-0.78267 ,-7.67959 
412 ,85.4681 ,1.49853 ,-0.76898 ,-7.54527 
413 ,85.6759 ,1.50067 ,-0.78267 ,-7.67959 
414 ,85.8843 ,1.50270 ,-0.79978 ,-7.84748 
415 ,86.0924 ,1.50475 ,-0.79978 ,-7.84748 
416 ,86.3162 ,1.50703 ,-0.82716 ,-8.11611 
417 ,86.5405 ,1.50921 ,-0.83743 ,-8.21684 
418 ,86.7326 ,1.51122 ,-0.82374 ,-8.08253 
419 ,86.9243 ,1.51323 ,-0.84427 ,-8.28400 
420 ,87.1006 ,1.51504 ,-0.84769 ,-8.31758 
421 ,87.3084 ,1.51692 ,-0.85796 ,-8.41831 
422 ,87.5010 ,1.51890 ,-0.87507 ,-8.58620 
423 ,87.7090 ,1.52089 ,-0.86481 ,-8.48547 
424 ,87.9172 ,1.52307 ,-0.87507 ,-8.58620 
425 ,88.1249 ,1.52513 ,-0.89218 ,-8.75409 
426 ,88.3168 ,1.52701 ,-0.90245 ,-8.85483 
427 ,88.5415 ,1.52919 ,-0.91272 ,-8.95556 
428 ,88.7494 ,1.53142 ,-0.91614 ,-8.98914 
429 ,88.9576 ,1.53338 ,-0.93325 ,-9.15703 
430 ,89.1814 ,1.53562 ,-0.95036 ,-9.32492 
431 ,89.3897 ,1.53779 ,-0.94694 ,-9.29135 
432 ,89.5978 ,1.53981 ,-0.96063 ,-9.42566 
433 ,89.8060 ,1.54192 ,-0.96405 ,-9.45924 
434 ,90.0140 ,1.54402 ,-0.96405 ,-9.45924 
435 ,90.2381 ,1.54622 ,-0.99143 ,-9.72786 
436 ,90.4460 ,1.54827 ,-0.99485 ,-9.76144 
437 ,90.6541 ,1.55049 ,-0.99143 ,-9.72786 
438 ,90.8460 ,1.55234 ,-1.01880 ,-9.99649 
439 ,91.0384 ,1.55421 ,-1.00854 ,-9.89576 
440 ,91.2307 ,1.55615 ,-1.02565 ,-10.06365 
441 ,91.4544 ,1.55835 ,-1.01196 ,-9.92933 
442 ,91.6463 ,1.56033 ,-1.05302 ,-10.33227 
443 ,91.8546 ,1.56241 ,-1.03934 ,-10.19796 
444 ,92.0788 ,1.56463 ,-1.07356 ,-10.53374 
445 ,92.2870 ,1.56673 ,-1.05302 ,-10.33227 
446 ,92.5110 ,1.56893 ,-1.07356 ,-10.53374 
447 ,92.7352 ,1.57109 ,-1.07014 ,-10.50016 
448 ,92.9592 ,1.57342 ,-1.09067 ,-10.70163 
449 ,93.1831 ,1.57565 ,-1.10093 ,-10.80237 
450 ,93.3753 ,1.57761 ,-1.09751 ,-10.76879 
451 ,93.5994 ,1.57982 ,-1.11120 ,-10.90310 
452 ,93.7916 ,1.58178 ,-1.12831 ,-11.07100 
453 ,93.9996 ,1.58393 ,-1.12489 ,-11.03742 
454 ,94.1917 ,1.58578 ,-1.13173 ,-11.10457 
455 ,94.3999 ,1.58779 ,-1.13858 ,-11.17173 
456 ,94.6239 ,1.59002 ,-1.16938 ,-11.47394 
457 ,94.8320 ,1.59216 ,-1.15911 ,-11.37320 
458 ,95.0396 ,1.59429 ,-1.16253 ,-11.40678 
459 ,95.2481 ,1.59626 ,-1.18649 ,-11.64183 
460 ,95.4883 ,1.59859 ,-1.18991 ,-11.67541 
461 ,95.6964 ,1.60083 ,-1.17280 ,-11.50751 
