Data stamp = , 04-05-2022 14:21:42 860

Calibration Values: 
Slope = , 26.54 , g/V 
Offset Voltage at no contact = , -0.501760 , V 

No , Time , Stage Position ,   Mass , Force 
   ,  (s) ,      (mm)      ,   (g)  , (mN)  

1 ,0.0000 ,0.64940 ,5.33958 ,52.39199 
2 ,0.2145 ,0.64949 ,5.33274 ,52.32484 
3 ,0.6149 ,0.65073 ,5.34643 ,52.45915 
4 ,0.8713 ,0.65281 ,5.34643 ,52.45915 
5 ,1.0952 ,0.65497 ,5.34985 ,52.49273 
6 ,1.2873 ,0.65701 ,5.34985 ,52.49273 
7 ,1.4954 ,0.65902 ,5.35669 ,52.55988 
8 ,1.7032 ,0.66105 ,5.33274 ,52.32484 
9 ,1.9116 ,0.66326 ,5.33274 ,52.32484 
10 ,2.1195 ,0.66532 ,5.29852 ,51.98905 
11 ,2.3437 ,0.66758 ,5.27456 ,51.75401 
12 ,2.5514 ,0.66964 ,5.27114 ,51.72043 
13 ,2.7440 ,0.67163 ,5.21639 ,51.18317 
14 ,2.9362 ,0.67354 ,5.22323 ,51.25033 
15 ,3.1441 ,0.67561 ,5.18901 ,50.91455 
16 ,3.3524 ,0.67769 ,5.17874 ,50.81381 
17 ,3.5762 ,0.67982 ,5.15479 ,50.57876 
18 ,3.7844 ,0.68206 ,5.12399 ,50.27656 
19 ,3.9925 ,0.68406 ,5.12741 ,50.31014 
20 ,4.2006 ,0.68614 ,5.08977 ,49.94078 
21 ,4.4086 ,0.68820 ,5.09661 ,50.00793 
22 ,4.6008 ,0.69018 ,5.05554 ,49.60499 
23 ,4.8089 ,0.69218 ,5.04185 ,49.47068 
24 ,5.0168 ,0.69426 ,5.03159 ,49.36995 
25 ,5.2412 ,0.69641 ,4.99737 ,49.03416 
26 ,5.4331 ,0.69856 ,4.99052 ,48.96701 
27 ,5.6251 ,0.70037 ,4.93919 ,48.46333 
28 ,5.8168 ,0.70231 ,4.94603 ,48.53049 
29 ,6.0253 ,0.70439 ,4.90155 ,48.09397 
30 ,6.2174 ,0.70632 ,4.90155 ,48.09397 
31 ,6.4255 ,0.70836 ,4.86732 ,47.75819 
32 ,6.6333 ,0.71051 ,4.86732 ,47.75819 
33 ,6.8256 ,0.71241 ,4.84337 ,47.52314 
34 ,7.0175 ,0.71429 ,4.81599 ,47.25451 
35 ,7.2095 ,0.71623 ,4.79546 ,47.05304 
36 ,7.4178 ,0.71833 ,4.77835 ,46.88515 
37 ,7.6420 ,0.72054 ,4.75439 ,46.65010 
38 ,7.8501 ,0.72261 ,4.73386 ,46.44863 
39 ,8.0416 ,0.72461 ,4.72359 ,46.34790 
40 ,8.2342 ,0.72649 ,4.70306 ,46.14643 
41 ,8.4423 ,0.72853 ,4.66884 ,45.81065 
42 ,8.6504 ,0.73063 ,4.65857 ,45.70991 
43 ,8.8585 ,0.73273 ,4.65515 ,45.67633 
44 ,9.0664 ,0.73474 ,4.62435 ,45.37413 
45 ,9.2906 ,0.73706 ,4.61751 ,45.30697 
46 ,9.5147 ,0.73927 ,4.58671 ,45.00477 
47 ,9.7228 ,0.74143 ,4.56960 ,44.83688 
48 ,9.9308 ,0.74343 ,4.53537 ,44.50109 
49 ,10.1388 ,0.74551 ,4.53880 ,44.53467 
50 ,10.3468 ,0.74768 ,4.50115 ,44.16531 
51 ,10.5550 ,0.74966 ,4.51826 ,44.33320 
52 ,10.7470 ,0.75165 ,4.45666 ,43.72879 
53 ,10.9391 ,0.75351 ,4.45324 ,43.69521 
54 ,11.1472 ,0.75563 ,4.42586 ,43.42659 
55 ,11.3550 ,0.75762 ,4.43271 ,43.49374 
56 ,11.5474 ,0.75963 ,4.38480 ,43.02365 
57 ,11.7393 ,0.76157 ,4.38822 ,43.05723 
58 ,11.9477 ,0.76366 ,4.34716 ,42.65429 
59 ,12.1556 ,0.76564 ,4.35400 ,42.72144 
60 ,12.3477 ,0.76765 ,4.30951 ,42.28492 
61 ,12.5397 ,0.76953 ,4.29924 ,42.18419 
62 ,12.7479 ,0.77166 ,4.27187 ,41.91556 
63 ,12.9717 ,0.77377 ,4.26845 ,41.88198 
64 ,13.1642 ,0.77574 ,4.23080 ,41.51262 
65 ,13.3723 ,0.77778 ,4.22053 ,41.41189 
66 ,13.5478 ,0.77970 ,4.21369 ,41.34473 
67 ,13.7405 ,0.78151 ,4.20000 ,41.21042 
68 ,13.9325 ,0.78345 ,4.17605 ,40.97537 
69 ,14.1726 ,0.78565 ,4.17262 ,40.94179 
70 ,14.4126 ,0.78809 ,4.14183 ,40.63959 
71 ,14.6044 ,0.79026 ,4.12471 ,40.47170 
72 ,14.8288 ,0.79228 ,4.10076 ,40.23665 
73 ,15.0529 ,0.79459 ,4.08707 ,40.10233 
74 ,15.2448 ,0.79660 ,4.05627 ,39.80013 
75 ,15.4530 ,0.79861 ,4.04258 ,39.66582 
76 ,15.6448 ,0.80058 ,4.01863 ,39.43077 
77 ,15.8370 ,0.80249 ,4.02205 ,39.46435 
78 ,16.0452 ,0.80454 ,3.96729 ,38.92709 
79 ,16.2535 ,0.80663 ,3.95361 ,38.79278 
80 ,16.4615 ,0.80877 ,3.96387 ,38.89352 
81 ,16.6538 ,0.81066 ,3.92281 ,38.49058 
82 ,16.8616 ,0.81273 ,3.91254 ,38.38984 
83 ,17.0535 ,0.81464 ,3.89543 ,38.22195 
84 ,17.2455 ,0.81658 ,3.88174 ,38.08764 
85 ,17.4374 ,0.81853 ,3.86463 ,37.91975 
86 ,17.6457 ,0.82049 ,3.83383 ,37.61754 
87 ,17.8544 ,0.82262 ,3.81672 ,37.44965 
88 ,18.0779 ,0.82492 ,3.81672 ,37.44965 
89 ,18.3022 ,0.82709 ,3.79276 ,37.21460 
90 ,18.4943 ,0.82901 ,3.75854 ,36.87882 
91 ,18.7024 ,0.83117 ,3.75854 ,36.87882 
92 ,18.9105 ,0.83314 ,3.71405 ,36.44230 
93 ,19.1344 ,0.83535 ,3.72090 ,36.50946 
94 ,19.3428 ,0.83747 ,3.69694 ,36.27441 
95 ,19.5506 ,0.83958 ,3.67299 ,36.03936 
96 ,19.7430 ,0.84153 ,3.66614 ,35.97220 
97 ,19.9511 ,0.84358 ,3.62850 ,35.60284 
98 ,20.1588 ,0.84560 ,3.61823 ,35.50211 
99 ,20.3512 ,0.84757 ,3.59428 ,35.26706 
100 ,20.5593 ,0.84959 ,3.59770 ,35.30064 
101 ,20.7513 ,0.85166 ,3.55663 ,34.89770 
102 ,20.9432 ,0.85354 ,3.55321 ,34.86412 
103 ,21.1514 ,0.85561 ,3.52241 ,34.56192 
104 ,21.3595 ,0.85763 ,3.50872 ,34.42760 
105 ,21.5515 ,0.85970 ,3.49504 ,34.29329 
106 ,21.7437 ,0.86155 ,3.48477 ,34.19255 
107 ,21.9358 ,0.86346 ,3.45397 ,33.89035 
108 ,22.1280 ,0.86537 ,3.44713 ,33.82319 
109 ,22.3356 ,0.86744 ,3.40948 ,33.45383 
110 ,22.5281 ,0.86937 ,3.41975 ,33.55457 
111 ,22.7521 ,0.87152 ,3.37868 ,33.15163 
112 ,22.9601 ,0.87369 ,3.36499 ,33.01731 
113 ,23.1683 ,0.87573 ,3.34446 ,32.81584 
114 ,23.3763 ,0.87777 ,3.32735 ,32.64795 
115 ,23.5845 ,0.87996 ,3.30682 ,32.44648 
116 ,23.7925 ,0.88200 ,3.27602 ,32.14428 
117 ,24.0007 ,0.88407 ,3.28628 ,32.24501 
118 ,24.2087 ,0.88618 ,3.26233 ,32.00996 
119 ,24.4328 ,0.88832 ,3.22126 ,31.60702 
120 ,24.6248 ,0.89030 ,3.23153 ,31.70776 
121 ,24.8490 ,0.89242 ,3.19046 ,31.30482 
122 ,25.0731 ,0.89475 ,3.17335 ,31.13693 
123 ,25.2651 ,0.89669 ,3.16993 ,31.10335 
124 ,25.4571 ,0.89867 ,3.13913 ,30.80115 
125 ,25.6648 ,0.90068 ,3.13229 ,30.73399 
126 ,25.8580 ,0.90261 ,3.10833 ,30.49894 
127 ,26.0651 ,0.90472 ,3.10149 ,30.43178 
128 ,26.2574 ,0.90661 ,3.06726 ,30.09600 
129 ,26.4494 ,0.90852 ,3.05700 ,29.99527 
130 ,26.6576 ,0.91062 ,3.04331 ,29.86095 
131 ,26.8657 ,0.91265 ,3.02962 ,29.72664 
132 ,27.0736 ,0.91481 ,2.99540 ,29.39086 
133 ,27.2820 ,0.91680 ,2.99882 ,29.42444 
134 ,27.4741 ,0.91881 ,2.96118 ,29.05507 
135 ,27.6662 ,0.92088 ,2.96460 ,29.08865 
136 ,27.8583 ,0.92257 ,2.93722 ,28.82003 
137 ,28.0504 ,0.92453 ,2.93038 ,28.75287 
138 ,28.2585 ,0.92666 ,2.90300 ,28.48424 
139 ,28.4662 ,0.92874 ,2.90300 ,28.48424 
140 ,28.6741 ,0.93080 ,2.86878 ,28.14846 
141 ,28.8663 ,0.93270 ,2.86193 ,28.08130 
142 ,29.0907 ,0.93488 ,2.83114 ,27.77910 
143 ,29.2987 ,0.93706 ,2.83114 ,27.77910 
144 ,29.4908 ,0.93896 ,2.81745 ,27.64479 
145 ,29.6828 ,0.94085 ,2.80376 ,27.51047 
146 ,29.8750 ,0.94282 ,2.77296 ,27.20827 
147 ,30.0832 ,0.94489 ,2.76269 ,27.10753 
148 ,30.2910 ,0.94693 ,2.74900 ,26.97322 
149 ,30.4992 ,0.94899 ,2.74216 ,26.90606 
150 ,30.6910 ,0.95100 ,2.71478 ,26.63744 
151 ,30.8994 ,0.95299 ,2.69083 ,26.40239 
152 ,31.0913 ,0.95499 ,2.67714 ,26.26807 
153 ,31.2996 ,0.95702 ,2.65318 ,26.03303 
154 ,31.5076 ,0.95919 ,2.65318 ,26.03303 
155 ,31.6996 ,0.96105 ,2.62238 ,25.73082 
156 ,31.9076 ,0.96312 ,2.61896 ,25.69724 
157 ,32.1000 ,0.96505 ,2.59158 ,25.42862 
158 ,32.2920 ,0.96696 ,2.56763 ,25.19357 
159 ,32.4842 ,0.96885 ,2.57447 ,25.26073 
160 ,32.6922 ,0.97097 ,2.55394 ,25.05926 
161 ,32.8843 ,0.97286 ,2.55052 ,25.02568 
162 ,33.0923 ,0.97496 ,2.52998 ,24.82421 
163 ,33.3001 ,0.97703 ,2.48550 ,24.38769 
164 ,33.5083 ,0.97908 ,2.49918 ,24.52200 
165 ,33.7164 ,0.98124 ,2.46154 ,24.15264 
166 ,33.9247 ,0.98330 ,2.45470 ,24.08549 
167 ,34.1166 ,0.98529 ,2.42732 ,23.81686 
168 ,34.3408 ,0.98736 ,2.43074 ,23.85044 
169 ,34.5647 ,0.98968 ,2.42390 ,23.78328 
170 ,34.7731 ,0.99179 ,2.39652 ,23.51465 
171 ,34.9812 ,0.99379 ,2.36230 ,23.17887 
172 ,35.1891 ,0.99592 ,2.35888 ,23.14529 
173 ,35.3815 ,0.99783 ,2.34177 ,22.97740 
174 ,35.5894 ,0.99993 ,2.34519 ,23.01098 
175 ,35.7815 ,1.00188 ,2.31097 ,22.67520 
176 ,35.9895 ,1.00399 ,2.29728 ,22.54088 
177 ,36.2136 ,1.00609 ,2.26990 ,22.27226 
178 ,36.4217 ,1.00826 ,2.24937 ,22.07079 
179 ,36.6294 ,1.01028 ,2.24252 ,22.00363 
180 ,36.8219 ,1.01224 ,2.21172 ,21.70143 
181 ,37.0301 ,1.01434 ,2.21172 ,21.70143 
182 ,37.2379 ,1.01637 ,2.18777 ,21.46638 
183 ,37.4461 ,1.01851 ,2.19119 ,21.49996 
184 ,37.6380 ,1.02038 ,2.16039 ,21.19775 
185 ,37.8462 ,1.02246 ,2.16381 ,21.23133 
186 ,38.0541 ,1.02456 ,2.15012 ,21.09702 
187 ,38.2461 ,1.02651 ,2.11932 ,20.79481 
188 ,38.4386 ,1.02841 ,2.08852 ,20.49261 
189 ,38.6307 ,1.03040 ,2.09195 ,20.52619 
190 ,38.8383 ,1.03240 ,2.05430 ,20.15682 
191 ,39.0308 ,1.03435 ,2.06457 ,20.25756 
192 ,39.2390 ,1.03637 ,2.04404 ,20.05609 
193 ,39.4466 ,1.03852 ,2.03035 ,19.92178 
194 ,39.6551 ,1.04052 ,2.00297 ,19.65315 
195 ,39.8472 ,1.04247 ,2.00639 ,19.68673 
196 ,40.0555 ,1.04453 ,1.97559 ,19.38452 
197 ,40.2628 ,1.04664 ,1.96875 ,19.31737 
198 ,40.4711 ,1.04870 ,1.95164 ,19.14948 
199 ,40.6795 ,1.05084 ,1.91742 ,18.81369 
200 ,40.8875 ,1.05288 ,1.92768 ,18.91443 
201 ,41.0958 ,1.05499 ,1.89688 ,18.61222 
202 ,41.3038 ,1.05708 ,1.88662 ,18.51149 
203 ,41.5280 ,1.05922 ,1.87977 ,18.44433 
204 ,41.7200 ,1.06119 ,1.84555 ,18.10855 
205 ,41.9440 ,1.06343 ,1.83528 ,18.00781 
206 ,42.1357 ,1.06536 ,1.81475 ,17.80634 
207 ,42.3600 ,1.06744 ,1.81817 ,17.83992 
208 ,42.5683 ,1.06963 ,1.79764 ,17.63845 
209 ,42.7603 ,1.07157 ,1.76000 ,17.26909 
210 ,42.9523 ,1.07361 ,1.77369 ,17.40340 
211 ,43.1446 ,1.07550 ,1.73946 ,17.06762 
212 ,43.3686 ,1.07761 ,1.73946 ,17.06762 
213 ,43.5766 ,1.07979 ,1.70866 ,16.76542 
214 ,43.7686 ,1.08164 ,1.71551 ,16.83257 
215 ,43.9608 ,1.08372 ,1.69498 ,16.63110 
216 ,44.1530 ,1.08559 ,1.68471 ,16.53037 
217 ,44.3607 ,1.08754 ,1.66760 ,16.36248 
218 ,44.5530 ,1.08951 ,1.65049 ,16.19458 
219 ,44.7611 ,1.09159 ,1.62995 ,15.99311 
220 ,44.9532 ,1.09352 ,1.62653 ,15.95954 
221 ,45.1454 ,1.09547 ,1.59573 ,15.65733 
222 ,45.3536 ,1.09748 ,1.59573 ,15.65733 
223 ,45.5616 ,1.09954 ,1.58204 ,15.52302 
224 ,45.7697 ,1.10169 ,1.56836 ,15.38871 
225 ,45.9776 ,1.10375 ,1.52729 ,14.98577 
226 ,46.1857 ,1.10585 ,1.53413 ,15.05292 
227 ,46.4099 ,1.10812 ,1.52387 ,14.95219 
228 ,46.6177 ,1.11018 ,1.49307 ,14.64998 
229 ,46.8261 ,1.11228 ,1.48280 ,14.54925 
230 ,47.0342 ,1.11435 ,1.46911 ,14.41493 
231 ,47.2423 ,1.11642 ,1.44174 ,14.14631 
232 ,47.4344 ,1.11835 ,1.45200 ,14.24704 
233 ,47.6420 ,1.12042 ,1.40751 ,13.81053 
234 ,47.8346 ,1.12233 ,1.41778 ,13.91126 
235 ,48.0426 ,1.12436 ,1.40751 ,13.81053 
236 ,48.2510 ,1.12649 ,1.38014 ,13.54190 
237 ,48.4585 ,1.12856 ,1.37329 ,13.47474 
238 ,48.6508 ,1.13050 ,1.36645 ,13.40759 
239 ,48.8268 ,1.13238 ,1.34249 ,13.17254 
240 ,49.0191 ,1.13423 ,1.33223 ,13.07180 
241 ,49.2594 ,1.13643 ,1.31854 ,12.93749 
242 ,49.4672 ,1.13863 ,1.29800 ,12.73602 
243 ,49.6753 ,1.14067 ,1.28089 ,12.56813 
244 ,49.8673 ,1.14264 ,1.27747 ,12.53455 
245 ,50.0595 ,1.14457 ,1.25694 ,12.33308 
246 ,50.2515 ,1.14647 ,1.25694 ,12.33308 
247 ,50.4437 ,1.14844 ,1.23983 ,12.16519 
248 ,50.6519 ,1.15049 ,1.22614 ,12.03088 
249 ,50.8437 ,1.15245 ,1.18507 ,11.62794 
250 ,51.0521 ,1.15446 ,1.19876 ,11.76225 
251 ,51.2601 ,1.15660 ,1.17823 ,11.56078 
252 ,51.5001 ,1.15883 ,1.15427 ,11.32573 
253 ,51.7082 ,1.16097 ,1.16112 ,11.39289 
254 ,51.9002 ,1.16297 ,1.13032 ,11.09068 
255 ,52.1083 ,1.16502 ,1.12690 ,11.05710 
256 ,52.3162 ,1.16712 ,1.11321 ,10.92279 
257 ,52.5245 ,1.16918 ,1.08925 ,10.68774 
258 ,52.7167 ,1.17112 ,1.08583 ,10.65416 
259 ,52.9248 ,1.17316 ,1.07214 ,10.51985 
260 ,53.1484 ,1.17539 ,1.06530 ,10.45270 
261 ,53.3409 ,1.17736 ,1.02765 ,10.08333 
262 ,53.5330 ,1.17929 ,1.03792 ,10.18407 
263 ,53.7411 ,1.18133 ,0.99685 ,9.78113 
264 ,53.9331 ,1.18336 ,1.00370 ,9.84829 
265 ,54.1410 ,1.18537 ,0.97974 ,9.61324 
266 ,54.3651 ,1.18751 ,0.98659 ,9.68039 
267 ,54.5734 ,1.18967 ,0.96948 ,9.51250 
268 ,54.7655 ,1.19162 ,0.93525 ,9.17672 
269 ,54.9735 ,1.19367 ,0.95237 ,9.34461 
270 ,55.1656 ,1.19562 ,0.91130 ,8.94167 
271 ,55.3736 ,1.19767 ,0.91472 ,8.97525 
272 ,55.5658 ,1.19960 ,0.88392 ,8.67305 
273 ,55.7898 ,1.20190 ,0.89761 ,8.80736 
274 ,55.9975 ,1.20390 ,0.87023 ,8.53873 
275 ,56.1901 ,1.20584 ,0.84970 ,8.33726 
276 ,56.3978 ,1.20795 ,0.83259 ,8.16937 
277 ,56.6064 ,1.20999 ,0.81890 ,8.03506 
278 ,56.8144 ,1.21210 ,0.82917 ,8.13579 
279 ,57.0224 ,1.21413 ,0.78810 ,7.73285 
280 ,57.2146 ,1.21608 ,0.79837 ,7.83359 
281 ,57.4225 ,1.21817 ,0.77784 ,7.63212 
282 ,57.6146 ,1.22011 ,0.76757 ,7.53138 
283 ,57.8227 ,1.22216 ,0.74019 ,7.26276 
284 ,58.0149 ,1.22413 ,0.74361 ,7.29633 
285 ,58.2229 ,1.22613 ,0.71281 ,6.99413 
286 ,58.4310 ,1.22824 ,0.71281 ,6.99413 
287 ,58.6386 ,1.23025 ,0.69570 ,6.82624 
288 ,58.8311 ,1.23226 ,0.68886 ,6.75908 
289 ,59.0709 ,1.23458 ,0.68886 ,6.75908 
290 ,59.2788 ,1.23669 ,0.65464 ,6.42330 
291 ,59.5034 ,1.23885 ,0.63410 ,6.22183 
292 ,59.7111 ,1.24114 ,0.62726 ,6.15467 
293 ,59.9197 ,1.24315 ,0.62384 ,6.12109 
294 ,60.1278 ,1.24522 ,0.59646 ,5.85247 
295 ,60.3355 ,1.24727 ,0.59304 ,5.81889 
296 ,60.5438 ,1.24937 ,0.57935 ,5.68458 
297 ,60.7679 ,1.25156 ,0.56566 ,5.55026 
298 ,60.9599 ,1.25359 ,0.56224 ,5.51668 
299 ,61.1679 ,1.25560 ,0.53486 ,5.24806 
300 ,61.3762 ,1.25765 ,0.53828 ,5.28164 
301 ,61.5840 ,1.25977 ,0.52117 ,5.11375 
302 ,61.7924 ,1.26184 ,0.50748 ,4.97943 
303 ,62.0164 ,1.26407 ,0.50748 ,4.97943 
304 ,62.2084 ,1.26599 ,0.48011 ,4.71081 
305 ,62.3846 ,1.26786 ,0.48353 ,4.74438 
306 ,62.5764 ,1.26971 ,0.48011 ,4.71081 
307 ,62.7847 ,1.27178 ,0.44588 ,4.37502 
308 ,62.9765 ,1.27366 ,0.44246 ,4.34144 
309 ,63.1850 ,1.27576 ,0.41509 ,4.07282 
310 ,63.3926 ,1.27785 ,0.41509 ,4.07282 
311 ,63.5852 ,1.27976 ,0.40482 ,3.97208 
312 ,63.7932 ,1.28183 ,0.39797 ,3.90493 
313 ,64.0013 ,1.28392 ,0.37744 ,3.70346 
314 ,64.1932 ,1.28584 ,0.37060 ,3.63630 
315 ,64.3854 ,1.28788 ,0.36718 ,3.60272 
316 ,64.5614 ,1.28965 ,0.35691 ,3.50199 
317 ,64.7375 ,1.29137 ,0.33295 ,3.26694 
318 ,64.9291 ,1.29330 ,0.31584 ,3.09905 
319 ,65.1695 ,1.29548 ,0.31926 ,3.13263 
320 ,65.3778 ,1.29773 ,0.30215 ,2.96473 
321 ,65.5859 ,1.29975 ,0.27820 ,2.72969 
322 ,65.7939 ,1.30185 ,0.28847 ,2.83042 
323 ,66.0021 ,1.30391 ,0.27478 ,2.69611 
324 ,66.1939 ,1.30588 ,0.26109 ,2.56179 
325 ,66.4022 ,1.30803 ,0.25082 ,2.46106 
326 ,66.5941 ,1.30985 ,0.24055 ,2.36032 
327 ,66.8024 ,1.31192 ,0.22687 ,2.22601 
328 ,67.0104 ,1.31400 ,0.20291 ,1.99096 
329 ,67.2026 ,1.31597 ,0.20976 ,2.05812 
330 ,67.3943 ,1.31797 ,0.17211 ,1.68876 
331 ,67.6186 ,1.31999 ,0.17553 ,1.72234 
332 ,67.8429 ,1.32218 ,0.16185 ,1.58802 
333 ,68.0350 ,1.32423 ,0.15500 ,1.52087 
334 ,68.2269 ,1.32620 ,0.13105 ,1.28582 
335 ,68.4191 ,1.32810 ,0.13447 ,1.31940 
336 ,68.6590 ,1.33053 ,0.13105 ,1.28582 
337 ,68.8513 ,1.33242 ,0.10367 ,1.01719 
338 ,69.0434 ,1.33439 ,0.11736 ,1.15151 
339 ,69.2672 ,1.33662 ,0.06945 ,0.68141 
340 ,69.4755 ,1.33863 ,0.06602 ,0.64783 
341 ,69.6671 ,1.34053 ,0.05576 ,0.54710 
342 ,69.8600 ,1.34254 ,0.05234 ,0.51352 
343 ,70.0674 ,1.34458 ,0.03522 ,0.34563 
344 ,70.2760 ,1.34667 ,0.02496 ,0.24489 
345 ,70.4840 ,1.34868 ,0.01127 ,0.11058 
346 ,70.6921 ,1.35080 ,0.00443 ,0.04342 
347 ,70.9160 ,1.35303 ,0.00443 ,0.04342 
348 ,71.1242 ,1.35516 ,-0.01269 ,-0.12447 
349 ,71.3323 ,1.35722 ,-0.03322 ,-0.32594 
350 ,71.5403 ,1.35926 ,-0.02637 ,-0.25878 
351 ,71.7480 ,1.36134 ,-0.05717 ,-0.56099 
352 ,71.9404 ,1.36327 ,-0.03664 ,-0.35952 
353 ,72.1482 ,1.36535 ,-0.06402 ,-0.62814 
354 ,72.3405 ,1.36729 ,-0.07771 ,-0.76246 
355 ,72.5486 ,1.36932 ,-0.09824 ,-0.96393 
356 ,72.7406 ,1.37127 ,-0.09482 ,-0.93035 
357 ,72.9324 ,1.37328 ,-0.12219 ,-1.19898 
358 ,73.1408 ,1.37528 ,-0.12219 ,-1.19898 
359 ,73.3489 ,1.37733 ,-0.13931 ,-1.36687 
360 ,73.5730 ,1.37952 ,-0.14615 ,-1.43402 
361 ,73.7970 ,1.38173 ,-0.14615 ,-1.43402 
362 ,74.0052 ,1.38389 ,-0.16326 ,-1.60191 
363 ,74.2291 ,1.38608 ,-0.18037 ,-1.76981 
364 ,74.4372 ,1.38823 ,-0.18037 ,-1.76981 
365 ,74.6295 ,1.39019 ,-0.19406 ,-1.90412 
366 ,74.8214 ,1.39210 ,-0.20090 ,-1.97128 
367 ,75.0135 ,1.39401 ,-0.22486 ,-2.20632 
368 ,75.2053 ,1.39587 ,-0.22144 ,-2.17275 
369 ,75.3976 ,1.39787 ,-0.23513 ,-2.30706 
370 ,75.5898 ,1.39978 ,-0.26250 ,-2.57569 
371 ,75.7820 ,1.40172 ,-0.24881 ,-2.44137 
372 ,76.0060 ,1.40387 ,-0.26935 ,-2.64284 
373 ,76.2141 ,1.40608 ,-0.27619 ,-2.71000 
374 ,76.4223 ,1.40806 ,-0.28646 ,-2.81073 
375 ,76.6461 ,1.41027 ,-0.29330 ,-2.87789 
376 ,76.8384 ,1.41221 ,-0.31041 ,-3.04578 
377 ,77.0461 ,1.41432 ,-0.32410 ,-3.18010 
378 ,77.2221 ,1.41621 ,-0.31726 ,-3.11294 
379 ,77.4142 ,1.41804 ,-0.34806 ,-3.41514 
380 ,77.6064 ,1.41994 ,-0.34464 ,-3.38156 
381 ,77.7986 ,1.42185 ,-0.35148 ,-3.44872 
382 ,78.0067 ,1.42387 ,-0.37201 ,-3.65019 
383 ,78.1990 ,1.42582 ,-0.36175 ,-3.54946 
384 ,78.4068 ,1.42792 ,-0.38570 ,-3.78450 
385 ,78.6312 ,1.43004 ,-0.38912 ,-3.81808 
386 ,78.8232 ,1.43222 ,-0.40623 ,-3.98597 
387 ,79.0154 ,1.43400 ,-0.41650 ,-4.08671 
388 ,79.2075 ,1.43595 ,-0.43703 ,-4.28818 
389 ,79.4154 ,1.43797 ,-0.43361 ,-4.25460 
390 ,79.6236 ,1.44021 ,-0.43019 ,-4.22102 
391 ,79.8155 ,1.44202 ,-0.46099 ,-4.52323 
392 ,80.0075 ,1.44397 ,-0.44730 ,-4.38891 
393 ,80.1997 ,1.44587 ,-0.46441 ,-4.55681 
394 ,80.3919 ,1.44776 ,-0.49179 ,-4.82543 
395 ,80.6000 ,1.44983 ,-0.48494 ,-4.75828 
396 ,80.8238 ,1.45193 ,-0.50890 ,-4.99332 
397 ,81.0321 ,1.45417 ,-0.51574 ,-5.06048 
398 ,81.2241 ,1.45613 ,-0.51574 ,-5.06048 
399 ,81.4323 ,1.45815 ,-0.54997 ,-5.39626 
400 ,81.6242 ,1.46009 ,-0.52943 ,-5.19479 
401 ,81.8325 ,1.46216 ,-0.56708 ,-5.56415 
402 ,82.0406 ,1.46425 ,-0.54997 ,-5.39626 
403 ,82.2486 ,1.46639 ,-0.56365 ,-5.53058 
404 ,82.4566 ,1.46841 ,-0.59445 ,-5.83278 
405 ,82.6647 ,1.47047 ,-0.58419 ,-5.73205 
406 ,82.8564 ,1.47241 ,-0.60472 ,-5.93352 
407 ,83.0649 ,1.47448 ,-0.59788 ,-5.86636 
408 ,83.2731 ,1.47659 ,-0.62525 ,-6.13499 
409 ,83.4969 ,1.47876 ,-0.63894 ,-6.26930 
410 ,83.7052 ,1.48092 ,-0.62868 ,-6.16856 
411 ,83.9132 ,1.48295 ,-0.64579 ,-6.33646 
412 ,84.1214 ,1.48505 ,-0.64236 ,-6.30288 
413 ,84.3293 ,1.48713 ,-0.65263 ,-6.40361 
414 ,84.5216 ,1.48905 ,-0.66974 ,-6.57150 
415 ,84.7294 ,1.49109 ,-0.68001 ,-6.67224 
416 ,84.9217 ,1.49309 ,-0.69370 ,-6.80655 
417 ,85.1296 ,1.49510 ,-0.71423 ,-7.00802 
418 ,85.3219 ,1.49708 ,-0.71081 ,-6.97444 
419 ,85.5299 ,1.49905 ,-0.72792 ,-7.14233 
420 ,85.7380 ,1.50118 ,-0.73134 ,-7.17591 
421 ,85.9461 ,1.50325 ,-0.73476 ,-7.20949 
422 ,86.1537 ,1.50532 ,-0.76214 ,-7.47812 
423 ,86.3623 ,1.50746 ,-0.75187 ,-7.37738 
424 ,86.5864 ,1.50968 ,-0.76898 ,-7.54527 
425 ,86.7944 ,1.51178 ,-0.78610 ,-7.71317 
426 ,87.0024 ,1.51389 ,-0.79636 ,-7.81390 
427 ,87.1945 ,1.51584 ,-0.79978 ,-7.84748 
428 ,87.3863 ,1.51764 ,-0.79294 ,-7.78032 
429 ,87.5786 ,1.51963 ,-0.82716 ,-8.11611 
430 ,87.7866 ,1.52164 ,-0.81347 ,-7.98179 
431 ,87.9949 ,1.52380 ,-0.83401 ,-8.18326 
432 ,88.1868 ,1.52574 ,-0.82374 ,-8.08253 
433 ,88.3946 ,1.52775 ,-0.86481 ,-8.48547 
434 ,88.6191 ,1.52989 ,-0.84427 ,-8.28400 
435 ,88.8273 ,1.53211 ,-0.84769 ,-8.31758 
436 ,89.0350 ,1.53418 ,-0.88192 ,-8.65336 
437 ,89.2269 ,1.53616 ,-0.87507 ,-8.58620 
438 ,89.4194 ,1.53798 ,-0.90245 ,-8.85483 
439 ,89.6274 ,1.54014 ,-0.90587 ,-8.88841 
440 ,89.8356 ,1.54218 ,-0.91272 ,-8.95556 
441 ,90.0436 ,1.54428 ,-0.91614 ,-8.98914 
442 ,90.2676 ,1.54648 ,-0.92298 ,-9.05630 
443 ,90.4758 ,1.54859 ,-0.94694 ,-9.29135 
444 ,90.6838 ,1.55068 ,-0.94009 ,-9.22419 
445 ,90.9078 ,1.55281 ,-0.95378 ,-9.35850 
446 ,91.1162 ,1.55488 ,-0.96405 ,-9.45924 
447 ,91.3243 ,1.55705 ,-0.96063 ,-9.42566 
448 ,91.5324 ,1.55909 ,-0.97089 ,-9.52639 
449 ,91.7400 ,1.56116 ,-0.98116 ,-9.62713 
450 ,91.9324 ,1.56316 ,-0.99827 ,-9.79502 
451 ,92.1246 ,1.56505 ,-1.01196 ,-9.92933 
452 ,92.3323 ,1.56714 ,-1.01880 ,-9.99649 
453 ,92.5247 ,1.56904 ,-1.01880 ,-9.99649 
454 ,92.7166 ,1.57094 ,-1.03591 ,-10.16438 
455 ,92.9409 ,1.57313 ,-1.02222 ,-10.03007 
456 ,93.1486 ,1.57533 ,-1.04276 ,-10.23154 
457 ,93.3411 ,1.57724 ,-1.06329 ,-10.43301 
458 ,93.5490 ,1.57932 ,-1.05645 ,-10.36585 
459 ,93.7732 ,1.58149 ,-1.08382 ,-10.63448 
460 ,93.9809 ,1.58356 ,-1.07698 ,-10.56732 
461 ,94.1730 ,1.58550 ,-1.09409 ,-10.73521 
462 ,94.3654 ,1.58744 ,-1.09751 ,-10.76879 
