Data stamp = , 05-05-2022 06:37:41 678

Calibration Values: 
Slope = , 26.54 , g/V 
Offset Voltage at no contact = , -0.501760 , V 

No , Time , Stage Position ,   Mass , Force 
   ,  (s) ,      (mm)      ,   (g)  , (mN)  

1 ,0.0000 ,0.64937 ,5.24034 ,51.41822 
2 ,0.2242 ,0.64946 ,5.25403 ,51.55254 
3 ,0.5770 ,0.65045 ,5.25745 ,51.58611 
4 ,0.8170 ,0.65231 ,5.26772 ,51.68685 
5 ,1.0410 ,0.65446 ,5.26772 ,51.68685 
6 ,1.2327 ,0.65640 ,5.24376 ,51.45180 
7 ,1.4411 ,0.65841 ,5.27798 ,51.78758 
8 ,1.6490 ,0.66055 ,5.24718 ,51.48538 
9 ,1.8413 ,0.66247 ,5.22665 ,51.28391 
10 ,2.0334 ,0.66444 ,5.21296 ,51.14960 
11 ,2.2412 ,0.66647 ,5.20954 ,51.11602 
12 ,2.4176 ,0.66839 ,5.16163 ,50.64592 
13 ,2.6258 ,0.67029 ,5.16505 ,50.67950 
14 ,2.8339 ,0.67239 ,5.12056 ,50.24298 
15 ,3.0414 ,0.67444 ,5.12741 ,50.31014 
16 ,3.2337 ,0.67639 ,5.09661 ,50.00793 
17 ,3.4415 ,0.67848 ,5.07265 ,49.77289 
18 ,3.6662 ,0.68075 ,5.06581 ,49.70573 
19 ,3.8902 ,0.68294 ,5.02474 ,49.30279 
20 ,4.0821 ,0.68486 ,5.01448 ,49.20205 
21 ,4.2744 ,0.68686 ,4.99052 ,48.96701 
22 ,4.4660 ,0.68872 ,4.97341 ,48.79911 
23 ,4.6746 ,0.69081 ,4.94946 ,48.56407 
24 ,4.8826 ,0.69289 ,4.93919 ,48.46333 
25 ,5.0906 ,0.69490 ,4.92550 ,48.32902 
26 ,5.2987 ,0.69703 ,4.88786 ,47.95966 
27 ,5.5069 ,0.69912 ,4.88444 ,47.92608 
28 ,5.7149 ,0.70130 ,4.83995 ,47.48956 
29 ,5.9230 ,0.70321 ,4.83652 ,47.45598 
30 ,6.1151 ,0.70525 ,4.80230 ,47.12020 
31 ,6.3231 ,0.70725 ,4.78519 ,46.95231 
32 ,6.5154 ,0.70926 ,4.77150 ,46.81800 
33 ,6.7395 ,0.71142 ,4.74070 ,46.51579 
34 ,6.9475 ,0.71352 ,4.75097 ,46.61653 
35 ,7.1556 ,0.71563 ,4.72017 ,46.31432 
36 ,7.3637 ,0.71773 ,4.70990 ,46.21359 
37 ,7.5718 ,0.71981 ,4.67226 ,45.84422 
38 ,7.7794 ,0.72178 ,4.64831 ,45.60918 
39 ,7.9881 ,0.72395 ,4.64831 ,45.60918 
40 ,8.1958 ,0.72598 ,4.62435 ,45.37413 
41 ,8.4038 ,0.72803 ,4.61408 ,45.27339 
42 ,8.5962 ,0.73002 ,4.56960 ,44.83688 
43 ,8.8043 ,0.73204 ,4.56275 ,44.76972 
44 ,9.0120 ,0.73413 ,4.54906 ,44.63541 
45 ,9.2205 ,0.73626 ,4.52511 ,44.40036 
46 ,9.4288 ,0.73838 ,4.52169 ,44.36678 
47 ,9.6685 ,0.74058 ,4.48746 ,44.03100 
48 ,9.8767 ,0.74280 ,4.44982 ,43.66163 
49 ,10.0848 ,0.74494 ,4.44982 ,43.66163 
50 ,10.2769 ,0.74678 ,4.41902 ,43.35943 
51 ,10.4850 ,0.74889 ,4.39849 ,43.15796 
52 ,10.6931 ,0.75092 ,4.38480 ,43.02365 
53 ,10.9172 ,0.75321 ,4.35742 ,42.75502 
54 ,11.1088 ,0.75515 ,4.36084 ,42.78860 
55 ,11.3012 ,0.75704 ,4.31636 ,42.35208 
56 ,11.5093 ,0.75914 ,4.31978 ,42.38566 
57 ,11.7012 ,0.76105 ,4.28556 ,42.04988 
58 ,11.9096 ,0.76313 ,4.27871 ,41.98272 
59 ,12.1176 ,0.76520 ,4.24791 ,41.68051 
60 ,12.3259 ,0.76727 ,4.23422 ,41.54620 
61 ,12.5500 ,0.76950 ,4.22053 ,41.41189 
62 ,12.7740 ,0.77170 ,4.18974 ,41.10968 
63 ,12.9820 ,0.77380 ,4.15551 ,40.77390 
64 ,13.1742 ,0.77577 ,4.16920 ,40.90821 
65 ,13.3822 ,0.77780 ,4.13840 ,40.60601 
66 ,13.5900 ,0.77994 ,4.12471 ,40.47170 
67 ,13.7823 ,0.78188 ,4.09049 ,40.13591 
68 ,13.9745 ,0.78379 ,4.08365 ,40.06876 
69 ,14.1665 ,0.78572 ,4.05969 ,39.83371 
70 ,14.3901 ,0.78781 ,4.04258 ,39.66582 
71 ,14.5825 ,0.78985 ,4.00836 ,39.33003 
72 ,14.7907 ,0.79192 ,4.00836 ,39.33003 
73 ,14.9989 ,0.79399 ,3.97072 ,38.96067 
74 ,15.2067 ,0.79609 ,3.97414 ,38.99425 
75 ,15.4148 ,0.79817 ,3.94334 ,38.69205 
76 ,15.6233 ,0.80030 ,3.91596 ,38.42342 
77 ,15.8309 ,0.80236 ,3.92965 ,38.55773 
78 ,16.0393 ,0.80438 ,3.87147 ,37.98690 
79 ,16.2474 ,0.80647 ,3.87832 ,38.05406 
80 ,16.4714 ,0.80874 ,3.86121 ,37.88617 
81 ,16.6955 ,0.81100 ,3.82356 ,37.51681 
82 ,16.8875 ,0.81302 ,3.80645 ,37.34891 
83 ,17.0796 ,0.81488 ,3.78592 ,37.14744 
84 ,17.2878 ,0.81695 ,3.78592 ,37.14744 
85 ,17.4958 ,0.81897 ,3.75854 ,36.87882 
86 ,17.6875 ,0.82092 ,3.73801 ,36.67735 
87 ,17.8801 ,0.82282 ,3.71063 ,36.40872 
88 ,18.1041 ,0.82502 ,3.70379 ,36.34157 
89 ,18.3280 ,0.82728 ,3.67983 ,36.10652 
90 ,18.5200 ,0.82928 ,3.66957 ,36.00578 
91 ,18.7120 ,0.83119 ,3.66272 ,35.93863 
92 ,18.9365 ,0.83324 ,3.62508 ,35.56926 
93 ,19.1604 ,0.83563 ,3.60454 ,35.36779 
94 ,19.3686 ,0.83766 ,3.59428 ,35.26706 
95 ,19.5767 ,0.83977 ,3.57032 ,35.03201 
96 ,19.7688 ,0.84180 ,3.53268 ,34.66265 
97 ,19.9769 ,0.84376 ,3.53610 ,34.69623 
98 ,20.1689 ,0.84583 ,3.50530 ,34.39402 
99 ,20.3611 ,0.84769 ,3.49161 ,34.25971 
100 ,20.5692 ,0.84971 ,3.49161 ,34.25971 
101 ,20.7772 ,0.85172 ,3.46424 ,33.99108 
102 ,21.0011 ,0.85398 ,3.43686 ,33.72246 
103 ,21.1934 ,0.85595 ,3.43686 ,33.72246 
104 ,21.4014 ,0.85795 ,3.38895 ,33.25236 
105 ,21.6093 ,0.86009 ,3.37868 ,33.15163 
106 ,21.8176 ,0.86220 ,3.37184 ,33.08447 
107 ,22.0253 ,0.86424 ,3.35130 ,32.88300 
108 ,22.2179 ,0.86620 ,3.33419 ,32.71511 
109 ,22.4098 ,0.86818 ,3.31024 ,32.48006 
110 ,22.6019 ,0.87002 ,3.29655 ,32.34575 
111 ,22.8100 ,0.87206 ,3.29313 ,32.31217 
112 ,23.0182 ,0.87421 ,3.26575 ,32.04354 
113 ,23.2100 ,0.87620 ,3.24180 ,31.80849 
114 ,23.4183 ,0.87818 ,3.21442 ,31.53987 
115 ,23.6104 ,0.88012 ,3.21442 ,31.53987 
116 ,23.8186 ,0.88221 ,3.19388 ,31.33840 
117 ,24.0266 ,0.88427 ,3.15624 ,30.96904 
118 ,24.2022 ,0.88616 ,3.14940 ,30.90188 
119 ,24.3947 ,0.88797 ,3.14597 ,30.86830 
120 ,24.5868 ,0.88991 ,3.10149 ,30.43178 
121 ,24.7949 ,0.89195 ,3.10833 ,30.49894 
122 ,25.0190 ,0.89423 ,3.08780 ,30.29747 
123 ,25.2272 ,0.89627 ,3.06384 ,30.06242 
124 ,25.4349 ,0.89832 ,3.05358 ,29.96169 
125 ,25.6431 ,0.90045 ,3.02278 ,29.65948 
126 ,25.8512 ,0.90245 ,3.01935 ,29.62590 
127 ,26.0594 ,0.90463 ,2.99882 ,29.42444 
128 ,26.2676 ,0.90664 ,2.95776 ,29.02150 
129 ,26.4756 ,0.90870 ,2.96460 ,29.08865 
130 ,26.6835 ,0.91087 ,2.94749 ,28.92076 
131 ,26.9073 ,0.91301 ,2.92353 ,28.68571 
132 ,27.1159 ,0.91505 ,2.91327 ,28.58498 
133 ,27.3239 ,0.91723 ,2.87905 ,28.24919 
134 ,27.5156 ,0.91912 ,2.88589 ,28.31635 
135 ,27.7082 ,0.92109 ,2.85167 ,27.98057 
136 ,27.9322 ,0.92330 ,2.85167 ,27.98057 
137 ,28.1403 ,0.92536 ,2.81745 ,27.64479 
138 ,28.3484 ,0.92746 ,2.79349 ,27.40974 
139 ,28.5560 ,0.92951 ,2.80034 ,27.47689 
140 ,28.7646 ,0.93164 ,2.75243 ,27.00680 
141 ,28.9883 ,0.93384 ,2.73531 ,26.83891 
142 ,29.1967 ,0.93594 ,2.73189 ,26.80533 
143 ,29.4047 ,0.93804 ,2.70109 ,26.50312 
144 ,29.5966 ,0.93992 ,2.70452 ,26.53670 
145 ,29.8049 ,0.94197 ,2.67372 ,26.23450 
146 ,30.0130 ,0.94409 ,2.67372 ,26.23450 
147 ,30.2051 ,0.94609 ,2.64634 ,25.96587 
148 ,30.4133 ,0.94810 ,2.63607 ,25.86514 
149 ,30.6374 ,0.95034 ,2.61554 ,25.66367 
150 ,30.8294 ,0.95235 ,2.58816 ,25.39504 
151 ,31.0050 ,0.95416 ,2.58816 ,25.39504 
152 ,31.1972 ,0.95601 ,2.57789 ,25.29430 
153 ,31.4052 ,0.95804 ,2.53683 ,24.89136 
154 ,31.5976 ,0.95996 ,2.54025 ,24.92494 
155 ,31.8057 ,0.96202 ,2.50945 ,24.62274 
156 ,32.0458 ,0.96428 ,2.49918 ,24.52200 
157 ,32.2540 ,0.96652 ,2.48892 ,24.42127 
158 ,32.4620 ,0.96858 ,2.43416 ,23.88402 
159 ,32.6861 ,0.97081 ,2.43074 ,23.85044 
160 ,32.8942 ,0.97285 ,2.43416 ,23.88402 
161 ,33.1020 ,0.97496 ,2.40679 ,23.61539 
162 ,33.3102 ,0.97703 ,2.37941 ,23.34676 
163 ,33.5025 ,0.97898 ,2.37599 ,23.31318 
164 ,33.7106 ,0.98105 ,2.35888 ,23.14529 
165 ,33.9346 ,0.98317 ,2.33150 ,22.87667 
166 ,34.1425 ,0.98538 ,2.32465 ,22.80951 
167 ,34.3346 ,0.98732 ,2.30754 ,22.64162 
168 ,34.5270 ,0.98926 ,2.27674 ,22.33941 
169 ,34.7349 ,0.99134 ,2.26648 ,22.23868 
170 ,34.9431 ,0.99340 ,2.24594 ,22.03721 
171 ,35.1508 ,0.99547 ,2.24252 ,22.00363 
172 ,35.3593 ,0.99757 ,2.22883 ,21.86932 
173 ,35.5674 ,0.99961 ,2.20146 ,21.60069 
174 ,35.7754 ,1.00166 ,2.20488 ,21.63427 
175 ,35.9676 ,1.00361 ,2.16723 ,21.26491 
176 ,36.2074 ,1.00605 ,2.14328 ,21.02986 
177 ,36.3835 ,1.00790 ,2.14328 ,21.02986 
178 ,36.5757 ,1.00969 ,2.13644 ,20.96270 
179 ,36.7679 ,1.01162 ,2.09879 ,20.59334 
180 ,36.9920 ,1.01385 ,2.09195 ,20.52619 
181 ,37.2001 ,1.01593 ,2.07484 ,20.35829 
182 ,37.3917 ,1.01786 ,2.05088 ,20.12325 
183 ,37.6002 ,1.01995 ,2.04746 ,20.08967 
184 ,37.8244 ,1.02213 ,2.02693 ,19.88820 
185 ,38.0323 ,1.02420 ,2.02008 ,19.82104 
186 ,38.2247 ,1.02619 ,1.99270 ,19.55241 
187 ,38.4166 ,1.02822 ,1.98586 ,19.48526 
188 ,38.6084 ,1.03003 ,1.96190 ,19.25021 
189 ,38.8006 ,1.03198 ,1.95506 ,19.18305 
190 ,38.9927 ,1.03392 ,1.93453 ,18.98158 
191 ,39.2006 ,1.03596 ,1.92426 ,18.88085 
192 ,39.3930 ,1.03784 ,1.91399 ,18.78011 
193 ,39.6006 ,1.03994 ,1.89346 ,18.57864 
194 ,39.8089 ,1.04199 ,1.86608 ,18.31002 
195 ,40.0333 ,1.04421 ,1.85924 ,18.24286 
196 ,40.2414 ,1.04638 ,1.83871 ,18.04139 
197 ,40.4494 ,1.04838 ,1.80449 ,17.70561 
198 ,40.6413 ,1.05034 ,1.81475 ,17.80634 
199 ,40.8656 ,1.05257 ,1.78053 ,17.47056 
200 ,41.0898 ,1.05483 ,1.76000 ,17.26909 
201 ,41.2976 ,1.05693 ,1.77369 ,17.40340 
202 ,41.5059 ,1.05896 ,1.73946 ,17.06762 
203 ,41.6980 ,1.06091 ,1.74289 ,17.10120 
204 ,41.9060 ,1.06298 ,1.70524 ,16.73184 
205 ,42.0981 ,1.06502 ,1.70182 ,16.69826 
206 ,42.2900 ,1.06684 ,1.68471 ,16.53037 
207 ,42.5144 ,1.06906 ,1.68129 ,16.49679 
208 ,42.7220 ,1.07111 ,1.65049 ,16.19458 
209 ,42.9141 ,1.07310 ,1.64707 ,16.16101 
210 ,43.1225 ,1.07517 ,1.64022 ,16.09385 
211 ,43.3467 ,1.07734 ,1.61284 ,15.82522 
212 ,43.5388 ,1.07935 ,1.60258 ,15.72449 
213 ,43.7469 ,1.08143 ,1.58204 ,15.52302 
214 ,43.9549 ,1.08340 ,1.57862 ,15.48944 
215 ,44.1630 ,1.08557 ,1.55809 ,15.28797 
216 ,44.3709 ,1.08766 ,1.52729 ,14.98577 
217 ,44.5953 ,1.08976 ,1.52045 ,14.91861 
218 ,44.8192 ,1.09209 ,1.51360 ,14.85145 
219 ,45.0114 ,1.09403 ,1.48280 ,14.54925 
220 ,45.2354 ,1.09623 ,1.49307 ,14.64998 
221 ,45.4277 ,1.09822 ,1.45885 ,14.31420 
222 ,45.6356 ,1.10028 ,1.45200 ,14.24704 
223 ,45.8437 ,1.10229 ,1.43831 ,14.11273 
224 ,46.0517 ,1.10448 ,1.41778 ,13.91126 
225 ,46.2593 ,1.10649 ,1.41094 ,13.84410 
226 ,46.4519 ,1.10843 ,1.38356 ,13.57548 
227 ,46.6761 ,1.11067 ,1.39040 ,13.64263 
228 ,46.8841 ,1.11271 ,1.36303 ,13.37401 
229 ,47.0760 ,1.11465 ,1.35618 ,13.30685 
230 ,47.2844 ,1.11678 ,1.34934 ,13.23969 
231 ,47.5241 ,1.11904 ,1.31854 ,12.93749 
232 ,47.7324 ,1.12118 ,1.30485 ,12.80318 
233 ,47.9403 ,1.12328 ,1.31169 ,12.87033 
234 ,48.1324 ,1.12519 ,1.27747 ,12.53455 
235 ,48.3086 ,1.12714 ,1.27405 ,12.50097 
236 ,48.5003 ,1.12891 ,1.26720 ,12.43381 
237 ,48.6766 ,1.13079 ,1.23983 ,12.16519 
238 ,48.8687 ,1.13258 ,1.22956 ,12.06445 
239 ,49.0609 ,1.13453 ,1.22614 ,12.03088 
240 ,49.2365 ,1.13640 ,1.19876 ,11.76225 
241 ,49.4445 ,1.13835 ,1.20903 ,11.86298 
242 ,49.6525 ,1.14045 ,1.17823 ,11.56078 
243 ,49.8771 ,1.14255 ,1.17138 ,11.49362 
244 ,50.1172 ,1.14504 ,1.15770 ,11.35931 
245 ,50.3093 ,1.14695 ,1.12347 ,11.02353 
246 ,50.5014 ,1.14890 ,1.12690 ,11.05710 
247 ,50.6931 ,1.15084 ,1.09610 ,10.75490 
248 ,50.8857 ,1.15272 ,1.09952 ,10.78848 
249 ,51.0937 ,1.15479 ,1.06530 ,10.45270 
250 ,51.2856 ,1.15676 ,1.06872 ,10.48627 
251 ,51.4939 ,1.15883 ,1.03792 ,10.18407 
252 ,51.6858 ,1.16077 ,1.04134 ,10.21765 
253 ,51.8940 ,1.16287 ,1.02423 ,10.04976 
254 ,52.1019 ,1.16491 ,1.02081 ,10.01618 
255 ,52.3103 ,1.16702 ,0.99685 ,9.78113 
256 ,52.5183 ,1.16913 ,0.99343 ,9.74755 
257 ,52.7104 ,1.17102 ,0.96948 ,9.51250 
258 ,52.9024 ,1.17287 ,0.96263 ,9.44535 
259 ,53.1106 ,1.17499 ,0.94210 ,9.24388 
260 ,53.3188 ,1.17703 ,0.95579 ,9.37819 
261 ,53.5269 ,1.17919 ,0.92841 ,9.10956 
262 ,53.7188 ,1.18115 ,0.91130 ,8.94167 
263 ,53.9105 ,1.18300 ,0.89419 ,8.77378 
264 ,54.1191 ,1.18508 ,0.88392 ,8.67305 
265 ,54.3430 ,1.18724 ,0.88734 ,8.70662 
266 ,54.5350 ,1.18926 ,0.84970 ,8.33726 
267 ,54.7269 ,1.19125 ,0.85654 ,8.40442 
268 ,54.9197 ,1.19307 ,0.84286 ,8.27011 
269 ,55.1272 ,1.19515 ,0.83259 ,8.16937 
270 ,55.3356 ,1.19725 ,0.81206 ,7.96790 
271 ,55.5275 ,1.19923 ,0.81890 ,8.03506 
272 ,55.7358 ,1.20120 ,0.78810 ,7.73285 
273 ,55.9435 ,1.20327 ,0.78468 ,7.69927 
274 ,56.1514 ,1.20541 ,0.76072 ,7.46423 
275 ,56.3597 ,1.20748 ,0.75730 ,7.43065 
276 ,56.5840 ,1.20970 ,0.73677 ,7.22918 
277 ,56.8082 ,1.21190 ,0.72650 ,7.12844 
278 ,57.0162 ,1.21404 ,0.70939 ,6.96055 
279 ,57.2083 ,1.21595 ,0.70597 ,6.92697 
280 ,57.5285 ,1.21858 ,0.68886 ,6.75908 
281 ,57.7366 ,1.22130 ,0.65806 ,6.45688 
282 ,57.9447 ,1.22330 ,0.66490 ,6.52403 
283 ,58.1527 ,1.22541 ,0.63410 ,6.22183 
284 ,58.3764 ,1.22763 ,0.62726 ,6.15467 
285 ,58.5847 ,1.22974 ,0.62726 ,6.15467 
286 ,58.7929 ,1.23178 ,0.59304 ,5.81889 
287 ,59.0171 ,1.23388 ,0.59988 ,5.88605 
288 ,59.2252 ,1.23605 ,0.58619 ,5.75173 
289 ,59.4331 ,1.23814 ,0.56224 ,5.51668 
290 ,59.6574 ,1.24039 ,0.54513 ,5.34879 
291 ,59.8813 ,1.24261 ,0.54171 ,5.31522 
292 ,60.0895 ,1.24469 ,0.52802 ,5.18090 
293 ,60.2816 ,1.24668 ,0.51775 ,5.08017 
294 ,60.4898 ,1.24869 ,0.50406 ,4.94585 
295 ,60.6977 ,1.25076 ,0.49722 ,4.87870 
296 ,60.8899 ,1.25275 ,0.49037 ,4.81154 
297 ,61.0818 ,1.25481 ,0.45957 ,4.50934 
298 ,61.2740 ,1.25657 ,0.45615 ,4.47576 
299 ,61.4660 ,1.25853 ,0.46300 ,4.54291 
300 ,61.6737 ,1.26058 ,0.43220 ,4.24071 
301 ,61.8983 ,1.26270 ,0.43562 ,4.27429 
302 ,62.1063 ,1.26490 ,0.42877 ,4.20713 
303 ,62.3144 ,1.26695 ,0.39797 ,3.90493 
304 ,62.5223 ,1.26905 ,0.40140 ,3.93850 
305 ,62.7305 ,1.27108 ,0.37744 ,3.70346 
306 ,62.9063 ,1.27304 ,0.38429 ,3.77061 
307 ,63.1148 ,1.27488 ,0.35349 ,3.46841 
308 ,63.3229 ,1.27702 ,0.34664 ,3.40125 
309 ,63.5150 ,1.27898 ,0.32611 ,3.19978 
310 ,63.7226 ,1.28103 ,0.32611 ,3.19978 
311 ,63.9145 ,1.28303 ,0.30900 ,3.03189 
312 ,64.1228 ,1.28504 ,0.30900 ,3.03189 
313 ,64.2993 ,1.28698 ,0.28504 ,2.79684 
314 ,64.5071 ,1.28890 ,0.28504 ,2.79684 
315 ,64.7155 ,1.29100 ,0.25082 ,2.46106 
316 ,64.9076 ,1.29294 ,0.26109 ,2.56179 
317 ,65.0992 ,1.29482 ,0.24398 ,2.39390 
318 ,65.2916 ,1.29674 ,0.23713 ,2.32675 
319 ,65.4998 ,1.29884 ,0.21660 ,2.12528 
320 ,65.7079 ,1.30088 ,0.22344 ,2.19243 
321 ,65.9160 ,1.30303 ,0.19949 ,1.95738 
322 ,66.1235 ,1.30505 ,0.20976 ,2.05812 
323 ,66.3796 ,1.30747 ,0.19607 ,1.92381 
324 ,66.5877 ,1.30973 ,0.17896 ,1.75592 
325 ,66.7802 ,1.31167 ,0.14816 ,1.45371 
326 ,67.0679 ,1.31442 ,0.15158 ,1.48729 
327 ,67.2922 ,1.31677 ,0.12762 ,1.25224 
328 ,67.5163 ,1.31903 ,0.11393 ,1.11793 
329 ,67.7245 ,1.32108 ,0.11051 ,1.08435 
330 ,67.9328 ,1.32318 ,0.09340 ,0.91646 
331 ,68.1564 ,1.32530 ,0.07287 ,0.71499 
332 ,68.3646 ,1.32748 ,0.07629 ,0.74857 
333 ,68.6210 ,1.33005 ,0.05576 ,0.54710 
334 ,68.9089 ,1.33270 ,0.04549 ,0.44636 
335 ,69.1333 ,1.33524 ,0.03180 ,0.31205 
336 ,69.4050 ,1.33764 ,0.01811 ,0.17773 
337 ,69.6131 ,1.33990 ,-0.00584 ,-0.05731 
338 ,69.8213 ,1.34204 ,-0.00242 ,-0.02373 
339 ,70.0451 ,1.34430 ,-0.02637 ,-0.25878 
340 ,70.2536 ,1.34637 ,-0.01269 ,-0.12447 
341 ,70.5254 ,1.34906 ,-0.02637 ,-0.25878 
342 ,70.7495 ,1.35129 ,-0.06402 ,-0.62814 
343 ,70.9580 ,1.35337 ,-0.07428 ,-0.72888 
344 ,71.1976 ,1.35583 ,-0.07086 ,-0.69530 
345 ,71.4060 ,1.35795 ,-0.07428 ,-0.72888 
346 ,71.6938 ,1.36060 ,-0.09482 ,-0.93035 
347 ,71.9340 ,1.36309 ,-0.12219 ,-1.19898 
348 ,72.1743 ,1.36558 ,-0.12904 ,-1.26613 
349 ,72.4302 ,1.36806 ,-0.13588 ,-1.33329 
350 ,72.6388 ,1.37019 ,-0.15299 ,-1.50118 
351 ,72.8783 ,1.37258 ,-0.17011 ,-1.66907 
352 ,73.1345 ,1.37500 ,-0.18722 ,-1.83696 
353 ,73.4066 ,1.37777 ,-0.19064 ,-1.87054 
354 ,73.6306 ,1.38013 ,-0.20433 ,-2.00485 
355 ,73.8393 ,1.38217 ,-0.21459 ,-2.10559 
356 ,74.0788 ,1.38472 ,-0.22144 ,-2.17275 
357 ,74.3029 ,1.38684 ,-0.22144 ,-2.17275 
358 ,74.5276 ,1.38904 ,-0.23513 ,-2.30706 
359 ,74.7990 ,1.39169 ,-0.24539 ,-2.40779 
360 ,75.0231 ,1.39405 ,-0.25224 ,-2.47495 
361 ,75.2313 ,1.39609 ,-0.27619 ,-2.71000 
362 ,75.4393 ,1.39818 ,-0.30015 ,-2.94505 
363 ,75.6474 ,1.40023 ,-0.28646 ,-2.81073 
364 ,75.8557 ,1.40234 ,-0.31726 ,-3.11294 
365 ,76.0479 ,1.40437 ,-0.31041 ,-3.04578 
366 ,76.2397 ,1.40621 ,-0.32068 ,-3.14652 
367 ,76.4478 ,1.40820 ,-0.34464 ,-3.38156 
368 ,76.6878 ,1.41055 ,-0.34806 ,-3.41514 
369 ,76.9281 ,1.41298 ,-0.35148 ,-3.44872 
370 ,77.1522 ,1.41533 ,-0.36859 ,-3.61661 
371 ,77.3922 ,1.41769 ,-0.37886 ,-3.71735 
372 ,77.6322 ,1.42005 ,-0.39255 ,-3.85166 
373 ,77.8563 ,1.42230 ,-0.39939 ,-3.91882 
374 ,78.0643 ,1.42443 ,-0.39939 ,-3.91882 
375 ,78.2564 ,1.42638 ,-0.42335 ,-4.15387 
376 ,78.4646 ,1.42846 ,-0.42677 ,-4.18744 
377 ,78.7047 ,1.43074 ,-0.44730 ,-4.38891 
378 ,78.9128 ,1.43295 ,-0.44730 ,-4.38891 
379 ,79.1370 ,1.43514 ,-0.44730 ,-4.38891 
380 ,79.3771 ,1.43756 ,-0.48494 ,-4.75828 
381 ,79.5850 ,1.43964 ,-0.47468 ,-4.65754 
382 ,79.7935 ,1.44177 ,-0.48152 ,-4.72470 
383 ,80.0334 ,1.44404 ,-0.50206 ,-4.92617 
384 ,80.2576 ,1.44629 ,-0.50890 ,-4.99332 
385 ,80.4657 ,1.44840 ,-0.50890 ,-4.99332 
386 ,80.6735 ,1.45046 ,-0.52943 ,-5.19479 
387 ,80.8817 ,1.45259 ,-0.53970 ,-5.29553 
388 ,81.0897 ,1.45473 ,-0.54654 ,-5.36268 
389 ,81.2979 ,1.45677 ,-0.57050 ,-5.59773 
390 ,81.5219 ,1.45898 ,-0.57392 ,-5.63131 
391 ,81.7302 ,1.46104 ,-0.55339 ,-5.42984 
392 ,81.9380 ,1.46318 ,-0.58419 ,-5.73205 
393 ,82.1622 ,1.46538 ,-0.59445 ,-5.83278 
394 ,82.3543 ,1.46738 ,-0.60130 ,-5.89994 
395 ,82.5624 ,1.46942 ,-0.61841 ,-6.06783 
396 ,82.7707 ,1.47145 ,-0.61156 ,-6.00067 
397 ,82.9785 ,1.47356 ,-0.64921 ,-6.37003 
398 ,83.2025 ,1.47579 ,-0.64921 ,-6.37003 
399 ,83.4110 ,1.47776 ,-0.65605 ,-6.43719 
400 ,83.6667 ,1.48043 ,-0.65947 ,-6.47077 
401 ,83.8910 ,1.48263 ,-0.66290 ,-6.50435 
402 ,84.1309 ,1.48510 ,-0.67659 ,-6.63866 
403 ,84.3550 ,1.48728 ,-0.69370 ,-6.80655 
404 ,84.5793 ,1.48951 ,-0.70739 ,-6.94086 
405 ,84.8194 ,1.49197 ,-0.72450 ,-7.10876 
406 ,85.0274 ,1.49407 ,-0.72792 ,-7.14233 
407 ,85.2354 ,1.49606 ,-0.74161 ,-7.27665 
408 ,85.4596 ,1.49834 ,-0.76214 ,-7.47812 
409 ,85.6677 ,1.50042 ,-0.74503 ,-7.31023 
410 ,85.8596 ,1.50242 ,-0.76898 ,-7.54527 
411 ,86.0836 ,1.50456 ,-0.77241 ,-7.57885 
412 ,86.2598 ,1.50647 ,-0.76898 ,-7.54527 
413 ,86.4519 ,1.50837 ,-0.77925 ,-7.64601 
414 ,86.6919 ,1.51063 ,-0.78952 ,-7.74674 
415 ,86.8681 ,1.51258 ,-0.81005 ,-7.94821 
416 ,87.0603 ,1.51443 ,-0.81689 ,-8.01537 
417 ,87.2682 ,1.51647 ,-0.81347 ,-7.98179 
418 ,87.4763 ,1.51848 ,-0.83401 ,-8.18326 
419 ,87.6843 ,1.52060 ,-0.81689 ,-8.01537 
420 ,87.8766 ,1.52268 ,-0.82374 ,-8.08253 
421 ,88.0848 ,1.52459 ,-0.85454 ,-8.38473 
422 ,88.3087 ,1.52678 ,-0.84769 ,-8.31758 
423 ,88.5328 ,1.52901 ,-0.87507 ,-8.58620 
424 ,88.7408 ,1.53115 ,-0.89903 ,-8.82125 
425 ,88.9810 ,1.53354 ,-0.90587 ,-8.88841 
426 ,89.1891 ,1.53561 ,-0.87849 ,-8.61978 
427 ,89.3972 ,1.53775 ,-0.90929 ,-8.92198 
428 ,89.6051 ,1.53982 ,-0.90587 ,-8.88841 
429 ,89.8134 ,1.54185 ,-0.92298 ,-9.05630 
430 ,90.0053 ,1.54389 ,-0.92983 ,-9.12345 
431 ,90.2134 ,1.54594 ,-0.95378 ,-9.35850 
432 ,90.4218 ,1.54794 ,-0.97089 ,-9.52639 
433 ,90.6457 ,1.55018 ,-0.95036 ,-9.32492 
434 ,90.8539 ,1.55230 ,-0.97774 ,-9.59355 
435 ,91.0458 ,1.55429 ,-0.97431 ,-9.55997 
436 ,91.2379 ,1.55620 ,-0.98116 ,-9.62713 
437 ,91.4461 ,1.55814 ,-0.98458 ,-9.66071 
438 ,91.6382 ,1.56014 ,-1.01196 ,-9.92933 
439 ,91.8461 ,1.56214 ,-0.99827 ,-9.79502 
440 ,92.0544 ,1.56423 ,-1.01538 ,-9.96291 
441 ,92.2463 ,1.56633 ,-1.02565 ,-10.06365 
442 ,92.4384 ,1.56814 ,-1.04276 ,-10.23154 
443 ,92.6306 ,1.57014 ,-1.03934 ,-10.19796 
444 ,92.8387 ,1.57206 ,-1.05645 ,-10.36585 
445 ,93.0467 ,1.57416 ,-1.05302 ,-10.33227 
446 ,93.2548 ,1.57629 ,-1.06329 ,-10.43301 
447 ,93.4633 ,1.57839 ,-1.08382 ,-10.63448 
448 ,93.6709 ,1.58046 ,-1.07356 ,-10.53374 
449 ,93.8957 ,1.58266 ,-1.10093 ,-10.80237 
450 ,94.1356 ,1.58512 ,-1.09067 ,-10.70163 
451 ,94.3436 ,1.58715 ,-1.10778 ,-10.86953 
452 ,94.5838 ,1.58946 ,-1.10778 ,-10.86953 
453 ,94.7753 ,1.59156 ,-1.12831 ,-11.07100 
454 ,94.9674 ,1.59353 ,-1.15227 ,-11.30604 
455 ,95.1759 ,1.59550 ,-1.15569 ,-11.33962 
456 ,95.4156 ,1.59777 ,-1.16596 ,-11.44036 
457 ,95.6401 ,1.60008 ,-1.16938 ,-11.47394 
458 ,95.8963 ,1.60258 ,-1.18991 ,-11.67541 
459 ,96.1200 ,1.60493 ,-1.17964 ,-11.57467 
460 ,96.3125 ,1.60690 ,-1.16253 ,-11.40678 
461 ,96.5203 ,1.60894 ,-1.20360 ,-11.80972 
