Data stamp = , 05-05-2022 12:09:41 909

Calibration Values: 
Slope = , 26.54 , g/V 
Offset Voltage at no contact = , -0.501760 , V 

No , Time , Stage Position ,   Mass , Force 
   ,  (s) ,      (mm)      ,   (g)  , (mN)  

1 ,0.0000 ,0.64940 ,5.16163 ,50.64592 
2 ,0.2341 ,0.64950 ,5.16505 ,50.67950 
3 ,0.6183 ,0.65076 ,5.17532 ,50.78023 
4 ,0.8745 ,0.65278 ,5.16848 ,50.71308 
5 ,1.0989 ,0.65503 ,5.16848 ,50.71308 
6 ,1.2908 ,0.65708 ,5.15821 ,50.61234 
7 ,1.4826 ,0.65895 ,5.17532 ,50.78023 
8 ,1.6910 ,0.66109 ,5.15479 ,50.57876 
9 ,1.8992 ,0.66307 ,5.14794 ,50.51161 
10 ,2.1069 ,0.66520 ,5.13083 ,50.34372 
11 ,2.3475 ,0.66744 ,5.09661 ,50.00793 
12 ,2.5711 ,0.66978 ,5.08292 ,49.87362 
13 ,2.7951 ,0.67201 ,5.07265 ,49.77289 
14 ,2.9875 ,0.67402 ,5.03501 ,49.40352 
15 ,3.1956 ,0.67600 ,5.02474 ,49.30279 
16 ,3.3877 ,0.67797 ,5.00079 ,49.06774 
17 ,3.5799 ,0.67996 ,4.98710 ,48.93343 
18 ,3.7876 ,0.68195 ,4.94946 ,48.56407 
19 ,3.9801 ,0.68393 ,4.95630 ,48.63122 
20 ,4.1882 ,0.68600 ,4.90155 ,48.09397 
21 ,4.3961 ,0.68808 ,4.90839 ,48.16113 
22 ,4.6203 ,0.69030 ,4.88786 ,47.95966 
23 ,4.8438 ,0.69248 ,4.85706 ,47.65745 
24 ,5.0366 ,0.69453 ,4.84679 ,47.55672 
25 ,5.2603 ,0.69670 ,4.81941 ,47.28809 
26 ,5.4684 ,0.69878 ,4.78177 ,46.91873 
27 ,5.6928 ,0.70098 ,4.77835 ,46.88515 
28 ,5.9004 ,0.70304 ,4.76124 ,46.71726 
29 ,6.1089 ,0.70517 ,4.72359 ,46.34790 
30 ,6.3169 ,0.70726 ,4.72017 ,46.31432 
31 ,6.5571 ,0.70954 ,4.68937 ,46.01212 
32 ,6.7811 ,0.71187 ,4.68253 ,45.94496 
33 ,6.9730 ,0.71384 ,4.65173 ,45.64275 
34 ,7.1974 ,0.71607 ,4.62777 ,45.40771 
35 ,7.4214 ,0.71833 ,4.62777 ,45.40771 
36 ,7.6134 ,0.72027 ,4.59013 ,45.03835 
37 ,7.8378 ,0.72247 ,4.57644 ,44.90403 
38 ,8.0456 ,0.72457 ,4.54222 ,44.56825 
39 ,8.2377 ,0.72652 ,4.52511 ,44.40036 
40 ,8.4299 ,0.72843 ,4.50800 ,44.23247 
41 ,8.6537 ,0.73060 ,4.49773 ,44.13173 
42 ,8.8461 ,0.73254 ,4.47035 ,43.86310 
43 ,9.0701 ,0.73475 ,4.44640 ,43.62806 
44 ,9.2778 ,0.73679 ,4.43955 ,43.56090 
45 ,9.4704 ,0.73882 ,4.40533 ,43.22512 
46 ,9.6943 ,0.74099 ,4.40191 ,43.19154 
47 ,9.9025 ,0.74308 ,4.38822 ,43.05723 
48 ,10.0945 ,0.74504 ,4.36769 ,42.85576 
49 ,10.3182 ,0.74725 ,4.35400 ,42.72144 
50 ,10.5268 ,0.74930 ,4.31293 ,42.31850 
51 ,10.7509 ,0.75162 ,4.28556 ,42.04988 
52 ,10.9588 ,0.75360 ,4.28213 ,42.01630 
53 ,11.1829 ,0.75590 ,4.25476 ,41.74767 
54 ,11.3749 ,0.75781 ,4.22738 ,41.47905 
55 ,11.6152 ,0.76010 ,4.21369 ,41.34473 
56 ,11.8393 ,0.76245 ,4.19316 ,41.14326 
57 ,12.0470 ,0.76460 ,4.16920 ,40.90821 
58 ,12.2393 ,0.76646 ,4.16578 ,40.87464 
59 ,12.4316 ,0.76844 ,4.13156 ,40.53885 
60 ,12.6395 ,0.77043 ,4.11787 ,40.40454 
61 ,12.8315 ,0.77239 ,4.09734 ,40.20307 
62 ,13.0399 ,0.77444 ,4.08365 ,40.06876 
63 ,13.2480 ,0.77654 ,4.05969 ,39.83371 
64 ,13.4400 ,0.77850 ,4.06312 ,39.86729 
65 ,13.6476 ,0.78051 ,4.02889 ,39.53150 
66 ,13.8559 ,0.78258 ,4.02205 ,39.46435 
67 ,14.0801 ,0.78489 ,3.97756 ,39.02783 
68 ,14.2883 ,0.78691 ,3.97072 ,38.96067 
69 ,14.4965 ,0.78899 ,3.96387 ,38.89352 
70 ,14.7043 ,0.79113 ,3.92281 ,38.49058 
71 ,14.9125 ,0.79320 ,3.91596 ,38.42342 
72 ,15.1207 ,0.79526 ,3.89885 ,38.25553 
73 ,15.3288 ,0.79734 ,3.86805 ,37.95332 
74 ,15.5369 ,0.79943 ,3.86463 ,37.91975 
75 ,15.7447 ,0.80154 ,3.84410 ,37.71828 
76 ,15.9370 ,0.80348 ,3.84067 ,37.68470 
77 ,16.1291 ,0.80540 ,3.80303 ,37.31534 
78 ,16.3529 ,0.80753 ,3.77908 ,37.08029 
79 ,16.5613 ,0.80972 ,3.78250 ,37.11387 
80 ,16.7691 ,0.81170 ,3.74828 ,36.77808 
81 ,16.9930 ,0.81393 ,3.74485 ,36.74450 
82 ,17.1856 ,0.81588 ,3.70037 ,36.30799 
83 ,17.4096 ,0.81821 ,3.66957 ,36.00578 
84 ,17.6338 ,0.82040 ,3.68668 ,36.17367 
85 ,17.8579 ,0.82256 ,3.64561 ,35.77073 
86 ,18.0495 ,0.82469 ,3.63192 ,35.63642 
87 ,18.2575 ,0.82671 ,3.61823 ,35.50211 
88 ,18.4498 ,0.82862 ,3.59428 ,35.26706 
89 ,18.6582 ,0.83057 ,3.57717 ,35.09917 
90 ,18.8823 ,0.83288 ,3.53952 ,34.72981 
91 ,19.1061 ,0.83508 ,3.51557 ,34.49476 
92 ,19.3306 ,0.83725 ,3.53952 ,34.72981 
93 ,19.5545 ,0.83964 ,3.50188 ,34.36045 
94 ,19.7626 ,0.84174 ,3.48135 ,34.15898 
95 ,19.9707 ,0.84376 ,3.46081 ,33.95751 
96 ,20.1628 ,0.84567 ,3.44028 ,33.75604 
97 ,20.3867 ,0.84793 ,3.42659 ,33.62172 
98 ,20.5949 ,0.85002 ,3.40948 ,33.45383 
99 ,20.8191 ,0.85222 ,3.38210 ,33.18520 
100 ,21.0269 ,0.85430 ,3.35473 ,32.91658 
101 ,21.2353 ,0.85637 ,3.35130 ,32.88300 
102 ,21.4432 ,0.85844 ,3.32393 ,32.61437 
103 ,21.6514 ,0.86054 ,3.32051 ,32.58080 
104 ,21.8433 ,0.86248 ,3.28286 ,32.21143 
105 ,22.0356 ,0.86442 ,3.28971 ,32.27859 
106 ,22.2597 ,0.86647 ,3.25206 ,31.90923 
107 ,22.4673 ,0.86872 ,3.23153 ,31.70776 
108 ,22.6599 ,0.87064 ,3.22126 ,31.60702 
109 ,22.8679 ,0.87273 ,3.20073 ,31.40555 
110 ,23.0441 ,0.87461 ,3.18704 ,31.27124 
111 ,23.2521 ,0.87656 ,3.17335 ,31.13693 
112 ,23.4602 ,0.87861 ,3.15282 ,30.93546 
113 ,23.6681 ,0.88074 ,3.12202 ,30.63325 
114 ,23.8604 ,0.88265 ,3.12202 ,30.63325 
115 ,24.0525 ,0.88459 ,3.11175 ,30.53252 
116 ,24.2605 ,0.88663 ,3.09464 ,30.36463 
117 ,24.4526 ,0.88858 ,3.06726 ,30.09600 
118 ,24.6603 ,0.89063 ,3.06042 ,30.02884 
119 ,24.8685 ,0.89271 ,3.02962 ,29.72664 
120 ,25.0769 ,0.89478 ,3.04673 ,29.89453 
121 ,25.2848 ,0.89686 ,3.00567 ,29.49159 
122 ,25.4930 ,0.89896 ,3.00224 ,29.45801 
123 ,25.7011 ,0.90103 ,2.97144 ,29.15581 
124 ,25.8932 ,0.90300 ,2.96460 ,29.08865 
125 ,26.1174 ,0.90516 ,2.93038 ,28.75287 
126 ,26.3094 ,0.90717 ,2.92011 ,28.65213 
127 ,26.5014 ,0.90906 ,2.89616 ,28.41709 
128 ,26.7096 ,0.91102 ,2.88589 ,28.31635 
129 ,26.9332 ,0.91329 ,2.85851 ,28.04772 
130 ,27.1257 ,0.91529 ,2.83798 ,27.84625 
131 ,27.3335 ,0.91737 ,2.83456 ,27.81268 
132 ,27.5259 ,0.91927 ,2.81402 ,27.61121 
133 ,27.7339 ,0.92131 ,2.80718 ,27.54405 
134 ,27.9419 ,0.92339 ,2.78322 ,27.30900 
135 ,28.1502 ,0.92549 ,2.77638 ,27.24185 
136 ,28.3897 ,0.92797 ,2.74900 ,26.97322 
137 ,28.5817 ,0.92996 ,2.73531 ,26.83891 
138 ,28.7903 ,0.93192 ,2.70794 ,26.57028 
139 ,29.0304 ,0.93435 ,2.69767 ,26.46954 
140 ,29.2385 ,0.93642 ,2.67372 ,26.23450 
141 ,29.4469 ,0.93851 ,2.66003 ,26.10018 
142 ,29.6389 ,0.94042 ,2.66003 ,26.10018 
143 ,29.8625 ,0.94262 ,2.62581 ,25.76440 
144 ,30.0548 ,0.94455 ,2.61212 ,25.63009 
145 ,30.2630 ,0.94660 ,2.57789 ,25.29430 
146 ,30.4550 ,0.94856 ,2.58132 ,25.32788 
147 ,30.6630 ,0.95063 ,2.55394 ,25.05926 
148 ,30.8713 ,0.95272 ,2.55394 ,25.05926 
149 ,31.0793 ,0.95474 ,2.51972 ,24.72347 
150 ,31.2711 ,0.95689 ,2.48892 ,24.42127 
151 ,31.4796 ,0.95879 ,2.49576 ,24.48842 
152 ,31.6877 ,0.96092 ,2.47181 ,24.25338 
153 ,31.8958 ,0.96293 ,2.47181 ,24.25338 
154 ,32.1200 ,0.96516 ,2.44101 ,23.95117 
155 ,32.3281 ,0.96728 ,2.43416 ,23.88402 
156 ,32.5681 ,0.96954 ,2.41705 ,23.71612 
157 ,32.7921 ,0.97185 ,2.39310 ,23.48108 
158 ,32.9841 ,0.97390 ,2.35545 ,23.11171 
159 ,33.2084 ,0.97604 ,2.35545 ,23.11171 
160 ,33.4003 ,0.97799 ,2.33834 ,22.94382 
161 ,33.6085 ,0.98015 ,2.31439 ,22.70877 
162 ,33.8006 ,0.98207 ,2.32123 ,22.77593 
163 ,34.0088 ,0.98400 ,2.30412 ,22.60804 
164 ,34.2168 ,0.98614 ,2.29043 ,22.47373 
165 ,34.4088 ,0.98808 ,2.26306 ,22.20510 
166 ,34.6006 ,0.99006 ,2.24252 ,22.00363 
167 ,34.8091 ,0.99206 ,2.22541 ,21.83574 
168 ,35.0172 ,0.99413 ,2.22199 ,21.80216 
169 ,35.2252 ,0.99617 ,2.19461 ,21.53353 
170 ,35.4331 ,0.99825 ,2.19461 ,21.53353 
171 ,35.6251 ,1.00025 ,2.16039 ,21.19775 
172 ,35.8333 ,1.00226 ,2.16039 ,21.19775 
173 ,36.0414 ,1.00443 ,2.12959 ,20.89555 
174 ,36.2654 ,1.00660 ,2.10221 ,20.62692 
175 ,36.4735 ,1.00873 ,2.10564 ,20.66050 
176 ,36.6656 ,1.01071 ,2.06799 ,20.29114 
177 ,36.8572 ,1.01267 ,2.08852 ,20.49261 
178 ,37.0500 ,1.01453 ,2.06457 ,20.25756 
179 ,37.2739 ,1.01667 ,2.04404 ,20.05609 
180 ,37.4822 ,1.01879 ,2.01324 ,19.75388 
181 ,37.7061 ,1.02105 ,2.00982 ,19.72031 
182 ,37.9137 ,1.02319 ,2.01666 ,19.78746 
183 ,38.1384 ,1.02524 ,1.96533 ,19.28379 
184 ,38.3624 ,1.02756 ,1.95164 ,19.14948 
185 ,38.5704 ,1.02970 ,1.94822 ,19.11590 
186 ,38.7944 ,1.03189 ,1.93453 ,18.98158 
187 ,39.0023 ,1.03399 ,1.89004 ,18.54507 
188 ,39.2108 ,1.03607 ,1.91742 ,18.81369 
189 ,39.4348 ,1.03826 ,1.87977 ,18.44433 
190 ,39.6585 ,1.04058 ,1.86608 ,18.31002 
191 ,39.8667 ,1.04259 ,1.85240 ,18.17570 
192 ,40.0751 ,1.04473 ,1.83528 ,18.00781 
193 ,40.2831 ,1.04682 ,1.81133 ,17.77276 
194 ,40.5073 ,1.04903 ,1.79764 ,17.63845 
195 ,40.7312 ,1.05128 ,1.79422 ,17.60487 
196 ,40.9395 ,1.05324 ,1.76342 ,17.30267 
197 ,41.1476 ,1.05539 ,1.74973 ,17.16836 
198 ,41.3717 ,1.05765 ,1.74289 ,17.10120 
199 ,41.5797 ,1.05979 ,1.71893 ,16.86615 
200 ,41.7878 ,1.06181 ,1.71893 ,16.86615 
201 ,41.9960 ,1.06393 ,1.69498 ,16.63110 
202 ,42.2200 ,1.06600 ,1.66760 ,16.36248 
203 ,42.4442 ,1.06839 ,1.66418 ,16.32890 
204 ,42.6519 ,1.07052 ,1.66418 ,16.32890 
205 ,42.8442 ,1.07251 ,1.62311 ,15.92596 
206 ,43.0526 ,1.07444 ,1.62995 ,15.99311 
207 ,43.2603 ,1.07657 ,1.59231 ,15.62375 
208 ,43.4520 ,1.07846 ,1.60600 ,15.75807 
209 ,43.6605 ,1.08054 ,1.55809 ,15.28797 
210 ,43.8529 ,1.08248 ,1.55809 ,15.28797 
211 ,44.0767 ,1.08470 ,1.54098 ,15.12008 
212 ,44.2687 ,1.08662 ,1.54782 ,15.18724 
213 ,44.4608 ,1.08859 ,1.50676 ,14.78430 
214 ,44.6688 ,1.09060 ,1.51702 ,14.88503 
215 ,44.8772 ,1.09273 ,1.47938 ,14.51567 
216 ,45.1011 ,1.09492 ,1.47253 ,14.44851 
217 ,45.3093 ,1.09699 ,1.46911 ,14.41493 
218 ,45.5174 ,1.09906 ,1.43489 ,14.07915 
219 ,45.7093 ,1.10117 ,1.42805 ,14.01199 
220 ,45.9015 ,1.10298 ,1.41094 ,13.84410 
221 ,46.1094 ,1.10500 ,1.40409 ,13.77695 
222 ,46.3017 ,1.10700 ,1.37329 ,13.47474 
223 ,46.5257 ,1.10914 ,1.38014 ,13.54190 
224 ,46.7175 ,1.11123 ,1.34934 ,13.23969 
225 ,46.9259 ,1.11322 ,1.34249 ,13.17254 
226 ,47.1339 ,1.11523 ,1.30827 ,12.83675 
227 ,47.3421 ,1.11735 ,1.31169 ,12.87033 
228 ,47.5340 ,1.11930 ,1.31169 ,12.87033 
229 ,47.7422 ,1.12134 ,1.28432 ,12.60171 
230 ,47.9342 ,1.12331 ,1.28774 ,12.63528 
231 ,48.1424 ,1.12534 ,1.26036 ,12.36666 
232 ,48.3343 ,1.12729 ,1.26036 ,12.36666 
233 ,48.5426 ,1.12934 ,1.22614 ,12.03088 
234 ,48.7507 ,1.13153 ,1.22956 ,12.06445 
235 ,48.9583 ,1.13348 ,1.18850 ,11.66151 
236 ,49.1510 ,1.13551 ,1.19876 ,11.76225 
237 ,49.3749 ,1.13764 ,1.17823 ,11.56078 
238 ,49.5668 ,1.13962 ,1.16796 ,11.46004 
239 ,49.7910 ,1.14181 ,1.15427 ,11.32573 
240 ,50.0147 ,1.14398 ,1.13374 ,11.12426 
241 ,50.2234 ,1.14615 ,1.11321 ,10.92279 
242 ,50.4315 ,1.14819 ,1.10636 ,10.85563 
243 ,50.6394 ,1.15030 ,1.08925 ,10.68774 
244 ,50.8315 ,1.15226 ,1.09952 ,10.78848 
245 ,51.0397 ,1.15436 ,1.06187 ,10.41912 
246 ,51.2478 ,1.15635 ,1.06872 ,10.48627 
247 ,51.4559 ,1.15851 ,1.04134 ,10.21765 
248 ,51.6638 ,1.16051 ,1.02765 ,10.08333 
249 ,51.8716 ,1.16260 ,1.02081 ,10.01618 
250 ,52.0641 ,1.16457 ,1.00028 ,9.81471 
251 ,52.2718 ,1.16658 ,0.99343 ,9.74755 
252 ,52.4638 ,1.16860 ,0.97290 ,9.54608 
253 ,52.6721 ,1.17062 ,0.96948 ,9.51250 
254 ,52.8805 ,1.17273 ,0.94210 ,9.24388 
255 ,53.0886 ,1.17482 ,0.94894 ,9.31103 
256 ,53.2963 ,1.17692 ,0.91472 ,8.97525 
257 ,53.5367 ,1.17915 ,0.91814 ,9.00883 
258 ,53.7449 ,1.18141 ,0.89761 ,8.80736 
259 ,53.9532 ,1.18342 ,0.89077 ,8.74020 
260 ,54.1450 ,1.18539 ,0.86681 ,8.50515 
261 ,54.3532 ,1.18741 ,0.86681 ,8.50515 
262 ,54.5610 ,1.18945 ,0.84628 ,8.30368 
263 ,54.7692 ,1.19158 ,0.83943 ,8.23653 
264 ,54.9771 ,1.19369 ,0.81206 ,7.96790 
265 ,55.1693 ,1.19562 ,0.82575 ,8.10221 
266 ,55.3931 ,1.19780 ,0.79837 ,7.83359 
267 ,55.5852 ,1.19982 ,0.79495 ,7.80001 
268 ,55.7773 ,1.20165 ,0.77099 ,7.56496 
269 ,55.9857 ,1.20378 ,0.77099 ,7.56496 
270 ,56.1777 ,1.20582 ,0.75388 ,7.39707 
271 ,56.3699 ,1.20766 ,0.75388 ,7.39707 
272 ,56.5780 ,1.20968 ,0.72650 ,7.12844 
273 ,56.8021 ,1.21194 ,0.71624 ,7.02771 
274 ,57.0101 ,1.21403 ,0.72650 ,7.12844 
275 ,57.2183 ,1.21605 ,0.67517 ,6.62477 
276 ,57.4264 ,1.21812 ,0.68544 ,6.72550 
277 ,57.6343 ,1.22024 ,0.68201 ,6.69193 
278 ,57.8264 ,1.22219 ,0.66148 ,6.49046 
279 ,58.0185 ,1.22411 ,0.63410 ,6.22183 
280 ,58.2107 ,1.22602 ,0.65464 ,6.42330 
281 ,58.4348 ,1.22824 ,0.63410 ,6.22183 
282 ,58.6428 ,1.23031 ,0.61699 ,6.05394 
283 ,58.8346 ,1.23223 ,0.60330 ,5.91962 
284 ,59.0430 ,1.23432 ,0.58962 ,5.78531 
285 ,59.2669 ,1.23655 ,0.59304 ,5.81889 
286 ,59.4590 ,1.23847 ,0.56224 ,5.51668 
287 ,59.6670 ,1.24056 ,0.56224 ,5.51668 
288 ,59.8753 ,1.24267 ,0.53486 ,5.24806 
289 ,60.0672 ,1.24471 ,0.53144 ,5.21448 
290 ,60.2595 ,1.24652 ,0.52459 ,5.14732 
291 ,60.4517 ,1.24848 ,0.51091 ,5.01301 
292 ,60.6757 ,1.25060 ,0.49380 ,4.84512 
293 ,60.8676 ,1.25259 ,0.49722 ,4.87870 
294 ,61.0434 ,1.25446 ,0.46984 ,4.61007 
295 ,61.2520 ,1.25637 ,0.48011 ,4.71081 
296 ,61.4757 ,1.25861 ,0.43562 ,4.27429 
297 ,61.6679 ,1.26055 ,0.46300 ,4.54291 
298 ,61.8600 ,1.26251 ,0.43220 ,4.24071 
299 ,62.0524 ,1.26442 ,0.43220 ,4.24071 
300 ,62.2441 ,1.26637 ,0.40140 ,3.93850 
301 ,62.4203 ,1.26823 ,0.39455 ,3.87135 
302 ,62.6124 ,1.27000 ,0.38429 ,3.77061 
303 ,62.8205 ,1.27205 ,0.35691 ,3.50199 
304 ,63.0127 ,1.27406 ,0.37402 ,3.66988 
305 ,63.2208 ,1.27608 ,0.33638 ,3.30052 
306 ,63.4288 ,1.27819 ,0.34322 ,3.36767 
307 ,63.6529 ,1.28038 ,0.32269 ,3.16620 
308 ,63.8447 ,1.28231 ,0.31926 ,3.13263 
309 ,64.0372 ,1.28424 ,0.30558 ,2.99831 
310 ,64.2608 ,1.28645 ,0.29189 ,2.86400 
311 ,64.4528 ,1.28838 ,0.28847 ,2.83042 
312 ,64.6450 ,1.29033 ,0.28504 ,2.79684 
313 ,64.8693 ,1.29252 ,0.27135 ,2.66253 
314 ,65.0615 ,1.29451 ,0.24398 ,2.39390 
315 ,65.2854 ,1.29676 ,0.24740 ,2.42748 
316 ,65.4932 ,1.29883 ,0.23713 ,2.32675 
317 ,65.6857 ,1.30075 ,0.21318 ,2.09170 
318 ,65.8936 ,1.30284 ,0.19264 ,1.89023 
319 ,66.1179 ,1.30502 ,0.17553 ,1.72234 
320 ,66.3259 ,1.30706 ,0.18922 ,1.85665 
321 ,66.5339 ,1.30918 ,0.16527 ,1.62160 
322 ,66.7419 ,1.31132 ,0.16869 ,1.65518 
323 ,66.9504 ,1.31335 ,0.15500 ,1.52087 
324 ,67.1583 ,1.31543 ,0.12762 ,1.25224 
325 ,67.3504 ,1.31740 ,0.13789 ,1.35298 
326 ,67.5587 ,1.31948 ,0.10367 ,1.01719 
327 ,67.7665 ,1.32152 ,0.10367 ,1.01719 
328 ,67.9587 ,1.32346 ,0.08998 ,0.88288 
329 ,68.1509 ,1.32540 ,0.09682 ,0.95004 
330 ,68.3426 ,1.32731 ,0.07287 ,0.71499 
331 ,68.5349 ,1.32922 ,0.05576 ,0.54710 
332 ,68.7271 ,1.33114 ,0.06260 ,0.61425 
333 ,68.9350 ,1.33327 ,0.02154 ,0.21131 
334 ,69.1433 ,1.33534 ,0.01811 ,0.17773 
335 ,69.3516 ,1.33738 ,0.02838 ,0.27847 
336 ,69.5435 ,1.33932 ,0.01127 ,0.11058 
337 ,69.7516 ,1.34137 ,0.01127 ,0.11058 
338 ,69.9594 ,1.34355 ,-0.02637 ,-0.25878 
339 ,70.1516 ,1.34550 ,-0.00926 ,-0.09089 
340 ,70.3598 ,1.34742 ,-0.03322 ,-0.32594 
341 ,70.5676 ,1.34954 ,-0.04348 ,-0.42667 
342 ,70.7760 ,1.35155 ,-0.07086 ,-0.69530 
343 ,70.9836 ,1.35375 ,-0.06744 ,-0.66172 
344 ,71.1920 ,1.35575 ,-0.08455 ,-0.82961 
345 ,71.4002 ,1.35790 ,-0.09140 ,-0.89677 
346 ,71.6246 ,1.36006 ,-0.09824 ,-0.96393 
347 ,71.8164 ,1.36203 ,-0.10851 ,-1.06466 
348 ,72.0243 ,1.36404 ,-0.12219 ,-1.19898 
349 ,72.2643 ,1.36628 ,-0.13246 ,-1.29971 
350 ,72.4885 ,1.36869 ,-0.14273 ,-1.40045 
351 ,72.6967 ,1.37077 ,-0.15642 ,-1.53476 
352 ,72.8889 ,1.37270 ,-0.14615 ,-1.43402 
353 ,73.0969 ,1.37480 ,-0.19064 ,-1.87054 
354 ,73.3048 ,1.37689 ,-0.17011 ,-1.66907 
355 ,73.5131 ,1.37902 ,-0.19406 ,-1.90412 
356 ,73.7212 ,1.38106 ,-0.19748 ,-1.93770 
357 ,73.9131 ,1.38299 ,-0.21459 ,-2.10559 
358 ,74.1214 ,1.38507 ,-0.22144 ,-2.17275 
359 ,74.3290 ,1.38708 ,-0.23170 ,-2.27348 
360 ,74.5215 ,1.38905 ,-0.25224 ,-2.47495 
361 ,74.7296 ,1.39112 ,-0.24539 ,-2.40779 
362 ,74.9217 ,1.39304 ,-0.27619 ,-2.71000 
363 ,75.1138 ,1.39500 ,-0.26593 ,-2.60926 
364 ,75.3218 ,1.39710 ,-0.28304 ,-2.77716 
365 ,75.5300 ,1.39909 ,-0.28988 ,-2.84431 
366 ,75.7381 ,1.40118 ,-0.31041 ,-3.04578 
367 ,75.9464 ,1.40331 ,-0.30015 ,-2.94505 
368 ,76.1543 ,1.40540 ,-0.32410 ,-3.18010 
369 ,76.3623 ,1.40745 ,-0.32752 ,-3.21367 
370 ,76.5539 ,1.40935 ,-0.34121 ,-3.34799 
371 ,76.7463 ,1.41128 ,-0.33779 ,-3.31441 
372 ,76.9545 ,1.41339 ,-0.36517 ,-3.58303 
373 ,77.1627 ,1.41549 ,-0.36859 ,-3.61661 
374 ,77.3707 ,1.41752 ,-0.37886 ,-3.71735 
375 ,77.5624 ,1.41946 ,-0.38570 ,-3.78450 
376 ,77.7707 ,1.42154 ,-0.39597 ,-3.88524 
377 ,77.9786 ,1.42368 ,-0.41650 ,-4.08671 
378 ,78.1706 ,1.42561 ,-0.40966 ,-4.01955 
379 ,78.3628 ,1.42746 ,-0.43703 ,-4.28818 
380 ,78.5550 ,1.42938 ,-0.44730 ,-4.38891 
381 ,78.7791 ,1.43160 ,-0.43019 ,-4.22102 
382 ,78.9875 ,1.43374 ,-0.44388 ,-4.35534 
383 ,79.1794 ,1.43577 ,-0.47810 ,-4.69112 
384 ,79.3716 ,1.43757 ,-0.46099 ,-4.52323 
385 ,79.5798 ,1.43964 ,-0.48837 ,-4.79185 
386 ,79.7874 ,1.44174 ,-0.47810 ,-4.69112 
387 ,79.9959 ,1.44381 ,-0.50890 ,-4.99332 
388 ,80.2200 ,1.44597 ,-0.50890 ,-4.99332 
389 ,80.4280 ,1.44810 ,-0.51232 ,-5.02690 
390 ,80.6362 ,1.45008 ,-0.53285 ,-5.22837 
391 ,80.8444 ,1.45229 ,-0.53970 ,-5.29553 
392 ,81.0682 ,1.45448 ,-0.53628 ,-5.26195 
393 ,81.3081 ,1.45674 ,-0.56708 ,-5.56415 
394 ,81.5005 ,1.45884 ,-0.57050 ,-5.59773 
395 ,81.6924 ,1.46078 ,-0.57050 ,-5.59773 
396 ,81.8845 ,1.46267 ,-0.57050 ,-5.59773 
397 ,82.0926 ,1.46481 ,-0.59445 ,-5.83278 
398 ,82.2847 ,1.46668 ,-0.59445 ,-5.83278 
399 ,82.5084 ,1.46882 ,-0.62183 ,-6.10141 
400 ,82.7008 ,1.47083 ,-0.62525 ,-6.13499 
401 ,82.8927 ,1.47277 ,-0.63894 ,-6.26930 
402 ,83.1166 ,1.47481 ,-0.62868 ,-6.16856 
403 ,83.3250 ,1.47709 ,-0.64236 ,-6.30288 
404 ,83.5331 ,1.47914 ,-0.66632 ,-6.53793 
405 ,83.7414 ,1.48118 ,-0.66974 ,-6.57150 
406 ,83.9655 ,1.48340 ,-0.66974 ,-6.57150 
407 ,84.1893 ,1.48554 ,-0.69712 ,-6.84013 
408 ,84.3976 ,1.48783 ,-0.70739 ,-6.94086 
409 ,84.6217 ,1.48997 ,-0.70739 ,-6.94086 
410 ,84.8296 ,1.49207 ,-0.73134 ,-7.17591 
411 ,85.0377 ,1.49423 ,-0.73818 ,-7.24307 
412 ,85.2461 ,1.49630 ,-0.73476 ,-7.20949 
413 ,85.4540 ,1.49832 ,-0.75872 ,-7.44454 
414 ,85.6619 ,1.50044 ,-0.75530 ,-7.41096 
415 ,85.8697 ,1.50251 ,-0.75872 ,-7.44454 
416 ,86.0622 ,1.50443 ,-0.76898 ,-7.54527 
417 ,86.2699 ,1.50652 ,-0.77925 ,-7.64601 
418 ,86.4622 ,1.50840 ,-0.77583 ,-7.61243 
419 ,86.6545 ,1.51033 ,-0.80663 ,-7.91464 
420 ,86.8785 ,1.51248 ,-0.80321 ,-7.88106 
421 ,87.0704 ,1.51453 ,-0.82374 ,-8.08253 
422 ,87.2788 ,1.51657 ,-0.83058 ,-8.14968 
423 ,87.5023 ,1.51882 ,-0.81689 ,-8.01537 
424 ,87.7109 ,1.52090 ,-0.84769 ,-8.31758 
425 ,87.9190 ,1.52301 ,-0.86138 ,-8.45189 
426 ,88.1272 ,1.52503 ,-0.85796 ,-8.41831 
427 ,88.3351 ,1.52708 ,-0.87849 ,-8.61978 
428 ,88.5432 ,1.52919 ,-0.86481 ,-8.48547 
429 ,88.7510 ,1.53129 ,-0.90245 ,-8.85483 
430 ,88.9588 ,1.53336 ,-0.89560 ,-8.78767 
431 ,89.1670 ,1.53545 ,-0.90587 ,-8.88841 
432 ,89.3755 ,1.53753 ,-0.91956 ,-9.02272 
433 ,89.5996 ,1.53973 ,-0.93667 ,-9.19061 
434 ,89.8077 ,1.54192 ,-0.93667 ,-9.19061 
435 ,90.0316 ,1.54405 ,-0.96063 ,-9.42566 
436 ,90.2237 ,1.54603 ,-0.94351 ,-9.25777 
437 ,90.4318 ,1.54811 ,-0.96405 ,-9.45924 
438 ,90.6401 ,1.55017 ,-0.96747 ,-9.49282 
439 ,90.8641 ,1.55237 ,-0.97089 ,-9.52639 
440 ,91.0722 ,1.55450 ,-0.98800 ,-9.69429 
441 ,91.2799 ,1.55658 ,-0.99485 ,-9.76144 
442 ,91.4722 ,1.55846 ,-1.01880 ,-9.99649 
443 ,91.6802 ,1.56056 ,-1.00854 ,-9.89576 
444 ,91.8881 ,1.56276 ,-1.00854 ,-9.89576 
445 ,92.0801 ,1.56470 ,-1.03934 ,-10.19796 
446 ,92.2722 ,1.56660 ,-1.04960 ,-10.29869 
447 ,92.4804 ,1.56855 ,-1.04960 ,-10.29869 
448 ,92.6729 ,1.57053 ,-1.06671 ,-10.46659 
449 ,92.8970 ,1.57266 ,-1.07698 ,-10.56732 
450 ,93.1211 ,1.57496 ,-1.06329 ,-10.43301 
451 ,93.3450 ,1.57718 ,-1.07014 ,-10.50016 
452 ,93.5530 ,1.57922 ,-1.10093 ,-10.80237 
453 ,93.7611 ,1.58132 ,-1.09067 ,-10.70163 
454 ,93.9693 ,1.58339 ,-1.11805 ,-10.97026 
455 ,94.1613 ,1.58547 ,-1.12831 ,-11.07100 
456 ,94.3535 ,1.58726 ,-1.14200 ,-11.20531 
457 ,94.5618 ,1.58936 ,-1.12831 ,-11.07100 
458 ,94.7695 ,1.59140 ,-1.13516 ,-11.13815 
459 ,94.9619 ,1.59340 ,-1.14884 ,-11.27247 
460 ,95.1696 ,1.59544 ,-1.15911 ,-11.37320 
461 ,95.3781 ,1.59755 ,-1.16253 ,-11.40678 
462 ,95.6019 ,1.59973 ,-1.15911 ,-11.37320 
