Data stamp = , 04-05-2022 14:15:04 550

Calibration Values: 
Slope = , 26.54 , g/V 
Offset Voltage at no contact = , -0.501760 , V 

No , Time , Stage Position ,   Mass , Force 
   ,  (s) ,      (mm)      ,   (g)  , (mN)  

1 ,0.0000 ,0.64943 ,5.34301 ,52.42557 
2 ,0.2077 ,0.64950 ,5.32247 ,52.22410 
3 ,0.6405 ,0.65074 ,5.33616 ,52.35841 
4 ,0.8802 ,0.65291 ,5.33616 ,52.35841 
5 ,1.1044 ,0.65522 ,5.33958 ,52.39199 
6 ,1.2963 ,0.65710 ,5.32589 ,52.25768 
7 ,1.4887 ,0.65903 ,5.33616 ,52.35841 
8 ,1.6966 ,0.66115 ,5.33274 ,52.32484 
9 ,1.8889 ,0.66310 ,5.31905 ,52.19052 
10 ,2.0966 ,0.66520 ,5.28825 ,51.88832 
11 ,2.3211 ,0.66740 ,5.28483 ,51.85474 
12 ,2.5452 ,0.66966 ,5.26430 ,51.65327 
13 ,2.7533 ,0.67174 ,5.21981 ,51.21675 
14 ,2.9454 ,0.67368 ,5.22665 ,51.28391 
15 ,3.1373 ,0.67558 ,5.19243 ,50.94813 
16 ,3.3455 ,0.67768 ,5.18559 ,50.88097 
17 ,3.5375 ,0.67956 ,5.14452 ,50.47803 
18 ,3.7136 ,0.68145 ,5.13425 ,50.37729 
19 ,3.9218 ,0.68338 ,5.12399 ,50.27656 
20 ,4.1299 ,0.68547 ,5.09319 ,49.97436 
21 ,4.3375 ,0.68757 ,5.05897 ,49.63857 
22 ,4.5461 ,0.68963 ,5.06581 ,49.70573 
23 ,4.7541 ,0.69174 ,5.03159 ,49.36995 
24 ,4.9622 ,0.69380 ,5.01790 ,49.23563 
25 ,5.1702 ,0.69587 ,4.98710 ,48.93343 
26 ,5.3782 ,0.69798 ,4.96999 ,48.76554 
27 ,5.5702 ,0.69990 ,4.95288 ,48.59764 
28 ,5.7785 ,0.70194 ,4.92892 ,48.36260 
29 ,5.9707 ,0.70390 ,4.92208 ,48.29544 
30 ,6.1946 ,0.70608 ,4.88786 ,47.95966 
31 ,6.3865 ,0.70805 ,4.87759 ,47.85892 
32 ,6.5944 ,0.71018 ,4.84679 ,47.55672 
33 ,6.7869 ,0.71206 ,4.84679 ,47.55672 
34 ,6.9789 ,0.71395 ,4.81257 ,47.22093 
35 ,7.1709 ,0.71586 ,4.79888 ,47.08662 
36 ,7.3792 ,0.71799 ,4.77493 ,46.85157 
37 ,7.5712 ,0.71990 ,4.76124 ,46.71726 
38 ,7.7633 ,0.72180 ,4.75782 ,46.68368 
39 ,7.9555 ,0.72373 ,4.70990 ,46.21359 
40 ,8.1954 ,0.72614 ,4.69964 ,46.11285 
41 ,8.4037 ,0.72822 ,4.68595 ,45.97854 
42 ,8.6117 ,0.73026 ,4.65857 ,45.70991 
43 ,8.8193 ,0.73238 ,4.63119 ,45.44128 
44 ,9.0117 ,0.73429 ,4.62435 ,45.37413 
45 ,9.2200 ,0.73636 ,4.61408 ,45.27339 
46 ,9.4278 ,0.73838 ,4.60040 ,45.13908 
47 ,9.6200 ,0.74037 ,4.55933 ,44.73614 
48 ,9.8120 ,0.74229 ,4.56617 ,44.80330 
49 ,10.0203 ,0.74437 ,4.54564 ,44.60183 
50 ,10.2283 ,0.74646 ,4.53195 ,44.46751 
51 ,10.4201 ,0.74832 ,4.49773 ,44.13173 
52 ,10.6125 ,0.75026 ,4.47378 ,43.89668 
53 ,10.8207 ,0.75235 ,4.46009 ,43.76237 
54 ,11.0281 ,0.75439 ,4.44982 ,43.66163 
55 ,11.2209 ,0.75640 ,4.40875 ,43.25870 
56 ,11.4446 ,0.75863 ,4.40533 ,43.22512 
57 ,11.6370 ,0.76051 ,4.37453 ,42.92291 
58 ,11.8450 ,0.76262 ,4.37453 ,42.92291 
59 ,12.0527 ,0.76463 ,4.33689 ,42.55355 
60 ,12.2611 ,0.76675 ,4.31978 ,42.38566 
61 ,12.4690 ,0.76883 ,4.31636 ,42.35208 
62 ,12.6772 ,0.77093 ,4.27187 ,41.91556 
63 ,12.8852 ,0.77303 ,4.26845 ,41.88198 
64 ,13.0934 ,0.77507 ,4.25476 ,41.74767 
65 ,13.3015 ,0.77718 ,4.22396 ,41.44547 
66 ,13.4936 ,0.77906 ,4.20000 ,41.21042 
67 ,13.7018 ,0.78115 ,4.19316 ,41.14326 
68 ,13.8938 ,0.78313 ,4.17262 ,40.94179 
69 ,14.1018 ,0.78517 ,4.14525 ,40.67317 
70 ,14.2936 ,0.78705 ,4.14183 ,40.63959 
71 ,14.5021 ,0.78915 ,4.12129 ,40.43812 
72 ,14.7261 ,0.79135 ,4.11103 ,40.33738 
73 ,14.9182 ,0.79333 ,4.07338 ,39.96802 
74 ,15.1262 ,0.79536 ,4.08365 ,40.06876 
75 ,15.3184 ,0.79731 ,4.03232 ,39.56508 
76 ,15.5422 ,0.79956 ,4.01863 ,39.43077 
77 ,15.7507 ,0.80164 ,4.00836 ,39.33003 
78 ,15.9426 ,0.80358 ,3.97414 ,38.99425 
79 ,16.1665 ,0.80566 ,3.97414 ,38.99425 
80 ,16.3748 ,0.80784 ,3.93992 ,38.65847 
81 ,16.5826 ,0.80996 ,3.91254 ,38.38984 
82 ,16.7751 ,0.81190 ,3.91938 ,38.45700 
83 ,16.9832 ,0.81394 ,3.89201 ,38.18837 
84 ,17.1751 ,0.81600 ,3.88516 ,38.12122 
85 ,17.3992 ,0.81813 ,3.84752 ,37.75185 
86 ,17.6069 ,0.82017 ,3.83725 ,37.65112 
87 ,17.8154 ,0.82227 ,3.82014 ,37.48323 
88 ,18.0235 ,0.82439 ,3.79619 ,37.24818 
89 ,18.2316 ,0.82649 ,3.79276 ,37.21460 
90 ,18.4717 ,0.82864 ,3.75854 ,36.87882 
91 ,18.6797 ,0.83092 ,3.73801 ,36.67735 
92 ,18.9039 ,0.83305 ,3.73459 ,36.64377 
93 ,19.1276 ,0.83537 ,3.71405 ,36.44230 
94 ,19.3199 ,0.83734 ,3.66957 ,36.00578 
95 ,19.5281 ,0.83935 ,3.67983 ,36.10652 
96 ,19.7362 ,0.84149 ,3.64219 ,35.73716 
97 ,19.9282 ,0.84343 ,3.62508 ,35.56926 
98 ,20.1203 ,0.84531 ,3.59770 ,35.30064 
99 ,20.3285 ,0.84739 ,3.59770 ,35.30064 
100 ,20.5203 ,0.84938 ,3.57717 ,35.09917 
101 ,20.7287 ,0.85134 ,3.56348 ,34.96485 
102 ,20.9202 ,0.85334 ,3.53610 ,34.69623 
103 ,21.1127 ,0.85534 ,3.53268 ,34.66265 
104 ,21.3048 ,0.85717 ,3.48819 ,34.22613 
105 ,21.4967 ,0.85904 ,3.49504 ,34.29329 
106 ,21.7050 ,0.86117 ,3.46081 ,33.95751 
107 ,21.8969 ,0.86308 ,3.46766 ,34.02466 
108 ,22.0727 ,0.86494 ,3.45739 ,33.92393 
109 ,22.2813 ,0.86693 ,3.41975 ,33.55457 
110 ,22.4893 ,0.86899 ,3.37868 ,33.15163 
111 ,22.6815 ,0.87093 ,3.37184 ,33.08447 
112 ,22.8730 ,0.87287 ,3.37868 ,33.15163 
113 ,23.0971 ,0.87506 ,3.33419 ,32.71511 
114 ,23.2894 ,0.87703 ,3.34446 ,32.81584 
115 ,23.5138 ,0.87911 ,3.33077 ,32.68153 
116 ,23.7219 ,0.88128 ,3.28971 ,32.27859 
117 ,23.8978 ,0.88319 ,3.28971 ,32.27859 
118 ,24.0897 ,0.88500 ,3.24180 ,31.80849 
119 ,24.2656 ,0.88688 ,3.22468 ,31.64060 
120 ,24.4739 ,0.88880 ,3.24522 ,31.84207 
121 ,24.6662 ,0.89089 ,3.21100 ,31.50629 
122 ,24.8583 ,0.89265 ,3.19388 ,31.33840 
123 ,25.0506 ,0.89466 ,3.16651 ,31.06977 
124 ,25.2585 ,0.89663 ,3.15966 ,31.00262 
125 ,25.4346 ,0.89855 ,3.13913 ,30.80115 
126 ,25.6263 ,0.90036 ,3.12544 ,30.66683 
127 ,25.8507 ,0.90247 ,3.11860 ,30.59968 
128 ,26.0588 ,0.90470 ,3.11518 ,30.56610 
129 ,26.2666 ,0.90675 ,3.06384 ,30.06242 
130 ,26.4586 ,0.90863 ,3.06384 ,30.06242 
131 ,26.6670 ,0.91075 ,3.03989 ,29.82737 
132 ,26.8751 ,0.91285 ,3.03304 ,29.76022 
133 ,27.0830 ,0.91494 ,2.99198 ,29.35728 
134 ,27.2751 ,0.91695 ,2.99198 ,29.35728 
135 ,27.4674 ,0.91876 ,2.96460 ,29.08865 
136 ,27.6752 ,0.92087 ,2.96460 ,29.08865 
137 ,27.8674 ,0.92273 ,2.93038 ,28.75287 
138 ,28.0752 ,0.92476 ,2.93038 ,28.75287 
139 ,28.2675 ,0.92674 ,2.90300 ,28.48424 
140 ,28.4918 ,0.92899 ,2.89616 ,28.41709 
141 ,28.6835 ,0.93090 ,2.87220 ,28.18204 
142 ,28.8918 ,0.93298 ,2.86536 ,28.11488 
143 ,29.0998 ,0.93511 ,2.85851 ,28.04772 
144 ,29.3078 ,0.93711 ,2.81060 ,27.57763 
145 ,29.4840 ,0.93905 ,2.81402 ,27.61121 
146 ,29.7084 ,0.94111 ,2.77980 ,27.27542 
147 ,29.9323 ,0.94339 ,2.77980 ,27.27542 
148 ,30.1405 ,0.94549 ,2.76954 ,27.17469 
149 ,30.3489 ,0.94756 ,2.72847 ,26.77175 
150 ,30.5565 ,0.94967 ,2.73531 ,26.83891 
151 ,30.7488 ,0.95155 ,2.70109 ,26.50312 
152 ,30.9568 ,0.95365 ,2.69425 ,26.43597 
153 ,31.1490 ,0.95554 ,2.66345 ,26.13376 
154 ,31.3571 ,0.95764 ,2.65660 ,26.06661 
155 ,31.5651 ,0.95970 ,2.63949 ,25.89871 
156 ,31.7730 ,0.96184 ,2.61554 ,25.66367 
157 ,31.9809 ,0.96385 ,2.60869 ,25.59651 
158 ,32.1893 ,0.96598 ,2.57789 ,25.29430 
159 ,32.3974 ,0.96809 ,2.58132 ,25.32788 
160 ,32.5894 ,0.96995 ,2.55394 ,25.05926 
161 ,32.7817 ,0.97190 ,2.55052 ,25.02568 
162 ,32.9897 ,0.97394 ,2.50603 ,24.58916 
163 ,33.1817 ,0.97598 ,2.52314 ,24.75705 
164 ,33.3738 ,0.97780 ,2.48550 ,24.38769 
165 ,33.5820 ,0.97989 ,2.48550 ,24.38769 
166 ,33.7900 ,0.98193 ,2.46496 ,24.18622 
167 ,34.0296 ,0.98430 ,2.43759 ,23.91759 
168 ,34.2377 ,0.98644 ,2.42732 ,23.81686 
169 ,34.4623 ,0.98856 ,2.42390 ,23.78328 
170 ,34.7024 ,0.99108 ,2.40679 ,23.61539 
171 ,34.9105 ,0.99309 ,2.36914 ,23.24603 
172 ,35.1022 ,0.99513 ,2.36572 ,23.21245 
173 ,35.2783 ,0.99698 ,2.34177 ,22.97740 
174 ,35.4868 ,0.99895 ,2.32465 ,22.80951 
175 ,35.6787 ,1.00093 ,2.30070 ,22.57446 
176 ,35.8708 ,1.00277 ,2.29385 ,22.50731 
177 ,36.0786 ,1.00484 ,2.28359 ,22.40657 
178 ,36.2711 ,1.00685 ,2.25621 ,22.13794 
179 ,36.4791 ,1.00885 ,2.25279 ,22.10437 
180 ,36.6712 ,1.01074 ,2.22199 ,21.80216 
181 ,36.8793 ,1.01278 ,2.22883 ,21.86932 
182 ,37.0870 ,1.01493 ,2.19803 ,21.56711 
183 ,37.2792 ,1.01686 ,2.18777 ,21.46638 
184 ,37.4871 ,1.01889 ,2.16723 ,21.26491 
185 ,37.6957 ,1.02097 ,2.14670 ,21.06344 
186 ,37.9198 ,1.02320 ,2.15012 ,21.09702 
187 ,38.1277 ,1.02524 ,2.11932 ,20.79481 
188 ,38.3199 ,1.02724 ,2.11248 ,20.72766 
189 ,38.5280 ,1.02933 ,2.10221 ,20.62692 
190 ,38.7358 ,1.03134 ,2.08168 ,20.42545 
191 ,38.9442 ,1.03352 ,2.07141 ,20.32472 
192 ,39.1525 ,1.03555 ,2.03035 ,19.92178 
193 ,39.3604 ,1.03762 ,2.03719 ,19.98893 
194 ,39.5685 ,1.03973 ,2.03035 ,19.92178 
195 ,39.7763 ,1.04183 ,1.98928 ,19.51884 
196 ,40.0007 ,1.04400 ,1.99955 ,19.61957 
197 ,40.2248 ,1.04619 ,1.98244 ,19.45168 
198 ,40.4486 ,1.04852 ,1.94137 ,19.04874 
199 ,40.6567 ,1.05058 ,1.92768 ,18.91443 
200 ,40.8810 ,1.05281 ,1.92426 ,18.88085 
201 ,41.0888 ,1.05495 ,1.89688 ,18.61222 
202 ,41.3131 ,1.05705 ,1.86266 ,18.27644 
203 ,41.5212 ,1.05926 ,1.86608 ,18.31002 
204 ,41.7290 ,1.06126 ,1.85924 ,18.24286 
205 ,41.9209 ,1.06326 ,1.83186 ,17.97423 
206 ,42.1134 ,1.06517 ,1.82160 ,17.87350 
207 ,42.3052 ,1.06712 ,1.81133 ,17.77276 
208 ,42.4975 ,1.06903 ,1.79764 ,17.63845 
209 ,42.6897 ,1.07091 ,1.78395 ,17.50414 
210 ,42.8818 ,1.07285 ,1.75657 ,17.23551 
211 ,43.0738 ,1.07476 ,1.74631 ,17.13478 
212 ,43.2659 ,1.07671 ,1.75315 ,17.20193 
213 ,43.4580 ,1.07872 ,1.71551 ,16.83257 
214 ,43.6502 ,1.08056 ,1.71551 ,16.83257 
215 ,43.8740 ,1.08275 ,1.67786 ,16.46321 
216 ,44.0977 ,1.08493 ,1.67102 ,16.39605 
217 ,44.3063 ,1.08709 ,1.66760 ,16.36248 
218 ,44.5144 ,1.08920 ,1.64022 ,16.09385 
219 ,44.7064 ,1.09110 ,1.63680 ,16.06027 
220 ,44.9144 ,1.09320 ,1.61627 ,15.85880 
221 ,45.1063 ,1.09511 ,1.60942 ,15.79164 
222 ,45.2986 ,1.09701 ,1.57520 ,15.45586 
223 ,45.4909 ,1.09891 ,1.58889 ,15.59018 
224 ,45.6988 ,1.10102 ,1.55467 ,15.25439 
225 ,45.9065 ,1.10308 ,1.55124 ,15.22081 
226 ,46.1147 ,1.10510 ,1.51018 ,14.81787 
227 ,46.3228 ,1.10720 ,1.52387 ,14.95219 
228 ,46.5473 ,1.10938 ,1.49991 ,14.71714 
229 ,46.7555 ,1.11153 ,1.47253 ,14.44851 
230 ,46.9635 ,1.11365 ,1.46569 ,14.38136 
231 ,47.1715 ,1.11570 ,1.45542 ,14.28062 
232 ,47.3636 ,1.11776 ,1.43147 ,14.04557 
233 ,47.5717 ,1.11971 ,1.42805 ,14.01199 
234 ,47.7958 ,1.12184 ,1.39725 ,13.70979 
235 ,48.0036 ,1.12404 ,1.40751 ,13.81053 
236 ,48.1960 ,1.12601 ,1.37329 ,13.47474 
237 ,48.4039 ,1.12802 ,1.36987 ,13.44116 
238 ,48.6120 ,1.13013 ,1.34934 ,13.23969 
239 ,48.8044 ,1.13205 ,1.33223 ,13.07180 
240 ,49.0281 ,1.13423 ,1.33907 ,13.13896 
241 ,49.2203 ,1.13622 ,1.30143 ,12.76960 
242 ,49.4445 ,1.13844 ,1.29800 ,12.73602 
243 ,49.6361 ,1.14039 ,1.28774 ,12.63528 
244 ,49.8284 ,1.14232 ,1.29458 ,12.70244 
245 ,50.0529 ,1.14453 ,1.25694 ,12.33308 
246 ,50.2608 ,1.14660 ,1.23983 ,12.16519 
247 ,50.4687 ,1.14866 ,1.24667 ,12.23235 
248 ,50.6609 ,1.15059 ,1.21245 ,11.89656 
249 ,50.8690 ,1.15271 ,1.21245 ,11.89656 
250 ,51.0769 ,1.15478 ,1.18850 ,11.66151 
251 ,51.3170 ,1.15702 ,1.15770 ,11.35931 
252 ,51.5253 ,1.15925 ,1.15427 ,11.32573 
253 ,51.7333 ,1.16129 ,1.15770 ,11.35931 
254 ,51.9253 ,1.16326 ,1.13374 ,11.12426 
255 ,52.1175 ,1.16520 ,1.10979 ,10.88921 
256 ,52.3258 ,1.16721 ,1.10636 ,10.85563 
257 ,52.5497 ,1.16953 ,1.10636 ,10.85563 
258 ,52.7258 ,1.17136 ,1.07214 ,10.51985 
259 ,52.9174 ,1.17319 ,1.05845 ,10.38554 
260 ,53.1261 ,1.17520 ,1.05503 ,10.35196 
261 ,53.3180 ,1.17724 ,1.03450 ,10.15049 
262 ,53.5261 ,1.17925 ,1.03108 ,10.11691 
263 ,53.7182 ,1.18117 ,1.00712 ,9.88186 
264 ,53.9264 ,1.18330 ,0.99343 ,9.74755 
265 ,54.1343 ,1.18527 ,0.98317 ,9.64682 
266 ,54.3425 ,1.18738 ,0.96605 ,9.47892 
267 ,54.5344 ,1.18934 ,0.96605 ,9.47892 
268 ,54.7264 ,1.19123 ,0.93868 ,9.21030 
269 ,54.9186 ,1.19318 ,0.92841 ,9.10956 
270 ,55.1104 ,1.19509 ,0.92499 ,9.07598 
271 ,55.3185 ,1.19713 ,0.90103 ,8.84094 
272 ,55.5106 ,1.19910 ,0.90446 ,8.87451 
273 ,55.7027 ,1.20104 ,0.88050 ,8.63947 
274 ,55.8787 ,1.20288 ,0.87023 ,8.53873 
275 ,56.0710 ,1.20474 ,0.87708 ,8.60589 
276 ,56.2952 ,1.20689 ,0.84628 ,8.30368 
277 ,56.4872 ,1.20881 ,0.83259 ,8.16937 
278 ,56.6953 ,1.21089 ,0.81890 ,8.03506 
279 ,56.9037 ,1.21298 ,0.80521 ,7.90074 
280 ,57.1117 ,1.21506 ,0.79152 ,7.76643 
281 ,57.3193 ,1.21710 ,0.77441 ,7.59854 
282 ,57.5277 ,1.21922 ,0.76072 ,7.46423 
283 ,57.7519 ,1.22137 ,0.77099 ,7.56496 
284 ,57.9440 ,1.22346 ,0.72650 ,7.12844 
285 ,58.1521 ,1.22551 ,0.73677 ,7.22918 
286 ,58.3601 ,1.22758 ,0.71966 ,7.06129 
287 ,58.5524 ,1.22949 ,0.70939 ,6.96055 
288 ,58.7602 ,1.23156 ,0.69228 ,6.79266 
289 ,58.9526 ,1.23350 ,0.67517 ,6.62477 
290 ,59.1761 ,1.23563 ,0.67175 ,6.59119 
291 ,59.3685 ,1.23761 ,0.64095 ,6.28899 
292 ,59.5601 ,1.23955 ,0.65121 ,6.38972 
293 ,59.7529 ,1.24153 ,0.64437 ,6.32256 
294 ,59.9606 ,1.24356 ,0.62384 ,6.12109 
295 ,60.1685 ,1.24561 ,0.58962 ,5.78531 
296 ,60.3606 ,1.24755 ,0.59646 ,5.85247 
297 ,60.5533 ,1.24949 ,0.58277 ,5.71815 
298 ,60.7769 ,1.25172 ,0.57935 ,5.68458 
299 ,60.9852 ,1.25382 ,0.55882 ,5.48311 
300 ,61.1770 ,1.25571 ,0.55882 ,5.48311 
301 ,61.4014 ,1.25796 ,0.52459 ,5.14732 
302 ,61.6095 ,1.26000 ,0.52117 ,5.11375 
303 ,61.8174 ,1.26214 ,0.52117 ,5.11375 
304 ,62.0097 ,1.26411 ,0.49380 ,4.84512 
305 ,62.2336 ,1.26628 ,0.48695 ,4.77796 
306 ,62.4418 ,1.26838 ,0.45615 ,4.47576 
307 ,62.6499 ,1.27038 ,0.46300 ,4.54291 
308 ,62.8575 ,1.27246 ,0.45273 ,4.44218 
309 ,63.0499 ,1.27447 ,0.42193 ,4.13997 
310 ,63.2739 ,1.27666 ,0.43220 ,4.24071 
311 ,63.4823 ,1.27873 ,0.39797 ,3.90493 
312 ,63.6903 ,1.28081 ,0.40140 ,3.93850 
313 ,63.8980 ,1.28290 ,0.38086 ,3.73703 
314 ,64.1064 ,1.28497 ,0.37402 ,3.66988 
315 ,64.3145 ,1.28711 ,0.37060 ,3.63630 
316 ,64.5063 ,1.28902 ,0.33980 ,3.33410 
317 ,64.6987 ,1.29090 ,0.34664 ,3.40125 
318 ,64.8906 ,1.29285 ,0.32953 ,3.23336 
319 ,65.0825 ,1.29475 ,0.31242 ,3.06547 
320 ,65.2747 ,1.29670 ,0.31926 ,3.13263 
321 ,65.4830 ,1.29880 ,0.30900 ,3.03189 
322 ,65.6911 ,1.30082 ,0.29189 ,2.86400 
323 ,65.8993 ,1.30285 ,0.27135 ,2.66253 
324 ,66.1070 ,1.30504 ,0.25082 ,2.46106 
325 ,66.3154 ,1.30708 ,0.26109 ,2.56179 
326 ,66.5233 ,1.30916 ,0.23029 ,2.25959 
327 ,66.7316 ,1.31126 ,0.22687 ,2.22601 
328 ,66.9395 ,1.31326 ,0.22002 ,2.15885 
329 ,67.1318 ,1.31525 ,0.19949 ,1.95738 
330 ,67.3399 ,1.31735 ,0.19949 ,1.95738 
331 ,67.5320 ,1.31923 ,0.18238 ,1.78949 
332 ,67.7240 ,1.32120 ,0.16869 ,1.65518 
333 ,67.9321 ,1.32329 ,0.14816 ,1.45371 
334 ,68.1241 ,1.32530 ,0.15500 ,1.52087 
335 ,68.3162 ,1.32712 ,0.14816 ,1.45371 
336 ,68.5403 ,1.32933 ,0.12420 ,1.21866 
337 ,68.7482 ,1.33145 ,0.08998 ,0.88288 
338 ,68.9405 ,1.33334 ,0.10709 ,1.05077 
339 ,69.1326 ,1.33528 ,0.09340 ,0.91646 
340 ,69.3407 ,1.33729 ,0.07971 ,0.78214 
341 ,69.5324 ,1.33936 ,0.07287 ,0.71499 
342 ,69.7247 ,1.34114 ,0.05234 ,0.51352 
343 ,69.9168 ,1.34309 ,0.05576 ,0.54710 
344 ,70.1089 ,1.34500 ,0.02154 ,0.21131 
345 ,70.3169 ,1.34704 ,0.03865 ,0.37920 
346 ,70.5409 ,1.34917 ,0.00785 ,0.07700 
347 ,70.7811 ,1.35162 ,-0.00242 ,-0.02373 
348 ,70.9893 ,1.35379 ,-0.01611 ,-0.15805 
349 ,71.1972 ,1.35586 ,-0.00926 ,-0.09089 
350 ,71.4054 ,1.35793 ,-0.04006 ,-0.39310 
351 ,71.6135 ,1.35994 ,-0.03322 ,-0.32594 
352 ,71.8374 ,1.36222 ,-0.04691 ,-0.46025 
353 ,72.0458 ,1.36439 ,-0.07771 ,-0.76246 
354 ,72.2377 ,1.36630 ,-0.07428 ,-0.72888 
355 ,72.4299 ,1.36825 ,-0.08455 ,-0.82961 
356 ,72.6540 ,1.37042 ,-0.09824 ,-0.96393 
357 ,72.8619 ,1.37248 ,-0.11535 ,-1.13182 
358 ,73.0378 ,1.37440 ,-0.12904 ,-1.26613 
359 ,73.2462 ,1.37634 ,-0.13588 ,-1.33329 
360 ,73.4383 ,1.37829 ,-0.12904 ,-1.26613 
361 ,73.6944 ,1.38084 ,-0.14957 ,-1.46760 
362 ,73.9021 ,1.38290 ,-0.15984 ,-1.56834 
363 ,74.1106 ,1.38501 ,-0.18722 ,-1.83696 
364 ,74.3186 ,1.38716 ,-0.17695 ,-1.73623 
365 ,74.5108 ,1.38901 ,-0.20090 ,-1.97128 
366 ,74.7026 ,1.39097 ,-0.20090 ,-1.97128 
367 ,74.9110 ,1.39299 ,-0.23170 ,-2.27348 
368 ,75.1030 ,1.39504 ,-0.20775 ,-2.03843 
369 ,75.2789 ,1.39682 ,-0.23855 ,-2.34064 
370 ,75.4711 ,1.39860 ,-0.25908 ,-2.54211 
371 ,75.7114 ,1.40084 ,-0.24197 ,-2.37422 
372 ,75.9194 ,1.40304 ,-0.25908 ,-2.54211 
373 ,76.1270 ,1.40510 ,-0.28304 ,-2.77716 
374 ,76.3356 ,1.40726 ,-0.27961 ,-2.74358 
375 ,76.5596 ,1.40943 ,-0.28646 ,-2.81073 
376 ,76.7675 ,1.41161 ,-0.31384 ,-3.07936 
377 ,76.9759 ,1.41365 ,-0.32410 ,-3.18010 
378 ,77.1677 ,1.41561 ,-0.32752 ,-3.21367 
379 ,77.3756 ,1.41763 ,-0.31726 ,-3.11294 
380 ,77.5841 ,1.41976 ,-0.33095 ,-3.24725 
381 ,77.7922 ,1.42174 ,-0.36175 ,-3.54946 
382 ,78.0003 ,1.42386 ,-0.35832 ,-3.51588 
383 ,78.2084 ,1.42591 ,-0.38912 ,-3.81808 
384 ,78.4324 ,1.42814 ,-0.38228 ,-3.75093 
385 ,78.6244 ,1.43012 ,-0.38228 ,-3.75093 
386 ,78.8167 ,1.43208 ,-0.41308 ,-4.05313 
387 ,79.0407 ,1.43428 ,-0.41650 ,-4.08671 
388 ,79.2168 ,1.43619 ,-0.42677 ,-4.18744 
389 ,79.4084 ,1.43797 ,-0.45414 ,-4.45607 
390 ,79.6167 ,1.44002 ,-0.44046 ,-4.32176 
391 ,79.8250 ,1.44214 ,-0.44730 ,-4.38891 
392 ,80.0330 ,1.44416 ,-0.46783 ,-4.59038 
393 ,80.2253 ,1.44614 ,-0.47126 ,-4.62396 
394 ,80.4331 ,1.44817 ,-0.48494 ,-4.75828 
395 ,80.6413 ,1.45030 ,-0.48837 ,-4.79185 
396 ,80.8335 ,1.45221 ,-0.50890 ,-4.99332 
397 ,81.0253 ,1.45415 ,-0.51232 ,-5.02690 
398 ,81.2497 ,1.45623 ,-0.52259 ,-5.12764 
399 ,81.4577 ,1.45840 ,-0.52943 ,-5.19479 
400 ,81.6653 ,1.46053 ,-0.52601 ,-5.16121 
401 ,81.8736 ,1.46258 ,-0.55681 ,-5.46342 
402 ,82.0659 ,1.46454 ,-0.55339 ,-5.42984 
403 ,82.2581 ,1.46651 ,-0.56365 ,-5.53058 
404 ,82.4660 ,1.46847 ,-0.57050 ,-5.59773 
405 ,82.6584 ,1.47044 ,-0.59103 ,-5.79920 
406 ,82.8662 ,1.47255 ,-0.59103 ,-5.79920 
407 ,83.0742 ,1.47462 ,-0.61156 ,-6.00067 
408 ,83.2822 ,1.47669 ,-0.60814 ,-5.96709 
409 ,83.4746 ,1.47862 ,-0.62525 ,-6.13499 
410 ,83.6826 ,1.48069 ,-0.62183 ,-6.10141 
411 ,83.8741 ,1.48276 ,-0.65605 ,-6.43719 
412 ,84.0666 ,1.48454 ,-0.64579 ,-6.33646 
413 ,84.3068 ,1.48679 ,-0.66632 ,-6.53793 
414 ,84.4989 ,1.48882 ,-0.66632 ,-6.53793 
415 ,84.7070 ,1.49092 ,-0.67659 ,-6.63866 
416 ,84.8991 ,1.49284 ,-0.69027 ,-6.77297 
417 ,85.1232 ,1.49500 ,-0.70739 ,-6.94086 
418 ,85.3474 ,1.49726 ,-0.69712 ,-6.84013 
419 ,85.5394 ,1.49927 ,-0.71765 ,-7.04160 
420 ,85.7315 ,1.50118 ,-0.72792 ,-7.14233 
421 ,85.9393 ,1.50319 ,-0.73476 ,-7.20949 
422 ,86.1475 ,1.50538 ,-0.73134 ,-7.17591 
423 ,86.3397 ,1.50727 ,-0.75530 ,-7.41096 
424 ,86.5637 ,1.50946 ,-0.75530 ,-7.41096 
425 ,86.7719 ,1.51154 ,-0.78952 ,-7.74674 
426 ,86.9638 ,1.51351 ,-0.76898 ,-7.54527 
427 ,87.1717 ,1.51554 ,-0.79636 ,-7.81390 
428 ,87.3797 ,1.51764 ,-0.79978 ,-7.84748 
429 ,87.5878 ,1.51969 ,-0.81347 ,-7.98179 
430 ,87.7804 ,1.52167 ,-0.83058 ,-8.14968 
431 ,88.0204 ,1.52395 ,-0.80321 ,-7.88106 
432 ,88.2280 ,1.52609 ,-0.83058 ,-8.14968 
433 ,88.4527 ,1.52826 ,-0.85112 ,-8.35115 
434 ,88.6607 ,1.53048 ,-0.86481 ,-8.48547 
435 ,88.8528 ,1.53239 ,-0.86481 ,-8.48547 
436 ,89.0609 ,1.53453 ,-0.88534 ,-8.68694 
437 ,89.2687 ,1.53656 ,-0.87507 ,-8.58620 
438 ,89.4611 ,1.53849 ,-0.89218 ,-8.75409 
439 ,89.6688 ,1.54056 ,-0.89903 ,-8.82125 
440 ,89.8771 ,1.54262 ,-0.91614 ,-8.98914 
441 ,90.0852 ,1.54466 ,-0.90929 ,-8.92198 
442 ,90.2933 ,1.54673 ,-0.92983 ,-9.12345 
443 ,90.5012 ,1.54883 ,-0.94351 ,-9.25777 
444 ,90.7095 ,1.55091 ,-0.93325 ,-9.15703 
445 ,90.9017 ,1.55291 ,-0.96063 ,-9.42566 
446 ,91.1097 ,1.55495 ,-0.94694 ,-9.29135 
447 ,91.3178 ,1.55698 ,-0.98116 ,-9.62713 
448 ,91.5256 ,1.55912 ,-0.96747 ,-9.49282 
449 ,91.7502 ,1.56132 ,-0.98458 ,-9.66071 
450 ,91.9581 ,1.56348 ,-1.01196 ,-9.92933 
451 ,92.1663 ,1.56546 ,-1.00854 ,-9.89576 
452 ,92.3741 ,1.56756 ,-1.02222 ,-10.03007 
453 ,92.5824 ,1.56964 ,-1.02907 ,-10.09723 
454 ,92.7901 ,1.57170 ,-1.03591 ,-10.16438 
455 ,92.9984 ,1.57383 ,-1.05302 ,-10.33227 
456 ,93.2064 ,1.57585 ,-1.04618 ,-10.26512 
457 ,93.3986 ,1.57783 ,-1.06671 ,-10.46659 
458 ,93.5909 ,1.57977 ,-1.05302 ,-10.33227 
459 ,93.7985 ,1.58183 ,-1.08040 ,-10.60090 
460 ,94.0230 ,1.58390 ,-1.07014 ,-10.50016 
461 ,94.2311 ,1.58613 ,-1.09067 ,-10.70163 
462 ,94.4386 ,1.58821 ,-1.11462 ,-10.93668 
