Data stamp = , 04-05-2022 12:48:45 680

Calibration Values: 
Slope = , 26.54 , g/V 
Offset Voltage at no contact = , -0.501760 , V 

No , Time , Stage Position ,   Mass , Force 
   ,  (s) ,      (mm)      ,   (g)  , (mN)  

1 ,0.0000 ,0.64934 ,5.36354 ,52.62704 
2 ,0.2251 ,0.64946 ,5.37038 ,52.69420 
3 ,0.7376 ,0.65106 ,5.37038 ,52.69420 
4 ,0.9774 ,0.65377 ,5.39092 ,52.89567 
5 ,1.2178 ,0.65603 ,5.38407 ,52.82851 
6 ,1.4258 ,0.65829 ,5.39092 ,52.89567 
7 ,1.6340 ,0.66030 ,5.37381 ,52.72778 
8 ,1.8419 ,0.66244 ,5.36354 ,52.62704 
9 ,2.1298 ,0.66488 ,5.32932 ,52.29126 
10 ,2.3383 ,0.66744 ,5.31905 ,52.19052 
11 ,2.5624 ,0.66964 ,5.29167 ,51.92190 
12 ,2.7704 ,0.67171 ,5.26087 ,51.61969 
13 ,2.9626 ,0.67367 ,5.24718 ,51.48538 
14 ,3.1706 ,0.67577 ,5.23007 ,51.31749 
15 ,3.3786 ,0.67781 ,5.20612 ,51.08244 
16 ,3.6028 ,0.68002 ,5.19243 ,50.94813 
17 ,3.8111 ,0.68214 ,5.16848 ,50.71308 
18 ,4.0190 ,0.68418 ,5.13083 ,50.34372 
19 ,4.2270 ,0.68630 ,5.12741 ,50.31014 
20 ,4.4190 ,0.68830 ,5.08977 ,49.94078 
21 ,4.6112 ,0.69017 ,5.10003 ,50.04151 
22 ,4.8191 ,0.69230 ,5.05897 ,49.63857 
23 ,5.0274 ,0.69426 ,5.05212 ,49.57142 
24 ,5.2516 ,0.69654 ,5.01448 ,49.20205 
25 ,5.4591 ,0.69858 ,5.00421 ,49.10132 
26 ,5.6513 ,0.70060 ,4.98026 ,48.86627 
27 ,5.8758 ,0.70278 ,4.94946 ,48.56407 
28 ,6.0678 ,0.70473 ,4.94946 ,48.56407 
29 ,6.2759 ,0.70687 ,4.91523 ,48.22828 
30 ,6.4838 ,0.70885 ,4.90155 ,48.09397 
31 ,6.6920 ,0.71101 ,4.87417 ,47.82534 
32 ,6.9002 ,0.71304 ,4.85364 ,47.62387 
33 ,7.1080 ,0.71508 ,4.84679 ,47.55672 
34 ,7.3160 ,0.71719 ,4.80915 ,47.18736 
35 ,7.5081 ,0.71910 ,4.81941 ,47.28809 
36 ,7.7002 ,0.72105 ,4.77493 ,46.85157 
37 ,7.8923 ,0.72298 ,4.76466 ,46.75084 
38 ,8.1007 ,0.72500 ,4.74070 ,46.51579 
39 ,8.3085 ,0.72704 ,4.73728 ,46.48221 
40 ,8.5007 ,0.72904 ,4.69622 ,46.07927 
41 ,8.7087 ,0.73115 ,4.70306 ,46.14643 
42 ,8.9167 ,0.73321 ,4.65515 ,45.67633 
43 ,9.1411 ,0.73537 ,4.65515 ,45.67633 
44 ,9.3332 ,0.73738 ,4.63804 ,45.50844 
45 ,9.5413 ,0.73945 ,4.60040 ,45.13908 
46 ,9.7491 ,0.74155 ,4.61066 ,45.23981 
47 ,9.9252 ,0.74338 ,4.56617 ,44.80330 
48 ,10.1171 ,0.74519 ,4.54564 ,44.60183 
49 ,10.3093 ,0.74716 ,4.54564 ,44.60183 
50 ,10.5175 ,0.74923 ,4.52169 ,44.36678 
51 ,10.7252 ,0.75131 ,4.51142 ,44.26604 
52 ,10.9332 ,0.75335 ,4.48404 ,43.99742 
53 ,11.1578 ,0.75558 ,4.46351 ,43.79595 
54 ,11.4138 ,0.75816 ,4.43613 ,43.52732 
55 ,11.6058 ,0.76014 ,4.42244 ,43.39301 
56 ,11.7979 ,0.76201 ,4.39164 ,43.09080 
57 ,12.0062 ,0.76412 ,4.39164 ,43.09080 
58 ,12.2141 ,0.76615 ,4.35400 ,42.72144 
59 ,12.4224 ,0.76822 ,4.34373 ,42.62071 
60 ,12.5983 ,0.77013 ,4.32662 ,42.45282 
61 ,12.8225 ,0.77210 ,4.33004 ,42.48639 
62 ,13.0306 ,0.77433 ,4.30267 ,42.21777 
63 ,13.2222 ,0.77624 ,4.25818 ,41.78125 
64 ,13.4148 ,0.77816 ,4.25818 ,41.78125 
65 ,13.6068 ,0.78008 ,4.23080 ,41.51262 
66 ,13.7990 ,0.78205 ,4.21027 ,41.31115 
67 ,14.0070 ,0.78411 ,4.20685 ,41.27758 
68 ,14.1988 ,0.78612 ,4.18631 ,41.07611 
69 ,14.4068 ,0.78804 ,4.17947 ,41.00895 
70 ,14.5988 ,0.78998 ,4.14867 ,40.70674 
71 ,14.7910 ,0.79189 ,4.14183 ,40.63959 
72 ,14.9834 ,0.79389 ,4.11445 ,40.37096 
73 ,15.1914 ,0.79590 ,4.10076 ,40.23665 
74 ,15.3992 ,0.79794 ,4.05285 ,39.76655 
75 ,15.5915 ,0.79995 ,4.05627 ,39.80013 
76 ,15.8157 ,0.80212 ,4.03232 ,39.56508 
77 ,16.0076 ,0.80408 ,4.02547 ,39.49793 
78 ,16.2160 ,0.80616 ,3.99809 ,39.22930 
79 ,16.4240 ,0.80829 ,3.97414 ,38.99425 
80 ,16.6321 ,0.81034 ,3.96387 ,38.89352 
81 ,16.8402 ,0.81238 ,3.93307 ,38.59131 
82 ,17.0481 ,0.81445 ,3.93650 ,38.62489 
83 ,17.2402 ,0.81639 ,3.90570 ,38.32268 
84 ,17.4323 ,0.81832 ,3.89885 ,38.25553 
85 ,17.6240 ,0.82024 ,3.86805 ,37.95332 
86 ,17.8166 ,0.82219 ,3.84752 ,37.75185 
87 ,18.0088 ,0.82410 ,3.84410 ,37.71828 
88 ,18.2168 ,0.82614 ,3.82356 ,37.51681 
89 ,18.4248 ,0.82818 ,3.79276 ,37.21460 
90 ,18.6330 ,0.83034 ,3.79276 ,37.21460 
91 ,18.8410 ,0.83238 ,3.75854 ,36.87882 
92 ,19.0491 ,0.83449 ,3.75854 ,36.87882 
93 ,19.2732 ,0.83671 ,3.72432 ,36.54303 
94 ,19.4812 ,0.83875 ,3.69694 ,36.27441 
95 ,19.6894 ,0.84088 ,3.69010 ,36.20725 
96 ,19.8976 ,0.84298 ,3.67299 ,36.03936 
97 ,20.1215 ,0.84519 ,3.63877 ,35.70358 
98 ,20.3297 ,0.84726 ,3.63877 ,35.70358 
99 ,20.5378 ,0.84936 ,3.61481 ,35.46853 
100 ,20.7457 ,0.85149 ,3.58743 ,35.19990 
101 ,20.9376 ,0.85337 ,3.58401 ,35.16632 
102 ,21.1298 ,0.85529 ,3.56690 ,34.99843 
103 ,21.3221 ,0.85723 ,3.54295 ,34.76338 
104 ,21.5300 ,0.85926 ,3.52926 ,34.62907 
105 ,21.7384 ,0.86137 ,3.50872 ,34.42760 
106 ,21.9621 ,0.86354 ,3.47792 ,34.12540 
107 ,22.1702 ,0.86567 ,3.47792 ,34.12540 
108 ,22.3786 ,0.86779 ,3.45397 ,33.89035 
109 ,22.5865 ,0.86981 ,3.43344 ,33.68888 
110 ,22.7945 ,0.87191 ,3.42659 ,33.62172 
111 ,22.9871 ,0.87383 ,3.39237 ,33.28594 
112 ,23.2910 ,0.87646 ,3.38210 ,33.18520 
113 ,23.5150 ,0.87911 ,3.34446 ,32.81584 
114 ,23.7071 ,0.88105 ,3.33077 ,32.68153 
115 ,23.8991 ,0.88296 ,3.31366 ,32.51364 
116 ,24.1072 ,0.88503 ,3.29313 ,32.31217 
117 ,24.2993 ,0.88695 ,3.26575 ,32.04354 
118 ,24.4912 ,0.88888 ,3.26917 ,32.07712 
119 ,24.6996 ,0.89099 ,3.22811 ,31.67418 
120 ,24.9077 ,0.89297 ,3.22468 ,31.64060 
121 ,25.1317 ,0.89520 ,3.21784 ,31.57345 
122 ,25.3233 ,0.89726 ,3.17677 ,31.17051 
123 ,25.5157 ,0.89914 ,3.17335 ,31.13693 
124 ,25.7080 ,0.90103 ,3.14940 ,30.90188 
125 ,25.9159 ,0.90315 ,3.13229 ,30.73399 
126 ,26.1240 ,0.90519 ,3.10149 ,30.43178 
127 ,26.3320 ,0.90724 ,3.11518 ,30.56610 
128 ,26.5722 ,0.90957 ,3.07753 ,30.19674 
129 ,26.7805 ,0.91179 ,3.06384 ,30.06242 
130 ,26.9885 ,0.91380 ,3.05015 ,29.92811 
131 ,27.1805 ,0.91577 ,3.02278 ,29.65948 
132 ,27.3727 ,0.91768 ,3.00909 ,29.52517 
133 ,27.5804 ,0.91969 ,2.98855 ,29.32370 
134 ,27.7729 ,0.92167 ,2.98855 ,29.32370 
135 ,27.9806 ,0.92380 ,2.95776 ,29.02150 
136 ,28.1890 ,0.92584 ,2.94749 ,28.92076 
137 ,28.3810 ,0.92787 ,2.92696 ,28.71929 
138 ,28.5888 ,0.92983 ,2.90642 ,28.51782 
139 ,28.7973 ,0.93195 ,2.88247 ,28.28277 
140 ,29.0213 ,0.93413 ,2.87562 ,28.21562 
141 ,29.2135 ,0.93612 ,2.87905 ,28.24919 
142 ,29.4214 ,0.93821 ,2.83456 ,27.81268 
143 ,29.6136 ,0.94007 ,2.83798 ,27.84625 
144 ,29.8535 ,0.94240 ,2.80034 ,27.47689 
145 ,30.0619 ,0.94458 ,2.78322 ,27.30900 
146 ,30.2539 ,0.94646 ,2.79007 ,27.37616 
147 ,30.4619 ,0.94853 ,2.75243 ,27.00680 
148 ,30.6541 ,0.95050 ,2.75243 ,27.00680 
149 ,30.8621 ,0.95260 ,2.73189 ,26.80533 
150 ,31.0701 ,0.95471 ,2.71136 ,26.60386 
151 ,31.2784 ,0.95673 ,2.70794 ,26.57028 
152 ,31.4865 ,0.95878 ,2.67372 ,26.23450 
153 ,31.7105 ,0.96101 ,2.66687 ,26.16734 
154 ,31.9021 ,0.96299 ,2.63607 ,25.86514 
155 ,32.0948 ,0.96492 ,2.63607 ,25.86514 
156 ,32.3029 ,0.96699 ,2.61212 ,25.63009 
157 ,32.5105 ,0.96901 ,2.60869 ,25.59651 
158 ,32.7029 ,0.97098 ,2.57447 ,25.26073 
159 ,32.8949 ,0.97298 ,2.57447 ,25.26073 
160 ,33.0871 ,0.97486 ,2.54710 ,24.99210 
161 ,33.2951 ,0.97690 ,2.55052 ,25.02568 
162 ,33.4871 ,0.97881 ,2.50603 ,24.58916 
163 ,33.6793 ,0.98075 ,2.51630 ,24.68989 
164 ,33.8714 ,0.98277 ,2.48550 ,24.38769 
165 ,34.0632 ,0.98456 ,2.46496 ,24.18622 
166 ,34.2715 ,0.98662 ,2.45812 ,24.11906 
167 ,34.4957 ,0.98889 ,2.43759 ,23.91759 
168 ,34.7358 ,0.99134 ,2.43074 ,23.85044 
169 ,34.9440 ,0.99338 ,2.38968 ,23.44750 
170 ,35.1518 ,0.99542 ,2.38625 ,23.41392 
171 ,35.3600 ,0.99746 ,2.36572 ,23.21245 
172 ,35.5680 ,0.99959 ,2.34861 ,23.04456 
173 ,35.7601 ,1.00150 ,2.33834 ,22.94382 
174 ,35.9683 ,1.00363 ,2.31439 ,22.70877 
175 ,36.1763 ,1.00567 ,2.31439 ,22.70877 
176 ,36.3685 ,1.00761 ,2.28017 ,22.37299 
177 ,36.5604 ,1.00949 ,2.28017 ,22.37299 
178 ,36.7366 ,1.01140 ,2.25621 ,22.13794 
179 ,36.9286 ,1.01319 ,2.25279 ,22.10437 
180 ,37.1207 ,1.01517 ,2.23568 ,21.93647 
181 ,37.3289 ,1.01726 ,2.21857 ,21.76858 
182 ,37.5368 ,1.01923 ,2.21515 ,21.73500 
183 ,37.7450 ,1.02132 ,2.18092 ,21.39922 
184 ,37.9532 ,1.02341 ,2.18092 ,21.39922 
185 ,38.1611 ,1.02548 ,2.15355 ,21.13059 
186 ,38.3533 ,1.02749 ,2.14328 ,21.02986 
187 ,38.5290 ,1.02931 ,2.11590 ,20.76123 
188 ,38.7215 ,1.03115 ,2.11590 ,20.76123 
189 ,38.9295 ,1.03322 ,2.10221 ,20.62692 
190 ,39.1215 ,1.03513 ,2.08168 ,20.42545 
191 ,39.3137 ,1.03707 ,2.06115 ,20.22398 
192 ,39.5378 ,1.03928 ,2.03719 ,19.98893 
193 ,39.7459 ,1.04141 ,2.01324 ,19.75388 
194 ,39.9379 ,1.04338 ,2.03035 ,19.92178 
195 ,40.1300 ,1.04523 ,2.00297 ,19.65315 
196 ,40.3545 ,1.04746 ,1.99613 ,19.58599 
197 ,40.5622 ,1.04947 ,1.97559 ,19.38452 
198 ,40.7700 ,1.05157 ,1.96190 ,19.25021 
199 ,40.9625 ,1.05357 ,1.93795 ,19.01516 
200 ,41.1705 ,1.05562 ,1.92426 ,18.88085 
201 ,41.3627 ,1.05753 ,1.90373 ,18.67938 
202 ,41.5707 ,1.05960 ,1.88319 ,18.47791 
203 ,41.7784 ,1.06161 ,1.87977 ,18.44433 
204 ,41.9869 ,1.06375 ,1.84897 ,18.14213 
205 ,42.2108 ,1.06594 ,1.85924 ,18.24286 
206 ,42.4188 ,1.06807 ,1.84213 ,18.07497 
207 ,42.6271 ,1.07014 ,1.80449 ,17.70561 
208 ,42.8352 ,1.07221 ,1.81475 ,17.80634 
209 ,43.0271 ,1.07419 ,1.78395 ,17.50414 
210 ,43.2194 ,1.07613 ,1.78053 ,17.47056 
211 ,43.4273 ,1.07815 ,1.74631 ,17.13478 
212 ,43.6356 ,1.08022 ,1.75315 ,17.20193 
213 ,43.8437 ,1.08237 ,1.72920 ,16.96689 
214 ,44.0512 ,1.08435 ,1.71893 ,16.86615 
215 ,44.2598 ,1.08646 ,1.70524 ,16.73184 
216 ,44.4517 ,1.08846 ,1.69155 ,16.59752 
217 ,44.6440 ,1.09038 ,1.66760 ,16.36248 
218 ,44.8838 ,1.09255 ,1.66418 ,16.32890 
219 ,45.0917 ,1.09486 ,1.64022 ,16.09385 
220 ,45.3002 ,1.09690 ,1.63338 ,16.02669 
221 ,45.4922 ,1.09884 ,1.60942 ,15.79164 
222 ,45.7003 ,1.10091 ,1.60258 ,15.72449 
223 ,45.8921 ,1.10282 ,1.57178 ,15.42228 
224 ,46.0846 ,1.10473 ,1.56493 ,15.35513 
225 ,46.2762 ,1.10672 ,1.55124 ,15.22081 
226 ,46.4687 ,1.10859 ,1.54098 ,15.12008 
227 ,46.6610 ,1.11047 ,1.53413 ,15.05292 
228 ,46.8848 ,1.11263 ,1.52045 ,14.91861 
229 ,47.0770 ,1.11468 ,1.51360 ,14.85145 
230 ,47.2850 ,1.11674 ,1.46569 ,14.38136 
231 ,47.4928 ,1.11883 ,1.47596 ,14.48209 
232 ,47.7008 ,1.12085 ,1.45542 ,14.28062 
233 ,47.8930 ,1.12280 ,1.44858 ,14.21346 
234 ,48.1015 ,1.12487 ,1.42805 ,14.01199 
235 ,48.2770 ,1.12678 ,1.41436 ,13.87768 
236 ,48.4692 ,1.12867 ,1.40409 ,13.77695 
237 ,48.6936 ,1.13076 ,1.38356 ,13.57548 
238 ,48.9014 ,1.13296 ,1.37329 ,13.47474 
239 ,49.0938 ,1.13484 ,1.34934 ,13.23969 
240 ,49.3019 ,1.13688 ,1.34591 ,13.20612 
241 ,49.5099 ,1.13892 ,1.32196 ,12.97107 
242 ,49.7180 ,1.14106 ,1.32538 ,13.00465 
243 ,49.9098 ,1.14312 ,1.30485 ,12.80318 
244 ,50.1023 ,1.14490 ,1.28089 ,12.56813 
245 ,50.3263 ,1.14698 ,1.27405 ,12.50097 
246 ,50.5345 ,1.14921 ,1.26378 ,12.40024 
247 ,50.7263 ,1.15113 ,1.25009 ,12.26592 
248 ,50.9346 ,1.15319 ,1.25352 ,12.29950 
249 ,51.1103 ,1.15508 ,1.21929 ,11.96372 
250 ,51.3026 ,1.15689 ,1.20903 ,11.86298 
251 ,51.4949 ,1.15882 ,1.19876 ,11.76225 
252 ,51.7026 ,1.16089 ,1.17823 ,11.56078 
253 ,51.9268 ,1.16300 ,1.16796 ,11.46004 
254 ,52.1351 ,1.16520 ,1.15770 ,11.35931 
255 ,52.3594 ,1.16743 ,1.13032 ,11.09068 
256 ,52.5513 ,1.16937 ,1.11663 ,10.95637 
257 ,52.7434 ,1.17125 ,1.11321 ,10.92279 
258 ,52.9355 ,1.17323 ,1.10294 ,10.82206 
259 ,53.1113 ,1.17508 ,1.08241 ,10.62059 
260 ,53.3195 ,1.17706 ,1.07556 ,10.55343 
261 ,53.5112 ,1.17902 ,1.05503 ,10.35196 
262 ,53.7037 ,1.18088 ,1.03792 ,10.18407 
263 ,53.8957 ,1.18284 ,1.04476 ,10.25123 
264 ,54.1199 ,1.18507 ,1.02081 ,10.01618 
265 ,54.3279 ,1.18711 ,1.00712 ,9.88186 
266 ,54.5201 ,1.18909 ,0.99685 ,9.78113 
267 ,54.7282 ,1.19119 ,0.97290 ,9.54608 
268 ,54.9363 ,1.19317 ,0.97290 ,9.54608 
269 ,55.1283 ,1.19511 ,0.95237 ,9.34461 
270 ,55.3205 ,1.19705 ,0.94210 ,9.24388 
271 ,55.5123 ,1.19897 ,0.92499 ,9.07598 
272 ,55.7366 ,1.20103 ,0.90446 ,8.87451 
273 ,55.9447 ,1.20333 ,0.89761 ,8.80736 
274 ,56.1363 ,1.20524 ,0.90788 ,8.90809 
275 ,56.3449 ,1.20724 ,0.88392 ,8.67305 
276 ,56.5528 ,1.20939 ,0.85654 ,8.40442 
277 ,56.7447 ,1.21133 ,0.84628 ,8.30368 
278 ,56.9367 ,1.21320 ,0.85312 ,8.37084 
279 ,57.1290 ,1.21514 ,0.82232 ,8.06864 
280 ,57.3209 ,1.21703 ,0.81890 ,8.03506 
281 ,57.5133 ,1.21895 ,0.80521 ,7.90074 
282 ,57.7374 ,1.22115 ,0.80179 ,7.86717 
283 ,57.9294 ,1.22309 ,0.77784 ,7.63212 
284 ,58.1376 ,1.22522 ,0.77784 ,7.63212 
285 ,58.3453 ,1.22732 ,0.74019 ,7.26276 
286 ,58.5536 ,1.22940 ,0.74704 ,7.32991 
287 ,58.7618 ,1.23145 ,0.72308 ,7.09486 
288 ,58.9700 ,1.23356 ,0.70939 ,6.96055 
289 ,59.1780 ,1.23557 ,0.70597 ,6.92697 
290 ,59.3860 ,1.23765 ,0.68544 ,6.72550 
291 ,59.5780 ,1.23970 ,0.68201 ,6.69193 
292 ,59.7703 ,1.24158 ,0.66490 ,6.52403 
293 ,59.9941 ,1.24376 ,0.66490 ,6.52403 
294 ,60.2022 ,1.24580 ,0.63068 ,6.18825 
295 ,60.4102 ,1.24793 ,0.62042 ,6.08752 
296 ,60.6181 ,1.25001 ,0.62384 ,6.12109 
297 ,60.8107 ,1.25195 ,0.59304 ,5.81889 
298 ,61.0187 ,1.25402 ,0.59304 ,5.81889 
299 ,61.2268 ,1.25614 ,0.57251 ,5.61742 
300 ,61.4349 ,1.25816 ,0.57251 ,5.61742 
301 ,61.6425 ,1.26025 ,0.53486 ,5.24806 
302 ,61.8511 ,1.26233 ,0.54855 ,5.38237 
303 ,62.0431 ,1.26428 ,0.52117 ,5.11375 
304 ,62.2673 ,1.26641 ,0.51433 ,5.04659 
305 ,62.4753 ,1.26854 ,0.50748 ,4.97943 
306 ,62.6674 ,1.27051 ,0.48011 ,4.71081 
307 ,62.8595 ,1.27246 ,0.49722 ,4.87870 
308 ,63.0516 ,1.27437 ,0.46300 ,4.54291 
309 ,63.2599 ,1.27641 ,0.45615 ,4.47576 
310 ,63.4675 ,1.27847 ,0.43562 ,4.27429 
311 ,63.6599 ,1.28043 ,0.43904 ,4.30787 
312 ,63.8675 ,1.28245 ,0.41509 ,4.07282 
313 ,64.0760 ,1.28456 ,0.40482 ,3.97208 
314 ,64.2999 ,1.28677 ,0.38429 ,3.77061 
315 ,64.4920 ,1.28873 ,0.39113 ,3.83777 
316 ,64.6843 ,1.29064 ,0.36033 ,3.53557 
317 ,64.8766 ,1.29260 ,0.37744 ,3.70346 
318 ,65.0843 ,1.29463 ,0.33295 ,3.26694 
319 ,65.2924 ,1.29674 ,0.35006 ,3.43483 
320 ,65.4846 ,1.29867 ,0.30900 ,3.03189 
321 ,65.6925 ,1.30080 ,0.31584 ,3.09905 
322 ,65.8848 ,1.30265 ,0.29531 ,2.89758 
323 ,66.0924 ,1.30476 ,0.29531 ,2.89758 
324 ,66.3008 ,1.30680 ,0.27478 ,2.69611 
325 ,66.4929 ,1.30877 ,0.26109 ,2.56179 
326 ,66.7011 ,1.31082 ,0.25082 ,2.46106 
327 ,66.9252 ,1.31307 ,0.23713 ,2.32675 
328 ,67.1171 ,1.31499 ,0.23029 ,2.25959 
329 ,67.3253 ,1.31709 ,0.22002 ,2.15885 
330 ,67.5335 ,1.31910 ,0.21318 ,2.09170 
331 ,67.7411 ,1.32114 ,0.18580 ,1.82307 
332 ,67.9331 ,1.32311 ,0.19264 ,1.89023 
333 ,68.1254 ,1.32505 ,0.15842 ,1.55445 
334 ,68.3172 ,1.32705 ,0.18238 ,1.78949 
335 ,68.5095 ,1.32888 ,0.14131 ,1.38655 
336 ,68.7017 ,1.33084 ,0.15158 ,1.48729 
337 ,68.8937 ,1.33272 ,0.12762 ,1.25224 
338 ,69.1021 ,1.33482 ,0.10709 ,1.05077 
339 ,69.3103 ,1.33691 ,0.10709 ,1.05077 
340 ,69.5183 ,1.33895 ,0.10025 ,0.98361 
341 ,69.7423 ,1.34116 ,0.06260 ,0.61425 
342 ,69.9505 ,1.34325 ,0.07971 ,0.78214 
343 ,70.1587 ,1.34535 ,0.05918 ,0.58067 
344 ,70.3506 ,1.34734 ,0.02838 ,0.27847 
345 ,70.5261 ,1.34917 ,0.02838 ,0.27847 
346 ,70.7186 ,1.35099 ,0.04891 ,0.47994 
347 ,70.9266 ,1.35302 ,0.01811 ,0.17773 
348 ,71.1183 ,1.35499 ,0.02496 ,0.24489 
349 ,71.3584 ,1.35725 ,-0.00926 ,-0.09089 
350 ,71.5666 ,1.35948 ,-0.01611 ,-0.15805 
351 ,71.7908 ,1.36169 ,-0.02980 ,-0.29236 
352 ,71.9988 ,1.36378 ,-0.04006 ,-0.39310 
353 ,72.2391 ,1.36605 ,-0.05375 ,-0.52741 
354 ,72.4636 ,1.36848 ,-0.06060 ,-0.59457 
355 ,72.6714 ,1.37050 ,-0.07428 ,-0.72888 
356 ,72.8797 ,1.37258 ,-0.08797 ,-0.86319 
357 ,73.1036 ,1.37478 ,-0.10166 ,-0.99751 
358 ,73.2959 ,1.37673 ,-0.09140 ,-0.89677 
359 ,73.5038 ,1.37886 ,-0.11877 ,-1.16540 
360 ,73.7120 ,1.38096 ,-0.13246 ,-1.29971 
361 ,73.9196 ,1.38290 ,-0.13931 ,-1.36687 
362 ,74.1121 ,1.38494 ,-0.15984 ,-1.56834 
363 ,74.3198 ,1.38701 ,-0.15984 ,-1.56834 
364 ,74.5279 ,1.38899 ,-0.18722 ,-1.83696 
365 ,74.7201 ,1.39099 ,-0.17011 ,-1.66907 
366 ,74.9282 ,1.39303 ,-0.20090 ,-1.97128 
367 ,75.1366 ,1.39514 ,-0.19406 ,-1.90412 
368 ,75.3286 ,1.39705 ,-0.22144 ,-2.17275 
369 ,75.5209 ,1.39898 ,-0.21802 ,-2.13917 
370 ,75.7449 ,1.40113 ,-0.24539 ,-2.40779 
371 ,75.9366 ,1.40316 ,-0.22828 ,-2.23990 
372 ,76.1290 ,1.40505 ,-0.25908 ,-2.54211 
373 ,76.3210 ,1.40696 ,-0.25908 ,-2.54211 
374 ,76.5292 ,1.40909 ,-0.28646 ,-2.81073 
375 ,76.7373 ,1.41109 ,-0.28304 ,-2.77716 
376 ,76.9614 ,1.41335 ,-0.30015 ,-2.94505 
377 ,77.1530 ,1.41533 ,-0.30357 ,-2.97863 
378 ,77.3455 ,1.41725 ,-0.32410 ,-3.18010 
379 ,77.5536 ,1.41932 ,-0.33095 ,-3.24725 
380 ,77.7455 ,1.42125 ,-0.34464 ,-3.38156 
381 ,77.9694 ,1.42346 ,-0.34806 ,-3.41514 
382 ,78.1616 ,1.42539 ,-0.35490 ,-3.48230 
383 ,78.3859 ,1.42762 ,-0.37886 ,-3.71735 
384 ,78.5940 ,1.42966 ,-0.37544 ,-3.68377 
385 ,78.8020 ,1.43176 ,-0.38570 ,-3.78450 
386 ,78.9942 ,1.43370 ,-0.39255 ,-3.85166 
387 ,79.2021 ,1.43577 ,-0.39939 ,-3.91882 
388 ,79.3941 ,1.43770 ,-0.41308 ,-4.05313 
389 ,79.5704 ,1.43958 ,-0.42335 ,-4.15387 
390 ,79.7627 ,1.44138 ,-0.42677 ,-4.18744 
391 ,79.9702 ,1.44349 ,-0.45757 ,-4.48965 
392 ,80.1628 ,1.44537 ,-0.44730 ,-4.38891 
393 ,80.3704 ,1.44748 ,-0.47126 ,-4.62396 
394 ,80.5789 ,1.44948 ,-0.47468 ,-4.65754 
395 ,80.7870 ,1.45161 ,-0.48837 ,-4.79185 
396 ,80.9788 ,1.45362 ,-0.49179 ,-4.82543 
397 ,81.1709 ,1.45544 ,-0.51574 ,-5.06048 
398 ,81.3632 ,1.45740 ,-0.51232 ,-5.02690 
399 ,81.5708 ,1.45945 ,-0.52259 ,-5.12764 
400 ,81.7629 ,1.46139 ,-0.52943 ,-5.19479 
401 ,81.9554 ,1.46334 ,-0.53628 ,-5.26195 
402 ,82.1956 ,1.46557 ,-0.54997 ,-5.39626 
403 ,82.4033 ,1.46780 ,-0.56365 ,-5.53058 
404 ,82.6114 ,1.46980 ,-0.56708 ,-5.56415 
405 ,82.8359 ,1.47197 ,-0.57050 ,-5.59773 
406 ,83.0439 ,1.47420 ,-0.57734 ,-5.66489 
407 ,83.2680 ,1.47626 ,-0.58761 ,-5.76562 
408 ,83.4761 ,1.47849 ,-0.60472 ,-5.93352 
409 ,83.6842 ,1.48054 ,-0.63210 ,-6.20214 
410 ,83.9241 ,1.48290 ,-0.64236 ,-6.30288 
411 ,84.1324 ,1.48507 ,-0.65605 ,-6.43719 
412 ,84.3403 ,1.48712 ,-0.64579 ,-6.33646 
413 ,84.5322 ,1.48905 ,-0.66632 ,-6.53793 
414 ,84.7243 ,1.49096 ,-0.67659 ,-6.63866 
415 ,84.9324 ,1.49303 ,-0.68001 ,-6.67224 
416 ,85.1408 ,1.49516 ,-0.68001 ,-6.67224 
417 ,85.3488 ,1.49727 ,-0.71081 ,-6.97444 
418 ,85.5567 ,1.49929 ,-0.71081 ,-6.97444 
419 ,85.7652 ,1.50137 ,-0.72107 ,-7.07518 
420 ,85.9727 ,1.50345 ,-0.72792 ,-7.14233 
421 ,86.1810 ,1.50548 ,-0.73134 ,-7.17591 
422 ,86.3892 ,1.50761 ,-0.75187 ,-7.37738 
423 ,86.5811 ,1.50956 ,-0.73476 ,-7.20949 
424 ,86.7731 ,1.51147 ,-0.76556 ,-7.51170 
425 ,86.9495 ,1.51332 ,-0.77241 ,-7.57885 
426 ,87.1572 ,1.51532 ,-0.77241 ,-7.57885 
427 ,87.3497 ,1.51726 ,-0.79978 ,-7.84748 
428 ,87.5578 ,1.51930 ,-0.78952 ,-7.74674 
429 ,87.7659 ,1.52141 ,-0.81005 ,-7.94821 
430 ,87.9739 ,1.52344 ,-0.82032 ,-8.04895 
431 ,88.1656 ,1.52539 ,-0.83401 ,-8.18326 
432 ,88.3584 ,1.52740 ,-0.82716 ,-8.11611 
433 ,88.5819 ,1.52950 ,-0.84769 ,-8.31758 
434 ,88.8222 ,1.53198 ,-0.85112 ,-8.35115 
435 ,89.0302 ,1.53408 ,-0.87849 ,-8.61978 
436 ,89.2222 ,1.53594 ,-0.87849 ,-8.61978 
437 ,89.4466 ,1.53814 ,-0.89218 ,-8.75409 
438 ,89.6547 ,1.54030 ,-0.88534 ,-8.68694 
439 ,89.8629 ,1.54228 ,-0.90245 ,-8.85483 
440 ,90.0551 ,1.54428 ,-0.90587 ,-8.88841 
441 ,90.2629 ,1.54641 ,-0.91272 ,-8.95556 
442 ,90.4548 ,1.54830 ,-0.92640 ,-9.08988 
443 ,90.6467 ,1.55023 ,-0.95378 ,-9.35850 
444 ,90.8390 ,1.55215 ,-0.93667 ,-9.19061 
445 ,91.0471 ,1.55419 ,-0.96063 ,-9.42566 
446 ,91.2391 ,1.55610 ,-0.95036 ,-9.32492 
447 ,91.4313 ,1.55801 ,-0.97431 ,-9.55997 
448 ,91.6391 ,1.56012 ,-0.97089 ,-9.52639 
449 ,91.8316 ,1.56202 ,-1.00169 ,-9.82860 
450 ,92.0395 ,1.56405 ,-1.00511 ,-9.86218 
451 ,92.2477 ,1.56620 ,-1.01880 ,-9.99649 
452 ,92.4715 ,1.56830 ,-1.00511 ,-9.86218 
453 ,92.6638 ,1.57037 ,-1.01538 ,-9.96291 
454 ,92.8558 ,1.57228 ,-1.02222 ,-10.03007 
455 ,93.0478 ,1.57419 ,-1.05302 ,-10.33227 
456 ,93.2562 ,1.57626 ,-1.03591 ,-10.16438 
457 ,93.4642 ,1.57831 ,-1.05645 ,-10.36585 
458 ,93.6718 ,1.58040 ,-1.06671 ,-10.46659 
459 ,93.8804 ,1.58245 ,-1.07014 ,-10.50016 
460 ,94.0884 ,1.58454 ,-1.08382 ,-10.63448 
461 ,94.2805 ,1.58649 ,-1.07014 ,-10.50016 
462 ,94.4886 ,1.58862 ,-1.11462 ,-10.93668 
