Data stamp = , 05-05-2022 00:45:49 326

Calibration Values: 
Slope = , 26.54 , g/V 
Offset Voltage at no contact = , -0.501760 , V 

No , Time , Stage Position ,   Mass , Force 
   ,  (s) ,      (mm)      ,   (g)  , (mN)  

1 ,0.0000 ,0.64934 ,5.22323 ,51.25033 
2 ,0.2233 ,0.64944 ,5.24034 ,51.41822 
3 ,0.7677 ,0.65118 ,5.22665 ,51.28391 
4 ,1.0237 ,0.65412 ,5.23350 ,51.35107 
5 ,1.2478 ,0.65640 ,5.23350 ,51.35107 
6 ,1.4401 ,0.65845 ,5.21981 ,51.21675 
7 ,1.6322 ,0.66037 ,5.24376 ,51.45180 
8 ,1.8564 ,0.66252 ,5.20270 ,51.04886 
9 ,2.0643 ,0.66476 ,5.21296 ,51.14960 
10 ,2.2726 ,0.66679 ,5.18901 ,50.91455 
11 ,2.4967 ,0.66902 ,5.16505 ,50.67950 
12 ,2.6885 ,0.67099 ,5.15479 ,50.57876 
13 ,2.8810 ,0.67287 ,5.12741 ,50.31014 
14 ,3.0887 ,0.67495 ,5.12399 ,50.27656 
15 ,3.2969 ,0.67701 ,5.09319 ,49.97436 
16 ,3.5051 ,0.67916 ,5.06239 ,49.67215 
17 ,3.6812 ,0.68103 ,5.04185 ,49.47068 
18 ,3.8732 ,0.68281 ,5.04185 ,49.47068 
19 ,4.0814 ,0.68488 ,5.01448 ,49.20205 
20 ,4.2733 ,0.68684 ,5.00079 ,49.06774 
21 ,4.4813 ,0.68888 ,4.96657 ,48.73196 
22 ,4.7056 ,0.69109 ,4.95630 ,48.63122 
23 ,4.9136 ,0.69316 ,4.92550 ,48.32902 
24 ,5.1378 ,0.69539 ,4.89470 ,48.02681 
25 ,5.3456 ,0.69751 ,4.88444 ,47.92608 
26 ,5.5540 ,0.69958 ,4.86732 ,47.75819 
27 ,5.7616 ,0.70167 ,4.83652 ,47.45598 
28 ,5.9701 ,0.70377 ,4.83995 ,47.48956 
29 ,6.1943 ,0.70595 ,4.79888 ,47.08662 
30 ,6.3861 ,0.70798 ,4.79888 ,47.08662 
31 ,6.5781 ,0.70983 ,4.76466 ,46.75084 
32 ,6.8020 ,0.71191 ,4.75097 ,46.61653 
33 ,6.9945 ,0.71397 ,4.72702 ,46.38148 
34 ,7.1866 ,0.71589 ,4.71675 ,46.28074 
35 ,7.3787 ,0.71785 ,4.68253 ,45.94496 
36 ,7.5708 ,0.71978 ,4.68253 ,45.94496 
37 ,7.7788 ,0.72181 ,4.63804 ,45.50844 
38 ,7.9869 ,0.72391 ,4.63119 ,45.44128 
39 ,8.1629 ,0.72578 ,4.60724 ,45.20624 
40 ,8.3551 ,0.72757 ,4.59355 ,45.07192 
41 ,8.5952 ,0.72981 ,4.56275 ,44.76972 
42 ,8.8191 ,0.73217 ,4.53880 ,44.53467 
43 ,9.0273 ,0.73430 ,4.54906 ,44.63541 
44 ,9.2194 ,0.73624 ,4.49431 ,44.09815 
45 ,9.4275 ,0.73824 ,4.50457 ,44.19889 
46 ,9.6195 ,0.74035 ,4.47035 ,43.86310 
47 ,9.8272 ,0.74229 ,4.46009 ,43.76237 
48 ,10.0354 ,0.74433 ,4.43955 ,43.56090 
49 ,10.2278 ,0.74633 ,4.42929 ,43.46016 
50 ,10.4197 ,0.74824 ,4.39849 ,43.15796 
51 ,10.6274 ,0.75023 ,4.39849 ,43.15796 
52 ,10.8356 ,0.75235 ,4.36769 ,42.85576 
53 ,11.0116 ,0.75427 ,4.35400 ,42.72144 
54 ,11.2362 ,0.75624 ,4.32662 ,42.45282 
55 ,11.4603 ,0.75856 ,4.29582 ,42.15061 
56 ,11.6523 ,0.76060 ,4.30951 ,42.28492 
57 ,11.8441 ,0.76248 ,4.27871 ,41.98272 
58 ,12.0201 ,0.76434 ,4.25476 ,41.74767 
59 ,12.2285 ,0.76625 ,4.24107 ,41.61336 
60 ,12.4366 ,0.76838 ,4.21711 ,41.37831 
61 ,12.6288 ,0.77032 ,4.21369 ,41.34473 
62 ,12.8369 ,0.77232 ,4.17262 ,40.94179 
63 ,13.0288 ,0.77430 ,4.17947 ,41.00895 
64 ,13.2209 ,0.77621 ,4.14183 ,40.63959 
65 ,13.4290 ,0.77831 ,4.13498 ,40.57243 
66 ,13.6212 ,0.78024 ,4.10076 ,40.23665 
67 ,13.8288 ,0.78228 ,4.10076 ,40.23665 
68 ,14.0213 ,0.78421 ,4.06654 ,39.90087 
69 ,14.2290 ,0.78635 ,4.06996 ,39.93444 
70 ,14.4376 ,0.78836 ,4.02547 ,39.49793 
71 ,14.6612 ,0.79052 ,4.01863 ,39.43077 
72 ,14.8541 ,0.79252 ,3.99467 ,39.19572 
73 ,15.0453 ,0.79460 ,3.96729 ,38.92709 
74 ,15.2379 ,0.79644 ,3.95703 ,38.82636 
75 ,15.4615 ,0.79857 ,3.94676 ,38.72562 
76 ,15.6701 ,0.80066 ,3.93650 ,38.62489 
77 ,15.8782 ,0.80276 ,3.89885 ,38.25553 
78 ,16.0862 ,0.80489 ,3.88858 ,38.15479 
79 ,16.2943 ,0.80695 ,3.87147 ,37.98690 
80 ,16.4863 ,0.80896 ,3.84410 ,37.71828 
81 ,16.6784 ,0.81079 ,3.82699 ,37.55038 
82 ,16.9023 ,0.81295 ,3.81672 ,37.44965 
83 ,17.0944 ,0.81493 ,3.79961 ,37.28176 
84 ,17.3026 ,0.81699 ,3.78592 ,37.14744 
85 ,17.4943 ,0.81894 ,3.76196 ,36.91240 
86 ,17.7029 ,0.82103 ,3.73459 ,36.64377 
87 ,17.9269 ,0.82323 ,3.73117 ,36.61019 
88 ,18.1189 ,0.82518 ,3.69352 ,36.24083 
89 ,18.3271 ,0.82725 ,3.70037 ,36.30799 
90 ,18.5190 ,0.82922 ,3.67299 ,36.03936 
91 ,18.7273 ,0.83122 ,3.66957 ,36.00578 
92 ,18.9674 ,0.83358 ,3.62166 ,35.53569 
93 ,19.1755 ,0.83575 ,3.60112 ,35.33422 
94 ,19.3993 ,0.83796 ,3.59086 ,35.23348 
95 ,19.6077 ,0.84003 ,3.57717 ,35.09917 
96 ,19.8155 ,0.84218 ,3.54637 ,34.79696 
97 ,20.0078 ,0.84409 ,3.55321 ,34.86412 
98 ,20.1999 ,0.84601 ,3.51215 ,34.46118 
99 ,20.4079 ,0.84805 ,3.51215 ,34.46118 
100 ,20.6161 ,0.85008 ,3.47450 ,34.09182 
101 ,20.8237 ,0.85220 ,3.47108 ,34.05824 
102 ,21.0322 ,0.85433 ,3.44370 ,33.78961 
103 ,21.2403 ,0.85642 ,3.40948 ,33.45383 
104 ,21.4482 ,0.85843 ,3.40606 ,33.42025 
105 ,21.6564 ,0.86048 ,3.38210 ,33.18520 
106 ,21.8646 ,0.86263 ,3.37868 ,33.15163 
107 ,22.0726 ,0.86462 ,3.34788 ,32.84942 
108 ,22.2807 ,0.86681 ,3.33419 ,32.71511 
109 ,22.4889 ,0.86882 ,3.32393 ,32.61437 
110 ,22.6968 ,0.87096 ,3.30339 ,32.41290 
111 ,22.9049 ,0.87300 ,3.27944 ,32.17786 
112 ,23.0969 ,0.87500 ,3.24864 ,31.87565 
113 ,23.2892 ,0.87691 ,3.25891 ,31.97639 
114 ,23.4971 ,0.87891 ,3.20757 ,31.47271 
115 ,23.6893 ,0.88089 ,3.22126 ,31.60702 
116 ,23.8973 ,0.88300 ,3.18020 ,31.20409 
117 ,24.0894 ,0.88498 ,3.18704 ,31.27124 
118 ,24.3134 ,0.88698 ,3.14940 ,30.90188 
119 ,24.5215 ,0.88918 ,3.12544 ,30.66683 
120 ,24.7138 ,0.89109 ,3.11860 ,30.59968 
121 ,24.9058 ,0.89304 ,3.11518 ,30.56610 
122 ,25.0978 ,0.89495 ,3.08095 ,30.23031 
123 ,25.2899 ,0.89682 ,3.06726 ,30.09600 
124 ,25.4817 ,0.89880 ,3.05015 ,29.92811 
125 ,25.6900 ,0.90087 ,3.03647 ,29.79380 
126 ,25.8821 ,0.90278 ,3.01935 ,29.62590 
127 ,26.0583 ,0.90466 ,2.99540 ,29.39086 
128 ,26.2504 ,0.90647 ,2.98171 ,29.25654 
129 ,26.4744 ,0.90870 ,2.96118 ,29.05507 
130 ,26.6985 ,0.91091 ,2.93722 ,28.82003 
131 ,26.8906 ,0.91287 ,2.94064 ,28.85360 
132 ,27.0988 ,0.91495 ,2.91669 ,28.61856 
133 ,27.2907 ,0.91688 ,2.89958 ,28.45066 
134 ,27.4989 ,0.91889 ,2.88247 ,28.28277 
135 ,27.7070 ,0.92104 ,2.87220 ,28.18204 
136 ,27.9150 ,0.92308 ,2.83798 ,27.84625 
137 ,28.0910 ,0.92498 ,2.84825 ,27.94699 
138 ,28.2832 ,0.92679 ,2.83114 ,27.77910 
139 ,28.4751 ,0.92873 ,2.79691 ,27.44332 
140 ,28.6993 ,0.93090 ,2.78665 ,27.34258 
141 ,28.8914 ,0.93300 ,2.76954 ,27.17469 
142 ,29.0835 ,0.93480 ,2.76269 ,27.10753 
143 ,29.2915 ,0.93686 ,2.73531 ,26.83891 
144 ,29.4836 ,0.93877 ,2.72163 ,26.70459 
145 ,29.7075 ,0.94100 ,2.69767 ,26.46954 
146 ,29.8998 ,0.94305 ,2.67714 ,26.26807 
147 ,30.1077 ,0.94496 ,2.66687 ,26.16734 
148 ,30.3317 ,0.94711 ,2.64976 ,25.99945 
149 ,30.5402 ,0.94942 ,2.63607 ,25.86514 
150 ,30.7318 ,0.95127 ,2.61554 ,25.66367 
151 ,30.9561 ,0.95343 ,2.61212 ,25.63009 
152 ,31.1644 ,0.95562 ,2.59501 ,25.46220 
153 ,31.3724 ,0.95761 ,2.56078 ,25.12641 
154 ,31.5645 ,0.95957 ,2.56078 ,25.12641 
155 ,31.7566 ,0.96148 ,2.52998 ,24.82421 
156 ,31.9486 ,0.96342 ,2.52998 ,24.82421 
157 ,32.1409 ,0.96538 ,2.51630 ,24.68989 
158 ,32.3648 ,0.96755 ,2.49234 ,24.45485 
159 ,32.5570 ,0.96952 ,2.46154 ,24.15264 
160 ,32.7650 ,0.97158 ,2.46496 ,24.18622 
161 ,32.9887 ,0.97379 ,2.43416 ,23.88402 
162 ,33.1972 ,0.97589 ,2.41021 ,23.64897 
163 ,33.4211 ,0.97811 ,2.41705 ,23.71612 
164 ,33.6295 ,0.98021 ,2.37941 ,23.34676 
165 ,33.8375 ,0.98226 ,2.36572 ,23.21245 
166 ,34.0292 ,0.98427 ,2.34861 ,23.04456 
167 ,34.2538 ,0.98636 ,2.33150 ,22.87667 
168 ,34.4616 ,0.98857 ,2.32808 ,22.84309 
169 ,34.6699 ,0.99060 ,2.31439 ,22.70877 
170 ,34.8781 ,0.99271 ,2.28701 ,22.44015 
171 ,35.0861 ,0.99475 ,2.28017 ,22.37299 
172 ,35.2941 ,0.99688 ,2.24937 ,22.07079 
173 ,35.5343 ,0.99911 ,2.23568 ,21.93647 
174 ,35.7263 ,1.00118 ,2.22883 ,21.86932 
175 ,35.9345 ,1.00326 ,2.18777 ,21.46638 
176 ,36.1424 ,1.00532 ,2.19803 ,21.56711 
177 ,36.3507 ,1.00748 ,2.17066 ,21.29849 
178 ,36.5428 ,1.00936 ,2.16381 ,21.23133 
179 ,36.7511 ,1.01138 ,2.12275 ,20.82839 
180 ,36.9749 ,1.01361 ,2.10564 ,20.66050 
181 ,37.1829 ,1.01570 ,2.10221 ,20.62692 
182 ,37.3746 ,1.01768 ,2.07141 ,20.32472 
183 ,37.5831 ,1.01975 ,2.08510 ,20.45903 
184 ,37.7911 ,1.02185 ,2.05430 ,20.15682 
185 ,37.9993 ,1.02389 ,2.05430 ,20.15682 
186 ,38.2072 ,1.02599 ,2.02693 ,19.88820 
187 ,38.4156 ,1.02804 ,1.99955 ,19.61957 
188 ,38.6074 ,1.03013 ,2.01324 ,19.75388 
189 ,38.8157 ,1.03208 ,1.97217 ,19.35094 
190 ,39.0077 ,1.03408 ,1.96875 ,19.31737 
191 ,39.1998 ,1.03593 ,1.93453 ,18.98158 
192 ,39.4078 ,1.03798 ,1.93453 ,18.98158 
193 ,39.5996 ,1.03989 ,1.91399 ,18.78011 
194 ,39.8081 ,1.04196 ,1.89688 ,18.61222 
195 ,40.0322 ,1.04408 ,1.89346 ,18.57864 
196 ,40.2403 ,1.04629 ,1.87293 ,18.37717 
197 ,40.4643 ,1.04846 ,1.85924 ,18.24286 
198 ,40.6722 ,1.05055 ,1.82502 ,17.90708 
199 ,40.8963 ,1.05284 ,1.81133 ,17.77276 
200 ,41.1367 ,1.05515 ,1.81817 ,17.83992 
201 ,41.3453 ,1.05735 ,1.78737 ,17.53772 
202 ,41.5368 ,1.05932 ,1.76000 ,17.26909 
203 ,41.7290 ,1.06119 ,1.74973 ,17.16836 
204 ,41.9530 ,1.06343 ,1.72235 ,16.89973 
205 ,42.1610 ,1.06547 ,1.73604 ,17.03404 
206 ,42.3536 ,1.06743 ,1.71209 ,16.79899 
207 ,42.5610 ,1.06947 ,1.70182 ,16.69826 
208 ,42.7853 ,1.07180 ,1.68129 ,16.49679 
209 ,42.9774 ,1.07378 ,1.65049 ,16.19458 
210 ,43.1695 ,1.07560 ,1.66418 ,16.32890 
211 ,43.3777 ,1.07766 ,1.64364 ,16.12743 
212 ,43.5855 ,1.07970 ,1.63680 ,16.06027 
213 ,43.7937 ,1.08178 ,1.58547 ,15.55660 
214 ,44.0014 ,1.08382 ,1.59231 ,15.62375 
215 ,44.2100 ,1.08598 ,1.58889 ,15.59018 
216 ,44.4180 ,1.08812 ,1.55467 ,15.25439 
217 ,44.6102 ,1.09002 ,1.55467 ,15.25439 
218 ,44.8342 ,1.09210 ,1.54440 ,15.15366 
219 ,45.0421 ,1.09435 ,1.52387 ,14.95219 
220 ,45.2503 ,1.09640 ,1.51018 ,14.81787 
221 ,45.4585 ,1.09847 ,1.47253 ,14.44851 
222 ,45.6667 ,1.10047 ,1.48965 ,14.61640 
223 ,45.8587 ,1.10255 ,1.45885 ,14.31420 
224 ,46.0666 ,1.10452 ,1.46227 ,14.34778 
225 ,46.2424 ,1.10642 ,1.43489 ,14.07915 
226 ,46.4349 ,1.10828 ,1.41778 ,13.91126 
227 ,46.6267 ,1.11026 ,1.42462 ,13.97842 
228 ,46.8351 ,1.11216 ,1.39383 ,13.67621 
229 ,47.0429 ,1.11432 ,1.39040 ,13.64263 
230 ,47.2352 ,1.11624 ,1.35276 ,13.27327 
231 ,47.4273 ,1.11819 ,1.37329 ,13.47474 
232 ,47.6354 ,1.12022 ,1.32538 ,13.00465 
233 ,47.8432 ,1.12229 ,1.33223 ,13.07180 
234 ,48.0353 ,1.12421 ,1.30485 ,12.80318 
235 ,48.2276 ,1.12617 ,1.31169 ,12.87033 
236 ,48.4354 ,1.12824 ,1.29116 ,12.66886 
237 ,48.6275 ,1.13015 ,1.28774 ,12.63528 
238 ,48.8359 ,1.13223 ,1.25352 ,12.29950 
239 ,49.0279 ,1.13418 ,1.26036 ,12.36666 
240 ,49.2201 ,1.13606 ,1.23641 ,12.13161 
241 ,49.4282 ,1.13815 ,1.21587 ,11.93014 
242 ,49.6361 ,1.14022 ,1.21245 ,11.89656 
243 ,49.8443 ,1.14236 ,1.20903 ,11.86298 
244 ,50.0364 ,1.14421 ,1.16454 ,11.42647 
245 ,50.2445 ,1.14634 ,1.17481 ,11.52720 
246 ,50.4526 ,1.14836 ,1.13716 ,11.15784 
247 ,50.6282 ,1.15027 ,1.14743 ,11.25857 
248 ,50.8367 ,1.15218 ,1.13374 ,11.12426 
249 ,51.0446 ,1.15433 ,1.13374 ,11.12426 
250 ,51.2531 ,1.15634 ,1.09952 ,10.78848 
251 ,51.4610 ,1.15851 ,1.07899 ,10.58701 
252 ,51.6531 ,1.16048 ,1.06530 ,10.45270 
253 ,51.8451 ,1.16239 ,1.08241 ,10.62059 
254 ,52.0527 ,1.16443 ,1.04819 ,10.28480 
255 ,52.2609 ,1.16642 ,1.03450 ,10.15049 
256 ,52.4693 ,1.16854 ,1.01396 ,9.94902 
257 ,52.7256 ,1.17109 ,0.99685 ,9.78113 
258 ,52.9335 ,1.17314 ,0.98659 ,9.68039 
259 ,53.1416 ,1.17530 ,0.98317 ,9.64682 
260 ,53.3338 ,1.17718 ,0.95579 ,9.37819 
261 ,53.5259 ,1.17909 ,0.95579 ,9.37819 
262 ,53.7500 ,1.18131 ,0.93868 ,9.21030 
263 ,53.9575 ,1.18346 ,0.92499 ,9.07598 
264 ,54.1500 ,1.18536 ,0.91130 ,8.94167 
265 ,54.3422 ,1.18731 ,0.91130 ,8.94167 
266 ,54.5505 ,1.18932 ,0.87366 ,8.57231 
267 ,54.7583 ,1.19145 ,0.86339 ,8.47158 
268 ,54.9504 ,1.19336 ,0.85654 ,8.40442 
269 ,55.1584 ,1.19543 ,0.85997 ,8.43800 
270 ,55.3667 ,1.19748 ,0.83601 ,8.20295 
271 ,55.5742 ,1.19961 ,0.81890 ,8.03506 
272 ,55.7668 ,1.20151 ,0.80521 ,7.90074 
273 ,55.9747 ,1.20358 ,0.78810 ,7.73285 
274 ,56.1667 ,1.20550 ,0.79495 ,7.80001 
275 ,56.3586 ,1.20745 ,0.76757 ,7.53138 
276 ,56.5666 ,1.20954 ,0.77099 ,7.56496 
277 ,56.7748 ,1.21155 ,0.73677 ,7.22918 
278 ,56.9674 ,1.21353 ,0.72992 ,7.16202 
279 ,57.1750 ,1.21562 ,0.70939 ,6.96055 
280 ,57.3834 ,1.21763 ,0.72650 ,7.12844 
281 ,57.5915 ,1.21978 ,0.69228 ,6.79266 
282 ,57.8157 ,1.22196 ,0.67859 ,6.65835 
283 ,58.0078 ,1.22392 ,0.68886 ,6.75908 
284 ,58.2158 ,1.22599 ,0.65464 ,6.42330 
285 ,58.4077 ,1.22793 ,0.64779 ,6.35614 
286 ,58.6160 ,1.22994 ,0.64437 ,6.32256 
287 ,58.8240 ,1.23204 ,0.63410 ,6.22183 
288 ,59.0321 ,1.23417 ,0.59304 ,5.81889 
289 ,59.2563 ,1.23626 ,0.60330 ,5.91962 
290 ,59.4641 ,1.23847 ,0.60330 ,5.91962 
291 ,59.6564 ,1.24035 ,0.56908 ,5.58384 
292 ,59.8646 ,1.24238 ,0.56566 ,5.55026 
293 ,60.1047 ,1.24474 ,0.55197 ,5.41595 
294 ,60.3125 ,1.24697 ,0.52802 ,5.18090 
295 ,60.5203 ,1.24902 ,0.52802 ,5.18090 
296 ,60.7128 ,1.25095 ,0.50064 ,4.91228 
297 ,60.9209 ,1.25303 ,0.49380 ,4.84512 
298 ,61.1129 ,1.25498 ,0.47668 ,4.67723 
299 ,61.3211 ,1.25703 ,0.47668 ,4.67723 
300 ,61.5291 ,1.25907 ,0.46642 ,4.57649 
301 ,61.7371 ,1.26119 ,0.45615 ,4.47576 
302 ,61.9453 ,1.26328 ,0.44588 ,4.37502 
303 ,62.1373 ,1.26520 ,0.42535 ,4.17355 
304 ,62.3454 ,1.26730 ,0.42877 ,4.20713 
305 ,62.5376 ,1.26921 ,0.39455 ,3.87135 
306 ,62.7774 ,1.27164 ,0.39455 ,3.87135 
307 ,62.9698 ,1.27351 ,0.38086 ,3.73703 
308 ,63.1615 ,1.27543 ,0.36375 ,3.56914 
309 ,63.3378 ,1.27734 ,0.33980 ,3.33410 
310 ,63.5299 ,1.27918 ,0.36033 ,3.53557 
311 ,63.7220 ,1.28099 ,0.35006 ,3.43483 
312 ,63.9298 ,1.28310 ,0.32611 ,3.19978 
313 ,64.1383 ,1.28517 ,0.31584 ,3.09905 
314 ,64.3463 ,1.28730 ,0.30900 ,3.03189 
315 ,64.5544 ,1.28932 ,0.27820 ,2.72969 
316 ,64.7623 ,1.29137 ,0.28847 ,2.83042 
317 ,64.9705 ,1.29345 ,0.26109 ,2.56179 
318 ,65.1624 ,1.29545 ,0.26109 ,2.56179 
319 ,65.3707 ,1.29747 ,0.23029 ,2.25959 
320 ,65.5787 ,1.29957 ,0.24055 ,2.36032 
321 ,65.7868 ,1.30170 ,0.22344 ,2.19243 
322 ,65.9785 ,1.30367 ,0.19949 ,1.95738 
323 ,66.2029 ,1.30574 ,0.20633 ,2.02454 
324 ,66.3951 ,1.30775 ,0.18580 ,1.82307 
325 ,66.6350 ,1.31002 ,0.17896 ,1.75592 
326 ,66.8273 ,1.31208 ,0.16527 ,1.62160 
327 ,67.0510 ,1.31429 ,0.15158 ,1.48729 
328 ,67.2595 ,1.31638 ,0.14816 ,1.45371 
329 ,67.4675 ,1.31849 ,0.13789 ,1.35298 
330 ,67.6756 ,1.32055 ,0.10709 ,1.05077 
331 ,67.8834 ,1.32259 ,0.10709 ,1.05077 
332 ,68.0757 ,1.32458 ,0.08314 ,0.81572 
333 ,68.2676 ,1.32649 ,0.06602 ,0.64783 
334 ,68.4599 ,1.32853 ,0.06945 ,0.68141 
335 ,68.6679 ,1.33044 ,0.05576 ,0.54710 
336 ,68.8762 ,1.33261 ,0.03522 ,0.34563 
337 ,69.0840 ,1.33465 ,0.05234 ,0.51352 
338 ,69.2919 ,1.33674 ,0.01469 ,0.14416 
339 ,69.5004 ,1.33875 ,0.02154 ,0.21131 
340 ,69.7085 ,1.34089 ,0.02154 ,0.21131 
341 ,69.9007 ,1.34282 ,0.00100 ,0.00984 
342 ,70.0925 ,1.34474 ,-0.01269 ,-0.12447 
343 ,70.2848 ,1.34669 ,-0.00926 ,-0.09089 
344 ,70.4924 ,1.34869 ,-0.04348 ,-0.42667 
345 ,70.7005 ,1.35078 ,-0.03322 ,-0.32594 
346 ,70.8925 ,1.35276 ,-0.06060 ,-0.59457 
347 ,71.0849 ,1.35468 ,-0.06402 ,-0.62814 
348 ,71.2772 ,1.35653 ,-0.08455 ,-0.82961 
349 ,71.4690 ,1.35850 ,-0.08113 ,-0.79604 
350 ,71.6773 ,1.36056 ,-0.09824 ,-0.96393 
351 ,71.9014 ,1.36273 ,-0.10851 ,-1.06466 
352 ,72.0933 ,1.36472 ,-0.12562 ,-1.23255 
353 ,72.2856 ,1.36663 ,-0.12904 ,-1.26613 
354 ,72.4934 ,1.36872 ,-0.14615 ,-1.43402 
355 ,72.6857 ,1.37061 ,-0.13588 ,-1.33329 
356 ,72.8778 ,1.37261 ,-0.17695 ,-1.73623 
357 ,73.0859 ,1.37462 ,-0.17011 ,-1.66907 
358 ,73.2939 ,1.37666 ,-0.18722 ,-1.83696 
359 ,73.5015 ,1.37892 ,-0.19748 ,-1.93770 
360 ,73.7257 ,1.38086 ,-0.21459 ,-2.10559 
361 ,73.9182 ,1.38294 ,-0.22486 ,-2.20632 
362 ,74.1265 ,1.38501 ,-0.22144 ,-2.17275 
363 ,74.3344 ,1.38716 ,-0.25224 ,-2.47495 
364 ,74.5423 ,1.38923 ,-0.24197 ,-2.37422 
365 ,74.7347 ,1.39111 ,-0.27277 ,-2.67642 
366 ,74.9587 ,1.39335 ,-0.26250 ,-2.57569 
367 ,75.1828 ,1.39555 ,-0.25908 ,-2.54211 
368 ,75.3907 ,1.39765 ,-0.30357 ,-2.97863 
369 ,75.5829 ,1.39960 ,-0.28646 ,-2.81073 
370 ,75.7750 ,1.40148 ,-0.31726 ,-3.11294 
371 ,75.9830 ,1.40354 ,-0.31041 ,-3.04578 
372 ,76.1911 ,1.40573 ,-0.33437 ,-3.28083 
373 ,76.3991 ,1.40777 ,-0.32752 ,-3.21367 
374 ,76.5912 ,1.40970 ,-0.34806 ,-3.41514 
375 ,76.8152 ,1.41185 ,-0.35148 ,-3.44872 
376 ,77.0071 ,1.41381 ,-0.35148 ,-3.44872 
377 ,77.2153 ,1.41593 ,-0.39255 ,-3.85166 
378 ,77.4237 ,1.41797 ,-0.38570 ,-3.78450 
379 ,77.6316 ,1.42004 ,-0.41650 ,-4.08671 
380 ,77.8564 ,1.42231 ,-0.40966 ,-4.01955 
381 ,78.0638 ,1.42438 ,-0.40966 ,-4.01955 
382 ,78.2719 ,1.42650 ,-0.43361 ,-4.25460 
383 ,78.4802 ,1.42855 ,-0.42677 ,-4.18744 
384 ,78.6881 ,1.43068 ,-0.45414 ,-4.45607 
385 ,78.8804 ,1.43257 ,-0.45757 ,-4.48965 
386 ,79.0884 ,1.43464 ,-0.47810 ,-4.69112 
387 ,79.2961 ,1.43670 ,-0.48837 ,-4.79185 
388 ,79.4883 ,1.43867 ,-0.49521 ,-4.85901 
389 ,79.6966 ,1.44071 ,-0.50890 ,-4.99332 
390 ,79.9047 ,1.44275 ,-0.50890 ,-4.99332 
391 ,80.1128 ,1.44488 ,-0.52259 ,-5.12764 
392 ,80.3205 ,1.44692 ,-0.52943 ,-5.19479 
393 ,80.5291 ,1.44903 ,-0.53970 ,-5.29553 
394 ,80.7370 ,1.45110 ,-0.56365 ,-5.53058 
395 ,80.9452 ,1.45318 ,-0.54997 ,-5.39626 
396 ,81.1534 ,1.45531 ,-0.57050 ,-5.59773 
397 ,81.3614 ,1.45732 ,-0.55681 ,-5.46342 
398 ,81.5695 ,1.45938 ,-0.60130 ,-5.89994 
399 ,81.7775 ,1.46146 ,-0.58761 ,-5.76562 
400 ,81.9858 ,1.46363 ,-0.60814 ,-5.96709 
401 ,82.1936 ,1.46570 ,-0.62525 ,-6.13499 
402 ,82.4018 ,1.46769 ,-0.61499 ,-6.03425 
403 ,82.6260 ,1.46996 ,-0.64236 ,-6.30288 
404 ,82.8341 ,1.47209 ,-0.64579 ,-6.33646 
405 ,83.0422 ,1.47414 ,-0.64921 ,-6.37003 
406 ,83.2501 ,1.47624 ,-0.66632 ,-6.53793 
407 ,83.4420 ,1.47821 ,-0.67659 ,-6.63866 
408 ,83.6340 ,1.48009 ,-0.69027 ,-6.77297 
409 ,83.8583 ,1.48223 ,-0.69027 ,-6.77297 
410 ,84.0823 ,1.48452 ,-0.69712 ,-6.84013 
411 ,84.2907 ,1.48659 ,-0.72107 ,-7.07518 
412 ,84.4987 ,1.48870 ,-0.71423 ,-7.00802 
413 ,84.7066 ,1.49073 ,-0.73134 ,-7.17591 
414 ,84.8988 ,1.49277 ,-0.73818 ,-7.24307 
415 ,85.0909 ,1.49474 ,-0.73818 ,-7.24307 
416 ,85.2829 ,1.49653 ,-0.75872 ,-7.44454 
417 ,85.4752 ,1.49848 ,-0.76214 ,-7.47812 
418 ,85.6830 ,1.50058 ,-0.75187 ,-7.37738 
419 ,85.8909 ,1.50259 ,-0.79294 ,-7.78032 
420 ,86.1154 ,1.50474 ,-0.78952 ,-7.74674 
421 ,86.3234 ,1.50698 ,-0.79636 ,-7.81390 
422 ,86.5311 ,1.50896 ,-0.81347 ,-7.98179 
423 ,86.7235 ,1.51098 ,-0.80321 ,-7.88106 
424 ,86.9315 ,1.51299 ,-0.83401 ,-8.18326 
425 ,87.1558 ,1.51517 ,-0.82374 ,-8.08253 
426 ,87.3639 ,1.51734 ,-0.83743 ,-8.21684 
427 ,87.5719 ,1.51939 ,-0.86823 ,-8.51904 
428 ,87.7799 ,1.52147 ,-0.84427 ,-8.28400 
429 ,87.9719 ,1.52345 ,-0.87507 ,-8.58620 
430 ,88.1802 ,1.52551 ,-0.87507 ,-8.58620 
431 ,88.3720 ,1.52746 ,-0.89903 ,-8.82125 
432 ,88.5644 ,1.52933 ,-0.88876 ,-8.72051 
433 ,88.7724 ,1.53142 ,-0.91272 ,-8.95556 
434 ,88.9966 ,1.53360 ,-0.91272 ,-8.95556 
435 ,89.2202 ,1.53583 ,-0.91272 ,-8.95556 
436 ,89.4128 ,1.53787 ,-0.94009 ,-9.22419 
437 ,89.6205 ,1.53988 ,-0.92298 ,-9.05630 
438 ,89.8129 ,1.54185 ,-0.94351 ,-9.25777 
439 ,90.0369 ,1.54409 ,-0.95720 ,-9.39208 
440 ,90.2291 ,1.54613 ,-0.95036 ,-9.32492 
441 ,90.4368 ,1.54807 ,-0.96747 ,-9.49282 
442 ,90.6452 ,1.55017 ,-0.98458 ,-9.66071 
443 ,90.8535 ,1.55220 ,-0.99827 ,-9.79502 
444 ,91.0613 ,1.55431 ,-1.00854 ,-9.89576 
445 ,91.2535 ,1.55632 ,-1.02565 ,-10.06365 
446 ,91.4456 ,1.55819 ,-1.01196 ,-9.92933 
447 ,91.6376 ,1.56010 ,-1.00854 ,-9.89576 
448 ,91.8615 ,1.56219 ,-1.04276 ,-10.23154 
449 ,92.0540 ,1.56423 ,-1.04618 ,-10.26512 
450 ,92.2616 ,1.56632 ,-1.04618 ,-10.26512 
451 ,92.4856 ,1.56845 ,-1.06671 ,-10.46659 
452 ,92.6936 ,1.57065 ,-1.07356 ,-10.53374 
453 ,92.8858 ,1.57260 ,-1.07698 ,-10.56732 
454 ,93.0938 ,1.57461 ,-1.06671 ,-10.46659 
455 ,93.3343 ,1.57689 ,-1.08382 ,-10.63448 
456 ,93.5586 ,1.57928 ,-1.09409 ,-10.73521 
457 ,93.7824 ,1.58154 ,-1.11120 ,-10.90310 
458 ,93.9907 ,1.58361 ,-1.13516 ,-11.13815 
459 ,94.1987 ,1.58563 ,-1.11805 ,-10.97026 
460 ,94.4069 ,1.58782 ,-1.12831 ,-11.07100 
461 ,94.6150 ,1.58977 ,-1.13516 ,-11.13815 
462 ,94.8389 ,1.59203 ,-1.13858 ,-11.17173 
