Data stamp = , 05-05-2022 15:15:38 235

Calibration Values: 
Slope = , 26.54 , g/V 
Offset Voltage at no contact = , -0.501760 , V 

No , Time , Stage Position ,   Mass , Force 
   ,  (s) ,      (mm)      ,   (g)  , (mN)  

1 ,0.0000 ,0.64937 ,5.14452 ,50.47803 
2 ,0.2205 ,0.64944 ,5.14452 ,50.47803 
3 ,0.7486 ,0.65128 ,5.13768 ,50.41087 
4 ,0.9411 ,0.65368 ,5.14452 ,50.47803 
5 ,1.1814 ,0.65583 ,5.16163 ,50.64592 
6 ,1.4053 ,0.65806 ,5.15479 ,50.57876 
7 ,1.6129 ,0.66024 ,5.14452 ,50.47803 
8 ,1.8209 ,0.66231 ,5.14452 ,50.47803 
9 ,2.0612 ,0.66459 ,5.11714 ,50.20940 
10 ,2.2857 ,0.66701 ,5.09319 ,49.97436 
11 ,2.4937 ,0.66903 ,5.07950 ,49.84004 
12 ,2.7336 ,0.67145 ,5.04185 ,49.47068 
13 ,2.9575 ,0.67365 ,5.03501 ,49.40352 
14 ,3.1658 ,0.67577 ,5.00079 ,49.06774 
15 ,3.3739 ,0.67789 ,4.97683 ,48.83269 
16 ,3.5823 ,0.67992 ,4.97683 ,48.83269 
17 ,3.7901 ,0.68209 ,4.93919 ,48.46333 
18 ,3.9983 ,0.68410 ,4.93919 ,48.46333 
19 ,4.2224 ,0.68633 ,4.89812 ,48.06039 
20 ,4.4465 ,0.68845 ,4.87759 ,47.85892 
21 ,4.6546 ,0.69060 ,4.85706 ,47.65745 
22 ,4.8466 ,0.69269 ,4.86390 ,47.72461 
23 ,5.0547 ,0.69464 ,4.82626 ,47.35525 
24 ,5.2789 ,0.69689 ,4.81599 ,47.25451 
25 ,5.5029 ,0.69909 ,4.78177 ,46.91873 
26 ,5.7110 ,0.70119 ,4.76124 ,46.71726 
27 ,5.9032 ,0.70315 ,4.75097 ,46.61653 
28 ,6.1111 ,0.70521 ,4.71675 ,46.28074 
29 ,6.3029 ,0.70724 ,4.71675 ,46.28074 
30 ,6.5115 ,0.70922 ,4.67226 ,45.84422 
31 ,6.7196 ,0.71135 ,4.65857 ,45.70991 
32 ,6.9277 ,0.71339 ,4.65173 ,45.64275 
33 ,7.1037 ,0.71531 ,4.63462 ,45.47486 
34 ,7.3278 ,0.71731 ,4.59697 ,45.10550 
35 ,7.5359 ,0.71945 ,4.58328 ,44.97119 
36 ,7.7599 ,0.72169 ,4.57986 ,44.93761 
37 ,7.9680 ,0.72375 ,4.54222 ,44.56825 
38 ,8.1761 ,0.72583 ,4.54222 ,44.56825 
39 ,8.3683 ,0.72779 ,4.50115 ,44.16531 
40 ,8.5762 ,0.72980 ,4.51142 ,44.26604 
41 ,8.7853 ,0.73193 ,4.48062 ,43.96384 
42 ,8.9766 ,0.73391 ,4.45324 ,43.69521 
43 ,9.1846 ,0.73589 ,4.44640 ,43.62806 
44 ,9.3927 ,0.73803 ,4.41218 ,43.29227 
45 ,9.6004 ,0.74006 ,4.41560 ,43.32585 
46 ,9.8088 ,0.74219 ,4.37795 ,42.95649 
47 ,10.0489 ,0.74442 ,4.36427 ,42.82218 
48 ,10.2571 ,0.74666 ,4.34373 ,42.62071 
49 ,10.4811 ,0.74886 ,4.34031 ,42.58713 
50 ,10.6729 ,0.75087 ,4.29924 ,42.18419 
51 ,10.8815 ,0.75290 ,4.29240 ,42.11703 
52 ,11.1053 ,0.75512 ,4.26160 ,41.81483 
53 ,11.2975 ,0.75704 ,4.25818 ,41.78125 
54 ,11.5053 ,0.75908 ,4.22396 ,41.44547 
55 ,11.6977 ,0.76105 ,4.23080 ,41.51262 
56 ,11.9215 ,0.76329 ,4.20342 ,41.24400 
57 ,12.1299 ,0.76536 ,4.16236 ,40.84106 
58 ,12.3538 ,0.76755 ,4.15209 ,40.74032 
59 ,12.5620 ,0.76969 ,4.13156 ,40.53885 
60 ,12.7701 ,0.77182 ,4.09391 ,40.16949 
61 ,12.9782 ,0.77389 ,4.09391 ,40.16949 
62 ,13.1701 ,0.77592 ,4.08023 ,40.03518 
63 ,13.3782 ,0.77787 ,4.06654 ,39.90087 
64 ,13.5705 ,0.77979 ,4.02889 ,39.53150 
65 ,13.7788 ,0.78191 ,4.03232 ,39.56508 
66 ,13.9862 ,0.78386 ,3.99809 ,39.22930 
67 ,14.1788 ,0.78596 ,3.99125 ,39.16214 
68 ,14.3870 ,0.78794 ,3.96387 ,38.89352 
69 ,14.6107 ,0.79013 ,3.93650 ,38.62489 
70 ,14.8030 ,0.79227 ,3.95018 ,38.75920 
71 ,15.0112 ,0.79415 ,3.90227 ,38.28911 
72 ,15.2191 ,0.79626 ,3.90227 ,38.28911 
73 ,15.4113 ,0.79819 ,3.87490 ,38.02048 
74 ,15.6194 ,0.80024 ,3.86463 ,37.91975 
75 ,15.8276 ,0.80231 ,3.82014 ,37.48323 
76 ,16.0354 ,0.80438 ,3.83383 ,37.61754 
77 ,16.2272 ,0.80641 ,3.79961 ,37.28176 
78 ,16.4357 ,0.80842 ,3.78592 ,37.14744 
79 ,16.6598 ,0.81062 ,3.76881 ,36.97955 
80 ,16.8519 ,0.81263 ,3.73801 ,36.67735 
81 ,17.0438 ,0.81453 ,3.73801 ,36.67735 
82 ,17.2360 ,0.81642 ,3.71063 ,36.40872 
83 ,17.4602 ,0.81864 ,3.69010 ,36.20725 
84 ,17.6682 ,0.82078 ,3.66272 ,35.93863 
85 ,17.8603 ,0.82269 ,3.66272 ,35.93863 
86 ,18.0682 ,0.82476 ,3.63192 ,35.63642 
87 ,18.2765 ,0.82687 ,3.61823 ,35.50211 
88 ,18.4681 ,0.82882 ,3.59770 ,35.30064 
89 ,18.6604 ,0.83073 ,3.60454 ,35.36779 
90 ,18.8689 ,0.83272 ,3.56006 ,34.93128 
91 ,19.0767 ,0.83480 ,3.56690 ,34.99843 
92 ,19.3011 ,0.83703 ,3.53268 ,34.66265 
93 ,19.5087 ,0.83926 ,3.51557 ,34.49476 
94 ,19.7172 ,0.84127 ,3.49846 ,34.32687 
95 ,19.9413 ,0.84344 ,3.48135 ,34.15898 
96 ,20.1492 ,0.84560 ,3.44028 ,33.75604 
97 ,20.3412 ,0.84750 ,3.45055 ,33.85677 
98 ,20.5333 ,0.84942 ,3.41633 ,33.52099 
99 ,20.7415 ,0.85146 ,3.41290 ,33.48741 
100 ,20.9497 ,0.85350 ,3.37184 ,33.08447 
101 ,21.1417 ,0.85551 ,3.37526 ,33.11805 
102 ,21.3338 ,0.85741 ,3.35473 ,32.91658 
103 ,21.5416 ,0.85940 ,3.32735 ,32.64795 
104 ,21.7655 ,0.86168 ,3.30682 ,32.44648 
105 ,21.9577 ,0.86376 ,3.29997 ,32.37933 
106 ,22.1498 ,0.86560 ,3.27259 ,32.11070 
107 ,22.3421 ,0.86751 ,3.26917 ,32.07712 
108 ,22.5342 ,0.86953 ,3.23837 ,31.77492 
109 ,22.7425 ,0.87143 ,3.23495 ,31.74134 
110 ,22.9503 ,0.87344 ,3.20073 ,31.40555 
111 ,23.1746 ,0.87576 ,3.19388 ,31.33840 
112 ,23.3986 ,0.87802 ,3.18020 ,31.20409 
113 ,23.5744 ,0.87991 ,3.14597 ,30.86830 
114 ,23.7667 ,0.88170 ,3.14255 ,30.83472 
115 ,23.9584 ,0.88370 ,3.13229 ,30.73399 
116 ,24.1668 ,0.88567 ,3.09122 ,30.33105 
117 ,24.3910 ,0.88787 ,3.08438 ,30.26389 
118 ,24.5832 ,0.88985 ,3.07753 ,30.19674 
119 ,24.7753 ,0.89183 ,3.05700 ,29.99527 
120 ,24.9989 ,0.89401 ,3.03647 ,29.79380 
121 ,25.2075 ,0.89613 ,3.01935 ,29.62590 
122 ,25.4316 ,0.89831 ,2.99882 ,29.42444 
123 ,25.6396 ,0.90049 ,2.99540 ,29.39086 
124 ,25.8477 ,0.90243 ,2.95433 ,28.98792 
125 ,26.0717 ,0.90473 ,2.94064 ,28.85360 
126 ,26.2635 ,0.90667 ,2.92696 ,28.71929 
127 ,26.4560 ,0.90858 ,2.91669 ,28.61856 
128 ,26.6638 ,0.91064 ,2.88931 ,28.34993 
129 ,26.8721 ,0.91268 ,2.88247 ,28.28277 
130 ,27.0801 ,0.91482 ,2.87220 ,28.18204 
131 ,27.2718 ,0.91674 ,2.84482 ,27.91341 
132 ,27.4641 ,0.91868 ,2.83456 ,27.81268 
133 ,27.6724 ,0.92077 ,2.80718 ,27.54405 
134 ,27.8646 ,0.92266 ,2.81060 ,27.57763 
135 ,28.0886 ,0.92489 ,2.76954 ,27.17469 
136 ,28.2810 ,0.92685 ,2.77638 ,27.24185 
137 ,28.5048 ,0.92913 ,2.74216 ,26.90606 
138 ,28.7129 ,0.93116 ,2.72847 ,26.77175 
139 ,28.9048 ,0.93308 ,2.71478 ,26.63744 
140 ,29.1291 ,0.93530 ,2.68740 ,26.36881 
141 ,29.3370 ,0.93731 ,2.69083 ,26.40239 
142 ,29.5289 ,0.93932 ,2.66003 ,26.10018 
143 ,29.7049 ,0.94119 ,2.66345 ,26.13376 
144 ,29.8975 ,0.94299 ,2.63607 ,25.86514 
145 ,30.1054 ,0.94508 ,2.61554 ,25.66367 
146 ,30.2976 ,0.94697 ,2.60185 ,25.52935 
147 ,30.5055 ,0.94901 ,2.59158 ,25.42862 
148 ,30.7133 ,0.95114 ,2.56421 ,25.15999 
149 ,30.9217 ,0.95327 ,2.56763 ,25.19357 
150 ,31.1300 ,0.95530 ,2.52656 ,24.79063 
151 ,31.3380 ,0.95738 ,2.51630 ,24.68989 
152 ,31.5460 ,0.95947 ,2.50603 ,24.58916 
153 ,31.7382 ,0.96139 ,2.49576 ,24.48842 
154 ,31.9302 ,0.96331 ,2.46496 ,24.18622 
155 ,32.1225 ,0.96525 ,2.46839 ,24.21980 
156 ,32.3464 ,0.96741 ,2.45127 ,24.05191 
157 ,32.5544 ,0.96946 ,2.41705 ,23.71612 
158 ,32.7463 ,0.97146 ,2.41705 ,23.71612 
159 ,32.9547 ,0.97357 ,2.38968 ,23.44750 
160 ,33.1629 ,0.97562 ,2.38283 ,23.38034 
161 ,33.3709 ,0.97768 ,2.34861 ,23.04456 
162 ,33.5790 ,0.97978 ,2.33492 ,22.91024 
163 ,33.7873 ,0.98190 ,2.32808 ,22.84309 
164 ,34.0112 ,0.98400 ,2.30754 ,22.64162 
165 ,34.2193 ,0.98620 ,2.27332 ,22.30584 
166 ,34.4274 ,0.98824 ,2.26990 ,22.27226 
167 ,34.6673 ,0.99053 ,2.24937 ,22.07079 
168 ,34.8916 ,0.99286 ,2.23910 ,21.97005 
169 ,35.0994 ,0.99493 ,2.22883 ,21.86932 
170 ,35.3078 ,0.99706 ,2.21857 ,21.76858 
171 ,35.5315 ,0.99924 ,2.18435 ,21.43280 
172 ,35.7239 ,1.00127 ,2.18435 ,21.43280 
173 ,35.9319 ,1.00329 ,2.15697 ,21.16417 
174 ,36.1239 ,1.00526 ,2.14328 ,21.02986 
175 ,36.3162 ,1.00714 ,2.12275 ,20.82839 
176 ,36.5244 ,1.00924 ,2.11590 ,20.76123 
177 ,36.7324 ,1.01130 ,2.09195 ,20.52619 
178 ,36.9405 ,1.01339 ,2.07141 ,20.32472 
179 ,37.1481 ,1.01546 ,2.07141 ,20.32472 
180 ,37.3564 ,1.01756 ,2.03719 ,19.98893 
181 ,37.5646 ,1.01968 ,2.03719 ,19.98893 
182 ,37.7563 ,1.02159 ,2.00297 ,19.65315 
183 ,37.9489 ,1.02347 ,2.01324 ,19.75388 
184 ,38.1727 ,1.02571 ,1.97559 ,19.38452 
185 ,38.3647 ,1.02766 ,1.97559 ,19.38452 
186 ,38.5570 ,1.02957 ,1.94479 ,19.08232 
187 ,38.7650 ,1.03163 ,1.95164 ,19.14948 
188 ,38.9733 ,1.03373 ,1.92084 ,18.84727 
189 ,39.1813 ,1.03575 ,1.91057 ,18.74654 
190 ,39.3730 ,1.03779 ,1.88319 ,18.47791 
191 ,39.5652 ,1.03972 ,1.88662 ,18.51149 
192 ,39.7733 ,1.04164 ,1.86266 ,18.27644 
193 ,39.9654 ,1.04368 ,1.84555 ,18.10855 
194 ,40.1578 ,1.04561 ,1.83186 ,17.97423 
195 ,40.3820 ,1.04773 ,1.83186 ,17.97423 
196 ,40.5896 ,1.04982 ,1.79764 ,17.63845 
197 ,40.7820 ,1.05179 ,1.78737 ,17.53772 
198 ,40.9899 ,1.05387 ,1.77711 ,17.43698 
199 ,41.1981 ,1.05594 ,1.75315 ,17.20193 
200 ,41.4062 ,1.05801 ,1.76342 ,17.30267 
201 ,41.6298 ,1.06021 ,1.73262 ,17.00046 
202 ,41.8224 ,1.06222 ,1.71893 ,16.86615 
203 ,42.0306 ,1.06429 ,1.71209 ,16.79899 
204 ,42.2386 ,1.06636 ,1.69498 ,16.63110 
205 ,42.4627 ,1.06856 ,1.68129 ,16.49679 
206 ,42.6704 ,1.07063 ,1.64364 ,16.12743 
207 ,42.8788 ,1.07276 ,1.63680 ,16.06027 
208 ,43.0870 ,1.07482 ,1.63338 ,16.02669 
209 ,43.2949 ,1.07697 ,1.59916 ,15.69091 
210 ,43.5030 ,1.07897 ,1.59916 ,15.69091 
211 ,43.6952 ,1.08091 ,1.57178 ,15.42228 
212 ,43.9032 ,1.08293 ,1.56836 ,15.38871 
213 ,44.1114 ,1.08505 ,1.55809 ,15.28797 
214 ,44.3351 ,1.08728 ,1.53413 ,15.05292 
215 ,44.5276 ,1.08935 ,1.53756 ,15.08650 
216 ,44.7517 ,1.09142 ,1.50333 ,14.75072 
217 ,44.9755 ,1.09365 ,1.47938 ,14.51567 
218 ,45.1679 ,1.09569 ,1.48965 ,14.61640 
219 ,45.3759 ,1.09771 ,1.45542 ,14.28062 
220 ,45.5839 ,1.09981 ,1.44858 ,14.21346 
221 ,45.7918 ,1.10188 ,1.43489 ,14.07915 
222 ,45.9997 ,1.10391 ,1.41094 ,13.84410 
223 ,46.2083 ,1.10605 ,1.41778 ,13.91126 
224 ,46.4164 ,1.10811 ,1.38698 ,13.60906 
225 ,46.6244 ,1.11019 ,1.37329 ,13.47474 
226 ,46.8325 ,1.11235 ,1.36987 ,13.44116 
227 ,47.0402 ,1.11437 ,1.34934 ,13.23969 
228 ,47.2326 ,1.11627 ,1.33223 ,13.07180 
229 ,47.4407 ,1.11831 ,1.32196 ,12.97107 
230 ,47.6328 ,1.12026 ,1.31169 ,12.87033 
231 ,47.8408 ,1.12245 ,1.28432 ,12.60171 
232 ,48.0329 ,1.12427 ,1.28432 ,12.60171 
233 ,48.2247 ,1.12621 ,1.26378 ,12.40024 
234 ,48.4331 ,1.12822 ,1.26378 ,12.40024 
235 ,48.6412 ,1.13038 ,1.23983 ,12.16519 
236 ,48.8494 ,1.13239 ,1.23641 ,12.13161 
237 ,49.0575 ,1.13455 ,1.21245 ,11.89656 
238 ,49.2655 ,1.13654 ,1.20903 ,11.86298 
239 ,49.4897 ,1.13879 ,1.18165 ,11.59436 
240 ,49.7134 ,1.14102 ,1.16796 ,11.46004 
241 ,49.9377 ,1.14328 ,1.15427 ,11.32573 
242 ,50.1297 ,1.14522 ,1.15085 ,11.29215 
243 ,50.3378 ,1.14740 ,1.12347 ,11.02353 
244 ,50.5300 ,1.14927 ,1.12005 ,10.98995 
245 ,50.7379 ,1.15134 ,1.10636 ,10.85563 
246 ,50.9462 ,1.15342 ,1.09267 ,10.72132 
247 ,51.1541 ,1.15540 ,1.07556 ,10.55343 
248 ,51.3786 ,1.15769 ,1.06187 ,10.41912 
249 ,51.5700 ,1.15969 ,1.05503 ,10.35196 
250 ,51.7626 ,1.16158 ,1.04134 ,10.21765 
251 ,51.9546 ,1.16357 ,1.02423 ,10.04976 
252 ,52.1466 ,1.16543 ,1.02081 ,10.01618 
253 ,52.3547 ,1.16743 ,0.98659 ,9.68039 
254 ,52.5469 ,1.16941 ,0.98659 ,9.68039 
255 ,52.7707 ,1.17161 ,0.97632 ,9.57966 
256 ,52.9793 ,1.17374 ,0.94894 ,9.31103 
257 ,53.1873 ,1.17574 ,0.94894 ,9.31103 
258 ,53.3952 ,1.17781 ,0.92841 ,9.10956 
259 ,53.6029 ,1.17998 ,0.91130 ,8.94167 
260 ,53.8115 ,1.18202 ,0.90103 ,8.84094 
261 ,54.0196 ,1.18415 ,0.88392 ,8.67305 
262 ,54.2436 ,1.18635 ,0.88734 ,8.70662 
263 ,54.4517 ,1.18845 ,0.86681 ,8.50515 
264 ,54.6759 ,1.19063 ,0.84628 ,8.30368 
265 ,54.8674 ,1.19266 ,0.83943 ,8.23653 
266 ,55.0759 ,1.19464 ,0.82232 ,8.06864 
267 ,55.2681 ,1.19662 ,0.80863 ,7.93432 
268 ,55.4920 ,1.19883 ,0.80863 ,7.93432 
269 ,55.7003 ,1.20095 ,0.78468 ,7.69927 
270 ,55.9079 ,1.20295 ,0.77784 ,7.63212 
271 ,56.1484 ,1.20544 ,0.76072 ,7.46423 
272 ,56.3563 ,1.20754 ,0.74019 ,7.26276 
273 ,56.5645 ,1.20952 ,0.74361 ,7.29633 
274 ,56.7722 ,1.21162 ,0.71281 ,6.99413 
275 ,56.9645 ,1.21355 ,0.69570 ,6.82624 
276 ,57.1727 ,1.21563 ,0.68886 ,6.75908 
277 ,57.3810 ,1.21773 ,0.66833 ,6.55761 
278 ,57.6050 ,1.21995 ,0.68544 ,6.72550 
279 ,57.8130 ,1.22207 ,0.65806 ,6.45688 
280 ,58.0051 ,1.22394 ,0.63753 ,6.25541 
281 ,58.2130 ,1.22598 ,0.62726 ,6.15467 
282 ,58.4052 ,1.22798 ,0.62384 ,6.12109 
283 ,58.5972 ,1.22987 ,0.60330 ,5.91962 
284 ,58.8053 ,1.23194 ,0.59646 ,5.85247 
285 ,59.0297 ,1.23417 ,0.58619 ,5.75173 
286 ,59.2532 ,1.23636 ,0.56908 ,5.58384 
287 ,59.4458 ,1.23844 ,0.55539 ,5.44953 
288 ,59.6539 ,1.24044 ,0.56224 ,5.51668 
289 ,59.8620 ,1.24252 ,0.53828 ,5.28164 
290 ,60.0540 ,1.24446 ,0.52802 ,5.18090 
291 ,60.2621 ,1.24650 ,0.50748 ,4.97943 
292 ,60.4703 ,1.24863 ,0.51091 ,5.01301 
293 ,60.6943 ,1.25077 ,0.48695 ,4.77796 
294 ,60.8863 ,1.25274 ,0.48353 ,4.74438 
295 ,61.0785 ,1.25472 ,0.45615 ,4.47576 
296 ,61.2868 ,1.25670 ,0.45957 ,4.50934 
297 ,61.4946 ,1.25885 ,0.45273 ,4.44218 
298 ,61.6868 ,1.26074 ,0.43220 ,4.24071 
299 ,61.8949 ,1.26281 ,0.41166 ,4.03924 
300 ,62.1025 ,1.26485 ,0.40482 ,3.97208 
301 ,62.3105 ,1.26701 ,0.39797 ,3.90493 
302 ,62.5026 ,1.26899 ,0.37402 ,3.66988 
303 ,62.7430 ,1.27116 ,0.37402 ,3.66988 
304 ,62.9993 ,1.27387 ,0.33638 ,3.30052 
305 ,63.2074 ,1.27599 ,0.35349 ,3.46841 
306 ,63.4155 ,1.27809 ,0.32611 ,3.19978 
307 ,63.6232 ,1.28014 ,0.31242 ,3.06547 
308 ,63.8316 ,1.28220 ,0.31584 ,3.09905 
309 ,64.0232 ,1.28424 ,0.28162 ,2.76326 
310 ,64.2158 ,1.28606 ,0.27820 ,2.72969 
311 ,64.4399 ,1.28819 ,0.28504 ,2.79684 
312 ,64.6480 ,1.29035 ,0.25424 ,2.49464 
313 ,64.8558 ,1.29237 ,0.23371 ,2.29317 
314 ,65.0641 ,1.29453 ,0.20976 ,2.05812 
315 ,65.2563 ,1.29645 ,0.21660 ,2.12528 
316 ,65.4805 ,1.29870 ,0.19264 ,1.89023 
317 ,65.6885 ,1.30074 ,0.20633 ,2.02454 
318 ,65.8800 ,1.30275 ,0.17896 ,1.75592 
319 ,66.0887 ,1.30475 ,0.18580 ,1.82307 
320 ,66.2966 ,1.30682 ,0.17211 ,1.68876 
321 ,66.5048 ,1.30889 ,0.16527 ,1.62160 
322 ,66.7287 ,1.31116 ,0.16527 ,1.62160 
323 ,66.9366 ,1.31320 ,0.12420 ,1.21866 
324 ,67.1448 ,1.31527 ,0.11736 ,1.15151 
325 ,67.3851 ,1.31767 ,0.12762 ,1.25224 
326 ,67.5931 ,1.31973 ,0.09340 ,0.91646 
327 ,67.7853 ,1.32170 ,0.07971 ,0.78214 
328 ,68.0097 ,1.32394 ,0.08314 ,0.81572 
329 ,68.2174 ,1.32606 ,0.05234 ,0.51352 
330 ,68.4254 ,1.32815 ,0.05576 ,0.54710 
331 ,68.6175 ,1.33001 ,0.03180 ,0.31205 
332 ,68.8416 ,1.33231 ,0.03180 ,0.31205 
333 ,69.0496 ,1.33441 ,0.03180 ,0.31205 
334 ,69.2419 ,1.33627 ,0.00785 ,0.07700 
335 ,69.4337 ,1.33818 ,0.00443 ,0.04342 
336 ,69.6579 ,1.34041 ,-0.01611 ,-0.15805 
337 ,69.8660 ,1.34245 ,-0.01269 ,-0.12447 
338 ,70.0740 ,1.34462 ,-0.04348 ,-0.42667 
339 ,70.2979 ,1.34671 ,-0.04691 ,-0.46025 
340 ,70.5064 ,1.34895 ,-0.05375 ,-0.52741 
341 ,70.7142 ,1.35104 ,-0.06060 ,-0.59457 
342 ,70.9225 ,1.35308 ,-0.09824 ,-0.96393 
343 ,71.1144 ,1.35500 ,-0.09140 ,-0.89677 
344 ,71.3386 ,1.35720 ,-0.10508 ,-1.03108 
345 ,71.5469 ,1.35929 ,-0.10166 ,-0.99751 
346 ,71.7549 ,1.36142 ,-0.10851 ,-1.06466 
347 ,71.9630 ,1.36353 ,-0.13931 ,-1.36687 
348 ,72.1709 ,1.36553 ,-0.14273 ,-1.40045 
349 ,72.3792 ,1.36762 ,-0.17011 ,-1.66907 
350 ,72.5713 ,1.36965 ,-0.15299 ,-1.50118 
351 ,72.7633 ,1.37147 ,-0.18379 ,-1.80338 
352 ,72.9555 ,1.37341 ,-0.18722 ,-1.83696 
353 ,73.1796 ,1.37558 ,-0.20775 ,-2.03843 
354 ,73.3878 ,1.37771 ,-0.19748 ,-1.93770 
355 ,73.5793 ,1.37968 ,-0.21802 ,-2.13917 
356 ,73.7879 ,1.38168 ,-0.22144 ,-2.17275 
357 ,74.0114 ,1.38395 ,-0.22828 ,-2.23990 
358 ,74.2038 ,1.38590 ,-0.23855 ,-2.34064 
359 ,74.4120 ,1.38793 ,-0.25224 ,-2.47495 
360 ,74.6361 ,1.39013 ,-0.27619 ,-2.71000 
361 ,74.8442 ,1.39236 ,-0.27619 ,-2.71000 
362 ,75.0523 ,1.39436 ,-0.26593 ,-2.60926 
363 ,75.2605 ,1.39648 ,-0.30699 ,-3.01220 
364 ,75.4685 ,1.39850 ,-0.28988 ,-2.84431 
365 ,75.6766 ,1.40059 ,-0.31041 ,-3.04578 
366 ,75.8845 ,1.40264 ,-0.33095 ,-3.24725 
367 ,76.0928 ,1.40475 ,-0.33437 ,-3.28083 
368 ,76.3008 ,1.40683 ,-0.35832 ,-3.51588 
369 ,76.5089 ,1.40893 ,-0.34806 ,-3.41514 
370 ,76.7010 ,1.41087 ,-0.36517 ,-3.58303 
371 ,76.9087 ,1.41288 ,-0.36859 ,-3.61661 
372 ,77.1011 ,1.41491 ,-0.39597 ,-3.88524 
373 ,77.3092 ,1.41692 ,-0.38228 ,-3.75093 
374 ,77.5172 ,1.41902 ,-0.39597 ,-3.88524 
375 ,77.7413 ,1.42118 ,-0.41650 ,-4.08671 
376 ,77.9336 ,1.42316 ,-0.42335 ,-4.15387 
377 ,78.1417 ,1.42527 ,-0.45072 ,-4.42249 
378 ,78.3817 ,1.42753 ,-0.44388 ,-4.35534 
379 ,78.6058 ,1.42989 ,-0.46099 ,-4.52323 
380 ,78.8138 ,1.43199 ,-0.46441 ,-4.55681 
381 ,79.0060 ,1.43393 ,-0.47126 ,-4.62396 
382 ,79.2301 ,1.43613 ,-0.47810 ,-4.69112 
383 ,79.4540 ,1.43830 ,-0.50206 ,-4.92617 
384 ,79.6461 ,1.44031 ,-0.51574 ,-5.06048 
385 ,79.8703 ,1.44250 ,-0.51574 ,-5.06048 
386 ,80.0783 ,1.44458 ,-0.52943 ,-5.19479 
387 ,80.2865 ,1.44668 ,-0.53628 ,-5.26195 
388 ,80.4787 ,1.44866 ,-0.55681 ,-5.46342 
389 ,80.6706 ,1.45063 ,-0.55339 ,-5.42984 
390 ,80.8627 ,1.45254 ,-0.57050 ,-5.59773 
391 ,81.0546 ,1.45435 ,-0.55681 ,-5.46342 
392 ,81.2785 ,1.45651 ,-0.58077 ,-5.69847 
393 ,81.4870 ,1.45871 ,-0.59445 ,-5.83278 
394 ,81.7106 ,1.46092 ,-0.59103 ,-5.79920 
395 ,81.9027 ,1.46291 ,-0.61156 ,-6.00067 
396 ,82.1108 ,1.46483 ,-0.60130 ,-5.89994 
397 ,82.3195 ,1.46699 ,-0.64236 ,-6.30288 
398 ,82.5432 ,1.46927 ,-0.64236 ,-6.30288 
399 ,82.7674 ,1.47149 ,-0.64921 ,-6.37003 
400 ,82.9755 ,1.47353 ,-0.64921 ,-6.37003 
401 ,83.1836 ,1.47562 ,-0.66974 ,-6.57150 
402 ,83.3758 ,1.47755 ,-0.67316 ,-6.60508 
403 ,83.5834 ,1.47958 ,-0.69370 ,-6.80655 
404 ,83.7920 ,1.48161 ,-0.69027 ,-6.77297 
405 ,83.9999 ,1.48385 ,-0.71081 ,-6.97444 
406 ,84.2081 ,1.48582 ,-0.71081 ,-6.97444 
407 ,84.4162 ,1.48792 ,-0.72107 ,-7.07518 
408 ,84.6239 ,1.49004 ,-0.73134 ,-7.17591 
409 ,84.8323 ,1.49209 ,-0.72792 ,-7.14233 
410 ,85.0405 ,1.49423 ,-0.75872 ,-7.44454 
411 ,85.2483 ,1.49622 ,-0.75872 ,-7.44454 
412 ,85.4567 ,1.49841 ,-0.76214 ,-7.47812 
413 ,85.6643 ,1.50044 ,-0.78267 ,-7.67959 
414 ,85.8890 ,1.50257 ,-0.76898 ,-7.54527 
415 ,86.1290 ,1.50496 ,-0.76898 ,-7.54527 
416 ,86.3210 ,1.50710 ,-0.79294 ,-7.78032 
417 ,86.5131 ,1.50891 ,-0.80663 ,-7.91464 
418 ,86.7212 ,1.51103 ,-0.82716 ,-8.11611 
419 ,86.9291 ,1.51316 ,-0.83058 ,-8.14968 
420 ,87.1214 ,1.51506 ,-0.84427 ,-8.28400 
421 ,87.3295 ,1.51708 ,-0.84085 ,-8.25042 
422 ,87.5375 ,1.51917 ,-0.85112 ,-8.35115 
423 ,87.7616 ,1.52141 ,-0.86823 ,-8.51904 
424 ,87.9696 ,1.52357 ,-0.87507 ,-8.58620 
425 ,88.1616 ,1.52545 ,-0.88876 ,-8.72051 
426 ,88.3855 ,1.52759 ,-0.89218 ,-8.75409 
427 ,88.5779 ,1.52959 ,-0.88534 ,-8.68694 
428 ,88.7700 ,1.53147 ,-0.90245 ,-8.85483 
429 ,88.9616 ,1.53348 ,-0.91272 ,-8.95556 
430 ,89.1700 ,1.53548 ,-0.91956 ,-9.02272 
431 ,89.3942 ,1.53769 ,-0.92298 ,-9.05630 
432 ,89.6181 ,1.53995 ,-0.93667 ,-9.19061 
433 ,89.8264 ,1.54204 ,-0.94694 ,-9.29135 
434 ,90.0186 ,1.54400 ,-0.93667 ,-9.19061 
435 ,90.2426 ,1.54620 ,-0.97774 ,-9.59355 
436 ,90.4508 ,1.54830 ,-0.96747 ,-9.49282 
437 ,90.6584 ,1.55033 ,-0.97774 ,-9.59355 
438 ,90.8509 ,1.55228 ,-0.98800 ,-9.69429 
439 ,91.0591 ,1.55432 ,-0.99143 ,-9.72786 
440 ,91.2666 ,1.55645 ,-1.01538 ,-9.96291 
441 ,91.4592 ,1.55842 ,-1.01880 ,-9.99649 
442 ,91.6673 ,1.56042 ,-1.03934 ,-10.19796 
443 ,91.8753 ,1.56249 ,-1.01196 ,-9.92933 
444 ,92.0675 ,1.56450 ,-1.04618 ,-10.26512 
445 ,92.2755 ,1.56651 ,-1.03591 ,-10.16438 
446 ,92.4997 ,1.56864 ,-1.06671 ,-10.46659 
447 ,92.7077 ,1.57084 ,-1.08040 ,-10.60090 
448 ,92.9157 ,1.57288 ,-1.05645 ,-10.36585 
449 ,93.1235 ,1.57496 ,-1.09067 ,-10.70163 
450 ,93.3159 ,1.57696 ,-1.08382 ,-10.63448 
451 ,93.5239 ,1.57909 ,-1.10436 ,-10.83595 
452 ,93.7159 ,1.58094 ,-1.09751 ,-10.76879 
453 ,93.9239 ,1.58296 ,-1.12489 ,-11.03742 
454 ,94.1319 ,1.58505 ,-1.12489 ,-11.03742 
455 ,94.3403 ,1.58713 ,-1.13173 ,-11.10457 
456 ,94.5321 ,1.58914 ,-1.15227 ,-11.30604 
457 ,94.7405 ,1.59117 ,-1.14200 ,-11.20531 
458 ,94.9644 ,1.59336 ,-1.16253 ,-11.40678 
459 ,95.1726 ,1.59548 ,-1.16253 ,-11.40678 
460 ,95.3809 ,1.59758 ,-1.16938 ,-11.47394 
461 ,95.6045 ,1.59970 ,-1.18307 ,-11.60825 
