Data stamp = , 05-05-2022 05:18:01 333

Calibration Values: 
Slope = , 26.54 , g/V 
Offset Voltage at no contact = , -0.501760 , V 

No , Time , Stage Position ,   Mass , Force 
   ,  (s) ,      (mm)      ,   (g)  , (mN)  

1 ,0.0000 ,0.64940 ,5.24376 ,51.45180 
2 ,0.2145 ,0.64949 ,5.24034 ,51.41822 
3 ,0.5989 ,0.65061 ,5.24376 ,51.45180 
4 ,0.8392 ,0.65261 ,5.25745 ,51.58611 
5 ,1.0632 ,0.65468 ,5.23692 ,51.38464 
6 ,1.2875 ,0.65698 ,5.23350 ,51.35107 
7 ,1.4954 ,0.65906 ,5.25745 ,51.58611 
8 ,1.7037 ,0.66116 ,5.24034 ,51.41822 
9 ,1.9118 ,0.66326 ,5.20612 ,51.08244 
10 ,2.1198 ,0.66535 ,5.20612 ,51.08244 
11 ,2.3277 ,0.66740 ,5.16163 ,50.64592 
12 ,2.5197 ,0.66940 ,5.16163 ,50.64592 
13 ,2.7116 ,0.67128 ,5.12399 ,50.27656 
14 ,2.9198 ,0.67332 ,5.11714 ,50.20940 
15 ,3.1120 ,0.67529 ,5.08292 ,49.87362 
16 ,3.3042 ,0.67718 ,5.07265 ,49.77289 
17 ,3.5119 ,0.67928 ,5.04528 ,49.50426 
18 ,3.7206 ,0.68133 ,5.02817 ,49.33637 
19 ,3.9284 ,0.68351 ,5.00421 ,49.10132 
20 ,4.1204 ,0.68536 ,4.99394 ,49.00058 
21 ,4.3283 ,0.68747 ,4.95972 ,48.66480 
22 ,4.5208 ,0.68941 ,4.96657 ,48.73196 
23 ,4.7286 ,0.69139 ,4.92208 ,48.29544 
24 ,4.9367 ,0.69349 ,4.92550 ,48.32902 
25 ,5.1448 ,0.69552 ,4.88101 ,47.89250 
26 ,5.3368 ,0.69753 ,4.88444 ,47.92608 
27 ,5.5292 ,0.69945 ,4.83310 ,47.42240 
28 ,5.7368 ,0.70143 ,4.83652 ,47.45598 
29 ,5.9450 ,0.70365 ,4.81257 ,47.22093 
30 ,6.1695 ,0.70578 ,4.77835 ,46.88515 
31 ,6.3610 ,0.70779 ,4.76466 ,46.75084 
32 ,6.5374 ,0.70965 ,4.76124 ,46.71726 
33 ,6.7456 ,0.71155 ,4.73386 ,46.44863 
34 ,6.9533 ,0.71371 ,4.71675 ,46.28074 
35 ,7.1458 ,0.71560 ,4.68937 ,46.01212 
36 ,7.3537 ,0.71760 ,4.69279 ,46.04569 
37 ,7.5619 ,0.71977 ,4.67568 ,45.87780 
38 ,7.7699 ,0.72193 ,4.63804 ,45.50844 
39 ,7.9617 ,0.72376 ,4.61408 ,45.27339 
40 ,8.1701 ,0.72583 ,4.59013 ,45.03835 
41 ,8.3938 ,0.72801 ,4.58671 ,45.00477 
42 ,8.5864 ,0.73003 ,4.55933 ,44.73614 
43 ,8.7941 ,0.73198 ,4.55933 ,44.73614 
44 ,8.9864 ,0.73395 ,4.51142 ,44.26604 
45 ,9.1785 ,0.73589 ,4.52169 ,44.36678 
46 ,9.3706 ,0.73783 ,4.47720 ,43.93026 
47 ,9.5625 ,0.73975 ,4.47035 ,43.86310 
48 ,9.7547 ,0.74168 ,4.45666 ,43.72879 
49 ,9.9626 ,0.74375 ,4.44298 ,43.59448 
50 ,10.1546 ,0.74570 ,4.41902 ,43.35943 
51 ,10.3630 ,0.74773 ,4.39164 ,43.09080 
52 ,10.5711 ,0.74985 ,4.37795 ,42.95649 
53 ,10.7631 ,0.75189 ,4.36084 ,42.78860 
54 ,10.9551 ,0.75364 ,4.35058 ,42.68786 
55 ,11.1632 ,0.75576 ,4.32320 ,42.41924 
56 ,11.3714 ,0.75777 ,4.30609 ,42.25135 
57 ,11.5635 ,0.75974 ,4.28556 ,42.04988 
58 ,11.7716 ,0.76179 ,4.26502 ,41.84841 
59 ,11.9635 ,0.76379 ,4.25476 ,41.74767 
60 ,12.1717 ,0.76584 ,4.22396 ,41.44547 
61 ,12.3635 ,0.76772 ,4.20000 ,41.21042 
62 ,12.5878 ,0.76998 ,4.18289 ,41.04253 
63 ,12.8121 ,0.77220 ,4.17605 ,40.97537 
64 ,13.0040 ,0.77420 ,4.15551 ,40.77390 
65 ,13.1962 ,0.77610 ,4.14183 ,40.63959 
66 ,13.3882 ,0.77799 ,4.12129 ,40.43812 
67 ,13.5802 ,0.77991 ,4.11103 ,40.33738 
68 ,13.7723 ,0.78183 ,4.08707 ,40.10233 
69 ,13.9644 ,0.78374 ,4.05969 ,39.83371 
70 ,14.1725 ,0.78584 ,4.04258 ,39.66582 
71 ,14.3647 ,0.78775 ,4.02889 ,39.53150 
72 ,14.5723 ,0.78986 ,4.00494 ,39.29646 
73 ,14.7808 ,0.79186 ,3.99467 ,39.19572 
74 ,15.0048 ,0.79409 ,3.96045 ,38.85994 
75 ,15.2450 ,0.79655 ,3.94676 ,38.72562 
76 ,15.4531 ,0.79868 ,3.92965 ,38.55773 
77 ,15.6612 ,0.80077 ,3.91254 ,38.38984 
78 ,15.8693 ,0.80278 ,3.88516 ,38.12122 
79 ,16.0773 ,0.80489 ,3.88174 ,38.08764 
80 ,16.2854 ,0.80690 ,3.85094 ,37.78543 
81 ,16.4775 ,0.80887 ,3.83725 ,37.65112 
82 ,16.6854 ,0.81098 ,3.82014 ,37.48323 
83 ,16.8776 ,0.81285 ,3.81330 ,37.41607 
84 ,17.0697 ,0.81479 ,3.76881 ,36.97955 
85 ,17.2937 ,0.81699 ,3.76881 ,36.97955 
86 ,17.4857 ,0.81896 ,3.74485 ,36.74450 
87 ,17.6938 ,0.82098 ,3.73117 ,36.61019 
88 ,17.8857 ,0.82294 ,3.67983 ,36.10652 
89 ,18.0942 ,0.82506 ,3.69352 ,36.24083 
90 ,18.3023 ,0.82713 ,3.68325 ,36.14010 
91 ,18.5104 ,0.82917 ,3.65246 ,35.83789 
92 ,18.7186 ,0.83127 ,3.63877 ,35.70358 
93 ,18.9106 ,0.83321 ,3.60112 ,35.33422 
94 ,19.1187 ,0.83525 ,3.61139 ,35.43495 
95 ,19.3265 ,0.83740 ,3.57032 ,35.03201 
96 ,19.5508 ,0.83961 ,3.56690 ,34.99843 
97 ,19.7589 ,0.84169 ,3.53952 ,34.72981 
98 ,19.9669 ,0.84378 ,3.51557 ,34.49476 
99 ,20.1586 ,0.84567 ,3.50188 ,34.36045 
100 ,20.3671 ,0.84769 ,3.47792 ,34.12540 
101 ,20.5751 ,0.84983 ,3.47450 ,34.09182 
102 ,20.7670 ,0.85174 ,3.43686 ,33.72246 
103 ,20.9589 ,0.85368 ,3.44370 ,33.78961 
104 ,21.1670 ,0.85575 ,3.41633 ,33.52099 
105 ,21.4071 ,0.85809 ,3.38210 ,33.18520 
106 ,21.6152 ,0.86028 ,3.37868 ,33.15163 
107 ,21.8232 ,0.86235 ,3.33762 ,32.74869 
108 ,22.0314 ,0.86439 ,3.32735 ,32.64795 
109 ,22.2558 ,0.86658 ,3.32051 ,32.58080 
110 ,22.4799 ,0.86898 ,3.30682 ,32.44648 
111 ,22.6721 ,0.87079 ,3.25891 ,31.97639 
112 ,22.8803 ,0.87290 ,3.26575 ,32.04354 
113 ,23.0880 ,0.87491 ,3.23837 ,31.77492 
114 ,23.2959 ,0.87694 ,3.23495 ,31.74134 
115 ,23.4881 ,0.87898 ,3.19046 ,31.30482 
116 ,23.6800 ,0.88102 ,3.19046 ,31.30482 
117 ,23.8722 ,0.88278 ,3.15966 ,31.00262 
118 ,24.0642 ,0.88472 ,3.14597 ,30.86830 
119 ,24.2404 ,0.88660 ,3.14597 ,30.86830 
120 ,24.4325 ,0.88839 ,3.11860 ,30.59968 
121 ,24.6246 ,0.89033 ,3.10833 ,30.49894 
122 ,24.8327 ,0.89234 ,3.08095 ,30.23031 
123 ,25.0248 ,0.89434 ,3.07069 ,30.12958 
124 ,25.2168 ,0.89629 ,3.07411 ,30.16316 
125 ,25.4090 ,0.89818 ,3.03647 ,29.79380 
126 ,25.6009 ,0.90010 ,3.03304 ,29.76022 
127 ,25.7931 ,0.90202 ,3.01251 ,29.55875 
128 ,25.9691 ,0.90389 ,2.98855 ,29.32370 
129 ,26.1932 ,0.90596 ,2.97829 ,29.22297 
130 ,26.3692 ,0.90787 ,2.96118 ,29.05507 
131 ,26.5613 ,0.90968 ,2.95091 ,28.95434 
132 ,26.7374 ,0.91156 ,2.94749 ,28.92076 
133 ,26.9454 ,0.91346 ,2.91327 ,28.58498 
134 ,27.1216 ,0.91537 ,2.90300 ,28.48424 
135 ,27.3139 ,0.91723 ,2.88247 ,28.28277 
136 ,27.4897 ,0.91909 ,2.86536 ,28.11488 
137 ,27.6658 ,0.92087 ,2.85509 ,28.01415 
138 ,27.8583 ,0.92266 ,2.85167 ,27.98057 
139 ,28.0824 ,0.92483 ,2.82429 ,27.71194 
140 ,28.2904 ,0.92693 ,2.78665 ,27.34258 
141 ,28.4824 ,0.92887 ,2.78665 ,27.34258 
142 ,28.6747 ,0.93081 ,2.75585 ,27.04038 
143 ,28.8825 ,0.93286 ,2.76611 ,27.14111 
144 ,29.0908 ,0.93492 ,2.72847 ,26.77175 
145 ,29.2989 ,0.93702 ,2.73189 ,26.80533 
146 ,29.4909 ,0.93897 ,2.69083 ,26.40239 
147 ,29.7151 ,0.94114 ,2.68740 ,26.36881 
148 ,29.9072 ,0.94311 ,2.66003 ,26.10018 
149 ,30.0988 ,0.94502 ,2.67029 ,26.20092 
150 ,30.3074 ,0.94712 ,2.61896 ,25.69724 
151 ,30.5153 ,0.94920 ,2.62238 ,25.73082 
152 ,30.7232 ,0.95126 ,2.61212 ,25.63009 
153 ,30.9312 ,0.95331 ,2.58816 ,25.39504 
154 ,31.1232 ,0.95530 ,2.57789 ,25.29430 
155 ,31.2997 ,0.95716 ,2.55736 ,25.09283 
156 ,31.4918 ,0.95898 ,2.52314 ,24.75705 
157 ,31.6837 ,0.96088 ,2.53341 ,24.85779 
158 ,31.8759 ,0.96283 ,2.50603 ,24.58916 
159 ,32.0839 ,0.96481 ,2.49234 ,24.45485 
160 ,32.3077 ,0.96707 ,2.46496 ,24.18622 
161 ,32.5162 ,0.96916 ,2.46496 ,24.18622 
162 ,32.7402 ,0.97137 ,2.44443 ,23.98475 
163 ,32.9482 ,0.97347 ,2.40336 ,23.58181 
164 ,33.1406 ,0.97545 ,2.41363 ,23.68255 
165 ,33.3486 ,0.97750 ,2.38283 ,23.38034 
166 ,33.5566 ,0.97958 ,2.38625 ,23.41392 
167 ,33.7647 ,0.98168 ,2.36572 ,23.21245 
168 ,33.9726 ,0.98372 ,2.32808 ,22.84309 
169 ,34.1809 ,0.98577 ,2.32808 ,22.84309 
170 ,34.3890 ,0.98780 ,2.29385 ,22.50731 
171 ,34.5969 ,0.99002 ,2.28701 ,22.44015 
172 ,34.7889 ,0.99191 ,2.26306 ,22.20510 
173 ,34.9972 ,0.99397 ,2.26990 ,22.27226 
174 ,35.1893 ,0.99590 ,2.23910 ,21.97005 
175 ,35.3974 ,0.99799 ,2.24594 ,22.03721 
176 ,35.5893 ,0.99993 ,2.19803 ,21.56711 
177 ,35.7975 ,1.00198 ,2.20146 ,21.60069 
178 ,36.0056 ,1.00408 ,2.16723 ,21.26491 
179 ,36.2136 ,1.00612 ,2.15697 ,21.16417 
180 ,36.4059 ,1.00806 ,2.15012 ,21.09702 
181 ,36.6140 ,1.01012 ,2.13644 ,20.96270 
182 ,36.8379 ,1.01237 ,2.11248 ,20.72766 
183 ,37.0620 ,1.01465 ,2.10221 ,20.62692 
184 ,37.2702 ,1.01663 ,2.07484 ,20.35829 
185 ,37.4783 ,1.01886 ,2.04404 ,20.05609 
186 ,37.6863 ,1.02090 ,2.04746 ,20.08967 
187 ,37.8941 ,1.02287 ,2.03719 ,19.98893 
188 ,38.0866 ,1.02485 ,2.01324 ,19.75388 
189 ,38.3106 ,1.02708 ,1.99270 ,19.55241 
190 ,38.5026 ,1.02903 ,1.98586 ,19.48526 
191 ,38.7109 ,1.03102 ,1.96190 ,19.25021 
192 ,38.9184 ,1.03314 ,1.95848 ,19.21663 
193 ,39.1268 ,1.03526 ,1.92768 ,18.91443 
194 ,39.3349 ,1.03734 ,1.91057 ,18.74654 
195 ,39.5271 ,1.03928 ,1.90373 ,18.67938 
196 ,39.7353 ,1.04137 ,1.88319 ,18.47791 
197 ,39.9431 ,1.04342 ,1.87635 ,18.41075 
198 ,40.1353 ,1.04549 ,1.85240 ,18.17570 
199 ,40.3274 ,1.04725 ,1.84897 ,18.14213 
200 ,40.5196 ,1.04919 ,1.82844 ,17.94066 
201 ,40.7117 ,1.05115 ,1.81133 ,17.77276 
202 ,40.9198 ,1.05317 ,1.79764 ,17.63845 
203 ,41.1114 ,1.05515 ,1.77026 ,17.36983 
204 ,41.3198 ,1.05718 ,1.76342 ,17.30267 
205 ,41.5277 ,1.05926 ,1.74973 ,17.16836 
206 ,41.7203 ,1.06116 ,1.74289 ,17.10120 
207 ,41.9441 ,1.06339 ,1.71551 ,16.83257 
208 ,42.1522 ,1.06550 ,1.69498 ,16.63110 
209 ,42.3602 ,1.06757 ,1.68813 ,16.56395 
210 ,42.5523 ,1.06957 ,1.65733 ,16.26174 
211 ,42.7442 ,1.07142 ,1.65733 ,16.26174 
212 ,42.9525 ,1.07355 ,1.64364 ,16.12743 
213 ,43.1444 ,1.07543 ,1.63680 ,16.06027 
214 ,43.3684 ,1.07763 ,1.59573 ,15.65733 
215 ,43.5607 ,1.07970 ,1.60600 ,15.75807 
216 ,43.7688 ,1.08168 ,1.56151 ,15.32155 
217 ,43.9770 ,1.08375 ,1.57862 ,15.48944 
218 ,44.1848 ,1.08578 ,1.54440 ,15.15366 
219 ,44.3931 ,1.08791 ,1.52729 ,14.98577 
220 ,44.5848 ,1.08986 ,1.53756 ,15.08650 
221 ,44.7773 ,1.09181 ,1.49991 ,14.71714 
222 ,45.0015 ,1.09398 ,1.49649 ,14.68356 
223 ,45.2256 ,1.09613 ,1.46569 ,14.38136 
224 ,45.4335 ,1.09834 ,1.45542 ,14.28062 
225 ,45.6415 ,1.10032 ,1.45200 ,14.24704 
226 ,45.8335 ,1.10233 ,1.42805 ,14.01199 
227 ,46.0417 ,1.10440 ,1.42805 ,14.01199 
228 ,46.2336 ,1.10633 ,1.40409 ,13.77695 
229 ,46.4418 ,1.10843 ,1.40751 ,13.81053 
230 ,46.6338 ,1.11032 ,1.37329 ,13.47474 
231 ,46.8581 ,1.11255 ,1.36987 ,13.44116 
232 ,47.0663 ,1.11464 ,1.36303 ,13.37401 
233 ,47.2899 ,1.11687 ,1.31854 ,12.93749 
234 ,47.5145 ,1.11914 ,1.32538 ,13.00465 
235 ,47.7226 ,1.12120 ,1.31854 ,12.93749 
236 ,47.9305 ,1.12325 ,1.27063 ,12.46739 
237 ,48.1386 ,1.12534 ,1.27747 ,12.53455 
238 ,48.3467 ,1.12743 ,1.25009 ,12.26592 
239 ,48.5545 ,1.12950 ,1.23641 ,12.13161 
240 ,48.7628 ,1.13162 ,1.23983 ,12.16519 
241 ,48.9709 ,1.13379 ,1.20561 ,11.82941 
242 ,49.1628 ,1.13560 ,1.20903 ,11.86298 
243 ,49.3711 ,1.13768 ,1.18507 ,11.62794 
244 ,49.5631 ,1.13960 ,1.18507 ,11.62794 
245 ,49.7873 ,1.14185 ,1.15770 ,11.35931 
246 ,49.9949 ,1.14393 ,1.14401 ,11.22500 
247 ,50.2032 ,1.14599 ,1.12690 ,11.05710 
248 ,50.4276 ,1.14813 ,1.09610 ,10.75490 
249 ,50.6356 ,1.15026 ,1.09952 ,10.78848 
250 ,50.8437 ,1.15237 ,1.08925 ,10.68774 
251 ,51.0513 ,1.15449 ,1.06530 ,10.45270 
252 ,51.2593 ,1.15657 ,1.07214 ,10.51985 
253 ,51.4676 ,1.15861 ,1.03450 ,10.15049 
254 ,51.7081 ,1.16106 ,1.01396 ,9.94902 
255 ,51.9162 ,1.16307 ,1.02423 ,10.04976 
256 ,52.1241 ,1.16521 ,0.99685 ,9.78113 
257 ,52.3322 ,1.16724 ,0.99685 ,9.78113 
258 ,52.5240 ,1.16932 ,0.97974 ,9.61324 
259 ,52.7324 ,1.17126 ,0.95921 ,9.41177 
260 ,52.9406 ,1.17335 ,0.96948 ,9.51250 
261 ,53.1487 ,1.17539 ,0.93183 ,9.14314 
262 ,53.3564 ,1.17747 ,0.92841 ,9.10956 
263 ,53.5807 ,1.17961 ,0.90788 ,8.90809 
264 ,53.7890 ,1.18187 ,0.88050 ,8.63947 
265 ,53.9810 ,1.18380 ,0.88050 ,8.63947 
266 ,54.1893 ,1.18585 ,0.86681 ,8.50515 
267 ,54.3973 ,1.18791 ,0.86681 ,8.50515 
268 ,54.6374 ,1.19020 ,0.85312 ,8.37084 
269 ,54.8455 ,1.19240 ,0.81890 ,8.03506 
270 ,55.0536 ,1.19451 ,0.81890 ,8.03506 
271 ,55.2617 ,1.19662 ,0.81206 ,7.96790 
272 ,55.4857 ,1.19874 ,0.78126 ,7.66570 
273 ,55.6937 ,1.20085 ,0.77099 ,7.56496 
274 ,55.9016 ,1.20301 ,0.77784 ,7.63212 
275 ,56.0939 ,1.20490 ,0.74019 ,7.26276 
276 ,56.3021 ,1.20696 ,0.72650 ,7.12844 
277 ,56.5101 ,1.20906 ,0.70597 ,6.92697 
278 ,56.7018 ,1.21098 ,0.71281 ,6.99413 
279 ,56.8941 ,1.21293 ,0.70939 ,6.96055 
280 ,57.1025 ,1.21492 ,0.68886 ,6.75908 
281 ,57.3261 ,1.21715 ,0.65464 ,6.42330 
282 ,57.5187 ,1.21914 ,0.67859 ,6.65835 
283 ,57.7107 ,1.22107 ,0.63068 ,6.18825 
284 ,57.9188 ,1.22309 ,0.64095 ,6.28899 
285 ,58.1266 ,1.22521 ,0.62384 ,6.12109 
286 ,58.3669 ,1.22760 ,0.60330 ,5.91962 
287 ,58.5746 ,1.22970 ,0.59304 ,5.81889 
288 ,58.7666 ,1.23161 ,0.57935 ,5.68458 
289 ,58.9587 ,1.23356 ,0.58619 ,5.75173 
290 ,59.1348 ,1.23541 ,0.55539 ,5.44953 
291 ,59.3272 ,1.23725 ,0.54855 ,5.38237 
292 ,59.5351 ,1.23923 ,0.55539 ,5.44953 
293 ,59.7274 ,1.24123 ,0.51433 ,5.04659 
294 ,59.9352 ,1.24321 ,0.53144 ,5.21448 
295 ,60.1434 ,1.24537 ,0.51091 ,5.01301 
296 ,60.3518 ,1.24745 ,0.49037 ,4.81154 
297 ,60.5435 ,1.24937 ,0.49037 ,4.81154 
298 ,60.7359 ,1.25127 ,0.49380 ,4.84512 
299 ,60.9439 ,1.25331 ,0.44931 ,4.40860 
300 ,61.1355 ,1.25538 ,0.44931 ,4.40860 
301 ,61.3280 ,1.25721 ,0.43220 ,4.24071 
302 ,61.5201 ,1.25917 ,0.43904 ,4.30787 
303 ,61.7124 ,1.26105 ,0.42193 ,4.13997 
304 ,61.9204 ,1.26316 ,0.42877 ,4.20713 
305 ,62.1124 ,1.26509 ,0.38771 ,3.80419 
306 ,62.3365 ,1.26726 ,0.38429 ,3.77061 
307 ,62.5446 ,1.26934 ,0.36375 ,3.56914 
308 ,62.7366 ,1.27143 ,0.36375 ,3.56914 
309 ,62.9284 ,1.27320 ,0.33638 ,3.30052 
310 ,63.1209 ,1.27513 ,0.33980 ,3.33410 
311 ,63.2964 ,1.27702 ,0.31926 ,3.13263 
312 ,63.5048 ,1.27890 ,0.30215 ,2.96473 
313 ,63.7131 ,1.28103 ,0.31242 ,3.06547 
314 ,63.9051 ,1.28303 ,0.27478 ,2.69611 
315 ,64.1133 ,1.28504 ,0.28162 ,2.76326 
316 ,64.3052 ,1.28698 ,0.27135 ,2.66253 
317 ,64.4973 ,1.28886 ,0.26451 ,2.59537 
318 ,64.7054 ,1.29091 ,0.24740 ,2.42748 
319 ,64.8815 ,1.29285 ,0.25082 ,2.46106 
320 ,65.0896 ,1.29479 ,0.21660 ,2.12528 
321 ,65.2975 ,1.29686 ,0.23029 ,2.25959 
322 ,65.4893 ,1.29896 ,0.18922 ,1.85665 
323 ,65.6976 ,1.30087 ,0.20291 ,1.99096 
324 ,65.9059 ,1.30292 ,0.17211 ,1.68876 
325 ,66.0980 ,1.30489 ,0.18580 ,1.82307 
326 ,66.3059 ,1.30690 ,0.15500 ,1.52087 
327 ,66.4983 ,1.30890 ,0.17896 ,1.75592 
328 ,66.7061 ,1.31094 ,0.13789 ,1.35298 
329 ,66.9145 ,1.31307 ,0.12762 ,1.25224 
330 ,67.1226 ,1.31508 ,0.11393 ,1.11793 
331 ,67.3146 ,1.31708 ,0.10709 ,1.05077 
332 ,67.5225 ,1.31904 ,0.09682 ,0.95004 
333 ,67.7303 ,1.32114 ,0.08998 ,0.88288 
334 ,67.9228 ,1.32315 ,0.07971 ,0.78214 
335 ,68.1309 ,1.32524 ,0.05576 ,0.54710 
336 ,68.3231 ,1.32716 ,0.06602 ,0.64783 
337 ,68.5308 ,1.32919 ,0.03522 ,0.34563 
338 ,68.7392 ,1.33126 ,0.04549 ,0.44636 
339 ,68.9468 ,1.33337 ,0.01811 ,0.17773 
340 ,69.1553 ,1.33544 ,0.02496 ,0.24489 
341 ,69.3952 ,1.33767 ,-0.00584 ,-0.05731 
342 ,69.6033 ,1.33986 ,-0.01611 ,-0.15805 
343 ,69.7953 ,1.34186 ,-0.02295 ,-0.22520 
344 ,69.9875 ,1.34378 ,-0.04006 ,-0.39310 
345 ,70.1795 ,1.34569 ,-0.02637 ,-0.25878 
346 ,70.3876 ,1.34776 ,-0.05717 ,-0.56099 
347 ,70.5958 ,1.34992 ,-0.05717 ,-0.56099 
348 ,70.7879 ,1.35177 ,-0.08113 ,-0.79604 
349 ,70.9956 ,1.35382 ,-0.07086 ,-0.69530 
350 ,71.2040 ,1.35592 ,-0.09824 ,-0.96393 
351 ,71.4122 ,1.35803 ,-0.10166 ,-0.99751 
352 ,71.6203 ,1.36012 ,-0.10508 ,-1.03108 
353 ,71.8124 ,1.36206 ,-0.14273 ,-1.40045 
354 ,72.0044 ,1.36394 ,-0.13588 ,-1.33329 
355 ,72.2121 ,1.36598 ,-0.14273 ,-1.40045 
356 ,72.4045 ,1.36792 ,-0.13931 ,-1.36687 
357 ,72.6287 ,1.37013 ,-0.16326 ,-1.60191 
358 ,72.8045 ,1.37207 ,-0.16326 ,-1.60191 
359 ,73.0130 ,1.37401 ,-0.19406 ,-1.90412 
360 ,73.2049 ,1.37595 ,-0.18379 ,-1.80338 
361 ,73.4129 ,1.37799 ,-0.20090 ,-1.97128 
362 ,73.6370 ,1.38019 ,-0.20433 ,-2.00485 
363 ,73.8293 ,1.38223 ,-0.23855 ,-2.34064 
364 ,74.0213 ,1.38423 ,-0.21802 ,-2.13917 
365 ,74.2132 ,1.38602 ,-0.23855 ,-2.34064 
366 ,74.4211 ,1.38807 ,-0.24197 ,-2.37422 
367 ,74.5974 ,1.38997 ,-0.26593 ,-2.60926 
368 ,74.7896 ,1.39176 ,-0.28304 ,-2.77716 
369 ,74.9977 ,1.39382 ,-0.26935 ,-2.64284 
370 ,75.2057 ,1.39587 ,-0.29673 ,-2.91147 
371 ,75.3979 ,1.39787 ,-0.27961 ,-2.74358 
372 ,75.6378 ,1.40013 ,-0.31041 ,-3.04578 
373 ,75.8621 ,1.40246 ,-0.31041 ,-3.04578 
374 ,76.0541 ,1.40446 ,-0.33095 ,-3.24725 
375 ,76.2622 ,1.40647 ,-0.33779 ,-3.31441 
376 ,76.4704 ,1.40854 ,-0.35490 ,-3.48230 
377 ,76.6784 ,1.41064 ,-0.35148 ,-3.44872 
378 ,76.8705 ,1.41256 ,-0.37544 ,-3.68377 
379 ,77.0626 ,1.41451 ,-0.36175 ,-3.54946 
380 ,77.2706 ,1.41658 ,-0.39597 ,-3.88524 
381 ,77.4627 ,1.41846 ,-0.37886 ,-3.71735 
382 ,77.6864 ,1.42069 ,-0.42335 ,-4.15387 
383 ,77.8947 ,1.42278 ,-0.40623 ,-3.98597 
384 ,78.1030 ,1.42491 ,-0.41308 ,-4.05313 
385 ,78.3271 ,1.42699 ,-0.44730 ,-4.38891 
386 ,78.5351 ,1.42921 ,-0.45072 ,-4.42249 
387 ,78.7113 ,1.43109 ,-0.46099 ,-4.52323 
388 ,78.9193 ,1.43305 ,-0.45072 ,-4.42249 
389 ,79.1114 ,1.43501 ,-0.47468 ,-4.65754 
390 ,79.3355 ,1.43719 ,-0.47810 ,-4.69112 
391 ,79.5274 ,1.43918 ,-0.49521 ,-4.85901 
392 ,79.7197 ,1.44109 ,-0.48837 ,-4.79185 
393 ,79.9114 ,1.44301 ,-0.51574 ,-5.06048 
394 ,80.1199 ,1.44504 ,-0.49521 ,-4.85901 
395 ,80.3118 ,1.44700 ,-0.52601 ,-5.16121 
396 ,80.5520 ,1.44925 ,-0.51917 ,-5.09406 
397 ,80.7601 ,1.45145 ,-0.53285 ,-5.22837 
398 ,80.9679 ,1.45349 ,-0.56365 ,-5.53058 
399 ,81.1760 ,1.45560 ,-0.56708 ,-5.56415 
400 ,81.3843 ,1.45764 ,-0.57392 ,-5.63131 
401 ,81.6082 ,1.45979 ,-0.57734 ,-5.66489 
402 ,81.8168 ,1.46202 ,-0.57392 ,-5.63131 
403 ,82.0087 ,1.46391 ,-0.61156 ,-6.00067 
404 ,82.2007 ,1.46586 ,-0.59445 ,-5.83278 
405 ,82.4088 ,1.46793 ,-0.63210 ,-6.20214 
406 ,82.6327 ,1.47012 ,-0.62868 ,-6.16856 
407 ,82.8252 ,1.47206 ,-0.63210 ,-6.20214 
408 ,83.0491 ,1.47430 ,-0.64579 ,-6.33646 
409 ,83.2568 ,1.47636 ,-0.63552 ,-6.23572 
410 ,83.4492 ,1.47836 ,-0.66974 ,-6.57150 
411 ,83.6730 ,1.48050 ,-0.67316 ,-6.60508 
412 ,83.8814 ,1.48264 ,-0.67316 ,-6.60508 
413 ,84.1055 ,1.48481 ,-0.68685 ,-6.73940 
414 ,84.3132 ,1.48694 ,-0.70054 ,-6.87371 
415 ,84.5218 ,1.48898 ,-0.70396 ,-6.90729 
416 ,84.7299 ,1.49117 ,-0.73134 ,-7.17591 
417 ,84.9380 ,1.49321 ,-0.71765 ,-7.04160 
418 ,85.1460 ,1.49522 ,-0.74503 ,-7.31023 
419 ,85.3541 ,1.49738 ,-0.75530 ,-7.41096 
420 ,85.5782 ,1.49946 ,-0.75530 ,-7.41096 
421 ,85.7863 ,1.50169 ,-0.76556 ,-7.51170 
422 ,85.9941 ,1.50375 ,-0.76898 ,-7.54527 
423 ,86.1865 ,1.50570 ,-0.77925 ,-7.64601 
424 ,86.3944 ,1.50773 ,-0.79978 ,-7.84748 
425 ,86.6025 ,1.50987 ,-0.79294 ,-7.78032 
426 ,86.7945 ,1.51176 ,-0.81689 ,-8.01537 
427 ,87.0029 ,1.51382 ,-0.81689 ,-8.01537 
428 ,87.2107 ,1.51592 ,-0.83401 ,-8.18326 
429 ,87.4031 ,1.51786 ,-0.82374 ,-8.08253 
430 ,87.6107 ,1.51991 ,-0.85454 ,-8.38473 
431 ,87.8193 ,1.52199 ,-0.84769 ,-8.31758 
432 ,88.0273 ,1.52411 ,-0.85796 ,-8.41831 
433 ,88.2353 ,1.52616 ,-0.87507 ,-8.58620 
434 ,88.4434 ,1.52826 ,-0.87507 ,-8.58620 
435 ,88.6516 ,1.53032 ,-0.88876 ,-8.72051 
436 ,88.8914 ,1.53263 ,-0.87849 ,-8.61978 
437 ,89.0995 ,1.53484 ,-0.90587 ,-8.88841 
438 ,89.3076 ,1.53683 ,-0.92298 ,-9.05630 
439 ,89.5157 ,1.53893 ,-0.91956 ,-9.02272 
440 ,89.7079 ,1.54090 ,-0.93667 ,-9.19061 
441 ,89.9000 ,1.54288 ,-0.92983 ,-9.12345 
442 ,90.0921 ,1.54475 ,-0.95378 ,-9.35850 
443 ,90.2842 ,1.54666 ,-0.94351 ,-9.25777 
444 ,90.4924 ,1.54876 ,-0.97774 ,-9.59355 
445 ,90.7005 ,1.55082 ,-0.96063 ,-9.42566 
446 ,90.9082 ,1.55285 ,-0.98800 ,-9.69429 
447 ,91.1166 ,1.55495 ,-0.99485 ,-9.76144 
448 ,91.3567 ,1.55744 ,-1.00511 ,-9.86218 
449 ,91.5647 ,1.55950 ,-0.99827 ,-9.79502 
450 ,91.7568 ,1.56135 ,-1.02222 ,-10.03007 
451 ,91.9649 ,1.56348 ,-1.00169 ,-9.82860 
452 ,92.1729 ,1.56555 ,-1.03934 ,-10.19796 
453 ,92.3807 ,1.56765 ,-1.03249 ,-10.13080 
454 ,92.5731 ,1.56957 ,-1.05645 ,-10.36585 
455 ,92.7651 ,1.57148 ,-1.04618 ,-10.26512 
456 ,92.9733 ,1.57345 ,-1.06671 ,-10.46659 
457 ,93.1650 ,1.57546 ,-1.05987 ,-10.39943 
458 ,93.3577 ,1.57738 ,-1.08382 ,-10.63448 
459 ,93.5816 ,1.57957 ,-1.08725 ,-10.66806 
460 ,93.7736 ,1.58154 ,-1.10436 ,-10.83595 
461 ,93.9818 ,1.58363 ,-1.09067 ,-10.70163 
462 ,94.1737 ,1.58553 ,-1.12831 ,-11.07100 
