Data stamp = , 05-05-2022 16:28:40 921

Calibration Values: 
Slope = , 26.54 , g/V 
Offset Voltage at no contact = , -0.501760 , V 

No , Time , Stage Position ,   Mass , Force 
   ,  (s) ,      (mm)      ,   (g)  , (mN)  

1 ,0.0000 ,0.64946 ,5.14794 ,50.51161 
2 ,0.2152 ,0.64956 ,5.12399 ,50.27656 
3 ,0.6478 ,0.65083 ,5.13768 ,50.41087 
4 ,0.8715 ,0.65299 ,5.15479 ,50.57876 
5 ,1.0796 ,0.65498 ,5.13083 ,50.34372 
6 ,1.2881 ,0.65702 ,5.13425 ,50.37729 
7 ,1.5118 ,0.65927 ,5.14794 ,50.51161 
8 ,1.7043 ,0.66122 ,5.12741 ,50.31014 
9 ,1.8960 ,0.66317 ,5.13768 ,50.41087 
10 ,2.1044 ,0.66523 ,5.11714 ,50.20940 
11 ,2.3125 ,0.66736 ,5.13083 ,50.34372 
12 ,2.5205 ,0.66938 ,5.08977 ,49.94078 
13 ,2.7287 ,0.67150 ,5.07608 ,49.80646 
14 ,2.9367 ,0.67358 ,5.07608 ,49.80646 
15 ,3.1449 ,0.67566 ,5.04185 ,49.47068 
16 ,3.3366 ,0.67765 ,5.03501 ,49.40352 
17 ,3.5289 ,0.67950 ,5.00079 ,49.06774 
18 ,3.7210 ,0.68142 ,4.99737 ,49.03416 
19 ,3.9130 ,0.68333 ,4.98026 ,48.86627 
20 ,4.1373 ,0.68559 ,4.96657 ,48.73196 
21 ,4.3452 ,0.68767 ,4.92892 ,48.36260 
22 ,4.5694 ,0.68986 ,4.90497 ,48.12755 
23 ,4.7936 ,0.69215 ,4.89812 ,48.06039 
24 ,4.9852 ,0.69415 ,4.85706 ,47.65745 
25 ,5.1775 ,0.69600 ,4.87417 ,47.82534 
26 ,5.3857 ,0.69817 ,4.82626 ,47.35525 
27 ,5.5777 ,0.69999 ,4.82284 ,47.32167 
28 ,5.7700 ,0.70192 ,4.79546 ,47.05304 
29 ,5.9780 ,0.70394 ,4.78177 ,46.91873 
30 ,6.1861 ,0.70605 ,4.75782 ,46.68368 
31 ,6.3782 ,0.70798 ,4.74413 ,46.54937 
32 ,6.5859 ,0.71005 ,4.72017 ,46.31432 
33 ,6.7941 ,0.71219 ,4.69964 ,46.11285 
34 ,7.0025 ,0.71426 ,4.66199 ,45.74349 
35 ,7.2105 ,0.71636 ,4.65515 ,45.67633 
36 ,7.4026 ,0.71820 ,4.63462 ,45.47486 
37 ,7.6105 ,0.72037 ,4.61408 ,45.27339 
38 ,7.8186 ,0.72239 ,4.60040 ,45.13908 
39 ,8.0109 ,0.72433 ,4.58328 ,44.97119 
40 ,8.2185 ,0.72631 ,4.54222 ,44.56825 
41 ,8.4267 ,0.72837 ,4.54564 ,44.60183 
42 ,8.6351 ,0.73050 ,4.52853 ,44.43394 
43 ,8.8427 ,0.73258 ,4.48746 ,44.03100 
44 ,9.0513 ,0.73470 ,4.49431 ,44.09815 
45 ,9.2754 ,0.73691 ,4.48062 ,43.96384 
46 ,9.4835 ,0.73905 ,4.43271 ,43.49374 
47 ,9.7075 ,0.74130 ,4.41218 ,43.29227 
48 ,9.9154 ,0.74337 ,4.40875 ,43.25870 
49 ,10.1397 ,0.74557 ,4.38138 ,42.99007 
50 ,10.3635 ,0.74780 ,4.35400 ,42.72144 
51 ,10.5719 ,0.74991 ,4.35400 ,42.72144 
52 ,10.8120 ,0.75216 ,4.31636 ,42.35208 
53 ,11.0198 ,0.75440 ,4.28213 ,42.01630 
54 ,11.2281 ,0.75649 ,4.29582 ,42.15061 
55 ,11.4521 ,0.75864 ,4.27529 ,41.94914 
56 ,11.6925 ,0.76096 ,4.24107 ,41.61336 
57 ,11.9003 ,0.76313 ,4.21369 ,41.34473 
58 ,12.0925 ,0.76510 ,4.21711 ,41.37831 
59 ,12.2845 ,0.76708 ,4.17947 ,41.00895 
60 ,12.5085 ,0.76927 ,4.17262 ,40.94179 
61 ,12.7168 ,0.77140 ,4.14183 ,40.63959 
62 ,12.9246 ,0.77342 ,4.12129 ,40.43812 
63 ,13.1168 ,0.77533 ,4.11103 ,40.33738 
64 ,13.3086 ,0.77729 ,4.08707 ,40.10233 
65 ,13.5171 ,0.77931 ,4.06312 ,39.86729 
66 ,13.7249 ,0.78145 ,4.04943 ,39.73297 
67 ,13.9333 ,0.78348 ,4.03916 ,39.63224 
68 ,14.1414 ,0.78561 ,4.00494 ,39.29646 
69 ,14.3651 ,0.78777 ,3.99125 ,39.16214 
70 ,14.5735 ,0.78985 ,3.98098 ,39.06141 
71 ,14.7817 ,0.79196 ,3.94334 ,38.69205 
72 ,14.9897 ,0.79406 ,3.94334 ,38.69205 
73 ,15.1975 ,0.79613 ,3.91254 ,38.38984 
74 ,15.3897 ,0.79810 ,3.90912 ,38.35626 
75 ,15.5978 ,0.80013 ,3.87832 ,38.05406 
76 ,15.8056 ,0.80222 ,3.86121 ,37.88617 
77 ,16.0142 ,0.80426 ,3.84410 ,37.71828 
78 ,16.2383 ,0.80652 ,3.81672 ,37.44965 
79 ,16.4465 ,0.80865 ,3.79961 ,37.28176 
80 ,16.6542 ,0.81066 ,3.78934 ,37.18102 
81 ,16.8466 ,0.81266 ,3.76539 ,36.94597 
82 ,17.0386 ,0.81463 ,3.74828 ,36.77808 
83 ,17.2466 ,0.81667 ,3.72774 ,36.57661 
84 ,17.4386 ,0.81859 ,3.71063 ,36.40872 
85 ,17.6467 ,0.82057 ,3.70379 ,36.34157 
86 ,17.8550 ,0.82267 ,3.67299 ,36.03936 
87 ,18.0789 ,0.82489 ,3.64561 ,35.77073 
88 ,18.2712 ,0.82693 ,3.65588 ,35.87147 
89 ,18.4790 ,0.82891 ,3.61481 ,35.46853 
90 ,18.6869 ,0.83104 ,3.59428 ,35.26706 
91 ,18.8953 ,0.83304 ,3.58743 ,35.19990 
92 ,19.1031 ,0.83525 ,3.55321 ,34.86412 
93 ,19.2951 ,0.83712 ,3.54979 ,34.83054 
94 ,19.4872 ,0.83903 ,3.52926 ,34.62907 
95 ,19.6799 ,0.84098 ,3.50872 ,34.42760 
96 ,19.8874 ,0.84301 ,3.48477 ,34.19255 
97 ,20.1119 ,0.84516 ,3.47450 ,34.09182 
98 ,20.3523 ,0.84761 ,3.44028 ,33.75604 
99 ,20.5761 ,0.84986 ,3.42317 ,33.58814 
100 ,20.7840 ,0.85199 ,3.40264 ,33.38667 
101 ,20.9919 ,0.85405 ,3.40606 ,33.42025 
102 ,21.2001 ,0.85618 ,3.35815 ,32.95016 
103 ,21.4083 ,0.85822 ,3.36499 ,33.01731 
104 ,21.6007 ,0.86016 ,3.33077 ,32.68153 
105 ,21.8086 ,0.86216 ,3.32735 ,32.64795 
106 ,22.0166 ,0.86426 ,3.29313 ,32.31217 
107 ,22.2247 ,0.86633 ,3.28286 ,32.21143 
108 ,22.4169 ,0.86832 ,3.26917 ,32.07712 
109 ,22.6249 ,0.87036 ,3.24864 ,31.87565 
110 ,22.8169 ,0.87230 ,3.23153 ,31.70776 
111 ,23.0091 ,0.87423 ,3.22468 ,31.64060 
112 ,23.2327 ,0.87643 ,3.20073 ,31.40555 
113 ,23.4252 ,0.87847 ,3.16993 ,31.10335 
114 ,23.6169 ,0.88033 ,3.16651 ,31.06977 
115 ,23.8412 ,0.88249 ,3.12886 ,30.70041 
116 ,24.0497 ,0.88465 ,3.13913 ,30.80115 
117 ,24.2893 ,0.88688 ,3.10491 ,30.46536 
118 ,24.5135 ,0.88917 ,3.07411 ,30.16316 
119 ,24.7217 ,0.89134 ,3.06726 ,30.09600 
120 ,24.9296 ,0.89339 ,3.05700 ,29.99527 
121 ,25.1378 ,0.89549 ,3.01935 ,29.62590 
122 ,25.3301 ,0.89746 ,3.01251 ,29.55875 
123 ,25.5221 ,0.89947 ,3.00224 ,29.45801 
124 ,25.7142 ,0.90125 ,2.98855 ,29.32370 
125 ,25.9063 ,0.90320 ,2.97144 ,29.15581 
126 ,26.1144 ,0.90526 ,2.96460 ,29.08865 
127 ,26.3226 ,0.90734 ,2.92696 ,28.71929 
128 ,26.5302 ,0.90944 ,2.93380 ,28.78645 
129 ,26.7387 ,0.91151 ,2.88589 ,28.31635 
130 ,26.9624 ,0.91374 ,2.86536 ,28.11488 
131 ,27.1708 ,0.91586 ,2.87562 ,28.21562 
132 ,27.3786 ,0.91790 ,2.82771 ,27.74552 
133 ,27.5868 ,0.91991 ,2.83798 ,27.84625 
134 ,27.7950 ,0.92205 ,2.81060 ,27.57763 
135 ,28.0031 ,0.92415 ,2.77638 ,27.24185 
136 ,28.2107 ,0.92616 ,2.78665 ,27.34258 
137 ,28.4033 ,0.92816 ,2.75585 ,27.04038 
138 ,28.6113 ,0.93020 ,2.75243 ,27.00680 
139 ,28.8029 ,0.93215 ,2.70452 ,26.53670 
140 ,28.9955 ,0.93407 ,2.70794 ,26.57028 
141 ,29.2194 ,0.93626 ,2.67714 ,26.26807 
142 ,29.4274 ,0.93839 ,2.67714 ,26.26807 
143 ,29.6357 ,0.94042 ,2.64292 ,25.93229 
144 ,29.8436 ,0.94259 ,2.63607 ,25.86514 
145 ,30.0518 ,0.94463 ,2.62238 ,25.73082 
146 ,30.2600 ,0.94668 ,2.60185 ,25.52935 
147 ,30.4521 ,0.94861 ,2.60527 ,25.56293 
148 ,30.6602 ,0.95075 ,2.55736 ,25.09283 
149 ,30.8683 ,0.95275 ,2.56421 ,25.15999 
150 ,31.0444 ,0.95468 ,2.52314 ,24.75705 
151 ,31.2363 ,0.95651 ,2.52314 ,24.75705 
152 ,31.4448 ,0.95852 ,2.49918 ,24.52200 
153 ,31.6366 ,0.96049 ,2.48550 ,24.38769 
154 ,31.8607 ,0.96257 ,2.47865 ,24.32053 
155 ,32.0683 ,0.96492 ,2.44785 ,24.01833 
156 ,32.2769 ,0.96686 ,2.44443 ,23.98475 
157 ,32.4850 ,0.96898 ,2.41363 ,23.68255 
158 ,32.6929 ,0.97099 ,2.41021 ,23.64897 
159 ,32.9011 ,0.97305 ,2.38625 ,23.41392 
160 ,33.1091 ,0.97521 ,2.37599 ,23.31318 
161 ,33.3172 ,0.97725 ,2.34177 ,22.97740 
162 ,33.5411 ,0.97948 ,2.32465 ,22.80951 
163 ,33.7335 ,0.98158 ,2.31781 ,22.74235 
164 ,33.9411 ,0.98346 ,2.29728 ,22.54088 
165 ,34.1336 ,0.98542 ,2.29728 ,22.54088 
166 ,34.3254 ,0.98736 ,2.26306 ,22.20510 
167 ,34.5338 ,0.98943 ,2.25279 ,22.10437 
168 ,34.7575 ,0.99166 ,2.22541 ,21.83574 
169 ,34.9495 ,0.99360 ,2.22199 ,21.80216 
170 ,35.1576 ,0.99563 ,2.19461 ,21.53353 
171 ,35.3655 ,0.99774 ,2.17408 ,21.33206 
172 ,35.5741 ,0.99981 ,2.18435 ,21.43280 
173 ,35.7981 ,1.00207 ,2.15012 ,21.09702 
174 ,35.9905 ,1.00399 ,2.15012 ,21.09702 
175 ,36.1984 ,1.00611 ,2.11932 ,20.79481 
176 ,36.3906 ,1.00803 ,2.10906 ,20.69408 
177 ,36.6147 ,1.01025 ,2.07826 ,20.39187 
178 ,36.8386 ,1.01248 ,2.05773 ,20.19040 
179 ,37.0306 ,1.01442 ,2.06115 ,20.22398 
180 ,37.2388 ,1.01647 ,2.04404 ,20.05609 
181 ,37.4628 ,1.01866 ,2.01666 ,19.78746 
182 ,37.6549 ,1.02065 ,2.02008 ,19.82104 
183 ,37.8473 ,1.02256 ,1.99613 ,19.58599 
184 ,38.0551 ,1.02456 ,1.96533 ,19.28379 
185 ,38.2471 ,1.02660 ,1.95164 ,19.14948 
186 ,38.4394 ,1.02848 ,1.94822 ,19.11590 
187 ,38.6470 ,1.03052 ,1.93111 ,18.94801 
188 ,38.8555 ,1.03266 ,1.92084 ,18.84727 
189 ,39.0636 ,1.03473 ,1.87635 ,18.41075 
190 ,39.2717 ,1.03685 ,1.89004 ,18.54507 
191 ,39.4957 ,1.03903 ,1.86951 ,18.34360 
192 ,39.7037 ,1.04109 ,1.85240 ,18.17570 
193 ,39.9279 ,1.04339 ,1.83186 ,17.97423 
194 ,40.1361 ,1.04543 ,1.82844 ,17.94066 
195 ,40.3281 ,1.04737 ,1.80106 ,17.67203 
196 ,40.5525 ,1.04959 ,1.79422 ,17.60487 
197 ,40.7763 ,1.05179 ,1.77711 ,17.43698 
198 ,40.9844 ,1.05390 ,1.74631 ,17.13478 
199 ,41.1764 ,1.05584 ,1.73604 ,17.03404 
200 ,41.3685 ,1.05778 ,1.70524 ,16.73184 
201 ,41.5767 ,1.05980 ,1.71209 ,16.79899 
202 ,41.7847 ,1.06193 ,1.68813 ,16.56395 
203 ,41.9764 ,1.06383 ,1.69840 ,16.66468 
204 ,42.1847 ,1.06593 ,1.66418 ,16.32890 
205 ,42.4248 ,1.06836 ,1.64364 ,16.12743 
206 ,42.6489 ,1.07055 ,1.64364 ,16.12743 
207 ,42.8412 ,1.07251 ,1.60600 ,15.75807 
208 ,43.0493 ,1.07452 ,1.60942 ,15.79164 
209 ,43.2734 ,1.07681 ,1.60258 ,15.72449 
210 ,43.4814 ,1.07896 ,1.57520 ,15.45586 
211 ,43.6894 ,1.08095 ,1.55809 ,15.28797 
212 ,43.8975 ,1.08299 ,1.53756 ,15.08650 
213 ,44.1214 ,1.08522 ,1.50676 ,14.78430 
214 ,44.3137 ,1.08726 ,1.51018 ,14.81787 
215 ,44.5058 ,1.08913 ,1.49307 ,14.64998 
216 ,44.7139 ,1.09120 ,1.49307 ,14.64998 
217 ,44.9377 ,1.09343 ,1.46569 ,14.38136 
218 ,45.1298 ,1.09550 ,1.44858 ,14.21346 
219 ,45.3217 ,1.09731 ,1.44516 ,14.17989 
220 ,45.5304 ,1.09938 ,1.43147 ,14.04557 
221 ,45.7221 ,1.10140 ,1.42120 ,13.94484 
222 ,45.9145 ,1.10324 ,1.41778 ,13.91126 
223 ,46.1225 ,1.10529 ,1.36987 ,13.44116 
224 ,46.3467 ,1.10747 ,1.37329 ,13.47474 
225 ,46.5547 ,1.10955 ,1.36645 ,13.40759 
226 ,46.7468 ,1.11162 ,1.34249 ,13.17254 
227 ,46.9388 ,1.11344 ,1.33223 ,13.07180 
228 ,47.1629 ,1.11563 ,1.29800 ,12.73602 
229 ,47.3550 ,1.11765 ,1.30827 ,12.83675 
230 ,47.5626 ,1.11964 ,1.27063 ,12.46739 
231 ,47.7549 ,1.12163 ,1.28089 ,12.56813 
232 ,47.9629 ,1.12366 ,1.23641 ,12.13161 
233 ,48.1713 ,1.12580 ,1.26036 ,12.36666 
234 ,48.3955 ,1.12799 ,1.23641 ,12.13161 
235 ,48.6030 ,1.13003 ,1.20561 ,11.82941 
236 ,48.8116 ,1.13214 ,1.21587 ,11.93014 
237 ,49.0197 ,1.13423 ,1.18850 ,11.66151 
238 ,49.2118 ,1.13622 ,1.18507 ,11.62794 
239 ,49.4198 ,1.13821 ,1.15085 ,11.29215 
240 ,49.6280 ,1.14026 ,1.15085 ,11.29215 
241 ,49.8361 ,1.14237 ,1.14401 ,11.22500 
242 ,50.0601 ,1.14457 ,1.10294 ,10.82206 
243 ,50.3004 ,1.14692 ,1.10294 ,10.82206 
244 ,50.5083 ,1.14909 ,1.08925 ,10.68774 
245 ,50.7163 ,1.15116 ,1.08925 ,10.68774 
246 ,50.9084 ,1.15315 ,1.05503 ,10.35196 
247 ,51.1006 ,1.15501 ,1.03792 ,10.18407 
248 ,51.3085 ,1.15707 ,1.03450 ,10.15049 
249 ,51.5328 ,1.15935 ,1.04134 ,10.21765 
250 ,51.7409 ,1.16144 ,1.00028 ,9.81471 
251 ,51.9485 ,1.16354 ,0.99001 ,9.71397 
252 ,52.1411 ,1.16551 ,0.99001 ,9.71397 
253 ,52.3493 ,1.16752 ,0.97290 ,9.54608 
254 ,52.5569 ,1.16962 ,0.96263 ,9.44535 
255 ,52.7813 ,1.17183 ,0.93525 ,9.17672 
256 ,52.9892 ,1.17389 ,0.92499 ,9.07598 
257 ,53.2133 ,1.17606 ,0.91472 ,8.97525 
258 ,53.4535 ,1.17859 ,0.90788 ,8.90809 
259 ,53.6455 ,1.18050 ,0.88050 ,8.63947 
260 ,53.8537 ,1.18263 ,0.87708 ,8.60589 
261 ,54.0457 ,1.18450 ,0.84286 ,8.27011 
262 ,54.2537 ,1.18645 ,0.86681 ,8.50515 
263 ,54.4618 ,1.18861 ,0.83259 ,8.16937 
264 ,54.6699 ,1.19068 ,0.82917 ,8.13579 
265 ,54.8619 ,1.19260 ,0.81206 ,7.96790 
266 ,55.0703 ,1.19470 ,0.79495 ,7.80001 
267 ,55.2943 ,1.19690 ,0.79152 ,7.76643 
268 ,55.4864 ,1.19887 ,0.77441 ,7.59854 
269 ,55.6945 ,1.20095 ,0.76415 ,7.49780 
270 ,55.9184 ,1.20321 ,0.74361 ,7.29633 
271 ,56.1267 ,1.20527 ,0.73335 ,7.19560 
272 ,56.3183 ,1.20726 ,0.72992 ,7.16202 
273 ,56.5268 ,1.20923 ,0.69570 ,6.82624 
274 ,56.7510 ,1.21148 ,0.70597 ,6.92697 
275 ,56.9430 ,1.21350 ,0.66833 ,6.55761 
276 ,57.1352 ,1.21538 ,0.67859 ,6.65835 
277 ,57.3433 ,1.21738 ,0.65121 ,6.38972 
278 ,57.5514 ,1.21958 ,0.66490 ,6.52403 
279 ,57.7594 ,1.22164 ,0.64095 ,6.28899 
280 ,57.9673 ,1.22366 ,0.61357 ,6.02036 
281 ,58.1595 ,1.22563 ,0.59988 ,5.88605 
282 ,58.3675 ,1.22768 ,0.59646 ,5.85247 
283 ,58.5756 ,1.22980 ,0.59646 ,5.85247 
284 ,58.7674 ,1.23166 ,0.57593 ,5.65100 
285 ,58.9593 ,1.23357 ,0.56908 ,5.58384 
286 ,59.1519 ,1.23551 ,0.56566 ,5.55026 
287 ,59.3759 ,1.23770 ,0.54513 ,5.34879 
288 ,59.5676 ,1.23968 ,0.52459 ,5.14732 
289 ,59.7761 ,1.24174 ,0.52117 ,5.11375 
290 ,60.0002 ,1.24398 ,0.49380 ,4.84512 
291 ,60.2245 ,1.24624 ,0.48695 ,4.77796 
292 ,60.4164 ,1.24816 ,0.48695 ,4.77796 
293 ,60.6084 ,1.25007 ,0.47326 ,4.64365 
294 ,60.8164 ,1.25216 ,0.46300 ,4.54291 
295 ,61.0247 ,1.25424 ,0.43904 ,4.30787 
296 ,61.2166 ,1.25617 ,0.43904 ,4.30787 
297 ,61.4249 ,1.25821 ,0.41509 ,4.07282 
298 ,61.6329 ,1.26032 ,0.41851 ,4.10640 
299 ,61.8408 ,1.26245 ,0.39113 ,3.83777 
300 ,62.0331 ,1.26431 ,0.39797 ,3.90493 
301 ,62.2253 ,1.26625 ,0.37060 ,3.63630 
302 ,62.4334 ,1.26831 ,0.37744 ,3.70346 
303 ,62.6415 ,1.27041 ,0.34664 ,3.40125 
304 ,62.8335 ,1.27230 ,0.35691 ,3.50199 
305 ,63.0412 ,1.27444 ,0.32953 ,3.23336 
306 ,63.2495 ,1.27647 ,0.33638 ,3.30052 
307 ,63.4573 ,1.27854 ,0.31926 ,3.13263 
308 ,63.6496 ,1.28045 ,0.30215 ,2.96473 
309 ,63.8738 ,1.28266 ,0.29531 ,2.89758 
310 ,64.0657 ,1.28465 ,0.28162 ,2.76326 
311 ,64.2740 ,1.28675 ,0.27478 ,2.69611 
312 ,64.4982 ,1.28896 ,0.25767 ,2.52822 
313 ,64.7061 ,1.29104 ,0.22002 ,2.15885 
314 ,64.8981 ,1.29294 ,0.23029 ,2.25959 
315 ,65.0899 ,1.29485 ,0.22344 ,2.19243 
316 ,65.2985 ,1.29692 ,0.20976 ,2.05812 
317 ,65.5064 ,1.29913 ,0.19607 ,1.92381 
318 ,65.7146 ,1.30109 ,0.18580 ,1.82307 
319 ,65.9387 ,1.30322 ,0.17896 ,1.75592 
320 ,66.1467 ,1.30546 ,0.14473 ,1.42013 
321 ,66.3546 ,1.30749 ,0.15158 ,1.48729 
322 ,66.5629 ,1.30961 ,0.12420 ,1.21866 
323 ,66.7710 ,1.31167 ,0.13447 ,1.31940 
324 ,66.9629 ,1.31372 ,0.11051 ,1.08435 
325 ,67.1550 ,1.31553 ,0.10709 ,1.05077 
326 ,67.3468 ,1.31747 ,0.10025 ,0.98361 
327 ,67.5393 ,1.31935 ,0.08998 ,0.88288 
328 ,67.7314 ,1.32129 ,0.08314 ,0.81572 
329 ,67.9555 ,1.32349 ,0.06945 ,0.68141 
330 ,68.1635 ,1.32557 ,0.04207 ,0.41278 
331 ,68.3553 ,1.32761 ,0.04891 ,0.47994 
332 ,68.5637 ,1.32961 ,0.03180 ,0.31205 
333 ,68.7717 ,1.33171 ,0.03180 ,0.31205 
334 ,68.9639 ,1.33359 ,0.00100 ,0.00984 
335 ,69.1720 ,1.33563 ,0.01127 ,0.11058 
336 ,69.3960 ,1.33785 ,-0.01611 ,-0.15805 
337 ,69.5882 ,1.33986 ,-0.01611 ,-0.15805 
338 ,69.8120 ,1.34204 ,-0.03664 ,-0.35952 
339 ,70.0364 ,1.34427 ,-0.04691 ,-0.46025 
340 ,70.2445 ,1.34636 ,-0.06402 ,-0.62814 
341 ,70.4527 ,1.34846 ,-0.06402 ,-0.62814 
342 ,70.6440 ,1.35041 ,-0.09482 ,-0.93035 
343 ,70.8365 ,1.35232 ,-0.09482 ,-0.93035 
344 ,71.0288 ,1.35423 ,-0.09140 ,-0.89677 
345 ,71.2209 ,1.35623 ,-0.12562 ,-1.23255 
346 ,71.4289 ,1.35828 ,-0.11193 ,-1.09824 
347 ,71.6368 ,1.36026 ,-0.11877 ,-1.16540 
348 ,71.8451 ,1.36245 ,-0.13931 ,-1.36687 
349 ,72.0691 ,1.36459 ,-0.13588 ,-1.33329 
350 ,72.2613 ,1.36659 ,-0.16326 ,-1.60191 
351 ,72.4693 ,1.36865 ,-0.17011 ,-1.66907 
352 ,72.6774 ,1.37070 ,-0.18379 ,-1.80338 
353 ,72.8855 ,1.37284 ,-0.20775 ,-2.03843 
354 ,73.0777 ,1.37469 ,-0.19748 ,-1.93770 
355 ,73.2855 ,1.37679 ,-0.20775 ,-2.03843 
356 ,73.4938 ,1.37889 ,-0.21117 ,-2.07201 
357 ,73.7021 ,1.38093 ,-0.24197 ,-2.37422 
358 ,73.8935 ,1.38297 ,-0.24197 ,-2.37422 
359 ,74.1021 ,1.38498 ,-0.26250 ,-2.57569 
360 ,74.3102 ,1.38707 ,-0.24881 ,-2.44137 
361 ,74.5182 ,1.38907 ,-0.27961 ,-2.74358 
362 ,74.7425 ,1.39135 ,-0.30015 ,-2.94505 
363 ,74.9506 ,1.39339 ,-0.27619 ,-2.71000 
364 ,75.1904 ,1.39571 ,-0.30015 ,-2.94505 
365 ,75.3985 ,1.39794 ,-0.32410 ,-3.18010 
366 ,75.6387 ,1.40035 ,-0.33437 ,-3.28083 
367 ,75.8468 ,1.40233 ,-0.33437 ,-3.28083 
368 ,76.0388 ,1.40437 ,-0.34806 ,-3.41514 
369 ,76.2310 ,1.40631 ,-0.35832 ,-3.51588 
370 ,76.4232 ,1.40819 ,-0.37544 ,-3.68377 
371 ,76.6632 ,1.41042 ,-0.35832 ,-3.51588 
372 ,76.8713 ,1.41262 ,-0.37201 ,-3.65019 
373 ,77.0793 ,1.41467 ,-0.39939 ,-3.91882 
374 ,77.2869 ,1.41680 ,-0.40623 ,-3.98597 
375 ,77.4795 ,1.41877 ,-0.41650 ,-4.08671 
376 ,77.6716 ,1.42069 ,-0.41308 ,-4.05313 
377 ,77.8796 ,1.42269 ,-0.43019 ,-4.22102 
378 ,78.0717 ,1.42473 ,-0.44046 ,-4.32176 
379 ,78.2797 ,1.42667 ,-0.47468 ,-4.65754 
380 ,78.4878 ,1.42884 ,-0.45414 ,-4.45607 
381 ,78.6958 ,1.43093 ,-0.47810 ,-4.69112 
382 ,78.9197 ,1.43311 ,-0.49521 ,-4.85901 
383 ,79.1117 ,1.43517 ,-0.48837 ,-4.79185 
384 ,79.3038 ,1.43698 ,-0.51232 ,-5.02690 
385 ,79.4958 ,1.43891 ,-0.50548 ,-4.95975 
386 ,79.7040 ,1.44090 ,-0.51917 ,-5.09406 
387 ,79.9124 ,1.44304 ,-0.51574 ,-5.06048 
388 ,80.1365 ,1.44521 ,-0.54654 ,-5.36268 
389 ,80.3286 ,1.44722 ,-0.54654 ,-5.36268 
390 ,80.5205 ,1.44909 ,-0.57392 ,-5.63131 
391 ,80.7287 ,1.45124 ,-0.54997 ,-5.39626 
392 ,80.9370 ,1.45331 ,-0.56708 ,-5.56415 
393 ,81.1450 ,1.45531 ,-0.58761 ,-5.76562 
394 ,81.3532 ,1.45744 ,-0.59103 ,-5.79920 
395 ,81.5612 ,1.45957 ,-0.61499 ,-6.03425 
396 ,81.7691 ,1.46154 ,-0.60472 ,-5.93352 
397 ,81.9774 ,1.46369 ,-0.62525 ,-6.13499 
398 ,82.1851 ,1.46579 ,-0.63210 ,-6.20214 
399 ,82.3775 ,1.46769 ,-0.63552 ,-6.23572 
400 ,82.5856 ,1.46977 ,-0.65263 ,-6.40361 
401 ,82.7933 ,1.47191 ,-0.64921 ,-6.37003 
402 ,83.0018 ,1.47387 ,-0.67316 ,-6.60508 
403 ,83.2258 ,1.47613 ,-0.66632 ,-6.53793 
404 ,83.4176 ,1.47812 ,-0.68343 ,-6.70582 
405 ,83.6101 ,1.48000 ,-0.69027 ,-6.77297 
406 ,83.8341 ,1.48223 ,-0.70054 ,-6.87371 
407 ,84.0419 ,1.48430 ,-0.72450 ,-7.10876 
408 ,84.2503 ,1.48639 ,-0.71081 ,-6.97444 
409 ,84.4583 ,1.48843 ,-0.73476 ,-7.20949 
410 ,84.6664 ,1.49057 ,-0.74503 ,-7.31023 
411 ,84.8745 ,1.49262 ,-0.74503 ,-7.31023 
412 ,85.0826 ,1.49469 ,-0.76898 ,-7.54527 
413 ,85.2747 ,1.49666 ,-0.75530 ,-7.41096 
414 ,85.4668 ,1.49859 ,-0.77925 ,-7.64601 
415 ,85.6748 ,1.50061 ,-0.77925 ,-7.64601 
416 ,85.8827 ,1.50273 ,-0.79294 ,-7.78032 
417 ,86.0905 ,1.50477 ,-0.79636 ,-7.81390 
418 ,86.2989 ,1.50682 ,-0.81347 ,-7.98179 
419 ,86.5553 ,1.50924 ,-0.82716 ,-8.11611 
420 ,86.7631 ,1.51151 ,-0.83401 ,-8.18326 
421 ,86.9553 ,1.51344 ,-0.84085 ,-8.25042 
422 ,87.1472 ,1.51539 ,-0.84427 ,-8.28400 
423 ,87.3713 ,1.51761 ,-0.84427 ,-8.28400 
424 ,87.5956 ,1.51982 ,-0.86823 ,-8.51904 
425 ,87.7876 ,1.52179 ,-0.86138 ,-8.45189 
426 ,87.9957 ,1.52387 ,-0.87507 ,-8.58620 
427 ,88.1878 ,1.52577 ,-0.87849 ,-8.61978 
428 ,88.3959 ,1.52780 ,-0.90587 ,-8.88841 
429 ,88.5879 ,1.52978 ,-0.90587 ,-8.88841 
430 ,88.7798 ,1.53172 ,-0.92298 ,-9.05630 
431 ,88.9718 ,1.53364 ,-0.91614 ,-8.98914 
432 ,89.1801 ,1.53561 ,-0.94351 ,-9.25777 
433 ,89.3879 ,1.53779 ,-0.92298 ,-9.05630 
434 ,89.5965 ,1.53982 ,-0.95036 ,-9.32492 
435 ,89.8206 ,1.54202 ,-0.96405 ,-9.45924 
436 ,90.0285 ,1.54413 ,-0.95720 ,-9.39208 
437 ,90.2685 ,1.54644 ,-0.96405 ,-9.45924 
438 ,90.4768 ,1.54865 ,-0.97774 ,-9.59355 
439 ,90.7009 ,1.55085 ,-0.99827 ,-9.79502 
440 ,90.9250 ,1.55305 ,-1.00511 ,-9.86218 
441 ,91.1330 ,1.55521 ,-1.00511 ,-9.86218 
442 ,91.3250 ,1.55711 ,-1.03249 ,-10.13080 
443 ,91.5332 ,1.55919 ,-0.99827 ,-9.79502 
444 ,91.7253 ,1.56113 ,-1.04618 ,-10.26512 
445 ,91.9331 ,1.56314 ,-1.03591 ,-10.16438 
446 ,92.1251 ,1.56523 ,-1.05645 ,-10.36585 
447 ,92.3495 ,1.56735 ,-1.04960 ,-10.29869 
448 ,92.5571 ,1.56957 ,-1.07014 ,-10.50016 
449 ,92.7811 ,1.57160 ,-1.09067 ,-10.70163 
450 ,93.0212 ,1.57397 ,-1.07698 ,-10.56732 
451 ,93.2297 ,1.57622 ,-1.09067 ,-10.70163 
452 ,93.4700 ,1.57859 ,-1.09751 ,-10.76879 
453 ,93.6940 ,1.58079 ,-1.09751 ,-10.76879 
454 ,93.8857 ,1.58272 ,-1.12147 ,-11.00384 
455 ,94.0942 ,1.58480 ,-1.12147 ,-11.00384 
456 ,94.3181 ,1.58702 ,-1.13516 ,-11.13815 
457 ,94.5103 ,1.58901 ,-1.13858 ,-11.17173 
458 ,94.7185 ,1.59107 ,-1.14542 ,-11.23889 
459 ,94.9265 ,1.59309 ,-1.16253 ,-11.40678 
460 ,95.1506 ,1.59541 ,-1.16938 ,-11.47394 
461 ,95.3586 ,1.59745 ,-1.17622 ,-11.54109 
