Data stamp = , 05-05-2022 13:22:44 313

Calibration Values: 
Slope = , 26.54 , g/V 
Offset Voltage at no contact = , -0.501760 , V 

No , Time , Stage Position ,   Mass , Force 
   ,  (s) ,      (mm)      ,   (g)  , (mN)  

1 ,0.0000 ,0.64955 ,5.13083 ,50.34372 
2 ,0.2176 ,0.64960 ,5.12741 ,50.31014 
3 ,0.7938 ,0.65199 ,5.14110 ,50.44445 
4 ,1.0178 ,0.65443 ,5.12399 ,50.27656 
5 ,1.2261 ,0.65656 ,5.12399 ,50.27656 
6 ,1.5144 ,0.65933 ,5.13083 ,50.34372 
7 ,1.7225 ,0.66157 ,5.11372 ,50.17583 
8 ,1.9143 ,0.66346 ,5.12056 ,50.24298 
9 ,2.1230 ,0.66548 ,5.08634 ,49.90720 
10 ,2.3310 ,0.66766 ,5.08977 ,49.94078 
11 ,2.5551 ,0.66982 ,5.05212 ,49.57142 
12 ,2.7634 ,0.67196 ,5.02817 ,49.33637 
13 ,2.9870 ,0.67411 ,5.01790 ,49.23563 
14 ,3.1953 ,0.67623 ,4.99052 ,48.96701 
15 ,3.4034 ,0.67836 ,4.97341 ,48.79911 
16 ,3.6275 ,0.68053 ,4.95972 ,48.66480 
17 ,3.8354 ,0.68259 ,4.92550 ,48.32902 
18 ,4.0274 ,0.68456 ,4.90839 ,48.16113 
19 ,4.2357 ,0.68661 ,4.89470 ,48.02681 
20 ,4.4278 ,0.68859 ,4.88444 ,47.92608 
21 ,4.6359 ,0.69059 ,4.85021 ,47.59030 
22 ,4.8280 ,0.69257 ,4.83995 ,47.48956 
23 ,5.0361 ,0.69461 ,4.81257 ,47.22093 
24 ,5.2436 ,0.69677 ,4.79546 ,47.05304 
25 ,5.4522 ,0.69883 ,4.78861 ,46.98589 
26 ,5.6604 ,0.70092 ,4.75097 ,46.61653 
27 ,5.8683 ,0.70292 ,4.75097 ,46.61653 
28 ,6.0763 ,0.70509 ,4.71333 ,46.24716 
29 ,6.2845 ,0.70703 ,4.69964 ,46.11285 
30 ,6.4925 ,0.70923 ,4.67911 ,45.91138 
31 ,6.7006 ,0.71130 ,4.64831 ,45.60918 
32 ,6.9086 ,0.71333 ,4.64488 ,45.57560 
33 ,7.1165 ,0.71546 ,4.62093 ,45.34055 
34 ,7.3088 ,0.71735 ,4.61066 ,45.23981 
35 ,7.4845 ,0.71923 ,4.58328 ,44.97119 
36 ,7.6768 ,0.72105 ,4.56617 ,44.80330 
37 ,7.8847 ,0.72309 ,4.53537 ,44.50109 
38 ,8.0928 ,0.72525 ,4.53880 ,44.53467 
39 ,8.3010 ,0.72726 ,4.50115 ,44.16531 
40 ,8.4933 ,0.72923 ,4.49431 ,44.09815 
41 ,8.7015 ,0.73128 ,4.46009 ,43.76237 
42 ,8.9256 ,0.73349 ,4.44640 ,43.62806 
43 ,9.1337 ,0.73557 ,4.43955 ,43.56090 
44 ,9.3418 ,0.73771 ,4.41218 ,43.29227 
45 ,9.5657 ,0.73987 ,4.40191 ,43.19154 
46 ,9.7577 ,0.74185 ,4.37453 ,42.92291 
47 ,9.9658 ,0.74391 ,4.36084 ,42.78860 
48 ,10.1740 ,0.74598 ,4.33689 ,42.55355 
49 ,10.3820 ,0.74803 ,4.31978 ,42.38566 
50 ,10.5900 ,0.75020 ,4.31293 ,42.31850 
51 ,10.7818 ,0.75217 ,4.27529 ,41.94914 
52 ,10.9905 ,0.75412 ,4.27529 ,41.94914 
53 ,11.1985 ,0.75625 ,4.23080 ,41.51262 
54 ,11.4062 ,0.75838 ,4.23422 ,41.54620 
55 ,11.6307 ,0.76051 ,4.21369 ,41.34473 
56 ,11.8383 ,0.76259 ,4.17947 ,41.00895 
57 ,12.0469 ,0.76471 ,4.18289 ,41.04253 
58 ,12.2867 ,0.76713 ,4.15209 ,40.74032 
59 ,12.5110 ,0.76933 ,4.13498 ,40.57243 
60 ,12.7189 ,0.77137 ,4.10760 ,40.30380 
61 ,12.9112 ,0.77335 ,4.09734 ,40.20307 
62 ,13.1028 ,0.77543 ,4.07338 ,39.96802 
63 ,13.2955 ,0.77726 ,4.05969 ,39.83371 
64 ,13.5035 ,0.77927 ,4.03574 ,39.59866 
65 ,13.6955 ,0.78126 ,4.01520 ,39.39719 
66 ,13.9035 ,0.78326 ,4.00494 ,39.29646 
67 ,14.0952 ,0.78523 ,3.97756 ,39.02783 
68 ,14.2878 ,0.78715 ,3.98098 ,39.06141 
69 ,14.5116 ,0.78931 ,3.95703 ,38.82636 
70 ,14.7040 ,0.79131 ,3.92281 ,38.49058 
71 ,14.9279 ,0.79349 ,3.91596 ,38.42342 
72 ,15.1199 ,0.79545 ,3.88174 ,38.08764 
73 ,15.3279 ,0.79759 ,3.88858 ,38.15479 
74 ,15.5359 ,0.79957 ,3.85436 ,37.81901 
75 ,15.7440 ,0.80163 ,3.84067 ,37.68470 
76 ,15.9521 ,0.80374 ,3.80987 ,37.38249 
77 ,16.1444 ,0.80566 ,3.79619 ,37.24818 
78 ,16.3527 ,0.80782 ,3.78250 ,37.11387 
79 ,16.5446 ,0.80972 ,3.75512 ,36.84524 
80 ,16.7526 ,0.81171 ,3.73801 ,36.67735 
81 ,16.9769 ,0.81397 ,3.71405 ,36.44230 
82 ,17.1687 ,0.81593 ,3.71063 ,36.40872 
83 ,17.3767 ,0.81799 ,3.67983 ,36.10652 
84 ,17.5849 ,0.82005 ,3.65930 ,35.90505 
85 ,17.7931 ,0.82216 ,3.64903 ,35.80431 
86 ,17.9854 ,0.82412 ,3.64219 ,35.73716 
87 ,18.1934 ,0.82617 ,3.60454 ,35.36779 
88 ,18.4014 ,0.82821 ,3.59086 ,35.23348 
89 ,18.6255 ,0.83040 ,3.59428 ,35.26706 
90 ,18.8335 ,0.83259 ,3.54979 ,34.83054 
91 ,19.0257 ,0.83448 ,3.54295 ,34.76338 
92 ,19.2496 ,0.83667 ,3.52241 ,34.56192 
93 ,19.4419 ,0.83872 ,3.48819 ,34.22613 
94 ,19.6336 ,0.84065 ,3.48135 ,34.15898 
95 ,19.8260 ,0.84253 ,3.46766 ,34.02466 
96 ,20.0179 ,0.84441 ,3.43686 ,33.72246 
97 ,20.2260 ,0.84653 ,3.44028 ,33.75604 
98 ,20.4180 ,0.84840 ,3.39921 ,33.35310 
99 ,20.6264 ,0.85045 ,3.39237 ,33.28594 
100 ,20.8344 ,0.85260 ,3.35473 ,32.91658 
101 ,21.0262 ,0.85448 ,3.35815 ,32.95016 
102 ,21.2185 ,0.85642 ,3.34446 ,32.81584 
103 ,21.4265 ,0.85843 ,3.33419 ,32.71511 
104 ,21.6348 ,0.86053 ,3.29313 ,32.31217 
105 ,21.8587 ,0.86276 ,3.28286 ,32.21143 
106 ,22.0830 ,0.86499 ,3.27259 ,32.11070 
107 ,22.2910 ,0.86707 ,3.23495 ,31.74134 
108 ,22.4991 ,0.86920 ,3.22126 ,31.60702 
109 ,22.7070 ,0.87127 ,3.21784 ,31.57345 
110 ,22.8828 ,0.87316 ,3.18704 ,31.27124 
111 ,23.0911 ,0.87507 ,3.16993 ,31.10335 
112 ,23.2994 ,0.87720 ,3.14597 ,30.86830 
113 ,23.4912 ,0.87914 ,3.14597 ,30.86830 
114 ,23.6996 ,0.88118 ,3.13229 ,30.73399 
115 ,23.8915 ,0.88316 ,3.10833 ,30.49894 
116 ,24.0997 ,0.88519 ,3.09122 ,30.33105 
117 ,24.3079 ,0.88727 ,3.07753 ,30.19674 
118 ,24.4999 ,0.88923 ,3.06042 ,30.02884 
119 ,24.6921 ,0.89111 ,3.04673 ,29.89453 
120 ,24.9002 ,0.89320 ,3.02278 ,29.65948 
121 ,25.0918 ,0.89510 ,3.00224 ,29.45801 
122 ,25.3003 ,0.89724 ,2.98855 ,29.32370 
123 ,25.5404 ,0.89944 ,2.98171 ,29.25654 
124 ,25.7482 ,0.90161 ,2.96460 ,29.08865 
125 ,25.9566 ,0.90379 ,2.94407 ,28.88718 
126 ,26.1643 ,0.90580 ,2.92696 ,28.71929 
127 ,26.3727 ,0.90790 ,2.88931 ,28.34993 
128 ,26.5964 ,0.91011 ,2.86878 ,28.14846 
129 ,26.7889 ,0.91208 ,2.87562 ,28.21562 
130 ,26.9968 ,0.91421 ,2.84482 ,27.91341 
131 ,27.1891 ,0.91607 ,2.84140 ,27.87983 
132 ,27.3968 ,0.91819 ,2.81060 ,27.57763 
133 ,27.6052 ,0.92024 ,2.80376 ,27.51047 
134 ,27.7972 ,0.92220 ,2.78322 ,27.30900 
135 ,28.0054 ,0.92424 ,2.79007 ,27.37616 
136 ,28.2136 ,0.92631 ,2.73531 ,26.83891 
137 ,28.4052 ,0.92829 ,2.74900 ,26.97322 
138 ,28.6138 ,0.93034 ,2.70452 ,26.53670 
139 ,28.8378 ,0.93253 ,2.70452 ,26.53670 
140 ,29.0458 ,0.93458 ,2.69425 ,26.43597 
141 ,29.2380 ,0.93657 ,2.66345 ,26.13376 
142 ,29.4461 ,0.93862 ,2.67029 ,26.20092 
143 ,29.6379 ,0.94066 ,2.64292 ,25.93229 
144 ,29.8301 ,0.94248 ,2.62923 ,25.79798 
145 ,30.0060 ,0.94438 ,2.62238 ,25.73082 
146 ,30.1983 ,0.94619 ,2.59158 ,25.42862 
147 ,30.3904 ,0.94810 ,2.57789 ,25.29430 
148 ,30.5826 ,0.95001 ,2.57789 ,25.29430 
149 ,30.8225 ,0.95231 ,2.55052 ,25.02568 
150 ,31.0307 ,0.95454 ,2.52656 ,24.79063 
151 ,31.2388 ,0.95661 ,2.52656 ,24.79063 
152 ,31.4469 ,0.95866 ,2.50261 ,24.55558 
153 ,31.6551 ,0.96078 ,2.47181 ,24.25338 
154 ,31.8630 ,0.96277 ,2.47865 ,24.32053 
155 ,32.0551 ,0.96477 ,2.42732 ,23.81686 
156 ,32.2473 ,0.96667 ,2.44101 ,23.95117 
157 ,32.4553 ,0.96868 ,2.41705 ,23.71612 
158 ,32.6474 ,0.97066 ,2.39994 ,23.54823 
159 ,32.8391 ,0.97266 ,2.38968 ,23.44750 
160 ,33.0476 ,0.97467 ,2.37256 ,23.27961 
161 ,33.2553 ,0.97669 ,2.35888 ,23.14529 
162 ,33.4477 ,0.97869 ,2.34519 ,23.01098 
163 ,33.6558 ,0.98070 ,2.32465 ,22.80951 
164 ,33.8477 ,0.98267 ,2.29728 ,22.54088 
165 ,34.0717 ,0.98472 ,2.29043 ,22.47373 
166 ,34.2801 ,0.98693 ,2.28701 ,22.44015 
167 ,34.4881 ,0.98897 ,2.23910 ,21.97005 
168 ,34.7121 ,0.99128 ,2.23568 ,21.93647 
169 ,34.9204 ,0.99337 ,2.23568 ,21.93647 
170 ,35.1445 ,0.99557 ,2.20488 ,21.63427 
171 ,35.3525 ,0.99773 ,2.17750 ,21.36564 
172 ,35.5445 ,0.99959 ,2.18435 ,21.43280 
173 ,35.7527 ,1.00166 ,2.15012 ,21.09702 
174 ,35.9447 ,1.00361 ,2.14670 ,21.06344 
175 ,36.1366 ,1.00554 ,2.13301 ,20.92912 
176 ,36.3447 ,1.00762 ,2.10564 ,20.66050 
177 ,36.5690 ,1.00978 ,2.08852 ,20.49261 
178 ,36.7931 ,1.01208 ,2.06457 ,20.25756 
179 ,36.9849 ,1.01401 ,2.05773 ,20.19040 
180 ,37.1933 ,1.01611 ,2.03719 ,19.98893 
181 ,37.4010 ,1.01816 ,2.02008 ,19.82104 
182 ,37.5935 ,1.02013 ,2.01324 ,19.75388 
183 ,37.7852 ,1.02213 ,2.00982 ,19.72031 
184 ,37.9936 ,1.02409 ,1.97559 ,19.38452 
185 ,38.2018 ,1.02624 ,1.97559 ,19.38452 
186 ,38.4094 ,1.02819 ,1.95848 ,19.21663 
187 ,38.6178 ,1.03030 ,1.94137 ,19.04874 
188 ,38.8419 ,1.03255 ,1.90715 ,18.71296 
189 ,39.0338 ,1.03447 ,1.91742 ,18.81369 
190 ,39.2582 ,1.03672 ,1.90373 ,18.67938 
191 ,39.4659 ,1.03884 ,1.87635 ,18.41075 
192 ,39.6742 ,1.04091 ,1.86266 ,18.27644 
193 ,39.8825 ,1.04295 ,1.85240 ,18.17570 
194 ,40.0903 ,1.04508 ,1.82844 ,17.94066 
195 ,40.2987 ,1.04709 ,1.83186 ,17.97423 
196 ,40.5227 ,1.04924 ,1.79080 ,17.57129 
197 ,40.7466 ,1.05160 ,1.77026 ,17.36983 
198 ,40.9549 ,1.05374 ,1.77026 ,17.36983 
199 ,41.1790 ,1.05591 ,1.76000 ,17.26909 
200 ,41.3869 ,1.05798 ,1.72578 ,16.93331 
201 ,41.6111 ,1.06021 ,1.72578 ,16.93331 
202 ,41.8191 ,1.06238 ,1.70524 ,16.73184 
203 ,42.0432 ,1.06458 ,1.68129 ,16.49679 
204 ,42.2515 ,1.06664 ,1.67786 ,16.46321 
205 ,42.4596 ,1.06869 ,1.67102 ,16.39605 
206 ,42.6675 ,1.07078 ,1.63680 ,16.06027 
207 ,42.8752 ,1.07291 ,1.63338 ,16.02669 
208 ,43.0676 ,1.07482 ,1.60258 ,15.72449 
209 ,43.2919 ,1.07703 ,1.60258 ,15.72449 
210 ,43.4998 ,1.07913 ,1.59231 ,15.62375 
211 ,43.6920 ,1.08110 ,1.55809 ,15.28797 
212 ,43.8842 ,1.08299 ,1.54440 ,15.15366 
213 ,44.0922 ,1.08512 ,1.54098 ,15.12008 
214 ,44.3323 ,1.08732 ,1.53413 ,15.05292 
215 ,44.5725 ,1.08967 ,1.50676 ,14.78430 
216 ,44.7966 ,1.09212 ,1.49649 ,14.68356 
217 ,45.0042 ,1.09416 ,1.45542 ,14.28062 
218 ,45.2127 ,1.09624 ,1.45885 ,14.31420 
219 ,45.4207 ,1.09836 ,1.45200 ,14.24704 
220 ,45.6286 ,1.10041 ,1.43147 ,14.04557 
221 ,45.8530 ,1.10251 ,1.42462 ,13.97842 
222 ,46.0606 ,1.10470 ,1.39383 ,13.67621 
223 ,46.2690 ,1.10677 ,1.39383 ,13.67621 
224 ,46.4769 ,1.10888 ,1.39383 ,13.67621 
225 ,46.6692 ,1.11085 ,1.36303 ,13.37401 
226 ,46.8772 ,1.11286 ,1.36303 ,13.37401 
227 ,47.1015 ,1.11509 ,1.31512 ,12.90391 
228 ,47.3096 ,1.11723 ,1.32196 ,12.97107 
229 ,47.5175 ,1.11934 ,1.31512 ,12.90391 
230 ,47.7259 ,1.12140 ,1.28432 ,12.60171 
231 ,47.9335 ,1.12348 ,1.28089 ,12.56813 
232 ,48.1420 ,1.12554 ,1.26036 ,12.36666 
233 ,48.3496 ,1.12757 ,1.25009 ,12.26592 
234 ,48.5580 ,1.12969 ,1.24325 ,12.19877 
235 ,48.7661 ,1.13176 ,1.22956 ,12.06445 
236 ,48.9741 ,1.13380 ,1.19876 ,11.76225 
237 ,49.1824 ,1.13593 ,1.18165 ,11.59436 
238 ,49.3907 ,1.13797 ,1.19192 ,11.69509 
239 ,49.5985 ,1.14010 ,1.15770 ,11.35931 
240 ,49.8065 ,1.14218 ,1.14743 ,11.25857 
241 ,50.0147 ,1.14425 ,1.13374 ,11.12426 
242 ,50.2228 ,1.14638 ,1.10636 ,10.85563 
243 ,50.4309 ,1.14835 ,1.12347 ,11.02353 
244 ,50.6226 ,1.15043 ,1.09610 ,10.75490 
245 ,50.8150 ,1.15227 ,1.09610 ,10.75490 
246 ,51.0232 ,1.15438 ,1.06187 ,10.41912 
247 ,51.2312 ,1.15640 ,1.06187 ,10.41912 
248 ,51.4394 ,1.15849 ,1.04134 ,10.21765 
249 ,51.6472 ,1.16059 ,1.03792 ,10.18407 
250 ,51.8712 ,1.16271 ,0.99685 ,9.78113 
251 ,52.0794 ,1.16492 ,0.99001 ,9.71397 
252 ,52.2717 ,1.16682 ,1.01054 ,9.91544 
253 ,52.4794 ,1.16895 ,0.97290 ,9.54608 
254 ,52.6718 ,1.17080 ,0.97632 ,9.57966 
255 ,52.8799 ,1.17291 ,0.94894 ,9.31103 
256 ,53.0720 ,1.17485 ,0.95921 ,9.41177 
257 ,53.2800 ,1.17685 ,0.92157 ,9.04241 
258 ,53.4718 ,1.17880 ,0.92157 ,9.04241 
259 ,53.6644 ,1.18077 ,0.89419 ,8.77378 
260 ,53.8719 ,1.18286 ,0.90103 ,8.84094 
261 ,54.0804 ,1.18492 ,0.86339 ,8.47158 
262 ,54.2885 ,1.18695 ,0.87023 ,8.53873 
263 ,54.4800 ,1.18905 ,0.83943 ,8.23653 
264 ,54.6725 ,1.19084 ,0.84628 ,8.30368 
265 ,54.8968 ,1.19304 ,0.81890 ,8.03506 
266 ,55.1047 ,1.19514 ,0.81890 ,8.03506 
267 ,55.3130 ,1.19713 ,0.79152 ,7.76643 
268 ,55.5047 ,1.19923 ,0.77441 ,7.59854 
269 ,55.6966 ,1.20107 ,0.76757 ,7.53138 
270 ,55.9210 ,1.20327 ,0.74704 ,7.32991 
271 ,56.1288 ,1.20533 ,0.75388 ,7.39707 
272 ,56.3210 ,1.20735 ,0.72650 ,7.12844 
273 ,56.5134 ,1.20925 ,0.75046 ,7.36349 
274 ,56.7215 ,1.21130 ,0.71281 ,6.99413 
275 ,56.9456 ,1.21347 ,0.69913 ,6.85982 
276 ,57.1376 ,1.21549 ,0.67859 ,6.65835 
277 ,57.3456 ,1.21754 ,0.68886 ,6.75908 
278 ,57.5539 ,1.21967 ,0.65806 ,6.45688 
279 ,57.7622 ,1.22175 ,0.64437 ,6.32256 
280 ,57.9700 ,1.22381 ,0.65121 ,6.38972 
281 ,58.1781 ,1.22580 ,0.61357 ,6.02036 
282 ,58.3862 ,1.22798 ,0.61357 ,6.02036 
283 ,58.5785 ,1.22984 ,0.58619 ,5.75173 
284 ,58.8022 ,1.23209 ,0.59988 ,5.88605 
285 ,59.0102 ,1.23416 ,0.56908 ,5.58384 
286 ,59.2186 ,1.23623 ,0.54171 ,5.31522 
287 ,59.4261 ,1.23828 ,0.56908 ,5.58384 
288 ,59.6188 ,1.24026 ,0.54171 ,5.31522 
289 ,59.8267 ,1.24227 ,0.53828 ,5.28164 
290 ,60.0510 ,1.24455 ,0.51091 ,5.01301 
291 ,60.2590 ,1.24662 ,0.49037 ,4.81154 
292 ,60.4668 ,1.24875 ,0.50406 ,4.94585 
293 ,60.6750 ,1.25082 ,0.47668 ,4.67723 
294 ,60.8833 ,1.25290 ,0.46300 ,4.54291 
295 ,61.0914 ,1.25493 ,0.45615 ,4.47576 
296 ,61.3149 ,1.25713 ,0.43220 ,4.24071 
297 ,61.5229 ,1.25931 ,0.42193 ,4.13997 
298 ,61.7633 ,1.26166 ,0.42535 ,4.17355 
299 ,62.0036 ,1.26412 ,0.40140 ,3.93850 
300 ,62.2276 ,1.26630 ,0.39113 ,3.83777 
301 ,62.4520 ,1.26858 ,0.37060 ,3.63630 
302 ,62.6599 ,1.27064 ,0.34664 ,3.40125 
303 ,62.8678 ,1.27272 ,0.35006 ,3.43483 
304 ,63.0921 ,1.27490 ,0.33638 ,3.30052 
305 ,63.2844 ,1.27688 ,0.32953 ,3.23336 
306 ,63.4921 ,1.27898 ,0.32269 ,3.16620 
307 ,63.7005 ,1.28109 ,0.29873 ,2.93116 
308 ,63.9085 ,1.28312 ,0.29531 ,2.89758 
309 ,64.1326 ,1.28532 ,0.27478 ,2.69611 
310 ,64.3407 ,1.28746 ,0.26451 ,2.59537 
311 ,64.5327 ,1.28947 ,0.25082 ,2.46106 
312 ,64.7249 ,1.29131 ,0.24398 ,2.39390 
313 ,64.9165 ,1.29317 ,0.22344 ,2.19243 
314 ,65.1251 ,1.29529 ,0.23713 ,2.32675 
315 ,65.3331 ,1.29740 ,0.19607 ,1.92381 
316 ,65.5411 ,1.29943 ,0.19607 ,1.92381 
317 ,65.7333 ,1.30141 ,0.20291 ,1.99096 
318 ,65.9413 ,1.30343 ,0.17896 ,1.75592 
319 ,66.1334 ,1.30536 ,0.16185 ,1.58802 
320 ,66.3256 ,1.30734 ,0.15500 ,1.52087 
321 ,66.5336 ,1.30932 ,0.13447 ,1.31940 
322 ,66.7254 ,1.31135 ,0.13105 ,1.28582 
323 ,66.9337 ,1.31336 ,0.12078 ,1.18508 
324 ,67.1574 ,1.31565 ,0.10709 ,1.05077 
325 ,67.3500 ,1.31756 ,0.11051 ,1.08435 
326 ,67.5740 ,1.31973 ,0.07971 ,0.78214 
327 ,67.7661 ,1.32170 ,0.09340 ,0.91646 
328 ,67.9743 ,1.32378 ,0.05918 ,0.58067 
329 ,68.1980 ,1.32601 ,0.05576 ,0.54710 
330 ,68.4063 ,1.32811 ,0.05576 ,0.54710 
331 ,68.6145 ,1.33022 ,0.02838 ,0.27847 
332 ,68.8226 ,1.33222 ,0.02154 ,0.21131 
333 ,69.0306 ,1.33435 ,0.00100 ,0.00984 
334 ,69.2387 ,1.33648 ,-0.00926 ,-0.09089 
335 ,69.4466 ,1.33849 ,-0.00926 ,-0.09089 
336 ,69.6709 ,1.34069 ,-0.01611 ,-0.15805 
337 ,69.8788 ,1.34282 ,-0.02295 ,-0.22520 
338 ,70.0870 ,1.34489 ,-0.03322 ,-0.32594 
339 ,70.2793 ,1.34684 ,-0.06060 ,-0.59457 
340 ,70.4869 ,1.34884 ,-0.05717 ,-0.56099 
341 ,70.6794 ,1.35085 ,-0.07086 ,-0.69530 
342 ,70.9034 ,1.35302 ,-0.07428 ,-0.72888 
343 ,71.0956 ,1.35500 ,-0.09482 ,-0.93035 
344 ,71.3035 ,1.35707 ,-0.08455 ,-0.82961 
345 ,71.4958 ,1.35897 ,-0.12904 ,-1.26613 
346 ,71.7198 ,1.36124 ,-0.10851 ,-1.06466 
347 ,71.9278 ,1.36327 ,-0.12219 ,-1.19898 
348 ,72.1199 ,1.36523 ,-0.14957 ,-1.46760 
349 ,72.3280 ,1.36726 ,-0.15984 ,-1.56834 
350 ,72.5360 ,1.36936 ,-0.17695 ,-1.73623 
351 ,72.7443 ,1.37140 ,-0.15984 ,-1.56834 
352 ,72.9524 ,1.37362 ,-0.18379 ,-1.80338 
353 ,73.1604 ,1.37566 ,-0.19406 ,-1.90412 
354 ,73.3685 ,1.37764 ,-0.22486 ,-2.20632 
355 ,73.5926 ,1.37991 ,-0.22486 ,-2.20632 
356 ,73.7842 ,1.38198 ,-0.21459 ,-2.10559 
357 ,73.9927 ,1.38389 ,-0.23855 ,-2.34064 
358 ,74.1848 ,1.38589 ,-0.22486 ,-2.20632 
359 ,74.3928 ,1.38791 ,-0.25566 ,-2.50853 
360 ,74.6010 ,1.39006 ,-0.25566 ,-2.50853 
361 ,74.8089 ,1.39213 ,-0.28646 ,-2.81073 
362 ,75.0331 ,1.39424 ,-0.27619 ,-2.71000 
363 ,75.2572 ,1.39656 ,-0.29673 ,-2.91147 
364 ,75.4652 ,1.39863 ,-0.29673 ,-2.91147 
365 ,75.6570 ,1.40071 ,-0.32752 ,-3.21367 
366 ,75.8652 ,1.40259 ,-0.32410 ,-3.18010 
367 ,76.0572 ,1.40462 ,-0.33095 ,-3.24725 
368 ,76.2656 ,1.40664 ,-0.34121 ,-3.34799 
369 ,76.4897 ,1.40883 ,-0.36517 ,-3.58303 
370 ,76.6979 ,1.41105 ,-0.35148 ,-3.44872 
371 ,76.9060 ,1.41303 ,-0.38570 ,-3.78450 
372 ,77.1136 ,1.41510 ,-0.39255 ,-3.85166 
373 ,77.3061 ,1.41705 ,-0.39255 ,-3.85166 
374 ,77.5302 ,1.41931 ,-0.42335 ,-4.15387 
375 ,77.7384 ,1.42132 ,-0.40281 ,-3.95240 
376 ,77.9463 ,1.42346 ,-0.41308 ,-4.05313 
377 ,78.1543 ,1.42553 ,-0.43703 ,-4.28818 
378 ,78.3945 ,1.42795 ,-0.43361 ,-4.25460 
379 ,78.6026 ,1.43010 ,-0.44730 ,-4.38891 
380 ,78.8108 ,1.43215 ,-0.46783 ,-4.59038 
381 ,79.0189 ,1.43413 ,-0.46441 ,-4.55681 
382 ,79.2265 ,1.43635 ,-0.48494 ,-4.75828 
383 ,79.4029 ,1.43817 ,-0.48152 ,-4.72470 
384 ,79.5951 ,1.43998 ,-0.51232 ,-5.02690 
385 ,79.8030 ,1.44205 ,-0.50206 ,-4.92617 
386 ,80.0113 ,1.44412 ,-0.53285 ,-5.22837 
387 ,80.2193 ,1.44616 ,-0.52943 ,-5.19479 
388 ,80.4430 ,1.44832 ,-0.54312 ,-5.32911 
389 ,80.6353 ,1.45037 ,-0.54654 ,-5.36268 
390 ,80.8436 ,1.45244 ,-0.54997 ,-5.39626 
391 ,81.0675 ,1.45451 ,-0.57734 ,-5.66489 
392 ,81.2754 ,1.45674 ,-0.57050 ,-5.59773 
393 ,81.4678 ,1.45868 ,-0.61156 ,-6.00067 
394 ,81.6758 ,1.46075 ,-0.60814 ,-5.96709 
395 ,81.8839 ,1.46280 ,-0.60130 ,-5.89994 
396 ,82.0759 ,1.46477 ,-0.61156 ,-6.00067 
397 ,82.3001 ,1.46693 ,-0.60472 ,-5.93352 
398 ,82.5081 ,1.46906 ,-0.63210 ,-6.20214 
399 ,82.7161 ,1.47111 ,-0.63552 ,-6.23572 
400 ,82.9244 ,1.47320 ,-0.65263 ,-6.40361 
401 ,83.1326 ,1.47535 ,-0.67316 ,-6.60508 
402 ,83.3568 ,1.47752 ,-0.67659 ,-6.63866 
403 ,83.5488 ,1.47949 ,-0.68343 ,-6.70582 
404 ,83.7404 ,1.48149 ,-0.67659 ,-6.63866 
405 ,83.9327 ,1.48333 ,-0.70396 ,-6.90729 
406 ,84.1568 ,1.48550 ,-0.69370 ,-6.80655 
407 ,84.3490 ,1.48744 ,-0.72792 ,-7.14233 
408 ,84.5570 ,1.48955 ,-0.71765 ,-7.04160 
409 ,84.7493 ,1.49147 ,-0.74845 ,-7.34380 
410 ,84.9572 ,1.49356 ,-0.73134 ,-7.17591 
411 ,85.1656 ,1.49561 ,-0.75187 ,-7.37738 
412 ,85.3896 ,1.49780 ,-0.75530 ,-7.41096 
413 ,85.5974 ,1.49996 ,-0.76214 ,-7.47812 
414 ,85.8056 ,1.50201 ,-0.78267 ,-7.67959 
415 ,86.0136 ,1.50405 ,-0.76898 ,-7.54527 
416 ,86.2219 ,1.50617 ,-0.80321 ,-7.88106 
417 ,86.4137 ,1.50810 ,-0.79978 ,-7.84748 
418 ,86.6059 ,1.51004 ,-0.82374 ,-8.08253 
419 ,86.7978 ,1.51195 ,-0.82374 ,-8.08253 
420 ,87.0059 ,1.51401 ,-0.83401 ,-8.18326 
421 ,87.2303 ,1.51625 ,-0.84085 ,-8.25042 
422 ,87.4700 ,1.51854 ,-0.83743 ,-8.21684 
423 ,87.6625 ,1.52060 ,-0.85112 ,-8.35115 
424 ,87.8706 ,1.52268 ,-0.87507 ,-8.58620 
425 ,88.0784 ,1.52471 ,-0.87165 ,-8.55262 
426 ,88.2864 ,1.52680 ,-0.88534 ,-8.68694 
427 ,88.5109 ,1.52905 ,-0.89218 ,-8.75409 
428 ,88.7187 ,1.53113 ,-0.88876 ,-8.72051 
429 ,88.9106 ,1.53309 ,-0.90929 ,-8.92198 
430 ,89.1347 ,1.53533 ,-0.91956 ,-9.02272 
431 ,89.3271 ,1.53726 ,-0.94694 ,-9.29135 
432 ,89.5190 ,1.53918 ,-0.92983 ,-9.12345 
433 ,89.7270 ,1.54123 ,-0.94009 ,-9.22419 
434 ,89.9514 ,1.54341 ,-0.92640 ,-9.08988 
435 ,90.1756 ,1.54567 ,-0.95720 ,-9.39208 
436 ,90.3831 ,1.54775 ,-0.98458 ,-9.66071 
437 ,90.5917 ,1.54983 ,-0.96747 ,-9.49282 
438 ,90.7998 ,1.55193 ,-0.98800 ,-9.69429 
439 ,91.0076 ,1.55406 ,-0.99143 ,-9.72786 
440 ,91.2319 ,1.55626 ,-0.98800 ,-9.69429 
441 ,91.4237 ,1.55821 ,-1.01196 ,-9.92933 
442 ,91.6480 ,1.56036 ,-1.00511 ,-9.86218 
443 ,91.8558 ,1.56253 ,-1.02222 ,-10.03007 
444 ,92.0483 ,1.56444 ,-1.04276 ,-10.23154 
445 ,92.2724 ,1.56667 ,-1.04276 ,-10.23154 
446 ,92.4805 ,1.56872 ,-1.05302 ,-10.33227 
447 ,92.7045 ,1.57098 ,-1.06329 ,-10.43301 
448 ,92.9127 ,1.57305 ,-1.05645 ,-10.36585 
449 ,93.1207 ,1.57514 ,-1.08725 ,-10.66806 
450 ,93.3288 ,1.57716 ,-1.07014 ,-10.50016 
451 ,93.5368 ,1.57928 ,-1.09067 ,-10.70163 
452 ,93.7611 ,1.58152 ,-1.12147 ,-11.00384 
453 ,93.9692 ,1.58363 ,-1.12147 ,-11.00384 
454 ,94.1772 ,1.58570 ,-1.12831 ,-11.07100 
455 ,94.3853 ,1.58785 ,-1.14884 ,-11.27247 
456 ,94.5934 ,1.58987 ,-1.13516 ,-11.13815 
457 ,94.7850 ,1.59194 ,-1.15569 ,-11.33962 
458 ,94.9936 ,1.59388 ,-1.14884 ,-11.27247 
459 ,95.1856 ,1.59588 ,-1.16938 ,-11.47394 
460 ,95.3776 ,1.59771 ,-1.16938 ,-11.47394 
461 ,95.6018 ,1.59993 ,-1.20360 ,-11.80972 
