Data stamp = , 05-05-2022 05:57:51 814

Calibration Values: 
Slope = , 26.54 , g/V 
Offset Voltage at no contact = , -0.501760 , V 

No , Time , Stage Position ,   Mass , Force 
   ,  (s) ,      (mm)      ,   (g)  , (mN)  

1 ,0.0000 ,0.64946 ,5.25403 ,51.55254 
2 ,0.2117 ,0.64955 ,5.27114 ,51.72043 
3 ,0.5641 ,0.65054 ,5.26087 ,51.61969 
4 ,0.7881 ,0.65226 ,5.27456 ,51.75401 
5 ,0.9963 ,0.65417 ,5.26087 ,51.61969 
6 ,1.2048 ,0.65622 ,5.24718 ,51.48538 
7 ,1.4288 ,0.65845 ,5.28483 ,51.85474 
8 ,1.6366 ,0.66058 ,5.24034 ,51.41822 
9 ,1.8448 ,0.66256 ,5.23350 ,51.35107 
10 ,2.0209 ,0.66451 ,5.20270 ,51.04886 
11 ,2.2291 ,0.66651 ,5.19585 ,50.98170 
12 ,2.4531 ,0.66870 ,5.17532 ,50.78023 
13 ,2.6609 ,0.67080 ,5.14110 ,50.44445 
14 ,2.8530 ,0.67272 ,5.13083 ,50.34372 
15 ,3.0772 ,0.67499 ,5.09661 ,50.00793 
16 ,3.3015 ,0.67724 ,5.06581 ,49.70573 
17 ,3.5093 ,0.67931 ,5.06581 ,49.70573 
18 ,3.7177 ,0.68135 ,5.03159 ,49.36995 
19 ,3.9418 ,0.68355 ,5.00763 ,49.13490 
20 ,4.1497 ,0.68568 ,5.01448 ,49.20205 
21 ,4.3738 ,0.68792 ,4.96999 ,48.76554 
22 ,4.5821 ,0.68998 ,4.95288 ,48.59764 
23 ,4.8060 ,0.69219 ,4.93919 ,48.46333 
24 ,4.9981 ,0.69420 ,4.90839 ,48.16113 
25 ,5.2060 ,0.69626 ,4.88786 ,47.95966 
26 ,5.4139 ,0.69836 ,4.87759 ,47.85892 
27 ,5.6061 ,0.70025 ,4.86048 ,47.69103 
28 ,5.8141 ,0.70235 ,4.83652 ,47.45598 
29 ,6.0066 ,0.70426 ,4.81599 ,47.25451 
30 ,6.2142 ,0.70636 ,4.79546 ,47.05304 
31 ,6.4068 ,0.70826 ,4.78177 ,46.91873 
32 ,6.5986 ,0.71019 ,4.74070 ,46.51579 
33 ,6.8070 ,0.71226 ,4.74070 ,46.51579 
34 ,7.0149 ,0.71432 ,4.70990 ,46.21359 
35 ,7.2070 ,0.71624 ,4.71675 ,46.28074 
36 ,7.4312 ,0.71846 ,4.67226 ,45.84422 
37 ,7.6552 ,0.72066 ,4.65173 ,45.64275 
38 ,7.8632 ,0.72277 ,4.64146 ,45.54202 
39 ,8.0710 ,0.72486 ,4.62435 ,45.37413 
40 ,8.2631 ,0.72682 ,4.60040 ,45.13908 
41 ,8.4390 ,0.72872 ,4.58328 ,44.97119 
42 ,8.6313 ,0.73048 ,4.56617 ,44.80330 
43 ,8.8235 ,0.73244 ,4.55249 ,44.66898 
44 ,9.0158 ,0.73433 ,4.51826 ,44.33320 
45 ,9.2239 ,0.73636 ,4.52169 ,44.36678 
46 ,9.4316 ,0.73853 ,4.50115 ,44.16531 
47 ,9.6399 ,0.74058 ,4.47035 ,43.86310 
48 ,9.8482 ,0.74267 ,4.46693 ,43.82953 
49 ,10.0560 ,0.74472 ,4.41902 ,43.35943 
50 ,10.2483 ,0.74662 ,4.41902 ,43.35943 
51 ,10.4724 ,0.74886 ,4.39507 ,43.12438 
52 ,10.6645 ,0.75080 ,4.38822 ,43.05723 
53 ,10.8886 ,0.75308 ,4.34716 ,42.65429 
54 ,11.0807 ,0.75500 ,4.33347 ,42.51997 
55 ,11.2888 ,0.75703 ,4.32662 ,42.45282 
56 ,11.4809 ,0.75901 ,4.30267 ,42.21777 
57 ,11.6884 ,0.76103 ,4.28556 ,42.04988 
58 ,11.8809 ,0.76297 ,4.26845 ,41.88198 
59 ,12.0731 ,0.76493 ,4.24449 ,41.64694 
60 ,12.2651 ,0.76679 ,4.23765 ,41.57978 
61 ,12.4733 ,0.76889 ,4.20000 ,41.21042 
62 ,12.6652 ,0.77087 ,4.18974 ,41.10968 
63 ,12.8734 ,0.77283 ,4.16920 ,40.90821 
64 ,13.0655 ,0.77494 ,4.15209 ,40.74032 
65 ,13.2576 ,0.77679 ,4.13156 ,40.53885 
66 ,13.4977 ,0.77898 ,4.12471 ,40.47170 
67 ,13.7058 ,0.78121 ,4.09734 ,40.20307 
68 ,13.9135 ,0.78335 ,4.07338 ,39.96802 
69 ,14.1059 ,0.78524 ,4.07338 ,39.96802 
70 ,14.3139 ,0.78728 ,4.02889 ,39.53150 
71 ,14.5221 ,0.78940 ,4.02205 ,39.46435 
72 ,14.7143 ,0.79129 ,3.98441 ,39.09499 
73 ,14.9219 ,0.79333 ,3.99125 ,39.16214 
74 ,15.1305 ,0.79546 ,3.96387 ,38.89352 
75 ,15.3545 ,0.79766 ,3.93992 ,38.65847 
76 ,15.5466 ,0.79964 ,3.93650 ,38.62489 
77 ,15.7547 ,0.80167 ,3.89885 ,38.25553 
78 ,15.9626 ,0.80377 ,3.89201 ,38.18837 
79 ,16.1707 ,0.80575 ,3.86463 ,37.91975 
80 ,16.3630 ,0.80782 ,3.86121 ,37.88617 
81 ,16.5872 ,0.81001 ,3.83041 ,37.58396 
82 ,16.7952 ,0.81212 ,3.78934 ,37.18102 
83 ,17.0032 ,0.81421 ,3.79619 ,37.24818 
84 ,17.2111 ,0.81628 ,3.76539 ,36.94597 
85 ,17.4033 ,0.81820 ,3.76196 ,36.91240 
86 ,17.5954 ,0.82009 ,3.72432 ,36.54303 
87 ,17.8037 ,0.82219 ,3.73459 ,36.64377 
88 ,17.9959 ,0.82413 ,3.69694 ,36.27441 
89 ,18.2194 ,0.82629 ,3.70037 ,36.30799 
90 ,18.4279 ,0.82845 ,3.65246 ,35.83789 
91 ,18.6359 ,0.83047 ,3.63534 ,35.67000 
92 ,18.8281 ,0.83247 ,3.62508 ,35.56926 
93 ,19.0519 ,0.83463 ,3.60112 ,35.33422 
94 ,19.2441 ,0.83659 ,3.59770 ,35.30064 
95 ,19.4683 ,0.83878 ,3.56690 ,34.99843 
96 ,19.6759 ,0.84091 ,3.55663 ,34.89770 
97 ,19.8839 ,0.84299 ,3.51899 ,34.52834 
98 ,20.0924 ,0.84503 ,3.50872 ,34.42760 
99 ,20.3326 ,0.84747 ,3.48477 ,34.19255 
100 ,20.5087 ,0.84933 ,3.47108 ,34.05824 
101 ,20.7007 ,0.85114 ,3.45739 ,33.92393 
102 ,20.8931 ,0.85309 ,3.42659 ,33.62172 
103 ,21.0845 ,0.85502 ,3.43344 ,33.68888 
104 ,21.3086 ,0.85719 ,3.39237 ,33.28594 
105 ,21.5486 ,0.85958 ,3.37184 ,33.08447 
106 ,21.7726 ,0.86181 ,3.35473 ,32.91658 
107 ,21.9808 ,0.86397 ,3.35130 ,32.88300 
108 ,22.1893 ,0.86593 ,3.31366 ,32.51364 
109 ,22.3976 ,0.86811 ,3.31024 ,32.48006 
110 ,22.6054 ,0.87012 ,3.27602 ,32.14428 
111 ,22.8297 ,0.87239 ,3.24522 ,31.84207 
112 ,23.0377 ,0.87450 ,3.25891 ,31.97639 
113 ,23.2459 ,0.87656 ,3.20757 ,31.47271 
114 ,23.4377 ,0.87850 ,3.21100 ,31.50629 
115 ,23.6619 ,0.88071 ,3.19046 ,31.30482 
116 ,23.8538 ,0.88267 ,3.16993 ,31.10335 
117 ,24.0461 ,0.88458 ,3.15624 ,30.96904 
118 ,24.2382 ,0.88650 ,3.14255 ,30.83472 
119 ,24.4943 ,0.88905 ,3.12202 ,30.63325 
120 ,24.6861 ,0.89109 ,3.11175 ,30.53252 
121 ,24.8620 ,0.89287 ,3.09806 ,30.39821 
122 ,25.0863 ,0.89490 ,3.06726 ,30.09600 
123 ,25.2945 ,0.89710 ,3.05015 ,29.92811 
124 ,25.4864 ,0.89902 ,3.02620 ,29.69306 
125 ,25.6785 ,0.90094 ,3.02278 ,29.65948 
126 ,25.8708 ,0.90284 ,2.99540 ,29.39086 
127 ,26.0949 ,0.90501 ,3.00224 ,29.45801 
128 ,26.3030 ,0.90712 ,2.96802 ,29.12223 
129 ,26.5111 ,0.90917 ,2.95091 ,28.95434 
130 ,26.7191 ,0.91131 ,2.94407 ,28.88718 
131 ,26.9433 ,0.91346 ,2.90985 ,28.55140 
132 ,27.1351 ,0.91545 ,2.91327 ,28.58498 
133 ,27.3594 ,0.91771 ,2.88589 ,28.31635 
134 ,27.5676 ,0.91972 ,2.86536 ,28.11488 
135 ,27.7596 ,0.92171 ,2.85167 ,27.98057 
136 ,27.9675 ,0.92374 ,2.82771 ,27.74552 
137 ,28.1593 ,0.92569 ,2.82087 ,27.67836 
138 ,28.3678 ,0.92778 ,2.78665 ,27.34258 
139 ,28.5599 ,0.92967 ,2.78322 ,27.30900 
140 ,28.7519 ,0.93174 ,2.75585 ,27.04038 
141 ,28.9600 ,0.93370 ,2.73531 ,26.83891 
142 ,29.1521 ,0.93565 ,2.73874 ,26.87248 
143 ,29.3598 ,0.93776 ,2.72163 ,26.70459 
144 ,29.5523 ,0.93964 ,2.70452 ,26.53670 
145 ,29.7603 ,0.94165 ,2.67372 ,26.23450 
146 ,29.9525 ,0.94362 ,2.67372 ,26.23450 
147 ,30.1606 ,0.94571 ,2.64976 ,25.99945 
148 ,30.3681 ,0.94776 ,2.62581 ,25.76440 
149 ,30.5767 ,0.94987 ,2.62238 ,25.73082 
150 ,30.7844 ,0.95196 ,2.58816 ,25.39504 
151 ,30.9769 ,0.95387 ,2.57789 ,25.29430 
152 ,31.1850 ,0.95600 ,2.55736 ,25.09283 
153 ,31.3933 ,0.95796 ,2.56078 ,25.12641 
154 ,31.6011 ,0.96006 ,2.52998 ,24.82421 
155 ,31.7933 ,0.96203 ,2.52656 ,24.79063 
156 ,32.0012 ,0.96409 ,2.48892 ,24.42127 
157 ,32.1935 ,0.96602 ,2.48550 ,24.38769 
158 ,32.4014 ,0.96812 ,2.45812 ,24.11906 
159 ,32.5931 ,0.97003 ,2.46839 ,24.21980 
160 ,32.8174 ,0.97213 ,2.43074 ,23.85044 
161 ,33.0254 ,0.97433 ,2.41021 ,23.64897 
162 ,33.2173 ,0.97629 ,2.40336 ,23.58181 
163 ,33.4098 ,0.97821 ,2.39310 ,23.48108 
164 ,33.6019 ,0.98012 ,2.36230 ,23.17887 
165 ,33.8261 ,0.98238 ,2.36230 ,23.17887 
166 ,34.0342 ,0.98442 ,2.32465 ,22.80951 
167 ,34.2422 ,0.98647 ,2.30070 ,22.57446 
168 ,34.4343 ,0.98844 ,2.30754 ,22.64162 
169 ,34.6423 ,0.99045 ,2.28359 ,22.40657 
170 ,34.8505 ,0.99257 ,2.27674 ,22.33941 
171 ,35.0586 ,0.99465 ,2.25279 ,22.10437 
172 ,35.2665 ,0.99674 ,2.23568 ,21.93647 
173 ,35.4588 ,0.99866 ,2.21515 ,21.73500 
174 ,35.6986 ,1.00102 ,2.18092 ,21.39922 
175 ,35.8905 ,1.00310 ,2.18092 ,21.39922 
176 ,36.0829 ,1.00494 ,2.16723 ,21.26491 
177 ,36.2910 ,1.00692 ,2.16723 ,21.26491 
178 ,36.4832 ,1.00889 ,2.13644 ,20.96270 
179 ,36.6911 ,1.01098 ,2.11590 ,20.76123 
180 ,36.8993 ,1.01306 ,2.09879 ,20.59334 
181 ,37.1233 ,1.01532 ,2.09195 ,20.52619 
182 ,37.3315 ,1.01736 ,2.07484 ,20.35829 
183 ,37.5395 ,1.01943 ,2.04061 ,20.02251 
184 ,37.7316 ,1.02135 ,2.04061 ,20.02251 
185 ,37.9399 ,1.02335 ,2.02693 ,19.88820 
186 ,38.1318 ,1.02542 ,2.00639 ,19.68673 
187 ,38.3239 ,1.02730 ,1.98586 ,19.48526 
188 ,38.5160 ,1.02922 ,1.97559 ,19.38452 
189 ,38.7237 ,1.03128 ,1.96533 ,19.28379 
190 ,38.9322 ,1.03339 ,1.95506 ,19.18305 
191 ,39.1399 ,1.03552 ,1.91742 ,18.81369 
192 ,39.3484 ,1.03753 ,1.91742 ,18.81369 
193 ,39.5565 ,1.03966 ,1.90031 ,18.64580 
194 ,39.7644 ,1.04164 ,1.89346 ,18.57864 
195 ,39.9727 ,1.04377 ,1.85582 ,18.20928 
196 ,40.1806 ,1.04583 ,1.85240 ,18.17570 
197 ,40.4047 ,1.04803 ,1.84897 ,18.14213 
198 ,40.6129 ,1.05017 ,1.81475 ,17.80634 
199 ,40.8210 ,1.05231 ,1.79080 ,17.57129 
200 ,41.0608 ,1.05451 ,1.79764 ,17.63845 
201 ,41.2692 ,1.05679 ,1.78053 ,17.47056 
202 ,41.4929 ,1.05894 ,1.74973 ,17.16836 
203 ,41.7009 ,1.06106 ,1.72578 ,16.93331 
204 ,41.9094 ,1.06310 ,1.71551 ,16.83257 
205 ,42.1176 ,1.06515 ,1.68813 ,16.56395 
206 ,42.3256 ,1.06727 ,1.70182 ,16.69826 
207 ,42.5336 ,1.06934 ,1.67102 ,16.39605 
208 ,42.7257 ,1.07127 ,1.68129 ,16.49679 
209 ,42.9177 ,1.07327 ,1.63680 ,16.06027 
210 ,43.1099 ,1.07517 ,1.62653 ,15.95954 
211 ,43.3180 ,1.07724 ,1.62311 ,15.92596 
212 ,43.5259 ,1.07926 ,1.60600 ,15.75807 
213 ,43.7501 ,1.08152 ,1.59573 ,15.65733 
214 ,43.9582 ,1.08362 ,1.56151 ,15.32155 
215 ,44.1823 ,1.08584 ,1.55467 ,15.25439 
216 ,44.3906 ,1.08793 ,1.53756 ,15.08650 
217 ,44.5981 ,1.09003 ,1.53756 ,15.08650 
218 ,44.8063 ,1.09204 ,1.51702 ,14.88503 
219 ,45.0308 ,1.09433 ,1.49649 ,14.68356 
220 ,45.2388 ,1.09643 ,1.47253 ,14.44851 
221 ,45.4629 ,1.09862 ,1.46911 ,14.41493 
222 ,45.6710 ,1.10069 ,1.44516 ,14.17989 
223 ,45.8630 ,1.10270 ,1.43489 ,14.07915 
224 ,46.0550 ,1.10461 ,1.40409 ,13.77695 
225 ,46.2951 ,1.10700 ,1.39383 ,13.67621 
226 ,46.5032 ,1.10907 ,1.39725 ,13.70979 
227 ,46.7111 ,1.11109 ,1.37329 ,13.47474 
228 ,46.9189 ,1.11319 ,1.36303 ,13.37401 
229 ,47.1114 ,1.11519 ,1.33907 ,13.13896 
230 ,47.3036 ,1.11709 ,1.34249 ,13.17254 
231 ,47.5115 ,1.11911 ,1.31169 ,12.87033 
232 ,47.7033 ,1.12108 ,1.31854 ,12.93749 
233 ,47.8957 ,1.12296 ,1.29800 ,12.73602 
234 ,48.1198 ,1.12519 ,1.29116 ,12.66886 
235 ,48.3441 ,1.12742 ,1.28089 ,12.56813 
236 ,48.5360 ,1.12940 ,1.24667 ,12.23235 
237 ,48.7602 ,1.13157 ,1.25009 ,12.26592 
238 ,48.9523 ,1.13357 ,1.21245 ,11.89656 
239 ,49.1603 ,1.13570 ,1.21587 ,11.93014 
240 ,49.3524 ,1.13756 ,1.19192 ,11.69509 
241 ,49.5604 ,1.13965 ,1.19192 ,11.69509 
242 ,49.7526 ,1.14157 ,1.16112 ,11.39289 
243 ,49.9607 ,1.14360 ,1.15770 ,11.35931 
244 ,50.1684 ,1.14571 ,1.14743 ,11.25857 
245 ,50.3770 ,1.14777 ,1.13374 ,11.12426 
246 ,50.5847 ,1.14985 ,1.12690 ,11.05710 
247 ,50.8249 ,1.15213 ,1.09610 ,10.75490 
248 ,51.0172 ,1.15415 ,1.08925 ,10.68774 
249 ,51.2250 ,1.15629 ,1.08241 ,10.62059 
250 ,51.4331 ,1.15838 ,1.06530 ,10.45270 
251 ,51.6414 ,1.16043 ,1.05503 ,10.35196 
252 ,51.8335 ,1.16236 ,1.02423 ,10.04976 
253 ,52.0416 ,1.16446 ,1.02765 ,10.08333 
254 ,52.2335 ,1.16637 ,1.00370 ,9.84829 
255 ,52.4252 ,1.16829 ,1.00028 ,9.81471 
256 ,52.6179 ,1.17023 ,0.99001 ,9.71397 
257 ,52.8418 ,1.17239 ,0.96948 ,9.51250 
258 ,53.0338 ,1.17434 ,0.94894 ,9.31103 
259 ,53.2581 ,1.17657 ,0.95579 ,9.37819 
260 ,53.4658 ,1.17861 ,0.93183 ,9.14314 
261 ,53.6740 ,1.18075 ,0.91130 ,8.94167 
262 ,53.8820 ,1.18285 ,0.91130 ,8.94167 
263 ,54.0903 ,1.18486 ,0.87708 ,8.60589 
264 ,54.2823 ,1.18684 ,0.87708 ,8.60589 
265 ,54.4906 ,1.18893 ,0.85997 ,8.43800 
266 ,54.6827 ,1.19087 ,0.86339 ,8.47158 
267 ,54.8908 ,1.19294 ,0.83259 ,8.16937 
268 ,55.0989 ,1.19505 ,0.83259 ,8.16937 
269 ,55.3069 ,1.19706 ,0.80179 ,7.86717 
270 ,55.5149 ,1.19907 ,0.82232 ,8.06864 
271 ,55.6906 ,1.20104 ,0.77099 ,7.56496 
272 ,55.8994 ,1.20295 ,0.79495 ,7.80001 
273 ,56.1072 ,1.20509 ,0.76072 ,7.46423 
274 ,56.2994 ,1.20703 ,0.76415 ,7.49780 
275 ,56.5235 ,1.20919 ,0.73677 ,7.22918 
276 ,56.7311 ,1.21133 ,0.72992 ,7.16202 
277 ,56.9396 ,1.21343 ,0.71966 ,7.06129 
278 ,57.1798 ,1.21570 ,0.69570 ,6.82624 
279 ,57.3718 ,1.21779 ,0.67517 ,6.62477 
280 ,57.5638 ,1.21964 ,0.67175 ,6.59119 
281 ,57.7559 ,1.22155 ,0.67517 ,6.62477 
282 ,57.9479 ,1.22347 ,0.65121 ,6.38972 
283 ,58.1401 ,1.22540 ,0.63410 ,6.22183 
284 ,58.3322 ,1.22732 ,0.63410 ,6.22183 
285 ,58.5399 ,1.22945 ,0.61699 ,6.05394 
286 ,58.7323 ,1.23133 ,0.61357 ,6.02036 
287 ,58.9239 ,1.23322 ,0.58962 ,5.78531 
288 ,59.1325 ,1.23531 ,0.59304 ,5.81889 
289 ,59.3406 ,1.23736 ,0.56908 ,5.58384 
290 ,59.5326 ,1.23936 ,0.54855 ,5.38237 
291 ,59.7245 ,1.24124 ,0.53144 ,5.21448 
292 ,59.9168 ,1.24315 ,0.55197 ,5.41595 
293 ,60.1089 ,1.24509 ,0.51433 ,5.04659 
294 ,60.3010 ,1.24697 ,0.52459 ,5.14732 
295 ,60.5089 ,1.24907 ,0.50406 ,4.94585 
296 ,60.7171 ,1.25112 ,0.50064 ,4.91228 
297 ,60.9252 ,1.25322 ,0.47326 ,4.64365 
298 ,61.1169 ,1.25516 ,0.48353 ,4.74438 
299 ,61.3254 ,1.25721 ,0.43904 ,4.30787 
300 ,61.5334 ,1.25942 ,0.44588 ,4.37502 
301 ,61.7255 ,1.26124 ,0.42877 ,4.20713 
302 ,61.9336 ,1.26329 ,0.42877 ,4.20713 
303 ,62.1417 ,1.26538 ,0.39797 ,3.90493 
304 ,62.3337 ,1.26736 ,0.41166 ,4.03924 
305 ,62.5255 ,1.26923 ,0.39113 ,3.83777 
306 ,62.7181 ,1.27111 ,0.38086 ,3.73703 
307 ,62.9259 ,1.27319 ,0.35349 ,3.46841 
308 ,63.1342 ,1.27532 ,0.35691 ,3.50199 
309 ,63.3420 ,1.27740 ,0.33638 ,3.30052 
310 ,63.5504 ,1.27937 ,0.34664 ,3.40125 
311 ,63.7584 ,1.28157 ,0.32611 ,3.19978 
312 ,63.9506 ,1.28351 ,0.30215 ,2.96473 
313 ,64.1425 ,1.28546 ,0.29531 ,2.89758 
314 ,64.3346 ,1.28734 ,0.28847 ,2.83042 
315 ,64.5429 ,1.28932 ,0.26451 ,2.59537 
316 ,64.7506 ,1.29148 ,0.27478 ,2.69611 
317 ,64.9429 ,1.29338 ,0.23713 ,2.32675 
318 ,65.1349 ,1.29536 ,0.25082 ,2.46106 
319 ,65.3430 ,1.29741 ,0.22344 ,2.19243 
320 ,65.5187 ,1.29927 ,0.22687 ,2.22601 
321 ,65.7272 ,1.30116 ,0.22002 ,2.15885 
322 ,65.9349 ,1.30332 ,0.20633 ,2.02454 
323 ,66.1274 ,1.30529 ,0.19264 ,1.89023 
324 ,66.3515 ,1.30743 ,0.19607 ,1.92381 
325 ,66.5596 ,1.30953 ,0.16527 ,1.62160 
326 ,66.7673 ,1.31163 ,0.17211 ,1.68876 
327 ,66.9757 ,1.31370 ,0.15842 ,1.55445 
328 ,67.1677 ,1.31571 ,0.14131 ,1.38655 
329 ,67.3756 ,1.31767 ,0.12420 ,1.21866 
330 ,67.5519 ,1.31961 ,0.11051 ,1.08435 
331 ,67.7435 ,1.32135 ,0.10367 ,1.01719 
332 ,67.9359 ,1.32329 ,0.09682 ,0.95004 
333 ,68.2078 ,1.32600 ,0.08998 ,0.88288 
334 ,68.3999 ,1.32798 ,0.06945 ,0.68141 
335 ,68.5920 ,1.32987 ,0.06602 ,0.64783 
336 ,68.7842 ,1.33180 ,0.04891 ,0.47994 
337 ,69.0086 ,1.33394 ,0.04207 ,0.41278 
338 ,69.2163 ,1.33613 ,0.01469 ,0.14416 
339 ,69.4244 ,1.33812 ,0.02838 ,0.27847 
340 ,69.6004 ,1.34008 ,-0.01269 ,-0.12447 
341 ,69.7925 ,1.34194 ,0.01811 ,0.17773 
342 ,70.0005 ,1.34390 ,-0.00926 ,-0.09089 
343 ,70.2086 ,1.34595 ,-0.00926 ,-0.09089 
344 ,70.4006 ,1.34799 ,-0.03664 ,-0.35952 
345 ,70.6088 ,1.34997 ,-0.03664 ,-0.35952 
346 ,70.7847 ,1.35190 ,-0.06402 ,-0.62814 
347 ,70.9609 ,1.35371 ,-0.08113 ,-0.79604 
348 ,71.1529 ,1.35560 ,-0.05717 ,-0.56099 
349 ,71.3611 ,1.35748 ,-0.07428 ,-0.72888 
350 ,71.5532 ,1.35946 ,-0.09140 ,-0.89677 
351 ,71.7613 ,1.36149 ,-0.08797 ,-0.86319 
352 ,71.9533 ,1.36349 ,-0.11535 ,-1.13182 
353 ,72.1614 ,1.36550 ,-0.11535 ,-1.13182 
354 ,72.3535 ,1.36746 ,-0.12904 ,-1.26613 
355 ,72.5614 ,1.36948 ,-0.13931 ,-1.36687 
356 ,72.7696 ,1.37165 ,-0.15642 ,-1.53476 
357 ,72.9616 ,1.37367 ,-0.15984 ,-1.56834 
358 ,73.1537 ,1.37557 ,-0.17011 ,-1.66907 
359 ,73.3778 ,1.37767 ,-0.19064 ,-1.87054 
360 ,73.5858 ,1.37980 ,-0.18379 ,-1.80338 
361 ,73.7940 ,1.38187 ,-0.21117 ,-2.07201 
362 ,74.0021 ,1.38389 ,-0.21117 ,-2.07201 
363 ,74.2102 ,1.38606 ,-0.22486 ,-2.20632 
364 ,74.4186 ,1.38806 ,-0.23170 ,-2.27348 
365 ,74.6267 ,1.39023 ,-0.23855 ,-2.34064 
366 ,74.8347 ,1.39226 ,-0.27961 ,-2.74358 
367 ,75.0430 ,1.39428 ,-0.26250 ,-2.57569 
368 ,75.2510 ,1.39643 ,-0.26593 ,-2.60926 
369 ,75.4746 ,1.39860 ,-0.28988 ,-2.84431 
370 ,75.6670 ,1.40062 ,-0.28646 ,-2.81073 
371 ,75.8913 ,1.40272 ,-0.31384 ,-3.07936 
372 ,76.0996 ,1.40489 ,-0.31726 ,-3.11294 
373 ,76.3073 ,1.40692 ,-0.31384 ,-3.07936 
374 ,76.5154 ,1.40902 ,-0.33095 ,-3.24725 
375 ,76.7557 ,1.41134 ,-0.33779 ,-3.31441 
376 ,76.9799 ,1.41367 ,-0.34121 ,-3.34799 
377 ,77.1881 ,1.41584 ,-0.35148 ,-3.44872 
378 ,77.3960 ,1.41785 ,-0.37544 ,-3.68377 
379 ,77.5880 ,1.41979 ,-0.37886 ,-3.71735 
380 ,77.8119 ,1.42201 ,-0.40623 ,-3.98597 
381 ,78.0203 ,1.42409 ,-0.39597 ,-3.88524 
382 ,78.2444 ,1.42631 ,-0.41650 ,-4.08671 
383 ,78.4524 ,1.42835 ,-0.44046 ,-4.32176 
384 ,78.6606 ,1.43050 ,-0.41308 ,-4.05313 
385 ,78.8686 ,1.43259 ,-0.46099 ,-4.52323 
386 ,79.0608 ,1.43448 ,-0.45072 ,-4.42249 
387 ,79.2527 ,1.43657 ,-0.47468 ,-4.65754 
388 ,79.4608 ,1.43846 ,-0.47126 ,-4.62396 
389 ,79.6530 ,1.44047 ,-0.49179 ,-4.82543 
390 ,79.8606 ,1.44248 ,-0.47468 ,-4.65754 
391 ,80.0686 ,1.44455 ,-0.49863 ,-4.89259 
392 ,80.2767 ,1.44670 ,-0.51232 ,-5.02690 
393 ,80.4847 ,1.44875 ,-0.51917 ,-5.09406 
394 ,80.6772 ,1.45072 ,-0.53970 ,-5.29553 
395 ,80.8851 ,1.45278 ,-0.53628 ,-5.26195 
396 ,81.0773 ,1.45470 ,-0.53970 ,-5.29553 
397 ,81.2855 ,1.45673 ,-0.56365 ,-5.53058 
398 ,81.4937 ,1.45877 ,-0.57050 ,-5.59773 
399 ,81.7018 ,1.46095 ,-0.56365 ,-5.53058 
400 ,81.9099 ,1.46299 ,-0.59788 ,-5.86636 
401 ,82.1015 ,1.46500 ,-0.58077 ,-5.69847 
402 ,82.2939 ,1.46684 ,-0.60472 ,-5.93352 
403 ,82.5022 ,1.46882 ,-0.61156 ,-6.00067 
404 ,82.6942 ,1.47083 ,-0.62183 ,-6.10141 
405 ,82.9024 ,1.47292 ,-0.61156 ,-6.00067 
406 ,83.1105 ,1.47497 ,-0.64921 ,-6.37003 
407 ,83.3343 ,1.47725 ,-0.63894 ,-6.26930 
408 ,83.5426 ,1.47932 ,-0.63894 ,-6.26930 
409 ,83.7347 ,1.48127 ,-0.66290 ,-6.50435 
410 ,83.9427 ,1.48338 ,-0.66632 ,-6.53793 
411 ,84.1345 ,1.48525 ,-0.68343 ,-6.70582 
412 ,84.3265 ,1.48717 ,-0.69027 ,-6.77297 
413 ,84.5190 ,1.48908 ,-0.68685 ,-6.73940 
414 ,84.7111 ,1.49099 ,-0.72107 ,-7.07518 
415 ,84.9351 ,1.49319 ,-0.70054 ,-6.87371 
416 ,85.1432 ,1.49532 ,-0.72107 ,-7.07518 
417 ,85.3352 ,1.49726 ,-0.72450 ,-7.10876 
418 ,85.5595 ,1.49948 ,-0.74845 ,-7.34380 
419 ,85.7677 ,1.50157 ,-0.75872 ,-7.44454 
420 ,85.9756 ,1.50360 ,-0.75872 ,-7.44454 
421 ,86.1679 ,1.50557 ,-0.77241 ,-7.57885 
422 ,86.3759 ,1.50767 ,-0.76556 ,-7.51170 
423 ,86.5835 ,1.50963 ,-0.79636 ,-7.81390 
424 ,86.7759 ,1.51162 ,-0.78952 ,-7.74674 
425 ,86.9841 ,1.51366 ,-0.82032 ,-8.04895 
426 ,87.1922 ,1.51581 ,-0.80663 ,-7.91464 
427 ,87.3842 ,1.51772 ,-0.82032 ,-8.04895 
428 ,87.5926 ,1.51982 ,-0.83058 ,-8.14968 
429 ,87.8165 ,1.52192 ,-0.86138 ,-8.45189 
430 ,88.0565 ,1.52431 ,-0.85796 ,-8.41831 
431 ,88.2805 ,1.52661 ,-0.86481 ,-8.48547 
432 ,88.4888 ,1.52868 ,-0.87849 ,-8.61978 
433 ,88.6967 ,1.53084 ,-0.86481 ,-8.48547 
434 ,88.9048 ,1.53287 ,-0.89218 ,-8.75409 
435 ,89.0971 ,1.53481 ,-0.87849 ,-8.61978 
436 ,89.2891 ,1.53675 ,-0.90245 ,-8.85483 
437 ,89.4973 ,1.53893 ,-0.90929 ,-8.92198 
438 ,89.6894 ,1.54075 ,-0.91956 ,-9.02272 
439 ,89.9292 ,1.54317 ,-0.91614 ,-8.98914 
440 ,90.1216 ,1.54508 ,-0.95378 ,-9.35850 
441 ,90.3293 ,1.54721 ,-0.94351 ,-9.25777 
442 ,90.5376 ,1.54924 ,-0.95036 ,-9.32492 
443 ,90.7455 ,1.55125 ,-0.96405 ,-9.45924 
444 ,90.9534 ,1.55336 ,-0.96747 ,-9.49282 
445 ,91.1620 ,1.55546 ,-0.99485 ,-9.76144 
446 ,91.3700 ,1.55754 ,-0.97431 ,-9.55997 
447 ,91.5618 ,1.55947 ,-1.01538 ,-9.96291 
448 ,91.7542 ,1.56144 ,-0.99143 ,-9.72786 
449 ,91.9622 ,1.56345 ,-1.02222 ,-10.03007 
450 ,92.1542 ,1.56543 ,-1.01538 ,-9.96291 
451 ,92.3624 ,1.56750 ,-1.04276 ,-10.23154 
452 ,92.5706 ,1.56953 ,-1.03249 ,-10.13080 
453 ,92.7787 ,1.57164 ,-1.04276 ,-10.23154 
454 ,92.9867 ,1.57369 ,-1.05987 ,-10.39943 
455 ,93.2103 ,1.57589 ,-1.05302 ,-10.33227 
456 ,93.4028 ,1.57789 ,-1.08040 ,-10.60090 
457 ,93.6110 ,1.57993 ,-1.07356 ,-10.53374 
458 ,93.8189 ,1.58200 ,-1.10093 ,-10.80237 
459 ,94.0272 ,1.58406 ,-1.07698 ,-10.56732 
460 ,94.2349 ,1.58621 ,-1.09751 ,-10.76879 
461 ,94.4594 ,1.58837 ,-1.11462 ,-10.93668 
462 ,94.6672 ,1.59054 ,-1.11120 ,-10.90310 
