Data stamp = , 05-05-2022 08:43:50 572

Calibration Values: 
Slope = , 26.54 , g/V 
Offset Voltage at no contact = , -0.501760 , V 

No , Time , Stage Position ,   Mass , Force 
   ,  (s) ,      (mm)      ,   (g)  , (mN)  

1 ,0.0000 ,0.64957 ,5.17190 ,50.74666 
2 ,0.2102 ,0.64966 ,5.19585 ,50.98170 
3 ,0.5630 ,0.65062 ,5.19243 ,50.94813 
4 ,0.7868 ,0.65230 ,5.19243 ,50.94813 
5 ,1.0111 ,0.65437 ,5.19243 ,50.94813 
6 ,1.2192 ,0.65647 ,5.16505 ,50.67950 
7 ,1.4270 ,0.65855 ,5.19243 ,50.94813 
8 ,1.6028 ,0.66046 ,5.16163 ,50.64592 
9 ,1.8115 ,0.66236 ,5.16163 ,50.64592 
10 ,2.0195 ,0.66447 ,5.13768 ,50.41087 
11 ,2.2274 ,0.66657 ,5.12399 ,50.27656 
12 ,2.4516 ,0.66878 ,5.10003 ,50.04151 
13 ,2.6435 ,0.67078 ,5.07950 ,49.84004 
14 ,2.8519 ,0.67288 ,5.06239 ,49.67215 
15 ,3.0756 ,0.67502 ,5.02132 ,49.26921 
16 ,3.2840 ,0.67711 ,5.02132 ,49.26921 
17 ,3.4761 ,0.67912 ,4.98368 ,48.89985 
18 ,3.6682 ,0.68106 ,4.98710 ,48.93343 
19 ,3.8436 ,0.68286 ,4.94946 ,48.56407 
20 ,4.0361 ,0.68467 ,4.93577 ,48.42975 
21 ,4.2445 ,0.68679 ,4.93919 ,48.46333 
22 ,4.4685 ,0.68884 ,4.88786 ,47.95966 
23 ,4.6927 ,0.69123 ,4.87759 ,47.85892 
24 ,4.9002 ,0.69332 ,4.85364 ,47.62387 
25 ,5.1086 ,0.69534 ,4.83995 ,47.48956 
26 ,5.3169 ,0.69748 ,4.81257 ,47.22093 
27 ,5.5090 ,0.69938 ,4.79888 ,47.08662 
28 ,5.7327 ,0.70155 ,4.76466 ,46.75084 
29 ,5.9250 ,0.70355 ,4.75439 ,46.65010 
30 ,6.1172 ,0.70549 ,4.74070 ,46.51579 
31 ,6.3093 ,0.70738 ,4.72359 ,46.34790 
32 ,6.5330 ,0.70961 ,4.68595 ,45.97854 
33 ,6.7252 ,0.71152 ,4.69622 ,46.07927 
34 ,6.9172 ,0.71347 ,4.64831 ,45.60918 
35 ,7.1093 ,0.71544 ,4.63804 ,45.50844 
36 ,7.3175 ,0.71744 ,4.61408 ,45.27339 
37 ,7.5258 ,0.71955 ,4.60382 ,45.17266 
38 ,7.7339 ,0.72159 ,4.56617 ,44.80330 
39 ,7.9417 ,0.72369 ,4.55933 ,44.73614 
40 ,8.1498 ,0.72582 ,4.53880 ,44.53467 
41 ,8.3579 ,0.72782 ,4.51484 ,44.29962 
42 ,8.5823 ,0.73006 ,4.50800 ,44.23247 
43 ,8.7902 ,0.73220 ,4.49089 ,44.06457 
44 ,8.9824 ,0.73410 ,4.46009 ,43.76237 
45 ,9.1905 ,0.73617 ,4.46351 ,43.79595 
46 ,9.4140 ,0.73840 ,4.41560 ,43.32585 
47 ,9.6063 ,0.74038 ,4.40533 ,43.22512 
48 ,9.7984 ,0.74229 ,4.38480 ,43.02365 
49 ,9.9744 ,0.74417 ,4.37795 ,42.95649 
50 ,10.1669 ,0.74599 ,4.36769 ,42.85576 
51 ,10.3749 ,0.74805 ,4.33347 ,42.51997 
52 ,10.5827 ,0.75012 ,4.31978 ,42.38566 
53 ,10.7908 ,0.75220 ,4.28213 ,42.01630 
54 ,10.9991 ,0.75427 ,4.27187 ,41.91556 
55 ,11.1914 ,0.75621 ,4.26845 ,41.88198 
56 ,11.3994 ,0.75826 ,4.22738 ,41.47905 
57 ,11.6235 ,0.76045 ,4.22053 ,41.41189 
58 ,11.8156 ,0.76249 ,4.20342 ,41.24400 
59 ,12.0237 ,0.76450 ,4.18631 ,41.07611 
60 ,12.2317 ,0.76662 ,4.16236 ,40.84106 
61 ,12.4077 ,0.76848 ,4.13840 ,40.60601 
62 ,12.6155 ,0.77038 ,4.11787 ,40.40454 
63 ,12.8236 ,0.77248 ,4.10760 ,40.30380 
64 ,13.0160 ,0.77443 ,4.08023 ,40.03518 
65 ,13.2078 ,0.77638 ,4.09391 ,40.16949 
66 ,13.4002 ,0.77828 ,4.04943 ,39.73297 
67 ,13.6084 ,0.78030 ,4.04258 ,39.66582 
68 ,13.8160 ,0.78245 ,3.99809 ,39.22930 
69 ,13.9920 ,0.78431 ,3.99809 ,39.22930 
70 ,14.1841 ,0.78623 ,3.98441 ,39.09499 
71 ,14.3921 ,0.78819 ,3.96045 ,38.85994 
72 ,14.6002 ,0.79020 ,3.93650 ,38.62489 
73 ,14.8405 ,0.79252 ,3.93650 ,38.62489 
74 ,15.0649 ,0.79494 ,3.90570 ,38.32268 
75 ,15.2731 ,0.79699 ,3.88516 ,38.12122 
76 ,15.4811 ,0.79909 ,3.85779 ,37.85259 
77 ,15.6891 ,0.80113 ,3.85094 ,37.78543 
78 ,15.8811 ,0.80308 ,3.80987 ,37.38249 
79 ,16.0731 ,0.80499 ,3.79619 ,37.24818 
80 ,16.2813 ,0.80702 ,3.77908 ,37.08029 
81 ,16.4894 ,0.80919 ,3.77223 ,37.01313 
82 ,16.6974 ,0.81117 ,3.73117 ,36.61019 
83 ,16.9216 ,0.81332 ,3.71748 ,36.47588 
84 ,17.1295 ,0.81553 ,3.70721 ,36.37514 
85 ,17.3219 ,0.81750 ,3.67641 ,36.07294 
86 ,17.5298 ,0.81953 ,3.66614 ,35.97220 
87 ,17.7540 ,0.82174 ,3.63192 ,35.63642 
88 ,17.9461 ,0.82375 ,3.63534 ,35.67000 
89 ,18.1700 ,0.82598 ,3.61823 ,35.50211 
90 ,18.3943 ,0.82815 ,3.58059 ,35.13275 
91 ,18.6182 ,0.83040 ,3.56006 ,34.93128 
92 ,18.8264 ,0.83248 ,3.56006 ,34.93128 
93 ,19.0184 ,0.83441 ,3.51557 ,34.49476 
94 ,19.2111 ,0.83639 ,3.52584 ,34.59549 
95 ,19.4026 ,0.83837 ,3.47792 ,34.12540 
96 ,19.5948 ,0.84019 ,3.46766 ,34.02466 
97 ,19.8030 ,0.84225 ,3.46081 ,33.95751 
98 ,20.0109 ,0.84435 ,3.44713 ,33.82319 
99 ,20.2350 ,0.84661 ,3.39921 ,33.35310 
100 ,20.4267 ,0.84849 ,3.41290 ,33.48741 
101 ,20.6352 ,0.85056 ,3.35815 ,32.95016 
102 ,20.8268 ,0.85255 ,3.36499 ,33.01731 
103 ,21.0194 ,0.85442 ,3.33762 ,32.74869 
104 ,21.2274 ,0.85650 ,3.33419 ,32.71511 
105 ,21.4354 ,0.85859 ,3.31024 ,32.48006 
106 ,21.6273 ,0.86050 ,3.29655 ,32.34575 
107 ,21.8357 ,0.86258 ,3.25206 ,31.90923 
108 ,22.0278 ,0.86465 ,3.24864 ,31.87565 
109 ,22.2194 ,0.86644 ,3.22468 ,31.64060 
110 ,22.4119 ,0.86835 ,3.22126 ,31.60702 
111 ,22.6037 ,0.87029 ,3.21100 ,31.50629 
112 ,22.8121 ,0.87235 ,3.19731 ,31.37198 
113 ,23.0202 ,0.87440 ,3.16651 ,31.06977 
114 ,23.2122 ,0.87636 ,3.15966 ,31.00262 
115 ,23.4044 ,0.87829 ,3.14255 ,30.83472 
116 ,23.5964 ,0.88028 ,3.12544 ,30.66683 
117 ,23.7720 ,0.88207 ,3.11175 ,30.53252 
118 ,23.9646 ,0.88392 ,3.09806 ,30.39821 
119 ,24.1565 ,0.88582 ,3.06726 ,30.09600 
120 ,24.3487 ,0.88775 ,3.05700 ,29.99527 
121 ,24.5568 ,0.88978 ,3.03304 ,29.76022 
122 ,24.7649 ,0.89185 ,3.02620 ,29.69306 
123 ,24.9730 ,0.89395 ,2.98513 ,29.29012 
124 ,25.1970 ,0.89615 ,2.98171 ,29.25654 
125 ,25.3891 ,0.89812 ,2.98513 ,29.29012 
126 ,25.6133 ,0.90030 ,2.94749 ,28.92076 
127 ,25.8210 ,0.90239 ,2.93722 ,28.82003 
128 ,26.0134 ,0.90447 ,2.92011 ,28.65213 
129 ,26.2056 ,0.90629 ,2.90985 ,28.55140 
130 ,26.3977 ,0.90825 ,2.87562 ,28.21562 
131 ,26.6054 ,0.91030 ,2.88247 ,28.28277 
132 ,26.7976 ,0.91226 ,2.83798 ,27.84625 
133 ,27.0214 ,0.91437 ,2.84140 ,27.87983 
134 ,27.2299 ,0.91650 ,2.82429 ,27.71194 
135 ,27.4378 ,0.91858 ,2.79007 ,27.37616 
136 ,27.6301 ,0.92050 ,2.80034 ,27.47689 
137 ,27.8381 ,0.92256 ,2.76954 ,27.17469 
138 ,28.0303 ,0.92450 ,2.76269 ,27.10753 
139 ,28.2545 ,0.92671 ,2.73189 ,26.80533 
140 ,28.4621 ,0.92883 ,2.71136 ,26.60386 
141 ,28.6545 ,0.93078 ,2.69767 ,26.46954 
142 ,28.8467 ,0.93272 ,2.69083 ,26.40239 
143 ,29.0707 ,0.93485 ,2.66345 ,26.13376 
144 ,29.2624 ,0.93693 ,2.65318 ,26.03303 
145 ,29.4549 ,0.93877 ,2.62581 ,25.76440 
146 ,29.6628 ,0.94085 ,2.61554 ,25.66367 
147 ,29.8551 ,0.94279 ,2.58816 ,25.39504 
148 ,30.0631 ,0.94482 ,2.59501 ,25.46220 
149 ,30.2713 ,0.94690 ,2.57105 ,25.22715 
150 ,30.4792 ,0.94903 ,2.55394 ,25.05926 
151 ,30.7032 ,0.95123 ,2.54710 ,24.99210 
152 ,30.9116 ,0.95334 ,2.52998 ,24.82421 
153 ,31.1195 ,0.95543 ,2.50603 ,24.58916 
154 ,31.3276 ,0.95747 ,2.49576 ,24.48842 
155 ,31.5518 ,0.95973 ,2.46154 ,24.15264 
156 ,31.7598 ,0.96180 ,2.43759 ,23.91759 
157 ,31.9677 ,0.96381 ,2.43759 ,23.91759 
158 ,32.1599 ,0.96578 ,2.41705 ,23.71612 
159 ,32.3361 ,0.96769 ,2.40679 ,23.61539 
160 ,32.5279 ,0.96949 ,2.40336 ,23.58181 
161 ,32.7363 ,0.97159 ,2.35888 ,23.14529 
162 ,32.9444 ,0.97365 ,2.36572 ,23.21245 
163 ,33.1364 ,0.97559 ,2.32808 ,22.84309 
164 ,33.3445 ,0.97760 ,2.33492 ,22.91024 
165 ,33.5684 ,0.97983 ,2.31781 ,22.74235 
166 ,33.7607 ,0.98181 ,2.30070 ,22.57446 
167 ,33.9527 ,0.98372 ,2.29043 ,22.47373 
168 ,34.1768 ,0.98595 ,2.26648 ,22.23868 
169 ,34.3689 ,0.98789 ,2.25963 ,22.17152 
170 ,34.5930 ,0.99012 ,2.21857 ,21.76858 
171 ,34.7847 ,0.99206 ,2.22541 ,21.83574 
172 ,34.9930 ,0.99411 ,2.20146 ,21.60069 
173 ,35.2018 ,0.99620 ,2.19461 ,21.53353 
174 ,35.4093 ,0.99824 ,2.18092 ,21.39922 
175 ,35.6015 ,1.00019 ,2.14328 ,21.02986 
176 ,35.8097 ,1.00226 ,2.15012 ,21.09702 
177 ,36.0337 ,1.00455 ,2.10906 ,20.69408 
178 ,36.2575 ,1.00669 ,2.09879 ,20.59334 
179 ,36.4497 ,1.00867 ,2.09195 ,20.52619 
180 ,36.7066 ,1.01118 ,2.08852 ,20.49261 
181 ,36.9140 ,1.01328 ,2.05088 ,20.12325 
182 ,37.1220 ,1.01541 ,2.05088 ,20.12325 
183 ,37.3304 ,1.01752 ,2.03035 ,19.92178 
184 ,37.5381 ,1.01950 ,1.99955 ,19.61957 
185 ,37.7464 ,1.02170 ,2.00639 ,19.68673 
186 ,37.9543 ,1.02369 ,1.96533 ,19.28379 
187 ,38.1625 ,1.02589 ,1.94822 ,19.11590 
188 ,38.3547 ,1.02775 ,1.94479 ,19.08232 
189 ,38.5784 ,1.02989 ,1.93111 ,18.94801 
190 ,38.7869 ,1.03208 ,1.93453 ,18.98158 
191 ,38.9951 ,1.03411 ,1.88319 ,18.47791 
192 ,39.1867 ,1.03605 ,1.89688 ,18.61222 
193 ,39.3952 ,1.03806 ,1.85924 ,18.24286 
194 ,39.6034 ,1.04027 ,1.86608 ,18.31002 
195 ,39.8114 ,1.04230 ,1.84213 ,18.07497 
196 ,40.0194 ,1.04431 ,1.82502 ,17.90708 
197 ,40.2275 ,1.04642 ,1.81133 ,17.77276 
198 ,40.4676 ,1.04871 ,1.78737 ,17.53772 
199 ,40.6757 ,1.05096 ,1.76342 ,17.30267 
200 ,40.8832 ,1.05303 ,1.76684 ,17.33625 
201 ,41.0913 ,1.05508 ,1.73604 ,17.03404 
202 ,41.3000 ,1.05718 ,1.73262 ,17.00046 
203 ,41.5399 ,1.05957 ,1.72578 ,16.93331 
204 ,41.7480 ,1.06171 ,1.70182 ,16.69826 
205 ,41.9563 ,1.06375 ,1.67444 ,16.42963 
206 ,42.1642 ,1.06578 ,1.68813 ,16.56395 
207 ,42.3725 ,1.06782 ,1.65391 ,16.22816 
208 ,42.5643 ,1.06985 ,1.64364 ,16.12743 
209 ,42.7565 ,1.07174 ,1.61969 ,15.89238 
210 ,42.9487 ,1.07366 ,1.62311 ,15.92596 
211 ,43.1566 ,1.07571 ,1.59916 ,15.69091 
212 ,43.3488 ,1.07761 ,1.59231 ,15.62375 
213 ,43.5725 ,1.07984 ,1.57178 ,15.42228 
214 ,43.7810 ,1.08194 ,1.57178 ,15.42228 
215 ,44.0052 ,1.08417 ,1.55467 ,15.25439 
216 ,44.2131 ,1.08627 ,1.53071 ,15.01934 
217 ,44.4053 ,1.08824 ,1.51702 ,14.88503 
218 ,44.6294 ,1.09040 ,1.49649 ,14.68356 
219 ,44.8374 ,1.09250 ,1.47253 ,14.44851 
220 ,45.0455 ,1.09462 ,1.48965 ,14.61640 
221 ,45.2535 ,1.09662 ,1.45542 ,14.28062 
222 ,45.4456 ,1.09866 ,1.45542 ,14.28062 
223 ,45.6375 ,1.10050 ,1.43489 ,14.07915 
224 ,45.8455 ,1.10261 ,1.41778 ,13.91126 
225 ,46.0378 ,1.10452 ,1.39725 ,13.70979 
226 ,46.2459 ,1.10656 ,1.39383 ,13.67621 
227 ,46.4380 ,1.10854 ,1.35960 ,13.34043 
228 ,46.6301 ,1.11040 ,1.35618 ,13.30685 
229 ,46.8223 ,1.11235 ,1.35960 ,13.34043 
230 ,47.0622 ,1.11481 ,1.34934 ,13.23969 
231 ,47.2705 ,1.11682 ,1.31854 ,12.93749 
232 ,47.4941 ,1.11904 ,1.29458 ,12.70244 
233 ,47.6865 ,1.12098 ,1.29800 ,12.73602 
234 ,47.8947 ,1.12313 ,1.26378 ,12.40024 
235 ,48.1027 ,1.12516 ,1.27405 ,12.50097 
236 ,48.2945 ,1.12713 ,1.25009 ,12.26592 
237 ,48.4869 ,1.12904 ,1.25009 ,12.26592 
238 ,48.6949 ,1.13101 ,1.21587 ,11.93014 
239 ,48.8870 ,1.13299 ,1.21929 ,11.96372 
240 ,49.1108 ,1.13507 ,1.20218 ,11.79583 
241 ,49.3191 ,1.13736 ,1.18165 ,11.59436 
242 ,49.5269 ,1.13940 ,1.17138 ,11.49362 
243 ,49.7193 ,1.14132 ,1.15770 ,11.35931 
244 ,49.9274 ,1.14339 ,1.15085 ,11.29215 
245 ,50.1193 ,1.14532 ,1.13032 ,11.09068 
246 ,50.3437 ,1.14752 ,1.10294 ,10.82206 
247 ,50.5516 ,1.14963 ,1.08925 ,10.68774 
248 ,50.7598 ,1.15173 ,1.09952 ,10.78848 
249 ,50.9677 ,1.15374 ,1.07899 ,10.58701 
250 ,51.1760 ,1.15589 ,1.05161 ,10.31838 
251 ,51.3840 ,1.15797 ,1.06187 ,10.41912 
252 ,51.6079 ,1.16021 ,1.03108 ,10.11691 
253 ,51.8003 ,1.16214 ,1.02765 ,10.08333 
254 ,52.0082 ,1.16416 ,1.00370 ,9.84829 
255 ,52.2005 ,1.16615 ,0.99685 ,9.78113 
256 ,52.4081 ,1.16817 ,0.97290 ,9.54608 
257 ,52.6168 ,1.17029 ,0.95237 ,9.34461 
258 ,52.8245 ,1.17239 ,0.97290 ,9.54608 
259 ,53.0487 ,1.17447 ,0.93525 ,9.17672 
260 ,53.2729 ,1.17680 ,0.91130 ,8.94167 
261 ,53.4809 ,1.17884 ,0.92157 ,9.04241 
262 ,53.6889 ,1.18098 ,0.88050 ,8.63947 
263 ,53.8972 ,1.18316 ,0.88392 ,8.67305 
264 ,54.0889 ,1.18502 ,0.87708 ,8.60589 
265 ,54.2973 ,1.18706 ,0.87366 ,8.57231 
266 ,54.5053 ,1.18913 ,0.85654 ,8.40442 
267 ,54.6975 ,1.19109 ,0.82917 ,8.13579 
268 ,54.8734 ,1.19297 ,0.82232 ,8.06864 
269 ,55.0656 ,1.19482 ,0.82232 ,8.06864 
270 ,55.2896 ,1.19695 ,0.78810 ,7.73285 
271 ,55.4818 ,1.19891 ,0.79495 ,7.80001 
272 ,55.7055 ,1.20116 ,0.78468 ,7.69927 
273 ,55.9139 ,1.20324 ,0.76072 ,7.46423 
274 ,56.1219 ,1.20540 ,0.75730 ,7.43065 
275 ,56.3139 ,1.20722 ,0.73335 ,7.19560 
276 ,56.5223 ,1.20935 ,0.73677 ,7.22918 
277 ,56.7301 ,1.21139 ,0.70597 ,6.92697 
278 ,56.9380 ,1.21344 ,0.70939 ,6.96055 
279 ,57.1304 ,1.21538 ,0.68544 ,6.72550 
280 ,57.3225 ,1.21734 ,0.67517 ,6.62477 
281 ,57.5307 ,1.21938 ,0.65806 ,6.45688 
282 ,57.7547 ,1.22162 ,0.65806 ,6.45688 
283 ,57.9783 ,1.22384 ,0.64437 ,6.32256 
284 ,58.2032 ,1.22617 ,0.64095 ,6.28899 
285 ,58.4108 ,1.22821 ,0.61357 ,6.02036 
286 ,58.6190 ,1.23022 ,0.60330 ,5.91962 
287 ,58.8270 ,1.23236 ,0.58962 ,5.78531 
288 ,59.0188 ,1.23423 ,0.59988 ,5.88605 
289 ,59.2274 ,1.23631 ,0.55882 ,5.48311 
290 ,59.4354 ,1.23847 ,0.55539 ,5.44953 
291 ,59.6594 ,1.24063 ,0.55539 ,5.44953 
292 ,59.8517 ,1.24261 ,0.52117 ,5.11375 
293 ,60.0596 ,1.24462 ,0.53486 ,5.24806 
294 ,60.2676 ,1.24668 ,0.50064 ,4.91228 
295 ,60.4758 ,1.24878 ,0.49380 ,4.84512 
296 ,60.6678 ,1.25076 ,0.49037 ,4.81154 
297 ,60.8598 ,1.25274 ,0.47326 ,4.64365 
298 ,61.0361 ,1.25459 ,0.45957 ,4.50934 
299 ,61.2598 ,1.25663 ,0.45957 ,4.50934 
300 ,61.4681 ,1.25876 ,0.43220 ,4.24071 
301 ,61.6764 ,1.26087 ,0.43220 ,4.24071 
302 ,61.8845 ,1.26288 ,0.43220 ,4.24071 
303 ,62.0765 ,1.26495 ,0.39797 ,3.90493 
304 ,62.2847 ,1.26689 ,0.39113 ,3.83777 
305 ,62.4925 ,1.26901 ,0.38086 ,3.73703 
306 ,62.7008 ,1.27109 ,0.37060 ,3.63630 
307 ,62.9085 ,1.27313 ,0.34664 ,3.40125 
308 ,63.1009 ,1.27510 ,0.35349 ,3.46841 
309 ,63.3091 ,1.27715 ,0.32611 ,3.19978 
310 ,63.5167 ,1.27919 ,0.33638 ,3.30052 
311 ,63.7250 ,1.28129 ,0.29189 ,2.86400 
312 ,63.9327 ,1.28347 ,0.29873 ,2.93116 
313 ,64.1569 ,1.28562 ,0.28847 ,2.83042 
314 ,64.3654 ,1.28775 ,0.28847 ,2.83042 
315 ,64.5572 ,1.28978 ,0.25082 ,2.46106 
316 ,64.7657 ,1.29169 ,0.25082 ,2.46106 
317 ,64.9736 ,1.29384 ,0.23713 ,2.32675 
318 ,65.1658 ,1.29574 ,0.24055 ,2.36032 
319 ,65.3899 ,1.29784 ,0.22344 ,2.19243 
320 ,65.5978 ,1.30005 ,0.22002 ,2.15885 
321 ,65.7901 ,1.30199 ,0.20291 ,1.99096 
322 ,65.9818 ,1.30390 ,0.19264 ,1.89023 
323 ,66.1902 ,1.30600 ,0.16869 ,1.65518 
324 ,66.3822 ,1.30789 ,0.18238 ,1.78949 
325 ,66.5744 ,1.30986 ,0.14473 ,1.42013 
326 ,66.7821 ,1.31190 ,0.15842 ,1.55445 
327 ,66.9906 ,1.31394 ,0.12762 ,1.25224 
328 ,67.1987 ,1.31604 ,0.13789 ,1.35298 
329 ,67.4070 ,1.31813 ,0.12762 ,1.25224 
330 ,67.5987 ,1.32011 ,0.11051 ,1.08435 
331 ,67.8068 ,1.32206 ,0.09682 ,0.95004 
332 ,67.9986 ,1.32409 ,0.08314 ,0.81572 
333 ,68.1906 ,1.32595 ,0.05918 ,0.58067 
334 ,68.3828 ,1.32788 ,0.07629 ,0.74857 
335 ,68.5748 ,1.32979 ,0.04549 ,0.44636 
336 ,68.7671 ,1.33171 ,0.04549 ,0.44636 
337 ,68.9594 ,1.33363 ,0.03522 ,0.34563 
338 ,69.1675 ,1.33578 ,0.01469 ,0.14416 
339 ,69.4553 ,1.33840 ,0.01127 ,0.11058 
340 ,69.6473 ,1.34054 ,-0.00584 ,-0.05731 
341 ,69.8394 ,1.34245 ,-0.00584 ,-0.05731 
342 ,70.0640 ,1.34457 ,-0.02980 ,-0.29236 
343 ,70.2879 ,1.34697 ,-0.04348 ,-0.42667 
344 ,70.4961 ,1.34903 ,-0.04691 ,-0.46025 
345 ,70.7048 ,1.35108 ,-0.06402 ,-0.62814 
346 ,70.8963 ,1.35305 ,-0.07771 ,-0.76246 
347 ,71.1045 ,1.35510 ,-0.09482 ,-0.93035 
348 ,71.3284 ,1.35726 ,-0.09482 ,-0.93035 
349 ,71.5203 ,1.35930 ,-0.09140 ,-0.89677 
350 ,71.7286 ,1.36134 ,-0.12562 ,-1.23255 
351 ,71.9368 ,1.36340 ,-0.11877 ,-1.16540 
352 ,72.1445 ,1.36544 ,-0.13588 ,-1.33329 
353 ,72.3525 ,1.36752 ,-0.14957 ,-1.46760 
354 ,72.5609 ,1.36961 ,-0.14273 ,-1.40045 
355 ,72.7688 ,1.37168 ,-0.17353 ,-1.70265 
356 ,72.9611 ,1.37366 ,-0.16668 ,-1.63549 
357 ,73.1690 ,1.37569 ,-0.18037 ,-1.76981 
358 ,73.3612 ,1.37762 ,-0.18722 ,-1.83696 
359 ,73.5691 ,1.37969 ,-0.21459 ,-2.10559 
360 ,73.7774 ,1.38187 ,-0.22828 ,-2.23990 
361 ,74.0011 ,1.38402 ,-0.21802 ,-2.13917 
362 ,74.1935 ,1.38596 ,-0.24197 ,-2.37422 
363 ,74.4015 ,1.38803 ,-0.23513 ,-2.30706 
364 ,74.5933 ,1.38994 ,-0.25566 ,-2.50853 
365 ,74.7858 ,1.39188 ,-0.25908 ,-2.54211 
366 ,74.9937 ,1.39396 ,-0.28988 ,-2.84431 
367 ,75.2179 ,1.39619 ,-0.28646 ,-2.81073 
368 ,75.4260 ,1.39825 ,-0.29330 ,-2.87789 
369 ,75.6177 ,1.40019 ,-0.29673 ,-2.91147 
370 ,75.8263 ,1.40229 ,-0.31041 ,-3.04578 
371 ,76.0343 ,1.40443 ,-0.32410 ,-3.18010 
372 ,76.2582 ,1.40659 ,-0.32068 ,-3.14652 
373 ,76.4505 ,1.40852 ,-0.35832 ,-3.51588 
374 ,76.6745 ,1.41071 ,-0.35832 ,-3.51588 
375 ,76.8664 ,1.41268 ,-0.35832 ,-3.51588 
376 ,77.0748 ,1.41475 ,-0.37544 ,-3.68377 
377 ,77.2828 ,1.41682 ,-0.37886 ,-3.71735 
378 ,77.4749 ,1.41878 ,-0.40623 ,-3.98597 
379 ,77.6828 ,1.42081 ,-0.39255 ,-3.85166 
380 ,77.8747 ,1.42279 ,-0.40966 ,-4.01955 
381 ,78.0672 ,1.42472 ,-0.41308 ,-4.05313 
382 ,78.2913 ,1.42685 ,-0.45072 ,-4.42249 
383 ,78.4995 ,1.42900 ,-0.43361 ,-4.25460 
384 ,78.7079 ,1.43104 ,-0.45757 ,-4.48965 
385 ,78.9154 ,1.43313 ,-0.46099 ,-4.52323 
386 ,79.1396 ,1.43540 ,-0.46099 ,-4.52323 
387 ,79.3638 ,1.43763 ,-0.46783 ,-4.59038 
388 ,79.5715 ,1.43970 ,-0.49863 ,-4.89259 
389 ,79.7639 ,1.44162 ,-0.48837 ,-4.79185 
390 ,79.9560 ,1.44361 ,-0.52259 ,-5.12764 
391 ,80.1798 ,1.44576 ,-0.50890 ,-4.99332 
392 ,80.4043 ,1.44802 ,-0.51917 ,-5.09406 
393 ,80.6280 ,1.45036 ,-0.54312 ,-5.32911 
394 ,80.8364 ,1.45235 ,-0.56023 ,-5.49700 
395 ,81.0443 ,1.45447 ,-0.55681 ,-5.46342 
396 ,81.2524 ,1.45656 ,-0.57050 ,-5.59773 
397 ,81.4448 ,1.45846 ,-0.56708 ,-5.56415 
398 ,81.6687 ,1.46068 ,-0.60130 ,-5.89994 
399 ,81.8768 ,1.46274 ,-0.60472 ,-5.93352 
400 ,82.0689 ,1.46474 ,-0.60814 ,-5.96709 
401 ,82.2766 ,1.46681 ,-0.62183 ,-6.10141 
402 ,82.5011 ,1.46894 ,-0.62525 ,-6.13499 
403 ,82.7097 ,1.47115 ,-0.62183 ,-6.10141 
404 ,82.9332 ,1.47328 ,-0.65263 ,-6.40361 
405 ,83.1414 ,1.47538 ,-0.64921 ,-6.37003 
406 ,83.3490 ,1.47748 ,-0.67659 ,-6.63866 
407 ,83.5574 ,1.47958 ,-0.66974 ,-6.57150 
408 ,83.7655 ,1.48162 ,-0.67316 ,-6.60508 
409 ,83.9899 ,1.48384 ,-0.70054 ,-6.87371 
410 ,84.1978 ,1.48592 ,-0.70396 ,-6.90729 
411 ,84.3898 ,1.48798 ,-0.71423 ,-7.00802 
412 ,84.5819 ,1.48987 ,-0.71423 ,-7.00802 
413 ,84.7899 ,1.49194 ,-0.73818 ,-7.24307 
414 ,84.9976 ,1.49394 ,-0.74161 ,-7.27665 
415 ,85.1901 ,1.49589 ,-0.75187 ,-7.37738 
416 ,85.4142 ,1.49808 ,-0.76556 ,-7.51170 
417 ,85.6059 ,1.50009 ,-0.75530 ,-7.41096 
418 ,85.8144 ,1.50211 ,-0.77583 ,-7.61243 
419 ,86.0224 ,1.50421 ,-0.77583 ,-7.61243 
420 ,86.2305 ,1.50628 ,-0.79636 ,-7.81390 
421 ,86.4384 ,1.50832 ,-0.79978 ,-7.84748 
422 ,86.6625 ,1.51054 ,-0.79294 ,-7.78032 
423 ,86.8707 ,1.51267 ,-0.83401 ,-8.18326 
424 ,87.0627 ,1.51471 ,-0.82716 ,-8.11611 
425 ,87.2549 ,1.51656 ,-0.83058 ,-8.14968 
426 ,87.4950 ,1.51879 ,-0.84427 ,-8.28400 
427 ,87.7189 ,1.52112 ,-0.85454 ,-8.38473 
428 ,87.9431 ,1.52342 ,-0.87165 ,-8.55262 
429 ,88.1513 ,1.52546 ,-0.86823 ,-8.51904 
430 ,88.3592 ,1.52752 ,-0.87165 ,-8.55262 
431 ,88.5674 ,1.52966 ,-0.88192 ,-8.65336 
432 ,88.7756 ,1.53175 ,-0.91614 ,-8.98914 
433 ,88.9837 ,1.53376 ,-0.88876 ,-8.72051 
434 ,89.1757 ,1.53571 ,-0.93325 ,-9.15703 
435 ,89.3839 ,1.53779 ,-0.90929 ,-8.92198 
436 ,89.5919 ,1.53988 ,-0.95378 ,-9.35850 
437 ,89.8000 ,1.54201 ,-0.95036 ,-9.32492 
438 ,90.0077 ,1.54400 ,-0.94009 ,-9.22419 
439 ,90.2162 ,1.54613 ,-0.96747 ,-9.49282 
440 ,90.4402 ,1.54835 ,-0.95378 ,-9.35850 
441 ,90.6323 ,1.55031 ,-0.97774 ,-9.59355 
442 ,90.8403 ,1.55230 ,-0.98116 ,-9.62713 
443 ,91.0324 ,1.55426 ,-1.00854 ,-9.89576 
444 ,91.2245 ,1.55629 ,-0.99143 ,-9.72786 
445 ,91.4165 ,1.55811 ,-1.02565 ,-10.06365 
446 ,91.6408 ,1.56044 ,-1.02565 ,-10.06365 
447 ,91.8486 ,1.56251 ,-1.01538 ,-9.96291 
448 ,92.0568 ,1.56457 ,-1.04960 ,-10.29869 
449 ,92.2645 ,1.56665 ,-1.04276 ,-10.23154 
450 ,92.4728 ,1.56865 ,-1.05302 ,-10.33227 
451 ,92.6651 ,1.57065 ,-1.05987 ,-10.39943 
452 ,92.8731 ,1.57272 ,-1.06329 ,-10.43301 
453 ,93.0968 ,1.57489 ,-1.07014 ,-10.50016 
454 ,93.2894 ,1.57686 ,-1.08382 ,-10.63448 
455 ,93.5135 ,1.57900 ,-1.09067 ,-10.70163 
456 ,93.7375 ,1.58132 ,-1.11120 ,-10.90310 
457 ,93.9293 ,1.58339 ,-1.10093 ,-10.80237 
458 ,94.1213 ,1.58521 ,-1.12489 ,-11.03742 
459 ,94.3139 ,1.58710 ,-1.12147 ,-11.00384 
460 ,94.5218 ,1.58919 ,-1.12831 ,-11.07100 
461 ,94.7145 ,1.59113 ,-1.14542 ,-11.23889 
462 ,94.9218 ,1.59315 ,-1.14884 ,-11.27247 
