Data stamp = , 05-05-2022 20:07:50 911

Calibration Values: 
Slope = , 26.54 , g/V 
Offset Voltage at no contact = , -0.501760 , V 

No , Time , Stage Position ,   Mass , Force 
   ,  (s) ,      (mm)      ,   (g)  , (mN)  

1 ,0.0000 ,0.64940 ,5.18559 ,50.88097 
2 ,0.2338 ,0.64949 ,5.18901 ,50.91455 
3 ,0.7784 ,0.65131 ,5.20954 ,51.11602 
4 ,1.0187 ,0.65421 ,5.20270 ,51.04886 
5 ,1.2267 ,0.65637 ,5.20270 ,51.04886 
6 ,1.4348 ,0.65845 ,5.21296 ,51.14960 
7 ,1.6429 ,0.66051 ,5.19927 ,51.01528 
8 ,1.8510 ,0.66256 ,5.18559 ,50.88097 
9 ,2.0590 ,0.66467 ,5.14794 ,50.51161 
10 ,2.2671 ,0.66685 ,5.14794 ,50.51161 
11 ,2.4753 ,0.66886 ,5.12399 ,50.27656 
12 ,2.6669 ,0.67093 ,5.10003 ,50.04151 
13 ,2.8594 ,0.67275 ,5.08977 ,49.94078 
14 ,3.0673 ,0.67483 ,5.06239 ,49.67215 
15 ,3.2595 ,0.67671 ,5.04870 ,49.53784 
16 ,3.4834 ,0.67894 ,5.01106 ,49.16848 
17 ,3.7074 ,0.68109 ,5.00763 ,49.13490 
18 ,3.9318 ,0.68346 ,4.99394 ,49.00058 
19 ,4.1720 ,0.68572 ,4.96657 ,48.73196 
20 ,4.3959 ,0.68808 ,4.92892 ,48.36260 
21 ,4.5881 ,0.69001 ,4.91181 ,48.19471 
22 ,4.7962 ,0.69209 ,4.89470 ,48.02681 
23 ,5.0200 ,0.69435 ,4.87075 ,47.79177 
24 ,5.2444 ,0.69648 ,4.85706 ,47.65745 
25 ,5.4360 ,0.69856 ,4.85364 ,47.62387 
26 ,5.6284 ,0.70038 ,4.81941 ,47.28809 
27 ,5.8365 ,0.70247 ,4.80915 ,47.18736 
28 ,6.0285 ,0.70454 ,4.77493 ,46.85157 
29 ,6.2209 ,0.70632 ,4.75782 ,46.68368 
30 ,6.4285 ,0.70840 ,4.72359 ,46.34790 
31 ,6.6206 ,0.71031 ,4.72017 ,46.31432 
32 ,6.8288 ,0.71245 ,4.69622 ,46.07927 
33 ,7.0368 ,0.71445 ,4.68253 ,45.94496 
34 ,7.2452 ,0.71653 ,4.65515 ,45.67633 
35 ,7.4532 ,0.71875 ,4.64488 ,45.57560 
36 ,7.6454 ,0.72056 ,4.61408 ,45.27339 
37 ,7.8691 ,0.72282 ,4.60040 ,45.13908 
38 ,8.0615 ,0.72471 ,4.58671 ,45.00477 
39 ,8.2857 ,0.72696 ,4.55591 ,44.70256 
40 ,8.4935 ,0.72905 ,4.55249 ,44.66898 
41 ,8.6859 ,0.73099 ,4.51142 ,44.26604 
42 ,8.8777 ,0.73298 ,4.51484 ,44.29962 
43 ,9.0854 ,0.73499 ,4.48746 ,44.03100 
44 ,9.2936 ,0.73700 ,4.48404 ,43.99742 
45 ,9.4856 ,0.73901 ,4.43271 ,43.49374 
46 ,9.6943 ,0.74105 ,4.43955 ,43.56090 
47 ,9.9179 ,0.74328 ,4.42929 ,43.46016 
48 ,10.1102 ,0.74522 ,4.38822 ,43.05723 
49 ,10.3179 ,0.74727 ,4.38138 ,42.99007 
50 ,10.5260 ,0.74937 ,4.34373 ,42.62071 
51 ,10.7505 ,0.75152 ,4.34373 ,42.62071 
52 ,10.9909 ,0.75402 ,4.30267 ,42.21777 
53 ,11.1985 ,0.75606 ,4.28898 ,42.08345 
54 ,11.4225 ,0.75829 ,4.26160 ,41.81483 
55 ,11.6149 ,0.76036 ,4.25133 ,41.71409 
56 ,11.8230 ,0.76232 ,4.23422 ,41.54620 
57 ,12.0152 ,0.76427 ,4.22738 ,41.47905 
58 ,12.2231 ,0.76632 ,4.19316 ,41.14326 
59 ,12.4309 ,0.76838 ,4.17947 ,41.00895 
60 ,12.6393 ,0.77043 ,4.14867 ,40.70674 
61 ,12.8634 ,0.77269 ,4.11787 ,40.40454 
62 ,13.0555 ,0.77465 ,4.13156 ,40.53885 
63 ,13.2636 ,0.77675 ,4.09391 ,40.16949 
64 ,13.4717 ,0.77879 ,4.07680 ,40.00160 
65 ,13.6798 ,0.78091 ,4.06312 ,39.86729 
66 ,13.8719 ,0.78284 ,4.03916 ,39.63224 
67 ,14.0475 ,0.78470 ,4.02205 ,39.46435 
68 ,14.2554 ,0.78676 ,4.00494 ,39.29646 
69 ,14.4635 ,0.78880 ,3.98783 ,39.12856 
70 ,14.7838 ,0.79144 ,3.96387 ,38.89352 
71 ,15.0078 ,0.79416 ,3.92281 ,38.49058 
72 ,15.2162 ,0.79629 ,3.92965 ,38.55773 
73 ,15.4560 ,0.79870 ,3.90912 ,38.35626 
74 ,15.6641 ,0.80072 ,3.86805 ,37.95332 
75 ,15.8722 ,0.80276 ,3.86805 ,37.95332 
76 ,16.0805 ,0.80489 ,3.84752 ,37.75185 
77 ,16.2889 ,0.80699 ,3.81330 ,37.41607 
78 ,16.5125 ,0.80916 ,3.80303 ,37.31534 
79 ,16.7051 ,0.81114 ,3.78250 ,37.11387 
80 ,16.9127 ,0.81316 ,3.76881 ,36.97955 
81 ,17.1209 ,0.81531 ,3.75170 ,36.81166 
82 ,17.3289 ,0.81737 ,3.70721 ,36.37514 
83 ,17.5372 ,0.81939 ,3.72090 ,36.50946 
84 ,17.7453 ,0.82158 ,3.67641 ,36.07294 
85 ,17.9536 ,0.82361 ,3.66614 ,35.97220 
86 ,18.1938 ,0.82585 ,3.65588 ,35.87147 
87 ,18.4173 ,0.82820 ,3.62850 ,35.60284 
88 ,18.6256 ,0.83033 ,3.58743 ,35.19990 
89 ,18.8339 ,0.83240 ,3.59086 ,35.23348 
90 ,19.0260 ,0.83442 ,3.57375 ,35.06559 
91 ,19.2177 ,0.83626 ,3.56348 ,34.96485 
92 ,19.4103 ,0.83826 ,3.52584 ,34.59549 
93 ,19.6180 ,0.84025 ,3.51899 ,34.52834 
94 ,19.8264 ,0.84244 ,3.49846 ,34.32687 
95 ,20.0505 ,0.84452 ,3.46424 ,33.99108 
96 ,20.2422 ,0.84658 ,3.48135 ,34.15898 
97 ,20.4505 ,0.84856 ,3.43686 ,33.72246 
98 ,20.6585 ,0.85060 ,3.42659 ,33.62172 
99 ,20.8667 ,0.85279 ,3.39579 ,33.31952 
100 ,21.0907 ,0.85484 ,3.38210 ,33.18520 
101 ,21.2989 ,0.85700 ,3.36842 ,33.05089 
102 ,21.5232 ,0.85926 ,3.35130 ,32.88300 
103 ,21.7470 ,0.86149 ,3.32051 ,32.58080 
104 ,21.9554 ,0.86359 ,3.31024 ,32.48006 
105 ,22.1635 ,0.86566 ,3.27944 ,32.17786 
106 ,22.3715 ,0.86771 ,3.26917 ,32.07712 
107 ,22.5796 ,0.86985 ,3.24864 ,31.87565 
108 ,22.7875 ,0.87197 ,3.23495 ,31.74134 
109 ,22.9798 ,0.87385 ,3.23153 ,31.70776 
110 ,23.1879 ,0.87596 ,3.21442 ,31.53987 
111 ,23.3800 ,0.87786 ,3.19046 ,31.30482 
112 ,23.5876 ,0.87988 ,3.16309 ,31.03619 
113 ,23.7962 ,0.88192 ,3.15282 ,30.93546 
114 ,24.0201 ,0.88418 ,3.14597 ,30.86830 
115 ,24.2281 ,0.88630 ,3.10149 ,30.43178 
116 ,24.4362 ,0.88834 ,3.09464 ,30.36463 
117 ,24.6439 ,0.89058 ,3.08095 ,30.23031 
118 ,24.8526 ,0.89255 ,3.03304 ,29.76022 
119 ,25.0606 ,0.89468 ,3.05358 ,29.96169 
120 ,25.2366 ,0.89654 ,3.01251 ,29.55875 
121 ,25.4286 ,0.89834 ,2.99882 ,29.42444 
122 ,25.6529 ,0.90042 ,2.98855 ,29.32370 
123 ,25.8608 ,0.90258 ,2.97829 ,29.22297 
124 ,26.0853 ,0.90489 ,2.95776 ,29.02150 
125 ,26.2931 ,0.90698 ,2.93038 ,28.75287 
126 ,26.4853 ,0.90895 ,2.92353 ,28.68571 
127 ,26.6933 ,0.91100 ,2.88931 ,28.34993 
128 ,26.8850 ,0.91290 ,2.88931 ,28.34993 
129 ,27.0775 ,0.91485 ,2.85851 ,28.04772 
130 ,27.2856 ,0.91686 ,2.85167 ,27.98057 
131 ,27.4936 ,0.91890 ,2.83798 ,27.84625 
132 ,27.6857 ,0.92094 ,2.82771 ,27.74552 
133 ,27.8780 ,0.92278 ,2.79691 ,27.44332 
134 ,28.0860 ,0.92488 ,2.77980 ,27.27542 
135 ,28.2938 ,0.92703 ,2.75243 ,27.00680 
136 ,28.5021 ,0.92906 ,2.76611 ,27.14111 
137 ,28.7101 ,0.93109 ,2.71820 ,26.67101 
138 ,28.9180 ,0.93323 ,2.71478 ,26.63744 
139 ,29.1262 ,0.93527 ,2.69425 ,26.43597 
140 ,29.3182 ,0.93722 ,2.69767 ,26.46954 
141 ,29.5266 ,0.93934 ,2.66003 ,26.10018 
142 ,29.7343 ,0.94138 ,2.63949 ,25.89871 
143 ,29.9427 ,0.94346 ,2.64292 ,25.93229 
144 ,30.1664 ,0.94565 ,2.61212 ,25.63009 
145 ,30.3588 ,0.94763 ,2.59843 ,25.49577 
146 ,30.5669 ,0.94969 ,2.58816 ,25.39504 
147 ,30.7750 ,0.95175 ,2.56421 ,25.15999 
148 ,30.9832 ,0.95388 ,2.55394 ,25.05926 
149 ,31.1909 ,0.95595 ,2.53341 ,24.85779 
150 ,31.3992 ,0.95802 ,2.52656 ,24.79063 
151 ,31.6233 ,0.96022 ,2.49918 ,24.52200 
152 ,31.8154 ,0.96218 ,2.46154 ,24.15264 
153 ,32.0394 ,0.96441 ,2.46839 ,24.21980 
154 ,32.2476 ,0.96643 ,2.44785 ,24.01833 
155 ,32.4394 ,0.96849 ,2.42732 ,23.81686 
156 ,32.6318 ,0.97034 ,2.41021 ,23.64897 
157 ,32.8398 ,0.97236 ,2.39652 ,23.51465 
158 ,33.0477 ,0.97451 ,2.39652 ,23.51465 
159 ,33.2559 ,0.97650 ,2.35545 ,23.11171 
160 ,33.4636 ,0.97865 ,2.36230 ,23.17887 
161 ,33.6722 ,0.98075 ,2.32123 ,22.77593 
162 ,33.8803 ,0.98279 ,2.30070 ,22.57446 
163 ,34.0880 ,0.98484 ,2.29728 ,22.54088 
164 ,34.2804 ,0.98681 ,2.27332 ,22.30584 
165 ,34.4880 ,0.98886 ,2.27332 ,22.30584 
166 ,34.6966 ,0.99092 ,2.24252 ,22.00363 
167 ,34.9207 ,0.99316 ,2.22541 ,21.83574 
168 ,35.1285 ,0.99528 ,2.21172 ,21.70143 
169 ,35.3368 ,0.99738 ,2.17408 ,21.33206 
170 ,35.5288 ,0.99931 ,2.18777 ,21.46638 
171 ,35.7211 ,1.00125 ,2.15697 ,21.16417 
172 ,35.9130 ,1.00316 ,2.13301 ,20.92912 
173 ,36.1212 ,1.00517 ,2.13986 ,20.99628 
174 ,36.3133 ,1.00714 ,2.11590 ,20.76123 
175 ,36.5372 ,1.00933 ,2.09537 ,20.55976 
176 ,36.7291 ,1.01134 ,2.08852 ,20.49261 
177 ,36.9531 ,1.01357 ,2.06115 ,20.22398 
178 ,37.1615 ,1.01565 ,2.05088 ,20.12325 
179 ,37.3537 ,1.01755 ,2.03377 ,19.95535 
180 ,37.5619 ,1.01960 ,2.02693 ,19.88820 
181 ,37.7859 ,1.02182 ,2.00982 ,19.72031 
182 ,37.9778 ,1.02380 ,1.98244 ,19.45168 
183 ,38.2020 ,1.02596 ,1.97559 ,19.38452 
184 ,38.4101 ,1.02806 ,1.95164 ,19.14948 
185 ,38.5862 ,1.03001 ,1.92768 ,18.91443 
186 ,38.7784 ,1.03183 ,1.91057 ,18.74654 
187 ,38.9860 ,1.03383 ,1.92426 ,18.88085 
188 ,39.1946 ,1.03594 ,1.89004 ,18.54507 
189 ,39.4025 ,1.03801 ,1.88319 ,18.47791 
190 ,39.5948 ,1.03998 ,1.86951 ,18.34360 
191 ,39.8027 ,1.04198 ,1.84555 ,18.10855 
192 ,39.9948 ,1.04395 ,1.84213 ,18.07497 
193 ,40.2030 ,1.04600 ,1.81817 ,17.83992 
194 ,40.4110 ,1.04808 ,1.80791 ,17.73919 
195 ,40.6191 ,1.05015 ,1.77369 ,17.40340 
196 ,40.8272 ,1.05228 ,1.77369 ,17.40340 
197 ,41.0351 ,1.05429 ,1.75657 ,17.23551 
198 ,41.2593 ,1.05655 ,1.73604 ,17.03404 
199 ,41.4512 ,1.05856 ,1.73262 ,17.00046 
200 ,41.6595 ,1.06053 ,1.70524 ,16.73184 
201 ,41.8674 ,1.06269 ,1.70182 ,16.69826 
202 ,42.0756 ,1.06476 ,1.67444 ,16.42963 
203 ,42.2993 ,1.06693 ,1.65733 ,16.26174 
204 ,42.5076 ,1.06907 ,1.64707 ,16.16101 
205 ,42.7158 ,1.07109 ,1.62653 ,15.95954 
206 ,42.9079 ,1.07307 ,1.63338 ,16.02669 
207 ,43.1001 ,1.07498 ,1.59916 ,15.69091 
208 ,43.3081 ,1.07703 ,1.59916 ,15.69091 
209 ,43.4998 ,1.07898 ,1.56836 ,15.38871 
210 ,43.6924 ,1.08089 ,1.56836 ,15.38871 
211 ,43.9004 ,1.08291 ,1.53756 ,15.08650 
212 ,44.1085 ,1.08509 ,1.53756 ,15.08650 
213 ,44.3166 ,1.08713 ,1.51360 ,14.85145 
214 ,44.5243 ,1.08930 ,1.49307 ,14.64998 
215 ,44.7328 ,1.09133 ,1.49991 ,14.71714 
216 ,44.9409 ,1.09339 ,1.46227 ,14.34778 
217 ,45.1487 ,1.09547 ,1.47253 ,14.44851 
218 ,45.3410 ,1.09738 ,1.43831 ,14.11273 
219 ,45.5490 ,1.09945 ,1.44516 ,14.17989 
220 ,45.7410 ,1.10142 ,1.40067 ,13.74337 
221 ,45.9490 ,1.10343 ,1.40751 ,13.81053 
222 ,46.1734 ,1.10557 ,1.37671 ,13.50832 
223 ,46.3815 ,1.10779 ,1.35618 ,13.30685 
224 ,46.5894 ,1.10984 ,1.36303 ,13.37401 
225 ,46.7974 ,1.11193 ,1.32880 ,13.03822 
226 ,46.9898 ,1.11385 ,1.32880 ,13.03822 
227 ,47.2297 ,1.11621 ,1.32196 ,12.97107 
228 ,47.4378 ,1.11837 ,1.29116 ,12.66886 
229 ,47.6460 ,1.12037 ,1.28432 ,12.60171 
230 ,47.8376 ,1.12242 ,1.26720 ,12.43381 
231 ,48.0462 ,1.12440 ,1.24667 ,12.23235 
232 ,48.2700 ,1.12665 ,1.23983 ,12.16519 
233 ,48.4780 ,1.12869 ,1.22614 ,12.03088 
234 ,48.6701 ,1.13066 ,1.22614 ,12.03088 
235 ,48.8784 ,1.13271 ,1.18850 ,11.66151 
236 ,49.1025 ,1.13497 ,1.18850 ,11.66151 
237 ,49.3107 ,1.13702 ,1.17823 ,11.56078 
238 ,49.5187 ,1.13923 ,1.16112 ,11.39289 
239 ,49.7428 ,1.14134 ,1.12690 ,11.05710 
240 ,49.9349 ,1.14331 ,1.14058 ,11.19142 
241 ,50.1271 ,1.14525 ,1.10294 ,10.82206 
242 ,50.3511 ,1.14742 ,1.11321 ,10.92279 
243 ,50.5431 ,1.14946 ,1.08241 ,10.62059 
244 ,50.7671 ,1.15160 ,1.05845 ,10.38554 
245 ,50.9591 ,1.15355 ,1.06187 ,10.41912 
246 ,51.1670 ,1.15555 ,1.05503 ,10.35196 
247 ,51.3916 ,1.15772 ,1.02081 ,10.01618 
248 ,51.5996 ,1.15994 ,1.01739 ,9.98260 
249 ,51.8074 ,1.16201 ,0.99001 ,9.71397 
250 ,52.0159 ,1.16415 ,1.01054 ,9.91544 
251 ,52.2235 ,1.16613 ,0.96948 ,9.51250 
252 ,52.4478 ,1.16830 ,0.96948 ,9.51250 
253 ,52.6561 ,1.17052 ,0.96948 ,9.51250 
254 ,52.8641 ,1.17257 ,0.92157 ,9.04241 
255 ,53.0879 ,1.17478 ,0.92499 ,9.07598 
256 ,53.3122 ,1.17701 ,0.92499 ,9.07598 
257 ,53.5204 ,1.17918 ,0.89077 ,8.74020 
258 ,53.7445 ,1.18129 ,0.87708 ,8.60589 
259 ,53.9681 ,1.18361 ,0.86681 ,8.50515 
260 ,54.1604 ,1.18552 ,0.84970 ,8.33726 
261 ,54.3527 ,1.18746 ,0.83259 ,8.16937 
262 ,54.5608 ,1.18948 ,0.81206 ,7.96790 
263 ,54.7688 ,1.19158 ,0.80863 ,7.93432 
264 ,54.9609 ,1.19359 ,0.80863 ,7.93432 
265 ,55.1691 ,1.19557 ,0.78468 ,7.69927 
266 ,55.3768 ,1.19769 ,0.78468 ,7.69927 
267 ,55.6007 ,1.19987 ,0.75730 ,7.43065 
268 ,55.8094 ,1.20202 ,0.74019 ,7.26276 
269 ,56.0175 ,1.20412 ,0.73335 ,7.19560 
270 ,56.2095 ,1.20601 ,0.71281 ,6.99413 
271 ,56.4017 ,1.20798 ,0.71966 ,7.06129 
272 ,56.6096 ,1.21000 ,0.68544 ,6.72550 
273 ,56.8174 ,1.21210 ,0.70255 ,6.89340 
274 ,57.0259 ,1.21419 ,0.66148 ,6.49046 
275 ,57.2341 ,1.21627 ,0.67859 ,6.65835 
276 ,57.4421 ,1.21837 ,0.64437 ,6.32256 
277 ,57.6501 ,1.22041 ,0.63068 ,6.18825 
278 ,57.8418 ,1.22244 ,0.63068 ,6.18825 
279 ,58.0341 ,1.22427 ,0.61357 ,6.02036 
280 ,58.2583 ,1.22653 ,0.61357 ,6.02036 
281 ,58.4665 ,1.22857 ,0.58619 ,5.75173 
282 ,58.6744 ,1.23063 ,0.58619 ,5.75173 
283 ,58.8824 ,1.23270 ,0.55539 ,5.44953 
284 ,59.0905 ,1.23480 ,0.55197 ,5.41595 
285 ,59.2989 ,1.23688 ,0.55197 ,5.41595 
286 ,59.5067 ,1.23895 ,0.51091 ,5.01301 
287 ,59.7151 ,1.24112 ,0.50406 ,4.94585 
288 ,59.9547 ,1.24347 ,0.51433 ,5.04659 
289 ,60.1633 ,1.24555 ,0.47668 ,4.67723 
290 ,60.3872 ,1.24781 ,0.46300 ,4.54291 
291 ,60.5952 ,1.24983 ,0.46300 ,4.54291 
292 ,60.7875 ,1.25181 ,0.43562 ,4.27429 
293 ,60.9955 ,1.25385 ,0.44246 ,4.34144 
294 ,61.2037 ,1.25589 ,0.42535 ,4.17355 
295 ,61.3960 ,1.25789 ,0.40824 ,4.00566 
296 ,61.6039 ,1.25994 ,0.40482 ,3.97208 
297 ,61.8120 ,1.26197 ,0.39455 ,3.87135 
298 ,62.0359 ,1.26423 ,0.38771 ,3.80419 
299 ,62.2435 ,1.26630 ,0.35006 ,3.43483 
300 ,62.4360 ,1.26829 ,0.35006 ,3.43483 
301 ,62.6281 ,1.27026 ,0.35006 ,3.43483 
302 ,62.8363 ,1.27224 ,0.33638 ,3.30052 
303 ,63.0283 ,1.27420 ,0.30558 ,2.99831 
304 ,63.2363 ,1.27625 ,0.31584 ,3.09905 
305 ,63.4446 ,1.27829 ,0.29189 ,2.86400 
306 ,63.6526 ,1.28040 ,0.28162 ,2.76326 
307 ,63.8606 ,1.28246 ,0.27478 ,2.69611 
308 ,64.0688 ,1.28454 ,0.24740 ,2.42748 
309 ,64.2768 ,1.28664 ,0.26109 ,2.56179 
310 ,64.4524 ,1.28857 ,0.23029 ,2.25959 
311 ,64.6449 ,1.29033 ,0.23371 ,2.29317 
312 ,64.8369 ,1.29225 ,0.22002 ,2.15885 
313 ,65.0452 ,1.29435 ,0.21660 ,2.12528 
314 ,65.2531 ,1.29638 ,0.18922 ,1.85665 
315 ,65.4611 ,1.29857 ,0.18922 ,1.85665 
316 ,65.6851 ,1.30072 ,0.17896 ,1.75592 
317 ,65.8774 ,1.30271 ,0.15842 ,1.55445 
318 ,66.0696 ,1.30461 ,0.14473 ,1.42013 
319 ,66.2618 ,1.30655 ,0.15842 ,1.55445 
320 ,66.4698 ,1.30852 ,0.12078 ,1.18508 
321 ,66.6773 ,1.31065 ,0.11736 ,1.15151 
322 ,66.8699 ,1.31256 ,0.09682 ,0.95004 
323 ,67.0780 ,1.31460 ,0.10709 ,1.05077 
324 ,67.2862 ,1.31671 ,0.09682 ,0.95004 
325 ,67.4778 ,1.31868 ,0.07971 ,0.78214 
326 ,67.6703 ,1.32056 ,0.05576 ,0.54710 
327 ,67.8944 ,1.32282 ,0.05918 ,0.58067 
328 ,68.1024 ,1.32493 ,0.05576 ,0.54710 
329 ,68.3103 ,1.32694 ,0.01811 ,0.17773 
330 ,68.5185 ,1.32904 ,0.01469 ,0.14416 
331 ,68.7264 ,1.33123 ,0.02496 ,0.24489 
332 ,68.9183 ,1.33307 ,0.01127 ,0.11058 
333 ,69.1424 ,1.33533 ,-0.00584 ,-0.05731 
334 ,69.3346 ,1.33731 ,-0.04348 ,-0.42667 
335 ,69.5426 ,1.33925 ,-0.02295 ,-0.22520 
336 ,69.7670 ,1.34152 ,-0.03664 ,-0.35952 
337 ,69.9748 ,1.34365 ,-0.08455 ,-0.82961 
338 ,70.1673 ,1.34557 ,-0.06402 ,-0.62814 
339 ,70.3754 ,1.34766 ,-0.08455 ,-0.82961 
340 ,70.5991 ,1.34986 ,-0.09140 ,-0.89677 
341 ,70.8231 ,1.35210 ,-0.08797 ,-0.86319 
342 ,71.0151 ,1.35413 ,-0.12219 ,-1.19898 
343 ,71.2556 ,1.35628 ,-0.12904 ,-1.26613 
344 ,71.5119 ,1.35900 ,-0.13246 ,-1.29971 
345 ,71.7200 ,1.36109 ,-0.14615 ,-1.43402 
346 ,71.9441 ,1.36328 ,-0.14957 ,-1.46760 
347 ,72.1520 ,1.36534 ,-0.17353 ,-1.70265 
348 ,72.3602 ,1.36751 ,-0.17011 ,-1.66907 
349 ,72.5681 ,1.36956 ,-0.18722 ,-1.83696 
350 ,72.7764 ,1.37160 ,-0.20433 ,-2.00485 
351 ,72.9846 ,1.37372 ,-0.20775 ,-2.03843 
352 ,73.1925 ,1.37580 ,-0.22828 ,-2.23990 
353 ,73.4003 ,1.37778 ,-0.23170 ,-2.27348 
354 ,73.6085 ,1.37997 ,-0.24197 ,-2.37422 
355 ,73.8167 ,1.38204 ,-0.26250 ,-2.57569 
356 ,74.0247 ,1.38407 ,-0.25224 ,-2.47495 
357 ,74.2330 ,1.38615 ,-0.27277 ,-2.67642 
358 ,74.4405 ,1.38834 ,-0.29673 ,-2.91147 
359 ,74.6329 ,1.39022 ,-0.29673 ,-2.91147 
360 ,74.8411 ,1.39226 ,-0.30699 ,-3.01220 
361 ,75.0489 ,1.39428 ,-0.31384 ,-3.07936 
362 ,75.2573 ,1.39648 ,-0.33095 ,-3.24725 
363 ,75.4810 ,1.39863 ,-0.33095 ,-3.24725 
364 ,75.6892 ,1.40076 ,-0.33437 ,-3.28083 
365 ,75.8815 ,1.40266 ,-0.36517 ,-3.58303 
366 ,76.0738 ,1.40465 ,-0.36175 ,-3.54946 
367 ,76.2976 ,1.40680 ,-0.38228 ,-3.75093 
368 ,76.4899 ,1.40877 ,-0.37201 ,-3.65019 
369 ,76.6979 ,1.41077 ,-0.40966 ,-4.01955 
370 ,76.8899 ,1.41278 ,-0.38570 ,-3.78450 
371 ,77.0822 ,1.41466 ,-0.40966 ,-4.01955 
372 ,77.2902 ,1.41672 ,-0.41650 ,-4.08671 
373 ,77.4981 ,1.41884 ,-0.43703 ,-4.28818 
374 ,77.6899 ,1.42077 ,-0.43019 ,-4.22102 
375 ,77.8985 ,1.42285 ,-0.46099 ,-4.52323 
376 ,78.1225 ,1.42505 ,-0.45414 ,-4.45607 
377 ,78.3465 ,1.42725 ,-0.44730 ,-4.38891 
378 ,78.5386 ,1.42924 ,-0.48494 ,-4.75828 
379 ,78.7625 ,1.43145 ,-0.48494 ,-4.75828 
380 ,78.9709 ,1.43358 ,-0.50890 ,-4.99332 
381 ,79.1950 ,1.43574 ,-0.50206 ,-4.92617 
382 ,79.4031 ,1.43779 ,-0.51232 ,-5.02690 
383 ,79.6111 ,1.43999 ,-0.52259 ,-5.12764 
384 ,79.8191 ,1.44205 ,-0.54312 ,-5.32911 
385 ,80.0272 ,1.44418 ,-0.54312 ,-5.32911 
386 ,80.2192 ,1.44604 ,-0.57050 ,-5.59773 
387 ,80.4272 ,1.44811 ,-0.55339 ,-5.42984 
388 ,80.6351 ,1.45012 ,-0.58761 ,-5.76562 
389 ,80.8596 ,1.45229 ,-0.58419 ,-5.73205 
390 ,81.0833 ,1.45461 ,-0.59788 ,-5.86636 
391 ,81.2758 ,1.45656 ,-0.61499 ,-6.03425 
392 ,81.4678 ,1.45850 ,-0.60814 ,-5.96709 
393 ,81.6757 ,1.46056 ,-0.63210 ,-6.20214 
394 ,81.8841 ,1.46266 ,-0.64579 ,-6.33646 
395 ,82.0919 ,1.46476 ,-0.62868 ,-6.16856 
396 ,82.3001 ,1.46680 ,-0.66974 ,-6.57150 
397 ,82.5080 ,1.46887 ,-0.64921 ,-6.37003 
398 ,82.7163 ,1.47095 ,-0.68001 ,-6.67224 
399 ,82.9244 ,1.47302 ,-0.67316 ,-6.60508 
400 ,83.1166 ,1.47500 ,-0.67659 ,-6.63866 
401 ,83.3246 ,1.47704 ,-0.69027 ,-6.77297 
402 ,83.5328 ,1.47914 ,-0.70396 ,-6.90729 
403 ,83.7408 ,1.48115 ,-0.73134 ,-7.17591 
404 ,83.9810 ,1.48349 ,-0.73134 ,-7.17591 
405 ,84.1886 ,1.48569 ,-0.72450 ,-7.10876 
406 ,84.3805 ,1.48760 ,-0.74503 ,-7.31023 
407 ,84.5729 ,1.48956 ,-0.74161 ,-7.27665 
408 ,84.7652 ,1.49155 ,-0.76898 ,-7.54527 
409 ,84.9574 ,1.49341 ,-0.76214 ,-7.47812 
410 ,85.1654 ,1.49547 ,-0.77925 ,-7.64601 
411 ,85.3735 ,1.49758 ,-0.77241 ,-7.57885 
412 ,85.5817 ,1.49968 ,-0.80321 ,-7.88106 
413 ,85.7898 ,1.50178 ,-0.79978 ,-7.84748 
414 ,85.9977 ,1.50380 ,-0.80663 ,-7.91464 
415 ,86.2060 ,1.50586 ,-0.82374 ,-8.08253 
416 ,86.4139 ,1.50793 ,-0.81689 ,-8.01537 
417 ,86.6060 ,1.50994 ,-0.84427 ,-8.28400 
418 ,86.8141 ,1.51191 ,-0.83401 ,-8.18326 
419 ,87.0221 ,1.51402 ,-0.85796 ,-8.41831 
420 ,87.2301 ,1.51609 ,-0.85454 ,-8.38473 
421 ,87.4224 ,1.51803 ,-0.88192 ,-8.65336 
422 ,87.6141 ,1.52007 ,-0.87165 ,-8.55262 
423 ,87.8226 ,1.52199 ,-0.89903 ,-8.82125 
424 ,88.0466 ,1.52424 ,-0.89903 ,-8.82125 
425 ,88.2387 ,1.52621 ,-0.90245 ,-8.85483 
426 ,88.4628 ,1.52833 ,-0.92298 ,-9.05630 
427 ,88.6710 ,1.53049 ,-0.92298 ,-9.05630 
428 ,88.8953 ,1.53274 ,-0.92640 ,-9.08988 
429 ,89.0872 ,1.53481 ,-0.95720 ,-9.39208 
430 ,89.2953 ,1.53673 ,-0.95378 ,-9.35850 
431 ,89.5192 ,1.53895 ,-0.96405 ,-9.45924 
432 ,89.7272 ,1.54118 ,-0.98116 ,-9.62713 
433 ,89.9192 ,1.54298 ,-0.97774 ,-9.59355 
434 ,90.1275 ,1.54508 ,-0.98458 ,-9.66071 
435 ,90.3351 ,1.54711 ,-0.98800 ,-9.69429 
436 ,90.5277 ,1.54911 ,-1.00511 ,-9.86218 
437 ,90.7359 ,1.55113 ,-1.00169 ,-9.82860 
438 ,90.9434 ,1.55320 ,-1.03249 ,-10.13080 
439 ,91.1358 ,1.55524 ,-1.02907 ,-10.09723 
440 ,91.3279 ,1.55708 ,-1.03249 ,-10.13080 
441 ,91.5841 ,1.55956 ,-1.03934 ,-10.19796 
442 ,91.7761 ,1.56163 ,-1.04618 ,-10.26512 
443 ,91.9842 ,1.56364 ,-1.07014 ,-10.50016 
444 ,92.2081 ,1.56590 ,-1.05302 ,-10.33227 
445 ,92.4164 ,1.56797 ,-1.07014 ,-10.50016 
446 ,92.6243 ,1.56999 ,-1.08382 ,-10.63448 
447 ,92.8325 ,1.57211 ,-1.07356 ,-10.53374 
448 ,93.0566 ,1.57429 ,-1.10436 ,-10.83595 
449 ,93.2646 ,1.57642 ,-1.12147 ,-11.00384 
450 ,93.4728 ,1.57850 ,-1.10778 ,-10.86953 
451 ,93.6809 ,1.58060 ,-1.13173 ,-11.10457 
452 ,93.8890 ,1.58264 ,-1.13516 ,-11.13815 
453 ,94.0811 ,1.58460 ,-1.14884 ,-11.27247 
454 ,94.2727 ,1.58662 ,-1.15911 ,-11.37320 
455 ,94.4813 ,1.58855 ,-1.15911 ,-11.37320 
456 ,94.7053 ,1.59081 ,-1.17964 ,-11.57467 
457 ,94.8979 ,1.59276 ,-1.16253 ,-11.40678 
458 ,95.1055 ,1.59483 ,-1.18649 ,-11.64183 
459 ,95.3293 ,1.59706 ,-1.19333 ,-11.70898 
460 ,95.5537 ,1.59920 ,-1.21387 ,-11.91045 
461 ,95.7615 ,1.60134 ,-1.21729 ,-11.94403 
