Data stamp = , 04-05-2022 21:06:43 862

Calibration Values: 
Slope = , 26.54 , g/V 
Offset Voltage at no contact = , -0.501760 , V 

No , Time , Stage Position ,   Mass , Force 
   ,  (s) ,      (mm)      ,   (g)  , (mN)  

1 ,0.0000 ,0.64949 ,5.25745 ,51.58611 
2 ,0.2171 ,0.64957 ,5.24376 ,51.45180 
3 ,0.6498 ,0.65096 ,5.25403 ,51.55254 
4 ,0.8898 ,0.65307 ,5.25403 ,51.55254 
5 ,1.0978 ,0.65516 ,5.25403 ,51.55254 
6 ,1.3219 ,0.65742 ,5.25061 ,51.51896 
7 ,1.5300 ,0.65956 ,5.26087 ,51.61969 
8 ,1.7381 ,0.66158 ,5.26087 ,51.61969 
9 ,1.9460 ,0.66365 ,5.25061 ,51.51896 
10 ,2.1543 ,0.66578 ,5.24376 ,51.45180 
11 ,2.3783 ,0.66800 ,5.22323 ,51.25033 
12 ,2.6023 ,0.67023 ,5.19585 ,50.98170 
13 ,2.7945 ,0.67217 ,5.17874 ,50.81381 
14 ,2.9865 ,0.67409 ,5.15136 ,50.54519 
15 ,3.1788 ,0.67604 ,5.14794 ,50.51161 
16 ,3.4183 ,0.67842 ,5.11030 ,50.14225 
17 ,3.6110 ,0.68037 ,5.09319 ,49.97436 
18 ,3.8190 ,0.68246 ,5.08292 ,49.87362 
19 ,4.0112 ,0.68431 ,5.04528 ,49.50426 
20 ,4.2192 ,0.68638 ,5.04528 ,49.50426 
21 ,4.3953 ,0.68833 ,5.00763 ,49.13490 
22 ,4.5714 ,0.69007 ,4.99394 ,49.00058 
23 ,4.7635 ,0.69189 ,4.98710 ,48.93343 
24 ,4.9715 ,0.69391 ,4.96657 ,48.73196 
25 ,5.1475 ,0.69584 ,4.94946 ,48.56407 
26 ,5.3399 ,0.69767 ,4.94946 ,48.56407 
27 ,5.5319 ,0.69958 ,4.90839 ,48.16113 
28 ,5.7399 ,0.70161 ,4.89128 ,47.99324 
29 ,5.9480 ,0.70372 ,4.85706 ,47.65745 
30 ,6.1716 ,0.70591 ,4.85364 ,47.62387 
31 ,6.3642 ,0.70783 ,4.83652 ,47.45598 
32 ,6.5884 ,0.71003 ,4.79204 ,47.01946 
33 ,6.7803 ,0.71210 ,4.80573 ,47.15378 
34 ,6.9725 ,0.71395 ,4.77150 ,46.81800 
35 ,7.1647 ,0.71588 ,4.76466 ,46.75084 
36 ,7.3727 ,0.71792 ,4.73044 ,46.41506 
37 ,7.5646 ,0.71989 ,4.72017 ,46.31432 
38 ,7.7726 ,0.72194 ,4.68595 ,45.97854 
39 ,7.9809 ,0.72408 ,4.67911 ,45.91138 
40 ,8.1891 ,0.72611 ,4.65515 ,45.67633 
41 ,8.3970 ,0.72814 ,4.65515 ,45.67633 
42 ,8.5893 ,0.73015 ,4.61066 ,45.23981 
43 ,8.7970 ,0.73214 ,4.61751 ,45.30697 
44 ,8.9891 ,0.73410 ,4.57986 ,44.93761 
45 ,9.1813 ,0.73601 ,4.57644 ,44.90403 
46 ,9.3896 ,0.73809 ,4.54906 ,44.63541 
47 ,9.5976 ,0.74016 ,4.54564 ,44.60183 
48 ,9.7898 ,0.74214 ,4.50800 ,44.23247 
49 ,9.9816 ,0.74408 ,4.51142 ,44.26604 
50 ,10.2219 ,0.74625 ,4.48062 ,43.96384 
51 ,10.4299 ,0.74851 ,4.45666 ,43.72879 
52 ,10.6380 ,0.75058 ,4.44640 ,43.62806 
53 ,10.8458 ,0.75261 ,4.41560 ,43.32585 
54 ,11.0383 ,0.75459 ,4.39507 ,43.12438 
55 ,11.2459 ,0.75662 ,4.37453 ,42.92291 
56 ,11.4544 ,0.75870 ,4.36427 ,42.82218 
57 ,11.6462 ,0.76065 ,4.34716 ,42.65429 
58 ,11.8388 ,0.76265 ,4.31978 ,42.38566 
59 ,12.0466 ,0.76460 ,4.30951 ,42.28492 
60 ,12.2542 ,0.76669 ,4.28213 ,42.01630 
61 ,12.4622 ,0.76882 ,4.27187 ,41.91556 
62 ,12.6705 ,0.77087 ,4.24449 ,41.64694 
63 ,12.8950 ,0.77319 ,4.21027 ,41.31115 
64 ,13.0870 ,0.77506 ,4.21369 ,41.34473 
65 ,13.2791 ,0.77707 ,4.19316 ,41.14326 
66 ,13.4712 ,0.77890 ,4.16920 ,40.90821 
67 ,13.6634 ,0.78086 ,4.17947 ,41.00895 
68 ,13.9032 ,0.78326 ,4.13840 ,40.60601 
69 ,14.1116 ,0.78530 ,4.12471 ,40.47170 
70 ,14.3196 ,0.78734 ,4.09734 ,40.20307 
71 ,14.5438 ,0.78960 ,4.08707 ,40.10233 
72 ,14.7517 ,0.79172 ,4.04600 ,39.69940 
73 ,14.9438 ,0.79364 ,4.03574 ,39.59866 
74 ,15.1356 ,0.79550 ,4.01520 ,39.39719 
75 ,15.3280 ,0.79746 ,4.01178 ,39.36361 
76 ,15.5199 ,0.79941 ,3.98783 ,39.12856 
77 ,15.7282 ,0.80150 ,3.96387 ,38.89352 
78 ,15.9363 ,0.80357 ,3.95018 ,38.75920 
79 ,16.1440 ,0.80562 ,3.92623 ,38.52415 
80 ,16.3361 ,0.80759 ,3.90227 ,38.28911 
81 ,16.5282 ,0.80947 ,3.89543 ,38.22195 
82 ,16.7204 ,0.81139 ,3.86805 ,37.95332 
83 ,16.9287 ,0.81349 ,3.87147 ,37.98690 
84 ,17.1369 ,0.81558 ,3.83383 ,37.61754 
85 ,17.3449 ,0.81757 ,3.82699 ,37.55038 
86 ,17.5530 ,0.81970 ,3.80645 ,37.34891 
87 ,17.7606 ,0.82178 ,3.78250 ,37.11387 
88 ,17.9692 ,0.82387 ,3.76539 ,36.94597 
89 ,18.1772 ,0.82600 ,3.74143 ,36.71093 
90 ,18.3853 ,0.82801 ,3.74485 ,36.74450 
91 ,18.5935 ,0.83008 ,3.69352 ,36.24083 
92 ,18.8016 ,0.83225 ,3.69694 ,36.27441 
93 ,19.0095 ,0.83428 ,3.66614 ,35.97220 
94 ,19.2176 ,0.83637 ,3.64561 ,35.77073 
95 ,19.4255 ,0.83837 ,3.64219 ,35.73716 
96 ,19.6337 ,0.84054 ,3.61139 ,35.43495 
97 ,19.8260 ,0.84247 ,3.59770 ,35.30064 
98 ,20.0175 ,0.84436 ,3.57375 ,35.06559 
99 ,20.2101 ,0.84630 ,3.56690 ,34.99843 
100 ,20.4022 ,0.84822 ,3.53268 ,34.66265 
101 ,20.5938 ,0.85016 ,3.52926 ,34.62907 
102 ,20.8023 ,0.85219 ,3.50530 ,34.39402 
103 ,21.0104 ,0.85426 ,3.48477 ,34.19255 
104 ,21.2183 ,0.85634 ,3.46424 ,33.99108 
105 ,21.4266 ,0.85844 ,3.46424 ,33.99108 
106 ,21.6346 ,0.86048 ,3.41975 ,33.55457 
107 ,21.8266 ,0.86244 ,3.41633 ,33.52099 
108 ,22.0189 ,0.86437 ,3.39237 ,33.28594 
109 ,22.2266 ,0.86634 ,3.38553 ,33.21878 
110 ,22.4350 ,0.86848 ,3.35473 ,32.91658 
111 ,22.6432 ,0.87057 ,3.33762 ,32.74869 
112 ,22.8512 ,0.87265 ,3.32051 ,32.58080 
113 ,23.0592 ,0.87472 ,3.29313 ,32.31217 
114 ,23.2349 ,0.87665 ,3.28628 ,32.24501 
115 ,23.4436 ,0.87859 ,3.27602 ,32.14428 
116 ,23.6515 ,0.88070 ,3.26917 ,32.07712 
117 ,23.8596 ,0.88271 ,3.23495 ,31.74134 
118 ,24.0517 ,0.88468 ,3.22126 ,31.60702 
119 ,24.2917 ,0.88707 ,3.20757 ,31.47271 
120 ,24.5319 ,0.88933 ,3.15966 ,31.00262 
121 ,24.7400 ,0.89157 ,3.13571 ,30.76757 
122 ,24.9320 ,0.89350 ,3.14255 ,30.83472 
123 ,25.1399 ,0.89555 ,3.11518 ,30.56610 
124 ,25.3319 ,0.89750 ,3.09806 ,30.39821 
125 ,25.5238 ,0.89936 ,3.07753 ,30.19674 
126 ,25.7164 ,0.90129 ,3.05358 ,29.96169 
127 ,25.9084 ,0.90326 ,3.04673 ,29.89453 
128 ,26.1326 ,0.90546 ,3.03647 ,29.79380 
129 ,26.3246 ,0.90749 ,2.99882 ,29.42444 
130 ,26.5167 ,0.90935 ,2.99540 ,29.39086 
131 ,26.7410 ,0.91153 ,2.96460 ,29.08865 
132 ,26.9489 ,0.91364 ,2.94407 ,28.88718 
133 ,27.1411 ,0.91558 ,2.92696 ,28.71929 
134 ,27.3490 ,0.91759 ,2.91669 ,28.61856 
135 ,27.5571 ,0.91969 ,2.89616 ,28.41709 
136 ,27.7492 ,0.92166 ,2.89273 ,28.38351 
137 ,27.9416 ,0.92361 ,2.86536 ,28.11488 
138 ,28.1495 ,0.92564 ,2.85509 ,28.01415 
139 ,28.3415 ,0.92756 ,2.82429 ,27.71194 
140 ,28.5336 ,0.92947 ,2.82429 ,27.71194 
141 ,28.7415 ,0.93160 ,2.79691 ,27.44332 
142 ,28.9493 ,0.93359 ,2.79691 ,27.44332 
143 ,29.1576 ,0.93568 ,2.75927 ,27.07395 
144 ,29.3659 ,0.93779 ,2.74558 ,26.93964 
145 ,29.5580 ,0.93974 ,2.74216 ,26.90606 
146 ,29.7502 ,0.94162 ,2.72163 ,26.70459 
147 ,29.9421 ,0.94361 ,2.71136 ,26.60386 
148 ,30.1502 ,0.94550 ,2.69767 ,26.46954 
149 ,30.3583 ,0.94767 ,2.67029 ,26.20092 
150 ,30.5505 ,0.94966 ,2.65660 ,26.06661 
151 ,30.7587 ,0.95173 ,2.63949 ,25.89871 
152 ,30.9662 ,0.95382 ,2.61896 ,25.69724 
153 ,31.1748 ,0.95585 ,2.61554 ,25.66367 
154 ,31.3829 ,0.95801 ,2.58132 ,25.32788 
155 ,31.6067 ,0.96011 ,2.56421 ,25.15999 
156 ,31.7990 ,0.96210 ,2.56078 ,25.12641 
157 ,31.9910 ,0.96404 ,2.53683 ,24.89136 
158 ,32.1991 ,0.96605 ,2.52998 ,24.82421 
159 ,32.4072 ,0.96823 ,2.48207 ,24.35411 
160 ,32.6154 ,0.97032 ,2.49918 ,24.52200 
161 ,32.8234 ,0.97234 ,2.46496 ,24.18622 
162 ,33.0315 ,0.97448 ,2.45470 ,24.08549 
163 ,33.2231 ,0.97633 ,2.43074 ,23.85044 
164 ,33.4153 ,0.97825 ,2.42732 ,23.81686 
165 ,33.6237 ,0.98037 ,2.39994 ,23.54823 
166 ,33.8319 ,0.98233 ,2.40679 ,23.61539 
167 ,34.0553 ,0.98458 ,2.37941 ,23.34676 
168 ,34.2478 ,0.98659 ,2.35203 ,23.07814 
169 ,34.4561 ,0.98870 ,2.35888 ,23.14529 
170 ,34.6642 ,0.99079 ,2.32123 ,22.77593 
171 ,34.8563 ,0.99273 ,2.32123 ,22.77593 
172 ,35.0484 ,0.99461 ,2.28017 ,22.37299 
173 ,35.2725 ,0.99682 ,2.27674 ,22.33941 
174 ,35.4963 ,0.99894 ,2.26306 ,22.20510 
175 ,35.7046 ,1.00118 ,2.23568 ,21.93647 
176 ,35.9124 ,1.00322 ,2.22541 ,21.83574 
177 ,36.1048 ,1.00516 ,2.20488 ,21.63427 
178 ,36.3129 ,1.00720 ,2.19461 ,21.53353 
179 ,36.5045 ,1.00914 ,2.17408 ,21.33206 
180 ,36.7129 ,1.01122 ,2.14670 ,21.06344 
181 ,36.9051 ,1.01318 ,2.15697 ,21.16417 
182 ,37.1131 ,1.01522 ,2.12275 ,20.82839 
183 ,37.3373 ,1.01736 ,2.11248 ,20.72766 
184 ,37.5293 ,1.01939 ,2.08510 ,20.45903 
185 ,37.7375 ,1.02144 ,2.08510 ,20.45903 
186 ,37.9459 ,1.02355 ,2.06115 ,20.22398 
187 ,38.1536 ,1.02564 ,2.04404 ,20.05609 
188 ,38.3617 ,1.02774 ,2.04061 ,20.02251 
189 ,38.5857 ,1.02989 ,2.00982 ,19.72031 
190 ,38.7778 ,1.03191 ,2.00297 ,19.65315 
191 ,38.9857 ,1.03398 ,1.97902 ,19.41810 
192 ,39.1939 ,1.03607 ,1.97559 ,19.38452 
193 ,39.3861 ,1.03798 ,1.96533 ,19.28379 
194 ,39.5782 ,1.03992 ,1.94479 ,19.08232 
195 ,39.7858 ,1.04195 ,1.91742 ,18.81369 
196 ,40.0104 ,1.04405 ,1.90715 ,18.71296 
197 ,40.2344 ,1.04638 ,1.88319 ,18.47791 
198 ,40.4427 ,1.04849 ,1.88319 ,18.47791 
199 ,40.6507 ,1.05059 ,1.85240 ,18.17570 
200 ,40.8585 ,1.05260 ,1.85924 ,18.24286 
201 ,41.0666 ,1.05470 ,1.82160 ,17.87350 
202 ,41.2748 ,1.05692 ,1.81475 ,17.80634 
203 ,41.4667 ,1.05874 ,1.80449 ,17.70561 
204 ,41.6590 ,1.06065 ,1.78395 ,17.50414 
205 ,41.8512 ,1.06259 ,1.76684 ,17.33625 
206 ,42.0588 ,1.06461 ,1.75315 ,17.20193 
207 ,42.2673 ,1.06674 ,1.73604 ,17.03404 
208 ,42.4754 ,1.06883 ,1.71209 ,16.79899 
209 ,42.6835 ,1.07087 ,1.72578 ,16.93331 
210 ,42.8917 ,1.07307 ,1.68813 ,16.56395 
211 ,43.0837 ,1.07489 ,1.69840 ,16.66468 
212 ,43.3234 ,1.07719 ,1.66075 ,16.29532 
213 ,43.5319 ,1.07935 ,1.65391 ,16.22816 
214 ,43.7401 ,1.08149 ,1.64022 ,16.09385 
215 ,43.9480 ,1.08345 ,1.61627 ,15.85880 
216 ,44.1402 ,1.08550 ,1.60942 ,15.79164 
217 ,44.3641 ,1.08766 ,1.58889 ,15.59018 
218 ,44.5564 ,1.08967 ,1.57520 ,15.45586 
219 ,44.7641 ,1.09168 ,1.57520 ,15.45586 
220 ,44.9884 ,1.09388 ,1.53756 ,15.08650 
221 ,45.1805 ,1.09583 ,1.53071 ,15.01934 
222 ,45.3723 ,1.09780 ,1.51018 ,14.81787 
223 ,45.5808 ,1.09990 ,1.51702 ,14.88503 
224 ,45.7883 ,1.10199 ,1.50333 ,14.75072 
225 ,46.0129 ,1.10404 ,1.47253 ,14.44851 
226 ,46.2049 ,1.10611 ,1.47596 ,14.48209 
227 ,46.3971 ,1.10811 ,1.43489 ,14.07915 
228 ,46.6051 ,1.11015 ,1.43147 ,14.04557 
229 ,46.8133 ,1.11217 ,1.40751 ,13.81053 
230 ,47.0053 ,1.11413 ,1.41094 ,13.84410 
231 ,47.1973 ,1.11601 ,1.38014 ,13.54190 
232 ,47.4055 ,1.11809 ,1.38356 ,13.57548 
233 ,47.6130 ,1.12022 ,1.36303 ,13.37401 
234 ,47.8055 ,1.12211 ,1.35276 ,13.27327 
235 ,47.9977 ,1.12407 ,1.32538 ,13.00465 
236 ,48.2217 ,1.12627 ,1.32880 ,13.03822 
237 ,48.4299 ,1.12834 ,1.30827 ,12.83675 
238 ,48.6378 ,1.13047 ,1.28089 ,12.56813 
239 ,48.8781 ,1.13270 ,1.28432 ,12.60171 
240 ,49.0861 ,1.13490 ,1.27405 ,12.50097 
241 ,49.2784 ,1.13685 ,1.23983 ,12.16519 
242 ,49.4864 ,1.13895 ,1.24667 ,12.23235 
243 ,49.6944 ,1.14106 ,1.21929 ,11.96372 
244 ,49.8865 ,1.14291 ,1.21587 ,11.93014 
245 ,50.0787 ,1.14485 ,1.17823 ,11.56078 
246 ,50.2705 ,1.14676 ,1.18165 ,11.59436 
247 ,50.4788 ,1.14885 ,1.15427 ,11.32573 
248 ,50.6709 ,1.15076 ,1.15770 ,11.35931 
249 ,50.8626 ,1.15271 ,1.12690 ,11.05710 
250 ,51.0708 ,1.15479 ,1.13032 ,11.09068 
251 ,51.2791 ,1.15685 ,1.10294 ,10.82206 
252 ,51.4871 ,1.15886 ,1.10979 ,10.88921 
253 ,51.6952 ,1.16099 ,1.07556 ,10.55343 
254 ,51.9034 ,1.16309 ,1.07556 ,10.55343 
255 ,52.1111 ,1.16511 ,1.05503 ,10.35196 
256 ,52.3036 ,1.16711 ,1.03792 ,10.18407 
257 ,52.5115 ,1.16916 ,1.03792 ,10.18407 
258 ,52.7198 ,1.17119 ,0.99685 ,9.78113 
259 ,52.9278 ,1.17325 ,1.01054 ,9.91544 
260 ,53.1196 ,1.17523 ,0.97974 ,9.61324 
261 ,53.3120 ,1.17720 ,0.98317 ,9.64682 
262 ,53.5201 ,1.17922 ,0.95579 ,9.37819 
263 ,53.7119 ,1.18122 ,0.96948 ,9.51250 
264 ,53.9362 ,1.18329 ,0.92499 ,9.07598 
265 ,54.1604 ,1.18559 ,0.92841 ,9.10956 
266 ,54.3684 ,1.18773 ,0.92499 ,9.07598 
267 ,54.5606 ,1.18961 ,0.88050 ,8.63947 
268 ,54.7686 ,1.19168 ,0.88392 ,8.67305 
269 ,54.9607 ,1.19365 ,0.87023 ,8.53873 
270 ,55.1527 ,1.19557 ,0.89077 ,8.74020 
271 ,55.3604 ,1.19764 ,0.84286 ,8.27011 
272 ,55.5528 ,1.19957 ,0.83943 ,8.23653 
273 ,55.7452 ,1.20148 ,0.81206 ,7.96790 
274 ,55.9527 ,1.20359 ,0.81890 ,8.03506 
275 ,56.1453 ,1.20549 ,0.79152 ,7.76643 
276 ,56.3530 ,1.20748 ,0.79495 ,7.80001 
277 ,56.5772 ,1.20977 ,0.76415 ,7.49780 
278 ,56.8174 ,1.21229 ,0.77099 ,7.56496 
279 ,57.0251 ,1.21430 ,0.72992 ,7.16202 
280 ,57.2176 ,1.21618 ,0.74704 ,7.32991 
281 ,57.4097 ,1.21814 ,0.72308 ,7.09486 
282 ,57.6178 ,1.22015 ,0.69570 ,6.82624 
283 ,57.8258 ,1.22229 ,0.68886 ,6.75908 
284 ,58.0179 ,1.22417 ,0.68886 ,6.75908 
285 ,58.2259 ,1.22626 ,0.67175 ,6.59119 
286 ,58.4181 ,1.22819 ,0.67175 ,6.59119 
287 ,58.6257 ,1.23029 ,0.64095 ,6.28899 
288 ,58.8343 ,1.23236 ,0.63410 ,6.22183 
289 ,59.0424 ,1.23448 ,0.63410 ,6.22183 
290 ,59.2504 ,1.23649 ,0.59988 ,5.88605 
291 ,59.4583 ,1.23856 ,0.58962 ,5.78531 
292 ,59.6666 ,1.24070 ,0.57593 ,5.65100 
293 ,59.8746 ,1.24276 ,0.57935 ,5.68458 
294 ,60.0828 ,1.24487 ,0.56224 ,5.51668 
295 ,60.2909 ,1.24690 ,0.52802 ,5.18090 
296 ,60.4990 ,1.24898 ,0.54855 ,5.38237 
297 ,60.7070 ,1.25101 ,0.51433 ,5.04659 
298 ,60.9312 ,1.25329 ,0.50064 ,4.91228 
299 ,61.1393 ,1.25541 ,0.50406 ,4.94585 
300 ,61.3475 ,1.25743 ,0.48011 ,4.71081 
301 ,61.5554 ,1.25956 ,0.47326 ,4.64365 
302 ,61.7634 ,1.26165 ,0.46642 ,4.57649 
303 ,61.9551 ,1.26364 ,0.44588 ,4.37502 
304 ,62.1475 ,1.26555 ,0.42877 ,4.20713 
305 ,62.3558 ,1.26759 ,0.42193 ,4.13997 
306 ,62.5640 ,1.26965 ,0.42193 ,4.13997 
307 ,62.7560 ,1.27159 ,0.40824 ,4.00566 
308 ,62.9802 ,1.27376 ,0.39455 ,3.87135 
309 ,63.1880 ,1.27593 ,0.35691 ,3.50199 
310 ,63.3960 ,1.27797 ,0.36718 ,3.60272 
311 ,63.5884 ,1.27988 ,0.35006 ,3.43483 
312 ,63.7962 ,1.28191 ,0.35349 ,3.46841 
313 ,63.9885 ,1.28390 ,0.32953 ,3.23336 
314 ,64.1802 ,1.28583 ,0.32611 ,3.19978 
315 ,64.3727 ,1.28772 ,0.29531 ,2.89758 
316 ,64.5808 ,1.28983 ,0.30215 ,2.96473 
317 ,64.7728 ,1.29170 ,0.28162 ,2.76326 
318 ,64.9650 ,1.29368 ,0.28162 ,2.76326 
319 ,65.1567 ,1.29556 ,0.25767 ,2.52822 
320 ,65.3650 ,1.29757 ,0.24740 ,2.42748 
321 ,65.5732 ,1.29972 ,0.23713 ,2.32675 
322 ,65.7654 ,1.30167 ,0.23371 ,2.29317 
323 ,65.9731 ,1.30371 ,0.21660 ,2.12528 
324 ,66.1814 ,1.30575 ,0.20976 ,2.05812 
325 ,66.3730 ,1.30769 ,0.19949 ,1.95738 
326 ,66.5657 ,1.30966 ,0.19607 ,1.92381 
327 ,66.7895 ,1.31187 ,0.15842 ,1.55445 
328 ,66.9816 ,1.31380 ,0.17553 ,1.72234 
329 ,67.1736 ,1.31575 ,0.14816 ,1.45371 
330 ,67.3818 ,1.31779 ,0.14816 ,1.45371 
331 ,67.5900 ,1.31989 ,0.12762 ,1.25224 
332 ,67.7978 ,1.32196 ,0.11736 ,1.15151 
333 ,68.0060 ,1.32401 ,0.10709 ,1.05077 
334 ,68.2302 ,1.32633 ,0.10367 ,1.01719 
335 ,68.4384 ,1.32839 ,0.07629 ,0.74857 
336 ,68.6464 ,1.33047 ,0.06602 ,0.64783 
337 ,68.8545 ,1.33254 ,0.04549 ,0.44636 
338 ,69.0624 ,1.33463 ,0.06260 ,0.61425 
339 ,69.2546 ,1.33652 ,0.03522 ,0.34563 
340 ,69.4625 ,1.33859 ,0.04891 ,0.47994 
341 ,69.6543 ,1.34060 ,0.01127 ,0.11058 
342 ,69.8470 ,1.34245 ,0.01811 ,0.17773 
343 ,70.0547 ,1.34451 ,-0.00926 ,-0.09089 
344 ,70.2630 ,1.34661 ,-0.00584 ,-0.05731 
345 ,70.4710 ,1.34868 ,-0.02637 ,-0.25878 
346 ,70.6791 ,1.35082 ,-0.04691 ,-0.46025 
347 ,70.8870 ,1.35279 ,-0.03664 ,-0.35952 
348 ,71.0790 ,1.35489 ,-0.06060 ,-0.59457 
349 ,71.2714 ,1.35671 ,-0.06060 ,-0.59457 
350 ,71.4796 ,1.35873 ,-0.05717 ,-0.56099 
351 ,71.6874 ,1.36080 ,-0.07428 ,-0.72888 
352 ,71.8955 ,1.36289 ,-0.10851 ,-1.06466 
353 ,72.1038 ,1.36499 ,-0.10166 ,-0.99751 
354 ,72.2959 ,1.36690 ,-0.11877 ,-1.16540 
355 ,72.5040 ,1.36899 ,-0.11535 ,-1.13182 
356 ,72.7117 ,1.37108 ,-0.13588 ,-1.33329 
357 ,72.9196 ,1.37313 ,-0.14957 ,-1.46760 
358 ,73.1277 ,1.37523 ,-0.14957 ,-1.46760 
359 ,73.3203 ,1.37717 ,-0.17011 ,-1.66907 
360 ,73.5283 ,1.37923 ,-0.17011 ,-1.66907 
361 ,73.7203 ,1.38118 ,-0.19406 ,-1.90412 
362 ,73.9287 ,1.38331 ,-0.18722 ,-1.83696 
363 ,74.1527 ,1.38541 ,-0.21802 ,-2.13917 
364 ,74.3608 ,1.38755 ,-0.22144 ,-2.17275 
365 ,74.5689 ,1.38971 ,-0.22144 ,-2.17275 
366 ,74.7769 ,1.39172 ,-0.25224 ,-2.47495 
367 ,74.9691 ,1.39361 ,-0.23513 ,-2.30706 
368 ,75.1931 ,1.39580 ,-0.26593 ,-2.60926 
369 ,75.3853 ,1.39783 ,-0.25566 ,-2.50853 
370 ,75.5933 ,1.39985 ,-0.29330 ,-2.87789 
371 ,75.8014 ,1.40204 ,-0.28988 ,-2.84431 
372 ,75.9931 ,1.40393 ,-0.29673 ,-2.91147 
373 ,76.1850 ,1.40584 ,-0.29330 ,-2.87789 
374 ,76.3932 ,1.40785 ,-0.31384 ,-3.07936 
375 ,76.5854 ,1.40982 ,-0.32068 ,-3.14652 
376 ,76.7937 ,1.41188 ,-0.33437 ,-3.28083 
377 ,77.0178 ,1.41412 ,-0.35832 ,-3.51588 
378 ,77.2259 ,1.41616 ,-0.36175 ,-3.54946 
379 ,77.4499 ,1.41839 ,-0.36859 ,-3.61661 
380 ,77.6581 ,1.42049 ,-0.38570 ,-3.78450 
381 ,77.8821 ,1.42272 ,-0.37886 ,-3.71735 
382 ,78.0742 ,1.42464 ,-0.40281 ,-3.95240 
383 ,78.2984 ,1.42692 ,-0.41650 ,-4.08671 
384 ,78.5227 ,1.42913 ,-0.41308 ,-4.05313 
385 ,78.7465 ,1.43135 ,-0.41992 ,-4.12029 
386 ,78.9546 ,1.43351 ,-0.44730 ,-4.38891 
387 ,79.1628 ,1.43556 ,-0.45072 ,-4.42249 
388 ,79.3866 ,1.43779 ,-0.46099 ,-4.52323 
389 ,79.5787 ,1.43972 ,-0.48494 ,-4.75828 
390 ,79.7708 ,1.44161 ,-0.48494 ,-4.75828 
391 ,79.9791 ,1.44368 ,-0.50206 ,-4.92617 
392 ,80.1711 ,1.44576 ,-0.47810 ,-4.69112 
393 ,80.3632 ,1.44759 ,-0.51574 ,-5.06048 
394 ,80.5554 ,1.44950 ,-0.51232 ,-5.02690 
395 ,80.7634 ,1.45155 ,-0.52601 ,-5.16121 
396 ,80.9874 ,1.45374 ,-0.52601 ,-5.16121 
397 ,81.1956 ,1.45585 ,-0.54997 ,-5.39626 
398 ,81.3875 ,1.45777 ,-0.54654 ,-5.36268 
399 ,81.5798 ,1.45973 ,-0.57050 ,-5.59773 
400 ,81.7876 ,1.46175 ,-0.56365 ,-5.53058 
401 ,81.9958 ,1.46387 ,-0.57734 ,-5.66489 
402 ,82.1879 ,1.46583 ,-0.58077 ,-5.69847 
403 ,82.3800 ,1.46773 ,-0.60814 ,-5.96709 
404 ,82.5721 ,1.46962 ,-0.60472 ,-5.93352 
405 ,82.7799 ,1.47175 ,-0.62868 ,-6.16856 
406 ,82.9880 ,1.47382 ,-0.61499 ,-6.03425 
407 ,83.1964 ,1.47594 ,-0.63552 ,-6.23572 
408 ,83.4044 ,1.47796 ,-0.64921 ,-6.37003 
409 ,83.5962 ,1.47987 ,-0.65605 ,-6.43719 
410 ,83.7888 ,1.48178 ,-0.66290 ,-6.50435 
411 ,83.9965 ,1.48391 ,-0.67659 ,-6.63866 
412 ,84.2208 ,1.48596 ,-0.68001 ,-6.67224 
413 ,84.4289 ,1.48818 ,-0.68343 ,-6.70582 
414 ,84.6529 ,1.49041 ,-0.69712 ,-6.84013 
415 ,84.8611 ,1.49257 ,-0.72450 ,-7.10876 
416 ,85.0531 ,1.49451 ,-0.70739 ,-6.94086 
417 ,85.2452 ,1.49633 ,-0.73476 ,-7.20949 
418 ,85.4209 ,1.49825 ,-0.73476 ,-7.20949 
419 ,85.6295 ,1.50019 ,-0.72792 ,-7.14233 
420 ,85.8374 ,1.50226 ,-0.75872 ,-7.44454 
421 ,86.0457 ,1.50440 ,-0.77925 ,-7.64601 
422 ,86.2857 ,1.50660 ,-0.76556 ,-7.51170 
423 ,86.4938 ,1.50888 ,-0.78952 ,-7.74674 
424 ,86.6857 ,1.51076 ,-0.79294 ,-7.78032 
425 ,86.8938 ,1.51286 ,-0.79978 ,-7.84748 
426 ,87.0859 ,1.51475 ,-0.81005 ,-7.94821 
427 ,87.2777 ,1.51676 ,-0.82716 ,-8.11611 
428 ,87.4699 ,1.51873 ,-0.82032 ,-8.04895 
429 ,87.6780 ,1.52068 ,-0.85454 ,-8.38473 
430 ,87.8703 ,1.52264 ,-0.84427 ,-8.28400 
431 ,88.0784 ,1.52473 ,-0.86138 ,-8.45189 
432 ,88.2860 ,1.52673 ,-0.86481 ,-8.48547 
433 ,88.5105 ,1.52890 ,-0.86823 ,-8.51904 
434 ,88.7186 ,1.53108 ,-0.89560 ,-8.78767 
435 ,88.9106 ,1.53298 ,-0.89218 ,-8.75409 
436 ,89.1028 ,1.53491 ,-0.90929 ,-8.92198 
437 ,89.3106 ,1.53695 ,-0.89903 ,-8.82125 
438 ,89.5029 ,1.53893 ,-0.93667 ,-9.19061 
439 ,89.6951 ,1.54083 ,-0.92298 ,-9.05630 
440 ,89.9191 ,1.54310 ,-0.93667 ,-9.19061 
441 ,90.1270 ,1.54516 ,-0.94694 ,-9.29135 
442 ,90.3351 ,1.54721 ,-0.96063 ,-9.42566 
443 ,90.5429 ,1.54932 ,-0.96747 ,-9.49282 
444 ,90.7355 ,1.55128 ,-0.96063 ,-9.42566 
445 ,90.9431 ,1.55333 ,-0.98458 ,-9.66071 
446 ,91.1516 ,1.55529 ,-0.97774 ,-9.59355 
447 ,91.3436 ,1.55735 ,-1.00854 ,-9.89576 
448 ,91.5355 ,1.55929 ,-0.99827 ,-9.79502 
449 ,91.7437 ,1.56130 ,-1.01880 ,-9.99649 
450 ,91.9518 ,1.56337 ,-1.01880 ,-9.99649 
451 ,92.1600 ,1.56547 ,-1.02907 ,-10.09723 
452 ,92.3681 ,1.56750 ,-1.03591 ,-10.16438 
453 ,92.5761 ,1.56966 ,-1.03591 ,-10.16438 
454 ,92.7682 ,1.57157 ,-1.05302 ,-10.33227 
455 ,92.9603 ,1.57348 ,-1.06329 ,-10.43301 
456 ,93.1684 ,1.57552 ,-1.05645 ,-10.36585 
457 ,93.3605 ,1.57747 ,-1.07356 ,-10.53374 
458 ,93.5686 ,1.57957 ,-1.08725 ,-10.66806 
459 ,93.7924 ,1.58175 ,-1.08725 ,-10.66806 
460 ,94.0008 ,1.58391 ,-1.10436 ,-10.83595 
461 ,94.2248 ,1.58607 ,-1.12489 ,-11.03742 
462 ,94.4169 ,1.58805 ,-1.11462 ,-10.93668 
