Data stamp = , 04-05-2022 15:14:50 651

Calibration Values: 
Slope = , 26.54 , g/V 
Offset Voltage at no contact = , -0.501760 , V 

No , Time , Stage Position ,   Mass , Force 
   ,  (s) ,      (mm)      ,   (g)  , (mN)  

1 ,0.0000 ,0.64937 ,5.33616 ,52.35841 
2 ,0.2149 ,0.64946 ,5.33616 ,52.35841 
3 ,0.6312 ,0.65074 ,5.33616 ,52.35841 
4 ,0.8558 ,0.65265 ,5.32247 ,52.22410 
5 ,1.0959 ,0.65495 ,5.32589 ,52.25768 
6 ,1.3039 ,0.65708 ,5.34643 ,52.45915 
7 ,1.5281 ,0.65933 ,5.33958 ,52.39199 
8 ,1.7360 ,0.66148 ,5.32589 ,52.25768 
9 ,1.9442 ,0.66346 ,5.30878 ,52.08979 
10 ,2.1522 ,0.66564 ,5.28141 ,51.82116 
11 ,2.3765 ,0.66785 ,5.23692 ,51.38464 
12 ,2.5844 ,0.66994 ,5.24376 ,51.45180 
13 ,2.7765 ,0.67193 ,5.20612 ,51.08244 
14 ,2.9845 ,0.67394 ,5.20270 ,51.04886 
15 ,3.1768 ,0.67588 ,5.17532 ,50.78023 
16 ,3.3846 ,0.67789 ,5.16163 ,50.64592 
17 ,3.5765 ,0.67988 ,5.12056 ,50.24298 
18 ,3.7850 ,0.68198 ,5.12399 ,50.27656 
19 ,3.9771 ,0.68389 ,5.08977 ,49.94078 
20 ,4.1851 ,0.68601 ,5.07608 ,49.80646 
21 ,4.3932 ,0.68805 ,5.03843 ,49.43710 
22 ,4.6010 ,0.69007 ,5.03501 ,49.40352 
23 ,4.8252 ,0.69240 ,5.02474 ,49.30279 
24 ,5.0334 ,0.69445 ,4.99737 ,49.03416 
25 ,5.2253 ,0.69635 ,4.98710 ,48.93343 
26 ,5.4337 ,0.69848 ,4.94603 ,48.53049 
27 ,5.6418 ,0.70050 ,4.92550 ,48.32902 
28 ,5.8333 ,0.70245 ,4.91866 ,48.26186 
29 ,6.0095 ,0.70435 ,4.90839 ,48.16113 
30 ,6.2019 ,0.70608 ,4.87759 ,47.85892 
31 ,6.4261 ,0.70839 ,4.86732 ,47.75819 
32 ,6.6341 ,0.71049 ,4.82968 ,47.38883 
33 ,6.8262 ,0.71250 ,4.80915 ,47.18736 
34 ,7.0020 ,0.71428 ,4.79546 ,47.05304 
35 ,7.1942 ,0.71602 ,4.76466 ,46.75084 
36 ,7.3864 ,0.71796 ,4.77835 ,46.88515 
37 ,7.5944 ,0.72003 ,4.72702 ,46.38148 
38 ,7.7866 ,0.72200 ,4.74070 ,46.51579 
39 ,7.9942 ,0.72407 ,4.70306 ,46.14643 
40 ,8.2025 ,0.72605 ,4.69622 ,46.07927 
41 ,8.4108 ,0.72824 ,4.66884 ,45.81065 
42 ,8.6188 ,0.73029 ,4.64831 ,45.60918 
43 ,8.8271 ,0.73235 ,4.62777 ,45.40771 
44 ,9.0351 ,0.73440 ,4.60382 ,45.17266 
45 ,9.2589 ,0.73668 ,4.59013 ,45.03835 
46 ,9.4507 ,0.73857 ,4.58671 ,45.00477 
47 ,9.6428 ,0.74057 ,4.56960 ,44.83688 
48 ,9.8354 ,0.74245 ,4.52169 ,44.36678 
49 ,10.0273 ,0.74434 ,4.52853 ,44.43394 
50 ,10.2351 ,0.74643 ,4.48746 ,44.03100 
51 ,10.4277 ,0.74840 ,4.50115 ,44.16531 
52 ,10.6356 ,0.75044 ,4.45324 ,43.69521 
53 ,10.8439 ,0.75243 ,4.44982 ,43.66163 
54 ,11.0520 ,0.75461 ,4.40875 ,43.25870 
55 ,11.2440 ,0.75654 ,4.41218 ,43.29227 
56 ,11.4519 ,0.75859 ,4.36769 ,42.85576 
57 ,11.6603 ,0.76065 ,4.36427 ,42.82218 
58 ,11.8525 ,0.76261 ,4.35058 ,42.68786 
59 ,12.0603 ,0.76465 ,4.33004 ,42.48639 
60 ,12.2525 ,0.76663 ,4.29924 ,42.18419 
61 ,12.4601 ,0.76867 ,4.28213 ,42.01630 
62 ,12.6526 ,0.77061 ,4.27871 ,41.98272 
63 ,12.8447 ,0.77252 ,4.25476 ,41.74767 
64 ,13.0526 ,0.77460 ,4.22053 ,41.41189 
65 ,13.2448 ,0.77653 ,4.22738 ,41.47905 
66 ,13.4369 ,0.77845 ,4.19316 ,41.14326 
67 ,13.6449 ,0.78049 ,4.18631 ,41.07611 
68 ,13.8537 ,0.78261 ,4.14867 ,40.70674 
69 ,14.0613 ,0.78470 ,4.14525 ,40.67317 
70 ,14.2692 ,0.78679 ,4.13156 ,40.53885 
71 ,14.4772 ,0.78880 ,4.09734 ,40.20307 
72 ,14.6854 ,0.79099 ,4.08707 ,40.10233 
73 ,14.8615 ,0.79278 ,4.05627 ,39.80013 
74 ,15.0697 ,0.79473 ,4.05627 ,39.80013 
75 ,15.2775 ,0.79679 ,4.02889 ,39.53150 
76 ,15.4858 ,0.79892 ,4.01520 ,39.39719 
77 ,15.6775 ,0.80087 ,3.97756 ,39.02783 
78 ,15.9020 ,0.80300 ,3.97414 ,38.99425 
79 ,16.1096 ,0.80518 ,3.95361 ,38.79278 
80 ,16.3176 ,0.80722 ,3.92281 ,38.49058 
81 ,16.5257 ,0.80929 ,3.92281 ,38.49058 
82 ,16.7502 ,0.81145 ,3.88858 ,38.15479 
83 ,16.9745 ,0.81388 ,3.86463 ,37.91975 
84 ,17.1982 ,0.81601 ,3.86121 ,37.88617 
85 ,17.4066 ,0.81810 ,3.82699 ,37.55038 
86 ,17.6148 ,0.82017 ,3.79961 ,37.28176 
87 ,17.8229 ,0.82234 ,3.79619 ,37.24818 
88 ,18.0305 ,0.82432 ,3.76196 ,36.91240 
89 ,18.2230 ,0.82630 ,3.76539 ,36.94597 
90 ,18.4311 ,0.82840 ,3.73459 ,36.64377 
91 ,18.6391 ,0.83038 ,3.71748 ,36.47588 
92 ,18.8472 ,0.83256 ,3.70379 ,36.34157 
93 ,19.0550 ,0.83464 ,3.66957 ,36.00578 
94 ,19.2475 ,0.83656 ,3.67641 ,36.07294 
95 ,19.4557 ,0.83856 ,3.64561 ,35.77073 
96 ,19.6635 ,0.84070 ,3.63877 ,35.70358 
97 ,19.8557 ,0.84266 ,3.60454 ,35.36779 
98 ,20.0639 ,0.84470 ,3.60112 ,35.33422 
99 ,20.2716 ,0.84678 ,3.56348 ,34.96485 
100 ,20.4798 ,0.84879 ,3.56690 ,34.99843 
101 ,20.6881 ,0.85094 ,3.54637 ,34.79696 
102 ,20.9122 ,0.85314 ,3.50872 ,34.42760 
103 ,21.1203 ,0.85525 ,3.51557 ,34.49476 
104 ,21.3443 ,0.85747 ,3.49504 ,34.29329 
105 ,21.5524 ,0.85956 ,3.45055 ,33.85677 
106 ,21.7445 ,0.86150 ,3.45739 ,33.92393 
107 ,21.9527 ,0.86356 ,3.41290 ,33.48741 
108 ,22.1608 ,0.86561 ,3.41633 ,33.52099 
109 ,22.3523 ,0.86760 ,3.39579 ,33.31952 
110 ,22.5449 ,0.86951 ,3.38553 ,33.21878 
111 ,22.7530 ,0.87162 ,3.34788 ,32.84942 
112 ,22.9610 ,0.87362 ,3.34104 ,32.78227 
113 ,23.1690 ,0.87567 ,3.32393 ,32.61437 
114 ,23.3770 ,0.87778 ,3.30339 ,32.41290 
115 ,23.5853 ,0.87987 ,3.28628 ,32.24501 
116 ,23.7931 ,0.88198 ,3.25891 ,31.97639 
117 ,23.9855 ,0.88389 ,3.25548 ,31.94281 
118 ,24.1936 ,0.88599 ,3.22126 ,31.60702 
119 ,24.3856 ,0.88793 ,3.21442 ,31.53987 
120 ,24.5934 ,0.88998 ,3.19046 ,31.30482 
121 ,24.7858 ,0.89185 ,3.18020 ,31.20409 
122 ,24.9776 ,0.89380 ,3.16309 ,31.03619 
123 ,25.1539 ,0.89571 ,3.14255 ,30.83472 
124 ,25.3460 ,0.89762 ,3.13571 ,30.76757 
125 ,25.5380 ,0.89940 ,3.11518 ,30.56610 
126 ,25.7461 ,0.90144 ,3.10149 ,30.43178 
127 ,25.9544 ,0.90355 ,3.08095 ,30.23031 
128 ,26.1464 ,0.90554 ,3.07753 ,30.19674 
129 ,26.3381 ,0.90749 ,3.04331 ,29.86095 
130 ,26.5464 ,0.90953 ,3.03647 ,29.79380 
131 ,26.7381 ,0.91140 ,3.00909 ,29.52517 
132 ,26.9465 ,0.91345 ,3.00224 ,29.45801 
133 ,27.1548 ,0.91553 ,2.96802 ,29.12223 
134 ,27.3629 ,0.91763 ,2.97487 ,29.18939 
135 ,27.5709 ,0.91969 ,2.95091 ,28.95434 
136 ,27.7789 ,0.92183 ,2.92696 ,28.71929 
137 ,28.0028 ,0.92416 ,2.89958 ,28.45066 
138 ,28.2112 ,0.92609 ,2.89273 ,28.38351 
139 ,28.4030 ,0.92807 ,2.88589 ,28.31635 
140 ,28.5952 ,0.92999 ,2.86193 ,28.08130 
141 ,28.7872 ,0.93189 ,2.85509 ,28.01415 
142 ,28.9951 ,0.93399 ,2.81745 ,27.64479 
143 ,29.2036 ,0.93595 ,2.82429 ,27.71194 
144 ,29.4118 ,0.93814 ,2.78665 ,27.34258 
145 ,29.6197 ,0.94017 ,2.78665 ,27.34258 
146 ,29.8440 ,0.94230 ,2.77638 ,27.24185 
147 ,30.0356 ,0.94439 ,2.74216 ,26.90606 
148 ,30.2441 ,0.94643 ,2.73874 ,26.87248 
149 ,30.4522 ,0.94850 ,2.71478 ,26.63744 
150 ,30.6441 ,0.95046 ,2.70109 ,26.50312 
151 ,30.8528 ,0.95251 ,2.66687 ,26.16734 
152 ,31.0604 ,0.95466 ,2.66003 ,26.10018 
153 ,31.2685 ,0.95673 ,2.66003 ,26.10018 
154 ,31.4766 ,0.95875 ,2.61554 ,25.66367 
155 ,31.6686 ,0.96073 ,2.62238 ,25.73082 
156 ,31.8766 ,0.96279 ,2.58474 ,25.36146 
157 ,32.0688 ,0.96471 ,2.59158 ,25.42862 
158 ,32.2765 ,0.96678 ,2.56421 ,25.15999 
159 ,32.4851 ,0.96884 ,2.55736 ,25.09283 
160 ,32.6932 ,0.97092 ,2.54025 ,24.92494 
161 ,32.8851 ,0.97286 ,2.52314 ,24.75705 
162 ,33.0773 ,0.97492 ,2.50261 ,24.55558 
163 ,33.2693 ,0.97666 ,2.50261 ,24.55558 
164 ,33.4614 ,0.97860 ,2.48550 ,24.38769 
165 ,33.6695 ,0.98064 ,2.46154 ,24.15264 
166 ,33.8616 ,0.98260 ,2.43416 ,23.88402 
167 ,34.0539 ,0.98455 ,2.42390 ,23.78328 
168 ,34.2619 ,0.98656 ,2.40679 ,23.61539 
169 ,34.4534 ,0.98867 ,2.39994 ,23.54823 
170 ,34.6779 ,0.99067 ,2.38283 ,23.38034 
171 ,34.8703 ,0.99271 ,2.35888 ,23.14529 
172 ,35.0782 ,0.99480 ,2.33834 ,22.94382 
173 ,35.2862 ,0.99681 ,2.34861 ,23.04456 
174 ,35.5101 ,0.99905 ,2.31097 ,22.67520 
175 ,35.7506 ,1.00138 ,2.29043 ,22.47373 
176 ,35.9743 ,1.00370 ,2.26306 ,22.20510 
177 ,36.1827 ,1.00577 ,2.26306 ,22.20510 
178 ,36.3907 ,1.00781 ,2.23568 ,21.93647 
179 ,36.5827 ,1.00981 ,2.23910 ,21.97005 
180 ,36.8229 ,1.01208 ,2.21172 ,21.70143 
181 ,37.0311 ,1.01431 ,2.20488 ,21.63427 
182 ,37.2390 ,1.01638 ,2.16381 ,21.23133 
183 ,37.4471 ,1.01850 ,2.17066 ,21.29849 
184 ,37.6391 ,1.02036 ,2.14670 ,21.06344 
185 ,37.8310 ,1.02233 ,2.13301 ,20.92912 
186 ,38.0715 ,1.02456 ,2.10221 ,20.62692 
187 ,38.2635 ,1.02660 ,2.09879 ,20.59334 
188 ,38.4556 ,1.02863 ,2.08168 ,20.42545 
189 ,38.6637 ,1.03062 ,2.07826 ,20.39187 
190 ,38.8873 ,1.03275 ,2.06115 ,20.22398 
191 ,39.0958 ,1.03494 ,2.03035 ,19.92178 
192 ,39.3198 ,1.03711 ,2.02350 ,19.85462 
193 ,39.5121 ,1.03915 ,2.00639 ,19.68673 
194 ,39.7201 ,1.04119 ,1.97902 ,19.41810 
195 ,39.9280 ,1.04330 ,1.99270 ,19.55241 
196 ,40.1362 ,1.04537 ,1.95848 ,19.21663 
197 ,40.3443 ,1.04746 ,1.94822 ,19.11590 
198 ,40.5365 ,1.04937 ,1.92768 ,18.91443 
199 ,40.7443 ,1.05141 ,1.91742 ,18.81369 
200 ,40.9528 ,1.05349 ,1.88319 ,18.47791 
201 ,41.1608 ,1.05552 ,1.88319 ,18.47791 
202 ,41.3528 ,1.05750 ,1.87635 ,18.41075 
203 ,41.5608 ,1.05954 ,1.86608 ,18.31002 
204 ,41.7530 ,1.06148 ,1.85240 ,18.17570 
205 ,41.9609 ,1.06359 ,1.82502 ,17.90708 
206 ,42.1527 ,1.06550 ,1.80791 ,17.73919 
207 ,42.3616 ,1.06762 ,1.80449 ,17.70561 
208 ,42.5852 ,1.06976 ,1.79422 ,17.60487 
209 ,42.7933 ,1.07190 ,1.74973 ,17.16836 
210 ,43.0014 ,1.07399 ,1.75315 ,17.20193 
211 ,43.1935 ,1.07589 ,1.73946 ,17.06762 
212 ,43.4012 ,1.07798 ,1.72578 ,16.93331 
213 ,43.5935 ,1.07998 ,1.69498 ,16.63110 
214 ,43.8017 ,1.08196 ,1.69155 ,16.59752 
215 ,44.0098 ,1.08398 ,1.68471 ,16.53037 
216 ,44.2176 ,1.08614 ,1.64364 ,16.12743 
217 ,44.4258 ,1.08828 ,1.64364 ,16.12743 
218 ,44.6181 ,1.09014 ,1.61969 ,15.89238 
219 ,44.8422 ,1.09229 ,1.62311 ,15.92596 
220 ,45.0504 ,1.09448 ,1.60942 ,15.79164 
221 ,45.2582 ,1.09655 ,1.58547 ,15.55660 
222 ,45.4501 ,1.09846 ,1.58547 ,15.55660 
223 ,45.6583 ,1.10048 ,1.54782 ,15.18724 
224 ,45.8666 ,1.10260 ,1.55467 ,15.25439 
225 ,46.0747 ,1.10470 ,1.52045 ,14.91861 
226 ,46.2827 ,1.10675 ,1.52387 ,14.95219 
227 ,46.4749 ,1.10872 ,1.49649 ,14.68356 
228 ,46.6990 ,1.11092 ,1.48280 ,14.54925 
229 ,46.9068 ,1.11305 ,1.47596 ,14.48209 
230 ,47.1151 ,1.11504 ,1.45200 ,14.24704 
231 ,47.3071 ,1.11704 ,1.44858 ,14.21346 
232 ,47.5154 ,1.11910 ,1.41778 ,13.91126 
233 ,47.7232 ,1.12124 ,1.40067 ,13.74337 
234 ,47.9155 ,1.12306 ,1.40067 ,13.74337 
235 ,48.1236 ,1.12507 ,1.38698 ,13.60906 
236 ,48.3317 ,1.12727 ,1.37671 ,13.50832 
237 ,48.5234 ,1.12926 ,1.34934 ,13.23969 
238 ,48.7315 ,1.13122 ,1.35276 ,13.27327 
239 ,48.9395 ,1.13328 ,1.33223 ,13.07180 
240 ,49.1477 ,1.13542 ,1.32538 ,13.00465 
241 ,49.3716 ,1.13759 ,1.28774 ,12.63528 
242 ,49.5798 ,1.13971 ,1.29116 ,12.66886 
243 ,49.7879 ,1.14173 ,1.28089 ,12.56813 
244 ,49.9961 ,1.14388 ,1.25009 ,12.26592 
245 ,50.1880 ,1.14581 ,1.25352 ,12.29950 
246 ,50.3802 ,1.14785 ,1.22614 ,12.03088 
247 ,50.5722 ,1.14975 ,1.23298 ,12.09803 
248 ,50.7804 ,1.15170 ,1.19876 ,11.76225 
249 ,50.9724 ,1.15374 ,1.19192 ,11.69509 
250 ,51.1644 ,1.15567 ,1.16796 ,11.46004 
251 ,51.3565 ,1.15752 ,1.15427 ,11.32573 
252 ,51.5646 ,1.15951 ,1.16796 ,11.46004 
253 ,51.7728 ,1.16161 ,1.13374 ,11.12426 
254 ,51.9808 ,1.16370 ,1.13374 ,11.12426 
255 ,52.2049 ,1.16584 ,1.10979 ,10.88921 
256 ,52.3970 ,1.16798 ,1.08241 ,10.62059 
257 ,52.6051 ,1.16997 ,1.09610 ,10.75490 
258 ,52.7812 ,1.17189 ,1.05845 ,10.38554 
259 ,52.9893 ,1.17377 ,1.04819 ,10.28480 
260 ,53.1973 ,1.17590 ,1.03450 ,10.15049 
261 ,53.3898 ,1.17781 ,1.04476 ,10.25123 
262 ,53.5978 ,1.17989 ,1.00712 ,9.88186 
263 ,53.8058 ,1.18205 ,1.01396 ,9.94902 
264 ,54.0300 ,1.18419 ,0.99001 ,9.71397 
265 ,54.2220 ,1.18612 ,0.98317 ,9.64682 
266 ,54.4298 ,1.18824 ,0.96605 ,9.47892 
267 ,54.6223 ,1.19020 ,0.95579 ,9.37819 
268 ,54.8304 ,1.19225 ,0.95237 ,9.34461 
269 ,55.0383 ,1.19428 ,0.92499 ,9.07598 
270 ,55.2467 ,1.19642 ,0.91814 ,9.00883 
271 ,55.4547 ,1.19850 ,0.89419 ,8.77378 
272 ,55.6467 ,1.20040 ,0.90103 ,8.84094 
273 ,55.8388 ,1.20229 ,0.86339 ,8.47158 
274 ,56.0309 ,1.20423 ,0.87023 ,8.53873 
275 ,56.2389 ,1.20626 ,0.84286 ,8.27011 
276 ,56.4306 ,1.20821 ,0.82575 ,8.10221 
277 ,56.6391 ,1.21034 ,0.81206 ,7.96790 
278 ,56.8474 ,1.21241 ,0.81548 ,8.00148 
279 ,57.0393 ,1.21435 ,0.78810 ,7.73285 
280 ,57.2475 ,1.21633 ,0.78468 ,7.69927 
281 ,57.4554 ,1.21843 ,0.76415 ,7.49780 
282 ,57.6473 ,1.22046 ,0.77441 ,7.59854 
283 ,57.8397 ,1.22229 ,0.74361 ,7.29633 
284 ,58.0317 ,1.22422 ,0.73335 ,7.19560 
285 ,58.2238 ,1.22617 ,0.72650 ,7.12844 
286 ,58.4320 ,1.22822 ,0.70939 ,6.96055 
287 ,58.6395 ,1.23029 ,0.69228 ,6.79266 
288 ,58.8480 ,1.23233 ,0.68886 ,6.75908 
289 ,59.0401 ,1.23432 ,0.67175 ,6.59119 
290 ,59.2482 ,1.23631 ,0.65806 ,6.45688 
291 ,59.4402 ,1.23830 ,0.64779 ,6.35614 
292 ,59.6320 ,1.24025 ,0.63068 ,6.18825 
293 ,59.8400 ,1.24232 ,0.62726 ,6.15467 
294 ,60.0324 ,1.24427 ,0.60673 ,5.95320 
295 ,60.2728 ,1.24644 ,0.59988 ,5.88605 
296 ,60.4807 ,1.24864 ,0.58962 ,5.78531 
297 ,60.6728 ,1.25067 ,0.55882 ,5.48311 
298 ,60.8804 ,1.25267 ,0.56908 ,5.58384 
299 ,61.0731 ,1.25469 ,0.54171 ,5.31522 
300 ,61.2812 ,1.25669 ,0.54171 ,5.31522 
301 ,61.5052 ,1.25891 ,0.53828 ,5.28164 
302 ,61.6973 ,1.26093 ,0.49037 ,4.81154 
303 ,61.9050 ,1.26288 ,0.50748 ,4.97943 
304 ,62.1134 ,1.26498 ,0.48353 ,4.74438 
305 ,62.3215 ,1.26713 ,0.47668 ,4.67723 
306 ,62.5136 ,1.26911 ,0.45615 ,4.47576 
307 ,62.7217 ,1.27108 ,0.45273 ,4.44218 
308 ,62.9297 ,1.27318 ,0.43904 ,4.30787 
309 ,63.1217 ,1.27510 ,0.42877 ,4.20713 
310 ,63.3139 ,1.27701 ,0.40824 ,4.00566 
311 ,63.5058 ,1.27896 ,0.40140 ,3.93850 
312 ,63.6980 ,1.28084 ,0.38429 ,3.77061 
313 ,63.9059 ,1.28297 ,0.39455 ,3.87135 
314 ,64.0979 ,1.28498 ,0.37060 ,3.63630 
315 ,64.3225 ,1.28704 ,0.35349 ,3.46841 
316 ,64.5303 ,1.28922 ,0.35006 ,3.43483 
317 ,64.7066 ,1.29107 ,0.34664 ,3.40125 
318 ,64.8986 ,1.29290 ,0.32611 ,3.19978 
319 ,65.0909 ,1.29476 ,0.30900 ,3.03189 
320 ,65.2982 ,1.29685 ,0.31242 ,3.06547 
321 ,65.5064 ,1.29889 ,0.28504 ,2.79684 
322 ,65.6988 ,1.30091 ,0.28504 ,2.79684 
323 ,65.9071 ,1.30294 ,0.28162 ,2.76326 
324 ,66.1152 ,1.30495 ,0.24398 ,2.39390 
325 ,66.3228 ,1.30708 ,0.25082 ,2.46106 
326 ,66.5313 ,1.30921 ,0.23371 ,2.29317 
327 ,66.7555 ,1.31142 ,0.22002 ,2.15885 
328 ,66.9791 ,1.31364 ,0.21318 ,2.09170 
329 ,67.1876 ,1.31571 ,0.19949 ,1.95738 
330 ,67.3956 ,1.31782 ,0.18580 ,1.82307 
331 ,67.6197 ,1.32002 ,0.18580 ,1.82307 
332 ,67.8118 ,1.32205 ,0.16185 ,1.58802 
333 ,68.0199 ,1.32404 ,0.14816 ,1.45371 
334 ,68.2280 ,1.32608 ,0.14131 ,1.38655 
335 ,68.4361 ,1.32824 ,0.12420 ,1.21866 
336 ,68.6442 ,1.33028 ,0.11736 ,1.15151 
337 ,68.8523 ,1.33240 ,0.09682 ,0.95004 
338 ,69.0602 ,1.33454 ,0.10025 ,0.98361 
339 ,69.2521 ,1.33646 ,0.08998 ,0.88288 
340 ,69.4441 ,1.33828 ,0.07287 ,0.71499 
341 ,69.6362 ,1.34021 ,0.06260 ,0.61425 
342 ,69.8443 ,1.34232 ,0.06260 ,0.61425 
343 ,70.0366 ,1.34429 ,0.04891 ,0.47994 
344 ,70.2609 ,1.34636 ,0.04207 ,0.41278 
345 ,70.4685 ,1.34847 ,0.00100 ,0.00984 
346 ,70.6611 ,1.35045 ,0.01127 ,0.11058 
347 ,70.8689 ,1.35254 ,-0.01269 ,-0.12447 
348 ,71.0612 ,1.35445 ,-0.00242 ,-0.02373 
349 ,71.2693 ,1.35656 ,-0.03664 ,-0.35952 
350 ,71.5093 ,1.35876 ,-0.02980 ,-0.29236 
351 ,71.7335 ,1.36117 ,-0.05717 ,-0.56099 
352 ,71.9415 ,1.36321 ,-0.05717 ,-0.56099 
353 ,72.1336 ,1.36518 ,-0.08455 ,-0.82961 
354 ,72.3416 ,1.36725 ,-0.07771 ,-0.76246 
355 ,72.5498 ,1.36934 ,-0.08797 ,-0.86319 
356 ,72.7418 ,1.37125 ,-0.08797 ,-0.86319 
357 ,72.9497 ,1.37325 ,-0.11877 ,-1.16540 
358 ,73.1579 ,1.37541 ,-0.13588 ,-1.33329 
359 ,73.3660 ,1.37751 ,-0.13588 ,-1.33329 
360 ,73.5579 ,1.37947 ,-0.15299 ,-1.50118 
361 ,73.7664 ,1.38147 ,-0.16326 ,-1.60191 
362 ,73.9904 ,1.38370 ,-0.17353 ,-1.70265 
363 ,74.1824 ,1.38565 ,-0.18037 ,-1.76981 
364 ,74.3902 ,1.38765 ,-0.20433 ,-2.00485 
365 ,74.5826 ,1.38966 ,-0.19748 ,-1.93770 
366 ,74.7747 ,1.39163 ,-0.21459 ,-2.10559 
367 ,74.9828 ,1.39370 ,-0.22144 ,-2.17275 
368 ,75.1905 ,1.39573 ,-0.22144 ,-2.17275 
369 ,75.3987 ,1.39781 ,-0.24197 ,-2.37422 
370 ,75.6230 ,1.39995 ,-0.23855 ,-2.34064 
371 ,75.8310 ,1.40213 ,-0.27277 ,-2.67642 
372 ,76.0390 ,1.40422 ,-0.27619 ,-2.71000 
373 ,76.2312 ,1.40615 ,-0.27619 ,-2.71000 
374 ,76.4394 ,1.40831 ,-0.28988 ,-2.84431 
375 ,76.6470 ,1.41030 ,-0.29673 ,-2.91147 
376 ,76.8551 ,1.41239 ,-0.32068 ,-3.14652 
377 ,77.0633 ,1.41443 ,-0.31726 ,-3.11294 
378 ,77.3037 ,1.41688 ,-0.32410 ,-3.18010 
379 ,77.5276 ,1.41905 ,-0.34806 ,-3.41514 
380 ,77.7360 ,1.42113 ,-0.35832 ,-3.51588 
381 ,77.9440 ,1.42323 ,-0.35490 ,-3.48230 
382 ,78.1521 ,1.42531 ,-0.38228 ,-3.75093 
383 ,78.3607 ,1.42749 ,-0.39597 ,-3.88524 
384 ,78.5681 ,1.42953 ,-0.39255 ,-3.85166 
385 ,78.7763 ,1.43158 ,-0.41650 ,-4.08671 
386 ,78.9840 ,1.43362 ,-0.40966 ,-4.01955 
387 ,79.1766 ,1.43559 ,-0.44046 ,-4.32176 
388 ,79.3846 ,1.43766 ,-0.42335 ,-4.15387 
389 ,79.5763 ,1.43957 ,-0.45414 ,-4.45607 
390 ,79.7848 ,1.44167 ,-0.45072 ,-4.42249 
391 ,79.9929 ,1.44371 ,-0.47126 ,-4.62396 
392 ,80.2009 ,1.44582 ,-0.46441 ,-4.55681 
393 ,80.4089 ,1.44794 ,-0.48152 ,-4.72470 
394 ,80.6331 ,1.45009 ,-0.50206 ,-4.92617 
395 ,80.8412 ,1.45219 ,-0.50206 ,-4.92617 
396 ,81.0493 ,1.45429 ,-0.50890 ,-4.99332 
397 ,81.2577 ,1.45632 ,-0.52943 ,-5.19479 
398 ,81.4655 ,1.45846 ,-0.52259 ,-5.12764 
399 ,81.6733 ,1.46056 ,-0.54312 ,-5.32911 
400 ,81.8656 ,1.46248 ,-0.53970 ,-5.29553 
401 ,82.0575 ,1.46435 ,-0.57050 ,-5.59773 
402 ,82.2659 ,1.46643 ,-0.57392 ,-5.63131 
403 ,82.5219 ,1.46901 ,-0.58077 ,-5.69847 
404 ,82.7300 ,1.47114 ,-0.59445 ,-5.83278 
405 ,82.9376 ,1.47314 ,-0.61499 ,-6.03425 
406 ,83.1299 ,1.47509 ,-0.61156 ,-6.00067 
407 ,83.3223 ,1.47701 ,-0.62525 ,-6.13499 
408 ,83.5304 ,1.47910 ,-0.63552 ,-6.23572 
409 ,83.7384 ,1.48118 ,-0.65263 ,-6.40361 
410 ,83.9622 ,1.48338 ,-0.64579 ,-6.33646 
411 ,84.1707 ,1.48545 ,-0.66974 ,-6.57150 
412 ,84.3786 ,1.48758 ,-0.68343 ,-6.70582 
413 ,84.5869 ,1.48967 ,-0.67659 ,-6.63866 
414 ,84.8109 ,1.49182 ,-0.70739 ,-6.94086 
415 ,85.0189 ,1.49402 ,-0.70396 ,-6.90729 
416 ,85.2110 ,1.49596 ,-0.69027 ,-6.77297 
417 ,85.4031 ,1.49786 ,-0.71765 ,-7.04160 
418 ,85.6112 ,1.50001 ,-0.72107 ,-7.07518 
419 ,85.8032 ,1.50182 ,-0.74503 ,-7.31023 
420 ,86.0435 ,1.50410 ,-0.73476 ,-7.20949 
421 ,86.2510 ,1.50633 ,-0.76214 ,-7.47812 
422 ,86.4436 ,1.50822 ,-0.75872 ,-7.44454 
423 ,86.6517 ,1.51035 ,-0.78267 ,-7.67959 
424 ,86.8603 ,1.51230 ,-0.77583 ,-7.61243 
425 ,87.0678 ,1.51444 ,-0.78610 ,-7.71317 
426 ,87.2757 ,1.51656 ,-0.80321 ,-7.88106 
427 ,87.5000 ,1.51879 ,-0.79294 ,-7.78032 
428 ,87.7241 ,1.52095 ,-0.82374 ,-8.08253 
429 ,87.9480 ,1.52326 ,-0.82374 ,-8.08253 
430 ,88.1564 ,1.52532 ,-0.84427 ,-8.28400 
431 ,88.3648 ,1.52740 ,-0.85112 ,-8.35115 
432 ,88.5723 ,1.52950 ,-0.86138 ,-8.45189 
433 ,88.7806 ,1.53159 ,-0.87165 ,-8.55262 
434 ,88.9884 ,1.53361 ,-0.88192 ,-8.65336 
435 ,89.2128 ,1.53580 ,-0.89218 ,-8.75409 
436 ,89.4211 ,1.53797 ,-0.88192 ,-8.65336 
437 ,89.6129 ,1.54002 ,-0.91272 ,-8.95556 
438 ,89.8048 ,1.54186 ,-0.91614 ,-8.98914 
439 ,90.0130 ,1.54390 ,-0.92983 ,-9.12345 
440 ,90.2050 ,1.54591 ,-0.92640 ,-9.08988 
441 ,90.3973 ,1.54778 ,-0.94694 ,-9.29135 
442 ,90.6051 ,1.54972 ,-0.94351 ,-9.25777 
443 ,90.8294 ,1.55205 ,-0.95036 ,-9.32492 
444 ,91.0536 ,1.55429 ,-0.98116 ,-9.62713 
445 ,91.2456 ,1.55626 ,-0.96405 ,-9.45924 
446 ,91.4376 ,1.55814 ,-0.99143 ,-9.72786 
447 ,91.6298 ,1.56007 ,-0.98800 ,-9.69429 
448 ,91.8375 ,1.56219 ,-1.00511 ,-9.86218 
449 ,92.0300 ,1.56410 ,-1.00511 ,-9.86218 
450 ,92.2378 ,1.56613 ,-1.02907 ,-10.09723 
451 ,92.4301 ,1.56807 ,-1.02565 ,-10.06365 
452 ,92.6382 ,1.57011 ,-1.03591 ,-10.16438 
453 ,92.8619 ,1.57234 ,-1.04276 ,-10.23154 
454 ,93.0704 ,1.57447 ,-1.05987 ,-10.39943 
455 ,93.3105 ,1.57673 ,-1.07356 ,-10.53374 
456 ,93.5186 ,1.57888 ,-1.07014 ,-10.50016 
457 ,93.7585 ,1.58124 ,-1.06329 ,-10.43301 
458 ,93.9504 ,1.58330 ,-1.08725 ,-10.66806 
459 ,94.1587 ,1.58534 ,-1.09409 ,-10.73521 
460 ,94.3827 ,1.58760 ,-1.09409 ,-10.73521 
461 ,94.5910 ,1.58967 ,-1.12831 ,-11.07100 
462 ,94.7829 ,1.59156 ,-1.10778 ,-10.86953 
