Data stamp = , 04-05-2022 18:34:01 581

Calibration Values: 
Slope = , 26.54 , g/V 
Offset Voltage at no contact = , -0.501760 , V 

No , Time , Stage Position ,   Mass , Force 
   ,  (s) ,      (mm)      ,   (g)  , (mN)  

1 ,0.0000 ,0.64931 ,5.30194 ,52.02263 
2 ,0.2109 ,0.64941 ,5.29510 ,51.95548 
3 ,0.5956 ,0.65048 ,5.30536 ,52.05621 
4 ,0.8995 ,0.65275 ,5.31221 ,52.12337 
5 ,1.1394 ,0.65535 ,5.31221 ,52.12337 
6 ,1.3478 ,0.65745 ,5.30194 ,52.02263 
7 ,1.5720 ,0.65957 ,5.31221 ,52.12337 
8 ,1.7800 ,0.66179 ,5.27798 ,51.78758 
9 ,1.9879 ,0.66387 ,5.24034 ,51.41822 
10 ,2.1962 ,0.66603 ,5.22665 ,51.28391 
11 ,2.4203 ,0.66825 ,5.20954 ,51.11602 
12 ,2.6123 ,0.67020 ,5.16163 ,50.64592 
13 ,2.8046 ,0.67217 ,5.17532 ,50.78023 
14 ,2.9965 ,0.67405 ,5.13425 ,50.37729 
15 ,3.1882 ,0.67599 ,5.13083 ,50.34372 
16 ,3.3806 ,0.67789 ,5.10345 ,50.07509 
17 ,3.5728 ,0.67980 ,5.07950 ,49.84004 
18 ,3.7807 ,0.68186 ,5.07950 ,49.84004 
19 ,3.9729 ,0.68377 ,5.04185 ,49.47068 
20 ,4.1806 ,0.68588 ,5.02817 ,49.33637 
21 ,4.3730 ,0.68794 ,4.98710 ,48.93343 
22 ,4.5811 ,0.68985 ,4.98710 ,48.93343 
23 ,4.7732 ,0.69176 ,4.95972 ,48.66480 
24 ,4.9654 ,0.69375 ,4.95288 ,48.59764 
25 ,5.1734 ,0.69575 ,4.91866 ,48.26186 
26 ,5.3652 ,0.69772 ,4.91181 ,48.19471 
27 ,5.5573 ,0.69964 ,4.88786 ,47.95966 
28 ,5.7656 ,0.70173 ,4.86048 ,47.69103 
29 ,5.9578 ,0.70366 ,4.85364 ,47.62387 
30 ,6.1498 ,0.70553 ,4.82968 ,47.38883 
31 ,6.3419 ,0.70742 ,4.81941 ,47.28809 
32 ,6.5500 ,0.70954 ,4.77835 ,46.88515 
33 ,6.7422 ,0.71152 ,4.78177 ,46.91873 
34 ,6.9503 ,0.71350 ,4.74070 ,46.51579 
35 ,7.1580 ,0.71562 ,4.73386 ,46.44863 
36 ,7.3825 ,0.71769 ,4.71333 ,46.24716 
37 ,7.5904 ,0.71999 ,4.68937 ,46.01212 
38 ,7.7820 ,0.72184 ,4.68937 ,46.01212 
39 ,7.9747 ,0.72384 ,4.64146 ,45.54202 
40 ,8.1827 ,0.72588 ,4.64146 ,45.54202 
41 ,8.3908 ,0.72789 ,4.59355 ,45.07192 
42 ,8.5987 ,0.73010 ,4.60382 ,45.17266 
43 ,8.8229 ,0.73219 ,4.57302 ,44.87045 
44 ,9.0632 ,0.73452 ,4.55591 ,44.70256 
45 ,9.2712 ,0.73674 ,4.53195 ,44.46751 
46 ,9.4634 ,0.73866 ,4.52853 ,44.43394 
47 ,9.6715 ,0.74080 ,4.48746 ,44.03100 
48 ,9.8791 ,0.74279 ,4.49773 ,44.13173 
49 ,10.1033 ,0.74506 ,4.44640 ,43.62806 
50 ,10.3116 ,0.74710 ,4.43271 ,43.49374 
51 ,10.5037 ,0.74918 ,4.41902 ,43.35943 
52 ,10.7118 ,0.75109 ,4.39849 ,43.15796 
53 ,10.9199 ,0.75322 ,4.38138 ,42.99007 
54 ,11.1440 ,0.75536 ,4.37111 ,42.88933 
55 ,11.3360 ,0.75742 ,4.34373 ,42.62071 
56 ,11.5282 ,0.75930 ,4.33004 ,42.48639 
57 ,11.7203 ,0.76127 ,4.31636 ,42.35208 
58 ,11.9118 ,0.76315 ,4.29240 ,42.11703 
59 ,12.1201 ,0.76523 ,4.27871 ,41.98272 
60 ,12.3285 ,0.76726 ,4.24449 ,41.64694 
61 ,12.5365 ,0.76941 ,4.23422 ,41.54620 
62 ,12.7285 ,0.77128 ,4.21711 ,41.37831 
63 ,12.9367 ,0.77341 ,4.20000 ,41.21042 
64 ,13.1284 ,0.77533 ,4.16920 ,40.90821 
65 ,13.3209 ,0.77726 ,4.17947 ,41.00895 
66 ,13.5290 ,0.77925 ,4.13498 ,40.57243 
67 ,13.7370 ,0.78138 ,4.10760 ,40.30380 
68 ,13.9452 ,0.78345 ,4.11103 ,40.33738 
69 ,14.1531 ,0.78556 ,4.08023 ,40.03518 
70 ,14.3453 ,0.78746 ,4.07680 ,40.00160 
71 ,14.5372 ,0.78938 ,4.05627 ,39.80013 
72 ,14.7296 ,0.79134 ,4.04258 ,39.66582 
73 ,14.9374 ,0.79330 ,4.01863 ,39.43077 
74 ,15.1297 ,0.79532 ,3.99809 ,39.22930 
75 ,15.3535 ,0.79755 ,3.97414 ,38.99425 
76 ,15.5618 ,0.79967 ,3.95703 ,38.82636 
77 ,15.7697 ,0.80170 ,3.94334 ,38.69205 
78 ,15.9778 ,0.80378 ,3.92965 ,38.55773 
79 ,16.1700 ,0.80571 ,3.90227 ,38.28911 
80 ,16.3622 ,0.80769 ,3.88858 ,38.15479 
81 ,16.5702 ,0.80966 ,3.85436 ,37.81901 
82 ,16.7623 ,0.81161 ,3.87147 ,37.98690 
83 ,16.9543 ,0.81356 ,3.83041 ,37.58396 
84 ,17.1465 ,0.81550 ,3.82356 ,37.51681 
85 ,17.3382 ,0.81740 ,3.80303 ,37.31534 
86 ,17.5467 ,0.81948 ,3.78250 ,37.11387 
87 ,17.7548 ,0.82154 ,3.75512 ,36.84524 
88 ,17.9949 ,0.82394 ,3.74485 ,36.74450 
89 ,18.2029 ,0.82601 ,3.73117 ,36.61019 
90 ,18.3950 ,0.82799 ,3.70037 ,36.30799 
91 ,18.6191 ,0.83021 ,3.69694 ,36.27441 
92 ,18.8430 ,0.83241 ,3.66614 ,35.97220 
93 ,19.0513 ,0.83449 ,3.64561 ,35.77073 
94 ,19.2431 ,0.83655 ,3.63192 ,35.63642 
95 ,19.4515 ,0.83847 ,3.61139 ,35.43495 
96 ,19.6595 ,0.84056 ,3.60112 ,35.33422 
97 ,19.8516 ,0.84258 ,3.56348 ,34.96485 
98 ,20.0437 ,0.84444 ,3.56690 ,34.99843 
99 ,20.2518 ,0.84650 ,3.53268 ,34.66265 
100 ,20.4598 ,0.84856 ,3.53268 ,34.66265 
101 ,20.6356 ,0.85048 ,3.49846 ,34.32687 
102 ,20.8439 ,0.85241 ,3.48819 ,34.22613 
103 ,21.0678 ,0.85461 ,3.45397 ,33.89035 
104 ,21.2602 ,0.85662 ,3.46424 ,33.99108 
105 ,21.4683 ,0.85866 ,3.43686 ,33.72246 
106 ,21.6604 ,0.86060 ,3.41633 ,33.52099 
107 ,21.8683 ,0.86265 ,3.37868 ,33.15163 
108 ,22.0605 ,0.86462 ,3.39237 ,33.28594 
109 ,22.2527 ,0.86652 ,3.35130 ,32.88300 
110 ,22.4608 ,0.86859 ,3.35815 ,32.95016 
111 ,22.6687 ,0.87064 ,3.31366 ,32.51364 
112 ,22.8764 ,0.87276 ,3.30339 ,32.41290 
113 ,23.0689 ,0.87469 ,3.28286 ,32.21143 
114 ,23.2770 ,0.87676 ,3.27602 ,32.14428 
115 ,23.4849 ,0.87879 ,3.24864 ,31.87565 
116 ,23.7092 ,0.88105 ,3.22811 ,31.67418 
117 ,23.9011 ,0.88302 ,3.22811 ,31.67418 
118 ,24.1415 ,0.88526 ,3.20073 ,31.40555 
119 ,24.3496 ,0.88743 ,3.17677 ,31.17051 
120 ,24.5575 ,0.88956 ,3.15966 ,31.00262 
121 ,24.7658 ,0.89169 ,3.14597 ,30.86830 
122 ,24.9578 ,0.89361 ,3.12202 ,30.63325 
123 ,25.1658 ,0.89567 ,3.11518 ,30.56610 
124 ,25.3579 ,0.89759 ,3.09806 ,30.39821 
125 ,25.5340 ,0.89944 ,3.08438 ,30.26389 
126 ,25.7262 ,0.90119 ,3.05700 ,29.99527 
127 ,25.9342 ,0.90328 ,3.04673 ,29.89453 
128 ,26.1419 ,0.90538 ,3.03989 ,29.82737 
129 ,26.3504 ,0.90747 ,3.00567 ,29.49159 
130 ,26.5582 ,0.90953 ,2.99540 ,29.39086 
131 ,26.7665 ,0.91163 ,2.97829 ,29.22297 
132 ,26.9582 ,0.91354 ,2.96118 ,29.05507 
133 ,27.1507 ,0.91543 ,2.92696 ,28.71929 
134 ,27.3425 ,0.91739 ,2.93722 ,28.82003 
135 ,27.5507 ,0.91950 ,2.90642 ,28.51782 
136 ,27.7587 ,0.92157 ,2.89958 ,28.45066 
137 ,27.9509 ,0.92345 ,2.86878 ,28.14846 
138 ,28.1592 ,0.92550 ,2.87562 ,28.21562 
139 ,28.3668 ,0.92765 ,2.84482 ,27.91341 
140 ,28.5590 ,0.92951 ,2.85167 ,27.98057 
141 ,28.7514 ,0.93145 ,2.81402 ,27.61121 
142 ,28.9435 ,0.93343 ,2.80034 ,27.47689 
143 ,29.1834 ,0.93582 ,2.78665 ,27.34258 
144 ,29.3913 ,0.93784 ,2.75243 ,27.00680 
145 ,29.5997 ,0.93990 ,2.76954 ,27.17469 
146 ,29.8079 ,0.94206 ,2.71820 ,26.67101 
147 ,30.0158 ,0.94409 ,2.71136 ,26.60386 
148 ,30.2077 ,0.94603 ,2.68740 ,26.36881 
149 ,30.4160 ,0.94810 ,2.68398 ,26.33523 
150 ,30.6081 ,0.95002 ,2.65660 ,26.06661 
151 ,30.8329 ,0.95228 ,2.64634 ,25.96587 
152 ,31.0403 ,0.95436 ,2.63607 ,25.86514 
153 ,31.2160 ,0.95624 ,2.60869 ,25.59651 
154 ,31.4085 ,0.95804 ,2.59501 ,25.46220 
155 ,31.6002 ,0.95998 ,2.59501 ,25.46220 
156 ,31.8087 ,0.96202 ,2.55394 ,25.05926 
157 ,32.0327 ,0.96426 ,2.54025 ,24.92494 
158 ,32.2249 ,0.96620 ,2.53683 ,24.89136 
159 ,32.4169 ,0.96827 ,2.51972 ,24.72347 
160 ,32.6089 ,0.97002 ,2.49918 ,24.52200 
161 ,32.8011 ,0.97200 ,2.49576 ,24.48842 
162 ,33.0091 ,0.97401 ,2.47181 ,24.25338 
163 ,33.2013 ,0.97596 ,2.46839 ,24.21980 
164 ,33.3934 ,0.97787 ,2.43759 ,23.91759 
165 ,33.6015 ,0.97996 ,2.42732 ,23.81686 
166 ,33.7930 ,0.98194 ,2.38625 ,23.41392 
167 ,34.0016 ,0.98395 ,2.39652 ,23.51465 
168 ,34.1936 ,0.98599 ,2.36572 ,23.21245 
169 ,34.3857 ,0.98783 ,2.37599 ,23.31318 
170 ,34.5777 ,0.98987 ,2.34519 ,23.01098 
171 ,34.7699 ,0.99166 ,2.32465 ,22.80951 
172 ,34.9777 ,0.99365 ,2.32465 ,22.80951 
173 ,35.1860 ,0.99574 ,2.30070 ,22.57446 
174 ,35.3941 ,0.99786 ,2.28017 ,22.37299 
175 ,35.6023 ,0.99994 ,2.26990 ,22.27226 
176 ,35.7943 ,1.00188 ,2.24252 ,22.00363 
177 ,36.0019 ,1.00391 ,2.24594 ,22.03721 
178 ,36.1944 ,1.00587 ,2.20488 ,21.63427 
179 ,36.4026 ,1.00789 ,2.21515 ,21.73500 
180 ,36.6105 ,1.01010 ,2.17066 ,21.29849 
181 ,36.8188 ,1.01208 ,2.17750 ,21.36564 
182 ,37.0264 ,1.01415 ,2.15012 ,21.09702 
183 ,37.2349 ,1.01625 ,2.14328 ,21.02986 
184 ,37.4268 ,1.01835 ,2.12617 ,20.86197 
185 ,37.6351 ,1.02030 ,2.10906 ,20.69408 
186 ,37.8432 ,1.02233 ,2.09537 ,20.55976 
187 ,38.0832 ,1.02468 ,2.07826 ,20.39187 
188 ,38.2911 ,1.02678 ,2.06115 ,20.22398 
189 ,38.4833 ,1.02886 ,2.04746 ,20.08967 
190 ,38.6915 ,1.03074 ,2.01324 ,19.75388 
191 ,38.8995 ,1.03291 ,2.01666 ,19.78746 
192 ,39.1076 ,1.03495 ,1.98586 ,19.48526 
193 ,39.2993 ,1.03693 ,1.98928 ,19.51884 
194 ,39.4919 ,1.03887 ,1.96190 ,19.25021 
195 ,39.7160 ,1.04109 ,1.94479 ,19.08232 
196 ,39.9079 ,1.04314 ,1.93795 ,19.01516 
197 ,40.1322 ,1.04521 ,1.91057 ,18.74654 
198 ,40.3398 ,1.04733 ,1.91057 ,18.74654 
199 ,40.5483 ,1.04937 ,1.88662 ,18.51149 
200 ,40.7565 ,1.05154 ,1.86951 ,18.34360 
201 ,40.9645 ,1.05352 ,1.86266 ,18.27644 
202 ,41.1566 ,1.05549 ,1.83871 ,18.04139 
203 ,41.3485 ,1.05744 ,1.81817 ,17.83992 
204 ,41.5722 ,1.05954 ,1.82502 ,17.90708 
205 ,41.7803 ,1.06170 ,1.79764 ,17.63845 
206 ,41.9889 ,1.06381 ,1.77026 ,17.36983 
207 ,42.2291 ,1.06622 ,1.75657 ,17.23551 
208 ,42.4532 ,1.06830 ,1.74973 ,17.16836 
209 ,42.6450 ,1.07052 ,1.74973 ,17.16836 
210 ,42.8378 ,1.07232 ,1.72235 ,16.89973 
211 ,43.0455 ,1.07432 ,1.71209 ,16.79899 
212 ,43.2536 ,1.07642 ,1.68129 ,16.49679 
213 ,43.4774 ,1.07862 ,1.68471 ,16.53037 
214 ,43.6693 ,1.08062 ,1.65391 ,16.22816 
215 ,43.8776 ,1.08260 ,1.65733 ,16.26174 
216 ,44.0858 ,1.08471 ,1.62995 ,15.99311 
217 ,44.2776 ,1.08668 ,1.60942 ,15.79164 
218 ,44.4700 ,1.08865 ,1.59573 ,15.65733 
219 ,44.6778 ,1.09070 ,1.58889 ,15.59018 
220 ,44.8862 ,1.09280 ,1.56493 ,15.35513 
221 ,45.1101 ,1.09497 ,1.54782 ,15.18724 
222 ,45.3020 ,1.09699 ,1.55467 ,15.25439 
223 ,45.4943 ,1.09887 ,1.51702 ,14.88503 
224 ,45.7025 ,1.10089 ,1.52729 ,14.98577 
225 ,45.9107 ,1.10302 ,1.48965 ,14.61640 
226 ,46.1187 ,1.10503 ,1.48965 ,14.61640 
227 ,46.3108 ,1.10704 ,1.46569 ,14.38136 
228 ,46.5029 ,1.10895 ,1.46569 ,14.38136 
229 ,46.7110 ,1.11098 ,1.43489 ,14.07915 
230 ,46.9186 ,1.11303 ,1.42805 ,14.01199 
231 ,47.1272 ,1.11515 ,1.42120 ,13.94484 
232 ,47.3513 ,1.11732 ,1.38014 ,13.54190 
233 ,47.5594 ,1.11951 ,1.37671 ,13.50832 
234 ,47.7674 ,1.12153 ,1.38014 ,13.54190 
235 ,47.9756 ,1.12367 ,1.34591 ,13.20612 
236 ,48.1833 ,1.12574 ,1.34934 ,13.23969 
237 ,48.3918 ,1.12786 ,1.31854 ,12.93749 
238 ,48.5996 ,1.12987 ,1.31512 ,12.90391 
239 ,48.7919 ,1.13182 ,1.29116 ,12.66886 
240 ,48.9999 ,1.13388 ,1.28774 ,12.63528 
241 ,49.1918 ,1.13580 ,1.26036 ,12.36666 
242 ,49.3842 ,1.13774 ,1.27405 ,12.50097 
243 ,49.5922 ,1.13979 ,1.22614 ,12.03088 
244 ,49.7844 ,1.14175 ,1.23298 ,12.09803 
245 ,50.0083 ,1.14382 ,1.20903 ,11.86298 
246 ,50.2000 ,1.14590 ,1.20218 ,11.79583 
247 ,50.4085 ,1.14793 ,1.18850 ,11.66151 
248 ,50.6486 ,1.15036 ,1.18165 ,11.59436 
249 ,50.8566 ,1.15246 ,1.16112 ,11.39289 
250 ,51.0648 ,1.15450 ,1.16112 ,11.39289 
251 ,51.2725 ,1.15661 ,1.13032 ,11.09068 
252 ,51.4809 ,1.15863 ,1.12347 ,11.02353 
253 ,51.6888 ,1.16077 ,1.11321 ,10.92279 
254 ,51.8809 ,1.16266 ,1.09952 ,10.78848 
255 ,52.0893 ,1.16475 ,1.07556 ,10.55343 
256 ,52.3133 ,1.16689 ,1.04819 ,10.28480 
257 ,52.5053 ,1.16897 ,1.05845 ,10.38554 
258 ,52.7136 ,1.17099 ,1.03792 ,10.18407 
259 ,52.9213 ,1.17303 ,1.03450 ,10.15049 
260 ,53.1137 ,1.17514 ,1.00370 ,9.84829 
261 ,53.3055 ,1.17690 ,1.01054 ,9.91544 
262 ,53.4973 ,1.17894 ,0.97632 ,9.57966 
263 ,53.7056 ,1.18090 ,0.97974 ,9.61324 
264 ,53.8979 ,1.18285 ,0.94552 ,9.27745 
265 ,54.1058 ,1.18489 ,0.94552 ,9.27745 
266 ,54.2980 ,1.18681 ,0.91472 ,8.97525 
267 ,54.4902 ,1.18875 ,0.92499 ,9.07598 
268 ,54.7141 ,1.19097 ,0.89761 ,8.80736 
269 ,54.9224 ,1.19308 ,0.89419 ,8.77378 
270 ,55.1145 ,1.19499 ,0.86681 ,8.50515 
271 ,55.3227 ,1.19712 ,0.87023 ,8.53873 
272 ,55.5146 ,1.19903 ,0.85654 ,8.40442 
273 ,55.7063 ,1.20089 ,0.85312 ,8.37084 
274 ,55.8987 ,1.20283 ,0.81548 ,8.00148 
275 ,56.1069 ,1.20499 ,0.82917 ,8.13579 
276 ,56.3149 ,1.20696 ,0.79495 ,7.80001 
277 ,56.5069 ,1.20893 ,0.81206 ,7.96790 
278 ,56.7153 ,1.21098 ,0.77099 ,7.56496 
279 ,56.9234 ,1.21314 ,0.77784 ,7.63212 
280 ,57.1314 ,1.21516 ,0.75046 ,7.36349 
281 ,57.3234 ,1.21712 ,0.74704 ,7.32991 
282 ,57.5156 ,1.21897 ,0.70939 ,6.96055 
283 ,57.7394 ,1.22124 ,0.70939 ,6.96055 
284 ,57.9475 ,1.22327 ,0.70597 ,6.92697 
285 ,58.1237 ,1.22522 ,0.69570 ,6.82624 
286 ,58.3155 ,1.22700 ,0.67175 ,6.59119 
287 ,58.5077 ,1.22894 ,0.67175 ,6.59119 
288 ,58.6836 ,1.23080 ,0.64779 ,6.35614 
289 ,58.8918 ,1.23274 ,0.63410 ,6.22183 
290 ,59.1000 ,1.23487 ,0.63068 ,6.18825 
291 ,59.3083 ,1.23693 ,0.61699 ,6.05394 
292 ,59.5003 ,1.23889 ,0.59988 ,5.88605 
293 ,59.7245 ,1.24107 ,0.59646 ,5.85247 
294 ,59.9326 ,1.24318 ,0.57251 ,5.61742 
295 ,60.1247 ,1.24506 ,0.57593 ,5.65100 
296 ,60.3327 ,1.24722 ,0.54855 ,5.38237 
297 ,60.5247 ,1.24908 ,0.55539 ,5.44953 
298 ,60.7330 ,1.25120 ,0.52459 ,5.14732 
299 ,60.9409 ,1.25324 ,0.52459 ,5.14732 
300 ,61.1326 ,1.25516 ,0.49380 ,4.84512 
301 ,61.3569 ,1.25729 ,0.50406 ,4.94585 
302 ,61.5812 ,1.25958 ,0.49037 ,4.81154 
303 ,61.7734 ,1.26159 ,0.46642 ,4.57649 
304 ,61.9814 ,1.26363 ,0.45957 ,4.50934 
305 ,62.2051 ,1.26581 ,0.44246 ,4.34144 
306 ,62.4136 ,1.26791 ,0.42193 ,4.13997 
307 ,62.6218 ,1.27004 ,0.42535 ,4.17355 
308 ,62.8132 ,1.27198 ,0.39113 ,3.83777 
309 ,63.0058 ,1.27395 ,0.40140 ,3.93850 
310 ,63.1978 ,1.27583 ,0.38429 ,3.77061 
311 ,63.4220 ,1.27799 ,0.37744 ,3.70346 
312 ,63.6140 ,1.27998 ,0.35349 ,3.46841 
313 ,63.8063 ,1.28189 ,0.36033 ,3.53557 
314 ,64.0140 ,1.28395 ,0.32953 ,3.23336 
315 ,64.2220 ,1.28606 ,0.33638 ,3.30052 
316 ,64.4139 ,1.28797 ,0.30215 ,2.96473 
317 ,64.6066 ,1.28988 ,0.31584 ,3.09905 
318 ,64.7984 ,1.29177 ,0.29189 ,2.86400 
319 ,65.0068 ,1.29390 ,0.29531 ,2.89758 
320 ,65.1988 ,1.29583 ,0.27135 ,2.66253 
321 ,65.4068 ,1.29792 ,0.27135 ,2.66253 
322 ,65.6311 ,1.30013 ,0.24398 ,2.39390 
323 ,65.8551 ,1.30234 ,0.23713 ,2.32675 
324 ,66.0472 ,1.30429 ,0.23029 ,2.25959 
325 ,66.2554 ,1.30639 ,0.19949 ,1.95738 
326 ,66.4635 ,1.30842 ,0.20633 ,2.02454 
327 ,66.6714 ,1.31046 ,0.17896 ,1.75592 
328 ,66.8636 ,1.31244 ,0.19264 ,1.89023 
329 ,67.0715 ,1.31451 ,0.15500 ,1.52087 
330 ,67.2798 ,1.31649 ,0.17896 ,1.75592 
331 ,67.4875 ,1.31871 ,0.15158 ,1.48729 
332 ,67.7116 ,1.32088 ,0.12762 ,1.25224 
333 ,67.9038 ,1.32282 ,0.13789 ,1.35298 
334 ,68.0959 ,1.32480 ,0.10709 ,1.05077 
335 ,68.2880 ,1.32671 ,0.11051 ,1.08435 
336 ,68.4799 ,1.32865 ,0.09340 ,0.91646 
337 ,68.6882 ,1.33065 ,0.07629 ,0.74857 
338 ,68.9124 ,1.33283 ,0.06945 ,0.68141 
339 ,69.1041 ,1.33496 ,0.06602 ,0.64783 
340 ,69.2966 ,1.33681 ,0.04207 ,0.41278 
341 ,69.5044 ,1.33882 ,0.04207 ,0.41278 
342 ,69.6966 ,1.34075 ,0.02496 ,0.24489 
343 ,69.9046 ,1.34280 ,0.01469 ,0.14416 
344 ,70.0970 ,1.34477 ,0.00443 ,0.04342 
345 ,70.3048 ,1.34680 ,0.00785 ,0.07700 
346 ,70.5131 ,1.34890 ,-0.01953 ,-0.19163 
347 ,70.7212 ,1.35102 ,-0.02295 ,-0.22520 
348 ,70.9128 ,1.35305 ,-0.04006 ,-0.39310 
349 ,71.1214 ,1.35496 ,-0.03664 ,-0.35952 
350 ,71.3291 ,1.35713 ,-0.06744 ,-0.66172 
351 ,71.5055 ,1.35900 ,-0.06744 ,-0.66172 
352 ,71.7136 ,1.36088 ,-0.08455 ,-0.82961 
353 ,71.9218 ,1.36298 ,-0.07086 ,-0.69530 
354 ,72.1137 ,1.36496 ,-0.11535 ,-1.13182 
355 ,72.3057 ,1.36687 ,-0.09824 ,-0.96393 
356 ,72.4977 ,1.36876 ,-0.11877 ,-1.16540 
357 ,72.6901 ,1.37070 ,-0.13246 ,-1.29971 
358 ,72.9142 ,1.37292 ,-0.14615 ,-1.43402 
359 ,73.1058 ,1.37493 ,-0.15642 ,-1.53476 
360 ,73.3144 ,1.37692 ,-0.17695 ,-1.73623 
361 ,73.5225 ,1.37902 ,-0.16326 ,-1.60191 
362 ,73.7146 ,1.38093 ,-0.18722 ,-1.83696 
363 ,73.9226 ,1.38296 ,-0.19064 ,-1.87054 
364 ,74.1147 ,1.38491 ,-0.21459 ,-2.10559 
365 ,74.3067 ,1.38685 ,-0.21117 ,-2.07201 
366 ,74.5147 ,1.38902 ,-0.23170 ,-2.27348 
367 ,74.7068 ,1.39087 ,-0.22828 ,-2.23990 
368 ,74.9150 ,1.39291 ,-0.24539 ,-2.40779 
369 ,75.1069 ,1.39484 ,-0.24881 ,-2.44137 
370 ,75.3147 ,1.39688 ,-0.25566 ,-2.50853 
371 ,75.5391 ,1.39904 ,-0.27277 ,-2.67642 
372 ,75.7471 ,1.40128 ,-0.28304 ,-2.77716 
373 ,75.9553 ,1.40331 ,-0.28988 ,-2.84431 
374 ,76.1474 ,1.40539 ,-0.30015 ,-2.94505 
375 ,76.3393 ,1.40715 ,-0.30699 ,-3.01220 
376 ,76.5476 ,1.40922 ,-0.34121 ,-3.34799 
377 ,76.7716 ,1.41151 ,-0.34464 ,-3.38156 
378 ,76.9639 ,1.41339 ,-0.33779 ,-3.31441 
379 ,77.1720 ,1.41549 ,-0.36517 ,-3.58303 
380 ,77.3799 ,1.41756 ,-0.35832 ,-3.51588 
381 ,77.5721 ,1.41950 ,-0.38912 ,-3.81808 
382 ,77.7643 ,1.42144 ,-0.37544 ,-3.68377 
383 ,77.9723 ,1.42348 ,-0.41308 ,-4.05313 
384 ,78.1645 ,1.42542 ,-0.39597 ,-3.88524 
385 ,78.3721 ,1.42750 ,-0.41992 ,-4.12029 
386 ,78.5802 ,1.42951 ,-0.42335 ,-4.15387 
387 ,78.7884 ,1.43167 ,-0.43703 ,-4.28818 
388 ,78.9967 ,1.43374 ,-0.44730 ,-4.38891 
389 ,79.2049 ,1.43584 ,-0.44388 ,-4.35534 
390 ,79.4128 ,1.43789 ,-0.47126 ,-4.62396 
391 ,79.6210 ,1.43999 ,-0.46783 ,-4.59038 
392 ,79.8288 ,1.44206 ,-0.48837 ,-4.79185 
393 ,80.0370 ,1.44416 ,-0.48494 ,-4.75828 
394 ,80.2451 ,1.44619 ,-0.50890 ,-4.99332 
395 ,80.4689 ,1.44836 ,-0.52601 ,-5.16121 
396 ,80.6615 ,1.45034 ,-0.51574 ,-5.06048 
397 ,80.8854 ,1.45256 ,-0.53628 ,-5.26195 
398 ,81.0776 ,1.45455 ,-0.54312 ,-5.32911 
399 ,81.3017 ,1.45674 ,-0.55681 ,-5.46342 
400 ,81.5098 ,1.45881 ,-0.57392 ,-5.63131 
401 ,81.7174 ,1.46085 ,-0.56708 ,-5.56415 
402 ,81.8934 ,1.46282 ,-0.59103 ,-5.79920 
403 ,82.0860 ,1.46463 ,-0.59445 ,-5.83278 
404 ,82.2780 ,1.46665 ,-0.61156 ,-6.00067 
405 ,82.4701 ,1.46843 ,-0.61841 ,-6.06783 
406 ,82.6623 ,1.47040 ,-0.61156 ,-6.00067 
407 ,82.8704 ,1.47245 ,-0.64236 ,-6.30288 
408 ,83.0945 ,1.47458 ,-0.62525 ,-6.13499 
409 ,83.3023 ,1.47677 ,-0.63894 ,-6.26930 
410 ,83.5105 ,1.47879 ,-0.67316 ,-6.60508 
411 ,83.7507 ,1.48124 ,-0.67659 ,-6.63866 
412 ,83.9588 ,1.48330 ,-0.67316 ,-6.60508 
413 ,84.1667 ,1.48534 ,-0.69370 ,-6.80655 
414 ,84.3588 ,1.48735 ,-0.68001 ,-6.67224 
415 ,84.5668 ,1.48935 ,-0.71423 ,-7.00802 
416 ,84.7749 ,1.49156 ,-0.71081 ,-6.97444 
417 ,84.9834 ,1.49362 ,-0.71423 ,-7.00802 
418 ,85.1749 ,1.49557 ,-0.74845 ,-7.34380 
419 ,85.3671 ,1.49742 ,-0.73476 ,-7.20949 
420 ,85.5755 ,1.49952 ,-0.74845 ,-7.34380 
421 ,85.7836 ,1.50160 ,-0.75187 ,-7.37738 
422 ,85.9917 ,1.50359 ,-0.77241 ,-7.57885 
423 ,86.1993 ,1.50574 ,-0.76898 ,-7.54527 
424 ,86.4076 ,1.50783 ,-0.79294 ,-7.78032 
425 ,86.6315 ,1.51007 ,-0.79294 ,-7.78032 
426 ,86.8237 ,1.51198 ,-0.79636 ,-7.81390 
427 ,87.0320 ,1.51404 ,-0.81347 ,-7.98179 
428 ,87.2240 ,1.51600 ,-0.81689 ,-8.01537 
429 ,87.4161 ,1.51799 ,-0.84085 ,-8.25042 
430 ,87.6079 ,1.51984 ,-0.85796 ,-8.41831 
431 ,87.8164 ,1.52186 ,-0.83401 ,-8.18326 
432 ,88.0086 ,1.52383 ,-0.86481 ,-8.48547 
433 ,88.2166 ,1.52590 ,-0.85454 ,-8.38473 
434 ,88.4084 ,1.52778 ,-0.88534 ,-8.68694 
435 ,88.6169 ,1.52991 ,-0.87165 ,-8.55262 
436 ,88.8248 ,1.53204 ,-0.89218 ,-8.75409 
437 ,89.0169 ,1.53390 ,-0.89903 ,-8.82125 
438 ,89.2251 ,1.53599 ,-0.92298 ,-9.05630 
439 ,89.4333 ,1.53807 ,-0.91956 ,-9.02272 
440 ,89.6248 ,1.54007 ,-0.91956 ,-9.02272 
441 ,89.8171 ,1.54190 ,-0.91956 ,-9.02272 
442 ,90.0253 ,1.54395 ,-0.95378 ,-9.35850 
443 ,90.2174 ,1.54591 ,-0.94694 ,-9.29135 
444 ,90.4096 ,1.54781 ,-0.97089 ,-9.52639 
445 ,90.6172 ,1.54982 ,-0.95720 ,-9.39208 
446 ,90.8415 ,1.55201 ,-0.98116 ,-9.62713 
447 ,91.0495 ,1.55422 ,-0.99827 ,-9.79502 
448 ,91.2419 ,1.55613 ,-0.98458 ,-9.66071 
449 ,91.4500 ,1.55816 ,-1.00854 ,-9.89576 
450 ,91.6421 ,1.56014 ,-0.99827 ,-9.79502 
451 ,91.8500 ,1.56225 ,-1.03249 ,-10.13080 
452 ,92.0580 ,1.56428 ,-1.01880 ,-9.99649 
453 ,92.2664 ,1.56641 ,-1.03249 ,-10.13080 
454 ,92.4743 ,1.56849 ,-1.03934 ,-10.19796 
455 ,92.6666 ,1.57040 ,-1.05645 ,-10.36585 
456 ,92.8744 ,1.57251 ,-1.06329 ,-10.43301 
457 ,93.0666 ,1.57447 ,-1.06329 ,-10.43301 
458 ,93.2745 ,1.57649 ,-1.07356 ,-10.53374 
459 ,93.4828 ,1.57847 ,-1.07698 ,-10.56732 
460 ,93.6749 ,1.58046 ,-1.09409 ,-10.73521 
461 ,93.8826 ,1.58253 ,-1.10093 ,-10.80237 
462 ,94.0909 ,1.58457 ,-1.11805 ,-10.97026 
