Data stamp = , 05-05-2022 18:21:34 609

Calibration Values: 
Slope = , 26.54 , g/V 
Offset Voltage at no contact = , -0.501760 , V 

No , Time , Stage Position ,   Mass , Force 
   ,  (s) ,      (mm)      ,   (g)  , (mN)  

1 ,0.0000 ,0.64949 ,5.18901 ,50.91455 
2 ,0.2248 ,0.64956 ,5.17874 ,50.81381 
3 ,0.6091 ,0.65070 ,5.18559 ,50.88097 
4 ,0.8010 ,0.65249 ,5.19243 ,50.94813 
5 ,1.0255 ,0.65436 ,5.17874 ,50.81381 
6 ,1.2173 ,0.65644 ,5.17874 ,50.81381 
7 ,1.4095 ,0.65826 ,5.18901 ,50.91455 
8 ,1.6176 ,0.66037 ,5.18559 ,50.88097 
9 ,1.8257 ,0.66240 ,5.19243 ,50.94813 
10 ,2.0176 ,0.66440 ,5.15821 ,50.61234 
11 ,2.2419 ,0.66660 ,5.15821 ,50.61234 
12 ,2.4336 ,0.66862 ,5.11030 ,50.14225 
13 ,2.6582 ,0.67075 ,5.11030 ,50.14225 
14 ,2.8658 ,0.67290 ,5.07950 ,49.84004 
15 ,3.0584 ,0.67479 ,5.08634 ,49.90720 
16 ,3.2663 ,0.67685 ,5.05897 ,49.63857 
17 ,3.4744 ,0.67891 ,5.04870 ,49.53784 
18 ,3.6665 ,0.68090 ,5.03501 ,49.40352 
19 ,3.8587 ,0.68284 ,4.99052 ,48.96701 
20 ,4.0828 ,0.68505 ,4.98710 ,48.93343 
21 ,4.2908 ,0.68708 ,4.95972 ,48.66480 
22 ,4.4828 ,0.68907 ,4.95630 ,48.63122 
23 ,4.6746 ,0.69095 ,4.91866 ,48.26186 
24 ,4.8831 ,0.69304 ,4.91523 ,48.22828 
25 ,5.1552 ,0.69562 ,4.88786 ,47.95966 
26 ,5.3633 ,0.69779 ,4.87417 ,47.82534 
27 ,5.5873 ,0.70002 ,4.84679 ,47.55672 
28 ,5.7792 ,0.70205 ,4.82284 ,47.32167 
29 ,6.0036 ,0.70420 ,4.80230 ,47.12020 
30 ,6.2115 ,0.70636 ,4.77150 ,46.81800 
31 ,6.4036 ,0.70824 ,4.75782 ,46.68368 
32 ,6.6118 ,0.71030 ,4.71333 ,46.24716 
33 ,6.8040 ,0.71229 ,4.73386 ,46.44863 
34 ,7.0118 ,0.71428 ,4.68595 ,45.97854 
35 ,7.2042 ,0.71626 ,4.69622 ,46.07927 
36 ,7.4121 ,0.71825 ,4.63462 ,45.47486 
37 ,7.6362 ,0.72053 ,4.62435 ,45.37413 
38 ,7.8444 ,0.72266 ,4.61066 ,45.23981 
39 ,8.0361 ,0.72461 ,4.59697 ,45.10550 
40 ,8.2446 ,0.72662 ,4.58671 ,45.00477 
41 ,8.4687 ,0.72888 ,4.56275 ,44.76972 
42 ,8.6768 ,0.73096 ,4.54222 ,44.56825 
43 ,8.8688 ,0.73298 ,4.52169 ,44.36678 
44 ,9.0609 ,0.73481 ,4.50457 ,44.19889 
45 ,9.2689 ,0.73688 ,4.47035 ,43.86310 
46 ,9.4929 ,0.73911 ,4.43955 ,43.56090 
47 ,9.7013 ,0.74118 ,4.45324 ,43.69521 
48 ,9.9254 ,0.74341 ,4.42929 ,43.46016 
49 ,10.1332 ,0.74553 ,4.40533 ,43.22512 
50 ,10.3573 ,0.74771 ,4.38138 ,42.99007 
51 ,10.5655 ,0.74983 ,4.36084 ,42.78860 
52 ,10.7576 ,0.75181 ,4.33004 ,42.48639 
53 ,10.9657 ,0.75389 ,4.33689 ,42.55355 
54 ,11.1738 ,0.75592 ,4.30267 ,42.21777 
55 ,11.3975 ,0.75813 ,4.28213 ,42.01630 
56 ,11.6060 ,0.76017 ,4.27187 ,41.91556 
57 ,11.8141 ,0.76227 ,4.22396 ,41.44547 
58 ,12.0381 ,0.76446 ,4.22738 ,41.47905 
59 ,12.2462 ,0.76665 ,4.22053 ,41.41189 
60 ,12.4539 ,0.76874 ,4.16578 ,40.87464 
61 ,12.6623 ,0.77077 ,4.16236 ,40.84106 
62 ,12.8865 ,0.77301 ,4.15209 ,40.74032 
63 ,13.0786 ,0.77501 ,4.11103 ,40.33738 
64 ,13.3025 ,0.77715 ,4.11103 ,40.33738 
65 ,13.4948 ,0.77915 ,4.06654 ,39.90087 
66 ,13.7188 ,0.78132 ,4.06312 ,39.86729 
67 ,13.9267 ,0.78349 ,4.05627 ,39.80013 
68 ,14.1190 ,0.78548 ,4.02205 ,39.46435 
69 ,14.3112 ,0.78730 ,4.02205 ,39.46435 
70 ,14.5192 ,0.78932 ,3.98783 ,39.12856 
71 ,14.7269 ,0.79142 ,3.97414 ,38.99425 
72 ,14.9354 ,0.79351 ,3.94676 ,38.72562 
73 ,15.1435 ,0.79555 ,3.93650 ,38.62489 
74 ,15.3514 ,0.79772 ,3.89885 ,38.25553 
75 ,15.5433 ,0.79963 ,3.89201 ,38.18837 
76 ,15.7358 ,0.80154 ,3.86463 ,37.91975 
77 ,15.9918 ,0.80409 ,3.83725 ,37.65112 
78 ,16.2159 ,0.80625 ,3.82356 ,37.51681 
79 ,16.4239 ,0.80842 ,3.81330 ,37.41607 
80 ,16.6320 ,0.81046 ,3.78250 ,37.11387 
81 ,16.8401 ,0.81257 ,3.75170 ,36.81166 
82 ,17.0483 ,0.81477 ,3.76881 ,36.97955 
83 ,17.2724 ,0.81690 ,3.73117 ,36.61019 
84 ,17.4802 ,0.81893 ,3.71748 ,36.47588 
85 ,17.7046 ,0.82114 ,3.70379 ,36.34157 
86 ,17.9127 ,0.82323 ,3.66614 ,35.97220 
87 ,18.1205 ,0.82534 ,3.64561 ,35.77073 
88 ,18.3289 ,0.82744 ,3.65246 ,35.83789 
89 ,18.5369 ,0.82952 ,3.60797 ,35.40137 
90 ,18.7450 ,0.83162 ,3.59770 ,35.30064 
91 ,18.9371 ,0.83358 ,3.57375 ,35.06559 
92 ,19.1449 ,0.83566 ,3.57032 ,35.03201 
93 ,19.3373 ,0.83757 ,3.52241 ,34.56192 
94 ,19.5290 ,0.83945 ,3.53952 ,34.72981 
95 ,19.7213 ,0.84139 ,3.49846 ,34.32687 
96 ,19.9295 ,0.84343 ,3.50530 ,34.39402 
97 ,20.1214 ,0.84538 ,3.46424 ,33.99108 
98 ,20.3456 ,0.84764 ,3.47108 ,34.05824 
99 ,20.5694 ,0.84983 ,3.43001 ,33.65530 
100 ,20.7617 ,0.85177 ,3.41633 ,33.52099 
101 ,20.9700 ,0.85381 ,3.40264 ,33.38667 
102 ,21.1780 ,0.85598 ,3.37184 ,33.08447 
103 ,21.3701 ,0.85786 ,3.37184 ,33.08447 
104 ,21.5943 ,0.86005 ,3.33077 ,32.68153 
105 ,21.8024 ,0.86219 ,3.31366 ,32.51364 
106 ,22.0105 ,0.86432 ,3.31366 ,32.51364 
107 ,22.2183 ,0.86634 ,3.28286 ,32.21143 
108 ,22.4266 ,0.86838 ,3.26575 ,32.04354 
109 ,22.6345 ,0.87055 ,3.24522 ,31.84207 
110 ,22.8267 ,0.87243 ,3.23837 ,31.77492 
111 ,23.0347 ,0.87448 ,3.20757 ,31.47271 
112 ,23.2428 ,0.87650 ,3.20073 ,31.40555 
113 ,23.4345 ,0.87848 ,3.17335 ,31.13693 
114 ,23.6429 ,0.88057 ,3.17335 ,31.13693 
115 ,23.8191 ,0.88243 ,3.15282 ,30.93546 
116 ,24.0111 ,0.88426 ,3.14255 ,30.83472 
117 ,24.2193 ,0.88635 ,3.09806 ,30.39821 
118 ,24.4271 ,0.88839 ,3.10491 ,30.46536 
119 ,24.6351 ,0.89045 ,3.08438 ,30.26389 
120 ,24.8434 ,0.89255 ,3.06384 ,30.06242 
121 ,25.0356 ,0.89449 ,3.03989 ,29.82737 
122 ,25.2593 ,0.89663 ,3.00567 ,29.49159 
123 ,25.4515 ,0.89867 ,3.01251 ,29.55875 
124 ,25.6433 ,0.90059 ,2.99882 ,29.42444 
125 ,25.8354 ,0.90256 ,2.97829 ,29.22297 
126 ,26.0437 ,0.90452 ,2.96118 ,29.05507 
127 ,26.2520 ,0.90666 ,2.96118 ,29.05507 
128 ,26.4603 ,0.90867 ,2.90985 ,28.55140 
129 ,26.6843 ,0.91096 ,2.90300 ,28.48424 
130 ,26.8924 ,0.91304 ,2.89273 ,28.38351 
131 ,27.1163 ,0.91529 ,2.85509 ,28.01415 
132 ,27.3405 ,0.91749 ,2.82771 ,27.74552 
133 ,27.5486 ,0.91962 ,2.83798 ,27.84625 
134 ,27.7567 ,0.92169 ,2.81402 ,27.61121 
135 ,27.9648 ,0.92376 ,2.79691 ,27.44332 
136 ,28.1729 ,0.92587 ,2.79691 ,27.44332 
137 ,28.3809 ,0.92789 ,2.75585 ,27.04038 
138 ,28.5890 ,0.92998 ,2.74558 ,26.93964 
139 ,28.7972 ,0.93214 ,2.71478 ,26.63744 
140 ,29.0051 ,0.93419 ,2.69425 ,26.43597 
141 ,29.1974 ,0.93612 ,2.68740 ,26.36881 
142 ,29.4054 ,0.93817 ,2.67029 ,26.20092 
143 ,29.6134 ,0.94024 ,2.66687 ,26.16734 
144 ,29.8214 ,0.94235 ,2.64292 ,25.93229 
145 ,30.0293 ,0.94439 ,2.63949 ,25.89871 
146 ,30.2377 ,0.94642 ,2.60869 ,25.59651 
147 ,30.4298 ,0.94840 ,2.60869 ,25.59651 
148 ,30.6379 ,0.95046 ,2.56763 ,25.19357 
149 ,30.8619 ,0.95276 ,2.55394 ,25.05926 
150 ,31.0701 ,0.95483 ,2.54367 ,24.95852 
151 ,31.2783 ,0.95693 ,2.52656 ,24.79063 
152 ,31.5021 ,0.95914 ,2.49234 ,24.45485 
153 ,31.6944 ,0.96105 ,2.50945 ,24.62274 
154 ,31.9024 ,0.96309 ,2.46496 ,24.18622 
155 ,32.1104 ,0.96516 ,2.46496 ,24.18622 
156 ,32.3346 ,0.96744 ,2.42390 ,23.78328 
157 ,32.5425 ,0.96952 ,2.42048 ,23.74970 
158 ,32.7505 ,0.97158 ,2.42390 ,23.78328 
159 ,32.9749 ,0.97372 ,2.38968 ,23.44750 
160 ,33.1830 ,0.97589 ,2.37599 ,23.31318 
161 ,33.3750 ,0.97786 ,2.37941 ,23.34676 
162 ,33.5671 ,0.97978 ,2.33492 ,22.91024 
163 ,33.7752 ,0.98182 ,2.32123 ,22.77593 
164 ,33.9672 ,0.98376 ,2.30412 ,22.60804 
165 ,34.1594 ,0.98582 ,2.29728 ,22.54088 
166 ,34.3670 ,0.98776 ,2.28017 ,22.37299 
167 ,34.5756 ,0.98991 ,2.25279 ,22.10437 
168 ,34.7995 ,0.99206 ,2.24252 ,22.00363 
169 ,35.0077 ,0.99414 ,2.22883 ,21.86932 
170 ,35.2155 ,0.99624 ,2.21515 ,21.73500 
171 ,35.4237 ,0.99832 ,2.17750 ,21.36564 
172 ,35.6475 ,1.00057 ,2.17066 ,21.29849 
173 ,35.8554 ,1.00278 ,2.16381 ,21.23133 
174 ,36.0475 ,1.00466 ,2.12959 ,20.89555 
175 ,36.2560 ,1.00666 ,2.13301 ,20.92912 
176 ,36.4803 ,1.00888 ,2.10221 ,20.62692 
177 ,36.6721 ,1.01086 ,2.09195 ,20.52619 
178 ,36.8645 ,1.01272 ,2.06115 ,20.22398 
179 ,37.0724 ,1.01475 ,2.06799 ,20.29114 
180 ,37.2805 ,1.01691 ,2.04061 ,20.02251 
181 ,37.4726 ,1.01883 ,2.04746 ,20.08967 
182 ,37.6803 ,1.02093 ,2.01666 ,19.78746 
183 ,37.9205 ,1.02323 ,1.98244 ,19.45168 
184 ,38.1288 ,1.02536 ,1.97559 ,19.38452 
185 ,38.3369 ,1.02743 ,1.97217 ,19.35094 
186 ,38.5291 ,1.02940 ,1.95164 ,19.14948 
187 ,38.7528 ,1.03157 ,1.94479 ,19.08232 
188 ,38.9613 ,1.03368 ,1.91057 ,18.74654 
189 ,39.1854 ,1.03587 ,1.90031 ,18.64580 
190 ,39.3935 ,1.03801 ,1.88662 ,18.51149 
191 ,39.6015 ,1.04011 ,1.86266 ,18.27644 
192 ,39.8096 ,1.04214 ,1.85240 ,18.17570 
193 ,40.0013 ,1.04408 ,1.82502 ,17.90708 
194 ,40.2098 ,1.04615 ,1.82502 ,17.90708 
195 ,40.4018 ,1.04816 ,1.80791 ,17.73919 
196 ,40.6098 ,1.05013 ,1.78737 ,17.53772 
197 ,40.8182 ,1.05230 ,1.78395 ,17.50414 
198 ,41.0418 ,1.05443 ,1.73946 ,17.06762 
199 ,41.2341 ,1.05639 ,1.76000 ,17.26909 
200 ,41.4584 ,1.05862 ,1.72578 ,16.93331 
201 ,41.6665 ,1.06079 ,1.69840 ,16.66468 
202 ,41.8905 ,1.06292 ,1.71551 ,16.83257 
203 ,42.0822 ,1.06493 ,1.66418 ,16.32890 
204 ,42.2911 ,1.06695 ,1.66418 ,16.32890 
205 ,42.4989 ,1.06902 ,1.64022 ,16.09385 
206 ,42.7070 ,1.07113 ,1.62995 ,15.99311 
207 ,42.9150 ,1.07315 ,1.63338 ,16.02669 
208 ,43.1228 ,1.07530 ,1.60600 ,15.75807 
209 ,43.3310 ,1.07740 ,1.60942 ,15.79164 
210 ,43.5392 ,1.07948 ,1.58204 ,15.52302 
211 ,43.7475 ,1.08148 ,1.57178 ,15.42228 
212 ,43.9394 ,1.08361 ,1.54782 ,15.18724 
213 ,44.1313 ,1.08549 ,1.52729 ,14.98577 
214 ,44.3397 ,1.08741 ,1.51702 ,14.88503 
215 ,44.5638 ,1.08965 ,1.49307 ,14.64998 
216 ,44.7881 ,1.09191 ,1.48965 ,14.61640 
217 ,44.9960 ,1.09403 ,1.47938 ,14.51567 
218 ,45.2201 ,1.09621 ,1.45542 ,14.28062 
219 ,45.4281 ,1.09830 ,1.43831 ,14.11273 
220 ,45.6200 ,1.10028 ,1.43489 ,14.07915 
221 ,45.8281 ,1.10232 ,1.40751 ,13.81053 
222 ,46.0522 ,1.10451 ,1.40067 ,13.74337 
223 ,46.2445 ,1.10647 ,1.36987 ,13.44116 
224 ,46.4683 ,1.10869 ,1.36303 ,13.37401 
225 ,46.6607 ,1.11067 ,1.35276 ,13.27327 
226 ,46.8848 ,1.11290 ,1.32880 ,13.03822 
227 ,47.0769 ,1.11483 ,1.32880 ,13.03822 
228 ,47.2690 ,1.11675 ,1.29800 ,12.73602 
229 ,47.4611 ,1.11870 ,1.29116 ,12.66886 
230 ,47.6693 ,1.12074 ,1.28774 ,12.63528 
231 ,47.8933 ,1.12293 ,1.27747 ,12.53455 
232 ,48.1174 ,1.12515 ,1.26036 ,12.36666 
233 ,48.3094 ,1.12716 ,1.23641 ,12.13161 
234 ,48.5495 ,1.12940 ,1.23983 ,12.16519 
235 ,48.7735 ,1.13178 ,1.20903 ,11.86298 
236 ,48.9813 ,1.13388 ,1.19534 ,11.72867 
237 ,49.1737 ,1.13576 ,1.18165 ,11.59436 
238 ,49.3817 ,1.13788 ,1.16796 ,11.46004 
239 ,49.5899 ,1.13988 ,1.15427 ,11.32573 
240 ,49.7819 ,1.14183 ,1.14058 ,11.19142 
241 ,49.9901 ,1.14393 ,1.12690 ,11.05710 
242 ,50.2142 ,1.14618 ,1.10979 ,10.88921 
243 ,50.4222 ,1.14819 ,1.09610 ,10.75490 
244 ,50.6301 ,1.15035 ,1.08925 ,10.68774 
245 ,50.8380 ,1.15236 ,1.07556 ,10.55343 
246 ,51.0304 ,1.15436 ,1.04819 ,10.28480 
247 ,51.2547 ,1.15644 ,1.05845 ,10.38554 
248 ,51.4788 ,1.15883 ,1.03792 ,10.18407 
249 ,51.6708 ,1.16077 ,1.00370 ,9.84829 
250 ,51.8945 ,1.16297 ,1.01054 ,9.91544 
251 ,52.1029 ,1.16505 ,0.97632 ,9.57966 
252 ,52.3110 ,1.16709 ,0.96605 ,9.47892 
253 ,52.5032 ,1.16905 ,0.95579 ,9.37819 
254 ,52.7112 ,1.17110 ,0.93525 ,9.17672 
255 ,52.9194 ,1.17325 ,0.94210 ,9.24388 
256 ,53.1273 ,1.17533 ,0.91130 ,8.94167 
257 ,53.3195 ,1.17722 ,0.91814 ,9.00883 
258 ,53.5434 ,1.17941 ,0.88734 ,8.70662 
259 ,53.7515 ,1.18154 ,0.87023 ,8.53873 
260 ,53.9757 ,1.18365 ,0.88392 ,8.67305 
261 ,54.1998 ,1.18594 ,0.85997 ,8.43800 
262 ,54.3920 ,1.18795 ,0.82232 ,8.06864 
263 ,54.5999 ,1.18998 ,0.82232 ,8.06864 
264 ,54.7921 ,1.19196 ,0.80521 ,7.90074 
265 ,55.0001 ,1.19397 ,0.80179 ,7.86717 
266 ,55.1919 ,1.19595 ,0.79152 ,7.76643 
267 ,55.4003 ,1.19798 ,0.79495 ,7.80001 
268 ,55.5922 ,1.19992 ,0.76072 ,7.46423 
269 ,55.7846 ,1.20190 ,0.76415 ,7.49780 
270 ,55.9924 ,1.20393 ,0.73677 ,7.22918 
271 ,56.2006 ,1.20597 ,0.72992 ,7.16202 
272 ,56.3925 ,1.20796 ,0.70597 ,6.92697 
273 ,56.5847 ,1.20989 ,0.70597 ,6.92697 
274 ,56.7769 ,1.21181 ,0.69570 ,6.82624 
275 ,57.0010 ,1.21398 ,0.68544 ,6.72550 
276 ,57.2088 ,1.21607 ,0.64437 ,6.32256 
277 ,57.4165 ,1.21825 ,0.64779 ,6.35614 
278 ,57.6089 ,1.22015 ,0.63068 ,6.18825 
279 ,57.8173 ,1.22215 ,0.63753 ,6.25541 
280 ,58.0090 ,1.22422 ,0.61699 ,6.05394 
281 ,58.2175 ,1.22615 ,0.61015 ,5.98678 
282 ,58.4411 ,1.22838 ,0.60330 ,5.91962 
283 ,58.6497 ,1.23048 ,0.56566 ,5.55026 
284 ,58.8577 ,1.23254 ,0.57935 ,5.68458 
285 ,59.0653 ,1.23464 ,0.54513 ,5.34879 
286 ,59.2578 ,1.23662 ,0.55539 ,5.44953 
287 ,59.4979 ,1.23898 ,0.53828 ,5.28164 
288 ,59.6904 ,1.24095 ,0.50748 ,4.97943 
289 ,59.9140 ,1.24315 ,0.49722 ,4.87870 
290 ,60.1223 ,1.24522 ,0.50406 ,4.94585 
291 ,60.3301 ,1.24729 ,0.47326 ,4.64365 
292 ,60.5384 ,1.24942 ,0.48695 ,4.77796 
293 ,60.7465 ,1.25140 ,0.45273 ,4.44218 
294 ,60.9706 ,1.25364 ,0.42535 ,4.17355 
295 ,61.1623 ,1.25561 ,0.44931 ,4.40860 
296 ,61.3708 ,1.25762 ,0.42877 ,4.20713 
297 ,61.5789 ,1.25981 ,0.41166 ,4.03924 
298 ,61.8028 ,1.26192 ,0.39797 ,3.90493 
299 ,62.0269 ,1.26420 ,0.37402 ,3.66988 
300 ,62.2350 ,1.26634 ,0.36033 ,3.53557 
301 ,62.4431 ,1.26844 ,0.35691 ,3.50199 
302 ,62.6509 ,1.27043 ,0.33980 ,3.33410 
303 ,62.8429 ,1.27245 ,0.34664 ,3.40125 
304 ,63.0512 ,1.27444 ,0.31584 ,3.09905 
305 ,63.2596 ,1.27660 ,0.30900 ,3.03189 
306 ,63.4676 ,1.27864 ,0.28504 ,2.79684 
307 ,63.6756 ,1.28071 ,0.29531 ,2.89758 
308 ,63.8836 ,1.28280 ,0.28162 ,2.76326 
309 ,64.1075 ,1.28495 ,0.25767 ,2.52822 
310 ,64.3000 ,1.28701 ,0.26451 ,2.59537 
311 ,64.5240 ,1.28921 ,0.25082 ,2.46106 
312 ,64.7481 ,1.29134 ,0.22002 ,2.15885 
313 ,64.9560 ,1.29351 ,0.22344 ,2.19243 
314 ,65.1964 ,1.29578 ,0.21660 ,2.12528 
315 ,65.4200 ,1.29811 ,0.20291 ,1.99096 
316 ,65.6119 ,1.30021 ,0.16527 ,1.62160 
317 ,65.8201 ,1.30222 ,0.17553 ,1.72234 
318 ,66.0282 ,1.30424 ,0.16869 ,1.65518 
319 ,66.2523 ,1.30647 ,0.16185 ,1.58802 
320 ,66.5088 ,1.30903 ,0.13789 ,1.35298 
321 ,66.7327 ,1.31125 ,0.10709 ,1.05077 
322 ,66.9251 ,1.31326 ,0.11051 ,1.08435 
323 ,67.1330 ,1.31527 ,0.08998 ,0.88288 
324 ,67.3572 ,1.31751 ,0.08656 ,0.84930 
325 ,67.5653 ,1.31963 ,0.07287 ,0.71499 
326 ,67.7573 ,1.32160 ,0.06602 ,0.64783 
327 ,67.9495 ,1.32350 ,0.06260 ,0.61425 
328 ,68.1577 ,1.32550 ,0.06260 ,0.61425 
329 ,68.3812 ,1.32778 ,0.04891 ,0.47994 
330 ,68.5899 ,1.32983 ,0.00785 ,0.07700 
331 ,68.7976 ,1.33193 ,0.00785 ,0.07700 
332 ,69.0060 ,1.33398 ,0.00785 ,0.07700 
333 ,69.2140 ,1.33604 ,-0.00242 ,-0.02373 
334 ,69.4218 ,1.33817 ,-0.01611 ,-0.15805 
335 ,69.6302 ,1.34024 ,-0.05033 ,-0.49383 
336 ,69.8543 ,1.34244 ,-0.05033 ,-0.49383 
337 ,70.0624 ,1.34449 ,-0.04691 ,-0.46025 
338 ,70.2705 ,1.34668 ,-0.06402 ,-0.62814 
339 ,70.4786 ,1.34871 ,-0.06744 ,-0.66172 
340 ,70.7026 ,1.35096 ,-0.07086 ,-0.69530 
341 ,70.9106 ,1.35302 ,-0.10508 ,-1.03108 
342 ,71.1028 ,1.35497 ,-0.10508 ,-1.03108 
343 ,71.3429 ,1.35738 ,-0.10508 ,-1.03108 
344 ,71.5666 ,1.35961 ,-0.13246 ,-1.29971 
345 ,71.7591 ,1.36152 ,-0.14273 ,-1.40045 
346 ,71.9672 ,1.36365 ,-0.12904 ,-1.26613 
347 ,72.1753 ,1.36567 ,-0.15984 ,-1.56834 
348 ,72.3835 ,1.36781 ,-0.16668 ,-1.63549 
349 ,72.5913 ,1.36978 ,-0.19748 ,-1.93770 
350 ,72.7831 ,1.37181 ,-0.18379 ,-1.80338 
351 ,72.9916 ,1.37382 ,-0.21802 ,-2.13917 
352 ,73.1996 ,1.37602 ,-0.22828 ,-2.23990 
353 ,73.3918 ,1.37787 ,-0.21459 ,-2.10559 
354 ,73.5996 ,1.37991 ,-0.23513 ,-2.30706 
355 ,73.8235 ,1.38214 ,-0.23855 ,-2.34064 
356 ,74.0319 ,1.38428 ,-0.26593 ,-2.60926 
357 ,74.2398 ,1.38635 ,-0.27619 ,-2.71000 
358 ,74.4320 ,1.38825 ,-0.27619 ,-2.71000 
359 ,74.6402 ,1.39038 ,-0.27619 ,-2.71000 
360 ,74.8644 ,1.39256 ,-0.28988 ,-2.84431 
361 ,75.0724 ,1.39462 ,-0.32068 ,-3.14652 
362 ,75.2804 ,1.39679 ,-0.31726 ,-3.11294 
363 ,75.4726 ,1.39867 ,-0.32752 ,-3.21367 
364 ,75.6967 ,1.40087 ,-0.32410 ,-3.18010 
365 ,75.9048 ,1.40300 ,-0.33437 ,-3.28083 
366 ,76.0963 ,1.40500 ,-0.36175 ,-3.54946 
367 ,76.2889 ,1.40685 ,-0.35148 ,-3.44872 
368 ,76.4968 ,1.40889 ,-0.36859 ,-3.61661 
369 ,76.7052 ,1.41097 ,-0.38228 ,-3.75093 
370 ,76.9129 ,1.41309 ,-0.39939 ,-3.91882 
371 ,77.1214 ,1.41507 ,-0.40281 ,-3.95240 
372 ,77.3454 ,1.41731 ,-0.40623 ,-3.98597 
373 ,77.5694 ,1.41959 ,-0.41650 ,-4.08671 
374 ,77.7775 ,1.42164 ,-0.44388 ,-4.35534 
375 ,77.9857 ,1.42381 ,-0.43361 ,-4.25460 
376 ,78.1777 ,1.42578 ,-0.46099 ,-4.52323 
377 ,78.3695 ,1.42765 ,-0.45414 ,-4.45607 
378 ,78.5619 ,1.42956 ,-0.48152 ,-4.72470 
379 ,78.7700 ,1.43174 ,-0.46099 ,-4.52323 
380 ,78.9780 ,1.43367 ,-0.50890 ,-4.99332 
381 ,79.1702 ,1.43565 ,-0.49863 ,-4.89259 
382 ,79.3778 ,1.43773 ,-0.52259 ,-5.12764 
383 ,79.5863 ,1.43976 ,-0.51232 ,-5.02690 
384 ,79.7942 ,1.44180 ,-0.52259 ,-5.12764 
385 ,80.0021 ,1.44396 ,-0.53285 ,-5.22837 
386 ,80.2106 ,1.44600 ,-0.54312 ,-5.32911 
387 ,80.4344 ,1.44813 ,-0.57050 ,-5.59773 
388 ,80.6427 ,1.45037 ,-0.55681 ,-5.46342 
389 ,80.8509 ,1.45241 ,-0.56708 ,-5.56415 
390 ,81.0749 ,1.45464 ,-0.58761 ,-5.76562 
391 ,81.2670 ,1.45655 ,-0.58761 ,-5.76562 
392 ,81.4750 ,1.45863 ,-0.60814 ,-5.96709 
393 ,81.6670 ,1.46059 ,-0.60472 ,-5.93352 
394 ,81.8593 ,1.46253 ,-0.64236 ,-6.30288 
395 ,82.0674 ,1.46461 ,-0.62868 ,-6.16856 
396 ,82.2754 ,1.46665 ,-0.65263 ,-6.40361 
397 ,82.4996 ,1.46878 ,-0.63894 ,-6.26930 
398 ,82.7073 ,1.47107 ,-0.65263 ,-6.40361 
399 ,82.8996 ,1.47289 ,-0.68001 ,-6.67224 
400 ,83.1239 ,1.47508 ,-0.67316 ,-6.60508 
401 ,83.3317 ,1.47716 ,-0.68001 ,-6.67224 
402 ,83.5559 ,1.47939 ,-0.70054 ,-6.87371 
403 ,83.7636 ,1.48150 ,-0.69712 ,-6.84013 
404 ,83.9719 ,1.48363 ,-0.71081 ,-6.97444 
405 ,84.1802 ,1.48564 ,-0.73476 ,-7.20949 
406 ,84.3722 ,1.48764 ,-0.71765 ,-7.04160 
407 ,84.5963 ,1.48981 ,-0.75872 ,-7.44454 
408 ,84.7887 ,1.49181 ,-0.74161 ,-7.27665 
409 ,84.9964 ,1.49392 ,-0.76556 ,-7.51170 
410 ,85.2043 ,1.49595 ,-0.77583 ,-7.61243 
411 ,85.3961 ,1.49796 ,-0.77925 ,-7.64601 
412 ,85.6044 ,1.49991 ,-0.77583 ,-7.61243 
413 ,85.7965 ,1.50191 ,-0.81347 ,-7.98179 
414 ,85.9885 ,1.50380 ,-0.80321 ,-7.88106 
415 ,86.1966 ,1.50583 ,-0.82032 ,-8.04895 
416 ,86.3893 ,1.50780 ,-0.80663 ,-7.91464 
417 ,86.5973 ,1.50984 ,-0.83743 ,-8.21684 
418 ,86.8053 ,1.51188 ,-0.82374 ,-8.08253 
419 ,87.0130 ,1.51405 ,-0.83401 ,-8.18326 
420 ,87.2216 ,1.51611 ,-0.85796 ,-8.41831 
421 ,87.4453 ,1.51829 ,-0.85796 ,-8.41831 
422 ,87.6536 ,1.52036 ,-0.87849 ,-8.61978 
423 ,87.8616 ,1.52243 ,-0.88876 ,-8.72051 
424 ,88.0859 ,1.52471 ,-0.87849 ,-8.61978 
425 ,88.2940 ,1.52686 ,-0.89903 ,-8.82125 
426 ,88.5181 ,1.52903 ,-0.92298 ,-9.05630 
427 ,88.7581 ,1.53132 ,-0.92298 ,-9.05630 
428 ,88.9502 ,1.53347 ,-0.92298 ,-9.05630 
429 ,89.1420 ,1.53532 ,-0.94694 ,-9.29135 
430 ,89.3502 ,1.53753 ,-0.94009 ,-9.22419 
431 ,89.5582 ,1.53944 ,-0.97089 ,-9.52639 
432 ,89.7504 ,1.54141 ,-0.95036 ,-9.32492 
433 ,89.9584 ,1.54345 ,-0.98800 ,-9.69429 
434 ,90.1667 ,1.54552 ,-0.97089 ,-9.52639 
435 ,90.3743 ,1.54759 ,-1.00169 ,-9.82860 
436 ,90.5669 ,1.54959 ,-0.99143 ,-9.72786 
437 ,90.7750 ,1.55155 ,-1.00511 ,-9.86218 
438 ,90.9831 ,1.55373 ,-1.01196 ,-9.92933 
439 ,91.2068 ,1.55587 ,-1.01880 ,-9.99649 
440 ,91.4150 ,1.55800 ,-1.02907 ,-10.09723 
441 ,91.6553 ,1.56034 ,-1.04618 ,-10.26512 
442 ,91.8633 ,1.56256 ,-1.05302 ,-10.33227 
443 ,92.0876 ,1.56472 ,-1.03934 ,-10.19796 
444 ,92.2954 ,1.56676 ,-1.07356 ,-10.53374 
445 ,92.5035 ,1.56883 ,-1.06671 ,-10.46659 
446 ,92.7115 ,1.57094 ,-1.08382 ,-10.63448 
447 ,92.9199 ,1.57308 ,-1.09409 ,-10.73521 
448 ,93.1277 ,1.57517 ,-1.08040 ,-10.60090 
449 ,93.3680 ,1.57750 ,-1.10093 ,-10.80237 
450 ,93.5761 ,1.57955 ,-1.12147 ,-11.00384 
451 ,93.8002 ,1.58184 ,-1.12489 ,-11.03742 
452 ,94.0082 ,1.58397 ,-1.12831 ,-11.07100 
453 ,94.2004 ,1.58588 ,-1.14884 ,-11.27247 
454 ,94.4084 ,1.58798 ,-1.16253 ,-11.40678 
455 ,94.6165 ,1.59005 ,-1.15569 ,-11.33962 
456 ,94.8084 ,1.59194 ,-1.15569 ,-11.33962 
457 ,95.0166 ,1.59403 ,-1.16596 ,-11.44036 
458 ,95.2244 ,1.59605 ,-1.18991 ,-11.67541 
459 ,95.4167 ,1.59808 ,-1.19333 ,-11.70898 
460 ,95.6249 ,1.60015 ,-1.18991 ,-11.67541 
461 ,95.8326 ,1.60213 ,-1.20360 ,-11.80972 
