Data stamp = , 04-05-2022 13:35:13 865

Calibration Values: 
Slope = , 26.54 , g/V 
Offset Voltage at no contact = , -0.501760 , V 

No , Time , Stage Position ,   Mass , Force 
   ,  (s) ,      (mm)      ,   (g)  , (mN)  

1 ,0.0000 ,0.64946 ,5.36696 ,52.66062 
2 ,0.2639 ,0.64960 ,5.34301 ,52.42557 
3 ,0.7126 ,0.65116 ,5.34985 ,52.49273 
4 ,0.9523 ,0.65370 ,5.36012 ,52.59346 
5 ,1.1767 ,0.65587 ,5.36012 ,52.59346 
6 ,1.3847 ,0.65804 ,5.36012 ,52.59346 
7 ,1.5928 ,0.66016 ,5.34301 ,52.42557 
8 ,1.7848 ,0.66208 ,5.33616 ,52.35841 
9 ,1.9771 ,0.66396 ,5.33274 ,52.32484 
10 ,2.1851 ,0.66599 ,5.29510 ,51.95548 
11 ,2.3930 ,0.66813 ,5.28825 ,51.88832 
12 ,2.5850 ,0.67008 ,5.26430 ,51.65327 
13 ,2.7770 ,0.67201 ,5.23692 ,51.38464 
14 ,2.9854 ,0.67400 ,5.20612 ,51.08244 
15 ,3.1936 ,0.67613 ,5.19927 ,51.01528 
16 ,3.4175 ,0.67833 ,5.17874 ,50.81381 
17 ,3.6096 ,0.68029 ,5.15479 ,50.57876 
18 ,3.8018 ,0.68227 ,5.14794 ,50.51161 
19 ,4.0097 ,0.68426 ,5.10003 ,50.04151 
20 ,4.2020 ,0.68620 ,5.10688 ,50.10867 
21 ,4.4096 ,0.68829 ,5.07265 ,49.77289 
22 ,4.6021 ,0.69021 ,5.05897 ,49.63857 
23 ,4.8097 ,0.69235 ,5.03159 ,49.36995 
24 ,5.0338 ,0.69453 ,5.01106 ,49.16848 
25 ,5.2419 ,0.69657 ,5.00763 ,49.13490 
26 ,5.4505 ,0.69874 ,4.96315 ,48.69838 
27 ,5.6905 ,0.70101 ,4.95630 ,48.63122 
28 ,5.8982 ,0.70314 ,4.94946 ,48.56407 
29 ,6.1228 ,0.70534 ,4.90497 ,48.12755 
30 ,6.3309 ,0.70748 ,4.88786 ,47.95966 
31 ,6.5229 ,0.70948 ,4.88101 ,47.89250 
32 ,6.7150 ,0.71135 ,4.84679 ,47.55672 
33 ,6.9391 ,0.71356 ,4.84679 ,47.55672 
34 ,7.1309 ,0.71551 ,4.79888 ,47.08662 
35 ,7.3234 ,0.71744 ,4.80573 ,47.15378 
36 ,7.5151 ,0.71938 ,4.77493 ,46.85157 
37 ,7.7074 ,0.72126 ,4.76124 ,46.71726 
38 ,7.8993 ,0.72318 ,4.73386 ,46.44863 
39 ,8.0911 ,0.72519 ,4.72702 ,46.38148 
40 ,8.2832 ,0.72713 ,4.72017 ,46.31432 
41 ,8.4918 ,0.72910 ,4.68595 ,45.97854 
42 ,8.6999 ,0.73123 ,4.67568 ,45.87780 
43 ,8.9079 ,0.73324 ,4.64831 ,45.60918 
44 ,9.1159 ,0.73535 ,4.61751 ,45.30697 
45 ,9.3560 ,0.73770 ,4.60382 ,45.17266 
46 ,9.5639 ,0.73993 ,4.58671 ,45.00477 
47 ,9.7560 ,0.74178 ,4.55933 ,44.73614 
48 ,9.9483 ,0.74365 ,4.56275 ,44.76972 
49 ,10.1563 ,0.74574 ,4.53880 ,44.53467 
50 ,10.3480 ,0.74765 ,4.52853 ,44.43394 
51 ,10.5406 ,0.74959 ,4.49773 ,44.13173 
52 ,10.7487 ,0.75165 ,4.48062 ,43.96384 
53 ,10.9407 ,0.75357 ,4.46351 ,43.79595 
54 ,11.1327 ,0.75552 ,4.43271 ,43.49374 
55 ,11.3407 ,0.75754 ,4.42586 ,43.42659 
56 ,11.5651 ,0.75982 ,4.41218 ,43.29227 
57 ,11.7733 ,0.76188 ,4.37795 ,42.95649 
58 ,11.9650 ,0.76383 ,4.37111 ,42.88933 
59 ,12.1734 ,0.76587 ,4.34373 ,42.62071 
60 ,12.3814 ,0.76799 ,4.30951 ,42.28492 
61 ,12.5731 ,0.77003 ,4.31978 ,42.38566 
62 ,12.7653 ,0.77185 ,4.29924 ,42.18419 
63 ,12.9574 ,0.77374 ,4.26845 ,41.88198 
64 ,13.1818 ,0.77600 ,4.26502 ,41.84841 
65 ,13.3740 ,0.77791 ,4.24449 ,41.64694 
66 ,13.5815 ,0.77992 ,4.22053 ,41.41189 
67 ,13.7740 ,0.78199 ,4.19658 ,41.17684 
68 ,13.9658 ,0.78393 ,4.17605 ,40.97537 
69 ,14.1581 ,0.78580 ,4.15894 ,40.80748 
70 ,14.3660 ,0.78785 ,4.15209 ,40.74032 
71 ,14.5581 ,0.78973 ,4.12471 ,40.47170 
72 ,14.7662 ,0.79180 ,4.11103 ,40.33738 
73 ,14.9745 ,0.79378 ,4.07680 ,40.00160 
74 ,15.1983 ,0.79610 ,4.05627 ,39.80013 
75 ,15.4228 ,0.79838 ,4.05285 ,39.76655 
76 ,15.6144 ,0.80034 ,4.02547 ,39.49793 
77 ,15.8224 ,0.80234 ,4.00494 ,39.29646 
78 ,16.0149 ,0.80432 ,4.00152 ,39.26288 
79 ,16.2067 ,0.80623 ,3.97756 ,39.02783 
80 ,16.3991 ,0.80817 ,3.94334 ,38.69205 
81 ,16.5910 ,0.81011 ,3.95018 ,38.75920 
82 ,16.7832 ,0.81195 ,3.90912 ,38.35626 
83 ,16.9912 ,0.81410 ,3.90912 ,38.35626 
84 ,17.1835 ,0.81604 ,3.87832 ,38.05406 
85 ,17.3753 ,0.81792 ,3.87147 ,37.98690 
86 ,17.5676 ,0.81985 ,3.85779 ,37.85259 
87 ,17.7752 ,0.82186 ,3.82699 ,37.55038 
88 ,17.9832 ,0.82400 ,3.80987 ,37.38249 
89 ,18.1917 ,0.82607 ,3.81672 ,37.44965 
90 ,18.3998 ,0.82821 ,3.76881 ,36.97955 
91 ,18.6077 ,0.83018 ,3.77223 ,37.01313 
92 ,18.8159 ,0.83224 ,3.74485 ,36.74450 
93 ,19.0080 ,0.83429 ,3.72432 ,36.54303 
94 ,19.2160 ,0.83624 ,3.69694 ,36.27441 
95 ,19.4244 ,0.83839 ,3.68668 ,36.17367 
96 ,19.6483 ,0.84062 ,3.66614 ,35.97220 
97 ,19.8563 ,0.84269 ,3.64561 ,35.77073 
98 ,20.0645 ,0.84480 ,3.60797 ,35.40137 
99 ,20.2564 ,0.84674 ,3.60797 ,35.40137 
100 ,20.4485 ,0.84862 ,3.57717 ,35.09917 
101 ,20.6566 ,0.85072 ,3.57032 ,35.03201 
102 ,20.8484 ,0.85263 ,3.56348 ,34.96485 
103 ,21.0410 ,0.85454 ,3.53952 ,34.72981 
104 ,21.2329 ,0.85646 ,3.53610 ,34.69623 
105 ,21.4411 ,0.85857 ,3.50188 ,34.36045 
106 ,21.6491 ,0.86061 ,3.48135 ,34.15898 
107 ,21.8567 ,0.86274 ,3.48477 ,34.19255 
108 ,22.0492 ,0.86462 ,3.44370 ,33.78961 
109 ,22.2734 ,0.86678 ,3.43344 ,33.68888 
110 ,22.4653 ,0.86879 ,3.39921 ,33.35310 
111 ,22.6735 ,0.87086 ,3.39921 ,33.35310 
112 ,22.8654 ,0.87281 ,3.36499 ,33.01731 
113 ,23.0737 ,0.87487 ,3.36842 ,33.05089 
114 ,23.2818 ,0.87692 ,3.34104 ,32.78227 
115 ,23.4735 ,0.87888 ,3.33077 ,32.68153 
116 ,23.6660 ,0.88080 ,3.29655 ,32.34575 
117 ,23.8579 ,0.88273 ,3.30339 ,32.41290 
118 ,24.0501 ,0.88463 ,3.25891 ,31.97639 
119 ,24.2261 ,0.88653 ,3.25206 ,31.90923 
120 ,24.4183 ,0.88831 ,3.23837 ,31.77492 
121 ,24.6101 ,0.89023 ,3.22468 ,31.64060 
122 ,24.8024 ,0.89216 ,3.19046 ,31.30482 
123 ,24.9946 ,0.89411 ,3.19388 ,31.33840 
124 ,25.2026 ,0.89612 ,3.18020 ,31.20409 
125 ,25.3943 ,0.89806 ,3.15282 ,30.93546 
126 ,25.5866 ,0.90000 ,3.12202 ,30.63325 
127 ,25.7948 ,0.90211 ,3.13571 ,30.76757 
128 ,25.9870 ,0.90399 ,3.10149 ,30.43178 
129 ,26.1790 ,0.90591 ,3.09464 ,30.36463 
130 ,26.3870 ,0.90797 ,3.05700 ,29.99527 
131 ,26.5953 ,0.91010 ,3.05700 ,29.99527 
132 ,26.7872 ,0.91204 ,3.02620 ,29.69306 
133 ,26.9954 ,0.91400 ,3.02278 ,29.65948 
134 ,27.2033 ,0.91612 ,2.99540 ,29.39086 
135 ,27.4116 ,0.91820 ,2.98171 ,29.25654 
136 ,27.6036 ,0.92016 ,2.97829 ,29.22297 
137 ,27.7954 ,0.92220 ,2.93722 ,28.82003 
138 ,28.0039 ,0.92411 ,2.93722 ,28.82003 
139 ,28.2120 ,0.92625 ,2.90985 ,28.55140 
140 ,28.4200 ,0.92826 ,2.91327 ,28.58498 
141 ,28.6280 ,0.93039 ,2.88247 ,28.28277 
142 ,28.8042 ,0.93227 ,2.87220 ,28.18204 
143 ,29.0122 ,0.93421 ,2.84140 ,27.87983 
144 ,29.2044 ,0.93619 ,2.83114 ,27.77910 
145 ,29.4122 ,0.93823 ,2.81402 ,27.61121 
146 ,29.6046 ,0.94015 ,2.80718 ,27.54405 
147 ,29.7966 ,0.94211 ,2.79349 ,27.40974 
148 ,29.9883 ,0.94407 ,2.76954 ,27.17469 
149 ,30.1967 ,0.94603 ,2.76269 ,27.10753 
150 ,30.4049 ,0.94817 ,2.74558 ,26.93964 
151 ,30.6130 ,0.95021 ,2.73874 ,26.87248 
152 ,30.8690 ,0.95269 ,2.71136 ,26.60386 
153 ,31.0772 ,0.95489 ,2.67372 ,26.23450 
154 ,31.2853 ,0.95696 ,2.66687 ,26.16734 
155 ,31.4932 ,0.95903 ,2.63949 ,25.89871 
156 ,31.7009 ,0.96108 ,2.64634 ,25.96587 
157 ,31.8935 ,0.96301 ,2.61896 ,25.69724 
158 ,32.1016 ,0.96509 ,2.61212 ,25.63009 
159 ,32.2936 ,0.96703 ,2.58132 ,25.32788 
160 ,32.5017 ,0.96909 ,2.58474 ,25.36146 
161 ,32.7098 ,0.97118 ,2.54710 ,24.99210 
162 ,32.9019 ,0.97308 ,2.55052 ,25.02568 
163 ,33.0934 ,0.97512 ,2.51972 ,24.72347 
164 ,33.3016 ,0.97706 ,2.53683 ,24.89136 
165 ,33.5098 ,0.97923 ,2.49576 ,24.48842 
166 ,33.7181 ,0.98128 ,2.48892 ,24.42127 
167 ,33.9267 ,0.98335 ,2.47181 ,24.25338 
168 ,34.1183 ,0.98526 ,2.44101 ,23.95117 
169 ,34.3105 ,0.98722 ,2.42048 ,23.74970 
170 ,34.5025 ,0.98913 ,2.42390 ,23.78328 
171 ,34.7107 ,0.99124 ,2.38625 ,23.41392 
172 ,34.9344 ,0.99327 ,2.39310 ,23.48108 
173 ,35.1270 ,0.99534 ,2.36572 ,23.21245 
174 ,35.3346 ,0.99738 ,2.34177 ,22.97740 
175 ,35.5430 ,0.99942 ,2.34177 ,22.97740 
176 ,35.7352 ,1.00144 ,2.32123 ,22.77593 
177 ,35.9273 ,1.00335 ,2.31781 ,22.74235 
178 ,36.1354 ,1.00542 ,2.28017 ,22.37299 
179 ,36.3435 ,1.00754 ,2.28359 ,22.40657 
180 ,36.5511 ,1.00955 ,2.24937 ,22.07079 
181 ,36.7595 ,1.01166 ,2.24252 ,22.00363 
182 ,36.9676 ,1.01374 ,2.23226 ,21.90290 
183 ,37.1596 ,1.01565 ,2.21172 ,21.70143 
184 ,37.3677 ,1.01772 ,2.19803 ,21.56711 
185 ,37.5758 ,1.01979 ,2.17066 ,21.29849 
186 ,37.7677 ,1.02176 ,2.17066 ,21.29849 
187 ,37.9599 ,1.02369 ,2.14670 ,21.06344 
188 ,38.1521 ,1.02557 ,2.12959 ,20.89555 
189 ,38.3601 ,1.02768 ,2.11932 ,20.79481 
190 ,38.5682 ,1.02979 ,2.11248 ,20.72766 
191 ,38.7599 ,1.03169 ,2.07484 ,20.35829 
192 ,38.9682 ,1.03373 ,2.06799 ,20.29114 
193 ,39.1763 ,1.03578 ,2.04746 ,20.08967 
194 ,39.3687 ,1.03775 ,2.03719 ,19.98893 
195 ,39.5768 ,1.03982 ,2.01324 ,19.75388 
196 ,39.7849 ,1.04186 ,2.01666 ,19.78746 
197 ,39.9928 ,1.04392 ,1.98586 ,19.48526 
198 ,40.1850 ,1.04597 ,1.98586 ,19.48526 
199 ,40.3767 ,1.04785 ,1.95848 ,19.21663 
200 ,40.5852 ,1.04986 ,1.95506 ,19.18305 
201 ,40.7772 ,1.05185 ,1.92768 ,18.91443 
202 ,40.9849 ,1.05394 ,1.92426 ,18.88085 
203 ,41.1934 ,1.05597 ,1.89346 ,18.57864 
204 ,41.4812 ,1.05839 ,1.89346 ,18.57864 
205 ,41.6736 ,1.06081 ,1.86266 ,18.27644 
206 ,41.8818 ,1.06286 ,1.85924 ,18.24286 
207 ,42.0893 ,1.06507 ,1.85240 ,18.17570 
208 ,42.2819 ,1.06687 ,1.81817 ,17.83992 
209 ,42.4735 ,1.06885 ,1.80106 ,17.67203 
210 ,42.6819 ,1.07084 ,1.78395 ,17.50414 
211 ,42.8738 ,1.07276 ,1.78395 ,17.50414 
212 ,43.0822 ,1.07485 ,1.76684 ,17.33625 
213 ,43.2903 ,1.07697 ,1.74973 ,17.16836 
214 ,43.5142 ,1.07919 ,1.71893 ,16.86615 
215 ,43.7063 ,1.08111 ,1.71893 ,16.86615 
216 ,43.9146 ,1.08314 ,1.69498 ,16.63110 
217 ,44.1226 ,1.08527 ,1.68813 ,16.56395 
218 ,44.3146 ,1.08725 ,1.66760 ,16.36248 
219 ,44.5068 ,1.08911 ,1.66418 ,16.32890 
220 ,44.7150 ,1.09124 ,1.64707 ,16.16101 
221 ,44.9230 ,1.09324 ,1.64022 ,16.09385 
222 ,45.1312 ,1.09540 ,1.62311 ,15.92596 
223 ,45.3228 ,1.09732 ,1.59573 ,15.65733 
224 ,45.5312 ,1.09939 ,1.58889 ,15.59018 
225 ,45.7392 ,1.10143 ,1.56836 ,15.38871 
226 ,45.9316 ,1.10338 ,1.56836 ,15.38871 
227 ,46.1551 ,1.10554 ,1.53413 ,15.05292 
228 ,46.3471 ,1.10757 ,1.53756 ,15.08650 
229 ,46.5232 ,1.10936 ,1.49991 ,14.71714 
230 ,46.7155 ,1.11123 ,1.50333 ,14.75072 
231 ,46.9078 ,1.11309 ,1.49649 ,14.68356 
232 ,47.1158 ,1.11519 ,1.47938 ,14.51567 
233 ,47.3079 ,1.11713 ,1.47253 ,14.44851 
234 ,47.5317 ,1.11930 ,1.46227 ,14.34778 
235 ,47.7401 ,1.12146 ,1.42805 ,14.01199 
236 ,47.9481 ,1.12353 ,1.42120 ,13.94484 
237 ,48.1558 ,1.12558 ,1.40067 ,13.74337 
238 ,48.3483 ,1.12751 ,1.40067 ,13.74337 
239 ,48.5565 ,1.12958 ,1.38014 ,13.54190 
240 ,48.7644 ,1.13169 ,1.35960 ,13.34043 
241 ,48.9722 ,1.13379 ,1.34591 ,13.20612 
242 ,49.1805 ,1.13584 ,1.32196 ,12.97107 
243 ,49.3888 ,1.13790 ,1.32538 ,13.00465 
244 ,49.5967 ,1.13995 ,1.28432 ,12.60171 
245 ,49.8050 ,1.14207 ,1.28089 ,12.56813 
246 ,50.0131 ,1.14415 ,1.28432 ,12.60171 
247 ,50.2052 ,1.14608 ,1.26378 ,12.40024 
248 ,50.4291 ,1.14823 ,1.24667 ,12.23235 
249 ,50.6213 ,1.15027 ,1.22272 ,11.99730 
250 ,50.8130 ,1.15215 ,1.23983 ,12.16519 
251 ,51.0214 ,1.15419 ,1.20218 ,11.79583 
252 ,51.2297 ,1.15628 ,1.20218 ,11.79583 
253 ,51.4218 ,1.15829 ,1.16454 ,11.42647 
254 ,51.6296 ,1.16029 ,1.17138 ,11.49362 
255 ,51.8058 ,1.16220 ,1.15085 ,11.29215 
256 ,52.0137 ,1.16418 ,1.14401 ,11.22500 
257 ,52.2539 ,1.16658 ,1.14058 ,11.19142 
258 ,52.4618 ,1.16862 ,1.09610 ,10.75490 
259 ,52.6540 ,1.17061 ,1.10294 ,10.82206 
260 ,52.8461 ,1.17244 ,1.07214 ,10.51985 
261 ,53.0380 ,1.17437 ,1.07214 ,10.51985 
262 ,53.2305 ,1.17631 ,1.06872 ,10.48627 
263 ,53.4383 ,1.17839 ,1.05161 ,10.31838 
264 ,53.6466 ,1.18043 ,1.03108 ,10.11691 
265 ,53.8548 ,1.18256 ,1.02423 ,10.04976 
266 ,54.0464 ,1.18451 ,1.00028 ,9.81471 
267 ,54.2549 ,1.18652 ,1.01054 ,9.91544 
268 ,54.4630 ,1.18862 ,0.96605 ,9.47892 
269 ,54.6706 ,1.19068 ,0.96605 ,9.47892 
270 ,54.8632 ,1.19260 ,0.94894 ,9.31103 
271 ,55.0552 ,1.19455 ,0.94894 ,9.31103 
272 ,55.2469 ,1.19646 ,0.91472 ,8.97525 
273 ,55.4393 ,1.19840 ,0.92841 ,9.10956 
274 ,55.6476 ,1.20046 ,0.89419 ,8.77378 
275 ,55.8556 ,1.20254 ,0.89761 ,8.80736 
276 ,56.0635 ,1.20464 ,0.85312 ,8.37084 
277 ,56.2713 ,1.20671 ,0.85312 ,8.37084 
278 ,56.4795 ,1.20874 ,0.83943 ,8.23653 
279 ,56.6878 ,1.21086 ,0.83259 ,8.16937 
280 ,56.8959 ,1.21295 ,0.84286 ,8.27011 
281 ,57.0879 ,1.21489 ,0.80521 ,7.90074 
282 ,57.2960 ,1.21699 ,0.80863 ,7.93432 
283 ,57.5042 ,1.21900 ,0.77784 ,7.63212 
284 ,57.6959 ,1.22107 ,0.77099 ,7.56496 
285 ,57.8883 ,1.22286 ,0.75046 ,7.36349 
286 ,58.0965 ,1.22496 ,0.75046 ,7.36349 
287 ,58.3046 ,1.22706 ,0.72992 ,7.16202 
288 ,58.5125 ,1.22907 ,0.72650 ,7.12844 
289 ,58.7047 ,1.23105 ,0.70255 ,6.89340 
290 ,58.9289 ,1.23325 ,0.68886 ,6.75908 
291 ,59.1367 ,1.23540 ,0.69570 ,6.82624 
292 ,59.3451 ,1.23747 ,0.67859 ,6.65835 
293 ,59.5687 ,1.23965 ,0.65121 ,6.38972 
294 ,59.7770 ,1.24171 ,0.64779 ,6.35614 
295 ,59.9849 ,1.24382 ,0.63410 ,6.22183 
296 ,60.1773 ,1.24576 ,0.63410 ,6.22183 
297 ,60.4012 ,1.24799 ,0.61015 ,5.98678 
298 ,60.5935 ,1.24994 ,0.59304 ,5.81889 
299 ,60.8017 ,1.25198 ,0.57935 ,5.68458 
300 ,61.0097 ,1.25410 ,0.55539 ,5.44953 
301 ,61.2177 ,1.25619 ,0.55882 ,5.48311 
302 ,61.4097 ,1.25806 ,0.54171 ,5.31522 
303 ,61.6020 ,1.26000 ,0.53144 ,5.21448 
304 ,61.7940 ,1.26198 ,0.51433 ,5.04659 
305 ,62.0022 ,1.26392 ,0.51433 ,5.04659 
306 ,62.2100 ,1.26606 ,0.49380 ,4.84512 
307 ,62.4182 ,1.26813 ,0.49380 ,4.84512 
308 ,62.6103 ,1.27007 ,0.46300 ,4.54291 
309 ,62.8501 ,1.27229 ,0.46642 ,4.57649 
310 ,63.0423 ,1.27441 ,0.46300 ,4.54291 
311 ,63.2347 ,1.27635 ,0.42193 ,4.13997 
312 ,63.4427 ,1.27838 ,0.43220 ,4.24071 
313 ,63.6508 ,1.28043 ,0.40482 ,3.97208 
314 ,63.8427 ,1.28237 ,0.40482 ,3.97208 
315 ,64.0349 ,1.28447 ,0.38086 ,3.73703 
316 ,64.2269 ,1.28628 ,0.38771 ,3.80419 
317 ,64.4192 ,1.28816 ,0.37402 ,3.66988 
318 ,64.6270 ,1.29020 ,0.34322 ,3.36767 
319 ,64.8193 ,1.29214 ,0.33980 ,3.33410 
320 ,65.0269 ,1.29425 ,0.33980 ,3.33410 
321 ,65.2355 ,1.29629 ,0.31242 ,3.06547 
322 ,65.4272 ,1.29822 ,0.30900 ,3.03189 
323 ,65.6352 ,1.30026 ,0.29189 ,2.86400 
324 ,65.8436 ,1.30236 ,0.29531 ,2.89758 
325 ,66.0836 ,1.30476 ,0.28847 ,2.83042 
326 ,66.3076 ,1.30696 ,0.25424 ,2.49464 
327 ,66.5160 ,1.30913 ,0.24740 ,2.42748 
328 ,66.7240 ,1.31117 ,0.24398 ,2.39390 
329 ,66.9161 ,1.31313 ,0.21660 ,2.12528 
330 ,67.1243 ,1.31520 ,0.21660 ,2.12528 
331 ,67.3645 ,1.31747 ,0.19607 ,1.92381 
332 ,67.5725 ,1.31966 ,0.18580 ,1.82307 
333 ,67.7965 ,1.32187 ,0.17211 ,1.68876 
334 ,67.9726 ,1.32383 ,0.16869 ,1.65518 
335 ,68.1647 ,1.32565 ,0.16869 ,1.65518 
336 ,68.3727 ,1.32772 ,0.15158 ,1.48729 
337 ,68.5648 ,1.32958 ,0.15158 ,1.48729 
338 ,68.7567 ,1.33154 ,0.11393 ,1.11793 
339 ,68.9491 ,1.33349 ,0.12420 ,1.21866 
340 ,69.1569 ,1.33553 ,0.10709 ,1.05077 
341 ,69.3647 ,1.33763 ,0.08998 ,0.88288 
342 ,69.5733 ,1.33965 ,0.07971 ,0.78214 
343 ,69.7652 ,1.34168 ,0.07629 ,0.74857 
344 ,69.9575 ,1.34353 ,0.04549 ,0.44636 
345 ,70.1816 ,1.34567 ,0.05234 ,0.51352 
346 ,70.3736 ,1.34770 ,0.03180 ,0.31205 
347 ,70.5654 ,1.34961 ,0.03522 ,0.34563 
348 ,70.7576 ,1.35150 ,0.00443 ,0.04342 
349 ,70.9657 ,1.35362 ,0.00785 ,0.07700 
350 ,71.1739 ,1.35569 ,-0.00242 ,-0.02373 
351 ,71.3821 ,1.35779 ,-0.01953 ,-0.19163 
352 ,71.6057 ,1.35994 ,-0.02637 ,-0.25878 
353 ,71.8303 ,1.36212 ,-0.03322 ,-0.32594 
354 ,72.0381 ,1.36433 ,-0.06402 ,-0.62814 
355 ,72.2465 ,1.36639 ,-0.05717 ,-0.56099 
356 ,72.4385 ,1.36834 ,-0.07428 ,-0.72888 
357 ,72.6306 ,1.37028 ,-0.06744 ,-0.66172 
358 ,72.8546 ,1.37243 ,-0.10166 ,-0.99751 
359 ,73.0464 ,1.37440 ,-0.10508 ,-1.03108 
360 ,73.2389 ,1.37631 ,-0.12219 ,-1.19898 
361 ,73.4469 ,1.37838 ,-0.12219 ,-1.19898 
362 ,73.6387 ,1.38031 ,-0.15299 ,-1.50118 
363 ,73.8307 ,1.38224 ,-0.13931 ,-1.36687 
364 ,74.0231 ,1.38423 ,-0.16668 ,-1.63549 
365 ,74.2630 ,1.38654 ,-0.17353 ,-1.70265 
366 ,74.4713 ,1.38861 ,-0.16668 ,-1.63549 
367 ,74.6793 ,1.39076 ,-0.18722 ,-1.83696 
368 ,74.8713 ,1.39265 ,-0.19064 ,-1.87054 
369 ,75.0796 ,1.39469 ,-0.21459 ,-2.10559 
370 ,75.2717 ,1.39662 ,-0.21459 ,-2.10559 
371 ,75.4635 ,1.39860 ,-0.23855 ,-2.34064 
372 ,75.6718 ,1.40065 ,-0.22486 ,-2.20632 
373 ,75.8799 ,1.40268 ,-0.25566 ,-2.50853 
374 ,76.0714 ,1.40466 ,-0.25224 ,-2.47495 
375 ,76.2640 ,1.40657 ,-0.27277 ,-2.67642 
376 ,76.4563 ,1.40848 ,-0.27277 ,-2.67642 
377 ,76.6803 ,1.41062 ,-0.30357 ,-2.97863 
378 ,76.8881 ,1.41279 ,-0.30357 ,-2.97863 
379 ,77.0800 ,1.41475 ,-0.30699 ,-3.01220 
380 ,77.2885 ,1.41676 ,-0.32410 ,-3.18010 
381 ,77.4962 ,1.41890 ,-0.32752 ,-3.21367 
382 ,77.6885 ,1.42080 ,-0.34121 ,-3.34799 
383 ,77.8808 ,1.42268 ,-0.34806 ,-3.41514 
384 ,78.0726 ,1.42470 ,-0.36859 ,-3.61661 
385 ,78.2649 ,1.42657 ,-0.37886 ,-3.71735 
386 ,78.4568 ,1.42848 ,-0.38228 ,-3.75093 
387 ,78.6490 ,1.43039 ,-0.39939 ,-3.91882 
388 ,78.8570 ,1.43241 ,-0.38912 ,-3.81808 
389 ,79.0493 ,1.43438 ,-0.41992 ,-4.12029 
390 ,79.2572 ,1.43642 ,-0.40623 ,-3.98597 
391 ,79.4655 ,1.43855 ,-0.44388 ,-4.35534 
392 ,79.6734 ,1.44068 ,-0.43361 ,-4.25460 
393 ,79.8816 ,1.44269 ,-0.44388 ,-4.35534 
394 ,80.0734 ,1.44471 ,-0.47468 ,-4.65754 
395 ,80.2817 ,1.44670 ,-0.46099 ,-4.52323 
396 ,80.4737 ,1.44866 ,-0.47468 ,-4.65754 
397 ,80.6657 ,1.45056 ,-0.48837 ,-4.79185 
398 ,80.8578 ,1.45251 ,-0.48837 ,-4.79185 
399 ,81.0821 ,1.45463 ,-0.50890 ,-4.99332 
400 ,81.2742 ,1.45667 ,-0.52259 ,-5.12764 
401 ,81.4818 ,1.45868 ,-0.51574 ,-5.06048 
402 ,81.6904 ,1.46078 ,-0.53970 ,-5.29553 
403 ,81.8984 ,1.46289 ,-0.54312 ,-5.32911 
404 ,82.1066 ,1.46493 ,-0.56365 ,-5.53058 
405 ,82.3147 ,1.46706 ,-0.58077 ,-5.69847 
406 ,82.5224 ,1.46910 ,-0.57050 ,-5.59773 
407 ,82.7148 ,1.47107 ,-0.59788 ,-5.86636 
408 ,82.9227 ,1.47315 ,-0.57734 ,-5.66489 
409 ,83.1147 ,1.47505 ,-0.60814 ,-5.96709 
410 ,83.3231 ,1.47715 ,-0.59788 ,-5.86636 
411 ,83.5312 ,1.47919 ,-0.61156 ,-6.00067 
412 ,83.7227 ,1.48117 ,-0.61156 ,-6.00067 
413 ,83.9152 ,1.48303 ,-0.63894 ,-6.26930 
414 ,84.1231 ,1.48509 ,-0.63210 ,-6.20214 
415 ,84.3314 ,1.48719 ,-0.65947 ,-6.47077 
416 ,84.5235 ,1.48916 ,-0.67316 ,-6.60508 
417 ,84.7312 ,1.49118 ,-0.67659 ,-6.63866 
418 ,84.9717 ,1.49338 ,-0.68343 ,-6.70582 
419 ,85.1797 ,1.49567 ,-0.70396 ,-6.90729 
420 ,85.3718 ,1.49760 ,-0.70739 ,-6.94086 
421 ,85.5799 ,1.49972 ,-0.72450 ,-7.10876 
422 ,85.7879 ,1.50181 ,-0.71765 ,-7.04160 
423 ,85.9960 ,1.50376 ,-0.72450 ,-7.10876 
424 ,86.2201 ,1.50603 ,-0.75530 ,-7.41096 
425 ,86.4122 ,1.50805 ,-0.73476 ,-7.20949 
426 ,86.6203 ,1.51007 ,-0.75530 ,-7.41096 
427 ,86.8285 ,1.51211 ,-0.76556 ,-7.51170 
428 ,87.0363 ,1.51415 ,-0.77925 ,-7.64601 
429 ,87.2283 ,1.51616 ,-0.78267 ,-7.67959 
430 ,87.4368 ,1.51818 ,-0.78610 ,-7.71317 
431 ,87.6287 ,1.52017 ,-0.80663 ,-7.91464 
432 ,87.8371 ,1.52226 ,-0.81689 ,-8.01537 
433 ,88.0445 ,1.52427 ,-0.81689 ,-8.01537 
434 ,88.2369 ,1.52628 ,-0.83743 ,-8.21684 
435 ,88.4293 ,1.52817 ,-0.81689 ,-8.01537 
436 ,88.6212 ,1.53007 ,-0.86138 ,-8.45189 
437 ,88.8293 ,1.53220 ,-0.84769 ,-8.31758 
438 ,89.0373 ,1.53418 ,-0.87849 ,-8.61978 
439 ,89.2294 ,1.53615 ,-0.87165 ,-8.55262 
440 ,89.4215 ,1.53809 ,-0.89218 ,-8.75409 
441 ,89.6295 ,1.54026 ,-0.89218 ,-8.75409 
442 ,89.8217 ,1.54208 ,-0.91614 ,-8.98914 
443 ,90.0297 ,1.54421 ,-0.90587 ,-8.88841 
444 ,90.2214 ,1.54612 ,-0.92640 ,-9.08988 
445 ,90.4299 ,1.54810 ,-0.94009 ,-9.22419 
446 ,90.6379 ,1.55027 ,-0.94694 ,-9.29135 
447 ,90.8300 ,1.55218 ,-0.93325 ,-9.15703 
448 ,91.0222 ,1.55412 ,-0.96405 ,-9.45924 
449 ,91.2302 ,1.55610 ,-0.94694 ,-9.29135 
450 ,91.4382 ,1.55819 ,-0.98458 ,-9.66071 
451 ,91.6462 ,1.56031 ,-0.98458 ,-9.66071 
452 ,91.8548 ,1.56235 ,-0.98800 ,-9.69429 
453 ,92.0626 ,1.56451 ,-1.00169 ,-9.82860 
454 ,92.2862 ,1.56668 ,-1.00169 ,-9.82860 
455 ,92.4623 ,1.56861 ,-1.01880 ,-9.99649 
456 ,92.6549 ,1.57041 ,-1.01880 ,-9.99649 
457 ,92.8790 ,1.57256 ,-1.04960 ,-10.29869 
458 ,93.0710 ,1.57463 ,-1.04276 ,-10.23154 
459 ,93.2792 ,1.57662 ,-1.04618 ,-10.26512 
460 ,93.4867 ,1.57869 ,-1.06671 ,-10.46659 
461 ,93.7113 ,1.58082 ,-1.06329 ,-10.43301 
462 ,93.9193 ,1.58299 ,-1.07014 ,-10.50016 
