Data stamp = , 05-05-2022 08:17:17 487

Calibration Values: 
Slope = , 26.54 , g/V 
Offset Voltage at no contact = , -0.501760 , V 

No , Time , Stage Position ,   Mass , Force 
   ,  (s) ,      (mm)      ,   (g)  , (mN)  

1 ,0.0000 ,0.64955 ,5.19585 ,50.98170 
2 ,0.2220 ,0.64962 ,5.20612 ,51.08244 
3 ,0.6061 ,0.65080 ,5.18901 ,50.91455 
4 ,0.8621 ,0.65287 ,5.21296 ,51.14960 
5 ,1.0702 ,0.65495 ,5.21639 ,51.18317 
6 ,1.2785 ,0.65702 ,5.19927 ,51.01528 
7 ,1.5187 ,0.65928 ,5.20612 ,51.08244 
8 ,1.7267 ,0.66150 ,5.18901 ,50.91455 
9 ,1.9352 ,0.66360 ,5.14794 ,50.51161 
10 ,2.1593 ,0.66580 ,5.11714 ,50.20940 
11 ,2.3831 ,0.66800 ,5.12056 ,50.24298 
12 ,2.6074 ,0.67034 ,5.10345 ,50.07509 
13 ,2.7990 ,0.67234 ,5.05212 ,49.57142 
14 ,3.0075 ,0.67428 ,5.05554 ,49.60499 
15 ,3.2317 ,0.67654 ,5.02474 ,49.30279 
16 ,3.4398 ,0.67864 ,4.98710 ,48.93343 
17 ,3.6635 ,0.68088 ,4.98710 ,48.93343 
18 ,3.8559 ,0.68281 ,4.95288 ,48.59764 
19 ,4.0961 ,0.68507 ,4.93235 ,48.39618 
20 ,4.3041 ,0.68727 ,4.91523 ,48.22828 
21 ,4.5122 ,0.68941 ,4.90497 ,48.12755 
22 ,4.7203 ,0.69142 ,4.87075 ,47.79177 
23 ,4.9442 ,0.69368 ,4.84679 ,47.55672 
24 ,5.1523 ,0.69576 ,4.83652 ,47.45598 
25 ,5.3441 ,0.69788 ,4.80573 ,47.15378 
26 ,5.5524 ,0.69976 ,4.79546 ,47.05304 
27 ,5.7608 ,0.70190 ,4.76466 ,46.75084 
28 ,5.9846 ,0.70404 ,4.75439 ,46.65010 
29 ,6.3209 ,0.70690 ,4.75097 ,46.61653 
30 ,6.5290 ,0.70952 ,4.70306 ,46.14643 
31 ,6.7370 ,0.71161 ,4.67568 ,45.87780 
32 ,6.9292 ,0.71355 ,4.66542 ,45.77707 
33 ,7.1373 ,0.71562 ,4.62777 ,45.40771 
34 ,7.3454 ,0.71764 ,4.63119 ,45.44128 
35 ,7.5533 ,0.71981 ,4.60724 ,45.20624 
36 ,7.7609 ,0.72188 ,4.57644 ,44.90403 
37 ,7.9691 ,0.72397 ,4.56960 ,44.83688 
38 ,8.1775 ,0.72599 ,4.52169 ,44.36678 
39 ,8.3852 ,0.72819 ,4.51142 ,44.26604 
40 ,8.5777 ,0.73002 ,4.48746 ,44.03100 
41 ,8.7857 ,0.73203 ,4.49089 ,44.06457 
42 ,8.9938 ,0.73419 ,4.46351 ,43.79595 
43 ,9.2018 ,0.73621 ,4.44298 ,43.59448 
44 ,9.4098 ,0.73828 ,4.42929 ,43.46016 
45 ,9.6182 ,0.74042 ,4.38138 ,42.99007 
46 ,9.8424 ,0.74260 ,4.37111 ,42.88933 
47 ,10.0504 ,0.74472 ,4.36427 ,42.82218 
48 ,10.2583 ,0.74684 ,4.33347 ,42.51997 
49 ,10.4666 ,0.74886 ,4.32320 ,42.41924 
50 ,10.6587 ,0.75085 ,4.27529 ,41.94914 
51 ,10.8668 ,0.75292 ,4.28898 ,42.08345 
52 ,11.0749 ,0.75497 ,4.26845 ,41.88198 
53 ,11.2668 ,0.75691 ,4.24107 ,41.61336 
54 ,11.4746 ,0.75895 ,4.22738 ,41.47905 
55 ,11.6507 ,0.76086 ,4.21027 ,41.31115 
56 ,11.8593 ,0.76280 ,4.17605 ,40.97537 
57 ,12.0674 ,0.76488 ,4.18289 ,41.04253 
58 ,12.2753 ,0.76692 ,4.14867 ,40.70674 
59 ,12.4994 ,0.76920 ,4.12814 ,40.50527 
60 ,12.6914 ,0.77115 ,4.12814 ,40.50527 
61 ,12.8995 ,0.77326 ,4.08023 ,40.03518 
62 ,13.1077 ,0.77529 ,4.07680 ,40.00160 
63 ,13.2999 ,0.77724 ,4.04600 ,39.69940 
64 ,13.5079 ,0.77933 ,4.03574 ,39.59866 
65 ,13.7160 ,0.78137 ,4.01178 ,39.36361 
66 ,13.9076 ,0.78329 ,4.01178 ,39.36361 
67 ,14.1002 ,0.78523 ,3.97414 ,38.99425 
68 ,14.3083 ,0.78728 ,3.97756 ,39.02783 
69 ,14.5164 ,0.78938 ,3.94334 ,38.69205 
70 ,14.7404 ,0.79155 ,3.91254 ,38.38984 
71 ,14.9324 ,0.79355 ,3.91938 ,38.45700 
72 ,15.1566 ,0.79575 ,3.88174 ,38.08764 
73 ,15.3645 ,0.79788 ,3.84410 ,37.71828 
74 ,15.5888 ,0.80001 ,3.86121 ,37.88617 
75 ,15.7804 ,0.80211 ,3.82014 ,37.48323 
76 ,15.9889 ,0.80410 ,3.82014 ,37.48323 
77 ,16.1970 ,0.80619 ,3.77223 ,37.01313 
78 ,16.4211 ,0.80840 ,3.75512 ,36.84524 
79 ,16.6449 ,0.81058 ,3.74485 ,36.74450 
80 ,16.8372 ,0.81259 ,3.73117 ,36.61019 
81 ,17.0453 ,0.81464 ,3.72090 ,36.50946 
82 ,17.2693 ,0.81680 ,3.69352 ,36.24083 
83 ,17.4614 ,0.81883 ,3.65930 ,35.90505 
84 ,17.6695 ,0.82087 ,3.65588 ,35.87147 
85 ,17.8773 ,0.82304 ,3.63534 ,35.67000 
86 ,18.1178 ,0.82538 ,3.61139 ,35.43495 
87 ,18.3418 ,0.82756 ,3.58743 ,35.19990 
88 ,18.5339 ,0.82955 ,3.58059 ,35.13275 
89 ,18.7420 ,0.83159 ,3.54295 ,34.76338 
90 ,18.9500 ,0.83374 ,3.53952 ,34.72981 
91 ,19.1582 ,0.83581 ,3.50530 ,34.39402 
92 ,19.3659 ,0.83782 ,3.48819 ,34.22613 
93 ,19.5902 ,0.83999 ,3.48135 ,34.15898 
94 ,19.7983 ,0.84228 ,3.46081 ,33.95751 
95 ,19.9905 ,0.84416 ,3.45397 ,33.89035 
96 ,20.1986 ,0.84623 ,3.41633 ,33.52099 
97 ,20.4065 ,0.84824 ,3.41975 ,33.55457 
98 ,20.6147 ,0.85034 ,3.39237 ,33.28594 
99 ,20.8389 ,0.85251 ,3.34788 ,32.84942 
100 ,21.0628 ,0.85477 ,3.33419 ,32.71511 
101 ,21.2551 ,0.85674 ,3.32735 ,32.64795 
102 ,21.4631 ,0.85884 ,3.28286 ,32.21143 
103 ,21.6871 ,0.86104 ,3.29655 ,32.34575 
104 ,21.8953 ,0.86319 ,3.28286 ,32.21143 
105 ,22.1029 ,0.86516 ,3.24522 ,31.84207 
106 ,22.2954 ,0.86714 ,3.25206 ,31.90923 
107 ,22.5035 ,0.86920 ,3.21100 ,31.50629 
108 ,22.6952 ,0.87118 ,3.20415 ,31.43913 
109 ,22.9197 ,0.87331 ,3.17677 ,31.17051 
110 ,23.1435 ,0.87560 ,3.15966 ,31.00262 
111 ,23.3520 ,0.87768 ,3.14255 ,30.83472 
112 ,23.5599 ,0.87972 ,3.11175 ,30.53252 
113 ,23.7518 ,0.88173 ,3.11860 ,30.59968 
114 ,23.9762 ,0.88385 ,3.07753 ,30.19674 
115 ,24.1842 ,0.88605 ,3.06042 ,30.02884 
116 ,24.4083 ,0.88823 ,3.05700 ,29.99527 
117 ,24.6003 ,0.89023 ,3.03647 ,29.79380 
118 ,24.8085 ,0.89230 ,3.01251 ,29.55875 
119 ,25.0164 ,0.89437 ,3.00909 ,29.52517 
120 ,25.2085 ,0.89627 ,2.98513 ,29.29012 
121 ,25.4327 ,0.89841 ,2.97829 ,29.22297 
122 ,25.6408 ,0.90057 ,2.95091 ,28.95434 
123 ,25.8489 ,0.90264 ,2.94407 ,28.88718 
124 ,26.0564 ,0.90472 ,2.91669 ,28.61856 
125 ,26.2490 ,0.90664 ,2.89958 ,28.45066 
126 ,26.4412 ,0.90852 ,2.88589 ,28.31635 
127 ,26.6492 ,0.91065 ,2.87562 ,28.21562 
128 ,26.8730 ,0.91284 ,2.85167 ,27.98057 
129 ,27.0652 ,0.91481 ,2.82087 ,27.67836 
130 ,27.2894 ,0.91705 ,2.82087 ,27.67836 
131 ,27.4815 ,0.91897 ,2.79691 ,27.44332 
132 ,27.6735 ,0.92097 ,2.79007 ,27.37616 
133 ,27.8976 ,0.92311 ,2.75585 ,27.04038 
134 ,28.0897 ,0.92504 ,2.75927 ,27.07395 
135 ,28.2978 ,0.92722 ,2.74558 ,26.93964 
136 ,28.5223 ,0.92938 ,2.71478 ,26.63744 
137 ,28.7301 ,0.93142 ,2.70452 ,26.53670 
138 ,28.9382 ,0.93354 ,2.67372 ,26.23450 
139 ,29.1620 ,0.93572 ,2.64976 ,25.99945 
140 ,29.3701 ,0.93781 ,2.66003 ,26.10018 
141 ,29.5623 ,0.93977 ,2.61554 ,25.66367 
142 ,29.7544 ,0.94170 ,2.62581 ,25.76440 
143 ,29.9624 ,0.94381 ,2.58132 ,25.32788 
144 ,30.1706 ,0.94587 ,2.59501 ,25.46220 
145 ,30.3628 ,0.94775 ,2.54710 ,24.99210 
146 ,30.5708 ,0.94982 ,2.56763 ,25.19357 
147 ,30.7784 ,0.95192 ,2.54367 ,24.95852 
148 ,30.9711 ,0.95387 ,2.52314 ,24.75705 
149 ,31.1790 ,0.95594 ,2.49576 ,24.48842 
150 ,31.3711 ,0.95791 ,2.48892 ,24.42127 
151 ,31.5627 ,0.95979 ,2.46154 ,24.15264 
152 ,31.7554 ,0.96168 ,2.46496 ,24.18622 
153 ,31.9790 ,0.96393 ,2.43074 ,23.85044 
154 ,32.1713 ,0.96585 ,2.43759 ,23.91759 
155 ,32.3633 ,0.96780 ,2.40679 ,23.61539 
156 ,32.5557 ,0.96971 ,2.40336 ,23.58181 
157 ,32.7957 ,0.97199 ,2.36230 ,23.17887 
158 ,33.0198 ,0.97430 ,2.35888 ,23.14529 
159 ,33.2278 ,0.97636 ,2.36230 ,23.17887 
160 ,33.4200 ,0.97836 ,2.32465 ,22.80951 
161 ,33.6438 ,0.98051 ,2.31097 ,22.67520 
162 ,33.8521 ,0.98264 ,2.29728 ,22.54088 
163 ,34.0602 ,0.98472 ,2.26990 ,22.27226 
164 ,34.2523 ,0.98666 ,2.27332 ,22.30584 
165 ,34.4606 ,0.98876 ,2.23568 ,21.93647 
166 ,34.6683 ,0.99079 ,2.23226 ,21.90290 
167 ,34.8601 ,0.99274 ,2.21515 ,21.73500 
168 ,35.0525 ,0.99471 ,2.21857 ,21.76858 
169 ,35.2605 ,0.99674 ,2.16723 ,21.26491 
170 ,35.4688 ,0.99876 ,2.18777 ,21.46638 
171 ,35.6609 ,1.00074 ,2.15012 ,21.09702 
172 ,35.8689 ,1.00283 ,2.13301 ,20.92912 
173 ,36.0608 ,1.00477 ,2.11590 ,20.76123 
174 ,36.2850 ,1.00688 ,2.11248 ,20.72766 
175 ,36.4770 ,1.00891 ,2.08852 ,20.49261 
176 ,36.6694 ,1.01086 ,2.07484 ,20.35829 
177 ,36.8773 ,1.01291 ,2.05773 ,20.19040 
178 ,37.0851 ,1.01500 ,2.03719 ,19.98893 
179 ,37.2774 ,1.01689 ,2.03035 ,19.92178 
180 ,37.4696 ,1.01885 ,2.03719 ,19.98893 
181 ,37.6775 ,1.02090 ,1.99613 ,19.58599 
182 ,37.8697 ,1.02285 ,1.99955 ,19.61957 
183 ,38.0778 ,1.02490 ,1.96875 ,19.31737 
184 ,38.2859 ,1.02702 ,1.96190 ,19.25021 
185 ,38.4938 ,1.02903 ,1.95164 ,19.14948 
186 ,38.7020 ,1.03109 ,1.92768 ,18.91443 
187 ,38.9100 ,1.03320 ,1.92768 ,18.91443 
188 ,39.1343 ,1.03529 ,1.88319 ,18.47791 
189 ,39.3582 ,1.03774 ,1.85924 ,18.24286 
190 ,39.5665 ,1.03982 ,1.85924 ,18.24286 
191 ,39.7745 ,1.04183 ,1.84897 ,18.14213 
192 ,39.9666 ,1.04377 ,1.82844 ,17.94066 
193 ,40.1746 ,1.04581 ,1.82502 ,17.90708 
194 ,40.3829 ,1.04794 ,1.78737 ,17.53772 
195 ,40.5908 ,1.05002 ,1.81133 ,17.77276 
196 ,40.7990 ,1.05211 ,1.78737 ,17.53772 
197 ,40.9910 ,1.05403 ,1.79080 ,17.57129 
198 ,41.2149 ,1.05628 ,1.75657 ,17.23551 
199 ,41.4068 ,1.05819 ,1.73262 ,17.00046 
200 ,41.6151 ,1.06026 ,1.72578 ,16.93331 
201 ,41.8235 ,1.06235 ,1.69155 ,16.59752 
202 ,42.0475 ,1.06460 ,1.69840 ,16.66468 
203 ,42.2555 ,1.06668 ,1.68813 ,16.56395 
204 ,42.4471 ,1.06861 ,1.65391 ,16.22816 
205 ,42.6392 ,1.07055 ,1.64364 ,16.12743 
206 ,42.8313 ,1.07241 ,1.65049 ,16.19458 
207 ,43.0395 ,1.07445 ,1.62653 ,15.95954 
208 ,43.2320 ,1.07645 ,1.61969 ,15.89238 
209 ,43.4561 ,1.07861 ,1.58889 ,15.59018 
210 ,43.6476 ,1.08069 ,1.57862 ,15.48944 
211 ,43.8560 ,1.08261 ,1.57178 ,15.42228 
212 ,44.0643 ,1.08471 ,1.54440 ,15.15366 
213 ,44.2721 ,1.08683 ,1.55124 ,15.22081 
214 ,44.4645 ,1.08872 ,1.51018 ,14.81787 
215 ,44.6884 ,1.09095 ,1.51360 ,14.85145 
216 ,44.8967 ,1.09306 ,1.48965 ,14.61640 
217 ,45.1208 ,1.09525 ,1.46569 ,14.38136 
218 ,45.3448 ,1.09751 ,1.44858 ,14.21346 
219 ,45.5369 ,1.09945 ,1.46227 ,14.34778 
220 ,45.7447 ,1.10149 ,1.43831 ,14.11273 
221 ,45.9371 ,1.10344 ,1.42805 ,14.01199 
222 ,46.1452 ,1.10553 ,1.41094 ,13.84410 
223 ,46.3529 ,1.10761 ,1.40751 ,13.81053 
224 ,46.5453 ,1.10954 ,1.38014 ,13.54190 
225 ,46.7533 ,1.11163 ,1.38356 ,13.57548 
226 ,46.9611 ,1.11369 ,1.34591 ,13.20612 
227 ,47.1695 ,1.11580 ,1.35276 ,13.27327 
228 ,47.3776 ,1.11789 ,1.31854 ,12.93749 
229 ,47.6017 ,1.12006 ,1.29800 ,12.73602 
230 ,47.8096 ,1.12214 ,1.30827 ,12.83675 
231 ,48.0334 ,1.12437 ,1.29116 ,12.66886 
232 ,48.2420 ,1.12647 ,1.26378 ,12.40024 
233 ,48.4501 ,1.12859 ,1.26036 ,12.36666 
234 ,48.6421 ,1.13054 ,1.23983 ,12.16519 
235 ,48.8662 ,1.13268 ,1.22614 ,12.03088 
236 ,49.0742 ,1.13485 ,1.23298 ,12.09803 
237 ,49.2663 ,1.13675 ,1.20218 ,11.79583 
238 ,49.4582 ,1.13864 ,1.19534 ,11.72867 
239 ,49.6664 ,1.14070 ,1.18507 ,11.62794 
240 ,49.8906 ,1.14277 ,1.17481 ,11.52720 
241 ,50.1144 ,1.14514 ,1.15427 ,11.32573 
242 ,50.3063 ,1.14715 ,1.13374 ,11.12426 
243 ,50.5310 ,1.14922 ,1.12347 ,11.02353 
244 ,50.7228 ,1.15131 ,1.09952 ,10.78848 
245 ,50.9151 ,1.15328 ,1.11663 ,10.95637 
246 ,51.1229 ,1.15530 ,1.06872 ,10.48627 
247 ,51.3312 ,1.15734 ,1.08583 ,10.65416 
248 ,51.5553 ,1.15959 ,1.05161 ,10.31838 
249 ,51.7633 ,1.16172 ,1.04819 ,10.28480 
250 ,51.9554 ,1.16364 ,1.04476 ,10.25123 
251 ,52.1635 ,1.16568 ,1.01739 ,9.98260 
252 ,52.3556 ,1.16763 ,1.01396 ,9.94902 
253 ,52.5631 ,1.16972 ,0.97632 ,9.57966 
254 ,52.7557 ,1.17163 ,0.99001 ,9.71397 
255 ,52.9479 ,1.17358 ,0.96948 ,9.51250 
256 ,53.1559 ,1.17562 ,0.97632 ,9.57966 
257 ,53.3639 ,1.17769 ,0.93525 ,9.17672 
258 ,53.5877 ,1.17992 ,0.93183 ,9.14314 
259 ,53.7801 ,1.18202 ,0.91814 ,9.00883 
260 ,53.9882 ,1.18394 ,0.90103 ,8.84094 
261 ,54.1964 ,1.18601 ,0.90103 ,8.84094 
262 ,54.4044 ,1.18801 ,0.87023 ,8.53873 
263 ,54.6122 ,1.19011 ,0.86681 ,8.50515 
264 ,54.8043 ,1.19211 ,0.84970 ,8.33726 
265 ,55.0287 ,1.19429 ,0.83601 ,8.20295 
266 ,55.2368 ,1.19643 ,0.83259 ,8.16937 
267 ,55.4444 ,1.19846 ,0.80863 ,7.93432 
268 ,55.6370 ,1.20047 ,0.80521 ,7.90074 
269 ,55.8445 ,1.20251 ,0.77441 ,7.59854 
270 ,56.0529 ,1.20455 ,0.78468 ,7.69927 
271 ,56.2611 ,1.20668 ,0.76415 ,7.49780 
272 ,56.4691 ,1.20871 ,0.74704 ,7.32991 
273 ,56.6611 ,1.21068 ,0.73677 ,7.22918 
274 ,56.8693 ,1.21280 ,0.71281 ,6.99413 
275 ,57.1092 ,1.21511 ,0.71624 ,7.02771 
276 ,57.3174 ,1.21725 ,0.71624 ,7.02771 
277 ,57.5257 ,1.21935 ,0.66148 ,6.49046 
278 ,57.7178 ,1.22129 ,0.67175 ,6.59119 
279 ,57.9259 ,1.22333 ,0.65806 ,6.45688 
280 ,58.1178 ,1.22528 ,0.67175 ,6.59119 
281 ,58.3100 ,1.22717 ,0.62384 ,6.12109 
282 ,58.5180 ,1.22927 ,0.63068 ,6.18825 
283 ,58.7261 ,1.23126 ,0.59304 ,5.81889 
284 ,58.9340 ,1.23337 ,0.61015 ,5.98678 
285 ,59.1419 ,1.23548 ,0.57935 ,5.68458 
286 ,59.3502 ,1.23749 ,0.56908 ,5.58384 
287 ,59.5585 ,1.23958 ,0.56224 ,5.51668 
288 ,59.7665 ,1.24166 ,0.54513 ,5.34879 
289 ,59.9747 ,1.24373 ,0.55197 ,5.41595 
290 ,60.1825 ,1.24595 ,0.54171 ,5.31522 
291 ,60.3908 ,1.24794 ,0.52117 ,5.11375 
292 ,60.6147 ,1.25004 ,0.50406 ,4.94585 
293 ,60.8390 ,1.25239 ,0.50406 ,4.94585 
294 ,61.0312 ,1.25431 ,0.47668 ,4.67723 
295 ,61.2393 ,1.25647 ,0.47668 ,4.67723 
296 ,61.4787 ,1.25867 ,0.45273 ,4.44218 
297 ,61.6870 ,1.26086 ,0.43904 ,4.30787 
298 ,61.8953 ,1.26297 ,0.43562 ,4.27429 
299 ,62.1355 ,1.26533 ,0.42193 ,4.13997 
300 ,62.3276 ,1.26734 ,0.40140 ,3.93850 
301 ,62.5196 ,1.26925 ,0.39797 ,3.90493 
302 ,62.7118 ,1.27112 ,0.37060 ,3.63630 
303 ,62.9201 ,1.27319 ,0.37744 ,3.70346 
304 ,63.1120 ,1.27514 ,0.36375 ,3.56914 
305 ,63.3204 ,1.27720 ,0.35006 ,3.43483 
306 ,63.5117 ,1.27917 ,0.33295 ,3.26694 
307 ,63.7202 ,1.28124 ,0.32953 ,3.23336 
308 ,63.9121 ,1.28326 ,0.30900 ,3.03189 
309 ,64.1203 ,1.28527 ,0.31926 ,3.13263 
310 ,64.3125 ,1.28717 ,0.29189 ,2.86400 
311 ,64.5045 ,1.28905 ,0.28847 ,2.83042 
312 ,64.7120 ,1.29115 ,0.26109 ,2.56179 
313 ,64.9367 ,1.29325 ,0.26109 ,2.56179 
314 ,65.1447 ,1.29546 ,0.24740 ,2.42748 
315 ,65.3370 ,1.29740 ,0.24398 ,2.39390 
316 ,65.5290 ,1.29935 ,0.22002 ,2.15885 
317 ,65.7528 ,1.30155 ,0.20633 ,2.02454 
318 ,65.9772 ,1.30375 ,0.21318 ,2.09170 
319 ,66.1850 ,1.30594 ,0.18580 ,1.82307 
320 ,66.3772 ,1.30784 ,0.18922 ,1.85665 
321 ,66.5692 ,1.30975 ,0.16527 ,1.62160 
322 ,66.7774 ,1.31186 ,0.16527 ,1.62160 
323 ,67.0015 ,1.31393 ,0.15500 ,1.52087 
324 ,67.2096 ,1.31609 ,0.12420 ,1.21866 
325 ,67.4176 ,1.31816 ,0.12762 ,1.25224 
326 ,67.6419 ,1.32034 ,0.11393 ,1.11793 
327 ,67.8498 ,1.32257 ,0.08656 ,0.84930 
328 ,68.0255 ,1.32441 ,0.09340 ,0.91646 
329 ,68.2181 ,1.32626 ,0.08656 ,0.84930 
330 ,68.4101 ,1.32817 ,0.06602 ,0.64783 
331 ,68.6182 ,1.33021 ,0.05918 ,0.58067 
332 ,68.8263 ,1.33226 ,0.04891 ,0.47994 
333 ,69.0342 ,1.33430 ,0.04207 ,0.41278 
334 ,69.2421 ,1.33639 ,0.02154 ,0.21131 
335 ,69.4506 ,1.33852 ,0.01127 ,0.11058 
336 ,69.6426 ,1.34041 ,0.02154 ,0.21131 
337 ,69.8508 ,1.34248 ,-0.01269 ,-0.12447 
338 ,70.0588 ,1.34458 ,-0.00242 ,-0.02373 
339 ,70.2504 ,1.34659 ,-0.02980 ,-0.29236 
340 ,70.4431 ,1.34841 ,-0.03322 ,-0.32594 
341 ,70.6510 ,1.35045 ,-0.05717 ,-0.56099 
342 ,70.8271 ,1.35239 ,-0.04348 ,-0.42667 
343 ,71.0193 ,1.35420 ,-0.07428 ,-0.72888 
344 ,71.2113 ,1.35611 ,-0.08113 ,-0.79604 
345 ,71.4193 ,1.35822 ,-0.09482 ,-0.93035 
346 ,71.6276 ,1.36022 ,-0.10166 ,-0.99751 
347 ,71.8196 ,1.36222 ,-0.10166 ,-0.99751 
348 ,72.0436 ,1.36426 ,-0.12219 ,-1.19898 
349 ,72.2676 ,1.36665 ,-0.14273 ,-1.40045 
350 ,72.4598 ,1.36867 ,-0.13931 ,-1.36687 
351 ,72.6520 ,1.37053 ,-0.16326 ,-1.60191 
352 ,72.8757 ,1.37270 ,-0.16326 ,-1.60191 
353 ,73.0841 ,1.37478 ,-0.17695 ,-1.73623 
354 ,73.3081 ,1.37700 ,-0.18379 ,-1.80338 
355 ,73.4998 ,1.37898 ,-0.18722 ,-1.83696 
356 ,73.7083 ,1.38102 ,-0.21117 ,-2.07201 
357 ,73.9001 ,1.38299 ,-0.20775 ,-2.03843 
358 ,74.0925 ,1.38490 ,-0.23855 ,-2.34064 
359 ,74.3161 ,1.38711 ,-0.22828 ,-2.23990 
360 ,74.5087 ,1.38908 ,-0.23855 ,-2.34064 
361 ,74.7327 ,1.39127 ,-0.26250 ,-2.57569 
362 ,74.9408 ,1.39337 ,-0.26250 ,-2.57569 
363 ,75.1329 ,1.39533 ,-0.28304 ,-2.77716 
364 ,75.3410 ,1.39740 ,-0.29330 ,-2.87789 
365 ,75.5330 ,1.39928 ,-0.29330 ,-2.87789 
366 ,75.7408 ,1.40131 ,-0.29330 ,-2.87789 
367 ,75.9331 ,1.40331 ,-0.31384 ,-3.07936 
368 ,76.1255 ,1.40524 ,-0.30699 ,-3.01220 
369 ,76.3335 ,1.40730 ,-0.34121 ,-3.34799 
370 ,76.5416 ,1.40935 ,-0.33779 ,-3.31441 
371 ,76.7495 ,1.41144 ,-0.36859 ,-3.61661 
372 ,76.9577 ,1.41352 ,-0.34806 ,-3.41514 
373 ,77.1656 ,1.41562 ,-0.35832 ,-3.51588 
374 ,77.3738 ,1.41771 ,-0.40281 ,-3.95240 
375 ,77.5820 ,1.41973 ,-0.37201 ,-3.65019 
376 ,77.8061 ,1.42196 ,-0.39255 ,-3.85166 
377 ,77.9981 ,1.42403 ,-0.41992 ,-4.12029 
378 ,78.1902 ,1.42594 ,-0.41308 ,-4.05313 
379 ,78.3821 ,1.42779 ,-0.41992 ,-4.12029 
380 ,78.5904 ,1.42989 ,-0.44388 ,-4.35534 
381 ,78.7825 ,1.43182 ,-0.43361 ,-4.25460 
382 ,79.0061 ,1.43400 ,-0.45072 ,-4.42249 
383 ,79.2145 ,1.43613 ,-0.48152 ,-4.72470 
384 ,79.4225 ,1.43817 ,-0.47468 ,-4.65754 
385 ,79.6308 ,1.44030 ,-0.48837 ,-4.79185 
386 ,79.8386 ,1.44234 ,-0.50206 ,-4.92617 
387 ,80.0312 ,1.44426 ,-0.50548 ,-4.95975 
388 ,80.2390 ,1.44636 ,-0.50890 ,-4.99332 
389 ,80.4314 ,1.44836 ,-0.51232 ,-5.02690 
390 ,80.6394 ,1.45036 ,-0.54312 ,-5.32911 
391 ,80.8475 ,1.45241 ,-0.53285 ,-5.22837 
392 ,81.0874 ,1.45467 ,-0.56365 ,-5.53058 
393 ,81.2953 ,1.45686 ,-0.57734 ,-5.66489 
394 ,81.5036 ,1.45901 ,-0.57050 ,-5.59773 
395 ,81.6958 ,1.46092 ,-0.59103 ,-5.79920 
396 ,81.9038 ,1.46292 ,-0.59103 ,-5.79920 
397 ,82.1119 ,1.46508 ,-0.61499 ,-6.03425 
398 ,82.3356 ,1.46725 ,-0.60472 ,-5.93352 
399 ,82.5279 ,1.46925 ,-0.60130 ,-5.89994 
400 ,82.7362 ,1.47132 ,-0.62868 ,-6.16856 
401 ,82.9444 ,1.47333 ,-0.62868 ,-6.16856 
402 ,83.1845 ,1.47566 ,-0.66290 ,-6.50435 
403 ,83.3920 ,1.47786 ,-0.66290 ,-6.50435 
404 ,83.6165 ,1.48000 ,-0.67316 ,-6.60508 
405 ,83.8407 ,1.48229 ,-0.66974 ,-6.57150 
406 ,84.0486 ,1.48443 ,-0.69027 ,-6.77297 
407 ,84.2569 ,1.48649 ,-0.70396 ,-6.90729 
408 ,84.4647 ,1.48866 ,-0.70054 ,-6.87371 
409 ,84.6728 ,1.49066 ,-0.72792 ,-7.14233 
410 ,84.8972 ,1.49286 ,-0.71765 ,-7.04160 
411 ,85.1213 ,1.49513 ,-0.72107 ,-7.07518 
412 ,85.3295 ,1.49722 ,-0.74503 ,-7.31023 
413 ,85.5534 ,1.49939 ,-0.76556 ,-7.51170 
414 ,85.7614 ,1.50149 ,-0.75530 ,-7.41096 
415 ,85.9694 ,1.50363 ,-0.77241 ,-7.57885 
416 ,86.1773 ,1.50574 ,-0.78267 ,-7.67959 
417 ,86.3696 ,1.50762 ,-0.78610 ,-7.71317 
418 ,86.5616 ,1.50953 ,-0.79978 ,-7.84748 
419 ,86.7534 ,1.51151 ,-0.80663 ,-7.91464 
420 ,86.9457 ,1.51341 ,-0.79978 ,-7.84748 
421 ,87.1379 ,1.51541 ,-0.82374 ,-8.08253 
422 ,87.3300 ,1.51724 ,-0.82374 ,-8.08253 
423 ,87.5222 ,1.51917 ,-0.83401 ,-8.18326 
424 ,87.7303 ,1.52127 ,-0.83743 ,-8.21684 
425 ,87.9381 ,1.52332 ,-0.85796 ,-8.41831 
426 ,88.1464 ,1.52541 ,-0.85454 ,-8.38473 
427 ,88.3383 ,1.52730 ,-0.88876 ,-8.72051 
428 ,88.5465 ,1.52938 ,-0.87507 ,-8.58620 
429 ,88.7546 ,1.53142 ,-0.90929 ,-8.92198 
430 ,88.9462 ,1.53345 ,-0.88534 ,-8.68694 
431 ,89.1388 ,1.53536 ,-0.90929 ,-8.92198 
432 ,89.3465 ,1.53746 ,-0.90929 ,-8.92198 
433 ,89.5390 ,1.53931 ,-0.93667 ,-9.19061 
434 ,89.7470 ,1.54137 ,-0.92298 ,-9.05630 
435 ,89.9548 ,1.54342 ,-0.94694 ,-9.29135 
436 ,90.1630 ,1.54556 ,-0.93325 ,-9.15703 
437 ,90.3872 ,1.54776 ,-0.94694 ,-9.29135 
438 ,90.5794 ,1.54973 ,-0.96747 ,-9.49282 
439 ,90.7875 ,1.55186 ,-0.96405 ,-9.45924 
440 ,90.9954 ,1.55384 ,-0.99827 ,-9.79502 
441 ,91.2193 ,1.55609 ,-0.99143 ,-9.72786 
442 ,91.4114 ,1.55805 ,-0.99827 ,-9.79502 
443 ,91.6195 ,1.56008 ,-0.99827 ,-9.79502 
444 ,91.8116 ,1.56205 ,-1.01538 ,-9.96291 
445 ,92.0199 ,1.56410 ,-1.03249 ,-10.13080 
446 ,92.2277 ,1.56619 ,-1.02222 ,-10.03007 
447 ,92.4362 ,1.56824 ,-1.04618 ,-10.26512 
448 ,92.6442 ,1.57036 ,-1.04276 ,-10.23154 
449 ,92.8521 ,1.57240 ,-1.07356 ,-10.53374 
450 ,93.0604 ,1.57448 ,-1.05987 ,-10.39943 
451 ,93.2840 ,1.57673 ,-1.06329 ,-10.43301 
452 ,93.4921 ,1.57877 ,-1.10436 ,-10.83595 
453 ,93.7327 ,1.58108 ,-1.08725 ,-10.66806 
454 ,93.9567 ,1.58345 ,-1.11120 ,-10.90310 
455 ,94.1649 ,1.58546 ,-1.10778 ,-10.86953 
456 ,94.3886 ,1.58776 ,-1.11805 ,-10.97026 
457 ,94.5971 ,1.58993 ,-1.13516 ,-11.13815 
458 ,94.8049 ,1.59196 ,-1.13173 ,-11.10457 
459 ,94.9972 ,1.59394 ,-1.15569 ,-11.33962 
460 ,95.2053 ,1.59588 ,-1.15911 ,-11.37320 
461 ,95.4133 ,1.59798 ,-1.17280 ,-11.50751 
