Data stamp = , 05-05-2022 17:55:00 507

Calibration Values: 
Slope = , 26.54 , g/V 
Offset Voltage at no contact = , -0.501760 , V 

No , Time , Stage Position ,   Mass , Force 
   ,  (s) ,      (mm)      ,   (g)  , (mN)  

1 ,0.0000 ,0.64943 ,5.16848 ,50.71308 
2 ,0.2154 ,0.64950 ,5.17874 ,50.81381 
3 ,0.5997 ,0.65062 ,5.18901 ,50.91455 
4 ,0.8398 ,0.65255 ,5.17532 ,50.78023 
5 ,1.0959 ,0.65498 ,5.16505 ,50.67950 
6 ,1.3041 ,0.65718 ,5.16848 ,50.71308 
7 ,1.4961 ,0.65909 ,5.19927 ,51.01528 
8 ,1.7203 ,0.66131 ,5.16848 ,50.71308 
9 ,1.9283 ,0.66346 ,5.17190 ,50.74666 
10 ,2.1363 ,0.66548 ,5.16505 ,50.67950 
11 ,2.3449 ,0.66756 ,5.13083 ,50.34372 
12 ,2.5367 ,0.66960 ,5.12741 ,50.31014 
13 ,2.7289 ,0.67142 ,5.11030 ,50.14225 
14 ,3.0008 ,0.67389 ,5.10003 ,50.04151 
15 ,3.1929 ,0.67607 ,5.05554 ,49.60499 
16 ,3.4009 ,0.67819 ,5.05897 ,49.63857 
17 ,3.6091 ,0.68021 ,5.01106 ,49.16848 
18 ,3.8013 ,0.68217 ,5.00763 ,49.13490 
19 ,3.9933 ,0.68415 ,4.97683 ,48.83269 
20 ,4.2013 ,0.68612 ,4.95972 ,48.66480 
21 ,4.4097 ,0.68830 ,4.93919 ,48.46333 
22 ,4.6332 ,0.69042 ,4.94603 ,48.53049 
23 ,4.8254 ,0.69241 ,4.90839 ,48.16113 
24 ,5.0500 ,0.69457 ,4.89470 ,48.02681 
25 ,5.2578 ,0.69667 ,4.88101 ,47.89250 
26 ,5.4818 ,0.69896 ,4.85021 ,47.59030 
27 ,5.7058 ,0.70116 ,4.82968 ,47.38883 
28 ,5.8981 ,0.70311 ,4.82626 ,47.35525 
29 ,6.1221 ,0.70534 ,4.78177 ,46.91873 
30 ,6.3302 ,0.70738 ,4.76466 ,46.75084 
31 ,6.5383 ,0.70948 ,4.75439 ,46.65010 
32 ,6.7305 ,0.71149 ,4.72359 ,46.34790 
33 ,6.9382 ,0.71353 ,4.72702 ,46.38148 
34 ,7.1307 ,0.71546 ,4.68595 ,45.97854 
35 ,7.3386 ,0.71751 ,4.68595 ,45.97854 
36 ,7.5624 ,0.71971 ,4.64831 ,45.60918 
37 ,7.7867 ,0.72187 ,4.64146 ,45.54202 
38 ,8.0110 ,0.72422 ,4.60382 ,45.17266 
39 ,8.2351 ,0.72642 ,4.59013 ,45.03835 
40 ,8.4272 ,0.72840 ,4.55933 ,44.73614 
41 ,8.6509 ,0.73059 ,4.54222 ,44.56825 
42 ,8.8594 ,0.73276 ,4.53195 ,44.46751 
43 ,9.0675 ,0.73486 ,4.49773 ,44.13173 
44 ,9.2751 ,0.73690 ,4.50800 ,44.23247 
45 ,9.4837 ,0.73895 ,4.46693 ,43.82953 
46 ,9.6918 ,0.74099 ,4.43955 ,43.56090 
47 ,9.9156 ,0.74328 ,4.43613 ,43.52732 
48 ,10.1236 ,0.74541 ,4.40533 ,43.22512 
49 ,10.3156 ,0.74729 ,4.37795 ,42.95649 
50 ,10.5082 ,0.74920 ,4.35742 ,42.75502 
51 ,10.7158 ,0.75128 ,4.35400 ,42.72144 
52 ,10.9241 ,0.75331 ,4.33004 ,42.48639 
53 ,11.1162 ,0.75533 ,4.31293 ,42.31850 
54 ,11.3404 ,0.75755 ,4.31293 ,42.31850 
55 ,11.5485 ,0.75961 ,4.26502 ,41.84841 
56 ,11.7566 ,0.76172 ,4.25818 ,41.78125 
57 ,11.9643 ,0.76370 ,4.24791 ,41.68051 
58 ,12.1728 ,0.76580 ,4.20685 ,41.27758 
59 ,12.3809 ,0.76796 ,4.21027 ,41.31115 
60 ,12.5889 ,0.76994 ,4.16236 ,40.84106 
61 ,12.7969 ,0.77205 ,4.14867 ,40.70674 
62 ,13.0211 ,0.77428 ,4.14183 ,40.63959 
63 ,13.2290 ,0.77643 ,4.09391 ,40.16949 
64 ,13.4532 ,0.77861 ,4.10076 ,40.23665 
65 ,13.6773 ,0.78075 ,4.09049 ,40.13591 
66 ,13.8854 ,0.78294 ,4.03916 ,39.63224 
67 ,14.0935 ,0.78507 ,4.02889 ,39.53150 
68 ,14.3014 ,0.78709 ,4.01863 ,39.43077 
69 ,14.5095 ,0.78919 ,3.98441 ,39.09499 
70 ,14.7020 ,0.79115 ,3.99467 ,39.19572 
71 ,14.8939 ,0.79306 ,3.94334 ,38.69205 
72 ,15.1021 ,0.79513 ,3.95703 ,38.82636 
73 ,15.2936 ,0.79714 ,3.90912 ,38.35626 
74 ,15.5179 ,0.79929 ,3.89885 ,38.25553 
75 ,15.7260 ,0.80141 ,3.88174 ,38.08764 
76 ,15.9503 ,0.80357 ,3.85779 ,37.85259 
77 ,16.1584 ,0.80572 ,3.84752 ,37.75185 
78 ,16.3665 ,0.80779 ,3.82356 ,37.51681 
79 ,16.5903 ,0.80999 ,3.79961 ,37.28176 
80 ,16.7986 ,0.81211 ,3.78934 ,37.18102 
81 ,17.0067 ,0.81413 ,3.76196 ,36.91240 
82 ,17.2148 ,0.81625 ,3.74485 ,36.74450 
83 ,17.4228 ,0.81829 ,3.73459 ,36.64377 
84 ,17.6308 ,0.82043 ,3.70037 ,36.30799 
85 ,17.8390 ,0.82254 ,3.68325 ,36.14010 
86 ,18.0468 ,0.82454 ,3.67983 ,36.10652 
87 ,18.2551 ,0.82667 ,3.63877 ,35.70358 
88 ,18.4632 ,0.82868 ,3.64903 ,35.80431 
89 ,18.6708 ,0.83076 ,3.61481 ,35.46853 
90 ,18.8473 ,0.83270 ,3.60454 ,35.36779 
91 ,19.0874 ,0.83482 ,3.56348 ,34.96485 
92 ,19.2952 ,0.83702 ,3.54295 ,34.76338 
93 ,19.5035 ,0.83909 ,3.55663 ,34.89770 
94 ,19.6952 ,0.84111 ,3.51557 ,34.49476 
95 ,19.9039 ,0.84311 ,3.51215 ,34.46118 
96 ,20.1119 ,0.84521 ,3.47450 ,34.09182 
97 ,20.3039 ,0.84715 ,3.46766 ,34.02466 
98 ,20.5117 ,0.84911 ,3.43001 ,33.65530 
99 ,20.7042 ,0.85115 ,3.43344 ,33.68888 
100 ,20.9280 ,0.85331 ,3.39921 ,33.35310 
101 ,21.1362 ,0.85548 ,3.37526 ,33.11805 
102 ,21.3444 ,0.85749 ,3.37526 ,33.11805 
103 ,21.5524 ,0.85965 ,3.34104 ,32.78227 
104 ,21.7446 ,0.86153 ,3.34788 ,32.84942 
105 ,21.9522 ,0.86365 ,3.29997 ,32.37933 
106 ,22.1286 ,0.86553 ,3.30339 ,32.41290 
107 ,22.3367 ,0.86741 ,3.27602 ,32.14428 
108 ,22.5288 ,0.86936 ,3.26917 ,32.07712 
109 ,22.7210 ,0.87130 ,3.23837 ,31.77492 
110 ,22.9289 ,0.87337 ,3.23837 ,31.77492 
111 ,23.1370 ,0.87544 ,3.22468 ,31.64060 
112 ,23.3612 ,0.87762 ,3.20073 ,31.40555 
113 ,23.5531 ,0.87959 ,3.16651 ,31.06977 
114 ,23.7615 ,0.88166 ,3.16993 ,31.10335 
115 ,23.9690 ,0.88370 ,3.13229 ,30.73399 
116 ,24.1933 ,0.88587 ,3.12544 ,30.66683 
117 ,24.3857 ,0.88791 ,3.11518 ,30.56610 
118 ,24.5777 ,0.88987 ,3.08780 ,30.29747 
119 ,24.7698 ,0.89176 ,3.07753 ,30.19674 
120 ,24.9778 ,0.89385 ,3.05015 ,29.92811 
121 ,25.1858 ,0.89595 ,3.03989 ,29.82737 
122 ,25.3940 ,0.89797 ,3.01593 ,29.59233 
123 ,25.6023 ,0.90010 ,3.01935 ,29.62590 
124 ,25.8105 ,0.90215 ,2.98171 ,29.25654 
125 ,26.0344 ,0.90438 ,2.95776 ,29.02150 
126 ,26.2422 ,0.90644 ,2.94749 ,28.92076 
127 ,26.4504 ,0.90851 ,2.90985 ,28.55140 
128 ,26.6586 ,0.91061 ,2.90985 ,28.55140 
129 ,26.8506 ,0.91255 ,2.88589 ,28.31635 
130 ,27.0266 ,0.91446 ,2.89273 ,28.38351 
131 ,27.2349 ,0.91644 ,2.85851 ,28.04772 
132 ,27.4265 ,0.91830 ,2.84482 ,27.91341 
133 ,27.6509 ,0.92043 ,2.81402 ,27.61121 
134 ,27.8591 ,0.92263 ,2.81402 ,27.61121 
135 ,28.0673 ,0.92478 ,2.81060 ,27.57763 
136 ,28.2754 ,0.92683 ,2.77296 ,27.20827 
137 ,28.4835 ,0.92891 ,2.76954 ,27.17469 
138 ,28.6913 ,0.93098 ,2.73531 ,26.83891 
139 ,28.8996 ,0.93305 ,2.73531 ,26.83891 
140 ,29.1077 ,0.93512 ,2.71820 ,26.67101 
141 ,29.3156 ,0.93714 ,2.67372 ,26.23450 
142 ,29.5078 ,0.93912 ,2.68056 ,26.30165 
143 ,29.6997 ,0.94109 ,2.65660 ,26.06661 
144 ,29.8918 ,0.94297 ,2.64634 ,25.96587 
145 ,30.1000 ,0.94505 ,2.62581 ,25.76440 
146 ,30.3081 ,0.94708 ,2.60527 ,25.56293 
147 ,30.5160 ,0.94920 ,2.58132 ,25.32788 
148 ,30.7080 ,0.95113 ,2.58132 ,25.32788 
149 ,30.9162 ,0.95327 ,2.55736 ,25.09283 
150 ,31.1245 ,0.95534 ,2.54710 ,24.99210 
151 ,31.3326 ,0.95738 ,2.51630 ,24.68989 
152 ,31.5246 ,0.95935 ,2.51972 ,24.72347 
153 ,31.7326 ,0.96133 ,2.47523 ,24.28696 
154 ,31.9248 ,0.96330 ,2.49234 ,24.45485 
155 ,32.1165 ,0.96521 ,2.45127 ,24.05191 
156 ,32.3094 ,0.96715 ,2.45127 ,24.05191 
157 ,32.5329 ,0.96933 ,2.40679 ,23.61539 
158 ,32.7250 ,0.97129 ,2.42390 ,23.78328 
159 ,32.9169 ,0.97324 ,2.38968 ,23.44750 
160 ,33.1254 ,0.97525 ,2.38625 ,23.41392 
161 ,33.3495 ,0.97748 ,2.35203 ,23.07814 
162 ,33.5574 ,0.97955 ,2.34519 ,23.01098 
163 ,33.7815 ,0.98182 ,2.34177 ,22.97740 
164 ,33.9735 ,0.98378 ,2.31097 ,22.67520 
165 ,34.1978 ,0.98601 ,2.28701 ,22.44015 
166 ,34.4059 ,0.98815 ,2.29043 ,22.47373 
167 ,34.5978 ,0.99013 ,2.25621 ,22.13794 
168 ,34.8060 ,0.99203 ,2.25621 ,22.13794 
169 ,34.9981 ,0.99398 ,2.22541 ,21.83574 
170 ,35.2058 ,0.99599 ,2.22199 ,21.80216 
171 ,35.4143 ,0.99813 ,2.18777 ,21.46638 
172 ,35.6704 ,1.00061 ,2.17408 ,21.33206 
173 ,35.8784 ,1.00275 ,2.16723 ,21.26491 
174 ,36.0864 ,1.00490 ,2.14328 ,21.02986 
175 ,36.2941 ,1.00695 ,2.11590 ,20.76123 
176 ,36.5029 ,1.00904 ,2.10564 ,20.66050 
177 ,36.7268 ,1.01125 ,2.10221 ,20.62692 
178 ,36.9189 ,1.01321 ,2.06457 ,20.25756 
179 ,37.1269 ,1.01528 ,2.06457 ,20.25756 
180 ,37.3349 ,1.01737 ,2.03719 ,19.98893 
181 ,37.5432 ,1.01946 ,2.04404 ,20.05609 
182 ,37.7513 ,1.02159 ,2.02008 ,19.82104 
183 ,37.9752 ,1.02370 ,1.98928 ,19.51884 
184 ,38.1675 ,1.02570 ,1.99270 ,19.55241 
185 ,38.3916 ,1.02791 ,1.95164 ,19.14948 
186 ,38.5835 ,1.02988 ,1.96190 ,19.25021 
187 ,38.7754 ,1.03182 ,1.93111 ,18.94801 
188 ,38.9835 ,1.03382 ,1.92426 ,18.88085 
189 ,39.1919 ,1.03590 ,1.90373 ,18.67938 
190 ,39.3837 ,1.03785 ,1.90031 ,18.64580 
191 ,39.5916 ,1.04000 ,1.86951 ,18.34360 
192 ,39.7841 ,1.04192 ,1.84897 ,18.14213 
193 ,39.9922 ,1.04390 ,1.83186 ,17.97423 
194 ,40.2164 ,1.04613 ,1.83528 ,18.00781 
195 ,40.4245 ,1.04826 ,1.82844 ,17.94066 
196 ,40.6326 ,1.05031 ,1.78053 ,17.47056 
197 ,40.8727 ,1.05260 ,1.77369 ,17.40340 
198 ,41.0646 ,1.05479 ,1.77369 ,17.40340 
199 ,41.2727 ,1.05668 ,1.74289 ,17.10120 
200 ,41.4649 ,1.05867 ,1.73946 ,17.06762 
201 ,41.6729 ,1.06069 ,1.71209 ,16.79899 
202 ,41.8650 ,1.06270 ,1.70866 ,16.76542 
203 ,42.0730 ,1.06469 ,1.67444 ,16.42963 
204 ,42.2656 ,1.06668 ,1.68813 ,16.56395 
205 ,42.4893 ,1.06884 ,1.65391 ,16.22816 
206 ,42.6812 ,1.07084 ,1.65733 ,16.26174 
207 ,42.9051 ,1.07299 ,1.65049 ,16.19458 
208 ,43.1136 ,1.07515 ,1.61284 ,15.82522 
209 ,43.3377 ,1.07735 ,1.60600 ,15.75807 
210 ,43.5455 ,1.07945 ,1.58889 ,15.59018 
211 ,43.7539 ,1.08155 ,1.56151 ,15.32155 
212 ,43.9619 ,1.08363 ,1.56151 ,15.32155 
213 ,44.1698 ,1.08573 ,1.53413 ,15.05292 
214 ,44.3937 ,1.08792 ,1.51018 ,14.81787 
215 ,44.5859 ,1.08987 ,1.52387 ,14.95219 
216 ,44.8105 ,1.09194 ,1.49991 ,14.71714 
217 ,45.0344 ,1.09429 ,1.45542 ,14.28062 
218 ,45.2425 ,1.09640 ,1.47253 ,14.44851 
219 ,45.4661 ,1.09857 ,1.44858 ,14.21346 
220 ,45.6586 ,1.10059 ,1.43489 ,14.07915 
221 ,45.8986 ,1.10305 ,1.41778 ,13.91126 
222 ,46.1066 ,1.10505 ,1.41778 ,13.91126 
223 ,46.3146 ,1.10706 ,1.38356 ,13.57548 
224 ,46.5068 ,1.10905 ,1.38014 ,13.54190 
225 ,46.6989 ,1.11101 ,1.35618 ,13.30685 
226 ,46.8911 ,1.11289 ,1.34591 ,13.20612 
227 ,47.1151 ,1.11510 ,1.31512 ,12.90391 
228 ,47.3229 ,1.11719 ,1.31854 ,12.93749 
229 ,47.5311 ,1.11927 ,1.28774 ,12.63528 
230 ,47.7396 ,1.12136 ,1.29116 ,12.66886 
231 ,47.9476 ,1.12344 ,1.27063 ,12.46739 
232 ,48.1396 ,1.12545 ,1.26036 ,12.36666 
233 ,48.3317 ,1.12730 ,1.25009 ,12.26592 
234 ,48.5237 ,1.12924 ,1.23983 ,12.16519 
235 ,48.7157 ,1.13112 ,1.22614 ,12.03088 
236 ,48.9240 ,1.13315 ,1.20903 ,11.86298 
237 ,49.1319 ,1.13539 ,1.19534 ,11.72867 
238 ,49.3242 ,1.13724 ,1.19534 ,11.72867 
239 ,49.5319 ,1.13931 ,1.16796 ,11.46004 
240 ,49.7404 ,1.14134 ,1.15085 ,11.29215 
241 ,49.9644 ,1.14355 ,1.14401 ,11.22500 
242 ,50.1564 ,1.14555 ,1.13032 ,11.09068 
243 ,50.3486 ,1.14748 ,1.12005 ,10.98995 
244 ,50.5566 ,1.14952 ,1.08583 ,10.65416 
245 ,50.7966 ,1.15188 ,1.09610 ,10.75490 
246 ,51.0051 ,1.15403 ,1.08241 ,10.62059 
247 ,51.2130 ,1.15608 ,1.05503 ,10.35196 
248 ,51.4210 ,1.15822 ,1.04819 ,10.28480 
249 ,51.6292 ,1.16027 ,1.02765 ,10.08333 
250 ,51.8208 ,1.16231 ,1.01396 ,9.94902 
251 ,52.0133 ,1.16411 ,1.00028 ,9.81471 
252 ,52.2215 ,1.16616 ,0.99343 ,9.74755 
253 ,52.4295 ,1.16823 ,0.96948 ,9.51250 
254 ,52.6376 ,1.17032 ,0.97290 ,9.54608 
255 ,52.8452 ,1.17240 ,0.95579 ,9.37819 
256 ,53.0378 ,1.17435 ,0.94210 ,9.24388 
257 ,53.2459 ,1.17641 ,0.92841 ,9.10956 
258 ,53.4539 ,1.17852 ,0.90103 ,8.84094 
259 ,53.6779 ,1.18066 ,0.90446 ,8.87451 
260 ,53.8701 ,1.18265 ,0.88734 ,8.70662 
261 ,54.0941 ,1.18493 ,0.86339 ,8.47158 
262 ,54.3025 ,1.18699 ,0.86681 ,8.50515 
263 ,54.5262 ,1.18918 ,0.84286 ,8.27011 
264 ,54.7343 ,1.19126 ,0.82575 ,8.10221 
265 ,54.9426 ,1.19336 ,0.82575 ,8.10221 
266 ,55.1345 ,1.19543 ,0.80863 ,7.93432 
267 ,55.3266 ,1.19724 ,0.80521 ,7.90074 
268 ,55.5187 ,1.19913 ,0.78468 ,7.69927 
269 ,55.7268 ,1.20119 ,0.78810 ,7.73285 
270 ,55.9349 ,1.20330 ,0.75388 ,7.39707 
271 ,56.1427 ,1.20543 ,0.75388 ,7.39707 
272 ,56.3510 ,1.20740 ,0.74019 ,7.26276 
273 ,56.5912 ,1.20970 ,0.72308 ,7.09486 
274 ,56.7833 ,1.21188 ,0.71281 ,6.99413 
275 ,57.0230 ,1.21397 ,0.68886 ,6.75908 
276 ,57.2310 ,1.21621 ,0.67175 ,6.59119 
277 ,57.4553 ,1.21849 ,0.64779 ,6.35614 
278 ,57.7118 ,1.22104 ,0.63753 ,6.25541 
279 ,57.9356 ,1.22327 ,0.64095 ,6.28899 
280 ,58.1437 ,1.22535 ,0.63753 ,6.25541 
281 ,58.3355 ,1.22738 ,0.59988 ,5.88605 
282 ,58.5440 ,1.22933 ,0.60673 ,5.95320 
283 ,58.7522 ,1.23145 ,0.57593 ,5.65100 
284 ,58.9761 ,1.23363 ,0.57251 ,5.61742 
285 ,59.1680 ,1.23564 ,0.55882 ,5.48311 
286 ,59.3761 ,1.23761 ,0.55539 ,5.44953 
287 ,59.5841 ,1.23977 ,0.54171 ,5.31522 
288 ,59.7761 ,1.24168 ,0.52117 ,5.11375 
289 ,59.9683 ,1.24362 ,0.49722 ,4.87870 
290 ,60.1603 ,1.24560 ,0.52117 ,5.11375 
291 ,60.3686 ,1.24762 ,0.48695 ,4.77796 
292 ,60.5765 ,1.24971 ,0.50064 ,4.91228 
293 ,60.7690 ,1.25163 ,0.46642 ,4.57649 
294 ,60.9771 ,1.25369 ,0.46300 ,4.54291 
295 ,61.1851 ,1.25574 ,0.43562 ,4.27429 
296 ,61.3772 ,1.25768 ,0.43562 ,4.27429 
297 ,61.5694 ,1.25961 ,0.41851 ,4.10640 
298 ,61.8096 ,1.26191 ,0.41166 ,4.03924 
299 ,62.0337 ,1.26420 ,0.39797 ,3.90493 
300 ,62.2257 ,1.26618 ,0.38086 ,3.73703 
301 ,62.4337 ,1.26823 ,0.37402 ,3.66988 
302 ,62.6259 ,1.27020 ,0.36375 ,3.56914 
303 ,62.8338 ,1.27226 ,0.33638 ,3.30052 
304 ,63.0259 ,1.27418 ,0.34664 ,3.40125 
305 ,63.2340 ,1.27622 ,0.33295 ,3.26694 
306 ,63.4577 ,1.27847 ,0.33295 ,3.26694 
307 ,63.6502 ,1.28040 ,0.29189 ,2.86400 
308 ,63.8418 ,1.28231 ,0.29531 ,2.89758 
309 ,64.0503 ,1.28443 ,0.28162 ,2.76326 
310 ,64.2583 ,1.28648 ,0.27135 ,2.66253 
311 ,64.4505 ,1.28848 ,0.25082 ,2.46106 
312 ,64.6424 ,1.29039 ,0.25767 ,2.52822 
313 ,64.8663 ,1.29250 ,0.23371 ,2.29317 
314 ,65.0586 ,1.29451 ,0.23371 ,2.29317 
315 ,65.2669 ,1.29658 ,0.21660 ,2.12528 
316 ,65.4750 ,1.29867 ,0.21660 ,2.12528 
317 ,65.6992 ,1.30078 ,0.19264 ,1.89023 
318 ,65.9072 ,1.30297 ,0.16527 ,1.62160 
319 ,66.1309 ,1.30515 ,0.17211 ,1.68876 
320 ,66.3233 ,1.30715 ,0.16527 ,1.62160 
321 ,66.5154 ,1.30907 ,0.14816 ,1.45371 
322 ,66.7076 ,1.31098 ,0.13447 ,1.31940 
323 ,66.9155 ,1.31305 ,0.13789 ,1.35298 
324 ,67.1234 ,1.31509 ,0.09682 ,0.95004 
325 ,67.3476 ,1.31738 ,0.08998 ,0.88288 
326 ,67.5554 ,1.31948 ,0.08656 ,0.84930 
327 ,67.7479 ,1.32133 ,0.07629 ,0.74857 
328 ,67.9561 ,1.32339 ,0.07287 ,0.71499 
329 ,68.1641 ,1.32553 ,0.05234 ,0.51352 
330 ,68.3720 ,1.32764 ,0.04207 ,0.41278 
331 ,68.6121 ,1.32993 ,0.04207 ,0.41278 
332 ,68.8204 ,1.33212 ,0.03180 ,0.31205 
333 ,69.0285 ,1.33416 ,0.00443 ,0.04342 
334 ,69.2365 ,1.33626 ,0.01469 ,0.14416 
335 ,69.4445 ,1.33839 ,-0.02295 ,-0.22520 
336 ,69.6367 ,1.34025 ,0.00443 ,0.04342 
337 ,69.8445 ,1.34232 ,-0.03664 ,-0.35952 
338 ,70.0688 ,1.34460 ,-0.04006 ,-0.39310 
339 ,70.2770 ,1.34668 ,-0.04691 ,-0.46025 
340 ,70.4846 ,1.34865 ,-0.06744 ,-0.66172 
341 ,70.7091 ,1.35086 ,-0.07086 ,-0.69530 
342 ,70.9331 ,1.35317 ,-0.07428 ,-0.72888 
343 ,71.1252 ,1.35522 ,-0.09824 ,-0.96393 
344 ,71.3170 ,1.35706 ,-0.09824 ,-0.96393 
345 ,71.5095 ,1.35901 ,-0.12219 ,-1.19898 
346 ,71.7335 ,1.36123 ,-0.11877 ,-1.16540 
347 ,71.9415 ,1.36331 ,-0.12562 ,-1.23255 
348 ,72.1334 ,1.36521 ,-0.13588 ,-1.33329 
349 ,72.3577 ,1.36738 ,-0.16668 ,-1.63549 
350 ,72.5814 ,1.36969 ,-0.19064 ,-1.87054 
351 ,72.7898 ,1.37174 ,-0.17695 ,-1.73623 
352 ,72.9980 ,1.37383 ,-0.18722 ,-1.83696 
353 ,73.2218 ,1.37602 ,-0.20433 ,-2.00485 
354 ,73.4301 ,1.37815 ,-0.21459 ,-2.10559 
355 ,73.6223 ,1.38012 ,-0.22828 ,-2.23990 
356 ,73.8303 ,1.38220 ,-0.23170 ,-2.27348 
357 ,74.0384 ,1.38427 ,-0.23855 ,-2.34064 
358 ,74.2625 ,1.38638 ,-0.26593 ,-2.60926 
359 ,74.4706 ,1.38857 ,-0.24881 ,-2.44137 
360 ,74.6786 ,1.39058 ,-0.27277 ,-2.67642 
361 ,74.8704 ,1.39259 ,-0.28304 ,-2.77716 
362 ,75.0787 ,1.39462 ,-0.30015 ,-2.94505 
363 ,75.2867 ,1.39675 ,-0.31384 ,-3.07936 
364 ,75.4790 ,1.39869 ,-0.30699 ,-3.01220 
365 ,75.7033 ,1.40086 ,-0.32410 ,-3.18010 
366 ,75.9114 ,1.40296 ,-0.31726 ,-3.11294 
367 ,76.1350 ,1.40519 ,-0.34806 ,-3.41514 
368 ,76.3435 ,1.40731 ,-0.35490 ,-3.48230 
369 ,76.5516 ,1.40933 ,-0.35148 ,-3.44872 
370 ,76.7597 ,1.41144 ,-0.38228 ,-3.75093 
371 ,76.9677 ,1.41355 ,-0.38570 ,-3.78450 
372 ,77.1756 ,1.41562 ,-0.38228 ,-3.75093 
373 ,77.3839 ,1.41771 ,-0.40623 ,-3.98597 
374 ,77.6080 ,1.41995 ,-0.41992 ,-4.12029 
375 ,77.8161 ,1.42204 ,-0.41650 ,-4.08671 
376 ,78.0242 ,1.42403 ,-0.44046 ,-4.32176 
377 ,78.2322 ,1.42629 ,-0.44046 ,-4.32176 
378 ,78.4243 ,1.42810 ,-0.46783 ,-4.59038 
379 ,78.6323 ,1.43014 ,-0.45414 ,-4.45607 
380 ,78.8245 ,1.43211 ,-0.47810 ,-4.69112 
381 ,79.0326 ,1.43413 ,-0.47126 ,-4.62396 
382 ,79.2402 ,1.43622 ,-0.50206 ,-4.92617 
383 ,79.4486 ,1.43835 ,-0.50548 ,-4.95975 
384 ,79.6885 ,1.44060 ,-0.50206 ,-4.92617 
385 ,79.8804 ,1.44266 ,-0.52943 ,-5.19479 
386 ,80.0729 ,1.44457 ,-0.52943 ,-5.19479 
387 ,80.2808 ,1.44664 ,-0.54997 ,-5.39626 
388 ,80.4891 ,1.44871 ,-0.53285 ,-5.22837 
389 ,80.7133 ,1.45097 ,-0.55339 ,-5.42984 
390 ,80.9213 ,1.45305 ,-0.57734 ,-5.66489 
391 ,81.1133 ,1.45506 ,-0.57050 ,-5.59773 
392 ,81.3054 ,1.45690 ,-0.58761 ,-5.76562 
393 ,81.4975 ,1.45882 ,-0.59445 ,-5.83278 
394 ,81.6896 ,1.46075 ,-0.59445 ,-5.83278 
395 ,81.8975 ,1.46276 ,-0.61841 ,-6.06783 
396 ,82.0898 ,1.46476 ,-0.60814 ,-5.96709 
397 ,82.3141 ,1.46683 ,-0.64236 ,-6.30288 
398 ,82.5215 ,1.46901 ,-0.63894 ,-6.26930 
399 ,82.7297 ,1.47110 ,-0.63894 ,-6.26930 
400 ,82.9380 ,1.47318 ,-0.66290 ,-6.50435 
401 ,83.1459 ,1.47524 ,-0.66290 ,-6.50435 
402 ,83.3542 ,1.47733 ,-0.68001 ,-6.67224 
403 ,83.5782 ,1.47961 ,-0.68343 ,-6.70582 
404 ,83.7862 ,1.48172 ,-0.68685 ,-6.73940 
405 ,83.9946 ,1.48386 ,-0.69027 ,-6.77297 
406 ,84.1865 ,1.48570 ,-0.70739 ,-6.94086 
407 ,84.4108 ,1.48790 ,-0.70396 ,-6.90729 
408 ,84.6189 ,1.48996 ,-0.73476 ,-7.20949 
409 ,84.8428 ,1.49226 ,-0.74845 ,-7.34380 
410 ,85.0669 ,1.49446 ,-0.75187 ,-7.37738 
411 ,85.2750 ,1.49650 ,-0.76214 ,-7.47812 
412 ,85.4671 ,1.49853 ,-0.77241 ,-7.57885 
413 ,85.6910 ,1.50071 ,-0.76898 ,-7.54527 
414 ,85.8993 ,1.50280 ,-0.78610 ,-7.71317 
415 ,86.0910 ,1.50474 ,-0.78267 ,-7.67959 
416 ,86.2835 ,1.50669 ,-0.82032 ,-8.04895 
417 ,86.4915 ,1.50872 ,-0.79636 ,-7.81390 
418 ,86.6837 ,1.51068 ,-0.82374 ,-8.08253 
419 ,86.8913 ,1.51280 ,-0.83058 ,-8.14968 
420 ,87.0996 ,1.51485 ,-0.84085 ,-8.25042 
421 ,87.3080 ,1.51692 ,-0.84085 ,-8.25042 
422 ,87.5159 ,1.51902 ,-0.85454 ,-8.38473 
423 ,87.7239 ,1.52108 ,-0.86823 ,-8.51904 
424 ,87.9161 ,1.52300 ,-0.86823 ,-8.51904 
425 ,88.1242 ,1.52503 ,-0.87849 ,-8.61978 
426 ,88.3323 ,1.52714 ,-0.87507 ,-8.58620 
427 ,88.5404 ,1.52922 ,-0.90587 ,-8.88841 
428 ,88.7483 ,1.53129 ,-0.90245 ,-8.85483 
429 ,88.9726 ,1.53354 ,-0.90587 ,-8.88841 
430 ,89.1804 ,1.53570 ,-0.94009 ,-9.22419 
431 ,89.3728 ,1.53759 ,-0.91614 ,-8.98914 
432 ,89.5645 ,1.53954 ,-0.94694 ,-9.29135 
433 ,89.7409 ,1.54135 ,-0.94351 ,-9.25777 
434 ,89.9326 ,1.54330 ,-0.95378 ,-9.35850 
435 ,90.1408 ,1.54526 ,-0.98800 ,-9.69429 
436 ,90.3493 ,1.54730 ,-0.96063 ,-9.42566 
437 ,90.5571 ,1.54938 ,-0.99143 ,-9.72786 
438 ,90.7652 ,1.55141 ,-0.99485 ,-9.76144 
439 ,90.9571 ,1.55342 ,-1.00169 ,-9.82860 
440 ,91.1816 ,1.55559 ,-1.01538 ,-9.96291 
441 ,91.3896 ,1.55773 ,-1.00511 ,-9.86218 
442 ,91.5976 ,1.55972 ,-1.02907 ,-10.09723 
443 ,91.7897 ,1.56173 ,-1.02565 ,-10.06365 
444 ,92.0141 ,1.56393 ,-1.02565 ,-10.06365 
445 ,92.2218 ,1.56611 ,-1.06329 ,-10.43301 
446 ,92.4136 ,1.56802 ,-1.03934 ,-10.19796 
447 ,92.6218 ,1.56999 ,-1.07698 ,-10.56732 
448 ,92.8301 ,1.57209 ,-1.06329 ,-10.43301 
449 ,93.0380 ,1.57413 ,-1.08725 ,-10.66806 
450 ,93.2623 ,1.57639 ,-1.10436 ,-10.83595 
451 ,93.4702 ,1.57846 ,-1.09067 ,-10.70163 
452 ,93.7106 ,1.58079 ,-1.09409 ,-10.73521 
453 ,93.9344 ,1.58311 ,-1.12489 ,-11.03742 
454 ,94.1426 ,1.58524 ,-1.13858 ,-11.17173 
455 ,94.3508 ,1.58723 ,-1.12147 ,-11.00384 
456 ,94.5587 ,1.58932 ,-1.14884 ,-11.27247 
457 ,94.7830 ,1.59161 ,-1.14884 ,-11.27247 
458 ,95.0070 ,1.59379 ,-1.14884 ,-11.27247 
459 ,95.2152 ,1.59591 ,-1.16596 ,-11.44036 
460 ,95.4232 ,1.59801 ,-1.18991 ,-11.67541 
461 ,95.6313 ,1.60013 ,-1.17622 ,-11.54109 
