Data stamp = , 05-05-2022 09:36:57 845

Calibration Values: 
Slope = , 26.54 , g/V 
Offset Voltage at no contact = , -0.501760 , V 

No , Time , Stage Position ,   Mass , Force 
   ,  (s) ,      (mm)      ,   (g)  , (mN)  

1 ,0.0000 ,0.64957 ,5.19243 ,50.94813 
2 ,0.2256 ,0.64968 ,5.21981 ,51.21675 
3 ,0.5938 ,0.65083 ,5.21981 ,51.21675 
4 ,0.8345 ,0.65266 ,5.21296 ,51.14960 
5 ,1.0744 ,0.65491 ,5.21639 ,51.18317 
6 ,1.2824 ,0.65708 ,5.21639 ,51.18317 
7 ,1.4744 ,0.65906 ,5.21296 ,51.14960 
8 ,1.6825 ,0.66118 ,5.19927 ,51.01528 
9 ,1.9385 ,0.66368 ,5.16505 ,50.67950 
10 ,2.1624 ,0.66587 ,5.16505 ,50.67950 
11 ,2.3705 ,0.66797 ,5.13768 ,50.41087 
12 ,2.5627 ,0.66999 ,5.12399 ,50.27656 
13 ,2.7549 ,0.67188 ,5.07608 ,49.80646 
14 ,2.9789 ,0.67411 ,5.07608 ,49.80646 
15 ,3.2034 ,0.67632 ,5.05554 ,49.60499 
16 ,3.4114 ,0.67842 ,5.03159 ,49.36995 
17 ,3.6197 ,0.68055 ,4.99394 ,49.00058 
18 ,3.8277 ,0.68259 ,5.00079 ,49.06774 
19 ,4.0356 ,0.68466 ,4.95630 ,48.63122 
20 ,4.2437 ,0.68679 ,4.94603 ,48.53049 
21 ,4.4358 ,0.68870 ,4.92550 ,48.32902 
22 ,4.6436 ,0.69072 ,4.90839 ,48.16113 
23 ,4.8355 ,0.69267 ,4.87075 ,47.79177 
24 ,5.0436 ,0.69469 ,4.87075 ,47.79177 
25 ,5.2521 ,0.69678 ,4.84337 ,47.52314 
26 ,5.4603 ,0.69890 ,4.82626 ,47.35525 
27 ,5.6679 ,0.70095 ,4.82968 ,47.38883 
28 ,5.8604 ,0.70296 ,4.76124 ,46.71726 
29 ,6.0843 ,0.70511 ,4.76124 ,46.71726 
30 ,6.2925 ,0.70719 ,4.74413 ,46.54937 
31 ,6.5005 ,0.70929 ,4.73728 ,46.48221 
32 ,6.6926 ,0.71126 ,4.70990 ,46.21359 
33 ,6.8846 ,0.71314 ,4.69279 ,46.04569 
34 ,7.1089 ,0.71535 ,4.67226 ,45.84422 
35 ,7.3007 ,0.71739 ,4.63804 ,45.50844 
36 ,7.4930 ,0.71925 ,4.63462 ,45.47486 
37 ,7.7007 ,0.72134 ,4.59355 ,45.07192 
38 ,7.8930 ,0.72324 ,4.58328 ,44.97119 
39 ,8.1012 ,0.72529 ,4.55933 ,44.73614 
40 ,8.3090 ,0.72739 ,4.55249 ,44.66898 
41 ,8.5173 ,0.72946 ,4.53195 ,44.46751 
42 ,8.7095 ,0.73140 ,4.52853 ,44.43394 
43 ,8.9176 ,0.73344 ,4.47720 ,43.93026 
44 ,9.1254 ,0.73566 ,4.46693 ,43.82953 
45 ,9.3177 ,0.73752 ,4.45324 ,43.69521 
46 ,9.5417 ,0.73968 ,4.43271 ,43.49374 
47 ,9.7498 ,0.74187 ,4.42586 ,43.42659 
48 ,9.9259 ,0.74367 ,4.39849 ,43.15796 
49 ,10.1181 ,0.74550 ,4.37453 ,42.92291 
50 ,10.3264 ,0.74755 ,4.36769 ,42.85576 
51 ,10.5498 ,0.74975 ,4.35400 ,42.72144 
52 ,10.7423 ,0.75176 ,4.31636 ,42.35208 
53 ,10.9502 ,0.75382 ,4.30609 ,42.25135 
54 ,11.1582 ,0.75582 ,4.27529 ,41.94914 
55 ,11.3826 ,0.75802 ,4.27529 ,41.94914 
56 ,11.6063 ,0.76030 ,4.25476 ,41.74767 
57 ,11.8148 ,0.76240 ,4.22396 ,41.44547 
58 ,12.0230 ,0.76450 ,4.20685 ,41.27758 
59 ,12.2148 ,0.76643 ,4.18631 ,41.07611 
60 ,12.4231 ,0.76853 ,4.15894 ,40.80748 
61 ,12.6313 ,0.77055 ,4.15209 ,40.74032 
62 ,12.8233 ,0.77258 ,4.11103 ,40.33738 
63 ,13.0313 ,0.77460 ,4.11787 ,40.40454 
64 ,13.2235 ,0.77656 ,4.07680 ,40.00160 
65 ,13.4315 ,0.77857 ,4.08365 ,40.06876 
66 ,13.6396 ,0.78067 ,4.03574 ,39.59866 
67 ,13.8473 ,0.78277 ,4.03232 ,39.56508 
68 ,14.0398 ,0.78466 ,4.00836 ,39.33003 
69 ,14.2477 ,0.78670 ,4.00494 ,39.29646 
70 ,14.4397 ,0.78867 ,3.96729 ,38.92709 
71 ,14.6317 ,0.79056 ,3.96045 ,38.85994 
72 ,14.8401 ,0.79271 ,3.93307 ,38.59131 
73 ,15.0480 ,0.79479 ,3.92623 ,38.52415 
74 ,15.2564 ,0.79685 ,3.89885 ,38.25553 
75 ,15.4644 ,0.79894 ,3.88516 ,38.12122 
76 ,15.6565 ,0.80087 ,3.87490 ,38.02048 
77 ,15.8645 ,0.80295 ,3.84410 ,37.71828 
78 ,16.0567 ,0.80489 ,3.83383 ,37.61754 
79 ,16.2487 ,0.80676 ,3.82014 ,37.48323 
80 ,16.4568 ,0.80877 ,3.79619 ,37.24818 
81 ,16.6649 ,0.81090 ,3.76881 ,36.97955 
82 ,16.8727 ,0.81298 ,3.76196 ,36.91240 
83 ,17.0807 ,0.81507 ,3.73459 ,36.64377 
84 ,17.3051 ,0.81730 ,3.71063 ,36.40872 
85 ,17.5133 ,0.81938 ,3.71405 ,36.44230 
86 ,17.7211 ,0.82145 ,3.65930 ,35.90505 
87 ,17.9295 ,0.82356 ,3.67299 ,36.03936 
88 ,18.1374 ,0.82559 ,3.63877 ,35.70358 
89 ,18.3616 ,0.82792 ,3.61139 ,35.43495 
90 ,18.5697 ,0.83003 ,3.59428 ,35.26706 
91 ,18.7777 ,0.83199 ,3.56690 ,34.99843 
92 ,18.9857 ,0.83409 ,3.55321 ,34.86412 
93 ,19.1939 ,0.83620 ,3.53268 ,34.66265 
94 ,19.4019 ,0.83826 ,3.52241 ,34.56192 
95 ,19.6099 ,0.84034 ,3.51215 ,34.46118 
96 ,19.8021 ,0.84231 ,3.48477 ,34.19255 
97 ,19.9941 ,0.84423 ,3.47792 ,34.12540 
98 ,20.1862 ,0.84614 ,3.45397 ,33.89035 
99 ,20.3780 ,0.84802 ,3.44028 ,33.75604 
100 ,20.5862 ,0.85012 ,3.40606 ,33.42025 
101 ,20.7942 ,0.85215 ,3.40264 ,33.38667 
102 ,21.0022 ,0.85423 ,3.37868 ,33.15163 
103 ,21.1943 ,0.85620 ,3.36842 ,33.05089 
104 ,21.4023 ,0.85822 ,3.33077 ,32.68153 
105 ,21.6103 ,0.86029 ,3.33077 ,32.68153 
106 ,21.8186 ,0.86241 ,3.29313 ,32.31217 
107 ,22.0267 ,0.86449 ,3.27259 ,32.11070 
108 ,22.2347 ,0.86672 ,3.27259 ,32.11070 
109 ,22.4429 ,0.86860 ,3.23495 ,31.74134 
110 ,22.6508 ,0.87069 ,3.23837 ,31.77492 
111 ,22.8590 ,0.87281 ,3.21442 ,31.53987 
112 ,23.0511 ,0.87484 ,3.19046 ,31.30482 
113 ,23.2272 ,0.87666 ,3.16309 ,31.03619 
114 ,23.4032 ,0.87841 ,3.15966 ,31.00262 
115 ,23.5953 ,0.88022 ,3.15624 ,30.96904 
116 ,23.8033 ,0.88220 ,3.11860 ,30.59968 
117 ,23.9955 ,0.88418 ,3.12544 ,30.66683 
118 ,24.2036 ,0.88619 ,3.08780 ,30.29747 
119 ,24.3797 ,0.88818 ,3.07411 ,30.16316 
120 ,24.5717 ,0.88997 ,3.05700 ,29.99527 
121 ,24.7638 ,0.89188 ,3.04673 ,29.89453 
122 ,24.9719 ,0.89393 ,3.02962 ,29.72664 
123 ,25.1642 ,0.89587 ,3.00909 ,29.52517 
124 ,25.3565 ,0.89780 ,3.01251 ,29.55875 
125 ,25.5807 ,0.90001 ,2.98513 ,29.29012 
126 ,25.7725 ,0.90202 ,2.95091 ,28.95434 
127 ,25.9807 ,0.90399 ,2.95776 ,29.02150 
128 ,26.1886 ,0.90613 ,2.90985 ,28.55140 
129 ,26.3648 ,0.90801 ,2.91327 ,28.58498 
130 ,26.5568 ,0.90978 ,2.89958 ,28.45066 
131 ,26.7329 ,0.91170 ,2.86536 ,28.11488 
132 ,26.9248 ,0.91346 ,2.85167 ,27.98057 
133 ,27.1171 ,0.91540 ,2.85851 ,28.04772 
134 ,27.3252 ,0.91749 ,2.82087 ,27.67836 
135 ,27.5172 ,0.91947 ,2.81402 ,27.61121 
136 ,27.6930 ,0.92128 ,2.79007 ,27.37616 
137 ,27.8854 ,0.92306 ,2.79349 ,27.40974 
138 ,28.0931 ,0.92526 ,2.75243 ,27.00680 
139 ,28.3017 ,0.92720 ,2.75585 ,27.04038 
140 ,28.5095 ,0.92935 ,2.72505 ,26.73817 
141 ,28.7179 ,0.93144 ,2.72505 ,26.73817 
142 ,28.9418 ,0.93362 ,2.69425 ,26.43597 
143 ,29.1497 ,0.93571 ,2.67372 ,26.23450 
144 ,29.3581 ,0.93776 ,2.66003 ,26.10018 
145 ,29.5341 ,0.93973 ,2.63607 ,25.86514 
146 ,29.7099 ,0.94145 ,2.63265 ,25.83156 
147 ,29.9023 ,0.94321 ,2.62238 ,25.73082 
148 ,30.0939 ,0.94514 ,2.58816 ,25.39504 
149 ,30.2700 ,0.94706 ,2.58132 ,25.32788 
150 ,30.4784 ,0.94896 ,2.56421 ,25.15999 
151 ,30.7025 ,0.95122 ,2.55736 ,25.09283 
152 ,30.8943 ,0.95317 ,2.53341 ,24.85779 
153 ,31.0865 ,0.95512 ,2.50945 ,24.62274 
154 ,31.2788 ,0.95703 ,2.50603 ,24.58916 
155 ,31.5029 ,0.95920 ,2.48207 ,24.35411 
156 ,31.6947 ,0.96120 ,2.46839 ,24.21980 
157 ,31.8868 ,0.96311 ,2.45470 ,24.08549 
158 ,32.0794 ,0.96499 ,2.43416 ,23.88402 
159 ,32.3034 ,0.96718 ,2.42732 ,23.81686 
160 ,32.4950 ,0.96925 ,2.39652 ,23.51465 
161 ,32.7033 ,0.97120 ,2.37941 ,23.34676 
162 ,32.9117 ,0.97328 ,2.36230 ,23.17887 
163 ,33.1517 ,0.97576 ,2.33834 ,22.94382 
164 ,33.3598 ,0.97777 ,2.34177 ,22.97740 
165 ,33.5515 ,0.97981 ,2.30412 ,22.60804 
166 ,33.7600 ,0.98182 ,2.29728 ,22.54088 
167 ,33.9681 ,0.98389 ,2.28701 ,22.44015 
168 ,34.1761 ,0.98596 ,2.25963 ,22.17152 
169 ,34.3837 ,0.98800 ,2.25621 ,22.13794 
170 ,34.5919 ,0.99013 ,2.23226 ,21.90290 
171 ,34.7999 ,0.99220 ,2.21857 ,21.76858 
172 ,34.9924 ,0.99417 ,2.19803 ,21.56711 
173 ,35.2006 ,0.99621 ,2.18435 ,21.43280 
174 ,35.4246 ,0.99843 ,2.17066 ,21.29849 
175 ,35.6328 ,1.00044 ,2.13986 ,20.99628 
176 ,35.8567 ,1.00271 ,2.13301 ,20.92912 
177 ,36.0648 ,1.00484 ,2.11932 ,20.79481 
178 ,36.2891 ,1.00695 ,2.09879 ,20.59334 
179 ,36.4812 ,1.00902 ,2.08852 ,20.49261 
180 ,36.7049 ,1.01121 ,2.07484 ,20.35829 
181 ,36.8969 ,1.01316 ,2.04061 ,20.02251 
182 ,37.1051 ,1.01517 ,2.03035 ,19.92178 
183 ,37.3136 ,1.01733 ,2.00982 ,19.72031 
184 ,37.5377 ,1.01950 ,1.98586 ,19.48526 
185 ,37.7455 ,1.02162 ,1.99613 ,19.58599 
186 ,37.9374 ,1.02354 ,1.95506 ,19.18305 
187 ,38.1458 ,1.02568 ,1.95164 ,19.14948 
188 ,38.3700 ,1.02787 ,1.92768 ,18.91443 
189 ,38.5620 ,1.02991 ,1.93453 ,18.98158 
190 ,38.7538 ,1.03175 ,1.89688 ,18.61222 
191 ,38.9620 ,1.03383 ,1.90373 ,18.67938 
192 ,39.1541 ,1.03584 ,1.87635 ,18.41075 
193 ,39.3461 ,1.03763 ,1.88319 ,18.47791 
194 ,39.5385 ,1.03956 ,1.84897 ,18.14213 
195 ,39.7626 ,1.04179 ,1.84897 ,18.14213 
196 ,39.9705 ,1.04389 ,1.82502 ,17.90708 
197 ,40.1624 ,1.04585 ,1.82160 ,17.87350 
198 ,40.3548 ,1.04781 ,1.78053 ,17.47056 
199 ,40.5468 ,1.04964 ,1.79080 ,17.57129 
200 ,40.7548 ,1.05166 ,1.75315 ,17.20193 
201 ,40.9631 ,1.05383 ,1.74973 ,17.16836 
202 ,41.1711 ,1.05590 ,1.73262 ,17.00046 
203 ,41.3634 ,1.05784 ,1.72235 ,16.89973 
204 ,41.5713 ,1.05992 ,1.70524 ,16.73184 
205 ,41.7953 ,1.06209 ,1.68129 ,16.49679 
206 ,42.0036 ,1.06421 ,1.68471 ,16.53037 
207 ,42.2116 ,1.06630 ,1.64364 ,16.12743 
208 ,42.4035 ,1.06824 ,1.65391 ,16.22816 
209 ,42.5957 ,1.07011 ,1.61627 ,15.85880 
210 ,42.8038 ,1.07213 ,1.62653 ,15.95954 
211 ,43.0119 ,1.07432 ,1.60600 ,15.75807 
212 ,43.2199 ,1.07635 ,1.59231 ,15.62375 
213 ,43.4277 ,1.07843 ,1.57520 ,15.45586 
214 ,43.6359 ,1.08050 ,1.54782 ,15.18724 
215 ,43.8762 ,1.08296 ,1.53413 ,15.05292 
216 ,44.0844 ,1.08502 ,1.52729 ,14.98577 
217 ,44.2924 ,1.08706 ,1.51018 ,14.81787 
218 ,44.5161 ,1.08929 ,1.47938 ,14.51567 
219 ,44.7244 ,1.09140 ,1.48280 ,14.54925 
220 ,44.9329 ,1.09353 ,1.46227 ,14.34778 
221 ,45.1566 ,1.09570 ,1.44174 ,14.14631 
222 ,45.3809 ,1.09793 ,1.43831 ,14.11273 
223 ,45.5889 ,1.09997 ,1.43147 ,14.04557 
224 ,45.7971 ,1.10209 ,1.39725 ,13.70979 
225 ,46.0211 ,1.10435 ,1.40067 ,13.74337 
226 ,46.2132 ,1.10627 ,1.37671 ,13.50832 
227 ,46.4052 ,1.10831 ,1.36303 ,13.37401 
228 ,46.6293 ,1.11041 ,1.36645 ,13.40759 
229 ,46.8214 ,1.11239 ,1.33565 ,13.10538 
230 ,47.0135 ,1.11430 ,1.32196 ,12.97107 
231 ,47.2216 ,1.11639 ,1.31169 ,12.87033 
232 ,47.4297 ,1.11844 ,1.29458 ,12.70244 
233 ,47.6539 ,1.12064 ,1.27063 ,12.46739 
234 ,47.8617 ,1.12277 ,1.27063 ,12.46739 
235 ,48.0540 ,1.12469 ,1.25009 ,12.26592 
236 ,48.2622 ,1.12679 ,1.24667 ,12.23235 
237 ,48.4541 ,1.12870 ,1.22956 ,12.06445 
238 ,48.6623 ,1.13076 ,1.20218 ,11.79583 
239 ,48.8859 ,1.13296 ,1.21245 ,11.89656 
240 ,49.0942 ,1.13506 ,1.17481 ,11.52720 
241 ,49.3026 ,1.13713 ,1.17138 ,11.49362 
242 ,49.5106 ,1.13933 ,1.16454 ,11.42647 
243 ,49.7187 ,1.14131 ,1.13374 ,11.12426 
244 ,49.9108 ,1.14323 ,1.13716 ,11.15784 
245 ,50.1027 ,1.14513 ,1.11321 ,10.92279 
246 ,50.3110 ,1.14732 ,1.10979 ,10.88921 
247 ,50.5190 ,1.14933 ,1.08583 ,10.65416 
248 ,50.7431 ,1.15154 ,1.09267 ,10.72132 
249 ,50.9511 ,1.15367 ,1.07556 ,10.55343 
250 ,51.1591 ,1.15568 ,1.03792 ,10.18407 
251 ,51.3514 ,1.15768 ,1.04134 ,10.21765 
252 ,51.5594 ,1.15970 ,1.01396 ,9.94902 
253 ,51.7516 ,1.16163 ,1.02765 ,10.08333 
254 ,51.9754 ,1.16383 ,0.98659 ,9.68039 
255 ,52.1672 ,1.16583 ,1.00028 ,9.81471 
256 ,52.3756 ,1.16785 ,0.97632 ,9.57966 
257 ,52.5837 ,1.16997 ,0.96948 ,9.51250 
258 ,52.7757 ,1.17189 ,0.94210 ,9.24388 
259 ,52.9680 ,1.17378 ,0.94552 ,9.27745 
260 ,53.1760 ,1.17584 ,0.91130 ,8.94167 
261 ,53.3841 ,1.17798 ,0.92157 ,9.04241 
262 ,53.6082 ,1.18020 ,0.91814 ,9.00883 
263 ,53.7999 ,1.18219 ,0.88392 ,8.67305 
264 ,54.0083 ,1.18421 ,0.88734 ,8.70662 
265 ,54.2004 ,1.18620 ,0.84970 ,8.33726 
266 ,54.3920 ,1.18813 ,0.85654 ,8.40442 
267 ,54.6166 ,1.19027 ,0.83601 ,8.20295 
268 ,54.8248 ,1.19240 ,0.83601 ,8.20295 
269 ,55.0330 ,1.19444 ,0.82232 ,8.06864 
270 ,55.2409 ,1.19664 ,0.79495 ,7.80001 
271 ,55.4329 ,1.19848 ,0.78468 ,7.69927 
272 ,55.6570 ,1.20069 ,0.77099 ,7.56496 
273 ,55.8652 ,1.20278 ,0.76072 ,7.46423 
274 ,56.0733 ,1.20484 ,0.76072 ,7.46423 
275 ,56.2813 ,1.20693 ,0.73677 ,7.22918 
276 ,56.4894 ,1.20894 ,0.73335 ,7.19560 
277 ,56.6975 ,1.21105 ,0.71624 ,7.02771 
278 ,56.9217 ,1.21328 ,0.69913 ,6.85982 
279 ,57.1300 ,1.21538 ,0.69913 ,6.85982 
280 ,57.3377 ,1.21742 ,0.65806 ,6.45688 
281 ,57.5456 ,1.21955 ,0.66148 ,6.49046 
282 ,57.7539 ,1.22164 ,0.65464 ,6.42330 
283 ,57.9459 ,1.22360 ,0.63068 ,6.18825 
284 ,58.1381 ,1.22554 ,0.61699 ,6.05394 
285 ,58.3462 ,1.22757 ,0.62384 ,6.12109 
286 ,58.5544 ,1.22967 ,0.60330 ,5.91962 
287 ,58.7619 ,1.23172 ,0.58962 ,5.78531 
288 ,58.9704 ,1.23379 ,0.59988 ,5.88605 
289 ,59.1785 ,1.23589 ,0.56224 ,5.51668 
290 ,59.3701 ,1.23789 ,0.55882 ,5.48311 
291 ,59.5621 ,1.23984 ,0.54513 ,5.34879 
292 ,59.7542 ,1.24175 ,0.54855 ,5.38237 
293 ,59.9627 ,1.24369 ,0.51433 ,5.04659 
294 ,60.1865 ,1.24595 ,0.51091 ,5.01301 
295 ,60.3790 ,1.24793 ,0.49380 ,4.84512 
296 ,60.5869 ,1.24999 ,0.49722 ,4.87870 
297 ,60.7950 ,1.25206 ,0.49722 ,4.87870 
298 ,61.0033 ,1.25408 ,0.45957 ,4.50934 
299 ,61.1954 ,1.25608 ,0.45615 ,4.47576 
300 ,61.4035 ,1.25813 ,0.43562 ,4.27429 
301 ,61.6273 ,1.26033 ,0.44588 ,4.37502 
302 ,61.8197 ,1.26232 ,0.41509 ,4.07282 
303 ,62.0433 ,1.26444 ,0.40482 ,3.97208 
304 ,62.2513 ,1.26656 ,0.41166 ,4.03924 
305 ,62.4595 ,1.26861 ,0.37402 ,3.66988 
306 ,62.6519 ,1.27070 ,0.38771 ,3.80419 
307 ,62.8600 ,1.27265 ,0.36033 ,3.53557 
308 ,63.0522 ,1.27462 ,0.36033 ,3.53557 
309 ,63.2920 ,1.27688 ,0.33638 ,3.30052 
310 ,63.5004 ,1.27912 ,0.31926 ,3.13263 
311 ,63.7084 ,1.28112 ,0.32953 ,3.23336 
312 ,63.9164 ,1.28323 ,0.31584 ,3.09905 
313 ,64.1243 ,1.28535 ,0.29189 ,2.86400 
314 ,64.3162 ,1.28726 ,0.29531 ,2.89758 
315 ,64.4927 ,1.28914 ,0.28504 ,2.79684 
316 ,64.7008 ,1.29107 ,0.25082 ,2.46106 
317 ,64.9086 ,1.29310 ,0.26451 ,2.59537 
318 ,65.1012 ,1.29508 ,0.22687 ,2.22601 
319 ,65.3086 ,1.29712 ,0.24055 ,2.36032 
320 ,65.5010 ,1.29919 ,0.21660 ,2.12528 
321 ,65.7412 ,1.30129 ,0.21318 ,2.09170 
322 ,65.9651 ,1.30371 ,0.19264 ,1.89023 
323 ,66.1574 ,1.30565 ,0.19607 ,1.92381 
324 ,66.3810 ,1.30787 ,0.15500 ,1.52087 
325 ,66.5895 ,1.30995 ,0.16527 ,1.62160 
326 ,66.8135 ,1.31218 ,0.14816 ,1.45371 
327 ,67.0057 ,1.31410 ,0.12762 ,1.25224 
328 ,67.2299 ,1.31633 ,0.13447 ,1.31940 
329 ,67.4537 ,1.31856 ,0.11736 ,1.15151 
330 ,67.6621 ,1.32066 ,0.09340 ,0.91646 
331 ,67.8701 ,1.32275 ,0.10025 ,0.98361 
332 ,68.0781 ,1.32479 ,0.06945 ,0.68141 
333 ,68.2863 ,1.32697 ,0.06945 ,0.68141 
334 ,68.4942 ,1.32897 ,0.07971 ,0.78214 
335 ,68.6861 ,1.33094 ,0.04549 ,0.44636 
336 ,68.8783 ,1.33288 ,0.05234 ,0.51352 
337 ,69.0864 ,1.33489 ,0.03180 ,0.31205 
338 ,69.2946 ,1.33697 ,0.03522 ,0.34563 
339 ,69.5027 ,1.33909 ,0.01469 ,0.14416 
340 ,69.6945 ,1.34098 ,-0.00242 ,-0.02373 
341 ,69.9030 ,1.34306 ,-0.00584 ,-0.05731 
342 ,70.1110 ,1.34519 ,-0.02637 ,-0.25878 
343 ,70.3031 ,1.34710 ,-0.03664 ,-0.35952 
344 ,70.4951 ,1.34903 ,-0.04006 ,-0.39310 
345 ,70.7033 ,1.35102 ,-0.07771 ,-0.76246 
346 ,70.8951 ,1.35301 ,-0.05717 ,-0.56099 
347 ,71.1035 ,1.35510 ,-0.07771 ,-0.76246 
348 ,71.3116 ,1.35713 ,-0.09140 ,-0.89677 
349 ,71.5355 ,1.35938 ,-0.08455 ,-0.82961 
350 ,71.7278 ,1.36131 ,-0.11535 ,-1.13182 
351 ,71.9356 ,1.36332 ,-0.10508 ,-1.03108 
352 ,72.1278 ,1.36534 ,-0.13931 ,-1.36687 
353 ,72.3359 ,1.36735 ,-0.12219 ,-1.19898 
354 ,72.5438 ,1.36951 ,-0.15642 ,-1.53476 
355 ,72.7360 ,1.37140 ,-0.15642 ,-1.53476 
356 ,72.9280 ,1.37332 ,-0.18722 ,-1.83696 
357 ,73.1362 ,1.37544 ,-0.17695 ,-1.73623 
358 ,73.3605 ,1.37764 ,-0.18722 ,-1.83696 
359 ,73.5844 ,1.37981 ,-0.21117 ,-2.07201 
360 ,73.7766 ,1.38184 ,-0.19406 ,-1.90412 
361 ,73.9687 ,1.38375 ,-0.23513 ,-2.30706 
362 ,74.1926 ,1.38595 ,-0.21459 ,-2.10559 
363 ,74.4168 ,1.38815 ,-0.23855 ,-2.34064 
364 ,74.5928 ,1.39010 ,-0.25908 ,-2.54211 
365 ,74.7849 ,1.39191 ,-0.26593 ,-2.60926 
366 ,74.9772 ,1.39383 ,-0.25566 ,-2.50853 
367 ,75.1848 ,1.39584 ,-0.28304 ,-2.77716 
368 ,75.3933 ,1.39793 ,-0.27619 ,-2.71000 
369 ,75.6014 ,1.40007 ,-0.28646 ,-2.81073 
370 ,75.7935 ,1.40199 ,-0.31384 ,-3.07936 
371 ,76.0015 ,1.40402 ,-0.31041 ,-3.04578 
372 ,76.2097 ,1.40610 ,-0.33437 ,-3.28083 
373 ,76.4338 ,1.40828 ,-0.33437 ,-3.28083 
374 ,76.6418 ,1.41049 ,-0.34121 ,-3.34799 
375 ,76.8498 ,1.41250 ,-0.36859 ,-3.61661 
376 ,77.0576 ,1.41454 ,-0.35490 ,-3.48230 
377 ,77.2501 ,1.41653 ,-0.37886 ,-3.71735 
378 ,77.4580 ,1.41870 ,-0.38912 ,-3.81808 
379 ,77.6503 ,1.42050 ,-0.40623 ,-3.98597 
380 ,77.8584 ,1.42259 ,-0.39597 ,-3.88524 
381 ,78.0665 ,1.42464 ,-0.41992 ,-4.12029 
382 ,78.2744 ,1.42677 ,-0.43361 ,-4.25460 
383 ,78.4982 ,1.42897 ,-0.42677 ,-4.18744 
384 ,78.7067 ,1.43104 ,-0.45757 ,-4.48965 
385 ,78.9148 ,1.43319 ,-0.45072 ,-4.42249 
386 ,79.1227 ,1.43524 ,-0.46441 ,-4.55681 
387 ,79.3469 ,1.43746 ,-0.47126 ,-4.62396 
388 ,79.5548 ,1.43953 ,-0.47126 ,-4.62396 
389 ,79.7789 ,1.44176 ,-0.48494 ,-4.75828 
390 ,79.9871 ,1.44381 ,-0.51917 ,-5.09406 
391 ,80.1948 ,1.44592 ,-0.49863 ,-4.89259 
392 ,80.4034 ,1.44804 ,-0.53970 ,-5.29553 
393 ,80.6113 ,1.45009 ,-0.53970 ,-5.29553 
394 ,80.8192 ,1.45224 ,-0.52943 ,-5.19479 
395 ,81.0276 ,1.45425 ,-0.55339 ,-5.42984 
396 ,81.2518 ,1.45648 ,-0.57734 ,-5.66489 
397 ,81.4599 ,1.45855 ,-0.56708 ,-5.56415 
398 ,81.6838 ,1.46079 ,-0.57734 ,-5.66489 
399 ,81.8759 ,1.46277 ,-0.59445 ,-5.83278 
400 ,82.0841 ,1.46487 ,-0.59788 ,-5.86636 
401 ,82.2920 ,1.46696 ,-0.62183 ,-6.10141 
402 ,82.5003 ,1.46900 ,-0.61841 ,-6.06783 
403 ,82.7083 ,1.47111 ,-0.63552 ,-6.23572 
404 ,82.8999 ,1.47308 ,-0.63210 ,-6.20214 
405 ,83.1086 ,1.47503 ,-0.65263 ,-6.40361 
406 ,83.3163 ,1.47712 ,-0.64236 ,-6.30288 
407 ,83.5088 ,1.47908 ,-0.66974 ,-6.57150 
408 ,83.7326 ,1.48127 ,-0.67316 ,-6.60508 
409 ,83.9251 ,1.48325 ,-0.66974 ,-6.57150 
410 ,84.1490 ,1.48542 ,-0.70054 ,-6.87371 
411 ,84.3570 ,1.48760 ,-0.71765 ,-7.04160 
412 ,84.5491 ,1.48948 ,-0.72450 ,-7.10876 
413 ,84.7732 ,1.49169 ,-0.73134 ,-7.17591 
414 ,84.9654 ,1.49370 ,-0.72450 ,-7.10876 
415 ,85.1893 ,1.49586 ,-0.74161 ,-7.27665 
416 ,85.3974 ,1.49797 ,-0.75187 ,-7.37738 
417 ,85.5895 ,1.49991 ,-0.76214 ,-7.47812 
418 ,85.7817 ,1.50182 ,-0.76214 ,-7.47812 
419 ,85.9736 ,1.50383 ,-0.78610 ,-7.71317 
420 ,86.1814 ,1.50580 ,-0.76898 ,-7.54527 
421 ,86.4059 ,1.50791 ,-0.79978 ,-7.84748 
422 ,86.6141 ,1.51017 ,-0.80663 ,-7.91464 
423 ,86.8219 ,1.51220 ,-0.79294 ,-7.78032 
424 ,87.0142 ,1.51415 ,-0.83058 ,-8.14968 
425 ,87.2219 ,1.51619 ,-0.81005 ,-7.94821 
426 ,87.4305 ,1.51829 ,-0.83743 ,-8.21684 
427 ,87.6545 ,1.52048 ,-0.85454 ,-8.38473 
428 ,87.8784 ,1.52268 ,-0.84085 ,-8.25042 
429 ,88.0865 ,1.52488 ,-0.85796 ,-8.41831 
430 ,88.3107 ,1.52702 ,-0.88192 ,-8.65336 
431 ,88.5188 ,1.52917 ,-0.86823 ,-8.51904 
432 ,88.7426 ,1.53140 ,-0.89218 ,-8.75409 
433 ,88.9350 ,1.53335 ,-0.90587 ,-8.88841 
434 ,89.1429 ,1.53537 ,-0.88876 ,-8.72051 
435 ,89.3512 ,1.53749 ,-0.90587 ,-8.88841 
436 ,89.5428 ,1.53949 ,-0.93325 ,-9.15703 
437 ,89.7353 ,1.54137 ,-0.95036 ,-9.32492 
438 ,89.9433 ,1.54342 ,-0.92298 ,-9.05630 
439 ,90.1515 ,1.54553 ,-0.94351 ,-9.25777 
440 ,90.3756 ,1.54769 ,-0.96405 ,-9.45924 
441 ,90.5671 ,1.54972 ,-0.95720 ,-9.39208 
442 ,90.7597 ,1.55158 ,-0.98458 ,-9.66071 
443 ,90.9838 ,1.55375 ,-0.97089 ,-9.52639 
444 ,91.2079 ,1.55601 ,-0.99485 ,-9.76144 
445 ,91.4159 ,1.55807 ,-1.00854 ,-9.89576 
446 ,91.6237 ,1.56021 ,-0.99827 ,-9.79502 
447 ,91.8321 ,1.56230 ,-1.02565 ,-10.06365 
448 ,92.0562 ,1.56448 ,-1.03934 ,-10.19796 
449 ,92.2642 ,1.56660 ,-1.02565 ,-10.06365 
450 ,92.4405 ,1.56851 ,-1.05302 ,-10.33227 
451 ,92.6646 ,1.57062 ,-1.04276 ,-10.23154 
452 ,92.8725 ,1.57270 ,-1.07698 ,-10.56732 
453 ,93.0805 ,1.57479 ,-1.08040 ,-10.60090 
454 ,93.2726 ,1.57673 ,-1.07356 ,-10.53374 
455 ,93.4808 ,1.57874 ,-1.08040 ,-10.60090 
456 ,93.6887 ,1.58082 ,-1.08040 ,-10.60090 
457 ,93.8965 ,1.58292 ,-1.11462 ,-10.93668 
458 ,94.0890 ,1.58486 ,-1.09751 ,-10.76879 
459 ,94.2969 ,1.58697 ,-1.12489 ,-11.03742 
460 ,94.4892 ,1.58884 ,-1.09751 ,-10.76879 
461 ,94.6972 ,1.59091 ,-1.13858 ,-11.17173 
462 ,94.9048 ,1.59293 ,-1.12831 ,-11.07100 
