Data stamp = , 05-05-2022 20:54:19 126

Calibration Values: 
Slope = , 26.54 , g/V 
Offset Voltage at no contact = , -0.501760 , V 

No , Time , Stage Position ,   Mass , Force 
   ,  (s) ,      (mm)      ,   (g)  , (mN)  

1 ,0.0000 ,0.64949 ,5.21296 ,51.14960 
2 ,0.2068 ,0.64956 ,5.18559 ,50.88097 
3 ,0.6229 ,0.65080 ,5.20954 ,51.11602 
4 ,0.8630 ,0.65280 ,5.18559 ,50.88097 
5 ,1.0873 ,0.65511 ,5.19585 ,50.98170 
6 ,1.2955 ,0.65715 ,5.18901 ,50.91455 
7 ,1.5036 ,0.65922 ,5.19243 ,50.94813 
8 ,1.6957 ,0.66128 ,5.17190 ,50.74666 
9 ,1.8879 ,0.66313 ,5.15136 ,50.54519 
10 ,2.1119 ,0.66532 ,5.13768 ,50.41087 
11 ,2.3199 ,0.66740 ,5.13083 ,50.34372 
12 ,2.5122 ,0.66938 ,5.09319 ,49.97436 
13 ,2.7359 ,0.67153 ,5.08292 ,49.87362 
14 ,2.9283 ,0.67354 ,5.04528 ,49.50426 
15 ,3.1521 ,0.67572 ,5.03501 ,49.40352 
16 ,3.3603 ,0.67787 ,5.01106 ,49.16848 
17 ,3.5685 ,0.67992 ,4.97683 ,48.83269 
18 ,3.7763 ,0.68202 ,4.97341 ,48.79911 
19 ,3.9846 ,0.68409 ,4.94603 ,48.53049 
20 ,4.1762 ,0.68603 ,4.92892 ,48.36260 
21 ,4.4003 ,0.68826 ,4.90839 ,48.16113 
22 ,4.5923 ,0.69025 ,4.87075 ,47.79177 
23 ,4.8011 ,0.69230 ,4.89128 ,47.99324 
24 ,5.0250 ,0.69450 ,4.84679 ,47.55672 
25 ,5.2332 ,0.69652 ,4.81257 ,47.22093 
26 ,5.4572 ,0.69878 ,4.80230 ,47.12020 
27 ,5.6652 ,0.70085 ,4.79204 ,47.01946 
28 ,5.8573 ,0.70283 ,4.76808 ,46.78442 
29 ,6.0495 ,0.70471 ,4.74070 ,46.51579 
30 ,6.2577 ,0.70681 ,4.72359 ,46.34790 
31 ,6.4652 ,0.70890 ,4.69279 ,46.04569 
32 ,6.6576 ,0.71078 ,4.69964 ,46.11285 
33 ,6.8657 ,0.71289 ,4.65515 ,45.67633 
34 ,7.0740 ,0.71493 ,4.64831 ,45.60918 
35 ,7.2820 ,0.71703 ,4.62777 ,45.40771 
36 ,7.4737 ,0.71898 ,4.60040 ,45.13908 
37 ,7.6979 ,0.72110 ,4.57302 ,44.87045 
38 ,7.9223 ,0.72341 ,4.56617 ,44.80330 
39 ,8.1303 ,0.72569 ,4.52853 ,44.43394 
40 ,8.3066 ,0.72742 ,4.53195 ,44.46751 
41 ,8.5303 ,0.72946 ,4.49773 ,44.13173 
42 ,8.7386 ,0.73158 ,4.49431 ,44.09815 
43 ,8.9467 ,0.73372 ,4.44298 ,43.59448 
44 ,9.1546 ,0.73582 ,4.44298 ,43.59448 
45 ,9.3629 ,0.73784 ,4.43271 ,43.49374 
46 ,9.5871 ,0.74009 ,4.37795 ,42.95649 
47 ,9.8112 ,0.74227 ,4.37795 ,42.95649 
48 ,10.0032 ,0.74430 ,4.35400 ,42.72144 
49 ,10.1952 ,0.74618 ,4.35058 ,42.68786 
50 ,10.4034 ,0.74822 ,4.32662 ,42.45282 
51 ,10.6114 ,0.75029 ,4.32320 ,42.41924 
52 ,10.8032 ,0.75227 ,4.29582 ,42.15061 
53 ,11.0117 ,0.75434 ,4.26845 ,41.88198 
54 ,11.2195 ,0.75640 ,4.25133 ,41.71409 
55 ,11.4277 ,0.75847 ,4.22738 ,41.47905 
56 ,11.6358 ,0.76051 ,4.23422 ,41.54620 
57 ,11.8438 ,0.76259 ,4.18631 ,41.07611 
58 ,12.0519 ,0.76469 ,4.17947 ,41.00895 
59 ,12.2438 ,0.76666 ,4.14525 ,40.67317 
60 ,12.4522 ,0.76873 ,4.12814 ,40.50527 
61 ,12.6761 ,0.77090 ,4.11445 ,40.37096 
62 ,12.8844 ,0.77306 ,4.09391 ,40.16949 
63 ,13.0919 ,0.77514 ,4.06996 ,39.93444 
64 ,13.2845 ,0.77707 ,4.05285 ,39.76655 
65 ,13.4926 ,0.77911 ,4.04943 ,39.73297 
66 ,13.7007 ,0.78115 ,4.02205 ,39.46435 
67 ,13.9089 ,0.78328 ,3.99467 ,39.19572 
68 ,14.1165 ,0.78540 ,3.98783 ,39.12856 
69 ,14.3247 ,0.78744 ,3.96045 ,38.85994 
70 ,14.5489 ,0.78963 ,3.94334 ,38.69205 
71 ,14.7570 ,0.79170 ,3.93307 ,38.59131 
72 ,14.9490 ,0.79367 ,3.89543 ,38.22195 
73 ,15.1571 ,0.79578 ,3.90912 ,38.35626 
74 ,15.3489 ,0.79773 ,3.85779 ,37.85259 
75 ,15.5573 ,0.79972 ,3.85094 ,37.78543 
76 ,15.7654 ,0.80182 ,3.82356 ,37.51681 
77 ,15.9896 ,0.80405 ,3.80645 ,37.34891 
78 ,16.1978 ,0.80615 ,3.80303 ,37.31534 
79 ,16.4217 ,0.80835 ,3.77223 ,37.01313 
80 ,16.6141 ,0.81033 ,3.74828 ,36.77808 
81 ,16.8219 ,0.81241 ,3.73459 ,36.64377 
82 ,17.0144 ,0.81435 ,3.71748 ,36.47588 
83 ,17.2222 ,0.81649 ,3.70037 ,36.30799 
84 ,17.4299 ,0.81843 ,3.67983 ,36.10652 
85 ,17.6384 ,0.82055 ,3.65930 ,35.90505 
86 ,17.8625 ,0.82278 ,3.64903 ,35.80431 
87 ,18.0703 ,0.82487 ,3.62508 ,35.56926 
88 ,18.2785 ,0.82692 ,3.61139 ,35.43495 
89 ,18.4707 ,0.82893 ,3.57717 ,35.09917 
90 ,18.7109 ,0.83130 ,3.56348 ,34.96485 
91 ,18.9346 ,0.83350 ,3.55321 ,34.86412 
92 ,19.1430 ,0.83563 ,3.53610 ,34.69623 
93 ,19.3512 ,0.83770 ,3.50530 ,34.39402 
94 ,19.5591 ,0.83973 ,3.49846 ,34.32687 
95 ,19.7831 ,0.84199 ,3.46424 ,33.99108 
96 ,20.0071 ,0.84419 ,3.44370 ,33.78961 
97 ,20.2153 ,0.84630 ,3.44028 ,33.75604 
98 ,20.4077 ,0.84828 ,3.41975 ,33.55457 
99 ,20.6154 ,0.85028 ,3.39237 ,33.28594 
100 ,20.8232 ,0.85238 ,3.37184 ,33.08447 
101 ,21.0318 ,0.85446 ,3.35815 ,32.95016 
102 ,21.2237 ,0.85649 ,3.35130 ,32.88300 
103 ,21.4160 ,0.85844 ,3.31366 ,32.51364 
104 ,21.6082 ,0.86029 ,3.30682 ,32.44648 
105 ,21.8162 ,0.86228 ,3.29997 ,32.37933 
106 ,22.0239 ,0.86445 ,3.25891 ,31.97639 
107 ,22.2324 ,0.86649 ,3.25206 ,31.90923 
108 ,22.4404 ,0.86857 ,3.24522 ,31.84207 
109 ,22.6485 ,0.87064 ,3.20415 ,31.43913 
110 ,22.8564 ,0.87276 ,3.21100 ,31.50629 
111 ,23.0644 ,0.87475 ,3.17677 ,31.17051 
112 ,23.2567 ,0.87671 ,3.18020 ,31.20409 
113 ,23.4807 ,0.87894 ,3.14940 ,30.90188 
114 ,23.6729 ,0.88089 ,3.13913 ,30.80115 
115 ,23.8650 ,0.88293 ,3.13229 ,30.73399 
116 ,24.0568 ,0.88474 ,3.11175 ,30.53252 
117 ,24.2650 ,0.88686 ,3.08095 ,30.23031 
118 ,24.4733 ,0.88889 ,3.06042 ,30.02884 
119 ,24.6812 ,0.89099 ,3.05358 ,29.96169 
120 ,24.8734 ,0.89299 ,3.03304 ,29.76022 
121 ,25.0814 ,0.89494 ,3.02962 ,29.72664 
122 ,25.2734 ,0.89683 ,2.99540 ,29.39086 
123 ,25.4656 ,0.89882 ,2.98513 ,29.29012 
124 ,25.6737 ,0.90086 ,2.97144 ,29.15581 
125 ,25.8818 ,0.90294 ,2.95433 ,28.98792 
126 ,26.0900 ,0.90505 ,2.93038 ,28.75287 
127 ,26.3136 ,0.90721 ,2.93038 ,28.75287 
128 ,26.5218 ,0.90934 ,2.88589 ,28.31635 
129 ,26.7302 ,0.91142 ,2.87905 ,28.24919 
130 ,26.9381 ,0.91355 ,2.86878 ,28.14846 
131 ,27.1463 ,0.91561 ,2.82771 ,27.74552 
132 ,27.3702 ,0.91785 ,2.82771 ,27.74552 
133 ,27.5946 ,0.92005 ,2.81402 ,27.61121 
134 ,27.8024 ,0.92224 ,2.80034 ,27.47689 
135 ,28.0106 ,0.92422 ,2.77296 ,27.20827 
136 ,28.2187 ,0.92631 ,2.77296 ,27.20827 
137 ,28.4109 ,0.92827 ,2.73531 ,26.83891 
138 ,28.6189 ,0.93036 ,2.73189 ,26.80533 
139 ,28.8111 ,0.93224 ,2.71136 ,26.60386 
140 ,29.0191 ,0.93426 ,2.69767 ,26.46954 
141 ,29.2272 ,0.93636 ,2.66345 ,26.13376 
142 ,29.4195 ,0.93832 ,2.67372 ,26.23450 
143 ,29.6271 ,0.94039 ,2.63949 ,25.89871 
144 ,29.8354 ,0.94253 ,2.63607 ,25.86514 
145 ,30.0436 ,0.94463 ,2.59843 ,25.49577 
146 ,30.2673 ,0.94681 ,2.58816 ,25.39504 
147 ,30.4756 ,0.94881 ,2.58816 ,25.39504 
148 ,30.6838 ,0.95091 ,2.54710 ,24.99210 
149 ,30.9078 ,0.95320 ,2.53683 ,24.89136 
150 ,31.1161 ,0.95530 ,2.52998 ,24.82421 
151 ,31.3240 ,0.95732 ,2.49234 ,24.45485 
152 ,31.5321 ,0.95944 ,2.50261 ,24.55558 
153 ,31.7402 ,0.96155 ,2.48550 ,24.38769 
154 ,31.9322 ,0.96346 ,2.46839 ,24.21980 
155 ,32.1244 ,0.96538 ,2.44101 ,23.95117 
156 ,32.3322 ,0.96742 ,2.43416 ,23.88402 
157 ,32.5246 ,0.96938 ,2.39994 ,23.54823 
158 ,32.7323 ,0.97137 ,2.40336 ,23.58181 
159 ,32.9245 ,0.97337 ,2.38283 ,23.38034 
160 ,33.1330 ,0.97550 ,2.36230 ,23.17887 
161 ,33.3570 ,0.97771 ,2.35545 ,23.11171 
162 ,33.5650 ,0.97974 ,2.32465 ,22.80951 
163 ,33.7891 ,0.98200 ,2.30754 ,22.64162 
164 ,33.9813 ,0.98398 ,2.29728 ,22.54088 
165 ,34.1893 ,0.98614 ,2.26648 ,22.23868 
166 ,34.3975 ,0.98812 ,2.26990 ,22.27226 
167 ,34.6054 ,0.99021 ,2.24252 ,22.00363 
168 ,34.8140 ,0.99222 ,2.24594 ,22.03721 
169 ,35.0215 ,0.99429 ,2.20488 ,21.63427 
170 ,35.2133 ,0.99628 ,2.21515 ,21.73500 
171 ,35.4056 ,0.99815 ,2.18092 ,21.39922 
172 ,35.6142 ,1.00022 ,2.17750 ,21.36564 
173 ,35.8215 ,1.00232 ,2.15012 ,21.09702 
174 ,36.0141 ,1.00427 ,2.13644 ,20.96270 
175 ,36.2059 ,1.00618 ,2.11590 ,20.76123 
176 ,36.4301 ,1.00840 ,2.09879 ,20.59334 
177 ,36.6383 ,1.01054 ,2.08510 ,20.45903 
178 ,36.8305 ,1.01245 ,2.06799 ,20.29114 
179 ,37.0224 ,1.01443 ,2.06115 ,20.22398 
180 ,37.2306 ,1.01635 ,2.04746 ,20.08967 
181 ,37.4386 ,1.01850 ,2.02693 ,19.88820 
182 ,37.6468 ,1.02058 ,2.00297 ,19.65315 
183 ,37.8546 ,1.02262 ,2.00639 ,19.68673 
184 ,38.0789 ,1.02487 ,1.96533 ,19.28379 
185 ,38.2710 ,1.02686 ,1.95848 ,19.21663 
186 ,38.4625 ,1.02882 ,1.94479 ,19.08232 
187 ,38.6548 ,1.03068 ,1.94822 ,19.11590 
188 ,38.8792 ,1.03290 ,1.91742 ,18.81369 
189 ,39.0873 ,1.03492 ,1.89004 ,18.54507 
190 ,39.2950 ,1.03702 ,1.89688 ,18.61222 
191 ,39.5031 ,1.03916 ,1.86608 ,18.31002 
192 ,39.7117 ,1.04119 ,1.86266 ,18.27644 
193 ,39.9357 ,1.04341 ,1.84555 ,18.10855 
194 ,40.1438 ,1.04552 ,1.80449 ,17.70561 
195 ,40.3518 ,1.04765 ,1.81817 ,17.83992 
196 ,40.5600 ,1.04976 ,1.77711 ,17.43698 
197 ,40.8155 ,1.05208 ,1.77026 ,17.36983 
198 ,40.9915 ,1.05415 ,1.75657 ,17.23551 
199 ,41.1997 ,1.05606 ,1.73946 ,17.06762 
200 ,41.4082 ,1.05820 ,1.71209 ,16.79899 
201 ,41.6162 ,1.06028 ,1.70866 ,16.76542 
202 ,41.8243 ,1.06238 ,1.68471 ,16.53037 
203 ,42.0162 ,1.06435 ,1.68813 ,16.56395 
204 ,42.2085 ,1.06625 ,1.65391 ,16.22816 
205 ,42.4168 ,1.06827 ,1.66760 ,16.36248 
206 ,42.6246 ,1.07030 ,1.63338 ,16.02669 
207 ,42.8325 ,1.07254 ,1.62995 ,15.99311 
208 ,43.0411 ,1.07447 ,1.59231 ,15.62375 
209 ,43.2488 ,1.07655 ,1.59231 ,15.62375 
210 ,43.4570 ,1.07865 ,1.59573 ,15.65733 
211 ,43.6490 ,1.08060 ,1.55467 ,15.25439 
212 ,43.8572 ,1.08264 ,1.55124 ,15.22081 
213 ,44.0814 ,1.08474 ,1.53071 ,15.01934 
214 ,44.3053 ,1.08709 ,1.51702 ,14.88503 
215 ,44.5297 ,1.08935 ,1.51360 ,14.85145 
216 ,44.7215 ,1.09139 ,1.48622 ,14.58283 
217 ,44.9298 ,1.09336 ,1.47253 ,14.44851 
218 ,45.1378 ,1.09547 ,1.46227 ,14.34778 
219 ,45.3460 ,1.09747 ,1.44516 ,14.17989 
220 ,45.5701 ,1.09973 ,1.42462 ,13.97842 
221 ,45.7781 ,1.10180 ,1.41778 ,13.91126 
222 ,46.0022 ,1.10407 ,1.39383 ,13.67621 
223 ,46.1942 ,1.10605 ,1.38698 ,13.60906 
224 ,46.4023 ,1.10805 ,1.36645 ,13.40759 
225 ,46.6264 ,1.11028 ,1.36987 ,13.44116 
226 ,46.8345 ,1.11235 ,1.34249 ,13.17254 
227 ,47.0266 ,1.11435 ,1.32538 ,13.00465 
228 ,47.2344 ,1.11636 ,1.31854 ,12.93749 
229 ,47.4429 ,1.11844 ,1.29116 ,12.66886 
230 ,47.6510 ,1.12060 ,1.30143 ,12.76960 
231 ,47.8590 ,1.12260 ,1.26036 ,12.36666 
232 ,48.0671 ,1.12468 ,1.25352 ,12.29950 
233 ,48.2749 ,1.12675 ,1.24667 ,12.23235 
234 ,48.4993 ,1.12902 ,1.22956 ,12.06445 
235 ,48.7234 ,1.13122 ,1.20903 ,11.86298 
236 ,48.9311 ,1.13335 ,1.21929 ,11.96372 
237 ,49.1235 ,1.13530 ,1.18507 ,11.62794 
238 ,49.3311 ,1.13736 ,1.18507 ,11.62794 
239 ,49.5235 ,1.13933 ,1.14743 ,11.25857 
240 ,49.7157 ,1.14122 ,1.14743 ,11.25857 
241 ,49.9237 ,1.14332 ,1.13374 ,11.12426 
242 ,50.1318 ,1.14532 ,1.12347 ,11.02353 
243 ,50.3239 ,1.14732 ,1.10294 ,10.82206 
244 ,50.5315 ,1.14930 ,1.09952 ,10.78848 
245 ,50.7401 ,1.15143 ,1.06872 ,10.48627 
246 ,50.9321 ,1.15345 ,1.06872 ,10.48627 
247 ,51.1242 ,1.15539 ,1.04134 ,10.21765 
248 ,51.3163 ,1.15724 ,1.04819 ,10.28480 
249 ,51.5405 ,1.15944 ,1.01396 ,9.94902 
250 ,51.7646 ,1.16170 ,1.00712 ,9.88186 
251 ,51.9887 ,1.16389 ,0.99685 ,9.78113 
252 ,52.1967 ,1.16600 ,0.99001 ,9.71397 
253 ,52.4046 ,1.16809 ,0.97632 ,9.57966 
254 ,52.6130 ,1.17020 ,0.96948 ,9.51250 
255 ,52.8208 ,1.17225 ,0.92841 ,9.10956 
256 ,53.0289 ,1.17435 ,0.95237 ,9.34461 
257 ,53.2372 ,1.17641 ,0.91814 ,9.00883 
258 ,53.4292 ,1.17830 ,0.91130 ,8.94167 
259 ,53.6374 ,1.18034 ,0.87366 ,8.57231 
260 ,53.8451 ,1.18246 ,0.89077 ,8.74020 
261 ,54.0536 ,1.18451 ,0.85997 ,8.43800 
262 ,54.2616 ,1.18664 ,0.84970 ,8.33726 
263 ,54.4697 ,1.18872 ,0.85654 ,8.40442 
264 ,54.6936 ,1.19093 ,0.82575 ,8.10221 
265 ,54.9014 ,1.19304 ,0.80521 ,7.90074 
266 ,55.1099 ,1.19511 ,0.82232 ,8.06864 
267 ,55.3341 ,1.19735 ,0.78810 ,7.73285 
268 ,55.5422 ,1.19942 ,0.78126 ,7.66570 
269 ,55.7662 ,1.20164 ,0.76415 ,7.49780 
270 ,55.9740 ,1.20375 ,0.74704 ,7.32991 
271 ,56.1825 ,1.20587 ,0.72308 ,7.09486 
272 ,56.4065 ,1.20807 ,0.72650 ,7.12844 
273 ,56.6146 ,1.21014 ,0.70597 ,6.92697 
274 ,56.8385 ,1.21242 ,0.68886 ,6.75908 
275 ,57.0784 ,1.21465 ,0.66833 ,6.55761 
276 ,57.2868 ,1.21693 ,0.65806 ,6.45688 
277 ,57.5110 ,1.21907 ,0.65464 ,6.42330 
278 ,57.7347 ,1.22133 ,0.63753 ,6.25541 
279 ,57.9272 ,1.22331 ,0.62042 ,6.08752 
280 ,58.1512 ,1.22557 ,0.63068 ,6.18825 
281 ,58.3754 ,1.22782 ,0.60330 ,5.91962 
282 ,58.5993 ,1.23002 ,0.57251 ,5.61742 
283 ,58.8074 ,1.23213 ,0.56908 ,5.58384 
284 ,59.0315 ,1.23429 ,0.56908 ,5.58384 
285 ,59.2398 ,1.23633 ,0.54513 ,5.34879 
286 ,59.4639 ,1.23869 ,0.53486 ,5.24806 
287 ,59.6876 ,1.24086 ,0.52459 ,5.14732 
288 ,59.8960 ,1.24295 ,0.51775 ,5.08017 
289 ,60.1198 ,1.24515 ,0.48353 ,4.74438 
290 ,60.3281 ,1.24732 ,0.48353 ,4.74438 
291 ,60.5197 ,1.24921 ,0.46642 ,4.57649 
292 ,60.6961 ,1.25112 ,0.46642 ,4.57649 
293 ,60.9043 ,1.25306 ,0.43562 ,4.27429 
294 ,61.1123 ,1.25513 ,0.45615 ,4.47576 
295 ,61.3046 ,1.25711 ,0.42193 ,4.13997 
296 ,61.5122 ,1.25915 ,0.42877 ,4.20713 
297 ,61.7207 ,1.26116 ,0.39455 ,3.87135 
298 ,61.9128 ,1.26318 ,0.41166 ,4.03924 
299 ,62.1050 ,1.26511 ,0.37402 ,3.66988 
300 ,62.3132 ,1.26711 ,0.37060 ,3.63630 
301 ,62.5211 ,1.26920 ,0.34664 ,3.40125 
302 ,62.7446 ,1.27146 ,0.35349 ,3.46841 
303 ,62.9370 ,1.27339 ,0.33295 ,3.26694 
304 ,63.1612 ,1.27558 ,0.30558 ,2.99831 
305 ,63.3851 ,1.27782 ,0.31242 ,3.06547 
306 ,63.5774 ,1.27981 ,0.29189 ,2.86400 
307 ,63.7854 ,1.28188 ,0.27478 ,2.69611 
308 ,63.9932 ,1.28395 ,0.27820 ,2.72969 
309 ,64.1854 ,1.28589 ,0.24398 ,2.39390 
310 ,64.3938 ,1.28791 ,0.25424 ,2.49464 
311 ,64.6019 ,1.29001 ,0.23029 ,2.25959 
312 ,64.8095 ,1.29209 ,0.23713 ,2.32675 
313 ,65.0015 ,1.29411 ,0.20976 ,2.05812 
314 ,65.2100 ,1.29606 ,0.21660 ,2.12528 
315 ,65.4823 ,1.29884 ,0.18238 ,1.78949 
316 ,65.6904 ,1.30094 ,0.18580 ,1.82307 
317 ,65.8819 ,1.30289 ,0.15158 ,1.48729 
318 ,66.0904 ,1.30489 ,0.15500 ,1.52087 
319 ,66.2982 ,1.30703 ,0.13105 ,1.28582 
320 ,66.5066 ,1.30909 ,0.12762 ,1.25224 
321 ,66.7150 ,1.31109 ,0.09682 ,0.95004 
322 ,66.9227 ,1.31326 ,0.10025 ,0.98361 
323 ,67.1469 ,1.31544 ,0.10709 ,1.05077 
324 ,67.3549 ,1.31756 ,0.08314 ,0.81572 
325 ,67.5790 ,1.31963 ,0.06602 ,0.64783 
326 ,67.7871 ,1.32187 ,0.05918 ,0.58067 
327 ,67.9953 ,1.32397 ,0.04891 ,0.47994 
328 ,68.2032 ,1.32598 ,0.02838 ,0.27847 
329 ,68.4273 ,1.32821 ,0.02496 ,0.24489 
330 ,68.6351 ,1.33025 ,0.01469 ,0.14416 
331 ,68.8275 ,1.33228 ,-0.00584 ,-0.05731 
332 ,69.0516 ,1.33452 ,-0.00584 ,-0.05731 
333 ,69.2436 ,1.33645 ,-0.02980 ,-0.29236 
334 ,69.4357 ,1.33831 ,-0.02980 ,-0.29236 
335 ,69.6435 ,1.34043 ,-0.04691 ,-0.46025 
336 ,69.8359 ,1.34237 ,-0.05717 ,-0.56099 
337 ,70.0601 ,1.34458 ,-0.07428 ,-0.72888 
338 ,70.2678 ,1.34665 ,-0.07771 ,-0.76246 
339 ,70.4762 ,1.34873 ,-0.08455 ,-0.82961 
340 ,70.7003 ,1.35095 ,-0.10508 ,-1.03108 
341 ,70.9243 ,1.35319 ,-0.11193 ,-1.09824 
342 ,71.1325 ,1.35525 ,-0.10851 ,-1.06466 
343 ,71.3242 ,1.35723 ,-0.13588 ,-1.33329 
344 ,71.5328 ,1.35930 ,-0.13931 ,-1.36687 
345 ,71.7568 ,1.36149 ,-0.15299 ,-1.50118 
346 ,71.9649 ,1.36363 ,-0.16668 ,-1.63549 
347 ,72.1888 ,1.36586 ,-0.16326 ,-1.60191 
348 ,72.3970 ,1.36793 ,-0.18037 ,-1.76981 
349 ,72.6052 ,1.37002 ,-0.19064 ,-1.87054 
350 ,72.7970 ,1.37194 ,-0.20433 ,-2.00485 
351 ,73.0053 ,1.37401 ,-0.21459 ,-2.10559 
352 ,73.2135 ,1.37609 ,-0.20433 ,-2.00485 
353 ,73.4214 ,1.37816 ,-0.23855 ,-2.34064 
354 ,73.6131 ,1.38019 ,-0.24197 ,-2.37422 
355 ,73.8056 ,1.38205 ,-0.25908 ,-2.54211 
356 ,74.0295 ,1.38426 ,-0.25566 ,-2.50853 
357 ,74.2378 ,1.38634 ,-0.26935 ,-2.64284 
358 ,74.4459 ,1.38844 ,-0.30015 ,-2.94505 
359 ,74.6695 ,1.39068 ,-0.30699 ,-3.01220 
360 ,74.8780 ,1.39271 ,-0.30699 ,-3.01220 
361 ,75.0860 ,1.39481 ,-0.33095 ,-3.24725 
362 ,75.2943 ,1.39691 ,-0.30699 ,-3.01220 
363 ,75.5182 ,1.39912 ,-0.33779 ,-3.31441 
364 ,75.7105 ,1.40109 ,-0.33779 ,-3.31441 
365 ,75.9342 ,1.40326 ,-0.35490 ,-3.48230 
366 ,76.1426 ,1.40542 ,-0.37886 ,-3.71735 
367 ,76.3504 ,1.40750 ,-0.37886 ,-3.71735 
368 ,76.5587 ,1.40956 ,-0.38912 ,-3.81808 
369 ,76.7346 ,1.41145 ,-0.39597 ,-3.88524 
370 ,76.9429 ,1.41335 ,-0.42335 ,-4.15387 
371 ,77.1350 ,1.41532 ,-0.39939 ,-3.91882 
372 ,77.3427 ,1.41736 ,-0.45414 ,-4.45607 
373 ,77.5511 ,1.41944 ,-0.43361 ,-4.25460 
374 ,77.7592 ,1.42153 ,-0.45414 ,-4.45607 
375 ,77.9829 ,1.42373 ,-0.47810 ,-4.69112 
376 ,78.1913 ,1.42584 ,-0.45072 ,-4.42249 
377 ,78.3994 ,1.42801 ,-0.47468 ,-4.65754 
378 ,78.6073 ,1.42999 ,-0.49179 ,-4.82543 
379 ,78.7997 ,1.43196 ,-0.49863 ,-4.89259 
380 ,79.0076 ,1.43400 ,-0.49863 ,-4.89259 
381 ,79.2318 ,1.43622 ,-0.50206 ,-4.92617 
382 ,79.4558 ,1.43848 ,-0.52259 ,-5.12764 
383 ,79.6640 ,1.44059 ,-0.54312 ,-5.32911 
384 ,79.8720 ,1.44260 ,-0.53628 ,-5.26195 
385 ,80.0642 ,1.44458 ,-0.55339 ,-5.42984 
386 ,80.2722 ,1.44660 ,-0.56708 ,-5.56415 
387 ,80.4644 ,1.44861 ,-0.57734 ,-5.66489 
388 ,80.6724 ,1.45065 ,-0.57734 ,-5.66489 
389 ,80.8963 ,1.45285 ,-0.59103 ,-5.79920 
390 ,81.0886 ,1.45482 ,-0.61499 ,-6.03425 
391 ,81.3122 ,1.45705 ,-0.60130 ,-5.89994 
392 ,81.5368 ,1.45917 ,-0.62868 ,-6.16856 
393 ,81.7448 ,1.46140 ,-0.63894 ,-6.26930 
394 ,81.9530 ,1.46346 ,-0.63210 ,-6.20214 
395 ,82.1610 ,1.46563 ,-0.64579 ,-6.33646 
396 ,82.3527 ,1.46744 ,-0.65605 ,-6.43719 
397 ,82.5613 ,1.46955 ,-0.67659 ,-6.63866 
398 ,82.7852 ,1.47177 ,-0.68685 ,-6.73940 
399 ,82.9934 ,1.47382 ,-0.67659 ,-6.63866 
400 ,83.2015 ,1.47589 ,-0.70396 ,-6.90729 
401 ,83.3935 ,1.47795 ,-0.71765 ,-7.04160 
402 ,83.5855 ,1.47984 ,-0.72792 ,-7.14233 
403 ,83.7937 ,1.48182 ,-0.71765 ,-7.04160 
404 ,83.9858 ,1.48381 ,-0.73818 ,-7.24307 
405 ,84.1939 ,1.48588 ,-0.74503 ,-7.31023 
406 ,84.4020 ,1.48790 ,-0.75530 ,-7.41096 
407 ,84.5936 ,1.48990 ,-0.75530 ,-7.41096 
408 ,84.8019 ,1.49187 ,-0.78267 ,-7.67959 
409 ,85.0262 ,1.49414 ,-0.78610 ,-7.71317 
410 ,85.2182 ,1.49609 ,-0.77583 ,-7.61243 
411 ,85.4422 ,1.49822 ,-0.79294 ,-7.78032 
412 ,85.6340 ,1.50026 ,-0.80321 ,-7.88106 
413 ,85.8426 ,1.50236 ,-0.82716 ,-8.11611 
414 ,86.0666 ,1.50458 ,-0.83401 ,-8.18326 
415 ,86.2744 ,1.50666 ,-0.82374 ,-8.08253 
416 ,86.4828 ,1.50873 ,-0.84085 ,-8.25042 
417 ,86.6750 ,1.51067 ,-0.85796 ,-8.41831 
418 ,86.8827 ,1.51274 ,-0.86823 ,-8.51904 
419 ,87.0911 ,1.51479 ,-0.85796 ,-8.41831 
420 ,87.2992 ,1.51689 ,-0.86823 ,-8.51904 
421 ,87.5074 ,1.51898 ,-0.89218 ,-8.75409 
422 ,87.7151 ,1.52108 ,-0.88192 ,-8.65336 
423 ,87.9069 ,1.52300 ,-0.91272 ,-8.95556 
424 ,88.0996 ,1.52492 ,-0.90587 ,-8.88841 
425 ,88.3074 ,1.52695 ,-0.92983 ,-9.12345 
426 ,88.5316 ,1.52919 ,-0.92298 ,-9.05630 
427 ,88.7237 ,1.53116 ,-0.93325 ,-9.15703 
428 ,88.9317 ,1.53322 ,-0.94009 ,-9.22419 
429 ,89.1560 ,1.53545 ,-0.94694 ,-9.29135 
430 ,89.3800 ,1.53769 ,-0.96405 ,-9.45924 
431 ,89.5882 ,1.53969 ,-0.97089 ,-9.52639 
432 ,89.7963 ,1.54186 ,-0.97431 ,-9.55997 
433 ,90.0203 ,1.54408 ,-0.98458 ,-9.66071 
434 ,90.2282 ,1.54623 ,-0.99485 ,-9.76144 
435 ,90.4525 ,1.54841 ,-1.00511 ,-9.86218 
436 ,90.6765 ,1.55053 ,-1.01196 ,-9.92933 
437 ,90.8844 ,1.55269 ,-1.04276 ,-10.23154 
438 ,91.0929 ,1.55485 ,-1.03934 ,-10.19796 
439 ,91.3171 ,1.55711 ,-1.02907 ,-10.09723 
440 ,91.5248 ,1.55916 ,-1.05987 ,-10.39943 
441 ,91.7331 ,1.56120 ,-1.06671 ,-10.46659 
442 ,91.9411 ,1.56327 ,-1.07014 ,-10.50016 
443 ,92.1332 ,1.56525 ,-1.07356 ,-10.53374 
444 ,92.3414 ,1.56730 ,-1.07356 ,-10.53374 
445 ,92.5333 ,1.56938 ,-1.10436 ,-10.83595 
446 ,92.7414 ,1.57126 ,-1.09409 ,-10.73521 
447 ,92.9496 ,1.57336 ,-1.10778 ,-10.86953 
448 ,93.1576 ,1.57540 ,-1.09751 ,-10.76879 
449 ,93.3653 ,1.57750 ,-1.13858 ,-11.17173 
450 ,93.5740 ,1.57964 ,-1.13516 ,-11.13815 
451 ,93.7980 ,1.58178 ,-1.13516 ,-11.13815 
452 ,94.0218 ,1.58409 ,-1.15227 ,-11.30604 
453 ,94.2301 ,1.58611 ,-1.15911 ,-11.37320 
454 ,94.4221 ,1.58820 ,-1.15227 ,-11.30604 
455 ,94.6303 ,1.59018 ,-1.17280 ,-11.50751 
456 ,94.8542 ,1.59238 ,-1.18649 ,-11.64183 
457 ,95.0464 ,1.59435 ,-1.20360 ,-11.80972 
458 ,95.2706 ,1.59650 ,-1.20702 ,-11.84330 
459 ,95.4625 ,1.59857 ,-1.19676 ,-11.74256 
460 ,95.6544 ,1.60043 ,-1.22413 ,-12.01119 
461 ,95.8467 ,1.60242 ,-1.24124 ,-12.17908 
