Data stamp = , 05-05-2022 17:01:53 594

Calibration Values: 
Slope = , 26.54 , g/V 
Offset Voltage at no contact = , -0.501760 , V 

No , Time , Stage Position ,   Mass , Force 
   ,  (s) ,      (mm)      ,   (g)  , (mN)  

1 ,0.0000 ,0.64957 ,5.17190 ,50.74666 
2 ,0.2182 ,0.64965 ,5.17190 ,50.74666 
3 ,0.6186 ,0.65083 ,5.16848 ,50.71308 
4 ,0.7944 ,0.65255 ,5.19927 ,51.01528 
5 ,1.0190 ,0.65440 ,5.16848 ,50.71308 
6 ,1.2428 ,0.65672 ,5.17190 ,50.74666 
7 ,1.4513 ,0.65879 ,5.20954 ,51.11602 
8 ,1.6591 ,0.66093 ,5.19243 ,50.94813 
9 ,1.8669 ,0.66293 ,5.18216 ,50.84739 
10 ,2.0755 ,0.66510 ,5.15821 ,50.61234 
11 ,2.2834 ,0.66727 ,5.15479 ,50.57876 
12 ,2.5076 ,0.66928 ,5.11372 ,50.17583 
13 ,2.7157 ,0.67147 ,5.11372 ,50.17583 
14 ,2.9555 ,0.67390 ,5.08977 ,49.94078 
15 ,3.1799 ,0.67612 ,5.05212 ,49.57142 
16 ,3.4039 ,0.67832 ,5.03501 ,49.40352 
17 ,3.5960 ,0.68030 ,5.02817 ,49.33637 
18 ,3.8202 ,0.68253 ,4.99737 ,49.03416 
19 ,4.0282 ,0.68454 ,4.98710 ,48.93343 
20 ,4.2201 ,0.68657 ,4.96315 ,48.69838 
21 ,4.4445 ,0.68870 ,4.93919 ,48.46333 
22 ,4.6520 ,0.69084 ,4.92550 ,48.32902 
23 ,4.8445 ,0.69275 ,4.89470 ,48.02681 
24 ,5.0527 ,0.69480 ,4.88101 ,47.89250 
25 ,5.2766 ,0.69705 ,4.86048 ,47.69103 
26 ,5.4688 ,0.69903 ,4.84679 ,47.55672 
27 ,5.6769 ,0.70108 ,4.82284 ,47.32167 
28 ,5.8849 ,0.70315 ,4.78861 ,46.98589 
29 ,6.0930 ,0.70521 ,4.79204 ,47.01946 
30 ,6.3008 ,0.70735 ,4.76808 ,46.78442 
31 ,6.5087 ,0.70941 ,4.74070 ,46.51579 
32 ,6.7009 ,0.71137 ,4.72702 ,46.38148 
33 ,6.9093 ,0.71339 ,4.71333 ,46.24716 
34 ,7.1173 ,0.71550 ,4.68595 ,45.97854 
35 ,7.3256 ,0.71751 ,4.66199 ,45.74349 
36 ,7.5493 ,0.71976 ,4.65173 ,45.64275 
37 ,7.7738 ,0.72200 ,4.61751 ,45.30697 
38 ,7.9818 ,0.72416 ,4.59697 ,45.10550 
39 ,8.1900 ,0.72614 ,4.59013 ,45.03835 
40 ,8.4142 ,0.72843 ,4.56275 ,44.76972 
41 ,8.6377 ,0.73067 ,4.53880 ,44.53467 
42 ,8.8464 ,0.73271 ,4.51826 ,44.33320 
43 ,9.0703 ,0.73497 ,4.50457 ,44.19889 
44 ,9.2944 ,0.73725 ,4.48404 ,43.99742 
45 ,9.5025 ,0.73926 ,4.44298 ,43.59448 
46 ,9.6945 ,0.74131 ,4.44640 ,43.62806 
47 ,9.8867 ,0.74318 ,4.42586 ,43.42659 
48 ,10.0786 ,0.74509 ,4.41218 ,43.29227 
49 ,10.3028 ,0.74725 ,4.38822 ,43.05723 
50 ,10.4948 ,0.74923 ,4.37453 ,42.92291 
51 ,10.6866 ,0.75118 ,4.34716 ,42.65429 
52 ,10.8949 ,0.75331 ,4.32662 ,42.45282 
53 ,11.1192 ,0.75542 ,4.30609 ,42.25135 
54 ,11.3593 ,0.75773 ,4.26502 ,41.84841 
55 ,11.5674 ,0.75990 ,4.27529 ,41.94914 
56 ,11.7912 ,0.76214 ,4.26845 ,41.88198 
57 ,11.9994 ,0.76428 ,4.22053 ,41.41189 
58 ,12.2236 ,0.76648 ,4.19316 ,41.14326 
59 ,12.4317 ,0.76858 ,4.19658 ,41.17684 
60 ,12.6554 ,0.77086 ,4.17605 ,40.97537 
61 ,12.8477 ,0.77278 ,4.13156 ,40.53885 
62 ,13.0239 ,0.77465 ,4.12471 ,40.47170 
63 ,13.2160 ,0.77644 ,4.11787 ,40.40454 
64 ,13.4080 ,0.77835 ,4.10418 ,40.27023 
65 ,13.6161 ,0.78036 ,4.06996 ,39.93444 
66 ,13.8243 ,0.78265 ,4.03574 ,39.59866 
67 ,14.0159 ,0.78450 ,4.03232 ,39.56508 
68 ,14.2242 ,0.78651 ,4.00152 ,39.26288 
69 ,14.4484 ,0.78868 ,3.99809 ,39.22930 
70 ,14.6403 ,0.79068 ,3.97414 ,38.99425 
71 ,14.8485 ,0.79269 ,3.96387 ,38.89352 
72 ,15.0408 ,0.79464 ,3.93650 ,38.62489 
73 ,15.2486 ,0.79674 ,3.92965 ,38.55773 
74 ,15.4569 ,0.79889 ,3.91596 ,38.42342 
75 ,15.6648 ,0.80091 ,3.88174 ,38.08764 
76 ,15.8730 ,0.80300 ,3.87147 ,37.98690 
77 ,16.0652 ,0.80496 ,3.84410 ,37.71828 
78 ,16.2731 ,0.80705 ,3.83725 ,37.65112 
79 ,16.4655 ,0.80896 ,3.80987 ,37.38249 
80 ,16.6574 ,0.81088 ,3.79276 ,37.21460 
81 ,16.8492 ,0.81281 ,3.78592 ,37.14744 
82 ,17.0575 ,0.81479 ,3.75512 ,36.84524 
83 ,17.2654 ,0.81696 ,3.72090 ,36.50946 
84 ,17.4738 ,0.81899 ,3.71748 ,36.47588 
85 ,17.6818 ,0.82110 ,3.69352 ,36.24083 
86 ,17.8899 ,0.82315 ,3.69010 ,36.20725 
87 ,18.0979 ,0.82525 ,3.65246 ,35.83789 
88 ,18.3061 ,0.82728 ,3.62508 ,35.56926 
89 ,18.5302 ,0.82954 ,3.63192 ,35.63642 
90 ,18.7543 ,0.83178 ,3.61139 ,35.43495 
91 ,18.9624 ,0.83387 ,3.56690 ,34.99843 
92 ,19.1546 ,0.83584 ,3.57375 ,35.06559 
93 ,19.3626 ,0.83786 ,3.52926 ,34.62907 
94 ,19.5867 ,0.84009 ,3.50872 ,34.42760 
95 ,19.8107 ,0.84234 ,3.51899 ,34.52834 
96 ,20.0028 ,0.84429 ,3.48477 ,34.19255 
97 ,20.2267 ,0.84648 ,3.46424 ,33.99108 
98 ,20.4185 ,0.84852 ,3.45739 ,33.92393 
99 ,20.6266 ,0.85044 ,3.44370 ,33.78961 
100 ,20.8352 ,0.85258 ,3.41633 ,33.52099 
101 ,21.0590 ,0.85470 ,3.38553 ,33.21878 
102 ,21.2834 ,0.85710 ,3.38553 ,33.21878 
103 ,21.4915 ,0.85910 ,3.36157 ,32.98374 
104 ,21.6830 ,0.86114 ,3.33419 ,32.71511 
105 ,21.8916 ,0.86312 ,3.32393 ,32.61437 
106 ,22.0995 ,0.86531 ,3.29655 ,32.34575 
107 ,22.3077 ,0.86729 ,3.28971 ,32.27859 
108 ,22.5320 ,0.86949 ,3.26917 ,32.07712 
109 ,22.7555 ,0.87178 ,3.24180 ,31.80849 
110 ,22.9641 ,0.87386 ,3.20757 ,31.47271 
111 ,23.1723 ,0.87599 ,3.22126 ,31.60702 
112 ,23.3799 ,0.87806 ,3.19046 ,31.30482 
113 ,23.5563 ,0.87994 ,3.18362 ,31.23766 
114 ,23.7486 ,0.88173 ,3.15966 ,31.00262 
115 ,23.9566 ,0.88388 ,3.15966 ,31.00262 
116 ,24.1485 ,0.88570 ,3.13229 ,30.73399 
117 ,24.3728 ,0.88796 ,3.12202 ,30.63325 
118 ,24.6127 ,0.89023 ,3.09464 ,30.36463 
119 ,24.8209 ,0.89246 ,3.05358 ,29.96169 
120 ,25.0290 ,0.89452 ,3.06726 ,30.09600 
121 ,25.2209 ,0.89647 ,3.02278 ,29.65948 
122 ,25.4131 ,0.89839 ,3.02620 ,29.69306 
123 ,25.6212 ,0.90048 ,2.99198 ,29.35728 
124 ,25.8455 ,0.90261 ,2.97829 ,29.22297 
125 ,26.0371 ,0.90469 ,2.96118 ,29.05507 
126 ,26.2459 ,0.90669 ,2.94407 ,28.88718 
127 ,26.4694 ,0.90892 ,2.93038 ,28.75287 
128 ,26.6774 ,0.91094 ,2.90642 ,28.51782 
129 ,26.8696 ,0.91293 ,2.89616 ,28.41709 
130 ,27.0777 ,0.91507 ,2.87905 ,28.24919 
131 ,27.2702 ,0.91692 ,2.86536 ,28.11488 
132 ,27.4941 ,0.91918 ,2.85509 ,28.01415 
133 ,27.7018 ,0.92125 ,2.82771 ,27.74552 
134 ,27.8943 ,0.92319 ,2.81402 ,27.61121 
135 ,28.1183 ,0.92534 ,2.79007 ,27.37616 
136 ,28.3104 ,0.92736 ,2.77296 ,27.20827 
137 ,28.5025 ,0.92926 ,2.75585 ,27.04038 
138 ,28.7105 ,0.93135 ,2.74216 ,26.90606 
139 ,28.9185 ,0.93335 ,2.73189 ,26.80533 
140 ,29.1107 ,0.93537 ,2.69767 ,26.46954 
141 ,29.3185 ,0.93740 ,2.70109 ,26.50312 
142 ,29.5267 ,0.93947 ,2.66687 ,26.16734 
143 ,29.7510 ,0.94167 ,2.66687 ,26.16734 
144 ,29.9589 ,0.94387 ,2.64634 ,25.96587 
145 ,30.1667 ,0.94587 ,2.62238 ,25.73082 
146 ,30.3593 ,0.94779 ,2.61554 ,25.66367 
147 ,30.5674 ,0.94985 ,2.59843 ,25.49577 
148 ,30.7912 ,0.95203 ,2.59158 ,25.42862 
149 ,30.9994 ,0.95416 ,2.54367 ,24.95852 
150 ,31.1916 ,0.95613 ,2.55394 ,25.05926 
151 ,31.3997 ,0.95815 ,2.51630 ,24.68989 
152 ,31.6236 ,0.96038 ,2.48207 ,24.35411 
153 ,31.8320 ,0.96251 ,2.49576 ,24.48842 
154 ,32.0400 ,0.96455 ,2.46496 ,24.18622 
155 ,32.2636 ,0.96681 ,2.45812 ,24.11906 
156 ,32.4562 ,0.96878 ,2.45127 ,24.05191 
157 ,32.6638 ,0.97079 ,2.39994 ,23.54823 
158 ,32.8564 ,0.97279 ,2.41363 ,23.68255 
159 ,33.0805 ,0.97499 ,2.38283 ,23.38034 
160 ,33.2882 ,0.97703 ,2.37256 ,23.27961 
161 ,33.4965 ,0.97911 ,2.35545 ,23.11171 
162 ,33.7043 ,0.98131 ,2.33492 ,22.91024 
163 ,33.9128 ,0.98328 ,2.31781 ,22.74235 
164 ,34.1368 ,0.98554 ,2.31097 ,22.67520 
165 ,34.3290 ,0.98749 ,2.28359 ,22.40657 
166 ,34.5369 ,0.98961 ,2.28017 ,22.37299 
167 ,34.7291 ,0.99150 ,2.24937 ,22.07079 
168 ,34.9371 ,0.99354 ,2.22883 ,21.86932 
169 ,35.1454 ,0.99563 ,2.20830 ,21.66785 
170 ,35.3533 ,0.99770 ,2.21857 ,21.76858 
171 ,35.5615 ,0.99985 ,2.19803 ,21.56711 
172 ,35.7854 ,1.00206 ,2.16381 ,21.23133 
173 ,35.9934 ,1.00418 ,2.17066 ,21.29849 
174 ,36.2176 ,1.00634 ,2.14670 ,21.06344 
175 ,36.4255 ,1.00842 ,2.11248 ,20.72766 
176 ,36.6177 ,1.01036 ,2.12617 ,20.86197 
177 ,36.8100 ,1.01235 ,2.07826 ,20.39187 
178 ,37.0175 ,1.01428 ,2.08168 ,20.42545 
179 ,37.2259 ,1.01644 ,2.04746 ,20.08967 
180 ,37.4342 ,1.01853 ,2.06457 ,20.25756 
181 ,37.6421 ,1.02057 ,2.00982 ,19.72031 
182 ,37.8344 ,1.02256 ,2.02693 ,19.88820 
183 ,38.0260 ,1.02453 ,1.98244 ,19.45168 
184 ,38.2339 ,1.02657 ,1.97559 ,19.38452 
185 ,38.4262 ,1.02857 ,1.95164 ,19.14948 
186 ,38.6506 ,1.03075 ,1.95164 ,19.14948 
187 ,38.8746 ,1.03294 ,1.94479 ,19.08232 
188 ,39.0664 ,1.03488 ,1.90715 ,18.71296 
189 ,39.2747 ,1.03686 ,1.91399 ,18.78011 
190 ,39.4665 ,1.03892 ,1.87977 ,18.44433 
191 ,39.6751 ,1.04093 ,1.87977 ,18.44433 
192 ,39.8832 ,1.04298 ,1.85240 ,18.17570 
193 ,40.1233 ,1.04529 ,1.83871 ,18.04139 
194 ,40.3150 ,1.04741 ,1.83186 ,17.97423 
195 ,40.5235 ,1.04944 ,1.80106 ,17.67203 
196 ,40.7633 ,1.05167 ,1.80449 ,17.70561 
197 ,40.9716 ,1.05386 ,1.79080 ,17.57129 
198 ,41.1957 ,1.05610 ,1.77369 ,17.40340 
199 ,41.4034 ,1.05817 ,1.74289 ,17.10120 
200 ,41.6119 ,1.06023 ,1.74973 ,17.16836 
201 ,41.8199 ,1.06237 ,1.70866 ,16.76542 
202 ,42.0281 ,1.06441 ,1.69498 ,16.63110 
203 ,42.2363 ,1.06657 ,1.69840 ,16.66468 
204 ,42.4443 ,1.06853 ,1.66075 ,16.29532 
205 ,42.6523 ,1.07069 ,1.66760 ,16.36248 
206 ,42.8604 ,1.07273 ,1.62311 ,15.92596 
207 ,43.0845 ,1.07501 ,1.61284 ,15.82522 
208 ,43.2765 ,1.07702 ,1.61284 ,15.82522 
209 ,43.4685 ,1.07885 ,1.59916 ,15.69091 
210 ,43.6924 ,1.08104 ,1.59231 ,15.62375 
211 ,43.8848 ,1.08304 ,1.56836 ,15.38871 
212 ,44.0768 ,1.08493 ,1.55809 ,15.28797 
213 ,44.2689 ,1.08687 ,1.53756 ,15.08650 
214 ,44.4930 ,1.08907 ,1.52729 ,14.98577 
215 ,44.7010 ,1.09111 ,1.49649 ,14.68356 
216 ,44.9090 ,1.09328 ,1.50676 ,14.78430 
217 ,45.1173 ,1.09538 ,1.48965 ,14.61640 
218 ,45.3252 ,1.09739 ,1.47253 ,14.44851 
219 ,45.5335 ,1.09949 ,1.45542 ,14.28062 
220 ,45.7255 ,1.10143 ,1.42805 ,14.01199 
221 ,45.9175 ,1.10337 ,1.42120 ,13.94484 
222 ,46.1417 ,1.10541 ,1.41436 ,13.87768 
223 ,46.3658 ,1.10774 ,1.40067 ,13.74337 
224 ,46.5740 ,1.10987 ,1.39040 ,13.64263 
225 ,46.7977 ,1.11207 ,1.34591 ,13.20612 
226 ,47.0061 ,1.11423 ,1.34934 ,13.23969 
227 ,47.1982 ,1.11620 ,1.33223 ,13.07180 
228 ,47.4219 ,1.11835 ,1.31169 ,12.87033 
229 ,47.6304 ,1.12048 ,1.32196 ,12.97107 
230 ,47.8385 ,1.12255 ,1.28774 ,12.63528 
231 ,48.0461 ,1.12456 ,1.27747 ,12.53455 
232 ,48.2546 ,1.12668 ,1.27063 ,12.46739 
233 ,48.4782 ,1.12894 ,1.23983 ,12.16519 
234 ,48.6866 ,1.13095 ,1.24325 ,12.19877 
235 ,48.8949 ,1.13307 ,1.22272 ,11.99730 
236 ,49.1029 ,1.13514 ,1.21245 ,11.89656 
237 ,49.3270 ,1.13745 ,1.20218 ,11.79583 
238 ,49.5512 ,1.13965 ,1.18165 ,11.59436 
239 ,49.7913 ,1.14192 ,1.15770 ,11.35931 
240 ,49.9991 ,1.14409 ,1.14401 ,11.22500 
241 ,50.2071 ,1.14627 ,1.15085 ,11.29215 
242 ,50.4153 ,1.14826 ,1.11663 ,10.95637 
243 ,50.6396 ,1.15045 ,1.08925 ,10.68774 
244 ,50.8476 ,1.15264 ,1.08925 ,10.68774 
245 ,51.0558 ,1.15465 ,1.06187 ,10.41912 
246 ,51.2638 ,1.15673 ,1.06187 ,10.41912 
247 ,51.4559 ,1.15874 ,1.05503 ,10.35196 
248 ,51.6480 ,1.16062 ,1.05161 ,10.31838 
249 ,51.8721 ,1.16282 ,1.03108 ,10.11691 
250 ,52.0642 ,1.16481 ,1.00028 ,9.81471 
251 ,52.2563 ,1.16672 ,1.00370 ,9.84829 
252 ,52.4640 ,1.16880 ,0.97974 ,9.61324 
253 ,52.6883 ,1.17103 ,0.98659 ,9.68039 
254 ,52.9126 ,1.17325 ,0.95921 ,9.41177 
255 ,53.1207 ,1.17531 ,0.92157 ,9.04241 
256 ,53.3286 ,1.17740 ,0.93183 ,9.14314 
257 ,53.5369 ,1.17950 ,0.91472 ,8.97525 
258 ,53.7609 ,1.18176 ,0.89761 ,8.80736 
259 ,53.9690 ,1.18383 ,0.90103 ,8.84094 
260 ,54.1771 ,1.18585 ,0.86339 ,8.47158 
261 ,54.3851 ,1.18798 ,0.85997 ,8.43800 
262 ,54.5771 ,1.18988 ,0.84286 ,8.27011 
263 ,54.7852 ,1.19196 ,0.84286 ,8.27011 
264 ,54.9772 ,1.19391 ,0.81548 ,8.00148 
265 ,55.2010 ,1.19613 ,0.79837 ,7.83359 
266 ,55.3935 ,1.19810 ,0.80521 ,7.90074 
267 ,55.6017 ,1.20012 ,0.78126 ,7.66570 
268 ,55.8093 ,1.20218 ,0.78468 ,7.69927 
269 ,56.0178 ,1.20429 ,0.75046 ,7.36349 
270 ,56.2259 ,1.20639 ,0.75046 ,7.36349 
271 ,56.4499 ,1.20855 ,0.74704 ,7.32991 
272 ,56.6581 ,1.21062 ,0.71966 ,7.06129 
273 ,56.8820 ,1.21296 ,0.71966 ,7.06129 
274 ,57.1063 ,1.21516 ,0.70255 ,6.89340 
275 ,57.3304 ,1.21735 ,0.68544 ,6.72550 
276 ,57.5544 ,1.21970 ,0.66148 ,6.49046 
277 ,57.7625 ,1.22178 ,0.65464 ,6.42330 
278 ,57.9546 ,1.22366 ,0.63753 ,6.25541 
279 ,58.1947 ,1.22595 ,0.63410 ,6.22183 
280 ,58.4187 ,1.22825 ,0.61015 ,5.98678 
281 ,58.6268 ,1.23037 ,0.60673 ,5.95320 
282 ,58.8347 ,1.23244 ,0.58277 ,5.71815 
283 ,59.0431 ,1.23452 ,0.56908 ,5.58384 
284 ,59.2511 ,1.23663 ,0.56908 ,5.58384 
285 ,59.4754 ,1.23884 ,0.54513 ,5.34879 
286 ,59.6833 ,1.24095 ,0.54513 ,5.34879 
287 ,59.9071 ,1.24313 ,0.54171 ,5.31522 
288 ,60.1155 ,1.24522 ,0.51775 ,5.08017 
289 ,60.3236 ,1.24727 ,0.52117 ,5.11375 
290 ,60.5318 ,1.24942 ,0.50064 ,4.91228 
291 ,60.7397 ,1.25144 ,0.48353 ,4.74438 
292 ,60.9480 ,1.25350 ,0.47668 ,4.67723 
293 ,61.1560 ,1.25563 ,0.44246 ,4.34144 
294 ,61.3639 ,1.25770 ,0.44588 ,4.37502 
295 ,61.5561 ,1.25966 ,0.42535 ,4.17355 
296 ,61.7643 ,1.26172 ,0.42535 ,4.17355 
297 ,61.9880 ,1.26398 ,0.43562 ,4.27429 
298 ,62.2125 ,1.26608 ,0.39455 ,3.87135 
299 ,62.4363 ,1.26845 ,0.37402 ,3.66988 
300 ,62.6286 ,1.27036 ,0.38086 ,3.73703 
301 ,62.8366 ,1.27242 ,0.35006 ,3.43483 
302 ,63.0448 ,1.27449 ,0.33638 ,3.30052 
303 ,63.2528 ,1.27657 ,0.33980 ,3.33410 
304 ,63.4605 ,1.27863 ,0.31926 ,3.13263 
305 ,63.6686 ,1.28077 ,0.32953 ,3.23336 
306 ,63.8610 ,1.28268 ,0.29531 ,2.89758 
307 ,64.0531 ,1.28476 ,0.30900 ,3.03189 
308 ,64.2452 ,1.28651 ,0.28504 ,2.79684 
309 ,64.4533 ,1.28861 ,0.27135 ,2.66253 
310 ,64.6769 ,1.29078 ,0.25424 ,2.49464 
311 ,64.8854 ,1.29293 ,0.25082 ,2.46106 
312 ,65.0773 ,1.29485 ,0.22687 ,2.22601 
313 ,65.2856 ,1.29692 ,0.23371 ,2.29317 
314 ,65.4936 ,1.29903 ,0.22002 ,2.15885 
315 ,65.6854 ,1.30091 ,0.19949 ,1.95738 
316 ,65.8939 ,1.30300 ,0.19607 ,1.92381 
317 ,66.1179 ,1.30520 ,0.16527 ,1.62160 
318 ,66.3095 ,1.30719 ,0.18238 ,1.78949 
319 ,66.5017 ,1.30916 ,0.14131 ,1.38655 
320 ,66.6937 ,1.31106 ,0.15500 ,1.52087 
321 ,66.9021 ,1.31310 ,0.12762 ,1.25224 
322 ,67.1264 ,1.31527 ,0.12762 ,1.25224 
323 ,67.3345 ,1.31738 ,0.11736 ,1.15151 
324 ,67.5426 ,1.31945 ,0.08998 ,0.88288 
325 ,67.7347 ,1.32142 ,0.10025 ,0.98361 
326 ,67.9427 ,1.32352 ,0.06945 ,0.68141 
327 ,68.1348 ,1.32544 ,0.07971 ,0.78214 
328 ,68.3270 ,1.32735 ,0.05234 ,0.51352 
329 ,68.5507 ,1.32954 ,0.04891 ,0.47994 
330 ,68.7431 ,1.33152 ,0.03522 ,0.34563 
331 ,68.9827 ,1.33374 ,0.04549 ,0.44636 
332 ,69.1754 ,1.33584 ,0.01127 ,0.11058 
333 ,69.3992 ,1.33802 ,0.00443 ,0.04342 
334 ,69.6072 ,1.34006 ,0.00785 ,0.07700 
335 ,69.8311 ,1.34234 ,-0.01269 ,-0.12447 
336 ,70.0232 ,1.34433 ,-0.03664 ,-0.35952 
337 ,70.2478 ,1.34653 ,-0.03664 ,-0.35952 
338 ,70.4557 ,1.34865 ,-0.05033 ,-0.49383 
339 ,70.6479 ,1.35056 ,-0.06060 ,-0.59457 
340 ,70.8717 ,1.35276 ,-0.06402 ,-0.62814 
341 ,71.0799 ,1.35483 ,-0.09140 ,-0.89677 
342 ,71.2881 ,1.35691 ,-0.08455 ,-0.82961 
343 ,71.5122 ,1.35916 ,-0.09824 ,-0.96393 
344 ,71.7042 ,1.36112 ,-0.12219 ,-1.19898 
345 ,71.8965 ,1.36306 ,-0.12562 ,-1.23255 
346 ,72.1045 ,1.36506 ,-0.12562 ,-1.23255 
347 ,72.2965 ,1.36713 ,-0.14615 ,-1.43402 
348 ,72.4886 ,1.36892 ,-0.13588 ,-1.33329 
349 ,72.6966 ,1.37099 ,-0.18037 ,-1.76981 
350 ,72.9047 ,1.37306 ,-0.17353 ,-1.70265 
351 ,73.1129 ,1.37516 ,-0.18037 ,-1.76981 
352 ,73.3207 ,1.37726 ,-0.20433 ,-2.00485 
353 ,73.5451 ,1.37947 ,-0.20433 ,-2.00485 
354 ,73.7531 ,1.38157 ,-0.20775 ,-2.03843 
355 ,73.9612 ,1.38361 ,-0.23513 ,-2.30706 
356 ,74.1854 ,1.38589 ,-0.22828 ,-2.23990 
357 ,74.3935 ,1.38794 ,-0.24881 ,-2.44137 
358 ,74.6015 ,1.39010 ,-0.26593 ,-2.60926 
359 ,74.8253 ,1.39223 ,-0.26593 ,-2.60926 
360 ,75.0175 ,1.39424 ,-0.27277 ,-2.67642 
361 ,75.2420 ,1.39646 ,-0.30357 ,-2.97863 
362 ,75.4498 ,1.39848 ,-0.30015 ,-2.94505 
363 ,75.6579 ,1.40052 ,-0.32410 ,-3.18010 
364 ,75.8659 ,1.40269 ,-0.31726 ,-3.11294 
365 ,76.0742 ,1.40482 ,-0.31041 ,-3.04578 
366 ,76.2823 ,1.40689 ,-0.34806 ,-3.41514 
367 ,76.4903 ,1.40893 ,-0.33095 ,-3.24725 
368 ,76.7144 ,1.41115 ,-0.35148 ,-3.44872 
369 ,76.9225 ,1.41329 ,-0.37544 ,-3.68377 
370 ,77.1305 ,1.41527 ,-0.36859 ,-3.61661 
371 ,77.3384 ,1.41740 ,-0.40966 ,-4.01955 
372 ,77.5627 ,1.41964 ,-0.39597 ,-3.88524 
373 ,77.7704 ,1.42183 ,-0.41308 ,-4.05313 
374 ,77.9624 ,1.42378 ,-0.43019 ,-4.22102 
375 ,78.1706 ,1.42575 ,-0.41992 ,-4.12029 
376 ,78.3629 ,1.42765 ,-0.45414 ,-4.45607 
377 ,78.5709 ,1.42969 ,-0.43019 ,-4.22102 
378 ,78.7789 ,1.43177 ,-0.46783 ,-4.59038 
379 ,78.9875 ,1.43390 ,-0.46099 ,-4.52323 
380 ,79.1954 ,1.43601 ,-0.47810 ,-4.69112 
381 ,79.4034 ,1.43802 ,-0.48837 ,-4.79185 
382 ,79.5955 ,1.43999 ,-0.49863 ,-4.89259 
383 ,79.8037 ,1.44203 ,-0.51574 ,-5.06048 
384 ,80.0275 ,1.44425 ,-0.51232 ,-5.02690 
385 ,80.2359 ,1.44635 ,-0.52601 ,-5.16121 
386 ,80.4599 ,1.44864 ,-0.53628 ,-5.26195 
387 ,80.6679 ,1.45071 ,-0.54997 ,-5.39626 
388 ,80.8759 ,1.45273 ,-0.56365 ,-5.53058 
389 ,81.0680 ,1.45473 ,-0.56023 ,-5.49700 
390 ,81.2601 ,1.45658 ,-0.59103 ,-5.79920 
391 ,81.4524 ,1.45853 ,-0.57050 ,-5.59773 
392 ,81.6602 ,1.46063 ,-0.60472 ,-5.93352 
393 ,81.8843 ,1.46291 ,-0.60130 ,-5.89994 
394 ,82.0761 ,1.46479 ,-0.60814 ,-5.96709 
395 ,82.2846 ,1.46686 ,-0.61841 ,-6.06783 
396 ,82.4768 ,1.46895 ,-0.61841 ,-6.06783 
397 ,82.7008 ,1.47098 ,-0.65263 ,-6.40361 
398 ,82.9085 ,1.47309 ,-0.62868 ,-6.16856 
399 ,83.1170 ,1.47516 ,-0.66290 ,-6.50435 
400 ,83.3411 ,1.47742 ,-0.66974 ,-6.57150 
401 ,83.5650 ,1.47961 ,-0.68001 ,-6.67224 
402 ,83.7731 ,1.48171 ,-0.66974 ,-6.57150 
403 ,83.9810 ,1.48382 ,-0.70396 ,-6.90729 
404 ,84.1893 ,1.48591 ,-0.69027 ,-6.77297 
405 ,84.3813 ,1.48789 ,-0.72107 ,-7.07518 
406 ,84.5895 ,1.48986 ,-0.70396 ,-6.90729 
407 ,84.7977 ,1.49198 ,-0.73476 ,-7.20949 
408 ,85.0217 ,1.49420 ,-0.75530 ,-7.41096 
409 ,85.2137 ,1.49615 ,-0.74161 ,-7.27665 
410 ,85.4054 ,1.49811 ,-0.75872 ,-7.44454 
411 ,85.5981 ,1.50001 ,-0.76214 ,-7.47812 
412 ,85.8061 ,1.50208 ,-0.78610 ,-7.71317 
413 ,85.9982 ,1.50405 ,-0.79294 ,-7.78032 
414 ,86.2063 ,1.50603 ,-0.79636 ,-7.81390 
415 ,86.4142 ,1.50810 ,-0.79294 ,-7.78032 
416 ,86.6222 ,1.51025 ,-0.82716 ,-8.11611 
417 ,86.8466 ,1.51239 ,-0.83743 ,-8.21684 
418 ,87.0544 ,1.51458 ,-0.82374 ,-8.08253 
419 ,87.2626 ,1.51659 ,-0.83743 ,-8.21684 
420 ,87.4707 ,1.51864 ,-0.83743 ,-8.21684 
421 ,87.7109 ,1.52100 ,-0.85796 ,-8.41831 
422 ,87.9350 ,1.52331 ,-0.85796 ,-8.41831 
423 ,88.1431 ,1.52543 ,-0.87849 ,-8.61978 
424 ,88.3352 ,1.52736 ,-0.87507 ,-8.58620 
425 ,88.5433 ,1.52940 ,-0.88534 ,-8.68694 
426 ,88.7514 ,1.53150 ,-0.89560 ,-8.78767 
427 ,88.9594 ,1.53354 ,-0.90929 ,-8.92198 
428 ,89.1833 ,1.53580 ,-0.90929 ,-8.92198 
429 ,89.4074 ,1.53801 ,-0.92640 ,-9.08988 
430 ,89.6157 ,1.54010 ,-0.94009 ,-9.22419 
431 ,89.8236 ,1.54230 ,-0.95378 ,-9.35850 
432 ,90.0319 ,1.54432 ,-0.94694 ,-9.29135 
433 ,90.2399 ,1.54634 ,-0.97089 ,-9.52639 
434 ,90.4641 ,1.54859 ,-0.96405 ,-9.45924 
435 ,90.6721 ,1.55071 ,-0.97089 ,-9.52639 
436 ,90.8638 ,1.55272 ,-1.00511 ,-9.86218 
437 ,91.0562 ,1.55454 ,-0.98458 ,-9.66071 
438 ,91.2804 ,1.55677 ,-1.01880 ,-9.99649 
439 ,91.5045 ,1.55899 ,-1.02565 ,-10.06365 
440 ,91.6962 ,1.56094 ,-1.00854 ,-9.89576 
441 ,91.9203 ,1.56311 ,-1.04618 ,-10.26512 
442 ,92.1287 ,1.56527 ,-1.02222 ,-10.03007 
443 ,92.3528 ,1.56746 ,-1.04618 ,-10.26512 
444 ,92.5608 ,1.56954 ,-1.05987 ,-10.39943 
445 ,92.7530 ,1.57151 ,-1.05987 ,-10.39943 
446 ,92.9612 ,1.57356 ,-1.09067 ,-10.70163 
447 ,93.2009 ,1.57588 ,-1.08725 ,-10.66806 
448 ,93.4093 ,1.57801 ,-1.08040 ,-10.60090 
449 ,93.6172 ,1.58012 ,-1.09409 ,-10.73521 
450 ,93.8252 ,1.58218 ,-1.11462 ,-10.93668 
451 ,94.0336 ,1.58429 ,-1.10093 ,-10.80237 
452 ,94.2416 ,1.58633 ,-1.12489 ,-11.03742 
453 ,94.4336 ,1.58844 ,-1.11805 ,-10.97026 
454 ,94.6576 ,1.59053 ,-1.14200 ,-11.20531 
455 ,94.8659 ,1.59258 ,-1.16253 ,-11.40678 
456 ,95.0740 ,1.59476 ,-1.15227 ,-11.30604 
457 ,95.2821 ,1.59675 ,-1.16253 ,-11.40678 
458 ,95.4901 ,1.59882 ,-1.15911 ,-11.37320 
459 ,95.7141 ,1.60108 ,-1.18649 ,-11.64183 
460 ,95.9063 ,1.60301 ,-1.19676 ,-11.74256 
461 ,96.1304 ,1.60524 ,-1.17622 ,-11.54109 
