Data stamp = , 04-05-2022 14:35:00 033

Calibration Values: 
Slope = , 26.54 , g/V 
Offset Voltage at no contact = , -0.501760 , V 

No , Time , Stage Position ,   Mass , Force 
   ,  (s) ,      (mm)      ,   (g)  , (mN)  

1 ,0.0000 ,0.64946 ,5.34985 ,52.49273 
2 ,0.2125 ,0.64955 ,5.34301 ,52.42557 
3 ,0.6452 ,0.65081 ,5.34301 ,52.42557 
4 ,0.9013 ,0.65320 ,5.33616 ,52.35841 
5 ,1.1255 ,0.65533 ,5.34643 ,52.45915 
6 ,1.3170 ,0.65750 ,5.33958 ,52.39199 
7 ,1.5255 ,0.65937 ,5.32247 ,52.22410 
8 ,1.7178 ,0.66138 ,5.33274 ,52.32484 
9 ,1.9097 ,0.66344 ,5.29167 ,51.92190 
10 ,2.1017 ,0.66524 ,5.30878 ,52.08979 
11 ,2.2938 ,0.66712 ,5.25745 ,51.58611 
12 ,2.4858 ,0.66905 ,5.23692 ,51.38464 
13 ,2.6776 ,0.67109 ,5.21296 ,51.14960 
14 ,2.8698 ,0.67292 ,5.18216 ,50.84739 
15 ,3.0778 ,0.67491 ,5.18901 ,50.91455 
16 ,3.3180 ,0.67736 ,5.17532 ,50.78023 
17 ,3.5101 ,0.67934 ,5.13425 ,50.37729 
18 ,3.7181 ,0.68135 ,5.12741 ,50.31014 
19 ,3.9102 ,0.68333 ,5.09661 ,50.00793 
20 ,4.1022 ,0.68527 ,5.08977 ,49.94078 
21 ,4.2783 ,0.68714 ,5.05897 ,49.63857 
22 ,4.4865 ,0.68903 ,5.03501 ,49.40352 
23 ,4.6785 ,0.69100 ,5.03159 ,49.36995 
24 ,4.8706 ,0.69289 ,5.00421 ,49.10132 
25 ,5.0467 ,0.69482 ,4.98710 ,48.93343 
26 ,5.2389 ,0.69661 ,4.98368 ,48.89985 
27 ,5.4469 ,0.69862 ,4.94603 ,48.53049 
28 ,5.6390 ,0.70063 ,4.93235 ,48.39618 
29 ,5.8470 ,0.70269 ,4.89470 ,48.02681 
30 ,6.0391 ,0.70460 ,4.89812 ,48.06039 
31 ,6.2151 ,0.70646 ,4.86732 ,47.75819 
32 ,6.3913 ,0.70824 ,4.83995 ,47.48956 
33 ,6.5993 ,0.71016 ,4.85021 ,47.59030 
34 ,6.7914 ,0.71212 ,4.80573 ,47.15378 
35 ,6.9994 ,0.71423 ,4.81257 ,47.22093 
36 ,7.1916 ,0.71617 ,4.76466 ,46.75084 
37 ,7.3838 ,0.71809 ,4.76808 ,46.78442 
38 ,7.5919 ,0.72012 ,4.73728 ,46.48221 
39 ,7.7841 ,0.72203 ,4.73044 ,46.41506 
40 ,8.0083 ,0.72426 ,4.68253 ,45.94496 
41 ,8.2003 ,0.72630 ,4.67568 ,45.87780 
42 ,8.3925 ,0.72811 ,4.65515 ,45.67633 
43 ,8.6003 ,0.73019 ,4.65515 ,45.67633 
44 ,8.7922 ,0.73210 ,4.60724 ,45.20624 
45 ,8.9843 ,0.73398 ,4.62093 ,45.34055 
46 ,9.1927 ,0.73607 ,4.58671 ,45.00477 
47 ,9.4007 ,0.73818 ,4.57302 ,44.87045 
48 ,9.6086 ,0.74023 ,4.55591 ,44.70256 
49 ,9.8170 ,0.74225 ,4.54222 ,44.56825 
50 ,10.0090 ,0.74432 ,4.51142 ,44.26604 
51 ,10.2171 ,0.74630 ,4.50457 ,44.19889 
52 ,10.4087 ,0.74829 ,4.48062 ,43.96384 
53 ,10.6012 ,0.75023 ,4.46351 ,43.79595 
54 ,10.8092 ,0.75230 ,4.44298 ,43.59448 
55 ,11.0174 ,0.75431 ,4.41902 ,43.35943 
56 ,11.2251 ,0.75637 ,4.39849 ,43.15796 
57 ,11.4173 ,0.75832 ,4.38138 ,42.99007 
58 ,11.6097 ,0.76029 ,4.35742 ,42.75502 
59 ,11.8018 ,0.76221 ,4.35742 ,42.75502 
60 ,12.0257 ,0.76440 ,4.32662 ,42.45282 
61 ,12.2180 ,0.76638 ,4.31636 ,42.35208 
62 ,12.4097 ,0.76829 ,4.28556 ,42.04988 
63 ,12.6182 ,0.77036 ,4.27187 ,41.91556 
64 ,12.8101 ,0.77226 ,4.24791 ,41.68051 
65 ,13.0021 ,0.77421 ,4.24107 ,41.61336 
66 ,13.1943 ,0.77612 ,4.20685 ,41.27758 
67 ,13.4181 ,0.77819 ,4.20342 ,41.24400 
68 ,13.6266 ,0.78039 ,4.17605 ,40.97537 
69 ,13.8348 ,0.78256 ,4.14525 ,40.67317 
70 ,14.0426 ,0.78457 ,4.14525 ,40.67317 
71 ,14.2348 ,0.78653 ,4.11787 ,40.40454 
72 ,14.4429 ,0.78854 ,4.11445 ,40.37096 
73 ,14.6508 ,0.79061 ,4.07680 ,40.00160 
74 ,14.8593 ,0.79274 ,4.06996 ,39.93444 
75 ,15.0510 ,0.79469 ,4.05285 ,39.76655 
76 ,15.2592 ,0.79679 ,4.02889 ,39.53150 
77 ,15.4671 ,0.79881 ,4.01520 ,39.39719 
78 ,15.6752 ,0.80090 ,3.97414 ,38.99425 
79 ,15.8671 ,0.80281 ,3.97414 ,38.99425 
80 ,16.0595 ,0.80476 ,3.95703 ,38.82636 
81 ,16.2514 ,0.80670 ,3.92965 ,38.55773 
82 ,16.4438 ,0.80859 ,3.93992 ,38.65847 
83 ,16.6356 ,0.81055 ,3.88858 ,38.15479 
84 ,16.8441 ,0.81260 ,3.89885 ,38.25553 
85 ,17.0518 ,0.81470 ,3.85779 ,37.85259 
86 ,17.2600 ,0.81679 ,3.83725 ,37.65112 
87 ,17.4681 ,0.81880 ,3.82699 ,37.55038 
88 ,17.6602 ,0.82075 ,3.80303 ,37.31534 
89 ,17.8682 ,0.82276 ,3.78592 ,37.14744 
90 ,18.0602 ,0.82471 ,3.76539 ,36.94597 
91 ,18.2522 ,0.82668 ,3.76196 ,36.91240 
92 ,18.4446 ,0.82864 ,3.75170 ,36.81166 
93 ,18.6526 ,0.83066 ,3.72432 ,36.54303 
94 ,18.8446 ,0.83263 ,3.72090 ,36.50946 
95 ,19.0527 ,0.83465 ,3.67641 ,36.07294 
96 ,19.2609 ,0.83678 ,3.66272 ,35.93863 
97 ,19.4689 ,0.83884 ,3.65930 ,35.90505 
98 ,19.6770 ,0.84092 ,3.61139 ,35.43495 
99 ,19.8690 ,0.84283 ,3.61139 ,35.43495 
100 ,20.0610 ,0.84474 ,3.58743 ,35.19990 
101 ,20.2532 ,0.84667 ,3.57375 ,35.06559 
102 ,20.4454 ,0.84859 ,3.57717 ,35.09917 
103 ,20.6534 ,0.85066 ,3.52584 ,34.59549 
104 ,20.8613 ,0.85270 ,3.52584 ,34.59549 
105 ,21.0692 ,0.85480 ,3.51899 ,34.52834 
106 ,21.2774 ,0.85690 ,3.47792 ,34.12540 
107 ,21.4856 ,0.85898 ,3.47450 ,34.09182 
108 ,21.6778 ,0.86093 ,3.44028 ,33.75604 
109 ,21.8857 ,0.86303 ,3.44028 ,33.75604 
110 ,22.0781 ,0.86491 ,3.40264 ,33.38667 
111 ,22.2860 ,0.86701 ,3.41290 ,33.48741 
112 ,22.4781 ,0.86894 ,3.36499 ,33.01731 
113 ,22.6702 ,0.87085 ,3.38210 ,33.18520 
114 ,22.8622 ,0.87277 ,3.33762 ,32.74869 
115 ,23.0544 ,0.87466 ,3.33077 ,32.68153 
116 ,23.2621 ,0.87676 ,3.30682 ,32.44648 
117 ,23.4705 ,0.87883 ,3.29313 ,32.31217 
118 ,23.6626 ,0.88073 ,3.26575 ,32.04354 
119 ,23.8705 ,0.88281 ,3.26575 ,32.04354 
120 ,24.0948 ,0.88512 ,3.23495 ,31.74134 
121 ,24.3188 ,0.88727 ,3.20757 ,31.47271 
122 ,24.5106 ,0.88923 ,3.21442 ,31.53987 
123 ,24.7030 ,0.89114 ,3.18020 ,31.20409 
124 ,24.9271 ,0.89338 ,3.16993 ,31.10335 
125 ,25.1191 ,0.89533 ,3.14940 ,30.90188 
126 ,25.3273 ,0.89742 ,3.14940 ,30.90188 
127 ,25.5189 ,0.89930 ,3.11175 ,30.53252 
128 ,25.7111 ,0.90124 ,3.11518 ,30.56610 
129 ,25.9194 ,0.90333 ,3.07753 ,30.19674 
130 ,26.1116 ,0.90523 ,3.07411 ,30.16316 
131 ,26.3196 ,0.90733 ,3.03989 ,29.82737 
132 ,26.5278 ,0.90930 ,3.04331 ,29.86095 
133 ,26.7518 ,0.91157 ,3.01935 ,29.62590 
134 ,26.9599 ,0.91373 ,2.99882 ,29.42444 
135 ,27.1518 ,0.91562 ,2.99198 ,29.35728 
136 ,27.3602 ,0.91774 ,2.93722 ,28.82003 
137 ,27.5521 ,0.91962 ,2.96460 ,29.08865 
138 ,27.7600 ,0.92169 ,2.92696 ,28.71929 
139 ,27.9521 ,0.92367 ,2.93038 ,28.75287 
140 ,28.1446 ,0.92555 ,2.89616 ,28.41709 
141 ,28.3526 ,0.92765 ,2.88931 ,28.34993 
142 ,28.5604 ,0.92973 ,2.85167 ,27.98057 
143 ,28.7525 ,0.93166 ,2.86193 ,28.08130 
144 ,28.9607 ,0.93375 ,2.82429 ,27.71194 
145 ,29.1690 ,0.93578 ,2.81402 ,27.61121 
146 ,29.3606 ,0.93772 ,2.79007 ,27.37616 
147 ,29.5691 ,0.93976 ,2.79007 ,27.37616 
148 ,29.7772 ,0.94189 ,2.77980 ,27.27542 
149 ,29.9690 ,0.94391 ,2.75243 ,27.00680 
150 ,30.1610 ,0.94572 ,2.73531 ,26.83891 
151 ,30.3693 ,0.94776 ,2.72505 ,26.73817 
152 ,30.5617 ,0.94973 ,2.69083 ,26.40239 
153 ,30.7696 ,0.95180 ,2.69767 ,26.46954 
154 ,30.9772 ,0.95391 ,2.67714 ,26.26807 
155 ,31.1857 ,0.95598 ,2.65318 ,26.03303 
156 ,31.3938 ,0.95801 ,2.64292 ,25.93229 
157 ,31.5698 ,0.95995 ,2.62238 ,25.73082 
158 ,31.7618 ,0.96172 ,2.60869 ,25.59651 
159 ,31.9541 ,0.96363 ,2.61554 ,25.66367 
160 ,32.1456 ,0.96562 ,2.58132 ,25.32788 
161 ,32.3381 ,0.96751 ,2.57789 ,25.29430 
162 ,32.5302 ,0.96945 ,2.55052 ,25.02568 
163 ,32.7223 ,0.97133 ,2.54025 ,24.92494 
164 ,32.9465 ,0.97344 ,2.52656 ,24.79063 
165 ,33.1385 ,0.97554 ,2.52314 ,24.75705 
166 ,33.3625 ,0.97774 ,2.48550 ,24.38769 
167 ,33.5706 ,0.97977 ,2.46839 ,24.21980 
168 ,33.7627 ,0.98172 ,2.44785 ,24.01833 
169 ,33.9707 ,0.98378 ,2.43759 ,23.91759 
170 ,34.1627 ,0.98569 ,2.43074 ,23.85044 
171 ,34.3868 ,0.98795 ,2.40336 ,23.58181 
172 ,34.5791 ,0.98994 ,2.40679 ,23.61539 
173 ,34.7869 ,0.99197 ,2.37941 ,23.34676 
174 ,34.9792 ,0.99386 ,2.36572 ,23.21245 
175 ,35.2193 ,0.99611 ,2.34177 ,22.97740 
176 ,35.4109 ,0.99831 ,2.30754 ,22.64162 
177 ,35.6032 ,1.00012 ,2.32808 ,22.84309 
178 ,35.8115 ,1.00219 ,2.30070 ,22.57446 
179 ,36.0034 ,1.00412 ,2.28017 ,22.37299 
180 ,36.2114 ,1.00622 ,2.25621 ,22.13794 
181 ,36.4037 ,1.00809 ,2.23910 ,21.97005 
182 ,36.6117 ,1.01016 ,2.24594 ,22.03721 
183 ,36.8200 ,1.01226 ,2.22199 ,21.80216 
184 ,37.0120 ,1.01418 ,2.20488 ,21.63427 
185 ,37.2202 ,1.01622 ,2.19461 ,21.53353 
186 ,37.4445 ,1.01841 ,2.16039 ,21.19775 
187 ,37.6524 ,1.02058 ,2.15012 ,21.09702 
188 ,37.8443 ,1.02250 ,2.12959 ,20.89555 
189 ,38.0366 ,1.02447 ,2.14670 ,21.06344 
190 ,38.2446 ,1.02647 ,2.10221 ,20.62692 
191 ,38.4368 ,1.02850 ,2.10221 ,20.62692 
192 ,38.6444 ,1.03054 ,2.07484 ,20.35829 
193 ,38.8529 ,1.03258 ,2.06799 ,20.29114 
194 ,39.0610 ,1.03470 ,2.05088 ,20.12325 
195 ,39.2690 ,1.03672 ,2.02350 ,19.85462 
196 ,39.4610 ,1.03867 ,2.04404 ,20.05609 
197 ,39.6531 ,1.04059 ,1.99613 ,19.58599 
198 ,39.8609 ,1.04263 ,2.00297 ,19.65315 
199 ,40.0533 ,1.04463 ,1.97559 ,19.38452 
200 ,40.2613 ,1.04663 ,1.95848 ,19.21663 
201 ,40.4695 ,1.04878 ,1.93795 ,19.01516 
202 ,40.6612 ,1.05068 ,1.93795 ,19.01516 
203 ,40.8372 ,1.05256 ,1.91399 ,18.78011 
204 ,41.0458 ,1.05453 ,1.90031 ,18.64580 
205 ,41.2538 ,1.05661 ,1.89346 ,18.57864 
206 ,41.4460 ,1.05852 ,1.86951 ,18.34360 
207 ,41.6380 ,1.06047 ,1.86266 ,18.27644 
208 ,41.8461 ,1.06253 ,1.83528 ,18.00781 
209 ,42.0698 ,1.06472 ,1.82160 ,17.87350 
210 ,42.2621 ,1.06670 ,1.81817 ,17.83992 
211 ,42.4542 ,1.06861 ,1.79764 ,17.63845 
212 ,42.6463 ,1.07059 ,1.79080 ,17.57129 
213 ,42.8544 ,1.07254 ,1.77711 ,17.43698 
214 ,43.0621 ,1.07467 ,1.74973 ,17.16836 
215 ,43.2704 ,1.07677 ,1.73604 ,17.03404 
216 ,43.4788 ,1.07881 ,1.72920 ,16.96689 
217 ,43.6869 ,1.08092 ,1.69498 ,16.63110 
218 ,43.8948 ,1.08293 ,1.69840 ,16.66468 
219 ,44.0869 ,1.08490 ,1.67786 ,16.46321 
220 ,44.2790 ,1.08694 ,1.66075 ,16.29532 
221 ,44.4868 ,1.08891 ,1.64707 ,16.16101 
222 ,44.6952 ,1.09097 ,1.64707 ,16.16101 
223 ,44.9033 ,1.09306 ,1.63338 ,16.02669 
224 ,45.0952 ,1.09506 ,1.60600 ,15.75807 
225 ,45.3353 ,1.09728 ,1.59573 ,15.65733 
226 ,45.5436 ,1.09948 ,1.59231 ,15.62375 
227 ,45.7677 ,1.10172 ,1.54782 ,15.18724 
228 ,45.9594 ,1.10366 ,1.55124 ,15.22081 
229 ,46.1678 ,1.10573 ,1.53756 ,15.08650 
230 ,46.3596 ,1.10764 ,1.52387 ,14.95219 
231 ,46.5519 ,1.10954 ,1.50333 ,14.75072 
232 ,46.7599 ,1.11163 ,1.51018 ,14.81787 
233 ,46.9521 ,1.11356 ,1.46911 ,14.41493 
234 ,47.1440 ,1.11545 ,1.46911 ,14.41493 
235 ,47.3521 ,1.11752 ,1.44516 ,14.17989 
236 ,47.5760 ,1.11974 ,1.44174 ,14.14631 
237 ,47.7845 ,1.12188 ,1.42120 ,13.94484 
238 ,47.9766 ,1.12379 ,1.39040 ,13.64263 
239 ,48.1842 ,1.12582 ,1.39040 ,13.64263 
240 ,48.3921 ,1.12793 ,1.36987 ,13.44116 
241 ,48.6003 ,1.13004 ,1.36645 ,13.40759 
242 ,48.8249 ,1.13226 ,1.35276 ,13.27327 
243 ,49.0488 ,1.13455 ,1.32880 ,13.03822 
244 ,49.2409 ,1.13646 ,1.33223 ,13.07180 
245 ,49.4330 ,1.13834 ,1.29800 ,12.73602 
246 ,49.6407 ,1.14045 ,1.30827 ,12.83675 
247 ,49.8329 ,1.14243 ,1.27405 ,12.50097 
248 ,50.0413 ,1.14446 ,1.27747 ,12.53455 
249 ,50.2333 ,1.14634 ,1.24667 ,12.23235 
250 ,50.4413 ,1.14844 ,1.25009 ,12.26592 
251 ,50.6335 ,1.15038 ,1.21245 ,11.89656 
252 ,50.8415 ,1.15246 ,1.21929 ,11.96372 
253 ,51.0498 ,1.15450 ,1.18507 ,11.62794 
254 ,51.2417 ,1.15647 ,1.18165 ,11.59436 
255 ,51.4498 ,1.15852 ,1.16796 ,11.46004 
256 ,51.6416 ,1.16046 ,1.15770 ,11.35931 
257 ,51.8496 ,1.16252 ,1.13374 ,11.12426 
258 ,52.0421 ,1.16446 ,1.13032 ,11.09068 
259 ,52.2499 ,1.16657 ,1.11663 ,10.95637 
260 ,52.4579 ,1.16855 ,1.11663 ,10.95637 
261 ,52.6824 ,1.17074 ,1.07556 ,10.55343 
262 ,52.8900 ,1.17290 ,1.07214 ,10.51985 
263 ,53.0985 ,1.17499 ,1.06187 ,10.41912 
264 ,53.3226 ,1.17724 ,1.05845 ,10.38554 
265 ,53.5147 ,1.17921 ,1.01739 ,9.98260 
266 ,53.7226 ,1.18116 ,1.01396 ,9.94902 
267 ,53.9149 ,1.18316 ,0.99685 ,9.78113 
268 ,54.1228 ,1.18527 ,1.00370 ,9.84829 
269 ,54.3150 ,1.18716 ,0.96948 ,9.51250 
270 ,54.5070 ,1.18909 ,0.97290 ,9.54608 
271 ,54.6991 ,1.19103 ,0.95237 ,9.34461 
272 ,54.9073 ,1.19308 ,0.96263 ,9.44535 
273 ,55.0990 ,1.19504 ,0.92841 ,9.10956 
274 ,55.3235 ,1.19711 ,0.91472 ,8.97525 
275 ,55.5475 ,1.19944 ,0.89419 ,8.77378 
276 ,55.7397 ,1.20141 ,0.88392 ,8.67305 
277 ,55.9478 ,1.20353 ,0.88734 ,8.70662 
278 ,56.1714 ,1.20565 ,0.85654 ,8.40442 
279 ,56.3797 ,1.20775 ,0.84970 ,8.33726 
280 ,56.6039 ,1.21003 ,0.84628 ,8.30368 
281 ,56.8281 ,1.21225 ,0.81548 ,8.00148 
282 ,57.0362 ,1.21433 ,0.80179 ,7.86717 
283 ,57.2283 ,1.21636 ,0.79495 ,7.80001 
284 ,57.4364 ,1.21834 ,0.76415 ,7.49780 
285 ,57.6444 ,1.22043 ,0.78126 ,7.66570 
286 ,57.8366 ,1.22234 ,0.74361 ,7.29633 
287 ,58.0447 ,1.22438 ,0.75388 ,7.39707 
288 ,58.2367 ,1.22642 ,0.71624 ,7.02771 
289 ,58.4123 ,1.22824 ,0.73335 ,7.19560 
290 ,58.6204 ,1.23015 ,0.72308 ,7.09486 
291 ,58.8129 ,1.23213 ,0.69228 ,6.79266 
292 ,59.0050 ,1.23405 ,0.68886 ,6.75908 
293 ,59.2130 ,1.23611 ,0.65806 ,6.45688 
294 ,59.4048 ,1.23806 ,0.67517 ,6.62477 
295 ,59.5967 ,1.23993 ,0.64779 ,6.35614 
296 ,59.7888 ,1.24188 ,0.63753 ,6.25541 
297 ,59.9969 ,1.24401 ,0.62042 ,6.08752 
298 ,60.1889 ,1.24589 ,0.61357 ,6.02036 
299 ,60.3811 ,1.24781 ,0.59988 ,5.88605 
300 ,60.5572 ,1.24971 ,0.58619 ,5.75173 
301 ,60.7656 ,1.25165 ,0.58619 ,5.75173 
302 ,60.9738 ,1.25372 ,0.56566 ,5.55026 
303 ,61.1978 ,1.25580 ,0.55539 ,5.44953 
304 ,61.4215 ,1.25816 ,0.55197 ,5.41595 
305 ,61.6135 ,1.26013 ,0.52117 ,5.11375 
306 ,61.8058 ,1.26207 ,0.52802 ,5.18090 
307 ,62.0140 ,1.26411 ,0.50064 ,4.91228 
308 ,62.2061 ,1.26608 ,0.49380 ,4.84512 
309 ,62.4304 ,1.26822 ,0.46642 ,4.57649 
310 ,62.6220 ,1.27020 ,0.45273 ,4.44218 
311 ,62.7981 ,1.27208 ,0.45273 ,4.44218 
312 ,62.9906 ,1.27387 ,0.44931 ,4.40860 
313 ,63.1824 ,1.27581 ,0.42193 ,4.13997 
314 ,63.3905 ,1.27788 ,0.42877 ,4.20713 
315 ,63.5829 ,1.27987 ,0.40824 ,4.00566 
316 ,63.7909 ,1.28189 ,0.39455 ,3.87135 
317 ,63.9669 ,1.28379 ,0.39797 ,3.90493 
318 ,64.1589 ,1.28558 ,0.36375 ,3.56914 
319 ,64.3513 ,1.28750 ,0.36375 ,3.56914 
320 ,64.5592 ,1.28959 ,0.33980 ,3.33410 
321 ,64.7672 ,1.29164 ,0.34664 ,3.40125 
322 ,64.9588 ,1.29354 ,0.32953 ,3.23336 
323 ,65.1514 ,1.29550 ,0.32953 ,3.23336 
324 ,65.3436 ,1.29741 ,0.30900 ,3.03189 
325 ,65.5517 ,1.29951 ,0.29873 ,2.93116 
326 ,65.7594 ,1.30152 ,0.27820 ,2.72969 
327 ,65.9677 ,1.30364 ,0.27820 ,2.72969 
328 ,66.1599 ,1.30558 ,0.25424 ,2.49464 
329 ,66.3679 ,1.30765 ,0.26109 ,2.56179 
330 ,66.5760 ,1.30973 ,0.20976 ,2.05812 
331 ,66.7840 ,1.31184 ,0.22344 ,2.19243 
332 ,66.9761 ,1.31375 ,0.20291 ,1.99096 
333 ,67.1677 ,1.31565 ,0.20976 ,2.05812 
334 ,67.3923 ,1.31789 ,0.19264 ,1.89023 
335 ,67.6005 ,1.31996 ,0.17211 ,1.68876 
336 ,67.7922 ,1.32190 ,0.16869 ,1.65518 
337 ,68.0006 ,1.32400 ,0.14816 ,1.45371 
338 ,68.1924 ,1.32589 ,0.14816 ,1.45371 
339 ,68.4167 ,1.32810 ,0.13105 ,1.28582 
340 ,68.6084 ,1.33017 ,0.12420 ,1.21866 
341 ,68.8169 ,1.33210 ,0.10367 ,1.01719 
342 ,69.0250 ,1.33419 ,0.10025 ,0.98361 
343 ,69.2330 ,1.33633 ,0.10025 ,0.98361 
344 ,69.4411 ,1.33836 ,0.06945 ,0.68141 
345 ,69.6331 ,1.34030 ,0.07629 ,0.74857 
346 ,69.8254 ,1.34216 ,0.06260 ,0.61425 
347 ,70.0174 ,1.34414 ,0.03865 ,0.37920 
348 ,70.2095 ,1.34607 ,0.04207 ,0.41278 
349 ,70.4172 ,1.34812 ,0.02154 ,0.21131 
350 ,70.6254 ,1.35019 ,0.01469 ,0.14416 
351 ,70.8338 ,1.35231 ,0.00443 ,0.04342 
352 ,71.0417 ,1.35436 ,-0.00926 ,-0.09089 
353 ,71.2659 ,1.35646 ,-0.01269 ,-0.12447 
354 ,71.4740 ,1.35868 ,-0.04006 ,-0.39310 
355 ,71.6980 ,1.36088 ,-0.05375 ,-0.52741 
356 ,71.8901 ,1.36296 ,-0.04691 ,-0.46025 
357 ,72.0821 ,1.36477 ,-0.07771 ,-0.76246 
358 ,72.3066 ,1.36698 ,-0.07428 ,-0.72888 
359 ,72.5144 ,1.36908 ,-0.07771 ,-0.76246 
360 ,72.7065 ,1.37101 ,-0.10166 ,-0.99751 
361 ,72.9146 ,1.37308 ,-0.09824 ,-0.96393 
362 ,73.1065 ,1.37506 ,-0.11535 ,-1.13182 
363 ,73.2988 ,1.37694 ,-0.13588 ,-1.33329 
364 ,73.4907 ,1.37888 ,-0.13246 ,-1.29971 
365 ,73.6985 ,1.38089 ,-0.15642 ,-1.53476 
366 ,73.9230 ,1.38302 ,-0.14957 ,-1.46760 
367 ,74.1150 ,1.38510 ,-0.17695 ,-1.73623 
368 ,74.3071 ,1.38707 ,-0.18722 ,-1.83696 
369 ,74.5152 ,1.38909 ,-0.18722 ,-1.83696 
370 ,74.7071 ,1.39100 ,-0.19406 ,-1.90412 
371 ,74.9152 ,1.39315 ,-0.20775 ,-2.03843 
372 ,75.1075 ,1.39503 ,-0.23170 ,-2.27348 
373 ,75.3154 ,1.39707 ,-0.22828 ,-2.23990 
374 ,75.5237 ,1.39918 ,-0.24881 ,-2.44137 
375 ,75.7317 ,1.40118 ,-0.26250 ,-2.57569 
376 ,75.9233 ,1.40319 ,-0.26250 ,-2.57569 
377 ,76.1159 ,1.40505 ,-0.26935 ,-2.64284 
378 ,76.3240 ,1.40714 ,-0.28304 ,-2.77716 
379 ,76.5160 ,1.40911 ,-0.28304 ,-2.77716 
380 ,76.7081 ,1.41100 ,-0.30699 ,-3.01220 
381 ,76.9161 ,1.41306 ,-0.31384 ,-3.07936 
382 ,77.1083 ,1.41501 ,-0.32068 ,-3.14652 
383 ,77.3164 ,1.41707 ,-0.32410 ,-3.18010 
384 ,77.5404 ,1.41928 ,-0.36175 ,-3.54946 
385 ,77.7326 ,1.42122 ,-0.34464 ,-3.38156 
386 ,77.9407 ,1.42338 ,-0.37886 ,-3.71735 
387 ,78.1327 ,1.42527 ,-0.36175 ,-3.54946 
388 ,78.3087 ,1.42712 ,-0.39597 ,-3.88524 
389 ,78.5168 ,1.42903 ,-0.38912 ,-3.81808 
390 ,78.7250 ,1.43107 ,-0.40281 ,-3.95240 
391 ,78.9330 ,1.43324 ,-0.40281 ,-3.95240 
392 ,79.1409 ,1.43531 ,-0.43361 ,-4.25460 
393 ,79.3493 ,1.43738 ,-0.42677 ,-4.18744 
394 ,79.5568 ,1.43948 ,-0.44046 ,-4.32176 
395 ,79.7495 ,1.44142 ,-0.45757 ,-4.48965 
396 ,79.9574 ,1.44348 ,-0.46783 ,-4.59038 
397 ,80.1494 ,1.44552 ,-0.47468 ,-4.65754 
398 ,80.3414 ,1.44734 ,-0.48837 ,-4.79185 
399 ,80.5335 ,1.44923 ,-0.46783 ,-4.59038 
400 ,80.7258 ,1.45116 ,-0.50548 ,-4.95975 
401 ,80.9338 ,1.45327 ,-0.50206 ,-4.92617 
402 ,81.1418 ,1.45530 ,-0.52601 ,-5.16121 
403 ,81.3175 ,1.45719 ,-0.51917 ,-5.09406 
404 ,81.5261 ,1.45917 ,-0.53628 ,-5.26195 
405 ,81.7341 ,1.46126 ,-0.54997 ,-5.39626 
406 ,81.9422 ,1.46333 ,-0.57392 ,-5.63131 
407 ,82.1504 ,1.46544 ,-0.56365 ,-5.53058 
408 ,82.3584 ,1.46747 ,-0.58419 ,-5.73205 
409 ,82.5504 ,1.46944 ,-0.58077 ,-5.69847 
410 ,82.7585 ,1.47146 ,-0.58761 ,-5.76562 
411 ,82.9507 ,1.47340 ,-0.60472 ,-5.93352 
412 ,83.1587 ,1.47551 ,-0.61156 ,-6.00067 
413 ,83.3510 ,1.47739 ,-0.61841 ,-6.06783 
414 ,83.5583 ,1.47940 ,-0.62868 ,-6.16856 
415 ,83.7507 ,1.48140 ,-0.64236 ,-6.30288 
416 ,83.9585 ,1.48352 ,-0.65947 ,-6.47077 
417 ,84.1666 ,1.48558 ,-0.67316 ,-6.60508 
418 ,84.3748 ,1.48758 ,-0.66290 ,-6.50435 
419 ,84.5831 ,1.48972 ,-0.68685 ,-6.73940 
420 ,84.8232 ,1.49198 ,-0.69370 ,-6.80655 
421 ,85.0315 ,1.49417 ,-0.69712 ,-6.84013 
422 ,85.2236 ,1.49612 ,-0.71423 ,-7.00802 
423 ,85.4156 ,1.49809 ,-0.70054 ,-6.87371 
424 ,85.6234 ,1.50015 ,-0.72450 ,-7.10876 
425 ,85.8156 ,1.50204 ,-0.72107 ,-7.07518 
426 ,86.0396 ,1.50430 ,-0.74161 ,-7.27665 
427 ,86.2320 ,1.50622 ,-0.75187 ,-7.37738 
428 ,86.4240 ,1.50818 ,-0.77241 ,-7.57885 
429 ,86.6319 ,1.51023 ,-0.76898 ,-7.54527 
430 ,86.8238 ,1.51211 ,-0.78610 ,-7.71317 
431 ,87.0323 ,1.51420 ,-0.77925 ,-7.64601 
432 ,87.2403 ,1.51632 ,-0.78952 ,-7.74674 
433 ,87.4324 ,1.51819 ,-0.80321 ,-7.88106 
434 ,87.6403 ,1.52027 ,-0.81347 ,-7.98179 
435 ,87.8323 ,1.52223 ,-0.83743 ,-8.21684 
436 ,88.0403 ,1.52422 ,-0.84427 ,-8.28400 
437 ,88.2489 ,1.52634 ,-0.84769 ,-8.31758 
438 ,88.4570 ,1.52842 ,-0.85454 ,-8.38473 
439 ,88.6648 ,1.53058 ,-0.87507 ,-8.58620 
440 ,88.8571 ,1.53243 ,-0.85796 ,-8.41831 
441 ,89.0970 ,1.53475 ,-0.88192 ,-8.65336 
442 ,89.2893 ,1.53677 ,-0.90245 ,-8.85483 
443 ,89.4974 ,1.53890 ,-0.89560 ,-8.78767 
444 ,89.7212 ,1.54106 ,-0.92298 ,-9.05630 
445 ,89.9295 ,1.54317 ,-0.92640 ,-9.08988 
446 ,90.1371 ,1.54532 ,-0.92640 ,-9.08988 
447 ,90.3296 ,1.54714 ,-0.95036 ,-9.32492 
448 ,90.5217 ,1.54912 ,-0.95378 ,-9.35850 
449 ,90.7297 ,1.55115 ,-0.96747 ,-9.49282 
450 ,90.9380 ,1.55324 ,-0.95378 ,-9.35850 
451 ,91.1615 ,1.55543 ,-0.97431 ,-9.55997 
452 ,91.3701 ,1.55757 ,-0.98800 ,-9.69429 
453 ,91.5939 ,1.55979 ,-0.98116 ,-9.62713 
454 ,91.8020 ,1.56183 ,-1.02222 ,-10.03007 
455 ,92.0100 ,1.56393 ,-1.00169 ,-9.82860 
456 ,92.2022 ,1.56588 ,-1.01538 ,-9.96291 
457 ,92.4103 ,1.56797 ,-1.03249 ,-10.13080 
458 ,92.6186 ,1.57005 ,-1.02565 ,-10.06365 
459 ,92.8267 ,1.57212 ,-1.04960 ,-10.29869 
460 ,93.0506 ,1.57432 ,-1.05645 ,-10.36585 
461 ,93.2427 ,1.57630 ,-1.07014 ,-10.50016 
462 ,93.4508 ,1.57833 ,-1.07356 ,-10.53374 
