Data stamp = , 04-05-2022 22:19:45 416

Calibration Values: 
Slope = , 26.54 , g/V 
Offset Voltage at no contact = , -0.501760 , V 

No , Time , Stage Position ,   Mass , Force 
   ,  (s) ,      (mm)      ,   (g)  , (mN)  

1 ,0.0000 ,0.64952 ,5.29167 ,51.92190 
2 ,0.2190 ,0.64962 ,5.30878 ,52.08979 
3 ,0.5875 ,0.65067 ,5.29852 ,51.98905 
4 ,0.8276 ,0.65256 ,5.29852 ,51.98905 
5 ,1.0519 ,0.65476 ,5.28825 ,51.88832 
6 ,1.2595 ,0.65688 ,5.29852 ,51.98905 
7 ,1.4521 ,0.65873 ,5.28483 ,51.85474 
8 ,1.6602 ,0.66087 ,5.28483 ,51.85474 
9 ,1.8681 ,0.66291 ,5.24718 ,51.48538 
10 ,2.0923 ,0.66507 ,5.23692 ,51.38464 
11 ,2.3160 ,0.66736 ,5.21296 ,51.14960 
12 ,2.5245 ,0.66950 ,5.18901 ,50.91455 
13 ,2.7325 ,0.67157 ,5.15479 ,50.57876 
14 ,2.9247 ,0.67352 ,5.15479 ,50.57876 
15 ,3.1485 ,0.67572 ,5.10003 ,50.04151 
16 ,3.3408 ,0.67768 ,5.11372 ,50.17583 
17 ,3.5487 ,0.67977 ,5.06581 ,49.70573 
18 ,3.7569 ,0.68184 ,5.04528 ,49.50426 
19 ,3.9651 ,0.68394 ,5.03501 ,49.40352 
20 ,4.1732 ,0.68594 ,5.01790 ,49.23563 
21 ,4.3812 ,0.68807 ,5.00421 ,49.10132 
22 ,4.5731 ,0.69008 ,4.95630 ,48.63122 
23 ,4.7654 ,0.69195 ,4.95288 ,48.59764 
24 ,4.9894 ,0.69409 ,4.92208 ,48.29544 
25 ,5.2137 ,0.69635 ,4.90839 ,48.16113 
26 ,5.4215 ,0.69846 ,4.88786 ,47.95966 
27 ,5.6133 ,0.70036 ,4.86048 ,47.69103 
28 ,5.8376 ,0.70253 ,4.83995 ,47.48956 
29 ,6.0460 ,0.70474 ,4.81941 ,47.28809 
30 ,6.2540 ,0.70677 ,4.79888 ,47.08662 
31 ,6.4458 ,0.70872 ,4.78519 ,46.95231 
32 ,6.6382 ,0.71062 ,4.79204 ,47.01946 
33 ,6.8464 ,0.71272 ,4.74070 ,46.51579 
34 ,7.0544 ,0.71479 ,4.74070 ,46.51579 
35 ,7.2626 ,0.71687 ,4.71333 ,46.24716 
36 ,7.4707 ,0.71892 ,4.68253 ,45.94496 
37 ,7.6946 ,0.72117 ,4.66884 ,45.81065 
38 ,7.8865 ,0.72315 ,4.63804 ,45.50844 
39 ,8.0628 ,0.72500 ,4.63462 ,45.47486 
40 ,8.2549 ,0.72681 ,4.61408 ,45.27339 
41 ,8.4470 ,0.72872 ,4.57986 ,44.93761 
42 ,8.6550 ,0.73089 ,4.56617 ,44.80330 
43 ,8.8470 ,0.73271 ,4.54222 ,44.56825 
44 ,9.0553 ,0.73481 ,4.55933 ,44.73614 
45 ,9.2792 ,0.73704 ,4.52511 ,44.40036 
46 ,9.4875 ,0.73910 ,4.48746 ,44.03100 
47 ,9.6956 ,0.74114 ,4.49431 ,44.09815 
48 ,9.8875 ,0.74312 ,4.44982 ,43.66163 
49 ,10.0638 ,0.74497 ,4.44982 ,43.66163 
50 ,10.2558 ,0.74679 ,4.44640 ,43.62806 
51 ,10.4478 ,0.74873 ,4.40191 ,43.19154 
52 ,10.6398 ,0.75061 ,4.40191 ,43.19154 
53 ,10.8320 ,0.75252 ,4.37795 ,42.95649 
54 ,11.0241 ,0.75453 ,4.34373 ,42.62071 
55 ,11.2324 ,0.75656 ,4.34031 ,42.58713 
56 ,11.4403 ,0.75863 ,4.32662 ,42.45282 
57 ,11.6484 ,0.76070 ,4.30267 ,42.21777 
58 ,11.8561 ,0.76274 ,4.30267 ,42.21777 
59 ,12.0806 ,0.76490 ,4.24449 ,41.64694 
60 ,12.3046 ,0.76720 ,4.24791 ,41.68051 
61 ,12.5126 ,0.76934 ,4.21369 ,41.34473 
62 ,12.7367 ,0.77144 ,4.19316 ,41.14326 
63 ,12.9448 ,0.77367 ,4.17605 ,40.97537 
64 ,13.1365 ,0.77559 ,4.16920 ,40.90821 
65 ,13.3129 ,0.77747 ,4.14525 ,40.67317 
66 ,13.5209 ,0.77941 ,4.12471 ,40.47170 
67 ,13.7293 ,0.78154 ,4.10760 ,40.30380 
68 ,13.9374 ,0.78354 ,4.09391 ,40.16949 
69 ,14.1451 ,0.78567 ,4.06996 ,39.93444 
70 ,14.3690 ,0.78777 ,4.07338 ,39.96802 
71 ,14.5930 ,0.79014 ,4.03916 ,39.63224 
72 ,14.8012 ,0.79221 ,4.00152 ,39.26288 
73 ,14.9932 ,0.79418 ,4.00152 ,39.26288 
74 ,15.2018 ,0.79615 ,3.95361 ,38.79278 
75 ,15.4098 ,0.79833 ,3.96045 ,38.85994 
76 ,15.6178 ,0.80033 ,3.94334 ,38.69205 
77 ,15.8100 ,0.80234 ,3.91596 ,38.42342 
78 ,16.0181 ,0.80431 ,3.89885 ,38.25553 
79 ,16.2100 ,0.80636 ,3.88858 ,38.15479 
80 ,16.4182 ,0.80835 ,3.86805 ,37.95332 
81 ,16.6260 ,0.81043 ,3.84067 ,37.68470 
82 ,16.8185 ,0.81246 ,3.84067 ,37.68470 
83 ,17.0265 ,0.81448 ,3.80987 ,37.38249 
84 ,17.2187 ,0.81641 ,3.81672 ,37.44965 
85 ,17.4268 ,0.81852 ,3.77223 ,37.01313 
86 ,17.6349 ,0.82050 ,3.76881 ,36.97955 
87 ,17.8429 ,0.82263 ,3.73459 ,36.64377 
88 ,18.0509 ,0.82467 ,3.72774 ,36.57661 
89 ,18.2432 ,0.82664 ,3.69694 ,36.27441 
90 ,18.4670 ,0.82887 ,3.67299 ,36.03936 
91 ,18.6756 ,0.83094 ,3.67641 ,36.07294 
92 ,18.8832 ,0.83304 ,3.64903 ,35.80431 
93 ,19.0915 ,0.83515 ,3.63534 ,35.67000 
94 ,19.3154 ,0.83729 ,3.61481 ,35.46853 
95 ,19.5237 ,0.83944 ,3.58059 ,35.13275 
96 ,19.7318 ,0.84151 ,3.58059 ,35.13275 
97 ,19.9235 ,0.84350 ,3.53952 ,34.72981 
98 ,20.1159 ,0.84537 ,3.54295 ,34.76338 
99 ,20.3079 ,0.84729 ,3.50872 ,34.42760 
100 ,20.5322 ,0.84936 ,3.49846 ,34.32687 
101 ,20.7560 ,0.85171 ,3.48135 ,34.15898 
102 ,20.9478 ,0.85366 ,3.46766 ,34.02466 
103 ,21.1719 ,0.85577 ,3.45055 ,33.85677 
104 ,21.3645 ,0.85783 ,3.41290 ,33.48741 
105 ,21.5563 ,0.85978 ,3.42317 ,33.58814 
106 ,21.7806 ,0.86195 ,3.37526 ,33.11805 
107 ,21.9726 ,0.86391 ,3.37526 ,33.11805 
108 ,22.1808 ,0.86596 ,3.34446 ,32.81584 
109 ,22.3885 ,0.86811 ,3.33419 ,32.71511 
110 ,22.5965 ,0.87013 ,3.32051 ,32.58080 
111 ,22.7888 ,0.87206 ,3.30682 ,32.44648 
112 ,22.9971 ,0.87415 ,3.29313 ,32.31217 
113 ,23.4929 ,0.87765 ,3.25548 ,31.94281 
114 ,23.7335 ,0.88134 ,3.20415 ,31.43913 
115 ,23.9412 ,0.88359 ,3.20073 ,31.40555 
116 ,24.1331 ,0.88564 ,3.17335 ,31.13693 
117 ,24.3413 ,0.88759 ,3.15966 ,31.00262 
118 ,24.5492 ,0.88965 ,3.14940 ,30.90188 
119 ,24.7576 ,0.89178 ,3.12202 ,30.63325 
120 ,24.9498 ,0.89382 ,3.10149 ,30.43178 
121 ,25.1419 ,0.89560 ,3.08095 ,30.23031 
122 ,25.3338 ,0.89752 ,3.08438 ,30.26389 
123 ,25.5418 ,0.89955 ,3.04673 ,29.89453 
124 ,25.7499 ,0.90167 ,3.05358 ,29.96169 
125 ,25.9582 ,0.90374 ,3.01935 ,29.62590 
126 ,26.1664 ,0.90578 ,3.01251 ,29.55875 
127 ,26.3585 ,0.90778 ,2.97829 ,29.22297 
128 ,26.5664 ,0.90986 ,2.96802 ,29.12223 
129 ,26.7747 ,0.91189 ,2.96118 ,29.05507 
130 ,26.9827 ,0.91393 ,2.92696 ,28.71929 
131 ,27.1909 ,0.91603 ,2.92353 ,28.68571 
132 ,27.3987 ,0.91817 ,2.90985 ,28.55140 
133 ,27.5906 ,0.92008 ,2.89273 ,28.38351 
134 ,27.7830 ,0.92201 ,2.86878 ,28.14846 
135 ,27.9912 ,0.92399 ,2.85851 ,28.04772 
136 ,28.1989 ,0.92620 ,2.84140 ,27.87983 
137 ,28.3914 ,0.92806 ,2.82087 ,27.67836 
138 ,28.5833 ,0.93001 ,2.79691 ,27.44332 
139 ,28.7916 ,0.93208 ,2.80034 ,27.47689 
140 ,28.9996 ,0.93418 ,2.77638 ,27.24185 
141 ,29.1917 ,0.93609 ,2.75585 ,27.04038 
142 ,29.3836 ,0.93802 ,2.73874 ,26.87248 
143 ,29.5919 ,0.94002 ,2.73189 ,26.80533 
144 ,29.8000 ,0.94208 ,2.70109 ,26.50312 
145 ,30.0080 ,0.94420 ,2.68740 ,26.36881 
146 ,30.2162 ,0.94632 ,2.68740 ,26.36881 
147 ,30.4079 ,0.94824 ,2.65660 ,26.06661 
148 ,30.6164 ,0.95027 ,2.63949 ,25.89871 
149 ,30.8399 ,0.95251 ,2.60527 ,25.56293 
150 ,31.0322 ,0.95451 ,2.61896 ,25.69724 
151 ,31.2405 ,0.95654 ,2.58816 ,25.39504 
152 ,31.4166 ,0.95845 ,2.58132 ,25.32788 
153 ,31.6084 ,0.96027 ,2.56421 ,25.15999 
154 ,31.8007 ,0.96216 ,2.54710 ,24.99210 
155 ,31.9927 ,0.96411 ,2.54025 ,24.92494 
156 ,32.1849 ,0.96600 ,2.50603 ,24.58916 
157 ,32.3768 ,0.96795 ,2.50261 ,24.55558 
158 ,32.5691 ,0.96984 ,2.47865 ,24.32053 
159 ,32.7768 ,0.97194 ,2.46839 ,24.21980 
160 ,32.9529 ,0.97379 ,2.46839 ,24.21980 
161 ,33.1451 ,0.97567 ,2.42732 ,23.81686 
162 ,33.3535 ,0.97763 ,2.43074 ,23.85044 
163 ,33.5456 ,0.97961 ,2.39994 ,23.54823 
164 ,33.7695 ,0.98184 ,2.39994 ,23.54823 
165 ,33.9775 ,0.98386 ,2.37599 ,23.31318 
166 ,34.1858 ,0.98602 ,2.34861 ,23.04456 
167 ,34.4098 ,0.98822 ,2.34861 ,23.04456 
168 ,34.6342 ,0.99051 ,2.33834 ,22.94382 
169 ,34.8422 ,0.99257 ,2.29728 ,22.54088 
170 ,35.0344 ,0.99448 ,2.30412 ,22.60804 
171 ,35.2418 ,0.99656 ,2.26990 ,22.27226 
172 ,35.4345 ,0.99845 ,2.26306 ,22.20510 
173 ,35.6264 ,1.00041 ,2.23568 ,21.93647 
174 ,35.8185 ,1.00224 ,2.23226 ,21.90290 
175 ,35.9945 ,1.00418 ,2.22541 ,21.83574 
176 ,36.2187 ,1.00618 ,2.18777 ,21.46638 
177 ,36.4265 ,1.00838 ,2.19119 ,21.49996 
178 ,36.6350 ,1.01048 ,2.16381 ,21.23133 
179 ,36.8270 ,1.01240 ,2.14670 ,21.06344 
180 ,37.0190 ,1.01437 ,2.14670 ,21.06344 
181 ,37.2271 ,1.01637 ,2.11590 ,20.76123 
182 ,37.4188 ,1.01838 ,2.10221 ,20.62692 
183 ,37.6114 ,1.02023 ,2.09879 ,20.59334 
184 ,37.8512 ,1.02249 ,2.08168 ,20.42545 
185 ,38.0436 ,1.02455 ,2.05088 ,20.12325 
186 ,38.2517 ,1.02664 ,2.05430 ,20.15682 
187 ,38.4433 ,1.02858 ,2.02350 ,19.85462 
188 ,38.6518 ,1.03064 ,2.01666 ,19.78746 
189 ,38.8759 ,1.03285 ,1.99613 ,19.58599 
190 ,39.0840 ,1.03492 ,1.97559 ,19.38452 
191 ,39.2921 ,1.03711 ,1.97559 ,19.38452 
192 ,39.5002 ,1.03905 ,1.93453 ,18.98158 
193 ,39.6921 ,1.04110 ,1.93453 ,18.98158 
194 ,39.8843 ,1.04298 ,1.92084 ,18.84727 
195 ,40.0764 ,1.04488 ,1.92426 ,18.88085 
196 ,40.2684 ,1.04682 ,1.88319 ,18.47791 
197 ,40.4765 ,1.04887 ,1.85582 ,18.20928 
198 ,40.6843 ,1.05093 ,1.84555 ,18.10855 
199 ,40.8927 ,1.05305 ,1.84555 ,18.10855 
200 ,41.1007 ,1.05517 ,1.81475 ,17.80634 
201 ,41.2928 ,1.05703 ,1.82160 ,17.87350 
202 ,41.5010 ,1.05906 ,1.78395 ,17.50414 
203 ,41.7089 ,1.06119 ,1.79080 ,17.57129 
204 ,41.9333 ,1.06343 ,1.77026 ,17.36983 
205 ,42.1573 ,1.06566 ,1.74973 ,17.16836 
206 ,42.3654 ,1.06775 ,1.71893 ,16.86615 
207 ,42.5735 ,1.06982 ,1.72920 ,16.96689 
208 ,42.7814 ,1.07189 ,1.69498 ,16.63110 
209 ,42.9736 ,1.07388 ,1.69498 ,16.63110 
210 ,43.1656 ,1.07575 ,1.67102 ,16.39605 
211 ,43.3577 ,1.07764 ,1.65391 ,16.22816 
212 ,43.5818 ,1.07989 ,1.61969 ,15.89238 
213 ,43.7900 ,1.08206 ,1.62653 ,15.95954 
214 ,43.9816 ,1.08400 ,1.61284 ,15.82522 
215 ,44.1901 ,1.08600 ,1.61627 ,15.85880 
216 ,44.3979 ,1.08815 ,1.57862 ,15.48944 
217 ,44.6063 ,1.09014 ,1.56836 ,15.38871 
218 ,44.8144 ,1.09222 ,1.55467 ,15.25439 
219 ,45.0543 ,1.09449 ,1.52729 ,14.98577 
220 ,45.2785 ,1.09688 ,1.51702 ,14.88503 
221 ,45.4865 ,1.09900 ,1.51360 ,14.85145 
222 ,45.6947 ,1.10102 ,1.48965 ,14.61640 
223 ,45.9022 ,1.10309 ,1.47253 ,14.44851 
224 ,46.0944 ,1.10516 ,1.46569 ,14.38136 
225 ,46.3024 ,1.10714 ,1.45200 ,14.24704 
226 ,46.5110 ,1.10919 ,1.43831 ,14.11273 
227 ,46.7512 ,1.11158 ,1.43489 ,14.07915 
228 ,46.9593 ,1.11369 ,1.40751 ,13.81053 
229 ,47.1834 ,1.11586 ,1.38698 ,13.60906 
230 ,47.3754 ,1.11786 ,1.38698 ,13.60906 
231 ,47.5515 ,1.11974 ,1.36645 ,13.40759 
232 ,47.7598 ,1.12165 ,1.34934 ,13.23969 
233 ,47.9677 ,1.12376 ,1.32538 ,13.00465 
234 ,48.1918 ,1.12599 ,1.31854 ,12.93749 
235 ,48.3995 ,1.12803 ,1.29116 ,12.66886 
236 ,48.5920 ,1.13009 ,1.29800 ,12.73602 
237 ,48.7842 ,1.13194 ,1.26378 ,12.40024 
238 ,48.9922 ,1.13408 ,1.27063 ,12.46739 
239 ,49.2003 ,1.13605 ,1.24667 ,12.23235 
240 ,49.3923 ,1.13799 ,1.25009 ,12.26592 
241 ,49.6005 ,1.14004 ,1.21245 ,11.89656 
242 ,49.8082 ,1.14213 ,1.21929 ,11.96372 
243 ,50.0167 ,1.14420 ,1.18850 ,11.66151 
244 ,50.2085 ,1.14616 ,1.17823 ,11.56078 
245 ,50.4008 ,1.14806 ,1.16796 ,11.46004 
246 ,50.6084 ,1.15019 ,1.16112 ,11.39289 
247 ,50.8167 ,1.15217 ,1.12347 ,11.02353 
248 ,51.0087 ,1.15415 ,1.14058 ,11.19142 
249 ,51.2011 ,1.15605 ,1.10979 ,10.88921 
250 ,51.4092 ,1.15810 ,1.10294 ,10.82206 
251 ,51.6014 ,1.16011 ,1.07899 ,10.58701 
252 ,51.8094 ,1.16211 ,1.07899 ,10.58701 
253 ,52.0333 ,1.16438 ,1.06187 ,10.41912 
254 ,52.2257 ,1.16632 ,1.03450 ,10.15049 
255 ,52.4176 ,1.16826 ,1.03450 ,10.15049 
256 ,52.6098 ,1.17016 ,1.02765 ,10.08333 
257 ,52.7854 ,1.17202 ,1.00028 ,9.81471 
258 ,52.9937 ,1.17396 ,1.00028 ,9.81471 
259 ,53.2020 ,1.17607 ,0.97974 ,9.61324 
260 ,53.3940 ,1.17808 ,0.97290 ,9.54608 
261 ,53.5860 ,1.17994 ,0.94894 ,9.31103 
262 ,53.7942 ,1.18199 ,0.94894 ,9.31103 
263 ,54.0018 ,1.18406 ,0.93525 ,9.17672 
264 ,54.1944 ,1.18600 ,0.93525 ,9.17672 
265 ,54.3863 ,1.18792 ,0.90103 ,8.84094 
266 ,54.5946 ,1.18999 ,0.89419 ,8.77378 
267 ,54.8026 ,1.19205 ,0.87366 ,8.57231 
268 ,55.0103 ,1.19413 ,0.87708 ,8.60589 
269 ,55.2026 ,1.19610 ,0.84970 ,8.33726 
270 ,55.4110 ,1.19810 ,0.84970 ,8.33726 
271 ,55.6191 ,1.20022 ,0.83259 ,8.16937 
272 ,55.9232 ,1.20286 ,0.81206 ,7.96790 
273 ,56.1152 ,1.20527 ,0.80521 ,7.90074 
274 ,56.3072 ,1.20710 ,0.78810 ,7.73285 
275 ,56.5154 ,1.20916 ,0.78810 ,7.73285 
276 ,56.7233 ,1.21126 ,0.76072 ,7.46423 
277 ,56.9156 ,1.21320 ,0.75730 ,7.43065 
278 ,57.1233 ,1.21528 ,0.72308 ,7.09486 
279 ,57.3318 ,1.21739 ,0.72992 ,7.16202 
280 ,57.5395 ,1.21944 ,0.69570 ,6.82624 
281 ,57.7475 ,1.22155 ,0.69570 ,6.82624 
282 ,57.9400 ,1.22341 ,0.67859 ,6.65835 
283 ,58.1319 ,1.22538 ,0.68886 ,6.75908 
284 ,58.3396 ,1.22738 ,0.65806 ,6.45688 
285 ,58.5322 ,1.22935 ,0.66833 ,6.55761 
286 ,58.7399 ,1.23137 ,0.63753 ,6.25541 
287 ,58.9162 ,1.23331 ,0.63753 ,6.25541 
288 ,59.1084 ,1.23512 ,0.61699 ,6.05394 
289 ,59.3161 ,1.23716 ,0.59304 ,5.81889 
290 ,59.5247 ,1.23926 ,0.60330 ,5.91962 
291 ,59.7327 ,1.24139 ,0.57935 ,5.68458 
292 ,59.9247 ,1.24335 ,0.56224 ,5.51668 
293 ,60.1329 ,1.24529 ,0.54855 ,5.38237 
294 ,60.3406 ,1.24742 ,0.54513 ,5.34879 
295 ,60.5488 ,1.24949 ,0.53486 ,5.24806 
296 ,60.7567 ,1.25162 ,0.51091 ,5.01301 
297 ,60.9492 ,1.25350 ,0.51091 ,5.01301 
298 ,61.1733 ,1.25573 ,0.49037 ,4.81154 
299 ,61.3812 ,1.25783 ,0.47326 ,4.64365 
300 ,61.5730 ,1.25982 ,0.46642 ,4.57649 
301 ,61.7653 ,1.26166 ,0.45273 ,4.44218 
302 ,61.9736 ,1.26373 ,0.45615 ,4.47576 
303 ,62.1657 ,1.26570 ,0.43220 ,4.24071 
304 ,62.3577 ,1.26771 ,0.42535 ,4.17355 
305 ,62.5498 ,1.26952 ,0.42535 ,4.17355 
306 ,62.7579 ,1.27172 ,0.38086 ,3.73703 
307 ,62.9660 ,1.27363 ,0.39113 ,3.83777 
308 ,63.1582 ,1.27559 ,0.35349 ,3.46841 
309 ,63.3662 ,1.27768 ,0.35691 ,3.50199 
310 ,63.5583 ,1.27960 ,0.32953 ,3.23336 
311 ,63.7499 ,1.28169 ,0.32953 ,3.23336 
312 ,63.9423 ,1.28345 ,0.32269 ,3.16620 
313 ,64.1346 ,1.28549 ,0.32269 ,3.16620 
314 ,64.3265 ,1.28734 ,0.29189 ,2.86400 
315 ,64.5348 ,1.28940 ,0.29873 ,2.93116 
316 ,64.7269 ,1.29131 ,0.28504 ,2.79684 
317 ,64.9509 ,1.29342 ,0.27478 ,2.69611 
318 ,65.1590 ,1.29558 ,0.24740 ,2.42748 
319 ,65.3671 ,1.29766 ,0.24398 ,2.39390 
320 ,65.5752 ,1.29973 ,0.24398 ,2.39390 
321 ,65.7833 ,1.30186 ,0.22002 ,2.15885 
322 ,65.9913 ,1.30387 ,0.21660 ,2.12528 
323 ,66.1995 ,1.30606 ,0.20976 ,2.05812 
324 ,66.4073 ,1.30807 ,0.19264 ,1.89023 
325 ,66.5997 ,1.31002 ,0.17896 ,1.75592 
326 ,66.8076 ,1.31215 ,0.17211 ,1.68876 
327 ,66.9993 ,1.31403 ,0.14816 ,1.45371 
328 ,67.2240 ,1.31614 ,0.15842 ,1.55445 
329 ,67.4319 ,1.31843 ,0.14816 ,1.45371 
330 ,67.6242 ,1.32027 ,0.11736 ,1.15151 
331 ,67.8162 ,1.32229 ,0.13105 ,1.28582 
332 ,67.9922 ,1.32406 ,0.12078 ,1.18508 
333 ,68.1842 ,1.32584 ,0.08656 ,0.84930 
334 ,68.3761 ,1.32780 ,0.07971 ,0.78214 
335 ,68.5520 ,1.32967 ,0.08314 ,0.81572 
336 ,68.7445 ,1.33148 ,0.05918 ,0.58067 
337 ,68.9362 ,1.33336 ,0.05234 ,0.51352 
338 ,69.1286 ,1.33528 ,0.04549 ,0.44636 
339 ,69.3370 ,1.33734 ,0.03180 ,0.31205 
340 ,69.5609 ,1.33960 ,0.00443 ,0.04342 
341 ,69.7528 ,1.34152 ,0.01469 ,0.14416 
342 ,69.9611 ,1.34363 ,-0.00926 ,-0.09089 
343 ,70.1691 ,1.34569 ,-0.00584 ,-0.05731 
344 ,70.3612 ,1.34764 ,-0.02980 ,-0.29236 
345 ,70.5694 ,1.34970 ,-0.03664 ,-0.35952 
346 ,70.7774 ,1.35174 ,-0.05375 ,-0.52741 
347 ,70.9695 ,1.35371 ,-0.04006 ,-0.39310 
348 ,71.1455 ,1.35559 ,-0.08455 ,-0.82961 
349 ,71.3372 ,1.35735 ,-0.07771 ,-0.76246 
350 ,71.5458 ,1.35943 ,-0.09140 ,-0.89677 
351 ,71.7536 ,1.36158 ,-0.08455 ,-0.82961 
352 ,71.9619 ,1.36360 ,-0.10851 ,-1.06466 
353 ,72.1699 ,1.36563 ,-0.11193 ,-1.09824 
354 ,72.3778 ,1.36776 ,-0.13246 ,-1.29971 
355 ,72.5859 ,1.36983 ,-0.13931 ,-1.36687 
356 ,72.7943 ,1.37195 ,-0.14273 ,-1.40045 
357 ,73.0023 ,1.37397 ,-0.16326 ,-1.60191 
358 ,73.1944 ,1.37590 ,-0.16668 ,-1.63549 
359 ,73.4025 ,1.37799 ,-0.18379 ,-1.80338 
360 ,73.5941 ,1.37997 ,-0.18037 ,-1.76981 
361 ,73.7865 ,1.38188 ,-0.20433 ,-2.00485 
362 ,73.9947 ,1.38395 ,-0.20775 ,-2.03843 
363 ,74.1867 ,1.38584 ,-0.21117 ,-2.07201 
364 ,74.3789 ,1.38772 ,-0.22486 ,-2.20632 
365 ,74.6025 ,1.39003 ,-0.24881 ,-2.44137 
366 ,74.8106 ,1.39211 ,-0.24197 ,-2.37422 
367 ,75.0028 ,1.39401 ,-0.26250 ,-2.57569 
368 ,75.1954 ,1.39596 ,-0.26593 ,-2.60926 
369 ,75.4033 ,1.39797 ,-0.27619 ,-2.71000 
370 ,75.6115 ,1.40013 ,-0.27961 ,-2.74358 
371 ,75.8035 ,1.40207 ,-0.31726 ,-3.11294 
372 ,75.9956 ,1.40395 ,-0.31041 ,-3.04578 
373 ,76.2196 ,1.40613 ,-0.32752 ,-3.21367 
374 ,76.4277 ,1.40828 ,-0.32752 ,-3.21367 
375 ,76.6359 ,1.41033 ,-0.33437 ,-3.28083 
376 ,76.8436 ,1.41234 ,-0.34121 ,-3.34799 
377 ,77.0362 ,1.41437 ,-0.34806 ,-3.41514 
378 ,77.2602 ,1.41650 ,-0.38228 ,-3.75093 
379 ,77.4681 ,1.41862 ,-0.36517 ,-3.58303 
380 ,77.6602 ,1.42061 ,-0.40281 ,-3.95240 
381 ,77.8523 ,1.42246 ,-0.38570 ,-3.78450 
382 ,78.1085 ,1.42513 ,-0.40623 ,-3.98597 
383 ,78.3327 ,1.42727 ,-0.41650 ,-4.08671 
384 ,78.5407 ,1.42934 ,-0.43361 ,-4.25460 
385 ,78.7484 ,1.43138 ,-0.43361 ,-4.25460 
386 ,78.9408 ,1.43335 ,-0.44730 ,-4.38891 
387 ,79.1486 ,1.43542 ,-0.46441 ,-4.55681 
388 ,79.3568 ,1.43750 ,-0.47810 ,-4.69112 
389 ,79.5652 ,1.43961 ,-0.49863 ,-4.89259 
390 ,79.7568 ,1.44155 ,-0.49521 ,-4.85901 
391 ,79.9491 ,1.44346 ,-0.48494 ,-4.75828 
392 ,80.1573 ,1.44546 ,-0.52943 ,-5.19479 
393 ,80.3493 ,1.44741 ,-0.51574 ,-5.06048 
394 ,80.5575 ,1.44952 ,-0.52943 ,-5.19479 
395 ,80.7336 ,1.45143 ,-0.52943 ,-5.19479 
396 ,80.9254 ,1.45324 ,-0.54997 ,-5.39626 
397 ,81.1337 ,1.45524 ,-0.54997 ,-5.39626 
398 ,81.3419 ,1.45734 ,-0.56023 ,-5.49700 
399 ,81.5497 ,1.45951 ,-0.57050 ,-5.59773 
400 ,81.7578 ,1.46148 ,-0.58761 ,-5.76562 
401 ,81.9501 ,1.46349 ,-0.58761 ,-5.76562 
402 ,82.1420 ,1.46540 ,-0.60472 ,-5.93352 
403 ,82.3344 ,1.46732 ,-0.60472 ,-5.93352 
404 ,82.5421 ,1.46944 ,-0.62868 ,-6.16856 
405 ,82.7344 ,1.47130 ,-0.61499 ,-6.03425 
406 ,82.9263 ,1.47327 ,-0.64579 ,-6.33646 
407 ,83.1341 ,1.47529 ,-0.64236 ,-6.30288 
408 ,83.3265 ,1.47719 ,-0.66632 ,-6.53793 
409 ,83.5349 ,1.47930 ,-0.64921 ,-6.37003 
410 ,83.7586 ,1.48146 ,-0.69027 ,-6.77297 
411 ,83.9669 ,1.48356 ,-0.68685 ,-6.73940 
412 ,84.1749 ,1.48569 ,-0.69370 ,-6.80655 
413 ,84.3831 ,1.48780 ,-0.72107 ,-7.07518 
414 ,84.5752 ,1.48984 ,-0.69712 ,-6.84013 
415 ,84.7832 ,1.49175 ,-0.72107 ,-7.07518 
416 ,84.9754 ,1.49369 ,-0.72792 ,-7.14233 
417 ,85.1834 ,1.49585 ,-0.73476 ,-7.20949 
418 ,85.3916 ,1.49774 ,-0.74161 ,-7.27665 
419 ,85.5831 ,1.49985 ,-0.77241 ,-7.57885 
420 ,85.7758 ,1.50172 ,-0.74845 ,-7.34380 
421 ,85.9838 ,1.50378 ,-0.78267 ,-7.67959 
422 ,86.1918 ,1.50587 ,-0.76898 ,-7.54527 
423 ,86.4000 ,1.50790 ,-0.78952 ,-7.74674 
424 ,86.6237 ,1.51013 ,-0.81347 ,-7.98179 
425 ,86.8161 ,1.51219 ,-0.80321 ,-7.88106 
426 ,87.0242 ,1.51418 ,-0.83401 ,-8.18326 
427 ,87.2162 ,1.51609 ,-0.80321 ,-7.88106 
428 ,87.4079 ,1.51797 ,-0.83743 ,-8.21684 
429 ,87.6160 ,1.52003 ,-0.84427 ,-8.28400 
430 ,87.8241 ,1.52211 ,-0.85112 ,-8.35115 
431 ,88.0161 ,1.52417 ,-0.85454 ,-8.38473 
432 ,88.2243 ,1.52610 ,-0.87165 ,-8.55262 
433 ,88.4644 ,1.52851 ,-0.89218 ,-8.75409 
434 ,88.6888 ,1.53081 ,-0.89560 ,-8.78767 
435 ,88.9125 ,1.53303 ,-0.89903 ,-8.82125 
436 ,89.1051 ,1.53501 ,-0.90587 ,-8.88841 
437 ,89.3133 ,1.53704 ,-0.90245 ,-8.85483 
438 ,89.5213 ,1.53919 ,-0.92983 ,-9.12345 
439 ,89.7293 ,1.54123 ,-0.94694 ,-9.29135 
440 ,89.9214 ,1.54314 ,-0.95036 ,-9.32492 
441 ,90.1295 ,1.54521 ,-0.93667 ,-9.19061 
442 ,90.3375 ,1.54727 ,-0.95720 ,-9.39208 
443 ,90.5299 ,1.54924 ,-0.97089 ,-9.52639 
444 ,90.7536 ,1.55142 ,-0.96063 ,-9.42566 
445 ,90.9457 ,1.55339 ,-0.99485 ,-9.76144 
446 ,91.1376 ,1.55529 ,-0.98800 ,-9.69429 
447 ,91.3302 ,1.55727 ,-1.00854 ,-9.89576 
448 ,91.5382 ,1.55929 ,-1.00511 ,-9.86218 
449 ,91.7460 ,1.56133 ,-1.02222 ,-10.03007 
450 ,91.9539 ,1.56345 ,-1.02222 ,-10.03007 
451 ,92.1461 ,1.56537 ,-1.04276 ,-10.23154 
452 ,92.3544 ,1.56746 ,-1.04276 ,-10.23154 
453 ,92.5627 ,1.56953 ,-1.03934 ,-10.19796 
454 ,92.7707 ,1.57160 ,-1.05645 ,-10.36585 
455 ,92.9787 ,1.57371 ,-1.05645 ,-10.36585 
456 ,93.1866 ,1.57573 ,-1.08382 ,-10.63448 
457 ,93.3947 ,1.57780 ,-1.08040 ,-10.60090 
458 ,93.6029 ,1.57987 ,-1.09409 ,-10.73521 
459 ,93.7951 ,1.58184 ,-1.09751 ,-10.76879 
460 ,94.0032 ,1.58397 ,-1.10436 ,-10.83595 
461 ,94.1951 ,1.58586 ,-1.10436 ,-10.83595 
462 ,94.4189 ,1.58808 ,-1.12147 ,-11.00384 
