Data stamp = , 05-05-2022 16:02:07 628

Calibration Values: 
Slope = , 26.54 , g/V 
Offset Voltage at no contact = , -0.501760 , V 

No , Time , Stage Position ,   Mass , Force 
   ,  (s) ,      (mm)      ,   (g)  , (mN)  

1 ,0.0000 ,0.64957 ,5.16505 ,50.67950 
2 ,0.2419 ,0.64968 ,5.16505 ,50.67950 
3 ,0.6264 ,0.65087 ,5.17532 ,50.78023 
4 ,0.8666 ,0.65296 ,5.15821 ,50.61234 
5 ,1.0743 ,0.65504 ,5.15479 ,50.57876 
6 ,1.2667 ,0.65701 ,5.17190 ,50.74666 
7 ,1.4748 ,0.65903 ,5.16505 ,50.67950 
8 ,1.6669 ,0.66096 ,5.16848 ,50.71308 
9 ,1.8905 ,0.66316 ,5.14794 ,50.51161 
10 ,2.0831 ,0.66516 ,5.12399 ,50.27656 
11 ,2.3071 ,0.66737 ,5.13083 ,50.34372 
12 ,2.5313 ,0.66963 ,5.10688 ,50.10867 
13 ,2.7230 ,0.67155 ,5.07608 ,49.80646 
14 ,2.9151 ,0.67351 ,5.05897 ,49.63857 
15 ,3.1237 ,0.67552 ,5.03843 ,49.43710 
16 ,3.3477 ,0.67773 ,5.02817 ,49.33637 
17 ,3.5557 ,0.67982 ,4.99052 ,48.96701 
18 ,3.7797 ,0.68208 ,4.98026 ,48.86627 
19 ,3.9877 ,0.68413 ,4.96315 ,48.69838 
20 ,4.1960 ,0.68626 ,4.93577 ,48.42975 
21 ,4.4201 ,0.68846 ,4.91523 ,48.22828 
22 ,4.6283 ,0.69059 ,4.90497 ,48.12755 
23 ,4.8363 ,0.69263 ,4.86390 ,47.72461 
24 ,5.0604 ,0.69486 ,4.86048 ,47.69103 
25 ,5.3006 ,0.69715 ,4.84337 ,47.52314 
26 ,5.5244 ,0.69955 ,4.80915 ,47.18736 
27 ,5.7166 ,0.70146 ,4.78861 ,46.98589 
28 ,5.9087 ,0.70337 ,4.78861 ,46.98589 
29 ,6.1165 ,0.70547 ,4.74755 ,46.58295 
30 ,6.3089 ,0.70737 ,4.75097 ,46.61653 
31 ,6.5011 ,0.70935 ,4.70990 ,46.21359 
32 ,6.7091 ,0.71136 ,4.69279 ,46.04569 
33 ,6.9332 ,0.71362 ,4.68253 ,45.94496 
34 ,7.1412 ,0.71567 ,4.67226 ,45.84422 
35 ,7.3489 ,0.71772 ,4.63462 ,45.47486 
36 ,7.5415 ,0.71974 ,4.61751 ,45.30697 
37 ,7.7494 ,0.72177 ,4.60724 ,45.20624 
38 ,7.9575 ,0.72390 ,4.57644 ,44.90403 
39 ,8.1498 ,0.72585 ,4.57644 ,44.90403 
40 ,8.3735 ,0.72799 ,4.53195 ,44.46751 
41 ,8.5817 ,0.73009 ,4.53880 ,44.53467 
42 ,8.8057 ,0.73229 ,4.51484 ,44.29962 
43 ,9.0141 ,0.73439 ,4.46351 ,43.79595 
44 ,9.2222 ,0.73653 ,4.47378 ,43.89668 
45 ,9.4461 ,0.73869 ,4.45324 ,43.69521 
46 ,9.6541 ,0.74076 ,4.41902 ,43.35943 
47 ,9.8784 ,0.74305 ,4.40191 ,43.19154 
48 ,10.1024 ,0.74523 ,4.38822 ,43.05723 
49 ,10.2946 ,0.74726 ,4.36427 ,42.82218 
50 ,10.5187 ,0.74945 ,4.33689 ,42.55355 
51 ,10.7427 ,0.75168 ,4.33689 ,42.55355 
52 ,10.9508 ,0.75376 ,4.30609 ,42.25135 
53 ,11.1590 ,0.75584 ,4.29240 ,42.11703 
54 ,11.3830 ,0.75809 ,4.28213 ,42.01630 
55 ,11.5909 ,0.76013 ,4.24107 ,41.61336 
56 ,11.7832 ,0.76223 ,4.22738 ,41.47905 
57 ,11.9751 ,0.76404 ,4.20685 ,41.27758 
58 ,12.1672 ,0.76596 ,4.20685 ,41.27758 
59 ,12.3592 ,0.76787 ,4.18631 ,41.07611 
60 ,12.5674 ,0.76992 ,4.15551 ,40.77390 
61 ,12.7753 ,0.77199 ,4.12814 ,40.50527 
62 ,12.9836 ,0.77412 ,4.12129 ,40.43812 
63 ,13.1918 ,0.77622 ,4.09049 ,40.13591 
64 ,13.3838 ,0.77809 ,4.09734 ,40.20307 
65 ,13.5920 ,0.78011 ,4.04600 ,39.69940 
66 ,13.8159 ,0.78237 ,4.03916 ,39.63224 
67 ,14.0080 ,0.78438 ,4.02889 ,39.53150 
68 ,14.2003 ,0.78626 ,4.01863 ,39.43077 
69 ,14.4245 ,0.78848 ,4.00152 ,39.26288 
70 ,14.6164 ,0.79046 ,3.96045 ,38.85994 
71 ,14.8405 ,0.79250 ,3.95361 ,38.79278 
72 ,15.0481 ,0.79470 ,3.91938 ,38.45700 
73 ,15.2405 ,0.79670 ,3.90912 ,38.35626 
74 ,15.4485 ,0.79880 ,3.90227 ,38.28911 
75 ,15.6566 ,0.80082 ,3.86121 ,37.88617 
76 ,15.8646 ,0.80294 ,3.84752 ,37.75185 
77 ,16.0885 ,0.80504 ,3.82699 ,37.55038 
78 ,16.3131 ,0.80730 ,3.81330 ,37.41607 
79 ,16.5213 ,0.80954 ,3.79276 ,37.21460 
80 ,16.7297 ,0.81155 ,3.78250 ,37.11387 
81 ,16.9533 ,0.81377 ,3.74828 ,36.77808 
82 ,17.1612 ,0.81582 ,3.74485 ,36.74450 
83 ,17.3694 ,0.81801 ,3.71405 ,36.44230 
84 ,17.5773 ,0.82005 ,3.69694 ,36.27441 
85 ,17.7694 ,0.82200 ,3.66957 ,36.00578 
86 ,17.9617 ,0.82391 ,3.66614 ,35.97220 
87 ,18.1858 ,0.82617 ,3.64219 ,35.73716 
88 ,18.4099 ,0.82831 ,3.62508 ,35.56926 
89 ,18.6179 ,0.83043 ,3.61823 ,35.50211 
90 ,18.8098 ,0.83235 ,3.58401 ,35.16632 
91 ,19.0183 ,0.83444 ,3.57032 ,35.03201 
92 ,19.2421 ,0.83665 ,3.56006 ,34.93128 
93 ,19.4503 ,0.83869 ,3.51557 ,34.49476 
94 ,19.6425 ,0.84065 ,3.52241 ,34.56192 
95 ,19.8663 ,0.84285 ,3.48477 ,34.19255 
96 ,20.0744 ,0.84497 ,3.46081 ,33.95751 
97 ,20.2827 ,0.84706 ,3.45055 ,33.85677 
98 ,20.4903 ,0.84910 ,3.41290 ,33.48741 
99 ,20.6988 ,0.85118 ,3.41975 ,33.55457 
100 ,20.9070 ,0.85327 ,3.39237 ,33.28594 
101 ,21.1151 ,0.85538 ,3.36842 ,33.05089 
102 ,21.3232 ,0.85741 ,3.37184 ,33.08447 
103 ,21.5314 ,0.85952 ,3.32735 ,32.64795 
104 ,21.7554 ,0.86166 ,3.33762 ,32.74869 
105 ,21.9635 ,0.86389 ,3.32051 ,32.58080 
106 ,22.1554 ,0.86588 ,3.27944 ,32.17786 
107 ,22.3636 ,0.86786 ,3.27944 ,32.17786 
108 ,22.5715 ,0.86990 ,3.23837 ,31.77492 
109 ,22.7636 ,0.87190 ,3.23837 ,31.77492 
110 ,22.9397 ,0.87373 ,3.20073 ,31.40555 
111 ,23.1320 ,0.87557 ,3.18704 ,31.27124 
112 ,23.3242 ,0.87749 ,3.19388 ,31.33840 
113 ,23.5321 ,0.87950 ,3.16651 ,31.06977 
114 ,23.7241 ,0.88146 ,3.15966 ,31.00262 
115 ,23.9481 ,0.88359 ,3.13229 ,30.73399 
116 ,24.1564 ,0.88582 ,3.10491 ,30.46536 
117 ,24.3483 ,0.88771 ,3.10149 ,30.43178 
118 ,24.5566 ,0.88979 ,3.07753 ,30.19674 
119 ,24.7647 ,0.89188 ,3.07069 ,30.12958 
120 ,24.9726 ,0.89393 ,3.03647 ,29.79380 
121 ,25.1647 ,0.89590 ,3.04673 ,29.89453 
122 ,25.3570 ,0.89780 ,3.01593 ,29.59233 
123 ,25.5810 ,0.90000 ,3.00224 ,29.45801 
124 ,25.7894 ,0.90210 ,2.97487 ,29.18939 
125 ,25.9967 ,0.90419 ,2.96802 ,29.12223 
126 ,26.1889 ,0.90612 ,2.94749 ,28.92076 
127 ,26.3812 ,0.90804 ,2.94407 ,28.88718 
128 ,26.5733 ,0.91000 ,2.90985 ,28.55140 
129 ,26.7814 ,0.91207 ,2.89616 ,28.41709 
130 ,27.0054 ,0.91409 ,2.86878 ,28.14846 
131 ,27.2296 ,0.91657 ,2.85167 ,27.98057 
132 ,27.4216 ,0.91845 ,2.85167 ,27.98057 
133 ,27.6138 ,0.92036 ,2.82429 ,27.71194 
134 ,27.8379 ,0.92255 ,2.81745 ,27.64479 
135 ,28.0301 ,0.92448 ,2.78665 ,27.34258 
136 ,28.2379 ,0.92657 ,2.78322 ,27.30900 
137 ,28.4459 ,0.92867 ,2.76611 ,27.14111 
138 ,28.6383 ,0.93061 ,2.74216 ,26.90606 
139 ,28.8622 ,0.93289 ,2.73189 ,26.80533 
140 ,29.0704 ,0.93493 ,2.70109 ,26.50312 
141 ,29.2621 ,0.93684 ,2.70109 ,26.50312 
142 ,29.4545 ,0.93874 ,2.67714 ,26.26807 
143 ,29.6787 ,0.94100 ,2.66687 ,26.16734 
144 ,29.8868 ,0.94305 ,2.63949 ,25.89871 
145 ,30.0947 ,0.94511 ,2.63265 ,25.83156 
146 ,30.2868 ,0.94706 ,2.60869 ,25.59651 
147 ,30.4951 ,0.94913 ,2.61212 ,25.63009 
148 ,30.7033 ,0.95127 ,2.58474 ,25.36146 
149 ,30.9111 ,0.95330 ,2.55394 ,25.05926 
150 ,31.1191 ,0.95549 ,2.54710 ,24.99210 
151 ,31.3116 ,0.95737 ,2.50603 ,24.58916 
152 ,31.5195 ,0.95945 ,2.51630 ,24.68989 
153 ,31.7117 ,0.96135 ,2.48550 ,24.38769 
154 ,31.9197 ,0.96340 ,2.48550 ,24.38769 
155 ,32.1438 ,0.96560 ,2.46154 ,24.15264 
156 ,32.3519 ,0.96774 ,2.43759 ,23.91759 
157 ,32.5596 ,0.96976 ,2.44101 ,23.95117 
158 ,32.7522 ,0.97169 ,2.39994 ,23.54823 
159 ,32.9603 ,0.97376 ,2.39994 ,23.54823 
160 ,33.1682 ,0.97586 ,2.37941 ,23.34676 
161 ,33.3762 ,0.97795 ,2.36914 ,23.24603 
162 ,33.5841 ,0.98005 ,2.34861 ,23.04456 
163 ,33.7926 ,0.98210 ,2.32808 ,22.84309 
164 ,34.0167 ,0.98430 ,2.31097 ,22.67520 
165 ,34.2246 ,0.98642 ,2.29043 ,22.47373 
166 ,34.4168 ,0.98837 ,2.28017 ,22.37299 
167 ,34.6249 ,0.99041 ,2.24937 ,22.07079 
168 ,34.8490 ,0.99268 ,2.22199 ,21.80216 
169 ,35.0572 ,0.99475 ,2.24937 ,22.07079 
170 ,35.2650 ,0.99684 ,2.20830 ,21.66785 
171 ,35.4733 ,0.99888 ,2.18092 ,21.39922 
172 ,35.6810 ,1.00102 ,2.18092 ,21.39922 
173 ,35.8733 ,1.00294 ,2.15012 ,21.09702 
174 ,36.0817 ,1.00497 ,2.14328 ,21.02986 
175 ,36.2896 ,1.00707 ,2.11590 ,20.76123 
176 ,36.4977 ,1.00908 ,2.11932 ,20.79481 
177 ,36.6896 ,1.01109 ,2.07484 ,20.35829 
178 ,36.8815 ,1.01302 ,2.08852 ,20.49261 
179 ,37.0898 ,1.01504 ,2.04404 ,20.05609 
180 ,37.2980 ,1.01710 ,2.05088 ,20.12325 
181 ,37.5063 ,1.01921 ,2.02008 ,19.82104 
182 ,37.7309 ,1.02148 ,1.99270 ,19.55241 
183 ,37.9382 ,1.02348 ,2.00297 ,19.65315 
184 ,38.1784 ,1.02597 ,1.98244 ,19.45168 
185 ,38.3865 ,1.02804 ,1.97902 ,19.41810 
186 ,38.5946 ,1.03013 ,1.95164 ,19.14948 
187 ,38.8028 ,1.03224 ,1.94137 ,19.04874 
188 ,39.0106 ,1.03427 ,1.91742 ,18.81369 
189 ,39.2189 ,1.03637 ,1.90715 ,18.71296 
190 ,39.4108 ,1.03828 ,1.87635 ,18.41075 
191 ,39.6192 ,1.04037 ,1.87635 ,18.41075 
192 ,39.8274 ,1.04247 ,1.83186 ,17.97423 
193 ,40.0033 ,1.04434 ,1.85240 ,18.17570 
194 ,40.1950 ,1.04612 ,1.82160 ,17.87350 
195 ,40.4033 ,1.04820 ,1.82160 ,17.87350 
196 ,40.6276 ,1.05043 ,1.77711 ,17.43698 
197 ,40.8516 ,1.05262 ,1.77026 ,17.36983 
198 ,41.0437 ,1.05463 ,1.75315 ,17.20193 
199 ,41.2518 ,1.05666 ,1.74973 ,17.16836 
200 ,41.4599 ,1.05877 ,1.73262 ,17.00046 
201 ,41.6840 ,1.06093 ,1.70866 ,16.76542 
202 ,41.8921 ,1.06310 ,1.68129 ,16.49679 
203 ,42.0998 ,1.06515 ,1.67102 ,16.39605 
204 ,42.3083 ,1.06722 ,1.66418 ,16.32890 
205 ,42.5158 ,1.06929 ,1.66075 ,16.29532 
206 ,42.7084 ,1.07123 ,1.62311 ,15.92596 
207 ,42.9165 ,1.07327 ,1.64364 ,16.12743 
208 ,43.1246 ,1.07538 ,1.60600 ,15.75807 
209 ,43.3327 ,1.07745 ,1.59231 ,15.62375 
210 ,43.5403 ,1.07952 ,1.59231 ,15.62375 
211 ,43.7332 ,1.08152 ,1.56493 ,15.35513 
212 ,43.9408 ,1.08352 ,1.55467 ,15.25439 
213 ,44.1648 ,1.08581 ,1.52729 ,14.98577 
214 ,44.3730 ,1.08780 ,1.52729 ,14.98577 
215 ,44.5807 ,1.09006 ,1.51018 ,14.81787 
216 ,44.7892 ,1.09199 ,1.48280 ,14.54925 
217 ,44.9811 ,1.09410 ,1.48622 ,14.58283 
218 ,45.1733 ,1.09588 ,1.46569 ,14.38136 
219 ,45.3811 ,1.09796 ,1.45885 ,14.31420 
220 ,45.5733 ,1.09990 ,1.43831 ,14.11273 
221 ,45.7814 ,1.10194 ,1.41778 ,13.91126 
222 ,45.9897 ,1.10405 ,1.39383 ,13.67621 
223 ,46.2139 ,1.10621 ,1.40409 ,13.77695 
224 ,46.4219 ,1.10835 ,1.36645 ,13.40759 
225 ,46.6299 ,1.11041 ,1.36645 ,13.40759 
226 ,46.8221 ,1.11239 ,1.35618 ,13.30685 
227 ,47.0302 ,1.11442 ,1.32538 ,13.00465 
228 ,47.2381 ,1.11644 ,1.32196 ,12.97107 
229 ,47.4462 ,1.11859 ,1.28432 ,12.60171 
230 ,47.6705 ,1.12073 ,1.30827 ,12.83675 
231 ,47.8943 ,1.12300 ,1.28432 ,12.60171 
232 ,48.1027 ,1.12515 ,1.25352 ,12.29950 
233 ,48.3266 ,1.12733 ,1.23641 ,12.13161 
234 ,48.5189 ,1.12931 ,1.24667 ,12.23235 
235 ,48.7590 ,1.13173 ,1.22614 ,12.03088 
236 ,48.9665 ,1.13382 ,1.19192 ,11.69509 
237 ,49.1587 ,1.13571 ,1.19534 ,11.72867 
238 ,49.3512 ,1.13765 ,1.17138 ,11.49362 
239 ,49.5432 ,1.13958 ,1.15085 ,11.29215 
240 ,49.7353 ,1.14148 ,1.16454 ,11.42647 
241 ,49.9275 ,1.14344 ,1.13032 ,11.09068 
242 ,50.1514 ,1.14561 ,1.13032 ,11.09068 
243 ,50.3594 ,1.14774 ,1.12690 ,11.05710 
244 ,50.5516 ,1.14963 ,1.09952 ,10.78848 
245 ,50.7597 ,1.15176 ,1.08925 ,10.68774 
246 ,50.9517 ,1.15374 ,1.05845 ,10.38554 
247 ,51.1435 ,1.15555 ,1.04476 ,10.25123 
248 ,51.3359 ,1.15749 ,1.06187 ,10.41912 
249 ,51.5440 ,1.15956 ,1.01739 ,9.98260 
250 ,51.7519 ,1.16167 ,1.03108 ,10.11691 
251 ,51.9602 ,1.16370 ,1.01396 ,9.94902 
252 ,52.1520 ,1.16565 ,0.99343 ,9.74755 
253 ,52.3761 ,1.16804 ,0.98317 ,9.64682 
254 ,52.5681 ,1.16989 ,0.96263 ,9.44535 
255 ,52.7602 ,1.17179 ,0.94894 ,9.31103 
256 ,52.9847 ,1.17386 ,0.94552 ,9.27745 
257 ,53.2089 ,1.17615 ,0.92157 ,9.04241 
258 ,53.4009 ,1.17819 ,0.92157 ,9.04241 
259 ,53.5930 ,1.18007 ,0.90103 ,8.84094 
260 ,53.7849 ,1.18212 ,0.88734 ,8.70662 
261 ,53.9770 ,1.18387 ,0.89077 ,8.74020 
262 ,54.1850 ,1.18594 ,0.85312 ,8.37084 
263 ,54.4091 ,1.18819 ,0.85312 ,8.37084 
264 ,54.6175 ,1.19028 ,0.83601 ,8.20295 
265 ,54.8256 ,1.19244 ,0.81548 ,8.00148 
266 ,55.0335 ,1.19442 ,0.82575 ,8.10221 
267 ,55.2255 ,1.19639 ,0.78468 ,7.69927 
268 ,55.4492 ,1.19858 ,0.78468 ,7.69927 
269 ,55.6412 ,1.20062 ,0.77784 ,7.63212 
270 ,55.8498 ,1.20260 ,0.76072 ,7.46423 
271 ,56.0898 ,1.20501 ,0.75046 ,7.36349 
272 ,56.3139 ,1.20718 ,0.74704 ,7.32991 
273 ,56.5223 ,1.20932 ,0.71281 ,6.99413 
274 ,56.7143 ,1.21132 ,0.70939 ,6.96055 
275 ,56.9064 ,1.21318 ,0.67517 ,6.62477 
276 ,57.1143 ,1.21519 ,0.68201 ,6.69193 
277 ,57.3226 ,1.21737 ,0.66148 ,6.49046 
278 ,57.5306 ,1.21939 ,0.66833 ,6.55761 
279 ,57.7226 ,1.22140 ,0.64437 ,6.32256 
280 ,57.9307 ,1.22341 ,0.64095 ,6.28899 
281 ,58.1549 ,1.22562 ,0.62384 ,6.12109 
282 ,58.3630 ,1.22770 ,0.60330 ,5.91962 
283 ,58.6027 ,1.23008 ,0.58962 ,5.78531 
284 ,58.8107 ,1.23219 ,0.59304 ,5.81889 
285 ,59.0194 ,1.23430 ,0.56566 ,5.55026 
286 ,59.2434 ,1.23644 ,0.55539 ,5.44953 
287 ,59.4354 ,1.23846 ,0.55539 ,5.44953 
288 ,59.6591 ,1.24070 ,0.52802 ,5.18090 
289 ,59.8512 ,1.24267 ,0.53828 ,5.28164 
290 ,60.0593 ,1.24465 ,0.49722 ,4.87870 
291 ,60.2675 ,1.24671 ,0.50748 ,4.97943 
292 ,60.4595 ,1.24867 ,0.47326 ,4.64365 
293 ,60.6675 ,1.25071 ,0.48011 ,4.71081 
294 ,60.8436 ,1.25267 ,0.46984 ,4.61007 
295 ,61.0517 ,1.25453 ,0.46642 ,4.57649 
296 ,61.2598 ,1.25663 ,0.42877 ,4.20713 
297 ,61.4679 ,1.25872 ,0.43562 ,4.27429 
298 ,61.6600 ,1.26077 ,0.40824 ,4.00566 
299 ,61.8521 ,1.26270 ,0.41509 ,4.07282 
300 ,62.0282 ,1.26452 ,0.38086 ,3.73703 
301 ,62.2363 ,1.26641 ,0.38086 ,3.73703 
302 ,62.4284 ,1.26844 ,0.37060 ,3.63630 
303 ,62.6205 ,1.27035 ,0.36033 ,3.53557 
304 ,62.8286 ,1.27230 ,0.35691 ,3.50199 
305 ,63.0365 ,1.27438 ,0.33295 ,3.26694 
306 ,63.2446 ,1.27644 ,0.33980 ,3.33410 
307 ,63.4527 ,1.27855 ,0.32269 ,3.16620 
308 ,63.6289 ,1.28049 ,0.30900 ,3.03189 
309 ,63.8209 ,1.28234 ,0.28847 ,2.83042 
310 ,64.0290 ,1.28433 ,0.28504 ,2.79684 
311 ,64.2373 ,1.28641 ,0.27135 ,2.66253 
312 ,64.4615 ,1.28868 ,0.25767 ,2.52822 
313 ,64.6856 ,1.29086 ,0.26109 ,2.56179 
314 ,64.8937 ,1.29297 ,0.23371 ,2.29317 
315 ,65.1016 ,1.29502 ,0.23029 ,2.25959 
316 ,65.2938 ,1.29701 ,0.22687 ,2.22601 
317 ,65.5019 ,1.29902 ,0.19607 ,1.92381 
318 ,65.6938 ,1.30101 ,0.18922 ,1.85665 
319 ,65.8861 ,1.30291 ,0.18922 ,1.85665 
320 ,66.0941 ,1.30495 ,0.16185 ,1.58802 
321 ,66.3021 ,1.30705 ,0.15500 ,1.52087 
322 ,66.5099 ,1.30910 ,0.15500 ,1.52087 
323 ,66.7185 ,1.31126 ,0.12420 ,1.21866 
324 ,66.9266 ,1.31335 ,0.13789 ,1.35298 
325 ,67.1506 ,1.31542 ,0.10709 ,1.05077 
326 ,67.3427 ,1.31760 ,0.08656 ,0.84930 
327 ,67.5507 ,1.31953 ,0.10025 ,0.98361 
328 ,67.7589 ,1.32158 ,0.07287 ,0.71499 
329 ,67.9667 ,1.32374 ,0.08314 ,0.81572 
330 ,68.1592 ,1.32565 ,0.05918 ,0.58067 
331 ,68.3670 ,1.32773 ,0.05918 ,0.58067 
332 ,68.5913 ,1.32993 ,0.04207 ,0.41278 
333 ,68.8154 ,1.33218 ,0.02154 ,0.21131 
334 ,69.0395 ,1.33442 ,0.01127 ,0.11058 
335 ,69.2474 ,1.33646 ,0.01469 ,0.14416 
336 ,69.4556 ,1.33863 ,-0.00242 ,-0.02373 
337 ,69.6637 ,1.34065 ,-0.01611 ,-0.15805 
338 ,69.8877 ,1.34295 ,-0.02980 ,-0.29236 
339 ,70.0795 ,1.34489 ,-0.05375 ,-0.52741 
340 ,70.2716 ,1.34680 ,-0.03664 ,-0.35952 
341 ,70.4475 ,1.34869 ,-0.05717 ,-0.56099 
342 ,70.6397 ,1.35043 ,-0.07086 ,-0.69530 
343 ,70.8319 ,1.35239 ,-0.07771 ,-0.76246 
344 ,71.0878 ,1.35487 ,-0.07771 ,-0.76246 
345 ,71.2798 ,1.35690 ,-0.10851 ,-1.06466 
346 ,71.4721 ,1.35879 ,-0.11535 ,-1.13182 
347 ,71.6805 ,1.36088 ,-0.12904 ,-1.26613 
348 ,71.8886 ,1.36286 ,-0.12904 ,-1.26613 
349 ,72.0807 ,1.36491 ,-0.14957 ,-1.46760 
350 ,72.2728 ,1.36676 ,-0.14957 ,-1.46760 
351 ,72.4966 ,1.36897 ,-0.17353 ,-1.70265 
352 ,72.6889 ,1.37092 ,-0.15642 ,-1.53476 
353 ,72.8809 ,1.37289 ,-0.19064 ,-1.87054 
354 ,73.0728 ,1.37484 ,-0.18379 ,-1.80338 
355 ,73.2812 ,1.37688 ,-0.20775 ,-2.03843 
356 ,73.4893 ,1.37892 ,-0.20090 ,-1.97128 
357 ,73.6974 ,1.38095 ,-0.24197 ,-2.37422 
358 ,73.9375 ,1.38326 ,-0.23855 ,-2.34064 
359 ,74.1453 ,1.38545 ,-0.22828 ,-2.23990 
360 ,74.3857 ,1.38778 ,-0.25566 ,-2.50853 
361 ,74.6098 ,1.39011 ,-0.26250 ,-2.57569 
362 ,74.8179 ,1.39226 ,-0.28304 ,-2.77716 
363 ,75.0100 ,1.39415 ,-0.27277 ,-2.67642 
364 ,75.2346 ,1.39634 ,-0.31384 ,-3.07936 
365 ,75.4420 ,1.39845 ,-0.29673 ,-2.91147 
366 ,75.6501 ,1.40052 ,-0.30699 ,-3.01220 
367 ,75.8584 ,1.40261 ,-0.32752 ,-3.21367 
368 ,76.0823 ,1.40484 ,-0.33437 ,-3.28083 
369 ,76.2902 ,1.40691 ,-0.35148 ,-3.44872 
370 ,76.4827 ,1.40887 ,-0.36859 ,-3.61661 
371 ,76.6746 ,1.41078 ,-0.36859 ,-3.61661 
372 ,76.8988 ,1.41295 ,-0.37544 ,-3.68377 
373 ,77.1068 ,1.41510 ,-0.38570 ,-3.78450 
374 ,77.3306 ,1.41730 ,-0.40281 ,-3.95240 
375 ,77.5226 ,1.41930 ,-0.39597 ,-3.88524 
376 ,77.7311 ,1.42123 ,-0.42677 ,-4.18744 
377 ,77.9551 ,1.42351 ,-0.44730 ,-4.38891 
378 ,78.1473 ,1.42550 ,-0.42677 ,-4.18744 
379 ,78.3713 ,1.42769 ,-0.46099 ,-4.52323 
380 ,78.5791 ,1.42986 ,-0.46441 ,-4.55681 
381 ,78.7874 ,1.43187 ,-0.47126 ,-4.62396 
382 ,79.0115 ,1.43407 ,-0.47810 ,-4.69112 
383 ,79.2037 ,1.43609 ,-0.48152 ,-4.72470 
384 ,79.4118 ,1.43816 ,-0.50206 ,-4.92617 
385 ,79.6200 ,1.44021 ,-0.49863 ,-4.89259 
386 ,79.8440 ,1.44244 ,-0.50890 ,-4.99332 
387 ,80.0521 ,1.44454 ,-0.52601 ,-5.16121 
388 ,80.2761 ,1.44677 ,-0.53628 ,-5.26195 
389 ,80.4683 ,1.44875 ,-0.53285 ,-5.22837 
390 ,80.6923 ,1.45091 ,-0.55681 ,-5.46342 
391 ,80.9005 ,1.45307 ,-0.55681 ,-5.46342 
392 ,81.1085 ,1.45515 ,-0.57050 ,-5.59773 
393 ,81.3165 ,1.45713 ,-0.59103 ,-5.79920 
394 ,81.5243 ,1.45920 ,-0.59788 ,-5.86636 
395 ,81.7332 ,1.46127 ,-0.59788 ,-5.86636 
396 ,81.9403 ,1.46342 ,-0.60814 ,-5.96709 
397 ,82.1330 ,1.46535 ,-0.63552 ,-6.23572 
398 ,82.3406 ,1.46731 ,-0.61841 ,-6.06783 
399 ,82.5489 ,1.46948 ,-0.63552 ,-6.23572 
400 ,82.7572 ,1.47158 ,-0.65947 ,-6.47077 
401 ,82.9651 ,1.47366 ,-0.64579 ,-6.33646 
402 ,83.1733 ,1.47579 ,-0.66632 ,-6.53793 
403 ,83.3812 ,1.47783 ,-0.67659 ,-6.63866 
404 ,83.5733 ,1.47973 ,-0.69370 ,-6.80655 
405 ,83.7814 ,1.48175 ,-0.68001 ,-6.67224 
406 ,83.9736 ,1.48385 ,-0.69027 ,-6.77297 
407 ,84.1656 ,1.48570 ,-0.70739 ,-6.94086 
408 ,84.3575 ,1.48757 ,-0.71765 ,-7.04160 
409 ,84.5497 ,1.48951 ,-0.71765 ,-7.04160 
410 ,84.7580 ,1.49150 ,-0.73134 ,-7.17591 
411 ,84.9500 ,1.49366 ,-0.72107 ,-7.07518 
412 ,85.1580 ,1.49551 ,-0.74845 ,-7.34380 
413 ,85.3820 ,1.49778 ,-0.74503 ,-7.31023 
414 ,85.5904 ,1.49993 ,-0.76214 ,-7.47812 
415 ,85.7824 ,1.50191 ,-0.78267 ,-7.67959 
416 ,85.9744 ,1.50372 ,-0.79294 ,-7.78032 
417 ,86.1985 ,1.50590 ,-0.80321 ,-7.88106 
418 ,86.3906 ,1.50796 ,-0.79636 ,-7.81390 
419 ,86.5828 ,1.50984 ,-0.80663 ,-7.91464 
420 ,86.8069 ,1.51205 ,-0.81347 ,-7.98179 
421 ,86.9988 ,1.51408 ,-0.83743 ,-8.21684 
422 ,87.1911 ,1.51592 ,-0.82716 ,-8.11611 
423 ,87.3987 ,1.51796 ,-0.84085 ,-8.25042 
424 ,87.6072 ,1.52000 ,-0.85112 ,-8.35115 
425 ,87.8314 ,1.52226 ,-0.87165 ,-8.55262 
426 ,88.0393 ,1.52436 ,-0.86823 ,-8.51904 
427 ,88.2474 ,1.52644 ,-0.87507 ,-8.58620 
428 ,88.4554 ,1.52848 ,-0.90245 ,-8.85483 
429 ,88.6632 ,1.53067 ,-0.88876 ,-8.72051 
430 ,88.8717 ,1.53269 ,-0.92640 ,-9.08988 
431 ,89.0798 ,1.53470 ,-0.91614 ,-8.98914 
432 ,89.3199 ,1.53701 ,-0.91272 ,-8.95556 
433 ,89.5280 ,1.53921 ,-0.93325 ,-9.15703 
434 ,89.7360 ,1.54131 ,-0.94009 ,-9.22419 
435 ,89.9599 ,1.54354 ,-0.95378 ,-9.35850 
436 ,90.1682 ,1.54568 ,-0.96747 ,-9.49282 
437 ,90.3759 ,1.54778 ,-0.98800 ,-9.69429 
438 ,90.5684 ,1.54963 ,-0.97431 ,-9.55997 
439 ,90.7925 ,1.55185 ,-1.00169 ,-9.82860 
440 ,91.0165 ,1.55408 ,-1.00169 ,-9.82860 
441 ,91.2245 ,1.55617 ,-1.00511 ,-9.86218 
442 ,91.4329 ,1.55829 ,-1.03591 ,-10.16438 
443 ,91.6409 ,1.56037 ,-1.00854 ,-9.89576 
444 ,91.8490 ,1.56244 ,-1.03591 ,-10.16438 
445 ,92.0570 ,1.56456 ,-1.04960 ,-10.29869 
446 ,92.2648 ,1.56664 ,-1.04276 ,-10.23154 
447 ,92.5048 ,1.56899 ,-1.04960 ,-10.29869 
448 ,92.6973 ,1.57098 ,-1.05645 ,-10.36585 
449 ,92.9371 ,1.57334 ,-1.07698 ,-10.56732 
450 ,93.1453 ,1.57546 ,-1.08382 ,-10.63448 
451 ,93.3535 ,1.57748 ,-1.09751 ,-10.76879 
452 ,93.5617 ,1.57957 ,-1.09067 ,-10.70163 
453 ,93.7858 ,1.58175 ,-1.11805 ,-10.97026 
454 ,94.0100 ,1.58401 ,-1.13173 ,-11.10457 
455 ,94.2018 ,1.58600 ,-1.11120 ,-10.90310 
456 ,94.4098 ,1.58805 ,-1.13858 ,-11.17173 
457 ,94.6019 ,1.59002 ,-1.12831 ,-11.07100 
458 ,94.8104 ,1.59203 ,-1.15911 ,-11.37320 
459 ,95.0179 ,1.59413 ,-1.14200 ,-11.20531 
460 ,95.2265 ,1.59620 ,-1.16938 ,-11.47394 
461 ,95.4506 ,1.59843 ,-1.18307 ,-11.60825 
