Data stamp = , 04-05-2022 15:21:28 388

Calibration Values: 
Slope = , 26.54 , g/V 
Offset Voltage at no contact = , -0.501760 , V 

No , Time , Stage Position ,   Mass , Force 
   ,  (s) ,      (mm)      ,   (g)  , (mN)  

1 ,0.0000 ,0.64940 ,5.32589 ,52.25768 
2 ,0.2164 ,0.64947 ,5.33958 ,52.39199 
3 ,0.6008 ,0.65062 ,5.33274 ,52.32484 
4 ,0.8250 ,0.65250 ,5.32932 ,52.29126 
5 ,1.0327 ,0.65440 ,5.33616 ,52.35841 
6 ,1.2253 ,0.65644 ,5.32589 ,52.25768 
7 ,1.4175 ,0.65842 ,5.33616 ,52.35841 
8 ,1.6094 ,0.66023 ,5.32247 ,52.22410 
9 ,1.8174 ,0.66228 ,5.30194 ,52.02263 
10 ,2.0254 ,0.66437 ,5.29167 ,51.92190 
11 ,2.2657 ,0.66677 ,5.27114 ,51.72043 
12 ,2.4738 ,0.66892 ,5.26087 ,51.61969 
13 ,2.6658 ,0.67081 ,5.21639 ,51.18317 
14 ,2.8575 ,0.67275 ,5.21981 ,51.21675 
15 ,3.0660 ,0.67483 ,5.17532 ,50.78023 
16 ,3.2579 ,0.67671 ,5.17874 ,50.81381 
17 ,3.4500 ,0.67864 ,5.15821 ,50.61234 
18 ,3.6421 ,0.68059 ,5.13768 ,50.41087 
19 ,3.8503 ,0.68259 ,5.13083 ,50.34372 
20 ,4.0423 ,0.68458 ,5.09319 ,49.97436 
21 ,4.2345 ,0.68654 ,5.07950 ,49.84004 
22 ,4.4426 ,0.68859 ,5.06239 ,49.67215 
23 ,4.6507 ,0.69063 ,5.05212 ,49.57142 
24 ,4.8428 ,0.69256 ,5.01106 ,49.16848 
25 ,5.0509 ,0.69464 ,5.01106 ,49.16848 
26 ,5.2749 ,0.69684 ,4.99052 ,48.96701 
27 ,5.4829 ,0.69891 ,4.94603 ,48.53049 
28 ,5.6750 ,0.70089 ,4.92892 ,48.36260 
29 ,5.8830 ,0.70298 ,4.90155 ,48.09397 
30 ,6.0914 ,0.70503 ,4.89812 ,48.06039 
31 ,6.2994 ,0.70706 ,4.87759 ,47.85892 
32 ,6.4910 ,0.70912 ,4.87759 ,47.85892 
33 ,6.6996 ,0.71113 ,4.84337 ,47.52314 
34 ,6.9397 ,0.71340 ,4.82626 ,47.35525 
35 ,7.1474 ,0.71554 ,4.80573 ,47.15378 
36 ,7.3398 ,0.71750 ,4.77493 ,46.85157 
37 ,7.5477 ,0.71960 ,4.76124 ,46.71726 
38 ,7.7718 ,0.72181 ,4.74413 ,46.54937 
39 ,7.9797 ,0.72395 ,4.71333 ,46.24716 
40 ,8.1721 ,0.72583 ,4.72702 ,46.38148 
41 ,8.3643 ,0.72780 ,4.67568 ,45.87780 
42 ,8.5722 ,0.72983 ,4.65857 ,45.70991 
43 ,8.7639 ,0.73185 ,4.63462 ,45.47486 
44 ,8.9562 ,0.73370 ,4.60724 ,45.20624 
45 ,9.1644 ,0.73579 ,4.62435 ,45.37413 
46 ,9.3565 ,0.73771 ,4.59013 ,45.03835 
47 ,9.5646 ,0.73981 ,4.56617 ,44.80330 
48 ,9.7563 ,0.74171 ,4.55249 ,44.66898 
49 ,9.9489 ,0.74362 ,4.54564 ,44.60183 
50 ,10.1568 ,0.74570 ,4.52169 ,44.36678 
51 ,10.3809 ,0.74787 ,4.48404 ,43.99742 
52 ,10.5730 ,0.74985 ,4.48746 ,44.03100 
53 ,10.7652 ,0.75184 ,4.45666 ,43.72879 
54 ,10.9728 ,0.75389 ,4.43613 ,43.52732 
55 ,11.1813 ,0.75593 ,4.41218 ,43.29227 
56 ,11.3894 ,0.75799 ,4.40875 ,43.25870 
57 ,11.6135 ,0.76022 ,4.37453 ,42.92291 
58 ,11.8215 ,0.76229 ,4.36769 ,42.85576 
59 ,12.0135 ,0.76425 ,4.35058 ,42.68786 
60 ,12.2376 ,0.76638 ,4.33689 ,42.55355 
61 ,12.4457 ,0.76857 ,4.31978 ,42.38566 
62 ,12.6379 ,0.77051 ,4.28556 ,42.04988 
63 ,12.8458 ,0.77252 ,4.28556 ,42.04988 
64 ,13.0381 ,0.77449 ,4.24107 ,41.61336 
65 ,13.2460 ,0.77657 ,4.24449 ,41.64694 
66 ,13.4382 ,0.77848 ,4.20342 ,41.24400 
67 ,13.6305 ,0.78040 ,4.19658 ,41.17684 
68 ,13.8384 ,0.78250 ,4.16578 ,40.87464 
69 ,14.0306 ,0.78438 ,4.15894 ,40.80748 
70 ,14.2382 ,0.78645 ,4.14183 ,40.63959 
71 ,14.4464 ,0.78854 ,4.12471 ,40.47170 
72 ,14.6547 ,0.79065 ,4.08365 ,40.06876 
73 ,14.8630 ,0.79271 ,4.07680 ,40.00160 
74 ,15.0707 ,0.79481 ,4.06312 ,39.86729 
75 ,15.2790 ,0.79692 ,4.02205 ,39.46435 
76 ,15.4870 ,0.79892 ,4.02889 ,39.53150 
77 ,15.6790 ,0.80096 ,4.00494 ,39.29646 
78 ,15.8871 ,0.80294 ,3.99125 ,39.16214 
79 ,16.0955 ,0.80508 ,3.95703 ,38.82636 
80 ,16.2874 ,0.80699 ,3.95361 ,38.79278 
81 ,16.4952 ,0.80906 ,3.92623 ,38.52415 
82 ,16.7035 ,0.81112 ,3.92281 ,38.49058 
83 ,16.9118 ,0.81319 ,3.88516 ,38.12122 
84 ,17.1040 ,0.81517 ,3.86805 ,37.95332 
85 ,17.3118 ,0.81719 ,3.85436 ,37.81901 
86 ,17.5039 ,0.81915 ,3.84410 ,37.71828 
87 ,17.7120 ,0.82117 ,3.80303 ,37.31534 
88 ,17.9202 ,0.82321 ,3.80303 ,37.31534 
89 ,18.1284 ,0.82537 ,3.78592 ,37.14744 
90 ,18.3364 ,0.82745 ,3.75512 ,36.84524 
91 ,18.5603 ,0.82970 ,3.73801 ,36.67735 
92 ,18.7525 ,0.83161 ,3.72090 ,36.50946 
93 ,18.9447 ,0.83355 ,3.72432 ,36.54303 
94 ,19.1848 ,0.83581 ,3.68325 ,36.14010 
95 ,19.3927 ,0.83801 ,3.65930 ,35.90505 
96 ,19.5850 ,0.83995 ,3.66272 ,35.93863 
97 ,19.7925 ,0.84200 ,3.61481 ,35.46853 
98 ,20.0011 ,0.84413 ,3.62166 ,35.53569 
99 ,20.2090 ,0.84623 ,3.60112 ,35.33422 
100 ,20.4013 ,0.84811 ,3.58401 ,35.16632 
101 ,20.6094 ,0.85019 ,3.57032 ,35.03201 
102 ,20.8173 ,0.85225 ,3.54637 ,34.79696 
103 ,21.0257 ,0.85430 ,3.52584 ,34.59549 
104 ,21.2337 ,0.85642 ,3.49846 ,34.32687 
105 ,21.4417 ,0.85850 ,3.49504 ,34.29329 
106 ,21.6496 ,0.86050 ,3.45739 ,33.92393 
107 ,21.8416 ,0.86252 ,3.45397 ,33.89035 
108 ,22.0335 ,0.86442 ,3.41975 ,33.55457 
109 ,22.2578 ,0.86666 ,3.41633 ,33.52099 
110 ,22.4498 ,0.86867 ,3.40948 ,33.45383 
111 ,22.6422 ,0.87050 ,3.38553 ,33.21878 
112 ,22.8341 ,0.87245 ,3.35130 ,32.88300 
113 ,23.0265 ,0.87436 ,3.33419 ,32.71511 
114 ,23.2344 ,0.87638 ,3.32393 ,32.61437 
115 ,23.4425 ,0.87850 ,3.32051 ,32.58080 
116 ,23.6505 ,0.88061 ,3.28286 ,32.21143 
117 ,23.8587 ,0.88261 ,3.27944 ,32.17786 
118 ,24.0508 ,0.88456 ,3.24180 ,31.80849 
119 ,24.2424 ,0.88651 ,3.24522 ,31.84207 
120 ,24.4351 ,0.88844 ,3.22468 ,31.64060 
121 ,24.6429 ,0.89048 ,3.22126 ,31.60702 
122 ,24.8509 ,0.89258 ,3.18362 ,31.23766 
123 ,25.0430 ,0.89449 ,3.16993 ,31.10335 
124 ,25.2509 ,0.89659 ,3.13571 ,30.76757 
125 ,25.4595 ,0.89866 ,3.14597 ,30.86830 
126 ,25.6673 ,0.90073 ,3.11175 ,30.53252 
127 ,25.8756 ,0.90274 ,3.08780 ,30.29747 
128 ,26.0837 ,0.90491 ,3.08438 ,30.26389 
129 ,26.2918 ,0.90696 ,3.06042 ,30.02884 
130 ,26.4838 ,0.90892 ,3.04673 ,29.89453 
131 ,26.6759 ,0.91083 ,3.02962 ,29.72664 
132 ,26.8839 ,0.91290 ,3.02278 ,29.65948 
133 ,27.0760 ,0.91479 ,3.00909 ,29.52517 
134 ,27.2678 ,0.91674 ,2.96802 ,29.12223 
135 ,27.4760 ,0.91878 ,2.96118 ,29.05507 
136 ,27.6844 ,0.92091 ,2.93380 ,28.78645 
137 ,27.8922 ,0.92306 ,2.89958 ,28.45066 
138 ,28.0845 ,0.92492 ,2.91327 ,28.58498 
139 ,28.2925 ,0.92696 ,2.88931 ,28.34993 
140 ,28.5007 ,0.92903 ,2.88589 ,28.31635 
141 ,28.6927 ,0.93096 ,2.86193 ,28.08130 
142 ,28.8844 ,0.93291 ,2.84140 ,27.87983 
143 ,29.0768 ,0.93482 ,2.84140 ,27.87983 
144 ,29.2851 ,0.93690 ,2.81745 ,27.64479 
145 ,29.4930 ,0.93896 ,2.80376 ,27.51047 
146 ,29.6850 ,0.94091 ,2.77980 ,27.27542 
147 ,29.8932 ,0.94299 ,2.77638 ,27.24185 
148 ,30.0853 ,0.94493 ,2.74558 ,26.93964 
149 ,30.2772 ,0.94680 ,2.73189 ,26.80533 
150 ,30.4855 ,0.94890 ,2.71478 ,26.63744 
151 ,30.6776 ,0.95081 ,2.71478 ,26.63744 
152 ,30.8855 ,0.95289 ,2.68056 ,26.30165 
153 ,31.0778 ,0.95480 ,2.68056 ,26.30165 
154 ,31.2699 ,0.95677 ,2.64634 ,25.96587 
155 ,31.4776 ,0.95884 ,2.64634 ,25.96587 
156 ,31.6860 ,0.96082 ,2.61554 ,25.66367 
157 ,31.8777 ,0.96283 ,2.61896 ,25.69724 
158 ,32.0858 ,0.96483 ,2.58816 ,25.39504 
159 ,32.2618 ,0.96678 ,2.58474 ,25.36146 
160 ,32.4704 ,0.96863 ,2.58474 ,25.36146 
161 ,32.6784 ,0.97073 ,2.54367 ,24.95852 
162 ,32.8703 ,0.97277 ,2.52998 ,24.82421 
163 ,33.0625 ,0.97467 ,2.50945 ,24.62274 
164 ,33.2546 ,0.97658 ,2.50261 ,24.55558 
165 ,33.4787 ,0.97875 ,2.48207 ,24.35411 
166 ,33.7030 ,0.98110 ,2.46154 ,24.15264 
167 ,33.9109 ,0.98311 ,2.45127 ,24.05191 
168 ,34.1027 ,0.98505 ,2.42390 ,23.78328 
169 ,34.3113 ,0.98716 ,2.42390 ,23.78328 
170 ,34.5192 ,0.98926 ,2.41363 ,23.68255 
171 ,34.7114 ,0.99112 ,2.38283 ,23.38034 
172 ,34.9194 ,0.99321 ,2.37599 ,23.31318 
173 ,35.1276 ,0.99525 ,2.34519 ,23.01098 
174 ,35.3517 ,0.99754 ,2.34519 ,23.01098 
175 ,35.5756 ,0.99978 ,2.33150 ,22.87667 
176 ,35.7677 ,1.00172 ,2.29728 ,22.54088 
177 ,35.9917 ,1.00386 ,2.30070 ,22.57446 
178 ,36.2001 ,1.00609 ,2.26648 ,22.23868 
179 ,36.4079 ,1.00802 ,2.24937 ,22.07079 
180 ,36.6163 ,1.01019 ,2.23226 ,21.90290 
181 ,36.8243 ,1.01221 ,2.20830 ,21.66785 
182 ,37.0162 ,1.01424 ,2.20488 ,21.63427 
183 ,37.2243 ,1.01628 ,2.17408 ,21.33206 
184 ,37.4161 ,1.01819 ,2.17408 ,21.33206 
185 ,37.6247 ,1.02025 ,2.15355 ,21.13059 
186 ,37.8164 ,1.02226 ,2.15355 ,21.13059 
187 ,38.0247 ,1.02424 ,2.12617 ,20.86197 
188 ,38.2169 ,1.02621 ,2.11932 ,20.79481 
189 ,38.4247 ,1.02820 ,2.07826 ,20.39187 
190 ,38.6330 ,1.03032 ,2.07826 ,20.39187 
191 ,38.8410 ,1.03245 ,2.05430 ,20.15682 
192 ,39.0331 ,1.03437 ,2.06457 ,20.25756 
193 ,39.2255 ,1.03628 ,2.02008 ,19.82104 
194 ,39.4492 ,1.03851 ,2.02693 ,19.88820 
195 ,39.6413 ,1.04043 ,1.99613 ,19.58599 
196 ,39.8175 ,1.04233 ,1.98586 ,19.48526 
197 ,40.0258 ,1.04427 ,1.96875 ,19.31737 
198 ,40.2334 ,1.04629 ,1.95848 ,19.21663 
199 ,40.4417 ,1.04841 ,1.93795 ,19.01516 
200 ,40.6494 ,1.05049 ,1.92768 ,18.91443 
201 ,40.8575 ,1.05259 ,1.91057 ,18.74654 
202 ,41.0660 ,1.05463 ,1.90031 ,18.64580 
203 ,41.2739 ,1.05670 ,1.86608 ,18.31002 
204 ,41.4980 ,1.05893 ,1.84897 ,18.14213 
205 ,41.7062 ,1.06098 ,1.84555 ,18.10855 
206 ,41.9139 ,1.06313 ,1.82502 ,17.90708 
207 ,42.1222 ,1.06525 ,1.80106 ,17.67203 
208 ,42.3303 ,1.06727 ,1.80449 ,17.70561 
209 ,42.6027 ,1.06993 ,1.78737 ,17.53772 
210 ,42.8265 ,1.07221 ,1.77026 ,17.36983 
211 ,43.0349 ,1.07431 ,1.74631 ,17.13478 
212 ,43.2590 ,1.07652 ,1.73604 ,17.03404 
213 ,43.4670 ,1.07859 ,1.72235 ,16.89973 
214 ,43.6591 ,1.08057 ,1.70524 ,16.73184 
215 ,43.8668 ,1.08266 ,1.69155 ,16.59752 
216 ,44.0592 ,1.08454 ,1.65049 ,16.19458 
217 ,44.2834 ,1.08687 ,1.64707 ,16.16101 
218 ,44.5073 ,1.08904 ,1.66075 ,16.29532 
219 ,44.6997 ,1.09101 ,1.62311 ,15.92596 
220 ,44.9074 ,1.09299 ,1.61284 ,15.82522 
221 ,45.0993 ,1.09500 ,1.58204 ,15.52302 
222 ,45.3077 ,1.09703 ,1.59573 ,15.65733 
223 ,45.5000 ,1.09901 ,1.56151 ,15.32155 
224 ,45.7079 ,1.10105 ,1.56836 ,15.38871 
225 ,45.9001 ,1.10302 ,1.53413 ,15.05292 
226 ,46.0922 ,1.10496 ,1.53756 ,15.08650 
227 ,46.3003 ,1.10697 ,1.51360 ,14.85145 
228 ,46.5083 ,1.10905 ,1.50676 ,14.78430 
229 ,46.7164 ,1.11111 ,1.48280 ,14.54925 
230 ,46.8924 ,1.11303 ,1.48280 ,14.54925 
231 ,47.0846 ,1.11486 ,1.46911 ,14.41493 
232 ,47.2923 ,1.11688 ,1.44516 ,14.17989 
233 ,47.5008 ,1.11897 ,1.42120 ,13.94484 
234 ,47.7089 ,1.12106 ,1.43489 ,14.07915 
235 ,47.9009 ,1.12300 ,1.39383 ,13.67621 
236 ,48.0931 ,1.12493 ,1.39383 ,13.67621 
237 ,48.2851 ,1.12684 ,1.38356 ,13.57548 
238 ,48.4772 ,1.12875 ,1.35618 ,13.30685 
239 ,48.6693 ,1.13064 ,1.36303 ,13.37401 
240 ,48.8773 ,1.13274 ,1.32880 ,13.03822 
241 ,49.0854 ,1.13484 ,1.32538 ,13.00465 
242 ,49.2936 ,1.13689 ,1.29800 ,12.73602 
243 ,49.5173 ,1.13917 ,1.29458 ,12.70244 
244 ,49.7418 ,1.14127 ,1.29116 ,12.66886 
245 ,49.9499 ,1.14342 ,1.27747 ,12.53455 
246 ,50.1419 ,1.14536 ,1.23983 ,12.16519 
247 ,50.3340 ,1.14733 ,1.23641 ,12.13161 
248 ,50.5259 ,1.14922 ,1.24325 ,12.19877 
249 ,50.7182 ,1.15113 ,1.20903 ,11.86298 
250 ,50.9264 ,1.15326 ,1.21929 ,11.96372 
251 ,51.1344 ,1.15532 ,1.17823 ,11.56078 
252 ,51.3425 ,1.15734 ,1.18165 ,11.59436 
253 ,51.5346 ,1.15933 ,1.15427 ,11.32573 
254 ,51.7422 ,1.16132 ,1.15427 ,11.32573 
255 ,51.9348 ,1.16330 ,1.13374 ,11.12426 
256 ,52.1269 ,1.16523 ,1.14058 ,11.19142 
257 ,52.3347 ,1.16727 ,1.11321 ,10.92279 
258 ,52.5269 ,1.16925 ,1.10294 ,10.82206 
259 ,52.7351 ,1.17135 ,1.06872 ,10.48627 
260 ,52.9430 ,1.17333 ,1.07899 ,10.58701 
261 ,53.1512 ,1.17546 ,1.04134 ,10.21765 
262 ,53.3592 ,1.17750 ,1.04134 ,10.21765 
263 ,53.5515 ,1.17944 ,1.02423 ,10.04976 
264 ,53.7593 ,1.18154 ,1.01396 ,9.94902 
265 ,53.9834 ,1.18374 ,1.00712 ,9.88186 
266 ,54.1917 ,1.18575 ,0.97290 ,9.54608 
267 ,54.3837 ,1.18785 ,0.97632 ,9.57966 
268 ,54.5758 ,1.18972 ,0.94552 ,9.27745 
269 ,54.7840 ,1.19167 ,0.96605 ,9.47892 
270 ,55.0237 ,1.19409 ,0.93868 ,9.21030 
271 ,55.2324 ,1.19623 ,0.90446 ,8.87451 
272 ,55.4561 ,1.19849 ,0.90446 ,8.87451 
273 ,55.6481 ,1.20043 ,0.89419 ,8.77378 
274 ,55.8404 ,1.20234 ,0.87366 ,8.57231 
275 ,56.0484 ,1.20444 ,0.87708 ,8.60589 
276 ,56.2884 ,1.20673 ,0.84970 ,8.33726 
277 ,56.4965 ,1.20891 ,0.83943 ,8.23653 
278 ,56.7047 ,1.21094 ,0.83943 ,8.23653 
279 ,56.8965 ,1.21293 ,0.81548 ,8.00148 
280 ,57.1049 ,1.21495 ,0.80863 ,7.93432 
281 ,57.2967 ,1.21690 ,0.78468 ,7.69927 
282 ,57.5047 ,1.21897 ,0.79152 ,7.76643 
283 ,57.7291 ,1.22120 ,0.75730 ,7.43065 
284 ,57.9368 ,1.22325 ,0.75046 ,7.36349 
285 ,58.1295 ,1.22527 ,0.73677 ,7.22918 
286 ,58.3370 ,1.22725 ,0.72308 ,7.09486 
287 ,58.5134 ,1.22920 ,0.70939 ,6.96055 
288 ,58.7055 ,1.23099 ,0.71281 ,6.99413 
289 ,58.8971 ,1.23289 ,0.68886 ,6.75908 
290 ,59.0897 ,1.23483 ,0.67517 ,6.62477 
291 ,59.2974 ,1.23690 ,0.67175 ,6.59119 
292 ,59.4899 ,1.23882 ,0.64779 ,6.35614 
293 ,59.6978 ,1.24095 ,0.64095 ,6.28899 
294 ,59.9060 ,1.24306 ,0.64437 ,6.32256 
295 ,60.0980 ,1.24491 ,0.62042 ,6.08752 
296 ,60.3218 ,1.24713 ,0.61699 ,6.05394 
297 ,60.5137 ,1.24905 ,0.58619 ,5.75173 
298 ,60.7061 ,1.25099 ,0.58619 ,5.75173 
299 ,60.9141 ,1.25309 ,0.55882 ,5.48311 
300 ,61.1225 ,1.25512 ,0.56566 ,5.55026 
301 ,61.3146 ,1.25710 ,0.54513 ,5.34879 
302 ,61.5228 ,1.25914 ,0.54513 ,5.34879 
303 ,61.7468 ,1.26131 ,0.52117 ,5.11375 
304 ,61.9709 ,1.26363 ,0.49380 ,4.84512 
305 ,62.1788 ,1.26571 ,0.49380 ,4.84512 
306 ,62.3709 ,1.26759 ,0.47668 ,4.67723 
307 ,62.5631 ,1.26953 ,0.48011 ,4.71081 
308 ,62.7710 ,1.27163 ,0.44931 ,4.40860 
309 ,62.9791 ,1.27374 ,0.45957 ,4.50934 
310 ,63.1715 ,1.27561 ,0.43562 ,4.27429 
311 ,63.3793 ,1.27766 ,0.42877 ,4.20713 
312 ,63.5714 ,1.27972 ,0.40140 ,3.93850 
313 ,63.7633 ,1.28157 ,0.40824 ,4.00566 
314 ,63.9717 ,1.28361 ,0.38771 ,3.80419 
315 ,64.1635 ,1.28558 ,0.38771 ,3.80419 
316 ,64.3718 ,1.28763 ,0.36375 ,3.56914 
317 ,64.5797 ,1.28967 ,0.35349 ,3.46841 
318 ,64.7720 ,1.29166 ,0.33638 ,3.30052 
319 ,64.9800 ,1.29371 ,0.34322 ,3.36767 
320 ,65.1722 ,1.29559 ,0.30900 ,3.03189 
321 ,65.3804 ,1.29772 ,0.31584 ,3.09905 
322 ,65.5719 ,1.29964 ,0.28847 ,2.83042 
323 ,65.7645 ,1.30155 ,0.29189 ,2.86400 
324 ,66.0041 ,1.30384 ,0.27135 ,2.66253 
325 ,66.2127 ,1.30604 ,0.25424 ,2.49464 
326 ,66.4367 ,1.30824 ,0.25424 ,2.49464 
327 ,66.6448 ,1.31034 ,0.24055 ,2.36032 
328 ,66.8529 ,1.31241 ,0.21318 ,2.09170 
329 ,67.0610 ,1.31445 ,0.21318 ,2.09170 
330 ,67.2850 ,1.31676 ,0.20633 ,2.02454 
331 ,67.4930 ,1.31884 ,0.17553 ,1.72234 
332 ,67.6851 ,1.32076 ,0.18580 ,1.82307 
333 ,67.8771 ,1.32264 ,0.17211 ,1.68876 
334 ,68.0529 ,1.32457 ,0.15500 ,1.52087 
335 ,68.2450 ,1.32649 ,0.14816 ,1.45371 
336 ,68.4371 ,1.32827 ,0.14131 ,1.38655 
337 ,68.6296 ,1.33019 ,0.11736 ,1.15151 
338 ,68.8216 ,1.33209 ,0.12078 ,1.18508 
339 ,69.0296 ,1.33413 ,0.10367 ,1.01719 
340 ,69.2217 ,1.33608 ,0.10025 ,0.98361 
341 ,69.4139 ,1.33804 ,0.08656 ,0.84930 
342 ,69.6219 ,1.34006 ,0.05918 ,0.58067 
343 ,69.8141 ,1.34207 ,0.05234 ,0.51352 
344 ,70.0223 ,1.34417 ,0.04549 ,0.44636 
345 ,70.2304 ,1.34620 ,0.02496 ,0.24489 
346 ,70.4378 ,1.34828 ,0.03865 ,0.37920 
347 ,70.6305 ,1.35022 ,0.00443 ,0.04342 
348 ,70.8385 ,1.35232 ,0.02838 ,0.27847 
349 ,71.0465 ,1.35430 ,0.00100 ,0.00984 
350 ,71.2546 ,1.35642 ,-0.00584 ,-0.05731 
351 ,71.4465 ,1.35850 ,-0.01953 ,-0.19163 
352 ,71.6708 ,1.36057 ,-0.04006 ,-0.39310 
353 ,71.8788 ,1.36268 ,-0.03322 ,-0.32594 
354 ,72.0549 ,1.36453 ,-0.06744 ,-0.66172 
355 ,72.2628 ,1.36655 ,-0.06060 ,-0.59457 
356 ,72.4711 ,1.36859 ,-0.08797 ,-0.86319 
357 ,72.6627 ,1.37055 ,-0.09140 ,-0.89677 
358 ,72.8552 ,1.37241 ,-0.08113 ,-0.79604 
359 ,73.0632 ,1.37453 ,-0.10166 ,-0.99751 
360 ,73.2715 ,1.37657 ,-0.12219 ,-1.19898 
361 ,73.4796 ,1.37869 ,-0.12219 ,-1.19898 
362 ,73.6712 ,1.38060 ,-0.14273 ,-1.40045 
363 ,73.8798 ,1.38264 ,-0.14957 ,-1.46760 
364 ,74.1199 ,1.38494 ,-0.17695 ,-1.73623 
365 ,74.3279 ,1.38717 ,-0.19064 ,-1.87054 
366 ,74.5200 ,1.38911 ,-0.18379 ,-1.80338 
367 ,74.7281 ,1.39116 ,-0.21459 ,-2.10559 
368 ,74.9361 ,1.39316 ,-0.19406 ,-1.90412 
369 ,75.1443 ,1.39535 ,-0.22828 ,-2.23990 
370 ,75.3522 ,1.39732 ,-0.21459 ,-2.10559 
371 ,75.5445 ,1.39933 ,-0.23513 ,-2.30706 
372 ,75.7523 ,1.40138 ,-0.23855 ,-2.34064 
373 ,75.9607 ,1.40345 ,-0.25566 ,-2.50853 
374 ,76.1687 ,1.40554 ,-0.27619 ,-2.71000 
375 ,76.3767 ,1.40762 ,-0.27277 ,-2.67642 
376 ,76.5848 ,1.40973 ,-0.30699 ,-3.01220 
377 ,76.7928 ,1.41173 ,-0.28988 ,-2.84431 
378 ,76.9847 ,1.41373 ,-0.31384 ,-3.07936 
379 ,77.2091 ,1.41583 ,-0.31041 ,-3.04578 
380 ,77.4333 ,1.41813 ,-0.32068 ,-3.14652 
381 ,77.6410 ,1.42024 ,-0.35148 ,-3.44872 
382 ,77.8170 ,1.42217 ,-0.33779 ,-3.31441 
383 ,78.0095 ,1.42394 ,-0.36859 ,-3.61661 
384 ,78.2335 ,1.42617 ,-0.36175 ,-3.54946 
385 ,78.4414 ,1.42823 ,-0.38570 ,-3.78450 
386 ,78.6495 ,1.43034 ,-0.38570 ,-3.78450 
387 ,78.8415 ,1.43230 ,-0.40966 ,-4.01955 
388 ,79.0338 ,1.43419 ,-0.40281 ,-3.95240 
389 ,79.2259 ,1.43616 ,-0.41992 ,-4.12029 
390 ,79.4181 ,1.43800 ,-0.42335 ,-4.15387 
391 ,79.6257 ,1.44011 ,-0.44730 ,-4.38891 
392 ,79.8182 ,1.44203 ,-0.44388 ,-4.35534 
393 ,80.0261 ,1.44412 ,-0.48152 ,-4.72470 
394 ,80.2342 ,1.44619 ,-0.46783 ,-4.59038 
395 ,80.4585 ,1.44839 ,-0.48494 ,-4.75828 
396 ,80.6665 ,1.45053 ,-0.50548 ,-4.95975 
397 ,80.8747 ,1.45257 ,-0.50206 ,-4.92617 
398 ,81.0668 ,1.45452 ,-0.51917 ,-5.09406 
399 ,81.2748 ,1.45652 ,-0.50890 ,-4.99332 
400 ,81.4829 ,1.45861 ,-0.54654 ,-5.36268 
401 ,81.6751 ,1.46065 ,-0.53285 ,-5.22837 
402 ,81.8832 ,1.46264 ,-0.56023 ,-5.49700 
403 ,82.0912 ,1.46473 ,-0.54997 ,-5.39626 
404 ,82.2992 ,1.46677 ,-0.57050 ,-5.59773 
405 ,82.4909 ,1.46874 ,-0.58077 ,-5.69847 
406 ,82.6834 ,1.47073 ,-0.59103 ,-5.79920 
407 ,82.9071 ,1.47290 ,-0.60472 ,-5.93352 
408 ,83.0992 ,1.47481 ,-0.60814 ,-5.96709 
409 ,83.2918 ,1.47677 ,-0.60472 ,-5.93352 
410 ,83.4999 ,1.47879 ,-0.63552 ,-6.23572 
411 ,83.7078 ,1.48096 ,-0.62525 ,-6.13499 
412 ,83.9156 ,1.48300 ,-0.63210 ,-6.20214 
413 ,84.1079 ,1.48490 ,-0.65605 ,-6.43719 
414 ,84.3161 ,1.48701 ,-0.64236 ,-6.30288 
415 ,84.5241 ,1.48904 ,-0.68001 ,-6.67224 
416 ,84.7163 ,1.49099 ,-0.66290 ,-6.50435 
417 ,84.9083 ,1.49292 ,-0.68001 ,-6.67224 
418 ,85.1166 ,1.49496 ,-0.69712 ,-6.84013 
419 ,85.3405 ,1.49717 ,-0.70396 ,-6.90729 
420 ,85.5486 ,1.49930 ,-0.71423 ,-7.00802 
421 ,85.7563 ,1.50134 ,-0.71423 ,-7.00802 
422 ,85.9646 ,1.50348 ,-0.74161 ,-7.27665 
423 ,86.1887 ,1.50570 ,-0.72450 ,-7.10876 
424 ,86.3968 ,1.50775 ,-0.73818 ,-7.24307 
425 ,86.5891 ,1.50979 ,-0.75872 ,-7.44454 
426 ,86.7969 ,1.51175 ,-0.77241 ,-7.57885 
427 ,87.0210 ,1.51396 ,-0.77925 ,-7.64601 
428 ,87.2295 ,1.51609 ,-0.77241 ,-7.57885 
429 ,87.4535 ,1.51831 ,-0.79294 ,-7.78032 
430 ,87.6614 ,1.52046 ,-0.81689 ,-8.01537 
431 ,87.8534 ,1.52236 ,-0.81689 ,-8.01537 
432 ,88.0455 ,1.52431 ,-0.83401 ,-8.18326 
433 ,88.2538 ,1.52637 ,-0.82716 ,-8.11611 
434 ,88.4619 ,1.52835 ,-0.85796 ,-8.41831 
435 ,88.6700 ,1.53048 ,-0.84769 ,-8.31758 
436 ,88.8621 ,1.53245 ,-0.87507 ,-8.58620 
437 ,89.0538 ,1.53446 ,-0.87165 ,-8.55262 
438 ,89.2461 ,1.53631 ,-0.88876 ,-8.72051 
439 ,89.4704 ,1.53838 ,-0.87849 ,-8.61978 
440 ,89.6785 ,1.54064 ,-0.90245 ,-8.85483 
441 ,89.8866 ,1.54269 ,-0.91272 ,-8.95556 
442 ,90.0783 ,1.54460 ,-0.91272 ,-8.95556 
443 ,90.2868 ,1.54670 ,-0.92983 ,-9.12345 
444 ,90.4949 ,1.54881 ,-0.92640 ,-9.08988 
445 ,90.7029 ,1.55085 ,-0.95036 ,-9.32492 
446 ,90.9110 ,1.55291 ,-0.94009 ,-9.22419 
447 ,91.1031 ,1.55496 ,-0.96063 ,-9.42566 
448 ,91.3111 ,1.55693 ,-0.96063 ,-9.42566 
449 ,91.5029 ,1.55886 ,-0.98800 ,-9.69429 
450 ,91.6949 ,1.56074 ,-0.97774 ,-9.59355 
451 ,91.9031 ,1.56278 ,-1.00511 ,-9.86218 
452 ,92.1115 ,1.56488 ,-0.99485 ,-9.76144 
453 ,92.3032 ,1.56696 ,-1.02222 ,-10.03007 
454 ,92.5116 ,1.56890 ,-1.00854 ,-9.89576 
455 ,92.7038 ,1.57087 ,-1.03934 ,-10.19796 
456 ,92.8957 ,1.57286 ,-1.03249 ,-10.13080 
457 ,93.1038 ,1.57480 ,-1.03934 ,-10.19796 
458 ,93.3281 ,1.57703 ,-1.05645 ,-10.36585 
459 ,93.5361 ,1.57915 ,-1.05302 ,-10.33227 
460 ,93.7443 ,1.58123 ,-1.07014 ,-10.50016 
461 ,93.9524 ,1.58333 ,-1.08382 ,-10.63448 
462 ,94.1764 ,1.58553 ,-1.08725 ,-10.66806 
