Data stamp = , 05-05-2022 09:50:14 884

Calibration Values: 
Slope = , 26.54 , g/V 
Offset Voltage at no contact = , -0.501760 , V 

No , Time , Stage Position ,   Mass , Force 
   ,  (s) ,      (mm)      ,   (g)  , (mN)  

1 ,0.0000 ,0.64946 ,5.21296 ,51.14960 
2 ,0.2432 ,0.64957 ,5.18216 ,50.84739 
3 ,0.6595 ,0.65094 ,5.20270 ,51.04886 
4 ,0.8998 ,0.65319 ,5.19585 ,50.98170 
5 ,1.1400 ,0.65548 ,5.18901 ,50.91455 
6 ,1.3479 ,0.65769 ,5.18559 ,50.88097 
7 ,1.5561 ,0.65963 ,5.20612 ,51.08244 
8 ,1.7644 ,0.66179 ,5.17532 ,50.78023 
9 ,1.9723 ,0.66390 ,5.15136 ,50.54519 
10 ,2.1643 ,0.66581 ,5.15136 ,50.54519 
11 ,2.3886 ,0.66807 ,5.11714 ,50.20940 
12 ,2.5966 ,0.67010 ,5.11372 ,50.17583 
13 ,2.7885 ,0.67220 ,5.08634 ,49.90720 
14 ,2.9808 ,0.67396 ,5.07265 ,49.77289 
15 ,3.1888 ,0.67606 ,5.04185 ,49.47068 
16 ,3.3809 ,0.67803 ,5.04185 ,49.47068 
17 ,3.5887 ,0.68004 ,5.00079 ,49.06774 
18 ,3.7809 ,0.68198 ,5.00421 ,49.10132 
19 ,4.0049 ,0.68422 ,4.95630 ,48.63122 
20 ,4.2133 ,0.68636 ,4.93235 ,48.39618 
21 ,4.4372 ,0.68849 ,4.93919 ,48.46333 
22 ,4.6452 ,0.69060 ,4.90155 ,48.09397 
23 ,4.8697 ,0.69282 ,4.86390 ,47.72461 
24 ,5.1095 ,0.69514 ,4.85706 ,47.65745 
25 ,5.3179 ,0.69740 ,4.83652 ,47.45598 
26 ,5.5260 ,0.69938 ,4.81257 ,47.22093 
27 ,5.7500 ,0.70167 ,4.79204 ,47.01946 
28 ,5.9420 ,0.70365 ,4.79204 ,47.01946 
29 ,6.1500 ,0.70563 ,4.74070 ,46.51579 
30 ,6.3421 ,0.70761 ,4.74755 ,46.58295 
31 ,6.5503 ,0.70965 ,4.71333 ,46.24716 
32 ,6.7422 ,0.71174 ,4.70306 ,46.14643 
33 ,6.9342 ,0.71350 ,4.66884 ,45.81065 
34 ,7.1262 ,0.71544 ,4.67568 ,45.87780 
35 ,7.3344 ,0.71750 ,4.63804 ,45.50844 
36 ,7.5589 ,0.71980 ,4.62777 ,45.40771 
37 ,7.7984 ,0.72196 ,4.61066 ,45.23981 
38 ,8.0069 ,0.72424 ,4.57986 ,44.93761 
39 ,8.2146 ,0.72634 ,4.54222 ,44.56825 
40 ,8.4233 ,0.72836 ,4.53880 ,44.53467 
41 ,8.6470 ,0.73060 ,4.52511 ,44.40036 
42 ,8.8552 ,0.73277 ,4.49089 ,44.06457 
43 ,9.0632 ,0.73478 ,4.47720 ,43.93026 
44 ,9.2872 ,0.73691 ,4.44982 ,43.66163 
45 ,9.5115 ,0.73923 ,4.42929 ,43.46016 
46 ,9.7353 ,0.74150 ,4.40875 ,43.25870 
47 ,9.9434 ,0.74356 ,4.41218 ,43.29227 
48 ,10.1519 ,0.74567 ,4.38138 ,42.99007 
49 ,10.3437 ,0.74760 ,4.36427 ,42.82218 
50 ,10.5520 ,0.74971 ,4.33689 ,42.55355 
51 ,10.7601 ,0.75173 ,4.31293 ,42.31850 
52 ,10.9680 ,0.75386 ,4.31636 ,42.35208 
53 ,11.1438 ,0.75576 ,4.26845 ,41.88198 
54 ,11.3522 ,0.75770 ,4.25133 ,41.71409 
55 ,11.5599 ,0.75974 ,4.22738 ,41.47905 
56 ,11.7524 ,0.76178 ,4.23422 ,41.54620 
57 ,11.9605 ,0.76377 ,4.22396 ,41.44547 
58 ,12.1682 ,0.76583 ,4.19658 ,41.17684 
59 ,12.3608 ,0.76778 ,4.16578 ,40.87464 
60 ,12.5690 ,0.76979 ,4.15209 ,40.74032 
61 ,12.7607 ,0.77178 ,4.12814 ,40.50527 
62 ,12.9528 ,0.77369 ,4.11103 ,40.33738 
63 ,13.1448 ,0.77557 ,4.09734 ,40.20307 
64 ,13.3372 ,0.77753 ,4.06654 ,39.90087 
65 ,13.5291 ,0.77944 ,4.05969 ,39.83371 
66 ,13.7214 ,0.78138 ,4.02205 ,39.46435 
67 ,13.9294 ,0.78341 ,4.02889 ,39.53150 
68 ,14.1375 ,0.78552 ,3.98783 ,39.12856 
69 ,14.3456 ,0.78756 ,3.99809 ,39.22930 
70 ,14.5537 ,0.78967 ,3.96387 ,38.89352 
71 ,14.7458 ,0.79161 ,3.94676 ,38.72562 
72 ,14.9537 ,0.79365 ,3.91938 ,38.45700 
73 ,15.1619 ,0.79575 ,3.89885 ,38.25553 
74 ,15.3538 ,0.79771 ,3.88516 ,38.12122 
75 ,15.5781 ,0.79988 ,3.85779 ,37.85259 
76 ,15.7702 ,0.80183 ,3.86805 ,37.95332 
77 ,15.9938 ,0.80402 ,3.83041 ,37.58396 
78 ,16.1863 ,0.80607 ,3.81330 ,37.41607 
79 ,16.3784 ,0.80791 ,3.77223 ,37.01313 
80 ,16.5705 ,0.80986 ,3.79276 ,37.21460 
81 ,16.7786 ,0.81190 ,3.74828 ,36.77808 
82 ,16.9867 ,0.81400 ,3.75512 ,36.84524 
83 ,17.2108 ,0.81622 ,3.71748 ,36.47588 
84 ,17.4349 ,0.81834 ,3.69352 ,36.24083 
85 ,17.6271 ,0.82039 ,3.68325 ,36.14010 
86 ,17.8511 ,0.82262 ,3.66614 ,35.97220 
87 ,18.0592 ,0.82474 ,3.63192 ,35.63642 
88 ,18.2672 ,0.82678 ,3.62850 ,35.60284 
89 ,18.4911 ,0.82903 ,3.60797 ,35.40137 
90 ,18.6993 ,0.83111 ,3.57717 ,35.09917 
91 ,18.8915 ,0.83305 ,3.57717 ,35.09917 
92 ,19.1152 ,0.83524 ,3.54295 ,34.76338 
93 ,19.3232 ,0.83734 ,3.52926 ,34.62907 
94 ,19.5160 ,0.83935 ,3.51557 ,34.49476 
95 ,19.7078 ,0.84127 ,3.50530 ,34.39402 
96 ,19.9159 ,0.84327 ,3.47108 ,34.05824 
97 ,20.1079 ,0.84522 ,3.44713 ,33.82319 
98 ,20.3001 ,0.84710 ,3.42659 ,33.62172 
99 ,20.4921 ,0.84913 ,3.43001 ,33.65530 
100 ,20.6841 ,0.85095 ,3.39579 ,33.31952 
101 ,20.8924 ,0.85305 ,3.39921 ,33.35310 
102 ,21.1004 ,0.85512 ,3.36499 ,33.01731 
103 ,21.2925 ,0.85706 ,3.36499 ,33.01731 
104 ,21.5002 ,0.85910 ,3.32393 ,32.61437 
105 ,21.7087 ,0.86114 ,3.33077 ,32.68153 
106 ,21.9168 ,0.86327 ,3.29655 ,32.34575 
107 ,22.1250 ,0.86537 ,3.27259 ,32.11070 
108 ,22.3489 ,0.86760 ,3.26233 ,32.00996 
109 ,22.5410 ,0.86955 ,3.22468 ,31.64060 
110 ,22.7651 ,0.87174 ,3.22126 ,31.60702 
111 ,23.0052 ,0.87404 ,3.22126 ,31.60702 
112 ,23.2129 ,0.87620 ,3.18704 ,31.27124 
113 ,23.4216 ,0.87829 ,3.15282 ,30.93546 
114 ,23.6295 ,0.88039 ,3.15966 ,31.00262 
115 ,23.8534 ,0.88267 ,3.13913 ,30.80115 
116 ,24.0617 ,0.88472 ,3.10491 ,30.46536 
117 ,24.2537 ,0.88676 ,3.09806 ,30.39821 
118 ,24.4455 ,0.88860 ,3.07069 ,30.12958 
119 ,24.6379 ,0.89052 ,3.06042 ,30.02884 
120 ,24.8295 ,0.89242 ,3.04673 ,29.89453 
121 ,25.0222 ,0.89434 ,3.02962 ,29.72664 
122 ,25.2297 ,0.89637 ,3.00567 ,29.49159 
123 ,25.4382 ,0.89845 ,2.98855 ,29.32370 
124 ,25.6460 ,0.90054 ,2.95433 ,28.98792 
125 ,25.8384 ,0.90247 ,2.96118 ,29.05507 
126 ,26.0623 ,0.90478 ,2.94749 ,28.92076 
127 ,26.2706 ,0.90677 ,2.92696 ,28.71929 
128 ,26.4626 ,0.90877 ,2.90300 ,28.48424 
129 ,26.6548 ,0.91078 ,2.89616 ,28.41709 
130 ,26.8467 ,0.91256 ,2.87220 ,28.18204 
131 ,27.0546 ,0.91473 ,2.87220 ,28.18204 
132 ,27.2469 ,0.91655 ,2.82087 ,27.67836 
133 ,27.4391 ,0.91846 ,2.82771 ,27.74552 
134 ,27.6632 ,0.92074 ,2.79349 ,27.40974 
135 ,27.8553 ,0.92263 ,2.80034 ,27.47689 
136 ,28.0472 ,0.92450 ,2.76954 ,27.17469 
137 ,28.2554 ,0.92663 ,2.77296 ,27.20827 
138 ,28.4637 ,0.92875 ,2.73531 ,26.83891 
139 ,28.6716 ,0.93077 ,2.72505 ,26.73817 
140 ,28.8634 ,0.93270 ,2.69767 ,26.46954 
141 ,29.0558 ,0.93466 ,2.69083 ,26.40239 
142 ,29.2637 ,0.93680 ,2.68398 ,26.33523 
143 ,29.4880 ,0.93880 ,2.67029 ,26.20092 
144 ,29.6961 ,0.94103 ,2.64634 ,25.96587 
145 ,29.9040 ,0.94307 ,2.61554 ,25.66367 
146 ,30.1122 ,0.94520 ,2.60185 ,25.52935 
147 ,30.3199 ,0.94718 ,2.58816 ,25.39504 
148 ,30.5284 ,0.94934 ,2.56421 ,25.15999 
149 ,30.7526 ,0.95157 ,2.56421 ,25.15999 
150 ,30.9606 ,0.95369 ,2.52998 ,24.82421 
151 ,31.1686 ,0.95575 ,2.51630 ,24.68989 
152 ,31.3605 ,0.95775 ,2.50603 ,24.58916 
153 ,31.5689 ,0.95976 ,2.48207 ,24.35411 
154 ,31.7769 ,0.96188 ,2.46839 ,24.21980 
155 ,31.9850 ,0.96387 ,2.45127 ,24.05191 
156 ,32.1932 ,0.96597 ,2.44101 ,23.95117 
157 ,32.4012 ,0.96809 ,2.42732 ,23.81686 
158 ,32.6092 ,0.97013 ,2.39994 ,23.54823 
159 ,32.8174 ,0.97222 ,2.38625 ,23.41392 
160 ,33.0253 ,0.97424 ,2.35203 ,23.07814 
161 ,33.2177 ,0.97629 ,2.36572 ,23.21245 
162 ,33.4261 ,0.97830 ,2.33834 ,22.94382 
163 ,33.6493 ,0.98053 ,2.31097 ,22.67520 
164 ,33.8418 ,0.98249 ,2.31781 ,22.74235 
165 ,34.0338 ,0.98448 ,2.27332 ,22.30584 
166 ,34.2420 ,0.98650 ,2.28017 ,22.37299 
167 ,34.4341 ,0.98841 ,2.26306 ,22.20510 
168 ,34.6262 ,0.99034 ,2.23568 ,21.93647 
169 ,34.8341 ,0.99233 ,2.22541 ,21.83574 
170 ,35.0423 ,0.99446 ,2.20830 ,21.66785 
171 ,35.2343 ,0.99640 ,2.19119 ,21.49996 
172 ,35.4265 ,0.99831 ,2.16381 ,21.23133 
173 ,35.6186 ,1.00029 ,2.18092 ,21.39922 
174 ,35.8103 ,1.00213 ,2.13986 ,20.99628 
175 ,36.0027 ,1.00421 ,2.13301 ,20.92912 
176 ,36.2109 ,1.00618 ,2.10221 ,20.62692 
177 ,36.4191 ,1.00822 ,2.10906 ,20.69408 
178 ,36.6271 ,1.01032 ,2.08168 ,20.42545 
179 ,36.8669 ,1.01261 ,2.06115 ,20.22398 
180 ,37.0752 ,1.01482 ,2.05088 ,20.12325 
181 ,37.2828 ,1.01688 ,2.02008 ,19.82104 
182 ,37.5073 ,1.01899 ,2.01666 ,19.78746 
183 ,37.7153 ,1.02119 ,2.00297 ,19.65315 
184 ,37.9075 ,1.02312 ,1.97559 ,19.38452 
185 ,38.0995 ,1.02514 ,1.97217 ,19.35094 
186 ,38.2917 ,1.02699 ,1.95164 ,19.14948 
187 ,38.5157 ,1.02909 ,1.93795 ,19.01516 
188 ,38.7398 ,1.03142 ,1.92768 ,18.91443 
189 ,38.9320 ,1.03339 ,1.90031 ,18.64580 
190 ,39.1395 ,1.03555 ,1.88662 ,18.51149 
191 ,39.3321 ,1.03740 ,1.87293 ,18.37717 
192 ,39.5400 ,1.03947 ,1.87293 ,18.37717 
193 ,39.7483 ,1.04147 ,1.83871 ,18.04139 
194 ,39.9562 ,1.04357 ,1.83871 ,18.04139 
195 ,40.1802 ,1.04581 ,1.82160 ,17.87350 
196 ,40.4043 ,1.04810 ,1.80106 ,17.67203 
197 ,40.6127 ,1.05020 ,1.77369 ,17.40340 
198 ,40.8208 ,1.05222 ,1.77026 ,17.36983 
199 ,41.0447 ,1.05444 ,1.73946 ,17.06762 
200 ,41.2525 ,1.05654 ,1.73262 ,17.00046 
201 ,41.4448 ,1.05854 ,1.71893 ,16.86615 
202 ,41.6529 ,1.06053 ,1.70524 ,16.73184 
203 ,41.8609 ,1.06265 ,1.69498 ,16.63110 
204 ,42.0692 ,1.06470 ,1.66075 ,16.29532 
205 ,42.2770 ,1.06680 ,1.67102 ,16.39605 
206 ,42.4849 ,1.06887 ,1.64707 ,16.16101 
207 ,42.6775 ,1.07081 ,1.62653 ,15.95954 
208 ,42.9016 ,1.07301 ,1.62995 ,15.99311 
209 ,43.1097 ,1.07512 ,1.59231 ,15.62375 
210 ,43.3177 ,1.07727 ,1.57862 ,15.48944 
211 ,43.5254 ,1.07931 ,1.58204 ,15.52302 
212 ,43.7339 ,1.08138 ,1.54782 ,15.18724 
213 ,43.9420 ,1.08346 ,1.55467 ,15.25439 
214 ,44.1340 ,1.08538 ,1.51360 ,14.85145 
215 ,44.3421 ,1.08744 ,1.52729 ,14.98577 
216 ,44.5340 ,1.08949 ,1.49991 ,14.71714 
217 ,44.7581 ,1.09159 ,1.49649 ,14.68356 
218 ,44.9819 ,1.09384 ,1.46911 ,14.41493 
219 ,45.1901 ,1.09589 ,1.43489 ,14.07915 
220 ,45.3660 ,1.09780 ,1.45200 ,14.24704 
221 ,45.5582 ,1.09968 ,1.43831 ,14.11273 
222 ,45.7502 ,1.10152 ,1.42120 ,13.94484 
223 ,45.9589 ,1.10359 ,1.41094 ,13.84410 
224 ,46.1669 ,1.10564 ,1.38014 ,13.54190 
225 ,46.3910 ,1.10786 ,1.36987 ,13.44116 
226 ,46.5830 ,1.10989 ,1.37671 ,13.50832 
227 ,46.7750 ,1.11175 ,1.34934 ,13.23969 
228 ,46.9832 ,1.11379 ,1.33907 ,13.13896 
229 ,47.1914 ,1.11595 ,1.31854 ,12.93749 
230 ,47.3995 ,1.11800 ,1.31512 ,12.90391 
231 ,47.6234 ,1.12022 ,1.29458 ,12.70244 
232 ,47.8156 ,1.12222 ,1.26378 ,12.40024 
233 ,48.0395 ,1.12436 ,1.27405 ,12.50097 
234 ,48.2476 ,1.12646 ,1.25009 ,12.26592 
235 ,48.4396 ,1.12841 ,1.22956 ,12.06445 
236 ,48.6634 ,1.13063 ,1.23298 ,12.09803 
237 ,48.8715 ,1.13274 ,1.20561 ,11.82941 
238 ,49.0797 ,1.13479 ,1.19534 ,11.72867 
239 ,49.2882 ,1.13686 ,1.18850 ,11.66151 
240 ,49.4962 ,1.13899 ,1.16796 ,11.46004 
241 ,49.7205 ,1.14112 ,1.15770 ,11.35931 
242 ,49.9286 ,1.14334 ,1.14743 ,11.25857 
243 ,50.1202 ,1.14525 ,1.13716 ,11.15784 
244 ,50.3286 ,1.14730 ,1.10979 ,10.88921 
245 ,50.5209 ,1.14925 ,1.10294 ,10.82206 
246 ,50.7446 ,1.15140 ,1.08583 ,10.65416 
247 ,50.9850 ,1.15380 ,1.07899 ,10.58701 
248 ,51.1930 ,1.15596 ,1.05161 ,10.31838 
249 ,51.4010 ,1.15801 ,1.05161 ,10.31838 
250 ,51.6093 ,1.16005 ,1.03108 ,10.11691 
251 ,51.8173 ,1.16217 ,1.00712 ,9.88186 
252 ,52.0254 ,1.16425 ,1.01054 ,9.91544 
253 ,52.2174 ,1.16625 ,0.97290 ,9.54608 
254 ,52.4090 ,1.16817 ,0.98317 ,9.64682 
255 ,52.6016 ,1.17001 ,0.96948 ,9.51250 
256 ,52.8098 ,1.17211 ,0.95921 ,9.41177 
257 ,53.0178 ,1.17416 ,0.93525 ,9.17672 
258 ,53.2255 ,1.17628 ,0.92499 ,9.07598 
259 ,53.4337 ,1.17826 ,0.89761 ,8.80736 
260 ,53.6581 ,1.18052 ,0.90103 ,8.84094 
261 ,53.8660 ,1.18268 ,0.90446 ,8.87451 
262 ,54.0580 ,1.18456 ,0.86681 ,8.50515 
263 ,54.2659 ,1.18664 ,0.87366 ,8.57231 
264 ,54.4581 ,1.18853 ,0.85312 ,8.37084 
265 ,54.6664 ,1.19071 ,0.85312 ,8.37084 
266 ,54.8586 ,1.19256 ,0.83259 ,8.16937 
267 ,55.0664 ,1.19461 ,0.81890 ,8.03506 
268 ,55.2745 ,1.19671 ,0.78468 ,7.69927 
269 ,55.4828 ,1.19883 ,0.79152 ,7.76643 
270 ,55.6904 ,1.20085 ,0.77784 ,7.63212 
271 ,55.8987 ,1.20295 ,0.77099 ,7.56496 
272 ,56.1071 ,1.20503 ,0.77441 ,7.59854 
273 ,56.3151 ,1.20716 ,0.74019 ,7.26276 
274 ,56.5232 ,1.20914 ,0.72992 ,7.16202 
275 ,56.7313 ,1.21135 ,0.70939 ,6.96055 
276 ,56.9392 ,1.21336 ,0.70597 ,6.92697 
277 ,57.1475 ,1.21550 ,0.69570 ,6.82624 
278 ,57.3553 ,1.21748 ,0.66490 ,6.52403 
279 ,57.5476 ,1.21948 ,0.67859 ,6.65835 
280 ,57.7557 ,1.22146 ,0.64779 ,6.35614 
281 ,57.9795 ,1.22375 ,0.63410 ,6.22183 
282 ,58.1873 ,1.22595 ,0.63410 ,6.22183 
283 ,58.3955 ,1.22795 ,0.61357 ,6.02036 
284 ,58.6037 ,1.22999 ,0.61699 ,6.05394 
285 ,58.8118 ,1.23207 ,0.59646 ,5.85247 
286 ,59.0197 ,1.23413 ,0.57935 ,5.68458 
287 ,59.2278 ,1.23620 ,0.58277 ,5.71815 
288 ,59.4201 ,1.23827 ,0.55539 ,5.44953 
289 ,59.6283 ,1.24028 ,0.55539 ,5.44953 
290 ,59.8364 ,1.24233 ,0.52802 ,5.18090 
291 ,60.0603 ,1.24453 ,0.52459 ,5.14732 
292 ,60.2685 ,1.24669 ,0.51433 ,5.04659 
293 ,60.4608 ,1.24866 ,0.49037 ,4.81154 
294 ,60.6526 ,1.25052 ,0.49037 ,4.81154 
295 ,60.8610 ,1.25259 ,0.47326 ,4.64365 
296 ,61.0526 ,1.25461 ,0.47668 ,4.67723 
297 ,61.2447 ,1.25641 ,0.45273 ,4.44218 
298 ,61.4531 ,1.25854 ,0.43562 ,4.27429 
299 ,61.6612 ,1.26057 ,0.42193 ,4.13997 
300 ,61.8854 ,1.26283 ,0.42193 ,4.13997 
301 ,62.0933 ,1.26490 ,0.41509 ,4.07282 
302 ,62.2853 ,1.26679 ,0.38429 ,3.77061 
303 ,62.5256 ,1.26908 ,0.38771 ,3.80419 
304 ,62.7335 ,1.27129 ,0.37402 ,3.66988 
305 ,62.9419 ,1.27336 ,0.36033 ,3.53557 
306 ,63.1499 ,1.27543 ,0.34664 ,3.40125 
307 ,63.3421 ,1.27740 ,0.33295 ,3.26694 
308 ,63.5500 ,1.27949 ,0.32611 ,3.19978 
309 ,63.7422 ,1.28137 ,0.30558 ,2.99831 
310 ,63.9500 ,1.28344 ,0.31242 ,3.06547 
311 ,64.1421 ,1.28546 ,0.27820 ,2.72969 
312 ,64.3341 ,1.28731 ,0.28504 ,2.79684 
313 ,64.5264 ,1.28922 ,0.26109 ,2.56179 
314 ,64.7346 ,1.29131 ,0.24740 ,2.42748 
315 ,64.9428 ,1.29335 ,0.23371 ,2.29317 
316 ,65.1509 ,1.29545 ,0.24055 ,2.36032 
317 ,65.3747 ,1.29766 ,0.21318 ,2.09170 
318 ,65.5670 ,1.29964 ,0.21660 ,2.12528 
319 ,65.7590 ,1.30152 ,0.18580 ,1.82307 
320 ,65.9511 ,1.30342 ,0.19607 ,1.92381 
321 ,66.1591 ,1.30549 ,0.17896 ,1.75592 
322 ,66.3672 ,1.30757 ,0.15842 ,1.55445 
323 ,66.5593 ,1.30951 ,0.13789 ,1.35298 
324 ,66.7671 ,1.31161 ,0.14473 ,1.42013 
325 ,66.9753 ,1.31367 ,0.12420 ,1.21866 
326 ,67.1837 ,1.31582 ,0.11736 ,1.15151 
327 ,67.4078 ,1.31797 ,0.12420 ,1.21866 
328 ,67.6318 ,1.32023 ,0.08998 ,0.88288 
329 ,67.8395 ,1.32228 ,0.08998 ,0.88288 
330 ,68.0478 ,1.32438 ,0.07287 ,0.71499 
331 ,68.2561 ,1.32649 ,0.06260 ,0.61425 
332 ,68.4481 ,1.32843 ,0.05918 ,0.58067 
333 ,68.6562 ,1.33050 ,0.04549 ,0.44636 
334 ,68.8643 ,1.33263 ,0.03865 ,0.37920 
335 ,69.0564 ,1.33457 ,0.03180 ,0.31205 
336 ,69.2484 ,1.33642 ,0.02838 ,0.27847 
337 ,69.4565 ,1.33850 ,0.01127 ,0.11058 
338 ,69.6326 ,1.34035 ,0.00785 ,0.07700 
339 ,69.8248 ,1.34219 ,-0.01953 ,-0.19163 
340 ,70.0486 ,1.34441 ,-0.02295 ,-0.22520 
341 ,70.2890 ,1.34671 ,-0.04006 ,-0.39310 
342 ,70.4971 ,1.34888 ,-0.05033 ,-0.49383 
343 ,70.7047 ,1.35094 ,-0.06060 ,-0.59457 
344 ,70.8972 ,1.35287 ,-0.07428 ,-0.72888 
345 ,71.1215 ,1.35513 ,-0.08797 ,-0.86319 
346 ,71.3133 ,1.35710 ,-0.08113 ,-0.79604 
347 ,71.5052 ,1.35897 ,-0.10166 ,-0.99751 
348 ,71.6975 ,1.36092 ,-0.11193 ,-1.09824 
349 ,71.8896 ,1.36284 ,-0.10508 ,-1.03108 
350 ,72.0978 ,1.36484 ,-0.13246 ,-1.29971 
351 ,72.3214 ,1.36713 ,-0.14615 ,-1.43402 
352 ,72.5300 ,1.36920 ,-0.14957 ,-1.46760 
353 ,72.7380 ,1.37127 ,-0.16668 ,-1.63549 
354 ,72.9459 ,1.37337 ,-0.16668 ,-1.63549 
355 ,73.1378 ,1.37531 ,-0.18722 ,-1.83696 
356 ,73.3301 ,1.37719 ,-0.17011 ,-1.66907 
357 ,73.5222 ,1.37915 ,-0.20433 ,-2.00485 
358 ,73.7303 ,1.38127 ,-0.19748 ,-1.93770 
359 ,73.9221 ,1.38315 ,-0.24197 ,-2.37422 
360 ,74.1464 ,1.38533 ,-0.21117 ,-2.07201 
361 ,74.3545 ,1.38740 ,-0.24197 ,-2.37422 
362 ,74.5622 ,1.38952 ,-0.26250 ,-2.57569 
363 ,74.7547 ,1.39146 ,-0.24881 ,-2.44137 
364 ,74.9631 ,1.39357 ,-0.26935 ,-2.64284 
365 ,75.1710 ,1.39558 ,-0.25908 ,-2.54211 
366 ,75.3790 ,1.39771 ,-0.29330 ,-2.87789 
367 ,75.5867 ,1.39976 ,-0.30015 ,-2.94505 
368 ,75.7952 ,1.40185 ,-0.31384 ,-3.07936 
369 ,76.0194 ,1.40409 ,-0.32410 ,-3.18010 
370 ,76.2113 ,1.40606 ,-0.31726 ,-3.11294 
371 ,76.4353 ,1.40823 ,-0.34464 ,-3.38156 
372 ,76.6273 ,1.41017 ,-0.34464 ,-3.38156 
373 ,76.8514 ,1.41233 ,-0.37201 ,-3.65019 
374 ,77.0598 ,1.41453 ,-0.37544 ,-3.68377 
375 ,77.2517 ,1.41644 ,-0.36859 ,-3.61661 
376 ,77.4600 ,1.41845 ,-0.40281 ,-3.95240 
377 ,77.6680 ,1.42056 ,-0.38570 ,-3.78450 
378 ,77.8920 ,1.42275 ,-0.40623 ,-3.98597 
379 ,78.0842 ,1.42475 ,-0.41308 ,-4.05313 
380 ,78.2923 ,1.42679 ,-0.43361 ,-4.25460 
381 ,78.5004 ,1.42886 ,-0.43361 ,-4.25460 
382 ,78.7085 ,1.43098 ,-0.44046 ,-4.32176 
383 ,78.9161 ,1.43305 ,-0.46099 ,-4.52323 
384 ,79.1245 ,1.43512 ,-0.46441 ,-4.55681 
385 ,79.3325 ,1.43718 ,-0.47810 ,-4.69112 
386 ,79.5408 ,1.43929 ,-0.49521 ,-4.85901 
387 ,79.7489 ,1.44138 ,-0.48152 ,-4.72470 
388 ,79.9409 ,1.44332 ,-0.51917 ,-5.09406 
389 ,80.1490 ,1.44531 ,-0.50890 ,-4.99332 
390 ,80.3408 ,1.44729 ,-0.53628 ,-5.26195 
391 ,80.5330 ,1.44922 ,-0.50890 ,-4.99332 
392 ,80.7412 ,1.45130 ,-0.54654 ,-5.36268 
393 ,80.9494 ,1.45339 ,-0.54654 ,-5.36268 
394 ,81.1410 ,1.45538 ,-0.56708 ,-5.56415 
395 ,81.3496 ,1.45731 ,-0.54997 ,-5.39626 
396 ,81.5734 ,1.45960 ,-0.57392 ,-5.63131 
397 ,81.7657 ,1.46152 ,-0.59103 ,-5.79920 
398 ,81.9897 ,1.46378 ,-0.58077 ,-5.69847 
399 ,82.1819 ,1.46570 ,-0.60814 ,-5.96709 
400 ,82.4058 ,1.46798 ,-0.60472 ,-5.93352 
401 ,82.6142 ,1.47003 ,-0.62525 ,-6.13499 
402 ,82.8224 ,1.47209 ,-0.62868 ,-6.16856 
403 ,83.0303 ,1.47422 ,-0.63210 ,-6.20214 
404 ,83.2379 ,1.47624 ,-0.68001 ,-6.67224 
405 ,83.4302 ,1.47815 ,-0.64236 ,-6.30288 
406 ,83.6226 ,1.48012 ,-0.68685 ,-6.73940 
407 ,83.8146 ,1.48204 ,-0.67316 ,-6.60508 
408 ,84.0228 ,1.48413 ,-0.69712 ,-6.84013 
409 ,84.2147 ,1.48602 ,-0.68685 ,-6.73940 
410 ,84.4385 ,1.48822 ,-0.71423 ,-7.00802 
411 ,84.6468 ,1.49038 ,-0.70054 ,-6.87371 
412 ,84.8550 ,1.49242 ,-0.71765 ,-7.04160 
413 ,85.0632 ,1.49451 ,-0.73476 ,-7.20949 
414 ,85.2712 ,1.49653 ,-0.73134 ,-7.17591 
415 ,85.4792 ,1.49863 ,-0.74845 ,-7.34380 
416 ,85.6713 ,1.50063 ,-0.74161 ,-7.27665 
417 ,85.8634 ,1.50252 ,-0.77925 ,-7.64601 
418 ,86.0715 ,1.50452 ,-0.77241 ,-7.57885 
419 ,86.2794 ,1.50663 ,-0.79636 ,-7.81390 
420 ,86.4878 ,1.50876 ,-0.78267 ,-7.67959 
421 ,86.6795 ,1.51073 ,-0.81005 ,-7.94821 
422 ,86.8879 ,1.51268 ,-0.79978 ,-7.84748 
423 ,87.1121 ,1.51495 ,-0.81347 ,-7.98179 
424 ,87.3201 ,1.51710 ,-0.83058 ,-8.14968 
425 ,87.5285 ,1.51909 ,-0.82716 ,-8.11611 
426 ,87.7203 ,1.52112 ,-0.86138 ,-8.45189 
427 ,87.9282 ,1.52316 ,-0.84427 ,-8.28400 
428 ,88.1363 ,1.52522 ,-0.86481 ,-8.48547 
429 ,88.3287 ,1.52714 ,-0.85796 ,-8.41831 
430 ,88.5525 ,1.52933 ,-0.88192 ,-8.65336 
431 ,88.7765 ,1.53154 ,-0.88876 ,-8.72051 
432 ,88.9686 ,1.53355 ,-0.88876 ,-8.72051 
433 ,89.1609 ,1.53548 ,-0.91272 ,-8.95556 
434 ,89.3687 ,1.53756 ,-0.90929 ,-8.92198 
435 ,89.5770 ,1.53962 ,-0.92983 ,-9.12345 
436 ,89.8011 ,1.54183 ,-0.94009 ,-9.22419 
437 ,90.0088 ,1.54395 ,-0.92640 ,-9.08988 
438 ,90.2330 ,1.54603 ,-0.95378 ,-9.35850 
439 ,90.4408 ,1.54827 ,-0.96747 ,-9.49282 
440 ,90.6336 ,1.55018 ,-0.95036 ,-9.32492 
441 ,90.8572 ,1.55241 ,-0.97431 ,-9.55997 
442 ,91.0493 ,1.55432 ,-0.97089 ,-9.52639 
443 ,91.2576 ,1.55644 ,-1.00854 ,-9.89576 
444 ,91.4656 ,1.55846 ,-1.00511 ,-9.86218 
445 ,91.6896 ,1.56072 ,-0.99143 ,-9.72786 
446 ,91.8980 ,1.56281 ,-1.02565 ,-10.06365 
447 ,92.1061 ,1.56488 ,-1.03249 ,-10.13080 
448 ,92.3302 ,1.56712 ,-1.02907 ,-10.09723 
449 ,92.5382 ,1.56920 ,-1.05302 ,-10.33227 
450 ,92.7463 ,1.57123 ,-1.04276 ,-10.23154 
451 ,92.9541 ,1.57342 ,-1.05302 ,-10.33227 
452 ,93.1625 ,1.57549 ,-1.06329 ,-10.43301 
453 ,93.3705 ,1.57750 ,-1.05645 ,-10.36585 
454 ,93.5627 ,1.57951 ,-1.10093 ,-10.80237 
455 ,93.7706 ,1.58156 ,-1.08040 ,-10.60090 
456 ,93.9786 ,1.58362 ,-1.10093 ,-10.80237 
457 ,94.1868 ,1.58566 ,-1.10436 ,-10.83595 
458 ,94.3785 ,1.58766 ,-1.11462 ,-10.93668 
459 ,94.5871 ,1.58968 ,-1.12831 ,-11.07100 
460 ,94.7952 ,1.59174 ,-1.13858 ,-11.17173 
461 ,95.0192 ,1.59413 ,-1.14200 ,-11.20531 
462 ,95.2113 ,1.59595 ,-1.14542 ,-11.23889 
