Data stamp = , 04-05-2022 17:01:04 168

Calibration Values: 
Slope = , 26.54 , g/V 
Offset Voltage at no contact = , -0.501760 , V 

No , Time , Stage Position ,   Mass , Force 
   ,  (s) ,      (mm)      ,   (g)  , (mN)  

1 ,0.0000 ,0.64934 ,5.32589 ,52.25768 
2 ,0.2142 ,0.64944 ,5.32247 ,52.22410 
3 ,0.6305 ,0.65065 ,5.32589 ,52.25768 
4 ,0.8546 ,0.65264 ,5.30194 ,52.02263 
5 ,1.0626 ,0.65473 ,5.29167 ,51.92190 
6 ,1.2707 ,0.65676 ,5.31905 ,52.19052 
7 ,1.4633 ,0.65873 ,5.30536 ,52.05621 
8 ,1.6713 ,0.66078 ,5.31905 ,52.19052 
9 ,1.8792 ,0.66285 ,5.27798 ,51.78758 
10 ,2.0711 ,0.66479 ,5.26772 ,51.68685 
11 ,2.2793 ,0.66685 ,5.24376 ,51.45180 
12 ,2.4876 ,0.66897 ,5.21981 ,51.21675 
13 ,2.6956 ,0.67109 ,5.20612 ,51.08244 
14 ,2.9034 ,0.67308 ,5.17190 ,50.74666 
15 ,3.0957 ,0.67507 ,5.17532 ,50.78023 
16 ,3.3037 ,0.67711 ,5.13768 ,50.41087 
17 ,3.4960 ,0.67908 ,5.14452 ,50.47803 
18 ,3.7037 ,0.68116 ,5.10003 ,50.04151 
19 ,3.8960 ,0.68307 ,5.09661 ,50.00793 
20 ,4.1041 ,0.68514 ,5.06239 ,49.67215 
21 ,4.2959 ,0.68706 ,5.04870 ,49.53784 
22 ,4.5044 ,0.68912 ,5.03159 ,49.36995 
23 ,4.7123 ,0.69117 ,5.01448 ,49.20205 
24 ,4.9205 ,0.69327 ,4.98368 ,48.89985 
25 ,5.1286 ,0.69533 ,4.96999 ,48.76554 
26 ,5.3367 ,0.69741 ,4.94261 ,48.49691 
27 ,5.5448 ,0.69950 ,4.93235 ,48.39618 
28 ,5.7367 ,0.70143 ,4.90497 ,48.12755 
29 ,5.9449 ,0.70355 ,4.88786 ,47.95966 
30 ,6.1367 ,0.70544 ,4.86732 ,47.75819 
31 ,6.3612 ,0.70769 ,4.83995 ,47.48956 
32 ,6.5528 ,0.70968 ,4.83995 ,47.48956 
33 ,6.7613 ,0.71161 ,4.80573 ,47.15378 
34 ,6.9694 ,0.71378 ,4.80230 ,47.12020 
35 ,7.1615 ,0.71570 ,4.76466 ,46.75084 
36 ,7.3536 ,0.71773 ,4.76466 ,46.75084 
37 ,7.5616 ,0.71961 ,4.73728 ,46.48221 
38 ,7.7697 ,0.72178 ,4.72702 ,46.38148 
39 ,7.9776 ,0.72388 ,4.69622 ,46.07927 
40 ,8.1858 ,0.72594 ,4.67911 ,45.91138 
41 ,8.4093 ,0.72808 ,4.64831 ,45.60918 
42 ,8.6175 ,0.73025 ,4.62093 ,45.34055 
43 ,8.7935 ,0.73213 ,4.63462 ,45.47486 
44 ,8.9696 ,0.73394 ,4.61066 ,45.23981 
45 ,9.1617 ,0.73567 ,4.59355 ,45.07192 
46 ,9.3541 ,0.73761 ,4.56960 ,44.83688 
47 ,9.5624 ,0.73970 ,4.54564 ,44.60183 
48 ,9.7705 ,0.74176 ,4.53880 ,44.53467 
49 ,9.9943 ,0.74397 ,4.50457 ,44.19889 
50 ,10.2026 ,0.74611 ,4.49089 ,44.06457 
51 ,10.4108 ,0.74815 ,4.47720 ,43.93026 
52 ,10.6028 ,0.75006 ,4.45666 ,43.72879 
53 ,10.8268 ,0.75233 ,4.43955 ,43.56090 
54 ,11.0510 ,0.75461 ,4.41560 ,43.32585 
55 ,11.2752 ,0.75678 ,4.38480 ,43.02365 
56 ,11.4667 ,0.75876 ,4.38822 ,43.05723 
57 ,11.6592 ,0.76065 ,4.35058 ,42.68786 
58 ,11.8512 ,0.76262 ,4.33347 ,42.51997 
59 ,12.0430 ,0.76452 ,4.32320 ,42.41924 
60 ,12.2515 ,0.76656 ,4.29582 ,42.15061 
61 ,12.4599 ,0.76869 ,4.27187 ,41.91556 
62 ,12.6517 ,0.77058 ,4.26502 ,41.84841 
63 ,12.8757 ,0.77280 ,4.23765 ,41.57978 
64 ,13.0836 ,0.77491 ,4.22396 ,41.44547 
65 ,13.2918 ,0.77692 ,4.20000 ,41.21042 
66 ,13.4999 ,0.77903 ,4.19658 ,41.17684 
67 ,13.6760 ,0.78096 ,4.16578 ,40.87464 
68 ,13.8842 ,0.78288 ,4.15894 ,40.80748 
69 ,14.0763 ,0.78484 ,4.12471 ,40.47170 
70 ,14.2838 ,0.78689 ,4.12471 ,40.47170 
71 ,14.4764 ,0.78881 ,4.09049 ,40.13591 
72 ,14.6845 ,0.79087 ,4.07680 ,40.00160 
73 ,14.9086 ,0.79306 ,4.05285 ,39.76655 
74 ,15.1007 ,0.79507 ,4.04600 ,39.69940 
75 ,15.3243 ,0.79722 ,4.03232 ,39.56508 
76 ,15.5488 ,0.79943 ,3.98441 ,39.09499 
77 ,15.7568 ,0.80160 ,3.98783 ,39.12856 
78 ,15.9491 ,0.80359 ,3.95361 ,38.79278 
79 ,16.1569 ,0.80562 ,3.94676 ,38.72562 
80 ,16.3654 ,0.80766 ,3.93307 ,38.59131 
81 ,16.5732 ,0.80973 ,3.90912 ,38.35626 
82 ,16.7654 ,0.81171 ,3.90570 ,38.32268 
83 ,16.9574 ,0.81364 ,3.86463 ,37.91975 
84 ,17.1655 ,0.81565 ,3.85779 ,37.85259 
85 ,17.3576 ,0.81762 ,3.84410 ,37.71828 
86 ,17.5494 ,0.81954 ,3.83041 ,37.58396 
87 ,17.7579 ,0.82162 ,3.81672 ,37.44965 
88 ,17.9660 ,0.82372 ,3.79276 ,37.21460 
89 ,18.1580 ,0.82566 ,3.77223 ,37.01313 
90 ,18.3664 ,0.82767 ,3.75854 ,36.87882 
91 ,18.5741 ,0.82977 ,3.73459 ,36.64377 
92 ,18.8141 ,0.83216 ,3.71748 ,36.47588 
93 ,19.0222 ,0.83431 ,3.70379 ,36.34157 
94 ,19.2305 ,0.83633 ,3.66614 ,35.97220 
95 ,19.4384 ,0.83842 ,3.66614 ,35.97220 
96 ,19.6304 ,0.84032 ,3.62508 ,35.56926 
97 ,19.8222 ,0.84231 ,3.62166 ,35.53569 
98 ,20.0145 ,0.84422 ,3.59770 ,35.30064 
99 ,20.2067 ,0.84611 ,3.57375 ,35.06559 
100 ,20.3987 ,0.84801 ,3.57375 ,35.06559 
101 ,20.6068 ,0.85008 ,3.52926 ,34.62907 
102 ,20.7988 ,0.85200 ,3.53610 ,34.69623 
103 ,21.0069 ,0.85416 ,3.49161 ,34.25971 
104 ,21.2152 ,0.85618 ,3.50188 ,34.36045 
105 ,21.4071 ,0.85811 ,3.46424 ,33.99108 
106 ,21.5996 ,0.86002 ,3.46081 ,33.95751 
107 ,21.7755 ,0.86191 ,3.43686 ,33.72246 
108 ,21.9672 ,0.86369 ,3.41633 ,33.52099 
109 ,22.1756 ,0.86576 ,3.42659 ,33.62172 
110 ,22.3836 ,0.86787 ,3.39237 ,33.28594 
111 ,22.5758 ,0.86978 ,3.39237 ,33.28594 
112 ,22.7678 ,0.87169 ,3.34788 ,32.84942 
113 ,22.9757 ,0.87370 ,3.33762 ,32.74869 
114 ,23.1679 ,0.87573 ,3.30339 ,32.41290 
115 ,23.3759 ,0.87775 ,3.30682 ,32.44648 
116 ,23.5682 ,0.87966 ,3.27259 ,32.11070 
117 ,23.7759 ,0.88176 ,3.27602 ,32.14428 
118 ,23.9683 ,0.88370 ,3.23495 ,31.74134 
119 ,24.1920 ,0.88593 ,3.23837 ,31.77492 
120 ,24.3845 ,0.88790 ,3.19731 ,31.37198 
121 ,24.5925 ,0.88994 ,3.20073 ,31.40555 
122 ,24.7844 ,0.89188 ,3.16309 ,31.03619 
123 ,24.9927 ,0.89395 ,3.16309 ,31.03619 
124 ,25.2009 ,0.89602 ,3.12886 ,30.70041 
125 ,25.4087 ,0.89807 ,3.12202 ,30.63325 
126 ,25.6330 ,0.90035 ,3.09464 ,30.36463 
127 ,25.8249 ,0.90231 ,3.08095 ,30.23031 
128 ,26.0332 ,0.90434 ,3.07411 ,30.16316 
129 ,26.2088 ,0.90624 ,3.05015 ,29.92811 
130 ,26.4008 ,0.90813 ,3.04331 ,29.86095 
131 ,26.5930 ,0.90992 ,3.02278 ,29.65948 
132 ,26.7850 ,0.91185 ,3.00567 ,29.49159 
133 ,26.9935 ,0.91387 ,2.98513 ,29.29012 
134 ,27.1852 ,0.91588 ,2.96460 ,29.08865 
135 ,27.3775 ,0.91774 ,2.95091 ,28.95434 
136 ,27.5697 ,0.91967 ,2.94749 ,28.92076 
137 ,27.7618 ,0.92163 ,2.91327 ,28.58498 
138 ,27.9540 ,0.92361 ,2.92696 ,28.71929 
139 ,28.1459 ,0.92545 ,2.89273 ,28.38351 
140 ,28.3381 ,0.92738 ,2.86193 ,28.08130 
141 ,28.5296 ,0.92935 ,2.87220 ,28.18204 
142 ,28.7380 ,0.93139 ,2.83114 ,27.77910 
143 ,28.9465 ,0.93342 ,2.83456 ,27.81268 
144 ,29.1382 ,0.93537 ,2.80376 ,27.51047 
145 ,29.3305 ,0.93733 ,2.79349 ,27.40974 
146 ,29.5385 ,0.93938 ,2.77296 ,27.20827 
147 ,29.7625 ,0.94167 ,2.74900 ,26.97322 
148 ,29.9549 ,0.94355 ,2.74216 ,26.90606 
149 ,30.1467 ,0.94546 ,2.72847 ,26.77175 
150 ,30.3390 ,0.94738 ,2.69767 ,26.46954 
151 ,30.5468 ,0.94947 ,2.71136 ,26.60386 
152 ,30.7548 ,0.95157 ,2.68056 ,26.30165 
153 ,30.9633 ,0.95364 ,2.66687 ,26.16734 
154 ,31.1712 ,0.95572 ,2.64976 ,25.99945 
155 ,31.3635 ,0.95763 ,2.63265 ,25.83156 
156 ,31.5714 ,0.95974 ,2.61896 ,25.69724 
157 ,31.7796 ,0.96178 ,2.59501 ,25.46220 
158 ,31.9874 ,0.96381 ,2.57105 ,25.22715 
159 ,32.1955 ,0.96591 ,2.54710 ,24.99210 
160 ,32.4040 ,0.96806 ,2.55394 ,25.05926 
161 ,32.6119 ,0.97009 ,2.53341 ,24.85779 
162 ,32.8200 ,0.97216 ,2.51287 ,24.65632 
163 ,33.0116 ,0.97420 ,2.49576 ,24.48842 
164 ,33.2041 ,0.97604 ,2.49918 ,24.52200 
165 ,33.3962 ,0.97793 ,2.46154 ,24.15264 
166 ,33.5883 ,0.97987 ,2.46154 ,24.15264 
167 ,33.7960 ,0.98193 ,2.42048 ,23.74970 
168 ,34.0041 ,0.98403 ,2.43074 ,23.85044 
169 ,34.2283 ,0.98624 ,2.39310 ,23.48108 
170 ,34.4680 ,0.98862 ,2.36230 ,23.17887 
171 ,34.6605 ,0.99064 ,2.37256 ,23.27961 
172 ,34.9004 ,0.99297 ,2.35203 ,23.07814 
173 ,35.0927 ,0.99494 ,2.31781 ,22.74235 
174 ,35.3008 ,0.99704 ,2.32123 ,22.77593 
175 ,35.4932 ,0.99885 ,2.29728 ,22.54088 
176 ,35.6851 ,1.00080 ,2.28701 ,22.44015 
177 ,35.8929 ,1.00293 ,2.25963 ,22.17152 
178 ,36.0853 ,1.00487 ,2.24937 ,22.07079 
179 ,36.2771 ,1.00676 ,2.23226 ,21.90290 
180 ,36.4855 ,1.00885 ,2.20830 ,21.66785 
181 ,36.6935 ,1.01092 ,2.19461 ,21.53353 
182 ,36.9014 ,1.01300 ,2.19461 ,21.53353 
183 ,37.1098 ,1.01507 ,2.16039 ,21.19775 
184 ,37.3177 ,1.01713 ,2.16723 ,21.26491 
185 ,37.4936 ,1.01902 ,2.12959 ,20.89555 
186 ,37.7018 ,1.02086 ,2.11590 ,20.76123 
187 ,37.9101 ,1.02304 ,2.08510 ,20.45903 
188 ,38.1180 ,1.02507 ,2.09537 ,20.55976 
189 ,38.3422 ,1.02729 ,2.07141 ,20.32472 
190 ,38.5497 ,1.02941 ,2.05430 ,20.15682 
191 ,38.7423 ,1.03141 ,2.04061 ,20.02251 
192 ,38.9501 ,1.03348 ,2.02350 ,19.85462 
193 ,39.1425 ,1.03533 ,2.02008 ,19.82104 
194 ,39.3506 ,1.03749 ,1.98586 ,19.48526 
195 ,39.5587 ,1.03956 ,1.98244 ,19.45168 
196 ,39.7828 ,1.04177 ,1.95848 ,19.21663 
197 ,39.9909 ,1.04392 ,1.94822 ,19.11590 
198 ,40.1990 ,1.04596 ,1.94822 ,19.11590 
199 ,40.4391 ,1.04811 ,1.90715 ,18.71296 
200 ,40.6631 ,1.05050 ,1.89688 ,18.61222 
201 ,40.8708 ,1.05260 ,1.89004 ,18.54507 
202 ,41.0633 ,1.05459 ,1.86266 ,18.27644 
203 ,41.2713 ,1.05664 ,1.87293 ,18.37717 
204 ,41.4635 ,1.05858 ,1.82160 ,17.87350 
205 ,41.6716 ,1.06066 ,1.82502 ,17.90708 
206 ,41.8632 ,1.06259 ,1.79422 ,17.60487 
207 ,42.0717 ,1.06457 ,1.81133 ,17.77276 
208 ,42.2639 ,1.06661 ,1.77026 ,17.36983 
209 ,42.4715 ,1.06867 ,1.77711 ,17.43698 
210 ,42.6799 ,1.07072 ,1.74289 ,17.10120 
211 ,42.8876 ,1.07279 ,1.73604 ,17.03404 
212 ,43.0959 ,1.07493 ,1.71209 ,16.79899 
213 ,43.3041 ,1.07700 ,1.70182 ,16.69826 
214 ,43.5123 ,1.07898 ,1.69498 ,16.63110 
215 ,43.7203 ,1.08114 ,1.66075 ,16.29532 
216 ,43.9283 ,1.08320 ,1.65733 ,16.26174 
217 ,44.1205 ,1.08512 ,1.64022 ,16.09385 
218 ,44.3125 ,1.08706 ,1.64022 ,16.09385 
219 ,44.5045 ,1.08901 ,1.61627 ,15.85880 
220 ,44.6968 ,1.09091 ,1.61969 ,15.89238 
221 ,44.9047 ,1.09301 ,1.58547 ,15.55660 
222 ,45.0965 ,1.09496 ,1.57178 ,15.42228 
223 ,45.3211 ,1.09700 ,1.55809 ,15.28797 
224 ,45.5451 ,1.09935 ,1.55467 ,15.25439 
225 ,45.7372 ,1.10131 ,1.53756 ,15.08650 
226 ,45.9453 ,1.10340 ,1.50333 ,14.75072 
227 ,46.1535 ,1.10543 ,1.49649 ,14.68356 
228 ,46.3772 ,1.10767 ,1.46227 ,14.34778 
229 ,46.5855 ,1.10980 ,1.45542 ,14.28062 
230 ,46.7779 ,1.11171 ,1.44174 ,14.14631 
231 ,47.0017 ,1.11391 ,1.42805 ,14.01199 
232 ,47.2098 ,1.11590 ,1.43489 ,14.07915 
233 ,47.4178 ,1.11808 ,1.39725 ,13.70979 
234 ,47.6099 ,1.11999 ,1.39725 ,13.70979 
235 ,47.8020 ,1.12192 ,1.36987 ,13.44116 
236 ,47.9941 ,1.12386 ,1.36987 ,13.44116 
237 ,48.1861 ,1.12579 ,1.35276 ,13.27327 
238 ,48.3943 ,1.12787 ,1.34249 ,13.17254 
239 ,48.6185 ,1.13001 ,1.33223 ,13.07180 
240 ,48.8263 ,1.13220 ,1.32538 ,13.00465 
241 ,49.0344 ,1.13424 ,1.27747 ,12.53455 
242 ,49.2265 ,1.13616 ,1.28774 ,12.63528 
243 ,49.4187 ,1.13810 ,1.25009 ,12.26592 
244 ,49.6108 ,1.14000 ,1.26036 ,12.36666 
245 ,49.8188 ,1.14207 ,1.22956 ,12.06445 
246 ,50.0109 ,1.14399 ,1.22956 ,12.06445 
247 ,50.2031 ,1.14593 ,1.21929 ,11.96372 
248 ,50.3951 ,1.14785 ,1.19534 ,11.72867 
249 ,50.5869 ,1.14978 ,1.19192 ,11.69509 
250 ,50.8111 ,1.15192 ,1.15770 ,11.35931 
251 ,51.0674 ,1.15459 ,1.14743 ,11.25857 
252 ,51.2751 ,1.15669 ,1.12347 ,11.02353 
253 ,51.4833 ,1.15870 ,1.12347 ,11.02353 
254 ,51.7074 ,1.16094 ,1.09952 ,10.78848 
255 ,51.9319 ,1.16320 ,1.08583 ,10.65416 
256 ,52.1398 ,1.16530 ,1.07214 ,10.51985 
257 ,52.3319 ,1.16723 ,1.05845 ,10.38554 
258 ,52.5398 ,1.16928 ,1.05845 ,10.38554 
259 ,52.7321 ,1.17120 ,1.02765 ,10.08333 
260 ,52.9399 ,1.17327 ,1.04134 ,10.21765 
261 ,53.1323 ,1.17523 ,0.99685 ,9.78113 
262 ,53.3403 ,1.17730 ,1.01054 ,9.91544 
263 ,53.5484 ,1.17932 ,0.97632 ,9.57966 
264 ,53.7559 ,1.18142 ,0.97974 ,9.61324 
265 ,53.9640 ,1.18354 ,0.96948 ,9.51250 
266 ,54.1720 ,1.18561 ,0.93525 ,9.17672 
267 ,54.3807 ,1.18759 ,0.93525 ,9.17672 
268 ,54.6048 ,1.18990 ,0.91814 ,9.00883 
269 ,54.8129 ,1.19202 ,0.89419 ,8.77378 
270 ,55.0366 ,1.19409 ,0.89077 ,8.74020 
271 ,55.2611 ,1.19639 ,0.86339 ,8.47158 
272 ,55.4692 ,1.19858 ,0.83943 ,8.23653 
273 ,55.6770 ,1.20063 ,0.84628 ,8.30368 
274 ,55.8849 ,1.20269 ,0.82917 ,8.13579 
275 ,56.0769 ,1.20470 ,0.82232 ,8.06864 
276 ,56.2689 ,1.20656 ,0.79837 ,7.83359 
277 ,56.4773 ,1.20859 ,0.80179 ,7.86717 
278 ,56.7015 ,1.21091 ,0.77784 ,7.63212 
279 ,56.9095 ,1.21293 ,0.76415 ,7.49780 
280 ,57.1020 ,1.21487 ,0.75388 ,7.39707 
281 ,57.3094 ,1.21702 ,0.72992 ,7.16202 
282 ,57.5179 ,1.21900 ,0.73677 ,7.22918 
283 ,57.7260 ,1.22115 ,0.70939 ,6.96055 
284 ,57.9181 ,1.22308 ,0.71966 ,7.06129 
285 ,58.1262 ,1.22512 ,0.69570 ,6.82624 
286 ,58.3343 ,1.22719 ,0.68886 ,6.75908 
287 ,58.5424 ,1.22927 ,0.65121 ,6.38972 
288 ,58.7344 ,1.23137 ,0.65121 ,6.38972 
289 ,58.9264 ,1.23317 ,0.63410 ,6.22183 
290 ,59.1186 ,1.23503 ,0.63753 ,6.25541 
291 ,59.3107 ,1.23695 ,0.61357 ,6.02036 
292 ,59.5344 ,1.23916 ,0.61699 ,6.05394 
293 ,59.7431 ,1.24128 ,0.57935 ,5.68458 
294 ,59.9509 ,1.24332 ,0.58962 ,5.78531 
295 ,60.1429 ,1.24532 ,0.56908 ,5.58384 
296 ,60.3511 ,1.24733 ,0.56908 ,5.58384 
297 ,60.5590 ,1.24943 ,0.54513 ,5.34879 
298 ,60.7832 ,1.25166 ,0.52459 ,5.14732 
299 ,60.9753 ,1.25366 ,0.52117 ,5.11375 
300 ,61.1676 ,1.25557 ,0.49722 ,4.87870 
301 ,61.3429 ,1.25743 ,0.49722 ,4.87870 
302 ,61.5516 ,1.25936 ,0.49722 ,4.87870 
303 ,61.7751 ,1.26153 ,0.47668 ,4.67723 
304 ,61.9676 ,1.26351 ,0.46300 ,4.54291 
305 ,62.1918 ,1.26579 ,0.44588 ,4.37502 
306 ,62.3839 ,1.26775 ,0.43562 ,4.27429 
307 ,62.5920 ,1.26976 ,0.43562 ,4.27429 
308 ,62.7996 ,1.27189 ,0.41509 ,4.07282 
309 ,63.0082 ,1.27396 ,0.39455 ,3.87135 
310 ,63.2321 ,1.27609 ,0.39455 ,3.87135 
311 ,63.4403 ,1.27826 ,0.37060 ,3.63630 
312 ,63.6482 ,1.28039 ,0.36718 ,3.60272 
313 ,63.8725 ,1.28242 ,0.33980 ,3.33410 
314 ,64.0804 ,1.28470 ,0.33638 ,3.30052 
315 ,64.2886 ,1.28679 ,0.33295 ,3.26694 
316 ,64.4807 ,1.28868 ,0.30900 ,3.03189 
317 ,64.6727 ,1.29058 ,0.30900 ,3.03189 
318 ,64.8648 ,1.29246 ,0.28504 ,2.79684 
319 ,65.0405 ,1.29437 ,0.27478 ,2.69611 
320 ,65.2330 ,1.29620 ,0.27478 ,2.69611 
321 ,65.4408 ,1.29827 ,0.25424 ,2.49464 
322 ,65.6332 ,1.30020 ,0.24055 ,2.36032 
323 ,65.8253 ,1.30212 ,0.23713 ,2.32675 
324 ,66.0334 ,1.30419 ,0.22344 ,2.19243 
325 ,66.2414 ,1.30631 ,0.21660 ,2.12528 
326 ,66.4335 ,1.30821 ,0.21660 ,2.12528 
327 ,66.6414 ,1.31024 ,0.19607 ,1.92381 
328 ,66.8496 ,1.31234 ,0.18922 ,1.85665 
329 ,67.0418 ,1.31431 ,0.15842 ,1.55445 
330 ,67.2495 ,1.31635 ,0.17211 ,1.68876 
331 ,67.4581 ,1.31843 ,0.14816 ,1.45371 
332 ,67.6659 ,1.32049 ,0.14131 ,1.38655 
333 ,67.8582 ,1.32250 ,0.12420 ,1.21866 
334 ,68.0663 ,1.32451 ,0.12762 ,1.25224 
335 ,68.2741 ,1.32661 ,0.09682 ,0.95004 
336 ,68.4823 ,1.32865 ,0.10025 ,0.98361 
337 ,68.6902 ,1.33073 ,0.07629 ,0.74857 
338 ,68.8825 ,1.33264 ,0.06260 ,0.61425 
339 ,69.0905 ,1.33476 ,0.05918 ,0.58067 
340 ,69.2985 ,1.33686 ,0.04549 ,0.44636 
341 ,69.4743 ,1.33868 ,0.04549 ,0.44636 
342 ,69.6668 ,1.34050 ,0.03865 ,0.37920 
343 ,69.8590 ,1.34242 ,0.01469 ,0.14416 
344 ,70.0670 ,1.34451 ,0.01811 ,0.17773 
345 ,70.2590 ,1.34646 ,-0.00584 ,-0.05731 
346 ,70.4512 ,1.34834 ,-0.01269 ,-0.12447 
347 ,70.6592 ,1.35044 ,-0.02637 ,-0.25878 
348 ,70.8513 ,1.35247 ,-0.01953 ,-0.19163 
349 ,71.0755 ,1.35455 ,-0.05717 ,-0.56099 
350 ,71.2834 ,1.35659 ,-0.04691 ,-0.46025 
351 ,71.4916 ,1.35872 ,-0.06744 ,-0.66172 
352 ,71.6992 ,1.36083 ,-0.07086 ,-0.69530 
353 ,71.8918 ,1.36276 ,-0.08455 ,-0.82961 
354 ,72.0997 ,1.36475 ,-0.09140 ,-0.89677 
355 ,72.2918 ,1.36672 ,-0.11535 ,-1.13182 
356 ,72.4834 ,1.36879 ,-0.10851 ,-1.06466 
357 ,72.6916 ,1.37067 ,-0.12904 ,-1.26613 
358 ,72.8996 ,1.37276 ,-0.12562 ,-1.23255 
359 ,73.0758 ,1.37472 ,-0.15299 ,-1.50118 
360 ,73.3000 ,1.37689 ,-0.15984 ,-1.56834 
361 ,73.4919 ,1.37873 ,-0.18722 ,-1.83696 
362 ,73.6681 ,1.38063 ,-0.16668 ,-1.63549 
363 ,73.8441 ,1.38240 ,-0.17695 ,-1.73623 
364 ,74.0521 ,1.38434 ,-0.19748 ,-1.93770 
365 ,74.2442 ,1.38624 ,-0.20433 ,-2.00485 
366 ,74.4363 ,1.38818 ,-0.21117 ,-2.07201 
367 ,74.6124 ,1.39009 ,-0.23513 ,-2.30706 
368 ,74.8045 ,1.39186 ,-0.22828 ,-2.23990 
369 ,74.9964 ,1.39377 ,-0.23170 ,-2.27348 
370 ,75.2046 ,1.39578 ,-0.26250 ,-2.57569 
371 ,75.4128 ,1.39787 ,-0.26593 ,-2.60926 
372 ,75.5888 ,1.39981 ,-0.27619 ,-2.71000 
373 ,75.7649 ,1.40159 ,-0.26935 ,-2.64284 
374 ,75.9409 ,1.40338 ,-0.27961 ,-2.74358 
375 ,76.1489 ,1.40527 ,-0.31041 ,-3.04578 
376 ,76.3412 ,1.40726 ,-0.30015 ,-2.94505 
377 ,76.5332 ,1.40915 ,-0.31384 ,-3.07936 
378 ,76.7093 ,1.41102 ,-0.32752 ,-3.21367 
379 ,76.9014 ,1.41279 ,-0.33437 ,-3.28083 
380 ,77.0774 ,1.41470 ,-0.34121 ,-3.34799 
381 ,77.2855 ,1.41664 ,-0.37201 ,-3.65019 
382 ,77.4780 ,1.41862 ,-0.34464 ,-3.38156 
383 ,77.6862 ,1.42067 ,-0.38570 ,-3.78450 
384 ,77.8940 ,1.42276 ,-0.38228 ,-3.75093 
385 ,78.1020 ,1.42479 ,-0.40623 ,-3.98597 
386 ,78.3097 ,1.42698 ,-0.41992 ,-4.12029 
387 ,78.5024 ,1.42884 ,-0.41308 ,-4.05313 
388 ,78.7105 ,1.43088 ,-0.41992 ,-4.12029 
389 ,78.9186 ,1.43292 ,-0.42677 ,-4.18744 
390 ,79.1267 ,1.43499 ,-0.45757 ,-4.48965 
391 ,79.3343 ,1.43708 ,-0.44388 ,-4.35534 
392 ,79.5430 ,1.43922 ,-0.46441 ,-4.55681 
393 ,79.7510 ,1.44126 ,-0.47810 ,-4.69112 
394 ,79.9591 ,1.44334 ,-0.49179 ,-4.82543 
395 ,80.1673 ,1.44541 ,-0.49179 ,-4.82543 
396 ,80.3753 ,1.44756 ,-0.49179 ,-4.82543 
397 ,80.5832 ,1.44957 ,-0.52259 ,-5.12764 
398 ,80.8074 ,1.45174 ,-0.51917 ,-5.09406 
399 ,81.0153 ,1.45397 ,-0.52259 ,-5.12764 
400 ,81.2395 ,1.45611 ,-0.54654 ,-5.36268 
401 ,81.4314 ,1.45808 ,-0.54997 ,-5.39626 
402 ,81.6398 ,1.46011 ,-0.56708 ,-5.56415 
403 ,81.8317 ,1.46210 ,-0.57050 ,-5.59773 
404 ,82.0399 ,1.46409 ,-0.59103 ,-5.79920 
405 ,82.2639 ,1.46636 ,-0.59788 ,-5.86636 
406 ,82.4559 ,1.46837 ,-0.58761 ,-5.76562 
407 ,82.6637 ,1.47044 ,-0.62183 ,-6.10141 
408 ,82.8722 ,1.47248 ,-0.60814 ,-5.96709 
409 ,83.0963 ,1.47468 ,-0.62525 ,-6.13499 
410 ,83.3043 ,1.47682 ,-0.63210 ,-6.20214 
411 ,83.5122 ,1.47884 ,-0.64579 ,-6.33646 
412 ,83.7206 ,1.48095 ,-0.66290 ,-6.50435 
413 ,83.9606 ,1.48341 ,-0.68685 ,-6.73940 
414 ,84.1687 ,1.48550 ,-0.66974 ,-6.57150 
415 ,84.3768 ,1.48757 ,-0.69370 ,-6.80655 
416 ,84.5851 ,1.48962 ,-0.69027 ,-6.77297 
417 ,84.7770 ,1.49166 ,-0.69712 ,-6.84013 
418 ,84.9852 ,1.49360 ,-0.71081 ,-6.97444 
419 ,85.1936 ,1.49574 ,-0.71765 ,-7.04160 
420 ,85.4172 ,1.49793 ,-0.73476 ,-7.20949 
421 ,85.6252 ,1.50006 ,-0.75187 ,-7.37738 
422 ,85.8175 ,1.50195 ,-0.75872 ,-7.44454 
423 ,86.0412 ,1.50414 ,-0.77583 ,-7.61243 
424 ,86.2337 ,1.50612 ,-0.77241 ,-7.57885 
425 ,86.4419 ,1.50816 ,-0.79294 ,-7.78032 
426 ,86.6339 ,1.51014 ,-0.78267 ,-7.67959 
427 ,86.8420 ,1.51216 ,-0.79978 ,-7.84748 
428 ,87.0662 ,1.51434 ,-0.80321 ,-7.88106 
429 ,87.2740 ,1.51653 ,-0.82032 ,-8.04895 
430 ,87.4822 ,1.51858 ,-0.82374 ,-8.08253 
431 ,87.6902 ,1.52060 ,-0.83058 ,-8.14968 
432 ,87.8981 ,1.52275 ,-0.84085 ,-8.25042 
433 ,88.0904 ,1.52469 ,-0.84085 ,-8.25042 
434 ,88.2825 ,1.52661 ,-0.86481 ,-8.48547 
435 ,88.4904 ,1.52870 ,-0.85796 ,-8.41831 
436 ,88.6985 ,1.53074 ,-0.89903 ,-8.82125 
437 ,88.9066 ,1.53281 ,-0.87849 ,-8.61978 
438 ,89.0985 ,1.53473 ,-0.90245 ,-8.85483 
439 ,89.3225 ,1.53698 ,-0.90929 ,-8.92198 
440 ,89.5310 ,1.53908 ,-0.90587 ,-8.88841 
441 ,89.7392 ,1.54113 ,-0.93325 ,-9.15703 
442 ,89.9312 ,1.54309 ,-0.92298 ,-9.05630 
443 ,90.1554 ,1.54529 ,-0.94694 ,-9.29135 
444 ,90.3635 ,1.54743 ,-0.95036 ,-9.32492 
445 ,90.5874 ,1.54962 ,-0.95378 ,-9.35850 
446 ,90.8111 ,1.55182 ,-0.98458 ,-9.66071 
447 ,91.0035 ,1.55380 ,-0.96747 ,-9.49282 
448 ,91.2118 ,1.55585 ,-0.98116 ,-9.62713 
449 ,91.4195 ,1.55797 ,-1.00169 ,-9.82860 
450 ,91.6276 ,1.56001 ,-0.99827 ,-9.79502 
451 ,91.8358 ,1.56209 ,-1.02222 ,-10.03007 
452 ,92.0277 ,1.56405 ,-1.00511 ,-9.86218 
453 ,92.2360 ,1.56609 ,-1.03249 ,-10.13080 
454 ,92.4442 ,1.56817 ,-1.02222 ,-10.03007 
455 ,92.6519 ,1.57021 ,-1.05302 ,-10.33227 
456 ,92.8605 ,1.57234 ,-1.05645 ,-10.36585 
457 ,93.0685 ,1.57444 ,-1.05302 ,-10.33227 
458 ,93.2765 ,1.57652 ,-1.08382 ,-10.63448 
459 ,93.4846 ,1.57856 ,-1.07698 ,-10.56732 
460 ,93.7085 ,1.58073 ,-1.09067 ,-10.70163 
461 ,93.9329 ,1.58302 ,-1.10778 ,-10.86953 
462 ,94.1570 ,1.58531 ,-1.11462 ,-10.93668 
