Data stamp = , 05-05-2022 16:22:02 981

Calibration Values: 
Slope = , 26.54 , g/V 
Offset Voltage at no contact = , -0.501760 , V 

No , Time , Stage Position ,   Mass , Force 
   ,  (s) ,      (mm)      ,   (g)  , (mN)  

1 ,0.0000 ,0.64949 ,5.17190 ,50.74666 
2 ,0.2069 ,0.64956 ,5.15821 ,50.61234 
3 ,0.7353 ,0.65122 ,5.14794 ,50.51161 
4 ,0.9918 ,0.65396 ,5.15479 ,50.57876 
5 ,1.2158 ,0.65628 ,5.15821 ,50.61234 
6 ,1.4236 ,0.65844 ,5.15821 ,50.61234 
7 ,1.6799 ,0.66096 ,5.15136 ,50.54519 
8 ,1.8719 ,0.66297 ,5.14110 ,50.44445 
9 ,2.0804 ,0.66498 ,5.14452 ,50.47803 
10 ,2.2881 ,0.66708 ,5.12399 ,50.27656 
11 ,2.5123 ,0.66937 ,5.11714 ,50.20940 
12 ,2.7204 ,0.67144 ,5.09319 ,49.97436 
13 ,2.9443 ,0.67362 ,5.07608 ,49.80646 
14 ,3.1527 ,0.67571 ,5.07950 ,49.84004 
15 ,3.3766 ,0.67794 ,5.05554 ,49.60499 
16 ,3.5689 ,0.67992 ,5.01106 ,49.16848 
17 ,3.7767 ,0.68206 ,5.01106 ,49.16848 
18 ,3.9849 ,0.68403 ,4.97341 ,48.79911 
19 ,4.1931 ,0.68620 ,4.95630 ,48.63122 
20 ,4.4170 ,0.68826 ,4.93235 ,48.39618 
21 ,4.6409 ,0.69060 ,4.91866 ,48.26186 
22 ,4.8333 ,0.69256 ,4.90497 ,48.12755 
23 ,5.0251 ,0.69448 ,4.88444 ,47.92608 
24 ,5.2496 ,0.69670 ,4.86048 ,47.69103 
25 ,5.4415 ,0.69872 ,4.85021 ,47.59030 
26 ,5.6497 ,0.70073 ,4.81257 ,47.22093 
27 ,5.8574 ,0.70273 ,4.81941 ,47.28809 
28 ,6.0656 ,0.70490 ,4.76466 ,46.75084 
29 ,6.2737 ,0.70702 ,4.75782 ,46.68368 
30 ,6.4657 ,0.70893 ,4.73044 ,46.41506 
31 ,6.6740 ,0.71091 ,4.73386 ,46.44863 
32 ,6.8662 ,0.71295 ,4.68595 ,45.97854 
33 ,7.0740 ,0.71489 ,4.69279 ,46.04569 
34 ,7.2665 ,0.71696 ,4.66542 ,45.77707 
35 ,7.4904 ,0.71906 ,4.65173 ,45.64275 
36 ,7.6983 ,0.72121 ,4.61408 ,45.27339 
37 ,7.9066 ,0.72328 ,4.60724 ,45.20624 
38 ,8.0983 ,0.72521 ,4.59013 ,45.03835 
39 ,8.3069 ,0.72726 ,4.55933 ,44.73614 
40 ,8.5308 ,0.72954 ,4.53880 ,44.53467 
41 ,8.7391 ,0.73158 ,4.52511 ,44.40036 
42 ,8.9471 ,0.73370 ,4.51142 ,44.26604 
43 ,9.1552 ,0.73572 ,4.48746 ,44.03100 
44 ,9.3795 ,0.73800 ,4.46351 ,43.79595 
45 ,9.6188 ,0.74038 ,4.45324 ,43.69521 
46 ,9.8108 ,0.74241 ,4.42244 ,43.39301 
47 ,10.0194 ,0.74442 ,4.41560 ,43.32585 
48 ,10.2594 ,0.74681 ,4.39507 ,43.12438 
49 ,10.4674 ,0.74892 ,4.36084 ,42.78860 
50 ,10.6758 ,0.75093 ,4.35742 ,42.75502 
51 ,10.8999 ,0.75319 ,4.30951 ,42.28492 
52 ,11.0919 ,0.75516 ,4.32320 ,42.41924 
53 ,11.3001 ,0.75716 ,4.27871 ,41.98272 
54 ,11.5240 ,0.75942 ,4.26502 ,41.84841 
55 ,11.7321 ,0.76149 ,4.26160 ,41.81483 
56 ,11.9241 ,0.76344 ,4.22738 ,41.47905 
57 ,12.1323 ,0.76563 ,4.21711 ,41.37831 
58 ,12.3243 ,0.76743 ,4.18974 ,41.10968 
59 ,12.5322 ,0.76953 ,4.17947 ,41.00895 
60 ,12.7405 ,0.77157 ,4.14183 ,40.63959 
61 ,12.9644 ,0.77383 ,4.13156 ,40.53885 
62 ,13.1571 ,0.77576 ,4.12129 ,40.43812 
63 ,13.3810 ,0.77799 ,4.09049 ,40.13591 
64 ,13.5888 ,0.78007 ,4.08365 ,40.06876 
65 ,13.8131 ,0.78234 ,4.08023 ,40.03518 
66 ,14.0372 ,0.78449 ,4.04600 ,39.69940 
67 ,14.2453 ,0.78666 ,4.02205 ,39.46435 
68 ,14.4533 ,0.78871 ,4.01863 ,39.43077 
69 ,14.6454 ,0.79065 ,3.97072 ,38.96067 
70 ,14.8533 ,0.79263 ,3.97072 ,38.96067 
71 ,15.0614 ,0.79476 ,3.94676 ,38.72562 
72 ,15.2697 ,0.79686 ,3.92623 ,38.52415 
73 ,15.4777 ,0.79893 ,3.91938 ,38.45700 
74 ,15.6697 ,0.80090 ,3.88858 ,38.15479 
75 ,15.8775 ,0.80291 ,3.87490 ,38.02048 
76 ,16.0701 ,0.80491 ,3.84752 ,37.75185 
77 ,16.2781 ,0.80703 ,3.84752 ,37.75185 
78 ,16.4700 ,0.80893 ,3.80303 ,37.31534 
79 ,16.6784 ,0.81093 ,3.79961 ,37.28176 
80 ,16.8861 ,0.81305 ,3.77565 ,37.04671 
81 ,17.0943 ,0.81517 ,3.75512 ,36.84524 
82 ,17.3023 ,0.81721 ,3.72432 ,36.54303 
83 ,17.5106 ,0.81932 ,3.72432 ,36.54303 
84 ,17.7186 ,0.82133 ,3.69694 ,36.27441 
85 ,17.9428 ,0.82361 ,3.66957 ,36.00578 
86 ,18.1507 ,0.82566 ,3.65930 ,35.90505 
87 ,18.3750 ,0.82794 ,3.64903 ,35.80431 
88 ,18.5832 ,0.83002 ,3.60797 ,35.40137 
89 ,18.7912 ,0.83210 ,3.60797 ,35.40137 
90 ,19.0152 ,0.83429 ,3.58059 ,35.13275 
91 ,19.2232 ,0.83639 ,3.55663 ,34.89770 
92 ,19.4313 ,0.83852 ,3.56006 ,34.93128 
93 ,19.6394 ,0.84065 ,3.53610 ,34.69623 
94 ,19.8315 ,0.84251 ,3.50530 ,34.39402 
95 ,20.0236 ,0.84444 ,3.48135 ,34.15898 
96 ,20.2154 ,0.84632 ,3.49504 ,34.29329 
97 ,20.4237 ,0.84837 ,3.45055 ,33.85677 
98 ,20.6317 ,0.85045 ,3.44370 ,33.78961 
99 ,20.8398 ,0.85257 ,3.41290 ,33.48741 
100 ,21.0482 ,0.85464 ,3.39237 ,33.28594 
101 ,21.2564 ,0.85675 ,3.39921 ,33.35310 
102 ,21.4639 ,0.85872 ,3.36499 ,33.01731 
103 ,21.6723 ,0.86089 ,3.33419 ,32.71511 
104 ,21.8805 ,0.86287 ,3.33419 ,32.71511 
105 ,22.0886 ,0.86500 ,3.30339 ,32.41290 
106 ,22.3127 ,0.86727 ,3.29313 ,32.31217 
107 ,22.5205 ,0.86942 ,3.27602 ,32.14428 
108 ,22.7128 ,0.87128 ,3.25548 ,31.94281 
109 ,22.9207 ,0.87340 ,3.23153 ,31.70776 
110 ,23.1129 ,0.87539 ,3.21784 ,31.57345 
111 ,23.3050 ,0.87720 ,3.19731 ,31.37198 
112 ,23.5127 ,0.87923 ,3.20415 ,31.43913 
113 ,23.7213 ,0.88134 ,3.16309 ,31.03619 
114 ,23.9452 ,0.88353 ,3.14940 ,30.90188 
115 ,24.1534 ,0.88568 ,3.13913 ,30.80115 
116 ,24.3615 ,0.88775 ,3.10149 ,30.43178 
117 ,24.5696 ,0.88982 ,3.10833 ,30.49894 
118 ,24.7616 ,0.89179 ,3.07069 ,30.12958 
119 ,24.9538 ,0.89370 ,3.06384 ,30.06242 
120 ,25.1619 ,0.89574 ,3.03304 ,29.76022 
121 ,25.3702 ,0.89790 ,3.01935 ,29.62590 
122 ,25.5783 ,0.89994 ,3.00909 ,29.52517 
123 ,25.7856 ,0.90195 ,2.96802 ,29.12223 
124 ,25.9942 ,0.90405 ,2.98513 ,29.29012 
125 ,26.2022 ,0.90621 ,2.94749 ,28.92076 
126 ,26.4104 ,0.90822 ,2.93722 ,28.82003 
127 ,26.6182 ,0.91035 ,2.93038 ,28.75287 
128 ,26.8263 ,0.91234 ,2.88589 ,28.31635 
129 ,27.0344 ,0.91449 ,2.89616 ,28.41709 
130 ,27.2426 ,0.91657 ,2.86193 ,28.08130 
131 ,27.4507 ,0.91861 ,2.84825 ,27.94699 
132 ,27.6428 ,0.92055 ,2.83456 ,27.81268 
133 ,27.8348 ,0.92247 ,2.82087 ,27.67836 
134 ,28.0589 ,0.92464 ,2.80034 ,27.47689 
135 ,28.2511 ,0.92664 ,2.77980 ,27.27542 
136 ,28.4431 ,0.92857 ,2.74900 ,26.97322 
137 ,28.6348 ,0.93056 ,2.75585 ,27.04038 
138 ,28.8434 ,0.93253 ,2.72505 ,26.73817 
139 ,29.0671 ,0.93476 ,2.70109 ,26.50312 
140 ,29.2755 ,0.93686 ,2.70109 ,26.50312 
141 ,29.4836 ,0.93897 ,2.66003 ,26.10018 
142 ,29.6756 ,0.94090 ,2.66003 ,26.10018 
143 ,29.8677 ,0.94283 ,2.63949 ,25.89871 
144 ,30.0757 ,0.94483 ,2.64292 ,25.93229 
145 ,30.2997 ,0.94709 ,2.59501 ,25.46220 
146 ,30.5241 ,0.94935 ,2.58474 ,25.36146 
147 ,30.7482 ,0.95155 ,2.56763 ,25.19357 
148 ,30.9562 ,0.95368 ,2.56078 ,25.12641 
149 ,31.1804 ,0.95589 ,2.52656 ,24.79063 
150 ,31.3724 ,0.95791 ,2.52998 ,24.82421 
151 ,31.5642 ,0.95979 ,2.48550 ,24.38769 
152 ,31.7726 ,0.96181 ,2.50945 ,24.62274 
153 ,31.9807 ,0.96394 ,2.48207 ,24.35411 
154 ,32.2045 ,0.96611 ,2.43759 ,23.91759 
155 ,32.4123 ,0.96825 ,2.43759 ,23.91759 
156 ,32.6208 ,0.97031 ,2.41021 ,23.64897 
157 ,32.8447 ,0.97251 ,2.38968 ,23.44750 
158 ,33.0530 ,0.97457 ,2.39652 ,23.51465 
159 ,33.2609 ,0.97668 ,2.38283 ,23.38034 
160 ,33.4689 ,0.97885 ,2.34519 ,23.01098 
161 ,33.7251 ,0.98140 ,2.32465 ,22.80951 
162 ,33.9333 ,0.98346 ,2.32123 ,22.77593 
163 ,34.1415 ,0.98553 ,2.29728 ,22.54088 
164 ,34.3493 ,0.98760 ,2.28701 ,22.44015 
165 ,34.5577 ,0.98970 ,2.28701 ,22.44015 
166 ,34.7818 ,0.99182 ,2.24594 ,22.03721 
167 ,35.0058 ,0.99411 ,2.22541 ,21.83574 
168 ,35.2139 ,0.99624 ,2.21515 ,21.73500 
169 ,35.4220 ,0.99834 ,2.20146 ,21.60069 
170 ,35.6299 ,1.00039 ,2.17408 ,21.33206 
171 ,35.8381 ,1.00242 ,2.17750 ,21.36564 
172 ,36.0461 ,1.00453 ,2.13644 ,20.96270 
173 ,36.2538 ,1.00654 ,2.13644 ,20.96270 
174 ,36.4459 ,1.00857 ,2.10221 ,20.62692 
175 ,36.6383 ,1.01049 ,2.11248 ,20.72766 
176 ,36.8461 ,1.01249 ,2.07484 ,20.35829 
177 ,37.0224 ,1.01450 ,2.07484 ,20.35829 
178 ,37.2307 ,1.01638 ,2.05430 ,20.15682 
179 ,37.4706 ,1.01870 ,2.05088 ,20.12325 
180 ,37.6786 ,1.02089 ,2.03377 ,19.95535 
181 ,37.8707 ,1.02283 ,1.99613 ,19.58599 
182 ,38.0791 ,1.02485 ,1.97559 ,19.38452 
183 ,38.2711 ,1.02695 ,1.95848 ,19.21663 
184 ,38.4634 ,1.02876 ,1.95848 ,19.21663 
185 ,38.6708 ,1.03077 ,1.93795 ,19.01516 
186 ,38.8633 ,1.03277 ,1.92426 ,18.88085 
187 ,39.0712 ,1.03478 ,1.91742 ,18.81369 
188 ,39.2634 ,1.03673 ,1.88662 ,18.51149 
189 ,39.4553 ,1.03868 ,1.89346 ,18.57864 
190 ,39.6793 ,1.04084 ,1.86951 ,18.34360 
191 ,39.8719 ,1.04284 ,1.84897 ,18.14213 
192 ,40.0957 ,1.04502 ,1.83871 ,18.04139 
193 ,40.3200 ,1.04728 ,1.81817 ,17.83992 
194 ,40.5281 ,1.04937 ,1.79422 ,17.60487 
195 ,40.7361 ,1.05136 ,1.80106 ,17.67203 
196 ,40.9441 ,1.05348 ,1.74973 ,17.16836 
197 ,41.1523 ,1.05559 ,1.75315 ,17.20193 
198 ,41.3443 ,1.05754 ,1.72920 ,16.96689 
199 ,41.5684 ,1.05975 ,1.71893 ,16.86615 
200 ,41.7604 ,1.06170 ,1.71551 ,16.83257 
201 ,41.9689 ,1.06375 ,1.70524 ,16.73184 
202 ,42.1769 ,1.06581 ,1.69840 ,16.66468 
203 ,42.4007 ,1.06801 ,1.66418 ,16.32890 
204 ,42.5930 ,1.07001 ,1.64364 ,16.12743 
205 ,42.7851 ,1.07196 ,1.63338 ,16.02669 
206 ,42.9932 ,1.07397 ,1.63338 ,16.02669 
207 ,43.2012 ,1.07604 ,1.59916 ,15.69091 
208 ,43.3929 ,1.07810 ,1.58547 ,15.55660 
209 ,43.6011 ,1.08009 ,1.57178 ,15.42228 
210 ,43.8253 ,1.08229 ,1.55124 ,15.22081 
211 ,44.0497 ,1.08460 ,1.53756 ,15.08650 
212 ,44.2737 ,1.08680 ,1.53756 ,15.08650 
213 ,44.4975 ,1.08900 ,1.51018 ,14.81787 
214 ,44.7219 ,1.09117 ,1.48965 ,14.61640 
215 ,44.9459 ,1.09349 ,1.47596 ,14.48209 
216 ,45.1537 ,1.09556 ,1.47938 ,14.51567 
217 ,45.3621 ,1.09764 ,1.45885 ,14.31420 
218 ,45.5703 ,1.09974 ,1.42805 ,14.01199 
219 ,45.8104 ,1.10204 ,1.42462 ,13.97842 
220 ,46.0342 ,1.10436 ,1.41778 ,13.91126 
221 ,46.2425 ,1.10646 ,1.37671 ,13.50832 
222 ,46.4506 ,1.10859 ,1.37329 ,13.47474 
223 ,46.6423 ,1.11047 ,1.35960 ,13.34043 
224 ,46.8345 ,1.11245 ,1.34934 ,13.23969 
225 ,47.0268 ,1.11433 ,1.31854 ,12.93749 
226 ,47.2510 ,1.11655 ,1.31854 ,12.93749 
227 ,47.4589 ,1.11860 ,1.29800 ,12.73602 
228 ,47.6828 ,1.12080 ,1.28774 ,12.63528 
229 ,47.8748 ,1.12283 ,1.28774 ,12.63528 
230 ,48.0673 ,1.12474 ,1.26378 ,12.40024 
231 ,48.2754 ,1.12676 ,1.26378 ,12.40024 
232 ,48.4834 ,1.12878 ,1.22956 ,12.06445 
233 ,48.6914 ,1.13093 ,1.21587 ,11.93014 
234 ,48.8837 ,1.13286 ,1.20903 ,11.86298 
235 ,49.0754 ,1.13494 ,1.20561 ,11.82941 
236 ,49.2677 ,1.13675 ,1.18165 ,11.59436 
237 ,49.4919 ,1.13892 ,1.17138 ,11.49362 
238 ,49.7000 ,1.14111 ,1.16454 ,11.42647 
239 ,49.9081 ,1.14313 ,1.13032 ,11.09068 
240 ,50.1321 ,1.14530 ,1.13374 ,11.12426 
241 ,50.3242 ,1.14732 ,1.10636 ,10.85563 
242 ,50.5322 ,1.14934 ,1.10636 ,10.85563 
243 ,50.7402 ,1.15148 ,1.07899 ,10.58701 
244 ,50.9323 ,1.15341 ,1.07214 ,10.51985 
245 ,51.1561 ,1.15556 ,1.05503 ,10.35196 
246 ,51.3647 ,1.15766 ,1.03450 ,10.15049 
247 ,51.5728 ,1.15975 ,1.02423 ,10.04976 
248 ,51.7808 ,1.16183 ,1.01054 ,9.91544 
249 ,51.9889 ,1.16392 ,1.00028 ,9.81471 
250 ,52.1967 ,1.16596 ,1.00712 ,9.88186 
251 ,52.4050 ,1.16807 ,0.96948 ,9.51250 
252 ,52.6293 ,1.17032 ,0.95579 ,9.37819 
253 ,52.8371 ,1.17244 ,0.94894 ,9.31103 
254 ,53.0292 ,1.17432 ,0.93868 ,9.21030 
255 ,53.2211 ,1.17636 ,0.92841 ,9.10956 
256 ,53.4133 ,1.17814 ,0.92157 ,9.04241 
257 ,53.6054 ,1.18010 ,0.88734 ,8.70662 
258 ,53.8133 ,1.18219 ,0.89077 ,8.74020 
259 ,54.0375 ,1.18438 ,0.87708 ,8.60589 
260 ,54.2458 ,1.18645 ,0.85997 ,8.43800 
261 ,54.4534 ,1.18853 ,0.85312 ,8.37084 
262 ,54.6619 ,1.19063 ,0.82575 ,8.10221 
263 ,54.8541 ,1.19259 ,0.83601 ,8.20295 
264 ,55.0623 ,1.19469 ,0.80179 ,7.86717 
265 ,55.2863 ,1.19689 ,0.78468 ,7.69927 
266 ,55.4943 ,1.19904 ,0.79837 ,7.83359 
267 ,55.7023 ,1.20108 ,0.75730 ,7.43065 
268 ,55.8945 ,1.20296 ,0.76072 ,7.46423 
269 ,56.1186 ,1.20519 ,0.72992 ,7.16202 
270 ,56.3266 ,1.20725 ,0.72650 ,7.12844 
271 ,56.5508 ,1.20947 ,0.72992 ,7.16202 
272 ,56.7424 ,1.21155 ,0.70255 ,6.89340 
273 ,56.9345 ,1.21336 ,0.70255 ,6.89340 
274 ,57.1265 ,1.21534 ,0.67517 ,6.62477 
275 ,57.3348 ,1.21729 ,0.67175 ,6.59119 
276 ,57.5431 ,1.21942 ,0.65464 ,6.42330 
277 ,57.7669 ,1.22167 ,0.63068 ,6.18825 
278 ,57.9754 ,1.22378 ,0.64437 ,6.32256 
279 ,58.1835 ,1.22586 ,0.61357 ,6.02036 
280 ,58.3916 ,1.22792 ,0.61015 ,5.98678 
281 ,58.5836 ,1.22986 ,0.57935 ,5.68458 
282 ,58.7918 ,1.23200 ,0.58619 ,5.75173 
283 ,59.0158 ,1.23416 ,0.56908 ,5.58384 
284 ,59.2238 ,1.23623 ,0.54855 ,5.38237 
285 ,59.4319 ,1.23828 ,0.55197 ,5.41595 
286 ,59.6240 ,1.24025 ,0.52802 ,5.18090 
287 ,59.8483 ,1.24233 ,0.52459 ,5.14732 
288 ,60.0562 ,1.24455 ,0.51775 ,5.08017 
289 ,60.2483 ,1.24655 ,0.49037 ,4.81154 
290 ,60.4402 ,1.24840 ,0.48011 ,4.71081 
291 ,60.6485 ,1.25051 ,0.47326 ,4.64365 
292 ,60.8407 ,1.25245 ,0.44931 ,4.40860 
293 ,61.0483 ,1.25447 ,0.45615 ,4.47576 
294 ,61.2568 ,1.25660 ,0.44246 ,4.34144 
295 ,61.4648 ,1.25866 ,0.40824 ,4.00566 
296 ,61.6727 ,1.26071 ,0.42535 ,4.17355 
297 ,61.8650 ,1.26268 ,0.39797 ,3.90493 
298 ,62.0729 ,1.26472 ,0.39797 ,3.90493 
299 ,62.2651 ,1.26666 ,0.37060 ,3.63630 
300 ,62.4570 ,1.26858 ,0.37744 ,3.70346 
301 ,62.6652 ,1.27058 ,0.35691 ,3.50199 
302 ,62.8575 ,1.27261 ,0.35349 ,3.46841 
303 ,63.0653 ,1.27459 ,0.33638 ,3.30052 
304 ,63.2572 ,1.27654 ,0.33638 ,3.30052 
305 ,63.4655 ,1.27867 ,0.30558 ,2.99831 
306 ,63.6737 ,1.28071 ,0.30558 ,2.99831 
307 ,63.8820 ,1.28291 ,0.27478 ,2.69611 
308 ,64.0738 ,1.28472 ,0.27820 ,2.72969 
309 ,64.2981 ,1.28695 ,0.25767 ,2.52822 
310 ,64.4901 ,1.28898 ,0.24055 ,2.36032 
311 ,64.6823 ,1.29081 ,0.23029 ,2.25959 
312 ,64.8737 ,1.29268 ,0.24740 ,2.42748 
313 ,65.0819 ,1.29479 ,0.20976 ,2.05812 
314 ,65.2741 ,1.29680 ,0.21660 ,2.12528 
315 ,65.4661 ,1.29868 ,0.18922 ,1.85665 
316 ,65.6744 ,1.30068 ,0.19607 ,1.92381 
317 ,65.8988 ,1.30291 ,0.17211 ,1.68876 
318 ,66.0909 ,1.30494 ,0.17553 ,1.72234 
319 ,66.3146 ,1.30699 ,0.16185 ,1.58802 
320 ,66.5230 ,1.30921 ,0.14131 ,1.38655 
321 ,66.7629 ,1.31155 ,0.11051 ,1.08435 
322 ,66.9711 ,1.31371 ,0.12762 ,1.25224 
323 ,67.1630 ,1.31563 ,0.10025 ,0.98361 
324 ,67.3715 ,1.31765 ,0.10367 ,1.01719 
325 ,67.5795 ,1.31980 ,0.07971 ,0.78214 
326 ,67.7715 ,1.32173 ,0.09340 ,0.91646 
327 ,67.9796 ,1.32375 ,0.05234 ,0.51352 
328 ,68.1717 ,1.32575 ,0.05918 ,0.58067 
329 ,68.3957 ,1.32786 ,0.04549 ,0.44636 
330 ,68.5878 ,1.32987 ,0.03180 ,0.31205 
331 ,68.7794 ,1.33183 ,0.00100 ,0.00984 
332 ,68.9880 ,1.33382 ,0.00443 ,0.04342 
333 ,69.2121 ,1.33608 ,0.00785 ,0.07700 
334 ,69.4042 ,1.33805 ,-0.01953 ,-0.19163 
335 ,69.6283 ,1.34019 ,-0.02295 ,-0.22520 
336 ,69.8359 ,1.34229 ,-0.04006 ,-0.39310 
337 ,70.0599 ,1.34445 ,-0.05375 ,-0.52741 
338 ,70.2519 ,1.34662 ,-0.06402 ,-0.62814 
339 ,70.4605 ,1.34862 ,-0.06744 ,-0.66172 
340 ,70.7167 ,1.35110 ,-0.06744 ,-0.66172 
341 ,70.9409 ,1.35333 ,-0.10508 ,-1.03108 
342 ,71.1490 ,1.35551 ,-0.08797 ,-0.86319 
343 ,71.3730 ,1.35764 ,-0.09824 ,-0.96393 
344 ,71.5651 ,1.35964 ,-0.13246 ,-1.29971 
345 ,71.7729 ,1.36166 ,-0.13246 ,-1.29971 
346 ,71.9653 ,1.36362 ,-0.14957 ,-1.46760 
347 ,72.1732 ,1.36573 ,-0.14273 ,-1.40045 
348 ,72.3818 ,1.36774 ,-0.18037 ,-1.76981 
349 ,72.5895 ,1.36984 ,-0.17353 ,-1.70265 
350 ,72.7976 ,1.37195 ,-0.18379 ,-1.80338 
351 ,72.9898 ,1.37392 ,-0.17695 ,-1.73623 
352 ,73.1813 ,1.37586 ,-0.21117 ,-2.07201 
353 ,73.3899 ,1.37784 ,-0.20090 ,-1.97128 
354 ,73.6140 ,1.38010 ,-0.21802 ,-2.13917 
355 ,73.8220 ,1.38211 ,-0.24197 ,-2.37422 
356 ,74.0140 ,1.38411 ,-0.24197 ,-2.37422 
357 ,74.2062 ,1.38600 ,-0.26593 ,-2.60926 
358 ,74.4142 ,1.38806 ,-0.25224 ,-2.47495 
359 ,74.6224 ,1.39014 ,-0.29330 ,-2.87789 
360 ,74.8304 ,1.39223 ,-0.27961 ,-2.74358 
361 ,75.0225 ,1.39417 ,-0.30015 ,-2.94505 
362 ,75.2145 ,1.39612 ,-0.29330 ,-2.87789 
363 ,75.4383 ,1.39831 ,-0.31041 ,-3.04578 
364 ,75.6307 ,1.40030 ,-0.30699 ,-3.01220 
365 ,75.8227 ,1.40224 ,-0.33437 ,-3.28083 
366 ,76.0307 ,1.40422 ,-0.32752 ,-3.21367 
367 ,76.2391 ,1.40631 ,-0.33437 ,-3.28083 
368 ,76.4629 ,1.40855 ,-0.36175 ,-3.54946 
369 ,76.6711 ,1.41064 ,-0.35832 ,-3.51588 
370 ,76.8795 ,1.41277 ,-0.37886 ,-3.71735 
371 ,77.1032 ,1.41494 ,-0.38912 ,-3.81808 
372 ,77.3273 ,1.41717 ,-0.40281 ,-3.95240 
373 ,77.5515 ,1.41947 ,-0.40623 ,-3.98597 
374 ,77.7918 ,1.42174 ,-0.43019 ,-4.22102 
375 ,77.9999 ,1.42394 ,-0.43361 ,-4.25460 
376 ,78.2079 ,1.42601 ,-0.43361 ,-4.25460 
377 ,78.4159 ,1.42807 ,-0.44388 ,-4.35534 
378 ,78.6081 ,1.43001 ,-0.46783 ,-4.59038 
379 ,78.8319 ,1.43222 ,-0.46783 ,-4.59038 
380 ,79.0402 ,1.43434 ,-0.49179 ,-4.82543 
381 ,79.2484 ,1.43641 ,-0.49179 ,-4.82543 
382 ,79.4562 ,1.43843 ,-0.49179 ,-4.82543 
383 ,79.6485 ,1.44042 ,-0.51917 ,-5.09406 
384 ,79.8562 ,1.44248 ,-0.51232 ,-5.02690 
385 ,80.0326 ,1.44438 ,-0.53628 ,-5.26195 
386 ,80.2246 ,1.44630 ,-0.54312 ,-5.32911 
387 ,80.4327 ,1.44826 ,-0.52259 ,-5.12764 
388 ,80.6246 ,1.45015 ,-0.56023 ,-5.49700 
389 ,80.8329 ,1.45225 ,-0.54654 ,-5.36268 
390 ,81.0410 ,1.45433 ,-0.58419 ,-5.73205 
391 ,81.2651 ,1.45651 ,-0.58761 ,-5.76562 
392 ,81.4731 ,1.45862 ,-0.59103 ,-5.79920 
393 ,81.6813 ,1.46081 ,-0.61156 ,-6.00067 
394 ,81.8733 ,1.46266 ,-0.59788 ,-5.86636 
395 ,82.0651 ,1.46468 ,-0.64236 ,-6.30288 
396 ,82.2573 ,1.46648 ,-0.62525 ,-6.13499 
397 ,82.4654 ,1.46847 ,-0.64579 ,-6.33646 
398 ,82.6732 ,1.47060 ,-0.63894 ,-6.26930 
399 ,82.8653 ,1.47266 ,-0.66632 ,-6.53793 
400 ,83.0735 ,1.47461 ,-0.65263 ,-6.40361 
401 ,83.2975 ,1.47690 ,-0.68001 ,-6.67224 
402 ,83.4897 ,1.47888 ,-0.69027 ,-6.77297 
403 ,83.6818 ,1.48080 ,-0.69712 ,-6.84013 
404 ,83.8737 ,1.48276 ,-0.69712 ,-6.84013 
405 ,84.0659 ,1.48467 ,-0.73476 ,-7.20949 
406 ,84.2741 ,1.48662 ,-0.71423 ,-7.00802 
407 ,84.4662 ,1.48866 ,-0.73818 ,-7.24307 
408 ,84.6582 ,1.49058 ,-0.74503 ,-7.31023 
409 ,84.8502 ,1.49251 ,-0.75187 ,-7.37738 
410 ,85.0584 ,1.49446 ,-0.76214 ,-7.47812 
411 ,85.2664 ,1.49653 ,-0.76214 ,-7.47812 
412 ,85.4746 ,1.49867 ,-0.76214 ,-7.47812 
413 ,85.6665 ,1.50064 ,-0.77925 ,-7.64601 
414 ,85.8748 ,1.50262 ,-0.78267 ,-7.67959 
415 ,86.0668 ,1.50464 ,-0.80663 ,-7.91464 
416 ,86.2588 ,1.50656 ,-0.79978 ,-7.84748 
417 ,86.4670 ,1.50854 ,-0.80663 ,-7.91464 
418 ,86.6751 ,1.51061 ,-0.80663 ,-7.91464 
419 ,86.8831 ,1.51267 ,-0.84769 ,-8.31758 
420 ,87.0754 ,1.51474 ,-0.83058 ,-8.14968 
421 ,87.2836 ,1.51667 ,-0.85112 ,-8.35115 
422 ,87.4757 ,1.51874 ,-0.84427 ,-8.28400 
423 ,87.6838 ,1.52074 ,-0.85796 ,-8.41831 
424 ,87.8919 ,1.52283 ,-0.86823 ,-8.51904 
425 ,88.1000 ,1.52487 ,-0.88876 ,-8.72051 
426 ,88.3402 ,1.52713 ,-0.89218 ,-8.75409 
427 ,88.5642 ,1.52952 ,-0.91272 ,-8.95556 
428 ,88.7879 ,1.53176 ,-0.90245 ,-8.85483 
429 ,88.9960 ,1.53389 ,-0.90587 ,-8.88841 
430 ,89.1885 ,1.53583 ,-0.91614 ,-8.98914 
431 ,89.3966 ,1.53782 ,-0.93667 ,-9.19061 
432 ,89.5887 ,1.53978 ,-0.95036 ,-9.32492 
433 ,89.8128 ,1.54204 ,-0.95378 ,-9.35850 
434 ,90.0206 ,1.54412 ,-0.96747 ,-9.49282 
435 ,90.2449 ,1.54632 ,-0.97774 ,-9.59355 
436 ,90.4531 ,1.54841 ,-0.97089 ,-9.52639 
437 ,90.6767 ,1.55064 ,-0.98458 ,-9.66071 
438 ,90.8687 ,1.55263 ,-1.00854 ,-9.89576 
439 ,91.0772 ,1.55459 ,-1.00854 ,-9.89576 
440 ,91.2851 ,1.55670 ,-1.02222 ,-10.03007 
441 ,91.5094 ,1.55897 ,-1.01538 ,-9.96291 
442 ,91.7016 ,1.56094 ,-1.03591 ,-10.16438 
443 ,91.8937 ,1.56281 ,-1.02565 ,-10.06365 
444 ,92.1178 ,1.56495 ,-1.05645 ,-10.36585 
445 ,92.3418 ,1.56728 ,-1.05645 ,-10.36585 
446 ,92.5655 ,1.56951 ,-1.05987 ,-10.39943 
447 ,92.7741 ,1.57161 ,-1.05987 ,-10.39943 
448 ,92.9979 ,1.57380 ,-1.08382 ,-10.63448 
449 ,93.2383 ,1.57617 ,-1.08382 ,-10.63448 
450 ,93.4622 ,1.57843 ,-1.10436 ,-10.83595 
451 ,93.6705 ,1.58059 ,-1.09751 ,-10.76879 
452 ,93.8944 ,1.58275 ,-1.10778 ,-10.86953 
453 ,94.0866 ,1.58476 ,-1.13516 ,-11.13815 
454 ,94.3106 ,1.58699 ,-1.12489 ,-11.03742 
455 ,94.5188 ,1.58910 ,-1.13516 ,-11.13815 
456 ,94.7266 ,1.59110 ,-1.15911 ,-11.37320 
457 ,94.9347 ,1.59323 ,-1.14542 ,-11.23889 
458 ,95.1109 ,1.59513 ,-1.17280 ,-11.50751 
459 ,95.3187 ,1.59704 ,-1.17964 ,-11.57467 
460 ,95.5112 ,1.59900 ,-1.17964 ,-11.57467 
461 ,95.7351 ,1.60117 ,-1.18307 ,-11.60825 
