Data stamp = , 05-05-2022 13:42:39 865

Calibration Values: 
Slope = , 26.54 , g/V 
Offset Voltage at no contact = , -0.501760 , V 

No , Time , Stage Position ,   Mass , Force 
   ,  (s) ,      (mm)      ,   (g)  , (mN)  

1 ,0.0000 ,0.64955 ,5.12399 ,50.27656 
2 ,0.2134 ,0.64963 ,5.12741 ,50.31014 
3 ,0.5976 ,0.65076 ,5.13083 ,50.34372 
4 ,0.8380 ,0.65269 ,5.11714 ,50.20940 
5 ,1.0622 ,0.65484 ,5.11030 ,50.14225 
6 ,1.3022 ,0.65715 ,5.10345 ,50.07509 
7 ,1.5260 ,0.65946 ,5.11714 ,50.20940 
8 ,1.7023 ,0.66145 ,5.12056 ,50.24298 
9 ,1.8944 ,0.66335 ,5.08634 ,49.90720 
10 ,2.1023 ,0.66530 ,5.06923 ,49.73931 
11 ,2.2944 ,0.66733 ,5.04528 ,49.50426 
12 ,2.4865 ,0.66919 ,5.02474 ,49.30279 
13 ,2.7108 ,0.67138 ,5.01106 ,49.16848 
14 ,2.9188 ,0.67348 ,4.99737 ,49.03416 
15 ,3.1268 ,0.67550 ,4.95630 ,48.63122 
16 ,3.3187 ,0.67752 ,4.95288 ,48.59764 
17 ,3.5270 ,0.67956 ,4.92550 ,48.32902 
18 ,3.7191 ,0.68145 ,4.91523 ,48.22828 
19 ,3.9272 ,0.68349 ,4.88786 ,47.95966 
20 ,4.1352 ,0.68562 ,4.87075 ,47.79177 
21 ,4.3274 ,0.68757 ,4.83652 ,47.45598 
22 ,4.5514 ,0.68977 ,4.83652 ,47.45598 
23 ,4.7595 ,0.69193 ,4.81257 ,47.22093 
24 ,4.9676 ,0.69397 ,4.78177 ,46.91873 
25 ,5.1759 ,0.69606 ,4.77835 ,46.88515 
26 ,5.3840 ,0.69813 ,4.74070 ,46.51579 
27 ,5.5916 ,0.70027 ,4.72359 ,46.34790 
28 ,5.7841 ,0.70216 ,4.70648 ,46.18001 
29 ,5.9921 ,0.70419 ,4.68937 ,46.01212 
30 ,6.2323 ,0.70651 ,4.67568 ,45.87780 
31 ,6.4403 ,0.70862 ,4.63804 ,45.50844 
32 ,6.6319 ,0.71072 ,4.62093 ,45.34055 
33 ,6.8403 ,0.71266 ,4.61066 ,45.23981 
34 ,7.0488 ,0.71477 ,4.59013 ,45.03835 
35 ,7.2564 ,0.71688 ,4.58328 ,44.97119 
36 ,7.4648 ,0.71891 ,4.54906 ,44.63541 
37 ,7.6569 ,0.72085 ,4.53537 ,44.50109 
38 ,7.8489 ,0.72280 ,4.50457 ,44.19889 
39 ,8.0732 ,0.72497 ,4.50115 ,44.16531 
40 ,8.2813 ,0.72703 ,4.47720 ,43.93026 
41 ,8.4893 ,0.72919 ,4.45666 ,43.72879 
42 ,8.6971 ,0.73131 ,4.45324 ,43.69521 
43 ,8.8894 ,0.73322 ,4.41218 ,43.29227 
44 ,9.0814 ,0.73510 ,4.41218 ,43.29227 
45 ,9.2738 ,0.73706 ,4.37795 ,42.95649 
46 ,9.4978 ,0.73920 ,4.36769 ,42.85576 
47 ,9.7058 ,0.74127 ,4.33347 ,42.51997 
48 ,9.8975 ,0.74328 ,4.34716 ,42.65429 
49 ,10.1057 ,0.74536 ,4.29582 ,42.15061 
50 ,10.3141 ,0.74742 ,4.29582 ,42.15061 
51 ,10.5221 ,0.74946 ,4.26502 ,41.84841 
52 ,10.7141 ,0.75140 ,4.28213 ,42.01630 
53 ,10.9223 ,0.75344 ,4.24107 ,41.61336 
54 ,11.1462 ,0.75566 ,4.21369 ,41.34473 
55 ,11.3545 ,0.75778 ,4.21027 ,41.31115 
56 ,11.5626 ,0.75990 ,4.17262 ,40.94179 
57 ,11.7704 ,0.76195 ,4.17947 ,41.00895 
58 ,11.9628 ,0.76393 ,4.14867 ,40.70674 
59 ,12.1702 ,0.76595 ,4.12814 ,40.50527 
60 ,12.3629 ,0.76790 ,4.10418 ,40.27023 
61 ,12.5389 ,0.76979 ,4.09049 ,40.13591 
62 ,12.7310 ,0.77156 ,4.07680 ,40.00160 
63 ,12.9386 ,0.77366 ,4.06996 ,39.93444 
64 ,13.1310 ,0.77559 ,4.03916 ,39.63224 
65 ,13.3390 ,0.77756 ,4.01520 ,39.39719 
66 ,13.5471 ,0.77969 ,4.00494 ,39.29646 
67 ,13.7394 ,0.78163 ,3.97414 ,38.99425 
68 ,13.9632 ,0.78382 ,3.97414 ,38.99425 
69 ,14.1712 ,0.78600 ,3.95018 ,38.75920 
70 ,14.3795 ,0.78801 ,3.94334 ,38.69205 
71 ,14.5877 ,0.79016 ,3.90227 ,38.28911 
72 ,14.7959 ,0.79220 ,3.89885 ,38.25553 
73 ,15.0040 ,0.79427 ,3.86121 ,37.88617 
74 ,15.2116 ,0.79636 ,3.85436 ,37.81901 
75 ,15.4036 ,0.79845 ,3.84410 ,37.71828 
76 ,15.6116 ,0.80043 ,3.81330 ,37.41607 
77 ,15.8043 ,0.80231 ,3.80303 ,37.31534 
78 ,16.0283 ,0.80445 ,3.77223 ,37.01313 
79 ,16.2526 ,0.80663 ,3.77565 ,37.04671 
80 ,16.4761 ,0.80900 ,3.74828 ,36.77808 
81 ,16.6847 ,0.81113 ,3.71748 ,36.47588 
82 ,16.8925 ,0.81314 ,3.71405 ,36.44230 
83 ,17.0848 ,0.81518 ,3.67983 ,36.10652 
84 ,17.2767 ,0.81700 ,3.68668 ,36.17367 
85 ,17.4850 ,0.81916 ,3.66614 ,35.97220 
86 ,17.6769 ,0.82101 ,3.64219 ,35.73716 
87 ,17.8851 ,0.82308 ,3.61823 ,35.50211 
88 ,18.1092 ,0.82534 ,3.60112 ,35.33422 
89 ,18.3171 ,0.82737 ,3.59428 ,35.26706 
90 ,18.5094 ,0.82939 ,3.56348 ,34.96485 
91 ,18.7170 ,0.83146 ,3.56690 ,34.99843 
92 ,18.9255 ,0.83349 ,3.52926 ,34.62907 
93 ,19.1335 ,0.83562 ,3.52584 ,34.59549 
94 ,19.3417 ,0.83769 ,3.49846 ,34.32687 
95 ,19.5498 ,0.83970 ,3.48135 ,34.15898 
96 ,19.7418 ,0.84180 ,3.46424 ,33.99108 
97 ,19.9498 ,0.84369 ,3.45055 ,33.85677 
98 ,20.1737 ,0.84592 ,3.43344 ,33.68888 
99 ,20.3819 ,0.84799 ,3.39579 ,33.31952 
100 ,20.5742 ,0.85002 ,3.39579 ,33.31952 
101 ,20.7982 ,0.85215 ,3.36499 ,33.01731 
102 ,20.9904 ,0.85419 ,3.35130 ,32.88300 
103 ,21.1825 ,0.85604 ,3.34104 ,32.78227 
104 ,21.3905 ,0.85809 ,3.33419 ,32.71511 
105 ,21.5984 ,0.86016 ,3.31024 ,32.48006 
106 ,21.8064 ,0.86223 ,3.26917 ,32.07712 
107 ,21.9985 ,0.86426 ,3.26575 ,32.04354 
108 ,22.2068 ,0.86625 ,3.26575 ,32.04354 
109 ,22.4151 ,0.86840 ,3.24864 ,31.87565 
110 ,22.6231 ,0.87051 ,3.21100 ,31.50629 
111 ,22.8152 ,0.87238 ,3.21100 ,31.50629 
112 ,23.0233 ,0.87453 ,3.18020 ,31.20409 
113 ,23.2313 ,0.87659 ,3.18362 ,31.23766 
114 ,23.4554 ,0.87870 ,3.16993 ,31.10335 
115 ,23.6473 ,0.88070 ,3.12886 ,30.70041 
116 ,23.8397 ,0.88259 ,3.12544 ,30.66683 
117 ,24.0477 ,0.88469 ,3.09464 ,30.36463 
118 ,24.2554 ,0.88672 ,3.09464 ,30.36463 
119 ,24.4477 ,0.88870 ,3.05015 ,29.92811 
120 ,24.6400 ,0.89061 ,3.05015 ,29.92811 
121 ,24.8479 ,0.89267 ,3.02962 ,29.72664 
122 ,25.0401 ,0.89462 ,3.01251 ,29.55875 
123 ,25.2482 ,0.89663 ,2.98855 ,29.32370 
124 ,25.4722 ,0.89883 ,2.97144 ,29.15581 
125 ,25.6965 ,0.90110 ,2.96118 ,29.05507 
126 ,25.8885 ,0.90310 ,2.94749 ,28.92076 
127 ,26.0966 ,0.90519 ,2.93380 ,28.78645 
128 ,26.2887 ,0.90708 ,2.92353 ,28.68571 
129 ,26.5128 ,0.90935 ,2.89958 ,28.45066 
130 ,26.7049 ,0.91125 ,2.87562 ,28.21562 
131 ,26.9131 ,0.91330 ,2.87562 ,28.21562 
132 ,27.1210 ,0.91540 ,2.84825 ,27.94699 
133 ,27.3289 ,0.91750 ,2.82087 ,27.67836 
134 ,27.5208 ,0.91957 ,2.83114 ,27.77910 
135 ,27.7450 ,0.92160 ,2.80718 ,27.54405 
136 ,27.9694 ,0.92377 ,2.79349 ,27.40974 
137 ,28.1936 ,0.92601 ,2.76611 ,27.14111 
138 ,28.4018 ,0.92819 ,2.73189 ,26.80533 
139 ,28.5933 ,0.93020 ,2.72505 ,26.73817 
140 ,28.7857 ,0.93217 ,2.70452 ,26.53670 
141 ,28.9938 ,0.93410 ,2.70794 ,26.57028 
142 ,29.1860 ,0.93607 ,2.68398 ,26.33523 
143 ,29.3781 ,0.93801 ,2.67372 ,26.23450 
144 ,29.5862 ,0.94004 ,2.63949 ,25.89871 
145 ,29.7941 ,0.94205 ,2.64292 ,25.93229 
146 ,29.9863 ,0.94406 ,2.60869 ,25.59651 
147 ,30.2103 ,0.94625 ,2.60527 ,25.56293 
148 ,30.4184 ,0.94833 ,2.58132 ,25.32788 
149 ,30.5946 ,0.95028 ,2.57447 ,25.26073 
150 ,30.7862 ,0.95208 ,2.55394 ,25.05926 
151 ,30.9948 ,0.95415 ,2.55052 ,25.02568 
152 ,31.1867 ,0.95617 ,2.51287 ,24.65632 
153 ,31.3948 ,0.95812 ,2.51630 ,24.68989 
154 ,31.6031 ,0.96024 ,2.48550 ,24.38769 
155 ,31.8109 ,0.96229 ,2.48892 ,24.42127 
156 ,32.0031 ,0.96433 ,2.45470 ,24.08549 
157 ,32.1951 ,0.96614 ,2.45470 ,24.08549 
158 ,32.3871 ,0.96806 ,2.43074 ,23.85044 
159 ,32.6112 ,0.97028 ,2.42732 ,23.81686 
160 ,32.8194 ,0.97241 ,2.39310 ,23.48108 
161 ,33.0271 ,0.97441 ,2.37256 ,23.27961 
162 ,33.2517 ,0.97658 ,2.36572 ,23.21245 
163 ,33.4757 ,0.97888 ,2.35203 ,23.07814 
164 ,33.6678 ,0.98086 ,2.33150 ,22.87667 
165 ,33.8920 ,0.98309 ,2.32123 ,22.77593 
166 ,34.0997 ,0.98525 ,2.30412 ,22.60804 
167 ,34.3076 ,0.98726 ,2.29043 ,22.47373 
168 ,34.5002 ,0.98918 ,2.25621 ,22.13794 
169 ,34.7243 ,0.99137 ,2.23226 ,21.90290 
170 ,34.9321 ,0.99347 ,2.23910 ,21.97005 
171 ,35.1405 ,0.99555 ,2.20488 ,21.63427 
172 ,35.3322 ,0.99764 ,2.19461 ,21.53353 
173 ,35.5245 ,0.99943 ,2.17408 ,21.33206 
174 ,35.7484 ,1.00157 ,2.17408 ,21.33206 
175 ,35.9409 ,1.00356 ,2.15355 ,21.13059 
176 ,36.1488 ,1.00567 ,2.13301 ,20.92912 
177 ,36.3404 ,1.00765 ,2.10906 ,20.69408 
178 ,36.5490 ,1.00962 ,2.10906 ,20.69408 
179 ,36.7570 ,1.01176 ,2.08852 ,20.49261 
180 ,36.9492 ,1.01364 ,2.06799 ,20.29114 
181 ,37.1733 ,1.01577 ,2.06115 ,20.22398 
182 ,37.3969 ,1.01807 ,2.04061 ,20.02251 
183 ,37.6053 ,1.02016 ,2.03719 ,19.98893 
184 ,37.8135 ,1.02232 ,2.02008 ,19.82104 
185 ,38.0054 ,1.02422 ,1.98586 ,19.48526 
186 ,38.2137 ,1.02634 ,1.97902 ,19.41810 
187 ,38.4216 ,1.02835 ,1.95848 ,19.21663 
188 ,38.6297 ,1.03049 ,1.94479 ,19.08232 
189 ,38.8540 ,1.03269 ,1.94479 ,19.08232 
190 ,39.0779 ,1.03488 ,1.91399 ,18.78011 
191 ,39.2702 ,1.03689 ,1.90031 ,18.64580 
192 ,39.4780 ,1.03887 ,1.89346 ,18.57864 
193 ,39.6699 ,1.04091 ,1.87635 ,18.41075 
194 ,39.8623 ,1.04287 ,1.85240 ,18.17570 
195 ,40.0544 ,1.04470 ,1.85582 ,18.20928 
196 ,40.2465 ,1.04663 ,1.82160 ,17.87350 
197 ,40.4546 ,1.04868 ,1.82502 ,17.90708 
198 ,40.6627 ,1.05075 ,1.78053 ,17.47056 
199 ,40.8545 ,1.05269 ,1.80106 ,17.67203 
200 ,41.0629 ,1.05479 ,1.75315 ,17.20193 
201 ,41.2711 ,1.05692 ,1.75657 ,17.23551 
202 ,41.4792 ,1.05890 ,1.72920 ,16.96689 
203 ,41.7032 ,1.06113 ,1.71551 ,16.83257 
204 ,41.9111 ,1.06335 ,1.70524 ,16.73184 
205 ,42.1030 ,1.06518 ,1.68129 ,16.49679 
206 ,42.3272 ,1.06737 ,1.67102 ,16.39605 
207 ,42.5355 ,1.06944 ,1.66075 ,16.29532 
208 ,42.7435 ,1.07152 ,1.65049 ,16.19458 
209 ,42.9352 ,1.07356 ,1.64364 ,16.12743 
210 ,43.1437 ,1.07557 ,1.61969 ,15.89238 
211 ,43.3518 ,1.07761 ,1.61627 ,15.85880 
212 ,43.5598 ,1.07974 ,1.58889 ,15.59018 
213 ,43.7995 ,1.08199 ,1.56493 ,15.35513 
214 ,43.9920 ,1.08406 ,1.55809 ,15.28797 
215 ,44.1999 ,1.08611 ,1.53756 ,15.08650 
216 ,44.4082 ,1.08820 ,1.52045 ,14.91861 
217 ,44.6163 ,1.09031 ,1.51702 ,14.88503 
218 ,44.8243 ,1.09235 ,1.49649 ,14.68356 
219 ,45.0325 ,1.09446 ,1.49307 ,14.64998 
220 ,45.2245 ,1.09645 ,1.46911 ,14.41493 
221 ,45.4167 ,1.09831 ,1.45885 ,14.31420 
222 ,45.6408 ,1.10047 ,1.43831 ,14.11273 
223 ,45.8488 ,1.10255 ,1.42805 ,14.01199 
224 ,46.0569 ,1.10464 ,1.42120 ,13.94484 
225 ,46.2486 ,1.10666 ,1.38698 ,13.60906 
226 ,46.4569 ,1.10868 ,1.39040 ,13.64263 
227 ,46.6811 ,1.11088 ,1.36303 ,13.37401 
228 ,46.8733 ,1.11290 ,1.36645 ,13.40759 
229 ,47.0813 ,1.11494 ,1.33565 ,13.10538 
230 ,47.2736 ,1.11682 ,1.34249 ,13.17254 
231 ,47.4976 ,1.11911 ,1.31854 ,12.93749 
232 ,47.7217 ,1.12134 ,1.29116 ,12.66886 
233 ,47.9296 ,1.12335 ,1.29116 ,12.66886 
234 ,48.1218 ,1.12538 ,1.26378 ,12.40024 
235 ,48.3140 ,1.12729 ,1.26378 ,12.40024 
236 ,48.5220 ,1.12931 ,1.25352 ,12.29950 
237 ,48.7141 ,1.13131 ,1.24325 ,12.19877 
238 ,48.9219 ,1.13334 ,1.21587 ,11.93014 
239 ,49.1300 ,1.13539 ,1.20903 ,11.86298 
240 ,49.3543 ,1.13751 ,1.18850 ,11.66151 
241 ,49.5620 ,1.13971 ,1.16454 ,11.42647 
242 ,49.7546 ,1.14166 ,1.16454 ,11.42647 
243 ,49.9621 ,1.14370 ,1.14401 ,11.22500 
244 ,50.1703 ,1.14586 ,1.13032 ,11.09068 
245 ,50.3787 ,1.14796 ,1.12005 ,10.98995 
246 ,50.5869 ,1.15000 ,1.09610 ,10.75490 
247 ,50.7946 ,1.15207 ,1.10294 ,10.82206 
248 ,50.9867 ,1.15399 ,1.06872 ,10.48627 
249 ,51.1947 ,1.15610 ,1.08241 ,10.62059 
250 ,51.3869 ,1.15797 ,1.04819 ,10.28480 
251 ,51.5952 ,1.16010 ,1.03792 ,10.18407 
252 ,51.8029 ,1.16212 ,1.02423 ,10.04976 
253 ,51.9954 ,1.16411 ,1.02765 ,10.08333 
254 ,52.2034 ,1.16612 ,1.00028 ,9.81471 
255 ,52.3955 ,1.16807 ,1.00370 ,9.84829 
256 ,52.6031 ,1.17011 ,0.97974 ,9.61324 
257 ,52.8114 ,1.17225 ,0.95579 ,9.37819 
258 ,53.0513 ,1.17460 ,0.95237 ,9.34461 
259 ,53.2435 ,1.17664 ,0.93183 ,9.14314 
260 ,53.4516 ,1.17859 ,0.91472 ,8.97525 
261 ,53.6922 ,1.18090 ,0.92157 ,9.04241 
262 ,53.9163 ,1.18329 ,0.91130 ,8.94167 
263 ,54.1404 ,1.18540 ,0.88050 ,8.63947 
264 ,54.3645 ,1.18769 ,0.86681 ,8.50515 
265 ,54.5726 ,1.18986 ,0.84628 ,8.30368 
266 ,54.7807 ,1.19187 ,0.84970 ,8.33726 
267 ,54.9885 ,1.19396 ,0.83259 ,8.16937 
268 ,55.1966 ,1.19616 ,0.82232 ,8.06864 
269 ,55.4046 ,1.19815 ,0.79837 ,7.83359 
270 ,55.6130 ,1.20018 ,0.78126 ,7.66570 
271 ,55.8211 ,1.20227 ,0.78126 ,7.66570 
272 ,56.0291 ,1.20433 ,0.76072 ,7.46423 
273 ,56.2529 ,1.20661 ,0.75046 ,7.36349 
274 ,56.4453 ,1.20858 ,0.73335 ,7.19560 
275 ,56.6532 ,1.21062 ,0.72308 ,7.09486 
276 ,56.8455 ,1.21257 ,0.70939 ,6.96055 
277 ,57.0536 ,1.21460 ,0.70939 ,6.96055 
278 ,57.2772 ,1.21681 ,0.69570 ,6.82624 
279 ,57.4698 ,1.21879 ,0.66148 ,6.49046 
280 ,57.6936 ,1.22101 ,0.66490 ,6.52403 
281 ,57.8859 ,1.22301 ,0.66490 ,6.52403 
282 ,58.0938 ,1.22503 ,0.64095 ,6.28899 
283 ,58.3019 ,1.22706 ,0.63410 ,6.22183 
284 ,58.5100 ,1.22926 ,0.61699 ,6.05394 
285 ,58.7342 ,1.23139 ,0.59988 ,5.88605 
286 ,58.9419 ,1.23346 ,0.59304 ,5.81889 
287 ,59.1504 ,1.23557 ,0.57251 ,5.61742 
288 ,59.3584 ,1.23767 ,0.57593 ,5.65100 
289 ,59.5827 ,1.23988 ,0.55882 ,5.48311 
290 ,59.7906 ,1.24203 ,0.52802 ,5.18090 
291 ,59.9829 ,1.24389 ,0.54171 ,5.31522 
292 ,60.1908 ,1.24604 ,0.51091 ,5.01301 
293 ,60.4309 ,1.24834 ,0.50064 ,4.91228 
294 ,60.6389 ,1.25048 ,0.50748 ,4.97943 
295 ,60.8307 ,1.25239 ,0.47668 ,4.67723 
296 ,61.0232 ,1.25431 ,0.47326 ,4.64365 
297 ,61.2313 ,1.25635 ,0.43904 ,4.30787 
298 ,61.4553 ,1.25859 ,0.44588 ,4.37502 
299 ,61.6470 ,1.26055 ,0.42535 ,4.17355 
300 ,61.8551 ,1.26261 ,0.43562 ,4.27429 
301 ,62.0473 ,1.26459 ,0.41509 ,4.07282 
302 ,62.2557 ,1.26660 ,0.40482 ,3.97208 
303 ,62.4639 ,1.26866 ,0.38771 ,3.80419 
304 ,62.6558 ,1.27076 ,0.36718 ,3.60272 
305 ,62.8477 ,1.27256 ,0.36375 ,3.56914 
306 ,63.0401 ,1.27452 ,0.36718 ,3.60272 
307 ,63.2480 ,1.27648 ,0.34322 ,3.36767 
308 ,63.4561 ,1.27858 ,0.33980 ,3.33410 
309 ,63.6482 ,1.28054 ,0.31584 ,3.09905 
310 ,63.8560 ,1.28262 ,0.31926 ,3.13263 
311 ,64.0646 ,1.28468 ,0.30215 ,2.96473 
312 ,64.2883 ,1.28689 ,0.28162 ,2.76326 
313 ,64.4963 ,1.28902 ,0.28504 ,2.79684 
314 ,64.7049 ,1.29110 ,0.27478 ,2.69611 
315 ,64.8964 ,1.29309 ,0.24740 ,2.42748 
316 ,65.1210 ,1.29513 ,0.25082 ,2.46106 
317 ,65.3451 ,1.29744 ,0.22687 ,2.22601 
318 ,65.5532 ,1.29954 ,0.20976 ,2.05812 
319 ,65.7612 ,1.30168 ,0.22002 ,2.15885 
320 ,65.9693 ,1.30368 ,0.18238 ,1.78949 
321 ,66.1931 ,1.30598 ,0.18922 ,1.85665 
322 ,66.4012 ,1.30807 ,0.18238 ,1.78949 
323 ,66.6096 ,1.31014 ,0.15158 ,1.48729 
324 ,66.8174 ,1.31225 ,0.14816 ,1.45371 
325 ,67.0258 ,1.31431 ,0.14131 ,1.38655 
326 ,67.2338 ,1.31632 ,0.12420 ,1.21866 
327 ,67.4260 ,1.31832 ,0.12078 ,1.18508 
328 ,67.6500 ,1.32046 ,0.08656 ,0.84930 
329 ,67.8578 ,1.32257 ,0.10025 ,0.98361 
330 ,68.0822 ,1.32471 ,0.07287 ,0.71499 
331 ,68.2901 ,1.32694 ,0.04891 ,0.47994 
332 ,68.4824 ,1.32887 ,0.07287 ,0.71499 
333 ,68.7222 ,1.33110 ,0.03865 ,0.37920 
334 ,68.9141 ,1.33323 ,0.03522 ,0.34563 
335 ,69.1067 ,1.33511 ,0.02154 ,0.21131 
336 ,69.3144 ,1.33718 ,0.02154 ,0.21131 
337 ,69.5228 ,1.33926 ,0.00443 ,0.04342 
338 ,69.7469 ,1.34143 ,-0.01269 ,-0.12447 
339 ,69.9550 ,1.34365 ,-0.03322 ,-0.32594 
340 ,70.1631 ,1.34566 ,-0.04006 ,-0.39310 
341 ,70.3711 ,1.34780 ,-0.04691 ,-0.46025 
342 ,70.5793 ,1.34984 ,-0.04006 ,-0.39310 
343 ,70.7872 ,1.35188 ,-0.05717 ,-0.56099 
344 ,70.9795 ,1.35384 ,-0.05717 ,-0.56099 
345 ,71.1714 ,1.35579 ,-0.08113 ,-0.79604 
346 ,71.3636 ,1.35770 ,-0.07428 ,-0.72888 
347 ,71.5873 ,1.35986 ,-0.11535 ,-1.13182 
348 ,71.7798 ,1.36181 ,-0.09140 ,-0.89677 
349 ,72.0035 ,1.36411 ,-0.12219 ,-1.19898 
350 ,72.2120 ,1.36609 ,-0.14615 ,-1.43402 
351 ,72.4201 ,1.36816 ,-0.13931 ,-1.36687 
352 ,72.6116 ,1.37020 ,-0.17011 ,-1.66907 
353 ,72.8204 ,1.37219 ,-0.15984 ,-1.56834 
354 ,73.0282 ,1.37433 ,-0.18037 ,-1.76981 
355 ,73.2364 ,1.37634 ,-0.18037 ,-1.76981 
356 ,73.4445 ,1.37843 ,-0.19064 ,-1.87054 
357 ,73.6525 ,1.38063 ,-0.21117 ,-2.07201 
358 ,73.8606 ,1.38261 ,-0.21459 ,-2.10559 
359 ,74.0686 ,1.38468 ,-0.23855 ,-2.34064 
360 ,74.2767 ,1.38678 ,-0.23513 ,-2.30706 
361 ,74.4689 ,1.38873 ,-0.25566 ,-2.50853 
362 ,74.6928 ,1.39079 ,-0.24881 ,-2.44137 
363 ,74.9010 ,1.39300 ,-0.26250 ,-2.57569 
364 ,75.0929 ,1.39494 ,-0.29330 ,-2.87789 
365 ,75.3012 ,1.39701 ,-0.28304 ,-2.77716 
366 ,75.5092 ,1.39909 ,-0.31726 ,-3.11294 
367 ,75.7009 ,1.40113 ,-0.29673 ,-2.91147 
368 ,75.9089 ,1.40313 ,-0.33437 ,-3.28083 
369 ,76.1332 ,1.40536 ,-0.34121 ,-3.34799 
370 ,76.3734 ,1.40769 ,-0.33437 ,-3.28083 
371 ,76.5818 ,1.40986 ,-0.35148 ,-3.44872 
372 ,76.7898 ,1.41186 ,-0.37544 ,-3.68377 
373 ,76.9976 ,1.41390 ,-0.35832 ,-3.51588 
374 ,77.2220 ,1.41615 ,-0.39255 ,-3.85166 
375 ,77.4456 ,1.41846 ,-0.39939 ,-3.91882 
376 ,77.6380 ,1.42042 ,-0.39597 ,-3.88524 
377 ,77.8781 ,1.42265 ,-0.41650 ,-4.08671 
378 ,78.0704 ,1.42469 ,-0.43361 ,-4.25460 
379 ,78.2624 ,1.42670 ,-0.41992 ,-4.12029 
380 ,78.4545 ,1.42857 ,-0.44046 ,-4.32176 
381 ,78.6464 ,1.43052 ,-0.46099 ,-4.52323 
382 ,78.8546 ,1.43260 ,-0.46783 ,-4.59038 
383 ,79.0627 ,1.43466 ,-0.46099 ,-4.52323 
384 ,79.2703 ,1.43676 ,-0.49521 ,-4.85901 
385 ,79.4790 ,1.43878 ,-0.47810 ,-4.69112 
386 ,79.7028 ,1.44098 ,-0.50890 ,-4.99332 
387 ,79.9111 ,1.44310 ,-0.52259 ,-5.12764 
388 ,80.1347 ,1.44537 ,-0.51917 ,-5.09406 
389 ,80.3268 ,1.44728 ,-0.53628 ,-5.26195 
390 ,80.5350 ,1.44931 ,-0.53970 ,-5.29553 
391 ,80.7434 ,1.45141 ,-0.55339 ,-5.42984 
392 ,80.9515 ,1.45358 ,-0.57050 ,-5.59773 
393 ,81.1596 ,1.45553 ,-0.56023 ,-5.49700 
394 ,81.3676 ,1.45766 ,-0.58419 ,-5.73205 
395 ,81.5757 ,1.45974 ,-0.58761 ,-5.76562 
396 ,81.7839 ,1.46183 ,-0.58761 ,-5.76562 
397 ,81.9919 ,1.46388 ,-0.61499 ,-6.03425 
398 ,82.2000 ,1.46594 ,-0.60472 ,-5.93352 
399 ,82.4079 ,1.46802 ,-0.63552 ,-6.23572 
400 ,82.6162 ,1.47021 ,-0.63210 ,-6.20214 
401 ,82.8079 ,1.47209 ,-0.64921 ,-6.37003 
402 ,83.0003 ,1.47398 ,-0.66290 ,-6.50435 
403 ,83.1922 ,1.47595 ,-0.67316 ,-6.60508 
404 ,83.3848 ,1.47786 ,-0.66632 ,-6.53793 
405 ,83.5926 ,1.47991 ,-0.68685 ,-6.73940 
406 ,83.8328 ,1.48222 ,-0.68685 ,-6.73940 
407 ,84.0564 ,1.48448 ,-0.68343 ,-6.70582 
408 ,84.2490 ,1.48647 ,-0.72792 ,-7.14233 
409 ,84.4730 ,1.48869 ,-0.72450 ,-7.10876 
410 ,84.6650 ,1.49063 ,-0.73134 ,-7.17591 
411 ,84.8733 ,1.49274 ,-0.73476 ,-7.20949 
412 ,85.0813 ,1.49480 ,-0.73818 ,-7.24307 
413 ,85.2892 ,1.49682 ,-0.76898 ,-7.54527 
414 ,85.4973 ,1.49889 ,-0.75187 ,-7.37738 
415 ,85.7213 ,1.50121 ,-0.77925 ,-7.64601 
416 ,85.9133 ,1.50316 ,-0.79294 ,-7.78032 
417 ,86.1056 ,1.50504 ,-0.80321 ,-7.88106 
418 ,86.2976 ,1.50697 ,-0.79294 ,-7.78032 
419 ,86.5059 ,1.50904 ,-0.81005 ,-7.94821 
420 ,86.7139 ,1.51109 ,-0.81689 ,-8.01537 
421 ,86.9217 ,1.51315 ,-0.82716 ,-8.11611 
422 ,87.1301 ,1.51523 ,-0.84769 ,-8.31758 
423 ,87.3542 ,1.51743 ,-0.84085 ,-8.25042 
424 ,87.5623 ,1.51957 ,-0.84085 ,-8.25042 
425 ,87.7703 ,1.52172 ,-0.87849 ,-8.61978 
426 ,87.9785 ,1.52370 ,-0.85796 ,-8.41831 
427 ,88.1862 ,1.52578 ,-0.88876 ,-8.72051 
428 ,88.3947 ,1.52785 ,-0.88192 ,-8.65336 
429 ,88.6025 ,1.52998 ,-0.89560 ,-8.78767 
430 ,88.8429 ,1.53226 ,-0.91956 ,-9.02272 
431 ,89.0509 ,1.53447 ,-0.92983 ,-9.12345 
432 ,89.2750 ,1.53669 ,-0.91614 ,-8.98914 
433 ,89.4830 ,1.53884 ,-0.92640 ,-9.08988 
434 ,89.6911 ,1.54091 ,-0.95720 ,-9.39208 
435 ,89.8992 ,1.54295 ,-0.94694 ,-9.29135 
436 ,90.1073 ,1.54505 ,-0.97089 ,-9.52639 
437 ,90.3149 ,1.54711 ,-0.96063 ,-9.42566 
438 ,90.5073 ,1.54905 ,-0.99827 ,-9.79502 
439 ,90.7156 ,1.55113 ,-0.97431 ,-9.55997 
440 ,90.9237 ,1.55324 ,-0.99827 ,-9.79502 
441 ,91.1315 ,1.55521 ,-1.00511 ,-9.86218 
442 ,91.3235 ,1.55728 ,-1.00169 ,-9.82860 
443 ,91.5319 ,1.55928 ,-1.01880 ,-9.99649 
444 ,91.7560 ,1.56145 ,-1.02565 ,-10.06365 
445 ,91.9641 ,1.56353 ,-1.03934 ,-10.19796 
446 ,92.1723 ,1.56565 ,-1.06329 ,-10.43301 
447 ,92.3963 ,1.56788 ,-1.04276 ,-10.23154 
448 ,92.6362 ,1.57020 ,-1.05302 ,-10.33227 
449 ,92.8284 ,1.57235 ,-1.06671 ,-10.46659 
450 ,93.0524 ,1.57431 ,-1.06671 ,-10.46659 
451 ,93.2767 ,1.57665 ,-1.08725 ,-10.66806 
452 ,93.4850 ,1.57874 ,-1.09751 ,-10.76879 
453 ,93.6929 ,1.58088 ,-1.10093 ,-10.80237 
454 ,93.9490 ,1.58339 ,-1.12147 ,-11.00384 
455 ,94.1568 ,1.58551 ,-1.10436 ,-10.83595 
456 ,94.3646 ,1.58758 ,-1.14200 ,-11.20531 
457 ,94.5572 ,1.58957 ,-1.12831 ,-11.07100 
458 ,94.7813 ,1.59174 ,-1.15227 ,-11.30604 
459 ,94.9893 ,1.59382 ,-1.16253 ,-11.40678 
460 ,95.1974 ,1.59588 ,-1.15227 ,-11.30604 
461 ,95.4055 ,1.59789 ,-1.17964 ,-11.57467 
