Data stamp = , 05-05-2022 10:30:05 911

Calibration Values: 
Slope = , 26.54 , g/V 
Offset Voltage at no contact = , -0.501760 , V 

No , Time , Stage Position ,   Mass , Force 
   ,  (s) ,      (mm)      ,   (g)  , (mN)  

1 ,0.0000 ,0.64957 ,5.21639 ,51.18317 
2 ,0.2085 ,0.64966 ,5.18559 ,50.88097 
3 ,0.5767 ,0.65068 ,5.19927 ,51.01528 
4 ,0.8328 ,0.65264 ,5.21981 ,51.21675 
5 ,1.0572 ,0.65484 ,5.21981 ,51.21675 
6 ,1.2812 ,0.65705 ,5.20954 ,51.11602 
7 ,1.4894 ,0.65915 ,5.18901 ,50.91455 
8 ,1.7131 ,0.66135 ,5.18559 ,50.88097 
9 ,1.9215 ,0.66354 ,5.16163 ,50.64592 
10 ,2.1456 ,0.66572 ,5.13425 ,50.37729 
11 ,2.3536 ,0.66782 ,5.11372 ,50.17583 
12 ,2.5456 ,0.66975 ,5.09661 ,50.00793 
13 ,2.7538 ,0.67182 ,5.07608 ,49.80646 
14 ,2.9940 ,0.67421 ,5.05897 ,49.63857 
15 ,3.2179 ,0.67645 ,5.04185 ,49.47068 
16 ,3.4101 ,0.67845 ,5.00421 ,49.10132 
17 ,3.6022 ,0.68031 ,4.99394 ,49.00058 
18 ,3.8100 ,0.68238 ,4.95972 ,48.66480 
19 ,4.0019 ,0.68429 ,4.95288 ,48.59764 
20 ,4.1944 ,0.68620 ,4.91181 ,48.19471 
21 ,4.4184 ,0.68846 ,4.91866 ,48.26186 
22 ,4.6425 ,0.69058 ,4.89470 ,48.02681 
23 ,4.8505 ,0.69283 ,4.86732 ,47.75819 
24 ,5.0423 ,0.69471 ,4.86048 ,47.69103 
25 ,5.2508 ,0.69681 ,4.81599 ,47.25451 
26 ,5.4750 ,0.69900 ,4.80230 ,47.12020 
27 ,5.6825 ,0.70108 ,4.78519 ,46.95231 
28 ,5.8909 ,0.70315 ,4.75782 ,46.68368 
29 ,6.1153 ,0.70540 ,4.74070 ,46.51579 
30 ,6.3394 ,0.70756 ,4.72017 ,46.31432 
31 ,6.5635 ,0.70989 ,4.70306 ,46.14643 
32 ,6.7556 ,0.71183 ,4.68253 ,45.94496 
33 ,6.9637 ,0.71385 ,4.65857 ,45.70991 
34 ,7.1877 ,0.71611 ,4.63119 ,45.44128 
35 ,7.4114 ,0.71840 ,4.60724 ,45.20624 
36 ,7.6360 ,0.72048 ,4.60724 ,45.20624 
37 ,7.8439 ,0.72267 ,4.56960 ,44.83688 
38 ,8.0359 ,0.72464 ,4.54906 ,44.63541 
39 ,8.2281 ,0.72659 ,4.52853 ,44.43394 
40 ,8.4361 ,0.72860 ,4.52511 ,44.40036 
41 ,8.6281 ,0.73056 ,4.49089 ,44.06457 
42 ,8.8205 ,0.73248 ,4.48404 ,43.99742 
43 ,9.0125 ,0.73445 ,4.44640 ,43.62806 
44 ,9.2208 ,0.73650 ,4.45666 ,43.72879 
45 ,9.4284 ,0.73865 ,4.41560 ,43.32585 
46 ,9.6367 ,0.74064 ,4.39849 ,43.15796 
47 ,9.8447 ,0.74274 ,4.40875 ,43.25870 
48 ,10.0528 ,0.74485 ,4.35400 ,42.72144 
49 ,10.2608 ,0.74688 ,4.35058 ,42.68786 
50 ,10.4850 ,0.74910 ,4.32662 ,42.45282 
51 ,10.6929 ,0.75131 ,4.31293 ,42.31850 
52 ,10.9012 ,0.75329 ,4.29240 ,42.11703 
53 ,11.1253 ,0.75538 ,4.26160 ,41.81483 
54 ,11.3333 ,0.75755 ,4.23765 ,41.57978 
55 ,11.5255 ,0.75952 ,4.23080 ,41.51262 
56 ,11.7171 ,0.76144 ,4.19658 ,41.17684 
57 ,11.9097 ,0.76338 ,4.18974 ,41.10968 
58 ,12.1337 ,0.76552 ,4.15894 ,40.80748 
59 ,12.3258 ,0.76755 ,4.14867 ,40.70674 
60 ,12.5339 ,0.76960 ,4.11787 ,40.40454 
61 ,12.7576 ,0.77182 ,4.13156 ,40.53885 
62 ,12.9661 ,0.77392 ,4.08023 ,40.03518 
63 ,13.1902 ,0.77618 ,4.05969 ,39.83371 
64 ,13.3978 ,0.77825 ,4.03574 ,39.59866 
65 ,13.6064 ,0.78027 ,4.03232 ,39.56508 
66 ,13.8145 ,0.78237 ,4.00836 ,39.33003 
67 ,14.0222 ,0.78440 ,3.99809 ,39.22930 
68 ,14.2306 ,0.78656 ,3.96387 ,38.89352 
69 ,14.4387 ,0.78858 ,3.95361 ,38.79278 
70 ,14.6467 ,0.79072 ,3.94676 ,38.72562 
71 ,14.8384 ,0.79265 ,3.90570 ,38.32268 
72 ,15.0307 ,0.79457 ,3.89543 ,38.22195 
73 ,15.2229 ,0.79648 ,3.89201 ,38.18837 
74 ,15.4472 ,0.79861 ,3.85436 ,37.81901 
75 ,15.6872 ,0.80099 ,3.82699 ,37.55038 
76 ,15.9113 ,0.80332 ,3.80303 ,37.31534 
77 ,16.1028 ,0.80534 ,3.79619 ,37.24818 
78 ,16.2950 ,0.80730 ,3.77223 ,37.01313 
79 ,16.4869 ,0.80924 ,3.76881 ,36.97955 
80 ,16.6956 ,0.81117 ,3.72774 ,36.57661 
81 ,16.9197 ,0.81345 ,3.71405 ,36.44230 
82 ,17.1116 ,0.81539 ,3.70379 ,36.34157 
83 ,17.3197 ,0.81743 ,3.70037 ,36.30799 
84 ,17.5279 ,0.81954 ,3.67299 ,36.03936 
85 ,17.7200 ,0.82142 ,3.64219 ,35.73716 
86 ,17.9122 ,0.82339 ,3.62508 ,35.56926 
87 ,18.1204 ,0.82543 ,3.60112 ,35.33422 
88 ,18.3443 ,0.82766 ,3.59428 ,35.26706 
89 ,18.5524 ,0.82982 ,3.56348 ,34.96485 
90 ,18.7763 ,0.83197 ,3.54295 ,34.76338 
91 ,18.9684 ,0.83393 ,3.52926 ,34.62907 
92 ,19.1605 ,0.83585 ,3.50188 ,34.36045 
93 ,19.3683 ,0.83791 ,3.49846 ,34.32687 
94 ,19.5766 ,0.84003 ,3.47450 ,34.09182 
95 ,19.7848 ,0.84210 ,3.45739 ,33.92393 
96 ,19.9930 ,0.84413 ,3.43344 ,33.68888 
97 ,20.2009 ,0.84624 ,3.42659 ,33.62172 
98 ,20.4087 ,0.84830 ,3.39579 ,33.31952 
99 ,20.6009 ,0.85025 ,3.38895 ,33.25236 
100 ,20.8092 ,0.85236 ,3.37868 ,33.15163 
101 ,21.0173 ,0.85435 ,3.34788 ,32.84942 
102 ,21.2095 ,0.85633 ,3.34104 ,32.78227 
103 ,21.4175 ,0.85838 ,3.30682 ,32.44648 
104 ,21.6252 ,0.86047 ,3.31024 ,32.48006 
105 ,21.8177 ,0.86241 ,3.27259 ,32.11070 
106 ,22.0258 ,0.86448 ,3.27602 ,32.14428 
107 ,22.2338 ,0.86656 ,3.23495 ,31.74134 
108 ,22.4257 ,0.86850 ,3.23837 ,31.77492 
109 ,22.6338 ,0.87055 ,3.19731 ,31.37198 
110 ,22.8420 ,0.87260 ,3.18704 ,31.27124 
111 ,23.0661 ,0.87485 ,3.18020 ,31.20409 
112 ,23.2583 ,0.87685 ,3.14255 ,30.83472 
113 ,23.4664 ,0.87885 ,3.14255 ,30.83472 
114 ,23.6903 ,0.88106 ,3.12202 ,30.63325 
115 ,23.8664 ,0.88303 ,3.09122 ,30.33105 
116 ,24.0582 ,0.88479 ,3.06726 ,30.09600 
117 ,24.2507 ,0.88672 ,3.06042 ,30.02884 
118 ,24.4588 ,0.88879 ,3.03989 ,29.82737 
119 ,24.6668 ,0.89084 ,3.04673 ,29.89453 
120 ,24.8587 ,0.89287 ,3.00909 ,29.52517 
121 ,25.0671 ,0.89494 ,3.01251 ,29.55875 
122 ,25.2911 ,0.89707 ,2.97829 ,29.22297 
123 ,25.4830 ,0.89906 ,2.95776 ,29.02150 
124 ,25.7072 ,0.90127 ,2.95091 ,28.95434 
125 ,25.9155 ,0.90342 ,2.93380 ,28.78645 
126 ,26.1233 ,0.90539 ,2.91327 ,28.58498 
127 ,26.3635 ,0.90788 ,2.89958 ,28.45066 
128 ,26.5876 ,0.91007 ,2.87905 ,28.24919 
129 ,26.7797 ,0.91202 ,2.84482 ,27.91341 
130 ,26.9717 ,0.91392 ,2.84482 ,27.91341 
131 ,27.1638 ,0.91588 ,2.82087 ,27.67836 
132 ,27.3560 ,0.91775 ,2.80376 ,27.51047 
133 ,27.5640 ,0.91982 ,2.77980 ,27.27542 
134 ,27.7561 ,0.92177 ,2.77296 ,27.20827 
135 ,27.9483 ,0.92368 ,2.76954 ,27.17469 
136 ,28.1719 ,0.92584 ,2.74900 ,26.97322 
137 ,28.3964 ,0.92807 ,2.70794 ,26.57028 
138 ,28.6046 ,0.93020 ,2.70452 ,26.53670 
139 ,28.8126 ,0.93225 ,2.69767 ,26.46954 
140 ,29.0206 ,0.93442 ,2.67029 ,26.20092 
141 ,29.2125 ,0.93635 ,2.66345 ,26.13376 
142 ,29.4048 ,0.93826 ,2.64292 ,25.93229 
143 ,29.6125 ,0.94034 ,2.63607 ,25.86514 
144 ,29.8051 ,0.94224 ,2.61212 ,25.63009 
145 ,30.0132 ,0.94435 ,2.59501 ,25.46220 
146 ,30.2050 ,0.94623 ,2.57789 ,25.29430 
147 ,30.4130 ,0.94829 ,2.57447 ,25.26073 
148 ,30.6214 ,0.95046 ,2.54710 ,24.99210 
149 ,30.8294 ,0.95248 ,2.52998 ,24.82421 
150 ,31.0215 ,0.95441 ,2.50603 ,24.58916 
151 ,31.2132 ,0.95635 ,2.49918 ,24.52200 
152 ,31.4057 ,0.95823 ,2.47181 ,24.25338 
153 ,31.6138 ,0.96030 ,2.46154 ,24.15264 
154 ,31.8059 ,0.96223 ,2.44101 ,23.95117 
155 ,32.0139 ,0.96430 ,2.43074 ,23.85044 
156 ,32.2219 ,0.96640 ,2.41021 ,23.64897 
157 ,32.4142 ,0.96833 ,2.40336 ,23.58181 
158 ,32.6219 ,0.97035 ,2.37256 ,23.27961 
159 ,32.8301 ,0.97255 ,2.36572 ,23.21245 
160 ,33.0384 ,0.97457 ,2.33150 ,22.87667 
161 ,33.2465 ,0.97666 ,2.32465 ,22.80951 
162 ,33.4544 ,0.97872 ,2.31097 ,22.67520 
163 ,33.6626 ,0.98076 ,2.28017 ,22.37299 
164 ,33.8707 ,0.98282 ,2.28701 ,22.44015 
165 ,34.0627 ,0.98478 ,2.25621 ,22.13794 
166 ,34.2547 ,0.98677 ,2.24937 ,22.07079 
167 ,34.4628 ,0.98882 ,2.21857 ,21.76858 
168 ,34.6870 ,0.99095 ,2.22199 ,21.80216 
169 ,34.8786 ,0.99305 ,2.19461 ,21.53353 
170 ,35.0872 ,0.99502 ,2.17750 ,21.36564 
171 ,35.2951 ,0.99714 ,2.17408 ,21.33206 
172 ,35.4874 ,0.99904 ,2.13986 ,20.99628 
173 ,35.6955 ,1.00118 ,2.13986 ,20.99628 
174 ,35.9033 ,1.00318 ,2.11248 ,20.72766 
175 ,36.1275 ,1.00535 ,2.11248 ,20.72766 
176 ,36.3357 ,1.00755 ,2.09537 ,20.55976 
177 ,36.5436 ,1.00962 ,2.05773 ,20.19040 
178 ,36.7360 ,1.01156 ,2.05430 ,20.15682 
179 ,36.9600 ,1.01373 ,2.02008 ,19.82104 
180 ,37.1681 ,1.01586 ,2.02008 ,19.82104 
181 ,37.3918 ,1.01800 ,2.00639 ,19.68673 
182 ,37.6161 ,1.02032 ,1.98928 ,19.51884 
183 ,37.8240 ,1.02240 ,1.97217 ,19.35094 
184 ,38.0321 ,1.02447 ,1.96533 ,19.28379 
185 ,38.2404 ,1.02657 ,1.93111 ,18.94801 
186 ,38.4486 ,1.02870 ,1.90373 ,18.67938 
187 ,38.6566 ,1.03073 ,1.90031 ,18.64580 
188 ,38.8486 ,1.03269 ,1.88319 ,18.47791 
189 ,39.0407 ,1.03460 ,1.87635 ,18.41075 
190 ,39.2325 ,1.03658 ,1.85582 ,18.20928 
191 ,39.4408 ,1.03855 ,1.83871 ,18.04139 
192 ,39.6653 ,1.04074 ,1.83186 ,17.97423 
193 ,39.8732 ,1.04290 ,1.82502 ,17.90708 
194 ,40.0811 ,1.04492 ,1.79764 ,17.63845 
195 ,40.2733 ,1.04689 ,1.79764 ,17.63845 
196 ,40.4974 ,1.04911 ,1.77711 ,17.43698 
197 ,40.7212 ,1.05131 ,1.74973 ,17.16836 
198 ,40.9297 ,1.05342 ,1.72920 ,16.96689 
199 ,41.1376 ,1.05553 ,1.73604 ,17.03404 
200 ,41.3457 ,1.05759 ,1.70524 ,16.73184 
201 ,41.5377 ,1.05951 ,1.70524 ,16.73184 
202 ,41.7299 ,1.06147 ,1.68813 ,16.56395 
203 ,41.9538 ,1.06371 ,1.68129 ,16.49679 
204 ,42.1620 ,1.06576 ,1.64707 ,16.16101 
205 ,42.3702 ,1.06782 ,1.64707 ,16.16101 
206 ,42.5783 ,1.06988 ,1.63338 ,16.02669 
207 ,42.7864 ,1.07205 ,1.60600 ,15.75807 
208 ,43.0105 ,1.07426 ,1.59573 ,15.65733 
209 ,43.2025 ,1.07617 ,1.58889 ,15.59018 
210 ,43.4264 ,1.07839 ,1.55124 ,15.22081 
211 ,43.6184 ,1.08040 ,1.55809 ,15.28797 
212 ,43.8266 ,1.08240 ,1.53413 ,15.05292 
213 ,44.0349 ,1.08449 ,1.52045 ,14.91861 
214 ,44.2429 ,1.08654 ,1.49991 ,14.71714 
215 ,44.4667 ,1.08878 ,1.47938 ,14.51567 
216 ,44.6588 ,1.09078 ,1.48965 ,14.61640 
217 ,44.8672 ,1.09285 ,1.46569 ,14.38136 
218 ,45.0914 ,1.09503 ,1.46569 ,14.38136 
219 ,45.2835 ,1.09699 ,1.44174 ,14.14631 
220 ,45.5076 ,1.09919 ,1.41778 ,13.91126 
221 ,45.7159 ,1.10131 ,1.42120 ,13.94484 
222 ,45.9236 ,1.10330 ,1.38698 ,13.60906 
223 ,46.1316 ,1.10545 ,1.38356 ,13.57548 
224 ,46.3399 ,1.10751 ,1.36987 ,13.44116 
225 ,46.5479 ,1.10958 ,1.34591 ,13.20612 
226 ,46.7560 ,1.11169 ,1.34249 ,13.17254 
227 ,46.9799 ,1.11389 ,1.31854 ,12.93749 
228 ,47.1882 ,1.11605 ,1.30485 ,12.80318 
229 ,47.3962 ,1.11816 ,1.30143 ,12.76960 
230 ,47.6201 ,1.12028 ,1.28432 ,12.60171 
231 ,47.8125 ,1.12230 ,1.25352 ,12.29950 
232 ,48.0522 ,1.12468 ,1.25009 ,12.26592 
233 ,48.2606 ,1.12675 ,1.25694 ,12.33308 
234 ,48.4525 ,1.12866 ,1.22956 ,12.06445 
235 ,48.6607 ,1.13068 ,1.21245 ,11.89656 
236 ,48.8848 ,1.13293 ,1.17823 ,11.56078 
237 ,49.0765 ,1.13501 ,1.19192 ,11.69509 
238 ,49.2848 ,1.13692 ,1.16454 ,11.42647 
239 ,49.5092 ,1.13920 ,1.15427 ,11.32573 
240 ,49.7331 ,1.14137 ,1.13716 ,11.15784 
241 ,49.9254 ,1.14337 ,1.14058 ,11.19142 
242 ,50.1329 ,1.14545 ,1.12005 ,10.98995 
243 ,50.3414 ,1.14752 ,1.10636 ,10.85563 
244 ,50.5656 ,1.14969 ,1.08583 ,10.65416 
245 ,50.7571 ,1.15175 ,1.07556 ,10.55343 
246 ,50.9497 ,1.15363 ,1.06872 ,10.48627 
247 ,51.1577 ,1.15570 ,1.06872 ,10.48627 
248 ,51.3496 ,1.15759 ,1.03450 ,10.15049 
249 ,51.5419 ,1.15953 ,1.03792 ,10.18407 
250 ,51.7501 ,1.16161 ,1.01396 ,9.94902 
251 ,51.9580 ,1.16367 ,1.01739 ,9.98260 
252 ,52.1663 ,1.16575 ,0.99685 ,9.78113 
253 ,52.3578 ,1.16768 ,0.98659 ,9.68039 
254 ,52.5663 ,1.16976 ,0.96605 ,9.47892 
255 ,52.7905 ,1.17198 ,0.93183 ,9.14314 
256 ,52.9986 ,1.17402 ,0.94894 ,9.31103 
257 ,53.2066 ,1.17617 ,0.93183 ,9.14314 
258 ,53.3987 ,1.17807 ,0.91472 ,8.97525 
259 ,53.6229 ,1.18023 ,0.89419 ,8.77378 
260 ,53.8306 ,1.18246 ,0.88050 ,8.63947 
261 ,54.0386 ,1.18445 ,0.89419 ,8.77378 
262 ,54.2466 ,1.18655 ,0.87023 ,8.53873 
263 ,54.4387 ,1.18848 ,0.86681 ,8.50515 
264 ,54.6310 ,1.19043 ,0.83943 ,8.23653 
265 ,54.8394 ,1.19251 ,0.82575 ,8.10221 
266 ,55.0474 ,1.19455 ,0.81206 ,7.96790 
267 ,55.2554 ,1.19671 ,0.80521 ,7.90074 
268 ,55.4473 ,1.19858 ,0.78468 ,7.69927 
269 ,55.6552 ,1.20066 ,0.77784 ,7.63212 
270 ,55.8476 ,1.20263 ,0.75388 ,7.39707 
271 ,56.0399 ,1.20464 ,0.72650 ,7.12844 
272 ,56.2316 ,1.20651 ,0.72650 ,7.12844 
273 ,56.4238 ,1.20836 ,0.74019 ,7.26276 
274 ,56.6483 ,1.21050 ,0.71966 ,7.06129 
275 ,56.8722 ,1.21283 ,0.69570 ,6.82624 
276 ,57.0803 ,1.21492 ,0.69228 ,6.79266 
277 ,57.2884 ,1.21696 ,0.66833 ,6.55761 
278 ,57.5123 ,1.21919 ,0.64437 ,6.32256 
279 ,57.7206 ,1.22132 ,0.66148 ,6.49046 
280 ,57.9124 ,1.22322 ,0.61699 ,6.05394 
281 ,58.1367 ,1.22535 ,0.63753 ,6.25541 
282 ,58.3447 ,1.22755 ,0.62726 ,6.15467 
283 ,58.5526 ,1.22954 ,0.58962 ,5.78531 
284 ,58.7450 ,1.23152 ,0.60673 ,5.95320 
285 ,58.9848 ,1.23381 ,0.58277 ,5.71815 
286 ,59.1773 ,1.23592 ,0.56566 ,5.55026 
287 ,59.3852 ,1.23789 ,0.56224 ,5.51668 
288 ,59.6094 ,1.24021 ,0.53828 ,5.28164 
289 ,59.8175 ,1.24225 ,0.52802 ,5.18090 
290 ,60.0251 ,1.24432 ,0.52802 ,5.18090 
291 ,60.2178 ,1.24628 ,0.50406 ,4.94585 
292 ,60.4257 ,1.24834 ,0.52117 ,5.11375 
293 ,60.6337 ,1.25035 ,0.48695 ,4.77796 
294 ,60.8255 ,1.25233 ,0.48011 ,4.71081 
295 ,61.0180 ,1.25427 ,0.45957 ,4.50934 
296 ,61.2418 ,1.25647 ,0.45957 ,4.50934 
297 ,61.4660 ,1.25867 ,0.43562 ,4.27429 
298 ,61.6582 ,1.26068 ,0.43562 ,4.27429 
299 ,61.8661 ,1.26277 ,0.42193 ,4.13997 
300 ,62.0584 ,1.26466 ,0.40140 ,3.93850 
301 ,62.2663 ,1.26675 ,0.40824 ,4.00566 
302 ,62.4585 ,1.26867 ,0.38429 ,3.77061 
303 ,62.6665 ,1.27073 ,0.38086 ,3.73703 
304 ,62.8587 ,1.27267 ,0.36718 ,3.60272 
305 ,63.0824 ,1.27481 ,0.35691 ,3.50199 
306 ,63.2744 ,1.27680 ,0.33295 ,3.26694 
307 ,63.4829 ,1.27886 ,0.33295 ,3.26694 
308 ,63.6908 ,1.28096 ,0.31242 ,3.06547 
309 ,63.8831 ,1.28290 ,0.30900 ,3.03189 
310 ,64.1067 ,1.28513 ,0.29189 ,2.86400 
311 ,64.2989 ,1.28705 ,0.27820 ,2.72969 
312 ,64.4911 ,1.28902 ,0.26109 ,2.56179 
313 ,64.6993 ,1.29102 ,0.27135 ,2.66253 
314 ,64.8913 ,1.29307 ,0.25767 ,2.52822 
315 ,65.0835 ,1.29489 ,0.25082 ,2.46106 
316 ,65.2915 ,1.29692 ,0.22687 ,2.22601 
317 ,65.4994 ,1.29905 ,0.20633 ,2.02454 
318 ,65.6918 ,1.30096 ,0.21318 ,2.09170 
319 ,65.9159 ,1.30319 ,0.18238 ,1.78949 
320 ,66.1079 ,1.30517 ,0.19949 ,1.95738 
321 ,66.3001 ,1.30705 ,0.16527 ,1.62160 
322 ,66.5082 ,1.30915 ,0.17211 ,1.68876 
323 ,66.7162 ,1.31119 ,0.14131 ,1.38655 
324 ,66.9401 ,1.31345 ,0.14131 ,1.38655 
325 ,67.1485 ,1.31552 ,0.12762 ,1.25224 
326 ,67.3561 ,1.31759 ,0.10025 ,0.98361 
327 ,67.5641 ,1.31964 ,0.11736 ,1.15151 
328 ,67.7562 ,1.32168 ,0.08656 ,0.84930 
329 ,67.9483 ,1.32355 ,0.10025 ,0.98361 
330 ,68.1564 ,1.32560 ,0.05918 ,0.58067 
331 ,68.3650 ,1.32772 ,0.06945 ,0.68141 
332 ,68.5730 ,1.32979 ,0.06260 ,0.61425 
333 ,68.7807 ,1.33180 ,0.04549 ,0.44636 
334 ,68.9730 ,1.33381 ,0.04549 ,0.44636 
335 ,69.1653 ,1.33568 ,0.02496 ,0.24489 
336 ,69.3729 ,1.33776 ,0.00785 ,0.07700 
337 ,69.5654 ,1.33967 ,0.01127 ,0.11058 
338 ,69.7734 ,1.34171 ,-0.00926 ,-0.09089 
339 ,69.9814 ,1.34382 ,-0.02295 ,-0.22520 
340 ,70.2056 ,1.34607 ,-0.01953 ,-0.19163 
341 ,70.3977 ,1.34804 ,-0.04348 ,-0.42667 
342 ,70.6378 ,1.35034 ,-0.05375 ,-0.52741 
343 ,70.8299 ,1.35236 ,-0.04691 ,-0.46025 
344 ,71.0379 ,1.35443 ,-0.07771 ,-0.76246 
345 ,71.2461 ,1.35646 ,-0.07428 ,-0.72888 
346 ,71.4382 ,1.35854 ,-0.09140 ,-0.89677 
347 ,71.6462 ,1.36045 ,-0.09140 ,-0.89677 
348 ,71.8544 ,1.36252 ,-0.11535 ,-1.13182 
349 ,72.0621 ,1.36461 ,-0.12219 ,-1.19898 
350 ,72.2546 ,1.36658 ,-0.12562 ,-1.23255 
351 ,72.4785 ,1.36879 ,-0.14273 ,-1.40045 
352 ,72.6707 ,1.37076 ,-0.13931 ,-1.36687 
353 ,72.8787 ,1.37284 ,-0.16326 ,-1.60191 
354 ,73.0866 ,1.37484 ,-0.16326 ,-1.60191 
355 ,73.3270 ,1.37716 ,-0.16668 ,-1.63549 
356 ,73.5509 ,1.37947 ,-0.18379 ,-1.80338 
357 ,73.7431 ,1.38143 ,-0.19748 ,-1.93770 
358 ,73.9671 ,1.38370 ,-0.19406 ,-1.90412 
359 ,74.1592 ,1.38565 ,-0.22144 ,-2.17275 
360 ,74.3672 ,1.38770 ,-0.21459 ,-2.10559 
361 ,74.5594 ,1.38974 ,-0.23513 ,-2.30706 
362 ,74.7514 ,1.39150 ,-0.23855 ,-2.34064 
363 ,74.9594 ,1.39360 ,-0.27619 ,-2.71000 
364 ,75.1514 ,1.39551 ,-0.26593 ,-2.60926 
365 ,75.3433 ,1.39745 ,-0.28304 ,-2.77716 
366 ,75.5518 ,1.39950 ,-0.27961 ,-2.74358 
367 ,75.7599 ,1.40166 ,-0.31041 ,-3.04578 
368 ,75.9518 ,1.40354 ,-0.29673 ,-2.91147 
369 ,76.1600 ,1.40564 ,-0.32752 ,-3.21367 
370 ,76.3682 ,1.40766 ,-0.31726 ,-3.11294 
371 ,76.5758 ,1.40978 ,-0.33779 ,-3.31441 
372 ,76.7677 ,1.41180 ,-0.35148 ,-3.44872 
373 ,76.9598 ,1.41371 ,-0.33779 ,-3.31441 
374 ,77.1686 ,1.41569 ,-0.36175 ,-3.54946 
375 ,77.3926 ,1.41793 ,-0.36859 ,-3.61661 
376 ,77.6004 ,1.41997 ,-0.39597 ,-3.88524 
377 ,77.7927 ,1.42190 ,-0.38228 ,-3.75093 
378 ,78.0008 ,1.42399 ,-0.41650 ,-4.08671 
379 ,78.2089 ,1.42610 ,-0.40281 ,-3.95240 
380 ,78.4330 ,1.42829 ,-0.41308 ,-4.05313 
381 ,78.6407 ,1.43039 ,-0.44730 ,-4.38891 
382 ,78.8493 ,1.43244 ,-0.43703 ,-4.28818 
383 ,79.0732 ,1.43467 ,-0.45414 ,-4.45607 
384 ,79.2814 ,1.43684 ,-0.47126 ,-4.62396 
385 ,79.5054 ,1.43902 ,-0.47468 ,-4.65754 
386 ,79.7132 ,1.44109 ,-0.46783 ,-4.59038 
387 ,79.9214 ,1.44317 ,-0.50206 ,-4.92617 
388 ,80.1296 ,1.44531 ,-0.49521 ,-4.85901 
389 ,80.3377 ,1.44734 ,-0.52259 ,-5.12764 
390 ,80.5614 ,1.44957 ,-0.52943 ,-5.19479 
391 ,80.7539 ,1.45152 ,-0.52943 ,-5.19479 
392 ,80.9618 ,1.45356 ,-0.54997 ,-5.39626 
393 ,81.1701 ,1.45566 ,-0.54997 ,-5.39626 
394 ,81.3782 ,1.45773 ,-0.57392 ,-5.63131 
395 ,81.6181 ,1.46002 ,-0.58419 ,-5.73205 
396 ,81.8263 ,1.46222 ,-0.58761 ,-5.76562 
397 ,82.0344 ,1.46439 ,-0.58077 ,-5.69847 
398 ,82.2265 ,1.46627 ,-0.60130 ,-5.89994 
399 ,82.4343 ,1.46828 ,-0.59788 ,-5.86636 
400 ,82.6266 ,1.47031 ,-0.61499 ,-6.03425 
401 ,82.8348 ,1.47229 ,-0.61841 ,-6.06783 
402 ,83.0585 ,1.47458 ,-0.64236 ,-6.30288 
403 ,83.2669 ,1.47664 ,-0.63894 ,-6.26930 
404 ,83.4751 ,1.47873 ,-0.65263 ,-6.40361 
405 ,83.6991 ,1.48096 ,-0.65947 ,-6.47077 
406 ,83.8912 ,1.48292 ,-0.66632 ,-6.53793 
407 ,84.1151 ,1.48512 ,-0.66974 ,-6.57150 
408 ,84.3236 ,1.48722 ,-0.70396 ,-6.90729 
409 ,84.5475 ,1.48940 ,-0.70054 ,-6.87371 
410 ,84.7396 ,1.49140 ,-0.70739 ,-6.94086 
411 ,84.9476 ,1.49346 ,-0.71765 ,-7.04160 
412 ,85.1555 ,1.49553 ,-0.72792 ,-7.14233 
413 ,85.3478 ,1.49754 ,-0.74503 ,-7.31023 
414 ,85.5397 ,1.49940 ,-0.73818 ,-7.24307 
415 ,85.7640 ,1.50163 ,-0.75530 ,-7.41096 
416 ,85.9721 ,1.50370 ,-0.75530 ,-7.41096 
417 ,86.1641 ,1.50563 ,-0.77583 ,-7.61243 
418 ,86.3718 ,1.50762 ,-0.77241 ,-7.57885 
419 ,86.5643 ,1.50962 ,-0.79294 ,-7.78032 
420 ,86.7883 ,1.51181 ,-0.79636 ,-7.81390 
421 ,86.9966 ,1.51395 ,-0.79636 ,-7.81390 
422 ,87.2045 ,1.51597 ,-0.82032 ,-8.04895 
423 ,87.4124 ,1.51813 ,-0.82716 ,-8.11611 
424 ,87.6209 ,1.52014 ,-0.84427 ,-8.28400 
425 ,87.8288 ,1.52226 ,-0.83743 ,-8.21684 
426 ,88.0369 ,1.52430 ,-0.84427 ,-8.28400 
427 ,88.2289 ,1.52625 ,-0.86823 ,-8.51904 
428 ,88.4208 ,1.52817 ,-0.86823 ,-8.51904 
429 ,88.6132 ,1.53010 ,-0.86823 ,-8.51904 
430 ,88.8213 ,1.53220 ,-0.88534 ,-8.68694 
431 ,89.0289 ,1.53424 ,-0.88534 ,-8.68694 
432 ,89.2214 ,1.53619 ,-0.91272 ,-8.95556 
433 ,89.4135 ,1.53809 ,-0.90245 ,-8.85483 
434 ,89.6213 ,1.54021 ,-0.91614 ,-8.98914 
435 ,89.8296 ,1.54227 ,-0.91956 ,-9.02272 
436 ,90.0378 ,1.54438 ,-0.92983 ,-9.12345 
437 ,90.2298 ,1.54628 ,-0.94009 ,-9.22419 
438 ,90.4539 ,1.54849 ,-0.95036 ,-9.32492 
439 ,90.6621 ,1.55058 ,-0.96405 ,-9.45924 
440 ,90.8700 ,1.55260 ,-0.96405 ,-9.45924 
441 ,91.0781 ,1.55472 ,-0.97774 ,-9.59355 
442 ,91.2863 ,1.55679 ,-0.99827 ,-9.79502 
443 ,91.5105 ,1.55906 ,-0.99143 ,-9.72786 
444 ,91.7185 ,1.56110 ,-1.00169 ,-9.82860 
445 ,91.9266 ,1.56316 ,-1.02222 ,-10.03007 
446 ,92.1507 ,1.56546 ,-1.02222 ,-10.03007 
447 ,92.3748 ,1.56763 ,-1.02222 ,-10.03007 
448 ,92.5827 ,1.56974 ,-1.04960 ,-10.29869 
449 ,92.8069 ,1.57199 ,-1.04618 ,-10.26512 
450 ,92.9986 ,1.57393 ,-1.04618 ,-10.26512 
451 ,93.1911 ,1.57592 ,-1.05645 ,-10.36585 
452 ,93.4152 ,1.57805 ,-1.06329 ,-10.43301 
453 ,93.6393 ,1.58028 ,-1.08040 ,-10.60090 
454 ,93.8473 ,1.58235 ,-1.09751 ,-10.76879 
455 ,94.0391 ,1.58431 ,-1.08382 ,-10.63448 
456 ,94.2476 ,1.58639 ,-1.11805 ,-10.97026 
457 ,94.4715 ,1.58862 ,-1.11120 ,-10.90310 
458 ,94.6637 ,1.59059 ,-1.13516 ,-11.13815 
459 ,94.8718 ,1.59267 ,-1.11462 ,-10.93668 
460 ,95.0800 ,1.59477 ,-1.13516 ,-11.13815 
461 ,95.2879 ,1.59681 ,-1.13858 ,-11.17173 
462 ,95.4960 ,1.59888 ,-1.14542 ,-11.23889 
