Data stamp = , 04-05-2022 12:02:17 262

Calibration Values: 
Slope = , 26.54 , g/V 
Offset Voltage at no contact = , -0.501760 , V 

No , Time , Stage Position ,   Mass , Force 
   ,  (s) ,      (mm)      ,   (g)  , (mN)  

1 ,0.0000 ,0.64931 ,5.41829 ,53.16429 
2 ,0.2155 ,0.64940 ,5.42514 ,53.23145 
3 ,0.7434 ,0.65108 ,5.42172 ,53.19787 
4 ,0.9836 ,0.65386 ,5.41829 ,53.16429 
5 ,1.2240 ,0.65605 ,5.41829 ,53.16429 
6 ,1.4476 ,0.65847 ,5.43540 ,53.33219 
7 ,1.6561 ,0.66062 ,5.42514 ,53.23145 
8 ,1.8481 ,0.66249 ,5.40460 ,53.02998 
9 ,2.0723 ,0.66467 ,5.38749 ,52.86209 
10 ,2.2962 ,0.66701 ,5.37381 ,52.72778 
11 ,2.5044 ,0.66918 ,5.34643 ,52.45915 
12 ,2.7286 ,0.67123 ,5.32589 ,52.25768 
13 ,2.9360 ,0.67342 ,5.29852 ,51.98905 
14 ,3.1285 ,0.67534 ,5.27798 ,51.78758 
15 ,3.3207 ,0.67731 ,5.27798 ,51.78758 
16 ,3.5129 ,0.67918 ,5.24034 ,51.41822 
17 ,3.7049 ,0.68113 ,5.24034 ,51.41822 
18 ,3.8969 ,0.68303 ,5.20270 ,51.04886 
19 ,4.1211 ,0.68526 ,5.19927 ,51.01528 
20 ,4.3131 ,0.68721 ,5.15821 ,50.61234 
21 ,4.5213 ,0.68925 ,5.15479 ,50.57876 
22 ,4.7292 ,0.69138 ,5.12056 ,50.24298 
23 ,4.9217 ,0.69334 ,5.11714 ,50.20940 
24 ,5.1293 ,0.69530 ,5.07950 ,49.84004 
25 ,5.3375 ,0.69737 ,5.07608 ,49.80646 
26 ,5.5296 ,0.69938 ,5.03843 ,49.43710 
27 ,5.7696 ,0.70173 ,5.02132 ,49.26921 
28 ,5.9776 ,0.70382 ,5.00421 ,49.10132 
29 ,6.1700 ,0.70576 ,4.97683 ,48.83269 
30 ,6.3939 ,0.70793 ,4.96657 ,48.73196 
31 ,6.6017 ,0.71003 ,4.95288 ,48.59764 
32 ,6.7943 ,0.71202 ,4.92208 ,48.29544 
33 ,7.0023 ,0.71410 ,4.91866 ,48.26186 
34 ,7.2105 ,0.71613 ,4.87759 ,47.85892 
35 ,7.4184 ,0.71823 ,4.88101 ,47.89250 
36 ,7.6104 ,0.72015 ,4.85021 ,47.59030 
37 ,7.8184 ,0.72222 ,4.82968 ,47.38883 
38 ,7.9947 ,0.72413 ,4.78861 ,46.98589 
39 ,8.2028 ,0.72605 ,4.80230 ,47.12020 
40 ,8.3948 ,0.72812 ,4.76124 ,46.71726 
41 ,8.5869 ,0.72996 ,4.74413 ,46.54937 
42 ,8.7946 ,0.73201 ,4.73728 ,46.48221 
43 ,8.9869 ,0.73395 ,4.71333 ,46.24716 
44 ,9.1951 ,0.73602 ,4.69964 ,46.11285 
45 ,9.4027 ,0.73802 ,4.68595 ,45.97854 
46 ,9.5949 ,0.74010 ,4.65173 ,45.64275 
47 ,9.8029 ,0.74204 ,4.63462 ,45.47486 
48 ,10.0270 ,0.74429 ,4.61408 ,45.27339 
49 ,10.2351 ,0.74636 ,4.60040 ,45.13908 
50 ,10.4752 ,0.74869 ,4.57644 ,44.90403 
51 ,10.6832 ,0.75095 ,4.56275 ,44.76972 
52 ,10.8914 ,0.75293 ,4.52853 ,44.43394 
53 ,11.1157 ,0.75516 ,4.52511 ,44.40036 
54 ,11.3400 ,0.75740 ,4.49773 ,44.13173 
55 ,11.5479 ,0.75944 ,4.46351 ,43.79595 
56 ,11.7403 ,0.76143 ,4.46693 ,43.82953 
57 ,11.9483 ,0.76342 ,4.43613 ,43.52732 
58 ,12.1399 ,0.76549 ,4.42929 ,43.46016 
59 ,12.3484 ,0.76745 ,4.39164 ,43.09080 
60 ,12.5403 ,0.76950 ,4.38822 ,43.05723 
61 ,12.7326 ,0.77138 ,4.36769 ,42.85576 
62 ,12.9408 ,0.77338 ,4.35058 ,42.68786 
63 ,13.1486 ,0.77554 ,4.31293 ,42.31850 
64 ,13.3567 ,0.77755 ,4.30951 ,42.28492 
65 ,13.5649 ,0.77966 ,4.27871 ,41.98272 
66 ,13.7730 ,0.78172 ,4.26502 ,41.84841 
67 ,13.9652 ,0.78370 ,4.26160 ,41.81483 
68 ,14.1732 ,0.78578 ,4.23765 ,41.57978 
69 ,14.3812 ,0.78787 ,4.22396 ,41.44547 
70 ,14.5731 ,0.78973 ,4.20685 ,41.27758 
71 ,14.7655 ,0.79169 ,4.17262 ,40.94179 
72 ,14.9733 ,0.79378 ,4.16920 ,40.90821 
73 ,15.1817 ,0.79585 ,4.15209 ,40.74032 
74 ,15.3893 ,0.79790 ,4.12129 ,40.43812 
75 ,15.5974 ,0.79998 ,4.12129 ,40.43812 
76 ,15.7897 ,0.80190 ,4.07680 ,40.00160 
77 ,15.9819 ,0.80389 ,4.06996 ,39.93444 
78 ,16.2061 ,0.80593 ,4.04943 ,39.73297 
79 ,16.4303 ,0.80833 ,4.01863 ,39.43077 
80 ,16.6217 ,0.81024 ,4.01520 ,39.39719 
81 ,16.8298 ,0.81227 ,3.99467 ,39.19572 
82 ,17.0381 ,0.81434 ,3.97072 ,38.96067 
83 ,17.2626 ,0.81664 ,3.95361 ,38.79278 
84 ,17.4707 ,0.81874 ,3.93650 ,38.62489 
85 ,17.6623 ,0.82071 ,3.91938 ,38.45700 
86 ,17.8545 ,0.82257 ,3.90570 ,38.32268 
87 ,18.0628 ,0.82460 ,3.87490 ,38.02048 
88 ,18.2550 ,0.82662 ,3.86805 ,37.95332 
89 ,18.4630 ,0.82865 ,3.83383 ,37.61754 
90 ,18.6707 ,0.83072 ,3.82699 ,37.55038 
91 ,18.8789 ,0.83276 ,3.81672 ,37.44965 
92 ,19.0872 ,0.83487 ,3.77565 ,37.04671 
93 ,19.2954 ,0.83693 ,3.77908 ,37.08029 
94 ,19.4874 ,0.83887 ,3.75854 ,36.87882 
95 ,19.6795 ,0.84079 ,3.73801 ,36.67735 
96 ,19.8714 ,0.84274 ,3.71063 ,36.40872 
97 ,20.0638 ,0.84462 ,3.69352 ,36.24083 
98 ,20.2562 ,0.84658 ,3.69694 ,36.27441 
99 ,20.4639 ,0.84859 ,3.65246 ,35.83789 
100 ,20.6560 ,0.85056 ,3.64903 ,35.80431 
101 ,20.8796 ,0.85273 ,3.63534 ,35.67000 
102 ,21.0879 ,0.85483 ,3.60112 ,35.33422 
103 ,21.3120 ,0.85709 ,3.60112 ,35.33422 
104 ,21.5044 ,0.85904 ,3.55663 ,34.89770 
105 ,21.7124 ,0.86114 ,3.56348 ,34.96485 
106 ,21.9204 ,0.86319 ,3.54979 ,34.83054 
107 ,22.1284 ,0.86526 ,3.51557 ,34.49476 
108 ,22.3365 ,0.86736 ,3.50872 ,34.42760 
109 ,22.5285 ,0.86929 ,3.47450 ,34.09182 
110 ,22.7366 ,0.87130 ,3.46424 ,33.99108 
111 ,22.9450 ,0.87344 ,3.43686 ,33.72246 
112 ,23.1365 ,0.87550 ,3.43001 ,33.65530 
113 ,23.3291 ,0.87730 ,3.40606 ,33.42025 
114 ,23.5371 ,0.87936 ,3.39921 ,33.35310 
115 ,23.7291 ,0.88141 ,3.36842 ,33.05089 
116 ,23.9212 ,0.88319 ,3.34446 ,32.81584 
117 ,24.1134 ,0.88510 ,3.33419 ,32.71511 
118 ,24.3054 ,0.88719 ,3.30682 ,32.44648 
119 ,24.5294 ,0.88912 ,3.31024 ,32.48006 
120 ,24.7535 ,0.89151 ,3.28971 ,32.27859 
121 ,24.9458 ,0.89342 ,3.25206 ,31.90923 
122 ,25.1534 ,0.89551 ,3.24864 ,31.87565 
123 ,25.3295 ,0.89742 ,3.21100 ,31.50629 
124 ,25.5216 ,0.89924 ,3.20415 ,31.43913 
125 ,25.7136 ,0.90113 ,3.21100 ,31.50629 
126 ,25.9057 ,0.90307 ,3.16651 ,31.06977 
127 ,26.0817 ,0.90495 ,3.15966 ,31.00262 
128 ,26.2739 ,0.90675 ,3.14940 ,30.90188 
129 ,26.4659 ,0.90860 ,3.11860 ,30.59968 
130 ,26.6580 ,0.91056 ,3.11175 ,30.53252 
131 ,26.8501 ,0.91252 ,3.10833 ,30.49894 
132 ,27.0421 ,0.91447 ,3.07753 ,30.19674 
133 ,27.2343 ,0.91635 ,3.08438 ,30.26389 
134 ,27.4263 ,0.91826 ,3.04673 ,29.89453 
135 ,27.6345 ,0.92027 ,3.04673 ,29.89453 
136 ,27.8425 ,0.92236 ,3.00909 ,29.52517 
137 ,28.0347 ,0.92431 ,3.00567 ,29.49159 
138 ,28.2267 ,0.92626 ,2.96802 ,29.12223 
139 ,28.4026 ,0.92813 ,2.96802 ,29.12223 
140 ,28.5947 ,0.92994 ,2.94749 ,28.92076 
141 ,28.8028 ,0.93198 ,2.92696 ,28.71929 
142 ,28.9949 ,0.93394 ,2.93380 ,28.78645 
143 ,29.2031 ,0.93593 ,2.88931 ,28.34993 
144 ,29.3951 ,0.93795 ,2.89616 ,28.41709 
145 ,29.5711 ,0.93983 ,2.85851 ,28.04772 
146 ,29.7631 ,0.94160 ,2.84140 ,27.87983 
147 ,29.9393 ,0.94348 ,2.84482 ,27.91341 
148 ,30.1314 ,0.94528 ,2.82429 ,27.71194 
149 ,30.3237 ,0.94721 ,2.80376 ,27.51047 
150 ,30.5322 ,0.94926 ,2.81060 ,27.57763 
151 ,30.7398 ,0.95130 ,2.77638 ,27.24185 
152 ,30.9480 ,0.95346 ,2.76269 ,27.10753 
153 ,31.1722 ,0.95559 ,2.73874 ,26.87248 
154 ,31.3803 ,0.95770 ,2.71136 ,26.60386 
155 ,31.5723 ,0.95973 ,2.72163 ,26.70459 
156 ,31.7804 ,0.96172 ,2.69083 ,26.40239 
157 ,31.9566 ,0.96363 ,2.68398 ,26.33523 
158 ,32.1489 ,0.96541 ,2.66687 ,26.16734 
159 ,32.3567 ,0.96750 ,2.64634 ,25.96587 
160 ,32.5488 ,0.96946 ,2.63949 ,25.89871 
161 ,32.7566 ,0.97145 ,2.61212 ,25.63009 
162 ,32.9646 ,0.97362 ,2.57789 ,25.29430 
163 ,33.1729 ,0.97566 ,2.59843 ,25.49577 
164 ,33.3811 ,0.97776 ,2.55052 ,25.02568 
165 ,33.5892 ,0.97983 ,2.55052 ,25.02568 
166 ,33.8133 ,0.98204 ,2.52998 ,24.82421 
167 ,34.0054 ,0.98401 ,2.49918 ,24.52200 
168 ,34.2133 ,0.98609 ,2.50261 ,24.55558 
169 ,34.4216 ,0.98818 ,2.47181 ,24.25338 
170 ,34.6296 ,0.99023 ,2.47181 ,24.25338 
171 ,34.8218 ,0.99217 ,2.43759 ,23.91759 
172 ,35.0300 ,0.99424 ,2.43416 ,23.88402 
173 ,35.2215 ,0.99620 ,2.40679 ,23.61539 
174 ,35.4141 ,0.99809 ,2.40679 ,23.61539 
175 ,35.6222 ,1.00013 ,2.37599 ,23.31318 
176 ,35.8460 ,1.00233 ,2.38283 ,23.38034 
177 ,36.0539 ,1.00447 ,2.35203 ,23.07814 
178 ,36.2462 ,1.00638 ,2.32808 ,22.84309 
179 ,36.4544 ,1.00848 ,2.32465 ,22.80951 
180 ,36.6945 ,1.01068 ,2.30070 ,22.57446 
181 ,36.9027 ,1.01300 ,2.26990 ,22.27226 
182 ,37.1108 ,1.01501 ,2.28359 ,22.40657 
183 ,37.3186 ,1.01710 ,2.23568 ,21.93647 
184 ,37.5105 ,1.01902 ,2.25279 ,22.10437 
185 ,37.7030 ,1.02096 ,2.21172 ,21.70143 
186 ,37.9111 ,1.02300 ,2.21515 ,21.73500 
187 ,38.1192 ,1.02507 ,2.18092 ,21.39922 
188 ,38.3274 ,1.02717 ,2.18435 ,21.43280 
189 ,38.5349 ,1.02928 ,2.16039 ,21.19775 
190 ,38.7274 ,1.03119 ,2.14328 ,21.02986 
191 ,38.9355 ,1.03331 ,2.12959 ,20.89555 
192 ,39.1437 ,1.03537 ,2.12275 ,20.82839 
193 ,39.3517 ,1.03742 ,2.10221 ,20.62692 
194 ,39.5436 ,1.03937 ,2.08168 ,20.42545 
195 ,39.7678 ,1.04157 ,2.08168 ,20.42545 
196 ,39.9918 ,1.04383 ,2.03719 ,19.98893 
197 ,40.1839 ,1.04574 ,2.04061 ,20.02251 
198 ,40.3922 ,1.04788 ,2.02693 ,19.88820 
199 ,40.6001 ,1.04983 ,1.99955 ,19.61957 
200 ,40.7921 ,1.05182 ,1.99613 ,19.58599 
201 ,41.0002 ,1.05387 ,1.97902 ,19.41810 
202 ,41.2084 ,1.05597 ,1.97217 ,19.35094 
203 ,41.4167 ,1.05808 ,1.94137 ,19.04874 
204 ,41.6243 ,1.06011 ,1.92768 ,18.91443 
205 ,41.8163 ,1.06208 ,1.91057 ,18.74654 
206 ,42.0244 ,1.06415 ,1.90715 ,18.71296 
207 ,42.2330 ,1.06616 ,1.87293 ,18.37717 
208 ,42.4411 ,1.06826 ,1.86266 ,18.27644 
209 ,42.6327 ,1.07034 ,1.84555 ,18.10855 
210 ,42.8727 ,1.07251 ,1.83186 ,17.97423 
211 ,43.0649 ,1.07467 ,1.82844 ,17.94066 
212 ,43.2731 ,1.07659 ,1.80791 ,17.73919 
213 ,43.4814 ,1.07875 ,1.79422 ,17.60487 
214 ,43.6733 ,1.08070 ,1.77711 ,17.43698 
215 ,43.8815 ,1.08273 ,1.76342 ,17.30267 
216 ,44.0897 ,1.08480 ,1.75657 ,17.23551 
217 ,44.2818 ,1.08672 ,1.72920 ,16.96689 
218 ,44.4899 ,1.08875 ,1.71893 ,16.86615 
219 ,44.7137 ,1.09100 ,1.70866 ,16.76542 
220 ,44.9060 ,1.09296 ,1.70524 ,16.73184 
221 ,45.1138 ,1.09506 ,1.67444 ,16.42963 
222 ,45.3223 ,1.09712 ,1.67444 ,16.42963 
223 ,45.5303 ,1.09922 ,1.65733 ,16.26174 
224 ,45.7545 ,1.10139 ,1.63338 ,16.02669 
225 ,45.9621 ,1.10350 ,1.63680 ,16.06027 
226 ,46.1547 ,1.10540 ,1.58889 ,15.59018 
227 ,46.3785 ,1.10768 ,1.59573 ,15.65733 
228 ,46.5868 ,1.10974 ,1.58204 ,15.52302 
229 ,46.7945 ,1.11182 ,1.54440 ,15.15366 
230 ,46.9865 ,1.11376 ,1.55809 ,15.28797 
231 ,47.1791 ,1.11569 ,1.51702 ,14.88503 
232 ,47.3708 ,1.11774 ,1.52387 ,14.95219 
233 ,47.5632 ,1.11951 ,1.53071 ,15.01934 
234 ,47.7713 ,1.12162 ,1.48280 ,14.54925 
235 ,47.9794 ,1.12367 ,1.48965 ,14.61640 
236 ,48.1874 ,1.12571 ,1.45885 ,14.31420 
237 ,48.3792 ,1.12771 ,1.45542 ,14.28062 
238 ,48.5874 ,1.12978 ,1.43489 ,14.07915 
239 ,48.8118 ,1.13198 ,1.41094 ,13.84410 
240 ,49.0039 ,1.13396 ,1.41436 ,13.87768 
241 ,49.1960 ,1.13599 ,1.37671 ,13.50832 
242 ,49.4041 ,1.13790 ,1.39383 ,13.67621 
243 ,49.5961 ,1.13985 ,1.35960 ,13.34043 
244 ,49.8041 ,1.14192 ,1.36645 ,13.40759 
245 ,49.9962 ,1.14386 ,1.32880 ,13.03822 
246 ,50.2044 ,1.14595 ,1.33907 ,13.13896 
247 ,50.4125 ,1.14799 ,1.30485 ,12.80318 
248 ,50.6041 ,1.15001 ,1.30485 ,12.80318 
249 ,50.8125 ,1.15196 ,1.29458 ,12.70244 
250 ,51.0045 ,1.15395 ,1.28432 ,12.60171 
251 ,51.1965 ,1.15586 ,1.25694 ,12.33308 
252 ,51.3888 ,1.15777 ,1.25694 ,12.33308 
253 ,51.6292 ,1.16023 ,1.23641 ,12.13161 
254 ,51.8529 ,1.16233 ,1.23298 ,12.09803 
255 ,52.0608 ,1.16450 ,1.20903 ,11.86298 
256 ,52.2688 ,1.16657 ,1.18165 ,11.59436 
257 ,52.4608 ,1.16852 ,1.19192 ,11.69509 
258 ,52.6533 ,1.17042 ,1.16112 ,11.39289 
259 ,52.8453 ,1.17231 ,1.15085 ,11.29215 
260 ,53.0536 ,1.17438 ,1.14401 ,11.22500 
261 ,53.2617 ,1.17652 ,1.13032 ,11.09068 
262 ,53.4857 ,1.17868 ,1.10294 ,10.82206 
263 ,53.6937 ,1.18080 ,1.09952 ,10.78848 
264 ,53.9014 ,1.18282 ,1.08241 ,10.62059 
265 ,54.0940 ,1.18480 ,1.06187 ,10.41912 
266 ,54.3180 ,1.18696 ,1.06530 ,10.45270 
267 ,54.5261 ,1.18909 ,1.03792 ,10.18407 
268 ,54.7182 ,1.19104 ,1.03450 ,10.15049 
269 ,54.9263 ,1.19314 ,1.01739 ,9.98260 
270 ,55.1344 ,1.19521 ,1.01054 ,9.91544 
271 ,55.3425 ,1.19725 ,0.99685 ,9.78113 
272 ,55.5343 ,1.19923 ,0.96948 ,9.51250 
273 ,55.7264 ,1.20114 ,0.95237 ,9.34461 
274 ,55.9508 ,1.20337 ,0.93868 ,9.21030 
275 ,56.1426 ,1.20530 ,0.94894 ,9.31103 
276 ,56.3345 ,1.20731 ,0.92157 ,9.04241 
277 ,56.5430 ,1.20926 ,0.91472 ,8.97525 
278 ,56.7511 ,1.21142 ,0.88734 ,8.70662 
279 ,56.9431 ,1.21326 ,0.88734 ,8.70662 
280 ,57.1508 ,1.21532 ,0.85997 ,8.43800 
281 ,57.3433 ,1.21737 ,0.87366 ,8.57231 
282 ,57.5513 ,1.21939 ,0.84628 ,8.30368 
283 ,57.7435 ,1.22129 ,0.84286 ,8.27011 
284 ,57.9516 ,1.22336 ,0.81890 ,8.03506 
285 ,58.1433 ,1.22528 ,0.81206 ,7.96790 
286 ,58.3352 ,1.22717 ,0.80521 ,7.90074 
287 ,58.5277 ,1.22916 ,0.77441 ,7.59854 
288 ,58.7518 ,1.23128 ,0.78810 ,7.73285 
289 ,58.9439 ,1.23327 ,0.75730 ,7.43065 
290 ,59.1519 ,1.23531 ,0.75388 ,7.39707 
291 ,59.3279 ,1.23725 ,0.72992 ,7.16202 
292 ,59.5361 ,1.23916 ,0.72308 ,7.09486 
293 ,59.7602 ,1.24143 ,0.69570 ,6.82624 
294 ,59.9361 ,1.24330 ,0.70255 ,6.89340 
295 ,60.1442 ,1.24523 ,0.67517 ,6.62477 
296 ,60.3525 ,1.24733 ,0.67859 ,6.65835 
297 ,60.5602 ,1.24946 ,0.66148 ,6.49046 
298 ,60.7527 ,1.25134 ,0.65464 ,6.42330 
299 ,60.9606 ,1.25344 ,0.62726 ,6.15467 
300 ,61.1524 ,1.25541 ,0.63068 ,6.18825 
301 ,61.3448 ,1.25730 ,0.60673 ,5.95320 
302 ,61.5528 ,1.25931 ,0.61015 ,5.98678 
303 ,61.7450 ,1.26137 ,0.57593 ,5.65100 
304 ,61.9532 ,1.26338 ,0.59646 ,5.85247 
305 ,62.1613 ,1.26541 ,0.55197 ,5.41595 
306 ,62.3534 ,1.26737 ,0.55197 ,5.41595 
307 ,62.5614 ,1.26941 ,0.52459 ,5.14732 
308 ,62.7370 ,1.27129 ,0.53486 ,5.24806 
309 ,62.9295 ,1.27313 ,0.51775 ,5.08017 
310 ,63.1055 ,1.27500 ,0.50406 ,4.94585 
311 ,63.3138 ,1.27695 ,0.50406 ,4.94585 
312 ,63.5060 ,1.27892 ,0.46642 ,4.57649 
313 ,63.7299 ,1.28099 ,0.48353 ,4.74438 
314 ,63.9541 ,1.28339 ,0.47326 ,4.64365 
315 ,64.1621 ,1.28543 ,0.43220 ,4.24071 
316 ,64.3542 ,1.28737 ,0.44246 ,4.34144 
317 ,64.5623 ,1.28947 ,0.40824 ,4.00566 
318 ,64.7542 ,1.29141 ,0.42535 ,4.17355 
319 ,64.9622 ,1.29348 ,0.39113 ,3.83777 
320 ,65.1701 ,1.29552 ,0.38429 ,3.77061 
321 ,65.3626 ,1.29750 ,0.36718 ,3.60272 
322 ,65.5865 ,1.29964 ,0.36718 ,3.60272 
323 ,65.7788 ,1.30161 ,0.35349 ,3.46841 
324 ,65.9546 ,1.30351 ,0.34322 ,3.36767 
325 ,66.1631 ,1.30543 ,0.31584 ,3.09905 
326 ,66.3710 ,1.30750 ,0.31926 ,3.13263 
327 ,66.6112 ,1.30992 ,0.30558 ,2.99831 
328 ,66.8193 ,1.31199 ,0.28847 ,2.83042 
329 ,67.0273 ,1.31402 ,0.27820 ,2.72969 
330 ,67.2354 ,1.31610 ,0.26451 ,2.59537 
331 ,67.4436 ,1.31827 ,0.24055 ,2.36032 
332 ,67.6357 ,1.32020 ,0.23713 ,2.32675 
333 ,67.8597 ,1.32237 ,0.21318 ,2.09170 
334 ,68.0678 ,1.32444 ,0.22687 ,2.22601 
335 ,68.2598 ,1.32643 ,0.19949 ,1.95738 
336 ,68.4678 ,1.32849 ,0.19264 ,1.89023 
337 ,68.6598 ,1.33041 ,0.17553 ,1.72234 
338 ,68.8682 ,1.33247 ,0.16869 ,1.65518 
339 ,69.0762 ,1.33452 ,0.14816 ,1.45371 
340 ,69.2839 ,1.33655 ,0.14473 ,1.42013 
341 ,69.4923 ,1.33869 ,0.14473 ,1.42013 
342 ,69.6844 ,1.34066 ,0.11393 ,1.11793 
343 ,69.8925 ,1.34270 ,0.12762 ,1.25224 
344 ,70.1007 ,1.34481 ,0.08656 ,0.84930 
345 ,70.3088 ,1.34685 ,0.09682 ,0.95004 
346 ,70.5164 ,1.34898 ,0.06945 ,0.68141 
347 ,70.7249 ,1.35107 ,0.06260 ,0.61425 
348 ,70.9328 ,1.35320 ,0.06260 ,0.61425 
349 ,71.1250 ,1.35508 ,0.03865 ,0.37920 
350 ,71.3332 ,1.35712 ,0.03522 ,0.34563 
351 ,71.5250 ,1.35911 ,0.02154 ,0.21131 
352 ,71.7333 ,1.36111 ,0.00443 ,0.04342 
353 ,71.9253 ,1.36306 ,0.00443 ,0.04342 
354 ,72.1011 ,1.36493 ,-0.01611 ,-0.15805 
355 ,72.3095 ,1.36691 ,-0.00242 ,-0.02373 
356 ,72.5015 ,1.36879 ,-0.04691 ,-0.46025 
357 ,72.7096 ,1.37088 ,-0.03322 ,-0.32594 
358 ,72.9174 ,1.37297 ,-0.06402 ,-0.62814 
359 ,73.1258 ,1.37501 ,-0.06402 ,-0.62814 
360 ,73.3336 ,1.37710 ,-0.08455 ,-0.82961 
361 ,73.5262 ,1.37905 ,-0.08113 ,-0.79604 
362 ,73.7342 ,1.38108 ,-0.10166 ,-0.99751 
363 ,73.9262 ,1.38307 ,-0.09824 ,-0.96393 
364 ,74.1181 ,1.38500 ,-0.12904 ,-1.26613 
365 ,74.3262 ,1.38707 ,-0.12904 ,-1.26613 
366 ,74.5346 ,1.38912 ,-0.14957 ,-1.46760 
367 ,74.7262 ,1.39109 ,-0.14273 ,-1.40045 
368 ,74.9345 ,1.39310 ,-0.18037 ,-1.76981 
369 ,75.1264 ,1.39514 ,-0.17353 ,-1.70265 
370 ,75.3187 ,1.39697 ,-0.19064 ,-1.87054 
371 ,75.4948 ,1.39886 ,-0.19064 ,-1.87054 
372 ,75.7025 ,1.40078 ,-0.19406 ,-1.90412 
373 ,75.8948 ,1.40274 ,-0.21459 ,-2.10559 
374 ,76.0869 ,1.40465 ,-0.21117 ,-2.07201 
375 ,76.2791 ,1.40656 ,-0.24539 ,-2.40779 
376 ,76.4871 ,1.40865 ,-0.22828 ,-2.23990 
377 ,76.6953 ,1.41075 ,-0.25908 ,-2.54211 
378 ,76.8871 ,1.41263 ,-0.25908 ,-2.54211 
379 ,77.1110 ,1.41485 ,-0.28646 ,-2.81073 
380 ,77.3190 ,1.41695 ,-0.28988 ,-2.84431 
381 ,77.5273 ,1.41900 ,-0.29330 ,-2.87789 
382 ,77.7680 ,1.42147 ,-0.30015 ,-2.94505 
383 ,77.9760 ,1.42352 ,-0.32752 ,-3.21367 
384 ,78.1999 ,1.42574 ,-0.33437 ,-3.28083 
385 ,78.3921 ,1.42768 ,-0.33779 ,-3.31441 
386 ,78.6002 ,1.42976 ,-0.35490 ,-3.48230 
387 ,78.8082 ,1.43182 ,-0.36175 ,-3.54946 
388 ,79.0163 ,1.43394 ,-0.38570 ,-3.78450 
389 ,79.2244 ,1.43607 ,-0.37544 ,-3.68377 
390 ,79.4163 ,1.43792 ,-0.40623 ,-3.98597 
391 ,79.6406 ,1.44015 ,-0.39597 ,-3.88524 
392 ,79.8485 ,1.44219 ,-0.41650 ,-4.08671 
393 ,80.0564 ,1.44426 ,-0.42335 ,-4.15387 
394 ,80.2483 ,1.44620 ,-0.43361 ,-4.25460 
395 ,80.4729 ,1.44833 ,-0.44388 ,-4.35534 
396 ,80.6968 ,1.45069 ,-0.47126 ,-4.62396 
397 ,80.9050 ,1.45282 ,-0.45757 ,-4.48965 
398 ,81.0971 ,1.45473 ,-0.47810 ,-4.69112 
399 ,81.3051 ,1.45683 ,-0.47468 ,-4.65754 
400 ,81.5612 ,1.45922 ,-0.49863 ,-4.89259 
401 ,81.7852 ,1.46159 ,-0.50548 ,-4.95975 
402 ,81.9772 ,1.46356 ,-0.52259 ,-5.12764 
403 ,82.1851 ,1.46562 ,-0.51232 ,-5.02690 
404 ,82.3937 ,1.46766 ,-0.54997 ,-5.39626 
405 ,82.6176 ,1.46987 ,-0.53628 ,-5.26195 
406 ,82.8256 ,1.47203 ,-0.55681 ,-5.46342 
407 ,83.0178 ,1.47391 ,-0.57392 ,-5.63131 
408 ,83.2256 ,1.47601 ,-0.57392 ,-5.63131 
409 ,83.4180 ,1.47792 ,-0.58419 ,-5.73205 
410 ,83.6259 ,1.48008 ,-0.58419 ,-5.73205 
411 ,83.8181 ,1.48191 ,-0.60472 ,-5.93352 
412 ,84.0103 ,1.48386 ,-0.62183 ,-6.10141 
413 ,84.2179 ,1.48595 ,-0.61499 ,-6.03425 
414 ,84.4104 ,1.48786 ,-0.63894 ,-6.26930 
415 ,84.6182 ,1.48994 ,-0.64921 ,-6.37003 
416 ,84.8264 ,1.49203 ,-0.65605 ,-6.43719 
417 ,85.0507 ,1.49416 ,-0.65605 ,-6.43719 
418 ,85.2586 ,1.49628 ,-0.66290 ,-6.50435 
419 ,85.4668 ,1.49837 ,-0.69370 ,-6.80655 
420 ,85.6909 ,1.50064 ,-0.70739 ,-6.94086 
421 ,85.8989 ,1.50275 ,-0.70054 ,-6.87371 
422 ,86.1231 ,1.50493 ,-0.70739 ,-6.94086 
423 ,86.3313 ,1.50703 ,-0.73134 ,-7.17591 
424 ,86.5395 ,1.50910 ,-0.73134 ,-7.17591 
425 ,86.7472 ,1.51118 ,-0.74503 ,-7.31023 
426 ,86.9395 ,1.51307 ,-0.73818 ,-7.24307 
427 ,87.1315 ,1.51506 ,-0.75872 ,-7.44454 
428 ,87.3236 ,1.51698 ,-0.76214 ,-7.47812 
429 ,87.5318 ,1.51906 ,-0.78267 ,-7.67959 
430 ,87.7398 ,1.52115 ,-0.77241 ,-7.57885 
431 ,87.9477 ,1.52319 ,-0.79978 ,-7.84748 
432 ,88.1720 ,1.52549 ,-0.82032 ,-8.04895 
433 ,88.3962 ,1.52765 ,-0.81005 ,-7.94821 
434 ,88.6041 ,1.52972 ,-0.82374 ,-8.08253 
435 ,88.7961 ,1.53170 ,-0.83743 ,-8.21684 
436 ,88.9883 ,1.53360 ,-0.85112 ,-8.35115 
437 ,89.1962 ,1.53559 ,-0.84427 ,-8.28400 
438 ,89.3885 ,1.53762 ,-0.85796 ,-8.41831 
439 ,89.6127 ,1.53983 ,-0.88192 ,-8.65336 
440 ,89.8047 ,1.54182 ,-0.88534 ,-8.68694 
441 ,90.0129 ,1.54381 ,-0.89903 ,-8.82125 
442 ,90.2205 ,1.54594 ,-0.89560 ,-8.78767 
443 ,90.4130 ,1.54790 ,-0.91614 ,-8.98914 
444 ,90.6211 ,1.54994 ,-0.90587 ,-8.88841 
445 ,90.8294 ,1.55199 ,-0.92983 ,-9.12345 
446 ,91.0371 ,1.55406 ,-0.92983 ,-9.12345 
447 ,91.2608 ,1.55629 ,-0.92640 ,-9.08988 
448 ,91.4693 ,1.55845 ,-0.97089 ,-9.52639 
449 ,91.6775 ,1.56050 ,-0.96063 ,-9.42566 
450 ,91.9016 ,1.56270 ,-0.96747 ,-9.49282 
451 ,92.1097 ,1.56483 ,-0.99485 ,-9.76144 
452 ,92.3017 ,1.56681 ,-0.97774 ,-9.59355 
453 ,92.4938 ,1.56869 ,-1.00854 ,-9.89576 
454 ,92.7018 ,1.57075 ,-0.99827 ,-9.79502 
455 ,92.8941 ,1.57262 ,-1.01196 ,-9.92933 
456 ,93.1020 ,1.57479 ,-1.01196 ,-9.92933 
457 ,93.3101 ,1.57681 ,-1.03591 ,-10.16438 
458 ,93.5018 ,1.57871 ,-1.03591 ,-10.16438 
459 ,93.7103 ,1.58081 ,-1.04960 ,-10.29869 
460 ,93.9183 ,1.58285 ,-1.04960 ,-10.29869 
461 ,94.0945 ,1.58479 ,-1.07014 ,-10.50016 
462 ,94.2862 ,1.58656 ,-1.07698 ,-10.56732 
