Data stamp = , 05-05-2022 04:05:01 025

Calibration Values: 
Slope = , 26.54 , g/V 
Offset Voltage at no contact = , -0.501760 , V 

No , Time , Stage Position ,   Mass , Force 
   ,  (s) ,      (mm)      ,   (g)  , (mN)  

1 ,0.0000 ,0.64957 ,5.23692 ,51.38464 
2 ,0.2248 ,0.64966 ,5.22323 ,51.25033 
3 ,0.6410 ,0.65093 ,5.25403 ,51.55254 
4 ,0.8651 ,0.65300 ,5.23350 ,51.35107 
5 ,1.0736 ,0.65497 ,5.24718 ,51.48538 
6 ,1.2972 ,0.65717 ,5.25403 ,51.55254 
7 ,1.4898 ,0.65917 ,5.25061 ,51.51896 
8 ,1.6979 ,0.66122 ,5.23007 ,51.31749 
9 ,1.9057 ,0.66333 ,5.23007 ,51.31749 
10 ,2.0981 ,0.66527 ,5.20954 ,51.11602 
11 ,2.3217 ,0.66743 ,5.20270 ,51.04886 
12 ,2.5302 ,0.66963 ,5.17532 ,50.78023 
13 ,2.7383 ,0.67171 ,5.15479 ,50.57876 
14 ,2.9303 ,0.67361 ,5.13425 ,50.37729 
15 ,3.1225 ,0.67555 ,5.12741 ,50.31014 
16 ,3.3305 ,0.67762 ,5.07950 ,49.84004 
17 ,3.5863 ,0.68020 ,5.06923 ,49.73931 
18 ,3.8267 ,0.68252 ,5.04528 ,49.50426 
19 ,4.0188 ,0.68444 ,5.01448 ,49.20205 
20 ,4.2428 ,0.68667 ,5.00421 ,49.10132 
21 ,4.4508 ,0.68875 ,4.96657 ,48.73196 
22 ,4.6270 ,0.69069 ,4.95972 ,48.66480 
23 ,4.8190 ,0.69250 ,4.93235 ,48.39618 
24 ,5.0272 ,0.69455 ,4.92550 ,48.32902 
25 ,5.2191 ,0.69657 ,4.89812 ,48.06039 
26 ,5.4112 ,0.69845 ,4.87417 ,47.82534 
27 ,5.6190 ,0.70041 ,4.87417 ,47.82534 
28 ,5.8275 ,0.70254 ,4.84337 ,47.52314 
29 ,6.0513 ,0.70474 ,4.81599 ,47.25451 
30 ,6.2595 ,0.70684 ,4.80915 ,47.18736 
31 ,6.4515 ,0.70881 ,4.77835 ,46.88515 
32 ,6.6597 ,0.71084 ,4.77493 ,46.85157 
33 ,6.8678 ,0.71292 ,4.73044 ,46.41506 
34 ,7.0760 ,0.71502 ,4.72359 ,46.34790 
35 ,7.2681 ,0.71694 ,4.70990 ,46.21359 
36 ,7.4761 ,0.71900 ,4.68595 ,45.97854 
37 ,7.6682 ,0.72098 ,4.66542 ,45.77707 
38 ,7.8599 ,0.72290 ,4.65173 ,45.64275 
39 ,8.0685 ,0.72494 ,4.61751 ,45.30697 
40 ,8.2765 ,0.72701 ,4.61066 ,45.23981 
41 ,8.4845 ,0.72913 ,4.61066 ,45.23981 
42 ,8.6767 ,0.73104 ,4.56960 ,44.83688 
43 ,8.9006 ,0.73321 ,4.56275 ,44.76972 
44 ,9.1088 ,0.73532 ,4.52169 ,44.36678 
45 ,9.3169 ,0.73749 ,4.51484 ,44.29962 
46 ,9.5249 ,0.73959 ,4.50457 ,44.19889 
47 ,9.7490 ,0.74165 ,4.46351 ,43.79595 
48 ,9.9411 ,0.74366 ,4.47378 ,43.89668 
49 ,10.1489 ,0.74570 ,4.42244 ,43.39301 
50 ,10.3574 ,0.74784 ,4.40875 ,43.25870 
51 ,10.5655 ,0.74990 ,4.38822 ,43.05723 
52 ,10.8055 ,0.75217 ,4.36769 ,42.85576 
53 ,11.0136 ,0.75440 ,4.35400 ,42.72144 
54 ,11.2216 ,0.75641 ,4.35400 ,42.72144 
55 ,11.4136 ,0.75840 ,4.30951 ,42.28492 
56 ,11.6378 ,0.76060 ,4.31978 ,42.38566 
57 ,11.8619 ,0.76287 ,4.28556 ,42.04988 
58 ,12.0697 ,0.76491 ,4.25818 ,41.78125 
59 ,12.2775 ,0.76704 ,4.25133 ,41.71409 
60 ,12.4700 ,0.76896 ,4.21711 ,41.37831 
61 ,12.6942 ,0.77115 ,4.20342 ,41.24400 
62 ,12.8864 ,0.77313 ,4.18974 ,41.10968 
63 ,13.1105 ,0.77535 ,4.15551 ,40.77390 
64 ,13.3026 ,0.77727 ,4.15209 ,40.74032 
65 ,13.5425 ,0.77957 ,4.11445 ,40.37096 
66 ,13.7663 ,0.78192 ,4.09391 ,40.16949 
67 ,13.9428 ,0.78380 ,4.10076 ,40.23665 
68 ,14.1670 ,0.78578 ,4.06654 ,39.90087 
69 ,14.3910 ,0.78812 ,4.04258 ,39.66582 
70 ,14.5992 ,0.79017 ,4.04258 ,39.66582 
71 ,14.8069 ,0.79230 ,4.00494 ,39.29646 
72 ,14.9993 ,0.79424 ,4.00836 ,39.33003 
73 ,15.2073 ,0.79626 ,3.96387 ,38.89352 
74 ,15.4155 ,0.79841 ,3.95018 ,38.75920 
75 ,15.6230 ,0.80056 ,3.92965 ,38.55773 
76 ,15.8151 ,0.80244 ,3.91596 ,38.42342 
77 ,16.0232 ,0.80441 ,3.90227 ,38.28911 
78 ,16.2315 ,0.80652 ,3.87147 ,37.98690 
79 ,16.4719 ,0.80900 ,3.86121 ,37.88617 
80 ,16.6636 ,0.81090 ,3.85094 ,37.78543 
81 ,16.8718 ,0.81289 ,3.80645 ,37.34891 
82 ,17.0801 ,0.81507 ,3.81330 ,37.41607 
83 ,17.2722 ,0.81695 ,3.77908 ,37.08029 
84 ,17.4643 ,0.81891 ,3.77223 ,37.01313 
85 ,17.6724 ,0.82098 ,3.74485 ,36.74450 
86 ,17.8803 ,0.82305 ,3.74143 ,36.71093 
87 ,18.0886 ,0.82514 ,3.70721 ,36.37514 
88 ,18.3127 ,0.82731 ,3.68668 ,36.17367 
89 ,18.5210 ,0.82941 ,3.67299 ,36.03936 
90 ,18.7289 ,0.83155 ,3.63877 ,35.70358 
91 ,18.9365 ,0.83365 ,3.63192 ,35.63642 
92 ,19.1289 ,0.83551 ,3.60797 ,35.40137 
93 ,19.3210 ,0.83744 ,3.60454 ,35.36779 
94 ,19.5131 ,0.83935 ,3.58059 ,35.13275 
95 ,19.7212 ,0.84145 ,3.55663 ,34.89770 
96 ,19.9134 ,0.84337 ,3.53952 ,34.72981 
97 ,20.1373 ,0.84559 ,3.52241 ,34.56192 
98 ,20.3613 ,0.84783 ,3.50530 ,34.39402 
99 ,20.5374 ,0.84974 ,3.48135 ,34.15898 
100 ,20.7457 ,0.85166 ,3.48135 ,34.15898 
101 ,20.9534 ,0.85369 ,3.46766 ,34.02466 
102 ,21.1294 ,0.85563 ,3.44028 ,33.75604 
103 ,21.3216 ,0.85747 ,3.43001 ,33.65530 
104 ,21.5140 ,0.85936 ,3.39237 ,33.28594 
105 ,21.7218 ,0.86137 ,3.38553 ,33.21878 
106 ,21.9302 ,0.86354 ,3.35473 ,32.91658 
107 ,22.1385 ,0.86564 ,3.35130 ,32.88300 
108 ,22.3464 ,0.86768 ,3.31708 ,32.54722 
109 ,22.5701 ,0.86990 ,3.31024 ,32.48006 
110 ,22.7786 ,0.87200 ,3.29313 ,32.31217 
111 ,22.9865 ,0.87413 ,3.26233 ,32.00996 
112 ,23.1787 ,0.87606 ,3.25206 ,31.90923 
113 ,23.3864 ,0.87808 ,3.22126 ,31.60702 
114 ,23.5949 ,0.88016 ,3.23153 ,31.70776 
115 ,23.8024 ,0.88217 ,3.20415 ,31.43913 
116 ,23.9950 ,0.88412 ,3.18020 ,31.20409 
117 ,24.1874 ,0.88611 ,3.16309 ,31.03619 
118 ,24.3948 ,0.88816 ,3.15282 ,30.93546 
119 ,24.6194 ,0.89029 ,3.12544 ,30.66683 
120 ,24.8435 ,0.89256 ,3.10149 ,30.43178 
121 ,25.0355 ,0.89456 ,3.09806 ,30.39821 
122 ,25.2435 ,0.89662 ,3.07753 ,30.19674 
123 ,25.4513 ,0.89876 ,3.05015 ,29.92811 
124 ,25.6757 ,0.90084 ,3.04331 ,29.86095 
125 ,25.8677 ,0.90301 ,3.02620 ,29.69306 
126 ,26.0759 ,0.90491 ,3.02278 ,29.65948 
127 ,26.2839 ,0.90710 ,2.99198 ,29.35728 
128 ,26.4761 ,0.90893 ,2.98171 ,29.25654 
129 ,26.6682 ,0.91090 ,2.94407 ,28.88718 
130 ,26.8763 ,0.91298 ,2.94749 ,28.92076 
131 ,27.0684 ,0.91489 ,2.91327 ,28.58498 
132 ,27.2603 ,0.91680 ,2.90300 ,28.48424 
133 ,27.4520 ,0.91870 ,2.88247 ,28.28277 
134 ,27.6446 ,0.92062 ,2.87562 ,28.21562 
135 ,27.8686 ,0.92290 ,2.85851 ,28.04772 
136 ,28.0606 ,0.92480 ,2.83456 ,27.81268 
137 ,28.2527 ,0.92668 ,2.80718 ,27.54405 
138 ,28.4449 ,0.92865 ,2.79349 ,27.40974 
139 ,28.6527 ,0.93066 ,2.80718 ,27.54405 
140 ,28.8446 ,0.93265 ,2.76269 ,27.10753 
141 ,29.0370 ,0.93456 ,2.77296 ,27.20827 
142 ,29.2292 ,0.93649 ,2.74558 ,26.93964 
143 ,29.4371 ,0.93851 ,2.73189 ,26.80533 
144 ,29.6293 ,0.94062 ,2.69767 ,26.46954 
145 ,29.8211 ,0.94244 ,2.69083 ,26.40239 
146 ,30.0294 ,0.94447 ,2.67714 ,26.26807 
147 ,30.2377 ,0.94665 ,2.67029 ,26.20092 
148 ,30.4457 ,0.94859 ,2.63265 ,25.83156 
149 ,30.6538 ,0.95071 ,2.63265 ,25.83156 
150 ,30.8617 ,0.95276 ,2.60527 ,25.56293 
151 ,31.0700 ,0.95482 ,2.59843 ,25.49577 
152 ,31.2620 ,0.95681 ,2.56763 ,25.19357 
153 ,31.4701 ,0.95890 ,2.57105 ,25.22715 
154 ,31.6622 ,0.96076 ,2.54710 ,24.99210 
155 ,31.8703 ,0.96285 ,2.54025 ,24.92494 
156 ,32.0619 ,0.96481 ,2.50603 ,24.58916 
157 ,32.2705 ,0.96687 ,2.49918 ,24.52200 
158 ,32.4947 ,0.96913 ,2.47865 ,24.32053 
159 ,32.7024 ,0.97115 ,2.45812 ,24.11906 
160 ,32.9105 ,0.97327 ,2.44443 ,23.98475 
161 ,33.1187 ,0.97534 ,2.43074 ,23.85044 
162 ,33.3104 ,0.97726 ,2.40679 ,23.61539 
163 ,33.5190 ,0.97933 ,2.38968 ,23.44750 
164 ,33.7271 ,0.98145 ,2.37599 ,23.31318 
165 ,33.9352 ,0.98352 ,2.36572 ,23.21245 
166 ,34.1433 ,0.98563 ,2.33834 ,22.94382 
167 ,34.3508 ,0.98767 ,2.31781 ,22.74235 
168 ,34.5432 ,0.98959 ,2.30412 ,22.60804 
169 ,34.7353 ,0.99155 ,2.30070 ,22.57446 
170 ,34.9276 ,0.99347 ,2.27332 ,22.30584 
171 ,35.1356 ,0.99550 ,2.25621 ,22.13794 
172 ,35.3278 ,0.99741 ,2.25621 ,22.13794 
173 ,35.5518 ,0.99965 ,2.23910 ,21.97005 
174 ,35.7440 ,1.00163 ,2.20488 ,21.63427 
175 ,36.0481 ,1.00423 ,2.20488 ,21.63427 
176 ,36.2402 ,1.00657 ,2.17750 ,21.36564 
177 ,36.4322 ,1.00850 ,2.17750 ,21.36564 
178 ,36.6243 ,1.01048 ,2.11932 ,20.79481 
179 ,36.8160 ,1.01237 ,2.14670 ,21.06344 
180 ,37.0085 ,1.01427 ,2.10221 ,20.62692 
181 ,37.2166 ,1.01635 ,2.12617 ,20.86197 
182 ,37.4246 ,1.01837 ,2.06115 ,20.22398 
183 ,37.6162 ,1.02043 ,2.07141 ,20.32472 
184 ,37.8247 ,1.02237 ,2.04746 ,20.08967 
185 ,38.0328 ,1.02449 ,2.05088 ,20.12325 
186 ,38.2410 ,1.02656 ,2.02350 ,19.85462 
187 ,38.4489 ,1.02860 ,1.99270 ,19.55241 
188 ,38.6411 ,1.03059 ,1.98586 ,19.48526 
189 ,38.8492 ,1.03262 ,1.98244 ,19.45168 
190 ,39.0412 ,1.03468 ,1.96190 ,19.25021 
191 ,39.2653 ,1.03677 ,1.93453 ,18.98158 
192 ,39.4573 ,1.03868 ,1.92426 ,18.88085 
193 ,39.6494 ,1.04067 ,1.91057 ,18.74654 
194 ,39.8412 ,1.04256 ,1.89004 ,18.54507 
195 ,40.0497 ,1.04466 ,1.88319 ,18.47791 
196 ,40.2738 ,1.04689 ,1.87293 ,18.37717 
197 ,40.4817 ,1.04892 ,1.82844 ,17.94066 
198 ,40.6739 ,1.05091 ,1.84213 ,18.07497 
199 ,40.8818 ,1.05291 ,1.80449 ,17.70561 
200 ,41.1058 ,1.05507 ,1.79422 ,17.60487 
201 ,41.3142 ,1.05730 ,1.79422 ,17.60487 
202 ,41.5222 ,1.05935 ,1.77026 ,17.36983 
203 ,41.7304 ,1.06144 ,1.75315 ,17.20193 
204 ,41.9385 ,1.06351 ,1.73262 ,17.00046 
205 ,42.1625 ,1.06566 ,1.71551 ,16.83257 
206 ,42.3866 ,1.06801 ,1.68813 ,16.56395 
207 ,42.5787 ,1.06992 ,1.69155 ,16.59752 
208 ,42.7705 ,1.07189 ,1.67786 ,16.46321 
209 ,42.9627 ,1.07378 ,1.65049 ,16.19458 
210 ,43.1705 ,1.07588 ,1.64364 ,16.12743 
211 ,43.3631 ,1.07778 ,1.61969 ,15.89238 
212 ,43.5711 ,1.07979 ,1.62311 ,15.92596 
213 ,43.7793 ,1.08190 ,1.58547 ,15.55660 
214 ,44.0032 ,1.08412 ,1.56151 ,15.32155 
215 ,44.2111 ,1.08617 ,1.58204 ,15.52302 
216 ,44.4194 ,1.08833 ,1.53413 ,15.05292 
217 ,44.6436 ,1.09050 ,1.52045 ,14.91861 
218 ,44.8513 ,1.09264 ,1.53413 ,15.05292 
219 ,45.0277 ,1.09454 ,1.49649 ,14.68356 
220 ,45.2199 ,1.09632 ,1.48965 ,14.61640 
221 ,45.4279 ,1.09840 ,1.46569 ,14.38136 
222 ,45.6200 ,1.10032 ,1.45542 ,14.28062 
223 ,45.8282 ,1.10233 ,1.45200 ,14.24704 
224 ,46.0200 ,1.10435 ,1.43147 ,14.04557 
225 ,46.2604 ,1.10674 ,1.42120 ,13.94484 
226 ,46.4519 ,1.10873 ,1.40067 ,13.74337 
227 ,46.6605 ,1.11067 ,1.38014 ,13.54190 
228 ,46.8686 ,1.11281 ,1.36303 ,13.37401 
229 ,47.0766 ,1.11488 ,1.35960 ,13.34043 
230 ,47.2687 ,1.11693 ,1.33223 ,13.07180 
231 ,47.4607 ,1.11873 ,1.33565 ,13.10538 
232 ,47.6527 ,1.12067 ,1.32880 ,13.03822 
233 ,47.8770 ,1.12286 ,1.30143 ,12.76960 
234 ,48.0691 ,1.12491 ,1.28432 ,12.60171 
235 ,48.2931 ,1.12703 ,1.28089 ,12.56813 
236 ,48.4852 ,1.12899 ,1.25009 ,12.26592 
237 ,48.6933 ,1.13106 ,1.26378 ,12.40024 
238 ,48.8853 ,1.13299 ,1.22272 ,11.99730 
239 ,49.0774 ,1.13485 ,1.22614 ,12.03088 
240 ,49.2694 ,1.13694 ,1.19534 ,11.72867 
241 ,49.4615 ,1.13874 ,1.19534 ,11.72867 
242 ,49.6535 ,1.14065 ,1.18850 ,11.66151 
243 ,49.8614 ,1.14267 ,1.14401 ,11.22500 
244 ,50.0858 ,1.14490 ,1.15427 ,11.32573 
245 ,50.2943 ,1.14698 ,1.14058 ,11.19142 
246 ,50.5019 ,1.14914 ,1.10636 ,10.85563 
247 ,50.6776 ,1.15099 ,1.11321 ,10.92279 
248 ,50.8696 ,1.15280 ,1.10636 ,10.85563 
249 ,51.0619 ,1.15473 ,1.07899 ,10.58701 
250 ,51.2542 ,1.15666 ,1.08925 ,10.68774 
251 ,51.4461 ,1.15858 ,1.06530 ,10.45270 
252 ,51.6384 ,1.16054 ,1.04819 ,10.28480 
253 ,51.8465 ,1.16253 ,1.03108 ,10.11691 
254 ,52.0385 ,1.16451 ,1.02423 ,10.04976 
255 ,52.2467 ,1.16654 ,1.01396 ,9.94902 
256 ,52.4228 ,1.16844 ,0.99001 ,9.71397 
257 ,52.6309 ,1.17037 ,0.99001 ,9.71397 
258 ,52.8227 ,1.17233 ,0.95237 ,9.34461 
259 ,53.0146 ,1.17434 ,0.95237 ,9.34461 
260 ,53.2231 ,1.17629 ,0.94210 ,9.24388 
261 ,53.4313 ,1.17838 ,0.92841 ,9.10956 
262 ,53.6392 ,1.18043 ,0.90788 ,8.90809 
263 ,53.8470 ,1.18249 ,0.89761 ,8.80736 
264 ,54.0551 ,1.18461 ,0.89419 ,8.77378 
265 ,54.2472 ,1.18664 ,0.86339 ,8.47158 
266 ,54.4552 ,1.18858 ,0.86339 ,8.47158 
267 ,54.6472 ,1.19060 ,0.84970 ,8.33726 
268 ,54.8556 ,1.19256 ,0.82917 ,8.13579 
269 ,55.0480 ,1.19460 ,0.81548 ,8.00148 
270 ,55.2555 ,1.19670 ,0.81206 ,7.96790 
271 ,55.4641 ,1.19869 ,0.78468 ,7.69927 
272 ,55.6721 ,1.20082 ,0.79495 ,7.80001 
273 ,55.8801 ,1.20280 ,0.75388 ,7.39707 
274 ,56.0721 ,1.20482 ,0.76415 ,7.49780 
275 ,56.2804 ,1.20684 ,0.72992 ,7.16202 
276 ,56.4722 ,1.20881 ,0.74704 ,7.32991 
277 ,56.6646 ,1.21073 ,0.70597 ,6.92697 
278 ,56.8727 ,1.21282 ,0.71281 ,6.99413 
279 ,57.0806 ,1.21486 ,0.68886 ,6.75908 
280 ,57.2727 ,1.21680 ,0.70255 ,6.89340 
281 ,57.4804 ,1.21881 ,0.66148 ,6.49046 
282 ,57.7048 ,1.22099 ,0.66833 ,6.55761 
283 ,57.8971 ,1.22304 ,0.65121 ,6.38972 
284 ,58.1052 ,1.22512 ,0.61699 ,6.05394 
285 ,58.3132 ,1.22722 ,0.64095 ,6.28899 
286 ,58.5213 ,1.22927 ,0.59646 ,5.85247 
287 ,58.7294 ,1.23139 ,0.61015 ,5.98678 
288 ,58.9531 ,1.23360 ,0.58619 ,5.75173 
289 ,59.1451 ,1.23551 ,0.56224 ,5.51668 
290 ,59.3372 ,1.23748 ,0.55882 ,5.48311 
291 ,59.5455 ,1.23948 ,0.54855 ,5.38237 
292 ,59.7373 ,1.24149 ,0.53828 ,5.28164 
293 ,59.9458 ,1.24350 ,0.53144 ,5.21448 
294 ,60.1696 ,1.24571 ,0.52459 ,5.14732 
295 ,60.3780 ,1.24780 ,0.50064 ,4.91228 
296 ,60.6022 ,1.25000 ,0.49380 ,4.84512 
297 ,60.8103 ,1.25213 ,0.48353 ,4.74438 
298 ,61.0181 ,1.25429 ,0.45273 ,4.44218 
299 ,61.2103 ,1.25630 ,0.45273 ,4.44218 
300 ,61.4020 ,1.25807 ,0.43220 ,4.24071 
301 ,61.5945 ,1.26001 ,0.42193 ,4.13997 
302 ,61.8026 ,1.26204 ,0.41166 ,4.03924 
303 ,62.0101 ,1.26420 ,0.39797 ,3.90493 
304 ,62.2027 ,1.26612 ,0.36718 ,3.60272 
305 ,62.4109 ,1.26816 ,0.38429 ,3.77061 
306 ,62.6029 ,1.27006 ,0.36718 ,3.60272 
307 ,62.8110 ,1.27217 ,0.36718 ,3.60272 
308 ,63.0187 ,1.27421 ,0.33980 ,3.33410 
309 ,63.2111 ,1.27619 ,0.33295 ,3.26694 
310 ,63.4192 ,1.27823 ,0.30900 ,3.03189 
311 ,63.6275 ,1.28035 ,0.30900 ,3.03189 
312 ,63.8356 ,1.28237 ,0.27820 ,2.72969 
313 ,64.0596 ,1.28450 ,0.29531 ,2.89758 
314 ,64.2675 ,1.28675 ,0.27478 ,2.69611 
315 ,64.4758 ,1.28879 ,0.26109 ,2.56179 
316 ,64.6679 ,1.29077 ,0.25424 ,2.49464 
317 ,64.8759 ,1.29276 ,0.22344 ,2.19243 
318 ,65.0681 ,1.29473 ,0.23713 ,2.32675 
319 ,65.2757 ,1.29677 ,0.20976 ,2.05812 
320 ,65.4682 ,1.29878 ,0.21318 ,2.09170 
321 ,65.6921 ,1.30093 ,0.19264 ,1.89023 
322 ,65.9006 ,1.30304 ,0.16869 ,1.65518 
323 ,66.0924 ,1.30499 ,0.18238 ,1.78949 
324 ,66.3166 ,1.30714 ,0.13789 ,1.35298 
325 ,66.5245 ,1.30929 ,0.15500 ,1.52087 
326 ,66.7324 ,1.31136 ,0.14131 ,1.38655 
327 ,66.9247 ,1.31330 ,0.12420 ,1.21866 
328 ,67.1329 ,1.31537 ,0.12078 ,1.18508 
329 ,67.3410 ,1.31741 ,0.07971 ,0.78214 
330 ,67.5328 ,1.31935 ,0.08998 ,0.88288 
331 ,67.7412 ,1.32138 ,0.07971 ,0.78214 
332 ,67.9492 ,1.32355 ,0.07971 ,0.78214 
333 ,68.1571 ,1.32562 ,0.05576 ,0.54710 
334 ,68.3815 ,1.32779 ,0.05234 ,0.51352 
335 ,68.6215 ,1.33019 ,0.04207 ,0.41278 
336 ,68.8134 ,1.33213 ,0.02496 ,0.24489 
337 ,69.0213 ,1.33426 ,0.00785 ,0.07700 
338 ,69.2134 ,1.33613 ,0.01469 ,0.14416 
339 ,69.4058 ,1.33809 ,-0.00584 ,-0.05731 
340 ,69.6136 ,1.34030 ,-0.00242 ,-0.02373 
341 ,69.8217 ,1.34229 ,-0.03322 ,-0.32594 
342 ,70.0302 ,1.34433 ,-0.03322 ,-0.32594 
343 ,70.2221 ,1.34633 ,-0.06060 ,-0.59457 
344 ,70.4143 ,1.34817 ,-0.06744 ,-0.66172 
345 ,70.6384 ,1.35038 ,-0.08797 ,-0.86319 
346 ,70.8464 ,1.35244 ,-0.06402 ,-0.62814 
347 ,71.0546 ,1.35452 ,-0.10166 ,-0.99751 
348 ,71.2467 ,1.35652 ,-0.10166 ,-0.99751 
349 ,71.4547 ,1.35850 ,-0.11535 ,-1.13182 
350 ,71.6626 ,1.36060 ,-0.12219 ,-1.19898 
351 ,71.8544 ,1.36260 ,-0.11877 ,-1.16540 
352 ,72.0469 ,1.36451 ,-0.13588 ,-1.33329 
353 ,72.2550 ,1.36655 ,-0.15642 ,-1.53476 
354 ,72.4472 ,1.36853 ,-0.14957 ,-1.46760 
355 ,72.6552 ,1.37053 ,-0.17695 ,-1.73623 
356 ,72.8634 ,1.37262 ,-0.18722 ,-1.83696 
357 ,73.0876 ,1.37485 ,-0.19748 ,-1.93770 
358 ,73.2955 ,1.37697 ,-0.20433 ,-2.00485 
359 ,73.4876 ,1.37888 ,-0.19748 ,-1.93770 
360 ,73.6958 ,1.38098 ,-0.21117 ,-2.07201 
361 ,73.9036 ,1.38299 ,-0.22828 ,-2.23990 
362 ,74.0959 ,1.38497 ,-0.24197 ,-2.37422 
363 ,74.3040 ,1.38705 ,-0.24539 ,-2.40779 
364 ,74.4961 ,1.38898 ,-0.25908 ,-2.54211 
365 ,74.7202 ,1.39118 ,-0.27619 ,-2.71000 
366 ,74.9120 ,1.39316 ,-0.27619 ,-2.71000 
367 ,75.1198 ,1.39516 ,-0.28646 ,-2.81073 
368 ,75.3121 ,1.39713 ,-0.29673 ,-2.91147 
369 ,75.5045 ,1.39904 ,-0.31384 ,-3.07936 
370 ,75.6967 ,1.40099 ,-0.32410 ,-3.18010 
371 ,75.9047 ,1.40304 ,-0.32068 ,-3.14652 
372 ,76.1125 ,1.40507 ,-0.33779 ,-3.31441 
373 ,76.3203 ,1.40717 ,-0.33779 ,-3.31441 
374 ,76.5283 ,1.40924 ,-0.34806 ,-3.41514 
375 ,76.7368 ,1.41131 ,-0.37544 ,-3.68377 
376 ,76.9770 ,1.41376 ,-0.39597 ,-3.88524 
377 ,77.2014 ,1.41596 ,-0.37544 ,-3.68377 
378 ,77.3930 ,1.41797 ,-0.39597 ,-3.88524 
379 ,77.5853 ,1.41985 ,-0.40966 ,-4.01955 
380 ,77.7771 ,1.42185 ,-0.41992 ,-4.12029 
381 ,77.9854 ,1.42384 ,-0.41650 ,-4.08671 
382 ,78.1935 ,1.42588 ,-0.44388 ,-4.35534 
383 ,78.4012 ,1.42795 ,-0.43703 ,-4.28818 
384 ,78.6096 ,1.43008 ,-0.43703 ,-4.28818 
385 ,78.8174 ,1.43218 ,-0.47468 ,-4.65754 
386 ,79.0098 ,1.43410 ,-0.45414 ,-4.45607 
387 ,79.2178 ,1.43622 ,-0.47810 ,-4.69112 
388 ,79.4261 ,1.43823 ,-0.46783 ,-4.59038 
389 ,79.6499 ,1.44052 ,-0.48494 ,-4.75828 
390 ,79.8583 ,1.44257 ,-0.52259 ,-5.12764 
391 ,80.0664 ,1.44464 ,-0.50548 ,-4.95975 
392 ,80.2742 ,1.44678 ,-0.52943 ,-5.19479 
393 ,80.4824 ,1.44875 ,-0.54312 ,-5.32911 
394 ,80.6906 ,1.45091 ,-0.53628 ,-5.26195 
395 ,80.8826 ,1.45283 ,-0.54997 ,-5.39626 
396 ,81.0748 ,1.45476 ,-0.56708 ,-5.56415 
397 ,81.2827 ,1.45678 ,-0.58761 ,-5.76562 
398 ,81.4749 ,1.45872 ,-0.59103 ,-5.79920 
399 ,81.6671 ,1.46068 ,-0.57734 ,-5.66489 
400 ,81.8750 ,1.46272 ,-0.61499 ,-6.03425 
401 ,82.0832 ,1.46484 ,-0.61499 ,-6.03425 
402 ,82.2752 ,1.46677 ,-0.61841 ,-6.06783 
403 ,82.4995 ,1.46892 ,-0.62868 ,-6.16856 
404 ,82.7070 ,1.47102 ,-0.64579 ,-6.33646 
405 ,82.8993 ,1.47295 ,-0.65605 ,-6.43719 
406 ,83.0912 ,1.47487 ,-0.65263 ,-6.40361 
407 ,83.3001 ,1.47696 ,-0.66632 ,-6.53793 
408 ,83.5076 ,1.47900 ,-0.65263 ,-6.40361 
409 ,83.6998 ,1.48099 ,-0.68685 ,-6.73940 
410 ,83.8917 ,1.48289 ,-0.67659 ,-6.63866 
411 ,84.1161 ,1.48502 ,-0.69712 ,-6.84013 
412 ,84.3242 ,1.48725 ,-0.70739 ,-6.94086 
413 ,84.5480 ,1.48942 ,-0.69712 ,-6.84013 
414 ,84.7403 ,1.49137 ,-0.72792 ,-7.14233 
415 ,84.9324 ,1.49330 ,-0.71765 ,-7.04160 
416 ,85.1245 ,1.49525 ,-0.73134 ,-7.17591 
417 ,85.3486 ,1.49742 ,-0.73818 ,-7.24307 
418 ,85.5407 ,1.49940 ,-0.76214 ,-7.47812 
419 ,85.7647 ,1.50157 ,-0.76214 ,-7.47812 
420 ,85.9728 ,1.50363 ,-0.77583 ,-7.61243 
421 ,86.1645 ,1.50561 ,-0.77925 ,-7.64601 
422 ,86.3571 ,1.50754 ,-0.79978 ,-7.84748 
423 ,86.5650 ,1.50959 ,-0.78952 ,-7.74674 
424 ,86.7572 ,1.51153 ,-0.82032 ,-8.04895 
425 ,86.9649 ,1.51356 ,-0.81347 ,-7.98179 
426 ,87.1734 ,1.51576 ,-0.82716 ,-8.11611 
427 ,87.3815 ,1.51778 ,-0.83401 ,-8.18326 
428 ,87.5896 ,1.51987 ,-0.82374 ,-8.08253 
429 ,87.8135 ,1.52195 ,-0.87165 ,-8.55262 
430 ,88.0213 ,1.52428 ,-0.87165 ,-8.55262 
431 ,88.2298 ,1.52619 ,-0.85112 ,-8.35115 
432 ,88.4218 ,1.52828 ,-0.88534 ,-8.68694 
433 ,88.6137 ,1.53008 ,-0.87165 ,-8.55262 
434 ,88.8218 ,1.53215 ,-0.89903 ,-8.82125 
435 ,89.0301 ,1.53425 ,-0.89560 ,-8.78767 
436 ,89.2220 ,1.53618 ,-0.91956 ,-9.02272 
437 ,89.4299 ,1.53823 ,-0.90929 ,-8.92198 
438 ,89.6382 ,1.54035 ,-0.93667 ,-9.19061 
439 ,89.8465 ,1.54246 ,-0.92983 ,-9.12345 
440 ,90.0539 ,1.54444 ,-0.94009 ,-9.22419 
441 ,90.2626 ,1.54655 ,-0.96405 ,-9.45924 
442 ,90.4867 ,1.54877 ,-0.95036 ,-9.32492 
443 ,90.6947 ,1.55087 ,-0.96063 ,-9.42566 
444 ,90.8870 ,1.55284 ,-0.98116 ,-9.62713 
445 ,91.0950 ,1.55486 ,-0.98458 ,-9.66071 
446 ,91.3030 ,1.55698 ,-1.00854 ,-9.89576 
447 ,91.4953 ,1.55893 ,-0.99485 ,-9.76144 
448 ,91.7187 ,1.56113 ,-1.01538 ,-9.96291 
449 ,91.9272 ,1.56319 ,-1.01196 ,-9.92933 
450 ,92.1355 ,1.56527 ,-1.03591 ,-10.16438 
451 ,92.3434 ,1.56737 ,-1.04960 ,-10.29869 
452 ,92.5514 ,1.56948 ,-1.03934 ,-10.19796 
453 ,92.7595 ,1.57157 ,-1.06329 ,-10.43301 
454 ,92.9835 ,1.57366 ,-1.04960 ,-10.29869 
455 ,93.1916 ,1.57588 ,-1.07698 ,-10.56732 
456 ,93.4001 ,1.57795 ,-1.07698 ,-10.56732 
457 ,93.6080 ,1.57992 ,-1.06329 ,-10.43301 
458 ,93.8160 ,1.58207 ,-1.09409 ,-10.73521 
459 ,94.0239 ,1.58413 ,-1.09409 ,-10.73521 
460 ,94.2162 ,1.58610 ,-1.10778 ,-10.86953 
461 ,94.4241 ,1.58821 ,-1.11805 ,-10.97026 
462 ,94.6322 ,1.59024 ,-1.11120 ,-10.90310 
