Data stamp = , 05-05-2022 03:18:32 240

Calibration Values: 
Slope = , 26.54 , g/V 
Offset Voltage at no contact = , -0.501760 , V 

No , Time , Stage Position ,   Mass , Force 
   ,  (s) ,      (mm)      ,   (g)  , (mN)  

1 ,0.0000 ,0.64943 ,5.24718 ,51.48538 
2 ,0.2122 ,0.64952 ,5.25061 ,51.51896 
3 ,0.5801 ,0.65057 ,5.24718 ,51.48538 
4 ,0.7884 ,0.65221 ,5.25745 ,51.58611 
5 ,1.0290 ,0.65430 ,5.25403 ,51.55254 
6 ,1.2371 ,0.65645 ,5.24376 ,51.45180 
7 ,1.4450 ,0.65858 ,5.25745 ,51.58611 
8 ,1.6368 ,0.66048 ,5.25403 ,51.55254 
9 ,1.8453 ,0.66259 ,5.24034 ,51.41822 
10 ,2.0531 ,0.66472 ,5.23350 ,51.35107 
11 ,2.2775 ,0.66682 ,5.18216 ,50.84739 
12 ,2.5017 ,0.66915 ,5.17532 ,50.78023 
13 ,2.7096 ,0.67120 ,5.15479 ,50.57876 
14 ,2.9016 ,0.67320 ,5.13083 ,50.34372 
15 ,3.1097 ,0.67536 ,5.11372 ,50.17583 
16 ,3.3179 ,0.67733 ,5.08634 ,49.90720 
17 ,3.5101 ,0.67922 ,5.07265 ,49.77289 
18 ,3.7021 ,0.68120 ,5.05554 ,49.60499 
19 ,3.9096 ,0.68321 ,5.04528 ,49.50426 
20 ,4.1023 ,0.68518 ,5.00079 ,49.06774 
21 ,4.3104 ,0.68719 ,5.00421 ,49.10132 
22 ,4.5024 ,0.68916 ,4.96315 ,48.69838 
23 ,4.6942 ,0.69109 ,4.95630 ,48.63122 
24 ,4.9027 ,0.69316 ,4.93577 ,48.42975 
25 ,5.1106 ,0.69524 ,4.92550 ,48.32902 
26 ,5.3348 ,0.69746 ,4.88444 ,47.92608 
27 ,5.5590 ,0.69971 ,4.86048 ,47.69103 
28 ,5.7669 ,0.70180 ,4.85706 ,47.65745 
29 ,5.9591 ,0.70377 ,4.82284 ,47.32167 
30 ,6.1831 ,0.70589 ,4.81599 ,47.25451 
31 ,6.3911 ,0.70801 ,4.81599 ,47.25451 
32 ,6.5834 ,0.70998 ,4.77150 ,46.81800 
33 ,6.7914 ,0.71199 ,4.75097 ,46.61653 
34 ,6.9836 ,0.71394 ,4.74070 ,46.51579 
35 ,7.1911 ,0.71595 ,4.73044 ,46.41506 
36 ,7.3838 ,0.71796 ,4.70648 ,46.18001 
37 ,7.5917 ,0.71999 ,4.68253 ,45.94496 
38 ,7.7998 ,0.72210 ,4.65173 ,45.64275 
39 ,8.0080 ,0.72417 ,4.64488 ,45.57560 
40 ,8.1996 ,0.72620 ,4.60382 ,45.17266 
41 ,8.4080 ,0.72817 ,4.61066 ,45.23981 
42 ,8.6160 ,0.73025 ,4.57302 ,44.87045 
43 ,8.8242 ,0.73231 ,4.56617 ,44.80330 
44 ,9.0324 ,0.73448 ,4.54222 ,44.56825 
45 ,9.2244 ,0.73633 ,4.52511 ,44.40036 
46 ,9.4325 ,0.73849 ,4.50115 ,44.16531 
47 ,9.6564 ,0.74063 ,4.48062 ,43.96384 
48 ,9.8646 ,0.74277 ,4.47378 ,43.89668 
49 ,10.0570 ,0.74467 ,4.43271 ,43.49374 
50 ,10.2490 ,0.74659 ,4.45324 ,43.69521 
51 ,10.4566 ,0.74867 ,4.39849 ,43.15796 
52 ,10.6491 ,0.75057 ,4.40533 ,43.22512 
53 ,10.8409 ,0.75254 ,4.37111 ,42.88933 
54 ,11.0334 ,0.75446 ,4.36769 ,42.85576 
55 ,11.2416 ,0.75657 ,4.33689 ,42.55355 
56 ,11.4334 ,0.75847 ,4.31978 ,42.38566 
57 ,11.6414 ,0.76048 ,4.32320 ,42.41924 
58 ,11.8334 ,0.76245 ,4.28898 ,42.08345 
59 ,12.0577 ,0.76453 ,4.27187 ,41.91556 
60 ,12.2498 ,0.76663 ,4.25133 ,41.71409 
61 ,12.4579 ,0.76867 ,4.22053 ,41.41189 
62 ,12.6979 ,0.77092 ,4.21711 ,41.37831 
63 ,12.9219 ,0.77329 ,4.20000 ,41.21042 
64 ,13.1139 ,0.77523 ,4.16578 ,40.87464 
65 ,13.3220 ,0.77733 ,4.15209 ,40.74032 
66 ,13.5140 ,0.77921 ,4.13498 ,40.57243 
67 ,13.7384 ,0.78147 ,4.11787 ,40.40454 
68 ,13.9143 ,0.78335 ,4.11103 ,40.33738 
69 ,14.1224 ,0.78527 ,4.07680 ,40.00160 
70 ,14.3144 ,0.78726 ,4.05285 ,39.76655 
71 ,14.5067 ,0.78916 ,4.04600 ,39.69940 
72 ,14.7464 ,0.79142 ,4.01520 ,39.39719 
73 ,14.9547 ,0.79362 ,3.98783 ,39.12856 
74 ,15.1471 ,0.79552 ,3.99125 ,39.16214 
75 ,15.3550 ,0.79762 ,3.96045 ,38.85994 
76 ,15.5472 ,0.79954 ,3.96045 ,38.85994 
77 ,15.7393 ,0.80150 ,3.92623 ,38.52415 
78 ,15.9630 ,0.80365 ,3.93307 ,38.59131 
79 ,16.1554 ,0.80561 ,3.87490 ,38.02048 
80 ,16.3795 ,0.80773 ,3.87147 ,37.98690 
81 ,16.6033 ,0.81007 ,3.84752 ,37.75185 
82 ,16.8116 ,0.81219 ,3.82014 ,37.48323 
83 ,17.0036 ,0.81410 ,3.83383 ,37.61754 
84 ,17.1957 ,0.81604 ,3.79276 ,37.21460 
85 ,17.3880 ,0.81794 ,3.78250 ,37.11387 
86 ,17.5957 ,0.82006 ,3.74828 ,36.77808 
87 ,17.8039 ,0.82209 ,3.74828 ,36.77808 
88 ,18.0276 ,0.82431 ,3.71405 ,36.44230 
89 ,18.2363 ,0.82642 ,3.70037 ,36.30799 
90 ,18.4602 ,0.82864 ,3.69010 ,36.20725 
91 ,18.6523 ,0.83059 ,3.65246 ,35.83789 
92 ,18.8444 ,0.83254 ,3.65246 ,35.83789 
93 ,19.0364 ,0.83445 ,3.62166 ,35.53569 
94 ,19.2447 ,0.83648 ,3.61823 ,35.50211 
95 ,19.4528 ,0.83860 ,3.59086 ,35.23348 
96 ,19.6605 ,0.84066 ,3.57717 ,35.09917 
97 ,19.8689 ,0.84273 ,3.54979 ,34.83054 
98 ,20.0606 ,0.84474 ,3.54295 ,34.76338 
99 ,20.2526 ,0.84662 ,3.50188 ,34.36045 
100 ,20.4608 ,0.84865 ,3.50872 ,34.42760 
101 ,20.6531 ,0.85056 ,3.47108 ,34.05824 
102 ,20.8451 ,0.85252 ,3.47450 ,34.09182 
103 ,21.0373 ,0.85445 ,3.44028 ,33.75604 
104 ,21.2455 ,0.85652 ,3.43686 ,33.72246 
105 ,21.4374 ,0.85850 ,3.39921 ,33.35310 
106 ,21.6134 ,0.86031 ,3.39237 ,33.28594 
107 ,21.8216 ,0.86232 ,3.39237 ,33.28594 
108 ,22.0138 ,0.86420 ,3.34788 ,32.84942 
109 ,22.2218 ,0.86630 ,3.35130 ,32.88300 
110 ,22.4454 ,0.86854 ,3.31708 ,32.54722 
111 ,22.6374 ,0.87058 ,3.28628 ,32.24501 
112 ,22.8461 ,0.87248 ,3.29313 ,32.31217 
113 ,23.1181 ,0.87510 ,3.27944 ,32.17786 
114 ,23.3426 ,0.87748 ,3.24522 ,31.84207 
115 ,23.5499 ,0.87958 ,3.21442 ,31.53987 
116 ,23.7583 ,0.88165 ,3.21100 ,31.50629 
117 ,23.9666 ,0.88372 ,3.19731 ,31.37198 
118 ,24.1587 ,0.88565 ,3.16993 ,31.10335 
119 ,24.3667 ,0.88767 ,3.14597 ,30.86830 
120 ,24.5429 ,0.88960 ,3.14255 ,30.83472 
121 ,24.7188 ,0.89138 ,3.11175 ,30.53252 
122 ,24.9109 ,0.89318 ,3.09122 ,30.33105 
123 ,25.1351 ,0.89535 ,3.07753 ,30.19674 
124 ,25.3432 ,0.89743 ,3.07753 ,30.19674 
125 ,25.5511 ,0.89956 ,3.05358 ,29.96169 
126 ,25.7428 ,0.90147 ,3.04331 ,29.86095 
127 ,25.9514 ,0.90354 ,3.00909 ,29.52517 
128 ,26.1595 ,0.90564 ,2.99882 ,29.42444 
129 ,26.3515 ,0.90766 ,2.97829 ,29.22297 
130 ,26.5436 ,0.90962 ,2.97487 ,29.18939 
131 ,26.7357 ,0.91141 ,2.93722 ,28.82003 
132 ,26.9277 ,0.91332 ,2.94064 ,28.85360 
133 ,27.1199 ,0.91529 ,2.92696 ,28.71929 
134 ,27.3280 ,0.91731 ,2.89958 ,28.45066 
135 ,27.5360 ,0.91938 ,2.88931 ,28.34993 
136 ,27.7276 ,0.92148 ,2.87905 ,28.24919 
137 ,27.9197 ,0.92333 ,2.84825 ,27.94699 
138 ,28.1118 ,0.92524 ,2.82087 ,27.67836 
139 ,28.3201 ,0.92717 ,2.83456 ,27.81268 
140 ,28.5284 ,0.92932 ,2.79349 ,27.40974 
141 ,28.7366 ,0.93141 ,2.79007 ,27.37616 
142 ,28.9445 ,0.93349 ,2.76954 ,27.17469 
143 ,29.1526 ,0.93547 ,2.73874 ,26.87248 
144 ,29.3608 ,0.93760 ,2.74900 ,26.97322 
145 ,29.5530 ,0.93960 ,2.72847 ,26.77175 
146 ,29.7609 ,0.94167 ,2.71478 ,26.63744 
147 ,29.9530 ,0.94359 ,2.68740 ,26.36881 
148 ,30.1607 ,0.94565 ,2.69083 ,26.40239 
149 ,30.3533 ,0.94757 ,2.65318 ,26.03303 
150 ,30.5615 ,0.94966 ,2.65660 ,26.06661 
151 ,30.7534 ,0.95168 ,2.62581 ,25.76440 
152 ,30.9452 ,0.95346 ,2.61212 ,25.63009 
153 ,31.1374 ,0.95544 ,2.61554 ,25.66367 
154 ,31.3297 ,0.95740 ,2.57447 ,25.26073 
155 ,31.5378 ,0.95939 ,2.57447 ,25.26073 
156 ,31.7617 ,0.96159 ,2.54710 ,24.99210 
157 ,31.9537 ,0.96359 ,2.52656 ,24.79063 
158 ,32.1780 ,0.96576 ,2.52656 ,24.79063 
159 ,32.3856 ,0.96790 ,2.48550 ,24.38769 
160 ,32.5781 ,0.96977 ,2.48207 ,24.35411 
161 ,32.7861 ,0.97183 ,2.45470 ,24.08549 
162 ,32.9783 ,0.97381 ,2.46154 ,24.15264 
163 ,33.1861 ,0.97580 ,2.41363 ,23.68255 
164 ,33.3782 ,0.97777 ,2.42048 ,23.74970 
165 ,33.5701 ,0.97987 ,2.39310 ,23.48108 
166 ,33.7626 ,0.98178 ,2.38968 ,23.44750 
167 ,33.9542 ,0.98353 ,2.36914 ,23.24603 
168 ,34.1628 ,0.98560 ,2.35545 ,23.11171 
169 ,34.4349 ,0.98825 ,2.32465 ,22.80951 
170 ,34.6590 ,0.99061 ,2.31097 ,22.67520 
171 ,34.8671 ,0.99265 ,2.28359 ,22.40657 
172 ,35.0592 ,0.99467 ,2.28701 ,22.44015 
173 ,35.2512 ,0.99657 ,2.26306 ,22.20510 
174 ,35.4434 ,0.99845 ,2.25621 ,22.13794 
175 ,35.6510 ,1.00045 ,2.24937 ,22.07079 
176 ,35.8438 ,1.00242 ,2.21515 ,21.73500 
177 ,36.0674 ,1.00469 ,2.19119 ,21.49996 
178 ,36.2594 ,1.00659 ,2.19119 ,21.49996 
179 ,36.4679 ,1.00875 ,2.15012 ,21.09702 
180 ,36.6915 ,1.01090 ,2.15697 ,21.16417 
181 ,36.9000 ,1.01297 ,2.13644 ,20.96270 
182 ,37.1081 ,1.01509 ,2.11248 ,20.72766 
183 ,37.3162 ,1.01718 ,2.11248 ,20.72766 
184 ,37.5404 ,1.01939 ,2.07484 ,20.35829 
185 ,37.7480 ,1.02140 ,2.06457 ,20.25756 
186 ,37.9724 ,1.02364 ,2.05430 ,20.15682 
187 ,38.1802 ,1.02580 ,2.05088 ,20.12325 
188 ,38.3885 ,1.02787 ,2.02008 ,19.82104 
189 ,38.5803 ,1.02981 ,2.00982 ,19.72031 
190 ,38.7887 ,1.03189 ,1.97902 ,19.41810 
191 ,38.9803 ,1.03386 ,1.96875 ,19.31737 
192 ,39.1728 ,1.03574 ,1.95848 ,19.21663 
193 ,39.3647 ,1.03763 ,1.93453 ,18.98158 
194 ,39.5731 ,1.03970 ,1.94137 ,19.04874 
195 ,39.7813 ,1.04182 ,1.90715 ,18.71296 
196 ,39.9888 ,1.04386 ,1.89004 ,18.54507 
197 ,40.1972 ,1.04594 ,1.88662 ,18.51149 
198 ,40.4054 ,1.04806 ,1.85240 ,18.17570 
199 ,40.5972 ,1.05005 ,1.85582 ,18.20928 
200 ,40.7893 ,1.05186 ,1.82844 ,17.94066 
201 ,40.9974 ,1.05394 ,1.83186 ,17.97423 
202 ,41.1734 ,1.05588 ,1.80449 ,17.70561 
203 ,41.3817 ,1.05781 ,1.78737 ,17.53772 
204 ,41.5739 ,1.05975 ,1.78737 ,17.53772 
205 ,41.7819 ,1.06177 ,1.74631 ,17.13478 
206 ,41.9738 ,1.06375 ,1.75315 ,17.20193 
207 ,42.1816 ,1.06578 ,1.72920 ,16.96689 
208 ,42.3900 ,1.06788 ,1.70866 ,16.76542 
209 ,42.5983 ,1.06996 ,1.69840 ,16.66468 
210 ,42.8062 ,1.07196 ,1.67786 ,16.46321 
211 ,43.0304 ,1.07426 ,1.67444 ,16.42963 
212 ,43.2223 ,1.07616 ,1.64022 ,16.09385 
213 ,43.4307 ,1.07826 ,1.64022 ,16.09385 
214 ,43.6389 ,1.08040 ,1.63338 ,16.02669 
215 ,43.8309 ,1.08234 ,1.61284 ,15.82522 
216 ,44.0390 ,1.08435 ,1.59231 ,15.62375 
217 ,44.2310 ,1.08635 ,1.56836 ,15.38871 
218 ,44.4390 ,1.08834 ,1.56151 ,15.32155 
219 ,44.6311 ,1.09028 ,1.55467 ,15.25439 
220 ,44.8552 ,1.09235 ,1.53413 ,15.05292 
221 ,45.0634 ,1.09460 ,1.52387 ,14.95219 
222 ,45.2715 ,1.09664 ,1.51018 ,14.81787 
223 ,45.4950 ,1.09888 ,1.49991 ,14.71714 
224 ,45.6876 ,1.10082 ,1.45542 ,14.28062 
225 ,45.8956 ,1.10292 ,1.45885 ,14.31420 
226 ,46.0878 ,1.10483 ,1.44858 ,14.21346 
227 ,46.3115 ,1.10704 ,1.43831 ,14.11273 
228 ,46.5040 ,1.10901 ,1.41094 ,13.84410 
229 ,46.7117 ,1.11109 ,1.40751 ,13.81053 
230 ,46.9200 ,1.11314 ,1.38356 ,13.57548 
231 ,47.1122 ,1.11512 ,1.38014 ,13.54190 
232 ,47.3042 ,1.11698 ,1.34934 ,13.23969 
233 ,47.5124 ,1.11905 ,1.35276 ,13.27327 
234 ,47.7039 ,1.12098 ,1.32196 ,12.97107 
235 ,47.8965 ,1.12294 ,1.33223 ,13.07180 
236 ,48.1046 ,1.12501 ,1.29458 ,12.70244 
237 ,48.3127 ,1.12707 ,1.29458 ,12.70244 
238 ,48.5207 ,1.12914 ,1.26720 ,12.43381 
239 ,48.7124 ,1.13108 ,1.27747 ,12.53455 
240 ,48.9209 ,1.13315 ,1.24667 ,12.23235 
241 ,49.1290 ,1.13530 ,1.23298 ,12.09803 
242 ,49.3371 ,1.13730 ,1.23298 ,12.09803 
243 ,49.5132 ,1.13923 ,1.20218 ,11.79583 
244 ,49.7053 ,1.14102 ,1.18165 ,11.59436 
245 ,49.8973 ,1.14293 ,1.19192 ,11.69509 
246 ,50.0894 ,1.14482 ,1.16796 ,11.46004 
247 ,50.2970 ,1.14691 ,1.16112 ,11.39289 
248 ,50.4896 ,1.14886 ,1.15085 ,11.29215 
249 ,50.7132 ,1.15102 ,1.14401 ,11.22500 
250 ,50.9053 ,1.15303 ,1.10294 ,10.82206 
251 ,51.1299 ,1.15510 ,1.12005 ,10.98995 
252 ,51.3540 ,1.15742 ,1.08583 ,10.65416 
253 ,51.5461 ,1.15941 ,1.05845 ,10.38554 
254 ,51.7699 ,1.16161 ,1.05845 ,10.38554 
255 ,51.9621 ,1.16363 ,1.03792 ,10.18407 
256 ,52.1701 ,1.16558 ,1.03108 ,10.11691 
257 ,52.3783 ,1.16772 ,1.01054 ,9.91544 
258 ,52.5862 ,1.16978 ,1.01739 ,9.98260 
259 ,52.7784 ,1.17179 ,0.99343 ,9.74755 
260 ,52.9705 ,1.17365 ,0.99001 ,9.71397 
261 ,53.1783 ,1.17572 ,0.95237 ,9.34461 
262 ,53.3707 ,1.17765 ,0.95579 ,9.37819 
263 ,53.5787 ,1.17975 ,0.94552 ,9.27745 
264 ,53.7703 ,1.18168 ,0.93183 ,9.14314 
265 ,53.9629 ,1.18361 ,0.90103 ,8.84094 
266 ,54.1710 ,1.18569 ,0.91130 ,8.94167 
267 ,54.3789 ,1.18775 ,0.87366 ,8.57231 
268 ,54.6030 ,1.18985 ,0.87708 ,8.60589 
269 ,54.8111 ,1.19202 ,0.87708 ,8.60589 
270 ,55.0193 ,1.19410 ,0.83943 ,8.23653 
271 ,55.2273 ,1.19614 ,0.82917 ,8.13579 
272 ,55.4033 ,1.19811 ,0.80863 ,7.93432 
273 ,55.6435 ,1.20021 ,0.80863 ,7.93432 
274 ,55.8517 ,1.20247 ,0.79837 ,7.83359 
275 ,56.0597 ,1.20448 ,0.78126 ,7.66570 
276 ,56.2676 ,1.20664 ,0.76757 ,7.53138 
277 ,56.4754 ,1.20868 ,0.77099 ,7.56496 
278 ,56.6679 ,1.21059 ,0.73677 ,7.22918 
279 ,56.8760 ,1.21266 ,0.71966 ,7.06129 
280 ,57.0840 ,1.21468 ,0.70597 ,6.92697 
281 ,57.2922 ,1.21680 ,0.71281 ,6.99413 
282 ,57.4998 ,1.21898 ,0.68544 ,6.72550 
283 ,57.7084 ,1.22095 ,0.68201 ,6.69193 
284 ,57.9166 ,1.22299 ,0.65121 ,6.38972 
285 ,58.1086 ,1.22509 ,0.64779 ,6.35614 
286 ,58.3166 ,1.22703 ,0.62384 ,6.12109 
287 ,58.5247 ,1.22911 ,0.61699 ,6.05394 
288 ,58.7328 ,1.23121 ,0.60330 ,5.91962 
289 ,58.9569 ,1.23343 ,0.58619 ,5.75173 
290 ,59.1650 ,1.23557 ,0.57251 ,5.61742 
291 ,59.3888 ,1.23776 ,0.58619 ,5.75173 
292 ,59.5813 ,1.23971 ,0.54513 ,5.34879 
293 ,59.7891 ,1.24176 ,0.54855 ,5.38237 
294 ,59.9970 ,1.24383 ,0.53486 ,5.24806 
295 ,60.1893 ,1.24580 ,0.53486 ,5.24806 
296 ,60.3974 ,1.24789 ,0.51091 ,5.01301 
297 ,60.6056 ,1.25000 ,0.48695 ,4.77796 
298 ,60.7972 ,1.25189 ,0.49037 ,4.81154 
299 ,60.9896 ,1.25383 ,0.49722 ,4.87870 
300 ,61.1978 ,1.25586 ,0.46300 ,4.54291 
301 ,61.3897 ,1.25787 ,0.44931 ,4.40860 
302 ,61.5979 ,1.25987 ,0.42877 ,4.20713 
303 ,61.7739 ,1.26179 ,0.43904 ,4.30787 
304 ,61.9822 ,1.26366 ,0.41509 ,4.07282 
305 ,62.1903 ,1.26580 ,0.40824 ,4.00566 
306 ,62.3983 ,1.26790 ,0.38771 ,3.80419 
307 ,62.5905 ,1.26984 ,0.38086 ,3.73703 
308 ,62.7820 ,1.27183 ,0.37060 ,3.63630 
309 ,62.9581 ,1.27357 ,0.36033 ,3.53557 
310 ,63.1506 ,1.27541 ,0.36033 ,3.53557 
311 ,63.3588 ,1.27737 ,0.33295 ,3.26694 
312 ,63.5504 ,1.27943 ,0.33638 ,3.30052 
313 ,63.7430 ,1.28134 ,0.30215 ,2.96473 
314 ,63.9510 ,1.28339 ,0.29873 ,2.93116 
315 ,64.1752 ,1.28558 ,0.27820 ,2.72969 
316 ,64.3830 ,1.28775 ,0.27135 ,2.66253 
317 ,64.5753 ,1.28967 ,0.27478 ,2.69611 
318 ,64.7831 ,1.29173 ,0.25082 ,2.46106 
319 ,64.9754 ,1.29365 ,0.23713 ,2.32675 
320 ,65.1835 ,1.29575 ,0.21660 ,2.12528 
321 ,65.3757 ,1.29762 ,0.22002 ,2.15885 
322 ,65.5836 ,1.29969 ,0.19949 ,1.95738 
323 ,65.7917 ,1.30177 ,0.19607 ,1.92381 
324 ,65.9837 ,1.30373 ,0.18238 ,1.78949 
325 ,66.1916 ,1.30575 ,0.18922 ,1.85665 
326 ,66.4000 ,1.30788 ,0.14473 ,1.42013 
327 ,66.6082 ,1.30996 ,0.16869 ,1.65518 
328 ,66.8163 ,1.31198 ,0.13105 ,1.28582 
329 ,67.0403 ,1.31423 ,0.12420 ,1.21866 
330 ,67.2486 ,1.31638 ,0.12762 ,1.25224 
331 ,67.4565 ,1.31843 ,0.10025 ,0.98361 
332 ,67.6645 ,1.32053 ,0.09340 ,0.91646 
333 ,67.8567 ,1.32243 ,0.08656 ,0.84930 
334 ,68.0647 ,1.32445 ,0.07971 ,0.78214 
335 ,68.2568 ,1.32645 ,0.05576 ,0.54710 
336 ,68.4485 ,1.32846 ,0.05576 ,0.54710 
337 ,68.6411 ,1.33030 ,0.03865 ,0.37920 
338 ,68.8493 ,1.33235 ,0.03865 ,0.37920 
339 ,69.0569 ,1.33449 ,0.01811 ,0.17773 
340 ,69.2652 ,1.33649 ,0.00785 ,0.07700 
341 ,69.4569 ,1.33849 ,-0.00926 ,-0.09089 
342 ,69.6654 ,1.34049 ,0.00100 ,0.00984 
343 ,69.8894 ,1.34276 ,-0.01611 ,-0.15805 
344 ,70.0816 ,1.34471 ,-0.04691 ,-0.46025 
345 ,70.2897 ,1.34677 ,-0.03664 ,-0.35952 
346 ,70.4818 ,1.34873 ,-0.05717 ,-0.56099 
347 ,70.6898 ,1.35086 ,-0.06060 ,-0.59457 
348 ,70.8818 ,1.35273 ,-0.09140 ,-0.89677 
349 ,71.0900 ,1.35474 ,-0.07771 ,-0.76246 
350 ,71.2821 ,1.35671 ,-0.10166 ,-0.99751 
351 ,71.4902 ,1.35876 ,-0.11193 ,-1.09824 
352 ,71.6979 ,1.36083 ,-0.12219 ,-1.19898 
353 ,71.9063 ,1.36296 ,-0.11535 ,-1.13182 
354 ,72.1304 ,1.36515 ,-0.14273 ,-1.40045 
355 ,72.3386 ,1.36726 ,-0.16326 ,-1.60191 
356 ,72.5464 ,1.36932 ,-0.15642 ,-1.53476 
357 ,72.7388 ,1.37127 ,-0.18037 ,-1.76981 
358 ,72.9464 ,1.37335 ,-0.18379 ,-1.80338 
359 ,73.1547 ,1.37536 ,-0.19064 ,-1.87054 
360 ,73.3629 ,1.37746 ,-0.19064 ,-1.87054 
361 ,73.5710 ,1.37953 ,-0.21117 ,-2.07201 
362 ,73.7948 ,1.38166 ,-0.22144 ,-2.17275 
363 ,74.0030 ,1.38391 ,-0.23513 ,-2.30706 
364 ,74.2113 ,1.38599 ,-0.23513 ,-2.30706 
365 ,74.4033 ,1.38802 ,-0.26935 ,-2.64284 
366 ,74.5954 ,1.38982 ,-0.26935 ,-2.64284 
367 ,74.8196 ,1.39202 ,-0.27277 ,-2.67642 
368 ,75.0112 ,1.39404 ,-0.27619 ,-2.71000 
369 ,75.2037 ,1.39590 ,-0.28646 ,-2.81073 
370 ,75.4118 ,1.39796 ,-0.30015 ,-2.94505 
371 ,75.6197 ,1.39997 ,-0.31726 ,-3.11294 
372 ,75.8120 ,1.40199 ,-0.31041 ,-3.04578 
373 ,76.0037 ,1.40399 ,-0.33437 ,-3.28083 
374 ,76.1960 ,1.40589 ,-0.34806 ,-3.41514 
375 ,76.4197 ,1.40797 ,-0.35832 ,-3.51588 
376 ,76.6123 ,1.40994 ,-0.35490 ,-3.48230 
377 ,76.8205 ,1.41199 ,-0.37201 ,-3.65019 
378 ,77.0284 ,1.41412 ,-0.38228 ,-3.75093 
379 ,77.2364 ,1.41628 ,-0.39939 ,-3.91882 
380 ,77.4287 ,1.41811 ,-0.39597 ,-3.88524 
381 ,77.6367 ,1.42021 ,-0.41308 ,-4.05313 
382 ,77.8127 ,1.42211 ,-0.39597 ,-3.88524 
383 ,78.0369 ,1.42406 ,-0.41992 ,-4.12029 
384 ,78.2447 ,1.42629 ,-0.42677 ,-4.18744 
385 ,78.4530 ,1.42836 ,-0.46099 ,-4.52323 
386 ,78.6770 ,1.43056 ,-0.46099 ,-4.52323 
387 ,78.8532 ,1.43250 ,-0.45072 ,-4.42249 
388 ,79.0613 ,1.43442 ,-0.45757 ,-4.48965 
389 ,79.2535 ,1.43648 ,-0.47468 ,-4.65754 
390 ,79.4615 ,1.43840 ,-0.49521 ,-4.85901 
391 ,79.6696 ,1.44052 ,-0.48494 ,-4.75828 
392 ,79.8615 ,1.44247 ,-0.51574 ,-5.06048 
393 ,80.0534 ,1.44439 ,-0.53285 ,-5.22837 
394 ,80.2459 ,1.44626 ,-0.52259 ,-5.12764 
395 ,80.4536 ,1.44837 ,-0.54312 ,-5.32911 
396 ,80.6781 ,1.45047 ,-0.53970 ,-5.29553 
397 ,80.9022 ,1.45282 ,-0.53970 ,-5.29553 
398 ,81.1102 ,1.45502 ,-0.56365 ,-5.53058 
399 ,81.3024 ,1.45686 ,-0.57050 ,-5.59773 
400 ,81.5100 ,1.45898 ,-0.58077 ,-5.69847 
401 ,81.7186 ,1.46105 ,-0.58419 ,-5.73205 
402 ,81.9262 ,1.46312 ,-0.58419 ,-5.73205 
403 ,82.1186 ,1.46502 ,-0.61499 ,-6.03425 
404 ,82.3107 ,1.46694 ,-0.61841 ,-6.06783 
405 ,82.5188 ,1.46903 ,-0.63894 ,-6.26930 
406 ,82.7108 ,1.47102 ,-0.64921 ,-6.37003 
407 ,82.9025 ,1.47283 ,-0.63552 ,-6.23572 
408 ,83.1106 ,1.47493 ,-0.64236 ,-6.30288 
409 ,83.3189 ,1.47701 ,-0.66974 ,-6.57150 
410 ,83.5436 ,1.47929 ,-0.65947 ,-6.47077 
411 ,83.7509 ,1.48134 ,-0.69027 ,-6.77297 
412 ,83.9435 ,1.48324 ,-0.68001 ,-6.67224 
413 ,84.1515 ,1.48528 ,-0.70054 ,-6.87371 
414 ,84.3755 ,1.48751 ,-0.70396 ,-6.90729 
415 ,84.5835 ,1.48962 ,-0.70396 ,-6.90729 
416 ,84.7913 ,1.49171 ,-0.72450 ,-7.10876 
417 ,84.9996 ,1.49378 ,-0.73476 ,-7.20949 
418 ,85.1919 ,1.49577 ,-0.75530 ,-7.41096 
419 ,85.4000 ,1.49781 ,-0.75530 ,-7.41096 
420 ,85.5919 ,1.49984 ,-0.76214 ,-7.47812 
421 ,85.7842 ,1.50162 ,-0.75530 ,-7.41096 
422 ,85.9921 ,1.50366 ,-0.78267 ,-7.67959 
423 ,86.2002 ,1.50579 ,-0.77241 ,-7.57885 
424 ,86.3923 ,1.50770 ,-0.79978 ,-7.84748 
425 ,86.6004 ,1.50984 ,-0.79978 ,-7.84748 
426 ,86.8243 ,1.51197 ,-0.79294 ,-7.78032 
427 ,87.0326 ,1.51404 ,-0.83058 ,-8.14968 
428 ,87.2407 ,1.51625 ,-0.82374 ,-8.08253 
429 ,87.4329 ,1.51815 ,-0.84427 ,-8.28400 
430 ,87.6245 ,1.52009 ,-0.83401 ,-8.18326 
431 ,87.8166 ,1.52195 ,-0.85796 ,-8.41831 
432 ,87.9925 ,1.52385 ,-0.85796 ,-8.41831 
433 ,88.2008 ,1.52581 ,-0.85796 ,-8.41831 
434 ,88.4093 ,1.52790 ,-0.88192 ,-8.65336 
435 ,88.6495 ,1.53019 ,-0.88876 ,-8.72051 
436 ,88.8733 ,1.53249 ,-0.90587 ,-8.88841 
437 ,89.0652 ,1.53447 ,-0.89218 ,-8.75409 
438 ,89.2895 ,1.53664 ,-0.92983 ,-9.12345 
439 ,89.4817 ,1.53861 ,-0.90929 ,-8.92198 
440 ,89.6735 ,1.54059 ,-0.92983 ,-9.12345 
441 ,89.8658 ,1.54244 ,-0.91956 ,-9.02272 
442 ,90.0579 ,1.54440 ,-0.94351 ,-9.25777 
443 ,90.2496 ,1.54638 ,-0.95720 ,-9.39208 
444 ,90.4581 ,1.54835 ,-0.95378 ,-9.35850 
445 ,90.6661 ,1.55049 ,-0.96405 ,-9.45924 
446 ,90.8743 ,1.55247 ,-0.97774 ,-9.59355 
447 ,91.0820 ,1.55461 ,-0.97774 ,-9.59355 
448 ,91.2904 ,1.55670 ,-1.00511 ,-9.86218 
449 ,91.4985 ,1.55883 ,-1.00169 ,-9.82860 
450 ,91.7226 ,1.56097 ,-1.01538 ,-9.96291 
451 ,91.9305 ,1.56308 ,-1.02565 ,-10.06365 
452 ,92.1544 ,1.56525 ,-1.02565 ,-10.06365 
453 ,92.3470 ,1.56727 ,-1.01880 ,-9.99649 
454 ,92.5548 ,1.56934 ,-1.05302 ,-10.33227 
455 ,92.7630 ,1.57135 ,-1.04618 ,-10.26512 
456 ,92.9550 ,1.57333 ,-1.07356 ,-10.53374 
457 ,93.1791 ,1.57560 ,-1.06329 ,-10.43301 
458 ,93.3712 ,1.57751 ,-1.09067 ,-10.70163 
459 ,93.5789 ,1.57957 ,-1.08382 ,-10.63448 
460 ,93.7712 ,1.58154 ,-1.10093 ,-10.80237 
461 ,93.9796 ,1.58358 ,-1.10093 ,-10.80237 
462 ,94.2034 ,1.58573 ,-1.11120 ,-10.90310 
