Data stamp = , 05-05-2022 18:08:17 588

Calibration Values: 
Slope = , 26.54 , g/V 
Offset Voltage at no contact = , -0.501760 , V 

No , Time , Stage Position ,   Mass , Force 
   ,  (s) ,      (mm)      ,   (g)  , (mN)  

1 ,0.0000 ,0.64955 ,5.21639 ,51.18317 
2 ,0.2678 ,0.64969 ,5.23007 ,51.31749 
3 ,0.5880 ,0.65076 ,5.20954 ,51.11602 
4 ,0.8281 ,0.65258 ,5.20612 ,51.08244 
5 ,1.0687 ,0.65489 ,5.20612 ,51.08244 
6 ,1.2926 ,0.65711 ,5.20954 ,51.11602 
7 ,1.5166 ,0.65935 ,5.21639 ,51.18317 
8 ,1.7087 ,0.66132 ,5.22323 ,51.25033 
9 ,1.9009 ,0.66332 ,5.18216 ,50.84739 
10 ,2.1088 ,0.66540 ,5.17532 ,50.78023 
11 ,2.3330 ,0.66758 ,5.14452 ,50.47803 
12 ,2.5411 ,0.66962 ,5.11714 ,50.20940 
13 ,2.7327 ,0.67155 ,5.09661 ,50.00793 
14 ,2.9253 ,0.67352 ,5.09319 ,49.97436 
15 ,3.1015 ,0.67542 ,5.05554 ,49.60499 
16 ,3.3254 ,0.67746 ,5.05897 ,49.63857 
17 ,3.5174 ,0.67948 ,5.01106 ,49.16848 
18 ,3.7412 ,0.68163 ,5.00421 ,49.10132 
19 ,3.9497 ,0.68370 ,4.98368 ,48.89985 
20 ,4.1417 ,0.68569 ,4.95972 ,48.66480 
21 ,4.3340 ,0.68762 ,4.93919 ,48.46333 
22 ,4.5579 ,0.68979 ,4.91181 ,48.19471 
23 ,4.7981 ,0.69209 ,4.89128 ,47.99324 
24 ,5.0221 ,0.69442 ,4.87759 ,47.85892 
25 ,5.2462 ,0.69667 ,4.85706 ,47.65745 
26 ,5.4380 ,0.69872 ,4.81599 ,47.25451 
27 ,5.6305 ,0.70057 ,4.82284 ,47.32167 
28 ,5.8543 ,0.70273 ,4.78177 ,46.91873 
29 ,6.0624 ,0.70480 ,4.77835 ,46.88515 
30 ,6.2546 ,0.70686 ,4.74755 ,46.58295 
31 ,6.4467 ,0.70878 ,4.73728 ,46.48221 
32 ,6.6548 ,0.71081 ,4.70306 ,46.14643 
33 ,6.8628 ,0.71285 ,4.69622 ,46.07927 
34 ,7.0706 ,0.71493 ,4.65173 ,45.64275 
35 ,7.2796 ,0.71703 ,4.64488 ,45.57560 
36 ,7.4872 ,0.71911 ,4.64488 ,45.57560 
37 ,7.6954 ,0.72118 ,4.59697 ,45.10550 
38 ,7.9195 ,0.72341 ,4.58328 ,44.97119 
39 ,8.1271 ,0.72548 ,4.56275 ,44.76972 
40 ,8.3356 ,0.72761 ,4.54222 ,44.56825 
41 ,8.5594 ,0.72981 ,4.51484 ,44.29962 
42 ,8.7517 ,0.73174 ,4.50457 ,44.19889 
43 ,8.9758 ,0.73397 ,4.48062 ,43.96384 
44 ,9.1676 ,0.73596 ,4.48746 ,44.03100 
45 ,9.3600 ,0.73790 ,4.44298 ,43.59448 
46 ,9.5521 ,0.73980 ,4.43271 ,43.49374 
47 ,9.8243 ,0.74244 ,4.41902 ,43.35943 
48 ,10.0322 ,0.74452 ,4.37795 ,42.95649 
49 ,10.2404 ,0.74663 ,4.38138 ,42.99007 
50 ,10.4484 ,0.74870 ,4.37111 ,42.88933 
51 ,10.6406 ,0.75064 ,4.35400 ,42.72144 
52 ,10.8485 ,0.75271 ,4.31636 ,42.35208 
53 ,11.0407 ,0.75465 ,4.29924 ,42.18419 
54 ,11.2485 ,0.75673 ,4.28556 ,42.04988 
55 ,11.4404 ,0.75870 ,4.27529 ,41.94914 
56 ,11.6488 ,0.76067 ,4.24791 ,41.68051 
57 ,11.8731 ,0.76296 ,4.23080 ,41.51262 
58 ,12.0817 ,0.76504 ,4.20342 ,41.24400 
59 ,12.2731 ,0.76700 ,4.17947 ,41.00895 
60 ,12.4493 ,0.76886 ,4.17605 ,40.97537 
61 ,12.6573 ,0.77076 ,4.15551 ,40.77390 
62 ,12.8655 ,0.77284 ,4.14183 ,40.63959 
63 ,13.0576 ,0.77487 ,4.11103 ,40.33738 
64 ,13.2654 ,0.77691 ,4.10760 ,40.30380 
65 ,13.4735 ,0.77893 ,4.06654 ,39.90087 
66 ,13.6654 ,0.78096 ,4.05627 ,39.80013 
67 ,13.8576 ,0.78282 ,4.02889 ,39.53150 
68 ,14.0660 ,0.78488 ,4.03232 ,39.56508 
69 ,14.2901 ,0.78705 ,3.98783 ,39.12856 
70 ,14.4982 ,0.78914 ,3.99467 ,39.19572 
71 ,14.6900 ,0.79113 ,3.94676 ,38.72562 
72 ,14.9144 ,0.79335 ,3.92965 ,38.55773 
73 ,15.1222 ,0.79545 ,3.93992 ,38.65847 
74 ,15.3304 ,0.79750 ,3.89543 ,38.22195 
75 ,15.5225 ,0.79947 ,3.90912 ,38.35626 
76 ,15.7147 ,0.80136 ,3.85779 ,37.85259 
77 ,15.9068 ,0.80330 ,3.86463 ,37.91975 
78 ,16.0989 ,0.80526 ,3.83383 ,37.61754 
79 ,16.3070 ,0.80725 ,3.81330 ,37.41607 
80 ,16.5151 ,0.80932 ,3.78250 ,37.11387 
81 ,16.7230 ,0.81144 ,3.78934 ,37.18102 
82 ,16.9149 ,0.81343 ,3.74828 ,36.77808 
83 ,17.1232 ,0.81544 ,3.75170 ,36.81166 
84 ,17.3312 ,0.81753 ,3.71405 ,36.44230 
85 ,17.5557 ,0.81970 ,3.70721 ,36.37514 
86 ,17.7636 ,0.82177 ,3.67983 ,36.10652 
87 ,17.9716 ,0.82396 ,3.65588 ,35.87147 
88 ,18.1798 ,0.82594 ,3.65588 ,35.87147 
89 ,18.3878 ,0.82804 ,3.61481 ,35.46853 
90 ,18.5957 ,0.83017 ,3.59428 ,35.26706 
91 ,18.8199 ,0.83240 ,3.59428 ,35.26706 
92 ,19.0120 ,0.83432 ,3.55663 ,34.89770 
93 ,19.2038 ,0.83639 ,3.55663 ,34.89770 
94 ,19.3963 ,0.83818 ,3.52241 ,34.56192 
95 ,19.5880 ,0.84014 ,3.50530 ,34.39402 
96 ,19.7810 ,0.84199 ,3.49504 ,34.29329 
97 ,20.0045 ,0.84425 ,3.48135 ,34.15898 
98 ,20.2443 ,0.84649 ,3.45739 ,33.92393 
99 ,20.4367 ,0.84859 ,3.42317 ,33.58814 
100 ,20.6445 ,0.85063 ,3.41633 ,33.52099 
101 ,20.8527 ,0.85276 ,3.38210 ,33.18520 
102 ,21.0768 ,0.85490 ,3.39579 ,33.31952 
103 ,21.2687 ,0.85688 ,3.35473 ,32.91658 
104 ,21.4771 ,0.85897 ,3.35473 ,32.91658 
105 ,21.6850 ,0.86108 ,3.32393 ,32.61437 
106 ,21.8933 ,0.86314 ,3.28971 ,32.27859 
107 ,22.1174 ,0.86522 ,3.28971 ,32.27859 
108 ,22.3254 ,0.86744 ,3.25891 ,31.97639 
109 ,22.5175 ,0.86945 ,3.24522 ,31.84207 
110 ,22.7096 ,0.87130 ,3.22468 ,31.64060 
111 ,22.9176 ,0.87338 ,3.22126 ,31.60702 
112 ,23.1097 ,0.87529 ,3.19046 ,31.30482 
113 ,23.3016 ,0.87722 ,3.18704 ,31.27124 
114 ,23.5095 ,0.87929 ,3.14940 ,30.90188 
115 ,23.7180 ,0.88137 ,3.14255 ,30.83472 
116 ,23.9259 ,0.88344 ,3.12544 ,30.66683 
117 ,24.1181 ,0.88538 ,3.11518 ,30.56610 
118 ,24.3103 ,0.88730 ,3.08438 ,30.26389 
119 ,24.5183 ,0.88937 ,3.07753 ,30.19674 
120 ,24.7104 ,0.89132 ,3.05015 ,29.92811 
121 ,24.9184 ,0.89345 ,3.04331 ,29.86095 
122 ,25.1105 ,0.89525 ,3.01251 ,29.55875 
123 ,25.3027 ,0.89720 ,3.00567 ,29.49159 
124 ,25.5105 ,0.89921 ,2.97144 ,29.15581 
125 ,25.7184 ,0.90129 ,2.98513 ,29.29012 
126 ,25.9107 ,0.90331 ,2.96118 ,29.05507 
127 ,26.1189 ,0.90538 ,2.95091 ,28.95434 
128 ,26.3272 ,0.90745 ,2.92011 ,28.65213 
129 ,26.5191 ,0.90946 ,2.91669 ,28.61856 
130 ,26.7111 ,0.91129 ,2.86536 ,28.11488 
131 ,26.9194 ,0.91329 ,2.85851 ,28.04772 
132 ,27.1435 ,0.91552 ,2.84825 ,27.94699 
133 ,27.3516 ,0.91766 ,2.84825 ,27.94699 
134 ,27.5435 ,0.91963 ,2.82087 ,27.67836 
135 ,27.7514 ,0.92166 ,2.80718 ,27.54405 
136 ,27.9438 ,0.92364 ,2.78322 ,27.30900 
137 ,28.1359 ,0.92555 ,2.77980 ,27.27542 
138 ,28.3435 ,0.92763 ,2.73874 ,26.87248 
139 ,28.5517 ,0.92959 ,2.74900 ,26.97322 
140 ,28.7597 ,0.93177 ,2.71136 ,26.60386 
141 ,28.9678 ,0.93380 ,2.70452 ,26.53670 
142 ,29.1763 ,0.93590 ,2.68740 ,26.36881 
143 ,29.4002 ,0.93814 ,2.66003 ,26.10018 
144 ,29.6085 ,0.94027 ,2.63607 ,25.86514 
145 ,29.8007 ,0.94219 ,2.63949 ,25.89871 
146 ,30.0087 ,0.94420 ,2.60869 ,25.59651 
147 ,30.2167 ,0.94633 ,2.60527 ,25.56293 
148 ,30.4246 ,0.94840 ,2.58474 ,25.36146 
149 ,30.6488 ,0.95063 ,2.56078 ,25.12641 
150 ,30.8407 ,0.95260 ,2.55052 ,25.02568 
151 ,31.0491 ,0.95468 ,2.53341 ,24.85779 
152 ,31.2569 ,0.95680 ,2.51972 ,24.72347 
153 ,31.4493 ,0.95866 ,2.48892 ,24.42127 
154 ,31.6574 ,0.96070 ,2.47865 ,24.32053 
155 ,31.8817 ,0.96299 ,2.47181 ,24.25338 
156 ,32.0893 ,0.96506 ,2.45470 ,24.08549 
157 ,32.2972 ,0.96709 ,2.43416 ,23.88402 
158 ,32.5058 ,0.96914 ,2.39652 ,23.51465 
159 ,32.7297 ,0.97139 ,2.41705 ,23.71612 
160 ,32.9219 ,0.97343 ,2.38283 ,23.38034 
161 ,33.1300 ,0.97540 ,2.36572 ,23.21245 
162 ,33.3219 ,0.97738 ,2.35203 ,23.07814 
163 ,33.5460 ,0.97961 ,2.33492 ,22.91024 
164 ,33.7542 ,0.98171 ,2.32808 ,22.84309 
165 ,33.9463 ,0.98357 ,2.28701 ,22.44015 
166 ,34.1384 ,0.98558 ,2.29385 ,22.50731 
167 ,34.3465 ,0.98760 ,2.25963 ,22.17152 
168 ,34.5539 ,0.98968 ,2.25963 ,22.17152 
169 ,34.7467 ,0.99162 ,2.22883 ,21.86932 
170 ,34.9547 ,0.99367 ,2.23568 ,21.93647 
171 ,35.1786 ,0.99586 ,2.20488 ,21.63427 
172 ,35.3709 ,0.99784 ,2.18092 ,21.39922 
173 ,35.5785 ,0.99987 ,2.17750 ,21.36564 
174 ,35.7870 ,1.00197 ,2.15355 ,21.13059 
175 ,35.9951 ,1.00412 ,2.15355 ,21.13059 
176 ,36.1871 ,1.00601 ,2.11590 ,20.76123 
177 ,36.3792 ,1.00803 ,2.11590 ,20.76123 
178 ,36.5712 ,1.00988 ,2.09537 ,20.55976 
179 ,36.7794 ,1.01189 ,2.07141 ,20.32472 
180 ,36.9715 ,1.01389 ,2.06799 ,20.29114 
181 ,37.1957 ,1.01611 ,2.04746 ,20.08967 
182 ,37.4037 ,1.01810 ,2.02693 ,19.88820 
183 ,37.6438 ,1.02045 ,2.03035 ,19.92178 
184 ,37.8674 ,1.02274 ,2.00639 ,19.68673 
185 ,38.0600 ,1.02476 ,1.99270 ,19.55241 
186 ,38.2678 ,1.02679 ,1.96190 ,19.25021 
187 ,38.4760 ,1.02892 ,1.96190 ,19.25021 
188 ,38.6681 ,1.03081 ,1.93111 ,18.94801 
189 ,38.8764 ,1.03288 ,1.93795 ,19.01516 
190 ,39.0845 ,1.03495 ,1.90031 ,18.64580 
191 ,39.2924 ,1.03707 ,1.89346 ,18.57864 
192 ,39.4847 ,1.03899 ,1.86951 ,18.34360 
193 ,39.6926 ,1.04103 ,1.86608 ,18.31002 
194 ,39.9167 ,1.04332 ,1.84213 ,18.07497 
195 ,40.1088 ,1.04530 ,1.82160 ,17.87350 
196 ,40.3007 ,1.04715 ,1.80449 ,17.70561 
197 ,40.5088 ,1.04922 ,1.79764 ,17.63845 
198 ,40.7171 ,1.05125 ,1.79764 ,17.63845 
199 ,40.9251 ,1.05336 ,1.76342 ,17.30267 
200 ,41.1328 ,1.05549 ,1.77369 ,17.40340 
201 ,41.3411 ,1.05753 ,1.73604 ,17.03404 
202 ,41.5494 ,1.05961 ,1.72235 ,16.89973 
203 ,41.7574 ,1.06167 ,1.70866 ,16.76542 
204 ,41.9656 ,1.06375 ,1.69840 ,16.66468 
205 ,42.1737 ,1.06581 ,1.69155 ,16.59752 
206 ,42.4294 ,1.06845 ,1.67444 ,16.42963 
207 ,42.6374 ,1.07046 ,1.65391 ,16.22816 
208 ,42.8298 ,1.07241 ,1.65049 ,16.19458 
209 ,43.0379 ,1.07452 ,1.63338 ,16.02669 
210 ,43.2620 ,1.07671 ,1.58547 ,15.55660 
211 ,43.4863 ,1.07891 ,1.58204 ,15.52302 
212 ,43.6943 ,1.08105 ,1.58547 ,15.55660 
213 ,43.9024 ,1.08307 ,1.55124 ,15.22081 
214 ,44.1107 ,1.08525 ,1.54440 ,15.15366 
215 ,44.3186 ,1.08732 ,1.52729 ,14.98577 
216 ,44.5262 ,1.08948 ,1.49307 ,14.64998 
217 ,44.7026 ,1.09129 ,1.48622 ,14.58283 
218 ,44.9109 ,1.09323 ,1.48965 ,14.61640 
219 ,45.1190 ,1.09531 ,1.46227 ,14.34778 
220 ,45.3270 ,1.09741 ,1.45885 ,14.31420 
221 ,45.5350 ,1.09938 ,1.44858 ,14.21346 
222 ,45.7753 ,1.10174 ,1.41436 ,13.87768 
223 ,45.9990 ,1.10405 ,1.39383 ,13.67621 
224 ,46.1909 ,1.10604 ,1.39383 ,13.67621 
225 ,46.3991 ,1.10809 ,1.38356 ,13.57548 
226 ,46.6070 ,1.11018 ,1.36987 ,13.44116 
227 ,46.8155 ,1.11225 ,1.34591 ,13.20612 
228 ,47.0715 ,1.11478 ,1.33565 ,13.10538 
229 ,47.2636 ,1.11674 ,1.31512 ,12.90391 
230 ,47.4719 ,1.11878 ,1.30485 ,12.80318 
231 ,47.6801 ,1.12082 ,1.28774 ,12.63528 
232 ,47.8880 ,1.12302 ,1.27405 ,12.50097 
233 ,48.0802 ,1.12485 ,1.26720 ,12.43381 
234 ,48.2722 ,1.12684 ,1.26036 ,12.36666 
235 ,48.4803 ,1.12886 ,1.23641 ,12.13161 
236 ,48.6883 ,1.13090 ,1.23298 ,12.09803 
237 ,48.8962 ,1.13306 ,1.21245 ,11.89656 
238 ,49.1045 ,1.13517 ,1.20561 ,11.82941 
239 ,49.3127 ,1.13720 ,1.19876 ,11.76225 
240 ,49.5208 ,1.13927 ,1.15770 ,11.35931 
241 ,49.7289 ,1.14137 ,1.16796 ,11.46004 
242 ,49.9369 ,1.14348 ,1.14058 ,11.19142 
243 ,50.1290 ,1.14541 ,1.14743 ,11.25857 
244 ,50.3371 ,1.14736 ,1.10636 ,10.85563 
245 ,50.5606 ,1.14963 ,1.09267 ,10.72132 
246 ,50.7533 ,1.15164 ,1.09952 ,10.78848 
247 ,50.9614 ,1.15367 ,1.06187 ,10.41912 
248 ,51.1689 ,1.15571 ,1.07214 ,10.51985 
249 ,51.3613 ,1.15771 ,1.03792 ,10.18407 
250 ,51.5856 ,1.15991 ,1.04819 ,10.28480 
251 ,51.7774 ,1.16183 ,1.01396 ,9.94902 
252 ,51.9860 ,1.16392 ,1.00370 ,9.84829 
253 ,52.1934 ,1.16599 ,0.99343 ,9.74755 
254 ,52.4018 ,1.16810 ,0.98659 ,9.68039 
255 ,52.6099 ,1.17021 ,0.97290 ,9.54608 
256 ,52.8021 ,1.17209 ,0.95237 ,9.34461 
257 ,53.0103 ,1.17412 ,0.95579 ,9.37819 
258 ,53.2184 ,1.17629 ,0.91814 ,9.00883 
259 ,53.4582 ,1.17865 ,0.91130 ,8.94167 
260 ,53.6664 ,1.18080 ,0.90103 ,8.84094 
261 ,53.8906 ,1.18291 ,0.89761 ,8.80736 
262 ,54.1147 ,1.18511 ,0.86339 ,8.47158 
263 ,54.3386 ,1.18740 ,0.83943 ,8.23653 
264 ,54.5304 ,1.18935 ,0.84628 ,8.30368 
265 ,54.7228 ,1.19128 ,0.82917 ,8.13579 
266 ,54.9470 ,1.19355 ,0.84628 ,8.30368 
267 ,55.1550 ,1.19557 ,0.80863 ,7.93432 
268 ,55.3472 ,1.19751 ,0.80521 ,7.90074 
269 ,55.5387 ,1.19954 ,0.78126 ,7.66570 
270 ,55.7473 ,1.20148 ,0.78126 ,7.66570 
271 ,55.9554 ,1.20366 ,0.76072 ,7.46423 
272 ,56.1635 ,1.20565 ,0.74361 ,7.29633 
273 ,56.3713 ,1.20777 ,0.75046 ,7.36349 
274 ,56.5794 ,1.20980 ,0.70255 ,6.89340 
275 ,56.8034 ,1.21206 ,0.71966 ,7.06129 
276 ,57.0277 ,1.21422 ,0.69570 ,6.82624 
277 ,57.2358 ,1.21637 ,0.66833 ,6.55761 
278 ,57.4280 ,1.21831 ,0.67517 ,6.62477 
279 ,57.6361 ,1.22040 ,0.65121 ,6.38972 
280 ,57.8440 ,1.22253 ,0.64779 ,6.35614 
281 ,58.0520 ,1.22454 ,0.64095 ,6.28899 
282 ,58.2444 ,1.22653 ,0.61015 ,5.98678 
283 ,58.4522 ,1.22853 ,0.60673 ,5.95320 
284 ,58.6606 ,1.23059 ,0.58962 ,5.78531 
285 ,58.8681 ,1.23282 ,0.59304 ,5.81889 
286 ,59.0607 ,1.23468 ,0.56224 ,5.51668 
287 ,59.2684 ,1.23685 ,0.54513 ,5.34879 
288 ,59.4608 ,1.23866 ,0.54171 ,5.31522 
289 ,59.6528 ,1.24060 ,0.53486 ,5.24806 
290 ,59.8608 ,1.24264 ,0.51433 ,5.04659 
291 ,60.0691 ,1.24464 ,0.50748 ,4.97943 
292 ,60.2612 ,1.24665 ,0.50406 ,4.94585 
293 ,60.4693 ,1.24872 ,0.49037 ,4.81154 
294 ,60.6610 ,1.25079 ,0.45957 ,4.50934 
295 ,60.8694 ,1.25273 ,0.48011 ,4.71081 
296 ,61.0772 ,1.25484 ,0.44931 ,4.40860 
297 ,61.2861 ,1.25684 ,0.44588 ,4.37502 
298 ,61.5098 ,1.25908 ,0.43220 ,4.24071 
299 ,61.7177 ,1.26127 ,0.40482 ,3.97208 
300 ,61.9100 ,1.26319 ,0.41851 ,4.10640 
301 ,62.1336 ,1.26532 ,0.38771 ,3.80419 
302 ,62.3421 ,1.26743 ,0.36375 ,3.56914 
303 ,62.5662 ,1.26963 ,0.37744 ,3.70346 
304 ,62.7744 ,1.27170 ,0.34322 ,3.36767 
305 ,62.9661 ,1.27370 ,0.35349 ,3.46841 
306 ,63.1741 ,1.27573 ,0.32953 ,3.23336 
307 ,63.3986 ,1.27799 ,0.31584 ,3.09905 
308 ,63.6222 ,1.28023 ,0.31584 ,3.09905 
309 ,63.8144 ,1.28215 ,0.29189 ,2.86400 
310 ,64.0067 ,1.28409 ,0.29189 ,2.86400 
311 ,64.1989 ,1.28602 ,0.26793 ,2.62895 
312 ,64.3906 ,1.28794 ,0.27820 ,2.72969 
313 ,64.6151 ,1.29014 ,0.25424 ,2.49464 
314 ,64.8231 ,1.29221 ,0.24055 ,2.36032 
315 ,65.0472 ,1.29447 ,0.23713 ,2.32675 
316 ,65.2552 ,1.29653 ,0.20976 ,2.05812 
317 ,65.4469 ,1.29851 ,0.21318 ,2.09170 
318 ,65.6550 ,1.30052 ,0.17896 ,1.75592 
319 ,65.8475 ,1.30253 ,0.19264 ,1.89023 
320 ,66.0554 ,1.30457 ,0.17211 ,1.68876 
321 ,66.2475 ,1.30652 ,0.16869 ,1.65518 
322 ,66.4556 ,1.30859 ,0.14473 ,1.42013 
323 ,66.6800 ,1.31079 ,0.13789 ,1.35298 
324 ,66.8880 ,1.31292 ,0.13105 ,1.28582 
325 ,67.0961 ,1.31498 ,0.10367 ,1.01719 
326 ,67.3203 ,1.31722 ,0.11051 ,1.08435 
327 ,67.5282 ,1.31932 ,0.10367 ,1.01719 
328 ,67.7202 ,1.32123 ,0.08314 ,0.81572 
329 ,67.9445 ,1.32340 ,0.07629 ,0.74857 
330 ,68.1526 ,1.32553 ,0.05576 ,0.54710 
331 ,68.3606 ,1.32760 ,0.06602 ,0.64783 
332 ,68.5686 ,1.32970 ,0.05576 ,0.54710 
333 ,68.7606 ,1.33161 ,0.02496 ,0.24489 
334 ,68.9527 ,1.33350 ,0.01469 ,0.14416 
335 ,69.1448 ,1.33546 ,0.01811 ,0.17773 
336 ,69.3531 ,1.33745 ,-0.01269 ,-0.12447 
337 ,69.5773 ,1.33974 ,-0.01953 ,-0.19163 
338 ,69.8007 ,1.34199 ,-0.01953 ,-0.19163 
339 ,69.9933 ,1.34397 ,-0.03322 ,-0.32594 
340 ,70.2014 ,1.34598 ,-0.05033 ,-0.49383 
341 ,70.4092 ,1.34811 ,-0.05375 ,-0.52741 
342 ,70.6176 ,1.35016 ,-0.07428 ,-0.72888 
343 ,70.8257 ,1.35222 ,-0.07771 ,-0.76246 
344 ,71.0497 ,1.35454 ,-0.08797 ,-0.86319 
345 ,71.2575 ,1.35658 ,-0.10508 ,-1.03108 
346 ,71.4656 ,1.35865 ,-0.10851 ,-1.06466 
347 ,71.6740 ,1.36079 ,-0.12562 ,-1.23255 
348 ,71.8818 ,1.36277 ,-0.13588 ,-1.33329 
349 ,72.0740 ,1.36477 ,-0.13931 ,-1.36687 
350 ,72.2662 ,1.36671 ,-0.13246 ,-1.29971 
351 ,72.4744 ,1.36878 ,-0.17011 ,-1.66907 
352 ,72.6823 ,1.37076 ,-0.18037 ,-1.76981 
353 ,72.8745 ,1.37277 ,-0.18722 ,-1.83696 
354 ,73.0822 ,1.37484 ,-0.18379 ,-1.80338 
355 ,73.2907 ,1.37688 ,-0.20433 ,-2.00485 
356 ,73.5147 ,1.37912 ,-0.22144 ,-2.17275 
357 ,73.7067 ,1.38103 ,-0.20775 ,-2.03843 
358 ,73.8989 ,1.38306 ,-0.24197 ,-2.37422 
359 ,74.0911 ,1.38491 ,-0.23855 ,-2.34064 
360 ,74.3148 ,1.38714 ,-0.26593 ,-2.60926 
361 ,74.5230 ,1.38921 ,-0.27277 ,-2.67642 
362 ,74.7312 ,1.39138 ,-0.26250 ,-2.57569 
363 ,74.9391 ,1.39335 ,-0.28646 ,-2.81073 
364 ,75.1475 ,1.39539 ,-0.27961 ,-2.74358 
365 ,75.3555 ,1.39748 ,-0.30015 ,-2.94505 
366 ,75.5636 ,1.39969 ,-0.32068 ,-3.14652 
367 ,75.7877 ,1.40192 ,-0.31384 ,-3.07936 
368 ,76.0118 ,1.40405 ,-0.33437 ,-3.28083 
369 ,76.2198 ,1.40619 ,-0.34806 ,-3.41514 
370 ,76.4119 ,1.40813 ,-0.34806 ,-3.41514 
371 ,76.6040 ,1.41003 ,-0.35490 ,-3.48230 
372 ,76.8281 ,1.41221 ,-0.37201 ,-3.65019 
373 ,77.0522 ,1.41449 ,-0.37886 ,-3.71735 
374 ,77.2600 ,1.41653 ,-0.39597 ,-3.88524 
375 ,77.4682 ,1.41868 ,-0.40623 ,-3.98597 
376 ,77.6762 ,1.42078 ,-0.42677 ,-4.18744 
377 ,77.8847 ,1.42275 ,-0.40966 ,-4.01955 
378 ,78.0926 ,1.42486 ,-0.43019 ,-4.22102 
379 ,78.3008 ,1.42696 ,-0.44388 ,-4.35534 
380 ,78.5084 ,1.42913 ,-0.43703 ,-4.28818 
381 ,78.7169 ,1.43112 ,-0.47126 ,-4.62396 
382 ,78.9251 ,1.43324 ,-0.45414 ,-4.45607 
383 ,79.1329 ,1.43527 ,-0.49863 ,-4.89259 
384 ,79.3573 ,1.43749 ,-0.50890 ,-4.99332 
385 ,79.5650 ,1.43963 ,-0.49179 ,-4.82543 
386 ,79.7894 ,1.44181 ,-0.50548 ,-4.95975 
387 ,79.9975 ,1.44400 ,-0.53285 ,-5.22837 
388 ,80.1895 ,1.44590 ,-0.52259 ,-5.12764 
389 ,80.3814 ,1.44779 ,-0.53970 ,-5.29553 
390 ,80.6056 ,1.45002 ,-0.54312 ,-5.32911 
391 ,80.8298 ,1.45215 ,-0.56023 ,-5.49700 
392 ,81.0539 ,1.45447 ,-0.57734 ,-5.66489 
393 ,81.2619 ,1.45655 ,-0.57050 ,-5.59773 
394 ,81.4541 ,1.45847 ,-0.59103 ,-5.79920 
395 ,81.6461 ,1.46047 ,-0.58761 ,-5.76562 
396 ,81.8542 ,1.46242 ,-0.61156 ,-6.00067 
397 ,82.0463 ,1.46444 ,-0.61499 ,-6.03425 
398 ,82.2385 ,1.46639 ,-0.63894 ,-6.26930 
399 ,82.4464 ,1.46837 ,-0.62183 ,-6.10141 
400 ,82.6385 ,1.47038 ,-0.65263 ,-6.40361 
401 ,82.8464 ,1.47248 ,-0.64579 ,-6.33646 
402 ,83.0386 ,1.47446 ,-0.67316 ,-6.60508 
403 ,83.2469 ,1.47643 ,-0.65263 ,-6.40361 
404 ,83.4388 ,1.47838 ,-0.69712 ,-6.84013 
405 ,83.6470 ,1.48035 ,-0.67659 ,-6.63866 
406 ,83.8553 ,1.48248 ,-0.71081 ,-6.97444 
407 ,84.0473 ,1.48449 ,-0.70739 ,-6.94086 
408 ,84.2394 ,1.48639 ,-0.71765 ,-7.04160 
409 ,84.4313 ,1.48837 ,-0.72107 ,-7.07518 
410 ,84.6234 ,1.49021 ,-0.72792 ,-7.14233 
411 ,84.8156 ,1.49211 ,-0.75187 ,-7.37738 
412 ,85.0236 ,1.49414 ,-0.75187 ,-7.37738 
413 ,85.2317 ,1.49625 ,-0.76556 ,-7.51170 
414 ,85.4558 ,1.49847 ,-0.78267 ,-7.67959 
415 ,85.6479 ,1.50047 ,-0.76898 ,-7.54527 
416 ,85.8560 ,1.50255 ,-0.79294 ,-7.78032 
417 ,86.0801 ,1.50469 ,-0.79636 ,-7.81390 
418 ,86.2883 ,1.50691 ,-0.79636 ,-7.81390 
419 ,86.5120 ,1.50893 ,-0.82374 ,-8.08253 
420 ,86.7202 ,1.51111 ,-0.83058 ,-8.14968 
421 ,86.9122 ,1.51307 ,-0.82716 ,-8.11611 
422 ,87.1205 ,1.51516 ,-0.83401 ,-8.18326 
423 ,87.3288 ,1.51717 ,-0.84427 ,-8.28400 
424 ,87.5367 ,1.51936 ,-0.86823 ,-8.51904 
425 ,87.7608 ,1.52148 ,-0.86481 ,-8.48547 
426 ,87.9689 ,1.52363 ,-0.86481 ,-8.48547 
427 ,88.1771 ,1.52570 ,-0.88876 ,-8.72051 
428 ,88.3846 ,1.52777 ,-0.88534 ,-8.68694 
429 ,88.5930 ,1.52978 ,-0.91272 ,-8.95556 
430 ,88.7857 ,1.53185 ,-0.90245 ,-8.85483 
431 ,88.9933 ,1.53387 ,-0.91614 ,-8.98914 
432 ,89.2009 ,1.53591 ,-0.93325 ,-9.15703 
433 ,89.3935 ,1.53782 ,-0.92298 ,-9.05630 
434 ,89.6012 ,1.53992 ,-0.94009 ,-9.22419 
435 ,89.8255 ,1.54217 ,-0.96063 ,-9.42566 
436 ,90.0178 ,1.54413 ,-0.97431 ,-9.55997 
437 ,90.2258 ,1.54615 ,-0.96063 ,-9.42566 
438 ,90.4339 ,1.54822 ,-0.98458 ,-9.66071 
439 ,90.6579 ,1.55048 ,-0.99827 ,-9.79502 
440 ,90.8660 ,1.55254 ,-0.99143 ,-9.72786 
441 ,91.0742 ,1.55469 ,-1.00169 ,-9.82860 
442 ,91.2820 ,1.55668 ,-1.00854 ,-9.89576 
443 ,91.4903 ,1.55881 ,-1.02565 ,-10.06365 
444 ,91.6980 ,1.56085 ,-1.03249 ,-10.13080 
445 ,91.8905 ,1.56282 ,-1.03249 ,-10.13080 
446 ,92.0986 ,1.56493 ,-1.06329 ,-10.43301 
447 ,92.2905 ,1.56690 ,-1.03249 ,-10.13080 
448 ,92.4827 ,1.56878 ,-1.07014 ,-10.50016 
449 ,92.6904 ,1.57076 ,-1.05987 ,-10.39943 
450 ,92.8989 ,1.57289 ,-1.07356 ,-10.53374 
451 ,93.1071 ,1.57502 ,-1.07014 ,-10.50016 
452 ,93.3151 ,1.57697 ,-1.10093 ,-10.80237 
453 ,93.5390 ,1.57923 ,-1.10093 ,-10.80237 
454 ,93.7311 ,1.58123 ,-1.09751 ,-10.76879 
455 ,93.9071 ,1.58312 ,-1.11120 ,-10.90310 
456 ,94.0993 ,1.58490 ,-1.12489 ,-11.03742 
457 ,94.2914 ,1.58686 ,-1.13173 ,-11.10457 
458 ,94.5155 ,1.58900 ,-1.16253 ,-11.40678 
459 ,94.7077 ,1.59105 ,-1.14200 ,-11.20531 
460 ,94.9153 ,1.59308 ,-1.16253 ,-11.40678 
461 ,95.1237 ,1.59511 ,-1.15911 ,-11.37320 
