Point No.,Normal Force [N],Gap [mm],Time [s]
1.0,4.490176,10.9233,615
2.0,4.490188,10.9233,615
3.0,4.485375,10.9233,615
4.0,4.477721,10.9233,615
5.0,4.441037,10.9257,615
6.0,4.407569,10.9289,615
7.0,4.364509,10.9332,615
8.0,4.314901,10.9388,615
9.0,4.250994,10.9431,615
10.0,4.184919,10.9481,615
11.0,4.131034,10.9531,615.1
12.0,4.077502,10.9587,615.1
13.0,4.025123,10.9630,615.1
14.0,3.961452,10.9680,615.1
15.0,3.897833,10.9729,615.1
16.0,3.862371,10.9785,615.1
17.0,3.816524,10.9829,615.1
18.0,3.775637,10.9879,615.1
19.0,3.723169,10.9928,615.1
20.0,3.685574,10.9978,615.1
21.0,3.629818,11.0028,615.2
22.0,3.583336,11.0077,615.2
23.0,3.535265,11.0127,615.2
24.0,3.501845,11.0177,615.2
25.0,3.450585,11.0227,615.2
26.0,3.410021,11.0276,615.2
27.0,3.365409,11.0326,615.2
28.0,3.328459,11.0376,615.2
29.0,3.288029,11.0426,615.2
30.0,3.251338,11.0475,615.2
31.0,3.208038,11.0525,615.3
32.0,3.175308,11.0575,615.3
33.0,3.130344,11.0625,615.3
34.0,3.093937,11.0675,615.3
35.0,3.053491,11.0724,615.3
36.0,3.025901,11.0774,615.3
37.0,2.990709,11.0824,615.3
38.0,2.956554,11.0874,615.3
39.0,2.916674,11.0917,615.3
40.0,2.889465,11.0973,615.3
41.0,2.858127,11.1023,615.4
42.0,2.824952,11.1073,615.4
43.0,2.782890,11.1116,615.4
44.0,2.759717,11.1173,615.4
45.0,2.736640,11.1222,615.4
46.0,2.699362,11.1272,615.4
47.0,2.665298,11.1316,615.4
48.0,2.644365,11.1372,615.4
49.0,2.613409,11.1422,615.4
50.0,2.584926,11.1472,615.4
51.0,2.552909,11.1515,615.5
52.0,2.529247,11.1571,615.5
53.0,2.494901,11.1621,615.5
54.0,2.474611,11.1671,615.5
55.0,2.447377,11.1721,615.5
56.0,2.420987,11.1771,615.5
57.0,2.388733,11.1820,615.5
58.0,2.371251,11.1870,615.5
59.0,2.331192,11.1914,615.5
60.0,2.311838,11.1970,615.5
61.0,2.289427,11.2020,615.6
62.0,2.262235,11.2070,615.6
63.0,2.229030,11.2113,615.6
64.0,2.207830,11.2169,615.6
65.0,2.187557,11.2219,615.6
66.0,2.155001,11.2269,615.6
67.0,2.128679,11.2313,615.6
68.0,2.109271,11.2369,615.6
69.0,2.086320,11.2419,615.6
70.0,2.064709,11.2468,615.6
71.0,2.045665,11.2512,615.7
72.0,2.024559,11.2568,615.7
73.0,2.001971,11.2618,615.7
74.0,1.971981,11.2668,615.7
75.0,1.943451,11.2711,615.7
76.0,1.919899,11.2768,615.7
77.0,1.891686,11.2817,615.7
78.0,1.859500,11.2867,615.7
79.0,1.825034,11.2911,615.7
80.0,1.801106,11.2967,615.7
81.0,1.777730,11.3017,615.8
82.0,1.742151,11.3067,615.8
83.0,1.712355,11.3116,615.8
84.0,1.687101,11.3166,615.8
85.0,1.659457,11.3216,615.8
86.0,1.624386,11.3266,615.8
87.0,1.587281,11.3309,615.8
88.0,1.559264,11.3365,615.8
89.0,1.537071,11.3415,615.8
90.0,1.500849,11.3465,615.8
91.0,1.464370,11.3509,615.9
92.0,1.439041,11.3565,615.9
93.0,1.402591,11.3615,615.9
94.0,1.372123,11.3664,615.9
95.0,1.337309,11.3714,615.9
96.0,1.304312,11.3764,615.9
97.0,1.269345,11.3814,615.9
98.0,1.234452,11.3864,615.9
99.0,1.200304,11.3907,615.9
100.0,1.173271,11.3963,615.9
101.0,1.141525,11.4013,616
102.0,1.108490,11.4063,616
103.0,1.072478,11.4113,616
104.0,1.045263,11.4162,616
105.0,1.018225,11.4212,616
106.0,0.986364,11.4262,616
107.0,0.947692,11.4312,616
108.0,0.915829,11.4362,616
109.0,0.889776,11.4412,616
110.0,0.855997,11.4461,616
111.0,0.822927,11.4511,616.1
112.0,0.793846,11.4567,616.1
113.0,0.758551,11.4611,616.1
114.0,0.726542,11.4661,616.1
115.0,0.696928,11.4710,616.1
116.0,0.672383,11.4760,616.1
117.0,0.640870,11.4810,616.1
118.0,0.606853,11.4860,616.1
119.0,0.574417,11.4910,616.1
120.0,0.547173,11.4959,616.1
121.0,0.521817,11.5009,616.2
122.0,0.485969,11.5059,616.2
123.0,0.452888,11.5109,616.2
124.0,0.423044,11.5159,616.2
125.0,0.394908,11.5209,616.2
126.0,0.356647,11.5258,616.2
127.0,0.321980,11.5308,616.2
128.0,0.295125,11.5358,616.2
129.0,0.267954,11.5408,616.2
130.0,0.242200,11.5458,616.2
131.0,0.218924,11.5508,616.3
132.0,0.193210,11.5564,616.3
133.0,0.170959,11.5607,616.3
134.0,0.146056,11.5657,616.3
135.0,0.120898,11.5707,616.3
136.0,0.098672,11.5757,616.3
137.0,0.075829,11.5807,616.3
138.0,0.044936,11.5857,616.3
139.0,0.019677,11.5906,616.3
140.0,-0.001153,11.5962,616.3
141.0,-0.023977,11.6006,616.4
142.0,-0.048747,11.6056,616.4
143.0,-0.079906,11.6106,616.4
144.0,-0.097945,11.6156,616.4
145.0,-0.123708,11.6206,616.4
146.0,-0.145434,11.6255,616.4
147.0,-0.168829,11.6305,616.4
148.0,-0.197372,11.6355,616.4
149.0,-0.220526,11.6405,616.4
150.0,-0.244183,11.6455,616.4
151.0,-0.264845,11.6505,616.5
152.0,-0.289432,11.6555,616.5
153.0,-0.295142,11.6605,616.5
154.0,-0.315616,11.6654,616.5
155.0,-0.339574,11.6698,616.5
156.0,-0.353404,11.6754,616.5
157.0,-0.368167,11.6804,616.5
158.0,-0.378646,11.6854,616.5
159.0,-0.428078,11.6904,616.5
160.0,-0.447019,11.6954,616.5
161.0,-0.476126,11.7003,616.6
162.0,-0.496554,11.7053,616.6
163.0,-0.523238,11.7097,616.6
164.0,-0.546074,11.7153,616.6
165.0,-0.562708,11.7203,616.6
166.0,-0.577851,11.7253,616.6
167.0,-0.604730,11.7303,616.6
168.0,-0.628347,11.7359,616.6
169.0,-0.643290,11.7402,616.6
170.0,-0.667374,11.7452,616.6
171.0,-0.690608,11.7496,616.7
172.0,-0.709815,11.7552,616.7
173.0,-0.726385,11.7602,616.7
174.0,-0.750416,11.7652,616.7
175.0,-0.770491,11.7695,616.7
176.0,-0.792630,11.7752,616.7
177.0,-0.810994,11.7801,616.7
178.0,-0.831424,11.7851,616.7
179.0,-0.848999,11.7901,616.7
180.0,-0.871438,11.7951,616.7
181.0,-0.881910,11.8001,616.8
182.0,-0.906369,11.8051,616.8
183.0,-0.926666,11.8095,616.8
184.0,-0.946114,11.8151,616.8
185.0,-0.960928,11.8201,616.8
186.0,-0.976629,11.8250,616.8
187.0,-0.996750,11.8300,616.8
188.0,-1.017302,11.8350,616.8
189.0,-1.033053,11.8400,616.8
190.0,-1.046881,11.8450,616.8
191.0,-1.063063,11.8494,616.9
192.0,-1.078845,11.8550,616.9
193.0,-1.088747,11.8600,616.9
194.0,-1.102698,11.8650,616.9
195.0,-1.125607,11.8693,616.9
196.0,-1.137760,11.8750,616.9
197.0,-1.143493,11.8800,616.9
198.0,-1.161478,11.8849,616.9
199.0,-1.184924,11.8893,616.9
200.0,-1.197858,11.8949,616.9
201.0,-1.206556,11.8999,617
202.0,-1.224031,11.9049,617
203.0,-1.242546,11.9093,617
204.0,-1.260019,11.9149,617
205.0,-1.266339,11.9193,617
206.0,-1.280793,11.9249,617
207.0,-1.294566,11.9292,617
208.0,-1.310288,11.9349,617
209.0,-1.317173,11.9398,617
210.0,-1.326210,11.9448,617
211.0,-1.338728,11.9492,617.1
212.0,-1.347697,11.9548,617.1
213.0,-1.355080,11.9592,617.1
214.0,-1.362591,11.9642,617.1
215.0,-1.378674,11.9692,617.1
216.0,-1.386093,11.9748,617.1
217.0,-1.384096,11.9798,617.1
218.0,-1.372722,11.9848,617.1
219.0,-1.387753,11.9892,617.1
220.0,-1.401765,11.9948,617.1
221.0,-1.408525,11.9992,617.2
222.0,-1.410743,12.0042,617.2
223.0,-1.427094,12.0092,617.2
224.0,-1.437802,12.0148,617.2
225.0,-1.448859,12.0191,617.2
226.0,-1.452817,12.0248,617.2
227.0,-1.462467,12.0291,617.2
228.0,-1.471419,12.0348,617.2
229.0,-1.478062,12.0391,617.2
230.0,-1.484101,12.0441,617.2
231.0,-1.496365,12.0491,617.3
232.0,-1.513622,12.0541,617.3
233.0,-1.523222,12.0591,617.3
234.0,-1.519228,12.0641,617.3
235.0,-1.523211,12.0691,617.3
236.0,-1.535263,12.0747,617.3
237.0,-1.532544,12.0791,617.3
238.0,-1.536313,12.0841,617.3
239.0,-1.537215,12.0891,617.3
240.0,-1.547889,12.0941,617.3
241.0,-1.553353,12.0991,617.4
242.0,-1.544910,12.1041,617.4
243.0,-1.566011,12.1091,617.4
244.0,-1.578394,12.1141,617.4
245.0,-1.579748,12.1191,617.4
246.0,-1.589640,12.1241,617.4
247.0,-1.599355,12.1291,617.4
248.0,-1.618873,12.1340,617.4
249.0,-1.628868,12.1390,617.4
250.0,-1.630795,12.1440,617.4
251.0,-1.641092,12.1490,617.5
252.0,-1.652694,12.1540,617.5
253.0,-1.664129,12.1590,617.5
254.0,-1.668896,12.1640,617.5
255.0,-1.681686,12.1690,617.5
256.0,-1.693757,12.1740,617.5
257.0,-1.705207,12.1790,617.5
258.0,-1.708349,12.1840,617.5
259.0,-1.723173,12.1890,617.5
260.0,-1.736203,12.1940,617.5
261.0,-1.744012,12.1990,617.6
262.0,-1.749526,12.2040,617.6
263.0,-1.761366,12.2090,617.6
264.0,-1.769254,12.2146,617.6
265.0,-1.783005,12.2189,617.6
266.0,-1.785394,12.2239,617.6
267.0,-1.794082,12.2289,617.6
268.0,-1.809905,12.2339,617.6
269.0,-1.819757,12.2389,617.6
270.0,-1.818992,12.2439,617.6
271.0,-1.827716,12.2483,617.7
272.0,-1.840592,12.2539,617.7
273.0,-1.825478,12.2589,617.7
274.0,-1.801048,12.2639,617.7
275.0,-1.816074,12.2689,617.7
276.0,-1.828667,12.2739,617.7
277.0,-1.834566,12.2789,617.7
278.0,-1.832333,12.2839,617.7
279.0,-1.823858,12.2889,617.7
280.0,-1.834286,12.2939,617.7
281.0,-1.841410,12.2989,617.8
282.0,-1.841256,12.3039,617.8
283.0,-1.853584,12.3089,617.8
284.0,-1.867005,12.3139,617.8
285.0,-1.867192,12.3189,617.8
286.0,-1.872076,12.3239,617.8
287.0,-1.868576,12.3289,617.8
288.0,-1.878628,12.3339,617.8
289.0,-1.887073,12.3389,617.8
290.0,-1.886498,12.3439,617.8
291.0,-1.897737,12.3489,617.9
292.0,-1.902493,12.3545,617.9
293.0,-1.883703,12.3589,617.9
294.0,-1.880879,12.3639,617.9
295.0,-1.877891,12.3689,617.9
296.0,-1.857045,12.3739,617.9
297.0,-1.837837,12.3789,617.9
298.0,-1.822348,12.3839,617.9
299.0,-1.817922,12.3889,617.9
300.0,-1.826100,12.3945,617.9
301.0,-1.832878,12.3989,618
302.0,-1.819967,12.4039,618
303.0,-1.823975,12.4089,618
304.0,-1.832495,12.4139,618
305.0,-1.838172,12.4189,618
306.0,-1.844585,12.4239,618
307.0,-1.846591,12.4289,618
308.0,-1.859172,12.4339,618
309.0,-1.863493,12.4389,618
310.0,-1.869355,12.4439,618
311.0,-1.874786,12.4489,618.1
312.0,-1.885006,12.4539,618.1
313.0,-1.892493,12.4589,618.1
314.0,-1.890622,12.4639,618.1
315.0,-1.896860,12.4689,618.1
316.0,-1.877905,12.4739,618.1
317.0,-1.885871,12.4789,618.1
318.0,-1.882137,12.4839,618.1
319.0,-1.869951,12.4889,618.1
320.0,-1.876580,12.4945,618.1
321.0,-1.884244,12.4989,618.2
322.0,-1.885502,12.5039,618.2
323.0,-1.894765,12.5089,618.2
324.0,-1.901186,12.5139,618.2
325.0,-1.873280,12.5189,618.2
326.0,-1.880610,12.5239,618.2
327.0,-1.886465,12.5289,618.2
328.0,-1.893437,12.5339,618.2
329.0,-1.899156,12.5389,618.2
330.0,-1.901742,12.5439,618.2
331.0,-1.873023,12.5489,618.3
332.0,-1.878230,12.5539,618.3
333.0,-1.859699,12.5589,618.3
334.0,-1.858427,12.5639,618.3
335.0,-1.849497,12.5689,618.3
336.0,-1.828275,12.5739,618.3
337.0,-1.799329,12.5789,618.3
338.0,-1.801787,12.5839,618.3
339.0,-1.809210,12.5889,618.3
340.0,-1.813021,12.5946,618.3
341.0,-1.821041,12.5989,618.4
342.0,-1.824739,12.6039,618.4
343.0,-1.790225,12.6089,618.4
344.0,-1.792733,12.6139,618.4
345.0,-1.803919,12.6189,618.4
346.0,-1.806229,12.6239,618.4
347.0,-1.807611,12.6289,618.4
348.0,-1.814255,12.6346,618.4
349.0,-1.793004,12.6389,618.4
350.0,-1.780442,12.6440,618.4
351.0,-1.780363,12.6489,618.5
352.0,-1.788939,12.6539,618.5
353.0,-1.759301,12.6590,618.5
354.0,-1.762598,12.6640,618.5
355.0,-1.759149,12.6690,618.5
356.0,-1.767124,12.6740,618.5
357.0,-1.760285,12.6790,618.5
358.0,-1.733657,12.6840,618.5
359.0,-1.732415,12.6890,618.5
360.0,-1.744770,12.6940,618.5
361.0,-1.743107,12.6990,618.6
362.0,-1.750133,12.7040,618.6
363.0,-1.742782,12.7090,618.6
364.0,-1.709214,12.7140,618.6
365.0,-1.685899,12.7190,618.6
366.0,-1.685803,12.7240,618.6
367.0,-1.681267,12.7290,618.6
368.0,-1.680367,12.7340,618.6
369.0,-1.649829,12.7390,618.6
370.0,-1.643905,12.7440,618.6
371.0,-1.618798,12.7484,618.7
372.0,-1.622593,12.7540,618.7
373.0,-1.611768,12.7590,618.7
374.0,-1.586627,12.7641,618.7
375.0,-1.586813,12.7684,618.7
376.0,-1.580157,12.7747,618.7
377.0,-1.524288,12.7791,618.7
378.0,-1.526467,12.7841,618.7
379.0,-1.525006,12.7885,618.7
380.0,-1.528513,12.7941,618.7
381.0,-1.533089,12.7991,618.8
382.0,-1.535792,12.8041,618.8
383.0,-1.495055,12.8085,618.8
384.0,-1.463128,12.8141,618.8
385.0,-1.435329,12.8192,618.8
386.0,-1.440624,12.8242,618.8
387.0,-1.434737,12.8292,618.8
388.0,-1.440276,12.8342,618.8
389.0,-1.437968,12.8392,618.8
390.0,-1.437395,12.8442,618.8
391.0,-1.402617,12.8485,618.9
392.0,-1.391847,12.8542,618.9
393.0,-1.366500,12.8592,618.9
394.0,-1.369818,12.8636,618.9
395.0,-1.367323,12.8692,618.9
396.0,-1.372231,12.8742,618.9
397.0,-1.372890,12.8792,618.9
398.0,-1.375609,12.8836,618.9
399.0,-1.373402,12.8886,618.9
400.0,-1.376991,12.8936,618.9
401.0,-1.376395,12.8986,619
402.0,-1.377447,12.9036,619
403.0,-1.374672,12.9061,619
404.0,-1.377910,12.9114,619
405.0,-1.373063,12.9192,619
406.0,-1.348836,12.9242,619
407.0,-1.342857,12.9286,619
408.0,-1.343568,12.9336,619
409.0,-1.336226,12.9386,619
410.0,-1.252023,12.9436,619
411.0,-1.233605,12.9486,619.1
412.0,-1.231029,12.9536,619.1
413.0,-1.189689,12.9562,619.1
414.0,-1.186014,12.9615,619.1
415.0,-1.105095,12.9665,619.1
416.0,-1.096853,12.9737,619.1
417.0,-1.084456,12.9787,619.1
418.0,-1.084019,12.9837,619.1
419.0,-1.005775,12.9888,619.1
420.0,-0.972988,12.9938,619.1
421.0,-0.925095,12.9988,619.2
422.0,-0.857959,13.0014,619.2
423.0,-0.813977,13.0064,619.2
424.0,-0.811789,13.0117,619.2
425.0,-0.812446,13.0167,619.2
426.0,-0.820292,13.0239,619.2
427.0,-0.795929,13.0289,619.2
428.0,-0.773799,13.0339,619.2
429.0,-0.767171,13.0389,619.2
430.0,-0.776900,13.0439,619.2
431.0,-0.768978,13.0489,619.3
432.0,-0.768335,13.0514,619.3
433.0,-0.758653,13.0564,619.3
434.0,-0.773627,13.0614,619.3
435.0,-0.764639,13.0664,619.3
436.0,-0.759792,13.0714,619.3
437.0,-0.725661,13.0789,619.3
438.0,-0.731038,13.0839,619.3
439.0,-0.716488,13.0883,619.3
440.0,-0.633748,13.0940,619.3
441.0,-0.507168,13.0991,619.4
442.0,-0.499399,13.1041,619.4
443.0,-0.492413,13.1063,619.4
444.0,-0.496149,13.1113,619.4
445.0,-0.479586,13.1166,619.4
446.0,-0.490788,13.1216,619.4
447.0,-0.472953,13.1285,619.4
448.0,-0.479086,13.1341,619.4
449.0,-0.450009,13.1391,619.4
450.0,-0.383687,13.1441,619.4
451.0,-0.375130,13.1485,619.5
452.0,-0.376051,13.1513,619.5
453.0,-0.369970,13.1567,619.5
454.0,-0.382588,13.1616,619.5
455.0,-0.330643,13.1667,619.5
456.0,-0.327589,13.1717,619.5
457.0,-0.328749,13.1767,619.5
458.0,-0.335583,13.1817,619.5
459.0,-0.325394,13.1864,619.5
460.0,-0.326308,13.1914,619.5
461.0,-0.327218,13.1967,619.6
462.0,-0.323390,13.2017,619.6
463.0,-0.297281,13.2067,619.6
464.0,-0.300309,13.2117,619.6
465.0,-0.293308,13.2167,619.6
466.0,-0.303248,13.2214,619.6
467.0,-0.289032,13.2261,619.6
468.0,-0.270931,13.2314,619.6
469.0,-0.244174,13.2367,619.6
470.0,-0.248216,13.2414,619.6
471.0,-0.239013,13.2464,619.7
472.0,-0.246895,13.2517,619.7
473.0,-0.237779,13.2567,619.7
474.0,-0.218494,13.2617,619.7
475.0,-0.189256,13.2665,619.7
476.0,-0.196778,13.2711,619.7
477.0,-0.165095,13.2765,619.7
478.0,-0.157213,13.2815,619.7
479.0,-0.152114,13.2862,619.7
480.0,-0.148483,13.2912,619.7
481.0,-0.138251,13.2965,619.8
482.0,-0.159380,13.3018,619.8
483.0,-0.149097,13.3065,619.8
484.0,-0.149918,13.3112,619.8
485.0,-0.137531,13.3165,619.8
486.0,-0.157337,13.3215,619.8
487.0,-0.144996,13.3262,619.8
488.0,-0.153369,13.3312,619.8
489.0,-0.142534,13.3365,619.8
490.0,-0.151302,13.3418,619.8
491.0,-0.139460,13.3468,619.9
492.0,-0.151335,13.3518,619.9
493.0,-0.143297,13.3568,619.9
494.0,-0.152083,13.3615,619.9
495.0,-0.139380,13.3662,619.9
496.0,-0.147440,13.3712,619.9
497.0,-0.142677,13.3765,619.9
498.0,-0.152205,13.3815,619.9
499.0,-0.143442,13.3865,619.9
500.0,-0.142542,13.3918,619.9
501.0,-0.138272,13.3968,620
502.0,-0.156381,13.4018,620
503.0,-0.144891,13.4065,620
504.0,-0.147592,13.4112,620
505.0,-0.136007,13.4165,620
506.0,-0.153437,13.4215,620
507.0,-0.137884,13.4262,620
508.0,-0.145438,13.4312,620
509.0,-0.133248,13.4365,620
510.0,-0.151810,13.4418,620
511.0,-0.135862,13.4465,620.1
512.0,-0.144765,13.4512,620.1
513.0,-0.137381,13.4562,620.1
514.0,-0.149619,13.4612,620.1
515.0,-0.138190,13.4662,620.1
516.0,-0.143986,13.4712,620.1
517.0,-0.130741,13.4762,620.1
518.0,-0.150482,13.4815,620.1
519.0,-0.138992,13.4868,620.1
520.0,-0.144239,13.4918,620.1
521.0,-0.131913,13.4968,620.2
522.0,-0.154580,13.5015,620.2
523.0,-0.140973,13.5062,620.2
524.0,-0.144765,13.5112,620.2
525.0,-0.128272,13.5162,620.2
526.0,-0.148464,13.5212,620.2
527.0,-0.138632,13.5265,620.2
528.0,-0.144954,13.5318,620.2
529.0,-0.125976,13.5368,620.2
530.0,-0.147098,13.5415,620.2
531.0,-0.138920,13.5462,620.3
532.0,-0.143739,13.5512,620.3
533.0,-0.130278,13.5562,620.3
534.0,-0.147267,13.5612,620.3
535.0,-0.136119,13.5662,620.3
536.0,-0.144985,13.5715,620.3
537.0,-0.125848,13.5768,620.3
538.0,-0.148606,13.5818,620.3
539.0,-0.134905,13.5865,620.3
540.0,-0.141863,13.5912,620.3
541.0,-0.127886,13.5962,620.4
542.0,-0.146526,13.6012,620.4
543.0,-0.139729,13.6062,620.4
544.0,-0.139121,13.6112,620.4
545.0,-0.124199,13.6162,620.4
546.0,-0.147316,13.6212,620.4
547.0,-0.136296,13.6265,620.4
548.0,-0.143428,13.6318,620.4
549.0,-0.122841,13.6368,620.4
550.0,-0.142717,13.6415,620.4
551.0,-0.135434,13.6462,620.5
552.0,-0.141651,13.6512,620.5
553.0,-0.130075,13.6562,620.5
554.0,-0.144877,13.6612,620.5
555.0,-0.135700,13.6662,620.5
556.0,-0.146607,13.6715,620.5
557.0,-0.131104,13.6768,620.5
558.0,-0.145782,13.6818,620.5
559.0,-0.136755,13.6865,620.5
560.0,-0.139673,13.6912,620.5
561.0,-0.124812,13.6962,620.6
562.0,-0.144321,13.7012,620.6
563.0,-0.137045,13.7062,620.6
564.0,-0.141831,13.7112,620.6
565.0,-0.128419,13.7162,620.6
566.0,-0.145277,13.7215,620.6
567.0,-0.138216,13.7265,620.6
568.0,-0.144456,13.7312,620.6
569.0,-0.126687,13.7362,620.6
570.0,-0.143856,13.7412,620.6
571.0,-0.137547,13.7462,620.7
572.0,-0.140863,13.7512,620.7
573.0,-0.125340,13.7562,620.7
574.0,-0.142782,13.7612,620.7
575.0,-0.137999,13.7665,620.7
576.0,-0.143290,13.7715,620.7
577.0,-0.124307,13.7762,620.7
578.0,-0.141681,13.7812,620.7
579.0,-0.136128,13.7862,620.7
580.0,-0.142506,13.7912,620.7
581.0,-0.126802,13.7962,620.8
582.0,-0.143339,13.8012,620.8
583.0,-0.138471,13.8062,620.8
584.0,-0.145766,13.8115,620.8
585.0,-0.125803,13.8168,620.8
586.0,-0.143834,13.8215,620.8
587.0,-0.137861,13.8262,620.8
588.0,-0.147421,13.8312,620.8
589.0,-0.123856,13.8362,620.8
590.0,-0.140921,13.8412,620.8
591.0,-0.132518,13.8462,620.9
592.0,-0.140554,13.8512,620.9
593.0,-0.127650,13.8565,620.9
594.0,-0.143269,13.8615,620.9
595.0,-0.139186,13.8662,620.9
596.0,-0.146187,13.8712,620.9
597.0,-0.128616,13.8762,620.9
598.0,-0.140360,13.8812,620.9
599.0,-0.138415,13.8859,620.9
600.0,-0.146404,13.8909,620.9
601.0,-0.127447,13.8962,621
602.0,-0.140133,13.9012,621
603.0,-0.138041,13.9062,621
604.0,-0.145055,13.9112,621
605.0,-0.127741,13.9162,621
606.0,-0.142701,13.9209,621
607.0,-0.137725,13.9255,621
608.0,-0.147828,13.9305,621
609.0,-0.130779,13.9359,621
610.0,-0.145223,13.9409,621
611.0,-0.142254,13.9430,621.1
612.0,-0.145417,13.9480,621.1
613.0,-0.129841,13.9562,621.1
614.0,-0.144501,13.9612,621.1
615.0,-0.140051,13.9659,621.1
616.0,-0.144024,13.9705,621.1
617.0,-0.129448,13.9755,621.1
618.0,-0.142710,13.9805,621.1
619.0,-0.139780,13.9855,621.1
620.0,-0.151496,13.9880,621.1
621.0,-0.131361,13.9930,621.2
622.0,-0.141185,14.0012,621.2
623.0,-0.135462,14.0059,621.2
624.0,-0.145878,14.0105,621.2
625.0,-0.132586,14.0155,621.2
626.0,-0.142794,14.0205,621.2
627.0,-0.140886,14.0255,621.2
628.0,-0.147856,14.0305,621.2
629.0,-0.134606,14.0330,621.2
630.0,-0.148550,14.0380,621.2
631.0,-0.140253,14.0437,621.3
632.0,-0.148747,14.0509,621.3
633.0,-0.132446,14.0555,621.3
634.0,-0.145027,14.0605,621.3
635.0,-0.138789,14.0655,621.3
636.0,-0.150444,14.0705,621.3
637.0,-0.135361,14.0755,621.3
638.0,-0.146811,14.0805,621.3
639.0,-0.139191,14.0830,621.3
640.0,-0.149441,14.0880,621.3
641.0,-0.137059,14.0937,621.4
642.0,-0.145740,14.1005,621.4
643.0,-0.142796,14.1055,621.4
644.0,-0.154580,14.1105,621.4
645.0,-0.135537,14.1155,621.4
646.0,-0.146154,14.1205,621.4
647.0,-0.142523,14.1255,621.4
648.0,-0.151765,14.1280,621.4
649.0,-0.135810,14.1330,621.4
650.0,-0.141604,14.1387,621.4
651.0,-0.144922,14.1430,621.5
652.0,-0.153257,14.1505,621.5
653.0,-0.137421,14.1555,621.5
654.0,-0.150152,14.1605,621.5
655.0,-0.145639,14.1655,621.5
656.0,-0.151321,14.1705,621.5
