Data stamp = , 27-04-2022 21:12:34 319

Calibration Values: 
Slope = , 26.54 , g/V 
Offset Voltage at no contact = , -0.501760 , V 

No , Time , Stage Position ,   Mass , Force 
   ,  (s) ,      (mm)      ,   (g)  , (mN)  

1 ,0.0000 ,0.74959 ,5.27798 ,51.78758 
2 ,0.2364 ,0.74969 ,5.26087 ,51.61969 
3 ,0.6684 ,0.75117 ,5.26430 ,51.65327 
4 ,0.8764 ,0.75313 ,5.27114 ,51.72043 
5 ,1.0689 ,0.75496 ,5.26087 ,51.61969 
6 ,1.2604 ,0.75688 ,5.27456 ,51.75401 
7 ,1.4525 ,0.75882 ,5.26087 ,51.61969 
8 ,1.6445 ,0.76074 ,5.24718 ,51.48538 
9 ,1.8530 ,0.76271 ,5.25403 ,51.55254 
10 ,2.0773 ,0.76511 ,5.23692 ,51.38464 
11 ,2.2854 ,0.76714 ,5.20270 ,51.04886 
12 ,2.4774 ,0.76904 ,5.18901 ,50.91455 
13 ,2.6691 ,0.77102 ,5.16505 ,50.67950 
14 ,2.8456 ,0.77277 ,5.15479 ,50.57876 
15 ,3.0374 ,0.77465 ,5.15136 ,50.54519 
16 ,3.2138 ,0.77645 ,5.11372 ,50.17583 
17 ,3.4217 ,0.77854 ,5.10688 ,50.10867 
18 ,3.5975 ,0.78040 ,5.07265 ,49.77289 
19 ,3.7740 ,0.78211 ,5.05897 ,49.63857 
20 ,3.9499 ,0.78386 ,5.04185 ,49.47068 
21 ,4.1258 ,0.78559 ,5.04870 ,49.53784 
22 ,4.3024 ,0.78739 ,5.03843 ,49.43710 
23 ,4.4942 ,0.78924 ,4.99052 ,48.96701 
24 ,4.6702 ,0.79104 ,4.98368 ,48.89985 
25 ,4.8463 ,0.79284 ,4.97341 ,48.79911 
26 ,5.0225 ,0.79457 ,4.96315 ,48.69838 
27 ,5.2302 ,0.79663 ,4.91866 ,48.26186 
28 ,5.4387 ,0.79873 ,4.91181 ,48.19471 
29 ,5.6465 ,0.80074 ,4.88786 ,47.95966 
30 ,5.8383 ,0.80262 ,4.87759 ,47.85892 
31 ,6.0308 ,0.80460 ,4.84679 ,47.55672 
32 ,6.2389 ,0.80666 ,4.83995 ,47.48956 
33 ,6.4150 ,0.80849 ,4.80915 ,47.18736 
34 ,6.6231 ,0.81049 ,4.80915 ,47.18736 
35 ,6.7993 ,0.81234 ,4.78519 ,46.95231 
36 ,6.9911 ,0.81425 ,4.75782 ,46.68368 
37 ,7.1833 ,0.81611 ,4.75097 ,46.61653 
38 ,7.3914 ,0.81823 ,4.71675 ,46.28074 
39 ,7.5671 ,0.81998 ,4.69964 ,46.11285 
40 ,7.7596 ,0.82187 ,4.68937 ,46.01212 
41 ,7.9517 ,0.82381 ,4.65515 ,45.67633 
42 ,8.1437 ,0.82572 ,4.66884 ,45.81065 
43 ,8.3358 ,0.82766 ,4.63119 ,45.44128 
44 ,8.5118 ,0.82955 ,4.61408 ,45.27339 
45 ,8.7039 ,0.83130 ,4.61066 ,45.23981 
46 ,8.8962 ,0.83320 ,4.59355 ,45.07192 
47 ,9.1039 ,0.83534 ,4.56960 ,44.83688 
48 ,9.3123 ,0.83741 ,4.52853 ,44.43394 
49 ,9.5043 ,0.83933 ,4.53195 ,44.46751 
50 ,9.6966 ,0.84127 ,4.50115 ,44.16531 
51 ,9.9042 ,0.84331 ,4.50457 ,44.19889 
52 ,10.0966 ,0.84524 ,4.46693 ,43.82953 
53 ,10.2562 ,0.84700 ,4.44982 ,43.66163 
54 ,10.4328 ,0.84868 ,4.43271 ,43.49374 
55 ,10.6247 ,0.85053 ,4.43271 ,43.49374 
56 ,10.8011 ,0.85234 ,4.41902 ,43.35943 
57 ,10.9929 ,0.85420 ,4.38480 ,43.02365 
58 ,11.1846 ,0.85615 ,4.38138 ,42.99007 
59 ,11.3770 ,0.85803 ,4.34373 ,42.62071 
60 ,11.5691 ,0.85991 ,4.34373 ,42.62071 
61 ,11.7613 ,0.86191 ,4.32662 ,42.45282 
62 ,11.9532 ,0.86382 ,4.29240 ,42.11703 
63 ,12.1454 ,0.86569 ,4.29924 ,42.18419 
64 ,12.3375 ,0.86765 ,4.26845 ,41.88198 
65 ,12.5455 ,0.86972 ,4.24107 ,41.61336 
66 ,12.7372 ,0.87168 ,4.22738 ,41.47905 
67 ,12.9297 ,0.87351 ,4.21711 ,41.37831 
68 ,13.1058 ,0.87539 ,4.20000 ,41.21042 
69 ,13.2986 ,0.87723 ,4.17605 ,40.97537 
70 ,13.4895 ,0.87921 ,4.15551 ,40.77390 
71 ,13.6821 ,0.88109 ,4.17262 ,40.94179 
72 ,13.8899 ,0.88319 ,4.11787 ,40.40454 
73 ,14.0822 ,0.88507 ,4.10760 ,40.30380 
74 ,14.2738 ,0.88705 ,4.06654 ,39.90087 
75 ,14.4502 ,0.88885 ,4.06996 ,39.93444 
76 ,14.6580 ,0.89086 ,4.04943 ,39.73297 
77 ,14.8501 ,0.89275 ,4.01178 ,39.36361 
78 ,15.0586 ,0.89474 ,4.02547 ,39.49793 
79 ,15.2666 ,0.89689 ,4.00152 ,39.26288 
80 ,15.4427 ,0.89874 ,3.99125 ,39.16214 
81 ,15.6345 ,0.90055 ,3.94676 ,38.72562 
82 ,15.8268 ,0.90259 ,3.95361 ,38.79278 
83 ,16.0350 ,0.90462 ,3.91254 ,38.38984 
84 ,16.2269 ,0.90648 ,3.90570 ,38.32268 
85 ,16.4033 ,0.90832 ,3.89885 ,38.25553 
86 ,16.5951 ,0.91024 ,3.86463 ,37.91975 
87 ,16.7709 ,0.91209 ,3.85436 ,37.81901 
88 ,16.9634 ,0.91387 ,3.84410 ,37.71828 
89 ,17.1555 ,0.91583 ,3.82014 ,37.48323 
90 ,17.3314 ,0.91769 ,3.79961 ,37.28176 
91 ,17.5236 ,0.91948 ,3.80303 ,37.31534 
92 ,17.7157 ,0.92142 ,3.76539 ,36.94597 
93 ,17.9237 ,0.92346 ,3.75512 ,36.84524 
94 ,18.0999 ,0.92533 ,3.72090 ,36.50946 
95 ,18.2758 ,0.92705 ,3.71405 ,36.44230 
96 ,18.4680 ,0.92887 ,3.71405 ,36.44230 
97 ,18.6598 ,0.93082 ,3.68325 ,36.14010 
98 ,18.8679 ,0.93284 ,3.64561 ,35.77073 
99 ,19.0603 ,0.93489 ,3.65588 ,35.87147 
100 ,19.2685 ,0.93695 ,3.61823 ,35.50211 
101 ,19.4605 ,0.93881 ,3.61823 ,35.50211 
102 ,19.6525 ,0.94079 ,3.59428 ,35.26706 
103 ,19.8286 ,0.94260 ,3.57032 ,35.03201 
104 ,20.0202 ,0.94441 ,3.56690 ,34.99843 
105 ,20.2127 ,0.94630 ,3.53268 ,34.66265 
106 ,20.4208 ,0.94849 ,3.53952 ,34.72981 
107 ,20.6288 ,0.95052 ,3.50188 ,34.36045 
108 ,20.8210 ,0.95243 ,3.49846 ,34.32687 
109 ,20.9969 ,0.95432 ,3.47108 ,34.05824 
110 ,21.1731 ,0.95605 ,3.45739 ,33.92393 
111 ,21.3653 ,0.95789 ,3.44028 ,33.75604 
112 ,21.5572 ,0.95984 ,3.42659 ,33.62172 
113 ,21.7334 ,0.96164 ,3.39579 ,33.31952 
114 ,21.9414 ,0.96363 ,3.40264 ,33.38667 
115 ,22.1174 ,0.96541 ,3.37868 ,33.15163 
116 ,22.3256 ,0.96747 ,3.35130 ,32.88300 
117 ,22.5337 ,0.96960 ,3.33077 ,32.68153 
118 ,22.7257 ,0.97148 ,3.32051 ,32.58080 
119 ,22.9019 ,0.97333 ,3.30339 ,32.41290 
120 ,23.1098 ,0.97532 ,3.27944 ,32.17786 
121 ,23.3018 ,0.97722 ,3.27259 ,32.11070 
122 ,23.4941 ,0.97910 ,3.25206 ,31.90923 
123 ,23.7023 ,0.98121 ,3.24180 ,31.80849 
124 ,23.8944 ,0.98318 ,3.20073 ,31.40555 
125 ,24.0864 ,0.98505 ,3.20415 ,31.43913 
126 ,24.2783 ,0.98701 ,3.18362 ,31.23766 
127 ,24.4545 ,0.98885 ,3.14597 ,30.86830 
128 ,24.6626 ,0.99080 ,3.14255 ,30.83472 
129 ,24.8545 ,0.99279 ,3.11860 ,30.59968 
130 ,25.0308 ,0.99459 ,3.09122 ,30.33105 
131 ,25.2228 ,0.99644 ,3.10491 ,30.46536 
132 ,25.4144 ,0.99847 ,3.06726 ,30.09600 
133 ,25.5905 ,1.00023 ,3.06726 ,30.09600 
134 ,25.7826 ,1.00201 ,3.05358 ,29.96169 
135 ,25.9587 ,1.00389 ,3.00909 ,29.52517 
136 ,26.1513 ,1.00571 ,2.99540 ,29.39086 
137 ,26.3432 ,1.00764 ,2.99198 ,29.35728 
138 ,26.5188 ,1.00944 ,2.98171 ,29.25654 
139 ,26.7115 ,1.01135 ,2.94749 ,28.92076 
140 ,26.9193 ,1.01342 ,2.93722 ,28.82003 
141 ,27.1116 ,1.01533 ,2.90985 ,28.55140 
142 ,27.3197 ,1.01739 ,2.89616 ,28.41709 
143 ,27.5118 ,1.01934 ,2.87905 ,28.24919 
144 ,27.7037 ,1.02121 ,2.87220 ,28.18204 
145 ,27.8798 ,1.02306 ,2.85509 ,28.01415 
146 ,28.0717 ,1.02488 ,2.82771 ,27.74552 
147 ,28.2640 ,1.02685 ,2.82087 ,27.67836 
148 ,28.4720 ,1.02898 ,2.79007 ,27.37616 
149 ,28.6480 ,1.03074 ,2.77638 ,27.24185 
150 ,28.8239 ,1.03256 ,2.77638 ,27.24185 
151 ,29.0164 ,1.03441 ,2.76269 ,27.10753 
152 ,29.2081 ,1.03626 ,2.72505 ,26.73817 
153 ,29.4163 ,1.03836 ,2.70109 ,26.50312 
154 ,29.6246 ,1.04042 ,2.70452 ,26.53670 
155 ,29.8321 ,1.04249 ,2.68056 ,26.30165 
156 ,30.0087 ,1.04431 ,2.66345 ,26.13376 
157 ,30.2008 ,1.04619 ,2.66345 ,26.13376 
158 ,30.3925 ,1.04823 ,2.62581 ,25.76440 
159 ,30.5848 ,1.05004 ,2.61212 ,25.63009 
160 ,30.7770 ,1.05193 ,2.60185 ,25.52935 
161 ,30.9848 ,1.05405 ,2.57789 ,25.29430 
162 ,31.1771 ,1.05597 ,2.57447 ,25.26073 
163 ,31.3533 ,1.05781 ,2.54710 ,24.99210 
164 ,31.5613 ,1.05976 ,2.54025 ,24.92494 
165 ,31.7534 ,1.06171 ,2.50603 ,24.58916 
166 ,31.9450 ,1.06367 ,2.49576 ,24.48842 
167 ,32.1536 ,1.06563 ,2.48550 ,24.38769 
168 ,32.3615 ,1.06782 ,2.47181 ,24.25338 
169 ,32.5537 ,1.06974 ,2.44785 ,24.01833 
170 ,32.7136 ,1.07148 ,2.42732 ,23.81686 
171 ,32.8900 ,1.07317 ,2.42048 ,23.74970 
172 ,33.0814 ,1.07505 ,2.40679 ,23.61539 
173 ,33.2579 ,1.07681 ,2.40336 ,23.58181 
174 ,33.4499 ,1.07866 ,2.36572 ,23.21245 
175 ,33.6581 ,1.08082 ,2.36572 ,23.21245 
176 ,33.8659 ,1.08279 ,2.34177 ,22.97740 
177 ,34.0583 ,1.08476 ,2.32465 ,22.80951 
178 ,34.2662 ,1.08681 ,2.29385 ,22.50731 
179 ,34.4585 ,1.08884 ,2.30412 ,22.60804 
180 ,34.6502 ,1.09067 ,2.25963 ,22.17152 
181 ,34.8263 ,1.09248 ,2.25279 ,22.10437 
182 ,35.0348 ,1.09458 ,2.23568 ,21.93647 
183 ,35.2263 ,1.09640 ,2.22199 ,21.80216 
184 ,35.4190 ,1.09840 ,2.21515 ,21.73500 
185 ,35.6265 ,1.10041 ,2.18777 ,21.46638 
186 ,35.8189 ,1.10233 ,2.18777 ,21.46638 
187 ,36.0270 ,1.10446 ,2.15012 ,21.09702 
188 ,36.2351 ,1.10652 ,2.14328 ,21.02986 
189 ,36.3951 ,1.10831 ,2.11590 ,20.76123 
190 ,36.5870 ,1.11005 ,2.10564 ,20.66050 
191 ,36.7795 ,1.11200 ,2.10221 ,20.62692 
192 ,36.9715 ,1.11391 ,2.08510 ,20.45903 
193 ,37.1635 ,1.11582 ,2.07826 ,20.39187 
194 ,37.3397 ,1.11760 ,2.05773 ,20.19040 
195 ,37.5317 ,1.11950 ,2.04061 ,20.02251 
196 ,37.7237 ,1.12146 ,2.02693 ,19.88820 
197 ,37.8998 ,1.12324 ,2.01666 ,19.78746 
198 ,38.0758 ,1.12497 ,2.00639 ,19.68673 
199 ,38.2677 ,1.12684 ,1.97902 ,19.41810 
200 ,38.4757 ,1.12895 ,1.98586 ,19.48526 
201 ,38.6681 ,1.13089 ,1.94822 ,19.11590 
202 ,38.8759 ,1.13291 ,1.95506 ,19.18305 
203 ,39.0522 ,1.13474 ,1.92084 ,18.84727 
204 ,39.2442 ,1.13659 ,1.91057 ,18.74654 
205 ,39.4206 ,1.13844 ,1.91057 ,18.74654 
206 ,39.6122 ,1.14030 ,1.88662 ,18.51149 
207 ,39.8048 ,1.14224 ,1.87293 ,18.37717 
208 ,40.0125 ,1.14427 ,1.86608 ,18.31002 
209 ,40.1887 ,1.14613 ,1.84213 ,18.07497 
210 ,40.3805 ,1.14793 ,1.83871 ,18.04139 
211 ,40.5571 ,1.14976 ,1.82844 ,17.94066 
212 ,40.7650 ,1.15179 ,1.79764 ,17.63845 
213 ,40.9569 ,1.15368 ,1.79080 ,17.57129 
214 ,41.1491 ,1.15562 ,1.77026 ,17.36983 
215 ,41.3412 ,1.15755 ,1.74973 ,17.16836 
216 ,41.5333 ,1.15947 ,1.73262 ,17.00046 
217 ,41.7253 ,1.16138 ,1.73262 ,17.00046 
218 ,41.9333 ,1.16352 ,1.71893 ,16.86615 
219 ,42.1417 ,1.16559 ,1.69840 ,16.66468 
220 ,42.3334 ,1.16750 ,1.70182 ,16.69826 
221 ,42.5099 ,1.16932 ,1.66760 ,16.36248 
222 ,42.7018 ,1.17118 ,1.65733 ,16.26174 
223 ,42.8615 ,1.17297 ,1.65733 ,16.26174 
224 ,43.0541 ,1.17470 ,1.64022 ,16.09385 
225 ,43.2621 ,1.17676 ,1.61969 ,15.89238 
226 ,43.4702 ,1.17873 ,1.60258 ,15.72449 
227 ,43.6779 ,1.18087 ,1.59231 ,15.62375 
228 ,43.8703 ,1.18282 ,1.57862 ,15.48944 
229 ,44.0464 ,1.18475 ,1.56493 ,15.35513 
230 ,44.2385 ,1.18651 ,1.55467 ,15.25439 
231 ,44.4306 ,1.18846 ,1.52729 ,14.98577 
232 ,44.6386 ,1.19060 ,1.53071 ,15.01934 
233 ,44.8308 ,1.19247 ,1.50333 ,14.75072 
234 ,45.0224 ,1.19439 ,1.49307 ,14.64998 
235 ,45.2150 ,1.19627 ,1.48965 ,14.61640 
236 ,45.4228 ,1.19840 ,1.47253 ,14.44851 
237 ,45.6151 ,1.20025 ,1.46569 ,14.38136 
238 ,45.8070 ,1.20225 ,1.43147 ,14.04557 
239 ,45.9992 ,1.20412 ,1.43489 ,14.07915 
240 ,46.1749 ,1.20598 ,1.40751 ,13.81053 
241 ,46.3514 ,1.20772 ,1.41094 ,13.84410 
242 ,46.5435 ,1.20958 ,1.38014 ,13.54190 
243 ,46.7356 ,1.21158 ,1.37329 ,13.47474 
244 ,46.9276 ,1.21343 ,1.36303 ,13.37401 
245 ,47.1039 ,1.21525 ,1.35618 ,13.30685 
246 ,47.2953 ,1.21706 ,1.34249 ,13.17254 
247 ,47.4878 ,1.21903 ,1.32196 ,12.97107 
248 ,47.6799 ,1.22095 ,1.31854 ,12.93749 
249 ,47.8721 ,1.22282 ,1.29116 ,12.66886 
250 ,48.0641 ,1.22477 ,1.28774 ,12.63528 
251 ,48.2403 ,1.22656 ,1.28089 ,12.56813 
252 ,48.4323 ,1.22847 ,1.26720 ,12.43381 
253 ,48.6404 ,1.23056 ,1.25694 ,12.33308 
254 ,48.8165 ,1.23232 ,1.25009 ,12.26592 
255 ,49.0085 ,1.23419 ,1.22272 ,11.99730 
256 ,49.2008 ,1.23609 ,1.20561 ,11.82941 
257 ,49.3763 ,1.23799 ,1.20218 ,11.79583 
258 ,49.5687 ,1.23984 ,1.17823 ,11.56078 
259 ,49.7764 ,1.24185 ,1.17481 ,11.52720 
260 ,49.9689 ,1.24382 ,1.16112 ,11.39289 
261 ,50.1610 ,1.24577 ,1.14743 ,11.25857 
262 ,50.3531 ,1.24765 ,1.14401 ,11.22500 
263 ,50.5131 ,1.24943 ,1.12005 ,10.98995 
264 ,50.6732 ,1.25102 ,1.10294 ,10.82206 
265 ,50.8652 ,1.25280 ,1.09610 ,10.75490 
266 ,51.0411 ,1.25459 ,1.08583 ,10.65416 
267 ,51.2333 ,1.25649 ,1.08583 ,10.65416 
268 ,51.4094 ,1.25825 ,1.07214 ,10.51985 
269 ,51.5855 ,1.26006 ,1.05161 ,10.31838 
270 ,51.7616 ,1.26178 ,1.03108 ,10.11691 
271 ,51.9536 ,1.26363 ,1.03792 ,10.18407 
272 ,52.1459 ,1.26560 ,1.01739 ,9.98260 
273 ,52.3376 ,1.26749 ,1.00712 ,9.88186 
274 ,52.5141 ,1.26931 ,1.01054 ,9.91544 
275 ,52.7058 ,1.27115 ,0.96948 ,9.51250 
276 ,52.8982 ,1.27307 ,0.97632 ,9.57966 
277 ,53.0903 ,1.27497 ,0.94210 ,9.24388 
278 ,53.2823 ,1.27695 ,0.94552 ,9.27745 
279 ,53.4903 ,1.27906 ,0.93525 ,9.17672 
280 ,53.6661 ,1.28080 ,0.90446 ,8.87451 
281 ,53.8585 ,1.28272 ,0.90446 ,8.87451 
282 ,54.0664 ,1.28475 ,0.88050 ,8.63947 
283 ,54.2427 ,1.28661 ,0.88392 ,8.67305 
284 ,54.4509 ,1.28860 ,0.85997 ,8.43800 
285 ,54.6428 ,1.29055 ,0.85654 ,8.40442 
286 ,54.8349 ,1.29255 ,0.84286 ,8.27011 
287 ,55.0110 ,1.29425 ,0.82575 ,8.10221 
288 ,55.2189 ,1.29625 ,0.82232 ,8.06864 
289 ,55.3951 ,1.29810 ,0.82232 ,8.06864 
290 ,55.6034 ,1.30001 ,0.78810 ,7.73285 
291 ,55.7948 ,1.30206 ,0.78810 ,7.73285 
292 ,55.9712 ,1.30393 ,0.76072 ,7.46423 
293 ,56.1795 ,1.30585 ,0.76757 ,7.53138 
294 ,56.3715 ,1.30785 ,0.75046 ,7.36349 
295 ,56.5796 ,1.30996 ,0.73335 ,7.19560 
296 ,56.7716 ,1.31186 ,0.72992 ,7.16202 
297 ,56.9633 ,1.31370 ,0.70939 ,6.96055 
298 ,57.1559 ,1.31565 ,0.70255 ,6.89340 
299 ,57.3478 ,1.31754 ,0.69570 ,6.82624 
300 ,57.5560 ,1.31970 ,0.68886 ,6.75908 
301 ,57.7475 ,1.32158 ,0.67175 ,6.59119 
302 ,57.9242 ,1.32340 ,0.64095 ,6.28899 
303 ,58.1321 ,1.32541 ,0.64779 ,6.35614 
304 ,58.3079 ,1.32732 ,0.61357 ,6.02036 
305 ,58.5003 ,1.32907 ,0.62384 ,6.12109 
306 ,58.6923 ,1.33103 ,0.61699 ,6.05394 
307 ,58.8685 ,1.33282 ,0.59304 ,5.81889 
308 ,59.0763 ,1.33480 ,0.57593 ,5.65100 
309 ,59.2525 ,1.33678 ,0.57251 ,5.61742 
310 ,59.4447 ,1.33856 ,0.55882 ,5.48311 
311 ,59.6688 ,1.34075 ,0.54171 ,5.31522 
312 ,59.8768 ,1.34282 ,0.52802 ,5.18090 
313 ,60.0689 ,1.34478 ,0.52117 ,5.11375 
314 ,60.2446 ,1.34664 ,0.51091 ,5.01301 
315 ,60.4207 ,1.34836 ,0.49722 ,4.87870 
316 ,60.5970 ,1.35009 ,0.50748 ,4.97943 
317 ,60.8054 ,1.35207 ,0.48011 ,4.71081 
318 ,60.9974 ,1.35408 ,0.48011 ,4.71081 
319 ,61.2053 ,1.35607 ,0.45615 ,4.47576 
320 ,61.3815 ,1.35795 ,0.44588 ,4.37502 
321 ,61.5733 ,1.35981 ,0.44246 ,4.34144 
322 ,61.7653 ,1.36171 ,0.42877 ,4.20713 
323 ,61.9573 ,1.36363 ,0.41851 ,4.10640 
324 ,62.1493 ,1.36557 ,0.40824 ,4.00566 
325 ,62.3416 ,1.36751 ,0.38086 ,3.73703 
326 ,62.5500 ,1.36961 ,0.38429 ,3.77061 
327 ,62.7581 ,1.37169 ,0.37744 ,3.70346 
328 ,62.9662 ,1.37379 ,0.36033 ,3.53557 
329 ,63.1581 ,1.37563 ,0.36033 ,3.53557 
330 ,63.3503 ,1.37755 ,0.33980 ,3.33410 
331 ,63.5423 ,1.37949 ,0.32269 ,3.16620 
332 ,63.7185 ,1.38127 ,0.31926 ,3.13263 
333 ,63.9104 ,1.38316 ,0.30558 ,2.99831 
334 ,64.0862 ,1.38496 ,0.29873 ,2.93116 
335 ,64.2787 ,1.38681 ,0.29873 ,2.93116 
336 ,64.4867 ,1.38892 ,0.25767 ,2.52822 
337 ,64.6788 ,1.39081 ,0.26793 ,2.62895 
338 ,64.8868 ,1.39287 ,0.24398 ,2.39390 
339 ,65.0790 ,1.39484 ,0.24740 ,2.42748 
340 ,65.2712 ,1.39678 ,0.24398 ,2.39390 
341 ,65.4631 ,1.39869 ,0.20291 ,1.99096 
342 ,65.6389 ,1.40052 ,0.20976 ,2.05812 
343 ,65.8313 ,1.40240 ,0.20633 ,2.02454 
344 ,66.0393 ,1.40447 ,0.18238 ,1.78949 
345 ,66.2154 ,1.40626 ,0.18922 ,1.85665 
346 ,66.4235 ,1.40831 ,0.16185 ,1.58802 
347 ,66.5998 ,1.41008 ,0.14816 ,1.45371 
348 ,66.8073 ,1.41209 ,0.14816 ,1.45371 
349 ,66.9999 ,1.41405 ,0.13447 ,1.31940 
350 ,67.2078 ,1.41610 ,0.13105 ,1.28582 
351 ,67.4000 ,1.41807 ,0.12078 ,1.18508 
352 ,67.5920 ,1.41998 ,0.10709 ,1.05077 
353 ,67.7839 ,1.42192 ,0.08998 ,0.88288 
354 ,67.9760 ,1.42381 ,0.07971 ,0.78214 
355 ,68.1682 ,1.42577 ,0.07971 ,0.78214 
356 ,68.3603 ,1.42762 ,0.04891 ,0.47994 
357 ,68.5523 ,1.42959 ,0.06602 ,0.64783 
358 ,68.7443 ,1.43147 ,0.02838 ,0.27847 
359 ,68.9522 ,1.43358 ,0.04207 ,0.41278 
360 ,69.1447 ,1.43547 ,0.01127 ,0.11058 
361 ,69.3367 ,1.43740 ,0.01811 ,0.17773 
362 ,69.5128 ,1.43925 ,0.01127 ,0.11058 
363 ,69.6889 ,1.44095 ,0.00443 ,0.04342 
364 ,69.8650 ,1.44270 ,-0.03322 ,-0.32594 
365 ,70.0728 ,1.44474 ,-0.01953 ,-0.19163 
366 ,70.2812 ,1.44690 ,-0.04006 ,-0.39310 
367 ,70.4733 ,1.44875 ,-0.04006 ,-0.39310 
368 ,70.6654 ,1.45073 ,-0.06744 ,-0.66172 
369 ,70.8413 ,1.45259 ,-0.07428 ,-0.72888 
370 ,71.0331 ,1.45442 ,-0.07771 ,-0.76246 
371 ,71.2254 ,1.45623 ,-0.09140 ,-0.89677 
372 ,71.4337 ,1.45830 ,-0.07771 ,-0.76246 
373 ,71.6417 ,1.46049 ,-0.12219 ,-1.19898 
374 ,71.8498 ,1.46250 ,-0.12562 ,-1.23255 
375 ,72.0740 ,1.46465 ,-0.12904 ,-1.26613 
376 ,72.2660 ,1.46669 ,-0.15299 ,-1.50118 
377 ,72.4418 ,1.46852 ,-0.15642 ,-1.53476 
378 ,72.6500 ,1.47050 ,-0.14273 ,-1.40045 
379 ,72.8421 ,1.47239 ,-0.16668 ,-1.63549 
380 ,73.0343 ,1.47438 ,-0.17695 ,-1.73623 
381 ,73.2262 ,1.47624 ,-0.19748 ,-1.93770 
382 ,73.4344 ,1.47838 ,-0.20433 ,-2.00485 
383 ,73.6264 ,1.48029 ,-0.21802 ,-2.13917 
384 ,73.8027 ,1.48207 ,-0.22144 ,-2.17275 
385 ,73.9785 ,1.48385 ,-0.22828 ,-2.23990 
386 ,74.1707 ,1.48573 ,-0.22828 ,-2.23990 
387 ,74.3625 ,1.48768 ,-0.25566 ,-2.50853 
388 ,74.5709 ,1.48964 ,-0.25566 ,-2.50853 
389 ,74.7788 ,1.49181 ,-0.28646 ,-2.81073 
390 ,74.9711 ,1.49370 ,-0.26593 ,-2.60926 
391 ,75.1791 ,1.49577 ,-0.29330 ,-2.87789 
392 ,75.3712 ,1.49776 ,-0.28646 ,-2.81073 
393 ,75.5632 ,1.49966 ,-0.31041 ,-3.04578 
394 ,75.7714 ,1.50166 ,-0.30699 ,-3.01220 
395 ,75.9634 ,1.50364 ,-0.32410 ,-3.18010 
396 ,76.1557 ,1.50554 ,-0.32752 ,-3.21367 
397 ,76.3473 ,1.50749 ,-0.34121 ,-3.34799 
398 ,76.5553 ,1.50953 ,-0.36175 ,-3.54946 
399 ,76.7477 ,1.51151 ,-0.35148 ,-3.44872 
400 ,76.9239 ,1.51332 ,-0.38570 ,-3.78450 
401 ,77.1319 ,1.51532 ,-0.37544 ,-3.68377 
402 ,77.3080 ,1.51714 ,-0.37544 ,-3.68377 
403 ,77.5321 ,1.51936 ,-0.40281 ,-3.95240 
404 ,77.7239 ,1.52141 ,-0.43019 ,-4.22102 
405 ,77.9158 ,1.52315 ,-0.41650 ,-4.08671 
406 ,78.0924 ,1.52500 ,-0.42335 ,-4.15387 
407 ,78.2844 ,1.52683 ,-0.44388 ,-4.35534 
408 ,78.4763 ,1.52880 ,-0.44730 ,-4.38891 
409 ,78.6684 ,1.53070 ,-0.44730 ,-4.38891 
410 ,78.8767 ,1.53275 ,-0.48494 ,-4.75828 
411 ,79.0846 ,1.53485 ,-0.47468 ,-4.65754 
412 ,79.2767 ,1.53676 ,-0.50206 ,-4.92617 
413 ,79.4687 ,1.53874 ,-0.48837 ,-4.79185 
414 ,79.6609 ,1.54065 ,-0.51917 ,-5.09406 
415 ,79.8365 ,1.54237 ,-0.51574 ,-5.06048 
416 ,80.0291 ,1.54428 ,-0.49863 ,-4.89259 
417 ,80.2369 ,1.54641 ,-0.53970 ,-5.29553 
418 ,80.4447 ,1.54846 ,-0.53628 ,-5.26195 
419 ,80.6211 ,1.55027 ,-0.56365 ,-5.53058 
420 ,80.8134 ,1.55209 ,-0.55339 ,-5.42984 
421 ,81.0214 ,1.55424 ,-0.57050 ,-5.59773 
422 ,81.2136 ,1.55617 ,-0.58077 ,-5.69847 
423 ,81.3894 ,1.55803 ,-0.58077 ,-5.69847 
424 ,81.5817 ,1.55986 ,-0.60130 ,-5.89994 
425 ,81.7896 ,1.56179 ,-0.59103 ,-5.79920 
426 ,81.9815 ,1.56383 ,-0.62525 ,-6.13499 
427 ,82.1738 ,1.56575 ,-0.62183 ,-6.10141 
428 ,82.3820 ,1.56785 ,-0.63552 ,-6.23572 
429 ,82.5739 ,1.56974 ,-0.64236 ,-6.30288 
430 ,82.7657 ,1.57162 ,-0.65263 ,-6.40361 
431 ,82.9581 ,1.57353 ,-0.66632 ,-6.53793 
432 ,83.1501 ,1.57562 ,-0.66290 ,-6.50435 
433 ,83.3259 ,1.57728 ,-0.67316 ,-6.60508 
434 ,83.5184 ,1.57919 ,-0.66974 ,-6.57150 
435 ,83.7105 ,1.58114 ,-0.68343 ,-6.70582 
436 ,83.9186 ,1.58310 ,-0.70054 ,-6.87371 
437 ,84.1262 ,1.58525 ,-0.71081 ,-6.97444 
438 ,84.3507 ,1.58751 ,-0.71765 ,-7.04160 
439 ,84.5586 ,1.58961 ,-0.74503 ,-7.31023 
440 ,84.7506 ,1.59152 ,-0.73134 ,-7.17591 
441 ,84.9428 ,1.59334 ,-0.76898 ,-7.54527 
442 ,85.1349 ,1.59530 ,-0.75187 ,-7.37738 
443 ,85.3109 ,1.59712 ,-0.75872 ,-7.44454 
444 ,85.4868 ,1.59887 ,-0.76556 ,-7.51170 
445 ,85.6788 ,1.60080 ,-0.78952 ,-7.74674 
446 ,85.8549 ,1.60264 ,-0.77925 ,-7.64601 
447 ,86.0149 ,1.60430 ,-0.78610 ,-7.71317 
448 ,86.2073 ,1.60604 ,-0.80321 ,-7.88106 
449 ,86.3831 ,1.60793 ,-0.82374 ,-8.08253 
450 ,86.5596 ,1.60965 ,-0.83058 ,-8.14968 
451 ,86.7516 ,1.61159 ,-0.83058 ,-8.14968 
452 ,86.9438 ,1.61338 ,-0.85112 ,-8.35115 
453 ,87.1357 ,1.61535 ,-0.86138 ,-8.45189 
454 ,87.3277 ,1.61725 ,-0.85112 ,-8.35115 
455 ,87.5038 ,1.61914 ,-0.87849 ,-8.61978 
456 ,87.6961 ,1.62092 ,-0.87165 ,-8.55262 
457 ,87.8880 ,1.62290 ,-0.87507 ,-8.58620 
458 ,88.0962 ,1.62493 ,-0.88876 ,-8.72051 
459 ,88.2885 ,1.62684 ,-0.89560 ,-8.78767 
460 ,88.5120 ,1.62908 ,-0.90929 ,-8.92198 
461 ,88.7045 ,1.63099 ,-0.91614 ,-8.98914 
462 ,88.9125 ,1.63310 ,-0.91956 ,-9.02272 
463 ,89.1048 ,1.63500 ,-0.92983 ,-9.12345 
