Data stamp = , 28-04-2022 08:19:45 094

Calibration Values: 
Slope = , 26.54 , g/V 
Offset Voltage at no contact = , -0.501760 , V 

No , Time , Stage Position ,   Mass , Force 
   ,  (s) ,      (mm)      ,   (g)  , (mN)  

1 ,0.0000 ,0.74945 ,5.29510 ,51.95548 
2 ,0.4738 ,0.75016 ,5.28141 ,51.82116 
3 ,0.8258 ,0.75214 ,5.29852 ,51.98905 
4 ,1.0184 ,0.75433 ,5.29167 ,51.92190 
5 ,1.2263 ,0.75643 ,5.27798 ,51.78758 
6 ,1.4183 ,0.75834 ,5.29852 ,51.98905 
7 ,1.6102 ,0.76025 ,5.27114 ,51.72043 
8 ,1.8026 ,0.76219 ,5.26430 ,51.65327 
9 ,1.9946 ,0.76404 ,5.25403 ,51.55254 
10 ,2.2028 ,0.76616 ,5.23692 ,51.38464 
11 ,2.3945 ,0.76806 ,5.21639 ,51.18317 
12 ,2.5867 ,0.77006 ,5.19243 ,50.94813 
13 ,2.7945 ,0.77205 ,5.17532 ,50.78023 
14 ,2.9707 ,0.77395 ,5.15136 ,50.54519 
15 ,3.1791 ,0.77583 ,5.12741 ,50.31014 
16 ,3.3873 ,0.77804 ,5.11372 ,50.17583 
17 ,3.5792 ,0.77998 ,5.09661 ,50.00793 
18 ,3.7714 ,0.78186 ,5.07950 ,49.84004 
19 ,3.9794 ,0.78395 ,5.06923 ,49.73931 
20 ,4.1875 ,0.78605 ,5.02132 ,49.26921 
21 ,4.3956 ,0.78806 ,5.01790 ,49.23563 
22 ,4.5878 ,0.79001 ,5.00079 ,49.06774 
23 ,4.7958 ,0.79211 ,4.99737 ,49.03416 
24 ,4.9719 ,0.79389 ,4.95630 ,48.63122 
25 ,5.1635 ,0.79577 ,4.94603 ,48.53049 
26 ,5.3561 ,0.79771 ,4.92892 ,48.36260 
27 ,5.5479 ,0.79963 ,4.90839 ,48.16113 
28 ,5.7723 ,0.80180 ,4.89812 ,48.06039 
29 ,5.9803 ,0.80397 ,4.86732 ,47.75819 
30 ,6.1565 ,0.80575 ,4.85021 ,47.59030 
31 ,6.3649 ,0.80785 ,4.82284 ,47.32167 
32 ,6.5726 ,0.80985 ,4.80573 ,47.15378 
33 ,6.7645 ,0.81177 ,4.78861 ,46.98589 
34 ,6.9728 ,0.81387 ,4.76808 ,46.78442 
35 ,7.1648 ,0.81578 ,4.74070 ,46.51579 
36 ,7.3404 ,0.81765 ,4.74755 ,46.58295 
37 ,7.5330 ,0.81947 ,4.70306 ,46.14643 
38 ,7.7250 ,0.82135 ,4.69622 ,46.07927 
39 ,7.9011 ,0.82327 ,4.68595 ,45.97854 
40 ,8.0932 ,0.82503 ,4.65515 ,45.67633 
41 ,8.2853 ,0.82699 ,4.63462 ,45.47486 
42 ,8.4613 ,0.82884 ,4.62777 ,45.40771 
43 ,8.6534 ,0.83060 ,4.59697 ,45.10550 
44 ,8.8453 ,0.83257 ,4.58671 ,45.00477 
45 ,9.0371 ,0.83444 ,4.58671 ,45.00477 
46 ,9.2294 ,0.83642 ,4.55933 ,44.73614 
47 ,9.4375 ,0.83850 ,4.54564 ,44.60183 
48 ,9.6294 ,0.84046 ,4.50457 ,44.19889 
49 ,9.7895 ,0.84219 ,4.49431 ,44.09815 
50 ,9.9818 ,0.84395 ,4.49431 ,44.09815 
51 ,10.1739 ,0.84588 ,4.47720 ,43.93026 
52 ,10.3820 ,0.84792 ,4.44982 ,43.66163 
53 ,10.5579 ,0.84976 ,4.44298 ,43.59448 
54 ,10.7502 ,0.85164 ,4.41560 ,43.32585 
55 ,10.9584 ,0.85371 ,4.40533 ,43.22512 
56 ,11.1503 ,0.85567 ,4.37111 ,42.88933 
57 ,11.3423 ,0.85754 ,4.36427 ,42.82218 
58 ,11.5345 ,0.85943 ,4.33689 ,42.55355 
59 ,11.7265 ,0.86140 ,4.30609 ,42.25135 
60 ,11.9026 ,0.86319 ,4.29924 ,42.18419 
61 ,12.0787 ,0.86496 ,4.29924 ,42.18419 
62 ,12.2709 ,0.86682 ,4.26160 ,41.81483 
63 ,12.4630 ,0.86878 ,4.26502 ,41.84841 
64 ,12.6711 ,0.87086 ,4.22053 ,41.41189 
65 ,12.8790 ,0.87290 ,4.22053 ,41.41189 
66 ,13.0872 ,0.87501 ,4.18289 ,41.04253 
67 ,13.2794 ,0.87688 ,4.18974 ,41.10968 
68 ,13.4713 ,0.87883 ,4.14867 ,40.70674 
69 ,13.6637 ,0.88071 ,4.15209 ,40.74032 
70 ,13.8390 ,0.88259 ,4.13156 ,40.53885 
71 ,14.0312 ,0.88442 ,4.09391 ,40.16949 
72 ,14.2076 ,0.88619 ,4.07680 ,40.00160 
73 ,14.3995 ,0.88810 ,4.08023 ,40.03518 
74 ,14.5919 ,0.89006 ,4.03916 ,39.63224 
75 ,14.7834 ,0.89198 ,4.02889 ,39.53150 
76 ,14.9596 ,0.89374 ,4.02547 ,39.49793 
77 ,15.1517 ,0.89558 ,3.99809 ,39.22930 
78 ,15.3440 ,0.89758 ,3.98783 ,39.12856 
79 ,15.5362 ,0.89946 ,3.97756 ,39.02783 
80 ,15.7439 ,0.90150 ,3.93992 ,38.65847 
81 ,15.9362 ,0.90344 ,3.93650 ,38.62489 
82 ,16.1442 ,0.90556 ,3.90570 ,38.32268 
83 ,16.3364 ,0.90747 ,3.90227 ,38.28911 
84 ,16.5447 ,0.90946 ,3.86463 ,37.91975 
85 ,16.7687 ,0.91166 ,3.85436 ,37.81901 
86 ,16.9448 ,0.91358 ,3.82699 ,37.55038 
87 ,17.1369 ,0.91555 ,3.81330 ,37.41607 
88 ,17.3129 ,0.91730 ,3.79619 ,37.24818 
89 ,17.4888 ,0.91905 ,3.78592 ,37.14744 
90 ,17.6812 ,0.92097 ,3.77223 ,37.01313 
91 ,17.8730 ,0.92279 ,3.74828 ,36.77808 
92 ,18.0651 ,0.92467 ,3.73801 ,36.67735 
93 ,18.2413 ,0.92661 ,3.72432 ,36.54303 
94 ,18.4330 ,0.92840 ,3.71063 ,36.40872 
95 ,18.6251 ,0.93031 ,3.68325 ,36.14010 
96 ,18.8170 ,0.93228 ,3.67983 ,36.10652 
97 ,19.0096 ,0.93421 ,3.64219 ,35.73716 
98 ,19.2173 ,0.93626 ,3.63192 ,35.63642 
99 ,19.4097 ,0.93820 ,3.61139 ,35.43495 
100 ,19.6176 ,0.94023 ,3.59770 ,35.30064 
101 ,19.8097 ,0.94216 ,3.56690 ,34.99843 
102 ,20.0020 ,0.94410 ,3.56690 ,34.99843 
103 ,20.1939 ,0.94601 ,3.53952 ,34.72981 
104 ,20.4021 ,0.94807 ,3.51899 ,34.52834 
105 ,20.5940 ,0.95012 ,3.50530 ,34.39402 
106 ,20.7864 ,0.95192 ,3.48819 ,34.22613 
107 ,20.9785 ,0.95390 ,3.46081 ,33.95751 
108 ,21.1705 ,0.95579 ,3.45055 ,33.85677 
109 ,21.3623 ,0.95766 ,3.44028 ,33.75604 
110 ,21.5546 ,0.95963 ,3.41975 ,33.55457 
111 ,21.7465 ,0.96158 ,3.38210 ,33.18520 
112 ,21.9390 ,0.96344 ,3.38210 ,33.18520 
113 ,22.1469 ,0.96551 ,3.34104 ,32.78227 
114 ,22.3392 ,0.96748 ,3.34788 ,32.84942 
115 ,22.5306 ,0.96939 ,3.32735 ,32.64795 
116 ,22.7231 ,0.97130 ,3.31024 ,32.48006 
117 ,22.9149 ,0.97322 ,3.29997 ,32.37933 
118 ,23.0914 ,0.97505 ,3.26575 ,32.04354 
119 ,23.2830 ,0.97688 ,3.24522 ,31.84207 
120 ,23.4591 ,0.97872 ,3.23837 ,31.77492 
121 ,23.6192 ,0.98043 ,3.23837 ,31.77492 
122 ,23.8117 ,0.98214 ,3.19731 ,31.37198 
123 ,23.9878 ,0.98397 ,3.18020 ,31.20409 
124 ,24.1958 ,0.98601 ,3.18704 ,31.27124 
125 ,24.3879 ,0.98798 ,3.13913 ,30.80115 
126 ,24.5959 ,0.98999 ,3.14597 ,30.86830 
127 ,24.7720 ,0.99190 ,3.11175 ,30.53252 
128 ,24.9641 ,0.99370 ,3.09464 ,30.36463 
129 ,25.1403 ,0.99553 ,3.08438 ,30.26389 
130 ,25.3321 ,0.99738 ,3.07411 ,30.16316 
131 ,25.5082 ,0.99923 ,3.04331 ,29.86095 
132 ,25.7004 ,1.00108 ,3.02620 ,29.69306 
133 ,25.9085 ,1.00321 ,3.01935 ,29.62590 
134 ,26.1167 ,1.00528 ,3.00567 ,29.49159 
135 ,26.3246 ,1.00732 ,2.96460 ,29.08865 
136 ,26.5325 ,1.00933 ,2.95776 ,29.02150 
137 ,26.7248 ,1.01128 ,2.93038 ,28.75287 
138 ,26.9331 ,1.01339 ,2.92353 ,28.68571 
139 ,27.1409 ,1.01546 ,2.89958 ,28.45066 
140 ,27.3172 ,1.01729 ,2.89273 ,28.38351 
141 ,27.5091 ,1.01917 ,2.86536 ,28.11488 
142 ,27.7012 ,1.02108 ,2.84482 ,27.91341 
143 ,27.8930 ,1.02294 ,2.83798 ,27.84625 
144 ,28.0854 ,1.02491 ,2.80718 ,27.54405 
145 ,28.2932 ,1.02696 ,2.81060 ,27.57763 
146 ,28.4854 ,1.02895 ,2.76954 ,27.17469 
147 ,28.6774 ,1.03077 ,2.75927 ,27.07395 
148 ,28.8698 ,1.03277 ,2.75927 ,27.07395 
149 ,29.0615 ,1.03470 ,2.71820 ,26.67101 
150 ,29.2537 ,1.03663 ,2.72847 ,26.77175 
151 ,29.4618 ,1.03867 ,2.69083 ,26.40239 
152 ,29.6380 ,1.04053 ,2.69083 ,26.40239 
153 ,29.8459 ,1.04250 ,2.67029 ,26.20092 
154 ,30.0538 ,1.04466 ,2.65660 ,26.06661 
155 ,30.2461 ,1.04651 ,2.61554 ,25.66367 
156 ,30.4543 ,1.04862 ,2.61554 ,25.66367 
157 ,30.6466 ,1.05046 ,2.58132 ,25.32788 
158 ,30.8387 ,1.05247 ,2.57105 ,25.22715 
159 ,31.0304 ,1.05434 ,2.58132 ,25.32788 
160 ,31.2223 ,1.05628 ,2.54367 ,24.95852 
161 ,31.4148 ,1.05816 ,2.54367 ,24.95852 
162 ,31.6069 ,1.06007 ,2.50603 ,24.58916 
163 ,31.7990 ,1.06208 ,2.49576 ,24.48842 
164 ,32.0069 ,1.06410 ,2.48892 ,24.42127 
165 ,32.1992 ,1.06609 ,2.44443 ,23.98475 
166 ,32.3913 ,1.06798 ,2.45470 ,24.08549 
167 ,32.5993 ,1.07004 ,2.41705 ,23.71612 
168 ,32.8072 ,1.07202 ,2.42732 ,23.81686 
169 ,32.9994 ,1.07407 ,2.38968 ,23.44750 
170 ,33.1915 ,1.07600 ,2.37941 ,23.34676 
171 ,33.3991 ,1.07808 ,2.35545 ,23.11171 
172 ,33.5916 ,1.07995 ,2.35888 ,23.14529 
173 ,33.7678 ,1.08171 ,2.33150 ,22.87667 
174 ,33.9755 ,1.08377 ,2.31097 ,22.67520 
175 ,34.1680 ,1.08566 ,2.29385 ,22.50731 
176 ,34.3599 ,1.08761 ,2.26990 ,22.27226 
177 ,34.5520 ,1.08952 ,2.26648 ,22.23868 
178 ,34.7602 ,1.09152 ,2.24937 ,22.07079 
179 ,34.9522 ,1.09356 ,2.23568 ,21.93647 
180 ,35.1443 ,1.09546 ,2.20488 ,21.63427 
181 ,35.3202 ,1.09734 ,2.19461 ,21.53353 
182 ,35.5123 ,1.09911 ,2.19461 ,21.53353 
183 ,35.7205 ,1.10120 ,2.16039 ,21.19775 
184 ,35.9125 ,1.10311 ,2.15355 ,21.13059 
185 ,36.1044 ,1.10502 ,2.12275 ,20.82839 
186 ,36.2809 ,1.10688 ,2.10564 ,20.66050 
187 ,36.4889 ,1.10894 ,2.11590 ,20.76123 
188 ,36.6645 ,1.11070 ,2.09195 ,20.52619 
189 ,36.8411 ,1.11244 ,2.08510 ,20.45903 
190 ,37.0491 ,1.11455 ,2.06799 ,20.29114 
191 ,37.2412 ,1.11642 ,2.03719 ,19.98893 
192 ,37.4330 ,1.11844 ,2.04061 ,20.02251 
193 ,37.6253 ,1.12026 ,2.02350 ,19.85462 
194 ,37.8173 ,1.12220 ,2.00297 ,19.65315 
195 ,38.0094 ,1.12418 ,1.99270 ,19.55241 
196 ,38.1854 ,1.12590 ,1.97902 ,19.41810 
197 ,38.3778 ,1.12786 ,1.95848 ,19.21663 
198 ,38.5698 ,1.12969 ,1.95506 ,19.18305 
199 ,38.7620 ,1.13160 ,1.92426 ,18.88085 
200 ,38.9539 ,1.13361 ,1.91057 ,18.74654 
201 ,39.1620 ,1.13560 ,1.89004 ,18.54507 
202 ,39.3701 ,1.13770 ,1.89346 ,18.57864 
203 ,39.5621 ,1.13959 ,1.87635 ,18.41075 
204 ,39.7383 ,1.14147 ,1.85582 ,18.20928 
205 ,39.9299 ,1.14331 ,1.85924 ,18.24286 
206 ,40.1064 ,1.14514 ,1.83528 ,18.00781 
207 ,40.2985 ,1.14702 ,1.81133 ,17.77276 
208 ,40.4905 ,1.14887 ,1.80791 ,17.73919 
209 ,40.6826 ,1.15078 ,1.78053 ,17.47056 
210 ,40.8587 ,1.15266 ,1.76684 ,17.33625 
211 ,41.0347 ,1.15444 ,1.77369 ,17.40340 
212 ,41.2268 ,1.15631 ,1.76000 ,17.26909 
213 ,41.4347 ,1.15839 ,1.73262 ,17.00046 
214 ,41.6268 ,1.16032 ,1.73262 ,17.00046 
215 ,41.8188 ,1.16220 ,1.69840 ,16.66468 
216 ,42.0112 ,1.16414 ,1.70866 ,16.76542 
217 ,42.2030 ,1.16606 ,1.67444 ,16.42963 
218 ,42.4113 ,1.16807 ,1.67786 ,16.46321 
219 ,42.6195 ,1.17010 ,1.65049 ,16.19458 
220 ,42.8115 ,1.17211 ,1.63680 ,16.06027 
221 ,43.0036 ,1.17411 ,1.60600 ,15.75807 
222 ,43.1794 ,1.17588 ,1.61627 ,15.85880 
223 ,43.3557 ,1.17757 ,1.59231 ,15.62375 
224 ,43.5317 ,1.17938 ,1.60258 ,15.72449 
225 ,43.6918 ,1.18110 ,1.59231 ,15.62375 
226 ,43.8840 ,1.18282 ,1.55809 ,15.28797 
227 ,44.0918 ,1.18491 ,1.55124 ,15.22081 
228 ,44.2837 ,1.18679 ,1.54782 ,15.18724 
229 ,44.4603 ,1.18865 ,1.51360 ,14.85145 
230 ,44.6362 ,1.19047 ,1.51702 ,14.88503 
231 ,44.8121 ,1.19216 ,1.50333 ,14.75072 
232 ,45.0043 ,1.19402 ,1.49307 ,14.64998 
233 ,45.2125 ,1.19600 ,1.46911 ,14.41493 
234 ,45.3884 ,1.19799 ,1.46227 ,14.34778 
235 ,45.5807 ,1.19982 ,1.44858 ,14.21346 
236 ,45.7727 ,1.20175 ,1.42462 ,13.97842 
237 ,45.9488 ,1.20356 ,1.43489 ,14.07915 
238 ,46.1566 ,1.20553 ,1.40067 ,13.74337 
239 ,46.3485 ,1.20748 ,1.40409 ,13.77695 
240 ,46.5411 ,1.20942 ,1.39040 ,13.64263 
241 ,46.7491 ,1.21145 ,1.36987 ,13.44116 
242 ,46.9411 ,1.21339 ,1.34934 ,13.23969 
243 ,47.1493 ,1.21535 ,1.34591 ,13.20612 
244 ,47.3413 ,1.21739 ,1.32880 ,13.03822 
245 ,47.5335 ,1.21930 ,1.31854 ,12.93749 
246 ,47.7412 ,1.22142 ,1.29116 ,12.66886 
247 ,47.9334 ,1.22334 ,1.27747 ,12.53455 
248 ,48.1092 ,1.22516 ,1.28774 ,12.63528 
249 ,48.3017 ,1.22697 ,1.26378 ,12.40024 
250 ,48.4936 ,1.22892 ,1.23983 ,12.16519 
251 ,48.6859 ,1.23082 ,1.25694 ,12.33308 
252 ,48.8937 ,1.23287 ,1.22272 ,11.99730 
253 ,49.0861 ,1.23478 ,1.21587 ,11.93014 
254 ,49.2621 ,1.23672 ,1.19192 ,11.69509 
255 ,49.4381 ,1.23838 ,1.17823 ,11.56078 
256 ,49.6139 ,1.24019 ,1.19534 ,11.72867 
257 ,49.8062 ,1.24204 ,1.18165 ,11.59436 
258 ,50.0143 ,1.24411 ,1.15085 ,11.29215 
259 ,50.2063 ,1.24609 ,1.14743 ,11.25857 
260 ,50.3986 ,1.24797 ,1.12690 ,11.05710 
261 ,50.5908 ,1.24990 ,1.11321 ,10.92279 
262 ,50.7989 ,1.25201 ,1.09952 ,10.78848 
263 ,51.0068 ,1.25402 ,1.09610 ,10.75490 
264 ,51.2147 ,1.25602 ,1.07899 ,10.58701 
265 ,51.4230 ,1.25822 ,1.07556 ,10.55343 
266 ,51.6147 ,1.26012 ,1.03792 ,10.18407 
267 ,51.7907 ,1.26191 ,1.03792 ,10.18407 
268 ,51.9834 ,1.26379 ,1.03450 ,10.15049 
269 ,52.1753 ,1.26571 ,1.00370 ,9.84829 
270 ,52.3514 ,1.26756 ,1.01739 ,9.98260 
271 ,52.5275 ,1.26931 ,1.00028 ,9.81471 
272 ,52.7191 ,1.27121 ,0.97974 ,9.61324 
273 ,52.8792 ,1.27294 ,0.95921 ,9.41177 
274 ,53.0718 ,1.27468 ,0.95237 ,9.34461 
275 ,53.2637 ,1.27657 ,0.95921 ,9.41177 
276 ,53.4558 ,1.27854 ,0.92499 ,9.07598 
277 ,53.6319 ,1.28035 ,0.90788 ,8.90809 
278 ,53.8238 ,1.28220 ,0.92157 ,9.04241 
279 ,54.0001 ,1.28406 ,0.88392 ,8.67305 
280 ,54.1922 ,1.28583 ,0.89761 ,8.80736 
281 ,54.3838 ,1.28779 ,0.89077 ,8.74020 
282 ,54.5762 ,1.28966 ,0.85997 ,8.43800 
283 ,54.7522 ,1.29151 ,0.83943 ,8.23653 
284 ,54.9443 ,1.29346 ,0.84628 ,8.30368 
285 ,55.1526 ,1.29546 ,0.80521 ,7.90074 
286 ,55.3607 ,1.29750 ,0.80863 ,7.93432 
287 ,55.5527 ,1.29948 ,0.79837 ,7.83359 
288 ,55.7447 ,1.30136 ,0.80179 ,7.86717 
289 ,55.9365 ,1.30324 ,0.77099 ,7.56496 
290 ,56.1284 ,1.30520 ,0.75046 ,7.36349 
291 ,56.3208 ,1.30718 ,0.76757 ,7.53138 
292 ,56.5291 ,1.30918 ,0.75046 ,7.36349 
293 ,56.7211 ,1.31114 ,0.73335 ,7.19560 
294 ,56.9133 ,1.31307 ,0.70597 ,6.92697 
295 ,57.1209 ,1.31520 ,0.70255 ,6.89340 
296 ,57.3133 ,1.31702 ,0.68886 ,6.75908 
297 ,57.5055 ,1.31902 ,0.68544 ,6.72550 
298 ,57.6976 ,1.32094 ,0.66148 ,6.49046 
299 ,57.9056 ,1.32301 ,0.66148 ,6.49046 
300 ,58.0816 ,1.32487 ,0.64779 ,6.35614 
301 ,58.2734 ,1.32665 ,0.63410 ,6.22183 
302 ,58.4661 ,1.32858 ,0.63410 ,6.22183 
303 ,58.6737 ,1.33073 ,0.60673 ,5.95320 
304 ,58.8665 ,1.33264 ,0.61357 ,6.02036 
305 ,59.0739 ,1.33467 ,0.58277 ,5.71815 
306 ,59.2501 ,1.33652 ,0.58277 ,5.71815 
307 ,59.4424 ,1.33834 ,0.57251 ,5.61742 
308 ,59.6343 ,1.34037 ,0.55197 ,5.41595 
309 ,59.8105 ,1.34209 ,0.54855 ,5.38237 
310 ,60.0185 ,1.34403 ,0.53828 ,5.28164 
311 ,60.2264 ,1.34624 ,0.53144 ,5.21448 
312 ,60.4343 ,1.34825 ,0.50748 ,4.97943 
313 ,60.6268 ,1.35021 ,0.49380 ,4.84512 
314 ,60.8188 ,1.35217 ,0.49380 ,4.84512 
315 ,61.0266 ,1.35414 ,0.48695 ,4.77796 
316 ,61.2031 ,1.35599 ,0.46300 ,4.54291 
317 ,61.4110 ,1.35803 ,0.44246 ,4.34144 
318 ,61.5707 ,1.35981 ,0.44246 ,4.34144 
319 ,61.7633 ,1.36155 ,0.45273 ,4.44218 
320 ,61.9713 ,1.36357 ,0.41509 ,4.07282 
321 ,62.1632 ,1.36555 ,0.41851 ,4.10640 
322 ,62.3555 ,1.36749 ,0.38771 ,3.80419 
323 ,62.5475 ,1.36937 ,0.39113 ,3.83777 
324 ,62.7556 ,1.37149 ,0.37060 ,3.63630 
325 ,62.9637 ,1.37356 ,0.37744 ,3.70346 
326 ,63.1557 ,1.37545 ,0.37402 ,3.66988 
327 ,63.3478 ,1.37733 ,0.35006 ,3.43483 
328 ,63.5399 ,1.37930 ,0.33295 ,3.26694 
329 ,63.7318 ,1.38134 ,0.32611 ,3.19978 
330 ,63.9401 ,1.38331 ,0.31242 ,3.06547 
331 ,64.1481 ,1.38538 ,0.29531 ,2.89758 
332 ,64.3237 ,1.38717 ,0.30558 ,2.99831 
333 ,64.5159 ,1.38907 ,0.28162 ,2.76326 
334 ,64.6920 ,1.39097 ,0.25424 ,2.49464 
335 ,64.8681 ,1.39272 ,0.26451 ,2.59537 
336 ,65.0602 ,1.39452 ,0.26451 ,2.59537 
337 ,65.2362 ,1.39638 ,0.22687 ,2.22601 
338 ,65.4285 ,1.39818 ,0.22344 ,2.19243 
339 ,65.6369 ,1.40027 ,0.22002 ,2.15885 
340 ,65.8287 ,1.40229 ,0.21660 ,2.12528 
341 ,66.0211 ,1.40414 ,0.20291 ,1.99096 
342 ,66.2449 ,1.40626 ,0.17553 ,1.72234 
343 ,66.4532 ,1.40841 ,0.17211 ,1.68876 
344 ,66.6448 ,1.41033 ,0.17211 ,1.68876 
345 ,66.8371 ,1.41223 ,0.15158 ,1.48729 
346 ,67.0133 ,1.41409 ,0.13789 ,1.35298 
347 ,67.2215 ,1.41612 ,0.13789 ,1.35298 
348 ,67.4133 ,1.41801 ,0.10709 ,1.05077 
349 ,67.6056 ,1.41995 ,0.11051 ,1.08435 
350 ,67.7978 ,1.42188 ,0.10367 ,1.01719 
351 ,67.9894 ,1.42380 ,0.07971 ,0.78214 
352 ,68.1819 ,1.42574 ,0.08314 ,0.81572 
353 ,68.3899 ,1.42782 ,0.05576 ,0.54710 
354 ,68.5976 ,1.42989 ,0.06260 ,0.61425 
355 ,68.7738 ,1.43171 ,0.04549 ,0.44636 
356 ,68.9500 ,1.43345 ,0.02838 ,0.27847 
357 ,69.1419 ,1.43531 ,0.04207 ,0.41278 
358 ,69.3185 ,1.43714 ,0.01811 ,0.17773 
359 ,69.5265 ,1.43916 ,-0.00584 ,-0.05731 
360 ,69.7187 ,1.44107 ,0.00100 ,0.00984 
361 ,69.9106 ,1.44302 ,-0.02295 ,-0.22520 
362 ,70.1025 ,1.44493 ,-0.02295 ,-0.22520 
363 ,70.2947 ,1.44678 ,-0.03322 ,-0.32594 
364 ,70.4869 ,1.44883 ,-0.04348 ,-0.42667 
365 ,70.6789 ,1.45069 ,-0.03322 ,-0.32594 
366 ,70.8709 ,1.45260 ,-0.06744 ,-0.66172 
367 ,71.0632 ,1.45450 ,-0.06060 ,-0.59457 
368 ,71.2548 ,1.45648 ,-0.07771 ,-0.76246 
369 ,71.4633 ,1.45843 ,-0.09482 ,-0.93035 
370 ,71.6716 ,1.46060 ,-0.10508 ,-1.03108 
371 ,71.8632 ,1.46251 ,-0.11193 ,-1.09824 
372 ,72.0554 ,1.46438 ,-0.13588 ,-1.33329 
373 ,72.2476 ,1.46639 ,-0.14273 ,-1.40045 
374 ,72.4554 ,1.46847 ,-0.14273 ,-1.40045 
375 ,72.6477 ,1.47037 ,-0.15299 ,-1.50118 
376 ,72.8398 ,1.47231 ,-0.14957 ,-1.46760 
377 ,73.0317 ,1.47417 ,-0.17695 ,-1.73623 
378 ,73.2238 ,1.47611 ,-0.17695 ,-1.73623 
379 ,73.4158 ,1.47802 ,-0.18722 ,-1.83696 
380 ,73.6080 ,1.47997 ,-0.20433 ,-2.00485 
381 ,73.8160 ,1.48200 ,-0.19748 ,-1.93770 
382 ,74.0083 ,1.48392 ,-0.22486 ,-2.20632 
383 ,74.2002 ,1.48591 ,-0.21802 ,-2.13917 
384 ,74.3925 ,1.48776 ,-0.25908 ,-2.54211 
385 ,74.5681 ,1.48970 ,-0.24197 ,-2.37422 
386 ,74.7602 ,1.49143 ,-0.24881 ,-2.44137 
387 ,74.9521 ,1.49335 ,-0.27619 ,-2.71000 
388 ,75.1283 ,1.49526 ,-0.26935 ,-2.64284 
389 ,75.3203 ,1.49707 ,-0.28304 ,-2.77716 
390 ,75.5126 ,1.49895 ,-0.30357 ,-2.97863 
391 ,75.6889 ,1.50080 ,-0.30015 ,-2.94505 
392 ,75.8810 ,1.50262 ,-0.30015 ,-2.94505 
393 ,76.0731 ,1.50459 ,-0.33437 ,-3.28083 
394 ,76.2492 ,1.50641 ,-0.34121 ,-3.34799 
395 ,76.4572 ,1.50847 ,-0.33095 ,-3.24725 
396 ,76.6494 ,1.51032 ,-0.34806 ,-3.41514 
397 ,76.8412 ,1.51229 ,-0.35832 ,-3.51588 
398 ,77.0332 ,1.51423 ,-0.36859 ,-3.61661 
399 ,77.2256 ,1.51612 ,-0.37544 ,-3.68377 
400 ,77.4173 ,1.51806 ,-0.38570 ,-3.78450 
401 ,77.6097 ,1.51995 ,-0.38912 ,-3.81808 
402 ,77.8012 ,1.52185 ,-0.39597 ,-3.88524 
403 ,77.9936 ,1.52376 ,-0.43019 ,-4.22102 
404 ,78.1858 ,1.52570 ,-0.42335 ,-4.15387 
405 ,78.3620 ,1.52756 ,-0.43019 ,-4.22102 
406 ,78.5539 ,1.52936 ,-0.44046 ,-4.32176 
407 ,78.7625 ,1.53151 ,-0.45072 ,-4.42249 
408 ,78.9377 ,1.53335 ,-0.46099 ,-4.52323 
409 ,79.1299 ,1.53514 ,-0.48152 ,-4.72470 
410 ,79.3219 ,1.53704 ,-0.47810 ,-4.69112 
411 ,79.5305 ,1.53906 ,-0.48837 ,-4.79185 
412 ,79.7385 ,1.54123 ,-0.48152 ,-4.72470 
413 ,79.9142 ,1.54310 ,-0.51917 ,-5.09406 
414 ,80.1068 ,1.54498 ,-0.51574 ,-5.06048 
415 ,80.3147 ,1.54702 ,-0.52943 ,-5.19479 
416 ,80.5068 ,1.54896 ,-0.55339 ,-5.42984 
417 ,80.7148 ,1.55097 ,-0.54997 ,-5.39626 
418 ,80.9071 ,1.55294 ,-0.56365 ,-5.53058 
419 ,81.0992 ,1.55488 ,-0.56708 ,-5.56415 
420 ,81.3073 ,1.55689 ,-0.58077 ,-5.69847 
421 ,81.4993 ,1.55884 ,-0.57392 ,-5.63131 
422 ,81.6752 ,1.56061 ,-0.59788 ,-5.86636 
423 ,81.8674 ,1.56249 ,-0.61156 ,-6.00067 
424 ,82.0593 ,1.56444 ,-0.60130 ,-5.89994 
425 ,82.2676 ,1.56651 ,-0.62868 ,-6.16856 
426 ,82.4756 ,1.56855 ,-0.63894 ,-6.26930 
427 ,82.6517 ,1.57044 ,-0.63552 ,-6.23572 
428 ,82.8434 ,1.57228 ,-0.65263 ,-6.40361 
429 ,83.0359 ,1.57415 ,-0.66290 ,-6.50435 
430 ,83.2115 ,1.57608 ,-0.67316 ,-6.60508 
431 ,83.4040 ,1.57785 ,-0.67316 ,-6.60508 
432 ,83.6120 ,1.57998 ,-0.68685 ,-6.73940 
433 ,83.8039 ,1.58193 ,-0.68685 ,-6.73940 
434 ,83.9961 ,1.58381 ,-0.68685 ,-6.73940 
435 ,84.1723 ,1.58565 ,-0.71081 ,-6.97444 
436 ,84.3640 ,1.58750 ,-0.72792 ,-7.14233 
437 ,84.5564 ,1.58941 ,-0.72107 ,-7.07518 
438 ,84.7483 ,1.59133 ,-0.73818 ,-7.24307 
439 ,84.9406 ,1.59324 ,-0.73134 ,-7.17591 
440 ,85.1326 ,1.59515 ,-0.76214 ,-7.47812 
441 ,85.3246 ,1.59704 ,-0.76214 ,-7.47812 
442 ,85.5489 ,1.59923 ,-0.77241 ,-7.57885 
443 ,85.7571 ,1.60143 ,-0.77925 ,-7.64601 
444 ,85.9490 ,1.60333 ,-0.78952 ,-7.74674 
445 ,86.1411 ,1.60524 ,-0.78610 ,-7.71317 
446 ,86.3332 ,1.60717 ,-0.82032 ,-8.04895 
447 ,86.5413 ,1.60923 ,-0.81005 ,-7.94821 
448 ,86.7493 ,1.61131 ,-0.83743 ,-8.21684 
449 ,86.9414 ,1.61324 ,-0.82032 ,-8.04895 
450 ,87.1495 ,1.61531 ,-0.84427 ,-8.28400 
451 ,87.3414 ,1.61720 ,-0.84427 ,-8.28400 
452 ,87.5332 ,1.61913 ,-0.86138 ,-8.45189 
453 ,87.7257 ,1.62112 ,-0.88192 ,-8.65336 
454 ,87.9018 ,1.62294 ,-0.85796 ,-8.41831 
455 ,88.0937 ,1.62474 ,-0.87507 ,-8.58620 
456 ,88.2699 ,1.62657 ,-0.90587 ,-8.88841 
457 ,88.4621 ,1.62847 ,-0.89218 ,-8.75409 
458 ,88.6376 ,1.63032 ,-0.90587 ,-8.88841 
459 ,88.8299 ,1.63213 ,-0.93325 ,-9.15703 
460 ,89.0383 ,1.63417 ,-0.92983 ,-9.12345 
461 ,89.2301 ,1.63614 ,-0.94009 ,-9.22419 
462 ,89.4065 ,1.63791 ,-0.94694 ,-9.29135 
463 ,89.6144 ,1.63993 ,-0.95720 ,-9.39208 
