Data stamp = , 28-04-2022 16:08:02 524

Calibration Values: 
Slope = , 26.54 , g/V 
Offset Voltage at no contact = , -0.501760 , V 

No , Time , Stage Position ,   Mass , Force 
   ,  (s) ,      (mm)      ,   (g)  , (mN)  

1 ,0.0000 ,0.74953 ,5.27114 ,51.72043 
2 ,0.2919 ,0.74975 ,5.28141 ,51.82116 
3 ,0.6923 ,0.75112 ,5.26772 ,51.68685 
4 ,0.8854 ,0.75322 ,5.27456 ,51.75401 
5 ,1.0926 ,0.75515 ,5.27798 ,51.78758 
6 ,1.3009 ,0.75719 ,5.28141 ,51.82116 
7 ,1.4927 ,0.75915 ,5.28141 ,51.82116 
8 ,1.7006 ,0.76130 ,5.26087 ,51.61969 
9 ,1.9085 ,0.76328 ,5.23350 ,51.35107 
10 ,2.1005 ,0.76526 ,5.23350 ,51.35107 
11 ,2.3086 ,0.76727 ,5.20612 ,51.08244 
12 ,2.5006 ,0.76928 ,5.19927 ,51.01528 
13 ,2.6927 ,0.77119 ,5.19243 ,50.94813 
14 ,2.8849 ,0.77313 ,5.17190 ,50.74666 
15 ,3.0769 ,0.77504 ,5.14794 ,50.51161 
16 ,3.2689 ,0.77696 ,5.13425 ,50.37729 
17 ,3.4610 ,0.77893 ,5.11372 ,50.17583 
18 ,3.6531 ,0.78083 ,5.09661 ,50.00793 
19 ,3.8293 ,0.78266 ,5.08977 ,49.94078 
20 ,4.0213 ,0.78447 ,5.05212 ,49.57142 
21 ,4.2134 ,0.78632 ,5.04870 ,49.53784 
22 ,4.4055 ,0.78829 ,5.04185 ,49.47068 
23 ,4.6135 ,0.79035 ,4.99394 ,49.00058 
24 ,4.8057 ,0.79224 ,4.99394 ,49.00058 
25 ,4.9978 ,0.79424 ,4.95288 ,48.59764 
26 ,5.2060 ,0.79634 ,4.95972 ,48.66480 
27 ,5.4144 ,0.79835 ,4.91866 ,48.26186 
28 ,5.6065 ,0.80024 ,4.91523 ,48.22828 
29 ,5.7985 ,0.80228 ,4.88444 ,47.92608 
30 ,5.9905 ,0.80421 ,4.87759 ,47.85892 
31 ,6.1662 ,0.80591 ,4.86732 ,47.75819 
32 ,6.3588 ,0.80784 ,4.82284 ,47.32167 
33 ,6.5668 ,0.80986 ,4.82284 ,47.32167 
34 ,6.7748 ,0.81200 ,4.78861 ,46.98589 
35 ,6.9669 ,0.81388 ,4.77150 ,46.81800 
36 ,7.1591 ,0.81578 ,4.74070 ,46.51579 
37 ,7.3511 ,0.81775 ,4.74755 ,46.58295 
38 ,7.5427 ,0.81970 ,4.70990 ,46.21359 
39 ,7.9115 ,0.82342 ,4.68937 ,46.01212 
40 ,8.1034 ,0.82546 ,4.65515 ,45.67633 
41 ,8.2954 ,0.82716 ,4.65515 ,45.67633 
42 ,8.4875 ,0.82915 ,4.63804 ,45.50844 
43 ,8.6953 ,0.83119 ,4.60724 ,45.20624 
44 ,8.8883 ,0.83305 ,4.60382 ,45.17266 
45 ,9.0957 ,0.83519 ,4.57644 ,44.90403 
46 ,9.2881 ,0.83707 ,4.55591 ,44.70256 
47 ,9.4798 ,0.83904 ,4.52169 ,44.36678 
48 ,9.6879 ,0.84098 ,4.52511 ,44.40036 
49 ,9.8807 ,0.84302 ,4.48404 ,43.99742 
50 ,10.0722 ,0.84508 ,4.48746 ,44.03100 
51 ,10.2482 ,0.84672 ,4.47378 ,43.89668 
52 ,10.4404 ,0.84863 ,4.44298 ,43.59448 
53 ,10.6484 ,0.85067 ,4.44298 ,43.59448 
54 ,10.8565 ,0.85280 ,4.40191 ,43.19154 
55 ,11.0486 ,0.85468 ,4.39849 ,43.15796 
56 ,11.2566 ,0.85671 ,4.36084 ,42.78860 
57 ,11.4488 ,0.85869 ,4.37111 ,42.88933 
58 ,11.6404 ,0.86060 ,4.32320 ,42.41924 
59 ,11.8330 ,0.86255 ,4.32320 ,42.41924 
60 ,12.0248 ,0.86448 ,4.30267 ,42.21777 
61 ,12.2012 ,0.86628 ,4.26845 ,41.88198 
62 ,12.4090 ,0.86828 ,4.25476 ,41.74767 
63 ,12.6008 ,0.87028 ,4.23765 ,41.57978 
64 ,12.7933 ,0.87219 ,4.24107 ,41.61336 
65 ,13.0014 ,0.87424 ,4.19316 ,41.14326 
66 ,13.1932 ,0.87617 ,4.21369 ,41.34473 
67 ,13.4016 ,0.87824 ,4.16920 ,40.90821 
68 ,13.5933 ,0.88015 ,4.16920 ,40.90821 
69 ,13.7853 ,0.88205 ,4.12471 ,40.47170 
70 ,13.9775 ,0.88398 ,4.12471 ,40.47170 
71 ,14.2019 ,0.88628 ,4.09734 ,40.20307 
72 ,14.4099 ,0.88832 ,4.08707 ,40.10233 
73 ,14.5858 ,0.89009 ,4.06654 ,39.90087 
74 ,14.7781 ,0.89201 ,4.04258 ,39.66582 
75 ,14.9544 ,0.89377 ,4.03232 ,39.56508 
76 ,15.1623 ,0.89580 ,4.00494 ,39.29646 
77 ,15.3542 ,0.89772 ,4.00494 ,39.29646 
78 ,15.5304 ,0.89957 ,3.97072 ,38.96067 
79 ,15.7063 ,0.90137 ,3.96045 ,38.85994 
80 ,15.9142 ,0.90335 ,3.95703 ,38.82636 
81 ,16.1066 ,0.90526 ,3.92965 ,38.55773 
82 ,16.3149 ,0.90736 ,3.92281 ,38.49058 
83 ,16.5228 ,0.90944 ,3.87147 ,37.98690 
84 ,16.7149 ,0.91131 ,3.87832 ,38.05406 
85 ,16.9070 ,0.91322 ,3.85094 ,37.78543 
86 ,17.0987 ,0.91517 ,3.83041 ,37.58396 
87 ,17.2752 ,0.91696 ,3.82699 ,37.55038 
88 ,17.4671 ,0.91884 ,3.80645 ,37.34891 
89 ,17.6914 ,0.92100 ,3.79276 ,37.21460 
90 ,17.8839 ,0.92301 ,3.76196 ,36.91240 
91 ,18.0914 ,0.92514 ,3.75170 ,36.81166 
92 ,18.2995 ,0.92709 ,3.72432 ,36.54303 
93 ,18.5071 ,0.92931 ,3.71405 ,36.44230 
94 ,18.6838 ,0.93107 ,3.69010 ,36.20725 
95 ,18.8918 ,0.93308 ,3.69010 ,36.20725 
96 ,19.0998 ,0.93517 ,3.66614 ,35.97220 
97 ,19.2919 ,0.93722 ,3.64219 ,35.73716 
98 ,19.4840 ,0.93902 ,3.61823 ,35.50211 
99 ,19.6758 ,0.94098 ,3.60454 ,35.36779 
100 ,19.8682 ,0.94282 ,3.58059 ,35.13275 
101 ,20.0601 ,0.94482 ,3.56348 ,34.96485 
102 ,20.2523 ,0.94671 ,3.56690 ,34.99843 
103 ,20.4445 ,0.94864 ,3.51557 ,34.49476 
104 ,20.6525 ,0.95072 ,3.52584 ,34.59549 
105 ,20.8606 ,0.95270 ,3.49504 ,34.29329 
106 ,21.0525 ,0.95474 ,3.49161 ,34.25971 
107 ,21.2607 ,0.95671 ,3.45739 ,33.92393 
108 ,21.4528 ,0.95882 ,3.45397 ,33.89035 
109 ,21.6448 ,0.96062 ,3.41975 ,33.55457 
110 ,21.8369 ,0.96254 ,3.41975 ,33.55457 
111 ,22.0290 ,0.96449 ,3.39237 ,33.28594 
112 ,22.2371 ,0.96655 ,3.37868 ,33.15163 
113 ,22.4290 ,0.96846 ,3.35130 ,32.88300 
114 ,22.6209 ,0.97046 ,3.33762 ,32.74869 
115 ,22.8133 ,0.97232 ,3.32735 ,32.64795 
116 ,23.0055 ,0.97423 ,3.30339 ,32.41290 
117 ,23.1975 ,0.97620 ,3.28286 ,32.21143 
118 ,23.4055 ,0.97817 ,3.24522 ,31.84207 
119 ,23.5812 ,0.98012 ,3.25548 ,31.94281 
120 ,23.7738 ,0.98188 ,3.24522 ,31.84207 
121 ,23.9656 ,0.98379 ,3.20757 ,31.47271 
122 ,24.1418 ,0.98572 ,3.20415 ,31.43913 
123 ,24.3340 ,0.98749 ,3.18362 ,31.23766 
124 ,24.5261 ,0.98940 ,3.14940 ,30.90188 
125 ,24.7339 ,0.99152 ,3.16309 ,31.03619 
126 ,24.9261 ,0.99343 ,3.12544 ,30.66683 
127 ,25.1341 ,0.99555 ,3.11860 ,30.59968 
128 ,25.3423 ,0.99761 ,3.08095 ,30.23031 
129 ,25.5502 ,0.99953 ,3.09122 ,30.33105 
130 ,25.7421 ,1.00157 ,3.03647 ,29.79380 
131 ,25.9343 ,1.00350 ,3.04673 ,29.89453 
132 ,26.1425 ,1.00555 ,3.01593 ,29.59233 
133 ,26.3346 ,1.00751 ,3.01593 ,29.59233 
134 ,26.5427 ,1.00958 ,2.98855 ,29.32370 
135 ,26.7347 ,1.01147 ,2.98171 ,29.25654 
136 ,26.9109 ,1.01338 ,2.93722 ,28.82003 
137 ,27.1027 ,1.01517 ,2.93722 ,28.82003 
138 ,27.2791 ,1.01705 ,2.93038 ,28.75287 
139 ,27.4710 ,1.01883 ,2.89616 ,28.41709 
140 ,27.6634 ,1.02081 ,2.88589 ,28.31635 
141 ,27.8553 ,1.02266 ,2.88247 ,28.28277 
142 ,28.0476 ,1.02469 ,2.85851 ,28.04772 
143 ,28.2553 ,1.02667 ,2.84482 ,27.91341 
144 ,28.4476 ,1.02861 ,2.80718 ,27.54405 
145 ,28.6394 ,1.03059 ,2.80376 ,27.51047 
146 ,28.8479 ,1.03266 ,2.78322 ,27.30900 
147 ,29.0394 ,1.03454 ,2.77296 ,27.20827 
148 ,29.2319 ,1.03648 ,2.75243 ,27.00680 
149 ,29.4078 ,1.03826 ,2.73874 ,26.87248 
150 ,29.6001 ,1.04011 ,2.72505 ,26.73817 
151 ,29.7920 ,1.04205 ,2.71136 ,26.60386 
152 ,29.9680 ,1.04392 ,2.69083 ,26.40239 
153 ,30.1439 ,1.04564 ,2.67029 ,26.20092 
154 ,30.3364 ,1.04747 ,2.68056 ,26.30165 
155 ,30.5443 ,1.04954 ,2.64976 ,25.99945 
156 ,30.7204 ,1.05150 ,2.64634 ,25.96587 
157 ,30.9126 ,1.05324 ,2.61896 ,25.69724 
158 ,31.0887 ,1.05510 ,2.59501 ,25.46220 
159 ,31.2808 ,1.05695 ,2.59158 ,25.42862 
160 ,31.4890 ,1.05905 ,2.56421 ,25.15999 
161 ,31.7128 ,1.06122 ,2.55736 ,25.09283 
162 ,31.9049 ,1.06316 ,2.51972 ,24.72347 
163 ,32.0808 ,1.06504 ,2.53341 ,24.85779 
164 ,32.2729 ,1.06686 ,2.51630 ,24.68989 
165 ,32.4653 ,1.06878 ,2.49234 ,24.45485 
166 ,32.6570 ,1.07069 ,2.46496 ,24.18622 
167 ,32.8653 ,1.07273 ,2.43416 ,23.88402 
168 ,33.0575 ,1.07473 ,2.44785 ,24.01833 
169 ,33.2654 ,1.07677 ,2.41363 ,23.68255 
170 ,33.4737 ,1.07884 ,2.41021 ,23.64897 
171 ,33.6816 ,1.08097 ,2.38283 ,23.38034 
172 ,33.8578 ,1.08276 ,2.37941 ,23.34676 
173 ,34.0494 ,1.08463 ,2.36572 ,23.21245 
174 ,34.2580 ,1.08664 ,2.32123 ,22.77593 
175 ,34.4497 ,1.08875 ,2.31781 ,22.74235 
176 ,34.6579 ,1.09065 ,2.29043 ,22.47373 
177 ,34.8661 ,1.09276 ,2.28701 ,22.44015 
178 ,35.0578 ,1.09473 ,2.28017 ,22.37299 
179 ,35.2503 ,1.09659 ,2.26990 ,22.27226 
180 ,35.4585 ,1.09862 ,2.24594 ,22.03721 
181 ,35.6504 ,1.10073 ,2.22541 ,21.83574 
182 ,35.8426 ,1.10260 ,2.21515 ,21.73500 
183 ,36.0343 ,1.10445 ,2.20830 ,21.66785 
184 ,36.2268 ,1.10639 ,2.17066 ,21.29849 
185 ,36.4190 ,1.10831 ,2.17066 ,21.29849 
186 ,36.6266 ,1.11038 ,2.13986 ,20.99628 
187 ,36.8191 ,1.11235 ,2.14328 ,21.02986 
188 ,37.0271 ,1.11442 ,2.11248 ,20.72766 
189 ,37.2033 ,1.11624 ,2.09195 ,20.52619 
190 ,37.4114 ,1.11822 ,2.09537 ,20.55976 
191 ,37.6032 ,1.12018 ,2.06799 ,20.29114 
192 ,37.7949 ,1.12207 ,2.06457 ,20.25756 
193 ,37.9876 ,1.12394 ,2.04061 ,20.02251 
194 ,38.1798 ,1.12587 ,2.03719 ,19.98893 
195 ,38.3717 ,1.12786 ,2.02008 ,19.82104 
196 ,38.5638 ,1.12972 ,1.98586 ,19.48526 
197 ,38.7719 ,1.13184 ,1.99270 ,19.55241 
198 ,38.9799 ,1.13392 ,1.95848 ,19.21663 
199 ,39.1880 ,1.13595 ,1.95164 ,19.14948 
200 ,39.3802 ,1.13787 ,1.93453 ,18.98158 
201 ,39.5723 ,1.13982 ,1.93453 ,18.98158 
202 ,39.7804 ,1.14188 ,1.90373 ,18.67938 
203 ,39.9724 ,1.14382 ,1.92084 ,18.84727 
204 ,40.1643 ,1.14570 ,1.87635 ,18.41075 
205 ,40.3726 ,1.14778 ,1.87977 ,18.44433 
206 ,40.5805 ,1.14992 ,1.84555 ,18.10855 
207 ,40.7567 ,1.15170 ,1.84555 ,18.10855 
208 ,40.9648 ,1.15373 ,1.82502 ,17.90708 
209 ,41.1568 ,1.15574 ,1.80106 ,17.67203 
210 ,41.3649 ,1.15774 ,1.79422 ,17.60487 
211 ,41.5571 ,1.15972 ,1.77711 ,17.43698 
212 ,41.7646 ,1.16179 ,1.76000 ,17.26909 
213 ,41.9571 ,1.16373 ,1.74289 ,17.10120 
214 ,42.1651 ,1.16571 ,1.72578 ,16.93331 
215 ,42.3413 ,1.16753 ,1.71893 ,16.86615 
216 ,42.5332 ,1.16940 ,1.72578 ,16.93331 
217 ,42.7254 ,1.17129 ,1.68813 ,16.56395 
218 ,42.9173 ,1.17322 ,1.69498 ,16.63110 
219 ,43.0935 ,1.17511 ,1.68129 ,16.49679 
220 ,43.2857 ,1.17692 ,1.64707 ,16.16101 
221 ,43.4779 ,1.17887 ,1.65391 ,16.22816 
222 ,43.6699 ,1.18085 ,1.62995 ,15.99311 
223 ,43.8939 ,1.18297 ,1.61969 ,15.89238 
224 ,44.0856 ,1.18493 ,1.58889 ,15.59018 
225 ,44.2778 ,1.18686 ,1.58204 ,15.52302 
226 ,44.4701 ,1.18881 ,1.57178 ,15.42228 
227 ,44.6784 ,1.19078 ,1.55467 ,15.25439 
228 ,44.8864 ,1.19295 ,1.53413 ,15.05292 
229 ,45.0785 ,1.19486 ,1.53071 ,15.01934 
230 ,45.2864 ,1.19697 ,1.51360 ,14.85145 
231 ,45.4627 ,1.19877 ,1.48280 ,14.54925 
232 ,45.6708 ,1.20082 ,1.48280 ,14.54925 
233 ,45.8628 ,1.20272 ,1.45885 ,14.31420 
234 ,46.0548 ,1.20463 ,1.46569 ,14.38136 
235 ,46.2470 ,1.20659 ,1.43147 ,14.04557 
236 ,46.4388 ,1.20849 ,1.41436 ,13.87768 
237 ,46.6311 ,1.21041 ,1.43147 ,14.04557 
238 ,46.8393 ,1.21241 ,1.39040 ,13.64263 
239 ,47.0313 ,1.21438 ,1.39725 ,13.70979 
240 ,47.2234 ,1.21629 ,1.36303 ,13.37401 
241 ,47.4154 ,1.21820 ,1.37671 ,13.50832 
242 ,47.6071 ,1.22015 ,1.34591 ,13.20612 
243 ,47.7997 ,1.22203 ,1.33223 ,13.07180 
244 ,47.9919 ,1.22404 ,1.33565 ,13.10538 
245 ,48.1840 ,1.22592 ,1.30143 ,12.76960 
246 ,48.3924 ,1.22801 ,1.30143 ,12.76960 
247 ,48.6001 ,1.22994 ,1.26720 ,12.43381 
248 ,48.7923 ,1.23200 ,1.26378 ,12.40024 
249 ,49.0002 ,1.23407 ,1.24667 ,12.23235 
250 ,49.1922 ,1.23598 ,1.24667 ,12.23235 
251 ,49.3849 ,1.23787 ,1.22272 ,11.99730 
252 ,49.5763 ,1.23983 ,1.22272 ,11.99730 
253 ,49.7522 ,1.24163 ,1.20561 ,11.82941 
254 ,49.9605 ,1.24357 ,1.18165 ,11.59436 
255 ,50.1527 ,1.24560 ,1.18507 ,11.62794 
256 ,50.3607 ,1.24770 ,1.15427 ,11.32573 
257 ,50.5686 ,1.24964 ,1.15085 ,11.29215 
258 ,50.7447 ,1.25159 ,1.12690 ,11.05710 
259 ,50.9370 ,1.25347 ,1.11663 ,10.95637 
260 ,51.1449 ,1.25552 ,1.09610 ,10.75490 
261 ,51.3372 ,1.25740 ,1.08241 ,10.62059 
262 ,51.5451 ,1.25950 ,1.05845 ,10.38554 
263 ,51.7373 ,1.26140 ,1.06530 ,10.45270 
264 ,51.9450 ,1.26350 ,1.04134 ,10.21765 
265 ,52.1375 ,1.26541 ,1.06530 ,10.45270 
266 ,52.3454 ,1.26751 ,1.02423 ,10.04976 
267 ,52.5211 ,1.26933 ,1.02423 ,10.04976 
268 ,52.7292 ,1.27134 ,1.02081 ,10.01618 
269 ,52.9214 ,1.27325 ,0.99001 ,9.71397 
270 ,53.1299 ,1.27539 ,0.98317 ,9.64682 
271 ,53.3218 ,1.27731 ,0.94894 ,9.31103 
272 ,53.5140 ,1.27919 ,0.95921 ,9.41177 
273 ,53.7061 ,1.28110 ,0.93525 ,9.17672 
274 ,53.9142 ,1.28316 ,0.93183 ,9.14314 
275 ,54.1059 ,1.28507 ,0.91814 ,9.00883 
276 ,54.2984 ,1.28707 ,0.89419 ,8.77378 
277 ,54.5066 ,1.28911 ,0.87708 ,8.60589 
278 ,54.6985 ,1.29102 ,0.87708 ,8.60589 
279 ,54.8904 ,1.29295 ,0.88050 ,8.63947 
280 ,55.0668 ,1.29473 ,0.84628 ,8.30368 
281 ,55.2587 ,1.29666 ,0.83601 ,8.20295 
282 ,55.4509 ,1.29857 ,0.85312 ,8.37084 
283 ,55.6429 ,1.30048 ,0.81548 ,8.00148 
284 ,55.8510 ,1.30254 ,0.83943 ,8.23653 
285 ,56.0428 ,1.30447 ,0.79495 ,7.80001 
286 ,56.2508 ,1.30642 ,0.78126 ,7.66570 
287 ,56.4431 ,1.30848 ,0.77099 ,7.56496 
288 ,56.6512 ,1.31058 ,0.77099 ,7.56496 
289 ,56.8436 ,1.31250 ,0.74704 ,7.32991 
290 ,57.0354 ,1.31439 ,0.74019 ,7.26276 
291 ,57.2278 ,1.31630 ,0.72992 ,7.16202 
292 ,57.4192 ,1.31818 ,0.70939 ,6.96055 
293 ,57.5954 ,1.32006 ,0.69913 ,6.85982 
294 ,57.7715 ,1.32186 ,0.70597 ,6.92697 
295 ,57.9635 ,1.32362 ,0.67859 ,6.65835 
296 ,58.1558 ,1.32556 ,0.67517 ,6.62477 
297 ,58.3639 ,1.32769 ,0.66148 ,6.49046 
298 ,58.5557 ,1.32957 ,0.65464 ,6.42330 
299 ,58.7480 ,1.33151 ,0.65464 ,6.42330 
300 ,58.9564 ,1.33358 ,0.64437 ,6.32256 
301 ,59.1483 ,1.33550 ,0.62384 ,6.12109 
302 ,59.3404 ,1.33745 ,0.59646 ,5.85247 
303 ,59.5322 ,1.33933 ,0.61015 ,5.98678 
304 ,59.7407 ,1.34133 ,0.57593 ,5.65100 
305 ,59.9487 ,1.34355 ,0.57593 ,5.65100 
306 ,60.1568 ,1.34556 ,0.54855 ,5.38237 
307 ,60.3490 ,1.34748 ,0.53486 ,5.24806 
308 ,60.5570 ,1.34965 ,0.52802 ,5.18090 
309 ,60.7329 ,1.35137 ,0.52459 ,5.14732 
310 ,60.9092 ,1.35317 ,0.53828 ,5.28164 
311 ,61.1012 ,1.35500 ,0.50064 ,4.91228 
312 ,61.2773 ,1.35688 ,0.48011 ,4.71081 
313 ,61.4694 ,1.35869 ,0.48695 ,4.77796 
314 ,61.6615 ,1.36066 ,0.45273 ,4.44218 
315 ,61.8535 ,1.36254 ,0.46984 ,4.61007 
316 ,62.0617 ,1.36465 ,0.42535 ,4.17355 
317 ,62.2539 ,1.36660 ,0.43220 ,4.24071 
318 ,62.4456 ,1.36848 ,0.42535 ,4.17355 
319 ,62.6380 ,1.37035 ,0.40140 ,3.93850 
320 ,62.8136 ,1.37222 ,0.40824 ,4.00566 
321 ,63.0058 ,1.37413 ,0.40140 ,3.93850 
322 ,63.2141 ,1.37612 ,0.39797 ,3.90493 
323 ,63.4062 ,1.37800 ,0.37744 ,3.70346 
324 ,63.5983 ,1.37998 ,0.35691 ,3.50199 
325 ,63.8064 ,1.38198 ,0.35006 ,3.43483 
326 ,64.0143 ,1.38412 ,0.34322 ,3.36767 
327 ,64.1907 ,1.38599 ,0.33980 ,3.33410 
328 ,64.3986 ,1.38796 ,0.30900 ,3.03189 
329 ,64.5746 ,1.38984 ,0.31242 ,3.06547 
330 ,64.7511 ,1.39160 ,0.30558 ,2.99831 
331 ,64.9427 ,1.39344 ,0.28504 ,2.79684 
332 ,65.1347 ,1.39530 ,0.27820 ,2.72969 
333 ,65.3270 ,1.39734 ,0.26451 ,2.59537 
334 ,65.5192 ,1.39921 ,0.25424 ,2.49464 
335 ,65.7112 ,1.40110 ,0.25082 ,2.46106 
336 ,65.9193 ,1.40319 ,0.22687 ,2.22601 
337 ,66.1109 ,1.40508 ,0.22002 ,2.15885 
338 ,66.3033 ,1.40707 ,0.19949 ,1.95738 
339 ,66.5114 ,1.40909 ,0.19949 ,1.95738 
340 ,66.7037 ,1.41109 ,0.18580 ,1.82307 
341 ,66.8955 ,1.41294 ,0.17553 ,1.72234 
342 ,67.0879 ,1.41491 ,0.17553 ,1.72234 
343 ,67.2799 ,1.41682 ,0.14473 ,1.42013 
344 ,67.4719 ,1.41870 ,0.15842 ,1.55445 
345 ,67.6638 ,1.42058 ,0.13447 ,1.31940 
346 ,67.8722 ,1.42272 ,0.12762 ,1.25224 
347 ,68.0643 ,1.42466 ,0.11393 ,1.11793 
348 ,68.2558 ,1.42657 ,0.10367 ,1.01719 
349 ,68.4483 ,1.42849 ,0.09682 ,0.95004 
350 ,68.6404 ,1.43045 ,0.07287 ,0.71499 
351 ,68.8324 ,1.43233 ,0.08314 ,0.81572 
352 ,69.0245 ,1.43421 ,0.06602 ,0.64783 
353 ,69.2166 ,1.43614 ,0.04549 ,0.44636 
354 ,69.4242 ,1.43816 ,0.04207 ,0.41278 
355 ,69.6167 ,1.44014 ,0.01469 ,0.14416 
356 ,69.8249 ,1.44221 ,0.01811 ,0.17773 
357 ,70.0487 ,1.44444 ,0.01811 ,0.17773 
358 ,70.2409 ,1.44643 ,0.00443 ,0.04342 
359 ,70.4169 ,1.44821 ,-0.01269 ,-0.12447 
360 ,70.6249 ,1.45021 ,-0.03322 ,-0.32594 
361 ,70.8012 ,1.45210 ,-0.02295 ,-0.22520 
362 ,70.9932 ,1.45391 ,-0.03322 ,-0.32594 
363 ,71.1853 ,1.45579 ,-0.05717 ,-0.56099 
364 ,71.3772 ,1.45770 ,-0.07428 ,-0.72888 
365 ,71.5534 ,1.45963 ,-0.07086 ,-0.69530 
366 ,71.7455 ,1.46140 ,-0.08113 ,-0.79604 
367 ,71.9537 ,1.46353 ,-0.08455 ,-0.82961 
368 ,72.1617 ,1.46559 ,-0.11877 ,-1.16540 
369 ,72.3537 ,1.46754 ,-0.11193 ,-1.09824 
370 ,72.5459 ,1.46949 ,-0.12219 ,-1.19898 
371 ,72.7379 ,1.47142 ,-0.14615 ,-1.43402 
372 ,72.9301 ,1.47324 ,-0.12904 ,-1.26613 
373 ,73.1221 ,1.47532 ,-0.15642 ,-1.53476 
374 ,73.3143 ,1.47709 ,-0.14957 ,-1.46760 
375 ,73.5062 ,1.47901 ,-0.16326 ,-1.60191 
376 ,73.7142 ,1.48101 ,-0.18379 ,-1.80338 
377 ,73.9065 ,1.48300 ,-0.19064 ,-1.87054 
378 ,74.1141 ,1.48509 ,-0.19064 ,-1.87054 
379 ,74.2908 ,1.48695 ,-0.19406 ,-1.90412 
380 ,74.4666 ,1.48876 ,-0.23513 ,-2.30706 
381 ,74.6426 ,1.49051 ,-0.24197 ,-2.37422 
382 ,74.8347 ,1.49236 ,-0.24197 ,-2.37422 
383 ,75.0429 ,1.49440 ,-0.25908 ,-2.54211 
384 ,75.2511 ,1.49653 ,-0.24881 ,-2.44137 
385 ,75.4431 ,1.49843 ,-0.28646 ,-2.81073 
386 ,75.6350 ,1.50028 ,-0.27277 ,-2.67642 
387 ,75.8273 ,1.50223 ,-0.27961 ,-2.74358 
388 ,76.0189 ,1.50420 ,-0.31041 ,-3.04578 
389 ,76.2114 ,1.50603 ,-0.30015 ,-2.94505 
390 ,76.4195 ,1.50818 ,-0.33095 ,-3.24725 
391 ,76.6271 ,1.51019 ,-0.32068 ,-3.14652 
392 ,76.8036 ,1.51210 ,-0.34464 ,-3.38156 
393 ,76.9958 ,1.51392 ,-0.33779 ,-3.31441 
394 ,77.2034 ,1.51599 ,-0.35490 ,-3.48230 
395 ,77.3959 ,1.51784 ,-0.37201 ,-3.65019 
396 ,77.5880 ,1.51982 ,-0.38570 ,-3.78450 
397 ,77.7959 ,1.52188 ,-0.38228 ,-3.75093 
398 ,77.9882 ,1.52383 ,-0.38912 ,-3.81808 
399 ,78.1956 ,1.52586 ,-0.41650 ,-4.08671 
400 ,78.3881 ,1.52778 ,-0.41992 ,-4.12029 
401 ,78.5803 ,1.52970 ,-0.42335 ,-4.15387 
402 ,78.7724 ,1.53170 ,-0.42677 ,-4.18744 
403 ,78.9645 ,1.53360 ,-0.45072 ,-4.42249 
404 ,79.1726 ,1.53568 ,-0.44388 ,-4.35534 
405 ,79.3808 ,1.53774 ,-0.46441 ,-4.55681 
406 ,79.5882 ,1.53985 ,-0.46099 ,-4.52323 
407 ,79.7968 ,1.54195 ,-0.48494 ,-4.75828 
408 ,80.0045 ,1.54397 ,-0.50890 ,-4.99332 
409 ,80.1970 ,1.54597 ,-0.50206 ,-4.92617 
410 ,80.4051 ,1.54797 ,-0.51917 ,-5.09406 
411 ,80.5971 ,1.54992 ,-0.51917 ,-5.09406 
412 ,80.8052 ,1.55196 ,-0.54312 ,-5.32911 
413 ,80.9974 ,1.55393 ,-0.54654 ,-5.36268 
414 ,81.1896 ,1.55588 ,-0.55681 ,-5.46342 
415 ,81.3974 ,1.55789 ,-0.55681 ,-5.46342 
416 ,81.5894 ,1.55982 ,-0.57392 ,-5.63131 
417 ,81.7977 ,1.56190 ,-0.58077 ,-5.69847 
418 ,81.9899 ,1.56387 ,-0.58419 ,-5.73205 
419 ,82.1979 ,1.56593 ,-0.59445 ,-5.83278 
420 ,82.3904 ,1.56789 ,-0.60130 ,-5.89994 
421 ,82.5974 ,1.56989 ,-0.62183 ,-6.10141 
422 ,82.8061 ,1.57203 ,-0.64579 ,-6.33646 
423 ,83.0142 ,1.57406 ,-0.63552 ,-6.23572 
424 ,83.2062 ,1.57601 ,-0.65263 ,-6.40361 
425 ,83.3983 ,1.57792 ,-0.65605 ,-6.43719 
426 ,83.5905 ,1.57989 ,-0.65947 ,-6.47077 
427 ,83.7824 ,1.58177 ,-0.68343 ,-6.70582 
428 ,83.9745 ,1.58366 ,-0.67659 ,-6.63866 
429 ,84.1665 ,1.58559 ,-0.69712 ,-6.84013 
430 ,84.3427 ,1.58745 ,-0.68685 ,-6.73940 
431 ,84.5348 ,1.58932 ,-0.70396 ,-6.90729 
432 ,84.7264 ,1.59123 ,-0.72107 ,-7.07518 
433 ,84.9190 ,1.59314 ,-0.73134 ,-7.17591 
434 ,85.1269 ,1.59519 ,-0.74161 ,-7.27665 
435 ,85.3029 ,1.59703 ,-0.74845 ,-7.34380 
436 ,85.4950 ,1.59884 ,-0.74845 ,-7.34380 
437 ,85.6870 ,1.60076 ,-0.76214 ,-7.47812 
438 ,85.8628 ,1.60271 ,-0.77583 ,-7.61243 
439 ,86.0553 ,1.60445 ,-0.77241 ,-7.57885 
440 ,86.2475 ,1.60637 ,-0.78952 ,-7.74674 
441 ,86.4556 ,1.60849 ,-0.78267 ,-7.67959 
442 ,86.6477 ,1.61037 ,-0.81005 ,-7.94821 
443 ,86.8557 ,1.61248 ,-0.81347 ,-7.98179 
444 ,87.0478 ,1.61443 ,-0.82374 ,-8.08253 
445 ,87.2394 ,1.61643 ,-0.83743 ,-8.21684 
446 ,87.4315 ,1.61824 ,-0.82716 ,-8.11611 
447 ,87.6237 ,1.62018 ,-0.86481 ,-8.48547 
448 ,87.8322 ,1.62226 ,-0.85112 ,-8.35115 
449 ,88.0237 ,1.62413 ,-0.88192 ,-8.65336 
450 ,88.2322 ,1.62614 ,-0.86823 ,-8.51904 
451 ,88.4243 ,1.62816 ,-0.90245 ,-8.85483 
452 ,88.6161 ,1.63009 ,-0.88534 ,-8.68694 
453 ,88.8244 ,1.63219 ,-0.91272 ,-8.95556 
454 ,89.0326 ,1.63423 ,-0.90245 ,-8.85483 
455 ,89.2244 ,1.63616 ,-0.92640 ,-9.08988 
456 ,89.4328 ,1.63823 ,-0.92640 ,-9.08988 
457 ,89.6243 ,1.64017 ,-0.93667 ,-9.19061 
458 ,89.8169 ,1.64210 ,-0.94009 ,-9.22419 
459 ,90.0250 ,1.64423 ,-0.96063 ,-9.42566 
460 ,90.2007 ,1.64602 ,-0.96063 ,-9.42566 
461 ,90.3934 ,1.64788 ,-0.96747 ,-9.49282 
462 ,90.6013 ,1.64994 ,-0.98458 ,-9.66071 
463 ,90.8094 ,1.65196 ,-1.00169 ,-9.82860 
