Data stamp = , 27-04-2022 12:07:19 416

Calibration Values: 
Slope = , 26.54 , g/V 
Offset Voltage at no contact = , -0.501760 , V 

No , Time , Stage Position ,   Mass , Force 
   ,  (s) ,      (mm)      ,   (g)  , (mN)  

1 ,0.0000 ,0.74945 ,5.30536 ,52.05621 
2 ,0.2874 ,0.74962 ,5.31221 ,52.12337 
3 ,0.6398 ,0.75089 ,5.30878 ,52.08979 
4 ,0.8796 ,0.75287 ,5.28825 ,51.88832 
5 ,1.0722 ,0.75485 ,5.32247 ,52.22410 
6 ,1.2637 ,0.75675 ,5.31221 ,52.12337 
7 ,1.4402 ,0.75859 ,5.29852 ,51.98905 
8 ,1.6322 ,0.76042 ,5.31221 ,52.12337 
9 ,1.8242 ,0.76233 ,5.28483 ,51.85474 
10 ,2.0165 ,0.76430 ,5.27456 ,51.75401 
11 ,2.2085 ,0.76624 ,5.26087 ,51.61969 
12 ,2.3686 ,0.76797 ,5.23350 ,51.35107 
13 ,2.5608 ,0.76974 ,5.21639 ,51.18317 
14 ,2.7531 ,0.77166 ,5.21296 ,51.14960 
15 ,2.9283 ,0.77352 ,5.17532 ,50.78023 
16 ,3.1047 ,0.77522 ,5.15821 ,50.61234 
17 ,3.2968 ,0.77704 ,5.14452 ,50.47803 
18 ,3.4890 ,0.77905 ,5.13425 ,50.37729 
19 ,3.6810 ,0.78100 ,5.09319 ,49.97436 
20 ,3.8572 ,0.78278 ,5.08634 ,49.90720 
21 ,4.0332 ,0.78450 ,5.07608 ,49.80646 
22 ,4.2091 ,0.78628 ,5.05897 ,49.63857 
23 ,4.3854 ,0.78803 ,5.03843 ,49.43710 
24 ,4.5933 ,0.79004 ,5.03159 ,49.36995 
25 ,4.8016 ,0.79221 ,5.00079 ,49.06774 
26 ,5.0097 ,0.79424 ,4.97341 ,48.79911 
27 ,5.2017 ,0.79615 ,4.94946 ,48.56407 
28 ,5.4098 ,0.79820 ,4.94603 ,48.53049 
29 ,5.5854 ,0.80004 ,4.91523 ,48.22828 
30 ,5.7778 ,0.80186 ,4.89128 ,47.99324 
31 ,5.9700 ,0.80387 ,4.89812 ,48.06039 
32 ,6.1778 ,0.80593 ,4.87759 ,47.85892 
33 ,6.3540 ,0.80773 ,4.85364 ,47.62387 
34 ,6.5462 ,0.80960 ,4.81941 ,47.28809 
35 ,6.7384 ,0.81147 ,4.81257 ,47.22093 
36 ,6.9461 ,0.81362 ,4.79204 ,47.01946 
37 ,7.1386 ,0.81547 ,4.76124 ,46.71726 
38 ,7.3144 ,0.81740 ,4.76124 ,46.71726 
39 ,7.5223 ,0.81932 ,4.71675 ,46.28074 
40 ,7.6984 ,0.82117 ,4.71675 ,46.28074 
41 ,7.8909 ,0.82304 ,4.69622 ,46.07927 
42 ,8.0990 ,0.82517 ,4.66884 ,45.81065 
43 ,8.2909 ,0.82703 ,4.67911 ,45.91138 
44 ,8.4831 ,0.82894 ,4.62093 ,45.34055 
45 ,8.6750 ,0.83085 ,4.63462 ,45.47486 
46 ,8.8509 ,0.83267 ,4.63462 ,45.47486 
47 ,9.0434 ,0.83451 ,4.59013 ,45.03835 
48 ,9.2353 ,0.83646 ,4.57986 ,44.93761 
49 ,9.4274 ,0.83840 ,4.55933 ,44.73614 
50 ,9.6196 ,0.84025 ,4.53195 ,44.46751 
51 ,9.8116 ,0.84223 ,4.53195 ,44.46751 
52 ,10.0031 ,0.84410 ,4.49773 ,44.13173 
53 ,10.2119 ,0.84621 ,4.49089 ,44.06457 
54 ,10.4039 ,0.84817 ,4.46351 ,43.79595 
55 ,10.6278 ,0.85029 ,4.44640 ,43.62806 
56 ,10.8201 ,0.85232 ,4.43271 ,43.49374 
57 ,10.9799 ,0.85407 ,4.41218 ,43.29227 
58 ,11.1722 ,0.85583 ,4.40533 ,43.22512 
59 ,11.3322 ,0.85757 ,4.38138 ,42.99007 
60 ,11.5242 ,0.85932 ,4.35400 ,42.72144 
61 ,11.7165 ,0.86124 ,4.34716 ,42.65429 
62 ,11.9085 ,0.86322 ,4.34373 ,42.62071 
63 ,12.1002 ,0.86512 ,4.29924 ,42.18419 
64 ,12.2928 ,0.86704 ,4.29582 ,42.15061 
65 ,12.4848 ,0.86899 ,4.26845 ,41.88198 
66 ,12.6929 ,0.87105 ,4.26845 ,41.88198 
67 ,12.8848 ,0.87299 ,4.23080 ,41.51262 
68 ,13.0930 ,0.87499 ,4.22053 ,41.41189 
69 ,13.2850 ,0.87694 ,4.20342 ,41.24400 
70 ,13.4612 ,0.87885 ,4.19316 ,41.14326 
71 ,13.6372 ,0.88054 ,4.17262 ,40.94179 
72 ,13.8134 ,0.88227 ,4.15209 ,40.74032 
73 ,14.0052 ,0.88415 ,4.11787 ,40.40454 
74 ,14.2132 ,0.88621 ,4.11787 ,40.40454 
75 ,14.4216 ,0.88819 ,4.10076 ,40.23665 
76 ,14.6136 ,0.89023 ,4.09049 ,40.13591 
77 ,14.7898 ,0.89207 ,4.06996 ,39.93444 
78 ,14.9819 ,0.89395 ,4.04258 ,39.66582 
79 ,15.1738 ,0.89581 ,4.04258 ,39.66582 
80 ,15.3819 ,0.89787 ,4.00152 ,39.26288 
81 ,15.5581 ,0.89972 ,3.98783 ,39.12856 
82 ,15.7341 ,0.90145 ,3.98098 ,39.06141 
83 ,15.9424 ,0.90352 ,3.94676 ,38.72562 
84 ,16.1505 ,0.90551 ,3.95018 ,38.75920 
85 ,16.3586 ,0.90771 ,3.90912 ,38.35626 
86 ,16.5508 ,0.90962 ,3.92623 ,38.52415 
87 ,16.7585 ,0.91172 ,3.86805 ,37.95332 
88 ,16.9347 ,0.91346 ,3.86805 ,37.95332 
89 ,17.1427 ,0.91551 ,3.83725 ,37.65112 
90 ,17.3188 ,0.91733 ,3.82356 ,37.51681 
91 ,17.5265 ,0.91935 ,3.80987 ,37.38249 
92 ,17.7191 ,0.92120 ,3.79276 ,37.21460 
93 ,17.9271 ,0.92336 ,3.76881 ,36.97955 
94 ,18.1189 ,0.92531 ,3.75170 ,36.81166 
95 ,18.2951 ,0.92706 ,3.74485 ,36.74450 
96 ,18.4873 ,0.92889 ,3.72432 ,36.54303 
97 ,18.6793 ,0.93084 ,3.70037 ,36.30799 
98 ,18.8715 ,0.93279 ,3.70379 ,36.34157 
99 ,19.0636 ,0.93464 ,3.66614 ,35.97220 
100 ,19.2396 ,0.93654 ,3.65588 ,35.87147 
101 ,19.4317 ,0.93839 ,3.64903 ,35.80431 
102 ,19.6078 ,0.94023 ,3.62850 ,35.60284 
103 ,19.7999 ,0.94208 ,3.59086 ,35.23348 
104 ,20.0080 ,0.94412 ,3.59770 ,35.30064 
105 ,20.1996 ,0.94607 ,3.56006 ,34.93128 
106 ,20.3761 ,0.94791 ,3.54979 ,34.83054 
107 ,20.5842 ,0.94992 ,3.53952 ,34.72981 
108 ,20.7758 ,0.95183 ,3.52926 ,34.62907 
109 ,20.9527 ,0.95366 ,3.51899 ,34.52834 
110 ,21.1604 ,0.95570 ,3.48135 ,34.15898 
111 ,21.3527 ,0.95760 ,3.48477 ,34.19255 
112 ,21.5448 ,0.95951 ,3.44370 ,33.78961 
113 ,21.7368 ,0.96139 ,3.44028 ,33.75604 
114 ,21.9126 ,0.96330 ,3.40264 ,33.38667 
115 ,22.1208 ,0.96521 ,3.40948 ,33.45383 
116 ,22.3290 ,0.96737 ,3.39237 ,33.28594 
117 ,22.5048 ,0.96916 ,3.37526 ,33.11805 
118 ,22.7131 ,0.97117 ,3.35130 ,32.88300 
119 ,22.8889 ,0.97305 ,3.33077 ,32.68153 
120 ,23.0813 ,0.97489 ,3.29313 ,32.31217 
121 ,23.2734 ,0.97691 ,3.30339 ,32.41290 
122 ,23.4496 ,0.97859 ,3.28628 ,32.24501 
123 ,23.6576 ,0.98060 ,3.26233 ,32.00996 
124 ,23.8498 ,0.98257 ,3.26233 ,32.00996 
125 ,24.0413 ,0.98448 ,3.22468 ,31.64060 
126 ,24.2178 ,0.98627 ,3.20073 ,31.40555 
127 ,24.4099 ,0.98821 ,3.21100 ,31.50629 
128 ,24.6020 ,0.99006 ,3.17335 ,31.13693 
129 ,24.7939 ,0.99195 ,3.17677 ,31.17051 
130 ,24.9861 ,0.99392 ,3.13229 ,30.73399 
131 ,25.1622 ,0.99579 ,3.13229 ,30.73399 
132 ,25.3382 ,0.99745 ,3.10491 ,30.46536 
133 ,25.5140 ,0.99929 ,3.11860 ,30.59968 
134 ,25.7062 ,1.00114 ,3.09122 ,30.33105 
135 ,25.8985 ,1.00303 ,3.07069 ,30.12958 
136 ,26.0744 ,1.00481 ,3.05700 ,29.99527 
137 ,26.2666 ,1.00668 ,3.02962 ,29.72664 
138 ,26.4585 ,1.00867 ,3.01251 ,29.55875 
139 ,26.6669 ,1.01070 ,3.00567 ,29.49159 
140 ,26.8585 ,1.01265 ,2.97144 ,29.15581 
141 ,27.0351 ,1.01447 ,2.96802 ,29.12223 
142 ,27.2267 ,1.01631 ,2.94749 ,28.92076 
143 ,27.4192 ,1.01828 ,2.93038 ,28.75287 
144 ,27.6270 ,1.02035 ,2.91327 ,28.58498 
145 ,27.8192 ,1.02224 ,2.89958 ,28.45066 
146 ,27.9952 ,1.02401 ,2.87905 ,28.24919 
147 ,28.1714 ,1.02580 ,2.88589 ,28.31635 
148 ,28.3632 ,1.02765 ,2.84825 ,27.94699 
149 ,28.5555 ,1.02962 ,2.82771 ,27.74552 
150 ,28.7478 ,1.03154 ,2.81402 ,27.61121 
151 ,28.9398 ,1.03342 ,2.80034 ,27.47689 
152 ,29.1319 ,1.03533 ,2.80034 ,27.47689 
153 ,29.3235 ,1.03726 ,2.75927 ,27.07395 
154 ,29.4840 ,1.03905 ,2.74558 ,26.93964 
155 ,29.6760 ,1.04078 ,2.73874 ,26.87248 
156 ,29.9001 ,1.04293 ,2.71136 ,26.60386 
157 ,30.0923 ,1.04501 ,2.70794 ,26.57028 
158 ,30.3002 ,1.04702 ,2.68056 ,26.30165 
159 ,30.4921 ,1.04894 ,2.68740 ,26.36881 
160 ,30.6844 ,1.05090 ,2.63607 ,25.86514 
161 ,30.8766 ,1.05289 ,2.61554 ,25.66367 
162 ,31.0684 ,1.05475 ,2.61896 ,25.69724 
163 ,31.2767 ,1.05671 ,2.58132 ,25.32788 
164 ,31.4844 ,1.05889 ,2.57447 ,25.26073 
165 ,31.6609 ,1.06066 ,2.56763 ,25.19357 
166 ,31.8688 ,1.06270 ,2.55052 ,25.02568 
167 ,32.0611 ,1.06467 ,2.51972 ,24.72347 
168 ,32.2529 ,1.06655 ,2.52998 ,24.82421 
169 ,32.4455 ,1.06852 ,2.49576 ,24.48842 
170 ,32.6371 ,1.07037 ,2.48892 ,24.42127 
171 ,32.8289 ,1.07231 ,2.48207 ,24.35411 
172 ,33.0209 ,1.07425 ,2.45127 ,24.05191 
173 ,33.1974 ,1.07607 ,2.43759 ,23.91759 
174 ,33.3894 ,1.07796 ,2.43416 ,23.88402 
175 ,33.5816 ,1.07984 ,2.39310 ,23.48108 
176 ,33.7893 ,1.08193 ,2.37941 ,23.34676 
177 ,33.9978 ,1.08387 ,2.36230 ,23.17887 
178 ,34.1898 ,1.08594 ,2.36230 ,23.17887 
179 ,34.3980 ,1.08791 ,2.32465 ,22.80951 
180 ,34.6059 ,1.09008 ,2.32465 ,22.80951 
181 ,34.7820 ,1.09187 ,2.29385 ,22.50731 
182 ,34.9741 ,1.09371 ,2.30070 ,22.57446 
183 ,35.1661 ,1.09570 ,2.26306 ,22.20510 
184 ,35.3583 ,1.09755 ,2.25963 ,22.17152 
185 ,35.5505 ,1.09951 ,2.24252 ,22.00363 
186 ,35.7424 ,1.10139 ,2.21857 ,21.76858 
187 ,35.9342 ,1.10331 ,2.20488 ,21.63427 
188 ,36.1265 ,1.10528 ,2.17408 ,21.33206 
189 ,36.3344 ,1.10736 ,2.18777 ,21.46638 
190 ,36.5428 ,1.10940 ,2.15355 ,21.13059 
191 ,36.7349 ,1.11140 ,2.14328 ,21.02986 
192 ,36.9270 ,1.11325 ,2.12959 ,20.89555 
193 ,37.1188 ,1.11519 ,2.10906 ,20.69408 
194 ,37.2950 ,1.11703 ,2.09195 ,20.52619 
195 ,37.4872 ,1.11885 ,2.07141 ,20.32472 
196 ,37.6952 ,1.12089 ,2.06457 ,20.25756 
197 ,37.8714 ,1.12277 ,2.05088 ,20.12325 
198 ,38.0635 ,1.12462 ,2.02008 ,19.82104 
199 ,38.2716 ,1.12672 ,2.03377 ,19.95535 
200 ,38.4637 ,1.12873 ,2.02008 ,19.82104 
201 ,38.6397 ,1.13047 ,1.98586 ,19.48526 
202 ,38.8478 ,1.13242 ,1.97217 ,19.35094 
203 ,39.0238 ,1.13428 ,1.93795 ,19.01516 
204 ,39.1997 ,1.13606 ,1.94137 ,19.04874 
205 ,39.4078 ,1.13806 ,1.93111 ,18.94801 
206 ,39.5997 ,1.13998 ,1.91742 ,18.81369 
207 ,39.7762 ,1.14183 ,1.91742 ,18.81369 
208 ,39.9680 ,1.14364 ,1.88662 ,18.51149 
209 ,40.1924 ,1.14580 ,1.87977 ,18.44433 
210 ,40.4003 ,1.14797 ,1.84213 ,18.07497 
211 ,40.5920 ,1.14991 ,1.84897 ,18.14213 
212 ,40.7680 ,1.15178 ,1.80791 ,17.73919 
213 ,40.9282 ,1.15345 ,1.81133 ,17.77276 
214 ,41.1205 ,1.15517 ,1.79764 ,17.63845 
215 ,41.2968 ,1.15704 ,1.78737 ,17.53772 
216 ,41.4888 ,1.15896 ,1.76342 ,17.30267 
217 ,41.6646 ,1.16071 ,1.76684 ,17.33625 
218 ,41.8571 ,1.16253 ,1.76342 ,17.30267 
219 ,42.0492 ,1.16449 ,1.73946 ,17.06762 
220 ,42.2411 ,1.16638 ,1.71551 ,16.83257 
221 ,42.4650 ,1.16857 ,1.71209 ,16.79899 
222 ,42.6569 ,1.17061 ,1.69498 ,16.63110 
223 ,42.8652 ,1.17256 ,1.68129 ,16.49679 
224 ,43.0571 ,1.17457 ,1.66760 ,16.36248 
225 ,43.2656 ,1.17663 ,1.64364 ,16.12743 
226 ,43.4574 ,1.17861 ,1.62995 ,15.99311 
227 ,43.6657 ,1.18065 ,1.60600 ,15.75807 
228 ,43.8578 ,1.18247 ,1.61969 ,15.89238 
229 ,44.0337 ,1.18434 ,1.60258 ,15.72449 
230 ,44.2258 ,1.18619 ,1.57178 ,15.42228 
231 ,44.4181 ,1.18819 ,1.57520 ,15.45586 
232 ,44.6099 ,1.19008 ,1.55467 ,15.25439 
233 ,44.8021 ,1.19200 ,1.52387 ,14.95219 
234 ,44.9940 ,1.19396 ,1.52729 ,14.98577 
235 ,45.1863 ,1.19581 ,1.51018 ,14.81787 
236 ,45.3780 ,1.19782 ,1.50333 ,14.75072 
237 ,45.5704 ,1.19966 ,1.48622 ,14.58283 
238 ,45.7620 ,1.20154 ,1.45885 ,14.31420 
239 ,45.9548 ,1.20352 ,1.47596 ,14.48209 
240 ,46.1625 ,1.20549 ,1.43147 ,14.04557 
241 ,46.3545 ,1.20753 ,1.42805 ,14.01199 
242 ,46.5306 ,1.20936 ,1.41094 ,13.84410 
243 ,46.7225 ,1.21117 ,1.39383 ,13.67621 
244 ,46.9145 ,1.21311 ,1.39725 ,13.70979 
245 ,47.0906 ,1.21502 ,1.37671 ,13.50832 
246 ,47.2831 ,1.21678 ,1.33907 ,13.13896 
247 ,47.4912 ,1.21892 ,1.35276 ,13.27327 
248 ,47.6830 ,1.22091 ,1.33907 ,13.13896 
249 ,47.8593 ,1.22261 ,1.32196 ,12.97107 
250 ,48.0194 ,1.22433 ,1.31169 ,12.87033 
251 ,48.1953 ,1.22594 ,1.30827 ,12.83675 
252 ,48.3715 ,1.22777 ,1.27405 ,12.50097 
253 ,48.5637 ,1.22958 ,1.26720 ,12.43381 
254 ,48.7560 ,1.23153 ,1.27063 ,12.46739 
255 ,48.9636 ,1.23360 ,1.23298 ,12.09803 
256 ,49.1396 ,1.23540 ,1.22614 ,12.03088 
257 ,49.3477 ,1.23742 ,1.21587 ,11.93014 
258 ,49.5401 ,1.23940 ,1.20561 ,11.82941 
259 ,49.7483 ,1.24144 ,1.17823 ,11.56078 
260 ,49.9402 ,1.24343 ,1.16112 ,11.39289 
261 ,50.1160 ,1.24519 ,1.17481 ,11.52720 
262 ,50.3242 ,1.24713 ,1.15770 ,11.35931 
263 ,50.5163 ,1.24915 ,1.14401 ,11.22500 
264 ,50.7086 ,1.25098 ,1.14058 ,11.19142 
265 ,50.9006 ,1.25308 ,1.12690 ,11.05710 
266 ,51.0926 ,1.25485 ,1.10979 ,10.88921 
267 ,51.2688 ,1.25666 ,1.08583 ,10.65416 
268 ,51.4449 ,1.25847 ,1.07214 ,10.51985 
269 ,51.6529 ,1.26049 ,1.07214 ,10.51985 
270 ,51.8290 ,1.26229 ,1.04819 ,10.28480 
271 ,52.0210 ,1.26418 ,1.03108 ,10.11691 
272 ,52.2130 ,1.26606 ,1.02765 ,10.08333 
273 ,52.4212 ,1.26815 ,1.01054 ,9.91544 
274 ,52.6293 ,1.27025 ,1.00712 ,9.88186 
275 ,52.8052 ,1.27207 ,0.97632 ,9.57966 
276 ,53.0133 ,1.27405 ,0.97974 ,9.61324 
277 ,53.1896 ,1.27592 ,0.96948 ,9.51250 
278 ,53.3972 ,1.27796 ,0.94894 ,9.31103 
279 ,53.5896 ,1.27982 ,0.93183 ,9.14314 
280 ,53.7654 ,1.28166 ,0.91814 ,9.00883 
281 ,53.9579 ,1.28348 ,0.93183 ,9.14314 
282 ,54.1500 ,1.28545 ,0.90788 ,8.90809 
283 ,54.3420 ,1.28742 ,0.89077 ,8.74020 
284 ,54.5500 ,1.28944 ,0.88734 ,8.70662 
285 ,54.7581 ,1.29148 ,0.87023 ,8.53873 
286 ,54.9502 ,1.29339 ,0.84628 ,8.30368 
287 ,55.1262 ,1.29529 ,0.84286 ,8.27011 
288 ,55.3184 ,1.29709 ,0.83943 ,8.23653 
289 ,55.5103 ,1.29906 ,0.82575 ,8.10221 
290 ,55.7027 ,1.30100 ,0.79495 ,7.80001 
291 ,55.9108 ,1.30303 ,0.78810 ,7.73285 
292 ,56.1188 ,1.30512 ,0.79152 ,7.76643 
293 ,56.3108 ,1.30705 ,0.77099 ,7.56496 
294 ,56.5029 ,1.30896 ,0.74704 ,7.32991 
295 ,56.7107 ,1.31100 ,0.74704 ,7.32991 
296 ,56.9030 ,1.31295 ,0.72308 ,7.09486 
297 ,57.0952 ,1.31486 ,0.73335 ,7.19560 
298 ,57.2872 ,1.31687 ,0.69570 ,6.82624 
299 ,57.4953 ,1.31884 ,0.70597 ,6.92697 
300 ,57.7029 ,1.32095 ,0.66833 ,6.55761 
301 ,57.8955 ,1.32294 ,0.67859 ,6.65835 
302 ,58.0870 ,1.32486 ,0.66490 ,6.52403 
303 ,58.2636 ,1.32659 ,0.62726 ,6.15467 
304 ,58.4715 ,1.32864 ,0.64095 ,6.28899 
305 ,58.6799 ,1.33073 ,0.62726 ,6.15467 
306 ,58.8876 ,1.33282 ,0.61015 ,5.98678 
307 ,59.0959 ,1.33487 ,0.59646 ,5.85247 
308 ,59.3038 ,1.33690 ,0.58619 ,5.75173 
309 ,59.5120 ,1.33903 ,0.58277 ,5.71815 
310 ,59.7042 ,1.34095 ,0.54855 ,5.38237 
311 ,59.9123 ,1.34299 ,0.54855 ,5.38237 
312 ,60.0883 ,1.34481 ,0.53486 ,5.24806 
313 ,60.2805 ,1.34671 ,0.53144 ,5.21448 
314 ,60.4722 ,1.34873 ,0.50748 ,4.97943 
315 ,60.6644 ,1.35059 ,0.51091 ,5.01301 
316 ,60.8568 ,1.35250 ,0.50406 ,4.94585 
317 ,61.0490 ,1.35442 ,0.48695 ,4.77796 
318 ,61.2569 ,1.35645 ,0.48353 ,4.74438 
319 ,61.4489 ,1.35837 ,0.45615 ,4.47576 
320 ,61.6410 ,1.36028 ,0.44931 ,4.40860 
321 ,61.8330 ,1.36220 ,0.44246 ,4.34144 
322 ,62.0247 ,1.36416 ,0.42193 ,4.13997 
323 ,62.2172 ,1.36604 ,0.41166 ,4.03924 
324 ,62.4094 ,1.36800 ,0.40140 ,3.93850 
325 ,62.6014 ,1.36994 ,0.38429 ,3.77061 
326 ,62.7775 ,1.37171 ,0.38771 ,3.80419 
327 ,63.0015 ,1.37395 ,0.35349 ,3.46841 
328 ,63.1933 ,1.37580 ,0.36375 ,3.56914 
329 ,63.3855 ,1.37773 ,0.33295 ,3.26694 
330 ,63.5778 ,1.37974 ,0.33295 ,3.26694 
331 ,63.7540 ,1.38153 ,0.33638 ,3.30052 
332 ,63.9300 ,1.38324 ,0.31242 ,3.06547 
333 ,64.1059 ,1.38498 ,0.29873 ,2.93116 
334 ,64.2980 ,1.38686 ,0.29531 ,2.89758 
335 ,64.5218 ,1.38901 ,0.28162 ,2.76326 
336 ,64.6983 ,1.39093 ,0.25767 ,2.52822 
337 ,64.8741 ,1.39268 ,0.26109 ,2.56179 
338 ,65.0662 ,1.39457 ,0.24740 ,2.42748 
339 ,65.2581 ,1.39650 ,0.24740 ,2.42748 
340 ,65.4502 ,1.39839 ,0.23029 ,2.25959 
341 ,65.6267 ,1.40020 ,0.22687 ,2.22601 
342 ,65.8186 ,1.40208 ,0.21318 ,2.09170 
343 ,66.0269 ,1.40414 ,0.20633 ,2.02454 
344 ,66.2186 ,1.40609 ,0.18922 ,1.85665 
345 ,66.4111 ,1.40798 ,0.18238 ,1.78949 
346 ,66.6028 ,1.40994 ,0.16185 ,1.58802 
347 ,66.7790 ,1.41176 ,0.15158 ,1.48729 
348 ,66.9711 ,1.41376 ,0.14473 ,1.42013 
349 ,67.1633 ,1.41546 ,0.12420 ,1.21866 
350 ,67.3710 ,1.41750 ,0.14131 ,1.38655 
351 ,67.5635 ,1.41954 ,0.11393 ,1.11793 
352 ,67.7555 ,1.42151 ,0.10709 ,1.05077 
353 ,67.9316 ,1.42326 ,0.10709 ,1.05077 
354 ,68.1078 ,1.42501 ,0.09340 ,0.91646 
355 ,68.2999 ,1.42690 ,0.07629 ,0.74857 
356 ,68.4916 ,1.42880 ,0.07629 ,0.74857 
357 ,68.6841 ,1.43071 ,0.04207 ,0.41278 
358 ,68.8759 ,1.43260 ,0.04891 ,0.47994 
359 ,69.0523 ,1.43448 ,0.04207 ,0.41278 
360 ,69.2601 ,1.43654 ,0.03180 ,0.31205 
361 ,69.4363 ,1.43827 ,0.03522 ,0.34563 
362 ,69.6123 ,1.44011 ,-0.00242 ,-0.02373 
363 ,69.8043 ,1.44199 ,-0.01269 ,-0.12447 
364 ,69.9963 ,1.44381 ,-0.01269 ,-0.12447 
365 ,70.2205 ,1.44592 ,-0.02637 ,-0.25878 
366 ,70.4126 ,1.44801 ,-0.03322 ,-0.32594 
367 ,70.5885 ,1.44983 ,-0.04006 ,-0.39310 
368 ,70.7969 ,1.45180 ,-0.05375 ,-0.52741 
369 ,70.9889 ,1.45384 ,-0.06744 ,-0.66172 
370 ,71.1811 ,1.45569 ,-0.07428 ,-0.72888 
371 ,71.3731 ,1.45759 ,-0.07086 ,-0.69530 
372 ,71.5652 ,1.45958 ,-0.10508 ,-1.03108 
373 ,71.7409 ,1.46145 ,-0.09140 ,-0.89677 
374 ,71.9171 ,1.46305 ,-0.10508 ,-1.03108 
375 ,72.0934 ,1.46489 ,-0.12562 ,-1.23255 
376 ,72.2695 ,1.46665 ,-0.13931 ,-1.36687 
377 ,72.4616 ,1.46849 ,-0.13931 ,-1.36687 
378 ,72.6536 ,1.47038 ,-0.12904 ,-1.26613 
379 ,72.8293 ,1.47225 ,-0.16668 ,-1.63549 
380 ,73.0214 ,1.47407 ,-0.16668 ,-1.63549 
381 ,73.2137 ,1.47596 ,-0.16668 ,-1.63549 
382 ,73.4059 ,1.47795 ,-0.18722 ,-1.83696 
383 ,73.5980 ,1.47983 ,-0.19748 ,-1.93770 
384 ,73.8060 ,1.48190 ,-0.22144 ,-2.17275 
385 ,73.9822 ,1.48379 ,-0.21802 ,-2.13917 
386 ,74.1742 ,1.48561 ,-0.22486 ,-2.20632 
387 ,74.3662 ,1.48754 ,-0.24881 ,-2.44137 
388 ,74.5745 ,1.48958 ,-0.23170 ,-2.27348 
389 ,74.7667 ,1.49150 ,-0.25224 ,-2.47495 
390 ,74.9583 ,1.49346 ,-0.26935 ,-2.64284 
391 ,75.1509 ,1.49538 ,-0.26935 ,-2.64284 
392 ,75.3429 ,1.49723 ,-0.27277 ,-2.67642 
393 ,75.5510 ,1.49936 ,-0.29673 ,-2.91147 
394 ,75.7431 ,1.50125 ,-0.30699 ,-3.01220 
395 ,75.9351 ,1.50321 ,-0.30357 ,-2.97863 
396 ,76.1427 ,1.50523 ,-0.33095 ,-3.24725 
397 ,76.3509 ,1.50736 ,-0.33437 ,-3.28083 
398 ,76.5433 ,1.50924 ,-0.34464 ,-3.38156 
399 ,76.7352 ,1.51121 ,-0.34464 ,-3.38156 
400 ,76.9274 ,1.51309 ,-0.37544 ,-3.68377 
401 ,77.1190 ,1.51500 ,-0.37201 ,-3.65019 
402 ,77.3116 ,1.51698 ,-0.38228 ,-3.75093 
403 ,77.5037 ,1.51901 ,-0.37201 ,-3.65019 
404 ,77.6958 ,1.52086 ,-0.39255 ,-3.85166 
405 ,77.9040 ,1.52285 ,-0.40966 ,-4.01955 
406 ,78.0958 ,1.52476 ,-0.41308 ,-4.05313 
407 ,78.2880 ,1.52673 ,-0.43019 ,-4.22102 
408 ,78.4802 ,1.52870 ,-0.43019 ,-4.22102 
409 ,78.6722 ,1.53061 ,-0.44730 ,-4.38891 
410 ,78.8641 ,1.53245 ,-0.48152 ,-4.72470 
411 ,79.0565 ,1.53435 ,-0.46099 ,-4.52323 
412 ,79.2640 ,1.53637 ,-0.48494 ,-4.75828 
413 ,79.4567 ,1.53842 ,-0.48152 ,-4.72470 
414 ,79.6487 ,1.54035 ,-0.50548 ,-4.95975 
415 ,79.8406 ,1.54224 ,-0.49521 ,-4.85901 
416 ,80.0324 ,1.54413 ,-0.52259 ,-5.12764 
417 ,80.2244 ,1.54604 ,-0.52259 ,-5.12764 
418 ,80.4006 ,1.54790 ,-0.52259 ,-5.12764 
419 ,80.5929 ,1.54970 ,-0.53970 ,-5.29553 
420 ,80.8009 ,1.55186 ,-0.53970 ,-5.29553 
421 ,80.9771 ,1.55362 ,-0.55681 ,-5.46342 
422 ,81.1850 ,1.55566 ,-0.57734 ,-5.66489 
423 ,81.3770 ,1.55759 ,-0.56023 ,-5.49700 
424 ,81.5853 ,1.55969 ,-0.59445 ,-5.83278 
425 ,81.7774 ,1.56168 ,-0.58761 ,-5.76562 
426 ,81.9695 ,1.56352 ,-0.62183 ,-6.10141 
427 ,82.1616 ,1.56550 ,-0.61499 ,-6.03425 
428 ,82.3377 ,1.56724 ,-0.62868 ,-6.16856 
429 ,82.5293 ,1.56913 ,-0.64236 ,-6.30288 
430 ,82.7218 ,1.57104 ,-0.62183 ,-6.10141 
431 ,82.9299 ,1.57311 ,-0.65605 ,-6.43719 
432 ,83.1220 ,1.57503 ,-0.65947 ,-6.47077 
433 ,83.3138 ,1.57696 ,-0.67316 ,-6.60508 
434 ,83.5059 ,1.57880 ,-0.68001 ,-6.67224 
435 ,83.6822 ,1.58079 ,-0.66974 ,-6.57150 
436 ,83.8741 ,1.58254 ,-0.69027 ,-6.77297 
437 ,84.0500 ,1.58444 ,-0.71765 ,-7.04160 
438 ,84.2421 ,1.58624 ,-0.71765 ,-7.04160 
439 ,84.4345 ,1.58824 ,-0.71765 ,-7.04160 
440 ,84.6266 ,1.59011 ,-0.72792 ,-7.14233 
441 ,84.8346 ,1.59215 ,-0.73134 ,-7.17591 
442 ,85.0429 ,1.59423 ,-0.74845 ,-7.34380 
443 ,85.2348 ,1.59615 ,-0.73476 ,-7.20949 
444 ,85.4269 ,1.59805 ,-0.76898 ,-7.54527 
445 ,85.6029 ,1.59993 ,-0.76214 ,-7.47812 
446 ,85.7786 ,1.60164 ,-0.76898 ,-7.54527 
447 ,85.9712 ,1.60356 ,-0.78267 ,-7.67959 
448 ,86.1632 ,1.60556 ,-0.79636 ,-7.81390 
449 ,86.3555 ,1.60733 ,-0.81005 ,-7.94821 
450 ,86.5634 ,1.60943 ,-0.79978 ,-7.84748 
451 ,86.7714 ,1.61152 ,-0.83401 ,-8.18326 
452 ,86.9476 ,1.61332 ,-0.83743 ,-8.21684 
453 ,87.1396 ,1.61516 ,-0.82374 ,-8.08253 
454 ,87.2997 ,1.61698 ,-0.84769 ,-8.31758 
455 ,87.4918 ,1.61876 ,-0.86823 ,-8.51904 
456 ,87.6836 ,1.62066 ,-0.87165 ,-8.55262 
457 ,87.8920 ,1.62271 ,-0.87849 ,-8.61978 
458 ,88.0840 ,1.62464 ,-0.90245 ,-8.85483 
459 ,88.2921 ,1.62671 ,-0.89903 ,-8.82125 
460 ,88.4680 ,1.62853 ,-0.90587 ,-8.88841 
461 ,88.6762 ,1.63061 ,-0.89903 ,-8.82125 
462 ,88.8522 ,1.63236 ,-0.91614 ,-8.98914 
463 ,89.0440 ,1.63426 ,-0.90929 ,-8.92198 
