Data stamp = , 27-04-2022 00:41:01 772

Calibration Values: 
Slope = , 26.54 , g/V 
Offset Voltage at no contact = , -0.501760 , V 

No , Time , Stage Position ,   Mass , Force 
   ,  (s) ,      (mm)      ,   (g)  , (mN)  

1 ,0.0000 ,0.74945 ,5.28141 ,51.82116 
2 ,0.3396 ,0.74971 ,5.27114 ,51.72043 
3 ,0.6602 ,0.75101 ,5.27456 ,51.75401 
4 ,0.8521 ,0.75280 ,5.26772 ,51.68685 
5 ,1.0441 ,0.75456 ,5.27456 ,51.75401 
6 ,1.2365 ,0.75646 ,5.27798 ,51.78758 
7 ,1.4286 ,0.75837 ,5.28825 ,51.88832 
8 ,1.6366 ,0.76049 ,5.28483 ,51.85474 
9 ,1.8288 ,0.76253 ,5.26430 ,51.65327 
10 ,2.0209 ,0.76437 ,5.24376 ,51.45180 
11 ,2.2290 ,0.76651 ,5.19927 ,51.01528 
12 ,2.4369 ,0.76854 ,5.20270 ,51.04886 
13 ,2.6291 ,0.77046 ,5.16163 ,50.64592 
14 ,2.8211 ,0.77232 ,5.16505 ,50.67950 
15 ,2.9971 ,0.77415 ,5.15479 ,50.57876 
16 ,3.1730 ,0.77592 ,5.12399 ,50.27656 
17 ,3.3489 ,0.77775 ,5.11714 ,50.20940 
18 ,3.5251 ,0.77944 ,5.08977 ,49.94078 
19 ,3.7334 ,0.78151 ,5.05897 ,49.63857 
20 ,3.9414 ,0.78358 ,5.05212 ,49.57142 
21 ,4.1015 ,0.78533 ,5.03501 ,49.40352 
22 ,4.2935 ,0.78704 ,5.01448 ,49.20205 
23 ,4.4857 ,0.78895 ,4.98368 ,48.89985 
24 ,4.6779 ,0.79096 ,4.98026 ,48.86627 
25 ,4.8861 ,0.79304 ,4.95630 ,48.63122 
26 ,5.0938 ,0.79508 ,4.91523 ,48.22828 
27 ,5.3021 ,0.79717 ,4.92208 ,48.29544 
28 ,5.5102 ,0.79928 ,4.87759 ,47.85892 
29 ,5.7023 ,0.80115 ,4.87075 ,47.79177 
30 ,5.8784 ,0.80298 ,4.85706 ,47.65745 
31 ,6.0865 ,0.80502 ,4.83652 ,47.45598 
32 ,6.2785 ,0.80695 ,4.81941 ,47.28809 
33 ,6.4542 ,0.80875 ,4.79546 ,47.05304 
34 ,6.6305 ,0.81050 ,4.76466 ,46.75084 
35 ,6.8068 ,0.81225 ,4.75782 ,46.68368 
36 ,7.0147 ,0.81426 ,4.73386 ,46.44863 
37 ,7.1908 ,0.81610 ,4.70990 ,46.21359 
38 ,7.3505 ,0.81782 ,4.69279 ,46.04569 
39 ,7.5591 ,0.81973 ,4.69622 ,46.07927 
40 ,7.7511 ,0.82162 ,4.67226 ,45.84422 
41 ,7.9273 ,0.82343 ,4.65173 ,45.64275 
42 ,8.1194 ,0.82537 ,4.64146 ,45.54202 
43 ,8.3271 ,0.82737 ,4.61066 ,45.23981 
44 ,8.5195 ,0.82933 ,4.59697 ,45.10550 
45 ,8.7276 ,0.83139 ,4.57302 ,44.87045 
46 ,8.9197 ,0.83331 ,4.57986 ,44.93761 
47 ,9.0958 ,0.83511 ,4.53880 ,44.53467 
48 ,9.2881 ,0.83702 ,4.51826 ,44.33320 
49 ,9.4795 ,0.83894 ,4.52511 ,44.40036 
50 ,9.6721 ,0.84083 ,4.48404 ,43.99742 
51 ,9.8641 ,0.84277 ,4.48746 ,44.03100 
52 ,10.0721 ,0.84484 ,4.45666 ,43.72879 
53 ,10.2642 ,0.84677 ,4.44298 ,43.59448 
54 ,10.4723 ,0.84881 ,4.41560 ,43.32585 
55 ,10.6642 ,0.85083 ,4.39164 ,43.09080 
56 ,10.8725 ,0.85282 ,4.37453 ,42.92291 
57 ,11.0486 ,0.85468 ,4.35742 ,42.75502 
58 ,11.2407 ,0.85649 ,4.34716 ,42.65429 
59 ,11.4168 ,0.85843 ,4.31636 ,42.35208 
60 ,11.6084 ,0.86022 ,4.30267 ,42.21777 
61 ,11.8005 ,0.86213 ,4.30267 ,42.21777 
62 ,11.9926 ,0.86402 ,4.26160 ,41.81483 
63 ,12.1849 ,0.86592 ,4.26502 ,41.84841 
64 ,12.3769 ,0.86790 ,4.23422 ,41.54620 
65 ,12.5693 ,0.86987 ,4.22053 ,41.41189 
66 ,12.7451 ,0.87172 ,4.21369 ,41.34473 
67 ,12.9372 ,0.87344 ,4.20685 ,41.27758 
68 ,13.1293 ,0.87547 ,4.15894 ,40.80748 
69 ,13.3054 ,0.87722 ,4.14183 ,40.63959 
70 ,13.4815 ,0.87899 ,4.13498 ,40.57243 
71 ,13.6732 ,0.88084 ,4.12129 ,40.43812 
72 ,13.8657 ,0.88274 ,4.10418 ,40.27023 
73 ,14.0900 ,0.88490 ,4.08707 ,40.10233 
74 ,14.2820 ,0.88697 ,4.05627 ,39.80013 
75 ,14.4741 ,0.88889 ,4.04943 ,39.73297 
76 ,14.6660 ,0.89073 ,4.03574 ,39.59866 
77 ,14.8417 ,0.89259 ,4.01520 ,39.39719 
78 ,15.0342 ,0.89441 ,3.99467 ,39.19572 
79 ,15.2423 ,0.89648 ,3.98441 ,39.09499 
80 ,15.4183 ,0.89832 ,3.96729 ,38.92709 
81 ,15.6103 ,0.90020 ,3.93307 ,38.59131 
82 ,15.8026 ,0.90213 ,3.92965 ,38.55773 
83 ,15.9942 ,0.90403 ,3.91254 ,38.38984 
84 ,16.1867 ,0.90599 ,3.87490 ,38.02048 
85 ,16.3627 ,0.90781 ,3.88174 ,38.08764 
86 ,16.5388 ,0.90957 ,3.86463 ,37.91975 
87 ,16.7148 ,0.91128 ,3.85436 ,37.81901 
88 ,16.8911 ,0.91309 ,3.81330 ,37.41607 
89 ,17.0990 ,0.91511 ,3.81672 ,37.44965 
90 ,17.3072 ,0.91714 ,3.77908 ,37.08029 
91 ,17.4987 ,0.91915 ,3.76539 ,36.94597 
92 ,17.6915 ,0.92103 ,3.75512 ,36.84524 
93 ,17.8832 ,0.92294 ,3.73801 ,36.67735 
94 ,18.0750 ,0.92482 ,3.71748 ,36.47588 
95 ,18.2673 ,0.92674 ,3.69352 ,36.24083 
96 ,18.4596 ,0.92874 ,3.67641 ,36.07294 
97 ,18.6357 ,0.93052 ,3.68668 ,36.17367 
98 ,18.8278 ,0.93237 ,3.64219 ,35.73716 
99 ,19.0198 ,0.93431 ,3.63192 ,35.63642 
100 ,19.2119 ,0.93625 ,3.61139 ,35.43495 
101 ,19.3880 ,0.93802 ,3.57717 ,35.09917 
102 ,19.5800 ,0.93993 ,3.57032 ,35.03201 
103 ,19.7721 ,0.94177 ,3.55321 ,34.86412 
104 ,19.9482 ,0.94362 ,3.52584 ,34.59549 
105 ,20.1403 ,0.94555 ,3.53610 ,34.69623 
106 ,20.3323 ,0.94738 ,3.51215 ,34.46118 
107 ,20.5244 ,0.94931 ,3.48477 ,34.19255 
108 ,20.7485 ,0.95138 ,3.48477 ,34.19255 
109 ,20.9406 ,0.95350 ,3.45397 ,33.89035 
110 ,21.1487 ,0.95556 ,3.43001 ,33.65530 
111 ,21.3406 ,0.95750 ,3.41975 ,33.55457 
112 ,21.5169 ,0.95928 ,3.41290 ,33.48741 
113 ,21.7248 ,0.96130 ,3.37868 ,33.15163 
114 ,21.9171 ,0.96323 ,3.37526 ,33.11805 
115 ,22.1248 ,0.96537 ,3.34788 ,32.84942 
116 ,22.3167 ,0.96731 ,3.33419 ,32.71511 
117 ,22.5092 ,0.96917 ,3.31024 ,32.48006 
118 ,22.7173 ,0.97132 ,3.29997 ,32.37933 
119 ,22.9250 ,0.97336 ,3.26917 ,32.07712 
120 ,23.1015 ,0.97513 ,3.25206 ,31.90923 
121 ,23.2936 ,0.97700 ,3.24864 ,31.87565 
122 ,23.5016 ,0.97905 ,3.21442 ,31.53987 
123 ,23.6777 ,0.98094 ,3.21100 ,31.50629 
124 ,23.8697 ,0.98279 ,3.19731 ,31.37198 
125 ,24.0458 ,0.98459 ,3.16993 ,31.10335 
126 ,24.2380 ,0.98643 ,3.16993 ,31.10335 
127 ,24.4298 ,0.98837 ,3.14255 ,30.83472 
128 ,24.6221 ,0.99025 ,3.13571 ,30.76757 
129 ,24.8141 ,0.99222 ,3.11175 ,30.53252 
130 ,25.0063 ,0.99408 ,3.10491 ,30.46536 
131 ,25.2143 ,0.99621 ,3.08780 ,30.29747 
132 ,25.3906 ,0.99805 ,3.08095 ,30.23031 
133 ,25.5981 ,0.99999 ,3.04331 ,29.86095 
134 ,25.8066 ,1.00201 ,3.03647 ,29.79380 
135 ,25.9985 ,1.00408 ,3.00567 ,29.49159 
136 ,26.1908 ,1.00603 ,2.98171 ,29.25654 
137 ,26.3508 ,1.00774 ,2.96460 ,29.08865 
138 ,26.5427 ,1.00952 ,2.94749 ,28.92076 
139 ,26.7345 ,1.01137 ,2.94749 ,28.92076 
140 ,26.9105 ,1.01331 ,2.91669 ,28.61856 
141 ,27.1029 ,1.01509 ,2.89616 ,28.41709 
142 ,27.3273 ,1.01739 ,2.88589 ,28.31635 
143 ,27.5352 ,1.01941 ,2.89273 ,28.38351 
144 ,27.7430 ,1.02138 ,2.85851 ,28.04772 
145 ,27.9194 ,1.02341 ,2.84482 ,27.91341 
146 ,28.1116 ,1.02516 ,2.83114 ,27.77910 
147 ,28.3036 ,1.02707 ,2.79349 ,27.40974 
148 ,28.4958 ,1.02902 ,2.78665 ,27.34258 
149 ,28.6879 ,1.03093 ,2.77638 ,27.24185 
150 ,28.8957 ,1.03297 ,2.76611 ,27.14111 
151 ,29.0880 ,1.03489 ,2.73874 ,26.87248 
152 ,29.2800 ,1.03688 ,2.71820 ,26.67101 
153 ,29.4562 ,1.03868 ,2.70794 ,26.57028 
154 ,29.6483 ,1.04056 ,2.69767 ,26.46954 
155 ,29.8400 ,1.04243 ,2.65660 ,26.06661 
156 ,30.0323 ,1.04440 ,2.67714 ,26.26807 
157 ,30.2404 ,1.04648 ,2.63607 ,25.86514 
158 ,30.4325 ,1.04835 ,2.63265 ,25.83156 
159 ,30.6243 ,1.05029 ,2.61212 ,25.63009 
160 ,30.8166 ,1.05217 ,2.60527 ,25.56293 
161 ,31.0084 ,1.05410 ,2.57105 ,25.22715 
162 ,31.2007 ,1.05606 ,2.55394 ,25.05926 
163 ,31.3769 ,1.05789 ,2.54025 ,24.92494 
164 ,31.5530 ,1.05964 ,2.54710 ,24.99210 
165 ,31.7771 ,1.06167 ,2.50603 ,24.58916 
166 ,31.9852 ,1.06387 ,2.48550 ,24.38769 
167 ,32.1611 ,1.06575 ,2.48207 ,24.35411 
168 ,32.3372 ,1.06746 ,2.45812 ,24.11906 
169 ,32.5131 ,1.06920 ,2.45812 ,24.11906 
170 ,32.7054 ,1.07106 ,2.42732 ,23.81686 
171 ,32.8976 ,1.07299 ,2.41363 ,23.68255 
172 ,33.1055 ,1.07508 ,2.39652 ,23.51465 
173 ,33.3296 ,1.07724 ,2.38625 ,23.41392 
174 ,33.5376 ,1.07935 ,2.36914 ,23.24603 
175 ,33.7137 ,1.08122 ,2.35545 ,23.11171 
176 ,33.9059 ,1.08302 ,2.33834 ,22.94382 
177 ,34.0976 ,1.08498 ,2.31439 ,22.70877 
178 ,34.2902 ,1.08691 ,2.31097 ,22.67520 
179 ,34.4979 ,1.08888 ,2.28017 ,22.37299 
180 ,34.6902 ,1.09095 ,2.28017 ,22.37299 
181 ,34.8822 ,1.09286 ,2.25279 ,22.10437 
182 ,35.0585 ,1.09465 ,2.23226 ,21.90290 
183 ,35.2664 ,1.09656 ,2.23226 ,21.90290 
184 ,35.4586 ,1.09860 ,2.20488 ,21.63427 
185 ,35.6347 ,1.10041 ,2.19119 ,21.49996 
186 ,35.8424 ,1.10251 ,2.16723 ,21.26491 
187 ,36.0346 ,1.10433 ,2.15697 ,21.16417 
188 ,36.2429 ,1.10645 ,2.13301 ,20.92912 
189 ,36.4345 ,1.10838 ,2.12959 ,20.89555 
190 ,36.6272 ,1.11031 ,2.11590 ,20.76123 
191 ,36.8030 ,1.11222 ,2.08168 ,20.42545 
192 ,36.9953 ,1.11394 ,2.06115 ,20.22398 
193 ,37.2030 ,1.11604 ,2.05430 ,20.15682 
194 ,37.3794 ,1.11787 ,2.04061 ,20.02251 
195 ,37.5714 ,1.11969 ,2.04404 ,20.05609 
196 ,37.7473 ,1.12157 ,2.03035 ,19.92178 
197 ,37.9235 ,1.12334 ,1.99955 ,19.61957 
198 ,38.0997 ,1.12509 ,1.96875 ,19.31737 
199 ,38.2917 ,1.12706 ,1.97902 ,19.41810 
200 ,38.4836 ,1.12882 ,1.94822 ,19.11590 
201 ,38.6757 ,1.13074 ,1.94137 ,19.04874 
202 ,38.8680 ,1.13274 ,1.94137 ,19.04874 
203 ,39.0438 ,1.13450 ,1.92426 ,18.88085 
204 ,39.2520 ,1.13653 ,1.91057 ,18.74654 
205 ,39.4280 ,1.13831 ,1.90031 ,18.64580 
206 ,39.6200 ,1.14019 ,1.87293 ,18.37717 
207 ,39.8283 ,1.14220 ,1.86266 ,18.27644 
208 ,40.0363 ,1.14433 ,1.83528 ,18.00781 
209 ,40.2444 ,1.14644 ,1.83528 ,18.00781 
210 ,40.4365 ,1.14835 ,1.80106 ,17.67203 
211 ,40.6286 ,1.15030 ,1.80791 ,17.73919 
212 ,40.8366 ,1.15243 ,1.77711 ,17.43698 
213 ,41.0446 ,1.15440 ,1.77369 ,17.40340 
214 ,41.2209 ,1.15626 ,1.75315 ,17.20193 
215 ,41.4129 ,1.15813 ,1.75657 ,17.23551 
216 ,41.6211 ,1.16021 ,1.70866 ,16.76542 
217 ,41.8287 ,1.16228 ,1.71551 ,16.83257 
218 ,42.0212 ,1.16425 ,1.69155 ,16.59752 
219 ,42.2131 ,1.16615 ,1.68129 ,16.49679 
220 ,42.4213 ,1.16820 ,1.65733 ,16.26174 
221 ,42.6133 ,1.17016 ,1.64364 ,16.12743 
222 ,42.8215 ,1.17224 ,1.64022 ,16.09385 
223 ,43.0136 ,1.17409 ,1.63338 ,16.02669 
224 ,43.2217 ,1.17622 ,1.60600 ,15.75807 
225 ,43.4139 ,1.17813 ,1.59916 ,15.69091 
226 ,43.6219 ,1.18021 ,1.57862 ,15.48944 
227 ,43.8140 ,1.18214 ,1.55809 ,15.28797 
228 ,44.0220 ,1.18416 ,1.54440 ,15.15366 
229 ,44.1981 ,1.18603 ,1.53413 ,15.05292 
230 ,44.3902 ,1.18788 ,1.53071 ,15.01934 
231 ,44.5983 ,1.18988 ,1.51018 ,14.81787 
232 ,44.8062 ,1.19206 ,1.51018 ,14.81787 
233 ,44.9983 ,1.19397 ,1.47253 ,14.44851 
234 ,45.1906 ,1.19590 ,1.47596 ,14.48209 
235 ,45.3825 ,1.19785 ,1.45885 ,14.31420 
236 ,45.5745 ,1.19967 ,1.43831 ,14.11273 
237 ,45.7667 ,1.20161 ,1.43489 ,14.07915 
238 ,45.9588 ,1.20353 ,1.40409 ,13.77695 
239 ,46.1344 ,1.20549 ,1.39725 ,13.70979 
240 ,46.3268 ,1.20725 ,1.40409 ,13.77695 
241 ,46.5031 ,1.20907 ,1.38698 ,13.60906 
242 ,46.6951 ,1.21101 ,1.35618 ,13.30685 
243 ,46.9031 ,1.21298 ,1.35618 ,13.30685 
244 ,47.0954 ,1.21487 ,1.31854 ,12.93749 
245 ,47.3032 ,1.21702 ,1.32196 ,12.97107 
246 ,47.4795 ,1.21882 ,1.31512 ,12.90391 
247 ,47.6714 ,1.22076 ,1.29116 ,12.66886 
248 ,47.8476 ,1.22251 ,1.28774 ,12.63528 
249 ,48.0556 ,1.22458 ,1.26720 ,12.43381 
250 ,48.2634 ,1.22659 ,1.26378 ,12.40024 
251 ,48.4557 ,1.22850 ,1.23983 ,12.16519 
252 ,48.6479 ,1.23043 ,1.22614 ,12.03088 
253 ,48.8560 ,1.23260 ,1.21587 ,11.93014 
254 ,49.0480 ,1.23448 ,1.20903 ,11.86298 
255 ,49.2402 ,1.23628 ,1.18507 ,11.62794 
256 ,49.4321 ,1.23828 ,1.17138 ,11.49362 
257 ,49.6083 ,1.24013 ,1.17823 ,11.56078 
258 ,49.8004 ,1.24201 ,1.15427 ,11.32573 
259 ,49.9925 ,1.24391 ,1.13716 ,11.15784 
260 ,50.1686 ,1.24573 ,1.12347 ,11.02353 
261 ,50.3443 ,1.24751 ,1.10979 ,10.88921 
262 ,50.5207 ,1.24921 ,1.11663 ,10.95637 
263 ,50.7125 ,1.25111 ,1.09952 ,10.78848 
264 ,50.9207 ,1.25313 ,1.06872 ,10.48627 
265 ,51.0967 ,1.25500 ,1.06530 ,10.45270 
266 ,51.2889 ,1.25689 ,1.05845 ,10.38554 
267 ,51.4808 ,1.25876 ,1.03450 ,10.15049 
268 ,51.6732 ,1.26068 ,1.01054 ,9.91544 
269 ,51.8807 ,1.26275 ,1.02423 ,10.04976 
270 ,52.0573 ,1.26458 ,1.00028 ,9.81471 
271 ,52.2492 ,1.26646 ,1.00028 ,9.81471 
272 ,52.4254 ,1.26829 ,0.99685 ,9.78113 
273 ,52.6011 ,1.27009 ,0.95579 ,9.37819 
274 ,52.8097 ,1.27195 ,0.94894 ,9.31103 
275 ,53.0016 ,1.27401 ,0.94894 ,9.31103 
276 ,53.1778 ,1.27584 ,0.92157 ,9.04241 
277 ,53.3699 ,1.27764 ,0.92157 ,9.04241 
278 ,53.5779 ,1.27968 ,0.90103 ,8.84094 
279 ,53.7700 ,1.28166 ,0.88734 ,8.70662 
280 ,53.9620 ,1.28364 ,0.89077 ,8.74020 
281 ,54.1541 ,1.28548 ,0.85654 ,8.40442 
282 ,54.3301 ,1.28737 ,0.87023 ,8.53873 
283 ,54.5059 ,1.28903 ,0.85312 ,8.37084 
284 ,54.6981 ,1.29090 ,0.82917 ,8.13579 
285 ,54.8904 ,1.29284 ,0.82575 ,8.10221 
286 ,55.0664 ,1.29469 ,0.82232 ,8.06864 
287 ,55.2425 ,1.29642 ,0.79837 ,7.83359 
288 ,55.4184 ,1.29822 ,0.78810 ,7.73285 
289 ,55.6268 ,1.30024 ,0.78468 ,7.69927 
290 ,55.8188 ,1.30218 ,0.75730 ,7.43065 
291 ,56.0108 ,1.30403 ,0.75046 ,7.36349 
292 ,56.2030 ,1.30596 ,0.74704 ,7.32991 
293 ,56.3791 ,1.30782 ,0.72650 ,7.12844 
294 ,56.5712 ,1.30967 ,0.70597 ,6.92697 
295 ,56.7792 ,1.31174 ,0.69570 ,6.82624 
296 ,56.9709 ,1.31368 ,0.68201 ,6.69193 
297 ,57.1634 ,1.31553 ,0.69570 ,6.82624 
298 ,57.3553 ,1.31748 ,0.66833 ,6.55761 
299 ,57.5313 ,1.31932 ,0.65121 ,6.38972 
300 ,57.7076 ,1.32106 ,0.65121 ,6.38972 
301 ,57.8996 ,1.32304 ,0.62042 ,6.08752 
302 ,58.0593 ,1.32470 ,0.61699 ,6.05394 
303 ,58.2514 ,1.32642 ,0.61015 ,5.98678 
304 ,58.4274 ,1.32831 ,0.60330 ,5.91962 
305 ,58.6197 ,1.33014 ,0.58619 ,5.75173 
306 ,58.8278 ,1.33222 ,0.58277 ,5.71815 
307 ,59.0361 ,1.33428 ,0.55197 ,5.41595 
308 ,59.2119 ,1.33619 ,0.54513 ,5.34879 
309 ,59.4040 ,1.33798 ,0.55197 ,5.41595 
310 ,59.5960 ,1.33987 ,0.53828 ,5.28164 
311 ,59.7887 ,1.34183 ,0.52117 ,5.11375 
312 ,59.9800 ,1.34378 ,0.52117 ,5.11375 
313 ,60.1563 ,1.34553 ,0.50748 ,4.97943 
314 ,60.3485 ,1.34741 ,0.48011 ,4.71081 
315 ,60.5406 ,1.34936 ,0.48011 ,4.71081 
316 ,60.7326 ,1.35127 ,0.45615 ,4.47576 
317 ,60.9089 ,1.35306 ,0.44931 ,4.40860 
318 ,61.1009 ,1.35493 ,0.45273 ,4.44218 
319 ,61.2927 ,1.35696 ,0.42877 ,4.20713 
320 ,61.4851 ,1.35875 ,0.43220 ,4.24071 
321 ,61.6772 ,1.36069 ,0.40824 ,4.00566 
322 ,61.8690 ,1.36264 ,0.38429 ,3.77061 
323 ,62.0613 ,1.36456 ,0.39455 ,3.87135 
324 ,62.2692 ,1.36652 ,0.36375 ,3.56914 
325 ,62.4613 ,1.36851 ,0.37060 ,3.63630 
326 ,62.6534 ,1.37045 ,0.34322 ,3.36767 
327 ,62.8454 ,1.37235 ,0.35006 ,3.43483 
328 ,63.0216 ,1.37418 ,0.34322 ,3.36767 
329 ,63.2297 ,1.37618 ,0.30215 ,2.96473 
330 ,63.4216 ,1.37813 ,0.31926 ,3.13263 
331 ,63.6138 ,1.38007 ,0.29531 ,2.89758 
332 ,63.8059 ,1.38204 ,0.28504 ,2.79684 
333 ,63.9980 ,1.38388 ,0.27135 ,2.66253 
334 ,64.1901 ,1.38577 ,0.26451 ,2.59537 
335 ,64.3822 ,1.38780 ,0.24740 ,2.42748 
336 ,64.5902 ,1.38978 ,0.23029 ,2.25959 
337 ,64.7663 ,1.39162 ,0.23029 ,2.25959 
338 ,64.9584 ,1.39348 ,0.23029 ,2.25959 
339 ,65.1665 ,1.39552 ,0.20976 ,2.05812 
340 ,65.3586 ,1.39748 ,0.19949 ,1.95738 
341 ,65.5506 ,1.39938 ,0.18238 ,1.78949 
342 ,65.7267 ,1.40122 ,0.17553 ,1.72234 
343 ,65.9188 ,1.40310 ,0.16869 ,1.65518 
344 ,66.1108 ,1.40503 ,0.15500 ,1.52087 
345 ,66.3028 ,1.40692 ,0.15158 ,1.48729 
346 ,66.5108 ,1.40899 ,0.12078 ,1.18508 
347 ,66.7027 ,1.41094 ,0.12762 ,1.25224 
348 ,66.8950 ,1.41281 ,0.10709 ,1.05077 
349 ,67.0713 ,1.41469 ,0.09340 ,0.91646 
350 ,67.2792 ,1.41670 ,0.10709 ,1.05077 
351 ,67.4552 ,1.41851 ,0.08656 ,0.84930 
352 ,67.6475 ,1.42040 ,0.06602 ,0.64783 
353 ,67.8233 ,1.42217 ,0.07287 ,0.71499 
354 ,67.9994 ,1.42394 ,0.05576 ,0.54710 
355 ,68.1918 ,1.42581 ,0.02838 ,0.27847 
356 ,68.3839 ,1.42782 ,0.03865 ,0.37920 
357 ,68.5920 ,1.42976 ,0.00443 ,0.04342 
358 ,68.8000 ,1.43189 ,0.01811 ,0.17773 
359 ,68.9923 ,1.43378 ,-0.00584 ,-0.05731 
360 ,69.2001 ,1.43590 ,-0.01611 ,-0.15805 
361 ,69.3923 ,1.43785 ,-0.02637 ,-0.25878 
362 ,69.5842 ,1.43967 ,-0.02980 ,-0.29236 
363 ,69.7763 ,1.44161 ,-0.04691 ,-0.46025 
364 ,69.9520 ,1.44351 ,-0.05375 ,-0.52741 
365 ,70.1445 ,1.44533 ,-0.06060 ,-0.59457 
366 ,70.3365 ,1.44725 ,-0.05717 ,-0.56099 
367 ,70.5443 ,1.44936 ,-0.09140 ,-0.89677 
368 ,70.7367 ,1.45133 ,-0.08113 ,-0.79604 
369 ,70.9128 ,1.45311 ,-0.11535 ,-1.13182 
370 ,71.0888 ,1.45487 ,-0.11193 ,-1.09824 
371 ,71.2811 ,1.45670 ,-0.10851 ,-1.06466 
372 ,71.4730 ,1.45862 ,-0.13246 ,-1.29971 
373 ,71.6649 ,1.46054 ,-0.14957 ,-1.46760 
374 ,71.8570 ,1.46244 ,-0.14615 ,-1.43402 
375 ,72.0332 ,1.46433 ,-0.15984 ,-1.56834 
376 ,72.2253 ,1.46610 ,-0.17695 ,-1.73623 
377 ,72.4334 ,1.46821 ,-0.18037 ,-1.76981 
378 ,72.6252 ,1.47018 ,-0.19406 ,-1.90412 
379 ,72.8176 ,1.47203 ,-0.20090 ,-1.97128 
380 ,73.0097 ,1.47398 ,-0.21459 ,-2.10559 
381 ,73.2012 ,1.47599 ,-0.22486 ,-2.20632 
382 ,73.3933 ,1.47776 ,-0.23855 ,-2.34064 
383 ,73.5859 ,1.47970 ,-0.23513 ,-2.30706 
384 ,73.7780 ,1.48169 ,-0.24197 ,-2.37422 
385 ,73.9701 ,1.48360 ,-0.27961 ,-2.74358 
386 ,74.1782 ,1.48561 ,-0.25224 ,-2.47495 
387 ,74.3702 ,1.48757 ,-0.28988 ,-2.84431 
388 ,74.5941 ,1.48980 ,-0.28646 ,-2.81073 
389 ,74.7704 ,1.49168 ,-0.30357 ,-2.97863 
390 ,74.9461 ,1.49348 ,-0.30357 ,-2.97863 
391 ,75.1226 ,1.49513 ,-0.32410 ,-3.18010 
392 ,75.3143 ,1.49700 ,-0.31041 ,-3.04578 
393 ,75.5067 ,1.49898 ,-0.34806 ,-3.41514 
394 ,75.7305 ,1.50106 ,-0.35148 ,-3.44872 
395 ,75.9230 ,1.50310 ,-0.36517 ,-3.58303 
396 ,76.1149 ,1.50506 ,-0.36175 ,-3.54946 
397 ,76.2913 ,1.50682 ,-0.38570 ,-3.78450 
398 ,76.4831 ,1.50882 ,-0.38228 ,-3.75093 
399 ,76.6750 ,1.51057 ,-0.37201 ,-3.65019 
400 ,76.8673 ,1.51246 ,-0.40623 ,-3.98597 
401 ,77.0593 ,1.51447 ,-0.40966 ,-4.01955 
402 ,77.2353 ,1.51625 ,-0.40281 ,-3.95240 
403 ,77.4115 ,1.51803 ,-0.42677 ,-4.18744 
404 ,77.5875 ,1.51978 ,-0.44388 ,-4.35534 
405 ,77.7797 ,1.52160 ,-0.44046 ,-4.32176 
406 ,77.9717 ,1.52357 ,-0.45757 ,-4.48965 
407 ,78.1637 ,1.52545 ,-0.47126 ,-4.62396 
408 ,78.3557 ,1.52740 ,-0.47810 ,-4.69112 
409 ,78.5318 ,1.52921 ,-0.47810 ,-4.69112 
410 ,78.7560 ,1.53132 ,-0.49863 ,-4.89259 
411 ,78.9640 ,1.53347 ,-0.51574 ,-5.06048 
412 ,79.1561 ,1.53539 ,-0.50890 ,-4.99332 
413 ,79.3483 ,1.53728 ,-0.52259 ,-5.12764 
414 ,79.5401 ,1.53928 ,-0.53285 ,-5.22837 
415 ,79.7324 ,1.54128 ,-0.54654 ,-5.36268 
416 ,79.8925 ,1.54297 ,-0.56023 ,-5.49700 
417 ,80.0685 ,1.54459 ,-0.57050 ,-5.59773 
418 ,80.2607 ,1.54638 ,-0.57392 ,-5.63131 
419 ,80.4526 ,1.54838 ,-0.56023 ,-5.49700 
420 ,80.6448 ,1.55027 ,-0.59788 ,-5.86636 
421 ,80.8365 ,1.55225 ,-0.60472 ,-5.93352 
422 ,81.0289 ,1.55415 ,-0.59103 ,-5.79920 
423 ,81.2212 ,1.55606 ,-0.61841 ,-6.06783 
424 ,81.4131 ,1.55797 ,-0.61841 ,-6.06783 
425 ,81.6212 ,1.56007 ,-0.63894 ,-6.26930 
426 ,81.8128 ,1.56200 ,-0.63552 ,-6.23572 
427 ,82.0052 ,1.56388 ,-0.65263 ,-6.40361 
428 ,82.2135 ,1.56597 ,-0.64921 ,-6.37003 
429 ,82.4054 ,1.56789 ,-0.68343 ,-6.70582 
430 ,82.5816 ,1.56973 ,-0.68343 ,-6.70582 
431 ,82.7893 ,1.57168 ,-0.68343 ,-6.70582 
432 ,82.9497 ,1.57349 ,-0.70054 ,-6.87371 
433 ,83.1415 ,1.57527 ,-0.69712 ,-6.84013 
434 ,83.3337 ,1.57716 ,-0.71081 ,-6.97444 
435 ,83.5415 ,1.57926 ,-0.73818 ,-7.24307 
436 ,83.7340 ,1.58116 ,-0.71423 ,-7.00802 
437 ,83.9417 ,1.58326 ,-0.76214 ,-7.47812 
438 ,84.1661 ,1.58554 ,-0.75187 ,-7.37738 
439 ,84.3742 ,1.58758 ,-0.76214 ,-7.47812 
440 ,84.5661 ,1.58957 ,-0.76556 ,-7.51170 
441 ,84.7584 ,1.59145 ,-0.78610 ,-7.71317 
442 ,84.9506 ,1.59337 ,-0.77241 ,-7.57885 
443 ,85.1585 ,1.59538 ,-0.78610 ,-7.71317 
444 ,85.3345 ,1.59726 ,-0.80321 ,-7.88106 
445 ,85.5267 ,1.59907 ,-0.81005 ,-7.94821 
446 ,85.7348 ,1.60113 ,-0.82374 ,-8.08253 
447 ,85.9428 ,1.60325 ,-0.84769 ,-8.31758 
448 ,86.1346 ,1.60515 ,-0.83743 ,-8.21684 
449 ,86.3430 ,1.60722 ,-0.83401 ,-8.18326 
450 ,86.5510 ,1.60933 ,-0.84085 ,-8.25042 
451 ,86.7271 ,1.61117 ,-0.87849 ,-8.61978 
452 ,86.9350 ,1.61315 ,-0.87165 ,-8.55262 
453 ,87.1431 ,1.61525 ,-0.87849 ,-8.61978 
454 ,87.3190 ,1.61714 ,-0.91272 ,-8.95556 
455 ,87.5111 ,1.61892 ,-0.89560 ,-8.78767 
456 ,87.7036 ,1.62088 ,-0.91956 ,-9.02272 
457 ,87.9119 ,1.62300 ,-0.90245 ,-8.85483 
458 ,88.1358 ,1.62507 ,-0.93667 ,-9.19061 
459 ,88.3275 ,1.62710 ,-0.93325 ,-9.15703 
460 ,88.5198 ,1.62904 ,-0.95036 ,-9.32492 
461 ,88.7281 ,1.63108 ,-0.95378 ,-9.35850 
462 ,88.9201 ,1.63305 ,-0.97431 ,-9.55997 
463 ,89.1283 ,1.63512 ,-0.97431 ,-9.55997 
