Data stamp = , 27-04-2022 17:53:42 513

Calibration Values: 
Slope = , 26.54 , g/V 
Offset Voltage at no contact = , -0.501760 , V 

No , Time , Stage Position ,   Mass , Force 
   ,  (s) ,      (mm)      ,   (g)  , (mN)  

1 ,0.0000 ,0.74945 ,5.25403 ,51.55254 
2 ,0.2946 ,0.74965 ,5.26430 ,51.65327 
3 ,0.6467 ,0.75093 ,5.24718 ,51.48538 
4 ,0.8552 ,0.75275 ,5.25061 ,51.51896 
5 ,1.0955 ,0.75510 ,5.25061 ,51.51896 
6 ,1.2872 ,0.75705 ,5.27456 ,51.75401 
7 ,1.4956 ,0.75918 ,5.26430 ,51.65327 
8 ,1.6877 ,0.76105 ,5.27456 ,51.75401 
9 ,1.8957 ,0.76309 ,5.23692 ,51.38464 
10 ,2.0879 ,0.76506 ,5.24034 ,51.41822 
11 ,2.2799 ,0.76700 ,5.21296 ,51.14960 
12 ,2.4721 ,0.76889 ,5.20954 ,51.11602 
13 ,2.6478 ,0.77074 ,5.18559 ,50.88097 
14 ,2.8563 ,0.77261 ,5.15821 ,50.61234 
15 ,3.0644 ,0.77487 ,5.14794 ,50.51161 
16 ,3.2564 ,0.77673 ,5.13768 ,50.41087 
17 ,3.4485 ,0.77863 ,5.11714 ,50.20940 
18 ,3.6407 ,0.78062 ,5.08977 ,49.94078 
19 ,3.8486 ,0.78268 ,5.07950 ,49.84004 
20 ,4.0405 ,0.78457 ,5.04870 ,49.53784 
21 ,4.2326 ,0.78648 ,5.04185 ,49.47068 
22 ,4.4409 ,0.78849 ,4.99394 ,49.00058 
23 ,4.6492 ,0.79069 ,5.00421 ,49.10132 
24 ,4.8408 ,0.79253 ,4.96657 ,48.73196 
25 ,5.0332 ,0.79454 ,4.94261 ,48.49691 
26 ,5.2413 ,0.79657 ,4.92892 ,48.36260 
27 ,5.4334 ,0.79848 ,4.91181 ,48.19471 
28 ,5.6255 ,0.80043 ,4.90497 ,48.12755 
29 ,5.8335 ,0.80241 ,4.86732 ,47.75819 
30 ,6.0416 ,0.80460 ,4.85706 ,47.65745 
31 ,6.2336 ,0.80649 ,4.85364 ,47.62387 
32 ,6.4096 ,0.80833 ,4.83995 ,47.48956 
33 ,6.6180 ,0.81033 ,4.80230 ,47.12020 
34 ,6.8259 ,0.81246 ,4.78519 ,46.95231 
35 ,7.0017 ,0.81423 ,4.76124 ,46.71726 
36 ,7.1938 ,0.81611 ,4.74413 ,46.54937 
37 ,7.3862 ,0.81807 ,4.73728 ,46.48221 
38 ,7.5621 ,0.81985 ,4.71675 ,46.28074 
39 ,7.7383 ,0.82164 ,4.70648 ,46.18001 
40 ,7.9143 ,0.82339 ,4.65515 ,45.67633 
41 ,8.1061 ,0.82522 ,4.68253 ,45.94496 
42 ,8.2986 ,0.82721 ,4.64488 ,45.57560 
43 ,8.5067 ,0.82922 ,4.63119 ,45.44128 
44 ,8.6828 ,0.83105 ,4.61066 ,45.23981 
45 ,8.9069 ,0.83312 ,4.60040 ,45.13908 
46 ,9.0990 ,0.83516 ,4.56960 ,44.83688 
47 ,9.3070 ,0.83723 ,4.56275 ,44.76972 
48 ,9.4830 ,0.83901 ,4.53537 ,44.50109 
49 ,9.6751 ,0.84086 ,4.52169 ,44.36678 
50 ,9.8675 ,0.84283 ,4.50800 ,44.23247 
51 ,10.0595 ,0.84476 ,4.47378 ,43.89668 
52 ,10.2511 ,0.84665 ,4.47720 ,43.93026 
53 ,10.4435 ,0.84866 ,4.44982 ,43.66163 
54 ,10.6513 ,0.85063 ,4.42586 ,43.42659 
55 ,10.8275 ,0.85255 ,4.41218 ,43.29227 
56 ,11.0197 ,0.85438 ,4.39164 ,43.09080 
57 ,11.2277 ,0.85642 ,4.38138 ,42.99007 
58 ,11.4034 ,0.85827 ,4.36084 ,42.78860 
59 ,11.5961 ,0.86013 ,4.31978 ,42.38566 
60 ,11.8040 ,0.86214 ,4.33004 ,42.48639 
61 ,11.9799 ,0.86404 ,4.30609 ,42.25135 
62 ,12.1562 ,0.86576 ,4.28898 ,42.08345 
63 ,12.3480 ,0.86765 ,4.28556 ,42.04988 
64 ,12.5399 ,0.86951 ,4.25133 ,41.71409 
65 ,12.7322 ,0.87144 ,4.24449 ,41.64694 
66 ,12.9401 ,0.87351 ,4.21711 ,41.37831 
67 ,13.1324 ,0.87544 ,4.20685 ,41.27758 
68 ,13.3081 ,0.87726 ,4.19658 ,41.17684 
69 ,13.5327 ,0.87933 ,4.17605 ,40.97537 
70 ,13.7407 ,0.88160 ,4.13156 ,40.53885 
71 ,13.9490 ,0.88360 ,4.14183 ,40.63959 
72 ,14.1409 ,0.88552 ,4.09734 ,40.20307 
73 ,14.3167 ,0.88742 ,4.10076 ,40.23665 
74 ,14.5087 ,0.88921 ,4.08365 ,40.06876 
75 ,14.7006 ,0.89112 ,4.05285 ,39.76655 
76 ,14.8933 ,0.89313 ,4.03916 ,39.63224 
77 ,15.1332 ,0.89551 ,4.01520 ,39.39719 
78 ,15.3414 ,0.89756 ,3.98783 ,39.12856 
79 ,15.5335 ,0.89946 ,3.98783 ,39.12856 
80 ,15.7257 ,0.90143 ,3.97756 ,39.02783 
81 ,15.9177 ,0.90331 ,3.94334 ,38.69205 
82 ,16.1097 ,0.90523 ,3.93307 ,38.59131 
83 ,16.3016 ,0.90718 ,3.90570 ,38.32268 
84 ,16.5260 ,0.90947 ,3.91254 ,38.38984 
85 ,16.7182 ,0.91132 ,3.87147 ,37.98690 
86 ,16.9257 ,0.91336 ,3.85436 ,37.81901 
87 ,17.1183 ,0.91529 ,3.82699 ,37.55038 
88 ,17.3101 ,0.91724 ,3.82014 ,37.48323 
89 ,17.5020 ,0.91921 ,3.80303 ,37.31534 
90 ,17.6940 ,0.92107 ,3.76196 ,36.91240 
91 ,17.8862 ,0.92295 ,3.75512 ,36.84524 
92 ,18.0785 ,0.92489 ,3.74485 ,36.74450 
93 ,18.2868 ,0.92706 ,3.72432 ,36.54303 
94 ,18.4948 ,0.92910 ,3.71063 ,36.40872 
95 ,18.6708 ,0.93087 ,3.70037 ,36.30799 
96 ,18.8790 ,0.93292 ,3.66957 ,36.00578 
97 ,19.0708 ,0.93489 ,3.66614 ,35.97220 
98 ,19.2633 ,0.93681 ,3.64219 ,35.73716 
99 ,19.4874 ,0.93902 ,3.61481 ,35.46853 
100 ,19.6954 ,0.94110 ,3.60112 ,35.33422 
101 ,19.8875 ,0.94299 ,3.58743 ,35.19990 
102 ,20.0955 ,0.94505 ,3.58059 ,35.13275 
103 ,20.2877 ,0.94696 ,3.55663 ,34.89770 
104 ,20.4956 ,0.94907 ,3.53952 ,34.72981 
105 ,20.6878 ,0.95110 ,3.50530 ,34.39402 
106 ,20.8798 ,0.95289 ,3.48135 ,34.15898 
107 ,21.0559 ,0.95471 ,3.47450 ,34.09182 
108 ,21.2636 ,0.95678 ,3.45397 ,33.89035 
109 ,21.4561 ,0.95869 ,3.43001 ,33.65530 
110 ,21.6481 ,0.96068 ,3.43001 ,33.65530 
111 ,21.8243 ,0.96244 ,3.42317 ,33.58814 
112 ,22.0165 ,0.96430 ,3.37526 ,33.11805 
113 ,22.2083 ,0.96629 ,3.36842 ,33.05089 
114 ,22.3682 ,0.96795 ,3.35473 ,32.91658 
115 ,22.5765 ,0.96977 ,3.34104 ,32.78227 
116 ,22.7686 ,0.97181 ,3.33419 ,32.71511 
117 ,22.9607 ,0.97371 ,3.28286 ,32.21143 
118 ,23.1687 ,0.97579 ,3.28628 ,32.24501 
119 ,23.3449 ,0.97764 ,3.27259 ,32.11070 
120 ,23.5367 ,0.97942 ,3.25548 ,31.94281 
121 ,23.7450 ,0.98158 ,3.23837 ,31.77492 
122 ,23.9367 ,0.98344 ,3.21442 ,31.53987 
123 ,24.1130 ,0.98526 ,3.21442 ,31.53987 
124 ,24.3208 ,0.98733 ,3.18704 ,31.27124 
125 ,24.5132 ,0.98917 ,3.15282 ,30.93546 
126 ,24.7215 ,0.99131 ,3.15282 ,30.93546 
127 ,24.9453 ,0.99343 ,3.12544 ,30.66683 
128 ,25.1372 ,0.99544 ,3.11175 ,30.53252 
129 ,25.3152 ,0.99729 ,3.08095 ,30.23031 
130 ,25.5214 ,0.99930 ,3.06726 ,30.09600 
131 ,25.6974 ,1.00114 ,3.06726 ,30.09600 
132 ,25.8739 ,1.00289 ,3.04673 ,29.89453 
133 ,26.0499 ,1.00461 ,3.03989 ,29.82737 
134 ,26.2580 ,1.00668 ,3.01593 ,29.59233 
135 ,26.4503 ,1.00857 ,3.00567 ,29.49159 
136 ,26.6422 ,1.01055 ,2.97829 ,29.22297 
137 ,26.8343 ,1.01248 ,2.96118 ,29.05507 
138 ,27.0425 ,1.01449 ,2.93038 ,28.75287 
139 ,27.2344 ,1.01641 ,2.94407 ,28.88718 
140 ,27.4103 ,1.01823 ,2.92011 ,28.65213 
141 ,27.6186 ,1.02030 ,2.87905 ,28.24919 
142 ,27.8103 ,1.02218 ,2.89958 ,28.45066 
143 ,28.0027 ,1.02408 ,2.86878 ,28.14846 
144 ,28.2108 ,1.02618 ,2.85167 ,27.98057 
145 ,28.4029 ,1.02813 ,2.83114 ,27.77910 
146 ,28.5951 ,1.03008 ,2.82429 ,27.71194 
147 ,28.7872 ,1.03199 ,2.80376 ,27.51047 
148 ,28.9953 ,1.03400 ,2.78665 ,27.34258 
149 ,29.2033 ,1.03612 ,2.75585 ,27.04038 
150 ,29.3793 ,1.03793 ,2.73531 ,26.83891 
151 ,29.5555 ,1.03969 ,2.72505 ,26.73817 
152 ,29.7475 ,1.04154 ,2.71478 ,26.63744 
153 ,29.9395 ,1.04344 ,2.69083 ,26.40239 
154 ,30.1316 ,1.04539 ,2.68056 ,26.30165 
155 ,30.3397 ,1.04749 ,2.66003 ,26.10018 
156 ,30.5316 ,1.04935 ,2.65318 ,26.03303 
157 ,30.7078 ,1.05117 ,2.64634 ,25.96587 
158 ,30.9002 ,1.05306 ,2.60869 ,25.59651 
159 ,31.1076 ,1.05517 ,2.60527 ,25.56293 
160 ,31.3000 ,1.05705 ,2.56421 ,25.15999 
161 ,31.5082 ,1.05921 ,2.56763 ,25.19357 
162 ,31.7003 ,1.06106 ,2.52998 ,24.82421 
163 ,31.8924 ,1.06298 ,2.53683 ,24.89136 
164 ,32.0841 ,1.06490 ,2.51630 ,24.68989 
165 ,32.2603 ,1.06677 ,2.49234 ,24.45485 
166 ,32.4687 ,1.06865 ,2.49918 ,24.52200 
167 ,32.6606 ,1.07068 ,2.45812 ,24.11906 
168 ,32.8367 ,1.07250 ,2.45127 ,24.05191 
169 ,33.0289 ,1.07435 ,2.45127 ,24.05191 
170 ,33.2209 ,1.07629 ,2.41705 ,23.71612 
171 ,33.4128 ,1.07818 ,2.39994 ,23.54823 
172 ,33.6207 ,1.08027 ,2.37599 ,23.31318 
173 ,33.8130 ,1.08218 ,2.37256 ,23.27961 
174 ,34.0051 ,1.08414 ,2.35888 ,23.14529 
175 ,34.1811 ,1.08592 ,2.33150 ,22.87667 
176 ,34.3891 ,1.08795 ,2.33150 ,22.87667 
177 ,34.5814 ,1.08993 ,2.31439 ,22.70877 
178 ,34.7734 ,1.09186 ,2.29728 ,22.54088 
179 ,34.9497 ,1.09360 ,2.29385 ,22.50731 
180 ,35.1415 ,1.09546 ,2.26648 ,22.23868 
181 ,35.3178 ,1.09729 ,2.24252 ,22.00363 
182 ,35.5259 ,1.09933 ,2.23568 ,21.93647 
183 ,35.7336 ,1.10134 ,2.21857 ,21.76858 
184 ,35.9259 ,1.10330 ,2.20146 ,21.60069 
185 ,36.1180 ,1.10525 ,2.17066 ,21.29849 
186 ,36.3101 ,1.10714 ,2.17750 ,21.36564 
187 ,36.5177 ,1.10920 ,2.14328 ,21.02986 
188 ,36.7103 ,1.11117 ,2.13644 ,20.96270 
189 ,36.9184 ,1.11325 ,2.11248 ,20.72766 
190 ,37.1103 ,1.11513 ,2.11932 ,20.79481 
191 ,37.3025 ,1.11704 ,2.08852 ,20.49261 
192 ,37.5266 ,1.11932 ,2.06457 ,20.25756 
193 ,37.7346 ,1.12139 ,2.05773 ,20.19040 
194 ,37.9107 ,1.12327 ,2.04061 ,20.02251 
195 ,38.1188 ,1.12509 ,2.01666 ,19.78746 
196 ,38.3108 ,1.12710 ,2.02693 ,19.88820 
197 ,38.5030 ,1.12904 ,1.98244 ,19.45168 
198 ,38.6949 ,1.13102 ,1.97217 ,19.35094 
199 ,38.9032 ,1.13309 ,1.95848 ,19.21663 
200 ,39.1112 ,1.13517 ,1.95506 ,19.18305 
201 ,39.3034 ,1.13705 ,1.92084 ,18.84727 
202 ,39.5115 ,1.13917 ,1.92084 ,18.84727 
203 ,39.7035 ,1.14108 ,1.89688 ,18.61222 
204 ,39.8631 ,1.14286 ,1.87293 ,18.37717 
205 ,40.0558 ,1.14460 ,1.87635 ,18.41075 
206 ,40.2638 ,1.14669 ,1.83871 ,18.04139 
207 ,40.6960 ,1.14985 ,1.83528 ,18.00781 
208 ,40.8876 ,1.15306 ,1.81475 ,17.80634 
209 ,41.0801 ,1.15487 ,1.79080 ,17.57129 
210 ,41.2877 ,1.15694 ,1.79080 ,17.57129 
211 ,41.4804 ,1.15884 ,1.76342 ,17.30267 
212 ,41.6723 ,1.16074 ,1.75657 ,17.23551 
213 ,41.8647 ,1.16268 ,1.73262 ,17.00046 
214 ,42.0563 ,1.16473 ,1.72920 ,16.96689 
215 ,42.2325 ,1.16637 ,1.73262 ,17.00046 
216 ,42.4245 ,1.16829 ,1.70182 ,16.69826 
217 ,42.6006 ,1.17007 ,1.67102 ,16.39605 
218 ,42.7925 ,1.17199 ,1.68129 ,16.49679 
219 ,42.9849 ,1.17383 ,1.65391 ,16.22816 
220 ,43.1769 ,1.17584 ,1.65049 ,16.19458 
221 ,43.3690 ,1.17778 ,1.64364 ,16.12743 
222 ,43.5770 ,1.17976 ,1.61627 ,15.85880 
223 ,43.7693 ,1.18170 ,1.60942 ,15.79164 
224 ,43.9611 ,1.18367 ,1.58889 ,15.59018 
225 ,44.1371 ,1.18549 ,1.56151 ,15.32155 
226 ,44.3454 ,1.18749 ,1.56493 ,15.35513 
227 ,44.5535 ,1.18953 ,1.55809 ,15.28797 
228 ,44.7455 ,1.19149 ,1.52729 ,14.98577 
229 ,44.9374 ,1.19345 ,1.51360 ,14.85145 
230 ,45.1455 ,1.19544 ,1.51018 ,14.81787 
231 ,45.3373 ,1.19741 ,1.47938 ,14.51567 
232 ,45.5297 ,1.19929 ,1.48965 ,14.61640 
233 ,45.7219 ,1.20120 ,1.45200 ,14.24704 
234 ,45.9138 ,1.20321 ,1.43489 ,14.07915 
235 ,46.1218 ,1.20528 ,1.43147 ,14.04557 
236 ,46.3141 ,1.20709 ,1.42120 ,13.94484 
237 ,46.5383 ,1.20929 ,1.38698 ,13.60906 
238 ,46.7464 ,1.21148 ,1.38698 ,13.60906 
239 ,46.9545 ,1.21352 ,1.39725 ,13.70979 
240 ,47.1466 ,1.21550 ,1.37671 ,13.50832 
241 ,47.3547 ,1.21753 ,1.34934 ,13.23969 
242 ,47.5467 ,1.21946 ,1.33907 ,13.13896 
243 ,47.7386 ,1.22133 ,1.32538 ,13.00465 
244 ,47.9306 ,1.22333 ,1.32196 ,12.97107 
245 ,48.1068 ,1.22513 ,1.31169 ,12.87033 
246 ,48.2989 ,1.22697 ,1.29800 ,12.73602 
247 ,48.4911 ,1.22889 ,1.27405 ,12.50097 
248 ,48.6832 ,1.23085 ,1.25352 ,12.29950 
249 ,48.8752 ,1.23283 ,1.24667 ,12.23235 
250 ,49.0673 ,1.23468 ,1.24325 ,12.19877 
251 ,49.2754 ,1.23662 ,1.21245 ,11.89656 
252 ,49.4833 ,1.23882 ,1.19534 ,11.72867 
253 ,49.6751 ,1.24079 ,1.17481 ,11.52720 
254 ,49.8678 ,1.24270 ,1.15770 ,11.35931 
255 ,50.0756 ,1.24477 ,1.17138 ,11.49362 
256 ,50.2838 ,1.24671 ,1.15085 ,11.29215 
257 ,50.4917 ,1.24888 ,1.13716 ,11.15784 
258 ,50.6839 ,1.25082 ,1.12347 ,11.02353 
259 ,50.8760 ,1.25280 ,1.10294 ,10.82206 
260 ,51.0841 ,1.25480 ,1.08241 ,10.62059 
261 ,51.2921 ,1.25691 ,1.08583 ,10.65416 
262 ,51.4683 ,1.25872 ,1.07899 ,10.58701 
263 ,51.6602 ,1.26060 ,1.04819 ,10.28480 
264 ,51.8359 ,1.26248 ,1.05845 ,10.38554 
265 ,52.0442 ,1.26433 ,1.03108 ,10.11691 
266 ,52.2364 ,1.26638 ,1.01054 ,9.91544 
267 ,52.4285 ,1.26826 ,1.00712 ,9.88186 
268 ,52.6207 ,1.27020 ,0.98659 ,9.68039 
269 ,52.8126 ,1.27210 ,0.99343 ,9.74755 
270 ,53.0047 ,1.27401 ,0.98317 ,9.64682 
271 ,53.1969 ,1.27599 ,0.96605 ,9.47892 
272 ,53.3891 ,1.27790 ,0.94894 ,9.31103 
273 ,53.5970 ,1.27994 ,0.94210 ,9.24388 
274 ,53.7731 ,1.28177 ,0.92499 ,9.07598 
275 ,53.9653 ,1.28364 ,0.89419 ,8.77378 
276 ,54.1412 ,1.28554 ,0.88392 ,8.67305 
277 ,54.3330 ,1.28734 ,0.88050 ,8.63947 
278 ,54.5094 ,1.28911 ,0.88392 ,8.67305 
279 ,54.7015 ,1.29097 ,0.84628 ,8.30368 
280 ,54.8935 ,1.29287 ,0.85997 ,8.43800 
281 ,55.0853 ,1.29481 ,0.82917 ,8.13579 
282 ,55.2777 ,1.29676 ,0.81890 ,8.03506 
283 ,55.4697 ,1.29868 ,0.80521 ,7.90074 
284 ,55.6458 ,1.30049 ,0.79152 ,7.76643 
285 ,55.8379 ,1.30233 ,0.79152 ,7.76643 
286 ,56.0300 ,1.30426 ,0.77441 ,7.59854 
287 ,56.2376 ,1.30636 ,0.75388 ,7.39707 
288 ,56.4302 ,1.30826 ,0.74361 ,7.29633 
289 ,56.6383 ,1.31037 ,0.73335 ,7.19560 
290 ,56.8304 ,1.31228 ,0.72650 ,7.12844 
291 ,57.0224 ,1.31423 ,0.70255 ,6.89340 
292 ,57.2305 ,1.31626 ,0.68201 ,6.69193 
293 ,57.4225 ,1.31820 ,0.67517 ,6.62477 
294 ,57.6305 ,1.32028 ,0.67175 ,6.59119 
295 ,57.8225 ,1.32224 ,0.65121 ,6.38972 
296 ,58.0305 ,1.32423 ,0.64437 ,6.32256 
297 ,58.2229 ,1.32614 ,0.62726 ,6.15467 
298 ,58.4145 ,1.32820 ,0.63410 ,6.22183 
299 ,58.6071 ,1.33006 ,0.60673 ,5.95320 
300 ,58.7992 ,1.33194 ,0.60330 ,5.91962 
301 ,59.0072 ,1.33404 ,0.58277 ,5.71815 
302 ,59.1992 ,1.33598 ,0.58277 ,5.71815 
303 ,59.4072 ,1.33805 ,0.56224 ,5.51668 
304 ,59.5992 ,1.34005 ,0.55539 ,5.44953 
305 ,59.8072 ,1.34203 ,0.53144 ,5.21448 
306 ,59.9996 ,1.34397 ,0.53486 ,5.24806 
307 ,60.2075 ,1.34601 ,0.51091 ,5.01301 
308 ,60.4156 ,1.34806 ,0.51433 ,5.04659 
309 ,60.6078 ,1.35002 ,0.48695 ,4.77796 
310 ,60.7998 ,1.35200 ,0.48011 ,4.71081 
311 ,60.9919 ,1.35385 ,0.46642 ,4.57649 
312 ,61.1679 ,1.35567 ,0.46300 ,4.54291 
313 ,61.3760 ,1.35755 ,0.44931 ,4.40860 
314 ,61.5521 ,1.35951 ,0.44931 ,4.40860 
315 ,61.7441 ,1.36139 ,0.42193 ,4.13997 
316 ,61.9359 ,1.36340 ,0.41851 ,4.10640 
317 ,62.1280 ,1.36529 ,0.40824 ,4.00566 
318 ,62.3364 ,1.36717 ,0.39113 ,3.83777 
319 ,62.5445 ,1.36940 ,0.37402 ,3.66988 
320 ,62.7361 ,1.37136 ,0.37060 ,3.63630 
321 ,62.9286 ,1.37319 ,0.34664 ,3.40125 
322 ,63.1044 ,1.37507 ,0.33295 ,3.26694 
323 ,63.2968 ,1.37688 ,0.34664 ,3.40125 
324 ,63.5053 ,1.37904 ,0.31926 ,3.13263 
325 ,63.7131 ,1.38106 ,0.30558 ,2.99831 
326 ,63.9052 ,1.38300 ,0.29531 ,2.89758 
327 ,64.1130 ,1.38504 ,0.29873 ,2.93116 
328 ,64.3212 ,1.38710 ,0.27478 ,2.69611 
329 ,64.5291 ,1.38923 ,0.25767 ,2.52822 
330 ,64.7055 ,1.39106 ,0.25767 ,2.52822 
331 ,64.8970 ,1.39303 ,0.24740 ,2.42748 
332 ,65.0896 ,1.39485 ,0.24398 ,2.39390 
333 ,65.2816 ,1.39679 ,0.22344 ,2.19243 
334 ,65.4897 ,1.39883 ,0.21318 ,2.09170 
335 ,65.6658 ,1.40073 ,0.20633 ,2.02454 
336 ,65.8580 ,1.40255 ,0.20291 ,1.99096 
337 ,66.0661 ,1.40454 ,0.17896 ,1.75592 
338 ,66.2743 ,1.40670 ,0.19607 ,1.92381 
339 ,66.4822 ,1.40864 ,0.14816 ,1.45371 
340 ,66.6739 ,1.41067 ,0.15158 ,1.48729 
341 ,66.8665 ,1.41256 ,0.13447 ,1.31940 
342 ,67.0579 ,1.41450 ,0.13105 ,1.28582 
343 ,67.2504 ,1.41638 ,0.10367 ,1.01719 
344 ,67.4266 ,1.41823 ,0.09682 ,0.95004 
345 ,67.6187 ,1.42011 ,0.10367 ,1.01719 
346 ,67.8267 ,1.42220 ,0.08314 ,0.81572 
347 ,68.0029 ,1.42397 ,0.05918 ,0.58067 
348 ,68.2105 ,1.42600 ,0.06602 ,0.64783 
349 ,68.4031 ,1.42791 ,0.06260 ,0.61425 
350 ,68.5951 ,1.42988 ,0.05918 ,0.58067 
351 ,68.7872 ,1.43180 ,0.03865 ,0.37920 
352 ,68.9792 ,1.43371 ,0.03522 ,0.34563 
353 ,69.1551 ,1.43553 ,0.03180 ,0.31205 
354 ,69.3474 ,1.43735 ,-0.00242 ,-0.02373 
355 ,69.5716 ,1.43964 ,-0.00242 ,-0.02373 
356 ,69.7636 ,1.44160 ,-0.03322 ,-0.32594 
357 ,69.9556 ,1.44345 ,-0.01953 ,-0.19163 
358 ,70.1473 ,1.44539 ,-0.04691 ,-0.46025 
359 ,70.3078 ,1.44715 ,-0.05717 ,-0.56099 
360 ,70.4995 ,1.44888 ,-0.05375 ,-0.52741 
361 ,70.6918 ,1.45078 ,-0.06744 ,-0.66172 
362 ,70.8682 ,1.45266 ,-0.08113 ,-0.79604 
363 ,71.0599 ,1.45455 ,-0.08113 ,-0.79604 
364 ,71.2521 ,1.45638 ,-0.09482 ,-0.93035 
365 ,71.4281 ,1.45830 ,-0.09482 ,-0.93035 
366 ,71.6199 ,1.46009 ,-0.10166 ,-0.99751 
367 ,71.7964 ,1.46193 ,-0.10851 ,-1.06466 
368 ,71.9725 ,1.46368 ,-0.12904 ,-1.26613 
369 ,72.1802 ,1.46569 ,-0.13931 ,-1.36687 
370 ,72.3566 ,1.46750 ,-0.13246 ,-1.29971 
371 ,72.5648 ,1.46952 ,-0.17353 ,-1.70265 
372 ,72.7730 ,1.47164 ,-0.17011 ,-1.66907 
373 ,72.9650 ,1.47357 ,-0.19064 ,-1.87054 
374 ,73.1730 ,1.47563 ,-0.20090 ,-1.97128 
375 ,73.3809 ,1.47767 ,-0.20433 ,-2.00485 
376 ,73.5570 ,1.47949 ,-0.20433 ,-2.00485 
377 ,73.7492 ,1.48136 ,-0.21802 ,-2.13917 
378 ,73.9411 ,1.48330 ,-0.22144 ,-2.17275 
379 ,74.1331 ,1.48528 ,-0.24539 ,-2.40779 
380 ,74.3253 ,1.48723 ,-0.26250 ,-2.57569 
381 ,74.5016 ,1.48894 ,-0.25908 ,-2.54211 
382 ,74.7096 ,1.49099 ,-0.27619 ,-2.71000 
383 ,74.9172 ,1.49305 ,-0.27277 ,-2.67642 
384 ,75.1092 ,1.49496 ,-0.28988 ,-2.84431 
385 ,75.3014 ,1.49691 ,-0.29673 ,-2.91147 
386 ,75.5259 ,1.49910 ,-0.31384 ,-3.07936 
387 ,75.7180 ,1.50106 ,-0.31384 ,-3.07936 
388 ,75.9100 ,1.50297 ,-0.33437 ,-3.28083 
389 ,76.1022 ,1.50496 ,-0.34121 ,-3.34799 
390 ,76.2782 ,1.50672 ,-0.33437 ,-3.28083 
391 ,76.4703 ,1.50860 ,-0.36859 ,-3.61661 
392 ,76.6463 ,1.51039 ,-0.37544 ,-3.68377 
393 ,76.8384 ,1.51224 ,-0.37201 ,-3.65019 
394 ,77.0146 ,1.51411 ,-0.37544 ,-3.68377 
395 ,77.2065 ,1.51596 ,-0.39255 ,-3.85166 
396 ,77.3983 ,1.51799 ,-0.39939 ,-3.91882 
397 ,77.5584 ,1.51963 ,-0.40281 ,-3.95240 
398 ,77.7345 ,1.52132 ,-0.40966 ,-4.01955 
399 ,77.9266 ,1.52315 ,-0.43703 ,-4.28818 
400 ,78.1347 ,1.52514 ,-0.42335 ,-4.15387 
401 ,78.3429 ,1.52730 ,-0.44730 ,-4.38891 
402 ,78.5351 ,1.52921 ,-0.45414 ,-4.45607 
403 ,78.7433 ,1.53126 ,-0.47126 ,-4.62396 
404 ,78.9348 ,1.53326 ,-0.48494 ,-4.75828 
405 ,79.1110 ,1.53503 ,-0.48837 ,-4.79185 
406 ,79.3034 ,1.53691 ,-0.49179 ,-4.82543 
407 ,79.4954 ,1.53881 ,-0.50548 ,-4.95975 
408 ,79.6876 ,1.54080 ,-0.51232 ,-5.02690 
409 ,79.8797 ,1.54268 ,-0.51574 ,-5.06048 
410 ,80.0877 ,1.54476 ,-0.54997 ,-5.39626 
411 ,80.2798 ,1.54664 ,-0.53970 ,-5.29553 
412 ,80.4879 ,1.54874 ,-0.56365 ,-5.53058 
413 ,80.6800 ,1.55065 ,-0.54997 ,-5.39626 
414 ,80.8562 ,1.55250 ,-0.55339 ,-5.42984 
415 ,81.0477 ,1.55440 ,-0.58761 ,-5.76562 
416 ,81.2403 ,1.55628 ,-0.57392 ,-5.63131 
417 ,81.4485 ,1.55833 ,-0.60472 ,-5.93352 
418 ,81.6405 ,1.56030 ,-0.59445 ,-5.83278 
419 ,81.8325 ,1.56219 ,-0.62183 ,-6.10141 
420 ,82.0247 ,1.56415 ,-0.62525 ,-6.13499 
421 ,82.2166 ,1.56616 ,-0.64921 ,-6.37003 
422 ,82.3927 ,1.56782 ,-0.64921 ,-6.37003 
423 ,82.5846 ,1.56967 ,-0.63894 ,-6.26930 
424 ,82.7769 ,1.57161 ,-0.66290 ,-6.50435 
425 ,82.9690 ,1.57353 ,-0.65947 ,-6.47077 
426 ,83.1771 ,1.57565 ,-0.68001 ,-6.67224 
427 ,83.3692 ,1.57763 ,-0.67659 ,-6.63866 
428 ,83.5612 ,1.57954 ,-0.69027 ,-6.77297 
429 ,83.7532 ,1.58135 ,-0.71765 ,-7.04160 
430 ,83.9450 ,1.58345 ,-0.70739 ,-6.94086 
431 ,84.1370 ,1.58522 ,-0.73818 ,-7.24307 
432 ,84.3131 ,1.58706 ,-0.72792 ,-7.14233 
433 ,84.5054 ,1.58895 ,-0.73818 ,-7.24307 
434 ,84.7136 ,1.59094 ,-0.76214 ,-7.47812 
435 ,84.9056 ,1.59286 ,-0.74161 ,-7.27665 
436 ,85.1138 ,1.59502 ,-0.77241 ,-7.57885 
437 ,85.3219 ,1.59704 ,-0.76214 ,-7.47812 
438 ,85.5296 ,1.59910 ,-0.78952 ,-7.74674 
439 ,85.7221 ,1.60110 ,-0.79294 ,-7.78032 
440 ,85.9141 ,1.60293 ,-0.79636 ,-7.81390 
441 ,86.1063 ,1.60497 ,-0.81347 ,-7.98179 
442 ,86.2982 ,1.60685 ,-0.81347 ,-7.98179 
443 ,86.5060 ,1.60894 ,-0.82716 ,-8.11611 
444 ,86.6986 ,1.61086 ,-0.83058 ,-8.14968 
445 ,86.9066 ,1.61292 ,-0.84085 ,-8.25042 
446 ,87.0986 ,1.61496 ,-0.86138 ,-8.45189 
447 ,87.2905 ,1.61676 ,-0.87849 ,-8.61978 
448 ,87.4669 ,1.61857 ,-0.87165 ,-8.55262 
449 ,87.6264 ,1.62028 ,-0.85796 ,-8.41831 
450 ,87.8189 ,1.62201 ,-0.88192 ,-8.65336 
451 ,88.0112 ,1.62395 ,-0.89903 ,-8.82125 
452 ,88.2352 ,1.62614 ,-0.91272 ,-8.95556 
453 ,88.4272 ,1.62808 ,-0.91272 ,-8.95556 
454 ,88.6193 ,1.63003 ,-0.91614 ,-8.98914 
455 ,88.8435 ,1.63217 ,-0.93325 ,-9.15703 
456 ,89.0515 ,1.63434 ,-0.95036 ,-9.32492 
457 ,89.2434 ,1.63628 ,-0.94009 ,-9.22419 
458 ,89.4516 ,1.63834 ,-0.95036 ,-9.32492 
459 ,89.6438 ,1.64029 ,-0.95720 ,-9.39208 
460 ,89.8032 ,1.64205 ,-0.96747 ,-9.49282 
461 ,89.9960 ,1.64380 ,-0.98800 ,-9.69429 
462 ,90.2040 ,1.64583 ,-0.97774 ,-9.59355 
