Data stamp = , 28-04-2022 13:46:55 825

Calibration Values: 
Slope = , 26.54 , g/V 
Offset Voltage at no contact = , -0.501760 , V 

No , Time , Stage Position ,   Mass , Force 
   ,  (s) ,      (mm)      ,   (g)  , (mN)  

1 ,0.0000 ,0.74939 ,5.28483 ,51.85474 
2 ,0.2276 ,0.74949 ,5.27798 ,51.78758 
3 ,0.6441 ,0.75089 ,5.27798 ,51.78758 
4 ,0.8362 ,0.75262 ,5.28483 ,51.85474 
5 ,1.0285 ,0.75442 ,5.28141 ,51.82116 
6 ,1.2365 ,0.75641 ,5.28141 ,51.82116 
7 ,1.4286 ,0.75850 ,5.29510 ,51.95548 
8 ,1.6207 ,0.76035 ,5.28141 ,51.82116 
9 ,1.8287 ,0.76226 ,5.26430 ,51.65327 
10 ,2.0208 ,0.76431 ,5.24718 ,51.48538 
11 ,2.2290 ,0.76646 ,5.21639 ,51.18317 
12 ,2.4211 ,0.76844 ,5.20612 ,51.08244 
13 ,2.6127 ,0.77020 ,5.18901 ,50.91455 
14 ,2.8053 ,0.77211 ,5.18559 ,50.88097 
15 ,3.0134 ,0.77422 ,5.14794 ,50.51161 
16 ,3.2053 ,0.77615 ,5.15479 ,50.57876 
17 ,3.3975 ,0.77807 ,5.11030 ,50.14225 
18 ,3.5735 ,0.77995 ,5.08634 ,49.90720 
19 ,3.7655 ,0.78189 ,5.08292 ,49.87362 
20 ,3.9576 ,0.78367 ,5.04528 ,49.50426 
21 ,4.1494 ,0.78565 ,5.02474 ,49.30279 
22 ,4.3415 ,0.78749 ,5.02817 ,49.33637 
23 ,4.5334 ,0.78941 ,4.99394 ,49.00058 
24 ,4.7096 ,0.79137 ,4.99737 ,49.03416 
25 ,4.9017 ,0.79311 ,4.97683 ,48.83269 
26 ,5.0936 ,0.79505 ,4.92550 ,48.32902 
27 ,5.2698 ,0.79693 ,4.92208 ,48.29544 
28 ,5.4618 ,0.79876 ,4.92892 ,48.36260 
29 ,5.6381 ,0.80059 ,4.87759 ,47.85892 
30 ,5.8462 ,0.80266 ,4.86390 ,47.72461 
31 ,6.0707 ,0.80486 ,4.84337 ,47.52314 
32 ,6.2788 ,0.80687 ,4.82626 ,47.35525 
33 ,6.4707 ,0.80887 ,4.80230 ,47.12020 
34 ,6.6629 ,0.81068 ,4.80573 ,47.15378 
35 ,6.8550 ,0.81263 ,4.75439 ,46.65010 
36 ,7.0469 ,0.81454 ,4.76124 ,46.71726 
37 ,7.2392 ,0.81649 ,4.72359 ,46.34790 
38 ,7.4470 ,0.81853 ,4.71333 ,46.24716 
39 ,7.6393 ,0.82049 ,4.69622 ,46.07927 
40 ,7.8314 ,0.82234 ,4.66884 ,45.81065 
41 ,8.0234 ,0.82435 ,4.65515 ,45.67633 
42 ,8.2316 ,0.82648 ,4.63462 ,45.47486 
43 ,8.4237 ,0.82836 ,4.63804 ,45.50844 
44 ,8.6157 ,0.83024 ,4.58328 ,44.97119 
45 ,8.8079 ,0.83215 ,4.58671 ,45.00477 
46 ,8.9994 ,0.83425 ,4.55591 ,44.70256 
47 ,9.1921 ,0.83600 ,4.53537 ,44.50109 
48 ,9.3846 ,0.83796 ,4.53195 ,44.46751 
49 ,9.5922 ,0.84003 ,4.50115 ,44.16531 
50 ,9.7843 ,0.84194 ,4.48404 ,43.99742 
51 ,9.9761 ,0.84385 ,4.46351 ,43.79595 
52 ,10.1522 ,0.84569 ,4.46009 ,43.76237 
53 ,10.3443 ,0.84750 ,4.43955 ,43.56090 
54 ,10.5364 ,0.84945 ,4.40875 ,43.25870 
55 ,10.7444 ,0.85155 ,4.41560 ,43.32585 
56 ,10.9366 ,0.85346 ,4.38822 ,43.05723 
57 ,11.1443 ,0.85547 ,4.37453 ,42.92291 
58 ,11.3365 ,0.85745 ,4.34716 ,42.65429 
59 ,11.5289 ,0.85942 ,4.31293 ,42.31850 
60 ,11.7047 ,0.86124 ,4.30951 ,42.28492 
61 ,11.8969 ,0.86300 ,4.28213 ,42.01630 
62 ,12.0892 ,0.86496 ,4.27187 ,41.91556 
63 ,12.2813 ,0.86695 ,4.25476 ,41.74767 
64 ,12.4894 ,0.86895 ,4.24107 ,41.61336 
65 ,12.6813 ,0.87090 ,4.22396 ,41.44547 
66 ,12.8740 ,0.87280 ,4.19658 ,41.17684 
67 ,13.0654 ,0.87474 ,4.19658 ,41.17684 
68 ,13.2737 ,0.87682 ,4.16236 ,40.84106 
69 ,13.4658 ,0.87869 ,4.14867 ,40.70674 
70 ,13.6738 ,0.88077 ,4.11445 ,40.37096 
71 ,13.8658 ,0.88270 ,4.11103 ,40.33738 
72 ,14.0419 ,0.88453 ,4.09049 ,40.13591 
73 ,14.2501 ,0.88662 ,4.06312 ,39.86729 
74 ,14.4416 ,0.88851 ,4.05969 ,39.83371 
75 ,14.6343 ,0.89041 ,4.02547 ,39.49793 
76 ,14.8263 ,0.89236 ,4.01520 ,39.39719 
77 ,15.0184 ,0.89424 ,3.99809 ,39.22930 
78 ,15.2105 ,0.89613 ,3.98783 ,39.12856 
79 ,15.4185 ,0.89820 ,3.94334 ,38.69205 
80 ,15.6265 ,0.90036 ,3.95018 ,38.75920 
81 ,15.8348 ,0.90239 ,3.92623 ,38.52415 
82 ,16.0267 ,0.90433 ,3.91254 ,38.38984 
83 ,16.2347 ,0.90642 ,3.88516 ,38.12122 
84 ,16.4109 ,0.90825 ,3.86805 ,37.95332 
85 ,16.6026 ,0.91007 ,3.86463 ,37.91975 
86 ,16.7951 ,0.91201 ,3.83725 ,37.65112 
87 ,16.9870 ,0.91389 ,3.83725 ,37.65112 
88 ,17.1632 ,0.91572 ,3.82014 ,37.48323 
89 ,17.3712 ,0.91772 ,3.78934 ,37.18102 
90 ,17.5633 ,0.91981 ,3.76539 ,36.94597 
91 ,17.7550 ,0.92160 ,3.74485 ,36.74450 
92 ,17.9316 ,0.92346 ,3.73801 ,36.67735 
93 ,18.1236 ,0.92529 ,3.73459 ,36.64377 
94 ,18.3155 ,0.92720 ,3.69694 ,36.27441 
95 ,18.4917 ,0.92913 ,3.70037 ,36.30799 
96 ,18.6839 ,0.93090 ,3.69010 ,36.20725 
97 ,18.8758 ,0.93281 ,3.64903 ,35.80431 
98 ,19.0680 ,0.93479 ,3.62850 ,35.60284 
99 ,19.2601 ,0.93665 ,3.62166 ,35.53569 
100 ,19.4678 ,0.93871 ,3.60454 ,35.36779 
101 ,19.6603 ,0.94066 ,3.58059 ,35.13275 
102 ,19.8520 ,0.94266 ,3.54979 ,34.83054 
103 ,20.0602 ,0.94467 ,3.55321 ,34.86412 
104 ,20.2846 ,0.94692 ,3.54295 ,34.76338 
105 ,20.4925 ,0.94899 ,3.50872 ,34.42760 
106 ,20.6844 ,0.95091 ,3.49846 ,34.32687 
107 ,20.8765 ,0.95280 ,3.47792 ,34.12540 
108 ,21.0851 ,0.95490 ,3.46424 ,33.99108 
109 ,21.2930 ,0.95699 ,3.42317 ,33.58814 
110 ,21.5010 ,0.95907 ,3.41633 ,33.52099 
111 ,21.6927 ,0.96098 ,3.39237 ,33.28594 
112 ,21.8692 ,0.96283 ,3.38210 ,33.18520 
113 ,22.0608 ,0.96468 ,3.36842 ,33.05089 
114 ,22.2533 ,0.96661 ,3.34788 ,32.84942 
115 ,22.4612 ,0.96868 ,3.34104 ,32.78227 
116 ,22.6535 ,0.97057 ,3.29655 ,32.34575 
117 ,22.8453 ,0.97251 ,3.30682 ,32.44648 
118 ,23.0217 ,0.97432 ,3.28628 ,32.24501 
119 ,23.2132 ,0.97620 ,3.25206 ,31.90923 
120 ,23.4056 ,0.97806 ,3.24522 ,31.84207 
121 ,23.5979 ,0.97999 ,3.21784 ,31.57345 
122 ,23.8055 ,0.98207 ,3.21784 ,31.57345 
123 ,23.9981 ,0.98395 ,3.18020 ,31.20409 
124 ,24.2058 ,0.98608 ,3.19388 ,31.33840 
125 ,24.3983 ,0.98802 ,3.16309 ,31.03619 
126 ,24.6063 ,0.99010 ,3.13229 ,30.73399 
127 ,24.7984 ,0.99200 ,3.12202 ,30.63325 
128 ,25.0063 ,0.99407 ,3.10491 ,30.46536 
129 ,25.1986 ,0.99596 ,3.07411 ,30.16316 
130 ,25.3905 ,0.99806 ,3.08438 ,30.26389 
131 ,25.5828 ,0.99983 ,3.05700 ,29.99527 
132 ,25.7748 ,1.00178 ,2.98855 ,29.32370 
133 ,25.9666 ,1.00366 ,3.03304 ,29.76022 
134 ,26.1750 ,1.00571 ,2.98855 ,29.32370 
135 ,26.3670 ,1.00770 ,2.96802 ,29.12223 
136 ,26.5591 ,1.00965 ,2.95776 ,29.02150 
137 ,26.7671 ,1.01173 ,2.95433 ,28.98792 
138 ,26.9593 ,1.01364 ,2.93038 ,28.75287 
139 ,27.1513 ,1.01558 ,2.88247 ,28.28277 
140 ,27.3273 ,1.01734 ,2.89616 ,28.41709 
141 ,27.5190 ,1.01923 ,2.88589 ,28.31635 
142 ,27.7112 ,1.02116 ,2.86193 ,28.08130 
143 ,27.9037 ,1.02304 ,2.83798 ,27.84625 
144 ,28.0956 ,1.02498 ,2.81060 ,27.57763 
145 ,28.2876 ,1.02688 ,2.82087 ,27.67836 
146 ,28.4956 ,1.02898 ,2.77980 ,27.27542 
147 ,28.6879 ,1.03090 ,2.78322 ,27.30900 
148 ,28.8801 ,1.03278 ,2.74558 ,26.93964 
149 ,29.0719 ,1.03475 ,2.73531 ,26.83891 
150 ,29.4561 ,1.03861 ,2.68740 ,26.36881 
151 ,29.6481 ,1.04052 ,2.68398 ,26.33523 
152 ,29.8403 ,1.04240 ,2.67372 ,26.23450 
153 ,30.0324 ,1.04440 ,2.64634 ,25.96587 
154 ,30.2405 ,1.04635 ,2.63265 ,25.83156 
155 ,30.4326 ,1.04838 ,2.61896 ,25.69724 
156 ,30.6407 ,1.05034 ,2.58816 ,25.39504 
157 ,30.8322 ,1.05233 ,2.58132 ,25.32788 
158 ,31.0248 ,1.05425 ,2.57789 ,25.29430 
159 ,31.2169 ,1.05625 ,2.54710 ,24.99210 
160 ,31.4090 ,1.05813 ,2.54025 ,24.92494 
161 ,31.6011 ,1.06002 ,2.51630 ,24.68989 
162 ,31.7930 ,1.06195 ,2.50945 ,24.62274 
163 ,31.9853 ,1.06388 ,2.50261 ,24.55558 
164 ,32.2090 ,1.06598 ,2.48207 ,24.35411 
165 ,32.4013 ,1.06805 ,2.46839 ,24.21980 
166 ,32.5934 ,1.06993 ,2.44785 ,24.01833 
167 ,32.7854 ,1.07189 ,2.44443 ,23.98475 
168 ,32.9931 ,1.07394 ,2.42048 ,23.74970 
169 ,33.1857 ,1.07584 ,2.40679 ,23.61539 
170 ,33.3778 ,1.07779 ,2.36572 ,23.21245 
171 ,33.5698 ,1.07974 ,2.36572 ,23.21245 
172 ,33.7619 ,1.08161 ,2.35545 ,23.11171 
173 ,33.9540 ,1.08350 ,2.33834 ,22.94382 
174 ,34.1460 ,1.08546 ,2.32808 ,22.84309 
175 ,34.3541 ,1.08753 ,2.28017 ,22.37299 
176 ,34.5462 ,1.08948 ,2.30412 ,22.60804 
177 ,34.7223 ,1.09135 ,2.27332 ,22.30584 
178 ,34.8982 ,1.09301 ,2.24252 ,22.00363 
179 ,35.0901 ,1.09492 ,2.23910 ,21.97005 
180 ,35.2986 ,1.09690 ,2.23910 ,21.97005 
181 ,35.4904 ,1.09894 ,2.22883 ,21.86932 
182 ,35.6986 ,1.10104 ,2.19461 ,21.53353 
183 ,35.9066 ,1.10303 ,2.18777 ,21.46638 
184 ,36.0989 ,1.10493 ,2.15012 ,21.09702 
185 ,36.2907 ,1.10704 ,2.16039 ,21.19775 
186 ,36.4669 ,1.10872 ,2.14670 ,21.06344 
187 ,36.6590 ,1.11053 ,2.11248 ,20.72766 
188 ,36.8511 ,1.11249 ,2.10564 ,20.66050 
189 ,37.0431 ,1.11443 ,2.07826 ,20.39187 
190 ,37.2514 ,1.11652 ,2.08510 ,20.45903 
191 ,37.4593 ,1.11851 ,2.06799 ,20.29114 
192 ,37.6673 ,1.12064 ,2.05773 ,20.19040 
193 ,37.8593 ,1.12258 ,2.02350 ,19.85462 
194 ,38.0517 ,1.12452 ,2.01324 ,19.75388 
195 ,38.2434 ,1.12644 ,2.00982 ,19.72031 
196 ,38.4355 ,1.12832 ,1.98244 ,19.45168 
197 ,38.6117 ,1.13015 ,1.97559 ,19.38452 
198 ,38.8039 ,1.13203 ,1.96190 ,19.25021 
199 ,39.0118 ,1.13412 ,1.94822 ,19.11590 
200 ,39.2200 ,1.13615 ,1.92426 ,18.88085 
201 ,39.4121 ,1.13810 ,1.91399 ,18.78011 
202 ,39.6202 ,1.14025 ,1.89688 ,18.61222 
203 ,39.8284 ,1.14221 ,1.89346 ,18.57864 
204 ,40.0203 ,1.14420 ,1.87635 ,18.41075 
205 ,40.2283 ,1.14624 ,1.86608 ,18.31002 
206 ,40.4366 ,1.14832 ,1.83186 ,17.97423 
207 ,40.6126 ,1.15022 ,1.83871 ,18.04139 
208 ,40.8044 ,1.15199 ,1.80791 ,17.73919 
209 ,40.9971 ,1.15392 ,1.80791 ,17.73919 
210 ,41.1888 ,1.15583 ,1.80449 ,17.70561 
211 ,41.3969 ,1.15793 ,1.77026 ,17.36983 
212 ,41.5891 ,1.15992 ,1.77026 ,17.36983 
213 ,41.7972 ,1.16196 ,1.73604 ,17.03404 
214 ,42.0212 ,1.16405 ,1.72920 ,16.96689 
215 ,42.2134 ,1.16612 ,1.72235 ,16.89973 
216 ,42.4213 ,1.16820 ,1.70524 ,16.73184 
217 ,42.6134 ,1.17008 ,1.70182 ,16.69826 
218 ,42.8215 ,1.17205 ,1.67786 ,16.46321 
219 ,42.9977 ,1.17396 ,1.65391 ,16.22816 
220 ,43.1897 ,1.17590 ,1.66075 ,16.29532 
221 ,43.3823 ,1.17779 ,1.62311 ,15.92596 
222 ,43.5738 ,1.17970 ,1.60942 ,15.79164 
223 ,43.7659 ,1.18163 ,1.61969 ,15.89238 
224 ,43.9417 ,1.18351 ,1.58889 ,15.59018 
225 ,44.1341 ,1.18526 ,1.57862 ,15.48944 
226 ,44.3261 ,1.18718 ,1.58547 ,15.55660 
227 ,44.5342 ,1.18928 ,1.55809 ,15.28797 
228 ,44.7263 ,1.19117 ,1.54782 ,15.18724 
229 ,44.9020 ,1.19310 ,1.52387 ,14.95219 
230 ,45.0944 ,1.19493 ,1.51018 ,14.81787 
231 ,45.3025 ,1.19700 ,1.50333 ,14.75072 
232 ,45.5107 ,1.19915 ,1.48965 ,14.61640 
233 ,45.7025 ,1.20104 ,1.48622 ,14.58283 
234 ,45.8946 ,1.20291 ,1.45200 ,14.24704 
235 ,46.1027 ,1.20498 ,1.43489 ,14.07915 
236 ,46.3109 ,1.20702 ,1.44174 ,14.14631 
237 ,46.5028 ,1.20896 ,1.41094 ,13.84410 
238 ,46.6950 ,1.21088 ,1.39725 ,13.70979 
239 ,46.8870 ,1.21282 ,1.40067 ,13.74337 
240 ,47.0949 ,1.21486 ,1.36987 ,13.44116 
241 ,47.2875 ,1.21681 ,1.36987 ,13.44116 
242 ,47.4795 ,1.21876 ,1.34591 ,13.20612 
243 ,47.6874 ,1.22075 ,1.34249 ,13.17254 
244 ,47.8955 ,1.22276 ,1.30827 ,12.83675 
245 ,48.1033 ,1.22505 ,1.30485 ,12.80318 
246 ,48.2956 ,1.22685 ,1.28774 ,12.63528 
247 ,48.5037 ,1.22894 ,1.28774 ,12.63528 
248 ,48.6954 ,1.23089 ,1.27405 ,12.50097 
249 ,48.9036 ,1.23287 ,1.25694 ,12.33308 
250 ,49.0960 ,1.23490 ,1.23298 ,12.09803 
251 ,49.3197 ,1.23722 ,1.22272 ,11.99730 
252 ,49.5123 ,1.23905 ,1.22272 ,11.99730 
253 ,49.7043 ,1.24104 ,1.19192 ,11.69509 
254 ,49.9125 ,1.24297 ,1.17481 ,11.52720 
255 ,50.1044 ,1.24502 ,1.18507 ,11.62794 
256 ,50.2966 ,1.24691 ,1.15085 ,11.29215 
257 ,50.5046 ,1.24901 ,1.14743 ,11.25857 
258 ,50.7128 ,1.25101 ,1.13716 ,11.15784 
259 ,50.9046 ,1.25296 ,1.12690 ,11.05710 
260 ,51.0968 ,1.25484 ,1.09610 ,10.75490 
261 ,51.2730 ,1.25675 ,1.10636 ,10.85563 
262 ,51.4647 ,1.25854 ,1.08583 ,10.65416 
263 ,51.6572 ,1.26058 ,1.05845 ,10.38554 
264 ,51.8813 ,1.26265 ,1.06872 ,10.48627 
265 ,52.0893 ,1.26475 ,1.04476 ,10.25123 
266 ,52.2815 ,1.26676 ,1.03108 ,10.11691 
267 ,52.4895 ,1.26888 ,1.02081 ,10.01618 
268 ,52.6975 ,1.27093 ,0.99001 ,9.71397 
269 ,52.9055 ,1.27296 ,0.98317 ,9.64682 
270 ,53.1137 ,1.27504 ,0.96948 ,9.51250 
271 ,53.3059 ,1.27694 ,0.96948 ,9.51250 
272 ,53.4977 ,1.27887 ,0.93868 ,9.21030 
273 ,53.6896 ,1.28077 ,0.94210 ,9.24388 
274 ,53.8826 ,1.28272 ,0.91472 ,8.97525 
275 ,54.0740 ,1.28468 ,0.89761 ,8.80736 
276 ,54.2822 ,1.28677 ,0.89761 ,8.80736 
277 ,54.4744 ,1.28861 ,0.88734 ,8.70662 
278 ,54.6825 ,1.29072 ,0.86339 ,8.47158 
279 ,54.8745 ,1.29265 ,0.85997 ,8.43800 
280 ,55.0667 ,1.29462 ,0.85997 ,8.43800 
281 ,55.2425 ,1.29648 ,0.81548 ,8.00148 
282 ,55.4347 ,1.29830 ,0.81548 ,8.00148 
283 ,55.6268 ,1.30018 ,0.82232 ,8.06864 
284 ,55.8186 ,1.30212 ,0.78126 ,7.66570 
285 ,56.0430 ,1.30435 ,0.79152 ,7.76643 
286 ,56.2508 ,1.30647 ,0.76757 ,7.53138 
287 ,56.4432 ,1.30835 ,0.76415 ,7.49780 
288 ,56.6512 ,1.31043 ,0.74704 ,7.32991 
289 ,56.8433 ,1.31231 ,0.73335 ,7.19560 
290 ,57.0193 ,1.31415 ,0.72308 ,7.09486 
291 ,57.1952 ,1.31594 ,0.72992 ,7.16202 
292 ,57.3875 ,1.31773 ,0.70597 ,6.92697 
293 ,57.5954 ,1.31983 ,0.68886 ,6.75908 
294 ,57.7877 ,1.32181 ,0.69913 ,6.85982 
295 ,57.9956 ,1.32383 ,0.66148 ,6.49046 
296 ,58.1879 ,1.32576 ,0.66833 ,6.55761 
297 ,58.3958 ,1.32783 ,0.65121 ,6.38972 
298 ,58.5880 ,1.32973 ,0.63068 ,6.18825 
299 ,58.7801 ,1.33175 ,0.60330 ,5.91962 
300 ,58.9560 ,1.33355 ,0.59988 ,5.88605 
301 ,59.1639 ,1.33549 ,0.61015 ,5.98678 
302 ,59.3563 ,1.33744 ,0.57935 ,5.68458 
303 ,59.5484 ,1.33933 ,0.57251 ,5.61742 
304 ,59.7406 ,1.34136 ,0.55197 ,5.41595 
305 ,59.9326 ,1.34324 ,0.54855 ,5.38237 
306 ,60.1247 ,1.34515 ,0.55197 ,5.41595 
307 ,60.3166 ,1.34706 ,0.50748 ,4.97943 
308 ,60.5088 ,1.34906 ,0.51775 ,5.08017 
309 ,60.7008 ,1.35094 ,0.50406 ,4.94585 
310 ,60.8928 ,1.35289 ,0.48353 ,4.74438 
311 ,61.1010 ,1.35487 ,0.47668 ,4.67723 
312 ,61.2928 ,1.35694 ,0.48695 ,4.77796 
313 ,61.4849 ,1.35872 ,0.47668 ,4.67723 
314 ,61.6773 ,1.36063 ,0.43904 ,4.30787 
315 ,61.8693 ,1.36260 ,0.44246 ,4.34144 
316 ,62.0614 ,1.36455 ,0.43562 ,4.27429 
317 ,62.2533 ,1.36641 ,0.43220 ,4.24071 
318 ,62.4615 ,1.36851 ,0.41166 ,4.03924 
319 ,62.6536 ,1.37038 ,0.40140 ,3.93850 
320 ,62.8297 ,1.37223 ,0.38429 ,3.77061 
321 ,63.0699 ,1.37443 ,0.37060 ,3.63630 
322 ,63.2618 ,1.37652 ,0.36718 ,3.60272 
323 ,63.4536 ,1.37853 ,0.34322 ,3.36767 
324 ,63.6457 ,1.38039 ,0.35006 ,3.43483 
325 ,63.8221 ,1.38213 ,0.32953 ,3.23336 
326 ,64.0138 ,1.38398 ,0.31926 ,3.13263 
327 ,64.2059 ,1.38599 ,0.31242 ,3.06547 
328 ,64.3822 ,1.38778 ,0.29189 ,2.86400 
329 ,64.5740 ,1.38962 ,0.29189 ,2.86400 
330 ,64.7824 ,1.39157 ,0.28504 ,2.79684 
331 ,64.9746 ,1.39366 ,0.26109 ,2.56179 
332 ,65.1663 ,1.39548 ,0.26109 ,2.56179 
333 ,65.3588 ,1.39742 ,0.22687 ,2.22601 
334 ,65.5507 ,1.39940 ,0.22002 ,2.15885 
335 ,65.7590 ,1.40141 ,0.21318 ,2.09170 
336 ,65.9511 ,1.40342 ,0.20633 ,2.02454 
337 ,66.1430 ,1.40533 ,0.20291 ,1.99096 
338 ,66.3352 ,1.40723 ,0.18922 ,1.85665 
339 ,66.5273 ,1.40914 ,0.18238 ,1.78949 
340 ,66.7190 ,1.41107 ,0.16527 ,1.62160 
341 ,66.8953 ,1.41297 ,0.15500 ,1.52087 
342 ,67.0876 ,1.41472 ,0.16185 ,1.58802 
343 ,67.2796 ,1.41669 ,0.13789 ,1.35298 
344 ,67.4717 ,1.41857 ,0.11393 ,1.11793 
345 ,67.6637 ,1.42052 ,0.13105 ,1.28582 
346 ,67.8712 ,1.42255 ,0.11736 ,1.15151 
347 ,68.0634 ,1.42448 ,0.10025 ,0.98361 
348 ,68.2557 ,1.42639 ,0.08998 ,0.88288 
349 ,68.4480 ,1.42838 ,0.08998 ,0.88288 
350 ,68.6401 ,1.43027 ,0.06602 ,0.64783 
351 ,68.8322 ,1.43218 ,0.05918 ,0.58067 
352 ,69.0242 ,1.43403 ,0.05576 ,0.54710 
353 ,69.2163 ,1.43604 ,0.02496 ,0.24489 
354 ,69.4083 ,1.43792 ,0.03180 ,0.31205 
355 ,69.5844 ,1.43982 ,0.01811 ,0.17773 
356 ,69.7605 ,1.44146 ,0.01127 ,0.11058 
357 ,69.9525 ,1.44346 ,-0.01953 ,-0.19163 
358 ,70.1607 ,1.44539 ,0.00100 ,0.00984 
359 ,70.3687 ,1.44759 ,-0.00926 ,-0.09089 
360 ,70.5608 ,1.44947 ,-0.04006 ,-0.39310 
361 ,70.7528 ,1.45136 ,-0.05717 ,-0.56099 
362 ,70.9287 ,1.45321 ,-0.05717 ,-0.56099 
363 ,71.1366 ,1.45524 ,-0.07086 ,-0.69530 
364 ,71.3129 ,1.45705 ,-0.08455 ,-0.82961 
365 ,71.5049 ,1.45891 ,-0.08113 ,-0.79604 
366 ,71.6972 ,1.46078 ,-0.10166 ,-0.99751 
367 ,71.8892 ,1.46270 ,-0.09824 ,-0.96393 
368 ,72.0816 ,1.46467 ,-0.11193 ,-1.09824 
369 ,72.2735 ,1.46664 ,-0.12562 ,-1.23255 
370 ,72.4655 ,1.46850 ,-0.12904 ,-1.26613 
371 ,72.6577 ,1.47046 ,-0.14273 ,-1.40045 
372 ,72.8818 ,1.47254 ,-0.14957 ,-1.46760 
373 ,73.0898 ,1.47470 ,-0.15984 ,-1.56834 
374 ,73.2654 ,1.47664 ,-0.17353 ,-1.70265 
375 ,73.4419 ,1.47840 ,-0.18037 ,-1.76981 
376 ,73.6181 ,1.48012 ,-0.19406 ,-1.90412 
377 ,73.8262 ,1.48213 ,-0.18722 ,-1.83696 
378 ,74.0022 ,1.48397 ,-0.23170 ,-2.27348 
379 ,74.2103 ,1.48588 ,-0.22486 ,-2.20632 
380 ,74.3864 ,1.48786 ,-0.23170 ,-2.27348 
381 ,74.5785 ,1.48961 ,-0.25224 ,-2.47495 
382 ,74.7864 ,1.49163 ,-0.24539 ,-2.40779 
383 ,74.9787 ,1.49365 ,-0.27277 ,-2.67642 
384 ,75.1708 ,1.49555 ,-0.26593 ,-2.60926 
385 ,75.3623 ,1.49746 ,-0.26935 ,-2.64284 
386 ,75.5709 ,1.49942 ,-0.30015 ,-2.94505 
387 ,75.7790 ,1.50163 ,-0.29673 ,-2.91147 
388 ,75.9711 ,1.50356 ,-0.30699 ,-3.01220 
389 ,76.1792 ,1.50561 ,-0.32410 ,-3.18010 
390 ,76.3711 ,1.50754 ,-0.33437 ,-3.28083 
391 ,76.5633 ,1.50945 ,-0.32752 ,-3.21367 
392 ,76.7713 ,1.51156 ,-0.34806 ,-3.41514 
393 ,76.9633 ,1.51344 ,-0.35832 ,-3.51588 
394 ,77.1714 ,1.51541 ,-0.37201 ,-3.65019 
395 ,77.3636 ,1.51745 ,-0.37886 ,-3.71735 
396 ,77.5712 ,1.51953 ,-0.39255 ,-3.85166 
397 ,77.7638 ,1.52148 ,-0.38912 ,-3.81808 
398 ,77.9718 ,1.52355 ,-0.40966 ,-4.01955 
399 ,78.1640 ,1.52545 ,-0.40281 ,-3.95240 
400 ,78.3719 ,1.52755 ,-0.43361 ,-4.25460 
401 ,78.5638 ,1.52941 ,-0.43361 ,-4.25460 
402 ,78.7560 ,1.53148 ,-0.45414 ,-4.45607 
403 ,78.9482 ,1.53331 ,-0.44388 ,-4.35534 
404 ,79.1401 ,1.53523 ,-0.45757 ,-4.48965 
405 ,79.3483 ,1.53728 ,-0.47810 ,-4.69112 
406 ,79.5243 ,1.53916 ,-0.49179 ,-4.82543 
407 ,79.7001 ,1.54088 ,-0.49179 ,-4.82543 
408 ,79.8926 ,1.54276 ,-0.51232 ,-5.02690 
409 ,80.1007 ,1.54483 ,-0.51574 ,-5.06048 
410 ,80.3087 ,1.54692 ,-0.52259 ,-5.12764 
411 ,80.5165 ,1.54899 ,-0.54312 ,-5.32911 
412 ,80.7090 ,1.55091 ,-0.53285 ,-5.22837 
413 ,80.9009 ,1.55279 ,-0.54654 ,-5.36268 
414 ,81.0928 ,1.55477 ,-0.57734 ,-5.66489 
415 ,81.2692 ,1.55658 ,-0.56708 ,-5.56415 
416 ,81.4772 ,1.55849 ,-0.56708 ,-5.56415 
417 ,81.6692 ,1.56050 ,-0.58077 ,-5.69847 
418 ,81.8609 ,1.56249 ,-0.58077 ,-5.69847 
419 ,82.0692 ,1.56453 ,-0.62183 ,-6.10141 
420 ,82.2776 ,1.56660 ,-0.62525 ,-6.13499 
421 ,82.4537 ,1.56842 ,-0.62525 ,-6.13499 
422 ,82.6295 ,1.57014 ,-0.64236 ,-6.30288 
423 ,82.8538 ,1.57228 ,-0.63210 ,-6.20214 
424 ,83.0614 ,1.57438 ,-0.66290 ,-6.50435 
425 ,83.2701 ,1.57639 ,-0.66290 ,-6.50435 
426 ,83.4782 ,1.57858 ,-0.68343 ,-6.70582 
427 ,83.6702 ,1.58050 ,-0.67659 ,-6.63866 
428 ,83.8624 ,1.58245 ,-0.67316 ,-6.60508 
429 ,84.0540 ,1.58439 ,-0.70739 ,-6.94086 
430 ,84.2463 ,1.58630 ,-0.70396 ,-6.90729 
431 ,84.4382 ,1.58821 ,-0.72107 ,-7.07518 
432 ,84.6307 ,1.59011 ,-0.72450 ,-7.10876 
433 ,84.8387 ,1.59219 ,-0.73818 ,-7.24307 
434 ,85.0467 ,1.59425 ,-0.73476 ,-7.20949 
435 ,85.2386 ,1.59618 ,-0.75530 ,-7.41096 
436 ,85.4150 ,1.59799 ,-0.77241 ,-7.57885 
437 ,85.6071 ,1.59989 ,-0.76556 ,-7.51170 
438 ,85.8309 ,1.60200 ,-0.77925 ,-7.64601 
439 ,86.0232 ,1.60405 ,-0.78610 ,-7.71317 
440 ,86.2312 ,1.60608 ,-0.80663 ,-7.91464 
441 ,86.4392 ,1.60815 ,-0.78952 ,-7.74674 
442 ,86.6314 ,1.61010 ,-0.82716 ,-8.11611 
443 ,86.8234 ,1.61200 ,-0.81689 ,-8.01537 
444 ,86.9993 ,1.61382 ,-0.84085 ,-8.25042 
445 ,87.1917 ,1.61573 ,-0.85112 ,-8.35115 
446 ,87.3834 ,1.61764 ,-0.84427 ,-8.28400 
447 ,87.5757 ,1.61959 ,-0.87165 ,-8.55262 
448 ,87.7840 ,1.62165 ,-0.86138 ,-8.45189 
449 ,87.9759 ,1.62357 ,-0.89218 ,-8.75409 
450 ,88.1681 ,1.62544 ,-0.88534 ,-8.68694 
451 ,88.3601 ,1.62742 ,-0.88192 ,-8.65336 
452 ,88.5520 ,1.62927 ,-0.90929 ,-8.92198 
453 ,88.7442 ,1.63118 ,-0.90245 ,-8.85483 
454 ,88.9363 ,1.63313 ,-0.92983 ,-9.12345 
455 ,89.1443 ,1.63520 ,-0.92983 ,-9.12345 
456 ,89.3525 ,1.63736 ,-0.95720 ,-9.39208 
457 ,89.5442 ,1.63918 ,-0.92983 ,-9.12345 
458 ,89.7366 ,1.64114 ,-0.96063 ,-9.42566 
459 ,89.9446 ,1.64319 ,-0.95378 ,-9.35850 
460 ,90.1367 ,1.64511 ,-0.97431 ,-9.55997 
461 ,90.3445 ,1.64721 ,-0.96405 ,-9.45924 
462 ,90.5370 ,1.64912 ,-0.98800 ,-9.69429 
463 ,90.7286 ,1.65106 ,-1.00169 ,-9.82860 
