Data stamp = , 27-04-2022 09:33:22 030

Calibration Values: 
Slope = , 26.54 , g/V 
Offset Voltage at no contact = , -0.501760 , V 

No , Time , Stage Position ,   Mass , Force 
   ,  (s) ,      (mm)      ,   (g)  , (mN)  

1 ,0.0000 ,0.74953 ,5.21639 ,51.18317 
2 ,0.2917 ,0.74974 ,5.21639 ,51.18317 
3 ,0.6120 ,0.75090 ,5.21296 ,51.14960 
4 ,0.8040 ,0.75254 ,5.21296 ,51.14960 
5 ,0.9963 ,0.75424 ,5.23007 ,51.31749 
6 ,1.2043 ,0.75617 ,5.23692 ,51.38464 
7 ,1.4125 ,0.75837 ,5.24376 ,51.45180 
8 ,1.6047 ,0.76032 ,5.21981 ,51.21675 
9 ,1.8125 ,0.76227 ,5.22323 ,51.25033 
10 ,2.0046 ,0.76436 ,5.21639 ,51.18317 
11 ,2.1968 ,0.76619 ,5.19243 ,50.94813 
12 ,2.3890 ,0.76809 ,5.18559 ,50.88097 
13 ,2.5810 ,0.77006 ,5.16163 ,50.64592 
14 ,2.7733 ,0.77199 ,5.15479 ,50.57876 
15 ,2.9652 ,0.77395 ,5.13083 ,50.34372 
16 ,3.1412 ,0.77574 ,5.10345 ,50.07509 
17 ,3.3494 ,0.77771 ,5.10003 ,50.04151 
18 ,3.5573 ,0.77987 ,5.06239 ,49.67215 
19 ,3.7814 ,0.78189 ,5.03501 ,49.40352 
20 ,3.9738 ,0.78402 ,5.03159 ,49.36995 
21 ,4.1658 ,0.78603 ,5.01106 ,49.16848 
22 ,4.3576 ,0.78781 ,4.98368 ,48.89985 
23 ,4.5340 ,0.78963 ,4.95630 ,48.63122 
24 ,4.7260 ,0.79151 ,4.96315 ,48.69838 
25 ,4.9023 ,0.79335 ,4.93919 ,48.46333 
26 ,5.0941 ,0.79521 ,4.91181 ,48.19471 
27 ,5.2859 ,0.79708 ,4.90839 ,48.16113 
28 ,5.4778 ,0.79911 ,4.87417 ,47.82534 
29 ,5.6539 ,0.80096 ,4.85706 ,47.65745 
30 ,5.8460 ,0.80272 ,4.85364 ,47.62387 
31 ,6.0379 ,0.80466 ,4.81941 ,47.28809 
32 ,6.2305 ,0.80660 ,4.81941 ,47.28809 
33 ,6.4223 ,0.80859 ,4.77835 ,46.88515 
34 ,6.6145 ,0.81040 ,4.76466 ,46.75084 
35 ,6.8229 ,0.81247 ,4.74755 ,46.58295 
36 ,7.0308 ,0.81453 ,4.73728 ,46.48221 
37 ,7.2067 ,0.81635 ,4.72017 ,46.31432 
38 ,7.3827 ,0.81816 ,4.70648 ,46.18001 
39 ,7.5427 ,0.81986 ,4.68253 ,45.94496 
40 ,7.7351 ,0.82162 ,4.65515 ,45.67633 
41 ,7.9272 ,0.82353 ,4.66199 ,45.74349 
42 ,8.1192 ,0.82544 ,4.62777 ,45.40771 
43 ,8.3114 ,0.82743 ,4.62777 ,45.40771 
44 ,8.5035 ,0.82926 ,4.60040 ,45.13908 
45 ,8.6635 ,0.83104 ,4.57644 ,44.90403 
46 ,8.8397 ,0.83267 ,4.55933 ,44.73614 
47 ,9.0318 ,0.83452 ,4.53880 ,44.53467 
48 ,9.2240 ,0.83649 ,4.54222 ,44.56825 
49 ,9.4157 ,0.83847 ,4.52169 ,44.36678 
50 ,9.6241 ,0.84047 ,4.49773 ,44.13173 
51 ,9.8158 ,0.84238 ,4.48062 ,43.96384 
52 ,10.0242 ,0.84446 ,4.46693 ,43.82953 
53 ,10.2002 ,0.84629 ,4.43271 ,43.49374 
54 ,10.3925 ,0.84817 ,4.43271 ,43.49374 
55 ,10.5844 ,0.85019 ,4.40191 ,43.19154 
56 ,10.7602 ,0.85188 ,4.39849 ,43.15796 
57 ,10.9686 ,0.85384 ,4.36427 ,42.82218 
58 ,11.1764 ,0.85599 ,4.33689 ,42.55355 
59 ,11.3527 ,0.85782 ,4.33347 ,42.51997 
60 ,11.5609 ,0.85980 ,4.32320 ,42.41924 
61 ,11.7529 ,0.86177 ,4.29240 ,42.11703 
62 ,11.9609 ,0.86385 ,4.29240 ,42.11703 
63 ,12.1531 ,0.86580 ,4.25476 ,41.74767 
64 ,12.3611 ,0.86786 ,4.24791 ,41.68051 
65 ,12.5373 ,0.86968 ,4.24449 ,41.64694 
66 ,12.7290 ,0.87155 ,4.21711 ,41.37831 
67 ,12.9050 ,0.87332 ,4.20000 ,41.21042 
68 ,13.0815 ,0.87515 ,4.17262 ,40.94179 
69 ,13.2893 ,0.87713 ,4.15551 ,40.77390 
70 ,13.4656 ,0.87899 ,4.15209 ,40.74032 
71 ,13.6577 ,0.88077 ,4.14525 ,40.67317 
72 ,13.8497 ,0.88271 ,4.10760 ,40.30380 
73 ,14.0577 ,0.88475 ,4.07680 ,40.00160 
74 ,14.2340 ,0.88660 ,4.05627 ,39.80013 
75 ,14.4421 ,0.88863 ,4.06996 ,39.93444 
76 ,14.6342 ,0.89055 ,4.03232 ,39.56508 
77 ,14.8262 ,0.89251 ,4.02547 ,39.49793 
78 ,15.0183 ,0.89439 ,4.00152 ,39.26288 
79 ,15.2263 ,0.89648 ,3.98441 ,39.09499 
80 ,15.4185 ,0.89847 ,3.97414 ,38.99425 
81 ,15.6104 ,0.90041 ,3.95361 ,38.79278 
82 ,15.7865 ,0.90210 ,3.94676 ,38.72562 
83 ,15.9786 ,0.90403 ,3.91938 ,38.45700 
84 ,16.1863 ,0.90605 ,3.90912 ,38.35626 
85 ,16.3789 ,0.90800 ,3.88858 ,38.15479 
86 ,16.5867 ,0.91008 ,3.86463 ,37.91975 
87 ,16.7630 ,0.91188 ,3.87147 ,37.98690 
88 ,16.9711 ,0.91393 ,3.81672 ,37.44965 
89 ,17.1632 ,0.91586 ,3.81330 ,37.41607 
90 ,17.3712 ,0.91791 ,3.77223 ,37.01313 
91 ,17.5793 ,0.91998 ,3.78250 ,37.11387 
92 ,17.7712 ,0.92192 ,3.75170 ,36.81166 
93 ,17.9796 ,0.92400 ,3.74828 ,36.77808 
94 ,18.1715 ,0.92596 ,3.71063 ,36.40872 
95 ,18.3633 ,0.92784 ,3.71063 ,36.40872 
96 ,18.5557 ,0.92973 ,3.68668 ,36.17367 
97 ,18.7638 ,0.93183 ,3.66957 ,36.00578 
98 ,18.9399 ,0.93368 ,3.66272 ,35.93863 
99 ,19.1480 ,0.93561 ,3.62508 ,35.56926 
100 ,19.3559 ,0.93772 ,3.61481 ,35.46853 
101 ,19.5481 ,0.93966 ,3.58743 ,35.19990 
102 ,19.7562 ,0.94171 ,3.59086 ,35.23348 
103 ,19.9481 ,0.94365 ,3.56348 ,34.96485 
104 ,20.1563 ,0.94575 ,3.55321 ,34.86412 
105 ,20.3325 ,0.94760 ,3.51899 ,34.52834 
106 ,20.5241 ,0.94942 ,3.52241 ,34.56192 
107 ,20.7167 ,0.95136 ,3.51215 ,34.46118 
108 ,20.8924 ,0.95324 ,3.46424 ,33.99108 
109 ,21.0686 ,0.95492 ,3.45055 ,33.85677 
110 ,21.2448 ,0.95678 ,3.45397 ,33.89035 
111 ,21.4210 ,0.95847 ,3.43001 ,33.65530 
112 ,21.6126 ,0.96031 ,3.41290 ,33.48741 
113 ,21.7730 ,0.96210 ,3.39921 ,33.35310 
114 ,21.9653 ,0.96385 ,3.38553 ,33.21878 
115 ,22.1573 ,0.96576 ,3.37868 ,33.15163 
116 ,22.3493 ,0.96767 ,3.34104 ,32.78227 
117 ,22.5254 ,0.96949 ,3.33077 ,32.68153 
118 ,22.6850 ,0.97121 ,3.31708 ,32.54722 
119 ,22.8775 ,0.97295 ,3.31708 ,32.54722 
120 ,23.0858 ,0.97503 ,3.27602 ,32.14428 
121 ,23.2776 ,0.97701 ,3.26575 ,32.04354 
122 ,23.4859 ,0.97904 ,3.23495 ,31.74134 
123 ,23.6777 ,0.98095 ,3.24180 ,31.80849 
124 ,23.8539 ,0.98282 ,3.20415 ,31.43913 
125 ,24.0621 ,0.98468 ,3.18704 ,31.27124 
126 ,24.2542 ,0.98674 ,3.19046 ,31.30482 
127 ,24.4464 ,0.98867 ,3.16651 ,31.06977 
128 ,24.6383 ,0.99057 ,3.15624 ,30.96904 
129 ,24.8140 ,0.99244 ,3.12544 ,30.66683 
130 ,25.0065 ,0.99429 ,3.10833 ,30.49894 
131 ,25.2144 ,0.99630 ,3.09464 ,30.36463 
132 ,25.3905 ,0.99815 ,3.07411 ,30.16316 
133 ,25.5828 ,1.00001 ,3.07411 ,30.16316 
134 ,25.7747 ,1.00198 ,3.06042 ,30.02884 
135 ,25.9664 ,1.00379 ,3.03304 ,29.76022 
136 ,26.1589 ,1.00573 ,3.00567 ,29.49159 
137 ,26.3506 ,1.00767 ,3.00567 ,29.49159 
138 ,26.5591 ,1.00977 ,2.98513 ,29.29012 
139 ,26.7670 ,1.01185 ,2.95776 ,29.02150 
140 ,26.9593 ,1.01377 ,2.94407 ,28.88718 
141 ,27.1672 ,1.01587 ,2.92011 ,28.65213 
142 ,27.3750 ,1.01793 ,2.92011 ,28.65213 
143 ,27.5514 ,1.01972 ,2.88931 ,28.34993 
144 ,27.7275 ,1.02148 ,2.87562 ,28.21562 
145 ,27.9197 ,1.02334 ,2.86536 ,28.11488 
146 ,28.1113 ,1.02536 ,2.82429 ,27.71194 
147 ,28.3039 ,1.02721 ,2.81745 ,27.64479 
148 ,28.5114 ,1.02931 ,2.81402 ,27.61121 
149 ,28.6874 ,1.03115 ,2.77980 ,27.27542 
150 ,28.8799 ,1.03301 ,2.76954 ,27.17469 
151 ,29.0880 ,1.03504 ,2.76954 ,27.17469 
152 ,29.2642 ,1.03692 ,2.74558 ,26.93964 
153 ,29.4882 ,1.03903 ,2.71820 ,26.67101 
154 ,29.6962 ,1.04110 ,2.71820 ,26.67101 
155 ,29.8723 ,1.04294 ,2.70109 ,26.50312 
156 ,30.0645 ,1.04482 ,2.66345 ,26.13376 
157 ,30.2561 ,1.04670 ,2.67029 ,26.20092 
158 ,30.4486 ,1.04862 ,2.64976 ,25.99945 
159 ,30.6407 ,1.05052 ,2.62238 ,25.73082 
160 ,30.8165 ,1.05243 ,2.61896 ,25.69724 
161 ,31.0088 ,1.05424 ,2.59843 ,25.49577 
162 ,31.2170 ,1.05633 ,2.57789 ,25.29430 
163 ,31.4089 ,1.05821 ,2.56078 ,25.12641 
164 ,31.6171 ,1.06030 ,2.54710 ,24.99210 
165 ,31.8253 ,1.06235 ,2.51630 ,24.68989 
166 ,32.0173 ,1.06432 ,2.51630 ,24.68989 
167 ,32.2092 ,1.06633 ,2.50261 ,24.55558 
168 ,32.4171 ,1.06829 ,2.48207 ,24.35411 
169 ,32.6095 ,1.07028 ,2.46496 ,24.18622 
170 ,32.8019 ,1.07213 ,2.43074 ,23.85044 
171 ,32.9939 ,1.07412 ,2.44101 ,23.95117 
172 ,33.1858 ,1.07600 ,2.41363 ,23.68255 
173 ,33.3941 ,1.07815 ,2.40336 ,23.58181 
174 ,33.5859 ,1.08008 ,2.37599 ,23.31318 
175 ,33.7778 ,1.08193 ,2.36572 ,23.21245 
176 ,33.9541 ,1.08379 ,2.35203 ,23.07814 
177 ,34.1462 ,1.08562 ,2.33150 ,22.87667 
178 ,34.3383 ,1.08751 ,2.31097 ,22.67520 
179 ,34.5305 ,1.08948 ,2.30754 ,22.64162 
180 ,34.7225 ,1.09142 ,2.28359 ,22.40657 
181 ,34.9140 ,1.09333 ,2.26306 ,22.20510 
182 ,35.0905 ,1.09512 ,2.26648 ,22.23868 
183 ,35.2823 ,1.09699 ,2.23568 ,21.93647 
184 ,35.4744 ,1.09887 ,2.22883 ,21.86932 
185 ,35.6665 ,1.10078 ,2.19803 ,21.56711 
186 ,35.8585 ,1.10268 ,2.18092 ,21.39922 
187 ,36.0345 ,1.10459 ,2.19119 ,21.49996 
188 ,36.2266 ,1.10636 ,2.15012 ,21.09702 
189 ,36.4187 ,1.10831 ,2.14328 ,21.02986 
190 ,36.5948 ,1.11018 ,2.13301 ,20.92912 
191 ,36.7707 ,1.11194 ,2.11932 ,20.79481 
192 ,36.9630 ,1.11375 ,2.09537 ,20.55976 
193 ,37.1551 ,1.11567 ,2.08510 ,20.45903 
194 ,37.3471 ,1.11754 ,2.08852 ,20.49261 
195 ,37.5232 ,1.11946 ,2.04061 ,20.02251 
196 ,37.7153 ,1.12125 ,2.03719 ,19.98893 
197 ,37.9072 ,1.12318 ,2.03377 ,19.95535 
198 ,38.1153 ,1.12531 ,1.99955 ,19.61957 
199 ,38.2914 ,1.12714 ,1.99955 ,19.61957 
200 ,38.4836 ,1.12898 ,1.97559 ,19.38452 
201 ,38.6757 ,1.13083 ,1.95848 ,19.21663 
202 ,38.8517 ,1.13275 ,1.96190 ,19.25021 
203 ,39.0439 ,1.13455 ,1.94479 ,19.08232 
204 ,39.2197 ,1.13641 ,1.91057 ,18.74654 
205 ,39.3960 ,1.13818 ,1.91742 ,18.81369 
206 ,39.5720 ,1.13993 ,1.89004 ,18.54507 
207 ,39.7645 ,1.14175 ,1.86951 ,18.34360 
208 ,39.9882 ,1.14390 ,1.86951 ,18.34360 
209 ,40.1804 ,1.14590 ,1.84555 ,18.10855 
210 ,40.3888 ,1.14796 ,1.85240 ,18.17570 
211 ,40.5806 ,1.14997 ,1.80791 ,17.73919 
212 ,40.7889 ,1.15207 ,1.81133 ,17.77276 
213 ,40.9969 ,1.15405 ,1.79764 ,17.63845 
214 ,41.1730 ,1.15593 ,1.78053 ,17.47056 
215 ,41.3811 ,1.15793 ,1.76000 ,17.26909 
216 ,41.5733 ,1.15986 ,1.75315 ,17.20193 
217 ,41.7653 ,1.16179 ,1.73262 ,17.00046 
218 ,41.9573 ,1.16365 ,1.71893 ,16.86615 
219 ,42.1652 ,1.16572 ,1.69498 ,16.63110 
220 ,42.3576 ,1.16769 ,1.68471 ,16.53037 
221 ,42.5657 ,1.16975 ,1.67786 ,16.46321 
222 ,42.7578 ,1.17169 ,1.65049 ,16.19458 
223 ,42.9499 ,1.17368 ,1.66075 ,16.29532 
224 ,43.1419 ,1.17552 ,1.62653 ,15.95954 
225 ,43.3340 ,1.17747 ,1.62311 ,15.92596 
226 ,43.5421 ,1.17954 ,1.59573 ,15.65733 
227 ,43.7341 ,1.18157 ,1.60258 ,15.72449 
228 ,43.9103 ,1.18326 ,1.58889 ,15.59018 
229 ,44.1024 ,1.18514 ,1.55467 ,15.25439 
230 ,44.3102 ,1.18715 ,1.55809 ,15.28797 
231 ,44.5026 ,1.18918 ,1.53071 ,15.01934 
232 ,44.7106 ,1.19120 ,1.53413 ,15.05292 
233 ,44.9026 ,1.19314 ,1.50676 ,14.78430 
234 ,45.0948 ,1.19504 ,1.49991 ,14.71714 
235 ,45.2869 ,1.19697 ,1.49307 ,14.64998 
236 ,45.4624 ,1.19883 ,1.44858 ,14.21346 
237 ,45.6549 ,1.20065 ,1.45542 ,14.28062 
238 ,45.8467 ,1.20253 ,1.44858 ,14.21346 
239 ,46.0391 ,1.20450 ,1.43147 ,14.04557 
240 ,46.2470 ,1.20658 ,1.41778 ,13.91126 
241 ,46.4231 ,1.20845 ,1.39383 ,13.67621 
242 ,46.5832 ,1.21009 ,1.38356 ,13.57548 
243 ,46.7754 ,1.21181 ,1.38014 ,13.54190 
244 ,46.9515 ,1.21371 ,1.35960 ,13.34043 
245 ,47.1596 ,1.21567 ,1.33907 ,13.13896 
246 ,47.3516 ,1.21763 ,1.32880 ,13.03822 
247 ,47.5593 ,1.21962 ,1.31169 ,12.87033 
248 ,47.7518 ,1.22158 ,1.30827 ,12.83675 
249 ,47.9599 ,1.22368 ,1.28432 ,12.60171 
250 ,48.1359 ,1.22556 ,1.27747 ,12.53455 
251 ,48.3117 ,1.22728 ,1.26720 ,12.43381 
252 ,48.4877 ,1.22901 ,1.26036 ,12.36666 
253 ,48.6637 ,1.23079 ,1.25352 ,12.29950 
254 ,48.8562 ,1.23263 ,1.22614 ,12.03088 
255 ,49.0959 ,1.23505 ,1.20218 ,11.79583 
256 ,49.2723 ,1.23687 ,1.18507 ,11.62794 
257 ,49.4646 ,1.23875 ,1.19876 ,11.76225 
258 ,49.6566 ,1.24072 ,1.17481 ,11.52720 
259 ,49.8484 ,1.24252 ,1.15770 ,11.35931 
260 ,50.0406 ,1.24453 ,1.15427 ,11.32573 
261 ,50.2328 ,1.24639 ,1.12690 ,11.05710 
262 ,50.4244 ,1.24844 ,1.12347 ,11.02353 
263 ,50.6007 ,1.25019 ,1.09952 ,10.78848 
264 ,50.7765 ,1.25188 ,1.08583 ,10.65416 
265 ,50.9528 ,1.25373 ,1.08925 ,10.68774 
266 ,51.1451 ,1.25557 ,1.07899 ,10.58701 
267 ,51.3372 ,1.25743 ,1.05161 ,10.31838 
268 ,51.5453 ,1.25952 ,1.04819 ,10.28480 
269 ,51.7372 ,1.26144 ,1.02765 ,10.08333 
270 ,51.9450 ,1.26345 ,1.01739 ,9.98260 
271 ,52.1374 ,1.26544 ,0.99343 ,9.74755 
272 ,52.3296 ,1.26737 ,0.99685 ,9.78113 
273 ,52.5214 ,1.26928 ,0.97974 ,9.61324 
274 ,52.7138 ,1.27122 ,0.95237 ,9.34461 
275 ,52.9216 ,1.27319 ,0.97290 ,9.54608 
276 ,53.1139 ,1.27520 ,0.93525 ,9.17672 
277 ,53.3059 ,1.27710 ,0.93183 ,9.14314 
278 ,53.4820 ,1.27898 ,0.91130 ,8.94167 
279 ,53.6899 ,1.28089 ,0.90103 ,8.84094 
280 ,53.8823 ,1.28290 ,0.89761 ,8.80736 
281 ,54.0739 ,1.28494 ,0.86681 ,8.50515 
282 ,54.2664 ,1.28675 ,0.87366 ,8.57231 
283 ,54.4743 ,1.28881 ,0.84628 ,8.30368 
284 ,54.6666 ,1.29072 ,0.84970 ,8.33726 
285 ,54.8424 ,1.29263 ,0.82232 ,8.06864 
286 ,55.0188 ,1.29430 ,0.83601 ,8.20295 
287 ,55.2105 ,1.29616 ,0.79495 ,7.80001 
288 ,55.3868 ,1.29800 ,0.78810 ,7.73285 
289 ,55.5789 ,1.29983 ,0.78126 ,7.66570 
290 ,55.7711 ,1.30176 ,0.75730 ,7.43065 
291 ,55.9790 ,1.30387 ,0.76415 ,7.49780 
292 ,56.1712 ,1.30572 ,0.74361 ,7.29633 
293 ,56.3631 ,1.30770 ,0.74704 ,7.32991 
294 ,56.5713 ,1.30976 ,0.71281 ,6.99413 
295 ,56.7633 ,1.31173 ,0.71281 ,6.99413 
296 ,56.9554 ,1.31367 ,0.68886 ,6.75908 
297 ,57.1474 ,1.31547 ,0.69228 ,6.79266 
298 ,57.3391 ,1.31738 ,0.66148 ,6.49046 
299 ,57.5314 ,1.31939 ,0.65806 ,6.45688 
300 ,57.7238 ,1.32132 ,0.65121 ,6.38972 
301 ,57.9156 ,1.32321 ,0.63068 ,6.18825 
302 ,58.1077 ,1.32511 ,0.62726 ,6.15467 
303 ,58.3000 ,1.32702 ,0.61015 ,5.98678 
304 ,58.4760 ,1.32890 ,0.59646 ,5.85247 
305 ,58.6681 ,1.33070 ,0.59646 ,5.85247 
306 ,58.8602 ,1.33264 ,0.58277 ,5.71815 
307 ,59.0522 ,1.33463 ,0.55197 ,5.41595 
308 ,59.2441 ,1.33651 ,0.56224 ,5.51668 
309 ,59.4203 ,1.33836 ,0.53486 ,5.24806 
310 ,59.6283 ,1.34040 ,0.52117 ,5.11375 
311 ,59.8524 ,1.34245 ,0.52117 ,5.11375 
312 ,60.0607 ,1.34467 ,0.51775 ,5.08017 
313 ,60.2526 ,1.34659 ,0.47668 ,4.67723 
314 ,60.4446 ,1.34849 ,0.47668 ,4.67723 
315 ,60.6365 ,1.35041 ,0.48011 ,4.71081 
316 ,60.8128 ,1.35225 ,0.45273 ,4.44218 
317 ,61.0051 ,1.35413 ,0.43904 ,4.30787 
318 ,61.1968 ,1.35599 ,0.43904 ,4.30787 
319 ,61.3892 ,1.35792 ,0.42193 ,4.13997 
320 ,61.5971 ,1.36002 ,0.41166 ,4.03924 
321 ,61.8053 ,1.36216 ,0.40140 ,3.93850 
322 ,61.9975 ,1.36407 ,0.39455 ,3.87135 
323 ,62.1892 ,1.36589 ,0.37402 ,3.66988 
324 ,62.3657 ,1.36777 ,0.36718 ,3.60272 
325 ,62.5575 ,1.36965 ,0.36718 ,3.60272 
326 ,62.7333 ,1.37149 ,0.34322 ,3.36767 
327 ,62.9257 ,1.37328 ,0.33295 ,3.26694 
328 ,63.1339 ,1.37535 ,0.31584 ,3.09905 
329 ,63.3258 ,1.37726 ,0.31242 ,3.06547 
330 ,63.5179 ,1.37924 ,0.30558 ,2.99831 
331 ,63.7099 ,1.38112 ,0.28504 ,2.79684 
332 ,63.9181 ,1.38318 ,0.27478 ,2.69611 
333 ,64.1263 ,1.38525 ,0.26451 ,2.59537 
334 ,64.3022 ,1.38710 ,0.26451 ,2.59537 
335 ,64.4780 ,1.38891 ,0.25767 ,2.52822 
336 ,64.6707 ,1.39070 ,0.23029 ,2.25959 
337 ,64.8465 ,1.39262 ,0.24398 ,2.39390 
338 ,65.0387 ,1.39437 ,0.22344 ,2.19243 
339 ,65.2466 ,1.39651 ,0.20291 ,1.99096 
340 ,65.4229 ,1.39838 ,0.19949 ,1.95738 
341 ,65.6147 ,1.40020 ,0.18922 ,1.85665 
342 ,65.8069 ,1.40210 ,0.16185 ,1.58802 
343 ,65.9986 ,1.40411 ,0.15842 ,1.55445 
344 ,66.1912 ,1.40591 ,0.15158 ,1.48729 
345 ,66.3832 ,1.40787 ,0.14816 ,1.45371 
346 ,66.5913 ,1.40994 ,0.14131 ,1.38655 
347 ,66.7833 ,1.41189 ,0.12762 ,1.25224 
348 ,66.9912 ,1.41395 ,0.10025 ,0.98361 
349 ,67.1835 ,1.41584 ,0.10025 ,0.98361 
350 ,67.3916 ,1.41794 ,0.08314 ,0.81572 
351 ,67.5835 ,1.41982 ,0.08314 ,0.81572 
352 ,67.7919 ,1.42195 ,0.06945 ,0.68141 
353 ,67.9998 ,1.42393 ,0.06260 ,0.61425 
354 ,68.2076 ,1.42603 ,0.03180 ,0.31205 
355 ,68.3839 ,1.42792 ,0.04891 ,0.47994 
356 ,68.5602 ,1.42969 ,0.03180 ,0.31205 
357 ,68.7359 ,1.43149 ,0.00785 ,0.07700 
358 ,68.9123 ,1.43320 ,0.00785 ,0.07700 
359 ,69.1044 ,1.43508 ,0.00100 ,0.00984 
360 ,69.2964 ,1.43695 ,-0.00584 ,-0.05731 
361 ,69.4885 ,1.43886 ,-0.02980 ,-0.29236 
362 ,69.6646 ,1.44076 ,-0.02637 ,-0.25878 
363 ,69.8566 ,1.44253 ,-0.03322 ,-0.32594 
364 ,70.0326 ,1.44438 ,-0.06402 ,-0.62814 
365 ,70.2408 ,1.44645 ,-0.04348 ,-0.42667 
366 ,70.4327 ,1.44834 ,-0.06744 ,-0.66172 
367 ,70.6250 ,1.45027 ,-0.09482 ,-0.93035 
368 ,70.8331 ,1.45228 ,-0.09824 ,-0.96393 
369 ,71.0250 ,1.45425 ,-0.09824 ,-0.96393 
370 ,71.2492 ,1.45638 ,-0.11535 ,-1.13182 
371 ,71.4409 ,1.45842 ,-0.11535 ,-1.13182 
372 ,71.6172 ,1.46021 ,-0.12904 ,-1.26613 
373 ,71.8092 ,1.46212 ,-0.14615 ,-1.43402 
374 ,72.0017 ,1.46400 ,-0.15299 ,-1.50118 
375 ,72.1935 ,1.46595 ,-0.15984 ,-1.56834 
376 ,72.3697 ,1.46779 ,-0.18037 ,-1.76981 
377 ,72.5776 ,1.46973 ,-0.17011 ,-1.66907 
378 ,72.7858 ,1.47183 ,-0.19406 ,-1.90412 
379 ,72.9938 ,1.47395 ,-0.19064 ,-1.87054 
380 ,73.1859 ,1.47583 ,-0.22828 ,-2.23990 
381 ,73.3779 ,1.47777 ,-0.20433 ,-2.00485 
382 ,73.5858 ,1.47989 ,-0.24539 ,-2.40779 
383 ,73.7780 ,1.48174 ,-0.24197 ,-2.37422 
384 ,73.9544 ,1.48359 ,-0.24539 ,-2.40779 
385 ,74.1625 ,1.48566 ,-0.26935 ,-2.64284 
386 ,74.3545 ,1.48752 ,-0.26593 ,-2.60926 
387 ,74.5465 ,1.48945 ,-0.28646 ,-2.81073 
388 ,74.7387 ,1.49134 ,-0.27619 ,-2.71000 
389 ,74.9465 ,1.49348 ,-0.30357 ,-2.97863 
390 ,75.1389 ,1.49538 ,-0.30015 ,-2.94505 
391 ,75.3467 ,1.49739 ,-0.33095 ,-3.24725 
392 ,75.5230 ,1.49927 ,-0.32410 ,-3.18010 
393 ,75.7147 ,1.50109 ,-0.33779 ,-3.31441 
394 ,75.9069 ,1.50305 ,-0.35148 ,-3.44872 
395 ,76.0992 ,1.50498 ,-0.34806 ,-3.41514 
396 ,76.2913 ,1.50691 ,-0.37201 ,-3.65019 
397 ,76.4835 ,1.50882 ,-0.37886 ,-3.71735 
398 ,76.6755 ,1.51074 ,-0.36859 ,-3.61661 
399 ,76.8835 ,1.51280 ,-0.38912 ,-3.81808 
400 ,77.0757 ,1.51477 ,-0.38228 ,-3.75093 
401 ,77.2677 ,1.51666 ,-0.40623 ,-3.98597 
402 ,77.4755 ,1.51872 ,-0.40623 ,-3.98597 
403 ,77.6677 ,1.52060 ,-0.44388 ,-4.35534 
404 ,77.8437 ,1.52246 ,-0.43703 ,-4.28818 
405 ,78.0521 ,1.52450 ,-0.43703 ,-4.28818 
406 ,78.2600 ,1.52651 ,-0.45072 ,-4.42249 
407 ,78.4681 ,1.52854 ,-0.47810 ,-4.69112 
408 ,78.6602 ,1.53054 ,-0.47468 ,-4.65754 
409 ,78.8520 ,1.53255 ,-0.48837 ,-4.79185 
410 ,79.0444 ,1.53453 ,-0.49521 ,-4.85901 
411 ,79.2205 ,1.53629 ,-0.49521 ,-4.85901 
412 ,79.3966 ,1.53797 ,-0.50548 ,-4.95975 
413 ,79.5726 ,1.53982 ,-0.51917 ,-5.09406 
414 ,79.7647 ,1.54164 ,-0.53970 ,-5.29553 
415 ,79.9728 ,1.54374 ,-0.53628 ,-5.26195 
416 ,80.1649 ,1.54562 ,-0.55681 ,-5.46342 
417 ,80.3729 ,1.54771 ,-0.55681 ,-5.46342 
418 ,80.5651 ,1.54960 ,-0.57734 ,-5.66489 
419 ,80.7568 ,1.55152 ,-0.56708 ,-5.56415 
420 ,80.9491 ,1.55342 ,-0.59445 ,-5.83278 
421 ,81.1249 ,1.55526 ,-0.61841 ,-6.06783 
422 ,81.3172 ,1.55714 ,-0.59788 ,-5.86636 
423 ,81.5255 ,1.55922 ,-0.61499 ,-6.03425 
424 ,81.7174 ,1.56114 ,-0.60814 ,-5.96709 
425 ,81.9256 ,1.56317 ,-0.64236 ,-6.30288 
426 ,82.1176 ,1.56512 ,-0.63210 ,-6.20214 
427 ,82.3095 ,1.56703 ,-0.65605 ,-6.43719 
428 ,82.5174 ,1.56912 ,-0.65605 ,-6.43719 
429 ,82.7099 ,1.57103 ,-0.66974 ,-6.57150 
430 ,82.9178 ,1.57313 ,-0.68343 ,-6.70582 
431 ,83.1101 ,1.57502 ,-0.69712 ,-6.84013 
432 ,83.2856 ,1.57690 ,-0.69370 ,-6.80655 
433 ,83.4782 ,1.57869 ,-0.70396 ,-6.90729 
434 ,83.6863 ,1.58084 ,-0.71765 ,-7.04160 
435 ,83.8783 ,1.58273 ,-0.72450 ,-7.10876 
436 ,84.0863 ,1.58476 ,-0.73134 ,-7.17591 
437 ,84.2785 ,1.58674 ,-0.72792 ,-7.14233 
438 ,84.4704 ,1.58865 ,-0.74503 ,-7.31023 
439 ,84.6786 ,1.59070 ,-0.76214 ,-7.47812 
440 ,84.8707 ,1.59263 ,-0.75187 ,-7.37738 
441 ,85.0628 ,1.59462 ,-0.76898 ,-7.54527 
442 ,85.2548 ,1.59648 ,-0.77241 ,-7.57885 
443 ,85.4466 ,1.59836 ,-0.79978 ,-7.84748 
444 ,85.6391 ,1.60040 ,-0.80663 ,-7.91464 
445 ,85.8469 ,1.60241 ,-0.82032 ,-8.04895 
446 ,86.0233 ,1.60422 ,-0.81689 ,-8.01537 
447 ,86.2314 ,1.60623 ,-0.82374 ,-8.08253 
448 ,86.4234 ,1.60817 ,-0.84427 ,-8.28400 
449 ,86.6154 ,1.61005 ,-0.84427 ,-8.28400 
450 ,86.8074 ,1.61201 ,-0.85454 ,-8.38473 
451 ,86.9996 ,1.61398 ,-0.85454 ,-8.38473 
452 ,87.1919 ,1.61588 ,-0.85796 ,-8.41831 
453 ,87.3839 ,1.61779 ,-0.87849 ,-8.61978 
454 ,87.5918 ,1.61987 ,-0.88192 ,-8.65336 
455 ,87.7843 ,1.62181 ,-0.89218 ,-8.75409 
456 ,87.9921 ,1.62386 ,-0.89903 ,-8.82125 
457 ,88.1842 ,1.62579 ,-0.91272 ,-8.95556 
458 ,88.3761 ,1.62767 ,-0.91956 ,-9.02272 
459 ,88.5682 ,1.62956 ,-0.91956 ,-9.02272 
460 ,88.7439 ,1.63149 ,-0.94351 ,-9.25777 
461 ,88.9200 ,1.63319 ,-0.95378 ,-9.35850 
462 ,89.1121 ,1.63506 ,-0.94694 ,-9.29135 
463 ,89.3043 ,1.63698 ,-0.95720 ,-9.39208 
