Data stamp = , 28-04-2022 04:09:34 083

Calibration Values: 
Slope = , 26.54 , g/V 
Offset Voltage at no contact = , -0.501760 , V 

No , Time , Stage Position ,   Mass , Force 
   ,  (s) ,      (mm)      ,   (g)  , (mN)  

1 ,0.0000 ,0.74950 ,5.25403 ,51.55254 
2 ,0.2383 ,0.74959 ,5.27456 ,51.75401 
3 ,0.8308 ,0.75178 ,5.27798 ,51.78758 
4 ,1.0547 ,0.75464 ,5.27798 ,51.78758 
5 ,1.2629 ,0.75673 ,5.28483 ,51.85474 
6 ,1.4550 ,0.75877 ,5.27798 ,51.78758 
7 ,1.6307 ,0.76063 ,5.28141 ,51.82116 
8 ,1.8552 ,0.76277 ,5.24034 ,51.41822 
9 ,2.0632 ,0.76478 ,5.23350 ,51.35107 
10 ,2.2552 ,0.76670 ,5.21296 ,51.14960 
11 ,2.4795 ,0.76895 ,5.19243 ,50.94813 
12 ,2.6716 ,0.77090 ,5.19927 ,51.01528 
13 ,2.8634 ,0.77278 ,5.18559 ,50.88097 
14 ,3.0717 ,0.77488 ,5.16505 ,50.67950 
15 ,3.2636 ,0.77683 ,5.13768 ,50.41087 
16 ,3.4719 ,0.77889 ,5.12399 ,50.27656 
17 ,3.6639 ,0.78084 ,5.10688 ,50.10867 
18 ,3.8396 ,0.78269 ,5.07265 ,49.77289 
19 ,4.0321 ,0.78453 ,5.05554 ,49.60499 
20 ,4.2402 ,0.78661 ,5.04185 ,49.47068 
21 ,4.4323 ,0.78852 ,5.01790 ,49.23563 
22 ,4.6084 ,0.79033 ,5.00763 ,49.13490 
23 ,4.8325 ,0.79250 ,4.97683 ,48.83269 
24 ,5.0405 ,0.79454 ,4.95972 ,48.66480 
25 ,5.2325 ,0.79661 ,4.94603 ,48.53049 
26 ,5.4246 ,0.79843 ,4.92208 ,48.29544 
27 ,5.6167 ,0.80029 ,4.89812 ,48.06039 
28 ,5.8247 ,0.80238 ,4.89128 ,47.99324 
29 ,6.0005 ,0.80431 ,4.86390 ,47.72461 
30 ,6.1929 ,0.80612 ,4.83310 ,47.42240 
31 ,6.3689 ,0.80798 ,4.83310 ,47.42240 
32 ,6.5611 ,0.80977 ,4.81599 ,47.25451 
33 ,6.7532 ,0.81167 ,4.79546 ,47.05304 
34 ,6.9451 ,0.81361 ,4.78861 ,46.98589 
35 ,7.1368 ,0.81553 ,4.74755 ,46.58295 
36 ,7.3132 ,0.81734 ,4.72702 ,46.38148 
37 ,7.5215 ,0.81935 ,4.72359 ,46.34790 
38 ,7.6976 ,0.82123 ,4.70306 ,46.14643 
39 ,7.8896 ,0.82307 ,4.69279 ,46.04569 
40 ,8.0816 ,0.82498 ,4.66884 ,45.81065 
41 ,8.2577 ,0.82684 ,4.64488 ,45.57560 
42 ,8.4655 ,0.82875 ,4.63462 ,45.47486 
43 ,8.6581 ,0.83078 ,4.60382 ,45.17266 
44 ,8.8501 ,0.83267 ,4.59697 ,45.10550 
45 ,9.0420 ,0.83455 ,4.58328 ,44.97119 
46 ,9.2339 ,0.83646 ,4.54564 ,44.60183 
47 ,9.4263 ,0.83842 ,4.55933 ,44.73614 
48 ,9.6345 ,0.84054 ,4.52169 ,44.36678 
49 ,9.8266 ,0.84248 ,4.51826 ,44.33320 
50 ,10.0186 ,0.84435 ,4.48062 ,43.96384 
51 ,10.2267 ,0.84645 ,4.47035 ,43.86310 
52 ,10.4189 ,0.84837 ,4.43613 ,43.52732 
53 ,10.6108 ,0.85038 ,4.43271 ,43.49374 
54 ,10.8030 ,0.85222 ,4.41902 ,43.35943 
55 ,10.9949 ,0.85413 ,4.39164 ,43.09080 
56 ,11.1711 ,0.85592 ,4.37453 ,42.92291 
57 ,11.3787 ,0.85796 ,4.35400 ,42.72144 
58 ,11.5710 ,0.85986 ,4.33347 ,42.51997 
59 ,11.7793 ,0.86194 ,4.32320 ,42.41924 
60 ,11.9714 ,0.86388 ,4.29582 ,42.15061 
61 ,12.1632 ,0.86577 ,4.29240 ,42.11703 
62 ,12.3396 ,0.86762 ,4.27871 ,41.98272 
63 ,12.5312 ,0.86945 ,4.25133 ,41.71409 
64 ,12.7235 ,0.87141 ,4.24791 ,41.68051 
65 ,12.9317 ,0.87343 ,4.22738 ,41.47905 
66 ,13.1079 ,0.87526 ,4.20342 ,41.24400 
67 ,13.3159 ,0.87726 ,4.15551 ,40.77390 
68 ,13.5079 ,0.87921 ,4.16920 ,40.90821 
69 ,13.6998 ,0.88117 ,4.14183 ,40.63959 
70 ,13.8761 ,0.88294 ,4.11787 ,40.40454 
71 ,14.0683 ,0.88484 ,4.12129 ,40.43812 
72 ,14.2602 ,0.88675 ,4.08707 ,40.10233 
73 ,14.4523 ,0.88867 ,4.06996 ,39.93444 
74 ,14.6602 ,0.89080 ,4.04600 ,39.69940 
75 ,14.8844 ,0.89287 ,4.04258 ,39.66582 
76 ,15.0926 ,0.89509 ,4.00152 ,39.26288 
77 ,15.2844 ,0.89697 ,3.99467 ,39.19572 
78 ,15.4608 ,0.89880 ,3.98098 ,39.06141 
79 ,15.6528 ,0.90067 ,3.95018 ,38.75920 
80 ,15.8610 ,0.90275 ,3.93992 ,38.65847 
81 ,16.0688 ,0.90485 ,3.91938 ,38.45700 
82 ,16.2610 ,0.90675 ,3.90570 ,38.32268 
83 ,16.4688 ,0.90883 ,3.88174 ,38.08764 
84 ,16.6451 ,0.91062 ,3.87147 ,37.98690 
85 ,16.8529 ,0.91269 ,3.83383 ,37.61754 
86 ,17.0454 ,0.91460 ,3.83725 ,37.65112 
87 ,17.2533 ,0.91666 ,3.79276 ,37.21460 
88 ,17.4296 ,0.91846 ,3.79276 ,37.21460 
89 ,17.6377 ,0.92045 ,3.76539 ,36.94597 
90 ,17.8137 ,0.92233 ,3.74143 ,36.71093 
91 ,18.0053 ,0.92418 ,3.73459 ,36.64377 
92 ,18.1980 ,0.92610 ,3.69694 ,36.27441 
93 ,18.3895 ,0.92807 ,3.69694 ,36.27441 
94 ,18.5820 ,0.92992 ,3.68668 ,36.17367 
95 ,18.7739 ,0.93184 ,3.65246 ,35.83789 
96 ,18.9661 ,0.93377 ,3.64561 ,35.77073 
97 ,19.1580 ,0.93571 ,3.61823 ,35.50211 
98 ,19.3344 ,0.93756 ,3.59428 ,35.26706 
99 ,19.5262 ,0.93944 ,3.60454 ,35.36779 
100 ,19.7185 ,0.94136 ,3.56690 ,34.99843 
101 ,19.8946 ,0.94316 ,3.54637 ,34.79696 
102 ,20.0863 ,0.94511 ,3.53268 ,34.66265 
103 ,20.2784 ,0.94689 ,3.50872 ,34.42760 
104 ,20.4708 ,0.94890 ,3.49504 ,34.29329 
105 ,20.6627 ,0.95072 ,3.47450 ,34.09182 
106 ,20.8386 ,0.95257 ,3.47108 ,34.05824 
107 ,21.0151 ,0.95436 ,3.44370 ,33.78961 
108 ,21.2067 ,0.95624 ,3.43686 ,33.72246 
109 ,21.3987 ,0.95814 ,3.41633 ,33.52099 
110 ,21.5753 ,0.95990 ,3.39579 ,33.31952 
111 ,21.7829 ,0.96193 ,3.38210 ,33.18520 
112 ,21.9754 ,0.96390 ,3.33762 ,32.74869 
113 ,22.1835 ,0.96594 ,3.34446 ,32.81584 
114 ,22.3590 ,0.96783 ,3.31366 ,32.51364 
115 ,22.5357 ,0.96957 ,3.28971 ,32.27859 
116 ,22.7437 ,0.97153 ,3.28286 ,32.21143 
117 ,22.9359 ,0.97350 ,3.26233 ,32.00996 
118 ,23.1760 ,0.97582 ,3.23153 ,31.70776 
119 ,23.3677 ,0.97782 ,3.23837 ,31.77492 
120 ,23.5601 ,0.97973 ,3.21442 ,31.53987 
121 ,23.7840 ,0.98191 ,3.19046 ,31.30482 
122 ,23.9763 ,0.98389 ,3.16651 ,31.06977 
123 ,24.1842 ,0.98595 ,3.15624 ,30.96904 
124 ,24.3762 ,0.98786 ,3.13229 ,30.73399 
125 ,24.5523 ,0.98975 ,3.11518 ,30.56610 
126 ,24.7285 ,0.99149 ,3.09806 ,30.39821 
127 ,24.9206 ,0.99331 ,3.07411 ,30.16316 
128 ,25.1127 ,0.99522 ,3.06042 ,30.02884 
129 ,25.3205 ,0.99730 ,3.03647 ,29.79380 
130 ,25.5128 ,0.99926 ,3.02278 ,29.65948 
131 ,25.7046 ,1.00120 ,3.02278 ,29.65948 
132 ,25.8967 ,1.00309 ,2.98855 ,29.32370 
133 ,26.0888 ,1.00496 ,2.98855 ,29.32370 
134 ,26.2648 ,1.00681 ,2.95776 ,29.02150 
135 ,26.4572 ,1.00872 ,2.92696 ,28.71929 
136 ,26.6488 ,1.01060 ,2.92011 ,28.65213 
137 ,26.8410 ,1.01255 ,2.89273 ,28.38351 
138 ,27.0330 ,1.01443 ,2.86536 ,28.11488 
139 ,27.2256 ,1.01640 ,2.86878 ,28.14846 
140 ,27.4497 ,1.01857 ,2.86193 ,28.08130 
141 ,27.6739 ,1.02078 ,2.82087 ,27.67836 
142 ,27.8818 ,1.02290 ,2.81745 ,27.64479 
143 ,28.0740 ,1.02482 ,2.77638 ,27.24185 
144 ,28.2660 ,1.02672 ,2.79007 ,27.37616 
145 ,28.4581 ,1.02863 ,2.74558 ,26.93964 
146 ,28.6662 ,1.03065 ,2.73531 ,26.83891 
147 ,28.8579 ,1.03261 ,2.70794 ,26.57028 
148 ,29.0664 ,1.03466 ,2.70109 ,26.50312 
149 ,29.2584 ,1.03673 ,2.68056 ,26.30165 
150 ,29.4665 ,1.03873 ,2.67714 ,26.26807 
151 ,29.6586 ,1.04065 ,2.64976 ,25.99945 
152 ,29.8507 ,1.04260 ,2.62923 ,25.79798 
153 ,30.0425 ,1.04454 ,2.62923 ,25.79798 
154 ,30.2507 ,1.04657 ,2.59501 ,25.46220 
155 ,30.4424 ,1.04848 ,2.59501 ,25.46220 
156 ,30.6183 ,1.05037 ,2.56421 ,25.15999 
157 ,30.8110 ,1.05218 ,2.54710 ,24.99210 
158 ,31.0029 ,1.05409 ,2.53341 ,24.85779 
159 ,31.1952 ,1.05606 ,2.50603 ,24.58916 
160 ,31.4032 ,1.05813 ,2.50945 ,24.62274 
161 ,31.5952 ,1.06001 ,2.46496 ,24.18622 
162 ,31.7875 ,1.06192 ,2.46496 ,24.18622 
163 ,31.9795 ,1.06399 ,2.45127 ,24.05191 
164 ,32.1715 ,1.06575 ,2.43074 ,23.85044 
165 ,32.3477 ,1.06763 ,2.41021 ,23.64897 
166 ,32.5558 ,1.06960 ,2.38625 ,23.41392 
167 ,32.7637 ,1.07162 ,2.39310 ,23.48108 
168 ,32.9720 ,1.07378 ,2.36230 ,23.17887 
169 ,33.1636 ,1.07569 ,2.35203 ,23.07814 
170 ,33.3561 ,1.07764 ,2.33492 ,22.91024 
171 ,33.5641 ,1.07970 ,2.32465 ,22.80951 
172 ,33.7563 ,1.08162 ,2.29385 ,22.50731 
173 ,33.9481 ,1.08362 ,2.27332 ,22.30584 
174 ,34.1404 ,1.08551 ,2.26648 ,22.23868 
175 ,34.3483 ,1.08757 ,2.25621 ,22.13794 
176 ,34.5241 ,1.08936 ,2.24252 ,22.00363 
177 ,34.7483 ,1.09143 ,2.21172 ,21.70143 
178 ,34.9566 ,1.09350 ,2.20488 ,21.63427 
179 ,35.1488 ,1.09556 ,2.18777 ,21.46638 
180 ,35.3564 ,1.09770 ,2.16723 ,21.26491 
181 ,35.5489 ,1.09957 ,2.15012 ,21.09702 
182 ,35.7408 ,1.10148 ,2.14670 ,21.06344 
183 ,35.9328 ,1.10334 ,2.12275 ,20.82839 
184 ,36.1250 ,1.10531 ,2.10906 ,20.69408 
185 ,36.3015 ,1.10710 ,2.10221 ,20.62692 
186 ,36.4929 ,1.10910 ,2.06799 ,20.29114 
187 ,36.6850 ,1.11095 ,2.06115 ,20.22398 
188 ,36.8774 ,1.11287 ,2.05773 ,20.19040 
189 ,37.0851 ,1.11494 ,2.04061 ,20.02251 
190 ,37.2774 ,1.11682 ,2.01324 ,19.75388 
191 ,37.4856 ,1.11888 ,2.02008 ,19.82104 
192 ,37.6775 ,1.12083 ,1.97902 ,19.41810 
193 ,37.9022 ,1.12302 ,1.98586 ,19.48526 
194 ,38.0938 ,1.12509 ,1.96875 ,19.31737 
195 ,38.2700 ,1.12681 ,1.93795 ,19.01516 
196 ,38.4782 ,1.12886 ,1.93111 ,18.94801 
197 ,38.6697 ,1.13073 ,1.91399 ,18.78011 
198 ,38.8624 ,1.13271 ,1.90373 ,18.67938 
199 ,39.0543 ,1.13469 ,1.89004 ,18.54507 
200 ,39.2299 ,1.13646 ,1.88319 ,18.47791 
201 ,39.4064 ,1.13816 ,1.85924 ,18.24286 
202 ,39.5984 ,1.14001 ,1.84555 ,18.10855 
203 ,39.7743 ,1.14186 ,1.82502 ,17.90708 
204 ,39.9504 ,1.14363 ,1.83528 ,18.00781 
205 ,40.1588 ,1.14551 ,1.82160 ,17.87350 
206 ,40.3668 ,1.14774 ,1.78737 ,17.53772 
207 ,40.5425 ,1.14947 ,1.78053 ,17.47056 
208 ,40.7348 ,1.15138 ,1.74973 ,17.16836 
209 ,40.9111 ,1.15319 ,1.73604 ,17.03404 
210 ,41.1193 ,1.15522 ,1.71893 ,16.86615 
211 ,41.3113 ,1.15718 ,1.70866 ,16.76542 
212 ,41.5033 ,1.15906 ,1.71209 ,16.79899 
213 ,41.7115 ,1.16113 ,1.67786 ,16.46321 
214 ,41.9191 ,1.16325 ,1.68471 ,16.53037 
215 ,42.1116 ,1.16514 ,1.65049 ,16.19458 
216 ,42.3192 ,1.16724 ,1.64022 ,16.09385 
217 ,42.4956 ,1.16905 ,1.62995 ,15.99311 
218 ,42.6875 ,1.17088 ,1.62653 ,15.95954 
219 ,42.8798 ,1.17279 ,1.59916 ,15.69091 
220 ,43.0875 ,1.17492 ,1.58204 ,15.52302 
221 ,43.2800 ,1.17677 ,1.58547 ,15.55660 
222 ,43.4719 ,1.17875 ,1.55467 ,15.25439 
223 ,43.6642 ,1.18069 ,1.56493 ,15.35513 
224 ,43.8722 ,1.18281 ,1.51702 ,14.88503 
225 ,44.0800 ,1.18479 ,1.51360 ,14.85145 
226 ,44.2722 ,1.18676 ,1.49991 ,14.71714 
227 ,44.4802 ,1.18890 ,1.49649 ,14.68356 
228 ,44.6727 ,1.19075 ,1.48280 ,14.54925 
229 ,44.8647 ,1.19265 ,1.47253 ,14.44851 
230 ,45.0567 ,1.19455 ,1.44516 ,14.17989 
231 ,45.2489 ,1.19651 ,1.44174 ,14.14631 
232 ,45.4570 ,1.19861 ,1.42120 ,13.94484 
233 ,45.6651 ,1.20071 ,1.41778 ,13.91126 
234 ,45.8572 ,1.20259 ,1.39040 ,13.64263 
235 ,46.0492 ,1.20452 ,1.38014 ,13.54190 
236 ,46.2410 ,1.20645 ,1.37671 ,13.50832 
237 ,46.4333 ,1.20837 ,1.34591 ,13.20612 
238 ,46.6414 ,1.21043 ,1.34249 ,13.17254 
239 ,46.8176 ,1.21226 ,1.32880 ,13.03822 
240 ,47.0095 ,1.21426 ,1.33223 ,13.07180 
241 ,47.2019 ,1.21608 ,1.31854 ,12.93749 
242 ,47.3773 ,1.21793 ,1.27747 ,12.53455 
243 ,47.5698 ,1.21971 ,1.27747 ,12.53455 
244 ,47.7619 ,1.22161 ,1.27063 ,12.46739 
245 ,47.9537 ,1.22356 ,1.25694 ,12.33308 
246 ,48.1461 ,1.22544 ,1.25352 ,12.29950 
247 ,48.3381 ,1.22741 ,1.23641 ,12.13161 
248 ,48.5303 ,1.22930 ,1.21245 ,11.89656 
249 ,48.7383 ,1.23139 ,1.19876 ,11.76225 
250 ,48.9304 ,1.23333 ,1.18850 ,11.66151 
251 ,49.1385 ,1.23526 ,1.18507 ,11.62794 
252 ,49.3301 ,1.23730 ,1.16796 ,11.46004 
253 ,49.5226 ,1.23921 ,1.15770 ,11.35931 
254 ,49.7143 ,1.24118 ,1.13374 ,11.12426 
255 ,49.9228 ,1.24325 ,1.14058 ,11.19142 
256 ,50.1309 ,1.24531 ,1.12347 ,11.02353 
257 ,50.3225 ,1.24725 ,1.10979 ,10.88921 
258 ,50.5150 ,1.24914 ,1.08583 ,10.65416 
259 ,50.7229 ,1.25118 ,1.08583 ,10.65416 
260 ,50.9152 ,1.25312 ,1.04819 ,10.28480 
261 ,51.1073 ,1.25506 ,1.05845 ,10.38554 
262 ,51.3154 ,1.25710 ,1.02765 ,10.08333 
263 ,51.5075 ,1.25910 ,1.02765 ,10.08333 
264 ,51.7151 ,1.26116 ,1.00028 ,9.81471 
265 ,51.9075 ,1.26313 ,0.99001 ,9.71397 
266 ,52.1156 ,1.26513 ,0.98317 ,9.64682 
267 ,52.3077 ,1.26705 ,0.98317 ,9.64682 
268 ,52.4998 ,1.26895 ,0.95921 ,9.41177 
269 ,52.6917 ,1.27092 ,0.94210 ,9.24388 
270 ,52.8676 ,1.27280 ,0.94552 ,9.27745 
271 ,53.0599 ,1.27462 ,0.94210 ,9.24388 
272 ,53.2682 ,1.27664 ,0.92157 ,9.04241 
273 ,53.4600 ,1.27857 ,0.90788 ,8.90809 
274 ,53.6362 ,1.28043 ,0.88050 ,8.63947 
275 ,53.8284 ,1.28226 ,0.87023 ,8.53873 
276 ,54.0202 ,1.28422 ,0.88392 ,8.67305 
277 ,54.2125 ,1.28619 ,0.84970 ,8.33726 
278 ,54.4206 ,1.28819 ,0.84628 ,8.30368 
279 ,54.6125 ,1.29007 ,0.82232 ,8.06864 
280 ,54.8049 ,1.29207 ,0.82575 ,8.10221 
281 ,54.9965 ,1.29396 ,0.80863 ,7.93432 
282 ,55.1887 ,1.29585 ,0.79152 ,7.76643 
283 ,55.3969 ,1.29798 ,0.78468 ,7.69927 
284 ,55.5730 ,1.29978 ,0.77099 ,7.56496 
285 ,55.7810 ,1.30179 ,0.77441 ,7.59854 
286 ,55.9893 ,1.30389 ,0.75388 ,7.39707 
287 ,56.1813 ,1.30577 ,0.75388 ,7.39707 
288 ,56.3414 ,1.30756 ,0.72308 ,7.09486 
289 ,56.5175 ,1.30921 ,0.71281 ,6.99413 
290 ,56.6936 ,1.31101 ,0.70939 ,6.96055 
291 ,56.8855 ,1.31278 ,0.71624 ,7.02771 
292 ,57.0778 ,1.31476 ,0.66148 ,6.49046 
293 ,57.2858 ,1.31681 ,0.68201 ,6.69193 
294 ,57.4939 ,1.31891 ,0.65806 ,6.45688 
295 ,57.6859 ,1.32087 ,0.65464 ,6.42330 
296 ,57.8781 ,1.32270 ,0.62726 ,6.15467 
297 ,58.0702 ,1.32463 ,0.63068 ,6.18825 
298 ,58.2619 ,1.32658 ,0.62384 ,6.12109 
299 ,58.4544 ,1.32853 ,0.60673 ,5.95320 
300 ,58.6625 ,1.33060 ,0.58962 ,5.78531 
301 ,58.8544 ,1.33256 ,0.57935 ,5.68458 
302 ,59.0466 ,1.33454 ,0.57935 ,5.68458 
303 ,59.2224 ,1.33624 ,0.54855 ,5.38237 
304 ,59.3988 ,1.33804 ,0.55539 ,5.44953 
305 ,59.5905 ,1.33995 ,0.52459 ,5.14732 
306 ,59.7824 ,1.34175 ,0.53828 ,5.28164 
307 ,59.9590 ,1.34363 ,0.51775 ,5.08017 
308 ,60.1671 ,1.34560 ,0.51775 ,5.08017 
309 ,60.3592 ,1.34757 ,0.49380 ,4.84512 
310 ,60.5512 ,1.34951 ,0.47668 ,4.67723 
311 ,60.7431 ,1.35139 ,0.47668 ,4.67723 
312 ,60.9191 ,1.35322 ,0.46642 ,4.57649 
313 ,61.1275 ,1.35529 ,0.44588 ,4.37502 
314 ,61.3355 ,1.35733 ,0.42535 ,4.17355 
315 ,61.5273 ,1.35924 ,0.44588 ,4.37502 
316 ,61.7194 ,1.36118 ,0.42877 ,4.20713 
317 ,61.9118 ,1.36309 ,0.39455 ,3.87135 
318 ,62.0878 ,1.36496 ,0.40140 ,3.93850 
319 ,62.2799 ,1.36675 ,0.38429 ,3.77061 
320 ,62.4720 ,1.36870 ,0.36375 ,3.56914 
321 ,62.6637 ,1.37057 ,0.37744 ,3.70346 
322 ,62.8560 ,1.37246 ,0.34664 ,3.40125 
323 ,63.0478 ,1.37445 ,0.33980 ,3.33410 
324 ,63.2404 ,1.37633 ,0.32953 ,3.23336 
325 ,63.4324 ,1.37826 ,0.30215 ,2.96473 
326 ,63.6243 ,1.38016 ,0.32611 ,3.19978 
327 ,63.8165 ,1.38213 ,0.28504 ,2.79684 
328 ,64.0241 ,1.38415 ,0.30558 ,2.99831 
329 ,64.2167 ,1.38614 ,0.26793 ,2.62895 
330 ,64.4248 ,1.38815 ,0.26793 ,2.62895 
331 ,64.6009 ,1.39007 ,0.25424 ,2.49464 
332 ,64.8085 ,1.39198 ,0.23713 ,2.32675 
333 ,64.9846 ,1.39396 ,0.24398 ,2.39390 
334 ,65.1767 ,1.39571 ,0.23371 ,2.29317 
335 ,65.3688 ,1.39762 ,0.20976 ,2.05812 
336 ,65.5609 ,1.39950 ,0.21318 ,2.09170 
337 ,65.7529 ,1.40143 ,0.17896 ,1.75592 
338 ,65.9289 ,1.40333 ,0.18580 ,1.82307 
339 ,66.1211 ,1.40511 ,0.18238 ,1.78949 
340 ,66.2973 ,1.40704 ,0.15500 ,1.52087 
341 ,66.4893 ,1.40882 ,0.15158 ,1.48729 
342 ,66.6813 ,1.41072 ,0.15158 ,1.48729 
343 ,66.8574 ,1.41262 ,0.11393 ,1.11793 
344 ,67.0494 ,1.41441 ,0.11736 ,1.15151 
345 ,67.2416 ,1.41631 ,0.12420 ,1.21866 
346 ,67.4175 ,1.41823 ,0.09682 ,0.95004 
347 ,67.6097 ,1.42001 ,0.08656 ,0.84930 
348 ,67.8018 ,1.42196 ,0.08998 ,0.88288 
349 ,67.9940 ,1.42389 ,0.06945 ,0.68141 
350 ,68.1858 ,1.42580 ,0.05234 ,0.51352 
351 ,68.3779 ,1.42768 ,0.05576 ,0.54710 
352 ,68.5539 ,1.42957 ,0.03522 ,0.34563 
353 ,68.7622 ,1.43149 ,0.03865 ,0.37920 
354 ,68.9381 ,1.43342 ,0.01469 ,0.14416 
355 ,69.1304 ,1.43520 ,0.01127 ,0.11058 
356 ,69.3224 ,1.43714 ,0.02154 ,0.21131 
357 ,69.4986 ,1.43902 ,-0.00242 ,-0.02373 
358 ,69.6908 ,1.44084 ,-0.02295 ,-0.22520 
359 ,69.8829 ,1.44282 ,-0.01953 ,-0.19163 
360 ,70.1070 ,1.44490 ,-0.04348 ,-0.42667 
361 ,70.2991 ,1.44693 ,-0.03322 ,-0.32594 
362 ,70.4908 ,1.44884 ,-0.05717 ,-0.56099 
363 ,70.6673 ,1.45066 ,-0.07771 ,-0.76246 
364 ,70.8593 ,1.45257 ,-0.07428 ,-0.72888 
365 ,71.0674 ,1.45461 ,-0.09482 ,-0.93035 
366 ,71.2593 ,1.45648 ,-0.09140 ,-0.89677 
367 ,71.4516 ,1.45847 ,-0.10851 ,-1.06466 
368 ,71.6596 ,1.46054 ,-0.11193 ,-1.09824 
369 ,71.8516 ,1.46245 ,-0.13246 ,-1.29971 
370 ,72.0438 ,1.46433 ,-0.10851 ,-1.06466 
371 ,72.2358 ,1.46627 ,-0.13588 ,-1.33329 
372 ,72.4115 ,1.46814 ,-0.15984 ,-1.56834 
373 ,72.5880 ,1.46984 ,-0.17353 ,-1.70265 
374 ,72.7800 ,1.47183 ,-0.18037 ,-1.76981 
375 ,72.9562 ,1.47359 ,-0.18722 ,-1.83696 
376 ,73.1482 ,1.47541 ,-0.19406 ,-1.90412 
377 ,73.3403 ,1.47736 ,-0.18722 ,-1.83696 
378 ,73.5322 ,1.47922 ,-0.22144 ,-2.17275 
379 ,73.7400 ,1.48131 ,-0.20775 ,-2.03843 
380 ,73.9485 ,1.48334 ,-0.23513 ,-2.30706 
381 ,74.1407 ,1.48534 ,-0.24197 ,-2.37422 
382 ,74.3323 ,1.48722 ,-0.26593 ,-2.60926 
383 ,74.5246 ,1.48911 ,-0.25224 ,-2.47495 
384 ,74.7166 ,1.49115 ,-0.26593 ,-2.60926 
385 ,74.9250 ,1.49315 ,-0.27961 ,-2.74358 
386 ,75.1171 ,1.49512 ,-0.27961 ,-2.74358 
387 ,75.3087 ,1.49708 ,-0.28304 ,-2.77716 
388 ,75.5008 ,1.49892 ,-0.30699 ,-3.01220 
389 ,75.6768 ,1.50079 ,-0.32410 ,-3.18010 
390 ,75.8690 ,1.50259 ,-0.33779 ,-3.31441 
391 ,76.0610 ,1.50447 ,-0.32410 ,-3.18010 
392 ,76.2535 ,1.50643 ,-0.34464 ,-3.38156 
393 ,76.4616 ,1.50851 ,-0.33779 ,-3.31441 
394 ,76.6535 ,1.51041 ,-0.36175 ,-3.54946 
395 ,76.8298 ,1.51227 ,-0.36859 ,-3.61661 
396 ,77.0218 ,1.51409 ,-0.36517 ,-3.58303 
397 ,77.2300 ,1.51619 ,-0.39939 ,-3.91882 
398 ,77.4217 ,1.51810 ,-0.39597 ,-3.88524 
399 ,77.6140 ,1.51998 ,-0.39597 ,-3.88524 
400 ,77.8059 ,1.52192 ,-0.41650 ,-4.08671 
401 ,77.9984 ,1.52390 ,-0.42335 ,-4.15387 
402 ,78.2060 ,1.52592 ,-0.43361 ,-4.25460 
403 ,78.3986 ,1.52788 ,-0.44388 ,-4.35534 
404 ,78.6067 ,1.52991 ,-0.45072 ,-4.42249 
405 ,78.7987 ,1.53194 ,-0.45757 ,-4.48965 
406 ,78.9903 ,1.53382 ,-0.48152 ,-4.72470 
407 ,79.1668 ,1.53561 ,-0.49179 ,-4.82543 
408 ,79.3746 ,1.53762 ,-0.48837 ,-4.79185 
409 ,79.5665 ,1.53957 ,-0.50206 ,-4.92617 
410 ,79.7424 ,1.54137 ,-0.50548 ,-4.95975 
411 ,79.9511 ,1.54342 ,-0.52601 ,-5.16121 
412 ,80.1592 ,1.54550 ,-0.52259 ,-5.12764 
413 ,80.3673 ,1.54752 ,-0.53285 ,-5.22837 
414 ,80.5753 ,1.54953 ,-0.53970 ,-5.29553 
415 ,80.7675 ,1.55150 ,-0.56023 ,-5.49700 
416 ,80.9593 ,1.55349 ,-0.55681 ,-5.46342 
417 ,81.1514 ,1.55534 ,-0.58077 ,-5.69847 
418 ,81.3435 ,1.55731 ,-0.57050 ,-5.59773 
419 ,81.5196 ,1.55913 ,-0.57392 ,-5.63131 
420 ,81.7119 ,1.56098 ,-0.61841 ,-6.06783 
421 ,81.9198 ,1.56308 ,-0.60472 ,-5.93352 
422 ,82.1115 ,1.56495 ,-0.62868 ,-6.16856 
423 ,82.2881 ,1.56681 ,-0.63894 ,-6.26930 
424 ,82.4963 ,1.56885 ,-0.64236 ,-6.30288 
425 ,82.7040 ,1.57091 ,-0.62525 ,-6.13499 
426 ,82.8799 ,1.57280 ,-0.65947 ,-6.47077 
427 ,83.0724 ,1.57460 ,-0.66632 ,-6.53793 
428 ,83.2799 ,1.57661 ,-0.66290 ,-6.50435 
429 ,83.4724 ,1.57856 ,-0.69027 ,-6.77297 
430 ,83.6646 ,1.58053 ,-0.68001 ,-6.67224 
431 ,83.8566 ,1.58248 ,-0.69712 ,-6.84013 
432 ,84.0486 ,1.58436 ,-0.71423 ,-7.00802 
433 ,84.2248 ,1.58616 ,-0.71765 ,-7.04160 
434 ,84.4328 ,1.58823 ,-0.73476 ,-7.20949 
435 ,84.6569 ,1.59031 ,-0.72450 ,-7.10876 
436 ,84.8491 ,1.59231 ,-0.73818 ,-7.24307 
437 ,85.0571 ,1.59439 ,-0.74161 ,-7.27665 
438 ,85.2492 ,1.59636 ,-0.76898 ,-7.54527 
439 ,85.4408 ,1.59827 ,-0.76214 ,-7.47812 
440 ,85.6329 ,1.60015 ,-0.77925 ,-7.64601 
441 ,85.8250 ,1.60206 ,-0.78610 ,-7.71317 
442 ,86.0170 ,1.60407 ,-0.78952 ,-7.74674 
443 ,86.2093 ,1.60594 ,-0.81689 ,-8.01537 
444 ,86.4017 ,1.60784 ,-0.81347 ,-7.98179 
445 ,86.6097 ,1.60997 ,-0.83058 ,-8.14968 
446 ,86.8020 ,1.61188 ,-0.83401 ,-8.18326 
447 ,86.9939 ,1.61381 ,-0.84085 ,-8.25042 
448 ,87.2017 ,1.61585 ,-0.83401 ,-8.18326 
449 ,87.4095 ,1.61799 ,-0.86138 ,-8.45189 
450 ,87.6016 ,1.61985 ,-0.86138 ,-8.45189 
451 ,87.8102 ,1.62184 ,-0.87165 ,-8.55262 
452 ,88.0183 ,1.62402 ,-0.88876 ,-8.72051 
453 ,88.2103 ,1.62595 ,-0.89903 ,-8.82125 
454 ,88.4024 ,1.62792 ,-0.89560 ,-8.78767 
455 ,88.5945 ,1.62978 ,-0.91956 ,-9.02272 
456 ,88.7706 ,1.63169 ,-0.92298 ,-9.05630 
457 ,88.9467 ,1.63334 ,-0.94009 ,-9.22419 
458 ,89.1388 ,1.63528 ,-0.92298 ,-9.05630 
459 ,89.3310 ,1.63714 ,-0.95036 ,-9.32492 
460 ,89.5550 ,1.63930 ,-0.93325 ,-9.15703 
461 ,89.7467 ,1.64135 ,-0.95378 ,-9.35850 
462 ,89.9392 ,1.64325 ,-0.96747 ,-9.49282 
463 ,90.1472 ,1.64526 ,-0.98116 ,-9.62713 
