Data stamp = , 28-04-2022 09:36:43 901

Calibration Values: 
Slope = , 26.54 , g/V 
Offset Voltage at no contact = , -0.501760 , V 

No , Time , Stage Position ,   Mass , Force 
   ,  (s) ,      (mm)      ,   (g)  , (mN)  

1 ,0.0000 ,0.74936 ,5.29852 ,51.98905 
2 ,0.3039 ,0.74958 ,5.28825 ,51.88832 
3 ,0.6858 ,0.75096 ,5.29167 ,51.92190 
4 ,0.8937 ,0.75305 ,5.28141 ,51.82116 
5 ,1.0858 ,0.75493 ,5.28825 ,51.88832 
6 ,1.2780 ,0.75679 ,5.30536 ,52.05621 
7 ,1.4862 ,0.75886 ,5.30194 ,52.02263 
8 ,1.6783 ,0.76079 ,5.28141 ,51.82116 
9 ,1.8860 ,0.76293 ,5.26087 ,51.61969 
10 ,2.0785 ,0.76479 ,5.24718 ,51.48538 
11 ,2.2706 ,0.76679 ,5.21639 ,51.18317 
12 ,2.4627 ,0.76873 ,5.22323 ,51.25033 
13 ,2.6547 ,0.77065 ,5.19585 ,50.98170 
14 ,2.8467 ,0.77252 ,5.17532 ,50.78023 
15 ,3.0388 ,0.77438 ,5.16163 ,50.64592 
16 ,3.2469 ,0.77653 ,5.13425 ,50.37729 
17 ,3.4545 ,0.77863 ,5.10688 ,50.10867 
18 ,3.6311 ,0.78043 ,5.09319 ,49.97436 
19 ,3.8230 ,0.78228 ,5.08634 ,49.90720 
20 ,4.0151 ,0.78415 ,5.05554 ,49.60499 
21 ,4.2074 ,0.78613 ,5.03843 ,49.43710 
22 ,4.4160 ,0.78822 ,5.02474 ,49.30279 
23 ,4.6073 ,0.79013 ,4.99394 ,49.00058 
24 ,4.8155 ,0.79207 ,4.98710 ,48.93343 
25 ,4.9915 ,0.79397 ,4.95630 ,48.63122 
26 ,5.1998 ,0.79600 ,4.94946 ,48.56407 
27 ,5.3917 ,0.79790 ,4.90155 ,48.09397 
28 ,5.5678 ,0.79982 ,4.91181 ,48.19471 
29 ,5.7597 ,0.80158 ,4.89470 ,48.02681 
30 ,5.9521 ,0.80355 ,4.86048 ,47.69103 
31 ,6.1442 ,0.80550 ,4.84679 ,47.55672 
32 ,6.3520 ,0.80753 ,4.81599 ,47.25451 
33 ,6.5441 ,0.80950 ,4.81599 ,47.25451 
34 ,6.7365 ,0.81144 ,4.80230 ,47.12020 
35 ,6.9443 ,0.81346 ,4.76808 ,46.78442 
36 ,7.1524 ,0.81544 ,4.75782 ,46.68368 
37 ,7.3282 ,0.81743 ,4.74070 ,46.51579 
38 ,7.5205 ,0.81922 ,4.72359 ,46.34790 
39 ,7.7286 ,0.82136 ,4.68253 ,45.94496 
40 ,7.9368 ,0.82342 ,4.69279 ,46.04569 
41 ,8.1290 ,0.82531 ,4.64488 ,45.57560 
42 ,8.3207 ,0.82725 ,4.64146 ,45.54202 
43 ,8.4967 ,0.82909 ,4.61066 ,45.23981 
44 ,8.6892 ,0.83092 ,4.59013 ,45.03835 
45 ,8.8971 ,0.83298 ,4.58671 ,45.00477 
46 ,9.0734 ,0.83480 ,4.55933 ,44.73614 
47 ,9.2651 ,0.83670 ,4.54222 ,44.56825 
48 ,9.4571 ,0.83862 ,4.54564 ,44.60183 
49 ,9.6655 ,0.84057 ,4.50800 ,44.23247 
50 ,9.8737 ,0.84273 ,4.50115 ,44.16531 
51 ,10.0817 ,0.84480 ,4.48404 ,43.99742 
52 ,10.2738 ,0.84672 ,4.43955 ,43.56090 
53 ,10.4819 ,0.84881 ,4.44640 ,43.62806 
54 ,10.6900 ,0.85086 ,4.43271 ,43.49374 
55 ,10.8819 ,0.85287 ,4.39849 ,43.15796 
56 ,11.0743 ,0.85475 ,4.38138 ,42.99007 
57 ,11.2662 ,0.85669 ,4.35742 ,42.75502 
58 ,11.4422 ,0.85847 ,4.34716 ,42.65429 
59 ,11.6340 ,0.86032 ,4.32320 ,42.41924 
60 ,11.8265 ,0.86232 ,4.29582 ,42.15061 
61 ,12.0346 ,0.86435 ,4.29240 ,42.11703 
62 ,12.2263 ,0.86627 ,4.26160 ,41.81483 
63 ,12.4346 ,0.86834 ,4.25818 ,41.78125 
64 ,12.6268 ,0.87026 ,4.24107 ,41.61336 
65 ,12.8189 ,0.87219 ,4.22738 ,41.47905 
66 ,13.0270 ,0.87431 ,4.20342 ,41.24400 
67 ,13.2190 ,0.87633 ,4.18289 ,41.04253 
68 ,13.3950 ,0.87805 ,4.17262 ,40.94179 
69 ,13.6031 ,0.88006 ,4.14867 ,40.70674 
70 ,13.7948 ,0.88192 ,4.13498 ,40.57243 
71 ,13.9874 ,0.88393 ,4.10076 ,40.23665 
72 ,14.1954 ,0.88595 ,4.09391 ,40.16949 
73 ,14.3875 ,0.88788 ,4.06654 ,39.90087 
74 ,14.5796 ,0.88984 ,4.05627 ,39.80013 
75 ,14.7715 ,0.89173 ,4.02889 ,39.53150 
76 ,14.9796 ,0.89379 ,4.01520 ,39.39719 
77 ,15.1718 ,0.89571 ,3.99809 ,39.22930 
78 ,15.3638 ,0.89764 ,3.96729 ,38.92709 
79 ,15.5718 ,0.89969 ,3.95703 ,38.82636 
80 ,15.7640 ,0.90167 ,3.93650 ,38.62489 
81 ,15.9716 ,0.90366 ,3.91596 ,38.42342 
82 ,16.1477 ,0.90561 ,3.90227 ,38.28911 
83 ,16.3237 ,0.90731 ,3.89201 ,38.18837 
84 ,16.5161 ,0.90915 ,3.88858 ,38.15479 
85 ,16.7082 ,0.91106 ,3.84752 ,37.75185 
86 ,16.9003 ,0.91298 ,3.84752 ,37.75185 
87 ,17.1084 ,0.91513 ,3.80303 ,37.31534 
88 ,17.3004 ,0.91693 ,3.80645 ,37.34891 
89 ,17.4926 ,0.91887 ,3.79276 ,37.21460 
90 ,17.7002 ,0.92102 ,3.75854 ,36.87882 
91 ,17.8927 ,0.92285 ,3.75170 ,36.81166 
92 ,18.0846 ,0.92488 ,3.72432 ,36.54303 
93 ,18.2768 ,0.92674 ,3.72774 ,36.57661 
94 ,18.4849 ,0.92884 ,3.68668 ,36.17367 
95 ,18.6610 ,0.93068 ,3.66272 ,35.93863 
96 ,18.8691 ,0.93266 ,3.64561 ,35.77073 
97 ,19.0451 ,0.93448 ,3.63192 ,35.63642 
98 ,19.2208 ,0.93629 ,3.62850 ,35.60284 
99 ,19.4140 ,0.93816 ,3.60454 ,35.36779 
100 ,19.6213 ,0.94015 ,3.58743 ,35.19990 
101 ,19.8134 ,0.94212 ,3.57032 ,35.03201 
102 ,20.0056 ,0.94403 ,3.53610 ,34.69623 
103 ,20.2138 ,0.94601 ,3.53952 ,34.72981 
104 ,20.4057 ,0.94805 ,3.50188 ,34.36045 
105 ,20.6139 ,0.95001 ,3.49846 ,34.32687 
106 ,20.8059 ,0.95203 ,3.46081 ,33.95751 
107 ,21.0141 ,0.95400 ,3.47108 ,34.05824 
108 ,21.2061 ,0.95605 ,3.43344 ,33.68888 
109 ,21.3977 ,0.95807 ,3.43001 ,33.65530 
110 ,21.5902 ,0.95987 ,3.39579 ,33.31952 
111 ,21.7662 ,0.96177 ,3.37526 ,33.11805 
112 ,21.9583 ,0.96355 ,3.37526 ,33.11805 
113 ,22.1664 ,0.96560 ,3.34104 ,32.78227 
114 ,22.3585 ,0.96754 ,3.33419 ,32.71511 
115 ,22.5505 ,0.96949 ,3.32051 ,32.58080 
116 ,22.7426 ,0.97140 ,3.28628 ,32.24501 
117 ,22.9187 ,0.97320 ,3.27944 ,32.17786 
118 ,23.1110 ,0.97506 ,3.26233 ,32.00996 
119 ,23.3189 ,0.97704 ,3.23495 ,31.74134 
120 ,23.5107 ,0.97905 ,3.21100 ,31.50629 
121 ,23.7189 ,0.98104 ,3.19046 ,31.30482 
122 ,23.9271 ,0.98322 ,3.16651 ,31.06977 
123 ,24.1353 ,0.98531 ,3.17335 ,31.13693 
124 ,24.3272 ,0.98728 ,3.13913 ,30.80115 
125 ,24.5195 ,0.98910 ,3.12202 ,30.63325 
126 ,24.7274 ,0.99125 ,3.11518 ,30.56610 
127 ,24.9196 ,0.99319 ,3.08438 ,30.26389 
128 ,25.1116 ,0.99510 ,3.07753 ,30.19674 
129 ,25.3038 ,0.99698 ,3.05358 ,29.96169 
130 ,25.5121 ,0.99905 ,3.05015 ,29.92811 
131 ,25.7036 ,1.00099 ,3.00224 ,29.45801 
132 ,25.9120 ,1.00297 ,3.00909 ,29.52517 
133 ,26.1042 ,1.00504 ,2.98171 ,29.25654 
134 ,26.2962 ,1.00692 ,2.96460 ,29.08865 
135 ,26.4721 ,1.00872 ,2.95776 ,29.02150 
136 ,26.6643 ,1.01061 ,2.93380 ,28.78645 
137 ,26.8400 ,1.01246 ,2.91327 ,28.58498 
138 ,27.0325 ,1.01427 ,2.91327 ,28.58498 
139 ,27.2246 ,1.01628 ,2.88589 ,28.31635 
140 ,27.4325 ,1.01826 ,2.86536 ,28.11488 
141 ,27.6086 ,1.02010 ,2.85167 ,27.98057 
142 ,27.8006 ,1.02195 ,2.83456 ,27.81268 
143 ,27.9928 ,1.02386 ,2.80718 ,27.54405 
144 ,28.2006 ,1.02594 ,2.77980 ,27.27542 
145 ,28.4089 ,1.02804 ,2.78665 ,27.34258 
146 ,28.6007 ,1.02994 ,2.74900 ,26.97322 
147 ,28.7771 ,1.03182 ,2.74216 ,26.90606 
148 ,28.9847 ,1.03380 ,2.70794 ,26.57028 
149 ,29.1774 ,1.03571 ,2.69425 ,26.43597 
150 ,29.3694 ,1.03768 ,2.70794 ,26.57028 
151 ,29.5776 ,1.03959 ,2.66003 ,26.10018 
152 ,29.7696 ,1.04164 ,2.66345 ,26.13376 
153 ,29.9616 ,1.04357 ,2.62923 ,25.79798 
154 ,30.1375 ,1.04545 ,2.61896 ,25.69724 
155 ,30.3138 ,1.04718 ,2.61212 ,25.63009 
156 ,30.5061 ,1.04900 ,2.58132 ,25.32788 
157 ,30.7139 ,1.05096 ,2.56763 ,25.19357 
158 ,30.9063 ,1.05298 ,2.54367 ,24.95852 
159 ,31.1137 ,1.05505 ,2.55052 ,25.02568 
160 ,31.3064 ,1.05705 ,2.52314 ,24.75705 
161 ,31.5143 ,1.05916 ,2.50603 ,24.58916 
162 ,31.7065 ,1.06101 ,2.48892 ,24.42127 
163 ,31.9150 ,1.06308 ,2.47523 ,24.28696 
164 ,32.1226 ,1.06512 ,2.43416 ,23.88402 
165 ,32.3146 ,1.06709 ,2.43759 ,23.91759 
166 ,32.5228 ,1.06918 ,2.42048 ,23.74970 
167 ,32.7149 ,1.07116 ,2.39310 ,23.48108 
168 ,32.9068 ,1.07302 ,2.38625 ,23.41392 
169 ,33.0990 ,1.07489 ,2.36914 ,23.24603 
170 ,33.2905 ,1.07684 ,2.36572 ,23.21245 
171 ,33.4831 ,1.07874 ,2.33150 ,22.87667 
172 ,33.6908 ,1.08084 ,2.33150 ,22.87667 
173 ,33.8673 ,1.08270 ,2.30412 ,22.60804 
174 ,34.0434 ,1.08436 ,2.28359 ,22.40657 
175 ,34.2511 ,1.08646 ,2.27332 ,22.30584 
176 ,34.4270 ,1.08827 ,2.26648 ,22.23868 
177 ,34.6193 ,1.09009 ,2.23910 ,21.97005 
178 ,34.7957 ,1.09194 ,2.22541 ,21.83574 
179 ,34.9878 ,1.09379 ,2.23226 ,21.90290 
180 ,35.1957 ,1.09586 ,2.20146 ,21.60069 
181 ,35.3879 ,1.09780 ,2.19119 ,21.49996 
182 ,35.5798 ,1.09976 ,2.15697 ,21.16417 
183 ,35.7719 ,1.10165 ,2.15012 ,21.09702 
184 ,35.9642 ,1.10352 ,2.13986 ,20.99628 
185 ,36.1722 ,1.10563 ,2.10906 ,20.69408 
186 ,36.3802 ,1.10771 ,2.09537 ,20.55976 
187 ,36.5879 ,1.10978 ,2.09879 ,20.59334 
188 ,36.7804 ,1.11172 ,2.05773 ,20.19040 
189 ,36.9885 ,1.11381 ,2.05088 ,20.12325 
190 ,37.1803 ,1.11572 ,2.03035 ,19.92178 
191 ,37.3727 ,1.11767 ,2.03035 ,19.92178 
192 ,37.5648 ,1.11952 ,2.01666 ,19.78746 
193 ,37.8049 ,1.12184 ,1.99270 ,19.55241 
194 ,38.0126 ,1.12402 ,1.97559 ,19.38452 
195 ,38.1889 ,1.12589 ,1.96533 ,19.28379 
196 ,38.3652 ,1.12761 ,1.96533 ,19.28379 
197 ,38.5572 ,1.12947 ,1.93453 ,18.98158 
198 ,38.7648 ,1.13154 ,1.93795 ,19.01516 
199 ,38.9413 ,1.13344 ,1.90715 ,18.71296 
200 ,39.1176 ,1.13514 ,1.89004 ,18.54507 
201 ,39.3095 ,1.13704 ,1.87293 ,18.37717 
202 ,39.5014 ,1.13889 ,1.87293 ,18.37717 
203 ,39.6936 ,1.14081 ,1.85582 ,18.20928 
204 ,39.8856 ,1.14277 ,1.85582 ,18.20928 
205 ,40.0617 ,1.14457 ,1.83871 ,18.04139 
206 ,40.2216 ,1.14631 ,1.80449 ,17.70561 
207 ,40.4139 ,1.14810 ,1.79764 ,17.63845 
208 ,40.6220 ,1.15011 ,1.78395 ,17.50414 
209 ,40.8142 ,1.15199 ,1.77026 ,17.36983 
210 ,41.0220 ,1.15419 ,1.76684 ,17.33625 
211 ,41.2303 ,1.15621 ,1.74973 ,17.16836 
212 ,41.4220 ,1.15813 ,1.73946 ,17.06762 
213 ,41.6145 ,1.16007 ,1.70866 ,16.76542 
214 ,41.8225 ,1.16202 ,1.70866 ,16.76542 
215 ,42.0305 ,1.16421 ,1.68129 ,16.49679 
216 ,42.2066 ,1.16604 ,1.67786 ,16.46321 
217 ,42.3987 ,1.16788 ,1.65733 ,16.26174 
218 ,42.6069 ,1.16991 ,1.65049 ,16.19458 
219 ,42.7989 ,1.17189 ,1.63680 ,16.06027 
220 ,42.9906 ,1.17377 ,1.62311 ,15.92596 
221 ,43.1831 ,1.17574 ,1.61969 ,15.89238 
222 ,43.3911 ,1.17776 ,1.59573 ,15.65733 
223 ,43.5832 ,1.17972 ,1.58889 ,15.59018 
224 ,43.8073 ,1.18190 ,1.56493 ,15.35513 
225 ,44.0153 ,1.18403 ,1.54782 ,15.18724 
226 ,44.1914 ,1.18584 ,1.52387 ,14.95219 
227 ,44.3831 ,1.18769 ,1.53413 ,15.05292 
228 ,44.5596 ,1.18953 ,1.53413 ,15.05292 
229 ,44.7517 ,1.19141 ,1.48622 ,14.58283 
230 ,44.9598 ,1.19352 ,1.49991 ,14.71714 
231 ,45.1835 ,1.19560 ,1.48280 ,14.54925 
232 ,45.3760 ,1.19767 ,1.46227 ,14.34778 
233 ,45.5841 ,1.19977 ,1.45542 ,14.28062 
234 ,45.7762 ,1.20167 ,1.42462 ,13.97842 
235 ,45.9681 ,1.20368 ,1.42805 ,14.01199 
236 ,46.1600 ,1.20549 ,1.41094 ,13.84410 
237 ,46.3364 ,1.20737 ,1.38698 ,13.60906 
238 ,46.5125 ,1.20904 ,1.37329 ,13.47474 
239 ,46.6884 ,1.21086 ,1.38356 ,13.57548 
240 ,46.8803 ,1.21269 ,1.36645 ,13.40759 
241 ,47.0566 ,1.21448 ,1.33223 ,13.07180 
242 ,47.2648 ,1.21645 ,1.33565 ,13.10538 
243 ,47.4566 ,1.21849 ,1.31169 ,12.87033 
244 ,47.6650 ,1.22054 ,1.30827 ,12.83675 
245 ,47.8566 ,1.22253 ,1.27747 ,12.53455 
246 ,48.0490 ,1.22435 ,1.27063 ,12.46739 
247 ,48.2407 ,1.22643 ,1.25694 ,12.33308 
248 ,48.4170 ,1.22812 ,1.25352 ,12.29950 
249 ,48.6094 ,1.22999 ,1.23641 ,12.13161 
250 ,48.8173 ,1.23204 ,1.21245 ,11.89656 
251 ,49.0092 ,1.23394 ,1.20903 ,11.86298 
252 ,49.2174 ,1.23604 ,1.19534 ,11.72867 
253 ,49.4256 ,1.23809 ,1.18850 ,11.66151 
254 ,49.6656 ,1.24037 ,1.16796 ,11.46004 
255 ,49.8576 ,1.24245 ,1.15427 ,11.32573 
256 ,50.0658 ,1.24449 ,1.14401 ,11.22500 
257 ,50.2579 ,1.24649 ,1.13716 ,11.15784 
258 ,50.4500 ,1.24835 ,1.10294 ,10.82206 
259 ,50.6256 ,1.25020 ,1.10294 ,10.82206 
260 ,50.8181 ,1.25201 ,1.09267 ,10.72132 
261 ,51.0106 ,1.25396 ,1.06872 ,10.48627 
262 ,51.2023 ,1.25587 ,1.07214 ,10.51985 
263 ,51.3945 ,1.25786 ,1.04476 ,10.25123 
264 ,51.5865 ,1.25975 ,1.04476 ,10.25123 
265 ,51.7785 ,1.26162 ,1.02765 ,10.08333 
266 ,51.9706 ,1.26356 ,1.00712 ,9.88186 
267 ,52.1627 ,1.26548 ,1.00712 ,9.88186 
268 ,52.3388 ,1.26732 ,1.00028 ,9.81471 
269 ,52.5309 ,1.26918 ,0.97632 ,9.57966 
270 ,52.7069 ,1.27099 ,0.96605 ,9.47892 
271 ,52.9157 ,1.27296 ,0.96605 ,9.47892 
272 ,53.1232 ,1.27508 ,0.95579 ,9.37819 
273 ,53.3151 ,1.27702 ,0.92499 ,9.07598 
274 ,53.4909 ,1.27882 ,0.91472 ,8.97525 
275 ,53.6834 ,1.28073 ,0.92157 ,9.04241 
276 ,53.8914 ,1.28272 ,0.89419 ,8.77378 
277 ,54.0834 ,1.28463 ,0.89077 ,8.74020 
278 ,54.2594 ,1.28650 ,0.89077 ,8.74020 
279 ,54.4677 ,1.28846 ,0.85997 ,8.43800 
280 ,54.6596 ,1.29045 ,0.85312 ,8.37084 
281 ,54.8514 ,1.29237 ,0.83943 ,8.23653 
282 ,55.0279 ,1.29419 ,0.82575 ,8.10221 
283 ,55.2360 ,1.29623 ,0.81548 ,8.00148 
284 ,55.4281 ,1.29813 ,0.80521 ,7.90074 
285 ,55.6197 ,1.30008 ,0.79837 ,7.83359 
286 ,55.8280 ,1.30220 ,0.77441 ,7.59854 
287 ,56.0198 ,1.30406 ,0.77441 ,7.59854 
288 ,56.2124 ,1.30598 ,0.75388 ,7.39707 
289 ,56.4206 ,1.30807 ,0.76072 ,7.46423 
290 ,56.6124 ,1.30996 ,0.71966 ,7.06129 
291 ,56.8046 ,1.31192 ,0.72992 ,7.16202 
292 ,56.9806 ,1.31367 ,0.72308 ,7.09486 
293 ,57.1567 ,1.31552 ,0.68544 ,6.72550 
294 ,57.3487 ,1.31728 ,0.68886 ,6.75908 
295 ,57.5408 ,1.31922 ,0.68544 ,6.72550 
296 ,57.7325 ,1.32117 ,0.66490 ,6.52403 
297 ,57.9247 ,1.32307 ,0.65121 ,6.38972 
298 ,58.1169 ,1.32502 ,0.64779 ,6.35614 
299 ,58.3572 ,1.32732 ,0.64095 ,6.28899 
300 ,58.5654 ,1.32957 ,0.60673 ,5.95320 
301 ,58.7573 ,1.33143 ,0.61357 ,6.02036 
302 ,58.9495 ,1.33330 ,0.58962 ,5.78531 
303 ,59.1416 ,1.33522 ,0.58277 ,5.71815 
304 ,59.3337 ,1.33718 ,0.56908 ,5.58384 
305 ,59.5097 ,1.33901 ,0.55539 ,5.44953 
306 ,59.6856 ,1.34073 ,0.54513 ,5.34879 
307 ,59.8618 ,1.34260 ,0.54855 ,5.38237 
308 ,60.0381 ,1.34427 ,0.53486 ,5.24806 
309 ,60.2461 ,1.34620 ,0.50406 ,4.94585 
310 ,60.4541 ,1.34839 ,0.52117 ,5.11375 
311 ,60.6622 ,1.35041 ,0.50406 ,4.94585 
312 ,60.8383 ,1.35228 ,0.49380 ,4.84512 
313 ,61.0143 ,1.35405 ,0.45957 ,4.50934 
314 ,61.2224 ,1.35594 ,0.46642 ,4.57649 
315 ,61.4143 ,1.35796 ,0.44931 ,4.40860 
316 ,61.6225 ,1.35997 ,0.42193 ,4.13997 
317 ,61.8305 ,1.36212 ,0.41851 ,4.10640 
318 ,62.0068 ,1.36401 ,0.41509 ,4.07282 
319 ,62.1989 ,1.36582 ,0.42877 ,4.20713 
320 ,62.3912 ,1.36773 ,0.39113 ,3.83777 
321 ,62.5828 ,1.36965 ,0.37402 ,3.66988 
322 ,62.7591 ,1.37147 ,0.38429 ,3.77061 
323 ,62.9510 ,1.37334 ,0.38429 ,3.77061 
324 ,63.1433 ,1.37528 ,0.36375 ,3.56914 
325 ,63.3514 ,1.37732 ,0.34322 ,3.36767 
326 ,63.5592 ,1.37943 ,0.33980 ,3.33410 
327 ,63.7515 ,1.38131 ,0.32953 ,3.23336 
328 ,63.9595 ,1.38342 ,0.29873 ,2.93116 
329 ,64.1516 ,1.38529 ,0.28847 ,2.83042 
330 ,64.3437 ,1.38720 ,0.28162 ,2.76326 
331 ,64.5515 ,1.38931 ,0.27135 ,2.66253 
332 ,64.7277 ,1.39112 ,0.26109 ,2.56179 
333 ,64.9201 ,1.39297 ,0.27820 ,2.72969 
334 ,65.0962 ,1.39485 ,0.25767 ,2.52822 
335 ,65.3043 ,1.39689 ,0.22687 ,2.22601 
336 ,65.4962 ,1.39877 ,0.23371 ,2.29317 
337 ,65.6883 ,1.40070 ,0.19264 ,1.89023 
338 ,65.8644 ,1.40253 ,0.20633 ,2.02454 
339 ,66.0564 ,1.40443 ,0.20633 ,2.02454 
340 ,66.2486 ,1.40628 ,0.17553 ,1.72234 
341 ,66.4566 ,1.40835 ,0.18580 ,1.82307 
342 ,66.6487 ,1.41027 ,0.14816 ,1.45371 
343 ,66.8404 ,1.41217 ,0.16185 ,1.58802 
344 ,67.0489 ,1.41422 ,0.15158 ,1.48729 
345 ,67.2570 ,1.41632 ,0.14473 ,1.42013 
346 ,67.4489 ,1.41835 ,0.11051 ,1.08435 
347 ,67.6405 ,1.42017 ,0.10709 ,1.05077 
348 ,67.8331 ,1.42222 ,0.10025 ,0.98361 
349 ,68.0091 ,1.42399 ,0.07629 ,0.74857 
350 ,68.1854 ,1.42571 ,0.06602 ,0.64783 
351 ,68.3935 ,1.42768 ,0.07287 ,0.71499 
352 ,68.5856 ,1.42967 ,0.04891 ,0.47994 
353 ,68.7776 ,1.43157 ,0.04549 ,0.44636 
354 ,68.9697 ,1.43349 ,0.03522 ,0.34563 
355 ,69.1938 ,1.43565 ,0.02154 ,0.21131 
356 ,69.4177 ,1.43785 ,0.03180 ,0.31205 
357 ,69.6098 ,1.43989 ,0.00785 ,0.07700 
358 ,69.7861 ,1.44173 ,-0.02980 ,-0.29236 
359 ,69.9938 ,1.44372 ,-0.02980 ,-0.29236 
360 ,70.1859 ,1.44571 ,-0.02295 ,-0.22520 
361 ,70.3783 ,1.44762 ,-0.02637 ,-0.25878 
362 ,70.5863 ,1.44966 ,-0.05033 ,-0.49383 
363 ,70.7625 ,1.45143 ,-0.08455 ,-0.82961 
364 ,70.9705 ,1.45347 ,-0.06744 ,-0.66172 
365 ,71.1783 ,1.45557 ,-0.07086 ,-0.69530 
366 ,71.3707 ,1.45748 ,-0.06744 ,-0.66172 
367 ,71.5628 ,1.45947 ,-0.10508 ,-1.03108 
368 ,71.7548 ,1.46137 ,-0.09824 ,-0.96393 
369 ,71.9629 ,1.46334 ,-0.12562 ,-1.23255 
370 ,72.1390 ,1.46530 ,-0.11535 ,-1.13182 
371 ,72.3307 ,1.46712 ,-0.11877 ,-1.16540 
372 ,72.5231 ,1.46895 ,-0.14957 ,-1.46760 
373 ,72.6992 ,1.47083 ,-0.15299 ,-1.50118 
374 ,72.8754 ,1.47255 ,-0.14615 ,-1.43402 
375 ,73.0511 ,1.47441 ,-0.18037 ,-1.76981 
376 ,73.2275 ,1.47611 ,-0.20433 ,-2.00485 
377 ,73.4199 ,1.47793 ,-0.18037 ,-1.76981 
378 ,73.5956 ,1.47981 ,-0.20433 ,-2.00485 
379 ,73.9957 ,1.48378 ,-0.22144 ,-2.17275 
380 ,74.2038 ,1.48582 ,-0.24881 ,-2.44137 
381 ,74.3958 ,1.48777 ,-0.23513 ,-2.30706 
382 ,74.6041 ,1.48972 ,-0.24881 ,-2.44137 
383 ,74.8122 ,1.49188 ,-0.25566 ,-2.50853 
384 ,75.0203 ,1.49397 ,-0.27277 ,-2.67642 
385 ,75.2122 ,1.49590 ,-0.27619 ,-2.71000 
386 ,75.3884 ,1.49773 ,-0.27961 ,-2.74358 
387 ,75.5804 ,1.49955 ,-0.31384 ,-3.07936 
388 ,75.7566 ,1.50134 ,-0.31726 ,-3.11294 
389 ,75.9482 ,1.50328 ,-0.31384 ,-3.07936 
390 ,76.1403 ,1.50515 ,-0.32752 ,-3.21367 
391 ,76.3164 ,1.50704 ,-0.33095 ,-3.24725 
392 ,76.5085 ,1.50883 ,-0.34121 ,-3.34799 
393 ,76.7007 ,1.51079 ,-0.36859 ,-3.61661 
394 ,76.8930 ,1.51264 ,-0.35148 ,-3.44872 
395 ,77.0850 ,1.51460 ,-0.38228 ,-3.75093 
396 ,77.2609 ,1.51643 ,-0.38570 ,-3.78450 
397 ,77.4532 ,1.51832 ,-0.38228 ,-3.75093 
398 ,77.6610 ,1.52042 ,-0.41308 ,-4.05313 
399 ,77.8533 ,1.52229 ,-0.39597 ,-3.88524 
400 ,78.0612 ,1.52438 ,-0.42677 ,-4.18744 
401 ,78.2534 ,1.52629 ,-0.42677 ,-4.18744 
402 ,78.4612 ,1.52835 ,-0.45757 ,-4.48965 
403 ,78.6536 ,1.53027 ,-0.44730 ,-4.38891 
404 ,78.8297 ,1.53217 ,-0.46441 ,-4.55681 
405 ,79.0218 ,1.53393 ,-0.48152 ,-4.72470 
406 ,79.2136 ,1.53587 ,-0.46783 ,-4.59038 
407 ,79.4060 ,1.53782 ,-0.49863 ,-4.89259 
408 ,79.5982 ,1.53973 ,-0.49863 ,-4.89259 
409 ,79.8062 ,1.54185 ,-0.50548 ,-4.95975 
410 ,79.9983 ,1.54374 ,-0.52601 ,-5.16121 
411 ,80.2064 ,1.54584 ,-0.52601 ,-5.16121 
412 ,80.3984 ,1.54776 ,-0.54312 ,-5.32911 
413 ,80.5905 ,1.54963 ,-0.53970 ,-5.29553 
414 ,80.7985 ,1.55173 ,-0.55681 ,-5.46342 
415 ,80.9907 ,1.55364 ,-0.56365 ,-5.53058 
416 ,81.1988 ,1.55572 ,-0.59103 ,-5.79920 
417 ,81.4226 ,1.55788 ,-0.58077 ,-5.69847 
418 ,81.6309 ,1.56007 ,-0.59445 ,-5.83278 
419 ,81.8390 ,1.56211 ,-0.62183 ,-6.10141 
420 ,82.0307 ,1.56400 ,-0.60130 ,-5.89994 
421 ,82.2068 ,1.56593 ,-0.62868 ,-6.16856 
422 ,82.3832 ,1.56766 ,-0.63210 ,-6.20214 
423 ,82.5753 ,1.56953 ,-0.64236 ,-6.30288 
424 ,82.7834 ,1.57155 ,-0.65263 ,-6.40361 
425 ,82.9753 ,1.57348 ,-0.66290 ,-6.50435 
426 ,83.1513 ,1.57527 ,-0.66974 ,-6.57150 
427 ,83.3436 ,1.57712 ,-0.67316 ,-6.60508 
428 ,83.5356 ,1.57909 ,-0.69027 ,-6.77297 
429 ,83.7276 ,1.58104 ,-0.68343 ,-6.70582 
430 ,83.9205 ,1.58295 ,-0.70396 ,-6.90729 
431 ,84.1116 ,1.58486 ,-0.70739 ,-6.94086 
432 ,84.3041 ,1.58681 ,-0.71423 ,-7.00802 
433 ,84.5119 ,1.58885 ,-0.72107 ,-7.07518 
434 ,84.7042 ,1.59078 ,-0.72792 ,-7.14233 
435 ,84.8962 ,1.59270 ,-0.75187 ,-7.37738 
436 ,85.0722 ,1.59446 ,-0.76214 ,-7.47812 
437 ,85.2481 ,1.59632 ,-0.75187 ,-7.37738 
438 ,85.4725 ,1.59838 ,-0.77241 ,-7.57885 
439 ,85.6804 ,1.60053 ,-0.77241 ,-7.57885 
440 ,85.8726 ,1.60250 ,-0.79636 ,-7.81390 
441 ,86.0644 ,1.60435 ,-0.78952 ,-7.74674 
442 ,86.2410 ,1.60615 ,-0.80321 ,-7.88106 
443 ,86.4486 ,1.60821 ,-0.81347 ,-7.98179 
444 ,86.6569 ,1.61032 ,-0.84085 ,-8.25042 
445 ,86.8491 ,1.61219 ,-0.82716 ,-8.11611 
446 ,87.0413 ,1.61416 ,-0.84085 ,-8.25042 
447 ,87.2493 ,1.61624 ,-0.83401 ,-8.18326 
448 ,87.4093 ,1.61797 ,-0.85112 ,-8.35115 
449 ,87.6014 ,1.61971 ,-0.86138 ,-8.45189 
450 ,87.7776 ,1.62155 ,-0.88534 ,-8.68694 
451 ,87.9855 ,1.62359 ,-0.87849 ,-8.61978 
452 ,88.1777 ,1.62550 ,-0.89560 ,-8.78767 
453 ,88.3697 ,1.62749 ,-0.88876 ,-8.72051 
454 ,88.5458 ,1.62920 ,-0.89903 ,-8.82125 
455 ,88.7538 ,1.63125 ,-0.92640 ,-9.08988 
456 ,88.9300 ,1.63307 ,-0.93325 ,-9.15703 
457 ,89.1058 ,1.63484 ,-0.92640 ,-9.08988 
458 ,89.2981 ,1.63669 ,-0.95036 ,-9.32492 
459 ,89.5061 ,1.63879 ,-0.95378 ,-9.35850 
460 ,89.6983 ,1.64068 ,-0.95036 ,-9.32492 
461 ,89.8904 ,1.64262 ,-0.97431 ,-9.55997 
462 ,90.0821 ,1.64453 ,-0.96405 ,-9.45924 
463 ,90.2744 ,1.64641 ,-0.99827 ,-9.79502 
