Data stamp = , 28-04-2022 05:32:57 610

Calibration Values: 
Slope = , 26.54 , g/V 
Offset Voltage at no contact = , -0.501760 , V 

No , Time , Stage Position ,   Mass , Force 
   ,  (s) ,      (mm)      ,   (g)  , (mN)  

1 ,0.0000 ,0.74953 ,5.27456 ,51.75401 
2 ,0.2993 ,0.74974 ,5.26430 ,51.65327 
3 ,0.6835 ,0.75115 ,5.25061 ,51.51896 
4 ,0.8918 ,0.75321 ,5.27114 ,51.72043 
5 ,1.0836 ,0.75510 ,5.24718 ,51.48538 
6 ,1.2916 ,0.75714 ,5.27114 ,51.72043 
7 ,1.4838 ,0.75910 ,5.26430 ,51.65327 
8 ,1.6921 ,0.76119 ,5.27456 ,51.75401 
9 ,1.9001 ,0.76326 ,5.24718 ,51.48538 
10 ,2.1082 ,0.76533 ,5.24034 ,51.41822 
11 ,2.2999 ,0.76729 ,5.20270 ,51.04886 
12 ,2.4919 ,0.76915 ,5.20612 ,51.08244 
13 ,2.6841 ,0.77108 ,5.16848 ,50.71308 
14 ,2.8764 ,0.77299 ,5.17874 ,50.81381 
15 ,3.0846 ,0.77507 ,5.13425 ,50.37729 
16 ,3.2764 ,0.77699 ,5.13768 ,50.41087 
17 ,3.4847 ,0.77911 ,5.08977 ,49.94078 
18 ,3.6768 ,0.78102 ,5.09661 ,50.00793 
19 ,3.8689 ,0.78293 ,5.06581 ,49.70573 
20 ,4.0770 ,0.78498 ,5.06239 ,49.67215 
21 ,4.2691 ,0.78691 ,5.02817 ,49.33637 
22 ,4.4612 ,0.78883 ,5.00079 ,49.06774 
23 ,4.6529 ,0.79077 ,5.00421 ,49.10132 
24 ,4.8613 ,0.79274 ,4.97341 ,48.79911 
25 ,5.0695 ,0.79494 ,4.95630 ,48.63122 
26 ,5.2615 ,0.79688 ,4.92892 ,48.36260 
27 ,5.4536 ,0.79878 ,4.92208 ,48.29544 
28 ,5.6456 ,0.80072 ,4.89812 ,48.06039 
29 ,5.8377 ,0.80273 ,4.88101 ,47.89250 
30 ,6.0298 ,0.80460 ,4.86390 ,47.72461 
31 ,6.2219 ,0.80647 ,4.82968 ,47.38883 
32 ,6.4136 ,0.80836 ,4.82968 ,47.38883 
33 ,6.6221 ,0.81036 ,4.79204 ,47.01946 
34 ,6.8297 ,0.81254 ,4.78519 ,46.95231 
35 ,7.0222 ,0.81448 ,4.75097 ,46.61653 
36 ,7.2303 ,0.81662 ,4.75097 ,46.61653 
37 ,7.4062 ,0.81845 ,4.72359 ,46.34790 
38 ,7.5982 ,0.82021 ,4.70648 ,46.18001 
39 ,7.8063 ,0.82231 ,4.68937 ,46.01212 
40 ,7.9984 ,0.82422 ,4.65515 ,45.67633 
41 ,8.2065 ,0.82629 ,4.64831 ,45.60918 
42 ,8.3827 ,0.82813 ,4.62093 ,45.34055 
43 ,8.5586 ,0.82990 ,4.60724 ,45.20624 
44 ,8.7510 ,0.83177 ,4.61751 ,45.30697 
45 ,8.9585 ,0.83371 ,4.57644 ,44.90403 
46 ,9.1512 ,0.83576 ,4.56275 ,44.76972 
47 ,9.3592 ,0.83788 ,4.53537 ,44.50109 
48 ,9.5513 ,0.83979 ,4.53195 ,44.46751 
49 ,9.7273 ,0.84161 ,4.50457 ,44.19889 
50 ,9.9033 ,0.84339 ,4.49431 ,44.09815 
51 ,10.0950 ,0.84519 ,4.47378 ,43.89668 
52 ,10.3035 ,0.84716 ,4.46693 ,43.82953 
53 ,10.4956 ,0.84920 ,4.43955 ,43.56090 
54 ,10.6876 ,0.85114 ,4.41902 ,43.35943 
55 ,10.8798 ,0.85302 ,4.39507 ,43.12438 
56 ,11.0878 ,0.85519 ,4.39507 ,43.12438 
57 ,11.2799 ,0.85704 ,4.35400 ,42.72144 
58 ,11.4717 ,0.85900 ,4.35742 ,42.75502 
59 ,11.6479 ,0.86073 ,4.33689 ,42.55355 
60 ,11.8240 ,0.86255 ,4.29924 ,42.18419 
61 ,11.9999 ,0.86426 ,4.28898 ,42.08345 
62 ,12.1923 ,0.86609 ,4.29240 ,42.11703 
63 ,12.4004 ,0.86825 ,4.24791 ,41.68051 
64 ,12.6245 ,0.87051 ,4.24449 ,41.64694 
65 ,12.8165 ,0.87236 ,4.20685 ,41.27758 
66 ,13.0086 ,0.87427 ,4.22053 ,41.41189 
67 ,13.1847 ,0.87611 ,4.19316 ,41.14326 
68 ,13.3928 ,0.87812 ,4.16578 ,40.87464 
69 ,13.5688 ,0.87993 ,4.16578 ,40.87464 
70 ,13.7610 ,0.88179 ,4.12814 ,40.50527 
71 ,13.9690 ,0.88380 ,4.11787 ,40.40454 
72 ,14.1611 ,0.88583 ,4.09734 ,40.20307 
73 ,14.3538 ,0.88777 ,4.08707 ,40.10233 
74 ,14.5453 ,0.88981 ,4.04943 ,39.73297 
75 ,14.7373 ,0.89160 ,4.02889 ,39.53150 
76 ,14.9296 ,0.89347 ,4.03574 ,39.59866 
77 ,15.1216 ,0.89545 ,4.00836 ,39.33003 
78 ,15.3137 ,0.89737 ,3.98783 ,39.12856 
79 ,15.4894 ,0.89915 ,3.98098 ,39.06141 
80 ,15.6819 ,0.90103 ,3.95018 ,38.75920 
81 ,15.8740 ,0.90301 ,3.94334 ,38.69205 
82 ,16.0660 ,0.90485 ,3.93307 ,38.59131 
83 ,16.2740 ,0.90695 ,3.90912 ,38.35626 
84 ,16.4502 ,0.90877 ,3.90227 ,38.28911 
85 ,16.6419 ,0.91064 ,3.86121 ,37.88617 
86 ,16.8342 ,0.91250 ,3.84752 ,37.75185 
87 ,17.0265 ,0.91443 ,3.83383 ,37.61754 
88 ,17.2023 ,0.91635 ,3.80645 ,37.34891 
89 ,17.3945 ,0.91816 ,3.79961 ,37.28176 
90 ,17.5705 ,0.91997 ,3.79276 ,37.21460 
91 ,17.7623 ,0.92180 ,3.76196 ,36.91240 
92 ,17.9550 ,0.92376 ,3.73459 ,36.64377 
93 ,18.1630 ,0.92584 ,3.73459 ,36.64377 
94 ,18.3552 ,0.92776 ,3.70379 ,36.34157 
95 ,18.5469 ,0.92966 ,3.69694 ,36.27441 
96 ,18.7391 ,0.93154 ,3.65930 ,35.90505 
97 ,18.9313 ,0.93348 ,3.65246 ,35.83789 
98 ,19.1393 ,0.93556 ,3.63192 ,35.63642 
99 ,19.3314 ,0.93753 ,3.62166 ,35.53569 
100 ,19.5233 ,0.93941 ,3.61139 ,35.43495 
101 ,19.7316 ,0.94141 ,3.57032 ,35.03201 
102 ,19.9232 ,0.94346 ,3.56006 ,34.93128 
103 ,20.1158 ,0.94539 ,3.53268 ,34.66265 
104 ,20.3237 ,0.94743 ,3.54295 ,34.76338 
105 ,20.4998 ,0.94925 ,3.51215 ,34.46118 
106 ,20.6919 ,0.95114 ,3.48477 ,34.19255 
107 ,20.8840 ,0.95305 ,3.49504 ,34.29329 
108 ,21.0760 ,0.95492 ,3.46424 ,33.99108 
109 ,21.2361 ,0.95671 ,3.44713 ,33.82319 
110 ,21.4121 ,0.95834 ,3.43344 ,33.68888 
111 ,21.6043 ,0.96025 ,3.41633 ,33.52099 
112 ,21.8124 ,0.96232 ,3.39237 ,33.28594 
113 ,22.0203 ,0.96435 ,3.35815 ,32.95016 
114 ,22.2124 ,0.96627 ,3.35130 ,32.88300 
115 ,22.4206 ,0.96833 ,3.32735 ,32.64795 
116 ,22.6127 ,0.97035 ,3.30682 ,32.44648 
117 ,22.8044 ,0.97225 ,3.31366 ,32.51364 
118 ,22.9965 ,0.97413 ,3.27602 ,32.14428 
119 ,23.1884 ,0.97608 ,3.27602 ,32.14428 
120 ,23.3809 ,0.97798 ,3.26233 ,32.00996 
121 ,23.5731 ,0.97990 ,3.22811 ,31.67418 
122 ,23.7652 ,0.98182 ,3.21784 ,31.57345 
123 ,23.9572 ,0.98375 ,3.19388 ,31.33840 
124 ,24.1652 ,0.98583 ,3.19046 ,31.30482 
125 ,24.3413 ,0.98770 ,3.15282 ,30.93546 
126 ,24.5334 ,0.98945 ,3.14255 ,30.83472 
127 ,24.7255 ,0.99147 ,3.12544 ,30.66683 
128 ,24.9174 ,0.99334 ,3.10833 ,30.49894 
129 ,25.1097 ,0.99523 ,3.10491 ,30.46536 
130 ,25.3174 ,0.99725 ,3.08095 ,30.23031 
131 ,25.5099 ,0.99923 ,3.05700 ,29.99527 
132 ,25.7179 ,1.00127 ,3.03304 ,29.76022 
133 ,25.8940 ,1.00321 ,3.02962 ,29.72664 
134 ,26.0862 ,1.00500 ,3.00567 ,29.49159 
135 ,26.2782 ,1.00692 ,2.98513 ,29.29012 
136 ,26.4538 ,1.00885 ,2.96460 ,29.08865 
137 ,26.6464 ,1.01065 ,2.95433 ,28.98792 
138 ,26.8381 ,1.01255 ,2.92353 ,28.68571 
139 ,27.0306 ,1.01447 ,2.91669 ,28.61856 
140 ,27.2062 ,1.01634 ,2.91669 ,28.61856 
141 ,27.3986 ,1.01819 ,2.88589 ,28.31635 
142 ,27.5906 ,1.02013 ,2.85509 ,28.01415 
143 ,27.7664 ,1.02191 ,2.86193 ,28.08130 
144 ,27.9424 ,1.02370 ,2.83114 ,27.77910 
145 ,28.1345 ,1.02546 ,2.81060 ,27.57763 
146 ,28.3105 ,1.02740 ,2.80718 ,27.54405 
147 ,28.5026 ,1.02915 ,2.79349 ,27.40974 
148 ,28.7108 ,1.03118 ,2.77980 ,27.27542 
149 ,28.9192 ,1.03338 ,2.74900 ,26.97322 
150 ,29.1114 ,1.03529 ,2.73531 ,26.83891 
151 ,29.3034 ,1.03720 ,2.73531 ,26.83891 
152 ,29.4957 ,1.03908 ,2.68398 ,26.33523 
153 ,29.6871 ,1.04107 ,2.67714 ,26.26807 
154 ,29.8795 ,1.04294 ,2.66687 ,26.16734 
155 ,30.0718 ,1.04491 ,2.63949 ,25.89871 
156 ,30.2638 ,1.04679 ,2.64292 ,25.93229 
157 ,30.4559 ,1.04870 ,2.60527 ,25.56293 
158 ,30.6320 ,1.05053 ,2.59843 ,25.49577 
159 ,30.8236 ,1.05247 ,2.58816 ,25.39504 
160 ,31.0001 ,1.05424 ,2.55736 ,25.09283 
161 ,31.1921 ,1.05609 ,2.53683 ,24.89136 
162 ,31.4002 ,1.05816 ,2.54025 ,24.92494 
163 ,31.5922 ,1.06011 ,2.49918 ,24.52200 
164 ,31.7846 ,1.06202 ,2.49918 ,24.52200 
165 ,31.9762 ,1.06391 ,2.47181 ,24.25338 
166 ,32.1525 ,1.06582 ,2.45127 ,24.05191 
167 ,32.3446 ,1.06759 ,2.45812 ,24.11906 
168 ,32.5527 ,1.06967 ,2.43074 ,23.85044 
169 ,32.7610 ,1.07160 ,2.42732 ,23.81686 
170 ,32.9525 ,1.07378 ,2.39310 ,23.48108 
171 ,33.1611 ,1.07566 ,2.37941 ,23.34676 
172 ,33.3692 ,1.07782 ,2.35888 ,23.14529 
173 ,33.5611 ,1.07976 ,2.36230 ,23.17887 
174 ,33.7372 ,1.08155 ,2.34177 ,22.97740 
175 ,33.9294 ,1.08339 ,2.31781 ,22.74235 
176 ,34.1214 ,1.08535 ,2.31097 ,22.67520 
177 ,34.3295 ,1.08738 ,2.27674 ,22.33941 
178 ,34.5216 ,1.08941 ,2.27332 ,22.30584 
179 ,34.7136 ,1.09129 ,2.25279 ,22.10437 
180 ,34.9218 ,1.09337 ,2.24594 ,22.03721 
181 ,35.1135 ,1.09527 ,2.20830 ,21.66785 
182 ,35.3219 ,1.09725 ,2.19461 ,21.53353 
183 ,35.5295 ,1.09943 ,2.16723 ,21.26491 
184 ,35.7216 ,1.10134 ,2.16723 ,21.26491 
185 ,35.9301 ,1.10333 ,2.15355 ,21.13059 
186 ,36.1221 ,1.10538 ,2.15355 ,21.13059 
187 ,36.3142 ,1.10738 ,2.12617 ,20.86197 
188 ,36.5062 ,1.10919 ,2.09879 ,20.59334 
189 ,36.6984 ,1.11111 ,2.11590 ,20.76123 
190 ,36.9065 ,1.11316 ,2.08168 ,20.42545 
191 ,37.0985 ,1.11510 ,2.06799 ,20.29114 
192 ,37.2902 ,1.11704 ,2.03719 ,19.98893 
193 ,37.4827 ,1.11892 ,2.04746 ,20.08967 
194 ,37.6907 ,1.12104 ,2.01324 ,19.75388 
195 ,37.8828 ,1.12297 ,1.99613 ,19.58599 
196 ,38.0750 ,1.12484 ,1.98586 ,19.48526 
197 ,38.2665 ,1.12676 ,1.96533 ,19.28379 
198 ,38.4426 ,1.12866 ,1.96190 ,19.25021 
199 ,38.6352 ,1.13047 ,1.95506 ,19.18305 
200 ,38.8432 ,1.13256 ,1.92768 ,18.91443 
201 ,39.0354 ,1.13443 ,1.92084 ,18.84727 
202 ,39.2274 ,1.13644 ,1.89688 ,18.61222 
203 ,39.4194 ,1.13831 ,1.89004 ,18.54507 
204 ,39.6114 ,1.14030 ,1.87293 ,18.37717 
205 ,39.8196 ,1.14227 ,1.86951 ,18.34360 
206 ,40.0116 ,1.14418 ,1.84897 ,18.14213 
207 ,40.2035 ,1.14615 ,1.82844 ,17.94066 
208 ,40.3798 ,1.14794 ,1.82844 ,17.94066 
209 ,40.5715 ,1.14982 ,1.80449 ,17.70561 
210 ,40.7640 ,1.15176 ,1.78395 ,17.50414 
211 ,40.9718 ,1.15380 ,1.76000 ,17.26909 
212 ,41.1642 ,1.15573 ,1.75657 ,17.23551 
213 ,41.3403 ,1.15759 ,1.73604 ,17.03404 
214 ,41.5323 ,1.15944 ,1.72920 ,16.96689 
215 ,41.7240 ,1.16132 ,1.70866 ,16.76542 
216 ,41.9163 ,1.16328 ,1.70182 ,16.69826 
217 ,42.1085 ,1.16521 ,1.67786 ,16.46321 
218 ,42.3006 ,1.16712 ,1.66760 ,16.36248 
219 ,42.4925 ,1.16905 ,1.66418 ,16.32890 
220 ,42.7008 ,1.17099 ,1.63680 ,16.06027 
221 ,42.8928 ,1.17316 ,1.60942 ,15.79164 
222 ,43.0849 ,1.17494 ,1.60258 ,15.72449 
223 ,43.2609 ,1.17676 ,1.60258 ,15.72449 
224 ,43.4370 ,1.17852 ,1.59231 ,15.62375 
225 ,43.6288 ,1.18045 ,1.56493 ,15.35513 
226 ,43.8212 ,1.18227 ,1.56151 ,15.32155 
227 ,44.0132 ,1.18425 ,1.55467 ,15.25439 
228 ,44.2049 ,1.18626 ,1.53413 ,15.05292 
229 ,44.3971 ,1.18802 ,1.51018 ,14.81787 
230 ,44.5892 ,1.19002 ,1.50333 ,14.75072 
231 ,44.7975 ,1.19211 ,1.48965 ,14.61640 
232 ,44.9733 ,1.19397 ,1.47596 ,14.48209 
233 ,45.1658 ,1.19572 ,1.44858 ,14.21346 
234 ,45.3577 ,1.19767 ,1.45885 ,14.31420 
235 ,45.5339 ,1.19955 ,1.42462 ,13.97842 
236 ,45.7260 ,1.20136 ,1.40751 ,13.81053 
237 ,45.9180 ,1.20331 ,1.40751 ,13.81053 
238 ,46.0938 ,1.20503 ,1.40067 ,13.74337 
239 ,46.2699 ,1.20686 ,1.37329 ,13.47474 
240 ,46.4620 ,1.20868 ,1.36645 ,13.40759 
241 ,46.6543 ,1.21072 ,1.34591 ,13.20612 
242 ,46.8304 ,1.21245 ,1.34249 ,13.17254 
243 ,47.0223 ,1.21432 ,1.32880 ,13.03822 
244 ,47.1984 ,1.21618 ,1.31169 ,12.87033 
245 ,47.3744 ,1.21788 ,1.31854 ,12.93749 
246 ,47.5508 ,1.21965 ,1.29458 ,12.70244 
247 ,47.7426 ,1.22150 ,1.26378 ,12.40024 
248 ,47.9349 ,1.22343 ,1.27405 ,12.50097 
249 ,48.1268 ,1.22538 ,1.24667 ,12.23235 
250 ,48.3189 ,1.22723 ,1.24667 ,12.23235 
251 ,48.5110 ,1.22923 ,1.23641 ,12.13161 
252 ,48.6870 ,1.23101 ,1.21587 ,11.93014 
253 ,48.8792 ,1.23283 ,1.21245 ,11.89656 
254 ,49.0713 ,1.23478 ,1.19876 ,11.76225 
255 ,49.2633 ,1.23669 ,1.16796 ,11.46004 
256 ,49.4556 ,1.23866 ,1.17481 ,11.52720 
257 ,49.6795 ,1.24077 ,1.13716 ,11.15784 
258 ,49.8716 ,1.24284 ,1.14401 ,11.22500 
259 ,50.0795 ,1.24487 ,1.13032 ,11.09068 
260 ,50.2718 ,1.24679 ,1.12347 ,11.02353 
261 ,50.4637 ,1.24869 ,1.09267 ,10.72132 
262 ,50.6556 ,1.25060 ,1.08925 ,10.68774 
263 ,50.8479 ,1.25252 ,1.06187 ,10.41912 
264 ,51.0401 ,1.25447 ,1.05845 ,10.38554 
265 ,51.2321 ,1.25640 ,1.05161 ,10.31838 
266 ,51.4400 ,1.25851 ,1.01739 ,9.98260 
267 ,51.6321 ,1.26042 ,1.02423 ,10.04976 
268 ,51.8403 ,1.26249 ,1.00028 ,9.81471 
269 ,52.0320 ,1.26439 ,1.00028 ,9.81471 
270 ,52.2085 ,1.26619 ,0.99685 ,9.78113 
271 ,52.4164 ,1.26819 ,0.96605 ,9.47892 
272 ,52.6083 ,1.27016 ,0.96263 ,9.44535 
273 ,52.8003 ,1.27207 ,0.93183 ,9.14314 
274 ,52.9928 ,1.27405 ,0.94210 ,9.24388 
275 ,53.1845 ,1.27589 ,0.91472 ,8.97525 
276 ,53.3610 ,1.27775 ,0.90446 ,8.87451 
277 ,53.5530 ,1.27956 ,0.90446 ,8.87451 
278 ,53.7452 ,1.28160 ,0.88050 ,8.63947 
279 ,53.9372 ,1.28341 ,0.87708 ,8.60589 
280 ,54.1294 ,1.28535 ,0.87023 ,8.53873 
281 ,54.3213 ,1.28726 ,0.84286 ,8.27011 
282 ,54.4987 ,1.28905 ,0.83943 ,8.23653 
283 ,54.7213 ,1.29118 ,0.82575 ,8.10221 
284 ,54.9297 ,1.29330 ,0.81548 ,8.00148 
285 ,55.1377 ,1.29543 ,0.80179 ,7.86717 
286 ,55.3298 ,1.29734 ,0.79837 ,7.83359 
287 ,55.5218 ,1.29929 ,0.77099 ,7.56496 
288 ,55.7139 ,1.30128 ,0.75730 ,7.43065 
289 ,55.9056 ,1.30307 ,0.75388 ,7.39707 
290 ,56.0821 ,1.30491 ,0.74361 ,7.29633 
291 ,56.2903 ,1.30692 ,0.74704 ,7.32991 
292 ,56.4823 ,1.30890 ,0.70597 ,6.92697 
293 ,56.6743 ,1.31081 ,0.71966 ,7.06129 
294 ,56.8662 ,1.31270 ,0.69228 ,6.79266 
295 ,57.0421 ,1.31458 ,0.69570 ,6.82624 
296 ,57.2346 ,1.31639 ,0.69228 ,6.79266 
297 ,57.4264 ,1.31832 ,0.66490 ,6.52403 
298 ,57.6347 ,1.32039 ,0.66833 ,6.55761 
299 ,57.8266 ,1.32231 ,0.65464 ,6.42330 
300 ,58.0185 ,1.32422 ,0.63410 ,6.22183 
301 ,58.2107 ,1.32616 ,0.63410 ,6.22183 
302 ,58.4191 ,1.32823 ,0.59646 ,5.85247 
303 ,58.6110 ,1.33012 ,0.61357 ,6.02036 
304 ,58.8030 ,1.33207 ,0.57593 ,5.65100 
305 ,59.0113 ,1.33420 ,0.58619 ,5.75173 
306 ,59.2031 ,1.33605 ,0.55539 ,5.44953 
307 ,59.3795 ,1.33786 ,0.55197 ,5.41595 
308 ,59.5716 ,1.33977 ,0.56224 ,5.51668 
309 ,59.7632 ,1.34177 ,0.53144 ,5.21448 
310 ,59.9395 ,1.34350 ,0.51775 ,5.08017 
311 ,60.1315 ,1.34535 ,0.52802 ,5.18090 
312 ,60.3236 ,1.34728 ,0.50406 ,4.94585 
313 ,60.5153 ,1.34919 ,0.49722 ,4.87870 
314 ,60.7074 ,1.35108 ,0.48353 ,4.74438 
315 ,60.8996 ,1.35302 ,0.46642 ,4.57649 
316 ,61.0919 ,1.35497 ,0.46642 ,4.57649 
317 ,61.2680 ,1.35678 ,0.45273 ,4.44218 
318 ,61.4762 ,1.35875 ,0.43904 ,4.30787 
319 ,61.6840 ,1.36086 ,0.42535 ,4.17355 
320 ,61.8604 ,1.36270 ,0.41509 ,4.07282 
321 ,62.0524 ,1.36451 ,0.41851 ,4.10640 
322 ,62.2281 ,1.36637 ,0.41166 ,4.03924 
323 ,62.4042 ,1.36816 ,0.38771 ,3.80419 
324 ,62.5963 ,1.36996 ,0.35691 ,3.50199 
325 ,62.7887 ,1.37190 ,0.38086 ,3.73703 
326 ,62.9968 ,1.37399 ,0.35349 ,3.46841 
327 ,63.1728 ,1.37582 ,0.33980 ,3.33410 
328 ,63.3811 ,1.37783 ,0.32953 ,3.23336 
329 ,63.5730 ,1.37974 ,0.32611 ,3.19978 
330 ,63.7491 ,1.38159 ,0.31584 ,3.09905 
331 ,63.9413 ,1.38340 ,0.29873 ,2.93116 
332 ,64.1492 ,1.38552 ,0.30215 ,2.96473 
333 ,64.3414 ,1.38743 ,0.27478 ,2.69611 
334 ,64.5332 ,1.38933 ,0.27135 ,2.66253 
335 ,64.7255 ,1.39128 ,0.26451 ,2.59537 
336 ,64.9337 ,1.39338 ,0.23713 ,2.32675 
337 ,65.1415 ,1.39542 ,0.23029 ,2.25959 
338 ,65.3177 ,1.39718 ,0.21318 ,2.09170 
339 ,65.5099 ,1.39905 ,0.23713 ,2.32675 
340 ,65.6856 ,1.40096 ,0.20291 ,1.99096 
341 ,65.8939 ,1.40284 ,0.19949 ,1.95738 
342 ,66.1021 ,1.40501 ,0.18580 ,1.82307 
343 ,66.2940 ,1.40699 ,0.16869 ,1.65518 
344 ,66.5022 ,1.40903 ,0.15842 ,1.55445 
345 ,66.6942 ,1.41097 ,0.14473 ,1.42013 
346 ,66.8861 ,1.41300 ,0.14131 ,1.38655 
347 ,67.0783 ,1.41483 ,0.12762 ,1.25224 
348 ,67.2866 ,1.41680 ,0.13105 ,1.28582 
349 ,67.4786 ,1.41881 ,0.11393 ,1.11793 
350 ,67.6865 ,1.42083 ,0.11051 ,1.08435 
351 ,67.8624 ,1.42273 ,0.08998 ,0.88288 
352 ,68.0553 ,1.42457 ,0.06945 ,0.68141 
353 ,68.2630 ,1.42663 ,0.07287 ,0.71499 
354 ,68.4391 ,1.42848 ,0.05576 ,0.54710 
355 ,68.6470 ,1.43050 ,0.04891 ,0.47994 
356 ,68.8392 ,1.43241 ,0.04207 ,0.41278 
357 ,69.0311 ,1.43434 ,0.03180 ,0.31205 
358 ,69.2394 ,1.43636 ,0.01127 ,0.11058 
359 ,69.4315 ,1.43835 ,0.01811 ,0.17773 
360 ,69.6236 ,1.44025 ,0.00785 ,0.07700 
361 ,69.8156 ,1.44218 ,-0.00926 ,-0.09089 
362 ,69.9916 ,1.44402 ,-0.00926 ,-0.09089 
363 ,70.1994 ,1.44591 ,-0.01953 ,-0.19163 
364 ,70.3917 ,1.44794 ,-0.03322 ,-0.32594 
365 ,70.5837 ,1.44983 ,-0.05033 ,-0.49383 
366 ,70.7757 ,1.45175 ,-0.06060 ,-0.59457 
367 ,70.9681 ,1.45366 ,-0.06060 ,-0.59457 
368 ,71.1437 ,1.45553 ,-0.08455 ,-0.82961 
369 ,71.3360 ,1.45731 ,-0.09824 ,-0.96393 
370 ,71.5444 ,1.45944 ,-0.09140 ,-0.89677 
371 ,71.7363 ,1.46133 ,-0.11535 ,-1.13182 
372 ,71.9125 ,1.46317 ,-0.12904 ,-1.26613 
373 ,72.1206 ,1.46524 ,-0.12904 ,-1.26613 
374 ,72.3126 ,1.46709 ,-0.14957 ,-1.46760 
375 ,72.5044 ,1.46900 ,-0.14957 ,-1.46760 
376 ,72.6967 ,1.47099 ,-0.16668 ,-1.63549 
377 ,72.9208 ,1.47308 ,-0.15984 ,-1.56834 
378 ,73.1289 ,1.47525 ,-0.15984 ,-1.56834 
379 ,73.3046 ,1.47710 ,-0.20433 ,-2.00485 
380 ,73.4969 ,1.47891 ,-0.19748 ,-1.93770 
381 ,73.6892 ,1.48083 ,-0.19748 ,-1.93770 
382 ,73.8972 ,1.48289 ,-0.20775 ,-2.03843 
383 ,74.0893 ,1.48486 ,-0.21117 ,-2.07201 
384 ,74.2815 ,1.48675 ,-0.23855 ,-2.34064 
385 ,74.4896 ,1.48884 ,-0.23855 ,-2.34064 
386 ,74.6974 ,1.49095 ,-0.25908 ,-2.54211 
387 ,74.8737 ,1.49279 ,-0.27619 ,-2.71000 
388 ,75.0655 ,1.49472 ,-0.28646 ,-2.81073 
389 ,75.2580 ,1.49662 ,-0.28646 ,-2.81073 
390 ,75.4655 ,1.49862 ,-0.28988 ,-2.84431 
391 ,75.6582 ,1.50055 ,-0.31384 ,-3.07936 
392 ,75.8661 ,1.50267 ,-0.30015 ,-2.94505 
393 ,76.0580 ,1.50453 ,-0.33779 ,-3.31441 
394 ,76.2503 ,1.50647 ,-0.32410 ,-3.18010 
395 ,76.4423 ,1.50841 ,-0.34121 ,-3.34799 
396 ,76.6340 ,1.51039 ,-0.34464 ,-3.38156 
397 ,76.8262 ,1.51217 ,-0.35148 ,-3.44872 
398 ,77.0185 ,1.51412 ,-0.37201 ,-3.65019 
399 ,77.2105 ,1.51608 ,-0.38570 ,-3.78450 
400 ,77.4027 ,1.51799 ,-0.39597 ,-3.88524 
401 ,77.5946 ,1.51994 ,-0.40623 ,-3.98597 
402 ,77.8028 ,1.52198 ,-0.40281 ,-3.95240 
403 ,78.0105 ,1.52411 ,-0.41992 ,-4.12029 
404 ,78.1869 ,1.52584 ,-0.41650 ,-4.08671 
405 ,78.3788 ,1.52772 ,-0.44388 ,-4.35534 
406 ,78.5712 ,1.52966 ,-0.44046 ,-4.32176 
407 ,78.7629 ,1.53157 ,-0.45072 ,-4.42249 
408 ,78.9556 ,1.53354 ,-0.46783 ,-4.59038 
409 ,79.1635 ,1.53558 ,-0.46441 ,-4.55681 
410 ,79.3555 ,1.53755 ,-0.49179 ,-4.82543 
411 ,79.5473 ,1.53946 ,-0.48837 ,-4.79185 
412 ,79.7397 ,1.54141 ,-0.50548 ,-4.95975 
413 ,79.9477 ,1.54342 ,-0.50548 ,-4.95975 
414 ,80.1399 ,1.54532 ,-0.52259 ,-5.12764 
415 ,80.3320 ,1.54730 ,-0.54312 ,-5.32911 
416 ,80.5240 ,1.54919 ,-0.52943 ,-5.19479 
417 ,80.7160 ,1.55107 ,-0.55339 ,-5.42984 
418 ,80.9238 ,1.55305 ,-0.55681 ,-5.46342 
419 ,81.1323 ,1.55515 ,-0.57392 ,-5.63131 
420 ,81.3403 ,1.55740 ,-0.57050 ,-5.59773 
421 ,81.5163 ,1.55915 ,-0.59103 ,-5.79920 
422 ,81.7084 ,1.56098 ,-0.60130 ,-5.89994 
423 ,81.9004 ,1.56292 ,-0.60472 ,-5.93352 
424 ,82.0926 ,1.56489 ,-0.62525 ,-6.13499 
425 ,82.3007 ,1.56696 ,-0.62525 ,-6.13499 
426 ,82.5086 ,1.56899 ,-0.64236 ,-6.30288 
427 ,82.6848 ,1.57084 ,-0.63894 ,-6.26930 
428 ,82.8768 ,1.57267 ,-0.65605 ,-6.43719 
429 ,83.0689 ,1.57463 ,-0.65947 ,-6.47077 
430 ,83.2610 ,1.57664 ,-0.65947 ,-6.47077 
431 ,83.4692 ,1.57855 ,-0.68685 ,-6.73940 
432 ,83.6769 ,1.58072 ,-0.69370 ,-6.80655 
433 ,83.8533 ,1.58254 ,-0.69712 ,-6.84013 
434 ,84.0610 ,1.58442 ,-0.70054 ,-6.87371 
435 ,84.2531 ,1.58652 ,-0.72450 ,-7.10876 
436 ,84.4618 ,1.58844 ,-0.72107 ,-7.07518 
437 ,84.6697 ,1.59059 ,-0.73476 ,-7.20949 
438 ,84.8618 ,1.59257 ,-0.73476 ,-7.20949 
439 ,85.0540 ,1.59445 ,-0.76214 ,-7.47812 
440 ,85.2458 ,1.59639 ,-0.73818 ,-7.24307 
441 ,85.4218 ,1.59820 ,-0.75872 ,-7.44454 
442 ,85.6140 ,1.60002 ,-0.78952 ,-7.74674 
443 ,85.8061 ,1.60203 ,-0.78267 ,-7.67959 
444 ,85.9982 ,1.60392 ,-0.78610 ,-7.71317 
445 ,86.1904 ,1.60585 ,-0.81005 ,-7.94821 
446 ,86.3820 ,1.60776 ,-0.79978 ,-7.84748 
447 ,86.5745 ,1.60968 ,-0.82716 ,-8.11611 
448 ,86.7825 ,1.61174 ,-0.82032 ,-8.04895 
449 ,86.9747 ,1.61369 ,-0.84427 ,-8.28400 
450 ,87.1664 ,1.61570 ,-0.84085 ,-8.25042 
451 ,87.3427 ,1.61741 ,-0.84769 ,-8.31758 
452 ,87.5345 ,1.61924 ,-0.86481 ,-8.48547 
453 ,87.7266 ,1.62117 ,-0.86481 ,-8.48547 
454 ,87.9188 ,1.62309 ,-0.88192 ,-8.65336 
455 ,88.1112 ,1.62504 ,-0.89903 ,-8.82125 
456 ,88.3192 ,1.62703 ,-0.88876 ,-8.72051 
457 ,88.5272 ,1.62912 ,-0.91614 ,-8.98914 
458 ,88.7193 ,1.63114 ,-0.90245 ,-8.85483 
459 ,88.9115 ,1.63310 ,-0.92983 ,-9.12345 
460 ,89.1035 ,1.63497 ,-0.92298 ,-9.05630 
461 ,89.2953 ,1.63686 ,-0.94694 ,-9.29135 
462 ,89.4876 ,1.63877 ,-0.94694 ,-9.29135 
463 ,89.6953 ,1.64083 ,-0.96063 ,-9.42566 
