Data stamp = , 28-04-2022 15:16:43 162

Calibration Values: 
Slope = , 26.54 , g/V 
Offset Voltage at no contact = , -0.501760 , V 

No , Time , Stage Position ,   Mass , Force 
   ,  (s) ,      (mm)      ,   (g)  , (mN)  

1 ,0.0000 ,0.74950 ,5.29510 ,51.95548 
2 ,0.3065 ,0.74974 ,5.29510 ,51.95548 
3 ,0.6729 ,0.75106 ,5.28483 ,51.85474 
4 ,0.8807 ,0.75308 ,5.29510 ,51.95548 
5 ,1.0729 ,0.75490 ,5.29510 ,51.95548 
6 ,1.2490 ,0.75675 ,5.27798 ,51.78758 
7 ,1.4409 ,0.75861 ,5.28825 ,51.88832 
8 ,1.6329 ,0.76048 ,5.28825 ,51.88832 
9 ,1.8092 ,0.76237 ,5.26772 ,51.68685 
10 ,2.0014 ,0.76423 ,5.26430 ,51.65327 
11 ,2.2254 ,0.76640 ,5.25061 ,51.51896 
12 ,2.4171 ,0.76841 ,5.23692 ,51.38464 
13 ,2.6096 ,0.77038 ,5.20954 ,51.11602 
14 ,2.8177 ,0.77237 ,5.18559 ,50.88097 
15 ,3.0098 ,0.77434 ,5.14794 ,50.51161 
16 ,3.2019 ,0.77622 ,5.15136 ,50.54519 
17 ,3.3938 ,0.77813 ,5.13083 ,50.34372 
18 ,3.5695 ,0.78004 ,5.09661 ,50.00793 
19 ,3.7621 ,0.78182 ,5.08634 ,49.90720 
20 ,3.9540 ,0.78374 ,5.06923 ,49.73931 
21 ,4.1462 ,0.78564 ,5.03843 ,49.43710 
22 ,4.3542 ,0.78774 ,5.03843 ,49.43710 
23 ,4.5463 ,0.78963 ,5.00763 ,49.13490 
24 ,4.7382 ,0.79157 ,4.99737 ,49.03416 
25 ,4.9465 ,0.79365 ,4.95972 ,48.66480 
26 ,5.1385 ,0.79558 ,4.95288 ,48.59764 
27 ,5.3142 ,0.79737 ,4.94946 ,48.56407 
28 ,5.5068 ,0.79924 ,4.89812 ,48.06039 
29 ,5.6984 ,0.80119 ,4.90155 ,48.09397 
30 ,5.8908 ,0.80311 ,4.88101 ,47.89250 
31 ,6.0830 ,0.80505 ,4.84679 ,47.55672 
32 ,6.2751 ,0.80699 ,4.85021 ,47.59030 
33 ,6.4673 ,0.80887 ,4.82284 ,47.32167 
34 ,6.6592 ,0.81074 ,4.80230 ,47.12020 
35 ,6.8513 ,0.81269 ,4.79888 ,47.08662 
36 ,7.0431 ,0.81460 ,4.76124 ,46.71726 
37 ,7.2353 ,0.81651 ,4.75439 ,46.65010 
38 ,7.4274 ,0.81851 ,4.72017 ,46.31432 
39 ,7.6353 ,0.82044 ,4.71675 ,46.28074 
40 ,7.8117 ,0.82238 ,4.70648 ,46.18001 
41 ,8.0357 ,0.82445 ,4.65173 ,45.64275 
42 ,8.2276 ,0.82652 ,4.65173 ,45.64275 
43 ,8.4198 ,0.82837 ,4.62777 ,45.40771 
44 ,8.6120 ,0.83028 ,4.61751 ,45.30697 
45 ,8.8039 ,0.83224 ,4.58328 ,44.97119 
46 ,8.9956 ,0.83417 ,4.59355 ,45.07192 
47 ,9.1881 ,0.83604 ,4.56275 ,44.76972 
48 ,9.3810 ,0.83798 ,4.53880 ,44.53467 
49 ,9.5724 ,0.83989 ,4.53880 ,44.53467 
50 ,9.7641 ,0.84183 ,4.50800 ,44.23247 
51 ,9.9720 ,0.84394 ,4.49431 ,44.09815 
52 ,10.1485 ,0.84573 ,4.48062 ,43.96384 
53 ,10.3565 ,0.84773 ,4.44982 ,43.66163 
54 ,10.5487 ,0.84967 ,4.42244 ,43.39301 
55 ,10.7729 ,0.85196 ,4.41902 ,43.35943 
56 ,10.9804 ,0.85404 ,4.38480 ,43.02365 
57 ,11.1725 ,0.85596 ,4.39164 ,43.09080 
58 ,11.3651 ,0.85784 ,4.34031 ,42.58713 
59 ,11.5729 ,0.85989 ,4.34716 ,42.65429 
60 ,11.7650 ,0.86181 ,4.32320 ,42.41924 
61 ,11.9731 ,0.86389 ,4.31293 ,42.31850 
62 ,12.1654 ,0.86583 ,4.27871 ,41.98272 
63 ,12.3572 ,0.86776 ,4.26160 ,41.81483 
64 ,12.5656 ,0.86983 ,4.23765 ,41.57978 
65 ,12.7577 ,0.87176 ,4.24107 ,41.61336 
66 ,12.9494 ,0.87376 ,4.21711 ,41.37831 
67 ,13.1416 ,0.87557 ,4.17947 ,41.00895 
68 ,13.3178 ,0.87742 ,4.17947 ,41.00895 
69 ,13.5259 ,0.87946 ,4.16578 ,40.87464 
70 ,13.7501 ,0.88154 ,4.15551 ,40.77390 
71 ,13.9417 ,0.88357 ,4.11787 ,40.40454 
72 ,14.1181 ,0.88541 ,4.09049 ,40.13591 
73 ,14.3103 ,0.88735 ,4.10760 ,40.30380 
74 ,14.5019 ,0.88917 ,4.06996 ,39.93444 
75 ,14.6942 ,0.89108 ,4.06312 ,39.86729 
76 ,14.8865 ,0.89300 ,4.04258 ,39.66582 
77 ,15.0942 ,0.89510 ,4.01520 ,39.39719 
78 ,15.2866 ,0.89697 ,4.00836 ,39.33003 
79 ,15.4788 ,0.89893 ,3.98783 ,39.12856 
80 ,15.6710 ,0.90089 ,3.97756 ,39.02783 
81 ,15.8793 ,0.90296 ,3.93650 ,38.62489 
82 ,16.0705 ,0.90489 ,3.92623 ,38.52415 
83 ,16.2467 ,0.90669 ,3.89543 ,38.22195 
84 ,16.4392 ,0.90849 ,3.88516 ,38.12122 
85 ,16.6467 ,0.91067 ,3.88174 ,38.08764 
86 ,16.8388 ,0.91262 ,3.85436 ,37.81901 
87 ,17.0148 ,0.91438 ,3.86805 ,37.95332 
88 ,17.1910 ,0.91616 ,3.80987 ,37.38249 
89 ,17.3832 ,0.91795 ,3.80987 ,37.38249 
90 ,17.5594 ,0.91978 ,3.77565 ,37.04671 
91 ,17.7511 ,0.92166 ,3.78250 ,37.11387 
92 ,17.9436 ,0.92355 ,3.75512 ,36.84524 
93 ,18.1354 ,0.92548 ,3.74143 ,36.71093 
94 ,18.3119 ,0.92736 ,3.72774 ,36.57661 
95 ,18.5037 ,0.92922 ,3.71063 ,36.40872 
96 ,18.6960 ,0.93115 ,3.67983 ,36.10652 
97 ,18.8880 ,0.93304 ,3.68668 ,36.17367 
98 ,19.0803 ,0.93498 ,3.63877 ,35.70358 
99 ,19.2723 ,0.93687 ,3.64561 ,35.77073 
100 ,19.4804 ,0.93896 ,3.62166 ,35.53569 
101 ,19.6722 ,0.94088 ,3.61481 ,35.46853 
102 ,19.8481 ,0.94267 ,3.60112 ,35.33422 
103 ,20.0406 ,0.94454 ,3.57375 ,35.06559 
104 ,20.2486 ,0.94665 ,3.56006 ,34.93128 
105 ,20.4246 ,0.94840 ,3.54637 ,34.79696 
106 ,20.6168 ,0.95031 ,3.51215 ,34.46118 
107 ,20.8084 ,0.95227 ,3.50872 ,34.42760 
108 ,21.0006 ,0.95416 ,3.47450 ,34.09182 
109 ,21.1930 ,0.95603 ,3.46766 ,34.02466 
110 ,21.3851 ,0.95798 ,3.45397 ,33.89035 
111 ,21.5773 ,0.95993 ,3.41975 ,33.55457 
112 ,21.7690 ,0.96186 ,3.41633 ,33.52099 
113 ,21.9613 ,0.96372 ,3.40606 ,33.42025 
114 ,22.1693 ,0.96582 ,3.38553 ,33.21878 
115 ,22.3615 ,0.96777 ,3.37184 ,33.08447 
116 ,22.5532 ,0.96965 ,3.34446 ,32.81584 
117 ,22.7457 ,0.97156 ,3.33077 ,32.68153 
118 ,22.9378 ,0.97359 ,3.31366 ,32.51364 
119 ,23.1135 ,0.97531 ,3.30339 ,32.41290 
120 ,23.3059 ,0.97723 ,3.28971 ,32.27859 
121 ,23.5138 ,0.97926 ,3.26233 ,32.00996 
122 ,23.7221 ,0.98136 ,3.23153 ,31.70776 
123 ,23.9138 ,0.98327 ,3.22126 ,31.60702 
124 ,24.1062 ,0.98518 ,3.22811 ,31.67418 
125 ,24.2981 ,0.98728 ,3.19731 ,31.37198 
126 ,24.4903 ,0.98900 ,3.18704 ,31.27124 
127 ,24.6663 ,0.99086 ,3.16309 ,31.03619 
128 ,24.8424 ,0.99260 ,3.14255 ,30.83472 
129 ,25.0342 ,0.99445 ,3.11860 ,30.59968 
130 ,25.2265 ,0.99634 ,3.11175 ,30.53252 
131 ,25.4346 ,0.99837 ,3.09122 ,30.33105 
132 ,25.6427 ,1.00050 ,3.06042 ,30.02884 
133 ,25.8188 ,1.00236 ,3.06042 ,30.02884 
134 ,26.0107 ,1.00426 ,3.03989 ,29.82737 
135 ,26.2189 ,1.00631 ,3.01251 ,29.55875 
136 ,26.4107 ,1.00829 ,3.00567 ,29.49159 
137 ,26.6189 ,1.01020 ,2.99198 ,29.35728 
138 ,26.8114 ,1.01229 ,2.97487 ,29.18939 
139 ,27.0029 ,1.01417 ,2.96118 ,29.05507 
140 ,27.1953 ,1.01606 ,2.92696 ,28.71929 
141 ,27.4032 ,1.01816 ,2.90985 ,28.55140 
142 ,27.5957 ,1.02013 ,2.88931 ,28.34993 
143 ,27.7875 ,1.02205 ,2.88931 ,28.34993 
144 ,27.9958 ,1.02405 ,2.85851 ,28.04772 
145 ,28.1878 ,1.02603 ,2.87220 ,28.18204 
146 ,28.3958 ,1.02810 ,2.83114 ,27.77910 
147 ,28.6039 ,1.03013 ,2.82429 ,27.71194 
148 ,28.7961 ,1.03204 ,2.79691 ,27.44332 
149 ,28.9882 ,1.03396 ,2.79349 ,27.40974 
150 ,29.1802 ,1.03591 ,2.75585 ,27.04038 
151 ,29.3723 ,1.03781 ,2.75585 ,27.04038 
152 ,29.5643 ,1.03973 ,2.73189 ,26.80533 
153 ,29.7725 ,1.04182 ,2.70794 ,26.57028 
154 ,29.9805 ,1.04390 ,2.69767 ,26.46954 
155 ,30.1728 ,1.04583 ,2.68398 ,26.33523 
156 ,30.3807 ,1.04792 ,2.66687 ,26.16734 
157 ,30.5569 ,1.04969 ,2.64292 ,25.93229 
158 ,30.7649 ,1.05171 ,2.62923 ,25.79798 
159 ,30.9731 ,1.05381 ,2.62581 ,25.76440 
160 ,31.1651 ,1.05572 ,2.60527 ,25.56293 
161 ,31.3730 ,1.05784 ,2.56763 ,25.19357 
162 ,31.5652 ,1.05973 ,2.58132 ,25.32788 
163 ,31.7890 ,1.06189 ,2.55052 ,25.02568 
164 ,31.9814 ,1.06393 ,2.52314 ,24.75705 
165 ,32.1734 ,1.06579 ,2.51287 ,24.65632 
166 ,32.3656 ,1.06775 ,2.49576 ,24.48842 
167 ,32.5577 ,1.06969 ,2.47181 ,24.25338 
168 ,32.7498 ,1.07158 ,2.47181 ,24.25338 
169 ,32.9579 ,1.07365 ,2.43416 ,23.88402 
170 ,33.1499 ,1.07560 ,2.43416 ,23.88402 
171 ,33.3420 ,1.07750 ,2.41021 ,23.64897 
172 ,33.5337 ,1.07944 ,2.39652 ,23.51465 
173 ,33.7101 ,1.08122 ,2.39652 ,23.51465 
174 ,33.9022 ,1.08308 ,2.37256 ,23.27961 
175 ,34.0782 ,1.08500 ,2.33492 ,22.91024 
176 ,34.2703 ,1.08681 ,2.35203 ,23.07814 
177 ,34.4464 ,1.08860 ,2.32808 ,22.84309 
178 ,34.6225 ,1.09037 ,2.29728 ,22.54088 
179 ,34.8464 ,1.09261 ,2.29043 ,22.47373 
180 ,35.0382 ,1.09448 ,2.26990 ,22.27226 
181 ,35.2307 ,1.09640 ,2.26306 ,22.20510 
182 ,35.4387 ,1.09843 ,2.23226 ,21.90290 
183 ,35.6149 ,1.10032 ,2.22541 ,21.83574 
184 ,35.8069 ,1.10207 ,2.22199 ,21.80216 
185 ,35.9831 ,1.10401 ,2.16381 ,21.23133 
186 ,36.1749 ,1.10579 ,2.17750 ,21.36564 
187 ,36.3829 ,1.10790 ,2.16723 ,21.26491 
188 ,36.5753 ,1.10984 ,2.14328 ,21.02986 
189 ,36.7832 ,1.11191 ,2.12959 ,20.89555 
190 ,36.9594 ,1.11378 ,2.10564 ,20.66050 
191 ,37.1512 ,1.11561 ,2.10221 ,20.62692 
192 ,37.3433 ,1.11746 ,2.09195 ,20.52619 
193 ,37.5517 ,1.11961 ,2.07484 ,20.35829 
194 ,37.7438 ,1.12147 ,2.05773 ,20.19040 
195 ,37.9359 ,1.12343 ,2.03377 ,19.95535 
196 ,38.1119 ,1.12532 ,2.03377 ,19.95535 
197 ,38.3035 ,1.12713 ,2.01666 ,19.78746 
198 ,38.4962 ,1.12901 ,1.99270 ,19.55241 
199 ,38.6882 ,1.13099 ,1.99270 ,19.55241 
200 ,38.8962 ,1.13297 ,1.95848 ,19.21663 
201 ,39.0723 ,1.13485 ,1.95848 ,19.21663 
202 ,39.2804 ,1.13685 ,1.93453 ,18.98158 
203 ,39.4565 ,1.13866 ,1.92084 ,18.84727 
204 ,39.6646 ,1.14068 ,1.91742 ,18.81369 
205 ,39.8567 ,1.14262 ,1.88319 ,18.47791 
206 ,40.0487 ,1.14455 ,1.89004 ,18.54507 
207 ,40.2569 ,1.14662 ,1.86266 ,18.27644 
208 ,40.4324 ,1.14851 ,1.85582 ,18.20928 
209 ,40.6249 ,1.15030 ,1.85240 ,18.17570 
210 ,40.8650 ,1.15272 ,1.83528 ,18.00781 
211 ,41.0571 ,1.15465 ,1.79764 ,17.63845 
212 ,41.2492 ,1.15653 ,1.80449 ,17.70561 
213 ,41.4252 ,1.15832 ,1.78737 ,17.53772 
214 ,41.6014 ,1.16019 ,1.75315 ,17.20193 
215 ,41.7930 ,1.16198 ,1.74289 ,17.10120 
216 ,41.9856 ,1.16387 ,1.75315 ,17.20193 
217 ,42.1934 ,1.16600 ,1.72235 ,16.89973 
218 ,42.4016 ,1.16810 ,1.70524 ,16.73184 
219 ,42.5775 ,1.16991 ,1.69155 ,16.59752 
220 ,42.7696 ,1.17179 ,1.68813 ,16.56395 
221 ,42.9779 ,1.17378 ,1.65733 ,16.26174 
222 ,43.1701 ,1.17578 ,1.66418 ,16.32890 
223 ,43.3622 ,1.17768 ,1.64364 ,16.12743 
224 ,43.5541 ,1.17959 ,1.62311 ,15.92596 
225 ,43.7621 ,1.18166 ,1.61969 ,15.89238 
226 ,43.9704 ,1.18368 ,1.60600 ,15.75807 
227 ,44.1624 ,1.18566 ,1.60258 ,15.72449 
228 ,44.3540 ,1.18762 ,1.54782 ,15.18724 
229 ,44.5305 ,1.18941 ,1.56493 ,15.35513 
230 ,44.7223 ,1.19126 ,1.54782 ,15.18724 
231 ,44.9146 ,1.19316 ,1.53413 ,15.05292 
232 ,45.1068 ,1.19512 ,1.52387 ,14.95219 
233 ,45.3148 ,1.19721 ,1.49307 ,14.64998 
234 ,45.5069 ,1.19910 ,1.49649 ,14.68356 
235 ,45.6991 ,1.20106 ,1.46911 ,14.41493 
236 ,45.8910 ,1.20294 ,1.45885 ,14.31420 
237 ,46.0828 ,1.20486 ,1.44858 ,14.21346 
238 ,46.2588 ,1.20675 ,1.42805 ,14.01199 
239 ,46.4508 ,1.20852 ,1.42805 ,14.01199 
240 ,46.6593 ,1.21051 ,1.41778 ,13.91126 
241 ,46.8992 ,1.21308 ,1.39040 ,13.64263 
242 ,47.0915 ,1.21499 ,1.37671 ,13.50832 
243 ,47.2835 ,1.21683 ,1.36303 ,13.37401 
244 ,47.4757 ,1.21876 ,1.35618 ,13.30685 
245 ,47.6679 ,1.22076 ,1.35960 ,13.34043 
246 ,47.8598 ,1.22257 ,1.31854 ,12.93749 
247 ,48.0356 ,1.22452 ,1.31169 ,12.87033 
248 ,48.2279 ,1.22634 ,1.30827 ,12.83675 
249 ,48.4362 ,1.22838 ,1.28774 ,12.63528 
250 ,48.6279 ,1.23034 ,1.28089 ,12.56813 
251 ,48.8043 ,1.23210 ,1.27747 ,12.53455 
252 ,48.9962 ,1.23398 ,1.23298 ,12.09803 
253 ,49.1885 ,1.23589 ,1.23983 ,12.16519 
254 ,49.3966 ,1.23800 ,1.20903 ,11.86298 
255 ,49.5888 ,1.23996 ,1.20903 ,11.86298 
256 ,49.7967 ,1.24203 ,1.17481 ,11.52720 
257 ,49.9889 ,1.24392 ,1.18165 ,11.59436 
258 ,50.1964 ,1.24599 ,1.15085 ,11.29215 
259 ,50.3730 ,1.24778 ,1.14401 ,11.22500 
260 ,50.5650 ,1.24966 ,1.15427 ,11.32573 
261 ,50.7891 ,1.25179 ,1.13032 ,11.09068 
262 ,50.9814 ,1.25386 ,1.12347 ,11.02353 
263 ,51.1734 ,1.25574 ,1.08925 ,10.68774 
264 ,51.3654 ,1.25768 ,1.09610 ,10.75490 
265 ,51.5575 ,1.25966 ,1.07556 ,10.55343 
266 ,51.7497 ,1.26150 ,1.06187 ,10.41912 
267 ,51.9416 ,1.26342 ,1.05161 ,10.31838 
268 ,52.1337 ,1.26530 ,1.01396 ,9.94902 
269 ,52.3414 ,1.26743 ,1.02765 ,10.08333 
270 ,52.5339 ,1.26937 ,1.00712 ,9.88186 
271 ,52.7420 ,1.27143 ,0.99343 ,9.74755 
272 ,52.9340 ,1.27335 ,0.97290 ,9.54608 
273 ,53.1423 ,1.27549 ,0.96948 ,9.51250 
274 ,53.3343 ,1.27740 ,0.94552 ,9.27745 
275 ,53.5101 ,1.27921 ,0.95237 ,9.34461 
276 ,53.7025 ,1.28106 ,0.95237 ,9.34461 
277 ,53.8945 ,1.28294 ,0.90788 ,8.90809 
278 ,54.1186 ,1.28508 ,0.90103 ,8.84094 
279 ,54.3267 ,1.28727 ,0.89077 ,8.74020 
280 ,54.5184 ,1.28918 ,0.87708 ,8.60589 
281 ,54.7109 ,1.29109 ,0.86339 ,8.47158 
282 ,54.9030 ,1.29303 ,0.86339 ,8.47158 
283 ,55.1271 ,1.29514 ,0.84628 ,8.30368 
284 ,55.3351 ,1.29740 ,0.81890 ,8.03506 
285 ,55.5272 ,1.29927 ,0.82232 ,8.06864 
286 ,55.7352 ,1.30141 ,0.80179 ,7.86717 
287 ,55.9272 ,1.30329 ,0.80863 ,7.93432 
288 ,56.1193 ,1.30521 ,0.79152 ,7.76643 
289 ,56.3115 ,1.30712 ,0.77099 ,7.56496 
290 ,56.5196 ,1.30915 ,0.76415 ,7.49780 
291 ,56.7112 ,1.31110 ,0.72992 ,7.16202 
292 ,56.8877 ,1.31294 ,0.74019 ,7.26276 
293 ,57.0636 ,1.31470 ,0.72308 ,7.09486 
294 ,57.2397 ,1.31646 ,0.69913 ,6.85982 
295 ,57.4479 ,1.31846 ,0.69913 ,6.85982 
296 ,57.6235 ,1.32023 ,0.69913 ,6.85982 
297 ,57.8162 ,1.32218 ,0.67859 ,6.65835 
298 ,58.0243 ,1.32419 ,0.67859 ,6.65835 
299 ,58.2322 ,1.32632 ,0.65806 ,6.45688 
300 ,58.4243 ,1.32823 ,0.66148 ,6.49046 
301 ,58.6164 ,1.33015 ,0.62384 ,6.12109 
302 ,58.8243 ,1.33225 ,0.62384 ,6.12109 
303 ,59.0165 ,1.33426 ,0.59988 ,5.88605 
304 ,59.2087 ,1.33614 ,0.59646 ,5.85247 
305 ,59.4007 ,1.33802 ,0.60330 ,5.91962 
306 ,59.5924 ,1.33993 ,0.56224 ,5.51668 
307 ,59.7848 ,1.34177 ,0.56566 ,5.55026 
308 ,59.9604 ,1.34365 ,0.56566 ,5.55026 
309 ,60.1530 ,1.34550 ,0.53486 ,5.24806 
310 ,60.3612 ,1.34760 ,0.53486 ,5.24806 
311 ,60.5531 ,1.34954 ,0.51433 ,5.04659 
312 ,60.7613 ,1.35159 ,0.50748 ,4.97943 
313 ,60.9533 ,1.35352 ,0.49722 ,4.87870 
314 ,61.1455 ,1.35543 ,0.49037 ,4.81154 
315 ,61.3532 ,1.35749 ,0.47668 ,4.67723 
316 ,61.5455 ,1.35945 ,0.46984 ,4.61007 
317 ,61.7697 ,1.36153 ,0.45273 ,4.44218 
318 ,61.9936 ,1.36381 ,0.43904 ,4.30787 
319 ,62.1858 ,1.36579 ,0.43562 ,4.27429 
320 ,62.3617 ,1.36764 ,0.42877 ,4.20713 
321 ,62.5540 ,1.36949 ,0.38086 ,3.73703 
322 ,62.7301 ,1.37137 ,0.38086 ,3.73703 
323 ,62.9382 ,1.37335 ,0.38429 ,3.77061 
324 ,63.1300 ,1.37528 ,0.36718 ,3.60272 
325 ,63.3224 ,1.37722 ,0.37060 ,3.63630 
326 ,63.5304 ,1.37930 ,0.34664 ,3.40125 
327 ,63.7226 ,1.38122 ,0.34322 ,3.36767 
328 ,63.9305 ,1.38326 ,0.31584 ,3.09905 
329 ,64.1228 ,1.38519 ,0.32269 ,3.16620 
330 ,64.3308 ,1.38726 ,0.29189 ,2.86400 
331 ,64.5389 ,1.38931 ,0.29873 ,2.93116 
332 ,64.7308 ,1.39125 ,0.28162 ,2.76326 
333 ,64.9229 ,1.39318 ,0.29189 ,2.86400 
334 ,65.1311 ,1.39529 ,0.25767 ,2.52822 
335 ,65.3228 ,1.39715 ,0.27135 ,2.66253 
336 ,65.5151 ,1.39911 ,0.23371 ,2.29317 
337 ,65.7233 ,1.40118 ,0.24055 ,2.36032 
338 ,65.9153 ,1.40317 ,0.21660 ,2.12528 
339 ,66.0915 ,1.40492 ,0.19607 ,1.92381 
340 ,66.2838 ,1.40683 ,0.20976 ,2.05812 
341 ,66.4757 ,1.40871 ,0.17553 ,1.72234 
342 ,66.6678 ,1.41068 ,0.16869 ,1.65518 
343 ,66.8758 ,1.41269 ,0.15500 ,1.52087 
344 ,67.0675 ,1.41467 ,0.14816 ,1.45371 
345 ,67.2601 ,1.41660 ,0.14816 ,1.45371 
346 ,67.4517 ,1.41852 ,0.11736 ,1.15151 
347 ,67.6440 ,1.42045 ,0.14131 ,1.38655 
348 ,67.8680 ,1.42269 ,0.10367 ,1.01719 
349 ,68.0604 ,1.42463 ,0.11051 ,1.08435 
350 ,68.2524 ,1.42648 ,0.06945 ,0.68141 
351 ,68.4443 ,1.42839 ,0.08656 ,0.84930 
352 ,68.6364 ,1.43045 ,0.06602 ,0.64783 
353 ,68.8286 ,1.43222 ,0.04891 ,0.47994 
354 ,69.0045 ,1.43403 ,0.05918 ,0.58067 
355 ,69.2128 ,1.43607 ,0.02496 ,0.24489 
356 ,69.4049 ,1.43800 ,0.03180 ,0.31205 
357 ,69.5965 ,1.43990 ,0.01811 ,0.17773 
358 ,69.7889 ,1.44183 ,0.01127 ,0.11058 
359 ,69.9971 ,1.44393 ,-0.00584 ,-0.05731 
360 ,70.1891 ,1.44585 ,-0.01953 ,-0.19163 
361 ,70.3818 ,1.44783 ,-0.01269 ,-0.12447 
362 ,70.5733 ,1.44970 ,-0.04006 ,-0.39310 
363 ,70.7491 ,1.45149 ,-0.05375 ,-0.52741 
364 ,70.9094 ,1.45320 ,-0.04691 ,-0.46025 
365 ,71.1016 ,1.45495 ,-0.06060 ,-0.59457 
366 ,71.2935 ,1.45686 ,-0.07428 ,-0.72888 
367 ,71.4857 ,1.45874 ,-0.09140 ,-0.89677 
368 ,71.6774 ,1.46069 ,-0.10166 ,-0.99751 
369 ,71.8700 ,1.46263 ,-0.10851 ,-1.06466 
370 ,72.0781 ,1.46470 ,-0.12219 ,-1.19898 
371 ,72.2700 ,1.46671 ,-0.12219 ,-1.19898 
372 ,72.4461 ,1.46844 ,-0.13588 ,-1.33329 
373 ,72.6221 ,1.47027 ,-0.13588 ,-1.33329 
374 ,72.7983 ,1.47199 ,-0.15299 ,-1.50118 
375 ,73.0064 ,1.47400 ,-0.15642 ,-1.53476 
376 ,73.2143 ,1.47611 ,-0.18379 ,-1.80338 
377 ,73.4066 ,1.47795 ,-0.17695 ,-1.73623 
378 ,73.5986 ,1.47994 ,-0.18722 ,-1.83696 
379 ,73.7907 ,1.48184 ,-0.20433 ,-2.00485 
380 ,73.9823 ,1.48373 ,-0.19406 ,-1.90412 
381 ,74.1588 ,1.48557 ,-0.21117 ,-2.07201 
382 ,74.3511 ,1.48739 ,-0.23170 ,-2.27348 
383 ,74.5427 ,1.48936 ,-0.23170 ,-2.27348 
384 ,74.7511 ,1.49149 ,-0.26935 ,-2.64284 
385 ,74.9430 ,1.49335 ,-0.25224 ,-2.47495 
386 ,75.1190 ,1.49520 ,-0.26250 ,-2.57569 
387 ,75.3111 ,1.49706 ,-0.28304 ,-2.77716 
388 ,75.5032 ,1.49897 ,-0.28304 ,-2.77716 
389 ,75.6953 ,1.50089 ,-0.30015 ,-2.94505 
390 ,75.9029 ,1.50296 ,-0.30015 ,-2.94505 
391 ,76.0953 ,1.50484 ,-0.32068 ,-3.14652 
392 ,76.2877 ,1.50684 ,-0.32752 ,-3.21367 
393 ,76.4957 ,1.50883 ,-0.34464 ,-3.38156 
394 ,76.7034 ,1.51090 ,-0.33779 ,-3.31441 
395 ,76.8800 ,1.51284 ,-0.37544 ,-3.68377 
396 ,77.0716 ,1.51466 ,-0.34806 ,-3.41514 
397 ,77.2639 ,1.51659 ,-0.36175 ,-3.54946 
398 ,77.4560 ,1.51842 ,-0.38570 ,-3.78450 
399 ,77.6481 ,1.52041 ,-0.39255 ,-3.85166 
400 ,77.8400 ,1.52230 ,-0.39255 ,-3.85166 
401 ,78.0324 ,1.52421 ,-0.42335 ,-4.15387 
402 ,78.2242 ,1.52615 ,-0.41308 ,-4.05313 
403 ,78.4003 ,1.52804 ,-0.42677 ,-4.18744 
404 ,78.5924 ,1.52984 ,-0.44046 ,-4.32176 
405 ,78.7846 ,1.53176 ,-0.44046 ,-4.32176 
406 ,78.9927 ,1.53384 ,-0.46099 ,-4.52323 
407 ,79.1847 ,1.53574 ,-0.45414 ,-4.45607 
408 ,79.3923 ,1.53777 ,-0.48494 ,-4.75828 
409 ,79.5848 ,1.53970 ,-0.47810 ,-4.69112 
410 ,79.7926 ,1.54185 ,-0.50548 ,-4.95975 
411 ,79.9852 ,1.54376 ,-0.49863 ,-4.89259 
412 ,80.1931 ,1.54580 ,-0.51917 ,-5.09406 
413 ,80.3853 ,1.54776 ,-0.53628 ,-5.26195 
414 ,80.5932 ,1.54978 ,-0.51574 ,-5.06048 
415 ,80.8014 ,1.55193 ,-0.52601 ,-5.16121 
416 ,80.9935 ,1.55383 ,-0.55339 ,-5.42984 
417 ,81.1857 ,1.55574 ,-0.56023 ,-5.49700 
418 ,81.3777 ,1.55769 ,-0.56365 ,-5.53058 
419 ,81.5535 ,1.55945 ,-0.58077 ,-5.69847 
420 ,81.7299 ,1.56126 ,-0.58419 ,-5.73205 
421 ,81.9221 ,1.56314 ,-0.59103 ,-5.79920 
422 ,82.1297 ,1.56520 ,-0.60472 ,-5.93352 
423 ,82.3062 ,1.56700 ,-0.62183 ,-6.10141 
424 ,82.5142 ,1.56904 ,-0.62525 ,-6.13499 
425 ,82.7382 ,1.57110 ,-0.62868 ,-6.16856 
426 ,82.9142 ,1.57305 ,-0.64579 ,-6.33646 
427 ,83.0905 ,1.57486 ,-0.65947 ,-6.47077 
428 ,83.2985 ,1.57692 ,-0.65263 ,-6.40361 
429 ,83.4907 ,1.57880 ,-0.68343 ,-6.70582 
430 ,83.6823 ,1.58073 ,-0.67316 ,-6.60508 
431 ,83.8748 ,1.58261 ,-0.67316 ,-6.60508 
432 ,84.0829 ,1.58470 ,-0.69027 ,-6.77297 
433 ,84.2910 ,1.58678 ,-0.71765 ,-7.04160 
434 ,84.4832 ,1.58872 ,-0.72107 ,-7.07518 
435 ,84.6751 ,1.59063 ,-0.72450 ,-7.10876 
436 ,84.8511 ,1.59251 ,-0.72792 ,-7.14233 
437 ,85.0272 ,1.59419 ,-0.74161 ,-7.27665 
438 ,85.2353 ,1.59623 ,-0.74845 ,-7.34380 
439 ,85.4432 ,1.59828 ,-0.75187 ,-7.37738 
440 ,85.6194 ,1.60015 ,-0.76898 ,-7.54527 
441 ,85.8115 ,1.60196 ,-0.78267 ,-7.67959 
442 ,86.0035 ,1.60395 ,-0.78610 ,-7.71317 
443 ,86.2117 ,1.60599 ,-0.79294 ,-7.78032 
444 ,86.4036 ,1.60792 ,-0.79636 ,-7.81390 
445 ,86.6119 ,1.60999 ,-0.81005 ,-7.94821 
446 ,86.8198 ,1.61207 ,-0.81005 ,-7.94821 
447 ,87.0121 ,1.61397 ,-0.82716 ,-8.11611 
448 ,87.2038 ,1.61588 ,-0.83401 ,-8.18326 
449 ,87.4123 ,1.61802 ,-0.85112 ,-8.35115 
450 ,87.6038 ,1.61991 ,-0.84769 ,-8.31758 
451 ,87.7964 ,1.62182 ,-0.85796 ,-8.41831 
452 ,87.9882 ,1.62379 ,-0.88876 ,-8.72051 
453 ,88.1806 ,1.62573 ,-0.88192 ,-8.65336 
454 ,88.3882 ,1.62778 ,-0.88876 ,-8.72051 
455 ,88.5645 ,1.62955 ,-0.89903 ,-8.82125 
456 ,88.7406 ,1.63137 ,-0.89218 ,-8.75409 
457 ,88.9168 ,1.63309 ,-0.90587 ,-8.88841 
458 ,89.1245 ,1.63507 ,-0.92640 ,-9.08988 
459 ,89.3170 ,1.63708 ,-0.91614 ,-8.98914 
460 ,89.5090 ,1.63899 ,-0.94009 ,-9.22419 
461 ,89.6852 ,1.64080 ,-0.95036 ,-9.32492 
462 ,89.8930 ,1.64280 ,-0.96747 ,-9.49282 
463 ,90.0854 ,1.64471 ,-0.96063 ,-9.42566 
