Data stamp = , 29-04-2022 06:08:36 539

Calibration Values: 
Slope = , 26.54 , g/V 
Offset Voltage at no contact = , -0.501760 , V 

No , Time , Stage Position ,   Mass , Force 
   ,  (s) ,      (mm)      ,   (g)  , (mN)  

1 ,0.0000 ,0.74939 ,5.30194 ,52.02263 
2 ,0.2998 ,0.74958 ,5.29510 ,51.95548 
3 ,0.6518 ,0.75087 ,5.29852 ,51.98905 
4 ,0.8446 ,0.75267 ,5.30194 ,52.02263 
5 ,1.0526 ,0.75455 ,5.30194 ,52.02263 
6 ,1.2605 ,0.75660 ,5.28141 ,51.82116 
7 ,1.4525 ,0.75850 ,5.29167 ,51.92190 
8 ,1.6447 ,0.76055 ,5.27456 ,51.75401 
9 ,1.8528 ,0.76265 ,5.25061 ,51.51896 
10 ,2.0609 ,0.76469 ,5.23692 ,51.38464 
11 ,2.2529 ,0.76662 ,5.23350 ,51.35107 
12 ,2.4287 ,0.76847 ,5.21981 ,51.21675 
13 ,2.6052 ,0.77017 ,5.19585 ,50.98170 
14 ,2.7968 ,0.77202 ,5.17190 ,50.74666 
15 ,2.9894 ,0.77398 ,5.16848 ,50.71308 
16 ,3.1974 ,0.77606 ,5.13083 ,50.34372 
17 ,3.3897 ,0.77796 ,5.12399 ,50.27656 
18 ,3.5978 ,0.78005 ,5.09319 ,49.97436 
19 ,3.7897 ,0.78198 ,5.08292 ,49.87362 
20 ,3.9815 ,0.78395 ,5.08292 ,49.87362 
21 ,4.1898 ,0.78597 ,5.03843 ,49.43710 
22 ,4.3817 ,0.78790 ,5.02132 ,49.26921 
23 ,4.5738 ,0.78978 ,5.00421 ,49.10132 
24 ,4.7820 ,0.79192 ,4.97683 ,48.83269 
25 ,4.9737 ,0.79395 ,4.97341 ,48.79911 
26 ,5.1659 ,0.79574 ,4.95288 ,48.59764 
27 ,5.3742 ,0.79781 ,4.92208 ,48.29544 
28 ,5.5821 ,0.79997 ,4.90497 ,48.12755 
29 ,5.7739 ,0.80195 ,4.90155 ,48.09397 
30 ,5.9661 ,0.80377 ,4.86732 ,47.75819 
31 ,6.1581 ,0.80565 ,4.83652 ,47.45598 
32 ,6.3502 ,0.80759 ,4.84679 ,47.55672 
33 ,6.5423 ,0.80951 ,4.80915 ,47.18736 
34 ,6.7348 ,0.81142 ,4.78861 ,46.98589 
35 ,6.9747 ,0.81381 ,4.76124 ,46.71726 
36 ,7.1826 ,0.81591 ,4.75439 ,46.65010 
37 ,7.3751 ,0.81778 ,4.71333 ,46.24716 
38 ,7.5827 ,0.81992 ,4.71675 ,46.28074 
39 ,7.7911 ,0.82189 ,4.69279 ,46.04569 
40 ,7.9992 ,0.82409 ,4.65515 ,45.67633 
41 ,8.2076 ,0.82614 ,4.65173 ,45.64275 
42 ,8.4155 ,0.82827 ,4.61751 ,45.30697 
43 ,8.6077 ,0.83012 ,4.61408 ,45.27339 
44 ,8.8158 ,0.83226 ,4.58328 ,44.97119 
45 ,9.0079 ,0.83419 ,4.58671 ,45.00477 
46 ,9.2160 ,0.83627 ,4.55591 ,44.70256 
47 ,9.4236 ,0.83827 ,4.53880 ,44.53467 
48 ,9.6161 ,0.84024 ,4.50457 ,44.19889 
49 ,9.8080 ,0.84212 ,4.51142 ,44.26604 
50 ,10.0002 ,0.84403 ,4.47035 ,43.86310 
51 ,10.1923 ,0.84598 ,4.45324 ,43.69521 
52 ,10.3844 ,0.84787 ,4.44982 ,43.66163 
53 ,10.5923 ,0.84997 ,4.42586 ,43.42659 
54 ,10.7846 ,0.85196 ,4.41902 ,43.35943 
55 ,10.9925 ,0.85397 ,4.38480 ,43.02365 
56 ,11.1681 ,0.85586 ,4.37795 ,42.95649 
57 ,11.3602 ,0.85766 ,4.35400 ,42.72144 
58 ,11.5523 ,0.85955 ,4.34373 ,42.62071 
59 ,11.7608 ,0.86165 ,4.33004 ,42.48639 
60 ,12.0168 ,0.86417 ,4.29582 ,42.15061 
61 ,12.2411 ,0.86644 ,4.26845 ,41.88198 
62 ,12.4328 ,0.86837 ,4.25133 ,41.71409 
63 ,12.6092 ,0.87018 ,4.24449 ,41.64694 
64 ,12.8011 ,0.87201 ,4.23080 ,41.51262 
65 ,12.9773 ,0.87386 ,4.18631 ,41.07611 
66 ,13.1695 ,0.87579 ,4.18631 ,41.07611 
67 ,13.3617 ,0.87765 ,4.17605 ,40.97537 
68 ,13.5537 ,0.87959 ,4.14183 ,40.63959 
69 ,13.7456 ,0.88154 ,4.14183 ,40.63959 
70 ,13.9376 ,0.88345 ,4.11445 ,40.37096 
71 ,14.1460 ,0.88548 ,4.11103 ,40.33738 
72 ,14.3379 ,0.88745 ,4.06654 ,39.90087 
73 ,14.5300 ,0.88930 ,4.06654 ,39.90087 
74 ,14.7220 ,0.89127 ,4.03916 ,39.63224 
75 ,14.8978 ,0.89316 ,4.01520 ,39.39719 
76 ,15.0902 ,0.89495 ,4.01178 ,39.36361 
77 ,15.2822 ,0.89679 ,3.98441 ,39.09499 
78 ,15.4745 ,0.89874 ,3.98098 ,39.06141 
79 ,15.6825 ,0.90087 ,3.97756 ,39.02783 
80 ,15.8745 ,0.90281 ,3.93307 ,38.59131 
81 ,16.0988 ,0.90507 ,3.91938 ,38.45700 
82 ,16.2909 ,0.90699 ,3.89885 ,38.25553 
83 ,16.4990 ,0.90892 ,3.87832 ,38.05406 
84 ,16.6913 ,0.91099 ,3.86463 ,37.91975 
85 ,16.9151 ,0.91309 ,3.83725 ,37.65112 
86 ,17.1068 ,0.91510 ,3.82699 ,37.55038 
87 ,17.2992 ,0.91701 ,3.79619 ,37.24818 
88 ,17.4915 ,0.91892 ,3.77565 ,37.04671 
89 ,17.6994 ,0.92103 ,3.76196 ,36.91240 
90 ,17.9075 ,0.92300 ,3.74485 ,36.74450 
91 ,18.0995 ,0.92511 ,3.72090 ,36.50946 
92 ,18.2915 ,0.92687 ,3.70037 ,36.30799 
93 ,18.4997 ,0.92906 ,3.67641 ,36.07294 
94 ,18.7077 ,0.93109 ,3.69010 ,36.20725 
95 ,18.8996 ,0.93304 ,3.64903 ,35.80431 
96 ,19.1079 ,0.93511 ,3.63534 ,35.67000 
97 ,19.2995 ,0.93696 ,3.61481 ,35.46853 
98 ,19.4917 ,0.93890 ,3.60112 ,35.33422 
99 ,19.6842 ,0.94085 ,3.60454 ,35.36779 
100 ,19.8762 ,0.94281 ,3.56006 ,34.93128 
101 ,20.0843 ,0.94489 ,3.55321 ,34.86412 
102 ,20.2764 ,0.94680 ,3.52241 ,34.56192 
103 ,20.4844 ,0.94885 ,3.52241 ,34.56192 
104 ,20.7085 ,0.95098 ,3.48819 ,34.22613 
105 ,20.9004 ,0.95307 ,3.48135 ,34.15898 
106 ,21.0927 ,0.95493 ,3.45397 ,33.89035 
107 ,21.2847 ,0.95687 ,3.45739 ,33.92393 
108 ,21.4765 ,0.95877 ,3.41633 ,33.52099 
109 ,21.6687 ,0.96063 ,3.42317 ,33.58814 
110 ,21.8611 ,0.96261 ,3.39237 ,33.28594 
111 ,22.0530 ,0.96454 ,3.37184 ,33.08447 
112 ,22.2291 ,0.96640 ,3.36157 ,32.98374 
113 ,22.4369 ,0.96824 ,3.32735 ,32.64795 
114 ,22.6294 ,0.97032 ,3.33077 ,32.68153 
115 ,22.8373 ,0.97241 ,3.28971 ,32.27859 
116 ,23.0453 ,0.97443 ,3.29313 ,32.31217 
117 ,23.2377 ,0.97633 ,3.25891 ,31.97639 
118 ,23.4453 ,0.97847 ,3.24522 ,31.84207 
119 ,23.6374 ,0.98035 ,3.21100 ,31.50629 
120 ,23.8295 ,0.98226 ,3.22126 ,31.60702 
121 ,24.0215 ,0.98416 ,3.19388 ,31.33840 
122 ,24.2141 ,0.98620 ,3.16651 ,31.06977 
123 ,24.4062 ,0.98803 ,3.16993 ,31.10335 
124 ,24.6142 ,0.99004 ,3.12544 ,30.66683 
125 ,24.8063 ,0.99211 ,3.12544 ,30.66683 
126 ,25.0143 ,0.99413 ,3.08780 ,30.29747 
127 ,25.2064 ,0.99608 ,3.09122 ,30.33105 
128 ,25.4141 ,0.99809 ,3.06726 ,30.09600 
129 ,25.6066 ,0.99999 ,3.06042 ,30.02884 
130 ,25.7982 ,1.00207 ,3.01935 ,29.62590 
131 ,25.9908 ,1.00391 ,3.00224 ,29.45801 
132 ,26.1988 ,1.00603 ,3.00909 ,29.52517 
133 ,26.3908 ,1.00787 ,2.97144 ,29.15581 
134 ,26.5990 ,1.00998 ,2.96118 ,29.05507 
135 ,26.7912 ,1.01194 ,2.94407 ,28.88718 
136 ,26.9830 ,1.01386 ,2.93038 ,28.75287 
137 ,27.1750 ,1.01583 ,2.91669 ,28.61856 
138 ,27.3673 ,1.01767 ,2.89958 ,28.45066 
139 ,27.5752 ,1.01971 ,2.87562 ,28.21562 
140 ,27.7675 ,1.02170 ,2.86193 ,28.08130 
141 ,27.9591 ,1.02360 ,2.84825 ,27.94699 
142 ,28.1516 ,1.02555 ,2.81745 ,27.64479 
143 ,28.3436 ,1.02747 ,2.82771 ,27.74552 
144 ,28.5358 ,1.02938 ,2.78322 ,27.30900 
145 ,28.7438 ,1.03144 ,2.78322 ,27.30900 
146 ,28.9359 ,1.03329 ,2.75927 ,27.07395 
147 ,29.1280 ,1.03527 ,2.73874 ,26.87248 
148 ,29.3361 ,1.03734 ,2.71136 ,26.60386 
149 ,29.5442 ,1.03943 ,2.72163 ,26.70459 
150 ,29.7362 ,1.04138 ,2.69083 ,26.40239 
151 ,29.9443 ,1.04335 ,2.67029 ,26.20092 
152 ,30.1362 ,1.04539 ,2.66687 ,26.16734 
153 ,30.3282 ,1.04739 ,2.65318 ,26.03303 
154 ,30.5205 ,1.04916 ,2.63949 ,25.89871 
155 ,30.7123 ,1.05103 ,2.60185 ,25.52935 
156 ,30.9046 ,1.05301 ,2.59843 ,25.49577 
157 ,31.0967 ,1.05489 ,2.56763 ,25.19357 
158 ,31.2885 ,1.05687 ,2.56078 ,25.12641 
159 ,31.4810 ,1.05878 ,2.54710 ,24.99210 
160 ,31.6729 ,1.06068 ,2.52314 ,24.75705 
161 ,31.8649 ,1.06269 ,2.50945 ,24.62274 
162 ,32.0572 ,1.06458 ,2.50261 ,24.55558 
163 ,32.2492 ,1.06648 ,2.47865 ,24.32053 
164 ,32.4409 ,1.06840 ,2.47181 ,24.25338 
165 ,32.6169 ,1.07025 ,2.44443 ,23.98475 
166 ,32.8091 ,1.07205 ,2.43074 ,23.85044 
167 ,32.9852 ,1.07396 ,2.42732 ,23.81686 
168 ,33.1772 ,1.07573 ,2.41363 ,23.68255 
169 ,33.3694 ,1.07764 ,2.37599 ,23.31318 
170 ,33.5615 ,1.07957 ,2.36914 ,23.24603 
171 ,33.7375 ,1.08146 ,2.34519 ,23.01098 
172 ,33.9296 ,1.08321 ,2.33492 ,22.91024 
173 ,34.1216 ,1.08515 ,2.32808 ,22.84309 
174 ,34.3138 ,1.08707 ,2.31097 ,22.67520 
175 ,34.5058 ,1.08904 ,2.29043 ,22.47373 
176 ,34.6979 ,1.09098 ,2.28017 ,22.37299 
177 ,34.8900 ,1.09286 ,2.24937 ,22.07079 
178 ,35.0660 ,1.09471 ,2.24594 ,22.03721 
179 ,35.2581 ,1.09652 ,2.23226 ,21.90290 
180 ,35.4502 ,1.09846 ,2.20488 ,21.63427 
181 ,35.6422 ,1.10035 ,2.20488 ,21.63427 
182 ,35.8663 ,1.10250 ,2.17066 ,21.29849 
183 ,36.0584 ,1.10452 ,2.17408 ,21.33206 
184 ,36.2505 ,1.10640 ,2.13986 ,20.99628 
185 ,36.4266 ,1.10834 ,2.13301 ,20.92912 
186 ,36.6187 ,1.11013 ,2.11248 ,20.72766 
187 ,36.8108 ,1.11203 ,2.08510 ,20.45903 
188 ,36.9869 ,1.11392 ,2.09195 ,20.52619 
189 ,37.1791 ,1.11577 ,2.07484 ,20.35829 
190 ,37.3874 ,1.11784 ,2.05773 ,20.19040 
191 ,37.5794 ,1.11974 ,2.03719 ,19.98893 
192 ,37.7713 ,1.12172 ,2.02008 ,19.82104 
193 ,37.9796 ,1.12378 ,2.01666 ,19.78746 
194 ,38.1877 ,1.12583 ,1.98586 ,19.48526 
195 ,38.3798 ,1.12775 ,1.99613 ,19.58599 
196 ,38.5716 ,1.12966 ,1.95164 ,19.14948 
197 ,38.7797 ,1.13176 ,1.97217 ,19.35094 
198 ,38.9880 ,1.13383 ,1.92084 ,18.84727 
199 ,39.1799 ,1.13573 ,1.91742 ,18.81369 
200 ,39.3718 ,1.13770 ,1.90373 ,18.67938 
201 ,39.5643 ,1.13959 ,1.91057 ,18.74654 
202 ,39.7721 ,1.14170 ,1.86608 ,18.31002 
203 ,39.9801 ,1.14361 ,1.87293 ,18.37717 
204 ,40.1883 ,1.14584 ,1.82502 ,17.90708 
205 ,40.3967 ,1.14788 ,1.81475 ,17.80634 
206 ,40.5886 ,1.14984 ,1.81475 ,17.80634 
207 ,40.7806 ,1.15173 ,1.80791 ,17.73919 
208 ,40.9726 ,1.15364 ,1.78395 ,17.50414 
209 ,41.1643 ,1.15559 ,1.78053 ,17.47056 
210 ,41.3408 ,1.15745 ,1.76000 ,17.26909 
211 ,41.5325 ,1.15921 ,1.73604 ,17.03404 
212 ,41.7249 ,1.16119 ,1.73604 ,17.03404 
213 ,41.9171 ,1.16314 ,1.72920 ,16.96689 
214 ,42.1249 ,1.16507 ,1.70524 ,16.73184 
215 ,42.3173 ,1.16711 ,1.70524 ,16.73184 
216 ,42.5091 ,1.16905 ,1.67102 ,16.39605 
217 ,42.7016 ,1.17099 ,1.67102 ,16.39605 
218 ,42.9093 ,1.17303 ,1.64707 ,16.16101 
219 ,43.1014 ,1.17492 ,1.64707 ,16.16101 
220 ,43.2932 ,1.17683 ,1.61627 ,15.85880 
221 ,43.4858 ,1.17883 ,1.61627 ,15.85880 
222 ,43.6941 ,1.18087 ,1.59231 ,15.62375 
223 ,43.8858 ,1.18282 ,1.56836 ,15.38871 
224 ,44.0781 ,1.18470 ,1.56493 ,15.35513 
225 ,44.2861 ,1.18681 ,1.54098 ,15.12008 
226 ,44.4779 ,1.18865 ,1.55467 ,15.25439 
227 ,44.6863 ,1.19066 ,1.51360 ,14.85145 
228 ,44.8945 ,1.19291 ,1.51018 ,14.81787 
229 ,45.0865 ,1.19482 ,1.48965 ,14.61640 
230 ,45.2785 ,1.19673 ,1.49307 ,14.64998 
231 ,45.5021 ,1.19884 ,1.45885 ,14.31420 
232 ,45.6948 ,1.20092 ,1.45542 ,14.28062 
233 ,45.9028 ,1.20295 ,1.45200 ,14.24704 
234 ,46.0949 ,1.20486 ,1.40751 ,13.81053 
235 ,46.3028 ,1.20693 ,1.41436 ,13.87768 
236 ,46.4948 ,1.20885 ,1.40067 ,13.74337 
237 ,46.6870 ,1.21079 ,1.37329 ,13.47474 
238 ,46.8789 ,1.21274 ,1.38356 ,13.57548 
239 ,47.0873 ,1.21468 ,1.34934 ,13.23969 
240 ,47.2793 ,1.21671 ,1.34591 ,13.20612 
241 ,47.4710 ,1.21868 ,1.32880 ,13.03822 
242 ,47.6471 ,1.22048 ,1.33223 ,13.07180 
243 ,47.8554 ,1.22236 ,1.31512 ,12.90391 
244 ,48.0637 ,1.22448 ,1.30827 ,12.83675 
245 ,48.2718 ,1.22658 ,1.27747 ,12.53455 
246 ,48.4638 ,1.22856 ,1.26378 ,12.40024 
247 ,48.6556 ,1.23048 ,1.25352 ,12.29950 
248 ,48.8478 ,1.23239 ,1.21929 ,11.96372 
249 ,49.0399 ,1.23426 ,1.22272 ,11.99730 
250 ,49.2319 ,1.23621 ,1.20903 ,11.86298 
251 ,49.4242 ,1.23824 ,1.20561 ,11.82941 
252 ,49.6163 ,1.24010 ,1.18165 ,11.59436 
253 ,49.8082 ,1.24201 ,1.16112 ,11.39289 
254 ,50.0163 ,1.24410 ,1.16112 ,11.39289 
255 ,50.2243 ,1.24612 ,1.16454 ,11.42647 
256 ,50.4167 ,1.24808 ,1.13374 ,11.12426 
257 ,50.6407 ,1.25034 ,1.13032 ,11.09068 
258 ,50.8325 ,1.25222 ,1.10636 ,10.85563 
259 ,51.0085 ,1.25408 ,1.09952 ,10.78848 
260 ,51.2010 ,1.25586 ,1.09267 ,10.72132 
261 ,51.4091 ,1.25799 ,1.06530 ,10.45270 
262 ,51.6011 ,1.25990 ,1.06872 ,10.48627 
263 ,51.8090 ,1.26197 ,1.04476 ,10.25123 
264 ,52.0010 ,1.26388 ,1.04134 ,10.21765 
265 ,52.2252 ,1.26606 ,1.00712 ,9.88186 
266 ,52.4333 ,1.26823 ,0.99343 ,9.74755 
267 ,52.6255 ,1.27011 ,0.99001 ,9.71397 
268 ,52.8014 ,1.27205 ,0.97632 ,9.57966 
269 ,52.9935 ,1.27385 ,0.96605 ,9.47892 
270 ,53.1692 ,1.27567 ,0.96263 ,9.44535 
271 ,53.3618 ,1.27750 ,0.95237 ,9.34461 
272 ,53.5859 ,1.27969 ,0.92157 ,9.04241 
273 ,53.7939 ,1.28182 ,0.91130 ,8.94167 
274 ,54.0019 ,1.28389 ,0.91814 ,9.00883 
275 ,54.1940 ,1.28583 ,0.88392 ,8.67305 
276 ,54.3861 ,1.28777 ,0.88050 ,8.63947 
277 ,54.5942 ,1.28981 ,0.85997 ,8.43800 
278 ,54.7702 ,1.29169 ,0.85312 ,8.37084 
279 ,54.9623 ,1.29344 ,0.84628 ,8.30368 
280 ,55.1544 ,1.29539 ,0.81890 ,8.03506 
281 ,55.3300 ,1.29731 ,0.81548 ,8.00148 
282 ,55.5224 ,1.29911 ,0.82232 ,8.06864 
283 ,55.7307 ,1.30117 ,0.77441 ,7.59854 
284 ,55.9387 ,1.30316 ,0.79837 ,7.83359 
285 ,56.1468 ,1.30536 ,0.76757 ,7.53138 
286 ,56.3390 ,1.30733 ,0.75388 ,7.39707 
287 ,56.5469 ,1.30938 ,0.74019 ,7.26276 
288 ,56.7551 ,1.31142 ,0.72650 ,7.12844 
289 ,56.9473 ,1.31340 ,0.71624 ,7.02771 
290 ,57.1553 ,1.31531 ,0.70939 ,6.96055 
291 ,57.3475 ,1.31731 ,0.69228 ,6.79266 
292 ,57.5390 ,1.31925 ,0.67859 ,6.65835 
293 ,57.7316 ,1.32119 ,0.66490 ,6.52403 
294 ,57.9236 ,1.32307 ,0.66833 ,6.55761 
295 ,58.1154 ,1.32506 ,0.65464 ,6.42330 
296 ,58.3077 ,1.32699 ,0.62042 ,6.08752 
297 ,58.5000 ,1.32885 ,0.62726 ,6.15467 
298 ,58.6922 ,1.33079 ,0.60330 ,5.91962 
299 ,58.9001 ,1.33293 ,0.62042 ,6.08752 
300 ,59.0918 ,1.33483 ,0.57935 ,5.68458 
301 ,59.2844 ,1.33674 ,0.58619 ,5.75173 
302 ,59.4759 ,1.33860 ,0.55539 ,5.44953 
303 ,59.6680 ,1.34057 ,0.54513 ,5.34879 
304 ,59.8605 ,1.34251 ,0.54855 ,5.38237 
305 ,60.0686 ,1.34455 ,0.52459 ,5.14732 
306 ,60.2604 ,1.34650 ,0.52459 ,5.14732 
307 ,60.4525 ,1.34840 ,0.48695 ,4.77796 
308 ,60.6446 ,1.35032 ,0.48353 ,4.74438 
309 ,60.8209 ,1.35217 ,0.47668 ,4.67723 
310 ,61.0128 ,1.35397 ,0.46642 ,4.57649 
311 ,61.2051 ,1.35591 ,0.45957 ,4.50934 
312 ,61.3972 ,1.35782 ,0.46300 ,4.54291 
313 ,61.5892 ,1.35977 ,0.43220 ,4.24071 
314 ,61.7809 ,1.36161 ,0.43220 ,4.24071 
315 ,61.9732 ,1.36359 ,0.40140 ,3.93850 
316 ,62.1813 ,1.36563 ,0.41851 ,4.10640 
317 ,62.3735 ,1.36757 ,0.38429 ,3.77061 
318 ,62.5655 ,1.36955 ,0.38429 ,3.77061 
319 ,62.7735 ,1.37168 ,0.36375 ,3.56914 
320 ,62.9655 ,1.37351 ,0.36375 ,3.56914 
321 ,63.1579 ,1.37551 ,0.35349 ,3.46841 
322 ,63.3498 ,1.37735 ,0.33638 ,3.30052 
323 ,63.5417 ,1.37926 ,0.34664 ,3.40125 
324 ,63.7497 ,1.38141 ,0.29873 ,2.93116 
325 ,63.9418 ,1.38325 ,0.30558 ,2.99831 
326 ,64.1180 ,1.38513 ,0.29189 ,2.86400 
327 ,64.3103 ,1.38695 ,0.27478 ,2.69611 
328 ,64.5022 ,1.38883 ,0.27820 ,2.72969 
329 ,64.6947 ,1.39074 ,0.25767 ,2.52822 
330 ,64.8866 ,1.39271 ,0.25424 ,2.49464 
331 ,65.0782 ,1.39469 ,0.24398 ,2.39390 
332 ,65.2706 ,1.39654 ,0.23713 ,2.32675 
333 ,65.4787 ,1.39867 ,0.23029 ,2.25959 
334 ,65.6706 ,1.40051 ,0.20976 ,2.05812 
335 ,65.8629 ,1.40246 ,0.20976 ,2.05812 
336 ,66.0548 ,1.40438 ,0.18580 ,1.82307 
337 ,66.2470 ,1.40632 ,0.15500 ,1.52087 
338 ,66.4391 ,1.40823 ,0.17896 ,1.75592 
339 ,66.6310 ,1.41014 ,0.15158 ,1.48729 
340 ,66.8232 ,1.41208 ,0.15500 ,1.52087 
341 ,67.0315 ,1.41416 ,0.12420 ,1.21866 
342 ,67.2232 ,1.41609 ,0.12078 ,1.18508 
343 ,67.4157 ,1.41806 ,0.11051 ,1.08435 
344 ,67.6236 ,1.42005 ,0.11051 ,1.08435 
345 ,67.8159 ,1.42204 ,0.08998 ,0.88288 
346 ,68.0239 ,1.42405 ,0.08998 ,0.88288 
347 ,68.2319 ,1.42623 ,0.06602 ,0.64783 
348 ,68.4240 ,1.42803 ,0.06602 ,0.64783 
349 ,68.6319 ,1.43018 ,0.03522 ,0.34563 
350 ,68.8241 ,1.43206 ,0.04549 ,0.44636 
351 ,69.0164 ,1.43396 ,0.01811 ,0.17773 
352 ,69.2244 ,1.43607 ,0.01469 ,0.14416 
353 ,69.4161 ,1.43801 ,0.01469 ,0.14416 
354 ,69.6086 ,1.43993 ,-0.01611 ,-0.15805 
355 ,69.8166 ,1.44195 ,-0.01953 ,-0.19163 
356 ,70.0087 ,1.44393 ,-0.02295 ,-0.22520 
357 ,70.2009 ,1.44576 ,-0.02637 ,-0.25878 
358 ,70.4088 ,1.44789 ,-0.05375 ,-0.52741 
359 ,70.6010 ,1.44977 ,-0.05033 ,-0.49383 
360 ,70.8091 ,1.45197 ,-0.07428 ,-0.72888 
361 ,70.9850 ,1.45380 ,-0.06402 ,-0.62814 
362 ,71.1771 ,1.45556 ,-0.08455 ,-0.82961 
363 ,71.3691 ,1.45751 ,-0.11535 ,-1.13182 
364 ,71.5610 ,1.45945 ,-0.09482 ,-0.93035 
365 ,71.7530 ,1.46135 ,-0.11193 ,-1.09824 
366 ,71.9449 ,1.46328 ,-0.12219 ,-1.19898 
367 ,72.1370 ,1.46525 ,-0.11877 ,-1.16540 
368 ,72.3296 ,1.46715 ,-0.15642 ,-1.53476 
369 ,72.5376 ,1.46919 ,-0.15299 ,-1.50118 
370 ,72.7298 ,1.47114 ,-0.17011 ,-1.66907 
371 ,72.9058 ,1.47296 ,-0.18037 ,-1.76981 
372 ,73.0981 ,1.47477 ,-0.17695 ,-1.73623 
373 ,73.3060 ,1.47690 ,-0.19748 ,-1.93770 
374 ,73.4979 ,1.47879 ,-0.19406 ,-1.90412 
375 ,73.7057 ,1.48085 ,-0.22144 ,-2.17275 
376 ,73.9142 ,1.48287 ,-0.20775 ,-2.03843 
377 ,74.1223 ,1.48502 ,-0.23170 ,-2.27348 
378 ,74.3144 ,1.48693 ,-0.24539 ,-2.40779 
379 ,74.5224 ,1.48894 ,-0.25224 ,-2.47495 
380 ,74.7145 ,1.49089 ,-0.26935 ,-2.64284 
381 ,74.9066 ,1.49287 ,-0.27961 ,-2.74358 
382 ,75.0989 ,1.49487 ,-0.28304 ,-2.77716 
383 ,75.3066 ,1.49687 ,-0.30699 ,-3.01220 
384 ,75.4990 ,1.49879 ,-0.29673 ,-2.91147 
385 ,75.7067 ,1.50087 ,-0.32068 ,-3.14652 
386 ,75.8986 ,1.50275 ,-0.31384 ,-3.07936 
387 ,76.0910 ,1.50472 ,-0.34806 ,-3.41514 
388 ,76.2994 ,1.50678 ,-0.34806 ,-3.41514 
389 ,76.4913 ,1.50872 ,-0.36175 ,-3.54946 
390 ,76.6833 ,1.51064 ,-0.36859 ,-3.61661 
391 ,76.8752 ,1.51249 ,-0.38228 ,-3.75093 
392 ,77.0515 ,1.51443 ,-0.38570 ,-3.78450 
393 ,77.2433 ,1.51621 ,-0.38570 ,-3.78450 
394 ,77.4513 ,1.51823 ,-0.39255 ,-3.85166 
395 ,77.6598 ,1.52043 ,-0.40281 ,-3.95240 
396 ,77.8678 ,1.52249 ,-0.43019 ,-4.22102 
397 ,78.0594 ,1.52438 ,-0.43361 ,-4.25460 
398 ,78.2521 ,1.52631 ,-0.44730 ,-4.38891 
399 ,78.4600 ,1.52841 ,-0.44388 ,-4.35534 
400 ,78.6521 ,1.53030 ,-0.47126 ,-4.62396 
401 ,78.8763 ,1.53245 ,-0.47126 ,-4.62396 
402 ,79.0685 ,1.53453 ,-0.49179 ,-4.82543 
403 ,79.2763 ,1.53656 ,-0.48494 ,-4.75828 
404 ,79.4846 ,1.53867 ,-0.50548 ,-4.95975 
405 ,79.6766 ,1.54061 ,-0.50548 ,-4.95975 
406 ,79.8847 ,1.54258 ,-0.52259 ,-5.12764 
407 ,80.0767 ,1.54462 ,-0.52943 ,-5.19479 
408 ,80.2689 ,1.54645 ,-0.55681 ,-5.46342 
409 ,80.4766 ,1.54855 ,-0.53970 ,-5.29553 
410 ,80.6849 ,1.55065 ,-0.54997 ,-5.39626 
411 ,80.8771 ,1.55257 ,-0.57050 ,-5.59773 
412 ,81.0851 ,1.55466 ,-0.58419 ,-5.73205 
413 ,81.2770 ,1.55658 ,-0.57734 ,-5.66489 
414 ,81.4853 ,1.55865 ,-0.60472 ,-5.93352 
415 ,81.6937 ,1.56068 ,-0.61156 ,-6.00067 
416 ,81.8853 ,1.56260 ,-0.62525 ,-6.13499 
417 ,82.0936 ,1.56470 ,-0.64236 ,-6.30288 
418 ,82.2859 ,1.56668 ,-0.64921 ,-6.37003 
419 ,82.4773 ,1.56852 ,-0.63210 ,-6.20214 
420 ,82.6699 ,1.57047 ,-0.65947 ,-6.47077 
421 ,82.8617 ,1.57240 ,-0.65605 ,-6.43719 
422 ,83.0377 ,1.57426 ,-0.66632 ,-6.53793 
423 ,83.2300 ,1.57610 ,-0.68343 ,-6.70582 
424 ,83.4216 ,1.57798 ,-0.69370 ,-6.80655 
425 ,83.6138 ,1.57990 ,-0.69370 ,-6.80655 
426 ,83.8058 ,1.58180 ,-0.70739 ,-6.94086 
427 ,83.9980 ,1.58377 ,-0.70054 ,-6.87371 
428 ,84.1902 ,1.58569 ,-0.72107 ,-7.07518 
429 ,84.3824 ,1.58758 ,-0.73134 ,-7.17591 
430 ,84.5741 ,1.58949 ,-0.73134 ,-7.17591 
431 ,84.7667 ,1.59142 ,-0.76214 ,-7.47812 
432 ,84.9585 ,1.59336 ,-0.74503 ,-7.31023 
433 ,85.1507 ,1.59528 ,-0.75872 ,-7.44454 
434 ,85.3427 ,1.59716 ,-0.77583 ,-7.61243 
435 ,85.5349 ,1.59910 ,-0.78610 ,-7.71317 
436 ,85.7266 ,1.60102 ,-0.81005 ,-7.94821 
437 ,85.9192 ,1.60298 ,-0.79294 ,-7.78032 
438 ,86.1433 ,1.60516 ,-0.81005 ,-7.94821 
439 ,86.3351 ,1.60710 ,-0.81005 ,-7.94821 
440 ,86.5272 ,1.60913 ,-0.83401 ,-8.18326 
441 ,86.7194 ,1.61096 ,-0.84427 ,-8.28400 
442 ,86.9115 ,1.61286 ,-0.84427 ,-8.28400 
443 ,87.1196 ,1.61497 ,-0.84769 ,-8.31758 
444 ,87.3118 ,1.61688 ,-0.87165 ,-8.55262 
445 ,87.5036 ,1.61881 ,-0.89218 ,-8.75409 
446 ,87.6961 ,1.62076 ,-0.86823 ,-8.51904 
447 ,87.9034 ,1.62287 ,-0.87849 ,-8.61978 
448 ,88.0960 ,1.62468 ,-0.89903 ,-8.82125 
449 ,88.3035 ,1.62681 ,-0.92640 ,-9.08988 
450 ,88.4960 ,1.62869 ,-0.90929 ,-8.92198 
451 ,88.6887 ,1.63061 ,-0.93325 ,-9.15703 
452 ,88.8965 ,1.63258 ,-0.93667 ,-9.19061 
453 ,89.1044 ,1.63478 ,-0.96063 ,-9.42566 
454 ,89.2965 ,1.63672 ,-0.94351 ,-9.25777 
455 ,89.4887 ,1.63863 ,-0.97431 ,-9.55997 
456 ,89.6970 ,1.64073 ,-0.95720 ,-9.39208 
457 ,89.9047 ,1.64281 ,-0.98458 ,-9.66071 
458 ,90.0963 ,1.64468 ,-0.98800 ,-9.69429 
459 ,90.2887 ,1.64663 ,-1.00511 ,-9.86218 
460 ,90.4809 ,1.64858 ,-0.99827 ,-9.79502 
461 ,90.6731 ,1.65043 ,-0.99827 ,-9.79502 
462 ,90.8652 ,1.65237 ,-1.03249 ,-10.13080 
