Data stamp = , 29-04-2022 06:47:07 124

Calibration Values: 
Slope = , 26.54 , g/V 
Offset Voltage at no contact = , -0.501760 , V 

No , Time , Stage Position ,   Mass , Force 
   ,  (s) ,      (mm)      ,   (g)  , (mN)  

1 ,0.0000 ,0.74950 ,5.28483 ,51.85474 
2 ,0.2906 ,0.74969 ,5.27456 ,51.75401 
3 ,0.6249 ,0.75090 ,5.30536 ,52.05621 
4 ,0.8331 ,0.75267 ,5.30194 ,52.02263 
5 ,1.0408 ,0.75465 ,5.28483 ,51.85474 
6 ,1.2332 ,0.75657 ,5.29852 ,51.98905 
7 ,1.4414 ,0.75859 ,5.28825 ,51.88832 
8 ,1.6332 ,0.76061 ,5.28483 ,51.85474 
9 ,1.8253 ,0.76243 ,5.24718 ,51.48538 
10 ,2.0336 ,0.76447 ,5.26772 ,51.68685 
11 ,2.2417 ,0.76667 ,5.21296 ,51.14960 
12 ,2.4336 ,0.76867 ,5.19585 ,50.98170 
13 ,2.6259 ,0.77049 ,5.18559 ,50.88097 
14 ,2.8178 ,0.77256 ,5.17532 ,50.78023 
15 ,3.0099 ,0.77428 ,5.13768 ,50.41087 
16 ,3.2019 ,0.77625 ,5.12741 ,50.31014 
17 ,3.3941 ,0.77819 ,5.12399 ,50.27656 
18 ,3.5862 ,0.78017 ,5.08634 ,49.90720 
19 ,3.7785 ,0.78205 ,5.07608 ,49.80646 
20 ,3.9864 ,0.78403 ,5.05554 ,49.60499 
21 ,4.1784 ,0.78603 ,5.04185 ,49.47068 
22 ,4.3865 ,0.78806 ,5.00763 ,49.13490 
23 ,4.5785 ,0.78998 ,5.01106 ,49.16848 
24 ,4.7709 ,0.79193 ,4.95972 ,48.66480 
25 ,4.9628 ,0.79387 ,4.94603 ,48.53049 
26 ,5.1548 ,0.79571 ,4.94261 ,48.49691 
27 ,5.3469 ,0.79772 ,4.91181 ,48.19471 
28 ,5.5551 ,0.79964 ,4.89470 ,48.02681 
29 ,5.7631 ,0.80187 ,4.88444 ,47.92608 
30 ,5.9553 ,0.80380 ,4.86732 ,47.75819 
31 ,6.1470 ,0.80571 ,4.82968 ,47.38883 
32 ,6.3393 ,0.80762 ,4.81257 ,47.22093 
33 ,6.5149 ,0.80947 ,4.79204 ,47.01946 
34 ,6.7235 ,0.81133 ,4.77150 ,46.81800 
35 ,6.9154 ,0.81335 ,4.77493 ,46.85157 
36 ,7.1236 ,0.81549 ,4.72702 ,46.38148 
37 ,7.3318 ,0.81744 ,4.74070 ,46.51579 
38 ,7.5396 ,0.81967 ,4.69964 ,46.11285 
39 ,7.7319 ,0.82155 ,4.69964 ,46.11285 
40 ,7.9401 ,0.82362 ,4.66199 ,45.74349 
41 ,8.1161 ,0.82550 ,4.65515 ,45.67633 
42 ,8.3081 ,0.82728 ,4.60724 ,45.20624 
43 ,8.5002 ,0.82923 ,4.62435 ,45.37413 
44 ,8.7080 ,0.83127 ,4.59013 ,45.03835 
45 ,8.9004 ,0.83315 ,4.58671 ,45.00477 
46 ,9.1082 ,0.83530 ,4.55933 ,44.73614 
47 ,9.3004 ,0.83723 ,4.52853 ,44.43394 
48 ,9.5084 ,0.83926 ,4.51826 ,44.33320 
49 ,9.7163 ,0.84136 ,4.50800 ,44.23247 
50 ,9.9088 ,0.84330 ,4.47378 ,43.89668 
51 ,10.1170 ,0.84538 ,4.47720 ,43.93026 
52 ,10.3090 ,0.84729 ,4.43613 ,43.52732 
53 ,10.5170 ,0.84936 ,4.44298 ,43.59448 
54 ,10.6931 ,0.85124 ,4.39164 ,43.09080 
55 ,10.8852 ,0.85305 ,4.38138 ,42.99007 
56 ,11.0934 ,0.85505 ,4.38480 ,43.02365 
57 ,11.2854 ,0.85704 ,4.34373 ,42.62071 
58 ,11.4774 ,0.85897 ,4.34031 ,42.58713 
59 ,11.6696 ,0.86086 ,4.29582 ,42.15061 
60 ,11.8453 ,0.86279 ,4.30609 ,42.25135 
61 ,12.0537 ,0.86462 ,4.28898 ,42.08345 
62 ,12.2617 ,0.86684 ,4.27187 ,41.91556 
63 ,12.4538 ,0.86870 ,4.24107 ,41.61336 
64 ,12.6459 ,0.87066 ,4.22738 ,41.47905 
65 ,12.8376 ,0.87264 ,4.21369 ,41.34473 
66 ,13.0136 ,0.87445 ,4.18289 ,41.04253 
67 ,13.2061 ,0.87625 ,4.16578 ,40.87464 
68 ,13.3982 ,0.87822 ,4.16236 ,40.84106 
69 ,13.5903 ,0.88009 ,4.12814 ,40.50527 
70 ,13.7984 ,0.88216 ,4.13156 ,40.53885 
71 ,13.9903 ,0.88407 ,4.09391 ,40.16949 
72 ,14.1825 ,0.88605 ,4.08365 ,40.06876 
73 ,14.3747 ,0.88797 ,4.08023 ,40.03518 
74 ,14.5827 ,0.89006 ,4.03574 ,39.59866 
75 ,14.7748 ,0.89189 ,4.03232 ,39.56508 
76 ,14.9670 ,0.89383 ,3.99809 ,39.22930 
77 ,15.1746 ,0.89593 ,4.00152 ,39.26288 
78 ,15.3670 ,0.89787 ,3.96387 ,38.89352 
79 ,15.5592 ,0.89976 ,3.97756 ,39.02783 
80 ,15.7512 ,0.90167 ,3.93992 ,38.65847 
81 ,15.9594 ,0.90380 ,3.92965 ,38.55773 
82 ,16.1515 ,0.90574 ,3.91254 ,38.38984 
83 ,16.3593 ,0.90777 ,3.88174 ,38.08764 
84 ,16.5515 ,0.90968 ,3.86463 ,37.91975 
85 ,16.7438 ,0.91163 ,3.85436 ,37.81901 
86 ,16.9357 ,0.91355 ,3.83383 ,37.61754 
87 ,17.1116 ,0.91542 ,3.79619 ,37.24818 
88 ,17.3036 ,0.91721 ,3.79619 ,37.24818 
89 ,17.4960 ,0.91919 ,3.78250 ,37.11387 
90 ,17.6878 ,0.92106 ,3.75512 ,36.84524 
91 ,17.8802 ,0.92300 ,3.75512 ,36.84524 
92 ,18.0880 ,0.92508 ,3.70721 ,36.37514 
93 ,18.2804 ,0.92702 ,3.70721 ,36.37514 
94 ,18.4723 ,0.92891 ,3.67983 ,36.10652 
95 ,18.6805 ,0.93084 ,3.66957 ,36.00578 
96 ,18.8725 ,0.93295 ,3.64219 ,35.73716 
97 ,19.0807 ,0.93502 ,3.64219 ,35.73716 
98 ,19.2886 ,0.93703 ,3.60454 ,35.36779 
99 ,19.4806 ,0.93899 ,3.60797 ,35.40137 
100 ,19.6731 ,0.94097 ,3.57375 ,35.06559 
101 ,19.8809 ,0.94294 ,3.56348 ,34.96485 
102 ,20.0730 ,0.94490 ,3.54979 ,34.83054 
103 ,20.2652 ,0.94680 ,3.52926 ,34.62907 
104 ,20.4574 ,0.94872 ,3.51899 ,34.52834 
105 ,20.6488 ,0.95072 ,3.47792 ,34.12540 
106 ,20.8411 ,0.95254 ,3.48135 ,34.15898 
107 ,21.0334 ,0.95452 ,3.45055 ,33.85677 
108 ,21.2255 ,0.95638 ,3.43686 ,33.72246 
109 ,21.4176 ,0.95837 ,3.44028 ,33.75604 
110 ,21.6098 ,0.96028 ,3.38553 ,33.21878 
111 ,21.7857 ,0.96212 ,3.39237 ,33.28594 
112 ,21.9774 ,0.96395 ,3.36157 ,32.98374 
113 ,22.1700 ,0.96581 ,3.34446 ,32.81584 
114 ,22.3780 ,0.96790 ,3.33419 ,32.71511 
115 ,22.5702 ,0.96992 ,3.28628 ,32.24501 
116 ,22.7777 ,0.97190 ,3.30339 ,32.41290 
117 ,22.9703 ,0.97392 ,3.26233 ,32.00996 
118 ,23.1782 ,0.97594 ,3.27944 ,32.17786 
119 ,23.3704 ,0.97787 ,3.23153 ,31.70776 
120 ,23.5625 ,0.97977 ,3.23837 ,31.77492 
121 ,23.7705 ,0.98182 ,3.18362 ,31.23766 
122 ,23.9627 ,0.98376 ,3.20757 ,31.47271 
123 ,24.1707 ,0.98585 ,3.15282 ,30.93546 
124 ,24.3633 ,0.98780 ,3.16993 ,31.10335 
125 ,24.5711 ,0.98984 ,3.13571 ,30.76757 
126 ,24.7629 ,0.99179 ,3.12544 ,30.66683 
127 ,24.9546 ,0.99367 ,3.09464 ,30.36463 
128 ,25.1632 ,0.99571 ,3.07753 ,30.19674 
129 ,25.3553 ,0.99771 ,3.07069 ,30.12958 
130 ,25.5792 ,0.99990 ,3.03647 ,29.79380 
131 ,25.7713 ,1.00189 ,3.01935 ,29.62590 
132 ,25.9634 ,1.00376 ,3.00909 ,29.52517 
133 ,26.1555 ,1.00570 ,2.98171 ,29.25654 
134 ,26.3636 ,1.00775 ,2.98855 ,29.32370 
135 ,26.5556 ,1.00971 ,2.95433 ,28.98792 
136 ,26.7639 ,1.01173 ,2.93380 ,28.78645 
137 ,26.9559 ,1.01372 ,2.91669 ,28.61856 
138 ,27.1314 ,1.01560 ,2.89273 ,28.38351 
139 ,27.3240 ,1.01733 ,2.89958 ,28.45066 
140 ,27.5318 ,1.01943 ,2.85851 ,28.04772 
141 ,27.7242 ,1.02132 ,2.85167 ,27.98057 
142 ,27.9162 ,1.02342 ,2.81745 ,27.64479 
143 ,28.1082 ,1.02523 ,2.81060 ,27.57763 
144 ,28.2843 ,1.02711 ,2.80718 ,27.54405 
145 ,28.4765 ,1.02895 ,2.77296 ,27.20827 
146 ,28.6686 ,1.03084 ,2.75927 ,27.07395 
147 ,28.8606 ,1.03274 ,2.75243 ,27.00680 
148 ,29.0527 ,1.03466 ,2.71820 ,26.67101 
149 ,29.2763 ,1.03688 ,2.70794 ,26.57028 
150 ,29.4849 ,1.03889 ,2.70109 ,26.50312 
151 ,29.6926 ,1.04109 ,2.68056 ,26.30165 
152 ,29.8850 ,1.04294 ,2.67372 ,26.23450 
153 ,30.0767 ,1.04486 ,2.64292 ,25.93229 
154 ,30.2851 ,1.04685 ,2.64292 ,25.93229 
155 ,30.5090 ,1.04915 ,2.59501 ,25.46220 
156 ,30.7172 ,1.05128 ,2.57447 ,25.26073 
157 ,30.9094 ,1.05319 ,2.57447 ,25.26073 
158 ,31.1015 ,1.05514 ,2.56078 ,25.12641 
159 ,31.2935 ,1.05711 ,2.52656 ,24.79063 
160 ,31.5016 ,1.05916 ,2.52656 ,24.79063 
161 ,31.6936 ,1.06104 ,2.48892 ,24.42127 
162 ,31.8858 ,1.06297 ,2.50261 ,24.55558 
163 ,32.0936 ,1.06508 ,2.47181 ,24.25338 
164 ,32.3176 ,1.06727 ,2.44785 ,24.01833 
165 ,32.5257 ,1.06937 ,2.44101 ,23.95117 
166 ,32.7180 ,1.07130 ,2.42390 ,23.78328 
167 ,32.9260 ,1.07336 ,2.41705 ,23.71612 
168 ,33.1182 ,1.07527 ,2.38625 ,23.41392 
169 ,33.3263 ,1.07734 ,2.37256 ,23.27961 
170 ,33.5183 ,1.07929 ,2.34177 ,22.97740 
171 ,33.7104 ,1.08124 ,2.33150 ,22.87667 
172 ,33.9025 ,1.08320 ,2.33150 ,22.87667 
173 ,34.1107 ,1.08524 ,2.30412 ,22.60804 
174 ,34.3024 ,1.08718 ,2.29385 ,22.50731 
175 ,34.5107 ,1.08917 ,2.25963 ,22.17152 
176 ,34.7025 ,1.09114 ,2.26306 ,22.20510 
177 ,34.8950 ,1.09311 ,2.22541 ,21.83574 
178 ,35.1028 ,1.09512 ,2.22883 ,21.86932 
179 ,35.3112 ,1.09729 ,2.21172 ,21.70143 
180 ,35.5192 ,1.09927 ,2.18777 ,21.46638 
181 ,35.7113 ,1.10124 ,2.17066 ,21.29849 
182 ,35.9193 ,1.10325 ,2.15697 ,21.16417 
183 ,36.1272 ,1.10538 ,2.13644 ,20.96270 
184 ,36.3196 ,1.10736 ,2.12275 ,20.82839 
185 ,36.5277 ,1.10938 ,2.11248 ,20.72766 
186 ,36.7197 ,1.11128 ,2.09537 ,20.55976 
187 ,36.9118 ,1.11321 ,2.07141 ,20.32472 
188 ,37.1038 ,1.11518 ,2.06799 ,20.29114 
189 ,37.2961 ,1.11706 ,2.03377 ,19.95535 
190 ,37.5042 ,1.11918 ,2.04404 ,20.05609 
191 ,37.6960 ,1.12108 ,2.00982 ,19.72031 
192 ,37.8881 ,1.12300 ,2.00639 ,19.68673 
193 ,38.0963 ,1.12506 ,1.98586 ,19.48526 
194 ,38.3044 ,1.12717 ,1.97902 ,19.41810 
195 ,38.4965 ,1.12910 ,1.94137 ,19.04874 
196 ,38.6885 ,1.13099 ,1.93795 ,19.01516 
197 ,38.8968 ,1.13303 ,1.91742 ,18.81369 
198 ,39.1048 ,1.13514 ,1.92768 ,18.91443 
199 ,39.3127 ,1.13708 ,1.89004 ,18.54507 
200 ,39.5046 ,1.13915 ,1.90031 ,18.64580 
201 ,39.6969 ,1.14111 ,1.85924 ,18.24286 
202 ,39.8889 ,1.14297 ,1.86266 ,18.27644 
203 ,40.0969 ,1.14503 ,1.83528 ,18.00781 
204 ,40.2892 ,1.14704 ,1.83186 ,17.97423 
205 ,40.4972 ,1.14909 ,1.80106 ,17.67203 
206 ,40.6890 ,1.15099 ,1.79422 ,17.60487 
207 ,40.8811 ,1.15293 ,1.78395 ,17.50414 
208 ,41.0737 ,1.15484 ,1.77026 ,17.36983 
209 ,41.4737 ,1.15887 ,1.72920 ,16.96689 
210 ,41.6818 ,1.16087 ,1.72920 ,16.96689 
211 ,41.8897 ,1.16295 ,1.71893 ,16.86615 
212 ,42.0820 ,1.16494 ,1.69840 ,16.66468 
213 ,42.2739 ,1.16693 ,1.68129 ,16.49679 
214 ,42.4663 ,1.16874 ,1.67444 ,16.42963 
215 ,42.6743 ,1.17087 ,1.63338 ,16.02669 
216 ,42.8821 ,1.17291 ,1.62995 ,15.99311 
217 ,43.0745 ,1.17482 ,1.60258 ,15.72449 
218 ,43.2825 ,1.17677 ,1.62653 ,15.95954 
219 ,43.4747 ,1.17886 ,1.58889 ,15.59018 
220 ,43.6664 ,1.18082 ,1.57862 ,15.48944 
221 ,43.8587 ,1.18265 ,1.55809 ,15.28797 
222 ,44.0508 ,1.18461 ,1.55809 ,15.28797 
223 ,44.2428 ,1.18651 ,1.54440 ,15.15366 
224 ,44.4506 ,1.18859 ,1.52045 ,14.91861 
225 ,44.6428 ,1.19055 ,1.51360 ,14.85145 
226 ,44.8512 ,1.19254 ,1.50333 ,14.75072 
227 ,45.0432 ,1.19457 ,1.48965 ,14.61640 
228 ,45.2674 ,1.19677 ,1.47596 ,14.48209 
229 ,45.4753 ,1.19884 ,1.44174 ,14.14631 
230 ,45.6514 ,1.20068 ,1.45542 ,14.28062 
231 ,45.8434 ,1.20251 ,1.42462 ,13.97842 
232 ,46.0355 ,1.20441 ,1.40409 ,13.77695 
233 ,46.2275 ,1.20639 ,1.40751 ,13.81053 
234 ,46.4199 ,1.20823 ,1.37329 ,13.47474 
235 ,46.6276 ,1.21031 ,1.36645 ,13.40759 
236 ,46.8200 ,1.21231 ,1.34591 ,13.20612 
237 ,47.0278 ,1.21438 ,1.35276 ,13.27327 
238 ,47.2200 ,1.21627 ,1.32880 ,13.03822 
239 ,47.4121 ,1.21817 ,1.32538 ,13.00465 
240 ,47.6043 ,1.22008 ,1.29458 ,12.70244 
241 ,47.7959 ,1.22204 ,1.28089 ,12.56813 
242 ,47.9885 ,1.22391 ,1.29458 ,12.70244 
243 ,48.2122 ,1.22607 ,1.25009 ,12.26592 
244 ,48.4047 ,1.22815 ,1.26378 ,12.40024 
245 ,48.6126 ,1.23019 ,1.23983 ,12.16519 
246 ,48.8204 ,1.23228 ,1.21929 ,11.96372 
247 ,49.0129 ,1.23420 ,1.19534 ,11.72867 
248 ,49.2051 ,1.23608 ,1.19876 ,11.76225 
249 ,49.3971 ,1.23803 ,1.17138 ,11.49362 
250 ,49.5890 ,1.23997 ,1.17481 ,11.52720 
251 ,49.7971 ,1.24203 ,1.14743 ,11.25857 
252 ,49.9733 ,1.24391 ,1.14743 ,11.25857 
253 ,50.1652 ,1.24569 ,1.13374 ,11.12426 
254 ,50.3572 ,1.24760 ,1.10636 ,10.85563 
255 ,50.5495 ,1.24958 ,1.10979 ,10.88921 
256 ,50.7576 ,1.25162 ,1.09267 ,10.72132 
257 ,50.9492 ,1.25354 ,1.08583 ,10.65416 
258 ,51.1416 ,1.25548 ,1.06530 ,10.45270 
259 ,51.3338 ,1.25739 ,1.04476 ,10.25123 
260 ,51.5418 ,1.25946 ,1.03792 ,10.18407 
261 ,51.7340 ,1.26141 ,1.02081 ,10.01618 
262 ,51.9256 ,1.26331 ,1.01054 ,9.91544 
263 ,52.1178 ,1.26517 ,0.99343 ,9.74755 
264 ,52.3101 ,1.26711 ,0.98659 ,9.68039 
265 ,52.5022 ,1.26901 ,0.96948 ,9.51250 
266 ,52.6939 ,1.27100 ,0.95921 ,9.41177 
267 ,52.8860 ,1.27291 ,0.96605 ,9.47892 
268 ,53.0779 ,1.27476 ,0.92499 ,9.07598 
269 ,53.2860 ,1.27695 ,0.92157 ,9.04241 
270 ,53.4784 ,1.27886 ,0.89761 ,8.80736 
271 ,53.6706 ,1.28074 ,0.91130 ,8.94167 
272 ,53.8629 ,1.28262 ,0.87708 ,8.60589 
273 ,54.0709 ,1.28478 ,0.88050 ,8.63947 
274 ,54.2465 ,1.28658 ,0.85997 ,8.43800 
275 ,54.4388 ,1.28842 ,0.84628 ,8.30368 
276 ,54.6470 ,1.29048 ,0.84628 ,8.30368 
277 ,54.8390 ,1.29240 ,0.82575 ,8.10221 
278 ,55.0312 ,1.29438 ,0.82917 ,8.13579 
279 ,55.2391 ,1.29639 ,0.78810 ,7.73285 
280 ,55.4315 ,1.29830 ,0.80521 ,7.90074 
281 ,55.6393 ,1.30043 ,0.77099 ,7.56496 
282 ,55.8474 ,1.30249 ,0.77099 ,7.56496 
283 ,56.0396 ,1.30445 ,0.75046 ,7.36349 
284 ,56.2315 ,1.30633 ,0.74704 ,7.32991 
285 ,56.4234 ,1.30836 ,0.72308 ,7.09486 
286 ,56.6159 ,1.31017 ,0.71966 ,7.06129 
287 ,56.8081 ,1.31211 ,0.70939 ,6.96055 
288 ,57.0001 ,1.31409 ,0.69228 ,6.79266 
289 ,57.2081 ,1.31610 ,0.69570 ,6.82624 
290 ,57.4001 ,1.31799 ,0.66148 ,6.49046 
291 ,57.6244 ,1.32014 ,0.66833 ,6.55761 
292 ,57.8164 ,1.32218 ,0.64437 ,6.32256 
293 ,58.0086 ,1.32412 ,0.64779 ,6.35614 
294 ,58.2003 ,1.32604 ,0.61357 ,6.02036 
295 ,58.3924 ,1.32798 ,0.62042 ,6.08752 
296 ,58.5843 ,1.32989 ,0.59988 ,5.88605 
297 ,58.7768 ,1.33181 ,0.58277 ,5.71815 
298 ,58.9686 ,1.33372 ,0.58277 ,5.71815 
299 ,59.1769 ,1.33575 ,0.56908 ,5.58384 
300 ,59.3695 ,1.33770 ,0.55882 ,5.48311 
301 ,59.5772 ,1.33976 ,0.54513 ,5.34879 
302 ,59.7691 ,1.34172 ,0.54855 ,5.38237 
303 ,59.9608 ,1.34362 ,0.51091 ,5.01301 
304 ,60.1529 ,1.34554 ,0.51433 ,5.04659 
305 ,60.3451 ,1.34750 ,0.50064 ,4.91228 
306 ,60.5694 ,1.34973 ,0.48695 ,4.77796 
307 ,60.7775 ,1.35174 ,0.48011 ,4.71081 
308 ,60.9698 ,1.35369 ,0.46642 ,4.57649 
309 ,61.1619 ,1.35570 ,0.44246 ,4.34144 
310 ,61.3540 ,1.35755 ,0.44931 ,4.40860 
311 ,61.5460 ,1.35946 ,0.43562 ,4.27429 
312 ,61.7380 ,1.36134 ,0.41851 ,4.10640 
313 ,61.9462 ,1.36347 ,0.41851 ,4.10640 
314 ,62.1703 ,1.36566 ,0.40482 ,3.97208 
315 ,62.3629 ,1.36764 ,0.38086 ,3.73703 
316 ,62.5704 ,1.36968 ,0.38086 ,3.73703 
317 ,62.7625 ,1.37163 ,0.34664 ,3.40125 
318 ,62.9543 ,1.37351 ,0.35691 ,3.50199 
319 ,63.1466 ,1.37547 ,0.33638 ,3.30052 
320 ,63.3385 ,1.37736 ,0.31926 ,3.13263 
321 ,63.5147 ,1.37926 ,0.31926 ,3.13263 
322 ,63.7069 ,1.38103 ,0.30215 ,2.96473 
323 ,63.8990 ,1.38297 ,0.29189 ,2.86400 
324 ,64.0910 ,1.38493 ,0.30558 ,2.99831 
325 ,64.2991 ,1.38698 ,0.27478 ,2.69611 
326 ,64.4909 ,1.38895 ,0.27820 ,2.72969 
327 ,64.6833 ,1.39086 ,0.24398 ,2.39390 
328 ,64.8754 ,1.39274 ,0.25082 ,2.46106 
329 ,65.0672 ,1.39465 ,0.23713 ,2.32675 
330 ,65.2755 ,1.39669 ,0.21660 ,2.12528 
331 ,65.4836 ,1.39883 ,0.20291 ,1.99096 
332 ,65.6758 ,1.40075 ,0.20976 ,2.05812 
333 ,65.8839 ,1.40285 ,0.18580 ,1.82307 
334 ,66.0759 ,1.40479 ,0.17553 ,1.72234 
335 ,66.2839 ,1.40680 ,0.16527 ,1.62160 
336 ,66.4760 ,1.40880 ,0.16869 ,1.65518 
337 ,66.6681 ,1.41062 ,0.15158 ,1.48729 
338 ,66.8601 ,1.41258 ,0.12762 ,1.25224 
339 ,67.0523 ,1.41454 ,0.12078 ,1.18508 
340 ,67.2439 ,1.41639 ,0.10709 ,1.05077 
341 ,67.4364 ,1.41839 ,0.10367 ,1.01719 
342 ,67.6446 ,1.42039 ,0.07971 ,0.78214 
343 ,67.8364 ,1.42239 ,0.08314 ,0.81572 
344 ,68.0445 ,1.42445 ,0.06602 ,0.64783 
345 ,68.2525 ,1.42651 ,0.05918 ,0.58067 
346 ,68.4446 ,1.42839 ,0.02496 ,0.24489 
347 ,68.6526 ,1.43049 ,0.04891 ,0.47994 
348 ,68.8447 ,1.43237 ,0.02496 ,0.24489 
349 ,69.0371 ,1.43435 ,0.01811 ,0.17773 
350 ,69.2447 ,1.43642 ,-0.00926 ,-0.09089 
351 ,69.4367 ,1.43835 ,-0.00584 ,-0.05731 
352 ,69.6292 ,1.44031 ,-0.00926 ,-0.09089 
353 ,69.8372 ,1.44234 ,-0.01611 ,-0.15805 
354 ,70.0292 ,1.44428 ,-0.02980 ,-0.29236 
355 ,70.2374 ,1.44633 ,-0.04006 ,-0.39310 
356 ,70.4294 ,1.44826 ,-0.05033 ,-0.49383 
357 ,70.6216 ,1.45017 ,-0.07086 ,-0.69530 
358 ,70.8138 ,1.45218 ,-0.06402 ,-0.62814 
359 ,71.0216 ,1.45409 ,-0.10166 ,-0.99751 
360 ,71.2138 ,1.45614 ,-0.08113 ,-0.79604 
361 ,71.4056 ,1.45805 ,-0.12219 ,-1.19898 
362 ,71.5976 ,1.45998 ,-0.11877 ,-1.16540 
363 ,71.7901 ,1.46194 ,-0.11193 ,-1.09824 
364 ,71.9983 ,1.46395 ,-0.13246 ,-1.29971 
365 ,72.1905 ,1.46592 ,-0.13246 ,-1.29971 
366 ,72.3826 ,1.46780 ,-0.16668 ,-1.63549 
367 ,72.5748 ,1.46974 ,-0.16326 ,-1.60191 
368 ,72.7668 ,1.47161 ,-0.18037 ,-1.76981 
369 ,72.9586 ,1.47352 ,-0.18379 ,-1.80338 
370 ,73.1509 ,1.47548 ,-0.18379 ,-1.80338 
371 ,73.3429 ,1.47739 ,-0.21802 ,-2.13917 
372 ,73.5509 ,1.47943 ,-0.21459 ,-2.10559 
373 ,73.7430 ,1.48137 ,-0.23513 ,-2.30706 
374 ,73.9511 ,1.48350 ,-0.22828 ,-2.23990 
375 ,74.1751 ,1.48579 ,-0.22828 ,-2.23990 
376 ,74.3671 ,1.48758 ,-0.26593 ,-2.60926 
377 ,74.5753 ,1.48972 ,-0.25908 ,-2.54211 
378 ,74.7675 ,1.49159 ,-0.27619 ,-2.71000 
379 ,74.9754 ,1.49372 ,-0.28988 ,-2.84431 
380 ,75.1672 ,1.49563 ,-0.29330 ,-2.87789 
381 ,75.3597 ,1.49752 ,-0.30015 ,-2.94505 
382 ,75.5518 ,1.49953 ,-0.31384 ,-3.07936 
383 ,75.7438 ,1.50144 ,-0.32410 ,-3.18010 
384 ,75.9515 ,1.50344 ,-0.31726 ,-3.11294 
385 ,76.1600 ,1.50547 ,-0.34806 ,-3.41514 
386 ,76.3680 ,1.50759 ,-0.35832 ,-3.51588 
387 ,76.5602 ,1.50956 ,-0.35490 ,-3.48230 
388 ,76.7681 ,1.51163 ,-0.36859 ,-3.61661 
389 ,76.9604 ,1.51358 ,-0.38912 ,-3.81808 
390 ,77.1524 ,1.51546 ,-0.38912 ,-3.81808 
391 ,77.3766 ,1.51775 ,-0.39597 ,-3.88524 
392 ,77.5688 ,1.51963 ,-0.41992 ,-4.12029 
393 ,77.7768 ,1.52169 ,-0.41650 ,-4.08671 
394 ,77.9687 ,1.52369 ,-0.43019 ,-4.22102 
395 ,78.1605 ,1.52559 ,-0.45414 ,-4.45607 
396 ,78.3530 ,1.52747 ,-0.44388 ,-4.35534 
397 ,78.5770 ,1.52963 ,-0.46783 ,-4.59038 
398 ,78.7692 ,1.53166 ,-0.47126 ,-4.62396 
399 ,78.9771 ,1.53373 ,-0.47126 ,-4.62396 
400 ,79.1692 ,1.53561 ,-0.49521 ,-4.85901 
401 ,79.3772 ,1.53772 ,-0.49521 ,-4.85901 
402 ,79.5855 ,1.53978 ,-0.51917 ,-5.09406 
403 ,79.7772 ,1.54172 ,-0.49863 ,-4.89259 
404 ,79.9696 ,1.54361 ,-0.52943 ,-5.19479 
405 ,80.1617 ,1.54556 ,-0.53970 ,-5.29553 
406 ,80.3859 ,1.54779 ,-0.55339 ,-5.42984 
407 ,80.5936 ,1.54985 ,-0.54312 ,-5.32911 
408 ,80.7860 ,1.55183 ,-0.57734 ,-5.66489 
409 ,80.9939 ,1.55392 ,-0.57392 ,-5.63131 
410 ,81.1862 ,1.55584 ,-0.59103 ,-5.79920 
411 ,81.3779 ,1.55773 ,-0.58077 ,-5.69847 
412 ,81.5863 ,1.55979 ,-0.62525 ,-6.13499 
413 ,81.7941 ,1.56187 ,-0.60130 ,-5.89994 
414 ,81.9865 ,1.56383 ,-0.62525 ,-6.13499 
415 ,82.1946 ,1.56588 ,-0.62183 ,-6.10141 
416 ,82.4026 ,1.56797 ,-0.63894 ,-6.26930 
417 ,82.5947 ,1.56986 ,-0.63552 ,-6.23572 
418 ,82.8028 ,1.57196 ,-0.65263 ,-6.40361 
419 ,82.9949 ,1.57388 ,-0.65605 ,-6.43719 
420 ,83.2036 ,1.57600 ,-0.67659 ,-6.63866 
421 ,83.4111 ,1.57808 ,-0.68343 ,-6.70582 
422 ,83.6189 ,1.58008 ,-0.68685 ,-6.73940 
423 ,83.8111 ,1.58203 ,-0.69712 ,-6.84013 
424 ,84.0033 ,1.58396 ,-0.71423 ,-7.00802 
425 ,84.1954 ,1.58589 ,-0.71423 ,-7.00802 
426 ,84.3875 ,1.58782 ,-0.74845 ,-7.34380 
427 ,84.5956 ,1.58987 ,-0.73476 ,-7.20949 
428 ,84.8357 ,1.59216 ,-0.74845 ,-7.34380 
429 ,85.0433 ,1.59436 ,-0.76556 ,-7.51170 
430 ,85.2358 ,1.59624 ,-0.77583 ,-7.61243 
431 ,85.4277 ,1.59820 ,-0.78952 ,-7.74674 
432 ,85.6198 ,1.60006 ,-0.78267 ,-7.67959 
433 ,85.8280 ,1.60222 ,-0.80663 ,-7.91464 
434 ,86.0359 ,1.60430 ,-0.79294 ,-7.78032 
435 ,86.2278 ,1.60626 ,-0.83743 ,-8.21684 
436 ,86.4198 ,1.60811 ,-0.82374 ,-8.08253 
437 ,86.6119 ,1.60999 ,-0.84427 ,-8.28400 
438 ,86.8040 ,1.61195 ,-0.83743 ,-8.21684 
439 ,86.9965 ,1.61388 ,-0.84769 ,-8.31758 
440 ,87.2045 ,1.61596 ,-0.86823 ,-8.51904 
441 ,87.3967 ,1.61789 ,-0.87507 ,-8.58620 
442 ,87.6048 ,1.61996 ,-0.88192 ,-8.65336 
443 ,87.7969 ,1.62185 ,-0.87507 ,-8.58620 
444 ,88.0048 ,1.62395 ,-0.89218 ,-8.75409 
445 ,88.2129 ,1.62593 ,-0.90245 ,-8.85483 
446 ,88.4049 ,1.62796 ,-0.91956 ,-9.02272 
447 ,88.5970 ,1.62984 ,-0.91956 ,-9.02272 
448 ,88.7891 ,1.63176 ,-0.93667 ,-9.19061 
449 ,88.9969 ,1.63389 ,-0.92983 ,-9.12345 
450 ,89.1891 ,1.63580 ,-0.95378 ,-9.35850 
451 ,89.3814 ,1.63774 ,-0.95720 ,-9.39208 
452 ,89.5894 ,1.63975 ,-0.97431 ,-9.55997 
453 ,89.7815 ,1.64172 ,-0.96747 ,-9.49282 
454 ,89.9738 ,1.64366 ,-1.00169 ,-9.82860 
455 ,90.1656 ,1.64558 ,-0.99827 ,-9.79502 
456 ,90.3578 ,1.64748 ,-0.99827 ,-9.79502 
457 ,90.5658 ,1.64955 ,-0.99827 ,-9.79502 
458 ,90.7579 ,1.65147 ,-1.02222 ,-10.03007 
459 ,90.9500 ,1.65345 ,-1.03591 ,-10.16438 
460 ,91.1422 ,1.65532 ,-1.02907 ,-10.09723 
461 ,91.3503 ,1.65739 ,-1.05645 ,-10.36585 
462 ,91.5579 ,1.65943 ,-1.04618 ,-10.26512 
