Data stamp = , 29-04-2022 02:49:41 173

Calibration Values: 
Slope = , 26.54 , g/V 
Offset Voltage at no contact = , -0.501760 , V 

No , Time , Stage Position ,   Mass , Force 
   ,  (s) ,      (mm)      ,   (g)  , (mN)  

1 ,0.0000 ,0.74939 ,5.27798 ,51.78758 
2 ,0.2194 ,0.74949 ,5.28483 ,51.85474 
3 ,0.6677 ,0.75096 ,5.26772 ,51.68685 
4 ,0.8754 ,0.75296 ,5.27798 ,51.78758 
5 ,1.0678 ,0.75478 ,5.29167 ,51.92190 
6 ,1.2600 ,0.75673 ,5.28141 ,51.82116 
7 ,1.4520 ,0.75861 ,5.28483 ,51.85474 
8 ,1.6600 ,0.76073 ,5.27456 ,51.75401 
9 ,1.8521 ,0.76265 ,5.26430 ,51.65327 
10 ,2.0443 ,0.76455 ,5.26087 ,51.61969 
11 ,2.2522 ,0.76663 ,5.24718 ,51.48538 
12 ,2.4604 ,0.76880 ,5.24376 ,51.45180 
13 ,2.6681 ,0.77080 ,5.21639 ,51.18317 
14 ,2.8605 ,0.77272 ,5.19927 ,51.01528 
15 ,3.0526 ,0.77459 ,5.17532 ,50.78023 
16 ,3.2607 ,0.77675 ,5.15479 ,50.57876 
17 ,3.4688 ,0.77885 ,5.13083 ,50.34372 
18 ,3.6609 ,0.78077 ,5.11030 ,50.14225 
19 ,3.8365 ,0.78268 ,5.10003 ,50.04151 
20 ,4.0290 ,0.78443 ,5.08977 ,49.94078 
21 ,4.2212 ,0.78635 ,5.06239 ,49.67215 
22 ,4.4292 ,0.78841 ,5.03843 ,49.43710 
23 ,4.6213 ,0.79032 ,5.01106 ,49.16848 
24 ,4.8129 ,0.79227 ,4.98710 ,48.93343 
25 ,5.0052 ,0.79421 ,4.98026 ,48.86627 
26 ,5.2134 ,0.79625 ,4.95288 ,48.59764 
27 ,5.4055 ,0.79817 ,4.95288 ,48.59764 
28 ,5.6136 ,0.80013 ,4.91866 ,48.26186 
29 ,5.8217 ,0.80234 ,4.89470 ,48.02681 
30 ,6.0295 ,0.80434 ,4.88101 ,47.89250 
31 ,6.2380 ,0.80648 ,4.84679 ,47.55672 
32 ,6.4298 ,0.80843 ,4.83652 ,47.45598 
33 ,6.6381 ,0.81043 ,4.80573 ,47.15378 
34 ,6.8301 ,0.81244 ,4.81599 ,47.25451 
35 ,7.0059 ,0.81422 ,4.79204 ,47.01946 
36 ,7.1820 ,0.81607 ,4.75439 ,46.65010 
37 ,7.3743 ,0.81783 ,4.75782 ,46.68368 
38 ,7.5663 ,0.81976 ,4.73728 ,46.48221 
39 ,7.7586 ,0.82167 ,4.69622 ,46.07927 
40 ,7.9663 ,0.82366 ,4.70306 ,46.14643 
41 ,8.1425 ,0.82562 ,4.66884 ,45.81065 
42 ,8.3346 ,0.82740 ,4.64831 ,45.60918 
43 ,8.5268 ,0.82936 ,4.64146 ,45.54202 
44 ,8.7186 ,0.83129 ,4.61066 ,45.23981 
45 ,8.9110 ,0.83323 ,4.59013 ,45.03835 
46 ,9.1029 ,0.83512 ,4.58671 ,45.00477 
47 ,9.2951 ,0.83709 ,4.55249 ,44.66898 
48 ,9.5030 ,0.83911 ,4.55249 ,44.66898 
49 ,9.6953 ,0.84107 ,4.51826 ,44.33320 
50 ,9.9352 ,0.84339 ,4.49773 ,44.13173 
51 ,10.1434 ,0.84551 ,4.49431 ,44.09815 
52 ,10.3353 ,0.84739 ,4.45666 ,43.72879 
53 ,10.5274 ,0.84943 ,4.44982 ,43.66163 
54 ,10.7194 ,0.85134 ,4.42244 ,43.39301 
55 ,10.9277 ,0.85343 ,4.41560 ,43.32585 
56 ,11.1197 ,0.85529 ,4.39164 ,43.09080 
57 ,11.3115 ,0.85717 ,4.37795 ,42.95649 
58 ,11.5040 ,0.85913 ,4.37453 ,42.92291 
59 ,11.7120 ,0.86124 ,4.34716 ,42.65429 
60 ,11.9040 ,0.86314 ,4.33347 ,42.51997 
61 ,12.0961 ,0.86506 ,4.29582 ,42.15061 
62 ,12.2882 ,0.86697 ,4.27529 ,41.94914 
63 ,12.4802 ,0.86901 ,4.25476 ,41.74767 
64 ,12.6725 ,0.87082 ,4.24791 ,41.68051 
65 ,12.8644 ,0.87271 ,4.24449 ,41.64694 
66 ,13.0566 ,0.87464 ,4.20685 ,41.27758 
67 ,13.2486 ,0.87659 ,4.20000 ,41.21042 
68 ,13.4405 ,0.87847 ,4.16920 ,40.90821 
69 ,13.6487 ,0.88060 ,4.16578 ,40.87464 
70 ,13.8731 ,0.88270 ,4.14525 ,40.67317 
71 ,14.0489 ,0.88472 ,4.12471 ,40.47170 
72 ,14.2411 ,0.88649 ,4.09734 ,40.20307 
73 ,14.4492 ,0.88847 ,4.09734 ,40.20307 
74 ,14.6572 ,0.89063 ,4.04943 ,39.73297 
75 ,14.8490 ,0.89262 ,4.04600 ,39.69940 
76 ,15.0413 ,0.89449 ,4.04600 ,39.69940 
77 ,15.2334 ,0.89640 ,4.01178 ,39.36361 
78 ,15.4415 ,0.89850 ,3.99467 ,39.19572 
79 ,15.6331 ,0.90041 ,3.96729 ,38.92709 
80 ,15.8256 ,0.90236 ,3.97072 ,38.96067 
81 ,16.0177 ,0.90425 ,3.93992 ,38.65847 
82 ,16.2419 ,0.90638 ,3.93650 ,38.62489 
83 ,16.4498 ,0.90847 ,3.89543 ,38.22195 
84 ,16.6420 ,0.91052 ,3.88858 ,38.15479 
85 ,16.8339 ,0.91240 ,3.85779 ,37.85259 
86 ,17.0422 ,0.91446 ,3.84752 ,37.75185 
87 ,17.2341 ,0.91645 ,3.81672 ,37.44965 
88 ,17.4104 ,0.91822 ,3.79961 ,37.28176 
89 ,17.6019 ,0.92008 ,3.80645 ,37.34891 
90 ,17.7941 ,0.92196 ,3.76539 ,36.94597 
91 ,17.9864 ,0.92393 ,3.76539 ,36.94597 
92 ,18.1943 ,0.92599 ,3.73801 ,36.67735 
93 ,18.3865 ,0.92792 ,3.72432 ,36.54303 
94 ,18.5788 ,0.92986 ,3.69352 ,36.24083 
95 ,18.7704 ,0.93190 ,3.67641 ,36.07294 
96 ,18.9783 ,0.93375 ,3.66272 ,35.93863 
97 ,19.1705 ,0.93574 ,3.64219 ,35.73716 
98 ,19.3630 ,0.93773 ,3.63534 ,35.67000 
99 ,19.5714 ,0.93980 ,3.60454 ,35.36779 
100 ,19.7790 ,0.94189 ,3.58743 ,35.19990 
101 ,19.9867 ,0.94388 ,3.58743 ,35.19990 
102 ,20.1949 ,0.94594 ,3.55321 ,34.86412 
103 ,20.3871 ,0.94798 ,3.54979 ,34.83054 
104 ,20.5951 ,0.95009 ,3.52584 ,34.59549 
105 ,20.7873 ,0.95196 ,3.51215 ,34.46118 
106 ,20.9791 ,0.95387 ,3.48477 ,34.19255 
107 ,21.1713 ,0.95576 ,3.45739 ,33.92393 
108 ,21.3637 ,0.95775 ,3.44713 ,33.82319 
109 ,21.5715 ,0.95980 ,3.42659 ,33.62172 
110 ,21.7639 ,0.96168 ,3.41633 ,33.52099 
111 ,21.9560 ,0.96359 ,3.38895 ,33.25236 
112 ,22.1481 ,0.96549 ,3.37868 ,33.15163 
113 ,22.3562 ,0.96758 ,3.35815 ,32.95016 
114 ,22.5644 ,0.96971 ,3.34446 ,32.81584 
115 ,22.7563 ,0.97165 ,3.31024 ,32.48006 
116 ,22.9483 ,0.97353 ,3.31024 ,32.48006 
117 ,23.1727 ,0.97576 ,3.28971 ,32.27859 
118 ,23.3804 ,0.97783 ,3.26917 ,32.07712 
119 ,23.5888 ,0.97984 ,3.24864 ,31.87565 
120 ,23.7806 ,0.98185 ,3.23495 ,31.74134 
121 ,23.9729 ,0.98373 ,3.21442 ,31.53987 
122 ,24.1648 ,0.98570 ,3.21442 ,31.53987 
123 ,24.3567 ,0.98758 ,3.16651 ,31.06977 
124 ,24.5489 ,0.98949 ,3.14940 ,30.90188 
125 ,24.7734 ,0.99174 ,3.14255 ,30.83472 
126 ,24.9653 ,0.99370 ,3.13571 ,30.76757 
127 ,25.1734 ,0.99574 ,3.09806 ,30.39821 
128 ,25.3654 ,0.99767 ,3.09806 ,30.39821 
129 ,25.5739 ,0.99977 ,3.05015 ,29.92811 
130 ,25.7818 ,1.00185 ,3.06042 ,30.02884 
131 ,25.9733 ,1.00373 ,3.02962 ,29.72664 
132 ,26.1818 ,1.00584 ,3.01935 ,29.62590 
133 ,26.3739 ,1.00773 ,2.98855 ,29.32370 
134 ,26.5656 ,1.00969 ,2.98513 ,29.29012 
135 ,26.7577 ,1.01163 ,2.95433 ,28.98792 
136 ,26.9340 ,1.01350 ,2.95433 ,28.98792 
137 ,27.1419 ,1.01541 ,2.92696 ,28.71929 
138 ,27.3341 ,1.01732 ,2.90300 ,28.48424 
139 ,27.5264 ,1.01927 ,2.89616 ,28.41709 
140 ,27.7184 ,1.02121 ,2.87562 ,28.21562 
141 ,27.9105 ,1.02310 ,2.85509 ,28.01415 
142 ,28.1022 ,1.02501 ,2.84825 ,27.94699 
143 ,28.2942 ,1.02696 ,2.80718 ,27.54405 
144 ,28.4703 ,1.02887 ,2.81060 ,27.57763 
145 ,28.6789 ,1.03074 ,2.80034 ,27.47689 
146 ,28.8869 ,1.03293 ,2.77980 ,27.27542 
147 ,29.1110 ,1.03508 ,2.73874 ,26.87248 
148 ,29.3191 ,1.03724 ,2.73531 ,26.83891 
149 ,29.5112 ,1.03914 ,2.71820 ,26.67101 
150 ,29.7193 ,1.04119 ,2.69425 ,26.43597 
151 ,29.9113 ,1.04314 ,2.66687 ,26.16734 
152 ,30.1034 ,1.04510 ,2.67372 ,26.23450 
153 ,30.3114 ,1.04712 ,2.64634 ,25.96587 
154 ,30.5194 ,1.04924 ,2.62923 ,25.79798 
155 ,30.7115 ,1.05110 ,2.61212 ,25.63009 
156 ,30.9193 ,1.05320 ,2.59501 ,25.46220 
157 ,31.1278 ,1.05523 ,2.58816 ,25.39504 
158 ,31.3358 ,1.05734 ,2.57447 ,25.26073 
159 ,31.5281 ,1.05935 ,2.53341 ,24.85779 
160 ,31.7201 ,1.06119 ,2.52998 ,24.82421 
161 ,31.9122 ,1.06311 ,2.50945 ,24.62274 
162 ,32.1202 ,1.06509 ,2.50261 ,24.55558 
163 ,32.3283 ,1.06721 ,2.47523 ,24.28696 
164 ,32.5364 ,1.06934 ,2.44785 ,24.01833 
165 ,32.7285 ,1.07126 ,2.45470 ,24.08549 
166 ,32.9203 ,1.07323 ,2.43416 ,23.88402 
167 ,33.1123 ,1.07511 ,2.40679 ,23.61539 
168 ,33.3207 ,1.07715 ,2.40336 ,23.58181 
169 ,33.5288 ,1.07936 ,2.35888 ,23.14529 
170 ,33.7369 ,1.08133 ,2.35888 ,23.14529 
171 ,33.9290 ,1.08326 ,2.34861 ,23.04456 
172 ,34.1371 ,1.08534 ,2.32465 ,22.80951 
173 ,34.3130 ,1.08722 ,2.31439 ,22.70877 
174 ,34.5054 ,1.08906 ,2.30754 ,22.64162 
175 ,34.6974 ,1.09097 ,2.28359 ,22.40657 
176 ,34.8895 ,1.09295 ,2.26648 ,22.23868 
177 ,35.0815 ,1.09483 ,2.26306 ,22.20510 
178 ,35.2734 ,1.09675 ,2.22883 ,21.86932 
179 ,35.4655 ,1.09869 ,2.21172 ,21.70143 
180 ,35.6737 ,1.10073 ,2.19803 ,21.56711 
181 ,35.8657 ,1.10266 ,2.18092 ,21.39922 
182 ,36.0579 ,1.10455 ,2.17408 ,21.33206 
183 ,36.2658 ,1.10671 ,2.15012 ,21.09702 
184 ,36.4741 ,1.10872 ,2.12275 ,20.82839 
185 ,36.6658 ,1.11066 ,2.12617 ,20.86197 
186 ,36.8583 ,1.11249 ,2.10221 ,20.62692 
187 ,37.0662 ,1.11465 ,2.08168 ,20.42545 
188 ,37.2583 ,1.11653 ,2.07141 ,20.32472 
189 ,37.4661 ,1.11867 ,2.05430 ,20.15682 
190 ,37.6583 ,1.12060 ,2.04746 ,20.08967 
191 ,37.8664 ,1.12265 ,2.00982 ,19.72031 
192 ,38.0583 ,1.12456 ,2.02350 ,19.85462 
193 ,38.2509 ,1.12653 ,1.97559 ,19.38452 
194 ,38.4588 ,1.12859 ,1.98586 ,19.48526 
195 ,38.6345 ,1.13041 ,1.96533 ,19.28379 
196 ,38.8268 ,1.13221 ,1.95506 ,19.18305 
197 ,39.0191 ,1.13421 ,1.94822 ,19.11590 
198 ,39.2108 ,1.13612 ,1.91399 ,18.78011 
199 ,39.4030 ,1.13803 ,1.92768 ,18.91443 
200 ,39.5950 ,1.13994 ,1.90715 ,18.71296 
201 ,39.8033 ,1.14201 ,1.89688 ,18.61222 
202 ,39.9952 ,1.14402 ,1.85582 ,18.20928 
203 ,40.2036 ,1.14605 ,1.85240 ,18.17570 
204 ,40.4116 ,1.14810 ,1.82844 ,17.94066 
205 ,40.6036 ,1.15001 ,1.82502 ,17.90708 
206 ,40.7953 ,1.15195 ,1.80449 ,17.70561 
207 ,40.9874 ,1.15379 ,1.79764 ,17.63845 
208 ,41.1800 ,1.15577 ,1.78737 ,17.53772 
209 ,41.3718 ,1.15771 ,1.77026 ,17.36983 
210 ,41.5641 ,1.15960 ,1.77026 ,17.36983 
211 ,41.7721 ,1.16167 ,1.71893 ,16.86615 
212 ,41.9641 ,1.16360 ,1.72920 ,16.96689 
213 ,42.1722 ,1.16571 ,1.70182 ,16.69826 
214 ,42.3642 ,1.16758 ,1.69155 ,16.59752 
215 ,42.5564 ,1.16950 ,1.67786 ,16.46321 
216 ,42.7486 ,1.17142 ,1.66418 ,16.32890 
217 ,42.9402 ,1.17346 ,1.65391 ,16.22816 
218 ,43.1327 ,1.17534 ,1.63338 ,16.02669 
219 ,43.3408 ,1.17736 ,1.62995 ,15.99311 
220 ,43.5329 ,1.17929 ,1.60942 ,15.79164 
221 ,43.7248 ,1.18123 ,1.59916 ,15.69091 
222 ,43.9330 ,1.18319 ,1.57862 ,15.48944 
223 ,44.1407 ,1.18539 ,1.56493 ,15.35513 
224 ,44.3331 ,1.18728 ,1.55124 ,15.22081 
225 ,44.5251 ,1.18921 ,1.55124 ,15.22081 
226 ,44.7334 ,1.19123 ,1.52387 ,14.95219 
227 ,44.9251 ,1.19317 ,1.50333 ,14.75072 
228 ,45.1171 ,1.19515 ,1.50333 ,14.75072 
229 ,45.3095 ,1.19706 ,1.47253 ,14.44851 
230 ,45.5177 ,1.19913 ,1.47253 ,14.44851 
231 ,45.7418 ,1.20127 ,1.44516 ,14.17989 
232 ,45.9499 ,1.20339 ,1.44516 ,14.17989 
233 ,46.1577 ,1.20552 ,1.42462 ,13.97842 
234 ,46.3501 ,1.20745 ,1.39725 ,13.70979 
235 ,46.5579 ,1.20955 ,1.41094 ,13.84410 
236 ,46.7498 ,1.21139 ,1.36303 ,13.37401 
237 ,46.9421 ,1.21342 ,1.36645 ,13.40759 
238 ,47.1342 ,1.21534 ,1.33907 ,13.13896 
239 ,47.3425 ,1.21734 ,1.34591 ,13.20612 
240 ,47.5506 ,1.21944 ,1.32538 ,13.00465 
241 ,47.7427 ,1.22140 ,1.31512 ,12.90391 
242 ,47.9345 ,1.22334 ,1.30827 ,12.83675 
243 ,48.1265 ,1.22524 ,1.26720 ,12.43381 
244 ,48.3188 ,1.22707 ,1.28774 ,12.63528 
245 ,48.5109 ,1.22905 ,1.27405 ,12.50097 
246 ,48.7187 ,1.23110 ,1.25694 ,12.33308 
247 ,48.8949 ,1.23302 ,1.22614 ,12.03088 
248 ,49.0872 ,1.23481 ,1.20903 ,11.86298 
249 ,49.2792 ,1.23675 ,1.21587 ,11.93014 
250 ,49.4709 ,1.23860 ,1.18165 ,11.59436 
251 ,49.6794 ,1.24064 ,1.16454 ,11.42647 
252 ,49.8874 ,1.24271 ,1.15427 ,11.32573 
253 ,50.0795 ,1.24474 ,1.16454 ,11.42647 
254 ,50.2716 ,1.24665 ,1.13032 ,11.09068 
255 ,50.4638 ,1.24859 ,1.13374 ,11.12426 
256 ,50.6556 ,1.25048 ,1.12690 ,11.05710 
257 ,50.8319 ,1.25243 ,1.10294 ,10.82206 
258 ,51.0400 ,1.25421 ,1.09952 ,10.78848 
259 ,51.2320 ,1.25627 ,1.08583 ,10.65416 
260 ,51.4242 ,1.25821 ,1.05503 ,10.35196 
261 ,51.6158 ,1.26009 ,1.05161 ,10.31838 
262 ,51.8082 ,1.26204 ,1.04819 ,10.28480 
263 ,52.0005 ,1.26393 ,1.02765 ,10.08333 
264 ,52.1925 ,1.26584 ,1.02423 ,10.04976 
265 ,52.3845 ,1.26775 ,0.99001 ,9.71397 
266 ,52.5767 ,1.26966 ,1.00028 ,9.81471 
267 ,52.7846 ,1.27176 ,0.96948 ,9.51250 
268 ,52.9769 ,1.27367 ,0.97290 ,9.54608 
269 ,53.1849 ,1.27584 ,0.94210 ,9.24388 
270 ,53.3930 ,1.27785 ,0.94552 ,9.27745 
271 ,53.5849 ,1.27976 ,0.91472 ,8.97525 
272 ,53.7768 ,1.28167 ,0.92157 ,9.04241 
273 ,53.9694 ,1.28367 ,0.88392 ,8.67305 
274 ,54.1775 ,1.28572 ,0.88050 ,8.63947 
275 ,54.3854 ,1.28775 ,0.85654 ,8.40442 
276 ,54.5776 ,1.28970 ,0.86339 ,8.47158 
277 ,54.7856 ,1.29173 ,0.84286 ,8.27011 
278 ,54.9777 ,1.29364 ,0.83943 ,8.23653 
279 ,55.1699 ,1.29565 ,0.82232 ,8.06864 
280 ,55.3618 ,1.29757 ,0.80179 ,7.86717 
281 ,55.5699 ,1.29963 ,0.78810 ,7.73285 
282 ,55.7619 ,1.30155 ,0.78468 ,7.69927 
283 ,55.9376 ,1.30340 ,0.78126 ,7.66570 
284 ,56.1301 ,1.30524 ,0.75388 ,7.39707 
285 ,56.3382 ,1.30728 ,0.74361 ,7.29633 
286 ,56.5303 ,1.30925 ,0.73677 ,7.22918 
287 ,56.7223 ,1.31117 ,0.72650 ,7.12844 
288 ,56.9144 ,1.31304 ,0.71281 ,6.99413 
289 ,57.1223 ,1.31511 ,0.69570 ,6.82624 
290 ,57.3146 ,1.31718 ,0.68886 ,6.75908 
291 ,57.5068 ,1.31897 ,0.67175 ,6.59119 
292 ,57.6988 ,1.32092 ,0.66833 ,6.55761 
293 ,57.8908 ,1.32283 ,0.65806 ,6.45688 
294 ,58.0829 ,1.32469 ,0.63753 ,6.25541 
295 ,58.2911 ,1.32681 ,0.62042 ,6.08752 
296 ,58.4988 ,1.32891 ,0.60673 ,5.95320 
297 ,58.6912 ,1.33081 ,0.60330 ,5.91962 
298 ,58.8830 ,1.33277 ,0.57935 ,5.68458 
299 ,59.0752 ,1.33464 ,0.58962 ,5.78531 
300 ,59.2670 ,1.33655 ,0.55197 ,5.41595 
301 ,59.4595 ,1.33850 ,0.56566 ,5.55026 
302 ,59.6515 ,1.34044 ,0.54513 ,5.34879 
303 ,59.8597 ,1.34247 ,0.53828 ,5.28164 
304 ,60.0515 ,1.34445 ,0.52802 ,5.18090 
305 ,60.2596 ,1.34653 ,0.50748 ,4.97943 
306 ,60.4679 ,1.34855 ,0.50748 ,4.97943 
307 ,60.6758 ,1.35063 ,0.49380 ,4.84512 
308 ,60.8680 ,1.35255 ,0.48011 ,4.71081 
309 ,61.0600 ,1.35452 ,0.45957 ,4.50934 
310 ,61.2522 ,1.35640 ,0.45273 ,4.44218 
311 ,61.4444 ,1.35838 ,0.43904 ,4.30787 
312 ,61.6524 ,1.36038 ,0.43562 ,4.27429 
313 ,61.8445 ,1.36235 ,0.40482 ,3.97208 
314 ,62.0686 ,1.36439 ,0.40140 ,3.93850 
315 ,62.2607 ,1.36647 ,0.38771 ,3.80419 
316 ,62.4523 ,1.36840 ,0.39797 ,3.90493 
317 ,62.6447 ,1.37032 ,0.37744 ,3.70346 
318 ,62.8530 ,1.37241 ,0.36375 ,3.56914 
319 ,63.0448 ,1.37433 ,0.33295 ,3.26694 
320 ,63.2370 ,1.37625 ,0.35006 ,3.43483 
321 ,63.4292 ,1.37818 ,0.31926 ,3.13263 
322 ,63.6052 ,1.38001 ,0.31926 ,3.13263 
323 ,63.7974 ,1.38185 ,0.32269 ,3.16620 
324 ,64.0053 ,1.38392 ,0.27478 ,2.69611 
325 ,64.2135 ,1.38605 ,0.29531 ,2.89758 
326 ,64.4056 ,1.38793 ,0.25767 ,2.52822 
327 ,64.6132 ,1.38998 ,0.27478 ,2.69611 
328 ,64.8056 ,1.39195 ,0.24740 ,2.42748 
329 ,65.0138 ,1.39402 ,0.24055 ,2.36032 
330 ,65.2059 ,1.39590 ,0.21318 ,2.09170 
331 ,65.3980 ,1.39790 ,0.22344 ,2.19243 
332 ,65.6060 ,1.39991 ,0.20291 ,1.99096 
333 ,65.7822 ,1.40179 ,0.19607 ,1.92381 
334 ,65.9744 ,1.40360 ,0.19264 ,1.89023 
335 ,66.1823 ,1.40574 ,0.17211 ,1.68876 
336 ,66.3903 ,1.40780 ,0.15842 ,1.55445 
337 ,66.5824 ,1.40973 ,0.14816 ,1.45371 
338 ,66.7750 ,1.41158 ,0.16527 ,1.62160 
339 ,66.9667 ,1.41361 ,0.13105 ,1.28582 
340 ,67.1749 ,1.41559 ,0.13105 ,1.28582 
341 ,67.3666 ,1.41756 ,0.10709 ,1.05077 
342 ,67.5589 ,1.41943 ,0.10709 ,1.05077 
343 ,67.7509 ,1.42138 ,0.09340 ,0.91646 
344 ,67.9431 ,1.42339 ,0.09340 ,0.91646 
345 ,68.1351 ,1.42518 ,0.08656 ,0.84930 
346 ,68.3433 ,1.42728 ,0.04891 ,0.47994 
347 ,68.5352 ,1.42922 ,0.06260 ,0.61425 
348 ,68.7272 ,1.43109 ,0.03865 ,0.37920 
349 ,68.9191 ,1.43310 ,0.02154 ,0.21131 
350 ,69.1111 ,1.43505 ,0.02838 ,0.27847 
351 ,69.3032 ,1.43687 ,-0.00242 ,-0.02373 
352 ,69.4792 ,1.43880 ,0.00443 ,0.04342 
353 ,69.6713 ,1.44055 ,-0.00584 ,-0.05731 
354 ,69.8634 ,1.44254 ,-0.01611 ,-0.15805 
355 ,70.0555 ,1.44439 ,-0.01611 ,-0.15805 
356 ,70.2639 ,1.44646 ,-0.04691 ,-0.46025 
357 ,70.4560 ,1.44839 ,-0.04006 ,-0.39310 
358 ,70.6480 ,1.45034 ,-0.05033 ,-0.49383 
359 ,70.8402 ,1.45227 ,-0.07086 ,-0.69530 
360 ,71.0323 ,1.45422 ,-0.07086 ,-0.69530 
361 ,71.2239 ,1.45610 ,-0.09140 ,-0.89677 
362 ,71.4161 ,1.45796 ,-0.10851 ,-1.06466 
363 ,71.5924 ,1.45987 ,-0.11193 ,-1.09824 
364 ,71.7846 ,1.46168 ,-0.12219 ,-1.19898 
365 ,71.9768 ,1.46360 ,-0.11877 ,-1.16540 
366 ,72.1687 ,1.46557 ,-0.13588 ,-1.33329 
367 ,72.3446 ,1.46737 ,-0.15299 ,-1.50118 
368 ,72.5368 ,1.46917 ,-0.15642 ,-1.53476 
369 ,72.7290 ,1.47108 ,-0.16326 ,-1.60191 
370 ,72.9210 ,1.47308 ,-0.19406 ,-1.90412 
371 ,73.1132 ,1.47500 ,-0.16668 ,-1.63549 
372 ,73.3050 ,1.47687 ,-0.20775 ,-2.03843 
373 ,73.4974 ,1.47878 ,-0.21117 ,-2.07201 
374 ,73.7215 ,1.48095 ,-0.22144 ,-2.17275 
375 ,73.9131 ,1.48299 ,-0.21802 ,-2.13917 
376 ,74.1052 ,1.48491 ,-0.24881 ,-2.44137 
377 ,74.2814 ,1.48674 ,-0.24197 ,-2.37422 
378 ,74.4733 ,1.48856 ,-0.24881 ,-2.44137 
379 ,74.6657 ,1.49054 ,-0.26935 ,-2.64284 
380 ,74.8741 ,1.49260 ,-0.26593 ,-2.60926 
381 ,75.0657 ,1.49450 ,-0.28304 ,-2.77716 
382 ,75.2578 ,1.49637 ,-0.28988 ,-2.84431 
383 ,75.4501 ,1.49837 ,-0.30015 ,-2.94505 
384 ,75.6421 ,1.50036 ,-0.30699 ,-3.01220 
385 ,75.8342 ,1.50213 ,-0.30699 ,-3.01220 
386 ,76.0263 ,1.50412 ,-0.33779 ,-3.31441 
387 ,76.2184 ,1.50598 ,-0.34121 ,-3.34799 
388 ,76.4106 ,1.50799 ,-0.33779 ,-3.31441 
389 ,76.6026 ,1.50985 ,-0.37544 ,-3.68377 
390 ,76.8266 ,1.51201 ,-0.36175 ,-3.54946 
391 ,77.0504 ,1.51423 ,-0.36517 ,-3.58303 
392 ,77.2589 ,1.51650 ,-0.39597 ,-3.88524 
393 ,77.4670 ,1.51854 ,-0.40966 ,-4.01955 
394 ,77.6591 ,1.52042 ,-0.41650 ,-4.08671 
395 ,77.8511 ,1.52233 ,-0.40966 ,-4.01955 
396 ,78.0592 ,1.52437 ,-0.44046 ,-4.32176 
397 ,78.2513 ,1.52634 ,-0.44046 ,-4.32176 
398 ,78.4591 ,1.52839 ,-0.45757 ,-4.48965 
399 ,78.6509 ,1.53038 ,-0.46099 ,-4.52323 
400 ,78.8591 ,1.53239 ,-0.48152 ,-4.72470 
401 ,79.0512 ,1.53431 ,-0.46783 ,-4.59038 
402 ,79.2433 ,1.53623 ,-0.49863 ,-4.89259 
403 ,79.4353 ,1.53814 ,-0.49863 ,-4.89259 
404 ,79.6276 ,1.54008 ,-0.51917 ,-5.09406 
405 ,79.8199 ,1.54204 ,-0.52259 ,-5.12764 
406 ,80.0118 ,1.54392 ,-0.51917 ,-5.09406 
407 ,80.2040 ,1.54584 ,-0.54312 ,-5.32911 
408 ,80.3960 ,1.54775 ,-0.53970 ,-5.29553 
409 ,80.5881 ,1.54964 ,-0.56023 ,-5.49700 
410 ,80.7802 ,1.55163 ,-0.57734 ,-5.66489 
411 ,80.9722 ,1.55352 ,-0.55681 ,-5.46342 
412 ,81.1645 ,1.55550 ,-0.58419 ,-5.73205 
413 ,81.3404 ,1.55731 ,-0.58077 ,-5.69847 
414 ,81.5323 ,1.55918 ,-0.58419 ,-5.73205 
415 ,81.7406 ,1.56123 ,-0.61499 ,-6.03425 
416 ,81.9325 ,1.56311 ,-0.60472 ,-5.93352 
417 ,82.1244 ,1.56505 ,-0.62525 ,-6.13499 
418 ,82.3167 ,1.56697 ,-0.63894 ,-6.26930 
419 ,82.5248 ,1.56907 ,-0.64579 ,-6.33646 
420 ,82.7331 ,1.57103 ,-0.64921 ,-6.37003 
421 ,82.9412 ,1.57321 ,-0.66632 ,-6.53793 
422 ,83.1332 ,1.57514 ,-0.66974 ,-6.57150 
423 ,83.3252 ,1.57706 ,-0.68001 ,-6.67224 
424 ,83.5334 ,1.57910 ,-0.69712 ,-6.84013 
425 ,83.7253 ,1.58103 ,-0.69712 ,-6.84013 
426 ,83.9175 ,1.58310 ,-0.70396 ,-6.90729 
427 ,84.1096 ,1.58498 ,-0.71423 ,-7.00802 
428 ,84.3012 ,1.58693 ,-0.73134 ,-7.17591 
429 ,84.4937 ,1.58875 ,-0.72450 ,-7.10876 
430 ,84.7019 ,1.59082 ,-0.74845 ,-7.34380 
431 ,84.8940 ,1.59274 ,-0.74161 ,-7.27665 
432 ,85.0860 ,1.59468 ,-0.74845 ,-7.34380 
433 ,85.2939 ,1.59672 ,-0.76214 ,-7.47812 
434 ,85.4861 ,1.59862 ,-0.77583 ,-7.61243 
435 ,85.6783 ,1.60053 ,-0.79294 ,-7.78032 
436 ,85.8704 ,1.60255 ,-0.80663 ,-7.91464 
437 ,86.0625 ,1.60448 ,-0.81689 ,-8.01537 
438 ,86.2862 ,1.60663 ,-0.80663 ,-7.91464 
439 ,86.4941 ,1.60878 ,-0.82032 ,-8.04895 
440 ,86.6866 ,1.61069 ,-0.82716 ,-8.11611 
441 ,86.8945 ,1.61271 ,-0.83401 ,-8.18326 
442 ,87.0867 ,1.61467 ,-0.83743 ,-8.21684 
443 ,87.2943 ,1.61671 ,-0.85112 ,-8.35115 
444 ,87.4705 ,1.61863 ,-0.86481 ,-8.48547 
445 ,87.6627 ,1.62039 ,-0.86481 ,-8.48547 
446 ,87.8547 ,1.62230 ,-0.88876 ,-8.72051 
447 ,88.0468 ,1.62427 ,-0.88192 ,-8.65336 
448 ,88.2388 ,1.62617 ,-0.90587 ,-8.88841 
449 ,88.4309 ,1.62808 ,-0.90245 ,-8.85483 
450 ,88.6228 ,1.62998 ,-0.91614 ,-8.98914 
451 ,88.8309 ,1.63205 ,-0.91614 ,-8.98914 
452 ,89.0230 ,1.63402 ,-0.92983 ,-9.12345 
453 ,89.2311 ,1.63606 ,-0.94351 ,-9.25777 
454 ,89.4233 ,1.63800 ,-0.95036 ,-9.32492 
455 ,89.5993 ,1.63987 ,-0.97089 ,-9.52639 
456 ,89.7914 ,1.64170 ,-0.97089 ,-9.52639 
457 ,89.9836 ,1.64360 ,-0.97431 ,-9.55997 
458 ,90.1756 ,1.64555 ,-0.98458 ,-9.66071 
459 ,90.3517 ,1.64742 ,-0.97774 ,-9.59355 
460 ,90.5438 ,1.64921 ,-0.99143 ,-9.72786 
461 ,90.7359 ,1.65109 ,-1.01538 ,-9.96291 
462 ,90.9279 ,1.65304 ,-1.01880 ,-9.99649 
