Data stamp = , 28-04-2022 01:29:08 835

Calibration Values: 
Slope = , 26.54 , g/V 
Offset Voltage at no contact = , -0.501760 , V 

No , Time , Stage Position ,   Mass , Force 
   ,  (s) ,      (mm)      ,   (g)  , (mN)  

1 ,0.0000 ,0.74939 ,5.26087 ,51.61969 
2 ,0.3140 ,0.74962 ,5.26772 ,51.68685 
3 ,0.6505 ,0.75089 ,5.27456 ,51.75401 
4 ,0.8583 ,0.75277 ,5.26772 ,51.68685 
5 ,1.0666 ,0.75472 ,5.24376 ,51.45180 
6 ,1.2586 ,0.75668 ,5.27114 ,51.72043 
7 ,1.4510 ,0.75850 ,5.27114 ,51.72043 
8 ,1.6591 ,0.76067 ,5.25403 ,51.55254 
9 ,1.8510 ,0.76258 ,5.22665 ,51.28391 
10 ,2.0268 ,0.76446 ,5.23350 ,51.35107 
11 ,2.2192 ,0.76634 ,5.21981 ,51.21675 
12 ,2.4271 ,0.76834 ,5.19243 ,50.94813 
13 ,2.6194 ,0.77029 ,5.18559 ,50.88097 
14 ,2.7951 ,0.77215 ,5.15479 ,50.57876 
15 ,2.9875 ,0.77395 ,5.13425 ,50.37729 
16 ,3.1794 ,0.77589 ,5.12741 ,50.31014 
17 ,3.3875 ,0.77794 ,5.10003 ,50.04151 
18 ,3.5796 ,0.77987 ,5.09319 ,49.97436 
19 ,3.7720 ,0.78188 ,5.07265 ,49.77289 
20 ,3.9800 ,0.78379 ,5.05554 ,49.60499 
21 ,4.1717 ,0.78578 ,5.02817 ,49.33637 
22 ,4.3961 ,0.78801 ,5.00763 ,49.13490 
23 ,4.6044 ,0.79013 ,4.97683 ,48.83269 
24 ,4.7961 ,0.79204 ,4.97341 ,48.79911 
25 ,4.9881 ,0.79395 ,4.94261 ,48.49691 
26 ,5.1645 ,0.79581 ,4.95288 ,48.59764 
27 ,5.3566 ,0.79759 ,4.90839 ,48.16113 
28 ,5.5646 ,0.79972 ,4.89470 ,48.02681 
29 ,5.7568 ,0.80163 ,4.87075 ,47.79177 
30 ,5.9488 ,0.80361 ,4.84679 ,47.55672 
31 ,6.1410 ,0.80553 ,4.83652 ,47.45598 
32 ,6.3331 ,0.80738 ,4.80915 ,47.18736 
33 ,6.5251 ,0.80934 ,4.79546 ,47.05304 
34 ,6.7333 ,0.81142 ,4.77150 ,46.81800 
35 ,6.9250 ,0.81336 ,4.76466 ,46.75084 
36 ,7.1173 ,0.81524 ,4.74413 ,46.54937 
37 ,7.3420 ,0.81740 ,4.73386 ,46.44863 
38 ,7.5495 ,0.81960 ,4.69964 ,46.11285 
39 ,7.7735 ,0.82181 ,4.67568 ,45.87780 
40 ,7.9656 ,0.82375 ,4.66542 ,45.77707 
41 ,8.1417 ,0.82559 ,4.64831 ,45.60918 
42 ,8.3175 ,0.82728 ,4.63804 ,45.50844 
43 ,8.5095 ,0.82913 ,4.61066 ,45.23981 
44 ,8.7020 ,0.83111 ,4.60382 ,45.17266 
45 ,8.9097 ,0.83312 ,4.56617 ,44.80330 
46 ,9.1021 ,0.83509 ,4.56617 ,44.80330 
47 ,9.3101 ,0.83713 ,4.53880 ,44.53467 
48 ,9.5181 ,0.83922 ,4.52853 ,44.43394 
49 ,9.7101 ,0.84116 ,4.49773 ,44.13173 
50 ,9.9024 ,0.84314 ,4.50457 ,44.19889 
51 ,10.0944 ,0.84502 ,4.47378 ,43.89668 
52 ,10.2863 ,0.84693 ,4.44640 ,43.62806 
53 ,10.4786 ,0.84884 ,4.44298 ,43.59448 
54 ,10.6703 ,0.85076 ,4.40875 ,43.25870 
55 ,10.8628 ,0.85270 ,4.40533 ,43.22512 
56 ,11.0548 ,0.85465 ,4.38822 ,43.05723 
57 ,11.2465 ,0.85665 ,4.37111 ,42.88933 
58 ,11.4229 ,0.85834 ,4.35742 ,42.75502 
59 ,11.6152 ,0.86018 ,4.33347 ,42.51997 
60 ,11.8067 ,0.86219 ,4.30609 ,42.25135 
61 ,11.9992 ,0.86404 ,4.29924 ,42.18419 
62 ,12.2073 ,0.86609 ,4.27529 ,41.94914 
63 ,12.3995 ,0.86805 ,4.26502 ,41.84841 
64 ,12.6073 ,0.87015 ,4.23422 ,41.54620 
65 ,12.7996 ,0.87203 ,4.23080 ,41.51262 
66 ,12.9915 ,0.87410 ,4.20000 ,41.21042 
67 ,13.1836 ,0.87590 ,4.19658 ,41.17684 
68 ,13.3918 ,0.87802 ,4.16236 ,40.84106 
69 ,13.5837 ,0.87991 ,4.15209 ,40.74032 
70 ,13.7761 ,0.88185 ,4.13840 ,40.60601 
71 ,13.9676 ,0.88370 ,4.10418 ,40.27023 
72 ,14.1441 ,0.88560 ,4.10760 ,40.30380 
73 ,14.3361 ,0.88742 ,4.07338 ,39.96802 
74 ,14.5122 ,0.88921 ,4.05969 ,39.83371 
75 ,14.7044 ,0.89114 ,4.05285 ,39.76655 
76 ,14.8964 ,0.89303 ,4.02547 ,39.49793 
77 ,15.0721 ,0.89492 ,4.01863 ,39.43077 
78 ,15.2324 ,0.89653 ,3.99809 ,39.22930 
79 ,15.4246 ,0.89825 ,3.98441 ,39.09499 
80 ,15.6167 ,0.90016 ,3.96045 ,38.85994 
81 ,15.8088 ,0.90210 ,3.93307 ,38.59131 
82 ,15.9848 ,0.90402 ,3.93650 ,38.62489 
83 ,16.1769 ,0.90583 ,3.91596 ,38.42342 
84 ,16.3690 ,0.90769 ,3.89885 ,38.25553 
85 ,16.5611 ,0.90960 ,3.88858 ,38.15479 
86 ,16.7852 ,0.91189 ,3.85436 ,37.81901 
87 ,16.9930 ,0.91396 ,3.84067 ,37.68470 
88 ,17.2009 ,0.91604 ,3.82699 ,37.55038 
89 ,17.4093 ,0.91804 ,3.79276 ,37.21460 
90 ,17.6172 ,0.92021 ,3.78250 ,37.11387 
91 ,17.8095 ,0.92215 ,3.75512 ,36.84524 
92 ,18.0017 ,0.92408 ,3.76539 ,36.94597 
93 ,18.1937 ,0.92599 ,3.72774 ,36.57661 
94 ,18.4018 ,0.92807 ,3.72090 ,36.50946 
95 ,18.6096 ,0.93010 ,3.67983 ,36.10652 
96 ,18.8020 ,0.93205 ,3.69352 ,36.24083 
97 ,18.9939 ,0.93400 ,3.66272 ,35.93863 
98 ,19.1861 ,0.93585 ,3.63877 ,35.70358 
99 ,19.3780 ,0.93779 ,3.63877 ,35.70358 
100 ,19.5861 ,0.93986 ,3.61139 ,35.43495 
101 ,19.7781 ,0.94181 ,3.59428 ,35.26706 
102 ,19.9863 ,0.94388 ,3.56006 ,34.93128 
103 ,20.1786 ,0.94582 ,3.56006 ,34.93128 
104 ,20.3706 ,0.94767 ,3.52241 ,34.56192 
105 ,20.5626 ,0.94967 ,3.52926 ,34.62907 
106 ,20.7707 ,0.95174 ,3.48477 ,34.19255 
107 ,20.9627 ,0.95361 ,3.49846 ,34.32687 
108 ,21.1391 ,0.95546 ,3.48477 ,34.19255 
109 ,21.3309 ,0.95735 ,3.44028 ,33.75604 
110 ,21.5227 ,0.95922 ,3.44028 ,33.75604 
111 ,21.7150 ,0.96119 ,3.39921 ,33.35310 
112 ,21.9069 ,0.96320 ,3.38895 ,33.25236 
113 ,22.0991 ,0.96499 ,3.38210 ,33.18520 
114 ,22.2754 ,0.96687 ,3.34446 ,32.81584 
115 ,22.4673 ,0.96866 ,3.33762 ,32.74869 
116 ,22.6756 ,0.97076 ,3.33762 ,32.74869 
117 ,22.8838 ,0.97286 ,3.31024 ,32.48006 
118 ,23.0757 ,0.97480 ,3.28286 ,32.21143 
119 ,23.2678 ,0.97666 ,3.26575 ,32.04354 
120 ,23.4759 ,0.97875 ,3.25891 ,31.97639 
121 ,23.6675 ,0.98067 ,3.23495 ,31.74134 
122 ,23.8601 ,0.98254 ,3.23495 ,31.74134 
123 ,24.0681 ,0.98472 ,3.19046 ,31.30482 
124 ,24.2923 ,0.98685 ,3.17335 ,31.13693 
125 ,24.4845 ,0.98886 ,3.17677 ,31.17051 
126 ,24.6925 ,0.99088 ,3.14597 ,30.86830 
127 ,24.9006 ,0.99306 ,3.14597 ,30.86830 
128 ,25.1083 ,0.99507 ,3.09806 ,30.39821 
129 ,25.3007 ,0.99698 ,3.09806 ,30.39821 
130 ,25.4928 ,0.99895 ,3.06042 ,30.02884 
131 ,25.6850 ,1.00083 ,3.05358 ,29.96169 
132 ,25.8765 ,1.00273 ,3.03989 ,29.82737 
133 ,26.0689 ,1.00469 ,3.01251 ,29.55875 
134 ,26.2451 ,1.00653 ,3.00909 ,29.52517 
135 ,26.4212 ,1.00829 ,2.98855 ,29.32370 
136 ,26.5972 ,1.01001 ,2.98855 ,29.32370 
137 ,26.7892 ,1.01189 ,2.94749 ,28.92076 
138 ,26.9973 ,1.01396 ,2.94749 ,28.92076 
139 ,27.2056 ,1.01597 ,2.93038 ,28.75287 
140 ,27.3975 ,1.01797 ,2.90985 ,28.55140 
141 ,27.6057 ,1.01995 ,2.87905 ,28.24919 
142 ,27.7977 ,1.02197 ,2.87220 ,28.18204 
143 ,27.9893 ,1.02385 ,2.84140 ,27.87983 
144 ,28.1818 ,1.02587 ,2.82087 ,27.67836 
145 ,28.3899 ,1.02794 ,2.81060 ,27.57763 
146 ,28.5821 ,1.02981 ,2.80718 ,27.54405 
147 ,28.7742 ,1.03175 ,2.79691 ,27.44332 
148 ,28.9822 ,1.03382 ,2.76611 ,27.14111 
149 ,29.1745 ,1.03575 ,2.75243 ,27.00680 
150 ,29.3823 ,1.03782 ,2.74216 ,26.90606 
151 ,29.5746 ,1.03972 ,2.71478 ,26.63744 
152 ,29.7664 ,1.04166 ,2.69425 ,26.43597 
153 ,29.9587 ,1.04364 ,2.68740 ,26.36881 
154 ,30.1664 ,1.04564 ,2.65660 ,26.06661 
155 ,30.3585 ,1.04755 ,2.65660 ,26.06661 
156 ,30.5509 ,1.04953 ,2.61896 ,25.69724 
157 ,30.7430 ,1.05148 ,2.60527 ,25.56293 
158 ,30.9190 ,1.05326 ,2.60185 ,25.52935 
159 ,31.1110 ,1.05508 ,2.57105 ,25.22715 
160 ,31.3191 ,1.05711 ,2.57105 ,25.22715 
161 ,31.4953 ,1.05897 ,2.56078 ,25.12641 
162 ,31.7033 ,1.06098 ,2.53341 ,24.85779 
163 ,31.8955 ,1.06289 ,2.50945 ,24.62274 
164 ,32.1194 ,1.06509 ,2.49918 ,24.52200 
165 ,32.3113 ,1.06712 ,2.48550 ,24.38769 
166 ,32.5035 ,1.06903 ,2.46839 ,24.21980 
167 ,32.6958 ,1.07095 ,2.45812 ,24.11906 
168 ,32.8877 ,1.07285 ,2.42732 ,23.81686 
169 ,33.0800 ,1.07483 ,2.41363 ,23.68255 
170 ,33.2877 ,1.07683 ,2.37941 ,23.34676 
171 ,33.4636 ,1.07865 ,2.38625 ,23.41392 
172 ,33.6557 ,1.08053 ,2.38283 ,23.38034 
173 ,33.8319 ,1.08241 ,2.34861 ,23.04456 
174 ,34.0404 ,1.08431 ,2.33492 ,22.91024 
175 ,34.2803 ,1.08667 ,2.31781 ,22.74235 
176 ,34.4723 ,1.08865 ,2.29728 ,22.54088 
177 ,34.6647 ,1.09065 ,2.29043 ,22.47373 
178 ,34.8888 ,1.09279 ,2.28017 ,22.37299 
179 ,35.0808 ,1.09478 ,2.25279 ,22.10437 
180 ,35.2730 ,1.09669 ,2.23910 ,21.97005 
181 ,35.4810 ,1.09873 ,2.22199 ,21.80216 
182 ,35.6731 ,1.10070 ,2.20146 ,21.60069 
183 ,35.8812 ,1.10273 ,2.19119 ,21.49996 
184 ,36.0733 ,1.10471 ,2.17408 ,21.33206 
185 ,36.2655 ,1.10662 ,2.14670 ,21.06344 
186 ,36.4572 ,1.10856 ,2.14670 ,21.06344 
187 ,36.6491 ,1.11042 ,2.10906 ,20.69408 
188 ,36.8421 ,1.11239 ,2.11248 ,20.72766 
189 ,37.0337 ,1.11442 ,2.08168 ,20.42545 
190 ,37.1937 ,1.11607 ,2.07141 ,20.32472 
191 ,37.3858 ,1.11781 ,2.06115 ,20.22398 
192 ,37.5776 ,1.11975 ,2.06457 ,20.25756 
193 ,37.7854 ,1.12179 ,2.02008 ,19.82104 
194 ,37.9780 ,1.12372 ,2.03035 ,19.92178 
195 ,38.1701 ,1.12570 ,2.00639 ,19.68673 
196 ,38.3781 ,1.12771 ,1.99955 ,19.61957 
197 ,38.5542 ,1.12958 ,1.97559 ,19.38452 
198 ,38.7463 ,1.13143 ,1.94479 ,19.08232 
199 ,38.9384 ,1.13332 ,1.96533 ,19.28379 
200 ,39.1466 ,1.13541 ,1.94137 ,19.04874 
201 ,39.3547 ,1.13751 ,1.93111 ,18.94801 
202 ,39.5467 ,1.13940 ,1.89004 ,18.54507 
203 ,39.7548 ,1.14154 ,1.89688 ,18.61222 
204 ,39.9463 ,1.14341 ,1.87293 ,18.37717 
205 ,40.1387 ,1.14529 ,1.86608 ,18.31002 
206 ,40.3309 ,1.14732 ,1.84897 ,18.14213 
207 ,40.5231 ,1.14920 ,1.82160 ,17.87350 
208 ,40.7153 ,1.15108 ,1.82502 ,17.90708 
209 ,40.9232 ,1.15317 ,1.79422 ,17.60487 
210 ,41.1313 ,1.15522 ,1.80106 ,17.67203 
211 ,41.3400 ,1.15734 ,1.77711 ,17.43698 
212 ,41.5473 ,1.15931 ,1.76000 ,17.26909 
213 ,41.7394 ,1.16129 ,1.76000 ,17.26909 
214 ,41.9317 ,1.16328 ,1.73946 ,17.06762 
215 ,42.1237 ,1.16520 ,1.70182 ,16.69826 
216 ,42.3318 ,1.16725 ,1.70182 ,16.69826 
217 ,42.5238 ,1.16918 ,1.68129 ,16.49679 
218 ,42.7162 ,1.17112 ,1.68129 ,16.49679 
219 ,42.9079 ,1.17301 ,1.66075 ,16.29532 
220 ,43.1001 ,1.17492 ,1.65049 ,16.19458 
221 ,43.2921 ,1.17685 ,1.64364 ,16.12743 
222 ,43.4681 ,1.17867 ,1.61284 ,15.82522 
223 ,43.6763 ,1.18071 ,1.62311 ,15.92596 
224 ,43.8843 ,1.18278 ,1.58204 ,15.52302 
225 ,44.0444 ,1.18456 ,1.58204 ,15.52302 
226 ,44.2362 ,1.18630 ,1.57862 ,15.48944 
227 ,44.4287 ,1.18826 ,1.55467 ,15.25439 
228 ,44.6207 ,1.19018 ,1.53756 ,15.08650 
229 ,44.8129 ,1.19205 ,1.52387 ,14.95219 
230 ,45.0046 ,1.19412 ,1.50676 ,14.78430 
231 ,45.1810 ,1.19581 ,1.49307 ,14.64998 
232 ,45.3728 ,1.19770 ,1.49649 ,14.68356 
233 ,45.5653 ,1.19960 ,1.46569 ,14.38136 
234 ,45.7570 ,1.20148 ,1.46911 ,14.41493 
235 ,45.9495 ,1.20343 ,1.44516 ,14.17989 
236 ,46.1416 ,1.20543 ,1.41778 ,13.91126 
237 ,46.3335 ,1.20737 ,1.43147 ,14.04557 
238 ,46.5256 ,1.20914 ,1.39383 ,13.67621 
239 ,46.7177 ,1.21113 ,1.39383 ,13.67621 
240 ,46.9097 ,1.21298 ,1.37671 ,13.50832 
241 ,47.0856 ,1.21487 ,1.37329 ,13.47474 
242 ,47.2775 ,1.21672 ,1.36987 ,13.44116 
243 ,47.4696 ,1.21858 ,1.34934 ,13.23969 
244 ,47.6621 ,1.22057 ,1.32538 ,13.00465 
245 ,47.8701 ,1.22267 ,1.31854 ,12.93749 
246 ,48.0623 ,1.22454 ,1.28774 ,12.63528 
247 ,48.2544 ,1.22649 ,1.30485 ,12.80318 
248 ,48.4625 ,1.22850 ,1.28089 ,12.56813 
249 ,48.6543 ,1.23059 ,1.26036 ,12.36666 
250 ,48.8464 ,1.23236 ,1.24325 ,12.19877 
251 ,49.0387 ,1.23427 ,1.24325 ,12.19877 
252 ,49.2467 ,1.23633 ,1.21587 ,11.93014 
253 ,49.4389 ,1.23828 ,1.20903 ,11.86298 
254 ,49.6308 ,1.24026 ,1.19534 ,11.72867 
255 ,49.8230 ,1.24219 ,1.16796 ,11.46004 
256 ,50.0310 ,1.24424 ,1.17823 ,11.56078 
257 ,50.2232 ,1.24618 ,1.14401 ,11.22500 
258 ,50.4474 ,1.24840 ,1.13374 ,11.12426 
259 ,50.6550 ,1.25045 ,1.12690 ,11.05710 
260 ,50.8314 ,1.25230 ,1.11663 ,10.95637 
261 ,51.0231 ,1.25412 ,1.08241 ,10.62059 
262 ,51.1990 ,1.25603 ,1.09952 ,10.78848 
263 ,51.3753 ,1.25775 ,1.07214 ,10.51985 
264 ,51.5676 ,1.25953 ,1.06187 ,10.41912 
265 ,51.7598 ,1.26144 ,1.05161 ,10.31838 
266 ,51.9520 ,1.26345 ,1.04134 ,10.21765 
267 ,52.1597 ,1.26552 ,1.02081 ,10.01618 
268 ,52.3521 ,1.26743 ,1.01396 ,9.94902 
269 ,52.5600 ,1.26946 ,0.99685 ,9.78113 
270 ,52.7361 ,1.27131 ,0.97974 ,9.61324 
271 ,52.9118 ,1.27312 ,0.97974 ,9.61324 
272 ,53.1043 ,1.27494 ,0.96605 ,9.47892 
273 ,53.3123 ,1.27699 ,0.95579 ,9.37819 
274 ,53.4884 ,1.27882 ,0.93868 ,9.21030 
275 ,53.6646 ,1.28059 ,0.91814 ,9.00883 
276 ,53.8566 ,1.28245 ,0.91814 ,9.00883 
277 ,54.0483 ,1.28437 ,0.90788 ,8.90809 
278 ,54.2250 ,1.28618 ,0.88050 ,8.63947 
279 ,54.4330 ,1.28830 ,0.88392 ,8.67305 
280 ,54.6249 ,1.29013 ,0.85312 ,8.37084 
281 ,54.8008 ,1.29198 ,0.85997 ,8.43800 
282 ,54.9930 ,1.29380 ,0.85654 ,8.40442 
283 ,55.1532 ,1.29558 ,0.82917 ,8.13579 
284 ,55.3293 ,1.29725 ,0.82917 ,8.13579 
285 ,55.5214 ,1.29906 ,0.79837 ,7.83359 
286 ,55.7134 ,1.30113 ,0.80179 ,7.86717 
287 ,55.8895 ,1.30282 ,0.79837 ,7.83359 
288 ,56.0973 ,1.30476 ,0.76415 ,7.49780 
289 ,56.2897 ,1.30679 ,0.76072 ,7.46423 
290 ,56.4817 ,1.30877 ,0.73335 ,7.19560 
291 ,56.6576 ,1.31050 ,0.72308 ,7.09486 
292 ,56.8498 ,1.31238 ,0.73677 ,7.22918 
293 ,57.0419 ,1.31432 ,0.69913 ,6.85982 
294 ,57.2337 ,1.31617 ,0.70939 ,6.96055 
295 ,57.4261 ,1.31811 ,0.68886 ,6.75908 
296 ,57.6181 ,1.32002 ,0.67517 ,6.62477 
297 ,57.8103 ,1.32199 ,0.67859 ,6.65835 
298 ,57.9862 ,1.32388 ,0.64779 ,6.35614 
299 ,58.1786 ,1.32565 ,0.64437 ,6.32256 
300 ,58.3861 ,1.32770 ,0.63410 ,6.22183 
301 ,58.5787 ,1.32964 ,0.61699 ,6.05394 
302 ,58.7703 ,1.33155 ,0.62042 ,6.08752 
303 ,58.9628 ,1.33350 ,0.58277 ,5.71815 
304 ,59.1549 ,1.33546 ,0.58277 ,5.71815 
305 ,59.3475 ,1.33737 ,0.56566 ,5.55026 
306 ,59.5551 ,1.33944 ,0.55539 ,5.44953 
307 ,59.7632 ,1.34148 ,0.53828 ,5.28164 
308 ,59.9553 ,1.34340 ,0.54171 ,5.31522 
309 ,60.1633 ,1.34551 ,0.51433 ,5.04659 
310 ,60.3554 ,1.34741 ,0.52802 ,5.18090 
311 ,60.5315 ,1.34932 ,0.50406 ,4.94585 
312 ,60.7075 ,1.35101 ,0.49380 ,4.84512 
313 ,60.8995 ,1.35287 ,0.47668 ,4.67723 
314 ,61.0913 ,1.35473 ,0.47326 ,4.64365 
315 ,61.2672 ,1.35658 ,0.45957 ,4.50934 
316 ,61.4758 ,1.35863 ,0.44246 ,4.34144 
317 ,61.6839 ,1.36067 ,0.42535 ,4.17355 
318 ,61.8920 ,1.36279 ,0.43220 ,4.24071 
319 ,62.0840 ,1.36481 ,0.40824 ,4.00566 
320 ,62.2602 ,1.36653 ,0.39113 ,3.83777 
321 ,62.4522 ,1.36840 ,0.39455 ,3.87135 
322 ,62.6439 ,1.37038 ,0.37402 ,3.66988 
323 ,62.8365 ,1.37222 ,0.37402 ,3.66988 
324 ,63.0445 ,1.37431 ,0.34664 ,3.40125 
325 ,63.2205 ,1.37612 ,0.33980 ,3.33410 
326 ,63.4127 ,1.37797 ,0.34664 ,3.40125 
327 ,63.6208 ,1.38012 ,0.30558 ,2.99831 
328 ,63.8128 ,1.38197 ,0.31926 ,3.13263 
329 ,64.0209 ,1.38408 ,0.29873 ,2.93116 
330 ,64.2130 ,1.38593 ,0.30900 ,3.03189 
331 ,64.4211 ,1.38799 ,0.27820 ,2.72969 
332 ,64.6290 ,1.39013 ,0.27135 ,2.66253 
333 ,64.8208 ,1.39207 ,0.24740 ,2.42748 
334 ,65.0133 ,1.39396 ,0.25082 ,2.46106 
335 ,65.2054 ,1.39589 ,0.22687 ,2.22601 
336 ,65.4135 ,1.39797 ,0.22344 ,2.19243 
337 ,65.6055 ,1.39998 ,0.20976 ,2.05812 
338 ,65.7817 ,1.40170 ,0.19949 ,1.95738 
339 ,65.9737 ,1.40367 ,0.20291 ,1.99096 
340 ,66.1658 ,1.40546 ,0.17896 ,1.75592 
341 ,66.3579 ,1.40742 ,0.18580 ,1.82307 
342 ,66.5499 ,1.40935 ,0.16869 ,1.65518 
343 ,66.7421 ,1.41123 ,0.14816 ,1.45371 
344 ,66.9340 ,1.41322 ,0.15500 ,1.52087 
345 ,67.1262 ,1.41508 ,0.12762 ,1.25224 
346 ,67.3181 ,1.41707 ,0.10709 ,1.05077 
347 ,67.4944 ,1.41886 ,0.11736 ,1.15151 
348 ,67.6865 ,1.42072 ,0.09340 ,0.91646 
349 ,67.8784 ,1.42265 ,0.08314 ,0.81572 
350 ,68.0541 ,1.42450 ,0.07971 ,0.78214 
351 ,68.2468 ,1.42631 ,0.06602 ,0.64783 
352 ,68.4549 ,1.42838 ,0.06945 ,0.68141 
353 ,68.6467 ,1.43030 ,0.04891 ,0.47994 
354 ,68.8390 ,1.43222 ,0.03865 ,0.37920 
355 ,69.0310 ,1.43416 ,0.03865 ,0.37920 
356 ,69.2391 ,1.43620 ,0.00100 ,0.00984 
357 ,69.4470 ,1.43829 ,0.00100 ,0.00984 
358 ,69.6392 ,1.44023 ,0.00100 ,0.00984 
359 ,69.8314 ,1.44212 ,-0.01269 ,-0.12447 
360 ,70.0233 ,1.44407 ,-0.02980 ,-0.29236 
361 ,70.1991 ,1.44587 ,-0.02980 ,-0.29236 
362 ,70.3913 ,1.44776 ,-0.04348 ,-0.42667 
363 ,70.5995 ,1.44974 ,-0.06060 ,-0.59457 
364 ,70.7914 ,1.45173 ,-0.05033 ,-0.49383 
365 ,70.9836 ,1.45368 ,-0.08455 ,-0.82961 
366 ,71.1759 ,1.45557 ,-0.08455 ,-0.82961 
367 ,71.3680 ,1.45750 ,-0.09824 ,-0.96393 
368 ,71.5759 ,1.45957 ,-0.09482 ,-0.93035 
369 ,71.7681 ,1.46146 ,-0.11193 ,-1.09824 
370 ,71.9761 ,1.46353 ,-0.12219 ,-1.19898 
371 ,72.1681 ,1.46551 ,-0.13588 ,-1.33329 
372 ,72.3759 ,1.46757 ,-0.14273 ,-1.40045 
373 ,72.5682 ,1.46955 ,-0.16668 ,-1.63549 
374 ,72.7605 ,1.47143 ,-0.18037 ,-1.76981 
375 ,72.9522 ,1.47333 ,-0.16668 ,-1.63549 
376 ,73.1286 ,1.47519 ,-0.18037 ,-1.76981 
377 ,73.3205 ,1.47703 ,-0.20090 ,-1.97128 
378 ,73.5122 ,1.47891 ,-0.19406 ,-1.90412 
379 ,73.7049 ,1.48085 ,-0.21802 ,-2.13917 
380 ,73.8968 ,1.48279 ,-0.23170 ,-2.27348 
381 ,74.1049 ,1.48486 ,-0.24539 ,-2.40779 
382 ,74.2967 ,1.48675 ,-0.23513 ,-2.30706 
383 ,74.4730 ,1.48859 ,-0.25224 ,-2.47495 
384 ,74.6652 ,1.49041 ,-0.26250 ,-2.57569 
385 ,74.8733 ,1.49257 ,-0.26250 ,-2.57569 
386 ,75.0813 ,1.49459 ,-0.29330 ,-2.87789 
387 ,75.2735 ,1.49650 ,-0.28646 ,-2.81073 
388 ,75.4656 ,1.49847 ,-0.29330 ,-2.87789 
389 ,75.6734 ,1.50054 ,-0.30357 ,-2.97863 
390 ,75.8658 ,1.50245 ,-0.33437 ,-3.28083 
391 ,76.0737 ,1.50456 ,-0.32410 ,-3.18010 
392 ,76.2817 ,1.50647 ,-0.34464 ,-3.38156 
393 ,76.4740 ,1.50857 ,-0.34464 ,-3.38156 
394 ,76.6660 ,1.51054 ,-0.36859 ,-3.61661 
395 ,76.8579 ,1.51239 ,-0.37201 ,-3.65019 
396 ,77.0663 ,1.51447 ,-0.38228 ,-3.75093 
397 ,77.2582 ,1.51638 ,-0.38228 ,-3.75093 
398 ,77.4663 ,1.51850 ,-0.39597 ,-3.88524 
399 ,77.6582 ,1.52039 ,-0.40623 ,-3.98597 
400 ,77.8341 ,1.52220 ,-0.40281 ,-3.95240 
401 ,78.0262 ,1.52406 ,-0.42677 ,-4.18744 
402 ,78.2027 ,1.52592 ,-0.43703 ,-4.28818 
403 ,78.4107 ,1.52790 ,-0.43361 ,-4.25460 
404 ,78.6027 ,1.52978 ,-0.45757 ,-4.48965 
405 ,78.7947 ,1.53176 ,-0.44730 ,-4.38891 
406 ,78.9708 ,1.53354 ,-0.45414 ,-4.45607 
407 ,79.1629 ,1.53539 ,-0.49521 ,-4.85901 
408 ,79.3550 ,1.53730 ,-0.47468 ,-4.65754 
409 ,79.5470 ,1.53925 ,-0.49863 ,-4.89259 
410 ,79.7393 ,1.54112 ,-0.50548 ,-4.95975 
411 ,79.9313 ,1.54316 ,-0.50548 ,-4.95975 
412 ,80.1231 ,1.54504 ,-0.52943 ,-5.19479 
413 ,80.3155 ,1.54692 ,-0.52259 ,-5.12764 
414 ,80.5396 ,1.54912 ,-0.55681 ,-5.46342 
415 ,80.7475 ,1.55126 ,-0.55681 ,-5.46342 
416 ,80.9556 ,1.55336 ,-0.56023 ,-5.49700 
417 ,81.1477 ,1.55527 ,-0.58077 ,-5.69847 
418 ,81.3560 ,1.55734 ,-0.57050 ,-5.59773 
419 ,81.5478 ,1.55925 ,-0.59445 ,-5.83278 
420 ,81.7240 ,1.56104 ,-0.61499 ,-6.03425 
421 ,81.9158 ,1.56289 ,-0.60814 ,-5.96709 
422 ,82.1079 ,1.56483 ,-0.62183 ,-6.10141 
423 ,82.2999 ,1.56676 ,-0.63552 ,-6.23572 
424 ,82.4924 ,1.56865 ,-0.63894 ,-6.26930 
425 ,82.6843 ,1.57063 ,-0.64579 ,-6.33646 
426 ,82.8606 ,1.57243 ,-0.65947 ,-6.47077 
427 ,83.0525 ,1.57434 ,-0.64579 ,-6.33646 
428 ,83.2444 ,1.57622 ,-0.68001 ,-6.67224 
429 ,83.4365 ,1.57815 ,-0.66632 ,-6.53793 
430 ,83.6449 ,1.58017 ,-0.68685 ,-6.73940 
431 ,83.8527 ,1.58219 ,-0.69027 ,-6.77297 
432 ,84.0609 ,1.58433 ,-0.71081 ,-6.97444 
433 ,84.2368 ,1.58623 ,-0.70739 ,-6.94086 
434 ,84.4450 ,1.58817 ,-0.72107 ,-7.07518 
435 ,84.6532 ,1.59030 ,-0.73134 ,-7.17591 
436 ,84.8293 ,1.59210 ,-0.73476 ,-7.20949 
437 ,85.0372 ,1.59414 ,-0.74161 ,-7.27665 
438 ,85.2295 ,1.59607 ,-0.75187 ,-7.37738 
439 ,85.4211 ,1.59796 ,-0.77241 ,-7.57885 
440 ,85.6135 ,1.59986 ,-0.77925 ,-7.64601 
441 ,85.7894 ,1.60171 ,-0.77925 ,-7.64601 
442 ,85.9978 ,1.60375 ,-0.79294 ,-7.78032 
443 ,86.1897 ,1.60569 ,-0.78952 ,-7.74674 
444 ,86.3660 ,1.60748 ,-0.82374 ,-8.08253 
445 ,86.5738 ,1.60948 ,-0.80663 ,-7.91464 
446 ,86.7660 ,1.61152 ,-0.83058 ,-8.14968 
447 ,86.9580 ,1.61328 ,-0.83401 ,-8.18326 
448 ,87.1503 ,1.61529 ,-0.84085 ,-8.25042 
449 ,87.3423 ,1.61722 ,-0.86138 ,-8.45189 
450 ,87.5182 ,1.61897 ,-0.86823 ,-8.51904 
451 ,87.7101 ,1.62086 ,-0.85796 ,-8.41831 
452 ,87.9185 ,1.62296 ,-0.88534 ,-8.68694 
453 ,88.1106 ,1.62485 ,-0.88534 ,-8.68694 
454 ,88.3343 ,1.62711 ,-0.89560 ,-8.78767 
455 ,88.5265 ,1.62902 ,-0.91956 ,-9.02272 
456 ,88.7027 ,1.63082 ,-0.92298 ,-9.05630 
457 ,88.9109 ,1.63284 ,-0.92983 ,-9.12345 
458 ,89.1030 ,1.63478 ,-0.94694 ,-9.29135 
459 ,89.2628 ,1.63657 ,-0.94009 ,-9.22419 
460 ,89.4712 ,1.63847 ,-0.94009 ,-9.22419 
461 ,89.6792 ,1.64051 ,-0.95720 ,-9.39208 
462 ,89.8715 ,1.64242 ,-0.96747 ,-9.49282 
463 ,90.0796 ,1.64456 ,-0.97774 ,-9.59355 
