Data stamp = , 28-04-2022 10:02:23 023

Calibration Values: 
Slope = , 26.54 , g/V 
Offset Voltage at no contact = , -0.501760 , V 

No , Time , Stage Position ,   Mass , Force 
   ,  (s) ,      (mm)      ,   (g)  , (mN)  

1 ,0.0000 ,0.74953 ,5.29852 ,51.98905 
2 ,0.2320 ,0.74964 ,5.30536 ,52.05621 
3 ,0.7125 ,0.75130 ,5.28141 ,51.82116 
4 ,0.9206 ,0.75354 ,5.29510 ,51.95548 
5 ,1.1127 ,0.75541 ,5.28825 ,51.88832 
6 ,1.3045 ,0.75726 ,5.29852 ,51.98905 
7 ,1.5128 ,0.75931 ,5.29510 ,51.95548 
8 ,1.7051 ,0.76127 ,5.30194 ,52.02263 
9 ,1.8968 ,0.76322 ,5.27114 ,51.72043 
10 ,2.0892 ,0.76517 ,5.26772 ,51.68685 
11 ,2.2812 ,0.76710 ,5.24718 ,51.48538 
12 ,2.4732 ,0.76901 ,5.22323 ,51.25033 
13 ,2.6812 ,0.77097 ,5.20612 ,51.08244 
14 ,2.8736 ,0.77306 ,5.18901 ,50.91455 
15 ,3.0655 ,0.77494 ,5.16848 ,50.71308 
16 ,3.2576 ,0.77680 ,5.12741 ,50.31014 
17 ,3.4655 ,0.77895 ,5.12399 ,50.27656 
18 ,3.6417 ,0.78083 ,5.08977 ,49.94078 
19 ,3.8018 ,0.78247 ,5.06239 ,49.67215 
20 ,3.9939 ,0.78417 ,5.06581 ,49.70573 
21 ,4.1860 ,0.78607 ,5.05212 ,49.57142 
22 ,4.3621 ,0.78800 ,5.02132 ,49.26921 
23 ,4.5380 ,0.78963 ,5.00421 ,49.10132 
24 ,4.7141 ,0.79150 ,4.99737 ,49.03416 
25 ,4.9059 ,0.79336 ,4.98368 ,48.89985 
26 ,5.0984 ,0.79532 ,4.94603 ,48.53049 
27 ,5.3065 ,0.79725 ,4.94261 ,48.49691 
28 ,5.4985 ,0.79925 ,4.90839 ,48.16113 
29 ,5.6907 ,0.80119 ,4.89812 ,48.06039 
30 ,5.8987 ,0.80317 ,4.88101 ,47.89250 
31 ,6.1065 ,0.80531 ,4.86390 ,47.72461 
32 ,6.3150 ,0.80737 ,4.83310 ,47.42240 
33 ,6.5068 ,0.80931 ,4.83310 ,47.42240 
34 ,6.6991 ,0.81120 ,4.78861 ,46.98589 
35 ,6.8911 ,0.81330 ,4.77835 ,46.88515 
36 ,7.0673 ,0.81501 ,4.77150 ,46.81800 
37 ,7.2593 ,0.81686 ,4.73386 ,46.44863 
38 ,7.4674 ,0.81885 ,4.73728 ,46.48221 
39 ,7.6755 ,0.82098 ,4.69622 ,46.07927 
40 ,7.8672 ,0.82292 ,4.68253 ,45.94496 
41 ,8.0595 ,0.82483 ,4.64488 ,45.57560 
42 ,8.2516 ,0.82677 ,4.64488 ,45.57560 
43 ,8.4437 ,0.82865 ,4.62435 ,45.37413 
44 ,8.6358 ,0.83059 ,4.61408 ,45.27339 
45 ,8.8279 ,0.83254 ,4.58671 ,45.00477 
46 ,9.0196 ,0.83439 ,4.56617 ,44.80330 
47 ,9.2120 ,0.83635 ,4.55933 ,44.73614 
48 ,9.4042 ,0.83828 ,4.53195 ,44.46751 
49 ,9.5961 ,0.84016 ,4.52169 ,44.36678 
50 ,9.7884 ,0.84207 ,4.49773 ,44.13173 
51 ,9.9963 ,0.84417 ,4.49431 ,44.09815 
52 ,10.2206 ,0.84630 ,4.45324 ,43.69521 
53 ,10.4282 ,0.84849 ,4.44298 ,43.59448 
54 ,10.6366 ,0.85057 ,4.43955 ,43.56090 
55 ,10.8288 ,0.85258 ,4.42244 ,43.39301 
56 ,11.0207 ,0.85445 ,4.38480 ,43.02365 
57 ,11.2130 ,0.85634 ,4.37111 ,42.88933 
58 ,11.4208 ,0.85846 ,4.35400 ,42.72144 
59 ,11.6131 ,0.86045 ,4.33004 ,42.48639 
60 ,11.7892 ,0.86217 ,4.30267 ,42.21777 
61 ,11.9812 ,0.86408 ,4.29240 ,42.11703 
62 ,12.1890 ,0.86614 ,4.26845 ,41.88198 
63 ,12.3814 ,0.86808 ,4.26160 ,41.81483 
64 ,12.5895 ,0.87012 ,4.22738 ,41.47905 
65 ,12.7816 ,0.87201 ,4.23080 ,41.51262 
66 ,12.9897 ,0.87405 ,4.19658 ,41.17684 
67 ,13.1818 ,0.87606 ,4.18289 ,41.04253 
68 ,13.3896 ,0.87809 ,4.15894 ,40.80748 
69 ,13.5499 ,0.87990 ,4.14867 ,40.70674 
70 ,13.7259 ,0.88153 ,4.11787 ,40.40454 
71 ,13.9340 ,0.88357 ,4.12471 ,40.47170 
72 ,14.1422 ,0.88565 ,4.09049 ,40.13591 
73 ,14.3502 ,0.88764 ,4.08365 ,40.06876 
74 ,14.5422 ,0.88975 ,4.07338 ,39.96802 
75 ,14.7504 ,0.89166 ,4.04600 ,39.69940 
76 ,14.9585 ,0.89370 ,4.01863 ,39.43077 
77 ,15.1666 ,0.89587 ,3.99467 ,39.19572 
78 ,15.3587 ,0.89777 ,3.99125 ,39.16214 
79 ,15.5502 ,0.89981 ,3.96387 ,38.89352 
80 ,15.7427 ,0.90161 ,3.95018 ,38.75920 
81 ,15.9508 ,0.90371 ,3.91596 ,38.42342 
82 ,16.1428 ,0.90561 ,3.92965 ,38.55773 
83 ,16.3029 ,0.90740 ,3.90227 ,38.28911 
84 ,16.4950 ,0.90915 ,3.87490 ,38.02048 
85 ,16.6713 ,0.91100 ,3.84410 ,37.71828 
86 ,16.8792 ,0.91298 ,3.85094 ,37.78543 
87 ,17.0715 ,0.91494 ,3.81330 ,37.41607 
88 ,17.2794 ,0.91698 ,3.79961 ,37.28176 
89 ,17.4715 ,0.91886 ,3.78250 ,37.11387 
90 ,17.6632 ,0.92087 ,3.76539 ,36.94597 
91 ,17.8556 ,0.92275 ,3.74143 ,36.71093 
92 ,18.0477 ,0.92466 ,3.74485 ,36.74450 
93 ,18.2398 ,0.92663 ,3.71405 ,36.44230 
94 ,18.4319 ,0.92855 ,3.68668 ,36.17367 
95 ,18.6400 ,0.93056 ,3.66272 ,35.93863 
96 ,18.8318 ,0.93254 ,3.64561 ,35.77073 
97 ,19.0081 ,0.93432 ,3.64561 ,35.77073 
98 ,19.2160 ,0.93633 ,3.61823 ,35.50211 
99 ,19.3923 ,0.93820 ,3.60454 ,35.36779 
100 ,19.6003 ,0.94015 ,3.57032 ,35.03201 
101 ,19.7762 ,0.94197 ,3.55663 ,34.89770 
102 ,19.9362 ,0.94375 ,3.54295 ,34.76338 
103 ,20.1286 ,0.94546 ,3.54637 ,34.79696 
104 ,20.3202 ,0.94740 ,3.50872 ,34.42760 
105 ,20.5127 ,0.94934 ,3.50188 ,34.36045 
106 ,20.7048 ,0.95122 ,3.48477 ,34.19255 
107 ,20.8808 ,0.95314 ,3.46081 ,33.95751 
108 ,21.0731 ,0.95492 ,3.44713 ,33.82319 
109 ,21.2811 ,0.95702 ,3.41290 ,33.48741 
110 ,21.4891 ,0.95925 ,3.41975 ,33.55457 
111 ,21.6651 ,0.96089 ,3.40264 ,33.38667 
112 ,21.8411 ,0.96264 ,3.37526 ,33.11805 
113 ,22.0329 ,0.96452 ,3.36157 ,32.98374 
114 ,22.2415 ,0.96649 ,3.34788 ,32.84942 
115 ,22.4495 ,0.96863 ,3.32735 ,32.64795 
116 ,22.6576 ,0.97064 ,3.29997 ,32.37933 
117 ,22.8658 ,0.97285 ,3.28971 ,32.27859 
118 ,23.0578 ,0.97476 ,3.26917 ,32.07712 
119 ,23.2499 ,0.97668 ,3.24522 ,31.84207 
120 ,23.4420 ,0.97863 ,3.21784 ,31.57345 
121 ,23.6340 ,0.98056 ,3.20757 ,31.47271 
122 ,23.8260 ,0.98236 ,3.19046 ,31.30482 
123 ,24.0183 ,0.98432 ,3.17677 ,31.17051 
124 ,24.2099 ,0.98626 ,3.15624 ,30.96904 
125 ,24.4184 ,0.98827 ,3.12886 ,30.70041 
126 ,24.6425 ,0.99048 ,3.11518 ,30.56610 
127 ,24.8506 ,0.99265 ,3.09122 ,30.33105 
128 ,25.0586 ,0.99464 ,3.07069 ,30.12958 
129 ,25.2346 ,0.99662 ,3.06384 ,30.06242 
130 ,25.4107 ,0.99834 ,3.05358 ,29.96169 
131 ,25.6028 ,1.00020 ,3.02278 ,29.65948 
132 ,25.8109 ,1.00223 ,3.01593 ,29.59233 
133 ,25.9870 ,1.00408 ,2.99198 ,29.35728 
134 ,26.1791 ,1.00603 ,2.98855 ,29.32370 
135 ,26.3708 ,1.00791 ,2.96802 ,29.12223 
136 ,26.5472 ,1.00975 ,2.93038 ,28.75287 
137 ,26.7554 ,1.01168 ,2.93038 ,28.75287 
138 ,26.9474 ,1.01361 ,2.89958 ,28.45066 
139 ,27.1393 ,1.01557 ,2.89616 ,28.41709 
140 ,27.3313 ,1.01745 ,2.86878 ,28.14846 
141 ,27.5232 ,1.01943 ,2.85509 ,28.01415 
142 ,27.7474 ,1.02154 ,2.82429 ,27.71194 
143 ,27.9394 ,1.02358 ,2.82429 ,27.71194 
144 ,28.1318 ,1.02541 ,2.79007 ,27.37616 
145 ,28.3399 ,1.02746 ,2.78665 ,27.34258 
146 ,28.5476 ,1.02953 ,2.76611 ,27.14111 
147 ,28.7399 ,1.03164 ,2.73874 ,26.87248 
148 ,28.9478 ,1.03361 ,2.72847 ,26.77175 
149 ,29.1562 ,1.03568 ,2.69767 ,26.46954 
150 ,29.3483 ,1.03763 ,2.69425 ,26.43597 
151 ,29.5402 ,1.03954 ,2.69425 ,26.43597 
152 ,29.7485 ,1.04163 ,2.66687 ,26.16734 
153 ,29.9245 ,1.04345 ,2.64634 ,25.96587 
154 ,30.1164 ,1.04533 ,2.63265 ,25.83156 
155 ,30.2928 ,1.04717 ,2.61554 ,25.66367 
156 ,30.4847 ,1.04896 ,2.59501 ,25.46220 
157 ,30.6929 ,1.05096 ,2.57789 ,25.29430 
158 ,30.9011 ,1.05317 ,2.56763 ,25.19357 
159 ,31.1086 ,1.05526 ,2.52656 ,24.79063 
160 ,31.3006 ,1.05717 ,2.52998 ,24.82421 
161 ,31.4930 ,1.05909 ,2.50603 ,24.58916 
162 ,31.7174 ,1.06136 ,2.48550 ,24.38769 
163 ,31.9253 ,1.06337 ,2.48550 ,24.38769 
164 ,32.1175 ,1.06530 ,2.43759 ,23.91759 
165 ,32.3096 ,1.06725 ,2.43416 ,23.88402 
166 ,32.5016 ,1.06915 ,2.42390 ,23.78328 
167 ,32.6938 ,1.07103 ,2.40336 ,23.58181 
168 ,32.8858 ,1.07297 ,2.39994 ,23.54823 
169 ,33.0779 ,1.07496 ,2.37256 ,23.27961 
170 ,33.2702 ,1.07690 ,2.35203 ,23.07814 
171 ,33.4621 ,1.07877 ,2.34519 ,23.01098 
172 ,33.6542 ,1.08062 ,2.33492 ,22.91024 
173 ,33.8466 ,1.08261 ,2.31781 ,22.74235 
174 ,34.0541 ,1.08463 ,2.29043 ,22.47373 
175 ,34.2305 ,1.08655 ,2.29043 ,22.47373 
176 ,34.4227 ,1.08836 ,2.25279 ,22.10437 
177 ,34.6307 ,1.09038 ,2.26648 ,22.23868 
178 ,34.8227 ,1.09238 ,2.23568 ,21.93647 
179 ,34.9988 ,1.09414 ,2.20488 ,21.63427 
180 ,35.1908 ,1.09621 ,2.21515 ,21.73500 
181 ,35.3829 ,1.09801 ,2.18092 ,21.39922 
182 ,35.5750 ,1.09987 ,2.17408 ,21.33206 
183 ,35.7511 ,1.10168 ,2.17408 ,21.33206 
184 ,35.9431 ,1.10354 ,2.13986 ,20.99628 
185 ,36.1509 ,1.10559 ,2.11248 ,20.72766 
186 ,36.3433 ,1.10760 ,2.11932 ,20.79481 
187 ,36.5353 ,1.10945 ,2.09879 ,20.59334 
188 ,36.9510 ,1.11249 ,2.07826 ,20.39187 
189 ,37.1433 ,1.11553 ,2.03719 ,19.98893 
190 ,37.3353 ,1.11745 ,2.04404 ,20.05609 
191 ,37.5119 ,1.11933 ,2.03035 ,19.92178 
192 ,37.7039 ,1.12130 ,2.00297 ,19.65315 
193 ,37.8960 ,1.12309 ,2.00639 ,19.68673 
194 ,38.0882 ,1.12507 ,1.97217 ,19.35094 
195 ,38.2961 ,1.12708 ,1.96190 ,19.25021 
196 ,38.4883 ,1.12901 ,1.96190 ,19.25021 
197 ,38.6960 ,1.13108 ,1.95506 ,19.18305 
198 ,38.8882 ,1.13296 ,1.93111 ,18.94801 
199 ,39.0962 ,1.13504 ,1.92084 ,18.84727 
200 ,39.2727 ,1.13694 ,1.89004 ,18.54507 
201 ,39.4643 ,1.13885 ,1.87977 ,18.44433 
202 ,39.6567 ,1.14067 ,1.87635 ,18.41075 
203 ,39.8489 ,1.14262 ,1.84897 ,18.14213 
204 ,40.0569 ,1.14469 ,1.85240 ,18.17570 
205 ,40.2650 ,1.14675 ,1.82502 ,17.90708 
206 ,40.4572 ,1.14869 ,1.81817 ,17.83992 
207 ,40.6492 ,1.15062 ,1.79422 ,17.60487 
208 ,40.8571 ,1.15262 ,1.79422 ,17.60487 
209 ,41.0494 ,1.15457 ,1.76342 ,17.30267 
210 ,41.2415 ,1.15654 ,1.76342 ,17.30267 
211 ,41.4495 ,1.15857 ,1.72920 ,16.96689 
212 ,41.6251 ,1.16046 ,1.73262 ,17.00046 
213 ,41.8178 ,1.16231 ,1.72920 ,16.96689 
214 ,42.0258 ,1.16435 ,1.70182 ,16.69826 
215 ,42.2178 ,1.16626 ,1.69840 ,16.66468 
216 ,42.4259 ,1.16835 ,1.68129 ,16.49679 
217 ,42.6176 ,1.17030 ,1.66075 ,16.29532 
218 ,42.8100 ,1.17218 ,1.63680 ,16.06027 
219 ,43.0021 ,1.17416 ,1.64022 ,16.09385 
220 ,43.1943 ,1.17604 ,1.62311 ,15.92596 
221 ,43.3864 ,1.17800 ,1.60258 ,15.72449 
222 ,43.5943 ,1.18004 ,1.58547 ,15.55660 
223 ,43.8021 ,1.18215 ,1.57178 ,15.42228 
224 ,44.0105 ,1.18410 ,1.56151 ,15.32155 
225 ,44.2187 ,1.18628 ,1.55467 ,15.25439 
226 ,44.4108 ,1.18824 ,1.53413 ,15.05292 
227 ,44.6028 ,1.19015 ,1.53071 ,15.01934 
228 ,44.8109 ,1.19222 ,1.50333 ,14.75072 
229 ,45.0027 ,1.19415 ,1.50676 ,14.78430 
230 ,45.2109 ,1.19614 ,1.45885 ,14.31420 
231 ,45.4032 ,1.19813 ,1.48280 ,14.54925 
232 ,45.5950 ,1.20003 ,1.45200 ,14.24704 
233 ,45.7871 ,1.20194 ,1.44858 ,14.21346 
234 ,45.9949 ,1.20403 ,1.41436 ,13.87768 
235 ,46.1875 ,1.20598 ,1.42120 ,13.94484 
236 ,46.3954 ,1.20804 ,1.39383 ,13.67621 
237 ,46.5877 ,1.20993 ,1.39725 ,13.70979 
238 ,46.7957 ,1.21203 ,1.35960 ,13.34043 
239 ,46.9718 ,1.21393 ,1.36987 ,13.44116 
240 ,47.1475 ,1.21566 ,1.34591 ,13.20612 
241 ,47.3239 ,1.21735 ,1.34591 ,13.20612 
242 ,47.5158 ,1.21922 ,1.31512 ,12.90391 
243 ,47.7239 ,1.22133 ,1.31854 ,12.93749 
244 ,47.9160 ,1.22321 ,1.29458 ,12.70244 
245 ,48.1241 ,1.22529 ,1.27747 ,12.53455 
246 ,48.3164 ,1.22722 ,1.26036 ,12.36666 
247 ,48.5085 ,1.22919 ,1.26720 ,12.43381 
248 ,48.6846 ,1.23102 ,1.23983 ,12.16519 
249 ,48.8768 ,1.23289 ,1.23298 ,12.09803 
250 ,49.0845 ,1.23490 ,1.21587 ,11.93014 
251 ,49.2763 ,1.23682 ,1.19876 ,11.76225 
252 ,49.4848 ,1.23882 ,1.17823 ,11.56078 
253 ,49.6768 ,1.24086 ,1.16454 ,11.42647 
254 ,49.8690 ,1.24274 ,1.16796 ,11.46004 
255 ,50.0770 ,1.24484 ,1.15770 ,11.35931 
256 ,50.2692 ,1.24676 ,1.14401 ,11.22500 
257 ,50.4772 ,1.24873 ,1.11663 ,10.95637 
258 ,50.6854 ,1.25090 ,1.10636 ,10.85563 
259 ,50.8770 ,1.25284 ,1.08583 ,10.65416 
260 ,51.0536 ,1.25466 ,1.08583 ,10.65416 
261 ,51.2453 ,1.25649 ,1.06187 ,10.41912 
262 ,51.4211 ,1.25838 ,1.07214 ,10.51985 
263 ,51.6135 ,1.26017 ,1.05503 ,10.35196 
264 ,51.8058 ,1.26211 ,1.04134 ,10.21765 
265 ,51.9818 ,1.26404 ,1.02765 ,10.08333 
266 ,52.1741 ,1.26580 ,1.02081 ,10.01618 
267 ,52.3661 ,1.26767 ,0.99343 ,9.74755 
268 ,52.5420 ,1.26959 ,0.99685 ,9.78113 
269 ,52.7337 ,1.27138 ,0.97632 ,9.57966 
270 ,52.9263 ,1.27329 ,0.95921 ,9.41177 
271 ,53.1184 ,1.27530 ,0.95921 ,9.41177 
272 ,53.3104 ,1.27723 ,0.94210 ,9.24388 
273 ,53.4865 ,1.27896 ,0.92157 ,9.04241 
274 ,53.6786 ,1.28086 ,0.92841 ,9.10956 
275 ,53.8864 ,1.28293 ,0.90103 ,8.84094 
276 ,54.0788 ,1.28479 ,0.89761 ,8.80736 
277 ,54.2704 ,1.28679 ,0.87366 ,8.57231 
278 ,54.4627 ,1.28873 ,0.86681 ,8.50515 
279 ,54.6708 ,1.29080 ,0.83943 ,8.23653 
280 ,54.8792 ,1.29275 ,0.84628 ,8.30368 
281 ,55.0872 ,1.29488 ,0.82575 ,8.10221 
282 ,55.2793 ,1.29682 ,0.82232 ,8.06864 
283 ,55.4872 ,1.29893 ,0.80179 ,7.86717 
284 ,55.6795 ,1.30082 ,0.79495 ,7.80001 
285 ,55.8875 ,1.30291 ,0.77099 ,7.56496 
286 ,56.0956 ,1.30501 ,0.76415 ,7.49780 
287 ,56.2877 ,1.30689 ,0.76072 ,7.46423 
288 ,56.4798 ,1.30891 ,0.74704 ,7.32991 
289 ,56.6877 ,1.31090 ,0.74019 ,7.26276 
290 ,56.8954 ,1.31295 ,0.72992 ,7.16202 
291 ,57.0880 ,1.31489 ,0.70939 ,6.96055 
292 ,57.2800 ,1.31687 ,0.69570 ,6.82624 
293 ,57.4723 ,1.31878 ,0.68544 ,6.72550 
294 ,57.6643 ,1.32065 ,0.68886 ,6.75908 
295 ,57.8563 ,1.32257 ,0.65121 ,6.38972 
296 ,58.0645 ,1.32469 ,0.65806 ,6.45688 
297 ,58.2885 ,1.32687 ,0.65121 ,6.38972 
298 ,58.4806 ,1.32885 ,0.62042 ,6.08752 
299 ,58.6724 ,1.33073 ,0.62042 ,6.08752 
300 ,58.8488 ,1.33261 ,0.61015 ,5.98678 
301 ,59.0405 ,1.33445 ,0.59646 ,5.85247 
302 ,59.2330 ,1.33636 ,0.58619 ,5.75173 
303 ,59.4408 ,1.33844 ,0.55882 ,5.48311 
304 ,59.6331 ,1.34037 ,0.54855 ,5.38237 
305 ,59.8249 ,1.34235 ,0.55539 ,5.44953 
306 ,60.0010 ,1.34419 ,0.52117 ,5.11375 
307 ,60.1772 ,1.34583 ,0.51433 ,5.04659 
308 ,60.3534 ,1.34766 ,0.52459 ,5.14732 
309 ,60.5295 ,1.34941 ,0.51091 ,5.01301 
310 ,60.7215 ,1.35131 ,0.48353 ,4.74438 
311 ,60.9135 ,1.35320 ,0.48353 ,4.74438 
312 ,61.1056 ,1.35508 ,0.47668 ,4.67723 
313 ,61.2978 ,1.35704 ,0.44931 ,4.40860 
314 ,61.5219 ,1.35914 ,0.44588 ,4.37502 
315 ,61.7298 ,1.36133 ,0.43904 ,4.30787 
316 ,61.9378 ,1.36332 ,0.41509 ,4.07282 
317 ,62.1298 ,1.36532 ,0.42877 ,4.20713 
318 ,62.3221 ,1.36738 ,0.39455 ,3.87135 
319 ,62.4982 ,1.36904 ,0.39113 ,3.83777 
320 ,62.6903 ,1.37093 ,0.38771 ,3.80419 
321 ,62.8822 ,1.37280 ,0.37060 ,3.63630 
322 ,63.0423 ,1.37461 ,0.36718 ,3.60272 
323 ,63.2344 ,1.37647 ,0.34664 ,3.40125 
324 ,63.4104 ,1.37818 ,0.35006 ,3.43483 
325 ,63.5864 ,1.37991 ,0.32953 ,3.23336 
326 ,63.8266 ,1.38226 ,0.30900 ,3.03189 
327 ,64.0028 ,1.38415 ,0.31926 ,3.13263 
328 ,64.1949 ,1.38595 ,0.30558 ,2.99831 
329 ,64.4030 ,1.38802 ,0.28847 ,2.83042 
330 ,64.5952 ,1.38997 ,0.29189 ,2.86400 
331 ,64.8031 ,1.39207 ,0.25767 ,2.52822 
332 ,64.9952 ,1.39393 ,0.25767 ,2.52822 
333 ,65.1715 ,1.39577 ,0.25082 ,2.46106 
334 ,65.3794 ,1.39777 ,0.24398 ,2.39390 
335 ,65.5711 ,1.39969 ,0.19949 ,1.95738 
336 ,65.7636 ,1.40169 ,0.21660 ,2.12528 
337 ,65.9713 ,1.40370 ,0.18238 ,1.78949 
338 ,66.1477 ,1.40554 ,0.18238 ,1.78949 
339 ,66.3557 ,1.40752 ,0.17553 ,1.72234 
340 ,66.5477 ,1.40946 ,0.15842 ,1.55445 
341 ,66.7397 ,1.41138 ,0.14131 ,1.38655 
342 ,66.9320 ,1.41333 ,0.13789 ,1.35298 
343 ,67.1240 ,1.41526 ,0.14131 ,1.38655 
344 ,67.3003 ,1.41707 ,0.14131 ,1.38655 
345 ,67.4922 ,1.41892 ,0.10367 ,1.01719 
346 ,67.6842 ,1.42080 ,0.11736 ,1.15151 
347 ,67.8762 ,1.42269 ,0.10025 ,0.98361 
348 ,68.0524 ,1.42464 ,0.07971 ,0.78214 
349 ,68.2445 ,1.42642 ,0.07629 ,0.74857 
350 ,68.4206 ,1.42826 ,0.07971 ,0.78214 
351 ,68.5965 ,1.43001 ,0.05918 ,0.58067 
352 ,68.8046 ,1.43205 ,0.05234 ,0.51352 
353 ,68.9968 ,1.43397 ,0.03865 ,0.37920 
354 ,69.1889 ,1.43597 ,0.01469 ,0.14416 
355 ,69.3810 ,1.43784 ,0.01811 ,0.17773 
356 ,69.5890 ,1.43985 ,0.02496 ,0.24489 
357 ,69.7968 ,1.44189 ,0.00443 ,0.04342 
358 ,70.0051 ,1.44400 ,-0.00926 ,-0.09089 
359 ,70.1973 ,1.44595 ,-0.04006 ,-0.39310 
360 ,70.3895 ,1.44794 ,-0.03322 ,-0.32594 
361 ,70.5814 ,1.44982 ,-0.03322 ,-0.32594 
362 ,70.7736 ,1.45175 ,-0.07086 ,-0.69530 
363 ,70.9654 ,1.45364 ,-0.07086 ,-0.69530 
364 ,71.1577 ,1.45554 ,-0.08113 ,-0.79604 
365 ,71.3658 ,1.45764 ,-0.09140 ,-0.89677 
366 ,71.5418 ,1.45949 ,-0.10166 ,-0.99751 
367 ,71.7500 ,1.46143 ,-0.10851 ,-1.06466 
368 ,71.9419 ,1.46342 ,-0.11193 ,-1.09824 
369 ,72.1337 ,1.46530 ,-0.11535 ,-1.13182 
370 ,72.3260 ,1.46719 ,-0.13246 ,-1.29971 
371 ,72.5182 ,1.46911 ,-0.15984 ,-1.56834 
372 ,72.6942 ,1.47104 ,-0.14615 ,-1.43402 
373 ,72.8864 ,1.47280 ,-0.17011 ,-1.66907 
374 ,73.0626 ,1.47467 ,-0.18037 ,-1.76981 
375 ,73.2546 ,1.47662 ,-0.17011 ,-1.66907 
376 ,73.4465 ,1.47843 ,-0.19064 ,-1.87054 
377 ,73.6387 ,1.48040 ,-0.20433 ,-2.00485 
378 ,73.8464 ,1.48242 ,-0.22144 ,-2.17275 
379 ,74.0228 ,1.48427 ,-0.22486 ,-2.20632 
380 ,74.2149 ,1.48611 ,-0.23170 ,-2.27348 
381 ,74.4071 ,1.48802 ,-0.24539 ,-2.40779 
382 ,74.5992 ,1.48999 ,-0.25908 ,-2.54211 
383 ,74.7912 ,1.49193 ,-0.24197 ,-2.37422 
384 ,74.9832 ,1.49381 ,-0.29330 ,-2.87789 
385 ,75.1755 ,1.49573 ,-0.27619 ,-2.71000 
386 ,75.3511 ,1.49760 ,-0.28988 ,-2.84431 
387 ,75.5433 ,1.49939 ,-0.30357 ,-2.97863 
388 ,75.7355 ,1.50146 ,-0.30357 ,-2.97863 
389 ,75.9276 ,1.50322 ,-0.32068 ,-3.14652 
390 ,76.1198 ,1.50515 ,-0.32410 ,-3.18010 
391 ,76.3119 ,1.50714 ,-0.32752 ,-3.21367 
392 ,76.5040 ,1.50898 ,-0.36175 ,-3.54946 
393 ,76.6801 ,1.51082 ,-0.36517 ,-3.58303 
394 ,76.8721 ,1.51268 ,-0.35148 ,-3.44872 
395 ,77.0642 ,1.51460 ,-0.37886 ,-3.71735 
396 ,77.2724 ,1.51667 ,-0.38228 ,-3.75093 
397 ,77.4643 ,1.51866 ,-0.39939 ,-3.91882 
398 ,77.6724 ,1.52077 ,-0.41308 ,-4.05313 
399 ,77.8646 ,1.52265 ,-0.43361 ,-4.25460 
400 ,78.0727 ,1.52466 ,-0.43703 ,-4.28818 
401 ,78.2647 ,1.52662 ,-0.44046 ,-4.32176 
402 ,78.4567 ,1.52848 ,-0.44730 ,-4.38891 
403 ,78.6324 ,1.53040 ,-0.46099 ,-4.52323 
404 ,78.8250 ,1.53220 ,-0.45757 ,-4.48965 
405 ,79.0170 ,1.53409 ,-0.47126 ,-4.62396 
406 ,79.2092 ,1.53606 ,-0.48152 ,-4.72470 
407 ,79.4013 ,1.53797 ,-0.48494 ,-4.75828 
408 ,79.5934 ,1.53991 ,-0.50548 ,-4.95975 
409 ,79.7853 ,1.54179 ,-0.50548 ,-4.95975 
410 ,79.9775 ,1.54373 ,-0.53628 ,-5.26195 
411 ,80.1856 ,1.54581 ,-0.51232 ,-5.02690 
412 ,80.3777 ,1.54773 ,-0.53285 ,-5.22837 
413 ,80.5698 ,1.54967 ,-0.54654 ,-5.36268 
414 ,80.7615 ,1.55154 ,-0.55681 ,-5.46342 
415 ,80.9538 ,1.55352 ,-0.57734 ,-5.66489 
416 ,81.1619 ,1.55556 ,-0.56708 ,-5.56415 
417 ,81.3540 ,1.55749 ,-0.59445 ,-5.83278 
418 ,81.5460 ,1.55940 ,-0.59103 ,-5.79920 
419 ,81.7542 ,1.56147 ,-0.60814 ,-5.96709 
420 ,81.9461 ,1.56348 ,-0.61156 ,-6.00067 
421 ,82.1222 ,1.56524 ,-0.61156 ,-6.00067 
422 ,82.3302 ,1.56722 ,-0.63210 ,-6.20214 
423 ,82.5383 ,1.56920 ,-0.63210 ,-6.20214 
424 ,82.7145 ,1.57111 ,-0.65947 ,-6.47077 
425 ,82.9062 ,1.57301 ,-0.64579 ,-6.33646 
426 ,83.0987 ,1.57496 ,-0.66290 ,-6.50435 
427 ,83.3067 ,1.57699 ,-0.66632 ,-6.53793 
428 ,83.4989 ,1.57896 ,-0.68685 ,-6.73940 
429 ,83.6910 ,1.58088 ,-0.67316 ,-6.60508 
430 ,83.8991 ,1.58296 ,-0.71081 ,-6.97444 
431 ,84.0911 ,1.58498 ,-0.70396 ,-6.90729 
432 ,84.2670 ,1.58665 ,-0.71081 ,-6.97444 
433 ,84.4592 ,1.58850 ,-0.74503 ,-7.31023 
434 ,84.6515 ,1.59046 ,-0.72792 ,-7.14233 
435 ,84.8594 ,1.59257 ,-0.75187 ,-7.37738 
436 ,85.0515 ,1.59445 ,-0.74845 ,-7.34380 
437 ,85.2596 ,1.59653 ,-0.76898 ,-7.54527 
438 ,85.4677 ,1.59850 ,-0.75530 ,-7.41096 
439 ,85.6758 ,1.60069 ,-0.79636 ,-7.81390 
440 ,85.8679 ,1.60263 ,-0.79636 ,-7.81390 
441 ,86.0599 ,1.60455 ,-0.81347 ,-7.98179 
442 ,86.2516 ,1.60640 ,-0.79978 ,-7.84748 
443 ,86.4440 ,1.60833 ,-0.82374 ,-8.08253 
444 ,86.6199 ,1.61021 ,-0.83743 ,-8.21684 
445 ,86.8120 ,1.61209 ,-0.81689 ,-8.01537 
446 ,87.0044 ,1.61408 ,-0.85112 ,-8.35115 
447 ,87.1961 ,1.61588 ,-0.84427 ,-8.28400 
448 ,87.3883 ,1.61787 ,-0.85454 ,-8.38473 
449 ,87.5963 ,1.61994 ,-0.85112 ,-8.35115 
450 ,87.7885 ,1.62184 ,-0.88192 ,-8.65336 
451 ,87.9805 ,1.62378 ,-0.88876 ,-8.72051 
452 ,88.1729 ,1.62567 ,-0.89560 ,-8.78767 
453 ,88.3484 ,1.62752 ,-0.90587 ,-8.88841 
454 ,88.5408 ,1.62936 ,-0.91272 ,-8.95556 
455 ,88.7489 ,1.63143 ,-0.92298 ,-9.05630 
456 ,88.9250 ,1.63328 ,-0.92983 ,-9.12345 
457 ,89.1009 ,1.63498 ,-0.94351 ,-9.25777 
458 ,89.2932 ,1.63684 ,-0.95720 ,-9.39208 
459 ,89.4848 ,1.63872 ,-0.95378 ,-9.35850 
460 ,89.6775 ,1.64065 ,-0.96747 ,-9.49282 
461 ,89.8853 ,1.64278 ,-0.97774 ,-9.59355 
462 ,90.0774 ,1.64465 ,-0.97774 ,-9.59355 
463 ,90.2696 ,1.64664 ,-0.99827 ,-9.79502 
