Data stamp = , 27-04-2022 19:10:40 861

Calibration Values: 
Slope = , 26.54 , g/V 
Offset Voltage at no contact = , -0.501760 , V 

No , Time , Stage Position ,   Mass , Force 
   ,  (s) ,      (mm)      ,   (g)  , (mN)  

1 ,0.0000 ,0.74942 ,5.28141 ,51.82116 
2 ,0.2914 ,0.74962 ,5.27456 ,51.75401 
3 ,0.6600 ,0.75098 ,5.27798 ,51.78758 
4 ,0.8679 ,0.75294 ,5.27456 ,51.75401 
5 ,1.0759 ,0.75482 ,5.26087 ,51.61969 
6 ,1.2841 ,0.75694 ,5.26087 ,51.61969 
7 ,1.4603 ,0.75886 ,5.28483 ,51.85474 
8 ,1.6683 ,0.76068 ,5.27114 ,51.72043 
9 ,1.8604 ,0.76274 ,5.24718 ,51.48538 
10 ,2.0524 ,0.76463 ,5.21981 ,51.21675 
11 ,2.2442 ,0.76656 ,5.20954 ,51.11602 
12 ,2.4205 ,0.76842 ,5.21639 ,51.18317 
13 ,2.6124 ,0.77025 ,5.18559 ,50.88097 
14 ,2.7888 ,0.77208 ,5.16848 ,50.71308 
15 ,2.9808 ,0.77393 ,5.14794 ,50.51161 
16 ,3.1568 ,0.77577 ,5.13768 ,50.41087 
17 ,3.3646 ,0.77771 ,5.12399 ,50.27656 
18 ,3.5571 ,0.77972 ,5.10345 ,50.07509 
19 ,3.7492 ,0.78167 ,5.07608 ,49.80646 
20 ,3.9572 ,0.78373 ,5.06923 ,49.73931 
21 ,4.1329 ,0.78552 ,5.04870 ,49.53784 
22 ,4.3254 ,0.78737 ,5.01448 ,49.20205 
23 ,4.5335 ,0.78946 ,5.01790 ,49.23563 
24 ,4.7252 ,0.79134 ,4.98026 ,48.86627 
25 ,4.9336 ,0.79346 ,4.95972 ,48.66480 
26 ,5.1257 ,0.79537 ,4.93235 ,48.39618 
27 ,5.3014 ,0.79724 ,4.92892 ,48.36260 
28 ,5.4777 ,0.79900 ,4.90497 ,48.12755 
29 ,5.6699 ,0.80091 ,4.89128 ,47.99324 
30 ,5.8458 ,0.80263 ,4.86732 ,47.75819 
31 ,6.0536 ,0.80470 ,4.86048 ,47.69103 
32 ,6.2461 ,0.80657 ,4.81941 ,47.28809 
33 ,6.4220 ,0.80839 ,4.80915 ,47.18736 
34 ,6.6140 ,0.81028 ,4.80915 ,47.18736 
35 ,6.8223 ,0.81231 ,4.76466 ,46.75084 
36 ,7.0143 ,0.81425 ,4.76466 ,46.75084 
37 ,7.1905 ,0.81610 ,4.74755 ,46.58295 
38 ,7.3828 ,0.81791 ,4.72017 ,46.31432 
39 ,7.5743 ,0.81988 ,4.71333 ,46.24716 
40 ,7.7827 ,0.82194 ,4.67911 ,45.91138 
41 ,7.9744 ,0.82388 ,4.67911 ,45.91138 
42 ,8.1665 ,0.82582 ,4.65857 ,45.70991 
43 ,8.3586 ,0.82773 ,4.63119 ,45.44128 
44 ,8.5505 ,0.82961 ,4.62435 ,45.37413 
45 ,8.7427 ,0.83152 ,4.58328 ,44.97119 
46 ,8.9351 ,0.83343 ,4.57644 ,44.90403 
47 ,9.1112 ,0.83533 ,4.56275 ,44.76972 
48 ,9.2872 ,0.83703 ,4.54564 ,44.60183 
49 ,9.7032 ,0.84003 ,4.52169 ,44.36678 
50 ,9.9116 ,0.84325 ,4.50457 ,44.19889 
51 ,10.1197 ,0.84537 ,4.47378 ,43.89668 
52 ,10.3119 ,0.84725 ,4.46009 ,43.76237 
53 ,10.5038 ,0.84919 ,4.42244 ,43.39301 
54 ,10.6795 ,0.85095 ,4.40533 ,43.22512 
55 ,10.8721 ,0.85283 ,4.41902 ,43.35943 
56 ,11.0800 ,0.85480 ,4.38138 ,42.99007 
57 ,11.2721 ,0.85696 ,4.36769 ,42.85576 
58 ,11.4483 ,0.85866 ,4.35742 ,42.75502 
59 ,11.6564 ,0.86069 ,4.33347 ,42.51997 
60 ,11.8485 ,0.86261 ,4.30951 ,42.28492 
61 ,12.0566 ,0.86468 ,4.29240 ,42.11703 
62 ,12.2645 ,0.86672 ,4.27187 ,41.91556 
63 ,12.4406 ,0.86863 ,4.25818 ,41.78125 
64 ,12.6328 ,0.87045 ,4.25818 ,41.78125 
65 ,12.8246 ,0.87233 ,4.22396 ,41.44547 
66 ,13.0170 ,0.87426 ,4.19316 ,41.14326 
67 ,13.2248 ,0.87638 ,4.18289 ,41.04253 
68 ,13.4172 ,0.87829 ,4.16578 ,40.87464 
69 ,13.6090 ,0.88022 ,4.16578 ,40.87464 
70 ,13.8013 ,0.88205 ,4.12129 ,40.43812 
71 ,13.9768 ,0.88401 ,4.12471 ,40.47170 
72 ,14.1695 ,0.88580 ,4.09734 ,40.20307 
73 ,14.3774 ,0.88775 ,4.08707 ,40.10233 
74 ,14.5534 ,0.88972 ,4.07338 ,39.96802 
75 ,14.7454 ,0.89151 ,4.03232 ,39.56508 
76 ,14.9216 ,0.89342 ,4.02889 ,39.53150 
77 ,15.1134 ,0.89516 ,4.02547 ,39.49793 
78 ,15.2898 ,0.89705 ,4.00152 ,39.26288 
79 ,15.4820 ,0.89887 ,3.97072 ,38.96067 
80 ,15.6901 ,0.90094 ,3.96387 ,38.89352 
81 ,15.8820 ,0.90309 ,3.93307 ,38.59131 
82 ,16.0741 ,0.90479 ,3.92623 ,38.52415 
83 ,16.2503 ,0.90666 ,3.92281 ,38.49058 
84 ,16.4583 ,0.90870 ,3.88174 ,38.08764 
85 ,16.6504 ,0.91061 ,3.86463 ,37.91975 
86 ,16.8422 ,0.91249 ,3.84410 ,37.71828 
87 ,17.0343 ,0.91437 ,3.85094 ,37.78543 
88 ,17.2102 ,0.91634 ,3.82356 ,37.51681 
89 ,17.4026 ,0.91813 ,3.78592 ,37.14744 
90 ,17.6106 ,0.92018 ,3.77908 ,37.08029 
91 ,17.7866 ,0.92202 ,3.76881 ,36.97955 
92 ,17.9945 ,0.92402 ,3.75170 ,36.81166 
93 ,18.1710 ,0.92584 ,3.73801 ,36.67735 
94 ,18.3787 ,0.92785 ,3.70379 ,36.34157 
95 ,18.5550 ,0.92969 ,3.68325 ,36.14010 
96 ,18.7472 ,0.93154 ,3.67299 ,36.03936 
97 ,18.9394 ,0.93348 ,3.64219 ,35.73716 
98 ,19.1310 ,0.93540 ,3.64219 ,35.73716 
99 ,19.2911 ,0.93715 ,3.62166 ,35.53569 
100 ,19.4832 ,0.93886 ,3.59428 ,35.26706 
101 ,19.6755 ,0.94085 ,3.59770 ,35.30064 
102 ,19.8835 ,0.94288 ,3.56690 ,34.99843 
103 ,20.0757 ,0.94485 ,3.54637 ,34.79696 
104 ,20.2837 ,0.94687 ,3.52584 ,34.59549 
105 ,20.4757 ,0.94880 ,3.51899 ,34.52834 
106 ,20.6682 ,0.95085 ,3.51215 ,34.46118 
107 ,20.8761 ,0.95282 ,3.48135 ,34.15898 
108 ,21.0681 ,0.95479 ,3.46766 ,34.02466 
109 ,21.2762 ,0.95683 ,3.46424 ,33.99108 
110 ,21.4523 ,0.95866 ,3.42659 ,33.62172 
111 ,21.6440 ,0.96051 ,3.40606 ,33.42025 
112 ,21.8365 ,0.96238 ,3.39921 ,33.35310 
113 ,22.0444 ,0.96449 ,3.36842 ,33.05089 
114 ,22.2205 ,0.96637 ,3.35815 ,32.95016 
115 ,22.4126 ,0.96823 ,3.35130 ,32.88300 
116 ,22.6046 ,0.97011 ,3.31024 ,32.48006 
117 ,22.7808 ,0.97199 ,3.31708 ,32.54722 
118 ,22.9729 ,0.97378 ,3.30339 ,32.41290 
119 ,23.1650 ,0.97578 ,3.27602 ,32.14428 
120 ,23.3572 ,0.97761 ,3.26233 ,32.00996 
121 ,23.5492 ,0.97958 ,3.25548 ,31.94281 
122 ,23.7409 ,0.98155 ,3.22126 ,31.60702 
123 ,23.9334 ,0.98337 ,3.21784 ,31.57345 
124 ,24.1414 ,0.98548 ,3.17335 ,31.13693 
125 ,24.3335 ,0.98741 ,3.17335 ,31.13693 
126 ,24.5574 ,0.98962 ,3.13913 ,30.80115 
127 ,24.7336 ,0.99150 ,3.14597 ,30.86830 
128 ,24.9096 ,0.99334 ,3.12886 ,30.70041 
129 ,25.0858 ,0.99494 ,3.09806 ,30.39821 
130 ,25.2777 ,0.99685 ,3.09806 ,30.39821 
131 ,25.4539 ,0.99863 ,3.08438 ,30.26389 
132 ,25.6458 ,1.00047 ,3.06042 ,30.02884 
133 ,25.8381 ,1.00246 ,3.03989 ,29.82737 
134 ,26.0298 ,1.00443 ,3.01593 ,29.59233 
135 ,26.2223 ,1.00630 ,2.98855 ,29.32370 
136 ,26.4140 ,1.00818 ,2.99198 ,29.35728 
137 ,26.5905 ,1.01003 ,2.98171 ,29.25654 
138 ,26.7822 ,1.01195 ,2.94407 ,28.88718 
139 ,26.9585 ,1.01370 ,2.93380 ,28.78645 
140 ,27.1504 ,1.01557 ,2.93722 ,28.82003 
141 ,27.3427 ,1.01752 ,2.89958 ,28.45066 
142 ,27.5506 ,1.01960 ,2.88589 ,28.31635 
143 ,27.7589 ,1.02160 ,2.87220 ,28.18204 
144 ,27.9667 ,1.02363 ,2.85509 ,28.01415 
145 ,28.1589 ,1.02577 ,2.83456 ,27.81268 
146 ,28.3509 ,1.02756 ,2.82429 ,27.71194 
147 ,28.5592 ,1.02963 ,2.79691 ,27.44332 
148 ,28.7351 ,1.03147 ,2.77980 ,27.27542 
149 ,28.9435 ,1.03348 ,2.74900 ,26.97322 
150 ,29.1350 ,1.03539 ,2.75243 ,27.00680 
151 ,29.3275 ,1.03736 ,2.75243 ,27.00680 
152 ,29.5355 ,1.03938 ,2.72505 ,26.73817 
153 ,29.7276 ,1.04129 ,2.70452 ,26.53670 
154 ,29.9198 ,1.04320 ,2.68740 ,26.36881 
155 ,30.1118 ,1.04517 ,2.68056 ,26.30165 
156 ,30.3036 ,1.04715 ,2.64634 ,25.96587 
157 ,30.5120 ,1.04906 ,2.62238 ,25.73082 
158 ,30.7201 ,1.05123 ,2.60869 ,25.59651 
159 ,30.8963 ,1.05308 ,2.59501 ,25.46220 
160 ,31.1038 ,1.05510 ,2.56078 ,25.12641 
161 ,31.2804 ,1.05692 ,2.55394 ,25.05926 
162 ,31.4724 ,1.05872 ,2.55736 ,25.09283 
163 ,31.6484 ,1.06059 ,2.54025 ,24.92494 
164 ,31.8406 ,1.06241 ,2.51972 ,24.72347 
165 ,32.0487 ,1.06450 ,2.49576 ,24.48842 
166 ,32.2407 ,1.06642 ,2.46839 ,24.21980 
167 ,32.4167 ,1.06829 ,2.46839 ,24.21980 
168 ,32.6089 ,1.07009 ,2.45470 ,24.08549 
169 ,32.8169 ,1.07218 ,2.43416 ,23.88402 
170 ,33.0091 ,1.07412 ,2.42048 ,23.74970 
171 ,33.2171 ,1.07611 ,2.39994 ,23.54823 
172 ,33.4091 ,1.07820 ,2.37599 ,23.31318 
173 ,33.5688 ,1.07990 ,2.35545 ,23.11171 
174 ,33.7615 ,1.08165 ,2.36230 ,23.17887 
175 ,33.9693 ,1.08374 ,2.34177 ,22.97740 
176 ,34.1454 ,1.08550 ,2.30070 ,22.57446 
177 ,34.3535 ,1.08753 ,2.32465 ,22.80951 
178 ,34.5456 ,1.08946 ,2.28017 ,22.37299 
179 ,34.7376 ,1.09140 ,2.28359 ,22.40657 
180 ,34.9136 ,1.09321 ,2.26306 ,22.20510 
181 ,35.1058 ,1.09512 ,2.23910 ,21.97005 
182 ,35.2977 ,1.09704 ,2.23568 ,21.93647 
183 ,35.5060 ,1.09913 ,2.20488 ,21.63427 
184 ,35.6979 ,1.10098 ,2.20488 ,21.63427 
185 ,35.8902 ,1.10301 ,2.18777 ,21.46638 
186 ,36.0981 ,1.10499 ,2.17750 ,21.36564 
187 ,36.3063 ,1.10706 ,2.13301 ,20.92912 
188 ,36.5144 ,1.10910 ,2.14328 ,21.02986 
189 ,36.7225 ,1.11126 ,2.09195 ,20.52619 
190 ,36.9305 ,1.11321 ,2.10906 ,20.69408 
191 ,37.1226 ,1.11526 ,2.06457 ,20.25756 
192 ,37.3146 ,1.11710 ,2.06799 ,20.29114 
193 ,37.4909 ,1.11897 ,2.05430 ,20.15682 
194 ,37.6989 ,1.12101 ,2.05088 ,20.12325 
195 ,37.8908 ,1.12293 ,2.01666 ,19.78746 
196 ,38.0990 ,1.12497 ,2.00982 ,19.72031 
197 ,38.3230 ,1.12714 ,1.99270 ,19.55241 
198 ,38.5152 ,1.12920 ,1.97902 ,19.41810 
199 ,38.7232 ,1.13122 ,1.95506 ,19.18305 
200 ,38.9152 ,1.13312 ,1.95506 ,19.18305 
201 ,39.0915 ,1.13503 ,1.91742 ,18.81369 
202 ,39.2677 ,1.13676 ,1.90031 ,18.64580 
203 ,39.4597 ,1.13860 ,1.91742 ,18.81369 
204 ,39.6516 ,1.14064 ,1.87635 ,18.41075 
205 ,39.8437 ,1.14246 ,1.87293 ,18.37717 
206 ,40.0198 ,1.14425 ,1.86266 ,18.27644 
207 ,40.2118 ,1.14613 ,1.84555 ,18.10855 
208 ,40.4197 ,1.14813 ,1.83528 ,18.00781 
209 ,40.6120 ,1.15010 ,1.80791 ,17.73919 
210 ,40.8041 ,1.15205 ,1.79764 ,17.63845 
211 ,40.9962 ,1.15396 ,1.80106 ,17.67203 
212 ,41.2038 ,1.15600 ,1.77711 ,17.43698 
213 ,41.3964 ,1.15791 ,1.75657 ,17.23551 
214 ,41.5885 ,1.15985 ,1.73604 ,17.03404 
215 ,41.7805 ,1.16182 ,1.73262 ,17.00046 
216 ,41.9725 ,1.16370 ,1.70524 ,16.73184 
217 ,42.1487 ,1.16551 ,1.69155 ,16.59752 
218 ,42.3407 ,1.16744 ,1.69498 ,16.63110 
219 ,42.5647 ,1.16963 ,1.66760 ,16.36248 
220 ,42.7570 ,1.17164 ,1.67102 ,16.39605 
221 ,42.9490 ,1.17352 ,1.62995 ,15.99311 
222 ,43.1571 ,1.17562 ,1.64022 ,16.09385 
223 ,43.3488 ,1.17749 ,1.60600 ,15.75807 
224 ,43.5412 ,1.17943 ,1.61284 ,15.82522 
225 ,43.7333 ,1.18135 ,1.58547 ,15.55660 
226 ,43.9573 ,1.18348 ,1.58204 ,15.52302 
227 ,44.1493 ,1.18543 ,1.55467 ,15.25439 
228 ,44.3576 ,1.18750 ,1.55467 ,15.25439 
229 ,44.5657 ,1.18960 ,1.52045 ,14.91861 
230 ,44.7735 ,1.19167 ,1.52387 ,14.95219 
231 ,44.9659 ,1.19361 ,1.50333 ,14.75072 
232 ,45.1580 ,1.19557 ,1.49307 ,14.64998 
233 ,45.3501 ,1.19750 ,1.45885 ,14.31420 
234 ,45.5738 ,1.19973 ,1.45542 ,14.28062 
235 ,45.7821 ,1.20177 ,1.45885 ,14.31420 
236 ,45.9740 ,1.20374 ,1.42805 ,14.01199 
237 ,46.1664 ,1.20568 ,1.42805 ,14.01199 
238 ,46.3743 ,1.20770 ,1.39040 ,13.64263 
239 ,46.5663 ,1.20964 ,1.39383 ,13.67621 
240 ,46.7743 ,1.21172 ,1.35960 ,13.34043 
241 ,46.9825 ,1.21382 ,1.37671 ,13.50832 
242 ,47.1588 ,1.21566 ,1.35276 ,13.27327 
243 ,47.3506 ,1.21750 ,1.32538 ,13.00465 
244 ,47.5427 ,1.21938 ,1.32880 ,13.03822 
245 ,47.7346 ,1.22126 ,1.29800 ,12.73602 
246 ,47.9109 ,1.22315 ,1.28089 ,12.56813 
247 ,48.1030 ,1.22503 ,1.28432 ,12.60171 
248 ,48.2950 ,1.22690 ,1.26378 ,12.40024 
249 ,48.5029 ,1.22897 ,1.26036 ,12.36666 
250 ,48.6953 ,1.23088 ,1.23298 ,12.09803 
251 ,48.8873 ,1.23283 ,1.21587 ,11.93014 
252 ,49.0953 ,1.23490 ,1.21245 ,11.89656 
253 ,49.3035 ,1.23698 ,1.21245 ,11.89656 
254 ,49.4955 ,1.23895 ,1.18850 ,11.66151 
255 ,49.7037 ,1.24101 ,1.18507 ,11.62794 
256 ,49.9116 ,1.24308 ,1.16112 ,11.39289 
257 ,50.1197 ,1.24516 ,1.15427 ,11.32573 
258 ,50.3114 ,1.24707 ,1.12005 ,10.98995 
259 ,50.4880 ,1.24889 ,1.11321 ,10.92279 
260 ,50.6795 ,1.25085 ,1.09610 ,10.75490 
261 ,50.8560 ,1.25257 ,1.09610 ,10.75490 
262 ,51.0482 ,1.25447 ,1.06187 ,10.41912 
263 ,51.2562 ,1.25654 ,1.06187 ,10.41912 
264 ,51.4481 ,1.25841 ,1.06872 ,10.48627 
265 ,51.6404 ,1.26035 ,1.05161 ,10.31838 
266 ,51.8323 ,1.26227 ,1.01739 ,9.98260 
267 ,52.0405 ,1.26434 ,1.03108 ,10.11691 
268 ,52.2166 ,1.26621 ,1.00370 ,9.84829 
269 ,52.3927 ,1.26794 ,0.98659 ,9.68039 
270 ,52.5689 ,1.26969 ,0.97290 ,9.54608 
271 ,52.7611 ,1.27163 ,0.97290 ,9.54608 
272 ,52.9689 ,1.27366 ,0.95237 ,9.34461 
273 ,53.1450 ,1.27543 ,0.95237 ,9.34461 
274 ,53.3371 ,1.27731 ,0.92499 ,9.07598 
275 ,53.5292 ,1.27925 ,0.91472 ,8.97525 
276 ,53.7213 ,1.28119 ,0.91472 ,8.97525 
277 ,53.9133 ,1.28313 ,0.88734 ,8.70662 
278 ,54.0895 ,1.28491 ,0.88050 ,8.63947 
279 ,54.2970 ,1.28692 ,0.87366 ,8.57231 
280 ,54.4889 ,1.28892 ,0.84286 ,8.27011 
281 ,54.6811 ,1.29075 ,0.86339 ,8.47158 
282 ,54.8736 ,1.29269 ,0.82232 ,8.06864 
283 ,55.0818 ,1.29470 ,0.83259 ,8.16937 
284 ,55.2738 ,1.29663 ,0.80863 ,7.93432 
285 ,55.4500 ,1.29852 ,0.79152 ,7.76643 
286 ,55.6421 ,1.30037 ,0.78126 ,7.66570 
287 ,55.8339 ,1.30231 ,0.77099 ,7.56496 
288 ,56.0259 ,1.30419 ,0.76757 ,7.53138 
289 ,56.2022 ,1.30609 ,0.75046 ,7.36349 
290 ,56.3943 ,1.30784 ,0.73677 ,7.22918 
291 ,56.5864 ,1.30982 ,0.74019 ,7.26276 
292 ,56.7785 ,1.31176 ,0.72650 ,7.12844 
293 ,56.9864 ,1.31375 ,0.71966 ,7.06129 
294 ,57.1787 ,1.31566 ,0.68886 ,6.75908 
295 ,57.3705 ,1.31770 ,0.67175 ,6.59119 
296 ,57.5946 ,1.31995 ,0.67517 ,6.62477 
297 ,57.7869 ,1.32186 ,0.65464 ,6.42330 
298 ,57.9949 ,1.32388 ,0.63753 ,6.25541 
299 ,58.1710 ,1.32575 ,0.65121 ,6.38972 
300 ,58.3634 ,1.32759 ,0.62726 ,6.15467 
301 ,58.5552 ,1.32958 ,0.61015 ,5.98678 
302 ,58.7313 ,1.33132 ,0.59304 ,5.81889 
303 ,58.9234 ,1.33317 ,0.59646 ,5.85247 
304 ,59.1154 ,1.33509 ,0.57935 ,5.68458 
305 ,59.3235 ,1.33718 ,0.57935 ,5.68458 
306 ,59.5156 ,1.33906 ,0.54855 ,5.38237 
307 ,59.7076 ,1.34100 ,0.54171 ,5.31522 
308 ,59.8998 ,1.34293 ,0.52802 ,5.18090 
309 ,60.0917 ,1.34489 ,0.51091 ,5.01301 
310 ,60.2681 ,1.34664 ,0.52459 ,5.14732 
311 ,60.4600 ,1.34868 ,0.48695 ,4.77796 
312 ,60.6356 ,1.35032 ,0.48695 ,4.77796 
313 ,60.8281 ,1.35225 ,0.47668 ,4.67723 
314 ,61.0361 ,1.35422 ,0.45615 ,4.47576 
315 ,61.2283 ,1.35612 ,0.46642 ,4.57649 
316 ,61.4204 ,1.35809 ,0.45957 ,4.50934 
317 ,61.6123 ,1.36005 ,0.42877 ,4.20713 
318 ,61.8045 ,1.36191 ,0.42535 ,4.17355 
319 ,61.9968 ,1.36384 ,0.40482 ,3.97208 
320 ,62.1886 ,1.36577 ,0.39797 ,3.90493 
321 ,62.3808 ,1.36774 ,0.39455 ,3.87135 
322 ,62.5728 ,1.36962 ,0.36375 ,3.56914 
323 ,62.7808 ,1.37160 ,0.38086 ,3.73703 
324 ,62.9891 ,1.37376 ,0.35691 ,3.50199 
325 ,63.1971 ,1.37593 ,0.34664 ,3.40125 
326 ,63.4048 ,1.37796 ,0.34322 ,3.36767 
327 ,63.6131 ,1.38004 ,0.31242 ,3.06547 
328 ,63.8213 ,1.38211 ,0.32269 ,3.16620 
329 ,64.0454 ,1.38426 ,0.28847 ,2.83042 
330 ,64.2374 ,1.38627 ,0.28162 ,2.76326 
331 ,64.4297 ,1.38822 ,0.26109 ,2.56179 
332 ,64.6375 ,1.39023 ,0.25424 ,2.49464 
333 ,64.8136 ,1.39207 ,0.25767 ,2.52822 
334 ,65.0054 ,1.39399 ,0.25424 ,2.49464 
335 ,65.1981 ,1.39590 ,0.23713 ,2.32675 
336 ,65.4061 ,1.39794 ,0.23029 ,2.25959 
337 ,65.5981 ,1.39984 ,0.20976 ,2.05812 
338 ,65.7904 ,1.40179 ,0.19607 ,1.92381 
339 ,65.9824 ,1.40374 ,0.19607 ,1.92381 
340 ,66.1741 ,1.40559 ,0.16527 ,1.62160 
341 ,66.3666 ,1.40758 ,0.17211 ,1.68876 
342 ,66.5583 ,1.40947 ,0.15158 ,1.48729 
343 ,66.7668 ,1.41157 ,0.15842 ,1.55445 
344 ,66.9747 ,1.41365 ,0.12078 ,1.18508 
345 ,67.1664 ,1.41553 ,0.13105 ,1.28582 
346 ,67.3591 ,1.41750 ,0.12078 ,1.18508 
347 ,67.5669 ,1.41953 ,0.11051 ,1.08435 
348 ,67.7431 ,1.42144 ,0.09340 ,0.91646 
349 ,67.9512 ,1.42342 ,0.07287 ,0.71499 
350 ,68.1593 ,1.42549 ,0.07971 ,0.78214 
351 ,68.3513 ,1.42737 ,0.05234 ,0.51352 
352 ,68.5595 ,1.42948 ,0.04891 ,0.47994 
353 ,68.7514 ,1.43141 ,0.03865 ,0.37920 
354 ,68.9275 ,1.43320 ,0.03865 ,0.37920 
355 ,69.1196 ,1.43514 ,0.02496 ,0.24489 
356 ,69.3113 ,1.43699 ,0.00100 ,0.00984 
357 ,69.5196 ,1.43899 ,0.00785 ,0.07700 
358 ,69.7117 ,1.44110 ,-0.01611 ,-0.15805 
359 ,69.9040 ,1.44294 ,-0.00926 ,-0.09089 
360 ,70.0960 ,1.44489 ,-0.03322 ,-0.32594 
361 ,70.3201 ,1.44696 ,-0.02637 ,-0.25878 
362 ,70.5122 ,1.44901 ,-0.05717 ,-0.56099 
363 ,70.7040 ,1.45101 ,-0.06402 ,-0.62814 
364 ,70.8804 ,1.45276 ,-0.06744 ,-0.66172 
365 ,71.0884 ,1.45473 ,-0.07771 ,-0.76246 
366 ,71.2645 ,1.45661 ,-0.09140 ,-0.89677 
367 ,71.4564 ,1.45845 ,-0.11535 ,-1.13182 
368 ,71.6487 ,1.46038 ,-0.11193 ,-1.09824 
369 ,71.8567 ,1.46244 ,-0.12219 ,-1.19898 
370 ,72.0489 ,1.46433 ,-0.12219 ,-1.19898 
371 ,72.2409 ,1.46633 ,-0.12904 ,-1.26613 
372 ,72.4810 ,1.46840 ,-0.15984 ,-1.56834 
373 ,72.6730 ,1.47060 ,-0.17353 ,-1.70265 
374 ,72.8649 ,1.47255 ,-0.16668 ,-1.63549 
375 ,73.0572 ,1.47445 ,-0.18379 ,-1.80338 
376 ,73.2655 ,1.47656 ,-0.18037 ,-1.76981 
377 ,73.4573 ,1.47850 ,-0.20775 ,-2.03843 
378 ,73.6332 ,1.48022 ,-0.21802 ,-2.13917 
379 ,73.8256 ,1.48213 ,-0.21459 ,-2.10559 
380 ,74.0176 ,1.48407 ,-0.22486 ,-2.20632 
381 ,74.2096 ,1.48589 ,-0.24197 ,-2.37422 
382 ,74.4016 ,1.48786 ,-0.24197 ,-2.37422 
383 ,74.6099 ,1.48984 ,-0.25908 ,-2.54211 
384 ,74.7860 ,1.49182 ,-0.27277 ,-2.67642 
385 ,74.9781 ,1.49362 ,-0.28988 ,-2.84431 
386 ,75.1703 ,1.49558 ,-0.28304 ,-2.77716 
387 ,75.3781 ,1.49765 ,-0.29673 ,-2.91147 
388 ,75.6023 ,1.49993 ,-0.29673 ,-2.91147 
389 ,75.8100 ,1.50184 ,-0.32410 ,-3.18010 
390 ,76.0025 ,1.50392 ,-0.32068 ,-3.14652 
391 ,76.2103 ,1.50593 ,-0.33437 ,-3.28083 
392 ,76.3866 ,1.50774 ,-0.34806 ,-3.41514 
393 ,76.5947 ,1.50982 ,-0.36859 ,-3.61661 
394 ,76.7868 ,1.51168 ,-0.37201 ,-3.65019 
395 ,76.9948 ,1.51373 ,-0.38228 ,-3.75093 
396 ,77.1710 ,1.51564 ,-0.38912 ,-3.81808 
397 ,77.3631 ,1.51749 ,-0.38228 ,-3.75093 
398 ,77.5711 ,1.51953 ,-0.40623 ,-3.98597 
399 ,77.7634 ,1.52146 ,-0.40281 ,-3.95240 
400 ,77.9550 ,1.52341 ,-0.42677 ,-4.18744 
401 ,78.1309 ,1.52530 ,-0.43361 ,-4.25460 
402 ,78.3235 ,1.52710 ,-0.43019 ,-4.22102 
403 ,78.5314 ,1.52917 ,-0.44388 ,-4.35534 
404 ,78.7234 ,1.53112 ,-0.44730 ,-4.38891 
405 ,78.9156 ,1.53297 ,-0.47126 ,-4.62396 
406 ,79.1393 ,1.53526 ,-0.47126 ,-4.62396 
407 ,79.3313 ,1.53712 ,-0.49179 ,-4.82543 
408 ,79.4914 ,1.53895 ,-0.48837 ,-4.79185 
409 ,79.6837 ,1.54069 ,-0.48494 ,-4.75828 
410 ,79.8920 ,1.54274 ,-0.51574 ,-5.06048 
411 ,80.0840 ,1.54466 ,-0.51917 ,-5.09406 
412 ,80.2760 ,1.54654 ,-0.54997 ,-5.39626 
413 ,80.4684 ,1.54849 ,-0.52943 ,-5.19479 
414 ,80.6604 ,1.55045 ,-0.56365 ,-5.53058 
415 ,80.8686 ,1.55241 ,-0.56708 ,-5.56415 
416 ,81.0764 ,1.55456 ,-0.57050 ,-5.59773 
417 ,81.2521 ,1.55645 ,-0.56023 ,-5.49700 
418 ,81.4467 ,1.55832 ,-0.59103 ,-5.79920 
419 ,81.6527 ,1.56039 ,-0.60814 ,-5.96709 
420 ,81.8288 ,1.56214 ,-0.60130 ,-5.89994 
421 ,82.0369 ,1.56415 ,-0.62525 ,-6.13499 
422 ,82.2290 ,1.56611 ,-0.61841 ,-6.06783 
423 ,82.4208 ,1.56807 ,-0.63552 ,-6.23572 
424 ,82.5971 ,1.56982 ,-0.64579 ,-6.33646 
425 ,82.7891 ,1.57171 ,-0.64236 ,-6.30288 
426 ,82.9813 ,1.57368 ,-0.65605 ,-6.43719 
427 ,83.1894 ,1.57569 ,-0.66632 ,-6.53793 
428 ,83.3814 ,1.57766 ,-0.67316 ,-6.60508 
429 ,83.6055 ,1.57979 ,-0.69712 ,-6.84013 
430 ,83.8134 ,1.58197 ,-0.70739 ,-6.94086 
431 ,84.0057 ,1.58388 ,-0.68685 ,-6.73940 
432 ,84.2137 ,1.58595 ,-0.72107 ,-7.07518 
433 ,84.4217 ,1.58795 ,-0.71081 ,-6.97444 
434 ,84.6621 ,1.59038 ,-0.73134 ,-7.17591 
435 ,84.8704 ,1.59250 ,-0.74503 ,-7.31023 
436 ,85.0621 ,1.59445 ,-0.74845 ,-7.34380 
437 ,85.2540 ,1.59632 ,-0.76556 ,-7.51170 
438 ,85.4303 ,1.59815 ,-0.76556 ,-7.51170 
439 ,85.6059 ,1.60000 ,-0.76214 ,-7.47812 
440 ,85.7984 ,1.60182 ,-0.79636 ,-7.81390 
441 ,85.9906 ,1.60382 ,-0.79978 ,-7.84748 
442 ,86.1665 ,1.60556 ,-0.78952 ,-7.74674 
443 ,86.3427 ,1.60735 ,-0.82716 ,-8.11611 
444 ,86.5349 ,1.60911 ,-0.82716 ,-8.11611 
445 ,86.7108 ,1.61108 ,-0.82716 ,-8.11611 
446 ,86.8870 ,1.61273 ,-0.82374 ,-8.08253 
447 ,87.0630 ,1.61456 ,-0.84427 ,-8.28400 
448 ,87.2391 ,1.61624 ,-0.85796 ,-8.41831 
449 ,87.4317 ,1.61811 ,-0.85796 ,-8.41831 
450 ,87.6391 ,1.62022 ,-0.87165 ,-8.55262 
451 ,87.8312 ,1.62225 ,-0.86481 ,-8.48547 
452 ,88.0233 ,1.62407 ,-0.88192 ,-8.65336 
453 ,88.2153 ,1.62595 ,-0.90245 ,-8.85483 
454 ,88.4075 ,1.62781 ,-0.89903 ,-8.82125 
455 ,88.5996 ,1.62980 ,-0.90245 ,-8.85483 
456 ,88.7913 ,1.63172 ,-0.91614 ,-8.98914 
457 ,88.9838 ,1.63367 ,-0.91956 ,-9.02272 
458 ,89.1917 ,1.63567 ,-0.92983 ,-9.12345 
459 ,89.3680 ,1.63761 ,-0.94694 ,-9.29135 
460 ,89.5440 ,1.63928 ,-0.93667 ,-9.19061 
461 ,89.7360 ,1.64116 ,-0.96747 ,-9.49282 
462 ,89.9278 ,1.64306 ,-0.95720 ,-9.39208 
463 ,90.1203 ,1.64500 ,-0.97431 ,-9.55997 
