Data stamp = , 29-04-2022 02:43:16 183

Calibration Values: 
Slope = , 26.54 , g/V 
Offset Voltage at no contact = , -0.501760 , V 

No , Time , Stage Position ,   Mass , Force 
   ,  (s) ,      (mm)      ,   (g)  , (mN)  

1 ,0.0000 ,0.74945 ,5.28141 ,51.82116 
2 ,0.2952 ,0.74965 ,5.26430 ,51.65327 
3 ,0.6317 ,0.75086 ,5.26772 ,51.68685 
4 ,0.8399 ,0.75268 ,5.26430 ,51.65327 
5 ,1.0480 ,0.75465 ,5.28141 ,51.82116 
6 ,1.2401 ,0.75662 ,5.27114 ,51.72043 
7 ,1.4482 ,0.75869 ,5.29510 ,51.95548 
8 ,1.6403 ,0.76060 ,5.27114 ,51.72043 
9 ,1.8323 ,0.76251 ,5.28483 ,51.85474 
10 ,2.0404 ,0.76446 ,5.25745 ,51.58611 
11 ,2.2325 ,0.76663 ,5.26087 ,51.61969 
12 ,2.4245 ,0.76838 ,5.22323 ,51.25033 
13 ,2.6165 ,0.77035 ,5.20954 ,51.11602 
14 ,2.8088 ,0.77223 ,5.21296 ,51.14960 
15 ,3.0006 ,0.77420 ,5.17190 ,50.74666 
16 ,3.1929 ,0.77616 ,5.16848 ,50.71308 
17 ,3.3850 ,0.77804 ,5.13768 ,50.41087 
18 ,3.5931 ,0.78014 ,5.12741 ,50.31014 
19 ,3.7852 ,0.78207 ,5.10688 ,50.10867 
20 ,3.9769 ,0.78398 ,5.07950 ,49.84004 
21 ,4.1693 ,0.78584 ,5.06581 ,49.70573 
22 ,4.3609 ,0.78794 ,5.02817 ,49.33637 
23 ,4.5536 ,0.78967 ,5.01790 ,49.23563 
24 ,4.7453 ,0.79161 ,4.98710 ,48.93343 
25 ,4.9376 ,0.79355 ,4.96999 ,48.76554 
26 ,5.1454 ,0.79558 ,4.96315 ,48.69838 
27 ,5.3378 ,0.79750 ,4.91866 ,48.26186 
28 ,5.5778 ,0.79988 ,4.91866 ,48.26186 
29 ,5.7857 ,0.80201 ,4.89470 ,48.02681 
30 ,5.9618 ,0.80393 ,4.86732 ,47.75819 
31 ,6.1540 ,0.80569 ,4.86390 ,47.72461 
32 ,6.3461 ,0.80759 ,4.85364 ,47.62387 
33 ,6.5219 ,0.80951 ,4.82284 ,47.32167 
34 ,6.7144 ,0.81132 ,4.80230 ,47.12020 
35 ,6.9223 ,0.81343 ,4.78177 ,46.91873 
36 ,7.1146 ,0.81531 ,4.76808 ,46.78442 
37 ,7.3066 ,0.81724 ,4.75782 ,46.68368 
38 ,7.4987 ,0.81915 ,4.71675 ,46.28074 
39 ,7.7067 ,0.82123 ,4.72702 ,46.38148 
40 ,7.9149 ,0.82333 ,4.68937 ,46.01212 
41 ,8.1228 ,0.82537 ,4.67226 ,45.84422 
42 ,8.3151 ,0.82734 ,4.64146 ,45.54202 
43 ,8.5071 ,0.82926 ,4.63462 ,45.47486 
44 ,8.6991 ,0.83126 ,4.60382 ,45.17266 
45 ,8.8912 ,0.83305 ,4.61408 ,45.27339 
46 ,9.0833 ,0.83498 ,4.57986 ,44.93761 
47 ,9.3074 ,0.83713 ,4.55933 ,44.73614 
48 ,9.4995 ,0.83917 ,4.54906 ,44.63541 
49 ,9.7072 ,0.84121 ,4.52511 ,44.40036 
50 ,9.8994 ,0.84315 ,4.50800 ,44.23247 
51 ,10.1078 ,0.84527 ,4.49431 ,44.09815 
52 ,10.2999 ,0.84718 ,4.45324 ,43.69521 
53 ,10.4920 ,0.84910 ,4.46351 ,43.79595 
54 ,10.6999 ,0.85118 ,4.41902 ,43.35943 
55 ,10.8760 ,0.85302 ,4.40533 ,43.22512 
56 ,11.0681 ,0.85478 ,4.41218 ,43.29227 
57 ,11.2762 ,0.85682 ,4.38822 ,43.05723 
58 ,11.4682 ,0.85884 ,4.35742 ,42.75502 
59 ,11.6762 ,0.86089 ,4.33347 ,42.51997 
60 ,11.8841 ,0.86298 ,4.31978 ,42.38566 
61 ,12.0765 ,0.86487 ,4.30267 ,42.21777 
62 ,12.3004 ,0.86706 ,4.29240 ,42.11703 
63 ,12.4927 ,0.86917 ,4.27187 ,41.91556 
64 ,12.6848 ,0.87096 ,4.25476 ,41.74767 
65 ,12.8929 ,0.87311 ,4.21369 ,41.34473 
66 ,13.0849 ,0.87500 ,4.22053 ,41.41189 
67 ,13.2928 ,0.87706 ,4.18289 ,41.04253 
68 ,13.4851 ,0.87898 ,4.17605 ,40.97537 
69 ,13.6770 ,0.88089 ,4.14867 ,40.70674 
70 ,13.8532 ,0.88277 ,4.14525 ,40.67317 
71 ,14.0450 ,0.88455 ,4.12471 ,40.47170 
72 ,14.2375 ,0.88653 ,4.09391 ,40.16949 
73 ,14.4138 ,0.88842 ,4.08365 ,40.06876 
74 ,14.6052 ,0.89016 ,4.08707 ,40.10233 
75 ,14.7976 ,0.89213 ,4.03916 ,39.63224 
76 ,14.9897 ,0.89404 ,4.03574 ,39.59866 
77 ,15.1817 ,0.89592 ,4.00152 ,39.26288 
78 ,15.3899 ,0.89806 ,3.98783 ,39.12856 
79 ,15.5980 ,0.90008 ,3.96729 ,38.92709 
80 ,15.7901 ,0.90205 ,3.94676 ,38.72562 
81 ,15.9982 ,0.90414 ,3.92965 ,38.55773 
82 ,16.1898 ,0.90605 ,3.90570 ,38.32268 
83 ,16.3822 ,0.90797 ,3.90570 ,38.32268 
84 ,16.5903 ,0.91004 ,3.87490 ,38.02048 
85 ,16.7663 ,0.91180 ,3.88174 ,38.08764 
86 ,16.9585 ,0.91374 ,3.84410 ,37.71828 
87 ,17.1506 ,0.91564 ,3.82356 ,37.51681 
88 ,17.3423 ,0.91750 ,3.81330 ,37.41607 
89 ,17.5507 ,0.91951 ,3.79619 ,37.24818 
90 ,17.7588 ,0.92170 ,3.76881 ,36.97955 
91 ,17.9510 ,0.92365 ,3.75512 ,36.84524 
92 ,18.1588 ,0.92568 ,3.74143 ,36.71093 
93 ,18.3508 ,0.92766 ,3.70721 ,36.37514 
94 ,18.5429 ,0.92953 ,3.70037 ,36.30799 
95 ,18.7353 ,0.93147 ,3.67299 ,36.03936 
96 ,18.9277 ,0.93342 ,3.65246 ,35.83789 
97 ,19.1350 ,0.93546 ,3.63534 ,35.67000 
98 ,19.3274 ,0.93740 ,3.63192 ,35.63642 
99 ,19.5032 ,0.93928 ,3.61139 ,35.43495 
100 ,19.6956 ,0.94109 ,3.59086 ,35.23348 
101 ,19.8878 ,0.94295 ,3.58401 ,35.16632 
102 ,20.0797 ,0.94493 ,3.56690 ,34.99843 
103 ,20.2719 ,0.94687 ,3.53610 ,34.69623 
104 ,20.4798 ,0.94893 ,3.54295 ,34.76338 
105 ,20.6719 ,0.95087 ,3.49161 ,34.25971 
106 ,20.8638 ,0.95278 ,3.49846 ,34.32687 
107 ,21.0559 ,0.95466 ,3.46081 ,33.95751 
108 ,21.2480 ,0.95664 ,3.44028 ,33.75604 
109 ,21.4404 ,0.95856 ,3.45055 ,33.85677 
110 ,21.6320 ,0.96043 ,3.40606 ,33.42025 
111 ,21.8246 ,0.96242 ,3.41290 ,33.48741 
112 ,22.0164 ,0.96428 ,3.38210 ,33.18520 
113 ,22.2249 ,0.96627 ,3.36499 ,33.01731 
114 ,22.4163 ,0.96830 ,3.36499 ,33.01731 
115 ,22.6088 ,0.97016 ,3.31708 ,32.54722 
116 ,22.8006 ,0.97210 ,3.33077 ,32.68153 
117 ,22.9928 ,0.97397 ,3.29313 ,32.31217 
118 ,23.1848 ,0.97592 ,3.29313 ,32.31217 
119 ,23.3766 ,0.97785 ,3.27602 ,32.14428 
120 ,23.5852 ,0.97999 ,3.24522 ,31.84207 
121 ,23.7934 ,0.98207 ,3.21784 ,31.57345 
122 ,23.9850 ,0.98395 ,3.21442 ,31.53987 
123 ,24.1774 ,0.98586 ,3.19388 ,31.33840 
124 ,24.3696 ,0.98774 ,3.17335 ,31.13693 
125 ,24.5615 ,0.98971 ,3.16993 ,31.10335 
126 ,24.7537 ,0.99162 ,3.13229 ,30.73399 
127 ,24.9453 ,0.99353 ,3.14597 ,30.86830 
128 ,25.1378 ,0.99542 ,3.10833 ,30.49894 
129 ,25.3457 ,0.99755 ,3.10833 ,30.49894 
130 ,25.5220 ,0.99939 ,3.06384 ,30.06242 
131 ,25.7140 ,1.00121 ,3.05700 ,29.99527 
132 ,25.9059 ,1.00313 ,3.04331 ,29.86095 
133 ,26.0980 ,1.00501 ,3.02620 ,29.69306 
134 ,26.3062 ,1.00713 ,2.99540 ,29.39086 
135 ,26.4824 ,1.00902 ,2.99198 ,29.35728 
136 ,26.7061 ,1.01116 ,2.95433 ,28.98792 
137 ,26.8985 ,1.01303 ,2.95091 ,28.95434 
138 ,27.0902 ,1.01501 ,2.91327 ,28.58498 
139 ,27.2827 ,1.01689 ,2.91327 ,28.58498 
140 ,27.4747 ,1.01882 ,2.89616 ,28.41709 
141 ,27.6668 ,1.02071 ,2.88589 ,28.31635 
142 ,27.8590 ,1.02268 ,2.88247 ,28.28277 
143 ,28.0511 ,1.02462 ,2.83798 ,27.84625 
144 ,28.2430 ,1.02650 ,2.83798 ,27.84625 
145 ,28.4349 ,1.02839 ,2.81060 ,27.57763 
146 ,28.6432 ,1.03052 ,2.79349 ,27.40974 
147 ,28.8351 ,1.03239 ,2.76954 ,27.17469 
148 ,29.0274 ,1.03433 ,2.75585 ,27.04038 
149 ,29.2031 ,1.03622 ,2.74558 ,26.93964 
150 ,29.3955 ,1.03800 ,2.73189 ,26.80533 
151 ,29.6038 ,1.04008 ,2.71478 ,26.63744 
152 ,29.7957 ,1.04204 ,2.71136 ,26.60386 
153 ,29.9874 ,1.04395 ,2.67029 ,26.20092 
154 ,30.1799 ,1.04587 ,2.67372 ,26.23450 
155 ,30.3880 ,1.04800 ,2.63607 ,25.86514 
156 ,30.6120 ,1.05020 ,2.61896 ,25.69724 
157 ,30.8041 ,1.05211 ,2.60869 ,25.59651 
158 ,30.9959 ,1.05402 ,2.59843 ,25.49577 
159 ,31.1884 ,1.05591 ,2.56763 ,25.19357 
160 ,31.3800 ,1.05788 ,2.56763 ,25.19357 
161 ,31.5725 ,1.05980 ,2.55394 ,25.05926 
162 ,31.7645 ,1.06181 ,2.53341 ,24.85779 
163 ,31.9565 ,1.06367 ,2.51630 ,24.68989 
164 ,32.1487 ,1.06553 ,2.48892 ,24.42127 
165 ,32.3567 ,1.06760 ,2.49576 ,24.48842 
166 ,32.5327 ,1.06953 ,2.45127 ,24.05191 
167 ,32.7250 ,1.07127 ,2.46839 ,24.21980 
168 ,32.9171 ,1.07326 ,2.43759 ,23.91759 
169 ,33.1251 ,1.07531 ,2.41363 ,23.68255 
170 ,33.3332 ,1.07740 ,2.38283 ,23.38034 
171 ,33.5253 ,1.07929 ,2.36572 ,23.21245 
172 ,33.7175 ,1.08127 ,2.37599 ,23.31318 
173 ,33.9257 ,1.08326 ,2.34519 ,23.01098 
174 ,34.1336 ,1.08541 ,2.32808 ,22.84309 
175 ,34.3415 ,1.08738 ,2.31781 ,22.74235 
176 ,34.5336 ,1.08952 ,2.28017 ,22.37299 
177 ,34.7095 ,1.09126 ,2.28701 ,22.44015 
178 ,34.9017 ,1.09309 ,2.26990 ,22.27226 
179 ,35.0937 ,1.09502 ,2.23910 ,21.97005 
180 ,35.3018 ,1.09707 ,2.23568 ,21.93647 
181 ,35.4938 ,1.09895 ,2.21515 ,21.73500 
182 ,35.7017 ,1.10105 ,2.20830 ,21.66785 
183 ,35.8942 ,1.10302 ,2.19803 ,21.56711 
184 ,36.1021 ,1.10509 ,2.17066 ,21.29849 
185 ,36.2941 ,1.10700 ,2.14670 ,21.06344 
186 ,36.5023 ,1.10907 ,2.13301 ,20.92912 
187 ,36.6942 ,1.11098 ,2.10564 ,20.66050 
188 ,36.8866 ,1.11295 ,2.09537 ,20.55976 
189 ,37.0947 ,1.11500 ,2.10221 ,20.62692 
190 ,37.2867 ,1.11688 ,2.06115 ,20.22398 
191 ,37.4787 ,1.11879 ,2.07141 ,20.32472 
192 ,37.6709 ,1.12076 ,2.03035 ,19.92178 
193 ,37.8628 ,1.12271 ,2.02350 ,19.85462 
194 ,38.0711 ,1.12469 ,2.01324 ,19.75388 
195 ,38.2791 ,1.12688 ,1.99955 ,19.61957 
196 ,38.4712 ,1.12872 ,1.97217 ,19.35094 
197 ,38.6633 ,1.13067 ,1.95848 ,19.21663 
198 ,38.8552 ,1.13258 ,1.96190 ,19.25021 
199 ,39.0473 ,1.13453 ,1.94137 ,19.04874 
200 ,39.2392 ,1.13640 ,1.93111 ,18.94801 
201 ,39.4317 ,1.13837 ,1.90373 ,18.67938 
202 ,39.6236 ,1.14026 ,1.90373 ,18.67938 
203 ,39.8157 ,1.14220 ,1.89688 ,18.61222 
204 ,40.0076 ,1.14406 ,1.84897 ,18.14213 
205 ,40.1999 ,1.14603 ,1.85240 ,18.17570 
206 ,40.4080 ,1.14809 ,1.83186 ,17.97423 
207 ,40.6001 ,1.15000 ,1.83186 ,17.97423 
208 ,40.7922 ,1.15201 ,1.80791 ,17.73919 
209 ,41.0003 ,1.15403 ,1.81133 ,17.77276 
210 ,41.1919 ,1.15594 ,1.79422 ,17.60487 
211 ,41.3843 ,1.15784 ,1.76000 ,17.26909 
212 ,41.5925 ,1.16000 ,1.76342 ,17.30267 
213 ,41.7846 ,1.16189 ,1.72578 ,16.93331 
214 ,41.9765 ,1.16379 ,1.73262 ,17.00046 
215 ,42.1686 ,1.16572 ,1.69155 ,16.59752 
216 ,42.3608 ,1.16765 ,1.69498 ,16.63110 
217 ,42.5528 ,1.16966 ,1.67786 ,16.46321 
218 ,42.7445 ,1.17145 ,1.66418 ,16.32890 
219 ,42.9370 ,1.17336 ,1.65733 ,16.26174 
220 ,43.1292 ,1.17534 ,1.63680 ,16.06027 
221 ,43.3210 ,1.17724 ,1.62653 ,15.95954 
222 ,43.5293 ,1.17928 ,1.60258 ,15.72449 
223 ,43.7210 ,1.18135 ,1.60942 ,15.79164 
224 ,43.9131 ,1.18313 ,1.57520 ,15.45586 
225 ,44.1052 ,1.18505 ,1.55809 ,15.28797 
226 ,44.2974 ,1.18702 ,1.56151 ,15.32155 
227 ,44.5055 ,1.18909 ,1.54098 ,15.12008 
228 ,44.6975 ,1.19097 ,1.53071 ,15.01934 
229 ,44.8895 ,1.19289 ,1.49991 ,14.71714 
230 ,45.0819 ,1.19485 ,1.50333 ,14.75072 
231 ,45.2740 ,1.19680 ,1.49307 ,14.64998 
232 ,45.4659 ,1.19866 ,1.46227 ,14.34778 
233 ,45.6579 ,1.20068 ,1.46569 ,14.38136 
234 ,45.8660 ,1.20261 ,1.43831 ,14.11273 
235 ,46.0581 ,1.20463 ,1.42462 ,13.97842 
236 ,46.2504 ,1.20656 ,1.40409 ,13.77695 
237 ,46.4423 ,1.20847 ,1.39040 ,13.64263 
238 ,46.6343 ,1.21033 ,1.38698 ,13.60906 
239 ,46.8267 ,1.21228 ,1.36303 ,13.37401 
240 ,47.0348 ,1.21438 ,1.36987 ,13.44116 
241 ,47.2268 ,1.21635 ,1.33907 ,13.13896 
242 ,47.4507 ,1.21843 ,1.34249 ,13.17254 
243 ,47.6429 ,1.22043 ,1.32196 ,12.97107 
244 ,47.8350 ,1.22236 ,1.30485 ,12.80318 
245 ,48.0432 ,1.22445 ,1.28432 ,12.60171 
246 ,48.2353 ,1.22637 ,1.29800 ,12.73602 
247 ,48.4433 ,1.22844 ,1.26378 ,12.40024 
248 ,48.6353 ,1.23032 ,1.25352 ,12.29950 
249 ,48.8111 ,1.23223 ,1.22956 ,12.06445 
250 ,49.0195 ,1.23414 ,1.22614 ,12.03088 
251 ,49.2117 ,1.23612 ,1.21587 ,11.93014 
252 ,49.4037 ,1.23806 ,1.17823 ,11.56078 
253 ,49.5954 ,1.24002 ,1.18165 ,11.59436 
254 ,49.8037 ,1.24193 ,1.15770 ,11.35931 
255 ,49.9958 ,1.24394 ,1.16796 ,11.46004 
256 ,50.2196 ,1.24621 ,1.11663 ,10.95637 
257 ,50.4116 ,1.24811 ,1.14401 ,11.22500 
258 ,50.6361 ,1.25036 ,1.10979 ,10.88921 
259 ,50.8604 ,1.25268 ,1.09610 ,10.75490 
260 ,51.0680 ,1.25472 ,1.08241 ,10.62059 
261 ,51.2605 ,1.25654 ,1.06187 ,10.41912 
262 ,51.4685 ,1.25864 ,1.04134 ,10.21765 
263 ,51.6607 ,1.26061 ,1.03792 ,10.18407 
264 ,51.8528 ,1.26253 ,1.02765 ,10.08333 
265 ,52.0443 ,1.26440 ,0.99685 ,9.78113 
266 ,52.2365 ,1.26632 ,1.01054 ,9.91544 
267 ,52.4295 ,1.26823 ,0.98659 ,9.68039 
268 ,52.6369 ,1.27035 ,0.98659 ,9.68039 
269 ,52.8293 ,1.27224 ,0.96263 ,9.44535 
270 ,53.0372 ,1.27431 ,0.94552 ,9.27745 
271 ,53.2294 ,1.27628 ,0.93525 ,9.17672 
272 ,53.4368 ,1.27833 ,0.91814 ,9.00883 
273 ,53.6613 ,1.28049 ,0.90103 ,8.84094 
274 ,53.8696 ,1.28271 ,0.91472 ,8.97525 
275 ,54.0614 ,1.28465 ,0.87023 ,8.53873 
276 ,54.2537 ,1.28651 ,0.87366 ,8.57231 
277 ,54.4453 ,1.28846 ,0.85654 ,8.40442 
278 ,54.6378 ,1.29032 ,0.85997 ,8.43800 
279 ,54.8456 ,1.29240 ,0.82575 ,8.10221 
280 ,55.0381 ,1.29434 ,0.81548 ,8.00148 
281 ,55.2298 ,1.29629 ,0.81548 ,8.00148 
282 ,55.4383 ,1.29838 ,0.79495 ,7.80001 
283 ,55.6462 ,1.30048 ,0.78126 ,7.66570 
284 ,55.8223 ,1.30228 ,0.77099 ,7.56496 
285 ,56.0145 ,1.30413 ,0.76072 ,7.46423 
286 ,56.2065 ,1.30604 ,0.74361 ,7.29633 
287 ,56.3820 ,1.30792 ,0.72650 ,7.12844 
288 ,56.5746 ,1.30972 ,0.73677 ,7.22918 
289 ,56.7826 ,1.31181 ,0.70597 ,6.92697 
290 ,56.9748 ,1.31368 ,0.70255 ,6.89340 
291 ,57.1669 ,1.31569 ,0.68886 ,6.75908 
292 ,57.3590 ,1.31762 ,0.66148 ,6.49046 
293 ,57.5668 ,1.31963 ,0.66833 ,6.55761 
294 ,57.7431 ,1.32155 ,0.64437 ,6.32256 
295 ,57.9349 ,1.32326 ,0.65464 ,6.42330 
296 ,58.1272 ,1.32520 ,0.62384 ,6.12109 
297 ,58.3030 ,1.32709 ,0.62042 ,6.08752 
298 ,58.4950 ,1.32893 ,0.60673 ,5.95320 
299 ,58.6873 ,1.33092 ,0.59988 ,5.88605 
300 ,58.8796 ,1.33286 ,0.56908 ,5.58384 
301 ,59.0713 ,1.33471 ,0.57593 ,5.65100 
302 ,59.2638 ,1.33655 ,0.54513 ,5.34879 
303 ,59.4716 ,1.33863 ,0.54855 ,5.38237 
304 ,59.6639 ,1.34053 ,0.52117 ,5.11375 
305 ,59.8398 ,1.34245 ,0.53144 ,5.21448 
306 ,60.0321 ,1.34427 ,0.51775 ,5.08017 
307 ,60.2240 ,1.34620 ,0.49037 ,4.81154 
308 ,60.4322 ,1.34825 ,0.49722 ,4.87870 
309 ,60.6403 ,1.35035 ,0.46642 ,4.57649 
310 ,60.8325 ,1.35226 ,0.47668 ,4.67723 
311 ,61.0406 ,1.35433 ,0.44246 ,4.34144 
312 ,61.2326 ,1.35627 ,0.44931 ,4.40860 
313 ,61.4407 ,1.35837 ,0.41851 ,4.10640 
314 ,61.6327 ,1.36026 ,0.42877 ,4.20713 
315 ,61.8249 ,1.36217 ,0.40482 ,3.97208 
316 ,62.0170 ,1.36408 ,0.39797 ,3.90493 
317 ,62.2090 ,1.36601 ,0.38771 ,3.80419 
318 ,62.4011 ,1.36792 ,0.37060 ,3.63630 
319 ,62.7854 ,1.37184 ,0.34322 ,3.36767 
320 ,62.9773 ,1.37372 ,0.33980 ,3.33410 
321 ,63.1852 ,1.37577 ,0.32953 ,3.23336 
322 ,63.3775 ,1.37767 ,0.31242 ,3.06547 
323 ,63.5695 ,1.37959 ,0.31584 ,3.09905 
324 ,63.7617 ,1.38160 ,0.29189 ,2.86400 
325 ,63.9533 ,1.38357 ,0.28847 ,2.83042 
326 ,64.1457 ,1.38539 ,0.27820 ,2.72969 
327 ,64.3379 ,1.38724 ,0.26109 ,2.56179 
328 ,64.5300 ,1.38923 ,0.27135 ,2.66253 
329 ,64.7222 ,1.39114 ,0.24740 ,2.42748 
330 ,64.9141 ,1.39310 ,0.24398 ,2.39390 
331 ,65.0902 ,1.39491 ,0.23713 ,2.32675 
332 ,65.2822 ,1.39682 ,0.20633 ,2.02454 
333 ,65.4743 ,1.39867 ,0.20291 ,1.99096 
334 ,65.6823 ,1.40080 ,0.18580 ,1.82307 
335 ,65.8744 ,1.40269 ,0.18580 ,1.82307 
336 ,66.0663 ,1.40463 ,0.17896 ,1.75592 
337 ,66.2588 ,1.40659 ,0.15158 ,1.48729 
338 ,66.4669 ,1.40858 ,0.16185 ,1.58802 
339 ,66.6749 ,1.41064 ,0.13789 ,1.35298 
340 ,66.8670 ,1.41258 ,0.12078 ,1.18508 
341 ,67.0748 ,1.41467 ,0.11051 ,1.08435 
342 ,67.2672 ,1.41660 ,0.10709 ,1.05077 
343 ,67.4594 ,1.41854 ,0.08314 ,0.81572 
344 ,67.6514 ,1.42049 ,0.08314 ,0.81572 
345 ,67.8435 ,1.42237 ,0.07971 ,0.78214 
346 ,68.0354 ,1.42431 ,0.05576 ,0.54710 
347 ,68.2432 ,1.42636 ,0.05918 ,0.58067 
348 ,68.4356 ,1.42827 ,0.03865 ,0.37920 
349 ,68.6438 ,1.43037 ,0.03180 ,0.31205 
350 ,68.8359 ,1.43231 ,0.00443 ,0.04342 
351 ,69.0281 ,1.43421 ,0.02154 ,0.21131 
352 ,69.2200 ,1.43613 ,-0.00242 ,-0.02373 
353 ,69.4118 ,1.43805 ,-0.00242 ,-0.02373 
354 ,69.6360 ,1.44031 ,-0.02295 ,-0.22520 
355 ,69.8442 ,1.44237 ,-0.02637 ,-0.25878 
356 ,70.0525 ,1.44434 ,-0.05033 ,-0.49383 
357 ,70.2444 ,1.44639 ,-0.05375 ,-0.52741 
358 ,70.4362 ,1.44827 ,-0.06402 ,-0.62814 
359 ,70.6287 ,1.45021 ,-0.07086 ,-0.69530 
360 ,70.8367 ,1.45225 ,-0.08797 ,-0.86319 
361 ,71.0446 ,1.45435 ,-0.08455 ,-0.82961 
362 ,71.2369 ,1.45630 ,-0.11193 ,-1.09824 
363 ,71.4292 ,1.45818 ,-0.10851 ,-1.06466 
364 ,71.6211 ,1.46018 ,-0.11535 ,-1.13182 
365 ,71.8291 ,1.46221 ,-0.11535 ,-1.13182 
366 ,72.0372 ,1.46423 ,-0.14273 ,-1.40045 
367 ,72.2451 ,1.46636 ,-0.14615 ,-1.43402 
368 ,72.4372 ,1.46821 ,-0.17011 ,-1.66907 
369 ,72.6131 ,1.47018 ,-0.17011 ,-1.66907 
370 ,72.8216 ,1.47206 ,-0.17695 ,-1.73623 
371 ,73.0297 ,1.47419 ,-0.18722 ,-1.83696 
372 ,73.2216 ,1.47624 ,-0.22144 ,-2.17275 
373 ,73.4302 ,1.47812 ,-0.21802 ,-2.13917 
374 ,73.6218 ,1.48024 ,-0.23170 ,-2.27348 
375 ,73.8139 ,1.48204 ,-0.25566 ,-2.50853 
376 ,74.0217 ,1.48419 ,-0.24197 ,-2.37422 
377 ,74.2140 ,1.48602 ,-0.25224 ,-2.47495 
378 ,74.4061 ,1.48793 ,-0.25224 ,-2.47495 
379 ,74.5982 ,1.48994 ,-0.26935 ,-2.64284 
380 ,74.8058 ,1.49193 ,-0.27619 ,-2.71000 
381 ,74.9822 ,1.49383 ,-0.29673 ,-2.91147 
382 ,75.1743 ,1.49561 ,-0.30699 ,-3.01220 
383 ,75.3663 ,1.49751 ,-0.31384 ,-3.07936 
384 ,75.5586 ,1.49948 ,-0.32410 ,-3.18010 
385 ,75.7507 ,1.50138 ,-0.32068 ,-3.14652 
386 ,75.9427 ,1.50329 ,-0.33095 ,-3.24725 
387 ,76.1348 ,1.50525 ,-0.35148 ,-3.44872 
388 ,76.3429 ,1.50735 ,-0.35148 ,-3.44872 
389 ,76.5347 ,1.50924 ,-0.38228 ,-3.75093 
390 ,76.7271 ,1.51112 ,-0.37201 ,-3.65019 
391 ,76.9191 ,1.51313 ,-0.38570 ,-3.78450 
392 ,77.1433 ,1.51523 ,-0.38228 ,-3.75093 
393 ,77.3513 ,1.51740 ,-0.41650 ,-4.08671 
394 ,77.5434 ,1.51930 ,-0.41308 ,-4.05313 
395 ,77.7514 ,1.52140 ,-0.43019 ,-4.22102 
396 ,77.9434 ,1.52329 ,-0.44046 ,-4.32176 
397 ,78.1355 ,1.52517 ,-0.45414 ,-4.45607 
398 ,78.3275 ,1.52715 ,-0.45757 ,-4.48965 
399 ,78.5201 ,1.52906 ,-0.46783 ,-4.59038 
400 ,78.7118 ,1.53100 ,-0.47468 ,-4.65754 
401 ,78.9201 ,1.53306 ,-0.48837 ,-4.79185 
402 ,79.1119 ,1.53498 ,-0.49863 ,-4.89259 
403 ,79.3202 ,1.53707 ,-0.50206 ,-4.92617 
404 ,79.5280 ,1.53915 ,-0.50890 ,-4.99332 
405 ,79.7204 ,1.54110 ,-0.51917 ,-5.09406 
406 ,79.9121 ,1.54301 ,-0.53970 ,-5.29553 
407 ,80.1045 ,1.54498 ,-0.52601 ,-5.16121 
408 ,80.3121 ,1.54695 ,-0.55681 ,-5.46342 
409 ,80.5045 ,1.54889 ,-0.54654 ,-5.36268 
410 ,80.6965 ,1.55082 ,-0.57392 ,-5.63131 
411 ,80.8889 ,1.55279 ,-0.57392 ,-5.63131 
412 ,81.0807 ,1.55473 ,-0.58077 ,-5.69847 
413 ,81.2730 ,1.55664 ,-0.60472 ,-5.93352 
414 ,81.4646 ,1.55855 ,-0.61499 ,-6.03425 
415 ,81.6731 ,1.56058 ,-0.62525 ,-6.13499 
416 ,81.8651 ,1.56251 ,-0.61499 ,-6.03425 
417 ,82.0733 ,1.56457 ,-0.64579 ,-6.33646 
418 ,82.2655 ,1.56654 ,-0.63552 ,-6.23572 
419 ,82.4410 ,1.56839 ,-0.66632 ,-6.53793 
420 ,82.6332 ,1.57018 ,-0.65947 ,-6.47077 
421 ,82.8416 ,1.57215 ,-0.65605 ,-6.43719 
422 ,83.0336 ,1.57423 ,-0.68685 ,-6.73940 
423 ,83.2257 ,1.57610 ,-0.66632 ,-6.53793 
424 ,83.4178 ,1.57801 ,-0.70396 ,-6.90729 
425 ,83.6256 ,1.58003 ,-0.70054 ,-6.87371 
426 ,83.8499 ,1.58229 ,-0.71423 ,-7.00802 
427 ,84.0416 ,1.58426 ,-0.71765 ,-7.04160 
428 ,84.2342 ,1.58620 ,-0.73818 ,-7.24307 
429 ,84.4265 ,1.58814 ,-0.73818 ,-7.24307 
430 ,84.6178 ,1.59006 ,-0.74161 ,-7.27665 
431 ,84.8104 ,1.59197 ,-0.76556 ,-7.51170 
432 ,85.0024 ,1.59392 ,-0.76556 ,-7.51170 
433 ,85.1945 ,1.59585 ,-0.78267 ,-7.67959 
434 ,85.3864 ,1.59769 ,-0.79636 ,-7.81390 
435 ,85.5785 ,1.59967 ,-0.79636 ,-7.81390 
436 ,85.7546 ,1.60150 ,-0.81005 ,-7.94821 
437 ,85.9468 ,1.60333 ,-0.81347 ,-7.98179 
438 ,86.1388 ,1.60528 ,-0.80663 ,-7.91464 
439 ,86.3309 ,1.60717 ,-0.83058 ,-8.14968 
440 ,86.5066 ,1.60898 ,-0.83743 ,-8.21684 
441 ,86.6991 ,1.61079 ,-0.84769 ,-8.31758 
442 ,86.9072 ,1.61292 ,-0.85112 ,-8.35115 
443 ,87.0832 ,1.61486 ,-0.86481 ,-8.48547 
444 ,87.2753 ,1.61659 ,-0.88192 ,-8.65336 
445 ,87.4673 ,1.61854 ,-0.87165 ,-8.55262 
446 ,87.6596 ,1.62048 ,-0.88534 ,-8.68694 
447 ,87.8511 ,1.62249 ,-0.89903 ,-8.82125 
448 ,88.0434 ,1.62429 ,-0.90245 ,-8.85483 
449 ,88.2354 ,1.62615 ,-0.91272 ,-8.95556 
450 ,88.4276 ,1.62808 ,-0.92640 ,-9.08988 
451 ,88.6199 ,1.63004 ,-0.91956 ,-9.02272 
452 ,88.8118 ,1.63198 ,-0.94694 ,-9.29135 
453 ,89.0040 ,1.63386 ,-0.93325 ,-9.15703 
454 ,89.1960 ,1.63579 ,-0.95036 ,-9.32492 
455 ,89.3882 ,1.63775 ,-0.96747 ,-9.49282 
456 ,89.5959 ,1.63982 ,-0.97089 ,-9.52639 
457 ,89.7883 ,1.64178 ,-0.99485 ,-9.76144 
458 ,89.9800 ,1.64366 ,-0.97774 ,-9.59355 
459 ,90.1724 ,1.64557 ,-1.00511 ,-9.86218 
460 ,90.3805 ,1.64764 ,-0.99827 ,-9.79502 
461 ,90.5723 ,1.64953 ,-1.02222 ,-10.03007 
462 ,90.7646 ,1.65145 ,-1.01880 ,-9.99649 
