Data stamp = , 28-04-2022 22:13:43 931

Calibration Values: 
Slope = , 26.54 , g/V 
Offset Voltage at no contact = , -0.501760 , V 

No , Time , Stage Position ,   Mass , Force 
   ,  (s) ,      (mm)      ,   (g)  , (mN)  

1 ,0.0000 ,0.74939 ,5.28141 ,51.82116 
2 ,0.2956 ,0.74961 ,5.29510 ,51.95548 
3 ,0.6962 ,0.75109 ,5.28483 ,51.85474 
4 ,0.8884 ,0.75312 ,5.30536 ,52.05621 
5 ,1.0962 ,0.75503 ,5.29167 ,51.92190 
6 ,1.3043 ,0.75704 ,5.29510 ,51.95548 
7 ,1.4965 ,0.75899 ,5.30536 ,52.05621 
8 ,1.6887 ,0.76099 ,5.31563 ,52.15694 
9 ,1.8806 ,0.76294 ,5.27798 ,51.78758 
10 ,2.0727 ,0.76487 ,5.25745 ,51.58611 
11 ,2.2645 ,0.76672 ,5.25403 ,51.55254 
12 ,2.4570 ,0.76874 ,5.21296 ,51.14960 
13 ,2.6648 ,0.77074 ,5.20612 ,51.08244 
14 ,2.8572 ,0.77271 ,5.17532 ,50.78023 
15 ,3.0490 ,0.77459 ,5.16848 ,50.71308 
16 ,3.2413 ,0.77654 ,5.15136 ,50.54519 
17 ,3.4332 ,0.77839 ,5.13425 ,50.37729 
18 ,3.6413 ,0.78055 ,5.10688 ,50.10867 
19 ,3.8332 ,0.78246 ,5.09661 ,50.00793 
20 ,4.0255 ,0.78438 ,5.08634 ,49.90720 
21 ,4.2175 ,0.78626 ,5.04185 ,49.47068 
22 ,4.4254 ,0.78830 ,5.04870 ,49.53784 
23 ,4.6178 ,0.79027 ,5.00763 ,49.13490 
24 ,4.8260 ,0.79234 ,5.00763 ,49.13490 
25 ,5.0180 ,0.79430 ,4.96657 ,48.73196 
26 ,5.2102 ,0.79623 ,4.96315 ,48.69838 
27 ,5.4181 ,0.79830 ,4.93235 ,48.39618 
28 ,5.6103 ,0.80015 ,4.92892 ,48.36260 
29 ,5.8024 ,0.80212 ,4.88786 ,47.95966 
30 ,6.0104 ,0.80421 ,4.89128 ,47.99324 
31 ,6.2024 ,0.80610 ,4.86048 ,47.69103 
32 ,6.3945 ,0.80803 ,4.83995 ,47.48956 
33 ,6.5865 ,0.80991 ,4.83310 ,47.42240 
34 ,6.7786 ,0.81189 ,4.78861 ,46.98589 
35 ,6.9868 ,0.81399 ,4.79204 ,47.01946 
36 ,7.1789 ,0.81585 ,4.75097 ,46.61653 
37 ,7.3710 ,0.81782 ,4.76808 ,46.78442 
38 ,7.5631 ,0.81971 ,4.73044 ,46.41506 
39 ,7.7547 ,0.82164 ,4.71675 ,46.28074 
40 ,7.9473 ,0.82353 ,4.71333 ,46.24716 
41 ,8.1554 ,0.82563 ,4.67568 ,45.87780 
42 ,8.3635 ,0.82776 ,4.65857 ,45.70991 
43 ,8.5555 ,0.82966 ,4.63462 ,45.47486 
44 ,8.7475 ,0.83155 ,4.63462 ,45.47486 
45 ,8.9556 ,0.83369 ,4.60382 ,45.17266 
46 ,9.1478 ,0.83550 ,4.57644 ,44.90403 
47 ,9.3398 ,0.83750 ,4.54906 ,44.63541 
48 ,9.5319 ,0.83936 ,4.54906 ,44.63541 
49 ,9.7400 ,0.84155 ,4.52511 ,44.40036 
50 ,9.9157 ,0.84336 ,4.51826 ,44.33320 
51 ,10.1082 ,0.84518 ,4.50457 ,44.19889 
52 ,10.3162 ,0.84726 ,4.47035 ,43.86310 
53 ,10.5083 ,0.84911 ,4.47720 ,43.93026 
54 ,10.7164 ,0.85129 ,4.43613 ,43.52732 
55 ,10.9080 ,0.85317 ,4.42244 ,43.39301 
56 ,11.1004 ,0.85505 ,4.40533 ,43.22512 
57 ,11.2925 ,0.85696 ,4.39164 ,43.09080 
58 ,11.4845 ,0.85888 ,4.35742 ,42.75502 
59 ,11.6769 ,0.86079 ,4.36084 ,42.78860 
60 ,11.8689 ,0.86280 ,4.34031 ,42.58713 
61 ,12.0605 ,0.86468 ,4.29924 ,42.18419 
62 ,12.2525 ,0.86658 ,4.31293 ,42.31850 
63 ,12.4446 ,0.86850 ,4.27529 ,41.94914 
64 ,12.6366 ,0.87047 ,4.25476 ,41.74767 
65 ,12.8293 ,0.87233 ,4.23422 ,41.54620 
66 ,13.0533 ,0.87448 ,4.22396 ,41.44547 
67 ,13.2452 ,0.87655 ,4.19658 ,41.17684 
68 ,13.4374 ,0.87845 ,4.18631 ,41.07611 
69 ,13.6295 ,0.88035 ,4.15551 ,40.77390 
70 ,13.8375 ,0.88242 ,4.15209 ,40.74032 
71 ,14.0296 ,0.88440 ,4.13498 ,40.57243 
72 ,14.2374 ,0.88646 ,4.10418 ,40.27023 
73 ,14.4299 ,0.88841 ,4.09734 ,40.20307 
74 ,14.6376 ,0.89046 ,4.08365 ,40.06876 
75 ,14.8300 ,0.89233 ,4.05627 ,39.80013 
76 ,15.0218 ,0.89428 ,4.03232 ,39.56508 
77 ,15.2142 ,0.89622 ,4.02205 ,39.46435 
78 ,15.4218 ,0.89825 ,3.99125 ,39.16214 
79 ,15.6141 ,0.90019 ,3.99125 ,39.16214 
80 ,15.8062 ,0.90208 ,3.96729 ,38.92709 
81 ,16.0140 ,0.90427 ,3.93992 ,38.65847 
82 ,16.1901 ,0.90609 ,3.93992 ,38.65847 
83 ,16.3822 ,0.90782 ,3.90912 ,38.35626 
84 ,16.5744 ,0.90991 ,3.90570 ,38.32268 
85 ,16.7828 ,0.91185 ,3.86463 ,37.91975 
86 ,16.9746 ,0.91379 ,3.87490 ,38.02048 
87 ,17.1830 ,0.91591 ,3.82699 ,37.55038 
88 ,17.3910 ,0.91795 ,3.82014 ,37.48323 
89 ,17.5831 ,0.91981 ,3.80987 ,37.38249 
90 ,17.7912 ,0.92185 ,3.79276 ,37.21460 
91 ,17.9832 ,0.92384 ,3.76196 ,36.91240 
92 ,18.1749 ,0.92580 ,3.75512 ,36.84524 
93 ,18.3514 ,0.92765 ,3.72432 ,36.54303 
94 ,18.5435 ,0.92950 ,3.70721 ,36.37514 
95 ,18.7195 ,0.93141 ,3.70379 ,36.34157 
96 ,18.9273 ,0.93332 ,3.67641 ,36.07294 
97 ,19.1036 ,0.93511 ,3.64219 ,35.73716 
98 ,19.2954 ,0.93702 ,3.65246 ,35.83789 
99 ,19.4879 ,0.93897 ,3.63534 ,35.67000 
100 ,19.6795 ,0.94082 ,3.61139 ,35.43495 
101 ,19.8721 ,0.94278 ,3.59428 ,35.26706 
102 ,20.0798 ,0.94485 ,3.57717 ,35.09917 
103 ,20.2722 ,0.94677 ,3.55663 ,34.89770 
104 ,20.4641 ,0.94878 ,3.54295 ,34.76338 
105 ,20.6564 ,0.95057 ,3.54295 ,34.76338 
106 ,20.8641 ,0.95267 ,3.50872 ,34.42760 
107 ,21.0722 ,0.95477 ,3.50188 ,34.36045 
108 ,21.2643 ,0.95667 ,3.45739 ,33.92393 
109 ,21.4567 ,0.95861 ,3.45739 ,33.92393 
110 ,21.6486 ,0.96056 ,3.43001 ,33.65530 
111 ,21.8243 ,0.96231 ,3.41633 ,33.52099 
112 ,22.0329 ,0.96426 ,3.40948 ,33.45383 
113 ,22.2410 ,0.96646 ,3.37526 ,33.11805 
114 ,22.4331 ,0.96837 ,3.36842 ,33.05089 
115 ,22.6412 ,0.97040 ,3.34104 ,32.78227 
116 ,22.8331 ,0.97238 ,3.33419 ,32.71511 
117 ,23.0412 ,0.97443 ,3.31366 ,32.51364 
118 ,23.2333 ,0.97631 ,3.30339 ,32.41290 
119 ,23.4253 ,0.97824 ,3.26575 ,32.04354 
120 ,23.6176 ,0.98018 ,3.26917 ,32.07712 
121 ,23.8097 ,0.98212 ,3.24522 ,31.84207 
122 ,24.0013 ,0.98405 ,3.22811 ,31.67418 
123 ,24.1933 ,0.98601 ,3.21442 ,31.53987 
124 ,24.3857 ,0.98789 ,3.17335 ,31.13693 
125 ,24.5619 ,0.98978 ,3.18362 ,31.23766 
126 ,24.7539 ,0.99158 ,3.14940 ,30.90188 
127 ,24.9462 ,0.99348 ,3.12544 ,30.66683 
128 ,25.1377 ,0.99539 ,3.13571 ,30.76757 
129 ,25.3303 ,0.99729 ,3.09464 ,30.36463 
130 ,25.5223 ,0.99923 ,3.08095 ,30.23031 
131 ,25.7305 ,1.00125 ,3.05700 ,29.99527 
132 ,25.9226 ,1.00325 ,3.05358 ,29.96169 
133 ,26.1144 ,1.00526 ,3.03304 ,29.76022 
134 ,26.3064 ,1.00703 ,3.00224 ,29.45801 
135 ,26.4987 ,1.00907 ,3.00909 ,29.52517 
136 ,26.6908 ,1.01098 ,2.97829 ,29.22297 
137 ,26.8830 ,1.01283 ,2.96460 ,29.08865 
138 ,27.0910 ,1.01493 ,2.93722 ,28.82003 
139 ,27.2827 ,1.01679 ,2.94407 ,28.88718 
140 ,27.4750 ,1.01872 ,2.92011 ,28.65213 
141 ,27.6673 ,1.02067 ,2.88931 ,28.34993 
142 ,27.8593 ,1.02262 ,2.88247 ,28.28277 
143 ,28.0514 ,1.02450 ,2.85851 ,28.04772 
144 ,28.2436 ,1.02645 ,2.84825 ,27.94699 
145 ,28.4195 ,1.02831 ,2.82429 ,27.71194 
146 ,28.6116 ,1.03011 ,2.80034 ,27.47689 
147 ,28.8037 ,1.03202 ,2.80376 ,27.51047 
148 ,28.9958 ,1.03390 ,2.78322 ,27.30900 
149 ,29.1879 ,1.03588 ,2.75585 ,27.04038 
150 ,29.3801 ,1.03784 ,2.75243 ,27.00680 
151 ,29.5722 ,1.03975 ,2.72163 ,26.70459 
152 ,29.7641 ,1.04180 ,2.71820 ,26.67101 
153 ,29.9564 ,1.04352 ,2.69425 ,26.43597 
154 ,30.1641 ,1.04562 ,2.68056 ,26.30165 
155 ,30.3563 ,1.04762 ,2.66003 ,26.10018 
156 ,30.5321 ,1.04944 ,2.64976 ,25.99945 
157 ,30.7245 ,1.05123 ,2.62581 ,25.76440 
158 ,30.9324 ,1.05332 ,2.60527 ,25.56293 
159 ,31.1407 ,1.05539 ,2.60185 ,25.52935 
160 ,31.3168 ,1.05727 ,2.57105 ,25.22715 
161 ,31.5088 ,1.05903 ,2.56078 ,25.12641 
162 ,31.7006 ,1.06094 ,2.54367 ,24.95852 
163 ,31.9091 ,1.06295 ,2.51972 ,24.72347 
164 ,32.1008 ,1.06512 ,2.50603 ,24.58916 
165 ,32.2930 ,1.06689 ,2.48892 ,24.42127 
166 ,32.5013 ,1.06900 ,2.48892 ,24.42127 
167 ,32.6930 ,1.07092 ,2.44443 ,23.98475 
168 ,32.8855 ,1.07288 ,2.45812 ,24.11906 
169 ,33.0935 ,1.07492 ,2.42732 ,23.81686 
170 ,33.2857 ,1.07683 ,2.42048 ,23.74970 
171 ,33.4774 ,1.07875 ,2.38968 ,23.44750 
172 ,33.6698 ,1.08062 ,2.38968 ,23.44750 
173 ,33.8619 ,1.08257 ,2.35545 ,23.11171 
174 ,34.0538 ,1.08448 ,2.34177 ,22.97740 
175 ,34.2461 ,1.08651 ,2.33150 ,22.87667 
176 ,34.4540 ,1.08850 ,2.30070 ,22.57446 
177 ,34.6460 ,1.09044 ,2.30412 ,22.60804 
178 ,34.8379 ,1.09235 ,2.26990 ,22.27226 
179 ,35.0304 ,1.09430 ,2.25621 ,22.13794 
180 ,35.2385 ,1.09637 ,2.23910 ,21.97005 
181 ,35.4304 ,1.09831 ,2.22541 ,21.83574 
182 ,35.6226 ,1.10027 ,2.22883 ,21.86932 
183 ,35.8146 ,1.10210 ,2.19119 ,21.49996 
184 ,35.9903 ,1.10401 ,2.19119 ,21.49996 
185 ,36.1828 ,1.10577 ,2.16723 ,21.26491 
186 ,36.3747 ,1.10767 ,2.13986 ,20.99628 
187 ,36.5670 ,1.10965 ,2.13644 ,20.96270 
188 ,36.7751 ,1.11166 ,2.12275 ,20.82839 
189 ,36.9672 ,1.11367 ,2.12617 ,20.86197 
190 ,37.1752 ,1.11570 ,2.07826 ,20.39187 
191 ,37.3831 ,1.11784 ,2.09195 ,20.52619 
192 ,37.5753 ,1.11974 ,2.04746 ,20.08967 
193 ,37.7674 ,1.12171 ,2.05088 ,20.12325 
194 ,37.9754 ,1.12367 ,2.01666 ,19.78746 
195 ,38.1514 ,1.12560 ,2.00982 ,19.72031 
196 ,38.3437 ,1.12736 ,1.99955 ,19.61957 
197 ,38.5357 ,1.12930 ,1.96190 ,19.25021 
198 ,38.7280 ,1.13121 ,1.97902 ,19.41810 
199 ,38.9359 ,1.13326 ,1.93795 ,19.01516 
200 ,39.1119 ,1.13520 ,1.94479 ,19.08232 
201 ,39.3038 ,1.13697 ,1.92426 ,18.88085 
202 ,39.4961 ,1.13898 ,1.90373 ,18.67938 
203 ,39.6883 ,1.14081 ,1.90373 ,18.67938 
204 ,39.8963 ,1.14299 ,1.87635 ,18.41075 
205 ,40.0882 ,1.14485 ,1.86951 ,18.34360 
206 ,40.2800 ,1.14676 ,1.85924 ,18.24286 
207 ,40.4723 ,1.14873 ,1.83871 ,18.04139 
208 ,40.6646 ,1.15062 ,1.83186 ,17.97423 
209 ,40.8566 ,1.15258 ,1.81133 ,17.77276 
210 ,41.0487 ,1.15449 ,1.81133 ,17.77276 
211 ,41.2408 ,1.15637 ,1.78395 ,17.50414 
212 ,41.4490 ,1.15844 ,1.77369 ,17.40340 
213 ,41.6409 ,1.16036 ,1.74631 ,17.13478 
214 ,41.8492 ,1.16233 ,1.73604 ,17.03404 
215 ,42.0572 ,1.16457 ,1.71209 ,16.79899 
216 ,42.2494 ,1.16647 ,1.72578 ,16.93331 
217 ,42.4411 ,1.16835 ,1.68129 ,16.49679 
218 ,42.6332 ,1.17033 ,1.68471 ,16.53037 
219 ,42.8252 ,1.17224 ,1.68129 ,16.49679 
220 ,43.0016 ,1.17402 ,1.65391 ,16.22816 
221 ,43.1933 ,1.17590 ,1.64022 ,16.09385 
222 ,43.3858 ,1.17776 ,1.61969 ,15.89238 
223 ,43.5614 ,1.17966 ,1.60942 ,15.79164 
224 ,43.7541 ,1.18149 ,1.59916 ,15.69091 
225 ,43.9616 ,1.18359 ,1.58204 ,15.52302 
226 ,44.1537 ,1.18543 ,1.57862 ,15.48944 
227 ,44.3460 ,1.18737 ,1.56493 ,15.35513 
228 ,44.5382 ,1.18934 ,1.53071 ,15.01934 
229 ,44.7139 ,1.19117 ,1.54440 ,15.15366 
230 ,44.9062 ,1.19301 ,1.51018 ,14.81787 
231 ,45.0982 ,1.19495 ,1.49307 ,14.64998 
232 ,45.3065 ,1.19697 ,1.49307 ,14.64998 
233 ,45.4984 ,1.19890 ,1.46227 ,14.34778 
234 ,45.7063 ,1.20098 ,1.46911 ,14.41493 
235 ,45.8985 ,1.20296 ,1.44174 ,14.14631 
236 ,46.1068 ,1.20503 ,1.42462 ,13.97842 
237 ,46.3149 ,1.20702 ,1.41778 ,13.91126 
238 ,46.5070 ,1.20897 ,1.41436 ,13.87768 
239 ,46.6992 ,1.21094 ,1.38698 ,13.60906 
240 ,46.8912 ,1.21286 ,1.38698 ,13.60906 
241 ,47.0989 ,1.21492 ,1.35618 ,13.30685 
242 ,47.2914 ,1.21684 ,1.36645 ,13.40759 
243 ,47.4834 ,1.21879 ,1.34249 ,13.17254 
244 ,47.6754 ,1.22070 ,1.32196 ,12.97107 
245 ,47.8831 ,1.22273 ,1.30485 ,12.80318 
246 ,48.0757 ,1.22474 ,1.29116 ,12.66886 
247 ,48.2838 ,1.22675 ,1.27747 ,12.53455 
248 ,48.4757 ,1.22875 ,1.26720 ,12.43381 
249 ,48.6679 ,1.23061 ,1.26036 ,12.36666 
250 ,48.8760 ,1.23266 ,1.25694 ,12.33308 
251 ,49.0518 ,1.23456 ,1.23983 ,12.16519 
252 ,49.2442 ,1.23634 ,1.20561 ,11.82941 
253 ,49.4361 ,1.23830 ,1.20218 ,11.79583 
254 ,49.6280 ,1.24023 ,1.20218 ,11.79583 
255 ,49.8200 ,1.24213 ,1.15770 ,11.35931 
256 ,49.9964 ,1.24398 ,1.17481 ,11.52720 
257 ,50.2043 ,1.24596 ,1.15770 ,11.35931 
258 ,50.3964 ,1.24787 ,1.13374 ,11.12426 
259 ,50.5885 ,1.24980 ,1.13716 ,11.15784 
260 ,50.7967 ,1.25187 ,1.10636 ,10.85563 
261 ,50.9889 ,1.25389 ,1.10636 ,10.85563 
262 ,51.1805 ,1.25584 ,1.07556 ,10.55343 
263 ,51.3725 ,1.25765 ,1.08241 ,10.62059 
264 ,51.5649 ,1.25959 ,1.05845 ,10.38554 
265 ,51.7731 ,1.26163 ,1.04476 ,10.25123 
266 ,51.9651 ,1.26353 ,1.02081 ,10.01618 
267 ,52.1733 ,1.26567 ,1.02765 ,10.08333 
268 ,52.3653 ,1.26758 ,0.99685 ,9.78113 
269 ,52.5733 ,1.26960 ,0.99685 ,9.78113 
270 ,52.7655 ,1.27156 ,0.98659 ,9.68039 
271 ,52.9577 ,1.27352 ,0.96948 ,9.51250 
272 ,53.1494 ,1.27543 ,0.97632 ,9.57966 
273 ,53.3412 ,1.27733 ,0.94210 ,9.24388 
274 ,53.5340 ,1.27921 ,0.94552 ,9.27745 
275 ,53.7259 ,1.28118 ,0.92499 ,9.07598 
276 ,53.9340 ,1.28326 ,0.91472 ,8.97525 
277 ,54.1259 ,1.28520 ,0.90788 ,8.90809 
278 ,54.3181 ,1.28707 ,0.88734 ,8.70662 
279 ,54.5100 ,1.28896 ,0.88050 ,8.63947 
280 ,54.7183 ,1.29115 ,0.85312 ,8.37084 
281 ,54.9264 ,1.29317 ,0.84970 ,8.33726 
282 ,55.1184 ,1.29510 ,0.82917 ,8.13579 
283 ,55.3105 ,1.29699 ,0.82575 ,8.10221 
284 ,55.5023 ,1.29892 ,0.80521 ,7.90074 
285 ,55.6947 ,1.30081 ,0.81206 ,7.96790 
286 ,55.8866 ,1.30276 ,0.78468 ,7.69927 
287 ,56.0628 ,1.30463 ,0.78126 ,7.66570 
288 ,56.2550 ,1.30644 ,0.77099 ,7.56496 
289 ,56.4631 ,1.30851 ,0.74704 ,7.32991 
290 ,56.6549 ,1.31043 ,0.75046 ,7.36349 
291 ,56.8472 ,1.31240 ,0.72308 ,7.09486 
292 ,57.0552 ,1.31434 ,0.70939 ,6.96055 
293 ,57.2314 ,1.31625 ,0.71966 ,7.06129 
294 ,57.4234 ,1.31811 ,0.68886 ,6.75908 
295 ,57.6312 ,1.32024 ,0.69570 ,6.82624 
296 ,57.8235 ,1.32216 ,0.65806 ,6.45688 
297 ,58.0156 ,1.32409 ,0.66148 ,6.49046 
298 ,58.2077 ,1.32600 ,0.65464 ,6.42330 
299 ,58.4319 ,1.32824 ,0.63753 ,6.25541 
300 ,58.6237 ,1.33011 ,0.61015 ,5.98678 
301 ,58.8160 ,1.33206 ,0.61699 ,6.05394 
302 ,59.0238 ,1.33410 ,0.58619 ,5.75173 
303 ,59.2160 ,1.33602 ,0.59988 ,5.88605 
304 ,59.4080 ,1.33798 ,0.56566 ,5.55026 
305 ,59.6003 ,1.33989 ,0.56224 ,5.51668 
306 ,59.8080 ,1.34194 ,0.54513 ,5.34879 
307 ,60.0003 ,1.34391 ,0.53144 ,5.21448 
308 ,60.2086 ,1.34601 ,0.51433 ,5.04659 
309 ,60.4006 ,1.34792 ,0.51433 ,5.04659 
310 ,60.5928 ,1.34983 ,0.51433 ,5.04659 
311 ,60.7847 ,1.35174 ,0.48353 ,4.74438 
312 ,60.9769 ,1.35366 ,0.47668 ,4.67723 
313 ,61.1689 ,1.35561 ,0.46984 ,4.61007 
314 ,61.3610 ,1.35752 ,0.44931 ,4.40860 
315 ,61.5532 ,1.35943 ,0.44931 ,4.40860 
316 ,61.7451 ,1.36136 ,0.42193 ,4.13997 
317 ,61.9530 ,1.36337 ,0.42877 ,4.20713 
318 ,62.1451 ,1.36537 ,0.41509 ,4.07282 
319 ,62.3373 ,1.36720 ,0.40482 ,3.97208 
320 ,62.5292 ,1.36913 ,0.37402 ,3.66988 
321 ,62.7216 ,1.37111 ,0.37744 ,3.70346 
322 ,62.9130 ,1.37312 ,0.35691 ,3.50199 
323 ,63.1054 ,1.37487 ,0.33980 ,3.33410 
324 ,63.2978 ,1.37685 ,0.35691 ,3.50199 
325 ,63.4899 ,1.37882 ,0.32611 ,3.19978 
326 ,63.6977 ,1.38083 ,0.33980 ,3.33410 
327 ,63.8900 ,1.38277 ,0.30900 ,3.03189 
328 ,64.0980 ,1.38485 ,0.31242 ,3.06547 
329 ,64.2901 ,1.38682 ,0.28847 ,2.83042 
330 ,64.4822 ,1.38879 ,0.29189 ,2.86400 
331 ,64.6742 ,1.39058 ,0.26451 ,2.59537 
332 ,64.8664 ,1.39255 ,0.25424 ,2.49464 
333 ,65.0742 ,1.39459 ,0.24398 ,2.39390 
334 ,65.2661 ,1.39651 ,0.23371 ,2.29317 
335 ,65.4586 ,1.39839 ,0.24055 ,2.36032 
336 ,65.6506 ,1.40035 ,0.19949 ,1.95738 
337 ,65.8427 ,1.40224 ,0.19949 ,1.95738 
338 ,66.0349 ,1.40418 ,0.18922 ,1.85665 
339 ,66.2429 ,1.40625 ,0.17896 ,1.75592 
340 ,66.4350 ,1.40819 ,0.18238 ,1.78949 
341 ,66.6431 ,1.41030 ,0.16527 ,1.62160 
342 ,66.8350 ,1.41218 ,0.15842 ,1.55445 
343 ,67.0272 ,1.41412 ,0.12420 ,1.21866 
344 ,67.2033 ,1.41599 ,0.13789 ,1.35298 
345 ,67.3790 ,1.41772 ,0.11393 ,1.11793 
346 ,67.5871 ,1.41964 ,0.11051 ,1.08435 
347 ,67.7795 ,1.42166 ,0.09682 ,0.95004 
348 ,67.9716 ,1.42358 ,0.08314 ,0.81572 
349 ,68.1636 ,1.42546 ,0.07629 ,0.74857 
350 ,68.3559 ,1.42738 ,0.07629 ,0.74857 
351 ,68.5479 ,1.42938 ,0.04549 ,0.44636 
352 ,68.7399 ,1.43128 ,0.04891 ,0.47994 
353 ,68.9480 ,1.43336 ,0.02496 ,0.24489 
354 ,69.1559 ,1.43542 ,0.01811 ,0.17773 
355 ,69.3484 ,1.43738 ,0.01469 ,0.14416 
356 ,69.5398 ,1.43926 ,0.00100 ,0.00984 
357 ,69.7322 ,1.44114 ,-0.00584 ,-0.05731 
358 ,69.9404 ,1.44327 ,-0.00926 ,-0.09089 
359 ,70.1324 ,1.44518 ,-0.03664 ,-0.35952 
360 ,70.3243 ,1.44708 ,-0.04348 ,-0.42667 
361 ,70.5325 ,1.44912 ,-0.05375 ,-0.52741 
362 ,70.7083 ,1.45104 ,-0.06402 ,-0.62814 
363 ,70.9006 ,1.45285 ,-0.05717 ,-0.56099 
364 ,71.0923 ,1.45476 ,-0.09140 ,-0.89677 
365 ,71.3168 ,1.45691 ,-0.07771 ,-0.76246 
366 ,71.5085 ,1.45891 ,-0.10166 ,-0.99751 
367 ,71.7008 ,1.46084 ,-0.10166 ,-0.99751 
368 ,71.8931 ,1.46280 ,-0.12219 ,-1.19898 
369 ,72.1009 ,1.46484 ,-0.11877 ,-1.16540 
370 ,72.2931 ,1.46678 ,-0.14273 ,-1.40045 
371 ,72.4852 ,1.46865 ,-0.14615 ,-1.43402 
372 ,72.6768 ,1.47075 ,-0.17011 ,-1.66907 
373 ,72.8690 ,1.47254 ,-0.18379 ,-1.80338 
374 ,73.0610 ,1.47443 ,-0.17353 ,-1.70265 
375 ,73.2537 ,1.47642 ,-0.19748 ,-1.93770 
376 ,73.5098 ,1.47881 ,-0.20775 ,-2.03843 
377 ,73.7018 ,1.48096 ,-0.20433 ,-2.00485 
378 ,73.8775 ,1.48271 ,-0.23170 ,-2.27348 
379 ,74.0697 ,1.48456 ,-0.24539 ,-2.40779 
380 ,74.2781 ,1.48665 ,-0.23170 ,-2.27348 
381 ,74.4538 ,1.48846 ,-0.26250 ,-2.57569 
382 ,74.6303 ,1.49019 ,-0.26935 ,-2.64284 
383 ,74.8221 ,1.49207 ,-0.26250 ,-2.57569 
384 ,75.0140 ,1.49397 ,-0.28646 ,-2.81073 
385 ,75.2063 ,1.49586 ,-0.28988 ,-2.84431 
386 ,75.4144 ,1.49797 ,-0.30699 ,-3.01220 
387 ,75.6063 ,1.49996 ,-0.31726 ,-3.11294 
388 ,75.8144 ,1.50195 ,-0.31384 ,-3.07936 
389 ,76.0063 ,1.50391 ,-0.34806 ,-3.41514 
390 ,76.1985 ,1.50576 ,-0.32752 ,-3.21367 
391 ,76.3907 ,1.50770 ,-0.36517 ,-3.58303 
392 ,76.5828 ,1.50962 ,-0.35148 ,-3.44872 
393 ,76.7748 ,1.51156 ,-0.38228 ,-3.75093 
394 ,76.9672 ,1.51350 ,-0.38570 ,-3.78450 
395 ,77.1749 ,1.51546 ,-0.37886 ,-3.71735 
396 ,77.3673 ,1.51753 ,-0.40623 ,-3.98597 
397 ,77.5753 ,1.51955 ,-0.40623 ,-3.98597 
398 ,77.7674 ,1.52147 ,-0.42677 ,-4.18744 
399 ,77.9595 ,1.52336 ,-0.43019 ,-4.22102 
400 ,78.1517 ,1.52530 ,-0.45414 ,-4.45607 
401 ,78.3436 ,1.52720 ,-0.43703 ,-4.28818 
402 ,78.5359 ,1.52921 ,-0.46441 ,-4.55681 
403 ,78.7434 ,1.53126 ,-0.46099 ,-4.52323 
404 ,78.9360 ,1.53314 ,-0.48152 ,-4.72470 
405 ,79.1281 ,1.53507 ,-0.49521 ,-4.85901 
406 ,79.3358 ,1.53712 ,-0.50206 ,-4.92617 
407 ,79.5283 ,1.53909 ,-0.51917 ,-5.09406 
408 ,79.7363 ,1.54119 ,-0.51917 ,-5.09406 
409 ,79.9284 ,1.54306 ,-0.51232 ,-5.02690 
410 ,80.1363 ,1.54513 ,-0.53970 ,-5.29553 
411 ,80.3282 ,1.54706 ,-0.54997 ,-5.39626 
412 ,80.5201 ,1.54902 ,-0.53970 ,-5.29553 
413 ,80.7122 ,1.55091 ,-0.57050 ,-5.59773 
414 ,80.9047 ,1.55289 ,-0.57050 ,-5.59773 
415 ,81.1125 ,1.55489 ,-0.60814 ,-5.96709 
416 ,81.3047 ,1.55683 ,-0.58077 ,-5.69847 
417 ,81.5127 ,1.55893 ,-0.61156 ,-6.00067 
418 ,81.7049 ,1.56091 ,-0.59103 ,-5.79920 
419 ,81.9132 ,1.56294 ,-0.62183 ,-6.10141 
420 ,82.1050 ,1.56485 ,-0.62183 ,-6.10141 
421 ,82.3132 ,1.56684 ,-0.62868 ,-6.16856 
422 ,82.5054 ,1.56885 ,-0.64579 ,-6.33646 
423 ,82.7134 ,1.57091 ,-0.66290 ,-6.50435 
424 ,82.9216 ,1.57298 ,-0.65605 ,-6.43719 
425 ,83.1135 ,1.57499 ,-0.67316 ,-6.60508 
426 ,83.3215 ,1.57702 ,-0.68001 ,-6.67224 
427 ,83.5136 ,1.57893 ,-0.70054 ,-6.87371 
428 ,83.7055 ,1.58087 ,-0.70054 ,-6.87371 
429 ,83.8980 ,1.58277 ,-0.71423 ,-7.00802 
430 ,84.0899 ,1.58470 ,-0.71765 ,-7.04160 
431 ,84.2822 ,1.58664 ,-0.71765 ,-7.04160 
432 ,84.4899 ,1.58874 ,-0.72450 ,-7.10876 
433 ,84.6822 ,1.59059 ,-0.74503 ,-7.31023 
434 ,84.8742 ,1.59251 ,-0.76556 ,-7.51170 
435 ,85.0824 ,1.59458 ,-0.74845 ,-7.34380 
436 ,85.2744 ,1.59649 ,-0.77925 ,-7.64601 
437 ,85.4666 ,1.59840 ,-0.76556 ,-7.51170 
438 ,85.6747 ,1.60054 ,-0.80663 ,-7.91464 
439 ,85.8664 ,1.60254 ,-0.80321 ,-7.88106 
440 ,86.0746 ,1.60451 ,-0.81005 ,-7.94821 
441 ,86.2830 ,1.60663 ,-0.81005 ,-7.94821 
442 ,86.4910 ,1.60873 ,-0.83058 ,-8.14968 
443 ,86.6832 ,1.61057 ,-0.83401 ,-8.18326 
444 ,86.8911 ,1.61273 ,-0.84769 ,-8.31758 
445 ,87.0832 ,1.61456 ,-0.85112 ,-8.35115 
446 ,87.2593 ,1.61652 ,-0.87507 ,-8.58620 
447 ,87.4515 ,1.61830 ,-0.86823 ,-8.51904 
448 ,87.6434 ,1.62019 ,-0.87507 ,-8.58620 
449 ,87.8355 ,1.62211 ,-0.89218 ,-8.75409 
450 ,88.0277 ,1.62407 ,-0.89218 ,-8.75409 
451 ,88.2198 ,1.62602 ,-0.90587 ,-8.88841 
452 ,88.4278 ,1.62808 ,-0.89903 ,-8.82125 
453 ,88.6198 ,1.62997 ,-0.92983 ,-9.12345 
454 ,88.8120 ,1.63189 ,-0.93667 ,-9.19061 
455 ,89.0040 ,1.63382 ,-0.92983 ,-9.12345 
456 ,89.1956 ,1.63573 ,-0.95378 ,-9.35850 
457 ,89.3883 ,1.63767 ,-0.96063 ,-9.42566 
458 ,89.5803 ,1.63963 ,-0.97431 ,-9.55997 
459 ,89.7724 ,1.64151 ,-0.98458 ,-9.66071 
460 ,89.9642 ,1.64342 ,-0.97089 ,-9.52639 
461 ,90.1564 ,1.64529 ,-0.99143 ,-9.72786 
462 ,90.3325 ,1.64718 ,-0.98458 ,-9.66071 
