Data stamp = , 27-04-2022 21:38:13 552

Calibration Values: 
Slope = , 26.54 , g/V 
Offset Voltage at no contact = , -0.501760 , V 

No , Time , Stage Position ,   Mass , Force 
   ,  (s) ,      (mm)      ,   (g)  , (mN)  

1 ,0.0000 ,0.74939 ,5.24718 ,51.48538 
2 ,0.2797 ,0.74956 ,5.25061 ,51.51896 
3 ,0.6320 ,0.75071 ,5.25061 ,51.51896 
4 ,0.8401 ,0.75261 ,5.24718 ,51.48538 
5 ,1.0485 ,0.75458 ,5.23350 ,51.35107 
6 ,1.2404 ,0.75649 ,5.24718 ,51.48538 
7 ,1.4644 ,0.75873 ,5.25403 ,51.55254 
8 ,1.6724 ,0.76079 ,5.24718 ,51.48538 
9 ,1.8643 ,0.76270 ,5.22323 ,51.25033 
10 ,2.0411 ,0.76459 ,5.22323 ,51.25033 
11 ,2.2490 ,0.76644 ,5.21981 ,51.21675 
12 ,2.4409 ,0.76851 ,5.18901 ,50.91455 
13 ,2.6327 ,0.77038 ,5.18901 ,50.91455 
14 ,2.8249 ,0.77230 ,5.14452 ,50.47803 
15 ,3.0012 ,0.77415 ,5.14110 ,50.44445 
16 ,3.1934 ,0.77602 ,5.12741 ,50.31014 
17 ,3.4010 ,0.77809 ,5.09661 ,50.00793 
18 ,3.5775 ,0.77989 ,5.08292 ,49.87362 
19 ,3.7692 ,0.78195 ,5.05897 ,49.63857 
20 ,3.9613 ,0.78371 ,5.03843 ,49.43710 
21 ,4.1535 ,0.78564 ,5.04528 ,49.50426 
22 ,4.3458 ,0.78752 ,5.00763 ,49.13490 
23 ,4.5378 ,0.78949 ,5.00079 ,49.06774 
24 ,4.7294 ,0.79137 ,4.98710 ,48.93343 
25 ,4.9379 ,0.79335 ,4.96315 ,48.69838 
26 ,5.1456 ,0.79553 ,4.92550 ,48.32902 
27 ,5.3382 ,0.79740 ,4.93577 ,48.42975 
28 ,5.5462 ,0.79954 ,4.89812 ,48.06039 
29 ,5.7381 ,0.80154 ,4.88101 ,47.89250 
30 ,5.9303 ,0.80336 ,4.87075 ,47.79177 
31 ,6.1223 ,0.80529 ,4.83995 ,47.48956 
32 ,6.3145 ,0.80718 ,4.83310 ,47.42240 
33 ,6.5066 ,0.80913 ,4.79888 ,47.08662 
34 ,6.6983 ,0.81103 ,4.77493 ,46.85157 
35 ,6.8745 ,0.81282 ,4.77150 ,46.81800 
36 ,7.0829 ,0.81495 ,4.74413 ,46.54937 
37 ,7.2746 ,0.81695 ,4.72702 ,46.38148 
38 ,7.4670 ,0.81878 ,4.71675 ,46.28074 
39 ,7.6750 ,0.82082 ,4.69622 ,46.07927 
40 ,7.8992 ,0.82308 ,4.66884 ,45.81065 
41 ,8.0912 ,0.82498 ,4.66884 ,45.81065 
42 ,8.2994 ,0.82703 ,4.63119 ,45.44128 
43 ,8.4914 ,0.82898 ,4.61066 ,45.23981 
44 ,8.6835 ,0.83103 ,4.58328 ,44.97119 
45 ,8.8756 ,0.83279 ,4.59013 ,45.03835 
46 ,9.0673 ,0.83471 ,4.57644 ,44.90403 
47 ,9.2598 ,0.83668 ,4.53537 ,44.50109 
48 ,9.4838 ,0.83895 ,4.52853 ,44.43394 
49 ,9.6919 ,0.84098 ,4.50457 ,44.19889 
50 ,9.8836 ,0.84288 ,4.48062 ,43.96384 
51 ,10.0600 ,0.84474 ,4.46009 ,43.76237 
52 ,10.2202 ,0.84640 ,4.44640 ,43.62806 
53 ,10.3959 ,0.84811 ,4.42244 ,43.39301 
54 ,10.5884 ,0.84994 ,4.43271 ,43.49374 
55 ,10.7804 ,0.85190 ,4.39849 ,43.15796 
56 ,10.9724 ,0.85381 ,4.36769 ,42.85576 
57 ,11.1644 ,0.85572 ,4.36427 ,42.82218 
58 ,11.3565 ,0.85764 ,4.34716 ,42.65429 
59 ,11.5487 ,0.85956 ,4.33689 ,42.55355 
60 ,11.7405 ,0.86144 ,4.30267 ,42.21777 
61 ,11.9329 ,0.86338 ,4.29924 ,42.18419 
62 ,12.1409 ,0.86548 ,4.27529 ,41.94914 
63 ,12.3326 ,0.86741 ,4.26502 ,41.84841 
64 ,12.5251 ,0.86927 ,4.24791 ,41.68051 
65 ,12.7331 ,0.87137 ,4.22738 ,41.47905 
66 ,12.9252 ,0.87325 ,4.21027 ,41.31115 
67 ,13.1494 ,0.87544 ,4.17947 ,41.00895 
68 ,13.3730 ,0.87780 ,4.16236 ,40.84106 
69 ,13.5653 ,0.87974 ,4.15894 ,40.80748 
70 ,13.7736 ,0.88179 ,4.12814 ,40.50527 
71 ,13.9815 ,0.88386 ,4.11445 ,40.37096 
72 ,14.1736 ,0.88577 ,4.08365 ,40.06876 
73 ,14.3820 ,0.88784 ,4.06654 ,39.90087 
74 ,14.5579 ,0.88968 ,4.04258 ,39.66582 
75 ,14.7499 ,0.89151 ,4.04943 ,39.73297 
76 ,14.9422 ,0.89353 ,4.03232 ,39.56508 
77 ,15.1339 ,0.89535 ,4.00152 ,39.26288 
78 ,15.3263 ,0.89730 ,3.99125 ,39.16214 
79 ,15.5023 ,0.89918 ,3.96387 ,38.89352 
80 ,15.6941 ,0.90094 ,3.94676 ,38.72562 
81 ,15.9024 ,0.90303 ,3.95018 ,38.75920 
82 ,16.1107 ,0.90508 ,3.92623 ,38.52415 
83 ,16.3188 ,0.90711 ,3.89885 ,38.25553 
84 ,16.5268 ,0.90937 ,3.89543 ,38.22195 
85 ,16.7348 ,0.91135 ,3.85436 ,37.81901 
86 ,16.9269 ,0.91325 ,3.85094 ,37.78543 
87 ,17.1191 ,0.91518 ,3.82356 ,37.51681 
88 ,17.3110 ,0.91711 ,3.80987 ,37.38249 
89 ,17.5029 ,0.91905 ,3.78934 ,37.18102 
90 ,17.6949 ,0.92099 ,3.76539 ,36.94597 
91 ,17.8873 ,0.92285 ,3.75854 ,36.87882 
92 ,18.0794 ,0.92486 ,3.73801 ,36.67735 
93 ,18.2715 ,0.92673 ,3.71748 ,36.47588 
94 ,18.4794 ,0.92880 ,3.69352 ,36.24083 
95 ,18.6717 ,0.93080 ,3.67641 ,36.07294 
96 ,18.8633 ,0.93266 ,3.67641 ,36.07294 
97 ,19.0558 ,0.93451 ,3.64219 ,35.73716 
98 ,19.2480 ,0.93651 ,3.62508 ,35.56926 
99 ,19.4399 ,0.93843 ,3.60797 ,35.40137 
100 ,19.6161 ,0.94025 ,3.59770 ,35.30064 
101 ,19.8081 ,0.94215 ,3.58059 ,35.13275 
102 ,19.9841 ,0.94388 ,3.56006 ,34.93128 
103 ,20.1763 ,0.94582 ,3.54979 ,34.83054 
104 ,20.3684 ,0.94778 ,3.53268 ,34.66265 
105 ,20.5605 ,0.94966 ,3.51215 ,34.46118 
106 ,20.7683 ,0.95173 ,3.50530 ,34.39402 
107 ,20.9601 ,0.95364 ,3.48135 ,34.15898 
108 ,21.1528 ,0.95553 ,3.44713 ,33.82319 
109 ,21.3448 ,0.95747 ,3.44713 ,33.82319 
110 ,21.5369 ,0.95939 ,3.41975 ,33.55457 
111 ,21.7450 ,0.96143 ,3.40948 ,33.45383 
112 ,21.9371 ,0.96336 ,3.38210 ,33.18520 
113 ,22.1130 ,0.96525 ,3.36157 ,32.98374 
114 ,22.3052 ,0.96700 ,3.36842 ,33.05089 
115 ,22.5293 ,0.96922 ,3.33762 ,32.74869 
116 ,22.7214 ,0.97127 ,3.32735 ,32.64795 
117 ,22.9294 ,0.97331 ,3.31366 ,32.51364 
118 ,23.1210 ,0.97519 ,3.28628 ,32.24501 
119 ,23.3135 ,0.97715 ,3.25206 ,31.90923 
120 ,23.5057 ,0.97900 ,3.24864 ,31.87565 
121 ,23.7136 ,0.98112 ,3.21784 ,31.57345 
122 ,23.9057 ,0.98309 ,3.21442 ,31.53987 
123 ,24.0818 ,0.98491 ,3.19046 ,31.30482 
124 ,24.2577 ,0.98662 ,3.18020 ,31.20409 
125 ,24.4341 ,0.98838 ,3.16651 ,31.06977 
126 ,24.6580 ,0.99047 ,3.16309 ,31.03619 
127 ,24.8504 ,0.99249 ,3.11860 ,30.59968 
128 ,25.0582 ,0.99458 ,3.10833 ,30.49894 
129 ,25.2499 ,0.99657 ,3.09806 ,30.39821 
130 ,25.4423 ,0.99845 ,3.08438 ,30.26389 
131 ,25.6345 ,1.00035 ,3.06042 ,30.02884 
132 ,25.8267 ,1.00223 ,3.04331 ,29.86095 
133 ,26.0187 ,1.00421 ,3.03647 ,29.79380 
134 ,26.2268 ,1.00624 ,3.00909 ,29.52517 
135 ,26.4186 ,1.00829 ,2.97829 ,29.22297 
136 ,26.5948 ,1.00998 ,2.97144 ,29.15581 
137 ,26.7869 ,1.01186 ,2.94407 ,28.88718 
138 ,26.9790 ,1.01372 ,2.93722 ,28.82003 
139 ,27.1711 ,1.01573 ,2.92011 ,28.65213 
140 ,27.3793 ,1.01777 ,2.90642 ,28.51782 
141 ,27.5712 ,1.01974 ,2.89616 ,28.41709 
142 ,27.7794 ,1.02179 ,2.87905 ,28.24919 
143 ,27.9710 ,1.02369 ,2.83798 ,27.84625 
144 ,28.1631 ,1.02561 ,2.83456 ,27.81268 
145 ,28.3551 ,1.02752 ,2.83114 ,27.77910 
146 ,28.5472 ,1.02947 ,2.79349 ,27.40974 
147 ,28.7555 ,1.03147 ,2.79691 ,27.44332 
148 ,28.9798 ,1.03383 ,2.78322 ,27.30900 
149 ,29.1719 ,1.03570 ,2.73874 ,26.87248 
150 ,29.3639 ,1.03766 ,2.72847 ,26.77175 
151 ,29.5559 ,1.03956 ,2.71820 ,26.67101 
152 ,29.7641 ,1.04161 ,2.69425 ,26.43597 
153 ,29.9719 ,1.04370 ,2.68056 ,26.30165 
154 ,30.1639 ,1.04558 ,2.66003 ,26.10018 
155 ,30.3565 ,1.04762 ,2.64976 ,25.99945 
156 ,30.5484 ,1.04945 ,2.62238 ,25.73082 
157 ,30.7402 ,1.05147 ,2.62238 ,25.73082 
158 ,30.9326 ,1.05329 ,2.59158 ,25.42862 
159 ,31.1248 ,1.05526 ,2.56421 ,25.15999 
160 ,31.3168 ,1.05712 ,2.58132 ,25.32788 
161 ,31.4930 ,1.05893 ,2.56078 ,25.12641 
162 ,31.6847 ,1.06082 ,2.52998 ,24.82421 
163 ,31.8611 ,1.06262 ,2.50945 ,24.62274 
164 ,32.0531 ,1.06445 ,2.50603 ,24.58916 
165 ,32.2613 ,1.06655 ,2.48892 ,24.42127 
166 ,32.4693 ,1.06868 ,2.45812 ,24.11906 
167 ,32.6614 ,1.07059 ,2.45127 ,24.05191 
168 ,32.8532 ,1.07248 ,2.43759 ,23.91759 
169 ,33.0456 ,1.07447 ,2.39994 ,23.54823 
170 ,33.2539 ,1.07646 ,2.40336 ,23.58181 
171 ,33.4456 ,1.07843 ,2.37256 ,23.27961 
172 ,33.6377 ,1.08028 ,2.37599 ,23.31318 
173 ,33.8299 ,1.08229 ,2.34519 ,23.01098 
174 ,34.0219 ,1.08416 ,2.34177 ,22.97740 
175 ,34.2301 ,1.08624 ,2.31439 ,22.70877 
176 ,34.4220 ,1.08821 ,2.28701 ,22.44015 
177 ,34.5982 ,1.09002 ,2.29385 ,22.50731 
178 ,34.8061 ,1.09202 ,2.25621 ,22.13794 
179 ,34.9982 ,1.09400 ,2.24252 ,22.00363 
180 ,35.1902 ,1.09589 ,2.22883 ,21.86932 
181 ,35.3986 ,1.09798 ,2.21857 ,21.76858 
182 ,35.5901 ,1.09989 ,2.20830 ,21.66785 
183 ,35.7664 ,1.10168 ,2.17750 ,21.36564 
184 ,35.9583 ,1.10353 ,2.17066 ,21.29849 
185 ,36.1504 ,1.10548 ,2.16039 ,21.19775 
186 ,36.3589 ,1.10745 ,2.12275 ,20.82839 
187 ,36.5831 ,1.10989 ,2.10906 ,20.69408 
188 ,36.7752 ,1.11168 ,2.10564 ,20.66050 
189 ,36.9672 ,1.11360 ,2.08510 ,20.45903 
190 ,37.1594 ,1.11551 ,2.07484 ,20.35829 
191 ,37.4153 ,1.11799 ,2.05088 ,20.12325 
192 ,37.6236 ,1.12022 ,2.02008 ,19.82104 
193 ,37.8156 ,1.12208 ,2.02693 ,19.88820 
194 ,37.9917 ,1.12399 ,1.99613 ,19.58599 
195 ,38.1677 ,1.12569 ,1.97902 ,19.41810 
196 ,38.3594 ,1.12755 ,1.96533 ,19.28379 
197 ,38.5518 ,1.12942 ,1.97217 ,19.35094 
198 ,38.7440 ,1.13141 ,1.94822 ,19.11590 
199 ,38.9360 ,1.13326 ,1.94137 ,19.04874 
200 ,39.1278 ,1.13528 ,1.92084 ,18.84727 
201 ,39.3202 ,1.13717 ,1.90715 ,18.71296 
202 ,39.5122 ,1.13909 ,1.89004 ,18.54507 
203 ,39.7203 ,1.14115 ,1.85924 ,18.24286 
204 ,39.9125 ,1.14304 ,1.87635 ,18.41075 
205 ,40.1044 ,1.14498 ,1.83871 ,18.04139 
206 ,40.2805 ,1.14681 ,1.83871 ,18.04139 
207 ,40.4722 ,1.14870 ,1.83186 ,17.97423 
208 ,40.6647 ,1.15058 ,1.79764 ,17.63845 
209 ,40.8729 ,1.15264 ,1.80791 ,17.73919 
210 ,41.0648 ,1.15456 ,1.78053 ,17.47056 
211 ,41.2731 ,1.15666 ,1.77369 ,17.40340 
212 ,41.4649 ,1.15858 ,1.74631 ,17.13478 
213 ,41.6571 ,1.16051 ,1.74289 ,17.10120 
214 ,41.8652 ,1.16258 ,1.71893 ,16.86615 
215 ,42.0573 ,1.16453 ,1.69498 ,16.63110 
216 ,42.2330 ,1.16629 ,1.70182 ,16.69826 
217 ,42.4254 ,1.16816 ,1.67102 ,16.39605 
218 ,42.6332 ,1.17026 ,1.68129 ,16.49679 
219 ,42.8257 ,1.17215 ,1.64707 ,16.16101 
220 ,43.0338 ,1.17421 ,1.64022 ,16.09385 
221 ,43.2252 ,1.17615 ,1.60942 ,15.79164 
222 ,43.4174 ,1.17816 ,1.59916 ,15.69091 
223 ,43.6100 ,1.17995 ,1.59916 ,15.69091 
224 ,43.8179 ,1.18208 ,1.59231 ,15.62375 
225 ,44.0261 ,1.18415 ,1.55124 ,15.22081 
226 ,44.2340 ,1.18620 ,1.54098 ,15.12008 
227 ,44.4422 ,1.18833 ,1.51702 ,14.88503 
228 ,44.6343 ,1.19021 ,1.51360 ,14.85145 
229 ,44.8418 ,1.19231 ,1.49991 ,14.71714 
230 ,45.0183 ,1.19418 ,1.49307 ,14.64998 
231 ,45.2105 ,1.19606 ,1.48280 ,14.54925 
232 ,45.4022 ,1.19795 ,1.45885 ,14.31420 
233 ,45.5786 ,1.19971 ,1.43489 ,14.07915 
234 ,45.7707 ,1.20167 ,1.44174 ,14.14631 
235 ,45.9626 ,1.20364 ,1.43147 ,14.04557 
236 ,46.1549 ,1.20550 ,1.40751 ,13.81053 
237 ,46.3466 ,1.20741 ,1.40067 ,13.74337 
238 ,46.5227 ,1.20916 ,1.39040 ,13.64263 
239 ,46.6987 ,1.21100 ,1.38014 ,13.54190 
240 ,46.8910 ,1.21280 ,1.35960 ,13.34043 
241 ,47.0832 ,1.21470 ,1.34249 ,13.17254 
242 ,47.2914 ,1.21683 ,1.34591 ,13.20612 
243 ,47.4989 ,1.21891 ,1.30827 ,12.83675 
244 ,47.6754 ,1.22076 ,1.31854 ,12.93749 
245 ,47.8677 ,1.22264 ,1.30143 ,12.76960 
246 ,48.0593 ,1.22454 ,1.27063 ,12.46739 
247 ,48.2519 ,1.22643 ,1.27063 ,12.46739 
248 ,48.4599 ,1.22856 ,1.25009 ,12.26592 
249 ,48.6520 ,1.23053 ,1.24325 ,12.19877 
250 ,48.8441 ,1.23236 ,1.22614 ,12.03088 
251 ,49.0361 ,1.23424 ,1.20903 ,11.86298 
252 ,49.2438 ,1.23630 ,1.21587 ,11.93014 
253 ,49.4203 ,1.23816 ,1.17823 ,11.56078 
254 ,49.6283 ,1.24021 ,1.18165 ,11.59436 
255 ,49.8364 ,1.24230 ,1.15085 ,11.29215 
256 ,50.0286 ,1.24421 ,1.14743 ,11.25857 
257 ,50.2201 ,1.24617 ,1.11663 ,10.95637 
258 ,50.4288 ,1.24808 ,1.13032 ,11.09068 
259 ,50.6207 ,1.25012 ,1.10979 ,10.88921 
260 ,50.8289 ,1.25220 ,1.10636 ,10.85563 
261 ,51.0206 ,1.25410 ,1.07214 ,10.51985 
262 ,51.2290 ,1.25622 ,1.07899 ,10.58701 
263 ,51.4371 ,1.25821 ,1.04819 ,10.28480 
264 ,51.6451 ,1.26033 ,1.04819 ,10.28480 
265 ,51.8372 ,1.26224 ,1.01054 ,9.91544 
266 ,52.0453 ,1.26436 ,1.01739 ,9.98260 
267 ,52.2370 ,1.26624 ,0.99685 ,9.78113 
268 ,52.4455 ,1.26837 ,0.99001 ,9.71397 
269 ,52.6536 ,1.27039 ,0.96948 ,9.51250 
270 ,52.8456 ,1.27234 ,0.97290 ,9.54608 
271 ,53.0378 ,1.27424 ,0.92499 ,9.07598 
272 ,53.2299 ,1.27619 ,0.94210 ,9.24388 
273 ,53.4215 ,1.27819 ,0.92499 ,9.07598 
274 ,53.6136 ,1.28000 ,0.89419 ,8.77378 
275 ,53.8220 ,1.28207 ,0.90103 ,8.84094 
276 ,53.9981 ,1.28392 ,0.88050 ,8.63947 
277 ,54.1741 ,1.28567 ,0.86681 ,8.50515 
278 ,54.3503 ,1.28744 ,0.86339 ,8.47158 
279 ,54.5421 ,1.28931 ,0.85312 ,8.37084 
280 ,54.7345 ,1.29121 ,0.82917 ,8.13579 
281 ,54.9586 ,1.29333 ,0.82575 ,8.10221 
282 ,55.1664 ,1.29553 ,0.82575 ,8.10221 
283 ,55.3588 ,1.29741 ,0.79495 ,7.80001 
284 ,55.5666 ,1.29954 ,0.79152 ,7.76643 
285 ,55.7590 ,1.30147 ,0.78126 ,7.66570 
286 ,55.9670 ,1.30352 ,0.77441 ,7.59854 
287 ,56.1430 ,1.30536 ,0.75388 ,7.39707 
288 ,56.3351 ,1.30721 ,0.74361 ,7.29633 
289 ,56.5430 ,1.30935 ,0.72992 ,7.16202 
290 ,56.7349 ,1.31125 ,0.70597 ,6.92697 
291 ,56.9272 ,1.31319 ,0.71624 ,7.02771 
292 ,57.1195 ,1.31508 ,0.70255 ,6.89340 
293 ,57.3115 ,1.31700 ,0.66833 ,6.55761 
294 ,57.4876 ,1.31883 ,0.67517 ,6.62477 
295 ,57.6634 ,1.32060 ,0.65121 ,6.38972 
296 ,57.8397 ,1.32243 ,0.63753 ,6.25541 
297 ,58.0317 ,1.32416 ,0.63068 ,6.18825 
298 ,58.2079 ,1.32603 ,0.62384 ,6.12109 
299 ,58.4159 ,1.32794 ,0.61357 ,6.02036 
300 ,58.6080 ,1.32995 ,0.60673 ,5.95320 
301 ,58.8000 ,1.33191 ,0.58962 ,5.78531 
302 ,58.9761 ,1.33378 ,0.56566 ,5.55026 
303 ,59.1680 ,1.33559 ,0.55539 ,5.44953 
304 ,59.3440 ,1.33735 ,0.55539 ,5.44953 
305 ,59.5200 ,1.33917 ,0.54171 ,5.31522 
306 ,59.6965 ,1.34088 ,0.53144 ,5.21448 
307 ,59.9042 ,1.34288 ,0.53486 ,5.24806 
308 ,60.0966 ,1.34489 ,0.52802 ,5.18090 
309 ,60.3045 ,1.34688 ,0.50406 ,4.94585 
310 ,60.4968 ,1.34879 ,0.50064 ,4.91228 
311 ,60.7048 ,1.35089 ,0.48695 ,4.77796 
312 ,60.8811 ,1.35271 ,0.47668 ,4.67723 
313 ,61.0891 ,1.35475 ,0.45957 ,4.50934 
314 ,61.2811 ,1.35678 ,0.45615 ,4.47576 
315 ,61.4732 ,1.35856 ,0.41851 ,4.10640 
316 ,61.6813 ,1.36072 ,0.43220 ,4.24071 
317 ,61.8733 ,1.36260 ,0.39455 ,3.87135 
318 ,62.0491 ,1.36446 ,0.40140 ,3.93850 
319 ,62.2416 ,1.36624 ,0.38771 ,3.80419 
320 ,62.4497 ,1.36831 ,0.37060 ,3.63630 
321 ,62.6418 ,1.37029 ,0.37402 ,3.66988 
322 ,62.8658 ,1.37243 ,0.35691 ,3.50199 
323 ,63.0579 ,1.37437 ,0.33980 ,3.33410 
324 ,63.2501 ,1.37636 ,0.32611 ,3.19978 
325 ,63.4421 ,1.37829 ,0.32953 ,3.23336 
326 ,63.6340 ,1.38016 ,0.30215 ,2.96473 
327 ,63.8422 ,1.38230 ,0.30558 ,2.99831 
328 ,64.0343 ,1.38417 ,0.28847 ,2.83042 
329 ,64.2418 ,1.38627 ,0.28504 ,2.79684 
330 ,64.4661 ,1.38844 ,0.25767 ,2.52822 
331 ,64.6585 ,1.39046 ,0.25082 ,2.46106 
332 ,64.8666 ,1.39252 ,0.24055 ,2.36032 
333 ,65.0587 ,1.39441 ,0.23713 ,2.32675 
334 ,65.2509 ,1.39634 ,0.20291 ,1.99096 
335 ,65.4585 ,1.39841 ,0.20976 ,2.05812 
336 ,65.6509 ,1.40038 ,0.19264 ,1.89023 
337 ,65.8271 ,1.40217 ,0.18580 ,1.82307 
338 ,66.0188 ,1.40403 ,0.19264 ,1.89023 
339 ,66.1952 ,1.40584 ,0.16185 ,1.58802 
340 ,66.3873 ,1.40771 ,0.14816 ,1.45371 
341 ,66.5789 ,1.40966 ,0.15158 ,1.48729 
342 ,66.7556 ,1.41145 ,0.13789 ,1.35298 
343 ,66.9635 ,1.41349 ,0.13447 ,1.31940 
344 ,67.1558 ,1.41536 ,0.11736 ,1.15151 
345 ,67.3635 ,1.41744 ,0.08998 ,0.88288 
346 ,67.5716 ,1.41954 ,0.08314 ,0.81572 
347 ,67.7478 ,1.42135 ,0.07287 ,0.71499 
348 ,67.9239 ,1.42310 ,0.07629 ,0.74857 
349 ,68.1000 ,1.42489 ,0.07629 ,0.74857 
350 ,68.2921 ,1.42674 ,0.03865 ,0.37920 
351 ,68.4842 ,1.42868 ,0.04549 ,0.44636 
352 ,68.6922 ,1.43075 ,0.02838 ,0.27847 
353 ,68.8842 ,1.43272 ,0.01811 ,0.17773 
354 ,69.0764 ,1.43460 ,0.00443 ,0.04342 
355 ,69.2685 ,1.43645 ,-0.00926 ,-0.09089 
356 ,69.4603 ,1.43845 ,0.00443 ,0.04342 
357 ,69.6525 ,1.44039 ,-0.01953 ,-0.19163 
358 ,69.8445 ,1.44234 ,-0.02980 ,-0.29236 
359 ,70.0688 ,1.44439 ,-0.04006 ,-0.39310 
360 ,70.2607 ,1.44643 ,-0.03664 ,-0.35952 
361 ,70.4850 ,1.44874 ,-0.07086 ,-0.69530 
362 ,70.7089 ,1.45081 ,-0.07771 ,-0.76246 
363 ,70.9009 ,1.45282 ,-0.09482 ,-0.93035 
364 ,71.1091 ,1.45490 ,-0.11535 ,-1.13182 
365 ,71.3013 ,1.45680 ,-0.09482 ,-0.93035 
366 ,71.4933 ,1.45872 ,-0.11535 ,-1.13182 
367 ,71.6855 ,1.46069 ,-0.13588 ,-1.33329 
368 ,71.8772 ,1.46258 ,-0.12904 ,-1.26613 
369 ,72.0696 ,1.46451 ,-0.14615 ,-1.43402 
370 ,72.2615 ,1.46640 ,-0.13931 ,-1.36687 
371 ,72.4536 ,1.46831 ,-0.16668 ,-1.63549 
372 ,72.6457 ,1.47027 ,-0.18379 ,-1.80338 
373 ,72.8380 ,1.47220 ,-0.17353 ,-1.70265 
374 ,73.0299 ,1.47410 ,-0.19748 ,-1.93770 
375 ,73.2379 ,1.47621 ,-0.20775 ,-2.03843 
376 ,73.4463 ,1.47837 ,-0.23513 ,-2.30706 
377 ,73.6542 ,1.48029 ,-0.22828 ,-2.23990 
378 ,73.8303 ,1.48219 ,-0.24197 ,-2.37422 
379 ,74.0220 ,1.48403 ,-0.22828 ,-2.23990 
380 ,74.2145 ,1.48596 ,-0.25224 ,-2.47495 
381 ,74.4066 ,1.48790 ,-0.27277 ,-2.67642 
382 ,74.5987 ,1.48980 ,-0.26935 ,-2.64284 
383 ,74.7747 ,1.49159 ,-0.27619 ,-2.71000 
384 ,74.9830 ,1.49366 ,-0.28304 ,-2.77716 
385 ,75.1748 ,1.49554 ,-0.30357 ,-2.97863 
386 ,75.3667 ,1.49743 ,-0.31726 ,-3.11294 
387 ,75.5592 ,1.49940 ,-0.31726 ,-3.11294 
388 ,75.7511 ,1.50136 ,-0.32752 ,-3.21367 
389 ,75.9431 ,1.50325 ,-0.33779 ,-3.31441 
390 ,76.1353 ,1.50519 ,-0.34121 ,-3.34799 
391 ,76.3272 ,1.50716 ,-0.35832 ,-3.51588 
392 ,76.5196 ,1.50896 ,-0.35490 ,-3.48230 
393 ,76.7277 ,1.51096 ,-0.36859 ,-3.61661 
394 ,76.9358 ,1.51315 ,-0.36859 ,-3.61661 
395 ,77.1277 ,1.51510 ,-0.40966 ,-4.01955 
396 ,77.3033 ,1.51692 ,-0.39255 ,-3.85166 
397 ,77.4958 ,1.51876 ,-0.40623 ,-3.98597 
398 ,77.6881 ,1.52073 ,-0.42677 ,-4.18744 
399 ,77.8801 ,1.52267 ,-0.43361 ,-4.25460 
400 ,78.0881 ,1.52472 ,-0.44388 ,-4.35534 
401 ,78.2801 ,1.52656 ,-0.44730 ,-4.38891 
402 ,78.4723 ,1.52848 ,-0.46441 ,-4.55681 
403 ,78.6804 ,1.53059 ,-0.46783 ,-4.59038 
404 ,78.8724 ,1.53253 ,-0.47468 ,-4.65754 
405 ,79.0641 ,1.53441 ,-0.49521 ,-4.85901 
406 ,79.2567 ,1.53631 ,-0.49179 ,-4.82543 
407 ,79.4482 ,1.53826 ,-0.51574 ,-5.06048 
408 ,79.6407 ,1.54020 ,-0.52259 ,-5.12764 
409 ,79.8326 ,1.54214 ,-0.52259 ,-5.12764 
410 ,80.0248 ,1.54405 ,-0.53970 ,-5.29553 
411 ,80.2169 ,1.54593 ,-0.53285 ,-5.22837 
412 ,80.4091 ,1.54784 ,-0.57734 ,-5.66489 
413 ,80.6011 ,1.54980 ,-0.55681 ,-5.46342 
414 ,80.7610 ,1.55157 ,-0.56708 ,-5.56415 
415 ,80.9692 ,1.55348 ,-0.58419 ,-5.73205 
416 ,81.1615 ,1.55534 ,-0.59103 ,-5.79920 
417 ,81.3537 ,1.55731 ,-0.59788 ,-5.86636 
418 ,81.5616 ,1.55941 ,-0.61156 ,-6.00067 
419 ,81.7694 ,1.56144 ,-0.62525 ,-6.13499 
420 ,81.9778 ,1.56355 ,-0.62868 ,-6.16856 
421 ,82.1698 ,1.56549 ,-0.64236 ,-6.30288 
422 ,82.3779 ,1.56751 ,-0.64579 ,-6.33646 
423 ,82.5859 ,1.56960 ,-0.66974 ,-6.57150 
424 ,82.7619 ,1.57146 ,-0.65605 ,-6.43719 
425 ,82.9540 ,1.57329 ,-0.67316 ,-6.60508 
426 ,83.1462 ,1.57524 ,-0.69027 ,-6.77297 
427 ,83.3542 ,1.57727 ,-0.68001 ,-6.67224 
428 ,83.5621 ,1.57929 ,-0.70739 ,-6.94086 
429 ,83.7700 ,1.58146 ,-0.72107 ,-7.07518 
430 ,83.9623 ,1.58343 ,-0.72450 ,-7.10876 
431 ,84.1703 ,1.58546 ,-0.72450 ,-7.10876 
432 ,84.3467 ,1.58725 ,-0.73818 ,-7.24307 
433 ,84.5547 ,1.58923 ,-0.73818 ,-7.24307 
434 ,84.7624 ,1.59129 ,-0.76556 ,-7.51170 
435 ,84.9708 ,1.59346 ,-0.76898 ,-7.54527 
436 ,85.1628 ,1.59541 ,-0.77583 ,-7.61243 
437 ,85.3554 ,1.59728 ,-0.77583 ,-7.61243 
438 ,85.5630 ,1.59936 ,-0.79294 ,-7.78032 
439 ,85.7552 ,1.60130 ,-0.78610 ,-7.71317 
440 ,85.9629 ,1.60336 ,-0.82374 ,-8.08253 
441 ,86.1553 ,1.60537 ,-0.80663 ,-7.91464 
442 ,86.3475 ,1.60722 ,-0.84085 ,-8.25042 
443 ,86.5554 ,1.60927 ,-0.83743 ,-8.21684 
444 ,86.7476 ,1.61121 ,-0.86138 ,-8.45189 
445 ,86.9397 ,1.61314 ,-0.84427 ,-8.28400 
446 ,87.1317 ,1.61503 ,-0.86138 ,-8.45189 
447 ,87.3235 ,1.61700 ,-0.87507 ,-8.58620 
448 ,87.5000 ,1.61881 ,-0.88876 ,-8.72051 
449 ,87.7080 ,1.62080 ,-0.88876 ,-8.72051 
450 ,87.9000 ,1.62276 ,-0.89903 ,-8.82125 
451 ,88.0918 ,1.62469 ,-0.88876 ,-8.72051 
452 ,88.2886 ,1.62662 ,-0.92983 ,-9.12345 
453 ,88.5242 ,1.62891 ,-0.93667 ,-9.19061 
454 ,88.7322 ,1.63109 ,-0.92640 ,-9.08988 
455 ,88.9083 ,1.63296 ,-0.96063 ,-9.42566 
456 ,89.0845 ,1.63462 ,-0.97089 ,-9.52639 
457 ,89.2927 ,1.63666 ,-0.94694 ,-9.29135 
458 ,89.4846 ,1.63858 ,-0.97774 ,-9.59355 
459 ,89.6767 ,1.64054 ,-0.97089 ,-9.52639 
460 ,89.8688 ,1.64239 ,-0.98800 ,-9.69429 
461 ,90.0609 ,1.64440 ,-0.99485 ,-9.76144 
462 ,90.2527 ,1.64627 ,-0.98458 ,-9.66071 
