Data stamp = , 28-04-2022 12:23:31 497

Calibration Values: 
Slope = , 26.54 , g/V 
Offset Voltage at no contact = , -0.501760 , V 

No , Time , Stage Position ,   Mass , Force 
   ,  (s) ,      (mm)      ,   (g)  , (mN)  

1 ,0.0000 ,0.74936 ,5.25061 ,51.51896 
2 ,0.2129 ,0.74945 ,5.27114 ,51.72043 
3 ,0.6774 ,0.75090 ,5.28141 ,51.82116 
4 ,0.8853 ,0.75297 ,5.27798 ,51.78758 
5 ,1.0775 ,0.75485 ,5.26430 ,51.65327 
6 ,1.2532 ,0.75666 ,5.28141 ,51.82116 
7 ,1.4453 ,0.75844 ,5.29510 ,51.95548 
8 ,1.6375 ,0.76045 ,5.25745 ,51.58611 
9 ,1.8298 ,0.76236 ,5.26430 ,51.65327 
10 ,2.0218 ,0.76430 ,5.24034 ,51.41822 
11 ,2.2301 ,0.76644 ,5.21981 ,51.21675 
12 ,2.4221 ,0.76832 ,5.19927 ,51.01528 
13 ,2.6303 ,0.77042 ,5.18216 ,50.84739 
14 ,2.8225 ,0.77233 ,5.16163 ,50.64592 
15 ,3.0304 ,0.77434 ,5.14452 ,50.47803 
16 ,3.2226 ,0.77631 ,5.12399 ,50.27656 
17 ,3.4141 ,0.77819 ,5.08634 ,49.90720 
18 ,3.5906 ,0.78004 ,5.08977 ,49.94078 
19 ,3.7988 ,0.78208 ,5.05554 ,49.60499 
20 ,3.9909 ,0.78398 ,5.04870 ,49.53784 
21 ,4.1989 ,0.78612 ,5.02132 ,49.26921 
22 ,4.3911 ,0.78793 ,5.00763 ,49.13490 
23 ,4.5830 ,0.78994 ,4.99394 ,49.00058 
24 ,4.7910 ,0.79195 ,4.96657 ,48.73196 
25 ,4.9672 ,0.79378 ,4.95288 ,48.59764 
26 ,5.1593 ,0.79567 ,4.92550 ,48.32902 
27 ,5.3515 ,0.79753 ,4.91523 ,48.22828 
28 ,5.5431 ,0.79959 ,4.88444 ,47.92608 
29 ,5.7356 ,0.80141 ,4.86732 ,47.75819 
30 ,5.9437 ,0.80357 ,4.85364 ,47.62387 
31 ,6.1358 ,0.80545 ,4.82284 ,47.32167 
32 ,6.3278 ,0.80733 ,4.81599 ,47.25451 
33 ,6.5039 ,0.80916 ,4.79204 ,47.01946 
34 ,6.6957 ,0.81107 ,4.78177 ,46.91873 
35 ,6.8880 ,0.81297 ,4.77493 ,46.85157 
36 ,7.0800 ,0.81488 ,4.73386 ,46.44863 
37 ,7.2559 ,0.81665 ,4.71333 ,46.24716 
38 ,7.4643 ,0.81867 ,4.69964 ,46.11285 
39 ,7.6720 ,0.82076 ,4.69279 ,46.04569 
40 ,7.8644 ,0.82273 ,4.68595 ,45.97854 
41 ,8.0564 ,0.82473 ,4.63119 ,45.44128 
42 ,8.2485 ,0.82655 ,4.63462 ,45.47486 
43 ,8.4407 ,0.82842 ,4.59013 ,45.03835 
44 ,8.6326 ,0.83041 ,4.57986 ,44.93761 
45 ,8.8247 ,0.83228 ,4.57986 ,44.93761 
46 ,9.0169 ,0.83420 ,4.54564 ,44.60183 
47 ,9.2249 ,0.83630 ,4.52853 ,44.43394 
48 ,9.4169 ,0.83823 ,4.51142 ,44.26604 
49 ,9.6250 ,0.84028 ,4.49431 ,44.09815 
50 ,9.8168 ,0.84223 ,4.46351 ,43.79595 
51 ,10.0253 ,0.84419 ,4.46351 ,43.79595 
52 ,10.2332 ,0.84642 ,4.43613 ,43.52732 
53 ,10.4094 ,0.84821 ,4.42586 ,43.42659 
54 ,10.6171 ,0.85022 ,4.38822 ,43.05723 
55 ,10.7932 ,0.85201 ,4.38822 ,43.05723 
56 ,10.9854 ,0.85388 ,4.37111 ,42.88933 
57 ,11.1615 ,0.85570 ,4.34373 ,42.62071 
58 ,11.3539 ,0.85761 ,4.32320 ,42.41924 
59 ,11.5619 ,0.85964 ,4.29924 ,42.18419 
60 ,11.7379 ,0.86158 ,4.28898 ,42.08345 
61 ,11.9140 ,0.86324 ,4.27529 ,41.94914 
62 ,12.1058 ,0.86504 ,4.27871 ,41.98272 
63 ,12.2983 ,0.86707 ,4.24791 ,41.68051 
64 ,12.4898 ,0.86894 ,4.23422 ,41.54620 
65 ,12.6824 ,0.87080 ,4.21027 ,41.31115 
66 ,12.8905 ,0.87290 ,4.20000 ,41.21042 
67 ,13.0821 ,0.87484 ,4.16578 ,40.87464 
68 ,13.2745 ,0.87678 ,4.14867 ,40.70674 
69 ,13.4667 ,0.87866 ,4.14867 ,40.70674 
70 ,13.6588 ,0.88063 ,4.11445 ,40.37096 
71 ,13.8668 ,0.88270 ,4.11787 ,40.40454 
72 ,14.0587 ,0.88462 ,4.06996 ,39.93444 
73 ,14.2668 ,0.88666 ,4.06654 ,39.90087 
74 ,14.4591 ,0.88864 ,4.03916 ,39.63224 
75 ,14.6511 ,0.89055 ,4.02889 ,39.53150 
76 ,14.8432 ,0.89245 ,4.00836 ,39.33003 
77 ,15.0353 ,0.89449 ,3.98783 ,39.12856 
78 ,15.2270 ,0.89627 ,3.98098 ,39.06141 
79 ,15.4197 ,0.89823 ,3.95361 ,38.79278 
80 ,15.6276 ,0.90027 ,3.93992 ,38.65847 
81 ,15.8193 ,0.90223 ,3.91938 ,38.45700 
82 ,16.0118 ,0.90417 ,3.90227 ,38.28911 
83 ,16.1887 ,0.90605 ,3.88858 ,38.15479 
84 ,16.3794 ,0.90794 ,3.85436 ,37.81901 
85 ,16.5559 ,0.90965 ,3.84410 ,37.71828 
86 ,16.7641 ,0.91164 ,3.84752 ,37.75185 
87 ,16.9561 ,0.91360 ,3.81330 ,37.41607 
88 ,17.1478 ,0.91549 ,3.80303 ,37.31534 
89 ,17.3403 ,0.91743 ,3.77223 ,37.01313 
90 ,17.5319 ,0.91946 ,3.76539 ,36.94597 
91 ,17.7405 ,0.92132 ,3.74485 ,36.74450 
92 ,17.9326 ,0.92339 ,3.72774 ,36.57661 
93 ,18.1407 ,0.92537 ,3.69694 ,36.27441 
94 ,18.3486 ,0.92752 ,3.69352 ,36.24083 
95 ,18.5403 ,0.92945 ,3.66957 ,36.00578 
96 ,18.7329 ,0.93136 ,3.64561 ,35.77073 
97 ,18.9409 ,0.93343 ,3.63192 ,35.63642 
98 ,19.1331 ,0.93536 ,3.61139 ,35.43495 
99 ,19.3411 ,0.93731 ,3.60797 ,35.40137 
100 ,19.5489 ,0.93945 ,3.58743 ,35.19990 
101 ,19.7413 ,0.94145 ,3.56348 ,34.96485 
102 ,19.9332 ,0.94339 ,3.52926 ,34.62907 
103 ,20.1254 ,0.94527 ,3.53610 ,34.69623 
104 ,20.3336 ,0.94732 ,3.50872 ,34.42760 
105 ,20.5253 ,0.94925 ,3.49504 ,34.29329 
106 ,20.7012 ,0.95114 ,3.45739 ,33.92393 
107 ,20.8937 ,0.95292 ,3.45397 ,33.89035 
108 ,21.1019 ,0.95503 ,3.43001 ,33.65530 
109 ,21.3098 ,0.95703 ,3.41290 ,33.48741 
110 ,21.5181 ,0.95916 ,3.38895 ,33.25236 
111 ,21.7100 ,0.96113 ,3.38210 ,33.18520 
112 ,21.9022 ,0.96307 ,3.36842 ,33.05089 
113 ,22.1101 ,0.96506 ,3.35473 ,32.91658 
114 ,22.3341 ,0.96723 ,3.32051 ,32.58080 
115 ,22.5262 ,0.96929 ,3.31366 ,32.51364 
116 ,22.7345 ,0.97133 ,3.29655 ,32.34575 
117 ,22.9265 ,0.97322 ,3.28628 ,32.24501 
118 ,23.1188 ,0.97521 ,3.24522 ,31.84207 
119 ,23.3107 ,0.97713 ,3.23837 ,31.77492 
120 ,23.5028 ,0.97904 ,3.23153 ,31.70776 
121 ,23.6949 ,0.98091 ,3.20415 ,31.43913 
122 ,23.9027 ,0.98300 ,3.18362 ,31.23766 
123 ,24.1112 ,0.98499 ,3.15966 ,31.00262 
124 ,24.3190 ,0.98717 ,3.14597 ,30.86830 
125 ,24.5113 ,0.98910 ,3.14597 ,30.86830 
126 ,24.7034 ,0.99105 ,3.11175 ,30.53252 
127 ,24.9115 ,0.99300 ,3.08095 ,30.23031 
128 ,25.1196 ,0.99515 ,3.06726 ,30.09600 
129 ,25.3273 ,0.99725 ,3.06726 ,30.09600 
130 ,25.5196 ,0.99917 ,3.03647 ,29.79380 
131 ,25.7119 ,1.00109 ,3.03304 ,29.76022 
132 ,25.9039 ,1.00305 ,3.01593 ,29.59233 
133 ,26.0955 ,1.00498 ,2.98855 ,29.32370 
134 ,26.3040 ,1.00707 ,2.97829 ,29.22297 
135 ,26.5120 ,1.00915 ,2.95091 ,28.95434 
136 ,26.7042 ,1.01102 ,2.94064 ,28.85360 
137 ,26.9122 ,1.01310 ,2.93038 ,28.75287 
138 ,27.1043 ,1.01501 ,2.89616 ,28.41709 
139 ,27.3125 ,1.01713 ,2.87220 ,28.18204 
140 ,27.5205 ,1.01915 ,2.86536 ,28.11488 
141 ,27.7127 ,1.02112 ,2.84482 ,27.91341 
142 ,27.9208 ,1.02319 ,2.82429 ,27.71194 
143 ,28.1130 ,1.02508 ,2.81402 ,27.61121 
144 ,28.3049 ,1.02699 ,2.81060 ,27.57763 
145 ,28.4966 ,1.02899 ,2.77638 ,27.24185 
146 ,28.6725 ,1.03083 ,2.75927 ,27.07395 
147 ,28.8327 ,1.03246 ,2.75927 ,27.07395 
148 ,29.0409 ,1.03428 ,2.75243 ,27.00680 
149 ,29.2493 ,1.03644 ,2.73189 ,26.80533 
150 ,29.4410 ,1.03838 ,2.69425 ,26.43597 
151 ,29.6334 ,1.04033 ,2.68740 ,26.36881 
152 ,29.8252 ,1.04224 ,2.67714 ,26.26807 
153 ,30.0177 ,1.04416 ,2.65318 ,26.03303 
154 ,30.2092 ,1.04610 ,2.64634 ,25.96587 
155 ,30.3852 ,1.04790 ,2.63607 ,25.86514 
156 ,30.5935 ,1.04979 ,2.61212 ,25.63009 
157 ,30.8019 ,1.05201 ,2.57447 ,25.26073 
158 ,30.9938 ,1.05392 ,2.56421 ,25.15999 
159 ,31.1856 ,1.05581 ,2.55736 ,25.09283 
160 ,31.3777 ,1.05772 ,2.53341 ,24.85779 
161 ,31.5701 ,1.05966 ,2.53341 ,24.85779 
162 ,31.7619 ,1.06154 ,2.50945 ,24.62274 
163 ,31.9544 ,1.06355 ,2.48550 ,24.38769 
164 ,32.1458 ,1.06553 ,2.47181 ,24.25338 
165 ,32.3379 ,1.06734 ,2.45470 ,24.08549 
166 ,32.5300 ,1.06926 ,2.45470 ,24.08549 
167 ,32.7386 ,1.07122 ,2.42732 ,23.81686 
168 ,32.9467 ,1.07339 ,2.41705 ,23.71612 
169 ,33.1388 ,1.07540 ,2.38625 ,23.41392 
170 ,33.3309 ,1.07721 ,2.39652 ,23.51465 
171 ,33.5231 ,1.07917 ,2.36914 ,23.24603 
172 ,33.7311 ,1.08127 ,2.34519 ,23.01098 
173 ,33.9234 ,1.08317 ,2.33834 ,22.94382 
174 ,34.1152 ,1.08512 ,2.31097 ,22.67520 
175 ,34.3235 ,1.08713 ,2.30754 ,22.64162 
176 ,34.5313 ,1.08930 ,2.29385 ,22.50731 
177 ,34.7231 ,1.09116 ,2.27332 ,22.30584 
178 ,34.9153 ,1.09312 ,2.24594 ,22.03721 
179 ,35.1076 ,1.09500 ,2.24594 ,22.03721 
180 ,35.2997 ,1.09694 ,2.21172 ,21.70143 
181 ,35.5078 ,1.09900 ,2.21515 ,21.73500 
182 ,35.6998 ,1.10092 ,2.18092 ,21.39922 
183 ,35.8918 ,1.10283 ,2.19803 ,21.56711 
184 ,36.0839 ,1.10474 ,2.15355 ,21.13059 
185 ,36.2601 ,1.10665 ,2.14328 ,21.02986 
186 ,36.4681 ,1.10860 ,2.12959 ,20.89555 
187 ,36.6603 ,1.11056 ,2.10564 ,20.66050 
188 ,36.8681 ,1.11258 ,2.10906 ,20.69408 
189 ,37.0604 ,1.11459 ,2.07826 ,20.39187 
190 ,37.2525 ,1.11659 ,2.07141 ,20.32472 
191 ,37.4445 ,1.11835 ,2.05430 ,20.15682 
192 ,37.6366 ,1.12025 ,2.05430 ,20.15682 
193 ,37.8123 ,1.12219 ,2.04061 ,20.02251 
194 ,37.9884 ,1.12395 ,2.02350 ,19.85462 
195 ,38.1808 ,1.12576 ,1.99613 ,19.58599 
196 ,38.3729 ,1.12783 ,2.00297 ,19.65315 
197 ,38.5649 ,1.12955 ,1.97217 ,19.35094 
198 ,38.7569 ,1.13147 ,1.95848 ,19.21663 
199 ,38.9491 ,1.13340 ,1.95164 ,19.14948 
200 ,39.1412 ,1.13533 ,1.91742 ,18.81369 
201 ,39.3172 ,1.13716 ,1.92768 ,18.91443 
202 ,39.5094 ,1.13902 ,1.91057 ,18.74654 
203 ,39.7014 ,1.14097 ,1.89004 ,18.54507 
204 ,39.8936 ,1.14286 ,1.89004 ,18.54507 
205 ,40.1017 ,1.14494 ,1.86266 ,18.27644 
206 ,40.2934 ,1.14688 ,1.86266 ,18.27644 
207 ,40.5018 ,1.14899 ,1.82502 ,17.90708 
208 ,40.6936 ,1.15089 ,1.83186 ,17.97423 
209 ,40.8699 ,1.15271 ,1.81817 ,17.83992 
210 ,41.0779 ,1.15465 ,1.80791 ,17.73919 
211 ,41.2536 ,1.15654 ,1.80106 ,17.67203 
212 ,41.4461 ,1.15839 ,1.77711 ,17.43698 
213 ,41.6543 ,1.16051 ,1.76342 ,17.30267 
214 ,41.8461 ,1.16240 ,1.73262 ,17.00046 
215 ,42.0384 ,1.16430 ,1.72235 ,16.89973 
216 ,42.2306 ,1.16626 ,1.71893 ,16.86615 
217 ,42.4230 ,1.16819 ,1.68813 ,16.56395 
218 ,42.6146 ,1.17016 ,1.69840 ,16.66468 
219 ,42.8067 ,1.17192 ,1.66075 ,16.29532 
220 ,42.9987 ,1.17390 ,1.64707 ,16.16101 
221 ,43.1748 ,1.17577 ,1.64707 ,16.16101 
222 ,43.3827 ,1.17775 ,1.62995 ,15.99311 
223 ,43.5750 ,1.17970 ,1.62653 ,15.95954 
224 ,43.7831 ,1.18177 ,1.58547 ,15.55660 
225 ,43.9913 ,1.18383 ,1.59916 ,15.69091 
226 ,44.1832 ,1.18577 ,1.55467 ,15.25439 
227 ,44.3753 ,1.18765 ,1.56836 ,15.38871 
228 ,44.5674 ,1.18957 ,1.54782 ,15.18724 
229 ,44.7753 ,1.19165 ,1.53756 ,15.08650 
230 ,44.9676 ,1.19364 ,1.52045 ,14.91861 
231 ,45.1598 ,1.19553 ,1.48280 ,14.54925 
232 ,45.3518 ,1.19746 ,1.50333 ,14.75072 
233 ,45.5596 ,1.19950 ,1.46911 ,14.41493 
234 ,45.7520 ,1.20148 ,1.46569 ,14.38136 
235 ,45.9601 ,1.20349 ,1.44516 ,14.17989 
236 ,46.1521 ,1.20547 ,1.44858 ,14.21346 
237 ,46.3442 ,1.20750 ,1.42805 ,14.01199 
238 ,46.5362 ,1.20931 ,1.40751 ,13.81053 
239 ,46.7283 ,1.21114 ,1.38356 ,13.57548 
240 ,46.9205 ,1.21307 ,1.38356 ,13.57548 
241 ,47.1125 ,1.21503 ,1.36987 ,13.44116 
242 ,47.3045 ,1.21690 ,1.33907 ,13.13896 
243 ,47.5127 ,1.21904 ,1.34934 ,13.23969 
244 ,47.7047 ,1.22095 ,1.33223 ,13.07180 
245 ,47.8968 ,1.22287 ,1.31169 ,12.87033 
246 ,48.0889 ,1.22477 ,1.29116 ,12.66886 
247 ,48.2970 ,1.22688 ,1.28089 ,12.56813 
248 ,48.4890 ,1.22878 ,1.26720 ,12.43381 
249 ,48.6971 ,1.23083 ,1.27405 ,12.50097 
250 ,48.8729 ,1.23276 ,1.24325 ,12.19877 
251 ,49.0653 ,1.23461 ,1.21929 ,11.96372 
252 ,49.2572 ,1.23643 ,1.22956 ,12.06445 
253 ,49.4335 ,1.23834 ,1.18850 ,11.66151 
254 ,49.6416 ,1.24034 ,1.20218 ,11.79583 
255 ,49.8497 ,1.24242 ,1.17823 ,11.56078 
256 ,50.0415 ,1.24437 ,1.16454 ,11.42647 
257 ,50.2333 ,1.24633 ,1.15085 ,11.29215 
258 ,50.4257 ,1.24811 ,1.12690 ,11.05710 
259 ,50.6180 ,1.25006 ,1.14058 ,11.19142 
260 ,50.8259 ,1.25211 ,1.10979 ,10.88921 
261 ,51.0016 ,1.25401 ,1.10636 ,10.85563 
262 ,51.1941 ,1.25582 ,1.08241 ,10.62059 
263 ,51.3859 ,1.25786 ,1.06872 ,10.48627 
264 ,51.5624 ,1.25956 ,1.05503 ,10.35196 
265 ,51.7703 ,1.26153 ,1.03450 ,10.15049 
266 ,51.9625 ,1.26350 ,1.03108 ,10.11691 
267 ,52.1704 ,1.26561 ,1.02765 ,10.08333 
268 ,52.3784 ,1.26762 ,1.02765 ,10.08333 
269 ,52.5547 ,1.26953 ,0.99001 ,9.71397 
270 ,52.7467 ,1.27138 ,0.97632 ,9.57966 
271 ,52.9228 ,1.27320 ,0.99001 ,9.71397 
272 ,53.1305 ,1.27508 ,0.96948 ,9.51250 
273 ,53.3388 ,1.27718 ,0.94894 ,9.31103 
274 ,53.5468 ,1.27936 ,0.93183 ,9.14314 
275 ,53.7389 ,1.28124 ,0.93525 ,9.17672 
276 ,53.9472 ,1.28336 ,0.89761 ,8.80736 
277 ,54.1393 ,1.28526 ,0.90103 ,8.84094 
278 ,54.3314 ,1.28730 ,0.88050 ,8.63947 
279 ,54.5232 ,1.28915 ,0.86339 ,8.47158 
280 ,54.6997 ,1.29094 ,0.86339 ,8.47158 
281 ,54.9074 ,1.29293 ,0.83601 ,8.20295 
282 ,55.0998 ,1.29482 ,0.84970 ,8.33726 
283 ,55.2914 ,1.29685 ,0.82232 ,8.06864 
284 ,55.4840 ,1.29874 ,0.81548 ,8.00148 
285 ,55.6757 ,1.30075 ,0.79495 ,7.80001 
286 ,55.8681 ,1.30252 ,0.77441 ,7.59854 
287 ,56.0760 ,1.30469 ,0.78468 ,7.69927 
288 ,56.2843 ,1.30676 ,0.75730 ,7.43065 
289 ,56.4762 ,1.30859 ,0.75046 ,7.36349 
290 ,56.6685 ,1.31050 ,0.72992 ,7.16202 
291 ,56.8607 ,1.31247 ,0.73335 ,7.19560 
292 ,57.0366 ,1.31435 ,0.70939 ,6.96055 
293 ,57.2446 ,1.31629 ,0.69570 ,6.82624 
294 ,57.4366 ,1.31820 ,0.69570 ,6.82624 
295 ,57.6289 ,1.32018 ,0.67175 ,6.59119 
296 ,57.8369 ,1.32222 ,0.66490 ,6.52403 
297 ,58.0292 ,1.32418 ,0.64779 ,6.35614 
298 ,58.2531 ,1.32643 ,0.63410 ,6.22183 
299 ,58.4452 ,1.32829 ,0.63410 ,6.22183 
300 ,58.6208 ,1.33018 ,0.62042 ,6.08752 
301 ,58.8133 ,1.33200 ,0.59988 ,5.88605 
302 ,58.9894 ,1.33384 ,0.59988 ,5.88605 
303 ,59.1814 ,1.33563 ,0.59304 ,5.81889 
304 ,59.3736 ,1.33760 ,0.56908 ,5.58384 
305 ,59.5816 ,1.33968 ,0.57251 ,5.61742 
306 ,59.7576 ,1.34142 ,0.55197 ,5.41595 
307 ,59.9496 ,1.34336 ,0.52459 ,5.14732 
308 ,60.1419 ,1.34525 ,0.53486 ,5.24806 
309 ,60.3340 ,1.34725 ,0.51775 ,5.08017 
310 ,60.5262 ,1.34908 ,0.50406 ,4.94585 
311 ,60.7179 ,1.35102 ,0.49380 ,4.84512 
312 ,60.9102 ,1.35293 ,0.47326 ,4.64365 
313 ,61.1020 ,1.35484 ,0.47326 ,4.64365 
314 ,61.2623 ,1.35662 ,0.47668 ,4.67723 
315 ,61.4542 ,1.35840 ,0.43562 ,4.27429 
316 ,61.6625 ,1.36044 ,0.43562 ,4.27429 
317 ,61.8703 ,1.36257 ,0.42193 ,4.13997 
318 ,62.0627 ,1.36445 ,0.43562 ,4.27429 
319 ,62.2545 ,1.36640 ,0.40482 ,3.97208 
320 ,62.4469 ,1.36830 ,0.40140 ,3.93850 
321 ,62.6552 ,1.37037 ,0.37402 ,3.66988 
322 ,62.8310 ,1.37227 ,0.37744 ,3.70346 
323 ,63.0227 ,1.37404 ,0.36718 ,3.60272 
324 ,63.2151 ,1.37603 ,0.35006 ,3.43483 
325 ,63.4071 ,1.37786 ,0.34322 ,3.36767 
326 ,63.5992 ,1.37980 ,0.33980 ,3.33410 
327 ,63.7910 ,1.38172 ,0.31242 ,3.06547 
328 ,63.9831 ,1.38364 ,0.32269 ,3.16620 
329 ,64.1917 ,1.38564 ,0.30558 ,2.99831 
330 ,64.4154 ,1.38806 ,0.28162 ,2.76326 
331 ,64.6239 ,1.39006 ,0.27820 ,2.72969 
332 ,64.8155 ,1.39200 ,0.25767 ,2.52822 
333 ,64.9918 ,1.39382 ,0.25767 ,2.52822 
334 ,65.1838 ,1.39565 ,0.24740 ,2.42748 
335 ,65.3758 ,1.39764 ,0.22687 ,2.22601 
336 ,65.5522 ,1.39940 ,0.21318 ,2.09170 
337 ,65.7443 ,1.40128 ,0.22344 ,2.19243 
338 ,65.9524 ,1.40338 ,0.19264 ,1.89023 
339 ,66.1440 ,1.40524 ,0.19264 ,1.89023 
340 ,66.3521 ,1.40733 ,0.16869 ,1.65518 
341 ,66.5441 ,1.40928 ,0.16527 ,1.62160 
342 ,66.7362 ,1.41119 ,0.16527 ,1.62160 
343 ,66.9283 ,1.41314 ,0.13105 ,1.28582 
344 ,67.1208 ,1.41502 ,0.14473 ,1.42013 
345 ,67.3288 ,1.41707 ,0.11051 ,1.08435 
346 ,67.5049 ,1.41893 ,0.11393 ,1.11793 
347 ,67.7129 ,1.42099 ,0.09682 ,0.95004 
348 ,67.8889 ,1.42281 ,0.07971 ,0.78214 
349 ,68.0651 ,1.42459 ,0.08314 ,0.81572 
350 ,68.2571 ,1.42638 ,0.06260 ,0.61425 
351 ,68.4653 ,1.42843 ,0.06945 ,0.68141 
352 ,68.6570 ,1.43042 ,0.05576 ,0.54710 
353 ,68.8334 ,1.43228 ,0.05234 ,0.51352 
354 ,69.0095 ,1.43400 ,0.02838 ,0.27847 
355 ,69.2176 ,1.43600 ,0.01127 ,0.11058 
356 ,69.4093 ,1.43794 ,0.01127 ,0.11058 
357 ,69.6177 ,1.43992 ,0.01469 ,0.14416 
358 ,69.8259 ,1.44206 ,0.00443 ,0.04342 
359 ,70.0177 ,1.44397 ,-0.03664 ,-0.35952 
360 ,70.2100 ,1.44585 ,-0.02980 ,-0.29236 
361 ,70.4340 ,1.44818 ,-0.04691 ,-0.46025 
362 ,70.6421 ,1.45022 ,-0.05033 ,-0.49383 
363 ,70.8343 ,1.45216 ,-0.07771 ,-0.76246 
364 ,71.0259 ,1.45403 ,-0.06402 ,-0.62814 
365 ,71.2184 ,1.45603 ,-0.08797 ,-0.86319 
366 ,71.4105 ,1.45788 ,-0.08797 ,-0.86319 
367 ,71.6023 ,1.45984 ,-0.09482 ,-0.93035 
368 ,71.7947 ,1.46172 ,-0.12562 ,-1.23255 
369 ,71.9862 ,1.46379 ,-0.12562 ,-1.23255 
370 ,72.1628 ,1.46550 ,-0.12904 ,-1.26613 
371 ,72.3551 ,1.46737 ,-0.15299 ,-1.50118 
372 ,72.5629 ,1.46951 ,-0.14615 ,-1.43402 
373 ,72.7545 ,1.47142 ,-0.16326 ,-1.60191 
374 ,72.9470 ,1.47327 ,-0.16326 ,-1.60191 
375 ,73.1387 ,1.47518 ,-0.18037 ,-1.76981 
376 ,73.3313 ,1.47709 ,-0.18722 ,-1.83696 
377 ,73.5235 ,1.47901 ,-0.19406 ,-1.90412 
378 ,73.7317 ,1.48111 ,-0.21117 ,-2.07201 
379 ,73.9396 ,1.48321 ,-0.21459 ,-2.10559 
380 ,74.1474 ,1.48529 ,-0.23170 ,-2.27348 
381 ,74.3557 ,1.48733 ,-0.24881 ,-2.44137 
382 ,74.5478 ,1.48924 ,-0.23855 ,-2.34064 
383 ,74.7558 ,1.49131 ,-0.25908 ,-2.54211 
384 ,74.9315 ,1.49321 ,-0.25908 ,-2.54211 
385 ,75.1242 ,1.49503 ,-0.26935 ,-2.64284 
386 ,75.3161 ,1.49691 ,-0.30015 ,-2.94505 
387 ,75.5082 ,1.49883 ,-0.28646 ,-2.81073 
388 ,75.7163 ,1.50099 ,-0.31726 ,-3.11294 
389 ,75.9084 ,1.50287 ,-0.31384 ,-3.07936 
390 ,76.1005 ,1.50475 ,-0.31726 ,-3.11294 
391 ,76.2926 ,1.50673 ,-0.34464 ,-3.38156 
392 ,76.4847 ,1.50863 ,-0.33779 ,-3.31441 
393 ,76.6927 ,1.51071 ,-0.35832 ,-3.51588 
394 ,76.8688 ,1.51251 ,-0.36859 ,-3.61661 
395 ,77.0766 ,1.51459 ,-0.38912 ,-3.81808 
396 ,77.2689 ,1.51653 ,-0.39255 ,-3.85166 
397 ,77.4767 ,1.51855 ,-0.40281 ,-3.95240 
398 ,77.6531 ,1.52036 ,-0.41308 ,-4.05313 
399 ,77.8451 ,1.52221 ,-0.40281 ,-3.95240 
400 ,78.0373 ,1.52412 ,-0.43361 ,-4.25460 
401 ,78.2613 ,1.52627 ,-0.42677 ,-4.18744 
402 ,78.4694 ,1.52850 ,-0.43703 ,-4.28818 
403 ,78.6614 ,1.53042 ,-0.45414 ,-4.45607 
404 ,78.8697 ,1.53239 ,-0.46783 ,-4.59038 
405 ,79.0617 ,1.53438 ,-0.47468 ,-4.65754 
406 ,79.2216 ,1.53616 ,-0.48837 ,-4.79185 
407 ,79.4139 ,1.53794 ,-0.49521 ,-4.85901 
408 ,79.6057 ,1.53982 ,-0.49179 ,-4.82543 
409 ,79.7981 ,1.54182 ,-0.50548 ,-4.95975 
410 ,80.0057 ,1.54381 ,-0.50890 ,-4.99332 
411 ,80.1982 ,1.54572 ,-0.53970 ,-5.29553 
412 ,80.3897 ,1.54781 ,-0.53285 ,-5.22837 
413 ,80.5661 ,1.54945 ,-0.53628 ,-5.26195 
414 ,80.7582 ,1.55131 ,-0.54997 ,-5.39626 
415 ,80.9506 ,1.55333 ,-0.56365 ,-5.53058 
416 ,81.1423 ,1.55521 ,-0.55681 ,-5.46342 
417 ,81.3347 ,1.55709 ,-0.59103 ,-5.79920 
418 ,81.5266 ,1.55902 ,-0.59445 ,-5.83278 
419 ,81.7187 ,1.56094 ,-0.59788 ,-5.86636 
420 ,81.9108 ,1.56282 ,-0.60130 ,-5.89994 
421 ,82.1030 ,1.56488 ,-0.61156 ,-6.00067 
422 ,82.2946 ,1.56671 ,-0.62525 ,-6.13499 
423 ,82.4711 ,1.56852 ,-0.64921 ,-6.37003 
424 ,82.6631 ,1.57041 ,-0.63552 ,-6.23572 
425 ,82.8553 ,1.57243 ,-0.65605 ,-6.43719 
426 ,83.0473 ,1.57422 ,-0.65947 ,-6.47077 
427 ,83.2394 ,1.57619 ,-0.67659 ,-6.63866 
428 ,83.4157 ,1.57801 ,-0.67316 ,-6.60508 
429 ,83.5910 ,1.57979 ,-0.68343 ,-6.70582 
430 ,83.7837 ,1.58159 ,-0.67316 ,-6.60508 
431 ,83.9914 ,1.58371 ,-0.70739 ,-6.94086 
432 ,84.1836 ,1.58563 ,-0.71423 ,-7.00802 
433 ,84.3919 ,1.58766 ,-0.71765 ,-7.04160 
434 ,84.5839 ,1.58967 ,-0.72450 ,-7.10876 
435 ,84.7597 ,1.59140 ,-0.74503 ,-7.31023 
436 ,84.9521 ,1.59333 ,-0.76898 ,-7.54527 
437 ,85.1442 ,1.59524 ,-0.76214 ,-7.47812 
438 ,85.3523 ,1.59723 ,-0.77925 ,-7.64601 
439 ,85.5445 ,1.59923 ,-0.77241 ,-7.57885 
440 ,85.7360 ,1.60117 ,-0.78952 ,-7.74674 
441 ,85.9286 ,1.60309 ,-0.79636 ,-7.81390 
442 ,86.1208 ,1.60499 ,-0.80321 ,-7.88106 
443 ,86.3287 ,1.60704 ,-0.81005 ,-7.94821 
444 ,86.5365 ,1.60903 ,-0.81689 ,-8.01537 
445 ,86.7609 ,1.61124 ,-0.82716 ,-8.11611 
446 ,86.9527 ,1.61325 ,-0.85796 ,-8.41831 
447 ,87.1611 ,1.61525 ,-0.84769 ,-8.31758 
448 ,87.3532 ,1.61730 ,-0.86823 ,-8.51904 
449 ,87.5452 ,1.61920 ,-0.84427 ,-8.28400 
450 ,87.7533 ,1.62130 ,-0.88192 ,-8.65336 
451 ,87.9450 ,1.62315 ,-0.87849 ,-8.61978 
452 ,88.1375 ,1.62510 ,-0.89560 ,-8.78767 
453 ,88.3612 ,1.62724 ,-0.89560 ,-8.78767 
454 ,88.5533 ,1.62924 ,-0.91956 ,-9.02272 
455 ,88.7453 ,1.63117 ,-0.90245 ,-8.85483 
456 ,88.9377 ,1.63313 ,-0.93667 ,-9.19061 
457 ,89.1299 ,1.63504 ,-0.94351 ,-9.25777 
458 ,89.3221 ,1.63700 ,-0.94009 ,-9.22419 
459 ,89.5140 ,1.63891 ,-0.95720 ,-9.39208 
460 ,89.7062 ,1.64076 ,-0.95378 ,-9.35850 
461 ,89.8981 ,1.64269 ,-0.97431 ,-9.55997 
462 ,90.0901 ,1.64459 ,-0.97431 ,-9.55997 
463 ,90.2824 ,1.64659 ,-0.97774 ,-9.59355 
