Data stamp = , 29-04-2022 03:53:50 975

Calibration Values: 
Slope = , 26.54 , g/V 
Offset Voltage at no contact = , -0.501760 , V 

No , Time , Stage Position ,   Mass , Force 
   ,  (s) ,      (mm)      ,   (g)  , (mN)  

1 ,0.0000 ,0.74942 ,5.27798 ,51.78758 
2 ,0.2867 ,0.74961 ,5.27114 ,51.72043 
3 ,0.6229 ,0.75082 ,5.27798 ,51.78758 
4 ,0.8151 ,0.75249 ,5.29167 ,51.92190 
5 ,1.0233 ,0.75436 ,5.27456 ,51.75401 
6 ,1.2314 ,0.75644 ,5.27456 ,51.75401 
7 ,1.4236 ,0.75828 ,5.27798 ,51.78758 
8 ,1.6156 ,0.76032 ,5.29167 ,51.92190 
9 ,1.8076 ,0.76219 ,5.25403 ,51.55254 
10 ,1.9995 ,0.76415 ,5.25403 ,51.55254 
11 ,2.2076 ,0.76622 ,5.24034 ,51.41822 
12 ,2.4320 ,0.76837 ,5.22665 ,51.28391 
13 ,2.6241 ,0.77039 ,5.18216 ,50.84739 
14 ,2.8162 ,0.77233 ,5.19585 ,50.98170 
15 ,3.0081 ,0.77418 ,5.15479 ,50.57876 
16 ,3.2161 ,0.77628 ,5.14452 ,50.47803 
17 ,3.4082 ,0.77822 ,5.11714 ,50.20940 
18 ,3.6325 ,0.78040 ,5.11714 ,50.20940 
19 ,3.8244 ,0.78243 ,5.08292 ,49.87362 
20 ,4.0162 ,0.78437 ,5.06923 ,49.73931 
21 ,4.2085 ,0.78623 ,5.03501 ,49.40352 
22 ,4.4167 ,0.78832 ,5.04528 ,49.50426 
23 ,4.6090 ,0.79020 ,4.99737 ,49.03416 
24 ,4.8011 ,0.79221 ,4.98026 ,48.86627 
25 ,5.0091 ,0.79430 ,4.95630 ,48.63122 
26 ,5.2013 ,0.79619 ,4.94946 ,48.56407 
27 ,5.3933 ,0.79814 ,4.94261 ,48.49691 
28 ,5.6014 ,0.80013 ,4.91181 ,48.19471 
29 ,5.8093 ,0.80215 ,4.89470 ,48.02681 
30 ,6.0170 ,0.80431 ,4.88101 ,47.89250 
31 ,6.2092 ,0.80622 ,4.83310 ,47.42240 
32 ,6.4018 ,0.80821 ,4.83310 ,47.42240 
33 ,6.6096 ,0.81020 ,4.80915 ,47.18736 
34 ,6.8018 ,0.81211 ,4.79204 ,47.01946 
35 ,6.9939 ,0.81410 ,4.76466 ,46.75084 
36 ,7.1860 ,0.81598 ,4.75097 ,46.61653 
37 ,7.3778 ,0.81791 ,4.73728 ,46.48221 
38 ,7.5703 ,0.81980 ,4.70306 ,46.14643 
39 ,7.7779 ,0.82194 ,4.69964 ,46.11285 
40 ,7.9703 ,0.82381 ,4.66199 ,45.74349 
41 ,8.1622 ,0.82575 ,4.65173 ,45.64275 
42 ,8.3540 ,0.82764 ,4.65173 ,45.64275 
43 ,8.5464 ,0.82966 ,4.61408 ,45.27339 
44 ,8.7547 ,0.83170 ,4.60040 ,45.13908 
45 ,8.9463 ,0.83369 ,4.57644 ,44.90403 
46 ,9.1224 ,0.83547 ,4.57302 ,44.87045 
47 ,9.3146 ,0.83725 ,4.55933 ,44.73614 
48 ,9.5066 ,0.83920 ,4.52511 ,44.40036 
49 ,9.7309 ,0.84145 ,4.50115 ,44.16531 
50 ,9.9391 ,0.84349 ,4.50115 ,44.16531 
51 ,10.1309 ,0.84548 ,4.47035 ,43.86310 
52 ,10.3232 ,0.84738 ,4.44298 ,43.59448 
53 ,10.5310 ,0.84948 ,4.42586 ,43.42659 
54 ,10.7233 ,0.85137 ,4.41560 ,43.32585 
55 ,10.9313 ,0.85346 ,4.40191 ,43.19154 
56 ,11.1236 ,0.85537 ,4.37453 ,42.92291 
57 ,11.3315 ,0.85741 ,4.36084 ,42.78860 
58 ,11.5235 ,0.85933 ,4.35058 ,42.68786 
59 ,11.7154 ,0.86142 ,4.32662 ,42.45282 
60 ,11.9076 ,0.86321 ,4.30267 ,42.21777 
61 ,12.1159 ,0.86531 ,4.29240 ,42.11703 
62 ,12.3077 ,0.86717 ,4.26160 ,41.81483 
63 ,12.5002 ,0.86913 ,4.25476 ,41.74767 
64 ,12.6920 ,0.87106 ,4.23080 ,41.51262 
65 ,12.8843 ,0.87297 ,4.21369 ,41.34473 
66 ,13.0762 ,0.87488 ,4.21027 ,41.31115 
67 ,13.2843 ,0.87695 ,4.17947 ,41.00895 
68 ,13.4764 ,0.87891 ,4.16920 ,40.90821 
69 ,13.6687 ,0.88076 ,4.12814 ,40.50527 
70 ,13.8763 ,0.88283 ,4.13840 ,40.60601 
71 ,14.0689 ,0.88479 ,4.10076 ,40.23665 
72 ,14.2767 ,0.88686 ,4.09734 ,40.20307 
73 ,14.4688 ,0.88876 ,4.05969 ,39.83371 
74 ,14.6930 ,0.89103 ,4.03574 ,39.59866 
75 ,14.9011 ,0.89309 ,4.03916 ,39.63224 
76 ,15.0932 ,0.89507 ,4.02205 ,39.46435 
77 ,15.3012 ,0.89711 ,4.01178 ,39.36361 
78 ,15.4929 ,0.89905 ,3.96387 ,38.89352 
79 ,15.6855 ,0.90092 ,3.95703 ,38.82636 
80 ,15.8776 ,0.90287 ,3.94676 ,38.72562 
81 ,16.0692 ,0.90479 ,3.92281 ,38.49058 
82 ,16.2619 ,0.90676 ,3.90912 ,38.35626 
83 ,16.4539 ,0.90868 ,3.88516 ,38.12122 
84 ,16.6619 ,0.91074 ,3.88516 ,38.12122 
85 ,16.8540 ,0.91263 ,3.85779 ,37.85259 
86 ,17.0620 ,0.91465 ,3.82356 ,37.51681 
87 ,17.2539 ,0.91674 ,3.81330 ,37.41607 
88 ,17.4462 ,0.91854 ,3.79276 ,37.21460 
89 ,17.6381 ,0.92045 ,3.78592 ,37.14744 
90 ,17.8304 ,0.92237 ,3.76196 ,36.91240 
91 ,18.0544 ,0.92450 ,3.75170 ,36.81166 
92 ,18.2621 ,0.92673 ,3.72432 ,36.54303 
93 ,18.4545 ,0.92867 ,3.71405 ,36.44230 
94 ,18.6628 ,0.93077 ,3.69010 ,36.20725 
95 ,18.8704 ,0.93282 ,3.65930 ,35.90505 
96 ,19.0468 ,0.93458 ,3.64219 ,35.73716 
97 ,19.2389 ,0.93652 ,3.64219 ,35.73716 
98 ,19.4471 ,0.93852 ,3.61823 ,35.50211 
99 ,19.6388 ,0.94044 ,3.61139 ,35.43495 
100 ,19.8150 ,0.94228 ,3.58401 ,35.16632 
101 ,20.0071 ,0.94413 ,3.55321 ,34.86412 
102 ,20.2313 ,0.94635 ,3.54979 ,34.83054 
103 ,20.4390 ,0.94837 ,3.53268 ,34.66265 
104 ,20.6316 ,0.95040 ,3.51899 ,34.52834 
105 ,20.8395 ,0.95251 ,3.49161 ,34.25971 
106 ,21.0157 ,0.95431 ,3.48135 ,34.15898 
107 ,21.2238 ,0.95633 ,3.45739 ,33.92393 
108 ,21.4158 ,0.95828 ,3.46081 ,33.95751 
109 ,21.6237 ,0.96035 ,3.42659 ,33.62172 
110 ,21.8000 ,0.96210 ,3.40606 ,33.42025 
111 ,22.0078 ,0.96413 ,3.37868 ,33.15163 
112 ,22.2002 ,0.96604 ,3.37526 ,33.11805 
113 ,22.4079 ,0.96818 ,3.33762 ,32.74869 
114 ,22.6001 ,0.97008 ,3.33419 ,32.71511 
115 ,22.7923 ,0.97204 ,3.31366 ,32.51364 
116 ,23.0004 ,0.97400 ,3.29655 ,32.34575 
117 ,23.1925 ,0.97598 ,3.28971 ,32.27859 
118 ,23.3847 ,0.97790 ,3.26233 ,32.00996 
119 ,23.5767 ,0.97987 ,3.25548 ,31.94281 
120 ,23.7522 ,0.98174 ,3.21442 ,31.53987 
121 ,23.9447 ,0.98354 ,3.21100 ,31.50629 
122 ,24.1369 ,0.98547 ,3.20757 ,31.47271 
123 ,24.3291 ,0.98738 ,3.18020 ,31.20409 
124 ,24.5207 ,0.98932 ,3.15624 ,30.96904 
125 ,24.7291 ,0.99140 ,3.13229 ,30.73399 
126 ,24.9052 ,0.99325 ,3.12544 ,30.66683 
127 ,25.0971 ,0.99503 ,3.11860 ,30.59968 
128 ,25.2892 ,0.99691 ,3.08095 ,30.23031 
129 ,25.4809 ,0.99891 ,3.08780 ,30.29747 
130 ,25.6571 ,1.00066 ,3.06384 ,30.06242 
131 ,25.8496 ,1.00255 ,3.03647 ,29.79380 
132 ,26.0577 ,1.00464 ,3.02962 ,29.72664 
133 ,26.2657 ,1.00670 ,2.98513 ,29.29012 
134 ,26.4576 ,1.00861 ,2.99198 ,29.35728 
135 ,26.6659 ,1.01073 ,2.95091 ,28.95434 
136 ,26.8580 ,1.01262 ,2.96118 ,29.05507 
137 ,27.0336 ,1.01453 ,2.92696 ,28.71929 
138 ,27.2262 ,1.01634 ,2.89958 ,28.45066 
139 ,27.4341 ,1.01839 ,2.89616 ,28.41709 
140 ,27.5940 ,1.02017 ,2.87905 ,28.24919 
141 ,27.7864 ,1.02195 ,2.85509 ,28.01415 
142 ,27.9946 ,1.02399 ,2.85509 ,28.01415 
143 ,28.1864 ,1.02592 ,2.82429 ,27.71194 
144 ,28.3627 ,1.02774 ,2.81402 ,27.61121 
145 ,28.5548 ,1.02962 ,2.81745 ,27.64479 
146 ,28.7463 ,1.03153 ,2.77638 ,27.24185 
147 ,28.9389 ,1.03344 ,2.76954 ,27.17469 
148 ,29.1466 ,1.03551 ,2.73531 ,26.83891 
149 ,29.3389 ,1.03746 ,2.73531 ,26.83891 
150 ,29.5471 ,1.03953 ,2.71136 ,26.60386 
151 ,29.7390 ,1.04145 ,2.70109 ,26.50312 
152 ,29.9312 ,1.04339 ,2.69083 ,26.40239 
153 ,30.1234 ,1.04529 ,2.67029 ,26.20092 
154 ,30.3149 ,1.04718 ,2.66687 ,26.16734 
155 ,30.5075 ,1.04911 ,2.63265 ,25.83156 
156 ,30.7315 ,1.05142 ,2.61554 ,25.66367 
157 ,30.9397 ,1.05339 ,2.59158 ,25.42862 
158 ,31.1318 ,1.05537 ,2.57789 ,25.29430 
159 ,31.3238 ,1.05734 ,2.55394 ,25.05926 
160 ,31.5159 ,1.05921 ,2.56763 ,25.19357 
161 ,31.7239 ,1.06129 ,2.51287 ,24.65632 
162 ,31.9160 ,1.06317 ,2.51972 ,24.72347 
163 ,32.1081 ,1.06512 ,2.48550 ,24.38769 
164 ,32.3162 ,1.06719 ,2.48550 ,24.38769 
165 ,32.4918 ,1.06907 ,2.45812 ,24.11906 
166 ,32.6844 ,1.07090 ,2.43759 ,23.91759 
167 ,32.8764 ,1.07283 ,2.44101 ,23.95117 
168 ,33.0845 ,1.07487 ,2.39652 ,23.51465 
169 ,33.2766 ,1.07680 ,2.39652 ,23.51465 
170 ,33.4687 ,1.07880 ,2.37256 ,23.27961 
171 ,33.6605 ,1.08068 ,2.35203 ,23.07814 
172 ,33.8527 ,1.08264 ,2.33492 ,22.91024 
173 ,34.0449 ,1.08454 ,2.33150 ,22.87667 
174 ,34.2370 ,1.08639 ,2.31439 ,22.70877 
175 ,34.4289 ,1.08834 ,2.31097 ,22.67520 
176 ,34.6208 ,1.09025 ,2.27674 ,22.33941 
177 ,34.8132 ,1.09216 ,2.26990 ,22.27226 
178 ,35.0053 ,1.09406 ,2.24252 ,22.00363 
179 ,35.1974 ,1.09605 ,2.23910 ,21.97005 
180 ,35.3894 ,1.09796 ,2.21857 ,21.76858 
181 ,35.5656 ,1.09978 ,2.19461 ,21.53353 
182 ,35.7572 ,1.10153 ,2.18092 ,21.39922 
183 ,35.9498 ,1.10356 ,2.17066 ,21.29849 
184 ,36.1418 ,1.10548 ,2.15697 ,21.16417 
185 ,36.3338 ,1.10739 ,2.14670 ,21.06344 
186 ,36.5259 ,1.10923 ,2.11248 ,20.72766 
187 ,36.7180 ,1.11123 ,2.10564 ,20.66050 
188 ,36.9099 ,1.11309 ,2.10564 ,20.66050 
189 ,37.1023 ,1.11503 ,2.06457 ,20.25756 
190 ,37.3102 ,1.11713 ,2.05430 ,20.15682 
191 ,37.5023 ,1.11904 ,2.02693 ,19.88820 
192 ,37.6944 ,1.12096 ,2.04404 ,20.05609 
193 ,37.9020 ,1.12305 ,1.99955 ,19.61957 
194 ,38.0946 ,1.12497 ,2.00982 ,19.72031 
195 ,38.3026 ,1.12711 ,1.97217 ,19.35094 
196 ,38.5107 ,1.12905 ,1.97217 ,19.35094 
197 ,38.7188 ,1.13118 ,1.95164 ,19.14948 
198 ,38.9268 ,1.13326 ,1.93795 ,19.01516 
199 ,39.1189 ,1.13516 ,1.92084 ,18.84727 
200 ,39.3266 ,1.13726 ,1.89688 ,18.61222 
201 ,39.5192 ,1.13923 ,1.90373 ,18.67938 
202 ,39.7111 ,1.14119 ,1.89004 ,18.54507 
203 ,39.9188 ,1.14320 ,1.86608 ,18.31002 
204 ,40.1109 ,1.14506 ,1.85924 ,18.24286 
205 ,40.3035 ,1.14704 ,1.83186 ,17.97423 
206 ,40.4954 ,1.14896 ,1.83186 ,17.97423 
207 ,40.6876 ,1.15090 ,1.80449 ,17.70561 
208 ,40.8634 ,1.15274 ,1.78053 ,17.47056 
209 ,41.0559 ,1.15463 ,1.79764 ,17.63845 
210 ,41.2477 ,1.15648 ,1.77369 ,17.40340 
211 ,41.4560 ,1.15857 ,1.74973 ,17.16836 
212 ,41.6641 ,1.16055 ,1.73604 ,17.03404 
213 ,41.8561 ,1.16256 ,1.71551 ,16.83257 
214 ,42.0641 ,1.16465 ,1.68813 ,16.56395 
215 ,42.2559 ,1.16651 ,1.69840 ,16.66468 
216 ,42.4483 ,1.16848 ,1.68129 ,16.49679 
217 ,42.6404 ,1.17039 ,1.64707 ,16.16101 
218 ,42.8325 ,1.17236 ,1.64707 ,16.16101 
219 ,43.0563 ,1.17445 ,1.61627 ,15.85880 
220 ,43.2646 ,1.17661 ,1.60942 ,15.79164 
221 ,43.4567 ,1.17851 ,1.59573 ,15.65733 
222 ,43.6489 ,1.18053 ,1.60258 ,15.72449 
223 ,43.8409 ,1.18241 ,1.56151 ,15.32155 
224 ,44.0331 ,1.18431 ,1.57862 ,15.48944 
225 ,44.2251 ,1.18629 ,1.54440 ,15.15366 
226 ,44.4171 ,1.18814 ,1.52729 ,14.98577 
227 ,44.6091 ,1.19011 ,1.53071 ,15.01934 
228 ,44.8172 ,1.19215 ,1.49649 ,14.68356 
229 ,45.0094 ,1.19415 ,1.50333 ,14.75072 
230 ,45.2016 ,1.19606 ,1.47253 ,14.44851 
231 ,45.3936 ,1.19797 ,1.46569 ,14.38136 
232 ,45.6012 ,1.19995 ,1.45200 ,14.24704 
233 ,45.7937 ,1.20193 ,1.45200 ,14.24704 
234 ,45.9856 ,1.20390 ,1.42120 ,13.94484 
235 ,46.1939 ,1.20594 ,1.40067 ,13.74337 
236 ,46.3860 ,1.20785 ,1.41094 ,13.84410 
237 ,46.5941 ,1.20996 ,1.36303 ,13.37401 
238 ,46.7861 ,1.21184 ,1.37671 ,13.50832 
239 ,46.9781 ,1.21377 ,1.34591 ,13.20612 
240 ,47.1703 ,1.21572 ,1.34934 ,13.23969 
241 ,47.3624 ,1.21760 ,1.33223 ,13.07180 
242 ,47.5540 ,1.21954 ,1.30827 ,12.83675 
243 ,47.7461 ,1.22142 ,1.31512 ,12.90391 
244 ,47.9386 ,1.22339 ,1.27747 ,12.53455 
245 ,48.1466 ,1.22544 ,1.28089 ,12.56813 
246 ,48.3547 ,1.22747 ,1.25009 ,12.26592 
247 ,48.5465 ,1.22943 ,1.25352 ,12.29950 
248 ,48.7387 ,1.23131 ,1.23298 ,12.09803 
249 ,48.9468 ,1.23343 ,1.23641 ,12.13161 
250 ,49.1388 ,1.23535 ,1.18850 ,11.66151 
251 ,49.3311 ,1.23730 ,1.20218 ,11.79583 
252 ,49.5232 ,1.23923 ,1.18165 ,11.59436 
253 ,49.7150 ,1.24109 ,1.15427 ,11.32573 
254 ,49.9069 ,1.24306 ,1.16454 ,11.42647 
255 ,50.1150 ,1.24510 ,1.14058 ,11.19142 
256 ,50.3234 ,1.24708 ,1.14058 ,11.19142 
257 ,50.5475 ,1.24946 ,1.11663 ,10.95637 
258 ,50.7559 ,1.25149 ,1.10294 ,10.82206 
259 ,50.9478 ,1.25343 ,1.09267 ,10.72132 
260 ,51.1240 ,1.25528 ,1.06187 ,10.41912 
261 ,51.3163 ,1.25710 ,1.05503 ,10.35196 
262 ,51.5081 ,1.25908 ,1.06187 ,10.41912 
263 ,51.7322 ,1.26119 ,1.02423 ,10.04976 
264 ,51.9399 ,1.26337 ,1.01396 ,9.94902 
265 ,52.1320 ,1.26526 ,1.01739 ,9.98260 
266 ,52.3244 ,1.26726 ,1.00370 ,9.84829 
267 ,52.5484 ,1.26939 ,0.99343 ,9.74755 
268 ,52.7405 ,1.27137 ,0.96263 ,9.44535 
269 ,52.9327 ,1.27334 ,0.95579 ,9.37819 
270 ,53.1407 ,1.27533 ,0.93868 ,9.21030 
271 ,53.3328 ,1.27733 ,0.92157 ,9.04241 
272 ,53.5408 ,1.27933 ,0.90103 ,8.84094 
273 ,53.7490 ,1.28150 ,0.91814 ,9.00883 
274 ,53.9570 ,1.28345 ,0.88050 ,8.63947 
275 ,54.1492 ,1.28546 ,0.89419 ,8.77378 
276 ,54.3569 ,1.28752 ,0.84628 ,8.30368 
277 ,54.5492 ,1.28943 ,0.85654 ,8.40442 
278 ,54.7414 ,1.29131 ,0.81890 ,8.03506 
279 ,54.9495 ,1.29344 ,0.82575 ,8.10221 
280 ,55.1413 ,1.29532 ,0.80863 ,7.93432 
281 ,55.3496 ,1.29737 ,0.79837 ,7.83359 
282 ,55.5414 ,1.29941 ,0.79152 ,7.76643 
283 ,55.7338 ,1.30135 ,0.78126 ,7.66570 
284 ,55.9255 ,1.30319 ,0.78126 ,7.66570 
285 ,56.1181 ,1.30512 ,0.74019 ,7.26276 
286 ,56.3260 ,1.30722 ,0.75388 ,7.39707 
287 ,56.5178 ,1.30907 ,0.71624 ,7.02771 
288 ,56.7103 ,1.31110 ,0.71624 ,7.02771 
289 ,56.9184 ,1.31310 ,0.69570 ,6.82624 
290 ,57.1104 ,1.31511 ,0.68886 ,6.75908 
291 ,57.3184 ,1.31708 ,0.67175 ,6.59119 
292 ,57.4946 ,1.31899 ,0.67517 ,6.62477 
293 ,57.6865 ,1.32085 ,0.65806 ,6.45688 
294 ,57.8788 ,1.32272 ,0.63068 ,6.18825 
295 ,58.0547 ,1.32464 ,0.63410 ,6.22183 
296 ,58.2466 ,1.32639 ,0.63068 ,6.18825 
297 ,58.4390 ,1.32831 ,0.59646 ,5.85247 
298 ,58.6466 ,1.33037 ,0.59646 ,5.85247 
299 ,58.8391 ,1.33235 ,0.58277 ,5.71815 
300 ,59.0471 ,1.33447 ,0.56566 ,5.55026 
301 ,59.2392 ,1.33630 ,0.55539 ,5.44953 
302 ,59.4474 ,1.33840 ,0.54513 ,5.34879 
303 ,59.6394 ,1.34028 ,0.53828 ,5.28164 
304 ,59.8316 ,1.34222 ,0.52117 ,5.11375 
305 ,60.0397 ,1.34436 ,0.50406 ,4.94585 
306 ,60.2318 ,1.34624 ,0.49037 ,4.81154 
307 ,60.4235 ,1.34820 ,0.49722 ,4.87870 
308 ,60.6156 ,1.35010 ,0.48011 ,4.71081 
309 ,60.8078 ,1.35199 ,0.48011 ,4.71081 
310 ,61.0000 ,1.35395 ,0.45615 ,4.47576 
311 ,61.2402 ,1.35627 ,0.43562 ,4.27429 
312 ,61.4323 ,1.35831 ,0.41166 ,4.03924 
313 ,61.6243 ,1.36019 ,0.42535 ,4.17355 
314 ,61.8324 ,1.36220 ,0.40824 ,4.00566 
315 ,62.0245 ,1.36416 ,0.40140 ,3.93850 
316 ,62.2165 ,1.36604 ,0.37402 ,3.66988 
317 ,62.4086 ,1.36799 ,0.37402 ,3.66988 
318 ,62.6167 ,1.37007 ,0.36718 ,3.60272 
319 ,62.8088 ,1.37203 ,0.34322 ,3.36767 
320 ,63.0005 ,1.37397 ,0.33638 ,3.30052 
321 ,63.1928 ,1.37586 ,0.32953 ,3.23336 
322 ,63.3846 ,1.37787 ,0.31926 ,3.13263 
323 ,63.5771 ,1.37966 ,0.31242 ,3.06547 
324 ,63.8012 ,1.38189 ,0.28847 ,2.83042 
325 ,63.9932 ,1.38386 ,0.27135 ,2.66253 
326 ,64.1853 ,1.38574 ,0.27820 ,2.72969 
327 ,64.3931 ,1.38784 ,0.25424 ,2.49464 
328 ,64.5854 ,1.38975 ,0.25767 ,2.52822 
329 ,64.7774 ,1.39170 ,0.24055 ,2.36032 
330 ,64.9856 ,1.39376 ,0.23029 ,2.25959 
331 ,65.1774 ,1.39570 ,0.22002 ,2.15885 
332 ,65.3699 ,1.39767 ,0.19607 ,1.92381 
333 ,65.5776 ,1.39968 ,0.20291 ,1.99096 
334 ,65.7700 ,1.40164 ,0.19264 ,1.89023 
335 ,65.9941 ,1.40383 ,0.17211 ,1.68876 
336 ,66.2021 ,1.40594 ,0.17896 ,1.75592 
337 ,66.3942 ,1.40785 ,0.14131 ,1.38655 
338 ,66.6023 ,1.40995 ,0.14131 ,1.38655 
339 ,66.7945 ,1.41188 ,0.12762 ,1.25224 
340 ,67.0025 ,1.41395 ,0.12078 ,1.18508 
341 ,67.2105 ,1.41591 ,0.11051 ,1.08435 
342 ,67.4023 ,1.41793 ,0.10709 ,1.05077 
343 ,67.6108 ,1.41995 ,0.07287 ,0.71499 
344 ,67.8187 ,1.42205 ,0.07287 ,0.71499 
345 ,67.9949 ,1.42396 ,0.04891 ,0.47994 
346 ,68.1870 ,1.42572 ,0.05576 ,0.54710 
347 ,68.3791 ,1.42771 ,0.04549 ,0.44636 
348 ,68.5712 ,1.42963 ,0.02154 ,0.21131 
349 ,68.7631 ,1.43152 ,0.03865 ,0.37920 
350 ,68.9549 ,1.43339 ,-0.00242 ,-0.02373 
351 ,69.1471 ,1.43533 ,-0.00584 ,-0.05731 
352 ,69.3230 ,1.43724 ,0.00443 ,0.04342 
353 ,69.5153 ,1.43909 ,-0.01269 ,-0.12447 
354 ,69.7234 ,1.44114 ,-0.02637 ,-0.25878 
355 ,69.9318 ,1.44317 ,-0.05717 ,-0.56099 
356 ,70.1396 ,1.44527 ,-0.04006 ,-0.39310 
357 ,70.3317 ,1.44728 ,-0.05717 ,-0.56099 
358 ,70.5239 ,1.44916 ,-0.06744 ,-0.66172 
359 ,70.7156 ,1.45116 ,-0.08455 ,-0.82961 
360 ,70.9079 ,1.45294 ,-0.09824 ,-0.96393 
361 ,71.1001 ,1.45487 ,-0.07771 ,-0.76246 
362 ,71.3081 ,1.45693 ,-0.11193 ,-1.09824 
363 ,71.5002 ,1.45887 ,-0.11193 ,-1.09824 
364 ,71.6923 ,1.46079 ,-0.12904 ,-1.26613 
365 ,71.8844 ,1.46270 ,-0.13588 ,-1.33329 
366 ,72.0765 ,1.46468 ,-0.14273 ,-1.40045 
367 ,72.2687 ,1.46661 ,-0.16326 ,-1.60191 
368 ,72.4766 ,1.46862 ,-0.15299 ,-1.50118 
369 ,72.6847 ,1.47064 ,-0.19064 ,-1.87054 
370 ,72.8765 ,1.47260 ,-0.18037 ,-1.76981 
371 ,73.0689 ,1.47455 ,-0.20433 ,-2.00485 
372 ,73.2769 ,1.47656 ,-0.20433 ,-2.00485 
373 ,73.4687 ,1.47862 ,-0.21117 ,-2.07201 
374 ,73.6610 ,1.48047 ,-0.21459 ,-2.10559 
375 ,73.8532 ,1.48241 ,-0.23855 ,-2.34064 
376 ,74.0451 ,1.48433 ,-0.25566 ,-2.50853 
377 ,74.2534 ,1.48642 ,-0.25224 ,-2.47495 
378 ,74.4451 ,1.48832 ,-0.27619 ,-2.71000 
379 ,74.6371 ,1.49019 ,-0.26250 ,-2.57569 
380 ,74.8135 ,1.49207 ,-0.27619 ,-2.71000 
381 ,75.0055 ,1.49394 ,-0.30015 ,-2.94505 
382 ,75.2136 ,1.49592 ,-0.29673 ,-2.91147 
383 ,75.4219 ,1.49805 ,-0.31726 ,-3.11294 
384 ,75.6139 ,1.50006 ,-0.30357 ,-2.97863 
385 ,75.8541 ,1.50235 ,-0.33437 ,-3.28083 
386 ,76.0623 ,1.50450 ,-0.35490 ,-3.48230 
387 ,76.2543 ,1.50638 ,-0.33779 ,-3.31441 
388 ,76.4624 ,1.50851 ,-0.35832 ,-3.51588 
389 ,76.6545 ,1.51042 ,-0.36517 ,-3.58303 
390 ,76.8465 ,1.51233 ,-0.37886 ,-3.71735 
391 ,77.0385 ,1.51423 ,-0.38912 ,-3.81808 
392 ,77.2303 ,1.51618 ,-0.40623 ,-3.98597 
393 ,77.4388 ,1.51819 ,-0.41650 ,-4.08671 
394 ,77.6468 ,1.52035 ,-0.43361 ,-4.25460 
395 ,77.8389 ,1.52224 ,-0.42335 ,-4.15387 
396 ,78.0310 ,1.52421 ,-0.42677 ,-4.18744 
397 ,78.2389 ,1.52624 ,-0.44046 ,-4.32176 
398 ,78.4151 ,1.52809 ,-0.46099 ,-4.52323 
399 ,78.6074 ,1.52991 ,-0.48837 ,-4.79185 
400 ,78.8153 ,1.53207 ,-0.46099 ,-4.52323 
401 ,79.0233 ,1.53409 ,-0.48152 ,-4.72470 
402 ,79.2155 ,1.53605 ,-0.47810 ,-4.69112 
403 ,79.4071 ,1.53795 ,-0.51917 ,-5.09406 
404 ,79.5996 ,1.53992 ,-0.52601 ,-5.16121 
405 ,79.8075 ,1.54193 ,-0.53285 ,-5.22837 
406 ,79.9998 ,1.54387 ,-0.53628 ,-5.26195 
407 ,80.1918 ,1.54578 ,-0.52601 ,-5.16121 
408 ,80.3838 ,1.54768 ,-0.56365 ,-5.53058 
409 ,80.5761 ,1.54957 ,-0.56023 ,-5.49700 
410 ,80.7680 ,1.55150 ,-0.57734 ,-5.66489 
411 ,80.9601 ,1.55343 ,-0.58761 ,-5.76562 
412 ,81.1682 ,1.55556 ,-0.58419 ,-5.73205 
413 ,81.3602 ,1.55744 ,-0.59788 ,-5.86636 
414 ,81.5524 ,1.55941 ,-0.60130 ,-5.89994 
415 ,81.8562 ,1.56192 ,-0.63210 ,-6.20214 
416 ,82.0486 ,1.56435 ,-0.62183 ,-6.10141 
417 ,82.2566 ,1.56639 ,-0.62525 ,-6.13499 
418 ,82.4648 ,1.56836 ,-0.64579 ,-6.33646 
419 ,82.6569 ,1.57041 ,-0.65263 ,-6.40361 
420 ,82.8649 ,1.57251 ,-0.67659 ,-6.63866 
421 ,83.0888 ,1.57463 ,-0.66974 ,-6.57150 
422 ,83.2810 ,1.57670 ,-0.69712 ,-6.84013 
423 ,83.4731 ,1.57858 ,-0.68685 ,-6.73940 
424 ,83.6651 ,1.58046 ,-0.70396 ,-6.90729 
425 ,83.8572 ,1.58234 ,-0.71423 ,-7.00802 
426 ,84.0493 ,1.58426 ,-0.72107 ,-7.07518 
427 ,84.2414 ,1.58623 ,-0.74503 ,-7.31023 
428 ,84.4335 ,1.58817 ,-0.73134 ,-7.17591 
429 ,84.6256 ,1.59009 ,-0.75187 ,-7.37738 
430 ,84.8176 ,1.59204 ,-0.76556 ,-7.51170 
431 ,84.9937 ,1.59392 ,-0.75187 ,-7.37738 
432 ,85.1858 ,1.59570 ,-0.78267 ,-7.67959 
433 ,85.3777 ,1.59758 ,-0.77583 ,-7.61243 
434 ,85.5859 ,1.59965 ,-0.80321 ,-7.88106 
435 ,85.7940 ,1.60165 ,-0.78952 ,-7.74674 
436 ,86.0017 ,1.60384 ,-0.81689 ,-8.01537 
437 ,86.2101 ,1.60583 ,-0.82032 ,-8.04895 
438 ,86.4182 ,1.60798 ,-0.82716 ,-8.11611 
439 ,86.6265 ,1.61009 ,-0.84769 ,-8.31758 
440 ,86.8346 ,1.61220 ,-0.84769 ,-8.31758 
441 ,87.0102 ,1.61408 ,-0.85796 ,-8.41831 
442 ,87.2024 ,1.61589 ,-0.87849 ,-8.61978 
443 ,87.3948 ,1.61781 ,-0.86481 ,-8.48547 
444 ,87.5869 ,1.61967 ,-0.88534 ,-8.68694 
445 ,87.7790 ,1.62159 ,-0.89218 ,-8.75409 
446 ,87.9866 ,1.62366 ,-0.90587 ,-8.88841 
447 ,88.1787 ,1.62555 ,-0.90245 ,-8.85483 
448 ,88.3718 ,1.62755 ,-0.90245 ,-8.85483 
449 ,88.5793 ,1.62961 ,-0.93325 ,-9.15703 
450 ,88.7715 ,1.63157 ,-0.91956 ,-9.02272 
451 ,88.9794 ,1.63360 ,-0.94694 ,-9.29135 
452 ,89.1872 ,1.63571 ,-0.94351 ,-9.25777 
453 ,89.3796 ,1.63764 ,-0.97431 ,-9.55997 
454 ,89.5877 ,1.63969 ,-0.96747 ,-9.49282 
455 ,89.7958 ,1.64176 ,-0.97431 ,-9.55997 
456 ,89.9874 ,1.64364 ,-0.98116 ,-9.62713 
457 ,90.1801 ,1.64564 ,-0.99827 ,-9.79502 
458 ,90.3881 ,1.64768 ,-1.00169 ,-9.82860 
459 ,90.5801 ,1.64959 ,-1.02565 ,-10.06365 
460 ,90.7722 ,1.65148 ,-1.00169 ,-9.82860 
461 ,90.9799 ,1.65360 ,-1.03934 ,-10.19796 
462 ,91.1883 ,1.65556 ,-1.03591 ,-10.16438 
