Data stamp = , 29-04-2022 00:47:42 114

Calibration Values: 
Slope = , 26.54 , g/V 
Offset Voltage at no contact = , -0.501760 , V 

No , Time , Stage Position ,   Mass , Force 
   ,  (s) ,      (mm)      ,   (g)  , (mN)  

1 ,0.0000 ,0.74953 ,5.30194 ,52.02263 
2 ,0.2829 ,0.74971 ,5.28483 ,51.85474 
3 ,0.6351 ,0.75093 ,5.28141 ,51.82116 
4 ,0.8434 ,0.75286 ,5.29167 ,51.92190 
5 ,1.0357 ,0.75462 ,5.30536 ,52.05621 
6 ,1.2437 ,0.75666 ,5.29852 ,51.98905 
7 ,1.4357 ,0.75851 ,5.30536 ,52.05621 
8 ,1.6276 ,0.76063 ,5.29510 ,51.95548 
9 ,1.8197 ,0.76256 ,5.30194 ,52.02263 
10 ,2.0121 ,0.76437 ,5.26772 ,51.68685 
11 ,2.2042 ,0.76635 ,5.25403 ,51.55254 
12 ,2.4122 ,0.76841 ,5.24376 ,51.45180 
13 ,2.6045 ,0.77029 ,5.22323 ,51.25033 
14 ,2.8125 ,0.77233 ,5.21296 ,51.14960 
15 ,2.9881 ,0.77430 ,5.16163 ,50.64592 
16 ,3.1807 ,0.77610 ,5.16505 ,50.67950 
17 ,3.3732 ,0.77799 ,5.15136 ,50.54519 
18 ,3.5808 ,0.78010 ,5.12399 ,50.27656 
19 ,3.7730 ,0.78204 ,5.11714 ,50.20940 
20 ,3.9644 ,0.78392 ,5.07265 ,49.77289 
21 ,4.1409 ,0.78578 ,5.07265 ,49.77289 
22 ,4.3330 ,0.78758 ,5.05554 ,49.60499 
23 ,4.5249 ,0.78949 ,5.02474 ,49.30279 
24 ,4.7172 ,0.79147 ,5.02132 ,49.26921 
25 ,4.9092 ,0.79333 ,4.99394 ,49.00058 
26 ,5.1013 ,0.79527 ,4.96999 ,48.76554 
27 ,5.2934 ,0.79718 ,4.95288 ,48.59764 
28 ,5.4852 ,0.79913 ,4.92550 ,48.32902 
29 ,5.6933 ,0.80115 ,4.91181 ,48.19471 
30 ,5.9175 ,0.80342 ,4.89812 ,48.06039 
31 ,6.1093 ,0.80534 ,4.87075 ,47.79177 
32 ,6.3018 ,0.80730 ,4.85706 ,47.65745 
33 ,6.5099 ,0.80935 ,4.82968 ,47.38883 
34 ,6.7020 ,0.81130 ,4.79888 ,47.08662 
35 ,6.8938 ,0.81324 ,4.79546 ,47.05304 
36 ,7.0860 ,0.81511 ,4.76808 ,46.78442 
37 ,7.2782 ,0.81705 ,4.76808 ,46.78442 
38 ,7.4860 ,0.81913 ,4.73044 ,46.41506 
39 ,7.6784 ,0.82111 ,4.70306 ,46.14643 
40 ,7.8865 ,0.82308 ,4.68595 ,45.97854 
41 ,8.0784 ,0.82508 ,4.68595 ,45.97854 
42 ,8.2701 ,0.82709 ,4.64831 ,45.60918 
43 ,8.4628 ,0.82888 ,4.64488 ,45.57560 
44 ,8.6547 ,0.83076 ,4.63119 ,45.44128 
45 ,8.8793 ,0.83298 ,4.61066 ,45.23981 
46 ,9.0707 ,0.83496 ,4.59013 ,45.03835 
47 ,9.2630 ,0.83688 ,4.56617 ,44.80330 
48 ,9.4547 ,0.83879 ,4.54906 ,44.63541 
49 ,9.6470 ,0.84067 ,4.53880 ,44.53467 
50 ,9.8548 ,0.84277 ,4.51826 ,44.33320 
51 ,10.0471 ,0.84474 ,4.48062 ,43.96384 
52 ,10.2554 ,0.84677 ,4.48746 ,44.03100 
53 ,10.4310 ,0.84869 ,4.46009 ,43.76237 
54 ,10.6235 ,0.85048 ,4.43613 ,43.52732 
55 ,10.8476 ,0.85260 ,4.43271 ,43.49374 
56 ,11.0718 ,0.85489 ,4.40191 ,43.19154 
57 ,11.2636 ,0.85685 ,4.37453 ,42.92291 
58 ,11.4557 ,0.85875 ,4.36084 ,42.78860 
59 ,11.6479 ,0.86072 ,4.35058 ,42.68786 
60 ,11.8560 ,0.86281 ,4.33004 ,42.48639 
61 ,12.0478 ,0.86475 ,4.31636 ,42.35208 
62 ,12.2401 ,0.86669 ,4.27529 ,41.94914 
63 ,12.4323 ,0.86853 ,4.27871 ,41.98272 
64 ,12.6239 ,0.87047 ,4.24791 ,41.68051 
65 ,12.8325 ,0.87257 ,4.24791 ,41.68051 
66 ,13.0245 ,0.87445 ,4.21711 ,41.37831 
67 ,13.2326 ,0.87656 ,4.21027 ,41.31115 
68 ,13.4405 ,0.87863 ,4.16920 ,40.90821 
69 ,13.6328 ,0.88054 ,4.16236 ,40.84106 
70 ,13.8569 ,0.88273 ,4.13156 ,40.53885 
71 ,14.0647 ,0.88487 ,4.12814 ,40.50527 
72 ,14.2570 ,0.88678 ,4.09049 ,40.13591 
73 ,14.4488 ,0.88874 ,4.10076 ,40.23665 
74 ,14.6412 ,0.89063 ,4.05285 ,39.76655 
75 ,14.8331 ,0.89255 ,4.03916 ,39.63224 
76 ,15.0248 ,0.89443 ,4.02889 ,39.53150 
77 ,15.2013 ,0.89627 ,4.00494 ,39.29646 
78 ,15.3934 ,0.89812 ,4.00152 ,39.26288 
79 ,15.5850 ,0.90004 ,3.98783 ,39.12856 
80 ,15.7776 ,0.90196 ,3.95018 ,38.75920 
81 ,15.9697 ,0.90392 ,3.95361 ,38.79278 
82 ,16.1776 ,0.90606 ,3.91596 ,38.42342 
83 ,16.3699 ,0.90793 ,3.92281 ,38.49058 
84 ,16.5618 ,0.90984 ,3.88516 ,38.12122 
85 ,16.7700 ,0.91196 ,3.86805 ,37.95332 
86 ,16.9780 ,0.91396 ,3.84067 ,37.68470 
87 ,17.1701 ,0.91591 ,3.84410 ,37.71828 
88 ,17.3620 ,0.91782 ,3.80645 ,37.34891 
89 ,17.5537 ,0.91970 ,3.79276 ,37.21460 
90 ,17.7297 ,0.92167 ,3.77908 ,37.08029 
91 ,17.9220 ,0.92343 ,3.76881 ,36.97955 
92 ,18.1140 ,0.92534 ,3.73801 ,36.67735 
93 ,18.3062 ,0.92725 ,3.74143 ,36.71093 
94 ,18.4986 ,0.92925 ,3.70721 ,36.37514 
95 ,18.7227 ,0.93131 ,3.69694 ,36.27441 
96 ,18.9305 ,0.93354 ,3.65930 ,35.90505 
97 ,19.1223 ,0.93553 ,3.64903 ,35.80431 
98 ,19.3145 ,0.93735 ,3.62166 ,35.53569 
99 ,19.5070 ,0.93929 ,3.62850 ,35.60284 
100 ,19.7147 ,0.94135 ,3.59770 ,35.30064 
101 ,19.9070 ,0.94324 ,3.58743 ,35.19990 
102 ,20.0987 ,0.94524 ,3.56006 ,34.93128 
103 ,20.2751 ,0.94703 ,3.53610 ,34.69623 
104 ,20.4830 ,0.94909 ,3.54979 ,34.83054 
105 ,20.6753 ,0.95092 ,3.49504 ,34.29329 
106 ,20.8673 ,0.95283 ,3.50530 ,34.39402 
107 ,21.0593 ,0.95486 ,3.46766 ,34.02466 
108 ,21.2511 ,0.95673 ,3.45397 ,33.89035 
109 ,21.4435 ,0.95863 ,3.44370 ,33.78961 
110 ,21.6518 ,0.96068 ,3.43001 ,33.65530 
111 ,21.8439 ,0.96266 ,3.41975 ,33.55457 
112 ,22.0521 ,0.96461 ,3.37868 ,33.15163 
113 ,22.2441 ,0.96665 ,3.37184 ,33.08447 
114 ,22.4360 ,0.96856 ,3.33077 ,32.68153 
115 ,22.6282 ,0.97043 ,3.33762 ,32.74869 
116 ,22.8199 ,0.97239 ,3.31708 ,32.54722 
117 ,23.0123 ,0.97427 ,3.29997 ,32.37933 
118 ,23.2205 ,0.97640 ,3.27259 ,32.11070 
119 ,23.4124 ,0.97827 ,3.25891 ,31.97639 
120 ,23.6046 ,0.98028 ,3.24864 ,31.87565 
121 ,23.7967 ,0.98229 ,3.22126 ,31.60702 
122 ,24.0045 ,0.98420 ,3.22468 ,31.64060 
123 ,24.2129 ,0.98633 ,3.18704 ,31.27124 
124 ,24.4047 ,0.98821 ,3.17677 ,31.17051 
125 ,24.5969 ,0.99018 ,3.15966 ,31.00262 
126 ,24.8051 ,0.99216 ,3.15966 ,31.00262 
127 ,25.0292 ,0.99434 ,3.11175 ,30.53252 
128 ,25.2213 ,0.99640 ,3.11175 ,30.53252 
129 ,25.4135 ,0.99837 ,3.08438 ,30.26389 
130 ,25.6051 ,1.00022 ,3.07411 ,30.16316 
131 ,25.7975 ,1.00214 ,3.06042 ,30.02884 
132 ,26.0056 ,1.00424 ,3.02278 ,29.65948 
133 ,26.1977 ,1.00619 ,3.02278 ,29.65948 
134 ,26.3897 ,1.00822 ,2.97487 ,29.18939 
135 ,26.5820 ,1.00997 ,2.98513 ,29.29012 
136 ,26.8057 ,1.01219 ,2.95776 ,29.02150 
137 ,26.9974 ,1.01425 ,2.93038 ,28.75287 
138 ,27.1735 ,1.01606 ,2.91669 ,28.61856 
139 ,27.3496 ,1.01780 ,2.90300 ,28.48424 
140 ,27.5581 ,1.01963 ,2.90300 ,28.48424 
141 ,27.7820 ,1.02201 ,2.87905 ,28.24919 
142 ,27.9745 ,1.02389 ,2.85167 ,27.98057 
143 ,28.1823 ,1.02600 ,2.84482 ,27.91341 
144 ,28.3746 ,1.02791 ,2.81745 ,27.64479 
145 ,28.5821 ,1.03000 ,2.81745 ,27.64479 
146 ,28.7746 ,1.03191 ,2.76954 ,27.17469 
147 ,28.9506 ,1.03382 ,2.76611 ,27.14111 
148 ,29.1588 ,1.03577 ,2.75585 ,27.04038 
149 ,29.3507 ,1.03768 ,2.72505 ,26.73817 
150 ,29.5431 ,1.03960 ,2.71820 ,26.67101 
151 ,29.7507 ,1.04169 ,2.69425 ,26.43597 
152 ,29.9270 ,1.04351 ,2.66687 ,26.16734 
153 ,30.1351 ,1.04558 ,2.67029 ,26.20092 
154 ,30.3593 ,1.04766 ,2.65318 ,26.03303 
155 ,30.5513 ,1.04964 ,2.62923 ,25.79798 
156 ,30.7435 ,1.05157 ,2.61212 ,25.63009 
157 ,30.9353 ,1.05358 ,2.61554 ,25.66367 
158 ,31.1276 ,1.05543 ,2.57447 ,25.26073 
159 ,31.3357 ,1.05750 ,2.57789 ,25.29430 
160 ,31.5438 ,1.05961 ,2.54710 ,24.99210 
161 ,31.7359 ,1.06148 ,2.54367 ,24.95852 
162 ,31.9277 ,1.06351 ,2.50603 ,24.58916 
163 ,32.1199 ,1.06539 ,2.49234 ,24.45485 
164 ,32.3282 ,1.06738 ,2.49234 ,24.45485 
165 ,32.5360 ,1.06953 ,2.46839 ,24.21980 
166 ,32.7278 ,1.07138 ,2.42732 ,23.81686 
167 ,32.9361 ,1.07352 ,2.43759 ,23.91759 
168 ,33.1285 ,1.07543 ,2.40336 ,23.58181 
169 ,33.3206 ,1.07735 ,2.40336 ,23.58181 
170 ,33.5287 ,1.07936 ,2.39652 ,23.51465 
171 ,33.7208 ,1.08143 ,2.36572 ,23.21245 
172 ,33.9288 ,1.08349 ,2.35203 ,23.07814 
173 ,34.1210 ,1.08538 ,2.33150 ,22.87667 
174 ,34.3125 ,1.08732 ,2.32465 ,22.80951 
175 ,34.5050 ,1.08928 ,2.29385 ,22.50731 
176 ,34.6971 ,1.09113 ,2.29043 ,22.47373 
177 ,34.9051 ,1.09318 ,2.26648 ,22.23868 
178 ,35.0973 ,1.09515 ,2.25963 ,22.17152 
179 ,35.3051 ,1.09718 ,2.23226 ,21.90290 
180 ,35.4814 ,1.09904 ,2.23226 ,21.90290 
181 ,35.6737 ,1.10091 ,2.20830 ,21.66785 
182 ,35.8820 ,1.10290 ,2.18435 ,21.43280 
183 ,36.0893 ,1.10503 ,2.17750 ,21.36564 
184 ,36.2978 ,1.10706 ,2.15012 ,21.09702 
185 ,36.4895 ,1.10916 ,2.12959 ,20.89555 
186 ,36.6978 ,1.11099 ,2.10564 ,20.66050 
187 ,36.9060 ,1.11318 ,2.09537 ,20.55976 
188 ,37.0981 ,1.11516 ,2.08510 ,20.45903 
189 ,37.2901 ,1.11706 ,2.08168 ,20.42545 
190 ,37.4983 ,1.11914 ,2.05088 ,20.12325 
191 ,37.7064 ,1.12112 ,2.05430 ,20.15682 
192 ,37.9142 ,1.12327 ,2.02693 ,19.88820 
193 ,38.1065 ,1.12516 ,1.99955 ,19.61957 
194 ,38.2987 ,1.12710 ,1.98928 ,19.51884 
195 ,38.4907 ,1.12907 ,1.97559 ,19.38452 
196 ,38.6828 ,1.13090 ,1.96190 ,19.25021 
197 ,38.8747 ,1.13284 ,1.94479 ,19.08232 
198 ,39.0829 ,1.13501 ,1.91742 ,18.81369 
199 ,39.2911 ,1.13692 ,1.93111 ,18.94801 
200 ,39.4831 ,1.13895 ,1.90031 ,18.64580 
201 ,39.6749 ,1.14093 ,1.89346 ,18.57864 
202 ,39.8512 ,1.14281 ,1.87977 ,18.44433 
203 ,40.0434 ,1.14460 ,1.85582 ,18.20928 
204 ,40.2353 ,1.14648 ,1.84213 ,18.07497 
205 ,40.4274 ,1.14841 ,1.83528 ,18.00781 
206 ,40.6354 ,1.15048 ,1.81133 ,17.77276 
207 ,40.8272 ,1.15240 ,1.81817 ,17.83992 
208 ,41.0356 ,1.15441 ,1.77711 ,17.43698 
209 ,41.2438 ,1.15656 ,1.77369 ,17.40340 
210 ,41.4357 ,1.15847 ,1.76342 ,17.30267 
211 ,41.6279 ,1.16043 ,1.75657 ,17.23551 
212 ,41.8201 ,1.16233 ,1.72920 ,16.96689 
213 ,42.0121 ,1.16425 ,1.71893 ,16.86615 
214 ,42.2202 ,1.16632 ,1.68471 ,16.53037 
215 ,42.4282 ,1.16844 ,1.70182 ,16.69826 
216 ,42.6202 ,1.17033 ,1.66760 ,16.36248 
217 ,42.8283 ,1.17240 ,1.66418 ,16.32890 
218 ,43.0202 ,1.17441 ,1.63680 ,16.06027 
219 ,43.2285 ,1.17634 ,1.64707 ,16.16101 
220 ,43.4205 ,1.17826 ,1.61627 ,15.85880 
221 ,43.6125 ,1.18021 ,1.61284 ,15.82522 
222 ,43.8049 ,1.18219 ,1.59916 ,15.69091 
223 ,44.0127 ,1.18421 ,1.57178 ,15.42228 
224 ,44.2047 ,1.18617 ,1.56151 ,15.32155 
225 ,44.3969 ,1.18804 ,1.53413 ,15.05292 
226 ,44.5891 ,1.19002 ,1.54440 ,15.15366 
227 ,44.7808 ,1.19199 ,1.50676 ,14.78430 
228 ,44.9734 ,1.19384 ,1.51018 ,14.81787 
229 ,45.1650 ,1.19574 ,1.49649 ,14.68356 
230 ,45.3414 ,1.19762 ,1.47938 ,14.51567 
231 ,45.5335 ,1.19950 ,1.45885 ,14.31420 
232 ,45.7255 ,1.20141 ,1.46569 ,14.38136 
233 ,45.9176 ,1.20336 ,1.42805 ,14.01199 
234 ,46.1256 ,1.20531 ,1.42120 ,13.94484 
235 ,46.3018 ,1.20721 ,1.40409 ,13.77695 
236 ,46.5100 ,1.20910 ,1.40067 ,13.74337 
237 ,46.7338 ,1.21137 ,1.37671 ,13.50832 
238 ,46.9422 ,1.21342 ,1.38014 ,13.54190 
239 ,47.1343 ,1.21546 ,1.34249 ,13.17254 
240 ,47.3099 ,1.21729 ,1.34934 ,13.23969 
241 ,47.5023 ,1.21914 ,1.32880 ,13.03822 
242 ,47.7105 ,1.22123 ,1.31854 ,12.93749 
243 ,47.9028 ,1.22314 ,1.30827 ,12.83675 
244 ,48.0943 ,1.22503 ,1.27747 ,12.53455 
245 ,48.2866 ,1.22691 ,1.28432 ,12.60171 
246 ,48.4790 ,1.22884 ,1.23983 ,12.16519 
247 ,48.6868 ,1.23095 ,1.24667 ,12.23235 
248 ,48.8790 ,1.23283 ,1.21929 ,11.96372 
249 ,49.0711 ,1.23480 ,1.21929 ,11.96372 
250 ,49.2632 ,1.23674 ,1.22272 ,11.99730 
251 ,49.4387 ,1.23862 ,1.18165 ,11.59436 
252 ,49.6312 ,1.24039 ,1.17138 ,11.49362 
253 ,49.8234 ,1.24238 ,1.17481 ,11.52720 
254 ,50.0153 ,1.24424 ,1.13716 ,11.15784 
255 ,50.2075 ,1.24617 ,1.15085 ,11.29215 
256 ,50.3995 ,1.24808 ,1.11663 ,10.95637 
257 ,50.5754 ,1.24994 ,1.11663 ,10.95637 
258 ,50.7836 ,1.25189 ,1.11321 ,10.92279 
259 ,50.9754 ,1.25383 ,1.06530 ,10.45270 
260 ,51.1679 ,1.25571 ,1.08925 ,10.68774 
261 ,51.3758 ,1.25783 ,1.03792 ,10.18407 
262 ,51.5680 ,1.25977 ,1.05503 ,10.35196 
263 ,51.7601 ,1.26169 ,1.04476 ,10.25123 
264 ,51.9682 ,1.26376 ,1.02081 ,10.01618 
265 ,52.1604 ,1.26570 ,1.00028 ,9.81471 
266 ,52.3684 ,1.26777 ,1.00712 ,9.88186 
267 ,52.5764 ,1.26982 ,0.96263 ,9.44535 
268 ,52.7684 ,1.27178 ,0.96948 ,9.51250 
269 ,52.9445 ,1.27363 ,0.94894 ,9.31103 
270 ,53.1363 ,1.27543 ,0.93183 ,9.14314 
271 ,53.3288 ,1.27737 ,0.93525 ,9.17672 
272 ,53.5368 ,1.27943 ,0.90103 ,8.84094 
273 ,53.7290 ,1.28137 ,0.89761 ,8.80736 
274 ,53.9850 ,1.28384 ,0.88734 ,8.70662 
275 ,54.1931 ,1.28603 ,0.85997 ,8.43800 
276 ,54.3852 ,1.28791 ,0.87708 ,8.60589 
277 ,54.5931 ,1.29000 ,0.83259 ,8.16937 
278 ,54.7853 ,1.29190 ,0.84628 ,8.30368 
279 ,54.9934 ,1.29396 ,0.80863 ,7.93432 
280 ,55.1853 ,1.29588 ,0.82575 ,8.10221 
281 ,55.3774 ,1.29784 ,0.79495 ,7.80001 
282 ,55.5696 ,1.29979 ,0.76415 ,7.49780 
283 ,55.7776 ,1.30176 ,0.77441 ,7.59854 
284 ,55.9854 ,1.30393 ,0.76072 ,7.46423 
285 ,56.1779 ,1.30582 ,0.74704 ,7.32991 
286 ,56.3858 ,1.30792 ,0.73335 ,7.19560 
287 ,56.5779 ,1.30986 ,0.71966 ,7.06129 
288 ,56.7860 ,1.31187 ,0.70255 ,6.89340 
289 ,56.9784 ,1.31384 ,0.68886 ,6.75908 
290 ,57.1860 ,1.31591 ,0.68201 ,6.69193 
291 ,57.3943 ,1.31798 ,0.64095 ,6.28899 
292 ,57.6025 ,1.32006 ,0.66490 ,6.52403 
293 ,57.8107 ,1.32215 ,0.63753 ,6.25541 
294 ,58.0027 ,1.32407 ,0.64779 ,6.35614 
295 ,58.2108 ,1.32614 ,0.61357 ,6.02036 
296 ,58.4186 ,1.32829 ,0.61015 ,5.98678 
297 ,58.6110 ,1.33018 ,0.58962 ,5.78531 
298 ,58.8190 ,1.33229 ,0.59988 ,5.88605 
299 ,59.0111 ,1.33417 ,0.56224 ,5.51668 
300 ,59.2028 ,1.33613 ,0.56908 ,5.58384 
301 ,59.3952 ,1.33809 ,0.55197 ,5.41595 
302 ,59.6035 ,1.34003 ,0.53486 ,5.24806 
303 ,59.7951 ,1.34202 ,0.52459 ,5.14732 
304 ,59.9716 ,1.34385 ,0.50064 ,4.91228 
305 ,60.1797 ,1.34585 ,0.50748 ,4.97943 
306 ,60.3718 ,1.34780 ,0.48353 ,4.74438 
307 ,60.5798 ,1.34989 ,0.48695 ,4.77796 
308 ,60.7719 ,1.35180 ,0.45615 ,4.47576 
309 ,60.9639 ,1.35372 ,0.45615 ,4.47576 
310 ,61.1558 ,1.35559 ,0.44931 ,4.40860 
311 ,61.3477 ,1.35748 ,0.42535 ,4.17355 
312 ,61.5399 ,1.35943 ,0.43220 ,4.24071 
313 ,61.7482 ,1.36147 ,0.41851 ,4.10640 
314 ,61.9403 ,1.36351 ,0.40824 ,4.00566 
315 ,62.1323 ,1.36537 ,0.38429 ,3.77061 
316 ,62.3244 ,1.36730 ,0.37402 ,3.66988 
317 ,62.5324 ,1.36933 ,0.36718 ,3.60272 
318 ,62.7087 ,1.37120 ,0.34322 ,3.36767 
319 ,62.9008 ,1.37308 ,0.35691 ,3.50199 
320 ,63.1088 ,1.37513 ,0.32269 ,3.16620 
321 ,63.3006 ,1.37703 ,0.33295 ,3.26694 
322 ,63.5089 ,1.37912 ,0.29873 ,2.93116 
323 ,63.7171 ,1.38114 ,0.29531 ,2.89758 
324 ,63.9250 ,1.38329 ,0.28504 ,2.79684 
325 ,64.1010 ,1.38516 ,0.28504 ,2.79684 
326 ,64.2773 ,1.38681 ,0.26793 ,2.62895 
327 ,64.4854 ,1.38882 ,0.24398 ,2.39390 
328 ,64.6934 ,1.39093 ,0.24398 ,2.39390 
329 ,64.8855 ,1.39284 ,0.23713 ,2.32675 
330 ,65.0776 ,1.39476 ,0.22687 ,2.22601 
331 ,65.2854 ,1.39683 ,0.20976 ,2.05812 
332 ,65.4775 ,1.39877 ,0.21660 ,2.12528 
333 ,65.6855 ,1.40089 ,0.18580 ,1.82307 
334 ,65.8783 ,1.40285 ,0.18580 ,1.82307 
335 ,66.0858 ,1.40487 ,0.17553 ,1.72234 
336 ,66.2779 ,1.40680 ,0.17553 ,1.72234 
337 ,66.4861 ,1.40884 ,0.14131 ,1.38655 
338 ,66.6939 ,1.41094 ,0.12762 ,1.25224 
339 ,66.8864 ,1.41288 ,0.12078 ,1.18508 
340 ,67.0945 ,1.41495 ,0.12762 ,1.25224 
341 ,67.3025 ,1.41701 ,0.11393 ,1.11793 
342 ,67.4946 ,1.41896 ,0.09682 ,0.95004 
343 ,67.6867 ,1.42087 ,0.06945 ,0.68141 
344 ,67.8944 ,1.42294 ,0.08998 ,0.88288 
345 ,68.0704 ,1.42480 ,0.05234 ,0.51352 
346 ,68.2629 ,1.42667 ,0.05576 ,0.54710 
347 ,68.4546 ,1.42855 ,0.04207 ,0.41278 
348 ,68.6309 ,1.43043 ,0.01811 ,0.17773 
349 ,68.8231 ,1.43222 ,0.02154 ,0.21131 
350 ,68.9991 ,1.43407 ,0.02154 ,0.21131 
351 ,69.1912 ,1.43593 ,-0.01269 ,-0.12447 
352 ,69.3992 ,1.43800 ,-0.00242 ,-0.02373 
353 ,69.5912 ,1.43990 ,-0.01953 ,-0.19163 
354 ,69.7833 ,1.44186 ,-0.02980 ,-0.29236 
355 ,69.9755 ,1.44377 ,-0.02637 ,-0.25878 
356 ,70.1515 ,1.44568 ,-0.04348 ,-0.42667 
357 ,70.3437 ,1.44744 ,-0.06402 ,-0.62814 
358 ,70.5357 ,1.44939 ,-0.05375 ,-0.52741 
359 ,70.7278 ,1.45132 ,-0.08455 ,-0.82961 
360 ,70.9358 ,1.45339 ,-0.07771 ,-0.76246 
361 ,71.1276 ,1.45522 ,-0.10166 ,-0.99751 
362 ,71.3361 ,1.45728 ,-0.12219 ,-1.19898 
363 ,71.5441 ,1.45942 ,-0.12562 ,-1.23255 
364 ,71.7363 ,1.46135 ,-0.12904 ,-1.26613 
365 ,71.9444 ,1.46346 ,-0.15299 ,-1.50118 
366 ,72.1364 ,1.46538 ,-0.14273 ,-1.40045 
367 ,72.3445 ,1.46744 ,-0.16668 ,-1.63549 
368 ,72.5526 ,1.46954 ,-0.16326 ,-1.60191 
369 ,72.7445 ,1.47146 ,-0.18722 ,-1.83696 
370 ,72.9367 ,1.47334 ,-0.18722 ,-1.83696 
371 ,73.1289 ,1.47535 ,-0.18379 ,-1.80338 
372 ,73.3364 ,1.47741 ,-0.20090 ,-1.97128 
373 ,73.5290 ,1.47927 ,-0.22144 ,-2.17275 
374 ,73.7208 ,1.48123 ,-0.24539 ,-2.40779 
375 ,73.9131 ,1.48314 ,-0.22828 ,-2.23990 
376 ,74.1049 ,1.48509 ,-0.24881 ,-2.44137 
377 ,74.3133 ,1.48713 ,-0.25908 ,-2.54211 
378 ,74.5050 ,1.48900 ,-0.26593 ,-2.60926 
379 ,74.6817 ,1.49083 ,-0.27961 ,-2.74358 
380 ,74.8735 ,1.49289 ,-0.28304 ,-2.77716 
381 ,75.0977 ,1.49484 ,-0.30015 ,-2.94505 
382 ,75.2895 ,1.49690 ,-0.28988 ,-2.84431 
383 ,75.4814 ,1.49883 ,-0.33437 ,-3.28083 
384 ,75.6736 ,1.50071 ,-0.33437 ,-3.28083 
385 ,75.8658 ,1.50265 ,-0.34121 ,-3.34799 
386 ,76.0578 ,1.50455 ,-0.35490 ,-3.48230 
387 ,76.2659 ,1.50659 ,-0.35490 ,-3.48230 
388 ,76.4581 ,1.50856 ,-0.35832 ,-3.51588 
389 ,76.6499 ,1.51051 ,-0.37201 ,-3.65019 
390 ,76.8584 ,1.51246 ,-0.39939 ,-3.91882 
391 ,77.0503 ,1.51449 ,-0.37886 ,-3.71735 
392 ,77.2424 ,1.51641 ,-0.41308 ,-4.05313 
393 ,77.4343 ,1.51832 ,-0.40281 ,-3.95240 
394 ,77.6421 ,1.52045 ,-0.42677 ,-4.18744 
395 ,77.8343 ,1.52230 ,-0.43703 ,-4.28818 
396 ,78.0263 ,1.52425 ,-0.42677 ,-4.18744 
397 ,78.2024 ,1.52612 ,-0.46441 ,-4.55681 
398 ,78.3947 ,1.52793 ,-0.46099 ,-4.52323 
399 ,78.6030 ,1.52995 ,-0.46783 ,-4.59038 
400 ,78.7948 ,1.53195 ,-0.48152 ,-4.72470 
401 ,79.0031 ,1.53399 ,-0.48494 ,-4.75828 
402 ,79.1952 ,1.53593 ,-0.49521 ,-4.85901 
403 ,79.3872 ,1.53782 ,-0.50206 ,-4.92617 
404 ,79.5794 ,1.53982 ,-0.52943 ,-5.19479 
405 ,79.7870 ,1.54180 ,-0.52259 ,-5.12764 
406 ,79.9954 ,1.54386 ,-0.53970 ,-5.29553 
407 ,80.2037 ,1.54599 ,-0.53970 ,-5.29553 
408 ,80.3956 ,1.54792 ,-0.57392 ,-5.63131 
409 ,80.5876 ,1.54982 ,-0.55681 ,-5.46342 
410 ,80.7954 ,1.55192 ,-0.58761 ,-5.76562 
411 ,81.0199 ,1.55415 ,-0.59103 ,-5.79920 
412 ,81.2280 ,1.55629 ,-0.58077 ,-5.69847 
413 ,81.4200 ,1.55819 ,-0.59445 ,-5.83278 
414 ,81.6281 ,1.56011 ,-0.60472 ,-5.93352 
415 ,81.8360 ,1.56230 ,-0.62525 ,-6.13499 
416 ,82.0278 ,1.56425 ,-0.62868 ,-6.16856 
417 ,82.2202 ,1.56620 ,-0.64236 ,-6.30288 
418 ,82.4285 ,1.56829 ,-0.64579 ,-6.33646 
419 ,82.6205 ,1.57020 ,-0.65605 ,-6.43719 
420 ,82.8286 ,1.57227 ,-0.66632 ,-6.53793 
421 ,83.0210 ,1.57416 ,-0.67659 ,-6.63866 
422 ,83.2128 ,1.57611 ,-0.69370 ,-6.80655 
423 ,83.4210 ,1.57817 ,-0.69027 ,-6.77297 
424 ,83.6131 ,1.58008 ,-0.70396 ,-6.90729 
425 ,83.8207 ,1.58221 ,-0.72107 ,-7.07518 
426 ,84.0133 ,1.58401 ,-0.72107 ,-7.07518 
427 ,84.1888 ,1.58597 ,-0.72107 ,-7.07518 
428 ,84.3818 ,1.58777 ,-0.74161 ,-7.27665 
429 ,84.5734 ,1.58973 ,-0.75530 ,-7.41096 
430 ,84.7495 ,1.59155 ,-0.74161 ,-7.27665 
431 ,84.9416 ,1.59331 ,-0.76214 ,-7.47812 
432 ,85.1498 ,1.59535 ,-0.78267 ,-7.67959 
433 ,85.3417 ,1.59734 ,-0.75187 ,-7.37738 
434 ,85.5338 ,1.59929 ,-0.79294 ,-7.78032 
435 ,85.7097 ,1.60115 ,-0.79636 ,-7.81390 
436 ,85.9020 ,1.60296 ,-0.80321 ,-7.88106 
437 ,86.0938 ,1.60500 ,-0.82032 ,-8.04895 
438 ,86.2860 ,1.60678 ,-0.80663 ,-7.91464 
439 ,86.4780 ,1.60873 ,-0.81689 ,-8.01537 
440 ,86.6864 ,1.61080 ,-0.83058 ,-8.14968 
441 ,86.8787 ,1.61274 ,-0.84769 ,-8.31758 
442 ,87.0704 ,1.61467 ,-0.85796 ,-8.41831 
443 ,87.2626 ,1.61656 ,-0.86823 ,-8.51904 
444 ,87.4701 ,1.61863 ,-0.87507 ,-8.58620 
445 ,87.6622 ,1.62055 ,-0.86823 ,-8.51904 
446 ,87.8543 ,1.62246 ,-0.89218 ,-8.75409 
447 ,88.0466 ,1.62446 ,-0.89560 ,-8.78767 
448 ,88.2870 ,1.62675 ,-0.90587 ,-8.88841 
449 ,88.4788 ,1.62873 ,-0.91272 ,-8.95556 
450 ,88.6871 ,1.63070 ,-0.92640 ,-9.08988 
451 ,88.8797 ,1.63278 ,-0.94694 ,-9.29135 
452 ,89.0872 ,1.63479 ,-0.93325 ,-9.15703 
453 ,89.2795 ,1.63678 ,-0.94009 ,-9.22419 
454 ,89.4715 ,1.63867 ,-0.97089 ,-9.52639 
455 ,89.6635 ,1.64052 ,-0.95720 ,-9.39208 
456 ,89.8554 ,1.64252 ,-0.97431 ,-9.55997 
457 ,90.0477 ,1.64439 ,-0.98116 ,-9.62713 
458 ,90.2718 ,1.64653 ,-1.00511 ,-9.86218 
459 ,90.4638 ,1.64860 ,-0.99485 ,-9.76144 
460 ,90.6555 ,1.65049 ,-1.02222 ,-10.03007 
461 ,90.8480 ,1.65239 ,-1.02565 ,-10.06365 
462 ,91.0401 ,1.65437 ,-1.02565 ,-10.06365 
