Data stamp = , 27-04-2022 22:23:07 770

Calibration Values: 
Slope = , 26.54 , g/V 
Offset Voltage at no contact = , -0.501760 , V 

No , Time , Stage Position ,   Mass , Force 
   ,  (s) ,      (mm)      ,   (g)  , (mN)  

1 ,0.0000 ,0.74942 ,5.21296 ,51.14960 
2 ,0.2990 ,0.74964 ,5.21296 ,51.14960 
3 ,0.7153 ,0.75120 ,5.22665 ,51.28391 
4 ,0.9235 ,0.75343 ,5.23350 ,51.35107 
5 ,1.1159 ,0.75523 ,5.21639 ,51.18317 
6 ,1.3238 ,0.75735 ,5.23007 ,51.31749 
7 ,1.5159 ,0.75934 ,5.22665 ,51.28391 
8 ,1.7079 ,0.76124 ,5.22323 ,51.25033 
9 ,1.9001 ,0.76310 ,5.18216 ,50.84739 
10 ,2.0920 ,0.76503 ,5.18216 ,50.84739 
11 ,2.3003 ,0.76718 ,5.14452 ,50.47803 
12 ,2.4920 ,0.76906 ,5.14452 ,50.47803 
13 ,2.6845 ,0.77099 ,5.12399 ,50.27656 
14 ,2.8924 ,0.77310 ,5.09661 ,50.00793 
15 ,3.1007 ,0.77516 ,5.07608 ,49.80646 
16 ,3.3082 ,0.77721 ,5.06581 ,49.70573 
17 ,3.5003 ,0.77917 ,5.05212 ,49.57142 
18 ,3.6924 ,0.78110 ,5.01448 ,49.20205 
19 ,3.8848 ,0.78303 ,5.01790 ,49.23563 
20 ,4.0932 ,0.78514 ,4.97683 ,48.83269 
21 ,4.2851 ,0.78709 ,4.96999 ,48.76554 
22 ,4.4772 ,0.78886 ,4.94261 ,48.49691 
23 ,4.6529 ,0.79075 ,4.94261 ,48.49691 
24 ,4.8454 ,0.79259 ,4.91866 ,48.26186 
25 ,5.0375 ,0.79444 ,4.89470 ,48.02681 
26 ,5.2132 ,0.79639 ,4.88101 ,47.89250 
27 ,5.3897 ,0.79808 ,4.86048 ,47.69103 
28 ,5.5974 ,0.80010 ,4.83310 ,47.42240 
29 ,5.7733 ,0.80198 ,4.82968 ,47.38883 
30 ,5.9656 ,0.80380 ,4.81599 ,47.25451 
31 ,6.1739 ,0.80588 ,4.77835 ,46.88515 
32 ,6.3498 ,0.80765 ,4.77835 ,46.88515 
33 ,6.5581 ,0.80972 ,4.74413 ,46.54937 
34 ,6.7660 ,0.81177 ,4.72702 ,46.38148 
35 ,6.9422 ,0.81358 ,4.73386 ,46.44863 
36 ,7.1341 ,0.81546 ,4.69964 ,46.11285 
37 ,7.3263 ,0.81738 ,4.68253 ,45.94496 
38 ,7.5345 ,0.81945 ,4.64488 ,45.57560 
39 ,7.7265 ,0.82145 ,4.65173 ,45.64275 
40 ,7.9022 ,0.82326 ,4.61408 ,45.27339 
41 ,8.1107 ,0.82514 ,4.60040 ,45.13908 
42 ,8.3188 ,0.82728 ,4.56960 ,44.83688 
43 ,8.4949 ,0.82913 ,4.56275 ,44.76972 
44 ,8.6706 ,0.83089 ,4.54906 ,44.63541 
45 ,8.8470 ,0.83261 ,4.54906 ,44.63541 
46 ,9.0547 ,0.83460 ,4.50800 ,44.23247 
47 ,9.2312 ,0.83651 ,4.48746 ,44.03100 
48 ,9.4391 ,0.83852 ,4.47035 ,43.86310 
49 ,9.6152 ,0.84035 ,4.46693 ,43.82953 
50 ,9.7914 ,0.84207 ,4.44982 ,43.66163 
51 ,9.9836 ,0.84392 ,4.43955 ,43.56090 
52 ,10.1753 ,0.84586 ,4.41218 ,43.29227 
53 ,10.3676 ,0.84777 ,4.41218 ,43.29227 
54 ,10.5596 ,0.84965 ,4.37795 ,42.95649 
55 ,10.7356 ,0.85152 ,4.35742 ,42.75502 
56 ,10.9436 ,0.85354 ,4.34373 ,42.62071 
57 ,11.1357 ,0.85548 ,4.31978 ,42.38566 
58 ,11.3280 ,0.85745 ,4.31293 ,42.31850 
59 ,11.5360 ,0.85945 ,4.28213 ,42.01630 
60 ,11.7282 ,0.86137 ,4.27871 ,41.98272 
61 ,11.9202 ,0.86335 ,4.26160 ,41.81483 
62 ,12.1123 ,0.86525 ,4.23765 ,41.57978 
63 ,12.3203 ,0.86741 ,4.20685 ,41.27758 
64 ,12.4965 ,0.86913 ,4.20342 ,41.24400 
65 ,12.6728 ,0.87089 ,4.17605 ,40.97537 
66 ,12.8647 ,0.87286 ,4.16920 ,40.90821 
67 ,13.0407 ,0.87459 ,4.14867 ,40.70674 
68 ,13.2329 ,0.87636 ,4.13840 ,40.60601 
69 ,13.4409 ,0.87850 ,4.11103 ,40.33738 
70 ,13.6330 ,0.88044 ,4.08365 ,40.06876 
71 ,13.8091 ,0.88221 ,4.08023 ,40.03518 
72 ,14.0008 ,0.88412 ,4.06312 ,39.86729 
73 ,14.1773 ,0.88589 ,4.03916 ,39.63224 
74 ,14.3851 ,0.88794 ,4.03574 ,39.59866 
75 ,14.5935 ,0.89001 ,4.00836 ,39.33003 
76 ,14.7856 ,0.89198 ,4.00494 ,39.29646 
77 ,14.9776 ,0.89389 ,3.98441 ,39.09499 
78 ,15.1698 ,0.89578 ,3.95703 ,38.82636 
79 ,15.3776 ,0.89784 ,3.93992 ,38.65847 
80 ,15.5535 ,0.89973 ,3.92623 ,38.52415 
81 ,15.7299 ,0.90141 ,3.90912 ,38.35626 
82 ,15.9379 ,0.90345 ,3.89543 ,38.22195 
83 ,16.1301 ,0.90543 ,3.86463 ,37.91975 
84 ,16.3221 ,0.90736 ,3.87490 ,38.02048 
85 ,16.5303 ,0.90934 ,3.83383 ,37.61754 
86 ,16.7384 ,0.91156 ,3.82014 ,37.48323 
87 ,16.9464 ,0.91348 ,3.79961 ,37.28176 
88 ,17.1386 ,0.91548 ,3.77908 ,37.08029 
89 ,17.3307 ,0.91731 ,3.75512 ,36.84524 
90 ,17.5387 ,0.91947 ,3.75170 ,36.81166 
91 ,17.7467 ,0.92151 ,3.73801 ,36.67735 
92 ,17.9387 ,0.92343 ,3.72090 ,36.50946 
93 ,18.1149 ,0.92533 ,3.67983 ,36.10652 
94 ,18.3067 ,0.92725 ,3.68325 ,36.14010 
95 ,18.4833 ,0.92897 ,3.66614 ,35.97220 
96 ,18.6912 ,0.93100 ,3.63877 ,35.70358 
97 ,18.8830 ,0.93292 ,3.62850 ,35.60284 
98 ,19.0755 ,0.93488 ,3.60797 ,35.40137 
99 ,19.2673 ,0.93676 ,3.58401 ,35.16632 
100 ,19.4435 ,0.93861 ,3.57032 ,35.03201 
101 ,19.6355 ,0.94040 ,3.55321 ,34.86412 
102 ,19.7953 ,0.94221 ,3.53952 ,34.72981 
103 ,19.9719 ,0.94390 ,3.51899 ,34.52834 
104 ,20.1639 ,0.94575 ,3.51215 ,34.46118 
105 ,20.3557 ,0.94760 ,3.48135 ,34.15898 
106 ,20.5480 ,0.94950 ,3.47450 ,34.09182 
107 ,20.7241 ,0.95143 ,3.46766 ,34.02466 
108 ,20.9000 ,0.95313 ,3.45739 ,33.92393 
109 ,21.0924 ,0.95508 ,3.41633 ,33.52099 
110 ,21.3005 ,0.95713 ,3.41975 ,33.55457 
111 ,21.4921 ,0.95900 ,3.37868 ,33.15163 
112 ,21.6687 ,0.96081 ,3.36157 ,32.98374 
113 ,21.8607 ,0.96269 ,3.36157 ,32.98374 
114 ,22.0363 ,0.96445 ,3.33762 ,32.74869 
115 ,22.2288 ,0.96632 ,3.32735 ,32.64795 
116 ,22.4369 ,0.96840 ,3.29997 ,32.37933 
117 ,22.6287 ,0.97037 ,3.27602 ,32.14428 
118 ,22.8370 ,0.97235 ,3.26917 ,32.07712 
119 ,23.0450 ,0.97449 ,3.25548 ,31.94281 
120 ,23.2368 ,0.97639 ,3.23495 ,31.74134 
121 ,23.4293 ,0.97831 ,3.20757 ,31.47271 
122 ,23.6371 ,0.98040 ,3.21442 ,31.53987 
123 ,23.8295 ,0.98233 ,3.17335 ,31.13693 
124 ,24.0215 ,0.98427 ,3.15966 ,31.00262 
125 ,24.1972 ,0.98615 ,3.13571 ,30.76757 
126 ,24.3898 ,0.98796 ,3.10833 ,30.49894 
127 ,24.5817 ,0.98990 ,3.12202 ,30.63325 
128 ,24.7741 ,0.99182 ,3.08438 ,30.26389 
129 ,24.9657 ,0.99373 ,3.08438 ,30.26389 
130 ,25.1420 ,0.99554 ,3.06042 ,30.02884 
131 ,25.3340 ,0.99735 ,3.03304 ,29.76022 
132 ,25.5101 ,0.99918 ,3.02278 ,29.65948 
133 ,25.9424 ,1.00227 ,3.01935 ,29.62590 
134 ,26.1343 ,1.00544 ,2.98171 ,29.25654 
135 ,26.3101 ,1.00721 ,2.94749 ,28.92076 
136 ,26.5026 ,1.00910 ,2.94407 ,28.88718 
137 ,26.6946 ,1.01102 ,2.92696 ,28.71929 
138 ,26.8867 ,1.01290 ,2.90642 ,28.51782 
139 ,27.0948 ,1.01500 ,2.87562 ,28.21562 
140 ,27.2867 ,1.01688 ,2.87220 ,28.18204 
141 ,27.4626 ,1.01876 ,2.86536 ,28.11488 
142 ,27.6390 ,1.02051 ,2.84482 ,27.91341 
143 ,27.8311 ,1.02230 ,2.81402 ,27.61121 
144 ,28.0391 ,1.02441 ,2.81745 ,27.64479 
145 ,28.2152 ,1.02624 ,2.79007 ,27.37616 
146 ,28.4073 ,1.02812 ,2.77980 ,27.27542 
147 ,28.6312 ,1.03033 ,2.76954 ,27.17469 
148 ,28.8074 ,1.03221 ,2.73189 ,26.80533 
149 ,28.9996 ,1.03402 ,2.73189 ,26.80533 
150 ,29.1917 ,1.03597 ,2.70794 ,26.57028 
151 ,29.3677 ,1.03775 ,2.69083 ,26.40239 
152 ,29.5594 ,1.03957 ,2.68398 ,26.33523 
153 ,29.7679 ,1.04160 ,2.66345 ,26.13376 
154 ,29.9763 ,1.04376 ,2.64634 ,25.96587 
155 ,30.1680 ,1.04571 ,2.61896 ,25.69724 
156 ,30.3600 ,1.04762 ,2.60869 ,25.59651 
157 ,30.5522 ,1.04953 ,2.59158 ,25.42862 
158 ,30.7604 ,1.05151 ,2.57789 ,25.29430 
159 ,30.9685 ,1.05371 ,2.55394 ,25.05926 
160 ,31.1764 ,1.05577 ,2.55394 ,25.05926 
161 ,31.3687 ,1.05772 ,2.51630 ,24.68989 
162 ,31.5607 ,1.05957 ,2.51972 ,24.72347 
163 ,31.7524 ,1.06157 ,2.47865 ,24.32053 
164 ,31.9448 ,1.06348 ,2.47181 ,24.25338 
165 ,32.1370 ,1.06539 ,2.46839 ,24.21980 
166 ,32.3287 ,1.06730 ,2.43759 ,23.91759 
167 ,32.5211 ,1.06922 ,2.43759 ,23.91759 
168 ,32.7132 ,1.07122 ,2.41705 ,23.71612 
169 ,32.8733 ,1.07292 ,2.39310 ,23.48108 
170 ,33.0493 ,1.07454 ,2.37599 ,23.31318 
171 ,33.2252 ,1.07633 ,2.37599 ,23.31318 
172 ,33.4335 ,1.07836 ,2.35545 ,23.11171 
173 ,33.6255 ,1.08024 ,2.34177 ,22.97740 
174 ,33.8172 ,1.08222 ,2.33150 ,22.87667 
175 ,34.0092 ,1.08410 ,2.30412 ,22.60804 
176 ,34.2012 ,1.08605 ,2.29043 ,22.47373 
177 ,34.3934 ,1.08796 ,2.26990 ,22.27226 
178 ,34.5857 ,1.08989 ,2.25279 ,22.10437 
179 ,34.7779 ,1.09184 ,2.25621 ,22.13794 
180 ,34.9699 ,1.09366 ,2.22199 ,21.80216 
181 ,35.1623 ,1.09569 ,2.20488 ,21.63427 
182 ,35.3703 ,1.09770 ,2.18777 ,21.46638 
183 ,35.5462 ,1.09949 ,2.16381 ,21.23133 
184 ,35.7540 ,1.10152 ,2.16381 ,21.23133 
185 ,35.9464 ,1.10341 ,2.12617 ,20.86197 
186 ,36.1702 ,1.10575 ,2.12617 ,20.86197 
187 ,36.3627 ,1.10763 ,2.11590 ,20.76123 
188 ,36.5547 ,1.10958 ,2.10564 ,20.66050 
189 ,36.7467 ,1.11143 ,2.07826 ,20.39187 
190 ,36.9390 ,1.11337 ,2.08168 ,20.42545 
191 ,37.1310 ,1.11528 ,2.04404 ,20.05609 
192 ,37.3230 ,1.11726 ,2.03377 ,19.95535 
193 ,37.5311 ,1.11933 ,2.01324 ,19.75388 
194 ,37.7072 ,1.12106 ,1.99955 ,19.61957 
195 ,37.8832 ,1.12287 ,1.99270 ,19.55241 
196 ,38.0754 ,1.12475 ,1.97559 ,19.38452 
197 ,38.2671 ,1.12666 ,1.94822 ,19.11590 
198 ,38.4435 ,1.12856 ,1.95506 ,19.18305 
199 ,38.6355 ,1.13039 ,1.94137 ,19.04874 
200 ,38.8277 ,1.13229 ,1.91742 ,18.81369 
201 ,39.0357 ,1.13433 ,1.92426 ,18.88085 
202 ,39.2278 ,1.13624 ,1.90031 ,18.64580 
203 ,39.4359 ,1.13834 ,1.88662 ,18.51149 
204 ,39.6120 ,1.14017 ,1.85924 ,18.24286 
205 ,39.8040 ,1.14201 ,1.84897 ,18.14213 
206 ,40.0280 ,1.14428 ,1.83186 ,17.97423 
207 ,40.2361 ,1.14635 ,1.83871 ,18.04139 
208 ,40.4280 ,1.14823 ,1.81133 ,17.77276 
209 ,40.6202 ,1.15019 ,1.79080 ,17.57129 
210 ,40.8124 ,1.15214 ,1.78737 ,17.53772 
211 ,40.9887 ,1.15395 ,1.75657 ,17.23551 
212 ,41.1963 ,1.15593 ,1.76000 ,17.26909 
213 ,41.3887 ,1.15781 ,1.72920 ,16.96689 
214 ,41.5804 ,1.15979 ,1.71893 ,16.86615 
215 ,41.7731 ,1.16170 ,1.71209 ,16.79899 
216 ,41.9649 ,1.16373 ,1.69155 ,16.59752 
217 ,42.1570 ,1.16552 ,1.69840 ,16.66468 
218 ,42.3650 ,1.16763 ,1.66075 ,16.29532 
219 ,42.5571 ,1.16953 ,1.64707 ,16.16101 
220 ,42.7649 ,1.17169 ,1.62653 ,15.95954 
221 ,42.9570 ,1.17352 ,1.62995 ,15.99311 
222 ,43.1494 ,1.17543 ,1.60600 ,15.75807 
223 ,43.3415 ,1.17741 ,1.58889 ,15.59018 
224 ,43.5336 ,1.17931 ,1.59231 ,15.62375 
225 ,43.7413 ,1.18145 ,1.55809 ,15.28797 
226 ,43.9338 ,1.18335 ,1.57178 ,15.42228 
227 ,44.1418 ,1.18539 ,1.53071 ,15.01934 
228 ,44.3339 ,1.18731 ,1.53413 ,15.05292 
229 ,44.5096 ,1.18915 ,1.51360 ,14.85145 
230 ,44.6859 ,1.19090 ,1.49649 ,14.68356 
231 ,44.8939 ,1.19288 ,1.48965 ,14.61640 
232 ,45.0706 ,1.19477 ,1.47253 ,14.44851 
233 ,45.2782 ,1.19676 ,1.47253 ,14.44851 
234 ,45.4703 ,1.19861 ,1.45200 ,14.24704 
235 ,45.6785 ,1.20073 ,1.42805 ,14.01199 
236 ,45.8708 ,1.20273 ,1.42462 ,13.97842 
237 ,46.0786 ,1.20470 ,1.39725 ,13.70979 
238 ,46.2867 ,1.20689 ,1.39040 ,13.64263 
239 ,46.4788 ,1.20874 ,1.36987 ,13.44116 
240 ,46.6866 ,1.21073 ,1.36987 ,13.44116 
241 ,46.8788 ,1.21276 ,1.33565 ,13.10538 
242 ,47.0707 ,1.21467 ,1.33565 ,13.10538 
243 ,47.2631 ,1.21653 ,1.30827 ,12.83675 
244 ,47.4552 ,1.21856 ,1.30143 ,12.76960 
245 ,47.6313 ,1.22034 ,1.30485 ,12.80318 
246 ,47.8235 ,1.22219 ,1.26036 ,12.36666 
247 ,48.0153 ,1.22411 ,1.26378 ,12.40024 
248 ,48.1914 ,1.22598 ,1.26036 ,12.36666 
249 ,48.3836 ,1.22779 ,1.22956 ,12.06445 
250 ,48.5758 ,1.22970 ,1.22956 ,12.06445 
251 ,48.7677 ,1.23166 ,1.21587 ,11.93014 
252 ,48.9436 ,1.23344 ,1.19192 ,11.69509 
253 ,49.1359 ,1.23535 ,1.17823 ,11.56078 
254 ,49.3279 ,1.23730 ,1.16796 ,11.46004 
255 ,49.5361 ,1.23930 ,1.15770 ,11.35931 
256 ,49.7441 ,1.24140 ,1.13032 ,11.09068 
257 ,49.9522 ,1.24348 ,1.13716 ,11.15784 
258 ,50.1443 ,1.24541 ,1.10979 ,10.88921 
259 ,50.3523 ,1.24751 ,1.10979 ,10.88921 
260 ,50.5603 ,1.24950 ,1.07899 ,10.58701 
261 ,50.7523 ,1.25140 ,1.08241 ,10.62059 
262 ,50.9605 ,1.25360 ,1.05503 ,10.35196 
263 ,51.1686 ,1.25555 ,1.05845 ,10.38554 
264 ,51.3444 ,1.25749 ,1.04476 ,10.25123 
265 ,51.5366 ,1.25933 ,1.01396 ,9.94902 
266 ,51.7447 ,1.26137 ,1.00370 ,9.84829 
267 ,51.9207 ,1.26323 ,0.98659 ,9.68039 
268 ,52.1287 ,1.26526 ,0.99001 ,9.71397 
269 ,52.3047 ,1.26707 ,0.96263 ,9.44535 
270 ,52.4968 ,1.26886 ,0.95921 ,9.41177 
271 ,52.7052 ,1.27092 ,0.96263 ,9.44535 
272 ,52.9133 ,1.27306 ,0.94552 ,9.27745 
273 ,53.0896 ,1.27492 ,0.93525 ,9.17672 
274 ,53.2976 ,1.27691 ,0.91814 ,9.00883 
275 ,53.4897 ,1.27883 ,0.90788 ,8.90809 
276 ,53.6976 ,1.28087 ,0.87023 ,8.53873 
277 ,53.9055 ,1.28303 ,0.88392 ,8.67305 
278 ,54.1139 ,1.28505 ,0.85654 ,8.40442 
279 ,54.3060 ,1.28701 ,0.84628 ,8.30368 
280 ,54.5301 ,1.28912 ,0.83601 ,8.20295 
281 ,54.7222 ,1.29118 ,0.82232 ,8.06864 
282 ,54.9142 ,1.29317 ,0.81548 ,8.00148 
283 ,55.0903 ,1.29486 ,0.80179 ,7.86717 
284 ,55.2824 ,1.29680 ,0.78126 ,7.66570 
285 ,55.4744 ,1.29868 ,0.77441 ,7.59854 
286 ,55.6503 ,1.30048 ,0.76757 ,7.53138 
287 ,55.8426 ,1.30236 ,0.75046 ,7.36349 
288 ,56.0507 ,1.30445 ,0.76072 ,7.46423 
289 ,56.2428 ,1.30642 ,0.72650 ,7.12844 
290 ,56.4348 ,1.30827 ,0.70597 ,6.92697 
291 ,56.6268 ,1.31017 ,0.71966 ,7.06129 
292 ,56.8025 ,1.31208 ,0.68201 ,6.69193 
293 ,56.9950 ,1.31387 ,0.68201 ,6.69193 
294 ,57.1712 ,1.31572 ,0.68544 ,6.72550 
295 ,57.3793 ,1.31765 ,0.65464 ,6.42330 
296 ,57.5713 ,1.31961 ,0.66148 ,6.49046 
297 ,57.7793 ,1.32174 ,0.63068 ,6.18825 
298 ,57.9713 ,1.32365 ,0.64095 ,6.28899 
299 ,58.1634 ,1.32560 ,0.63753 ,6.25541 
300 ,58.3235 ,1.32731 ,0.60673 ,5.95320 
301 ,58.5157 ,1.32907 ,0.58619 ,5.75173 
302 ,58.7077 ,1.33101 ,0.58277 ,5.71815 
303 ,58.8838 ,1.33291 ,0.56224 ,5.51668 
304 ,59.0600 ,1.33461 ,0.55539 ,5.44953 
305 ,59.2679 ,1.33658 ,0.55539 ,5.44953 
306 ,59.4601 ,1.33849 ,0.52802 ,5.18090 
307 ,59.6680 ,1.34059 ,0.52802 ,5.18090 
308 ,59.8442 ,1.34241 ,0.52117 ,5.11375 
309 ,60.0359 ,1.34426 ,0.49037 ,4.81154 
310 ,60.2284 ,1.34618 ,0.49722 ,4.87870 
311 ,60.4205 ,1.34809 ,0.48011 ,4.71081 
312 ,60.6285 ,1.35021 ,0.48353 ,4.74438 
313 ,60.8206 ,1.35207 ,0.45957 ,4.50934 
314 ,61.0127 ,1.35404 ,0.44931 ,4.40860 
315 ,61.2047 ,1.35594 ,0.43220 ,4.24071 
316 ,61.3809 ,1.35773 ,0.43220 ,4.24071 
317 ,61.5728 ,1.35975 ,0.43220 ,4.24071 
318 ,61.7649 ,1.36152 ,0.39455 ,3.87135 
319 ,61.9731 ,1.36360 ,0.38771 ,3.80419 
320 ,62.1651 ,1.36558 ,0.38771 ,3.80419 
321 ,62.3409 ,1.36745 ,0.36718 ,3.60272 
322 ,62.5333 ,1.36923 ,0.35691 ,3.50199 
323 ,62.7252 ,1.37117 ,0.36375 ,3.56914 
324 ,62.9173 ,1.37308 ,0.33638 ,3.30052 
325 ,63.0933 ,1.37488 ,0.33638 ,3.30052 
326 ,63.2855 ,1.37673 ,0.32953 ,3.23336 
327 ,63.4775 ,1.37870 ,0.31242 ,3.06547 
328 ,63.6858 ,1.38076 ,0.30900 ,3.03189 
329 ,63.8773 ,1.38264 ,0.27478 ,2.69611 
330 ,64.0694 ,1.38461 ,0.27135 ,2.66253 
331 ,64.2614 ,1.38651 ,0.27135 ,2.66253 
332 ,64.4536 ,1.38847 ,0.25082 ,2.46106 
333 ,64.6457 ,1.39035 ,0.25424 ,2.49464 
334 ,64.8380 ,1.39224 ,0.23029 ,2.25959 
335 ,65.0141 ,1.39411 ,0.20976 ,2.05812 
336 ,65.2223 ,1.39612 ,0.20976 ,2.05812 
337 ,65.4304 ,1.39825 ,0.20976 ,2.05812 
338 ,65.6223 ,1.40027 ,0.19949 ,1.95738 
339 ,65.8143 ,1.40202 ,0.18580 ,1.82307 
340 ,65.9906 ,1.40385 ,0.16527 ,1.62160 
341 ,66.1824 ,1.40568 ,0.16527 ,1.62160 
342 ,66.3750 ,1.40763 ,0.14131 ,1.38655 
343 ,66.5667 ,1.40972 ,0.14816 ,1.45371 
344 ,66.7588 ,1.41158 ,0.12420 ,1.21866 
345 ,66.9509 ,1.41351 ,0.14131 ,1.38655 
346 ,67.1431 ,1.41533 ,0.11736 ,1.15151 
347 ,67.3351 ,1.41724 ,0.09682 ,0.95004 
348 ,67.5271 ,1.41915 ,0.08656 ,0.84930 
349 ,67.7189 ,1.42109 ,0.08656 ,0.84930 
350 ,67.9113 ,1.42301 ,0.06602 ,0.64783 
351 ,68.0875 ,1.42479 ,0.06602 ,0.64783 
352 ,68.3116 ,1.42689 ,0.04891 ,0.47994 
353 ,68.5032 ,1.42894 ,0.05234 ,0.51352 
354 ,68.6797 ,1.43077 ,0.02496 ,0.24489 
355 ,68.8874 ,1.43273 ,0.02496 ,0.24489 
356 ,69.0800 ,1.43464 ,-0.00242 ,-0.02373 
357 ,69.2717 ,1.43661 ,-0.01611 ,-0.15805 
358 ,69.4638 ,1.43853 ,-0.00584 ,-0.05731 
359 ,69.6720 ,1.44052 ,-0.03664 ,-0.35952 
360 ,69.8798 ,1.44265 ,-0.02980 ,-0.29236 
361 ,70.0725 ,1.44460 ,-0.05375 ,-0.52741 
362 ,70.2804 ,1.44670 ,-0.05033 ,-0.49383 
363 ,70.4724 ,1.44862 ,-0.07086 ,-0.69530 
364 ,70.6484 ,1.45040 ,-0.06402 ,-0.62814 
365 ,70.8406 ,1.45222 ,-0.08797 ,-0.86319 
366 ,71.0321 ,1.45429 ,-0.09824 ,-0.96393 
367 ,71.2408 ,1.45613 ,-0.08797 ,-0.86319 
368 ,71.4488 ,1.45830 ,-0.12904 ,-1.26613 
369 ,71.6406 ,1.46022 ,-0.13246 ,-1.29971 
370 ,71.8330 ,1.46222 ,-0.14273 ,-1.40045 
371 ,72.0407 ,1.46423 ,-0.14615 ,-1.43402 
372 ,72.2332 ,1.46620 ,-0.17353 ,-1.70265 
373 ,72.4413 ,1.46823 ,-0.16326 ,-1.60191 
374 ,72.6334 ,1.47025 ,-0.18379 ,-1.80338 
375 ,72.8255 ,1.47216 ,-0.18722 ,-1.83696 
376 ,73.0332 ,1.47414 ,-0.20433 ,-2.00485 
377 ,73.2255 ,1.47605 ,-0.20433 ,-2.00485 
378 ,73.4017 ,1.47796 ,-0.21459 ,-2.10559 
379 ,73.5938 ,1.47986 ,-0.22828 ,-2.23990 
380 ,73.7699 ,1.48166 ,-0.23855 ,-2.34064 
381 ,73.9615 ,1.48354 ,-0.23855 ,-2.34064 
382 ,74.1375 ,1.48525 ,-0.25224 ,-2.47495 
383 ,74.3300 ,1.48714 ,-0.27619 ,-2.71000 
384 ,74.5380 ,1.48924 ,-0.27961 ,-2.74358 
385 ,74.7460 ,1.49128 ,-0.27277 ,-2.67642 
386 ,74.9222 ,1.49315 ,-0.28988 ,-2.84431 
387 ,75.1143 ,1.49497 ,-0.30015 ,-2.94505 
388 ,75.3060 ,1.49690 ,-0.30357 ,-2.97863 
389 ,75.4981 ,1.49891 ,-0.31726 ,-3.11294 
390 ,75.6906 ,1.50080 ,-0.33437 ,-3.28083 
391 ,75.8825 ,1.50268 ,-0.33095 ,-3.24725 
392 ,76.0746 ,1.50456 ,-0.36175 ,-3.54946 
393 ,76.2666 ,1.50650 ,-0.35832 ,-3.51588 
394 ,76.4423 ,1.50831 ,-0.36517 ,-3.58303 
395 ,76.6348 ,1.51017 ,-0.38228 ,-3.75093 
396 ,76.8430 ,1.51227 ,-0.37886 ,-3.71735 
397 ,77.0350 ,1.51424 ,-0.39597 ,-3.88524 
398 ,77.2430 ,1.51631 ,-0.39939 ,-3.91882 
399 ,77.4192 ,1.51812 ,-0.40281 ,-3.95240 
400 ,77.6108 ,1.51995 ,-0.43361 ,-4.25460 
401 ,77.8033 ,1.52185 ,-0.43019 ,-4.22102 
402 ,77.9953 ,1.52376 ,-0.44730 ,-4.38891 
403 ,78.1874 ,1.52565 ,-0.45757 ,-4.48965 
404 ,78.3954 ,1.52778 ,-0.47810 ,-4.69112 
405 ,78.5872 ,1.52970 ,-0.48494 ,-4.75828 
406 ,78.7797 ,1.53164 ,-0.47810 ,-4.69112 
407 ,78.9718 ,1.53352 ,-0.50206 ,-4.92617 
408 ,79.1639 ,1.53545 ,-0.49521 ,-4.85901 
409 ,79.3558 ,1.53744 ,-0.51917 ,-5.09406 
410 ,79.5321 ,1.53924 ,-0.53285 ,-5.22837 
411 ,79.7237 ,1.54110 ,-0.51917 ,-5.09406 
412 ,79.9323 ,1.54307 ,-0.54654 ,-5.36268 
413 ,80.1242 ,1.54518 ,-0.54997 ,-5.39626 
414 ,80.3003 ,1.54688 ,-0.54654 ,-5.36268 
415 ,80.4925 ,1.54874 ,-0.58077 ,-5.69847 
416 ,80.6845 ,1.55066 ,-0.57734 ,-5.66489 
417 ,80.8766 ,1.55253 ,-0.59445 ,-5.83278 
418 ,81.0847 ,1.55472 ,-0.60130 ,-5.89994 
419 ,81.2763 ,1.55660 ,-0.60814 ,-5.96709 
420 ,81.4529 ,1.55842 ,-0.62868 ,-6.16856 
421 ,81.6610 ,1.56042 ,-0.61156 ,-6.00067 
422 ,81.8528 ,1.56237 ,-0.63894 ,-6.26930 
423 ,82.0611 ,1.56437 ,-0.63552 ,-6.23572 
424 ,82.2692 ,1.56651 ,-0.65605 ,-6.43719 
425 ,82.4612 ,1.56843 ,-0.64921 ,-6.37003 
426 ,82.6373 ,1.57023 ,-0.66974 ,-6.57150 
427 ,82.8450 ,1.57232 ,-0.68343 ,-6.70582 
428 ,83.0370 ,1.57420 ,-0.69370 ,-6.80655 
429 ,83.2294 ,1.57607 ,-0.70396 ,-6.90729 
430 ,83.4215 ,1.57802 ,-0.69027 ,-6.77297 
431 ,83.5977 ,1.57983 ,-0.71081 ,-6.97444 
432 ,83.7898 ,1.58175 ,-0.73476 ,-7.20949 
433 ,83.9818 ,1.58362 ,-0.71423 ,-7.00802 
434 ,84.1576 ,1.58543 ,-0.72792 ,-7.14233 
435 ,84.3500 ,1.58725 ,-0.73818 ,-7.24307 
436 ,84.5419 ,1.58928 ,-0.74845 ,-7.34380 
437 ,84.7341 ,1.59118 ,-0.76898 ,-7.54527 
438 ,84.9261 ,1.59305 ,-0.76898 ,-7.54527 
439 ,85.1183 ,1.59500 ,-0.77583 ,-7.61243 
440 ,85.3104 ,1.59696 ,-0.79978 ,-7.84748 
441 ,85.5184 ,1.59897 ,-0.79636 ,-7.81390 
442 ,85.6945 ,1.60082 ,-0.80663 ,-7.91464 
443 ,85.8703 ,1.60261 ,-0.82032 ,-8.04895 
444 ,86.0627 ,1.60449 ,-0.80663 ,-7.91464 
445 ,86.2544 ,1.60640 ,-0.83058 ,-8.14968 
446 ,86.4629 ,1.60831 ,-0.84769 ,-8.31758 
447 ,86.6710 ,1.61047 ,-0.85796 ,-8.41831 
448 ,86.8630 ,1.61247 ,-0.85112 ,-8.35115 
449 ,87.0551 ,1.61435 ,-0.88192 ,-8.65336 
450 ,87.2631 ,1.61643 ,-0.86823 ,-8.51904 
451 ,87.4387 ,1.61830 ,-0.90587 ,-8.88841 
452 ,87.6153 ,1.62002 ,-0.89560 ,-8.78767 
453 ,87.8070 ,1.62190 ,-0.90587 ,-8.88841 
454 ,87.9995 ,1.62375 ,-0.90929 ,-8.92198 
455 ,88.2074 ,1.62587 ,-0.91956 ,-9.02272 
456 ,88.4156 ,1.62797 ,-0.93667 ,-9.19061 
457 ,88.6077 ,1.62988 ,-0.94694 ,-9.29135 
458 ,88.8157 ,1.63194 ,-0.93325 ,-9.15703 
459 ,89.0078 ,1.63385 ,-0.94694 ,-9.29135 
460 ,89.1999 ,1.63579 ,-0.95036 ,-9.32492 
461 ,89.3920 ,1.63774 ,-0.98116 ,-9.62713 
462 ,89.5677 ,1.63955 ,-0.96405 ,-9.45924 
463 ,89.7601 ,1.64140 ,-0.98116 ,-9.62713 
