Data stamp = , 27-04-2022 10:43:55 023

Calibration Values: 
Slope = , 26.54 , g/V 
Offset Voltage at no contact = , -0.501760 , V 

No , Time , Stage Position ,   Mass , Force 
   ,  (s) ,      (mm)      ,   (g)  , (mN)  

1 ,0.0000 ,0.74942 ,5.28825 ,51.88832 
2 ,0.3136 ,0.74965 ,5.28825 ,51.88832 
3 ,0.6315 ,0.75089 ,5.27114 ,51.72043 
4 ,0.8235 ,0.75252 ,5.28141 ,51.82116 
5 ,1.0159 ,0.75436 ,5.28141 ,51.82116 
6 ,1.2078 ,0.75622 ,5.29852 ,51.98905 
7 ,1.3838 ,0.75806 ,5.29852 ,51.98905 
8 ,1.5596 ,0.75975 ,5.28141 ,51.82116 
9 ,1.7521 ,0.76173 ,5.27798 ,51.78758 
10 ,1.9442 ,0.76358 ,5.25403 ,51.55254 
11 ,2.1522 ,0.76565 ,5.23692 ,51.38464 
12 ,2.3440 ,0.76761 ,5.22323 ,51.25033 
13 ,2.5363 ,0.76950 ,5.18559 ,50.88097 
14 ,2.7123 ,0.77134 ,5.16163 ,50.64592 
15 ,2.9044 ,0.77318 ,5.16505 ,50.67950 
16 ,3.0805 ,0.77501 ,5.12399 ,50.27656 
17 ,3.2727 ,0.77683 ,5.12741 ,50.31014 
18 ,3.4644 ,0.77879 ,5.11030 ,50.14225 
19 ,3.6568 ,0.78075 ,5.06923 ,49.73931 
20 ,3.8648 ,0.78277 ,5.05897 ,49.63857 
21 ,4.0570 ,0.78468 ,5.03159 ,49.36995 
22 ,4.2489 ,0.78670 ,5.02474 ,49.30279 
23 ,4.4252 ,0.78844 ,5.00763 ,49.13490 
24 ,4.6008 ,0.79024 ,4.97341 ,48.79911 
25 ,4.8090 ,0.79225 ,4.96657 ,48.73196 
26 ,5.0008 ,0.79419 ,4.94946 ,48.56407 
27 ,5.1929 ,0.79602 ,4.93235 ,48.39618 
28 ,5.3531 ,0.79785 ,4.89470 ,48.02681 
29 ,5.5291 ,0.79951 ,4.89128 ,47.99324 
30 ,5.7213 ,0.80131 ,4.88444 ,47.92608 
31 ,5.9140 ,0.80329 ,4.84679 ,47.55672 
32 ,6.1059 ,0.80521 ,4.83995 ,47.48956 
33 ,6.2977 ,0.80715 ,4.82284 ,47.32167 
34 ,6.4899 ,0.80909 ,4.78861 ,46.98589 
35 ,6.6821 ,0.81097 ,4.78519 ,46.95231 
36 ,6.9058 ,0.81310 ,4.75097 ,46.61653 
37 ,7.0982 ,0.81512 ,4.72359 ,46.34790 
38 ,7.2903 ,0.81703 ,4.72359 ,46.34790 
39 ,7.4983 ,0.81912 ,4.70306 ,46.14643 
40 ,7.6905 ,0.82100 ,4.68937 ,46.01212 
41 ,7.8825 ,0.82307 ,4.65857 ,45.70991 
42 ,8.0586 ,0.82477 ,4.65515 ,45.67633 
43 ,8.2505 ,0.82662 ,4.63462 ,45.47486 
44 ,8.4427 ,0.82855 ,4.62777 ,45.40771 
45 ,8.6028 ,0.83033 ,4.60724 ,45.20624 
46 ,8.7949 ,0.83212 ,4.57644 ,44.90403 
47 ,8.9711 ,0.83388 ,4.56960 ,44.83688 
48 ,9.1790 ,0.83594 ,4.56960 ,44.83688 
49 ,9.3552 ,0.83776 ,4.52511 ,44.40036 
50 ,9.5472 ,0.83957 ,4.52169 ,44.36678 
51 ,9.7394 ,0.84151 ,4.49773 ,44.13173 
52 ,9.9471 ,0.84359 ,4.48404 ,43.99742 
53 ,10.1395 ,0.84554 ,4.47035 ,43.86310 
54 ,10.3316 ,0.84753 ,4.42929 ,43.46016 
55 ,10.5237 ,0.84938 ,4.44298 ,43.59448 
56 ,10.7154 ,0.85130 ,4.39507 ,43.12438 
57 ,10.9078 ,0.85315 ,4.40875 ,43.25870 
58 ,11.1159 ,0.85526 ,4.36769 ,42.85576 
59 ,11.3239 ,0.85738 ,4.37111 ,42.88933 
60 ,11.5160 ,0.85924 ,4.33004 ,42.48639 
61 ,11.7080 ,0.86123 ,4.31293 ,42.31850 
62 ,11.9002 ,0.86308 ,4.30609 ,42.25135 
63 ,12.0918 ,0.86504 ,4.27529 ,41.94914 
64 ,12.3004 ,0.86703 ,4.27529 ,41.94914 
65 ,12.5083 ,0.86923 ,4.22738 ,41.47905 
66 ,12.7004 ,0.87114 ,4.23765 ,41.57978 
67 ,12.8925 ,0.87308 ,4.20342 ,41.24400 
68 ,13.1007 ,0.87506 ,4.18974 ,41.10968 
69 ,13.2928 ,0.87707 ,4.16920 ,40.90821 
70 ,13.4690 ,0.87886 ,4.15551 ,40.77390 
71 ,13.6770 ,0.88087 ,4.12471 ,40.47170 
72 ,13.8691 ,0.88284 ,4.11445 ,40.37096 
73 ,14.0771 ,0.88485 ,4.10418 ,40.27023 
74 ,14.2688 ,0.88678 ,4.08707 ,40.10233 
75 ,14.4614 ,0.88876 ,4.07338 ,39.96802 
76 ,14.6691 ,0.89080 ,4.03916 ,39.63224 
77 ,14.8615 ,0.89267 ,4.04600 ,39.69940 
78 ,15.0374 ,0.89453 ,4.02547 ,39.49793 
79 ,15.2137 ,0.89629 ,3.99809 ,39.22930 
80 ,15.3893 ,0.89806 ,3.98098 ,39.06141 
81 ,15.5817 ,0.89992 ,3.97756 ,39.02783 
82 ,15.7740 ,0.90185 ,3.93307 ,38.59131 
83 ,15.9661 ,0.90377 ,3.93307 ,38.59131 
84 ,16.1741 ,0.90586 ,3.89885 ,38.25553 
85 ,16.3660 ,0.90777 ,3.88174 ,38.08764 
86 ,16.5582 ,0.90968 ,3.89201 ,38.18837 
87 ,16.7504 ,0.91156 ,3.85094 ,37.78543 
88 ,16.9425 ,0.91352 ,3.85436 ,37.81901 
89 ,17.1505 ,0.91553 ,3.82014 ,37.48323 
90 ,17.3426 ,0.91752 ,3.80645 ,37.34891 
91 ,17.5501 ,0.91969 ,3.77908 ,37.08029 
92 ,17.7429 ,0.92151 ,3.76539 ,36.94597 
93 ,17.9508 ,0.92358 ,3.73801 ,36.67735 
94 ,18.1429 ,0.92550 ,3.73801 ,36.67735 
95 ,18.3346 ,0.92746 ,3.71063 ,36.40872 
96 ,18.5268 ,0.92934 ,3.69694 ,36.27441 
97 ,18.7191 ,0.93126 ,3.68325 ,36.14010 
98 ,18.9111 ,0.93327 ,3.65930 ,35.90505 
99 ,19.1033 ,0.93515 ,3.63877 ,35.70358 
100 ,19.2953 ,0.93703 ,3.63192 ,35.63642 
101 ,19.4874 ,0.93896 ,3.60454 ,35.36779 
102 ,19.6793 ,0.94091 ,3.60112 ,35.33422 
103 ,19.8876 ,0.94301 ,3.57032 ,35.03201 
104 ,20.0956 ,0.94502 ,3.56690 ,34.99843 
105 ,20.2556 ,0.94681 ,3.53268 ,34.66265 
106 ,20.4477 ,0.94853 ,3.51215 ,34.46118 
107 ,20.6400 ,0.95052 ,3.50872 ,34.42760 
108 ,20.8320 ,0.95244 ,3.49504 ,34.29329 
109 ,20.9920 ,0.95417 ,3.46766 ,34.02466 
110 ,21.1841 ,0.95594 ,3.45739 ,33.92393 
111 ,21.3600 ,0.95770 ,3.45055 ,33.85677 
112 ,21.5523 ,0.95971 ,3.40606 ,33.42025 
113 ,21.7284 ,0.96140 ,3.40948 ,33.45383 
114 ,21.9362 ,0.96346 ,3.40948 ,33.45383 
115 ,22.1126 ,0.96525 ,3.38210 ,33.18520 
116 ,22.3046 ,0.96713 ,3.34446 ,32.81584 
117 ,22.4808 ,0.96897 ,3.35130 ,32.88300 
118 ,22.6888 ,0.97092 ,3.31366 ,32.51364 
119 ,22.8809 ,0.97292 ,3.31366 ,32.51364 
120 ,23.0889 ,0.97505 ,3.28286 ,32.21143 
121 ,23.2969 ,0.97704 ,3.28286 ,32.21143 
122 ,23.4731 ,0.97882 ,3.26233 ,32.00996 
123 ,23.6812 ,0.98082 ,3.23495 ,31.74134 
124 ,23.8892 ,0.98283 ,3.22811 ,31.67418 
125 ,24.0647 ,0.98475 ,3.18362 ,31.23766 
126 ,24.2573 ,0.98662 ,3.20073 ,31.40555 
127 ,24.4493 ,0.98859 ,3.16993 ,31.10335 
128 ,24.6416 ,0.99047 ,3.15624 ,30.96904 
129 ,24.8336 ,0.99242 ,3.14255 ,30.83472 
130 ,25.0098 ,0.99423 ,3.11860 ,30.59968 
131 ,25.2017 ,0.99608 ,3.09806 ,30.39821 
132 ,25.3938 ,0.99809 ,3.08780 ,30.29747 
133 ,25.5700 ,0.99978 ,3.07411 ,30.16316 
134 ,25.7620 ,1.00171 ,3.04331 ,29.86095 
135 ,25.9541 ,1.00359 ,3.04331 ,29.86095 
136 ,26.1457 ,1.00549 ,3.00909 ,29.52517 
137 ,26.3384 ,1.00751 ,3.00567 ,29.49159 
138 ,26.5624 ,1.00974 ,2.97487 ,29.18939 
139 ,26.7544 ,1.01162 ,2.96802 ,29.12223 
140 ,26.9624 ,1.01367 ,2.94064 ,28.85360 
141 ,27.1381 ,1.01546 ,2.92353 ,28.68571 
142 ,27.3147 ,1.01723 ,2.90985 ,28.55140 
143 ,27.5226 ,1.01925 ,2.87905 ,28.24919 
144 ,27.7147 ,1.02115 ,2.89273 ,28.38351 
145 ,27.9067 ,1.02318 ,2.85509 ,28.01415 
146 ,28.0829 ,1.02494 ,2.83798 ,27.84625 
147 ,28.2590 ,1.02672 ,2.83798 ,27.84625 
148 ,28.4352 ,1.02847 ,2.81402 ,27.61121 
149 ,28.6436 ,1.03048 ,2.78322 ,27.30900 
150 ,28.8353 ,1.03239 ,2.79007 ,27.37616 
151 ,29.0435 ,1.03451 ,2.74900 ,26.97322 
152 ,29.2353 ,1.03640 ,2.75585 ,27.04038 
153 ,29.4431 ,1.03848 ,2.71820 ,26.67101 
154 ,29.6194 ,1.04036 ,2.72163 ,26.70459 
155 ,29.8112 ,1.04217 ,2.69767 ,26.46954 
156 ,30.0031 ,1.04406 ,2.67372 ,26.23450 
157 ,30.1956 ,1.04600 ,2.65660 ,26.06661 
158 ,30.4197 ,1.04826 ,2.63949 ,25.89871 
159 ,30.6279 ,1.05030 ,2.61896 ,25.69724 
160 ,30.8195 ,1.05225 ,2.58474 ,25.36146 
161 ,31.0119 ,1.05416 ,2.59843 ,25.49577 
162 ,31.2203 ,1.05615 ,2.57447 ,25.26073 
163 ,31.4124 ,1.05817 ,2.55736 ,25.09283 
164 ,31.6040 ,1.06015 ,2.55052 ,25.02568 
165 ,31.7805 ,1.06193 ,2.52314 ,24.75705 
166 ,31.9726 ,1.06377 ,2.51972 ,24.72347 
167 ,32.1802 ,1.06587 ,2.48207 ,24.35411 
168 ,32.3565 ,1.06765 ,2.46839 ,24.21980 
169 ,32.5487 ,1.06950 ,2.46496 ,24.18622 
170 ,32.7247 ,1.07136 ,2.44101 ,23.95117 
171 ,32.9169 ,1.07314 ,2.44101 ,23.95117 
172 ,33.1250 ,1.07525 ,2.40679 ,23.61539 
173 ,33.3170 ,1.07715 ,2.39652 ,23.51465 
174 ,33.5091 ,1.07913 ,2.39652 ,23.51465 
175 ,33.6853 ,1.08094 ,2.37256 ,23.27961 
176 ,33.8933 ,1.08285 ,2.35203 ,23.07814 
177 ,34.0853 ,1.08486 ,2.32465 ,22.80951 
178 ,34.2615 ,1.08672 ,2.31097 ,22.67520 
179 ,34.4535 ,1.08856 ,2.31097 ,22.67520 
180 ,34.6456 ,1.09051 ,2.29385 ,22.50731 
181 ,34.8212 ,1.09234 ,2.26306 ,22.20510 
182 ,35.0138 ,1.09417 ,2.25963 ,22.17152 
183 ,35.2058 ,1.09608 ,2.24252 ,22.00363 
184 ,35.3979 ,1.09795 ,2.21857 ,21.76858 
185 ,35.5901 ,1.09987 ,2.21172 ,21.70143 
186 ,35.7820 ,1.10185 ,2.20830 ,21.66785 
187 ,35.9742 ,1.10373 ,2.18435 ,21.43280 
188 ,36.1502 ,1.10557 ,2.16723 ,21.26491 
189 ,36.3264 ,1.10733 ,2.16723 ,21.26491 
190 ,36.5184 ,1.10923 ,2.12617 ,20.86197 
191 ,36.7264 ,1.11126 ,2.12617 ,20.86197 
192 ,36.9185 ,1.11319 ,2.08510 ,20.45903 
193 ,37.1106 ,1.11515 ,2.08852 ,20.49261 
194 ,37.3183 ,1.11720 ,2.06115 ,20.22398 
195 ,37.5108 ,1.11911 ,2.06799 ,20.29114 
196 ,37.7029 ,1.12104 ,2.03035 ,19.92178 
197 ,37.8950 ,1.12296 ,2.01666 ,19.78746 
198 ,38.0866 ,1.12487 ,2.02693 ,19.88820 
199 ,38.2791 ,1.12676 ,1.99270 ,19.55241 
200 ,38.4872 ,1.12882 ,1.98928 ,19.51884 
201 ,38.7113 ,1.13098 ,1.95506 ,19.18305 
202 ,38.9033 ,1.13306 ,1.95848 ,19.21663 
203 ,39.0954 ,1.13494 ,1.93795 ,19.01516 
204 ,39.3196 ,1.13713 ,1.92426 ,18.88085 
205 ,39.5116 ,1.13917 ,1.90715 ,18.71296 
206 ,39.6717 ,1.14090 ,1.89004 ,18.54507 
207 ,39.8476 ,1.14252 ,1.89346 ,18.57864 
208 ,40.0238 ,1.14427 ,1.88319 ,18.47791 
209 ,40.2157 ,1.14615 ,1.84555 ,18.10855 
210 ,40.4240 ,1.14819 ,1.84213 ,18.07497 
211 ,40.6320 ,1.15036 ,1.82502 ,17.90708 
212 ,40.8242 ,1.15223 ,1.81817 ,17.83992 
213 ,41.0162 ,1.15415 ,1.77369 ,17.40340 
214 ,41.2243 ,1.15626 ,1.79080 ,17.57129 
215 ,41.4164 ,1.15822 ,1.76684 ,17.33625 
216 ,41.6084 ,1.16014 ,1.74973 ,17.16836 
217 ,41.8005 ,1.16205 ,1.74631 ,17.13478 
218 ,42.0087 ,1.16412 ,1.73262 ,17.00046 
219 ,42.2167 ,1.16616 ,1.69840 ,16.66468 
220 ,42.4086 ,1.16811 ,1.68129 ,16.49679 
221 ,42.6007 ,1.17013 ,1.66418 ,16.32890 
222 ,42.7930 ,1.17192 ,1.65049 ,16.19458 
223 ,42.9852 ,1.17383 ,1.67444 ,16.42963 
224 ,43.1931 ,1.17593 ,1.63338 ,16.02669 
225 ,43.3532 ,1.17769 ,1.61969 ,15.89238 
226 ,43.5288 ,1.17938 ,1.61284 ,15.82522 
227 ,43.7214 ,1.18123 ,1.60942 ,15.79164 
228 ,43.9295 ,1.18332 ,1.58204 ,15.52302 
229 ,44.1216 ,1.18524 ,1.57862 ,15.48944 
230 ,44.3297 ,1.18716 ,1.55467 ,15.25439 
231 ,44.5378 ,1.18935 ,1.55124 ,15.22081 
232 ,44.7138 ,1.19122 ,1.51702 ,14.88503 
233 ,44.9055 ,1.19301 ,1.51360 ,14.85145 
234 ,45.1140 ,1.19511 ,1.49307 ,14.64998 
235 ,45.3059 ,1.19706 ,1.49307 ,14.64998 
236 ,45.4981 ,1.19896 ,1.48622 ,14.58283 
237 ,45.6898 ,1.20091 ,1.45885 ,14.31420 
238 ,45.8822 ,1.20282 ,1.45200 ,14.24704 
239 ,46.0583 ,1.20461 ,1.42805 ,14.01199 
240 ,46.2504 ,1.20643 ,1.41094 ,13.84410 
241 ,46.4426 ,1.20847 ,1.41436 ,13.87768 
242 ,46.6506 ,1.21037 ,1.39040 ,13.64263 
243 ,46.8261 ,1.21237 ,1.38014 ,13.54190 
244 ,47.0186 ,1.21416 ,1.37329 ,13.47474 
245 ,47.2107 ,1.21611 ,1.33907 ,13.13896 
246 ,47.4188 ,1.21812 ,1.34934 ,13.23969 
247 ,47.6107 ,1.22003 ,1.31854 ,12.93749 
248 ,47.8190 ,1.22218 ,1.31854 ,12.93749 
249 ,48.0271 ,1.22420 ,1.29458 ,12.70244 
250 ,48.2510 ,1.22639 ,1.27405 ,12.50097 
251 ,48.4435 ,1.22841 ,1.27747 ,12.53455 
252 ,48.6510 ,1.23053 ,1.24667 ,12.23235 
253 ,48.8594 ,1.23251 ,1.24667 ,12.23235 
254 ,49.0510 ,1.23458 ,1.21929 ,11.96372 
255 ,49.2436 ,1.23639 ,1.22956 ,12.06445 
256 ,49.4353 ,1.23834 ,1.22614 ,12.03088 
257 ,49.6276 ,1.24023 ,1.17481 ,11.52720 
258 ,49.8193 ,1.24217 ,1.19192 ,11.69509 
259 ,49.9956 ,1.24397 ,1.17823 ,11.56078 
260 ,50.2200 ,1.24606 ,1.14401 ,11.22500 
261 ,50.4276 ,1.24819 ,1.13374 ,11.12426 
262 ,50.6201 ,1.25010 ,1.13032 ,11.09068 
263 ,50.8280 ,1.25223 ,1.09610 ,10.75490 
264 ,51.0202 ,1.25411 ,1.12347 ,11.02353 
265 ,51.2123 ,1.25621 ,1.07899 ,10.58701 
266 ,51.4045 ,1.25800 ,1.08583 ,10.65416 
267 ,51.5961 ,1.26003 ,1.06530 ,10.45270 
268 ,51.7885 ,1.26184 ,1.05161 ,10.31838 
269 ,51.9806 ,1.26373 ,1.03792 ,10.18407 
270 ,52.1884 ,1.26584 ,1.01739 ,9.98260 
271 ,52.3807 ,1.26780 ,1.01054 ,9.91544 
272 ,52.5889 ,1.26981 ,0.99001 ,9.71397 
273 ,52.7807 ,1.27175 ,0.98317 ,9.64682 
274 ,52.9731 ,1.27373 ,0.97974 ,9.61324 
275 ,53.1651 ,1.27561 ,0.95237 ,9.34461 
276 ,53.3571 ,1.27752 ,0.95579 ,9.37819 
277 ,53.5332 ,1.27937 ,0.94210 ,9.24388 
278 ,53.7093 ,1.28105 ,0.93183 ,9.14314 
279 ,53.9173 ,1.28310 ,0.90788 ,8.90809 
280 ,54.1094 ,1.28504 ,0.90103 ,8.84094 
281 ,54.3016 ,1.28699 ,0.88392 ,8.67305 
282 ,54.4935 ,1.28889 ,0.88050 ,8.63947 
283 ,54.7177 ,1.29112 ,0.85997 ,8.43800 
284 ,54.9258 ,1.29320 ,0.83259 ,8.16937 
285 ,55.1177 ,1.29510 ,0.83943 ,8.23653 
286 ,55.3099 ,1.29704 ,0.82575 ,8.10221 
287 ,55.5021 ,1.29896 ,0.79837 ,7.83359 
288 ,55.6942 ,1.30090 ,0.80863 ,7.93432 
289 ,55.9022 ,1.30295 ,0.78126 ,7.66570 
290 ,56.0783 ,1.30475 ,0.78126 ,7.66570 
291 ,56.2703 ,1.30664 ,0.77441 ,7.59854 
292 ,56.4624 ,1.30854 ,0.74019 ,7.26276 
293 ,56.6542 ,1.31050 ,0.75046 ,7.36349 
294 ,56.8625 ,1.31256 ,0.70939 ,6.96055 
295 ,57.0707 ,1.31463 ,0.71624 ,7.02771 
296 ,57.2627 ,1.31658 ,0.68886 ,6.75908 
297 ,57.4707 ,1.31859 ,0.69228 ,6.79266 
298 ,57.6627 ,1.32056 ,0.67517 ,6.62477 
299 ,57.8547 ,1.32254 ,0.66490 ,6.52403 
300 ,58.0631 ,1.32454 ,0.64095 ,6.28899 
301 ,58.2551 ,1.32649 ,0.64437 ,6.32256 
302 ,58.4473 ,1.32840 ,0.63410 ,6.22183 
303 ,58.6551 ,1.33049 ,0.60673 ,5.95320 
304 ,58.8473 ,1.33248 ,0.61699 ,6.05394 
305 ,59.0553 ,1.33449 ,0.59646 ,5.85247 
306 ,59.2476 ,1.33643 ,0.58962 ,5.78531 
307 ,59.4393 ,1.33830 ,0.56566 ,5.55026 
308 ,59.6157 ,1.34012 ,0.55539 ,5.44953 
309 ,59.7913 ,1.34196 ,0.55197 ,5.41595 
310 ,59.9839 ,1.34379 ,0.53144 ,5.21448 
311 ,60.1760 ,1.34567 ,0.52459 ,5.14732 
312 ,60.3841 ,1.34777 ,0.52459 ,5.14732 
313 ,60.5761 ,1.34970 ,0.50064 ,4.91228 
314 ,60.8003 ,1.35190 ,0.48695 ,4.77796 
315 ,60.9922 ,1.35387 ,0.47668 ,4.67723 
316 ,61.2004 ,1.35591 ,0.46642 ,4.57649 
317 ,61.4085 ,1.35793 ,0.46300 ,4.54291 
318 ,61.6166 ,1.36009 ,0.43904 ,4.30787 
319 ,61.8086 ,1.36203 ,0.44588 ,4.37502 
320 ,62.0007 ,1.36398 ,0.41509 ,4.07282 
321 ,62.1931 ,1.36586 ,0.40824 ,4.00566 
322 ,62.3849 ,1.36777 ,0.41166 ,4.03924 
323 ,62.5930 ,1.36984 ,0.38429 ,3.77061 
324 ,62.7851 ,1.37175 ,0.38771 ,3.80419 
325 ,62.9769 ,1.37373 ,0.35691 ,3.50199 
326 ,63.2013 ,1.37583 ,0.36375 ,3.56914 
327 ,63.4092 ,1.37809 ,0.34664 ,3.40125 
328 ,63.6010 ,1.37994 ,0.34322 ,3.36767 
329 ,63.7931 ,1.38195 ,0.31584 ,3.09905 
330 ,63.9692 ,1.38366 ,0.30558 ,2.99831 
331 ,64.1292 ,1.38539 ,0.30215 ,2.96473 
332 ,64.3214 ,1.38710 ,0.29531 ,2.89758 
333 ,64.5139 ,1.38905 ,0.27820 ,2.72969 
334 ,64.7219 ,1.39119 ,0.27820 ,2.72969 
335 ,64.9136 ,1.39300 ,0.25424 ,2.49464 
336 ,65.0896 ,1.39484 ,0.24055 ,2.36032 
337 ,65.2818 ,1.39670 ,0.25082 ,2.46106 
338 ,65.4577 ,1.39858 ,0.21318 ,2.09170 
339 ,65.6338 ,1.40035 ,0.23029 ,2.25959 
340 ,65.8259 ,1.40211 ,0.21660 ,2.12528 
341 ,66.0020 ,1.40402 ,0.20633 ,2.02454 
342 ,66.1942 ,1.40584 ,0.18580 ,1.82307 
343 ,66.3701 ,1.40772 ,0.17896 ,1.75592 
344 ,66.5621 ,1.40949 ,0.17553 ,1.72234 
345 ,66.7543 ,1.41144 ,0.15500 ,1.52087 
346 ,66.9303 ,1.41333 ,0.15158 ,1.48729 
347 ,67.1224 ,1.41510 ,0.14473 ,1.42013 
348 ,67.3145 ,1.41699 ,0.12420 ,1.21866 
349 ,67.4905 ,1.41896 ,0.11051 ,1.08435 
350 ,67.6827 ,1.42069 ,0.12078 ,1.18508 
351 ,67.8587 ,1.42257 ,0.09340 ,0.91646 
352 ,68.0508 ,1.42440 ,0.07287 ,0.71499 
353 ,68.2429 ,1.42631 ,0.08314 ,0.81572 
354 ,68.4191 ,1.42820 ,0.06260 ,0.61425 
355 ,68.6110 ,1.42999 ,0.05576 ,0.54710 
356 ,68.8031 ,1.43190 ,0.05234 ,0.51352 
357 ,68.9953 ,1.43381 ,0.04207 ,0.41278 
358 ,69.1713 ,1.43572 ,0.01811 ,0.17773 
359 ,69.3633 ,1.43750 ,0.02496 ,0.24489 
360 ,69.5553 ,1.43942 ,0.01127 ,0.11058 
361 ,69.7315 ,1.44130 ,-0.00926 ,-0.09089 
362 ,69.9236 ,1.44311 ,-0.00584 ,-0.05731 
363 ,70.1321 ,1.44511 ,-0.01611 ,-0.15805 
364 ,70.3401 ,1.44732 ,-0.03664 ,-0.35952 
365 ,70.5160 ,1.44910 ,-0.03322 ,-0.32594 
366 ,70.7082 ,1.45100 ,-0.06402 ,-0.62814 
367 ,70.9163 ,1.45302 ,-0.07086 ,-0.69530 
368 ,71.1084 ,1.45496 ,-0.08797 ,-0.86319 
369 ,71.3164 ,1.45705 ,-0.07086 ,-0.69530 
370 ,71.4925 ,1.45885 ,-0.08797 ,-0.86319 
371 ,71.6842 ,1.46075 ,-0.10166 ,-0.99751 
372 ,71.8767 ,1.46263 ,-0.10166 ,-0.99751 
373 ,72.0848 ,1.46470 ,-0.12219 ,-1.19898 
374 ,72.2610 ,1.46656 ,-0.12904 ,-1.26613 
375 ,72.4530 ,1.46846 ,-0.13588 ,-1.33329 
376 ,72.6445 ,1.47035 ,-0.15642 ,-1.53476 
377 ,72.8531 ,1.47241 ,-0.15299 ,-1.50118 
378 ,73.0612 ,1.47449 ,-0.17353 ,-1.70265 
379 ,73.2532 ,1.47639 ,-0.18722 ,-1.83696 
380 ,73.4454 ,1.47834 ,-0.20433 ,-2.00485 
381 ,73.6375 ,1.48025 ,-0.19748 ,-1.93770 
382 ,73.8132 ,1.48213 ,-0.21117 ,-2.07201 
383 ,74.0056 ,1.48392 ,-0.23170 ,-2.27348 
384 ,74.2136 ,1.48602 ,-0.22828 ,-2.23990 
385 ,74.3898 ,1.48784 ,-0.24539 ,-2.40779 
386 ,74.5818 ,1.48971 ,-0.27277 ,-2.67642 
387 ,74.7899 ,1.49163 ,-0.26593 ,-2.60926 
388 ,74.9816 ,1.49379 ,-0.26935 ,-2.64284 
389 ,75.1581 ,1.49554 ,-0.28304 ,-2.77716 
390 ,75.3501 ,1.49733 ,-0.28988 ,-2.84431 
391 ,75.5582 ,1.49940 ,-0.28988 ,-2.84431 
392 ,75.7502 ,1.50138 ,-0.31384 ,-3.07936 
393 ,75.9423 ,1.50332 ,-0.33779 ,-3.31441 
394 ,76.1344 ,1.50523 ,-0.32068 ,-3.14652 
395 ,76.3263 ,1.50720 ,-0.34121 ,-3.34799 
396 ,76.5185 ,1.50899 ,-0.34121 ,-3.34799 
397 ,76.6947 ,1.51086 ,-0.34806 ,-3.41514 
398 ,76.8866 ,1.51270 ,-0.37544 ,-3.68377 
399 ,77.0945 ,1.51479 ,-0.36859 ,-3.61661 
400 ,77.2867 ,1.51675 ,-0.37886 ,-3.71735 
401 ,77.4950 ,1.51879 ,-0.38912 ,-3.81808 
402 ,77.6870 ,1.52073 ,-0.41650 ,-4.08671 
403 ,77.8792 ,1.52271 ,-0.43019 ,-4.22102 
404 ,78.0712 ,1.52459 ,-0.41992 ,-4.12029 
405 ,78.2632 ,1.52645 ,-0.44388 ,-4.35534 
406 ,78.4553 ,1.52835 ,-0.44388 ,-4.35534 
407 ,78.6630 ,1.53048 ,-0.46441 ,-4.55681 
408 ,78.8555 ,1.53246 ,-0.47126 ,-4.62396 
409 ,79.0637 ,1.53449 ,-0.49521 ,-4.85901 
410 ,79.2553 ,1.53640 ,-0.48494 ,-4.75828 
411 ,79.4477 ,1.53836 ,-0.48494 ,-4.75828 
412 ,79.6554 ,1.54040 ,-0.50548 ,-4.95975 
413 ,79.8320 ,1.54221 ,-0.50206 ,-4.92617 
414 ,80.0240 ,1.54415 ,-0.52943 ,-5.19479 
415 ,80.2160 ,1.54599 ,-0.53970 ,-5.29553 
416 ,80.3918 ,1.54787 ,-0.53285 ,-5.22837 
417 ,80.5683 ,1.54956 ,-0.53628 ,-5.26195 
418 ,80.7598 ,1.55142 ,-0.57392 ,-5.63131 
419 ,80.9521 ,1.55336 ,-0.57050 ,-5.59773 
420 ,81.1441 ,1.55527 ,-0.57050 ,-5.59773 
421 ,81.3201 ,1.55719 ,-0.58761 ,-5.76562 
422 ,81.5120 ,1.55893 ,-0.60130 ,-5.89994 
423 ,81.7043 ,1.56084 ,-0.60472 ,-5.93352 
424 ,81.8965 ,1.56284 ,-0.62183 ,-6.10141 
425 ,82.1048 ,1.56488 ,-0.61499 ,-6.03425 
426 ,82.2968 ,1.56680 ,-0.64236 ,-6.30288 
427 ,82.4886 ,1.56868 ,-0.62868 ,-6.16856 
428 ,82.6811 ,1.57068 ,-0.64236 ,-6.30288 
429 ,82.8892 ,1.57275 ,-0.65263 ,-6.40361 
430 ,83.0972 ,1.57483 ,-0.68343 ,-6.70582 
431 ,83.2892 ,1.57680 ,-0.67659 ,-6.63866 
432 ,83.4814 ,1.57868 ,-0.70054 ,-6.87371 
433 ,83.6735 ,1.58060 ,-0.70054 ,-6.87371 
434 ,83.8815 ,1.58263 ,-0.70396 ,-6.90729 
435 ,84.0737 ,1.58461 ,-0.72450 ,-7.10876 
436 ,84.2818 ,1.58670 ,-0.72792 ,-7.14233 
437 ,84.4738 ,1.58858 ,-0.73476 ,-7.20949 
438 ,84.6815 ,1.59065 ,-0.74845 ,-7.34380 
439 ,84.8899 ,1.59263 ,-0.75872 ,-7.44454 
440 ,85.0980 ,1.59478 ,-0.77925 ,-7.64601 
441 ,85.2901 ,1.59672 ,-0.77583 ,-7.61243 
442 ,85.4821 ,1.59869 ,-0.76556 ,-7.51170 
443 ,85.6901 ,1.60059 ,-0.79636 ,-7.81390 
444 ,85.8824 ,1.60279 ,-0.79978 ,-7.84748 
445 ,86.0742 ,1.60459 ,-0.81689 ,-8.01537 
446 ,86.2664 ,1.60653 ,-0.81005 ,-7.94821 
447 ,86.4583 ,1.60852 ,-0.83401 ,-8.18326 
448 ,86.6345 ,1.61025 ,-0.83401 ,-8.18326 
449 ,86.8103 ,1.61204 ,-0.82716 ,-8.11611 
450 ,87.0029 ,1.61386 ,-0.84427 ,-8.28400 
451 ,87.2110 ,1.61593 ,-0.87165 ,-8.55262 
452 ,87.4191 ,1.61793 ,-0.86138 ,-8.45189 
453 ,87.6110 ,1.61996 ,-0.87507 ,-8.58620 
454 ,87.8032 ,1.62182 ,-0.87165 ,-8.55262 
455 ,88.0111 ,1.62394 ,-0.90587 ,-8.88841 
456 ,88.2033 ,1.62586 ,-0.89903 ,-8.82125 
457 ,88.3793 ,1.62771 ,-0.91956 ,-9.02272 
458 ,88.5551 ,1.62943 ,-0.91272 ,-8.95556 
459 ,88.7316 ,1.63119 ,-0.93667 ,-9.19061 
460 ,88.9397 ,1.63326 ,-0.92983 ,-9.12345 
461 ,89.1478 ,1.63519 ,-0.94694 ,-9.29135 
462 ,89.3399 ,1.63724 ,-0.95036 ,-9.32492 
463 ,89.5318 ,1.63914 ,-0.96747 ,-9.49282 
