Data stamp = , 27-04-2022 23:52:56 509

Calibration Values: 
Slope = , 26.54 , g/V 
Offset Voltage at no contact = , -0.501760 , V 

No , Time , Stage Position ,   Mass , Force 
   ,  (s) ,      (mm)      ,   (g)  , (mN)  

1 ,0.0000 ,0.74942 ,5.25061 ,51.51896 
2 ,0.2086 ,0.74950 ,5.25745 ,51.58611 
3 ,0.7373 ,0.75125 ,5.25403 ,51.55254 
4 ,0.9451 ,0.75360 ,5.25745 ,51.58611 
5 ,1.1534 ,0.75557 ,5.27798 ,51.78758 
6 ,1.3614 ,0.75768 ,5.27456 ,51.75401 
7 ,1.5695 ,0.75981 ,5.23692 ,51.38464 
8 ,1.7778 ,0.76194 ,5.25061 ,51.51896 
9 ,1.9859 ,0.76402 ,5.22665 ,51.28391 
10 ,2.1780 ,0.76592 ,5.21639 ,51.18317 
11 ,2.4020 ,0.76809 ,5.18216 ,50.84739 
12 ,2.5941 ,0.77009 ,5.16505 ,50.67950 
13 ,2.7862 ,0.77205 ,5.14794 ,50.51161 
14 ,2.9622 ,0.77386 ,5.14110 ,50.44445 
15 ,3.1539 ,0.77570 ,5.12399 ,50.27656 
16 ,3.3300 ,0.77756 ,5.10003 ,50.04151 
17 ,3.5220 ,0.77941 ,5.08634 ,49.90720 
18 ,3.6981 ,0.78122 ,5.05554 ,49.60499 
19 ,3.8742 ,0.78298 ,5.03159 ,49.36995 
20 ,4.0507 ,0.78473 ,5.03501 ,49.40352 
21 ,4.2423 ,0.78667 ,5.02817 ,49.33637 
22 ,4.4347 ,0.78849 ,5.00079 ,49.06774 
23 ,4.6427 ,0.79058 ,4.97341 ,48.79911 
24 ,4.8510 ,0.79256 ,4.97341 ,48.79911 
25 ,5.0589 ,0.79470 ,4.93577 ,48.42975 
26 ,5.2512 ,0.79670 ,4.90839 ,48.16113 
27 ,5.4593 ,0.79873 ,4.89470 ,48.02681 
28 ,5.6512 ,0.80065 ,4.87759 ,47.85892 
29 ,5.8272 ,0.80249 ,4.85364 ,47.62387 
30 ,6.0355 ,0.80450 ,4.83995 ,47.48956 
31 ,6.2275 ,0.80644 ,4.81599 ,47.25451 
32 ,6.4033 ,0.80826 ,4.79546 ,47.05304 
33 ,6.5952 ,0.81005 ,4.80230 ,47.12020 
34 ,6.7874 ,0.81195 ,4.75782 ,46.68368 
35 ,6.9797 ,0.81400 ,4.74755 ,46.58295 
36 ,7.1719 ,0.81585 ,4.73728 ,46.48221 
37 ,7.3638 ,0.81781 ,4.69964 ,46.11285 
38 ,7.5561 ,0.81969 ,4.69964 ,46.11285 
39 ,7.7480 ,0.82165 ,4.65515 ,45.67633 
40 ,7.9399 ,0.82350 ,4.65173 ,45.64275 
41 ,8.1324 ,0.82544 ,4.63462 ,45.47486 
42 ,8.3244 ,0.82737 ,4.60724 ,45.20624 
43 ,8.5321 ,0.82932 ,4.61408 ,45.27339 
44 ,8.7405 ,0.83145 ,4.57986 ,44.93761 
45 ,8.9326 ,0.83343 ,4.57302 ,44.87045 
46 ,9.1247 ,0.83531 ,4.55933 ,44.73614 
47 ,9.3329 ,0.83738 ,4.52853 ,44.43394 
48 ,9.5248 ,0.83948 ,4.51484 ,44.29962 
49 ,9.7173 ,0.84129 ,4.51142 ,44.26604 
50 ,9.9251 ,0.84339 ,4.46351 ,43.79595 
51 ,10.1331 ,0.84538 ,4.46693 ,43.82953 
52 ,10.3252 ,0.84736 ,4.43271 ,43.49374 
53 ,10.5174 ,0.84929 ,4.41902 ,43.35943 
54 ,10.7089 ,0.85123 ,4.40191 ,43.19154 
55 ,10.9014 ,0.85312 ,4.38138 ,42.99007 
56 ,11.1092 ,0.85524 ,4.37795 ,42.95649 
57 ,11.3016 ,0.85713 ,4.35058 ,42.68786 
58 ,11.4936 ,0.85904 ,4.34373 ,42.62071 
59 ,11.6858 ,0.86102 ,4.29582 ,42.15061 
60 ,11.8778 ,0.86289 ,4.29240 ,42.11703 
61 ,12.0697 ,0.86483 ,4.29240 ,42.11703 
62 ,12.2459 ,0.86663 ,4.26160 ,41.81483 
63 ,12.4540 ,0.86869 ,4.24791 ,41.68051 
64 ,12.6460 ,0.87063 ,4.23765 ,41.57978 
65 ,12.8538 ,0.87255 ,4.21369 ,41.34473 
66 ,13.0623 ,0.87465 ,4.19316 ,41.14326 
67 ,13.2701 ,0.87684 ,4.18289 ,41.04253 
68 ,13.4624 ,0.87870 ,4.13498 ,40.57243 
69 ,13.6546 ,0.88070 ,4.14183 ,40.63959 
70 ,13.8627 ,0.88270 ,4.11103 ,40.33738 
71 ,14.0386 ,0.88459 ,4.09734 ,40.20307 
72 ,14.2147 ,0.88633 ,4.09734 ,40.20307 
73 ,14.4065 ,0.88819 ,4.06996 ,39.93444 
74 ,14.5990 ,0.89014 ,4.05285 ,39.76655 
75 ,14.7910 ,0.89200 ,4.03916 ,39.63224 
76 ,14.9831 ,0.89398 ,4.02547 ,39.49793 
77 ,15.1912 ,0.89596 ,4.01178 ,39.36361 
78 ,15.3992 ,0.89807 ,3.97756 ,39.02783 
79 ,15.5915 ,0.90000 ,3.96387 ,38.89352 
80 ,15.7835 ,0.90194 ,3.93650 ,38.62489 
81 ,15.9915 ,0.90399 ,3.93992 ,38.65847 
82 ,16.1676 ,0.90591 ,3.90227 ,38.28911 
83 ,16.3438 ,0.90756 ,3.89201 ,38.18837 
84 ,16.5358 ,0.90950 ,3.87490 ,38.02048 
85 ,16.7278 ,0.91138 ,3.86463 ,37.91975 
86 ,16.9199 ,0.91328 ,3.83041 ,37.58396 
87 ,17.1279 ,0.91537 ,3.82699 ,37.55038 
88 ,17.3041 ,0.91724 ,3.79961 ,37.28176 
89 ,17.4959 ,0.91909 ,3.78250 ,37.11387 
90 ,17.7043 ,0.92115 ,3.76196 ,36.91240 
91 ,17.8962 ,0.92307 ,3.74828 ,36.77808 
92 ,18.0883 ,0.92495 ,3.75170 ,36.81166 
93 ,18.2641 ,0.92676 ,3.71748 ,36.47588 
94 ,18.4564 ,0.92868 ,3.68668 ,36.17367 
95 ,18.6646 ,0.93071 ,3.68325 ,36.14010 
96 ,18.8566 ,0.93266 ,3.65588 ,35.87147 
97 ,19.0648 ,0.93475 ,3.65246 ,35.83789 
98 ,19.2568 ,0.93668 ,3.63192 ,35.63642 
99 ,19.4647 ,0.93872 ,3.62508 ,35.56926 
100 ,19.6569 ,0.94068 ,3.58059 ,35.13275 
101 ,19.8651 ,0.94269 ,3.58059 ,35.13275 
102 ,20.0571 ,0.94467 ,3.55321 ,34.86412 
103 ,20.2492 ,0.94661 ,3.55663 ,34.89770 
104 ,20.4409 ,0.94855 ,3.51899 ,34.52834 
105 ,20.6333 ,0.95046 ,3.50872 ,34.42760 
106 ,20.8414 ,0.95245 ,3.47792 ,34.12540 
107 ,21.0178 ,0.95432 ,3.47450 ,34.09182 
108 ,21.2096 ,0.95617 ,3.47108 ,34.05824 
109 ,21.4179 ,0.95826 ,3.42659 ,33.62172 
110 ,21.6098 ,0.96015 ,3.43001 ,33.65530 
111 ,21.8019 ,0.96207 ,3.39579 ,33.31952 
112 ,21.9940 ,0.96404 ,3.37868 ,33.15163 
113 ,22.1859 ,0.96595 ,3.37526 ,33.11805 
114 ,22.3783 ,0.96785 ,3.34446 ,32.81584 
115 ,22.5701 ,0.96978 ,3.33419 ,32.71511 
116 ,22.7622 ,0.97177 ,3.33077 ,32.68153 
117 ,22.9544 ,0.97362 ,3.29655 ,32.34575 
118 ,23.1463 ,0.97553 ,3.27944 ,32.17786 
119 ,23.3224 ,0.97734 ,3.27602 ,32.14428 
120 ,23.5145 ,0.97920 ,3.24180 ,31.80849 
121 ,23.7223 ,0.98133 ,3.23495 ,31.74134 
122 ,23.9150 ,0.98324 ,3.21100 ,31.50629 
123 ,24.1229 ,0.98529 ,3.20415 ,31.43913 
124 ,24.3149 ,0.98725 ,3.17335 ,31.13693 
125 ,24.4909 ,0.98904 ,3.15966 ,31.00262 
126 ,24.6831 ,0.99085 ,3.14940 ,30.90188 
127 ,24.8751 ,0.99283 ,3.12202 ,30.63325 
128 ,25.0513 ,0.99462 ,3.10833 ,30.49894 
129 ,25.2592 ,0.99660 ,3.09464 ,30.36463 
130 ,25.4514 ,0.99860 ,3.08438 ,30.26389 
131 ,25.6595 ,1.00067 ,3.05358 ,29.96169 
132 ,25.8672 ,1.00270 ,3.04673 ,29.89453 
133 ,26.0595 ,1.00466 ,3.02620 ,29.69306 
134 ,26.2674 ,1.00669 ,3.00224 ,29.45801 
135 ,26.4434 ,1.00856 ,2.99540 ,29.39086 
136 ,26.6517 ,1.01063 ,2.97829 ,29.22297 
137 ,26.8599 ,1.01267 ,2.96118 ,29.05507 
138 ,27.0519 ,1.01462 ,2.91669 ,28.61856 
139 ,27.2598 ,1.01665 ,2.90300 ,28.48424 
140 ,27.4525 ,1.01851 ,2.88589 ,28.31635 
141 ,27.6603 ,1.02062 ,2.87905 ,28.24919 
142 ,27.8524 ,1.02268 ,2.86878 ,28.14846 
143 ,28.0440 ,1.02446 ,2.85851 ,28.04772 
144 ,28.2365 ,1.02644 ,2.82771 ,27.74552 
145 ,28.4443 ,1.02852 ,2.82429 ,27.71194 
146 ,28.6367 ,1.03045 ,2.78322 ,27.30900 
147 ,28.8288 ,1.03234 ,2.78322 ,27.30900 
148 ,29.0370 ,1.03437 ,2.75585 ,27.04038 
149 ,29.2287 ,1.03631 ,2.73531 ,26.83891 
150 ,29.4206 ,1.03829 ,2.73531 ,26.83891 
151 ,29.6131 ,1.04013 ,2.70109 ,26.50312 
152 ,29.8053 ,1.04214 ,2.70452 ,26.53670 
153 ,29.9972 ,1.04402 ,2.67372 ,26.23450 
154 ,30.1889 ,1.04596 ,2.66345 ,26.13376 
155 ,30.3814 ,1.04785 ,2.64634 ,25.96587 
156 ,30.5893 ,1.04997 ,2.61896 ,25.69724 
157 ,30.8136 ,1.05208 ,2.60527 ,25.56293 
158 ,31.0216 ,1.05426 ,2.59843 ,25.49577 
159 ,31.2139 ,1.05620 ,2.56763 ,25.19357 
160 ,31.4058 ,1.05813 ,2.57105 ,25.22715 
161 ,31.5978 ,1.06011 ,2.53341 ,24.85779 
162 ,31.7740 ,1.06186 ,2.52314 ,24.75705 
163 ,31.9661 ,1.06372 ,2.51287 ,24.65632 
164 ,32.1741 ,1.06581 ,2.49234 ,24.45485 
165 ,32.3499 ,1.06760 ,2.47865 ,24.32053 
166 ,32.5422 ,1.06950 ,2.46839 ,24.21980 
167 ,32.7503 ,1.07146 ,2.44785 ,24.01833 
168 ,32.9426 ,1.07345 ,2.43416 ,23.88402 
169 ,33.1346 ,1.07541 ,2.40679 ,23.61539 
170 ,33.3267 ,1.07734 ,2.39652 ,23.51465 
171 ,33.5184 ,1.07923 ,2.38968 ,23.44750 
172 ,33.7108 ,1.08111 ,2.36572 ,23.21245 
173 ,33.9029 ,1.08301 ,2.35203 ,23.07814 
174 ,34.0951 ,1.08498 ,2.32808 ,22.84309 
175 ,34.3031 ,1.08702 ,2.33834 ,22.94382 
176 ,34.4951 ,1.08903 ,2.30754 ,22.64162 
177 ,34.6873 ,1.09088 ,2.27674 ,22.33941 
178 ,34.9273 ,1.09327 ,2.26306 ,22.20510 
179 ,35.1195 ,1.09521 ,2.26306 ,22.20510 
180 ,35.3275 ,1.09735 ,2.22541 ,21.83574 
181 ,35.5353 ,1.09936 ,2.20830 ,21.66785 
182 ,35.7116 ,1.10118 ,2.20146 ,21.60069 
183 ,35.9038 ,1.10302 ,2.19119 ,21.49996 
184 ,36.0958 ,1.10497 ,2.18092 ,21.39922 
185 ,36.2878 ,1.10688 ,2.15355 ,21.13059 
186 ,36.4799 ,1.10882 ,2.15012 ,21.09702 
187 ,36.6719 ,1.11079 ,2.12617 ,20.86197 
188 ,36.8641 ,1.11261 ,2.10564 ,20.66050 
189 ,37.0879 ,1.11486 ,2.10221 ,20.62692 
190 ,37.2643 ,1.11671 ,2.08510 ,20.45903 
191 ,37.4561 ,1.11857 ,2.07141 ,20.32472 
192 ,37.6482 ,1.12048 ,2.04404 ,20.05609 
193 ,37.8563 ,1.12257 ,2.04746 ,20.08967 
194 ,38.0321 ,1.12442 ,2.03035 ,19.92178 
195 ,38.2086 ,1.12621 ,2.00982 ,19.72031 
196 ,38.4007 ,1.12800 ,1.99955 ,19.61957 
197 ,38.6408 ,1.13041 ,1.96875 ,19.31737 
198 ,38.8646 ,1.13256 ,1.96190 ,19.25021 
199 ,39.0571 ,1.13458 ,1.96533 ,19.28379 
200 ,39.2488 ,1.13666 ,1.92426 ,18.88085 
201 ,39.4409 ,1.13837 ,1.92426 ,18.88085 
202 ,39.6331 ,1.14036 ,1.90715 ,18.71296 
203 ,39.8253 ,1.14227 ,1.87977 ,18.44433 
204 ,40.0169 ,1.14427 ,1.87977 ,18.44433 
205 ,40.2096 ,1.14611 ,1.86608 ,18.31002 
206 ,40.4177 ,1.14815 ,1.86266 ,18.27644 
207 ,40.6096 ,1.15008 ,1.83871 ,18.04139 
208 ,40.8176 ,1.15217 ,1.82844 ,17.94066 
209 ,41.0255 ,1.15415 ,1.80791 ,17.73919 
210 ,41.2339 ,1.15634 ,1.79764 ,17.63845 
211 ,41.4414 ,1.15842 ,1.76000 ,17.26909 
212 ,41.6500 ,1.16051 ,1.75657 ,17.23551 
213 ,41.8582 ,1.16260 ,1.74973 ,17.16836 
214 ,42.0501 ,1.16453 ,1.72920 ,16.96689 
215 ,42.2260 ,1.16639 ,1.70182 ,16.69826 
216 ,42.4184 ,1.16817 ,1.71893 ,16.86615 
217 ,42.6101 ,1.17011 ,1.68129 ,16.49679 
218 ,42.8023 ,1.17199 ,1.68129 ,16.49679 
219 ,43.0105 ,1.17409 ,1.67102 ,16.39605 
220 ,43.2023 ,1.17601 ,1.64364 ,16.12743 
221 ,43.3946 ,1.17798 ,1.65391 ,16.22816 
222 ,43.6028 ,1.18001 ,1.61627 ,15.85880 
223 ,43.7949 ,1.18195 ,1.61284 ,15.82522 
224 ,43.9869 ,1.18387 ,1.59231 ,15.62375 
225 ,44.1791 ,1.18579 ,1.57178 ,15.42228 
226 ,44.3871 ,1.18785 ,1.57862 ,15.48944 
227 ,44.5628 ,1.18967 ,1.54782 ,15.18724 
228 ,44.7392 ,1.19148 ,1.55124 ,15.22081 
229 ,44.9157 ,1.19320 ,1.53756 ,15.08650 
230 ,45.1228 ,1.19523 ,1.50333 ,14.75072 
231 ,45.3150 ,1.19713 ,1.49649 ,14.68356 
232 ,45.5070 ,1.19909 ,1.47596 ,14.48209 
233 ,45.6830 ,1.20098 ,1.45885 ,14.31420 
234 ,45.8752 ,1.20276 ,1.44174 ,14.14631 
235 ,46.0511 ,1.20467 ,1.46911 ,14.41493 
236 ,46.2434 ,1.20645 ,1.41436 ,13.87768 
237 ,46.4354 ,1.20834 ,1.42120 ,13.94484 
238 ,46.6274 ,1.21024 ,1.41778 ,13.91126 
239 ,46.8196 ,1.21215 ,1.38014 ,13.54190 
240 ,47.0119 ,1.21417 ,1.39040 ,13.64263 
241 ,47.2203 ,1.21613 ,1.35276 ,13.27327 
242 ,47.4282 ,1.21823 ,1.35276 ,13.27327 
243 ,47.6361 ,1.22037 ,1.33565 ,13.10538 
244 ,47.8444 ,1.22245 ,1.31854 ,12.93749 
245 ,48.0525 ,1.22445 ,1.31512 ,12.90391 
246 ,48.2286 ,1.22636 ,1.27747 ,12.53455 
247 ,48.4043 ,1.22809 ,1.28089 ,12.56813 
248 ,48.5808 ,1.22989 ,1.26378 ,12.40024 
249 ,48.7564 ,1.23158 ,1.24325 ,12.19877 
250 ,48.9650 ,1.23352 ,1.25009 ,12.26592 
251 ,49.1729 ,1.23570 ,1.23983 ,12.16519 
252 ,49.3651 ,1.23763 ,1.21587 ,11.93014 
253 ,49.5573 ,1.23958 ,1.20218 ,11.79583 
254 ,49.7653 ,1.24163 ,1.18165 ,11.59436 
255 ,49.9573 ,1.24353 ,1.17823 ,11.56078 
256 ,50.1494 ,1.24548 ,1.16796 ,11.46004 
257 ,50.3415 ,1.24738 ,1.13716 ,11.15784 
258 ,50.5494 ,1.24939 ,1.14058 ,11.19142 
259 ,50.7416 ,1.25140 ,1.12347 ,11.02353 
260 ,50.9333 ,1.25348 ,1.12347 ,11.02353 
261 ,51.1258 ,1.25522 ,1.10979 ,10.88921 
262 ,51.3178 ,1.25711 ,1.08583 ,10.65416 
263 ,51.5099 ,1.25907 ,1.06872 ,10.48627 
264 ,51.7018 ,1.26096 ,1.05161 ,10.31838 
265 ,51.8942 ,1.26287 ,1.05845 ,10.38554 
266 ,52.0861 ,1.26491 ,1.02423 ,10.04976 
267 ,52.2623 ,1.26662 ,1.02765 ,10.08333 
268 ,52.4544 ,1.26858 ,0.99343 ,9.74755 
269 ,52.6465 ,1.27046 ,0.99343 ,9.74755 
270 ,52.8385 ,1.27234 ,0.97974 ,9.61324 
271 ,53.0463 ,1.27443 ,0.98317 ,9.64682 
272 ,53.2227 ,1.27624 ,0.96263 ,9.44535 
273 ,53.4148 ,1.27807 ,0.93868 ,9.21030 
274 ,53.6067 ,1.28003 ,0.93868 ,9.21030 
275 ,53.7989 ,1.28198 ,0.90446 ,8.87451 
276 ,53.9911 ,1.28383 ,0.90788 ,8.90809 
277 ,54.1986 ,1.28591 ,0.88734 ,8.70662 
278 ,54.3912 ,1.28785 ,0.88050 ,8.63947 
279 ,54.5993 ,1.28997 ,0.86339 ,8.47158 
280 ,54.7914 ,1.29189 ,0.85654 ,8.40442 
281 ,54.9995 ,1.29395 ,0.84628 ,8.30368 
282 ,55.1915 ,1.29583 ,0.82917 ,8.13579 
283 ,55.3836 ,1.29779 ,0.83259 ,8.16937 
284 ,55.5594 ,1.29956 ,0.80863 ,7.93432 
285 ,55.7359 ,1.30138 ,0.79152 ,7.76643 
286 ,55.9279 ,1.30323 ,0.79152 ,7.76643 
287 ,56.1357 ,1.30534 ,0.75388 ,7.39707 
288 ,56.3436 ,1.30737 ,0.77099 ,7.56496 
289 ,56.5359 ,1.30932 ,0.74361 ,7.29633 
290 ,56.7439 ,1.31144 ,0.74704 ,7.32991 
291 ,56.9522 ,1.31346 ,0.70597 ,6.92697 
292 ,57.1442 ,1.31540 ,0.72992 ,7.16202 
293 ,57.3364 ,1.31737 ,0.69570 ,6.82624 
294 ,57.5283 ,1.31919 ,0.68201 ,6.69193 
295 ,57.7366 ,1.32127 ,0.66148 ,6.49046 
296 ,57.9284 ,1.32321 ,0.65464 ,6.42330 
297 ,58.1207 ,1.32511 ,0.64779 ,6.35614 
298 ,58.2966 ,1.32697 ,0.63410 ,6.22183 
299 ,58.5208 ,1.32904 ,0.63068 ,6.18825 
300 ,58.7288 ,1.33123 ,0.60330 ,5.91962 
301 ,58.9366 ,1.33328 ,0.59988 ,5.88605 
302 ,59.1286 ,1.33522 ,0.58619 ,5.75173 
303 ,59.3212 ,1.33716 ,0.59646 ,5.85247 
304 ,59.5290 ,1.33929 ,0.55882 ,5.48311 
305 ,59.7215 ,1.34110 ,0.56224 ,5.51668 
306 ,59.9133 ,1.34302 ,0.53144 ,5.21448 
307 ,60.1056 ,1.34495 ,0.52117 ,5.11375 
308 ,60.3135 ,1.34709 ,0.51775 ,5.08017 
309 ,60.5057 ,1.34895 ,0.51091 ,5.01301 
310 ,60.6816 ,1.35076 ,0.51091 ,5.01301 
311 ,60.8739 ,1.35266 ,0.48353 ,4.74438 
312 ,61.0818 ,1.35470 ,0.48011 ,4.71081 
313 ,61.2741 ,1.35668 ,0.45273 ,4.44218 
314 ,61.4661 ,1.35856 ,0.44246 ,4.34144 
315 ,61.6416 ,1.36047 ,0.44588 ,4.37502 
316 ,61.8179 ,1.36222 ,0.41851 ,4.10640 
317 ,62.0103 ,1.36405 ,0.40824 ,4.00566 
318 ,62.2183 ,1.36607 ,0.40140 ,3.93850 
319 ,62.3945 ,1.36796 ,0.40482 ,3.97208 
320 ,62.6026 ,1.36996 ,0.37744 ,3.70346 
321 ,62.8107 ,1.37195 ,0.37402 ,3.66988 
322 ,63.0027 ,1.37395 ,0.35691 ,3.50199 
323 ,63.2108 ,1.37590 ,0.33980 ,3.33410 
324 ,63.3865 ,1.37783 ,0.32611 ,3.19978 
325 ,63.5625 ,1.37959 ,0.32611 ,3.19978 
326 ,63.7546 ,1.38143 ,0.32269 ,3.16620 
327 ,63.9466 ,1.38335 ,0.29189 ,2.86400 
328 ,64.1389 ,1.38526 ,0.29189 ,2.86400 
329 ,64.3467 ,1.38745 ,0.29189 ,2.86400 
330 ,64.5548 ,1.38955 ,0.27820 ,2.72969 
331 ,64.7472 ,1.39140 ,0.25082 ,2.46106 
332 ,64.9394 ,1.39342 ,0.25424 ,2.49464 
333 ,65.1152 ,1.39516 ,0.23029 ,2.25959 
334 ,65.3237 ,1.39705 ,0.22344 ,2.19243 
335 ,65.5313 ,1.39921 ,0.22687 ,2.22601 
336 ,65.7233 ,1.40125 ,0.20291 ,1.99096 
337 ,65.9155 ,1.40307 ,0.19607 ,1.92381 
338 ,66.1076 ,1.40498 ,0.18238 ,1.78949 
339 ,66.2995 ,1.40686 ,0.17553 ,1.72234 
340 ,66.4756 ,1.40879 ,0.16527 ,1.62160 
341 ,66.6677 ,1.41058 ,0.14473 ,1.42013 
342 ,66.8597 ,1.41249 ,0.13105 ,1.28582 
343 ,67.0361 ,1.41437 ,0.13105 ,1.28582 
344 ,67.2281 ,1.41618 ,0.13789 ,1.35298 
345 ,67.4365 ,1.41823 ,0.11736 ,1.15151 
346 ,67.6286 ,1.42023 ,0.09682 ,0.95004 
347 ,67.8206 ,1.42211 ,0.08998 ,0.88288 
348 ,68.0287 ,1.42418 ,0.07287 ,0.71499 
349 ,68.2207 ,1.42606 ,0.07629 ,0.74857 
350 ,68.4126 ,1.42801 ,0.05918 ,0.58067 
351 ,68.6528 ,1.43031 ,0.06602 ,0.64783 
352 ,68.8448 ,1.43241 ,0.02838 ,0.27847 
353 ,69.0372 ,1.43431 ,0.03180 ,0.31205 
354 ,69.2292 ,1.43619 ,0.01127 ,0.11058 
355 ,69.4053 ,1.43802 ,-0.00584 ,-0.05731 
356 ,69.5972 ,1.43985 ,0.00443 ,0.04342 
357 ,69.8054 ,1.44190 ,-0.02295 ,-0.22520 
358 ,69.9972 ,1.44387 ,-0.02295 ,-0.22520 
359 ,70.2055 ,1.44591 ,-0.05717 ,-0.56099 
360 ,70.3978 ,1.44792 ,-0.03322 ,-0.32594 
361 ,70.5896 ,1.44977 ,-0.05375 ,-0.52741 
362 ,70.7818 ,1.45174 ,-0.08455 ,-0.82961 
363 ,70.9899 ,1.45384 ,-0.07086 ,-0.69530 
364 ,71.1981 ,1.45587 ,-0.09140 ,-0.89677 
365 ,71.3900 ,1.45777 ,-0.09140 ,-0.89677 
366 ,71.5981 ,1.45986 ,-0.11193 ,-1.09824 
367 ,71.8059 ,1.46193 ,-0.13246 ,-1.29971 
368 ,71.9984 ,1.46391 ,-0.14273 ,-1.40045 
369 ,72.1900 ,1.46581 ,-0.12904 ,-1.26613 
370 ,72.3664 ,1.46764 ,-0.15642 ,-1.53476 
371 ,72.5584 ,1.46948 ,-0.16326 ,-1.60191 
372 ,72.7347 ,1.47129 ,-0.15642 ,-1.53476 
373 ,72.9426 ,1.47333 ,-0.18037 ,-1.76981 
374 ,73.1508 ,1.47534 ,-0.18037 ,-1.76981 
375 ,73.3427 ,1.47726 ,-0.20775 ,-2.03843 
376 ,73.5188 ,1.47910 ,-0.22144 ,-2.17275 
377 ,73.7111 ,1.48098 ,-0.21117 ,-2.07201 
378 ,73.9187 ,1.48300 ,-0.23170 ,-2.27348 
379 ,74.1111 ,1.48500 ,-0.23170 ,-2.27348 
380 ,74.2873 ,1.48681 ,-0.24539 ,-2.40779 
381 ,74.4950 ,1.48885 ,-0.24881 ,-2.44137 
382 ,74.6875 ,1.49074 ,-0.26593 ,-2.60926 
383 ,74.8794 ,1.49267 ,-0.29330 ,-2.87789 
384 ,75.0555 ,1.49452 ,-0.27961 ,-2.74358 
385 ,75.2474 ,1.49631 ,-0.30015 ,-2.94505 
386 ,75.4397 ,1.49825 ,-0.31384 ,-3.07936 
387 ,75.6318 ,1.50020 ,-0.31384 ,-3.07936 
388 ,75.8240 ,1.50214 ,-0.33095 ,-3.24725 
389 ,76.0159 ,1.50405 ,-0.33437 ,-3.28083 
390 ,76.2081 ,1.50592 ,-0.33437 ,-3.28083 
391 ,76.4161 ,1.50802 ,-0.36517 ,-3.58303 
392 ,76.5923 ,1.50987 ,-0.36175 ,-3.54946 
393 ,76.7842 ,1.51172 ,-0.36859 ,-3.61661 
394 ,76.9603 ,1.51350 ,-0.38912 ,-3.81808 
395 ,77.1522 ,1.51539 ,-0.39255 ,-3.85166 
396 ,77.3605 ,1.51749 ,-0.41650 ,-4.08671 
397 ,77.8407 ,1.52089 ,-0.39939 ,-3.91882 
398 ,78.0327 ,1.52418 ,-0.43019 ,-4.22102 
399 ,78.2407 ,1.52624 ,-0.44046 ,-4.32176 
400 ,78.4327 ,1.52825 ,-0.45757 ,-4.48965 
401 ,78.6409 ,1.53024 ,-0.46783 ,-4.59038 
402 ,78.8328 ,1.53217 ,-0.47468 ,-4.65754 
403 ,79.0410 ,1.53425 ,-0.47810 ,-4.69112 
404 ,79.2332 ,1.53621 ,-0.48494 ,-4.75828 
405 ,79.4252 ,1.53809 ,-0.49521 ,-4.85901 
406 ,79.6174 ,1.54011 ,-0.52259 ,-5.12764 
407 ,79.8255 ,1.54212 ,-0.51232 ,-5.02690 
408 ,80.0178 ,1.54400 ,-0.53970 ,-5.29553 
409 ,80.2258 ,1.54613 ,-0.53628 ,-5.26195 
410 ,80.4178 ,1.54803 ,-0.54997 ,-5.39626 
411 ,80.6258 ,1.55001 ,-0.56023 ,-5.49700 
412 ,80.8179 ,1.55214 ,-0.56365 ,-5.53058 
413 ,81.0100 ,1.55391 ,-0.56708 ,-5.56415 
414 ,81.2184 ,1.55603 ,-0.60130 ,-5.89994 
415 ,81.4102 ,1.55797 ,-0.59445 ,-5.83278 
416 ,81.6184 ,1.55996 ,-0.61841 ,-6.06783 
417 ,81.8103 ,1.56192 ,-0.61841 ,-6.06783 
418 ,82.0025 ,1.56391 ,-0.61841 ,-6.06783 
419 ,82.1945 ,1.56585 ,-0.64579 ,-6.33646 
420 ,82.4027 ,1.56776 ,-0.62868 ,-6.16856 
421 ,82.5945 ,1.56979 ,-0.65605 ,-6.43719 
422 ,82.7867 ,1.57165 ,-0.64921 ,-6.37003 
423 ,82.9788 ,1.57368 ,-0.66632 ,-6.53793 
424 ,83.1708 ,1.57555 ,-0.68001 ,-6.67224 
425 ,83.3630 ,1.57750 ,-0.67316 ,-6.60508 
426 ,83.5549 ,1.57941 ,-0.69712 ,-6.84013 
427 ,83.7307 ,1.58120 ,-0.70054 ,-6.87371 
428 ,83.9232 ,1.58310 ,-0.69370 ,-6.80655 
429 ,84.1311 ,1.58509 ,-0.71765 ,-7.04160 
430 ,84.3234 ,1.58705 ,-0.72450 ,-7.10876 
431 ,84.5312 ,1.58913 ,-0.74161 ,-7.27665 
432 ,84.7076 ,1.59097 ,-0.73476 ,-7.20949 
433 ,84.9155 ,1.59296 ,-0.76556 ,-7.51170 
434 ,85.1072 ,1.59493 ,-0.75187 ,-7.37738 
435 ,85.3156 ,1.59683 ,-0.77583 ,-7.61243 
436 ,85.5239 ,1.59904 ,-0.77925 ,-7.64601 
437 ,85.7158 ,1.60111 ,-0.79636 ,-7.81390 
438 ,85.9077 ,1.60293 ,-0.77925 ,-7.64601 
439 ,86.1162 ,1.60491 ,-0.80663 ,-7.91464 
440 ,86.3240 ,1.60707 ,-0.80663 ,-7.91464 
441 ,86.5162 ,1.60908 ,-0.83401 ,-8.18326 
442 ,86.6924 ,1.61083 ,-0.84427 ,-8.28400 
443 ,86.9003 ,1.61281 ,-0.84085 ,-8.25042 
444 ,87.1084 ,1.61496 ,-0.84769 ,-8.31758 
445 ,87.3005 ,1.61679 ,-0.87507 ,-8.58620 
446 ,87.4927 ,1.61875 ,-0.88876 ,-8.72051 
447 ,87.6687 ,1.62061 ,-0.87165 ,-8.55262 
448 ,87.8606 ,1.62239 ,-0.88192 ,-8.65336 
449 ,88.0529 ,1.62442 ,-0.90245 ,-8.85483 
450 ,88.2449 ,1.62637 ,-0.89560 ,-8.78767 
451 ,88.4367 ,1.62824 ,-0.91614 ,-8.98914 
452 ,88.6291 ,1.63007 ,-0.92640 ,-9.08988 
453 ,88.8373 ,1.63219 ,-0.92298 ,-9.05630 
454 ,89.0291 ,1.63412 ,-0.94009 ,-9.22419 
455 ,89.2210 ,1.63606 ,-0.92983 ,-9.12345 
456 ,89.4134 ,1.63796 ,-0.96405 ,-9.45924 
457 ,89.6054 ,1.63982 ,-0.95378 ,-9.35850 
458 ,89.7976 ,1.64179 ,-0.97774 ,-9.59355 
459 ,89.9893 ,1.64367 ,-0.99485 ,-9.76144 
460 ,90.1817 ,1.64561 ,-0.97431 ,-9.55997 
461 ,90.3737 ,1.64765 ,-0.99485 ,-9.76144 
462 ,90.5658 ,1.64946 ,-0.99485 ,-9.76144 
