Data stamp = , 27-04-2022 13:11:27 078

Calibration Values: 
Slope = , 26.54 , g/V 
Offset Voltage at no contact = , -0.501760 , V 

No , Time , Stage Position ,   Mass , Force 
   ,  (s) ,      (mm)      ,   (g)  , (mN)  

1 ,0.0000 ,0.74939 ,5.30878 ,52.08979 
2 ,0.2473 ,0.74952 ,5.30536 ,52.05621 
3 ,0.7119 ,0.75115 ,5.30536 ,52.05621 
4 ,0.9201 ,0.75341 ,5.29167 ,51.92190 
5 ,1.1121 ,0.75517 ,5.29852 ,51.98905 
6 ,1.3037 ,0.75707 ,5.29510 ,51.95548 
7 ,1.4963 ,0.75907 ,5.30878 ,52.08979 
8 ,1.7043 ,0.76109 ,5.29510 ,51.95548 
9 ,1.8964 ,0.76310 ,5.28483 ,51.85474 
10 ,2.0724 ,0.76484 ,5.26430 ,51.65327 
11 ,2.2645 ,0.76673 ,5.22665 ,51.28391 
12 ,2.4726 ,0.76880 ,5.21981 ,51.21675 
13 ,2.6647 ,0.77071 ,5.17874 ,50.81381 
14 ,2.8409 ,0.77253 ,5.18901 ,50.91455 
15 ,3.0329 ,0.77438 ,5.16848 ,50.71308 
16 ,3.2411 ,0.77638 ,5.14452 ,50.47803 
17 ,3.4330 ,0.77850 ,5.11714 ,50.20940 
18 ,3.6412 ,0.78040 ,5.09319 ,49.97436 
19 ,3.8651 ,0.78265 ,5.08977 ,49.94078 
20 ,4.0572 ,0.78465 ,5.07950 ,49.84004 
21 ,4.2653 ,0.78674 ,5.03843 ,49.43710 
22 ,4.4415 ,0.78855 ,5.03843 ,49.43710 
23 ,4.6336 ,0.79048 ,5.00079 ,49.06774 
24 ,4.8095 ,0.79220 ,4.99052 ,48.96701 
25 ,4.9858 ,0.79399 ,4.96657 ,48.73196 
26 ,5.1777 ,0.79581 ,4.96999 ,48.76554 
27 ,5.3857 ,0.79792 ,4.94261 ,48.49691 
28 ,5.5781 ,0.79978 ,4.91866 ,48.26186 
29 ,5.7701 ,0.80177 ,4.89812 ,48.06039 
30 ,5.9622 ,0.80371 ,4.88444 ,47.92608 
31 ,6.1540 ,0.80559 ,4.87075 ,47.79177 
32 ,6.3462 ,0.80757 ,4.82626 ,47.35525 
33 ,6.5384 ,0.80942 ,4.83652 ,47.45598 
34 ,6.7301 ,0.81136 ,4.80573 ,47.15378 
35 ,6.9225 ,0.81330 ,4.78519 ,46.95231 
36 ,7.1307 ,0.81540 ,4.77835 ,46.88515 
37 ,7.3227 ,0.81730 ,4.75439 ,46.65010 
38 ,7.5308 ,0.81938 ,4.72702 ,46.38148 
39 ,7.7228 ,0.82132 ,4.72017 ,46.31432 
40 ,7.9148 ,0.82318 ,4.70648 ,46.18001 
41 ,8.1069 ,0.82514 ,4.66199 ,45.74349 
42 ,8.2992 ,0.82708 ,4.66884 ,45.81065 
43 ,8.4912 ,0.82897 ,4.63804 ,45.50844 
44 ,8.6834 ,0.83092 ,4.62777 ,45.40771 
45 ,8.8749 ,0.83280 ,4.60724 ,45.20624 
46 ,9.0672 ,0.83470 ,4.57986 ,44.93761 
47 ,9.2754 ,0.83684 ,4.57644 ,44.90403 
48 ,9.4674 ,0.83869 ,4.53195 ,44.46751 
49 ,9.6596 ,0.84066 ,4.53537 ,44.50109 
50 ,9.8677 ,0.84267 ,4.51826 ,44.33320 
51 ,10.0433 ,0.84460 ,4.51142 ,44.26604 
52 ,10.2193 ,0.84640 ,4.49089 ,44.06457 
53 ,10.4115 ,0.84815 ,4.45324 ,43.69521 
54 ,10.6039 ,0.85012 ,4.43955 ,43.56090 
55 ,10.8279 ,0.85226 ,4.42586 ,43.42659 
56 ,11.0039 ,0.85417 ,4.39164 ,43.09080 
57 ,11.2119 ,0.85615 ,4.39164 ,43.09080 
58 ,11.4040 ,0.85812 ,4.37795 ,42.95649 
59 ,11.5963 ,0.85996 ,4.35058 ,42.68786 
60 ,11.7886 ,0.86188 ,4.32662 ,42.45282 
61 ,11.9806 ,0.86386 ,4.32662 ,42.45282 
62 ,12.1886 ,0.86595 ,4.29582 ,42.15061 
63 ,12.3645 ,0.86774 ,4.26502 ,41.84841 
64 ,12.5888 ,0.86985 ,4.25133 ,41.71409 
65 ,12.7646 ,0.87175 ,4.24107 ,41.61336 
66 ,12.9728 ,0.87373 ,4.22738 ,41.47905 
67 ,13.1647 ,0.87566 ,4.21369 ,41.34473 
68 ,13.3572 ,0.87761 ,4.20685 ,41.27758 
69 ,13.5652 ,0.87968 ,4.17605 ,40.97537 
70 ,13.7572 ,0.88162 ,4.16920 ,40.90821 
71 ,13.9494 ,0.88353 ,4.12471 ,40.47170 
72 ,14.1415 ,0.88547 ,4.12471 ,40.47170 
73 ,14.3654 ,0.88761 ,4.09049 ,40.13591 
74 ,14.5415 ,0.88949 ,4.08707 ,40.10233 
75 ,14.7177 ,0.89130 ,4.08023 ,40.03518 
76 ,14.9096 ,0.89315 ,4.04600 ,39.69940 
77 ,15.1018 ,0.89506 ,4.03916 ,39.63224 
78 ,15.2779 ,0.89685 ,4.02205 ,39.46435 
79 ,15.4696 ,0.89879 ,4.01178 ,39.36361 
80 ,15.6460 ,0.90052 ,3.97072 ,38.96067 
81 ,15.8538 ,0.90259 ,3.96387 ,38.89352 
82 ,16.0302 ,0.90437 ,3.94676 ,38.72562 
83 ,16.2221 ,0.90625 ,3.92623 ,38.52415 
84 ,16.4142 ,0.90817 ,3.91596 ,38.42342 
85 ,16.6063 ,0.91014 ,3.88174 ,38.08764 
86 ,16.7985 ,0.91205 ,3.88516 ,38.12122 
87 ,16.9905 ,0.91390 ,3.84067 ,37.68470 
88 ,17.1667 ,0.91580 ,3.83383 ,37.61754 
89 ,17.3587 ,0.91765 ,3.82699 ,37.55038 
90 ,17.5504 ,0.91959 ,3.80987 ,37.38249 
91 ,17.7429 ,0.92147 ,3.78592 ,37.14744 
92 ,17.9510 ,0.92358 ,3.77223 ,37.01313 
93 ,18.1431 ,0.92545 ,3.75170 ,36.81166 
94 ,18.3513 ,0.92753 ,3.72090 ,36.50946 
95 ,18.5590 ,0.92963 ,3.72090 ,36.50946 
96 ,18.7353 ,0.93149 ,3.68668 ,36.17367 
97 ,18.9114 ,0.93326 ,3.67641 ,36.07294 
98 ,19.1035 ,0.93508 ,3.65930 ,35.90505 
99 ,19.2955 ,0.93696 ,3.65930 ,35.90505 
100 ,19.4878 ,0.93893 ,3.62166 ,35.53569 
101 ,19.6954 ,0.94098 ,3.61481 ,35.46853 
102 ,19.8716 ,0.94283 ,3.57717 ,35.09917 
103 ,20.0639 ,0.94467 ,3.57717 ,35.09917 
104 ,20.2558 ,0.94664 ,3.55663 ,34.89770 
105 ,20.4479 ,0.94845 ,3.54637 ,34.79696 
106 ,20.6401 ,0.95037 ,3.53268 ,34.66265 
107 ,20.8477 ,0.95248 ,3.49846 ,34.32687 
108 ,21.0403 ,0.95442 ,3.49504 ,34.29329 
109 ,21.2322 ,0.95632 ,3.46766 ,34.02466 
110 ,21.4084 ,0.95812 ,3.44028 ,33.75604 
111 ,21.6004 ,0.95999 ,3.46081 ,33.95751 
112 ,21.7765 ,0.96186 ,3.44028 ,33.75604 
113 ,21.9525 ,0.96356 ,3.41290 ,33.48741 
114 ,22.1284 ,0.96535 ,3.38895 ,33.25236 
115 ,22.3208 ,0.96722 ,3.36499 ,33.01731 
116 ,22.5288 ,0.96930 ,3.34446 ,32.81584 
117 ,22.7210 ,0.97127 ,3.35473 ,32.91658 
118 ,22.9130 ,0.97314 ,3.31708 ,32.54722 
119 ,23.1050 ,0.97505 ,3.29655 ,32.34575 
120 ,23.3132 ,0.97713 ,3.28628 ,32.24501 
121 ,23.5053 ,0.97904 ,3.26575 ,32.04354 
122 ,23.6974 ,0.98095 ,3.25206 ,31.90923 
123 ,23.8897 ,0.98293 ,3.22126 ,31.60702 
124 ,24.0651 ,0.98481 ,3.22811 ,31.67418 
125 ,24.2575 ,0.98656 ,3.20073 ,31.40555 
126 ,24.4337 ,0.98840 ,3.19731 ,31.37198 
127 ,24.6417 ,0.99042 ,3.18020 ,31.20409 
128 ,24.8179 ,0.99222 ,3.14940 ,30.90188 
129 ,25.0258 ,0.99427 ,3.12886 ,30.70041 
130 ,25.2020 ,0.99605 ,3.11860 ,30.59968 
131 ,25.3780 ,0.99784 ,3.10833 ,30.49894 
132 ,25.5702 ,0.99969 ,3.07753 ,30.19674 
133 ,25.7784 ,1.00181 ,3.06726 ,30.09600 
134 ,26.0021 ,1.00396 ,3.03304 ,29.76022 
135 ,26.2101 ,1.00606 ,3.01251 ,29.55875 
136 ,26.4025 ,1.00800 ,3.00909 ,29.52517 
137 ,26.6105 ,1.01013 ,2.99198 ,29.35728 
138 ,26.7867 ,1.01191 ,2.97829 ,29.22297 
139 ,26.9786 ,1.01380 ,2.97487 ,29.18939 
140 ,27.1709 ,1.01570 ,2.94407 ,28.88718 
141 ,27.3629 ,1.01771 ,2.92696 ,28.71929 
142 ,27.5549 ,1.01950 ,2.90642 ,28.51782 
143 ,27.7471 ,1.02144 ,2.88589 ,28.31635 
144 ,27.9391 ,1.02339 ,2.88931 ,28.34993 
145 ,28.1312 ,1.02529 ,2.86193 ,28.08130 
146 ,28.3234 ,1.02726 ,2.84825 ,27.94699 
147 ,28.5472 ,1.02941 ,2.83456 ,27.81268 
148 ,28.7554 ,1.03153 ,2.81745 ,27.64479 
149 ,28.9476 ,1.03344 ,2.78322 ,27.30900 
150 ,29.1553 ,1.03554 ,2.78322 ,27.30900 
151 ,29.3477 ,1.03744 ,2.75243 ,27.00680 
152 ,29.5396 ,1.03937 ,2.75243 ,27.00680 
153 ,29.7159 ,1.04118 ,2.73874 ,26.87248 
154 ,29.8919 ,1.04301 ,2.69425 ,26.43597 
155 ,30.0842 ,1.04483 ,2.70109 ,26.50312 
156 ,30.2762 ,1.04680 ,2.68398 ,26.33523 
157 ,30.4681 ,1.04867 ,2.65318 ,26.03303 
158 ,30.6602 ,1.05053 ,2.65318 ,26.03303 
159 ,30.8364 ,1.05241 ,2.63949 ,25.89871 
160 ,31.0284 ,1.05426 ,2.60185 ,25.52935 
161 ,31.2205 ,1.05626 ,2.59843 ,25.49577 
162 ,31.4125 ,1.05814 ,2.59501 ,25.46220 
163 ,31.5888 ,1.05992 ,2.55052 ,25.02568 
164 ,31.7969 ,1.06187 ,2.55052 ,25.02568 
165 ,32.0208 ,1.06425 ,2.54025 ,24.92494 
166 ,32.1971 ,1.06598 ,2.51630 ,24.68989 
167 ,32.3892 ,1.06785 ,2.48892 ,24.42127 
168 ,32.5971 ,1.06988 ,2.48550 ,24.38769 
169 ,32.7889 ,1.07186 ,2.45470 ,24.08549 
170 ,32.9809 ,1.07375 ,2.44785 ,24.01833 
171 ,33.1569 ,1.07563 ,2.43074 ,23.85044 
172 ,33.3493 ,1.07744 ,2.40679 ,23.61539 
173 ,33.5414 ,1.07941 ,2.40336 ,23.58181 
174 ,33.7175 ,1.08117 ,2.38968 ,23.44750 
175 ,33.9255 ,1.08321 ,2.35203 ,23.07814 
176 ,34.1497 ,1.08534 ,2.34177 ,22.97740 
177 ,34.3416 ,1.08737 ,2.34861 ,23.04456 
178 ,34.5176 ,1.08917 ,2.32465 ,22.80951 
179 ,34.7100 ,1.09110 ,2.30070 ,22.57446 
180 ,34.9016 ,1.09298 ,2.28701 ,22.44015 
181 ,35.0938 ,1.09493 ,2.27332 ,22.30584 
182 ,35.3021 ,1.09697 ,2.25279 ,22.10437 
183 ,35.4781 ,1.09885 ,2.23568 ,21.93647 
184 ,35.6543 ,1.10053 ,2.22883 ,21.86932 
185 ,35.8464 ,1.10242 ,2.20146 ,21.60069 
186 ,36.0224 ,1.10430 ,2.20146 ,21.60069 
187 ,36.2142 ,1.10611 ,2.17408 ,21.33206 
188 ,36.3905 ,1.10792 ,2.15355 ,21.13059 
189 ,36.5662 ,1.10968 ,2.13986 ,20.99628 
190 ,36.7425 ,1.11147 ,2.15697 ,21.16417 
191 ,36.9503 ,1.11332 ,2.12959 ,20.89555 
192 ,37.1427 ,1.11539 ,2.10221 ,20.62692 
193 ,37.3669 ,1.11749 ,2.08510 ,20.45903 
194 ,37.5591 ,1.11955 ,2.08510 ,20.45903 
195 ,37.7511 ,1.12153 ,2.06115 ,20.22398 
196 ,37.9431 ,1.12341 ,2.04061 ,20.02251 
197 ,38.1509 ,1.12554 ,2.02693 ,19.88820 
198 ,38.3433 ,1.12738 ,2.02008 ,19.82104 
199 ,38.5674 ,1.12949 ,1.99613 ,19.58599 
200 ,38.7434 ,1.13149 ,1.97902 ,19.41810 
201 ,38.9355 ,1.13329 ,1.98244 ,19.45168 
202 ,39.1272 ,1.13528 ,1.95164 ,19.14948 
203 ,39.3193 ,1.13714 ,1.95164 ,19.14948 
204 ,39.5278 ,1.13912 ,1.92426 ,18.88085 
205 ,39.7357 ,1.14125 ,1.92084 ,18.84727 
206 ,39.9119 ,1.14312 ,1.88662 ,18.51149 
207 ,40.0719 ,1.14482 ,1.87977 ,18.44433 
208 ,40.2638 ,1.14656 ,1.86266 ,18.27644 
209 ,40.4562 ,1.14854 ,1.85240 ,18.17570 
210 ,40.6481 ,1.15046 ,1.83528 ,18.00781 
211 ,40.8401 ,1.15233 ,1.83871 ,18.04139 
212 ,41.0323 ,1.15425 ,1.81817 ,17.83992 
213 ,41.2242 ,1.15621 ,1.79422 ,17.60487 
214 ,41.4162 ,1.15803 ,1.78053 ,17.47056 
215 ,41.6085 ,1.16007 ,1.76342 ,17.30267 
216 ,41.8167 ,1.16207 ,1.76000 ,17.26909 
217 ,42.0084 ,1.16408 ,1.73604 ,17.03404 
218 ,42.2004 ,1.16593 ,1.72920 ,16.96689 
219 ,42.3926 ,1.16784 ,1.71893 ,16.86615 
220 ,42.5686 ,1.16972 ,1.69498 ,16.63110 
221 ,42.7608 ,1.17151 ,1.69498 ,16.63110 
222 ,42.9527 ,1.17343 ,1.66418 ,16.32890 
223 ,43.1289 ,1.17534 ,1.65733 ,16.26174 
224 ,43.3210 ,1.17714 ,1.65391 ,16.22816 
225 ,43.5130 ,1.17902 ,1.62311 ,15.92596 
226 ,43.6889 ,1.18094 ,1.59573 ,15.65733 
227 ,43.8812 ,1.18273 ,1.61969 ,15.89238 
228 ,44.0733 ,1.18461 ,1.57862 ,15.48944 
229 ,44.2495 ,1.18652 ,1.57178 ,15.42228 
230 ,44.4414 ,1.18830 ,1.56151 ,15.32155 
231 ,44.6335 ,1.19020 ,1.56493 ,15.35513 
232 ,44.8094 ,1.19216 ,1.52387 ,14.95219 
233 ,45.0015 ,1.19391 ,1.52387 ,14.95219 
234 ,45.1937 ,1.19579 ,1.51018 ,14.81787 
235 ,45.3696 ,1.19773 ,1.49307 ,14.64998 
236 ,45.5618 ,1.19950 ,1.49307 ,14.64998 
237 ,45.7538 ,1.20142 ,1.46911 ,14.41493 
238 ,45.9619 ,1.20343 ,1.45885 ,14.31420 
239 ,46.1380 ,1.20540 ,1.45542 ,14.28062 
240 ,46.3303 ,1.20718 ,1.42462 ,13.97842 
241 ,46.5223 ,1.20913 ,1.41094 ,13.84410 
242 ,46.6982 ,1.21100 ,1.41094 ,13.84410 
243 ,46.8743 ,1.21274 ,1.38698 ,13.60906 
244 ,47.0669 ,1.21460 ,1.38014 ,13.54190 
245 ,47.2748 ,1.21665 ,1.37671 ,13.50832 
246 ,47.4510 ,1.21847 ,1.34934 ,13.23969 
247 ,47.6590 ,1.22050 ,1.35960 ,13.34043 
248 ,47.8511 ,1.22241 ,1.32196 ,12.97107 
249 ,48.0430 ,1.22436 ,1.31512 ,12.90391 
250 ,48.2352 ,1.22627 ,1.30485 ,12.80318 
251 ,48.4274 ,1.22824 ,1.28432 ,12.60171 
252 ,48.6353 ,1.23024 ,1.27747 ,12.53455 
253 ,48.8115 ,1.23206 ,1.26720 ,12.43381 
254 ,48.9873 ,1.23382 ,1.23641 ,12.13161 
255 ,49.1798 ,1.23576 ,1.25009 ,12.26592 
256 ,49.3879 ,1.23776 ,1.21587 ,11.93014 
257 ,49.5959 ,1.23983 ,1.21929 ,11.96372 
258 ,49.7878 ,1.24181 ,1.18507 ,11.62794 
259 ,50.2521 ,1.24499 ,1.18850 ,11.66151 
260 ,50.4600 ,1.24856 ,1.14058 ,11.19142 
261 ,50.6359 ,1.25036 ,1.14058 ,11.19142 
262 ,50.8123 ,1.25206 ,1.14401 ,11.22500 
263 ,51.0045 ,1.25395 ,1.10636 ,10.85563 
264 ,51.1800 ,1.25582 ,1.10636 ,10.85563 
265 ,51.3723 ,1.25759 ,1.09267 ,10.72132 
266 ,51.5643 ,1.25963 ,1.05503 ,10.35196 
267 ,51.7565 ,1.26146 ,1.07214 ,10.51985 
268 ,51.9488 ,1.26334 ,1.02423 ,10.04976 
269 ,52.1245 ,1.26523 ,1.04134 ,10.21765 
270 ,52.3004 ,1.26700 ,1.03450 ,10.15049 
271 ,52.4930 ,1.26877 ,1.00370 ,9.84829 
272 ,52.6849 ,1.27073 ,0.99001 ,9.71397 
273 ,52.8931 ,1.27275 ,0.99685 ,9.78113 
274 ,53.0691 ,1.27460 ,0.96605 ,9.47892 
275 ,53.2611 ,1.27650 ,0.96948 ,9.51250 
276 ,53.4535 ,1.27845 ,0.96605 ,9.47892 
277 ,53.6612 ,1.28048 ,0.92499 ,9.07598 
278 ,53.8535 ,1.28240 ,0.93183 ,9.14314 
279 ,54.0614 ,1.28449 ,0.90788 ,8.90809 
280 ,54.2534 ,1.28645 ,0.89419 ,8.77378 
281 ,54.4293 ,1.28833 ,0.87366 ,8.57231 
282 ,54.6216 ,1.29011 ,0.86339 ,8.47158 
283 ,54.8137 ,1.29204 ,0.85654 ,8.40442 
284 ,55.0060 ,1.29393 ,0.83943 ,8.23653 
285 ,55.2137 ,1.29596 ,0.83259 ,8.16937 
286 ,55.4061 ,1.29797 ,0.81206 ,7.96790 
287 ,55.5979 ,1.29988 ,0.81890 ,8.03506 
288 ,55.7743 ,1.30166 ,0.80863 ,7.93432 
289 ,55.9663 ,1.30351 ,0.77099 ,7.56496 
290 ,56.1744 ,1.30558 ,0.77784 ,7.63212 
291 ,56.3663 ,1.30760 ,0.76415 ,7.49780 
292 ,56.5425 ,1.30935 ,0.74361 ,7.29633 
293 ,56.7344 ,1.31120 ,0.74361 ,7.29633 
294 ,56.9428 ,1.31332 ,0.71624 ,7.02771 
295 ,57.1506 ,1.31525 ,0.70939 ,6.96055 
296 ,57.3589 ,1.31741 ,0.70255 ,6.89340 
297 ,57.5508 ,1.31938 ,0.69228 ,6.79266 
298 ,57.7105 ,1.32116 ,0.67175 ,6.59119 
299 ,57.9028 ,1.32288 ,0.66833 ,6.55761 
300 ,58.0952 ,1.32485 ,0.65806 ,6.45688 
301 ,58.3033 ,1.32689 ,0.63753 ,6.25541 
302 ,58.4954 ,1.32882 ,0.64437 ,6.32256 
303 ,58.7034 ,1.33091 ,0.60673 ,5.95320 
304 ,58.8952 ,1.33285 ,0.61357 ,6.02036 
305 ,59.1038 ,1.33480 ,0.58277 ,5.71815 
306 ,59.3116 ,1.33699 ,0.57935 ,5.68458 
307 ,59.5037 ,1.33887 ,0.54855 ,5.38237 
308 ,59.6799 ,1.34073 ,0.55539 ,5.44953 
309 ,59.8715 ,1.34269 ,0.53486 ,5.24806 
310 ,60.0637 ,1.34449 ,0.52459 ,5.14732 
311 ,60.2718 ,1.34656 ,0.52459 ,5.14732 
312 ,60.4640 ,1.34853 ,0.50064 ,4.91228 
313 ,60.6559 ,1.35044 ,0.49722 ,4.87870 
314 ,60.8482 ,1.35232 ,0.48695 ,4.77796 
315 ,61.0400 ,1.35423 ,0.46642 ,4.57649 
316 ,61.2323 ,1.35615 ,0.46642 ,4.57649 
317 ,61.4086 ,1.35803 ,0.45273 ,4.44218 
318 ,61.6166 ,1.36006 ,0.46300 ,4.54291 
319 ,61.8244 ,1.36210 ,0.41509 ,4.07282 
320 ,62.0163 ,1.36401 ,0.42877 ,4.20713 
321 ,62.2089 ,1.36595 ,0.40482 ,3.97208 
322 ,62.4168 ,1.36799 ,0.40140 ,3.93850 
323 ,62.5929 ,1.36983 ,0.38771 ,3.80419 
324 ,62.7690 ,1.37157 ,0.37402 ,3.66988 
325 ,62.9612 ,1.37345 ,0.35691 ,3.50199 
326 ,63.1533 ,1.37539 ,0.36375 ,3.56914 
327 ,63.3291 ,1.37722 ,0.33980 ,3.33410 
328 ,63.5213 ,1.37910 ,0.33980 ,3.33410 
329 ,63.7294 ,1.38114 ,0.32269 ,3.16620 
330 ,63.9054 ,1.38293 ,0.30215 ,2.96473 
331 ,64.0973 ,1.38481 ,0.30215 ,2.96473 
332 ,64.2897 ,1.38675 ,0.30215 ,2.96473 
333 ,64.4816 ,1.38869 ,0.26451 ,2.59537 
334 ,64.6737 ,1.39061 ,0.27820 ,2.72969 
335 ,64.8497 ,1.39240 ,0.26793 ,2.62895 
336 ,65.0581 ,1.39447 ,0.24740 ,2.42748 
337 ,65.2497 ,1.39644 ,0.23029 ,2.25959 
338 ,65.4421 ,1.39826 ,0.22002 ,2.15885 
339 ,65.6339 ,1.40020 ,0.22344 ,2.19243 
340 ,65.8263 ,1.40202 ,0.20291 ,1.99096 
341 ,66.0341 ,1.40417 ,0.20291 ,1.99096 
342 ,66.2265 ,1.40610 ,0.18922 ,1.85665 
343 ,66.4182 ,1.40800 ,0.17553 ,1.72234 
344 ,66.6107 ,1.40994 ,0.16869 ,1.65518 
345 ,66.8025 ,1.41188 ,0.15158 ,1.48729 
346 ,66.9948 ,1.41379 ,0.13105 ,1.28582 
347 ,67.1867 ,1.41567 ,0.12762 ,1.25224 
348 ,67.3791 ,1.41765 ,0.13447 ,1.31940 
349 ,67.5709 ,1.41959 ,0.12078 ,1.18508 
350 ,67.7792 ,1.42164 ,0.08314 ,0.81572 
351 ,67.9871 ,1.42371 ,0.08998 ,0.88288 
352 ,68.1790 ,1.42564 ,0.08314 ,0.81572 
353 ,68.3553 ,1.42741 ,0.07971 ,0.78214 
354 ,68.5633 ,1.42943 ,0.05234 ,0.51352 
355 ,68.7233 ,1.43123 ,0.04891 ,0.47994 
356 ,68.9154 ,1.43295 ,0.04891 ,0.47994 
357 ,69.0918 ,1.43476 ,0.03865 ,0.37920 
358 ,69.2676 ,1.43658 ,0.02154 ,0.21131 
359 ,69.4597 ,1.43837 ,0.00443 ,0.04342 
360 ,69.6356 ,1.44025 ,0.00443 ,0.04342 
361 ,69.8120 ,1.44200 ,-0.00584 ,-0.05731 
362 ,70.0041 ,1.44390 ,-0.01611 ,-0.15805 
363 ,70.1958 ,1.44579 ,-0.02637 ,-0.25878 
364 ,70.3883 ,1.44770 ,-0.03322 ,-0.32594 
365 ,70.5639 ,1.44960 ,-0.06060 ,-0.59457 
366 ,70.7398 ,1.45138 ,-0.05717 ,-0.56099 
367 ,70.9319 ,1.45313 ,-0.06060 ,-0.59457 
368 ,71.1405 ,1.45509 ,-0.07428 ,-0.72888 
369 ,71.3644 ,1.45747 ,-0.08797 ,-0.86319 
370 ,71.5407 ,1.45931 ,-0.10508 ,-1.03108 
371 ,71.7484 ,1.46119 ,-0.10508 ,-1.03108 
372 ,71.9409 ,1.46324 ,-0.11193 ,-1.09824 
373 ,72.1329 ,1.46514 ,-0.12904 ,-1.26613 
374 ,72.3409 ,1.46715 ,-0.14615 ,-1.43402 
375 ,72.5331 ,1.46916 ,-0.14615 ,-1.43402 
376 ,72.7248 ,1.47111 ,-0.15299 ,-1.50118 
377 ,72.9331 ,1.47309 ,-0.15984 ,-1.56834 
378 ,73.1094 ,1.47493 ,-0.17695 ,-1.73623 
379 ,73.2852 ,1.47672 ,-0.19406 ,-1.90412 
380 ,73.4776 ,1.47863 ,-0.20090 ,-1.97128 
381 ,73.6695 ,1.48048 ,-0.21117 ,-2.07201 
382 ,73.8617 ,1.48247 ,-0.22144 ,-2.17275 
383 ,74.0537 ,1.48435 ,-0.22828 ,-2.23990 
384 ,74.2619 ,1.48642 ,-0.25908 ,-2.54211 
385 ,74.4539 ,1.48837 ,-0.24197 ,-2.37422 
386 ,74.6620 ,1.49041 ,-0.26935 ,-2.64284 
387 ,74.8540 ,1.49235 ,-0.25224 ,-2.47495 
388 ,75.0617 ,1.49439 ,-0.27961 ,-2.74358 
389 ,75.2541 ,1.49634 ,-0.27619 ,-2.71000 
390 ,75.4461 ,1.49824 ,-0.30015 ,-2.94505 
391 ,75.6542 ,1.50023 ,-0.30015 ,-2.94505 
392 ,75.8463 ,1.50222 ,-0.32410 ,-3.18010 
393 ,76.0384 ,1.50414 ,-0.31726 ,-3.11294 
394 ,76.2304 ,1.50614 ,-0.31726 ,-3.11294 
395 ,76.4384 ,1.50818 ,-0.34806 ,-3.41514 
396 ,76.6306 ,1.51014 ,-0.35148 ,-3.44872 
397 ,76.8385 ,1.51213 ,-0.36859 ,-3.61661 
398 ,77.0147 ,1.51398 ,-0.36859 ,-3.61661 
399 ,77.2066 ,1.51597 ,-0.38570 ,-3.78450 
400 ,77.3991 ,1.51775 ,-0.39939 ,-3.91882 
401 ,77.6069 ,1.51984 ,-0.41308 ,-4.05313 
402 ,77.7992 ,1.52180 ,-0.40623 ,-3.98597 
403 ,77.9911 ,1.52370 ,-0.41650 ,-4.08671 
404 ,78.1993 ,1.52576 ,-0.43361 ,-4.25460 
405 ,78.3911 ,1.52764 ,-0.42677 ,-4.18744 
406 ,78.5835 ,1.52966 ,-0.46783 ,-4.59038 
407 ,78.7752 ,1.53148 ,-0.44730 ,-4.38891 
408 ,78.9516 ,1.53335 ,-0.47126 ,-4.62396 
409 ,79.1435 ,1.53533 ,-0.46783 ,-4.59038 
410 ,79.3353 ,1.53717 ,-0.48494 ,-4.75828 
411 ,79.5276 ,1.53908 ,-0.50548 ,-4.95975 
412 ,79.7199 ,1.54103 ,-0.50890 ,-4.99332 
413 ,79.9117 ,1.54291 ,-0.49863 ,-4.89259 
414 ,80.0883 ,1.54470 ,-0.53970 ,-5.29553 
415 ,80.2960 ,1.54667 ,-0.51917 ,-5.09406 
416 ,80.4717 ,1.54864 ,-0.54312 ,-5.32911 
417 ,80.6643 ,1.55043 ,-0.56365 ,-5.53058 
418 ,80.8723 ,1.55252 ,-0.54997 ,-5.39626 
419 ,81.0643 ,1.55443 ,-0.57734 ,-5.66489 
420 ,81.2565 ,1.55633 ,-0.58077 ,-5.69847 
421 ,81.4487 ,1.55827 ,-0.58419 ,-5.73205 
422 ,81.6243 ,1.56002 ,-0.60130 ,-5.89994 
423 ,81.8167 ,1.56189 ,-0.60472 ,-5.93352 
424 ,81.9929 ,1.56375 ,-0.60130 ,-5.89994 
425 ,82.1691 ,1.56553 ,-0.61841 ,-6.06783 
426 ,82.3611 ,1.56738 ,-0.63210 ,-6.20214 
427 ,82.5533 ,1.56931 ,-0.63210 ,-6.20214 
428 ,82.7614 ,1.57138 ,-0.64236 ,-6.30288 
429 ,82.9693 ,1.57345 ,-0.66290 ,-6.50435 
430 ,83.1613 ,1.57538 ,-0.67316 ,-6.60508 
431 ,83.3535 ,1.57728 ,-0.65605 ,-6.43719 
432 ,83.5455 ,1.57925 ,-0.68343 ,-6.70582 
433 ,83.7212 ,1.58110 ,-0.68343 ,-6.70582 
434 ,83.9298 ,1.58295 ,-0.69370 ,-6.80655 
435 ,84.1218 ,1.58498 ,-0.71765 ,-7.04160 
436 ,84.3140 ,1.58690 ,-0.70054 ,-6.87371 
437 ,84.5059 ,1.58882 ,-0.73476 ,-7.20949 
438 ,84.6982 ,1.59078 ,-0.74161 ,-7.27665 
439 ,84.8740 ,1.59263 ,-0.74845 ,-7.34380 
440 ,85.0660 ,1.59438 ,-0.75530 ,-7.41096 
441 ,85.2584 ,1.59629 ,-0.76556 ,-7.51170 
442 ,85.4504 ,1.59833 ,-0.76556 ,-7.51170 
443 ,85.6424 ,1.60019 ,-0.77925 ,-7.64601 
444 ,85.8342 ,1.60210 ,-0.76214 ,-7.47812 
445 ,86.0265 ,1.60410 ,-0.80663 ,-7.91464 
446 ,86.2188 ,1.60601 ,-0.82032 ,-8.04895 
447 ,86.4108 ,1.60790 ,-0.81005 ,-7.94821 
448 ,86.6029 ,1.60977 ,-0.84085 ,-8.25042 
449 ,86.7948 ,1.61168 ,-0.82374 ,-8.08253 
450 ,86.9865 ,1.61367 ,-0.84427 ,-8.28400 
451 ,87.1792 ,1.61553 ,-0.84085 ,-8.25042 
452 ,87.3712 ,1.61749 ,-0.84769 ,-8.31758 
453 ,87.5631 ,1.61937 ,-0.88876 ,-8.72051 
454 ,87.7392 ,1.62121 ,-0.88876 ,-8.72051 
455 ,87.9152 ,1.62293 ,-0.88192 ,-8.65336 
456 ,88.1234 ,1.62499 ,-0.90245 ,-8.85483 
457 ,88.3154 ,1.62685 ,-0.89560 ,-8.78767 
458 ,88.4756 ,1.62869 ,-0.88876 ,-8.72051 
459 ,88.6515 ,1.63031 ,-0.90587 ,-8.88841 
460 ,88.8438 ,1.63220 ,-0.92298 ,-9.05630 
461 ,89.0519 ,1.63428 ,-0.91614 ,-8.98914 
462 ,89.2435 ,1.63619 ,-0.94694 ,-9.29135 
463 ,89.4358 ,1.63812 ,-0.94694 ,-9.29135 
