Data stamp = , 27-04-2022 12:58:37 910

Calibration Values: 
Slope = , 26.54 , g/V 
Offset Voltage at no contact = , -0.501760 , V 

No , Time , Stage Position ,   Mass , Force 
   ,  (s) ,      (mm)      ,   (g)  , (mN)  

1 ,0.0000 ,0.74948 ,5.29510 ,51.95548 
2 ,0.2930 ,0.74966 ,5.28483 ,51.85474 
3 ,0.6933 ,0.75108 ,5.29167 ,51.92190 
4 ,0.9018 ,0.75325 ,5.29852 ,51.98905 
5 ,1.0936 ,0.75503 ,5.28141 ,51.82116 
6 ,1.2858 ,0.75704 ,5.31563 ,52.15694 
7 ,1.4780 ,0.75893 ,5.29510 ,51.95548 
8 ,1.6699 ,0.76086 ,5.30194 ,52.02263 
9 ,1.8780 ,0.76297 ,5.28141 ,51.82116 
10 ,2.0702 ,0.76487 ,5.26430 ,51.65327 
11 ,2.2782 ,0.76698 ,5.25061 ,51.51896 
12 ,2.4863 ,0.76904 ,5.23007 ,51.31749 
13 ,2.6780 ,0.77092 ,5.19243 ,50.94813 
14 ,2.8704 ,0.77281 ,5.19243 ,50.94813 
15 ,3.0623 ,0.77478 ,5.17190 ,50.74666 
16 ,3.2546 ,0.77664 ,5.14110 ,50.44445 
17 ,3.4625 ,0.77876 ,5.13083 ,50.34372 
18 ,3.6547 ,0.78071 ,5.10345 ,50.07509 
19 ,3.8306 ,0.78262 ,5.09661 ,50.00793 
20 ,4.0069 ,0.78430 ,5.07265 ,49.77289 
21 ,4.2149 ,0.78628 ,5.05554 ,49.60499 
22 ,4.4071 ,0.78819 ,5.04870 ,49.53784 
23 ,4.5993 ,0.79014 ,5.01106 ,49.16848 
24 ,4.7911 ,0.79208 ,5.00079 ,49.06774 
25 ,4.9833 ,0.79400 ,4.99394 ,49.00058 
26 ,5.1913 ,0.79604 ,4.95288 ,48.59764 
27 ,5.3835 ,0.79795 ,4.94946 ,48.56407 
28 ,5.5756 ,0.79995 ,4.91181 ,48.19471 
29 ,5.7677 ,0.80182 ,4.90839 ,48.16113 
30 ,5.9598 ,0.80380 ,4.88786 ,47.95966 
31 ,6.1359 ,0.80558 ,4.87075 ,47.79177 
32 ,6.3279 ,0.80743 ,4.86048 ,47.69103 
33 ,6.5199 ,0.80944 ,4.80915 ,47.18736 
34 ,6.7118 ,0.81128 ,4.79888 ,47.08662 
35 ,6.9040 ,0.81316 ,4.81257 ,47.22093 
36 ,7.0800 ,0.81507 ,4.76466 ,46.75084 
37 ,7.2564 ,0.81680 ,4.75782 ,46.68368 
38 ,7.4486 ,0.81862 ,4.74755 ,46.58295 
39 ,7.6406 ,0.82057 ,4.72702 ,46.38148 
40 ,7.8323 ,0.82248 ,4.69279 ,46.04569 
41 ,8.0242 ,0.82435 ,4.69964 ,46.11285 
42 ,8.2167 ,0.82635 ,4.66542 ,45.77707 
43 ,8.4244 ,0.82843 ,4.66542 ,45.77707 
44 ,8.6007 ,0.83024 ,4.62093 ,45.34055 
45 ,8.7928 ,0.83206 ,4.60724 ,45.20624 
46 ,8.9851 ,0.83396 ,4.61408 ,45.27339 
47 ,9.2091 ,0.83619 ,4.57986 ,44.93761 
48 ,9.4011 ,0.83812 ,4.56275 ,44.76972 
49 ,9.5929 ,0.84011 ,4.52853 ,44.43394 
50 ,9.7854 ,0.84194 ,4.54222 ,44.56825 
51 ,9.9930 ,0.84407 ,4.49773 ,44.13173 
52 ,10.1694 ,0.84595 ,4.50457 ,44.19889 
53 ,10.3613 ,0.84773 ,4.48404 ,43.99742 
54 ,10.5536 ,0.84971 ,4.44640 ,43.62806 
55 ,10.7457 ,0.85166 ,4.44982 ,43.66163 
56 ,10.9378 ,0.85353 ,4.42929 ,43.46016 
57 ,11.1459 ,0.85557 ,4.41218 ,43.29227 
58 ,11.3379 ,0.85748 ,4.38480 ,43.02365 
59 ,11.5140 ,0.85932 ,4.36427 ,42.82218 
60 ,11.7060 ,0.86124 ,4.34716 ,42.65429 
61 ,11.8819 ,0.86300 ,4.34031 ,42.58713 
62 ,12.0743 ,0.86481 ,4.29924 ,42.18419 
63 ,12.2821 ,0.86697 ,4.30951 ,42.28492 
64 ,12.4583 ,0.86883 ,4.27871 ,41.98272 
65 ,12.6505 ,0.87058 ,4.26160 ,41.81483 
66 ,12.8424 ,0.87255 ,4.25133 ,41.71409 
67 ,13.0346 ,0.87461 ,4.22053 ,41.41189 
68 ,13.2265 ,0.87633 ,4.22738 ,41.47905 
69 ,13.4184 ,0.87829 ,4.19658 ,41.17684 
70 ,13.6111 ,0.88026 ,4.15894 ,40.80748 
71 ,13.8187 ,0.88232 ,4.15551 ,40.77390 
72 ,14.0429 ,0.88450 ,4.14525 ,40.67317 
73 ,14.2351 ,0.88654 ,4.10418 ,40.27023 
74 ,14.4271 ,0.88835 ,4.10076 ,40.23665 
75 ,14.5872 ,0.89016 ,4.07680 ,40.00160 
76 ,14.7792 ,0.89188 ,4.05969 ,39.83371 
77 ,14.9554 ,0.89373 ,4.06312 ,39.86729 
78 ,15.1634 ,0.89574 ,4.03574 ,39.59866 
79 ,15.3556 ,0.89771 ,4.00836 ,39.33003 
80 ,15.5474 ,0.89960 ,3.99125 ,39.16214 
81 ,15.7397 ,0.90151 ,3.99467 ,39.19572 
82 ,15.9319 ,0.90344 ,3.95361 ,38.79278 
83 ,16.1238 ,0.90535 ,3.95018 ,38.75920 
84 ,16.2997 ,0.90717 ,3.93992 ,38.65847 
85 ,16.4920 ,0.90903 ,3.90912 ,38.35626 
86 ,16.6676 ,0.91090 ,3.89543 ,38.22195 
87 ,16.8598 ,0.91271 ,3.89543 ,38.22195 
88 ,17.0521 ,0.91459 ,3.86121 ,37.88617 
89 ,17.2442 ,0.91657 ,3.83383 ,37.61754 
90 ,17.4361 ,0.91845 ,3.83725 ,37.65112 
91 ,17.6285 ,0.92042 ,3.80645 ,37.34891 
92 ,17.8205 ,0.92241 ,3.79276 ,37.21460 
93 ,17.9967 ,0.92413 ,3.77223 ,37.01313 
94 ,18.1887 ,0.92599 ,3.74485 ,36.74450 
95 ,18.3969 ,0.92798 ,3.74485 ,36.74450 
96 ,18.5888 ,0.93001 ,3.71405 ,36.44230 
97 ,18.7809 ,0.93189 ,3.71748 ,36.47588 
98 ,18.9730 ,0.93378 ,3.69694 ,36.27441 
99 ,19.1811 ,0.93594 ,3.66957 ,36.00578 
100 ,19.3731 ,0.93778 ,3.63877 ,35.70358 
101 ,19.5812 ,0.93986 ,3.63192 ,35.63642 
102 ,19.7894 ,0.94195 ,3.60454 ,35.36779 
103 ,19.9813 ,0.94387 ,3.60797 ,35.40137 
104 ,20.1572 ,0.94576 ,3.56690 ,34.99843 
105 ,20.3337 ,0.94748 ,3.56006 ,34.93128 
106 ,20.5414 ,0.94947 ,3.54637 ,34.79696 
107 ,20.7338 ,0.95142 ,3.51899 ,34.52834 
108 ,20.9256 ,0.95336 ,3.50530 ,34.39402 
109 ,21.1338 ,0.95540 ,3.49504 ,34.29329 
110 ,21.3258 ,0.95735 ,3.47450 ,34.09182 
111 ,21.5180 ,0.95923 ,3.46766 ,34.02466 
112 ,21.7098 ,0.96116 ,3.43686 ,33.72246 
113 ,21.8862 ,0.96301 ,3.41290 ,33.48741 
114 ,22.0778 ,0.96487 ,3.41633 ,33.52099 
115 ,22.2699 ,0.96677 ,3.39237 ,33.28594 
116 ,22.4301 ,0.96855 ,3.36157 ,32.98374 
117 ,22.6223 ,0.97034 ,3.36499 ,33.01731 
118 ,22.8303 ,0.97242 ,3.34104 ,32.78227 
119 ,23.0224 ,0.97430 ,3.32393 ,32.61437 
120 ,23.2146 ,0.97627 ,3.31708 ,32.54722 
121 ,23.3908 ,0.97803 ,3.29655 ,32.34575 
122 ,23.5828 ,0.97989 ,3.27944 ,32.17786 
123 ,23.7590 ,0.98172 ,3.26917 ,32.07712 
124 ,23.9669 ,0.98370 ,3.24522 ,31.84207 
125 ,24.1431 ,0.98554 ,3.23153 ,31.70776 
126 ,24.3192 ,0.98738 ,3.21442 ,31.53987 
127 ,24.5114 ,0.98914 ,3.19046 ,31.30482 
128 ,24.7194 ,0.99128 ,3.17677 ,31.17051 
129 ,24.9113 ,0.99319 ,3.15624 ,30.96904 
130 ,25.0870 ,0.99500 ,3.13571 ,30.76757 
131 ,25.2475 ,0.99671 ,3.12544 ,30.66683 
132 ,25.4397 ,0.99844 ,3.11860 ,30.59968 
133 ,25.6478 ,1.00054 ,3.08095 ,30.23031 
134 ,25.8555 ,1.00262 ,3.08438 ,30.26389 
135 ,26.0479 ,1.00458 ,3.05700 ,29.99527 
136 ,26.2555 ,1.00657 ,3.04673 ,29.89453 
137 ,26.4319 ,1.00842 ,3.02278 ,29.65948 
138 ,26.6238 ,1.01026 ,3.00567 ,29.49159 
139 ,26.8002 ,1.01216 ,3.00224 ,29.45801 
140 ,26.9923 ,1.01395 ,2.96802 ,29.12223 
141 ,27.2004 ,1.01611 ,2.95776 ,29.02150 
142 ,27.3923 ,1.01794 ,2.95091 ,28.95434 
143 ,27.5845 ,1.01992 ,2.90642 ,28.51782 
144 ,27.7605 ,1.02179 ,2.91327 ,28.58498 
145 ,27.9525 ,1.02358 ,2.89273 ,28.38351 
146 ,28.1607 ,1.02568 ,2.87562 ,28.21562 
147 ,28.3364 ,1.02747 ,2.87220 ,28.18204 
148 ,28.5126 ,1.02928 ,2.85167 ,27.98057 
149 ,28.6888 ,1.03110 ,2.79691 ,27.44332 
150 ,28.8807 ,1.03285 ,2.81402 ,27.61121 
151 ,29.0892 ,1.03482 ,2.80376 ,27.51047 
152 ,29.2971 ,1.03705 ,2.77980 ,27.27542 
153 ,29.4893 ,1.03895 ,2.74558 ,26.93964 
154 ,29.6649 ,1.04077 ,2.73874 ,26.87248 
155 ,29.8575 ,1.04262 ,2.73189 ,26.80533 
156 ,30.0494 ,1.04453 ,2.70452 ,26.53670 
157 ,30.2253 ,1.04645 ,2.69425 ,26.43597 
158 ,30.4016 ,1.04808 ,2.67714 ,26.26807 
159 ,30.5936 ,1.05010 ,2.66687 ,26.16734 
160 ,30.7697 ,1.05176 ,2.64292 ,25.93229 
161 ,30.9458 ,1.05357 ,2.61212 ,25.63009 
162 ,31.1380 ,1.05543 ,2.62923 ,25.79798 
163 ,31.3298 ,1.05737 ,2.60869 ,25.59651 
164 ,31.5220 ,1.05928 ,2.57447 ,25.26073 
165 ,31.7139 ,1.06116 ,2.57447 ,25.26073 
166 ,31.9063 ,1.06310 ,2.54025 ,24.92494 
167 ,32.0982 ,1.06507 ,2.54025 ,24.92494 
168 ,32.2744 ,1.06683 ,2.51630 ,24.68989 
169 ,32.4823 ,1.06885 ,2.49918 ,24.52200 
170 ,32.6586 ,1.07071 ,2.47181 ,24.25338 
171 ,32.8503 ,1.07254 ,2.46154 ,24.15264 
172 ,33.0427 ,1.07447 ,2.43416 ,23.88402 
173 ,33.2347 ,1.07638 ,2.44443 ,23.98475 
174 ,33.4109 ,1.07826 ,2.41705 ,23.71612 
175 ,33.6029 ,1.08005 ,2.40679 ,23.61539 
176 ,33.8109 ,1.08210 ,2.37941 ,23.34676 
177 ,34.0030 ,1.08404 ,2.36572 ,23.21245 
178 ,34.1792 ,1.08586 ,2.34519 ,23.01098 
179 ,34.3552 ,1.08764 ,2.35203 ,23.07814 
180 ,34.5474 ,1.08951 ,2.33492 ,22.91024 
181 ,34.7393 ,1.09153 ,2.31781 ,22.74235 
182 ,34.9150 ,1.09324 ,2.30412 ,22.60804 
183 ,35.0915 ,1.09499 ,2.29043 ,22.47373 
184 ,35.2675 ,1.09680 ,2.26990 ,22.27226 
185 ,35.4436 ,1.09850 ,2.23910 ,21.97005 
186 ,35.6358 ,1.10038 ,2.24252 ,22.00363 
187 ,35.8437 ,1.10247 ,2.21172 ,21.70143 
188 ,36.0359 ,1.10439 ,2.21172 ,21.70143 
189 ,36.2599 ,1.10659 ,2.18092 ,21.39922 
190 ,36.4681 ,1.10875 ,2.17066 ,21.29849 
191 ,36.6602 ,1.11069 ,2.15355 ,21.13059 
192 ,36.8363 ,1.11249 ,2.15355 ,21.13059 
193 ,37.0444 ,1.11445 ,2.11590 ,20.76123 
194 ,37.2200 ,1.11636 ,2.10221 ,20.62692 
195 ,37.4125 ,1.11812 ,2.09537 ,20.55976 
196 ,37.6047 ,1.12010 ,2.06457 ,20.25756 
197 ,37.7966 ,1.12201 ,2.05773 ,20.19040 
198 ,37.9887 ,1.12388 ,2.03719 ,19.98893 
199 ,38.1807 ,1.12585 ,2.00982 ,19.72031 
200 ,38.3728 ,1.12775 ,2.02008 ,19.82104 
201 ,38.5810 ,1.12984 ,1.99270 ,19.55241 
202 ,38.7730 ,1.13179 ,1.99270 ,19.55241 
203 ,38.9812 ,1.13385 ,1.96190 ,19.25021 
204 ,39.1730 ,1.13576 ,1.95506 ,19.18305 
205 ,39.3649 ,1.13770 ,1.93111 ,18.94801 
206 ,39.5574 ,1.13965 ,1.91057 ,18.74654 
207 ,39.7494 ,1.14159 ,1.91742 ,18.81369 
208 ,39.9576 ,1.14351 ,1.87635 ,18.41075 
209 ,40.1656 ,1.14567 ,1.86951 ,18.34360 
210 ,40.3578 ,1.14764 ,1.85582 ,18.20928 
211 ,40.5497 ,1.14960 ,1.84897 ,18.14213 
212 ,40.7417 ,1.15140 ,1.83528 ,18.00781 
213 ,40.9176 ,1.15335 ,1.82160 ,17.87350 
214 ,41.0940 ,1.15497 ,1.82844 ,17.94066 
215 ,41.3019 ,1.15704 ,1.79080 ,17.57129 
216 ,41.4781 ,1.15886 ,1.77369 ,17.40340 
217 ,41.6702 ,1.16078 ,1.77369 ,17.40340 
218 ,41.8619 ,1.16265 ,1.74631 ,17.13478 
219 ,42.0384 ,1.16447 ,1.73262 ,17.00046 
220 ,42.2302 ,1.16635 ,1.73604 ,17.03404 
221 ,42.4223 ,1.16825 ,1.70524 ,16.73184 
222 ,42.6142 ,1.17016 ,1.69840 ,16.66468 
223 ,42.8068 ,1.17209 ,1.69155 ,16.59752 
224 ,43.0147 ,1.17418 ,1.67786 ,16.46321 
225 ,43.2069 ,1.17609 ,1.66760 ,16.36248 
226 ,43.3989 ,1.17800 ,1.62653 ,15.95954 
227 ,43.6070 ,1.18005 ,1.63338 ,16.02669 
228 ,43.7990 ,1.18200 ,1.60600 ,15.75807 
229 ,44.0072 ,1.18407 ,1.60942 ,15.79164 
230 ,44.2149 ,1.18604 ,1.57862 ,15.48944 
231 ,44.3914 ,1.18797 ,1.56836 ,15.38871 
232 ,44.5832 ,1.18982 ,1.55809 ,15.28797 
233 ,44.7750 ,1.19174 ,1.54098 ,15.12008 
234 ,44.9675 ,1.19368 ,1.54440 ,15.15366 
235 ,45.1595 ,1.19557 ,1.50676 ,14.78430 
236 ,45.3517 ,1.19750 ,1.51018 ,14.81787 
237 ,45.5438 ,1.19951 ,1.48622 ,14.58283 
238 ,45.7198 ,1.20132 ,1.47253 ,14.44851 
239 ,45.9118 ,1.20313 ,1.46911 ,14.41493 
240 ,46.1039 ,1.20499 ,1.43831 ,14.11273 
241 ,46.2961 ,1.20691 ,1.42805 ,14.01199 
242 ,46.5043 ,1.20903 ,1.41778 ,13.91126 
243 ,46.6802 ,1.21088 ,1.39383 ,13.67621 
244 ,46.8720 ,1.21274 ,1.40067 ,13.74337 
245 ,47.0644 ,1.21468 ,1.38698 ,13.60906 
246 ,47.2565 ,1.21664 ,1.35276 ,13.27327 
247 ,47.4484 ,1.21846 ,1.36987 ,13.44116 
248 ,47.6242 ,1.22028 ,1.34249 ,13.17254 
249 ,47.8008 ,1.22207 ,1.32538 ,13.00465 
250 ,47.9923 ,1.22398 ,1.32538 ,13.00465 
251 ,48.1848 ,1.22588 ,1.30143 ,12.76960 
252 ,48.3927 ,1.22789 ,1.28774 ,12.63528 
253 ,48.5688 ,1.22977 ,1.26720 ,12.43381 
254 ,48.7611 ,1.23161 ,1.25694 ,12.33308 
255 ,48.9691 ,1.23366 ,1.25352 ,12.29950 
256 ,49.1611 ,1.23556 ,1.22614 ,12.03088 
257 ,49.3373 ,1.23741 ,1.19534 ,11.72867 
258 ,49.5135 ,1.23916 ,1.20561 ,11.82941 
259 ,49.7055 ,1.24101 ,1.19192 ,11.69509 
260 ,49.8976 ,1.24299 ,1.17481 ,11.52720 
261 ,50.0897 ,1.24488 ,1.18165 ,11.59436 
262 ,50.2815 ,1.24676 ,1.14743 ,11.25857 
263 ,50.4737 ,1.24869 ,1.14743 ,11.25857 
264 ,50.6817 ,1.25079 ,1.12347 ,11.02353 
265 ,50.8737 ,1.25277 ,1.11663 ,10.95637 
266 ,51.0820 ,1.25477 ,1.10294 ,10.82206 
267 ,51.2576 ,1.25663 ,1.09267 ,10.72132 
268 ,51.4502 ,1.25845 ,1.08925 ,10.68774 
269 ,51.6417 ,1.26038 ,1.05503 ,10.35196 
270 ,51.8344 ,1.26227 ,1.04819 ,10.28480 
271 ,52.0422 ,1.26436 ,1.04819 ,10.28480 
272 ,52.2185 ,1.26625 ,1.01739 ,9.98260 
273 ,52.4108 ,1.26804 ,1.01396 ,9.94902 
274 ,52.6023 ,1.26998 ,0.99001 ,9.71397 
275 ,52.7947 ,1.27197 ,0.98659 ,9.68039 
276 ,53.0028 ,1.27401 ,0.96948 ,9.51250 
277 ,53.2104 ,1.27606 ,0.96263 ,9.44535 
278 ,53.4025 ,1.27797 ,0.95579 ,9.37819 
279 ,53.5785 ,1.27985 ,0.92841 ,9.10956 
280 ,53.7710 ,1.28170 ,0.91472 ,8.97525 
281 ,53.9792 ,1.28383 ,0.89077 ,8.74020 
282 ,54.1712 ,1.28568 ,0.89419 ,8.77378 
283 ,54.3633 ,1.28756 ,0.88050 ,8.63947 
284 ,54.5393 ,1.28947 ,0.85312 ,8.37084 
285 ,54.7313 ,1.29123 ,0.87366 ,8.57231 
286 ,54.9077 ,1.29306 ,0.85997 ,8.43800 
287 ,55.0998 ,1.29495 ,0.83601 ,8.20295 
288 ,55.3079 ,1.29705 ,0.83601 ,8.20295 
289 ,55.4999 ,1.29897 ,0.79495 ,7.80001 
290 ,55.6919 ,1.30091 ,0.79152 ,7.76643 
291 ,55.8841 ,1.30285 ,0.78468 ,7.69927 
292 ,56.0760 ,1.30473 ,0.76415 ,7.49780 
293 ,56.2681 ,1.30663 ,0.77441 ,7.59854 
294 ,56.4440 ,1.30843 ,0.76072 ,7.46423 
295 ,56.6359 ,1.31043 ,0.73335 ,7.19560 
296 ,56.8279 ,1.31224 ,0.72992 ,7.16202 
297 ,57.0046 ,1.31407 ,0.72650 ,7.12844 
298 ,57.1964 ,1.31594 ,0.68544 ,6.72550 
299 ,57.3887 ,1.31785 ,0.69570 ,6.82624 
300 ,57.5806 ,1.31980 ,0.67859 ,6.65835 
301 ,57.7887 ,1.32180 ,0.68201 ,6.69193 
302 ,57.9807 ,1.32371 ,0.64095 ,6.28899 
303 ,58.1891 ,1.32581 ,0.65464 ,6.42330 
304 ,58.3971 ,1.32794 ,0.61699 ,6.05394 
305 ,58.5891 ,1.32982 ,0.61699 ,6.05394 
306 ,58.7809 ,1.33171 ,0.59304 ,5.81889 
307 ,58.9729 ,1.33368 ,0.59646 ,5.85247 
308 ,59.1493 ,1.33550 ,0.59646 ,5.85247 
309 ,59.3575 ,1.33753 ,0.54855 ,5.38237 
310 ,59.5494 ,1.33942 ,0.55539 ,5.44953 
311 ,59.7416 ,1.34132 ,0.54171 ,5.31522 
312 ,59.9335 ,1.34331 ,0.52802 ,5.18090 
313 ,60.1257 ,1.34531 ,0.52117 ,5.11375 
314 ,60.3016 ,1.34701 ,0.50748 ,4.97943 
315 ,60.4939 ,1.34885 ,0.49722 ,4.87870 
316 ,60.6856 ,1.35083 ,0.49722 ,4.87870 
317 ,60.8620 ,1.35258 ,0.48695 ,4.77796 
318 ,61.0540 ,1.35449 ,0.46642 ,4.57649 
319 ,61.2300 ,1.35627 ,0.45273 ,4.44218 
320 ,61.4381 ,1.35834 ,0.45273 ,4.44218 
321 ,61.6143 ,1.36012 ,0.42535 ,4.17355 
322 ,61.8063 ,1.36204 ,0.44246 ,4.34144 
323 ,61.9981 ,1.36395 ,0.39797 ,3.90493 
324 ,62.1905 ,1.36585 ,0.40140 ,3.93850 
325 ,62.3826 ,1.36777 ,0.38771 ,3.80419 
326 ,62.5747 ,1.36967 ,0.38429 ,3.77061 
327 ,62.7668 ,1.37156 ,0.38771 ,3.80419 
328 ,62.9588 ,1.37353 ,0.35349 ,3.46841 
329 ,63.1510 ,1.37547 ,0.35349 ,3.46841 
330 ,63.3589 ,1.37752 ,0.33638 ,3.30052 
331 ,63.5350 ,1.37930 ,0.32953 ,3.23336 
332 ,63.7112 ,1.38114 ,0.33295 ,3.26694 
333 ,63.8873 ,1.38286 ,0.31242 ,3.06547 
334 ,64.0794 ,1.38474 ,0.28847 ,2.83042 
335 ,64.2713 ,1.38660 ,0.28162 ,2.76326 
336 ,64.4632 ,1.38857 ,0.28847 ,2.83042 
337 ,64.6396 ,1.39036 ,0.26793 ,2.62895 
338 ,64.8477 ,1.39236 ,0.26451 ,2.59537 
339 ,65.0235 ,1.39430 ,0.25082 ,2.46106 
340 ,65.2155 ,1.39609 ,0.23371 ,2.29317 
341 ,65.4085 ,1.39800 ,0.21660 ,2.12528 
342 ,65.6318 ,1.40014 ,0.20633 ,2.02454 
343 ,65.8240 ,1.40214 ,0.22344 ,2.19243 
344 ,66.0162 ,1.40411 ,0.18922 ,1.85665 
345 ,66.2084 ,1.40600 ,0.18580 ,1.82307 
346 ,66.4162 ,1.40812 ,0.15842 ,1.55445 
347 ,66.6084 ,1.41004 ,0.14473 ,1.42013 
348 ,66.7845 ,1.41183 ,0.15158 ,1.48729 
349 ,66.9925 ,1.41384 ,0.13447 ,1.31940 
350 ,67.1846 ,1.41575 ,0.14473 ,1.42013 
351 ,67.3924 ,1.41782 ,0.10367 ,1.01719 
352 ,67.6007 ,1.41994 ,0.10025 ,0.98361 
353 ,67.8088 ,1.42201 ,0.09340 ,0.91646 
354 ,67.9688 ,1.42374 ,0.08656 ,0.84930 
355 ,68.1610 ,1.42550 ,0.07971 ,0.78214 
356 ,68.3530 ,1.42741 ,0.04549 ,0.44636 
357 ,68.5446 ,1.42940 ,0.05576 ,0.54710 
358 ,68.7373 ,1.43123 ,0.03180 ,0.31205 
359 ,68.9294 ,1.43323 ,0.03180 ,0.31205 
360 ,69.1213 ,1.43515 ,0.02838 ,0.27847 
361 ,69.3296 ,1.43721 ,0.01811 ,0.17773 
362 ,69.5214 ,1.43913 ,0.00443 ,0.04342 
363 ,69.7138 ,1.44101 ,-0.01611 ,-0.15805 
364 ,69.9215 ,1.44310 ,-0.00584 ,-0.05731 
365 ,70.1138 ,1.44501 ,-0.04348 ,-0.42667 
366 ,70.3060 ,1.44697 ,-0.02295 ,-0.22520 
367 ,70.5139 ,1.44900 ,-0.06060 ,-0.59457 
368 ,70.6896 ,1.45088 ,-0.07086 ,-0.69530 
369 ,70.8981 ,1.45278 ,-0.06402 ,-0.62814 
370 ,71.1061 ,1.45493 ,-0.08113 ,-0.79604 
371 ,71.2983 ,1.45687 ,-0.09482 ,-0.93035 
372 ,71.4900 ,1.45874 ,-0.10508 ,-1.03108 
373 ,71.6665 ,1.46063 ,-0.11877 ,-1.16540 
374 ,71.8584 ,1.46244 ,-0.12219 ,-1.19898 
375 ,72.0506 ,1.46444 ,-0.14615 ,-1.43402 
376 ,72.2267 ,1.46623 ,-0.14273 ,-1.40045 
377 ,72.4347 ,1.46820 ,-0.16668 ,-1.63549 
378 ,72.6266 ,1.47011 ,-0.17353 ,-1.70265 
379 ,72.8190 ,1.47210 ,-0.17695 ,-1.73623 
380 ,73.0111 ,1.47400 ,-0.19406 ,-1.90412 
381 ,73.2191 ,1.47608 ,-0.19064 ,-1.87054 
382 ,73.4115 ,1.47801 ,-0.21459 ,-2.10559 
383 ,73.6033 ,1.47996 ,-0.19406 ,-1.90412 
384 ,73.7952 ,1.48187 ,-0.22828 ,-2.23990 
385 ,73.9869 ,1.48382 ,-0.23855 ,-2.34064 
386 ,74.1794 ,1.48566 ,-0.23855 ,-2.34064 
387 ,74.3717 ,1.48755 ,-0.26250 ,-2.57569 
388 ,74.5792 ,1.48970 ,-0.25908 ,-2.54211 
389 ,74.7714 ,1.49156 ,-0.26250 ,-2.57569 
390 ,74.9799 ,1.49370 ,-0.26935 ,-2.64284 
391 ,75.1879 ,1.49569 ,-0.29330 ,-2.87789 
392 ,75.3961 ,1.49789 ,-0.31726 ,-3.11294 
393 ,75.5882 ,1.49980 ,-0.30357 ,-2.97863 
394 ,75.7961 ,1.50179 ,-0.32752 ,-3.21367 
395 ,75.9883 ,1.50376 ,-0.32410 ,-3.18010 
396 ,76.1803 ,1.50568 ,-0.33095 ,-3.24725 
397 ,76.3564 ,1.50746 ,-0.34464 ,-3.38156 
398 ,76.5485 ,1.50936 ,-0.36517 ,-3.58303 
399 ,76.7406 ,1.51130 ,-0.35148 ,-3.44872 
400 ,76.9326 ,1.51319 ,-0.37886 ,-3.71735 
401 ,77.1247 ,1.51509 ,-0.37886 ,-3.71735 
402 ,77.3327 ,1.51713 ,-0.39255 ,-3.85166 
403 ,77.5409 ,1.51925 ,-0.39255 ,-3.85166 
404 ,77.7327 ,1.52121 ,-0.43019 ,-4.22102 
405 ,77.9411 ,1.52329 ,-0.40966 ,-4.01955 
406 ,78.1332 ,1.52522 ,-0.44046 ,-4.32176 
407 ,78.3410 ,1.52723 ,-0.44388 ,-4.35534 
408 ,78.5172 ,1.52909 ,-0.45072 ,-4.42249 
409 ,78.7093 ,1.53090 ,-0.46783 ,-4.59038 
410 ,78.9014 ,1.53287 ,-0.46099 ,-4.52323 
411 ,79.0934 ,1.53478 ,-0.47810 ,-4.69112 
412 ,79.2856 ,1.53669 ,-0.48494 ,-4.75828 
413 ,79.4935 ,1.53884 ,-0.50890 ,-4.99332 
414 ,79.6857 ,1.54068 ,-0.51574 ,-5.06048 
415 ,79.8938 ,1.54271 ,-0.52943 ,-5.19479 
416 ,80.1019 ,1.54485 ,-0.53285 ,-5.22837 
417 ,80.2937 ,1.54677 ,-0.52943 ,-5.19479 
418 ,80.4858 ,1.54873 ,-0.55339 ,-5.42984 
419 ,80.6781 ,1.55065 ,-0.54997 ,-5.39626 
420 ,80.8702 ,1.55254 ,-0.58077 ,-5.69847 
421 ,81.0783 ,1.55464 ,-0.56365 ,-5.53058 
422 ,81.2703 ,1.55655 ,-0.59445 ,-5.83278 
423 ,81.4623 ,1.55848 ,-0.59445 ,-5.83278 
424 ,81.6545 ,1.56042 ,-0.58761 ,-5.76562 
425 ,81.8623 ,1.56250 ,-0.60814 ,-5.96709 
426 ,82.0702 ,1.56454 ,-0.62183 ,-6.10141 
427 ,82.2462 ,1.56646 ,-0.63552 ,-6.23572 
428 ,82.4066 ,1.56811 ,-0.64236 ,-6.30288 
429 ,82.6145 ,1.56988 ,-0.63552 ,-6.23572 
430 ,82.8069 ,1.57195 ,-0.65605 ,-6.43719 
431 ,82.9986 ,1.57385 ,-0.66290 ,-6.50435 
432 ,83.1751 ,1.57568 ,-0.68001 ,-6.67224 
433 ,83.3673 ,1.57753 ,-0.69712 ,-6.84013 
434 ,83.5753 ,1.57955 ,-0.69370 ,-6.80655 
435 ,83.7672 ,1.58155 ,-0.71423 ,-7.00802 
436 ,83.9435 ,1.58334 ,-0.70739 ,-6.94086 
437 ,84.1356 ,1.58524 ,-0.72450 ,-7.10876 
438 ,84.3276 ,1.58712 ,-0.72792 ,-7.14233 
439 ,84.5194 ,1.58903 ,-0.73134 ,-7.17591 
440 ,84.7119 ,1.59100 ,-0.74503 ,-7.31023 
441 ,84.8878 ,1.59282 ,-0.76898 ,-7.54527 
442 ,85.0478 ,1.59449 ,-0.76898 ,-7.54527 
443 ,85.2400 ,1.59618 ,-0.76214 ,-7.47812 
444 ,85.4481 ,1.59830 ,-0.78610 ,-7.71317 
445 ,85.6402 ,1.60024 ,-0.78610 ,-7.71317 
446 ,85.8322 ,1.60220 ,-0.81347 ,-7.98179 
447 ,86.0400 ,1.60427 ,-0.78610 ,-7.71317 
448 ,86.2320 ,1.60618 ,-0.81689 ,-8.01537 
449 ,86.4405 ,1.60821 ,-0.81005 ,-7.94821 
450 ,86.6325 ,1.61021 ,-0.83401 ,-8.18326 
451 ,86.8245 ,1.61204 ,-0.83401 ,-8.18326 
452 ,87.0002 ,1.61386 ,-0.83743 ,-8.21684 
453 ,87.1927 ,1.61573 ,-0.86481 ,-8.48547 
454 ,87.3851 ,1.61765 ,-0.85454 ,-8.38473 
455 ,87.5768 ,1.61964 ,-0.85796 ,-8.41831 
456 ,87.7690 ,1.62153 ,-0.88876 ,-8.72051 
457 ,87.9770 ,1.62363 ,-0.87849 ,-8.61978 
458 ,88.1369 ,1.62538 ,-0.89903 ,-8.82125 
459 ,88.3293 ,1.62710 ,-0.91272 ,-8.95556 
460 ,88.5213 ,1.62907 ,-0.91272 ,-8.95556 
461 ,88.7135 ,1.63092 ,-0.92983 ,-9.12345 
462 ,88.9055 ,1.63296 ,-0.93667 ,-9.19061 
463 ,89.0813 ,1.63468 ,-0.92298 ,-9.05630 
