Data stamp = , 29-04-2022 03:28:10 901

Calibration Values: 
Slope = , 26.54 , g/V 
Offset Voltage at no contact = , -0.501760 , V 

No , Time , Stage Position ,   Mass , Force 
   ,  (s) ,      (mm)      ,   (g)  , (mN)  

1 ,0.0000 ,0.74936 ,5.28483 ,51.85474 
2 ,0.2675 ,0.74953 ,5.28141 ,51.82116 
3 ,0.6361 ,0.75077 ,5.29167 ,51.92190 
4 ,0.8439 ,0.75262 ,5.27798 ,51.78758 
5 ,1.0362 ,0.75440 ,5.30878 ,52.08979 
6 ,1.2284 ,0.75640 ,5.28825 ,51.88832 
7 ,1.4364 ,0.75835 ,5.30878 ,52.08979 
8 ,1.6284 ,0.76039 ,5.28141 ,51.82116 
9 ,1.8524 ,0.76256 ,5.26430 ,51.65327 
10 ,2.0769 ,0.76475 ,5.25061 ,51.51896 
11 ,2.2847 ,0.76695 ,5.22323 ,51.25033 
12 ,2.4769 ,0.76888 ,5.23007 ,51.31749 
13 ,2.6691 ,0.77083 ,5.20954 ,51.11602 
14 ,2.8611 ,0.77271 ,5.16848 ,50.71308 
15 ,3.0691 ,0.77476 ,5.15479 ,50.57876 
16 ,3.2613 ,0.77667 ,5.13768 ,50.41087 
17 ,3.4534 ,0.77863 ,5.13768 ,50.41087 
18 ,3.6615 ,0.78073 ,5.10688 ,50.10867 
19 ,3.8694 ,0.78277 ,5.09661 ,50.00793 
20 ,4.0771 ,0.78486 ,5.07608 ,49.80646 
21 ,4.2696 ,0.78683 ,5.05554 ,49.60499 
22 ,4.4778 ,0.78881 ,5.03159 ,49.36995 
23 ,4.6697 ,0.79081 ,4.99737 ,49.03416 
24 ,4.8618 ,0.79266 ,4.98710 ,48.93343 
25 ,5.0537 ,0.79462 ,4.99052 ,48.96701 
26 ,5.2620 ,0.79671 ,4.95288 ,48.59764 
27 ,5.4538 ,0.79859 ,4.93919 ,48.46333 
28 ,5.6622 ,0.80072 ,4.90839 ,48.16113 
29 ,5.8542 ,0.80265 ,4.89812 ,48.06039 
30 ,6.0622 ,0.80470 ,4.85364 ,47.62387 
31 ,6.2540 ,0.80661 ,4.86732 ,47.75819 
32 ,6.4465 ,0.80861 ,4.81599 ,47.25451 
33 ,6.6543 ,0.81062 ,4.81941 ,47.28809 
34 ,6.8466 ,0.81256 ,4.79546 ,47.05304 
35 ,7.0386 ,0.81454 ,4.76466 ,46.75084 
36 ,7.2467 ,0.81652 ,4.74070 ,46.51579 
37 ,7.4391 ,0.81849 ,4.73044 ,46.41506 
38 ,7.6471 ,0.82052 ,4.70648 ,46.18001 
39 ,7.8390 ,0.82248 ,4.68595 ,45.97854 
40 ,8.0472 ,0.82444 ,4.69279 ,46.04569 
41 ,8.2393 ,0.82649 ,4.65515 ,45.67633 
42 ,8.4470 ,0.82849 ,4.64488 ,45.57560 
43 ,8.6554 ,0.83056 ,4.61066 ,45.23981 
44 ,8.8636 ,0.83273 ,4.59355 ,45.07192 
45 ,9.0876 ,0.83484 ,4.58328 ,44.97119 
46 ,9.2796 ,0.83690 ,4.55249 ,44.66898 
47 ,9.4717 ,0.83890 ,4.54222 ,44.56825 
48 ,9.6635 ,0.84066 ,4.50800 ,44.23247 
49 ,9.8559 ,0.84264 ,4.51484 ,44.29962 
50 ,10.0640 ,0.84471 ,4.47720 ,43.93026 
51 ,10.2560 ,0.84668 ,4.47378 ,43.89668 
52 ,10.4482 ,0.84856 ,4.46009 ,43.76237 
53 ,10.6398 ,0.85057 ,4.43613 ,43.52732 
54 ,10.8324 ,0.85238 ,4.43271 ,43.49374 
55 ,11.0241 ,0.85432 ,4.38822 ,43.05723 
56 ,11.2324 ,0.85636 ,4.39507 ,43.12438 
57 ,11.4240 ,0.85830 ,4.35400 ,42.72144 
58 ,11.6483 ,0.86050 ,4.34031 ,42.58713 
59 ,11.8407 ,0.86249 ,4.30609 ,42.25135 
60 ,12.0327 ,0.86440 ,4.30267 ,42.21777 
61 ,12.2246 ,0.86633 ,4.26845 ,41.88198 
62 ,12.4169 ,0.86831 ,4.27187 ,41.91556 
63 ,12.6090 ,0.87018 ,4.24791 ,41.68051 
64 ,12.8166 ,0.87220 ,4.23080 ,41.51262 
65 ,13.0251 ,0.87427 ,4.21711 ,41.37831 
66 ,13.2334 ,0.87640 ,4.19316 ,41.14326 
67 ,13.4254 ,0.87832 ,4.17262 ,40.94179 
68 ,13.6174 ,0.88026 ,4.14867 ,40.70674 
69 ,13.8090 ,0.88219 ,4.15209 ,40.74032 
70 ,13.9852 ,0.88402 ,4.09734 ,40.20307 
71 ,14.1617 ,0.88574 ,4.09734 ,40.20307 
72 ,14.3693 ,0.88778 ,4.10076 ,40.23665 
73 ,14.5618 ,0.88963 ,4.05285 ,39.76655 
74 ,14.7854 ,0.89181 ,4.06312 ,39.86729 
75 ,14.9777 ,0.89379 ,4.03916 ,39.63224 
76 ,15.1859 ,0.89592 ,4.02889 ,39.53150 
77 ,15.3940 ,0.89799 ,4.00494 ,39.29646 
78 ,15.5862 ,0.89990 ,3.97414 ,38.99425 
79 ,15.7941 ,0.90198 ,3.96045 ,38.85994 
80 ,15.9863 ,0.90387 ,3.94334 ,38.69205 
81 ,16.1781 ,0.90587 ,3.91596 ,38.42342 
82 ,16.3702 ,0.90769 ,3.91596 ,38.42342 
83 ,16.5626 ,0.90969 ,3.86805 ,37.95332 
84 ,16.7702 ,0.91174 ,3.88516 ,38.12122 
85 ,16.9628 ,0.91367 ,3.83725 ,37.65112 
86 ,17.1543 ,0.91562 ,3.81672 ,37.44965 
87 ,17.3624 ,0.91763 ,3.80987 ,37.38249 
88 ,17.5709 ,0.91964 ,3.79961 ,37.28176 
89 ,17.7949 ,0.92206 ,3.78250 ,37.11387 
90 ,17.9872 ,0.92393 ,3.74485 ,36.74450 
91 ,18.1791 ,0.92582 ,3.72432 ,36.54303 
92 ,18.3711 ,0.92782 ,3.72090 ,36.50946 
93 ,18.5634 ,0.92966 ,3.69010 ,36.20725 
94 ,18.7553 ,0.93160 ,3.67299 ,36.03936 
95 ,18.9476 ,0.93355 ,3.68325 ,36.14010 
96 ,19.1557 ,0.93552 ,3.63534 ,35.67000 
97 ,19.3634 ,0.93773 ,3.64219 ,35.73716 
98 ,19.5559 ,0.93966 ,3.61139 ,35.43495 
99 ,19.7798 ,0.94174 ,3.60112 ,35.33422 
100 ,19.9720 ,0.94378 ,3.58401 ,35.16632 
101 ,20.1798 ,0.94582 ,3.54295 ,34.76338 
102 ,20.3562 ,0.94767 ,3.53268 ,34.66265 
103 ,20.5800 ,0.94974 ,3.52241 ,34.56192 
104 ,20.7884 ,0.95192 ,3.50530 ,34.39402 
105 ,20.9804 ,0.95387 ,3.47450 ,34.09182 
106 ,21.1885 ,0.95594 ,3.48477 ,34.19255 
107 ,21.3642 ,0.95775 ,3.43686 ,33.72246 
108 ,21.5722 ,0.95973 ,3.44370 ,33.78961 
109 ,21.7645 ,0.96167 ,3.41290 ,33.48741 
110 ,21.9724 ,0.96378 ,3.38895 ,33.25236 
111 ,22.1644 ,0.96567 ,3.37184 ,33.08447 
112 ,22.3570 ,0.96761 ,3.35815 ,32.95016 
113 ,22.5650 ,0.96968 ,3.34446 ,32.81584 
114 ,22.7410 ,0.97153 ,3.31708 ,32.54722 
115 ,22.9335 ,0.97334 ,3.32393 ,32.61437 
116 ,23.1412 ,0.97541 ,3.27944 ,32.17786 
117 ,23.3334 ,0.97732 ,3.27259 ,32.11070 
118 ,23.5251 ,0.97930 ,3.24864 ,31.87565 
119 ,23.7172 ,0.98115 ,3.23495 ,31.74134 
120 ,23.9096 ,0.98312 ,3.22468 ,31.64060 
121 ,24.1176 ,0.98522 ,3.18362 ,31.23766 
122 ,24.3097 ,0.98712 ,3.18704 ,31.27124 
123 ,24.5018 ,0.98904 ,3.15966 ,31.00262 
124 ,24.7100 ,0.99112 ,3.14597 ,30.86830 
125 ,24.9180 ,0.99316 ,3.13571 ,30.76757 
126 ,25.1100 ,0.99507 ,3.12544 ,30.66683 
127 ,25.3021 ,0.99703 ,3.08095 ,30.23031 
128 ,25.4942 ,0.99892 ,3.09122 ,30.33105 
129 ,25.7024 ,1.00099 ,3.05700 ,29.99527 
130 ,25.8940 ,1.00293 ,3.03647 ,29.79380 
131 ,26.0865 ,1.00487 ,3.04331 ,29.86095 
132 ,26.2946 ,1.00691 ,3.01251 ,29.55875 
133 ,26.4865 ,1.00891 ,2.98513 ,29.29012 
134 ,26.6787 ,1.01074 ,2.97144 ,29.15581 
135 ,26.8870 ,1.01290 ,2.95091 ,28.95434 
136 ,27.0789 ,1.01481 ,2.92353 ,28.68571 
137 ,27.2711 ,1.01666 ,2.90985 ,28.55140 
138 ,27.4790 ,1.01869 ,2.89958 ,28.45066 
139 ,27.6874 ,1.02084 ,2.87562 ,28.21562 
140 ,27.8789 ,1.02281 ,2.84825 ,27.94699 
141 ,28.0550 ,1.02459 ,2.83456 ,27.81268 
142 ,28.2472 ,1.02650 ,2.83798 ,27.84625 
143 ,28.4556 ,1.02852 ,2.80718 ,27.54405 
144 ,28.6475 ,1.03046 ,2.81060 ,27.57763 
145 ,28.8397 ,1.03242 ,2.76954 ,27.17469 
146 ,29.0478 ,1.03437 ,2.76954 ,27.17469 
147 ,29.2398 ,1.03653 ,2.73531 ,26.83891 
148 ,29.4318 ,1.03830 ,2.74558 ,26.93964 
149 ,29.6399 ,1.04045 ,2.69425 ,26.43597 
150 ,29.8641 ,1.04256 ,2.71478 ,26.63744 
151 ,30.0563 ,1.04453 ,2.68740 ,26.36881 
152 ,30.2639 ,1.04670 ,2.66345 ,26.13376 
153 ,30.4563 ,1.04862 ,2.63607 ,25.86514 
154 ,30.6642 ,1.05062 ,2.61212 ,25.63009 
155 ,30.8562 ,1.05256 ,2.60185 ,25.52935 
156 ,31.0487 ,1.05443 ,2.58816 ,25.39504 
157 ,31.2567 ,1.05652 ,2.57447 ,25.26073 
158 ,31.4486 ,1.05846 ,2.55736 ,25.09283 
159 ,31.6409 ,1.06043 ,2.54025 ,24.92494 
160 ,31.8490 ,1.06234 ,2.53341 ,24.85779 
161 ,32.0408 ,1.06441 ,2.50261 ,24.55558 
162 ,32.2491 ,1.06651 ,2.49234 ,24.45485 
163 ,32.4408 ,1.06839 ,2.45812 ,24.11906 
164 ,32.6492 ,1.07043 ,2.45812 ,24.11906 
165 ,32.8413 ,1.07253 ,2.43416 ,23.88402 
166 ,33.0495 ,1.07451 ,2.42390 ,23.78328 
167 ,33.2572 ,1.07658 ,2.39310 ,23.48108 
168 ,33.4496 ,1.07850 ,2.39994 ,23.54823 
169 ,33.6415 ,1.08050 ,2.35888 ,23.14529 
170 ,33.8337 ,1.08229 ,2.36230 ,23.17887 
171 ,34.0258 ,1.08423 ,2.34519 ,23.01098 
172 ,34.2340 ,1.08629 ,2.32123 ,22.77593 
173 ,34.4260 ,1.08831 ,2.29728 ,22.54088 
174 ,34.6178 ,1.09016 ,2.27332 ,22.30584 
175 ,34.8260 ,1.09216 ,2.27674 ,22.33941 
176 ,35.0341 ,1.09432 ,2.24937 ,22.07079 
177 ,35.2265 ,1.09627 ,2.23910 ,21.97005 
178 ,35.4340 ,1.09834 ,2.21515 ,21.73500 
179 ,35.6265 ,1.10022 ,2.20830 ,21.66785 
180 ,35.8185 ,1.10215 ,2.17408 ,21.33206 
181 ,36.0107 ,1.10411 ,2.16381 ,21.23133 
182 ,36.2187 ,1.10620 ,2.13301 ,20.92912 
183 ,36.4107 ,1.10811 ,2.14328 ,21.02986 
184 ,36.6029 ,1.10994 ,2.10906 ,20.69408 
185 ,36.8265 ,1.11214 ,2.11248 ,20.72766 
186 ,37.0190 ,1.11418 ,2.08852 ,20.49261 
187 ,37.2272 ,1.11630 ,2.08510 ,20.45903 
188 ,37.4354 ,1.11828 ,2.05430 ,20.15682 
189 ,37.6274 ,1.12028 ,2.05773 ,20.19040 
190 ,37.8195 ,1.12216 ,2.03035 ,19.92178 
191 ,38.0114 ,1.12408 ,2.02350 ,19.85462 
192 ,38.2034 ,1.12599 ,2.00982 ,19.72031 
193 ,38.3955 ,1.12789 ,1.98928 ,19.51884 
194 ,38.6035 ,1.12997 ,1.97902 ,19.41810 
195 ,38.7957 ,1.13189 ,1.94822 ,19.11590 
196 ,38.9874 ,1.13392 ,1.92768 ,18.91443 
197 ,39.1799 ,1.13577 ,1.91742 ,18.81369 
198 ,39.3719 ,1.13768 ,1.91057 ,18.74654 
199 ,39.5639 ,1.13958 ,1.89004 ,18.54507 
200 ,39.7562 ,1.14147 ,1.88319 ,18.47791 
201 ,39.9481 ,1.14344 ,1.87293 ,18.37717 
202 ,40.1401 ,1.14530 ,1.85240 ,18.17570 
203 ,40.3326 ,1.14730 ,1.83871 ,18.04139 
204 ,40.5402 ,1.14938 ,1.81475 ,17.80634 
205 ,40.7485 ,1.15143 ,1.81817 ,17.83992 
206 ,40.9406 ,1.15335 ,1.78737 ,17.53772 
207 ,41.1323 ,1.15529 ,1.78395 ,17.50414 
208 ,41.3247 ,1.15721 ,1.77369 ,17.40340 
209 ,41.5329 ,1.15928 ,1.75315 ,17.20193 
210 ,41.7251 ,1.16122 ,1.74631 ,17.13478 
211 ,41.9172 ,1.16314 ,1.71893 ,16.86615 
212 ,42.1252 ,1.16516 ,1.71551 ,16.83257 
213 ,42.3333 ,1.16730 ,1.68813 ,16.56395 
214 ,42.5413 ,1.16938 ,1.67786 ,16.46321 
215 ,42.7494 ,1.17142 ,1.67102 ,16.39605 
216 ,42.9414 ,1.17333 ,1.64022 ,16.09385 
217 ,43.1334 ,1.17526 ,1.63338 ,16.02669 
218 ,43.3252 ,1.17722 ,1.62311 ,15.92596 
219 ,43.5338 ,1.17918 ,1.59916 ,15.69091 
220 ,43.7419 ,1.18138 ,1.59231 ,15.62375 
221 ,43.9338 ,1.18332 ,1.57520 ,15.45586 
222 ,44.1581 ,1.18552 ,1.55467 ,15.25439 
223 ,44.3659 ,1.18765 ,1.55809 ,15.28797 
224 ,44.5582 ,1.18954 ,1.51360 ,14.85145 
225 ,44.7662 ,1.19167 ,1.54098 ,15.12008 
226 ,44.9740 ,1.19365 ,1.51018 ,14.81787 
227 ,45.1821 ,1.19574 ,1.48622 ,14.58283 
228 ,45.3745 ,1.19770 ,1.47938 ,14.51567 
229 ,45.5824 ,1.19976 ,1.45885 ,14.31420 
230 ,45.7907 ,1.20190 ,1.45200 ,14.24704 
231 ,45.9985 ,1.20387 ,1.42805 ,14.01199 
232 ,46.1909 ,1.20578 ,1.42462 ,13.97842 
233 ,46.3829 ,1.20777 ,1.39040 ,13.64263 
234 ,46.5586 ,1.20967 ,1.38356 ,13.57548 
235 ,46.7511 ,1.21146 ,1.38356 ,13.57548 
236 ,46.9591 ,1.21350 ,1.35276 ,13.27327 
237 ,47.1511 ,1.21544 ,1.35276 ,13.27327 
238 ,47.3434 ,1.21737 ,1.33223 ,13.07180 
239 ,47.5354 ,1.21932 ,1.31854 ,12.93749 
240 ,47.7275 ,1.22123 ,1.32196 ,12.97107 
241 ,47.9356 ,1.22317 ,1.29458 ,12.70244 
242 ,48.1277 ,1.22515 ,1.28432 ,12.60171 
243 ,48.3354 ,1.22725 ,1.26720 ,12.43381 
244 ,48.5118 ,1.22908 ,1.26378 ,12.40024 
245 ,48.7037 ,1.23094 ,1.23983 ,12.16519 
246 ,48.8799 ,1.23289 ,1.21587 ,11.93014 
247 ,49.0877 ,1.23480 ,1.23298 ,12.09803 
248 ,49.2797 ,1.23671 ,1.19192 ,11.69509 
249 ,49.4721 ,1.23860 ,1.19876 ,11.76225 
250 ,49.6643 ,1.24054 ,1.18165 ,11.59436 
251 ,49.8559 ,1.24251 ,1.16796 ,11.46004 
252 ,50.0485 ,1.24440 ,1.14401 ,11.22500 
253 ,50.2564 ,1.24647 ,1.11663 ,10.95637 
254 ,50.4802 ,1.24866 ,1.11321 ,10.92279 
255 ,50.6727 ,1.25060 ,1.12347 ,11.02353 
256 ,50.8648 ,1.25251 ,1.07899 ,10.58701 
257 ,51.0568 ,1.25453 ,1.07899 ,10.58701 
258 ,51.2648 ,1.25653 ,1.05845 ,10.38554 
259 ,51.4571 ,1.25851 ,1.06187 ,10.41912 
260 ,51.6647 ,1.26055 ,1.02423 ,10.04976 
261 ,51.8570 ,1.26246 ,1.03450 ,10.15049 
262 ,52.0650 ,1.26455 ,1.00370 ,9.84829 
263 ,52.2573 ,1.26643 ,0.98659 ,9.68039 
264 ,52.4494 ,1.26841 ,1.00370 ,9.84829 
265 ,52.6416 ,1.27038 ,0.96948 ,9.51250 
266 ,52.8339 ,1.27224 ,0.96605 ,9.47892 
267 ,53.0252 ,1.27418 ,0.95579 ,9.37819 
268 ,53.2176 ,1.27609 ,0.93868 ,9.21030 
269 ,53.4258 ,1.27813 ,0.92499 ,9.07598 
270 ,53.6339 ,1.28024 ,0.92499 ,9.07598 
271 ,53.8417 ,1.28231 ,0.90103 ,8.84094 
272 ,54.0501 ,1.28438 ,0.89419 ,8.77378 
273 ,54.2419 ,1.28631 ,0.86681 ,8.50515 
274 ,54.4502 ,1.28842 ,0.88050 ,8.63947 
275 ,54.6423 ,1.29026 ,0.83601 ,8.20295 
276 ,54.8344 ,1.29223 ,0.84628 ,8.30368 
277 ,55.0103 ,1.29412 ,0.82575 ,8.10221 
278 ,55.2025 ,1.29590 ,0.80863 ,7.93432 
279 ,55.3947 ,1.29792 ,0.78810 ,7.73285 
280 ,55.6026 ,1.29989 ,0.79152 ,7.76643 
281 ,55.7946 ,1.30180 ,0.78810 ,7.73285 
282 ,55.9707 ,1.30371 ,0.76072 ,7.46423 
283 ,56.1630 ,1.30547 ,0.74361 ,7.29633 
284 ,56.3706 ,1.30759 ,0.75730 ,7.43065 
285 ,56.5630 ,1.30956 ,0.72308 ,7.09486 
286 ,56.7553 ,1.31148 ,0.70255 ,6.89340 
287 ,56.9629 ,1.31349 ,0.68544 ,6.72550 
288 ,57.1554 ,1.31542 ,0.70939 ,6.96055 
289 ,57.3474 ,1.31740 ,0.68886 ,6.75908 
290 ,57.5395 ,1.31926 ,0.65806 ,6.45688 
291 ,57.7477 ,1.32138 ,0.65464 ,6.42330 
292 ,57.9396 ,1.32329 ,0.63410 ,6.22183 
293 ,58.1476 ,1.32525 ,0.64095 ,6.28899 
294 ,58.3397 ,1.32729 ,0.62042 ,6.08752 
295 ,58.5316 ,1.32920 ,0.61357 ,6.02036 
296 ,58.7236 ,1.33113 ,0.58619 ,5.75173 
297 ,58.9160 ,1.33302 ,0.58962 ,5.78531 
298 ,59.1082 ,1.33502 ,0.58277 ,5.71815 
299 ,59.3002 ,1.33690 ,0.55197 ,5.41595 
300 ,59.4919 ,1.33875 ,0.55882 ,5.48311 
301 ,59.7005 ,1.34088 ,0.53144 ,5.21448 
302 ,59.9082 ,1.34295 ,0.52802 ,5.18090 
303 ,60.1007 ,1.34489 ,0.50748 ,4.97943 
304 ,60.2924 ,1.34684 ,0.50406 ,4.94585 
305 ,60.4846 ,1.34869 ,0.48695 ,4.77796 
306 ,60.6604 ,1.35059 ,0.47326 ,4.64365 
307 ,60.8530 ,1.35239 ,0.48353 ,4.74438 
308 ,61.0768 ,1.35454 ,0.44931 ,4.40860 
309 ,61.2848 ,1.35669 ,0.43562 ,4.27429 
310 ,61.4773 ,1.35859 ,0.44588 ,4.37502 
311 ,61.6852 ,1.36072 ,0.42535 ,4.17355 
312 ,61.9095 ,1.36287 ,0.42535 ,4.17355 
313 ,62.1173 ,1.36506 ,0.39455 ,3.87135 
314 ,62.3251 ,1.36711 ,0.37744 ,3.70346 
315 ,62.5175 ,1.36902 ,0.37744 ,3.70346 
316 ,62.7098 ,1.37092 ,0.36375 ,3.56914 
317 ,62.9018 ,1.37287 ,0.33980 ,3.33410 
318 ,63.0937 ,1.37480 ,0.36033 ,3.53557 
319 ,63.2860 ,1.37673 ,0.32611 ,3.19978 
320 ,63.4939 ,1.37875 ,0.33295 ,3.26694 
321 ,63.6861 ,1.38068 ,0.30900 ,3.03189 
322 ,63.8938 ,1.38278 ,0.30900 ,3.03189 
323 ,64.0863 ,1.38477 ,0.29531 ,2.89758 
324 ,64.2944 ,1.38678 ,0.27820 ,2.72969 
325 ,64.4863 ,1.38866 ,0.25424 ,2.49464 
326 ,64.6786 ,1.39063 ,0.25082 ,2.46106 
327 ,64.8866 ,1.39264 ,0.25424 ,2.49464 
328 ,65.0787 ,1.39463 ,0.22344 ,2.19243 
329 ,65.2868 ,1.39660 ,0.23371 ,2.29317 
330 ,65.4788 ,1.39873 ,0.22344 ,2.19243 
331 ,65.6869 ,1.40077 ,0.19949 ,1.95738 
332 ,65.8631 ,1.40252 ,0.18580 ,1.82307 
333 ,66.0709 ,1.40446 ,0.18238 ,1.78949 
334 ,66.2791 ,1.40664 ,0.17211 ,1.68876 
335 ,66.4872 ,1.40876 ,0.14473 ,1.42013 
336 ,66.6635 ,1.41054 ,0.13447 ,1.31940 
337 ,66.8713 ,1.41256 ,0.13105 ,1.28582 
338 ,67.0637 ,1.41444 ,0.11393 ,1.11793 
339 ,67.2394 ,1.41634 ,0.12762 ,1.25224 
340 ,67.4319 ,1.41813 ,0.11051 ,1.08435 
341 ,67.6237 ,1.42011 ,0.08656 ,0.84930 
342 ,67.8160 ,1.42196 ,0.10025 ,0.98361 
343 ,68.0076 ,1.42396 ,0.06602 ,0.64783 
344 ,68.2001 ,1.42584 ,0.05918 ,0.58067 
345 ,68.3759 ,1.42775 ,0.05918 ,0.58067 
346 ,68.5521 ,1.42950 ,0.05234 ,0.51352 
347 ,68.7439 ,1.43125 ,0.02154 ,0.21131 
348 ,68.9365 ,1.43316 ,0.03522 ,0.34563 
349 ,69.1285 ,1.43515 ,0.02154 ,0.21131 
350 ,69.3201 ,1.43706 ,0.00443 ,0.04342 
351 ,69.5124 ,1.43902 ,-0.00242 ,-0.02373 
352 ,69.7207 ,1.44101 ,-0.01269 ,-0.12447 
353 ,69.9124 ,1.44307 ,-0.01953 ,-0.19163 
354 ,70.1046 ,1.44492 ,-0.04348 ,-0.42667 
355 ,70.2969 ,1.44680 ,-0.04348 ,-0.42667 
356 ,70.4889 ,1.44874 ,-0.05717 ,-0.56099 
357 ,70.6811 ,1.45063 ,-0.07428 ,-0.72888 
358 ,70.8892 ,1.45263 ,-0.06744 ,-0.66172 
359 ,71.0970 ,1.45483 ,-0.09824 ,-0.96393 
360 ,71.2893 ,1.45671 ,-0.08455 ,-0.82961 
361 ,71.4812 ,1.45865 ,-0.11877 ,-1.16540 
362 ,71.6893 ,1.46072 ,-0.11535 ,-1.13182 
363 ,71.8976 ,1.46282 ,-0.12904 ,-1.26613 
364 ,72.1059 ,1.46481 ,-0.13246 ,-1.29971 
365 ,72.3137 ,1.46697 ,-0.13588 ,-1.33329 
366 ,72.5058 ,1.46888 ,-0.17011 ,-1.66907 
367 ,72.6818 ,1.47075 ,-0.17011 ,-1.66907 
368 ,72.8740 ,1.47253 ,-0.16326 ,-1.60191 
369 ,73.0661 ,1.47448 ,-0.19748 ,-1.93770 
370 ,73.2740 ,1.47658 ,-0.19748 ,-1.93770 
371 ,73.4661 ,1.47846 ,-0.22144 ,-2.17275 
372 ,73.6581 ,1.48045 ,-0.21117 ,-2.07201 
373 ,73.8663 ,1.48257 ,-0.23513 ,-2.30706 
374 ,74.0904 ,1.48459 ,-0.22486 ,-2.20632 
375 ,74.2985 ,1.48677 ,-0.25224 ,-2.47495 
376 ,74.4906 ,1.48875 ,-0.24197 ,-2.37422 
377 ,74.6828 ,1.49067 ,-0.27277 ,-2.67642 
378 ,74.8908 ,1.49273 ,-0.27619 ,-2.71000 
379 ,75.0827 ,1.49474 ,-0.27961 ,-2.74358 
380 ,75.2747 ,1.49653 ,-0.28646 ,-2.81073 
381 ,75.4669 ,1.49853 ,-0.31726 ,-3.11294 
382 ,75.6590 ,1.50039 ,-0.31041 ,-3.04578 
383 ,75.8509 ,1.50236 ,-0.31726 ,-3.11294 
384 ,76.0911 ,1.50468 ,-0.33095 ,-3.24725 
385 ,76.2993 ,1.50678 ,-0.34464 ,-3.38156 
386 ,76.4913 ,1.50870 ,-0.35490 ,-3.48230 
387 ,76.6675 ,1.51057 ,-0.37544 ,-3.68377 
388 ,76.8754 ,1.51243 ,-0.36517 ,-3.58303 
389 ,77.0676 ,1.51449 ,-0.39597 ,-3.88524 
390 ,77.2754 ,1.51647 ,-0.38570 ,-3.78450 
391 ,77.4678 ,1.51853 ,-0.40623 ,-3.98597 
392 ,77.6593 ,1.52041 ,-0.40623 ,-3.98597 
393 ,77.8514 ,1.52230 ,-0.41308 ,-4.05313 
394 ,78.0436 ,1.52427 ,-0.44388 ,-4.35534 
395 ,78.2681 ,1.52648 ,-0.46099 ,-4.52323 
396 ,78.4762 ,1.52861 ,-0.44046 ,-4.32176 
397 ,78.6683 ,1.53055 ,-0.46441 ,-4.55681 
398 ,78.8604 ,1.53240 ,-0.47468 ,-4.65754 
399 ,79.0843 ,1.53460 ,-0.48152 ,-4.72470 
400 ,79.2604 ,1.53650 ,-0.47468 ,-4.65754 
401 ,79.4526 ,1.53829 ,-0.49863 ,-4.89259 
402 ,79.6443 ,1.54024 ,-0.51917 ,-5.09406 
403 ,79.8528 ,1.54228 ,-0.50206 ,-4.92617 
404 ,80.0767 ,1.54447 ,-0.52259 ,-5.12764 
405 ,80.2844 ,1.54658 ,-0.54654 ,-5.36268 
406 ,80.4770 ,1.54854 ,-0.53628 ,-5.26195 
407 ,80.6690 ,1.55061 ,-0.55681 ,-5.46342 
408 ,80.8610 ,1.55237 ,-0.56365 ,-5.53058 
409 ,81.0531 ,1.55443 ,-0.56708 ,-5.56415 
410 ,81.2453 ,1.55622 ,-0.59445 ,-5.83278 
411 ,81.4532 ,1.55833 ,-0.58761 ,-5.76562 
412 ,81.6616 ,1.56039 ,-0.60130 ,-5.89994 
413 ,81.8533 ,1.56237 ,-0.60472 ,-5.93352 
414 ,82.0296 ,1.56423 ,-0.63552 ,-6.23572 
415 ,82.2216 ,1.56600 ,-0.64236 ,-6.30288 
416 ,82.4133 ,1.56797 ,-0.61841 ,-6.06783 
417 ,82.6059 ,1.56988 ,-0.66290 ,-6.50435 
418 ,82.8138 ,1.57190 ,-0.64921 ,-6.37003 
419 ,83.0060 ,1.57390 ,-0.68343 ,-6.70582 
420 ,83.2139 ,1.57591 ,-0.65605 ,-6.43719 
421 ,83.4061 ,1.57785 ,-0.70396 ,-6.90729 
422 ,83.6142 ,1.57992 ,-0.67659 ,-6.63866 
423 ,83.8063 ,1.58181 ,-0.71081 ,-6.97444 
424 ,83.9984 ,1.58374 ,-0.70054 ,-6.87371 
425 ,84.2065 ,1.58576 ,-0.73134 ,-7.17591 
426 ,84.3987 ,1.58777 ,-0.72792 ,-7.14233 
427 ,84.5903 ,1.58970 ,-0.74503 ,-7.31023 
428 ,84.7826 ,1.59161 ,-0.75530 ,-7.41096 
429 ,84.9906 ,1.59369 ,-0.76214 ,-7.47812 
430 ,85.1829 ,1.59560 ,-0.76556 ,-7.51170 
431 ,85.3748 ,1.59754 ,-0.76898 ,-7.54527 
432 ,85.5670 ,1.59949 ,-0.80321 ,-7.88106 
433 ,85.7748 ,1.60150 ,-0.78267 ,-7.67959 
434 ,85.9830 ,1.60363 ,-0.80321 ,-7.88106 
435 ,86.1913 ,1.60566 ,-0.81689 ,-8.01537 
436 ,86.3833 ,1.60764 ,-0.81689 ,-8.01537 
437 ,86.5753 ,1.60961 ,-0.84085 ,-8.25042 
438 ,86.7672 ,1.61144 ,-0.85796 ,-8.41831 
439 ,86.9755 ,1.61343 ,-0.84769 ,-8.31758 
440 ,87.1836 ,1.61558 ,-0.85796 ,-8.41831 
441 ,87.3755 ,1.61755 ,-0.86481 ,-8.48547 
442 ,87.5678 ,1.61942 ,-0.88876 ,-8.72051 
443 ,87.7436 ,1.62131 ,-0.87507 ,-8.58620 
444 ,87.9199 ,1.62309 ,-0.88192 ,-8.65336 
445 ,88.1120 ,1.62487 ,-0.89903 ,-8.82125 
446 ,88.3041 ,1.62682 ,-0.91614 ,-8.98914 
447 ,88.5121 ,1.62894 ,-0.91956 ,-9.02272 
448 ,88.7041 ,1.63073 ,-0.91614 ,-8.98914 
449 ,88.8803 ,1.63270 ,-0.92640 ,-9.08988 
450 ,89.0724 ,1.63447 ,-0.93325 ,-9.15703 
451 ,89.2804 ,1.63654 ,-0.95378 ,-9.35850 
452 ,89.4726 ,1.63848 ,-0.95720 ,-9.39208 
453 ,89.6808 ,1.64049 ,-0.97774 ,-9.59355 
454 ,89.8885 ,1.64268 ,-0.98116 ,-9.62713 
455 ,90.0807 ,1.64453 ,-0.97431 ,-9.55997 
456 ,90.2730 ,1.64651 ,-0.98458 ,-9.66071 
457 ,90.4648 ,1.64839 ,-1.01196 ,-9.92933 
458 ,90.6571 ,1.65027 ,-0.99827 ,-9.79502 
459 ,90.8651 ,1.65233 ,-1.01880 ,-9.99649 
460 ,91.0728 ,1.65449 ,-1.01538 ,-9.96291 
461 ,91.2654 ,1.65645 ,-1.04276 ,-10.23154 
462 ,91.4731 ,1.65847 ,-1.04618 ,-10.26512 
