Data stamp = , 27-04-2022 09:39:46 745

Calibration Values: 
Slope = , 26.54 , g/V 
Offset Voltage at no contact = , -0.501760 , V 

No , Time , Stage Position ,   Mass , Force 
   ,  (s) ,      (mm)      ,   (g)  , (mN)  

1 ,0.0000 ,0.74942 ,5.23007 ,51.31749 
2 ,0.3155 ,0.74965 ,5.24718 ,51.48538 
3 ,0.6520 ,0.75093 ,5.25403 ,51.55254 
4 ,0.8599 ,0.75280 ,5.25745 ,51.58611 
5 ,1.0683 ,0.75478 ,5.26087 ,51.61969 
6 ,1.2603 ,0.75669 ,5.24718 ,51.48538 
7 ,1.4364 ,0.75845 ,5.25061 ,51.51896 
8 ,1.6444 ,0.76052 ,5.24376 ,51.45180 
9 ,1.8206 ,0.76237 ,5.21981 ,51.21675 
10 ,2.0127 ,0.76424 ,5.19927 ,51.01528 
11 ,2.2045 ,0.76618 ,5.20612 ,51.08244 
12 ,2.3808 ,0.76797 ,5.18559 ,50.88097 
13 ,2.5889 ,0.77007 ,5.16163 ,50.64592 
14 ,2.7810 ,0.77189 ,5.12741 ,50.31014 
15 ,2.9731 ,0.77389 ,5.11372 ,50.17583 
16 ,3.1651 ,0.77576 ,5.11714 ,50.20940 
17 ,3.3571 ,0.77766 ,5.07950 ,49.84004 
18 ,3.5493 ,0.77969 ,5.06923 ,49.73931 
19 ,3.7415 ,0.78153 ,5.05212 ,49.57142 
20 ,3.9495 ,0.78363 ,5.04185 ,49.47068 
21 ,4.1254 ,0.78542 ,5.02132 ,49.26921 
22 ,4.3175 ,0.78726 ,4.99737 ,49.03416 
23 ,4.5093 ,0.78919 ,5.00079 ,49.06774 
24 ,4.7016 ,0.79112 ,4.96657 ,48.73196 
25 ,4.8938 ,0.79306 ,4.94946 ,48.56407 
26 ,5.0700 ,0.79489 ,4.92892 ,48.36260 
27 ,5.2780 ,0.79677 ,4.91866 ,48.26186 
28 ,5.4698 ,0.79876 ,4.89470 ,48.02681 
29 ,5.6462 ,0.80062 ,4.87417 ,47.82534 
30 ,5.8541 ,0.80260 ,4.84679 ,47.55672 
31 ,6.0301 ,0.80448 ,4.82284 ,47.32167 
32 ,6.2385 ,0.80660 ,4.82968 ,47.38883 
33 ,6.4306 ,0.80843 ,4.79204 ,47.01946 
34 ,6.6221 ,0.81027 ,4.78861 ,46.98589 
35 ,6.7981 ,0.81219 ,4.75782 ,46.68368 
36 ,6.9903 ,0.81406 ,4.73044 ,46.41506 
37 ,7.1988 ,0.81603 ,4.73044 ,46.41506 
38 ,7.4229 ,0.81840 ,4.71333 ,46.24716 
39 ,7.5990 ,0.82017 ,4.70648 ,46.18001 
40 ,7.7750 ,0.82197 ,4.66199 ,45.74349 
41 ,7.9510 ,0.82366 ,4.64831 ,45.60918 
42 ,8.1271 ,0.82546 ,4.62435 ,45.37413 
43 ,8.3029 ,0.82725 ,4.62777 ,45.40771 
44 ,8.4793 ,0.82894 ,4.61066 ,45.23981 
45 ,8.6713 ,0.83085 ,4.59013 ,45.03835 
46 ,8.8475 ,0.83264 ,4.57302 ,44.87045 
47 ,9.0235 ,0.83438 ,4.55249 ,44.66898 
48 ,9.1997 ,0.83614 ,4.55591 ,44.70256 
49 ,9.3915 ,0.83804 ,4.53195 ,44.46751 
50 ,9.5674 ,0.83987 ,4.51142 ,44.26604 
51 ,9.7597 ,0.84169 ,4.50115 ,44.16531 
52 ,9.9199 ,0.84347 ,4.47720 ,43.93026 
53 ,10.0959 ,0.84513 ,4.48746 ,44.03100 
54 ,10.2881 ,0.84696 ,4.43271 ,43.49374 
55 ,10.4644 ,0.84881 ,4.43271 ,43.49374 
56 ,10.6564 ,0.85064 ,4.42929 ,43.46016 
57 ,10.8483 ,0.85258 ,4.39164 ,43.09080 
58 ,11.0241 ,0.85435 ,4.37795 ,42.95649 
59 ,11.2166 ,0.85620 ,4.36427 ,42.82218 
60 ,11.4093 ,0.85818 ,4.35400 ,42.72144 
61 ,11.6007 ,0.86010 ,4.33004 ,42.48639 
62 ,11.7928 ,0.86197 ,4.30951 ,42.28492 
63 ,12.0007 ,0.86411 ,4.29924 ,42.18419 
64 ,12.1930 ,0.86604 ,4.27871 ,41.98272 
65 ,12.4017 ,0.86811 ,4.25133 ,41.71409 
66 ,12.5931 ,0.87000 ,4.24449 ,41.64694 
67 ,12.7690 ,0.87184 ,4.22396 ,41.44547 
68 ,12.9613 ,0.87370 ,4.19316 ,41.14326 
69 ,13.1371 ,0.87548 ,4.18974 ,41.10968 
70 ,13.3292 ,0.87739 ,4.17262 ,40.94179 
71 ,13.5052 ,0.87921 ,4.14525 ,40.67317 
72 ,13.6815 ,0.88101 ,4.13840 ,40.60601 
73 ,13.8572 ,0.88268 ,4.11103 ,40.33738 
74 ,14.0497 ,0.88458 ,4.11445 ,40.37096 
75 ,14.2414 ,0.88650 ,4.08365 ,40.06876 
76 ,14.4338 ,0.88844 ,4.07680 ,40.00160 
77 ,14.6419 ,0.89048 ,4.05285 ,39.76655 
78 ,14.8181 ,0.89232 ,4.03232 ,39.56508 
79 ,15.0100 ,0.89423 ,4.01520 ,39.39719 
80 ,15.2024 ,0.89612 ,3.98783 ,39.12856 
81 ,15.3942 ,0.89803 ,3.99467 ,39.19572 
82 ,15.6024 ,0.89998 ,3.97756 ,39.02783 
83 ,15.7943 ,0.90202 ,3.95361 ,38.79278 
84 ,15.9866 ,0.90390 ,3.92281 ,38.49058 
85 ,16.1947 ,0.90603 ,3.92623 ,38.52415 
86 ,16.3863 ,0.90791 ,3.89543 ,38.22195 
87 ,16.5947 ,0.90997 ,3.86463 ,37.91975 
88 ,16.8027 ,0.91207 ,3.84752 ,37.75185 
89 ,16.9789 ,0.91389 ,3.84067 ,37.68470 
90 ,17.1707 ,0.91574 ,3.83383 ,37.61754 
91 ,17.3791 ,0.91776 ,3.80987 ,37.38249 
92 ,17.5709 ,0.91986 ,3.79619 ,37.24818 
93 ,17.7472 ,0.92164 ,3.78250 ,37.11387 
94 ,17.9391 ,0.92351 ,3.73801 ,36.67735 
95 ,18.1315 ,0.92539 ,3.74143 ,36.71093 
96 ,18.3390 ,0.92746 ,3.70721 ,36.37514 
97 ,18.5154 ,0.92929 ,3.69694 ,36.27441 
98 ,18.6912 ,0.93107 ,3.69010 ,36.20725 
99 ,18.8835 ,0.93288 ,3.66957 ,36.00578 
100 ,19.0756 ,0.93480 ,3.64903 ,35.80431 
101 ,19.2519 ,0.93661 ,3.63192 ,35.63642 
102 ,19.4437 ,0.93848 ,3.61481 ,35.46853 
103 ,19.6357 ,0.94039 ,3.58743 ,35.19990 
104 ,19.8440 ,0.94254 ,3.59086 ,35.23348 
105 ,20.0522 ,0.94464 ,3.56348 ,34.96485 
106 ,20.2441 ,0.94646 ,3.55663 ,34.89770 
107 ,20.4203 ,0.94832 ,3.53268 ,34.66265 
108 ,20.6124 ,0.95020 ,3.51215 ,34.46118 
109 ,20.8041 ,0.95222 ,3.48135 ,34.15898 
110 ,20.9805 ,0.95391 ,3.48819 ,34.22613 
111 ,21.1887 ,0.95588 ,3.45397 ,33.89035 
112 ,21.3807 ,0.95789 ,3.45397 ,33.89035 
113 ,21.5724 ,0.95977 ,3.42317 ,33.58814 
114 ,21.7808 ,0.96191 ,3.41290 ,33.48741 
115 ,21.9890 ,0.96394 ,3.38895 ,33.25236 
116 ,22.1969 ,0.96598 ,3.35130 ,32.88300 
117 ,22.3892 ,0.96795 ,3.36157 ,32.98374 
118 ,22.5808 ,0.96984 ,3.32735 ,32.64795 
119 ,22.7732 ,0.97177 ,3.31024 ,32.48006 
120 ,22.9488 ,0.97368 ,3.29997 ,32.37933 
121 ,23.1251 ,0.97535 ,3.29313 ,32.31217 
122 ,23.3016 ,0.97712 ,3.28628 ,32.24501 
123 ,23.4935 ,0.97894 ,3.24864 ,31.87565 
124 ,23.6854 ,0.98085 ,3.23495 ,31.74134 
125 ,23.8937 ,0.98295 ,3.21100 ,31.50629 
126 ,24.0855 ,0.98484 ,3.21100 ,31.50629 
127 ,24.2778 ,0.98679 ,3.17335 ,31.13693 
128 ,24.4538 ,0.98860 ,3.14940 ,30.90188 
129 ,24.6140 ,0.99034 ,3.14597 ,30.86830 
130 ,24.7901 ,0.99200 ,3.12886 ,30.70041 
131 ,24.9822 ,0.99381 ,3.12544 ,30.66683 
132 ,25.1741 ,0.99580 ,3.10833 ,30.49894 
133 ,25.3662 ,0.99771 ,3.08438 ,30.26389 
134 ,25.5421 ,0.99949 ,3.08095 ,30.23031 
135 ,25.7340 ,1.00133 ,3.05700 ,29.99527 
136 ,25.9106 ,1.00319 ,3.01935 ,29.62590 
137 ,26.1021 ,1.00507 ,3.02962 ,29.72664 
138 ,26.2787 ,1.00692 ,2.99540 ,29.39086 
139 ,26.4708 ,1.00882 ,2.97829 ,29.22297 
140 ,26.6629 ,1.01068 ,2.98513 ,29.29012 
141 ,26.8549 ,1.01258 ,2.95433 ,28.98792 
142 ,27.0470 ,1.01459 ,2.93038 ,28.75287 
143 ,27.2387 ,1.01641 ,2.93038 ,28.75287 
144 ,27.4313 ,1.01832 ,2.89273 ,28.38351 
145 ,27.6232 ,1.02025 ,2.89958 ,28.45066 
146 ,27.8153 ,1.02215 ,2.87905 ,28.24919 
147 ,28.0077 ,1.02405 ,2.84482 ,27.91341 
148 ,28.1997 ,1.02610 ,2.84140 ,27.87983 
149 ,28.3916 ,1.02793 ,2.82087 ,27.67836 
150 ,28.5837 ,1.02987 ,2.80376 ,27.51047 
151 ,28.7758 ,1.03175 ,2.79349 ,27.40974 
152 ,28.9678 ,1.03365 ,2.76611 ,27.14111 
153 ,29.1435 ,1.03555 ,2.75927 ,27.07395 
154 ,29.3358 ,1.03737 ,2.74216 ,26.90606 
155 ,29.5280 ,1.03937 ,2.71820 ,26.67101 
156 ,29.7363 ,1.04138 ,2.71478 ,26.63744 
157 ,29.9283 ,1.04329 ,2.68056 ,26.30165 
158 ,30.1043 ,1.04514 ,2.66345 ,26.13376 
159 ,30.2961 ,1.04693 ,2.66003 ,26.10018 
160 ,30.4881 ,1.04887 ,2.62923 ,25.79798 
161 ,30.6803 ,1.05081 ,2.61896 ,25.69724 
162 ,30.8730 ,1.05273 ,2.60869 ,25.59651 
163 ,31.0646 ,1.05469 ,2.58474 ,25.36146 
164 ,31.2406 ,1.05649 ,2.57447 ,25.26073 
165 ,31.4327 ,1.05835 ,2.56421 ,25.15999 
166 ,31.6248 ,1.06023 ,2.53683 ,24.89136 
167 ,31.8011 ,1.06209 ,2.51972 ,24.72347 
168 ,31.9928 ,1.06393 ,2.52656 ,24.79063 
169 ,32.1693 ,1.06578 ,2.49234 ,24.45485 
170 ,32.3612 ,1.06763 ,2.48207 ,24.35411 
171 ,32.5533 ,1.06950 ,2.46154 ,24.15264 
172 ,32.7294 ,1.07133 ,2.44443 ,23.98475 
173 ,32.9216 ,1.07317 ,2.43074 ,23.85044 
174 ,33.1138 ,1.07520 ,2.43074 ,23.85044 
175 ,33.3059 ,1.07709 ,2.39994 ,23.54823 
176 ,33.4978 ,1.07904 ,2.38283 ,23.38034 
177 ,33.6895 ,1.08091 ,2.38283 ,23.38034 
178 ,33.8818 ,1.08280 ,2.34177 ,22.97740 
179 ,34.0743 ,1.08473 ,2.33834 ,22.94382 
180 ,34.2822 ,1.08683 ,2.30070 ,22.57446 
181 ,34.4744 ,1.08872 ,2.30754 ,22.64162 
182 ,34.6823 ,1.09082 ,2.27674 ,22.33941 
183 ,34.8741 ,1.09267 ,2.29385 ,22.50731 
184 ,35.0501 ,1.09457 ,2.26306 ,22.20510 
185 ,35.2266 ,1.09634 ,2.24937 ,22.07079 
186 ,35.4027 ,1.09811 ,2.23568 ,21.93647 
187 ,35.5944 ,1.09994 ,2.22199 ,21.80216 
188 ,35.7869 ,1.10182 ,2.19803 ,21.56711 
189 ,36.0109 ,1.10401 ,2.17066 ,21.29849 
190 ,36.2190 ,1.10620 ,2.15355 ,21.13059 
191 ,36.4111 ,1.10814 ,2.15355 ,21.13059 
192 ,36.6031 ,1.11012 ,2.12959 ,20.89555 
193 ,36.7792 ,1.11184 ,2.10221 ,20.62692 
194 ,36.9549 ,1.11354 ,2.10564 ,20.66050 
195 ,37.1473 ,1.11547 ,2.09537 ,20.55976 
196 ,37.3234 ,1.11726 ,2.05773 ,20.19040 
197 ,37.5154 ,1.11917 ,2.06115 ,20.22398 
198 ,37.7237 ,1.12124 ,2.04061 ,20.02251 
199 ,37.9317 ,1.12329 ,2.03035 ,19.92178 
200 ,38.1077 ,1.12517 ,1.99955 ,19.61957 
201 ,38.2998 ,1.12707 ,1.98244 ,19.45168 
202 ,38.4918 ,1.12892 ,1.98928 ,19.51884 
203 ,38.6841 ,1.13079 ,1.95506 ,19.18305 
204 ,38.8762 ,1.13274 ,1.94822 ,19.11590 
205 ,39.0838 ,1.13482 ,1.93453 ,18.98158 
206 ,39.2764 ,1.13675 ,1.91399 ,18.78011 
207 ,39.4685 ,1.13870 ,1.90715 ,18.71296 
208 ,39.6604 ,1.14064 ,1.89004 ,18.54507 
209 ,39.8523 ,1.14253 ,1.86951 ,18.34360 
210 ,40.0287 ,1.14433 ,1.86266 ,18.27644 
211 ,40.2203 ,1.14616 ,1.84213 ,18.07497 
212 ,40.4128 ,1.14807 ,1.83871 ,18.04139 
213 ,40.6367 ,1.15023 ,1.81817 ,17.83992 
214 ,40.8289 ,1.15221 ,1.81475 ,17.80634 
215 ,41.0370 ,1.15434 ,1.78395 ,17.50414 
216 ,41.2131 ,1.15618 ,1.77026 ,17.36983 
217 ,41.4212 ,1.15825 ,1.76342 ,17.30267 
218 ,41.6132 ,1.16020 ,1.74289 ,17.10120 
219 ,41.8214 ,1.16220 ,1.73262 ,17.00046 
220 ,42.0135 ,1.16414 ,1.70866 ,16.76542 
221 ,42.2215 ,1.16613 ,1.69498 ,16.63110 
222 ,42.4133 ,1.16807 ,1.68471 ,16.53037 
223 ,42.6373 ,1.17020 ,1.67786 ,16.46321 
224 ,42.8135 ,1.17217 ,1.65049 ,16.19458 
225 ,43.0216 ,1.17415 ,1.64022 ,16.09385 
226 ,43.1978 ,1.17603 ,1.62995 ,15.99311 
227 ,43.3897 ,1.17784 ,1.62995 ,15.99311 
228 ,43.5821 ,1.17980 ,1.60258 ,15.72449 
229 ,43.7901 ,1.18189 ,1.58547 ,15.55660 
230 ,43.9822 ,1.18381 ,1.59916 ,15.69091 
231 ,44.1741 ,1.18569 ,1.55467 ,15.25439 
232 ,44.3664 ,1.18759 ,1.55809 ,15.28797 
233 ,44.5739 ,1.18964 ,1.53756 ,15.08650 
234 ,44.7505 ,1.19151 ,1.51702 ,14.88503 
235 ,44.9583 ,1.19356 ,1.51018 ,14.81787 
236 ,45.1507 ,1.19546 ,1.48622 ,14.58283 
237 ,45.3585 ,1.19757 ,1.47596 ,14.48209 
238 ,45.5508 ,1.19948 ,1.44858 ,14.21346 
239 ,45.7589 ,1.20146 ,1.45885 ,14.31420 
240 ,45.9669 ,1.20362 ,1.43147 ,14.04557 
241 ,46.1432 ,1.20547 ,1.42805 ,14.01199 
242 ,46.3192 ,1.20716 ,1.41094 ,13.84410 
243 ,46.5273 ,1.20917 ,1.39040 ,13.64263 
244 ,46.7028 ,1.21110 ,1.40067 ,13.74337 
245 ,46.8951 ,1.21288 ,1.36645 ,13.40759 
246 ,47.0874 ,1.21486 ,1.35276 ,13.27327 
247 ,47.2635 ,1.21668 ,1.34249 ,13.17254 
248 ,47.4556 ,1.21846 ,1.32196 ,12.97107 
249 ,47.6476 ,1.22041 ,1.30827 ,12.83675 
250 ,47.8397 ,1.22247 ,1.30485 ,12.80318 
251 ,48.0158 ,1.22416 ,1.28089 ,12.56813 
252 ,48.2080 ,1.22604 ,1.26720 ,12.43381 
253 ,48.4005 ,1.22796 ,1.27063 ,12.46739 
254 ,48.5921 ,1.22987 ,1.24325 ,12.19877 
255 ,48.8159 ,1.23213 ,1.24325 ,12.19877 
256 ,49.0240 ,1.23423 ,1.21245 ,11.89656 
257 ,49.2325 ,1.23626 ,1.19876 ,11.76225 
258 ,49.4245 ,1.23815 ,1.19534 ,11.72867 
259 ,49.6165 ,1.24010 ,1.18850 ,11.66151 
260 ,49.8088 ,1.24201 ,1.16796 ,11.46004 
261 ,50.0006 ,1.24395 ,1.16112 ,11.39289 
262 ,50.1928 ,1.24592 ,1.15427 ,11.32573 
263 ,50.3848 ,1.24776 ,1.11663 ,10.95637 
264 ,50.5769 ,1.24971 ,1.12005 ,10.98995 
265 ,50.7690 ,1.25160 ,1.09267 ,10.72132 
266 ,50.9771 ,1.25375 ,1.10294 ,10.82206 
267 ,51.1692 ,1.25567 ,1.07899 ,10.58701 
268 ,51.3772 ,1.25770 ,1.07556 ,10.55343 
269 ,51.5693 ,1.25966 ,1.05161 ,10.31838 
270 ,51.7615 ,1.26159 ,1.03450 ,10.15049 
271 ,51.9695 ,1.26364 ,1.02423 ,10.04976 
272 ,52.1613 ,1.26567 ,1.01396 ,9.94902 
273 ,52.3377 ,1.26742 ,0.99685 ,9.78113 
274 ,52.5298 ,1.26927 ,0.99685 ,9.78113 
275 ,52.7378 ,1.27129 ,0.96605 ,9.47892 
276 ,52.9298 ,1.27328 ,0.95237 ,9.34461 
277 ,53.1218 ,1.27508 ,0.94552 ,9.27745 
278 ,53.2980 ,1.27702 ,0.93525 ,9.17672 
279 ,53.4900 ,1.27887 ,0.93525 ,9.17672 
280 ,53.6822 ,1.28073 ,0.89761 ,8.80736 
281 ,53.8902 ,1.28278 ,0.90103 ,8.84094 
282 ,54.0825 ,1.28478 ,0.87708 ,8.60589 
283 ,54.2900 ,1.28679 ,0.86681 ,8.50515 
284 ,54.4825 ,1.28874 ,0.84970 ,8.33726 
285 ,54.6745 ,1.29065 ,0.85312 ,8.37084 
286 ,54.8507 ,1.29247 ,0.84628 ,8.30368 
287 ,55.0427 ,1.29432 ,0.82917 ,8.13579 
288 ,55.2188 ,1.29618 ,0.81206 ,7.96790 
289 ,55.4112 ,1.29801 ,0.80179 ,7.86717 
290 ,55.5869 ,1.29988 ,0.80179 ,7.86717 
291 ,55.7788 ,1.30167 ,0.77099 ,7.56496 
292 ,55.9709 ,1.30364 ,0.77099 ,7.56496 
293 ,56.1628 ,1.30552 ,0.75046 ,7.36349 
294 ,56.3551 ,1.30743 ,0.74361 ,7.29633 
295 ,56.5470 ,1.30941 ,0.73677 ,7.22918 
296 ,56.7553 ,1.31145 ,0.71624 ,7.02771 
297 ,56.9312 ,1.31335 ,0.70597 ,6.92697 
298 ,57.1077 ,1.31505 ,0.69570 ,6.82624 
299 ,57.2995 ,1.31693 ,0.67859 ,6.65835 
300 ,57.4755 ,1.31868 ,0.65806 ,6.45688 
301 ,57.6675 ,1.32063 ,0.66833 ,6.55761 
302 ,57.8439 ,1.32237 ,0.65464 ,6.42330 
303 ,58.0518 ,1.32442 ,0.63410 ,6.22183 
304 ,58.2439 ,1.32635 ,0.62726 ,6.15467 
305 ,58.4358 ,1.32827 ,0.60330 ,5.91962 
306 ,58.6118 ,1.33014 ,0.59988 ,5.88605 
307 ,58.8039 ,1.33194 ,0.58962 ,5.78531 
308 ,58.9959 ,1.33391 ,0.56224 ,5.51668 
309 ,59.2040 ,1.33588 ,0.56224 ,5.51668 
310 ,59.4123 ,1.33796 ,0.55197 ,5.41595 
311 ,59.6204 ,1.34005 ,0.53144 ,5.21448 
312 ,59.8126 ,1.34204 ,0.52459 ,5.14732 
313 ,60.0044 ,1.34400 ,0.52802 ,5.18090 
314 ,60.1807 ,1.34573 ,0.51091 ,5.01301 
315 ,60.3728 ,1.34764 ,0.48011 ,4.71081 
316 ,60.5647 ,1.34952 ,0.48695 ,4.77796 
317 ,60.7567 ,1.35143 ,0.45957 ,4.50934 
318 ,60.9648 ,1.35353 ,0.44931 ,4.40860 
319 ,61.1727 ,1.35561 ,0.43904 ,4.30787 
320 ,61.3651 ,1.35748 ,0.43904 ,4.30787 
321 ,61.5570 ,1.35951 ,0.43562 ,4.27429 
322 ,61.7490 ,1.36150 ,0.42535 ,4.17355 
323 ,61.9410 ,1.36328 ,0.39797 ,3.90493 
324 ,62.1333 ,1.36519 ,0.38429 ,3.77061 
325 ,62.3093 ,1.36710 ,0.38771 ,3.80419 
326 ,62.5015 ,1.36889 ,0.36718 ,3.60272 
327 ,62.6936 ,1.37080 ,0.34322 ,3.36767 
328 ,62.9017 ,1.37292 ,0.35349 ,3.46841 
329 ,63.0937 ,1.37481 ,0.32611 ,3.19978 
330 ,63.3017 ,1.37691 ,0.33980 ,3.33410 
331 ,63.4780 ,1.37875 ,0.31584 ,3.09905 
332 ,63.6702 ,1.38067 ,0.30558 ,2.99831 
333 ,63.8622 ,1.38248 ,0.29873 ,2.93116 
334 ,64.0540 ,1.38436 ,0.28847 ,2.83042 
335 ,64.2463 ,1.38637 ,0.27820 ,2.72969 
336 ,64.4226 ,1.38816 ,0.27135 ,2.66253 
337 ,64.6144 ,1.39001 ,0.24398 ,2.39390 
338 ,64.7904 ,1.39182 ,0.22687 ,2.22601 
339 ,64.9827 ,1.39364 ,0.23713 ,2.32675 
340 ,65.1585 ,1.39558 ,0.20633 ,2.02454 
341 ,65.3669 ,1.39753 ,0.20291 ,1.99096 
342 ,65.5590 ,1.39949 ,0.20291 ,1.99096 
343 ,65.7670 ,1.40150 ,0.18922 ,1.85665 
344 ,65.9591 ,1.40342 ,0.18238 ,1.78949 
345 ,66.1511 ,1.40543 ,0.15158 ,1.48729 
346 ,66.3594 ,1.40737 ,0.15842 ,1.55445 
347 ,66.5673 ,1.40951 ,0.13105 ,1.28582 
348 ,66.7435 ,1.41134 ,0.12420 ,1.21866 
349 ,66.9191 ,1.41319 ,0.11051 ,1.08435 
350 ,67.1111 ,1.41498 ,0.10709 ,1.05077 
351 ,67.3032 ,1.41696 ,0.09682 ,0.95004 
352 ,67.4952 ,1.41881 ,0.08656 ,0.84930 
353 ,67.6876 ,1.42077 ,0.06945 ,0.68141 
354 ,67.9122 ,1.42300 ,0.05918 ,0.58067 
355 ,68.1200 ,1.42504 ,0.05918 ,0.58067 
356 ,68.3123 ,1.42699 ,0.03865 ,0.37920 
357 ,68.5039 ,1.42890 ,0.02838 ,0.27847 
358 ,68.7122 ,1.43091 ,0.01469 ,0.14416 
359 ,68.8882 ,1.43282 ,0.00443 ,0.04342 
360 ,69.0804 ,1.43461 ,-0.00926 ,-0.09089 
361 ,69.2722 ,1.43661 ,-0.00584 ,-0.05731 
362 ,69.4642 ,1.43852 ,-0.01269 ,-0.12447 
363 ,69.6565 ,1.44037 ,-0.01953 ,-0.19163 
364 ,69.8488 ,1.44235 ,-0.04348 ,-0.42667 
365 ,70.0407 ,1.44428 ,-0.04006 ,-0.39310 
366 ,70.2488 ,1.44636 ,-0.07086 ,-0.69530 
367 ,70.4247 ,1.44815 ,-0.07771 ,-0.76246 
368 ,70.6330 ,1.45014 ,-0.08797 ,-0.86319 
369 ,70.8247 ,1.45216 ,-0.09140 ,-0.89677 
370 ,71.0012 ,1.45394 ,-0.11193 ,-1.09824 
371 ,71.1932 ,1.45572 ,-0.10851 ,-1.06466 
372 ,71.3854 ,1.45769 ,-0.13246 ,-1.29971 
373 ,71.5771 ,1.45965 ,-0.12219 ,-1.19898 
374 ,71.7855 ,1.46161 ,-0.14615 ,-1.43402 
375 ,71.9935 ,1.46375 ,-0.15642 ,-1.53476 
376 ,72.1857 ,1.46567 ,-0.17011 ,-1.66907 
377 ,72.3777 ,1.46767 ,-0.15642 ,-1.53476 
378 ,72.5858 ,1.46968 ,-0.19406 ,-1.90412 
379 ,72.7939 ,1.47181 ,-0.18379 ,-1.80338 
380 ,73.0021 ,1.47391 ,-0.20090 ,-1.97128 
381 ,73.2099 ,1.47583 ,-0.20090 ,-1.97128 
382 ,73.4018 ,1.47786 ,-0.23855 ,-2.34064 
383 ,73.5779 ,1.47968 ,-0.22828 ,-2.23990 
384 ,73.7699 ,1.48158 ,-0.23513 ,-2.30706 
385 ,73.9782 ,1.48354 ,-0.25566 ,-2.50853 
386 ,74.1705 ,1.48561 ,-0.23170 ,-2.27348 
387 ,74.3625 ,1.48746 ,-0.27619 ,-2.71000 
388 ,74.5545 ,1.48932 ,-0.28988 ,-2.84431 
389 ,74.7468 ,1.49127 ,-0.29673 ,-2.91147 
390 ,74.9388 ,1.49324 ,-0.30015 ,-2.94505 
391 ,75.1309 ,1.49516 ,-0.30357 ,-2.97863 
392 ,75.3230 ,1.49706 ,-0.32068 ,-3.14652 
393 ,75.5151 ,1.49898 ,-0.33095 ,-3.24725 
394 ,75.7071 ,1.50101 ,-0.35148 ,-3.44872 
395 ,75.8991 ,1.50277 ,-0.35148 ,-3.44872 
396 ,76.1074 ,1.50480 ,-0.34464 ,-3.38156 
397 ,76.3153 ,1.50697 ,-0.36517 ,-3.58303 
398 ,76.5074 ,1.50891 ,-0.36175 ,-3.54946 
399 ,76.6836 ,1.51073 ,-0.38570 ,-3.78450 
400 ,76.8756 ,1.51256 ,-0.39939 ,-3.91882 
401 ,77.0515 ,1.51447 ,-0.39939 ,-3.91882 
402 ,77.2279 ,1.51619 ,-0.39939 ,-3.91882 
403 ,77.4358 ,1.51816 ,-0.41992 ,-4.12029 
404 ,77.6120 ,1.51998 ,-0.41308 ,-4.05313 
405 ,77.8036 ,1.52186 ,-0.44730 ,-4.38891 
406 ,77.9802 ,1.52370 ,-0.46441 ,-4.55681 
407 ,78.1721 ,1.52567 ,-0.45414 ,-4.45607 
408 ,78.3643 ,1.52753 ,-0.46441 ,-4.55681 
409 ,78.5562 ,1.52933 ,-0.48494 ,-4.75828 
410 ,78.7642 ,1.53137 ,-0.47468 ,-4.65754 
411 ,78.9566 ,1.53344 ,-0.49863 ,-4.89259 
412 ,79.1327 ,1.53519 ,-0.49863 ,-4.89259 
413 ,79.3245 ,1.53705 ,-0.50206 ,-4.92617 
414 ,79.5328 ,1.53916 ,-0.51917 ,-5.09406 
415 ,79.7249 ,1.54103 ,-0.53628 ,-5.26195 
416 ,79.9331 ,1.54314 ,-0.53970 ,-5.29553 
417 ,80.1250 ,1.54511 ,-0.54312 ,-5.32911 
418 ,80.3169 ,1.54698 ,-0.56023 ,-5.49700 
419 ,80.4934 ,1.54883 ,-0.58077 ,-5.69847 
420 ,80.6852 ,1.55066 ,-0.56365 ,-5.53058 
421 ,80.8773 ,1.55254 ,-0.60130 ,-5.89994 
422 ,81.0533 ,1.55447 ,-0.58077 ,-5.69847 
423 ,81.2450 ,1.55625 ,-0.59103 ,-5.79920 
424 ,81.4216 ,1.55810 ,-0.60472 ,-5.93352 
425 ,81.6292 ,1.56012 ,-0.61499 ,-6.03425 
426 ,81.8217 ,1.56199 ,-0.63210 ,-6.20214 
427 ,82.0139 ,1.56400 ,-0.64921 ,-6.37003 
428 ,82.2059 ,1.56585 ,-0.62868 ,-6.16856 
429 ,82.4136 ,1.56795 ,-0.64921 ,-6.37003 
430 ,82.6061 ,1.56992 ,-0.65947 ,-6.47077 
431 ,82.8142 ,1.57194 ,-0.68685 ,-6.73940 
432 ,83.0059 ,1.57385 ,-0.66632 ,-6.53793 
433 ,83.2143 ,1.57585 ,-0.69712 ,-6.84013 
434 ,83.4063 ,1.57786 ,-0.69370 ,-6.80655 
435 ,83.5824 ,1.57971 ,-0.71423 ,-7.00802 
436 ,83.7745 ,1.58155 ,-0.71081 ,-6.97444 
437 ,83.9666 ,1.58345 ,-0.73476 ,-7.20949 
438 ,84.1586 ,1.58544 ,-0.72792 ,-7.14233 
439 ,84.3346 ,1.58719 ,-0.75872 ,-7.44454 
440 ,84.5429 ,1.58928 ,-0.75187 ,-7.37738 
441 ,84.7349 ,1.59120 ,-0.76898 ,-7.54527 
442 ,84.9270 ,1.59301 ,-0.76898 ,-7.54527 
443 ,85.1189 ,1.59496 ,-0.77583 ,-7.61243 
444 ,85.3113 ,1.59688 ,-0.78610 ,-7.71317 
445 ,85.5030 ,1.59879 ,-0.78952 ,-7.74674 
446 ,85.6788 ,1.60062 ,-0.79636 ,-7.81390 
447 ,85.8711 ,1.60257 ,-0.82032 ,-8.04895 
448 ,86.0635 ,1.60449 ,-0.81347 ,-7.98179 
449 ,86.2714 ,1.60653 ,-0.83743 ,-8.21684 
450 ,86.4796 ,1.60857 ,-0.84427 ,-8.28400 
451 ,86.6717 ,1.61053 ,-0.85796 ,-8.41831 
452 ,86.8637 ,1.61245 ,-0.84769 ,-8.31758 
453 ,87.0556 ,1.61433 ,-0.85796 ,-8.41831 
454 ,87.2319 ,1.61617 ,-0.87507 ,-8.58620 
455 ,87.4400 ,1.61818 ,-0.86823 ,-8.51904 
456 ,87.6480 ,1.62031 ,-0.89218 ,-8.75409 
457 ,87.8397 ,1.62219 ,-0.88534 ,-8.68694 
458 ,88.0323 ,1.62415 ,-0.91614 ,-8.98914 
459 ,88.2404 ,1.62620 ,-0.90245 ,-8.85483 
460 ,88.4325 ,1.62812 ,-0.92983 ,-9.12345 
461 ,88.6245 ,1.63007 ,-0.92640 ,-9.08988 
462 ,88.8327 ,1.63213 ,-0.93325 ,-9.15703 
463 ,89.0245 ,1.63399 ,-0.94694 ,-9.29135 
