Data stamp = , 29-04-2022 09:21:08 416

Calibration Values: 
Slope = , 26.54 , g/V 
Offset Voltage at no contact = , -0.501760 , V 

No , Time , Stage Position ,   Mass , Force 
   ,  (s) ,      (mm)      ,   (g)  , (mN)  

1 ,0.0000 ,0.74945 ,5.28141 ,51.82116 
2 ,0.2376 ,0.74955 ,5.30194 ,52.02263 
3 ,0.6860 ,0.75109 ,5.30194 ,52.02263 
4 ,0.8941 ,0.75313 ,5.28483 ,51.85474 
5 ,1.0862 ,0.75497 ,5.27456 ,51.75401 
6 ,1.2784 ,0.75688 ,5.29167 ,51.92190 
7 ,1.4705 ,0.75892 ,5.27456 ,51.75401 
8 ,1.6786 ,0.76080 ,5.28825 ,51.88832 
9 ,1.8706 ,0.76284 ,5.24718 ,51.48538 
10 ,2.0627 ,0.76477 ,5.24376 ,51.45180 
11 ,2.2548 ,0.76666 ,5.22665 ,51.28391 
12 ,2.4469 ,0.76863 ,5.19585 ,50.98170 
13 ,2.6545 ,0.77070 ,5.19585 ,50.98170 
14 ,2.8468 ,0.77261 ,5.17532 ,50.78023 
15 ,3.0390 ,0.77455 ,5.17190 ,50.74666 
16 ,3.2313 ,0.77645 ,5.13083 ,50.34372 
17 ,3.4232 ,0.77835 ,5.12399 ,50.27656 
18 ,3.6154 ,0.78027 ,5.10688 ,50.10867 
19 ,3.8073 ,0.78220 ,5.07950 ,49.84004 
20 ,3.9835 ,0.78408 ,5.08634 ,49.90720 
21 ,4.1757 ,0.78596 ,5.06239 ,49.67215 
22 ,4.3677 ,0.78779 ,5.02817 ,49.33637 
23 ,4.5756 ,0.78982 ,5.03501 ,49.40352 
24 ,4.7836 ,0.79199 ,4.99052 ,48.96701 
25 ,5.0081 ,0.79412 ,4.97683 ,48.83269 
26 ,5.2160 ,0.79628 ,4.94603 ,48.53049 
27 ,5.4079 ,0.79822 ,4.92892 ,48.36260 
28 ,5.6162 ,0.80023 ,4.89812 ,48.06039 
29 ,5.8243 ,0.80236 ,4.88444 ,47.92608 
30 ,6.0002 ,0.80428 ,4.87417 ,47.82534 
31 ,6.1764 ,0.80600 ,4.84337 ,47.52314 
32 ,6.3684 ,0.80782 ,4.81941 ,47.28809 
33 ,6.5766 ,0.80976 ,4.82626 ,47.35525 
34 ,6.7847 ,0.81199 ,4.80230 ,47.12020 
35 ,6.9767 ,0.81402 ,4.76466 ,46.75084 
36 ,7.1687 ,0.81581 ,4.75439 ,46.65010 
37 ,7.3608 ,0.81782 ,4.74413 ,46.54937 
38 ,7.5528 ,0.81969 ,4.72359 ,46.34790 
39 ,7.7769 ,0.82192 ,4.70648 ,46.18001 
40 ,7.9851 ,0.82397 ,4.66884 ,45.81065 
41 ,8.1772 ,0.82585 ,4.68253 ,45.94496 
42 ,8.3695 ,0.82778 ,4.62093 ,45.34055 
43 ,8.5615 ,0.82974 ,4.63462 ,45.47486 
44 ,8.7854 ,0.83184 ,4.58671 ,45.00477 
45 ,8.9774 ,0.83385 ,4.58671 ,45.00477 
46 ,9.1693 ,0.83581 ,4.55933 ,44.73614 
47 ,9.3617 ,0.83774 ,4.53537 ,44.50109 
48 ,9.5699 ,0.83989 ,4.53537 ,44.50109 
49 ,9.7620 ,0.84177 ,4.51142 ,44.26604 
50 ,9.9539 ,0.84369 ,4.50457 ,44.19889 
51 ,10.1459 ,0.84559 ,4.46351 ,43.79595 
52 ,10.3216 ,0.84742 ,4.47378 ,43.89668 
53 ,10.5301 ,0.84930 ,4.46351 ,43.79595 
54 ,10.7701 ,0.85172 ,4.43271 ,43.49374 
55 ,10.9783 ,0.85385 ,4.40875 ,43.25870 
56 ,11.1703 ,0.85583 ,4.38480 ,43.02365 
57 ,11.3620 ,0.85784 ,4.38138 ,42.99007 
58 ,11.5542 ,0.85965 ,4.35742 ,42.75502 
59 ,11.7627 ,0.86172 ,4.33004 ,42.48639 
60 ,11.9548 ,0.86370 ,4.33347 ,42.51997 
61 ,12.1628 ,0.86579 ,4.28213 ,42.01630 
62 ,12.3708 ,0.86773 ,4.28898 ,42.08345 
63 ,12.5627 ,0.86974 ,4.24107 ,41.61336 
64 ,12.7550 ,0.87162 ,4.24107 ,41.61336 
65 ,12.9469 ,0.87354 ,4.21711 ,41.37831 
66 ,13.1392 ,0.87551 ,4.18974 ,41.10968 
67 ,13.3314 ,0.87745 ,4.20342 ,41.24400 
68 ,13.5390 ,0.87946 ,4.16578 ,40.87464 
69 ,13.7312 ,0.88143 ,4.14867 ,40.70674 
70 ,13.9236 ,0.88331 ,4.11787 ,40.40454 
71 ,14.1151 ,0.88525 ,4.11445 ,40.37096 
72 ,14.3072 ,0.88724 ,4.09391 ,40.16949 
73 ,14.4832 ,0.88905 ,4.06654 ,39.90087 
74 ,14.6916 ,0.89092 ,4.06654 ,39.90087 
75 ,14.9160 ,0.89313 ,4.03574 ,39.59866 
76 ,15.1241 ,0.89533 ,4.01520 ,39.39719 
77 ,15.3322 ,0.89740 ,4.01520 ,39.39719 
78 ,15.5242 ,0.89940 ,3.96729 ,38.92709 
79 ,15.7483 ,0.90150 ,3.97414 ,38.99425 
80 ,15.9723 ,0.90374 ,3.93307 ,38.59131 
81 ,16.1645 ,0.90580 ,3.90912 ,38.35626 
82 ,16.3566 ,0.90768 ,3.89885 ,38.25553 
83 ,16.5806 ,0.90976 ,3.87832 ,38.05406 
84 ,16.7888 ,0.91183 ,3.88174 ,38.08764 
85 ,16.9967 ,0.91406 ,3.84067 ,37.68470 
86 ,17.1888 ,0.91603 ,3.83725 ,37.65112 
87 ,17.3809 ,0.91790 ,3.80645 ,37.34891 
88 ,17.5891 ,0.91999 ,3.80303 ,37.31534 
89 ,17.7812 ,0.92198 ,3.75170 ,36.81166 
90 ,17.9888 ,0.92394 ,3.76196 ,36.91240 
91 ,18.1812 ,0.92593 ,3.73117 ,36.61019 
92 ,18.3739 ,0.92782 ,3.72432 ,36.54303 
93 ,18.5655 ,0.92973 ,3.69694 ,36.27441 
94 ,18.7575 ,0.93163 ,3.67983 ,36.10652 
95 ,18.9497 ,0.93359 ,3.67983 ,36.10652 
96 ,19.1417 ,0.93552 ,3.63877 ,35.70358 
97 ,19.3338 ,0.93738 ,3.63192 ,35.63642 
98 ,19.5419 ,0.93950 ,3.59770 ,35.30064 
99 ,19.7339 ,0.94151 ,3.61139 ,35.43495 
100 ,19.9260 ,0.94332 ,3.57375 ,35.06559 
101 ,20.1179 ,0.94528 ,3.55663 ,34.89770 
102 ,20.3422 ,0.94740 ,3.54979 ,34.83054 
103 ,20.5503 ,0.94957 ,3.52926 ,34.62907 
104 ,20.7424 ,0.95152 ,3.48477 ,34.19255 
105 ,20.9344 ,0.95345 ,3.47792 ,34.12540 
106 ,21.1265 ,0.95530 ,3.47450 ,34.09182 
107 ,21.3022 ,0.95719 ,3.43686 ,33.72246 
108 ,21.4784 ,0.95896 ,3.43344 ,33.68888 
109 ,21.6547 ,0.96070 ,3.41975 ,33.55457 
110 ,21.8464 ,0.96248 ,3.40606 ,33.42025 
111 ,22.0228 ,0.96439 ,3.38210 ,33.18520 
112 ,22.2150 ,0.96621 ,3.36157 ,32.98374 
113 ,22.3906 ,0.96809 ,3.36499 ,33.01731 
114 ,22.5831 ,0.96993 ,3.33419 ,32.71511 
115 ,22.7912 ,0.97204 ,3.32735 ,32.64795 
116 ,22.9992 ,0.97404 ,3.29997 ,32.37933 
117 ,23.1913 ,0.97596 ,3.28286 ,32.21143 
118 ,23.3993 ,0.97809 ,3.26233 ,32.00996 
119 ,23.6076 ,0.98013 ,3.25206 ,31.90923 
120 ,23.8156 ,0.98220 ,3.21442 ,31.53987 
121 ,24.0078 ,0.98405 ,3.22468 ,31.64060 
122 ,24.2155 ,0.98624 ,3.17677 ,31.17051 
123 ,24.4080 ,0.98809 ,3.17335 ,31.13693 
124 ,24.5998 ,0.99007 ,3.14255 ,30.83472 
125 ,24.7920 ,0.99195 ,3.13229 ,30.73399 
126 ,24.9843 ,0.99388 ,3.12202 ,30.63325 
127 ,25.1761 ,0.99583 ,3.10149 ,30.43178 
128 ,25.3683 ,0.99773 ,3.09464 ,30.36463 
129 ,25.5605 ,0.99962 ,3.06042 ,30.02884 
130 ,25.7523 ,1.00163 ,3.03647 ,29.79380 
131 ,25.9446 ,1.00350 ,3.04331 ,29.86095 
132 ,26.1364 ,1.00544 ,3.01251 ,29.55875 
133 ,26.3286 ,1.00735 ,2.99540 ,29.39086 
134 ,26.5047 ,1.00917 ,2.97829 ,29.22297 
135 ,26.6967 ,1.01102 ,2.94407 ,28.88718 
136 ,26.8890 ,1.01299 ,2.93038 ,28.75287 
137 ,27.0970 ,1.01498 ,2.91669 ,28.61856 
138 ,27.2891 ,1.01695 ,2.91327 ,28.58498 
139 ,27.4648 ,1.01879 ,2.89616 ,28.41709 
140 ,27.6572 ,1.02061 ,2.86878 ,28.14846 
141 ,27.8489 ,1.02252 ,2.86878 ,28.14846 
142 ,28.0413 ,1.02444 ,2.84140 ,27.87983 
143 ,28.2334 ,1.02641 ,2.81402 ,27.61121 
144 ,28.4572 ,1.02854 ,2.81402 ,27.61121 
145 ,28.6497 ,1.03056 ,2.78665 ,27.34258 
146 ,28.8894 ,1.03284 ,2.75585 ,27.04038 
147 ,29.0818 ,1.03492 ,2.76269 ,27.10753 
148 ,29.3058 ,1.03705 ,2.72847 ,26.77175 
149 ,29.4978 ,1.03900 ,2.71136 ,26.60386 
150 ,29.6900 ,1.04091 ,2.70794 ,26.57028 
151 ,29.9141 ,1.04307 ,2.67714 ,26.26807 
152 ,30.1061 ,1.04508 ,2.67714 ,26.26807 
153 ,30.2980 ,1.04701 ,2.64634 ,25.96587 
154 ,30.4899 ,1.04893 ,2.63607 ,25.86514 
155 ,30.6824 ,1.05082 ,2.62923 ,25.79798 
156 ,30.8905 ,1.05291 ,2.59843 ,25.49577 
157 ,31.0982 ,1.05501 ,2.58132 ,25.32788 
158 ,31.2906 ,1.05693 ,2.55394 ,25.05926 
159 ,31.4827 ,1.05884 ,2.56421 ,25.15999 
160 ,31.6585 ,1.06071 ,2.52314 ,24.75705 
161 ,31.8830 ,1.06278 ,2.51287 ,24.65632 
162 ,32.0752 ,1.06476 ,2.49234 ,24.45485 
163 ,32.2671 ,1.06674 ,2.47181 ,24.25338 
164 ,32.4748 ,1.06877 ,2.46496 ,24.18622 
165 ,32.6674 ,1.07069 ,2.45127 ,24.05191 
166 ,32.8595 ,1.07264 ,2.44443 ,23.98475 
167 ,33.0676 ,1.07471 ,2.41705 ,23.71612 
168 ,33.2752 ,1.07680 ,2.39310 ,23.48108 
169 ,33.4674 ,1.07868 ,2.38968 ,23.44750 
170 ,33.6597 ,1.08059 ,2.36572 ,23.21245 
171 ,33.8516 ,1.08248 ,2.34519 ,23.01098 
172 ,34.0439 ,1.08442 ,2.33834 ,22.94382 
173 ,34.2520 ,1.08655 ,2.31439 ,22.70877 
174 ,34.4441 ,1.08847 ,2.29728 ,22.54088 
175 ,34.6520 ,1.09054 ,2.27674 ,22.33941 
176 ,34.8603 ,1.09267 ,2.26990 ,22.27226 
177 ,35.0684 ,1.09473 ,2.24594 ,22.03721 
178 ,35.2605 ,1.09662 ,2.23910 ,21.97005 
179 ,35.4684 ,1.09869 ,2.20830 ,21.66785 
180 ,35.6606 ,1.10059 ,2.20488 ,21.63427 
181 ,35.8525 ,1.10254 ,2.17750 ,21.36564 
182 ,36.0448 ,1.10448 ,2.16381 ,21.23133 
183 ,36.2367 ,1.10642 ,2.16039 ,21.19775 
184 ,36.4446 ,1.10847 ,2.13644 ,20.96270 
185 ,36.6367 ,1.11044 ,2.13301 ,20.92912 
186 ,36.8452 ,1.11244 ,2.10564 ,20.66050 
187 ,37.0369 ,1.11436 ,2.10221 ,20.62692 
188 ,37.2453 ,1.11646 ,2.07484 ,20.35829 
189 ,37.4533 ,1.11846 ,2.07141 ,20.32472 
190 ,37.6453 ,1.12053 ,2.04061 ,20.02251 
191 ,37.8695 ,1.12268 ,2.00982 ,19.72031 
192 ,38.0775 ,1.12478 ,2.01324 ,19.75388 
193 ,38.2532 ,1.12662 ,1.98586 ,19.48526 
194 ,38.4458 ,1.12847 ,1.96875 ,19.31737 
195 ,38.6375 ,1.13039 ,1.97902 ,19.41810 
196 ,38.8298 ,1.13236 ,1.94822 ,19.11590 
197 ,39.0378 ,1.13440 ,1.94479 ,19.08232 
198 ,39.2296 ,1.13630 ,1.92084 ,18.84727 
199 ,39.4222 ,1.13818 ,1.91057 ,18.74654 
200 ,39.6141 ,1.14019 ,1.90715 ,18.71296 
201 ,39.8061 ,1.14214 ,1.87293 ,18.37717 
202 ,39.9980 ,1.14393 ,1.88319 ,18.47791 
203 ,40.1904 ,1.14593 ,1.85582 ,18.20928 
204 ,40.3983 ,1.14797 ,1.83528 ,18.00781 
205 ,40.5745 ,1.14982 ,1.82160 ,17.87350 
206 ,40.7825 ,1.15183 ,1.80106 ,17.67203 
207 ,40.9907 ,1.15386 ,1.80791 ,17.73919 
208 ,41.1987 ,1.15594 ,1.78737 ,17.53772 
209 ,41.3908 ,1.15796 ,1.77369 ,17.40340 
210 ,41.5988 ,1.15998 ,1.75315 ,17.20193 
211 ,41.7909 ,1.16186 ,1.72920 ,16.96689 
212 ,41.9830 ,1.16379 ,1.71551 ,16.83257 
213 ,42.1753 ,1.16574 ,1.70866 ,16.76542 
214 ,42.3673 ,1.16766 ,1.69155 ,16.59752 
215 ,42.5754 ,1.16976 ,1.68129 ,16.49679 
216 ,42.7674 ,1.17167 ,1.65733 ,16.26174 
217 ,42.9752 ,1.17365 ,1.63338 ,16.02669 
218 ,43.1675 ,1.17569 ,1.64364 ,16.12743 
219 ,43.3761 ,1.17776 ,1.61969 ,15.89238 
220 ,43.5676 ,1.17966 ,1.61969 ,15.89238 
221 ,43.7596 ,1.18157 ,1.57862 ,15.48944 
222 ,43.9518 ,1.18351 ,1.58889 ,15.59018 
223 ,44.1439 ,1.18544 ,1.56151 ,15.32155 
224 ,44.3360 ,1.18734 ,1.55467 ,15.25439 
225 ,44.5281 ,1.18929 ,1.53756 ,15.08650 
226 ,44.7200 ,1.19119 ,1.53756 ,15.08650 
227 ,44.9118 ,1.19304 ,1.52045 ,14.91861 
228 ,45.1042 ,1.19499 ,1.48280 ,14.54925 
229 ,45.2963 ,1.19693 ,1.48280 ,14.54925 
230 ,45.5043 ,1.19904 ,1.46227 ,14.34778 
231 ,45.6967 ,1.20103 ,1.44516 ,14.17989 
232 ,45.8884 ,1.20286 ,1.44516 ,14.17989 
233 ,46.0968 ,1.20493 ,1.42462 ,13.97842 
234 ,46.3047 ,1.20697 ,1.39725 ,13.70979 
235 ,46.5128 ,1.20906 ,1.40751 ,13.81053 
236 ,46.7370 ,1.21126 ,1.37671 ,13.50832 
237 ,46.9291 ,1.21321 ,1.38698 ,13.60906 
238 ,47.1212 ,1.21518 ,1.33907 ,13.13896 
239 ,47.3128 ,1.21722 ,1.35618 ,13.30685 
240 ,47.5054 ,1.21901 ,1.32538 ,13.00465 
241 ,47.7135 ,1.22113 ,1.31169 ,12.87033 
242 ,47.9055 ,1.22302 ,1.31512 ,12.90391 
243 ,48.1135 ,1.22510 ,1.28089 ,12.56813 
244 ,48.3057 ,1.22703 ,1.28432 ,12.60171 
245 ,48.5137 ,1.22911 ,1.26036 ,12.36666 
246 ,48.7217 ,1.23118 ,1.23298 ,12.09803 
247 ,48.9139 ,1.23308 ,1.22614 ,12.03088 
248 ,49.1220 ,1.23510 ,1.21245 ,11.89656 
249 ,49.3140 ,1.23710 ,1.19534 ,11.72867 
250 ,49.5055 ,1.23898 ,1.19876 ,11.76225 
251 ,49.6994 ,1.24090 ,1.16454 ,11.42647 
252 ,49.9222 ,1.24312 ,1.15770 ,11.35931 
253 ,50.1142 ,1.24509 ,1.14058 ,11.19142 
254 ,50.3224 ,1.24720 ,1.13374 ,11.12426 
255 ,50.5144 ,1.24913 ,1.12347 ,11.02353 
256 ,50.7226 ,1.25114 ,1.10294 ,10.82206 
257 ,50.9307 ,1.25326 ,1.09610 ,10.75490 
258 ,51.1224 ,1.25516 ,1.08925 ,10.68774 
259 ,51.3149 ,1.25710 ,1.05161 ,10.31838 
260 ,51.5065 ,1.25912 ,1.05161 ,10.31838 
261 ,51.6986 ,1.26089 ,1.03792 ,10.18407 
262 ,51.8751 ,1.26283 ,1.03792 ,10.18407 
263 ,52.0670 ,1.26463 ,1.03108 ,10.11691 
264 ,52.2753 ,1.26673 ,0.99001 ,9.71397 
265 ,52.4832 ,1.26867 ,1.01054 ,9.91544 
266 ,52.6755 ,1.27065 ,0.98317 ,9.64682 
267 ,52.8992 ,1.27299 ,0.96948 ,9.51250 
268 ,53.1076 ,1.27494 ,0.96263 ,9.44535 
269 ,53.2996 ,1.27694 ,0.93525 ,9.17672 
270 ,53.4917 ,1.27886 ,0.93525 ,9.17672 
271 ,53.6998 ,1.28094 ,0.91814 ,9.00883 
272 ,53.8915 ,1.28287 ,0.89419 ,8.77378 
273 ,54.0836 ,1.28475 ,0.88734 ,8.70662 
274 ,54.2757 ,1.28673 ,0.87708 ,8.60589 
275 ,54.4678 ,1.28863 ,0.87023 ,8.53873 
276 ,54.6598 ,1.29051 ,0.85654 ,8.40442 
277 ,54.8519 ,1.29243 ,0.83601 ,8.20295 
278 ,55.0439 ,1.29437 ,0.84286 ,8.27011 
279 ,55.2361 ,1.29629 ,0.80179 ,7.86717 
280 ,55.4280 ,1.29827 ,0.80521 ,7.90074 
281 ,55.6041 ,1.30013 ,0.80863 ,7.93432 
282 ,55.7963 ,1.30187 ,0.78468 ,7.69927 
283 ,55.9725 ,1.30378 ,0.76415 ,7.49780 
284 ,56.1644 ,1.30565 ,0.77441 ,7.59854 
285 ,56.3565 ,1.30752 ,0.74019 ,7.26276 
286 ,56.5485 ,1.30942 ,0.72992 ,7.16202 
287 ,56.7406 ,1.31151 ,0.71966 ,7.06129 
288 ,56.9327 ,1.31326 ,0.70597 ,6.92697 
289 ,57.1248 ,1.31518 ,0.71281 ,6.99413 
290 ,57.3009 ,1.31706 ,0.68544 ,6.72550 
291 ,57.4930 ,1.31883 ,0.67175 ,6.59119 
292 ,57.6851 ,1.32075 ,0.67517 ,6.62477 
293 ,57.8774 ,1.32264 ,0.65121 ,6.38972 
294 ,58.0693 ,1.32464 ,0.63068 ,6.18825 
295 ,58.2613 ,1.32654 ,0.63410 ,6.22183 
296 ,58.4533 ,1.32845 ,0.60330 ,5.91962 
297 ,58.6619 ,1.33044 ,0.60673 ,5.95320 
298 ,58.8702 ,1.33270 ,0.58962 ,5.78531 
299 ,59.0781 ,1.33470 ,0.57593 ,5.65100 
300 ,59.2697 ,1.33664 ,0.55197 ,5.41595 
301 ,59.4620 ,1.33856 ,0.56224 ,5.51668 
302 ,59.6703 ,1.34050 ,0.53486 ,5.24806 
303 ,59.8624 ,1.34258 ,0.54171 ,5.31522 
304 ,60.0544 ,1.34448 ,0.50406 ,4.94585 
305 ,60.2463 ,1.34636 ,0.51091 ,5.01301 
306 ,60.4224 ,1.34824 ,0.50064 ,4.91228 
307 ,60.5984 ,1.35002 ,0.47668 ,4.67723 
308 ,60.7906 ,1.35180 ,0.46984 ,4.61007 
309 ,60.9828 ,1.35378 ,0.46642 ,4.57649 
310 ,61.1907 ,1.35585 ,0.44588 ,4.37502 
311 ,61.3829 ,1.35776 ,0.43904 ,4.30787 
312 ,61.6068 ,1.35999 ,0.43220 ,4.24071 
313 ,61.7990 ,1.36185 ,0.40140 ,3.93850 
314 ,62.0066 ,1.36400 ,0.40140 ,3.93850 
315 ,62.1991 ,1.36592 ,0.40482 ,3.97208 
316 ,62.4073 ,1.36797 ,0.37060 ,3.63630 
317 ,62.5992 ,1.37000 ,0.36375 ,3.56914 
318 ,62.7912 ,1.37179 ,0.35349 ,3.46841 
319 ,62.9835 ,1.37373 ,0.36033 ,3.53557 
320 ,63.1913 ,1.37582 ,0.33295 ,3.26694 
321 ,63.3836 ,1.37771 ,0.33980 ,3.33410 
322 ,63.5754 ,1.37961 ,0.30900 ,3.03189 
323 ,63.7838 ,1.38175 ,0.30900 ,3.03189 
324 ,63.9917 ,1.38382 ,0.27820 ,2.72969 
325 ,64.1839 ,1.38571 ,0.28504 ,2.79684 
326 ,64.3766 ,1.38762 ,0.26451 ,2.59537 
327 ,64.5680 ,1.38960 ,0.24740 ,2.42748 
328 ,64.8078 ,1.39179 ,0.25424 ,2.49464 
329 ,65.0003 ,1.39395 ,0.24055 ,2.36032 
330 ,65.1921 ,1.39583 ,0.22687 ,2.22601 
331 ,65.3845 ,1.39774 ,0.21660 ,2.12528 
332 ,65.5762 ,1.39968 ,0.20976 ,2.05812 
333 ,65.7683 ,1.40159 ,0.18580 ,1.82307 
334 ,65.9604 ,1.40350 ,0.18580 ,1.82307 
335 ,66.1687 ,1.40559 ,0.15842 ,1.55445 
336 ,66.3607 ,1.40749 ,0.17211 ,1.68876 
337 ,66.5689 ,1.40959 ,0.13789 ,1.35298 
338 ,66.7611 ,1.41150 ,0.14131 ,1.38655 
339 ,66.9693 ,1.41358 ,0.12078 ,1.18508 
340 ,67.1772 ,1.41567 ,0.11736 ,1.15151 
341 ,67.3692 ,1.41758 ,0.08998 ,0.88288 
342 ,67.5613 ,1.41947 ,0.10709 ,1.05077 
343 ,67.7532 ,1.42142 ,0.08998 ,0.88288 
344 ,67.9291 ,1.42327 ,0.06945 ,0.68141 
345 ,68.1214 ,1.42513 ,0.06945 ,0.68141 
346 ,68.3298 ,1.42717 ,0.04891 ,0.47994 
347 ,68.5540 ,1.42934 ,0.05234 ,0.51352 
348 ,68.7619 ,1.43151 ,0.03180 ,0.31205 
349 ,68.9540 ,1.43339 ,0.01469 ,0.14416 
350 ,69.1622 ,1.43552 ,0.01127 ,0.11058 
351 ,69.3701 ,1.43759 ,-0.01269 ,-0.12447 
352 ,69.5622 ,1.43950 ,-0.00584 ,-0.05731 
353 ,69.7702 ,1.44158 ,-0.02295 ,-0.22520 
354 ,69.9625 ,1.44355 ,-0.03322 ,-0.32594 
355 ,70.1544 ,1.44541 ,-0.02295 ,-0.22520 
356 ,70.3465 ,1.44734 ,-0.05033 ,-0.49383 
357 ,70.5545 ,1.44942 ,-0.05375 ,-0.52741 
358 ,70.7623 ,1.45143 ,-0.08455 ,-0.82961 
359 ,70.9547 ,1.45340 ,-0.07428 ,-0.72888 
360 ,71.1465 ,1.45534 ,-0.10508 ,-1.03108 
361 ,71.3389 ,1.45728 ,-0.09140 ,-0.89677 
362 ,71.5630 ,1.45948 ,-0.11535 ,-1.13182 
363 ,71.7548 ,1.46140 ,-0.11193 ,-1.09824 
364 ,71.9472 ,1.46331 ,-0.14957 ,-1.46760 
365 ,72.1554 ,1.46541 ,-0.13246 ,-1.29971 
366 ,72.3633 ,1.46750 ,-0.15984 ,-1.56834 
367 ,72.5553 ,1.46944 ,-0.15299 ,-1.50118 
368 ,72.7475 ,1.47134 ,-0.18379 ,-1.80338 
369 ,72.9558 ,1.47334 ,-0.18379 ,-1.80338 
370 ,73.1637 ,1.47557 ,-0.20433 ,-2.00485 
371 ,73.3554 ,1.47741 ,-0.21117 ,-2.07201 
372 ,73.5478 ,1.47933 ,-0.21802 ,-2.13917 
373 ,73.7575 ,1.48142 ,-0.22144 ,-2.17275 
374 ,73.9641 ,1.48357 ,-0.24539 ,-2.40779 
375 ,74.1722 ,1.48557 ,-0.23513 ,-2.30706 
376 ,74.3641 ,1.48751 ,-0.27277 ,-2.67642 
377 ,74.5720 ,1.48958 ,-0.25224 ,-2.47495 
378 ,74.7799 ,1.49163 ,-0.28304 ,-2.77716 
379 ,74.9721 ,1.49363 ,-0.29330 ,-2.87789 
380 ,75.1643 ,1.49555 ,-0.30699 ,-3.01220 
381 ,75.3886 ,1.49776 ,-0.31041 ,-3.04578 
382 ,75.5646 ,1.49961 ,-0.30699 ,-3.01220 
383 ,75.7568 ,1.50141 ,-0.31726 ,-3.11294 
384 ,75.9487 ,1.50340 ,-0.33779 ,-3.31441 
385 ,76.1569 ,1.50542 ,-0.33437 ,-3.28083 
386 ,76.3489 ,1.50735 ,-0.35148 ,-3.44872 
387 ,76.5407 ,1.50927 ,-0.37544 ,-3.68377 
388 ,76.7487 ,1.51127 ,-0.36175 ,-3.54946 
389 ,76.9573 ,1.51329 ,-0.38912 ,-3.81808 
390 ,77.1651 ,1.51551 ,-0.41308 ,-4.05313 
391 ,77.3730 ,1.51758 ,-0.39255 ,-3.85166 
392 ,77.5655 ,1.51950 ,-0.43019 ,-4.22102 
393 ,77.7736 ,1.52153 ,-0.41992 ,-4.12029 
394 ,77.9817 ,1.52370 ,-0.44046 ,-4.32176 
395 ,78.1897 ,1.52576 ,-0.44730 ,-4.38891 
396 ,78.3818 ,1.52765 ,-0.45072 ,-4.42249 
397 ,78.5898 ,1.52973 ,-0.45414 ,-4.45607 
398 ,78.7819 ,1.53164 ,-0.49521 ,-4.85901 
399 ,78.9743 ,1.53355 ,-0.47468 ,-4.65754 
400 ,79.1659 ,1.53552 ,-0.50890 ,-4.99332 
401 ,79.3582 ,1.53743 ,-0.50206 ,-4.92617 
402 ,79.5662 ,1.53953 ,-0.51232 ,-5.02690 
403 ,79.7583 ,1.54144 ,-0.51917 ,-5.09406 
404 ,79.9504 ,1.54339 ,-0.52259 ,-5.12764 
405 ,80.1585 ,1.54546 ,-0.54312 ,-5.32911 
406 ,80.3505 ,1.54739 ,-0.54312 ,-5.32911 
407 ,80.5586 ,1.54943 ,-0.56365 ,-5.53058 
408 ,80.7508 ,1.55134 ,-0.56023 ,-5.49700 
409 ,80.9587 ,1.55343 ,-0.58419 ,-5.73205 
410 ,81.1508 ,1.55533 ,-0.57734 ,-5.66489 
411 ,81.3588 ,1.55733 ,-0.60814 ,-5.96709 
412 ,81.5671 ,1.55950 ,-0.60814 ,-5.96709 
413 ,81.7591 ,1.56147 ,-0.63210 ,-6.20214 
414 ,81.9508 ,1.56330 ,-0.62183 ,-6.10141 
415 ,82.1591 ,1.56534 ,-0.63894 ,-6.26930 
416 ,82.3674 ,1.56748 ,-0.63894 ,-6.26930 
417 ,82.5758 ,1.56961 ,-0.64921 ,-6.37003 
418 ,82.7834 ,1.57164 ,-0.67316 ,-6.60508 
419 ,82.9758 ,1.57355 ,-0.66974 ,-6.57150 
420 ,83.1517 ,1.57544 ,-0.67316 ,-6.60508 
421 ,83.3438 ,1.57725 ,-0.70054 ,-6.87371 
422 ,83.5680 ,1.57948 ,-0.69370 ,-6.80655 
423 ,83.7759 ,1.58158 ,-0.70396 ,-6.90729 
424 ,83.9840 ,1.58365 ,-0.72107 ,-7.07518 
425 ,84.1757 ,1.58551 ,-0.72450 ,-7.10876 
426 ,84.3685 ,1.58756 ,-0.72450 ,-7.10876 
427 ,84.5603 ,1.58945 ,-0.74161 ,-7.27665 
428 ,84.7523 ,1.59130 ,-0.74845 ,-7.34380 
429 ,84.9445 ,1.59325 ,-0.75872 ,-7.44454 
430 ,85.1526 ,1.59538 ,-0.76898 ,-7.54527 
431 ,85.3446 ,1.59726 ,-0.76556 ,-7.51170 
432 ,85.5528 ,1.59933 ,-0.79294 ,-7.78032 
433 ,85.7478 ,1.60130 ,-0.79978 ,-7.84748 
434 ,85.9688 ,1.60349 ,-0.80321 ,-7.88106 
435 ,86.1772 ,1.60563 ,-0.82374 ,-8.08253 
436 ,86.3531 ,1.60747 ,-0.82032 ,-8.04895 
437 ,86.5451 ,1.60923 ,-0.83401 ,-8.18326 
438 ,86.7374 ,1.61117 ,-0.86138 ,-8.45189 
439 ,86.9454 ,1.61328 ,-0.84085 ,-8.25042 
440 ,87.1374 ,1.61521 ,-0.86481 ,-8.48547 
441 ,87.3293 ,1.61711 ,-0.85796 ,-8.41831 
442 ,87.5216 ,1.61907 ,-0.88192 ,-8.65336 
443 ,87.7295 ,1.62111 ,-0.87849 ,-8.61978 
444 ,87.9217 ,1.62300 ,-0.89560 ,-8.78767 
445 ,88.1139 ,1.62490 ,-0.90587 ,-8.88841 
446 ,88.3058 ,1.62687 ,-0.90245 ,-8.85483 
447 ,88.4975 ,1.62876 ,-0.92640 ,-9.08988 
448 ,88.6898 ,1.63067 ,-0.91956 ,-9.02272 
449 ,88.8983 ,1.63278 ,-0.94351 ,-9.25777 
450 ,89.1060 ,1.63488 ,-0.92983 ,-9.12345 
451 ,89.2985 ,1.63678 ,-0.96747 ,-9.49282 
452 ,89.5061 ,1.63880 ,-0.96063 ,-9.42566 
453 ,89.6986 ,1.64081 ,-0.98116 ,-9.62713 
454 ,89.9065 ,1.64286 ,-0.97089 ,-9.52639 
455 ,90.0987 ,1.64476 ,-0.99827 ,-9.79502 
456 ,90.3067 ,1.64685 ,-0.99827 ,-9.79502 
457 ,90.4989 ,1.64877 ,-1.01880 ,-9.99649 
458 ,90.6909 ,1.65080 ,-1.00854 ,-9.89576 
459 ,90.8830 ,1.65259 ,-1.01880 ,-9.99649 
460 ,91.0751 ,1.65457 ,-1.04276 ,-10.23154 
461 ,91.2672 ,1.65648 ,-1.02907 ,-10.09723 
462 ,91.4754 ,1.65855 ,-1.05645 ,-10.36585 
