Data stamp = , 27-04-2022 11:48:04 507

Calibration Values: 
Slope = , 26.54 , g/V 
Offset Voltage at no contact = , -0.501760 , V 

No , Time , Stage Position ,   Mass , Force 
   ,  (s) ,      (mm)      ,   (g)  , (mN)  

1 ,0.0000 ,0.74942 ,5.31221 ,52.12337 
2 ,0.2847 ,0.74962 ,5.31563 ,52.15694 
3 ,0.7332 ,0.75118 ,5.29510 ,51.95548 
4 ,0.9409 ,0.75356 ,5.30536 ,52.05621 
5 ,1.1333 ,0.75541 ,5.30878 ,52.08979 
6 ,1.3093 ,0.75723 ,5.30194 ,52.02263 
7 ,1.5015 ,0.75914 ,5.30194 ,52.02263 
8 ,1.6776 ,0.76093 ,5.29852 ,51.98905 
9 ,1.8698 ,0.76286 ,5.26772 ,51.68685 
10 ,2.0617 ,0.76478 ,5.26772 ,51.68685 
11 ,2.2699 ,0.76681 ,5.23692 ,51.38464 
12 ,2.4617 ,0.76880 ,5.23007 ,51.31749 
13 ,2.6541 ,0.77065 ,5.21639 ,51.18317 
14 ,2.8460 ,0.77264 ,5.19927 ,51.01528 
15 ,3.0382 ,0.77443 ,5.16505 ,50.67950 
16 ,3.2302 ,0.77651 ,5.14794 ,50.51161 
17 ,3.4223 ,0.77833 ,5.13768 ,50.41087 
18 ,3.6140 ,0.78035 ,5.11714 ,50.20940 
19 ,3.8065 ,0.78223 ,5.07608 ,49.80646 
20 ,3.9986 ,0.78417 ,5.09319 ,49.97436 
21 ,4.1907 ,0.78603 ,5.05897 ,49.63857 
22 ,4.3663 ,0.78787 ,5.05897 ,49.63857 
23 ,4.5587 ,0.78967 ,5.03159 ,49.36995 
24 ,4.7348 ,0.79154 ,5.00079 ,49.06774 
25 ,4.9110 ,0.79332 ,4.98368 ,48.89985 
26 ,5.1027 ,0.79516 ,4.96657 ,48.73196 
27 ,5.3107 ,0.79722 ,4.93577 ,48.42975 
28 ,5.5031 ,0.79919 ,4.93919 ,48.46333 
29 ,5.6952 ,0.80106 ,4.91181 ,48.19471 
30 ,5.8713 ,0.80288 ,4.89470 ,48.02681 
31 ,6.0633 ,0.80475 ,4.87759 ,47.85892 
32 ,6.2551 ,0.80663 ,4.86048 ,47.69103 
33 ,6.4475 ,0.80855 ,4.82626 ,47.35525 
34 ,6.6232 ,0.81043 ,4.82284 ,47.32167 
35 ,6.8155 ,0.81224 ,4.81599 ,47.25451 
36 ,7.0237 ,0.81438 ,4.78519 ,46.95231 
37 ,7.2158 ,0.81644 ,4.75439 ,46.65010 
38 ,7.3922 ,0.81811 ,4.74070 ,46.51579 
39 ,7.5839 ,0.81999 ,4.72017 ,46.31432 
40 ,7.7922 ,0.82203 ,4.70648 ,46.18001 
41 ,8.0001 ,0.82412 ,4.69279 ,46.04569 
42 ,8.1922 ,0.82601 ,4.66199 ,45.74349 
43 ,8.3684 ,0.82782 ,4.65173 ,45.64275 
44 ,8.5604 ,0.82974 ,4.63119 ,45.44128 
45 ,8.7684 ,0.83180 ,4.60724 ,45.20624 
46 ,8.9446 ,0.83361 ,4.59013 ,45.03835 
47 ,9.1366 ,0.83546 ,4.59355 ,45.07192 
48 ,9.3447 ,0.83758 ,4.54906 ,44.63541 
49 ,9.5202 ,0.83939 ,4.54564 ,44.60183 
50 ,9.7128 ,0.84121 ,4.52853 ,44.43394 
51 ,9.9049 ,0.84312 ,4.50115 ,44.16531 
52 ,10.0806 ,0.84503 ,4.50800 ,44.23247 
53 ,10.2731 ,0.84685 ,4.47720 ,43.93026 
54 ,10.4811 ,0.84891 ,4.45666 ,43.72879 
55 ,10.6572 ,0.85070 ,4.42929 ,43.46016 
56 ,10.8650 ,0.85274 ,4.40875 ,43.25870 
57 ,11.0414 ,0.85455 ,4.40191 ,43.19154 
58 ,11.2491 ,0.85661 ,4.36427 ,42.82218 
59 ,11.4572 ,0.85862 ,4.35400 ,42.72144 
60 ,11.6496 ,0.86061 ,4.34716 ,42.65429 
61 ,11.8418 ,0.86251 ,4.31978 ,42.38566 
62 ,12.0338 ,0.86443 ,4.31636 ,42.35208 
63 ,12.2259 ,0.86628 ,4.29240 ,42.11703 
64 ,12.4179 ,0.86824 ,4.26160 ,41.81483 
65 ,12.6259 ,0.87034 ,4.24107 ,41.61336 
66 ,12.8022 ,0.87217 ,4.22396 ,41.44547 
67 ,12.9945 ,0.87404 ,4.23765 ,41.57978 
68 ,13.1862 ,0.87601 ,4.19316 ,41.14326 
69 ,13.3622 ,0.87778 ,4.17605 ,40.97537 
70 ,13.5546 ,0.87969 ,4.17947 ,41.00895 
71 ,13.7627 ,0.88173 ,4.14183 ,40.63959 
72 ,13.9707 ,0.88379 ,4.14183 ,40.63959 
73 ,14.1467 ,0.88565 ,4.10418 ,40.27023 
74 ,14.3227 ,0.88737 ,4.08707 ,40.10233 
75 ,14.4986 ,0.88915 ,4.07680 ,40.00160 
76 ,14.6911 ,0.89100 ,4.06654 ,39.90087 
77 ,14.8993 ,0.89304 ,4.05627 ,39.80013 
78 ,15.0911 ,0.89503 ,4.03232 ,39.56508 
79 ,15.2833 ,0.89689 ,3.99809 ,39.22930 
80 ,15.4749 ,0.89883 ,3.99809 ,39.22930 
81 ,15.6514 ,0.90067 ,3.96729 ,38.92709 
82 ,15.8433 ,0.90252 ,3.95361 ,38.79278 
83 ,16.0354 ,0.90443 ,3.94676 ,38.72562 
84 ,16.2274 ,0.90631 ,3.91938 ,38.45700 
85 ,16.4197 ,0.90832 ,3.90227 ,38.28911 
86 ,16.6273 ,0.91033 ,3.87490 ,38.02048 
87 ,16.8359 ,0.91234 ,3.86805 ,37.95332 
88 ,17.0440 ,0.91451 ,3.83725 ,37.65112 
89 ,17.2359 ,0.91639 ,3.83725 ,37.65112 
90 ,17.4278 ,0.91830 ,3.80645 ,37.34891 
91 ,17.6359 ,0.92048 ,3.79276 ,37.21460 
92 ,17.8123 ,0.92227 ,3.79276 ,37.21460 
93 ,18.0043 ,0.92421 ,3.74828 ,36.77808 
94 ,18.1962 ,0.92600 ,3.74828 ,36.77808 
95 ,18.3725 ,0.92785 ,3.73459 ,36.64377 
96 ,18.5806 ,0.92988 ,3.70037 ,36.30799 
97 ,18.7724 ,0.93183 ,3.70037 ,36.30799 
98 ,18.9646 ,0.93370 ,3.65930 ,35.90505 
99 ,19.1727 ,0.93579 ,3.66272 ,35.93863 
100 ,19.3648 ,0.93770 ,3.61823 ,35.50211 
101 ,19.5410 ,0.93958 ,3.60112 ,35.33422 
102 ,19.7490 ,0.94151 ,3.59770 ,35.30064 
103 ,19.9411 ,0.94348 ,3.57032 ,35.03201 
104 ,20.1173 ,0.94530 ,3.56348 ,34.96485 
105 ,20.3254 ,0.94732 ,3.53952 ,34.72981 
106 ,20.5172 ,0.94920 ,3.53610 ,34.69623 
107 ,20.6934 ,0.95108 ,3.50872 ,34.42760 
108 ,20.9017 ,0.95310 ,3.48135 ,34.15898 
109 ,21.0936 ,0.95501 ,3.47108 ,34.05824 
110 ,21.3018 ,0.95705 ,3.43686 ,33.72246 
111 ,21.4939 ,0.95898 ,3.45397 ,33.89035 
112 ,21.6856 ,0.96091 ,3.42317 ,33.58814 
113 ,21.9099 ,0.96304 ,3.40264 ,33.38667 
114 ,22.1019 ,0.96505 ,3.37868 ,33.15163 
115 ,22.2779 ,0.96690 ,3.36499 ,33.01731 
116 ,22.4541 ,0.96868 ,3.35473 ,32.91658 
117 ,22.6460 ,0.97060 ,3.32393 ,32.61437 
118 ,22.8222 ,0.97232 ,3.31024 ,32.48006 
119 ,22.9983 ,0.97410 ,3.29313 ,32.31217 
120 ,23.1739 ,0.97582 ,3.28971 ,32.27859 
121 ,23.3504 ,0.97761 ,3.29655 ,32.34575 
122 ,23.5424 ,0.97948 ,3.24864 ,31.87565 
123 ,23.7346 ,0.98140 ,3.25548 ,31.94281 
124 ,23.9425 ,0.98346 ,3.20757 ,31.47271 
125 ,24.1348 ,0.98545 ,3.20073 ,31.40555 
126 ,24.3265 ,0.98732 ,3.18362 ,31.23766 
127 ,24.5510 ,0.98946 ,3.16993 ,31.10335 
128 ,24.7430 ,0.99150 ,3.14597 ,30.86830 
129 ,24.9350 ,0.99335 ,3.14940 ,30.90188 
130 ,25.1270 ,0.99528 ,3.12202 ,30.63325 
131 ,25.3028 ,0.99711 ,3.09122 ,30.33105 
132 ,25.4950 ,0.99901 ,3.08438 ,30.26389 
133 ,25.7034 ,1.00095 ,3.06042 ,30.02884 
134 ,25.8953 ,1.00312 ,3.06042 ,30.02884 
135 ,26.0716 ,1.00484 ,3.04673 ,29.89453 
136 ,26.2632 ,1.00666 ,3.00224 ,29.45801 
137 ,26.4551 ,1.00857 ,3.00567 ,29.49159 
138 ,26.6476 ,1.01058 ,2.98171 ,29.25654 
139 ,26.8393 ,1.01245 ,2.94407 ,28.88718 
140 ,27.0154 ,1.01439 ,2.95433 ,28.98792 
141 ,27.2080 ,1.01615 ,2.93380 ,28.78645 
142 ,27.4002 ,1.01810 ,2.90642 ,28.51782 
143 ,27.5921 ,1.01995 ,2.90300 ,28.48424 
144 ,27.7842 ,1.02186 ,2.86193 ,28.08130 
145 ,27.9764 ,1.02379 ,2.86536 ,28.11488 
146 ,28.1684 ,1.02577 ,2.84825 ,27.94699 
147 ,28.3606 ,1.02764 ,2.82429 ,27.71194 
148 ,28.5521 ,1.02960 ,2.81060 ,27.57763 
149 ,28.7447 ,1.03148 ,2.79007 ,27.37616 
150 ,28.9526 ,1.03357 ,2.78665 ,27.34258 
151 ,29.1608 ,1.03564 ,2.75243 ,27.00680 
152 ,29.3526 ,1.03753 ,2.75243 ,27.00680 
153 ,29.5608 ,1.03962 ,2.71136 ,26.60386 
154 ,29.7527 ,1.04167 ,2.70109 ,26.50312 
155 ,29.9292 ,1.04341 ,2.70109 ,26.50312 
156 ,30.1210 ,1.04526 ,2.66687 ,26.16734 
157 ,30.3290 ,1.04728 ,2.66687 ,26.16734 
158 ,30.5051 ,1.04913 ,2.64634 ,25.96587 
159 ,30.6976 ,1.05097 ,2.62238 ,25.73082 
160 ,30.9053 ,1.05304 ,2.59843 ,25.49577 
161 ,31.1136 ,1.05517 ,2.59158 ,25.42862 
162 ,31.3217 ,1.05715 ,2.56421 ,25.15999 
163 ,31.5298 ,1.05934 ,2.56078 ,25.12641 
164 ,31.7219 ,1.06126 ,2.52656 ,24.79063 
165 ,31.9140 ,1.06317 ,2.52656 ,24.79063 
166 ,32.1220 ,1.06527 ,2.49918 ,24.52200 
167 ,32.3140 ,1.06715 ,2.48207 ,24.35411 
168 ,32.5222 ,1.06915 ,2.46496 ,24.18622 
169 ,32.7143 ,1.07119 ,2.45812 ,24.11906 
170 ,32.8900 ,1.07307 ,2.43416 ,23.88402 
171 ,33.0825 ,1.07486 ,2.41363 ,23.68255 
172 ,33.2901 ,1.07694 ,2.41363 ,23.68255 
173 ,33.4665 ,1.07869 ,2.39652 ,23.51465 
174 ,33.6427 ,1.08047 ,2.37256 ,23.27961 
175 ,33.8507 ,1.08253 ,2.36914 ,23.24603 
176 ,34.0263 ,1.08438 ,2.33150 ,22.87667 
177 ,34.2188 ,1.08617 ,2.32123 ,22.77593 
178 ,34.4268 ,1.08827 ,2.31439 ,22.70877 
179 ,34.6190 ,1.09019 ,2.28359 ,22.40657 
180 ,34.8111 ,1.09209 ,2.27674 ,22.33941 
181 ,35.0032 ,1.09407 ,2.25621 ,22.13794 
182 ,35.1952 ,1.09601 ,2.24594 ,22.03721 
183 ,35.3873 ,1.09790 ,2.24252 ,22.00363 
184 ,35.5633 ,1.09976 ,2.20830 ,21.66785 
185 ,35.7715 ,1.10174 ,2.20146 ,21.60069 
186 ,35.9636 ,1.10359 ,2.18092 ,21.39922 
187 ,36.1713 ,1.10569 ,2.18092 ,21.39922 
188 ,36.3798 ,1.10770 ,2.15012 ,21.09702 
189 ,36.5879 ,1.10990 ,2.13644 ,20.96270 
190 ,36.7800 ,1.11182 ,2.10564 ,20.66050 
191 ,36.9880 ,1.11389 ,2.09879 ,20.59334 
192 ,37.1800 ,1.11580 ,2.08510 ,20.45903 
193 ,37.3561 ,1.11760 ,2.06799 ,20.29114 
194 ,37.5642 ,1.11967 ,2.05430 ,20.15682 
195 ,37.7562 ,1.12157 ,2.02693 ,19.88820 
196 ,37.9484 ,1.12345 ,2.03377 ,19.95535 
197 ,38.1405 ,1.12541 ,1.99270 ,19.55241 
198 ,38.3482 ,1.12751 ,1.99955 ,19.61957 
199 ,38.5405 ,1.12942 ,1.96875 ,19.31737 
200 ,38.7487 ,1.13144 ,1.97217 ,19.35094 
201 ,38.9405 ,1.13341 ,1.93111 ,18.94801 
202 ,39.1328 ,1.13544 ,1.93453 ,18.98158 
203 ,39.3090 ,1.13716 ,1.93453 ,18.98158 
204 ,39.5007 ,1.13907 ,1.91057 ,18.74654 
205 ,39.6933 ,1.14093 ,1.89688 ,18.61222 
206 ,39.9012 ,1.14303 ,1.86608 ,18.31002 
207 ,40.0934 ,1.14492 ,1.87635 ,18.41075 
208 ,40.3015 ,1.14695 ,1.83186 ,17.97423 
209 ,40.4937 ,1.14893 ,1.85240 ,18.17570 
210 ,40.6852 ,1.15089 ,1.81817 ,17.83992 
211 ,40.8616 ,1.15266 ,1.79422 ,17.60487 
212 ,41.0378 ,1.15438 ,1.78053 ,17.47056 
213 ,41.2618 ,1.15647 ,1.77711 ,17.43698 
214 ,41.4534 ,1.15855 ,1.76684 ,17.33625 
215 ,41.6615 ,1.16068 ,1.73604 ,17.03404 
216 ,41.8541 ,1.16252 ,1.73604 ,17.03404 
217 ,42.0459 ,1.16444 ,1.71893 ,16.86615 
218 ,42.2222 ,1.16625 ,1.69498 ,16.63110 
219 ,42.4142 ,1.16810 ,1.69498 ,16.63110 
220 ,42.6064 ,1.17016 ,1.66418 ,16.32890 
221 ,42.7983 ,1.17198 ,1.65733 ,16.26174 
222 ,42.9746 ,1.17378 ,1.66075 ,16.29532 
223 ,43.1988 ,1.17585 ,1.61969 ,15.89238 
224 ,43.4065 ,1.17795 ,1.63680 ,16.06027 
225 ,43.5988 ,1.17998 ,1.59573 ,15.65733 
226 ,43.7905 ,1.18196 ,1.60942 ,15.79164 
227 ,43.9829 ,1.18381 ,1.57862 ,15.48944 
228 ,44.1910 ,1.18593 ,1.56836 ,15.38871 
229 ,44.3988 ,1.18797 ,1.54782 ,15.18724 
230 ,44.5914 ,1.18986 ,1.54440 ,15.15366 
231 ,44.7993 ,1.19193 ,1.51018 ,14.81787 
232 ,44.9914 ,1.19391 ,1.52387 ,14.95219 
233 ,45.1994 ,1.19595 ,1.50676 ,14.78430 
234 ,45.3753 ,1.19780 ,1.46227 ,14.34778 
235 ,45.5674 ,1.19973 ,1.47253 ,14.44851 
236 ,45.7597 ,1.20158 ,1.43147 ,14.04557 
237 ,45.9356 ,1.20337 ,1.43831 ,14.11273 
238 ,46.1279 ,1.20530 ,1.43831 ,14.11273 
239 ,46.3357 ,1.20726 ,1.42805 ,14.01199 
240 ,46.5120 ,1.20912 ,1.40409 ,13.77695 
241 ,46.6880 ,1.21092 ,1.40751 ,13.81053 
242 ,46.8801 ,1.21283 ,1.37329 ,13.47474 
243 ,47.0558 ,1.21457 ,1.35960 ,13.34043 
244 ,47.2484 ,1.21651 ,1.37329 ,13.47474 
245 ,47.4558 ,1.21849 ,1.33907 ,13.13896 
246 ,47.6485 ,1.22050 ,1.33565 ,13.10538 
247 ,47.8405 ,1.22239 ,1.29800 ,12.73602 
248 ,48.0327 ,1.22439 ,1.30485 ,12.80318 
249 ,48.1923 ,1.22604 ,1.29800 ,12.73602 
250 ,48.3689 ,1.22771 ,1.28774 ,12.63528 
251 ,48.5770 ,1.22974 ,1.25694 ,12.33308 
252 ,48.7851 ,1.23175 ,1.26720 ,12.43381 
253 ,48.9770 ,1.23372 ,1.24325 ,12.19877 
254 ,49.1852 ,1.23579 ,1.21587 ,11.93014 
255 ,49.3773 ,1.23777 ,1.20903 ,11.86298 
256 ,49.5852 ,1.23977 ,1.19534 ,11.72867 
257 ,49.7772 ,1.24176 ,1.17138 ,11.49362 
258 ,49.9534 ,1.24360 ,1.18165 ,11.59436 
259 ,50.1456 ,1.24538 ,1.15427 ,11.32573 
260 ,50.3372 ,1.24733 ,1.14058 ,11.19142 
261 ,50.5454 ,1.24933 ,1.14743 ,11.25857 
262 ,50.7377 ,1.25130 ,1.10294 ,10.82206 
263 ,50.9298 ,1.25328 ,1.11321 ,10.92279 
264 ,51.1219 ,1.25516 ,1.08241 ,10.62059 
265 ,51.2982 ,1.25697 ,1.06187 ,10.41912 
266 ,51.4902 ,1.25892 ,1.07899 ,10.58701 
267 ,51.6981 ,1.26090 ,1.05161 ,10.31838 
268 ,51.8904 ,1.26278 ,1.04819 ,10.28480 
269 ,52.0819 ,1.26487 ,1.01739 ,9.98260 
270 ,52.2739 ,1.26667 ,1.01054 ,9.91544 
271 ,52.4500 ,1.26857 ,1.01054 ,9.91544 
272 ,52.6587 ,1.27045 ,1.00370 ,9.84829 
273 ,52.9146 ,1.27303 ,0.97632 ,9.57966 
274 ,53.1068 ,1.27497 ,0.96605 ,9.47892 
275 ,53.2987 ,1.27686 ,0.94552 ,9.27745 
276 ,53.4744 ,1.27880 ,0.94552 ,9.27745 
277 ,53.6827 ,1.28074 ,0.91472 ,8.97525 
278 ,53.8751 ,1.28271 ,0.90788 ,8.90809 
279 ,54.0510 ,1.28456 ,0.90103 ,8.84094 
280 ,54.2272 ,1.28623 ,0.89761 ,8.80736 
281 ,54.4352 ,1.28826 ,0.86681 ,8.50515 
282 ,54.6431 ,1.29032 ,0.85654 ,8.40442 
283 ,54.8353 ,1.29233 ,0.84286 ,8.27011 
284 ,55.0436 ,1.29432 ,0.83943 ,8.23653 
285 ,55.2356 ,1.29629 ,0.82575 ,8.10221 
286 ,55.4113 ,1.29817 ,0.82917 ,8.13579 
287 ,55.6034 ,1.29994 ,0.80179 ,7.86717 
288 ,55.7955 ,1.30186 ,0.79152 ,7.76643 
289 ,56.0036 ,1.30384 ,0.80179 ,7.86717 
290 ,56.1959 ,1.30591 ,0.76757 ,7.53138 
291 ,56.3880 ,1.30784 ,0.77784 ,7.63212 
292 ,56.8519 ,1.31116 ,0.73677 ,7.22918 
293 ,57.0444 ,1.31435 ,0.72992 ,7.16202 
294 ,57.2363 ,1.31628 ,0.69570 ,6.82624 
295 ,57.4444 ,1.31834 ,0.69913 ,6.85982 
296 ,57.6366 ,1.32028 ,0.68201 ,6.69193 
297 ,57.8287 ,1.32219 ,0.68201 ,6.69193 
298 ,58.0048 ,1.32407 ,0.65806 ,6.45688 
299 ,58.1809 ,1.32578 ,0.64437 ,6.32256 
300 ,58.3890 ,1.32785 ,0.64779 ,6.35614 
301 ,58.5811 ,1.32976 ,0.62042 ,6.08752 
302 ,58.7892 ,1.33186 ,0.62042 ,6.08752 
303 ,58.9968 ,1.33387 ,0.58619 ,5.75173 
304 ,59.1894 ,1.33584 ,0.59988 ,5.88605 
305 ,59.3974 ,1.33785 ,0.56908 ,5.58384 
306 ,59.5895 ,1.33981 ,0.57935 ,5.68458 
307 ,59.7977 ,1.34184 ,0.53828 ,5.28164 
308 ,59.9896 ,1.34384 ,0.54171 ,5.31522 
309 ,60.1658 ,1.34566 ,0.52802 ,5.18090 
310 ,60.3419 ,1.34739 ,0.51775 ,5.08017 
311 ,60.5340 ,1.34923 ,0.51091 ,5.01301 
312 ,60.7256 ,1.35113 ,0.50064 ,4.91228 
313 ,60.9020 ,1.35298 ,0.49037 ,4.81154 
314 ,61.0781 ,1.35470 ,0.48353 ,4.74438 
315 ,61.2861 ,1.35677 ,0.47326 ,4.64365 
316 ,61.4943 ,1.35886 ,0.43904 ,4.30787 
317 ,61.6864 ,1.36076 ,0.44931 ,4.40860 
318 ,61.8785 ,1.36267 ,0.43562 ,4.27429 
319 ,62.0706 ,1.36461 ,0.42877 ,4.20713 
320 ,62.2622 ,1.36658 ,0.40482 ,3.97208 
321 ,62.4547 ,1.36848 ,0.40140 ,3.93850 
322 ,62.6468 ,1.37041 ,0.38771 ,3.80419 
323 ,62.8388 ,1.37226 ,0.38086 ,3.73703 
324 ,63.0310 ,1.37420 ,0.37060 ,3.63630 
325 ,63.2391 ,1.37630 ,0.36718 ,3.60272 
326 ,63.4311 ,1.37816 ,0.33980 ,3.33410 
327 ,63.6230 ,1.38015 ,0.34664 ,3.40125 
328 ,63.8312 ,1.38219 ,0.31584 ,3.09905 
329 ,64.0233 ,1.38417 ,0.33295 ,3.26694 
330 ,64.2153 ,1.38605 ,0.28504 ,2.79684 
331 ,64.4231 ,1.38813 ,0.30558 ,2.99831 
332 ,64.6155 ,1.39010 ,0.26793 ,2.62895 
333 ,64.8235 ,1.39214 ,0.27478 ,2.69611 
334 ,65.0155 ,1.39402 ,0.25082 ,2.46106 
335 ,65.2076 ,1.39593 ,0.25424 ,2.49464 
336 ,65.3839 ,1.39780 ,0.23713 ,2.32675 
337 ,65.5920 ,1.39984 ,0.20976 ,2.05812 
338 ,65.7840 ,1.40183 ,0.23029 ,2.25959 
339 ,65.9759 ,1.40361 ,0.19949 ,1.95738 
340 ,66.1522 ,1.40546 ,0.18580 ,1.82307 
341 ,66.3603 ,1.40752 ,0.18922 ,1.85665 
342 ,66.5523 ,1.40944 ,0.16185 ,1.58802 
343 ,66.7605 ,1.41151 ,0.16527 ,1.62160 
344 ,66.9686 ,1.41357 ,0.14816 ,1.45371 
345 ,67.1763 ,1.41553 ,0.15500 ,1.52087 
346 ,67.3528 ,1.41747 ,0.13105 ,1.28582 
347 ,67.5446 ,1.41932 ,0.12762 ,1.25224 
348 ,67.7365 ,1.42122 ,0.10709 ,1.05077 
349 ,67.9288 ,1.42314 ,0.09340 ,0.91646 
350 ,68.1047 ,1.42505 ,0.08656 ,0.84930 
351 ,68.2971 ,1.42682 ,0.06945 ,0.68141 
352 ,68.5052 ,1.42889 ,0.05918 ,0.58067 
353 ,68.6973 ,1.43087 ,0.05234 ,0.51352 
354 ,68.8894 ,1.43279 ,0.03865 ,0.37920 
355 ,69.0975 ,1.43483 ,0.03522 ,0.34563 
356 ,69.2896 ,1.43676 ,0.03180 ,0.31205 
357 ,69.4816 ,1.43870 ,0.02154 ,0.21131 
358 ,69.6736 ,1.44063 ,-0.00242 ,-0.02373 
359 ,69.8653 ,1.44248 ,0.00100 ,0.00984 
360 ,70.0578 ,1.44450 ,-0.02295 ,-0.22520 
361 ,70.2498 ,1.44641 ,-0.04348 ,-0.42667 
362 ,70.4420 ,1.44832 ,-0.02980 ,-0.29236 
363 ,70.6338 ,1.45024 ,-0.05033 ,-0.49383 
364 ,70.8261 ,1.45216 ,-0.06402 ,-0.62814 
365 ,71.0024 ,1.45403 ,-0.06060 ,-0.59457 
366 ,71.1784 ,1.45566 ,-0.07086 ,-0.69530 
367 ,71.3704 ,1.45757 ,-0.08797 ,-0.86319 
368 ,71.5945 ,1.45979 ,-0.11193 ,-1.09824 
369 ,71.7705 ,1.46168 ,-0.10508 ,-1.03108 
370 ,71.9464 ,1.46334 ,-0.11877 ,-1.16540 
371 ,72.1227 ,1.46527 ,-0.10851 ,-1.06466 
372 ,72.3148 ,1.46700 ,-0.13588 ,-1.33329 
373 ,72.5069 ,1.46892 ,-0.13588 ,-1.33329 
374 ,72.6992 ,1.47095 ,-0.15642 ,-1.53476 
375 ,72.8910 ,1.47277 ,-0.15984 ,-1.56834 
376 ,73.0669 ,1.47458 ,-0.18722 ,-1.83696 
377 ,73.2592 ,1.47653 ,-0.17695 ,-1.73623 
378 ,73.4514 ,1.47844 ,-0.21117 ,-2.07201 
379 ,73.6432 ,1.48024 ,-0.19406 ,-1.90412 
380 ,73.8352 ,1.48222 ,-0.21459 ,-2.10559 
381 ,74.0276 ,1.48411 ,-0.21802 ,-2.13917 
382 ,74.2192 ,1.48605 ,-0.22828 ,-2.23990 
383 ,74.4115 ,1.48798 ,-0.25566 ,-2.50853 
384 ,74.6198 ,1.49004 ,-0.23170 ,-2.27348 
385 ,74.8279 ,1.49211 ,-0.26250 ,-2.57569 
386 ,75.0200 ,1.49410 ,-0.26593 ,-2.60926 
387 ,75.2280 ,1.49609 ,-0.27961 ,-2.74358 
388 ,75.4199 ,1.49809 ,-0.28304 ,-2.77716 
389 ,75.6281 ,1.50010 ,-0.30357 ,-2.97863 
390 ,75.8044 ,1.50194 ,-0.30357 ,-2.97863 
391 ,75.9962 ,1.50378 ,-0.32068 ,-3.14652 
392 ,76.1723 ,1.50561 ,-0.33779 ,-3.31441 
393 ,76.3482 ,1.50742 ,-0.34121 ,-3.34799 
394 ,76.5406 ,1.50928 ,-0.33437 ,-3.28083 
395 ,76.7485 ,1.51130 ,-0.35832 ,-3.51588 
396 ,76.9408 ,1.51318 ,-0.35832 ,-3.51588 
397 ,77.1327 ,1.51517 ,-0.38912 ,-3.81808 
398 ,77.3249 ,1.51708 ,-0.37886 ,-3.71735 
399 ,77.5169 ,1.51904 ,-0.38912 ,-3.81808 
400 ,77.7090 ,1.52086 ,-0.40281 ,-3.95240 
401 ,77.9171 ,1.52290 ,-0.39939 ,-3.91882 
402 ,78.0933 ,1.52482 ,-0.44046 ,-4.32176 
403 ,78.2854 ,1.52679 ,-0.43019 ,-4.22102 
404 ,78.4774 ,1.52858 ,-0.43703 ,-4.28818 
405 ,78.7016 ,1.53075 ,-0.45414 ,-4.45607 
406 ,78.9097 ,1.53293 ,-0.45757 ,-4.48965 
407 ,79.1017 ,1.53485 ,-0.46441 ,-4.55681 
408 ,79.2778 ,1.53663 ,-0.47126 ,-4.62396 
409 ,79.4696 ,1.53857 ,-0.50206 ,-4.92617 
410 ,79.6776 ,1.54062 ,-0.48494 ,-4.75828 
411 ,79.8700 ,1.54249 ,-0.51574 ,-5.06048 
412 ,80.0620 ,1.54450 ,-0.50548 ,-4.95975 
413 ,80.2543 ,1.54635 ,-0.53285 ,-5.22837 
414 ,80.4462 ,1.54827 ,-0.54654 ,-5.36268 
415 ,80.6383 ,1.55017 ,-0.53970 ,-5.29553 
416 ,80.8463 ,1.55231 ,-0.57392 ,-5.63131 
417 ,81.0384 ,1.55425 ,-0.55339 ,-5.42984 
418 ,81.2306 ,1.55610 ,-0.58077 ,-5.69847 
419 ,81.4226 ,1.55808 ,-0.58761 ,-5.76562 
420 ,81.6147 ,1.55999 ,-0.58077 ,-5.69847 
421 ,81.8223 ,1.56199 ,-0.59103 ,-5.79920 
422 ,82.0147 ,1.56397 ,-0.61499 ,-6.03425 
423 ,82.2228 ,1.56603 ,-0.61156 ,-6.00067 
424 ,82.4150 ,1.56801 ,-0.63894 ,-6.26930 
425 ,82.6228 ,1.57004 ,-0.63894 ,-6.26930 
426 ,82.8151 ,1.57196 ,-0.64921 ,-6.37003 
427 ,83.0068 ,1.57388 ,-0.65605 ,-6.43719 
428 ,83.1993 ,1.57589 ,-0.66632 ,-6.53793 
429 ,83.3751 ,1.57766 ,-0.68685 ,-6.73940 
430 ,83.5672 ,1.57950 ,-0.68343 ,-6.70582 
431 ,83.7595 ,1.58135 ,-0.68343 ,-6.70582 
432 ,83.9510 ,1.58336 ,-0.70054 ,-6.87371 
433 ,84.1594 ,1.58535 ,-0.72450 ,-7.10876 
434 ,84.3677 ,1.58747 ,-0.73818 ,-7.24307 
435 ,84.5596 ,1.58938 ,-0.71765 ,-7.04160 
436 ,84.7519 ,1.59135 ,-0.73818 ,-7.24307 
437 ,84.9436 ,1.59324 ,-0.75187 ,-7.37738 
438 ,85.1201 ,1.59506 ,-0.75187 ,-7.37738 
439 ,85.3280 ,1.59706 ,-0.77925 ,-7.64601 
440 ,85.5363 ,1.59914 ,-0.76556 ,-7.51170 
441 ,85.7282 ,1.60107 ,-0.78952 ,-7.74674 
442 ,85.9045 ,1.60290 ,-0.79636 ,-7.81390 
443 ,86.0971 ,1.60480 ,-0.79978 ,-7.84748 
444 ,86.3206 ,1.60691 ,-0.79978 ,-7.84748 
445 ,86.5284 ,1.60908 ,-0.83401 ,-8.18326 
446 ,86.7046 ,1.61089 ,-0.82716 ,-8.11611 
447 ,86.8969 ,1.61273 ,-0.82374 ,-8.08253 
448 ,87.0889 ,1.61464 ,-0.85454 ,-8.38473 
449 ,87.2809 ,1.61662 ,-0.86138 ,-8.45189 
450 ,87.4568 ,1.61843 ,-0.86138 ,-8.45189 
451 ,87.6488 ,1.62031 ,-0.86823 ,-8.51904 
452 ,87.8250 ,1.62210 ,-0.88192 ,-8.65336 
453 ,88.0333 ,1.62413 ,-0.87507 ,-8.58620 
454 ,88.2252 ,1.62608 ,-0.90929 ,-8.92198 
455 ,88.4336 ,1.62816 ,-0.89903 ,-8.82125 
456 ,88.6252 ,1.63009 ,-0.91956 ,-9.02272 
457 ,88.8175 ,1.63192 ,-0.90587 ,-8.88841 
458 ,88.9938 ,1.63379 ,-0.91956 ,-9.02272 
459 ,89.2019 ,1.63574 ,-0.93667 ,-9.19061 
460 ,89.3935 ,1.63768 ,-0.95036 ,-9.32492 
461 ,89.6018 ,1.63972 ,-0.95378 ,-9.35850 
462 ,89.7940 ,1.64176 ,-0.95378 ,-9.35850 
463 ,89.9860 ,1.64364 ,-0.98458 ,-9.66071 
