Data stamp = , 28-04-2022 14:51:03 482

Calibration Values: 
Slope = , 26.54 , g/V 
Offset Voltage at no contact = , -0.501760 , V 

No , Time , Stage Position ,   Mass , Force 
   ,  (s) ,      (mm)      ,   (g)  , (mN)  

1 ,0.0000 ,0.74942 ,5.30194 ,52.02263 
2 ,0.2385 ,0.74949 ,5.28483 ,51.85474 
3 ,0.7669 ,0.75173 ,5.29167 ,51.92190 
4 ,0.9752 ,0.75389 ,5.27456 ,51.75401 
5 ,1.1671 ,0.75573 ,5.29852 ,51.98905 
6 ,1.3593 ,0.75761 ,5.27798 ,51.78758 
7 ,1.5511 ,0.75959 ,5.29852 ,51.98905 
8 ,1.7275 ,0.76141 ,5.27456 ,51.75401 
9 ,1.9031 ,0.76319 ,5.25061 ,51.51896 
10 ,2.0957 ,0.76509 ,5.22323 ,51.25033 
11 ,2.2877 ,0.76705 ,5.23007 ,51.31749 
12 ,2.4954 ,0.76905 ,5.18901 ,50.91455 
13 ,2.6877 ,0.77096 ,5.17874 ,50.81381 
14 ,2.8802 ,0.77297 ,5.15136 ,50.54519 
15 ,3.0719 ,0.77492 ,5.13768 ,50.41087 
16 ,3.2482 ,0.77663 ,5.13768 ,50.41087 
17 ,3.4403 ,0.77850 ,5.10345 ,50.07509 
18 ,3.6323 ,0.78049 ,5.08292 ,49.87362 
19 ,3.8243 ,0.78236 ,5.06923 ,49.73931 
20 ,4.0166 ,0.78428 ,5.03501 ,49.40352 
21 ,4.2245 ,0.78625 ,5.04185 ,49.47068 
22 ,4.4327 ,0.78842 ,5.01448 ,49.20205 
23 ,4.6246 ,0.79032 ,4.98710 ,48.93343 
24 ,4.8169 ,0.79233 ,4.94946 ,48.56407 
25 ,5.0087 ,0.79419 ,4.95972 ,48.66480 
26 ,5.2169 ,0.79622 ,4.92208 ,48.29544 
27 ,5.4088 ,0.79814 ,4.91866 ,48.26186 
28 ,5.5849 ,0.80008 ,4.87759 ,47.85892 
29 ,5.7773 ,0.80182 ,4.87417 ,47.82534 
30 ,5.9850 ,0.80400 ,4.86732 ,47.75819 
31 ,6.2090 ,0.80601 ,4.83310 ,47.42240 
32 ,6.4016 ,0.80817 ,4.81257 ,47.22093 
33 ,6.6096 ,0.81020 ,4.80915 ,47.18736 
34 ,6.8015 ,0.81212 ,4.76808 ,46.78442 
35 ,6.9937 ,0.81397 ,4.77150 ,46.81800 
36 ,7.1856 ,0.81600 ,4.74070 ,46.51579 
37 ,7.3939 ,0.81798 ,4.71675 ,46.28074 
38 ,7.6019 ,0.82004 ,4.69279 ,46.04569 
39 ,7.7777 ,0.82194 ,4.68253 ,45.94496 
40 ,7.9699 ,0.82383 ,4.67568 ,45.87780 
41 ,8.1622 ,0.82568 ,4.64146 ,45.54202 
42 ,8.3543 ,0.82763 ,4.61408 ,45.27339 
43 ,8.5464 ,0.82955 ,4.61751 ,45.30697 
44 ,8.7544 ,0.83165 ,4.58328 ,44.97119 
45 ,8.9462 ,0.83352 ,4.56960 ,44.83688 
46 ,9.1225 ,0.83543 ,4.53537 ,44.50109 
47 ,9.3147 ,0.83723 ,4.54222 ,44.56825 
48 ,9.5223 ,0.83935 ,4.52169 ,44.36678 
49 ,9.7142 ,0.84124 ,4.48746 ,44.03100 
50 ,9.9068 ,0.84311 ,4.47378 ,43.89668 
51 ,10.0986 ,0.84502 ,4.45324 ,43.69521 
52 ,10.2908 ,0.84697 ,4.44982 ,43.66163 
53 ,10.4831 ,0.84891 ,4.43271 ,43.49374 
54 ,10.6912 ,0.85098 ,4.40533 ,43.22512 
55 ,10.8993 ,0.85306 ,4.38138 ,42.99007 
56 ,11.0914 ,0.85496 ,4.37795 ,42.95649 
57 ,11.2994 ,0.85706 ,4.35058 ,42.68786 
58 ,11.4915 ,0.85895 ,4.34716 ,42.65429 
59 ,11.6832 ,0.86089 ,4.32662 ,42.45282 
60 ,11.8756 ,0.86281 ,4.28556 ,42.04988 
61 ,12.0837 ,0.86475 ,4.29924 ,42.18419 
62 ,12.2758 ,0.86685 ,4.25133 ,41.71409 
63 ,12.4679 ,0.86872 ,4.25818 ,41.78125 
64 ,12.6761 ,0.87088 ,4.22053 ,41.41189 
65 ,12.8675 ,0.87280 ,4.21369 ,41.34473 
66 ,13.0596 ,0.87469 ,4.19658 ,41.17684 
67 ,13.2518 ,0.87660 ,4.16578 ,40.87464 
68 ,13.4600 ,0.87860 ,4.16578 ,40.87464 
69 ,13.6684 ,0.88079 ,4.13840 ,40.60601 
70 ,13.8605 ,0.88265 ,4.11445 ,40.37096 
71 ,14.0684 ,0.88475 ,4.09734 ,40.20307 
72 ,14.2607 ,0.88663 ,4.08707 ,40.10233 
73 ,14.4528 ,0.88866 ,4.05969 ,39.83371 
74 ,14.6609 ,0.89063 ,4.05969 ,39.83371 
75 ,14.8525 ,0.89262 ,4.01520 ,39.39719 
76 ,15.0448 ,0.89455 ,4.01178 ,39.36361 
77 ,15.2691 ,0.89676 ,3.99125 ,39.16214 
78 ,15.4612 ,0.89866 ,3.98098 ,39.06141 
79 ,15.6533 ,0.90061 ,3.94676 ,38.72562 
80 ,15.8453 ,0.90253 ,3.94334 ,38.69205 
81 ,16.0373 ,0.90450 ,3.91938 ,38.45700 
82 ,16.2291 ,0.90632 ,3.91254 ,38.38984 
83 ,16.4215 ,0.90829 ,3.88858 ,38.15479 
84 ,16.6296 ,0.91035 ,3.87490 ,38.02048 
85 ,16.8058 ,0.91214 ,3.85779 ,37.85259 
86 ,17.0133 ,0.91422 ,3.82014 ,37.48323 
87 ,17.2059 ,0.91612 ,3.82014 ,37.48323 
88 ,17.4139 ,0.91816 ,3.77908 ,37.08029 
89 ,17.5899 ,0.91995 ,3.76881 ,36.97955 
90 ,17.7823 ,0.92195 ,3.77908 ,37.08029 
91 ,17.9901 ,0.92386 ,3.73801 ,36.67735 
92 ,18.1983 ,0.92593 ,3.73459 ,36.64377 
93 ,18.4064 ,0.92807 ,3.71063 ,36.40872 
94 ,18.5985 ,0.93002 ,3.69352 ,36.24083 
95 ,18.7745 ,0.93193 ,3.66614 ,35.97220 
96 ,18.9666 ,0.93370 ,3.67299 ,36.03936 
97 ,19.1585 ,0.93559 ,3.64903 ,35.80431 
98 ,19.3508 ,0.93762 ,3.62166 ,35.53569 
99 ,19.5589 ,0.93966 ,3.61139 ,35.43495 
100 ,19.7669 ,0.94167 ,3.59428 ,35.26706 
101 ,19.9590 ,0.94361 ,3.56348 ,34.96485 
102 ,20.1511 ,0.94556 ,3.54637 ,34.79696 
103 ,20.3431 ,0.94747 ,3.54637 ,34.79696 
104 ,20.5353 ,0.94936 ,3.50188 ,34.36045 
105 ,20.7433 ,0.95148 ,3.51557 ,34.49476 
106 ,20.9353 ,0.95334 ,3.48477 ,34.19255 
107 ,21.1273 ,0.95531 ,3.46766 ,34.02466 
108 ,21.3193 ,0.95724 ,3.46424 ,33.99108 
109 ,21.4956 ,0.95916 ,3.43344 ,33.68888 
110 ,21.6871 ,0.96092 ,3.40948 ,33.45383 
111 ,21.8632 ,0.96283 ,3.40948 ,33.45383 
112 ,22.0552 ,0.96458 ,3.38553 ,33.21878 
113 ,22.2473 ,0.96651 ,3.36499 ,33.01731 
114 ,22.4234 ,0.96841 ,3.37184 ,33.08447 
115 ,22.6154 ,0.97027 ,3.33419 ,32.71511 
116 ,22.8075 ,0.97212 ,3.31708 ,32.54722 
117 ,23.0001 ,0.97410 ,3.31366 ,32.51364 
118 ,23.2402 ,0.97636 ,3.29313 ,32.31217 
119 ,23.4162 ,0.97822 ,3.27602 ,32.14428 
120 ,23.6081 ,0.98015 ,3.23837 ,31.77492 
121 ,23.8003 ,0.98201 ,3.24522 ,31.84207 
122 ,24.0084 ,0.98408 ,3.21784 ,31.57345 
123 ,24.2162 ,0.98607 ,3.21442 ,31.53987 
124 ,24.3924 ,0.98799 ,3.18020 ,31.20409 
125 ,24.5849 ,0.98986 ,3.18704 ,31.27124 
126 ,24.7768 ,0.99178 ,3.14597 ,30.86830 
127 ,24.9691 ,0.99372 ,3.12202 ,30.63325 
128 ,25.1611 ,0.99563 ,3.12886 ,30.70041 
129 ,25.3690 ,0.99770 ,3.09806 ,30.39821 
130 ,25.5612 ,0.99961 ,3.09464 ,30.36463 
131 ,25.7529 ,1.00153 ,3.05700 ,29.99527 
132 ,25.9454 ,1.00350 ,3.05700 ,29.99527 
133 ,26.1536 ,1.00555 ,3.01251 ,29.55875 
134 ,26.3452 ,1.00749 ,3.01593 ,29.59233 
135 ,26.5215 ,1.00928 ,3.00567 ,29.49159 
136 ,26.7136 ,1.01114 ,2.98171 ,29.25654 
137 ,26.9054 ,1.01303 ,2.97487 ,29.18939 
138 ,27.0818 ,1.01494 ,2.95091 ,28.95434 
139 ,27.2739 ,1.01669 ,2.95091 ,28.95434 
140 ,27.4499 ,1.01864 ,2.92353 ,28.68571 
141 ,27.6420 ,1.02039 ,2.90985 ,28.55140 
142 ,27.8341 ,1.02236 ,2.88931 ,28.34993 
143 ,28.0423 ,1.02450 ,2.87220 ,28.18204 
144 ,28.2501 ,1.02651 ,2.83798 ,27.84625 
145 ,28.4423 ,1.02844 ,2.83114 ,27.77910 
146 ,28.6184 ,1.03030 ,2.80376 ,27.51047 
147 ,28.7943 ,1.03204 ,2.80034 ,27.47689 
148 ,28.9867 ,1.03392 ,2.77638 ,27.24185 
149 ,29.1787 ,1.03578 ,2.77980 ,27.27542 
150 ,29.3706 ,1.03771 ,2.74558 ,26.93964 
151 ,29.5629 ,1.03960 ,2.74900 ,26.97322 
152 ,29.7551 ,1.04157 ,2.71136 ,26.60386 
153 ,29.9471 ,1.04346 ,2.70109 ,26.50312 
154 ,30.1228 ,1.04536 ,2.68740 ,26.36881 
155 ,30.3152 ,1.04717 ,2.68056 ,26.30165 
156 ,30.5234 ,1.04927 ,2.67029 ,26.20092 
157 ,30.7153 ,1.05125 ,2.62238 ,25.73082 
158 ,30.9074 ,1.05306 ,2.61896 ,25.69724 
159 ,31.0994 ,1.05499 ,2.60527 ,25.56293 
160 ,31.2755 ,1.05692 ,2.57447 ,25.26073 
161 ,31.4677 ,1.05864 ,2.56421 ,25.15999 
162 ,31.6759 ,1.06068 ,2.56421 ,25.15999 
163 ,31.8679 ,1.06269 ,2.52998 ,24.82421 
164 ,32.0599 ,1.06460 ,2.53683 ,24.89136 
165 ,32.2361 ,1.06642 ,2.50945 ,24.62274 
166 ,32.4440 ,1.06846 ,2.49234 ,24.45485 
167 ,32.6522 ,1.07056 ,2.45812 ,24.11906 
168 ,32.8441 ,1.07243 ,2.45812 ,24.11906 
169 ,33.0363 ,1.07434 ,2.44101 ,23.95117 
170 ,33.2283 ,1.07627 ,2.42390 ,23.78328 
171 ,33.4040 ,1.07814 ,2.41705 ,23.71612 
172 ,33.5965 ,1.08001 ,2.39994 ,23.54823 
173 ,33.7882 ,1.08187 ,2.37599 ,23.31318 
174 ,33.9807 ,1.08378 ,2.36914 ,23.24603 
175 ,34.1728 ,1.08570 ,2.34519 ,23.01098 
176 ,34.3808 ,1.08779 ,2.33834 ,22.94382 
177 ,34.5568 ,1.08965 ,2.30070 ,22.57446 
178 ,34.7488 ,1.09146 ,2.29385 ,22.50731 
179 ,34.9408 ,1.09337 ,2.29385 ,22.50731 
180 ,35.1328 ,1.09530 ,2.25963 ,22.17152 
181 ,35.3251 ,1.09732 ,2.26306 ,22.20510 
182 ,35.5009 ,1.09903 ,2.25279 ,22.10437 
183 ,35.7093 ,1.10101 ,2.21515 ,21.73500 
184 ,35.9173 ,1.10314 ,2.19803 ,21.56711 
185 ,36.0930 ,1.10502 ,2.18435 ,21.43280 
186 ,36.2856 ,1.10680 ,2.18777 ,21.46638 
187 ,36.4776 ,1.10878 ,2.17408 ,21.33206 
188 ,36.6694 ,1.11069 ,2.14328 ,21.02986 
189 ,36.8618 ,1.11257 ,2.13644 ,20.96270 
190 ,37.0537 ,1.11452 ,2.09879 ,20.59334 
191 ,37.2619 ,1.11658 ,2.10564 ,20.66050 
192 ,37.4699 ,1.11856 ,2.07484 ,20.35829 
193 ,37.6942 ,1.12079 ,2.06115 ,20.22398 
194 ,37.8863 ,1.12289 ,2.04404 ,20.05609 
195 ,38.0944 ,1.12491 ,2.02350 ,19.85462 
196 ,38.2858 ,1.12692 ,2.03377 ,19.95535 
197 ,38.4786 ,1.12875 ,1.99613 ,19.58599 
198 ,38.6865 ,1.13079 ,1.98928 ,19.51884 
199 ,38.8781 ,1.13275 ,1.97559 ,19.38452 
200 ,39.0706 ,1.13465 ,1.95506 ,19.18305 
201 ,39.2788 ,1.13676 ,1.95506 ,19.18305 
202 ,39.4709 ,1.13863 ,1.92768 ,18.91443 
203 ,39.6788 ,1.14074 ,1.92426 ,18.88085 
204 ,39.8711 ,1.14268 ,1.89346 ,18.57864 
205 ,40.1111 ,1.14509 ,1.87635 ,18.41075 
206 ,40.3194 ,1.14713 ,1.86951 ,18.34360 
207 ,40.5110 ,1.14909 ,1.85240 ,18.17570 
208 ,40.7034 ,1.15097 ,1.84897 ,18.14213 
209 ,40.8953 ,1.15294 ,1.82844 ,17.94066 
210 ,41.1036 ,1.15494 ,1.82844 ,17.94066 
211 ,41.3113 ,1.15710 ,1.78737 ,17.53772 
212 ,41.4878 ,1.15890 ,1.78395 ,17.50414 
213 ,41.6796 ,1.16075 ,1.78053 ,17.47056 
214 ,41.8559 ,1.16253 ,1.76000 ,17.26909 
215 ,42.0478 ,1.16443 ,1.74289 ,17.10120 
216 ,42.2400 ,1.16634 ,1.73604 ,17.03404 
217 ,42.4480 ,1.16844 ,1.70866 ,16.76542 
218 ,42.6401 ,1.17034 ,1.70182 ,16.69826 
219 ,42.8479 ,1.17247 ,1.68129 ,16.49679 
220 ,43.0242 ,1.17422 ,1.68129 ,16.49679 
221 ,43.2160 ,1.17607 ,1.65733 ,16.26174 
222 ,43.4085 ,1.17807 ,1.62995 ,15.99311 
223 ,43.6326 ,1.18023 ,1.64364 ,16.12743 
224 ,43.8246 ,1.18221 ,1.61627 ,15.85880 
225 ,44.0167 ,1.18412 ,1.60942 ,15.79164 
226 ,44.2247 ,1.18620 ,1.58547 ,15.55660 
227 ,44.4171 ,1.18808 ,1.56836 ,15.38871 
228 ,44.6251 ,1.19020 ,1.55467 ,15.25439 
229 ,44.8171 ,1.19214 ,1.56151 ,15.32155 
230 ,45.0090 ,1.19407 ,1.53071 ,15.01934 
231 ,45.2170 ,1.19607 ,1.51360 ,14.85145 
232 ,45.3929 ,1.19792 ,1.49307 ,14.64998 
233 ,45.5854 ,1.19982 ,1.48965 ,14.61640 
234 ,45.7934 ,1.20186 ,1.46569 ,14.38136 
235 ,45.9852 ,1.20387 ,1.46227 ,14.34778 
236 ,46.1777 ,1.20570 ,1.46227 ,14.34778 
237 ,46.3692 ,1.20770 ,1.42462 ,13.97842 
238 ,46.5456 ,1.20945 ,1.42462 ,13.97842 
239 ,46.7378 ,1.21127 ,1.41094 ,13.84410 
240 ,46.9459 ,1.21339 ,1.40067 ,13.74337 
241 ,47.1540 ,1.21551 ,1.38014 ,13.54190 
242 ,47.3460 ,1.21738 ,1.36645 ,13.40759 
243 ,47.5539 ,1.21951 ,1.35960 ,13.34043 
244 ,47.7462 ,1.22142 ,1.32880 ,13.03822 
245 ,47.9542 ,1.22353 ,1.32538 ,13.00465 
246 ,48.1463 ,1.22538 ,1.31512 ,12.90391 
247 ,48.3385 ,1.22726 ,1.30485 ,12.80318 
248 ,48.5465 ,1.22940 ,1.28432 ,12.60171 
249 ,48.7220 ,1.23127 ,1.27063 ,12.46739 
250 ,48.9145 ,1.23303 ,1.25009 ,12.26592 
251 ,49.1228 ,1.23512 ,1.25009 ,12.26592 
252 ,49.3148 ,1.23712 ,1.21929 ,11.96372 
253 ,49.5230 ,1.23908 ,1.22614 ,12.03088 
254 ,49.7149 ,1.24114 ,1.19876 ,11.76225 
255 ,49.9070 ,1.24311 ,1.19876 ,11.76225 
256 ,50.0992 ,1.24499 ,1.18165 ,11.59436 
257 ,50.2912 ,1.24684 ,1.15427 ,11.32573 
258 ,50.4835 ,1.24876 ,1.16112 ,11.39289 
259 ,50.6752 ,1.25070 ,1.13374 ,11.12426 
260 ,50.8670 ,1.25257 ,1.13032 ,11.09068 
261 ,51.0594 ,1.25450 ,1.12005 ,10.98995 
262 ,51.2514 ,1.25641 ,1.09610 ,10.75490 
263 ,51.4277 ,1.25824 ,1.09610 ,10.75490 
264 ,51.6196 ,1.26014 ,1.08925 ,10.68774 
265 ,51.8118 ,1.26198 ,1.07214 ,10.51985 
266 ,52.0195 ,1.26412 ,1.06530 ,10.45270 
267 ,52.2279 ,1.26615 ,1.05161 ,10.31838 
268 ,52.4041 ,1.26800 ,1.03108 ,10.11691 
269 ,52.6122 ,1.27001 ,1.00370 ,9.84829 
270 ,52.8042 ,1.27195 ,1.01054 ,9.91544 
271 ,52.9961 ,1.27382 ,0.97974 ,9.61324 
272 ,53.2044 ,1.27592 ,0.96263 ,9.44535 
273 ,53.4126 ,1.27799 ,0.95237 ,9.34461 
274 ,53.6045 ,1.27994 ,0.95237 ,9.34461 
275 ,53.8127 ,1.28201 ,0.91472 ,8.97525 
276 ,54.0047 ,1.28396 ,0.94210 ,9.24388 
277 ,54.2128 ,1.28590 ,0.91472 ,8.97525 
278 ,54.4206 ,1.28812 ,0.91130 ,8.94167 
279 ,54.6130 ,1.29001 ,0.87708 ,8.60589 
280 ,54.8049 ,1.29198 ,0.86681 ,8.50515 
281 ,55.0131 ,1.29405 ,0.85654 ,8.40442 
282 ,55.2049 ,1.29597 ,0.84628 ,8.30368 
283 ,55.3974 ,1.29788 ,0.84286 ,8.27011 
284 ,55.6055 ,1.29998 ,0.82917 ,8.13579 
285 ,55.8135 ,1.30209 ,0.80179 ,7.86717 
286 ,56.0054 ,1.30396 ,0.78126 ,7.66570 
287 ,56.1977 ,1.30593 ,0.79152 ,7.76643 
288 ,56.4054 ,1.30795 ,0.79152 ,7.76643 
289 ,56.5813 ,1.30980 ,0.77099 ,7.56496 
290 ,56.7575 ,1.31155 ,0.74361 ,7.29633 
291 ,56.9337 ,1.31335 ,0.73335 ,7.19560 
292 ,57.1096 ,1.31509 ,0.73335 ,7.19560 
293 ,57.3021 ,1.31687 ,0.72308 ,7.09486 
294 ,57.4941 ,1.31883 ,0.69913 ,6.85982 
295 ,57.7021 ,1.32088 ,0.70939 ,6.96055 
296 ,57.8942 ,1.32280 ,0.67859 ,6.65835 
297 ,58.1020 ,1.32486 ,0.67859 ,6.65835 
298 ,58.2945 ,1.32681 ,0.65121 ,6.38972 
299 ,58.4861 ,1.32875 ,0.63410 ,6.22183 
300 ,58.6784 ,1.33070 ,0.65121 ,6.38972 
301 ,58.9026 ,1.33285 ,0.61699 ,6.05394 
302 ,59.0948 ,1.33483 ,0.59646 ,5.85247 
303 ,59.2869 ,1.33680 ,0.58619 ,5.75173 
304 ,59.4949 ,1.33885 ,0.58962 ,5.78531 
305 ,59.6870 ,1.34073 ,0.56224 ,5.51668 
306 ,59.8789 ,1.34266 ,0.55539 ,5.44953 
307 ,60.0552 ,1.34449 ,0.54855 ,5.38237 
308 ,60.2472 ,1.34636 ,0.53828 ,5.28164 
309 ,60.4393 ,1.34827 ,0.52802 ,5.18090 
310 ,60.6313 ,1.35018 ,0.51091 ,5.01301 
311 ,60.8233 ,1.35215 ,0.50064 ,4.91228 
312 ,61.0312 ,1.35417 ,0.48353 ,4.74438 
313 ,61.2395 ,1.35624 ,0.49037 ,4.81154 
314 ,61.4157 ,1.35815 ,0.45957 ,4.50934 
315 ,61.6078 ,1.35997 ,0.44246 ,4.34144 
316 ,61.7995 ,1.36182 ,0.46642 ,4.57649 
317 ,61.9920 ,1.36384 ,0.42877 ,4.20713 
318 ,62.1836 ,1.36588 ,0.43220 ,4.24071 
319 ,62.3756 ,1.36765 ,0.42877 ,4.20713 
320 ,62.5678 ,1.36959 ,0.39113 ,3.83777 
321 ,62.7758 ,1.37166 ,0.40482 ,3.97208 
322 ,62.9678 ,1.37353 ,0.37402 ,3.66988 
323 ,63.1598 ,1.37551 ,0.37060 ,3.63630 
324 ,63.3523 ,1.37742 ,0.35691 ,3.50199 
325 ,63.5766 ,1.37962 ,0.35349 ,3.46841 
326 ,63.7684 ,1.38153 ,0.32611 ,3.19978 
327 ,63.9607 ,1.38344 ,0.33638 ,3.30052 
328 ,64.1528 ,1.38542 ,0.32611 ,3.19978 
329 ,64.3448 ,1.38733 ,0.29873 ,2.93116 
330 ,64.5370 ,1.38920 ,0.30215 ,2.96473 
331 ,64.7451 ,1.39130 ,0.27820 ,2.72969 
332 ,64.9368 ,1.39322 ,0.28162 ,2.76326 
333 ,65.1288 ,1.39513 ,0.25767 ,2.52822 
334 ,65.3213 ,1.39702 ,0.27135 ,2.66253 
335 ,65.5134 ,1.39896 ,0.23371 ,2.29317 
336 ,65.7054 ,1.40090 ,0.23371 ,2.29317 
337 ,65.8974 ,1.40280 ,0.21318 ,2.09170 
338 ,66.0896 ,1.40478 ,0.19949 ,1.95738 
339 ,66.2976 ,1.40682 ,0.20976 ,2.05812 
340 ,66.5059 ,1.40893 ,0.18922 ,1.85665 
341 ,66.7137 ,1.41099 ,0.18238 ,1.78949 
342 ,66.8895 ,1.41279 ,0.15842 ,1.55445 
343 ,67.0822 ,1.41466 ,0.16185 ,1.58802 
344 ,67.2737 ,1.41661 ,0.15158 ,1.48729 
345 ,67.4661 ,1.41851 ,0.13105 ,1.28582 
346 ,67.6741 ,1.42062 ,0.13105 ,1.28582 
347 ,67.8662 ,1.42249 ,0.11393 ,1.11793 
348 ,68.0424 ,1.42435 ,0.10709 ,1.05077 
349 ,68.2345 ,1.42620 ,0.10367 ,1.01719 
350 ,68.4424 ,1.42823 ,0.07971 ,0.78214 
351 ,68.6346 ,1.43017 ,0.06602 ,0.64783 
352 ,68.8267 ,1.43211 ,0.05234 ,0.51352 
353 ,69.0347 ,1.43416 ,0.04207 ,0.41278 
354 ,69.2268 ,1.43612 ,0.03522 ,0.34563 
355 ,69.4185 ,1.43805 ,0.03865 ,0.37920 
356 ,69.6110 ,1.44001 ,0.00443 ,0.04342 
357 ,69.8189 ,1.44208 ,0.01811 ,0.17773 
358 ,69.9951 ,1.44384 ,-0.00584 ,-0.05731 
359 ,70.1871 ,1.44571 ,-0.02295 ,-0.22520 
360 ,70.3793 ,1.44764 ,-0.01953 ,-0.19163 
361 ,70.5872 ,1.44969 ,-0.03664 ,-0.35952 
362 ,70.7634 ,1.45154 ,-0.02980 ,-0.29236 
363 ,70.9555 ,1.45337 ,-0.03664 ,-0.35952 
364 ,71.1476 ,1.45527 ,-0.07428 ,-0.72888 
365 ,71.3397 ,1.45729 ,-0.06060 ,-0.59457 
366 ,71.5318 ,1.45919 ,-0.08455 ,-0.82961 
367 ,71.7239 ,1.46108 ,-0.10508 ,-1.03108 
368 ,71.9315 ,1.46317 ,-0.11535 ,-1.13182 
369 ,72.1234 ,1.46508 ,-0.12904 ,-1.26613 
370 ,72.3156 ,1.46713 ,-0.11877 ,-1.16540 
371 ,72.5238 ,1.46895 ,-0.13588 ,-1.33329 
372 ,72.7158 ,1.47105 ,-0.12904 ,-1.26613 
373 ,72.9081 ,1.47295 ,-0.15299 ,-1.50118 
374 ,73.1164 ,1.47497 ,-0.15642 ,-1.53476 
375 ,73.3083 ,1.47693 ,-0.19406 ,-1.90412 
376 ,73.4841 ,1.47881 ,-0.18722 ,-1.83696 
377 ,73.6761 ,1.48056 ,-0.18037 ,-1.76981 
378 ,73.8682 ,1.48251 ,-0.20775 ,-2.03843 
379 ,74.0608 ,1.48448 ,-0.20775 ,-2.03843 
380 ,74.2686 ,1.48653 ,-0.22144 ,-2.17275 
381 ,74.4607 ,1.48841 ,-0.22486 ,-2.20632 
382 ,74.6530 ,1.49035 ,-0.23855 ,-2.34064 
383 ,74.8610 ,1.49232 ,-0.24539 ,-2.40779 
384 ,75.0532 ,1.49439 ,-0.26250 ,-2.57569 
385 ,75.2450 ,1.49633 ,-0.28988 ,-2.84431 
386 ,75.4374 ,1.49822 ,-0.27619 ,-2.71000 
387 ,75.6293 ,1.50012 ,-0.30699 ,-3.01220 
388 ,75.8214 ,1.50200 ,-0.30699 ,-3.01220 
389 ,76.0132 ,1.50395 ,-0.31041 ,-3.04578 
390 ,76.2055 ,1.50590 ,-0.33095 ,-3.24725 
391 ,76.3975 ,1.50791 ,-0.32752 ,-3.21367 
392 ,76.5737 ,1.50962 ,-0.33095 ,-3.24725 
393 ,76.7819 ,1.51166 ,-0.34464 ,-3.38156 
394 ,76.9580 ,1.51342 ,-0.34806 ,-3.41514 
395 ,77.1660 ,1.51546 ,-0.37544 ,-3.68377 
396 ,77.3741 ,1.51753 ,-0.38570 ,-3.78450 
397 ,77.5659 ,1.51946 ,-0.38912 ,-3.81808 
398 ,77.7581 ,1.52141 ,-0.37886 ,-3.71735 
399 ,77.9502 ,1.52326 ,-0.41308 ,-4.05313 
400 ,78.1422 ,1.52522 ,-0.40966 ,-4.01955 
401 ,78.3344 ,1.52713 ,-0.42335 ,-4.15387 
402 ,78.5427 ,1.52924 ,-0.42677 ,-4.18744 
403 ,78.7345 ,1.53115 ,-0.43361 ,-4.25460 
404 ,78.9263 ,1.53310 ,-0.46099 ,-4.52323 
405 ,79.1186 ,1.53497 ,-0.44388 ,-4.35534 
406 ,79.3265 ,1.53699 ,-0.46099 ,-4.52323 
407 ,79.5190 ,1.53906 ,-0.47810 ,-4.69112 
408 ,79.7272 ,1.54110 ,-0.50206 ,-4.92617 
409 ,79.9191 ,1.54301 ,-0.48837 ,-4.79185 
410 ,80.1113 ,1.54488 ,-0.53285 ,-5.22837 
411 ,80.3034 ,1.54685 ,-0.52943 ,-5.19479 
412 ,80.4954 ,1.54873 ,-0.53970 ,-5.29553 
413 ,80.6876 ,1.55071 ,-0.55339 ,-5.42984 
414 ,80.8797 ,1.55260 ,-0.53628 ,-5.26195 
415 ,81.0719 ,1.55456 ,-0.56023 ,-5.49700 
416 ,81.2796 ,1.55658 ,-0.56023 ,-5.49700 
417 ,81.4716 ,1.55848 ,-0.58419 ,-5.73205 
418 ,81.6639 ,1.56047 ,-0.59103 ,-5.79920 
419 ,81.8720 ,1.56247 ,-0.59788 ,-5.86636 
420 ,82.0641 ,1.56447 ,-0.60814 ,-5.96709 
421 ,82.2721 ,1.56649 ,-0.60130 ,-5.89994 
422 ,82.4643 ,1.56843 ,-0.62183 ,-6.10141 
423 ,82.6563 ,1.57036 ,-0.62183 ,-6.10141 
424 ,82.8479 ,1.57222 ,-0.65263 ,-6.40361 
425 ,83.0404 ,1.57418 ,-0.64579 ,-6.33646 
426 ,83.2484 ,1.57627 ,-0.68343 ,-6.70582 
427 ,83.4405 ,1.57817 ,-0.66632 ,-6.53793 
428 ,83.6482 ,1.58018 ,-0.68685 ,-6.73940 
429 ,83.8407 ,1.58226 ,-0.68001 ,-6.67224 
430 ,84.0488 ,1.58423 ,-0.71081 ,-6.97444 
431 ,84.2409 ,1.58621 ,-0.71081 ,-6.97444 
432 ,84.4487 ,1.58826 ,-0.73134 ,-7.17591 
433 ,84.6409 ,1.59016 ,-0.71423 ,-7.00802 
434 ,84.8171 ,1.59203 ,-0.73476 ,-7.20949 
435 ,85.0088 ,1.59384 ,-0.75872 ,-7.44454 
436 ,85.1853 ,1.59569 ,-0.75872 ,-7.44454 
437 ,85.3934 ,1.59773 ,-0.75872 ,-7.44454 
438 ,85.5855 ,1.59961 ,-0.76898 ,-7.54527 
439 ,85.7935 ,1.60175 ,-0.78267 ,-7.67959 
440 ,86.0015 ,1.60376 ,-0.80321 ,-7.88106 
441 ,86.2097 ,1.60591 ,-0.80663 ,-7.91464 
442 ,86.4176 ,1.60792 ,-0.79294 ,-7.78032 
443 ,86.6097 ,1.60984 ,-0.83058 ,-8.14968 
444 ,86.8018 ,1.61175 ,-0.82032 ,-8.04895 
445 ,86.9936 ,1.61369 ,-0.82716 ,-8.11611 
446 ,87.1860 ,1.61560 ,-0.84085 ,-8.25042 
447 ,87.3783 ,1.61757 ,-0.84427 ,-8.28400 
448 ,87.5701 ,1.61950 ,-0.85454 ,-8.38473 
449 ,87.7622 ,1.62136 ,-0.85454 ,-8.38473 
450 ,87.9540 ,1.62332 ,-0.87165 ,-8.55262 
451 ,88.1143 ,1.62509 ,-0.88534 ,-8.68694 
452 ,88.3065 ,1.62682 ,-0.89903 ,-8.82125 
453 ,88.4983 ,1.62875 ,-0.89218 ,-8.75409 
454 ,88.6907 ,1.63067 ,-0.91956 ,-9.02272 
455 ,88.8831 ,1.63262 ,-0.92298 ,-9.05630 
456 ,89.0748 ,1.63455 ,-0.91956 ,-9.02272 
457 ,89.2670 ,1.63647 ,-0.94351 ,-9.25777 
458 ,89.4750 ,1.63851 ,-0.93667 ,-9.19061 
459 ,89.6671 ,1.64051 ,-0.96405 ,-9.45924 
460 ,89.8592 ,1.64234 ,-0.95036 ,-9.32492 
461 ,90.0513 ,1.64424 ,-0.97431 ,-9.55997 
462 ,90.2269 ,1.64615 ,-0.98116 ,-9.62713 
