Data stamp = , 28-04-2022 18:48:24 664

Calibration Values: 
Slope = , 26.54 , g/V 
Offset Voltage at no contact = , -0.501760 , V 

No , Time , Stage Position ,   Mass , Force 
   ,  (s) ,      (mm)      ,   (g)  , (mN)  

1 ,0.0000 ,0.74942 ,5.29852 ,51.98905 
2 ,0.2224 ,0.74950 ,5.29167 ,51.92190 
3 ,0.6389 ,0.75089 ,5.28141 ,51.82116 
4 ,0.8468 ,0.75270 ,5.29167 ,51.92190 
5 ,1.0390 ,0.75458 ,5.30194 ,52.02263 
6 ,1.2473 ,0.75660 ,5.28483 ,51.85474 
7 ,1.4393 ,0.75841 ,5.30194 ,52.02263 
8 ,1.6316 ,0.76045 ,5.27114 ,51.72043 
9 ,1.8397 ,0.76252 ,5.28141 ,51.82116 
10 ,2.0317 ,0.76447 ,5.24718 ,51.48538 
11 ,2.2239 ,0.76638 ,5.24034 ,51.41822 
12 ,2.4159 ,0.76826 ,5.21981 ,51.21675 
13 ,2.6079 ,0.77026 ,5.19585 ,50.98170 
14 ,2.8001 ,0.77214 ,5.19243 ,50.94813 
15 ,3.0078 ,0.77421 ,5.16505 ,50.67950 
16 ,3.2002 ,0.77615 ,5.15821 ,50.61234 
17 ,3.4404 ,0.77848 ,5.12741 ,50.31014 
18 ,3.6324 ,0.78048 ,5.10345 ,50.07509 
19 ,3.8405 ,0.78255 ,5.10003 ,50.04151 
20 ,4.0483 ,0.78468 ,5.07608 ,49.80646 
21 ,4.2407 ,0.78656 ,5.05897 ,49.63857 
22 ,4.4487 ,0.78861 ,5.03159 ,49.36995 
23 ,4.6408 ,0.79052 ,5.01448 ,49.20205 
24 ,4.8329 ,0.79243 ,4.98368 ,48.89985 
25 ,5.0410 ,0.79453 ,4.97683 ,48.83269 
26 ,5.2330 ,0.79644 ,4.94946 ,48.56407 
27 ,5.4090 ,0.79825 ,4.93919 ,48.46333 
28 ,5.6012 ,0.80014 ,4.92892 ,48.36260 
29 ,5.7932 ,0.80205 ,4.89812 ,48.06039 
30 ,5.9852 ,0.80397 ,4.89470 ,48.02681 
31 ,6.1774 ,0.80585 ,4.85706 ,47.65745 
32 ,6.3855 ,0.80808 ,4.85364 ,47.62387 
33 ,6.5935 ,0.81007 ,4.81257 ,47.22093 
34 ,6.8015 ,0.81200 ,4.81941 ,47.28809 
35 ,6.9938 ,0.81405 ,4.77835 ,46.88515 
36 ,7.2016 ,0.81613 ,4.77493 ,46.85157 
37 ,7.3615 ,0.81788 ,4.74413 ,46.54937 
38 ,7.5541 ,0.81963 ,4.71675 ,46.28074 
39 ,7.7622 ,0.82174 ,4.71675 ,46.28074 
40 ,7.9540 ,0.82365 ,4.67911 ,45.91138 
41 ,8.1302 ,0.82547 ,4.69279 ,46.04569 
42 ,8.3382 ,0.82750 ,4.64831 ,45.60918 
43 ,8.5141 ,0.82931 ,4.63119 ,45.44128 
44 ,8.7222 ,0.83133 ,4.61751 ,45.30697 
45 ,8.9144 ,0.83327 ,4.60040 ,45.13908 
46 ,9.1225 ,0.83530 ,4.58328 ,44.97119 
47 ,9.3144 ,0.83726 ,4.55249 ,44.66898 
48 ,9.5063 ,0.83917 ,4.55933 ,44.73614 
49 ,9.6986 ,0.84113 ,4.53195 ,44.46751 
50 ,9.9066 ,0.84314 ,4.52511 ,44.40036 
51 ,10.0829 ,0.84502 ,4.48062 ,43.96384 
52 ,10.2749 ,0.84681 ,4.46693 ,43.82953 
53 ,10.4672 ,0.84875 ,4.46693 ,43.82953 
54 ,10.6592 ,0.85069 ,4.44298 ,43.59448 
55 ,10.8512 ,0.85260 ,4.42244 ,43.39301 
56 ,11.0434 ,0.85448 ,4.40533 ,43.22512 
57 ,11.2354 ,0.85646 ,4.38480 ,43.02365 
58 ,11.4275 ,0.85833 ,4.38822 ,43.05723 
59 ,11.6036 ,0.86018 ,4.36084 ,42.78860 
60 ,11.7956 ,0.86201 ,4.32320 ,42.41924 
61 ,12.0198 ,0.86420 ,4.32320 ,42.41924 
62 ,12.2116 ,0.86624 ,4.29582 ,42.15061 
63 ,12.4199 ,0.86835 ,4.27187 ,41.91556 
64 ,12.6118 ,0.87035 ,4.27187 ,41.91556 
65 ,12.7878 ,0.87201 ,4.24791 ,41.68051 
66 ,12.9801 ,0.87386 ,4.21369 ,41.34473 
67 ,13.1722 ,0.87586 ,4.22053 ,41.41189 
68 ,13.3800 ,0.87789 ,4.18289 ,41.04253 
69 ,13.5564 ,0.87971 ,4.17605 ,40.97537 
70 ,13.7485 ,0.88160 ,4.17262 ,40.94179 
71 ,13.9405 ,0.88348 ,4.12814 ,40.50527 
72 ,14.1485 ,0.88558 ,4.12814 ,40.50527 
73 ,14.3247 ,0.88737 ,4.10418 ,40.27023 
74 ,14.5328 ,0.88940 ,4.08023 ,40.03518 
75 ,14.7248 ,0.89131 ,4.07338 ,39.96802 
76 ,14.9164 ,0.89338 ,4.06312 ,39.86729 
77 ,15.1089 ,0.89514 ,4.02547 ,39.49793 
78 ,15.3170 ,0.89724 ,4.00494 ,39.29646 
79 ,15.5090 ,0.89921 ,4.00152 ,39.26288 
80 ,15.7171 ,0.90122 ,3.97072 ,38.96067 
81 ,15.9092 ,0.90319 ,3.97414 ,38.99425 
82 ,16.1012 ,0.90508 ,3.93650 ,38.62489 
83 ,16.3090 ,0.90715 ,3.92965 ,38.55773 
84 ,16.5018 ,0.90908 ,3.88174 ,38.08764 
85 ,16.6937 ,0.91106 ,3.89201 ,38.18837 
86 ,16.9017 ,0.91309 ,3.85779 ,37.85259 
87 ,17.0934 ,0.91495 ,3.86463 ,37.91975 
88 ,17.2859 ,0.91690 ,3.82699 ,37.55038 
89 ,17.4941 ,0.91903 ,3.81672 ,37.44965 
90 ,17.6861 ,0.92096 ,3.80987 ,37.38249 
91 ,17.8941 ,0.92304 ,3.79276 ,37.21460 
92 ,18.0861 ,0.92495 ,3.75512 ,36.84524 
93 ,18.2783 ,0.92683 ,3.71748 ,36.47588 
94 ,18.4704 ,0.92875 ,3.73117 ,36.61019 
95 ,18.6623 ,0.93072 ,3.70037 ,36.30799 
96 ,18.8542 ,0.93260 ,3.69352 ,36.24083 
97 ,19.0466 ,0.93450 ,3.67641 ,36.07294 
98 ,19.2543 ,0.93663 ,3.65930 ,35.90505 
99 ,19.4468 ,0.93858 ,3.63534 ,35.67000 
100 ,19.6549 ,0.94056 ,3.62166 ,35.53569 
101 ,19.8469 ,0.94254 ,3.58743 ,35.19990 
102 ,20.0550 ,0.94460 ,3.59086 ,35.23348 
103 ,20.2472 ,0.94651 ,3.56348 ,34.96485 
104 ,20.4552 ,0.94858 ,3.54637 ,34.79696 
105 ,20.6635 ,0.95069 ,3.51899 ,34.52834 
106 ,20.8714 ,0.95266 ,3.52241 ,34.56192 
107 ,21.0636 ,0.95473 ,3.48819 ,34.22613 
108 ,21.2551 ,0.95664 ,3.47792 ,34.12540 
109 ,21.4471 ,0.95855 ,3.45739 ,33.92393 
110 ,21.6396 ,0.96044 ,3.44370 ,33.78961 
111 ,21.8317 ,0.96235 ,3.42317 ,33.58814 
112 ,22.0398 ,0.96446 ,3.39237 ,33.28594 
113 ,22.2318 ,0.96637 ,3.39237 ,33.28594 
114 ,22.4079 ,0.96814 ,3.37184 ,33.08447 
115 ,22.5838 ,0.96992 ,3.34104 ,32.78227 
116 ,22.7760 ,0.97183 ,3.35130 ,32.88300 
117 ,23.0001 ,0.97394 ,3.32051 ,32.58080 
118 ,23.2081 ,0.97602 ,3.29997 ,32.37933 
119 ,23.4001 ,0.97803 ,3.27944 ,32.17786 
120 ,23.5759 ,0.97989 ,3.27602 ,32.14428 
121 ,23.7684 ,0.98171 ,3.23837 ,31.77492 
122 ,23.9766 ,0.98382 ,3.23837 ,31.77492 
123 ,24.1685 ,0.98570 ,3.22126 ,31.60702 
124 ,24.3611 ,0.98768 ,3.19046 ,31.30482 
125 ,24.5528 ,0.98959 ,3.18020 ,31.20409 
126 ,24.7609 ,0.99168 ,3.16309 ,31.03619 
127 ,24.9529 ,0.99363 ,3.15282 ,30.93546 
128 ,25.1610 ,0.99566 ,3.11175 ,30.53252 
129 ,25.3529 ,0.99755 ,3.10491 ,30.46536 
130 ,25.5614 ,0.99965 ,3.09122 ,30.33105 
131 ,25.7529 ,1.00157 ,3.07753 ,30.19674 
132 ,25.9613 ,1.00354 ,3.05358 ,29.96169 
133 ,26.1695 ,1.00574 ,3.01593 ,29.59233 
134 ,26.3453 ,1.00755 ,3.01251 ,29.55875 
135 ,26.5375 ,1.00939 ,3.00567 ,29.49159 
136 ,26.7298 ,1.01130 ,2.97487 ,29.18939 
137 ,26.9054 ,1.01321 ,2.97144 ,29.15581 
138 ,27.0978 ,1.01501 ,2.96802 ,29.12223 
139 ,27.2897 ,1.01694 ,2.92011 ,28.65213 
140 ,27.4821 ,1.01883 ,2.91669 ,28.61856 
141 ,27.6902 ,1.02090 ,2.88589 ,28.31635 
142 ,27.8818 ,1.02284 ,2.88589 ,28.31635 
143 ,28.0744 ,1.02478 ,2.86536 ,28.11488 
144 ,28.2823 ,1.02679 ,2.86193 ,28.08130 
145 ,28.4745 ,1.02877 ,2.81745 ,27.64479 
146 ,28.6826 ,1.03084 ,2.82087 ,27.67836 
147 ,28.8747 ,1.03275 ,2.79007 ,27.37616 
148 ,29.0507 ,1.03466 ,2.76611 ,27.14111 
149 ,29.2427 ,1.03640 ,2.76954 ,27.17469 
150 ,29.4189 ,1.03829 ,2.74558 ,26.93964 
151 ,29.6106 ,1.04016 ,2.72505 ,26.73817 
152 ,29.8029 ,1.04207 ,2.71478 ,26.63744 
153 ,29.9789 ,1.04383 ,2.70794 ,26.57028 
154 ,30.1550 ,1.04562 ,2.67714 ,26.26807 
155 ,30.3471 ,1.04750 ,2.65660 ,26.06661 
156 ,30.5393 ,1.04945 ,2.65660 ,26.06661 
157 ,30.7149 ,1.05126 ,2.63265 ,25.83156 
158 ,30.8915 ,1.05300 ,2.61554 ,25.66367 
159 ,31.0991 ,1.05498 ,2.62238 ,25.73082 
160 ,31.2912 ,1.05693 ,2.58132 ,25.32788 
161 ,31.4833 ,1.05883 ,2.58132 ,25.32788 
162 ,31.6595 ,1.06072 ,2.55736 ,25.09283 
163 ,31.8515 ,1.06254 ,2.52998 ,24.82421 
164 ,32.0435 ,1.06439 ,2.51972 ,24.72347 
165 ,32.2195 ,1.06635 ,2.50603 ,24.58916 
166 ,32.4117 ,1.06813 ,2.47865 ,24.32053 
167 ,32.6038 ,1.07001 ,2.47181 ,24.25338 
168 ,32.7797 ,1.07194 ,2.46154 ,24.15264 
169 ,32.9719 ,1.07371 ,2.43759 ,23.91759 
170 ,33.1639 ,1.07563 ,2.43759 ,23.91759 
171 ,33.3562 ,1.07756 ,2.40679 ,23.61539 
172 ,33.5321 ,1.07945 ,2.39310 ,23.48108 
173 ,33.7242 ,1.08122 ,2.38283 ,23.38034 
174 ,33.9002 ,1.08310 ,2.36572 ,23.21245 
175 ,34.0924 ,1.08489 ,2.33834 ,22.94382 
176 ,34.2845 ,1.08684 ,2.34519 ,23.01098 
177 ,34.4604 ,1.08872 ,2.32465 ,22.80951 
178 ,34.6526 ,1.09050 ,2.28701 ,22.44015 
179 ,34.8448 ,1.09244 ,2.28017 ,22.37299 
180 ,35.0367 ,1.09438 ,2.26648 ,22.23868 
181 ,35.2288 ,1.09626 ,2.24937 ,22.07079 
182 ,35.4209 ,1.09818 ,2.23568 ,21.93647 
183 ,35.6128 ,1.10019 ,2.23226 ,21.90290 
184 ,35.8052 ,1.10206 ,2.21857 ,21.76858 
185 ,36.0134 ,1.10417 ,2.19461 ,21.53353 
186 ,36.2057 ,1.10601 ,2.17408 ,21.33206 
187 ,36.4137 ,1.10812 ,2.15697 ,21.16417 
188 ,36.6218 ,1.11019 ,2.13986 ,20.99628 
189 ,36.8139 ,1.11212 ,2.12275 ,20.82839 
190 ,37.0380 ,1.11427 ,2.10564 ,20.66050 
191 ,37.2301 ,1.11634 ,2.10221 ,20.62692 
192 ,37.4382 ,1.11832 ,2.06799 ,20.29114 
193 ,37.6298 ,1.12026 ,2.06115 ,20.22398 
194 ,37.8223 ,1.12223 ,2.05088 ,20.12325 
195 ,38.0304 ,1.12430 ,2.03377 ,19.95535 
196 ,38.2225 ,1.12624 ,2.01666 ,19.78746 
197 ,38.4146 ,1.12813 ,1.98928 ,19.51884 
198 ,38.6066 ,1.13006 ,2.00297 ,19.65315 
199 ,38.8146 ,1.13208 ,1.96190 ,19.25021 
200 ,39.0068 ,1.13410 ,1.95848 ,19.21663 
201 ,39.1985 ,1.13602 ,1.94137 ,19.04874 
202 ,39.3909 ,1.13788 ,1.94479 ,19.08232 
203 ,39.5831 ,1.13993 ,1.91057 ,18.74654 
204 ,39.7748 ,1.14175 ,1.88319 ,18.47791 
205 ,39.9673 ,1.14367 ,1.90373 ,18.67938 
206 ,40.1753 ,1.14573 ,1.87635 ,18.41075 
207 ,40.3673 ,1.14769 ,1.86608 ,18.31002 
208 ,40.5435 ,1.14944 ,1.85240 ,18.17570 
209 ,40.7192 ,1.15125 ,1.82160 ,17.87350 
210 ,40.8791 ,1.15297 ,1.81817 ,17.83992 
211 ,41.0718 ,1.15470 ,1.79764 ,17.63845 
212 ,41.2795 ,1.15677 ,1.78737 ,17.53772 
213 ,41.4715 ,1.15865 ,1.78053 ,17.47056 
214 ,41.6638 ,1.16058 ,1.76000 ,17.26909 
215 ,41.8401 ,1.16243 ,1.74631 ,17.13478 
216 ,42.0320 ,1.16431 ,1.73604 ,17.03404 
217 ,42.2242 ,1.16619 ,1.71893 ,16.86615 
218 ,42.4162 ,1.16810 ,1.70182 ,16.69826 
219 ,42.6084 ,1.17002 ,1.71209 ,16.79899 
220 ,42.8165 ,1.17214 ,1.67444 ,16.42963 
221 ,43.0081 ,1.17399 ,1.68129 ,16.49679 
222 ,43.2166 ,1.17620 ,1.62995 ,15.99311 
223 ,43.4244 ,1.17817 ,1.62995 ,15.99311 
224 ,43.6167 ,1.18010 ,1.61969 ,15.89238 
225 ,43.8087 ,1.18212 ,1.60942 ,15.79164 
226 ,44.0009 ,1.18397 ,1.58547 ,15.55660 
227 ,44.1606 ,1.18575 ,1.57520 ,15.45586 
228 ,44.3531 ,1.18749 ,1.57520 ,15.45586 
229 ,44.5611 ,1.18957 ,1.54098 ,15.12008 
230 ,44.7534 ,1.19149 ,1.54440 ,15.15366 
231 ,44.9614 ,1.19358 ,1.50333 ,14.75072 
232 ,45.1534 ,1.19560 ,1.49991 ,14.71714 
233 ,45.3454 ,1.19741 ,1.50333 ,14.75072 
234 ,45.5376 ,1.19942 ,1.47253 ,14.44851 
235 ,45.7293 ,1.20138 ,1.45885 ,14.31420 
236 ,45.9055 ,1.20310 ,1.45200 ,14.24704 
237 ,46.0975 ,1.20493 ,1.44516 ,14.17989 
238 ,46.2896 ,1.20683 ,1.44516 ,14.17989 
239 ,46.4819 ,1.20884 ,1.41094 ,13.84410 
240 ,46.6900 ,1.21084 ,1.39725 ,13.70979 
241 ,46.8821 ,1.21280 ,1.38356 ,13.57548 
242 ,47.0901 ,1.21476 ,1.37671 ,13.50832 
243 ,47.2979 ,1.21696 ,1.34934 ,13.23969 
244 ,47.4744 ,1.21875 ,1.34934 ,13.23969 
245 ,47.6824 ,1.22082 ,1.32538 ,13.00465 
246 ,47.8745 ,1.22269 ,1.33223 ,13.07180 
247 ,48.0665 ,1.22461 ,1.30485 ,12.80318 
248 ,48.2588 ,1.22658 ,1.29116 ,12.66886 
249 ,48.4664 ,1.22859 ,1.29458 ,12.70244 
250 ,48.6585 ,1.23056 ,1.27405 ,12.50097 
251 ,48.8669 ,1.23260 ,1.25352 ,12.29950 
252 ,49.0589 ,1.23455 ,1.23298 ,12.09803 
253 ,49.2348 ,1.23636 ,1.23641 ,12.13161 
254 ,49.4270 ,1.23819 ,1.21245 ,11.89656 
255 ,49.6187 ,1.24012 ,1.20561 ,11.82941 
256 ,49.8109 ,1.24204 ,1.19192 ,11.69509 
257 ,50.0188 ,1.24416 ,1.17823 ,11.56078 
258 ,50.2108 ,1.24604 ,1.16454 ,11.42647 
259 ,50.4033 ,1.24796 ,1.14401 ,11.22500 
260 ,50.6116 ,1.25007 ,1.15085 ,11.29215 
261 ,50.8355 ,1.25223 ,1.12347 ,11.02353 
262 ,51.0437 ,1.25434 ,1.10294 ,10.82206 
263 ,51.2357 ,1.25627 ,1.09952 ,10.78848 
264 ,51.4279 ,1.25819 ,1.07214 ,10.51985 
265 ,51.6198 ,1.26019 ,1.05161 ,10.31838 
266 ,51.8121 ,1.26201 ,1.06530 ,10.45270 
267 ,51.9880 ,1.26388 ,1.02765 ,10.08333 
268 ,52.1962 ,1.26581 ,1.03108 ,10.11691 
269 ,52.4044 ,1.26796 ,1.00028 ,9.81471 
270 ,52.5964 ,1.26987 ,1.01396 ,9.94902 
271 ,52.7723 ,1.27175 ,0.97290 ,9.54608 
272 ,52.9806 ,1.27364 ,0.96948 ,9.51250 
273 ,53.1886 ,1.27581 ,0.95579 ,9.37819 
274 ,53.3808 ,1.27777 ,0.96605 ,9.47892 
275 ,53.5889 ,1.27978 ,0.92841 ,9.10956 
276 ,53.7809 ,1.28177 ,0.92499 ,9.07598 
277 ,53.9730 ,1.28364 ,0.92499 ,9.07598 
278 ,54.1490 ,1.28548 ,0.90446 ,8.87451 
279 ,54.3411 ,1.28730 ,0.88734 ,8.70662 
280 ,54.5333 ,1.28918 ,0.87708 ,8.60589 
281 ,54.7253 ,1.29115 ,0.85654 ,8.40442 
282 ,54.9013 ,1.29297 ,0.85654 ,8.40442 
283 ,55.0935 ,1.29481 ,0.84628 ,8.30368 
284 ,55.2695 ,1.29680 ,0.82232 ,8.06864 
285 ,55.4613 ,1.29854 ,0.83259 ,8.16937 
286 ,55.6532 ,1.30043 ,0.81548 ,8.00148 
287 ,55.8293 ,1.30234 ,0.78126 ,7.66570 
288 ,56.0215 ,1.30418 ,0.78810 ,7.73285 
289 ,56.2136 ,1.30604 ,0.78126 ,7.66570 
290 ,56.4220 ,1.30816 ,0.75730 ,7.43065 
291 ,56.6139 ,1.31007 ,0.77099 ,7.56496 
292 ,56.8221 ,1.31215 ,0.74019 ,7.26276 
293 ,56.9980 ,1.31396 ,0.73335 ,7.19560 
294 ,57.1903 ,1.31581 ,0.70939 ,6.96055 
295 ,57.3980 ,1.31788 ,0.70939 ,6.96055 
296 ,57.5904 ,1.31979 ,0.67175 ,6.59119 
297 ,57.7824 ,1.32171 ,0.69228 ,6.79266 
298 ,57.9906 ,1.32378 ,0.64779 ,6.35614 
299 ,58.1828 ,1.32578 ,0.65806 ,6.45688 
300 ,58.4068 ,1.32789 ,0.62726 ,6.15467 
301 ,58.6147 ,1.33003 ,0.64095 ,6.28899 
302 ,58.7910 ,1.33186 ,0.62384 ,6.12109 
303 ,58.9830 ,1.33381 ,0.61015 ,5.98678 
304 ,59.1750 ,1.33563 ,0.58619 ,5.75173 
305 ,59.3671 ,1.33757 ,0.57251 ,5.61742 
306 ,59.5433 ,1.33941 ,0.57251 ,5.61742 
307 ,59.7353 ,1.34124 ,0.57251 ,5.61742 
308 ,59.9272 ,1.34320 ,0.53144 ,5.21448 
309 ,60.1195 ,1.34513 ,0.54855 ,5.38237 
310 ,60.3111 ,1.34712 ,0.51775 ,5.08017 
311 ,60.5194 ,1.34916 ,0.52117 ,5.11375 
312 ,60.7116 ,1.35108 ,0.49722 ,4.87870 
313 ,60.9199 ,1.35311 ,0.49722 ,4.87870 
314 ,61.1115 ,1.35503 ,0.46984 ,4.61007 
315 ,61.3038 ,1.35694 ,0.47668 ,4.67723 
316 ,61.4956 ,1.35879 ,0.44588 ,4.37502 
317 ,61.6881 ,1.36082 ,0.44588 ,4.37502 
318 ,61.8959 ,1.36283 ,0.42877 ,4.20713 
319 ,62.0883 ,1.36478 ,0.43220 ,4.24071 
320 ,62.2804 ,1.36675 ,0.42193 ,4.13997 
321 ,62.4884 ,1.36873 ,0.40140 ,3.93850 
322 ,62.6805 ,1.37071 ,0.40140 ,3.93850 
323 ,62.8886 ,1.37273 ,0.38086 ,3.73703 
324 ,63.0806 ,1.37472 ,0.38771 ,3.80419 
325 ,63.2887 ,1.37679 ,0.35349 ,3.46841 
326 ,63.5126 ,1.37901 ,0.31926 ,3.13263 
327 ,63.7047 ,1.38095 ,0.34322 ,3.36767 
328 ,63.9128 ,1.38299 ,0.30900 ,3.03189 
329 ,64.1047 ,1.38493 ,0.30558 ,2.99831 
330 ,64.2970 ,1.38685 ,0.28847 ,2.83042 
331 ,64.4891 ,1.38877 ,0.29189 ,2.86400 
332 ,64.6809 ,1.39071 ,0.27478 ,2.69611 
333 ,64.8732 ,1.39267 ,0.27135 ,2.66253 
334 ,65.0812 ,1.39472 ,0.26109 ,2.56179 
335 ,65.2735 ,1.39663 ,0.23029 ,2.25959 
336 ,65.4655 ,1.39852 ,0.24055 ,2.36032 
337 ,65.6576 ,1.40043 ,0.22687 ,2.22601 
338 ,65.8497 ,1.40231 ,0.22002 ,2.15885 
339 ,66.0418 ,1.40424 ,0.21318 ,2.09170 
340 ,66.2339 ,1.40621 ,0.17553 ,1.72234 
341 ,66.4257 ,1.40813 ,0.18922 ,1.85665 
342 ,66.6180 ,1.41004 ,0.16869 ,1.65518 
343 ,66.8101 ,1.41201 ,0.15842 ,1.55445 
344 ,67.0660 ,1.41447 ,0.14473 ,1.42013 
345 ,67.2584 ,1.41650 ,0.13789 ,1.35298 
346 ,67.4503 ,1.41833 ,0.11736 ,1.15151 
347 ,67.6425 ,1.42027 ,0.12078 ,1.18508 
348 ,67.8341 ,1.42220 ,0.10025 ,0.98361 
349 ,68.0266 ,1.42416 ,0.10367 ,1.01719 
350 ,68.2346 ,1.42619 ,0.06260 ,0.61425 
351 ,68.4108 ,1.42804 ,0.07971 ,0.78214 
352 ,68.6188 ,1.43008 ,0.06260 ,0.61425 
353 ,68.8109 ,1.43199 ,0.05918 ,0.58067 
354 ,69.0026 ,1.43390 ,0.05234 ,0.51352 
355 ,69.1790 ,1.43578 ,0.03522 ,0.34563 
356 ,69.3871 ,1.43770 ,0.03522 ,0.34563 
357 ,69.5793 ,1.43963 ,0.00785 ,0.07700 
358 ,69.7713 ,1.44160 ,-0.00242 ,-0.02373 
359 ,69.9634 ,1.44349 ,0.00443 ,0.04342 
360 ,70.1550 ,1.44539 ,-0.01611 ,-0.15805 
361 ,70.3316 ,1.44722 ,-0.02295 ,-0.22520 
362 ,70.5236 ,1.44910 ,-0.02637 ,-0.25878 
363 ,70.7157 ,1.45101 ,-0.05717 ,-0.56099 
364 ,70.9239 ,1.45310 ,-0.05375 ,-0.52741 
365 ,71.1480 ,1.45522 ,-0.06402 ,-0.62814 
366 ,71.3560 ,1.45737 ,-0.07086 ,-0.69530 
367 ,71.5645 ,1.45949 ,-0.09824 ,-0.96393 
368 ,71.7560 ,1.46140 ,-0.10508 ,-1.03108 
369 ,71.9482 ,1.46330 ,-0.10166 ,-0.99751 
370 ,72.1561 ,1.46541 ,-0.12904 ,-1.26613 
371 ,72.3480 ,1.46732 ,-0.11535 ,-1.13182 
372 ,72.5405 ,1.46927 ,-0.16326 ,-1.60191 
373 ,72.7486 ,1.47140 ,-0.14957 ,-1.46760 
374 ,72.9407 ,1.47327 ,-0.16668 ,-1.63549 
375 ,73.1327 ,1.47516 ,-0.16668 ,-1.63549 
376 ,73.3087 ,1.47704 ,-0.17353 ,-1.70265 
377 ,73.5167 ,1.47905 ,-0.19064 ,-1.87054 
378 ,73.7089 ,1.48098 ,-0.20090 ,-1.97128 
379 ,73.9008 ,1.48287 ,-0.22144 ,-2.17275 
380 ,74.0930 ,1.48475 ,-0.22486 ,-2.20632 
381 ,74.2847 ,1.48669 ,-0.23170 ,-2.27348 
382 ,74.4608 ,1.48854 ,-0.23513 ,-2.30706 
383 ,74.6531 ,1.49035 ,-0.24197 ,-2.37422 
384 ,74.8616 ,1.49248 ,-0.26935 ,-2.64284 
385 ,75.0535 ,1.49437 ,-0.25224 ,-2.47495 
386 ,75.2615 ,1.49646 ,-0.29330 ,-2.87789 
387 ,75.4538 ,1.49840 ,-0.27619 ,-2.71000 
388 ,75.6618 ,1.50047 ,-0.30015 ,-2.94505 
389 ,75.8539 ,1.50245 ,-0.30015 ,-2.94505 
390 ,76.0619 ,1.50443 ,-0.32410 ,-3.18010 
391 ,76.2539 ,1.50634 ,-0.31384 ,-3.07936 
392 ,76.4461 ,1.50831 ,-0.33095 ,-3.24725 
393 ,76.6377 ,1.51022 ,-0.35148 ,-3.44872 
394 ,76.8302 ,1.51214 ,-0.33437 ,-3.28083 
395 ,77.0382 ,1.51425 ,-0.37886 ,-3.71735 
396 ,77.2462 ,1.51625 ,-0.37544 ,-3.68377 
397 ,77.4383 ,1.51818 ,-0.36859 ,-3.61661 
398 ,77.6465 ,1.52027 ,-0.40623 ,-3.98597 
399 ,77.8382 ,1.52223 ,-0.41308 ,-4.05313 
400 ,78.0145 ,1.52402 ,-0.40281 ,-3.95240 
401 ,78.2067 ,1.52584 ,-0.43019 ,-4.22102 
402 ,78.4147 ,1.52791 ,-0.43361 ,-4.25460 
403 ,78.6068 ,1.52985 ,-0.44388 ,-4.35534 
404 ,78.7826 ,1.53177 ,-0.45072 ,-4.42249 
405 ,78.9749 ,1.53357 ,-0.45757 ,-4.48965 
406 ,79.1512 ,1.53539 ,-0.46099 ,-4.52323 
407 ,79.3433 ,1.53721 ,-0.48494 ,-4.75828 
408 ,79.5514 ,1.53935 ,-0.47126 ,-4.62396 
409 ,79.7433 ,1.54125 ,-0.51232 ,-5.02690 
410 ,79.9195 ,1.54319 ,-0.50548 ,-4.95975 
411 ,80.1114 ,1.54494 ,-0.50206 ,-4.92617 
412 ,80.2876 ,1.54673 ,-0.52259 ,-5.12764 
413 ,80.4797 ,1.54867 ,-0.54312 ,-5.32911 
414 ,80.6714 ,1.55053 ,-0.52259 ,-5.12764 
415 ,80.8635 ,1.55243 ,-0.55681 ,-5.46342 
416 ,81.0558 ,1.55440 ,-0.54997 ,-5.39626 
417 ,81.2640 ,1.55644 ,-0.58077 ,-5.69847 
418 ,81.4722 ,1.55842 ,-0.55339 ,-5.42984 
419 ,81.6800 ,1.56053 ,-0.59103 ,-5.79920 
420 ,81.8724 ,1.56260 ,-0.57734 ,-5.66489 
421 ,82.0802 ,1.56461 ,-0.60130 ,-5.89994 
422 ,82.2886 ,1.56670 ,-0.62525 ,-6.13499 
423 ,82.4805 ,1.56856 ,-0.61841 ,-6.06783 
424 ,82.6727 ,1.57055 ,-0.62183 ,-6.10141 
425 ,82.8808 ,1.57263 ,-0.64921 ,-6.37003 
426 ,83.0886 ,1.57466 ,-0.66290 ,-6.50435 
427 ,83.2809 ,1.57665 ,-0.66632 ,-6.53793 
428 ,83.4730 ,1.57855 ,-0.65947 ,-6.47077 
429 ,83.6650 ,1.58047 ,-0.68001 ,-6.67224 
430 ,83.8413 ,1.58229 ,-0.69370 ,-6.80655 
431 ,84.0331 ,1.58417 ,-0.68001 ,-6.67224 
432 ,84.2249 ,1.58605 ,-0.71081 ,-6.97444 
433 ,84.4172 ,1.58805 ,-0.70396 ,-6.90729 
434 ,84.6252 ,1.59006 ,-0.73476 ,-7.20949 
435 ,84.8337 ,1.59213 ,-0.72107 ,-7.07518 
436 ,85.0417 ,1.59420 ,-0.73476 ,-7.20949 
437 ,85.2340 ,1.59613 ,-0.74845 ,-7.34380 
438 ,85.4257 ,1.59805 ,-0.76556 ,-7.51170 
439 ,85.6178 ,1.59996 ,-0.76898 ,-7.54527 
440 ,85.8258 ,1.60196 ,-0.77241 ,-7.57885 
441 ,86.0181 ,1.60401 ,-0.78267 ,-7.67959 
442 ,86.2097 ,1.60601 ,-0.79294 ,-7.78032 
443 ,86.4018 ,1.60784 ,-0.79978 ,-7.84748 
444 ,86.5943 ,1.60978 ,-0.81347 ,-7.98179 
445 ,86.8023 ,1.61182 ,-0.82374 ,-8.08253 
446 ,86.9944 ,1.61370 ,-0.83058 ,-8.14968 
447 ,87.1865 ,1.61566 ,-0.84427 ,-8.28400 
448 ,87.3785 ,1.61757 ,-0.84085 ,-8.25042 
449 ,87.5702 ,1.61948 ,-0.86823 ,-8.51904 
450 ,87.7629 ,1.62141 ,-0.86138 ,-8.45189 
451 ,87.9708 ,1.62351 ,-0.88534 ,-8.68694 
452 ,88.1629 ,1.62536 ,-0.87507 ,-8.58620 
453 ,88.3548 ,1.62735 ,-0.89903 ,-8.82125 
454 ,88.5470 ,1.62921 ,-0.90587 ,-8.88841 
455 ,88.7390 ,1.63119 ,-0.89903 ,-8.82125 
456 ,88.9312 ,1.63316 ,-0.91614 ,-8.98914 
457 ,89.1233 ,1.63501 ,-0.92298 ,-9.05630 
458 ,89.3152 ,1.63697 ,-0.92983 ,-9.12345 
459 ,89.5235 ,1.63898 ,-0.94694 ,-9.29135 
460 ,89.7150 ,1.64092 ,-0.94351 ,-9.25777 
461 ,89.9076 ,1.64287 ,-0.95720 ,-9.39208 
462 ,90.1156 ,1.64491 ,-0.95720 ,-9.39208 
463 ,90.3076 ,1.64686 ,-0.98116 ,-9.62713 
