Data stamp = , 27-04-2022 13:24:16 951

Calibration Values: 
Slope = , 26.54 , g/V 
Offset Voltage at no contact = , -0.501760 , V 

No , Time , Stage Position ,   Mass , Force 
   ,  (s) ,      (mm)      ,   (g)  , (mN)  

1 ,0.0000 ,0.74950 ,5.28141 ,51.82116 
2 ,0.3040 ,0.74971 ,5.27798 ,51.78758 
3 ,0.6405 ,0.75093 ,5.29167 ,51.92190 
4 ,0.8327 ,0.75264 ,5.28825 ,51.88832 
5 ,1.0247 ,0.75442 ,5.27114 ,51.72043 
6 ,1.2329 ,0.75653 ,5.29510 ,51.95548 
7 ,1.4249 ,0.75840 ,5.27798 ,51.78758 
8 ,1.6011 ,0.76030 ,5.26772 ,51.68685 
9 ,1.7930 ,0.76210 ,5.30194 ,52.02263 
10 ,1.9849 ,0.76401 ,5.27456 ,51.75401 
11 ,2.1933 ,0.76606 ,5.26087 ,51.61969 
12 ,2.3852 ,0.76803 ,5.23007 ,51.31749 
13 ,2.5933 ,0.77000 ,5.22665 ,51.28391 
14 ,2.8015 ,0.77215 ,5.18216 ,50.84739 
15 ,2.9934 ,0.77409 ,5.16163 ,50.64592 
16 ,3.1854 ,0.77602 ,5.14452 ,50.47803 
17 ,3.3777 ,0.77794 ,5.13768 ,50.41087 
18 ,3.5539 ,0.77982 ,5.13425 ,50.37729 
19 ,3.7459 ,0.78169 ,5.09319 ,49.97436 
20 ,3.9376 ,0.78360 ,5.08292 ,49.87362 
21 ,4.1140 ,0.78539 ,5.07265 ,49.77289 
22 ,4.3221 ,0.78737 ,5.03843 ,49.43710 
23 ,4.5141 ,0.78930 ,5.02817 ,49.33637 
24 ,4.6901 ,0.79113 ,5.02132 ,49.26921 
25 ,4.8663 ,0.79290 ,4.98368 ,48.89985 
26 ,5.0741 ,0.79501 ,4.98026 ,48.86627 
27 ,5.2664 ,0.79686 ,4.95972 ,48.66480 
28 ,5.4746 ,0.79893 ,4.94261 ,48.49691 
29 ,5.6666 ,0.80085 ,4.90497 ,48.12755 
30 ,5.8587 ,0.80278 ,4.89128 ,47.99324 
31 ,6.0667 ,0.80486 ,4.87075 ,47.79177 
32 ,6.2428 ,0.80667 ,4.84679 ,47.55672 
33 ,6.4351 ,0.80852 ,4.86048 ,47.69103 
34 ,6.6269 ,0.81042 ,4.81257 ,47.22093 
35 ,6.8030 ,0.81227 ,4.80573 ,47.15378 
36 ,6.9947 ,0.81410 ,4.80230 ,47.12020 
37 ,7.1713 ,0.81597 ,4.77493 ,46.85157 
38 ,7.3630 ,0.81781 ,4.74070 ,46.51579 
39 ,7.5230 ,0.81958 ,4.72017 ,46.31432 
40 ,7.6995 ,0.82122 ,4.72702 ,46.38148 
41 ,7.8914 ,0.82310 ,4.71675 ,46.28074 
42 ,8.0995 ,0.82512 ,4.69622 ,46.07927 
43 ,8.2914 ,0.82705 ,4.66199 ,45.74349 
44 ,8.4838 ,0.82900 ,4.63804 ,45.50844 
45 ,8.6757 ,0.83095 ,4.62435 ,45.37413 
46 ,8.8839 ,0.83299 ,4.60382 ,45.17266 
47 ,9.0921 ,0.83502 ,4.60724 ,45.20624 
48 ,9.3001 ,0.83716 ,4.56617 ,44.80330 
49 ,9.4922 ,0.83909 ,4.56960 ,44.83688 
50 ,9.6838 ,0.84104 ,4.52511 ,44.40036 
51 ,9.8602 ,0.84285 ,4.51484 ,44.29962 
52 ,10.0684 ,0.84484 ,4.50457 ,44.19889 
53 ,10.2444 ,0.84667 ,4.48404 ,43.99742 
54 ,10.4362 ,0.84853 ,4.47378 ,43.89668 
55 ,10.6288 ,0.85047 ,4.46693 ,43.82953 
56 ,10.8366 ,0.85252 ,4.44298 ,43.59448 
57 ,11.0129 ,0.85435 ,4.41902 ,43.35943 
58 ,11.2208 ,0.85639 ,4.39507 ,43.12438 
59 ,11.4291 ,0.85837 ,4.36084 ,42.78860 
60 ,11.6211 ,0.86040 ,4.35058 ,42.68786 
61 ,11.7972 ,0.86219 ,4.33689 ,42.55355 
62 ,11.9890 ,0.86402 ,4.33689 ,42.55355 
63 ,12.1651 ,0.86596 ,4.29582 ,42.15061 
64 ,12.3416 ,0.86761 ,4.28898 ,42.08345 
65 ,12.5490 ,0.86962 ,4.27529 ,41.94914 
66 ,12.7255 ,0.87143 ,4.25133 ,41.71409 
67 ,12.9014 ,0.87321 ,4.23422 ,41.54620 
68 ,13.0936 ,0.87507 ,4.22396 ,41.44547 
69 ,13.2855 ,0.87711 ,4.20000 ,41.21042 
70 ,13.4779 ,0.87889 ,4.18974 ,41.10968 
71 ,13.6698 ,0.88089 ,4.17605 ,40.97537 
72 ,13.8780 ,0.88290 ,4.15894 ,40.80748 
73 ,14.0857 ,0.88506 ,4.12471 ,40.47170 
74 ,14.2782 ,0.88686 ,4.11103 ,40.33738 
75 ,14.4701 ,0.88888 ,4.09734 ,40.20307 
76 ,14.6784 ,0.89089 ,4.08023 ,40.03518 
77 ,14.8540 ,0.89280 ,4.05627 ,39.80013 
78 ,15.0302 ,0.89450 ,4.05627 ,39.80013 
79 ,15.1905 ,0.89622 ,4.01520 ,39.39719 
80 ,15.3666 ,0.89787 ,4.01178 ,39.36361 
81 ,15.5584 ,0.89976 ,3.98783 ,39.12856 
82 ,15.7508 ,0.90172 ,3.99125 ,39.16214 
83 ,15.9429 ,0.90366 ,3.97072 ,38.96067 
84 ,16.1029 ,0.90533 ,3.93650 ,38.62489 
85 ,16.2951 ,0.90710 ,3.92623 ,38.52415 
86 ,16.4871 ,0.90900 ,3.90227 ,38.28911 
87 ,16.6950 ,0.91112 ,3.89543 ,38.22195 
88 ,16.8711 ,0.91287 ,3.88174 ,38.08764 
89 ,17.0633 ,0.91473 ,3.85779 ,37.85259 
90 ,17.2714 ,0.91686 ,3.84067 ,37.68470 
91 ,17.4473 ,0.91862 ,3.82699 ,37.55038 
92 ,17.6396 ,0.92050 ,3.79619 ,37.24818 
93 ,17.8476 ,0.92255 ,3.78592 ,37.14744 
94 ,18.0394 ,0.92447 ,3.76539 ,36.94597 
95 ,18.2316 ,0.92647 ,3.75512 ,36.84524 
96 ,18.4239 ,0.92842 ,3.71405 ,36.44230 
97 ,18.6160 ,0.93024 ,3.71063 ,36.40872 
98 ,18.8080 ,0.93221 ,3.70037 ,36.30799 
99 ,19.0002 ,0.93413 ,3.65930 ,35.90505 
100 ,19.2082 ,0.93623 ,3.65930 ,35.90505 
101 ,19.4163 ,0.93824 ,3.64219 ,35.73716 
102 ,19.6085 ,0.94020 ,3.62508 ,35.56926 
103 ,19.8005 ,0.94212 ,3.58743 ,35.19990 
104 ,19.9765 ,0.94393 ,3.57717 ,35.09917 
105 ,20.1685 ,0.94585 ,3.58401 ,35.16632 
106 ,20.3608 ,0.94776 ,3.53952 ,34.72981 
107 ,20.5684 ,0.94982 ,3.53610 ,34.69623 
108 ,20.7609 ,0.95173 ,3.50872 ,34.42760 
109 ,20.9689 ,0.95378 ,3.50872 ,34.42760 
110 ,21.1611 ,0.95576 ,3.47792 ,34.12540 
111 ,21.3691 ,0.95779 ,3.46766 ,34.02466 
112 ,21.5612 ,0.95974 ,3.43686 ,33.72246 
113 ,21.7533 ,0.96167 ,3.43344 ,33.68888 
114 ,21.9614 ,0.96378 ,3.39237 ,33.28594 
115 ,22.1535 ,0.96566 ,3.39237 ,33.28594 
116 ,22.3453 ,0.96760 ,3.37868 ,33.15163 
117 ,22.5377 ,0.96951 ,3.35815 ,32.95016 
118 ,22.7618 ,0.97174 ,3.32393 ,32.61437 
119 ,22.9694 ,0.97376 ,3.31366 ,32.51364 
120 ,23.1460 ,0.97563 ,3.29655 ,32.34575 
121 ,23.3377 ,0.97747 ,3.28286 ,32.21143 
122 ,23.5140 ,0.97933 ,3.26233 ,32.00996 
123 ,23.6900 ,0.98104 ,3.25548 ,31.94281 
124 ,23.8982 ,0.98308 ,3.23153 ,31.70776 
125 ,24.0902 ,0.98496 ,3.22468 ,31.64060 
126 ,24.2824 ,0.98691 ,3.17335 ,31.13693 
127 ,24.4743 ,0.98886 ,3.19046 ,31.30482 
128 ,24.6664 ,0.99074 ,3.16651 ,31.06977 
129 ,24.8585 ,0.99270 ,3.13571 ,30.76757 
130 ,25.0341 ,0.99448 ,3.12544 ,30.66683 
131 ,25.2264 ,0.99639 ,3.10491 ,30.46536 
132 ,25.4189 ,0.99827 ,3.09464 ,30.36463 
133 ,25.5944 ,1.00015 ,3.07753 ,30.19674 
134 ,25.7866 ,1.00194 ,3.06384 ,30.06242 
135 ,25.9791 ,1.00385 ,3.03989 ,29.82737 
136 ,26.1712 ,1.00576 ,3.02620 ,29.69306 
137 ,26.3790 ,1.00786 ,2.99882 ,29.42444 
138 ,26.5552 ,1.00969 ,2.98171 ,29.25654 
139 ,26.7310 ,1.01144 ,2.98171 ,29.25654 
140 ,26.9231 ,1.01334 ,2.95776 ,29.02150 
141 ,27.1150 ,1.01523 ,2.94407 ,28.88718 
142 ,27.2915 ,1.01708 ,2.93380 ,28.78645 
143 ,27.4836 ,1.01899 ,2.90300 ,28.48424 
144 ,27.6598 ,1.02074 ,2.88589 ,28.31635 
145 ,27.8518 ,1.02261 ,2.88589 ,28.31635 
146 ,28.0599 ,1.02471 ,2.85509 ,28.01415 
147 ,28.2520 ,1.02654 ,2.84825 ,27.94699 
148 ,28.4438 ,1.02854 ,2.81745 ,27.64479 
149 ,28.6362 ,1.03045 ,2.82087 ,27.67836 
150 ,28.8437 ,1.03250 ,2.77980 ,27.27542 
151 ,29.0361 ,1.03446 ,2.77638 ,27.24185 
152 ,29.2283 ,1.03632 ,2.75243 ,27.00680 
153 ,29.4364 ,1.03845 ,2.74216 ,26.90606 
154 ,29.6285 ,1.04037 ,2.71136 ,26.60386 
155 ,29.8363 ,1.04246 ,2.70794 ,26.57028 
156 ,30.0126 ,1.04431 ,2.69083 ,26.40239 
157 ,30.2208 ,1.04623 ,2.66345 ,26.13376 
158 ,30.3968 ,1.04808 ,2.64976 ,25.99945 
159 ,30.6050 ,1.05011 ,2.61896 ,25.69724 
160 ,30.7969 ,1.05209 ,2.61212 ,25.63009 
161 ,30.9727 ,1.05392 ,2.60527 ,25.56293 
162 ,31.1652 ,1.05575 ,2.58474 ,25.36146 
163 ,31.3732 ,1.05781 ,2.56763 ,25.19357 
164 ,31.5653 ,1.05972 ,2.53341 ,24.85779 
165 ,31.7573 ,1.06161 ,2.52998 ,24.82421 
166 ,31.9493 ,1.06365 ,2.54025 ,24.92494 
167 ,32.1413 ,1.06552 ,2.50261 ,24.55558 
168 ,32.3498 ,1.06753 ,2.48550 ,24.38769 
169 ,32.5577 ,1.06969 ,2.44785 ,24.01833 
170 ,32.7658 ,1.07168 ,2.44443 ,23.98475 
171 ,32.9578 ,1.07366 ,2.44785 ,24.01833 
172 ,33.1497 ,1.07568 ,2.42390 ,23.78328 
173 ,33.3421 ,1.07748 ,2.38625 ,23.41392 
174 ,33.5342 ,1.07944 ,2.39310 ,23.48108 
175 ,33.7262 ,1.08133 ,2.37599 ,23.31318 
176 ,33.9343 ,1.08339 ,2.36230 ,23.17887 
177 ,34.1261 ,1.08528 ,2.33834 ,22.94382 
178 ,34.3024 ,1.08721 ,2.30070 ,22.57446 
179 ,34.4945 ,1.08900 ,2.29728 ,22.54088 
180 ,34.6865 ,1.09091 ,2.29728 ,22.54088 
181 ,34.8946 ,1.09301 ,2.27332 ,22.30584 
182 ,35.0867 ,1.09495 ,2.26306 ,22.20510 
183 ,35.2789 ,1.09683 ,2.23226 ,21.90290 
184 ,35.4869 ,1.09892 ,2.23568 ,21.93647 
185 ,35.6947 ,1.10099 ,2.20830 ,21.66785 
186 ,35.8871 ,1.10298 ,2.18435 ,21.43280 
187 ,36.0949 ,1.10505 ,2.17750 ,21.36564 
188 ,36.2714 ,1.10685 ,2.15697 ,21.16417 
189 ,36.4630 ,1.10882 ,2.13644 ,20.96270 
190 ,36.6554 ,1.11056 ,2.10906 ,20.69408 
191 ,36.8633 ,1.11268 ,2.10564 ,20.66050 
192 ,37.0556 ,1.11461 ,2.08510 ,20.45903 
193 ,37.2314 ,1.11644 ,2.08852 ,20.49261 
194 ,37.4398 ,1.11847 ,2.05773 ,20.19040 
195 ,37.6314 ,1.12038 ,2.05430 ,20.15682 
196 ,37.8240 ,1.12227 ,2.02693 ,19.88820 
197 ,38.0157 ,1.12421 ,2.01324 ,19.75388 
198 ,38.2080 ,1.12617 ,2.01324 ,19.75388 
199 ,38.4161 ,1.12816 ,1.99270 ,19.55241 
200 ,38.6078 ,1.13015 ,1.97902 ,19.41810 
201 ,38.8001 ,1.13203 ,1.95848 ,19.21663 
202 ,38.9921 ,1.13396 ,1.95506 ,19.18305 
203 ,39.1682 ,1.13577 ,1.95164 ,19.14948 
204 ,39.3606 ,1.13768 ,1.91399 ,18.78011 
205 ,39.5685 ,1.13974 ,1.91742 ,18.81369 
206 ,39.7607 ,1.14169 ,1.88319 ,18.47791 
207 ,39.9688 ,1.14373 ,1.87977 ,18.44433 
208 ,40.1609 ,1.14565 ,1.85240 ,18.17570 
209 ,40.3688 ,1.14769 ,1.85240 ,18.17570 
210 ,40.5610 ,1.14957 ,1.81133 ,17.77276 
211 ,40.7527 ,1.15159 ,1.81133 ,17.77276 
212 ,40.9612 ,1.15351 ,1.79764 ,17.63845 
213 ,41.1532 ,1.15558 ,1.78395 ,17.50414 
214 ,41.3614 ,1.15768 ,1.76342 ,17.30267 
215 ,41.5694 ,1.15973 ,1.76684 ,17.33625 
216 ,41.7615 ,1.16169 ,1.73262 ,17.00046 
217 ,41.9535 ,1.16363 ,1.73262 ,17.00046 
218 ,42.1456 ,1.16559 ,1.70866 ,16.76542 
219 ,42.3378 ,1.16743 ,1.69155 ,16.59752 
220 ,42.5298 ,1.16935 ,1.69498 ,16.63110 
221 ,42.7219 ,1.17129 ,1.67444 ,16.42963 
222 ,42.9135 ,1.17320 ,1.65049 ,16.19458 
223 ,43.1056 ,1.17508 ,1.64022 ,16.09385 
224 ,43.2817 ,1.17695 ,1.62311 ,15.92596 
225 ,43.4740 ,1.17878 ,1.60942 ,15.79164 
226 ,43.6823 ,1.18088 ,1.60942 ,15.79164 
227 ,43.8904 ,1.18284 ,1.58889 ,15.59018 
228 ,44.0983 ,1.18498 ,1.56493 ,15.35513 
229 ,44.2744 ,1.18687 ,1.57520 ,15.45586 
230 ,44.4507 ,1.18861 ,1.56151 ,15.32155 
231 ,44.6426 ,1.19058 ,1.52729 ,14.98577 
232 ,44.8347 ,1.19235 ,1.51702 ,14.88503 
233 ,45.0264 ,1.19431 ,1.51702 ,14.88503 
234 ,45.2185 ,1.19623 ,1.48280 ,14.54925 
235 ,45.3949 ,1.19807 ,1.46911 ,14.41493 
236 ,45.6030 ,1.20001 ,1.46569 ,14.38136 
237 ,45.7949 ,1.20196 ,1.45542 ,14.28062 
238 ,45.9870 ,1.20400 ,1.44174 ,14.14631 
239 ,46.1628 ,1.20568 ,1.43831 ,14.11273 
240 ,46.3555 ,1.20757 ,1.41778 ,13.91126 
241 ,46.5633 ,1.20967 ,1.41436 ,13.87768 
242 ,46.7555 ,1.21158 ,1.38356 ,13.57548 
243 ,46.9475 ,1.21347 ,1.38356 ,13.57548 
244 ,47.1237 ,1.21532 ,1.37329 ,13.47474 
245 ,47.3157 ,1.21716 ,1.34591 ,13.20612 
246 ,47.5077 ,1.21914 ,1.36303 ,13.37401 
247 ,47.6999 ,1.22097 ,1.33223 ,13.07180 
248 ,47.9078 ,1.22305 ,1.32196 ,12.97107 
249 ,48.1001 ,1.22497 ,1.27747 ,12.53455 
250 ,48.2758 ,1.22682 ,1.28089 ,12.56813 
251 ,48.4682 ,1.22875 ,1.28089 ,12.56813 
252 ,48.6761 ,1.23073 ,1.25694 ,12.33308 
253 ,48.8523 ,1.23263 ,1.24667 ,12.23235 
254 ,49.0285 ,1.23439 ,1.24325 ,12.19877 
255 ,49.2526 ,1.23655 ,1.23298 ,12.09803 
256 ,49.4606 ,1.23860 ,1.19876 ,11.76225 
257 ,49.6527 ,1.24055 ,1.19192 ,11.69509 
258 ,49.8608 ,1.24262 ,1.18165 ,11.59436 
259 ,50.0367 ,1.24446 ,1.17138 ,11.49362 
260 ,50.2287 ,1.24628 ,1.16112 ,11.39289 
261 ,50.4050 ,1.24812 ,1.14401 ,11.22500 
262 ,50.6132 ,1.25007 ,1.11663 ,10.95637 
263 ,50.8212 ,1.25223 ,1.10294 ,10.82206 
264 ,50.9972 ,1.25405 ,1.10294 ,10.82206 
265 ,51.1893 ,1.25586 ,1.10979 ,10.88921 
266 ,51.3814 ,1.25787 ,1.07899 ,10.58701 
267 ,51.5730 ,1.25974 ,1.06187 ,10.41912 
268 ,51.7654 ,1.26163 ,1.06530 ,10.45270 
269 ,51.9736 ,1.26370 ,1.04476 ,10.25123 
270 ,52.1336 ,1.26552 ,1.04134 ,10.21765 
271 ,52.3098 ,1.26717 ,1.01396 ,9.94902 
272 ,52.5178 ,1.26914 ,0.99343 ,9.74755 
273 ,52.7098 ,1.27109 ,0.99685 ,9.78113 
274 ,52.9180 ,1.27318 ,0.97290 ,9.54608 
275 ,53.1101 ,1.27511 ,0.96605 ,9.47892 
276 ,53.3022 ,1.27701 ,0.94894 ,9.31103 
277 ,53.4943 ,1.27893 ,0.93525 ,9.17672 
278 ,53.7019 ,1.28097 ,0.91814 ,9.00883 
279 ,53.8944 ,1.28291 ,0.89761 ,8.80736 
280 ,54.0864 ,1.28497 ,0.90788 ,8.90809 
281 ,54.2625 ,1.28669 ,0.90103 ,8.84094 
282 ,54.4388 ,1.28848 ,0.87366 ,8.57231 
283 ,54.6308 ,1.29030 ,0.86681 ,8.50515 
284 ,54.8227 ,1.29234 ,0.85312 ,8.37084 
285 ,55.0149 ,1.29408 ,0.83601 ,8.20295 
286 ,55.2070 ,1.29604 ,0.84286 ,8.27011 
287 ,55.3992 ,1.29792 ,0.82232 ,8.06864 
288 ,55.6070 ,1.30005 ,0.80521 ,7.90074 
289 ,55.7835 ,1.30187 ,0.81548 ,8.00148 
290 ,55.9913 ,1.30381 ,0.78126 ,7.66570 
291 ,56.1994 ,1.30601 ,0.77441 ,7.59854 
292 ,56.3914 ,1.30791 ,0.74704 ,7.32991 
293 ,56.5676 ,1.30970 ,0.75388 ,7.39707 
294 ,56.7597 ,1.31155 ,0.71624 ,7.02771 
295 ,56.9513 ,1.31349 ,0.71281 ,6.99413 
296 ,57.1440 ,1.31542 ,0.72308 ,7.09486 
297 ,57.3521 ,1.31746 ,0.70255 ,6.89340 
298 ,57.5441 ,1.31941 ,0.69228 ,6.79266 
299 ,57.7360 ,1.32132 ,0.67175 ,6.59119 
300 ,57.9121 ,1.32314 ,0.65121 ,6.38972 
301 ,58.0719 ,1.32489 ,0.65464 ,6.42330 
302 ,58.2483 ,1.32648 ,0.65121 ,6.38972 
303 ,58.4559 ,1.32858 ,0.62042 ,6.08752 
304 ,58.6323 ,1.33034 ,0.61015 ,5.98678 
305 ,58.8244 ,1.33219 ,0.62042 ,6.08752 
306 ,59.0006 ,1.33400 ,0.59988 ,5.88605 
307 ,59.2086 ,1.33605 ,0.58277 ,5.71815 
308 ,59.4328 ,1.33818 ,0.56566 ,5.55026 
309 ,59.6565 ,1.34051 ,0.54171 ,5.31522 
310 ,59.8490 ,1.34242 ,0.55539 ,5.44953 
311 ,60.0406 ,1.34439 ,0.53828 ,5.28164 
312 ,60.2006 ,1.34615 ,0.52117 ,5.11375 
313 ,60.3928 ,1.34790 ,0.50748 ,4.97943 
314 ,60.5852 ,1.34977 ,0.51091 ,5.01301 
315 ,60.7770 ,1.35177 ,0.49380 ,4.84512 
316 ,60.9851 ,1.35387 ,0.49037 ,4.81154 
317 ,61.1611 ,1.35560 ,0.48695 ,4.77796 
318 ,61.3536 ,1.35744 ,0.45957 ,4.50934 
319 ,61.5612 ,1.35956 ,0.44588 ,4.37502 
320 ,61.7374 ,1.36143 ,0.42877 ,4.20713 
321 ,61.9296 ,1.36327 ,0.43220 ,4.24071 
322 ,62.1219 ,1.36516 ,0.42193 ,4.13997 
323 ,62.3136 ,1.36709 ,0.39455 ,3.87135 
324 ,62.5059 ,1.36901 ,0.40824 ,4.00566 
325 ,62.7137 ,1.37111 ,0.37744 ,3.70346 
326 ,62.8902 ,1.37292 ,0.36718 ,3.60272 
327 ,63.0980 ,1.37491 ,0.36033 ,3.53557 
328 ,63.3062 ,1.37700 ,0.36718 ,3.60272 
329 ,63.4663 ,1.37878 ,0.34664 ,3.40125 
330 ,63.6424 ,1.38044 ,0.35006 ,3.43483 
331 ,63.8345 ,1.38226 ,0.31242 ,3.06547 
332 ,64.0265 ,1.38423 ,0.31584 ,3.09905 
333 ,64.2346 ,1.38630 ,0.29873 ,2.93116 
334 ,64.4108 ,1.38807 ,0.29189 ,2.86400 
335 ,64.6029 ,1.38995 ,0.27478 ,2.69611 
336 ,64.8110 ,1.39202 ,0.27135 ,2.66253 
337 ,65.0030 ,1.39398 ,0.26109 ,2.56179 
338 ,65.1947 ,1.39592 ,0.23371 ,2.29317 
339 ,65.3711 ,1.39771 ,0.23713 ,2.32675 
340 ,65.5629 ,1.39959 ,0.23371 ,2.29317 
341 ,65.7550 ,1.40151 ,0.19607 ,1.92381 
342 ,65.9475 ,1.40344 ,0.22687 ,2.22601 
343 ,66.1394 ,1.40535 ,0.19607 ,1.92381 
344 ,66.3155 ,1.40711 ,0.18238 ,1.78949 
345 ,66.5234 ,1.40915 ,0.17896 ,1.75592 
346 ,66.7155 ,1.41109 ,0.16185 ,1.58802 
347 ,66.9237 ,1.41317 ,0.15842 ,1.55445 
348 ,67.0996 ,1.41501 ,0.14816 ,1.45371 
349 ,67.3079 ,1.41701 ,0.13789 ,1.35298 
350 ,67.5160 ,1.41908 ,0.11051 ,1.08435 
351 ,67.6918 ,1.42088 ,0.09682 ,0.95004 
352 ,67.8842 ,1.42282 ,0.10709 ,1.05077 
353 ,68.0922 ,1.42489 ,0.07971 ,0.78214 
354 ,68.2844 ,1.42680 ,0.08656 ,0.84930 
355 ,68.4762 ,1.42870 ,0.05576 ,0.54710 
356 ,68.6684 ,1.43058 ,0.07287 ,0.71499 
357 ,68.8442 ,1.43246 ,0.03865 ,0.37920 
358 ,69.0366 ,1.43429 ,0.02496 ,0.24489 
359 ,69.2287 ,1.43623 ,0.03180 ,0.31205 
360 ,69.4207 ,1.43817 ,0.01811 ,0.17773 
361 ,69.5968 ,1.43996 ,0.00443 ,0.04342 
362 ,69.7889 ,1.44189 ,0.00785 ,0.07700 
363 ,69.9811 ,1.44377 ,0.00443 ,0.04342 
364 ,70.1411 ,1.44550 ,-0.01611 ,-0.15805 
365 ,70.3171 ,1.44719 ,-0.02980 ,-0.29236 
366 ,70.5093 ,1.44900 ,-0.02980 ,-0.29236 
367 ,70.7014 ,1.45095 ,-0.05375 ,-0.52741 
368 ,70.9095 ,1.45294 ,-0.06744 ,-0.66172 
369 ,71.1174 ,1.45506 ,-0.06744 ,-0.66172 
370 ,71.3256 ,1.45713 ,-0.07771 ,-0.76246 
371 ,71.5177 ,1.45906 ,-0.09482 ,-0.93035 
372 ,71.7097 ,1.46110 ,-0.08797 ,-0.86319 
373 ,71.9179 ,1.46301 ,-0.11535 ,-1.13182 
374 ,72.1257 ,1.46516 ,-0.11193 ,-1.09824 
375 ,72.3179 ,1.46706 ,-0.13246 ,-1.29971 
376 ,72.4940 ,1.46898 ,-0.12904 ,-1.26613 
377 ,72.6702 ,1.47066 ,-0.14615 ,-1.43402 
378 ,72.8622 ,1.47254 ,-0.15299 ,-1.50118 
379 ,73.0382 ,1.47430 ,-0.17011 ,-1.66907 
380 ,73.2460 ,1.47639 ,-0.15642 ,-1.53476 
381 ,73.4384 ,1.47836 ,-0.18379 ,-1.80338 
382 ,73.6144 ,1.48015 ,-0.17695 ,-1.73623 
383 ,73.7905 ,1.48188 ,-0.21117 ,-2.07201 
384 ,73.9826 ,1.48378 ,-0.21117 ,-2.07201 
385 ,74.1745 ,1.48566 ,-0.22144 ,-2.17275 
386 ,74.3669 ,1.48760 ,-0.22486 ,-2.20632 
387 ,74.5749 ,1.48964 ,-0.24539 ,-2.40779 
388 ,74.7511 ,1.49149 ,-0.24881 ,-2.44137 
389 ,74.9428 ,1.49335 ,-0.26935 ,-2.64284 
390 ,75.1191 ,1.49515 ,-0.27277 ,-2.67642 
391 ,75.3107 ,1.49701 ,-0.26250 ,-2.57569 
392 ,75.5032 ,1.49894 ,-0.28304 ,-2.77716 
393 ,75.7113 ,1.50102 ,-0.28988 ,-2.84431 
394 ,75.8873 ,1.50287 ,-0.28988 ,-2.84431 
395 ,76.0794 ,1.50474 ,-0.32068 ,-3.14652 
396 ,76.2875 ,1.50681 ,-0.31384 ,-3.07936 
397 ,76.5117 ,1.50889 ,-0.34806 ,-3.41514 
398 ,76.7036 ,1.51093 ,-0.35832 ,-3.51588 
399 ,76.8953 ,1.51283 ,-0.36517 ,-3.58303 
400 ,77.0878 ,1.51478 ,-0.36175 ,-3.54946 
401 ,77.2958 ,1.51683 ,-0.38228 ,-3.75093 
402 ,77.4715 ,1.51869 ,-0.37201 ,-3.65019 
403 ,77.6642 ,1.52057 ,-0.39597 ,-3.88524 
404 ,77.8563 ,1.52248 ,-0.40966 ,-4.01955 
405 ,78.0643 ,1.52455 ,-0.42677 ,-4.18744 
406 ,78.2560 ,1.52645 ,-0.43019 ,-4.22102 
407 ,78.4486 ,1.52835 ,-0.43019 ,-4.22102 
408 ,78.6562 ,1.53045 ,-0.45072 ,-4.42249 
409 ,78.8485 ,1.53243 ,-0.44730 ,-4.38891 
410 ,79.0247 ,1.53418 ,-0.45072 ,-4.42249 
411 ,79.2327 ,1.53623 ,-0.46783 ,-4.59038 
412 ,79.4410 ,1.53830 ,-0.49179 ,-4.82543 
413 ,79.6325 ,1.54036 ,-0.47126 ,-4.62396 
414 ,79.8251 ,1.54214 ,-0.51232 ,-5.02690 
415 ,80.0330 ,1.54421 ,-0.50890 ,-4.99332 
416 ,80.2251 ,1.54615 ,-0.51917 ,-5.09406 
417 ,80.4172 ,1.54804 ,-0.51574 ,-5.06048 
418 ,80.6093 ,1.55001 ,-0.52259 ,-5.12764 
419 ,80.8014 ,1.55190 ,-0.54997 ,-5.39626 
420 ,80.9935 ,1.55387 ,-0.54654 ,-5.36268 
421 ,81.1854 ,1.55578 ,-0.55681 ,-5.46342 
422 ,81.3776 ,1.55766 ,-0.58419 ,-5.73205 
423 ,81.5697 ,1.55961 ,-0.56708 ,-5.56415 
424 ,81.7613 ,1.56151 ,-0.60472 ,-5.93352 
425 ,81.9538 ,1.56346 ,-0.59788 ,-5.86636 
426 ,82.1459 ,1.56543 ,-0.61499 ,-6.03425 
427 ,82.3380 ,1.56728 ,-0.62868 ,-6.16856 
428 ,82.5459 ,1.56937 ,-0.63552 ,-6.23572 
429 ,82.7382 ,1.57127 ,-0.65263 ,-6.40361 
430 ,82.9302 ,1.57317 ,-0.63552 ,-6.23572 
431 ,83.1222 ,1.57514 ,-0.65947 ,-6.47077 
432 ,83.2984 ,1.57689 ,-0.68001 ,-6.67224 
433 ,83.5064 ,1.57893 ,-0.66632 ,-6.53793 
434 ,83.7146 ,1.58104 ,-0.68343 ,-6.70582 
435 ,83.9222 ,1.58310 ,-0.70054 ,-6.87371 
436 ,84.1147 ,1.58503 ,-0.69712 ,-6.84013 
437 ,84.3225 ,1.58706 ,-0.71081 ,-6.97444 
438 ,84.5150 ,1.58903 ,-0.71765 ,-7.04160 
439 ,84.7230 ,1.59113 ,-0.73818 ,-7.24307 
440 ,84.9149 ,1.59301 ,-0.73476 ,-7.20949 
441 ,85.0908 ,1.59484 ,-0.73818 ,-7.24307 
442 ,85.2833 ,1.59675 ,-0.75530 ,-7.41096 
443 ,85.4751 ,1.59862 ,-0.76898 ,-7.54527 
444 ,85.6673 ,1.60057 ,-0.75530 ,-7.41096 
445 ,85.8751 ,1.60264 ,-0.78610 ,-7.71317 
446 ,86.0512 ,1.60449 ,-0.79978 ,-7.84748 
447 ,86.2434 ,1.60633 ,-0.79636 ,-7.81390 
448 ,86.4518 ,1.60841 ,-0.79636 ,-7.81390 
449 ,86.6597 ,1.61035 ,-0.82374 ,-8.08253 
450 ,86.8520 ,1.61238 ,-0.80663 ,-7.91464 
451 ,87.0599 ,1.61440 ,-0.84085 ,-8.25042 
452 ,87.2515 ,1.61640 ,-0.83401 ,-8.18326 
453 ,87.4435 ,1.61830 ,-0.86138 ,-8.45189 
454 ,87.6357 ,1.62022 ,-0.86481 ,-8.48547 
455 ,87.8603 ,1.62249 ,-0.86481 ,-8.48547 
456 ,88.0683 ,1.62453 ,-0.87165 ,-8.55262 
457 ,88.2600 ,1.62646 ,-0.90245 ,-8.85483 
458 ,88.4526 ,1.62838 ,-0.89218 ,-8.75409 
459 ,88.6606 ,1.63045 ,-0.91272 ,-8.95556 
460 ,88.8529 ,1.63239 ,-0.90245 ,-8.85483 
461 ,89.0605 ,1.63447 ,-0.92298 ,-9.05630 
462 ,89.2530 ,1.63638 ,-0.91272 ,-8.95556 
463 ,89.4449 ,1.63829 ,-0.94009 ,-9.22419 
