Data stamp = , 27-04-2022 16:17:30 141

Calibration Values: 
Slope = , 26.54 , g/V 
Offset Voltage at no contact = , -0.501760 , V 

No , Time , Stage Position ,   Mass , Force 
   ,  (s) ,      (mm)      ,   (g)  , (mN)  

1 ,0.0000 ,0.74936 ,5.28483 ,51.85474 
2 ,0.2918 ,0.74955 ,5.27798 ,51.78758 
3 ,0.6920 ,0.75102 ,5.27114 ,51.72043 
4 ,0.9000 ,0.75312 ,5.27456 ,51.75401 
5 ,1.0922 ,0.75494 ,5.27798 ,51.78758 
6 ,1.2846 ,0.75685 ,5.27456 ,51.75401 
7 ,1.4761 ,0.75883 ,5.28141 ,51.82116 
8 ,1.6847 ,0.76087 ,5.26772 ,51.68685 
9 ,1.8928 ,0.76306 ,5.25061 ,51.51896 
10 ,2.0848 ,0.76495 ,5.23692 ,51.38464 
11 ,2.2767 ,0.76682 ,5.23692 ,51.38464 
12 ,2.4689 ,0.76880 ,5.21296 ,51.14960 
13 ,2.6448 ,0.77062 ,5.20612 ,51.08244 
14 ,2.8211 ,0.77236 ,5.16163 ,50.64592 
15 ,3.0130 ,0.77418 ,5.16505 ,50.67950 
16 ,3.2054 ,0.77612 ,5.12056 ,50.24298 
17 ,3.4133 ,0.77819 ,5.11714 ,50.20940 
18 ,3.6054 ,0.78010 ,5.08634 ,49.90720 
19 ,3.7973 ,0.78211 ,5.08634 ,49.90720 
20 ,3.9895 ,0.78402 ,5.06581 ,49.70573 
21 ,4.1813 ,0.78589 ,5.05897 ,49.63857 
22 ,4.3575 ,0.78771 ,5.04185 ,49.47068 
23 ,4.5497 ,0.78959 ,5.01448 ,49.20205 
24 ,4.7415 ,0.79151 ,4.99394 ,49.00058 
25 ,4.9178 ,0.79339 ,4.96999 ,48.76554 
26 ,5.1099 ,0.79524 ,4.96999 ,48.76554 
27 ,5.3020 ,0.79712 ,4.94603 ,48.53049 
28 ,5.4942 ,0.79900 ,4.91523 ,48.22828 
29 ,5.7020 ,0.80100 ,4.89812 ,48.06039 
30 ,5.8778 ,0.80303 ,4.88101 ,47.89250 
31 ,6.0703 ,0.80476 ,4.85364 ,47.62387 
32 ,6.2627 ,0.80671 ,4.84679 ,47.55672 
33 ,6.4703 ,0.80865 ,4.82968 ,47.38883 
34 ,6.6628 ,0.81071 ,4.79546 ,47.05304 
35 ,6.8705 ,0.81284 ,4.78519 ,46.95231 
36 ,7.0628 ,0.81472 ,4.75439 ,46.65010 
37 ,7.2708 ,0.81673 ,4.73044 ,46.41506 
38 ,7.4467 ,0.81859 ,4.72702 ,46.38148 
39 ,7.6549 ,0.82062 ,4.71333 ,46.24716 
40 ,7.8472 ,0.82253 ,4.67911 ,45.91138 
41 ,8.0387 ,0.82448 ,4.68253 ,45.94496 
42 ,8.2313 ,0.82639 ,4.64488 ,45.57560 
43 ,8.4232 ,0.82831 ,4.62435 ,45.37413 
44 ,8.6148 ,0.83019 ,4.62777 ,45.40771 
45 ,8.8236 ,0.83232 ,4.59355 ,45.07192 
46 ,9.0316 ,0.83435 ,4.56617 ,44.80330 
47 ,9.2236 ,0.83627 ,4.56617 ,44.80330 
48 ,9.3998 ,0.83814 ,4.54906 ,44.63541 
49 ,9.6079 ,0.84008 ,4.51142 ,44.26604 
50 ,9.7999 ,0.84200 ,4.51484 ,44.29962 
51 ,9.9920 ,0.84398 ,4.47378 ,43.89668 
52 ,10.1839 ,0.84594 ,4.46351 ,43.79595 
53 ,10.3760 ,0.84783 ,4.46009 ,43.76237 
54 ,10.5843 ,0.84989 ,4.44298 ,43.59448 
55 ,10.7762 ,0.85182 ,4.43955 ,43.56090 
56 ,10.9524 ,0.85362 ,4.40191 ,43.19154 
57 ,11.1446 ,0.85550 ,4.38138 ,42.99007 
58 ,11.3201 ,0.85733 ,4.37453 ,42.92291 
59 ,11.5125 ,0.85921 ,4.35058 ,42.68786 
60 ,11.7046 ,0.86109 ,4.32662 ,42.45282 
61 ,11.8965 ,0.86298 ,4.30951 ,42.28492 
62 ,12.1048 ,0.86503 ,4.28898 ,42.08345 
63 ,12.2970 ,0.86703 ,4.28213 ,42.01630 
64 ,12.4726 ,0.86889 ,4.25476 ,41.74767 
65 ,12.6647 ,0.87070 ,4.25818 ,41.78125 
66 ,12.8568 ,0.87257 ,4.23765 ,41.57978 
67 ,13.0488 ,0.87458 ,4.21027 ,41.31115 
68 ,13.2574 ,0.87655 ,4.18631 ,41.07611 
69 ,13.4972 ,0.87901 ,4.17605 ,40.97537 
70 ,13.6734 ,0.88090 ,4.13840 ,40.60601 
71 ,13.8817 ,0.88286 ,4.13840 ,40.60601 
72 ,14.0738 ,0.88481 ,4.11103 ,40.33738 
73 ,14.2656 ,0.88669 ,4.08365 ,40.06876 
74 ,14.4739 ,0.88879 ,4.08365 ,40.06876 
75 ,14.6655 ,0.89068 ,4.05285 ,39.76655 
76 ,14.8581 ,0.89258 ,4.05969 ,39.83371 
77 ,15.0660 ,0.89469 ,4.01178 ,39.36361 
78 ,15.2743 ,0.89679 ,3.99125 ,39.16214 
79 ,15.4824 ,0.89889 ,3.98441 ,39.09499 
80 ,15.6743 ,0.90074 ,3.96729 ,38.92709 
81 ,15.8665 ,0.90269 ,3.93992 ,38.65847 
82 ,16.0745 ,0.90473 ,3.93992 ,38.65847 
83 ,16.2668 ,0.90667 ,3.91938 ,38.45700 
84 ,16.4589 ,0.90867 ,3.91254 ,38.38984 
85 ,16.6506 ,0.91058 ,3.86805 ,37.95332 
86 ,16.8425 ,0.91244 ,3.86121 ,37.88617 
87 ,17.0511 ,0.91443 ,3.84752 ,37.75185 
88 ,17.2426 ,0.91644 ,3.81672 ,37.44965 
89 ,17.4350 ,0.91841 ,3.82014 ,37.48323 
90 ,17.6108 ,0.92020 ,3.78934 ,37.18102 
91 ,17.8033 ,0.92208 ,3.76881 ,36.97955 
92 ,17.9951 ,0.92392 ,3.75170 ,36.81166 
93 ,18.1875 ,0.92593 ,3.72432 ,36.54303 
94 ,18.3634 ,0.92779 ,3.73117 ,36.61019 
95 ,18.5716 ,0.92975 ,3.68668 ,36.17367 
96 ,18.7797 ,0.93179 ,3.69010 ,36.20725 
97 ,18.9713 ,0.93374 ,3.67641 ,36.07294 
98 ,19.1639 ,0.93565 ,3.64903 ,35.80431 
99 ,19.3560 ,0.93766 ,3.63534 ,35.67000 
100 ,19.5480 ,0.93954 ,3.60797 ,35.40137 
101 ,19.7401 ,0.94144 ,3.61139 ,35.43495 
102 ,19.9321 ,0.94334 ,3.58401 ,35.16632 
103 ,20.1077 ,0.94530 ,3.54979 ,34.83054 
104 ,20.3003 ,0.94700 ,3.54295 ,34.76338 
105 ,20.4924 ,0.94901 ,3.52584 ,34.59549 
106 ,20.6843 ,0.95085 ,3.50872 ,34.42760 
107 ,20.8763 ,0.95280 ,3.49846 ,34.32687 
108 ,21.0685 ,0.95476 ,3.47450 ,34.09182 
109 ,21.2443 ,0.95651 ,3.46081 ,33.95751 
110 ,21.4368 ,0.95836 ,3.45397 ,33.89035 
111 ,21.6288 ,0.96028 ,3.41975 ,33.55457 
112 ,21.8209 ,0.96223 ,3.42317 ,33.58814 
113 ,22.0290 ,0.96432 ,3.38553 ,33.21878 
114 ,22.2207 ,0.96627 ,3.38210 ,33.18520 
115 ,22.4132 ,0.96820 ,3.35473 ,32.91658 
116 ,22.6209 ,0.97022 ,3.34788 ,32.84942 
117 ,22.7971 ,0.97199 ,3.34104 ,32.78227 
118 ,22.9894 ,0.97385 ,3.28971 ,32.27859 
119 ,23.1975 ,0.97595 ,3.29655 ,32.34575 
120 ,23.3729 ,0.97786 ,3.26233 ,32.00996 
121 ,23.5658 ,0.97965 ,3.23837 ,31.77492 
122 ,23.7576 ,0.98161 ,3.24864 ,31.87565 
123 ,23.9657 ,0.98363 ,3.20757 ,31.47271 
124 ,24.1577 ,0.98558 ,3.21784 ,31.57345 
125 ,24.3498 ,0.98754 ,3.18704 ,31.27124 
126 ,24.5259 ,0.98927 ,3.14597 ,30.86830 
127 ,24.7180 ,0.99123 ,3.16309 ,31.03619 
128 ,24.9095 ,0.99312 ,3.12886 ,30.70041 
129 ,25.1021 ,0.99506 ,3.12544 ,30.66683 
130 ,25.3101 ,0.99710 ,3.09464 ,30.36463 
131 ,25.5019 ,0.99904 ,3.08780 ,30.29747 
132 ,25.6944 ,1.00090 ,3.08438 ,30.26389 
133 ,25.9023 ,1.00306 ,3.05015 ,29.92811 
134 ,26.0946 ,1.00491 ,3.05358 ,29.96169 
135 ,26.3027 ,1.00701 ,3.01935 ,29.62590 
136 ,26.5107 ,1.00899 ,2.99198 ,29.35728 
137 ,26.7187 ,1.01115 ,2.97829 ,29.22297 
138 ,26.9267 ,1.01325 ,2.94064 ,28.85360 
139 ,27.1188 ,1.01529 ,2.94407 ,28.88718 
140 ,27.3108 ,1.01711 ,2.93380 ,28.78645 
141 ,27.5192 ,1.01917 ,2.92353 ,28.68571 
142 ,27.7108 ,1.02108 ,2.88931 ,28.34993 
143 ,27.9193 ,1.02309 ,2.86536 ,28.11488 
144 ,28.1114 ,1.02511 ,2.85509 ,28.01415 
145 ,28.3194 ,1.02713 ,2.85851 ,28.04772 
146 ,28.4955 ,1.02902 ,2.82429 ,27.71194 
147 ,28.7035 ,1.03102 ,2.78665 ,27.34258 
148 ,28.8795 ,1.03282 ,2.77638 ,27.24185 
149 ,29.0879 ,1.03489 ,2.77296 ,27.20827 
150 ,29.2799 ,1.03677 ,2.75243 ,27.00680 
151 ,29.4881 ,1.03884 ,2.72163 ,26.70459 
152 ,29.6800 ,1.04077 ,2.72505 ,26.73817 
153 ,29.8878 ,1.04284 ,2.70452 ,26.53670 
154 ,30.0638 ,1.04473 ,2.68740 ,26.36881 
155 ,30.2399 ,1.04644 ,2.66003 ,26.10018 
156 ,30.4323 ,1.04829 ,2.67372 ,26.23450 
157 ,30.6403 ,1.05037 ,2.63265 ,25.83156 
158 ,30.8166 ,1.05224 ,2.62238 ,25.73082 
159 ,30.9922 ,1.05391 ,2.60869 ,25.59651 
160 ,31.1845 ,1.05582 ,2.58816 ,25.39504 
161 ,31.3769 ,1.05776 ,2.56763 ,25.19357 
162 ,31.5849 ,1.05980 ,2.54710 ,24.99210 
163 ,31.7770 ,1.06173 ,2.54710 ,24.99210 
164 ,31.9689 ,1.06371 ,2.53341 ,24.85779 
165 ,32.1611 ,1.06562 ,2.50603 ,24.58916 
166 ,32.3693 ,1.06762 ,2.49576 ,24.48842 
167 ,32.5614 ,1.06955 ,2.47865 ,24.32053 
168 ,32.7695 ,1.07168 ,2.47523 ,24.28696 
169 ,32.9775 ,1.07374 ,2.44443 ,23.98475 
170 ,33.1531 ,1.07565 ,2.43416 ,23.88402 
171 ,33.3456 ,1.07737 ,2.41021 ,23.64897 
172 ,33.5376 ,1.07929 ,2.40336 ,23.58181 
173 ,33.7299 ,1.08124 ,2.38625 ,23.41392 
174 ,33.9219 ,1.08317 ,2.35203 ,23.07814 
175 ,34.0980 ,1.08496 ,2.34861 ,23.04456 
176 ,34.2900 ,1.08684 ,2.33492 ,22.91024 
177 ,34.4983 ,1.08890 ,2.32123 ,22.77593 
178 ,34.6904 ,1.09083 ,2.30412 ,22.60804 
179 ,34.8984 ,1.09293 ,2.29043 ,22.47373 
180 ,35.0904 ,1.09484 ,2.27332 ,22.30584 
181 ,35.2821 ,1.09678 ,2.24252 ,22.00363 
182 ,35.4746 ,1.09869 ,2.24252 ,22.00363 
183 ,35.6667 ,1.10060 ,2.20830 ,21.66785 
184 ,35.8428 ,1.10245 ,2.19803 ,21.56711 
185 ,36.0509 ,1.10442 ,2.18777 ,21.46638 
186 ,36.2429 ,1.10639 ,2.16381 ,21.23133 
187 ,36.4348 ,1.10830 ,2.15355 ,21.13059 
188 ,36.6113 ,1.11015 ,2.15355 ,21.13059 
189 ,36.8033 ,1.11201 ,2.12617 ,20.86197 
190 ,37.0111 ,1.11408 ,2.11590 ,20.76123 
191 ,37.2032 ,1.11599 ,2.08510 ,20.45903 
192 ,37.3956 ,1.11789 ,2.08510 ,20.45903 
193 ,37.5874 ,1.11991 ,2.07826 ,20.39187 
194 ,37.7955 ,1.12188 ,2.05430 ,20.15682 
195 ,37.9877 ,1.12378 ,2.04746 ,20.08967 
196 ,38.1954 ,1.12587 ,2.03035 ,19.92178 
197 ,38.3720 ,1.12774 ,2.00982 ,19.72031 
198 ,38.5634 ,1.12958 ,1.98586 ,19.48526 
199 ,38.7560 ,1.13153 ,1.98586 ,19.48526 
200 ,38.9640 ,1.13358 ,1.95164 ,19.14948 
201 ,39.1559 ,1.13551 ,1.94479 ,19.08232 
202 ,39.3481 ,1.13740 ,1.93453 ,18.98158 
203 ,39.5404 ,1.13936 ,1.90715 ,18.71296 
204 ,39.7161 ,1.14119 ,1.90715 ,18.71296 
205 ,39.9083 ,1.14300 ,1.89004 ,18.54507 
206 ,40.0841 ,1.14488 ,1.86951 ,18.34360 
207 ,40.2602 ,1.14667 ,1.84555 ,18.10855 
208 ,40.4522 ,1.14844 ,1.84897 ,18.14213 
209 ,40.6609 ,1.15046 ,1.82844 ,17.94066 
210 ,40.8849 ,1.15288 ,1.82502 ,17.90708 
211 ,41.0930 ,1.15488 ,1.79764 ,17.63845 
212 ,41.2686 ,1.15667 ,1.79422 ,17.60487 
213 ,41.4450 ,1.15841 ,1.77711 ,17.43698 
214 ,41.6372 ,1.16030 ,1.75657 ,17.23551 
215 ,41.8448 ,1.16236 ,1.74631 ,17.13478 
216 ,42.0373 ,1.16425 ,1.73946 ,17.06762 
217 ,42.2294 ,1.16622 ,1.73604 ,17.03404 
218 ,42.4214 ,1.16816 ,1.70524 ,16.73184 
219 ,42.5975 ,1.16994 ,1.67444 ,16.42963 
220 ,42.7895 ,1.17182 ,1.68813 ,16.56395 
221 ,42.9653 ,1.17362 ,1.66418 ,16.32890 
222 ,43.1573 ,1.17549 ,1.63338 ,16.02669 
223 ,43.3499 ,1.17746 ,1.66075 ,16.29532 
224 ,43.5417 ,1.17935 ,1.62653 ,15.95954 
225 ,43.7500 ,1.18144 ,1.61969 ,15.89238 
226 ,43.9422 ,1.18336 ,1.58889 ,15.59018 
227 ,44.1342 ,1.18526 ,1.57520 ,15.45586 
228 ,44.3259 ,1.18718 ,1.56836 ,15.38871 
229 ,44.5183 ,1.18905 ,1.55809 ,15.28797 
230 ,44.7102 ,1.19103 ,1.54782 ,15.18724 
231 ,44.8863 ,1.19282 ,1.53756 ,15.08650 
232 ,45.0623 ,1.19461 ,1.51702 ,14.88503 
233 ,45.2548 ,1.19649 ,1.49649 ,14.68356 
234 ,45.4626 ,1.19853 ,1.48965 ,14.61640 
235 ,45.6389 ,1.20038 ,1.46569 ,14.38136 
236 ,45.8466 ,1.20244 ,1.47253 ,14.44851 
237 ,46.0385 ,1.20432 ,1.44174 ,14.14631 
238 ,46.2309 ,1.20623 ,1.44174 ,14.14631 
239 ,46.4070 ,1.20802 ,1.43489 ,14.07915 
240 ,46.5991 ,1.20986 ,1.39725 ,13.70979 
241 ,46.8071 ,1.21194 ,1.39725 ,13.70979 
242 ,46.9833 ,1.21381 ,1.38698 ,13.60906 
243 ,47.1915 ,1.21578 ,1.36303 ,13.37401 
244 ,47.3994 ,1.21793 ,1.35618 ,13.30685 
245 ,47.6077 ,1.21997 ,1.34591 ,13.20612 
246 ,47.7998 ,1.22191 ,1.32538 ,13.00465 
247 ,48.0077 ,1.22400 ,1.32196 ,12.97107 
248 ,48.1999 ,1.22596 ,1.29116 ,12.66886 
249 ,48.3755 ,1.22774 ,1.29800 ,12.73602 
250 ,48.5679 ,1.22955 ,1.28774 ,12.63528 
251 ,48.7602 ,1.23153 ,1.26036 ,12.36666 
252 ,48.9518 ,1.23343 ,1.26036 ,12.36666 
253 ,49.1282 ,1.23521 ,1.23641 ,12.13161 
254 ,49.3041 ,1.23697 ,1.23298 ,12.09803 
255 ,49.4800 ,1.23885 ,1.20561 ,11.82941 
256 ,49.6724 ,1.24063 ,1.20903 ,11.86298 
257 ,49.8805 ,1.24265 ,1.16112 ,11.39289 
258 ,50.0725 ,1.24467 ,1.18165 ,11.59436 
259 ,50.2650 ,1.24656 ,1.17481 ,11.52720 
260 ,50.4568 ,1.24851 ,1.13716 ,11.15784 
261 ,50.6679 ,1.25054 ,1.13716 ,11.15784 
262 ,50.8890 ,1.25275 ,1.13032 ,11.09068 
263 ,51.0968 ,1.25485 ,1.07899 ,10.58701 
264 ,51.2890 ,1.25676 ,1.09610 ,10.75490 
265 ,51.4972 ,1.25891 ,1.06530 ,10.45270 
266 ,51.6888 ,1.26077 ,1.06187 ,10.41912 
267 ,51.8813 ,1.26267 ,1.05503 ,10.35196 
268 ,52.0734 ,1.26462 ,1.04819 ,10.28480 
269 ,52.2653 ,1.26650 ,1.04476 ,10.25123 
270 ,52.4415 ,1.26837 ,1.01396 ,9.94902 
271 ,52.6496 ,1.27035 ,1.01054 ,9.91544 
272 ,52.8417 ,1.27245 ,0.97290 ,9.54608 
273 ,53.0338 ,1.27422 ,0.96948 ,9.51250 
274 ,53.2098 ,1.27599 ,0.97632 ,9.57966 
275 ,53.4020 ,1.27788 ,0.95237 ,9.34461 
276 ,53.5941 ,1.27982 ,0.92499 ,9.07598 
277 ,53.8016 ,1.28180 ,0.92841 ,9.10956 
278 ,53.9779 ,1.28377 ,0.89761 ,8.80736 
279 ,54.1702 ,1.28562 ,0.90446 ,8.87451 
280 ,54.3460 ,1.28737 ,0.90103 ,8.84094 
281 ,54.5543 ,1.28940 ,0.86339 ,8.47158 
282 ,54.7303 ,1.29122 ,0.87023 ,8.53873 
283 ,54.9221 ,1.29309 ,0.86339 ,8.47158 
284 ,55.1143 ,1.29504 ,0.82232 ,8.06864 
285 ,55.3228 ,1.29709 ,0.81890 ,8.03506 
286 ,55.5309 ,1.29908 ,0.79837 ,7.83359 
287 ,55.7389 ,1.30131 ,0.79152 ,7.76643 
288 ,55.9148 ,1.30307 ,0.78126 ,7.66570 
289 ,56.1231 ,1.30507 ,0.77441 ,7.59854 
290 ,56.3312 ,1.30714 ,0.75730 ,7.43065 
291 ,56.5392 ,1.30922 ,0.72992 ,7.16202 
292 ,56.7471 ,1.31129 ,0.74019 ,7.26276 
293 ,56.9394 ,1.31329 ,0.71281 ,6.99413 
294 ,57.1150 ,1.31515 ,0.70597 ,6.92697 
295 ,57.3074 ,1.31695 ,0.71624 ,7.02771 
296 ,57.5155 ,1.31904 ,0.66490 ,6.52403 
297 ,57.7074 ,1.32092 ,0.68886 ,6.75908 
298 ,57.8837 ,1.32273 ,0.68544 ,6.72550 
299 ,58.0756 ,1.32458 ,0.65806 ,6.45688 
300 ,58.2679 ,1.32654 ,0.64437 ,6.32256 
301 ,58.4760 ,1.32861 ,0.61357 ,6.02036 
302 ,58.6682 ,1.33053 ,0.63068 ,6.18825 
303 ,58.8760 ,1.33263 ,0.58962 ,5.78531 
304 ,59.0522 ,1.33451 ,0.60330 ,5.91962 
305 ,59.2443 ,1.33632 ,0.58619 ,5.75173 
306 ,59.4523 ,1.33825 ,0.57251 ,5.61742 
307 ,59.6601 ,1.34046 ,0.55539 ,5.44953 
308 ,59.8689 ,1.34253 ,0.55539 ,5.44953 
309 ,60.0763 ,1.34462 ,0.52802 ,5.18090 
310 ,60.2688 ,1.34655 ,0.52802 ,5.18090 
311 ,60.4447 ,1.34843 ,0.51091 ,5.01301 
312 ,60.6366 ,1.35027 ,0.49722 ,4.87870 
313 ,60.8128 ,1.35206 ,0.48353 ,4.74438 
314 ,61.0206 ,1.35397 ,0.50406 ,4.94585 
315 ,61.2130 ,1.35599 ,0.46984 ,4.61007 
316 ,61.4207 ,1.35796 ,0.47326 ,4.64365 
317 ,61.6131 ,1.36000 ,0.43562 ,4.27429 
318 ,61.8212 ,1.36207 ,0.42877 ,4.20713 
319 ,62.0132 ,1.36401 ,0.41851 ,4.10640 
320 ,62.2053 ,1.36590 ,0.42535 ,4.17355 
321 ,62.3974 ,1.36779 ,0.39455 ,3.87135 
322 ,62.5890 ,1.36972 ,0.39455 ,3.87135 
323 ,62.7656 ,1.37162 ,0.39113 ,3.83777 
324 ,62.9577 ,1.37347 ,0.36718 ,3.60272 
325 ,63.1657 ,1.37548 ,0.37060 ,3.63630 
326 ,63.3739 ,1.37758 ,0.33980 ,3.33410 
327 ,63.5817 ,1.37963 ,0.35006 ,3.43483 
328 ,63.7579 ,1.38152 ,0.33638 ,3.30052 
329 ,63.9499 ,1.38338 ,0.30900 ,3.03189 
330 ,64.1422 ,1.38525 ,0.30900 ,3.03189 
331 ,64.3342 ,1.38717 ,0.27820 ,2.72969 
332 ,64.5261 ,1.38908 ,0.28847 ,2.83042 
333 ,64.7180 ,1.39100 ,0.27135 ,2.66253 
334 ,64.9103 ,1.39297 ,0.24740 ,2.42748 
335 ,65.1185 ,1.39498 ,0.24740 ,2.42748 
336 ,65.3105 ,1.39698 ,0.23029 ,2.25959 
337 ,65.5185 ,1.39890 ,0.23713 ,2.32675 
338 ,65.7428 ,1.40105 ,0.22002 ,2.15885 
339 ,65.9186 ,1.40312 ,0.18580 ,1.82307 
340 ,66.1109 ,1.40498 ,0.18580 ,1.82307 
341 ,66.3027 ,1.40683 ,0.19607 ,1.92381 
342 ,66.4951 ,1.40874 ,0.16527 ,1.62160 
343 ,66.6870 ,1.41065 ,0.16869 ,1.65518 
344 ,66.8789 ,1.41258 ,0.15500 ,1.52087 
345 ,67.0552 ,1.41451 ,0.14473 ,1.42013 
346 ,67.2635 ,1.41639 ,0.12420 ,1.21866 
347 ,67.4553 ,1.41848 ,0.11393 ,1.11793 
348 ,67.6310 ,1.42020 ,0.10025 ,0.98361 
349 ,67.8233 ,1.42206 ,0.11393 ,1.11793 
350 ,68.0152 ,1.42396 ,0.09340 ,0.91646 
351 ,68.2074 ,1.42590 ,0.07971 ,0.78214 
352 ,68.4000 ,1.42778 ,0.08998 ,0.88288 
353 ,68.6078 ,1.42991 ,0.06602 ,0.64783 
354 ,68.7999 ,1.43183 ,0.05234 ,0.51352 
355 ,68.9920 ,1.43386 ,0.04207 ,0.41278 
356 ,69.1842 ,1.43562 ,0.03180 ,0.31205 
357 ,69.3760 ,1.43754 ,0.01127 ,0.11058 
358 ,69.5845 ,1.43964 ,0.02154 ,0.21131 
359 ,69.7762 ,1.44161 ,-0.00584 ,-0.05731 
360 ,69.9686 ,1.44351 ,-0.00926 ,-0.09089 
361 ,70.1603 ,1.44543 ,-0.00926 ,-0.09089 
362 ,70.3692 ,1.44751 ,-0.02980 ,-0.29236 
363 ,70.5766 ,1.44955 ,-0.05717 ,-0.56099 
364 ,70.7690 ,1.45148 ,-0.04691 ,-0.46025 
365 ,70.9770 ,1.45355 ,-0.06744 ,-0.66172 
366 ,71.1850 ,1.45563 ,-0.07086 ,-0.69530 
367 ,71.3771 ,1.45753 ,-0.09482 ,-0.93035 
368 ,71.5853 ,1.45970 ,-0.08455 ,-0.82961 
369 ,71.7771 ,1.46159 ,-0.11193 ,-1.09824 
370 ,71.9691 ,1.46356 ,-0.11535 ,-1.13182 
371 ,72.1774 ,1.46550 ,-0.11877 ,-1.16540 
372 ,72.3851 ,1.46763 ,-0.12562 ,-1.23255 
373 ,72.5776 ,1.46964 ,-0.14957 ,-1.46760 
374 ,72.7857 ,1.47165 ,-0.15984 ,-1.56834 
375 ,72.9774 ,1.47357 ,-0.18037 ,-1.76981 
376 ,73.1539 ,1.47540 ,-0.18037 ,-1.76981 
377 ,73.3459 ,1.47728 ,-0.18037 ,-1.76981 
378 ,73.5216 ,1.47913 ,-0.20090 ,-1.97128 
379 ,73.7141 ,1.48094 ,-0.20775 ,-2.03843 
380 ,73.9058 ,1.48286 ,-0.20775 ,-2.03843 
381 ,74.0982 ,1.48481 ,-0.22144 ,-2.17275 
382 ,74.2743 ,1.48666 ,-0.23513 ,-2.30706 
383 ,74.4665 ,1.48846 ,-0.22828 ,-2.23990 
384 ,74.6424 ,1.49031 ,-0.27277 ,-2.67642 
385 ,74.8505 ,1.49220 ,-0.26593 ,-2.60926 
386 ,75.0426 ,1.49423 ,-0.25908 ,-2.54211 
387 ,75.2347 ,1.49614 ,-0.28304 ,-2.77716 
388 ,75.4428 ,1.49825 ,-0.28988 ,-2.84431 
389 ,75.6344 ,1.50012 ,-0.30699 ,-3.01220 
390 ,75.8430 ,1.50210 ,-0.30015 ,-2.94505 
391 ,76.0351 ,1.50420 ,-0.33437 ,-3.28083 
392 ,76.2270 ,1.50603 ,-0.31384 ,-3.07936 
393 ,76.4192 ,1.50793 ,-0.35832 ,-3.51588 
394 ,76.6273 ,1.51009 ,-0.33779 ,-3.31441 
395 ,76.8033 ,1.51191 ,-0.37201 ,-3.65019 
396 ,76.9794 ,1.51364 ,-0.36175 ,-3.54946 
397 ,77.1713 ,1.51554 ,-0.37886 ,-3.71735 
398 ,77.3640 ,1.51740 ,-0.38228 ,-3.75093 
399 ,77.5713 ,1.51944 ,-0.39597 ,-3.88524 
400 ,77.7476 ,1.52128 ,-0.40281 ,-3.95240 
401 ,77.9398 ,1.52319 ,-0.40966 ,-4.01955 
402 ,78.1314 ,1.52520 ,-0.41308 ,-4.05313 
403 ,78.3078 ,1.52689 ,-0.43361 ,-4.25460 
404 ,78.5001 ,1.52882 ,-0.45414 ,-4.45607 
405 ,78.7081 ,1.53083 ,-0.44730 ,-4.38891 
406 ,78.8838 ,1.53272 ,-0.45757 ,-4.48965 
407 ,79.0763 ,1.53454 ,-0.46783 ,-4.59038 
408 ,79.2843 ,1.53664 ,-0.47468 ,-4.65754 
409 ,79.4763 ,1.53852 ,-0.49863 ,-4.89259 
410 ,79.6846 ,1.54065 ,-0.48837 ,-4.79185 
411 ,79.8765 ,1.54255 ,-0.51574 ,-5.06048 
412 ,80.0526 ,1.54444 ,-0.51574 ,-5.06048 
413 ,80.2448 ,1.54623 ,-0.52259 ,-5.12764 
414 ,80.4368 ,1.54819 ,-0.53628 ,-5.26195 
415 ,80.6448 ,1.55021 ,-0.53628 ,-5.26195 
416 ,80.8369 ,1.55212 ,-0.56708 ,-5.56415 
417 ,81.0290 ,1.55412 ,-0.54997 ,-5.39626 
418 ,81.2531 ,1.55619 ,-0.58761 ,-5.76562 
419 ,81.4612 ,1.55840 ,-0.59103 ,-5.79920 
420 ,81.6533 ,1.56028 ,-0.58761 ,-5.76562 
421 ,81.8454 ,1.56216 ,-0.60130 ,-5.89994 
422 ,82.0534 ,1.56428 ,-0.60130 ,-5.89994 
423 ,82.2615 ,1.56639 ,-0.63210 ,-6.20214 
424 ,82.4696 ,1.56845 ,-0.62183 ,-6.10141 
425 ,82.6618 ,1.57041 ,-0.62868 ,-6.16856 
426 ,82.8537 ,1.57231 ,-0.66632 ,-6.53793 
427 ,83.0456 ,1.57425 ,-0.66632 ,-6.53793 
428 ,83.2377 ,1.57613 ,-0.66632 ,-6.53793 
429 ,83.4621 ,1.57830 ,-0.68001 ,-6.67224 
430 ,83.6862 ,1.58054 ,-0.68001 ,-6.67224 
431 ,83.8942 ,1.58269 ,-0.69712 ,-6.84013 
432 ,84.0862 ,1.58463 ,-0.70739 ,-6.94086 
433 ,84.2783 ,1.58654 ,-0.73134 ,-7.17591 
434 ,84.4863 ,1.58859 ,-0.72792 ,-7.14233 
435 ,84.6785 ,1.59059 ,-0.72792 ,-7.14233 
436 ,84.8547 ,1.59238 ,-0.74161 ,-7.27665 
437 ,85.0467 ,1.59417 ,-0.74845 ,-7.34380 
438 ,85.2389 ,1.59620 ,-0.75187 ,-7.37738 
439 ,85.4307 ,1.59812 ,-0.76214 ,-7.47812 
440 ,85.6391 ,1.60016 ,-0.78267 ,-7.67959 
441 ,85.8469 ,1.60220 ,-0.78267 ,-7.67959 
442 ,86.0392 ,1.60413 ,-0.80321 ,-7.88106 
443 ,86.2470 ,1.60621 ,-0.78610 ,-7.71317 
444 ,86.4232 ,1.60811 ,-0.82032 ,-8.04895 
445 ,86.6155 ,1.60991 ,-0.82374 ,-8.08253 
446 ,86.7753 ,1.61168 ,-0.81689 ,-8.01537 
447 ,86.9677 ,1.61338 ,-0.82716 ,-8.11611 
448 ,87.1598 ,1.61537 ,-0.85796 ,-8.41831 
449 ,87.3517 ,1.61727 ,-0.85112 ,-8.35115 
450 ,87.5597 ,1.61937 ,-0.86823 ,-8.51904 
451 ,87.7519 ,1.62127 ,-0.85796 ,-8.41831 
452 ,87.9598 ,1.62335 ,-0.88534 ,-8.68694 
453 ,88.1519 ,1.62523 ,-0.87849 ,-8.61978 
454 ,88.3440 ,1.62716 ,-0.89218 ,-8.75409 
455 ,88.5198 ,1.62904 ,-0.91614 ,-8.98914 
456 ,88.7118 ,1.63089 ,-0.91272 ,-8.95556 
457 ,88.9041 ,1.63281 ,-0.92298 ,-9.05630 
458 ,89.1121 ,1.63481 ,-0.92640 ,-9.08988 
459 ,89.2884 ,1.63668 ,-0.92983 ,-9.12345 
460 ,89.4962 ,1.63870 ,-0.95378 ,-9.35850 
461 ,89.6882 ,1.64061 ,-0.94009 ,-9.22419 
462 ,89.8802 ,1.64259 ,-0.96405 ,-9.45924 
463 ,90.0723 ,1.64443 ,-0.97431 ,-9.55997 
