Data stamp = , 27-04-2022 20:21:15 196

Calibration Values: 
Slope = , 26.54 , g/V 
Offset Voltage at no contact = , -0.501760 , V 

No , Time , Stage Position ,   Mass , Force 
   ,  (s) ,      (mm)      ,   (g)  , (mN)  

1 ,0.0000 ,0.74942 ,5.26087 ,51.61969 
2 ,0.2167 ,0.74950 ,5.26430 ,51.65327 
3 ,0.7932 ,0.75150 ,5.26430 ,51.65327 
4 ,1.0011 ,0.75412 ,5.26430 ,51.65327 
5 ,1.2095 ,0.75618 ,5.25745 ,51.58611 
6 ,1.4173 ,0.75821 ,5.26087 ,51.61969 
7 ,1.6097 ,0.76029 ,5.25403 ,51.55254 
8 ,1.8018 ,0.76216 ,5.25403 ,51.55254 
9 ,1.9939 ,0.76411 ,5.23007 ,51.31749 
10 ,2.1856 ,0.76596 ,5.21981 ,51.21675 
11 ,2.3620 ,0.76791 ,5.21296 ,51.14960 
12 ,2.5542 ,0.76969 ,5.18216 ,50.84739 
13 ,2.7462 ,0.77159 ,5.17190 ,50.74666 
14 ,2.9219 ,0.77347 ,5.15479 ,50.57876 
15 ,3.1141 ,0.77530 ,5.13768 ,50.41087 
16 ,3.3060 ,0.77715 ,5.12056 ,50.24298 
17 ,3.4984 ,0.77912 ,5.11030 ,50.14225 
18 ,3.6903 ,0.78112 ,5.08292 ,49.87362 
19 ,3.8984 ,0.78301 ,5.08292 ,49.87362 
20 ,4.0906 ,0.78508 ,5.04528 ,49.50426 
21 ,4.2829 ,0.78702 ,5.04528 ,49.50426 
22 ,4.4746 ,0.78887 ,5.01448 ,49.20205 
23 ,4.6668 ,0.79080 ,5.00079 ,49.06774 
24 ,4.8587 ,0.79269 ,4.96657 ,48.73196 
25 ,5.0352 ,0.79450 ,4.94946 ,48.56407 
26 ,5.2269 ,0.79644 ,4.94603 ,48.53049 
27 ,5.4350 ,0.79843 ,4.90155 ,48.09397 
28 ,5.6270 ,0.80049 ,4.89470 ,48.02681 
29 ,5.8194 ,0.80241 ,4.89128 ,47.99324 
30 ,6.0113 ,0.80428 ,4.85706 ,47.65745 
31 ,6.1872 ,0.80603 ,4.84337 ,47.52314 
32 ,6.3792 ,0.80792 ,4.82626 ,47.35525 
33 ,6.5554 ,0.80975 ,4.80573 ,47.15378 
34 ,6.7475 ,0.81157 ,4.79204 ,47.01946 
35 ,6.9399 ,0.81355 ,4.78519 ,46.95231 
36 ,7.1157 ,0.81540 ,4.74755 ,46.58295 
37 ,7.3077 ,0.81725 ,4.73386 ,46.44863 
38 ,7.4998 ,0.81912 ,4.71675 ,46.28074 
39 ,7.6917 ,0.82103 ,4.68595 ,45.97854 
40 ,7.8842 ,0.82294 ,4.69964 ,46.11285 
41 ,8.0762 ,0.82487 ,4.66199 ,45.74349 
42 ,8.2684 ,0.82684 ,4.62435 ,45.37413 
43 ,8.4445 ,0.82864 ,4.63804 ,45.50844 
44 ,8.6526 ,0.83054 ,4.59355 ,45.07192 
45 ,8.8605 ,0.83279 ,4.60040 ,45.13908 
46 ,9.0528 ,0.83465 ,4.57302 ,44.87045 
47 ,9.2766 ,0.83683 ,4.56275 ,44.76972 
48 ,9.4528 ,0.83875 ,4.53537 ,44.50109 
49 ,9.6449 ,0.84056 ,4.51826 ,44.33320 
50 ,9.8366 ,0.84247 ,4.49089 ,44.06457 
51 ,10.0289 ,0.84444 ,4.48062 ,43.96384 
52 ,10.2211 ,0.84632 ,4.46351 ,43.79595 
53 ,10.4132 ,0.84830 ,4.43955 ,43.56090 
54 ,10.6210 ,0.85031 ,4.42929 ,43.46016 
55 ,10.8133 ,0.85228 ,4.39849 ,43.15796 
56 ,11.0053 ,0.85414 ,4.39849 ,43.15796 
57 ,11.1976 ,0.85608 ,4.36427 ,42.82218 
58 ,11.4052 ,0.85814 ,4.35400 ,42.72144 
59 ,11.5813 ,0.85999 ,4.34716 ,42.65429 
60 ,11.7737 ,0.86185 ,4.31978 ,42.38566 
61 ,11.9654 ,0.86375 ,4.29924 ,42.18419 
62 ,12.1576 ,0.86570 ,4.28898 ,42.08345 
63 ,12.3496 ,0.86762 ,4.25818 ,41.78125 
64 ,12.5417 ,0.86952 ,4.24107 ,41.61336 
65 ,12.7338 ,0.87144 ,4.21711 ,41.37831 
66 ,12.9259 ,0.87337 ,4.20685 ,41.27758 
67 ,13.1180 ,0.87529 ,4.19316 ,41.14326 
68 ,13.3100 ,0.87724 ,4.16920 ,40.90821 
69 ,13.5021 ,0.87912 ,4.16578 ,40.87464 
70 ,13.6941 ,0.88111 ,4.13498 ,40.57243 
71 ,13.8863 ,0.88299 ,4.11445 ,40.37096 
72 ,14.0782 ,0.88490 ,4.11103 ,40.33738 
73 ,14.2705 ,0.88681 ,4.07680 ,40.00160 
74 ,14.4626 ,0.88877 ,4.06996 ,39.93444 
75 ,14.6547 ,0.89070 ,4.05285 ,39.76655 
76 ,14.8467 ,0.89261 ,4.01520 ,39.39719 
77 ,15.0388 ,0.89453 ,4.01863 ,39.43077 
78 ,15.2309 ,0.89643 ,3.98441 ,39.09499 
79 ,15.4229 ,0.89831 ,3.96729 ,38.92709 
80 ,15.6149 ,0.90022 ,3.95361 ,38.79278 
81 ,15.8070 ,0.90220 ,3.93307 ,38.59131 
82 ,15.9991 ,0.90406 ,3.93307 ,38.59131 
83 ,16.1911 ,0.90605 ,3.89201 ,38.18837 
84 ,16.3833 ,0.90798 ,3.89543 ,38.22195 
85 ,16.5918 ,0.90991 ,3.85779 ,37.85259 
86 ,16.7997 ,0.91207 ,3.84752 ,37.75185 
87 ,16.9920 ,0.91400 ,3.83041 ,37.58396 
88 ,17.1837 ,0.91594 ,3.82014 ,37.48323 
89 ,17.3761 ,0.91798 ,3.79276 ,37.21460 
90 ,17.5682 ,0.91975 ,3.78592 ,37.14744 
91 ,17.7439 ,0.92158 ,3.77223 ,37.01313 
92 ,17.9359 ,0.92346 ,3.73801 ,36.67735 
93 ,18.1280 ,0.92534 ,3.72090 ,36.50946 
94 ,18.3042 ,0.92730 ,3.70379 ,36.34157 
95 ,18.4962 ,0.92903 ,3.69352 ,36.24083 
96 ,18.6883 ,0.93098 ,3.65246 ,35.83789 
97 ,18.8803 ,0.93289 ,3.66957 ,36.00578 
98 ,19.0725 ,0.93485 ,3.62850 ,35.60284 
99 ,19.2646 ,0.93677 ,3.61823 ,35.50211 
100 ,19.4565 ,0.93867 ,3.61139 ,35.43495 
101 ,19.6487 ,0.94059 ,3.57375 ,35.06559 
102 ,19.8412 ,0.94253 ,3.56690 ,34.99843 
103 ,20.0488 ,0.94453 ,3.56690 ,34.99843 
104 ,20.2409 ,0.94645 ,3.54295 ,34.76338 
105 ,20.4010 ,0.94826 ,3.50530 ,34.39402 
106 ,20.5929 ,0.94998 ,3.50188 ,34.36045 
107 ,20.7851 ,0.95189 ,3.49161 ,34.25971 
108 ,20.9771 ,0.95382 ,3.45739 ,33.92393 
109 ,21.1532 ,0.95572 ,3.46081 ,33.95751 
110 ,21.3454 ,0.95748 ,3.44370 ,33.78961 
111 ,21.5214 ,0.95938 ,3.41975 ,33.55457 
112 ,21.7136 ,0.96119 ,3.39921 ,33.35310 
113 ,21.9056 ,0.96317 ,3.38895 ,33.25236 
114 ,22.0816 ,0.96500 ,3.34104 ,32.78227 
115 ,22.2738 ,0.96678 ,3.32393 ,32.61437 
116 ,22.4658 ,0.96871 ,3.34446 ,32.81584 
117 ,22.6418 ,0.97059 ,3.31366 ,32.51364 
118 ,22.8340 ,0.97236 ,3.29313 ,32.31217 
119 ,23.0261 ,0.97427 ,3.29313 ,32.31217 
120 ,23.2021 ,0.97618 ,3.25206 ,31.90923 
121 ,23.3943 ,0.97796 ,3.25206 ,31.90923 
122 ,23.5862 ,0.97989 ,3.23837 ,31.77492 
123 ,23.7624 ,0.98181 ,3.20415 ,31.43913 
124 ,23.9544 ,0.98356 ,3.19388 ,31.33840 
125 ,24.1305 ,0.98548 ,3.19046 ,31.30482 
126 ,24.3065 ,0.98723 ,3.16993 ,31.10335 
127 ,24.4826 ,0.98897 ,3.13571 ,30.76757 
128 ,24.6748 ,0.99079 ,3.12886 ,30.70041 
129 ,24.8508 ,0.99268 ,3.12202 ,30.63325 
130 ,25.0428 ,0.99448 ,3.10833 ,30.49894 
131 ,25.2350 ,0.99636 ,3.07411 ,30.16316 
132 ,25.4271 ,0.99828 ,3.08095 ,30.23031 
133 ,25.6031 ,1.00016 ,3.05015 ,29.92811 
134 ,25.7952 ,1.00197 ,3.02620 ,29.69306 
135 ,25.9713 ,1.00385 ,3.02278 ,29.65948 
136 ,26.1473 ,1.00563 ,3.01251 ,29.55875 
137 ,26.3393 ,1.00748 ,2.98513 ,29.29012 
138 ,26.5154 ,1.00930 ,2.97487 ,29.18939 
139 ,26.6915 ,1.01108 ,2.96118 ,29.05507 
140 ,26.8836 ,1.01286 ,2.94749 ,28.92076 
141 ,27.0757 ,1.01478 ,2.91327 ,28.58498 
142 ,27.2518 ,1.01666 ,2.92011 ,28.65213 
143 ,27.4439 ,1.01848 ,2.88247 ,28.28277 
144 ,27.6359 ,1.02035 ,2.86536 ,28.11488 
145 ,27.8119 ,1.02226 ,2.86536 ,28.11488 
146 ,28.0038 ,1.02406 ,2.85167 ,27.98057 
147 ,28.1961 ,1.02597 ,2.81745 ,27.64479 
148 ,28.3723 ,1.02790 ,2.81060 ,27.57763 
149 ,28.5642 ,1.02969 ,2.81060 ,27.57763 
150 ,28.7563 ,1.03157 ,2.76269 ,27.10753 
151 ,28.9323 ,1.03347 ,2.76954 ,27.17469 
152 ,29.1404 ,1.03535 ,2.75585 ,27.04038 
153 ,29.3166 ,1.03726 ,2.72847 ,26.77175 
154 ,29.4927 ,1.03908 ,2.72163 ,26.70459 
155 ,29.6847 ,1.04090 ,2.71478 ,26.63744 
156 ,29.8767 ,1.04279 ,2.67714 ,26.26807 
157 ,30.0528 ,1.04469 ,2.67714 ,26.26807 
158 ,30.2449 ,1.04648 ,2.66345 ,26.13376 
159 ,30.4370 ,1.04836 ,2.62581 ,25.76440 
160 ,30.6130 ,1.05024 ,2.62923 ,25.79798 
161 ,30.8052 ,1.05205 ,2.61554 ,25.66367 
162 ,30.9811 ,1.05394 ,2.56763 ,25.19357 
163 ,31.1732 ,1.05572 ,2.57105 ,25.22715 
164 ,31.3654 ,1.05766 ,2.56078 ,25.12641 
165 ,31.5414 ,1.05953 ,2.53683 ,24.89136 
166 ,31.7174 ,1.06129 ,2.52998 ,24.82421 
167 ,31.8935 ,1.06308 ,2.51630 ,24.68989 
168 ,32.0856 ,1.06486 ,2.50603 ,24.58916 
169 ,32.2617 ,1.06677 ,2.48207 ,24.35411 
170 ,32.4538 ,1.06855 ,2.45470 ,24.08549 
171 ,32.6459 ,1.07047 ,2.46839 ,24.21980 
172 ,32.8218 ,1.07235 ,2.42732 ,23.81686 
173 ,33.0139 ,1.07415 ,2.42732 ,23.81686 
174 ,33.2061 ,1.07604 ,2.42048 ,23.74970 
175 ,33.3822 ,1.07795 ,2.38283 ,23.38034 
176 ,33.5742 ,1.07973 ,2.35888 ,23.14529 
177 ,33.7663 ,1.08167 ,2.36572 ,23.21245 
178 ,33.9583 ,1.08362 ,2.34519 ,23.01098 
179 ,34.1343 ,1.08546 ,2.33834 ,22.94382 
180 ,34.3265 ,1.08722 ,2.31097 ,22.67520 
181 ,34.5026 ,1.08916 ,2.27332 ,22.30584 
182 ,34.6786 ,1.09089 ,2.27332 ,22.30584 
183 ,34.8546 ,1.09267 ,2.26990 ,22.27226 
184 ,35.0467 ,1.09449 ,2.25963 ,22.17152 
185 ,35.2228 ,1.09636 ,2.22541 ,21.83574 
186 ,35.4150 ,1.09812 ,2.22199 ,21.80216 
187 ,35.6070 ,1.10005 ,2.20830 ,21.66785 
188 ,35.7832 ,1.10194 ,2.17408 ,21.33206 
189 ,35.9752 ,1.10373 ,2.17750 ,21.36564 
190 ,36.1673 ,1.10570 ,2.17066 ,21.29849 
191 ,36.3433 ,1.10754 ,2.14328 ,21.02986 
192 ,36.5193 ,1.10929 ,2.11932 ,20.79481 
193 ,36.7114 ,1.11114 ,2.12617 ,20.86197 
194 ,36.9035 ,1.11302 ,2.10906 ,20.69408 
195 ,37.0796 ,1.11488 ,2.07826 ,20.39187 
196 ,37.2716 ,1.11674 ,2.07826 ,20.39187 
197 ,37.4637 ,1.11862 ,2.05430 ,20.15682 
198 ,37.6557 ,1.12050 ,2.03377 ,19.95535 
199 ,37.8319 ,1.12242 ,2.02693 ,19.88820 
200 ,38.0240 ,1.12423 ,2.02008 ,19.82104 
201 ,38.2160 ,1.12614 ,1.99613 ,19.58599 
202 ,38.3921 ,1.12805 ,1.98928 ,19.51884 
203 ,38.5843 ,1.12982 ,1.97559 ,19.38452 
204 ,38.7765 ,1.13175 ,1.95164 ,19.14948 
205 ,38.9523 ,1.13364 ,1.95848 ,19.21663 
206 ,39.1444 ,1.13544 ,1.93111 ,18.94801 
207 ,39.3203 ,1.13730 ,1.91399 ,18.78011 
208 ,39.4965 ,1.13909 ,1.90373 ,18.67938 
209 ,39.6886 ,1.14086 ,1.89688 ,18.61222 
210 ,39.8806 ,1.14278 ,1.86951 ,18.34360 
211 ,40.0730 ,1.14471 ,1.86266 ,18.27644 
212 ,40.2648 ,1.14663 ,1.85240 ,18.17570 
213 ,40.4409 ,1.14851 ,1.81817 ,17.83992 
214 ,40.6329 ,1.15033 ,1.82160 ,17.87350 
215 ,40.8252 ,1.15224 ,1.80791 ,17.73919 
216 ,41.0172 ,1.15421 ,1.78395 ,17.50414 
217 ,41.2254 ,1.15626 ,1.77711 ,17.43698 
218 ,41.4175 ,1.15820 ,1.75315 ,17.20193 
219 ,41.6094 ,1.16016 ,1.75657 ,17.23551 
220 ,41.8016 ,1.16202 ,1.73946 ,17.06762 
221 ,41.9936 ,1.16390 ,1.72235 ,16.89973 
222 ,42.1857 ,1.16583 ,1.71551 ,16.83257 
223 ,42.3619 ,1.16772 ,1.69498 ,16.63110 
224 ,42.5538 ,1.16953 ,1.68471 ,16.53037 
225 ,42.7459 ,1.17144 ,1.67786 ,16.46321 
226 ,42.9220 ,1.17330 ,1.64022 ,16.09385 
227 ,43.1142 ,1.17511 ,1.66075 ,16.29532 
228 ,43.3061 ,1.17701 ,1.63680 ,16.06027 
229 ,43.4821 ,1.17892 ,1.61284 ,15.82522 
230 ,43.6744 ,1.18069 ,1.61284 ,15.82522 
231 ,43.8663 ,1.18268 ,1.60600 ,15.75807 
232 ,44.0424 ,1.18451 ,1.56836 ,15.38871 
233 ,44.2346 ,1.18628 ,1.57520 ,15.45586 
234 ,44.4266 ,1.18820 ,1.56151 ,15.32155 
235 ,44.6026 ,1.19008 ,1.52045 ,14.91861 
236 ,44.7947 ,1.19193 ,1.50676 ,14.78430 
237 ,44.9707 ,1.19380 ,1.51360 ,14.85145 
238 ,45.1628 ,1.19563 ,1.49649 ,14.68356 
239 ,45.3548 ,1.19748 ,1.48622 ,14.58283 
240 ,45.5310 ,1.19942 ,1.47253 ,14.44851 
241 ,45.7071 ,1.20113 ,1.45542 ,14.28062 
242 ,45.8831 ,1.20292 ,1.43489 ,14.07915 
243 ,46.0753 ,1.20470 ,1.44174 ,14.14631 
244 ,46.2513 ,1.20656 ,1.42805 ,14.01199 
245 ,46.4434 ,1.20839 ,1.40067 ,13.74337 
246 ,46.6353 ,1.21033 ,1.39040 ,13.64263 
247 ,46.7954 ,1.21209 ,1.39725 ,13.70979 
248 ,46.9716 ,1.21379 ,1.38014 ,13.54190 
249 ,47.1638 ,1.21560 ,1.34591 ,13.20612 
250 ,47.3558 ,1.21748 ,1.35618 ,13.30685 
251 ,47.5318 ,1.21941 ,1.32538 ,13.00465 
252 ,47.7079 ,1.22113 ,1.30485 ,12.80318 
253 ,47.8839 ,1.22289 ,1.29116 ,12.66886 
254 ,48.0760 ,1.22471 ,1.29458 ,12.70244 
255 ,48.2520 ,1.22658 ,1.27747 ,12.53455 
256 ,48.4441 ,1.22837 ,1.26378 ,12.40024 
257 ,48.6203 ,1.23021 ,1.25352 ,12.29950 
258 ,48.8123 ,1.23207 ,1.25009 ,12.26592 
259 ,49.0044 ,1.23397 ,1.22614 ,12.03088 
260 ,49.1965 ,1.23592 ,1.21929 ,11.96372 
261 ,49.3726 ,1.23777 ,1.20903 ,11.86298 
262 ,49.5646 ,1.23956 ,1.18507 ,11.62794 
263 ,49.7406 ,1.24143 ,1.16796 ,11.46004 
264 ,49.9166 ,1.24321 ,1.18507 ,11.62794 
265 ,50.0928 ,1.24494 ,1.16796 ,11.46004 
266 ,50.2848 ,1.24676 ,1.14058 ,11.19142 
267 ,50.4769 ,1.24866 ,1.13374 ,11.12426 
268 ,50.6530 ,1.25060 ,1.13032 ,11.09068 
269 ,50.8452 ,1.25238 ,1.10294 ,10.82206 
270 ,51.0212 ,1.25427 ,1.08583 ,10.65416 
271 ,51.2132 ,1.25608 ,1.08925 ,10.68774 
272 ,51.4053 ,1.25799 ,1.07556 ,10.55343 
273 ,51.5974 ,1.25990 ,1.07214 ,10.51985 
274 ,51.7735 ,1.26182 ,1.05503 ,10.35196 
275 ,51.9656 ,1.26361 ,1.01396 ,9.94902 
276 ,52.1574 ,1.26548 ,1.02081 ,10.01618 
277 ,52.3337 ,1.26740 ,1.01054 ,9.91544 
278 ,52.5258 ,1.26918 ,0.99685 ,9.78113 
279 ,52.7017 ,1.27106 ,0.97290 ,9.54608 
280 ,52.8779 ,1.27283 ,0.99343 ,9.74755 
281 ,53.0540 ,1.27456 ,0.96263 ,9.44535 
282 ,53.2460 ,1.27637 ,0.93868 ,9.21030 
283 ,53.4382 ,1.27829 ,0.93183 ,9.14314 
284 ,53.6302 ,1.28027 ,0.93525 ,9.17672 
285 ,53.8062 ,1.28210 ,0.90103 ,8.84094 
286 ,53.9984 ,1.28405 ,0.91130 ,8.94167 
287 ,54.1745 ,1.28575 ,0.88734 ,8.70662 
288 ,54.3665 ,1.28760 ,0.87366 ,8.57231 
289 ,54.5426 ,1.28949 ,0.87023 ,8.53873 
290 ,54.7187 ,1.29123 ,0.85997 ,8.43800 
291 ,54.8947 ,1.29297 ,0.85312 ,8.37084 
292 ,55.0869 ,1.29476 ,0.83259 ,8.16937 
293 ,55.2789 ,1.29671 ,0.81890 ,8.03506 
294 ,55.4548 ,1.29861 ,0.82232 ,8.06864 
295 ,55.6469 ,1.30039 ,0.79837 ,7.83359 
296 ,55.8390 ,1.30233 ,0.78126 ,7.66570 
297 ,56.0312 ,1.30426 ,0.78468 ,7.69927 
298 ,56.2233 ,1.30615 ,0.75388 ,7.39707 
299 ,56.4154 ,1.30804 ,0.75388 ,7.39707 
300 ,56.5914 ,1.30998 ,0.74361 ,7.29633 
301 ,56.7835 ,1.31174 ,0.72650 ,7.12844 
302 ,56.9756 ,1.31368 ,0.72308 ,7.09486 
303 ,57.1517 ,1.31556 ,0.70255 ,6.89340 
304 ,57.3438 ,1.31735 ,0.68201 ,6.69193 
305 ,57.5038 ,1.31915 ,0.66490 ,6.52403 
306 ,57.6959 ,1.32085 ,0.67859 ,6.65835 
307 ,57.8720 ,1.32273 ,0.66490 ,6.52403 
308 ,58.0642 ,1.32457 ,0.64779 ,6.35614 
309 ,58.2241 ,1.32636 ,0.62726 ,6.15467 
310 ,58.4163 ,1.32805 ,0.63068 ,6.18825 
311 ,58.5923 ,1.32989 ,0.62042 ,6.08752 
312 ,58.7844 ,1.33173 ,0.59988 ,5.88605 
313 ,58.9764 ,1.33365 ,0.60673 ,5.95320 
314 ,59.1525 ,1.33556 ,0.57935 ,5.68458 
315 ,59.3446 ,1.33734 ,0.56566 ,5.55026 
316 ,59.5206 ,1.33922 ,0.56908 ,5.58384 
317 ,59.7128 ,1.34100 ,0.57251 ,5.61742 
318 ,59.9048 ,1.34293 ,0.52459 ,5.14732 
319 ,60.0969 ,1.34490 ,0.52802 ,5.18090 
320 ,60.2730 ,1.34675 ,0.51775 ,5.08017 
321 ,60.4651 ,1.34857 ,0.50406 ,4.94585 
322 ,60.6571 ,1.35047 ,0.50406 ,4.94585 
323 ,60.8332 ,1.35236 ,0.48011 ,4.71081 
324 ,60.9932 ,1.35401 ,0.48353 ,4.74438 
325 ,61.1854 ,1.35573 ,0.47668 ,4.67723 
326 ,61.3774 ,1.35766 ,0.46984 ,4.61007 
327 ,61.5533 ,1.35955 ,0.43904 ,4.30787 
328 ,61.7456 ,1.36137 ,0.43562 ,4.27429 
329 ,61.9538 ,1.36335 ,0.43562 ,4.27429 
330 ,62.1617 ,1.36558 ,0.39455 ,3.87135 
331 ,62.3537 ,1.36744 ,0.41851 ,4.10640 
332 ,62.5458 ,1.36936 ,0.37744 ,3.70346 
333 ,62.7220 ,1.37122 ,0.38429 ,3.77061 
334 ,62.9140 ,1.37302 ,0.37744 ,3.70346 
335 ,63.0902 ,1.37497 ,0.36033 ,3.53557 
336 ,63.2821 ,1.37671 ,0.34664 ,3.40125 
337 ,63.4742 ,1.37863 ,0.33980 ,3.33410 
338 ,63.6501 ,1.38052 ,0.32953 ,3.23336 
339 ,63.8423 ,1.38230 ,0.32269 ,3.16620 
340 ,64.0344 ,1.38427 ,0.32269 ,3.16620 
341 ,64.2266 ,1.38615 ,0.29189 ,2.86400 
342 ,64.4187 ,1.38807 ,0.28162 ,2.76326 
343 ,64.5947 ,1.38995 ,0.27135 ,2.66253 
344 ,64.7869 ,1.39173 ,0.26109 ,2.56179 
345 ,64.9629 ,1.39363 ,0.26451 ,2.59537 
346 ,65.1550 ,1.39542 ,0.25082 ,2.46106 
347 ,65.3471 ,1.39734 ,0.23713 ,2.32675 
348 ,65.5390 ,1.39928 ,0.22002 ,2.15885 
349 ,65.7153 ,1.40116 ,0.22002 ,2.15885 
350 ,65.8913 ,1.40293 ,0.20291 ,1.99096 
351 ,66.0835 ,1.40473 ,0.17896 ,1.75592 
352 ,66.2755 ,1.40667 ,0.19264 ,1.89023 
353 ,66.4518 ,1.40852 ,0.17553 ,1.72234 
354 ,66.6436 ,1.41035 ,0.15842 ,1.55445 
355 ,66.8038 ,1.41211 ,0.15842 ,1.55445 
356 ,67.0118 ,1.41406 ,0.14473 ,1.42013 
357 ,67.1878 ,1.41587 ,0.12762 ,1.25224 
358 ,67.3800 ,1.41768 ,0.12762 ,1.25224 
359 ,67.5721 ,1.41957 ,0.10367 ,1.01719 
360 ,67.7641 ,1.42160 ,0.08314 ,0.81572 
361 ,67.9562 ,1.42342 ,0.10709 ,1.05077 
362 ,68.1323 ,1.42533 ,0.08656 ,0.84930 
363 ,68.3083 ,1.42706 ,0.06945 ,0.68141 
364 ,68.5005 ,1.42887 ,0.06945 ,0.68141 
365 ,68.6925 ,1.43081 ,0.06602 ,0.64783 
366 ,68.8847 ,1.43275 ,0.03865 ,0.37920 
367 ,69.0608 ,1.43461 ,0.04549 ,0.44636 
368 ,69.2527 ,1.43641 ,0.02496 ,0.24489 
369 ,69.4448 ,1.43830 ,0.01469 ,0.14416 
370 ,69.6208 ,1.44021 ,0.01811 ,0.17773 
371 ,69.8129 ,1.44200 ,0.00443 ,0.04342 
372 ,70.0049 ,1.44394 ,-0.02295 ,-0.22520 
373 ,70.1813 ,1.44581 ,-0.01953 ,-0.19163 
374 ,70.3731 ,1.44764 ,-0.02980 ,-0.29236 
375 ,70.5654 ,1.44955 ,-0.05717 ,-0.56099 
376 ,70.7414 ,1.45142 ,-0.04006 ,-0.39310 
377 ,70.9175 ,1.45317 ,-0.05717 ,-0.56099 
378 ,71.1095 ,1.45501 ,-0.07428 ,-0.72888 
379 ,71.2856 ,1.45683 ,-0.08113 ,-0.79604 
380 ,71.4777 ,1.45861 ,-0.07086 ,-0.69530 
381 ,71.6699 ,1.46060 ,-0.10166 ,-0.99751 
382 ,71.8617 ,1.46250 ,-0.11877 ,-1.16540 
383 ,72.0538 ,1.46441 ,-0.11193 ,-1.09824 
384 ,72.2460 ,1.46632 ,-0.14615 ,-1.43402 
385 ,72.4219 ,1.46820 ,-0.13931 ,-1.36687 
386 ,72.5821 ,1.46987 ,-0.14615 ,-1.43402 
387 ,72.7742 ,1.47159 ,-0.15984 ,-1.56834 
388 ,72.9663 ,1.47355 ,-0.18037 ,-1.76981 
389 ,73.1583 ,1.47548 ,-0.17353 ,-1.70265 
390 ,73.3344 ,1.47735 ,-0.19406 ,-1.90412 
391 ,73.5104 ,1.47907 ,-0.19064 ,-1.87054 
392 ,73.7026 ,1.48091 ,-0.21117 ,-2.07201 
393 ,73.8946 ,1.48284 ,-0.20775 ,-2.03843 
394 ,74.0867 ,1.48472 ,-0.22486 ,-2.20632 
395 ,74.2788 ,1.48668 ,-0.23170 ,-2.27348 
396 ,74.4709 ,1.48856 ,-0.24539 ,-2.40779 
397 ,74.6631 ,1.49056 ,-0.26250 ,-2.57569 
398 ,74.8550 ,1.49244 ,-0.24881 ,-2.44137 
399 ,75.0470 ,1.49436 ,-0.26935 ,-2.64284 
400 ,75.2391 ,1.49630 ,-0.27277 ,-2.67642 
401 ,75.4313 ,1.49821 ,-0.28646 ,-2.81073 
402 ,75.6234 ,1.50009 ,-0.29673 ,-2.91147 
403 ,75.8154 ,1.50201 ,-0.30015 ,-2.94505 
404 ,76.0075 ,1.50396 ,-0.32752 ,-3.21367 
405 ,76.1996 ,1.50586 ,-0.32752 ,-3.21367 
406 ,76.3916 ,1.50775 ,-0.33437 ,-3.28083 
407 ,76.5837 ,1.50979 ,-0.34121 ,-3.34799 
408 ,76.7759 ,1.51157 ,-0.36175 ,-3.54946 
409 ,76.9518 ,1.51347 ,-0.37886 ,-3.71735 
410 ,77.1440 ,1.51528 ,-0.36175 ,-3.54946 
411 ,77.3200 ,1.51718 ,-0.38228 ,-3.75093 
412 ,77.5121 ,1.51901 ,-0.39939 ,-3.91882 
413 ,77.7041 ,1.52093 ,-0.40966 ,-4.01955 
414 ,77.8963 ,1.52280 ,-0.40281 ,-3.95240 
415 ,78.0724 ,1.52469 ,-0.43019 ,-4.22102 
416 ,78.2645 ,1.52650 ,-0.42677 ,-4.18744 
417 ,78.4564 ,1.52836 ,-0.43361 ,-4.25460 
418 ,78.6324 ,1.53033 ,-0.46099 ,-4.52323 
419 ,78.8247 ,1.53210 ,-0.45757 ,-4.48965 
420 ,79.0167 ,1.53399 ,-0.45757 ,-4.48965 
421 ,79.2248 ,1.53621 ,-0.45757 ,-4.48965 
422 ,79.4008 ,1.53798 ,-0.47468 ,-4.65754 
423 ,79.5930 ,1.53975 ,-0.49179 ,-4.82543 
424 ,79.7849 ,1.54173 ,-0.50206 ,-4.92617 
425 ,79.9771 ,1.54360 ,-0.50206 ,-4.92617 
426 ,80.1532 ,1.54546 ,-0.52601 ,-5.16121 
427 ,80.3451 ,1.54727 ,-0.51917 ,-5.09406 
428 ,80.5212 ,1.54916 ,-0.52601 ,-5.16121 
429 ,80.7133 ,1.55093 ,-0.55681 ,-5.46342 
430 ,80.9054 ,1.55284 ,-0.54997 ,-5.39626 
431 ,81.0815 ,1.55477 ,-0.57050 ,-5.59773 
432 ,81.2737 ,1.55657 ,-0.58761 ,-5.76562 
433 ,81.4657 ,1.55846 ,-0.57734 ,-5.66489 
434 ,81.6417 ,1.56040 ,-0.58761 ,-5.76562 
435 ,81.8338 ,1.56215 ,-0.61156 ,-6.00067 
436 ,82.0258 ,1.56407 ,-0.60814 ,-5.96709 
437 ,82.2019 ,1.56595 ,-0.61499 ,-6.03425 
438 ,82.3939 ,1.56773 ,-0.63210 ,-6.20214 
439 ,82.5862 ,1.56973 ,-0.63210 ,-6.20214 
440 ,82.7780 ,1.57165 ,-0.63894 ,-6.26930 
441 ,82.9705 ,1.57355 ,-0.65263 ,-6.40361 
442 ,83.1783 ,1.57555 ,-0.64579 ,-6.33646 
443 ,83.3705 ,1.57753 ,-0.67316 ,-6.60508 
444 ,83.5625 ,1.57948 ,-0.66632 ,-6.53793 
445 ,83.7546 ,1.58136 ,-0.68685 ,-6.73940 
446 ,83.9466 ,1.58333 ,-0.70396 ,-6.90729 
447 ,84.1386 ,1.58522 ,-0.69370 ,-6.80655 
448 ,84.3148 ,1.58707 ,-0.71765 ,-7.04160 
449 ,84.5068 ,1.58893 ,-0.72107 ,-7.07518 
450 ,84.6989 ,1.59083 ,-0.72792 ,-7.14233 
451 ,84.8910 ,1.59276 ,-0.76556 ,-7.51170 
452 ,85.0832 ,1.59467 ,-0.74161 ,-7.27665 
453 ,85.2751 ,1.59656 ,-0.74503 ,-7.31023 
454 ,85.4672 ,1.59850 ,-0.75872 ,-7.44454 
455 ,85.6593 ,1.60041 ,-0.76556 ,-7.51170 
456 ,85.8513 ,1.60239 ,-0.79294 ,-7.78032 
457 ,86.0434 ,1.60426 ,-0.78610 ,-7.71317 
458 ,86.2355 ,1.60617 ,-0.79978 ,-7.84748 
459 ,86.4276 ,1.60812 ,-0.81689 ,-8.01537 
460 ,86.6198 ,1.61000 ,-0.80663 ,-7.91464 
461 ,86.8118 ,1.61195 ,-0.83058 ,-8.14968 
462 ,87.0039 ,1.61386 ,-0.84085 ,-8.25042 
463 ,87.1960 ,1.61577 ,-0.83743 ,-8.21684 
