Data stamp = , 29-04-2022 09:53:13 964

Calibration Values: 
Slope = , 26.54 , g/V 
Offset Voltage at no contact = , -0.501760 , V 

No , Time , Stage Position ,   Mass , Force 
   ,  (s) ,      (mm)      ,   (g)  , (mN)  

1 ,0.0000 ,0.74942 ,5.29852 ,51.98905 
2 ,0.2358 ,0.74952 ,5.27798 ,51.78758 
3 ,0.6844 ,0.75106 ,5.27798 ,51.78758 
4 ,0.8923 ,0.75315 ,5.29852 ,51.98905 
5 ,1.1007 ,0.75506 ,5.28483 ,51.85474 
6 ,1.3086 ,0.75716 ,5.29852 ,51.98905 
7 ,1.5165 ,0.75920 ,5.27798 ,51.78758 
8 ,1.7088 ,0.76122 ,5.26772 ,51.68685 
9 ,1.9329 ,0.76334 ,5.27456 ,51.75401 
10 ,2.1251 ,0.76539 ,5.24718 ,51.48538 
11 ,2.3331 ,0.76748 ,5.23692 ,51.38464 
12 ,2.5253 ,0.76941 ,5.21296 ,51.14960 
13 ,2.7333 ,0.77150 ,5.20270 ,51.04886 
14 ,2.9414 ,0.77347 ,5.16848 ,50.71308 
15 ,3.1493 ,0.77557 ,5.15821 ,50.61234 
16 ,3.3416 ,0.77758 ,5.12056 ,50.24298 
17 ,3.5495 ,0.77965 ,5.11714 ,50.20940 
18 ,3.7413 ,0.78156 ,5.08634 ,49.90720 
19 ,3.9337 ,0.78349 ,5.09319 ,49.97436 
20 ,4.1256 ,0.78549 ,5.05212 ,49.57142 
21 ,4.3180 ,0.78736 ,5.02474 ,49.30279 
22 ,4.5259 ,0.78944 ,5.01448 ,49.20205 
23 ,4.7180 ,0.79131 ,4.98026 ,48.86627 
24 ,4.9101 ,0.79320 ,4.98710 ,48.93343 
25 ,5.1343 ,0.79537 ,4.94946 ,48.56407 
26 ,5.3263 ,0.79740 ,4.92892 ,48.36260 
27 ,5.5181 ,0.79937 ,4.91181 ,48.19471 
28 ,5.7102 ,0.80116 ,4.89812 ,48.06039 
29 ,5.9023 ,0.80313 ,4.87759 ,47.85892 
30 ,6.1104 ,0.80524 ,4.86732 ,47.75819 
31 ,6.3023 ,0.80718 ,4.82968 ,47.38883 
32 ,6.4948 ,0.80909 ,4.81941 ,47.28809 
33 ,6.6867 ,0.81095 ,4.80573 ,47.15378 
34 ,6.8789 ,0.81292 ,4.76466 ,46.75084 
35 ,7.0709 ,0.81482 ,4.76466 ,46.75084 
36 ,7.2629 ,0.81683 ,4.73044 ,46.41506 
37 ,7.4548 ,0.81867 ,4.72702 ,46.38148 
38 ,7.8391 ,0.82260 ,4.67568 ,45.87780 
39 ,8.0635 ,0.82463 ,4.68253 ,45.94496 
40 ,8.2554 ,0.82671 ,4.63804 ,45.50844 
41 ,8.4471 ,0.82872 ,4.61751 ,45.30697 
42 ,8.6397 ,0.83052 ,4.61408 ,45.27339 
43 ,8.8477 ,0.83259 ,4.60382 ,45.17266 
44 ,9.0399 ,0.83449 ,4.58671 ,45.00477 
45 ,9.2320 ,0.83645 ,4.55591 ,44.70256 
46 ,9.4237 ,0.83834 ,4.55249 ,44.66898 
47 ,9.5996 ,0.84019 ,4.51826 ,44.33320 
48 ,9.7918 ,0.84200 ,4.52853 ,44.43394 
49 ,9.9842 ,0.84394 ,4.48404 ,43.99742 
50 ,10.1764 ,0.84583 ,4.46693 ,43.82953 
51 ,10.3843 ,0.84790 ,4.45324 ,43.69521 
52 ,10.5925 ,0.85000 ,4.44982 ,43.66163 
53 ,10.8005 ,0.85210 ,4.40191 ,43.19154 
54 ,11.0087 ,0.85414 ,4.41218 ,43.29227 
55 ,11.2009 ,0.85614 ,4.37795 ,42.95649 
56 ,11.3928 ,0.85805 ,4.37111 ,42.88933 
57 ,11.6010 ,0.85997 ,4.35400 ,42.72144 
58 ,11.7930 ,0.86206 ,4.32320 ,42.41924 
59 ,11.9851 ,0.86392 ,4.31636 ,42.35208 
60 ,12.1772 ,0.86588 ,4.28556 ,42.04988 
61 ,12.3853 ,0.86796 ,4.27871 ,41.98272 
62 ,12.5773 ,0.86987 ,4.24449 ,41.64694 
63 ,12.7689 ,0.87178 ,4.25133 ,41.71409 
64 ,12.9454 ,0.87369 ,4.22053 ,41.41189 
65 ,13.1376 ,0.87547 ,4.18974 ,41.10968 
66 ,13.3295 ,0.87740 ,4.19316 ,41.14326 
67 ,13.5217 ,0.87929 ,4.16578 ,40.87464 
68 ,13.7139 ,0.88118 ,4.16236 ,40.84106 
69 ,13.9215 ,0.88331 ,4.12814 ,40.50527 
70 ,14.1140 ,0.88523 ,4.11445 ,40.37096 
71 ,14.3061 ,0.88719 ,4.10076 ,40.23665 
72 ,14.4981 ,0.88911 ,4.08023 ,40.03518 
73 ,14.6902 ,0.89097 ,4.07338 ,39.96802 
74 ,14.8823 ,0.89294 ,4.04600 ,39.69940 
75 ,15.0743 ,0.89485 ,4.01520 ,39.39719 
76 ,15.2664 ,0.89675 ,4.01178 ,39.36361 
77 ,15.4585 ,0.89873 ,3.98783 ,39.12856 
78 ,15.6503 ,0.90057 ,3.98098 ,39.06141 
79 ,15.8266 ,0.90247 ,3.96045 ,38.85994 
80 ,16.0184 ,0.90428 ,3.92965 ,38.55773 
81 ,16.2108 ,0.90621 ,3.90912 ,38.35626 
82 ,16.4186 ,0.90829 ,3.89543 ,38.22195 
83 ,16.6270 ,0.91024 ,3.88858 ,38.15479 
84 ,16.8350 ,0.91244 ,3.85436 ,37.81901 
85 ,17.0271 ,0.91432 ,3.86121 ,37.88617 
86 ,17.2192 ,0.91628 ,3.82014 ,37.48323 
87 ,17.4111 ,0.91814 ,3.81672 ,37.44965 
88 ,17.6033 ,0.92008 ,3.78592 ,37.14744 
89 ,17.7954 ,0.92206 ,3.77223 ,37.01313 
90 ,17.9874 ,0.92390 ,3.77223 ,37.01313 
91 ,18.1951 ,0.92590 ,3.74143 ,36.71093 
92 ,18.3876 ,0.92803 ,3.73801 ,36.67735 
93 ,18.5956 ,0.92999 ,3.69010 ,36.20725 
94 ,18.7874 ,0.93201 ,3.68668 ,36.17367 
95 ,18.9799 ,0.93387 ,3.65930 ,35.90505 
96 ,19.1880 ,0.93597 ,3.65930 ,35.90505 
97 ,19.3800 ,0.93789 ,3.62166 ,35.53569 
98 ,19.5721 ,0.93983 ,3.61139 ,35.43495 
99 ,19.7642 ,0.94176 ,3.61139 ,35.43495 
100 ,19.9561 ,0.94365 ,3.57375 ,35.06559 
101 ,20.1641 ,0.94563 ,3.58059 ,35.13275 
102 ,20.3721 ,0.94779 ,3.53610 ,34.69623 
103 ,20.5642 ,0.94973 ,3.54295 ,34.76338 
104 ,20.7725 ,0.95181 ,3.49161 ,34.25971 
105 ,20.9644 ,0.95371 ,3.50188 ,34.36045 
106 ,21.1568 ,0.95563 ,3.46766 ,34.02466 
107 ,21.3486 ,0.95759 ,3.45055 ,33.85677 
108 ,21.5569 ,0.95963 ,3.42659 ,33.62172 
109 ,21.7491 ,0.96156 ,3.40606 ,33.42025 
110 ,21.9571 ,0.96355 ,3.41290 ,33.48741 
111 ,22.1491 ,0.96557 ,3.38553 ,33.21878 
112 ,22.3413 ,0.96750 ,3.36842 ,33.05089 
113 ,22.5333 ,0.96938 ,3.33419 ,32.71511 
114 ,22.7256 ,0.97134 ,3.32393 ,32.61437 
115 ,22.9176 ,0.97322 ,3.29997 ,32.37933 
116 ,23.1253 ,0.97532 ,3.28628 ,32.24501 
117 ,23.3176 ,0.97725 ,3.26917 ,32.07712 
118 ,23.5097 ,0.97913 ,3.25206 ,31.90923 
119 ,23.6855 ,0.98105 ,3.24864 ,31.87565 
120 ,23.8779 ,0.98279 ,3.22126 ,31.60702 
121 ,24.0859 ,0.98489 ,3.21100 ,31.50629 
122 ,24.2941 ,0.98710 ,3.17335 ,31.13693 
123 ,24.5016 ,0.98905 ,3.16993 ,31.10335 
124 ,24.6937 ,0.99104 ,3.13913 ,30.80115 
125 ,24.8857 ,0.99302 ,3.13229 ,30.73399 
126 ,25.0782 ,0.99490 ,3.11860 ,30.59968 
127 ,25.3022 ,0.99707 ,3.09464 ,30.36463 
128 ,25.4941 ,0.99902 ,3.06726 ,30.09600 
129 ,25.6865 ,1.00082 ,3.07069 ,30.12958 
130 ,25.8945 ,1.00300 ,3.02962 ,29.72664 
131 ,26.0868 ,1.00487 ,3.02962 ,29.72664 
132 ,26.2788 ,1.00684 ,3.00567 ,29.49159 
133 ,26.4869 ,1.00893 ,2.98513 ,29.29012 
134 ,26.6790 ,1.01086 ,2.98171 ,29.25654 
135 ,26.8708 ,1.01281 ,2.94064 ,28.85360 
136 ,27.0791 ,1.01487 ,2.94407 ,28.88718 
137 ,27.2711 ,1.01686 ,2.91669 ,28.61856 
138 ,27.4630 ,1.01870 ,2.90642 ,28.51782 
139 ,27.6554 ,1.02057 ,2.87905 ,28.24919 
140 ,27.8475 ,1.02246 ,2.86878 ,28.14846 
141 ,28.0232 ,1.02438 ,2.85167 ,27.98057 
142 ,28.2155 ,1.02621 ,2.84825 ,27.94699 
143 ,28.4078 ,1.02815 ,2.81060 ,27.57763 
144 ,28.6153 ,1.03011 ,2.80034 ,27.47689 
145 ,28.8074 ,1.03211 ,2.77296 ,27.20827 
146 ,28.9994 ,1.03406 ,2.77638 ,27.24185 
147 ,29.1915 ,1.03596 ,2.75243 ,27.00680 
148 ,29.3837 ,1.03791 ,2.73189 ,26.80533 
149 ,29.5757 ,1.03979 ,2.72505 ,26.73817 
150 ,29.7517 ,1.04173 ,2.69425 ,26.43597 
151 ,29.9439 ,1.04348 ,2.67029 ,26.20092 
152 ,30.1361 ,1.04540 ,2.68740 ,26.36881 
153 ,30.3440 ,1.04744 ,2.64976 ,25.99945 
154 ,30.5366 ,1.04944 ,2.64634 ,25.96587 
155 ,30.7447 ,1.05148 ,2.61896 ,25.69724 
156 ,30.9368 ,1.05346 ,2.62238 ,25.73082 
157 ,31.1290 ,1.05536 ,2.57447 ,25.26073 
158 ,31.3206 ,1.05725 ,2.58474 ,25.36146 
159 ,31.5449 ,1.05934 ,2.55394 ,25.05926 
160 ,31.7370 ,1.06138 ,2.52656 ,24.79063 
161 ,31.9452 ,1.06342 ,2.51287 ,24.65632 
162 ,32.1372 ,1.06540 ,2.50603 ,24.58916 
163 ,32.3295 ,1.06728 ,2.46839 ,24.21980 
164 ,32.5374 ,1.06942 ,2.47181 ,24.25338 
165 ,32.7456 ,1.07151 ,2.43759 ,23.91759 
166 ,32.9536 ,1.07355 ,2.43759 ,23.91759 
167 ,33.1456 ,1.07549 ,2.40336 ,23.58181 
168 ,33.3537 ,1.07748 ,2.39310 ,23.48108 
169 ,33.5454 ,1.07950 ,2.37256 ,23.27961 
170 ,33.7380 ,1.08146 ,2.37941 ,23.34676 
171 ,33.9306 ,1.08328 ,2.35203 ,23.07814 
172 ,34.1221 ,1.08524 ,2.33492 ,22.91024 
173 ,34.3142 ,1.08715 ,2.33492 ,22.91024 
174 ,34.5060 ,1.08909 ,2.29728 ,22.54088 
175 ,34.7301 ,1.09136 ,2.29728 ,22.54088 
176 ,34.9385 ,1.09336 ,2.26990 ,22.27226 
177 ,35.1303 ,1.09530 ,2.24594 ,22.03721 
178 ,35.3227 ,1.09725 ,2.23226 ,21.90290 
179 ,35.4986 ,1.09910 ,2.23910 ,21.97005 
180 ,35.6743 ,1.10085 ,2.19461 ,21.53353 
181 ,35.8668 ,1.10268 ,2.19461 ,21.53353 
182 ,36.0588 ,1.10461 ,2.17408 ,21.33206 
183 ,36.2668 ,1.10675 ,2.15012 ,21.09702 
184 ,36.4751 ,1.10875 ,2.15697 ,21.16417 
185 ,36.6669 ,1.11067 ,2.11932 ,20.79481 
186 ,36.8589 ,1.11258 ,2.10906 ,20.69408 
187 ,37.0514 ,1.11451 ,2.08852 ,20.49261 
188 ,37.2432 ,1.11644 ,2.07141 ,20.32472 
189 ,37.4352 ,1.11837 ,2.08852 ,20.49261 
190 ,37.6275 ,1.12025 ,2.04404 ,20.05609 
191 ,37.8196 ,1.12225 ,2.04061 ,20.02251 
192 ,38.0118 ,1.12414 ,2.03035 ,19.92178 
193 ,38.2198 ,1.12625 ,2.00639 ,19.68673 
194 ,38.4118 ,1.12815 ,1.99270 ,19.55241 
195 ,38.6042 ,1.13009 ,1.97217 ,19.35094 
196 ,38.7960 ,1.13201 ,1.96190 ,19.25021 
197 ,38.9877 ,1.13389 ,1.95164 ,19.14948 
198 ,39.1802 ,1.13584 ,1.94137 ,19.04874 
199 ,39.3722 ,1.13774 ,1.93111 ,18.94801 
200 ,39.5642 ,1.13962 ,1.90031 ,18.64580 
201 ,39.7564 ,1.14156 ,1.89004 ,18.54507 
202 ,39.9645 ,1.14358 ,1.86608 ,18.31002 
203 ,40.1564 ,1.14554 ,1.85924 ,18.24286 
204 ,40.3483 ,1.14752 ,1.85240 ,18.17570 
205 ,40.5567 ,1.14944 ,1.82160 ,17.87350 
206 ,40.7486 ,1.15145 ,1.82844 ,17.94066 
207 ,40.9729 ,1.15360 ,1.80106 ,17.67203 
208 ,41.1805 ,1.15577 ,1.78053 ,17.47056 
209 ,41.3726 ,1.15771 ,1.78395 ,17.50414 
210 ,41.5651 ,1.15966 ,1.76684 ,17.33625 
211 ,41.7730 ,1.16176 ,1.74289 ,17.10120 
212 ,41.9651 ,1.16368 ,1.71551 ,16.83257 
213 ,42.1731 ,1.16574 ,1.71209 ,16.79899 
214 ,42.3812 ,1.16787 ,1.68813 ,16.56395 
215 ,42.5897 ,1.16986 ,1.69155 ,16.59752 
216 ,42.7975 ,1.17196 ,1.64707 ,16.16101 
217 ,43.0058 ,1.17403 ,1.65391 ,16.22816 
218 ,43.2139 ,1.17613 ,1.64364 ,16.12743 
219 ,43.4060 ,1.17807 ,1.62995 ,15.99311 
220 ,43.6138 ,1.18012 ,1.61284 ,15.82522 
221 ,43.8217 ,1.18212 ,1.58889 ,15.59018 
222 ,44.0142 ,1.18415 ,1.57862 ,15.48944 
223 ,44.2220 ,1.18620 ,1.56151 ,15.32155 
224 ,44.4140 ,1.18808 ,1.54098 ,15.12008 
225 ,44.6063 ,1.19004 ,1.55124 ,15.22081 
226 ,44.7986 ,1.19196 ,1.51018 ,14.81787 
227 ,45.0065 ,1.19403 ,1.51702 ,14.88503 
228 ,45.1987 ,1.19595 ,1.48965 ,14.61640 
229 ,45.4067 ,1.19804 ,1.48965 ,14.61640 
230 ,45.5985 ,1.19992 ,1.45542 ,14.28062 
231 ,45.7908 ,1.20193 ,1.45200 ,14.24704 
232 ,45.9666 ,1.20380 ,1.45200 ,14.24704 
233 ,46.1586 ,1.20552 ,1.41094 ,13.84410 
234 ,46.3508 ,1.20744 ,1.40409 ,13.77695 
235 ,46.5590 ,1.20949 ,1.41094 ,13.84410 
236 ,46.7514 ,1.21156 ,1.37671 ,13.50832 
237 ,46.9593 ,1.21355 ,1.36987 ,13.44116 
238 ,47.1512 ,1.21546 ,1.35960 ,13.34043 
239 ,47.3436 ,1.21742 ,1.34934 ,13.23969 
240 ,47.5516 ,1.21942 ,1.31169 ,12.87033 
241 ,47.7435 ,1.22139 ,1.32196 ,12.97107 
242 ,47.9358 ,1.22331 ,1.30143 ,12.76960 
243 ,48.1277 ,1.22528 ,1.28432 ,12.60171 
244 ,48.3198 ,1.22713 ,1.26720 ,12.43381 
245 ,48.5119 ,1.22905 ,1.24667 ,12.23235 
246 ,48.6880 ,1.23094 ,1.25694 ,12.33308 
247 ,48.8801 ,1.23271 ,1.23641 ,12.13161 
248 ,49.0722 ,1.23464 ,1.21245 ,11.89656 
249 ,49.2801 ,1.23675 ,1.20903 ,11.86298 
250 ,49.4883 ,1.23885 ,1.18507 ,11.62794 
251 ,49.6803 ,1.24077 ,1.18165 ,11.59436 
252 ,49.8561 ,1.24262 ,1.15085 ,11.29215 
253 ,50.0486 ,1.24445 ,1.14743 ,11.25857 
254 ,50.2727 ,1.24672 ,1.12690 ,11.05710 
255 ,50.4648 ,1.24862 ,1.13374 ,11.12426 
256 ,50.6726 ,1.25063 ,1.10979 ,10.88921 
257 ,50.8646 ,1.25267 ,1.11663 ,10.95637 
258 ,51.0566 ,1.25452 ,1.08583 ,10.65416 
259 ,51.2491 ,1.25647 ,1.08241 ,10.62059 
260 ,51.4409 ,1.25835 ,1.05845 ,10.38554 
261 ,51.6492 ,1.26042 ,1.04134 ,10.21765 
262 ,51.8413 ,1.26239 ,1.03108 ,10.11691 
263 ,52.0490 ,1.26440 ,1.00712 ,9.88186 
264 ,52.2414 ,1.26634 ,1.01054 ,9.91544 
265 ,52.4341 ,1.26832 ,0.99001 ,9.71397 
266 ,52.6416 ,1.27033 ,0.99001 ,9.71397 
267 ,52.8339 ,1.27232 ,0.95579 ,9.37819 
268 ,53.0260 ,1.27425 ,0.95579 ,9.37819 
269 ,53.2341 ,1.27625 ,0.93183 ,9.14314 
270 ,53.4421 ,1.27829 ,0.92841 ,9.10956 
271 ,53.6342 ,1.28032 ,0.89761 ,8.80736 
272 ,53.8261 ,1.28221 ,0.90103 ,8.84094 
273 ,54.0183 ,1.28415 ,0.89419 ,8.77378 
274 ,54.2099 ,1.28618 ,0.87366 ,8.57231 
275 ,54.4349 ,1.28826 ,0.85654 ,8.40442 
276 ,54.6426 ,1.29039 ,0.85654 ,8.40442 
277 ,54.8345 ,1.29234 ,0.82917 ,8.13579 
278 ,55.0106 ,1.29415 ,0.81890 ,8.03506 
279 ,55.2028 ,1.29594 ,0.82232 ,8.06864 
280 ,55.4107 ,1.29810 ,0.79837 ,7.83359 
281 ,55.6029 ,1.30007 ,0.79152 ,7.76643 
282 ,55.8108 ,1.30199 ,0.76757 ,7.53138 
283 ,56.0031 ,1.30394 ,0.76072 ,7.46423 
284 ,56.1952 ,1.30587 ,0.73335 ,7.19560 
285 ,56.3869 ,1.30776 ,0.72308 ,7.09486 
286 ,56.5954 ,1.30979 ,0.72650 ,7.12844 
287 ,56.8195 ,1.31205 ,0.71281 ,6.99413 
288 ,57.0277 ,1.31423 ,0.68544 ,6.72550 
289 ,57.2516 ,1.31635 ,0.68201 ,6.69193 
290 ,57.4753 ,1.31859 ,0.67859 ,6.65835 
291 ,57.6677 ,1.32063 ,0.64437 ,6.32256 
292 ,57.8756 ,1.32263 ,0.65121 ,6.38972 
293 ,58.0680 ,1.32460 ,0.62042 ,6.08752 
294 ,58.2599 ,1.32652 ,0.63068 ,6.18825 
295 ,58.4681 ,1.32846 ,0.59304 ,5.81889 
296 ,58.6761 ,1.33073 ,0.59988 ,5.88605 
297 ,58.8679 ,1.33260 ,0.56908 ,5.58384 
298 ,59.0601 ,1.33451 ,0.58277 ,5.71815 
299 ,59.2525 ,1.33648 ,0.56224 ,5.51668 
300 ,59.4446 ,1.33844 ,0.54513 ,5.34879 
301 ,59.6366 ,1.34038 ,0.52802 ,5.18090 
302 ,59.8285 ,1.34219 ,0.51775 ,5.08017 
303 ,60.0368 ,1.34430 ,0.51775 ,5.08017 
304 ,60.2449 ,1.34627 ,0.48353 ,4.74438 
305 ,60.4369 ,1.34828 ,0.51091 ,5.01301 
306 ,60.6292 ,1.35018 ,0.46300 ,4.54291 
307 ,60.8369 ,1.35226 ,0.46642 ,4.57649 
308 ,61.0291 ,1.35419 ,0.44931 ,4.40860 
309 ,61.2212 ,1.35607 ,0.45615 ,4.47576 
310 ,61.4133 ,1.35805 ,0.42877 ,4.20713 
311 ,61.6054 ,1.35994 ,0.42193 ,4.13997 
312 ,61.7975 ,1.36182 ,0.42535 ,4.17355 
313 ,62.0055 ,1.36398 ,0.40140 ,3.93850 
314 ,62.2136 ,1.36599 ,0.38771 ,3.80419 
315 ,62.4217 ,1.36803 ,0.36718 ,3.60272 
316 ,62.6296 ,1.37023 ,0.35691 ,3.50199 
317 ,62.8060 ,1.37201 ,0.33638 ,3.30052 
318 ,63.0139 ,1.37404 ,0.34664 ,3.40125 
319 ,63.2061 ,1.37595 ,0.31584 ,3.09905 
320 ,63.4137 ,1.37805 ,0.32611 ,3.19978 
321 ,63.6063 ,1.37996 ,0.30215 ,2.96473 
322 ,63.7981 ,1.38191 ,0.30558 ,2.99831 
323 ,63.9904 ,1.38389 ,0.29189 ,2.86400 
324 ,64.2143 ,1.38590 ,0.27820 ,2.72969 
325 ,64.4227 ,1.38816 ,0.25082 ,2.46106 
326 ,64.5986 ,1.38998 ,0.25424 ,2.49464 
327 ,64.7904 ,1.39176 ,0.23371 ,2.29317 
328 ,64.9828 ,1.39372 ,0.22687 ,2.22601 
329 ,65.1747 ,1.39567 ,0.22344 ,2.19243 
330 ,65.3669 ,1.39750 ,0.20633 ,2.02454 
331 ,65.5591 ,1.39947 ,0.21660 ,2.12528 
332 ,65.7511 ,1.40143 ,0.20633 ,2.02454 
333 ,65.9590 ,1.40351 ,0.18238 ,1.78949 
334 ,66.1511 ,1.40539 ,0.16869 ,1.65518 
335 ,66.3754 ,1.40758 ,0.15500 ,1.52087 
336 ,66.5834 ,1.40973 ,0.12762 ,1.25224 
337 ,66.7915 ,1.41167 ,0.14816 ,1.45371 
338 ,66.9835 ,1.41376 ,0.11051 ,1.08435 
339 ,67.1756 ,1.41561 ,0.13447 ,1.31940 
340 ,67.3673 ,1.41753 ,0.07629 ,0.74857 
341 ,67.5595 ,1.41943 ,0.08656 ,0.84930 
342 ,67.7677 ,1.42154 ,0.05918 ,0.58067 
343 ,67.9600 ,1.42343 ,0.06602 ,0.64783 
344 ,68.1520 ,1.42540 ,0.07287 ,0.71499 
345 ,68.3442 ,1.42731 ,0.03865 ,0.37920 
346 ,68.5523 ,1.42943 ,0.03865 ,0.37920 
347 ,68.7601 ,1.43148 ,0.01469 ,0.14416 
348 ,68.9524 ,1.43336 ,0.01127 ,0.11058 
349 ,69.1603 ,1.43544 ,-0.00926 ,-0.09089 
350 ,69.3526 ,1.43737 ,0.00100 ,0.00984 
351 ,69.5282 ,1.43929 ,-0.02637 ,-0.25878 
352 ,69.7208 ,1.44113 ,-0.02980 ,-0.29236 
353 ,69.9287 ,1.44316 ,-0.02295 ,-0.22520 
354 ,70.1209 ,1.44506 ,-0.04006 ,-0.39310 
355 ,70.3128 ,1.44703 ,-0.05033 ,-0.49383 
356 ,70.5051 ,1.44891 ,-0.08113 ,-0.79604 
357 ,70.7131 ,1.45100 ,-0.07771 ,-0.76246 
358 ,70.9211 ,1.45311 ,-0.10508 ,-1.03108 
359 ,71.1133 ,1.45503 ,-0.08797 ,-0.86319 
360 ,71.3214 ,1.45703 ,-0.11535 ,-1.13182 
361 ,71.5132 ,1.45901 ,-0.11193 ,-1.09824 
362 ,71.7051 ,1.46091 ,-0.14273 ,-1.40045 
363 ,71.8974 ,1.46282 ,-0.16326 ,-1.60191 
364 ,72.0898 ,1.46473 ,-0.13931 ,-1.36687 
365 ,72.2816 ,1.46671 ,-0.17011 ,-1.66907 
366 ,72.4739 ,1.46860 ,-0.16326 ,-1.60191 
367 ,72.6657 ,1.47057 ,-0.16326 ,-1.60191 
368 ,72.8420 ,1.47238 ,-0.18037 ,-1.76981 
369 ,73.0341 ,1.47419 ,-0.19748 ,-1.93770 
370 ,73.2264 ,1.47614 ,-0.20775 ,-2.03843 
371 ,73.4347 ,1.47817 ,-0.21802 ,-2.13917 
372 ,73.6421 ,1.48026 ,-0.23170 ,-2.27348 
373 ,73.8341 ,1.48220 ,-0.23855 ,-2.34064 
374 ,74.0264 ,1.48419 ,-0.22828 ,-2.23990 
375 ,74.2184 ,1.48609 ,-0.25908 ,-2.54211 
376 ,74.4106 ,1.48796 ,-0.24539 ,-2.40779 
377 ,74.5866 ,1.48987 ,-0.27961 ,-2.74358 
378 ,74.7788 ,1.49160 ,-0.30357 ,-2.97863 
379 ,74.9864 ,1.49373 ,-0.28646 ,-2.81073 
380 ,75.1789 ,1.49563 ,-0.31041 ,-3.04578 
381 ,75.3868 ,1.49773 ,-0.30699 ,-3.01220 
382 ,75.6112 ,1.49987 ,-0.32068 ,-3.14652 
383 ,75.8033 ,1.50191 ,-0.33095 ,-3.24725 
384 ,76.0113 ,1.50396 ,-0.33095 ,-3.24725 
385 ,76.2034 ,1.50589 ,-0.35490 ,-3.48230 
386 ,76.4114 ,1.50791 ,-0.35832 ,-3.51588 
387 ,76.6035 ,1.50990 ,-0.36517 ,-3.58303 
388 ,76.7957 ,1.51179 ,-0.39255 ,-3.85166 
389 ,76.9877 ,1.51373 ,-0.38912 ,-3.81808 
390 ,77.1953 ,1.51586 ,-0.40966 ,-4.01955 
391 ,77.3879 ,1.51774 ,-0.39597 ,-3.88524 
392 ,77.5797 ,1.51963 ,-0.41992 ,-4.12029 
393 ,77.7718 ,1.52156 ,-0.44046 ,-4.32176 
394 ,77.9641 ,1.52350 ,-0.43019 ,-4.22102 
395 ,78.1562 ,1.52543 ,-0.46783 ,-4.59038 
396 ,78.3480 ,1.52731 ,-0.44730 ,-4.38891 
397 ,78.5401 ,1.52919 ,-0.46099 ,-4.52323 
398 ,78.7325 ,1.53112 ,-0.47810 ,-4.69112 
399 ,78.9244 ,1.53316 ,-0.48494 ,-4.75828 
400 ,79.1166 ,1.53497 ,-0.50890 ,-4.99332 
401 ,79.3085 ,1.53693 ,-0.50206 ,-4.92617 
402 ,79.5168 ,1.53903 ,-0.51232 ,-5.02690 
403 ,79.7249 ,1.54112 ,-0.51232 ,-5.02690 
404 ,79.9164 ,1.54303 ,-0.54312 ,-5.32911 
405 ,80.1090 ,1.54492 ,-0.53970 ,-5.29553 
406 ,80.3171 ,1.54686 ,-0.56023 ,-5.49700 
407 ,80.5091 ,1.54893 ,-0.56023 ,-5.49700 
408 ,80.7012 ,1.55082 ,-0.56708 ,-5.56415 
409 ,80.8932 ,1.55271 ,-0.57734 ,-5.66489 
410 ,81.0854 ,1.55466 ,-0.57734 ,-5.66489 
411 ,81.2934 ,1.55679 ,-0.60130 ,-5.89994 
412 ,81.4693 ,1.55868 ,-0.60472 ,-5.93352 
413 ,81.6616 ,1.56044 ,-0.60472 ,-5.93352 
414 ,81.8695 ,1.56256 ,-0.62525 ,-6.13499 
415 ,82.0618 ,1.56444 ,-0.62525 ,-6.13499 
416 ,82.2537 ,1.56638 ,-0.65263 ,-6.40361 
417 ,82.4619 ,1.56845 ,-0.65263 ,-6.40361 
418 ,82.6536 ,1.57034 ,-0.65947 ,-6.47077 
419 ,82.8462 ,1.57231 ,-0.65605 ,-6.43719 
420 ,83.0542 ,1.57435 ,-0.69027 ,-6.77297 
421 ,83.2463 ,1.57627 ,-0.67659 ,-6.63866 
422 ,83.4702 ,1.57843 ,-0.69712 ,-6.84013 
423 ,83.6783 ,1.58057 ,-0.70396 ,-6.90729 
424 ,83.8704 ,1.58260 ,-0.73134 ,-7.17591 
425 ,84.0626 ,1.58449 ,-0.72450 ,-7.10876 
426 ,84.2546 ,1.58637 ,-0.72450 ,-7.10876 
427 ,84.4628 ,1.58847 ,-0.73134 ,-7.17591 
428 ,84.6550 ,1.59040 ,-0.74503 ,-7.31023 
429 ,84.8625 ,1.59247 ,-0.75187 ,-7.37738 
430 ,85.0546 ,1.59435 ,-0.77583 ,-7.61243 
431 ,85.2626 ,1.59636 ,-0.77925 ,-7.64601 
432 ,85.4547 ,1.59839 ,-0.79636 ,-7.81390 
433 ,85.6471 ,1.60031 ,-0.79978 ,-7.84748 
434 ,85.8390 ,1.60222 ,-0.81005 ,-7.94821 
435 ,86.0151 ,1.60408 ,-0.82716 ,-8.11611 
436 ,86.2077 ,1.60588 ,-0.82716 ,-8.11611 
437 ,86.3994 ,1.60780 ,-0.81347 ,-7.98179 
438 ,86.5916 ,1.60978 ,-0.84769 ,-8.31758 
439 ,86.7996 ,1.61181 ,-0.85112 ,-8.35115 
440 ,86.9916 ,1.61379 ,-0.86823 ,-8.51904 
441 ,87.1997 ,1.61574 ,-0.85796 ,-8.41831 
442 ,87.4080 ,1.61787 ,-0.87849 ,-8.61978 
443 ,87.5999 ,1.61983 ,-0.87849 ,-8.61978 
444 ,87.8082 ,1.62190 ,-0.91272 ,-8.95556 
445 ,87.9999 ,1.62386 ,-0.89560 ,-8.78767 
446 ,88.2083 ,1.62586 ,-0.92298 ,-9.05630 
447 ,88.4004 ,1.62777 ,-0.90587 ,-8.88841 
448 ,88.6244 ,1.62984 ,-0.93325 ,-9.15703 
449 ,88.8165 ,1.63197 ,-0.92298 ,-9.05630 
450 ,89.0086 ,1.63391 ,-0.96405 ,-9.45924 
451 ,89.1843 ,1.63580 ,-0.93667 ,-9.19061 
452 ,89.3928 ,1.63765 ,-0.94694 ,-9.29135 
453 ,89.5845 ,1.63968 ,-0.97089 ,-9.52639 
454 ,89.7765 ,1.64156 ,-0.98458 ,-9.66071 
455 ,89.9690 ,1.64350 ,-0.99827 ,-9.79502 
456 ,90.1610 ,1.64539 ,-1.00169 ,-9.82860 
457 ,90.3367 ,1.64729 ,-1.00511 ,-9.86218 
458 ,90.5294 ,1.64909 ,-1.01880 ,-9.99649 
459 ,90.7374 ,1.65119 ,-1.01196 ,-9.92933 
460 ,90.9454 ,1.65319 ,-1.04276 ,-10.23154 
461 ,91.1375 ,1.65517 ,-1.03249 ,-10.13080 
462 ,91.3295 ,1.65708 ,-1.05645 ,-10.36585 
