Data stamp = , 29-04-2022 02:36:50 980

Calibration Values: 
Slope = , 26.54 , g/V 
Offset Voltage at no contact = , -0.501760 , V 

No , Time , Stage Position ,   Mass , Force 
   ,  (s) ,      (mm)      ,   (g)  , (mN)  

1 ,0.0000 ,0.74939 ,5.30536 ,52.05621 
2 ,0.2916 ,0.74959 ,5.30536 ,52.05621 
3 ,0.6283 ,0.75079 ,5.31221 ,52.12337 
4 ,0.8363 ,0.75257 ,5.30194 ,52.02263 
5 ,1.0284 ,0.75442 ,5.29167 ,51.92190 
6 ,1.2364 ,0.75641 ,5.31563 ,52.15694 
7 ,1.4286 ,0.75834 ,5.29510 ,51.95548 
8 ,1.6206 ,0.76032 ,5.29510 ,51.95548 
9 ,1.8283 ,0.76237 ,5.27456 ,51.75401 
10 ,2.0366 ,0.76458 ,5.26430 ,51.65327 
11 ,2.2288 ,0.76646 ,5.23350 ,51.35107 
12 ,2.4208 ,0.76829 ,5.23350 ,51.35107 
13 ,2.6289 ,0.77041 ,5.19927 ,51.01528 
14 ,2.8207 ,0.77230 ,5.19243 ,50.94813 
15 ,3.0128 ,0.77420 ,5.16505 ,50.67950 
16 ,3.2051 ,0.77613 ,5.15821 ,50.61234 
17 ,3.3972 ,0.77801 ,5.13425 ,50.37729 
18 ,3.6051 ,0.78010 ,5.11372 ,50.17583 
19 ,3.7974 ,0.78212 ,5.10003 ,50.04151 
20 ,3.9891 ,0.78402 ,5.07265 ,49.77289 
21 ,4.1816 ,0.78593 ,5.05897 ,49.63857 
22 ,4.3893 ,0.78798 ,5.03501 ,49.40352 
23 ,4.5817 ,0.78986 ,5.01790 ,49.23563 
24 ,4.7898 ,0.79201 ,4.99737 ,49.03416 
25 ,4.9820 ,0.79386 ,4.99052 ,48.96701 
26 ,5.1900 ,0.79597 ,4.95630 ,48.63122 
27 ,5.3980 ,0.79807 ,4.93919 ,48.46333 
28 ,5.5901 ,0.80013 ,4.90155 ,48.09397 
29 ,5.7822 ,0.80189 ,4.90155 ,48.09397 
30 ,5.9743 ,0.80383 ,4.88101 ,47.89250 
31 ,6.1819 ,0.80588 ,4.86048 ,47.69103 
32 ,6.3584 ,0.80784 ,4.83652 ,47.45598 
33 ,6.5505 ,0.80961 ,4.81941 ,47.28809 
34 ,6.7427 ,0.81149 ,4.81599 ,47.25451 
35 ,6.9507 ,0.81361 ,4.77493 ,46.85157 
36 ,7.1426 ,0.81553 ,4.76124 ,46.71726 
37 ,7.3189 ,0.81738 ,4.73728 ,46.48221 
38 ,7.5108 ,0.81919 ,4.71333 ,46.24716 
39 ,7.6870 ,0.82101 ,4.70306 ,46.14643 
40 ,7.8792 ,0.82292 ,4.69964 ,46.11285 
41 ,8.0712 ,0.82482 ,4.66199 ,45.74349 
42 ,8.2634 ,0.82675 ,4.64488 ,45.57560 
43 ,8.4874 ,0.82884 ,4.62093 ,45.34055 
44 ,8.6955 ,0.83108 ,4.62093 ,45.34055 
45 ,8.9031 ,0.83312 ,4.59697 ,45.10550 
46 ,9.0951 ,0.83505 ,4.57302 ,44.87045 
47 ,9.2873 ,0.83694 ,4.54222 ,44.56825 
48 ,9.4796 ,0.83887 ,4.54906 ,44.63541 
49 ,9.6718 ,0.84081 ,4.51826 ,44.33320 
50 ,9.8637 ,0.84270 ,4.51484 ,44.29962 
51 ,10.0721 ,0.84481 ,4.48062 ,43.96384 
52 ,10.2636 ,0.84672 ,4.46009 ,43.76237 
53 ,10.4557 ,0.84862 ,4.45666 ,43.72879 
54 ,10.6482 ,0.85060 ,4.41560 ,43.32585 
55 ,10.8561 ,0.85263 ,4.43613 ,43.52732 
56 ,11.0484 ,0.85459 ,4.39849 ,43.15796 
57 ,11.2404 ,0.85647 ,4.38138 ,42.99007 
58 ,11.4325 ,0.85840 ,4.35058 ,42.68786 
59 ,11.6081 ,0.86028 ,4.34373 ,42.62071 
60 ,11.8002 ,0.86204 ,4.33347 ,42.51997 
61 ,11.9923 ,0.86401 ,4.30609 ,42.25135 
62 ,12.2163 ,0.86621 ,4.27529 ,41.94914 
63 ,12.4249 ,0.86827 ,4.26502 ,41.84841 
64 ,12.6487 ,0.87057 ,4.23080 ,41.51262 
65 ,12.8409 ,0.87251 ,4.22738 ,41.47905 
66 ,13.0493 ,0.87459 ,4.20685 ,41.27758 
67 ,13.2411 ,0.87647 ,4.19658 ,41.17684 
68 ,13.4330 ,0.87838 ,4.16236 ,40.84106 
69 ,13.6252 ,0.88029 ,4.15551 ,40.77390 
70 ,13.8175 ,0.88214 ,4.13156 ,40.53885 
71 ,14.0252 ,0.88420 ,4.11103 ,40.33738 
72 ,14.2177 ,0.88619 ,4.09049 ,40.13591 
73 ,14.4094 ,0.88818 ,4.07338 ,39.96802 
74 ,14.6018 ,0.89009 ,4.06996 ,39.93444 
75 ,14.7934 ,0.89198 ,4.02889 ,39.53150 
76 ,14.9858 ,0.89399 ,4.02205 ,39.46435 
77 ,15.2101 ,0.89621 ,4.01178 ,39.36361 
78 ,15.4021 ,0.89810 ,3.99809 ,39.22930 
79 ,15.6103 ,0.90017 ,3.97072 ,38.96067 
80 ,15.8019 ,0.90207 ,3.96045 ,38.85994 
81 ,15.9782 ,0.90396 ,3.93307 ,38.59131 
82 ,16.1705 ,0.90574 ,3.90912 ,38.35626 
83 ,16.3625 ,0.90771 ,3.89543 ,38.22195 
84 ,16.5544 ,0.90957 ,3.88516 ,38.12122 
85 ,16.7468 ,0.91154 ,3.87147 ,37.98690 
86 ,16.9543 ,0.91361 ,3.84410 ,37.71828 
87 ,17.1469 ,0.91555 ,3.82356 ,37.51681 
88 ,17.3548 ,0.91756 ,3.80987 ,37.38249 
89 ,17.5471 ,0.91951 ,3.79961 ,37.28176 
90 ,17.7550 ,0.92158 ,3.77223 ,37.01313 
91 ,17.9472 ,0.92349 ,3.75854 ,36.87882 
92 ,18.1713 ,0.92569 ,3.72774 ,36.57661 
93 ,18.3630 ,0.92768 ,3.72432 ,36.54303 
94 ,18.5554 ,0.92956 ,3.69694 ,36.27441 
95 ,18.7632 ,0.93167 ,3.69010 ,36.20725 
96 ,18.9556 ,0.93359 ,3.65930 ,35.90505 
97 ,19.1313 ,0.93544 ,3.64561 ,35.77073 
98 ,19.3237 ,0.93725 ,3.63192 ,35.63642 
99 ,19.5158 ,0.93926 ,3.59770 ,35.30064 
100 ,19.7079 ,0.94114 ,3.59428 ,35.26706 
101 ,19.9000 ,0.94299 ,3.59086 ,35.23348 
102 ,20.0922 ,0.94495 ,3.55321 ,34.86412 
103 ,20.2841 ,0.94686 ,3.55663 ,34.89770 
104 ,20.4924 ,0.94896 ,3.52584 ,34.59549 
105 ,20.7003 ,0.95106 ,3.51215 ,34.46118 
106 ,20.8925 ,0.95298 ,3.47792 ,34.12540 
107 ,21.0681 ,0.95486 ,3.48477 ,34.19255 
108 ,21.2606 ,0.95662 ,3.46081 ,33.95751 
109 ,21.4846 ,0.95878 ,3.42317 ,33.58814 
110 ,21.6768 ,0.96081 ,3.40606 ,33.42025 
111 ,21.8846 ,0.96289 ,3.41633 ,33.52099 
112 ,22.0770 ,0.96484 ,3.38553 ,33.21878 
113 ,22.2690 ,0.96677 ,3.35815 ,32.95016 
114 ,22.4608 ,0.96862 ,3.36157 ,32.98374 
115 ,22.6211 ,0.97044 ,3.33419 ,32.71511 
116 ,22.7971 ,0.97207 ,3.32051 ,32.58080 
117 ,22.9893 ,0.97391 ,3.29997 ,32.37933 
118 ,23.1814 ,0.97585 ,3.29997 ,32.37933 
119 ,23.3732 ,0.97776 ,3.25206 ,31.90923 
120 ,23.5494 ,0.97962 ,3.26917 ,32.07712 
121 ,23.7415 ,0.98142 ,3.23495 ,31.74134 
122 ,23.9177 ,0.98328 ,3.22126 ,31.60702 
123 ,24.0937 ,0.98512 ,3.20073 ,31.40555 
124 ,24.2858 ,0.98687 ,3.19046 ,31.30482 
125 ,24.4777 ,0.98882 ,3.15624 ,30.96904 
126 ,24.6697 ,0.99069 ,3.14940 ,30.90188 
127 ,24.8618 ,0.99265 ,3.14255 ,30.83472 
128 ,25.0700 ,0.99472 ,3.11860 ,30.59968 
129 ,25.2623 ,0.99662 ,3.10833 ,30.49894 
130 ,25.4542 ,0.99862 ,3.07069 ,30.12958 
131 ,25.6299 ,1.00048 ,3.07411 ,30.16316 
132 ,25.8385 ,1.00229 ,3.05700 ,29.99527 
133 ,26.0465 ,1.00445 ,3.03304 ,29.76022 
134 ,26.2226 ,1.00634 ,3.00224 ,29.45801 
135 ,26.4146 ,1.00812 ,3.00567 ,29.49159 
136 ,26.6066 ,1.01007 ,2.98513 ,29.29012 
137 ,26.7824 ,1.01195 ,2.95091 ,28.95434 
138 ,26.9745 ,1.01376 ,2.93038 ,28.75287 
139 ,27.1506 ,1.01563 ,2.92353 ,28.68571 
140 ,27.3430 ,1.01749 ,2.92011 ,28.65213 
141 ,27.5512 ,1.01952 ,2.89273 ,28.38351 
142 ,27.7430 ,1.02153 ,2.86878 ,28.14846 
143 ,27.9189 ,1.02332 ,2.84482 ,27.91341 
144 ,28.1112 ,1.02514 ,2.82429 ,27.71194 
145 ,28.3031 ,1.02702 ,2.82429 ,27.71194 
146 ,28.5113 ,1.02914 ,2.80376 ,27.51047 
147 ,28.7034 ,1.03105 ,2.80034 ,27.47689 
148 ,28.8953 ,1.03301 ,2.76611 ,27.14111 
149 ,29.0876 ,1.03491 ,2.75585 ,27.04038 
150 ,29.2958 ,1.03698 ,2.72505 ,26.73817 
151 ,29.4880 ,1.03893 ,2.73189 ,26.80533 
152 ,29.6800 ,1.04083 ,2.71136 ,26.60386 
153 ,29.8721 ,1.04269 ,2.68398 ,26.33523 
154 ,30.0636 ,1.04466 ,2.67714 ,26.26807 
155 ,30.2883 ,1.04683 ,2.64976 ,25.99945 
156 ,30.4964 ,1.04897 ,2.61554 ,25.66367 
157 ,30.6885 ,1.05090 ,2.62581 ,25.76440 
158 ,30.8962 ,1.05292 ,2.59501 ,25.46220 
159 ,31.0881 ,1.05486 ,2.59501 ,25.46220 
160 ,31.2806 ,1.05682 ,2.56421 ,25.15999 
161 ,31.4888 ,1.05877 ,2.55736 ,25.09283 
162 ,31.6808 ,1.06081 ,2.53683 ,24.89136 
163 ,31.8729 ,1.06276 ,2.51630 ,24.68989 
164 ,32.0650 ,1.06472 ,2.50603 ,24.58916 
165 ,32.2570 ,1.06657 ,2.47523 ,24.28696 
166 ,32.4492 ,1.06849 ,2.47865 ,24.32053 
167 ,32.6412 ,1.07041 ,2.44785 ,24.01833 
168 ,32.8333 ,1.07231 ,2.43759 ,23.91759 
169 ,33.0254 ,1.07426 ,2.43416 ,23.88402 
170 ,33.2172 ,1.07620 ,2.40679 ,23.61539 
171 ,33.4253 ,1.07824 ,2.39994 ,23.54823 
172 ,33.6333 ,1.08033 ,2.36230 ,23.17887 
173 ,33.8096 ,1.08215 ,2.37941 ,23.34676 
174 ,34.0019 ,1.08400 ,2.33834 ,22.94382 
175 ,34.1938 ,1.08592 ,2.32465 ,22.80951 
176 ,34.3853 ,1.08789 ,2.31439 ,22.70877 
177 ,34.5776 ,1.08979 ,2.28359 ,22.40657 
178 ,34.7700 ,1.09167 ,2.28359 ,22.40657 
179 ,34.9621 ,1.09356 ,2.25279 ,22.10437 
180 ,35.1540 ,1.09550 ,2.24937 ,22.07079 
181 ,35.3463 ,1.09747 ,2.23226 ,21.90290 
182 ,35.5543 ,1.09951 ,2.21857 ,21.76858 
183 ,35.7465 ,1.10148 ,2.21172 ,21.70143 
184 ,35.9385 ,1.10337 ,2.17750 ,21.36564 
185 ,36.1145 ,1.10522 ,2.17408 ,21.33206 
186 ,36.3065 ,1.10701 ,2.15355 ,21.13059 
187 ,36.4986 ,1.10898 ,2.12959 ,20.89555 
188 ,36.7229 ,1.11128 ,2.11248 ,20.72766 
189 ,36.9147 ,1.11319 ,2.11590 ,20.76123 
190 ,37.1070 ,1.11504 ,2.08168 ,20.42545 
191 ,37.2991 ,1.11694 ,2.06115 ,20.22398 
192 ,37.4911 ,1.11889 ,2.07141 ,20.32472 
193 ,37.6671 ,1.12076 ,2.02693 ,19.88820 
194 ,37.8593 ,1.12258 ,2.02350 ,19.85462 
195 ,38.0514 ,1.12461 ,2.02350 ,19.85462 
196 ,38.2436 ,1.12637 ,2.00982 ,19.72031 
197 ,38.4517 ,1.12850 ,1.99270 ,19.55241 
198 ,38.6435 ,1.13041 ,1.97902 ,19.41810 
199 ,38.8357 ,1.13240 ,1.95848 ,19.21663 
200 ,39.0437 ,1.13437 ,1.93795 ,19.01516 
201 ,39.2360 ,1.13631 ,1.92084 ,18.84727 
202 ,39.4280 ,1.13825 ,1.92768 ,18.91443 
203 ,39.6202 ,1.14020 ,1.89004 ,18.54507 
204 ,39.8119 ,1.14217 ,1.89004 ,18.54507 
205 ,40.0043 ,1.14398 ,1.85924 ,18.24286 
206 ,40.2126 ,1.14608 ,1.86266 ,18.27644 
207 ,40.4204 ,1.14818 ,1.83871 ,18.04139 
208 ,40.6124 ,1.15014 ,1.83528 ,18.00781 
209 ,40.7885 ,1.15195 ,1.80106 ,17.67203 
210 ,40.9806 ,1.15379 ,1.79080 ,17.57129 
211 ,41.1564 ,1.15555 ,1.78737 ,17.53772 
212 ,41.3487 ,1.15747 ,1.77711 ,17.43698 
213 ,41.5409 ,1.15934 ,1.74973 ,17.16836 
214 ,41.7170 ,1.16123 ,1.76342 ,17.30267 
215 ,41.9086 ,1.16304 ,1.73604 ,17.03404 
216 ,42.1007 ,1.16501 ,1.71551 ,16.83257 
217 ,42.2931 ,1.16686 ,1.70524 ,16.73184 
218 ,42.5012 ,1.16897 ,1.68129 ,16.49679 
219 ,42.6929 ,1.17084 ,1.68129 ,16.49679 
220 ,42.8855 ,1.17276 ,1.66075 ,16.29532 
221 ,43.0933 ,1.17492 ,1.64707 ,16.16101 
222 ,43.2856 ,1.17685 ,1.63338 ,16.02669 
223 ,43.4776 ,1.17874 ,1.61969 ,15.89238 
224 ,43.6858 ,1.18087 ,1.59916 ,15.69091 
225 ,43.8777 ,1.18275 ,1.57862 ,15.48944 
226 ,44.0699 ,1.18463 ,1.57862 ,15.48944 
227 ,44.2780 ,1.18663 ,1.55467 ,15.25439 
228 ,44.4858 ,1.18878 ,1.54098 ,15.12008 
229 ,44.6783 ,1.19078 ,1.52729 ,14.98577 
230 ,44.8703 ,1.19270 ,1.53071 ,15.01934 
231 ,45.0784 ,1.19476 ,1.49991 ,14.71714 
232 ,45.2861 ,1.19683 ,1.48622 ,14.58283 
233 ,45.4785 ,1.19869 ,1.47253 ,14.44851 
234 ,45.6703 ,1.20066 ,1.46569 ,14.38136 
235 ,45.8627 ,1.20259 ,1.43147 ,14.04557 
236 ,46.0546 ,1.20452 ,1.43147 ,14.04557 
237 ,46.2624 ,1.20655 ,1.41778 ,13.91126 
238 ,46.4549 ,1.20852 ,1.40409 ,13.77695 
239 ,46.6470 ,1.21050 ,1.38356 ,13.57548 
240 ,46.8391 ,1.21231 ,1.37329 ,13.47474 
241 ,47.0470 ,1.21442 ,1.36987 ,13.44116 
242 ,47.2551 ,1.21643 ,1.35618 ,13.30685 
243 ,47.4630 ,1.21866 ,1.31854 ,12.93749 
244 ,47.6555 ,1.22053 ,1.32880 ,13.03822 
245 ,47.8796 ,1.22270 ,1.31169 ,12.87033 
246 ,48.0716 ,1.22465 ,1.29116 ,12.66886 
247 ,48.2796 ,1.22675 ,1.27747 ,12.53455 
248 ,48.4714 ,1.22862 ,1.28089 ,12.56813 
249 ,48.6638 ,1.23066 ,1.25009 ,12.26592 
250 ,48.8719 ,1.23263 ,1.24325 ,12.19877 
251 ,49.0640 ,1.23455 ,1.20903 ,11.86298 
252 ,49.2563 ,1.23650 ,1.20903 ,11.86298 
253 ,49.4640 ,1.23853 ,1.19192 ,11.69509 
254 ,49.6402 ,1.24044 ,1.18507 ,11.62794 
255 ,49.8325 ,1.24226 ,1.18165 ,11.59436 
256 ,50.0244 ,1.24423 ,1.16112 ,11.39289 
257 ,50.2167 ,1.24609 ,1.15427 ,11.32573 
258 ,50.4083 ,1.24802 ,1.14058 ,11.19142 
259 ,50.6007 ,1.24991 ,1.12347 ,11.02353 
260 ,50.7927 ,1.25187 ,1.10979 ,10.88921 
261 ,50.9849 ,1.25375 ,1.08583 ,10.65416 
262 ,51.1930 ,1.25576 ,1.08583 ,10.65416 
263 ,51.4009 ,1.25793 ,1.06187 ,10.41912 
264 ,51.5931 ,1.25984 ,1.05161 ,10.31838 
265 ,51.7686 ,1.26170 ,1.03450 ,10.15049 
266 ,51.9613 ,1.26350 ,1.03108 ,10.11691 
267 ,52.1532 ,1.26542 ,1.02765 ,10.08333 
268 ,52.3294 ,1.26732 ,0.98317 ,9.64682 
269 ,52.5216 ,1.26912 ,0.98659 ,9.68039 
270 ,52.7134 ,1.27109 ,0.99001 ,9.71397 
271 ,52.8896 ,1.27291 ,0.96263 ,9.44535 
272 ,53.0978 ,1.27478 ,0.93868 ,9.21030 
273 ,53.2898 ,1.27679 ,0.95237 ,9.34461 
274 ,53.4980 ,1.27886 ,0.93525 ,9.17672 
275 ,53.6901 ,1.28083 ,0.90788 ,8.90809 
276 ,53.8818 ,1.28274 ,0.89419 ,8.77378 
277 ,54.0740 ,1.28468 ,0.88734 ,8.70662 
278 ,54.2982 ,1.28691 ,0.87708 ,8.60589 
279 ,54.5061 ,1.28893 ,0.85654 ,8.40442 
280 ,54.6985 ,1.29088 ,0.84628 ,8.30368 
281 ,54.8905 ,1.29284 ,0.83943 ,8.23653 
282 ,55.0825 ,1.29473 ,0.80521 ,7.90074 
283 ,55.2746 ,1.29664 ,0.82232 ,8.06864 
284 ,55.4667 ,1.29864 ,0.78468 ,7.69927 
285 ,55.6747 ,1.30061 ,0.78810 ,7.73285 
286 ,55.8829 ,1.30273 ,0.76415 ,7.49780 
287 ,56.0746 ,1.30464 ,0.76757 ,7.53138 
288 ,56.2669 ,1.30666 ,0.73677 ,7.22918 
289 ,56.4590 ,1.30862 ,0.73335 ,7.19560 
290 ,56.6511 ,1.31040 ,0.72650 ,7.12844 
291 ,56.8431 ,1.31231 ,0.70255 ,6.89340 
292 ,57.0674 ,1.31445 ,0.70597 ,6.92697 
293 ,57.3074 ,1.31697 ,0.67517 ,6.62477 
294 ,57.5157 ,1.31902 ,0.67517 ,6.62477 
295 ,57.7077 ,1.32097 ,0.64437 ,6.32256 
296 ,57.8998 ,1.32289 ,0.65464 ,6.42330 
297 ,58.0919 ,1.32480 ,0.64779 ,6.35614 
298 ,58.2835 ,1.32673 ,0.61699 ,6.05394 
299 ,58.4759 ,1.32862 ,0.62726 ,6.15467 
300 ,58.6681 ,1.33053 ,0.59304 ,5.81889 
301 ,58.8602 ,1.33254 ,0.58619 ,5.75173 
302 ,59.0522 ,1.33447 ,0.59304 ,5.81889 
303 ,59.2443 ,1.33637 ,0.55882 ,5.48311 
304 ,59.4363 ,1.33828 ,0.56566 ,5.55026 
305 ,59.6285 ,1.34019 ,0.54513 ,5.34879 
306 ,59.8205 ,1.34223 ,0.53486 ,5.24806 
307 ,60.0126 ,1.34400 ,0.52459 ,5.14732 
308 ,60.2206 ,1.34607 ,0.51433 ,5.04659 
309 ,60.4124 ,1.34806 ,0.51091 ,5.01301 
310 ,60.6050 ,1.35002 ,0.47668 ,4.67723 
311 ,60.8130 ,1.35206 ,0.48353 ,4.74438 
312 ,61.0046 ,1.35389 ,0.45273 ,4.44218 
313 ,61.1972 ,1.35580 ,0.45273 ,4.44218 
314 ,61.3892 ,1.35783 ,0.43220 ,4.24071 
315 ,61.5812 ,1.35967 ,0.43562 ,4.27429 
316 ,61.7734 ,1.36161 ,0.42877 ,4.20713 
317 ,61.9813 ,1.36370 ,0.41509 ,4.07282 
318 ,62.1732 ,1.36558 ,0.40140 ,3.93850 
319 ,62.3656 ,1.36749 ,0.38429 ,3.77061 
320 ,62.5574 ,1.36943 ,0.37060 ,3.63630 
321 ,62.7497 ,1.37139 ,0.36718 ,3.60272 
322 ,62.9579 ,1.37340 ,0.36375 ,3.56914 
323 ,63.1655 ,1.37550 ,0.33638 ,3.30052 
324 ,63.3580 ,1.37746 ,0.34322 ,3.36767 
325 ,63.5660 ,1.37953 ,0.31242 ,3.06547 
326 ,63.7580 ,1.38149 ,0.30900 ,3.03189 
327 ,63.9663 ,1.38348 ,0.29189 ,2.86400 
328 ,64.1581 ,1.38542 ,0.28162 ,2.76326 
329 ,64.3505 ,1.38739 ,0.26793 ,2.62895 
330 ,64.5585 ,1.38944 ,0.26793 ,2.62895 
331 ,64.7502 ,1.39135 ,0.25424 ,2.49464 
332 ,64.9426 ,1.39329 ,0.23371 ,2.29317 
333 ,65.1348 ,1.39526 ,0.23713 ,2.32675 
334 ,65.3425 ,1.39727 ,0.20976 ,2.05812 
335 ,65.5346 ,1.39925 ,0.22002 ,2.15885 
336 ,65.7268 ,1.40115 ,0.18238 ,1.78949 
337 ,65.9349 ,1.40323 ,0.19264 ,1.89023 
338 ,66.1269 ,1.40510 ,0.16185 ,1.58802 
339 ,66.3191 ,1.40712 ,0.16527 ,1.62160 
340 ,66.5111 ,1.40900 ,0.13789 ,1.35298 
341 ,66.7189 ,1.41105 ,0.14473 ,1.42013 
342 ,66.9113 ,1.41295 ,0.12420 ,1.21866 
343 ,67.1035 ,1.41495 ,0.11051 ,1.08435 
344 ,67.3113 ,1.41696 ,0.10709 ,1.05077 
345 ,67.4876 ,1.41881 ,0.08998 ,0.88288 
346 ,67.6958 ,1.42083 ,0.08314 ,0.81572 
347 ,67.9036 ,1.42294 ,0.06260 ,0.61425 
348 ,68.0799 ,1.42482 ,0.06602 ,0.64783 
349 ,68.2719 ,1.42654 ,0.04549 ,0.44636 
350 ,68.4641 ,1.42848 ,0.03865 ,0.37920 
351 ,68.6723 ,1.43055 ,0.03865 ,0.37920 
352 ,68.8638 ,1.43250 ,0.01127 ,0.11058 
353 ,69.0398 ,1.43440 ,0.02496 ,0.24489 
354 ,69.2319 ,1.43614 ,0.01127 ,0.11058 
355 ,69.3920 ,1.43794 ,-0.01611 ,-0.15805 
356 ,69.5845 ,1.43972 ,-0.01611 ,-0.15805 
357 ,69.7766 ,1.44165 ,-0.00926 ,-0.09089 
358 ,69.9685 ,1.44356 ,-0.05033 ,-0.49383 
359 ,70.1607 ,1.44543 ,-0.03664 ,-0.35952 
360 ,70.3528 ,1.44737 ,-0.05033 ,-0.49383 
361 ,70.5607 ,1.44948 ,-0.05375 ,-0.52741 
362 ,70.7688 ,1.45157 ,-0.09140 ,-0.89677 
363 ,70.9610 ,1.45347 ,-0.08455 ,-0.82961 
364 ,71.1690 ,1.45554 ,-0.09824 ,-0.96393 
365 ,71.3292 ,1.45728 ,-0.09824 ,-0.96393 
366 ,71.5054 ,1.45900 ,-0.10508 ,-1.03108 
367 ,71.6973 ,1.46084 ,-0.10508 ,-1.03108 
368 ,71.8893 ,1.46273 ,-0.13931 ,-1.36687 
369 ,72.0975 ,1.46476 ,-0.13931 ,-1.36687 
370 ,72.3212 ,1.46702 ,-0.15299 ,-1.50118 
371 ,72.5132 ,1.46903 ,-0.17011 ,-1.66907 
372 ,72.6892 ,1.47088 ,-0.17695 ,-1.73623 
373 ,72.8978 ,1.47271 ,-0.17011 ,-1.66907 
374 ,73.1219 ,1.47518 ,-0.17695 ,-1.73623 
375 ,73.3141 ,1.47694 ,-0.20775 ,-2.03843 
376 ,73.5055 ,1.47889 ,-0.21802 ,-2.13917 
377 ,73.6976 ,1.48082 ,-0.22144 ,-2.17275 
378 ,73.8896 ,1.48277 ,-0.23513 ,-2.30706 
379 ,74.0818 ,1.48464 ,-0.23170 ,-2.27348 
380 ,74.2739 ,1.48662 ,-0.24881 ,-2.44137 
381 ,74.4661 ,1.48850 ,-0.26935 ,-2.64284 
382 ,74.7065 ,1.49095 ,-0.25908 ,-2.54211 
383 ,74.9145 ,1.49299 ,-0.27961 ,-2.74358 
384 ,75.1068 ,1.49490 ,-0.29330 ,-2.87789 
385 ,75.2989 ,1.49679 ,-0.29330 ,-2.87789 
386 ,75.5069 ,1.49889 ,-0.31384 ,-3.07936 
387 ,75.7145 ,1.50099 ,-0.31041 ,-3.04578 
388 ,75.8911 ,1.50284 ,-0.33779 ,-3.31441 
389 ,76.0832 ,1.50465 ,-0.34806 ,-3.41514 
390 ,76.2750 ,1.50659 ,-0.34121 ,-3.34799 
391 ,76.4833 ,1.50866 ,-0.35832 ,-3.51588 
392 ,76.6752 ,1.51055 ,-0.35148 ,-3.44872 
393 ,76.8674 ,1.51243 ,-0.38228 ,-3.75093 
394 ,77.0596 ,1.51436 ,-0.37544 ,-3.68377 
395 ,77.2516 ,1.51637 ,-0.39939 ,-3.91882 
396 ,77.4437 ,1.51829 ,-0.41308 ,-4.05313 
397 ,77.6357 ,1.52011 ,-0.40623 ,-3.98597 
398 ,77.8276 ,1.52208 ,-0.42335 ,-4.15387 
399 ,78.0199 ,1.52406 ,-0.43703 ,-4.28818 
400 ,78.2283 ,1.52612 ,-0.45072 ,-4.42249 
401 ,78.4202 ,1.52803 ,-0.45072 ,-4.42249 
402 ,78.6283 ,1.53005 ,-0.46783 ,-4.59038 
403 ,78.8202 ,1.53205 ,-0.47126 ,-4.62396 
404 ,79.0124 ,1.53403 ,-0.49863 ,-4.89259 
405 ,79.2044 ,1.53587 ,-0.49179 ,-4.82543 
406 ,79.3966 ,1.53777 ,-0.49179 ,-4.82543 
407 ,79.6361 ,1.54008 ,-0.51232 ,-5.02690 
408 ,79.8286 ,1.54207 ,-0.52601 ,-5.16121 
409 ,80.0364 ,1.54416 ,-0.52601 ,-5.16121 
410 ,80.2288 ,1.54616 ,-0.54654 ,-5.36268 
411 ,80.4369 ,1.54814 ,-0.54312 ,-5.32911 
412 ,80.6289 ,1.55011 ,-0.56365 ,-5.53058 
413 ,80.8210 ,1.55198 ,-0.55681 ,-5.46342 
414 ,81.0131 ,1.55394 ,-0.58077 ,-5.69847 
415 ,81.1886 ,1.55582 ,-0.58419 ,-5.73205 
416 ,81.3973 ,1.55769 ,-0.58761 ,-5.76562 
417 ,81.6054 ,1.55989 ,-0.61499 ,-6.03425 
418 ,81.7973 ,1.56173 ,-0.60472 ,-5.93352 
419 ,81.9897 ,1.56371 ,-0.62525 ,-6.13499 
420 ,82.1975 ,1.56576 ,-0.61499 ,-6.03425 
421 ,82.3898 ,1.56770 ,-0.65263 ,-6.40361 
422 ,82.5979 ,1.56982 ,-0.63894 ,-6.26930 
423 ,82.8059 ,1.57187 ,-0.66632 ,-6.53793 
424 ,82.9980 ,1.57374 ,-0.65605 ,-6.43719 
425 ,83.2222 ,1.57606 ,-0.66974 ,-6.57150 
426 ,83.4302 ,1.57810 ,-0.69712 ,-6.84013 
427 ,83.6223 ,1.58012 ,-0.68343 ,-6.70582 
428 ,83.8146 ,1.58193 ,-0.70739 ,-6.94086 
429 ,84.0382 ,1.58414 ,-0.71423 ,-7.00802 
430 ,84.2304 ,1.58607 ,-0.72450 ,-7.10876 
431 ,84.4224 ,1.58802 ,-0.71423 ,-7.00802 
432 ,84.6307 ,1.59003 ,-0.73134 ,-7.17591 
433 ,84.8383 ,1.59216 ,-0.74503 ,-7.31023 
434 ,85.0306 ,1.59409 ,-0.75872 ,-7.44454 
435 ,85.2229 ,1.59595 ,-0.75530 ,-7.41096 
436 ,85.4149 ,1.59787 ,-0.77583 ,-7.61243 
437 ,85.6069 ,1.59984 ,-0.78952 ,-7.74674 
438 ,85.7991 ,1.60177 ,-0.78610 ,-7.71317 
439 ,86.0073 ,1.60387 ,-0.80321 ,-7.88106 
440 ,86.1992 ,1.60582 ,-0.80663 ,-7.91464 
441 ,86.4075 ,1.60789 ,-0.83401 ,-8.18326 
442 ,86.5993 ,1.60977 ,-0.82716 ,-8.11611 
443 ,86.7916 ,1.61168 ,-0.84085 ,-8.25042 
444 ,87.0157 ,1.61386 ,-0.83401 ,-8.18326 
445 ,87.2236 ,1.61599 ,-0.86481 ,-8.48547 
446 ,87.4160 ,1.61799 ,-0.86138 ,-8.45189 
447 ,87.6080 ,1.61985 ,-0.89218 ,-8.75409 
448 ,87.8001 ,1.62178 ,-0.87165 ,-8.55262 
449 ,87.9921 ,1.62366 ,-0.89560 ,-8.78767 
450 ,88.1839 ,1.62560 ,-0.89560 ,-8.78767 
451 ,88.3923 ,1.62773 ,-0.90929 ,-8.92198 
452 ,88.5843 ,1.62961 ,-0.91272 ,-8.95556 
453 ,88.7763 ,1.63159 ,-0.91956 ,-9.02272 
454 ,88.9845 ,1.63357 ,-0.94694 ,-9.29135 
455 ,89.1926 ,1.63574 ,-0.94351 ,-9.25777 
456 ,89.3847 ,1.63759 ,-0.95720 ,-9.39208 
457 ,89.5924 ,1.63968 ,-0.96063 ,-9.42566 
458 ,89.7847 ,1.64165 ,-0.97089 ,-9.52639 
459 ,89.9605 ,1.64353 ,-0.97774 ,-9.59355 
460 ,90.1688 ,1.64535 ,-0.98458 ,-9.66071 
461 ,90.3772 ,1.64743 ,-0.98116 ,-9.62713 
462 ,90.5691 ,1.64949 ,-1.00511 ,-9.86218 
