Data stamp = , 28-04-2022 08:13:20 404

Calibration Values: 
Slope = , 26.54 , g/V 
Offset Voltage at no contact = , -0.501760 , V 

No , Time , Stage Position ,   Mass , Force 
   ,  (s) ,      (mm)      ,   (g)  , (mN)  

1 ,0.0000 ,0.74939 ,5.27114 ,51.72043 
2 ,0.2914 ,0.74956 ,5.26772 ,51.68685 
3 ,0.6276 ,0.75079 ,5.28483 ,51.85474 
4 ,0.8837 ,0.75302 ,5.28825 ,51.88832 
5 ,1.0760 ,0.75490 ,5.28141 ,51.82116 
6 ,1.2683 ,0.75682 ,5.27456 ,51.75401 
7 ,1.4444 ,0.75866 ,5.27798 ,51.78758 
8 ,1.6364 ,0.76041 ,5.27798 ,51.78758 
9 ,1.8286 ,0.76237 ,5.25745 ,51.58611 
10 ,2.0206 ,0.76439 ,5.25745 ,51.58611 
11 ,2.2125 ,0.76630 ,5.22323 ,51.25033 
12 ,2.4047 ,0.76815 ,5.21639 ,51.18317 
13 ,2.5970 ,0.77010 ,5.20270 ,51.04886 
14 ,2.7890 ,0.77202 ,5.18559 ,50.88097 
15 ,2.9971 ,0.77412 ,5.17190 ,50.74666 
16 ,3.1891 ,0.77603 ,5.14110 ,50.44445 
17 ,3.3807 ,0.77790 ,5.13083 ,50.34372 
18 ,3.5574 ,0.77981 ,5.09319 ,49.97436 
19 ,3.7496 ,0.78166 ,5.08292 ,49.87362 
20 ,3.9576 ,0.78367 ,5.06239 ,49.67215 
21 ,4.1656 ,0.78577 ,5.04528 ,49.50426 
22 ,4.3576 ,0.78768 ,5.03159 ,49.36995 
23 ,4.5818 ,0.78985 ,4.98710 ,48.93343 
24 ,4.7898 ,0.79204 ,4.96999 ,48.76554 
25 ,4.9820 ,0.79390 ,4.96999 ,48.76554 
26 ,5.1900 ,0.79599 ,4.92892 ,48.36260 
27 ,5.3821 ,0.79795 ,4.92892 ,48.36260 
28 ,5.5578 ,0.79982 ,4.89128 ,47.99324 
29 ,5.7502 ,0.80161 ,4.88101 ,47.89250 
30 ,5.9421 ,0.80368 ,4.88101 ,47.89250 
31 ,6.1344 ,0.80547 ,4.83310 ,47.42240 
32 ,6.3422 ,0.80754 ,4.83652 ,47.45598 
33 ,6.5345 ,0.80942 ,4.80573 ,47.15378 
34 ,6.7106 ,0.81133 ,4.79546 ,47.05304 
35 ,6.9024 ,0.81319 ,4.77835 ,46.88515 
36 ,7.0948 ,0.81504 ,4.73386 ,46.44863 
37 ,7.2869 ,0.81700 ,4.72702 ,46.38148 
38 ,7.4790 ,0.81894 ,4.72017 ,46.31432 
39 ,7.6867 ,0.82104 ,4.68595 ,45.97854 
40 ,7.8792 ,0.82294 ,4.68595 ,45.97854 
41 ,8.0874 ,0.82498 ,4.66542 ,45.77707 
42 ,8.2793 ,0.82694 ,4.63119 ,45.44128 
43 ,8.4714 ,0.82881 ,4.61751 ,45.30697 
44 ,8.6796 ,0.83076 ,4.60382 ,45.17266 
45 ,8.8714 ,0.83283 ,4.56617 ,44.80330 
46 ,9.0639 ,0.83473 ,4.57302 ,44.87045 
47 ,9.2718 ,0.83681 ,4.54222 ,44.56825 
48 ,9.4635 ,0.83871 ,4.53880 ,44.53467 
49 ,9.6401 ,0.84057 ,4.52511 ,44.40036 
50 ,9.8317 ,0.84244 ,4.48746 ,44.03100 
51 ,10.0239 ,0.84430 ,4.48404 ,43.99742 
52 ,10.2003 ,0.84618 ,4.47035 ,43.86310 
53 ,10.4084 ,0.84820 ,4.43955 ,43.56090 
54 ,10.6005 ,0.85013 ,4.42929 ,43.46016 
55 ,10.7926 ,0.85201 ,4.39849 ,43.15796 
56 ,10.9842 ,0.85394 ,4.38822 ,43.05723 
57 ,11.1767 ,0.85586 ,4.36427 ,42.82218 
58 ,11.3690 ,0.85776 ,4.34716 ,42.65429 
59 ,11.5610 ,0.85970 ,4.34373 ,42.62071 
60 ,11.7527 ,0.86161 ,4.30609 ,42.25135 
61 ,11.9448 ,0.86350 ,4.30951 ,42.28492 
62 ,12.1210 ,0.86541 ,4.27529 ,41.94914 
63 ,12.3131 ,0.86719 ,4.25818 ,41.78125 
64 ,12.5052 ,0.86910 ,4.25476 ,41.74767 
65 ,12.6974 ,0.87108 ,4.22738 ,41.47905 
66 ,12.8892 ,0.87300 ,4.21369 ,41.34473 
67 ,13.0815 ,0.87487 ,4.19316 ,41.14326 
68 ,13.2736 ,0.87688 ,4.17947 ,41.00895 
69 ,13.4817 ,0.87891 ,4.16920 ,40.90821 
70 ,13.6737 ,0.88082 ,4.12471 ,40.47170 
71 ,13.8660 ,0.88270 ,4.13156 ,40.53885 
72 ,14.0739 ,0.88481 ,4.09391 ,40.16949 
73 ,14.2499 ,0.88662 ,4.07338 ,39.96802 
74 ,14.4421 ,0.88848 ,4.06996 ,39.93444 
75 ,14.6341 ,0.89041 ,4.04600 ,39.69940 
76 ,14.8422 ,0.89252 ,4.03574 ,39.59866 
77 ,15.0337 ,0.89441 ,3.99809 ,39.22930 
78 ,15.2104 ,0.89624 ,3.98783 ,39.12856 
79 ,15.4505 ,0.89848 ,3.96729 ,38.92709 
80 ,15.6586 ,0.90067 ,3.96045 ,38.85994 
81 ,15.8503 ,0.90258 ,3.92965 ,38.55773 
82 ,16.0427 ,0.90450 ,3.91596 ,38.42342 
83 ,16.2508 ,0.90660 ,3.89543 ,38.22195 
84 ,16.4428 ,0.90849 ,3.88516 ,38.12122 
85 ,16.6349 ,0.91040 ,3.84752 ,37.75185 
86 ,16.8270 ,0.91230 ,3.85779 ,37.85259 
87 ,17.0191 ,0.91427 ,3.82356 ,37.51681 
88 ,17.2111 ,0.91616 ,3.80303 ,37.31534 
89 ,17.3873 ,0.91798 ,3.78250 ,37.11387 
90 ,17.5953 ,0.92005 ,3.75170 ,36.81166 
91 ,17.7712 ,0.92195 ,3.75512 ,36.84524 
92 ,17.9635 ,0.92368 ,3.74485 ,36.74450 
93 ,18.1557 ,0.92564 ,3.70379 ,36.34157 
94 ,18.3637 ,0.92771 ,3.70721 ,36.37514 
95 ,18.5713 ,0.92975 ,3.66957 ,36.00578 
96 ,18.7637 ,0.93166 ,3.67299 ,36.03936 
97 ,18.9559 ,0.93370 ,3.63192 ,35.63642 
98 ,19.1637 ,0.93565 ,3.62850 ,35.60284 
99 ,19.3561 ,0.93762 ,3.59770 ,35.30064 
100 ,19.5639 ,0.93967 ,3.59428 ,35.26706 
101 ,19.7561 ,0.94164 ,3.56690 ,34.99843 
102 ,19.9651 ,0.94368 ,3.55663 ,34.89770 
103 ,20.1564 ,0.94563 ,3.51557 ,34.49476 
104 ,20.3486 ,0.94748 ,3.52926 ,34.62907 
105 ,20.5403 ,0.94948 ,3.51215 ,34.46118 
106 ,20.7481 ,0.95143 ,3.49161 ,34.25971 
107 ,20.9408 ,0.95342 ,3.45397 ,33.89035 
108 ,21.1328 ,0.95537 ,3.43001 ,33.65530 
109 ,21.3409 ,0.95745 ,3.42317 ,33.58814 
110 ,21.5490 ,0.95955 ,3.40264 ,33.38667 
111 ,21.7409 ,0.96145 ,3.39579 ,33.31952 
112 ,21.9330 ,0.96337 ,3.33762 ,32.74869 
113 ,22.1411 ,0.96550 ,3.35130 ,32.88300 
114 ,22.3332 ,0.96739 ,3.32051 ,32.58080 
115 ,22.5414 ,0.96948 ,3.31366 ,32.51364 
116 ,22.7493 ,0.97143 ,3.28286 ,32.21143 
117 ,22.9573 ,0.97378 ,3.26233 ,32.00996 
118 ,23.1495 ,0.97554 ,3.25548 ,31.94281 
119 ,23.3416 ,0.97742 ,3.23153 ,31.70776 
120 ,23.5338 ,0.97938 ,3.21784 ,31.57345 
121 ,23.7418 ,0.98150 ,3.20757 ,31.47271 
122 ,23.9337 ,0.98334 ,3.16651 ,31.06977 
123 ,24.1264 ,0.98528 ,3.16309 ,31.03619 
124 ,24.3340 ,0.98736 ,3.13229 ,30.73399 
125 ,24.5262 ,0.98933 ,3.13913 ,30.80115 
126 ,24.7183 ,0.99131 ,3.10149 ,30.43178 
127 ,24.9103 ,0.99318 ,3.09464 ,30.36463 
128 ,25.1024 ,0.99504 ,3.08780 ,30.29747 
129 ,25.2784 ,0.99690 ,3.05700 ,29.99527 
130 ,25.4707 ,0.99875 ,3.03989 ,29.82737 
131 ,25.6628 ,1.00064 ,3.03989 ,29.82737 
132 ,25.8706 ,1.00273 ,3.00224 ,29.45801 
133 ,26.0630 ,1.00466 ,2.99882 ,29.42444 
134 ,26.2707 ,1.00665 ,2.96118 ,29.05507 
135 ,26.4631 ,1.00875 ,2.96118 ,29.05507 
136 ,26.6707 ,1.01070 ,2.93038 ,28.75287 
137 ,26.8629 ,1.01265 ,2.92353 ,28.68571 
138 ,27.0552 ,1.01463 ,2.89616 ,28.41709 
139 ,27.2627 ,1.01662 ,2.88589 ,28.31635 
140 ,27.4553 ,1.01869 ,2.86878 ,28.14846 
141 ,27.6473 ,1.02049 ,2.85167 ,27.98057 
142 ,27.8396 ,1.02246 ,2.83114 ,27.77910 
143 ,28.0315 ,1.02436 ,2.81402 ,27.61121 
144 ,28.2238 ,1.02628 ,2.80376 ,27.51047 
145 ,28.4157 ,1.02823 ,2.78322 ,27.30900 
146 ,28.6078 ,1.03017 ,2.74558 ,26.93964 
147 ,28.7998 ,1.03208 ,2.74558 ,26.93964 
148 ,28.9761 ,1.03382 ,2.72505 ,26.73817 
149 ,29.1520 ,1.03567 ,2.70794 ,26.57028 
150 ,29.3438 ,1.03749 ,2.70452 ,26.53670 
151 ,29.5521 ,1.03947 ,2.68398 ,26.33523 
152 ,29.7605 ,1.04161 ,2.66003 ,26.10018 
153 ,29.9524 ,1.04357 ,2.63949 ,25.89871 
154 ,30.1606 ,1.04565 ,2.63607 ,25.86514 
155 ,30.3525 ,1.04765 ,2.61212 ,25.63009 
156 ,30.5446 ,1.04945 ,2.60185 ,25.52935 
157 ,30.7525 ,1.05150 ,2.56763 ,25.19357 
158 ,30.9444 ,1.05342 ,2.56421 ,25.15999 
159 ,31.1529 ,1.05553 ,2.53683 ,24.89136 
160 ,31.3610 ,1.05763 ,2.51972 ,24.72347 
161 ,31.5526 ,1.05950 ,2.49576 ,24.48842 
162 ,31.7292 ,1.06138 ,2.48207 ,24.35411 
163 ,31.9208 ,1.06320 ,2.48207 ,24.35411 
164 ,32.1129 ,1.06512 ,2.45470 ,24.08549 
165 ,32.3052 ,1.06706 ,2.44101 ,23.95117 
166 ,32.4814 ,1.06893 ,2.42390 ,23.78328 
167 ,32.6734 ,1.07072 ,2.39994 ,23.54823 
168 ,32.8817 ,1.07286 ,2.40679 ,23.61539 
169 ,33.0735 ,1.07474 ,2.37256 ,23.27961 
170 ,33.2814 ,1.07678 ,2.37599 ,23.31318 
171 ,33.4897 ,1.07885 ,2.34177 ,22.97740 
172 ,33.6815 ,1.08079 ,2.33492 ,22.91024 
173 ,33.8740 ,1.08275 ,2.30754 ,22.64162 
174 ,34.0821 ,1.08480 ,2.30070 ,22.57446 
175 ,34.2742 ,1.08672 ,2.25621 ,22.13794 
176 ,34.4823 ,1.08885 ,2.26306 ,22.20510 
177 ,34.6904 ,1.09092 ,2.23226 ,21.90290 
178 ,34.8824 ,1.09286 ,2.23910 ,21.97005 
179 ,35.0905 ,1.09490 ,2.20146 ,21.60069 
180 ,35.2824 ,1.09681 ,2.19803 ,21.56711 
181 ,35.4906 ,1.09884 ,2.16723 ,21.26491 
182 ,35.6828 ,1.10083 ,2.15012 ,21.09702 
183 ,35.8908 ,1.10289 ,2.13301 ,20.92912 
184 ,36.0669 ,1.10471 ,2.11932 ,20.79481 
185 ,36.2429 ,1.10645 ,2.12275 ,20.82839 
186 ,36.4510 ,1.10838 ,2.08510 ,20.45903 
187 ,36.6592 ,1.11061 ,2.08510 ,20.45903 
188 ,36.8511 ,1.11249 ,2.05088 ,20.12325 
189 ,37.0433 ,1.11440 ,2.05773 ,20.19040 
190 ,37.2354 ,1.11630 ,2.02693 ,19.88820 
191 ,37.4275 ,1.11825 ,2.00639 ,19.68673 
192 ,37.6516 ,1.12036 ,2.00297 ,19.65315 
193 ,37.8599 ,1.12260 ,1.99955 ,19.61957 
194 ,38.0516 ,1.12450 ,1.96533 ,19.28379 
195 ,38.2438 ,1.12647 ,1.97217 ,19.35094 
196 ,38.4517 ,1.12850 ,1.93795 ,19.01516 
197 ,38.6440 ,1.13042 ,1.93795 ,19.01516 
198 ,38.8360 ,1.13233 ,1.91399 ,18.78011 
199 ,39.0280 ,1.13423 ,1.90031 ,18.64580 
200 ,39.2201 ,1.13619 ,1.90031 ,18.64580 
201 ,39.4278 ,1.13829 ,1.85582 ,18.20928 
202 ,39.6198 ,1.14023 ,1.87293 ,18.37717 
203 ,39.8120 ,1.14205 ,1.83186 ,17.97423 
204 ,39.9883 ,1.14396 ,1.83528 ,18.00781 
205 ,40.1641 ,1.14567 ,1.81817 ,17.83992 
206 ,40.3561 ,1.14753 ,1.81475 ,17.80634 
207 ,40.5483 ,1.14944 ,1.79080 ,17.57129 
208 ,40.7568 ,1.15160 ,1.77711 ,17.43698 
209 ,40.9488 ,1.15354 ,1.75657 ,17.23551 
210 ,41.1409 ,1.15539 ,1.75657 ,17.23551 
211 ,41.3328 ,1.15728 ,1.72920 ,16.96689 
212 ,41.5250 ,1.15925 ,1.71893 ,16.86615 
213 ,41.7172 ,1.16113 ,1.71209 ,16.79899 
214 ,41.9092 ,1.16309 ,1.68471 ,16.53037 
215 ,42.1174 ,1.16514 ,1.68129 ,16.49679 
216 ,42.3249 ,1.16723 ,1.65733 ,16.26174 
217 ,42.5175 ,1.16919 ,1.65391 ,16.22816 
218 ,42.7256 ,1.17123 ,1.64707 ,16.16101 
219 ,42.9176 ,1.17316 ,1.62653 ,15.95954 
220 ,43.1094 ,1.17505 ,1.59916 ,15.69091 
221 ,43.2858 ,1.17687 ,1.59231 ,15.62375 
222 ,43.4938 ,1.17890 ,1.57178 ,15.42228 
223 ,43.7020 ,1.18101 ,1.57520 ,15.45586 
224 ,43.8938 ,1.18294 ,1.55467 ,15.25439 
225 ,44.0861 ,1.18480 ,1.54440 ,15.15366 
226 ,44.2783 ,1.18677 ,1.54440 ,15.15366 
227 ,44.4700 ,1.18878 ,1.51018 ,14.81787 
228 ,44.6625 ,1.19060 ,1.50676 ,14.78430 
229 ,44.8706 ,1.19270 ,1.48622 ,14.58283 
230 ,45.0624 ,1.19460 ,1.47938 ,14.51567 
231 ,45.2545 ,1.19648 ,1.44858 ,14.21346 
232 ,45.4629 ,1.19856 ,1.44516 ,14.17989 
233 ,45.6545 ,1.20046 ,1.43489 ,14.07915 
234 ,45.8468 ,1.20245 ,1.41094 ,13.84410 
235 ,46.0548 ,1.20442 ,1.41778 ,13.91126 
236 ,46.2468 ,1.20639 ,1.38698 ,13.60906 
237 ,46.6628 ,1.20945 ,1.39040 ,13.64263 
238 ,46.8550 ,1.21248 ,1.36645 ,13.40759 
239 ,47.0473 ,1.21438 ,1.33223 ,13.07180 
240 ,47.2394 ,1.21639 ,1.33223 ,13.07180 
241 ,47.4474 ,1.21839 ,1.30143 ,12.76960 
242 ,47.6396 ,1.22035 ,1.31854 ,12.93749 
243 ,47.8476 ,1.22239 ,1.27405 ,12.50097 
244 ,48.0556 ,1.22449 ,1.27405 ,12.50097 
245 ,48.2317 ,1.22630 ,1.25694 ,12.33308 
246 ,48.4239 ,1.22818 ,1.25694 ,12.33308 
247 ,48.6159 ,1.23006 ,1.22614 ,12.03088 
248 ,48.8076 ,1.23204 ,1.22272 ,11.99730 
249 ,49.0001 ,1.23401 ,1.22272 ,11.99730 
250 ,49.2081 ,1.23604 ,1.18507 ,11.62794 
251 ,49.4002 ,1.23795 ,1.18850 ,11.66151 
252 ,49.6082 ,1.24004 ,1.16454 ,11.42647 
253 ,49.8004 ,1.24197 ,1.17138 ,11.49362 
254 ,49.9924 ,1.24383 ,1.14743 ,11.25857 
255 ,50.1685 ,1.24564 ,1.11321 ,10.92279 
256 ,50.3445 ,1.24748 ,1.12690 ,11.05710 
257 ,50.5368 ,1.24929 ,1.10636 ,10.85563 
258 ,50.7288 ,1.25125 ,1.09610 ,10.75490 
259 ,50.9369 ,1.25329 ,1.10636 ,10.85563 
260 ,51.1129 ,1.25516 ,1.06872 ,10.48627 
261 ,51.3047 ,1.25698 ,1.05161 ,10.31838 
262 ,51.4972 ,1.25886 ,1.04476 ,10.25123 
263 ,51.7050 ,1.26100 ,1.03450 ,10.15049 
264 ,51.9132 ,1.26305 ,1.01396 ,9.94902 
265 ,52.1048 ,1.26498 ,0.99343 ,9.74755 
266 ,52.2972 ,1.26694 ,1.00712 ,9.88186 
267 ,52.5055 ,1.26895 ,0.96605 ,9.47892 
268 ,52.6815 ,1.27089 ,0.97290 ,9.54608 
269 ,52.8737 ,1.27268 ,0.97632 ,9.57966 
270 ,53.0656 ,1.27459 ,0.93525 ,9.17672 
271 ,53.2738 ,1.27666 ,0.93525 ,9.17672 
272 ,53.4818 ,1.27871 ,0.92841 ,9.10956 
273 ,53.6740 ,1.28067 ,0.89419 ,8.77378 
274 ,53.8659 ,1.28262 ,0.89419 ,8.77378 
275 ,54.0419 ,1.28440 ,0.88050 ,8.63947 
276 ,54.2338 ,1.28623 ,0.87023 ,8.53873 
277 ,54.4261 ,1.28819 ,0.85312 ,8.37084 
278 ,54.6341 ,1.29026 ,0.85654 ,8.40442 
279 ,54.8265 ,1.29223 ,0.82917 ,8.13579 
280 ,55.0185 ,1.29412 ,0.82575 ,8.10221 
281 ,55.2105 ,1.29604 ,0.80521 ,7.90074 
282 ,55.4026 ,1.29797 ,0.79495 ,7.80001 
283 ,55.6108 ,1.29988 ,0.78810 ,7.73285 
284 ,55.8026 ,1.30196 ,0.76757 ,7.53138 
285 ,55.9947 ,1.30394 ,0.76415 ,7.49780 
286 ,56.1710 ,1.30565 ,0.75730 ,7.43065 
287 ,56.3469 ,1.30750 ,0.73335 ,7.19560 
288 ,56.5391 ,1.30926 ,0.72650 ,7.12844 
289 ,56.7470 ,1.31142 ,0.71624 ,7.02771 
290 ,56.9392 ,1.31330 ,0.70939 ,6.96055 
291 ,57.1313 ,1.31528 ,0.68886 ,6.75908 
292 ,57.3390 ,1.31732 ,0.68201 ,6.69193 
293 ,57.4991 ,1.31906 ,0.67859 ,6.65835 
294 ,57.6915 ,1.32082 ,0.65464 ,6.42330 
295 ,57.8837 ,1.32272 ,0.64095 ,6.28899 
296 ,58.0757 ,1.32464 ,0.64437 ,6.32256 
297 ,58.2839 ,1.32675 ,0.62384 ,6.12109 
298 ,58.4758 ,1.32862 ,0.63068 ,6.18825 
299 ,58.6519 ,1.33052 ,0.59646 ,5.85247 
300 ,58.8436 ,1.33231 ,0.58962 ,5.78531 
301 ,59.0197 ,1.33425 ,0.58277 ,5.71815 
302 ,59.2118 ,1.33600 ,0.58277 ,5.71815 
303 ,59.4039 ,1.33789 ,0.54513 ,5.34879 
304 ,59.5799 ,1.33980 ,0.55539 ,5.44953 
305 ,59.7719 ,1.34158 ,0.54171 ,5.31522 
306 ,59.9479 ,1.34350 ,0.52117 ,5.11375 
307 ,60.1242 ,1.34528 ,0.51091 ,5.01301 
308 ,60.3002 ,1.34700 ,0.51091 ,5.01301 
309 ,60.5083 ,1.34901 ,0.49380 ,4.84512 
310 ,60.7004 ,1.35092 ,0.48695 ,4.77796 
311 ,60.8925 ,1.35286 ,0.48695 ,4.77796 
312 ,61.0686 ,1.35467 ,0.44246 ,4.34144 
313 ,61.2606 ,1.35646 ,0.44931 ,4.40860 
314 ,61.4527 ,1.35838 ,0.45273 ,4.44218 
315 ,61.6448 ,1.36031 ,0.41851 ,4.10640 
316 ,61.8370 ,1.36226 ,0.42193 ,4.13997 
317 ,62.0289 ,1.36418 ,0.41166 ,4.03924 
318 ,62.2211 ,1.36605 ,0.39797 ,3.90493 
319 ,62.4132 ,1.36797 ,0.40140 ,3.93850 
320 ,62.5891 ,1.36988 ,0.37060 ,3.63630 
321 ,62.7812 ,1.37168 ,0.36033 ,3.53557 
322 ,62.9574 ,1.37356 ,0.36375 ,3.56914 
323 ,63.1334 ,1.37532 ,0.34664 ,3.40125 
324 ,63.3095 ,1.37707 ,0.33295 ,3.26694 
325 ,63.5179 ,1.37911 ,0.32269 ,3.16620 
326 ,63.7260 ,1.38114 ,0.30900 ,3.03189 
327 ,63.9177 ,1.38307 ,0.30900 ,3.03189 
328 ,64.0940 ,1.38484 ,0.30215 ,2.96473 
329 ,64.2862 ,1.38679 ,0.28162 ,2.76326 
330 ,64.4784 ,1.38870 ,0.27478 ,2.69611 
331 ,64.6705 ,1.39061 ,0.26109 ,2.56179 
332 ,64.8785 ,1.39262 ,0.25082 ,2.46106 
333 ,65.0702 ,1.39457 ,0.23371 ,2.29317 
334 ,65.2626 ,1.39651 ,0.22687 ,2.22601 
335 ,65.4547 ,1.39841 ,0.23371 ,2.29317 
336 ,65.6469 ,1.40032 ,0.20633 ,2.02454 
337 ,65.8388 ,1.40233 ,0.20291 ,1.99096 
338 ,66.0149 ,1.40403 ,0.20291 ,1.99096 
339 ,66.1906 ,1.40590 ,0.16869 ,1.65518 
340 ,66.3672 ,1.40758 ,0.17553 ,1.72234 
341 ,66.5593 ,1.40941 ,0.17553 ,1.72234 
342 ,66.7511 ,1.41141 ,0.13789 ,1.35298 
343 ,66.9591 ,1.41345 ,0.15158 ,1.48729 
344 ,67.1353 ,1.41527 ,0.13105 ,1.28582 
345 ,67.3273 ,1.41708 ,0.11051 ,1.08435 
346 ,67.5197 ,1.41900 ,0.11051 ,1.08435 
347 ,67.7117 ,1.42100 ,0.11051 ,1.08435 
348 ,67.9035 ,1.42291 ,0.06260 ,0.61425 
349 ,68.0959 ,1.42485 ,0.07971 ,0.78214 
350 ,68.3035 ,1.42686 ,0.05918 ,0.58067 
351 ,68.4960 ,1.42881 ,0.05234 ,0.51352 
352 ,68.7037 ,1.43093 ,0.03180 ,0.31205 
353 ,68.8961 ,1.43279 ,0.03865 ,0.37920 
354 ,69.0883 ,1.43470 ,0.01811 ,0.17773 
355 ,69.2804 ,1.43668 ,0.00100 ,0.00984 
356 ,69.4723 ,1.43861 ,-0.00242 ,-0.02373 
357 ,69.6805 ,1.44069 ,-0.01611 ,-0.15805 
358 ,69.8885 ,1.44276 ,-0.01953 ,-0.19163 
359 ,70.0806 ,1.44463 ,-0.02295 ,-0.22520 
360 ,70.2727 ,1.44657 ,-0.03664 ,-0.35952 
361 ,70.4644 ,1.44849 ,-0.05717 ,-0.56099 
362 ,70.6730 ,1.45044 ,-0.05375 ,-0.52741 
363 ,70.8806 ,1.45264 ,-0.07086 ,-0.69530 
364 ,71.0570 ,1.45451 ,-0.08113 ,-0.79604 
365 ,71.2490 ,1.45633 ,-0.09482 ,-0.93035 
366 ,71.4412 ,1.45828 ,-0.11193 ,-1.09824 
367 ,71.6490 ,1.46031 ,-0.10851 ,-1.06466 
368 ,71.8574 ,1.46234 ,-0.13246 ,-1.29971 
369 ,72.0492 ,1.46438 ,-0.12219 ,-1.19898 
370 ,72.2253 ,1.46613 ,-0.15299 ,-1.50118 
371 ,72.4171 ,1.46806 ,-0.15642 ,-1.53476 
372 ,72.6095 ,1.46995 ,-0.15642 ,-1.53476 
373 ,72.8338 ,1.47219 ,-0.16668 ,-1.63549 
374 ,73.0417 ,1.47425 ,-0.19406 ,-1.90412 
375 ,73.2338 ,1.47615 ,-0.18379 ,-1.80338 
376 ,73.4416 ,1.47831 ,-0.20775 ,-2.03843 
377 ,73.6340 ,1.48015 ,-0.20090 ,-1.97128 
378 ,73.8422 ,1.48225 ,-0.23170 ,-2.27348 
379 ,74.0503 ,1.48438 ,-0.22144 ,-2.17275 
380 ,74.2424 ,1.48628 ,-0.25224 ,-2.47495 
381 ,74.4504 ,1.48838 ,-0.25908 ,-2.54211 
382 ,74.6426 ,1.49023 ,-0.26935 ,-2.64284 
383 ,74.8342 ,1.49217 ,-0.25566 ,-2.50853 
384 ,75.0268 ,1.49408 ,-0.29330 ,-2.87789 
385 ,75.2188 ,1.49606 ,-0.29673 ,-2.91147 
386 ,75.4108 ,1.49792 ,-0.29673 ,-2.91147 
387 ,75.6030 ,1.49991 ,-0.32410 ,-3.18010 
388 ,75.7949 ,1.50178 ,-0.30699 ,-3.01220 
389 ,75.9710 ,1.50367 ,-0.33095 ,-3.24725 
390 ,76.1631 ,1.50542 ,-0.35490 ,-3.48230 
391 ,76.3552 ,1.50739 ,-0.34121 ,-3.34799 
392 ,76.5471 ,1.50931 ,-0.35490 ,-3.48230 
393 ,76.7392 ,1.51122 ,-0.34806 ,-3.41514 
394 ,76.9631 ,1.51344 ,-0.37886 ,-3.71735 
395 ,77.1395 ,1.51539 ,-0.38570 ,-3.78450 
396 ,77.3474 ,1.51729 ,-0.38912 ,-3.81808 
397 ,77.5397 ,1.51921 ,-0.41308 ,-4.05313 
398 ,77.7476 ,1.52132 ,-0.40966 ,-4.01955 
399 ,77.9398 ,1.52322 ,-0.43703 ,-4.28818 
400 ,78.1319 ,1.52523 ,-0.44046 ,-4.32176 
401 ,78.3080 ,1.52694 ,-0.43703 ,-4.28818 
402 ,78.5320 ,1.52903 ,-0.45072 ,-4.42249 
403 ,78.7082 ,1.53097 ,-0.47126 ,-4.62396 
404 ,78.9162 ,1.53298 ,-0.47468 ,-4.65754 
405 ,79.1079 ,1.53488 ,-0.47126 ,-4.62396 
406 ,79.3004 ,1.53683 ,-0.49521 ,-4.85901 
407 ,79.5085 ,1.53890 ,-0.49863 ,-4.89259 
408 ,79.7005 ,1.54084 ,-0.50890 ,-4.99332 
409 ,79.8927 ,1.54276 ,-0.50890 ,-4.99332 
410 ,80.0847 ,1.54469 ,-0.53285 ,-5.22837 
411 ,80.2765 ,1.54657 ,-0.53628 ,-5.26195 
412 ,80.4528 ,1.54845 ,-0.53970 ,-5.29553 
413 ,80.6450 ,1.55027 ,-0.55681 ,-5.46342 
414 ,80.8689 ,1.55238 ,-0.55681 ,-5.46342 
415 ,81.0771 ,1.55454 ,-0.56023 ,-5.49700 
416 ,81.2689 ,1.55654 ,-0.57050 ,-5.59773 
417 ,81.4613 ,1.55845 ,-0.59445 ,-5.83278 
418 ,81.6693 ,1.56053 ,-0.59103 ,-5.79920 
419 ,81.8617 ,1.56246 ,-0.62868 ,-6.16856 
420 ,82.0533 ,1.56438 ,-0.61499 ,-6.03425 
421 ,82.2455 ,1.56625 ,-0.63210 ,-6.20214 
422 ,82.4210 ,1.56816 ,-0.64236 ,-6.30288 
423 ,82.5978 ,1.56980 ,-0.64921 ,-6.37003 
424 ,82.8056 ,1.57184 ,-0.65605 ,-6.43719 
425 ,82.9819 ,1.57369 ,-0.66632 ,-6.53793 
426 ,83.1737 ,1.57556 ,-0.66290 ,-6.50435 
427 ,83.3659 ,1.57750 ,-0.66974 ,-6.57150 
428 ,83.5418 ,1.57938 ,-0.70739 ,-6.94086 
429 ,83.7182 ,1.58107 ,-0.69370 ,-6.80655 
430 ,83.9102 ,1.58288 ,-0.69712 ,-6.84013 
431 ,84.1023 ,1.58486 ,-0.72450 ,-7.10876 
432 ,84.2945 ,1.58677 ,-0.72792 ,-7.14233 
433 ,84.5024 ,1.58884 ,-0.73476 ,-7.20949 
434 ,84.7106 ,1.59095 ,-0.73476 ,-7.20949 
435 ,84.9187 ,1.59298 ,-0.75530 ,-7.41096 
436 ,85.1108 ,1.59489 ,-0.74845 ,-7.34380 
437 ,85.3027 ,1.59693 ,-0.77583 ,-7.61243 
438 ,85.4949 ,1.59873 ,-0.78267 ,-7.67959 
439 ,85.6706 ,1.60062 ,-0.77583 ,-7.61243 
440 ,85.8633 ,1.60248 ,-0.80321 ,-7.88106 
441 ,86.0712 ,1.60452 ,-0.79978 ,-7.84748 
442 ,86.2634 ,1.60643 ,-0.82032 ,-8.04895 
443 ,86.4714 ,1.60850 ,-0.81005 ,-7.94821 
444 ,86.6633 ,1.61040 ,-0.83743 ,-8.21684 
445 ,86.8395 ,1.61225 ,-0.84427 ,-8.28400 
446 ,87.0315 ,1.61413 ,-0.83743 ,-8.21684 
447 ,87.2078 ,1.61589 ,-0.84769 ,-8.31758 
448 ,87.3998 ,1.61790 ,-0.87165 ,-8.55262 
449 ,87.5919 ,1.61971 ,-0.86823 ,-8.51904 
450 ,87.7996 ,1.62179 ,-0.88534 ,-8.68694 
451 ,87.9918 ,1.62373 ,-0.88534 ,-8.68694 
452 ,88.1838 ,1.62569 ,-0.89903 ,-8.82125 
453 ,88.3922 ,1.62771 ,-0.90587 ,-8.88841 
454 ,88.5840 ,1.62961 ,-0.91272 ,-8.95556 
455 ,88.7764 ,1.63157 ,-0.92983 ,-9.12345 
456 ,88.9842 ,1.63360 ,-0.92983 ,-9.12345 
457 ,89.1762 ,1.63551 ,-0.94351 ,-9.25777 
458 ,89.3686 ,1.63742 ,-0.94694 ,-9.29135 
459 ,89.5606 ,1.63937 ,-0.96747 ,-9.49282 
460 ,89.7367 ,1.64121 ,-0.97089 ,-9.52639 
461 ,89.9288 ,1.64302 ,-0.96405 ,-9.45924 
462 ,90.1209 ,1.64501 ,-0.98458 ,-9.66071 
463 ,90.3445 ,1.64713 ,-0.97774 ,-9.59355 
