Data stamp = , 28-04-2022 08:39:00 225

Calibration Values: 
Slope = , 26.54 , g/V 
Offset Voltage at no contact = , -0.501760 , V 

No , Time , Stage Position ,   Mass , Force 
   ,  (s) ,      (mm)      ,   (g)  , (mN)  

1 ,0.0000 ,0.74953 ,5.27798 ,51.78758 
2 ,0.3010 ,0.74974 ,5.26772 ,51.68685 
3 ,0.6856 ,0.75115 ,5.28483 ,51.85474 
4 ,0.8937 ,0.75331 ,5.29852 ,51.98905 
5 ,1.0856 ,0.75512 ,5.28483 ,51.85474 
6 ,1.2939 ,0.75719 ,5.30194 ,52.02263 
7 ,1.5014 ,0.75923 ,5.27456 ,51.75401 
8 ,1.7101 ,0.76133 ,5.28483 ,51.85474 
9 ,1.9180 ,0.76341 ,5.25403 ,51.55254 
10 ,2.1102 ,0.76530 ,5.24718 ,51.48538 
11 ,2.3022 ,0.76733 ,5.21296 ,51.14960 
12 ,2.4940 ,0.76921 ,5.20612 ,51.08244 
13 ,2.6705 ,0.77100 ,5.20270 ,51.04886 
14 ,2.8783 ,0.77300 ,5.16505 ,50.67950 
15 ,3.0707 ,0.77495 ,5.15479 ,50.57876 
16 ,3.2784 ,0.77695 ,5.13083 ,50.34372 
17 ,3.4707 ,0.77901 ,5.12399 ,50.27656 
18 ,3.6628 ,0.78096 ,5.09661 ,50.00793 
19 ,3.8709 ,0.78293 ,5.08977 ,49.94078 
20 ,4.0629 ,0.78492 ,5.04870 ,49.53784 
21 ,4.2550 ,0.78689 ,5.04870 ,49.53784 
22 ,4.4471 ,0.78867 ,5.01448 ,49.20205 
23 ,4.6552 ,0.79071 ,4.98368 ,48.89985 
24 ,4.8471 ,0.79275 ,4.98710 ,48.93343 
25 ,5.0229 ,0.79460 ,4.95288 ,48.59764 
26 ,5.2155 ,0.79644 ,4.93235 ,48.39618 
27 ,5.4236 ,0.79857 ,4.92208 ,48.29544 
28 ,5.6155 ,0.80045 ,4.89128 ,47.99324 
29 ,5.8075 ,0.80236 ,4.89128 ,47.99324 
30 ,5.9997 ,0.80424 ,4.85364 ,47.62387 
31 ,6.1920 ,0.80622 ,4.84679 ,47.55672 
32 ,6.3839 ,0.80811 ,4.82284 ,47.32167 
33 ,6.5756 ,0.81001 ,4.77493 ,46.85157 
34 ,6.7679 ,0.81192 ,4.79204 ,47.01946 
35 ,6.9602 ,0.81384 ,4.75097 ,46.61653 
36 ,7.1521 ,0.81578 ,4.73728 ,46.48221 
37 ,7.3442 ,0.81769 ,4.72702 ,46.38148 
38 ,7.5521 ,0.81976 ,4.70990 ,46.21359 
39 ,7.7445 ,0.82164 ,4.68253 ,45.94496 
40 ,7.9364 ,0.82361 ,4.64831 ,45.60918 
41 ,8.1285 ,0.82555 ,4.65515 ,45.67633 
42 ,8.3206 ,0.82747 ,4.63119 ,45.44128 
43 ,8.5129 ,0.82945 ,4.61408 ,45.27339 
44 ,8.7048 ,0.83127 ,4.60040 ,45.13908 
45 ,8.8969 ,0.83317 ,4.56617 ,44.80330 
46 ,9.1210 ,0.83537 ,4.56960 ,44.83688 
47 ,9.2972 ,0.83728 ,4.52169 ,44.36678 
48 ,9.5053 ,0.83929 ,4.53195 ,44.46751 
49 ,9.6973 ,0.84123 ,4.49089 ,44.06457 
50 ,9.8893 ,0.84312 ,4.49089 ,44.06457 
51 ,10.0815 ,0.84513 ,4.45666 ,43.72879 
52 ,10.2571 ,0.84691 ,4.43955 ,43.56090 
53 ,10.4496 ,0.84869 ,4.43613 ,43.52732 
54 ,10.6256 ,0.85060 ,4.40875 ,43.25870 
55 ,10.8177 ,0.85244 ,4.38138 ,42.99007 
56 ,10.9938 ,0.85432 ,4.37111 ,42.88933 
57 ,11.1859 ,0.85610 ,4.36769 ,42.85576 
58 ,11.3779 ,0.85802 ,4.32662 ,42.45282 
59 ,11.5700 ,0.85990 ,4.31978 ,42.38566 
60 ,11.7621 ,0.86188 ,4.29924 ,42.18419 
61 ,11.9545 ,0.86376 ,4.27871 ,41.98272 
62 ,12.1463 ,0.86573 ,4.27529 ,41.94914 
63 ,12.3545 ,0.86774 ,4.24449 ,41.64694 
64 ,12.5464 ,0.86975 ,4.23765 ,41.57978 
65 ,12.7381 ,0.87166 ,4.21027 ,41.31115 
66 ,12.9141 ,0.87350 ,4.18974 ,41.10968 
67 ,13.1062 ,0.87529 ,4.17605 ,40.97537 
68 ,13.3144 ,0.87733 ,4.16236 ,40.84106 
69 ,13.5228 ,0.87949 ,4.14525 ,40.67317 
70 ,13.7307 ,0.88168 ,4.11445 ,40.37096 
71 ,13.9067 ,0.88335 ,4.10076 ,40.23665 
72 ,14.0990 ,0.88522 ,4.07680 ,40.00160 
73 ,14.2910 ,0.88710 ,4.04943 ,39.73297 
74 ,14.4992 ,0.88917 ,4.05627 ,39.80013 
75 ,14.6753 ,0.89103 ,4.01520 ,39.39719 
76 ,14.8833 ,0.89306 ,4.01178 ,39.36361 
77 ,15.0755 ,0.89494 ,3.97072 ,38.96067 
78 ,15.2831 ,0.89704 ,3.97072 ,38.96067 
79 ,15.4753 ,0.89898 ,3.94676 ,38.72562 
80 ,15.6677 ,0.90089 ,3.93307 ,38.59131 
81 ,15.8757 ,0.90300 ,3.90570 ,38.32268 
82 ,16.0680 ,0.90489 ,3.89885 ,38.25553 
83 ,16.2760 ,0.90696 ,3.86805 ,37.95332 
84 ,16.4521 ,0.90886 ,3.87147 ,37.98690 
85 ,16.9166 ,0.91204 ,3.84410 ,37.71828 
86 ,17.1243 ,0.91545 ,3.79961 ,37.28176 
87 ,17.3165 ,0.91734 ,3.76881 ,36.97955 
88 ,17.5244 ,0.91943 ,3.77565 ,37.04671 
89 ,17.7167 ,0.92135 ,3.73459 ,36.64377 
90 ,17.9085 ,0.92327 ,3.73117 ,36.61019 
91 ,18.1008 ,0.92523 ,3.71748 ,36.47588 
92 ,18.2930 ,0.92717 ,3.69010 ,36.20725 
93 ,18.4849 ,0.92908 ,3.67983 ,36.10652 
94 ,18.6768 ,0.93098 ,3.66614 ,35.97220 
95 ,18.8846 ,0.93307 ,3.64219 ,35.73716 
96 ,19.0612 ,0.93485 ,3.62850 ,35.60284 
97 ,19.2533 ,0.93676 ,3.60112 ,35.33422 
98 ,19.4454 ,0.93865 ,3.59428 ,35.26706 
99 ,19.6370 ,0.94058 ,3.57375 ,35.06559 
100 ,19.8296 ,0.94256 ,3.53610 ,34.69623 
101 ,20.0378 ,0.94461 ,3.53268 ,34.66265 
102 ,20.2297 ,0.94645 ,3.50530 ,34.39402 
103 ,20.4217 ,0.94845 ,3.49504 ,34.29329 
104 ,20.5975 ,0.95022 ,3.49161 ,34.25971 
105 ,20.7894 ,0.95208 ,3.45055 ,33.85677 
106 ,20.9820 ,0.95404 ,3.45055 ,33.85677 
107 ,21.1737 ,0.95597 ,3.40606 ,33.42025 
108 ,21.3661 ,0.95786 ,3.40606 ,33.42025 
109 ,21.5582 ,0.95987 ,3.39921 ,33.35310 
110 ,21.7500 ,0.96167 ,3.35130 ,32.88300 
111 ,21.9424 ,0.96368 ,3.35815 ,32.95016 
112 ,22.1503 ,0.96567 ,3.33419 ,32.71511 
113 ,22.3426 ,0.96763 ,3.32735 ,32.64795 
114 ,22.5342 ,0.96952 ,3.28971 ,32.27859 
115 ,22.7427 ,0.97161 ,3.27602 ,32.14428 
116 ,22.9343 ,0.97362 ,3.24522 ,31.84207 
117 ,23.1428 ,0.97551 ,3.23837 ,31.77492 
118 ,23.3509 ,0.97764 ,3.21784 ,31.57345 
119 ,23.5269 ,0.97958 ,3.21784 ,31.57345 
120 ,23.7188 ,0.98136 ,3.19388 ,31.33840 
121 ,23.9112 ,0.98330 ,3.16309 ,31.03619 
122 ,24.1032 ,0.98522 ,3.14940 ,30.90188 
123 ,24.2954 ,0.98714 ,3.13229 ,30.73399 
124 ,24.5033 ,0.98921 ,3.11860 ,30.59968 
125 ,24.6795 ,0.99102 ,3.10149 ,30.43178 
126 ,24.8716 ,0.99289 ,3.07411 ,30.16316 
127 ,25.0794 ,0.99494 ,3.07069 ,30.12958 
128 ,25.2716 ,0.99694 ,3.04331 ,29.86095 
129 ,25.4639 ,0.99886 ,3.01251 ,29.55875 
130 ,25.6558 ,1.00070 ,3.00224 ,29.45801 
131 ,25.8479 ,1.00267 ,2.98855 ,29.32370 
132 ,26.0401 ,1.00455 ,2.98171 ,29.25654 
133 ,26.2317 ,1.00649 ,2.95091 ,28.95434 
134 ,26.4245 ,1.00842 ,2.94407 ,28.88718 
135 ,26.6163 ,1.01045 ,2.90642 ,28.51782 
136 ,26.7924 ,1.01217 ,2.90642 ,28.51782 
137 ,26.9843 ,1.01399 ,2.88931 ,28.34993 
138 ,27.1602 ,1.01589 ,2.87220 ,28.18204 
139 ,27.3525 ,1.01769 ,2.85509 ,28.01415 
140 ,27.5451 ,1.01959 ,2.83798 ,27.84625 
141 ,27.7367 ,1.02156 ,2.82771 ,27.74552 
142 ,27.9286 ,1.02347 ,2.79349 ,27.40974 
143 ,28.1207 ,1.02532 ,2.78665 ,27.34258 
144 ,28.3130 ,1.02733 ,2.76269 ,27.10753 
145 ,28.5051 ,1.02934 ,2.75243 ,27.00680 
146 ,28.6971 ,1.03116 ,2.73874 ,26.87248 
147 ,28.9053 ,1.03313 ,2.70452 ,26.53670 
148 ,29.0973 ,1.03514 ,2.70109 ,26.50312 
149 ,29.2893 ,1.03709 ,2.67029 ,26.20092 
150 ,29.4650 ,1.03895 ,2.65318 ,26.03303 
151 ,29.6573 ,1.04077 ,2.64634 ,25.96587 
152 ,29.8655 ,1.04282 ,2.63607 ,25.86514 
153 ,30.0575 ,1.04476 ,2.61896 ,25.69724 
154 ,30.2498 ,1.04664 ,2.58816 ,25.39504 
155 ,30.4421 ,1.04852 ,2.58474 ,25.36146 
156 ,30.6498 ,1.05065 ,2.56421 ,25.15999 
157 ,30.8579 ,1.05271 ,2.55394 ,25.05926 
158 ,31.0501 ,1.05466 ,2.53683 ,24.89136 
159 ,31.2417 ,1.05663 ,2.50945 ,24.62274 
160 ,31.4342 ,1.05846 ,2.50945 ,24.62274 
161 ,31.6260 ,1.06037 ,2.47181 ,24.25338 
162 ,31.8184 ,1.06235 ,2.45812 ,24.11906 
163 ,32.0264 ,1.06438 ,2.43759 ,23.91759 
164 ,32.2184 ,1.06635 ,2.43416 ,23.88402 
165 ,32.4107 ,1.06830 ,2.42390 ,23.78328 
166 ,32.6026 ,1.07020 ,2.38968 ,23.44750 
167 ,32.7948 ,1.07211 ,2.37941 ,23.34676 
168 ,32.9867 ,1.07401 ,2.35203 ,23.07814 
169 ,33.1790 ,1.07592 ,2.35888 ,23.14529 
170 ,33.3710 ,1.07786 ,2.35545 ,23.11171 
171 ,33.5633 ,1.07980 ,2.30754 ,22.64162 
172 ,33.7551 ,1.08167 ,2.30412 ,22.60804 
173 ,33.9634 ,1.08381 ,2.28701 ,22.44015 
174 ,34.1714 ,1.08585 ,2.26990 ,22.27226 
175 ,34.3634 ,1.08782 ,2.23568 ,21.93647 
176 ,34.5554 ,1.08980 ,2.23568 ,21.93647 
177 ,34.7315 ,1.09155 ,2.22199 ,21.80216 
178 ,34.9234 ,1.09334 ,2.19803 ,21.56711 
179 ,35.1156 ,1.09531 ,2.19461 ,21.53353 
180 ,35.3077 ,1.09722 ,2.16381 ,21.23133 
181 ,35.4999 ,1.09923 ,2.13301 ,20.92912 
182 ,35.6919 ,1.10108 ,2.14328 ,21.02986 
183 ,35.8840 ,1.10299 ,2.11590 ,20.76123 
184 ,36.0761 ,1.10484 ,2.09537 ,20.55976 
185 ,36.2680 ,1.10684 ,2.08168 ,20.42545 
186 ,36.4603 ,1.10873 ,2.07484 ,20.35829 
187 ,36.6683 ,1.11086 ,2.07484 ,20.35829 
188 ,36.8603 ,1.11273 ,2.04404 ,20.05609 
189 ,37.0365 ,1.11461 ,2.03719 ,19.98893 
190 ,37.2286 ,1.11646 ,2.02693 ,19.88820 
191 ,37.4210 ,1.11843 ,1.99270 ,19.55241 
192 ,37.6127 ,1.12028 ,1.99270 ,19.55241 
193 ,37.8049 ,1.12214 ,1.96190 ,19.25021 
194 ,38.0129 ,1.12429 ,1.96533 ,19.28379 
195 ,38.1725 ,1.12601 ,1.96190 ,19.25021 
196 ,38.3650 ,1.12778 ,1.93453 ,18.98158 
197 ,38.5568 ,1.12978 ,1.90715 ,18.71296 
198 ,38.7491 ,1.13159 ,1.91742 ,18.81369 
199 ,38.9413 ,1.13356 ,1.90031 ,18.64580 
200 ,39.1332 ,1.13547 ,1.87293 ,18.37717 
201 ,39.3254 ,1.13736 ,1.85924 ,18.24286 
202 ,39.5171 ,1.13927 ,1.84897 ,18.14213 
203 ,39.6934 ,1.14112 ,1.83528 ,18.00781 
204 ,39.8856 ,1.14297 ,1.83528 ,18.00781 
205 ,40.0937 ,1.14506 ,1.79764 ,17.63845 
206 ,40.3014 ,1.14715 ,1.79080 ,17.57129 
207 ,40.5099 ,1.14915 ,1.78053 ,17.47056 
208 ,40.7181 ,1.15128 ,1.75315 ,17.20193 
209 ,40.9101 ,1.15320 ,1.74973 ,17.16836 
210 ,41.1022 ,1.15516 ,1.72578 ,16.93331 
211 ,41.2942 ,1.15714 ,1.71893 ,16.86615 
212 ,41.4859 ,1.15899 ,1.71893 ,16.86615 
213 ,41.6620 ,1.16086 ,1.68471 ,16.53037 
214 ,41.8380 ,1.16260 ,1.68129 ,16.49679 
215 ,42.0142 ,1.16438 ,1.67102 ,16.39605 
216 ,42.2063 ,1.16613 ,1.67444 ,16.42963 
217 ,42.3823 ,1.16807 ,1.63338 ,16.02669 
218 ,42.5744 ,1.16983 ,1.62653 ,15.95954 
219 ,42.7665 ,1.17179 ,1.61969 ,15.89238 
220 ,42.9426 ,1.17367 ,1.59231 ,15.62375 
221 ,43.1347 ,1.17542 ,1.58204 ,15.52302 
222 ,43.3268 ,1.17734 ,1.58547 ,15.55660 
223 ,43.5349 ,1.17947 ,1.55809 ,15.28797 
224 ,43.7269 ,1.18141 ,1.54440 ,15.15366 
225 ,43.9030 ,1.18327 ,1.53071 ,15.01934 
226 ,44.0951 ,1.18502 ,1.52045 ,14.91861 
227 ,44.2872 ,1.18695 ,1.51360 ,14.85145 
228 ,44.4633 ,1.18886 ,1.49307 ,14.64998 
229 ,44.6554 ,1.19065 ,1.48622 ,14.58283 
230 ,44.8475 ,1.19259 ,1.47938 ,14.51567 
231 ,45.0395 ,1.19448 ,1.45542 ,14.28062 
232 ,45.2315 ,1.19641 ,1.43489 ,14.07915 
233 ,45.4076 ,1.19832 ,1.43831 ,14.11273 
234 ,45.5997 ,1.20009 ,1.42120 ,13.94484 
235 ,45.7919 ,1.20202 ,1.40409 ,13.77695 
236 ,45.9839 ,1.20396 ,1.40409 ,13.77695 
237 ,46.1763 ,1.20584 ,1.37671 ,13.50832 
238 ,46.3520 ,1.20767 ,1.35960 ,13.34043 
239 ,46.5458 ,1.20954 ,1.36303 ,13.37401 
240 ,46.7526 ,1.21161 ,1.35618 ,13.30685 
241 ,46.9446 ,1.21352 ,1.34249 ,13.17254 
242 ,47.1207 ,1.21540 ,1.32196 ,12.97107 
243 ,47.3124 ,1.21726 ,1.30827 ,12.83675 
244 ,47.5048 ,1.21914 ,1.30143 ,12.76960 
245 ,47.6966 ,1.22104 ,1.26378 ,12.40024 
246 ,47.8890 ,1.22293 ,1.27063 ,12.46739 
247 ,48.0809 ,1.22496 ,1.26036 ,12.36666 
248 ,48.2891 ,1.22704 ,1.25009 ,12.26592 
249 ,48.4812 ,1.22894 ,1.22956 ,12.06445 
250 ,48.6733 ,1.23085 ,1.21929 ,11.96372 
251 ,48.8652 ,1.23286 ,1.21587 ,11.93014 
252 ,49.0411 ,1.23454 ,1.19876 ,11.76225 
253 ,49.2334 ,1.23649 ,1.17823 ,11.56078 
254 ,49.4417 ,1.23846 ,1.15770 ,11.35931 
255 ,49.6656 ,1.24063 ,1.14743 ,11.25857 
256 ,49.8575 ,1.24270 ,1.14743 ,11.25857 
257 ,50.0498 ,1.24455 ,1.12690 ,11.05710 
258 ,50.2258 ,1.24644 ,1.12347 ,11.02353 
259 ,50.4179 ,1.24825 ,1.09610 ,10.75490 
260 ,50.6097 ,1.25012 ,1.09267 ,10.72132 
261 ,50.8020 ,1.25211 ,1.07899 ,10.58701 
262 ,50.9782 ,1.25391 ,1.06530 ,10.45270 
263 ,51.1862 ,1.25592 ,1.06872 ,10.48627 
264 ,51.3783 ,1.25783 ,1.04819 ,10.28480 
265 ,51.5703 ,1.25974 ,1.02081 ,10.01618 
266 ,51.7466 ,1.26157 ,1.03108 ,10.11691 
267 ,51.9546 ,1.26358 ,1.00370 ,9.84829 
268 ,52.1466 ,1.26554 ,1.00028 ,9.81471 
269 ,52.3223 ,1.26742 ,0.97632 ,9.57966 
270 ,52.5309 ,1.26928 ,0.95579 ,9.37819 
271 ,52.7550 ,1.27167 ,0.95579 ,9.37819 
272 ,52.9630 ,1.27374 ,0.95921 ,9.41177 
273 ,53.1552 ,1.27562 ,0.93183 ,9.14314 
274 ,53.3472 ,1.27756 ,0.92499 ,9.07598 
275 ,53.5390 ,1.27950 ,0.91472 ,8.97525 
276 ,53.7473 ,1.28150 ,0.89761 ,8.80736 
277 ,53.9395 ,1.28349 ,0.88734 ,8.70662 
278 ,54.1314 ,1.28539 ,0.85654 ,8.40442 
279 ,54.3237 ,1.28730 ,0.87366 ,8.57231 
280 ,54.5153 ,1.28925 ,0.85654 ,8.40442 
281 ,54.7077 ,1.29113 ,0.83601 ,8.20295 
282 ,54.9157 ,1.29325 ,0.81890 ,8.03506 
283 ,55.1078 ,1.29516 ,0.81206 ,7.96790 
284 ,55.2999 ,1.29711 ,0.82232 ,8.06864 
285 ,55.5079 ,1.29919 ,0.78468 ,7.69927 
286 ,55.7001 ,1.30107 ,0.79152 ,7.76643 
287 ,55.9082 ,1.30314 ,0.75388 ,7.39707 
288 ,56.1002 ,1.30505 ,0.75388 ,7.39707 
289 ,56.3081 ,1.30709 ,0.73335 ,7.19560 
290 ,56.5167 ,1.30921 ,0.72650 ,7.12844 
291 ,56.7081 ,1.31114 ,0.72650 ,7.12844 
292 ,56.9006 ,1.31305 ,0.71281 ,6.99413 
293 ,57.1087 ,1.31512 ,0.68544 ,6.72550 
294 ,57.3008 ,1.31706 ,0.70255 ,6.89340 
295 ,57.5089 ,1.31913 ,0.66490 ,6.52403 
296 ,57.7010 ,1.32100 ,0.66490 ,6.52403 
297 ,57.8768 ,1.32294 ,0.66148 ,6.49046 
298 ,58.0530 ,1.32463 ,0.63753 ,6.25541 
299 ,58.2452 ,1.32649 ,0.63068 ,6.18825 
300 ,58.4532 ,1.32859 ,0.62384 ,6.12109 
301 ,58.6453 ,1.33062 ,0.61357 ,6.02036 
302 ,58.8370 ,1.33248 ,0.59988 ,5.88605 
303 ,59.0295 ,1.33436 ,0.57935 ,5.68458 
304 ,59.2374 ,1.33637 ,0.58277 ,5.71815 
305 ,59.4134 ,1.33827 ,0.56566 ,5.55026 
306 ,59.6212 ,1.34024 ,0.55882 ,5.48311 
307 ,59.8133 ,1.34225 ,0.53828 ,5.28164 
308 ,60.0053 ,1.34409 ,0.53144 ,5.21448 
309 ,60.1816 ,1.34589 ,0.52802 ,5.18090 
310 ,60.3739 ,1.34776 ,0.50406 ,4.94585 
311 ,60.5340 ,1.34955 ,0.49037 ,4.81154 
312 ,60.7262 ,1.35129 ,0.49037 ,4.81154 
313 ,60.9182 ,1.35321 ,0.47668 ,4.67723 
314 ,61.1098 ,1.35519 ,0.46642 ,4.57649 
315 ,61.2862 ,1.35698 ,0.45957 ,4.50934 
316 ,61.4623 ,1.35872 ,0.44588 ,4.37502 
317 ,61.6545 ,1.36057 ,0.43904 ,4.30787 
318 ,61.8462 ,1.36254 ,0.42193 ,4.13997 
319 ,62.0223 ,1.36436 ,0.42193 ,4.13997 
320 ,62.2147 ,1.36620 ,0.41166 ,4.03924 
321 ,62.4068 ,1.36809 ,0.38771 ,3.80419 
322 ,62.5989 ,1.36997 ,0.39455 ,3.87135 
323 ,62.7909 ,1.37190 ,0.36033 ,3.53557 
324 ,62.9831 ,1.37385 ,0.37060 ,3.63630 
325 ,63.1749 ,1.37574 ,0.35691 ,3.50199 
326 ,63.3673 ,1.37771 ,0.32953 ,3.23336 
327 ,63.5753 ,1.37978 ,0.33295 ,3.26694 
328 ,63.7834 ,1.38187 ,0.30900 ,3.03189 
329 ,63.9755 ,1.38376 ,0.31926 ,3.13263 
330 ,64.1515 ,1.38560 ,0.30215 ,2.96473 
331 ,64.3431 ,1.38743 ,0.28162 ,2.76326 
332 ,64.5517 ,1.38942 ,0.27478 ,2.69611 
333 ,64.7438 ,1.39144 ,0.25767 ,2.52822 
334 ,64.9359 ,1.39339 ,0.25767 ,2.52822 
335 ,65.1280 ,1.39527 ,0.23371 ,2.29317 
336 ,65.3201 ,1.39721 ,0.23371 ,2.29317 
337 ,65.5122 ,1.39911 ,0.23029 ,2.25959 
338 ,65.7042 ,1.40116 ,0.21660 ,2.12528 
339 ,65.8963 ,1.40299 ,0.20633 ,2.02454 
340 ,66.1043 ,1.40507 ,0.18580 ,1.82307 
341 ,66.2962 ,1.40698 ,0.19264 ,1.89023 
342 ,66.4722 ,1.40889 ,0.17896 ,1.75592 
343 ,66.6806 ,1.41072 ,0.15500 ,1.52087 
344 ,66.8885 ,1.41290 ,0.14816 ,1.45371 
345 ,67.0808 ,1.41488 ,0.13447 ,1.31940 
346 ,67.2889 ,1.41686 ,0.14816 ,1.45371 
347 ,67.4970 ,1.41899 ,0.11736 ,1.15151 
348 ,67.6890 ,1.42085 ,0.09682 ,0.95004 
349 ,67.8970 ,1.42303 ,0.09682 ,0.95004 
350 ,68.1052 ,1.42508 ,0.07629 ,0.74857 
351 ,68.2976 ,1.42698 ,0.07629 ,0.74857 
352 ,68.4733 ,1.42889 ,0.06602 ,0.64783 
353 ,68.6493 ,1.43055 ,0.05234 ,0.51352 
354 ,68.8573 ,1.43252 ,0.03180 ,0.31205 
355 ,69.0657 ,1.43466 ,0.01811 ,0.17773 
356 ,69.2577 ,1.43660 ,0.02154 ,0.21131 
357 ,69.4498 ,1.43848 ,0.00785 ,0.07700 
358 ,69.6419 ,1.44044 ,-0.01269 ,-0.12447 
359 ,69.8338 ,1.44235 ,-0.00584 ,-0.05731 
360 ,70.0420 ,1.44439 ,-0.03664 ,-0.35952 
361 ,70.2340 ,1.44641 ,-0.03664 ,-0.35952 
362 ,70.4261 ,1.44824 ,-0.04691 ,-0.46025 
363 ,70.6182 ,1.45020 ,-0.05717 ,-0.56099 
364 ,70.8102 ,1.45210 ,-0.07086 ,-0.69530 
365 ,71.0182 ,1.45417 ,-0.08113 ,-0.79604 
366 ,71.2263 ,1.45623 ,-0.09140 ,-0.89677 
367 ,71.4185 ,1.45820 ,-0.08797 ,-0.86319 
368 ,71.6105 ,1.46005 ,-0.09824 ,-0.96393 
369 ,71.7867 ,1.46190 ,-0.11877 ,-1.16540 
370 ,71.9783 ,1.46372 ,-0.13588 ,-1.33329 
371 ,72.1549 ,1.46566 ,-0.14273 ,-1.40045 
372 ,72.3309 ,1.46739 ,-0.14615 ,-1.43402 
373 ,72.5231 ,1.46917 ,-0.15642 ,-1.53476 
374 ,72.7310 ,1.47133 ,-0.15984 ,-1.56834 
375 ,72.9072 ,1.47311 ,-0.18722 ,-1.83696 
376 ,73.1152 ,1.47515 ,-0.17011 ,-1.66907 
377 ,73.3069 ,1.47709 ,-0.19748 ,-1.93770 
378 ,73.4830 ,1.47892 ,-0.21459 ,-2.10559 
379 ,73.6750 ,1.48080 ,-0.21117 ,-2.07201 
380 ,73.8836 ,1.48271 ,-0.21459 ,-2.10559 
381 ,74.1073 ,1.48505 ,-0.23855 ,-2.34064 
382 ,74.2997 ,1.48695 ,-0.24197 ,-2.37422 
383 ,74.4759 ,1.48882 ,-0.23855 ,-2.34064 
384 ,74.6680 ,1.49067 ,-0.26593 ,-2.60926 
385 ,74.8759 ,1.49276 ,-0.27277 ,-2.67642 
386 ,75.0680 ,1.49467 ,-0.27961 ,-2.74358 
387 ,75.2602 ,1.49662 ,-0.30015 ,-2.94505 
388 ,75.4682 ,1.49864 ,-0.31384 ,-3.07936 
389 ,75.6763 ,1.50074 ,-0.31726 ,-3.11294 
390 ,75.8681 ,1.50265 ,-0.32068 ,-3.14652 
391 ,76.0605 ,1.50459 ,-0.34464 ,-3.38156 
392 ,76.2523 ,1.50649 ,-0.34121 ,-3.34799 
393 ,76.4447 ,1.50845 ,-0.34464 ,-3.38156 
394 ,76.6526 ,1.51049 ,-0.36175 ,-3.54946 
395 ,76.8609 ,1.51262 ,-0.37201 ,-3.65019 
396 ,77.0529 ,1.51453 ,-0.36859 ,-3.61661 
397 ,77.2449 ,1.51641 ,-0.39255 ,-3.85166 
398 ,77.4208 ,1.51831 ,-0.39939 ,-3.91882 
399 ,77.6132 ,1.52010 ,-0.41308 ,-4.05313 
400 ,77.8212 ,1.52221 ,-0.41992 ,-4.12029 
401 ,77.9973 ,1.52401 ,-0.43703 ,-4.28818 
402 ,78.1891 ,1.52586 ,-0.42677 ,-4.18744 
403 ,78.3653 ,1.52775 ,-0.45757 ,-4.48965 
404 ,78.5573 ,1.52947 ,-0.45757 ,-4.48965 
405 ,78.7495 ,1.53147 ,-0.44046 ,-4.32176 
406 ,78.9414 ,1.53341 ,-0.48152 ,-4.72470 
407 ,79.1497 ,1.53539 ,-0.47468 ,-4.65754 
408 ,79.3414 ,1.53734 ,-0.48837 ,-4.79185 
409 ,79.5335 ,1.53937 ,-0.50890 ,-4.99332 
410 ,79.7258 ,1.54122 ,-0.49521 ,-4.85901 
411 ,79.9338 ,1.54333 ,-0.51232 ,-5.02690 
412 ,80.1261 ,1.54521 ,-0.53285 ,-5.22837 
413 ,80.3182 ,1.54715 ,-0.54654 ,-5.36268 
414 ,80.5100 ,1.54905 ,-0.53285 ,-5.22837 
415 ,80.7024 ,1.55096 ,-0.56023 ,-5.49700 
416 ,80.8943 ,1.55289 ,-0.56365 ,-5.53058 
417 ,81.0862 ,1.55482 ,-0.55339 ,-5.42984 
418 ,81.2782 ,1.55673 ,-0.59445 ,-5.83278 
419 ,81.4548 ,1.55858 ,-0.58761 ,-5.76562 
420 ,81.6467 ,1.56046 ,-0.59445 ,-5.83278 
421 ,81.8708 ,1.56256 ,-0.60130 ,-5.89994 
422 ,82.0790 ,1.56473 ,-0.62183 ,-6.10141 
423 ,82.2710 ,1.56665 ,-0.61841 ,-6.06783 
424 ,82.4632 ,1.56856 ,-0.63552 ,-6.23572 
425 ,82.6232 ,1.57036 ,-0.65605 ,-6.43719 
426 ,82.7989 ,1.57203 ,-0.64921 ,-6.37003 
427 ,82.9913 ,1.57387 ,-0.65263 ,-6.40361 
428 ,83.1835 ,1.57578 ,-0.66974 ,-6.57150 
429 ,83.3756 ,1.57773 ,-0.68343 ,-6.70582 
430 ,83.5834 ,1.57976 ,-0.68001 ,-6.67224 
431 ,83.7758 ,1.58173 ,-0.70396 ,-6.90729 
432 ,83.9674 ,1.58371 ,-0.70739 ,-6.94086 
433 ,84.1599 ,1.58549 ,-0.72107 ,-7.07518 
434 ,84.3517 ,1.58751 ,-0.71765 ,-7.04160 
435 ,84.5441 ,1.58941 ,-0.72450 ,-7.10876 
436 ,84.7358 ,1.59127 ,-0.73818 ,-7.24307 
437 ,84.9282 ,1.59321 ,-0.73476 ,-7.20949 
438 ,85.1361 ,1.59535 ,-0.77241 ,-7.57885 
439 ,85.3281 ,1.59722 ,-0.75187 ,-7.37738 
440 ,85.5202 ,1.59911 ,-0.77583 ,-7.61243 
441 ,85.7125 ,1.60110 ,-0.78610 ,-7.71317 
442 ,85.9205 ,1.60315 ,-0.78952 ,-7.74674 
443 ,86.1122 ,1.60506 ,-0.80321 ,-7.88106 
444 ,86.3046 ,1.60697 ,-0.79294 ,-7.78032 
445 ,86.4806 ,1.60879 ,-0.82032 ,-8.04895 
446 ,86.6726 ,1.61069 ,-0.83401 ,-8.18326 
447 ,86.8650 ,1.61257 ,-0.83401 ,-8.18326 
448 ,87.0566 ,1.61455 ,-0.85112 ,-8.35115 
449 ,87.2332 ,1.61631 ,-0.86481 ,-8.48547 
450 ,87.4253 ,1.61818 ,-0.84427 ,-8.28400 
451 ,87.6013 ,1.62007 ,-0.86481 ,-8.48547 
452 ,87.7934 ,1.62188 ,-0.88876 ,-8.72051 
453 ,88.0015 ,1.62389 ,-0.87849 ,-8.61978 
454 ,88.1934 ,1.62586 ,-0.89560 ,-8.78767 
455 ,88.3857 ,1.62777 ,-0.89560 ,-8.78767 
456 ,88.5776 ,1.62982 ,-0.91614 ,-8.98914 
457 ,88.7859 ,1.63184 ,-0.91614 ,-8.98914 
458 ,88.9937 ,1.63388 ,-0.92983 ,-9.12345 
459 ,89.1861 ,1.63580 ,-0.92983 ,-9.12345 
460 ,89.3939 ,1.63784 ,-0.95378 ,-9.35850 
461 ,89.5861 ,1.63978 ,-0.94009 ,-9.22419 
462 ,89.7781 ,1.64167 ,-0.97774 ,-9.59355 
463 ,89.9703 ,1.64360 ,-0.97431 ,-9.55997 
