Data stamp = , 27-04-2022 20:59:44 518

Calibration Values: 
Slope = , 26.54 , g/V 
Offset Voltage at no contact = , -0.501760 , V 

No , Time , Stage Position ,   Mass , Force 
   ,  (s) ,      (mm)      ,   (g)  , (mN)  

1 ,0.0000 ,0.74948 ,5.27114 ,51.72043 
2 ,0.2855 ,0.74965 ,5.28483 ,51.85474 
3 ,0.6263 ,0.75077 ,5.26430 ,51.65327 
4 ,0.8457 ,0.75277 ,5.29510 ,51.95548 
5 ,1.0380 ,0.75459 ,5.28483 ,51.85474 
6 ,1.2301 ,0.75652 ,5.27114 ,51.72043 
7 ,1.4380 ,0.75850 ,5.27798 ,51.78758 
8 ,1.6144 ,0.76038 ,5.25745 ,51.58611 
9 ,1.8225 ,0.76240 ,5.25061 ,51.51896 
10 ,2.0145 ,0.76436 ,5.23692 ,51.38464 
11 ,2.2222 ,0.76643 ,5.22665 ,51.28391 
12 ,2.4307 ,0.76844 ,5.19585 ,50.98170 
13 ,2.6387 ,0.77062 ,5.17532 ,50.78023 
14 ,2.8148 ,0.77245 ,5.18559 ,50.88097 
15 ,3.0069 ,0.77420 ,5.15136 ,50.54519 
16 ,3.1991 ,0.77616 ,5.11030 ,50.14225 
17 ,3.3911 ,0.77810 ,5.11030 ,50.14225 
18 ,3.5993 ,0.78024 ,5.09661 ,50.00793 
19 ,3.8071 ,0.78220 ,5.07265 ,49.77289 
20 ,3.9993 ,0.78421 ,5.04870 ,49.53784 
21 ,4.1913 ,0.78606 ,5.03843 ,49.43710 
22 ,4.3991 ,0.78819 ,5.01106 ,49.16848 
23 ,4.5755 ,0.78998 ,4.98710 ,48.93343 
24 ,4.7675 ,0.79183 ,4.99394 ,49.00058 
25 ,4.9595 ,0.79376 ,4.94261 ,48.49691 
26 ,5.1678 ,0.79584 ,4.94946 ,48.56407 
27 ,5.3759 ,0.79794 ,4.91866 ,48.26186 
28 ,5.5520 ,0.79983 ,4.91181 ,48.19471 
29 ,5.7439 ,0.80170 ,4.88786 ,47.95966 
30 ,5.9198 ,0.80346 ,4.86732 ,47.75819 
31 ,6.1122 ,0.80531 ,4.85021 ,47.59030 
32 ,6.3044 ,0.80721 ,4.83995 ,47.48956 
33 ,6.5121 ,0.80932 ,4.80230 ,47.12020 
34 ,6.7046 ,0.81125 ,4.80230 ,47.12020 
35 ,6.9123 ,0.81330 ,4.76466 ,46.75084 
36 ,7.1048 ,0.81520 ,4.75097 ,46.61653 
37 ,7.2966 ,0.81714 ,4.71333 ,46.24716 
38 ,7.4889 ,0.81903 ,4.73044 ,46.41506 
39 ,7.7128 ,0.82123 ,4.67568 ,45.87780 
40 ,7.9051 ,0.82326 ,4.69279 ,46.04569 
41 ,8.1292 ,0.82541 ,4.65515 ,45.67633 
42 ,8.3209 ,0.82737 ,4.62435 ,45.37413 
43 ,8.5129 ,0.82929 ,4.61751 ,45.30697 
44 ,8.7050 ,0.83123 ,4.61408 ,45.27339 
45 ,8.8974 ,0.83312 ,4.57986 ,44.93761 
46 ,9.0897 ,0.83505 ,4.57986 ,44.93761 
47 ,9.2976 ,0.83707 ,4.53880 ,44.53467 
48 ,9.4897 ,0.83906 ,4.52853 ,44.43394 
49 ,9.6819 ,0.84092 ,4.52169 ,44.36678 
50 ,9.8899 ,0.84309 ,4.49431 ,44.09815 
51 ,10.0979 ,0.84512 ,4.46351 ,43.79595 
52 ,10.2900 ,0.84703 ,4.46351 ,43.79595 
53 ,10.4658 ,0.84894 ,4.42244 ,43.39301 
54 ,10.6582 ,0.85078 ,4.40191 ,43.19154 
55 ,10.8498 ,0.85271 ,4.40191 ,43.19154 
56 ,11.0426 ,0.85457 ,4.37453 ,42.92291 
57 ,11.2345 ,0.85653 ,4.36769 ,42.85576 
58 ,11.4427 ,0.85854 ,4.34716 ,42.65429 
59 ,11.6505 ,0.86066 ,4.32662 ,42.45282 
60 ,11.8429 ,0.86260 ,4.30267 ,42.21777 
61 ,12.0345 ,0.86453 ,4.29582 ,42.15061 
62 ,12.2429 ,0.86658 ,4.25818 ,41.78125 
63 ,12.4185 ,0.86843 ,4.24107 ,41.61336 
64 ,12.5951 ,0.87018 ,4.22738 ,41.47905 
65 ,12.8031 ,0.87214 ,4.21369 ,41.34473 
66 ,12.9787 ,0.87407 ,4.19658 ,41.17684 
67 ,13.1873 ,0.87593 ,4.17605 ,40.97537 
68 ,13.3794 ,0.87797 ,4.14525 ,40.67317 
69 ,13.5713 ,0.87985 ,4.15551 ,40.77390 
70 ,13.7635 ,0.88189 ,4.12129 ,40.43812 
71 ,13.9397 ,0.88361 ,4.09734 ,40.20307 
72 ,14.1316 ,0.88555 ,4.08707 ,40.10233 
73 ,14.3077 ,0.88730 ,4.08023 ,40.03518 
74 ,14.4998 ,0.88912 ,4.05627 ,39.80013 
75 ,14.6919 ,0.89109 ,4.04600 ,39.69940 
76 ,14.8838 ,0.89302 ,4.02889 ,39.53150 
77 ,15.0759 ,0.89488 ,3.98441 ,39.09499 
78 ,15.2837 ,0.89702 ,3.97756 ,39.02783 
79 ,15.4917 ,0.89908 ,3.96387 ,38.89352 
80 ,15.6838 ,0.90092 ,3.93992 ,38.65847 
81 ,15.8760 ,0.90287 ,3.93307 ,38.59131 
82 ,16.0844 ,0.90501 ,3.91254 ,38.38984 
83 ,16.2924 ,0.90708 ,3.89885 ,38.25553 
84 ,16.4685 ,0.90889 ,3.88174 ,38.08764 
85 ,16.6447 ,0.91065 ,3.85436 ,37.81901 
86 ,16.8527 ,0.91266 ,3.85094 ,37.78543 
87 ,17.0607 ,0.91475 ,3.80987 ,37.38249 
88 ,17.2366 ,0.91654 ,3.80645 ,37.34891 
89 ,17.4450 ,0.91852 ,3.77908 ,37.08029 
90 ,17.6530 ,0.92068 ,3.77223 ,37.01313 
91 ,17.8451 ,0.92255 ,3.73801 ,36.67735 
92 ,18.0370 ,0.92445 ,3.74143 ,36.71093 
93 ,18.2292 ,0.92648 ,3.73117 ,36.61019 
94 ,18.4213 ,0.92832 ,3.69352 ,36.24083 
95 ,18.6294 ,0.93043 ,3.67299 ,36.03936 
96 ,18.8213 ,0.93235 ,3.63534 ,35.67000 
97 ,19.0135 ,0.93426 ,3.65930 ,35.90505 
98 ,19.2058 ,0.93619 ,3.61823 ,35.50211 
99 ,19.4137 ,0.93832 ,3.61823 ,35.50211 
100 ,19.6058 ,0.94020 ,3.58059 ,35.13275 
101 ,19.8139 ,0.94222 ,3.58401 ,35.16632 
102 ,20.0055 ,0.94415 ,3.55321 ,34.86412 
103 ,20.1980 ,0.94606 ,3.53952 ,34.72981 
104 ,20.4058 ,0.94815 ,3.50530 ,34.39402 
105 ,20.5657 ,0.94996 ,3.50530 ,34.39402 
106 ,20.7582 ,0.95168 ,3.49846 ,34.32687 
107 ,20.9820 ,0.95393 ,3.46424 ,33.99108 
108 ,21.1582 ,0.95578 ,3.45397 ,33.89035 
109 ,21.3504 ,0.95767 ,3.44370 ,33.78961 
110 ,21.5425 ,0.95952 ,3.41633 ,33.52099 
111 ,21.7186 ,0.96136 ,3.40264 ,33.38667 
112 ,21.9107 ,0.96334 ,3.38553 ,33.21878 
113 ,22.1028 ,0.96516 ,3.35473 ,32.91658 
114 ,22.2789 ,0.96693 ,3.36157 ,32.98374 
115 ,22.4710 ,0.96885 ,3.35130 ,32.88300 
116 ,22.6627 ,0.97073 ,3.31024 ,32.48006 
117 ,22.8552 ,0.97266 ,3.31024 ,32.48006 
118 ,23.0631 ,0.97477 ,3.27602 ,32.14428 
119 ,23.2553 ,0.97662 ,3.26233 ,32.00996 
120 ,23.4633 ,0.97872 ,3.24180 ,31.80849 
121 ,23.6396 ,0.98056 ,3.22468 ,31.64060 
122 ,23.8317 ,0.98252 ,3.20757 ,31.47271 
123 ,23.9914 ,0.98419 ,3.19388 ,31.33840 
124 ,24.1675 ,0.98585 ,3.16993 ,31.10335 
125 ,24.3598 ,0.98770 ,3.16651 ,31.06977 
126 ,24.5518 ,0.98962 ,3.14597 ,30.86830 
127 ,24.7448 ,0.99155 ,3.13229 ,30.73399 
128 ,24.9199 ,0.99343 ,3.12544 ,30.66683 
129 ,25.1282 ,0.99523 ,3.09464 ,30.36463 
130 ,25.3201 ,0.99730 ,3.08438 ,30.26389 
131 ,25.4962 ,0.99911 ,3.06384 ,30.06242 
132 ,25.6882 ,1.00090 ,3.03304 ,29.76022 
133 ,25.8644 ,1.00281 ,3.02620 ,29.69306 
134 ,26.0724 ,1.00482 ,3.01593 ,29.59233 
135 ,26.2805 ,1.00691 ,2.99540 ,29.39086 
136 ,26.4564 ,1.00872 ,2.99198 ,29.35728 
137 ,26.6486 ,1.01057 ,2.94749 ,28.92076 
138 ,26.8410 ,1.01252 ,2.94749 ,28.92076 
139 ,27.0806 ,1.01477 ,2.91327 ,28.58498 
140 ,27.3050 ,1.01704 ,2.89958 ,28.45066 
141 ,27.4968 ,1.01905 ,2.88247 ,28.28277 
142 ,27.6892 ,1.02097 ,2.85509 ,28.01415 
143 ,27.8971 ,1.02304 ,2.85851 ,28.04772 
144 ,28.0889 ,1.02497 ,2.84482 ,27.91341 
145 ,28.2815 ,1.02694 ,2.80718 ,27.54405 
146 ,28.4894 ,1.02898 ,2.79691 ,27.44332 
147 ,28.6657 ,1.03081 ,2.76954 ,27.17469 
148 ,28.8576 ,1.03266 ,2.77980 ,27.27542 
149 ,29.0498 ,1.03457 ,2.74216 ,26.90606 
150 ,29.2414 ,1.03654 ,2.74216 ,26.90606 
151 ,29.4338 ,1.03841 ,2.71478 ,26.63744 
152 ,29.6258 ,1.04032 ,2.69767 ,26.46954 
153 ,29.8021 ,1.04220 ,2.69425 ,26.43597 
154 ,30.0099 ,1.04422 ,2.65318 ,26.03303 
155 ,30.1862 ,1.04602 ,2.63607 ,25.86514 
156 ,30.3942 ,1.04798 ,2.63607 ,25.86514 
157 ,30.5862 ,1.04997 ,2.61554 ,25.66367 
158 ,30.7784 ,1.05183 ,2.59843 ,25.49577 
159 ,30.9705 ,1.05389 ,2.57447 ,25.26073 
160 ,31.1625 ,1.05572 ,2.56421 ,25.15999 
161 ,31.3703 ,1.05778 ,2.54710 ,24.99210 
162 ,31.5628 ,1.05975 ,2.53683 ,24.89136 
163 ,31.7705 ,1.06177 ,2.50603 ,24.58916 
164 ,31.9629 ,1.06370 ,2.49918 ,24.52200 
165 ,32.1549 ,1.06559 ,2.48207 ,24.35411 
166 ,32.3470 ,1.06748 ,2.45812 ,24.11906 
167 ,32.5392 ,1.06945 ,2.45470 ,24.08549 
168 ,32.7470 ,1.07148 ,2.43759 ,23.91759 
169 ,32.9394 ,1.07345 ,2.41705 ,23.71612 
170 ,33.1636 ,1.07575 ,2.41021 ,23.64897 
171 ,33.3555 ,1.07763 ,2.37599 ,23.31318 
172 ,33.5632 ,1.07966 ,2.37941 ,23.34676 
173 ,33.7557 ,1.08164 ,2.34861 ,23.04456 
174 ,33.9796 ,1.08377 ,2.33492 ,22.91024 
175 ,34.1719 ,1.08584 ,2.30412 ,22.60804 
176 ,34.3640 ,1.08773 ,2.30754 ,22.64162 
177 ,34.5561 ,1.08965 ,2.27332 ,22.30584 
178 ,34.7320 ,1.09153 ,2.25279 ,22.10437 
179 ,34.9240 ,1.09331 ,2.26306 ,22.20510 
180 ,35.1323 ,1.09531 ,2.22199 ,21.80216 
181 ,35.3245 ,1.09734 ,2.22541 ,21.83574 
182 ,35.5164 ,1.09922 ,2.19461 ,21.53353 
183 ,35.7080 ,1.10118 ,2.17750 ,21.36564 
184 ,35.9005 ,1.10311 ,2.18092 ,21.39922 
185 ,36.0765 ,1.10484 ,2.15697 ,21.16417 
186 ,36.2846 ,1.10687 ,2.14328 ,21.02986 
187 ,36.4608 ,1.10876 ,2.12959 ,20.89555 
188 ,36.6528 ,1.11061 ,2.09537 ,20.55976 
189 ,36.8444 ,1.11244 ,2.09537 ,20.55976 
190 ,37.0370 ,1.11443 ,2.06457 ,20.25756 
191 ,37.2452 ,1.11658 ,2.06457 ,20.25756 
192 ,37.4372 ,1.11843 ,2.03035 ,19.92178 
193 ,37.6293 ,1.12038 ,2.04061 ,20.02251 
194 ,37.8214 ,1.12229 ,2.00639 ,19.68673 
195 ,38.0290 ,1.12436 ,2.00297 ,19.65315 
196 ,38.2215 ,1.12627 ,1.96875 ,19.31737 
197 ,38.4136 ,1.12821 ,1.96875 ,19.31737 
198 ,38.6055 ,1.13010 ,1.96533 ,19.28379 
199 ,38.7977 ,1.13198 ,1.94479 ,19.08232 
200 ,39.0054 ,1.13415 ,1.93453 ,18.98158 
201 ,39.1818 ,1.13593 ,1.91742 ,18.81369 
202 ,39.3739 ,1.13787 ,1.92084 ,18.84727 
203 ,39.5820 ,1.13974 ,1.90031 ,18.64580 
204 ,39.7902 ,1.14191 ,1.88662 ,18.51149 
205 ,39.9822 ,1.14385 ,1.85582 ,18.20928 
206 ,40.2061 ,1.14603 ,1.85582 ,18.20928 
207 ,40.4144 ,1.14816 ,1.82502 ,17.90708 
208 ,40.5905 ,1.15003 ,1.82502 ,17.90708 
209 ,40.7826 ,1.15189 ,1.79764 ,17.63845 
210 ,40.9744 ,1.15385 ,1.77711 ,17.43698 
211 ,41.1824 ,1.15586 ,1.76684 ,17.33625 
212 ,41.3585 ,1.15766 ,1.74973 ,17.16836 
213 ,41.5509 ,1.15957 ,1.74973 ,17.16836 
214 ,41.7430 ,1.16153 ,1.72235 ,16.89973 
215 ,41.9348 ,1.16342 ,1.72235 ,16.89973 
216 ,42.1270 ,1.16526 ,1.69840 ,16.66468 
217 ,42.3192 ,1.16724 ,1.69155 ,16.59752 
218 ,42.5272 ,1.16932 ,1.67102 ,16.39605 
219 ,42.7193 ,1.17129 ,1.65733 ,16.26174 
220 ,42.9273 ,1.17329 ,1.62995 ,15.99311 
221 ,43.1032 ,1.17515 ,1.61627 ,15.85880 
222 ,43.2792 ,1.17685 ,1.62311 ,15.92596 
223 ,43.4877 ,1.17883 ,1.61627 ,15.85880 
224 ,43.7119 ,1.18101 ,1.59231 ,15.62375 
225 ,43.9039 ,1.18308 ,1.56836 ,15.38871 
226 ,44.0960 ,1.18502 ,1.56836 ,15.38871 
227 ,44.2880 ,1.18690 ,1.55467 ,15.25439 
228 ,44.4800 ,1.18887 ,1.52045 ,14.91861 
229 ,44.6880 ,1.19090 ,1.53071 ,15.01934 
230 ,44.8643 ,1.19273 ,1.50333 ,14.75072 
231 ,45.0723 ,1.19473 ,1.51360 ,14.85145 
232 ,45.2640 ,1.19667 ,1.46911 ,14.41493 
233 ,45.4401 ,1.19858 ,1.47596 ,14.48209 
234 ,45.6321 ,1.20037 ,1.45200 ,14.24704 
235 ,45.8407 ,1.20231 ,1.44858 ,14.21346 
236 ,46.0488 ,1.20455 ,1.42462 ,13.97842 
237 ,46.2566 ,1.20648 ,1.43147 ,14.04557 
238 ,46.4645 ,1.20865 ,1.39725 ,13.70979 
239 ,46.6567 ,1.21053 ,1.40067 ,13.74337 
240 ,46.8492 ,1.21258 ,1.36987 ,13.44116 
241 ,47.0571 ,1.21455 ,1.36303 ,13.37401 
242 ,47.2334 ,1.21645 ,1.35276 ,13.27327 
243 ,47.4251 ,1.21827 ,1.32196 ,12.97107 
244 ,47.6170 ,1.22027 ,1.31512 ,12.90391 
245 ,47.8092 ,1.22216 ,1.31854 ,12.93749 
246 ,48.0015 ,1.22406 ,1.29458 ,12.70244 
247 ,48.1934 ,1.22592 ,1.29800 ,12.73602 
248 ,48.3857 ,1.22790 ,1.26378 ,12.40024 
249 ,48.5776 ,1.22980 ,1.27063 ,12.46739 
250 ,48.7858 ,1.23184 ,1.23641 ,12.13161 
251 ,48.9778 ,1.23382 ,1.23983 ,12.16519 
252 ,49.1701 ,1.23580 ,1.20561 ,11.82941 
253 ,49.3617 ,1.23764 ,1.21245 ,11.89656 
254 ,49.5378 ,1.23946 ,1.20903 ,11.86298 
255 ,49.7463 ,1.24137 ,1.17481 ,11.52720 
256 ,49.9545 ,1.24354 ,1.16112 ,11.39289 
257 ,50.1625 ,1.24566 ,1.15427 ,11.32573 
258 ,50.3545 ,1.24755 ,1.12347 ,11.02353 
259 ,50.5466 ,1.24949 ,1.12005 ,10.98995 
260 ,50.7388 ,1.25137 ,1.12690 ,11.05710 
261 ,50.9143 ,1.25328 ,1.09952 ,10.78848 
262 ,51.0908 ,1.25497 ,1.08241 ,10.62059 
263 ,51.2826 ,1.25684 ,1.08583 ,10.65416 
264 ,51.4591 ,1.25869 ,1.07556 ,10.55343 
265 ,51.6510 ,1.26054 ,1.04134 ,10.21765 
266 ,51.8270 ,1.26232 ,1.04476 ,10.25123 
267 ,52.0192 ,1.26421 ,1.03792 ,10.18407 
268 ,52.1950 ,1.26600 ,1.00370 ,9.84829 
269 ,52.3872 ,1.26787 ,1.00028 ,9.81471 
270 ,52.5794 ,1.26985 ,0.99343 ,9.74755 
271 ,52.7715 ,1.27166 ,0.97290 ,9.54608 
272 ,52.9636 ,1.27363 ,0.96948 ,9.51250 
273 ,53.1554 ,1.27554 ,0.94894 ,9.31103 
274 ,53.3637 ,1.27762 ,0.96263 ,9.44535 
275 ,53.5719 ,1.27972 ,0.92499 ,9.07598 
276 ,53.7800 ,1.28176 ,0.91130 ,8.94167 
277 ,53.9717 ,1.28373 ,0.89077 ,8.74020 
278 ,54.1477 ,1.28549 ,0.89419 ,8.77378 
279 ,54.3400 ,1.28737 ,0.87023 ,8.53873 
280 ,54.5484 ,1.28949 ,0.88050 ,8.63947 
281 ,54.7405 ,1.29144 ,0.87023 ,8.53873 
282 ,54.9485 ,1.29344 ,0.84970 ,8.33726 
283 ,55.1404 ,1.29545 ,0.82917 ,8.13579 
284 ,55.3486 ,1.29746 ,0.82575 ,8.10221 
285 ,55.5406 ,1.29940 ,0.80179 ,7.86717 
286 ,55.7328 ,1.30134 ,0.79495 ,7.80001 
287 ,55.9247 ,1.30322 ,0.78468 ,7.69927 
288 ,56.1170 ,1.30515 ,0.76415 ,7.49780 
289 ,56.3249 ,1.30718 ,0.76757 ,7.53138 
290 ,56.5172 ,1.30924 ,0.73335 ,7.19560 
291 ,56.7251 ,1.31123 ,0.74019 ,7.26276 
292 ,56.9013 ,1.31304 ,0.72650 ,7.12844 
293 ,57.1094 ,1.31493 ,0.71281 ,6.99413 
294 ,57.3014 ,1.31712 ,0.69228 ,6.79266 
295 ,57.4936 ,1.31890 ,0.68544 ,6.72550 
296 ,57.7014 ,1.32100 ,0.66490 ,6.52403 
297 ,57.9098 ,1.32304 ,0.66833 ,6.55761 
298 ,58.1178 ,1.32511 ,0.65121 ,6.38972 
299 ,58.3099 ,1.32705 ,0.65121 ,6.38972 
300 ,58.5020 ,1.32903 ,0.62384 ,6.12109 
301 ,58.6940 ,1.33092 ,0.61357 ,6.02036 
302 ,58.8540 ,1.33269 ,0.62042 ,6.08752 
303 ,59.0461 ,1.33442 ,0.58277 ,5.71815 
304 ,59.2382 ,1.33635 ,0.57935 ,5.68458 
305 ,59.4144 ,1.33821 ,0.56908 ,5.58384 
306 ,59.5903 ,1.33996 ,0.54855 ,5.38237 
307 ,59.7823 ,1.34174 ,0.54855 ,5.38237 
308 ,59.9758 ,1.34376 ,0.54855 ,5.38237 
309 ,60.1827 ,1.34582 ,0.52802 ,5.18090 
310 ,60.3744 ,1.34769 ,0.52117 ,5.11375 
311 ,60.5664 ,1.34964 ,0.49380 ,4.84512 
312 ,60.7588 ,1.35161 ,0.48695 ,4.77796 
313 ,60.9670 ,1.35363 ,0.46642 ,4.57649 
314 ,61.1590 ,1.35556 ,0.47668 ,4.67723 
315 ,61.3670 ,1.35763 ,0.44588 ,4.37502 
316 ,61.5432 ,1.35949 ,0.45615 ,4.47576 
317 ,61.7353 ,1.36128 ,0.45615 ,4.47576 
318 ,61.9112 ,1.36311 ,0.44246 ,4.34144 
319 ,62.1192 ,1.36504 ,0.40140 ,3.93850 
320 ,62.3116 ,1.36713 ,0.41166 ,4.03924 
321 ,62.5036 ,1.36901 ,0.38086 ,3.73703 
322 ,62.6956 ,1.37093 ,0.38771 ,3.80419 
323 ,62.8878 ,1.37287 ,0.36718 ,3.60272 
324 ,63.0798 ,1.37481 ,0.36375 ,3.56914 
325 ,63.2721 ,1.37673 ,0.35349 ,3.46841 
326 ,63.4800 ,1.37879 ,0.33980 ,3.33410 
327 ,63.6722 ,1.38068 ,0.32269 ,3.16620 
328 ,63.8637 ,1.38261 ,0.30558 ,2.99831 
329 ,64.0560 ,1.38449 ,0.29873 ,2.93116 
330 ,64.2322 ,1.38635 ,0.29189 ,2.86400 
331 ,64.4239 ,1.38815 ,0.27820 ,2.72969 
332 ,64.6160 ,1.39014 ,0.27135 ,2.66253 
333 ,64.7921 ,1.39198 ,0.25424 ,2.49464 
334 ,64.9681 ,1.39372 ,0.24740 ,2.42748 
335 ,65.1602 ,1.39552 ,0.24398 ,2.39390 
336 ,65.3524 ,1.39746 ,0.22002 ,2.15885 
337 ,65.5449 ,1.39937 ,0.22002 ,2.15885 
338 ,65.7369 ,1.40141 ,0.21660 ,2.12528 
339 ,65.9290 ,1.40329 ,0.18238 ,1.78949 
340 ,66.1369 ,1.40527 ,0.18922 ,1.85665 
341 ,66.3291 ,1.40730 ,0.17211 ,1.68876 
342 ,66.5053 ,1.40905 ,0.17211 ,1.68876 
343 ,66.6972 ,1.41094 ,0.17211 ,1.68876 
344 ,66.8735 ,1.41274 ,0.14816 ,1.45371 
345 ,67.0651 ,1.41459 ,0.14131 ,1.38655 
346 ,67.2576 ,1.41651 ,0.13105 ,1.28582 
347 ,67.4655 ,1.41857 ,0.11736 ,1.15151 
348 ,67.6417 ,1.42042 ,0.11051 ,1.08435 
349 ,67.8338 ,1.42230 ,0.08314 ,0.81572 
350 ,68.0099 ,1.42408 ,0.07629 ,0.74857 
351 ,68.2175 ,1.42612 ,0.07629 ,0.74857 
352 ,68.4099 ,1.42804 ,0.05918 ,0.58067 
353 ,68.6182 ,1.43008 ,0.05576 ,0.54710 
354 ,68.8102 ,1.43206 ,0.02496 ,0.24489 
355 ,69.0341 ,1.43421 ,0.02838 ,0.27847 
356 ,69.2105 ,1.43613 ,0.01469 ,0.14416 
357 ,69.4184 ,1.43817 ,0.01469 ,0.14416 
358 ,69.6264 ,1.44017 ,0.00785 ,0.07700 
359 ,69.8184 ,1.44216 ,-0.00584 ,-0.05731 
360 ,70.0107 ,1.44406 ,-0.02295 ,-0.22520 
361 ,70.2026 ,1.44594 ,-0.02637 ,-0.25878 
362 ,70.3784 ,1.44785 ,-0.05375 ,-0.52741 
363 ,70.5708 ,1.44958 ,-0.04348 ,-0.42667 
364 ,70.7791 ,1.45168 ,-0.06402 ,-0.62814 
365 ,70.9709 ,1.45371 ,-0.06744 ,-0.66172 
366 ,71.1632 ,1.45559 ,-0.07428 ,-0.72888 
367 ,71.3710 ,1.45761 ,-0.08797 ,-0.86319 
368 ,71.5633 ,1.45957 ,-0.09824 ,-0.96393 
369 ,71.7715 ,1.46162 ,-0.11535 ,-1.13182 
370 ,71.9793 ,1.46365 ,-0.11535 ,-1.13182 
371 ,72.1876 ,1.46585 ,-0.12904 ,-1.26613 
372 ,72.3958 ,1.46785 ,-0.14273 ,-1.40045 
373 ,72.5878 ,1.46978 ,-0.15642 ,-1.53476 
374 ,72.7958 ,1.47188 ,-0.17353 ,-1.70265 
375 ,72.9880 ,1.47378 ,-0.16668 ,-1.63549 
376 ,73.2121 ,1.47604 ,-0.18722 ,-1.83696 
377 ,73.4041 ,1.47801 ,-0.18722 ,-1.83696 
378 ,73.5797 ,1.47983 ,-0.21117 ,-2.07201 
379 ,73.7721 ,1.48161 ,-0.21117 ,-2.07201 
380 ,73.9644 ,1.48354 ,-0.21802 ,-2.13917 
381 ,74.1564 ,1.48547 ,-0.24197 ,-2.37422 
382 ,74.3806 ,1.48760 ,-0.25566 ,-2.50853 
383 ,74.5726 ,1.48961 ,-0.25908 ,-2.54211 
384 ,74.7644 ,1.49152 ,-0.26250 ,-2.57569 
385 ,74.9726 ,1.49366 ,-0.27277 ,-2.67642 
386 ,75.1968 ,1.49590 ,-0.29673 ,-2.91147 
387 ,75.3725 ,1.49777 ,-0.28988 ,-2.84431 
388 ,75.5486 ,1.49942 ,-0.28988 ,-2.84431 
389 ,75.7247 ,1.50128 ,-0.31726 ,-3.11294 
390 ,75.9168 ,1.50310 ,-0.32068 ,-3.14652 
391 ,76.1091 ,1.50496 ,-0.33095 ,-3.24725 
392 ,76.3013 ,1.50695 ,-0.35490 ,-3.48230 
393 ,76.5094 ,1.50895 ,-0.33779 ,-3.31441 
394 ,76.7014 ,1.51096 ,-0.36175 ,-3.54946 
395 ,76.8615 ,1.51267 ,-0.38570 ,-3.78450 
396 ,77.0378 ,1.51439 ,-0.39255 ,-3.85166 
397 ,77.2298 ,1.51622 ,-0.37886 ,-3.71735 
398 ,77.4375 ,1.51825 ,-0.40623 ,-3.98597 
399 ,77.6138 ,1.52016 ,-0.39255 ,-3.85166 
400 ,77.8058 ,1.52195 ,-0.40966 ,-4.01955 
401 ,78.0300 ,1.52402 ,-0.43019 ,-4.22102 
402 ,78.2221 ,1.52612 ,-0.44730 ,-4.38891 
403 ,78.4302 ,1.52815 ,-0.44046 ,-4.32176 
404 ,78.6382 ,1.53024 ,-0.46441 ,-4.55681 
405 ,78.8463 ,1.53239 ,-0.47810 ,-4.69112 
406 ,79.0219 ,1.53421 ,-0.46099 ,-4.52323 
407 ,79.1984 ,1.53591 ,-0.47810 ,-4.69112 
408 ,79.4064 ,1.53794 ,-0.49521 ,-4.85901 
409 ,79.5986 ,1.53988 ,-0.50548 ,-4.95975 
410 ,79.8067 ,1.54195 ,-0.51917 ,-5.09406 
411 ,79.9984 ,1.54395 ,-0.52259 ,-5.12764 
412 ,80.1908 ,1.54578 ,-0.51917 ,-5.09406 
413 ,80.3825 ,1.54782 ,-0.52943 ,-5.19479 
414 ,80.5590 ,1.54953 ,-0.55339 ,-5.42984 
415 ,80.7511 ,1.55144 ,-0.56023 ,-5.49700 
416 ,80.9591 ,1.55345 ,-0.56023 ,-5.49700 
417 ,81.1508 ,1.55536 ,-0.57734 ,-5.66489 
418 ,81.3432 ,1.55737 ,-0.58761 ,-5.76562 
419 ,81.5353 ,1.55931 ,-0.58419 ,-5.73205 
420 ,81.7274 ,1.56113 ,-0.61499 ,-6.03425 
421 ,81.9196 ,1.56308 ,-0.61156 ,-6.00067 
422 ,82.1117 ,1.56507 ,-0.60814 ,-5.96709 
423 ,82.3037 ,1.56692 ,-0.63894 ,-6.26930 
424 ,82.5118 ,1.56887 ,-0.62525 ,-6.13499 
425 ,82.7200 ,1.57111 ,-0.64579 ,-6.33646 
426 ,82.9119 ,1.57299 ,-0.64579 ,-6.33646 
427 ,83.1201 ,1.57512 ,-0.65263 ,-6.40361 
428 ,83.3116 ,1.57699 ,-0.66632 ,-6.53793 
429 ,83.5043 ,1.57887 ,-0.68685 ,-6.73940 
430 ,83.7118 ,1.58101 ,-0.69370 ,-6.80655 
431 ,83.8884 ,1.58285 ,-0.71765 ,-7.04160 
432 ,84.0960 ,1.58482 ,-0.70054 ,-6.87371 
433 ,84.2884 ,1.58672 ,-0.73476 ,-7.20949 
434 ,84.4802 ,1.58866 ,-0.73134 ,-7.17591 
435 ,84.6728 ,1.59066 ,-0.73818 ,-7.24307 
436 ,84.8808 ,1.59260 ,-0.75872 ,-7.44454 
437 ,85.0889 ,1.59476 ,-0.76214 ,-7.47812 
438 ,85.2968 ,1.59681 ,-0.74845 ,-7.34380 
439 ,85.4890 ,1.59873 ,-0.78610 ,-7.71317 
440 ,85.6648 ,1.60053 ,-0.77925 ,-7.64601 
441 ,85.8572 ,1.60244 ,-0.79636 ,-7.81390 
442 ,86.0493 ,1.60440 ,-0.81689 ,-8.01537 
443 ,86.2415 ,1.60628 ,-0.78952 ,-7.74674 
444 ,86.4335 ,1.60821 ,-0.82716 ,-8.11611 
445 ,86.6415 ,1.61029 ,-0.81689 ,-8.01537 
446 ,86.8495 ,1.61236 ,-0.85112 ,-8.35115 
447 ,87.0417 ,1.61427 ,-0.83058 ,-8.14968 
448 ,87.2338 ,1.61623 ,-0.86138 ,-8.45189 
449 ,87.4256 ,1.61812 ,-0.85796 ,-8.41831 
450 ,87.6335 ,1.62023 ,-0.87165 ,-8.55262 
451 ,87.8100 ,1.62203 ,-0.88534 ,-8.68694 
452 ,88.0020 ,1.62386 ,-0.88534 ,-8.68694 
453 ,88.1782 ,1.62569 ,-0.87507 ,-8.58620 
454 ,88.3702 ,1.62762 ,-0.91272 ,-8.95556 
455 ,88.5621 ,1.62947 ,-0.90245 ,-8.85483 
456 ,88.7703 ,1.63149 ,-0.92298 ,-9.05630 
457 ,88.9467 ,1.63340 ,-0.92640 ,-9.08988 
458 ,89.1386 ,1.63525 ,-0.94351 ,-9.25777 
459 ,89.3468 ,1.63732 ,-0.94351 ,-9.25777 
460 ,89.5388 ,1.63923 ,-0.94351 ,-9.25777 
461 ,89.7304 ,1.64118 ,-0.96747 ,-9.49282 
462 ,89.9229 ,1.64307 ,-0.95036 ,-9.32492 
463 ,90.1305 ,1.64519 ,-0.99485 ,-9.76144 
