Data stamp = , 28-04-2022 17:44:16 117

Calibration Values: 
Slope = , 26.54 , g/V 
Offset Voltage at no contact = , -0.501760 , V 

No , Time , Stage Position ,   Mass , Force 
   ,  (s) ,      (mm)      ,   (g)  , (mN)  

1 ,0.0000 ,0.74959 ,5.29510 ,51.95548 
2 ,0.2169 ,0.74968 ,5.28141 ,51.82116 
3 ,0.6493 ,0.75112 ,5.30194 ,52.02263 
4 ,0.8411 ,0.75292 ,5.28825 ,51.88832 
5 ,1.0334 ,0.75468 ,5.30194 ,52.02263 
6 ,1.2419 ,0.75669 ,5.29510 ,51.95548 
7 ,1.4338 ,0.75872 ,5.31905 ,52.19052 
8 ,1.6419 ,0.76071 ,5.28825 ,51.88832 
9 ,1.8178 ,0.76251 ,5.28483 ,51.85474 
10 ,2.0099 ,0.76446 ,5.27456 ,51.75401 
11 ,2.2179 ,0.76644 ,5.25403 ,51.55254 
12 ,2.4103 ,0.76837 ,5.22665 ,51.28391 
13 ,2.6184 ,0.77055 ,5.22323 ,51.25033 
14 ,2.8105 ,0.77243 ,5.19927 ,51.01528 
15 ,3.0184 ,0.77444 ,5.18901 ,50.91455 
16 ,3.2106 ,0.77643 ,5.14452 ,50.47803 
17 ,3.4186 ,0.77857 ,5.14110 ,50.44445 
18 ,3.6267 ,0.78061 ,5.12741 ,50.31014 
19 ,3.8189 ,0.78253 ,5.11030 ,50.14225 
20 ,4.0265 ,0.78462 ,5.06581 ,49.70573 
21 ,4.2190 ,0.78654 ,5.07265 ,49.77289 
22 ,4.4269 ,0.78857 ,5.02474 ,49.30279 
23 ,4.6192 ,0.79048 ,5.03843 ,49.43710 
24 ,4.8272 ,0.79265 ,5.00079 ,49.06774 
25 ,5.0192 ,0.79448 ,4.98710 ,48.93343 
26 ,5.2113 ,0.79655 ,4.94946 ,48.56407 
27 ,5.4033 ,0.79833 ,4.94261 ,48.49691 
28 ,5.5956 ,0.80018 ,4.93919 ,48.46333 
29 ,5.7876 ,0.80224 ,4.90497 ,48.12755 
30 ,5.9952 ,0.80424 ,4.91523 ,48.22828 
31 ,6.2034 ,0.80638 ,4.88101 ,47.89250 
32 ,6.3958 ,0.80830 ,4.87417 ,47.82534 
33 ,6.6039 ,0.81033 ,4.82968 ,47.38883 
34 ,6.7961 ,0.81225 ,4.82626 ,47.35525 
35 ,6.9879 ,0.81421 ,4.77493 ,46.85157 
36 ,7.1961 ,0.81629 ,4.79204 ,47.01946 
37 ,7.3883 ,0.81823 ,4.75097 ,46.61653 
38 ,7.5964 ,0.82025 ,4.75439 ,46.65010 
39 ,7.8044 ,0.82235 ,4.71675 ,46.28074 
40 ,7.9966 ,0.82426 ,4.70648 ,46.18001 
41 ,8.2046 ,0.82635 ,4.68253 ,45.94496 
42 ,8.3803 ,0.82821 ,4.66884 ,45.81065 
43 ,8.5728 ,0.83002 ,4.66199 ,45.74349 
44 ,8.7809 ,0.83213 ,4.63804 ,45.50844 
45 ,8.9730 ,0.83403 ,4.60040 ,45.13908 
46 ,9.1971 ,0.83630 ,4.59697 ,45.10550 
47 ,9.3888 ,0.83823 ,4.56617 ,44.80330 
48 ,9.5812 ,0.84011 ,4.55591 ,44.70256 
49 ,9.7893 ,0.84219 ,4.53537 ,44.50109 
50 ,9.9813 ,0.84410 ,4.52853 ,44.43394 
51 ,10.1734 ,0.84602 ,4.48746 ,44.03100 
52 ,10.3652 ,0.84792 ,4.47378 ,43.89668 
53 ,10.5412 ,0.84976 ,4.47720 ,43.93026 
54 ,10.7497 ,0.85171 ,4.44640 ,43.62806 
55 ,10.9577 ,0.85382 ,4.42586 ,43.42659 
56 ,11.1499 ,0.85577 ,4.40533 ,43.22512 
57 ,11.3580 ,0.85783 ,4.39507 ,43.12438 
58 ,11.5500 ,0.85981 ,4.36084 ,42.78860 
59 ,11.7260 ,0.86163 ,4.36769 ,42.85576 
60 ,11.9182 ,0.86344 ,4.34716 ,42.65429 
61 ,12.1099 ,0.86544 ,4.31636 ,42.35208 
62 ,12.3024 ,0.86735 ,4.31293 ,42.31850 
63 ,12.5104 ,0.86943 ,4.27871 ,41.98272 
64 ,12.7021 ,0.87131 ,4.27871 ,41.98272 
65 ,12.8948 ,0.87327 ,4.24791 ,41.68051 
66 ,13.1026 ,0.87532 ,4.23080 ,41.51262 
67 ,13.2788 ,0.87716 ,4.21711 ,41.37831 
68 ,13.4708 ,0.87901 ,4.18289 ,41.04253 
69 ,13.6629 ,0.88089 ,4.18974 ,41.10968 
70 ,13.8710 ,0.88300 ,4.15209 ,40.74032 
71 ,14.0470 ,0.88475 ,4.13840 ,40.60601 
72 ,14.2552 ,0.88681 ,4.12129 ,40.43812 
73 ,14.4471 ,0.88877 ,4.09391 ,40.16949 
74 ,14.6394 ,0.89067 ,4.09391 ,40.16949 
75 ,14.8312 ,0.89265 ,4.05627 ,39.80013 
76 ,15.0234 ,0.89453 ,4.05285 ,39.76655 
77 ,15.2156 ,0.89641 ,4.02889 ,39.53150 
78 ,15.4077 ,0.89832 ,4.02547 ,39.49793 
79 ,15.6158 ,0.90043 ,3.98441 ,39.09499 
80 ,15.8237 ,0.90250 ,3.99125 ,39.16214 
81 ,16.0155 ,0.90437 ,3.95361 ,38.79278 
82 ,16.2080 ,0.90631 ,3.94334 ,38.69205 
83 ,16.4002 ,0.90829 ,3.92281 ,38.49058 
84 ,16.5922 ,0.91020 ,3.90570 ,38.32268 
85 ,16.8003 ,0.91226 ,3.88174 ,38.08764 
86 ,17.0081 ,0.91425 ,3.86463 ,37.91975 
87 ,17.2163 ,0.91644 ,3.84752 ,37.75185 
88 ,17.4243 ,0.91846 ,3.83041 ,37.58396 
89 ,17.6164 ,0.92040 ,3.79961 ,37.28176 
90 ,17.8086 ,0.92237 ,3.78934 ,37.18102 
91 ,18.0164 ,0.92441 ,3.77908 ,37.08029 
92 ,18.1925 ,0.92628 ,3.75170 ,36.81166 
93 ,18.3688 ,0.92803 ,3.73801 ,36.67735 
94 ,18.5767 ,0.92994 ,3.74143 ,36.71093 
95 ,18.7690 ,0.93196 ,3.69010 ,36.20725 
96 ,18.9607 ,0.93391 ,3.69352 ,36.24083 
97 ,19.1692 ,0.93600 ,3.65930 ,35.90505 
98 ,19.3770 ,0.93810 ,3.64903 ,35.80431 
99 ,19.5694 ,0.94001 ,3.61823 ,35.50211 
100 ,19.7615 ,0.94190 ,3.62508 ,35.56926 
101 ,19.9535 ,0.94380 ,3.58743 ,35.19990 
102 ,20.1454 ,0.94568 ,3.58059 ,35.13275 
103 ,20.3212 ,0.94759 ,3.56006 ,34.93128 
104 ,20.5138 ,0.94945 ,3.53268 ,34.66265 
105 ,20.7219 ,0.95149 ,3.53268 ,34.66265 
106 ,20.9300 ,0.95359 ,3.50188 ,34.36045 
107 ,21.1379 ,0.95560 ,3.49161 ,34.25971 
108 ,21.3302 ,0.95757 ,3.46766 ,34.02466 
109 ,21.5221 ,0.95948 ,3.45055 ,33.85677 
110 ,21.7303 ,0.96161 ,3.43001 ,33.65530 
111 ,21.9224 ,0.96349 ,3.43001 ,33.65530 
112 ,22.1305 ,0.96560 ,3.38895 ,33.25236 
113 ,22.3226 ,0.96748 ,3.38895 ,33.25236 
114 ,22.5142 ,0.96941 ,3.35815 ,32.95016 
115 ,22.7066 ,0.97127 ,3.35473 ,32.91658 
116 ,22.8987 ,0.97318 ,3.32393 ,32.61437 
117 ,23.1065 ,0.97535 ,3.32051 ,32.58080 
118 ,23.2986 ,0.97723 ,3.29997 ,32.37933 
119 ,23.4910 ,0.97916 ,3.26917 ,32.07712 
120 ,23.6831 ,0.98111 ,3.26575 ,32.04354 
121 ,23.8910 ,0.98308 ,3.24180 ,31.80849 
122 ,24.0833 ,0.98506 ,3.23837 ,31.77492 
123 ,24.2913 ,0.98717 ,3.20757 ,31.47271 
124 ,24.4671 ,0.98892 ,3.19731 ,31.37198 
125 ,24.6592 ,0.99083 ,3.16309 ,31.03619 
126 ,24.8515 ,0.99281 ,3.13571 ,30.76757 
127 ,25.0436 ,0.99472 ,3.14255 ,30.83472 
128 ,25.2196 ,0.99649 ,3.12202 ,30.63325 
129 ,25.4114 ,0.99834 ,3.09122 ,30.33105 
130 ,25.6039 ,1.00025 ,3.08438 ,30.26389 
131 ,25.7955 ,1.00213 ,3.05015 ,29.92811 
132 ,25.9880 ,1.00410 ,3.06726 ,30.09600 
133 ,26.1801 ,1.00603 ,3.02620 ,29.69306 
134 ,26.3717 ,1.00793 ,3.00909 ,29.52517 
135 ,26.5638 ,1.00985 ,3.00224 ,29.45801 
136 ,26.7398 ,1.01178 ,2.97144 ,29.15581 
137 ,26.9321 ,1.01358 ,2.95776 ,29.02150 
138 ,27.1726 ,1.01595 ,2.94407 ,28.88718 
139 ,27.3806 ,1.01810 ,2.93038 ,28.75287 
140 ,27.5887 ,1.02014 ,2.91327 ,28.58498 
141 ,27.7807 ,1.02199 ,2.87562 ,28.21562 
142 ,27.9725 ,1.02393 ,2.86536 ,28.11488 
143 ,28.1650 ,1.02584 ,2.85851 ,28.04772 
144 ,28.3570 ,1.02785 ,2.82771 ,27.74552 
145 ,28.5491 ,1.02972 ,2.82771 ,27.74552 
146 ,28.7572 ,1.03179 ,2.78665 ,27.34258 
147 ,28.9493 ,1.03374 ,2.77980 ,27.27542 
148 ,29.1409 ,1.03577 ,2.75585 ,27.04038 
149 ,29.3334 ,1.03756 ,2.73531 ,26.83891 
150 ,29.5253 ,1.03947 ,2.72847 ,26.77175 
151 ,29.7175 ,1.04139 ,2.71136 ,26.60386 
152 ,29.9098 ,1.04332 ,2.71820 ,26.67101 
153 ,30.1173 ,1.04540 ,2.68056 ,26.30165 
154 ,30.3099 ,1.04734 ,2.67372 ,26.23450 
155 ,30.5176 ,1.04935 ,2.64292 ,25.93229 
156 ,30.7259 ,1.05147 ,2.63607 ,25.86514 
157 ,30.9179 ,1.05340 ,2.60185 ,25.52935 
158 ,31.1422 ,1.05553 ,2.61212 ,25.63009 
159 ,31.3343 ,1.05757 ,2.57447 ,25.26073 
160 ,31.5421 ,1.05961 ,2.56078 ,25.12641 
161 ,31.7344 ,1.06152 ,2.53683 ,24.89136 
162 ,31.9261 ,1.06349 ,2.53341 ,24.85779 
163 ,32.1185 ,1.06539 ,2.49918 ,24.52200 
164 ,32.3101 ,1.06727 ,2.50603 ,24.58916 
165 ,32.5027 ,1.06928 ,2.47181 ,24.25338 
166 ,32.7107 ,1.07129 ,2.47181 ,24.25338 
167 ,32.9029 ,1.07318 ,2.43759 ,23.91759 
168 ,33.0950 ,1.07525 ,2.42048 ,23.74970 
169 ,33.2871 ,1.07705 ,2.42732 ,23.81686 
170 ,33.4951 ,1.07915 ,2.38968 ,23.44750 
171 ,33.6871 ,1.08113 ,2.38283 ,23.38034 
172 ,33.8793 ,1.08298 ,2.35888 ,23.14529 
173 ,34.0553 ,1.08487 ,2.34519 ,23.01098 
174 ,34.2474 ,1.08668 ,2.33834 ,22.94382 
175 ,34.4390 ,1.08859 ,2.30070 ,22.57446 
176 ,34.6313 ,1.09057 ,2.28701 ,22.44015 
177 ,34.8398 ,1.09260 ,2.26990 ,22.27226 
178 ,35.0316 ,1.09458 ,2.25621 ,22.13794 
179 ,35.2236 ,1.09642 ,2.25279 ,22.10437 
180 ,35.3999 ,1.09822 ,2.21857 ,21.76858 
181 ,35.5917 ,1.10010 ,2.20830 ,21.66785 
182 ,35.7838 ,1.10199 ,2.20830 ,21.66785 
183 ,35.9764 ,1.10397 ,2.18777 ,21.46638 
184 ,36.2004 ,1.10610 ,2.17408 ,21.33206 
185 ,36.4084 ,1.10830 ,2.16039 ,21.19775 
186 ,36.6003 ,1.11018 ,2.12617 ,20.86197 
187 ,36.8086 ,1.11226 ,2.11932 ,20.79481 
188 ,37.0166 ,1.11442 ,2.08510 ,20.45903 
189 ,37.2087 ,1.11634 ,2.08852 ,20.49261 
190 ,37.4007 ,1.11825 ,2.05773 ,20.19040 
191 ,37.5931 ,1.12012 ,2.05088 ,20.12325 
192 ,37.7848 ,1.12201 ,2.04404 ,20.05609 
193 ,37.9930 ,1.12411 ,2.03719 ,19.98893 
194 ,38.1848 ,1.12605 ,2.02008 ,19.82104 
195 ,38.3931 ,1.12812 ,1.99270 ,19.55241 
196 ,38.6013 ,1.13012 ,1.96875 ,19.31737 
197 ,38.7930 ,1.13221 ,1.98244 ,19.45168 
198 ,38.9855 ,1.13407 ,1.96190 ,19.25021 
199 ,39.2096 ,1.13635 ,1.96533 ,19.28379 
200 ,39.4174 ,1.13835 ,1.90031 ,18.64580 
201 ,39.6098 ,1.14032 ,1.91057 ,18.74654 
202 ,39.8017 ,1.14221 ,1.88319 ,18.47791 
203 ,39.9940 ,1.14414 ,1.89004 ,18.54507 
204 ,40.2019 ,1.14621 ,1.86608 ,18.31002 
205 ,40.3942 ,1.14809 ,1.84555 ,18.10855 
206 ,40.6022 ,1.15017 ,1.82160 ,17.87350 
207 ,40.8102 ,1.15229 ,1.82844 ,17.94066 
208 ,41.0019 ,1.15421 ,1.80106 ,17.67203 
209 ,41.1945 ,1.15616 ,1.77369 ,17.40340 
210 ,41.4024 ,1.15822 ,1.78395 ,17.50414 
211 ,41.6106 ,1.16016 ,1.75657 ,17.23551 
212 ,41.8186 ,1.16236 ,1.73604 ,17.03404 
213 ,42.0108 ,1.16431 ,1.73946 ,17.06762 
214 ,42.2508 ,1.16660 ,1.70866 ,16.76542 
215 ,42.4424 ,1.16873 ,1.69498 ,16.63110 
216 ,42.6345 ,1.17052 ,1.67444 ,16.42963 
217 ,42.8267 ,1.17240 ,1.68813 ,16.56395 
218 ,43.0187 ,1.17429 ,1.65049 ,16.19458 
219 ,43.2108 ,1.17629 ,1.64364 ,16.12743 
220 ,43.4029 ,1.17816 ,1.63338 ,16.02669 
221 ,43.5790 ,1.18008 ,1.60600 ,15.75807 
222 ,43.7711 ,1.18184 ,1.60942 ,15.79164 
223 ,43.9632 ,1.18377 ,1.60258 ,15.72449 
224 ,44.1392 ,1.18566 ,1.57178 ,15.42228 
225 ,44.3312 ,1.18744 ,1.58204 ,15.52302 
226 ,44.5395 ,1.18942 ,1.56836 ,15.38871 
227 ,44.7318 ,1.19152 ,1.54440 ,15.15366 
228 ,44.9239 ,1.19349 ,1.52729 ,14.98577 
229 ,45.1157 ,1.19528 ,1.52045 ,14.91861 
230 ,45.3076 ,1.19719 ,1.50676 ,14.78430 
231 ,45.5002 ,1.19919 ,1.48280 ,14.54925 
232 ,45.7082 ,1.20122 ,1.47938 ,14.51567 
233 ,45.9001 ,1.20321 ,1.44858 ,14.21346 
234 ,46.0925 ,1.20509 ,1.44516 ,14.17989 
235 ,46.3005 ,1.20718 ,1.42462 ,13.97842 
236 ,46.4921 ,1.20909 ,1.41778 ,13.91126 
237 ,46.6846 ,1.21102 ,1.40751 ,13.81053 
238 ,46.8765 ,1.21293 ,1.38698 ,13.60906 
239 ,47.0688 ,1.21479 ,1.38698 ,13.60906 
240 ,47.2608 ,1.21678 ,1.35276 ,13.27327 
241 ,47.4529 ,1.21878 ,1.35618 ,13.30685 
242 ,47.6450 ,1.22059 ,1.34934 ,13.23969 
243 ,47.8530 ,1.22267 ,1.30827 ,12.83675 
244 ,48.0450 ,1.22462 ,1.30143 ,12.76960 
245 ,48.2531 ,1.22671 ,1.28774 ,12.63528 
246 ,48.4610 ,1.22885 ,1.27747 ,12.53455 
247 ,48.6372 ,1.23063 ,1.27063 ,12.46739 
248 ,48.8134 ,1.23232 ,1.25352 ,12.29950 
249 ,49.0055 ,1.23413 ,1.23983 ,12.16519 
250 ,49.1977 ,1.23612 ,1.21587 ,11.93014 
251 ,49.4054 ,1.23816 ,1.20903 ,11.86298 
252 ,49.5979 ,1.24012 ,1.19876 ,11.76225 
253 ,49.7898 ,1.24207 ,1.20903 ,11.86298 
254 ,49.9820 ,1.24397 ,1.17481 ,11.52720 
255 ,50.1740 ,1.24592 ,1.16796 ,11.46004 
256 ,50.3659 ,1.24781 ,1.16112 ,11.39289 
257 ,50.5581 ,1.24966 ,1.13374 ,11.12426 
258 ,50.7659 ,1.25173 ,1.13032 ,11.09068 
259 ,50.9584 ,1.25375 ,1.10294 ,10.82206 
260 ,51.1823 ,1.25592 ,1.11663 ,10.95637 
261 ,51.3743 ,1.25789 ,1.07556 ,10.55343 
262 ,51.5666 ,1.25978 ,1.07214 ,10.51985 
263 ,51.7586 ,1.26175 ,1.05845 ,10.38554 
264 ,51.9183 ,1.26348 ,1.05503 ,10.35196 
265 ,52.1108 ,1.26523 ,1.04819 ,10.28480 
266 ,52.2870 ,1.26702 ,1.03450 ,10.15049 
267 ,52.4947 ,1.26906 ,1.01396 ,9.94902 
268 ,52.6871 ,1.27099 ,1.00370 ,9.84829 
269 ,52.8792 ,1.27296 ,0.97974 ,9.61324 
270 ,53.0712 ,1.27487 ,1.00028 ,9.81471 
271 ,53.2634 ,1.27678 ,0.95921 ,9.41177 
272 ,53.4552 ,1.27868 ,0.95237 ,9.34461 
273 ,53.6475 ,1.28056 ,0.94552 ,9.27745 
274 ,53.8237 ,1.28242 ,0.93183 ,9.14314 
275 ,54.0154 ,1.28430 ,0.90788 ,8.90809 
276 ,54.2077 ,1.28625 ,0.91130 ,8.94167 
277 ,54.4319 ,1.28838 ,0.89077 ,8.74020 
278 ,54.6239 ,1.29048 ,0.86339 ,8.47158 
279 ,54.8158 ,1.29227 ,0.85654 ,8.40442 
280 ,55.0082 ,1.29418 ,0.86681 ,8.50515 
281 ,55.2158 ,1.29628 ,0.83943 ,8.23653 
282 ,55.4083 ,1.29819 ,0.82917 ,8.13579 
283 ,55.6160 ,1.30027 ,0.80863 ,7.93432 
284 ,55.7924 ,1.30208 ,0.80863 ,7.93432 
285 ,56.0004 ,1.30402 ,0.79495 ,7.80001 
286 ,56.2087 ,1.30617 ,0.78810 ,7.73285 
287 ,56.4004 ,1.30813 ,0.76415 ,7.49780 
288 ,56.5929 ,1.31010 ,0.75046 ,7.36349 
289 ,56.7846 ,1.31198 ,0.76072 ,7.46423 
290 ,56.9927 ,1.31403 ,0.74361 ,7.29633 
291 ,57.1851 ,1.31597 ,0.71966 ,7.06129 
292 ,57.3927 ,1.31807 ,0.71281 ,6.99413 
293 ,57.5850 ,1.31995 ,0.69913 ,6.85982 
294 ,57.7613 ,1.32183 ,0.67859 ,6.65835 
295 ,57.9536 ,1.32365 ,0.67859 ,6.65835 
296 ,58.1934 ,1.32591 ,0.66490 ,6.52403 
297 ,58.3853 ,1.32794 ,0.64437 ,6.32256 
298 ,58.5775 ,1.32984 ,0.62384 ,6.12109 
299 ,58.7857 ,1.33197 ,0.64437 ,6.32256 
300 ,58.9778 ,1.33387 ,0.61699 ,6.05394 
301 ,59.1695 ,1.33581 ,0.62042 ,6.08752 
302 ,59.3619 ,1.33774 ,0.58619 ,5.75173 
303 ,59.5536 ,1.33961 ,0.58277 ,5.71815 
304 ,59.7460 ,1.34153 ,0.57935 ,5.68458 
305 ,59.9540 ,1.34363 ,0.56224 ,5.51668 
306 ,60.1460 ,1.34553 ,0.55539 ,5.44953 
307 ,60.3542 ,1.34763 ,0.53486 ,5.24806 
308 ,60.5463 ,1.34954 ,0.53486 ,5.24806 
309 ,60.7543 ,1.35161 ,0.52459 ,5.14732 
310 ,60.9463 ,1.35357 ,0.51091 ,5.01301 
311 ,61.1226 ,1.35538 ,0.48695 ,4.77796 
312 ,61.3148 ,1.35729 ,0.47668 ,4.67723 
313 ,61.5064 ,1.35917 ,0.46300 ,4.54291 
314 ,61.6990 ,1.36104 ,0.44931 ,4.40860 
315 ,61.9070 ,1.36308 ,0.46642 ,4.57649 
316 ,62.1146 ,1.36525 ,0.43220 ,4.24071 
317 ,62.3068 ,1.36714 ,0.43220 ,4.24071 
318 ,62.4831 ,1.36897 ,0.40824 ,4.00566 
319 ,62.6753 ,1.37086 ,0.40140 ,3.93850 
320 ,62.8509 ,1.37273 ,0.39797 ,3.90493 
321 ,63.0434 ,1.37450 ,0.38086 ,3.73703 
322 ,63.2513 ,1.37656 ,0.38429 ,3.77061 
323 ,63.4435 ,1.37861 ,0.35006 ,3.43483 
324 ,63.6355 ,1.38042 ,0.35006 ,3.43483 
325 ,63.8437 ,1.38254 ,0.32269 ,3.16620 
326 ,64.0195 ,1.38444 ,0.31242 ,3.06547 
327 ,64.2117 ,1.38621 ,0.32269 ,3.16620 
328 ,64.4038 ,1.38810 ,0.30215 ,2.96473 
329 ,64.5960 ,1.39003 ,0.30215 ,2.96473 
330 ,64.8041 ,1.39214 ,0.28504 ,2.79684 
331 ,64.9957 ,1.39404 ,0.27820 ,2.72969 
332 ,65.1882 ,1.39602 ,0.27820 ,2.72969 
333 ,65.3962 ,1.39804 ,0.26451 ,2.59537 
334 ,65.5723 ,1.39990 ,0.24055 ,2.36032 
335 ,65.7644 ,1.40173 ,0.23029 ,2.25959 
336 ,65.9565 ,1.40360 ,0.21318 ,2.09170 
337 ,66.1646 ,1.40577 ,0.20976 ,2.05812 
338 ,66.3728 ,1.40780 ,0.20976 ,2.05812 
339 ,66.5647 ,1.40973 ,0.19607 ,1.92381 
340 ,66.7566 ,1.41164 ,0.16869 ,1.65518 
341 ,66.9490 ,1.41354 ,0.16527 ,1.62160 
342 ,67.1568 ,1.41565 ,0.15158 ,1.48729 
343 ,67.3490 ,1.41760 ,0.15158 ,1.48729 
344 ,67.5410 ,1.41956 ,0.13105 ,1.28582 
345 ,67.7173 ,1.42129 ,0.12762 ,1.25224 
346 ,67.9252 ,1.42333 ,0.11051 ,1.08435 
347 ,68.1172 ,1.42523 ,0.09682 ,0.95004 
348 ,68.3090 ,1.42720 ,0.08998 ,0.88288 
349 ,68.5015 ,1.42910 ,0.06945 ,0.68141 
350 ,68.6937 ,1.43100 ,0.07287 ,0.71499 
351 ,68.8858 ,1.43297 ,0.05576 ,0.54710 
352 ,69.0933 ,1.43493 ,0.05576 ,0.54710 
353 ,69.2854 ,1.43693 ,0.02838 ,0.27847 
354 ,69.4775 ,1.43890 ,0.02154 ,0.21131 
355 ,69.7020 ,1.44098 ,0.02496 ,0.24489 
356 ,69.9262 ,1.44334 ,0.00443 ,0.04342 
357 ,70.1182 ,1.44527 ,-0.01269 ,-0.12447 
358 ,70.3262 ,1.44734 ,-0.01953 ,-0.19163 
359 ,70.5019 ,1.44926 ,-0.02295 ,-0.22520 
360 ,70.6945 ,1.45100 ,-0.01269 ,-0.12447 
361 ,70.8704 ,1.45282 ,-0.04691 ,-0.46025 
362 ,71.0787 ,1.45473 ,-0.06060 ,-0.59457 
363 ,71.2867 ,1.45689 ,-0.06744 ,-0.66172 
364 ,71.4789 ,1.45885 ,-0.07771 ,-0.76246 
365 ,71.6707 ,1.46089 ,-0.09482 ,-0.93035 
366 ,71.8630 ,1.46269 ,-0.10166 ,-0.99751 
367 ,72.0551 ,1.46457 ,-0.09482 ,-0.93035 
368 ,72.2631 ,1.46674 ,-0.12219 ,-1.19898 
369 ,72.4551 ,1.46860 ,-0.13246 ,-1.29971 
370 ,72.6469 ,1.47054 ,-0.13246 ,-1.29971 
371 ,72.8393 ,1.47248 ,-0.15642 ,-1.53476 
372 ,73.0313 ,1.47442 ,-0.16668 ,-1.63549 
373 ,73.2235 ,1.47627 ,-0.15984 ,-1.56834 
374 ,73.4155 ,1.47821 ,-0.16668 ,-1.63549 
375 ,73.6076 ,1.48010 ,-0.20433 ,-2.00485 
376 ,73.8154 ,1.48219 ,-0.20090 ,-1.97128 
377 ,74.0078 ,1.48408 ,-0.22144 ,-2.17275 
378 ,74.1999 ,1.48601 ,-0.20433 ,-2.00485 
379 ,74.3922 ,1.48799 ,-0.22828 ,-2.23990 
380 ,74.5837 ,1.48988 ,-0.24197 ,-2.37422 
381 ,74.7760 ,1.49178 ,-0.24197 ,-2.37422 
382 ,74.9842 ,1.49392 ,-0.27619 ,-2.71000 
383 ,75.2082 ,1.49602 ,-0.25566 ,-2.50853 
384 ,75.4006 ,1.49816 ,-0.27619 ,-2.71000 
385 ,75.5925 ,1.49999 ,-0.28304 ,-2.77716 
386 ,75.8005 ,1.50204 ,-0.30015 ,-2.94505 
387 ,75.9927 ,1.50395 ,-0.31384 ,-3.07936 
388 ,76.1847 ,1.50586 ,-0.32410 ,-3.18010 
389 ,76.3767 ,1.50773 ,-0.32410 ,-3.18010 
390 ,76.5689 ,1.50969 ,-0.34806 ,-3.41514 
391 ,76.7610 ,1.51166 ,-0.34121 ,-3.34799 
392 ,76.9691 ,1.51367 ,-0.36517 ,-3.58303 
393 ,77.1771 ,1.51577 ,-0.36517 ,-3.58303 
394 ,77.3852 ,1.51787 ,-0.38570 ,-3.78450 
395 ,77.5773 ,1.51978 ,-0.36859 ,-3.61661 
396 ,77.7693 ,1.52176 ,-0.40966 ,-4.01955 
397 ,77.9614 ,1.52363 ,-0.39939 ,-3.91882 
398 ,78.1212 ,1.52542 ,-0.39939 ,-3.91882 
399 ,78.3134 ,1.52718 ,-0.42335 ,-4.15387 
400 ,78.5217 ,1.52921 ,-0.42335 ,-4.15387 
401 ,78.7138 ,1.53116 ,-0.42677 ,-4.18744 
402 ,78.9218 ,1.53325 ,-0.44730 ,-4.38891 
403 ,79.1138 ,1.53511 ,-0.46441 ,-4.55681 
404 ,79.3055 ,1.53699 ,-0.47810 ,-4.69112 
405 ,79.4982 ,1.53900 ,-0.46441 ,-4.55681 
406 ,79.7060 ,1.54109 ,-0.48837 ,-4.79185 
407 ,79.9141 ,1.54317 ,-0.49863 ,-4.89259 
408 ,80.0904 ,1.54501 ,-0.51232 ,-5.02690 
409 ,80.2981 ,1.54692 ,-0.52601 ,-5.16121 
410 ,80.4744 ,1.54890 ,-0.52943 ,-5.19479 
411 ,80.6665 ,1.55069 ,-0.53970 ,-5.29553 
412 ,80.8746 ,1.55276 ,-0.53628 ,-5.26195 
413 ,81.0666 ,1.55463 ,-0.57392 ,-5.63131 
414 ,81.2748 ,1.55680 ,-0.55681 ,-5.46342 
415 ,81.4824 ,1.55886 ,-0.57392 ,-5.63131 
416 ,81.6749 ,1.56071 ,-0.58419 ,-5.73205 
417 ,81.8668 ,1.56265 ,-0.59788 ,-5.86636 
418 ,82.0749 ,1.56479 ,-0.59103 ,-5.79920 
419 ,82.2671 ,1.56667 ,-0.62525 ,-6.13499 
420 ,82.4748 ,1.56880 ,-0.61156 ,-6.00067 
421 ,82.6512 ,1.57065 ,-0.63210 ,-6.20214 
422 ,82.8434 ,1.57241 ,-0.63552 ,-6.23572 
423 ,83.0354 ,1.57439 ,-0.64236 ,-6.30288 
424 ,83.2273 ,1.57626 ,-0.66632 ,-6.53793 
425 ,83.4194 ,1.57820 ,-0.65947 ,-6.47077 
426 ,83.5953 ,1.57999 ,-0.66290 ,-6.50435 
427 ,83.7876 ,1.58187 ,-0.69370 ,-6.80655 
428 ,83.9960 ,1.58401 ,-0.68343 ,-6.70582 
429 ,84.1877 ,1.58584 ,-0.71765 ,-7.04160 
430 ,84.3957 ,1.58796 ,-0.70054 ,-6.87371 
431 ,84.5882 ,1.58990 ,-0.72107 ,-7.07518 
432 ,84.8122 ,1.59203 ,-0.73134 ,-7.17591 
433 ,85.0043 ,1.59406 ,-0.73818 ,-7.24307 
434 ,85.2123 ,1.59611 ,-0.74503 ,-7.31023 
435 ,85.4045 ,1.59805 ,-0.75530 ,-7.41096 
436 ,85.6126 ,1.60000 ,-0.75872 ,-7.44454 
437 ,85.8045 ,1.60207 ,-0.77925 ,-7.64601 
438 ,85.9967 ,1.60403 ,-0.75530 ,-7.41096 
439 ,86.2049 ,1.60610 ,-0.80321 ,-7.88106 
440 ,86.4128 ,1.60811 ,-0.78952 ,-7.74674 
441 ,86.6050 ,1.61005 ,-0.79978 ,-7.84748 
442 ,86.7970 ,1.61201 ,-0.81005 ,-7.94821 
443 ,87.0046 ,1.61392 ,-0.82374 ,-8.08253 
444 ,87.1805 ,1.61592 ,-0.82032 ,-8.04895 
445 ,87.3730 ,1.61776 ,-0.83401 ,-8.18326 
446 ,87.5973 ,1.61997 ,-0.84427 ,-8.28400 
447 ,87.7892 ,1.62190 ,-0.86823 ,-8.51904 
448 ,87.9811 ,1.62382 ,-0.86481 ,-8.48547 
449 ,88.1897 ,1.62585 ,-0.86823 ,-8.51904 
450 ,88.3816 ,1.62781 ,-0.87849 ,-8.61978 
451 ,88.5738 ,1.62977 ,-0.89218 ,-8.75409 
452 ,88.7658 ,1.63168 ,-0.91272 ,-8.95556 
453 ,88.9740 ,1.63377 ,-0.90929 ,-8.92198 
454 ,89.1818 ,1.63571 ,-0.93325 ,-9.15703 
455 ,89.3901 ,1.63788 ,-0.93667 ,-9.19061 
456 ,89.5819 ,1.63977 ,-0.92640 ,-9.08988 
457 ,89.7742 ,1.64178 ,-0.94694 ,-9.29135 
458 ,89.9661 ,1.64361 ,-0.94009 ,-9.22419 
459 ,90.1738 ,1.64568 ,-0.95720 ,-9.39208 
460 ,90.3662 ,1.64764 ,-0.98458 ,-9.66071 
461 ,90.5745 ,1.64972 ,-0.97089 ,-9.52639 
462 ,90.7665 ,1.65159 ,-0.98458 ,-9.66071 
