Data stamp = , 29-04-2022 04:38:46 634

Calibration Values: 
Slope = , 26.54 , g/V 
Offset Voltage at no contact = , -0.501760 , V 

No , Time , Stage Position ,   Mass , Force 
   ,  (s) ,      (mm)      ,   (g)  , (mN)  

1 ,0.0000 ,0.74939 ,5.28825 ,51.88832 
2 ,0.2241 ,0.74950 ,5.29852 ,51.98905 
3 ,0.8324 ,0.75169 ,5.28825 ,51.88832 
4 ,1.0405 ,0.75456 ,5.28483 ,51.85474 
5 ,1.2326 ,0.75644 ,5.29852 ,51.98905 
6 ,1.4406 ,0.75845 ,5.29167 ,51.92190 
7 ,1.6327 ,0.76039 ,5.30536 ,52.05621 
8 ,1.8248 ,0.76237 ,5.28483 ,51.85474 
9 ,2.0168 ,0.76434 ,5.24718 ,51.48538 
10 ,2.2249 ,0.76638 ,5.24376 ,51.45180 
11 ,2.4329 ,0.76847 ,5.21296 ,51.14960 
12 ,2.6250 ,0.77041 ,5.18901 ,50.91455 
13 ,2.8331 ,0.77243 ,5.17874 ,50.81381 
14 ,3.0251 ,0.77440 ,5.16163 ,50.64592 
15 ,3.2172 ,0.77634 ,5.13425 ,50.37729 
16 ,3.4093 ,0.77826 ,5.12741 ,50.31014 
17 ,3.6014 ,0.78020 ,5.10345 ,50.07509 
18 ,3.7935 ,0.78208 ,5.08634 ,49.90720 
19 ,3.9856 ,0.78399 ,5.08634 ,49.90720 
20 ,4.1777 ,0.78591 ,5.03159 ,49.36995 
21 ,4.3697 ,0.78787 ,5.03843 ,49.43710 
22 ,4.5618 ,0.78973 ,5.01106 ,49.16848 
23 ,4.7539 ,0.79163 ,4.99052 ,48.96701 
24 ,4.9460 ,0.79361 ,4.96657 ,48.73196 
25 ,5.1220 ,0.79549 ,4.95288 ,48.59764 
26 ,5.2982 ,0.79722 ,4.93235 ,48.39618 
27 ,5.4902 ,0.79908 ,4.92208 ,48.29544 
28 ,5.6822 ,0.80091 ,4.89470 ,48.02681 
29 ,5.9063 ,0.80317 ,4.88444 ,47.92608 
30 ,6.0984 ,0.80512 ,4.84337 ,47.52314 
31 ,6.2905 ,0.80705 ,4.83652 ,47.45598 
32 ,6.4825 ,0.80896 ,4.81599 ,47.25451 
33 ,6.6747 ,0.81090 ,4.80230 ,47.12020 
34 ,6.8667 ,0.81282 ,4.78861 ,46.98589 
35 ,7.0588 ,0.81473 ,4.74755 ,46.58295 
36 ,7.2509 ,0.81664 ,4.74755 ,46.58295 
37 ,7.4429 ,0.81858 ,4.71333 ,46.24716 
38 ,7.6510 ,0.82059 ,4.70648 ,46.18001 
39 ,7.8431 ,0.82254 ,4.66884 ,45.81065 
40 ,8.0352 ,0.82447 ,4.66884 ,45.81065 
41 ,8.2272 ,0.82643 ,4.66199 ,45.74349 
42 ,8.4193 ,0.82834 ,4.62093 ,45.34055 
43 ,8.6113 ,0.83022 ,4.61408 ,45.27339 
44 ,8.8035 ,0.83213 ,4.57986 ,44.93761 
45 ,8.9794 ,0.83406 ,4.57302 ,44.87045 
46 ,9.1715 ,0.83585 ,4.56960 ,44.83688 
47 ,9.3637 ,0.83777 ,4.54222 ,44.56825 
48 ,9.5718 ,0.83977 ,4.53195 ,44.46751 
49 ,9.7638 ,0.84177 ,4.49773 ,44.13173 
50 ,9.9559 ,0.84362 ,4.47720 ,43.93026 
51 ,10.1320 ,0.84560 ,4.47378 ,43.89668 
52 ,10.3241 ,0.84738 ,4.46693 ,43.82953 
53 ,10.5161 ,0.84927 ,4.43271 ,43.49374 
54 ,10.6922 ,0.85120 ,4.41902 ,43.35943 
55 ,10.8843 ,0.85292 ,4.39164 ,43.09080 
56 ,11.0603 ,0.85486 ,4.39164 ,43.09080 
57 ,11.2524 ,0.85663 ,4.37111 ,42.88933 
58 ,11.4445 ,0.85852 ,4.33689 ,42.55355 
59 ,11.6205 ,0.86042 ,4.32662 ,42.45282 
60 ,11.8128 ,0.86220 ,4.31293 ,42.31850 
61 ,12.0047 ,0.86418 ,4.28898 ,42.08345 
62 ,12.1808 ,0.86605 ,4.28213 ,42.01630 
63 ,12.3729 ,0.86783 ,4.27187 ,41.91556 
64 ,12.5649 ,0.86975 ,4.23422 ,41.54620 
65 ,12.7410 ,0.87163 ,4.22396 ,41.44547 
66 ,12.9331 ,0.87345 ,4.21027 ,41.31115 
67 ,13.1412 ,0.87548 ,4.17605 ,40.97537 
68 ,13.3332 ,0.87748 ,4.16236 ,40.84106 
69 ,13.5253 ,0.87929 ,4.14183 ,40.63959 
70 ,13.7175 ,0.88130 ,4.13498 ,40.57243 
71 ,13.9095 ,0.88319 ,4.11787 ,40.40454 
72 ,14.1016 ,0.88513 ,4.09734 ,40.20307 
73 ,14.2936 ,0.88701 ,4.08365 ,40.06876 
74 ,14.4857 ,0.88895 ,4.05285 ,39.76655 
75 ,14.6778 ,0.89090 ,4.05285 ,39.76655 
76 ,14.8539 ,0.89277 ,4.01520 ,39.39719 
77 ,15.0619 ,0.89462 ,3.98783 ,39.12856 
78 ,15.2540 ,0.89666 ,4.00152 ,39.26288 
79 ,15.4300 ,0.89851 ,3.96729 ,38.92709 
80 ,15.6222 ,0.90029 ,3.93992 ,38.65847 
81 ,15.8143 ,0.90223 ,3.95018 ,38.75920 
82 ,15.9904 ,0.90414 ,3.91938 ,38.45700 
83 ,16.1826 ,0.90589 ,3.89543 ,38.22195 
84 ,16.3745 ,0.90785 ,3.90227 ,38.28911 
85 ,16.5505 ,0.90973 ,3.86121 ,37.88617 
86 ,16.7427 ,0.91150 ,3.85094 ,37.78543 
87 ,16.9347 ,0.91342 ,3.84410 ,37.71828 
88 ,17.1108 ,0.91536 ,3.81330 ,37.41607 
89 ,17.2868 ,0.91708 ,3.79961 ,37.28176 
90 ,17.4790 ,0.91887 ,3.78592 ,37.14744 
91 ,17.6710 ,0.92084 ,3.76881 ,36.97955 
92 ,17.8631 ,0.92271 ,3.75512 ,36.84524 
93 ,18.0552 ,0.92464 ,3.73801 ,36.67735 
94 ,18.2473 ,0.92661 ,3.72090 ,36.50946 
95 ,18.4394 ,0.92852 ,3.70037 ,36.30799 
96 ,18.6474 ,0.93053 ,3.67983 ,36.10652 
97 ,18.8715 ,0.93262 ,3.67299 ,36.03936 
98 ,19.0636 ,0.93469 ,3.63534 ,35.67000 
99 ,19.2557 ,0.93664 ,3.63534 ,35.67000 
100 ,19.4479 ,0.93859 ,3.59770 ,35.30064 
101 ,19.6399 ,0.94050 ,3.60454 ,35.36779 
102 ,19.8320 ,0.94240 ,3.58401 ,35.16632 
103 ,20.0401 ,0.94444 ,3.56006 ,34.93128 
104 ,20.2321 ,0.94638 ,3.53268 ,34.66265 
105 ,20.4242 ,0.94830 ,3.52926 ,34.62907 
106 ,20.6163 ,0.95028 ,3.51557 ,34.49476 
107 ,20.8083 ,0.95219 ,3.47792 ,34.12540 
108 ,21.0004 ,0.95412 ,3.47450 ,34.09182 
109 ,21.1925 ,0.95603 ,3.45739 ,33.92393 
110 ,21.3847 ,0.95789 ,3.43686 ,33.72246 
111 ,21.5767 ,0.95987 ,3.43686 ,33.72246 
112 ,21.7688 ,0.96178 ,3.40948 ,33.45383 
113 ,21.9768 ,0.96378 ,3.38553 ,33.21878 
114 ,22.1689 ,0.96575 ,3.36842 ,33.05089 
115 ,22.3610 ,0.96769 ,3.33762 ,32.74869 
116 ,22.5530 ,0.96962 ,3.35130 ,32.88300 
117 ,22.7610 ,0.97164 ,3.32051 ,32.58080 
118 ,22.9532 ,0.97359 ,3.29997 ,32.37933 
119 ,23.1453 ,0.97551 ,3.26575 ,32.04354 
120 ,23.3693 ,0.97774 ,3.25206 ,31.90923 
121 ,23.5614 ,0.97967 ,3.24180 ,31.80849 
122 ,23.7535 ,0.98158 ,3.23837 ,31.77492 
123 ,23.9456 ,0.98352 ,3.20757 ,31.47271 
124 ,24.1377 ,0.98547 ,3.20415 ,31.43913 
125 ,24.3298 ,0.98741 ,3.17335 ,31.13693 
126 ,24.5218 ,0.98924 ,3.15282 ,30.93546 
127 ,24.7139 ,0.99120 ,3.14940 ,30.90188 
128 ,24.9060 ,0.99313 ,3.12544 ,30.66683 
129 ,25.0981 ,0.99504 ,3.11175 ,30.53252 
130 ,25.3061 ,0.99704 ,3.08780 ,30.29747 
131 ,25.4982 ,0.99904 ,3.08780 ,30.29747 
132 ,25.6903 ,1.00093 ,3.05015 ,29.92811 
133 ,25.8663 ,1.00286 ,3.05015 ,29.92811 
134 ,26.0584 ,1.00466 ,3.02962 ,29.72664 
135 ,26.2505 ,1.00654 ,2.99882 ,29.42444 
136 ,26.4426 ,1.00848 ,2.99882 ,29.42444 
137 ,26.6347 ,1.01044 ,2.97487 ,29.18939 
138 ,26.8427 ,1.01245 ,2.94749 ,28.92076 
139 ,27.0348 ,1.01446 ,2.94407 ,28.88718 
140 ,27.2268 ,1.01632 ,2.90642 ,28.51782 
141 ,27.4189 ,1.01825 ,2.91327 ,28.58498 
142 ,27.6110 ,1.02016 ,2.87905 ,28.24919 
143 ,27.8031 ,1.02208 ,2.85167 ,27.98057 
144 ,27.9952 ,1.02402 ,2.85167 ,27.98057 
145 ,28.1873 ,1.02594 ,2.83456 ,27.81268 
146 ,28.3794 ,1.02790 ,2.83114 ,27.77910 
147 ,28.5874 ,1.02991 ,2.77980 ,27.27542 
148 ,28.7795 ,1.03188 ,2.79007 ,27.37616 
149 ,28.9717 ,1.03377 ,2.75585 ,27.04038 
150 ,29.1637 ,1.03570 ,2.74216 ,26.90606 
151 ,29.3557 ,1.03760 ,2.73531 ,26.83891 
152 ,29.5479 ,1.03954 ,2.69767 ,26.46954 
153 ,29.7399 ,1.04150 ,2.70452 ,26.53670 
154 ,29.9320 ,1.04335 ,2.67714 ,26.26807 
155 ,30.1241 ,1.04530 ,2.65660 ,26.06661 
156 ,30.3161 ,1.04722 ,2.64634 ,25.96587 
157 ,30.5083 ,1.04911 ,2.62238 ,25.73082 
158 ,30.7003 ,1.05103 ,2.61896 ,25.69724 
159 ,30.8924 ,1.05292 ,2.59843 ,25.49577 
160 ,31.0844 ,1.05489 ,2.57789 ,25.29430 
161 ,31.2765 ,1.05687 ,2.57447 ,25.26073 
162 ,31.4686 ,1.05871 ,2.53683 ,24.89136 
163 ,31.6607 ,1.06063 ,2.53683 ,24.89136 
164 ,31.8528 ,1.06256 ,2.50603 ,24.58916 
165 ,32.0448 ,1.06447 ,2.50261 ,24.55558 
166 ,32.2369 ,1.06642 ,2.49234 ,24.45485 
167 ,32.4290 ,1.06833 ,2.46496 ,24.18622 
168 ,32.6210 ,1.07025 ,2.44785 ,24.01833 
169 ,32.8131 ,1.07213 ,2.43074 ,23.85044 
170 ,33.0052 ,1.07407 ,2.42732 ,23.81686 
171 ,33.1813 ,1.07595 ,2.42048 ,23.74970 
172 ,33.3733 ,1.07773 ,2.38968 ,23.44750 
173 ,33.5656 ,1.07967 ,2.35888 ,23.14529 
174 ,33.7576 ,1.08161 ,2.36572 ,23.21245 
175 ,33.9498 ,1.08355 ,2.33492 ,22.91024 
176 ,34.1417 ,1.08544 ,2.32808 ,22.84309 
177 ,34.3338 ,1.08737 ,2.31781 ,22.74235 
178 ,34.5259 ,1.08935 ,2.28017 ,22.37299 
179 ,34.7019 ,1.09118 ,2.28017 ,22.37299 
180 ,34.8940 ,1.09298 ,2.24937 ,22.07079 
181 ,35.0861 ,1.09493 ,2.24252 ,22.00363 
182 ,35.2782 ,1.09683 ,2.24252 ,22.00363 
183 ,35.4703 ,1.09871 ,2.20488 ,21.63427 
184 ,35.6624 ,1.10062 ,2.20146 ,21.60069 
185 ,36.1266 ,1.10397 ,2.17408 ,21.33206 
186 ,36.3346 ,1.10731 ,2.13986 ,20.99628 
187 ,36.5266 ,1.10932 ,2.12959 ,20.89555 
188 ,36.7187 ,1.11123 ,2.11248 ,20.72766 
189 ,36.9108 ,1.11312 ,2.08168 ,20.42545 
190 ,37.1029 ,1.11506 ,2.08168 ,20.42545 
191 ,37.2949 ,1.11694 ,2.07141 ,20.32472 
192 ,37.4710 ,1.11883 ,2.04404 ,20.05609 
193 ,37.6632 ,1.12064 ,2.04404 ,20.05609 
194 ,37.8552 ,1.12255 ,2.02008 ,19.82104 
195 ,38.0473 ,1.12450 ,2.00982 ,19.72031 
196 ,38.2394 ,1.12641 ,2.00639 ,19.68673 
197 ,38.4313 ,1.12835 ,1.97559 ,19.38452 
198 ,38.6235 ,1.13025 ,1.97902 ,19.41810 
199 ,38.8156 ,1.13219 ,1.95506 ,19.18305 
200 ,39.0397 ,1.13424 ,1.94479 ,19.08232 
201 ,39.2318 ,1.13630 ,1.91057 ,18.74654 
202 ,39.4239 ,1.13825 ,1.90715 ,18.71296 
203 ,39.6159 ,1.14016 ,1.89688 ,18.61222 
204 ,39.8080 ,1.14210 ,1.87293 ,18.37717 
205 ,40.0000 ,1.14402 ,1.89346 ,18.57864 
206 ,40.1921 ,1.14592 ,1.84213 ,18.07497 
207 ,40.3842 ,1.14781 ,1.83871 ,18.04139 
208 ,40.5763 ,1.14981 ,1.82502 ,17.90708 
209 ,40.7683 ,1.15167 ,1.79080 ,17.57129 
210 ,40.9605 ,1.15360 ,1.80106 ,17.67203 
211 ,41.1525 ,1.15551 ,1.77711 ,17.43698 
212 ,41.3447 ,1.15745 ,1.77711 ,17.43698 
213 ,41.5367 ,1.15940 ,1.74631 ,17.13478 
214 ,41.7288 ,1.16131 ,1.73262 ,17.00046 
215 ,41.9209 ,1.16317 ,1.72235 ,16.89973 
216 ,42.1130 ,1.16511 ,1.70866 ,16.76542 
217 ,42.3050 ,1.16702 ,1.70524 ,16.73184 
218 ,42.4971 ,1.16897 ,1.69155 ,16.59752 
219 ,42.6892 ,1.17088 ,1.66075 ,16.29532 
220 ,42.8973 ,1.17291 ,1.66418 ,16.32890 
221 ,43.1214 ,1.17502 ,1.64022 ,16.09385 
222 ,43.3135 ,1.17720 ,1.61969 ,15.89238 
223 ,43.5056 ,1.17903 ,1.60600 ,15.75807 
224 ,43.6977 ,1.18098 ,1.60942 ,15.79164 
225 ,43.8897 ,1.18286 ,1.56836 ,15.38871 
226 ,44.0818 ,1.18480 ,1.57178 ,15.42228 
227 ,44.2899 ,1.18684 ,1.54782 ,15.18724 
228 ,44.4820 ,1.18880 ,1.54782 ,15.18724 
229 ,44.6740 ,1.19071 ,1.53071 ,15.01934 
230 ,44.8662 ,1.19263 ,1.52045 ,14.91861 
231 ,45.0582 ,1.19455 ,1.48965 ,14.61640 
232 ,45.2504 ,1.19649 ,1.47253 ,14.44851 
233 ,45.4423 ,1.19840 ,1.47596 ,14.48209 
234 ,45.6344 ,1.20031 ,1.45542 ,14.28062 
235 ,45.8265 ,1.20224 ,1.43831 ,14.11273 
236 ,46.0186 ,1.20417 ,1.42462 ,13.97842 
237 ,46.2107 ,1.20613 ,1.40409 ,13.77695 
238 ,46.4027 ,1.20804 ,1.40409 ,13.77695 
239 ,46.5949 ,1.20990 ,1.38356 ,13.57548 
240 ,46.8030 ,1.21193 ,1.37671 ,13.50832 
241 ,46.9952 ,1.21393 ,1.35960 ,13.34043 
242 ,47.2191 ,1.21602 ,1.34249 ,13.17254 
243 ,47.3952 ,1.21799 ,1.32880 ,13.03822 
244 ,47.5873 ,1.21986 ,1.30485 ,12.80318 
245 ,47.7793 ,1.22175 ,1.32196 ,12.97107 
246 ,47.9715 ,1.22366 ,1.28774 ,12.63528 
247 ,48.1636 ,1.22557 ,1.28089 ,12.56813 
248 ,48.3556 ,1.22750 ,1.27747 ,12.53455 
249 ,48.5476 ,1.22945 ,1.24325 ,12.19877 
250 ,48.7397 ,1.23134 ,1.23641 ,12.13161 
251 ,48.9319 ,1.23328 ,1.21929 ,11.96372 
252 ,49.1240 ,1.23519 ,1.21929 ,11.96372 
253 ,49.3002 ,1.23701 ,1.18507 ,11.62794 
254 ,49.4922 ,1.23889 ,1.16796 ,11.46004 
255 ,49.6842 ,1.24080 ,1.17823 ,11.56078 
256 ,49.8761 ,1.24271 ,1.16796 ,11.46004 
257 ,50.0684 ,1.24459 ,1.13716 ,11.15784 
258 ,50.2606 ,1.24656 ,1.13374 ,11.12426 
259 ,50.4526 ,1.24848 ,1.11663 ,10.95637 
260 ,50.6449 ,1.25047 ,1.14058 ,11.19142 
261 ,50.8208 ,1.25229 ,1.09267 ,10.72132 
262 ,51.0128 ,1.25407 ,1.08583 ,10.65416 
263 ,51.1887 ,1.25592 ,1.06872 ,10.48627 
264 ,51.3809 ,1.25784 ,1.06530 ,10.45270 
265 ,51.5731 ,1.25965 ,1.04134 ,10.21765 
266 ,51.7651 ,1.26156 ,1.03450 ,10.15049 
267 ,51.9411 ,1.26348 ,1.01054 ,9.91544 
268 ,52.1332 ,1.26526 ,1.00370 ,9.84829 
269 ,52.3252 ,1.26717 ,0.98659 ,9.68039 
270 ,52.5013 ,1.26904 ,0.99001 ,9.71397 
271 ,52.6935 ,1.27084 ,0.95921 ,9.41177 
272 ,52.8854 ,1.27277 ,0.96263 ,9.44535 
273 ,53.0776 ,1.27468 ,0.94894 ,9.31103 
274 ,53.2697 ,1.27663 ,0.92499 ,9.07598 
275 ,53.4618 ,1.27855 ,0.93525 ,9.17672 
276 ,53.6539 ,1.28042 ,0.91130 ,8.94167 
277 ,53.8458 ,1.28240 ,0.90446 ,8.87451 
278 ,54.0382 ,1.28433 ,0.89077 ,8.74020 
279 ,54.2300 ,1.28622 ,0.87023 ,8.53873 
280 ,54.4221 ,1.28813 ,0.88050 ,8.63947 
281 ,54.6141 ,1.29005 ,0.84286 ,8.27011 
282 ,54.8061 ,1.29201 ,0.82917 ,8.13579 
283 ,54.9982 ,1.29392 ,0.83601 ,8.20295 
284 ,55.1905 ,1.29581 ,0.80179 ,7.86717 
285 ,55.3826 ,1.29776 ,0.81206 ,7.96790 
286 ,55.5747 ,1.29962 ,0.78468 ,7.69927 
287 ,55.7508 ,1.30152 ,0.78468 ,7.69927 
288 ,55.9427 ,1.30333 ,0.78810 ,7.73285 
289 ,56.1509 ,1.30537 ,0.75388 ,7.39707 
290 ,56.3431 ,1.30733 ,0.75730 ,7.43065 
291 ,56.5351 ,1.30931 ,0.73677 ,7.22918 
292 ,56.7109 ,1.31116 ,0.70939 ,6.96055 
293 ,56.9032 ,1.31297 ,0.72650 ,7.12844 
294 ,57.0951 ,1.31486 ,0.70939 ,6.96055 
295 ,57.2873 ,1.31687 ,0.67859 ,6.65835 
296 ,57.4633 ,1.31862 ,0.68201 ,6.69193 
297 ,57.6555 ,1.32043 ,0.66833 ,6.55761 
298 ,57.8476 ,1.32237 ,0.64437 ,6.32256 
299 ,58.0397 ,1.32432 ,0.64779 ,6.35614 
300 ,58.2317 ,1.32620 ,0.61357 ,6.02036 
301 ,58.4238 ,1.32815 ,0.61357 ,6.02036 
302 ,58.5997 ,1.33003 ,0.59646 ,5.85247 
303 ,58.7920 ,1.33181 ,0.59646 ,5.85247 
304 ,58.9840 ,1.33375 ,0.59646 ,5.85247 
305 ,59.1761 ,1.33572 ,0.58277 ,5.71815 
306 ,59.3680 ,1.33760 ,0.56566 ,5.55026 
307 ,59.5605 ,1.33951 ,0.55539 ,5.44953 
308 ,59.7685 ,1.34162 ,0.53486 ,5.24806 
309 ,59.9766 ,1.34375 ,0.53486 ,5.24806 
310 ,60.1847 ,1.34570 ,0.51775 ,5.08017 
311 ,60.3766 ,1.34767 ,0.51091 ,5.01301 
312 ,60.5692 ,1.34962 ,0.48011 ,4.71081 
313 ,60.7613 ,1.35155 ,0.48695 ,4.77796 
314 ,60.9533 ,1.35344 ,0.46642 ,4.57649 
315 ,61.1453 ,1.35535 ,0.46300 ,4.54291 
316 ,61.3375 ,1.35729 ,0.44246 ,4.34144 
317 ,61.5293 ,1.35927 ,0.42535 ,4.17355 
318 ,61.7375 ,1.36128 ,0.41509 ,4.07282 
319 ,61.9297 ,1.36315 ,0.41166 ,4.03924 
320 ,62.1217 ,1.36512 ,0.40824 ,4.00566 
321 ,62.3139 ,1.36700 ,0.37060 ,3.63630 
322 ,62.5054 ,1.36894 ,0.37402 ,3.66988 
323 ,62.6979 ,1.37090 ,0.38429 ,3.77061 
324 ,62.9221 ,1.37305 ,0.34664 ,3.40125 
325 ,63.1141 ,1.37501 ,0.34322 ,3.36767 
326 ,63.3383 ,1.37722 ,0.33980 ,3.33410 
327 ,63.5303 ,1.37921 ,0.30900 ,3.03189 
328 ,63.7223 ,1.38108 ,0.31926 ,3.13263 
329 ,63.9145 ,1.38302 ,0.28504 ,2.79684 
330 ,64.1225 ,1.38510 ,0.28504 ,2.79684 
331 ,64.3145 ,1.38700 ,0.25082 ,2.46106 
332 ,64.5067 ,1.38891 ,0.26793 ,2.62895 
333 ,64.6984 ,1.39090 ,0.25082 ,2.46106 
334 ,64.8909 ,1.39286 ,0.23029 ,2.25959 
335 ,65.0990 ,1.39487 ,0.23713 ,2.32675 
336 ,65.2909 ,1.39679 ,0.20976 ,2.05812 
337 ,65.4830 ,1.39869 ,0.21660 ,2.12528 
338 ,65.6752 ,1.40065 ,0.19949 ,1.95738 
339 ,65.8669 ,1.40256 ,0.18922 ,1.85665 
340 ,66.0594 ,1.40444 ,0.18922 ,1.85665 
341 ,66.2514 ,1.40638 ,0.15842 ,1.55445 
342 ,66.4436 ,1.40831 ,0.15842 ,1.55445 
343 ,66.6355 ,1.41021 ,0.14816 ,1.45371 
344 ,66.8438 ,1.41234 ,0.13789 ,1.35298 
345 ,67.0519 ,1.41441 ,0.12078 ,1.18508 
346 ,67.2598 ,1.41648 ,0.12078 ,1.18508 
347 ,67.4520 ,1.41835 ,0.10025 ,0.98361 
348 ,67.6441 ,1.42029 ,0.08656 ,0.84930 
349 ,67.8360 ,1.42225 ,0.09340 ,0.91646 
350 ,68.0277 ,1.42419 ,0.05918 ,0.58067 
351 ,68.2200 ,1.42607 ,0.06945 ,0.68141 
352 ,68.4124 ,1.42801 ,0.03865 ,0.37920 
353 ,68.6044 ,1.42994 ,0.05576 ,0.54710 
354 ,68.7963 ,1.43182 ,0.03865 ,0.37920 
355 ,68.9887 ,1.43374 ,0.00785 ,0.07700 
356 ,69.1644 ,1.43562 ,0.02496 ,0.24489 
357 ,69.3562 ,1.43738 ,0.00100 ,0.00984 
358 ,69.5489 ,1.43934 ,-0.02637 ,-0.25878 
359 ,69.7410 ,1.44130 ,-0.00926 ,-0.09089 
360 ,69.9491 ,1.44327 ,-0.02980 ,-0.29236 
361 ,70.1409 ,1.44531 ,-0.04006 ,-0.39310 
362 ,70.3331 ,1.44721 ,-0.04691 ,-0.46025 
363 ,70.5411 ,1.44929 ,-0.05717 ,-0.56099 
364 ,70.7332 ,1.45120 ,-0.07771 ,-0.76246 
365 ,70.9252 ,1.45313 ,-0.08113 ,-0.79604 
366 ,71.1174 ,1.45508 ,-0.07771 ,-0.76246 
367 ,71.3414 ,1.45735 ,-0.10166 ,-0.99751 
368 ,71.5335 ,1.45917 ,-0.11535 ,-1.13182 
369 ,71.7256 ,1.46111 ,-0.13246 ,-1.29971 
370 ,71.9337 ,1.46318 ,-0.13246 ,-1.29971 
371 ,72.1419 ,1.46528 ,-0.11877 ,-1.16540 
372 ,72.3338 ,1.46716 ,-0.14615 ,-1.43402 
373 ,72.5421 ,1.46926 ,-0.16668 ,-1.63549 
374 ,72.7341 ,1.47118 ,-0.18037 ,-1.76981 
375 ,72.9258 ,1.47308 ,-0.18037 ,-1.76981 
376 ,73.1183 ,1.47497 ,-0.18379 ,-1.80338 
377 ,73.2939 ,1.47687 ,-0.21117 ,-2.07201 
378 ,73.4861 ,1.47869 ,-0.23170 ,-2.27348 
379 ,73.6620 ,1.48060 ,-0.21459 ,-2.10559 
380 ,73.8706 ,1.48245 ,-0.22486 ,-2.20632 
381 ,74.0787 ,1.48461 ,-0.22828 ,-2.23990 
382 ,74.2707 ,1.48656 ,-0.26250 ,-2.57569 
383 ,74.4787 ,1.48865 ,-0.25908 ,-2.54211 
384 ,74.6868 ,1.49072 ,-0.27961 ,-2.74358 
385 ,74.8788 ,1.49267 ,-0.27277 ,-2.67642 
386 ,75.0710 ,1.49455 ,-0.28988 ,-2.84431 
387 ,75.2632 ,1.49641 ,-0.30357 ,-2.97863 
388 ,75.4712 ,1.49853 ,-0.31384 ,-3.07936 
389 ,75.6630 ,1.50044 ,-0.31041 ,-3.04578 
390 ,75.8551 ,1.50243 ,-0.31041 ,-3.04578 
391 ,76.0475 ,1.50431 ,-0.34121 ,-3.34799 
392 ,76.2394 ,1.50627 ,-0.34806 ,-3.41514 
393 ,76.4316 ,1.50813 ,-0.36175 ,-3.54946 
394 ,76.6235 ,1.51009 ,-0.36859 ,-3.61661 
395 ,76.8156 ,1.51198 ,-0.36517 ,-3.58303 
396 ,77.0234 ,1.51408 ,-0.38912 ,-3.81808 
397 ,77.1993 ,1.51599 ,-0.39255 ,-3.85166 
398 ,77.3917 ,1.51780 ,-0.40623 ,-3.98597 
399 ,77.6002 ,1.51985 ,-0.40281 ,-3.95240 
400 ,77.8239 ,1.52204 ,-0.43019 ,-4.22102 
401 ,78.0324 ,1.52412 ,-0.43703 ,-4.28818 
402 ,78.2406 ,1.52627 ,-0.44730 ,-4.38891 
403 ,78.4487 ,1.52823 ,-0.44046 ,-4.32176 
404 ,78.6562 ,1.53039 ,-0.46783 ,-4.59038 
405 ,78.8488 ,1.53227 ,-0.48152 ,-4.72470 
406 ,79.0566 ,1.53433 ,-0.48152 ,-4.72470 
407 ,79.2489 ,1.53631 ,-0.49179 ,-4.82543 
408 ,79.4412 ,1.53825 ,-0.50548 ,-4.95975 
409 ,79.6491 ,1.54033 ,-0.51232 ,-5.02690 
410 ,79.8410 ,1.54228 ,-0.52601 ,-5.16121 
411 ,80.0327 ,1.54412 ,-0.52259 ,-5.12764 
412 ,80.2250 ,1.54607 ,-0.54312 ,-5.32911 
413 ,80.4333 ,1.54816 ,-0.53970 ,-5.29553 
414 ,80.6415 ,1.55026 ,-0.57734 ,-5.66489 
415 ,80.8333 ,1.55214 ,-0.57050 ,-5.59773 
416 ,81.0256 ,1.55406 ,-0.59445 ,-5.83278 
417 ,81.2336 ,1.55617 ,-0.57050 ,-5.59773 
418 ,81.4255 ,1.55811 ,-0.61156 ,-6.00067 
419 ,81.6177 ,1.55993 ,-0.60472 ,-5.93352 
420 ,81.7937 ,1.56186 ,-0.61499 ,-6.03425 
421 ,81.9857 ,1.56371 ,-0.62525 ,-6.13499 
422 ,82.1778 ,1.56563 ,-0.62868 ,-6.16856 
423 ,82.3700 ,1.56756 ,-0.62183 ,-6.10141 
424 ,82.5617 ,1.56960 ,-0.64579 ,-6.33646 
425 ,82.7538 ,1.57135 ,-0.65605 ,-6.43719 
426 ,82.9464 ,1.57332 ,-0.67316 ,-6.60508 
427 ,83.1543 ,1.57536 ,-0.66290 ,-6.50435 
428 ,83.3300 ,1.57722 ,-0.68685 ,-6.73940 
429 ,83.5386 ,1.57915 ,-0.69370 ,-6.80655 
430 ,83.7465 ,1.58126 ,-0.71081 ,-6.97444 
431 ,83.9545 ,1.58321 ,-0.71081 ,-6.97444 
432 ,84.1467 ,1.58535 ,-0.72792 ,-7.14233 
433 ,84.3550 ,1.58738 ,-0.73134 ,-7.17591 
434 ,84.5630 ,1.58948 ,-0.74503 ,-7.31023 
435 ,84.7711 ,1.59153 ,-0.73818 ,-7.24307 
436 ,84.9631 ,1.59347 ,-0.77241 ,-7.57885 
437 ,85.1550 ,1.59538 ,-0.76898 ,-7.54527 
438 ,85.3473 ,1.59731 ,-0.76556 ,-7.51170 
439 ,85.5390 ,1.59920 ,-0.78952 ,-7.74674 
440 ,85.7315 ,1.60111 ,-0.78267 ,-7.67959 
441 ,85.9398 ,1.60325 ,-0.82032 ,-8.04895 
442 ,86.1317 ,1.60512 ,-0.79636 ,-7.81390 
443 ,86.3238 ,1.60703 ,-0.83058 ,-8.14968 
444 ,86.5158 ,1.60895 ,-0.83401 ,-8.18326 
445 ,86.6918 ,1.61086 ,-0.83743 ,-8.21684 
446 ,86.8839 ,1.61268 ,-0.85454 ,-8.38473 
447 ,87.0915 ,1.61471 ,-0.83743 ,-8.21684 
448 ,87.2841 ,1.61660 ,-0.87849 ,-8.61978 
449 ,87.4920 ,1.61876 ,-0.87165 ,-8.55262 
450 ,87.6839 ,1.62060 ,-0.88876 ,-8.72051 
451 ,87.8765 ,1.62260 ,-0.89218 ,-8.75409 
452 ,88.1005 ,1.62471 ,-0.90929 ,-8.92198 
453 ,88.2923 ,1.62675 ,-0.90245 ,-8.85483 
454 ,88.4844 ,1.62860 ,-0.91614 ,-8.98914 
455 ,88.6766 ,1.63054 ,-0.92983 ,-9.12345 
456 ,88.8688 ,1.63246 ,-0.93667 ,-9.19061 
457 ,89.0608 ,1.63440 ,-0.95036 ,-9.32492 
458 ,89.2690 ,1.63651 ,-0.94009 ,-9.22419 
459 ,89.4767 ,1.63856 ,-0.95036 ,-9.32492 
460 ,89.6691 ,1.64044 ,-0.96063 ,-9.42566 
461 ,89.8607 ,1.64252 ,-0.96063 ,-9.42566 
462 ,90.0533 ,1.64437 ,-0.98116 ,-9.62713 
463 ,90.2612 ,1.64643 ,-1.00511 ,-9.86218 
