Data stamp = , 27-04-2022 16:11:05 382

Calibration Values: 
Slope = , 26.54 , g/V 
Offset Voltage at no contact = , -0.501760 , V 

No , Time , Stage Position ,   Mass , Force 
   ,  (s) ,      (mm)      ,   (g)  , (mN)  

1 ,0.0000 ,0.74936 ,5.25061 ,51.51896 
2 ,0.2281 ,0.74946 ,5.26087 ,51.61969 
3 ,0.7086 ,0.75111 ,5.26087 ,51.61969 
4 ,0.9008 ,0.75309 ,5.24376 ,51.45180 
5 ,1.1084 ,0.75516 ,5.26087 ,51.61969 
6 ,1.3006 ,0.75708 ,5.25403 ,51.55254 
7 ,1.4925 ,0.75896 ,5.28141 ,51.82116 
8 ,1.7013 ,0.76095 ,5.25061 ,51.51896 
9 ,1.9573 ,0.76363 ,5.23350 ,51.35107 
10 ,2.1491 ,0.76549 ,5.23350 ,51.35107 
11 ,2.3414 ,0.76752 ,5.20954 ,51.11602 
12 ,2.5330 ,0.76950 ,5.20270 ,51.04886 
13 ,2.7255 ,0.77131 ,5.17874 ,50.81381 
14 ,2.9175 ,0.77322 ,5.16163 ,50.64592 
15 ,3.1096 ,0.77513 ,5.15479 ,50.57876 
16 ,3.3015 ,0.77704 ,5.12399 ,50.27656 
17 ,3.4779 ,0.77887 ,5.11030 ,50.14225 
18 ,3.6698 ,0.78077 ,5.10345 ,50.07509 
19 ,3.8781 ,0.78281 ,5.07950 ,49.84004 
20 ,4.0698 ,0.78475 ,5.06581 ,49.70573 
21 ,4.2622 ,0.78663 ,5.03501 ,49.40352 
22 ,4.4704 ,0.78871 ,5.02474 ,49.30279 
23 ,4.6620 ,0.79069 ,5.00079 ,49.06774 
24 ,4.8543 ,0.79260 ,4.99052 ,48.96701 
25 ,5.0466 ,0.79456 ,4.96657 ,48.73196 
26 ,5.2387 ,0.79644 ,4.94261 ,48.49691 
27 ,5.4307 ,0.79833 ,4.92208 ,48.29544 
28 ,5.6227 ,0.80027 ,4.90155 ,48.09397 
29 ,5.8306 ,0.80250 ,4.89128 ,47.99324 
30 ,6.0230 ,0.80421 ,4.86048 ,47.69103 
31 ,6.2151 ,0.80622 ,4.87075 ,47.79177 
32 ,6.4072 ,0.80813 ,4.83652 ,47.45598 
33 ,6.5991 ,0.81002 ,4.80230 ,47.12020 
34 ,6.7911 ,0.81192 ,4.79546 ,47.05304 
35 ,6.9832 ,0.81394 ,4.77150 ,46.81800 
36 ,7.1755 ,0.81581 ,4.77150 ,46.81800 
37 ,7.3834 ,0.81788 ,4.73044 ,46.41506 
38 ,7.5756 ,0.81977 ,4.73386 ,46.44863 
39 ,7.7677 ,0.82171 ,4.69622 ,46.07927 
40 ,7.9438 ,0.82361 ,4.67911 ,45.91138 
41 ,8.1197 ,0.82530 ,4.66542 ,45.77707 
42 ,8.3119 ,0.82715 ,4.66542 ,45.77707 
43 ,8.5042 ,0.82909 ,4.62777 ,45.40771 
44 ,8.7118 ,0.83114 ,4.61751 ,45.30697 
45 ,8.9043 ,0.83301 ,4.58671 ,45.00477 
46 ,9.1123 ,0.83506 ,4.56960 ,44.83688 
47 ,9.3204 ,0.83719 ,4.55249 ,44.66898 
48 ,9.5445 ,0.83939 ,4.53537 ,44.50109 
49 ,9.7524 ,0.84149 ,4.53537 ,44.50109 
50 ,9.9286 ,0.84337 ,4.50115 ,44.16531 
51 ,10.1366 ,0.84540 ,4.48404 ,43.99742 
52 ,10.3287 ,0.84731 ,4.45666 ,43.72879 
53 ,10.5208 ,0.84922 ,4.43955 ,43.56090 
54 ,10.7290 ,0.85131 ,4.42929 ,43.46016 
55 ,10.9208 ,0.85321 ,4.40533 ,43.22512 
56 ,11.0968 ,0.85510 ,4.40191 ,43.19154 
57 ,11.3052 ,0.85696 ,4.38822 ,43.05723 
58 ,11.4973 ,0.85910 ,4.37453 ,42.92291 
59 ,11.6729 ,0.86088 ,4.34716 ,42.65429 
60 ,11.8652 ,0.86264 ,4.31636 ,42.35208 
61 ,12.0575 ,0.86458 ,4.30951 ,42.28492 
62 ,12.2494 ,0.86643 ,4.28898 ,42.08345 
63 ,12.4256 ,0.86830 ,4.27187 ,41.91556 
64 ,12.6177 ,0.87019 ,4.25476 ,41.74767 
65 ,12.8259 ,0.87222 ,4.22738 ,41.47905 
66 ,13.0019 ,0.87414 ,4.21711 ,41.37831 
67 ,13.1779 ,0.87582 ,4.19316 ,41.14326 
68 ,13.3860 ,0.87774 ,4.18289 ,41.04253 
69 ,13.5781 ,0.87982 ,4.15551 ,40.77390 
70 ,13.7701 ,0.88169 ,4.14867 ,40.70674 
71 ,13.9618 ,0.88359 ,4.11787 ,40.40454 
72 ,14.1380 ,0.88541 ,4.09734 ,40.20307 
73 ,14.3144 ,0.88726 ,4.10076 ,40.23665 
74 ,14.5064 ,0.88909 ,4.08023 ,40.03518 
75 ,14.6985 ,0.89109 ,4.06996 ,39.93444 
76 ,14.8743 ,0.89288 ,4.04258 ,39.66582 
77 ,15.0665 ,0.89471 ,4.02547 ,39.49793 
78 ,15.2584 ,0.89657 ,4.00836 ,39.33003 
79 ,15.4664 ,0.89866 ,3.98441 ,39.09499 
80 ,15.6587 ,0.90057 ,3.96729 ,38.92709 
81 ,15.8830 ,0.90275 ,3.94676 ,38.72562 
82 ,16.0751 ,0.90476 ,3.94334 ,38.69205 
83 ,16.2669 ,0.90667 ,3.91596 ,38.42342 
84 ,16.4753 ,0.90877 ,3.89543 ,38.22195 
85 ,16.6671 ,0.91071 ,3.88858 ,38.15479 
86 ,16.8755 ,0.91277 ,3.88174 ,38.08764 
87 ,17.0674 ,0.91467 ,3.84067 ,37.68470 
88 ,17.2755 ,0.91672 ,3.84067 ,37.68470 
89 ,17.4836 ,0.91881 ,3.79619 ,37.24818 
90 ,17.6915 ,0.92097 ,3.78592 ,37.14744 
91 ,17.8839 ,0.92279 ,3.76539 ,36.94597 
92 ,18.0760 ,0.92478 ,3.75854 ,36.87882 
93 ,18.2678 ,0.92668 ,3.73801 ,36.67735 
94 ,18.4596 ,0.92861 ,3.71063 ,36.40872 
95 ,18.6362 ,0.93042 ,3.69352 ,36.24083 
96 ,18.8282 ,0.93228 ,3.68325 ,36.14010 
97 ,19.0363 ,0.93432 ,3.66957 ,36.00578 
98 ,19.2283 ,0.93628 ,3.64903 ,35.80431 
99 ,19.4203 ,0.93816 ,3.61481 ,35.46853 
100 ,19.6125 ,0.94011 ,3.62508 ,35.56926 
101 ,19.8044 ,0.94206 ,3.57717 ,35.09917 
102 ,19.9805 ,0.94381 ,3.56690 ,34.99843 
103 ,20.1727 ,0.94571 ,3.56690 ,34.99843 
104 ,20.3807 ,0.94778 ,3.53952 ,34.72981 
105 ,20.5728 ,0.94974 ,3.53610 ,34.69623 
106 ,20.7488 ,0.95154 ,3.49504 ,34.29329 
107 ,20.9408 ,0.95339 ,3.48135 ,34.15898 
108 ,21.1331 ,0.95528 ,3.48135 ,34.15898 
109 ,21.3410 ,0.95740 ,3.42659 ,33.62172 
110 ,21.5492 ,0.95944 ,3.43001 ,33.65530 
111 ,21.7413 ,0.96136 ,3.41633 ,33.52099 
112 ,21.9329 ,0.96340 ,3.39579 ,33.31952 
113 ,22.1255 ,0.96522 ,3.36842 ,33.05089 
114 ,22.3175 ,0.96726 ,3.36499 ,33.01731 
115 ,22.5095 ,0.96907 ,3.34104 ,32.78227 
116 ,22.7019 ,0.97107 ,3.31024 ,32.48006 
117 ,22.9097 ,0.97305 ,3.30682 ,32.44648 
118 ,23.0859 ,0.97496 ,3.27602 ,32.14428 
119 ,23.2779 ,0.97672 ,3.28286 ,32.21143 
120 ,23.4381 ,0.97849 ,3.27944 ,32.17786 
121 ,23.6300 ,0.98025 ,3.24522 ,31.84207 
122 ,23.8222 ,0.98232 ,3.23153 ,31.70776 
123 ,24.0143 ,0.98408 ,3.21100 ,31.50629 
124 ,24.2065 ,0.98605 ,3.16993 ,31.10335 
125 ,24.4145 ,0.98814 ,3.18020 ,31.20409 
126 ,24.6066 ,0.99010 ,3.15966 ,31.00262 
127 ,24.7983 ,0.99195 ,3.13913 ,30.80115 
128 ,24.9907 ,0.99388 ,3.13229 ,30.73399 
129 ,25.1823 ,0.99579 ,3.09806 ,30.39821 
130 ,25.3585 ,0.99764 ,3.09806 ,30.39821 
131 ,25.5509 ,0.99946 ,3.08095 ,30.23031 
132 ,25.7430 ,1.00141 ,3.05358 ,29.96169 
133 ,25.9351 ,1.00338 ,3.05015 ,29.92811 
134 ,26.1270 ,1.00525 ,3.01251 ,29.55875 
135 ,26.3191 ,1.00716 ,3.01251 ,29.55875 
136 ,26.5434 ,1.00927 ,2.99198 ,29.35728 
137 ,26.7354 ,1.01127 ,2.99540 ,29.39086 
138 ,26.9274 ,1.01322 ,2.94749 ,28.92076 
139 ,27.1195 ,1.01514 ,2.94064 ,28.85360 
140 ,27.3272 ,1.01724 ,2.92011 ,28.65213 
141 ,27.5198 ,1.01917 ,2.91327 ,28.58498 
142 ,27.7119 ,1.02103 ,2.90300 ,28.48424 
143 ,27.9199 ,1.02316 ,2.86536 ,28.11488 
144 ,28.1119 ,1.02504 ,2.84482 ,27.91341 
145 ,28.3042 ,1.02698 ,2.83114 ,27.77910 
146 ,28.4960 ,1.02895 ,2.82087 ,27.67836 
147 ,28.6883 ,1.03083 ,2.79007 ,27.37616 
148 ,28.8803 ,1.03272 ,2.79349 ,27.40974 
149 ,29.0724 ,1.03466 ,2.78665 ,27.34258 
150 ,29.2643 ,1.03660 ,2.73874 ,26.87248 
151 ,29.4562 ,1.03849 ,2.74900 ,26.97322 
152 ,29.6487 ,1.04048 ,2.71820 ,26.67101 
153 ,29.8568 ,1.04263 ,2.70452 ,26.53670 
154 ,30.0485 ,1.04438 ,2.68056 ,26.30165 
155 ,30.2408 ,1.04631 ,2.67372 ,26.23450 
156 ,30.4330 ,1.04823 ,2.66345 ,26.13376 
157 ,30.6250 ,1.05020 ,2.62238 ,25.73082 
158 ,30.8171 ,1.05209 ,2.62923 ,25.79798 
159 ,31.0091 ,1.05402 ,2.60527 ,25.56293 
160 ,31.2014 ,1.05603 ,2.57447 ,25.26073 
161 ,31.3934 ,1.05789 ,2.57105 ,25.22715 
162 ,31.5854 ,1.05976 ,2.54710 ,24.99210 
163 ,31.7775 ,1.06171 ,2.54710 ,24.99210 
164 ,31.9855 ,1.06380 ,2.51287 ,24.65632 
165 ,32.1777 ,1.06568 ,2.52314 ,24.75705 
166 ,32.3857 ,1.06783 ,2.48207 ,24.35411 
167 ,32.5778 ,1.06971 ,2.47865 ,24.32053 
168 ,32.7699 ,1.07171 ,2.44443 ,23.98475 
169 ,32.9460 ,1.07345 ,2.43416 ,23.88402 
170 ,33.1541 ,1.07544 ,2.43074 ,23.85044 
171 ,33.3461 ,1.07740 ,2.40336 ,23.58181 
172 ,33.5543 ,1.07951 ,2.40679 ,23.61539 
173 ,33.7462 ,1.08142 ,2.37256 ,23.27961 
174 ,33.9384 ,1.08330 ,2.35888 ,23.14529 
175 ,34.1464 ,1.08540 ,2.33150 ,22.87667 
176 ,34.3385 ,1.08731 ,2.32808 ,22.84309 
177 ,34.5146 ,1.08914 ,2.32465 ,22.80951 
178 ,34.7067 ,1.09101 ,2.29043 ,22.47373 
179 ,34.8985 ,1.09296 ,2.29385 ,22.50731 
180 ,35.0910 ,1.09480 ,2.26648 ,22.23868 
181 ,35.2988 ,1.09693 ,2.25963 ,22.17152 
182 ,35.4911 ,1.09888 ,2.23910 ,21.97005 
183 ,35.6825 ,1.10070 ,2.22541 ,21.83574 
184 ,35.8752 ,1.10274 ,2.21515 ,21.73500 
185 ,36.0832 ,1.10474 ,2.17408 ,21.33206 
186 ,36.2755 ,1.10669 ,2.18092 ,21.39922 
187 ,36.4671 ,1.10859 ,2.15012 ,21.09702 
188 ,36.6435 ,1.11044 ,2.12617 ,20.86197 
189 ,36.8356 ,1.11232 ,2.13644 ,20.96270 
190 ,37.0273 ,1.11421 ,2.09537 ,20.55976 
191 ,37.2195 ,1.11615 ,2.09195 ,20.52619 
192 ,37.4279 ,1.11822 ,2.07484 ,20.35829 
193 ,37.6197 ,1.12012 ,2.07826 ,20.39187 
194 ,37.8118 ,1.12203 ,2.04404 ,20.05609 
195 ,38.0039 ,1.12397 ,2.03377 ,19.95535 
196 ,38.1797 ,1.12571 ,2.02693 ,19.88820 
197 ,38.3721 ,1.12757 ,1.99270 ,19.55241 
198 ,38.5483 ,1.12943 ,1.98928 ,19.51884 
199 ,38.7401 ,1.13135 ,1.97559 ,19.38452 
200 ,38.9325 ,1.13321 ,1.95848 ,19.21663 
201 ,39.1405 ,1.13529 ,1.93453 ,18.98158 
202 ,39.3486 ,1.13743 ,1.93453 ,18.98158 
203 ,39.5565 ,1.13947 ,1.93111 ,18.94801 
204 ,39.7328 ,1.14131 ,1.89346 ,18.57864 
205 ,39.9407 ,1.14331 ,1.88662 ,18.51149 
206 ,40.1169 ,1.14516 ,1.87977 ,18.44433 
207 ,40.3086 ,1.14708 ,1.85582 ,18.20928 
208 ,40.5011 ,1.14895 ,1.85924 ,18.24286 
209 ,40.6932 ,1.15086 ,1.83871 ,18.04139 
210 ,40.8852 ,1.15272 ,1.81475 ,17.80634 
211 ,41.0769 ,1.15466 ,1.82160 ,17.87350 
212 ,41.2690 ,1.15657 ,1.77711 ,17.43698 
213 ,41.4611 ,1.15852 ,1.77026 ,17.36983 
214 ,41.6534 ,1.16051 ,1.76342 ,17.30267 
215 ,41.8455 ,1.16240 ,1.74631 ,17.13478 
216 ,42.0377 ,1.16440 ,1.73946 ,17.06762 
217 ,42.2296 ,1.16615 ,1.71893 ,16.86615 
218 ,42.4055 ,1.16806 ,1.71551 ,16.83257 
219 ,42.5981 ,1.16989 ,1.69840 ,16.66468 
220 ,42.8062 ,1.17196 ,1.68129 ,16.49679 
221 ,43.0141 ,1.17406 ,1.67786 ,16.46321 
222 ,43.2065 ,1.17601 ,1.64707 ,16.16101 
223 ,43.4140 ,1.17794 ,1.64707 ,16.16101 
224 ,43.6223 ,1.18010 ,1.62653 ,15.95954 
225 ,43.8303 ,1.18218 ,1.60942 ,15.79164 
226 ,44.0226 ,1.18406 ,1.60258 ,15.72449 
227 ,44.2144 ,1.18604 ,1.57862 ,15.48944 
228 ,44.4067 ,1.18798 ,1.55467 ,15.25439 
229 ,44.6144 ,1.19002 ,1.55467 ,15.25439 
230 ,44.7908 ,1.19190 ,1.54782 ,15.18724 
231 ,44.9991 ,1.19391 ,1.53413 ,15.05292 
232 ,45.2071 ,1.19582 ,1.50333 ,14.75072 
233 ,45.3990 ,1.19789 ,1.50333 ,14.75072 
234 ,45.6072 ,1.19993 ,1.47596 ,14.48209 
235 ,45.7990 ,1.20187 ,1.47253 ,14.44851 
236 ,45.9913 ,1.20387 ,1.45542 ,14.28062 
237 ,46.1834 ,1.20569 ,1.43831 ,14.11273 
238 ,46.4075 ,1.20783 ,1.41778 ,13.91126 
239 ,46.5996 ,1.20986 ,1.42120 ,13.94484 
240 ,46.8076 ,1.21190 ,1.38698 ,13.60906 
241 ,46.9997 ,1.21388 ,1.40067 ,13.74337 
242 ,47.1759 ,1.21570 ,1.38356 ,13.57548 
243 ,47.3680 ,1.21753 ,1.36303 ,13.37401 
244 ,47.5761 ,1.21962 ,1.35618 ,13.30685 
245 ,47.7682 ,1.22155 ,1.33223 ,13.07180 
246 ,47.9763 ,1.22366 ,1.33565 ,13.10538 
247 ,48.1682 ,1.22566 ,1.30485 ,12.80318 
248 ,48.3602 ,1.22744 ,1.29800 ,12.73602 
249 ,48.5525 ,1.22938 ,1.28774 ,12.63528 
250 ,48.7603 ,1.23145 ,1.28089 ,12.56813 
251 ,48.9362 ,1.23335 ,1.24667 ,12.23235 
252 ,49.1287 ,1.23512 ,1.22956 ,12.06445 
253 ,49.3369 ,1.23729 ,1.23298 ,12.09803 
254 ,49.5448 ,1.23936 ,1.20903 ,11.86298 
255 ,49.7368 ,1.24121 ,1.21245 ,11.89656 
256 ,49.9290 ,1.24313 ,1.17823 ,11.56078 
257 ,50.1211 ,1.24512 ,1.16112 ,11.39289 
258 ,50.3291 ,1.24713 ,1.15085 ,11.29215 
259 ,50.5534 ,1.24927 ,1.15427 ,11.32573 
260 ,50.7933 ,1.25157 ,1.12690 ,11.05710 
261 ,50.9854 ,1.25373 ,1.10294 ,10.82206 
262 ,51.1778 ,1.25561 ,1.11321 ,10.92279 
263 ,51.3855 ,1.25774 ,1.08241 ,10.62059 
264 ,51.5777 ,1.25965 ,1.08241 ,10.62059 
265 ,51.7696 ,1.26153 ,1.03792 ,10.18407 
266 ,51.9618 ,1.26345 ,1.05503 ,10.35196 
267 ,52.1694 ,1.26552 ,1.03108 ,10.11691 
268 ,52.3619 ,1.26749 ,1.03792 ,10.18407 
269 ,52.5699 ,1.26947 ,1.02765 ,10.08333 
270 ,52.7462 ,1.27135 ,1.00028 ,9.81471 
271 ,52.9541 ,1.27339 ,0.99001 ,9.71397 
272 ,53.1302 ,1.27524 ,0.96948 ,9.51250 
273 ,53.3064 ,1.27699 ,0.96948 ,9.51250 
274 ,53.4982 ,1.27883 ,0.96263 ,9.44535 
275 ,53.6743 ,1.28067 ,0.94552 ,9.27745 
276 ,53.8827 ,1.28271 ,0.93183 ,9.14314 
277 ,54.0907 ,1.28478 ,0.90446 ,8.87451 
278 ,54.2663 ,1.28664 ,0.91130 ,8.94167 
279 ,54.4584 ,1.28848 ,0.90788 ,8.90809 
280 ,54.6504 ,1.29032 ,0.87708 ,8.60589 
281 ,54.8430 ,1.29223 ,0.85997 ,8.43800 
282 ,55.0511 ,1.29434 ,0.85997 ,8.43800 
283 ,55.2270 ,1.29615 ,0.82575 ,8.10221 
284 ,55.4189 ,1.29801 ,0.83943 ,8.23653 
285 ,55.6112 ,1.29995 ,0.81548 ,8.00148 
286 ,55.8195 ,1.30195 ,0.81206 ,7.96790 
287 ,56.0276 ,1.30413 ,0.80179 ,7.86717 
288 ,56.2197 ,1.30603 ,0.79837 ,7.83359 
289 ,56.4117 ,1.30798 ,0.77441 ,7.59854 
290 ,56.6037 ,1.30988 ,0.75388 ,7.39707 
291 ,56.8117 ,1.31196 ,0.75730 ,7.43065 
292 ,57.0199 ,1.31403 ,0.74361 ,7.29633 
293 ,57.1962 ,1.31588 ,0.73335 ,7.19560 
294 ,57.3882 ,1.31783 ,0.70255 ,6.89340 
295 ,57.5798 ,1.31967 ,0.68886 ,6.75908 
296 ,57.7721 ,1.32158 ,0.69228 ,6.79266 
297 ,57.9803 ,1.32362 ,0.68544 ,6.72550 
298 ,58.1724 ,1.32552 ,0.66148 ,6.49046 
299 ,58.3645 ,1.32748 ,0.63753 ,6.25541 
300 ,58.5567 ,1.32945 ,0.64437 ,6.32256 
301 ,58.7487 ,1.33130 ,0.61357 ,6.02036 
302 ,58.9408 ,1.33323 ,0.62042 ,6.08752 
303 ,59.1329 ,1.33512 ,0.59988 ,5.88605 
304 ,59.3090 ,1.33700 ,0.59988 ,5.88605 
305 ,59.4851 ,1.33871 ,0.57593 ,5.65100 
306 ,59.6774 ,1.34059 ,0.58619 ,5.75173 
307 ,59.8852 ,1.34274 ,0.55197 ,5.41595 
308 ,60.0934 ,1.34473 ,0.55197 ,5.41595 
309 ,60.2849 ,1.34668 ,0.52802 ,5.18090 
310 ,60.4774 ,1.34853 ,0.53828 ,5.28164 
311 ,60.6855 ,1.35064 ,0.50064 ,4.91228 
312 ,60.8616 ,1.35255 ,0.50064 ,4.91228 
313 ,61.0376 ,1.35424 ,0.49037 ,4.81154 
314 ,61.2298 ,1.35607 ,0.47668 ,4.67723 
315 ,61.4059 ,1.35806 ,0.46984 ,4.61007 
316 ,61.5974 ,1.35978 ,0.47326 ,4.64365 
317 ,61.7895 ,1.36174 ,0.45273 ,4.44218 
318 ,61.9815 ,1.36363 ,0.42877 ,4.20713 
319 ,62.1740 ,1.36556 ,0.43220 ,4.24071 
320 ,62.4143 ,1.36793 ,0.41509 ,4.07282 
321 ,62.6065 ,1.36991 ,0.38771 ,3.80419 
322 ,62.7984 ,1.37179 ,0.39113 ,3.83777 
323 ,62.9900 ,1.37376 ,0.38086 ,3.73703 
324 ,63.1825 ,1.37560 ,0.36375 ,3.56914 
325 ,63.3905 ,1.37767 ,0.35349 ,3.46841 
326 ,63.5826 ,1.37962 ,0.33295 ,3.26694 
327 ,63.7907 ,1.38169 ,0.32611 ,3.19978 
328 ,63.9827 ,1.38361 ,0.30900 ,3.03189 
329 ,64.1749 ,1.38558 ,0.32269 ,3.16620 
330 ,64.3670 ,1.38746 ,0.28504 ,2.79684 
331 ,64.5588 ,1.38939 ,0.28847 ,2.83042 
332 ,64.7510 ,1.39132 ,0.28504 ,2.79684 
333 ,64.9273 ,1.39315 ,0.26109 ,2.56179 
334 ,65.1190 ,1.39498 ,0.27135 ,2.66253 
335 ,65.3110 ,1.39694 ,0.25082 ,2.46106 
336 ,65.5034 ,1.39886 ,0.22344 ,2.19243 
337 ,65.6793 ,1.40064 ,0.22002 ,2.15885 
338 ,65.8876 ,1.40268 ,0.20633 ,2.02454 
339 ,66.0797 ,1.40457 ,0.21660 ,2.12528 
340 ,66.2557 ,1.40647 ,0.19264 ,1.89023 
341 ,66.4318 ,1.40814 ,0.18580 ,1.82307 
342 ,66.6398 ,1.41019 ,0.16185 ,1.58802 
343 ,66.8321 ,1.41209 ,0.16527 ,1.62160 
344 ,67.0401 ,1.41418 ,0.14816 ,1.45371 
345 ,67.2318 ,1.41610 ,0.15158 ,1.48729 
346 ,67.4082 ,1.41801 ,0.12420 ,1.21866 
347 ,67.6002 ,1.41983 ,0.11051 ,1.08435 
348 ,67.7923 ,1.42173 ,0.11051 ,1.08435 
349 ,68.0005 ,1.42378 ,0.09340 ,0.91646 
350 ,68.1926 ,1.42575 ,0.10025 ,0.98361 
351 ,68.3842 ,1.42765 ,0.07971 ,0.78214 
352 ,68.5767 ,1.42950 ,0.08656 ,0.84930 
353 ,68.7687 ,1.43152 ,0.05918 ,0.58067 
354 ,68.9609 ,1.43338 ,0.04207 ,0.41278 
355 ,69.1688 ,1.43552 ,0.03522 ,0.34563 
356 ,69.3771 ,1.43756 ,0.02154 ,0.21131 
357 ,69.5691 ,1.43948 ,0.02154 ,0.21131 
358 ,69.7771 ,1.44158 ,0.00443 ,0.04342 
359 ,69.9533 ,1.44342 ,-0.00926 ,-0.09089 
360 ,70.1449 ,1.44523 ,-0.02637 ,-0.25878 
361 ,70.3372 ,1.44716 ,-0.01611 ,-0.15805 
362 ,70.5290 ,1.44904 ,-0.02637 ,-0.25878 
363 ,70.7215 ,1.45098 ,-0.06060 ,-0.59457 
364 ,70.8977 ,1.45286 ,-0.06060 ,-0.59457 
365 ,71.1060 ,1.45487 ,-0.06744 ,-0.66172 
366 ,71.2977 ,1.45677 ,-0.08455 ,-0.82961 
367 ,71.4738 ,1.45853 ,-0.07771 ,-0.76246 
368 ,71.6496 ,1.46035 ,-0.10166 ,-0.99751 
369 ,71.8260 ,1.46212 ,-0.10166 ,-0.99751 
370 ,72.0181 ,1.46397 ,-0.11877 ,-1.16540 
371 ,72.2263 ,1.46602 ,-0.13246 ,-1.29971 
372 ,72.4343 ,1.46808 ,-0.11193 ,-1.09824 
373 ,72.6260 ,1.47009 ,-0.14273 ,-1.40045 
374 ,72.8345 ,1.47204 ,-0.16326 ,-1.60191 
375 ,73.0425 ,1.47419 ,-0.16326 ,-1.60191 
376 ,73.2346 ,1.47615 ,-0.17353 ,-1.70265 
377 ,73.4426 ,1.47817 ,-0.20433 ,-2.00485 
378 ,73.6349 ,1.48010 ,-0.18379 ,-1.80338 
379 ,73.8266 ,1.48219 ,-0.21802 ,-2.13917 
380 ,74.0189 ,1.48394 ,-0.21459 ,-2.10559 
381 ,74.2111 ,1.48589 ,-0.21802 ,-2.13917 
382 ,74.4033 ,1.48779 ,-0.25224 ,-2.47495 
383 ,74.6111 ,1.48986 ,-0.23855 ,-2.34064 
384 ,74.8188 ,1.49197 ,-0.25224 ,-2.47495 
385 ,75.0274 ,1.49399 ,-0.26250 ,-2.57569 
386 ,75.2355 ,1.49614 ,-0.26593 ,-2.60926 
387 ,75.4275 ,1.49805 ,-0.27619 ,-2.71000 
388 ,75.6356 ,1.50016 ,-0.28988 ,-2.84431 
389 ,75.8276 ,1.50203 ,-0.30357 ,-2.97863 
390 ,76.0197 ,1.50394 ,-0.32068 ,-3.14652 
391 ,76.2277 ,1.50602 ,-0.32752 ,-3.21367 
392 ,76.4200 ,1.50796 ,-0.33437 ,-3.28083 
393 ,76.6117 ,1.50993 ,-0.34806 ,-3.41514 
394 ,76.8036 ,1.51184 ,-0.35490 ,-3.48230 
395 ,76.9957 ,1.51373 ,-0.38228 ,-3.75093 
396 ,77.1879 ,1.51567 ,-0.36517 ,-3.58303 
397 ,77.3962 ,1.51771 ,-0.38228 ,-3.75093 
398 ,77.5884 ,1.51962 ,-0.39597 ,-3.88524 
399 ,77.7803 ,1.52153 ,-0.41650 ,-4.08671 
400 ,77.9885 ,1.52363 ,-0.41308 ,-4.05313 
401 ,78.1645 ,1.52549 ,-0.42677 ,-4.18744 
402 ,78.3567 ,1.52731 ,-0.43361 ,-4.25460 
403 ,78.5486 ,1.52921 ,-0.43361 ,-4.25460 
404 ,78.7570 ,1.53134 ,-0.44388 ,-4.35534 
405 ,78.9651 ,1.53329 ,-0.44046 ,-4.32176 
406 ,79.1566 ,1.53542 ,-0.46099 ,-4.52323 
407 ,79.3489 ,1.53720 ,-0.46783 ,-4.59038 
408 ,79.5413 ,1.53921 ,-0.49863 ,-4.89259 
409 ,79.7171 ,1.54104 ,-0.49521 ,-4.85901 
410 ,79.8932 ,1.54275 ,-0.49179 ,-4.82543 
411 ,80.1013 ,1.54464 ,-0.51917 ,-5.09406 
412 ,80.2936 ,1.54674 ,-0.51917 ,-5.09406 
413 ,80.5015 ,1.54877 ,-0.54997 ,-5.39626 
414 ,80.6778 ,1.55055 ,-0.54997 ,-5.39626 
415 ,80.9018 ,1.55273 ,-0.56023 ,-5.49700 
416 ,81.0939 ,1.55470 ,-0.56023 ,-5.49700 
417 ,81.2696 ,1.55654 ,-0.56708 ,-5.56415 
418 ,81.4620 ,1.55832 ,-0.58419 ,-5.73205 
419 ,81.6376 ,1.56024 ,-0.58761 ,-5.76562 
420 ,81.8303 ,1.56206 ,-0.59103 ,-5.79920 
421 ,82.0543 ,1.56416 ,-0.61499 ,-6.03425 
422 ,82.2464 ,1.56622 ,-0.60814 ,-5.96709 
423 ,82.4383 ,1.56816 ,-0.63210 ,-6.20214 
424 ,82.6305 ,1.57012 ,-0.62525 ,-6.13499 
425 ,82.8225 ,1.57199 ,-0.63552 ,-6.23572 
426 ,83.0144 ,1.57384 ,-0.65263 ,-6.40361 
427 ,83.2067 ,1.57579 ,-0.65263 ,-6.40361 
428 ,83.3828 ,1.57759 ,-0.67316 ,-6.60508 
429 ,83.5747 ,1.57952 ,-0.68343 ,-6.70582 
430 ,83.7670 ,1.58154 ,-0.70054 ,-6.87371 
431 ,83.9589 ,1.58328 ,-0.70396 ,-6.90729 
432 ,84.1510 ,1.58521 ,-0.69027 ,-6.77297 
433 ,84.3430 ,1.58719 ,-0.72107 ,-7.07518 
434 ,84.5350 ,1.58911 ,-0.73134 ,-7.17591 
435 ,84.7272 ,1.59104 ,-0.72107 ,-7.07518 
436 ,84.9515 ,1.59314 ,-0.74845 ,-7.34380 
437 ,85.1437 ,1.59522 ,-0.74161 ,-7.27665 
438 ,85.3356 ,1.59707 ,-0.76214 ,-7.47812 
439 ,85.5438 ,1.59906 ,-0.76214 ,-7.47812 
440 ,85.7359 ,1.60110 ,-0.77241 ,-7.57885 
441 ,85.9440 ,1.60312 ,-0.78952 ,-7.74674 
442 ,86.1519 ,1.60521 ,-0.79294 ,-7.78032 
443 ,86.3282 ,1.60713 ,-0.81005 ,-7.94821 
444 ,86.5042 ,1.60882 ,-0.81689 ,-8.01537 
445 ,86.6958 ,1.61069 ,-0.81005 ,-7.94821 
446 ,86.9045 ,1.61283 ,-0.81347 ,-7.98179 
447 ,87.0965 ,1.61478 ,-0.84085 ,-8.25042 
448 ,87.2885 ,1.61658 ,-0.83401 ,-8.18326 
449 ,87.4805 ,1.61853 ,-0.86138 ,-8.45189 
450 ,87.6886 ,1.62054 ,-0.85796 ,-8.41831 
451 ,87.8643 ,1.62249 ,-0.87849 ,-8.61978 
452 ,88.0407 ,1.62417 ,-0.88876 ,-8.72051 
453 ,88.2329 ,1.62612 ,-0.88192 ,-8.65336 
454 ,88.4250 ,1.62800 ,-0.88876 ,-8.72051 
455 ,88.6171 ,1.62990 ,-0.90929 ,-8.92198 
456 ,88.8252 ,1.63200 ,-0.90587 ,-8.88841 
457 ,89.0172 ,1.63389 ,-0.94009 ,-9.22419 
458 ,89.2091 ,1.63583 ,-0.91614 ,-8.98914 
459 ,89.3848 ,1.63765 ,-0.95036 ,-9.32492 
460 ,89.5611 ,1.63934 ,-0.94694 ,-9.29135 
461 ,89.7531 ,1.64128 ,-0.95036 ,-9.32492 
462 ,89.9294 ,1.64304 ,-0.95378 ,-9.35850 
463 ,90.1375 ,1.64514 ,-0.97431 ,-9.55997 
