Data stamp = , 28-04-2022 17:05:46 185

Calibration Values: 
Slope = , 26.54 , g/V 
Offset Voltage at no contact = , -0.501760 , V 

No , Time , Stage Position ,   Mass , Force 
   ,  (s) ,      (mm)      ,   (g)  , (mN)  

1 ,0.0000 ,0.74948 ,5.30536 ,52.05621 
2 ,0.2233 ,0.74955 ,5.27798 ,51.78758 
3 ,0.7676 ,0.75178 ,5.30194 ,52.02263 
4 ,0.9760 ,0.75396 ,5.31221 ,52.12337 
5 ,1.1839 ,0.75603 ,5.28825 ,51.88832 
6 ,1.3921 ,0.75809 ,5.29510 ,51.95548 
7 ,1.6003 ,0.76020 ,5.29167 ,51.92190 
8 ,1.7923 ,0.76214 ,5.27114 ,51.72043 
9 ,2.0003 ,0.76420 ,5.24718 ,51.48538 
10 ,2.1925 ,0.76611 ,5.25403 ,51.55254 
11 ,2.4162 ,0.76826 ,5.23007 ,51.31749 
12 ,2.6086 ,0.77025 ,5.21296 ,51.14960 
13 ,2.8007 ,0.77220 ,5.20612 ,51.08244 
14 ,2.9764 ,0.77399 ,5.19585 ,50.98170 
15 ,3.1528 ,0.77578 ,5.15136 ,50.54519 
16 ,3.3289 ,0.77755 ,5.13768 ,50.41087 
17 ,3.5369 ,0.77963 ,5.12399 ,50.27656 
18 ,3.7291 ,0.78147 ,5.10345 ,50.07509 
19 ,3.9212 ,0.78347 ,5.08634 ,49.90720 
20 ,4.1132 ,0.78532 ,5.08977 ,49.94078 
21 ,4.3050 ,0.78723 ,5.04870 ,49.53784 
22 ,4.5129 ,0.78931 ,5.03501 ,49.40352 
23 ,4.7052 ,0.79123 ,5.00079 ,49.06774 
24 ,4.8975 ,0.79319 ,5.00079 ,49.06774 
25 ,5.0735 ,0.79505 ,4.97683 ,48.83269 
26 ,5.2498 ,0.79673 ,4.96999 ,48.76554 
27 ,5.4253 ,0.79855 ,4.94261 ,48.49691 
28 ,5.6014 ,0.80027 ,4.93235 ,48.39618 
29 ,5.7936 ,0.80215 ,4.92208 ,48.29544 
30 ,6.0020 ,0.80422 ,4.88101 ,47.89250 
31 ,6.1940 ,0.80615 ,4.88444 ,47.92608 
32 ,6.3861 ,0.80810 ,4.86048 ,47.69103 
33 ,6.5781 ,0.80996 ,4.83652 ,47.45598 
34 ,6.7703 ,0.81198 ,4.79888 ,47.08662 
35 ,6.9623 ,0.81381 ,4.78519 ,46.95231 
36 ,7.1547 ,0.81572 ,4.79204 ,47.01946 
37 ,7.3463 ,0.81763 ,4.75439 ,46.65010 
38 ,7.5545 ,0.81967 ,4.75782 ,46.68368 
39 ,7.7305 ,0.82161 ,4.71675 ,46.28074 
40 ,7.9227 ,0.82340 ,4.70306 ,46.14643 
41 ,8.1307 ,0.82555 ,4.69622 ,46.07927 
42 ,8.3229 ,0.82741 ,4.66199 ,45.74349 
43 ,8.5311 ,0.82947 ,4.64488 ,45.57560 
44 ,8.7390 ,0.83159 ,4.62093 ,45.34055 
45 ,8.9312 ,0.83346 ,4.62093 ,45.34055 
46 ,9.1232 ,0.83540 ,4.58328 ,44.97119 
47 ,9.3153 ,0.83732 ,4.56960 ,44.83688 
48 ,9.5234 ,0.83938 ,4.55249 ,44.66898 
49 ,9.7154 ,0.84136 ,4.53880 ,44.53467 
50 ,9.9074 ,0.84324 ,4.52853 ,44.43394 
51 ,10.0997 ,0.84518 ,4.49089 ,44.06457 
52 ,10.3078 ,0.84725 ,4.49089 ,44.06457 
53 ,10.4835 ,0.84916 ,4.44982 ,43.66163 
54 ,10.6599 ,0.85085 ,4.43613 ,43.52732 
55 ,10.8521 ,0.85267 ,4.44982 ,43.66163 
56 ,11.0436 ,0.85470 ,4.40191 ,43.19154 
57 ,11.2362 ,0.85653 ,4.39849 ,43.15796 
58 ,11.4439 ,0.85862 ,4.36769 ,42.85576 
59 ,11.6204 ,0.86041 ,4.36427 ,42.82218 
60 ,11.8284 ,0.86235 ,4.35058 ,42.68786 
61 ,12.0204 ,0.86439 ,4.31978 ,42.38566 
62 ,12.2125 ,0.86625 ,4.32320 ,42.41924 
63 ,12.4045 ,0.86818 ,4.29240 ,42.11703 
64 ,12.5967 ,0.87010 ,4.27529 ,41.94914 
65 ,12.8047 ,0.87216 ,4.25133 ,41.71409 
66 ,12.9969 ,0.87411 ,4.23422 ,41.54620 
67 ,13.2046 ,0.87618 ,4.22738 ,41.47905 
68 ,13.3971 ,0.87816 ,4.19658 ,41.17684 
69 ,13.6050 ,0.88026 ,4.20685 ,41.27758 
70 ,13.8128 ,0.88227 ,4.16578 ,40.87464 
71 ,13.9889 ,0.88417 ,4.14867 ,40.70674 
72 ,14.1811 ,0.88596 ,4.11445 ,40.37096 
73 ,14.3731 ,0.88784 ,4.10760 ,40.30380 
74 ,14.5817 ,0.89000 ,4.09391 ,40.16949 
75 ,14.7895 ,0.89205 ,4.07680 ,40.00160 
76 ,14.9817 ,0.89395 ,4.05285 ,39.76655 
77 ,15.1737 ,0.89589 ,4.04943 ,39.73297 
78 ,15.3655 ,0.89781 ,4.03232 ,39.56508 
79 ,15.5580 ,0.89971 ,3.99467 ,39.19572 
80 ,15.7661 ,0.90176 ,4.00152 ,39.26288 
81 ,15.9582 ,0.90371 ,3.95018 ,38.75920 
82 ,16.1662 ,0.90578 ,3.95361 ,38.79278 
83 ,16.3583 ,0.90772 ,3.92281 ,38.49058 
84 ,16.5504 ,0.90979 ,3.92281 ,38.49058 
85 ,16.7264 ,0.91145 ,3.90570 ,38.32268 
86 ,16.9186 ,0.91329 ,3.87490 ,38.02048 
87 ,17.1107 ,0.91529 ,3.86463 ,37.91975 
88 ,17.3187 ,0.91736 ,3.84410 ,37.71828 
89 ,17.5108 ,0.91925 ,3.83383 ,37.61754 
90 ,17.7029 ,0.92126 ,3.80303 ,37.31534 
91 ,17.9110 ,0.92317 ,3.78934 ,37.18102 
92 ,18.1030 ,0.92521 ,3.77565 ,37.04671 
93 ,18.2951 ,0.92708 ,3.74143 ,36.71093 
94 ,18.4873 ,0.92905 ,3.74143 ,36.71093 
95 ,18.6789 ,0.93094 ,3.70379 ,36.34157 
96 ,18.8878 ,0.93289 ,3.69352 ,36.24083 
97 ,19.0954 ,0.93514 ,3.66272 ,35.93863 
98 ,19.2875 ,0.93705 ,3.67299 ,36.03936 
99 ,19.4636 ,0.93878 ,3.64561 ,35.77073 
100 ,19.6557 ,0.94071 ,3.61823 ,35.50211 
101 ,19.8634 ,0.94276 ,3.61481 ,35.46853 
102 ,20.0559 ,0.94469 ,3.57717 ,35.09917 
103 ,20.2480 ,0.94661 ,3.57717 ,35.09917 
104 ,20.4239 ,0.94849 ,3.55321 ,34.86412 
105 ,20.6000 ,0.95017 ,3.54637 ,34.79696 
106 ,20.8238 ,0.95234 ,3.53268 ,34.66265 
107 ,21.0161 ,0.95431 ,3.49504 ,34.29329 
108 ,21.2081 ,0.95619 ,3.49504 ,34.29329 
109 ,21.4005 ,0.95821 ,3.45739 ,33.92393 
110 ,21.5925 ,0.96003 ,3.44370 ,33.78961 
111 ,21.7843 ,0.96199 ,3.44028 ,33.75604 
112 ,21.9605 ,0.96382 ,3.41633 ,33.52099 
113 ,22.1367 ,0.96551 ,3.39579 ,33.31952 
114 ,22.3285 ,0.96738 ,3.37526 ,33.11805 
115 ,22.5209 ,0.96935 ,3.35815 ,32.95016 
116 ,22.7131 ,0.97123 ,3.34104 ,32.78227 
117 ,22.9212 ,0.97334 ,3.34104 ,32.78227 
118 ,23.1133 ,0.97525 ,3.29655 ,32.34575 
119 ,23.3213 ,0.97735 ,3.29313 ,32.31217 
120 ,23.5134 ,0.97924 ,3.27602 ,32.14428 
121 ,23.7054 ,0.98115 ,3.25891 ,31.97639 
122 ,23.9294 ,0.98334 ,3.21784 ,31.57345 
123 ,24.1054 ,0.98531 ,3.23495 ,31.74134 
124 ,24.2976 ,0.98707 ,3.19731 ,31.37198 
125 ,24.4738 ,0.98891 ,3.17335 ,31.13693 
126 ,24.6658 ,0.99074 ,3.18362 ,31.23766 
127 ,24.8577 ,0.99276 ,3.14940 ,30.90188 
128 ,25.0820 ,0.99493 ,3.14597 ,30.86830 
129 ,25.2901 ,0.99703 ,3.11175 ,30.53252 
130 ,25.4980 ,0.99908 ,3.08780 ,30.29747 
131 ,25.7063 ,1.00114 ,3.09806 ,30.39821 
132 ,25.9143 ,1.00322 ,3.05015 ,29.92811 
133 ,26.1063 ,1.00516 ,3.03989 ,29.82737 
134 ,26.2824 ,1.00700 ,3.02278 ,29.65948 
135 ,26.4585 ,1.00876 ,3.02962 ,29.72664 
136 ,26.6502 ,1.01060 ,2.99198 ,29.35728 
137 ,26.8428 ,1.01251 ,2.99540 ,29.39086 
138 ,27.0347 ,1.01446 ,2.95433 ,28.98792 
139 ,27.2109 ,1.01628 ,2.93380 ,28.78645 
140 ,27.4027 ,1.01812 ,2.93038 ,28.75287 
141 ,27.6111 ,1.02020 ,2.89958 ,28.45066 
142 ,27.8029 ,1.02218 ,2.89958 ,28.45066 
143 ,27.9952 ,1.02404 ,2.85851 ,28.04772 
144 ,28.1873 ,1.02596 ,2.86878 ,28.14846 
145 ,28.3630 ,1.02785 ,2.85167 ,27.98057 
146 ,28.5553 ,1.02970 ,2.84140 ,27.87983 
147 ,28.7476 ,1.03160 ,2.80376 ,27.51047 
148 ,28.9555 ,1.03361 ,2.79691 ,27.44332 
149 ,29.1637 ,1.03574 ,2.77980 ,27.27542 
150 ,29.3556 ,1.03762 ,2.75585 ,27.04038 
151 ,29.5478 ,1.03957 ,2.71820 ,26.67101 
152 ,29.7398 ,1.04150 ,2.73874 ,26.87248 
153 ,29.9320 ,1.04338 ,2.69425 ,26.43597 
154 ,30.1396 ,1.04550 ,2.69083 ,26.40239 
155 ,30.3322 ,1.04741 ,2.67372 ,26.23450 
156 ,30.5559 ,1.04959 ,2.66345 ,26.13376 
157 ,30.7484 ,1.05163 ,2.61896 ,25.69724 
158 ,30.9563 ,1.05362 ,2.62581 ,25.76440 
159 ,31.1324 ,1.05547 ,2.59843 ,25.49577 
160 ,31.3406 ,1.05752 ,2.59158 ,25.42862 
161 ,31.5485 ,1.05953 ,2.56763 ,25.19357 
162 ,31.7407 ,1.06147 ,2.55736 ,25.09283 
163 ,31.9487 ,1.06352 ,2.52314 ,24.75705 
164 ,32.1408 ,1.06547 ,2.51972 ,24.72347 
165 ,32.3330 ,1.06738 ,2.49576 ,24.48842 
166 ,32.5411 ,1.06950 ,2.50261 ,24.55558 
167 ,32.7487 ,1.07158 ,2.46496 ,24.18622 
168 ,32.9248 ,1.07342 ,2.45470 ,24.08549 
169 ,33.1012 ,1.07518 ,2.45127 ,24.05191 
170 ,33.3094 ,1.07712 ,2.40679 ,23.61539 
171 ,33.5015 ,1.07910 ,2.41705 ,23.71612 
172 ,33.7094 ,1.08111 ,2.37941 ,23.34676 
173 ,33.9013 ,1.08310 ,2.38283 ,23.38034 
174 ,34.1098 ,1.08509 ,2.36572 ,23.21245 
175 ,34.3338 ,1.08741 ,2.33834 ,22.94382 
176 ,34.5256 ,1.08938 ,2.30754 ,22.64162 
177 ,34.7179 ,1.09123 ,2.30070 ,22.57446 
178 ,34.8936 ,1.09311 ,2.29043 ,22.47373 
179 ,35.0862 ,1.09495 ,2.25963 ,22.17152 
180 ,35.2783 ,1.09685 ,2.26990 ,22.27226 
181 ,35.4703 ,1.09875 ,2.23226 ,21.90290 
182 ,35.6622 ,1.10067 ,2.21857 ,21.76858 
183 ,35.8544 ,1.10258 ,2.22199 ,21.80216 
184 ,36.0299 ,1.10449 ,2.18092 ,21.39922 
185 ,36.2225 ,1.10624 ,2.17750 ,21.36564 
186 ,36.4305 ,1.10838 ,2.16039 ,21.19775 
187 ,36.6227 ,1.11025 ,2.13986 ,20.99628 
188 ,36.8148 ,1.11217 ,2.14670 ,21.06344 
189 ,37.0067 ,1.11407 ,2.10564 ,20.66050 
190 ,37.1829 ,1.11599 ,2.10221 ,20.62692 
191 ,37.3750 ,1.11787 ,2.09537 ,20.55976 
192 ,37.5505 ,1.11967 ,2.06799 ,20.29114 
193 ,37.7426 ,1.12152 ,2.05088 ,20.12325 
194 ,37.9187 ,1.12338 ,2.05430 ,20.15682 
195 ,38.1273 ,1.12526 ,2.04746 ,20.08967 
196 ,38.3672 ,1.12780 ,2.02008 ,19.82104 
197 ,38.6071 ,1.13006 ,2.00639 ,19.68673 
198 ,38.7995 ,1.13204 ,1.98928 ,19.51884 
199 ,38.9913 ,1.13398 ,1.98244 ,19.45168 
200 ,39.1835 ,1.13602 ,1.96875 ,19.31737 
201 ,39.3757 ,1.13781 ,1.95506 ,19.18305 
202 ,39.5679 ,1.13978 ,1.93453 ,18.98158 
203 ,39.7599 ,1.14167 ,1.92084 ,18.84727 
204 ,39.9680 ,1.14374 ,1.89346 ,18.57864 
205 ,40.1599 ,1.14564 ,1.87977 ,18.44433 
206 ,40.3678 ,1.14774 ,1.86951 ,18.34360 
207 ,40.5603 ,1.14965 ,1.84213 ,18.07497 
208 ,40.7684 ,1.15176 ,1.85240 ,18.17570 
209 ,40.9604 ,1.15361 ,1.84213 ,18.07497 
210 ,41.1526 ,1.15555 ,1.81133 ,17.77276 
211 ,41.3445 ,1.15750 ,1.79422 ,17.60487 
212 ,41.5202 ,1.15938 ,1.78395 ,17.50414 
213 ,41.7126 ,1.16112 ,1.77711 ,17.43698 
214 ,41.9208 ,1.16330 ,1.73946 ,17.06762 
215 ,42.1291 ,1.16530 ,1.73262 ,17.00046 
216 ,42.3211 ,1.16728 ,1.71551 ,16.83257 
217 ,42.5132 ,1.16918 ,1.72920 ,16.96689 
218 ,42.7213 ,1.17126 ,1.69840 ,16.66468 
219 ,42.9296 ,1.17336 ,1.69840 ,16.66468 
220 ,43.1373 ,1.17539 ,1.66418 ,16.32890 
221 ,43.3295 ,1.17737 ,1.66075 ,16.29532 
222 ,43.5215 ,1.17928 ,1.62653 ,15.95954 
223 ,43.7294 ,1.18135 ,1.62995 ,15.99311 
224 ,43.9216 ,1.18324 ,1.59916 ,15.69091 
225 ,44.1137 ,1.18515 ,1.61969 ,15.89238 
226 ,44.3056 ,1.18708 ,1.57862 ,15.48944 
227 ,44.5136 ,1.18913 ,1.55467 ,15.25439 
228 ,44.6900 ,1.19107 ,1.54440 ,15.15366 
229 ,44.8828 ,1.19285 ,1.52729 ,14.98577 
230 ,45.0901 ,1.19493 ,1.53756 ,15.08650 
231 ,45.2824 ,1.19687 ,1.51360 ,14.85145 
232 ,45.4742 ,1.19874 ,1.51360 ,14.85145 
233 ,45.6503 ,1.20068 ,1.48622 ,14.58283 
234 ,45.8263 ,1.20232 ,1.47938 ,14.51567 
235 ,46.0186 ,1.20422 ,1.44516 ,14.17989 
236 ,46.2266 ,1.20627 ,1.45200 ,14.24704 
237 ,46.4185 ,1.20824 ,1.42462 ,13.97842 
238 ,46.6108 ,1.21012 ,1.43489 ,14.07915 
239 ,46.8030 ,1.21205 ,1.39383 ,13.67621 
240 ,46.9950 ,1.21398 ,1.39725 ,13.70979 
241 ,47.1871 ,1.21585 ,1.37329 ,13.47474 
242 ,47.3797 ,1.21783 ,1.34934 ,13.23969 
243 ,47.6032 ,1.22013 ,1.34249 ,13.17254 
244 ,47.8110 ,1.22220 ,1.32880 ,13.03822 
245 ,48.0030 ,1.22407 ,1.31854 ,12.93749 
246 ,48.1951 ,1.22601 ,1.30143 ,12.76960 
247 ,48.4036 ,1.22803 ,1.29800 ,12.73602 
248 ,48.5955 ,1.23000 ,1.27747 ,12.53455 
249 ,48.8037 ,1.23201 ,1.27405 ,12.50097 
250 ,48.9957 ,1.23397 ,1.26378 ,12.40024 
251 ,49.2040 ,1.23605 ,1.23983 ,12.16519 
252 ,49.4117 ,1.23814 ,1.25009 ,12.26592 
253 ,49.6040 ,1.24006 ,1.22272 ,11.99730 
254 ,49.7959 ,1.24200 ,1.20218 ,11.79583 
255 ,50.0041 ,1.24405 ,1.18507 ,11.62794 
256 ,50.1799 ,1.24592 ,1.16796 ,11.46004 
257 ,50.3723 ,1.24774 ,1.16454 ,11.42647 
258 ,50.5801 ,1.24984 ,1.13716 ,11.15784 
259 ,50.7884 ,1.25194 ,1.14743 ,11.25857 
260 ,50.9802 ,1.25382 ,1.11663 ,10.95637 
261 ,51.1565 ,1.25564 ,1.10294 ,10.82206 
262 ,51.3322 ,1.25742 ,1.09610 ,10.75490 
263 ,51.5087 ,1.25914 ,1.08583 ,10.65416 
264 ,51.6848 ,1.26093 ,1.06872 ,10.48627 
265 ,51.8769 ,1.26274 ,1.06187 ,10.41912 
266 ,52.0690 ,1.26471 ,1.06187 ,10.41912 
267 ,52.2771 ,1.26678 ,1.03792 ,10.18407 
268 ,52.4690 ,1.26870 ,1.03108 ,10.11691 
269 ,52.6612 ,1.27065 ,1.01054 ,9.91544 
270 ,52.8692 ,1.27271 ,1.01396 ,9.94902 
271 ,53.0613 ,1.27462 ,0.98659 ,9.68039 
272 ,53.2534 ,1.27647 ,0.97974 ,9.61324 
273 ,53.4292 ,1.27835 ,0.97632 ,9.57966 
274 ,53.6532 ,1.28051 ,0.95237 ,9.34461 
275 ,53.8456 ,1.28237 ,0.95237 ,9.34461 
276 ,54.0376 ,1.28435 ,0.92499 ,9.07598 
277 ,54.2139 ,1.28619 ,0.92157 ,9.04241 
278 ,54.4059 ,1.28806 ,0.90446 ,8.87451 
279 ,54.5820 ,1.28991 ,0.88734 ,8.70662 
280 ,54.7741 ,1.29174 ,0.89077 ,8.74020 
281 ,54.9661 ,1.29362 ,0.87708 ,8.60589 
282 ,55.1741 ,1.29574 ,0.84970 ,8.33726 
283 ,55.3503 ,1.29752 ,0.84970 ,8.33726 
284 ,55.5423 ,1.29947 ,0.83601 ,8.20295 
285 ,55.7345 ,1.30134 ,0.81890 ,8.03506 
286 ,55.9425 ,1.30343 ,0.81206 ,7.96790 
287 ,56.1346 ,1.30534 ,0.78126 ,7.66570 
288 ,56.3427 ,1.30743 ,0.78468 ,7.69927 
289 ,56.5346 ,1.30932 ,0.76072 ,7.46423 
290 ,56.7264 ,1.31129 ,0.77099 ,7.56496 
291 ,56.9188 ,1.31314 ,0.72992 ,7.16202 
292 ,57.1110 ,1.31508 ,0.74361 ,7.29633 
293 ,57.3032 ,1.31703 ,0.71966 ,7.06129 
294 ,57.4952 ,1.31896 ,0.70255 ,6.89340 
295 ,57.6874 ,1.32092 ,0.70597 ,6.92697 
296 ,57.8794 ,1.32276 ,0.68544 ,6.72550 
297 ,58.0875 ,1.32479 ,0.67859 ,6.65835 
298 ,58.2954 ,1.32687 ,0.66490 ,6.52403 
299 ,58.5033 ,1.32897 ,0.65806 ,6.45688 
300 ,58.6955 ,1.33094 ,0.63068 ,6.18825 
301 ,58.9035 ,1.33298 ,0.63410 ,6.22183 
302 ,59.0959 ,1.33490 ,0.61015 ,5.98678 
303 ,59.3040 ,1.33705 ,0.61699 ,6.05394 
304 ,59.4959 ,1.33893 ,0.56566 ,5.55026 
305 ,59.6883 ,1.34089 ,0.57251 ,5.61742 
306 ,59.8807 ,1.34280 ,0.55539 ,5.44953 
307 ,60.0883 ,1.34489 ,0.56908 ,5.58384 
308 ,60.3121 ,1.34713 ,0.54171 ,5.31522 
309 ,60.5204 ,1.34914 ,0.52459 ,5.14732 
310 ,60.7125 ,1.35108 ,0.52802 ,5.18090 
311 ,60.9205 ,1.35317 ,0.52117 ,5.11375 
312 ,61.1126 ,1.35506 ,0.49380 ,4.84512 
313 ,61.3046 ,1.35703 ,0.50406 ,4.94585 
314 ,61.5127 ,1.35908 ,0.47668 ,4.67723 
315 ,61.7047 ,1.36099 ,0.46642 ,4.57649 
316 ,61.9130 ,1.36306 ,0.44246 ,4.34144 
317 ,62.0887 ,1.36494 ,0.44246 ,4.34144 
318 ,62.2813 ,1.36681 ,0.43220 ,4.24071 
319 ,62.4892 ,1.36883 ,0.42193 ,4.13997 
320 ,62.6814 ,1.37080 ,0.40140 ,3.93850 
321 ,62.8893 ,1.37280 ,0.40824 ,4.00566 
322 ,63.0653 ,1.37465 ,0.39113 ,3.83777 
323 ,63.2735 ,1.37657 ,0.38429 ,3.77061 
324 ,63.4655 ,1.37861 ,0.36033 ,3.53557 
325 ,63.6575 ,1.38048 ,0.33638 ,3.30052 
326 ,63.8496 ,1.38251 ,0.34664 ,3.40125 
327 ,64.0419 ,1.38431 ,0.33295 ,3.26694 
328 ,64.2496 ,1.38646 ,0.31926 ,3.13263 
329 ,64.4420 ,1.38841 ,0.31242 ,3.06547 
330 ,64.6498 ,1.39046 ,0.28504 ,2.79684 
331 ,64.8422 ,1.39233 ,0.28504 ,2.79684 
332 ,65.0341 ,1.39430 ,0.26451 ,2.59537 
333 ,65.2260 ,1.39621 ,0.27135 ,2.66253 
334 ,65.4022 ,1.39800 ,0.25424 ,2.49464 
335 ,65.5943 ,1.39988 ,0.24398 ,2.39390 
336 ,65.7705 ,1.40175 ,0.23371 ,2.29317 
337 ,65.9788 ,1.40374 ,0.21318 ,2.09170 
338 ,66.1707 ,1.40565 ,0.21660 ,2.12528 
339 ,66.3628 ,1.40769 ,0.19264 ,1.89023 
340 ,66.5546 ,1.40946 ,0.17896 ,1.75592 
341 ,66.7469 ,1.41148 ,0.17211 ,1.68876 
342 ,66.9230 ,1.41332 ,0.16527 ,1.62160 
343 ,67.1151 ,1.41508 ,0.15500 ,1.52087 
344 ,67.3072 ,1.41708 ,0.16869 ,1.65518 
345 ,67.4988 ,1.41906 ,0.12078 ,1.18508 
346 ,67.6913 ,1.42090 ,0.11736 ,1.15151 
347 ,67.8840 ,1.42275 ,0.13105 ,1.28582 
348 ,68.0755 ,1.42472 ,0.10709 ,1.05077 
349 ,68.2836 ,1.42676 ,0.10025 ,0.98361 
350 ,68.4757 ,1.42871 ,0.06945 ,0.68141 
351 ,68.6513 ,1.43056 ,0.07629 ,0.74857 
352 ,68.8438 ,1.43240 ,0.06602 ,0.64783 
353 ,69.0516 ,1.43445 ,0.04549 ,0.44636 
354 ,69.2120 ,1.43622 ,0.04549 ,0.44636 
355 ,69.4041 ,1.43794 ,0.04549 ,0.44636 
356 ,69.6279 ,1.44012 ,0.01811 ,0.17773 
357 ,69.8361 ,1.44230 ,0.00785 ,0.07700 
358 ,70.0443 ,1.44437 ,0.01469 ,0.14416 
359 ,70.2363 ,1.44629 ,-0.01611 ,-0.15805 
360 ,70.4283 ,1.44820 ,-0.02980 ,-0.29236 
361 ,70.6204 ,1.45015 ,-0.02980 ,-0.29236 
362 ,70.8122 ,1.45202 ,-0.04006 ,-0.39310 
363 ,71.0046 ,1.45397 ,-0.03664 ,-0.35952 
364 ,71.2127 ,1.45607 ,-0.06060 ,-0.59457 
365 ,71.4046 ,1.45795 ,-0.05717 ,-0.56099 
366 ,71.6288 ,1.46027 ,-0.08797 ,-0.86319 
367 ,71.8207 ,1.46215 ,-0.06744 ,-0.66172 
368 ,72.0131 ,1.46404 ,-0.11877 ,-1.16540 
369 ,72.2050 ,1.46597 ,-0.11193 ,-1.09824 
370 ,72.4128 ,1.46804 ,-0.13246 ,-1.29971 
371 ,72.6051 ,1.46996 ,-0.12219 ,-1.19898 
372 ,72.7973 ,1.47188 ,-0.15299 ,-1.50118 
373 ,73.0054 ,1.47392 ,-0.12904 ,-1.26613 
374 ,73.1975 ,1.47598 ,-0.15299 ,-1.50118 
375 ,73.3896 ,1.47783 ,-0.18037 ,-1.76981 
376 ,73.5656 ,1.47967 ,-0.17695 ,-1.73623 
377 ,73.7573 ,1.48146 ,-0.19064 ,-1.87054 
378 ,73.9494 ,1.48341 ,-0.20433 ,-2.00485 
379 ,74.1416 ,1.48529 ,-0.20090 ,-1.97128 
380 ,74.3340 ,1.48725 ,-0.22486 ,-2.20632 
381 ,74.5418 ,1.48932 ,-0.21459 ,-2.10559 
382 ,74.7342 ,1.49128 ,-0.23855 ,-2.34064 
383 ,74.9264 ,1.49318 ,-0.23513 ,-2.30706 
384 ,75.1340 ,1.49519 ,-0.26593 ,-2.60926 
385 ,75.3263 ,1.49716 ,-0.25224 ,-2.47495 
386 ,75.5185 ,1.49902 ,-0.28304 ,-2.77716 
387 ,75.7262 ,1.50117 ,-0.28646 ,-2.81073 
388 ,75.9184 ,1.50308 ,-0.30357 ,-2.97863 
389 ,76.1107 ,1.50501 ,-0.32410 ,-3.18010 
390 ,76.3027 ,1.50689 ,-0.29673 ,-2.91147 
391 ,76.5108 ,1.50902 ,-0.32410 ,-3.18010 
392 ,76.7186 ,1.51111 ,-0.32752 ,-3.21367 
393 ,76.9111 ,1.51302 ,-0.35148 ,-3.44872 
394 ,77.1031 ,1.51495 ,-0.34806 ,-3.41514 
395 ,77.2947 ,1.51681 ,-0.37201 ,-3.65019 
396 ,77.4869 ,1.51879 ,-0.36859 ,-3.61661 
397 ,77.6794 ,1.52067 ,-0.37544 ,-3.68377 
398 ,77.8881 ,1.52278 ,-0.38228 ,-3.75093 
399 ,78.0796 ,1.52472 ,-0.40281 ,-3.95240 
400 ,78.2878 ,1.52676 ,-0.41650 ,-4.08671 
401 ,78.4957 ,1.52885 ,-0.44388 ,-4.35534 
402 ,78.7038 ,1.53096 ,-0.43019 ,-4.22102 
403 ,78.8955 ,1.53285 ,-0.44046 ,-4.32176 
404 ,79.0880 ,1.53472 ,-0.45414 ,-4.45607 
405 ,79.2960 ,1.53676 ,-0.45414 ,-4.45607 
406 ,79.5039 ,1.53895 ,-0.47810 ,-4.69112 
407 ,79.6962 ,1.54084 ,-0.49179 ,-4.82543 
408 ,79.8885 ,1.54285 ,-0.49863 ,-4.89259 
409 ,80.0805 ,1.54473 ,-0.49179 ,-4.82543 
410 ,80.2884 ,1.54677 ,-0.50548 ,-4.95975 
411 ,80.4640 ,1.54857 ,-0.50890 ,-4.99332 
412 ,80.6885 ,1.55071 ,-0.51917 ,-5.09406 
413 ,80.8968 ,1.55281 ,-0.54312 ,-5.32911 
414 ,81.0887 ,1.55480 ,-0.54654 ,-5.36268 
415 ,81.2649 ,1.55655 ,-0.55339 ,-5.42984 
416 ,81.4728 ,1.55859 ,-0.58077 ,-5.69847 
417 ,81.6487 ,1.56043 ,-0.57734 ,-5.66489 
418 ,81.8409 ,1.56224 ,-0.58077 ,-5.69847 
419 ,82.0332 ,1.56422 ,-0.59788 ,-5.86636 
420 ,82.2411 ,1.56633 ,-0.59103 ,-5.79920 
421 ,82.4332 ,1.56821 ,-0.62525 ,-6.13499 
422 ,82.6253 ,1.57009 ,-0.61499 ,-6.03425 
423 ,82.8334 ,1.57225 ,-0.62868 ,-6.16856 
424 ,83.0416 ,1.57428 ,-0.62868 ,-6.16856 
425 ,83.2335 ,1.57624 ,-0.65947 ,-6.47077 
426 ,83.4257 ,1.57808 ,-0.64921 ,-6.37003 
427 ,83.8095 ,1.58205 ,-0.68343 ,-6.70582 
428 ,84.0018 ,1.58385 ,-0.67316 ,-6.60508 
429 ,84.2102 ,1.58592 ,-0.69712 ,-6.84013 
430 ,84.4023 ,1.58795 ,-0.69370 ,-6.80655 
431 ,84.5943 ,1.58981 ,-0.72107 ,-7.07518 
432 ,84.8024 ,1.59190 ,-0.70739 ,-6.94086 
433 ,84.9943 ,1.59388 ,-0.72450 ,-7.10876 
434 ,85.1864 ,1.59578 ,-0.74503 ,-7.31023 
435 ,85.3943 ,1.59779 ,-0.75872 ,-7.44454 
436 ,85.6028 ,1.59978 ,-0.74161 ,-7.27665 
437 ,85.7942 ,1.60191 ,-0.77925 ,-7.64601 
438 ,85.9864 ,1.60376 ,-0.77241 ,-7.57885 
439 ,86.1789 ,1.60570 ,-0.75872 ,-7.44454 
440 ,86.3710 ,1.60757 ,-0.81347 ,-7.98179 
441 ,86.5628 ,1.60946 ,-0.79636 ,-7.81390 
442 ,86.7713 ,1.61155 ,-0.81689 ,-8.01537 
443 ,86.9634 ,1.61351 ,-0.80663 ,-7.91464 
444 ,87.1553 ,1.61541 ,-0.82374 ,-8.08253 
445 ,87.3633 ,1.61746 ,-0.83058 ,-8.14968 
446 ,87.5554 ,1.61940 ,-0.84427 ,-8.28400 
447 ,87.7476 ,1.62136 ,-0.85796 ,-8.41831 
448 ,87.9397 ,1.62329 ,-0.85112 ,-8.35115 
449 ,88.1312 ,1.62515 ,-0.88192 ,-8.65336 
450 ,88.3399 ,1.62719 ,-0.88534 ,-8.68694 
451 ,88.5479 ,1.62930 ,-0.89903 ,-8.82125 
452 ,88.7400 ,1.63128 ,-0.89560 ,-8.78767 
453 ,88.9321 ,1.63322 ,-0.90587 ,-8.88841 
454 ,89.1241 ,1.63512 ,-0.91614 ,-8.98914 
455 ,89.3001 ,1.63698 ,-0.91272 ,-8.95556 
456 ,89.5082 ,1.63891 ,-0.92983 ,-9.12345 
457 ,89.7004 ,1.64079 ,-0.93325 ,-9.15703 
458 ,89.8925 ,1.64283 ,-0.94351 ,-9.25777 
459 ,90.0842 ,1.64469 ,-0.95378 ,-9.35850 
460 ,90.2762 ,1.64664 ,-0.95378 ,-9.35850 
461 ,90.4848 ,1.64867 ,-0.97774 ,-9.59355 
462 ,90.6927 ,1.65077 ,-0.97774 ,-9.59355 
463 ,90.8847 ,1.65269 ,-0.98458 ,-9.66071 
