Data stamp = , 29-04-2022 04:19:31 943

Calibration Values: 
Slope = , 26.54 , g/V 
Offset Voltage at no contact = , -0.501760 , V 

No , Time , Stage Position ,   Mass , Force 
   ,  (s) ,      (mm)      ,   (g)  , (mN)  

1 ,0.0000 ,0.74945 ,5.31221 ,52.12337 
2 ,0.2946 ,0.74965 ,5.29167 ,51.92190 
3 ,0.6633 ,0.75101 ,5.29510 ,51.95548 
4 ,0.8716 ,0.75299 ,5.31221 ,52.12337 
5 ,1.0794 ,0.75488 ,5.32247 ,52.22410 
6 ,1.2872 ,0.75701 ,5.31563 ,52.15694 
7 ,1.4792 ,0.75896 ,5.30536 ,52.05621 
8 ,1.6712 ,0.76083 ,5.29510 ,51.95548 
9 ,1.8635 ,0.76286 ,5.28825 ,51.88832 
10 ,2.0719 ,0.76481 ,5.26087 ,51.61969 
11 ,2.2959 ,0.76710 ,5.22665 ,51.28391 
12 ,2.4880 ,0.76902 ,5.23692 ,51.38464 
13 ,2.6801 ,0.77100 ,5.18216 ,50.84739 
14 ,2.8720 ,0.77285 ,5.17874 ,50.81381 
15 ,3.0644 ,0.77478 ,5.16848 ,50.71308 
16 ,3.2722 ,0.77692 ,5.13425 ,50.37729 
17 ,3.4645 ,0.77882 ,5.13083 ,50.34372 
18 ,3.6566 ,0.78083 ,5.08977 ,49.94078 
19 ,3.8646 ,0.78274 ,5.08292 ,49.87362 
20 ,4.0564 ,0.78481 ,5.05554 ,49.60499 
21 ,4.2489 ,0.78667 ,5.05554 ,49.60499 
22 ,4.4570 ,0.78876 ,5.01106 ,49.16848 
23 ,4.6487 ,0.79071 ,5.01448 ,49.20205 
24 ,4.8571 ,0.79271 ,4.97683 ,48.83269 
25 ,5.0489 ,0.79464 ,4.97341 ,48.79911 
26 ,5.2411 ,0.79657 ,4.94603 ,48.53049 
27 ,5.4329 ,0.79849 ,4.91866 ,48.26186 
28 ,5.6254 ,0.80039 ,4.92892 ,48.36260 
29 ,5.8334 ,0.80250 ,4.87759 ,47.85892 
30 ,6.0415 ,0.80460 ,4.86048 ,47.69103 
31 ,6.2332 ,0.80648 ,4.85021 ,47.59030 
32 ,6.4257 ,0.80848 ,4.83652 ,47.45598 
33 ,6.6337 ,0.81047 ,4.81257 ,47.22093 
34 ,6.8259 ,0.81241 ,4.79204 ,47.01946 
35 ,7.0338 ,0.81448 ,4.76124 ,46.71726 
36 ,7.2419 ,0.81660 ,4.74413 ,46.54937 
37 ,7.4340 ,0.81846 ,4.73386 ,46.44863 
38 ,7.6263 ,0.82039 ,4.72017 ,46.31432 
39 ,7.8183 ,0.82247 ,4.68253 ,45.94496 
40 ,8.0104 ,0.82425 ,4.68595 ,45.97854 
41 ,8.2025 ,0.82622 ,4.66884 ,45.81065 
42 ,8.3941 ,0.82815 ,4.63119 ,45.44128 
43 ,8.5866 ,0.83009 ,4.63804 ,45.50844 
44 ,8.7787 ,0.83205 ,4.58671 ,45.00477 
45 ,8.9709 ,0.83385 ,4.58671 ,45.00477 
46 ,9.1788 ,0.83595 ,4.56960 ,44.83688 
47 ,9.3709 ,0.83788 ,4.53537 ,44.50109 
48 ,9.5628 ,0.83976 ,4.53537 ,44.50109 
49 ,9.7550 ,0.84168 ,4.50115 ,44.16531 
50 ,9.9629 ,0.84379 ,4.49089 ,44.06457 
51 ,10.1552 ,0.84567 ,4.47035 ,43.86310 
52 ,10.3633 ,0.84779 ,4.47378 ,43.89668 
53 ,10.5553 ,0.84965 ,4.42929 ,43.46016 
54 ,10.7475 ,0.85166 ,4.42929 ,43.46016 
55 ,10.9552 ,0.85372 ,4.39164 ,43.09080 
56 ,11.1477 ,0.85566 ,4.38822 ,43.05723 
57 ,11.3398 ,0.85758 ,4.36427 ,42.82218 
58 ,11.5318 ,0.85948 ,4.33689 ,42.55355 
59 ,11.7399 ,0.86158 ,4.32662 ,42.45282 
60 ,11.9477 ,0.86354 ,4.29240 ,42.11703 
61 ,12.1400 ,0.86554 ,4.28213 ,42.01630 
62 ,12.3482 ,0.86752 ,4.28213 ,42.01630 
63 ,12.5562 ,0.86972 ,4.24791 ,41.68051 
64 ,12.7480 ,0.87162 ,4.24449 ,41.64694 
65 ,12.9885 ,0.87391 ,4.20000 ,41.21042 
66 ,13.1965 ,0.87612 ,4.20000 ,41.21042 
67 ,13.3886 ,0.87802 ,4.19316 ,41.14326 
68 ,13.5807 ,0.87994 ,4.16920 ,40.90821 
69 ,13.8046 ,0.88213 ,4.14525 ,40.67317 
70 ,13.9970 ,0.88412 ,4.11103 ,40.33738 
71 ,14.2050 ,0.88624 ,4.09391 ,40.16949 
72 ,14.4131 ,0.88828 ,4.07680 ,40.00160 
73 ,14.6052 ,0.89019 ,4.06312 ,39.86729 
74 ,14.7972 ,0.89214 ,4.03574 ,39.59866 
75 ,14.9729 ,0.89396 ,4.01520 ,39.39719 
76 ,15.1815 ,0.89584 ,4.01178 ,39.36361 
77 ,15.3734 ,0.89790 ,3.97414 ,38.99425 
78 ,15.5655 ,0.89976 ,3.97072 ,38.96067 
79 ,15.7733 ,0.90186 ,3.93992 ,38.65847 
80 ,15.9655 ,0.90376 ,3.95018 ,38.75920 
81 ,16.1576 ,0.90574 ,3.91938 ,38.45700 
82 ,16.3819 ,0.90788 ,3.89885 ,38.25553 
83 ,16.5900 ,0.91003 ,3.87490 ,38.02048 
84 ,16.7981 ,0.91201 ,3.85779 ,37.85259 
85 ,17.0058 ,0.91415 ,3.84410 ,37.71828 
86 ,17.1983 ,0.91615 ,3.81672 ,37.44965 
87 ,17.4061 ,0.91820 ,3.80987 ,37.38249 
88 ,17.5983 ,0.92013 ,3.79276 ,37.21460 
89 ,17.8065 ,0.92209 ,3.76539 ,36.94597 
90 ,18.0144 ,0.92421 ,3.74143 ,36.71093 
91 ,18.2221 ,0.92631 ,3.73459 ,36.64377 
92 ,18.4147 ,0.92827 ,3.69694 ,36.27441 
93 ,18.6068 ,0.93021 ,3.69694 ,36.27441 
94 ,18.8148 ,0.93222 ,3.66957 ,36.00578 
95 ,19.0070 ,0.93416 ,3.66272 ,35.93863 
96 ,19.2150 ,0.93632 ,3.62166 ,35.53569 
97 ,19.4072 ,0.93824 ,3.61823 ,35.50211 
98 ,19.6151 ,0.94028 ,3.58743 ,35.19990 
99 ,19.8073 ,0.94218 ,3.58743 ,35.19990 
100 ,19.9992 ,0.94412 ,3.56690 ,34.99843 
101 ,20.1915 ,0.94600 ,3.53268 ,34.66265 
102 ,20.3670 ,0.94794 ,3.52926 ,34.62907 
103 ,20.5597 ,0.94974 ,3.51215 ,34.46118 
104 ,20.7675 ,0.95181 ,3.48477 ,34.19255 
105 ,20.9758 ,0.95387 ,3.46766 ,34.02466 
106 ,21.1837 ,0.95594 ,3.46081 ,33.95751 
107 ,21.3920 ,0.95796 ,3.43686 ,33.72246 
108 ,21.5675 ,0.95995 ,3.41975 ,33.55457 
109 ,21.7434 ,0.96168 ,3.40606 ,33.42025 
110 ,21.9195 ,0.96344 ,3.38553 ,33.21878 
111 ,22.1280 ,0.96528 ,3.36499 ,33.01731 
112 ,22.3523 ,0.96760 ,3.34446 ,32.81584 
113 ,22.5439 ,0.96954 ,3.33762 ,32.74869 
114 ,22.7365 ,0.97149 ,3.30682 ,32.44648 
115 ,22.9283 ,0.97346 ,3.29997 ,32.37933 
116 ,23.1367 ,0.97544 ,3.27259 ,32.11070 
117 ,23.3287 ,0.97738 ,3.26233 ,32.00996 
118 ,23.5368 ,0.97935 ,3.24180 ,31.80849 
119 ,23.7289 ,0.98140 ,3.20757 ,31.47271 
120 ,23.9208 ,0.98337 ,3.20073 ,31.40555 
121 ,24.0971 ,0.98509 ,3.19046 ,31.30482 
122 ,24.2891 ,0.98701 ,3.17335 ,31.13693 
123 ,24.4812 ,0.98892 ,3.16651 ,31.06977 
124 ,24.6729 ,0.99083 ,3.13571 ,30.76757 
125 ,24.8653 ,0.99281 ,3.13913 ,30.80115 
126 ,25.0575 ,0.99471 ,3.10149 ,30.43178 
127 ,25.2495 ,0.99659 ,3.08095 ,30.23031 
128 ,25.4415 ,0.99847 ,3.07069 ,30.12958 
129 ,25.6334 ,1.00042 ,3.05015 ,29.92811 
130 ,25.8418 ,1.00251 ,3.04331 ,29.86095 
131 ,26.0499 ,1.00459 ,3.01251 ,29.55875 
132 ,26.2419 ,1.00652 ,2.99882 ,29.42444 
133 ,26.4499 ,1.00859 ,2.97144 ,29.15581 
134 ,26.6420 ,1.01051 ,2.97144 ,29.15581 
135 ,26.8498 ,1.01259 ,2.93038 ,28.75287 
136 ,27.0419 ,1.01450 ,2.93038 ,28.75287 
137 ,27.2503 ,1.01660 ,2.89616 ,28.41709 
138 ,27.4584 ,1.01857 ,2.89273 ,28.38351 
139 ,27.6506 ,1.02062 ,2.86193 ,28.08130 
140 ,27.8426 ,1.02248 ,2.85851 ,28.04772 
141 ,28.0342 ,1.02441 ,2.84482 ,27.91341 
142 ,28.2263 ,1.02637 ,2.81402 ,27.61121 
143 ,28.4183 ,1.02822 ,2.79691 ,27.44332 
144 ,28.6106 ,1.03019 ,2.77980 ,27.27542 
145 ,28.8027 ,1.03208 ,2.77638 ,27.24185 
146 ,28.9950 ,1.03406 ,2.74900 ,26.97322 
147 ,29.2191 ,1.03619 ,2.73531 ,26.83891 
148 ,29.4270 ,1.03829 ,2.72847 ,26.77175 
149 ,29.6192 ,1.04027 ,2.70109 ,26.50312 
150 ,29.8114 ,1.04224 ,2.67029 ,26.20092 
151 ,30.0194 ,1.04427 ,2.67714 ,26.26807 
152 ,30.2114 ,1.04615 ,2.64976 ,25.99945 
153 ,30.4037 ,1.04813 ,2.65318 ,26.03303 
154 ,30.5957 ,1.05002 ,2.61896 ,25.69724 
155 ,30.7875 ,1.05198 ,2.60185 ,25.52935 
156 ,30.9958 ,1.05405 ,2.57789 ,25.29430 
157 ,31.2036 ,1.05613 ,2.56763 ,25.19357 
158 ,31.3800 ,1.05805 ,2.55052 ,25.02568 
159 ,31.5881 ,1.05992 ,2.52998 ,24.82421 
160 ,31.7801 ,1.06186 ,2.51972 ,24.72347 
161 ,31.9882 ,1.06394 ,2.49918 ,24.52200 
162 ,32.1802 ,1.06588 ,2.49234 ,24.45485 
163 ,32.3720 ,1.06773 ,2.46154 ,24.15264 
164 ,32.5643 ,1.06969 ,2.44785 ,24.01833 
165 ,32.7566 ,1.07167 ,2.43416 ,23.88402 
166 ,32.9645 ,1.07365 ,2.41021 ,23.64897 
167 ,33.1726 ,1.07576 ,2.38968 ,23.44750 
168 ,33.3648 ,1.07772 ,2.38968 ,23.44750 
169 ,33.5725 ,1.07971 ,2.36230 ,23.17887 
170 ,33.7648 ,1.08175 ,2.34519 ,23.01098 
171 ,33.9732 ,1.08384 ,2.33150 ,22.87667 
172 ,34.1816 ,1.08586 ,2.32465 ,22.80951 
173 ,34.3735 ,1.08780 ,2.29385 ,22.50731 
174 ,34.5650 ,1.08973 ,2.28701 ,22.44015 
175 ,34.7571 ,1.09159 ,2.25621 ,22.13794 
176 ,34.9491 ,1.09358 ,2.25279 ,22.10437 
177 ,35.1573 ,1.09557 ,2.21857 ,21.76858 
178 ,35.3656 ,1.09764 ,2.21515 ,21.73500 
179 ,35.5573 ,1.09971 ,2.21515 ,21.73500 
180 ,35.7498 ,1.10156 ,2.18435 ,21.43280 
181 ,35.9575 ,1.10362 ,2.17066 ,21.29849 
182 ,36.1499 ,1.10553 ,2.15697 ,21.16417 
183 ,36.3581 ,1.10758 ,2.13301 ,20.92912 
184 ,36.5661 ,1.10962 ,2.11248 ,20.72766 
185 ,36.7419 ,1.11155 ,2.10564 ,20.66050 
186 ,36.9343 ,1.11338 ,2.07826 ,20.39187 
187 ,37.1423 ,1.11544 ,2.07826 ,20.39187 
188 ,37.3342 ,1.11742 ,2.04404 ,20.05609 
189 ,37.5263 ,1.11930 ,2.04404 ,20.05609 
190 ,37.7182 ,1.12128 ,2.04061 ,20.02251 
191 ,37.9107 ,1.12315 ,2.01666 ,19.78746 
192 ,38.1186 ,1.12520 ,2.00297 ,19.65315 
193 ,38.3109 ,1.12713 ,1.97902 ,19.41810 
194 ,38.5190 ,1.12926 ,1.98244 ,19.45168 
195 ,38.7111 ,1.13122 ,1.94137 ,19.04874 
196 ,38.9191 ,1.13325 ,1.95506 ,19.18305 
197 ,39.1113 ,1.13514 ,1.92084 ,18.84727 
198 ,39.3033 ,1.13713 ,1.92084 ,18.84727 
199 ,39.4953 ,1.13895 ,1.89004 ,18.54507 
200 ,39.6874 ,1.14089 ,1.87293 ,18.37717 
201 ,39.8793 ,1.14281 ,1.88662 ,18.51149 
202 ,40.0717 ,1.14478 ,1.84897 ,18.14213 
203 ,40.2797 ,1.14685 ,1.85240 ,18.17570 
204 ,40.4716 ,1.14874 ,1.81817 ,17.83992 
205 ,40.6638 ,1.15064 ,1.82502 ,17.90708 
206 ,40.8559 ,1.15261 ,1.79080 ,17.57129 
207 ,41.0641 ,1.15472 ,1.78053 ,17.47056 
208 ,41.2720 ,1.15670 ,1.75657 ,17.23551 
209 ,41.4642 ,1.15867 ,1.75657 ,17.23551 
210 ,41.6880 ,1.16080 ,1.72235 ,16.89973 
211 ,41.8803 ,1.16287 ,1.72235 ,16.89973 
212 ,42.0720 ,1.16472 ,1.70524 ,16.73184 
213 ,42.2644 ,1.16669 ,1.70182 ,16.69826 
214 ,42.4564 ,1.16857 ,1.68813 ,16.56395 
215 ,42.6486 ,1.17055 ,1.64707 ,16.16101 
216 ,42.8406 ,1.17241 ,1.65391 ,16.22816 
217 ,43.0327 ,1.17437 ,1.63338 ,16.02669 
218 ,43.2247 ,1.17626 ,1.63680 ,16.06027 
219 ,43.4169 ,1.17822 ,1.60942 ,15.79164 
220 ,43.6250 ,1.18029 ,1.60942 ,15.79164 
221 ,43.8171 ,1.18224 ,1.57520 ,15.45586 
222 ,44.0250 ,1.18428 ,1.57862 ,15.48944 
223 ,44.2008 ,1.18612 ,1.54782 ,15.18724 
224 ,44.4091 ,1.18800 ,1.53071 ,15.01934 
225 ,44.6173 ,1.19012 ,1.52387 ,14.95219 
226 ,44.8094 ,1.19212 ,1.49991 ,14.71714 
227 ,45.0175 ,1.19423 ,1.49649 ,14.68356 
228 ,45.2256 ,1.19626 ,1.49649 ,14.68356 
229 ,45.4177 ,1.19821 ,1.46227 ,14.34778 
230 ,45.6097 ,1.20015 ,1.45542 ,14.28062 
231 ,45.8016 ,1.20200 ,1.45885 ,14.31420 
232 ,45.9940 ,1.20393 ,1.41436 ,13.87768 
233 ,46.2019 ,1.20604 ,1.42462 ,13.97842 
234 ,46.3938 ,1.20801 ,1.39725 ,13.70979 
235 ,46.5862 ,1.20990 ,1.39040 ,13.64263 
236 ,46.7940 ,1.21191 ,1.36645 ,13.40759 
237 ,46.9700 ,1.21382 ,1.36303 ,13.37401 
238 ,47.1623 ,1.21562 ,1.34591 ,13.20612 
239 ,47.3710 ,1.21773 ,1.31854 ,12.93749 
240 ,47.5622 ,1.21964 ,1.32538 ,13.00465 
241 ,47.7547 ,1.22150 ,1.28432 ,12.60171 
242 ,47.9468 ,1.22349 ,1.30143 ,12.76960 
243 ,48.1547 ,1.22559 ,1.27063 ,12.46739 
244 ,48.3470 ,1.22745 ,1.26720 ,12.43381 
245 ,48.5386 ,1.22938 ,1.25352 ,12.29950 
246 ,48.7311 ,1.23134 ,1.22614 ,12.03088 
247 ,48.9389 ,1.23343 ,1.22614 ,12.03088 
248 ,49.1474 ,1.23541 ,1.20561 ,11.82941 
249 ,49.3554 ,1.23751 ,1.17481 ,11.52720 
250 ,49.5475 ,1.23948 ,1.18165 ,11.59436 
251 ,49.7396 ,1.24146 ,1.16796 ,11.46004 
252 ,49.9473 ,1.24347 ,1.16112 ,11.39289 
253 ,50.1397 ,1.24542 ,1.13032 ,11.09068 
254 ,50.3478 ,1.24742 ,1.13374 ,11.12426 
255 ,50.5398 ,1.24939 ,1.12005 ,10.98995 
256 ,50.7317 ,1.25134 ,1.09610 ,10.75490 
257 ,50.9400 ,1.25340 ,1.08925 ,10.68774 
258 ,51.1481 ,1.25550 ,1.07899 ,10.58701 
259 ,51.3401 ,1.25745 ,1.07556 ,10.55343 
260 ,51.5323 ,1.25936 ,1.04476 ,10.25123 
261 ,51.7562 ,1.26141 ,1.02081 ,10.01618 
262 ,51.9643 ,1.26358 ,1.02765 ,10.08333 
263 ,52.1725 ,1.26567 ,1.00712 ,9.88186 
264 ,52.3643 ,1.26759 ,0.99685 ,9.78113 
265 ,52.5727 ,1.26963 ,0.97974 ,9.61324 
266 ,52.7808 ,1.27176 ,0.95921 ,9.41177 
267 ,52.9725 ,1.27370 ,0.93868 ,9.21030 
268 ,53.1647 ,1.27559 ,0.94552 ,9.27745 
269 ,53.3410 ,1.27750 ,0.91130 ,8.94167 
270 ,53.5328 ,1.27925 ,0.91130 ,8.94167 
271 ,53.7250 ,1.28118 ,0.91130 ,8.94167 
272 ,53.9173 ,1.28310 ,0.88392 ,8.67305 
273 ,54.1094 ,1.28511 ,0.87023 ,8.53873 
274 ,54.3174 ,1.28714 ,0.86681 ,8.50515 
275 ,54.5096 ,1.28908 ,0.86339 ,8.47158 
276 ,54.7174 ,1.29116 ,0.83943 ,8.23653 
277 ,54.9097 ,1.29307 ,0.84286 ,8.27011 
278 ,55.1013 ,1.29494 ,0.81206 ,7.96790 
279 ,55.2939 ,1.29692 ,0.80521 ,7.90074 
280 ,55.5020 ,1.29903 ,0.79495 ,7.80001 
281 ,55.6941 ,1.30090 ,0.78468 ,7.69927 
282 ,55.8861 ,1.30289 ,0.77784 ,7.63212 
283 ,56.0780 ,1.30473 ,0.75046 ,7.36349 
284 ,56.2704 ,1.30666 ,0.74704 ,7.32991 
285 ,56.4784 ,1.30880 ,0.71624 ,7.02771 
286 ,56.6706 ,1.31069 ,0.72650 ,7.12844 
287 ,56.8623 ,1.31260 ,0.71281 ,6.99413 
288 ,57.0705 ,1.31466 ,0.71966 ,7.06129 
289 ,57.2623 ,1.31662 ,0.68544 ,6.72550 
290 ,57.4547 ,1.31848 ,0.67175 ,6.59119 
291 ,57.6464 ,1.32043 ,0.66833 ,6.55761 
292 ,57.8545 ,1.32246 ,0.64095 ,6.28899 
293 ,58.0465 ,1.32444 ,0.64779 ,6.35614 
294 ,58.2549 ,1.32643 ,0.61357 ,6.02036 
295 ,58.4787 ,1.32872 ,0.61015 ,5.98678 
296 ,58.6709 ,1.33068 ,0.60673 ,5.95320 
297 ,58.8629 ,1.33260 ,0.58619 ,5.75173 
298 ,59.0549 ,1.33455 ,0.56908 ,5.58384 
299 ,59.2470 ,1.33645 ,0.56908 ,5.58384 
300 ,59.4392 ,1.33831 ,0.55539 ,5.44953 
301 ,59.6312 ,1.34027 ,0.54513 ,5.34879 
302 ,59.8074 ,1.34215 ,0.52802 ,5.18090 
303 ,59.9995 ,1.34394 ,0.51433 ,5.04659 
304 ,60.1754 ,1.34583 ,0.52117 ,5.11375 
305 ,60.3676 ,1.34758 ,0.51091 ,5.01301 
306 ,60.5597 ,1.34958 ,0.48695 ,4.77796 
307 ,60.7518 ,1.35143 ,0.48353 ,4.74438 
308 ,60.9278 ,1.35334 ,0.46300 ,4.54291 
309 ,61.1200 ,1.35512 ,0.44588 ,4.37502 
310 ,61.3120 ,1.35703 ,0.45615 ,4.47576 
311 ,61.4880 ,1.35894 ,0.43562 ,4.27429 
312 ,61.6802 ,1.36072 ,0.41851 ,4.10640 
313 ,61.8723 ,1.36263 ,0.42193 ,4.13997 
314 ,62.0483 ,1.36453 ,0.40482 ,3.97208 
315 ,62.2404 ,1.36633 ,0.39113 ,3.83777 
316 ,62.4324 ,1.36825 ,0.39455 ,3.87135 
317 ,62.6086 ,1.37015 ,0.37402 ,3.66988 
318 ,62.8007 ,1.37192 ,0.35349 ,3.46841 
319 ,62.9767 ,1.37380 ,0.36718 ,3.60272 
320 ,63.1687 ,1.37561 ,0.35349 ,3.46841 
321 ,63.3610 ,1.37751 ,0.32269 ,3.16620 
322 ,63.5369 ,1.37943 ,0.33638 ,3.30052 
323 ,63.7290 ,1.38122 ,0.31926 ,3.13263 
324 ,63.9211 ,1.38313 ,0.29873 ,2.93116 
325 ,64.1131 ,1.38501 ,0.29531 ,2.89758 
326 ,64.2892 ,1.38694 ,0.27135 ,2.66253 
327 ,64.4814 ,1.38872 ,0.26451 ,2.59537 
328 ,64.6895 ,1.39093 ,0.26451 ,2.59537 
329 ,64.8813 ,1.39274 ,0.24398 ,2.39390 
330 ,65.0736 ,1.39463 ,0.24398 ,2.39390 
331 ,65.2497 ,1.39654 ,0.22344 ,2.19243 
332 ,65.4417 ,1.39829 ,0.20633 ,2.02454 
333 ,65.6179 ,1.40023 ,0.21318 ,2.09170 
334 ,65.8099 ,1.40202 ,0.20976 ,2.05812 
335 ,66.0019 ,1.40390 ,0.18238 ,1.78949 
336 ,66.1780 ,1.40584 ,0.17211 ,1.68876 
337 ,66.3703 ,1.40762 ,0.18238 ,1.78949 
338 ,66.5622 ,1.40957 ,0.15158 ,1.48729 
339 ,66.7383 ,1.41141 ,0.16185 ,1.58802 
340 ,66.9303 ,1.41319 ,0.14473 ,1.42013 
341 ,67.1226 ,1.41511 ,0.12420 ,1.21866 
342 ,67.2985 ,1.41701 ,0.11393 ,1.11793 
343 ,67.4906 ,1.41881 ,0.11736 ,1.15151 
344 ,67.6668 ,1.42069 ,0.09682 ,0.95004 
345 ,67.8588 ,1.42247 ,0.08314 ,0.81572 
346 ,68.0509 ,1.42440 ,0.08656 ,0.84930 
347 ,68.2429 ,1.42634 ,0.06602 ,0.64783 
348 ,68.4190 ,1.42822 ,0.06602 ,0.64783 
349 ,68.6111 ,1.42998 ,0.05576 ,0.54710 
350 ,68.7871 ,1.43192 ,0.04207 ,0.41278 
351 ,68.9792 ,1.43374 ,0.03522 ,0.34563 
352 ,69.1713 ,1.43561 ,0.03180 ,0.31205 
353 ,69.3474 ,1.43753 ,0.00443 ,0.04342 
354 ,69.5394 ,1.43929 ,-0.00584 ,-0.05731 
355 ,69.7315 ,1.44119 ,0.00443 ,0.04342 
356 ,69.9076 ,1.44311 ,-0.02295 ,-0.22520 
357 ,70.0997 ,1.44488 ,-0.03664 ,-0.35952 
358 ,70.2918 ,1.44681 ,-0.02637 ,-0.25878 
359 ,70.4678 ,1.44874 ,-0.04691 ,-0.46025 
360 ,70.6599 ,1.45052 ,-0.07428 ,-0.72888 
361 ,70.8519 ,1.45240 ,-0.04691 ,-0.46025 
362 ,71.0279 ,1.45436 ,-0.07771 ,-0.76246 
363 ,71.2200 ,1.45608 ,-0.09824 ,-0.96393 
364 ,71.4121 ,1.45798 ,-0.08797 ,-0.86319 
365 ,71.5881 ,1.45993 ,-0.10851 ,-1.06466 
366 ,71.7642 ,1.46167 ,-0.12562 ,-1.23255 
367 ,71.9564 ,1.46352 ,-0.12904 ,-1.26613 
368 ,72.1485 ,1.46543 ,-0.13246 ,-1.29971 
369 ,72.3405 ,1.46729 ,-0.13931 ,-1.36687 
370 ,72.5325 ,1.46929 ,-0.15299 ,-1.50118 
371 ,72.7247 ,1.47118 ,-0.15299 ,-1.50118 
372 ,72.9327 ,1.47312 ,-0.17695 ,-1.73623 
373 ,73.1248 ,1.47521 ,-0.18722 ,-1.83696 
374 ,73.3168 ,1.47717 ,-0.18722 ,-1.83696 
375 ,73.5092 ,1.47897 ,-0.19064 ,-1.87054 
376 ,73.7011 ,1.48091 ,-0.21802 ,-2.13917 
377 ,73.9092 ,1.48298 ,-0.21117 ,-2.07201 
378 ,74.1013 ,1.48493 ,-0.24197 ,-2.37422 
379 ,74.2773 ,1.48685 ,-0.24197 ,-2.37422 
380 ,74.4697 ,1.48862 ,-0.23855 ,-2.34064 
381 ,74.6617 ,1.49054 ,-0.27277 ,-2.67642 
382 ,74.8698 ,1.49258 ,-0.26250 ,-2.57569 
383 ,75.0618 ,1.49449 ,-0.28988 ,-2.84431 
384 ,75.2539 ,1.49641 ,-0.28304 ,-2.77716 
385 ,75.4459 ,1.49837 ,-0.28988 ,-2.84431 
386 ,75.6380 ,1.50028 ,-0.32752 ,-3.21367 
387 ,75.8301 ,1.50219 ,-0.30699 ,-3.01220 
388 ,76.0381 ,1.50437 ,-0.32410 ,-3.18010 
389 ,76.2303 ,1.50617 ,-0.32410 ,-3.18010 
390 ,76.4222 ,1.50810 ,-0.34806 ,-3.41514 
391 ,76.5985 ,1.51003 ,-0.35148 ,-3.44872 
392 ,76.7745 ,1.51175 ,-0.35490 ,-3.48230 
393 ,76.9667 ,1.51356 ,-0.35832 ,-3.51588 
394 ,77.1426 ,1.51544 ,-0.37886 ,-3.71735 
395 ,77.3187 ,1.51723 ,-0.39939 ,-3.91882 
396 ,77.5108 ,1.51899 ,-0.38912 ,-3.81808 
397 ,77.7029 ,1.52087 ,-0.40623 ,-3.98597 
398 ,77.8949 ,1.52285 ,-0.43019 ,-4.22102 
399 ,78.1029 ,1.52491 ,-0.43703 ,-4.28818 
400 ,78.3109 ,1.52699 ,-0.44388 ,-4.35534 
401 ,78.5191 ,1.52905 ,-0.46441 ,-4.55681 
402 ,78.7113 ,1.53096 ,-0.44730 ,-4.38891 
403 ,78.9032 ,1.53298 ,-0.47126 ,-4.62396 
404 ,79.0955 ,1.53486 ,-0.47126 ,-4.62396 
405 ,79.2877 ,1.53679 ,-0.49863 ,-4.89259 
406 ,79.4955 ,1.53890 ,-0.50206 ,-4.92617 
407 ,79.6878 ,1.54075 ,-0.49863 ,-4.89259 
408 ,79.8798 ,1.54269 ,-0.53285 ,-5.22837 
409 ,80.0719 ,1.54460 ,-0.51917 ,-5.09406 
410 ,80.2639 ,1.54653 ,-0.53628 ,-5.26195 
411 ,80.4399 ,1.54841 ,-0.55339 ,-5.42984 
412 ,80.6320 ,1.55018 ,-0.54312 ,-5.32911 
413 ,80.8081 ,1.55209 ,-0.56708 ,-5.56415 
414 ,81.0001 ,1.55386 ,-0.58077 ,-5.69847 
415 ,81.1763 ,1.55578 ,-0.58077 ,-5.69847 
416 ,81.3683 ,1.55757 ,-0.59103 ,-5.79920 
417 ,81.5604 ,1.55951 ,-0.61156 ,-6.00067 
418 ,81.7524 ,1.56136 ,-0.60472 ,-5.93352 
419 ,81.9606 ,1.56343 ,-0.61841 ,-6.06783 
420 ,82.1525 ,1.56537 ,-0.61841 ,-6.06783 
421 ,82.3446 ,1.56735 ,-0.64921 ,-6.37003 
422 ,82.5527 ,1.56937 ,-0.63894 ,-6.26930 
423 ,82.7449 ,1.57129 ,-0.66290 ,-6.50435 
424 ,82.9369 ,1.57326 ,-0.65947 ,-6.47077 
425 ,83.1291 ,1.57520 ,-0.65947 ,-6.47077 
426 ,83.3051 ,1.57703 ,-0.68685 ,-6.73940 
427 ,83.4971 ,1.57882 ,-0.70054 ,-6.87371 
428 ,83.6892 ,1.58078 ,-0.69370 ,-6.80655 
429 ,83.8814 ,1.58267 ,-0.72107 ,-7.07518 
430 ,84.0573 ,1.58457 ,-0.71423 ,-7.00802 
431 ,84.2495 ,1.58639 ,-0.71423 ,-7.00802 
432 ,84.4415 ,1.58828 ,-0.74161 ,-7.27665 
433 ,84.6175 ,1.59018 ,-0.75187 ,-7.37738 
434 ,84.8097 ,1.59200 ,-0.74161 ,-7.27665 
435 ,85.0177 ,1.59403 ,-0.77241 ,-7.57885 
436 ,85.2097 ,1.59595 ,-0.76556 ,-7.51170 
437 ,85.4019 ,1.59783 ,-0.79294 ,-7.78032 
438 ,85.5780 ,1.59977 ,-0.76898 ,-7.54527 
439 ,85.7701 ,1.60153 ,-0.78952 ,-7.74674 
440 ,85.9622 ,1.60349 ,-0.81689 ,-8.01537 
441 ,86.1542 ,1.60543 ,-0.81005 ,-7.94821 
442 ,86.3464 ,1.60731 ,-0.83743 ,-8.21684 
443 ,86.5384 ,1.60921 ,-0.84085 ,-8.25042 
444 ,86.7305 ,1.61115 ,-0.82716 ,-8.11611 
445 ,86.9226 ,1.61311 ,-0.85454 ,-8.38473 
446 ,87.1147 ,1.61500 ,-0.84085 ,-8.25042 
447 ,87.3067 ,1.61694 ,-0.85796 ,-8.41831 
448 ,87.4986 ,1.61878 ,-0.87849 ,-8.61978 
449 ,87.6909 ,1.62074 ,-0.87507 ,-8.58620 
450 ,87.8828 ,1.62267 ,-0.89218 ,-8.75409 
451 ,88.1070 ,1.62483 ,-0.89218 ,-8.75409 
452 ,88.2989 ,1.62684 ,-0.92640 ,-9.08988 
453 ,88.4910 ,1.62875 ,-0.89903 ,-8.82125 
454 ,88.6671 ,1.63063 ,-0.92640 ,-9.08988 
455 ,88.8591 ,1.63245 ,-0.94351 ,-9.25777 
456 ,89.0514 ,1.63436 ,-0.92640 ,-9.08988 
457 ,89.2436 ,1.63624 ,-0.95378 ,-9.35850 
458 ,89.4355 ,1.63822 ,-0.96063 ,-9.42566 
459 ,89.6276 ,1.64013 ,-0.96063 ,-9.42566 
460 ,89.8196 ,1.64202 ,-0.97774 ,-9.59355 
461 ,90.0119 ,1.64395 ,-0.98116 ,-9.62713 
462 ,90.2038 ,1.64590 ,-0.99485 ,-9.76144 
