Data stamp = , 28-04-2022 21:28:48 297

Calibration Values: 
Slope = , 26.54 , g/V 
Offset Voltage at no contact = , -0.501760 , V 

No , Time , Stage Position ,   Mass , Force 
   ,  (s) ,      (mm)      ,   (g)  , (mN)  

1 ,0.0000 ,0.74950 ,5.31905 ,52.19052 
2 ,0.3140 ,0.74975 ,5.32247 ,52.22410 
3 ,0.8425 ,0.75185 ,5.32247 ,52.22410 
4 ,1.0666 ,0.75482 ,5.32247 ,52.22410 
5 ,1.2745 ,0.75691 ,5.32247 ,52.22410 
6 ,1.4666 ,0.75892 ,5.34643 ,52.45915 
7 ,1.6588 ,0.76080 ,5.30878 ,52.08979 
8 ,1.8509 ,0.76278 ,5.29852 ,51.98905 
9 ,2.0590 ,0.76481 ,5.27798 ,51.78758 
10 ,2.2671 ,0.76678 ,5.27114 ,51.72043 
11 ,2.4910 ,0.76901 ,5.23007 ,51.31749 
12 ,2.6832 ,0.77103 ,5.21981 ,51.21675 
13 ,2.8752 ,0.77299 ,5.20954 ,51.11602 
14 ,3.0672 ,0.77487 ,5.19927 ,51.01528 
15 ,3.2594 ,0.77685 ,5.16505 ,50.67950 
16 ,3.4513 ,0.77879 ,5.15821 ,50.61234 
17 ,3.6435 ,0.78071 ,5.13083 ,50.34372 
18 ,3.8356 ,0.78256 ,5.10688 ,50.10867 
19 ,4.0276 ,0.78454 ,5.10003 ,50.04151 
20 ,4.2037 ,0.78642 ,5.06581 ,49.70573 
21 ,4.4118 ,0.78826 ,5.04870 ,49.53784 
22 ,4.6039 ,0.79027 ,5.04528 ,49.50426 
23 ,4.7959 ,0.79221 ,5.02817 ,49.33637 
24 ,4.9880 ,0.79411 ,5.00763 ,49.13490 
25 ,5.1960 ,0.79612 ,4.98368 ,48.89985 
26 ,5.3883 ,0.79810 ,4.96315 ,48.69838 
27 ,5.5963 ,0.80010 ,4.94261 ,48.49691 
28 ,5.7885 ,0.80215 ,4.93235 ,48.39618 
29 ,5.9806 ,0.80405 ,4.88786 ,47.95966 
30 ,6.1886 ,0.80610 ,4.88786 ,47.95966 
31 ,6.3805 ,0.80804 ,4.87075 ,47.79177 
32 ,6.5887 ,0.81002 ,4.86390 ,47.72461 
33 ,6.7808 ,0.81208 ,4.81941 ,47.28809 
34 ,6.9729 ,0.81393 ,4.81599 ,47.25451 
35 ,7.1650 ,0.81585 ,4.80230 ,47.12020 
36 ,7.3570 ,0.81782 ,4.75782 ,46.68368 
37 ,7.5492 ,0.81974 ,4.76808 ,46.78442 
38 ,7.7413 ,0.82161 ,4.72359 ,46.34790 
39 ,7.9333 ,0.82355 ,4.71333 ,46.24716 
40 ,8.1254 ,0.82556 ,4.70990 ,46.21359 
41 ,8.3335 ,0.82750 ,4.68253 ,45.94496 
42 ,8.5256 ,0.82950 ,4.67226 ,45.84422 
43 ,8.7336 ,0.83158 ,4.63804 ,45.50844 
44 ,8.9416 ,0.83358 ,4.62777 ,45.40771 
45 ,9.1339 ,0.83559 ,4.60724 ,45.20624 
46 ,9.3258 ,0.83753 ,4.60724 ,45.20624 
47 ,9.5340 ,0.83954 ,4.55933 ,44.73614 
48 ,9.7259 ,0.84146 ,4.55591 ,44.70256 
49 ,9.9181 ,0.84337 ,4.52169 ,44.36678 
50 ,10.1262 ,0.84547 ,4.51484 ,44.29962 
51 ,10.3182 ,0.84744 ,4.47378 ,43.89668 
52 ,10.5104 ,0.84936 ,4.49089 ,44.06457 
53 ,10.7025 ,0.85131 ,4.45324 ,43.69521 
54 ,10.8945 ,0.85312 ,4.44298 ,43.59448 
55 ,11.0865 ,0.85503 ,4.44298 ,43.59448 
56 ,11.2626 ,0.85694 ,4.39507 ,43.12438 
57 ,11.4547 ,0.85878 ,4.37453 ,42.92291 
58 ,11.6628 ,0.86082 ,4.37795 ,42.95649 
59 ,11.8708 ,0.86281 ,4.35058 ,42.68786 
60 ,12.0628 ,0.86488 ,4.33347 ,42.51997 
61 ,12.2549 ,0.86671 ,4.31636 ,42.35208 
62 ,12.4471 ,0.86872 ,4.31293 ,42.31850 
63 ,12.6393 ,0.87061 ,4.27871 ,41.98272 
64 ,12.8314 ,0.87252 ,4.26502 ,41.84841 
65 ,13.0395 ,0.87461 ,4.23422 ,41.54620 
66 ,13.2315 ,0.87649 ,4.21369 ,41.34473 
67 ,13.4236 ,0.87840 ,4.21711 ,41.37831 
68 ,13.6155 ,0.88035 ,4.18289 ,41.04253 
69 ,13.8078 ,0.88227 ,4.17947 ,41.00895 
70 ,14.0157 ,0.88433 ,4.14183 ,40.63959 
71 ,14.2081 ,0.88630 ,4.15551 ,40.77390 
72 ,14.3999 ,0.88828 ,4.11787 ,40.40454 
73 ,14.5920 ,0.89016 ,4.09049 ,40.13591 
74 ,14.8002 ,0.89216 ,4.06654 ,39.90087 
75 ,14.9922 ,0.89408 ,4.05627 ,39.80013 
76 ,15.1841 ,0.89602 ,4.05285 ,39.76655 
77 ,15.3764 ,0.89799 ,4.01520 ,39.39719 
78 ,15.5685 ,0.89992 ,4.00152 ,39.26288 
79 ,15.7606 ,0.90185 ,3.99467 ,39.19572 
80 ,15.9527 ,0.90371 ,3.97414 ,38.99425 
81 ,16.1446 ,0.90570 ,3.95703 ,38.82636 
82 ,16.3368 ,0.90759 ,3.93307 ,38.59131 
83 ,16.5289 ,0.90947 ,3.92623 ,38.52415 
84 ,16.7209 ,0.91141 ,3.90227 ,38.28911 
85 ,16.9131 ,0.91323 ,3.88174 ,38.08764 
86 ,17.1051 ,0.91520 ,3.86463 ,37.91975 
87 ,17.2812 ,0.91708 ,3.83383 ,37.61754 
88 ,17.4733 ,0.91890 ,3.81330 ,37.41607 
89 ,17.6652 ,0.92090 ,3.82014 ,37.48323 
90 ,17.8734 ,0.92285 ,3.78592 ,37.14744 
91 ,18.0653 ,0.92485 ,3.76881 ,36.97955 
92 ,18.2575 ,0.92677 ,3.76539 ,36.94597 
93 ,18.4656 ,0.92877 ,3.74485 ,36.74450 
94 ,18.6577 ,0.93078 ,3.72090 ,36.50946 
95 ,18.8498 ,0.93272 ,3.70379 ,36.34157 
96 ,19.0419 ,0.93461 ,3.69010 ,36.20725 
97 ,19.2340 ,0.93651 ,3.65930 ,35.90505 
98 ,19.4421 ,0.93856 ,3.64561 ,35.77073 
99 ,19.6502 ,0.94069 ,3.62850 ,35.60284 
100 ,19.8422 ,0.94257 ,3.61481 ,35.46853 
101 ,20.0343 ,0.94451 ,3.58743 ,35.19990 
102 ,20.2104 ,0.94636 ,3.58059 ,35.13275 
103 ,20.4024 ,0.94823 ,3.57375 ,35.06559 
104 ,20.5944 ,0.95008 ,3.52926 ,34.62907 
105 ,20.7865 ,0.95203 ,3.52241 ,34.56192 
106 ,20.9786 ,0.95394 ,3.50530 ,34.39402 
107 ,21.1708 ,0.95592 ,3.47450 ,34.09182 
108 ,21.3788 ,0.95795 ,3.46081 ,33.95751 
109 ,21.5869 ,0.96002 ,3.46424 ,33.99108 
110 ,21.7788 ,0.96194 ,3.42317 ,33.58814 
111 ,21.9711 ,0.96388 ,3.40606 ,33.42025 
112 ,22.1630 ,0.96578 ,3.40606 ,33.42025 
113 ,22.3550 ,0.96772 ,3.35473 ,32.91658 
114 ,22.5472 ,0.96962 ,3.34788 ,32.84942 
115 ,22.7554 ,0.97168 ,3.33419 ,32.71511 
116 ,22.9635 ,0.97376 ,3.34446 ,32.81584 
117 ,23.1715 ,0.97588 ,3.29997 ,32.37933 
118 ,23.3796 ,0.97793 ,3.26917 ,32.07712 
119 ,23.5874 ,0.97996 ,3.26917 ,32.07712 
120 ,23.7798 ,0.98194 ,3.24522 ,31.84207 
121 ,24.0036 ,0.98421 ,3.23837 ,31.77492 
122 ,24.1960 ,0.98612 ,3.20415 ,31.43913 
123 ,24.3878 ,0.98808 ,3.19046 ,31.30482 
124 ,24.5960 ,0.99009 ,3.15966 ,31.00262 
125 ,24.8041 ,0.99220 ,3.14940 ,30.90188 
126 ,24.9963 ,0.99411 ,3.11518 ,30.56610 
127 ,25.2044 ,0.99620 ,3.12544 ,30.66683 
128 ,25.3964 ,0.99818 ,3.08780 ,30.29747 
129 ,25.6046 ,1.00015 ,3.07753 ,30.19674 
130 ,25.7965 ,1.00206 ,3.05358 ,29.96169 
131 ,25.9887 ,1.00405 ,3.03989 ,29.82737 
132 ,26.1805 ,1.00598 ,3.03647 ,29.79380 
133 ,26.3729 ,1.00787 ,2.98855 ,29.32370 
134 ,26.5809 ,1.00996 ,2.99198 ,29.35728 
135 ,26.7730 ,1.01198 ,2.97144 ,29.15581 
136 ,26.9651 ,1.01377 ,2.95776 ,29.02150 
137 ,27.1731 ,1.01592 ,2.93722 ,28.82003 
138 ,27.3973 ,1.01802 ,2.92011 ,28.65213 
139 ,27.6053 ,1.02022 ,2.90642 ,28.51782 
140 ,27.8136 ,1.02224 ,2.87220 ,28.18204 
141 ,28.0056 ,1.02424 ,2.87220 ,28.18204 
142 ,28.1977 ,1.02612 ,2.84825 ,27.94699 
143 ,28.4055 ,1.02819 ,2.83114 ,27.77910 
144 ,28.5819 ,1.03007 ,2.80718 ,27.54405 
145 ,28.7736 ,1.03189 ,2.78665 ,27.34258 
146 ,28.9658 ,1.03377 ,2.78322 ,27.30900 
147 ,29.1582 ,1.03577 ,2.76954 ,27.17469 
148 ,29.3502 ,1.03760 ,2.74216 ,26.90606 
149 ,29.5423 ,1.03960 ,2.73531 ,26.83891 
150 ,29.7343 ,1.04142 ,2.69083 ,26.40239 
151 ,29.9261 ,1.04342 ,2.70452 ,26.53670 
152 ,30.1185 ,1.04536 ,2.67714 ,26.26807 
153 ,30.3106 ,1.04728 ,2.64292 ,25.93229 
154 ,30.5024 ,1.04915 ,2.65660 ,26.06661 
155 ,30.6948 ,1.05109 ,2.62923 ,25.79798 
156 ,30.8865 ,1.05301 ,2.60869 ,25.59651 
157 ,31.0788 ,1.05498 ,2.60527 ,25.56293 
158 ,31.2868 ,1.05696 ,2.58474 ,25.36146 
159 ,31.4950 ,1.05905 ,2.55052 ,25.02568 
160 ,31.6868 ,1.06097 ,2.55052 ,25.02568 
161 ,31.8791 ,1.06289 ,2.51972 ,24.72347 
162 ,32.0872 ,1.06495 ,2.50945 ,24.62274 
163 ,32.2952 ,1.06706 ,2.48550 ,24.38769 
164 ,32.4873 ,1.06900 ,2.47523 ,24.28696 
165 ,32.6796 ,1.07092 ,2.45127 ,24.05191 
166 ,32.8714 ,1.07283 ,2.43074 ,23.85044 
167 ,33.0636 ,1.07471 ,2.42732 ,23.81686 
168 ,33.2556 ,1.07668 ,2.39652 ,23.51465 
169 ,33.4640 ,1.07871 ,2.39994 ,23.54823 
170 ,33.6556 ,1.08065 ,2.37599 ,23.31318 
171 ,33.8638 ,1.08270 ,2.37256 ,23.27961 
172 ,34.0557 ,1.08461 ,2.33150 ,22.87667 
173 ,34.2482 ,1.08658 ,2.33492 ,22.91024 
174 ,34.4404 ,1.08850 ,2.32123 ,22.77593 
175 ,34.6324 ,1.09041 ,2.27674 ,22.33941 
176 ,34.8081 ,1.09229 ,2.29728 ,22.54088 
177 ,35.0005 ,1.09409 ,2.25279 ,22.10437 
178 ,35.1923 ,1.09601 ,2.24594 ,22.03721 
179 ,35.3687 ,1.09787 ,2.24937 ,22.07079 
180 ,35.5607 ,1.09976 ,2.23910 ,21.97005 
181 ,35.7528 ,1.10166 ,2.18092 ,21.39922 
182 ,35.9446 ,1.10353 ,2.19119 ,21.49996 
183 ,36.1690 ,1.10566 ,2.16381 ,21.23133 
184 ,36.3610 ,1.10774 ,2.15697 ,21.16417 
185 ,36.5690 ,1.10981 ,2.13986 ,20.99628 
186 ,36.7609 ,1.11174 ,2.12617 ,20.86197 
187 ,36.9532 ,1.11362 ,2.09537 ,20.55976 
188 ,37.1290 ,1.11548 ,2.09879 ,20.59334 
189 ,37.3215 ,1.11733 ,2.08168 ,20.42545 
190 ,37.5295 ,1.11936 ,2.04746 ,20.08967 
191 ,37.7216 ,1.12133 ,2.05430 ,20.15682 
192 ,37.9137 ,1.12329 ,2.01324 ,19.75388 
193 ,38.1057 ,1.12520 ,2.03035 ,19.92178 
194 ,38.3138 ,1.12719 ,1.98586 ,19.48526 
195 ,38.5060 ,1.12923 ,1.99955 ,19.61957 
196 ,38.7142 ,1.13124 ,1.96875 ,19.31737 
197 ,38.9060 ,1.13315 ,1.96190 ,19.25021 
198 ,39.0982 ,1.13507 ,1.94822 ,19.11590 
199 ,39.2900 ,1.13700 ,1.92084 ,18.84727 
200 ,39.4824 ,1.13892 ,1.91399 ,18.78011 
201 ,39.6745 ,1.14083 ,1.89346 ,18.57864 
202 ,39.8505 ,1.14271 ,1.88662 ,18.51149 
203 ,40.0427 ,1.14449 ,1.87293 ,18.37717 
204 ,40.2507 ,1.14662 ,1.85582 ,18.20928 
205 ,40.4426 ,1.14852 ,1.85924 ,18.24286 
206 ,40.6349 ,1.15042 ,1.81475 ,17.80634 
207 ,40.8268 ,1.15239 ,1.82160 ,17.87350 
208 ,41.0188 ,1.15428 ,1.81133 ,17.77276 
209 ,41.2270 ,1.15635 ,1.79080 ,17.57129 
210 ,41.4348 ,1.15839 ,1.76000 ,17.26909 
211 ,41.6271 ,1.16039 ,1.75657 ,17.23551 
212 ,41.8352 ,1.16239 ,1.73604 ,17.03404 
213 ,42.0275 ,1.16443 ,1.72235 ,16.89973 
214 ,42.2195 ,1.16622 ,1.71551 ,16.83257 
215 ,42.3953 ,1.16816 ,1.69840 ,16.66468 
216 ,42.5712 ,1.16988 ,1.68813 ,16.56395 
217 ,42.7638 ,1.17176 ,1.68129 ,16.49679 
218 ,42.9719 ,1.17383 ,1.65391 ,16.22816 
219 ,43.1638 ,1.17574 ,1.66075 ,16.29532 
220 ,43.3559 ,1.17763 ,1.63338 ,16.02669 
221 ,43.5480 ,1.17951 ,1.62311 ,15.92596 
222 ,43.7402 ,1.18147 ,1.61969 ,15.89238 
223 ,43.9322 ,1.18338 ,1.58547 ,15.55660 
224 ,44.1241 ,1.18528 ,1.57862 ,15.48944 
225 ,44.3325 ,1.18740 ,1.56151 ,15.32155 
226 ,44.5244 ,1.18931 ,1.55467 ,15.25439 
227 ,44.7322 ,1.19136 ,1.53071 ,15.01934 
228 ,44.9247 ,1.19329 ,1.53071 ,15.01934 
229 ,45.1327 ,1.19543 ,1.51360 ,14.85145 
230 ,45.3245 ,1.19731 ,1.49649 ,14.68356 
231 ,45.5169 ,1.19920 ,1.46911 ,14.41493 
232 ,45.7086 ,1.20117 ,1.45200 ,14.24704 
233 ,45.9006 ,1.20308 ,1.44516 ,14.17989 
234 ,46.0928 ,1.20499 ,1.44174 ,14.14631 
235 ,46.3170 ,1.20716 ,1.41436 ,13.87768 
236 ,46.4934 ,1.20903 ,1.40751 ,13.81053 
237 ,46.6853 ,1.21091 ,1.41778 ,13.91126 
238 ,46.8771 ,1.21280 ,1.38356 ,13.57548 
239 ,47.0696 ,1.21477 ,1.36645 ,13.40759 
240 ,47.2776 ,1.21680 ,1.35618 ,13.30685 
241 ,47.4696 ,1.21874 ,1.34249 ,13.17254 
242 ,47.6618 ,1.22070 ,1.35276 ,13.27327 
243 ,47.8698 ,1.22276 ,1.32538 ,13.00465 
244 ,48.0618 ,1.22464 ,1.31169 ,12.87033 
245 ,48.2700 ,1.22664 ,1.27747 ,12.53455 
246 ,48.4781 ,1.22888 ,1.27063 ,12.46739 
247 ,48.6700 ,1.23076 ,1.25009 ,12.26592 
248 ,48.8463 ,1.23257 ,1.26036 ,12.36666 
249 ,49.0383 ,1.23448 ,1.22956 ,12.06445 
250 ,49.2305 ,1.23640 ,1.21929 ,11.96372 
251 ,49.4224 ,1.23837 ,1.20903 ,11.86298 
252 ,49.5984 ,1.24009 ,1.20561 ,11.82941 
253 ,49.7905 ,1.24195 ,1.18507 ,11.62794 
254 ,49.9827 ,1.24385 ,1.18850 ,11.66151 
255 ,50.1904 ,1.24595 ,1.14401 ,11.22500 
256 ,50.3829 ,1.24787 ,1.16112 ,11.39289 
257 ,50.5910 ,1.24994 ,1.12690 ,11.05710 
258 ,50.7989 ,1.25194 ,1.13374 ,11.12426 
259 ,50.9912 ,1.25396 ,1.09952 ,10.78848 
260 ,51.1832 ,1.25587 ,1.10636 ,10.85563 
261 ,51.3749 ,1.25775 ,1.06530 ,10.45270 
262 ,51.5674 ,1.25969 ,1.07899 ,10.58701 
263 ,51.7593 ,1.26165 ,1.07214 ,10.51985 
264 ,51.9516 ,1.26358 ,1.02765 ,10.08333 
265 ,52.1435 ,1.26545 ,1.04476 ,10.25123 
266 ,52.3355 ,1.26739 ,1.02081 ,10.01618 
267 ,52.5436 ,1.26947 ,1.01054 ,9.91544 
268 ,52.7519 ,1.27157 ,0.98659 ,9.68039 
269 ,52.9438 ,1.27351 ,0.98659 ,9.68039 
270 ,53.1522 ,1.27558 ,0.95921 ,9.41177 
271 ,53.3602 ,1.27765 ,0.95237 ,9.34461 
272 ,53.5360 ,1.27953 ,0.92841 ,9.10956 
273 ,53.7282 ,1.28128 ,0.92499 ,9.07598 
274 ,53.9199 ,1.28320 ,0.92499 ,9.07598 
275 ,54.1124 ,1.28513 ,0.90446 ,8.87451 
276 ,54.3043 ,1.28709 ,0.89761 ,8.80736 
277 ,54.4963 ,1.28896 ,0.86339 ,8.47158 
278 ,54.6886 ,1.29088 ,0.85997 ,8.43800 
279 ,54.8803 ,1.29287 ,0.86339 ,8.47158 
280 ,55.0567 ,1.29462 ,0.84970 ,8.33726 
281 ,55.2646 ,1.29669 ,0.82917 ,8.13579 
282 ,55.4569 ,1.29862 ,0.82575 ,8.10221 
283 ,55.6646 ,1.30064 ,0.81206 ,7.96790 
284 ,55.8570 ,1.30265 ,0.79495 ,7.80001 
285 ,56.0652 ,1.30467 ,0.76757 ,7.53138 
286 ,56.2732 ,1.30673 ,0.75730 ,7.43065 
287 ,56.4493 ,1.30865 ,0.74019 ,7.26276 
288 ,56.6414 ,1.31043 ,0.74704 ,7.32991 
289 ,56.8335 ,1.31235 ,0.72992 ,7.16202 
290 ,57.0254 ,1.31422 ,0.71966 ,7.06129 
291 ,57.2337 ,1.31628 ,0.71281 ,6.99413 
292 ,57.4419 ,1.31843 ,0.70597 ,6.92697 
293 ,57.6337 ,1.32034 ,0.68201 ,6.69193 
294 ,57.8415 ,1.32240 ,0.67859 ,6.65835 
295 ,58.0338 ,1.32435 ,0.65464 ,6.42330 
296 ,58.2422 ,1.32642 ,0.64437 ,6.32256 
297 ,58.4341 ,1.32839 ,0.63068 ,6.18825 
298 ,58.6262 ,1.33027 ,0.59988 ,5.88605 
299 ,58.8343 ,1.33238 ,0.59988 ,5.88605 
300 ,59.0425 ,1.33444 ,0.58277 ,5.71815 
301 ,59.2344 ,1.33636 ,0.59304 ,5.81889 
302 ,59.4266 ,1.33824 ,0.57935 ,5.68458 
303 ,59.6345 ,1.34032 ,0.55882 ,5.48311 
304 ,59.8264 ,1.34226 ,0.54171 ,5.31522 
305 ,60.0509 ,1.34448 ,0.52117 ,5.11375 
306 ,60.2587 ,1.34650 ,0.53486 ,5.24806 
307 ,60.4670 ,1.34866 ,0.51091 ,5.01301 
308 ,60.6749 ,1.35075 ,0.49380 ,4.84512 
309 ,60.8831 ,1.35282 ,0.49037 ,4.81154 
310 ,61.0749 ,1.35473 ,0.48011 ,4.71081 
311 ,61.2673 ,1.35666 ,0.45273 ,4.44218 
312 ,61.4752 ,1.35876 ,0.44931 ,4.40860 
313 ,61.6674 ,1.36072 ,0.42877 ,4.20713 
314 ,61.8596 ,1.36257 ,0.43220 ,4.24071 
315 ,62.0675 ,1.36464 ,0.40482 ,3.97208 
316 ,62.2596 ,1.36659 ,0.42535 ,4.17355 
317 ,62.4517 ,1.36853 ,0.39455 ,3.87135 
318 ,62.6437 ,1.37038 ,0.39113 ,3.83777 
319 ,62.8519 ,1.37242 ,0.38086 ,3.73703 
320 ,63.0436 ,1.37440 ,0.36375 ,3.56914 
321 ,63.2356 ,1.37630 ,0.35691 ,3.50199 
322 ,63.4282 ,1.37831 ,0.33295 ,3.26694 
323 ,63.6359 ,1.38032 ,0.34322 ,3.36767 
324 ,63.8283 ,1.38226 ,0.30900 ,3.03189 
325 ,64.0363 ,1.38431 ,0.30558 ,2.99831 
326 ,64.2284 ,1.38633 ,0.29189 ,2.86400 
327 ,64.4205 ,1.38831 ,0.28847 ,2.83042 
328 ,64.6126 ,1.39007 ,0.26451 ,2.59537 
329 ,64.8046 ,1.39205 ,0.24740 ,2.42748 
330 ,64.9965 ,1.39395 ,0.25767 ,2.52822 
331 ,65.2047 ,1.39608 ,0.23713 ,2.32675 
332 ,65.3966 ,1.39791 ,0.24398 ,2.39390 
333 ,65.5888 ,1.39987 ,0.21318 ,2.09170 
334 ,65.7969 ,1.40199 ,0.20976 ,2.05812 
335 ,65.9889 ,1.40387 ,0.18922 ,1.85665 
336 ,66.1810 ,1.40575 ,0.19264 ,1.89023 
337 ,66.3733 ,1.40771 ,0.17553 ,1.72234 
338 ,66.5811 ,1.40976 ,0.16527 ,1.62160 
339 ,66.7735 ,1.41170 ,0.15500 ,1.52087 
340 ,66.9654 ,1.41363 ,0.13447 ,1.31940 
341 ,67.1575 ,1.41551 ,0.14131 ,1.38655 
342 ,67.3656 ,1.41762 ,0.11393 ,1.11793 
343 ,67.5577 ,1.41953 ,0.12078 ,1.18508 
344 ,67.7655 ,1.42166 ,0.08998 ,0.88288 
345 ,67.9577 ,1.42362 ,0.10025 ,0.98361 
346 ,68.1503 ,1.42549 ,0.07629 ,0.74857 
347 ,68.3580 ,1.42752 ,0.09340 ,0.91646 
348 ,68.5500 ,1.42953 ,0.05234 ,0.51352 
349 ,68.7418 ,1.43138 ,0.06602 ,0.64783 
350 ,68.9342 ,1.43333 ,0.04549 ,0.44636 
351 ,69.1422 ,1.43537 ,0.03180 ,0.31205 
352 ,69.3344 ,1.43741 ,0.01127 ,0.11058 
353 ,69.5262 ,1.43919 ,0.00785 ,0.07700 
354 ,69.7187 ,1.44117 ,0.01469 ,0.14416 
355 ,69.9104 ,1.44313 ,-0.00926 ,-0.09089 
356 ,70.1027 ,1.44502 ,-0.02980 ,-0.29236 
357 ,70.2946 ,1.44689 ,-0.01611 ,-0.15805 
358 ,70.4866 ,1.44881 ,-0.05375 ,-0.52741 
359 ,70.6787 ,1.45072 ,-0.03664 ,-0.35952 
360 ,70.8707 ,1.45272 ,-0.05375 ,-0.52741 
361 ,71.0629 ,1.45460 ,-0.08113 ,-0.79604 
362 ,71.2551 ,1.45651 ,-0.06744 ,-0.66172 
363 ,71.4471 ,1.45845 ,-0.10166 ,-0.99751 
364 ,71.6390 ,1.46031 ,-0.09482 ,-0.93035 
365 ,71.8310 ,1.46223 ,-0.11193 ,-1.09824 
366 ,72.0390 ,1.46438 ,-0.11877 ,-1.16540 
367 ,72.2312 ,1.46627 ,-0.11535 ,-1.13182 
368 ,72.4397 ,1.46824 ,-0.15299 ,-1.50118 
369 ,72.6479 ,1.47041 ,-0.16326 ,-1.60191 
370 ,72.8399 ,1.47241 ,-0.18379 ,-1.80338 
371 ,73.0320 ,1.47430 ,-0.15299 ,-1.50118 
372 ,73.2401 ,1.47637 ,-0.18037 ,-1.76981 
373 ,73.4481 ,1.47843 ,-0.19064 ,-1.87054 
374 ,73.6402 ,1.48031 ,-0.19748 ,-1.93770 
375 ,73.8322 ,1.48229 ,-0.20775 ,-2.03843 
376 ,74.0243 ,1.48414 ,-0.23170 ,-2.27348 
377 ,74.1999 ,1.48605 ,-0.21802 ,-2.13917 
378 ,74.3925 ,1.48786 ,-0.22486 ,-2.20632 
379 ,74.6004 ,1.48996 ,-0.25224 ,-2.47495 
380 ,74.7926 ,1.49185 ,-0.26250 ,-2.57569 
381 ,74.9846 ,1.49378 ,-0.27619 ,-2.71000 
382 ,75.1768 ,1.49567 ,-0.27277 ,-2.67642 
383 ,75.3847 ,1.49774 ,-0.29673 ,-2.91147 
384 ,75.5769 ,1.49975 ,-0.27961 ,-2.74358 
385 ,75.7691 ,1.50162 ,-0.31384 ,-3.07936 
386 ,75.9771 ,1.50370 ,-0.31041 ,-3.04578 
387 ,76.1692 ,1.50568 ,-0.32410 ,-3.18010 
388 ,76.3768 ,1.50762 ,-0.35148 ,-3.44872 
389 ,76.5693 ,1.50968 ,-0.34464 ,-3.38156 
390 ,76.7775 ,1.51168 ,-0.34806 ,-3.41514 
391 ,76.9695 ,1.51369 ,-0.36517 ,-3.58303 
392 ,77.1775 ,1.51568 ,-0.37201 ,-3.65019 
393 ,77.3696 ,1.51767 ,-0.38912 ,-3.81808 
394 ,77.5616 ,1.51950 ,-0.40966 ,-4.01955 
395 ,77.7538 ,1.52147 ,-0.39255 ,-3.85166 
396 ,77.9459 ,1.52339 ,-0.40966 ,-4.01955 
397 ,78.1379 ,1.52529 ,-0.43019 ,-4.22102 
398 ,78.3301 ,1.52726 ,-0.44388 ,-4.35534 
399 ,78.5378 ,1.52922 ,-0.43019 ,-4.22102 
400 ,78.7302 ,1.53126 ,-0.44730 ,-4.38891 
401 ,78.9220 ,1.53326 ,-0.46099 ,-4.52323 
402 ,79.1145 ,1.53507 ,-0.46099 ,-4.52323 
403 ,79.3225 ,1.53714 ,-0.49179 ,-4.82543 
404 ,79.5143 ,1.53908 ,-0.48494 ,-4.75828 
405 ,79.7226 ,1.54113 ,-0.50206 ,-4.92617 
406 ,79.9145 ,1.54304 ,-0.50548 ,-4.95975 
407 ,80.1228 ,1.54517 ,-0.52601 ,-5.16121 
408 ,80.3149 ,1.54708 ,-0.51232 ,-5.02690 
409 ,80.5229 ,1.54916 ,-0.55339 ,-5.42984 
410 ,80.7147 ,1.55112 ,-0.53970 ,-5.29553 
411 ,80.9071 ,1.55303 ,-0.55681 ,-5.46342 
412 ,81.1149 ,1.55504 ,-0.55681 ,-5.46342 
413 ,81.3072 ,1.55700 ,-0.57392 ,-5.63131 
414 ,81.4991 ,1.55889 ,-0.58077 ,-5.69847 
415 ,81.6914 ,1.56087 ,-0.59788 ,-5.86636 
416 ,81.8669 ,1.56272 ,-0.61499 ,-6.03425 
417 ,82.0595 ,1.56456 ,-0.62868 ,-6.16856 
418 ,82.2512 ,1.56654 ,-0.63210 ,-6.20214 
419 ,82.4433 ,1.56833 ,-0.64236 ,-6.30288 
420 ,82.6354 ,1.57025 ,-0.63552 ,-6.23572 
421 ,82.8279 ,1.57216 ,-0.64921 ,-6.37003 
422 ,83.0036 ,1.57407 ,-0.66974 ,-6.57150 
423 ,83.1958 ,1.57587 ,-0.66974 ,-6.57150 
424 ,83.3878 ,1.57779 ,-0.68685 ,-6.73940 
425 ,83.5960 ,1.57986 ,-0.68001 ,-6.67224 
426 ,83.7881 ,1.58183 ,-0.68001 ,-6.67224 
427 ,83.9960 ,1.58390 ,-0.69027 ,-6.77297 
428 ,84.2041 ,1.58597 ,-0.71423 ,-7.00802 
429 ,84.4125 ,1.58804 ,-0.72107 ,-7.07518 
430 ,84.6044 ,1.59006 ,-0.74161 ,-7.27665 
431 ,84.7963 ,1.59184 ,-0.74161 ,-7.27665 
432 ,84.9886 ,1.59382 ,-0.74845 ,-7.34380 
433 ,85.1807 ,1.59570 ,-0.76556 ,-7.51170 
434 ,85.3727 ,1.59758 ,-0.75187 ,-7.37738 
435 ,85.5646 ,1.59955 ,-0.78610 ,-7.71317 
436 ,85.7569 ,1.60142 ,-0.77925 ,-7.64601 
437 ,85.9330 ,1.60334 ,-0.78610 ,-7.71317 
438 ,86.1247 ,1.60518 ,-0.80321 ,-7.88106 
439 ,86.3012 ,1.60700 ,-0.79978 ,-7.84748 
440 ,86.4932 ,1.60882 ,-0.79636 ,-7.81390 
441 ,86.6854 ,1.61072 ,-0.83401 ,-8.18326 
442 ,86.8931 ,1.61280 ,-0.82374 ,-8.08253 
443 ,87.0855 ,1.61472 ,-0.84085 ,-8.25042 
444 ,87.2932 ,1.61687 ,-0.84769 ,-8.31758 
445 ,87.4855 ,1.61878 ,-0.85454 ,-8.38473 
446 ,87.6938 ,1.62083 ,-0.86481 ,-8.48547 
447 ,87.8858 ,1.62281 ,-0.87165 ,-8.55262 
448 ,88.0777 ,1.62464 ,-0.88534 ,-8.68694 
449 ,88.2700 ,1.62663 ,-0.87849 ,-8.61978 
450 ,88.4620 ,1.62851 ,-0.90929 ,-8.92198 
451 ,88.6539 ,1.63041 ,-0.89903 ,-8.82125 
452 ,88.8464 ,1.63236 ,-0.91614 ,-8.98914 
453 ,89.0382 ,1.63433 ,-0.94694 ,-9.29135 
454 ,89.2464 ,1.63631 ,-0.93325 ,-9.15703 
455 ,89.4380 ,1.63831 ,-0.96405 ,-9.45924 
456 ,89.6305 ,1.64020 ,-0.93325 ,-9.15703 
457 ,89.8386 ,1.64229 ,-0.98116 ,-9.62713 
458 ,90.0467 ,1.64430 ,-0.97431 ,-9.55997 
459 ,90.2546 ,1.64643 ,-0.98116 ,-9.62713 
460 ,90.4469 ,1.64836 ,-0.98458 ,-9.66071 
461 ,90.6545 ,1.65038 ,-0.99143 ,-9.72786 
462 ,90.8471 ,1.65236 ,-0.99827 ,-9.79502 
