Data stamp = , 28-04-2022 07:47:41 258

Calibration Values: 
Slope = , 26.54 , g/V 
Offset Voltage at no contact = , -0.501760 , V 

No , Time , Stage Position ,   Mass , Force 
   ,  (s) ,      (mm)      ,   (g)  , (mN)  

1 ,0.0000 ,0.74945 ,5.25403 ,51.55254 
2 ,0.3039 ,0.74966 ,5.27798 ,51.78758 
3 ,0.6401 ,0.75093 ,5.26087 ,51.61969 
4 ,0.8319 ,0.75268 ,5.25403 ,51.55254 
5 ,1.0242 ,0.75449 ,5.27114 ,51.72043 
6 ,1.2162 ,0.75634 ,5.24718 ,51.48538 
7 ,1.4084 ,0.75829 ,5.27456 ,51.75401 
8 ,1.6004 ,0.76019 ,5.25745 ,51.58611 
9 ,1.7924 ,0.76208 ,5.24718 ,51.48538 
10 ,1.9845 ,0.76401 ,5.23350 ,51.35107 
11 ,2.1764 ,0.76596 ,5.20270 ,51.04886 
12 ,2.3846 ,0.76802 ,5.19243 ,50.94813 
13 ,2.5929 ,0.77009 ,5.15821 ,50.61234 
14 ,2.7851 ,0.77210 ,5.15479 ,50.57876 
15 ,2.9768 ,0.77398 ,5.12399 ,50.27656 
16 ,3.1530 ,0.77583 ,5.12399 ,50.27656 
17 ,3.3611 ,0.77777 ,5.09319 ,49.97436 
18 ,3.5532 ,0.77969 ,5.07608 ,49.80646 
19 ,3.7290 ,0.78153 ,5.06239 ,49.67215 
20 ,3.9214 ,0.78339 ,5.05554 ,49.60499 
21 ,4.1290 ,0.78549 ,5.03501 ,49.40352 
22 ,4.3215 ,0.78740 ,5.01790 ,49.23563 
23 ,4.5296 ,0.78951 ,4.99737 ,49.03416 
24 ,4.7373 ,0.79151 ,4.95972 ,48.66480 
25 ,4.9138 ,0.79335 ,4.93919 ,48.46333 
26 ,5.1054 ,0.79533 ,4.92550 ,48.32902 
27 ,5.2815 ,0.79699 ,4.91866 ,48.26186 
28 ,5.4740 ,0.79894 ,4.88786 ,47.95966 
29 ,5.6820 ,0.80096 ,4.87759 ,47.85892 
30 ,5.8741 ,0.80288 ,4.83995 ,47.48956 
31 ,6.0661 ,0.80483 ,4.83995 ,47.48956 
32 ,6.2583 ,0.80679 ,4.80915 ,47.18736 
33 ,6.4498 ,0.80862 ,4.79204 ,47.01946 
34 ,6.6419 ,0.81055 ,4.78519 ,46.95231 
35 ,6.8341 ,0.81247 ,4.74413 ,46.54937 
36 ,7.0586 ,0.81470 ,4.74070 ,46.51579 
37 ,7.2825 ,0.81705 ,4.72702 ,46.38148 
38 ,7.4747 ,0.81891 ,4.69622 ,46.07927 
39 ,7.6827 ,0.82085 ,4.68595 ,45.97854 
40 ,7.8749 ,0.82291 ,4.64488 ,45.57560 
41 ,8.0671 ,0.82477 ,4.64488 ,45.57560 
42 ,8.2751 ,0.82693 ,4.61408 ,45.27339 
43 ,8.4672 ,0.82880 ,4.61066 ,45.23981 
44 ,8.6593 ,0.83075 ,4.57986 ,44.93761 
45 ,8.8674 ,0.83285 ,4.57302 ,44.87045 
46 ,9.0594 ,0.83476 ,4.54564 ,44.60183 
47 ,9.2356 ,0.83662 ,4.52853 ,44.43394 
48 ,9.4275 ,0.83840 ,4.52169 ,44.36678 
49 ,9.6193 ,0.84034 ,4.49773 ,44.13173 
50 ,9.8117 ,0.84228 ,4.47035 ,43.86310 
51 ,10.0033 ,0.84429 ,4.45324 ,43.69521 
52 ,10.1796 ,0.84599 ,4.43955 ,43.56090 
53 ,10.3557 ,0.84773 ,4.41560 ,43.32585 
54 ,10.5320 ,0.84957 ,4.40875 ,43.25870 
55 ,10.6916 ,0.85124 ,4.40533 ,43.22512 
56 ,10.8842 ,0.85299 ,4.38138 ,42.99007 
57 ,11.0760 ,0.85493 ,4.35400 ,42.72144 
58 ,11.2683 ,0.85682 ,4.36084 ,42.78860 
59 ,11.4604 ,0.85878 ,4.31636 ,42.35208 
60 ,11.6523 ,0.86063 ,4.30609 ,42.25135 
61 ,11.8445 ,0.86258 ,4.30267 ,42.21777 
62 ,12.0367 ,0.86455 ,4.27187 ,41.91556 
63 ,12.2287 ,0.86647 ,4.26845 ,41.88198 
64 ,12.4209 ,0.86838 ,4.23422 ,41.54620 
65 ,12.6128 ,0.87025 ,4.22053 ,41.41189 
66 ,12.8048 ,0.87216 ,4.20685 ,41.27758 
67 ,12.9969 ,0.87411 ,4.17947 ,41.00895 
68 ,13.2049 ,0.87620 ,4.16236 ,40.84106 
69 ,13.3812 ,0.87797 ,4.14525 ,40.67317 
70 ,13.5732 ,0.87991 ,4.11787 ,40.40454 
71 ,13.7654 ,0.88179 ,4.11445 ,40.37096 
72 ,13.9569 ,0.88372 ,4.09391 ,40.16949 
73 ,14.1336 ,0.88555 ,4.07680 ,40.00160 
74 ,14.3418 ,0.88758 ,4.04943 ,39.73297 
75 ,14.5496 ,0.88952 ,4.03916 ,39.63224 
76 ,14.7418 ,0.89153 ,4.00152 ,39.26288 
77 ,14.9498 ,0.89364 ,4.00152 ,39.26288 
78 ,15.1578 ,0.89562 ,3.99467 ,39.19572 
79 ,15.3659 ,0.89775 ,3.97072 ,38.96067 
80 ,15.5581 ,0.89965 ,3.93992 ,38.65847 
81 ,15.7342 ,0.90151 ,3.92965 ,38.55773 
82 ,15.9263 ,0.90338 ,3.92623 ,38.52415 
83 ,16.1018 ,0.90526 ,3.88858 ,38.15479 
84 ,16.2942 ,0.90718 ,3.86463 ,37.91975 
85 ,16.4864 ,0.90902 ,3.87490 ,38.02048 
86 ,16.6786 ,0.91090 ,3.83725 ,37.65112 
87 ,16.8707 ,0.91284 ,3.82356 ,37.51681 
88 ,17.0625 ,0.91478 ,3.80645 ,37.34891 
89 ,17.2547 ,0.91664 ,3.77223 ,37.01313 
90 ,17.4468 ,0.91860 ,3.78592 ,37.14744 
91 ,17.6391 ,0.92049 ,3.73117 ,36.61019 
92 ,17.8310 ,0.92244 ,3.73801 ,36.67735 
93 ,18.0231 ,0.92431 ,3.70721 ,36.37514 
94 ,18.1992 ,0.92617 ,3.68325 ,36.14010 
95 ,18.3912 ,0.92804 ,3.67299 ,36.03936 
96 ,18.5829 ,0.93002 ,3.66614 ,35.97220 
97 ,18.7748 ,0.93186 ,3.63534 ,35.67000 
98 ,18.9510 ,0.93372 ,3.63877 ,35.70358 
99 ,19.1117 ,0.93539 ,3.61823 ,35.50211 
100 ,19.3193 ,0.93731 ,3.57717 ,35.09917 
101 ,19.5117 ,0.93925 ,3.57375 ,35.06559 
102 ,19.7038 ,0.94119 ,3.56690 ,34.99843 
103 ,19.8957 ,0.94304 ,3.53952 ,34.72981 
104 ,20.0877 ,0.94501 ,3.53268 ,34.66265 
105 ,20.2959 ,0.94703 ,3.50530 ,34.39402 
106 ,20.4720 ,0.94896 ,3.49504 ,34.29329 
107 ,20.6642 ,0.95076 ,3.46424 ,33.99108 
108 ,20.8559 ,0.95266 ,3.44370 ,33.78961 
109 ,21.0323 ,0.95451 ,3.43001 ,33.65530 
110 ,21.2564 ,0.95656 ,3.40948 ,33.45383 
111 ,21.4643 ,0.95874 ,3.39579 ,33.31952 
112 ,21.6565 ,0.96068 ,3.36842 ,33.05089 
113 ,21.8487 ,0.96263 ,3.37526 ,33.11805 
114 ,22.0565 ,0.96470 ,3.33762 ,32.74869 
115 ,22.2649 ,0.96677 ,3.31708 ,32.54722 
116 ,22.4727 ,0.96884 ,3.31708 ,32.54722 
117 ,22.6650 ,0.97070 ,3.29655 ,32.34575 
118 ,22.8411 ,0.97261 ,3.25548 ,31.94281 
119 ,23.0333 ,0.97443 ,3.25548 ,31.94281 
120 ,23.2251 ,0.97634 ,3.23837 ,31.77492 
121 ,23.4013 ,0.97821 ,3.21442 ,31.53987 
122 ,23.5771 ,0.97990 ,3.19046 ,31.30482 
123 ,23.7695 ,0.98174 ,3.19388 ,31.33840 
124 ,23.9776 ,0.98388 ,3.14597 ,30.86830 
125 ,24.1693 ,0.98591 ,3.15282 ,30.93546 
126 ,24.3618 ,0.98767 ,3.11175 ,30.53252 
127 ,24.5698 ,0.98983 ,3.12202 ,30.63325 
128 ,24.7455 ,0.99159 ,3.10833 ,30.49894 
129 ,24.9219 ,0.99343 ,3.07411 ,30.16316 
130 ,25.1137 ,0.99522 ,3.06726 ,30.09600 
131 ,25.3222 ,0.99730 ,3.03989 ,29.82737 
132 ,25.5142 ,0.99929 ,3.02962 ,29.72664 
133 ,25.7061 ,1.00108 ,3.01251 ,29.55875 
134 ,25.8820 ,1.00300 ,2.98513 ,29.29012 
135 ,26.0585 ,1.00469 ,2.98171 ,29.25654 
136 ,26.2504 ,1.00662 ,2.97487 ,29.18939 
137 ,26.4426 ,1.00851 ,2.93722 ,28.82003 
138 ,26.6346 ,1.01045 ,2.93038 ,28.75287 
139 ,26.8267 ,1.01236 ,2.91669 ,28.61856 
140 ,27.0349 ,1.01446 ,2.88247 ,28.28277 
141 ,27.2429 ,1.01651 ,2.87905 ,28.24919 
142 ,27.4350 ,1.01844 ,2.85509 ,28.01415 
143 ,27.6431 ,1.02042 ,2.82429 ,27.71194 
144 ,27.8352 ,1.02243 ,2.81745 ,27.64479 
145 ,28.0107 ,1.02430 ,2.80718 ,27.54405 
146 ,28.2032 ,1.02612 ,2.77980 ,27.27542 
147 ,28.4274 ,1.02838 ,2.76954 ,27.17469 
148 ,28.6033 ,1.03024 ,2.74216 ,26.90606 
149 ,28.7955 ,1.03202 ,2.73189 ,26.80533 
150 ,29.0036 ,1.03415 ,2.72163 ,26.70459 
151 ,29.1957 ,1.03605 ,2.69767 ,26.46954 
152 ,29.4037 ,1.03809 ,2.67714 ,26.26807 
153 ,29.5956 ,1.04000 ,2.67029 ,26.20092 
154 ,29.7878 ,1.04193 ,2.65318 ,26.03303 
155 ,29.9958 ,1.04400 ,2.62238 ,25.73082 
156 ,30.1716 ,1.04585 ,2.61896 ,25.69724 
157 ,30.3641 ,1.04776 ,2.60527 ,25.56293 
158 ,30.5718 ,1.04979 ,2.59501 ,25.46220 
159 ,30.7485 ,1.05157 ,2.57447 ,25.26073 
160 ,30.9560 ,1.05362 ,2.53683 ,24.89136 
161 ,31.1484 ,1.05553 ,2.53341 ,24.85779 
162 ,31.3400 ,1.05743 ,2.50945 ,24.62274 
163 ,31.5165 ,1.05925 ,2.49234 ,24.45485 
164 ,31.7085 ,1.06126 ,2.47181 ,24.25338 
165 ,31.9008 ,1.06301 ,2.44443 ,23.98475 
166 ,32.1088 ,1.06514 ,2.45127 ,24.05191 
167 ,32.3166 ,1.06721 ,2.42390 ,23.78328 
168 ,32.5089 ,1.06909 ,2.42390 ,23.78328 
169 ,32.7008 ,1.07116 ,2.38625 ,23.41392 
170 ,32.8927 ,1.07294 ,2.38968 ,23.44750 
171 ,33.0851 ,1.07489 ,2.37941 ,23.34676 
172 ,33.2932 ,1.07702 ,2.34177 ,22.97740 
173 ,33.4849 ,1.07888 ,2.34177 ,22.97740 
174 ,33.6774 ,1.08087 ,2.30070 ,22.57446 
175 ,33.8695 ,1.08276 ,2.30754 ,22.64162 
176 ,34.0616 ,1.08474 ,2.27674 ,22.33941 
177 ,34.2378 ,1.08648 ,2.24937 ,22.07079 
178 ,34.4456 ,1.08852 ,2.25279 ,22.10437 
179 ,34.6378 ,1.09043 ,2.22199 ,21.80216 
180 ,34.8457 ,1.09255 ,2.21515 ,21.73500 
181 ,35.0381 ,1.09442 ,2.19119 ,21.49996 
182 ,35.2302 ,1.09640 ,2.17408 ,21.33206 
183 ,35.4222 ,1.09828 ,2.16723 ,21.26491 
184 ,35.6139 ,1.10021 ,2.13644 ,20.96270 
185 ,35.8063 ,1.10207 ,2.15012 ,21.09702 
186 ,36.0301 ,1.10443 ,2.12617 ,20.86197 
187 ,36.2388 ,1.10646 ,2.09195 ,20.52619 
188 ,36.4465 ,1.10849 ,2.09879 ,20.59334 
189 ,36.6386 ,1.11044 ,2.06115 ,20.22398 
190 ,36.8307 ,1.11232 ,2.05773 ,20.19040 
191 ,37.0389 ,1.11439 ,2.05430 ,20.15682 
192 ,37.2310 ,1.11639 ,2.02693 ,19.88820 
193 ,37.4230 ,1.11825 ,2.02350 ,19.85462 
194 ,37.6152 ,1.12023 ,1.99613 ,19.58599 
195 ,37.7909 ,1.12206 ,1.99613 ,19.58599 
196 ,37.9832 ,1.12389 ,1.96533 ,19.28379 
197 ,38.1913 ,1.12593 ,1.96190 ,19.25021 
198 ,38.3834 ,1.12787 ,1.93795 ,19.01516 
199 ,38.5915 ,1.12998 ,1.92084 ,18.84727 
200 ,38.7835 ,1.13189 ,1.91057 ,18.74654 
201 ,38.9752 ,1.13375 ,1.89346 ,18.57864 
202 ,39.1516 ,1.13560 ,1.89004 ,18.54507 
203 ,39.3437 ,1.13746 ,1.86266 ,18.27644 
204 ,39.5359 ,1.13939 ,1.84555 ,18.10855 
205 ,39.7439 ,1.14148 ,1.84897 ,18.14213 
206 ,39.9200 ,1.14326 ,1.82160 ,17.87350 
207 ,40.1120 ,1.14527 ,1.80791 ,17.73919 
208 ,40.3202 ,1.14724 ,1.79422 ,17.60487 
209 ,40.5123 ,1.14915 ,1.77369 ,17.40340 
210 ,40.7043 ,1.15108 ,1.77026 ,17.36983 
211 ,40.8962 ,1.15299 ,1.73946 ,17.06762 
212 ,41.0881 ,1.15488 ,1.74289 ,17.10120 
213 ,41.2805 ,1.15688 ,1.71551 ,16.83257 
214 ,41.4565 ,1.15863 ,1.70524 ,16.73184 
215 ,41.6486 ,1.16054 ,1.70182 ,16.69826 
216 ,41.8407 ,1.16239 ,1.67444 ,16.42963 
217 ,42.0327 ,1.16438 ,1.67102 ,16.39605 
218 ,42.2090 ,1.16615 ,1.66760 ,16.36248 
219 ,42.4008 ,1.16804 ,1.63338 ,16.02669 
220 ,42.6092 ,1.16998 ,1.62995 ,15.99311 
221 ,42.8173 ,1.17217 ,1.60600 ,15.75807 
222 ,43.0093 ,1.17416 ,1.61627 ,15.85880 
223 ,43.2010 ,1.17612 ,1.58204 ,15.52302 
224 ,43.3935 ,1.17797 ,1.56836 ,15.38871 
225 ,43.6015 ,1.18004 ,1.55809 ,15.28797 
226 ,43.7936 ,1.18193 ,1.55124 ,15.22081 
227 ,43.9534 ,1.18372 ,1.53756 ,15.08650 
228 ,44.1619 ,1.18550 ,1.52045 ,14.91861 
229 ,44.3700 ,1.18772 ,1.51360 ,14.85145 
230 ,44.5619 ,1.18961 ,1.48622 ,14.58283 
231 ,44.7543 ,1.19152 ,1.47253 ,14.44851 
232 ,44.9619 ,1.19365 ,1.46569 ,14.38136 
233 ,45.1542 ,1.19553 ,1.45542 ,14.28062 
234 ,45.3460 ,1.19748 ,1.44858 ,14.21346 
235 ,45.5385 ,1.19942 ,1.40751 ,13.81053 
236 ,45.7460 ,1.20155 ,1.42120 ,13.94484 
237 ,45.9225 ,1.20327 ,1.39383 ,13.67621 
238 ,46.0984 ,1.20503 ,1.37329 ,13.47474 
239 ,46.2907 ,1.20693 ,1.37671 ,13.50832 
240 ,46.4823 ,1.20900 ,1.35276 ,13.27327 
241 ,46.6750 ,1.21075 ,1.34934 ,13.23969 
242 ,46.8665 ,1.21266 ,1.33907 ,13.13896 
243 ,47.0426 ,1.21454 ,1.30827 ,12.83675 
244 ,47.2509 ,1.21639 ,1.30143 ,12.76960 
245 ,47.4431 ,1.21844 ,1.29116 ,12.66886 
246 ,47.6353 ,1.22037 ,1.27747 ,12.53455 
247 ,47.8437 ,1.22242 ,1.27063 ,12.46739 
248 ,48.0514 ,1.22454 ,1.25009 ,12.26592 
249 ,48.2273 ,1.22631 ,1.24325 ,12.19877 
250 ,48.4196 ,1.22822 ,1.21929 ,11.96372 
251 ,48.6112 ,1.23012 ,1.21245 ,11.89656 
252 ,48.8038 ,1.23204 ,1.21245 ,11.89656 
253 ,49.0117 ,1.23410 ,1.19192 ,11.69509 
254 ,49.2034 ,1.23602 ,1.17481 ,11.52720 
255 ,49.3801 ,1.23781 ,1.15770 ,11.35931 
256 ,49.5879 ,1.23983 ,1.16796 ,11.46004 
257 ,49.7801 ,1.24182 ,1.13032 ,11.09068 
258 ,49.9880 ,1.24382 ,1.14401 ,11.22500 
259 ,50.1642 ,1.24566 ,1.12005 ,10.98995 
260 ,50.3562 ,1.24754 ,1.10294 ,10.82206 
261 ,50.5485 ,1.24942 ,1.09952 ,10.78848 
262 ,50.7561 ,1.25155 ,1.05845 ,10.38554 
263 ,50.9486 ,1.25343 ,1.07556 ,10.55343 
264 ,51.1563 ,1.25557 ,1.03792 ,10.18407 
265 ,51.3489 ,1.25742 ,1.06187 ,10.41912 
266 ,51.5409 ,1.25937 ,1.01739 ,9.98260 
267 ,51.7329 ,1.26131 ,1.01739 ,9.98260 
268 ,51.9085 ,1.26318 ,1.00028 ,9.81471 
269 ,52.0852 ,1.26488 ,1.00370 ,9.84829 
270 ,52.3092 ,1.26701 ,0.98317 ,9.64682 
271 ,52.5173 ,1.26912 ,0.95921 ,9.41177 
272 ,52.7093 ,1.27111 ,0.96605 ,9.47892 
273 ,52.9011 ,1.27303 ,0.93183 ,9.14314 
274 ,53.0935 ,1.27492 ,0.93525 ,9.17672 
275 ,53.2853 ,1.27685 ,0.92499 ,9.07598 
276 ,53.4777 ,1.27871 ,0.90103 ,8.84094 
277 ,53.6858 ,1.28083 ,0.89419 ,8.77378 
278 ,53.8778 ,1.28275 ,0.87366 ,8.57231 
279 ,54.0535 ,1.28462 ,0.88050 ,8.63947 
280 ,54.2458 ,1.28638 ,0.86339 ,8.47158 
281 ,54.4216 ,1.28825 ,0.83943 ,8.23653 
282 ,54.5980 ,1.28998 ,0.82917 ,8.13579 
283 ,54.7903 ,1.29182 ,0.83601 ,8.20295 
284 ,54.9982 ,1.29392 ,0.80179 ,7.86717 
285 ,55.1738 ,1.29574 ,0.80521 ,7.90074 
286 ,55.3824 ,1.29784 ,0.79837 ,7.83359 
287 ,55.5905 ,1.29991 ,0.77784 ,7.63212 
288 ,55.7666 ,1.30174 ,0.77441 ,7.59854 
289 ,55.9747 ,1.30371 ,0.75730 ,7.43065 
290 ,56.1502 ,1.30559 ,0.75388 ,7.39707 
291 ,56.3428 ,1.30740 ,0.73677 ,7.22918 
292 ,56.5350 ,1.30935 ,0.71624 ,7.02771 
293 ,56.7431 ,1.31144 ,0.70597 ,6.92697 
294 ,56.9350 ,1.31335 ,0.69228 ,6.79266 
295 ,57.1269 ,1.31521 ,0.69570 ,6.82624 
296 ,57.3028 ,1.31711 ,0.66833 ,6.55761 
297 ,57.4951 ,1.31885 ,0.66490 ,6.52403 
298 ,57.7033 ,1.32097 ,0.64437 ,6.32256 
299 ,57.8794 ,1.32282 ,0.63068 ,6.18825 
300 ,58.0876 ,1.32485 ,0.65121 ,6.38972 
301 ,58.2953 ,1.32689 ,0.62042 ,6.08752 
302 ,58.4875 ,1.32888 ,0.61357 ,6.02036 
303 ,58.6797 ,1.33072 ,0.59304 ,5.81889 
304 ,58.8718 ,1.33272 ,0.58962 ,5.78531 
305 ,59.0639 ,1.33461 ,0.57935 ,5.68458 
306 ,59.2561 ,1.33652 ,0.55539 ,5.44953 
307 ,59.4477 ,1.33842 ,0.55197 ,5.41595 
308 ,59.6403 ,1.34037 ,0.52459 ,5.14732 
309 ,59.8320 ,1.34226 ,0.54171 ,5.31522 
310 ,60.0244 ,1.34420 ,0.51091 ,5.01301 
311 ,60.2163 ,1.34611 ,0.49722 ,4.87870 
312 ,60.4084 ,1.34805 ,0.50406 ,4.94585 
313 ,60.5845 ,1.34993 ,0.49037 ,4.81154 
314 ,60.7606 ,1.35162 ,0.47326 ,4.64365 
315 ,60.9527 ,1.35347 ,0.46984 ,4.61007 
316 ,61.1448 ,1.35535 ,0.44588 ,4.37502 
317 ,61.3525 ,1.35735 ,0.44588 ,4.37502 
318 ,61.5453 ,1.35940 ,0.43562 ,4.27429 
319 ,61.7373 ,1.36136 ,0.40482 ,3.97208 
320 ,61.9453 ,1.36338 ,0.41509 ,4.07282 
321 ,62.1372 ,1.36532 ,0.39455 ,3.87135 
322 ,62.3293 ,1.36725 ,0.39455 ,3.87135 
323 ,62.5052 ,1.36910 ,0.37060 ,3.63630 
324 ,62.6810 ,1.37085 ,0.36718 ,3.60272 
325 ,62.8735 ,1.37271 ,0.36033 ,3.53557 
326 ,63.0816 ,1.37483 ,0.32953 ,3.23336 
327 ,63.2738 ,1.37671 ,0.32611 ,3.19978 
328 ,63.4497 ,1.37853 ,0.31242 ,3.06547 
329 ,63.6415 ,1.38038 ,0.31242 ,3.06547 
330 ,63.8335 ,1.38230 ,0.28504 ,2.79684 
331 ,64.0422 ,1.38428 ,0.29873 ,2.93116 
332 ,64.2501 ,1.38644 ,0.28504 ,2.79684 
333 ,64.4259 ,1.38829 ,0.27820 ,2.72969 
334 ,64.6342 ,1.39032 ,0.26109 ,2.56179 
335 ,64.8259 ,1.39216 ,0.25082 ,2.46106 
336 ,65.0184 ,1.39417 ,0.22002 ,2.15885 
337 ,65.2263 ,1.39627 ,0.23713 ,2.32675 
338 ,65.4186 ,1.39810 ,0.20976 ,2.05812 
339 ,65.6106 ,1.40008 ,0.20976 ,2.05812 
340 ,65.7868 ,1.40183 ,0.20291 ,1.99096 
341 ,65.9944 ,1.40383 ,0.18922 ,1.85665 
342 ,66.1868 ,1.40578 ,0.17553 ,1.72234 
343 ,66.3948 ,1.40787 ,0.16527 ,1.62160 
344 ,66.5710 ,1.40970 ,0.15842 ,1.55445 
345 ,66.7630 ,1.41153 ,0.13789 ,1.35298 
346 ,66.9387 ,1.41336 ,0.12420 ,1.21866 
347 ,67.1307 ,1.41523 ,0.12762 ,1.25224 
348 ,67.3229 ,1.41715 ,0.11051 ,1.08435 
349 ,67.5630 ,1.41957 ,0.08314 ,0.81572 
350 ,67.7555 ,1.42147 ,0.08998 ,0.88288 
351 ,67.9635 ,1.42357 ,0.06945 ,0.68141 
352 ,68.1393 ,1.42539 ,0.05234 ,0.51352 
353 ,68.3317 ,1.42725 ,0.06602 ,0.64783 
354 ,68.5236 ,1.42926 ,0.03865 ,0.37920 
355 ,68.6996 ,1.43100 ,0.03180 ,0.31205 
356 ,68.8921 ,1.43286 ,0.02496 ,0.24489 
357 ,69.0841 ,1.43476 ,0.01469 ,0.14416 
358 ,69.2920 ,1.43684 ,0.02154 ,0.21131 
359 ,69.4842 ,1.43877 ,-0.00242 ,-0.02373 
360 ,69.6763 ,1.44062 ,-0.01269 ,-0.12447 
361 ,69.8843 ,1.44279 ,-0.01269 ,-0.12447 
362 ,70.0765 ,1.44466 ,-0.02637 ,-0.25878 
363 ,70.2842 ,1.44674 ,-0.05375 ,-0.52741 
364 ,70.4926 ,1.44874 ,-0.05033 ,-0.49383 
365 ,70.6848 ,1.45085 ,-0.06402 ,-0.62814 
366 ,70.8768 ,1.45266 ,-0.08113 ,-0.79604 
367 ,71.0529 ,1.45454 ,-0.07086 ,-0.69530 
368 ,71.2451 ,1.45632 ,-0.09482 ,-0.93035 
369 ,71.4369 ,1.45828 ,-0.10508 ,-1.03108 
370 ,71.6130 ,1.46008 ,-0.11535 ,-1.13182 
371 ,71.7892 ,1.46184 ,-0.12219 ,-1.19898 
372 ,71.9812 ,1.46377 ,-0.13931 ,-1.36687 
373 ,72.1734 ,1.46560 ,-0.12904 ,-1.26613 
374 ,72.3652 ,1.46753 ,-0.14957 ,-1.46760 
375 ,72.5575 ,1.46948 ,-0.15642 ,-1.53476 
376 ,72.7654 ,1.47159 ,-0.17695 ,-1.73623 
377 ,72.9574 ,1.47344 ,-0.18379 ,-1.80338 
378 ,73.1498 ,1.47548 ,-0.18379 ,-1.80338 
379 ,73.3577 ,1.47745 ,-0.20775 ,-2.03843 
380 ,73.5335 ,1.47927 ,-0.21802 ,-2.13917 
381 ,73.7260 ,1.48112 ,-0.21802 ,-2.13917 
382 ,73.9341 ,1.48324 ,-0.23170 ,-2.27348 
383 ,74.1263 ,1.48515 ,-0.24881 ,-2.44137 
384 ,74.3342 ,1.48713 ,-0.25908 ,-2.54211 
385 ,74.5258 ,1.48923 ,-0.25908 ,-2.54211 
386 ,74.7019 ,1.49099 ,-0.28646 ,-2.81073 
387 ,74.8780 ,1.49280 ,-0.28304 ,-2.77716 
388 ,75.0541 ,1.49455 ,-0.28304 ,-2.77716 
389 ,75.2462 ,1.49631 ,-0.30015 ,-2.94505 
390 ,75.4383 ,1.49828 ,-0.31726 ,-3.11294 
391 ,75.6303 ,1.50020 ,-0.30357 ,-2.97863 
392 ,75.8225 ,1.50208 ,-0.34464 ,-3.38156 
393 ,76.0145 ,1.50399 ,-0.34121 ,-3.34799 
394 ,76.1905 ,1.50590 ,-0.33095 ,-3.24725 
395 ,76.3827 ,1.50770 ,-0.36859 ,-3.61661 
396 ,76.5747 ,1.50959 ,-0.36517 ,-3.58303 
397 ,76.7508 ,1.51151 ,-0.37201 ,-3.65019 
398 ,76.9429 ,1.51334 ,-0.38912 ,-3.81808 
399 ,77.1350 ,1.51526 ,-0.39255 ,-3.85166 
400 ,77.3109 ,1.51713 ,-0.39597 ,-3.88524 
401 ,77.5031 ,1.51889 ,-0.40966 ,-4.01955 
402 ,77.6952 ,1.52077 ,-0.41992 ,-4.12029 
403 ,77.8873 ,1.52272 ,-0.41650 ,-4.08671 
404 ,78.0793 ,1.52484 ,-0.45072 ,-4.42249 
405 ,78.2713 ,1.52656 ,-0.44730 ,-4.38891 
406 ,78.4635 ,1.52851 ,-0.46783 ,-4.59038 
407 ,78.6556 ,1.53039 ,-0.46441 ,-4.55681 
408 ,78.8316 ,1.53231 ,-0.46441 ,-4.55681 
409 ,79.0236 ,1.53409 ,-0.48837 ,-4.79185 
410 ,79.2158 ,1.53602 ,-0.49521 ,-4.85901 
411 ,79.4082 ,1.53795 ,-0.49863 ,-4.89259 
412 ,79.6164 ,1.54002 ,-0.52259 ,-5.12764 
413 ,79.8244 ,1.54212 ,-0.51917 ,-5.09406 
414 ,80.0162 ,1.54403 ,-0.54312 ,-5.32911 
415 ,80.1921 ,1.54596 ,-0.52943 ,-5.19479 
416 ,80.4004 ,1.54787 ,-0.56365 ,-5.53058 
417 ,80.5923 ,1.54992 ,-0.54997 ,-5.39626 
418 ,80.7844 ,1.55170 ,-0.56023 ,-5.49700 
419 ,80.9927 ,1.55367 ,-0.58761 ,-5.76562 
420 ,81.2011 ,1.55588 ,-0.59103 ,-5.79920 
421 ,81.4091 ,1.55791 ,-0.58419 ,-5.73205 
422 ,81.5852 ,1.55977 ,-0.60472 ,-5.93352 
423 ,81.7932 ,1.56170 ,-0.61841 ,-6.06783 
424 ,82.0014 ,1.56378 ,-0.62525 ,-6.13499 
425 ,82.1934 ,1.56582 ,-0.63210 ,-6.20214 
426 ,82.4015 ,1.56785 ,-0.64579 ,-6.33646 
427 ,82.5936 ,1.56993 ,-0.65605 ,-6.43719 
428 ,82.7854 ,1.57171 ,-0.65947 ,-6.47077 
429 ,82.9782 ,1.57361 ,-0.67316 ,-6.60508 
430 ,83.1856 ,1.57569 ,-0.67316 ,-6.60508 
431 ,83.3615 ,1.57760 ,-0.70396 ,-6.90729 
432 ,83.5540 ,1.57939 ,-0.69370 ,-6.80655 
433 ,83.7463 ,1.58132 ,-0.68343 ,-6.70582 
434 ,83.9382 ,1.58328 ,-0.72450 ,-7.10876 
435 ,84.1303 ,1.58518 ,-0.71423 ,-7.00802 
436 ,84.3223 ,1.58705 ,-0.73818 ,-7.24307 
437 ,84.4983 ,1.58895 ,-0.73476 ,-7.20949 
438 ,84.6905 ,1.59076 ,-0.73134 ,-7.17591 
439 ,84.8983 ,1.59283 ,-0.75872 ,-7.44454 
440 ,85.0905 ,1.59471 ,-0.76556 ,-7.51170 
441 ,85.2827 ,1.59669 ,-0.78952 ,-7.74674 
442 ,85.4585 ,1.59850 ,-0.79636 ,-7.81390 
443 ,85.6505 ,1.60038 ,-0.79636 ,-7.81390 
444 ,85.8429 ,1.60229 ,-0.81005 ,-7.94821 
445 ,86.0351 ,1.60423 ,-0.81005 ,-7.94821 
446 ,86.2271 ,1.60611 ,-0.81689 ,-8.01537 
447 ,86.4191 ,1.60803 ,-0.84427 ,-8.28400 
448 ,86.6107 ,1.60999 ,-0.83058 ,-8.14968 
449 ,86.8192 ,1.61194 ,-0.84769 ,-8.31758 
450 ,87.0114 ,1.61400 ,-0.84085 ,-8.25042 
451 ,87.2035 ,1.61589 ,-0.86481 ,-8.48547 
452 ,87.3955 ,1.61783 ,-0.87849 ,-8.61978 
453 ,87.6035 ,1.61988 ,-0.88192 ,-8.65336 
454 ,87.7957 ,1.62175 ,-0.89218 ,-8.75409 
455 ,88.0038 ,1.62386 ,-0.91272 ,-8.95556 
456 ,88.1956 ,1.62579 ,-0.91272 ,-8.95556 
457 ,88.4200 ,1.62809 ,-0.92983 ,-9.12345 
458 ,88.6121 ,1.62996 ,-0.92640 ,-9.08988 
459 ,88.8201 ,1.63207 ,-0.94351 ,-9.25777 
460 ,89.0118 ,1.63401 ,-0.92640 ,-9.08988 
461 ,89.2037 ,1.63587 ,-0.94009 ,-9.22419 
462 ,89.3958 ,1.63784 ,-0.97774 ,-9.59355 
463 ,89.5879 ,1.63974 ,-0.95036 ,-9.32492 
