Data stamp = , 27-04-2022 04:57:33 748

Calibration Values: 
Slope = , 26.54 , g/V 
Offset Voltage at no contact = , -0.501760 , V 

No , Time , Stage Position ,   Mass , Force 
   ,  (s) ,      (mm)      ,   (g)  , (mN)  

1 ,0.0000 ,0.74939 ,5.31221 ,52.12337 
2 ,0.2942 ,0.74959 ,5.30878 ,52.08979 
3 ,0.6623 ,0.75092 ,5.28825 ,51.88832 
4 ,0.8383 ,0.75273 ,5.30194 ,52.02263 
5 ,1.0307 ,0.75449 ,5.29852 ,51.98905 
6 ,1.2550 ,0.75663 ,5.30878 ,52.08979 
7 ,1.4631 ,0.75870 ,5.29167 ,51.92190 
8 ,1.6387 ,0.76064 ,5.29852 ,51.98905 
9 ,1.8473 ,0.76258 ,5.26430 ,51.65327 
10 ,2.0713 ,0.76477 ,5.25061 ,51.51896 
11 ,2.2635 ,0.76679 ,5.22665 ,51.28391 
12 ,2.4397 ,0.76863 ,5.23007 ,51.31749 
13 ,2.6158 ,0.77033 ,5.21296 ,51.14960 
14 ,2.8075 ,0.77221 ,5.17874 ,50.81381 
15 ,2.9999 ,0.77414 ,5.16505 ,50.67950 
16 ,3.1757 ,0.77602 ,5.16163 ,50.64592 
17 ,3.3679 ,0.77785 ,5.12741 ,50.31014 
18 ,3.5441 ,0.77966 ,5.10345 ,50.07509 
19 ,3.7357 ,0.78147 ,5.11030 ,50.14225 
20 ,3.9282 ,0.78339 ,5.07950 ,49.84004 
21 ,4.1362 ,0.78543 ,5.07265 ,49.77289 
22 ,4.3283 ,0.78736 ,5.03159 ,49.36995 
23 ,4.5044 ,0.78922 ,5.01790 ,49.23563 
24 ,4.6962 ,0.79104 ,5.01448 ,49.20205 
25 ,4.8722 ,0.79294 ,4.97683 ,48.83269 
26 ,5.0644 ,0.79473 ,4.96657 ,48.73196 
27 ,5.2407 ,0.79658 ,4.93577 ,48.42975 
28 ,5.4325 ,0.79843 ,4.94261 ,48.49691 
29 ,5.6249 ,0.80036 ,4.91866 ,48.26186 
30 ,5.8008 ,0.80225 ,4.90497 ,48.12755 
31 ,5.9929 ,0.80403 ,4.89128 ,47.99324 
32 ,6.1689 ,0.80587 ,4.87417 ,47.82534 
33 ,6.3451 ,0.80762 ,4.83310 ,47.42240 
34 ,6.5372 ,0.80945 ,4.83652 ,47.45598 
35 ,6.7292 ,0.81136 ,4.80573 ,47.15378 
36 ,6.9051 ,0.81323 ,4.78177 ,46.91873 
37 ,7.1135 ,0.81528 ,4.77150 ,46.81800 
38 ,7.3215 ,0.81734 ,4.75782 ,46.68368 
39 ,7.4976 ,0.81913 ,4.72359 ,46.34790 
40 ,7.6736 ,0.82095 ,4.71333 ,46.24716 
41 ,7.8657 ,0.82276 ,4.68937 ,46.01212 
42 ,8.0413 ,0.82455 ,4.67226 ,45.84422 
43 ,8.2339 ,0.82646 ,4.67568 ,45.87780 
44 ,8.4421 ,0.82852 ,4.63119 ,45.44128 
45 ,8.6339 ,0.83041 ,4.64146 ,45.54202 
46 ,8.8581 ,0.83275 ,4.59013 ,45.03835 
47 ,9.0502 ,0.83464 ,4.60382 ,45.17266 
48 ,9.2260 ,0.83640 ,4.57644 ,44.90403 
49 ,9.4023 ,0.83818 ,4.54564 ,44.60183 
50 ,9.5782 ,0.83997 ,4.53537 ,44.50109 
51 ,9.7701 ,0.84187 ,4.53880 ,44.53467 
52 ,9.9466 ,0.84360 ,4.51484 ,44.29962 
53 ,10.1547 ,0.84567 ,4.48746 ,44.03100 
54 ,10.3467 ,0.84753 ,4.46693 ,43.82953 
55 ,10.5388 ,0.84945 ,4.43271 ,43.49374 
56 ,10.7309 ,0.85139 ,4.44640 ,43.62806 
57 ,10.9390 ,0.85349 ,4.41902 ,43.35943 
58 ,11.1471 ,0.85547 ,4.41218 ,43.29227 
59 ,11.3386 ,0.85748 ,4.37111 ,42.88933 
60 ,11.5153 ,0.85927 ,4.36084 ,42.78860 
61 ,11.7072 ,0.86117 ,4.33689 ,42.55355 
62 ,11.8994 ,0.86315 ,4.31978 ,42.38566 
63 ,12.0914 ,0.86503 ,4.31293 ,42.31850 
64 ,12.2836 ,0.86690 ,4.27529 ,41.94914 
65 ,12.4916 ,0.86898 ,4.27871 ,41.98272 
66 ,12.6993 ,0.87111 ,4.23422 ,41.54620 
67 ,12.8917 ,0.87299 ,4.23765 ,41.57978 
68 ,13.0999 ,0.87503 ,4.20685 ,41.27758 
69 ,13.3080 ,0.87708 ,4.20000 ,41.21042 
70 ,13.4836 ,0.87910 ,4.17605 ,40.97537 
71 ,13.6760 ,0.88080 ,4.15894 ,40.80748 
72 ,13.8522 ,0.88264 ,4.14867 ,40.70674 
73 ,14.0603 ,0.88468 ,4.11787 ,40.40454 
74 ,14.2523 ,0.88659 ,4.11787 ,40.40454 
75 ,14.4444 ,0.88854 ,4.08707 ,40.10233 
76 ,14.6204 ,0.89042 ,4.05285 ,39.76655 
77 ,14.8124 ,0.89221 ,4.05969 ,39.83371 
78 ,15.0047 ,0.89411 ,4.02205 ,39.46435 
79 ,15.1966 ,0.89602 ,4.01178 ,39.36361 
80 ,15.3889 ,0.89797 ,3.98441 ,39.09499 
81 ,15.5805 ,0.89994 ,3.96387 ,38.89352 
82 ,15.7729 ,0.90179 ,3.98783 ,39.12856 
83 ,15.9810 ,0.90382 ,3.92623 ,38.52415 
84 ,16.1891 ,0.90586 ,3.92965 ,38.55773 
85 ,16.3812 ,0.90781 ,3.90912 ,38.35626 
86 ,16.5732 ,0.90984 ,3.89543 ,38.22195 
87 ,16.7653 ,0.91173 ,3.87147 ,37.98690 
88 ,16.9414 ,0.91354 ,3.84067 ,37.68470 
89 ,17.1491 ,0.91551 ,3.84067 ,37.68470 
90 ,17.3256 ,0.91736 ,3.81672 ,37.44965 
91 ,17.5336 ,0.91941 ,3.80645 ,37.34891 
92 ,17.7258 ,0.92132 ,3.77908 ,37.08029 
93 ,17.9180 ,0.92333 ,3.76196 ,36.91240 
94 ,18.1258 ,0.92529 ,3.74485 ,36.74450 
95 ,18.3016 ,0.92715 ,3.72432 ,36.54303 
96 ,18.4780 ,0.92886 ,3.71405 ,36.44230 
97 ,18.6859 ,0.93091 ,3.68668 ,36.17367 
98 ,18.8940 ,0.93298 ,3.68325 ,36.14010 
99 ,19.0703 ,0.93485 ,3.67641 ,36.07294 
100 ,19.2783 ,0.93680 ,3.64219 ,35.73716 
101 ,19.4705 ,0.93874 ,3.65246 ,35.83789 
102 ,19.6620 ,0.94078 ,3.59770 ,35.30064 
103 ,19.8386 ,0.94247 ,3.58059 ,35.13275 
104 ,20.0302 ,0.94445 ,3.57375 ,35.06559 
105 ,20.2228 ,0.94629 ,3.55321 ,34.86412 
106 ,20.4308 ,0.94823 ,3.53952 ,34.72981 
107 ,20.6388 ,0.95049 ,3.51215 ,34.46118 
108 ,20.8307 ,0.95238 ,3.50872 ,34.42760 
109 ,21.0226 ,0.95438 ,3.48477 ,34.19255 
110 ,21.2151 ,0.95620 ,3.47450 ,34.09182 
111 ,21.4231 ,0.95831 ,3.43686 ,33.72246 
112 ,21.5992 ,0.96009 ,3.42659 ,33.62172 
113 ,21.7913 ,0.96205 ,3.43001 ,33.65530 
114 ,21.9833 ,0.96388 ,3.39237 ,33.28594 
115 ,22.1594 ,0.96567 ,3.37868 ,33.15163 
116 ,22.3355 ,0.96744 ,3.37526 ,33.11805 
117 ,22.5117 ,0.96926 ,3.35815 ,32.95016 
118 ,22.7035 ,0.97104 ,3.32393 ,32.61437 
119 ,22.8797 ,0.97292 ,3.31708 ,32.54722 
120 ,23.0873 ,0.97489 ,3.31024 ,32.48006 
121 ,23.2639 ,0.97669 ,3.29655 ,32.34575 
122 ,23.4720 ,0.97868 ,3.26233 ,32.00996 
123 ,23.6642 ,0.98069 ,3.23837 ,31.77492 
124 ,23.8561 ,0.98255 ,3.23837 ,31.77492 
125 ,24.0642 ,0.98465 ,3.19388 ,31.33840 
126 ,24.2398 ,0.98655 ,3.20073 ,31.40555 
127 ,24.4323 ,0.98838 ,3.19046 ,31.30482 
128 ,24.6243 ,0.99031 ,3.15966 ,31.00262 
129 ,24.8325 ,0.99230 ,3.13571 ,30.76757 
130 ,25.0406 ,0.99445 ,3.10833 ,30.49894 
131 ,25.2326 ,0.99637 ,3.10149 ,30.43178 
132 ,25.4246 ,0.99841 ,3.08438 ,30.26389 
133 ,25.6169 ,1.00028 ,3.06042 ,30.02884 
134 ,25.8249 ,1.00229 ,3.05700 ,29.99527 
135 ,26.0330 ,1.00437 ,3.04331 ,29.86095 
136 ,26.2407 ,1.00644 ,3.00567 ,29.49159 
137 ,26.4329 ,1.00834 ,3.00909 ,29.52517 
138 ,26.6250 ,1.01026 ,2.96460 ,29.08865 
139 ,26.8012 ,1.01213 ,2.96802 ,29.12223 
140 ,27.0094 ,1.01401 ,2.95433 ,28.98792 
141 ,27.2016 ,1.01609 ,2.92353 ,28.68571 
142 ,27.4096 ,1.01810 ,2.91669 ,28.61856 
143 ,27.6017 ,1.02004 ,2.87905 ,28.24919 
144 ,27.8095 ,1.02210 ,2.88589 ,28.31635 
145 ,28.0180 ,1.02418 ,2.85167 ,27.98057 
146 ,28.2097 ,1.02609 ,2.85851 ,28.04772 
147 ,28.4180 ,1.02819 ,2.81402 ,27.61121 
148 ,28.6101 ,1.03011 ,2.81745 ,27.64479 
149 ,28.8021 ,1.03201 ,2.80376 ,27.51047 
150 ,28.9938 ,1.03398 ,2.77638 ,27.24185 
151 ,29.1864 ,1.03581 ,2.77638 ,27.24185 
152 ,29.3945 ,1.03800 ,2.74216 ,26.90606 
153 ,29.5864 ,1.03985 ,2.72505 ,26.73817 
154 ,29.7786 ,1.04179 ,2.70794 ,26.57028 
155 ,29.9863 ,1.04389 ,2.69425 ,26.43597 
156 ,30.1627 ,1.04567 ,2.68056 ,26.30165 
157 ,30.3544 ,1.04752 ,2.66687 ,26.16734 
158 ,30.5307 ,1.04940 ,2.65318 ,26.03303 
159 ,30.7226 ,1.05123 ,2.62923 ,25.79798 
160 ,30.9149 ,1.05319 ,2.60527 ,25.56293 
161 ,31.1066 ,1.05511 ,2.59501 ,25.46220 
162 ,31.2990 ,1.05699 ,2.58132 ,25.32788 
163 ,31.4912 ,1.05894 ,2.57105 ,25.22715 
164 ,31.7152 ,1.06100 ,2.54025 ,24.92494 
165 ,31.8914 ,1.06297 ,2.51972 ,24.72347 
166 ,32.0836 ,1.06483 ,2.49918 ,24.52200 
167 ,32.2754 ,1.06680 ,2.48207 ,24.35411 
168 ,32.4676 ,1.06865 ,2.48550 ,24.38769 
169 ,32.6597 ,1.07059 ,2.44785 ,24.01833 
170 ,32.8354 ,1.07240 ,2.45127 ,24.05191 
171 ,33.0279 ,1.07423 ,2.43759 ,23.91759 
172 ,33.2198 ,1.07623 ,2.40679 ,23.61539 
173 ,33.4122 ,1.07820 ,2.41021 ,23.64897 
174 ,33.6039 ,1.08003 ,2.37256 ,23.27961 
175 ,33.7961 ,1.08199 ,2.34861 ,23.04456 
176 ,33.9880 ,1.08382 ,2.35203 ,23.07814 
177 ,34.1804 ,1.08585 ,2.32808 ,22.84309 
178 ,34.3882 ,1.08793 ,2.31439 ,22.70877 
179 ,34.5805 ,1.08981 ,2.28359 ,22.40657 
180 ,34.7564 ,1.09158 ,2.26648 ,22.23868 
181 ,34.9487 ,1.09341 ,2.27332 ,22.30584 
182 ,35.1407 ,1.09543 ,2.24252 ,22.00363 
183 ,35.3490 ,1.09747 ,2.23910 ,21.97005 
184 ,35.5409 ,1.09941 ,2.21172 ,21.70143 
185 ,35.7331 ,1.10136 ,2.19803 ,21.56711 
186 ,35.9252 ,1.10324 ,2.18092 ,21.39922 
187 ,36.1171 ,1.10515 ,2.16723 ,21.26491 
188 ,36.3090 ,1.10713 ,2.14670 ,21.06344 
189 ,36.5173 ,1.10917 ,2.12959 ,20.89555 
190 ,36.6932 ,1.11098 ,2.11590 ,20.76123 
191 ,36.9016 ,1.11299 ,2.09195 ,20.52619 
192 ,37.0935 ,1.11496 ,2.07484 ,20.35829 
193 ,37.2857 ,1.11694 ,2.05088 ,20.12325 
194 ,37.4615 ,1.11867 ,2.05430 ,20.15682 
195 ,37.6694 ,1.12070 ,2.03377 ,19.95535 
196 ,37.8457 ,1.12249 ,2.02350 ,19.85462 
197 ,38.0380 ,1.12439 ,2.00639 ,19.68673 
198 ,38.2298 ,1.12625 ,1.99955 ,19.61957 
199 ,38.4381 ,1.12840 ,1.96533 ,19.28379 
200 ,38.6623 ,1.13066 ,1.95506 ,19.18305 
201 ,38.8703 ,1.13273 ,1.95848 ,19.21663 
202 ,39.0463 ,1.13450 ,1.93111 ,18.94801 
203 ,39.2381 ,1.13649 ,1.90715 ,18.71296 
204 ,39.4300 ,1.13834 ,1.88662 ,18.51149 
205 ,39.6227 ,1.14017 ,1.87293 ,18.37717 
206 ,39.8306 ,1.14216 ,1.84897 ,18.14213 
207 ,40.0388 ,1.14437 ,1.85240 ,18.17570 
208 ,40.2150 ,1.14619 ,1.82844 ,17.94066 
209 ,40.4226 ,1.14820 ,1.82160 ,17.87350 
210 ,40.6151 ,1.15017 ,1.80106 ,17.67203 
211 ,40.8392 ,1.15224 ,1.79422 ,17.60487 
212 ,41.0473 ,1.15446 ,1.77711 ,17.43698 
213 ,41.2393 ,1.15634 ,1.75315 ,17.20193 
214 ,41.4312 ,1.15831 ,1.76000 ,17.26909 
215 ,41.6235 ,1.16033 ,1.72920 ,16.96689 
216 ,41.7996 ,1.16199 ,1.71551 ,16.83257 
217 ,41.9916 ,1.16389 ,1.70524 ,16.73184 
218 ,42.1836 ,1.16580 ,1.69155 ,16.59752 
219 ,42.3919 ,1.16794 ,1.67786 ,16.46321 
220 ,42.5838 ,1.16992 ,1.65391 ,16.22816 
221 ,42.7600 ,1.17166 ,1.64707 ,16.16101 
222 ,42.9516 ,1.17351 ,1.63338 ,16.02669 
223 ,43.1442 ,1.17539 ,1.62653 ,15.95954 
224 ,43.3358 ,1.17734 ,1.58889 ,15.59018 
225 ,43.5279 ,1.17921 ,1.59573 ,15.65733 
226 ,43.7042 ,1.18104 ,1.58889 ,15.59018 
227 ,43.8963 ,1.18291 ,1.56151 ,15.32155 
228 ,44.0724 ,1.18479 ,1.56151 ,15.32155 
229 ,44.2645 ,1.18660 ,1.55809 ,15.28797 
230 ,44.4565 ,1.18856 ,1.52387 ,14.95219 
231 ,44.6487 ,1.19039 ,1.53413 ,15.05292 
232 ,44.8403 ,1.19253 ,1.48965 ,14.61640 
233 ,45.0328 ,1.19428 ,1.47596 ,14.48209 
234 ,45.2252 ,1.19623 ,1.47596 ,14.48209 
235 ,45.4169 ,1.19814 ,1.44858 ,14.21346 
236 ,45.6251 ,1.20017 ,1.44858 ,14.21346 
237 ,45.8171 ,1.20213 ,1.42120 ,13.94484 
238 ,46.0254 ,1.20423 ,1.42805 ,14.01199 
239 ,46.2332 ,1.20626 ,1.38698 ,13.60906 
240 ,46.4256 ,1.20823 ,1.36303 ,13.37401 
241 ,46.6175 ,1.21015 ,1.36987 ,13.44116 
242 ,46.8097 ,1.21209 ,1.35960 ,13.34043 
243 ,47.0173 ,1.21417 ,1.33907 ,13.13896 
244 ,47.2095 ,1.21601 ,1.33565 ,13.10538 
245 ,47.4177 ,1.21812 ,1.32538 ,13.00465 
246 ,47.6099 ,1.22008 ,1.30827 ,12.83675 
247 ,47.8019 ,1.22194 ,1.28432 ,12.60171 
248 ,47.9779 ,1.22376 ,1.26036 ,12.36666 
249 ,48.1541 ,1.22550 ,1.25009 ,12.26592 
250 ,48.3460 ,1.22739 ,1.26036 ,12.36666 
251 ,48.5383 ,1.22930 ,1.23983 ,12.16519 
252 ,48.7462 ,1.23136 ,1.22614 ,12.03088 
253 ,48.9384 ,1.23331 ,1.21587 ,11.93014 
254 ,49.1461 ,1.23538 ,1.20903 ,11.86298 
255 ,49.3386 ,1.23735 ,1.19534 ,11.72867 
256 ,49.5307 ,1.23921 ,1.15427 ,11.32573 
257 ,49.7223 ,1.24118 ,1.17823 ,11.56078 
258 ,49.8989 ,1.24297 ,1.16112 ,11.39289 
259 ,50.1069 ,1.24500 ,1.13374 ,11.12426 
260 ,50.2826 ,1.24690 ,1.12347 ,11.02353 
261 ,50.4751 ,1.24866 ,1.10294 ,10.82206 
262 ,50.6831 ,1.25074 ,1.09952 ,10.78848 
263 ,50.8750 ,1.25265 ,1.07214 ,10.51985 
264 ,51.0351 ,1.25445 ,1.05503 ,10.35196 
265 ,51.2272 ,1.25618 ,1.06872 ,10.48627 
266 ,51.4033 ,1.25803 ,1.04819 ,10.28480 
267 ,51.5954 ,1.25985 ,1.01739 ,9.98260 
268 ,51.7876 ,1.26182 ,1.02081 ,10.01618 
269 ,51.9955 ,1.26391 ,1.01396 ,9.94902 
270 ,52.1877 ,1.26583 ,0.99343 ,9.74755 
271 ,52.3637 ,1.26765 ,0.98317 ,9.64682 
272 ,52.5558 ,1.26943 ,0.96263 ,9.44535 
273 ,52.7320 ,1.27135 ,0.94552 ,9.27745 
274 ,52.9075 ,1.27307 ,0.92841 ,9.10956 
275 ,53.1001 ,1.27492 ,0.93183 ,9.14314 
276 ,53.2917 ,1.27696 ,0.91130 ,8.94167 
277 ,53.4839 ,1.27874 ,0.91472 ,8.97525 
278 ,53.6759 ,1.28064 ,0.89761 ,8.80736 
279 ,53.8684 ,1.28258 ,0.88050 ,8.63947 
280 ,54.0926 ,1.28472 ,0.87023 ,8.53873 
281 ,54.2845 ,1.28679 ,0.85997 ,8.43800 
282 ,54.4927 ,1.28887 ,0.82232 ,8.06864 
283 ,54.6847 ,1.29075 ,0.83601 ,8.20295 
284 ,54.8767 ,1.29269 ,0.81890 ,8.03506 
285 ,55.0849 ,1.29478 ,0.80863 ,7.93432 
286 ,55.2610 ,1.29660 ,0.79837 ,7.83359 
287 ,55.4691 ,1.29862 ,0.76415 ,7.49780 
288 ,55.6607 ,1.30052 ,0.78126 ,7.66570 
289 ,55.8693 ,1.30265 ,0.75730 ,7.43065 
290 ,56.0772 ,1.30466 ,0.75730 ,7.43065 
291 ,56.2694 ,1.30658 ,0.72650 ,7.12844 
292 ,56.4774 ,1.30868 ,0.73335 ,7.19560 
293 ,56.6537 ,1.31049 ,0.69913 ,6.85982 
294 ,56.8617 ,1.31250 ,0.70255 ,6.89340 
295 ,57.0538 ,1.31441 ,0.68201 ,6.69193 
296 ,57.2457 ,1.31638 ,0.67859 ,6.65835 
297 ,57.4380 ,1.31829 ,0.66148 ,6.49046 
298 ,57.6459 ,1.32034 ,0.64095 ,6.28899 
299 ,57.8217 ,1.32229 ,0.64437 ,6.32256 
300 ,58.0300 ,1.32409 ,0.62042 ,6.08752 
301 ,58.2383 ,1.32626 ,0.61699 ,6.05394 
302 ,58.4302 ,1.32826 ,0.59304 ,5.81889 
303 ,58.6223 ,1.33018 ,0.59304 ,5.81889 
304 ,58.7985 ,1.33200 ,0.57593 ,5.65100 
305 ,58.9904 ,1.33385 ,0.56224 ,5.51668 
306 ,59.1986 ,1.33592 ,0.55539 ,5.44953 
307 ,59.3905 ,1.33779 ,0.53144 ,5.21448 
308 ,59.5828 ,1.33971 ,0.54171 ,5.31522 
309 ,59.7748 ,1.34174 ,0.50748 ,4.97943 
310 ,59.9507 ,1.34347 ,0.50064 ,4.91228 
311 ,60.1591 ,1.34551 ,0.50748 ,4.97943 
312 ,60.3671 ,1.34751 ,0.48011 ,4.71081 
313 ,60.5590 ,1.34946 ,0.49037 ,4.81154 
314 ,60.7512 ,1.35137 ,0.46642 ,4.57649 
315 ,60.9269 ,1.35317 ,0.45273 ,4.44218 
316 ,61.1189 ,1.35508 ,0.45615 ,4.47576 
317 ,61.3110 ,1.35700 ,0.42535 ,4.17355 
318 ,61.5196 ,1.35900 ,0.42535 ,4.17355 
319 ,61.7594 ,1.36146 ,0.41509 ,4.07282 
320 ,61.9355 ,1.36328 ,0.40482 ,3.97208 
321 ,62.1437 ,1.36534 ,0.38771 ,3.80419 
322 ,62.3360 ,1.36727 ,0.38086 ,3.73703 
323 ,62.5437 ,1.36933 ,0.36375 ,3.56914 
324 ,62.7203 ,1.37118 ,0.37060 ,3.63630 
325 ,62.9281 ,1.37316 ,0.33980 ,3.33410 
326 ,63.1362 ,1.37522 ,0.32269 ,3.16620 
327 ,63.3280 ,1.37713 ,0.30900 ,3.03189 
328 ,63.5044 ,1.37899 ,0.29873 ,2.93116 
329 ,63.6962 ,1.38089 ,0.30558 ,2.99831 
330 ,63.8886 ,1.38275 ,0.27478 ,2.69611 
331 ,64.0806 ,1.38474 ,0.28162 ,2.76326 
332 ,64.2727 ,1.38662 ,0.27135 ,2.66253 
333 ,64.4804 ,1.38872 ,0.26109 ,2.56179 
334 ,64.6729 ,1.39061 ,0.24055 ,2.36032 
335 ,64.8646 ,1.39255 ,0.24740 ,2.42748 
336 ,65.0730 ,1.39457 ,0.22002 ,2.15885 
337 ,65.2650 ,1.39654 ,0.22002 ,2.15885 
338 ,65.4728 ,1.39857 ,0.19607 ,1.92381 
339 ,65.6491 ,1.40042 ,0.17896 ,1.75592 
340 ,65.8414 ,1.40233 ,0.18922 ,1.85665 
341 ,66.0333 ,1.40417 ,0.17211 ,1.68876 
342 ,66.2254 ,1.40610 ,0.16527 ,1.62160 
343 ,66.4172 ,1.40804 ,0.17896 ,1.75592 
344 ,66.6097 ,1.40995 ,0.13105 ,1.28582 
345 ,66.8014 ,1.41192 ,0.14816 ,1.45371 
346 ,66.9939 ,1.41380 ,0.13105 ,1.28582 
347 ,67.2017 ,1.41587 ,0.11736 ,1.15151 
348 ,67.3941 ,1.41782 ,0.09682 ,0.95004 
349 ,67.5857 ,1.41970 ,0.09682 ,0.95004 
350 ,67.7781 ,1.42164 ,0.09682 ,0.95004 
351 ,67.9702 ,1.42362 ,0.06260 ,0.61425 
352 ,68.1623 ,1.42550 ,0.07287 ,0.71499 
353 ,68.3705 ,1.42754 ,0.04207 ,0.41278 
354 ,68.5786 ,1.42964 ,0.05234 ,0.51352 
355 ,68.7705 ,1.43155 ,0.02496 ,0.24489 
356 ,68.9465 ,1.43335 ,0.01127 ,0.11058 
357 ,69.1389 ,1.43523 ,0.01811 ,0.17773 
358 ,69.3309 ,1.43719 ,-0.00584 ,-0.05731 
359 ,69.5389 ,1.43925 ,0.01127 ,0.11058 
360 ,69.7468 ,1.44136 ,-0.02637 ,-0.25878 
361 ,69.9710 ,1.44345 ,-0.02295 ,-0.22520 
362 ,70.1630 ,1.44553 ,-0.04691 ,-0.46025 
363 ,70.3549 ,1.44740 ,-0.04691 ,-0.46025 
364 ,70.5633 ,1.44951 ,-0.06402 ,-0.62814 
365 ,70.7551 ,1.45143 ,-0.06402 ,-0.62814 
366 ,70.9314 ,1.45334 ,-0.09140 ,-0.89677 
367 ,71.1235 ,1.45506 ,-0.08455 ,-0.82961 
368 ,71.3157 ,1.45699 ,-0.08455 ,-0.82961 
369 ,71.5237 ,1.45907 ,-0.10851 ,-1.06466 
370 ,71.6998 ,1.46092 ,-0.11535 ,-1.13182 
371 ,71.9077 ,1.46291 ,-0.13931 ,-1.36687 
372 ,72.0997 ,1.46490 ,-0.13931 ,-1.36687 
373 ,72.3081 ,1.46688 ,-0.14957 ,-1.46760 
374 ,72.5001 ,1.46887 ,-0.14273 ,-1.40045 
375 ,72.7082 ,1.47099 ,-0.17695 ,-1.73623 
376 ,72.9003 ,1.47287 ,-0.17353 ,-1.70265 
377 ,73.0923 ,1.47474 ,-0.18722 ,-1.83696 
378 ,73.2684 ,1.47658 ,-0.20775 ,-2.03843 
379 ,73.4605 ,1.47849 ,-0.19748 ,-1.93770 
380 ,73.6366 ,1.48024 ,-0.20775 ,-2.03843 
381 ,73.8287 ,1.48212 ,-0.23170 ,-2.27348 
382 ,74.0206 ,1.48407 ,-0.23170 ,-2.27348 
383 ,74.2128 ,1.48596 ,-0.24539 ,-2.40779 
384 ,74.4050 ,1.48787 ,-0.24881 ,-2.44137 
385 ,74.5970 ,1.48980 ,-0.24539 ,-2.40779 
386 ,74.7890 ,1.49176 ,-0.27277 ,-2.67642 
387 ,74.9972 ,1.49376 ,-0.28988 ,-2.84431 
388 ,75.1728 ,1.49567 ,-0.28646 ,-2.81073 
389 ,75.3813 ,1.49754 ,-0.31384 ,-3.07936 
390 ,75.5733 ,1.49969 ,-0.31384 ,-3.07936 
391 ,75.7655 ,1.50149 ,-0.32752 ,-3.21367 
392 ,75.9575 ,1.50347 ,-0.31726 ,-3.11294 
393 ,76.1336 ,1.50532 ,-0.33779 ,-3.31441 
394 ,76.3256 ,1.50704 ,-0.35832 ,-3.51588 
395 ,76.5178 ,1.50904 ,-0.35148 ,-3.44872 
396 ,76.7257 ,1.51106 ,-0.38228 ,-3.75093 
397 ,76.9339 ,1.51316 ,-0.36859 ,-3.61661 
398 ,77.1259 ,1.51507 ,-0.39939 ,-3.91882 
399 ,77.3336 ,1.51718 ,-0.39597 ,-3.88524 
400 ,77.5262 ,1.51908 ,-0.41308 ,-4.05313 
401 ,77.7183 ,1.52100 ,-0.40966 ,-4.01955 
402 ,77.9265 ,1.52300 ,-0.42335 ,-4.15387 
403 ,78.1343 ,1.52514 ,-0.44388 ,-4.35534 
404 ,78.3106 ,1.52695 ,-0.43703 ,-4.28818 
405 ,78.5025 ,1.52887 ,-0.46099 ,-4.52323 
406 ,78.6946 ,1.53075 ,-0.45757 ,-4.48965 
407 ,78.8865 ,1.53269 ,-0.48837 ,-4.79185 
408 ,79.0788 ,1.53456 ,-0.47126 ,-4.62396 
409 ,79.2708 ,1.53651 ,-0.49521 ,-4.85901 
410 ,79.4468 ,1.53833 ,-0.49863 ,-4.89259 
411 ,79.6551 ,1.54036 ,-0.50206 ,-4.92617 
412 ,79.8307 ,1.54225 ,-0.53628 ,-5.26195 
413 ,80.0232 ,1.54406 ,-0.52601 ,-5.16121 
414 ,80.2310 ,1.54615 ,-0.53285 ,-5.22837 
415 ,80.4234 ,1.54807 ,-0.55681 ,-5.46342 
416 ,80.6313 ,1.55011 ,-0.56023 ,-5.49700 
417 ,80.8237 ,1.55203 ,-0.57392 ,-5.63131 
418 ,81.0153 ,1.55397 ,-0.57734 ,-5.66489 
419 ,81.2239 ,1.55606 ,-0.59788 ,-5.86636 
420 ,81.4158 ,1.55797 ,-0.58419 ,-5.73205 
421 ,81.6237 ,1.56005 ,-0.61156 ,-6.00067 
422 ,81.8158 ,1.56198 ,-0.62525 ,-6.13499 
423 ,82.0240 ,1.56405 ,-0.62525 ,-6.13499 
424 ,82.2001 ,1.56587 ,-0.63894 ,-6.26930 
425 ,82.3922 ,1.56772 ,-0.62868 ,-6.16856 
426 ,82.5842 ,1.56967 ,-0.65263 ,-6.40361 
427 ,82.7759 ,1.57162 ,-0.64921 ,-6.37003 
428 ,82.9524 ,1.57339 ,-0.64921 ,-6.37003 
429 ,83.1605 ,1.57543 ,-0.66974 ,-6.57150 
430 ,83.3525 ,1.57734 ,-0.67316 ,-6.60508 
431 ,83.5287 ,1.57909 ,-0.68343 ,-6.70582 
432 ,83.7207 ,1.58101 ,-0.71081 ,-6.97444 
433 ,83.9127 ,1.58296 ,-0.70396 ,-6.90729 
434 ,84.1048 ,1.58487 ,-0.72107 ,-7.07518 
435 ,84.2968 ,1.58672 ,-0.71765 ,-7.04160 
436 ,84.4889 ,1.58871 ,-0.74161 ,-7.27665 
437 ,84.6810 ,1.59066 ,-0.75530 ,-7.41096 
438 ,84.8727 ,1.59253 ,-0.74845 ,-7.34380 
439 ,85.0651 ,1.59444 ,-0.76556 ,-7.51170 
440 ,85.2732 ,1.59650 ,-0.76556 ,-7.51170 
441 ,85.4653 ,1.59839 ,-0.79294 ,-7.78032 
442 ,85.6574 ,1.60031 ,-0.78952 ,-7.74674 
443 ,85.8655 ,1.60242 ,-0.80663 ,-7.91464 
444 ,86.0577 ,1.60445 ,-0.81005 ,-7.94821 
445 ,86.2651 ,1.60643 ,-0.79978 ,-7.84748 
446 ,86.4414 ,1.60827 ,-0.82716 ,-8.11611 
447 ,86.6336 ,1.61010 ,-0.82032 ,-8.04895 
448 ,86.8267 ,1.61216 ,-0.84427 ,-8.28400 
449 ,87.0336 ,1.61414 ,-0.85112 ,-8.35115 
450 ,87.2262 ,1.61609 ,-0.86138 ,-8.45189 
451 ,87.4341 ,1.61813 ,-0.85796 ,-8.41831 
452 ,87.6423 ,1.62012 ,-0.87507 ,-8.58620 
453 ,87.8504 ,1.62219 ,-0.88192 ,-8.65336 
454 ,88.0425 ,1.62423 ,-0.89560 ,-8.78767 
455 ,88.2505 ,1.62630 ,-0.89903 ,-8.82125 
456 ,88.4427 ,1.62826 ,-0.89903 ,-8.82125 
457 ,88.6507 ,1.63026 ,-0.91272 ,-8.95556 
458 ,88.8427 ,1.63220 ,-0.92983 ,-9.12345 
459 ,89.0185 ,1.63407 ,-0.94351 ,-9.25777 
460 ,89.2104 ,1.63593 ,-0.95378 ,-9.35850 
461 ,89.4029 ,1.63780 ,-0.96747 ,-9.49282 
462 ,89.5950 ,1.63972 ,-0.97431 ,-9.55997 
463 ,89.7711 ,1.64156 ,-0.96405 ,-9.45924 
