Data stamp = , 28-04-2022 13:59:45 666

Calibration Values: 
Slope = , 26.54 , g/V 
Offset Voltage at no contact = , -0.501760 , V 

No , Time , Stage Position ,   Mass , Force 
   ,  (s) ,      (mm)      ,   (g)  , (mN)  

1 ,0.0000 ,0.74942 ,5.25745 ,51.58611 
2 ,0.3013 ,0.74964 ,5.27798 ,51.78758 
3 ,0.6378 ,0.75086 ,5.27456 ,51.75401 
4 ,0.8300 ,0.75262 ,5.27798 ,51.78758 
5 ,1.0380 ,0.75450 ,5.29167 ,51.92190 
6 ,1.2300 ,0.75640 ,5.28483 ,51.85474 
7 ,1.4218 ,0.75825 ,5.29510 ,51.95548 
8 ,1.6142 ,0.76025 ,5.26430 ,51.65327 
9 ,1.8062 ,0.76223 ,5.27114 ,51.72043 
10 ,1.9984 ,0.76412 ,5.26087 ,51.61969 
11 ,2.1906 ,0.76605 ,5.23350 ,51.35107 
12 ,2.3826 ,0.76804 ,5.22323 ,51.25033 
13 ,2.5747 ,0.76985 ,5.20270 ,51.04886 
14 ,2.7829 ,0.77194 ,5.20612 ,51.08244 
15 ,2.9749 ,0.77386 ,5.16848 ,50.71308 
16 ,3.1828 ,0.77596 ,5.15479 ,50.57876 
17 ,3.3751 ,0.77784 ,5.11714 ,50.20940 
18 ,3.5506 ,0.77976 ,5.09661 ,50.00793 
19 ,3.7592 ,0.78163 ,5.10003 ,50.04151 
20 ,3.9995 ,0.78406 ,5.06923 ,49.73931 
21 ,4.1915 ,0.78605 ,5.02817 ,49.33637 
22 ,4.3832 ,0.78806 ,5.01448 ,49.20205 
23 ,4.5751 ,0.78982 ,5.02132 ,49.26921 
24 ,4.7671 ,0.79180 ,4.99394 ,49.00058 
25 ,4.9591 ,0.79374 ,4.94603 ,48.53049 
26 ,5.1678 ,0.79569 ,4.94946 ,48.56407 
27 ,5.3922 ,0.79807 ,4.89470 ,48.02681 
28 ,5.5839 ,0.79997 ,4.91181 ,48.19471 
29 ,5.7758 ,0.80185 ,4.91181 ,48.19471 
30 ,5.9682 ,0.80377 ,4.86732 ,47.75819 
31 ,6.1602 ,0.80575 ,4.84337 ,47.52314 
32 ,6.3682 ,0.80770 ,4.82284 ,47.32167 
33 ,6.5763 ,0.80982 ,4.81599 ,47.25451 
34 ,6.7682 ,0.81181 ,4.78519 ,46.95231 
35 ,6.9763 ,0.81383 ,4.77493 ,46.85157 
36 ,7.1846 ,0.81595 ,4.75097 ,46.61653 
37 ,7.3605 ,0.81785 ,4.72017 ,46.31432 
38 ,7.5367 ,0.81954 ,4.72702 ,46.38148 
39 ,7.7128 ,0.82135 ,4.68595 ,45.97854 
40 ,7.8885 ,0.82304 ,4.67226 ,45.84422 
41 ,8.0809 ,0.82498 ,4.67226 ,45.84422 
42 ,8.2892 ,0.82706 ,4.63119 ,45.44128 
43 ,8.4811 ,0.82894 ,4.62435 ,45.37413 
44 ,8.6732 ,0.83087 ,4.60724 ,45.20624 
45 ,8.8653 ,0.83276 ,4.56960 ,44.83688 
46 ,9.0732 ,0.83479 ,4.56275 ,44.76972 
47 ,9.2650 ,0.83674 ,4.54564 ,44.60183 
48 ,9.4414 ,0.83858 ,4.53195 ,44.46751 
49 ,9.6337 ,0.84047 ,4.51142 ,44.26604 
50 ,9.8418 ,0.84254 ,4.49431 ,44.09815 
51 ,10.0495 ,0.84446 ,4.48062 ,43.96384 
52 ,10.2419 ,0.84653 ,4.45324 ,43.69521 
53 ,10.4497 ,0.84862 ,4.41560 ,43.32585 
54 ,10.6578 ,0.85064 ,4.44298 ,43.59448 
55 ,10.8500 ,0.85255 ,4.38822 ,43.05723 
56 ,11.0583 ,0.85465 ,4.38138 ,42.99007 
57 ,11.2503 ,0.85662 ,4.36084 ,42.78860 
58 ,11.4424 ,0.85846 ,4.35400 ,42.72144 
59 ,11.6346 ,0.86044 ,4.33689 ,42.55355 
60 ,11.8262 ,0.86235 ,4.29582 ,42.15061 
61 ,12.0188 ,0.86424 ,4.29240 ,42.11703 
62 ,12.2263 ,0.86639 ,4.26502 ,41.84841 
63 ,12.4189 ,0.86834 ,4.25476 ,41.74767 
64 ,12.6110 ,0.87029 ,4.23422 ,41.54620 
65 ,12.8191 ,0.87227 ,4.22396 ,41.44547 
66 ,13.0106 ,0.87418 ,4.19316 ,41.14326 
67 ,13.2032 ,0.87608 ,4.18631 ,41.07611 
68 ,13.4110 ,0.87824 ,4.15551 ,40.77390 
69 ,13.6033 ,0.88015 ,4.15551 ,40.77390 
70 ,13.7953 ,0.88203 ,4.13498 ,40.57243 
71 ,13.9873 ,0.88398 ,4.10760 ,40.30380 
72 ,14.1632 ,0.88577 ,4.09391 ,40.16949 
73 ,14.3551 ,0.88765 ,4.08707 ,40.10233 
74 ,14.5473 ,0.88958 ,4.05627 ,39.80013 
75 ,14.7394 ,0.89148 ,4.04258 ,39.66582 
76 ,14.9315 ,0.89347 ,4.02205 ,39.46435 
77 ,15.1238 ,0.89529 ,4.00152 ,39.26288 
78 ,15.3157 ,0.89723 ,3.98098 ,39.06141 
79 ,15.5077 ,0.89918 ,3.96387 ,38.89352 
80 ,15.7001 ,0.90102 ,3.95018 ,38.75920 
81 ,15.8924 ,0.90299 ,3.93992 ,38.65847 
82 ,16.0843 ,0.90494 ,3.90570 ,38.32268 
83 ,16.2925 ,0.90696 ,3.89543 ,38.22195 
84 ,16.5007 ,0.90911 ,3.87832 ,38.05406 
85 ,16.7086 ,0.91118 ,3.85436 ,37.81901 
86 ,16.9167 ,0.91325 ,3.85094 ,37.78543 
87 ,17.1088 ,0.91520 ,3.80645 ,37.34891 
88 ,17.3010 ,0.91712 ,3.79276 ,37.21460 
89 ,17.4929 ,0.91899 ,3.78934 ,37.18102 
90 ,17.6846 ,0.92090 ,3.75854 ,36.87882 
91 ,17.8770 ,0.92281 ,3.75854 ,36.87882 
92 ,18.0691 ,0.92480 ,3.72774 ,36.57661 
93 ,18.2772 ,0.92680 ,3.72432 ,36.54303 
94 ,18.4691 ,0.92875 ,3.70379 ,36.34157 
95 ,18.6614 ,0.93081 ,3.66957 ,36.00578 
96 ,18.8534 ,0.93260 ,3.66272 ,35.93863 
97 ,19.0614 ,0.93470 ,3.64219 ,35.73716 
98 ,19.2536 ,0.93661 ,3.63534 ,35.67000 
99 ,19.4773 ,0.93874 ,3.60454 ,35.36779 
100 ,19.6696 ,0.94076 ,3.58059 ,35.13275 
101 ,19.8293 ,0.94253 ,3.56006 ,34.93128 
102 ,20.0218 ,0.94428 ,3.54979 ,34.83054 
103 ,20.2140 ,0.94622 ,3.54979 ,34.83054 
104 ,20.4060 ,0.94811 ,3.51557 ,34.49476 
105 ,20.6142 ,0.95020 ,3.50530 ,34.39402 
106 ,20.8062 ,0.95210 ,3.47792 ,34.12540 
107 ,21.0143 ,0.95420 ,3.47108 ,34.05824 
108 ,21.2223 ,0.95627 ,3.44028 ,33.75604 
109 ,21.4144 ,0.95821 ,3.43001 ,33.65530 
110 ,21.6064 ,0.96015 ,3.40948 ,33.45383 
111 ,21.7987 ,0.96202 ,3.39921 ,33.35310 
112 ,21.9902 ,0.96409 ,3.37868 ,33.15163 
113 ,22.1829 ,0.96591 ,3.35815 ,32.95016 
114 ,22.3749 ,0.96776 ,3.36157 ,32.98374 
115 ,22.5829 ,0.96984 ,3.31024 ,32.48006 
116 ,22.7909 ,0.97185 ,3.30682 ,32.44648 
117 ,22.9993 ,0.97408 ,3.28286 ,32.21143 
118 ,23.2073 ,0.97607 ,3.27944 ,32.17786 
119 ,23.4154 ,0.97824 ,3.26233 ,32.00996 
120 ,23.6074 ,0.98016 ,3.22468 ,31.64060 
121 ,23.7995 ,0.98210 ,3.21100 ,31.50629 
122 ,23.9912 ,0.98391 ,3.20073 ,31.40555 
123 ,24.1837 ,0.98586 ,3.16993 ,31.10335 
124 ,24.3917 ,0.98798 ,3.16993 ,31.10335 
125 ,24.6000 ,0.99006 ,3.15282 ,30.93546 
126 ,24.8079 ,0.99211 ,3.12544 ,30.66683 
127 ,25.0000 ,0.99405 ,3.11175 ,30.53252 
128 ,25.1759 ,0.99588 ,3.11175 ,30.53252 
129 ,25.3838 ,0.99790 ,3.07069 ,30.12958 
130 ,25.5441 ,0.99962 ,3.06726 ,30.09600 
131 ,25.7520 ,1.00141 ,3.05015 ,29.92811 
132 ,25.9604 ,1.00357 ,3.03647 ,29.79380 
133 ,26.1683 ,1.00568 ,3.00567 ,29.49159 
134 ,26.3439 ,1.00758 ,3.00909 ,29.52517 
135 ,26.5364 ,1.00940 ,2.98513 ,29.29012 
136 ,26.7446 ,1.01151 ,2.95776 ,29.02150 
137 ,26.9367 ,1.01339 ,2.95091 ,28.95434 
138 ,27.1447 ,1.01545 ,2.91669 ,28.61856 
139 ,27.3368 ,1.01746 ,2.92696 ,28.71929 
140 ,27.5930 ,1.01984 ,2.90300 ,28.48424 
141 ,27.8012 ,1.02208 ,2.85509 ,28.01415 
142 ,28.0092 ,1.02402 ,2.86536 ,28.11488 
143 ,28.2010 ,1.02602 ,2.84140 ,27.87983 
144 ,28.3771 ,1.02791 ,2.83114 ,27.77910 
145 ,28.5693 ,1.02969 ,2.79007 ,27.37616 
146 ,28.7615 ,1.03167 ,2.77980 ,27.27542 
147 ,28.9693 ,1.03363 ,2.79007 ,27.37616 
148 ,29.1775 ,1.03577 ,2.76611 ,27.14111 
149 ,29.3692 ,1.03771 ,2.73189 ,26.80533 
150 ,29.5453 ,1.03959 ,2.71136 ,26.60386 
151 ,29.7376 ,1.04147 ,2.71136 ,26.60386 
152 ,29.9457 ,1.04344 ,2.67714 ,26.26807 
153 ,30.1376 ,1.04539 ,2.67372 ,26.23450 
154 ,30.3458 ,1.04746 ,2.63949 ,25.89871 
155 ,30.5380 ,1.04937 ,2.64292 ,25.93229 
156 ,30.7140 ,1.05129 ,2.61554 ,25.66367 
157 ,30.9060 ,1.05303 ,2.60527 ,25.56293 
158 ,31.0982 ,1.05501 ,2.59501 ,25.46220 
159 ,31.2899 ,1.05693 ,2.56763 ,25.19357 
160 ,31.4822 ,1.05878 ,2.56078 ,25.12641 
161 ,31.6904 ,1.06093 ,2.53683 ,24.89136 
162 ,31.8988 ,1.06291 ,2.52314 ,24.75705 
163 ,32.1066 ,1.06509 ,2.49234 ,24.45485 
164 ,32.2988 ,1.06700 ,2.48550 ,24.38769 
165 ,32.4908 ,1.06891 ,2.47865 ,24.32053 
166 ,32.6990 ,1.07098 ,2.45470 ,24.08549 
167 ,32.8910 ,1.07307 ,2.42390 ,23.78328 
168 ,33.0669 ,1.07473 ,2.41705 ,23.71612 
169 ,33.2749 ,1.07675 ,2.41363 ,23.68255 
170 ,33.4508 ,1.07864 ,2.37599 ,23.31318 
171 ,33.6269 ,1.08037 ,2.37256 ,23.27961 
172 ,33.8033 ,1.08209 ,2.35545 ,23.11171 
173 ,33.9950 ,1.08393 ,2.35888 ,23.14529 
174 ,34.2034 ,1.08594 ,2.32808 ,22.84309 
175 ,34.3953 ,1.08801 ,2.31439 ,22.70877 
176 ,34.5713 ,1.08979 ,2.29728 ,22.54088 
177 ,34.7635 ,1.09165 ,2.27674 ,22.33941 
178 ,34.9554 ,1.09356 ,2.26648 ,22.23868 
179 ,35.1475 ,1.09548 ,2.24937 ,22.07079 
180 ,35.3558 ,1.09754 ,2.24937 ,22.07079 
181 ,35.5316 ,1.09941 ,2.20146 ,21.60069 
182 ,35.7241 ,1.10126 ,2.19461 ,21.53353 
183 ,35.9319 ,1.10331 ,2.18435 ,21.43280 
184 ,36.1242 ,1.10521 ,2.17066 ,21.29849 
185 ,36.3160 ,1.10714 ,2.17066 ,21.29849 
186 ,36.4763 ,1.10892 ,2.15355 ,21.13059 
187 ,36.6684 ,1.11067 ,2.11932 ,20.79481 
188 ,36.8764 ,1.11273 ,2.10906 ,20.69408 
189 ,37.0685 ,1.11467 ,2.09537 ,20.55976 
190 ,37.2608 ,1.11662 ,2.07484 ,20.35829 
191 ,37.4523 ,1.11865 ,2.06457 ,20.25756 
192 ,37.6449 ,1.12044 ,2.04061 ,20.02251 
193 ,37.8369 ,1.12230 ,2.05773 ,20.19040 
194 ,38.0290 ,1.12427 ,2.02008 ,19.82104 
195 ,38.2208 ,1.12620 ,1.99955 ,19.61957 
196 ,38.4133 ,1.12813 ,2.00639 ,19.68673 
197 ,38.6211 ,1.13022 ,1.97902 ,19.41810 
198 ,38.8134 ,1.13213 ,1.97217 ,19.35094 
199 ,39.0055 ,1.13407 ,1.93795 ,19.01516 
200 ,39.1977 ,1.13596 ,1.94479 ,19.08232 
201 ,39.3733 ,1.13784 ,1.91742 ,18.81369 
202 ,39.5495 ,1.13955 ,1.90373 ,18.67938 
203 ,39.7417 ,1.14141 ,1.87293 ,18.37717 
204 ,39.9338 ,1.14334 ,1.89004 ,18.54507 
205 ,40.1257 ,1.14525 ,1.86608 ,18.31002 
206 ,40.3180 ,1.14721 ,1.85582 ,18.20928 
207 ,40.5419 ,1.14941 ,1.82502 ,17.90708 
208 ,40.7341 ,1.15131 ,1.81817 ,17.83992 
209 ,40.9261 ,1.15325 ,1.79080 ,17.57129 
210 ,41.1184 ,1.15523 ,1.79080 ,17.57129 
211 ,41.3101 ,1.15711 ,1.77711 ,17.43698 
212 ,41.4860 ,1.15896 ,1.75315 ,17.20193 
213 ,41.6783 ,1.16081 ,1.75657 ,17.23551 
214 ,41.8866 ,1.16275 ,1.73946 ,17.06762 
215 ,42.0945 ,1.16491 ,1.73262 ,17.00046 
216 ,42.2868 ,1.16682 ,1.70182 ,16.69826 
217 ,42.4946 ,1.16896 ,1.69498 ,16.63110 
218 ,42.6870 ,1.17085 ,1.65733 ,16.26174 
219 ,42.8949 ,1.17291 ,1.67444 ,16.42963 
220 ,43.0871 ,1.17483 ,1.63680 ,16.06027 
221 ,43.2953 ,1.17696 ,1.62995 ,15.99311 
222 ,43.4868 ,1.17881 ,1.60942 ,15.79164 
223 ,43.6628 ,1.18072 ,1.60942 ,15.79164 
224 ,43.8394 ,1.18240 ,1.58547 ,15.55660 
225 ,44.0311 ,1.18429 ,1.58204 ,15.52302 
226 ,44.2236 ,1.18616 ,1.56493 ,15.35513 
227 ,44.4155 ,1.18813 ,1.55809 ,15.28797 
228 ,44.6077 ,1.19005 ,1.53413 ,15.05292 
229 ,44.8155 ,1.19209 ,1.53413 ,15.05292 
230 ,45.0239 ,1.19419 ,1.51018 ,14.81787 
231 ,45.2159 ,1.19617 ,1.50676 ,14.78430 
232 ,45.4241 ,1.19821 ,1.48280 ,14.54925 
233 ,45.6161 ,1.20012 ,1.47938 ,14.51567 
234 ,45.8238 ,1.20216 ,1.44516 ,14.17989 
235 ,46.0162 ,1.20407 ,1.45542 ,14.28062 
236 ,46.1924 ,1.20595 ,1.42805 ,14.01199 
237 ,46.4001 ,1.20799 ,1.41094 ,13.84410 
238 ,46.6083 ,1.21006 ,1.40409 ,13.77695 
239 ,46.8005 ,1.21196 ,1.39383 ,13.67621 
240 ,47.0088 ,1.21397 ,1.37671 ,13.50832 
241 ,47.2168 ,1.21611 ,1.37671 ,13.50832 
242 ,47.4090 ,1.21802 ,1.33565 ,13.10538 
243 ,47.6170 ,1.22011 ,1.34591 ,13.20612 
244 ,47.8091 ,1.22206 ,1.30827 ,12.83675 
245 ,48.0012 ,1.22406 ,1.31169 ,12.87033 
246 ,48.1933 ,1.22588 ,1.28774 ,12.63528 
247 ,48.3852 ,1.22780 ,1.26720 ,12.43381 
248 ,48.5613 ,1.22964 ,1.27063 ,12.46739 
249 ,48.7534 ,1.23163 ,1.24325 ,12.19877 
250 ,48.9295 ,1.23331 ,1.23641 ,12.13161 
251 ,49.1376 ,1.23532 ,1.22614 ,12.03088 
252 ,49.3453 ,1.23738 ,1.19876 ,11.76225 
253 ,49.5217 ,1.23926 ,1.20561 ,11.82941 
254 ,49.7138 ,1.24111 ,1.18507 ,11.62794 
255 ,49.9060 ,1.24302 ,1.16796 ,11.46004 
256 ,50.0976 ,1.24490 ,1.16112 ,11.39289 
257 ,50.2901 ,1.24692 ,1.13716 ,11.15784 
258 ,50.4981 ,1.24888 ,1.13374 ,11.12426 
259 ,50.6902 ,1.25079 ,1.11663 ,10.95637 
260 ,50.8984 ,1.25290 ,1.11663 ,10.95637 
261 ,51.0903 ,1.25487 ,1.07899 ,10.58701 
262 ,51.2823 ,1.25673 ,1.09267 ,10.72132 
263 ,51.4744 ,1.25870 ,1.07556 ,10.55343 
264 ,51.6823 ,1.26068 ,1.05161 ,10.31838 
265 ,51.8906 ,1.26286 ,1.03792 ,10.18407 
266 ,52.0986 ,1.26481 ,1.04476 ,10.25123 
267 ,52.2744 ,1.26673 ,1.02081 ,10.01618 
268 ,52.4666 ,1.26858 ,0.98659 ,9.68039 
269 ,52.6746 ,1.27067 ,0.99343 ,9.74755 
270 ,52.8670 ,1.27265 ,0.97290 ,9.54608 
271 ,53.0590 ,1.27449 ,0.95921 ,9.41177 
272 ,53.2511 ,1.27647 ,0.94210 ,9.24388 
273 ,53.4587 ,1.27848 ,0.94210 ,9.24388 
274 ,53.6512 ,1.28045 ,0.92841 ,9.10956 
275 ,53.8594 ,1.28256 ,0.92157 ,9.04241 
276 ,54.0512 ,1.28446 ,0.88734 ,8.70662 
277 ,54.2275 ,1.28622 ,0.87708 ,8.60589 
278 ,54.4195 ,1.28810 ,0.87708 ,8.60589 
279 ,54.6116 ,1.29002 ,0.84970 ,8.33726 
280 ,54.8036 ,1.29199 ,0.84970 ,8.33726 
281 ,54.9958 ,1.29384 ,0.84286 ,8.27011 
282 ,55.2197 ,1.29603 ,0.83259 ,8.16937 
283 ,55.4119 ,1.29804 ,0.80863 ,7.93432 
284 ,55.6037 ,1.29992 ,0.80863 ,7.93432 
285 ,55.7960 ,1.30186 ,0.78468 ,7.69927 
286 ,55.9878 ,1.30375 ,0.76415 ,7.49780 
287 ,56.1804 ,1.30572 ,0.78126 ,7.66570 
288 ,56.3722 ,1.30765 ,0.73677 ,7.22918 
289 ,56.5806 ,1.30972 ,0.75388 ,7.39707 
290 ,56.7726 ,1.31180 ,0.72308 ,7.09486 
291 ,56.9647 ,1.31361 ,0.70939 ,6.96055 
292 ,57.1728 ,1.31553 ,0.70939 ,6.96055 
293 ,57.3810 ,1.31776 ,0.70597 ,6.92697 
294 ,57.5730 ,1.31969 ,0.70255 ,6.89340 
295 ,57.7811 ,1.32173 ,0.67517 ,6.62477 
296 ,57.9891 ,1.32384 ,0.65121 ,6.38972 
297 ,58.1813 ,1.32572 ,0.65464 ,6.42330 
298 ,58.3733 ,1.32766 ,0.64095 ,6.28899 
299 ,58.5974 ,1.32995 ,0.62726 ,6.15467 
300 ,58.8050 ,1.33194 ,0.60673 ,5.95320 
301 ,58.9977 ,1.33388 ,0.60330 ,5.91962 
302 ,59.2054 ,1.33600 ,0.57593 ,5.65100 
303 ,59.3976 ,1.33786 ,0.57251 ,5.61742 
304 ,59.5897 ,1.33984 ,0.56224 ,5.51668 
305 ,59.7818 ,1.34171 ,0.54855 ,5.38237 
306 ,59.9898 ,1.34369 ,0.53144 ,5.21448 
307 ,60.1981 ,1.34594 ,0.52802 ,5.18090 
308 ,60.3899 ,1.34783 ,0.50064 ,4.91228 
309 ,60.5821 ,1.34974 ,0.51091 ,5.01301 
310 ,60.7903 ,1.35182 ,0.48011 ,4.71081 
311 ,60.9819 ,1.35372 ,0.49037 ,4.81154 
312 ,61.1744 ,1.35566 ,0.46642 ,4.57649 
313 ,61.3664 ,1.35757 ,0.45957 ,4.50934 
314 ,61.6065 ,1.35990 ,0.43904 ,4.30787 
315 ,61.7986 ,1.36190 ,0.44931 ,4.40860 
316 ,61.9746 ,1.36367 ,0.42193 ,4.13997 
317 ,62.1505 ,1.36553 ,0.41851 ,4.10640 
318 ,62.3427 ,1.36733 ,0.41851 ,4.10640 
319 ,62.5507 ,1.36939 ,0.38086 ,3.73703 
320 ,62.7429 ,1.37134 ,0.38771 ,3.80419 
321 ,62.9349 ,1.37325 ,0.37744 ,3.70346 
322 ,63.1427 ,1.37535 ,0.37402 ,3.66988 
323 ,63.3353 ,1.37723 ,0.34664 ,3.40125 
324 ,63.5433 ,1.37936 ,0.34664 ,3.40125 
325 ,63.7355 ,1.38124 ,0.32953 ,3.23336 
326 ,63.9435 ,1.38332 ,0.32269 ,3.16620 
327 ,64.1349 ,1.38523 ,0.29873 ,2.93116 
328 ,64.3270 ,1.38713 ,0.27478 ,2.69611 
329 ,64.5192 ,1.38908 ,0.28847 ,2.83042 
330 ,64.7113 ,1.39097 ,0.27478 ,2.69611 
331 ,64.9034 ,1.39286 ,0.27478 ,2.69611 
332 ,65.0793 ,1.39479 ,0.24740 ,2.42748 
333 ,65.2714 ,1.39662 ,0.23029 ,2.25959 
334 ,65.4635 ,1.39851 ,0.22002 ,2.15885 
335 ,65.6721 ,1.40051 ,0.23371 ,2.29317 
336 ,65.9122 ,1.40307 ,0.19949 ,1.95738 
337 ,66.1042 ,1.40492 ,0.20976 ,2.05812 
338 ,66.2801 ,1.40677 ,0.18580 ,1.82307 
339 ,66.4722 ,1.40858 ,0.17211 ,1.68876 
340 ,66.6483 ,1.41046 ,0.17211 ,1.68876 
341 ,66.8407 ,1.41224 ,0.17553 ,1.72234 
342 ,67.0328 ,1.41424 ,0.14816 ,1.45371 
343 ,67.2408 ,1.41626 ,0.14131 ,1.38655 
344 ,67.4167 ,1.41809 ,0.13447 ,1.31940 
345 ,67.6566 ,1.42037 ,0.12078 ,1.18508 
346 ,67.8490 ,1.42240 ,0.10025 ,0.98361 
347 ,68.0411 ,1.42431 ,0.09340 ,0.91646 
348 ,68.2332 ,1.42620 ,0.07287 ,0.71499 
349 ,68.4253 ,1.42819 ,0.07287 ,0.71499 
350 ,68.6174 ,1.43001 ,0.06945 ,0.68141 
351 ,68.8095 ,1.43198 ,0.06602 ,0.64783 
352 ,69.0176 ,1.43407 ,0.03865 ,0.37920 
353 ,69.2097 ,1.43600 ,0.02154 ,0.21131 
354 ,69.4019 ,1.43788 ,0.02154 ,0.21131 
355 ,69.5938 ,1.43983 ,0.00443 ,0.04342 
356 ,69.7859 ,1.44177 ,0.01127 ,0.11058 
357 ,69.9940 ,1.44381 ,-0.01269 ,-0.12447 
358 ,70.1860 ,1.44569 ,-0.01611 ,-0.15805 
359 ,70.3782 ,1.44767 ,-0.01953 ,-0.19163 
360 ,70.5702 ,1.44958 ,-0.04006 ,-0.39310 
361 ,70.7619 ,1.45158 ,-0.04348 ,-0.42667 
362 ,70.9543 ,1.45340 ,-0.07086 ,-0.69530 
363 ,71.1624 ,1.45549 ,-0.06402 ,-0.62814 
364 ,71.3385 ,1.45725 ,-0.07771 ,-0.76246 
365 ,71.5466 ,1.45933 ,-0.07771 ,-0.76246 
366 ,71.7387 ,1.46130 ,-0.08455 ,-0.82961 
367 ,71.9310 ,1.46317 ,-0.11877 ,-1.16540 
368 ,72.1388 ,1.46528 ,-0.11877 ,-1.16540 
369 ,72.3310 ,1.46718 ,-0.13246 ,-1.29971 
370 ,72.5225 ,1.46910 ,-0.12562 ,-1.23255 
371 ,72.7150 ,1.47099 ,-0.16326 ,-1.60191 
372 ,72.8907 ,1.47283 ,-0.16326 ,-1.60191 
373 ,73.0830 ,1.47470 ,-0.16668 ,-1.63549 
374 ,73.2913 ,1.47675 ,-0.19064 ,-1.87054 
375 ,73.4832 ,1.47871 ,-0.17695 ,-1.73623 
376 ,73.6753 ,1.48054 ,-0.21117 ,-2.07201 
377 ,73.8995 ,1.48271 ,-0.19406 ,-1.90412 
378 ,74.0753 ,1.48471 ,-0.21802 ,-2.13917 
379 ,74.2511 ,1.48646 ,-0.21459 ,-2.10559 
380 ,74.4113 ,1.48814 ,-0.22828 ,-2.23990 
381 ,74.5874 ,1.48984 ,-0.23855 ,-2.34064 
382 ,74.7795 ,1.49162 ,-0.24539 ,-2.40779 
383 ,74.9717 ,1.49360 ,-0.27277 ,-2.67642 
384 ,75.1800 ,1.49555 ,-0.25566 ,-2.50853 
385 ,75.3880 ,1.49764 ,-0.29330 ,-2.87789 
386 ,75.5641 ,1.49959 ,-0.30015 ,-2.94505 
387 ,75.7562 ,1.50138 ,-0.31041 ,-3.04578 
388 ,75.9483 ,1.50325 ,-0.29673 ,-2.91147 
389 ,76.1401 ,1.50523 ,-0.31384 ,-3.07936 
390 ,76.3326 ,1.50720 ,-0.32410 ,-3.18010 
391 ,76.5407 ,1.50927 ,-0.33437 ,-3.28083 
392 ,76.7328 ,1.51116 ,-0.34464 ,-3.38156 
393 ,76.9248 ,1.51312 ,-0.34121 ,-3.34799 
394 ,77.1168 ,1.51501 ,-0.36175 ,-3.54946 
395 ,77.3089 ,1.51698 ,-0.37544 ,-3.68377 
396 ,77.5010 ,1.51882 ,-0.38228 ,-3.75093 
397 ,77.6932 ,1.52076 ,-0.40966 ,-4.01955 
398 ,77.8848 ,1.52271 ,-0.39939 ,-3.91882 
399 ,78.0772 ,1.52462 ,-0.41992 ,-4.12029 
400 ,78.2690 ,1.52650 ,-0.41650 ,-4.08671 
401 ,78.4614 ,1.52848 ,-0.41650 ,-4.08671 
402 ,78.6535 ,1.53038 ,-0.44388 ,-4.35534 
403 ,78.8614 ,1.53247 ,-0.45414 ,-4.45607 
404 ,79.0537 ,1.53434 ,-0.46099 ,-4.52323 
405 ,79.2455 ,1.53629 ,-0.46099 ,-4.52323 
406 ,79.4376 ,1.53820 ,-0.47810 ,-4.69112 
407 ,79.6458 ,1.54030 ,-0.48494 ,-4.75828 
408 ,79.8540 ,1.54239 ,-0.50890 ,-4.99332 
409 ,80.0621 ,1.54446 ,-0.50890 ,-4.99332 
410 ,80.2541 ,1.54639 ,-0.51917 ,-5.09406 
411 ,80.4618 ,1.54845 ,-0.52259 ,-5.12764 
412 ,80.6540 ,1.55033 ,-0.54312 ,-5.32911 
413 ,80.8623 ,1.55247 ,-0.54312 ,-5.32911 
414 ,81.0384 ,1.55425 ,-0.56708 ,-5.56415 
415 ,81.2464 ,1.55626 ,-0.54997 ,-5.39626 
416 ,81.4385 ,1.55823 ,-0.57050 ,-5.59773 
417 ,81.6302 ,1.56017 ,-0.59445 ,-5.83278 
418 ,81.8067 ,1.56193 ,-0.59103 ,-5.79920 
419 ,82.0148 ,1.56397 ,-0.60814 ,-5.96709 
420 ,82.1908 ,1.56579 ,-0.61499 ,-6.03425 
421 ,82.3831 ,1.56757 ,-0.61841 ,-6.06783 
422 ,82.5910 ,1.56969 ,-0.63552 ,-6.23572 
423 ,82.7832 ,1.57162 ,-0.62183 ,-6.10141 
424 ,82.9911 ,1.57374 ,-0.63552 ,-6.23572 
425 ,83.1833 ,1.57565 ,-0.64579 ,-6.33646 
426 ,83.3752 ,1.57757 ,-0.66974 ,-6.57150 
427 ,83.5672 ,1.57948 ,-0.66290 ,-6.50435 
428 ,83.7432 ,1.58126 ,-0.66632 ,-6.53793 
429 ,83.9354 ,1.58317 ,-0.69712 ,-6.84013 
430 ,84.1276 ,1.58503 ,-0.69027 ,-6.77297 
431 ,84.3199 ,1.58703 ,-0.72107 ,-7.07518 
432 ,84.5118 ,1.58895 ,-0.71423 ,-7.00802 
433 ,84.7041 ,1.59085 ,-0.71081 ,-6.97444 
434 ,84.8795 ,1.59272 ,-0.73476 ,-7.20949 
435 ,85.0719 ,1.59448 ,-0.74845 ,-7.34380 
436 ,85.2642 ,1.59642 ,-0.74845 ,-7.34380 
437 ,85.4562 ,1.59839 ,-0.77583 ,-7.61243 
438 ,85.6802 ,1.60051 ,-0.76214 ,-7.47812 
439 ,85.8880 ,1.60270 ,-0.76214 ,-7.47812 
440 ,86.0803 ,1.60462 ,-0.79636 ,-7.81390 
441 ,86.2886 ,1.60672 ,-0.78267 ,-7.67959 
442 ,86.4802 ,1.60865 ,-0.80663 ,-7.91464 
443 ,86.6728 ,1.61053 ,-0.81005 ,-7.94821 
444 ,86.8806 ,1.61263 ,-0.82716 ,-8.11611 
445 ,87.0889 ,1.61462 ,-0.83058 ,-8.14968 
446 ,87.2971 ,1.61682 ,-0.84769 ,-8.31758 
447 ,87.5054 ,1.61879 ,-0.85454 ,-8.38473 
448 ,87.6972 ,1.62079 ,-0.87507 ,-8.58620 
449 ,87.9054 ,1.62281 ,-0.85796 ,-8.41831 
450 ,88.1131 ,1.62494 ,-0.88876 ,-8.72051 
451 ,88.3214 ,1.62701 ,-0.88876 ,-8.72051 
452 ,88.5132 ,1.62896 ,-0.90587 ,-8.88841 
453 ,88.7054 ,1.63079 ,-0.90587 ,-8.88841 
454 ,88.9139 ,1.63296 ,-0.91614 ,-8.98914 
455 ,89.1215 ,1.63501 ,-0.91614 ,-8.98914 
456 ,89.3137 ,1.63695 ,-0.94009 ,-9.22419 
457 ,89.5378 ,1.63905 ,-0.95036 ,-9.32492 
458 ,89.7301 ,1.64105 ,-0.94694 ,-9.29135 
459 ,89.9377 ,1.64322 ,-0.96063 ,-9.42566 
460 ,90.1301 ,1.64506 ,-0.97089 ,-9.52639 
461 ,90.3378 ,1.64721 ,-0.99143 ,-9.72786 
462 ,90.5306 ,1.64911 ,-0.98458 ,-9.66071 
