Data stamp = , 26-04-2022 23:17:38 239

Calibration Values: 
Slope = , 26.54 , g/V 
Offset Voltage at no contact = , -0.501760 , V 

No , Time , Stage Position ,   Mass , Force 
   ,  (s) ,      (mm)      ,   (g)  , (mN)  

1 ,0.0000 ,0.74942 ,5.28825 ,51.88832 
2 ,0.2349 ,0.74952 ,5.27456 ,51.75401 
3 ,0.6352 ,0.75087 ,5.25745 ,51.58611 
4 ,0.8272 ,0.75258 ,5.25403 ,51.55254 
5 ,1.0517 ,0.75453 ,5.28141 ,51.82116 
6 ,1.2592 ,0.75668 ,5.28483 ,51.85474 
7 ,1.4518 ,0.75857 ,5.28483 ,51.85474 
8 ,1.6438 ,0.76070 ,5.27456 ,51.75401 
9 ,1.8356 ,0.76249 ,5.27114 ,51.72043 
10 ,2.0119 ,0.76434 ,5.25745 ,51.58611 
11 ,2.2038 ,0.76618 ,5.22323 ,51.25033 
12 ,2.3960 ,0.76806 ,5.21981 ,51.21675 
13 ,2.5722 ,0.76997 ,5.19585 ,50.98170 
14 ,2.7637 ,0.77175 ,5.17874 ,50.81381 
15 ,2.9558 ,0.77369 ,5.17190 ,50.74666 
16 ,3.1480 ,0.77558 ,5.15136 ,50.54519 
17 ,3.3244 ,0.77742 ,5.13083 ,50.34372 
18 ,3.5164 ,0.77928 ,5.13768 ,50.41087 
19 ,3.7086 ,0.78119 ,5.11714 ,50.20940 
20 ,3.9003 ,0.78317 ,5.08634 ,49.90720 
21 ,4.0927 ,0.78510 ,5.07950 ,49.84004 
22 ,4.2847 ,0.78705 ,5.05554 ,49.60499 
23 ,4.4609 ,0.78881 ,5.03159 ,49.36995 
24 ,4.6529 ,0.79067 ,5.01790 ,49.23563 
25 ,4.8450 ,0.79260 ,5.00421 ,49.10132 
26 ,5.0367 ,0.79459 ,4.96999 ,48.76554 
27 ,5.2131 ,0.79634 ,4.96999 ,48.76554 
28 ,5.3891 ,0.79808 ,4.94603 ,48.53049 
29 ,5.5972 ,0.80007 ,4.91866 ,48.26186 
30 ,5.7734 ,0.80196 ,4.89128 ,47.99324 
31 ,5.9494 ,0.80370 ,4.89128 ,47.99324 
32 ,6.1256 ,0.80546 ,4.86390 ,47.72461 
33 ,6.3016 ,0.80719 ,4.83995 ,47.48956 
34 ,6.4937 ,0.80906 ,4.84337 ,47.52314 
35 ,6.6858 ,0.81098 ,4.81257 ,47.22093 
36 ,6.8777 ,0.81286 ,4.79546 ,47.05304 
37 ,7.0700 ,0.81476 ,4.76808 ,46.78442 
38 ,7.2777 ,0.81684 ,4.76466 ,46.75084 
39 ,7.4539 ,0.81871 ,4.74070 ,46.51579 
40 ,7.6462 ,0.82062 ,4.71333 ,46.24716 
41 ,7.8385 ,0.82260 ,4.69279 ,46.04569 
42 ,8.0303 ,0.82444 ,4.69279 ,46.04569 
43 ,8.2220 ,0.82636 ,4.66199 ,45.74349 
44 ,8.4145 ,0.82829 ,4.65515 ,45.67633 
45 ,8.6226 ,0.83030 ,4.61408 ,45.27339 
46 ,8.7986 ,0.83212 ,4.60382 ,45.17266 
47 ,9.0064 ,0.83414 ,4.59013 ,45.03835 
48 ,9.1829 ,0.83600 ,4.55933 ,44.73614 
49 ,9.3749 ,0.83788 ,4.54564 ,44.60183 
50 ,9.5825 ,0.83993 ,4.53880 ,44.53467 
51 ,9.7746 ,0.84186 ,4.51142 ,44.26604 
52 ,9.9670 ,0.84376 ,4.51142 ,44.26604 
53 ,10.1912 ,0.84598 ,4.47378 ,43.89668 
54 ,10.4148 ,0.84827 ,4.45666 ,43.72879 
55 ,10.6070 ,0.85016 ,4.43955 ,43.56090 
56 ,10.7995 ,0.85207 ,4.41560 ,43.32585 
57 ,11.0074 ,0.85419 ,4.39507 ,43.12438 
58 ,11.1835 ,0.85598 ,4.39507 ,43.12438 
59 ,11.3437 ,0.85770 ,4.37111 ,42.88933 
60 ,11.5193 ,0.85933 ,4.35400 ,42.72144 
61 ,11.6959 ,0.86109 ,4.33689 ,42.55355 
62 ,11.8879 ,0.86308 ,4.33347 ,42.51997 
63 ,12.0639 ,0.86486 ,4.30267 ,42.21777 
64 ,12.2402 ,0.86658 ,4.27871 ,41.98272 
65 ,12.4318 ,0.86843 ,4.28213 ,42.01630 
66 ,12.5917 ,0.87018 ,4.24791 ,41.68051 
67 ,12.7682 ,0.87185 ,4.24791 ,41.68051 
68 ,12.9924 ,0.87392 ,4.22053 ,41.41189 
69 ,13.2005 ,0.87608 ,4.18974 ,41.10968 
70 ,13.4084 ,0.87824 ,4.18974 ,41.10968 
71 ,13.5844 ,0.87998 ,4.16236 ,40.84106 
72 ,13.7767 ,0.88187 ,4.13840 ,40.60601 
73 ,14.0008 ,0.88398 ,4.11445 ,40.37096 
74 ,14.1924 ,0.88603 ,4.11787 ,40.40454 
75 ,14.3850 ,0.88794 ,4.08365 ,40.06876 
76 ,14.5771 ,0.88990 ,4.05627 ,39.80013 
77 ,14.7692 ,0.89178 ,4.06312 ,39.86729 
78 ,14.9772 ,0.89385 ,4.02889 ,39.53150 
79 ,15.1693 ,0.89577 ,4.02889 ,39.53150 
80 ,15.3614 ,0.89768 ,3.99125 ,39.16214 
81 ,15.5534 ,0.89959 ,3.98098 ,39.06141 
82 ,15.7453 ,0.90157 ,3.96045 ,38.85994 
83 ,15.9377 ,0.90351 ,3.92623 ,38.52415 
84 ,16.1457 ,0.90554 ,3.92965 ,38.55773 
85 ,16.3374 ,0.90749 ,3.90227 ,38.28911 
86 ,16.5298 ,0.90946 ,3.90570 ,38.32268 
87 ,16.7220 ,0.91123 ,3.87490 ,38.02048 
88 ,16.9140 ,0.91330 ,3.87147 ,37.98690 
89 ,17.1060 ,0.91514 ,3.83725 ,37.65112 
90 ,17.2822 ,0.91693 ,3.81330 ,37.41607 
91 ,17.4743 ,0.91886 ,3.80303 ,37.31534 
92 ,17.6664 ,0.92075 ,3.78934 ,37.18102 
93 ,17.8745 ,0.92284 ,3.77223 ,37.01313 
94 ,18.0664 ,0.92475 ,3.75512 ,36.84524 
95 ,18.2746 ,0.92685 ,3.73117 ,36.61019 
96 ,18.4507 ,0.92862 ,3.72090 ,36.50946 
97 ,18.6587 ,0.93074 ,3.67983 ,36.10652 
98 ,18.8509 ,0.93262 ,3.67983 ,36.10652 
99 ,19.0425 ,0.93450 ,3.65246 ,35.83789 
100 ,19.2190 ,0.93632 ,3.63192 ,35.63642 
101 ,19.4432 ,0.93849 ,3.62166 ,35.53569 
102 ,19.6512 ,0.94053 ,3.61139 ,35.43495 
103 ,19.8434 ,0.94253 ,3.57717 ,35.09917 
104 ,20.0353 ,0.94441 ,3.57375 ,35.06559 
105 ,20.2274 ,0.94632 ,3.55663 ,34.89770 
106 ,20.4352 ,0.94843 ,3.52584 ,34.59549 
107 ,20.6274 ,0.95030 ,3.51215 ,34.46118 
108 ,20.8197 ,0.95228 ,3.48819 ,34.22613 
109 ,21.0275 ,0.95433 ,3.47450 ,34.09182 
110 ,21.2196 ,0.95623 ,3.44713 ,33.82319 
111 ,21.3956 ,0.95807 ,3.43686 ,33.72246 
112 ,21.5874 ,0.95990 ,3.44028 ,33.75604 
113 ,21.7794 ,0.96183 ,3.40948 ,33.45383 
114 ,21.9717 ,0.96375 ,3.38553 ,33.21878 
115 ,22.1477 ,0.96557 ,3.37184 ,33.08447 
116 ,22.3402 ,0.96741 ,3.36499 ,33.01731 
117 ,22.5321 ,0.96945 ,3.32735 ,32.64795 
118 ,22.7083 ,0.97118 ,3.33762 ,32.74869 
119 ,22.9004 ,0.97302 ,3.29313 ,32.31217 
120 ,23.1087 ,0.97512 ,3.29655 ,32.34575 
121 ,23.3002 ,0.97703 ,3.26233 ,32.00996 
122 ,23.4926 ,0.97897 ,3.24522 ,31.84207 
123 ,23.7007 ,0.98101 ,3.22126 ,31.60702 
124 ,23.9088 ,0.98302 ,3.20415 ,31.43913 
125 ,24.1010 ,0.98503 ,3.19731 ,31.37198 
126 ,24.2930 ,0.98701 ,3.18020 ,31.20409 
127 ,24.4851 ,0.98888 ,3.17335 ,31.13693 
128 ,24.6770 ,0.99082 ,3.12544 ,30.66683 
129 ,24.8694 ,0.99274 ,3.13913 ,30.80115 
130 ,25.0614 ,0.99467 ,3.10491 ,30.46536 
131 ,25.2530 ,0.99655 ,3.09122 ,30.33105 
132 ,25.4454 ,0.99856 ,3.09806 ,30.39821 
133 ,25.6536 ,1.00058 ,3.05358 ,29.96169 
134 ,25.8618 ,1.00270 ,3.02278 ,29.65948 
135 ,26.0538 ,1.00458 ,3.02278 ,29.65948 
136 ,26.2465 ,1.00647 ,3.00909 ,29.52517 
137 ,26.4380 ,1.00845 ,2.98171 ,29.25654 
138 ,26.6300 ,1.01045 ,2.96802 ,29.12223 
139 ,26.8060 ,1.01216 ,2.96118 ,29.05507 
140 ,26.9982 ,1.01402 ,2.91669 ,28.61856 
141 ,27.1902 ,1.01595 ,2.93038 ,28.75287 
142 ,27.3823 ,1.01787 ,2.89616 ,28.41709 
143 ,27.5745 ,1.01981 ,2.87562 ,28.21562 
144 ,27.7663 ,1.02175 ,2.87905 ,28.24919 
145 ,27.9746 ,1.02377 ,2.85167 ,27.98057 
146 ,28.1666 ,1.02575 ,2.82429 ,27.71194 
147 ,28.3427 ,1.02750 ,2.82429 ,27.71194 
148 ,28.5348 ,1.02940 ,2.79691 ,27.44332 
149 ,28.7265 ,1.03126 ,2.80034 ,27.47689 
150 ,28.9189 ,1.03323 ,2.75927 ,27.07395 
151 ,29.1269 ,1.03526 ,2.75585 ,27.04038 
152 ,29.3191 ,1.03717 ,2.71820 ,26.67101 
153 ,29.5273 ,1.03930 ,2.73531 ,26.83891 
154 ,29.7193 ,1.04119 ,2.68740 ,26.36881 
155 ,29.9273 ,1.04327 ,2.69425 ,26.43597 
156 ,30.1355 ,1.04539 ,2.65318 ,26.03303 
157 ,30.3276 ,1.04737 ,2.65660 ,26.06661 
158 ,30.5196 ,1.04916 ,2.62238 ,25.73082 
159 ,30.7274 ,1.05128 ,2.62923 ,25.79798 
160 ,30.9034 ,1.05313 ,2.59158 ,25.42862 
161 ,31.0958 ,1.05498 ,2.57105 ,25.22715 
162 ,31.4479 ,1.05770 ,2.56763 ,25.19357 
163 ,31.6399 ,1.06037 ,2.54025 ,24.92494 
164 ,31.8321 ,1.06240 ,2.50603 ,24.58916 
165 ,32.0243 ,1.06422 ,2.50945 ,24.62274 
166 ,32.2003 ,1.06606 ,2.48550 ,24.38769 
167 ,32.4085 ,1.06810 ,2.49234 ,24.45485 
168 ,32.6004 ,1.07004 ,2.46496 ,24.18622 
169 ,32.7764 ,1.07184 ,2.43074 ,23.85044 
170 ,32.9685 ,1.07368 ,2.43416 ,23.88402 
171 ,33.1446 ,1.07556 ,2.40679 ,23.61539 
172 ,33.3207 ,1.07728 ,2.40679 ,23.61539 
173 ,33.4967 ,1.07900 ,2.38283 ,23.38034 
174 ,33.6730 ,1.08085 ,2.37599 ,23.31318 
175 ,33.8645 ,1.08260 ,2.36230 ,23.17887 
176 ,34.0406 ,1.08458 ,2.31781 ,22.74235 
177 ,34.2327 ,1.08639 ,2.31439 ,22.70877 
178 ,34.4407 ,1.08852 ,2.29728 ,22.54088 
179 ,34.6332 ,1.09034 ,2.29043 ,22.47373 
180 ,34.8414 ,1.09242 ,2.26306 ,22.20510 
181 ,35.0176 ,1.09425 ,2.26306 ,22.20510 
182 ,35.2094 ,1.09611 ,2.23910 ,21.97005 
183 ,35.4017 ,1.09801 ,2.22541 ,21.83574 
184 ,35.6098 ,1.10009 ,2.20146 ,21.60069 
185 ,35.8018 ,1.10204 ,2.20146 ,21.60069 
186 ,35.9939 ,1.10405 ,2.18777 ,21.46638 
187 ,36.1700 ,1.10576 ,2.16381 ,21.23133 
188 ,36.3616 ,1.10771 ,2.13986 ,20.99628 
189 ,36.5537 ,1.10951 ,2.12959 ,20.89555 
190 ,36.7461 ,1.11152 ,2.11590 ,20.76123 
191 ,36.9543 ,1.11354 ,2.09879 ,20.59334 
192 ,37.1464 ,1.11550 ,2.09195 ,20.52619 
193 ,37.3540 ,1.11741 ,2.05430 ,20.15682 
194 ,37.5464 ,1.11943 ,2.05430 ,20.15682 
195 ,37.7388 ,1.12144 ,2.03035 ,19.92178 
196 ,37.9306 ,1.12331 ,2.01324 ,19.75388 
197 ,38.1227 ,1.12520 ,2.01324 ,19.75388 
198 ,38.3147 ,1.12710 ,1.98586 ,19.48526 
199 ,38.4907 ,1.12899 ,1.95848 ,19.21663 
200 ,38.6831 ,1.13083 ,1.97559 ,19.38452 
201 ,38.8911 ,1.13287 ,1.94479 ,19.08232 
202 ,39.0832 ,1.13484 ,1.93111 ,18.94801 
203 ,39.2911 ,1.13691 ,1.91057 ,18.74654 
204 ,39.4673 ,1.13872 ,1.91057 ,18.74654 
205 ,39.6749 ,1.14083 ,1.87635 ,18.41075 
206 ,39.8510 ,1.14261 ,1.87977 ,18.44433 
207 ,40.0275 ,1.14430 ,1.85240 ,18.17570 
208 ,40.2032 ,1.14615 ,1.84213 ,18.07497 
209 ,40.3796 ,1.14783 ,1.83871 ,18.04139 
210 ,40.5714 ,1.14972 ,1.80449 ,17.70561 
211 ,40.7314 ,1.15147 ,1.80106 ,17.67203 
212 ,40.9238 ,1.15323 ,1.80106 ,17.67203 
213 ,41.1321 ,1.15532 ,1.77369 ,17.40340 
214 ,41.3240 ,1.15723 ,1.77026 ,17.36983 
215 ,41.4998 ,1.15906 ,1.75315 ,17.20193 
216 ,41.6919 ,1.16090 ,1.73262 ,17.00046 
217 ,41.8842 ,1.16284 ,1.72578 ,16.93331 
218 ,42.0762 ,1.16472 ,1.70524 ,16.73184 
219 ,42.2522 ,1.16654 ,1.67786 ,16.46321 
220 ,42.4605 ,1.16855 ,1.68471 ,16.53037 
221 ,42.6526 ,1.17050 ,1.66418 ,16.32890 
222 ,42.8606 ,1.17252 ,1.65391 ,16.22816 
223 ,43.0528 ,1.17456 ,1.63338 ,16.02669 
224 ,43.2604 ,1.17658 ,1.62311 ,15.92596 
225 ,43.4690 ,1.17867 ,1.61284 ,15.82522 
226 ,43.6769 ,1.18078 ,1.58889 ,15.59018 
227 ,43.8692 ,1.18270 ,1.57862 ,15.48944 
228 ,44.0611 ,1.18460 ,1.58204 ,15.52302 
229 ,44.2374 ,1.18649 ,1.54440 ,15.15366 
230 ,44.4133 ,1.18820 ,1.54098 ,15.12008 
231 ,44.6054 ,1.19005 ,1.52729 ,14.98577 
232 ,44.7972 ,1.19192 ,1.51018 ,14.81787 
233 ,44.9896 ,1.19384 ,1.49649 ,14.68356 
234 ,45.1815 ,1.19576 ,1.48965 ,14.61640 
235 ,45.3737 ,1.19772 ,1.47253 ,14.44851 
236 ,45.5496 ,1.19955 ,1.45200 ,14.24704 
237 ,45.7419 ,1.20135 ,1.45542 ,14.28062 
238 ,45.9179 ,1.20318 ,1.43831 ,14.11273 
239 ,46.0940 ,1.20493 ,1.41778 ,13.91126 
240 ,46.2858 ,1.20677 ,1.40067 ,13.74337 
241 ,46.4782 ,1.20871 ,1.39725 ,13.70979 
242 ,46.6861 ,1.21085 ,1.38356 ,13.57548 
243 ,46.8783 ,1.21280 ,1.36987 ,13.44116 
244 ,47.0545 ,1.21454 ,1.35960 ,13.34043 
245 ,47.2462 ,1.21646 ,1.33565 ,13.10538 
246 ,47.4387 ,1.21839 ,1.34249 ,13.17254 
247 ,47.6467 ,1.22043 ,1.30827 ,12.83675 
248 ,47.8388 ,1.22232 ,1.30485 ,12.80318 
249 ,48.0308 ,1.22426 ,1.27747 ,12.53455 
250 ,48.2389 ,1.22630 ,1.28089 ,12.56813 
251 ,48.4310 ,1.22825 ,1.23983 ,12.16519 
252 ,48.6391 ,1.23034 ,1.25009 ,12.26592 
253 ,48.8151 ,1.23222 ,1.21245 ,11.89656 
254 ,49.0071 ,1.23407 ,1.20903 ,11.86298 
255 ,49.1991 ,1.23592 ,1.22956 ,12.06445 
256 ,49.3752 ,1.23777 ,1.18165 ,11.59436 
257 ,49.5513 ,1.23959 ,1.17823 ,11.56078 
258 ,49.7434 ,1.24136 ,1.16796 ,11.46004 
259 ,49.9357 ,1.24332 ,1.15085 ,11.29215 
260 ,50.1597 ,1.24544 ,1.13716 ,11.15784 
261 ,50.3518 ,1.24749 ,1.13032 ,11.09068 
262 ,50.5439 ,1.24934 ,1.10979 ,10.88921 
263 ,50.7197 ,1.25122 ,1.11663 ,10.95637 
264 ,50.9121 ,1.25305 ,1.08925 ,10.68774 
265 ,51.1041 ,1.25498 ,1.08241 ,10.62059 
266 ,51.2961 ,1.25689 ,1.07214 ,10.51985 
267 ,51.4880 ,1.25879 ,1.05845 ,10.38554 
268 ,51.6960 ,1.26089 ,1.03792 ,10.18407 
269 ,51.8722 ,1.26280 ,1.01739 ,9.98260 
270 ,52.0644 ,1.26455 ,1.01739 ,9.98260 
271 ,52.2405 ,1.26638 ,1.00712 ,9.88186 
272 ,52.4326 ,1.26826 ,0.99343 ,9.74755 
273 ,52.6243 ,1.27017 ,0.97632 ,9.57966 
274 ,52.8167 ,1.27211 ,0.96948 ,9.51250 
275 ,53.0248 ,1.27417 ,0.95237 ,9.34461 
276 ,53.2328 ,1.27616 ,0.94552 ,9.27745 
277 ,53.4248 ,1.27819 ,0.92841 ,9.10956 
278 ,53.6328 ,1.28022 ,0.92841 ,9.10956 
279 ,53.8091 ,1.28208 ,0.89077 ,8.74020 
280 ,54.0012 ,1.28387 ,0.89761 ,8.80736 
281 ,54.1774 ,1.28574 ,0.88392 ,8.67305 
282 ,54.3695 ,1.28762 ,0.86339 ,8.47158 
283 ,54.5615 ,1.28953 ,0.85997 ,8.43800 
284 ,54.7531 ,1.29147 ,0.83943 ,8.23653 
285 ,54.9296 ,1.29329 ,0.83943 ,8.23653 
286 ,55.1217 ,1.29516 ,0.82232 ,8.06864 
287 ,55.2976 ,1.29692 ,0.80521 ,7.90074 
288 ,55.4739 ,1.29874 ,0.80179 ,7.86717 
289 ,55.6820 ,1.30075 ,0.77441 ,7.59854 
290 ,55.8898 ,1.30272 ,0.77784 ,7.63212 
291 ,56.0981 ,1.30486 ,0.76757 ,7.53138 
292 ,56.3058 ,1.30696 ,0.74019 ,7.26276 
293 ,56.4982 ,1.30889 ,0.75046 ,7.36349 
294 ,56.6903 ,1.31081 ,0.71281 ,6.99413 
295 ,56.8983 ,1.31292 ,0.71624 ,7.02771 
296 ,57.0904 ,1.31486 ,0.68544 ,6.72550 
297 ,57.2984 ,1.31684 ,0.69570 ,6.82624 
298 ,57.4906 ,1.31878 ,0.66490 ,6.52403 
299 ,57.6986 ,1.32085 ,0.66833 ,6.55761 
300 ,57.8908 ,1.32280 ,0.64779 ,6.35614 
301 ,58.0825 ,1.32476 ,0.62384 ,6.12109 
302 ,58.2747 ,1.32668 ,0.63410 ,6.22183 
303 ,58.4670 ,1.32864 ,0.59304 ,5.81889 
304 ,58.6750 ,1.33068 ,0.60330 ,5.91962 
305 ,58.8670 ,1.33264 ,0.57593 ,5.65100 
306 ,59.0592 ,1.33457 ,0.58619 ,5.75173 
307 ,59.2353 ,1.33636 ,0.55539 ,5.44953 
308 ,59.4272 ,1.33827 ,0.54855 ,5.38237 
309 ,59.6195 ,1.34009 ,0.53828 ,5.28164 
310 ,59.8115 ,1.34199 ,0.53486 ,5.24806 
311 ,59.9875 ,1.34388 ,0.51433 ,5.04659 
312 ,60.1797 ,1.34569 ,0.52802 ,5.18090 
313 ,60.3877 ,1.34779 ,0.51433 ,5.04659 
314 ,60.5799 ,1.34977 ,0.47326 ,4.64365 
315 ,60.7880 ,1.35175 ,0.46984 ,4.61007 
316 ,60.9801 ,1.35375 ,0.46300 ,4.54291 
317 ,61.1722 ,1.35569 ,0.45615 ,4.47576 
318 ,61.3798 ,1.35771 ,0.43904 ,4.30787 
319 ,61.5723 ,1.35965 ,0.43220 ,4.24071 
320 ,61.7639 ,1.36155 ,0.39455 ,3.87135 
321 ,61.9405 ,1.36334 ,0.39455 ,3.87135 
322 ,62.1325 ,1.36525 ,0.39797 ,3.90493 
323 ,62.3406 ,1.36720 ,0.37744 ,3.70346 
324 ,62.5327 ,1.36927 ,0.36718 ,3.60272 
325 ,62.7247 ,1.37121 ,0.35349 ,3.46841 
326 ,62.9328 ,1.37324 ,0.36033 ,3.53557 
327 ,63.1089 ,1.37503 ,0.33980 ,3.33410 
328 ,63.3010 ,1.37689 ,0.31926 ,3.13263 
329 ,63.4932 ,1.37883 ,0.32953 ,3.23336 
330 ,63.6851 ,1.38074 ,0.31584 ,3.09905 
331 ,63.8932 ,1.38278 ,0.29873 ,2.93116 
332 ,64.0852 ,1.38487 ,0.28504 ,2.79684 
333 ,64.2772 ,1.38665 ,0.27478 ,2.69611 
334 ,64.4693 ,1.38857 ,0.27478 ,2.69611 
335 ,64.6616 ,1.39064 ,0.24740 ,2.42748 
336 ,64.8214 ,1.39227 ,0.24398 ,2.39390 
337 ,65.0136 ,1.39412 ,0.22687 ,2.22601 
338 ,65.1899 ,1.39586 ,0.25767 ,2.52822 
339 ,65.3979 ,1.39787 ,0.20976 ,2.05812 
340 ,65.5898 ,1.39982 ,0.21660 ,2.12528 
341 ,65.7978 ,1.40183 ,0.19949 ,1.95738 
342 ,66.0057 ,1.40390 ,0.17211 ,1.68876 
343 ,66.1983 ,1.40586 ,0.16869 ,1.65518 
344 ,66.4063 ,1.40794 ,0.14816 ,1.45371 
345 ,66.5825 ,1.40976 ,0.14131 ,1.38655 
346 ,66.7741 ,1.41174 ,0.14473 ,1.42013 
347 ,66.9826 ,1.41360 ,0.12762 ,1.25224 
348 ,67.1746 ,1.41568 ,0.10367 ,1.01719 
349 ,67.3506 ,1.41741 ,0.11051 ,1.08435 
350 ,67.5428 ,1.41931 ,0.07629 ,0.74857 
351 ,67.7349 ,1.42122 ,0.08314 ,0.81572 
352 ,67.9268 ,1.42310 ,0.06945 ,0.68141 
353 ,68.1029 ,1.42497 ,0.04891 ,0.47994 
354 ,68.2950 ,1.42682 ,0.03522 ,0.34563 
355 ,68.4712 ,1.42867 ,0.04549 ,0.44636 
356 ,68.6632 ,1.43052 ,0.02838 ,0.27847 
357 ,68.8553 ,1.43252 ,0.00100 ,0.00984 
358 ,69.0475 ,1.43437 ,0.01469 ,0.14416 
359 ,69.2556 ,1.43642 ,-0.00584 ,-0.05731 
360 ,69.4477 ,1.43835 ,-0.00242 ,-0.02373 
361 ,69.6557 ,1.44039 ,-0.02637 ,-0.25878 
362 ,69.8479 ,1.44231 ,-0.01953 ,-0.19163 
363 ,70.0073 ,1.44413 ,-0.02980 ,-0.29236 
364 ,70.1993 ,1.44587 ,-0.05375 ,-0.52741 
365 ,70.3914 ,1.44779 ,-0.06744 ,-0.66172 
366 ,70.5841 ,1.44973 ,-0.08113 ,-0.79604 
367 ,70.7923 ,1.45183 ,-0.08797 ,-0.86319 
368 ,71.0003 ,1.45388 ,-0.10166 ,-0.99751 
369 ,71.1922 ,1.45579 ,-0.09824 ,-0.96393 
370 ,71.4163 ,1.45792 ,-0.11877 ,-1.16540 
371 ,71.5925 ,1.45986 ,-0.13246 ,-1.29971 
372 ,71.7686 ,1.46159 ,-0.12562 ,-1.23255 
373 ,71.9608 ,1.46349 ,-0.13931 ,-1.36687 
374 ,72.1524 ,1.46550 ,-0.14615 ,-1.43402 
375 ,72.3609 ,1.46737 ,-0.15642 ,-1.53476 
376 ,72.5689 ,1.46954 ,-0.17011 ,-1.66907 
377 ,72.7610 ,1.47150 ,-0.19748 ,-1.93770 
378 ,72.9531 ,1.47340 ,-0.20090 ,-1.97128 
379 ,73.1452 ,1.47534 ,-0.19064 ,-1.87054 
380 ,73.3372 ,1.47720 ,-0.22144 ,-2.17275 
381 ,73.5134 ,1.47905 ,-0.23170 ,-2.27348 
382 ,73.7215 ,1.48107 ,-0.24197 ,-2.37422 
383 ,73.9135 ,1.48302 ,-0.25566 ,-2.50853 
384 ,74.1056 ,1.48493 ,-0.25224 ,-2.47495 
385 ,74.2974 ,1.48688 ,-0.25908 ,-2.54211 
386 ,74.4895 ,1.48872 ,-0.27619 ,-2.71000 
387 ,74.6819 ,1.49072 ,-0.28988 ,-2.84431 
388 ,74.8739 ,1.49261 ,-0.29673 ,-2.91147 
389 ,75.0660 ,1.49450 ,-0.29330 ,-2.87789 
390 ,75.2740 ,1.49657 ,-0.32752 ,-3.21367 
391 ,75.4659 ,1.49847 ,-0.32068 ,-3.14652 
392 ,75.6422 ,1.50031 ,-0.31384 ,-3.07936 
393 ,75.8339 ,1.50223 ,-0.34806 ,-3.41514 
394 ,76.0261 ,1.50408 ,-0.35490 ,-3.48230 
395 ,76.2024 ,1.50593 ,-0.36175 ,-3.54946 
396 ,76.4104 ,1.50796 ,-0.37201 ,-3.65019 
397 ,76.6026 ,1.50991 ,-0.37544 ,-3.68377 
398 ,76.7946 ,1.51178 ,-0.39939 ,-3.91882 
399 ,76.9867 ,1.51366 ,-0.39255 ,-3.85166 
400 ,77.1629 ,1.51555 ,-0.40281 ,-3.95240 
401 ,77.3710 ,1.51753 ,-0.42335 ,-4.15387 
402 ,77.5626 ,1.51960 ,-0.43019 ,-4.22102 
403 ,77.7551 ,1.52140 ,-0.45757 ,-4.48965 
404 ,77.9632 ,1.52350 ,-0.43019 ,-4.22102 
405 ,78.1553 ,1.52541 ,-0.46783 ,-4.59038 
406 ,78.3634 ,1.52745 ,-0.46099 ,-4.52323 
407 ,78.5555 ,1.52936 ,-0.49179 ,-4.82543 
408 ,78.7475 ,1.53128 ,-0.49863 ,-4.89259 
409 ,78.9396 ,1.53325 ,-0.50890 ,-4.99332 
410 ,79.1317 ,1.53514 ,-0.51232 ,-5.02690 
411 ,79.3396 ,1.53724 ,-0.50890 ,-4.99332 
412 ,79.5159 ,1.53905 ,-0.52601 ,-5.16121 
413 ,79.7235 ,1.54109 ,-0.52943 ,-5.19479 
414 ,79.9160 ,1.54297 ,-0.53970 ,-5.29553 
415 ,80.1081 ,1.54494 ,-0.54654 ,-5.36268 
416 ,80.3159 ,1.54695 ,-0.58077 ,-5.69847 
417 ,80.5241 ,1.54909 ,-0.57050 ,-5.59773 
418 ,80.7163 ,1.55097 ,-0.59788 ,-5.86636 
419 ,80.9242 ,1.55306 ,-0.57734 ,-5.66489 
420 ,81.1162 ,1.55499 ,-0.59445 ,-5.83278 
421 ,81.3246 ,1.55706 ,-0.60814 ,-5.96709 
422 ,81.5166 ,1.55900 ,-0.61841 ,-6.06783 
423 ,81.6923 ,1.56085 ,-0.63552 ,-6.23572 
424 ,81.8844 ,1.56262 ,-0.63552 ,-6.23572 
425 ,82.0764 ,1.56456 ,-0.64921 ,-6.37003 
426 ,82.2688 ,1.56655 ,-0.65947 ,-6.47077 
427 ,82.4930 ,1.56875 ,-0.66974 ,-6.57150 
428 ,82.7010 ,1.57085 ,-0.66974 ,-6.57150 
429 ,82.8931 ,1.57272 ,-0.69027 ,-6.77297 
430 ,83.0853 ,1.57463 ,-0.68685 ,-6.73940 
431 ,83.2771 ,1.57657 ,-0.71081 ,-6.97444 
432 ,83.4533 ,1.57845 ,-0.73134 ,-7.17591 
433 ,83.6290 ,1.58015 ,-0.72792 ,-7.14233 
434 ,83.8054 ,1.58196 ,-0.72792 ,-7.14233 
435 ,83.9976 ,1.58377 ,-0.74161 ,-7.27665 
436 ,84.1896 ,1.58570 ,-0.75187 ,-7.37738 
437 ,84.3979 ,1.58780 ,-0.75187 ,-7.37738 
438 ,84.5897 ,1.58971 ,-0.77241 ,-7.57885 
439 ,84.7820 ,1.59168 ,-0.76214 ,-7.47812 
440 ,84.9900 ,1.59369 ,-0.78952 ,-7.74674 
441 ,85.1657 ,1.59550 ,-0.79636 ,-7.81390 
442 ,85.3580 ,1.59736 ,-0.77925 ,-7.64601 
443 ,85.5343 ,1.59920 ,-0.80663 ,-7.91464 
444 ,85.7423 ,1.60124 ,-0.80321 ,-7.88106 
445 ,85.9344 ,1.60322 ,-0.82032 ,-8.04895 
446 ,86.1105 ,1.60496 ,-0.84085 ,-8.25042 
447 ,86.3026 ,1.60685 ,-0.83401 ,-8.18326 
448 ,86.4945 ,1.60885 ,-0.86481 ,-8.48547 
449 ,86.6865 ,1.61063 ,-0.85796 ,-8.41831 
450 ,86.8627 ,1.61247 ,-0.86481 ,-8.48547 
451 ,87.0549 ,1.61430 ,-0.88192 ,-8.65336 
452 ,87.2467 ,1.61625 ,-0.88534 ,-8.68694 
453 ,87.4392 ,1.61821 ,-0.88192 ,-8.65336 
454 ,87.6470 ,1.62026 ,-0.90245 ,-8.85483 
455 ,87.8391 ,1.62217 ,-0.89560 ,-8.78767 
456 ,88.0153 ,1.62398 ,-0.91272 ,-8.95556 
457 ,88.2073 ,1.62585 ,-0.92983 ,-9.12345 
458 ,88.3830 ,1.62771 ,-0.93325 ,-9.15703 
459 ,88.5755 ,1.62955 ,-0.93667 ,-9.19061 
460 ,88.7677 ,1.63149 ,-0.95378 ,-9.35850 
461 ,88.9757 ,1.63353 ,-0.95036 ,-9.32492 
462 ,89.1519 ,1.63535 ,-0.97431 ,-9.55997 
463 ,89.3599 ,1.63736 ,-0.95720 ,-9.39208 
