Data stamp = , 03-05-2022 08:08:37 501

Calibration Values: 
Slope = , 26.54 , g/V 
Offset Voltage at no contact = , -0.501760 , V 

No , Time , Stage Position ,   Mass , Force 
   ,  (s) ,      (mm)      ,   (g)  , (mN)  

1 ,0.0000 ,0.89946 ,5.28141 ,51.82116 
2 ,0.2293 ,0.89956 ,5.30536 ,52.05621 
3 ,0.7415 ,0.90121 ,5.29852 ,51.98905 
4 ,0.9658 ,0.90374 ,5.29852 ,51.98905 
5 ,1.1741 ,0.90591 ,5.30878 ,52.08979 
6 ,1.3980 ,0.90807 ,5.29167 ,51.92190 
7 ,1.5903 ,0.91010 ,5.25745 ,51.58611 
8 ,1.7985 ,0.91220 ,5.25403 ,51.55254 
9 ,2.0064 ,0.91421 ,5.23692 ,51.38464 
10 ,2.2145 ,0.91634 ,5.20954 ,51.11602 
11 ,2.4221 ,0.91838 ,5.17532 ,50.78023 
12 ,2.6468 ,0.92068 ,5.15479 ,50.57876 
13 ,2.8548 ,0.92272 ,5.13768 ,50.41087 
14 ,3.0468 ,0.92463 ,5.11030 ,50.14225 
15 ,3.2388 ,0.92658 ,5.10003 ,50.04151 
16 ,3.4469 ,0.92855 ,5.09319 ,49.97436 
17 ,3.6550 ,0.93066 ,5.07265 ,49.77289 
18 ,3.8473 ,0.93263 ,5.02474 ,49.30279 
19 ,4.0708 ,0.93489 ,5.01448 ,49.20205 
20 ,4.2794 ,0.93692 ,4.98026 ,48.86627 
21 ,4.4872 ,0.93907 ,4.95630 ,48.63122 
22 ,4.6796 ,0.94101 ,4.94603 ,48.53049 
23 ,4.8876 ,0.94304 ,4.91523 ,48.22828 
24 ,5.0797 ,0.94499 ,4.91181 ,48.19471 
25 ,5.3037 ,0.94715 ,4.87759 ,47.85892 
26 ,5.5278 ,0.94944 ,4.86048 ,47.69103 
27 ,5.7359 ,0.95151 ,4.84337 ,47.52314 
28 ,5.9280 ,0.95347 ,4.82968 ,47.38883 
29 ,6.1361 ,0.95554 ,4.80915 ,47.18736 
30 ,6.3281 ,0.95756 ,4.77150 ,46.81800 
31 ,6.5203 ,0.95938 ,4.75439 ,46.65010 
32 ,6.7122 ,0.96130 ,4.74070 ,46.51579 
33 ,6.9362 ,0.96352 ,4.70990 ,46.21359 
34 ,7.1285 ,0.96547 ,4.67911 ,45.91138 
35 ,7.3204 ,0.96737 ,4.65515 ,45.67633 
36 ,7.5286 ,0.96944 ,4.65857 ,45.70991 
37 ,7.7369 ,0.97153 ,4.64146 ,45.54202 
38 ,7.9605 ,0.97371 ,4.60724 ,45.20624 
39 ,8.1529 ,0.97569 ,4.59697 ,45.10550 
40 ,8.3449 ,0.97763 ,4.57302 ,44.87045 
41 ,8.5529 ,0.97978 ,4.55933 ,44.73614 
42 ,8.7288 ,0.98158 ,4.51826 ,44.33320 
43 ,8.9213 ,0.98338 ,4.50115 ,44.16531 
44 ,9.1454 ,0.98557 ,4.49431 ,44.09815 
45 ,9.3695 ,0.98789 ,4.47035 ,43.86310 
46 ,9.5773 ,0.98997 ,4.45666 ,43.72879 
47 ,9.7857 ,0.99203 ,4.41902 ,43.35943 
48 ,9.9933 ,0.99401 ,4.41902 ,43.35943 
49 ,10.1698 ,0.99595 ,4.37795 ,42.95649 
50 ,10.3779 ,0.99793 ,4.35742 ,42.75502 
51 ,10.5860 ,1.00000 ,4.34716 ,42.65429 
52 ,10.7777 ,1.00191 ,4.32320 ,42.41924 
53 ,10.9703 ,1.00382 ,4.31978 ,42.38566 
54 ,11.1623 ,1.00577 ,4.29240 ,42.11703 
55 ,11.3704 ,1.00783 ,4.29240 ,42.11703 
56 ,11.5785 ,1.00991 ,4.25818 ,41.78125 
57 ,11.7544 ,1.01182 ,4.23765 ,41.57978 
58 ,11.9466 ,1.01358 ,4.22738 ,41.47905 
59 ,12.1548 ,1.01567 ,4.19316 ,41.14326 
60 ,12.3628 ,1.01777 ,4.16578 ,40.87464 
61 ,12.5706 ,1.01981 ,4.17262 ,40.94179 
62 ,12.7629 ,1.02176 ,4.12471 ,40.47170 
63 ,12.9706 ,1.02380 ,4.13498 ,40.57243 
64 ,13.1631 ,1.02577 ,4.09734 ,40.20307 
65 ,13.3710 ,1.02785 ,4.09049 ,40.13591 
66 ,13.5792 ,1.02994 ,4.05627 ,39.80013 
67 ,13.7715 ,1.03188 ,4.05969 ,39.83371 
68 ,13.9634 ,1.03377 ,4.02205 ,39.46435 
69 ,14.1712 ,1.03578 ,3.99125 ,39.16214 
70 ,14.3797 ,1.03791 ,3.98098 ,39.06141 
71 ,14.6037 ,1.04002 ,3.98441 ,39.09499 
72 ,14.8278 ,1.04240 ,3.95018 ,38.75920 
73 ,15.0198 ,1.04435 ,3.92281 ,38.49058 
74 ,15.2117 ,1.04623 ,3.90912 ,38.35626 
75 ,15.4039 ,1.04813 ,3.87147 ,37.98690 
76 ,15.5959 ,1.05011 ,3.87147 ,37.98690 
77 ,15.7881 ,1.05199 ,3.86121 ,37.88617 
78 ,15.9802 ,1.05391 ,3.84067 ,37.68470 
79 ,16.1720 ,1.05587 ,3.83725 ,37.65112 
80 ,16.3963 ,1.05807 ,3.78934 ,37.18102 
81 ,16.6043 ,1.06012 ,3.77908 ,37.08029 
82 ,16.7965 ,1.06214 ,3.76196 ,36.91240 
83 ,17.0046 ,1.06418 ,3.74143 ,36.71093 
84 ,17.2124 ,1.06620 ,3.72432 ,36.54303 
85 ,17.4208 ,1.06832 ,3.70037 ,36.30799 
86 ,17.6449 ,1.07059 ,3.67983 ,36.10652 
87 ,17.8528 ,1.07266 ,3.67641 ,36.07294 
88 ,18.0448 ,1.07458 ,3.65588 ,35.87147 
89 ,18.2210 ,1.07643 ,3.62508 ,35.56926 
90 ,18.4129 ,1.07827 ,3.63192 ,35.63642 
91 ,18.6209 ,1.08037 ,3.59428 ,35.26706 
92 ,18.8292 ,1.08240 ,3.58743 ,35.19990 
93 ,19.0212 ,1.08435 ,3.56006 ,34.93128 
94 ,19.2295 ,1.08636 ,3.56006 ,34.93128 
95 ,19.4215 ,1.08833 ,3.52241 ,34.56192 
96 ,19.6297 ,1.09034 ,3.51899 ,34.52834 
97 ,19.8217 ,1.09232 ,3.49161 ,34.25971 
98 ,20.0298 ,1.09439 ,3.49504 ,34.29329 
99 ,20.2379 ,1.09645 ,3.45739 ,33.92393 
100 ,20.4300 ,1.09844 ,3.45055 ,33.85677 
101 ,20.6537 ,1.10063 ,3.43686 ,33.72246 
102 ,20.8622 ,1.10274 ,3.41633 ,33.52099 
103 ,21.0702 ,1.10480 ,3.39921 ,33.35310 
104 ,21.2785 ,1.10687 ,3.35815 ,32.95016 
105 ,21.4704 ,1.10884 ,3.35815 ,32.95016 
106 ,21.6786 ,1.11086 ,3.34104 ,32.78227 
107 ,21.8706 ,1.11280 ,3.33419 ,32.71511 
108 ,22.0623 ,1.11468 ,3.29313 ,32.31217 
109 ,22.2550 ,1.11665 ,3.29313 ,32.31217 
110 ,22.4784 ,1.11885 ,3.26233 ,32.00996 
111 ,22.6705 ,1.12079 ,3.26233 ,32.00996 
112 ,22.8467 ,1.12270 ,3.22811 ,31.67418 
113 ,23.0547 ,1.12461 ,3.21442 ,31.53987 
114 ,23.2472 ,1.12659 ,3.21442 ,31.53987 
115 ,23.4553 ,1.12867 ,3.18362 ,31.23766 
116 ,23.6472 ,1.13061 ,3.16993 ,31.10335 
117 ,23.8394 ,1.13248 ,3.14597 ,30.86830 
118 ,24.0474 ,1.13458 ,3.14940 ,30.90188 
119 ,24.2396 ,1.13649 ,3.11175 ,30.53252 
120 ,24.4632 ,1.13870 ,3.10491 ,30.46536 
121 ,24.6553 ,1.14074 ,3.09122 ,30.33105 
122 ,24.8957 ,1.14304 ,3.06042 ,30.02884 
123 ,25.1195 ,1.14532 ,3.03989 ,29.82737 
124 ,25.3119 ,1.14729 ,3.05700 ,29.99527 
125 ,25.5201 ,1.14933 ,3.01935 ,29.62590 
126 ,25.7283 ,1.15137 ,3.00909 ,29.52517 
127 ,25.9521 ,1.15348 ,2.97829 ,29.22297 
128 ,26.1601 ,1.15568 ,2.95433 ,28.98792 
129 ,26.3685 ,1.15771 ,2.95776 ,29.02150 
130 ,26.5766 ,1.15984 ,2.93722 ,28.82003 
131 ,26.7524 ,1.16174 ,2.91669 ,28.61856 
132 ,26.9448 ,1.16352 ,2.90985 ,28.55140 
133 ,27.1527 ,1.16562 ,2.88247 ,28.28277 
134 ,27.3444 ,1.16750 ,2.86878 ,28.14846 
135 ,27.5369 ,1.16950 ,2.83798 ,27.84625 
136 ,27.7448 ,1.17153 ,2.83798 ,27.84625 
137 ,27.9531 ,1.17362 ,2.82087 ,27.67836 
138 ,28.1451 ,1.17556 ,2.80718 ,27.54405 
139 ,28.3531 ,1.17756 ,2.77638 ,27.24185 
140 ,28.5454 ,1.17957 ,2.77638 ,27.24185 
141 ,28.7534 ,1.18164 ,2.75243 ,27.00680 
142 ,28.9294 ,1.18352 ,2.75243 ,27.00680 
143 ,29.1213 ,1.18531 ,2.72163 ,26.70459 
144 ,29.3296 ,1.18731 ,2.69767 ,26.46954 
145 ,29.5212 ,1.18931 ,2.67714 ,26.26807 
146 ,29.7138 ,1.19126 ,2.66687 ,26.16734 
147 ,29.9218 ,1.19329 ,2.64634 ,25.96587 
148 ,30.0979 ,1.19520 ,2.63949 ,25.89871 
149 ,30.2899 ,1.19694 ,2.62581 ,25.76440 
150 ,30.4821 ,1.19885 ,2.62923 ,25.79798 
151 ,30.6736 ,1.20081 ,2.58132 ,25.32788 
152 ,30.8663 ,1.20275 ,2.59501 ,25.46220 
153 ,31.0902 ,1.20496 ,2.56763 ,25.19357 
154 ,31.2824 ,1.20687 ,2.55394 ,25.05926 
155 ,31.4743 ,1.20881 ,2.52314 ,24.75705 
156 ,31.6666 ,1.21075 ,2.51972 ,24.72347 
157 ,31.8744 ,1.21277 ,2.48892 ,24.42127 
158 ,32.0827 ,1.21489 ,2.47523 ,24.28696 
159 ,32.2912 ,1.21693 ,2.46154 ,24.15264 
160 ,32.4984 ,1.21904 ,2.45127 ,24.05191 
161 ,32.7390 ,1.22132 ,2.43759 ,23.91759 
162 ,32.9471 ,1.22362 ,2.43416 ,23.88402 
163 ,33.1392 ,1.22548 ,2.40336 ,23.58181 
164 ,33.3473 ,1.22754 ,2.39652 ,23.51465 
165 ,33.5552 ,1.22968 ,2.36914 ,23.24603 
166 ,33.7474 ,1.23155 ,2.36914 ,23.24603 
167 ,33.9392 ,1.23344 ,2.32808 ,22.84309 
168 ,34.1476 ,1.23553 ,2.32123 ,22.77593 
169 ,34.3556 ,1.23760 ,2.30070 ,22.57446 
170 ,34.5479 ,1.23955 ,2.30070 ,22.57446 
171 ,34.7398 ,1.24149 ,2.27332 ,22.30584 
172 ,34.9320 ,1.24338 ,2.25963 ,22.17152 
173 ,35.1398 ,1.24542 ,2.25621 ,22.13794 
174 ,35.3321 ,1.24733 ,2.22541 ,21.83574 
175 ,35.5560 ,1.24940 ,2.23568 ,21.93647 
176 ,35.7479 ,1.25153 ,2.20146 ,21.60069 
177 ,35.9404 ,1.25347 ,2.17750 ,21.36564 
178 ,36.1320 ,1.25538 ,2.16381 ,21.23133 
179 ,36.3565 ,1.25749 ,2.15697 ,21.16417 
180 ,36.5487 ,1.25966 ,2.14670 ,21.06344 
181 ,36.7407 ,1.26149 ,2.11932 ,20.79481 
182 ,36.9491 ,1.26356 ,2.11590 ,20.76123 
183 ,37.1406 ,1.26552 ,2.09879 ,20.59334 
184 ,37.3326 ,1.26740 ,2.06799 ,20.29114 
185 ,37.5250 ,1.26927 ,2.07141 ,20.32472 
186 ,37.7331 ,1.27137 ,2.04061 ,20.02251 
187 ,37.9252 ,1.27335 ,2.04746 ,20.08967 
188 ,38.1333 ,1.27542 ,2.00982 ,19.72031 
189 ,38.3411 ,1.27749 ,2.01324 ,19.75388 
190 ,38.5495 ,1.27947 ,1.96875 ,19.31737 
191 ,38.7416 ,1.28150 ,1.97217 ,19.35094 
192 ,38.9336 ,1.28339 ,1.95506 ,19.18305 
193 ,39.1572 ,1.28552 ,1.94822 ,19.11590 
194 ,39.3496 ,1.28753 ,1.92426 ,18.88085 
195 ,39.5419 ,1.28946 ,1.92084 ,18.84727 
196 ,39.7499 ,1.29154 ,1.90031 ,18.64580 
197 ,39.9579 ,1.29355 ,1.89004 ,18.54507 
198 ,40.1501 ,1.29553 ,1.86951 ,18.34360 
199 ,40.3578 ,1.29760 ,1.85240 ,18.17570 
200 ,40.5657 ,1.29964 ,1.83871 ,18.04139 
201 ,40.7582 ,1.30164 ,1.81817 ,17.83992 
202 ,40.9501 ,1.30355 ,1.81133 ,17.77276 
203 ,41.1421 ,1.30546 ,1.80449 ,17.70561 
204 ,41.3344 ,1.30743 ,1.77026 ,17.36983 
205 ,41.5584 ,1.30956 ,1.79422 ,17.60487 
206 ,41.7504 ,1.31154 ,1.73604 ,17.03404 
207 ,41.9586 ,1.31359 ,1.73604 ,17.03404 
208 ,42.1505 ,1.31552 ,1.71209 ,16.79899 
209 ,42.3427 ,1.31750 ,1.71893 ,16.86615 
210 ,42.5350 ,1.31934 ,1.68813 ,16.56395 
211 ,42.7427 ,1.32148 ,1.68129 ,16.49679 
212 ,42.9352 ,1.32339 ,1.66418 ,16.32890 
213 ,43.1431 ,1.32544 ,1.66418 ,16.32890 
214 ,43.3350 ,1.32738 ,1.62311 ,15.92596 
215 ,43.5273 ,1.32926 ,1.64707 ,16.16101 
216 ,43.7195 ,1.33123 ,1.60942 ,15.79164 
217 ,43.9275 ,1.33324 ,1.58547 ,15.55660 
218 ,44.1354 ,1.33533 ,1.58547 ,15.55660 
219 ,44.3436 ,1.33745 ,1.56151 ,15.32155 
220 ,44.5515 ,1.33945 ,1.53756 ,15.08650 
221 ,44.7600 ,1.34149 ,1.54440 ,15.15366 
222 ,44.9839 ,1.34382 ,1.52387 ,14.95219 
223 ,45.1759 ,1.34575 ,1.50676 ,14.78430 
224 ,45.3840 ,1.34785 ,1.49307 ,14.64998 
225 ,45.5921 ,1.34993 ,1.46911 ,14.41493 
226 ,45.7843 ,1.35182 ,1.47596 ,14.48209 
227 ,45.9921 ,1.35397 ,1.42120 ,13.94484 
228 ,46.2166 ,1.35602 ,1.44516 ,14.17989 
229 ,46.4247 ,1.35828 ,1.43147 ,14.04557 
230 ,46.6324 ,1.36032 ,1.39040 ,13.64263 
231 ,46.8251 ,1.36223 ,1.39725 ,13.70979 
232 ,47.0164 ,1.36420 ,1.36987 ,13.44116 
233 ,47.2245 ,1.36621 ,1.36645 ,13.40759 
234 ,47.4168 ,1.36821 ,1.34591 ,13.20612 
235 ,47.6251 ,1.37019 ,1.33565 ,13.10538 
236 ,47.8331 ,1.37235 ,1.31512 ,12.90391 
237 ,48.0253 ,1.37430 ,1.31169 ,12.87033 
238 ,48.2329 ,1.37636 ,1.29116 ,12.66886 
239 ,48.4573 ,1.37844 ,1.29800 ,12.73602 
240 ,48.6656 ,1.38063 ,1.27747 ,12.53455 
241 ,48.8574 ,1.38259 ,1.25009 ,12.26592 
242 ,49.0657 ,1.38468 ,1.24667 ,12.23235 
243 ,49.2576 ,1.38657 ,1.22272 ,11.99730 
244 ,49.4495 ,1.38847 ,1.19876 ,11.76225 
245 ,49.6416 ,1.39042 ,1.21587 ,11.93014 
246 ,49.8341 ,1.39230 ,1.19192 ,11.69509 
247 ,50.0419 ,1.39439 ,1.18507 ,11.62794 
248 ,50.2343 ,1.39631 ,1.16454 ,11.42647 
249 ,50.4259 ,1.39836 ,1.15770 ,11.35931 
250 ,50.7624 ,1.40093 ,1.14401 ,11.22500 
251 ,50.9865 ,1.40385 ,1.09952 ,10.78848 
252 ,51.1784 ,1.40575 ,1.11663 ,10.95637 
253 ,51.4025 ,1.40788 ,1.06872 ,10.48627 
254 ,51.5783 ,1.40988 ,1.07214 ,10.51985 
255 ,51.7710 ,1.41170 ,1.05845 ,10.38554 
256 ,51.9790 ,1.41373 ,1.04819 ,10.28480 
257 ,52.1707 ,1.41569 ,1.02081 ,10.01618 
258 ,52.3627 ,1.41759 ,1.04476 ,10.25123 
259 ,52.5550 ,1.41957 ,1.01396 ,9.94902 
260 ,52.7793 ,1.42170 ,1.00028 ,9.81471 
261 ,52.9874 ,1.42386 ,0.96605 ,9.47892 
262 ,53.1790 ,1.42581 ,0.98317 ,9.64682 
263 ,53.3876 ,1.42787 ,0.94894 ,9.31103 
264 ,53.5953 ,1.42995 ,0.93525 ,9.17672 
265 ,53.8036 ,1.43199 ,0.93525 ,9.17672 
266 ,53.9958 ,1.43391 ,0.93868 ,9.21030 
267 ,54.1878 ,1.43594 ,0.89419 ,8.77378 
268 ,54.3800 ,1.43775 ,0.90103 ,8.84094 
269 ,54.6199 ,1.44014 ,0.88734 ,8.70662 
270 ,54.8277 ,1.44225 ,0.85997 ,8.43800 
271 ,55.0359 ,1.44434 ,0.86339 ,8.47158 
272 ,55.2283 ,1.44629 ,0.83259 ,8.16937 
273 ,55.4361 ,1.44834 ,0.83601 ,8.20295 
274 ,55.6445 ,1.45031 ,0.79837 ,7.83359 
275 ,55.8527 ,1.45251 ,0.79495 ,7.80001 
276 ,56.0606 ,1.45452 ,0.79152 ,7.76643 
277 ,56.2688 ,1.45662 ,0.77099 ,7.56496 
278 ,56.4768 ,1.45868 ,0.77784 ,7.63212 
279 ,56.6688 ,1.46079 ,0.74361 ,7.29633 
280 ,56.8608 ,1.46258 ,0.74361 ,7.29633 
281 ,57.0685 ,1.46464 ,0.71966 ,7.06129 
282 ,57.2610 ,1.46658 ,0.72308 ,7.09486 
283 ,57.4534 ,1.46852 ,0.70939 ,6.96055 
284 ,57.6454 ,1.47046 ,0.68544 ,6.72550 
285 ,57.8533 ,1.47255 ,0.67517 ,6.62477 
286 ,58.0615 ,1.47455 ,0.67517 ,6.62477 
287 ,58.2696 ,1.47662 ,0.65121 ,6.38972 
288 ,58.4776 ,1.47878 ,0.65121 ,6.38972 
289 ,58.6857 ,1.48079 ,0.63068 ,6.18825 
290 ,58.9095 ,1.48299 ,0.60330 ,5.91962 
291 ,59.1179 ,1.48503 ,0.61357 ,6.02036 
292 ,59.3258 ,1.48717 ,0.58619 ,5.75173 
293 ,59.5338 ,1.48929 ,0.56908 ,5.58384 
294 ,59.7739 ,1.49162 ,0.57593 ,5.65100 
295 ,59.9982 ,1.49383 ,0.56224 ,5.51668 
296 ,60.2063 ,1.49599 ,0.54171 ,5.31522 
297 ,60.3983 ,1.49796 ,0.53828 ,5.28164 
298 ,60.6065 ,1.50003 ,0.51433 ,5.04659 
299 ,60.8303 ,1.50222 ,0.50406 ,4.94585 
300 ,61.0228 ,1.50417 ,0.49722 ,4.87870 
301 ,61.2144 ,1.50608 ,0.48011 ,4.71081 
302 ,61.4225 ,1.50805 ,0.45615 ,4.47576 
303 ,61.6309 ,1.51020 ,0.44246 ,4.34144 
304 ,61.8229 ,1.51214 ,0.45273 ,4.44218 
305 ,62.0309 ,1.51421 ,0.42535 ,4.17355 
306 ,62.2227 ,1.51627 ,0.43562 ,4.27429 
307 ,62.4153 ,1.51812 ,0.41851 ,4.10640 
308 ,62.6070 ,1.52013 ,0.41166 ,4.03924 
309 ,62.7994 ,1.52192 ,0.39797 ,3.90493 
310 ,62.9915 ,1.52386 ,0.36718 ,3.60272 
311 ,63.1991 ,1.52600 ,0.38771 ,3.80419 
312 ,63.3916 ,1.52782 ,0.35349 ,3.46841 
313 ,63.5995 ,1.52987 ,0.36033 ,3.53557 
314 ,63.8080 ,1.53201 ,0.32269 ,3.16620 
315 ,64.0317 ,1.53422 ,0.31242 ,3.06547 
316 ,64.2401 ,1.53634 ,0.31926 ,3.13263 
317 ,64.4321 ,1.53826 ,0.28847 ,2.83042 
318 ,64.6243 ,1.54018 ,0.29189 ,2.86400 
319 ,64.8322 ,1.54225 ,0.26451 ,2.59537 
320 ,65.0562 ,1.54438 ,0.27820 ,2.72969 
321 ,65.2484 ,1.54642 ,0.24740 ,2.42748 
322 ,65.4405 ,1.54829 ,0.27478 ,2.69611 
323 ,65.6486 ,1.55037 ,0.22687 ,2.22601 
324 ,65.8402 ,1.55233 ,0.22687 ,2.22601 
325 ,66.0328 ,1.55428 ,0.20633 ,2.02454 
326 ,66.2246 ,1.55623 ,0.20976 ,2.05812 
327 ,66.4170 ,1.55811 ,0.19264 ,1.89023 
328 ,66.6088 ,1.56007 ,0.17553 ,1.72234 
329 ,66.8171 ,1.56214 ,0.17211 ,1.68876 
330 ,67.0252 ,1.56416 ,0.15158 ,1.48729 
331 ,67.2332 ,1.56625 ,0.14473 ,1.42013 
332 ,67.4253 ,1.56820 ,0.13789 ,1.35298 
333 ,67.6334 ,1.57021 ,0.12762 ,1.25224 
334 ,67.8255 ,1.57222 ,0.11736 ,1.15151 
335 ,68.0172 ,1.57412 ,0.11051 ,1.08435 
336 ,68.2255 ,1.57620 ,0.08656 ,0.84930 
337 ,68.4338 ,1.57827 ,0.08998 ,0.88288 
338 ,68.6419 ,1.58028 ,0.08656 ,0.84930 
339 ,68.8500 ,1.58240 ,0.04891 ,0.47994 
340 ,69.0419 ,1.58436 ,0.06260 ,0.61425 
341 ,69.2181 ,1.58620 ,0.04549 ,0.44636 
342 ,69.4103 ,1.58804 ,0.02154 ,0.21131 
343 ,69.6344 ,1.59024 ,0.02496 ,0.24489 
344 ,69.8264 ,1.59216 ,0.01811 ,0.17773 
345 ,70.0183 ,1.59411 ,0.01127 ,0.11058 
346 ,70.2261 ,1.59611 ,-0.00926 ,-0.09089 
347 ,70.4346 ,1.59822 ,-0.00926 ,-0.09089 
348 ,70.6268 ,1.60018 ,-0.02295 ,-0.22520 
349 ,70.8348 ,1.60228 ,-0.04348 ,-0.42667 
350 ,71.0429 ,1.60436 ,-0.04348 ,-0.42667 
351 ,71.2507 ,1.60634 ,-0.06402 ,-0.62814 
352 ,71.4592 ,1.60850 ,-0.05033 ,-0.49383 
353 ,71.6672 ,1.61057 ,-0.09482 ,-0.93035 
354 ,71.8913 ,1.61268 ,-0.07086 ,-0.69530 
355 ,72.0994 ,1.61486 ,-0.10508 ,-1.03108 
356 ,72.3075 ,1.61700 ,-0.12219 ,-1.19898 
357 ,72.5155 ,1.61904 ,-0.12904 ,-1.26613 
358 ,72.6913 ,1.62095 ,-0.14957 ,-1.46760 
359 ,72.8837 ,1.62270 ,-0.14615 ,-1.43402 
360 ,73.0759 ,1.62464 ,-0.13931 ,-1.36687 
361 ,73.2678 ,1.62659 ,-0.15984 ,-1.56834 
362 ,73.4600 ,1.62853 ,-0.14957 ,-1.46760 
363 ,73.6839 ,1.63070 ,-0.18722 ,-1.83696 
364 ,73.8761 ,1.63268 ,-0.18379 ,-1.80338 
365 ,74.0679 ,1.63459 ,-0.20775 ,-2.03843 
366 ,74.2603 ,1.63650 ,-0.20090 ,-1.97128 
367 ,74.4683 ,1.63858 ,-0.22486 ,-2.20632 
368 ,74.6599 ,1.64049 ,-0.23170 ,-2.27348 
369 ,74.8525 ,1.64246 ,-0.23855 ,-2.34064 
370 ,75.0446 ,1.64434 ,-0.24881 ,-2.44137 
371 ,75.2524 ,1.64643 ,-0.25224 ,-2.47495 
372 ,75.4448 ,1.64832 ,-0.26593 ,-2.60926 
373 ,75.6530 ,1.65048 ,-0.26935 ,-2.64284 
374 ,75.8609 ,1.65250 ,-0.28304 ,-2.77716 
375 ,76.0690 ,1.65459 ,-0.30699 ,-3.01220 
376 ,76.2767 ,1.65666 ,-0.29673 ,-2.91147 
377 ,76.4692 ,1.65857 ,-0.32068 ,-3.14652 
378 ,76.6931 ,1.66074 ,-0.31041 ,-3.04578 
379 ,76.8689 ,1.66269 ,-0.34121 ,-3.34799 
380 ,77.0614 ,1.66454 ,-0.32752 ,-3.21367 
381 ,77.2692 ,1.66658 ,-0.35148 ,-3.44872 
382 ,77.4776 ,1.66867 ,-0.35148 ,-3.44872 
383 ,77.7177 ,1.67085 ,-0.37544 ,-3.68377 
384 ,77.9253 ,1.67320 ,-0.37201 ,-3.65019 
385 ,78.1338 ,1.67520 ,-0.38228 ,-3.75093 
386 ,78.3419 ,1.67731 ,-0.39255 ,-3.85166 
387 ,78.5503 ,1.67932 ,-0.41650 ,-4.08671 
388 ,78.7579 ,1.68142 ,-0.41650 ,-4.08671 
389 ,78.9502 ,1.68338 ,-0.43703 ,-4.28818 
390 ,79.1582 ,1.68542 ,-0.44046 ,-4.32176 
391 ,79.3502 ,1.68751 ,-0.46099 ,-4.52323 
392 ,79.5424 ,1.68932 ,-0.46099 ,-4.52323 
393 ,79.7503 ,1.69136 ,-0.47468 ,-4.65754 
394 ,79.9582 ,1.69340 ,-0.47468 ,-4.65754 
395 ,80.1662 ,1.69549 ,-0.49521 ,-4.85901 
396 ,80.3586 ,1.69753 ,-0.49521 ,-4.85901 
397 ,80.5505 ,1.69941 ,-0.51574 ,-5.06048 
398 ,80.7426 ,1.70132 ,-0.51574 ,-5.06048 
399 ,80.9509 ,1.70339 ,-0.53285 ,-5.22837 
400 ,81.1589 ,1.70549 ,-0.52601 ,-5.16121 
401 ,81.3671 ,1.70760 ,-0.55681 ,-5.46342 
402 ,81.5588 ,1.70947 ,-0.54997 ,-5.39626 
403 ,81.7512 ,1.71139 ,-0.56708 ,-5.56415 
404 ,81.9591 ,1.71346 ,-0.57050 ,-5.59773 
405 ,82.1671 ,1.71547 ,-0.58419 ,-5.73205 
406 ,82.3591 ,1.71742 ,-0.58419 ,-5.73205 
407 ,82.5510 ,1.71949 ,-0.62183 ,-6.10141 
408 ,82.7432 ,1.72133 ,-0.60814 ,-5.96709 
409 ,82.9355 ,1.72327 ,-0.60814 ,-5.96709 
410 ,83.1278 ,1.72513 ,-0.63894 ,-6.26930 
411 ,83.3198 ,1.72704 ,-0.63210 ,-6.20214 
412 ,83.4955 ,1.72894 ,-0.64579 ,-6.33646 
413 ,83.6881 ,1.73077 ,-0.66290 ,-6.50435 
414 ,83.8801 ,1.73268 ,-0.66290 ,-6.50435 
415 ,84.0882 ,1.73475 ,-0.67659 ,-6.63866 
416 ,84.2961 ,1.73682 ,-0.66632 ,-6.53793 
417 ,84.5045 ,1.73889 ,-0.69712 ,-6.84013 
418 ,84.7444 ,1.74120 ,-0.69370 ,-6.80655 
419 ,84.9681 ,1.74353 ,-0.72107 ,-7.07518 
420 ,85.1601 ,1.74554 ,-0.69712 ,-6.84013 
421 ,85.3688 ,1.74754 ,-0.73134 ,-7.17591 
422 ,85.5927 ,1.74983 ,-0.73818 ,-7.24307 
423 ,85.7849 ,1.75169 ,-0.75872 ,-7.44454 
424 ,85.9770 ,1.75360 ,-0.74161 ,-7.27665 
425 ,86.2010 ,1.75582 ,-0.78267 ,-7.67959 
426 ,86.3931 ,1.75784 ,-0.78267 ,-7.67959 
427 ,86.6008 ,1.75988 ,-0.77583 ,-7.61243 
428 ,86.7769 ,1.76173 ,-0.78610 ,-7.71317 
429 ,86.9854 ,1.76369 ,-0.81005 ,-7.94821 
430 ,87.1935 ,1.76584 ,-0.80321 ,-7.88106 
431 ,87.4015 ,1.76783 ,-0.81005 ,-7.94821 
432 ,87.5937 ,1.76978 ,-0.83401 ,-8.18326 
433 ,87.8017 ,1.77188 ,-0.84085 ,-8.25042 
434 ,88.0098 ,1.77386 ,-0.83401 ,-8.18326 
435 ,88.2179 ,1.77600 ,-0.84769 ,-8.31758 
436 ,88.4100 ,1.77796 ,-0.86823 ,-8.51904 
437 ,88.6341 ,1.78016 ,-0.85796 ,-8.41831 
438 ,88.8422 ,1.78226 ,-0.89903 ,-8.82125 
439 ,89.0502 ,1.78428 ,-0.89218 ,-8.75409 
440 ,89.2423 ,1.78632 ,-0.89560 ,-8.78767 
441 ,89.4664 ,1.78835 ,-0.89903 ,-8.82125 
442 ,89.6744 ,1.79052 ,-0.90245 ,-8.85483 
443 ,89.8664 ,1.79250 ,-0.94009 ,-9.22419 
444 ,90.0742 ,1.79462 ,-0.92640 ,-9.08988 
445 ,90.2828 ,1.79660 ,-0.96063 ,-9.42566 
446 ,90.4908 ,1.79877 ,-0.95036 ,-9.32492 
447 ,90.6989 ,1.80078 ,-0.96405 ,-9.45924 
448 ,90.8908 ,1.80272 ,-0.96405 ,-9.45924 
449 ,91.1150 ,1.80486 ,-0.98800 ,-9.69429 
450 ,91.3229 ,1.80706 ,-0.99143 ,-9.72786 
451 ,91.5313 ,1.80912 ,-0.99143 ,-9.72786 
452 ,91.7233 ,1.81106 ,-1.00854 ,-9.89576 
453 ,91.9471 ,1.81339 ,-1.02907 ,-10.09723 
454 ,92.1552 ,1.81531 ,-1.02907 ,-10.09723 
455 ,92.3795 ,1.81759 ,-1.02907 ,-10.09723 
456 ,92.5874 ,1.81969 ,-1.04618 ,-10.26512 
457 ,92.7797 ,1.82160 ,-1.05645 ,-10.36585 
458 ,92.9558 ,1.82350 ,-1.05645 ,-10.36585 
459 ,93.1801 ,1.82559 ,-1.05645 ,-10.36585 
460 ,93.3877 ,1.82772 ,-1.07698 ,-10.56732 
461 ,93.5802 ,1.82973 ,-1.11120 ,-10.90310 
462 ,93.7720 ,1.83154 ,-1.06329 ,-10.43301 
