Data stamp = , 03-05-2022 10:17:31 726

Calibration Values: 
Slope = , 26.54 , g/V 
Offset Voltage at no contact = , -0.501760 , V 

No , Time , Stage Position ,   Mass , Force 
   ,  (s) ,      (mm)      ,   (g)  , (mN)  

1 ,0.0000 ,0.89946 ,5.27456 ,51.75401 
2 ,0.2333 ,0.89956 ,5.27456 ,51.75401 
3 ,0.6658 ,0.90093 ,5.28141 ,51.82116 
4 ,0.9056 ,0.90320 ,5.27798 ,51.78758 
5 ,1.1301 ,0.90542 ,5.27114 ,51.72043 
6 ,1.3217 ,0.90739 ,5.29852 ,51.98905 
7 ,1.5298 ,0.90953 ,5.26772 ,51.68685 
8 ,1.7221 ,0.91148 ,5.25403 ,51.55254 
9 ,1.9304 ,0.91351 ,5.22323 ,51.25033 
10 ,2.1386 ,0.91555 ,5.21981 ,51.21675 
11 ,2.3465 ,0.91765 ,5.18901 ,50.91455 
12 ,2.5542 ,0.91970 ,5.15136 ,50.54519 
13 ,2.7466 ,0.92167 ,5.15821 ,50.61234 
14 ,2.9389 ,0.92358 ,5.12399 ,50.27656 
15 ,3.1467 ,0.92566 ,5.10688 ,50.10867 
16 ,3.3549 ,0.92776 ,5.06581 ,49.70573 
17 ,3.5467 ,0.92961 ,5.07265 ,49.77289 
18 ,3.7547 ,0.93168 ,5.01106 ,49.16848 
19 ,3.9632 ,0.93377 ,5.02132 ,49.26921 
20 ,4.1554 ,0.93577 ,4.98710 ,48.93343 
21 ,4.3634 ,0.93785 ,4.98026 ,48.86627 
22 ,4.5711 ,0.93988 ,4.94946 ,48.56407 
23 ,4.7636 ,0.94179 ,4.92892 ,48.36260 
24 ,4.9555 ,0.94374 ,4.88444 ,47.92608 
25 ,5.1477 ,0.94571 ,4.88101 ,47.89250 
26 ,5.3398 ,0.94757 ,4.87075 ,47.79177 
27 ,5.5315 ,0.94954 ,4.87075 ,47.79177 
28 ,5.7238 ,0.95146 ,4.83310 ,47.42240 
29 ,5.9321 ,0.95350 ,4.79546 ,47.05304 
30 ,6.1403 ,0.95557 ,4.77493 ,46.85157 
31 ,6.3323 ,0.95751 ,4.76124 ,46.71726 
32 ,6.5403 ,0.95957 ,4.75097 ,46.61653 
33 ,6.7322 ,0.96152 ,4.72017 ,46.31432 
34 ,6.9563 ,0.96374 ,4.69622 ,46.07927 
35 ,7.1484 ,0.96566 ,4.69279 ,46.04569 
36 ,7.3723 ,0.96788 ,4.65515 ,45.67633 
37 ,7.5645 ,0.96981 ,4.66199 ,45.74349 
38 ,7.7729 ,0.97193 ,4.62435 ,45.37413 
39 ,7.9804 ,0.97395 ,4.59697 ,45.10550 
40 ,8.1730 ,0.97592 ,4.58671 ,45.00477 
41 ,8.3966 ,0.97815 ,4.55933 ,44.73614 
42 ,8.5892 ,0.98005 ,4.54564 ,44.60183 
43 ,8.7813 ,0.98194 ,4.52853 ,44.43394 
44 ,9.0049 ,0.98417 ,4.50115 ,44.16531 
45 ,9.2295 ,0.98631 ,4.47035 ,43.86310 
46 ,9.4376 ,0.98857 ,4.44298 ,43.59448 
47 ,9.6297 ,0.99050 ,4.44640 ,43.62806 
48 ,9.8216 ,0.99249 ,4.40875 ,43.25870 
49 ,10.0299 ,0.99446 ,4.39507 ,43.12438 
50 ,10.2215 ,0.99640 ,4.37795 ,42.95649 
51 ,10.4138 ,0.99832 ,4.36769 ,42.85576 
52 ,10.6216 ,1.00039 ,4.33347 ,42.51997 
53 ,10.8301 ,1.00245 ,4.31636 ,42.35208 
54 ,11.0223 ,1.00439 ,4.30267 ,42.21777 
55 ,11.2305 ,1.00650 ,4.29240 ,42.11703 
56 ,11.4385 ,1.00854 ,4.25476 ,41.74767 
57 ,11.6464 ,1.01058 ,4.25476 ,41.74767 
58 ,11.8385 ,1.01253 ,4.21369 ,41.34473 
59 ,12.0307 ,1.01447 ,4.21369 ,41.34473 
60 ,12.2389 ,1.01657 ,4.16920 ,40.90821 
61 ,12.4304 ,1.01850 ,4.18974 ,41.10968 
62 ,12.6228 ,1.02036 ,4.15209 ,40.74032 
63 ,12.8145 ,1.02227 ,4.12471 ,40.47170 
64 ,13.0070 ,1.02421 ,4.11787 ,40.40454 
65 ,13.2151 ,1.02632 ,4.10076 ,40.23665 
66 ,13.4071 ,1.02825 ,4.07680 ,40.00160 
67 ,13.6151 ,1.03024 ,4.04258 ,39.66582 
68 ,13.8073 ,1.03224 ,4.03574 ,39.59866 
69 ,14.0154 ,1.03430 ,4.02547 ,39.49793 
70 ,14.2075 ,1.03621 ,4.00836 ,39.33003 
71 ,14.3995 ,1.03814 ,3.97414 ,38.99425 
72 ,14.5913 ,1.04004 ,3.97756 ,39.02783 
73 ,14.7998 ,1.04212 ,3.93650 ,38.62489 
74 ,15.0078 ,1.04421 ,3.94334 ,38.69205 
75 ,15.1999 ,1.04615 ,3.90570 ,38.32268 
76 ,15.4081 ,1.04820 ,3.89885 ,38.25553 
77 ,15.6161 ,1.05026 ,3.85436 ,37.81901 
78 ,15.8242 ,1.05243 ,3.86121 ,37.88617 
79 ,16.0160 ,1.05438 ,3.83383 ,37.61754 
80 ,16.2083 ,1.05626 ,3.82014 ,37.48323 
81 ,16.4161 ,1.05833 ,3.80303 ,37.31534 
82 ,16.6081 ,1.06021 ,3.79961 ,37.28176 
83 ,16.8160 ,1.06230 ,3.75854 ,36.87882 
84 ,17.0086 ,1.06423 ,3.75170 ,36.81166 
85 ,17.2166 ,1.06625 ,3.71748 ,36.47588 
86 ,17.4088 ,1.06827 ,3.70721 ,36.37514 
87 ,17.6008 ,1.07021 ,3.67299 ,36.03936 
88 ,17.7930 ,1.07208 ,3.68668 ,36.17367 
89 ,18.0170 ,1.07428 ,3.64561 ,35.77073 
90 ,18.2252 ,1.07638 ,3.62166 ,35.53569 
91 ,18.5133 ,1.07887 ,3.63534 ,35.67000 
92 ,18.7211 ,1.08130 ,3.58743 ,35.19990 
93 ,18.9452 ,1.08346 ,3.59086 ,35.23348 
94 ,19.1696 ,1.08588 ,3.56006 ,34.93128 
95 ,19.3937 ,1.08804 ,3.54295 ,34.76338 
96 ,19.6014 ,1.09014 ,3.49846 ,34.32687 
97 ,19.8099 ,1.09223 ,3.51215 ,34.46118 
98 ,20.0180 ,1.09430 ,3.49846 ,34.32687 
99 ,20.2257 ,1.09637 ,3.46081 ,33.95751 
100 ,20.4342 ,1.09849 ,3.46424 ,33.99108 
101 ,20.6418 ,1.10054 ,3.42317 ,33.58814 
102 ,20.8503 ,1.10251 ,3.41975 ,33.55457 
103 ,21.0584 ,1.10471 ,3.40264 ,33.38667 
104 ,21.2663 ,1.10681 ,3.37184 ,33.08447 
105 ,21.4586 ,1.10870 ,3.35473 ,32.91658 
106 ,21.6665 ,1.11080 ,3.33419 ,32.71511 
107 ,21.8745 ,1.11277 ,3.32735 ,32.64795 
108 ,22.0664 ,1.11481 ,3.29655 ,32.34575 
109 ,22.2587 ,1.11671 ,3.29997 ,32.37933 
110 ,22.4668 ,1.11886 ,3.27602 ,32.14428 
111 ,22.6748 ,1.12089 ,3.27602 ,32.14428 
112 ,22.8669 ,1.12278 ,3.23153 ,31.70776 
113 ,23.0748 ,1.12488 ,3.24180 ,31.80849 
114 ,23.2671 ,1.12675 ,3.19388 ,31.33840 
115 ,23.4427 ,1.12866 ,3.19046 ,31.30482 
116 ,23.6349 ,1.13045 ,3.19046 ,31.30482 
117 ,23.8275 ,1.13239 ,3.15966 ,31.00262 
118 ,24.0194 ,1.13433 ,3.14255 ,30.83472 
119 ,24.2116 ,1.13625 ,3.13229 ,30.73399 
120 ,24.4035 ,1.13815 ,3.09806 ,30.39821 
121 ,24.5956 ,1.14004 ,3.09806 ,30.39821 
122 ,24.8038 ,1.14208 ,3.07753 ,30.19674 
123 ,25.0119 ,1.14409 ,3.08095 ,30.23031 
124 ,25.2200 ,1.14629 ,3.03989 ,29.82737 
125 ,25.4121 ,1.14825 ,3.03989 ,29.82737 
126 ,25.6197 ,1.15032 ,3.01935 ,29.62590 
127 ,25.8283 ,1.15237 ,2.99198 ,29.35728 
128 ,26.0364 ,1.15446 ,2.99882 ,29.42444 
129 ,26.2442 ,1.15657 ,2.96118 ,29.05507 
130 ,26.4524 ,1.15864 ,2.95433 ,28.98792 
131 ,26.6606 ,1.16070 ,2.93722 ,28.82003 
132 ,26.8687 ,1.16282 ,2.90985 ,28.55140 
133 ,27.0767 ,1.16486 ,2.89958 ,28.45066 
134 ,27.2688 ,1.16677 ,2.85851 ,28.04772 
135 ,27.4767 ,1.16886 ,2.85851 ,28.04772 
136 ,27.6689 ,1.17074 ,2.82087 ,27.67836 
137 ,27.8768 ,1.17284 ,2.82087 ,27.67836 
138 ,28.0849 ,1.17491 ,2.79349 ,27.40974 
139 ,28.3086 ,1.17717 ,2.81060 ,27.57763 
140 ,28.5009 ,1.17909 ,2.77980 ,27.27542 
141 ,28.6930 ,1.18101 ,2.77296 ,27.20827 
142 ,28.9010 ,1.18310 ,2.74558 ,26.93964 
143 ,29.1413 ,1.18536 ,2.70452 ,26.53670 
144 ,29.3496 ,1.18759 ,2.69767 ,26.46954 
145 ,29.5417 ,1.18953 ,2.69083 ,26.40239 
146 ,29.7340 ,1.19157 ,2.66003 ,26.10018 
147 ,29.9256 ,1.19339 ,2.66003 ,26.10018 
148 ,30.1019 ,1.19521 ,2.65660 ,26.06661 
149 ,30.2937 ,1.19705 ,2.65318 ,26.03303 
150 ,30.4861 ,1.19894 ,2.60185 ,25.52935 
151 ,30.6938 ,1.20103 ,2.60185 ,25.52935 
152 ,30.8861 ,1.20294 ,2.59843 ,25.49577 
153 ,31.0778 ,1.20486 ,2.57105 ,25.22715 
154 ,31.2863 ,1.20689 ,2.53683 ,24.89136 
155 ,31.4945 ,1.20904 ,2.54367 ,24.95852 
156 ,31.6864 ,1.21098 ,2.52314 ,24.75705 
157 ,31.8946 ,1.21302 ,2.49918 ,24.52200 
158 ,32.0866 ,1.21497 ,2.48207 ,24.35411 
159 ,32.2623 ,1.21681 ,2.48550 ,24.38769 
160 ,32.4865 ,1.21885 ,2.46839 ,24.21980 
161 ,32.6945 ,1.22104 ,2.44443 ,23.98475 
162 ,32.9029 ,1.22309 ,2.42390 ,23.78328 
163 ,33.1270 ,1.22538 ,2.40336 ,23.58181 
164 ,33.3188 ,1.22728 ,2.40679 ,23.61539 
165 ,33.5273 ,1.22936 ,2.36572 ,23.21245 
166 ,33.7512 ,1.23156 ,2.35888 ,23.14529 
167 ,33.9592 ,1.23370 ,2.35545 ,23.11171 
168 ,34.1513 ,1.23556 ,2.32808 ,22.84309 
169 ,34.3436 ,1.23751 ,2.30412 ,22.60804 
170 ,34.5513 ,1.23953 ,2.30412 ,22.60804 
171 ,34.7437 ,1.24163 ,2.29043 ,22.47373 
172 ,34.9355 ,1.24343 ,2.27674 ,22.33941 
173 ,35.1278 ,1.24536 ,2.24252 ,22.00363 
174 ,35.3361 ,1.24739 ,2.25621 ,22.13794 
175 ,35.5437 ,1.24948 ,2.21857 ,21.76858 
176 ,35.7362 ,1.25141 ,2.21857 ,21.76858 
177 ,35.9442 ,1.25345 ,2.18092 ,21.39922 
178 ,36.1359 ,1.25541 ,2.18435 ,21.43280 
179 ,36.3284 ,1.25733 ,2.14670 ,21.06344 
180 ,36.5365 ,1.25942 ,2.15697 ,21.16417 
181 ,36.7287 ,1.26143 ,2.12959 ,20.89555 
182 ,36.9367 ,1.26344 ,2.11590 ,20.76123 
183 ,37.1287 ,1.26539 ,2.08510 ,20.45903 
184 ,37.3047 ,1.26720 ,2.09879 ,20.59334 
185 ,37.4969 ,1.26899 ,2.08168 ,20.42545 
186 ,37.7046 ,1.27109 ,2.05430 ,20.15682 
187 ,37.9132 ,1.27316 ,2.05430 ,20.15682 
188 ,38.1050 ,1.27513 ,2.03035 ,19.92178 
189 ,38.3133 ,1.27721 ,1.99955 ,19.61957 
190 ,38.5214 ,1.27921 ,1.99955 ,19.61957 
191 ,38.7294 ,1.28134 ,1.97902 ,19.41810 
192 ,38.9215 ,1.28338 ,1.97902 ,19.41810 
193 ,39.1297 ,1.28537 ,1.93453 ,18.98158 
194 ,39.3379 ,1.28744 ,1.95164 ,19.14948 
195 ,39.5455 ,1.28951 ,1.91057 ,18.74654 
196 ,39.7538 ,1.29160 ,1.90031 ,18.64580 
197 ,39.9779 ,1.29380 ,1.89688 ,18.61222 
198 ,40.1859 ,1.29593 ,1.86608 ,18.31002 
199 ,40.4102 ,1.29806 ,1.85240 ,18.17570 
200 ,40.6181 ,1.30023 ,1.82502 ,17.90708 
201 ,40.8103 ,1.30220 ,1.81133 ,17.77276 
202 ,41.0179 ,1.30425 ,1.81133 ,17.77276 
203 ,41.2102 ,1.30620 ,1.78737 ,17.53772 
204 ,41.4346 ,1.30833 ,1.78737 ,17.53772 
205 ,41.6586 ,1.31062 ,1.77026 ,17.36983 
206 ,41.8504 ,1.31253 ,1.73946 ,17.06762 
207 ,42.0584 ,1.31463 ,1.73946 ,17.06762 
208 ,42.2667 ,1.31665 ,1.70524 ,16.73184 
209 ,42.4908 ,1.31894 ,1.69498 ,16.63110 
210 ,42.6830 ,1.32088 ,1.69155 ,16.59752 
211 ,42.8911 ,1.32298 ,1.66075 ,16.29532 
212 ,43.0832 ,1.32489 ,1.66075 ,16.29532 
213 ,43.2750 ,1.32684 ,1.63338 ,16.02669 
214 ,43.4512 ,1.32866 ,1.63338 ,16.02669 
215 ,43.6433 ,1.33049 ,1.63680 ,16.06027 
216 ,43.8515 ,1.33244 ,1.59573 ,15.65733 
217 ,44.0596 ,1.33463 ,1.59916 ,15.69091 
218 ,44.2516 ,1.33658 ,1.56836 ,15.38871 
219 ,44.4597 ,1.33863 ,1.56836 ,15.38871 
220 ,44.6997 ,1.34088 ,1.56151 ,15.32155 
221 ,44.9077 ,1.34309 ,1.52045 ,14.91861 
222 ,45.1320 ,1.34530 ,1.49649 ,14.68356 
223 ,45.3399 ,1.34745 ,1.50333 ,14.75072 
224 ,45.5480 ,1.34955 ,1.48965 ,14.61640 
225 ,45.7563 ,1.35161 ,1.45885 ,14.31420 
226 ,45.9483 ,1.35352 ,1.46227 ,14.34778 
227 ,46.1560 ,1.35553 ,1.43489 ,14.07915 
228 ,46.3484 ,1.35748 ,1.43831 ,14.11273 
229 ,46.5401 ,1.35952 ,1.41436 ,13.87768 
230 ,46.7326 ,1.36136 ,1.39383 ,13.67621 
231 ,46.9406 ,1.36343 ,1.39383 ,13.67621 
232 ,47.1327 ,1.36538 ,1.36645 ,13.40759 
233 ,47.3246 ,1.36733 ,1.36987 ,13.44116 
234 ,47.5169 ,1.36918 ,1.33565 ,13.10538 
235 ,47.7249 ,1.37121 ,1.33907 ,13.13896 
236 ,47.9169 ,1.37316 ,1.31512 ,12.90391 
237 ,48.1092 ,1.37509 ,1.32196 ,12.97107 
238 ,48.3012 ,1.37704 ,1.29458 ,12.70244 
239 ,48.4932 ,1.37895 ,1.28089 ,12.56813 
240 ,48.7009 ,1.38111 ,1.27405 ,12.50097 
241 ,48.9249 ,1.38315 ,1.26036 ,12.36666 
242 ,49.1175 ,1.38522 ,1.22956 ,12.06445 
243 ,49.3254 ,1.38723 ,1.23298 ,12.09803 
244 ,49.5336 ,1.38936 ,1.21245 ,11.89656 
245 ,49.7256 ,1.39127 ,1.20903 ,11.86298 
246 ,49.9337 ,1.39341 ,1.18850 ,11.66151 
247 ,50.1418 ,1.39543 ,1.17823 ,11.56078 
248 ,50.3339 ,1.39734 ,1.14743 ,11.25857 
249 ,50.5579 ,1.39952 ,1.14401 ,11.22500 
250 ,50.7341 ,1.40148 ,1.13716 ,11.15784 
251 ,50.9419 ,1.40335 ,1.13374 ,11.12426 
252 ,51.1342 ,1.40538 ,1.11321 ,10.92279 
253 ,51.3583 ,1.40758 ,1.09610 ,10.75490 
254 ,51.5502 ,1.40951 ,1.08925 ,10.68774 
255 ,51.7426 ,1.41154 ,1.05845 ,10.38554 
256 ,51.9507 ,1.41352 ,1.06530 ,10.45270 
257 ,52.1586 ,1.41556 ,1.05161 ,10.31838 
258 ,52.3665 ,1.41766 ,1.04134 ,10.21765 
259 ,52.5906 ,1.41982 ,1.00712 ,9.88186 
260 ,52.8308 ,1.42215 ,0.99001 ,9.71397 
261 ,53.0390 ,1.42445 ,0.98317 ,9.64682 
262 ,53.2311 ,1.42636 ,0.97974 ,9.61324 
263 ,53.4231 ,1.42823 ,0.95921 ,9.41177 
264 ,53.6312 ,1.43036 ,0.93868 ,9.21030 
265 ,53.8231 ,1.43222 ,0.94210 ,9.24388 
266 ,54.0315 ,1.43435 ,0.92841 ,9.10956 
267 ,54.2231 ,1.43623 ,0.90446 ,8.87451 
268 ,54.4315 ,1.43832 ,0.90103 ,8.84094 
269 ,54.6398 ,1.44039 ,0.88050 ,8.63947 
270 ,54.8477 ,1.44247 ,0.87366 ,8.57231 
271 ,55.0399 ,1.44438 ,0.84970 ,8.33726 
272 ,55.2480 ,1.44648 ,0.86339 ,8.47158 
273 ,55.4559 ,1.44845 ,0.82917 ,8.13579 
274 ,55.6482 ,1.45044 ,0.83601 ,8.20295 
275 ,55.8562 ,1.45250 ,0.80521 ,7.90074 
276 ,56.0483 ,1.45448 ,0.81548 ,8.00148 
277 ,56.2564 ,1.45656 ,0.77441 ,7.59854 
278 ,56.4640 ,1.45855 ,0.77784 ,7.63212 
279 ,56.6883 ,1.46073 ,0.76757 ,7.53138 
280 ,56.8966 ,1.46293 ,0.73677 ,7.22918 
281 ,57.1047 ,1.46497 ,0.72992 ,7.16202 
282 ,57.3124 ,1.46709 ,0.72308 ,7.09486 
283 ,57.5049 ,1.46903 ,0.72308 ,7.09486 
284 ,57.7130 ,1.47113 ,0.69228 ,6.79266 
285 ,57.9371 ,1.47328 ,0.67859 ,6.65835 
286 ,58.1450 ,1.47544 ,0.66833 ,6.55761 
287 ,58.3371 ,1.47735 ,0.65121 ,6.38972 
288 ,58.5292 ,1.47932 ,0.65464 ,6.42330 
289 ,58.7210 ,1.48118 ,0.63410 ,6.22183 
290 ,58.9134 ,1.48311 ,0.63410 ,6.22183 
291 ,59.1054 ,1.48503 ,0.60673 ,5.95320 
292 ,59.3136 ,1.48714 ,0.60673 ,5.95320 
293 ,59.5055 ,1.48900 ,0.58619 ,5.75173 
294 ,59.6977 ,1.49096 ,0.58277 ,5.71815 
295 ,59.9058 ,1.49305 ,0.56908 ,5.58384 
296 ,60.1299 ,1.49523 ,0.56908 ,5.58384 
297 ,60.3220 ,1.49720 ,0.53486 ,5.24806 
298 ,60.5300 ,1.49933 ,0.55197 ,5.41595 
299 ,60.7381 ,1.50136 ,0.51775 ,5.08017 
300 ,60.9298 ,1.50326 ,0.51433 ,5.04659 
301 ,61.1223 ,1.50516 ,0.48695 ,4.77796 
302 ,61.3144 ,1.50726 ,0.49380 ,4.84512 
303 ,61.5064 ,1.50901 ,0.47326 ,4.64365 
304 ,61.7145 ,1.51111 ,0.46300 ,4.54291 
305 ,61.9065 ,1.51305 ,0.44588 ,4.37502 
306 ,62.1309 ,1.51530 ,0.44931 ,4.40860 
307 ,62.3390 ,1.51737 ,0.42535 ,4.17355 
308 ,62.5310 ,1.51930 ,0.41851 ,4.10640 
309 ,62.7391 ,1.52135 ,0.40482 ,3.97208 
310 ,62.9471 ,1.52342 ,0.38429 ,3.77061 
311 ,63.1550 ,1.52545 ,0.37060 ,3.63630 
312 ,63.3473 ,1.52743 ,0.37402 ,3.66988 
313 ,63.5393 ,1.52937 ,0.36033 ,3.53557 
314 ,63.7315 ,1.53126 ,0.35349 ,3.46841 
315 ,63.9396 ,1.53339 ,0.34322 ,3.36767 
316 ,64.1474 ,1.53540 ,0.31242 ,3.06547 
317 ,64.3555 ,1.53753 ,0.30900 ,3.03189 
318 ,64.5638 ,1.53960 ,0.28847 ,2.83042 
319 ,64.7716 ,1.54166 ,0.29531 ,2.89758 
320 ,64.9639 ,1.54358 ,0.26451 ,2.59537 
321 ,65.1558 ,1.54550 ,0.27820 ,2.72969 
322 ,65.3317 ,1.54741 ,0.25424 ,2.49464 
323 ,65.5243 ,1.54918 ,0.24055 ,2.36032 
324 ,65.7162 ,1.55112 ,0.24398 ,2.39390 
325 ,65.9245 ,1.55322 ,0.20633 ,2.02454 
326 ,66.1484 ,1.55533 ,0.22002 ,2.15885 
327 ,66.3406 ,1.55737 ,0.19607 ,1.92381 
328 ,66.5484 ,1.55938 ,0.19949 ,1.95738 
329 ,66.7566 ,1.56151 ,0.17896 ,1.75592 
330 ,66.9645 ,1.56353 ,0.16527 ,1.62160 
331 ,67.1729 ,1.56572 ,0.17553 ,1.72234 
332 ,67.3649 ,1.56760 ,0.14131 ,1.38655 
333 ,67.5888 ,1.56982 ,0.13447 ,1.31940 
334 ,67.7809 ,1.57174 ,0.12420 ,1.21866 
335 ,68.0050 ,1.57387 ,0.12420 ,1.21866 
336 ,68.1973 ,1.57594 ,0.11393 ,1.11793 
337 ,68.3894 ,1.57783 ,0.08314 ,0.81572 
338 ,68.5810 ,1.57984 ,0.08656 ,0.84930 
339 ,68.7892 ,1.58180 ,0.07971 ,0.78214 
340 ,68.9819 ,1.58377 ,0.05918 ,0.58067 
341 ,69.2053 ,1.58591 ,0.04891 ,0.47994 
342 ,69.3978 ,1.58789 ,0.04207 ,0.41278 
343 ,69.6217 ,1.59012 ,0.02496 ,0.24489 
344 ,69.8140 ,1.59210 ,0.03180 ,0.31205 
345 ,70.0058 ,1.59400 ,0.00443 ,0.04342 
346 ,70.1981 ,1.59592 ,0.00443 ,0.04342 
347 ,70.4219 ,1.59812 ,-0.02637 ,-0.25878 
348 ,70.6300 ,1.60027 ,-0.01269 ,-0.12447 
349 ,70.8218 ,1.60215 ,-0.04348 ,-0.42667 
350 ,71.0144 ,1.60411 ,-0.02980 ,-0.29236 
351 ,71.2226 ,1.60617 ,-0.04691 ,-0.46025 
352 ,71.4307 ,1.60825 ,-0.05717 ,-0.56099 
353 ,71.6547 ,1.61035 ,-0.06744 ,-0.66172 
354 ,71.8466 ,1.61252 ,-0.08455 ,-0.82961 
355 ,72.0547 ,1.61449 ,-0.08113 ,-0.79604 
356 ,72.2629 ,1.61660 ,-0.11535 ,-1.13182 
357 ,72.4710 ,1.61863 ,-0.12219 ,-1.19898 
358 ,72.6631 ,1.62058 ,-0.11877 ,-1.16540 
359 ,72.8551 ,1.62248 ,-0.13246 ,-1.29971 
360 ,73.0632 ,1.62452 ,-0.14957 ,-1.46760 
361 ,73.2551 ,1.62647 ,-0.14615 ,-1.43402 
362 ,73.4473 ,1.62840 ,-0.16326 ,-1.60191 
363 ,73.6553 ,1.63047 ,-0.17011 ,-1.66907 
364 ,73.8475 ,1.63240 ,-0.19406 ,-1.90412 
365 ,74.0872 ,1.63466 ,-0.19406 ,-1.90412 
366 ,74.3118 ,1.63689 ,-0.19406 ,-1.90412 
367 ,74.5357 ,1.63921 ,-0.20775 ,-2.03843 
368 ,74.7437 ,1.64132 ,-0.23513 ,-2.30706 
369 ,74.9519 ,1.64342 ,-0.23855 ,-2.34064 
370 ,75.1440 ,1.64535 ,-0.24539 ,-2.40779 
371 ,75.3520 ,1.64737 ,-0.24881 ,-2.44137 
372 ,75.5602 ,1.64950 ,-0.27277 ,-2.67642 
373 ,75.7681 ,1.65154 ,-0.27961 ,-2.74358 
374 ,75.9603 ,1.65352 ,-0.29330 ,-2.87789 
375 ,76.1525 ,1.65545 ,-0.30699 ,-3.01220 
376 ,76.3604 ,1.65752 ,-0.29330 ,-2.87789 
377 ,76.5526 ,1.65938 ,-0.31384 ,-3.07936 
378 ,76.7448 ,1.66134 ,-0.33779 ,-3.31441 
379 ,76.9527 ,1.66351 ,-0.33437 ,-3.28083 
380 ,77.1929 ,1.66572 ,-0.33095 ,-3.24725 
381 ,77.4006 ,1.66797 ,-0.34806 ,-3.41514 
382 ,77.6091 ,1.66991 ,-0.36859 ,-3.61661 
383 ,77.8010 ,1.67198 ,-0.36517 ,-3.58303 
384 ,77.9933 ,1.67381 ,-0.38228 ,-3.75093 
385 ,78.2013 ,1.67588 ,-0.39597 ,-3.88524 
386 ,78.3933 ,1.67794 ,-0.41308 ,-4.05313 
387 ,78.6015 ,1.67992 ,-0.40966 ,-4.01955 
388 ,78.8095 ,1.68198 ,-0.44046 ,-4.32176 
389 ,79.0016 ,1.68391 ,-0.43019 ,-4.22102 
390 ,79.1938 ,1.68581 ,-0.44046 ,-4.32176 
391 ,79.3858 ,1.68785 ,-0.44388 ,-4.35534 
392 ,79.5775 ,1.68967 ,-0.45072 ,-4.42249 
393 ,79.7857 ,1.69174 ,-0.48152 ,-4.72470 
394 ,79.9941 ,1.69383 ,-0.47810 ,-4.69112 
395 ,80.2021 ,1.69588 ,-0.49179 ,-4.82543 
396 ,80.4100 ,1.69797 ,-0.51574 ,-5.06048 
397 ,80.6186 ,1.70005 ,-0.49521 ,-4.85901 
398 ,80.8262 ,1.70206 ,-0.51917 ,-5.09406 
399 ,81.0184 ,1.70412 ,-0.51917 ,-5.09406 
400 ,81.2262 ,1.70614 ,-0.54312 ,-5.32911 
401 ,81.4345 ,1.70818 ,-0.53970 ,-5.29553 
402 ,81.6428 ,1.71031 ,-0.55339 ,-5.42984 
403 ,81.8503 ,1.71237 ,-0.57392 ,-5.63131 
404 ,82.0429 ,1.71430 ,-0.58077 ,-5.69847 
405 ,82.2508 ,1.71640 ,-0.60130 ,-5.89994 
406 ,82.4431 ,1.71836 ,-0.58077 ,-5.69847 
407 ,82.6511 ,1.72041 ,-0.61156 ,-6.00067 
408 ,82.8432 ,1.72231 ,-0.61499 ,-6.03425 
409 ,83.0511 ,1.72439 ,-0.62525 ,-6.13499 
410 ,83.2436 ,1.72636 ,-0.63210 ,-6.20214 
411 ,83.4351 ,1.72825 ,-0.63210 ,-6.20214 
412 ,83.6275 ,1.73012 ,-0.66974 ,-6.57150 
413 ,83.8196 ,1.73209 ,-0.65605 ,-6.43719 
414 ,84.0272 ,1.73414 ,-0.67659 ,-6.63866 
415 ,84.2517 ,1.73624 ,-0.66290 ,-6.50435 
416 ,84.4597 ,1.73847 ,-0.69027 ,-6.77297 
417 ,84.6519 ,1.74041 ,-0.70054 ,-6.87371 
418 ,84.8600 ,1.74245 ,-0.69027 ,-6.77297 
419 ,85.0520 ,1.74440 ,-0.72107 ,-7.07518 
420 ,85.2444 ,1.74633 ,-0.71765 ,-7.04160 
421 ,85.4520 ,1.74843 ,-0.74503 ,-7.31023 
422 ,85.7084 ,1.75087 ,-0.75530 ,-7.41096 
423 ,85.9164 ,1.75302 ,-0.74845 ,-7.34380 
424 ,86.1244 ,1.75510 ,-0.76556 ,-7.51170 
425 ,86.3005 ,1.75698 ,-0.77925 ,-7.64601 
426 ,86.4926 ,1.75879 ,-0.78267 ,-7.67959 
427 ,86.6846 ,1.76070 ,-0.77925 ,-7.64601 
428 ,86.8931 ,1.76283 ,-0.79978 ,-7.84748 
429 ,87.1008 ,1.76485 ,-0.80321 ,-7.88106 
430 ,87.3086 ,1.76697 ,-0.82374 ,-8.08253 
431 ,87.5170 ,1.76906 ,-0.81689 ,-8.01537 
432 ,87.7412 ,1.77115 ,-0.82716 ,-8.11611 
433 ,87.9493 ,1.77334 ,-0.84769 ,-8.31758 
434 ,88.1410 ,1.77529 ,-0.84769 ,-8.31758 
435 ,88.3490 ,1.77730 ,-0.87507 ,-8.58620 
436 ,88.5411 ,1.77928 ,-0.85454 ,-8.38473 
437 ,88.7334 ,1.78121 ,-0.88876 ,-8.72051 
438 ,88.9415 ,1.78328 ,-0.87849 ,-8.61978 
439 ,89.1495 ,1.78529 ,-0.91272 ,-8.95556 
440 ,89.3417 ,1.78730 ,-0.89560 ,-8.78767 
441 ,89.5494 ,1.78932 ,-0.92298 ,-9.05630 
442 ,89.7578 ,1.79134 ,-0.91956 ,-9.02272 
443 ,89.9657 ,1.79354 ,-0.93667 ,-9.19061 
444 ,90.1584 ,1.79542 ,-0.93325 ,-9.15703 
445 ,90.3660 ,1.79749 ,-0.95036 ,-9.32492 
446 ,90.5579 ,1.79941 ,-0.94694 ,-9.29135 
447 ,90.7503 ,1.80134 ,-0.97774 ,-9.59355 
448 ,90.9580 ,1.80339 ,-0.96747 ,-9.49282 
449 ,91.1505 ,1.80531 ,-0.98800 ,-9.69429 
450 ,91.3587 ,1.80741 ,-0.99143 ,-9.72786 
451 ,91.5665 ,1.80945 ,-1.00511 ,-9.86218 
452 ,91.7423 ,1.81141 ,-1.00854 ,-9.89576 
453 ,91.9508 ,1.81335 ,-1.02222 ,-10.03007 
454 ,92.1589 ,1.81542 ,-1.02565 ,-10.06365 
455 ,92.3668 ,1.81746 ,-1.03591 ,-10.16438 
456 ,92.5748 ,1.81960 ,-1.04960 ,-10.29869 
457 ,92.7831 ,1.82165 ,-1.03934 ,-10.19796 
458 ,93.0227 ,1.82404 ,-1.05302 ,-10.33227 
459 ,93.2309 ,1.82611 ,-1.08040 ,-10.60090 
460 ,93.4394 ,1.82821 ,-1.07014 ,-10.50016 
461 ,93.6795 ,1.83065 ,-1.08040 ,-10.60090 
462 ,93.8715 ,1.83261 ,-1.10436 ,-10.83595 
