Data stamp = , 03-05-2022 05:53:46 882

Calibration Values: 
Slope = , 26.54 , g/V 
Offset Voltage at no contact = , -0.501760 , V 

No , Time , Stage Position ,   Mass , Force 
   ,  (s) ,      (mm)      ,   (g)  , (mN)  

1 ,0.0000 ,0.94942 ,4.85706 ,47.65745 
2 ,0.3159 ,0.94966 ,4.83995 ,47.48956 
3 ,0.7645 ,0.95145 ,4.85364 ,47.62387 
4 ,1.0045 ,0.95403 ,4.85021 ,47.59030 
5 ,1.2125 ,0.95616 ,4.86390 ,47.72461 
6 ,1.4210 ,0.95839 ,4.85021 ,47.59030 
7 ,1.6128 ,0.96034 ,4.82284 ,47.32167 
8 ,1.8049 ,0.96219 ,4.79888 ,47.08662 
9 ,1.9965 ,0.96413 ,4.79888 ,47.08662 
10 ,2.1891 ,0.96604 ,4.76124 ,46.71726 
11 ,2.3972 ,0.96815 ,4.75782 ,46.68368 
12 ,2.6049 ,0.97019 ,4.72359 ,46.34790 
13 ,2.8295 ,0.97236 ,4.72359 ,46.34790 
14 ,3.0372 ,0.97452 ,4.70306 ,46.14643 
15 ,3.2295 ,0.97645 ,4.67226 ,45.84422 
16 ,3.4695 ,0.97871 ,4.65173 ,45.64275 
17 ,3.6617 ,0.98079 ,4.62435 ,45.37413 
18 ,3.8695 ,0.98289 ,4.61408 ,45.27339 
19 ,4.0777 ,0.98490 ,4.59697 ,45.10550 
20 ,4.2537 ,0.98682 ,4.56275 ,44.76972 
21 ,4.4460 ,0.98865 ,4.54906 ,44.63541 
22 ,4.6379 ,0.99054 ,4.54564 ,44.60183 
23 ,4.8457 ,0.99265 ,4.51142 ,44.26604 
24 ,5.0381 ,0.99453 ,4.49431 ,44.09815 
25 ,5.2462 ,0.99662 ,4.47378 ,43.89668 
26 ,5.4380 ,0.99850 ,4.46351 ,43.79595 
27 ,5.6623 ,1.00074 ,4.42244 ,43.39301 
28 ,5.8706 ,1.00275 ,4.41902 ,43.35943 
29 ,6.1106 ,1.00512 ,4.39507 ,43.12438 
30 ,6.3186 ,1.00739 ,4.37111 ,42.88933 
31 ,6.4947 ,1.00926 ,4.34373 ,42.62071 
32 ,6.6867 ,1.01102 ,4.32662 ,42.45282 
33 ,6.8950 ,1.01315 ,4.31636 ,42.35208 
34 ,7.0864 ,1.01503 ,4.28898 ,42.08345 
35 ,7.2791 ,1.01694 ,4.28213 ,42.01630 
36 ,7.4871 ,1.01902 ,4.24107 ,41.61336 
37 ,7.6953 ,1.02106 ,4.24107 ,41.61336 
38 ,7.8872 ,1.02301 ,4.21369 ,41.34473 
39 ,8.1110 ,1.02520 ,4.19658 ,41.17684 
40 ,8.3191 ,1.02737 ,4.17262 ,40.94179 
41 ,8.5270 ,1.02943 ,4.14867 ,40.70674 
42 ,8.7191 ,1.03142 ,4.13498 ,40.57243 
43 ,8.9275 ,1.03336 ,4.11445 ,40.37096 
44 ,9.1359 ,1.03552 ,4.10076 ,40.23665 
45 ,9.3278 ,1.03750 ,4.06654 ,39.90087 
46 ,9.5200 ,1.03937 ,4.06654 ,39.90087 
47 ,9.7281 ,1.04141 ,4.04943 ,39.73297 
48 ,9.9361 ,1.04349 ,4.01863 ,39.43077 
49 ,10.1281 ,1.04542 ,4.01178 ,39.36361 
50 ,10.3203 ,1.04737 ,3.98783 ,39.12856 
51 ,10.5280 ,1.04950 ,3.95361 ,38.79278 
52 ,10.7364 ,1.05145 ,3.97414 ,38.99425 
53 ,10.9285 ,1.05343 ,3.92965 ,38.55773 
54 ,11.1206 ,1.05533 ,3.92623 ,38.52415 
55 ,11.3290 ,1.05747 ,3.89201 ,38.18837 
56 ,11.5204 ,1.05945 ,3.88858 ,38.15479 
57 ,11.7290 ,1.06135 ,3.85779 ,37.85259 
58 ,11.9369 ,1.06349 ,3.84410 ,37.71828 
59 ,12.1291 ,1.06542 ,3.81672 ,37.44965 
60 ,12.3369 ,1.06740 ,3.82699 ,37.55038 
61 ,12.5448 ,1.06961 ,3.79961 ,37.28176 
62 ,12.7372 ,1.07151 ,3.79276 ,37.21460 
63 ,12.9449 ,1.07358 ,3.76196 ,36.91240 
64 ,13.1530 ,1.07566 ,3.73117 ,36.61019 
65 ,13.3291 ,1.07756 ,3.72774 ,36.57661 
66 ,13.5212 ,1.07932 ,3.72090 ,36.50946 
67 ,13.7132 ,1.08127 ,3.68325 ,36.14010 
68 ,13.9216 ,1.08323 ,3.67983 ,36.10652 
69 ,14.1302 ,1.08544 ,3.63877 ,35.70358 
70 ,14.3217 ,1.08734 ,3.64903 ,35.80431 
71 ,14.5140 ,1.08928 ,3.62166 ,35.53569 
72 ,14.7378 ,1.09136 ,3.61139 ,35.43495 
73 ,14.9461 ,1.09358 ,3.57375 ,35.06559 
74 ,15.1542 ,1.09563 ,3.55663 ,34.89770 
75 ,15.3623 ,1.09777 ,3.55321 ,34.86412 
76 ,15.5544 ,1.09968 ,3.52241 ,34.56192 
77 ,15.7466 ,1.10156 ,3.50872 ,34.42760 
78 ,15.9383 ,1.10346 ,3.50188 ,34.36045 
79 ,16.1307 ,1.10541 ,3.47108 ,34.05824 
80 ,16.3226 ,1.10736 ,3.46766 ,34.02466 
81 ,16.4987 ,1.10926 ,3.44028 ,33.75604 
82 ,16.6749 ,1.11098 ,3.43344 ,33.68888 
83 ,16.8670 ,1.11279 ,3.41633 ,33.52099 
84 ,17.0750 ,1.11484 ,3.39579 ,33.31952 
85 ,17.2668 ,1.11676 ,3.39237 ,33.28594 
86 ,17.4593 ,1.11870 ,3.37184 ,33.08447 
87 ,17.6510 ,1.12063 ,3.35130 ,32.88300 
88 ,17.8433 ,1.12254 ,3.34446 ,32.81584 
89 ,18.0512 ,1.12462 ,3.31366 ,32.51364 
90 ,18.2595 ,1.12669 ,3.31708 ,32.54722 
91 ,18.4675 ,1.12879 ,3.28628 ,32.24501 
92 ,18.6595 ,1.13071 ,3.27259 ,32.11070 
93 ,18.8677 ,1.13277 ,3.23837 ,31.77492 
94 ,19.0599 ,1.13478 ,3.24864 ,31.87565 
95 ,19.2679 ,1.13676 ,3.22126 ,31.60702 
96 ,19.4601 ,1.13876 ,3.20415 ,31.43913 
97 ,19.6681 ,1.14080 ,3.18020 ,31.20409 
98 ,19.8602 ,1.14269 ,3.16651 ,31.06977 
99 ,20.0522 ,1.14463 ,3.14255 ,30.83472 
100 ,20.2440 ,1.14654 ,3.14597 ,30.86830 
101 ,20.4522 ,1.14861 ,3.11518 ,30.56610 
102 ,20.6605 ,1.15071 ,3.10833 ,30.49894 
103 ,20.8526 ,1.15265 ,3.08095 ,30.23031 
104 ,21.0447 ,1.15456 ,3.07411 ,30.16316 
105 ,21.2366 ,1.15648 ,3.04673 ,29.89453 
106 ,21.4284 ,1.15841 ,3.04673 ,29.89453 
107 ,21.6206 ,1.16035 ,3.03647 ,29.79380 
108 ,21.8130 ,1.16226 ,3.00567 ,29.49159 
109 ,22.0050 ,1.16428 ,3.00224 ,29.45801 
110 ,22.1971 ,1.16607 ,2.96460 ,29.08865 
111 ,22.4213 ,1.16827 ,2.96802 ,29.12223 
112 ,22.6133 ,1.17033 ,2.93038 ,28.75287 
113 ,22.8212 ,1.17228 ,2.93722 ,28.82003 
114 ,23.0297 ,1.17437 ,2.90300 ,28.48424 
115 ,23.2216 ,1.17632 ,2.89958 ,28.45066 
116 ,23.4138 ,1.17822 ,2.87220 ,28.18204 
117 ,23.6373 ,1.18034 ,2.87220 ,28.18204 
118 ,23.8302 ,1.18241 ,2.84140 ,27.87983 
119 ,24.0378 ,1.18448 ,2.82087 ,27.67836 
120 ,24.2460 ,1.18652 ,2.82087 ,27.67836 
121 ,24.4223 ,1.18843 ,2.78665 ,27.34258 
122 ,24.6141 ,1.19020 ,2.76954 ,27.17469 
123 ,24.8063 ,1.19215 ,2.77638 ,27.24185 
124 ,25.0144 ,1.19423 ,2.73874 ,26.87248 
125 ,25.2224 ,1.19641 ,2.73189 ,26.80533 
126 ,25.4145 ,1.19826 ,2.70794 ,26.57028 
127 ,25.6225 ,1.20030 ,2.70452 ,26.53670 
128 ,25.8142 ,1.20218 ,2.67714 ,26.26807 
129 ,26.0223 ,1.20428 ,2.67372 ,26.23450 
130 ,26.2147 ,1.20623 ,2.65660 ,26.06661 
131 ,26.4067 ,1.20814 ,2.63607 ,25.86514 
132 ,26.5987 ,1.21002 ,2.62238 ,25.73082 
133 ,26.7749 ,1.21194 ,2.60869 ,25.59651 
134 ,26.9668 ,1.21372 ,2.58132 ,25.32788 
135 ,27.1592 ,1.21569 ,2.57447 ,25.26073 
136 ,27.3352 ,1.21754 ,2.55736 ,25.09283 
137 ,27.5275 ,1.21936 ,2.55052 ,25.02568 
138 ,27.7354 ,1.22140 ,2.53341 ,24.85779 
139 ,27.9275 ,1.22347 ,2.50945 ,24.62274 
140 ,28.1356 ,1.22537 ,2.49918 ,24.52200 
141 ,28.3437 ,1.22752 ,2.49918 ,24.52200 
142 ,28.5358 ,1.22939 ,2.46154 ,24.15264 
143 ,28.7118 ,1.23133 ,2.46154 ,24.15264 
144 ,28.9039 ,1.23311 ,2.43759 ,23.91759 
145 ,29.0956 ,1.23506 ,2.41363 ,23.68255 
146 ,29.3041 ,1.23706 ,2.41705 ,23.71612 
147 ,29.4961 ,1.23902 ,2.38625 ,23.41392 
148 ,29.7042 ,1.24107 ,2.39652 ,23.51465 
149 ,29.8962 ,1.24303 ,2.37256 ,23.27961 
150 ,30.0883 ,1.24491 ,2.36230 ,23.17887 
151 ,30.2962 ,1.24701 ,2.32123 ,22.77593 
152 ,30.4885 ,1.24894 ,2.32465 ,22.80951 
153 ,30.6642 ,1.25080 ,2.30412 ,22.60804 
154 ,30.8566 ,1.25264 ,2.28017 ,22.37299 
155 ,31.0486 ,1.25455 ,2.28701 ,22.44015 
156 ,31.2408 ,1.25646 ,2.25279 ,22.10437 
157 ,31.4489 ,1.25857 ,2.24252 ,22.00363 
158 ,31.6569 ,1.26061 ,2.22883 ,21.86932 
159 ,31.8491 ,1.26255 ,2.22541 ,21.83574 
160 ,32.0570 ,1.26462 ,2.19119 ,21.49996 
161 ,32.2492 ,1.26653 ,2.18435 ,21.43280 
162 ,32.4249 ,1.26842 ,2.17408 ,21.33206 
163 ,32.6170 ,1.27023 ,2.15697 ,21.16417 
164 ,32.8095 ,1.27213 ,2.16723 ,21.26491 
165 ,33.0016 ,1.27409 ,2.12959 ,20.89555 
166 ,33.1937 ,1.27602 ,2.11590 ,20.76123 
167 ,33.3856 ,1.27794 ,2.11590 ,20.76123 
168 ,33.5937 ,1.27998 ,2.07826 ,20.39187 
169 ,33.7859 ,1.28194 ,2.07826 ,20.39187 
170 ,33.9777 ,1.28383 ,2.05773 ,20.19040 
171 ,34.1701 ,1.28574 ,2.04404 ,20.05609 
172 ,34.3621 ,1.28769 ,2.02008 ,19.82104 
173 ,34.5698 ,1.28973 ,2.00639 ,19.68673 
174 ,34.8104 ,1.29211 ,2.00297 ,19.65315 
175 ,35.0184 ,1.29425 ,1.98586 ,19.48526 
176 ,35.2105 ,1.29616 ,1.97217 ,19.35094 
177 ,35.4024 ,1.29822 ,1.93795 ,19.01516 
178 ,35.5945 ,1.29999 ,1.93795 ,19.01516 
179 ,35.8027 ,1.30202 ,1.93795 ,19.01516 
180 ,36.0107 ,1.30416 ,1.91057 ,18.74654 
181 ,36.2029 ,1.30609 ,1.90031 ,18.64580 
182 ,36.3949 ,1.30800 ,1.87635 ,18.41075 
183 ,36.5869 ,1.30993 ,1.87977 ,18.44433 
184 ,36.7786 ,1.31184 ,1.85240 ,18.17570 
185 ,36.9871 ,1.31388 ,1.85582 ,18.20928 
186 ,37.1953 ,1.31600 ,1.81475 ,17.80634 
187 ,37.4033 ,1.31808 ,1.80449 ,17.70561 
188 ,37.5954 ,1.32002 ,1.79764 ,17.63845 
189 ,37.8035 ,1.32209 ,1.77711 ,17.43698 
190 ,37.9955 ,1.32403 ,1.76000 ,17.26909 
191 ,38.2036 ,1.32603 ,1.74631 ,17.13478 
192 ,38.4118 ,1.32804 ,1.72235 ,16.89973 
193 ,38.6196 ,1.33017 ,1.71551 ,16.83257 
194 ,38.8439 ,1.33253 ,1.70524 ,16.73184 
195 ,39.0518 ,1.33455 ,1.68813 ,16.56395 
196 ,39.2437 ,1.33648 ,1.68471 ,16.53037 
197 ,39.4363 ,1.33836 ,1.66418 ,16.32890 
198 ,39.6443 ,1.34047 ,1.64364 ,16.12743 
199 ,39.8681 ,1.34258 ,1.62995 ,15.99311 
200 ,40.0761 ,1.34484 ,1.60258 ,15.72449 
201 ,40.2845 ,1.34688 ,1.61284 ,15.82522 
202 ,40.5085 ,1.34904 ,1.59573 ,15.65733 
203 ,40.7007 ,1.35101 ,1.57178 ,15.42228 
204 ,40.8927 ,1.35293 ,1.55809 ,15.28797 
205 ,41.0848 ,1.35487 ,1.54782 ,15.18724 
206 ,41.2929 ,1.35696 ,1.54098 ,15.12008 
207 ,41.4851 ,1.35888 ,1.52045 ,14.91861 
208 ,41.6770 ,1.36080 ,1.49307 ,14.64998 
209 ,41.8852 ,1.36286 ,1.50333 ,14.75072 
210 ,42.0931 ,1.36496 ,1.47938 ,14.51567 
211 ,42.2849 ,1.36690 ,1.46569 ,14.38136 
212 ,42.4931 ,1.36892 ,1.45200 ,14.24704 
213 ,42.7013 ,1.37106 ,1.43489 ,14.07915 
214 ,42.9097 ,1.37312 ,1.42805 ,14.01199 
215 ,43.1176 ,1.37516 ,1.40067 ,13.74337 
216 ,43.2936 ,1.37707 ,1.41094 ,13.84410 
217 ,43.4859 ,1.37886 ,1.38698 ,13.60906 
218 ,43.6777 ,1.38076 ,1.35960 ,13.34043 
219 ,43.8700 ,1.38278 ,1.35960 ,13.34043 
220 ,44.0781 ,1.38484 ,1.32880 ,13.03822 
221 ,44.2861 ,1.38689 ,1.33223 ,13.07180 
222 ,44.4779 ,1.38877 ,1.30485 ,12.80318 
223 ,44.6861 ,1.39089 ,1.30827 ,12.83675 
224 ,44.8784 ,1.39277 ,1.28089 ,12.56813 
225 ,45.0862 ,1.39487 ,1.28432 ,12.60171 
226 ,45.3105 ,1.39697 ,1.24667 ,12.23235 
227 ,45.5026 ,1.39906 ,1.24667 ,12.23235 
228 ,45.6943 ,1.40094 ,1.24325 ,12.19877 
229 ,45.9028 ,1.40307 ,1.21929 ,11.96372 
230 ,46.0948 ,1.40505 ,1.21587 ,11.93014 
231 ,46.2868 ,1.40686 ,1.19876 ,11.76225 
232 ,46.4789 ,1.40877 ,1.16796 ,11.46004 
233 ,46.6706 ,1.41068 ,1.17138 ,11.49362 
234 ,46.8631 ,1.41263 ,1.15427 ,11.32573 
235 ,47.0712 ,1.41472 ,1.15427 ,11.32573 
236 ,47.2633 ,1.41664 ,1.12005 ,10.98995 
237 ,47.4551 ,1.41855 ,1.11663 ,10.95637 
238 ,47.6471 ,1.42045 ,1.10979 ,10.88921 
239 ,47.8392 ,1.42237 ,1.07899 ,10.58701 
240 ,48.0317 ,1.42434 ,1.08583 ,10.65416 
241 ,48.2236 ,1.42623 ,1.06187 ,10.41912 
242 ,48.4157 ,1.42814 ,1.05161 ,10.31838 
243 ,48.6077 ,1.43007 ,1.04476 ,10.25123 
244 ,48.7840 ,1.43198 ,1.01739 ,9.98260 
245 ,48.9760 ,1.43374 ,1.01739 ,9.98260 
246 ,49.1682 ,1.43569 ,1.00712 ,9.88186 
247 ,49.3759 ,1.43781 ,0.97974 ,9.61324 
248 ,49.5682 ,1.43961 ,0.99001 ,9.71397 
249 ,49.7444 ,1.44155 ,0.95579 ,9.37819 
250 ,49.9365 ,1.44333 ,0.95579 ,9.37819 
251 ,50.1446 ,1.44546 ,0.95237 ,9.34461 
252 ,50.3527 ,1.44753 ,0.93868 ,9.21030 
253 ,50.5448 ,1.44941 ,0.91130 ,8.94167 
254 ,50.7366 ,1.45138 ,0.90103 ,8.84094 
255 ,50.9289 ,1.45329 ,0.90103 ,8.84094 
256 ,51.1206 ,1.45527 ,0.87366 ,8.57231 
257 ,51.3131 ,1.45713 ,0.88050 ,8.63947 
258 ,51.5212 ,1.45920 ,0.86681 ,8.50515 
259 ,51.7130 ,1.46113 ,0.86681 ,8.50515 
260 ,51.9213 ,1.46320 ,0.82232 ,8.06864 
261 ,52.1135 ,1.46515 ,0.82575 ,8.10221 
262 ,52.3054 ,1.46702 ,0.81890 ,8.03506 
263 ,52.4975 ,1.46892 ,0.80521 ,7.90074 
264 ,52.6897 ,1.47091 ,0.78468 ,7.69927 
265 ,52.8976 ,1.47292 ,0.76757 ,7.53138 
266 ,53.0896 ,1.47484 ,0.77784 ,7.63212 
267 ,53.2816 ,1.47680 ,0.75388 ,7.39707 
268 ,53.4900 ,1.47887 ,0.75388 ,7.39707 
269 ,53.6820 ,1.48092 ,0.71966 ,7.06129 
270 ,53.8741 ,1.48271 ,0.71624 ,7.02771 
271 ,54.0661 ,1.48461 ,0.70255 ,6.89340 
272 ,54.2904 ,1.48678 ,0.67175 ,6.59119 
273 ,54.5144 ,1.48904 ,0.67175 ,6.59119 
274 ,54.7066 ,1.49101 ,0.67517 ,6.62477 
275 ,54.9146 ,1.49308 ,0.65464 ,6.42330 
276 ,55.0907 ,1.49500 ,0.64095 ,6.28899 
277 ,55.2828 ,1.49679 ,0.63410 ,6.22183 
278 ,55.4905 ,1.49886 ,0.62042 ,6.08752 
279 ,55.6990 ,1.50093 ,0.58619 ,5.75173 
280 ,55.9069 ,1.50305 ,0.60330 ,5.91962 
281 ,56.1151 ,1.50509 ,0.58277 ,5.71815 
282 ,56.3072 ,1.50700 ,0.58619 ,5.75173 
283 ,56.5154 ,1.50911 ,0.55197 ,5.41595 
284 ,56.7071 ,1.51105 ,0.55539 ,5.44953 
285 ,56.9154 ,1.51307 ,0.53144 ,5.21448 
286 ,57.1234 ,1.51514 ,0.53144 ,5.21448 
287 ,57.3157 ,1.51710 ,0.51091 ,5.01301 
288 ,57.5077 ,1.51905 ,0.51775 ,5.08017 
289 ,57.7155 ,1.52111 ,0.48353 ,4.74438 
290 ,57.9236 ,1.52320 ,0.49037 ,4.81154 
291 ,58.1319 ,1.52526 ,0.47326 ,4.64365 
292 ,58.3397 ,1.52734 ,0.45615 ,4.47576 
293 ,58.5481 ,1.52941 ,0.45615 ,4.47576 
294 ,58.7561 ,1.53150 ,0.41509 ,4.07282 
295 ,58.9478 ,1.53347 ,0.41851 ,4.10640 
296 ,59.1404 ,1.53536 ,0.39113 ,3.83777 
297 ,59.3484 ,1.53743 ,0.40482 ,3.97208 
298 ,59.5406 ,1.53934 ,0.38771 ,3.80419 
299 ,59.7644 ,1.54153 ,0.39113 ,3.83777 
300 ,59.9562 ,1.54348 ,0.37402 ,3.66988 
301 ,60.1647 ,1.54556 ,0.36375 ,3.56914 
302 ,60.3729 ,1.54769 ,0.33980 ,3.33410 
303 ,60.5648 ,1.54962 ,0.33295 ,3.26694 
304 ,60.7569 ,1.55150 ,0.30558 ,2.99831 
305 ,60.9488 ,1.55342 ,0.32269 ,3.16620 
306 ,61.1408 ,1.55540 ,0.29531 ,2.89758 
307 ,61.3333 ,1.55733 ,0.29189 ,2.86400 
308 ,61.5414 ,1.55934 ,0.28504 ,2.79684 
309 ,61.7494 ,1.56139 ,0.28504 ,2.79684 
310 ,61.9413 ,1.56339 ,0.24740 ,2.42748 
311 ,62.1332 ,1.56537 ,0.26793 ,2.62895 
312 ,62.3417 ,1.56735 ,0.23371 ,2.29317 
313 ,62.5337 ,1.56942 ,0.23029 ,2.25959 
314 ,62.7415 ,1.57130 ,0.21660 ,2.12528 
315 ,62.9496 ,1.57349 ,0.20291 ,1.99096 
316 ,63.1578 ,1.57553 ,0.17211 ,1.68876 
317 ,63.3661 ,1.57756 ,0.17553 ,1.72234 
318 ,63.5742 ,1.57964 ,0.17211 ,1.68876 
319 ,63.7823 ,1.58170 ,0.17211 ,1.68876 
320 ,63.9904 ,1.58382 ,0.14473 ,1.42013 
321 ,64.1982 ,1.58585 ,0.13789 ,1.35298 
322 ,64.3905 ,1.58785 ,0.12420 ,1.21866 
323 ,64.5826 ,1.58977 ,0.13105 ,1.28582 
324 ,64.7746 ,1.59181 ,0.11051 ,1.08435 
325 ,64.9666 ,1.59358 ,0.11051 ,1.08435 
326 ,65.1586 ,1.59547 ,0.08656 ,0.84930 
327 ,65.3509 ,1.59742 ,0.08998 ,0.88288 
328 ,65.5589 ,1.59958 ,0.06260 ,0.61425 
329 ,65.7829 ,1.60166 ,0.07629 ,0.74857 
330 ,65.9909 ,1.60385 ,0.03865 ,0.37920 
331 ,66.1833 ,1.60582 ,0.05234 ,0.51352 
332 ,66.3753 ,1.60771 ,0.02154 ,0.21131 
333 ,66.5829 ,1.60974 ,0.01811 ,0.17773 
334 ,66.7752 ,1.61166 ,0.00100 ,0.00984 
335 ,66.9673 ,1.61362 ,0.00785 ,0.07700 
336 ,67.1596 ,1.61553 ,-0.01611 ,-0.15805 
337 ,67.3676 ,1.61757 ,-0.01269 ,-0.12447 
338 ,67.5598 ,1.61955 ,-0.03322 ,-0.32594 
339 ,67.7998 ,1.62178 ,-0.04348 ,-0.42667 
340 ,68.0079 ,1.62398 ,-0.04691 ,-0.46025 
341 ,68.2159 ,1.62603 ,-0.07428 ,-0.72888 
342 ,68.4080 ,1.62800 ,-0.06402 ,-0.62814 
343 ,68.6162 ,1.63007 ,-0.09824 ,-0.96393 
344 ,68.8399 ,1.63210 ,-0.09482 ,-0.93035 
345 ,69.0479 ,1.63436 ,-0.09824 ,-0.96393 
346 ,69.2561 ,1.63638 ,-0.12562 ,-1.23255 
347 ,69.4486 ,1.63844 ,-0.11193 ,-1.09824 
348 ,69.6565 ,1.64051 ,-0.14273 ,-1.40045 
349 ,69.8323 ,1.64234 ,-0.14957 ,-1.46760 
350 ,70.0409 ,1.64425 ,-0.14957 ,-1.46760 
351 ,70.2488 ,1.64640 ,-0.16326 ,-1.60191 
352 ,70.4569 ,1.64847 ,-0.19064 ,-1.87054 
353 ,70.6648 ,1.65055 ,-0.18379 ,-1.80338 
354 ,70.8568 ,1.65242 ,-0.19748 ,-1.93770 
355 ,71.0490 ,1.65444 ,-0.20433 ,-2.00485 
356 ,71.2414 ,1.65632 ,-0.20775 ,-2.03843 
357 ,71.4492 ,1.65839 ,-0.22486 ,-2.20632 
358 ,71.6415 ,1.66032 ,-0.23513 ,-2.30706 
359 ,71.8493 ,1.66236 ,-0.25566 ,-2.50853 
360 ,72.0412 ,1.66431 ,-0.25566 ,-2.50853 
361 ,72.2333 ,1.66621 ,-0.28646 ,-2.81073 
362 ,72.4419 ,1.66830 ,-0.26250 ,-2.57569 
363 ,72.6339 ,1.67027 ,-0.29330 ,-2.87789 
364 ,72.8419 ,1.67233 ,-0.28304 ,-2.77716 
365 ,73.0336 ,1.67422 ,-0.32410 ,-3.18010 
366 ,73.2256 ,1.67616 ,-0.31384 ,-3.07936 
367 ,73.4179 ,1.67810 ,-0.34464 ,-3.38156 
368 ,73.6103 ,1.68007 ,-0.33437 ,-3.28083 
369 ,73.8184 ,1.68211 ,-0.34121 ,-3.34799 
370 ,74.0104 ,1.68397 ,-0.35148 ,-3.44872 
371 ,74.2181 ,1.68609 ,-0.35148 ,-3.44872 
372 ,74.4268 ,1.68816 ,-0.36517 ,-3.58303 
373 ,74.6507 ,1.69037 ,-0.39597 ,-3.88524 
374 ,74.8748 ,1.69259 ,-0.40281 ,-3.95240 
375 ,75.1148 ,1.69490 ,-0.38912 ,-3.81808 
376 ,75.3225 ,1.69709 ,-0.40966 ,-4.01955 
377 ,75.5311 ,1.69915 ,-0.43361 ,-4.25460 
378 ,75.7389 ,1.70124 ,-0.43703 ,-4.28818 
379 ,75.9472 ,1.70333 ,-0.45414 ,-4.45607 
380 ,76.1553 ,1.70543 ,-0.47468 ,-4.65754 
381 ,76.3473 ,1.70735 ,-0.45757 ,-4.48965 
382 ,76.5552 ,1.70939 ,-0.48152 ,-4.72470 
383 ,76.7474 ,1.71136 ,-0.48494 ,-4.75828 
384 ,76.9395 ,1.71326 ,-0.48837 ,-4.79185 
385 ,77.1318 ,1.71516 ,-0.51232 ,-5.02690 
386 ,77.3240 ,1.71715 ,-0.49521 ,-4.85901 
387 ,77.5317 ,1.71922 ,-0.52601 ,-5.16121 
388 ,77.7398 ,1.72126 ,-0.52259 ,-5.12764 
389 ,77.9480 ,1.72333 ,-0.55339 ,-5.42984 
390 ,78.1561 ,1.72538 ,-0.55339 ,-5.42984 
391 ,78.3801 ,1.72750 ,-0.56365 ,-5.53058 
392 ,78.6043 ,1.72987 ,-0.56708 ,-5.56415 
393 ,78.8124 ,1.73196 ,-0.58761 ,-5.76562 
394 ,79.0364 ,1.73413 ,-0.58419 ,-5.73205 
395 ,79.2445 ,1.73631 ,-0.58761 ,-5.76562 
396 ,79.4367 ,1.73825 ,-0.61156 ,-6.00067 
397 ,79.6448 ,1.74034 ,-0.60814 ,-5.96709 
398 ,79.8368 ,1.74226 ,-0.62868 ,-6.16856 
399 ,80.0289 ,1.74414 ,-0.62525 ,-6.13499 
400 ,80.2367 ,1.74624 ,-0.65263 ,-6.40361 
401 ,80.4450 ,1.74831 ,-0.63894 ,-6.26930 
402 ,80.6531 ,1.75039 ,-0.66290 ,-6.50435 
403 ,80.8450 ,1.75235 ,-0.65605 ,-6.43719 
404 ,81.0533 ,1.75446 ,-0.69370 ,-6.80655 
405 ,81.2613 ,1.75646 ,-0.67659 ,-6.63866 
406 ,81.4532 ,1.75840 ,-0.70396 ,-6.90729 
407 ,81.6614 ,1.76042 ,-0.70739 ,-6.94086 
408 ,81.8533 ,1.76239 ,-0.73476 ,-7.20949 
409 ,82.0452 ,1.76443 ,-0.72792 ,-7.14233 
410 ,82.2376 ,1.76622 ,-0.73476 ,-7.20949 
411 ,82.4459 ,1.76828 ,-0.73818 ,-7.24307 
412 ,82.6376 ,1.77023 ,-0.75530 ,-7.41096 
413 ,82.8302 ,1.77215 ,-0.75872 ,-7.44454 
414 ,83.0379 ,1.77417 ,-0.76898 ,-7.54527 
415 ,83.2463 ,1.77631 ,-0.76214 ,-7.47812 
416 ,83.4538 ,1.77841 ,-0.79636 ,-7.81390 
417 ,83.6460 ,1.78029 ,-0.78610 ,-7.71317 
418 ,83.8705 ,1.78237 ,-0.81005 ,-7.94821 
419 ,84.0785 ,1.78463 ,-0.81689 ,-8.01537 
420 ,84.2705 ,1.78656 ,-0.81347 ,-7.98179 
421 ,84.4627 ,1.78849 ,-0.82374 ,-8.08253 
422 ,84.6707 ,1.79052 ,-0.84085 ,-8.25042 
423 ,84.8629 ,1.79250 ,-0.84427 ,-8.28400 
424 ,85.0710 ,1.79451 ,-0.85454 ,-8.38473 
425 ,85.2628 ,1.79648 ,-0.86138 ,-8.45189 
426 ,85.4708 ,1.79857 ,-0.88192 ,-8.65336 
427 ,85.6792 ,1.80066 ,-0.88534 ,-8.68694 
428 ,85.8712 ,1.80259 ,-0.87849 ,-8.61978 
429 ,86.0792 ,1.80460 ,-0.90587 ,-8.88841 
430 ,86.2714 ,1.80657 ,-0.91956 ,-9.02272 
431 ,86.4790 ,1.80859 ,-0.92640 ,-9.08988 
432 ,86.6716 ,1.81056 ,-0.91956 ,-9.02272 
433 ,86.8795 ,1.81262 ,-0.92983 ,-9.12345 
434 ,87.0716 ,1.81458 ,-0.92298 ,-9.05630 
435 ,87.3119 ,1.81686 ,-0.96747 ,-9.49282 
436 ,87.5195 ,1.81907 ,-0.96063 ,-9.42566 
437 ,87.7121 ,1.82100 ,-0.96747 ,-9.49282 
438 ,87.9203 ,1.82304 ,-0.98116 ,-9.62713 
439 ,88.1121 ,1.82499 ,-0.97774 ,-9.59355 
440 ,88.3203 ,1.82703 ,-0.99143 ,-9.72786 
441 ,88.5122 ,1.82897 ,-0.99143 ,-9.72786 
442 ,88.7203 ,1.83107 ,-1.00854 ,-9.89576 
443 ,88.9285 ,1.83310 ,-1.01880 ,-9.99649 
444 ,89.1204 ,1.83502 ,-1.02907 ,-10.09723 
445 ,89.3285 ,1.83710 ,-1.03249 ,-10.13080 
446 ,89.5203 ,1.83904 ,-1.04618 ,-10.26512 
447 ,89.7124 ,1.84095 ,-1.05302 ,-10.33227 
448 ,89.9209 ,1.84296 ,-1.05645 ,-10.36585 
449 ,90.1130 ,1.84499 ,-1.05987 ,-10.39943 
450 ,90.3050 ,1.84691 ,-1.07698 ,-10.56732 
451 ,90.5131 ,1.84890 ,-1.09751 ,-10.76879 
452 ,90.7052 ,1.85086 ,-1.08725 ,-10.66806 
453 ,90.9293 ,1.85303 ,-1.09067 ,-10.70163 
454 ,91.1372 ,1.85515 ,-1.11462 ,-10.93668 
455 ,91.3454 ,1.85722 ,-1.11462 ,-10.93668 
456 ,91.5376 ,1.85919 ,-1.14200 ,-11.20531 
457 ,91.7296 ,1.86112 ,-1.12831 ,-11.07100 
458 ,91.9053 ,1.86300 ,-1.14884 ,-11.27247 
459 ,92.0975 ,1.86481 ,-1.16596 ,-11.44036 
460 ,92.3059 ,1.86690 ,-1.15911 ,-11.37320 
461 ,92.5138 ,1.86891 ,-1.17280 ,-11.50751 
462 ,92.7060 ,1.87088 ,-1.15911 ,-11.37320 
