Data stamp = , 03-05-2022 01:37:26 016

Calibration Values: 
Slope = , 26.54 , g/V 
Offset Voltage at no contact = , -0.501760 , V 

No , Time , Stage Position ,   Mass , Force 
   ,  (s) ,      (mm)      ,   (g)  , (mN)  

1 ,0.0000 ,0.94942 ,4.83995 ,47.48956 
2 ,0.2087 ,0.94944 ,4.85364 ,47.62387 
3 ,0.7691 ,0.95173 ,4.82626 ,47.35525 
4 ,1.0094 ,0.95416 ,4.82968 ,47.38883 
5 ,1.2335 ,0.95640 ,4.83995 ,47.48956 
6 ,1.4416 ,0.95859 ,4.81257 ,47.22093 
7 ,1.6336 ,0.96050 ,4.79888 ,47.08662 
8 ,1.8256 ,0.96241 ,4.77150 ,46.81800 
9 ,2.0172 ,0.96433 ,4.75782 ,46.68368 
10 ,2.2098 ,0.96626 ,4.75097 ,46.61653 
11 ,2.4018 ,0.96824 ,4.72017 ,46.31432 
12 ,2.6096 ,0.97027 ,4.70648 ,46.18001 
13 ,2.8176 ,0.97232 ,4.67226 ,45.84422 
14 ,3.0101 ,0.97427 ,4.67226 ,45.84422 
15 ,3.2502 ,0.97652 ,4.62435 ,45.37413 
16 ,3.4583 ,0.97879 ,4.61408 ,45.27339 
17 ,3.6664 ,0.98080 ,4.59013 ,45.03835 
18 ,3.8585 ,0.98274 ,4.56960 ,44.83688 
19 ,4.0826 ,0.98497 ,4.53880 ,44.53467 
20 ,4.2745 ,0.98691 ,4.52853 ,44.43394 
21 ,4.4828 ,0.98900 ,4.50800 ,44.23247 
22 ,4.6747 ,0.99089 ,4.49431 ,44.09815 
23 ,4.8828 ,0.99302 ,4.47035 ,43.86310 
24 ,5.0910 ,0.99497 ,4.45666 ,43.72879 
25 ,5.2985 ,0.99722 ,4.41218 ,43.29227 
26 ,5.5070 ,0.99921 ,4.40533 ,43.22512 
27 ,5.6992 ,1.00118 ,4.38138 ,42.99007 
28 ,5.9070 ,1.00324 ,4.36427 ,42.82218 
29 ,6.0994 ,1.00512 ,4.34373 ,42.62071 
30 ,6.2913 ,1.00710 ,4.33004 ,42.48639 
31 ,6.4835 ,1.00904 ,4.29582 ,42.15061 
32 ,6.6754 ,1.01095 ,4.29924 ,42.18419 
33 ,6.8836 ,1.01300 ,4.27187 ,41.91556 
34 ,7.0758 ,1.01495 ,4.24107 ,41.61336 
35 ,7.2838 ,1.01700 ,4.21711 ,41.37831 
36 ,7.4596 ,1.01886 ,4.20000 ,41.21042 
37 ,7.6681 ,1.02081 ,4.19658 ,41.17684 
38 ,7.8760 ,1.02288 ,4.16236 ,40.84106 
39 ,8.0521 ,1.02481 ,4.15551 ,40.77390 
40 ,8.2444 ,1.02660 ,4.12129 ,40.43812 
41 ,8.4843 ,1.02902 ,4.10076 ,40.23665 
42 ,8.7242 ,1.03125 ,4.10076 ,40.23665 
43 ,8.9325 ,1.03349 ,4.07680 ,40.00160 
44 ,9.1247 ,1.03537 ,4.03574 ,39.59866 
45 ,9.3168 ,1.03734 ,4.03916 ,39.63224 
46 ,9.5247 ,1.03934 ,4.02547 ,39.49793 
47 ,9.7324 ,1.04145 ,4.00836 ,39.33003 
48 ,9.9250 ,1.04339 ,3.98098 ,39.06141 
49 ,10.1329 ,1.04540 ,3.96045 ,38.85994 
50 ,10.3252 ,1.04743 ,3.92623 ,38.52415 
51 ,10.5171 ,1.04937 ,3.92281 ,38.49058 
52 ,10.7408 ,1.05147 ,3.90912 ,38.35626 
53 ,10.9495 ,1.05359 ,3.90227 ,38.28911 
54 ,11.1574 ,1.05578 ,3.86463 ,37.91975 
55 ,11.3495 ,1.05763 ,3.86121 ,37.88617 
56 ,11.5417 ,1.05953 ,3.83383 ,37.61754 
57 ,11.7497 ,1.06163 ,3.81672 ,37.44965 
58 ,11.9417 ,1.06352 ,3.80303 ,37.31534 
59 ,12.1499 ,1.06559 ,3.78250 ,37.11387 
60 ,12.3578 ,1.06767 ,3.73801 ,36.67735 
61 ,12.5500 ,1.06967 ,3.74828 ,36.77808 
62 ,12.7579 ,1.07173 ,3.72090 ,36.50946 
63 ,12.9496 ,1.07362 ,3.71748 ,36.47588 
64 ,13.1422 ,1.07553 ,3.69010 ,36.20725 
65 ,13.3340 ,1.07747 ,3.68668 ,36.17367 
66 ,13.5420 ,1.07951 ,3.64219 ,35.73716 
67 ,13.7505 ,1.08164 ,3.64219 ,35.73716 
68 ,13.9584 ,1.08365 ,3.60454 ,35.36779 
69 ,14.1665 ,1.08576 ,3.59770 ,35.30064 
70 ,14.3905 ,1.08793 ,3.58059 ,35.13275 
71 ,14.5668 ,1.08992 ,3.56690 ,34.99843 
72 ,14.7429 ,1.09167 ,3.53268 ,34.66265 
73 ,14.9349 ,1.09344 ,3.52926 ,34.62907 
74 ,15.1267 ,1.09538 ,3.51899 ,34.52834 
75 ,15.3192 ,1.09738 ,3.47792 ,34.12540 
76 ,15.5269 ,1.09938 ,3.48477 ,34.19255 
77 ,15.7354 ,1.10146 ,3.45055 ,33.85677 
78 ,15.9432 ,1.10354 ,3.44713 ,33.82319 
79 ,16.1515 ,1.10553 ,3.41975 ,33.55457 
80 ,16.3594 ,1.10774 ,3.39921 ,33.35310 
81 ,16.5676 ,1.10987 ,3.40264 ,33.38667 
82 ,16.7757 ,1.11182 ,3.36499 ,33.01731 
83 ,16.9838 ,1.11392 ,3.36157 ,32.98374 
84 ,17.1758 ,1.11586 ,3.32735 ,32.64795 
85 ,17.3834 ,1.11796 ,3.31366 ,32.51364 
86 ,17.5758 ,1.11987 ,3.30682 ,32.44648 
87 ,17.8161 ,1.12214 ,3.27602 ,32.14428 
88 ,18.0239 ,1.12434 ,3.25891 ,31.97639 
89 ,18.2163 ,1.12630 ,3.22811 ,31.67418 
90 ,18.4079 ,1.12819 ,3.24180 ,31.80849 
91 ,18.6164 ,1.13019 ,3.21442 ,31.53987 
92 ,18.8244 ,1.13239 ,3.18704 ,31.27124 
93 ,19.0327 ,1.13444 ,3.18020 ,31.20409 
94 ,19.2245 ,1.13638 ,3.15966 ,31.00262 
95 ,19.4166 ,1.13823 ,3.13229 ,30.73399 
96 ,19.6248 ,1.14039 ,3.12544 ,30.66683 
97 ,19.8169 ,1.14226 ,3.09464 ,30.36463 
98 ,20.0091 ,1.14418 ,3.10149 ,30.43178 
99 ,20.2011 ,1.14613 ,3.07069 ,30.12958 
100 ,20.3930 ,1.14797 ,3.05358 ,29.96169 
101 ,20.5853 ,1.14991 ,3.06042 ,30.02884 
102 ,20.8094 ,1.15211 ,3.02620 ,29.69306 
103 ,21.0335 ,1.15438 ,2.99882 ,29.42444 
104 ,21.2255 ,1.15635 ,2.99540 ,29.39086 
105 ,21.4338 ,1.15842 ,2.97829 ,29.22297 
106 ,21.6253 ,1.16037 ,2.96802 ,29.12223 
107 ,21.8016 ,1.16223 ,2.93038 ,28.75287 
108 ,22.0259 ,1.16427 ,2.92696 ,28.71929 
109 ,22.2339 ,1.16647 ,2.90300 ,28.48424 
110 ,22.4259 ,1.16835 ,2.89958 ,28.45066 
111 ,22.6182 ,1.17033 ,2.87562 ,28.21562 
112 ,22.8258 ,1.17234 ,2.86878 ,28.14846 
113 ,23.0343 ,1.17440 ,2.83456 ,27.81268 
114 ,23.2423 ,1.17652 ,2.81745 ,27.64479 
115 ,23.4339 ,1.17842 ,2.80034 ,27.47689 
116 ,23.6100 ,1.18034 ,2.79349 ,27.40974 
117 ,23.8022 ,1.18215 ,2.76954 ,27.17469 
118 ,24.0102 ,1.18421 ,2.77980 ,27.27542 
119 ,24.2028 ,1.18613 ,2.74558 ,26.93964 
120 ,24.4108 ,1.18816 ,2.72847 ,26.77175 
121 ,24.6029 ,1.19008 ,2.72847 ,26.77175 
122 ,24.7949 ,1.19205 ,2.69425 ,26.43597 
123 ,24.9870 ,1.19396 ,2.69767 ,26.46954 
124 ,25.1791 ,1.19587 ,2.65318 ,26.03303 
125 ,25.3712 ,1.19778 ,2.64976 ,25.99945 
126 ,25.5951 ,1.19993 ,2.63265 ,25.83156 
127 ,25.8030 ,1.20216 ,2.61896 ,25.69724 
128 ,25.9955 ,1.20401 ,2.59843 ,25.49577 
129 ,26.1873 ,1.20595 ,2.59501 ,25.46220 
130 ,26.3952 ,1.20805 ,2.56763 ,25.19357 
131 ,26.5878 ,1.20995 ,2.56078 ,25.12641 
132 ,26.7799 ,1.21188 ,2.53683 ,24.89136 
133 ,26.9880 ,1.21397 ,2.53683 ,24.89136 
134 ,27.1800 ,1.21588 ,2.50945 ,24.62274 
135 ,27.3721 ,1.21793 ,2.49234 ,24.45485 
136 ,27.5802 ,1.21976 ,2.48892 ,24.42127 
137 ,27.7883 ,1.22191 ,2.46496 ,24.18622 
138 ,27.9643 ,1.22385 ,2.45470 ,24.08549 
139 ,28.1403 ,1.22557 ,2.42390 ,23.78328 
140 ,28.3328 ,1.22741 ,2.39994 ,23.54823 
141 ,28.5246 ,1.22933 ,2.41363 ,23.68255 
142 ,28.7487 ,1.23146 ,2.38968 ,23.44750 
143 ,28.9404 ,1.23350 ,2.38968 ,23.44750 
144 ,29.1329 ,1.23538 ,2.34519 ,23.01098 
145 ,29.3250 ,1.23733 ,2.34861 ,23.04456 
146 ,29.5325 ,1.23940 ,2.32465 ,22.80951 
147 ,29.7411 ,1.24146 ,2.30754 ,22.64162 
148 ,29.9492 ,1.24354 ,2.28701 ,22.44015 
149 ,30.1733 ,1.24577 ,2.26648 ,22.23868 
150 ,30.3814 ,1.24786 ,2.26990 ,22.27226 
151 ,30.5892 ,1.24996 ,2.24594 ,22.03721 
152 ,30.7976 ,1.25200 ,2.21515 ,21.73500 
153 ,31.0055 ,1.25410 ,2.22199 ,21.80216 
154 ,31.1976 ,1.25602 ,2.19119 ,21.49996 
155 ,31.4057 ,1.25809 ,2.19119 ,21.49996 
156 ,31.5978 ,1.26004 ,2.15697 ,21.16417 
157 ,31.7895 ,1.26208 ,2.16723 ,21.26491 
158 ,31.9820 ,1.26385 ,2.14328 ,21.02986 
159 ,32.1902 ,1.26595 ,2.11932 ,20.79481 
160 ,32.3821 ,1.26786 ,2.10564 ,20.66050 
161 ,32.5743 ,1.26981 ,2.08510 ,20.45903 
162 ,32.7823 ,1.27183 ,2.07484 ,20.35829 
163 ,32.9904 ,1.27392 ,2.05430 ,20.15682 
164 ,33.1986 ,1.27602 ,2.03377 ,19.95535 
165 ,33.3907 ,1.27799 ,2.04061 ,20.02251 
166 ,33.5827 ,1.27985 ,2.02693 ,19.88820 
167 ,33.7744 ,1.28179 ,1.98928 ,19.51884 
168 ,33.9823 ,1.28387 ,1.99613 ,19.58599 
169 ,34.1744 ,1.28589 ,1.96190 ,19.25021 
170 ,34.3664 ,1.28771 ,1.96190 ,19.25021 
171 ,34.5587 ,1.28962 ,1.93795 ,19.01516 
172 ,34.7506 ,1.29158 ,1.92426 ,18.88085 
173 ,34.9431 ,1.29348 ,1.91742 ,18.81369 
174 ,35.1512 ,1.29553 ,1.90373 ,18.67938 
175 ,35.3590 ,1.29765 ,1.90031 ,18.64580 
176 ,35.5834 ,1.29986 ,1.88662 ,18.51149 
177 ,35.8075 ,1.30201 ,1.85582 ,18.20928 
178 ,36.0154 ,1.30419 ,1.82160 ,17.87350 
179 ,36.2077 ,1.30612 ,1.84555 ,18.10855 
180 ,36.3996 ,1.30804 ,1.81475 ,17.80634 
181 ,36.6078 ,1.31004 ,1.79080 ,17.57129 
182 ,36.8161 ,1.31211 ,1.77711 ,17.43698 
183 ,37.0078 ,1.31410 ,1.76684 ,17.33625 
184 ,37.2001 ,1.31604 ,1.75657 ,17.23551 
185 ,37.3921 ,1.31800 ,1.72578 ,16.93331 
186 ,37.6003 ,1.32006 ,1.71893 ,16.86615 
187 ,37.8084 ,1.32213 ,1.71893 ,16.86615 
188 ,38.0005 ,1.32406 ,1.68129 ,16.49679 
189 ,38.2086 ,1.32608 ,1.68813 ,16.56395 
190 ,38.4326 ,1.32831 ,1.64707 ,16.16101 
191 ,38.6244 ,1.33030 ,1.65733 ,16.26174 
192 ,38.8166 ,1.33216 ,1.61969 ,15.89238 
193 ,39.0249 ,1.33428 ,1.61284 ,15.82522 
194 ,39.2331 ,1.33637 ,1.60600 ,15.75807 
195 ,39.4246 ,1.33828 ,1.59916 ,15.69091 
196 ,39.6491 ,1.34035 ,1.57520 ,15.45586 
197 ,39.8568 ,1.34260 ,1.55809 ,15.28797 
198 ,40.0652 ,1.34465 ,1.55467 ,15.25439 
199 ,40.2573 ,1.34664 ,1.52729 ,14.98577 
200 ,40.4652 ,1.34871 ,1.52387 ,14.95219 
201 ,40.6413 ,1.35056 ,1.52045 ,14.91861 
202 ,40.8336 ,1.35235 ,1.48280 ,14.54925 
203 ,41.0255 ,1.35427 ,1.49307 ,14.64998 
204 ,41.2178 ,1.35624 ,1.46911 ,14.41493 
205 ,41.4095 ,1.35811 ,1.44858 ,14.21346 
206 ,41.6020 ,1.36005 ,1.43489 ,14.07915 
207 ,41.8261 ,1.36228 ,1.43147 ,14.04557 
208 ,42.0340 ,1.36435 ,1.41778 ,13.91126 
209 ,42.2262 ,1.36631 ,1.41094 ,13.84410 
210 ,42.4183 ,1.36821 ,1.38356 ,13.57548 
211 ,42.6104 ,1.37013 ,1.37329 ,13.47474 
212 ,42.8342 ,1.37229 ,1.35276 ,13.27327 
213 ,43.0265 ,1.37424 ,1.35276 ,13.27327 
214 ,43.2186 ,1.37621 ,1.32880 ,13.03822 
215 ,43.4268 ,1.37831 ,1.33223 ,13.07180 
216 ,43.6347 ,1.38035 ,1.29116 ,12.66886 
217 ,43.8264 ,1.38230 ,1.30485 ,12.80318 
218 ,44.0351 ,1.38436 ,1.27063 ,12.46739 
219 ,44.2428 ,1.38644 ,1.27063 ,12.46739 
220 ,44.4511 ,1.38850 ,1.23298 ,12.09803 
221 ,44.6432 ,1.39048 ,1.26036 ,12.36666 
222 ,44.8512 ,1.39252 ,1.22956 ,12.06445 
223 ,45.0432 ,1.39444 ,1.21929 ,11.96372 
224 ,45.2355 ,1.39632 ,1.18850 ,11.66151 
225 ,45.4436 ,1.39841 ,1.19192 ,11.69509 
226 ,45.6356 ,1.40036 ,1.15770 ,11.35931 
227 ,45.8438 ,1.40246 ,1.16454 ,11.42647 
228 ,46.0354 ,1.40437 ,1.13716 ,11.15784 
229 ,46.2279 ,1.40632 ,1.13032 ,11.09068 
230 ,46.4358 ,1.40835 ,1.10979 ,10.88921 
231 ,46.6281 ,1.41032 ,1.10294 ,10.82206 
232 ,46.8200 ,1.41221 ,1.09267 ,10.72132 
233 ,47.0283 ,1.41431 ,1.08241 ,10.62059 
234 ,47.2199 ,1.41621 ,1.06530 ,10.45270 
235 ,47.4120 ,1.41813 ,1.05161 ,10.31838 
236 ,47.6045 ,1.42002 ,1.04476 ,10.25123 
237 ,47.8125 ,1.42215 ,1.02765 ,10.08333 
238 ,48.0044 ,1.42405 ,1.03108 ,10.11691 
239 ,48.1967 ,1.42596 ,1.00712 ,9.88186 
240 ,48.4044 ,1.42800 ,0.99343 ,9.74755 
241 ,48.6127 ,1.43012 ,0.96263 ,9.44535 
242 ,48.8048 ,1.43202 ,0.95921 ,9.41177 
243 ,49.0130 ,1.43413 ,0.95237 ,9.34461 
244 ,49.2048 ,1.43604 ,0.95237 ,9.34461 
245 ,49.4127 ,1.43808 ,0.91814 ,9.00883 
246 ,49.6049 ,1.44004 ,0.92157 ,9.04241 
247 ,49.7973 ,1.44196 ,0.90103 ,8.84094 
248 ,49.9894 ,1.44388 ,0.89419 ,8.77378 
249 ,50.1975 ,1.44595 ,0.87708 ,8.60589 
250 ,50.3891 ,1.44789 ,0.85997 ,8.43800 
251 ,50.5814 ,1.44976 ,0.85997 ,8.43800 
252 ,50.7733 ,1.45174 ,0.84286 ,8.27011 
253 ,50.9978 ,1.45396 ,0.83943 ,8.23653 
254 ,51.1898 ,1.45585 ,0.81890 ,8.03506 
255 ,51.3979 ,1.45791 ,0.80179 ,7.86717 
256 ,51.5896 ,1.45986 ,0.79837 ,7.83359 
257 ,51.7821 ,1.46181 ,0.78126 ,7.66570 
258 ,51.9901 ,1.46387 ,0.75730 ,7.43065 
259 ,52.1821 ,1.46585 ,0.76415 ,7.49780 
260 ,52.3904 ,1.46788 ,0.73677 ,7.22918 
261 ,52.5822 ,1.46983 ,0.73335 ,7.19560 
262 ,52.7903 ,1.47191 ,0.71281 ,6.99413 
263 ,52.9986 ,1.47398 ,0.71624 ,7.02771 
264 ,53.1745 ,1.47586 ,0.69570 ,6.82624 
265 ,53.3664 ,1.47761 ,0.68201 ,6.69193 
266 ,53.5588 ,1.47961 ,0.67859 ,6.65835 
267 ,53.7665 ,1.48162 ,0.65806 ,6.45688 
268 ,53.9747 ,1.48372 ,0.64437 ,6.32256 
269 ,54.1831 ,1.48573 ,0.64095 ,6.28899 
270 ,54.3750 ,1.48774 ,0.61357 ,6.02036 
271 ,54.5832 ,1.48977 ,0.62726 ,6.15467 
272 ,54.7913 ,1.49182 ,0.59646 ,5.85247 
273 ,54.9991 ,1.49404 ,0.59646 ,5.85247 
274 ,55.2075 ,1.49605 ,0.56908 ,5.58384 
275 ,55.3995 ,1.49796 ,0.55882 ,5.48311 
276 ,55.5916 ,1.49994 ,0.55197 ,5.41595 
277 ,55.7675 ,1.50176 ,0.54855 ,5.38237 
278 ,55.9594 ,1.50354 ,0.52117 ,5.11375 
279 ,56.1677 ,1.50563 ,0.49722 ,4.87870 
280 ,56.3597 ,1.50755 ,0.51433 ,5.04659 
281 ,56.5840 ,1.50982 ,0.50064 ,4.91228 
282 ,56.7920 ,1.51189 ,0.46984 ,4.61007 
283 ,56.9842 ,1.51377 ,0.48353 ,4.74438 
284 ,57.1921 ,1.51587 ,0.44931 ,4.40860 
285 ,57.4004 ,1.51799 ,0.46642 ,4.57649 
286 ,57.6082 ,1.52003 ,0.42535 ,4.17355 
287 ,57.8000 ,1.52198 ,0.43562 ,4.27429 
288 ,57.9924 ,1.52386 ,0.40140 ,3.93850 
289 ,58.2162 ,1.52609 ,0.40824 ,4.00566 
290 ,58.4088 ,1.52799 ,0.38429 ,3.77061 
291 ,58.6169 ,1.53011 ,0.37744 ,3.70346 
292 ,58.8087 ,1.53204 ,0.36718 ,3.60272 
293 ,59.0170 ,1.53412 ,0.36718 ,3.60272 
294 ,59.2091 ,1.53605 ,0.33980 ,3.33410 
295 ,59.4331 ,1.53819 ,0.32611 ,3.19978 
296 ,59.6250 ,1.54024 ,0.31926 ,3.13263 
297 ,59.8170 ,1.54212 ,0.31926 ,3.13263 
298 ,59.9934 ,1.54402 ,0.29531 ,2.89758 
299 ,60.1854 ,1.54578 ,0.29873 ,2.93116 
300 ,60.3771 ,1.54782 ,0.27820 ,2.72969 
301 ,60.5855 ,1.54972 ,0.26793 ,2.62895 
302 ,60.7937 ,1.55187 ,0.25767 ,2.52822 
303 ,61.0019 ,1.55394 ,0.24740 ,2.42748 
304 ,61.2099 ,1.55597 ,0.23029 ,2.25959 
305 ,61.4178 ,1.55810 ,0.23029 ,2.25959 
306 ,61.6100 ,1.56010 ,0.19607 ,1.92381 
307 ,61.8181 ,1.56208 ,0.21318 ,2.09170 
308 ,62.0102 ,1.56406 ,0.18238 ,1.78949 
309 ,62.2022 ,1.56598 ,0.18238 ,1.78949 
310 ,62.4422 ,1.56810 ,0.16869 ,1.65518 
311 ,62.6341 ,1.57024 ,0.14473 ,1.42013 
312 ,62.8265 ,1.57222 ,0.14816 ,1.45371 
313 ,63.0506 ,1.57439 ,0.13447 ,1.31940 
314 ,63.2423 ,1.57636 ,0.13105 ,1.28582 
315 ,63.4348 ,1.57826 ,0.11393 ,1.11793 
316 ,63.6269 ,1.58017 ,0.10709 ,1.05077 
317 ,63.8347 ,1.58234 ,0.11051 ,1.08435 
318 ,64.0430 ,1.58438 ,0.09682 ,0.95004 
319 ,64.2350 ,1.58630 ,0.07629 ,0.74857 
320 ,64.4430 ,1.58839 ,0.07287 ,0.71499 
321 ,64.6513 ,1.59047 ,0.03865 ,0.37920 
322 ,64.8428 ,1.59237 ,0.05576 ,0.54710 
323 ,65.0356 ,1.59426 ,0.02838 ,0.27847 
324 ,65.2275 ,1.59618 ,0.02496 ,0.24489 
325 ,65.4353 ,1.59825 ,0.01469 ,0.14416 
326 ,65.6275 ,1.60021 ,-0.00242 ,-0.02373 
327 ,65.8197 ,1.60213 ,0.00100 ,0.00984 
328 ,66.0117 ,1.60408 ,-0.00926 ,-0.09089 
329 ,66.2198 ,1.60614 ,-0.01269 ,-0.12447 
330 ,66.4119 ,1.60802 ,-0.03664 ,-0.35952 
331 ,66.6040 ,1.60991 ,-0.05375 ,-0.52741 
332 ,66.7800 ,1.61184 ,-0.05033 ,-0.49383 
333 ,66.9718 ,1.61367 ,-0.07428 ,-0.72888 
334 ,67.1802 ,1.61566 ,-0.06744 ,-0.66172 
335 ,67.3723 ,1.61777 ,-0.09824 ,-0.96393 
336 ,67.5643 ,1.61956 ,-0.09824 ,-0.96393 
337 ,67.7565 ,1.62147 ,-0.09824 ,-0.96393 
338 ,67.9326 ,1.62338 ,-0.10851 ,-1.06466 
339 ,68.1242 ,1.62519 ,-0.12562 ,-1.23255 
340 ,68.3168 ,1.62706 ,-0.13246 ,-1.29971 
341 ,68.5089 ,1.62904 ,-0.14615 ,-1.43402 
342 ,68.7169 ,1.63105 ,-0.14273 ,-1.40045 
343 ,68.9409 ,1.63322 ,-0.14957 ,-1.46760 
344 ,69.1333 ,1.63528 ,-0.17011 ,-1.66907 
345 ,69.3410 ,1.63730 ,-0.18722 ,-1.83696 
346 ,69.5490 ,1.63942 ,-0.21117 ,-2.07201 
347 ,69.7413 ,1.64138 ,-0.18722 ,-1.83696 
348 ,69.9329 ,1.64319 ,-0.20775 ,-2.03843 
349 ,70.1415 ,1.64516 ,-0.22144 ,-2.17275 
350 ,70.3331 ,1.64724 ,-0.23513 ,-2.30706 
351 ,70.5255 ,1.64915 ,-0.24881 ,-2.44137 
352 ,70.7336 ,1.65124 ,-0.24539 ,-2.40779 
353 ,70.9258 ,1.65315 ,-0.26935 ,-2.64284 
354 ,71.1341 ,1.65517 ,-0.26935 ,-2.64284 
355 ,71.3261 ,1.65721 ,-0.27619 ,-2.71000 
356 ,71.5499 ,1.65924 ,-0.28646 ,-2.81073 
357 ,71.7580 ,1.66147 ,-0.29673 ,-2.91147 
358 ,71.9501 ,1.66341 ,-0.31041 ,-3.04578 
359 ,72.1421 ,1.66530 ,-0.31726 ,-3.11294 
360 ,72.3344 ,1.66724 ,-0.33095 ,-3.24725 
361 ,72.5420 ,1.66928 ,-0.34121 ,-3.34799 
362 ,72.7344 ,1.67122 ,-0.35148 ,-3.44872 
363 ,72.9265 ,1.67317 ,-0.36859 ,-3.61661 
364 ,73.1187 ,1.67514 ,-0.36175 ,-3.54946 
365 ,73.3108 ,1.67702 ,-0.38912 ,-3.81808 
366 ,73.5186 ,1.67912 ,-0.36859 ,-3.61661 
367 ,73.7269 ,1.68119 ,-0.41308 ,-4.05313 
368 ,73.9350 ,1.68321 ,-0.39597 ,-3.88524 
369 ,74.1271 ,1.68520 ,-0.42677 ,-4.18744 
370 ,74.3350 ,1.68722 ,-0.41650 ,-4.08671 
371 ,74.5272 ,1.68915 ,-0.44730 ,-4.38891 
372 ,74.7188 ,1.69122 ,-0.42677 ,-4.18744 
373 ,74.9274 ,1.69316 ,-0.46441 ,-4.55681 
374 ,75.1352 ,1.69523 ,-0.46099 ,-4.52323 
375 ,75.3273 ,1.69715 ,-0.47468 ,-4.65754 
376 ,75.5196 ,1.69909 ,-0.48152 ,-4.72470 
377 ,75.7116 ,1.70103 ,-0.49521 ,-4.85901 
378 ,75.9198 ,1.70311 ,-0.49863 ,-4.89259 
379 ,76.1599 ,1.70533 ,-0.51574 ,-5.06048 
380 ,76.3839 ,1.70767 ,-0.52601 ,-5.16121 
381 ,76.5758 ,1.70961 ,-0.52601 ,-5.16121 
382 ,76.7841 ,1.71168 ,-0.55681 ,-5.46342 
383 ,76.9758 ,1.71377 ,-0.56023 ,-5.49700 
384 ,77.1842 ,1.71559 ,-0.55681 ,-5.46342 
385 ,77.3919 ,1.71780 ,-0.57392 ,-5.63131 
386 ,77.5845 ,1.71971 ,-0.58419 ,-5.73205 
387 ,77.7925 ,1.72180 ,-0.57734 ,-5.66489 
388 ,77.9843 ,1.72372 ,-0.60130 ,-5.89994 
389 ,78.1927 ,1.72578 ,-0.60472 ,-5.93352 
390 ,78.4004 ,1.72787 ,-0.61841 ,-6.06783 
391 ,78.6084 ,1.72993 ,-0.63210 ,-6.20214 
392 ,78.8164 ,1.73197 ,-0.62868 ,-6.16856 
393 ,79.0084 ,1.73405 ,-0.65263 ,-6.40361 
394 ,79.2005 ,1.73604 ,-0.63894 ,-6.26930 
395 ,79.4089 ,1.73795 ,-0.66632 ,-6.53793 
396 ,79.6335 ,1.74023 ,-0.66974 ,-6.57150 
397 ,79.8572 ,1.74239 ,-0.67316 ,-6.60508 
398 ,80.0495 ,1.74436 ,-0.71081 ,-6.97444 
399 ,80.2412 ,1.74627 ,-0.70054 ,-6.87371 
400 ,80.4495 ,1.74835 ,-0.70739 ,-6.94086 
401 ,80.6578 ,1.75032 ,-0.71423 ,-7.00802 
402 ,80.8654 ,1.75251 ,-0.73134 ,-7.17591 
403 ,81.0419 ,1.75440 ,-0.72107 ,-7.07518 
404 ,81.2339 ,1.75618 ,-0.74161 ,-7.27665 
405 ,81.4095 ,1.75805 ,-0.74845 ,-7.34380 
406 ,81.6021 ,1.75988 ,-0.75872 ,-7.44454 
407 ,81.8103 ,1.76200 ,-0.77241 ,-7.57885 
408 ,82.0023 ,1.76388 ,-0.75530 ,-7.41096 
409 ,82.1941 ,1.76580 ,-0.78267 ,-7.67959 
410 ,82.3864 ,1.76771 ,-0.80663 ,-7.91464 
411 ,82.5944 ,1.76972 ,-0.79636 ,-7.81390 
412 ,82.8026 ,1.77186 ,-0.80663 ,-7.91464 
413 ,82.9942 ,1.77382 ,-0.82374 ,-8.08253 
414 ,83.1868 ,1.77568 ,-0.84085 ,-8.25042 
415 ,83.3943 ,1.77782 ,-0.84427 ,-8.28400 
416 ,83.5704 ,1.77965 ,-0.85112 ,-8.35115 
417 ,83.7786 ,1.78161 ,-0.85796 ,-8.41831 
418 ,84.0025 ,1.78386 ,-0.86481 ,-8.48547 
419 ,84.2106 ,1.78590 ,-0.86823 ,-8.51904 
420 ,84.4188 ,1.78800 ,-0.88192 ,-8.65336 
421 ,84.6108 ,1.78997 ,-0.90587 ,-8.88841 
422 ,84.8194 ,1.79199 ,-0.89218 ,-8.75409 
423 ,85.0274 ,1.79413 ,-0.92298 ,-9.05630 
424 ,85.2196 ,1.79607 ,-0.90929 ,-8.92198 
425 ,85.4277 ,1.79813 ,-0.93325 ,-9.15703 
426 ,85.6518 ,1.80031 ,-0.93667 ,-9.19061 
427 ,85.8598 ,1.80241 ,-0.93325 ,-9.15703 
428 ,86.0679 ,1.80450 ,-0.96063 ,-9.42566 
429 ,86.2759 ,1.80658 ,-0.96063 ,-9.42566 
430 ,86.4678 ,1.80852 ,-0.97431 ,-9.55997 
431 ,86.6601 ,1.81049 ,-0.97431 ,-9.55997 
432 ,86.8680 ,1.81253 ,-0.99827 ,-9.79502 
433 ,87.0762 ,1.81464 ,-0.98116 ,-9.62713 
434 ,87.2841 ,1.81662 ,-1.01880 ,-9.99649 
435 ,87.4764 ,1.81856 ,-1.00169 ,-9.82860 
436 ,87.6686 ,1.82053 ,-1.03249 ,-10.13080 
437 ,87.8606 ,1.82244 ,-1.01880 ,-9.99649 
438 ,88.0523 ,1.82435 ,-1.04960 ,-10.29869 
439 ,88.2445 ,1.82630 ,-1.05302 ,-10.33227 
440 ,88.4370 ,1.82821 ,-1.05987 ,-10.39943 
441 ,88.6290 ,1.83012 ,-1.07356 ,-10.53374 
442 ,88.8211 ,1.83207 ,-1.07014 ,-10.50016 
443 ,89.0294 ,1.83412 ,-1.09409 ,-10.73521 
444 ,89.2372 ,1.83620 ,-1.08382 ,-10.63448 
445 ,89.4609 ,1.83833 ,-1.10778 ,-10.86953 
446 ,89.6532 ,1.84037 ,-1.10093 ,-10.80237 
447 ,89.8615 ,1.84247 ,-1.10093 ,-10.80237 
448 ,90.0536 ,1.84438 ,-1.12831 ,-11.07100 
449 ,90.2612 ,1.84653 ,-1.11120 ,-10.90310 
450 ,90.4697 ,1.84856 ,-1.13858 ,-11.17173 
451 ,90.6778 ,1.85059 ,-1.13858 ,-11.17173 
452 ,90.8859 ,1.85261 ,-1.15569 ,-11.33962 
453 ,91.0940 ,1.85477 ,-1.17964 ,-11.57467 
454 ,91.2860 ,1.85669 ,-1.18307 ,-11.60825 
455 ,91.4940 ,1.85869 ,-1.16596 ,-11.44036 
456 ,91.7022 ,1.86088 ,-1.18649 ,-11.64183 
457 ,91.8942 ,1.86276 ,-1.20360 ,-11.80972 
458 ,92.0863 ,1.86470 ,-1.19676 ,-11.74256 
459 ,92.2945 ,1.86674 ,-1.21387 ,-11.91045 
460 ,92.4701 ,1.86862 ,-1.22413 ,-12.01119 
461 ,92.6627 ,1.87048 ,-1.21044 ,-11.87688 
