Data stamp = , 03-05-2022 16:01:18 156

Calibration Values: 
Slope = , 26.54 , g/V 
Offset Voltage at no contact = , -0.501760 , V 

No , Time , Stage Position ,   Mass , Force 
   ,  (s) ,      (mm)      ,   (g)  , (mN)  

1 ,0.0000 ,0.89949 ,5.27798 ,51.78758 
2 ,0.2095 ,0.89955 ,5.30878 ,52.08979 
3 ,0.8019 ,0.90192 ,5.27114 ,51.72043 
4 ,1.0103 ,0.90428 ,5.30194 ,52.02263 
5 ,1.2181 ,0.90631 ,5.29167 ,51.92190 
6 ,1.4263 ,0.90845 ,5.27456 ,51.75401 
7 ,1.6346 ,0.91059 ,5.27114 ,51.72043 
8 ,1.8265 ,0.91249 ,5.23692 ,51.38464 
9 ,2.0348 ,0.91459 ,5.23350 ,51.35107 
10 ,2.2589 ,0.91670 ,5.18559 ,50.88097 
11 ,2.4830 ,0.91905 ,5.16163 ,50.64592 
12 ,2.7070 ,0.92129 ,5.14452 ,50.47803 
13 ,2.8992 ,0.92325 ,5.13083 ,50.34372 
14 ,3.0913 ,0.92517 ,5.11372 ,50.17583 
15 ,3.3154 ,0.92733 ,5.08292 ,49.87362 
16 ,3.5072 ,0.92935 ,5.05212 ,49.57142 
17 ,3.6995 ,0.93126 ,5.04870 ,49.53784 
18 ,3.9395 ,0.93348 ,5.02132 ,49.26921 
19 ,4.1475 ,0.93572 ,4.99394 ,49.00058 
20 ,4.3554 ,0.93773 ,4.97683 ,48.83269 
21 ,4.5314 ,0.93970 ,4.94261 ,48.49691 
22 ,4.7399 ,0.94154 ,4.93919 ,48.46333 
23 ,4.9640 ,0.94385 ,4.90497 ,48.12755 
24 ,5.1721 ,0.94590 ,4.87417 ,47.82534 
25 ,5.3802 ,0.94807 ,4.87417 ,47.82534 
26 ,5.5722 ,0.95006 ,4.83310 ,47.42240 
27 ,5.7799 ,0.95200 ,4.81941 ,47.28809 
28 ,5.9725 ,0.95393 ,4.80573 ,47.15378 
29 ,6.1805 ,0.95597 ,4.78177 ,46.91873 
30 ,6.3726 ,0.95798 ,4.74755 ,46.58295 
31 ,6.5646 ,0.95992 ,4.73728 ,46.48221 
32 ,6.7563 ,0.96191 ,4.71675 ,46.28074 
33 ,6.9808 ,0.96391 ,4.68595 ,45.97854 
34 ,7.1889 ,0.96611 ,4.68253 ,45.94496 
35 ,7.3810 ,0.96809 ,4.67226 ,45.84422 
36 ,7.5891 ,0.97011 ,4.63804 ,45.50844 
37 ,7.8128 ,0.97231 ,4.63119 ,45.44128 
38 ,8.0210 ,0.97443 ,4.60724 ,45.20624 
39 ,8.2293 ,0.97648 ,4.56275 ,44.76972 
40 ,8.4374 ,0.97852 ,4.55591 ,44.70256 
41 ,8.6615 ,0.98072 ,4.52853 ,44.43394 
42 ,8.8537 ,0.98276 ,4.50457 ,44.19889 
43 ,9.0775 ,0.98489 ,4.49431 ,44.09815 
44 ,9.2855 ,0.98707 ,4.46693 ,43.82953 
45 ,9.4938 ,0.98911 ,4.44640 ,43.62806 
46 ,9.7020 ,0.99121 ,4.41902 ,43.35943 
47 ,9.8940 ,0.99327 ,4.40191 ,43.19154 
48 ,10.0855 ,0.99503 ,4.39164 ,43.09080 
49 ,10.2782 ,0.99700 ,4.37795 ,42.95649 
50 ,10.4862 ,0.99902 ,4.34716 ,42.65429 
51 ,10.6622 ,1.00092 ,4.33347 ,42.51997 
52 ,10.8544 ,1.00274 ,4.31978 ,42.38566 
53 ,11.0464 ,1.00464 ,4.29582 ,42.15061 
54 ,11.2382 ,1.00657 ,4.29924 ,42.18419 
55 ,11.4466 ,1.00866 ,4.25476 ,41.74767 
56 ,11.6548 ,1.01076 ,4.22053 ,41.41189 
57 ,11.8466 ,1.01267 ,4.20685 ,41.27758 
58 ,12.0709 ,1.01490 ,4.18974 ,41.10968 
59 ,12.2624 ,1.01685 ,4.19658 ,41.17684 
60 ,12.4550 ,1.01874 ,4.16920 ,40.90821 
61 ,12.6630 ,1.02078 ,4.15209 ,40.74032 
62 ,12.8870 ,1.02285 ,4.12129 ,40.43812 
63 ,13.0792 ,1.02497 ,4.11445 ,40.37096 
64 ,13.2871 ,1.02713 ,4.09734 ,40.20307 
65 ,13.4953 ,1.02914 ,4.05969 ,39.83371 
66 ,13.7035 ,1.03124 ,4.05969 ,39.83371 
67 ,13.9116 ,1.03328 ,4.01520 ,39.39719 
68 ,14.1037 ,1.03526 ,4.01863 ,39.43077 
69 ,14.2956 ,1.03717 ,3.97756 ,39.02783 
70 ,14.5198 ,1.03932 ,3.96729 ,38.92709 
71 ,14.7278 ,1.04147 ,3.95703 ,38.82636 
72 ,14.9358 ,1.04351 ,3.93650 ,38.62489 
73 ,15.1440 ,1.04558 ,3.92623 ,38.52415 
74 ,15.3360 ,1.04753 ,3.88858 ,38.15479 
75 ,15.5277 ,1.04954 ,3.88858 ,38.15479 
76 ,15.7358 ,1.05147 ,3.86463 ,37.91975 
77 ,15.9283 ,1.05349 ,3.85094 ,37.78543 
78 ,16.1524 ,1.05572 ,3.81672 ,37.44965 
79 ,16.3445 ,1.05765 ,3.80987 ,37.38249 
80 ,16.5526 ,1.05975 ,3.77565 ,37.04671 
81 ,16.7764 ,1.06198 ,3.76539 ,36.94597 
82 ,17.0008 ,1.06407 ,3.75512 ,36.84524 
83 ,17.2089 ,1.06632 ,3.73117 ,36.61019 
84 ,17.4170 ,1.06829 ,3.69694 ,36.27441 
85 ,17.6250 ,1.07043 ,3.69352 ,36.24083 
86 ,17.8492 ,1.07263 ,3.66957 ,36.00578 
87 ,18.0570 ,1.07473 ,3.64561 ,35.77073 
88 ,18.2493 ,1.07662 ,3.63192 ,35.63642 
89 ,18.4411 ,1.07858 ,3.61823 ,35.50211 
90 ,18.6335 ,1.08054 ,3.59428 ,35.26706 
91 ,18.8410 ,1.08256 ,3.58059 ,35.13275 
92 ,19.0655 ,1.08483 ,3.57032 ,35.03201 
93 ,19.2738 ,1.08693 ,3.53268 ,34.66265 
94 ,19.4657 ,1.08894 ,3.54295 ,34.76338 
95 ,19.6578 ,1.09073 ,3.50530 ,34.39402 
96 ,19.8499 ,1.09269 ,3.50530 ,34.39402 
97 ,20.0579 ,1.09468 ,3.47108 ,34.05824 
98 ,20.2659 ,1.09680 ,3.46081 ,33.95751 
99 ,20.4582 ,1.09873 ,3.43001 ,33.65530 
100 ,20.6661 ,1.10085 ,3.42659 ,33.62172 
101 ,20.8904 ,1.10295 ,3.39921 ,33.35310 
102 ,21.0983 ,1.10509 ,3.38553 ,33.21878 
103 ,21.2904 ,1.10709 ,3.36499 ,33.01731 
104 ,21.4826 ,1.10898 ,3.35473 ,32.91658 
105 ,21.6907 ,1.11105 ,3.33762 ,32.74869 
106 ,21.8824 ,1.11300 ,3.32393 ,32.61437 
107 ,22.0908 ,1.11504 ,3.29997 ,32.37933 
108 ,22.2988 ,1.11717 ,3.28628 ,32.24501 
109 ,22.4909 ,1.11918 ,3.27944 ,32.17786 
110 ,22.6667 ,1.12093 ,3.25548 ,31.94281 
111 ,22.8591 ,1.12273 ,3.22468 ,31.64060 
112 ,23.0510 ,1.12466 ,3.22126 ,31.60702 
113 ,23.2429 ,1.12669 ,3.20073 ,31.40555 
114 ,23.4513 ,1.12861 ,3.17677 ,31.17051 
115 ,23.6914 ,1.13089 ,3.17335 ,31.13693 
116 ,23.8835 ,1.13312 ,3.14255 ,30.83472 
117 ,24.0757 ,1.13490 ,3.13229 ,30.73399 
118 ,24.2837 ,1.13697 ,3.12544 ,30.66683 
119 ,24.4758 ,1.13893 ,3.08780 ,30.29747 
120 ,24.6838 ,1.14093 ,3.09806 ,30.39821 
121 ,24.8756 ,1.14288 ,3.06042 ,30.02884 
122 ,25.0680 ,1.14482 ,3.07411 ,30.16316 
123 ,25.2602 ,1.14672 ,3.02962 ,29.72664 
124 ,25.4679 ,1.14876 ,3.01935 ,29.62590 
125 ,25.6924 ,1.15092 ,2.98513 ,29.29012 
126 ,25.8843 ,1.15301 ,2.97487 ,29.18939 
127 ,26.0922 ,1.15503 ,2.96118 ,29.05507 
128 ,26.2845 ,1.15696 ,2.96460 ,29.08865 
129 ,26.4927 ,1.15903 ,2.92353 ,28.68571 
130 ,26.7005 ,1.16109 ,2.91669 ,28.61856 
131 ,26.9088 ,1.16326 ,2.89958 ,28.45066 
132 ,27.1171 ,1.16524 ,2.86193 ,28.08130 
133 ,27.3250 ,1.16739 ,2.86193 ,28.08130 
134 ,27.5172 ,1.16935 ,2.84140 ,27.87983 
135 ,27.7412 ,1.17148 ,2.82429 ,27.71194 
136 ,27.9331 ,1.17345 ,2.82087 ,27.67836 
137 ,28.1254 ,1.17537 ,2.80376 ,27.51047 
138 ,28.3173 ,1.17731 ,2.77980 ,27.27542 
139 ,28.5255 ,1.17940 ,2.76954 ,27.17469 
140 ,28.7334 ,1.18148 ,2.75243 ,27.00680 
141 ,28.9575 ,1.18372 ,2.71478 ,26.63744 
142 ,29.1657 ,1.18579 ,2.71478 ,26.63744 
143 ,29.3576 ,1.18769 ,2.68740 ,26.36881 
144 ,29.5500 ,1.18966 ,2.68398 ,26.33523 
145 ,29.7579 ,1.19165 ,2.64976 ,25.99945 
146 ,29.9496 ,1.19364 ,2.65660 ,26.06661 
147 ,30.1580 ,1.19560 ,2.62581 ,25.76440 
148 ,30.3661 ,1.19779 ,2.62581 ,25.76440 
149 ,30.5581 ,1.19967 ,2.59501 ,25.46220 
150 ,30.7663 ,1.20177 ,2.58816 ,25.39504 
151 ,30.9901 ,1.20401 ,2.57447 ,25.26073 
152 ,31.1986 ,1.20608 ,2.55052 ,25.02568 
153 ,31.4064 ,1.20818 ,2.53683 ,24.89136 
154 ,31.5987 ,1.21011 ,2.52314 ,24.75705 
155 ,31.8068 ,1.21221 ,2.49918 ,24.52200 
156 ,32.0150 ,1.21429 ,2.48550 ,24.38769 
157 ,32.2067 ,1.21616 ,2.46496 ,24.18622 
158 ,32.3991 ,1.21811 ,2.46496 ,24.18622 
159 ,32.5911 ,1.22005 ,2.45470 ,24.08549 
160 ,32.7993 ,1.22213 ,2.42732 ,23.81686 
161 ,33.0232 ,1.22419 ,2.42048 ,23.74970 
162 ,33.2152 ,1.22630 ,2.39652 ,23.51465 
163 ,33.4395 ,1.22840 ,2.36572 ,23.21245 
164 ,33.6634 ,1.23075 ,2.36230 ,23.17887 
165 ,33.8715 ,1.23280 ,2.35545 ,23.11171 
166 ,34.1117 ,1.23522 ,2.33834 ,22.94382 
167 ,34.3197 ,1.23730 ,2.31097 ,22.67520 
168 ,34.5279 ,1.23939 ,2.30070 ,22.57446 
169 ,34.7357 ,1.24149 ,2.29385 ,22.50731 
170 ,34.9599 ,1.24365 ,2.25621 ,22.13794 
171 ,35.1680 ,1.24571 ,2.23910 ,21.97005 
172 ,35.3602 ,1.24770 ,2.23568 ,21.93647 
173 ,35.5682 ,1.24969 ,2.21172 ,21.70143 
174 ,35.7598 ,1.25168 ,2.19461 ,21.53353 
175 ,35.9519 ,1.25378 ,2.18777 ,21.46638 
176 ,36.1600 ,1.25571 ,2.16723 ,21.26491 
177 ,36.3685 ,1.25777 ,2.15012 ,21.09702 
178 ,36.5923 ,1.26004 ,2.13986 ,20.99628 
179 ,36.8009 ,1.26201 ,2.10221 ,20.62692 
180 ,37.0090 ,1.26423 ,2.08168 ,20.42545 
181 ,37.2172 ,1.26630 ,2.09537 ,20.55976 
182 ,37.4251 ,1.26831 ,2.05088 ,20.12325 
183 ,37.6328 ,1.27041 ,2.04404 ,20.05609 
184 ,37.8413 ,1.27246 ,2.03719 ,19.98893 
185 ,38.0494 ,1.27463 ,2.01666 ,19.78746 
186 ,38.2414 ,1.27663 ,2.01324 ,19.75388 
187 ,38.4334 ,1.27844 ,2.00297 ,19.65315 
188 ,38.6416 ,1.28052 ,1.98586 ,19.48526 
189 ,38.8496 ,1.28263 ,1.96190 ,19.25021 
190 ,39.0737 ,1.28485 ,1.93795 ,19.01516 
191 ,39.2979 ,1.28702 ,1.93795 ,19.01516 
192 ,39.5055 ,1.28911 ,1.90373 ,18.67938 
193 ,39.6981 ,1.29110 ,1.91057 ,18.74654 
194 ,39.9057 ,1.29316 ,1.89346 ,18.57864 
195 ,40.0982 ,1.29505 ,1.89004 ,18.54507 
196 ,40.3228 ,1.29725 ,1.86608 ,18.31002 
197 ,40.5304 ,1.29940 ,1.83871 ,18.04139 
198 ,40.7384 ,1.30139 ,1.83186 ,17.97423 
199 ,40.9461 ,1.30355 ,1.80449 ,17.70561 
200 ,41.1545 ,1.30563 ,1.79764 ,17.63845 
201 ,41.3465 ,1.30756 ,1.77026 ,17.36983 
202 ,41.5547 ,1.30964 ,1.76342 ,17.30267 
203 ,41.7624 ,1.31167 ,1.74289 ,17.10120 
204 ,41.9544 ,1.31368 ,1.72920 ,16.96689 
205 ,42.1305 ,1.31555 ,1.71209 ,16.79899 
206 ,42.3388 ,1.31743 ,1.71551 ,16.83257 
207 ,42.5470 ,1.31955 ,1.67444 ,16.42963 
208 ,42.7552 ,1.32162 ,1.65733 ,16.26174 
209 ,42.9631 ,1.32377 ,1.67102 ,16.39605 
210 ,43.1550 ,1.32559 ,1.65049 ,16.19458 
211 ,43.3634 ,1.32769 ,1.62311 ,15.92596 
212 ,43.5875 ,1.32993 ,1.59916 ,15.69091 
213 ,43.7957 ,1.33199 ,1.60942 ,15.79164 
214 ,44.0035 ,1.33414 ,1.59231 ,15.62375 
215 ,44.2117 ,1.33620 ,1.55467 ,15.25439 
216 ,44.4200 ,1.33831 ,1.55467 ,15.25439 
217 ,44.6280 ,1.34038 ,1.54782 ,15.18724 
218 ,44.8356 ,1.34241 ,1.51702 ,14.88503 
219 ,45.0281 ,1.34433 ,1.51702 ,14.88503 
220 ,45.2523 ,1.34656 ,1.49649 ,14.68356 
221 ,45.4603 ,1.34866 ,1.47938 ,14.51567 
222 ,45.6684 ,1.35073 ,1.47253 ,14.44851 
223 ,45.8765 ,1.35274 ,1.44858 ,14.21346 
224 ,46.0846 ,1.35490 ,1.43831 ,14.11273 
225 ,46.3086 ,1.35703 ,1.40409 ,13.77695 
226 ,46.5167 ,1.35926 ,1.39040 ,13.64263 
227 ,46.7249 ,1.36131 ,1.40067 ,13.74337 
228 ,46.9171 ,1.36325 ,1.37671 ,13.50832 
229 ,47.1251 ,1.36534 ,1.36987 ,13.44116 
230 ,47.3331 ,1.36736 ,1.33907 ,13.13896 
231 ,47.5408 ,1.36940 ,1.34249 ,13.17254 
232 ,47.7491 ,1.37153 ,1.31854 ,12.93749 
233 ,47.9572 ,1.37362 ,1.30143 ,12.76960 
234 ,48.1331 ,1.37550 ,1.28089 ,12.56813 
235 ,48.3256 ,1.37732 ,1.29116 ,12.66886 
236 ,48.5333 ,1.37939 ,1.26036 ,12.36666 
237 ,48.7257 ,1.38128 ,1.27405 ,12.50097 
238 ,48.9172 ,1.38325 ,1.22956 ,12.06445 
239 ,49.1419 ,1.38548 ,1.22956 ,12.06445 
240 ,49.3499 ,1.38752 ,1.21587 ,11.93014 
241 ,49.5579 ,1.38963 ,1.18165 ,11.59436 
242 ,49.7656 ,1.39163 ,1.19876 ,11.76225 
243 ,49.9578 ,1.39363 ,1.15770 ,11.35931 
244 ,50.1502 ,1.39557 ,1.15085 ,11.29215 
245 ,50.3582 ,1.39762 ,1.13716 ,11.15784 
246 ,50.5664 ,1.39968 ,1.13716 ,11.15784 
247 ,50.7584 ,1.40169 ,1.09952 ,10.78848 
248 ,50.9661 ,1.40364 ,1.10636 ,10.85563 
249 ,51.1585 ,1.40567 ,1.07214 ,10.51985 
250 ,51.3506 ,1.40756 ,1.09952 ,10.78848 
251 ,51.5587 ,1.40962 ,1.05161 ,10.31838 
252 ,51.7508 ,1.41158 ,1.06530 ,10.45270 
253 ,51.9745 ,1.41370 ,1.02765 ,10.08333 
254 ,52.1669 ,1.41575 ,1.03450 ,10.15049 
255 ,52.3749 ,1.41778 ,1.02423 ,10.04976 
256 ,52.5832 ,1.41978 ,1.00712 ,9.88186 
257 ,52.7914 ,1.42198 ,0.99685 ,9.78113 
258 ,52.9994 ,1.42403 ,0.96605 ,9.47892 
259 ,53.2234 ,1.42615 ,0.96605 ,9.47892 
260 ,53.4474 ,1.42846 ,0.95237 ,9.34461 
261 ,53.6396 ,1.43043 ,0.92499 ,9.07598 
262 ,53.8320 ,1.43235 ,0.92841 ,9.10956 
263 ,54.0555 ,1.43458 ,0.90446 ,8.87451 
264 ,54.2637 ,1.43661 ,0.89419 ,8.77378 
265 ,54.4559 ,1.43862 ,0.88392 ,8.67305 
266 ,54.6639 ,1.44062 ,0.85997 ,8.43800 
267 ,54.9040 ,1.44294 ,0.85997 ,8.43800 
268 ,55.1122 ,1.44514 ,0.84970 ,8.33726 
269 ,55.3201 ,1.44722 ,0.82575 ,8.10221 
270 ,55.5124 ,1.44919 ,0.81206 ,7.96790 
271 ,55.7205 ,1.45122 ,0.78468 ,7.69927 
272 ,55.9282 ,1.45327 ,0.79495 ,7.80001 
273 ,56.1207 ,1.45527 ,0.76757 ,7.53138 
274 ,56.3283 ,1.45731 ,0.76757 ,7.53138 
275 ,56.5367 ,1.45933 ,0.74704 ,7.32991 
276 ,56.7449 ,1.46146 ,0.72650 ,7.12844 
277 ,56.9528 ,1.46350 ,0.71624 ,7.02771 
278 ,57.1609 ,1.46562 ,0.70255 ,6.89340 
279 ,57.3530 ,1.46764 ,0.69570 ,6.82624 
280 ,57.5452 ,1.46948 ,0.66490 ,6.52403 
281 ,57.7692 ,1.47171 ,0.68544 ,6.72550 
282 ,57.9772 ,1.47378 ,0.65464 ,6.42330 
283 ,58.1852 ,1.47583 ,0.63410 ,6.22183 
284 ,58.4253 ,1.47812 ,0.63753 ,6.25541 
285 ,58.6336 ,1.48032 ,0.61699 ,6.05394 
286 ,58.8417 ,1.48241 ,0.59988 ,5.88605 
287 ,59.0498 ,1.48452 ,0.58962 ,5.78531 
288 ,59.2419 ,1.48649 ,0.57251 ,5.61742 
289 ,59.4499 ,1.48849 ,0.56224 ,5.51668 
290 ,59.6416 ,1.49041 ,0.54513 ,5.34879 
291 ,59.8501 ,1.49254 ,0.54513 ,5.34879 
292 ,60.0581 ,1.49459 ,0.53144 ,5.21448 
293 ,60.2822 ,1.49674 ,0.50748 ,4.97943 
294 ,60.4901 ,1.49885 ,0.51433 ,5.04659 
295 ,60.6983 ,1.50095 ,0.50406 ,4.94585 
296 ,60.9063 ,1.50308 ,0.46984 ,4.61007 
297 ,61.1306 ,1.50532 ,0.46300 ,4.54291 
298 ,61.3385 ,1.50740 ,0.46642 ,4.57649 
299 ,61.5465 ,1.50944 ,0.42877 ,4.20713 
300 ,61.7385 ,1.51141 ,0.43904 ,4.30787 
301 ,61.9307 ,1.51335 ,0.40482 ,3.97208 
302 ,62.1390 ,1.51529 ,0.40482 ,3.97208 
303 ,62.3471 ,1.51742 ,0.37744 ,3.70346 
304 ,62.5551 ,1.51956 ,0.38429 ,3.77061 
305 ,62.7631 ,1.52160 ,0.35006 ,3.43483 
306 ,62.9552 ,1.52357 ,0.35691 ,3.50199 
307 ,63.1633 ,1.52565 ,0.33295 ,3.26694 
308 ,63.3875 ,1.52778 ,0.32611 ,3.19978 
309 ,63.5956 ,1.52994 ,0.32269 ,3.16620 
310 ,63.8036 ,1.53205 ,0.31584 ,3.09905 
311 ,63.9954 ,1.53392 ,0.30215 ,2.96473 
312 ,64.2037 ,1.53605 ,0.27820 ,2.72969 
313 ,64.3958 ,1.53797 ,0.27478 ,2.69611 
314 ,64.5719 ,1.53981 ,0.25082 ,2.46106 
315 ,64.7800 ,1.54180 ,0.26109 ,2.56179 
316 ,64.9879 ,1.54380 ,0.23029 ,2.25959 
317 ,65.1958 ,1.54590 ,0.24398 ,2.39390 
318 ,65.4045 ,1.54801 ,0.21660 ,2.12528 
319 ,65.6121 ,1.55013 ,0.20976 ,2.05812 
320 ,65.8043 ,1.55203 ,0.19949 ,1.95738 
321 ,65.9961 ,1.55393 ,0.19949 ,1.95738 
322 ,66.1885 ,1.55585 ,0.17896 ,1.75592 
323 ,66.3963 ,1.55786 ,0.17211 ,1.68876 
324 ,66.5888 ,1.55988 ,0.13789 ,1.35298 
325 ,66.7966 ,1.56196 ,0.14816 ,1.45371 
326 ,66.9887 ,1.56390 ,0.12078 ,1.18508 
327 ,67.1810 ,1.56576 ,0.13789 ,1.35298 
328 ,67.3889 ,1.56788 ,0.10367 ,1.01719 
329 ,67.5971 ,1.56990 ,0.10025 ,0.98361 
330 ,67.8052 ,1.57203 ,0.07971 ,0.78214 
331 ,68.0133 ,1.57406 ,0.05918 ,0.58067 
332 ,68.2053 ,1.57606 ,0.07287 ,0.71499 
333 ,68.3972 ,1.57795 ,0.05576 ,0.54710 
334 ,68.6053 ,1.58002 ,0.05918 ,0.58067 
335 ,68.7976 ,1.58193 ,0.03865 ,0.37920 
336 ,68.9895 ,1.58387 ,0.02838 ,0.27847 
337 ,69.2138 ,1.58607 ,0.00785 ,0.07700 
338 ,69.4060 ,1.58802 ,0.00443 ,0.04342 
339 ,69.6136 ,1.59015 ,-0.00926 ,-0.09089 
340 ,69.8227 ,1.59216 ,-0.00926 ,-0.09089 
341 ,70.0621 ,1.59444 ,-0.01953 ,-0.19163 
342 ,70.2704 ,1.59664 ,-0.04006 ,-0.39310 
343 ,70.4623 ,1.59863 ,-0.03664 ,-0.35952 
344 ,70.6545 ,1.60050 ,-0.06402 ,-0.62814 
345 ,70.8624 ,1.60261 ,-0.07771 ,-0.76246 
346 ,71.0705 ,1.60470 ,-0.07771 ,-0.76246 
347 ,71.2627 ,1.60661 ,-0.07771 ,-0.76246 
348 ,71.4707 ,1.60859 ,-0.11193 ,-1.09824 
349 ,71.6627 ,1.61064 ,-0.10851 ,-1.06466 
350 ,71.8705 ,1.61264 ,-0.10851 ,-1.06466 
351 ,72.0627 ,1.61459 ,-0.10851 ,-1.06466 
352 ,72.2710 ,1.61668 ,-0.14957 ,-1.46760 
353 ,72.4791 ,1.61872 ,-0.15984 ,-1.56834 
354 ,72.6872 ,1.62082 ,-0.16326 ,-1.60191 
355 ,72.8949 ,1.62293 ,-0.18379 ,-1.80338 
356 ,73.1034 ,1.62499 ,-0.18037 ,-1.76981 
357 ,73.3116 ,1.62707 ,-0.20090 ,-1.97128 
358 ,73.5035 ,1.62901 ,-0.19748 ,-1.93770 
359 ,73.7116 ,1.63105 ,-0.21802 ,-2.13917 
360 ,73.9036 ,1.63299 ,-0.19748 ,-1.93770 
361 ,74.0958 ,1.63490 ,-0.22828 ,-2.23990 
362 ,74.2718 ,1.63679 ,-0.24197 ,-2.37422 
363 ,74.4640 ,1.63863 ,-0.23513 ,-2.30706 
364 ,74.7041 ,1.64090 ,-0.25908 ,-2.54211 
365 ,74.9282 ,1.64318 ,-0.27619 ,-2.71000 
366 ,75.1358 ,1.64526 ,-0.30015 ,-2.94505 
367 ,75.3444 ,1.64736 ,-0.28304 ,-2.77716 
368 ,75.5684 ,1.64957 ,-0.30357 ,-2.97863 
369 ,75.7606 ,1.65153 ,-0.31041 ,-3.04578 
370 ,75.9683 ,1.65370 ,-0.31726 ,-3.11294 
371 ,76.1607 ,1.65552 ,-0.33437 ,-3.28083 
372 ,76.3684 ,1.65759 ,-0.34464 ,-3.38156 
373 ,76.5608 ,1.65957 ,-0.36175 ,-3.54946 
374 ,76.7689 ,1.66163 ,-0.36175 ,-3.54946 
375 ,76.9608 ,1.66355 ,-0.37886 ,-3.71735 
376 ,77.1532 ,1.66549 ,-0.38228 ,-3.75093 
377 ,77.3448 ,1.66743 ,-0.39255 ,-3.85166 
378 ,77.5534 ,1.66944 ,-0.41308 ,-4.05313 
379 ,77.7613 ,1.67151 ,-0.41650 ,-4.08671 
380 ,77.9696 ,1.67357 ,-0.41992 ,-4.12029 
381 ,78.1775 ,1.67569 ,-0.43703 ,-4.28818 
382 ,78.3694 ,1.67766 ,-0.43019 ,-4.22102 
383 ,78.5778 ,1.67975 ,-0.45414 ,-4.45607 
384 ,78.8019 ,1.68184 ,-0.45414 ,-4.45607 
385 ,79.0097 ,1.68396 ,-0.46441 ,-4.55681 
386 ,79.2020 ,1.68595 ,-0.48837 ,-4.79185 
387 ,79.4098 ,1.68798 ,-0.49179 ,-4.82543 
388 ,79.6181 ,1.69011 ,-0.49179 ,-4.82543 
389 ,79.8104 ,1.69199 ,-0.49179 ,-4.82543 
390 ,80.0024 ,1.69399 ,-0.51917 ,-5.09406 
391 ,80.2105 ,1.69608 ,-0.50548 ,-4.95975 
392 ,80.4185 ,1.69811 ,-0.52943 ,-5.19479 
393 ,80.6263 ,1.70017 ,-0.52601 ,-5.16121 
394 ,80.8346 ,1.70224 ,-0.55339 ,-5.42984 
395 ,81.0265 ,1.70420 ,-0.54997 ,-5.39626 
396 ,81.2188 ,1.70613 ,-0.56708 ,-5.56415 
397 ,81.4268 ,1.70820 ,-0.56708 ,-5.56415 
398 ,81.6186 ,1.71011 ,-0.59445 ,-5.83278 
399 ,81.8269 ,1.71221 ,-0.58419 ,-5.73205 
400 ,82.0349 ,1.71419 ,-0.60472 ,-5.93352 
401 ,82.2270 ,1.71621 ,-0.60814 ,-5.96709 
402 ,82.4351 ,1.71828 ,-0.60814 ,-5.96709 
403 ,82.6434 ,1.72040 ,-0.63894 ,-6.26930 
404 ,82.8510 ,1.72247 ,-0.62183 ,-6.10141 
405 ,83.0431 ,1.72433 ,-0.65263 ,-6.40361 
406 ,83.2355 ,1.72626 ,-0.66290 ,-6.50435 
407 ,83.4597 ,1.72847 ,-0.68343 ,-6.70582 
408 ,83.6354 ,1.73038 ,-0.65947 ,-6.47077 
409 ,83.8278 ,1.73217 ,-0.69712 ,-6.84013 
410 ,84.0356 ,1.73420 ,-0.70739 ,-6.94086 
411 ,84.2441 ,1.73636 ,-0.70739 ,-6.94086 
412 ,84.4522 ,1.73849 ,-0.70396 ,-6.90729 
413 ,84.6443 ,1.74037 ,-0.73476 ,-7.20949 
414 ,84.8523 ,1.74239 ,-0.74161 ,-7.27665 
415 ,85.0439 ,1.74433 ,-0.75530 ,-7.41096 
416 ,85.2523 ,1.74640 ,-0.74845 ,-7.34380 
417 ,85.4602 ,1.74856 ,-0.77241 ,-7.57885 
418 ,85.6526 ,1.75042 ,-0.76214 ,-7.47812 
419 ,85.8607 ,1.75243 ,-0.80321 ,-7.88106 
420 ,86.0685 ,1.75455 ,-0.79294 ,-7.78032 
421 ,86.2768 ,1.75669 ,-0.81347 ,-7.98179 
422 ,86.5167 ,1.75905 ,-0.80663 ,-7.91464 
423 ,86.7249 ,1.76114 ,-0.82374 ,-8.08253 
424 ,86.9331 ,1.76325 ,-0.81689 ,-8.01537 
425 ,87.1413 ,1.76530 ,-0.84085 ,-8.25042 
426 ,87.3493 ,1.76742 ,-0.83743 ,-8.21684 
427 ,87.5734 ,1.76956 ,-0.84085 ,-8.25042 
428 ,87.7815 ,1.77167 ,-0.87165 ,-8.55262 
429 ,87.9891 ,1.77376 ,-0.87507 ,-8.58620 
430 ,88.1815 ,1.77573 ,-0.89560 ,-8.78767 
431 ,88.3896 ,1.77780 ,-0.89218 ,-8.75409 
432 ,88.5818 ,1.77968 ,-0.91956 ,-9.02272 
433 ,88.7898 ,1.78177 ,-0.90929 ,-8.92198 
434 ,88.9979 ,1.78382 ,-0.91272 ,-8.95556 
435 ,89.2221 ,1.78600 ,-0.92983 ,-9.12345 
436 ,89.4456 ,1.78829 ,-0.94009 ,-9.22419 
437 ,89.6381 ,1.79030 ,-0.94351 ,-9.25777 
438 ,89.8463 ,1.79233 ,-0.96747 ,-9.49282 
439 ,90.0543 ,1.79440 ,-0.96063 ,-9.42566 
440 ,90.2463 ,1.79638 ,-0.97774 ,-9.59355 
441 ,90.4703 ,1.79857 ,-0.96747 ,-9.49282 
442 ,90.6785 ,1.80071 ,-0.98458 ,-9.66071 
443 ,90.8864 ,1.80273 ,-0.99827 ,-9.79502 
444 ,91.1105 ,1.80483 ,-0.99485 ,-9.76144 
445 ,91.3189 ,1.80706 ,-1.01880 ,-9.99649 
446 ,91.5110 ,1.80894 ,-1.00169 ,-9.82860 
447 ,91.7347 ,1.81117 ,-1.00854 ,-9.89576 
448 ,91.9268 ,1.81330 ,-1.04276 ,-10.23154 
449 ,92.1192 ,1.81511 ,-1.02907 ,-10.09723 
450 ,92.3112 ,1.81702 ,-1.05645 ,-10.36585 
451 ,92.5033 ,1.81896 ,-1.06671 ,-10.46659 
452 ,92.7112 ,1.82094 ,-1.05987 ,-10.39943 
453 ,92.9195 ,1.82313 ,-1.07356 ,-10.53374 
454 ,93.1273 ,1.82518 ,-1.09751 ,-10.76879 
455 ,93.3197 ,1.82703 ,-1.08382 ,-10.63448 
456 ,93.5277 ,1.82909 ,-1.11462 ,-10.93668 
457 ,93.7356 ,1.83117 ,-1.10436 ,-10.83595 
458 ,93.9436 ,1.83334 ,-1.12831 ,-11.07100 
459 ,94.1840 ,1.83572 ,-1.14200 ,-11.20531 
460 ,94.3920 ,1.83782 ,-1.13858 ,-11.17173 
461 ,94.5681 ,1.83967 ,-1.15227 ,-11.30604 
462 ,94.7762 ,1.84162 ,-1.15569 ,-11.33962 
