Data stamp = , 02-05-2022 15:37:57 170

Calibration Values: 
Slope = , 26.54 , g/V 
Offset Voltage at no contact = , -0.501760 , V 

No , Time , Stage Position ,   Mass , Force 
   ,  (s) ,      (mm)      ,   (g)  , (mN)  

1 ,0.0000 ,0.94945 ,4.92550 ,48.32902 
2 ,0.2135 ,0.94948 ,4.91523 ,48.22828 
3 ,0.8061 ,0.95192 ,4.91523 ,48.22828 
4 ,1.0299 ,0.95432 ,4.92550 ,48.32902 
5 ,1.2538 ,0.95661 ,4.93919 ,48.46333 
6 ,1.4459 ,0.95862 ,4.92208 ,48.29544 
7 ,1.6385 ,0.96060 ,4.89812 ,48.06039 
8 ,1.8624 ,0.96283 ,4.86048 ,47.69103 
9 ,2.0713 ,0.96489 ,4.83652 ,47.45598 
10 ,2.2624 ,0.96680 ,4.82284 ,47.32167 
11 ,2.4707 ,0.96884 ,4.80230 ,47.12020 
12 ,2.6464 ,0.97075 ,4.78861 ,46.98589 
13 ,2.8384 ,0.97255 ,4.77493 ,46.85157 
14 ,3.1267 ,0.97494 ,4.74413 ,46.54937 
15 ,3.3190 ,0.97736 ,4.72702 ,46.38148 
16 ,3.5272 ,0.97942 ,4.68937 ,46.01212 
17 ,3.7192 ,0.98136 ,4.69622 ,46.07927 
18 ,3.9270 ,0.98350 ,4.67226 ,45.84422 
19 ,4.1354 ,0.98550 ,4.64831 ,45.60918 
20 ,4.3436 ,0.98760 ,4.62777 ,45.40771 
21 ,4.5356 ,0.98949 ,4.59697 ,45.10550 
22 ,4.7277 ,0.99147 ,4.57644 ,44.90403 
23 ,4.9358 ,0.99354 ,4.56960 ,44.83688 
24 ,5.1278 ,0.99557 ,4.55591 ,44.70256 
25 ,5.3200 ,0.99736 ,4.53880 ,44.53467 
26 ,5.5441 ,0.99952 ,4.51142 ,44.26604 
27 ,5.7360 ,1.00150 ,4.49773 ,44.13173 
28 ,5.9282 ,1.00347 ,4.45666 ,43.72879 
29 ,6.1518 ,1.00557 ,4.45324 ,43.69521 
30 ,6.3763 ,1.00778 ,4.43271 ,43.49374 
31 ,6.5845 ,1.00998 ,4.40191 ,43.19154 
32 ,6.7765 ,1.01195 ,4.39164 ,43.09080 
33 ,6.9844 ,1.01407 ,4.38480 ,43.02365 
34 ,7.1924 ,1.01608 ,4.34031 ,42.58713 
35 ,7.4968 ,1.01854 ,4.33004 ,42.48639 
36 ,7.7049 ,1.02118 ,4.28898 ,42.08345 
37 ,7.8806 ,1.02307 ,4.27871 ,41.98272 
38 ,8.0730 ,1.02485 ,4.25133 ,41.71409 
39 ,8.2653 ,1.02680 ,4.25818 ,41.78125 
40 ,8.4732 ,1.02883 ,4.20685 ,41.27758 
41 ,8.6654 ,1.03081 ,4.20342 ,41.24400 
42 ,8.8572 ,1.03277 ,4.18974 ,41.10968 
43 ,9.0495 ,1.03470 ,4.17262 ,40.94179 
44 ,9.2576 ,1.03676 ,4.14867 ,40.70674 
45 ,9.4654 ,1.03876 ,4.12814 ,40.50527 
46 ,9.6737 ,1.04080 ,4.11787 ,40.40454 
47 ,9.8816 ,1.04295 ,4.10418 ,40.27023 
48 ,10.0739 ,1.04489 ,4.07680 ,40.00160 
49 ,10.2659 ,1.04680 ,4.06654 ,39.90087 
50 ,10.4740 ,1.04887 ,4.03232 ,39.56508 
51 ,10.6660 ,1.05077 ,4.01520 ,39.39719 
52 ,10.8582 ,1.05269 ,4.01178 ,39.36361 
53 ,11.0503 ,1.05463 ,3.97072 ,38.96067 
54 ,11.2424 ,1.05658 ,3.99809 ,39.22930 
55 ,11.4343 ,1.05851 ,3.93992 ,38.65847 
56 ,11.6422 ,1.06066 ,3.95361 ,38.79278 
57 ,11.8503 ,1.06262 ,3.91254 ,38.38984 
58 ,12.0748 ,1.06473 ,3.90570 ,38.32268 
59 ,12.2669 ,1.06681 ,3.88858 ,38.15479 
60 ,12.4749 ,1.06884 ,3.86121 ,37.88617 
61 ,12.6671 ,1.07078 ,3.84410 ,37.71828 
62 ,12.8750 ,1.07286 ,3.81672 ,37.44965 
63 ,13.0671 ,1.07492 ,3.80645 ,37.34891 
64 ,13.2592 ,1.07673 ,3.79619 ,37.24818 
65 ,13.4510 ,1.07864 ,3.76881 ,36.97955 
66 ,13.6594 ,1.08070 ,3.74828 ,36.77808 
67 ,13.8511 ,1.08264 ,3.74485 ,36.74450 
68 ,14.0436 ,1.08460 ,3.74485 ,36.74450 
69 ,14.2515 ,1.08662 ,3.70721 ,36.37514 
70 ,14.4434 ,1.08859 ,3.69694 ,36.27441 
71 ,14.6835 ,1.09088 ,3.66957 ,36.00578 
72 ,14.8918 ,1.09302 ,3.63877 ,35.70358 
73 ,15.1001 ,1.09511 ,3.62508 ,35.56926 
74 ,15.3078 ,1.09722 ,3.60112 ,35.33422 
75 ,15.5001 ,1.09913 ,3.59770 ,35.30064 
76 ,15.7082 ,1.10121 ,3.57032 ,35.03201 
77 ,15.9162 ,1.10324 ,3.56006 ,34.93128 
78 ,16.1086 ,1.10516 ,3.54637 ,34.79696 
79 ,16.3165 ,1.10729 ,3.51899 ,34.52834 
80 ,16.5245 ,1.10930 ,3.51557 ,34.49476 
81 ,16.7327 ,1.11143 ,3.48477 ,34.19255 
82 ,16.9566 ,1.11356 ,3.46766 ,34.02466 
83 ,17.1644 ,1.11579 ,3.46081 ,33.95751 
84 ,17.3728 ,1.11780 ,3.42317 ,33.58814 
85 ,17.5490 ,1.11972 ,3.43344 ,33.68888 
86 ,17.7411 ,1.12155 ,3.40606 ,33.42025 
87 ,17.9331 ,1.12341 ,3.36842 ,33.05089 
88 ,18.1410 ,1.12554 ,3.35815 ,32.95016 
89 ,18.3172 ,1.12738 ,3.34446 ,32.81584 
90 ,18.5254 ,1.12926 ,3.33762 ,32.74869 
91 ,18.7336 ,1.13140 ,3.31366 ,32.51364 
92 ,18.9416 ,1.13348 ,3.31024 ,32.48006 
93 ,19.1336 ,1.13545 ,3.28628 ,32.24501 
94 ,19.3413 ,1.13751 ,3.27602 ,32.14428 
95 ,19.5496 ,1.13955 ,3.25548 ,31.94281 
96 ,19.7899 ,1.14192 ,3.22126 ,31.60702 
97 ,20.0139 ,1.14417 ,3.20757 ,31.47271 
98 ,20.2060 ,1.14616 ,3.21100 ,31.50629 
99 ,20.4140 ,1.14822 ,3.18362 ,31.23766 
100 ,20.6061 ,1.15022 ,3.17677 ,31.17051 
101 ,20.8143 ,1.15223 ,3.14255 ,30.83472 
102 ,21.0063 ,1.15414 ,3.14255 ,30.83472 
103 ,21.2143 ,1.15625 ,3.10491 ,30.46536 
104 ,21.4065 ,1.15817 ,3.11175 ,30.53252 
105 ,21.6140 ,1.16021 ,3.07069 ,30.12958 
106 ,21.8067 ,1.16220 ,3.09122 ,30.33105 
107 ,22.0148 ,1.16427 ,3.05015 ,29.92811 
108 ,22.2068 ,1.16616 ,3.04331 ,29.86095 
109 ,22.3989 ,1.16811 ,3.01251 ,29.55875 
110 ,22.5907 ,1.16997 ,2.99882 ,29.42444 
111 ,22.7668 ,1.17189 ,3.00224 ,29.45801 
112 ,22.9591 ,1.17365 ,2.97487 ,29.18939 
113 ,23.1512 ,1.17562 ,2.96118 ,29.05507 
114 ,23.3592 ,1.17768 ,2.92696 ,28.71929 
115 ,23.5994 ,1.17985 ,2.94749 ,28.92076 
116 ,23.8069 ,1.18218 ,2.92011 ,28.65213 
117 ,24.0154 ,1.18412 ,2.88931 ,28.34993 
118 ,24.2236 ,1.18619 ,2.88247 ,28.28277 
119 ,24.4156 ,1.18821 ,2.85509 ,28.01415 
120 ,24.6078 ,1.19017 ,2.86193 ,28.08130 
121 ,24.8158 ,1.19225 ,2.80718 ,27.54405 
122 ,25.0398 ,1.19442 ,2.81402 ,27.61121 
123 ,25.2480 ,1.19660 ,2.81060 ,27.57763 
124 ,25.4400 ,1.19849 ,2.76269 ,27.10753 
125 ,25.6481 ,1.20052 ,2.76611 ,27.14111 
126 ,25.8563 ,1.20257 ,2.74900 ,26.97322 
127 ,26.0482 ,1.20455 ,2.74900 ,26.97322 
128 ,26.2404 ,1.20646 ,2.71478 ,26.63744 
129 ,26.4482 ,1.20849 ,2.70452 ,26.53670 
130 ,26.6728 ,1.21084 ,2.67372 ,26.23450 
131 ,26.8802 ,1.21289 ,2.65318 ,26.03303 
132 ,27.0724 ,1.21480 ,2.64292 ,25.93229 
133 ,27.2646 ,1.21672 ,2.63949 ,25.89871 
134 ,27.4569 ,1.21860 ,2.61212 ,25.63009 
135 ,27.6489 ,1.22054 ,2.61896 ,25.69724 
136 ,27.8409 ,1.22245 ,2.59158 ,25.42862 
137 ,28.0490 ,1.22448 ,2.58474 ,25.36146 
138 ,28.2411 ,1.22648 ,2.55394 ,25.05926 
139 ,28.4494 ,1.22856 ,2.55736 ,25.09283 
140 ,28.6574 ,1.23066 ,2.50945 ,24.62274 
141 ,28.8496 ,1.23261 ,2.51287 ,24.65632 
142 ,29.0576 ,1.23461 ,2.48207 ,24.35411 
143 ,29.2492 ,1.23652 ,2.48207 ,24.35411 
144 ,29.4414 ,1.23849 ,2.45470 ,24.08549 
145 ,29.6499 ,1.24051 ,2.45127 ,24.05191 
146 ,29.8418 ,1.24249 ,2.42048 ,23.74970 
147 ,30.0500 ,1.24453 ,2.41363 ,23.68255 
148 ,30.2740 ,1.24669 ,2.39994 ,23.54823 
149 ,30.4661 ,1.24872 ,2.39310 ,23.48108 
150 ,30.6582 ,1.25070 ,2.36572 ,23.21245 
151 ,30.8502 ,1.25254 ,2.35888 ,23.14529 
152 ,31.0744 ,1.25475 ,2.33150 ,22.87667 
153 ,31.2822 ,1.25689 ,2.31097 ,22.67520 
154 ,31.4901 ,1.25895 ,2.31097 ,22.67520 
155 ,31.6826 ,1.26084 ,2.29385 ,22.50731 
156 ,31.8903 ,1.26299 ,2.28359 ,22.40657 
157 ,32.0828 ,1.26485 ,2.25963 ,22.17152 
158 ,32.2904 ,1.26695 ,2.24937 ,22.07079 
159 ,32.4827 ,1.26889 ,2.22199 ,21.80216 
160 ,32.6748 ,1.27080 ,2.21857 ,21.76858 
161 ,32.8826 ,1.27284 ,2.20146 ,21.60069 
162 ,33.0749 ,1.27476 ,2.17750 ,21.36564 
163 ,33.2674 ,1.27673 ,2.16723 ,21.26491 
164 ,33.4592 ,1.27870 ,2.14328 ,21.02986 
165 ,33.6670 ,1.28071 ,2.13986 ,20.99628 
166 ,33.8597 ,1.28269 ,2.11590 ,20.76123 
167 ,34.0515 ,1.28459 ,2.11248 ,20.72766 
168 ,34.2438 ,1.28654 ,2.08852 ,20.49261 
169 ,34.4516 ,1.28857 ,2.07826 ,20.39187 
170 ,34.6598 ,1.29068 ,2.04746 ,20.08967 
171 ,34.8519 ,1.29252 ,2.05773 ,20.19040 
172 ,35.0601 ,1.29463 ,2.02008 ,19.82104 
173 ,35.2681 ,1.29673 ,2.02008 ,19.82104 
174 ,35.4599 ,1.29864 ,1.99613 ,19.58599 
175 ,35.7162 ,1.30104 ,1.96875 ,19.31737 
176 ,35.9243 ,1.30327 ,1.96190 ,19.25021 
177 ,36.1164 ,1.30518 ,1.95164 ,19.14948 
178 ,36.2922 ,1.30709 ,1.93453 ,18.98158 
179 ,36.4846 ,1.30889 ,1.92084 ,18.84727 
180 ,36.6927 ,1.31094 ,1.90715 ,18.71296 
181 ,36.8846 ,1.31286 ,1.89346 ,18.57864 
182 ,37.0926 ,1.31493 ,1.88662 ,18.51149 
183 ,37.2847 ,1.31692 ,1.86608 ,18.31002 
184 ,37.4929 ,1.31897 ,1.85582 ,18.20928 
185 ,37.6848 ,1.32088 ,1.83528 ,18.00781 
186 ,37.8770 ,1.32278 ,1.82502 ,17.90708 
187 ,38.0687 ,1.32470 ,1.80791 ,17.73919 
188 ,38.2614 ,1.32665 ,1.78053 ,17.47056 
189 ,38.4530 ,1.32856 ,1.80106 ,17.67203 
190 ,38.6775 ,1.33082 ,1.76342 ,17.30267 
191 ,38.8856 ,1.33292 ,1.74973 ,17.16836 
192 ,39.0935 ,1.33502 ,1.72920 ,16.96689 
193 ,39.3017 ,1.33696 ,1.70866 ,16.76542 
194 ,39.5098 ,1.33913 ,1.71209 ,16.79899 
195 ,39.7018 ,1.34101 ,1.68129 ,16.49679 
196 ,39.9100 ,1.34314 ,1.68471 ,16.53037 
197 ,40.1020 ,1.34508 ,1.64707 ,16.16101 
198 ,40.3101 ,1.34709 ,1.65391 ,16.22816 
199 ,40.5022 ,1.34901 ,1.63338 ,16.02669 
200 ,40.6944 ,1.35096 ,1.63338 ,16.02669 
201 ,40.8864 ,1.35286 ,1.60600 ,15.75807 
202 ,41.0945 ,1.35496 ,1.59573 ,15.65733 
203 ,41.2866 ,1.35690 ,1.57520 ,15.45586 
204 ,41.4946 ,1.35894 ,1.57520 ,15.45586 
205 ,41.6868 ,1.36089 ,1.54782 ,15.18724 
206 ,41.8951 ,1.36295 ,1.55124 ,15.22081 
207 ,42.1029 ,1.36503 ,1.50333 ,14.75072 
208 ,42.3428 ,1.36730 ,1.51360 ,14.85145 
209 ,42.5351 ,1.36940 ,1.48965 ,14.61640 
210 ,42.7432 ,1.37143 ,1.46227 ,14.34778 
211 ,42.9352 ,1.37334 ,1.47938 ,14.51567 
212 ,43.1274 ,1.37529 ,1.44516 ,14.17989 
213 ,43.3354 ,1.37735 ,1.44174 ,14.14631 
214 ,43.5270 ,1.37930 ,1.41094 ,13.84410 
215 ,43.7356 ,1.38133 ,1.40751 ,13.81053 
216 ,43.9436 ,1.38344 ,1.38356 ,13.57548 
217 ,44.1358 ,1.38536 ,1.37329 ,13.47474 
218 ,44.3437 ,1.38745 ,1.34591 ,13.20612 
219 ,44.5518 ,1.38940 ,1.34591 ,13.20612 
220 ,44.7600 ,1.39156 ,1.31854 ,12.93749 
221 ,44.9680 ,1.39367 ,1.31169 ,12.87033 
222 ,45.1602 ,1.39557 ,1.29458 ,12.70244 
223 ,45.3683 ,1.39765 ,1.28089 ,12.56813 
224 ,45.5601 ,1.39965 ,1.28432 ,12.60171 
225 ,45.7519 ,1.40147 ,1.27063 ,12.46739 
226 ,45.9442 ,1.40348 ,1.24667 ,12.23235 
227 ,46.1525 ,1.40548 ,1.25009 ,12.26592 
228 ,46.3606 ,1.40762 ,1.22272 ,11.99730 
229 ,46.5526 ,1.40954 ,1.22272 ,11.99730 
230 ,46.7604 ,1.41164 ,1.21245 ,11.89656 
231 ,46.9526 ,1.41352 ,1.19876 ,11.76225 
232 ,47.1770 ,1.41564 ,1.17823 ,11.56078 
233 ,47.3850 ,1.41782 ,1.15085 ,11.29215 
234 ,47.6091 ,1.41989 ,1.14743 ,11.25857 
235 ,47.8008 ,1.42201 ,1.12690 ,11.05710 
236 ,47.9928 ,1.42393 ,1.12005 ,10.98995 
237 ,48.1689 ,1.42582 ,1.10294 ,10.82206 
238 ,48.3770 ,1.42773 ,1.10979 ,10.88921 
239 ,48.5849 ,1.42983 ,1.06872 ,10.48627 
240 ,48.7771 ,1.43184 ,1.06872 ,10.48627 
241 ,48.9853 ,1.43384 ,1.03792 ,10.18407 
242 ,49.1936 ,1.43591 ,1.04819 ,10.28480 
243 ,49.4018 ,1.43800 ,1.03450 ,10.15049 
244 ,49.5939 ,1.43992 ,1.02081 ,10.01618 
245 ,49.8015 ,1.44196 ,1.01054 ,9.91544 
246 ,49.9940 ,1.44391 ,0.99685 ,9.78113 
247 ,50.1858 ,1.44582 ,0.96948 ,9.51250 
248 ,50.3781 ,1.44785 ,0.96948 ,9.51250 
249 ,50.5704 ,1.44966 ,0.95237 ,9.34461 
250 ,50.7624 ,1.45162 ,0.94210 ,9.24388 
251 ,50.9545 ,1.45353 ,0.93183 ,9.14314 
252 ,51.1625 ,1.45563 ,0.91814 ,9.00883 
253 ,51.3703 ,1.45763 ,0.90103 ,8.84094 
254 ,51.5627 ,1.45961 ,0.90103 ,8.84094 
255 ,51.7548 ,1.46156 ,0.86681 ,8.50515 
256 ,51.9628 ,1.46360 ,0.86339 ,8.47158 
257 ,52.1551 ,1.46556 ,0.84628 ,8.30368 
258 ,52.3469 ,1.46745 ,0.83943 ,8.23653 
259 ,52.5552 ,1.46954 ,0.84286 ,8.27011 
260 ,52.7632 ,1.47159 ,0.81206 ,7.96790 
261 ,52.9554 ,1.47355 ,0.81206 ,7.96790 
262 ,53.1474 ,1.47545 ,0.79495 ,7.80001 
263 ,53.3395 ,1.47733 ,0.79495 ,7.80001 
264 ,53.5637 ,1.47949 ,0.75388 ,7.39707 
265 ,53.7877 ,1.48171 ,0.75730 ,7.43065 
266 ,53.9953 ,1.48394 ,0.74361 ,7.29633 
267 ,54.2039 ,1.48588 ,0.71281 ,6.99413 
268 ,54.3958 ,1.48792 ,0.72308 ,7.09486 
269 ,54.5877 ,1.48984 ,0.70597 ,6.92697 
270 ,54.7962 ,1.49190 ,0.68544 ,6.72550 
271 ,55.0039 ,1.49402 ,0.68886 ,6.75908 
272 ,55.1959 ,1.49593 ,0.66490 ,6.52403 
273 ,55.3884 ,1.49786 ,0.63068 ,6.18825 
274 ,55.5964 ,1.49994 ,0.63410 ,6.22183 
275 ,55.7885 ,1.50182 ,0.62384 ,6.12109 
276 ,55.9966 ,1.50394 ,0.61699 ,6.05394 
277 ,56.1887 ,1.50586 ,0.60330 ,5.91962 
278 ,56.3808 ,1.50777 ,0.59988 ,5.88605 
279 ,56.5727 ,1.50972 ,0.56566 ,5.55026 
280 ,56.7645 ,1.51162 ,0.57251 ,5.61742 
281 ,56.9570 ,1.51354 ,0.57593 ,5.65100 
282 ,57.1809 ,1.51573 ,0.55197 ,5.41595 
283 ,57.3890 ,1.51787 ,0.51775 ,5.08017 
284 ,57.5967 ,1.51994 ,0.52117 ,5.11375 
285 ,57.8049 ,1.52194 ,0.51091 ,5.01301 
286 ,58.0129 ,1.52411 ,0.49037 ,4.81154 
287 ,58.2056 ,1.52606 ,0.48011 ,4.71081 
288 ,58.4457 ,1.52833 ,0.45957 ,4.50934 
289 ,58.6538 ,1.53049 ,0.44931 ,4.40860 
290 ,58.8617 ,1.53261 ,0.44931 ,4.40860 
291 ,59.0698 ,1.53462 ,0.42877 ,4.20713 
292 ,59.2620 ,1.53657 ,0.43220 ,4.24071 
293 ,59.4857 ,1.53865 ,0.40482 ,3.97208 
294 ,59.6779 ,1.54072 ,0.40824 ,4.00566 
295 ,59.8702 ,1.54276 ,0.39455 ,3.87135 
296 ,60.0620 ,1.54457 ,0.39113 ,3.83777 
297 ,60.2707 ,1.54660 ,0.35006 ,3.43483 
298 ,60.4784 ,1.54876 ,0.35349 ,3.46841 
299 ,60.6708 ,1.55065 ,0.32611 ,3.19978 
300 ,60.8625 ,1.55256 ,0.35006 ,3.43483 
301 ,61.0547 ,1.55447 ,0.32611 ,3.19978 
302 ,61.2463 ,1.55638 ,0.30900 ,3.03189 
303 ,61.4388 ,1.55835 ,0.30900 ,3.03189 
304 ,61.6630 ,1.56059 ,0.30215 ,2.96473 
305 ,61.8708 ,1.56263 ,0.26793 ,2.62895 
306 ,62.0472 ,1.56453 ,0.26451 ,2.59537 
307 ,62.2392 ,1.56633 ,0.25082 ,2.46106 
308 ,62.4633 ,1.56853 ,0.25767 ,2.52822 
309 ,62.6711 ,1.57062 ,0.24055 ,2.36032 
310 ,62.8631 ,1.57259 ,0.22687 ,2.22601 
311 ,63.0552 ,1.57445 ,0.20291 ,1.99096 
312 ,63.2473 ,1.57641 ,0.20291 ,1.99096 
313 ,63.4393 ,1.57830 ,0.20633 ,2.02454 
314 ,63.6479 ,1.58037 ,0.18922 ,1.85665 
315 ,63.8560 ,1.58250 ,0.15842 ,1.55445 
316 ,64.0481 ,1.58444 ,0.17211 ,1.68876 
317 ,64.2720 ,1.58654 ,0.14131 ,1.38655 
318 ,64.4643 ,1.58862 ,0.15158 ,1.48729 
319 ,64.6882 ,1.59076 ,0.12762 ,1.25224 
320 ,64.8964 ,1.59288 ,0.09682 ,0.95004 
321 ,65.0882 ,1.59483 ,0.10709 ,1.05077 
322 ,65.2964 ,1.59688 ,0.09682 ,0.95004 
323 ,65.4883 ,1.59878 ,0.08314 ,0.81572 
324 ,65.7126 ,1.60105 ,0.05576 ,0.54710 
325 ,65.9208 ,1.60315 ,0.06945 ,0.68141 
326 ,66.1289 ,1.60522 ,0.05918 ,0.58067 
327 ,66.3372 ,1.60719 ,0.05576 ,0.54710 
328 ,66.5291 ,1.60921 ,0.03180 ,0.31205 
329 ,66.7208 ,1.61111 ,0.03180 ,0.31205 
330 ,66.9289 ,1.61319 ,0.00785 ,0.07700 
331 ,67.1373 ,1.61528 ,0.00100 ,0.00984 
332 ,67.3294 ,1.61723 ,0.00100 ,0.00984 
333 ,67.5214 ,1.61911 ,-0.02980 ,-0.29236 
334 ,67.7134 ,1.62104 ,-0.04006 ,-0.39310 
335 ,67.9215 ,1.62308 ,-0.03322 ,-0.32594 
336 ,68.1137 ,1.62503 ,-0.05375 ,-0.52741 
337 ,68.3219 ,1.62714 ,-0.05033 ,-0.49383 
338 ,68.4973 ,1.62901 ,-0.08113 ,-0.79604 
339 ,68.8978 ,1.63293 ,-0.09482 ,-0.93035 
340 ,69.1061 ,1.63500 ,-0.09140 ,-0.89677 
341 ,69.3142 ,1.63708 ,-0.11193 ,-1.09824 
342 ,69.5063 ,1.63895 ,-0.10851 ,-1.06466 
343 ,69.6982 ,1.64087 ,-0.13588 ,-1.33329 
344 ,69.8905 ,1.64284 ,-0.14273 ,-1.40045 
345 ,70.0984 ,1.64485 ,-0.14957 ,-1.46760 
346 ,70.2903 ,1.64682 ,-0.14957 ,-1.46760 
347 ,70.4825 ,1.64876 ,-0.15984 ,-1.56834 
348 ,70.6908 ,1.65078 ,-0.18037 ,-1.76981 
349 ,70.8826 ,1.65272 ,-0.19064 ,-1.87054 
350 ,71.0904 ,1.65479 ,-0.19064 ,-1.87054 
351 ,71.2828 ,1.65675 ,-0.19748 ,-1.93770 
352 ,71.4908 ,1.65882 ,-0.21802 ,-2.13917 
353 ,71.6830 ,1.66070 ,-0.21802 ,-2.13917 
354 ,71.8752 ,1.66265 ,-0.24881 ,-2.44137 
355 ,72.0834 ,1.66466 ,-0.25224 ,-2.47495 
356 ,72.2914 ,1.66679 ,-0.24881 ,-2.44137 
357 ,72.4836 ,1.66874 ,-0.25908 ,-2.54211 
358 ,72.6912 ,1.67078 ,-0.27961 ,-2.74358 
359 ,72.8837 ,1.67271 ,-0.28646 ,-2.81073 
360 ,73.0915 ,1.67473 ,-0.30699 ,-3.01220 
361 ,73.3155 ,1.67693 ,-0.31384 ,-3.07936 
362 ,73.5079 ,1.67912 ,-0.30015 ,-2.94505 
363 ,73.7160 ,1.68103 ,-0.34121 ,-3.34799 
364 ,73.9082 ,1.68297 ,-0.32752 ,-3.21367 
365 ,74.1002 ,1.68488 ,-0.34464 ,-3.38156 
366 ,74.2923 ,1.68680 ,-0.33779 ,-3.31441 
367 ,74.4679 ,1.68867 ,-0.36175 ,-3.54946 
368 ,74.6925 ,1.69088 ,-0.36517 ,-3.58303 
369 ,74.9006 ,1.69288 ,-0.39939 ,-3.91882 
370 ,75.0924 ,1.69480 ,-0.37544 ,-3.68377 
371 ,75.2847 ,1.69674 ,-0.38912 ,-3.81808 
372 ,75.4768 ,1.69865 ,-0.42677 ,-4.18744 
373 ,75.6847 ,1.70076 ,-0.40966 ,-4.01955 
374 ,75.8929 ,1.70282 ,-0.43361 ,-4.25460 
375 ,76.1007 ,1.70479 ,-0.41992 ,-4.12029 
376 ,76.2926 ,1.70680 ,-0.44046 ,-4.32176 
377 ,76.4852 ,1.70874 ,-0.44046 ,-4.32176 
378 ,76.6768 ,1.71065 ,-0.46441 ,-4.55681 
379 ,76.8695 ,1.71258 ,-0.46441 ,-4.55681 
380 ,77.0773 ,1.71467 ,-0.48837 ,-4.79185 
381 ,77.2855 ,1.71671 ,-0.48494 ,-4.75828 
382 ,77.4936 ,1.71871 ,-0.49863 ,-4.89259 
383 ,77.7333 ,1.72121 ,-0.50206 ,-4.92617 
384 ,77.9417 ,1.72334 ,-0.53628 ,-5.26195 
385 ,78.1498 ,1.72537 ,-0.52601 ,-5.16121 
386 ,78.3418 ,1.72725 ,-0.54312 ,-5.32911 
387 ,78.5340 ,1.72924 ,-0.54654 ,-5.36268 
388 ,78.7261 ,1.73114 ,-0.54654 ,-5.36268 
389 ,78.9177 ,1.73303 ,-0.58419 ,-5.73205 
390 ,79.1104 ,1.73494 ,-0.55681 ,-5.46342 
391 ,79.3023 ,1.73691 ,-0.58761 ,-5.76562 
392 ,79.4945 ,1.73879 ,-0.58077 ,-5.69847 
393 ,79.6865 ,1.74074 ,-0.61156 ,-6.00067 
394 ,79.8785 ,1.74268 ,-0.61156 ,-6.00067 
395 ,80.0704 ,1.74452 ,-0.61156 ,-6.00067 
396 ,80.2627 ,1.74652 ,-0.62868 ,-6.16856 
397 ,80.4387 ,1.74838 ,-0.62525 ,-6.13499 
398 ,80.6306 ,1.75016 ,-0.64921 ,-6.37003 
399 ,80.8229 ,1.75210 ,-0.66632 ,-6.53793 
400 ,81.0309 ,1.75421 ,-0.65263 ,-6.40361 
401 ,81.2389 ,1.75625 ,-0.67659 ,-6.63866 
402 ,81.4472 ,1.75828 ,-0.68001 ,-6.67224 
403 ,81.6393 ,1.76028 ,-0.68685 ,-6.73940 
404 ,81.8474 ,1.76237 ,-0.71765 ,-7.04160 
405 ,82.0552 ,1.76444 ,-0.70739 ,-6.94086 
406 ,82.2473 ,1.76630 ,-0.71765 ,-7.04160 
407 ,82.4392 ,1.76823 ,-0.72450 ,-7.10876 
408 ,82.6317 ,1.77016 ,-0.72792 ,-7.14233 
409 ,82.8396 ,1.77230 ,-0.74503 ,-7.31023 
410 ,83.0475 ,1.77430 ,-0.75530 ,-7.41096 
411 ,83.2396 ,1.77627 ,-0.76214 ,-7.47812 
412 ,83.4640 ,1.77848 ,-0.78610 ,-7.71317 
413 ,83.6717 ,1.78052 ,-0.76898 ,-7.54527 
414 ,83.8643 ,1.78252 ,-0.78610 ,-7.71317 
415 ,84.0721 ,1.78453 ,-0.78267 ,-7.67959 
416 ,84.2645 ,1.78651 ,-0.81005 ,-7.94821 
417 ,84.4720 ,1.78860 ,-0.79978 ,-7.84748 
418 ,84.6647 ,1.79052 ,-0.83058 ,-8.14968 
419 ,84.8726 ,1.79258 ,-0.82374 ,-8.08253 
420 ,85.1286 ,1.79507 ,-0.83743 ,-8.21684 
421 ,85.3368 ,1.79722 ,-0.85454 ,-8.38473 
422 ,85.5444 ,1.79931 ,-0.85796 ,-8.41831 
423 ,85.7369 ,1.80122 ,-0.86823 ,-8.51904 
424 ,85.9609 ,1.80340 ,-0.87849 ,-8.61978 
425 ,86.1531 ,1.80542 ,-0.86138 ,-8.45189 
426 ,86.3612 ,1.80741 ,-0.89560 ,-8.78767 
427 ,86.5529 ,1.80938 ,-0.88876 ,-8.72051 
428 ,86.7613 ,1.81147 ,-0.92983 ,-9.12345 
429 ,86.9697 ,1.81356 ,-0.92298 ,-9.05630 
430 ,87.1935 ,1.81568 ,-0.92640 ,-9.08988 
431 ,87.4012 ,1.81782 ,-0.95036 ,-9.32492 
432 ,87.5936 ,1.81979 ,-0.93325 ,-9.15703 
433 ,87.8016 ,1.82183 ,-0.95036 ,-9.32492 
434 ,87.9939 ,1.82381 ,-0.94694 ,-9.29135 
435 ,88.1857 ,1.82573 ,-0.97774 ,-9.59355 
436 ,88.3940 ,1.82773 ,-0.96063 ,-9.42566 
437 ,88.5860 ,1.82967 ,-1.00169 ,-9.82860 
438 ,88.7778 ,1.83161 ,-1.00169 ,-9.82860 
439 ,88.9863 ,1.83368 ,-1.01538 ,-9.96291 
440 ,89.1940 ,1.83573 ,-1.01538 ,-9.96291 
441 ,89.3863 ,1.83772 ,-1.03934 ,-10.19796 
442 ,89.5781 ,1.83961 ,-1.02565 ,-10.06365 
443 ,89.7704 ,1.84149 ,-1.03934 ,-10.19796 
444 ,89.9622 ,1.84350 ,-1.06329 ,-10.43301 
445 ,90.1387 ,1.84531 ,-1.05302 ,-10.33227 
446 ,90.3309 ,1.84710 ,-1.06329 ,-10.43301 
447 ,90.5388 ,1.84922 ,-1.07698 ,-10.56732 
448 ,90.7307 ,1.85113 ,-1.08382 ,-10.63448 
449 ,90.9390 ,1.85321 ,-1.08725 ,-10.66806 
450 ,91.1631 ,1.85544 ,-1.10436 ,-10.83595 
451 ,91.3710 ,1.85748 ,-1.11805 ,-10.97026 
452 ,91.5634 ,1.85942 ,-1.11462 ,-10.93668 
453 ,91.7556 ,1.86137 ,-1.12147 ,-11.00384 
454 ,91.9476 ,1.86332 ,-1.12831 ,-11.07100 
455 ,92.1391 ,1.86522 ,-1.12831 ,-11.07100 
456 ,92.3315 ,1.86710 ,-1.15227 ,-11.30604 
457 ,92.5394 ,1.86923 ,-1.15569 ,-11.33962 
458 ,92.7640 ,1.87147 ,-1.17280 ,-11.50751 
459 ,92.9719 ,1.87353 ,-1.19333 ,-11.70898 
460 ,93.1638 ,1.87548 ,-1.18307 ,-11.60825 
461 ,93.3721 ,1.87757 ,-1.20702 ,-11.84330 
