Data stamp = , 03-05-2022 00:48:48 045

Calibration Values: 
Slope = , 26.54 , g/V 
Offset Voltage at no contact = , -0.501760 , V 

No , Time , Stage Position ,   Mass , Force 
   ,  (s) ,      (mm)      ,   (g)  , (mN)  

1 ,0.0000 ,0.94942 ,4.86390 ,47.72461 
2 ,0.2137 ,0.94948 ,4.85706 ,47.65745 
3 ,0.8223 ,0.95208 ,4.86732 ,47.75819 
4 ,1.0304 ,0.95441 ,4.86048 ,47.69103 
5 ,1.2385 ,0.95658 ,4.86048 ,47.69103 
6 ,1.4305 ,0.95843 ,4.85021 ,47.59030 
7 ,1.6549 ,0.96070 ,4.81257 ,47.22093 
8 ,1.8627 ,0.96279 ,4.79546 ,47.05304 
9 ,2.0551 ,0.96470 ,4.78861 ,46.98589 
10 ,2.2630 ,0.96686 ,4.74755 ,46.58295 
11 ,2.4712 ,0.96887 ,4.74070 ,46.51579 
12 ,2.6792 ,0.97095 ,4.71675 ,46.28074 
13 ,2.8873 ,0.97302 ,4.68253 ,45.94496 
14 ,3.0793 ,0.97496 ,4.67568 ,45.87780 
15 ,3.2709 ,0.97687 ,4.65515 ,45.67633 
16 ,3.4794 ,0.97891 ,4.62777 ,45.40771 
17 ,3.6712 ,0.98089 ,4.62435 ,45.37413 
18 ,3.8796 ,0.98293 ,4.59355 ,45.07192 
19 ,4.0877 ,0.98506 ,4.57302 ,44.87045 
20 ,4.2960 ,0.98713 ,4.57302 ,44.87045 
21 ,4.4877 ,0.98908 ,4.52169 ,44.36678 
22 ,4.6959 ,0.99105 ,4.52169 ,44.36678 
23 ,4.8880 ,0.99305 ,4.49431 ,44.09815 
24 ,5.0962 ,0.99510 ,4.48404 ,43.99742 
25 ,5.3202 ,0.99730 ,4.43955 ,43.56090 
26 ,5.5122 ,0.99927 ,4.43613 ,43.52732 
27 ,5.7044 ,1.00125 ,4.39164 ,43.09080 
28 ,5.9121 ,1.00331 ,4.38822 ,43.05723 
29 ,6.1046 ,1.00519 ,4.36084 ,42.78860 
30 ,6.2966 ,1.00717 ,4.36427 ,42.82218 
31 ,6.4883 ,1.00905 ,4.32662 ,42.45282 
32 ,6.6807 ,1.01095 ,4.30267 ,42.21777 
33 ,6.8888 ,1.01307 ,4.28213 ,42.01630 
34 ,7.0806 ,1.01497 ,4.26845 ,41.88198 
35 ,7.2889 ,1.01700 ,4.24449 ,41.64694 
36 ,7.4809 ,1.01893 ,4.22738 ,41.47905 
37 ,7.6730 ,1.02086 ,4.21711 ,41.37831 
38 ,7.8812 ,1.02301 ,4.18289 ,41.04253 
39 ,8.0889 ,1.02498 ,4.18631 ,41.07611 
40 ,8.2813 ,1.02698 ,4.14525 ,40.67317 
41 ,8.4894 ,1.02903 ,4.13156 ,40.53885 
42 ,8.6815 ,1.03096 ,4.10418 ,40.27023 
43 ,8.8895 ,1.03309 ,4.10076 ,40.23665 
44 ,9.0816 ,1.03498 ,4.05969 ,39.83371 
45 ,9.2896 ,1.03702 ,4.07680 ,40.00160 
46 ,9.4978 ,1.03912 ,4.04258 ,39.66582 
47 ,9.7061 ,1.04118 ,4.01863 ,39.43077 
48 ,9.8982 ,1.04313 ,4.01178 ,39.36361 
49 ,10.1062 ,1.04517 ,3.98098 ,39.06141 
50 ,10.2819 ,1.04706 ,3.96045 ,38.85994 
51 ,10.4743 ,1.04887 ,3.95018 ,38.75920 
52 ,10.6821 ,1.05090 ,3.92623 ,38.52415 
53 ,10.9066 ,1.05316 ,3.90227 ,38.28911 
54 ,11.0986 ,1.05515 ,3.88174 ,38.08764 
55 ,11.3067 ,1.05722 ,3.86463 ,37.91975 
56 ,11.5148 ,1.05924 ,3.83725 ,37.65112 
57 ,11.7067 ,1.06117 ,3.83041 ,37.58396 
58 ,11.8985 ,1.06316 ,3.81330 ,37.41607 
59 ,12.0906 ,1.06507 ,3.79961 ,37.28176 
60 ,12.2827 ,1.06695 ,3.76539 ,36.94597 
61 ,12.4906 ,1.06897 ,3.77565 ,37.04671 
62 ,12.6832 ,1.07101 ,3.73801 ,36.67735 
63 ,12.8752 ,1.07289 ,3.73459 ,36.64377 
64 ,13.0513 ,1.07480 ,3.70037 ,36.30799 
65 ,13.2596 ,1.07670 ,3.68668 ,36.17367 
66 ,13.4513 ,1.07866 ,3.68325 ,36.14010 
67 ,13.6596 ,1.08072 ,3.66272 ,35.93863 
68 ,13.8516 ,1.08269 ,3.63877 ,35.70358 
69 ,14.0438 ,1.08461 ,3.61139 ,35.43495 
70 ,14.2519 ,1.08668 ,3.61481 ,35.46853 
71 ,14.4599 ,1.08868 ,3.57717 ,35.09917 
72 ,14.6516 ,1.09065 ,3.57375 ,35.06559 
73 ,14.8601 ,1.09269 ,3.53952 ,34.72981 
74 ,15.0520 ,1.09465 ,3.55321 ,34.86412 
75 ,15.2442 ,1.09652 ,3.52584 ,34.59549 
76 ,15.4362 ,1.09850 ,3.50188 ,34.36045 
77 ,15.6285 ,1.10044 ,3.48819 ,34.22613 
78 ,15.8204 ,1.10232 ,3.45397 ,33.89035 
79 ,16.0127 ,1.10438 ,3.45055 ,33.85677 
80 ,16.2365 ,1.10647 ,3.43344 ,33.68888 
81 ,16.4608 ,1.10872 ,3.41290 ,33.48741 
82 ,16.6689 ,1.11077 ,3.41290 ,33.48741 
83 ,16.8765 ,1.11292 ,3.36842 ,33.05089 
84 ,17.0851 ,1.11488 ,3.37184 ,33.08447 
85 ,17.2771 ,1.11690 ,3.33419 ,32.71511 
86 ,17.4693 ,1.11882 ,3.33419 ,32.71511 
87 ,17.6773 ,1.12083 ,3.31024 ,32.48006 
88 ,17.8694 ,1.12281 ,3.31024 ,32.48006 
89 ,18.0615 ,1.12478 ,3.25548 ,31.94281 
90 ,18.2696 ,1.12682 ,3.26233 ,32.00996 
91 ,18.4778 ,1.12891 ,3.23153 ,31.70776 
92 ,18.6857 ,1.13098 ,3.21784 ,31.57345 
93 ,18.8779 ,1.13289 ,3.21100 ,31.50629 
94 ,19.0859 ,1.13498 ,3.18362 ,31.23766 
95 ,19.2778 ,1.13689 ,3.17335 ,31.13693 
96 ,19.4861 ,1.13902 ,3.15624 ,30.96904 
97 ,19.6942 ,1.14105 ,3.13913 ,30.80115 
98 ,19.9021 ,1.14315 ,3.11518 ,30.56610 
99 ,20.0941 ,1.14503 ,3.10491 ,30.46536 
100 ,20.3023 ,1.14717 ,3.08438 ,30.26389 
101 ,20.5107 ,1.14920 ,3.07753 ,30.19674 
102 ,20.7187 ,1.15132 ,3.04673 ,29.89453 
103 ,20.9266 ,1.15341 ,3.03989 ,29.82737 
104 ,21.1188 ,1.15532 ,3.02278 ,29.65948 
105 ,21.3268 ,1.15736 ,3.00567 ,29.49159 
106 ,21.5189 ,1.15925 ,2.98171 ,29.25654 
107 ,21.7269 ,1.16135 ,2.98855 ,29.32370 
108 ,21.9192 ,1.16332 ,2.93722 ,28.82003 
109 ,22.1115 ,1.16524 ,2.95091 ,28.95434 
110 ,22.3029 ,1.16712 ,2.91669 ,28.61856 
111 ,22.5274 ,1.16924 ,2.90642 ,28.51782 
112 ,22.7512 ,1.17160 ,2.88589 ,28.31635 
113 ,22.9435 ,1.17354 ,2.86193 ,28.08130 
114 ,23.1356 ,1.17545 ,2.85167 ,27.98057 
115 ,23.3277 ,1.17741 ,2.83798 ,27.84625 
116 ,23.5196 ,1.17929 ,2.81745 ,27.64479 
117 ,23.7117 ,1.18117 ,2.81402 ,27.61121 
118 ,23.9040 ,1.18316 ,2.79007 ,27.37616 
119 ,24.0960 ,1.18518 ,2.78322 ,27.30900 
120 ,24.2879 ,1.18699 ,2.77638 ,27.24185 
121 ,24.4802 ,1.18888 ,2.73189 ,26.80533 
122 ,24.6721 ,1.19084 ,2.72505 ,26.73817 
123 ,24.8802 ,1.19289 ,2.70452 ,26.53670 
124 ,25.0884 ,1.19489 ,2.71136 ,26.60386 
125 ,25.2966 ,1.19708 ,2.66345 ,26.13376 
126 ,25.5043 ,1.19913 ,2.64976 ,25.99945 
127 ,25.6965 ,1.20107 ,2.64292 ,25.93229 
128 ,25.8885 ,1.20298 ,2.63949 ,25.89871 
129 ,26.0806 ,1.20495 ,2.61212 ,25.63009 
130 ,26.2726 ,1.20683 ,2.61554 ,25.66367 
131 ,26.4650 ,1.20875 ,2.58132 ,25.32788 
132 ,26.6569 ,1.21063 ,2.56763 ,25.19357 
133 ,26.8652 ,1.21272 ,2.56763 ,25.19357 
134 ,27.0733 ,1.21483 ,2.52998 ,24.82421 
135 ,27.2653 ,1.21674 ,2.51630 ,24.68989 
136 ,27.4573 ,1.21879 ,2.49918 ,24.52200 
137 ,27.6491 ,1.22056 ,2.49234 ,24.45485 
138 ,27.8572 ,1.22261 ,2.46154 ,24.15264 
139 ,28.0817 ,1.22476 ,2.46496 ,24.18622 
140 ,28.2896 ,1.22696 ,2.44443 ,23.98475 
141 ,28.4818 ,1.22891 ,2.41363 ,23.68255 
142 ,28.6899 ,1.23099 ,2.42732 ,23.81686 
143 ,28.8816 ,1.23290 ,2.39310 ,23.48108 
144 ,29.0899 ,1.23487 ,2.37941 ,23.34676 
145 ,29.2982 ,1.23707 ,2.35203 ,23.07814 
146 ,29.5062 ,1.23913 ,2.35545 ,23.11171 
147 ,29.6984 ,1.24104 ,2.32808 ,22.84309 
148 ,29.9224 ,1.24319 ,2.31439 ,22.70877 
149 ,30.1145 ,1.24525 ,2.29728 ,22.54088 
150 ,30.2902 ,1.24711 ,2.28359 ,22.40657 
151 ,30.4986 ,1.24902 ,2.25621 ,22.13794 
152 ,30.6906 ,1.25099 ,2.26648 ,22.23868 
153 ,30.8828 ,1.25290 ,2.22541 ,21.83574 
154 ,31.0905 ,1.25504 ,2.22883 ,21.86932 
155 ,31.2988 ,1.25704 ,2.19461 ,21.53353 
156 ,31.5229 ,1.25921 ,2.19461 ,21.53353 
157 ,31.7150 ,1.26118 ,2.18435 ,21.43280 
158 ,31.9231 ,1.26325 ,2.14670 ,21.06344 
159 ,32.1155 ,1.26519 ,2.14328 ,21.02986 
160 ,32.3073 ,1.26724 ,2.11590 ,20.76123 
161 ,32.4996 ,1.26908 ,2.10906 ,20.69408 
162 ,32.7078 ,1.27112 ,2.10906 ,20.69408 
163 ,32.8996 ,1.27312 ,2.08168 ,20.42545 
164 ,33.0917 ,1.27498 ,2.07141 ,20.32472 
165 ,33.2836 ,1.27692 ,2.04746 ,20.08967 
166 ,33.4917 ,1.27905 ,2.04746 ,20.08967 
167 ,33.6839 ,1.28089 ,2.02350 ,19.85462 
168 ,33.8920 ,1.28297 ,2.00982 ,19.72031 
169 ,34.0838 ,1.28488 ,1.98586 ,19.48526 
170 ,34.2761 ,1.28685 ,1.99270 ,19.55241 
171 ,34.4678 ,1.28874 ,1.96875 ,19.31737 
172 ,34.6604 ,1.29065 ,1.94822 ,19.11590 
173 ,34.8525 ,1.29258 ,1.94137 ,19.04874 
174 ,35.0765 ,1.29469 ,1.91399 ,18.78011 
175 ,35.2846 ,1.29693 ,1.89346 ,18.57864 
176 ,35.4767 ,1.29886 ,1.89688 ,18.61222 
177 ,35.7009 ,1.30103 ,1.87293 ,18.37717 
178 ,35.8927 ,1.30308 ,1.86608 ,18.31002 
179 ,36.0849 ,1.30488 ,1.84213 ,18.07497 
180 ,36.2770 ,1.30682 ,1.83186 ,17.97423 
181 ,36.4847 ,1.30893 ,1.81133 ,17.77276 
182 ,36.6767 ,1.31079 ,1.79080 ,17.57129 
183 ,36.8692 ,1.31275 ,1.79080 ,17.57129 
184 ,37.0612 ,1.31466 ,1.76342 ,17.30267 
185 ,37.2532 ,1.31660 ,1.76684 ,17.33625 
186 ,37.4453 ,1.31849 ,1.74289 ,17.10120 
187 ,37.6535 ,1.32056 ,1.73604 ,17.03404 
188 ,37.8611 ,1.32257 ,1.70524 ,16.73184 
189 ,38.0852 ,1.32482 ,1.70866 ,16.76542 
190 ,38.2937 ,1.32697 ,1.68813 ,16.56395 
191 ,38.5179 ,1.32919 ,1.66418 ,16.32890 
192 ,38.7100 ,1.33126 ,1.64707 ,16.16101 
193 ,38.8861 ,1.33302 ,1.62995 ,15.99311 
194 ,39.0780 ,1.33484 ,1.60942 ,15.79164 
195 ,39.2703 ,1.33675 ,1.61284 ,15.82522 
196 ,39.4783 ,1.33882 ,1.60600 ,15.75807 
197 ,39.6704 ,1.34073 ,1.59573 ,15.65733 
198 ,39.8780 ,1.34282 ,1.57862 ,15.48944 
199 ,40.0866 ,1.34490 ,1.55809 ,15.28797 
200 ,40.2947 ,1.34701 ,1.55809 ,15.28797 
201 ,40.5025 ,1.34910 ,1.50676 ,14.78430 
202 ,40.7109 ,1.35113 ,1.53413 ,15.05292 
203 ,40.9030 ,1.35308 ,1.48965 ,14.61640 
204 ,41.1108 ,1.35518 ,1.48622 ,14.58283 
205 ,41.3030 ,1.35707 ,1.46569 ,14.38136 
206 ,41.4953 ,1.35897 ,1.45542 ,14.28062 
207 ,41.6872 ,1.36091 ,1.43831 ,14.11273 
208 ,41.8954 ,1.36298 ,1.42805 ,14.01199 
209 ,42.1030 ,1.36510 ,1.41436 ,13.87768 
210 ,42.2953 ,1.36700 ,1.40751 ,13.81053 
211 ,42.4872 ,1.36901 ,1.37329 ,13.47474 
212 ,42.6797 ,1.37079 ,1.35960 ,13.34043 
213 ,42.8714 ,1.37276 ,1.36303 ,13.37401 
214 ,43.0798 ,1.37477 ,1.33565 ,13.10538 
215 ,43.2717 ,1.37682 ,1.33565 ,13.10538 
216 ,43.4639 ,1.37863 ,1.30827 ,12.83675 
217 ,43.6559 ,1.38055 ,1.30485 ,12.80318 
218 ,43.8641 ,1.38264 ,1.28432 ,12.60171 
219 ,44.0881 ,1.38485 ,1.28432 ,12.60171 
220 ,44.2799 ,1.38678 ,1.26378 ,12.40024 
221 ,44.5045 ,1.38898 ,1.25352 ,12.29950 
222 ,44.7125 ,1.39114 ,1.24325 ,12.19877 
223 ,44.9207 ,1.39323 ,1.21587 ,11.93014 
224 ,45.1128 ,1.39517 ,1.20561 ,11.82941 
225 ,45.3205 ,1.39721 ,1.18507 ,11.62794 
226 ,45.5287 ,1.39930 ,1.18850 ,11.66151 
227 ,45.7370 ,1.40138 ,1.16112 ,11.39289 
228 ,45.9288 ,1.40331 ,1.16796 ,11.46004 
229 ,46.1211 ,1.40524 ,1.12690 ,11.05710 
230 ,46.2971 ,1.40714 ,1.13716 ,11.15784 
231 ,46.5208 ,1.40921 ,1.11663 ,10.95637 
232 ,46.7133 ,1.41116 ,1.10294 ,10.82206 
233 ,46.9055 ,1.41312 ,1.08925 ,10.68774 
234 ,47.0811 ,1.41495 ,1.08241 ,10.62059 
235 ,47.2735 ,1.41676 ,1.07556 ,10.55343 
236 ,47.4815 ,1.41881 ,1.05161 ,10.31838 
237 ,47.6897 ,1.42087 ,1.04476 ,10.25123 
238 ,47.8816 ,1.42285 ,1.00712 ,9.88186 
239 ,48.0576 ,1.42470 ,1.03792 ,10.18407 
240 ,48.2499 ,1.42652 ,1.00370 ,9.84829 
241 ,48.4420 ,1.42845 ,0.98317 ,9.64682 
242 ,48.6499 ,1.43052 ,0.98659 ,9.68039 
243 ,48.8582 ,1.43257 ,0.95579 ,9.37819 
244 ,49.0499 ,1.43463 ,0.95237 ,9.34461 
245 ,49.2742 ,1.43661 ,0.92841 ,9.10956 
246 ,49.4665 ,1.43868 ,0.92841 ,9.10956 
247 ,49.6745 ,1.44072 ,0.92499 ,9.07598 
248 ,49.8667 ,1.44265 ,0.89761 ,8.80736 
249 ,50.0748 ,1.44477 ,0.90446 ,8.87451 
250 ,50.2668 ,1.44667 ,0.87023 ,8.53873 
251 ,50.4588 ,1.44859 ,0.86339 ,8.47158 
252 ,50.6509 ,1.45047 ,0.86681 ,8.50515 
253 ,50.8586 ,1.45256 ,0.84628 ,8.30368 
254 ,51.0511 ,1.45450 ,0.82917 ,8.13579 
255 ,51.2592 ,1.45658 ,0.80863 ,7.93432 
256 ,51.4512 ,1.45850 ,0.81206 ,7.96790 
257 ,51.6912 ,1.46094 ,0.79495 ,7.80001 
258 ,51.8995 ,1.46293 ,0.77099 ,7.56496 
259 ,52.1076 ,1.46500 ,0.77099 ,7.56496 
260 ,52.3158 ,1.46712 ,0.75730 ,7.43065 
261 ,52.5237 ,1.46926 ,0.72650 ,7.12844 
262 ,52.7160 ,1.47114 ,0.72650 ,7.12844 
263 ,52.8918 ,1.47304 ,0.69228 ,6.79266 
264 ,53.0834 ,1.47480 ,0.69913 ,6.85982 
265 ,53.2760 ,1.47677 ,0.67859 ,6.65835 
266 ,53.4681 ,1.47869 ,0.67859 ,6.65835 
267 ,53.6759 ,1.48075 ,0.66148 ,6.49046 
268 ,53.8683 ,1.48266 ,0.65806 ,6.45688 
269 ,54.0600 ,1.48461 ,0.64095 ,6.28899 
270 ,54.3005 ,1.48687 ,0.63410 ,6.22183 
271 ,54.5079 ,1.48902 ,0.62042 ,6.08752 
272 ,54.7167 ,1.49121 ,0.61357 ,6.02036 
273 ,54.9247 ,1.49319 ,0.57935 ,5.68458 
274 ,55.1168 ,1.49515 ,0.57593 ,5.65100 
275 ,55.3247 ,1.49722 ,0.56908 ,5.58384 
276 ,55.5330 ,1.49929 ,0.56908 ,5.58384 
277 ,55.7250 ,1.50122 ,0.53486 ,5.24806 
278 ,55.9330 ,1.50328 ,0.54513 ,5.34879 
279 ,56.1252 ,1.50523 ,0.51433 ,5.04659 
280 ,56.3328 ,1.50727 ,0.52459 ,5.14732 
281 ,56.5254 ,1.50924 ,0.49380 ,4.84512 
282 ,56.7175 ,1.51121 ,0.48353 ,4.74438 
283 ,56.9256 ,1.51319 ,0.46642 ,4.57649 
284 ,57.1176 ,1.51519 ,0.46984 ,4.61007 
285 ,57.3257 ,1.51723 ,0.45957 ,4.50934 
286 ,57.5335 ,1.51928 ,0.43904 ,4.30787 
287 ,57.7256 ,1.52131 ,0.41166 ,4.03924 
288 ,57.9338 ,1.52332 ,0.40824 ,4.00566 
289 ,58.1261 ,1.52527 ,0.39113 ,3.83777 
290 ,58.3179 ,1.52717 ,0.39455 ,3.87135 
291 ,58.5257 ,1.52919 ,0.36033 ,3.53557 
292 ,58.7182 ,1.53113 ,0.37402 ,3.66988 
293 ,58.9263 ,1.53326 ,0.36033 ,3.53557 
294 ,59.1184 ,1.53517 ,0.34322 ,3.36767 
295 ,59.3106 ,1.53704 ,0.35349 ,3.46841 
296 ,59.5186 ,1.53912 ,0.31242 ,3.06547 
297 ,59.7106 ,1.54110 ,0.32269 ,3.16620 
298 ,59.9027 ,1.54303 ,0.29531 ,2.89758 
299 ,60.0948 ,1.54489 ,0.29531 ,2.89758 
300 ,60.2867 ,1.54682 ,0.29531 ,2.89758 
301 ,60.4789 ,1.54877 ,0.26793 ,2.62895 
302 ,60.7186 ,1.55110 ,0.24740 ,2.42748 
303 ,60.9113 ,1.55307 ,0.26793 ,2.62895 
304 ,61.1353 ,1.55526 ,0.23713 ,2.32675 
305 ,61.3273 ,1.55722 ,0.23371 ,2.29317 
306 ,61.5194 ,1.55918 ,0.20291 ,1.99096 
307 ,61.7271 ,1.56122 ,0.20976 ,2.05812 
308 ,61.9196 ,1.56317 ,0.18580 ,1.82307 
309 ,62.1276 ,1.56525 ,0.18580 ,1.82307 
310 ,62.3197 ,1.56718 ,0.14816 ,1.45371 
311 ,62.5114 ,1.56920 ,0.15842 ,1.55445 
312 ,62.7039 ,1.57098 ,0.14131 ,1.38655 
313 ,62.9118 ,1.57308 ,0.15158 ,1.48729 
314 ,63.1042 ,1.57501 ,0.13447 ,1.31940 
315 ,63.2961 ,1.57693 ,0.13105 ,1.28582 
316 ,63.5036 ,1.57898 ,0.10367 ,1.01719 
317 ,63.7443 ,1.58127 ,0.11736 ,1.15151 
318 ,63.9359 ,1.58347 ,0.10025 ,0.98361 
319 ,64.1606 ,1.58544 ,0.07971 ,0.78214 
320 ,64.3686 ,1.58763 ,0.07629 ,0.74857 
321 ,64.5607 ,1.58958 ,0.04549 ,0.44636 
322 ,64.7848 ,1.59168 ,0.04891 ,0.47994 
323 ,64.9768 ,1.59372 ,0.03180 ,0.31205 
324 ,65.1850 ,1.59576 ,0.03865 ,0.37920 
325 ,65.4090 ,1.59796 ,0.01469 ,0.14416 
326 ,65.6012 ,1.59993 ,-0.00242 ,-0.02373 
327 ,65.8093 ,1.60203 ,-0.00584 ,-0.05731 
328 ,66.0011 ,1.60403 ,-0.02980 ,-0.29236 
329 ,66.1931 ,1.60583 ,-0.02637 ,-0.25878 
330 ,66.3853 ,1.60777 ,-0.01269 ,-0.12447 
331 ,66.5775 ,1.60970 ,-0.05375 ,-0.52741 
332 ,66.7854 ,1.61178 ,-0.05375 ,-0.52741 
333 ,67.0256 ,1.61405 ,-0.06402 ,-0.62814 
334 ,67.2173 ,1.61621 ,-0.07428 ,-0.72888 
335 ,67.4100 ,1.61805 ,-0.08797 ,-0.86319 
336 ,67.6180 ,1.62013 ,-0.10851 ,-1.06466 
337 ,67.8260 ,1.62220 ,-0.11877 ,-1.16540 
338 ,68.0182 ,1.62410 ,-0.12562 ,-1.23255 
339 ,68.2420 ,1.62630 ,-0.13246 ,-1.29971 
340 ,68.4341 ,1.62834 ,-0.13246 ,-1.29971 
341 ,68.6423 ,1.63031 ,-0.14957 ,-1.46760 
342 ,68.8504 ,1.63243 ,-0.15299 ,-1.50118 
343 ,69.0584 ,1.63447 ,-0.17353 ,-1.70265 
344 ,69.2504 ,1.63638 ,-0.17353 ,-1.70265 
345 ,69.4262 ,1.63829 ,-0.19064 ,-1.87054 
346 ,69.6187 ,1.64011 ,-0.21117 ,-2.07201 
347 ,69.8268 ,1.64221 ,-0.21117 ,-2.07201 
348 ,70.0189 ,1.64414 ,-0.23855 ,-2.34064 
349 ,70.2429 ,1.64625 ,-0.21117 ,-2.07201 
350 ,70.4351 ,1.64829 ,-0.24539 ,-2.40779 
351 ,70.6588 ,1.65048 ,-0.25566 ,-2.50853 
352 ,70.8672 ,1.65258 ,-0.25566 ,-2.50853 
353 ,71.0753 ,1.65466 ,-0.26935 ,-2.64284 
354 ,71.2675 ,1.65663 ,-0.26593 ,-2.60926 
355 ,71.4914 ,1.65877 ,-0.29330 ,-2.87789 
356 ,71.6674 ,1.66071 ,-0.30357 ,-2.97863 
357 ,71.8592 ,1.66246 ,-0.32752 ,-3.21367 
358 ,72.0513 ,1.66438 ,-0.31041 ,-3.04578 
359 ,72.2434 ,1.66637 ,-0.33779 ,-3.31441 
360 ,72.4359 ,1.66830 ,-0.33437 ,-3.28083 
361 ,72.6756 ,1.67067 ,-0.34806 ,-3.41514 
362 ,72.8840 ,1.67269 ,-0.34806 ,-3.41514 
363 ,73.0920 ,1.67482 ,-0.36859 ,-3.61661 
364 ,73.2840 ,1.67677 ,-0.37544 ,-3.68377 
365 ,73.5081 ,1.67894 ,-0.38570 ,-3.78450 
366 ,73.7002 ,1.68091 ,-0.40623 ,-3.98597 
367 ,73.9245 ,1.68300 ,-0.39255 ,-3.85166 
368 ,74.1321 ,1.68518 ,-0.41650 ,-4.08671 
369 ,74.3247 ,1.68712 ,-0.41992 ,-4.12029 
370 ,74.5325 ,1.68923 ,-0.42335 ,-4.15387 
371 ,74.7248 ,1.69113 ,-0.45414 ,-4.45607 
372 ,74.9330 ,1.69323 ,-0.46783 ,-4.59038 
373 ,75.1411 ,1.69534 ,-0.47468 ,-4.65754 
374 ,75.3331 ,1.69722 ,-0.46783 ,-4.59038 
375 ,75.5570 ,1.69935 ,-0.48494 ,-4.75828 
376 ,75.7653 ,1.70143 ,-0.47810 ,-4.69112 
377 ,75.9568 ,1.70359 ,-0.50548 ,-4.95975 
378 ,76.1494 ,1.70540 ,-0.52601 ,-5.16121 
379 ,76.3573 ,1.70747 ,-0.52943 ,-5.19479 
380 ,76.5495 ,1.70938 ,-0.53628 ,-5.26195 
381 ,76.7416 ,1.71130 ,-0.56023 ,-5.49700 
382 ,76.9337 ,1.71321 ,-0.55339 ,-5.42984 
383 ,77.1416 ,1.71531 ,-0.56365 ,-5.53058 
384 ,77.3499 ,1.71735 ,-0.56365 ,-5.53058 
385 ,77.5578 ,1.71944 ,-0.58419 ,-5.73205 
386 ,77.7500 ,1.72137 ,-0.58761 ,-5.76562 
387 ,77.9421 ,1.72331 ,-0.60472 ,-5.93352 
388 ,78.1178 ,1.72521 ,-0.61499 ,-6.03425 
389 ,78.3263 ,1.72704 ,-0.60472 ,-5.93352 
390 ,78.5502 ,1.72929 ,-0.62183 ,-6.10141 
391 ,78.7425 ,1.73127 ,-0.63210 ,-6.20214 
392 ,78.9346 ,1.73322 ,-0.63894 ,-6.26930 
393 ,79.1584 ,1.73538 ,-0.65947 ,-6.47077 
394 ,79.3668 ,1.73752 ,-0.65947 ,-6.47077 
395 ,79.5749 ,1.73962 ,-0.66290 ,-6.50435 
396 ,79.7827 ,1.74168 ,-0.69027 ,-6.77297 
397 ,79.9910 ,1.74375 ,-0.69027 ,-6.77297 
398 ,80.1992 ,1.74588 ,-0.70739 ,-6.94086 
399 ,80.3912 ,1.74783 ,-0.70396 ,-6.90729 
400 ,80.5991 ,1.74987 ,-0.73476 ,-7.20949 
401 ,80.8074 ,1.75198 ,-0.71081 ,-6.97444 
402 ,81.0312 ,1.75410 ,-0.75530 ,-7.41096 
403 ,81.2233 ,1.75612 ,-0.75187 ,-7.37738 
404 ,81.4151 ,1.75813 ,-0.74845 ,-7.34380 
405 ,81.6078 ,1.75998 ,-0.74845 ,-7.34380 
406 ,81.8158 ,1.76207 ,-0.77241 ,-7.57885 
407 ,82.0079 ,1.76398 ,-0.78267 ,-7.67959 
408 ,82.2159 ,1.76600 ,-0.78267 ,-7.67959 
409 ,82.4237 ,1.76809 ,-0.80663 ,-7.91464 
410 ,82.6318 ,1.77016 ,-0.80321 ,-7.88106 
411 ,82.8399 ,1.77226 ,-0.81347 ,-7.98179 
412 ,83.0322 ,1.77418 ,-0.83058 ,-8.14968 
413 ,83.2243 ,1.77609 ,-0.83401 ,-8.18326 
414 ,83.4322 ,1.77816 ,-0.83743 ,-8.21684 
415 ,83.6245 ,1.78008 ,-0.84769 ,-8.31758 
416 ,83.8167 ,1.78205 ,-0.86823 ,-8.51904 
417 ,84.0086 ,1.78395 ,-0.86481 ,-8.48547 
418 ,84.2008 ,1.78587 ,-0.88192 ,-8.65336 
419 ,84.4087 ,1.78794 ,-0.86823 ,-8.51904 
420 ,84.6007 ,1.78986 ,-0.89903 ,-8.82125 
421 ,84.8250 ,1.79204 ,-0.88192 ,-8.65336 
422 ,85.0651 ,1.79435 ,-0.90245 ,-8.85483 
423 ,85.2732 ,1.79657 ,-0.91614 ,-8.98914 
424 ,85.4811 ,1.79871 ,-0.92640 ,-9.08988 
425 ,85.6892 ,1.80072 ,-0.92983 ,-9.12345 
426 ,85.8974 ,1.80273 ,-0.95378 ,-9.35850 
427 ,86.1213 ,1.80502 ,-0.96063 ,-9.42566 
428 ,86.3137 ,1.80696 ,-0.96405 ,-9.45924 
429 ,86.5214 ,1.80910 ,-0.98800 ,-9.69429 
430 ,86.7297 ,1.81116 ,-0.97431 ,-9.55997 
431 ,86.9215 ,1.81302 ,-1.00511 ,-9.86218 
432 ,87.1141 ,1.81501 ,-0.99143 ,-9.72786 
433 ,87.3380 ,1.81708 ,-1.01880 ,-9.99649 
434 ,87.5617 ,1.81941 ,-1.01196 ,-9.92933 
435 ,87.7541 ,1.82139 ,-1.02222 ,-10.03007 
436 ,87.9458 ,1.82329 ,-1.02907 ,-10.09723 
437 ,88.1542 ,1.82540 ,-1.05645 ,-10.36585 
438 ,88.3464 ,1.82729 ,-1.05645 ,-10.36585 
439 ,88.5385 ,1.82922 ,-1.06329 ,-10.43301 
440 ,88.7305 ,1.83113 ,-1.05645 ,-10.36585 
441 ,88.9226 ,1.83308 ,-1.08725 ,-10.66806 
442 ,89.1307 ,1.83512 ,-1.06671 ,-10.46659 
443 ,89.3388 ,1.83723 ,-1.10778 ,-10.86953 
444 ,89.5308 ,1.83914 ,-1.08725 ,-10.66806 
445 ,89.7389 ,1.84124 ,-1.10778 ,-10.86953 
446 ,89.9307 ,1.84311 ,-1.10093 ,-10.80237 
447 ,90.1228 ,1.84508 ,-1.13173 ,-11.10457 
448 ,90.3308 ,1.84710 ,-1.13173 ,-11.10457 
449 ,90.5392 ,1.84919 ,-1.15569 ,-11.33962 
450 ,90.7310 ,1.85115 ,-1.12831 ,-11.07100 
451 ,90.9233 ,1.85306 ,-1.16596 ,-11.44036 
452 ,91.1152 ,1.85500 ,-1.17280 ,-11.50751 
453 ,91.2911 ,1.85687 ,-1.16938 ,-11.47394 
454 ,91.4836 ,1.85863 ,-1.17280 ,-11.50751 
455 ,91.6757 ,1.86060 ,-1.18649 ,-11.64183 
456 ,91.8678 ,1.86254 ,-1.17964 ,-11.57467 
457 ,92.0758 ,1.86456 ,-1.20018 ,-11.77614 
458 ,92.2836 ,1.86663 ,-1.20360 ,-11.80972 
459 ,92.4920 ,1.86869 ,-1.23098 ,-12.07834 
460 ,92.7002 ,1.87080 ,-1.23782 ,-12.14550 
461 ,92.9242 ,1.87297 ,-1.21729 ,-11.94403 
