Data stamp = , 03-05-2022 07:31:47 293

Calibration Values: 
Slope = , 26.54 , g/V 
Offset Voltage at no contact = , -0.501760 , V 

No , Time , Stage Position ,   Mass , Force 
   ,  (s) ,      (mm)      ,   (g)  , (mN)  

1 ,0.0000 ,0.89943 ,5.28483 ,51.85474 
2 ,0.2147 ,0.89952 ,5.29852 ,51.98905 
3 ,0.8234 ,0.90198 ,5.29510 ,51.95548 
4 ,1.0474 ,0.90456 ,5.28483 ,51.85474 
5 ,1.2875 ,0.90691 ,5.29167 ,51.92190 
6 ,1.4797 ,0.90895 ,5.28141 ,51.82116 
7 ,1.6875 ,0.91103 ,5.24376 ,51.45180 
8 ,1.8799 ,0.91297 ,5.26087 ,51.61969 
9 ,2.0879 ,0.91504 ,5.21981 ,51.21675 
10 ,2.2795 ,0.91699 ,5.22323 ,51.25033 
11 ,2.4879 ,0.91903 ,5.17532 ,50.78023 
12 ,2.6958 ,0.92109 ,5.17190 ,50.74666 
13 ,2.8885 ,0.92303 ,5.13768 ,50.41087 
14 ,3.0961 ,0.92511 ,5.13768 ,50.41087 
15 ,3.3043 ,0.92717 ,5.10688 ,50.10867 
16 ,3.4964 ,0.92921 ,5.08977 ,49.94078 
17 ,3.6886 ,0.93113 ,5.05897 ,49.63857 
18 ,3.8808 ,0.93300 ,5.06239 ,49.67215 
19 ,4.0728 ,0.93491 ,5.01448 ,49.20205 
20 ,4.2810 ,0.93699 ,5.01790 ,49.23563 
21 ,4.4725 ,0.93888 ,4.96999 ,48.76554 
22 ,4.6809 ,0.94091 ,4.96315 ,48.69838 
23 ,4.8728 ,0.94286 ,4.93919 ,48.46333 
24 ,5.0650 ,0.94483 ,4.91181 ,48.19471 
25 ,5.2731 ,0.94693 ,4.89128 ,47.99324 
26 ,5.4492 ,0.94877 ,4.87759 ,47.85892 
27 ,5.6408 ,0.95066 ,4.88101 ,47.89250 
28 ,5.8334 ,0.95248 ,4.83652 ,47.45598 
29 ,6.0255 ,0.95441 ,4.83652 ,47.45598 
30 ,6.2176 ,0.95633 ,4.80915 ,47.18736 
31 ,6.4097 ,0.95826 ,4.77150 ,46.81800 
32 ,6.6018 ,0.96019 ,4.77150 ,46.81800 
33 ,6.8098 ,0.96223 ,4.72702 ,46.38148 
34 ,7.0018 ,0.96430 ,4.71675 ,46.28074 
35 ,7.1939 ,0.96602 ,4.69622 ,46.07927 
36 ,7.3700 ,0.96796 ,4.67911 ,45.91138 
37 ,7.5621 ,0.96974 ,4.66884 ,45.81065 
38 ,7.7538 ,0.97169 ,4.63804 ,45.50844 
39 ,7.9623 ,0.97372 ,4.61066 ,45.23981 
40 ,8.1863 ,0.97594 ,4.59355 ,45.07192 
41 ,8.3787 ,0.97796 ,4.58671 ,45.00477 
42 ,8.5864 ,0.97999 ,4.54564 ,44.60183 
43 ,8.7786 ,0.98198 ,4.54564 ,44.60183 
44 ,8.9869 ,0.98397 ,4.50800 ,44.23247 
45 ,9.1947 ,0.98605 ,4.49431 ,44.09815 
46 ,9.4189 ,0.98837 ,4.47720 ,43.93026 
47 ,9.6110 ,0.99022 ,4.45324 ,43.69521 
48 ,9.8350 ,0.99236 ,4.44640 ,43.62806 
49 ,10.0111 ,0.99434 ,4.41560 ,43.32585 
50 ,10.2033 ,0.99614 ,4.39164 ,43.09080 
51 ,10.3951 ,0.99811 ,4.38138 ,42.99007 
52 ,10.5876 ,1.00006 ,4.35742 ,42.75502 
53 ,10.7952 ,1.00201 ,4.35742 ,42.75502 
54 ,10.9877 ,1.00402 ,4.31636 ,42.35208 
55 ,11.1956 ,1.00612 ,4.32662 ,42.45282 
56 ,11.4034 ,1.00819 ,4.29582 ,42.15061 
57 ,11.6278 ,1.01028 ,4.26160 ,41.81483 
58 ,11.8038 ,1.01230 ,4.25818 ,41.78125 
59 ,11.9960 ,1.01409 ,4.24449 ,41.64694 
60 ,12.2200 ,1.01630 ,4.21369 ,41.34473 
61 ,12.4281 ,1.01839 ,4.17605 ,40.97537 
62 ,12.6198 ,1.02035 ,4.17947 ,41.00895 
63 ,12.8119 ,1.02223 ,4.15551 ,40.77390 
64 ,13.0040 ,1.02417 ,4.13156 ,40.53885 
65 ,13.2280 ,1.02632 ,4.11445 ,40.37096 
66 ,13.4365 ,1.02851 ,4.09391 ,40.16949 
67 ,13.6445 ,1.03061 ,4.06312 ,39.86729 
68 ,13.8368 ,1.03245 ,4.05969 ,39.83371 
69 ,14.0288 ,1.03444 ,4.01863 ,39.43077 
70 ,14.2369 ,1.03648 ,4.01520 ,39.39719 
71 ,14.4289 ,1.03841 ,3.98441 ,39.09499 
72 ,14.6210 ,1.04035 ,3.98098 ,39.06141 
73 ,14.8291 ,1.04240 ,3.95361 ,38.79278 
74 ,15.0211 ,1.04437 ,3.95361 ,38.79278 
75 ,15.2132 ,1.04639 ,3.91254 ,38.38984 
76 ,15.4052 ,1.04816 ,3.89885 ,38.25553 
77 ,15.6134 ,1.05021 ,3.89885 ,38.25553 
78 ,15.8213 ,1.05236 ,3.87832 ,38.05406 
79 ,16.0296 ,1.05445 ,3.82699 ,37.55038 
80 ,16.2215 ,1.05635 ,3.84067 ,37.68470 
81 ,16.4297 ,1.05848 ,3.80303 ,37.31534 
82 ,16.6217 ,1.06031 ,3.79619 ,37.24818 
83 ,16.8136 ,1.06225 ,3.77908 ,37.08029 
84 ,17.0060 ,1.06419 ,3.75854 ,36.87882 
85 ,17.2301 ,1.06638 ,3.75170 ,36.81166 
86 ,17.4221 ,1.06834 ,3.72432 ,36.54303 
87 ,17.6140 ,1.07024 ,3.70721 ,36.37514 
88 ,17.8223 ,1.07235 ,3.68325 ,36.14010 
89 ,18.0304 ,1.07444 ,3.66957 ,36.00578 
90 ,18.2225 ,1.07635 ,3.64561 ,35.77073 
91 ,18.4465 ,1.07856 ,3.60797 ,35.40137 
92 ,18.6387 ,1.08050 ,3.62508 ,35.56926 
93 ,18.8625 ,1.08269 ,3.59770 ,35.30064 
94 ,19.0708 ,1.08479 ,3.56348 ,34.96485 
95 ,19.2790 ,1.08687 ,3.55663 ,34.89770 
96 ,19.4870 ,1.08895 ,3.53268 ,34.66265 
97 ,19.6789 ,1.09095 ,3.54295 ,34.76338 
98 ,19.8867 ,1.09292 ,3.50530 ,34.39402 
99 ,20.0792 ,1.09490 ,3.49504 ,34.29329 
100 ,20.2874 ,1.09696 ,3.47450 ,34.09182 
101 ,20.4953 ,1.09904 ,3.45055 ,33.85677 
102 ,20.7033 ,1.10113 ,3.44028 ,33.75604 
103 ,20.9112 ,1.10319 ,3.42659 ,33.62172 
104 ,21.1198 ,1.10531 ,3.41633 ,33.52099 
105 ,21.3278 ,1.10736 ,3.38210 ,33.18520 
106 ,21.5359 ,1.10942 ,3.36842 ,33.05089 
107 ,21.7439 ,1.11153 ,3.34104 ,32.78227 
108 ,21.9521 ,1.11354 ,3.34104 ,32.78227 
109 ,22.1437 ,1.11548 ,3.30682 ,32.44648 
110 ,22.3682 ,1.11779 ,3.28628 ,32.24501 
111 ,22.5764 ,1.11993 ,3.28628 ,32.24501 
112 ,22.7842 ,1.12187 ,3.25548 ,31.94281 
113 ,22.9766 ,1.12389 ,3.24864 ,31.87565 
114 ,23.1841 ,1.12593 ,3.22126 ,31.60702 
115 ,23.3769 ,1.12789 ,3.22126 ,31.60702 
116 ,23.5846 ,1.12993 ,3.19388 ,31.33840 
117 ,23.7928 ,1.13192 ,3.17677 ,31.17051 
118 ,23.9850 ,1.13396 ,3.15624 ,30.96904 
119 ,24.1928 ,1.13603 ,3.12886 ,30.70041 
120 ,24.4011 ,1.13802 ,3.13229 ,30.73399 
121 ,24.6092 ,1.14017 ,3.10833 ,30.49894 
122 ,24.8173 ,1.14221 ,3.09806 ,30.39821 
123 ,25.0096 ,1.14418 ,3.06384 ,30.06242 
124 ,25.2013 ,1.14621 ,3.07411 ,30.16316 
125 ,25.3934 ,1.14799 ,3.03304 ,29.76022 
126 ,25.5856 ,1.14995 ,3.03304 ,29.76022 
127 ,25.7936 ,1.15194 ,3.01935 ,29.62590 
128 ,25.9857 ,1.15392 ,2.98513 ,29.29012 
129 ,26.1936 ,1.15603 ,2.97829 ,29.22297 
130 ,26.3856 ,1.15791 ,2.95091 ,28.95434 
131 ,26.5937 ,1.15997 ,2.95776 ,29.02150 
132 ,26.7860 ,1.16193 ,2.91327 ,28.58498 
133 ,27.0099 ,1.16415 ,2.89958 ,28.45066 
134 ,27.2181 ,1.16621 ,2.89958 ,28.45066 
135 ,27.4102 ,1.16816 ,2.87220 ,28.18204 
136 ,27.6018 ,1.17008 ,2.85851 ,28.04772 
137 ,27.7942 ,1.17201 ,2.84482 ,27.91341 
138 ,27.9862 ,1.17396 ,2.82771 ,27.74552 
139 ,28.1781 ,1.17593 ,2.82771 ,27.74552 
140 ,28.3703 ,1.17775 ,2.79007 ,27.37616 
141 ,28.5624 ,1.17969 ,2.78322 ,27.30900 
142 ,28.7704 ,1.18176 ,2.76611 ,27.14111 
143 ,28.9625 ,1.18372 ,2.75585 ,27.04038 
144 ,29.1546 ,1.18562 ,2.73189 ,26.80533 
145 ,29.3467 ,1.18757 ,2.71478 ,26.63744 
146 ,29.5388 ,1.18948 ,2.71820 ,26.67101 
147 ,29.7308 ,1.19139 ,2.68056 ,26.30165 
148 ,29.9068 ,1.19326 ,2.67714 ,26.26807 
149 ,30.0830 ,1.19502 ,2.66345 ,26.13376 
150 ,30.2751 ,1.19684 ,2.66345 ,26.13376 
151 ,30.4672 ,1.19877 ,2.62238 ,25.73082 
152 ,30.6592 ,1.20071 ,2.62238 ,25.73082 
153 ,30.8512 ,1.20259 ,2.58816 ,25.39504 
154 ,31.0434 ,1.20455 ,2.58474 ,25.36146 
155 ,31.2354 ,1.20648 ,2.56763 ,25.19357 
156 ,31.4275 ,1.20839 ,2.54367 ,24.95852 
157 ,31.6357 ,1.21035 ,2.54367 ,24.95852 
158 ,31.8117 ,1.21232 ,2.51287 ,24.65632 
159 ,32.0198 ,1.21428 ,2.50261 ,24.55558 
160 ,32.2120 ,1.21620 ,2.48892 ,24.42127 
161 ,32.4041 ,1.21821 ,2.48207 ,24.35411 
162 ,32.6125 ,1.22018 ,2.45470 ,24.08549 
163 ,32.8367 ,1.22238 ,2.45470 ,24.08549 
164 ,33.0286 ,1.22433 ,2.41363 ,23.68255 
165 ,33.2367 ,1.22640 ,2.41705 ,23.71612 
166 ,33.4448 ,1.22850 ,2.40336 ,23.58181 
167 ,33.6368 ,1.23044 ,2.39310 ,23.48108 
168 ,33.8290 ,1.23235 ,2.35545 ,23.11171 
169 ,34.0526 ,1.23451 ,2.34519 ,23.01098 
170 ,34.2771 ,1.23675 ,2.34177 ,22.97740 
171 ,34.4851 ,1.23889 ,2.31781 ,22.74235 
172 ,34.6773 ,1.24083 ,2.31097 ,22.67520 
173 ,34.8852 ,1.24290 ,2.28359 ,22.40657 
174 ,35.0933 ,1.24491 ,2.27674 ,22.33941 
175 ,35.2851 ,1.24687 ,2.24937 ,22.07079 
176 ,35.4932 ,1.24894 ,2.25621 ,22.13794 
177 ,35.6858 ,1.25087 ,2.22883 ,21.86932 
178 ,35.8933 ,1.25299 ,2.21172 ,21.70143 
179 ,36.0859 ,1.25487 ,2.18777 ,21.46638 
180 ,36.2934 ,1.25695 ,2.16723 ,21.26491 
181 ,36.4861 ,1.25889 ,2.16039 ,21.19775 
182 ,36.6779 ,1.26082 ,2.15012 ,21.09702 
183 ,36.8860 ,1.26291 ,2.11590 ,20.76123 
184 ,37.0942 ,1.26495 ,2.10906 ,20.69408 
185 ,37.3023 ,1.26704 ,2.09879 ,20.59334 
186 ,37.5265 ,1.26928 ,2.06799 ,20.29114 
187 ,37.7184 ,1.27134 ,2.06799 ,20.29114 
188 ,37.9106 ,1.27315 ,2.04404 ,20.05609 
189 ,38.1185 ,1.27519 ,2.04061 ,20.02251 
190 ,38.3266 ,1.27734 ,2.02350 ,19.85462 
191 ,38.5025 ,1.27915 ,2.02350 ,19.85462 
192 ,38.6946 ,1.28094 ,2.00639 ,19.68673 
193 ,38.9028 ,1.28306 ,1.98928 ,19.51884 
194 ,39.1111 ,1.28510 ,1.97559 ,19.38452 
195 ,39.3350 ,1.28733 ,1.95506 ,19.18305 
196 ,39.5428 ,1.28946 ,1.93453 ,18.98158 
197 ,39.7508 ,1.29151 ,1.91057 ,18.74654 
198 ,39.9429 ,1.29342 ,1.90031 ,18.64580 
199 ,40.1351 ,1.29542 ,1.91057 ,18.74654 
200 ,40.3596 ,1.29759 ,1.87293 ,18.37717 
201 ,40.5677 ,1.29972 ,1.84897 ,18.14213 
202 ,40.7594 ,1.30160 ,1.86266 ,18.27644 
203 ,40.9518 ,1.30355 ,1.81817 ,17.83992 
204 ,41.1598 ,1.30555 ,1.82160 ,17.87350 
205 ,41.3519 ,1.30753 ,1.79422 ,17.60487 
206 ,41.5440 ,1.30944 ,1.77711 ,17.43698 
207 ,41.7357 ,1.31142 ,1.77711 ,17.43698 
208 ,41.9440 ,1.31345 ,1.75315 ,17.20193 
209 ,42.1521 ,1.31550 ,1.75315 ,17.20193 
210 ,42.3442 ,1.31750 ,1.73604 ,17.03404 
211 ,42.5365 ,1.31935 ,1.72235 ,16.89973 
212 ,42.7282 ,1.32132 ,1.69498 ,16.63110 
213 ,42.9205 ,1.32326 ,1.69155 ,16.59752 
214 ,43.1126 ,1.32512 ,1.67444 ,16.42963 
215 ,43.3207 ,1.32718 ,1.65049 ,16.19458 
216 ,43.5288 ,1.32931 ,1.62653 ,15.95954 
217 ,43.7368 ,1.33133 ,1.63338 ,16.02669 
218 ,43.9764 ,1.33372 ,1.61284 ,15.82522 
219 ,44.1691 ,1.33573 ,1.58204 ,15.52302 
220 ,44.3611 ,1.33764 ,1.59916 ,15.69091 
221 ,44.5693 ,1.33965 ,1.56493 ,15.35513 
222 ,44.7770 ,1.34183 ,1.56493 ,15.35513 
223 ,44.9533 ,1.34369 ,1.53071 ,15.01934 
224 ,45.1776 ,1.34564 ,1.52045 ,14.91861 
225 ,45.3854 ,1.34787 ,1.51702 ,14.88503 
226 ,45.5776 ,1.34977 ,1.50676 ,14.78430 
227 ,45.7695 ,1.35169 ,1.47938 ,14.51567 
228 ,45.9617 ,1.35363 ,1.47938 ,14.51567 
229 ,46.1697 ,1.35564 ,1.45200 ,14.24704 
230 ,46.3618 ,1.35761 ,1.44858 ,14.21346 
231 ,46.5699 ,1.35974 ,1.41094 ,13.84410 
232 ,46.7621 ,1.36162 ,1.41436 ,13.87768 
233 ,46.9539 ,1.36357 ,1.40067 ,13.74337 
234 ,47.1462 ,1.36545 ,1.38698 ,13.60906 
235 ,47.3542 ,1.36755 ,1.38698 ,13.60906 
236 ,47.5624 ,1.36967 ,1.35960 ,13.34043 
237 ,47.7704 ,1.37168 ,1.32196 ,12.97107 
238 ,47.9623 ,1.37360 ,1.33565 ,13.10538 
239 ,48.1545 ,1.37555 ,1.31854 ,12.93749 
240 ,48.3465 ,1.37743 ,1.30143 ,12.76960 
241 ,48.5388 ,1.37936 ,1.30485 ,12.80318 
242 ,48.7470 ,1.38144 ,1.25694 ,12.33308 
243 ,48.9709 ,1.38359 ,1.26036 ,12.36666 
244 ,49.1628 ,1.38564 ,1.25009 ,12.26592 
245 ,49.3707 ,1.38762 ,1.23298 ,12.09803 
246 ,49.5792 ,1.38979 ,1.21929 ,11.96372 
247 ,49.7871 ,1.39186 ,1.20218 ,11.79583 
248 ,49.9952 ,1.39389 ,1.20218 ,11.79583 
249 ,50.1710 ,1.39580 ,1.16796 ,11.46004 
250 ,50.3633 ,1.39759 ,1.16112 ,11.39289 
251 ,50.5715 ,1.39969 ,1.14058 ,11.19142 
252 ,50.7796 ,1.40173 ,1.14058 ,11.19142 
253 ,50.9877 ,1.40380 ,1.10979 ,10.88921 
254 ,51.1957 ,1.40591 ,1.11663 ,10.95637 
255 ,51.3880 ,1.40784 ,1.09610 ,10.75490 
256 ,51.5956 ,1.40992 ,1.08583 ,10.65416 
257 ,51.8037 ,1.41193 ,1.06872 ,10.48627 
258 ,51.9959 ,1.41393 ,1.06530 ,10.45270 
259 ,52.2041 ,1.41599 ,1.05161 ,10.31838 
260 ,52.3963 ,1.41790 ,1.05503 ,10.35196 
261 ,52.5885 ,1.41985 ,1.02423 ,10.04976 
262 ,52.7964 ,1.42193 ,1.02081 ,10.01618 
263 ,53.0040 ,1.42396 ,0.99343 ,9.74755 
264 ,53.1966 ,1.42591 ,0.99685 ,9.78113 
265 ,53.3887 ,1.42795 ,0.96605 ,9.47892 
266 ,53.5967 ,1.42989 ,0.96605 ,9.47892 
267 ,53.7885 ,1.43186 ,0.93868 ,9.21030 
268 ,53.9969 ,1.43389 ,0.93868 ,9.21030 
269 ,54.1730 ,1.43581 ,0.91472 ,8.97525 
270 ,54.3651 ,1.43765 ,0.90446 ,8.87451 
271 ,54.5572 ,1.43956 ,0.91472 ,8.97525 
272 ,54.7649 ,1.44157 ,0.87708 ,8.60589 
273 ,54.9573 ,1.44353 ,0.87708 ,8.60589 
274 ,55.1494 ,1.44544 ,0.84970 ,8.33726 
275 ,55.3896 ,1.44776 ,0.83943 ,8.23653 
276 ,55.6136 ,1.45005 ,0.83943 ,8.23653 
277 ,55.8217 ,1.45219 ,0.80179 ,7.86717 
278 ,56.0296 ,1.45422 ,0.81890 ,8.03506 
279 ,56.2214 ,1.45614 ,0.79152 ,7.76643 
280 ,56.4293 ,1.45823 ,0.77441 ,7.59854 
281 ,56.6376 ,1.46030 ,0.77441 ,7.59854 
282 ,56.8782 ,1.46266 ,0.75388 ,7.39707 
283 ,57.1019 ,1.46506 ,0.73677 ,7.22918 
284 ,57.2942 ,1.46693 ,0.73677 ,7.22918 
285 ,57.5020 ,1.46897 ,0.71966 ,7.06129 
286 ,57.6944 ,1.47094 ,0.70255 ,6.89340 
287 ,57.8864 ,1.47280 ,0.68544 ,6.72550 
288 ,58.0787 ,1.47474 ,0.67859 ,6.65835 
289 ,58.3025 ,1.47694 ,0.65806 ,6.45688 
290 ,58.5109 ,1.47905 ,0.64437 ,6.32256 
291 ,58.7026 ,1.48099 ,0.65121 ,6.38972 
292 ,58.8949 ,1.48295 ,0.64095 ,6.28899 
293 ,59.0867 ,1.48484 ,0.60330 ,5.91962 
294 ,59.2627 ,1.48666 ,0.60673 ,5.95320 
295 ,59.4552 ,1.48849 ,0.60673 ,5.95320 
296 ,59.6473 ,1.49038 ,0.57593 ,5.65100 
297 ,59.8553 ,1.49245 ,0.57935 ,5.68458 
298 ,60.0635 ,1.49456 ,0.55882 ,5.48311 
299 ,60.2874 ,1.49666 ,0.55539 ,5.44953 
300 ,60.4954 ,1.49888 ,0.54513 ,5.34879 
301 ,60.7036 ,1.50098 ,0.52117 ,5.11375 
302 ,60.9277 ,1.50319 ,0.51091 ,5.01301 
303 ,61.1199 ,1.50510 ,0.49380 ,4.84512 
304 ,61.3279 ,1.50727 ,0.48011 ,4.71081 
305 ,61.5360 ,1.50933 ,0.47668 ,4.67723 
306 ,61.7439 ,1.51140 ,0.45615 ,4.47576 
307 ,61.9523 ,1.51339 ,0.45273 ,4.44218 
308 ,62.1603 ,1.51552 ,0.44246 ,4.34144 
309 ,62.3525 ,1.51748 ,0.42535 ,4.17355 
310 ,62.5602 ,1.51953 ,0.42193 ,4.13997 
311 ,62.7686 ,1.52163 ,0.41166 ,4.03924 
312 ,62.9606 ,1.52355 ,0.38771 ,3.80419 
313 ,63.1686 ,1.52564 ,0.37744 ,3.70346 
314 ,63.3608 ,1.52755 ,0.36718 ,3.60272 
315 ,63.5528 ,1.52947 ,0.36033 ,3.53557 
316 ,63.7608 ,1.53151 ,0.33638 ,3.30052 
317 ,63.9530 ,1.53357 ,0.32953 ,3.23336 
318 ,64.1450 ,1.53536 ,0.31242 ,3.06547 
319 ,64.3692 ,1.53753 ,0.31242 ,3.06547 
320 ,64.5773 ,1.53975 ,0.31926 ,3.13263 
321 ,64.7854 ,1.54179 ,0.27820 ,2.72969 
322 ,64.9775 ,1.54374 ,0.28162 ,2.76326 
323 ,65.1854 ,1.54571 ,0.26109 ,2.56179 
324 ,65.3775 ,1.54773 ,0.27478 ,2.69611 
325 ,65.5697 ,1.54963 ,0.25082 ,2.46106 
326 ,65.7615 ,1.55154 ,0.24055 ,2.36032 
327 ,65.9698 ,1.55358 ,0.24055 ,2.36032 
328 ,66.1780 ,1.55571 ,0.22344 ,2.19243 
329 ,66.3698 ,1.55765 ,0.19949 ,1.95738 
330 ,66.5782 ,1.55966 ,0.19607 ,1.92381 
331 ,66.7700 ,1.56165 ,0.18922 ,1.85665 
332 ,66.9781 ,1.56372 ,0.17896 ,1.75592 
333 ,67.1705 ,1.56563 ,0.16869 ,1.65518 
334 ,67.3784 ,1.56772 ,0.15842 ,1.55445 
335 ,67.5706 ,1.56963 ,0.13105 ,1.28582 
336 ,67.7786 ,1.57164 ,0.13105 ,1.28582 
337 ,67.9703 ,1.57362 ,0.12078 ,1.18508 
338 ,68.1788 ,1.57566 ,0.11393 ,1.11793 
339 ,68.3867 ,1.57779 ,0.09340 ,0.91646 
340 ,68.5790 ,1.57973 ,0.09682 ,0.95004 
341 ,68.7871 ,1.58177 ,0.06945 ,0.68141 
342 ,68.9791 ,1.58375 ,0.06945 ,0.68141 
343 ,69.2029 ,1.58585 ,0.05234 ,0.51352 
344 ,69.4113 ,1.58802 ,0.05918 ,0.58067 
345 ,69.6193 ,1.59006 ,0.03865 ,0.37920 
346 ,69.8114 ,1.59206 ,0.02838 ,0.27847 
347 ,70.0035 ,1.59406 ,0.01127 ,0.11058 
348 ,70.1791 ,1.59579 ,0.01127 ,0.11058 
349 ,70.3717 ,1.59763 ,-0.00242 ,-0.02373 
350 ,70.5796 ,1.59973 ,-0.00926 ,-0.09089 
351 ,70.7719 ,1.60164 ,-0.02295 ,-0.22520 
352 ,70.9639 ,1.60357 ,-0.05033 ,-0.49383 
353 ,71.1721 ,1.60560 ,-0.04006 ,-0.39310 
354 ,71.3637 ,1.60760 ,-0.06744 ,-0.66172 
355 ,71.5401 ,1.60943 ,-0.05717 ,-0.56099 
356 ,71.7322 ,1.61123 ,-0.06744 ,-0.66172 
357 ,71.9243 ,1.61312 ,-0.08797 ,-0.86319 
358 ,72.1164 ,1.61507 ,-0.08113 ,-0.79604 
359 ,72.3401 ,1.61730 ,-0.10851 ,-1.06466 
360 ,72.5482 ,1.61936 ,-0.11877 ,-1.16540 
361 ,72.7403 ,1.62128 ,-0.13931 ,-1.36687 
362 ,72.9323 ,1.62324 ,-0.12562 ,-1.23255 
363 ,73.1248 ,1.62513 ,-0.15642 ,-1.53476 
364 ,73.3489 ,1.62717 ,-0.14273 ,-1.40045 
365 ,73.5569 ,1.62946 ,-0.16668 ,-1.63549 
366 ,73.7650 ,1.63149 ,-0.17695 ,-1.73623 
367 ,73.9572 ,1.63351 ,-0.18037 ,-1.76981 
368 ,74.1650 ,1.63554 ,-0.20433 ,-2.00485 
369 ,74.3734 ,1.63756 ,-0.19406 ,-1.90412 
370 ,74.5810 ,1.63963 ,-0.22486 ,-2.20632 
371 ,74.7734 ,1.64162 ,-0.21459 ,-2.10559 
372 ,74.9657 ,1.64355 ,-0.24539 ,-2.40779 
373 ,75.1737 ,1.64565 ,-0.23513 ,-2.30706 
374 ,75.3659 ,1.64761 ,-0.26593 ,-2.60926 
375 ,75.5738 ,1.64965 ,-0.24881 ,-2.44137 
376 ,75.7820 ,1.65164 ,-0.28646 ,-2.81073 
377 ,76.0059 ,1.65387 ,-0.27961 ,-2.74358 
378 ,76.1983 ,1.65589 ,-0.28988 ,-2.84431 
379 ,76.4061 ,1.65791 ,-0.30015 ,-2.94505 
380 ,76.6143 ,1.66000 ,-0.30015 ,-2.94505 
381 ,76.8062 ,1.66191 ,-0.32752 ,-3.21367 
382 ,77.0144 ,1.66405 ,-0.31384 ,-3.07936 
383 ,77.2067 ,1.66602 ,-0.35490 ,-3.48230 
384 ,77.3987 ,1.66785 ,-0.35148 ,-3.44872 
385 ,77.6065 ,1.66992 ,-0.36859 ,-3.61661 
386 ,77.7984 ,1.67186 ,-0.36517 ,-3.58303 
387 ,77.9909 ,1.67383 ,-0.37201 ,-3.65019 
388 ,78.1827 ,1.67571 ,-0.39255 ,-3.85166 
389 ,78.3748 ,1.67762 ,-0.39939 ,-3.91882 
390 ,78.5671 ,1.67957 ,-0.41650 ,-4.08671 
391 ,78.7752 ,1.68161 ,-0.42677 ,-4.18744 
392 ,78.9833 ,1.68372 ,-0.44046 ,-4.32176 
393 ,79.1753 ,1.68558 ,-0.43361 ,-4.25460 
394 ,79.3833 ,1.68770 ,-0.45757 ,-4.48965 
395 ,79.6076 ,1.68990 ,-0.45757 ,-4.48965 
396 ,79.8156 ,1.69193 ,-0.47126 ,-4.62396 
397 ,80.0235 ,1.69406 ,-0.48837 ,-4.79185 
398 ,80.2158 ,1.69600 ,-0.47810 ,-4.69112 
399 ,80.4238 ,1.69811 ,-0.49521 ,-4.85901 
400 ,80.6319 ,1.70014 ,-0.50206 ,-4.92617 
401 ,80.8242 ,1.70209 ,-0.51917 ,-5.09406 
402 ,81.0477 ,1.70420 ,-0.52259 ,-5.12764 
403 ,81.2563 ,1.70643 ,-0.53628 ,-5.26195 
404 ,81.4643 ,1.70850 ,-0.56365 ,-5.53058 
405 ,81.6721 ,1.71060 ,-0.55339 ,-5.42984 
406 ,81.8643 ,1.71247 ,-0.58077 ,-5.69847 
407 ,82.0565 ,1.71441 ,-0.57050 ,-5.59773 
408 ,82.2482 ,1.71640 ,-0.60130 ,-5.89994 
409 ,82.4727 ,1.71856 ,-0.57734 ,-5.66489 
410 ,82.6806 ,1.72072 ,-0.60130 ,-5.89994 
411 ,82.8890 ,1.72264 ,-0.59788 ,-5.86636 
412 ,83.0807 ,1.72470 ,-0.63552 ,-6.23572 
413 ,83.2726 ,1.72656 ,-0.61841 ,-6.06783 
414 ,83.4812 ,1.72863 ,-0.63894 ,-6.26930 
415 ,83.6888 ,1.73073 ,-0.64236 ,-6.30288 
416 ,83.8812 ,1.73268 ,-0.66290 ,-6.50435 
417 ,84.0734 ,1.73464 ,-0.65605 ,-6.43719 
418 ,84.2815 ,1.73671 ,-0.68685 ,-6.73940 
419 ,84.4894 ,1.73867 ,-0.66632 ,-6.53793 
420 ,84.6973 ,1.74085 ,-0.69370 ,-6.80655 
421 ,84.9056 ,1.74286 ,-0.69370 ,-6.80655 
422 ,85.1137 ,1.74494 ,-0.71765 ,-7.04160 
423 ,85.3220 ,1.74700 ,-0.73476 ,-7.20949 
424 ,85.5299 ,1.74910 ,-0.72450 ,-7.10876 
425 ,85.7221 ,1.75103 ,-0.74845 ,-7.34380 
426 ,85.9302 ,1.75315 ,-0.74161 ,-7.27665 
427 ,86.1383 ,1.75516 ,-0.76556 ,-7.51170 
428 ,86.3302 ,1.75714 ,-0.76214 ,-7.47812 
429 ,86.5061 ,1.75904 ,-0.79636 ,-7.81390 
430 ,86.6983 ,1.76090 ,-0.77925 ,-7.64601 
431 ,86.9065 ,1.76288 ,-0.78610 ,-7.71317 
432 ,87.0985 ,1.76481 ,-0.80321 ,-7.88106 
433 ,87.3066 ,1.76686 ,-0.78610 ,-7.71317 
434 ,87.4988 ,1.76879 ,-0.82716 ,-8.11611 
435 ,87.7068 ,1.77089 ,-0.84769 ,-8.31758 
436 ,87.8990 ,1.77278 ,-0.84427 ,-8.28400 
437 ,88.1071 ,1.77494 ,-0.85796 ,-8.41831 
438 ,88.2989 ,1.77682 ,-0.86138 ,-8.45189 
439 ,88.4911 ,1.77873 ,-0.85454 ,-8.38473 
440 ,88.6831 ,1.78065 ,-0.87507 ,-8.58620 
441 ,88.9075 ,1.78287 ,-0.87165 ,-8.55262 
442 ,89.1155 ,1.78503 ,-0.88192 ,-8.65336 
443 ,89.3075 ,1.78691 ,-0.89218 ,-8.75409 
444 ,89.4993 ,1.78880 ,-0.91614 ,-8.98914 
445 ,89.7077 ,1.79088 ,-0.92640 ,-9.08988 
446 ,89.8997 ,1.79288 ,-0.93325 ,-9.15703 
447 ,90.0918 ,1.79475 ,-0.92298 ,-9.05630 
448 ,90.2837 ,1.79669 ,-0.94694 ,-9.29135 
449 ,90.4920 ,1.79876 ,-0.94694 ,-9.29135 
450 ,90.6680 ,1.80062 ,-0.96405 ,-9.45924 
451 ,90.8757 ,1.80254 ,-0.97089 ,-9.52639 
452 ,91.0841 ,1.80461 ,-0.98458 ,-9.66071 
453 ,91.2918 ,1.80671 ,-0.97431 ,-9.55997 
454 ,91.5164 ,1.80893 ,-0.99827 ,-9.79502 
455 ,91.7243 ,1.81103 ,-1.01880 ,-9.99649 
456 ,91.9326 ,1.81313 ,-1.00169 ,-9.82860 
457 ,92.1567 ,1.81523 ,-1.01538 ,-9.96291 
458 ,92.3647 ,1.81747 ,-1.03591 ,-10.16438 
459 ,92.5568 ,1.81937 ,-1.03249 ,-10.13080 
460 ,92.7488 ,1.82132 ,-1.04618 ,-10.26512 
461 ,92.9409 ,1.82324 ,-1.05302 ,-10.33227 
462 ,93.1487 ,1.82528 ,-1.05645 ,-10.36585 
