Data stamp = , 02-05-2022 23:11:57 397

Calibration Values: 
Slope = , 26.54 , g/V 
Offset Voltage at no contact = , -0.501760 , V 

No , Time , Stage Position ,   Mass , Force 
   ,  (s) ,      (mm)      ,   (g)  , (mN)  

1 ,0.0000 ,0.94945 ,4.86732 ,47.75819 
2 ,0.2310 ,0.94952 ,4.85706 ,47.65745 
3 ,0.7755 ,0.95184 ,4.88101 ,47.89250 
4 ,1.0315 ,0.95444 ,4.86732 ,47.75819 
5 ,1.2398 ,0.95642 ,4.88444 ,47.92608 
6 ,1.4475 ,0.95861 ,4.86048 ,47.69103 
7 ,1.6559 ,0.96062 ,4.82284 ,47.32167 
8 ,1.8641 ,0.96277 ,4.82284 ,47.32167 
9 ,2.0559 ,0.96471 ,4.79546 ,47.05304 
10 ,2.2482 ,0.96662 ,4.78861 ,46.98589 
11 ,2.4559 ,0.96875 ,4.75097 ,46.61653 
12 ,2.6478 ,0.97064 ,4.75097 ,46.61653 
13 ,2.8400 ,0.97254 ,4.72702 ,46.38148 
14 ,3.0322 ,0.97446 ,4.69964 ,46.11285 
15 ,3.2406 ,0.97659 ,4.67911 ,45.91138 
16 ,3.4326 ,0.97852 ,4.65515 ,45.67633 
17 ,3.6244 ,0.98038 ,4.64488 ,45.57560 
18 ,3.8326 ,0.98247 ,4.61751 ,45.30697 
19 ,4.0569 ,0.98471 ,4.59013 ,45.03835 
20 ,4.2490 ,0.98665 ,4.58671 ,45.00477 
21 ,4.4412 ,0.98857 ,4.55249 ,44.66898 
22 ,4.6489 ,0.99064 ,4.53880 ,44.53467 
23 ,4.8412 ,0.99257 ,4.52169 ,44.36678 
24 ,5.0331 ,0.99451 ,4.49431 ,44.09815 
25 ,5.2254 ,0.99640 ,4.49773 ,44.13173 
26 ,5.4174 ,0.99840 ,4.46009 ,43.76237 
27 ,5.6256 ,1.00039 ,4.44982 ,43.66163 
28 ,5.8175 ,1.00236 ,4.41560 ,43.32585 
29 ,6.0257 ,1.00449 ,4.40875 ,43.25870 
30 ,6.2339 ,1.00646 ,4.36769 ,42.85576 
31 ,6.4260 ,1.00842 ,4.38822 ,43.05723 
32 ,6.6181 ,1.01033 ,4.34031 ,42.58713 
33 ,6.8102 ,1.01229 ,4.32662 ,42.45282 
34 ,7.0339 ,1.01450 ,4.30609 ,42.25135 
35 ,7.2263 ,1.01643 ,4.29582 ,42.15061 
36 ,7.4184 ,1.01835 ,4.26160 ,41.81483 
37 ,7.6264 ,1.02038 ,4.26160 ,41.81483 
38 ,7.8184 ,1.02232 ,4.22396 ,41.44547 
39 ,8.0102 ,1.02434 ,4.21711 ,41.37831 
40 ,8.2188 ,1.02634 ,4.18631 ,41.07611 
41 ,8.4267 ,1.02835 ,4.18974 ,41.10968 
42 ,8.6188 ,1.03030 ,4.16236 ,40.84106 
43 ,8.8110 ,1.03227 ,4.15209 ,40.74032 
44 ,9.0191 ,1.03434 ,4.12129 ,40.43812 
45 ,9.2106 ,1.03635 ,4.10760 ,40.30380 
46 ,9.4032 ,1.03816 ,4.09734 ,40.20307 
47 ,9.5952 ,1.04007 ,4.06312 ,39.86729 
48 ,9.7874 ,1.04196 ,4.05969 ,39.83371 
49 ,9.9953 ,1.04405 ,4.01863 ,39.43077 
50 ,10.1874 ,1.04602 ,4.02547 ,39.49793 
51 ,10.3955 ,1.04811 ,3.98441 ,39.09499 
52 ,10.6035 ,1.05015 ,3.98783 ,39.12856 
53 ,10.7958 ,1.05209 ,3.94676 ,38.72562 
54 ,11.0199 ,1.05422 ,3.95361 ,38.79278 
55 ,11.2118 ,1.05628 ,3.93307 ,38.59131 
56 ,11.4200 ,1.05833 ,3.90912 ,38.35626 
57 ,11.6121 ,1.06026 ,3.88174 ,38.08764 
58 ,11.8038 ,1.06216 ,3.87832 ,38.05406 
59 ,11.9961 ,1.06407 ,3.84067 ,37.68470 
60 ,12.2042 ,1.06616 ,3.83383 ,37.61754 
61 ,12.3961 ,1.06811 ,3.80987 ,37.38249 
62 ,12.5886 ,1.07002 ,3.80303 ,37.31534 
63 ,12.8125 ,1.07221 ,3.77223 ,37.01313 
64 ,13.0207 ,1.07432 ,3.76539 ,36.94597 
65 ,13.2124 ,1.07620 ,3.73459 ,36.64377 
66 ,13.4050 ,1.07814 ,3.74828 ,36.77808 
67 ,13.6126 ,1.08025 ,3.71063 ,36.40872 
68 ,13.8210 ,1.08231 ,3.69694 ,36.27441 
69 ,14.0132 ,1.08426 ,3.65930 ,35.90505 
70 ,14.2374 ,1.08637 ,3.66957 ,36.00578 
71 ,14.4453 ,1.08855 ,3.64561 ,35.77073 
72 ,14.6210 ,1.09044 ,3.61481 ,35.46853 
73 ,14.8295 ,1.09229 ,3.59086 ,35.23348 
74 ,15.0375 ,1.09448 ,3.58743 ,35.19990 
75 ,15.2616 ,1.09662 ,3.58059 ,35.13275 
76 ,15.4535 ,1.09868 ,3.54979 ,34.83054 
77 ,15.6456 ,1.10056 ,3.53610 ,34.69623 
78 ,15.8536 ,1.10266 ,3.50188 ,34.36045 
79 ,16.0939 ,1.10508 ,3.49161 ,34.25971 
80 ,16.3020 ,1.10712 ,3.48819 ,34.22613 
81 ,16.4942 ,1.10904 ,3.45739 ,33.92393 
82 ,16.7182 ,1.11112 ,3.44713 ,33.82319 
83 ,16.9103 ,1.11324 ,3.42659 ,33.62172 
84 ,17.1183 ,1.11528 ,3.40948 ,33.45383 
85 ,17.3265 ,1.11726 ,3.38553 ,33.21878 
86 ,17.5343 ,1.11940 ,3.36499 ,33.01731 
87 ,17.7266 ,1.12137 ,3.37184 ,33.08447 
88 ,17.9183 ,1.12338 ,3.33419 ,32.71511 
89 ,18.1108 ,1.12522 ,3.34104 ,32.78227 
90 ,18.3190 ,1.12727 ,3.30339 ,32.41290 
91 ,18.5110 ,1.12924 ,3.31024 ,32.48006 
92 ,18.7191 ,1.13134 ,3.26917 ,32.07712 
93 ,18.9110 ,1.13322 ,3.25891 ,31.97639 
94 ,19.1029 ,1.13513 ,3.25548 ,31.94281 
95 ,19.2952 ,1.13701 ,3.21784 ,31.57345 
96 ,19.4874 ,1.13896 ,3.22811 ,31.67418 
97 ,19.6951 ,1.14108 ,3.19046 ,31.30482 
98 ,19.8875 ,1.14296 ,3.18704 ,31.27124 
99 ,20.0793 ,1.14503 ,3.14597 ,30.86830 
100 ,20.2718 ,1.14686 ,3.16651 ,31.06977 
101 ,20.4636 ,1.14876 ,3.13229 ,30.73399 
102 ,20.6558 ,1.15064 ,3.10149 ,30.43178 
103 ,20.8800 ,1.15280 ,3.09806 ,30.39821 
104 ,21.1201 ,1.15530 ,3.07753 ,30.19674 
105 ,21.3281 ,1.15742 ,3.06042 ,30.02884 
106 ,21.5363 ,1.15941 ,3.03647 ,29.79380 
107 ,21.7284 ,1.16138 ,3.03304 ,29.76022 
108 ,21.9364 ,1.16344 ,3.00224 ,29.45801 
109 ,22.1124 ,1.16535 ,2.99882 ,29.42444 
110 ,22.3206 ,1.16727 ,2.98171 ,29.25654 
111 ,22.5286 ,1.16937 ,2.96118 ,29.05507 
112 ,22.7208 ,1.17129 ,2.95091 ,28.95434 
113 ,22.9288 ,1.17338 ,2.94064 ,28.85360 
114 ,23.1209 ,1.17531 ,2.90642 ,28.51782 
115 ,23.3288 ,1.17738 ,2.89958 ,28.45066 
116 ,23.5371 ,1.17950 ,2.87562 ,28.21562 
117 ,23.7451 ,1.18151 ,2.86536 ,28.11488 
118 ,23.9372 ,1.18343 ,2.82771 ,27.74552 
119 ,24.1450 ,1.18552 ,2.83114 ,27.77910 
120 ,24.3371 ,1.18747 ,2.80718 ,27.54405 
121 ,24.5291 ,1.18938 ,2.80718 ,27.54405 
122 ,24.7213 ,1.19128 ,2.78322 ,27.30900 
123 ,24.9615 ,1.19345 ,2.77296 ,27.20827 
124 ,25.1535 ,1.19560 ,2.73874 ,26.87248 
125 ,25.3779 ,1.19773 ,2.74216 ,26.90606 
126 ,25.5695 ,1.19980 ,2.73189 ,26.80533 
127 ,25.7781 ,1.20184 ,2.69425 ,26.43597 
128 ,25.9863 ,1.20390 ,2.69425 ,26.43597 
129 ,26.1783 ,1.20588 ,2.65660 ,26.06661 
130 ,26.3865 ,1.20795 ,2.66003 ,26.10018 
131 ,26.5785 ,1.20990 ,2.63265 ,25.83156 
132 ,26.7704 ,1.21191 ,2.61896 ,25.69724 
133 ,26.9625 ,1.21371 ,2.62923 ,25.79798 
134 ,27.1544 ,1.21562 ,2.58474 ,25.36146 
135 ,27.3466 ,1.21753 ,2.58132 ,25.32788 
136 ,27.5387 ,1.21946 ,2.55052 ,25.02568 
137 ,27.7466 ,1.22153 ,2.54025 ,24.92494 
138 ,27.9387 ,1.22357 ,2.50945 ,24.62274 
139 ,28.1309 ,1.22538 ,2.51972 ,24.72347 
140 ,28.3229 ,1.22726 ,2.50945 ,24.62274 
141 ,28.5151 ,1.22916 ,2.46839 ,24.21980 
142 ,28.7073 ,1.23117 ,2.48550 ,24.38769 
143 ,28.8988 ,1.23305 ,2.44785 ,24.01833 
144 ,29.0913 ,1.23496 ,2.44101 ,23.95117 
145 ,29.2834 ,1.23690 ,2.41705 ,23.71612 
146 ,29.4916 ,1.23898 ,2.41021 ,23.64897 
147 ,29.6995 ,1.24107 ,2.37599 ,23.31318 
148 ,29.8917 ,1.24296 ,2.38283 ,23.38034 
149 ,30.0836 ,1.24488 ,2.36230 ,23.17887 
150 ,30.3080 ,1.24711 ,2.35545 ,23.11171 
151 ,30.5158 ,1.24921 ,2.31781 ,22.74235 
152 ,30.7081 ,1.25117 ,2.31097 ,22.67520 
153 ,30.8997 ,1.25309 ,2.29043 ,22.47373 
154 ,31.1082 ,1.25519 ,2.28701 ,22.44015 
155 ,31.3003 ,1.25705 ,2.25621 ,22.13794 
156 ,31.5084 ,1.25912 ,2.25621 ,22.13794 
157 ,31.7005 ,1.26109 ,2.21857 ,21.76858 
158 ,31.9085 ,1.26316 ,2.23568 ,21.93647 
159 ,32.1001 ,1.26517 ,2.18435 ,21.43280 
160 ,32.3088 ,1.26711 ,2.19461 ,21.53353 
161 ,32.5169 ,1.26918 ,2.15697 ,21.16417 
162 ,32.7090 ,1.27113 ,2.16381 ,21.23133 
163 ,32.9009 ,1.27307 ,2.12617 ,20.86197 
164 ,33.0928 ,1.27494 ,2.11590 ,20.76123 
165 ,33.2852 ,1.27689 ,2.10906 ,20.69408 
166 ,33.4932 ,1.27895 ,2.09537 ,20.55976 
167 ,33.7013 ,1.28103 ,2.07484 ,20.35829 
168 ,33.9091 ,1.28313 ,2.07826 ,20.39187 
169 ,34.1014 ,1.28505 ,2.04061 ,20.02251 
170 ,34.2931 ,1.28701 ,2.05773 ,20.19040 
171 ,34.5016 ,1.28902 ,2.01666 ,19.78746 
172 ,34.7255 ,1.29121 ,2.00639 ,19.68673 
173 ,34.9177 ,1.29323 ,1.98586 ,19.48526 
174 ,35.1257 ,1.29527 ,1.96533 ,19.28379 
175 ,35.3498 ,1.29750 ,1.95848 ,19.21663 
176 ,35.5417 ,1.29950 ,1.94137 ,19.04874 
177 ,35.7501 ,1.30155 ,1.94479 ,19.08232 
178 ,35.9582 ,1.30357 ,1.90031 ,18.64580 
179 ,36.1503 ,1.30552 ,1.90373 ,18.67938 
180 ,36.3422 ,1.30757 ,1.86608 ,18.31002 
181 ,36.5502 ,1.30948 ,1.86608 ,18.31002 
182 ,36.7584 ,1.31154 ,1.83871 ,18.04139 
183 ,36.9505 ,1.31351 ,1.84555 ,18.10855 
184 ,37.1424 ,1.31549 ,1.82502 ,17.90708 
185 ,37.3507 ,1.31751 ,1.82502 ,17.90708 
186 ,37.5424 ,1.31944 ,1.79422 ,17.60487 
187 ,37.7509 ,1.32149 ,1.78395 ,17.50414 
188 ,37.9589 ,1.32359 ,1.75657 ,17.23551 
189 ,38.1511 ,1.32552 ,1.76000 ,17.26909 
190 ,38.3430 ,1.32745 ,1.72920 ,16.96689 
191 ,38.5351 ,1.32938 ,1.72578 ,16.93331 
192 ,38.7272 ,1.33130 ,1.70866 ,16.76542 
193 ,38.9193 ,1.33321 ,1.69155 ,16.59752 
194 ,39.1113 ,1.33514 ,1.68129 ,16.49679 
195 ,39.3034 ,1.33706 ,1.65391 ,16.22816 
196 ,39.4957 ,1.33898 ,1.66418 ,16.32890 
197 ,39.7037 ,1.34104 ,1.62653 ,15.95954 
198 ,39.9117 ,1.34306 ,1.62995 ,15.99311 
199 ,40.1038 ,1.34509 ,1.59231 ,15.62375 
200 ,40.3120 ,1.34715 ,1.58889 ,15.59018 
201 ,40.5036 ,1.34917 ,1.58547 ,15.55660 
202 ,40.7117 ,1.35108 ,1.58204 ,15.52302 
203 ,40.9196 ,1.35315 ,1.54440 ,15.15366 
204 ,41.1283 ,1.35526 ,1.53756 ,15.08650 
205 ,41.3684 ,1.35773 ,1.53413 ,15.05292 
206 ,41.5604 ,1.35961 ,1.49991 ,14.71714 
207 ,41.7526 ,1.36153 ,1.51018 ,14.81787 
208 ,41.9442 ,1.36357 ,1.47253 ,14.44851 
209 ,42.1366 ,1.36539 ,1.47596 ,14.48209 
210 ,42.3447 ,1.36745 ,1.44516 ,14.17989 
211 ,42.5367 ,1.36936 ,1.44516 ,14.17989 
212 ,42.7288 ,1.37127 ,1.43489 ,14.07915 
213 ,42.9526 ,1.37343 ,1.41436 ,13.87768 
214 ,43.1451 ,1.37544 ,1.39725 ,13.70979 
215 ,43.3533 ,1.37752 ,1.39725 ,13.70979 
216 ,43.5613 ,1.37956 ,1.35618 ,13.30685 
217 ,43.7534 ,1.38156 ,1.36645 ,13.40759 
218 ,43.9452 ,1.38347 ,1.33565 ,13.10538 
219 ,44.1372 ,1.38538 ,1.31854 ,12.93749 
220 ,44.3452 ,1.38740 ,1.30827 ,12.83675 
221 ,44.5375 ,1.38937 ,1.30827 ,12.83675 
222 ,44.7297 ,1.39132 ,1.29800 ,12.73602 
223 ,44.9376 ,1.39338 ,1.26720 ,12.43381 
224 ,45.1297 ,1.39530 ,1.26378 ,12.40024 
225 ,45.3218 ,1.39718 ,1.23298 ,12.09803 
226 ,45.5300 ,1.39930 ,1.23298 ,12.09803 
227 ,45.7541 ,1.40144 ,1.22272 ,11.99730 
228 ,45.9460 ,1.40342 ,1.21245 ,11.89656 
229 ,46.1383 ,1.40540 ,1.18165 ,11.59436 
230 ,46.3300 ,1.40734 ,1.18507 ,11.62794 
231 ,46.5382 ,1.40937 ,1.16112 ,11.39289 
232 ,46.7302 ,1.41141 ,1.15085 ,11.29215 
233 ,46.9226 ,1.41326 ,1.12690 ,11.05710 
234 ,47.1305 ,1.41529 ,1.14058 ,11.19142 
235 ,47.3226 ,1.41720 ,1.12005 ,10.98995 
236 ,47.5148 ,1.41912 ,1.08583 ,10.65416 
237 ,47.7069 ,1.42106 ,1.09610 ,10.75490 
238 ,47.8991 ,1.42298 ,1.08583 ,10.65416 
239 ,48.1070 ,1.42505 ,1.06187 ,10.41912 
240 ,48.2991 ,1.42701 ,1.05503 ,10.35196 
241 ,48.4912 ,1.42892 ,1.03792 ,10.18407 
242 ,48.6994 ,1.43094 ,1.01739 ,9.98260 
243 ,48.9072 ,1.43310 ,1.01054 ,9.91544 
244 ,49.1475 ,1.43546 ,0.99685 ,9.78113 
245 ,49.3555 ,1.43749 ,0.97290 ,9.54608 
246 ,49.5477 ,1.43944 ,0.98659 ,9.68039 
247 ,49.7397 ,1.44138 ,0.95237 ,9.34461 
248 ,49.9476 ,1.44340 ,0.95579 ,9.37819 
249 ,50.1398 ,1.44537 ,0.92841 ,9.10956 
250 ,50.3319 ,1.44728 ,0.91814 ,9.00883 
251 ,50.5239 ,1.44920 ,0.89419 ,8.77378 
252 ,50.7158 ,1.45111 ,0.91130 ,8.94167 
253 ,50.9242 ,1.45321 ,0.88734 ,8.70662 
254 ,51.1323 ,1.45530 ,0.87023 ,8.53873 
255 ,51.3243 ,1.45721 ,0.85312 ,8.37084 
256 ,51.5166 ,1.45912 ,0.84628 ,8.30368 
257 ,51.7085 ,1.46111 ,0.83259 ,8.16937 
258 ,51.9162 ,1.46312 ,0.82917 ,8.13579 
259 ,52.1086 ,1.46506 ,0.80863 ,7.93432 
260 ,52.3008 ,1.46696 ,0.79152 ,7.76643 
261 ,52.4926 ,1.46888 ,0.79495 ,7.80001 
262 ,52.6849 ,1.47081 ,0.76757 ,7.53138 
263 ,52.8773 ,1.47276 ,0.75730 ,7.43065 
264 ,53.0853 ,1.47481 ,0.75046 ,7.36349 
265 ,53.2929 ,1.47690 ,0.74704 ,7.32991 
266 ,53.4854 ,1.47878 ,0.72650 ,7.12844 
267 ,53.6932 ,1.48095 ,0.72992 ,7.16202 
268 ,53.9015 ,1.48295 ,0.69913 ,6.85982 
269 ,54.0933 ,1.48489 ,0.68886 ,6.75908 
270 ,54.2858 ,1.48682 ,0.67517 ,6.62477 
271 ,54.4777 ,1.48886 ,0.67175 ,6.59119 
272 ,54.6698 ,1.49061 ,0.66490 ,6.52403 
273 ,54.8779 ,1.49273 ,0.62726 ,6.15467 
274 ,55.0858 ,1.49468 ,0.63753 ,6.25541 
275 ,55.3101 ,1.49703 ,0.63753 ,6.25541 
276 ,55.5181 ,1.49914 ,0.59304 ,5.81889 
277 ,55.7103 ,1.50105 ,0.59988 ,5.88605 
278 ,55.9184 ,1.50315 ,0.57935 ,5.68458 
279 ,56.1103 ,1.50503 ,0.58277 ,5.71815 
280 ,56.3024 ,1.50692 ,0.54171 ,5.31522 
281 ,56.4945 ,1.50889 ,0.54855 ,5.38237 
282 ,56.6706 ,1.51080 ,0.52802 ,5.18090 
283 ,56.8624 ,1.51256 ,0.50748 ,4.97943 
284 ,57.0708 ,1.51456 ,0.52802 ,5.18090 
285 ,57.2785 ,1.51675 ,0.49037 ,4.81154 
286 ,57.4710 ,1.51866 ,0.50406 ,4.94585 
287 ,57.6792 ,1.52076 ,0.46984 ,4.61007 
288 ,57.8873 ,1.52280 ,0.47326 ,4.64365 
289 ,58.0952 ,1.52487 ,0.45615 ,4.47576 
290 ,58.3033 ,1.52696 ,0.42877 ,4.20713 
291 ,58.5114 ,1.52902 ,0.43904 ,4.30787 
292 ,58.7035 ,1.53113 ,0.41851 ,4.10640 
293 ,58.8955 ,1.53288 ,0.41851 ,4.10640 
294 ,59.0876 ,1.53479 ,0.39455 ,3.87135 
295 ,59.2799 ,1.53676 ,0.37744 ,3.70346 
296 ,59.4874 ,1.53880 ,0.38086 ,3.73703 
297 ,59.6960 ,1.54090 ,0.34664 ,3.40125 
298 ,59.9039 ,1.54300 ,0.34322 ,3.36767 
299 ,60.0961 ,1.54489 ,0.34322 ,3.36767 
300 ,60.3039 ,1.54699 ,0.31926 ,3.13263 
301 ,60.4962 ,1.54890 ,0.32611 ,3.19978 
302 ,60.6883 ,1.55080 ,0.32611 ,3.19978 
303 ,60.8804 ,1.55276 ,0.28847 ,2.83042 
304 ,61.0725 ,1.55469 ,0.28847 ,2.83042 
305 ,61.2807 ,1.55676 ,0.25767 ,2.52822 
306 ,61.4886 ,1.55883 ,0.27135 ,2.66253 
307 ,61.6803 ,1.56072 ,0.24398 ,2.39390 
308 ,61.8729 ,1.56266 ,0.24740 ,2.42748 
309 ,62.0810 ,1.56474 ,0.23713 ,2.32675 
310 ,62.2893 ,1.56676 ,0.23371 ,2.29317 
311 ,62.4968 ,1.56890 ,0.20633 ,2.02454 
312 ,62.6887 ,1.57081 ,0.21318 ,2.09170 
313 ,62.8807 ,1.57272 ,0.18580 ,1.82307 
314 ,63.0730 ,1.57470 ,0.19264 ,1.89023 
315 ,63.2812 ,1.57677 ,0.16527 ,1.62160 
316 ,63.4734 ,1.57868 ,0.16185 ,1.58802 
317 ,63.6654 ,1.58057 ,0.15500 ,1.52087 
318 ,63.8572 ,1.58247 ,0.14473 ,1.42013 
319 ,64.0655 ,1.58455 ,0.14131 ,1.38655 
320 ,64.2736 ,1.58670 ,0.13105 ,1.28582 
321 ,64.4657 ,1.58856 ,0.12420 ,1.21866 
322 ,64.6738 ,1.59067 ,0.10367 ,1.01719 
323 ,64.8658 ,1.59255 ,0.10025 ,0.98361 
324 ,65.0580 ,1.59448 ,0.08314 ,0.81572 
325 ,65.2499 ,1.59640 ,0.08314 ,0.81572 
326 ,65.4581 ,1.59846 ,0.05918 ,0.58067 
327 ,65.6503 ,1.60040 ,0.05918 ,0.58067 
328 ,65.8421 ,1.60238 ,0.05234 ,0.51352 
329 ,66.0661 ,1.60459 ,0.05234 ,0.51352 
330 ,66.2746 ,1.60668 ,0.00785 ,0.07700 
331 ,66.4827 ,1.60875 ,0.01127 ,0.11058 
332 ,66.6748 ,1.61069 ,-0.01269 ,-0.12447 
333 ,66.8832 ,1.61270 ,-0.01269 ,-0.12447 
334 ,67.0750 ,1.61467 ,-0.03322 ,-0.32594 
335 ,67.2830 ,1.61672 ,-0.03664 ,-0.35952 
336 ,67.4750 ,1.61869 ,-0.05717 ,-0.56099 
337 ,67.6672 ,1.62058 ,-0.02980 ,-0.29236 
338 ,67.8592 ,1.62248 ,-0.08113 ,-0.79604 
339 ,68.0513 ,1.62443 ,-0.07771 ,-0.76246 
340 ,68.2590 ,1.62647 ,-0.08113 ,-0.79604 
341 ,68.4674 ,1.62856 ,-0.08797 ,-0.86319 
342 ,68.6756 ,1.63068 ,-0.11193 ,-1.09824 
343 ,68.8837 ,1.63275 ,-0.11193 ,-1.09824 
344 ,69.0755 ,1.63469 ,-0.14615 ,-1.43402 
345 ,69.2837 ,1.63668 ,-0.13588 ,-1.33329 
346 ,69.4759 ,1.63869 ,-0.14957 ,-1.46760 
347 ,69.6837 ,1.64068 ,-0.15299 ,-1.50118 
348 ,69.8759 ,1.64267 ,-0.17353 ,-1.70265 
349 ,70.0682 ,1.64457 ,-0.15984 ,-1.56834 
350 ,70.2759 ,1.64663 ,-0.19406 ,-1.90412 
351 ,70.4679 ,1.64858 ,-0.18722 ,-1.83696 
352 ,70.6602 ,1.65049 ,-0.21117 ,-2.07201 
353 ,70.8524 ,1.65242 ,-0.21117 ,-2.07201 
354 ,71.0443 ,1.65437 ,-0.20775 ,-2.03843 
355 ,71.2527 ,1.65638 ,-0.23855 ,-2.34064 
356 ,71.4447 ,1.65833 ,-0.23513 ,-2.30706 
357 ,71.6529 ,1.66042 ,-0.25224 ,-2.47495 
358 ,71.8610 ,1.66252 ,-0.25908 ,-2.54211 
359 ,72.0849 ,1.66470 ,-0.26935 ,-2.64284 
360 ,72.2770 ,1.66670 ,-0.27619 ,-2.71000 
361 ,72.4692 ,1.66858 ,-0.29673 ,-2.91147 
362 ,72.6608 ,1.67048 ,-0.31384 ,-3.07936 
363 ,72.8531 ,1.67243 ,-0.31384 ,-3.07936 
364 ,73.0614 ,1.67451 ,-0.32068 ,-3.14652 
365 ,73.2534 ,1.67644 ,-0.33437 ,-3.28083 
366 ,73.4453 ,1.67835 ,-0.33779 ,-3.31441 
367 ,73.6532 ,1.68043 ,-0.34464 ,-3.38156 
368 ,73.8297 ,1.68227 ,-0.33779 ,-3.31441 
369 ,74.0216 ,1.68410 ,-0.35490 ,-3.48230 
370 ,74.2139 ,1.68603 ,-0.37544 ,-3.68377 
371 ,74.4220 ,1.68808 ,-0.37886 ,-3.71735 
372 ,74.6139 ,1.68999 ,-0.40623 ,-3.98597 
373 ,74.8217 ,1.69211 ,-0.40281 ,-3.95240 
374 ,75.0304 ,1.69409 ,-0.41992 ,-4.12029 
375 ,75.2384 ,1.69629 ,-0.41992 ,-4.12029 
376 ,75.4464 ,1.69832 ,-0.43361 ,-4.25460 
377 ,75.6222 ,1.70024 ,-0.45072 ,-4.42249 
378 ,75.8145 ,1.70199 ,-0.46099 ,-4.52323 
379 ,75.9901 ,1.70393 ,-0.43361 ,-4.25460 
380 ,76.1827 ,1.70573 ,-0.46099 ,-4.52323 
381 ,76.3908 ,1.70780 ,-0.47468 ,-4.65754 
382 ,76.5831 ,1.70968 ,-0.48152 ,-4.72470 
383 ,76.7750 ,1.71162 ,-0.49863 ,-4.89259 
384 ,76.9672 ,1.71356 ,-0.49863 ,-4.89259 
385 ,77.1752 ,1.71554 ,-0.51917 ,-5.09406 
386 ,77.3829 ,1.71769 ,-0.51917 ,-5.09406 
387 ,77.5911 ,1.71976 ,-0.53628 ,-5.26195 
388 ,77.7834 ,1.72167 ,-0.54312 ,-5.32911 
389 ,77.9755 ,1.72365 ,-0.56023 ,-5.49700 
390 ,78.1676 ,1.72556 ,-0.55339 ,-5.42984 
391 ,78.3596 ,1.72741 ,-0.56023 ,-5.49700 
392 ,78.5519 ,1.72938 ,-0.58761 ,-5.76562 
393 ,78.7760 ,1.73162 ,-0.59103 ,-5.79920 
394 ,78.9676 ,1.73357 ,-0.58761 ,-5.76562 
395 ,79.1597 ,1.73544 ,-0.60472 ,-5.93352 
396 ,79.3677 ,1.73751 ,-0.62868 ,-6.16856 
397 ,79.5762 ,1.73956 ,-0.61841 ,-6.06783 
398 ,79.7683 ,1.74153 ,-0.63894 ,-6.26930 
399 ,79.9604 ,1.74343 ,-0.63210 ,-6.20214 
400 ,80.1844 ,1.74561 ,-0.64236 ,-6.30288 
401 ,80.3605 ,1.74758 ,-0.65605 ,-6.43719 
402 ,80.5528 ,1.74937 ,-0.67316 ,-6.60508 
403 ,80.7447 ,1.75133 ,-0.66290 ,-6.50435 
404 ,80.9528 ,1.75337 ,-0.71423 ,-7.00802 
405 ,81.1609 ,1.75542 ,-0.69370 ,-6.80655 
406 ,81.3525 ,1.75738 ,-0.70739 ,-6.94086 
407 ,81.5771 ,1.75950 ,-0.70054 ,-6.87371 
408 ,81.7852 ,1.76169 ,-0.71423 ,-7.00802 
409 ,81.9933 ,1.76369 ,-0.73476 ,-7.20949 
410 ,82.1853 ,1.76570 ,-0.73134 ,-7.17591 
411 ,82.3933 ,1.76772 ,-0.76556 ,-7.51170 
412 ,82.5694 ,1.76963 ,-0.76214 ,-7.47812 
413 ,82.7615 ,1.77147 ,-0.76556 ,-7.51170 
414 ,82.9535 ,1.77335 ,-0.77241 ,-7.57885 
415 ,83.1617 ,1.77542 ,-0.77583 ,-7.61243 
416 ,83.3538 ,1.77739 ,-0.80321 ,-7.88106 
417 ,83.5615 ,1.77947 ,-0.79636 ,-7.81390 
418 ,83.7697 ,1.78150 ,-0.81347 ,-7.98179 
419 ,83.9781 ,1.78364 ,-0.82032 ,-8.04895 
420 ,84.1700 ,1.78554 ,-0.83401 ,-8.18326 
421 ,84.3781 ,1.78766 ,-0.84085 ,-8.25042 
422 ,84.5704 ,1.78950 ,-0.84427 ,-8.28400 
423 ,84.7785 ,1.79161 ,-0.83401 ,-8.18326 
424 ,84.9700 ,1.79367 ,-0.86823 ,-8.51904 
425 ,85.1625 ,1.79542 ,-0.86481 ,-8.48547 
426 ,85.3545 ,1.79743 ,-0.89218 ,-8.75409 
427 ,85.5467 ,1.79929 ,-0.87165 ,-8.55262 
428 ,85.7384 ,1.80120 ,-0.88876 ,-8.72051 
429 ,85.9469 ,1.80326 ,-0.89903 ,-8.82125 
430 ,86.1549 ,1.80539 ,-0.91614 ,-8.98914 
431 ,86.3946 ,1.80775 ,-0.93325 ,-9.15703 
432 ,86.6031 ,1.80980 ,-0.91614 ,-8.98914 
433 ,86.7954 ,1.81176 ,-0.93667 ,-9.19061 
434 ,87.0030 ,1.81388 ,-0.94009 ,-9.22419 
435 ,87.2112 ,1.81594 ,-0.96405 ,-9.45924 
436 ,87.4033 ,1.81786 ,-0.96747 ,-9.49282 
437 ,87.5954 ,1.81979 ,-0.98116 ,-9.62713 
438 ,87.8037 ,1.82184 ,-0.97774 ,-9.59355 
439 ,88.0115 ,1.82394 ,-1.00169 ,-9.82860 
440 ,88.2038 ,1.82587 ,-0.99485 ,-9.76144 
441 ,88.3956 ,1.82780 ,-1.01880 ,-9.99649 
442 ,88.6040 ,1.82980 ,-1.01880 ,-9.99649 
443 ,88.8120 ,1.83194 ,-1.03591 ,-10.16438 
444 ,89.0198 ,1.83403 ,-1.01538 ,-9.96291 
445 ,89.2281 ,1.83608 ,-1.04618 ,-10.26512 
446 ,89.4203 ,1.83805 ,-1.03934 ,-10.19796 
447 ,89.6284 ,1.84014 ,-1.06671 ,-10.46659 
448 ,89.8365 ,1.84216 ,-1.06329 ,-10.43301 
449 ,90.0285 ,1.84410 ,-1.08382 ,-10.63448 
450 ,90.2205 ,1.84598 ,-1.07356 ,-10.53374 
451 ,90.4126 ,1.84793 ,-1.10093 ,-10.80237 
452 ,90.6048 ,1.84989 ,-1.09409 ,-10.73521 
453 ,90.7808 ,1.85177 ,-1.11462 ,-10.93668 
454 ,90.9886 ,1.85365 ,-1.11805 ,-10.97026 
455 ,91.1811 ,1.85560 ,-1.11120 ,-10.90310 
456 ,91.3893 ,1.85767 ,-1.14542 ,-11.23889 
457 ,91.5973 ,1.85981 ,-1.13516 ,-11.13815 
458 ,91.8053 ,1.86188 ,-1.15569 ,-11.33962 
459 ,92.0135 ,1.86392 ,-1.15227 ,-11.30604 
460 ,92.2214 ,1.86604 ,-1.16253 ,-11.40678 
461 ,92.4296 ,1.86812 ,-1.17964 ,-11.57467 
