Data stamp = , 03-05-2022 07:37:55 651

Calibration Values: 
Slope = , 26.54 , g/V 
Offset Voltage at no contact = , -0.501760 , V 

No , Time , Stage Position ,   Mass , Force 
   ,  (s) ,      (mm)      ,   (g)  , (mN)  

1 ,0.0000 ,0.89943 ,5.28825 ,51.88832 
2 ,0.2142 ,0.89952 ,5.29167 ,51.92190 
3 ,0.7908 ,0.90183 ,5.30878 ,52.08979 
4 ,1.0309 ,0.90434 ,5.30536 ,52.05621 
5 ,1.2545 ,0.90661 ,5.29852 ,51.98905 
6 ,1.4470 ,0.90861 ,5.29510 ,51.95548 
7 ,1.6389 ,0.91055 ,5.27456 ,51.75401 
8 ,1.8312 ,0.91259 ,5.25745 ,51.58611 
9 ,2.0230 ,0.91444 ,5.21981 ,51.21675 
10 ,2.2313 ,0.91650 ,5.21639 ,51.18317 
11 ,2.4393 ,0.91854 ,5.18559 ,50.88097 
12 ,2.6316 ,0.92050 ,5.18901 ,50.91455 
13 ,2.8396 ,0.92257 ,5.15136 ,50.54519 
14 ,3.0317 ,0.92447 ,5.14794 ,50.51161 
15 ,3.2238 ,0.92642 ,5.10003 ,50.04151 
16 ,3.4155 ,0.92830 ,5.09319 ,49.97436 
17 ,3.5916 ,0.93017 ,5.07950 ,49.84004 
18 ,3.7840 ,0.93206 ,5.03501 ,49.40352 
19 ,3.9921 ,0.93403 ,5.04870 ,49.53784 
20 ,4.1842 ,0.93603 ,5.00763 ,49.13490 
21 ,4.3918 ,0.93810 ,5.00079 ,49.06774 
22 ,4.5999 ,0.94011 ,4.96315 ,48.69838 
23 ,4.7920 ,0.94209 ,4.95630 ,48.63122 
24 ,4.9845 ,0.94403 ,4.91523 ,48.22828 
25 ,5.1925 ,0.94606 ,4.90839 ,48.16113 
26 ,5.3842 ,0.94799 ,4.88786 ,47.95966 
27 ,5.5603 ,0.94989 ,4.87417 ,47.82534 
28 ,5.7368 ,0.95168 ,4.86390 ,47.72461 
29 ,5.9609 ,0.95368 ,4.81941 ,47.28809 
30 ,6.1530 ,0.95573 ,4.80915 ,47.18736 
31 ,6.3450 ,0.95759 ,4.78519 ,46.95231 
32 ,6.5371 ,0.95951 ,4.75782 ,46.68368 
33 ,6.7609 ,0.96180 ,4.73728 ,46.48221 
34 ,6.9693 ,0.96387 ,4.73044 ,46.41506 
35 ,7.1614 ,0.96576 ,4.68595 ,45.97854 
36 ,7.3691 ,0.96783 ,4.69279 ,46.04569 
37 ,7.5616 ,0.96978 ,4.63462 ,45.47486 
38 ,7.7532 ,0.97168 ,4.65173 ,45.64275 
39 ,7.9454 ,0.97360 ,4.61751 ,45.30697 
40 ,8.1697 ,0.97583 ,4.60382 ,45.17266 
41 ,8.3620 ,0.97780 ,4.57986 ,44.93761 
42 ,8.5858 ,0.97996 ,4.56617 ,44.80330 
43 ,8.8096 ,0.98216 ,4.53537 ,44.50109 
44 ,9.0182 ,0.98427 ,4.50457 ,44.19889 
45 ,9.2262 ,0.98642 ,4.48404 ,43.99742 
46 ,9.4344 ,0.98847 ,4.47720 ,43.93026 
47 ,9.6423 ,0.99056 ,4.42929 ,43.46016 
48 ,9.8345 ,0.99248 ,4.43613 ,43.52732 
49 ,10.0106 ,0.99437 ,4.42929 ,43.46016 
50 ,10.2026 ,0.99615 ,4.38822 ,43.05723 
51 ,10.3947 ,0.99813 ,4.38822 ,43.05723 
52 ,10.6029 ,1.00015 ,4.36084 ,42.78860 
53 ,10.8112 ,1.00224 ,4.34373 ,42.62071 
54 ,11.0186 ,1.00431 ,4.30951 ,42.28492 
55 ,11.2112 ,1.00628 ,4.31636 ,42.35208 
56 ,11.4349 ,1.00842 ,4.27529 ,41.94914 
57 ,11.6273 ,1.01041 ,4.26502 ,41.84841 
58 ,11.8352 ,1.01245 ,4.21369 ,41.34473 
59 ,12.0434 ,1.01458 ,4.20000 ,41.21042 
60 ,12.2515 ,1.01665 ,4.18974 ,41.10968 
61 ,12.4594 ,1.01872 ,4.17262 ,40.94179 
62 ,12.6517 ,1.02065 ,4.17262 ,40.94179 
63 ,12.8598 ,1.02275 ,4.13498 ,40.57243 
64 ,13.0678 ,1.02481 ,4.12129 ,40.43812 
65 ,13.2600 ,1.02673 ,4.08707 ,40.10233 
66 ,13.4521 ,1.02863 ,4.09391 ,40.16949 
67 ,13.6601 ,1.03073 ,4.04600 ,39.69940 
68 ,13.8681 ,1.03282 ,4.04600 ,39.69940 
69 ,14.0762 ,1.03485 ,4.02205 ,39.46435 
70 ,14.2838 ,1.03692 ,3.99467 ,39.19572 
71 ,14.5082 ,1.03911 ,3.98441 ,39.09499 
72 ,14.7005 ,1.04115 ,3.95361 ,38.79278 
73 ,14.9086 ,1.04323 ,3.95018 ,38.75920 
74 ,15.1006 ,1.04514 ,3.91938 ,38.45700 
75 ,15.2926 ,1.04705 ,3.91254 ,38.38984 
76 ,15.4847 ,1.04897 ,3.89201 ,38.18837 
77 ,15.6763 ,1.05088 ,3.88174 ,38.08764 
78 ,15.8689 ,1.05276 ,3.86121 ,37.88617 
79 ,16.0768 ,1.05485 ,3.83383 ,37.61754 
80 ,16.2691 ,1.05680 ,3.82699 ,37.55038 
81 ,16.4767 ,1.05890 ,3.81330 ,37.41607 
82 ,16.6692 ,1.06081 ,3.77908 ,37.08029 
83 ,16.8772 ,1.06284 ,3.76539 ,36.94597 
84 ,17.0693 ,1.06486 ,3.75854 ,36.87882 
85 ,17.2614 ,1.06677 ,3.72090 ,36.50946 
86 ,17.6451 ,1.06964 ,3.74143 ,36.71093 
87 ,17.8375 ,1.07254 ,3.69352 ,36.24083 
88 ,18.0457 ,1.07461 ,3.66272 ,35.93863 
89 ,18.2377 ,1.07648 ,3.65246 ,35.83789 
90 ,18.4620 ,1.07872 ,3.61481 ,35.46853 
91 ,18.6696 ,1.08078 ,3.62166 ,35.53569 
92 ,18.8621 ,1.08273 ,3.58743 ,35.19990 
93 ,19.0543 ,1.08464 ,3.58059 ,35.13275 
94 ,19.2623 ,1.08675 ,3.55663 ,34.89770 
95 ,19.4705 ,1.08879 ,3.54295 ,34.76338 
96 ,19.6783 ,1.09086 ,3.51215 ,34.46118 
97 ,19.8867 ,1.09298 ,3.50530 ,34.39402 
98 ,20.1106 ,1.09518 ,3.49846 ,34.32687 
99 ,20.3189 ,1.09723 ,3.45397 ,33.89035 
100 ,20.5109 ,1.09923 ,3.46081 ,33.95751 
101 ,20.7030 ,1.10114 ,3.41975 ,33.55457 
102 ,20.8951 ,1.10305 ,3.41633 ,33.52099 
103 ,21.0872 ,1.10497 ,3.40606 ,33.42025 
104 ,21.2792 ,1.10690 ,3.39921 ,33.35310 
105 ,21.4552 ,1.10881 ,3.35815 ,32.95016 
106 ,21.6474 ,1.11057 ,3.35130 ,32.88300 
107 ,21.8394 ,1.11249 ,3.33077 ,32.68153 
108 ,22.0316 ,1.11443 ,3.31708 ,32.54722 
109 ,22.2396 ,1.11649 ,3.30339 ,32.41290 
110 ,22.4316 ,1.11843 ,3.27944 ,32.17786 
111 ,22.6238 ,1.12031 ,3.25891 ,31.97639 
112 ,22.8159 ,1.12226 ,3.26575 ,32.04354 
113 ,23.0235 ,1.12434 ,3.23495 ,31.74134 
114 ,23.2161 ,1.12625 ,3.22126 ,31.60702 
115 ,23.4079 ,1.12819 ,3.19388 ,31.33840 
116 ,23.6319 ,1.13039 ,3.18704 ,31.27124 
117 ,23.8243 ,1.13238 ,3.14940 ,30.90188 
118 ,24.0322 ,1.13442 ,3.15966 ,31.00262 
119 ,24.2403 ,1.13643 ,3.12886 ,30.70041 
120 ,24.4645 ,1.13872 ,3.11518 ,30.56610 
121 ,24.6725 ,1.14080 ,3.10491 ,30.46536 
122 ,24.8807 ,1.14286 ,3.06726 ,30.09600 
123 ,25.0889 ,1.14498 ,3.06384 ,30.06242 
124 ,25.2808 ,1.14686 ,3.05015 ,29.92811 
125 ,25.4730 ,1.14886 ,3.05015 ,29.92811 
126 ,25.6810 ,1.15089 ,3.00909 ,29.52517 
127 ,25.8729 ,1.15281 ,2.99882 ,29.42444 
128 ,26.0812 ,1.15488 ,2.98513 ,29.29012 
129 ,26.2729 ,1.15680 ,2.97829 ,29.22297 
130 ,26.4811 ,1.15887 ,2.95433 ,28.98792 
131 ,26.6734 ,1.16080 ,2.95433 ,28.98792 
132 ,26.8652 ,1.16275 ,2.92011 ,28.65213 
133 ,27.0576 ,1.16467 ,2.90300 ,28.48424 
134 ,27.2497 ,1.16657 ,2.87562 ,28.21562 
135 ,27.4575 ,1.16865 ,2.87905 ,28.24919 
136 ,27.6654 ,1.17078 ,2.83798 ,27.84625 
137 ,27.8579 ,1.17268 ,2.83798 ,27.84625 
138 ,28.0659 ,1.17472 ,2.81060 ,27.57763 
139 ,28.2740 ,1.17673 ,2.81402 ,27.61121 
140 ,28.4658 ,1.17873 ,2.77296 ,27.20827 
141 ,28.6741 ,1.18082 ,2.77980 ,27.27542 
142 ,28.8824 ,1.18292 ,2.75243 ,27.00680 
143 ,29.1062 ,1.18508 ,2.74558 ,26.93964 
144 ,29.2986 ,1.18702 ,2.72505 ,26.73817 
145 ,29.5066 ,1.18916 ,2.70452 ,26.53670 
146 ,29.7142 ,1.19128 ,2.68398 ,26.33523 
147 ,29.9066 ,1.19314 ,2.66345 ,26.13376 
148 ,30.0828 ,1.19504 ,2.66003 ,26.10018 
149 ,30.3067 ,1.19706 ,2.64976 ,25.99945 
150 ,30.4989 ,1.19907 ,2.63265 ,25.83156 
151 ,30.6746 ,1.20094 ,2.61896 ,25.69724 
152 ,30.8832 ,1.20288 ,2.58816 ,25.39504 
153 ,31.0913 ,1.20498 ,2.57447 ,25.26073 
154 ,31.2831 ,1.20693 ,2.56421 ,25.15999 
155 ,31.4913 ,1.20897 ,2.55736 ,25.09283 
156 ,31.6835 ,1.21091 ,2.53341 ,24.85779 
157 ,31.8914 ,1.21295 ,2.52656 ,24.79063 
158 ,32.0835 ,1.21502 ,2.51630 ,24.68989 
159 ,32.2756 ,1.21681 ,2.49576 ,24.48842 
160 ,32.4837 ,1.21890 ,2.47865 ,24.32053 
161 ,32.6755 ,1.22081 ,2.46839 ,24.21980 
162 ,32.8675 ,1.22270 ,2.43416 ,23.88402 
163 ,33.0758 ,1.22477 ,2.44101 ,23.95117 
164 ,33.2839 ,1.22694 ,2.40679 ,23.61539 
165 ,33.4761 ,1.22884 ,2.40679 ,23.61539 
166 ,33.6681 ,1.23072 ,2.37256 ,23.27961 
167 ,33.8603 ,1.23266 ,2.37941 ,23.34676 
168 ,34.0522 ,1.23465 ,2.32808 ,22.84309 
169 ,34.2444 ,1.23646 ,2.33150 ,22.87667 
170 ,34.4363 ,1.23840 ,2.32123 ,22.77593 
171 ,34.6287 ,1.24031 ,2.29385 ,22.50731 
172 ,34.8210 ,1.24226 ,2.29385 ,22.50731 
173 ,35.0284 ,1.24432 ,2.25963 ,22.17152 
174 ,35.2366 ,1.24639 ,2.26306 ,22.20510 
175 ,35.4446 ,1.24853 ,2.24594 ,22.03721 
176 ,35.6531 ,1.25058 ,2.23910 ,21.97005 
177 ,35.8449 ,1.25251 ,2.20488 ,21.63427 
178 ,36.0532 ,1.25456 ,2.18435 ,21.43280 
179 ,36.2450 ,1.25649 ,2.16039 ,21.19775 
180 ,36.4372 ,1.25842 ,2.17066 ,21.29849 
181 ,36.6134 ,1.26029 ,2.15012 ,21.09702 
182 ,36.8053 ,1.26214 ,2.12617 ,20.86197 
183 ,37.0136 ,1.26418 ,2.11590 ,20.76123 
184 ,37.2055 ,1.26608 ,2.09879 ,20.59334 
185 ,37.4299 ,1.26823 ,2.08168 ,20.42545 
186 ,37.6378 ,1.27041 ,2.07484 ,20.35829 
187 ,37.8140 ,1.27230 ,2.04404 ,20.05609 
188 ,38.0057 ,1.27409 ,2.04746 ,20.08967 
189 ,38.1980 ,1.27600 ,2.03719 ,19.98893 
190 ,38.3900 ,1.27794 ,1.99955 ,19.61957 
191 ,38.5980 ,1.27994 ,2.01666 ,19.78746 
192 ,38.8063 ,1.28214 ,1.98586 ,19.48526 
193 ,38.9985 ,1.28399 ,1.97559 ,19.38452 
194 ,39.1906 ,1.28593 ,1.93795 ,19.01516 
195 ,39.3985 ,1.28804 ,1.94822 ,19.11590 
196 ,39.6067 ,1.29005 ,1.92426 ,18.88085 
197 ,39.8307 ,1.29223 ,1.90715 ,18.71296 
198 ,40.0229 ,1.29425 ,1.90715 ,18.71296 
199 ,40.2468 ,1.29644 ,1.85924 ,18.24286 
200 ,40.4712 ,1.29865 ,1.85582 ,18.20928 
201 ,40.6950 ,1.30100 ,1.85582 ,18.20928 
202 ,40.9032 ,1.30307 ,1.83871 ,18.04139 
203 ,41.0954 ,1.30501 ,1.80449 ,17.70561 
204 ,41.3194 ,1.30717 ,1.80106 ,17.67203 
205 ,41.5114 ,1.30916 ,1.77711 ,17.43698 
206 ,41.7196 ,1.31123 ,1.77369 ,17.40340 
207 ,41.9114 ,1.31314 ,1.74631 ,17.13478 
208 ,42.1036 ,1.31505 ,1.75657 ,17.23551 
209 ,42.2956 ,1.31699 ,1.72235 ,16.89973 
210 ,42.4879 ,1.31888 ,1.70182 ,16.69826 
211 ,42.6800 ,1.32081 ,1.69840 ,16.66468 
212 ,42.8881 ,1.32286 ,1.67102 ,16.39605 
213 ,43.0961 ,1.32508 ,1.65391 ,16.22816 
214 ,43.3042 ,1.32705 ,1.65049 ,16.19458 
215 ,43.4963 ,1.32903 ,1.62653 ,15.95954 
216 ,43.6883 ,1.33095 ,1.62311 ,15.92596 
217 ,43.8963 ,1.33298 ,1.61627 ,15.85880 
218 ,44.1043 ,1.33502 ,1.58204 ,15.52302 
219 ,44.3127 ,1.33715 ,1.57862 ,15.48944 
220 ,44.5367 ,1.33932 ,1.57520 ,15.45586 
221 ,44.7127 ,1.34126 ,1.55809 ,15.28797 
222 ,44.9046 ,1.34305 ,1.54782 ,15.18724 
223 ,45.1130 ,1.34516 ,1.51018 ,14.81787 
224 ,45.3213 ,1.34722 ,1.50676 ,14.78430 
225 ,45.5292 ,1.34933 ,1.48965 ,14.61640 
226 ,45.7370 ,1.35130 ,1.48622 ,14.58283 
227 ,45.9293 ,1.35328 ,1.46227 ,14.34778 
228 ,46.1370 ,1.35538 ,1.45542 ,14.28062 
229 ,46.3454 ,1.35741 ,1.44516 ,14.17989 
230 ,46.5376 ,1.35939 ,1.42462 ,13.97842 
231 ,46.7453 ,1.36144 ,1.40067 ,13.74337 
232 ,46.9376 ,1.36343 ,1.39725 ,13.70979 
233 ,47.1453 ,1.36544 ,1.36303 ,13.37401 
234 ,47.3379 ,1.36738 ,1.36987 ,13.44116 
235 ,47.5458 ,1.36939 ,1.34934 ,13.23969 
236 ,47.7379 ,1.37137 ,1.32880 ,13.03822 
237 ,47.9619 ,1.37351 ,1.32196 ,12.97107 
238 ,48.1703 ,1.37569 ,1.30827 ,12.83675 
239 ,48.3620 ,1.37771 ,1.31169 ,12.87033 
240 ,48.5544 ,1.37958 ,1.27405 ,12.50097 
241 ,48.7460 ,1.38147 ,1.28432 ,12.60171 
242 ,48.9541 ,1.38350 ,1.24325 ,12.19877 
243 ,49.1781 ,1.38573 ,1.24667 ,12.23235 
244 ,49.3862 ,1.38781 ,1.22956 ,12.06445 
245 ,49.5783 ,1.38987 ,1.21929 ,11.96372 
246 ,49.7866 ,1.39185 ,1.19192 ,11.69509 
247 ,49.9949 ,1.39388 ,1.18165 ,11.59436 
248 ,50.1871 ,1.39580 ,1.17481 ,11.52720 
249 ,50.3951 ,1.39785 ,1.16112 ,11.39289 
250 ,50.5871 ,1.39982 ,1.13032 ,11.09068 
251 ,50.7792 ,1.40180 ,1.13374 ,11.12426 
252 ,50.9709 ,1.40370 ,1.11321 ,10.92279 
253 ,51.1629 ,1.40573 ,1.11663 ,10.95637 
254 ,51.3711 ,1.40768 ,1.09267 ,10.72132 
255 ,51.5632 ,1.40965 ,1.09952 ,10.78848 
256 ,51.7714 ,1.41170 ,1.06187 ,10.41912 
257 ,51.9639 ,1.41365 ,1.06872 ,10.48627 
258 ,52.1719 ,1.41575 ,1.03792 ,10.18407 
259 ,52.3800 ,1.41779 ,1.02765 ,10.08333 
260 ,52.5878 ,1.41983 ,1.02081 ,10.01618 
261 ,52.7801 ,1.42180 ,0.99685 ,9.78113 
262 ,52.9720 ,1.42371 ,0.97974 ,9.61324 
263 ,53.1801 ,1.42577 ,0.99685 ,9.78113 
264 ,53.3722 ,1.42769 ,0.96263 ,9.44535 
265 ,53.5644 ,1.42966 ,0.96263 ,9.44535 
266 ,53.7561 ,1.43157 ,0.93868 ,9.21030 
267 ,53.9646 ,1.43356 ,0.92841 ,9.10956 
268 ,54.1887 ,1.43579 ,0.91130 ,8.94167 
269 ,54.3967 ,1.43788 ,0.90446 ,8.87451 
270 ,54.6048 ,1.44001 ,0.89761 ,8.80736 
271 ,54.7968 ,1.44192 ,0.87023 ,8.53873 
272 ,55.0206 ,1.44407 ,0.87366 ,8.57231 
273 ,55.2131 ,1.44611 ,0.83943 ,8.23653 
274 ,55.4213 ,1.44810 ,0.84286 ,8.27011 
275 ,55.6292 ,1.45025 ,0.82575 ,8.10221 
276 ,55.8371 ,1.45231 ,0.80521 ,7.90074 
277 ,56.0289 ,1.45426 ,0.80863 ,7.93432 
278 ,56.2215 ,1.45617 ,0.78810 ,7.73285 
279 ,56.4137 ,1.45810 ,0.76415 ,7.49780 
280 ,56.6053 ,1.46005 ,0.77099 ,7.56496 
281 ,56.7977 ,1.46191 ,0.74361 ,7.29633 
282 ,56.9898 ,1.46391 ,0.74361 ,7.29633 
283 ,57.1979 ,1.46592 ,0.71281 ,6.99413 
284 ,57.4060 ,1.46799 ,0.71966 ,7.06129 
285 ,57.6141 ,1.47006 ,0.68201 ,6.69193 
286 ,57.8222 ,1.47216 ,0.69228 ,6.79266 
287 ,58.0302 ,1.47423 ,0.68201 ,6.69193 
288 ,58.2219 ,1.47615 ,0.66833 ,6.55761 
289 ,58.4146 ,1.47809 ,0.64437 ,6.32256 
290 ,58.6063 ,1.48003 ,0.65464 ,6.42330 
291 ,58.8149 ,1.48209 ,0.62726 ,6.15467 
292 ,59.0227 ,1.48420 ,0.61357 ,6.02036 
293 ,59.2149 ,1.48611 ,0.59646 ,5.85247 
294 ,59.4229 ,1.48814 ,0.60330 ,5.91962 
295 ,59.6789 ,1.49063 ,0.58619 ,5.75173 
296 ,59.8868 ,1.49289 ,0.57935 ,5.68458 
297 ,60.0952 ,1.49490 ,0.53828 ,5.28164 
298 ,60.3031 ,1.49697 ,0.54513 ,5.34879 
299 ,60.5113 ,1.49907 ,0.51775 ,5.08017 
300 ,60.7194 ,1.50112 ,0.49722 ,4.87870 
301 ,60.9115 ,1.50306 ,0.50748 ,4.97943 
302 ,61.1197 ,1.50507 ,0.49037 ,4.81154 
303 ,61.3117 ,1.50708 ,0.49037 ,4.81154 
304 ,61.5194 ,1.50912 ,0.45957 ,4.50934 
305 ,61.7120 ,1.51109 ,0.45615 ,4.47576 
306 ,61.9201 ,1.51312 ,0.44588 ,4.37502 
307 ,62.1440 ,1.51532 ,0.44588 ,4.37502 
308 ,62.3202 ,1.51727 ,0.40482 ,3.97208 
309 ,62.5121 ,1.51917 ,0.42193 ,4.13997 
310 ,62.7202 ,1.52106 ,0.39455 ,3.87135 
311 ,62.9283 ,1.52319 ,0.39113 ,3.83777 
312 ,63.1205 ,1.52511 ,0.37060 ,3.63630 
313 ,63.3605 ,1.52742 ,0.36033 ,3.53557 
314 ,63.5686 ,1.52968 ,0.36375 ,3.56914 
315 ,63.7606 ,1.53156 ,0.32611 ,3.19978 
316 ,63.9527 ,1.53347 ,0.32269 ,3.16620 
317 ,64.1607 ,1.53552 ,0.31242 ,3.06547 
318 ,64.3685 ,1.53769 ,0.32269 ,3.16620 
319 ,64.5606 ,1.53953 ,0.29189 ,2.86400 
320 ,64.7528 ,1.54147 ,0.28504 ,2.79684 
321 ,64.9607 ,1.54351 ,0.26793 ,2.62895 
322 ,65.1533 ,1.54550 ,0.27478 ,2.69611 
323 ,65.3614 ,1.54756 ,0.24398 ,2.39390 
324 ,65.5534 ,1.54950 ,0.25082 ,2.46106 
325 ,65.7452 ,1.55151 ,0.21318 ,2.09170 
326 ,65.9213 ,1.55326 ,0.22002 ,2.15885 
327 ,66.1132 ,1.55504 ,0.20291 ,1.99096 
328 ,66.3055 ,1.55699 ,0.20633 ,2.02454 
329 ,66.5137 ,1.55906 ,0.19607 ,1.92381 
330 ,66.7057 ,1.56100 ,0.17896 ,1.75592 
331 ,66.9138 ,1.56305 ,0.18238 ,1.78949 
332 ,67.1223 ,1.56509 ,0.15842 ,1.55445 
333 ,67.3302 ,1.56721 ,0.15500 ,1.52087 
334 ,67.5223 ,1.56916 ,0.13105 ,1.28582 
335 ,67.7143 ,1.57117 ,0.14473 ,1.42013 
336 ,67.9062 ,1.57295 ,0.13447 ,1.31940 
337 ,68.1140 ,1.57505 ,0.12078 ,1.18508 
338 ,68.3065 ,1.57697 ,0.10367 ,1.01719 
339 ,68.4983 ,1.57887 ,0.08998 ,0.88288 
340 ,68.7067 ,1.58101 ,0.07287 ,0.71499 
341 ,68.8989 ,1.58288 ,0.05576 ,0.54710 
342 ,69.1070 ,1.58493 ,0.06602 ,0.64783 
343 ,69.3147 ,1.58705 ,0.04207 ,0.41278 
344 ,69.5232 ,1.58919 ,0.02154 ,0.21131 
345 ,69.7153 ,1.59111 ,0.02154 ,0.21131 
346 ,69.9071 ,1.59301 ,0.00443 ,0.04342 
347 ,70.1153 ,1.59506 ,0.00100 ,0.00984 
348 ,70.3232 ,1.59709 ,-0.02295 ,-0.22520 
349 ,70.5155 ,1.59907 ,-0.01953 ,-0.19163 
350 ,70.7233 ,1.60114 ,-0.04348 ,-0.42667 
351 ,70.9157 ,1.60311 ,-0.03322 ,-0.32594 
352 ,71.1077 ,1.60503 ,-0.04348 ,-0.42667 
353 ,71.2999 ,1.60688 ,-0.06060 ,-0.59457 
354 ,71.5077 ,1.60903 ,-0.05375 ,-0.52741 
355 ,71.6840 ,1.61086 ,-0.09482 ,-0.93035 
356 ,71.8918 ,1.61280 ,-0.07428 ,-0.72888 
357 ,72.1002 ,1.61491 ,-0.11535 ,-1.13182 
358 ,72.2918 ,1.61688 ,-0.10166 ,-0.99751 
359 ,72.4840 ,1.61873 ,-0.12219 ,-1.19898 
360 ,72.6922 ,1.62080 ,-0.12219 ,-1.19898 
361 ,72.9005 ,1.62292 ,-0.15642 ,-1.53476 
362 ,73.0927 ,1.62484 ,-0.13246 ,-1.29971 
363 ,73.2847 ,1.62679 ,-0.16326 ,-1.60191 
364 ,73.4766 ,1.62866 ,-0.15984 ,-1.56834 
365 ,73.6529 ,1.63052 ,-0.17695 ,-1.73623 
366 ,73.8451 ,1.63232 ,-0.19748 ,-1.93770 
367 ,74.0369 ,1.63427 ,-0.18722 ,-1.83696 
368 ,74.2290 ,1.63616 ,-0.20775 ,-2.03843 
369 ,74.4213 ,1.63809 ,-0.22144 ,-2.17275 
370 ,74.6608 ,1.64054 ,-0.23513 ,-2.30706 
371 ,74.8693 ,1.64256 ,-0.23513 ,-2.30706 
372 ,75.0614 ,1.64452 ,-0.24197 ,-2.37422 
373 ,75.2535 ,1.64647 ,-0.23170 ,-2.27348 
374 ,75.4616 ,1.64855 ,-0.25566 ,-2.50853 
375 ,75.6697 ,1.65062 ,-0.28304 ,-2.77716 
376 ,75.8617 ,1.65252 ,-0.29330 ,-2.87789 
377 ,76.0539 ,1.65444 ,-0.27619 ,-2.71000 
378 ,76.2460 ,1.65635 ,-0.30357 ,-2.97863 
379 ,76.4540 ,1.65845 ,-0.30699 ,-3.01220 
380 ,76.6460 ,1.66036 ,-0.32410 ,-3.18010 
381 ,76.8540 ,1.66246 ,-0.32068 ,-3.14652 
382 ,77.0781 ,1.66463 ,-0.34464 ,-3.38156 
383 ,77.2863 ,1.66679 ,-0.36517 ,-3.58303 
384 ,77.4946 ,1.66884 ,-0.35490 ,-3.48230 
385 ,77.7346 ,1.67116 ,-0.37201 ,-3.65019 
386 ,77.9586 ,1.67336 ,-0.38570 ,-3.78450 
387 ,78.1667 ,1.67548 ,-0.39597 ,-3.88524 
388 ,78.3749 ,1.67765 ,-0.39597 ,-3.88524 
389 ,78.5829 ,1.67969 ,-0.42677 ,-4.18744 
390 ,78.7909 ,1.68179 ,-0.41992 ,-4.12029 
391 ,78.9830 ,1.68372 ,-0.45414 ,-4.45607 
392 ,79.1751 ,1.68562 ,-0.43703 ,-4.28818 
393 ,79.3672 ,1.68754 ,-0.45414 ,-4.45607 
394 ,79.5751 ,1.68963 ,-0.44730 ,-4.38891 
395 ,79.7672 ,1.69157 ,-0.47468 ,-4.65754 
396 ,79.9595 ,1.69348 ,-0.47468 ,-4.65754 
397 ,80.1672 ,1.69553 ,-0.50890 ,-4.99332 
398 ,80.3913 ,1.69763 ,-0.49863 ,-4.89259 
399 ,80.5838 ,1.69983 ,-0.49521 ,-4.85901 
400 ,80.7919 ,1.70177 ,-0.50890 ,-4.99332 
401 ,80.9999 ,1.70384 ,-0.53970 ,-5.29553 
402 ,81.2081 ,1.70600 ,-0.55681 ,-5.46342 
403 ,81.4000 ,1.70793 ,-0.53628 ,-5.26195 
404 ,81.5922 ,1.70974 ,-0.54312 ,-5.32911 
405 ,81.8003 ,1.71188 ,-0.57050 ,-5.59773 
406 ,82.0244 ,1.71404 ,-0.58761 ,-5.76562 
407 ,82.2325 ,1.71620 ,-0.59445 ,-5.83278 
408 ,82.4241 ,1.71808 ,-0.60130 ,-5.89994 
409 ,82.6166 ,1.72002 ,-0.59445 ,-5.83278 
410 ,82.8088 ,1.72200 ,-0.61499 ,-6.03425 
411 ,83.0008 ,1.72392 ,-0.61841 ,-6.06783 
412 ,83.2089 ,1.72598 ,-0.62525 ,-6.13499 
413 ,83.4170 ,1.72802 ,-0.63210 ,-6.20214 
414 ,83.6731 ,1.73026 ,-0.65605 ,-6.43719 
415 ,83.8809 ,1.73267 ,-0.64579 ,-6.33646 
416 ,84.0734 ,1.73459 ,-0.66974 ,-6.57150 
417 ,84.2971 ,1.73677 ,-0.67316 ,-6.60508 
418 ,84.4893 ,1.73875 ,-0.70054 ,-6.87371 
419 ,84.6814 ,1.74066 ,-0.69370 ,-6.80655 
420 ,84.8893 ,1.74273 ,-0.70054 ,-6.87371 
421 ,85.0972 ,1.74480 ,-0.70054 ,-6.87371 
422 ,85.2897 ,1.74672 ,-0.72107 ,-7.07518 
423 ,85.4976 ,1.74878 ,-0.73818 ,-7.24307 
424 ,85.6893 ,1.75073 ,-0.74161 ,-7.27665 
425 ,85.8973 ,1.75277 ,-0.75187 ,-7.37738 
426 ,86.1055 ,1.75482 ,-0.76898 ,-7.54527 
427 ,86.3139 ,1.75695 ,-0.75872 ,-7.44454 
428 ,86.5219 ,1.75908 ,-0.77241 ,-7.57885 
429 ,86.7620 ,1.76137 ,-0.79636 ,-7.81390 
430 ,86.9860 ,1.76369 ,-0.81689 ,-8.01537 
431 ,87.1944 ,1.76576 ,-0.79636 ,-7.81390 
432 ,87.3862 ,1.76769 ,-0.83743 ,-8.21684 
433 ,87.5946 ,1.76976 ,-0.82374 ,-8.08253 
434 ,87.7864 ,1.77172 ,-0.83401 ,-8.18326 
435 ,87.9621 ,1.77357 ,-0.82374 ,-8.08253 
436 ,88.1548 ,1.77539 ,-0.84085 ,-8.25042 
437 ,88.3627 ,1.77742 ,-0.86481 ,-8.48547 
438 ,88.5548 ,1.77936 ,-0.86481 ,-8.48547 
439 ,88.7469 ,1.78131 ,-0.87849 ,-8.61978 
440 ,88.9391 ,1.78325 ,-0.86481 ,-8.48547 
441 ,89.1790 ,1.78549 ,-0.89218 ,-8.75409 
442 ,89.3870 ,1.78772 ,-0.90587 ,-8.88841 
443 ,89.5952 ,1.78972 ,-0.89903 ,-8.82125 
444 ,89.8033 ,1.79189 ,-0.91272 ,-8.95556 
445 ,89.9794 ,1.79376 ,-0.91614 ,-8.98914 
446 ,90.1712 ,1.79559 ,-0.95036 ,-9.32492 
447 ,90.3796 ,1.79765 ,-0.93325 ,-9.15703 
448 ,90.5717 ,1.79956 ,-0.95378 ,-9.35850 
449 ,90.7798 ,1.80161 ,-0.95378 ,-9.35850 
450 ,90.9878 ,1.80368 ,-0.98458 ,-9.66071 
451 ,91.1796 ,1.80562 ,-0.97089 ,-9.52639 
452 ,91.3879 ,1.80769 ,-0.98116 ,-9.62713 
453 ,91.5961 ,1.80976 ,-0.98800 ,-9.69429 
454 ,91.8042 ,1.81181 ,-1.00511 ,-9.86218 
455 ,92.0124 ,1.81397 ,-1.00169 ,-9.82860 
456 ,92.2204 ,1.81600 ,-1.01196 ,-9.92933 
457 ,92.4125 ,1.81797 ,-1.02907 ,-10.09723 
458 ,92.6040 ,1.81996 ,-1.03591 ,-10.16438 
459 ,92.7965 ,1.82180 ,-1.03591 ,-10.16438 
460 ,93.0047 ,1.82388 ,-1.05987 ,-10.39943 
461 ,93.1966 ,1.82575 ,-1.05302 ,-10.33227 
462 ,93.3886 ,1.82770 ,-1.07698 ,-10.56732 
