Data stamp = , 03-05-2022 14:23:04 840

Calibration Values: 
Slope = , 26.54 , g/V 
Offset Voltage at no contact = , -0.501760 , V 

No , Time , Stage Position ,   Mass , Force 
   ,  (s) ,      (mm)      ,   (g)  , (mN)  

1 ,0.0000 ,0.89955 ,5.27114 ,51.72043 
2 ,0.2451 ,0.89966 ,5.26772 ,51.68685 
3 ,0.5977 ,0.90077 ,5.26430 ,51.65327 
4 ,0.8375 ,0.90262 ,5.27456 ,51.75401 
5 ,1.0618 ,0.90470 ,5.25745 ,51.58611 
6 ,1.2698 ,0.90683 ,5.27114 ,51.72043 
7 ,1.4620 ,0.90887 ,5.26087 ,51.61969 
8 ,1.7021 ,0.91112 ,5.22323 ,51.25033 
9 ,1.9101 ,0.91329 ,5.19927 ,51.01528 
10 ,2.1342 ,0.91552 ,5.18559 ,50.88097 
11 ,2.3262 ,0.91755 ,5.16848 ,50.71308 
12 ,2.5502 ,0.91967 ,5.13768 ,50.41087 
13 ,2.7582 ,0.92183 ,5.13768 ,50.41087 
14 ,3.0146 ,0.92424 ,5.11372 ,50.17583 
15 ,3.2385 ,0.92658 ,5.08292 ,49.87362 
16 ,3.4306 ,0.92855 ,5.04870 ,49.53784 
17 ,3.6229 ,0.93049 ,5.05897 ,49.63857 
18 ,3.8149 ,0.93241 ,5.01106 ,49.16848 
19 ,4.0070 ,0.93434 ,4.98710 ,48.93343 
20 ,4.2147 ,0.93638 ,4.96999 ,48.76554 
21 ,4.4232 ,0.93845 ,4.95288 ,48.59764 
22 ,4.6470 ,0.94068 ,4.91181 ,48.19471 
23 ,4.8389 ,0.94263 ,4.90839 ,48.16113 
24 ,5.0313 ,0.94455 ,4.87759 ,47.85892 
25 ,5.2236 ,0.94649 ,4.86048 ,47.69103 
26 ,5.4315 ,0.94855 ,4.84337 ,47.52314 
27 ,5.6236 ,0.95046 ,4.81599 ,47.25451 
28 ,5.8796 ,0.95280 ,4.78861 ,46.98589 
29 ,6.0717 ,0.95501 ,4.76124 ,46.71726 
30 ,6.2479 ,0.95687 ,4.74755 ,46.58295 
31 ,6.4396 ,0.95862 ,4.74413 ,46.54937 
32 ,6.6478 ,0.96073 ,4.70306 ,46.14643 
33 ,6.8562 ,0.96277 ,4.70990 ,46.21359 
34 ,7.0643 ,0.96492 ,4.66542 ,45.77707 
35 ,7.2722 ,0.96694 ,4.64831 ,45.60918 
36 ,7.4644 ,0.96888 ,4.61751 ,45.30697 
37 ,7.6884 ,0.97102 ,4.61408 ,45.27339 
38 ,7.8966 ,0.97321 ,4.59697 ,45.10550 
39 ,8.1204 ,0.97543 ,4.55591 ,44.70256 
40 ,8.3127 ,0.97738 ,4.54564 ,44.60183 
41 ,8.5209 ,0.97945 ,4.51484 ,44.29962 
42 ,8.7129 ,0.98136 ,4.49431 ,44.09815 
43 ,8.9051 ,0.98331 ,4.46693 ,43.82953 
44 ,9.0971 ,0.98523 ,4.47378 ,43.89668 
45 ,9.3052 ,0.98733 ,4.42586 ,43.42659 
46 ,9.4973 ,0.98926 ,4.42586 ,43.42659 
47 ,9.7209 ,0.99140 ,4.38480 ,43.02365 
48 ,9.9294 ,0.99351 ,4.36427 ,42.82218 
49 ,10.1374 ,0.99561 ,4.37795 ,42.95649 
50 ,10.3297 ,0.99749 ,4.31293 ,42.31850 
51 ,10.5377 ,0.99962 ,4.31636 ,42.35208 
52 ,10.7457 ,1.00175 ,4.29240 ,42.11703 
53 ,10.9536 ,1.00375 ,4.30951 ,42.28492 
54 ,11.1936 ,1.00614 ,4.25818 ,41.78125 
55 ,11.4017 ,1.00824 ,4.21369 ,41.34473 
56 ,11.6101 ,1.01028 ,4.21369 ,41.34473 
57 ,11.7856 ,1.01220 ,4.17947 ,41.00895 
58 ,11.9617 ,1.01395 ,4.19316 ,41.14326 
59 ,12.1541 ,1.01581 ,4.16578 ,40.87464 
60 ,12.3622 ,1.01783 ,4.14183 ,40.63959 
61 ,12.5701 ,1.01988 ,4.12471 ,40.47170 
62 ,12.7621 ,1.02186 ,4.10418 ,40.27023 
63 ,12.9545 ,1.02376 ,4.10076 ,40.23665 
64 ,13.1466 ,1.02565 ,4.06654 ,39.90087 
65 ,13.3227 ,1.02755 ,4.04600 ,39.69940 
66 ,13.5309 ,1.02949 ,4.03232 ,39.56508 
67 ,13.7230 ,1.03148 ,4.00494 ,39.29646 
68 ,13.9310 ,1.03352 ,4.01863 ,39.43077 
69 ,14.1386 ,1.03558 ,3.98441 ,39.09499 
70 ,14.3469 ,1.03763 ,3.95361 ,38.79278 
71 ,14.5552 ,1.03970 ,3.95018 ,38.75920 
72 ,14.7471 ,1.04172 ,3.90912 ,38.35626 
73 ,14.9713 ,1.04392 ,3.89201 ,38.18837 
74 ,15.1794 ,1.04600 ,3.88516 ,38.12122 
75 ,15.4035 ,1.04811 ,3.87147 ,37.98690 
76 ,15.6117 ,1.05026 ,3.85779 ,37.85259 
77 ,15.8194 ,1.05240 ,3.81672 ,37.44965 
78 ,16.0118 ,1.05429 ,3.82356 ,37.51681 
79 ,16.2197 ,1.05642 ,3.78592 ,37.14744 
80 ,16.3955 ,1.05827 ,3.79276 ,37.21460 
81 ,16.5877 ,1.06005 ,3.76881 ,36.97955 
82 ,16.7961 ,1.06214 ,3.76539 ,36.94597 
83 ,17.0042 ,1.06423 ,3.70721 ,36.37514 
84 ,17.2121 ,1.06633 ,3.70721 ,36.37514 
85 ,17.4039 ,1.06826 ,3.67983 ,36.10652 
86 ,17.6123 ,1.07025 ,3.67983 ,36.10652 
87 ,17.8044 ,1.07222 ,3.63877 ,35.70358 
88 ,17.9966 ,1.07415 ,3.63877 ,35.70358 
89 ,18.2045 ,1.07623 ,3.60454 ,35.36779 
90 ,18.3967 ,1.07817 ,3.60454 ,35.36779 
91 ,18.6048 ,1.08022 ,3.58743 ,35.19990 
92 ,18.7969 ,1.08216 ,3.57717 ,35.09917 
93 ,19.0370 ,1.08460 ,3.55663 ,34.89770 
94 ,19.2450 ,1.08662 ,3.50872 ,34.42760 
95 ,19.4691 ,1.08885 ,3.51557 ,34.49476 
96 ,19.6610 ,1.09079 ,3.47792 ,34.12540 
97 ,19.8691 ,1.09286 ,3.46766 ,34.02466 
98 ,20.0772 ,1.09499 ,3.45739 ,33.92393 
99 ,20.2694 ,1.09691 ,3.42659 ,33.62172 
100 ,20.4935 ,1.09910 ,3.43686 ,33.72246 
101 ,20.7012 ,1.10117 ,3.37868 ,33.15163 
102 ,20.9098 ,1.10322 ,3.38895 ,33.25236 
103 ,21.1178 ,1.10537 ,3.37526 ,33.11805 
104 ,21.3261 ,1.10739 ,3.34446 ,32.81584 
105 ,21.5339 ,1.10955 ,3.34446 ,32.81584 
106 ,21.7416 ,1.11161 ,3.29997 ,32.37933 
107 ,21.9341 ,1.11360 ,3.31024 ,32.48006 
108 ,22.1262 ,1.11544 ,3.27944 ,32.17786 
109 ,22.3184 ,1.11736 ,3.26233 ,32.00996 
110 ,22.5262 ,1.11937 ,3.24864 ,31.87565 
111 ,22.7184 ,1.12140 ,3.22811 ,31.67418 
112 ,22.9424 ,1.12354 ,3.22126 ,31.60702 
113 ,23.1342 ,1.12551 ,3.20073 ,31.40555 
114 ,23.3266 ,1.12746 ,3.16651 ,31.06977 
115 ,23.5185 ,1.12939 ,3.16309 ,31.03619 
116 ,23.7104 ,1.13134 ,3.14597 ,30.86830 
117 ,23.9024 ,1.13322 ,3.12886 ,30.70041 
118 ,24.1105 ,1.13525 ,3.12202 ,30.63325 
119 ,24.3026 ,1.13720 ,3.08438 ,30.26389 
120 ,24.4948 ,1.13917 ,3.08780 ,30.29747 
121 ,24.6869 ,1.14108 ,3.06042 ,30.02884 
122 ,24.8790 ,1.14299 ,3.04331 ,29.86095 
123 ,25.0710 ,1.14490 ,3.03989 ,29.82737 
124 ,25.2790 ,1.14686 ,3.01935 ,29.62590 
125 ,25.4711 ,1.14890 ,3.01251 ,29.55875 
126 ,25.6793 ,1.15087 ,2.97487 ,29.18939 
127 ,25.8714 ,1.15294 ,2.99198 ,29.35728 
128 ,26.0474 ,1.15478 ,2.95433 ,28.98792 
129 ,26.2234 ,1.15653 ,2.92696 ,28.71929 
130 ,26.4156 ,1.15838 ,2.92011 ,28.65213 
131 ,26.6076 ,1.16027 ,2.90300 ,28.48424 
132 ,26.8157 ,1.16221 ,2.88931 ,28.34993 
133 ,27.0558 ,1.16466 ,2.85167 ,27.98057 
134 ,27.2478 ,1.16669 ,2.85509 ,28.01415 
135 ,27.4240 ,1.16855 ,2.82771 ,27.74552 
136 ,27.6162 ,1.17036 ,2.80718 ,27.54405 
137 ,27.8081 ,1.17228 ,2.81402 ,27.61121 
138 ,28.0167 ,1.17421 ,2.78322 ,27.30900 
139 ,28.2088 ,1.17625 ,2.77980 ,27.27542 
140 ,28.4165 ,1.17824 ,2.74216 ,26.90606 
141 ,28.6251 ,1.18037 ,2.75585 ,27.04038 
142 ,28.8170 ,1.18234 ,2.71820 ,26.67101 
143 ,29.0252 ,1.18438 ,2.71820 ,26.67101 
144 ,29.2492 ,1.18658 ,2.70452 ,26.53670 
145 ,29.4408 ,1.18856 ,2.66687 ,26.16734 
146 ,29.6332 ,1.19049 ,2.67714 ,26.26807 
147 ,29.8254 ,1.19251 ,2.63949 ,25.89871 
148 ,30.0174 ,1.19432 ,2.60869 ,25.59651 
149 ,30.2095 ,1.19636 ,2.62581 ,25.76440 
150 ,30.4016 ,1.19821 ,2.58816 ,25.39504 
151 ,30.6093 ,1.20024 ,2.57789 ,25.29430 
152 ,30.8017 ,1.20215 ,2.55736 ,25.09283 
153 ,31.0099 ,1.20420 ,2.56421 ,25.15999 
154 ,31.2178 ,1.20630 ,2.51972 ,24.72347 
155 ,31.4097 ,1.20821 ,2.52656 ,24.79063 
156 ,31.6339 ,1.21043 ,2.49234 ,24.45485 
157 ,31.8263 ,1.21240 ,2.49918 ,24.52200 
158 ,32.0180 ,1.21436 ,2.46154 ,24.15264 
159 ,32.2261 ,1.21643 ,2.45127 ,24.05191 
160 ,32.4180 ,1.21830 ,2.44101 ,23.95117 
161 ,32.6105 ,1.22022 ,2.42732 ,23.81686 
162 ,32.8345 ,1.22236 ,2.39310 ,23.48108 
163 ,33.0588 ,1.22474 ,2.38625 ,23.41392 
164 ,33.2505 ,1.22665 ,2.37941 ,23.34676 
165 ,33.4428 ,1.22856 ,2.36914 ,23.24603 
166 ,33.6351 ,1.23045 ,2.34177 ,22.97740 
167 ,33.8432 ,1.23258 ,2.33150 ,22.87667 
168 ,34.0508 ,1.23462 ,2.31097 ,22.67520 
169 ,34.2431 ,1.23656 ,2.29043 ,22.47373 
170 ,34.4510 ,1.23867 ,2.28701 ,22.44015 
171 ,34.6594 ,1.24070 ,2.25621 ,22.13794 
172 ,34.8670 ,1.24271 ,2.25963 ,22.17152 
173 ,35.0595 ,1.24475 ,2.23568 ,21.93647 
174 ,35.2675 ,1.24681 ,2.23568 ,21.93647 
175 ,35.4594 ,1.24875 ,2.19119 ,21.49996 
176 ,35.6677 ,1.25080 ,2.19803 ,21.56711 
177 ,35.8594 ,1.25271 ,2.17066 ,21.29849 
178 ,36.0520 ,1.25462 ,2.14670 ,21.06344 
179 ,36.2596 ,1.25672 ,2.13986 ,20.99628 
180 ,36.4681 ,1.25880 ,2.13301 ,20.92912 
181 ,36.6600 ,1.26073 ,2.10906 ,20.69408 
182 ,36.8682 ,1.26277 ,2.09537 ,20.55976 
183 ,37.0598 ,1.26468 ,2.09195 ,20.52619 
184 ,37.2524 ,1.26663 ,2.05430 ,20.15682 
185 ,37.4442 ,1.26857 ,2.06457 ,20.25756 
186 ,37.6525 ,1.27058 ,2.02350 ,19.85462 
187 ,37.8604 ,1.27266 ,2.02693 ,19.88820 
188 ,38.0527 ,1.27465 ,2.00982 ,19.72031 
189 ,38.2448 ,1.27657 ,2.00982 ,19.72031 
190 ,38.4689 ,1.27868 ,1.97559 ,19.38452 
191 ,38.6610 ,1.28074 ,1.97902 ,19.41810 
192 ,38.8689 ,1.28269 ,1.95506 ,19.18305 
193 ,39.0611 ,1.28472 ,1.93453 ,18.98158 
194 ,39.2692 ,1.28683 ,1.92084 ,18.84727 
195 ,39.4770 ,1.28886 ,1.90715 ,18.71296 
196 ,39.6853 ,1.29093 ,1.89346 ,18.57864 
197 ,39.8774 ,1.29285 ,1.87293 ,18.37717 
198 ,40.0694 ,1.29479 ,1.86266 ,18.27644 
199 ,40.2614 ,1.29673 ,1.84213 ,18.07497 
200 ,40.4696 ,1.29886 ,1.81133 ,17.77276 
201 ,40.6776 ,1.30088 ,1.80791 ,17.73919 
202 ,40.8857 ,1.30301 ,1.79422 ,17.60487 
203 ,41.0938 ,1.30501 ,1.77369 ,17.40340 
204 ,41.3019 ,1.30715 ,1.77369 ,17.40340 
205 ,41.5101 ,1.30921 ,1.74631 ,17.13478 
206 ,41.7183 ,1.31128 ,1.73946 ,17.06762 
207 ,41.9423 ,1.31343 ,1.73946 ,17.06762 
208 ,42.1345 ,1.31549 ,1.70182 ,16.69826 
209 ,42.3267 ,1.31738 ,1.71893 ,16.86615 
210 ,42.5182 ,1.31928 ,1.67786 ,16.46321 
211 ,42.7106 ,1.32122 ,1.66418 ,16.32890 
212 ,42.9190 ,1.32323 ,1.66760 ,16.36248 
213 ,43.1268 ,1.32531 ,1.62995 ,15.99311 
214 ,43.3191 ,1.32727 ,1.62995 ,15.99311 
215 ,43.5108 ,1.32922 ,1.60600 ,15.75807 
216 ,43.7191 ,1.33122 ,1.61284 ,15.82522 
217 ,43.9272 ,1.33333 ,1.58204 ,15.52302 
218 ,44.1192 ,1.33531 ,1.57178 ,15.42228 
219 ,44.3113 ,1.33718 ,1.55467 ,15.25439 
220 ,44.5034 ,1.33916 ,1.56493 ,15.35513 
221 ,44.7110 ,1.34117 ,1.52045 ,14.91861 
222 ,44.9033 ,1.34312 ,1.53071 ,15.01934 
223 ,45.0956 ,1.34502 ,1.51018 ,14.81787 
224 ,45.2878 ,1.34700 ,1.48965 ,14.61640 
225 ,45.4958 ,1.34907 ,1.45200 ,14.24704 
226 ,45.6880 ,1.35095 ,1.45885 ,14.31420 
227 ,45.9120 ,1.35318 ,1.42462 ,13.97842 
228 ,46.1201 ,1.35532 ,1.43147 ,14.04557 
229 ,46.3119 ,1.35720 ,1.40067 ,13.74337 
230 ,46.5043 ,1.35920 ,1.40409 ,13.77695 
231 ,46.6961 ,1.36105 ,1.36987 ,13.44116 
232 ,46.9040 ,1.36312 ,1.38698 ,13.60906 
233 ,47.0963 ,1.36504 ,1.36645 ,13.40759 
234 ,47.3206 ,1.36716 ,1.34249 ,13.17254 
235 ,47.5445 ,1.36942 ,1.32538 ,13.00465 
236 ,47.7527 ,1.37156 ,1.31854 ,12.93749 
237 ,47.9604 ,1.37362 ,1.30485 ,12.80318 
238 ,48.1530 ,1.37560 ,1.28089 ,12.56813 
239 ,48.3451 ,1.37755 ,1.28774 ,12.63528 
240 ,48.5532 ,1.37961 ,1.25009 ,12.26592 
241 ,48.7452 ,1.38152 ,1.25352 ,12.29950 
242 ,48.9532 ,1.38364 ,1.22272 ,11.99730 
243 ,49.1451 ,1.38552 ,1.21245 ,11.89656 
244 ,49.3534 ,1.38756 ,1.19876 ,11.76225 
245 ,49.5454 ,1.38955 ,1.19876 ,11.76225 
246 ,49.7376 ,1.39154 ,1.16112 ,11.39289 
247 ,49.9305 ,1.39338 ,1.15427 ,11.32573 
248 ,50.1532 ,1.39551 ,1.15085 ,11.29215 
249 ,50.3458 ,1.39752 ,1.14401 ,11.22500 
250 ,50.5377 ,1.39944 ,1.14401 ,11.22500 
251 ,50.7299 ,1.40135 ,1.10979 ,10.88921 
252 ,50.9378 ,1.40342 ,1.10294 ,10.82206 
253 ,51.1300 ,1.40536 ,1.08241 ,10.62059 
254 ,51.3378 ,1.40740 ,1.09267 ,10.72132 
255 ,51.5464 ,1.40956 ,1.05845 ,10.38554 
256 ,51.7543 ,1.41153 ,1.05503 ,10.35196 
257 ,51.9624 ,1.41367 ,1.03792 ,10.18407 
258 ,52.1544 ,1.41558 ,1.02765 ,10.08333 
259 ,52.3466 ,1.41753 ,1.01396 ,9.94902 
260 ,52.5383 ,1.41944 ,1.00028 ,9.81471 
261 ,52.7308 ,1.42135 ,0.97290 ,9.54608 
262 ,52.9389 ,1.42349 ,0.97632 ,9.57966 
263 ,53.1469 ,1.42549 ,0.94552 ,9.27745 
264 ,53.3546 ,1.42757 ,0.94894 ,9.31103 
265 ,53.5628 ,1.42966 ,0.92841 ,9.10956 
266 ,53.7709 ,1.43174 ,0.91130 ,8.94167 
267 ,53.9790 ,1.43381 ,0.91130 ,8.94167 
268 ,54.1713 ,1.43578 ,0.88392 ,8.67305 
269 ,54.3792 ,1.43779 ,0.87708 ,8.60589 
270 ,54.5874 ,1.43985 ,0.85997 ,8.43800 
271 ,54.7793 ,1.44186 ,0.86681 ,8.50515 
272 ,54.9713 ,1.44372 ,0.84286 ,8.27011 
273 ,55.1473 ,1.44565 ,0.81890 ,8.03506 
274 ,55.3394 ,1.44746 ,0.82917 ,8.13579 
275 ,55.5317 ,1.44935 ,0.81206 ,7.96790 
276 ,55.7400 ,1.45149 ,0.79837 ,7.83359 
277 ,55.9478 ,1.45353 ,0.78126 ,7.66570 
278 ,56.1402 ,1.45543 ,0.79152 ,7.76643 
279 ,56.3322 ,1.45738 ,0.75730 ,7.43065 
280 ,56.5401 ,1.45947 ,0.76415 ,7.49780 
281 ,56.7322 ,1.46137 ,0.73677 ,7.22918 
282 ,56.9401 ,1.46343 ,0.73335 ,7.19560 
283 ,57.1325 ,1.46544 ,0.71624 ,7.02771 
284 ,57.3247 ,1.46742 ,0.70255 ,6.89340 
285 ,57.5167 ,1.46922 ,0.68886 ,6.75908 
286 ,57.7247 ,1.47132 ,0.66833 ,6.55761 
287 ,57.9330 ,1.47331 ,0.67517 ,6.62477 
288 ,58.1410 ,1.47545 ,0.65464 ,6.42330 
289 ,58.3652 ,1.47751 ,0.63068 ,6.18825 
290 ,58.5732 ,1.47971 ,0.63753 ,6.25541 
291 ,58.7812 ,1.48177 ,0.59988 ,5.88605 
292 ,59.0212 ,1.48414 ,0.58619 ,5.75173 
293 ,59.2291 ,1.48633 ,0.57935 ,5.68458 
294 ,59.4373 ,1.48841 ,0.56908 ,5.58384 
295 ,59.6297 ,1.49034 ,0.54513 ,5.34879 
296 ,59.8373 ,1.49236 ,0.53144 ,5.21448 
297 ,60.0451 ,1.49459 ,0.52802 ,5.18090 
298 ,60.2535 ,1.49650 ,0.53828 ,5.28164 
299 ,60.4940 ,1.49894 ,0.50748 ,4.97943 
300 ,60.7019 ,1.50102 ,0.48011 ,4.71081 
301 ,60.8941 ,1.50294 ,0.48695 ,4.77796 
302 ,61.0857 ,1.50485 ,0.46984 ,4.61007 
303 ,61.2782 ,1.50678 ,0.47326 ,4.64365 
304 ,61.4702 ,1.50885 ,0.44588 ,4.37502 
305 ,61.6624 ,1.51060 ,0.42535 ,4.17355 
306 ,61.8705 ,1.51271 ,0.42877 ,4.20713 
307 ,62.0626 ,1.51466 ,0.40824 ,4.00566 
308 ,62.2705 ,1.51679 ,0.41851 ,4.10640 
309 ,62.4787 ,1.51882 ,0.39797 ,3.90493 
310 ,62.6869 ,1.52092 ,0.37060 ,3.63630 
311 ,62.8948 ,1.52306 ,0.38086 ,3.73703 
312 ,63.0870 ,1.52491 ,0.34322 ,3.36767 
313 ,63.2788 ,1.52678 ,0.34322 ,3.36767 
314 ,63.4711 ,1.52871 ,0.34322 ,3.36767 
315 ,63.6790 ,1.53077 ,0.31926 ,3.13263 
316 ,63.8873 ,1.53291 ,0.32269 ,3.16620 
317 ,64.0795 ,1.53482 ,0.30215 ,2.96473 
318 ,64.2871 ,1.53685 ,0.28847 ,2.83042 
319 ,64.4793 ,1.53881 ,0.28504 ,2.79684 
320 ,64.7036 ,1.54103 ,0.25767 ,2.52822 
321 ,64.8958 ,1.54303 ,0.27135 ,2.66253 
322 ,65.1039 ,1.54505 ,0.24740 ,2.42748 
323 ,65.3119 ,1.54712 ,0.24398 ,2.39390 
324 ,65.5198 ,1.54915 ,0.21660 ,2.12528 
325 ,65.7282 ,1.55131 ,0.20633 ,2.02454 
326 ,65.9360 ,1.55336 ,0.20291 ,1.99096 
327 ,66.1283 ,1.55530 ,0.19949 ,1.95738 
328 ,66.3203 ,1.55724 ,0.18922 ,1.85665 
329 ,66.5120 ,1.55913 ,0.19264 ,1.89023 
330 ,66.7045 ,1.56101 ,0.13789 ,1.35298 
331 ,66.8965 ,1.56301 ,0.12762 ,1.25224 
332 ,67.1047 ,1.56508 ,0.13789 ,1.35298 
333 ,67.3128 ,1.56713 ,0.14473 ,1.42013 
334 ,67.5204 ,1.56925 ,0.13105 ,1.28582 
335 ,67.7291 ,1.57123 ,0.12762 ,1.25224 
336 ,67.9369 ,1.57334 ,0.11393 ,1.11793 
337 ,68.1290 ,1.57531 ,0.07971 ,0.78214 
338 ,68.3211 ,1.57719 ,0.05918 ,0.58067 
339 ,68.5290 ,1.57928 ,0.05918 ,0.58067 
340 ,68.7050 ,1.58117 ,0.04549 ,0.44636 
341 ,68.8969 ,1.58293 ,0.04549 ,0.44636 
342 ,69.1375 ,1.58521 ,0.03865 ,0.37920 
343 ,69.3456 ,1.58742 ,0.03180 ,0.31205 
344 ,69.5377 ,1.58939 ,0.01127 ,0.11058 
345 ,69.7294 ,1.59130 ,0.00100 ,0.00984 
346 ,69.9379 ,1.59334 ,-0.03322 ,-0.32594 
347 ,70.1619 ,1.59554 ,-0.03322 ,-0.32594 
348 ,70.3859 ,1.59782 ,-0.02637 ,-0.25878 
349 ,70.5780 ,1.59976 ,-0.05375 ,-0.52741 
350 ,70.7861 ,1.60184 ,-0.05717 ,-0.56099 
351 ,70.9942 ,1.60391 ,-0.07771 ,-0.76246 
352 ,71.2023 ,1.60599 ,-0.08797 ,-0.86319 
353 ,71.4103 ,1.60803 ,-0.07428 ,-0.72888 
354 ,71.6185 ,1.61018 ,-0.09824 ,-0.96393 
355 ,71.8103 ,1.61212 ,-0.08797 ,-0.86319 
356 ,72.0025 ,1.61398 ,-0.12562 ,-1.23255 
357 ,72.2105 ,1.61605 ,-0.11535 ,-1.13182 
358 ,72.4026 ,1.61799 ,-0.12904 ,-1.26613 
359 ,72.5946 ,1.61993 ,-0.14273 ,-1.40045 
360 ,72.7870 ,1.62185 ,-0.13246 ,-1.29971 
361 ,73.0107 ,1.62402 ,-0.15984 ,-1.56834 
362 ,73.2191 ,1.62622 ,-0.18037 ,-1.76981 
363 ,73.4271 ,1.62828 ,-0.17695 ,-1.73623 
364 ,73.6193 ,1.63017 ,-0.19748 ,-1.93770 
365 ,73.8273 ,1.63226 ,-0.20775 ,-2.03843 
366 ,74.0195 ,1.63417 ,-0.21117 ,-2.07201 
367 ,74.2274 ,1.63625 ,-0.20775 ,-2.03843 
368 ,74.4191 ,1.63816 ,-0.23513 ,-2.30706 
369 ,74.6116 ,1.64013 ,-0.22486 ,-2.20632 
370 ,74.8038 ,1.64201 ,-0.25566 ,-2.50853 
371 ,75.0439 ,1.64424 ,-0.24881 ,-2.44137 
372 ,75.2515 ,1.64648 ,-0.26250 ,-2.57569 
373 ,75.4601 ,1.64855 ,-0.29673 ,-2.91147 
374 ,75.6682 ,1.65065 ,-0.27619 ,-2.71000 
375 ,75.8762 ,1.65269 ,-0.29673 ,-2.91147 
376 ,76.0841 ,1.65476 ,-0.29673 ,-2.91147 
377 ,76.2923 ,1.65686 ,-0.31041 ,-3.04578 
378 ,76.5004 ,1.65890 ,-0.33437 ,-3.28083 
379 ,76.7246 ,1.66118 ,-0.33095 ,-3.24725 
380 ,76.9328 ,1.66329 ,-0.35490 ,-3.48230 
381 ,77.1407 ,1.66532 ,-0.37201 ,-3.65019 
382 ,77.3326 ,1.66731 ,-0.36517 ,-3.58303 
383 ,77.5248 ,1.66922 ,-0.37201 ,-3.65019 
384 ,77.7170 ,1.67112 ,-0.39255 ,-3.85166 
385 ,77.9084 ,1.67306 ,-0.37886 ,-3.71735 
386 ,78.1333 ,1.67527 ,-0.41650 ,-4.08671 
387 ,78.3408 ,1.67737 ,-0.41650 ,-4.08671 
388 ,78.5168 ,1.67926 ,-0.42677 ,-4.18744 
389 ,78.7093 ,1.68107 ,-0.42335 ,-4.15387 
390 ,78.9175 ,1.68311 ,-0.45072 ,-4.42249 
391 ,79.1252 ,1.68520 ,-0.44388 ,-4.35534 
392 ,79.3338 ,1.68716 ,-0.46783 ,-4.59038 
393 ,79.5257 ,1.68921 ,-0.47810 ,-4.69112 
394 ,79.7339 ,1.69122 ,-0.50206 ,-4.92617 
395 ,79.9416 ,1.69334 ,-0.50890 ,-4.99332 
396 ,80.1340 ,1.69528 ,-0.50206 ,-4.92617 
397 ,80.3420 ,1.69738 ,-0.51917 ,-5.09406 
398 ,80.5660 ,1.69958 ,-0.52259 ,-5.12764 
399 ,80.7582 ,1.70149 ,-0.56023 ,-5.49700 
400 ,80.9342 ,1.70340 ,-0.53285 ,-5.22837 
401 ,81.1263 ,1.70525 ,-0.53970 ,-5.29553 
402 ,81.3184 ,1.70713 ,-0.56365 ,-5.53058 
403 ,81.5105 ,1.70903 ,-0.56365 ,-5.53058 
404 ,81.7186 ,1.71107 ,-0.58077 ,-5.69847 
405 ,81.9424 ,1.71334 ,-0.57050 ,-5.59773 
406 ,82.1826 ,1.71572 ,-0.58077 ,-5.69847 
407 ,82.3908 ,1.71783 ,-0.59445 ,-5.83278 
408 ,82.5825 ,1.71978 ,-0.61841 ,-6.06783 
409 ,82.7910 ,1.72184 ,-0.61841 ,-6.06783 
410 ,83.0151 ,1.72410 ,-0.64236 ,-6.30288 
411 ,83.2231 ,1.72614 ,-0.61841 ,-6.06783 
412 ,83.4311 ,1.72825 ,-0.64579 ,-6.33646 
413 ,83.6233 ,1.73018 ,-0.64921 ,-6.37003 
414 ,83.8152 ,1.73210 ,-0.68343 ,-6.70582 
415 ,84.0071 ,1.73398 ,-0.65605 ,-6.43719 
416 ,84.1992 ,1.73588 ,-0.69712 ,-6.84013 
417 ,84.3915 ,1.73784 ,-0.69370 ,-6.80655 
418 ,84.5837 ,1.73974 ,-0.70054 ,-6.87371 
419 ,84.7918 ,1.74184 ,-0.71765 ,-7.04160 
420 ,84.9835 ,1.74379 ,-0.70054 ,-6.87371 
421 ,85.2080 ,1.74588 ,-0.74503 ,-7.31023 
422 ,85.4159 ,1.74812 ,-0.75530 ,-7.41096 
423 ,85.6081 ,1.75003 ,-0.74503 ,-7.31023 
424 ,85.8162 ,1.75207 ,-0.76556 ,-7.51170 
425 ,86.0082 ,1.75404 ,-0.76214 ,-7.47812 
426 ,86.2003 ,1.75589 ,-0.78267 ,-7.67959 
427 ,86.3923 ,1.75781 ,-0.77925 ,-7.64601 
428 ,86.5844 ,1.75978 ,-0.78267 ,-7.67959 
429 ,86.7605 ,1.76165 ,-0.80663 ,-7.91464 
430 ,86.9522 ,1.76347 ,-0.83058 ,-8.14968 
431 ,87.1446 ,1.76541 ,-0.81689 ,-8.01537 
432 ,87.3525 ,1.76748 ,-0.83401 ,-8.18326 
433 ,87.5608 ,1.76949 ,-0.82716 ,-8.11611 
434 ,87.7529 ,1.77146 ,-0.85112 ,-8.35115 
435 ,87.9768 ,1.77363 ,-0.86138 ,-8.45189 
436 ,88.1850 ,1.77573 ,-0.86138 ,-8.45189 
437 ,88.3608 ,1.77764 ,-0.89218 ,-8.75409 
438 ,88.5531 ,1.77940 ,-0.90245 ,-8.85483 
439 ,88.7450 ,1.78137 ,-0.88876 ,-8.72051 
440 ,88.9694 ,1.78360 ,-0.89903 ,-8.82125 
441 ,89.1775 ,1.78564 ,-0.90929 ,-8.92198 
442 ,89.3693 ,1.78763 ,-0.92983 ,-9.12345 
443 ,89.5937 ,1.78973 ,-0.92983 ,-9.12345 
444 ,89.8017 ,1.79196 ,-0.93325 ,-9.15703 
445 ,90.0258 ,1.79403 ,-0.95378 ,-9.35850 
446 ,90.2341 ,1.79623 ,-0.96405 ,-9.45924 
447 ,90.4422 ,1.79829 ,-0.96063 ,-9.42566 
448 ,90.6499 ,1.80042 ,-0.98458 ,-9.66071 
449 ,90.8582 ,1.80249 ,-0.98116 ,-9.62713 
450 ,91.0501 ,1.80441 ,-0.99143 ,-9.72786 
451 ,91.2743 ,1.80652 ,-0.99485 ,-9.76144 
452 ,91.4660 ,1.80870 ,-1.00511 ,-9.86218 
453 ,91.6420 ,1.81044 ,-0.99827 ,-9.79502 
454 ,91.8345 ,1.81227 ,-1.02222 ,-10.03007 
455 ,92.0261 ,1.81428 ,-1.01538 ,-9.96291 
456 ,92.2185 ,1.81611 ,-1.02907 ,-10.09723 
457 ,92.4428 ,1.81829 ,-1.03934 ,-10.19796 
458 ,92.6350 ,1.82024 ,-1.05987 ,-10.39943 
459 ,92.8430 ,1.82229 ,-1.04960 ,-10.29869 
460 ,93.1471 ,1.82492 ,-1.07014 ,-10.50016 
461 ,93.3709 ,1.82757 ,-1.08725 ,-10.66806 
462 ,93.5630 ,1.82954 ,-1.07356 ,-10.53374 
