Data stamp = , 03-05-2022 04:40:22 709

Calibration Values: 
Slope = , 26.54 , g/V 
Offset Voltage at no contact = , -0.501760 , V 

No , Time , Stage Position ,   Mass , Force 
   ,  (s) ,      (mm)      ,   (g)  , (mN)  

1 ,0.0000 ,0.89946 ,5.31905 ,52.19052 
2 ,0.2180 ,0.89953 ,5.32247 ,52.22410 
3 ,0.8103 ,0.90198 ,5.30878 ,52.08979 
4 ,1.0507 ,0.90453 ,5.32932 ,52.29126 
5 ,1.2584 ,0.90667 ,5.31221 ,52.12337 
6 ,1.4668 ,0.90882 ,5.29852 ,51.98905 
7 ,1.6748 ,0.91094 ,5.28483 ,51.85474 
8 ,1.8988 ,0.91309 ,5.26087 ,51.61969 
9 ,2.1070 ,0.91526 ,5.23692 ,51.38464 
10 ,2.3148 ,0.91728 ,5.24034 ,51.41822 
11 ,2.5228 ,0.91944 ,5.20612 ,51.08244 
12 ,2.7151 ,0.92131 ,5.18216 ,50.84739 
13 ,2.9232 ,0.92343 ,5.16505 ,50.67950 
14 ,3.1150 ,0.92530 ,5.14794 ,50.51161 
15 ,3.3074 ,0.92728 ,5.11372 ,50.17583 
16 ,3.4996 ,0.92918 ,5.11030 ,50.14225 
17 ,3.7077 ,0.93119 ,5.07608 ,49.80646 
18 ,3.8994 ,0.93330 ,5.06581 ,49.70573 
19 ,4.1078 ,0.93520 ,5.03159 ,49.36995 
20 ,4.2998 ,0.93733 ,5.02474 ,49.30279 
21 ,4.4916 ,0.93907 ,5.00079 ,49.06774 
22 ,4.6842 ,0.94103 ,4.96657 ,48.73196 
23 ,4.8922 ,0.94314 ,4.95288 ,48.59764 
24 ,5.0840 ,0.94514 ,4.93577 ,48.42975 
25 ,5.2759 ,0.94705 ,4.91181 ,48.19471 
26 ,5.4846 ,0.94906 ,4.88786 ,47.95966 
27 ,5.6923 ,0.95113 ,4.85706 ,47.65745 
28 ,5.8846 ,0.95302 ,4.85021 ,47.59030 
29 ,6.0922 ,0.95509 ,4.82626 ,47.35525 
30 ,6.2844 ,0.95712 ,4.80915 ,47.18736 
31 ,6.4766 ,0.95896 ,4.79204 ,47.01946 
32 ,6.6689 ,0.96086 ,4.75439 ,46.65010 
33 ,6.8769 ,0.96296 ,4.75782 ,46.68368 
34 ,7.0690 ,0.96487 ,4.72359 ,46.34790 
35 ,7.2767 ,0.96697 ,4.71333 ,46.24716 
36 ,7.4693 ,0.96887 ,4.66884 ,45.81065 
37 ,7.6774 ,0.97094 ,4.67226 ,45.84422 
38 ,7.8694 ,0.97286 ,4.63462 ,45.47486 
39 ,8.0775 ,0.97496 ,4.63119 ,45.44128 
40 ,8.2855 ,0.97697 ,4.59355 ,45.07192 
41 ,8.5094 ,0.97926 ,4.56960 ,44.83688 
42 ,8.7178 ,0.98133 ,4.56275 ,44.76972 
43 ,8.9097 ,0.98330 ,4.52853 ,44.43394 
44 ,9.1179 ,0.98532 ,4.53195 ,44.46751 
45 ,9.3099 ,0.98726 ,4.48746 ,44.03100 
46 ,9.5019 ,0.98927 ,4.49089 ,44.06457 
47 ,9.6942 ,0.99107 ,4.46693 ,43.82953 
48 ,9.9023 ,0.99318 ,4.44298 ,43.59448 
49 ,10.0942 ,0.99509 ,4.42244 ,43.39301 
50 ,10.3024 ,0.99720 ,4.40875 ,43.25870 
51 ,10.5099 ,0.99923 ,4.37795 ,42.95649 
52 ,10.7025 ,1.00124 ,4.34373 ,42.62071 
53 ,10.8945 ,1.00325 ,4.35058 ,42.68786 
54 ,11.1027 ,1.00509 ,4.31293 ,42.31850 
55 ,11.2943 ,1.00723 ,4.29924 ,42.18419 
56 ,11.4869 ,1.00905 ,4.27187 ,41.91556 
57 ,11.6946 ,1.01112 ,4.26845 ,41.88198 
58 ,11.8870 ,1.01302 ,4.24107 ,41.61336 
59 ,12.0949 ,1.01506 ,4.24107 ,41.61336 
60 ,12.2867 ,1.01716 ,4.21369 ,41.34473 
61 ,12.4792 ,1.01893 ,4.20342 ,41.24400 
62 ,12.6713 ,1.02089 ,4.16920 ,40.90821 
63 ,12.8951 ,1.02310 ,4.15551 ,40.77390 
64 ,13.1035 ,1.02514 ,4.13498 ,40.57243 
65 ,13.3114 ,1.02727 ,4.10760 ,40.30380 
66 ,13.5037 ,1.02918 ,4.09049 ,40.13591 
67 ,13.7114 ,1.03128 ,4.06312 ,39.86729 
68 ,13.9037 ,1.03319 ,4.06312 ,39.86729 
69 ,14.0954 ,1.03510 ,4.03574 ,39.59866 
70 ,14.2881 ,1.03702 ,4.00494 ,39.29646 
71 ,14.5440 ,1.03949 ,3.99125 ,39.16214 
72 ,14.7521 ,1.04172 ,3.97414 ,38.99425 
73 ,14.9596 ,1.04367 ,3.95018 ,38.75920 
74 ,15.1522 ,1.04565 ,3.92623 ,38.52415 
75 ,15.3603 ,1.04769 ,3.92281 ,38.49058 
76 ,15.5683 ,1.04982 ,3.88174 ,38.08764 
77 ,15.7604 ,1.05174 ,3.89885 ,38.25553 
78 ,15.9684 ,1.05384 ,3.85779 ,37.85259 
79 ,16.1766 ,1.05590 ,3.84410 ,37.71828 
80 ,16.3848 ,1.05804 ,3.83041 ,37.58396 
81 ,16.5766 ,1.05995 ,3.82356 ,37.51681 
82 ,16.7688 ,1.06186 ,3.77223 ,37.01313 
83 ,16.9930 ,1.06399 ,3.77565 ,37.04671 
84 ,17.2008 ,1.06614 ,3.76196 ,36.91240 
85 ,17.3771 ,1.06801 ,3.73459 ,36.64377 
86 ,17.5688 ,1.06982 ,3.71405 ,36.44230 
87 ,17.7613 ,1.07178 ,3.69694 ,36.27441 
88 ,17.9691 ,1.07380 ,3.66957 ,36.00578 
89 ,18.1614 ,1.07571 ,3.66272 ,35.93863 
90 ,18.3532 ,1.07772 ,3.64903 ,35.80431 
91 ,18.5456 ,1.07963 ,3.62850 ,35.60284 
92 ,18.7537 ,1.08164 ,3.61481 ,35.46853 
93 ,18.9618 ,1.08374 ,3.59086 ,35.23348 
94 ,19.1539 ,1.08568 ,3.57032 ,35.03201 
95 ,19.3615 ,1.08770 ,3.55663 ,34.89770 
96 ,19.5540 ,1.08965 ,3.55321 ,34.86412 
97 ,19.7781 ,1.09191 ,3.52584 ,34.59549 
98 ,19.9701 ,1.09382 ,3.49846 ,34.32687 
99 ,20.1619 ,1.09575 ,3.48819 ,34.22613 
100 ,20.3543 ,1.09764 ,3.48477 ,34.19255 
101 ,20.5464 ,1.09962 ,3.45739 ,33.92393 
102 ,20.7545 ,1.10168 ,3.45397 ,33.89035 
103 ,20.9466 ,1.10359 ,3.41975 ,33.55457 
104 ,21.1387 ,1.10550 ,3.41975 ,33.55457 
105 ,21.3307 ,1.10744 ,3.37184 ,33.08447 
106 ,21.5224 ,1.10930 ,3.37526 ,33.11805 
107 ,21.7309 ,1.11143 ,3.36499 ,33.01731 
108 ,21.9387 ,1.11347 ,3.34446 ,32.81584 
109 ,22.1628 ,1.11577 ,3.32051 ,32.58080 
110 ,22.3551 ,1.11768 ,3.30339 ,32.41290 
111 ,22.5789 ,1.11990 ,3.29655 ,32.34575 
112 ,22.7713 ,1.12184 ,3.26917 ,32.07712 
113 ,22.9789 ,1.12392 ,3.25548 ,31.94281 
114 ,23.1715 ,1.12579 ,3.23153 ,31.70776 
115 ,23.3794 ,1.12792 ,3.21784 ,31.57345 
116 ,23.5716 ,1.12982 ,3.21442 ,31.53987 
117 ,23.7633 ,1.13175 ,3.16993 ,31.10335 
118 ,23.9558 ,1.13370 ,3.17335 ,31.13693 
119 ,24.1477 ,1.13560 ,3.14255 ,30.83472 
120 ,24.3555 ,1.13764 ,3.14597 ,30.86830 
121 ,24.5634 ,1.13977 ,3.11175 ,30.53252 
122 ,24.7716 ,1.14179 ,3.10833 ,30.49894 
123 ,24.9800 ,1.14392 ,3.09122 ,30.33105 
124 ,25.1888 ,1.14597 ,3.05700 ,29.99527 
125 ,25.3964 ,1.14809 ,3.05015 ,29.92811 
126 ,25.6044 ,1.15014 ,3.02620 ,29.69306 
127 ,25.7966 ,1.15208 ,3.02278 ,29.65948 
128 ,26.0041 ,1.15412 ,2.99198 ,29.35728 
129 ,26.1967 ,1.15610 ,2.98171 ,29.25654 
130 ,26.4045 ,1.15814 ,2.96118 ,29.05507 
131 ,26.5967 ,1.16008 ,2.94407 ,28.88718 
132 ,26.7891 ,1.16196 ,2.93380 ,28.78645 
133 ,26.9969 ,1.16405 ,2.92696 ,28.71929 
134 ,27.2047 ,1.16612 ,2.88931 ,28.34993 
135 ,27.4131 ,1.16820 ,2.88247 ,28.28277 
136 ,27.6048 ,1.17016 ,2.86193 ,28.08130 
137 ,27.7973 ,1.17206 ,2.85509 ,28.01415 
138 ,28.0055 ,1.17415 ,2.82429 ,27.71194 
139 ,28.1969 ,1.17606 ,2.82771 ,27.74552 
140 ,28.3895 ,1.17795 ,2.80034 ,27.47689 
141 ,28.6136 ,1.18015 ,2.79349 ,27.40974 
142 ,28.8057 ,1.18218 ,2.75243 ,27.00680 
143 ,29.0137 ,1.18424 ,2.75243 ,27.00680 
144 ,29.2057 ,1.18614 ,2.71136 ,26.60386 
145 ,29.3977 ,1.18808 ,2.72505 ,26.73817 
146 ,29.6057 ,1.19001 ,2.71478 ,26.63744 
147 ,29.7976 ,1.19218 ,2.70109 ,26.50312 
148 ,29.9897 ,1.19399 ,2.66687 ,26.16734 
149 ,30.1818 ,1.19591 ,2.65318 ,26.03303 
150 ,30.3738 ,1.19782 ,2.64634 ,25.96587 
151 ,30.5821 ,1.19986 ,2.60869 ,25.59651 
152 ,30.7907 ,1.20202 ,2.60527 ,25.56293 
153 ,30.9986 ,1.20409 ,2.59158 ,25.42862 
154 ,31.1908 ,1.20600 ,2.58132 ,25.32788 
155 ,31.3987 ,1.20808 ,2.55736 ,25.09283 
156 ,31.6068 ,1.21012 ,2.54025 ,24.92494 
157 ,31.7985 ,1.21219 ,2.52656 ,24.79063 
158 ,31.9909 ,1.21395 ,2.51630 ,24.68989 
159 ,32.1831 ,1.21594 ,2.48207 ,24.35411 
160 ,32.3910 ,1.21795 ,2.49234 ,24.45485 
161 ,32.5827 ,1.21990 ,2.44443 ,23.98475 
162 ,32.7753 ,1.22185 ,2.45470 ,24.08549 
163 ,32.9833 ,1.22387 ,2.42048 ,23.74970 
164 ,33.1754 ,1.22580 ,2.42048 ,23.74970 
165 ,33.3675 ,1.22774 ,2.41021 ,23.64897 
166 ,33.5595 ,1.22967 ,2.38625 ,23.41392 
167 ,33.7517 ,1.23159 ,2.38968 ,23.44750 
168 ,33.9598 ,1.23365 ,2.35203 ,23.07814 
169 ,34.1516 ,1.23557 ,2.34861 ,23.04456 
170 ,34.3436 ,1.23760 ,2.32808 ,22.84309 
171 ,34.5680 ,1.23959 ,2.31439 ,22.70877 
172 ,34.7756 ,1.24184 ,2.29728 ,22.54088 
173 ,34.9682 ,1.24370 ,2.28359 ,22.40657 
174 ,35.1923 ,1.24590 ,2.26648 ,22.23868 
175 ,35.3844 ,1.24792 ,2.24252 ,22.00363 
176 ,35.5764 ,1.24987 ,2.22883 ,21.86932 
177 ,35.7684 ,1.25175 ,2.22199 ,21.80216 
178 ,35.9765 ,1.25386 ,2.20830 ,21.66785 
179 ,36.1687 ,1.25574 ,2.18435 ,21.43280 
180 ,36.3768 ,1.25780 ,2.16039 ,21.19775 
181 ,36.5689 ,1.25978 ,2.16039 ,21.19775 
182 ,36.7610 ,1.26168 ,2.13644 ,20.96270 
183 ,36.9685 ,1.26374 ,2.12959 ,20.89555 
184 ,37.1767 ,1.26583 ,2.10906 ,20.69408 
185 ,37.3688 ,1.26772 ,2.08852 ,20.49261 
186 ,37.5608 ,1.26966 ,2.07484 ,20.35829 
187 ,37.7371 ,1.27156 ,2.05773 ,20.19040 
188 ,37.9292 ,1.27334 ,2.05773 ,20.19040 
189 ,38.1535 ,1.27554 ,2.04061 ,20.02251 
190 ,38.3457 ,1.27753 ,2.02350 ,19.85462 
191 ,38.5697 ,1.27975 ,2.01666 ,19.78746 
192 ,38.7457 ,1.28169 ,1.98244 ,19.45168 
193 ,38.9378 ,1.28345 ,1.96875 ,19.31737 
194 ,39.1299 ,1.28533 ,1.97559 ,19.38452 
195 ,39.3699 ,1.28765 ,1.94137 ,19.04874 
196 ,39.5780 ,1.28983 ,1.92426 ,18.88085 
197 ,39.7862 ,1.29186 ,1.91742 ,18.81369 
198 ,39.9782 ,1.29386 ,1.90373 ,18.67938 
199 ,40.1704 ,1.29575 ,1.89688 ,18.61222 
200 ,40.3620 ,1.29766 ,1.85582 ,18.20928 
201 ,40.5545 ,1.29962 ,1.86951 ,18.34360 
202 ,40.7465 ,1.30152 ,1.84213 ,18.07497 
203 ,40.9385 ,1.30343 ,1.82502 ,17.90708 
204 ,41.1468 ,1.30550 ,1.81133 ,17.77276 
205 ,41.3549 ,1.30759 ,1.79764 ,17.63845 
206 ,41.6269 ,1.31021 ,1.77369 ,17.40340 
207 ,41.8510 ,1.31254 ,1.77369 ,17.40340 
208 ,42.0431 ,1.31453 ,1.73946 ,17.06762 
209 ,42.2511 ,1.31652 ,1.73262 ,17.00046 
210 ,42.4433 ,1.31849 ,1.71893 ,16.86615 
211 ,42.6673 ,1.32068 ,1.71209 ,16.79899 
212 ,42.8915 ,1.32289 ,1.68813 ,16.56395 
213 ,43.0833 ,1.32489 ,1.66760 ,16.36248 
214 ,43.2755 ,1.32678 ,1.65391 ,16.22816 
215 ,43.4996 ,1.32888 ,1.64364 ,16.12743 
216 ,43.6921 ,1.33095 ,1.62995 ,15.99311 
217 ,43.8998 ,1.33307 ,1.60600 ,15.75807 
218 ,44.1079 ,1.33512 ,1.60600 ,15.75807 
219 ,44.3160 ,1.33723 ,1.57862 ,15.48944 
220 ,44.5241 ,1.33916 ,1.58547 ,15.55660 
221 ,44.7317 ,1.34135 ,1.55467 ,15.25439 
222 ,44.9399 ,1.34339 ,1.53756 ,15.08650 
223 ,45.1484 ,1.34551 ,1.53071 ,15.01934 
224 ,45.3400 ,1.34747 ,1.49307 ,14.64998 
225 ,45.5324 ,1.34933 ,1.49307 ,14.64998 
226 ,45.7243 ,1.35130 ,1.47596 ,14.48209 
227 ,45.9325 ,1.35340 ,1.47938 ,14.51567 
228 ,46.1244 ,1.35526 ,1.46227 ,14.34778 
229 ,46.3168 ,1.35717 ,1.43147 ,14.04557 
230 ,46.5087 ,1.35913 ,1.42120 ,13.94484 
231 ,46.7167 ,1.36117 ,1.40751 ,13.81053 
232 ,46.9084 ,1.36312 ,1.40751 ,13.81053 
233 ,47.1171 ,1.36516 ,1.36645 ,13.40759 
234 ,47.3411 ,1.36742 ,1.36645 ,13.40759 
235 ,47.5490 ,1.36950 ,1.36645 ,13.40759 
236 ,47.7414 ,1.37143 ,1.32196 ,12.97107 
237 ,47.9495 ,1.37351 ,1.33565 ,13.10538 
238 ,48.1414 ,1.37550 ,1.30485 ,12.80318 
239 ,48.3335 ,1.37735 ,1.29800 ,12.73602 
240 ,48.5256 ,1.37930 ,1.28774 ,12.63528 
241 ,48.7177 ,1.38118 ,1.26720 ,12.43381 
242 ,48.9258 ,1.38329 ,1.26378 ,12.40024 
243 ,49.1335 ,1.38533 ,1.25009 ,12.26592 
244 ,49.3260 ,1.38730 ,1.23641 ,12.13161 
245 ,49.5499 ,1.38937 ,1.21245 ,11.89656 
246 ,49.7582 ,1.39160 ,1.20218 ,11.79583 
247 ,49.9662 ,1.39363 ,1.20218 ,11.79583 
248 ,50.1744 ,1.39576 ,1.17823 ,11.56078 
249 ,50.3980 ,1.39796 ,1.15085 ,11.29215 
250 ,50.5906 ,1.39992 ,1.13716 ,11.15784 
251 ,50.7981 ,1.40199 ,1.13032 ,11.09068 
252 ,50.9908 ,1.40387 ,1.13374 ,11.12426 
253 ,51.1987 ,1.40603 ,1.10636 ,10.85563 
254 ,51.4064 ,1.40804 ,1.10979 ,10.88921 
255 ,51.5986 ,1.40998 ,1.06872 ,10.48627 
256 ,51.8070 ,1.41208 ,1.06872 ,10.48627 
257 ,51.9990 ,1.41400 ,1.04819 ,10.28480 
258 ,52.1912 ,1.41594 ,1.06187 ,10.41912 
259 ,52.3833 ,1.41781 ,1.02423 ,10.04976 
260 ,52.6074 ,1.41999 ,1.01739 ,9.98260 
261 ,52.8154 ,1.42218 ,1.00028 ,9.81471 
262 ,53.0394 ,1.42435 ,0.98659 ,9.68039 
263 ,53.2316 ,1.42635 ,0.97974 ,9.61324 
264 ,53.4236 ,1.42835 ,0.95237 ,9.34461 
265 ,53.6156 ,1.43015 ,0.93868 ,9.21030 
266 ,53.8078 ,1.43205 ,0.95237 ,9.34461 
267 ,53.9998 ,1.43402 ,0.92499 ,9.07598 
268 ,54.2078 ,1.43601 ,0.93183 ,9.14314 
269 ,54.4001 ,1.43801 ,0.90446 ,8.87451 
270 ,54.6080 ,1.44012 ,0.89761 ,8.80736 
271 ,54.8160 ,1.44214 ,0.88392 ,8.67305 
272 ,55.0244 ,1.44420 ,0.85997 ,8.43800 
273 ,55.2164 ,1.44616 ,0.85312 ,8.37084 
274 ,55.4245 ,1.44823 ,0.85654 ,8.40442 
275 ,55.6325 ,1.45031 ,0.83259 ,8.16937 
276 ,55.8244 ,1.45224 ,0.83259 ,8.16937 
277 ,56.0167 ,1.45416 ,0.79495 ,7.80001 
278 ,56.2247 ,1.45623 ,0.79152 ,7.76643 
279 ,56.4327 ,1.45824 ,0.77441 ,7.59854 
280 ,56.6249 ,1.46025 ,0.77441 ,7.59854 
281 ,56.8168 ,1.46215 ,0.76757 ,7.53138 
282 ,57.0246 ,1.46423 ,0.73335 ,7.19560 
283 ,57.2327 ,1.46627 ,0.71624 ,7.02771 
284 ,57.4408 ,1.46836 ,0.71281 ,6.99413 
285 ,57.6971 ,1.47095 ,0.70255 ,6.89340 
286 ,57.9055 ,1.47305 ,0.69228 ,6.79266 
287 ,58.1137 ,1.47509 ,0.66148 ,6.49046 
288 ,58.3056 ,1.47717 ,0.66148 ,6.49046 
289 ,58.4975 ,1.47895 ,0.65121 ,6.38972 
290 ,58.6900 ,1.48092 ,0.63753 ,6.25541 
291 ,58.8818 ,1.48283 ,0.63068 ,6.18825 
292 ,59.0735 ,1.48471 ,0.61357 ,6.02036 
293 ,59.2823 ,1.48679 ,0.62384 ,6.12109 
294 ,59.4900 ,1.48884 ,0.58962 ,5.78531 
295 ,59.6980 ,1.49096 ,0.56908 ,5.58384 
296 ,59.8903 ,1.49287 ,0.57935 ,5.68458 
297 ,60.0984 ,1.49497 ,0.54171 ,5.31522 
298 ,60.3065 ,1.49708 ,0.54513 ,5.34879 
299 ,60.5464 ,1.49924 ,0.52802 ,5.18090 
300 ,60.7546 ,1.50152 ,0.50748 ,4.97943 
301 ,60.9468 ,1.50345 ,0.52459 ,5.14732 
302 ,61.1548 ,1.50557 ,0.48695 ,4.77796 
303 ,61.3469 ,1.50745 ,0.50064 ,4.91228 
304 ,61.5548 ,1.50949 ,0.46984 ,4.61007 
305 ,61.7470 ,1.51144 ,0.48011 ,4.71081 
306 ,61.9390 ,1.51334 ,0.43904 ,4.30787 
307 ,62.1632 ,1.51549 ,0.45957 ,4.50934 
308 ,62.3549 ,1.51752 ,0.42193 ,4.13997 
309 ,62.5634 ,1.51959 ,0.42535 ,4.17355 
310 ,62.7715 ,1.52166 ,0.39797 ,3.90493 
311 ,62.9793 ,1.52376 ,0.38086 ,3.73703 
312 ,63.1715 ,1.52571 ,0.38086 ,3.73703 
313 ,63.3638 ,1.52762 ,0.37402 ,3.66988 
314 ,63.5716 ,1.52969 ,0.35006 ,3.43483 
315 ,63.7639 ,1.53163 ,0.35349 ,3.46841 
316 ,63.9560 ,1.53354 ,0.32611 ,3.19978 
317 ,64.1479 ,1.53545 ,0.33980 ,3.33410 
318 ,64.3399 ,1.53737 ,0.30900 ,3.03189 
319 ,64.5479 ,1.53941 ,0.30558 ,2.99831 
320 ,64.7563 ,1.54151 ,0.29189 ,2.86400 
321 ,64.9481 ,1.54342 ,0.29531 ,2.89758 
322 ,65.1405 ,1.54536 ,0.26451 ,2.59537 
323 ,65.3324 ,1.54727 ,0.25767 ,2.52822 
324 ,65.5566 ,1.54932 ,0.26451 ,2.59537 
325 ,65.7647 ,1.55161 ,0.23713 ,2.32675 
326 ,65.9728 ,1.55365 ,0.20976 ,2.05812 
327 ,66.1648 ,1.55558 ,0.23371 ,2.29317 
328 ,66.3730 ,1.55769 ,0.20633 ,2.02454 
329 ,66.5649 ,1.55963 ,0.20291 ,1.99096 
330 ,66.7567 ,1.56149 ,0.16527 ,1.62160 
331 ,66.9811 ,1.56364 ,0.18238 ,1.78949 
332 ,67.1734 ,1.56569 ,0.14816 ,1.45371 
333 ,67.3814 ,1.56773 ,0.16527 ,1.62160 
334 ,67.5729 ,1.56970 ,0.12420 ,1.21866 
335 ,67.7813 ,1.57174 ,0.14131 ,1.38655 
336 ,67.9736 ,1.57368 ,0.11051 ,1.08435 
337 ,68.1976 ,1.57579 ,0.11393 ,1.11793 
338 ,68.4057 ,1.57795 ,0.10367 ,1.01719 
339 ,68.6139 ,1.57999 ,0.07629 ,0.74857 
340 ,68.8220 ,1.58216 ,0.07629 ,0.74857 
341 ,69.0139 ,1.58407 ,0.06260 ,0.61425 
342 ,69.2062 ,1.58597 ,0.04891 ,0.47994 
343 ,69.4143 ,1.58805 ,0.02838 ,0.27847 
344 ,69.6063 ,1.59005 ,0.04207 ,0.41278 
345 ,69.8145 ,1.59209 ,0.00785 ,0.07700 
346 ,70.0223 ,1.59417 ,0.00785 ,0.07700 
347 ,70.2305 ,1.59627 ,-0.00584 ,-0.05731 
348 ,70.4546 ,1.59841 ,-0.01611 ,-0.15805 
349 ,70.6627 ,1.60051 ,-0.01611 ,-0.15805 
350 ,70.8708 ,1.60264 ,-0.03664 ,-0.35952 
351 ,71.0628 ,1.60462 ,-0.02637 ,-0.25878 
352 ,71.2547 ,1.60655 ,-0.05033 ,-0.49383 
353 ,71.4470 ,1.60838 ,-0.05717 ,-0.56099 
354 ,71.6551 ,1.61038 ,-0.07771 ,-0.76246 
355 ,71.8632 ,1.61251 ,-0.07771 ,-0.76246 
356 ,72.0713 ,1.61462 ,-0.10166 ,-0.99751 
357 ,72.2629 ,1.61658 ,-0.09140 ,-0.89677 
358 ,72.4715 ,1.61860 ,-0.11535 ,-1.13182 
359 ,72.6794 ,1.62071 ,-0.11877 ,-1.16540 
360 ,72.8717 ,1.62262 ,-0.13246 ,-1.29971 
361 ,73.0636 ,1.62458 ,-0.12904 ,-1.26613 
362 ,73.2555 ,1.62649 ,-0.16326 ,-1.60191 
363 ,73.4638 ,1.62853 ,-0.15642 ,-1.53476 
364 ,73.6719 ,1.63060 ,-0.19064 ,-1.87054 
365 ,73.8640 ,1.63256 ,-0.18722 ,-1.83696 
366 ,74.0721 ,1.63462 ,-0.18379 ,-1.80338 
367 ,74.2801 ,1.63673 ,-0.19748 ,-1.93770 
368 ,74.5039 ,1.63891 ,-0.19064 ,-1.87054 
369 ,74.7124 ,1.64095 ,-0.23513 ,-2.30706 
370 ,74.9203 ,1.64310 ,-0.24197 ,-2.37422 
371 ,75.1125 ,1.64503 ,-0.25224 ,-2.47495 
372 ,75.3205 ,1.64717 ,-0.25908 ,-2.54211 
373 ,75.5283 ,1.64921 ,-0.25566 ,-2.50853 
374 ,75.7526 ,1.65131 ,-0.28646 ,-2.81073 
375 ,75.9604 ,1.65344 ,-0.28304 ,-2.77716 
376 ,76.1530 ,1.65540 ,-0.29673 ,-2.91147 
377 ,76.3449 ,1.65742 ,-0.29330 ,-2.87789 
378 ,76.5371 ,1.65927 ,-0.31726 ,-3.11294 
379 ,76.7450 ,1.66134 ,-0.30699 ,-3.01220 
380 ,76.9373 ,1.66332 ,-0.33437 ,-3.28083 
381 ,77.1450 ,1.66532 ,-0.33095 ,-3.24725 
382 ,77.3374 ,1.66728 ,-0.35832 ,-3.51588 
383 ,77.5774 ,1.66953 ,-0.34806 ,-3.41514 
384 ,77.7851 ,1.67177 ,-0.35490 ,-3.48230 
385 ,77.9778 ,1.67370 ,-0.39255 ,-3.85166 
386 ,78.1859 ,1.67571 ,-0.38228 ,-3.75093 
387 ,78.3939 ,1.67784 ,-0.41650 ,-4.08671 
388 ,78.6020 ,1.67994 ,-0.40966 ,-4.01955 
389 ,78.7941 ,1.68184 ,-0.43361 ,-4.25460 
390 ,79.0022 ,1.68391 ,-0.40623 ,-3.98597 
391 ,79.2099 ,1.68600 ,-0.42677 ,-4.18744 
392 ,79.4183 ,1.68810 ,-0.46099 ,-4.52323 
393 ,79.6104 ,1.69001 ,-0.44730 ,-4.38891 
394 ,79.8186 ,1.69208 ,-0.47810 ,-4.69112 
395 ,80.0106 ,1.69402 ,-0.46441 ,-4.55681 
396 ,80.2186 ,1.69609 ,-0.49179 ,-4.82543 
397 ,80.4105 ,1.69804 ,-0.49863 ,-4.89259 
398 ,80.6186 ,1.70006 ,-0.51232 ,-5.02690 
399 ,80.8107 ,1.70202 ,-0.51917 ,-5.09406 
400 ,81.0028 ,1.70393 ,-0.50548 ,-4.95975 
401 ,81.2110 ,1.70597 ,-0.53970 ,-5.29553 
402 ,81.4509 ,1.70826 ,-0.54312 ,-5.32911 
403 ,81.6590 ,1.71041 ,-0.54654 ,-5.36268 
404 ,81.8669 ,1.71250 ,-0.54997 ,-5.39626 
405 ,82.0594 ,1.71448 ,-0.57734 ,-5.66489 
406 ,82.2512 ,1.71646 ,-0.57734 ,-5.66489 
407 ,82.4435 ,1.71831 ,-0.57392 ,-5.63131 
408 ,82.6517 ,1.72032 ,-0.60814 ,-5.96709 
409 ,82.8593 ,1.72253 ,-0.61156 ,-6.00067 
410 ,83.0516 ,1.72442 ,-0.61499 ,-6.03425 
411 ,83.2594 ,1.72648 ,-0.63552 ,-6.23572 
412 ,83.4678 ,1.72854 ,-0.63210 ,-6.20214 
413 ,83.6599 ,1.73047 ,-0.65605 ,-6.43719 
414 ,83.8681 ,1.73258 ,-0.64236 ,-6.30288 
415 ,84.0600 ,1.73449 ,-0.67316 ,-6.60508 
416 ,84.2521 ,1.73639 ,-0.66632 ,-6.53793 
417 ,84.4604 ,1.73840 ,-0.68001 ,-6.67224 
418 ,84.6842 ,1.74069 ,-0.68343 ,-6.70582 
419 ,84.8763 ,1.74261 ,-0.70739 ,-6.94086 
420 ,85.0685 ,1.74456 ,-0.70054 ,-6.87371 
421 ,85.2767 ,1.74665 ,-0.71765 ,-7.04160 
422 ,85.4683 ,1.74870 ,-0.71423 ,-7.00802 
423 ,85.6608 ,1.75051 ,-0.73476 ,-7.20949 
424 ,85.8686 ,1.75258 ,-0.73476 ,-7.20949 
425 ,86.0609 ,1.75449 ,-0.75872 ,-7.44454 
426 ,86.2689 ,1.75652 ,-0.75872 ,-7.44454 
427 ,86.4768 ,1.75860 ,-0.76556 ,-7.51170 
428 ,86.6691 ,1.76057 ,-0.77925 ,-7.64601 
429 ,86.8774 ,1.76267 ,-0.79636 ,-7.81390 
430 ,87.0694 ,1.76460 ,-0.77925 ,-7.64601 
431 ,87.2774 ,1.76662 ,-0.81347 ,-7.98179 
432 ,87.4856 ,1.76864 ,-0.79294 ,-7.78032 
433 ,87.6772 ,1.77062 ,-0.83401 ,-8.18326 
434 ,87.8697 ,1.77255 ,-0.83058 ,-8.14968 
435 ,88.0619 ,1.77450 ,-0.84427 ,-8.28400 
436 ,88.2698 ,1.77656 ,-0.83743 ,-8.21684 
437 ,88.4778 ,1.77861 ,-0.85796 ,-8.41831 
438 ,88.6701 ,1.78056 ,-0.84769 ,-8.31758 
439 ,88.8782 ,1.78258 ,-0.88876 ,-8.72051 
440 ,89.1020 ,1.78481 ,-0.87165 ,-8.55262 
441 ,89.2945 ,1.78677 ,-0.90587 ,-8.88841 
442 ,89.4865 ,1.78884 ,-0.89218 ,-8.75409 
443 ,89.6785 ,1.79064 ,-0.91272 ,-8.95556 
444 ,89.8861 ,1.79272 ,-0.91272 ,-8.95556 
445 ,90.0785 ,1.79466 ,-0.92983 ,-9.12345 
446 ,90.2706 ,1.79653 ,-0.92983 ,-9.12345 
447 ,90.4628 ,1.79849 ,-0.94351 ,-9.25777 
448 ,90.6708 ,1.80053 ,-0.94694 ,-9.29135 
449 ,90.8789 ,1.80260 ,-0.97774 ,-9.59355 
450 ,91.0871 ,1.80467 ,-0.96747 ,-9.49282 
451 ,91.2950 ,1.80679 ,-0.98116 ,-9.62713 
452 ,91.4872 ,1.80871 ,-0.97774 ,-9.59355 
453 ,91.6793 ,1.81065 ,-0.99485 ,-9.76144 
454 ,91.8715 ,1.81256 ,-0.99485 ,-9.76144 
455 ,92.0790 ,1.81463 ,-1.02907 ,-10.09723 
456 ,92.2714 ,1.81655 ,-1.01538 ,-9.96291 
457 ,92.4956 ,1.81872 ,-1.03934 ,-10.19796 
458 ,92.6877 ,1.82074 ,-1.02565 ,-10.06365 
459 ,92.8957 ,1.82279 ,-1.04618 ,-10.26512 
460 ,93.0880 ,1.82470 ,-1.03591 ,-10.16438 
461 ,93.3120 ,1.82692 ,-1.05987 ,-10.39943 
462 ,93.5197 ,1.82906 ,-1.08382 ,-10.63448 
