Data stamp = , 03-05-2022 12:08:00 593

Calibration Values: 
Slope = , 26.54 , g/V 
Offset Voltage at no contact = , -0.501760 , V 

No , Time , Stage Position ,   Mass , Force 
   ,  (s) ,      (mm)      ,   (g)  , (mN)  

1 ,0.0000 ,0.89952 ,5.24718 ,51.48538 
2 ,0.2105 ,0.89960 ,5.26087 ,51.61969 
3 ,0.7866 ,0.90191 ,5.24718 ,51.48538 
4 ,1.0111 ,0.90424 ,5.25745 ,51.58611 
5 ,1.2193 ,0.90637 ,5.25061 ,51.51896 
6 ,1.4113 ,0.90835 ,5.24034 ,51.41822 
7 ,1.6189 ,0.91042 ,5.22665 ,51.28391 
8 ,1.8112 ,0.91239 ,5.19585 ,50.98170 
9 ,2.0032 ,0.91431 ,5.17874 ,50.81381 
10 ,2.2116 ,0.91644 ,5.16163 ,50.64592 
11 ,2.4356 ,0.91857 ,5.15136 ,50.54519 
12 ,2.6435 ,0.92067 ,5.11030 ,50.14225 
13 ,2.8519 ,0.92275 ,5.10003 ,50.04151 
14 ,3.0598 ,0.92491 ,5.09661 ,50.00793 
15 ,3.2519 ,0.92676 ,5.06923 ,49.73931 
16 ,3.4437 ,0.92868 ,5.04185 ,49.47068 
17 ,3.6360 ,0.93063 ,5.02817 ,49.33637 
18 ,3.8443 ,0.93270 ,4.99394 ,49.00058 
19 ,4.0523 ,0.93480 ,4.97341 ,48.79911 
20 ,4.2439 ,0.93671 ,4.95630 ,48.63122 
21 ,4.4523 ,0.93875 ,4.93919 ,48.46333 
22 ,4.6606 ,0.94085 ,4.92892 ,48.36260 
23 ,4.8845 ,0.94301 ,4.87417 ,47.82534 
24 ,5.0927 ,0.94520 ,4.88444 ,47.92608 
25 ,5.2848 ,0.94711 ,4.85021 ,47.59030 
26 ,5.5089 ,0.94935 ,4.82626 ,47.35525 
27 ,5.7168 ,0.95142 ,4.81941 ,47.28809 
28 ,5.9091 ,0.95339 ,4.77493 ,46.85157 
29 ,6.1169 ,0.95544 ,4.76466 ,46.75084 
30 ,6.3411 ,0.95766 ,4.74070 ,46.51579 
31 ,6.5492 ,0.95971 ,4.72702 ,46.38148 
32 ,6.7413 ,0.96165 ,4.71333 ,46.24716 
33 ,6.9494 ,0.96379 ,4.67568 ,45.87780 
34 ,7.1574 ,0.96585 ,4.67226 ,45.84422 
35 ,7.3656 ,0.96795 ,4.63119 ,45.44128 
36 ,7.5732 ,0.97006 ,4.60040 ,45.13908 
37 ,7.7817 ,0.97200 ,4.59355 ,45.07192 
38 ,8.0056 ,0.97429 ,4.56275 ,44.76972 
39 ,8.2139 ,0.97642 ,4.55249 ,44.66898 
40 ,8.4058 ,0.97833 ,4.53195 ,44.46751 
41 ,8.5981 ,0.98025 ,4.51484 ,44.29962 
42 ,8.8059 ,0.98233 ,4.47035 ,43.86310 
43 ,9.0141 ,0.98435 ,4.47720 ,43.93026 
44 ,9.2061 ,0.98630 ,4.44640 ,43.62806 
45 ,9.4141 ,0.98840 ,4.43955 ,43.56090 
46 ,9.6060 ,0.99032 ,4.40191 ,43.19154 
47 ,9.7982 ,0.99225 ,4.39164 ,43.09080 
48 ,9.9903 ,0.99411 ,4.37453 ,42.92291 
49 ,10.1986 ,0.99624 ,4.35400 ,42.72144 
50 ,10.3907 ,0.99818 ,4.33004 ,42.48639 
51 ,10.5989 ,1.00019 ,4.32662 ,42.45282 
52 ,10.7907 ,1.00213 ,4.27871 ,41.98272 
53 ,11.0309 ,1.00458 ,4.26502 ,41.84841 
54 ,11.2392 ,1.00659 ,4.25133 ,41.71409 
55 ,11.4469 ,1.00869 ,4.23422 ,41.54620 
56 ,11.6233 ,1.01060 ,4.21027 ,41.31115 
57 ,11.8154 ,1.01237 ,4.20342 ,41.24400 
58 ,12.0072 ,1.01434 ,4.16236 ,40.84106 
59 ,12.2158 ,1.01637 ,4.16236 ,40.84106 
60 ,12.4077 ,1.01834 ,4.12129 ,40.43812 
61 ,12.6158 ,1.02033 ,4.13498 ,40.57243 
62 ,12.8238 ,1.02248 ,4.10076 ,40.23665 
63 ,13.0157 ,1.02443 ,4.08365 ,40.06876 
64 ,13.2239 ,1.02651 ,4.05627 ,39.80013 
65 ,13.4161 ,1.02852 ,4.03916 ,39.63224 
66 ,13.6241 ,1.03046 ,4.01178 ,39.36361 
67 ,13.8319 ,1.03250 ,4.00836 ,39.33003 
68 ,14.0243 ,1.03450 ,3.97756 ,39.02783 
69 ,14.2321 ,1.03653 ,3.96045 ,38.85994 
70 ,14.4245 ,1.03846 ,3.92623 ,38.52415 
71 ,14.6322 ,1.04051 ,3.93307 ,38.59131 
72 ,14.8245 ,1.04246 ,3.89543 ,38.22195 
73 ,15.0325 ,1.04451 ,3.88858 ,38.15479 
74 ,15.2244 ,1.04648 ,3.86121 ,37.88617 
75 ,15.4327 ,1.04852 ,3.86463 ,37.91975 
76 ,15.6249 ,1.05058 ,3.83725 ,37.65112 
77 ,15.8170 ,1.05240 ,3.83041 ,37.58396 
78 ,16.0568 ,1.05476 ,3.78934 ,37.18102 
79 ,16.2652 ,1.05683 ,3.77223 ,37.01313 
80 ,16.4732 ,1.05893 ,3.75854 ,36.87882 
81 ,16.6810 ,1.06095 ,3.73801 ,36.67735 
82 ,16.8734 ,1.06294 ,3.73117 ,36.61019 
83 ,17.0814 ,1.06496 ,3.69352 ,36.24083 
84 ,17.2735 ,1.06696 ,3.70037 ,36.30799 
85 ,17.4812 ,1.06899 ,3.67299 ,36.03936 
86 ,17.6736 ,1.07098 ,3.65588 ,35.87147 
87 ,17.8817 ,1.07302 ,3.63877 ,35.70358 
88 ,18.0738 ,1.07496 ,3.63192 ,35.63642 
89 ,18.2820 ,1.07700 ,3.59428 ,35.26706 
90 ,18.4737 ,1.07898 ,3.58059 ,35.13275 
91 ,18.6820 ,1.08098 ,3.55663 ,34.89770 
92 ,18.8739 ,1.08298 ,3.54979 ,34.83054 
93 ,19.0823 ,1.08509 ,3.52584 ,34.59549 
94 ,19.2742 ,1.08702 ,3.52584 ,34.59549 
95 ,19.4662 ,1.08890 ,3.49504 ,34.29329 
96 ,19.6899 ,1.09105 ,3.48819 ,34.22613 
97 ,19.8983 ,1.09314 ,3.46766 ,34.02466 
98 ,20.0907 ,1.09513 ,3.44713 ,33.82319 
99 ,20.2988 ,1.09723 ,3.42659 ,33.62172 
100 ,20.5067 ,1.09930 ,3.40264 ,33.38667 
101 ,20.7150 ,1.10130 ,3.39237 ,33.28594 
102 ,20.9227 ,1.10340 ,3.36157 ,32.98374 
103 ,21.1310 ,1.10548 ,3.35815 ,32.95016 
104 ,21.3231 ,1.10747 ,3.34104 ,32.78227 
105 ,21.5154 ,1.10935 ,3.34104 ,32.78227 
106 ,21.7072 ,1.11131 ,3.28971 ,32.27859 
107 ,21.9150 ,1.11325 ,3.30339 ,32.41290 
108 ,22.1073 ,1.11526 ,3.25891 ,31.97639 
109 ,22.2834 ,1.11713 ,3.25891 ,31.97639 
110 ,22.4756 ,1.11892 ,3.24864 ,31.87565 
111 ,22.6996 ,1.12118 ,3.23153 ,31.70776 
112 ,22.8917 ,1.12321 ,3.21442 ,31.53987 
113 ,23.0838 ,1.12504 ,3.19046 ,31.30482 
114 ,23.2920 ,1.12714 ,3.19046 ,31.30482 
115 ,23.4998 ,1.12923 ,3.15966 ,31.00262 
116 ,23.6922 ,1.13112 ,3.13913 ,30.80115 
117 ,23.8837 ,1.13303 ,3.11860 ,30.59968 
118 ,24.0918 ,1.13522 ,3.10491 ,30.46536 
119 ,24.2844 ,1.13702 ,3.08438 ,30.26389 
120 ,24.5084 ,1.13925 ,3.06042 ,30.02884 
121 ,24.7005 ,1.14115 ,3.04673 ,29.89453 
122 ,24.9085 ,1.14326 ,3.02962 ,29.72664 
123 ,25.1163 ,1.14533 ,3.01935 ,29.62590 
124 ,25.3405 ,1.14746 ,2.99540 ,29.39086 
125 ,25.5489 ,1.14963 ,2.97829 ,29.22297 
126 ,25.7566 ,1.15175 ,2.97487 ,29.18939 
127 ,25.9489 ,1.15364 ,2.94064 ,28.85360 
128 ,26.1410 ,1.15558 ,2.93038 ,28.75287 
129 ,26.3332 ,1.15750 ,2.93380 ,28.78645 
130 ,26.5252 ,1.15943 ,2.89616 ,28.41709 
131 ,26.7332 ,1.16154 ,2.89616 ,28.41709 
132 ,26.9252 ,1.16338 ,2.86193 ,28.08130 
133 ,27.1175 ,1.16536 ,2.85851 ,28.04772 
134 ,27.3095 ,1.16730 ,2.83456 ,27.81268 
135 ,27.5177 ,1.16934 ,2.81060 ,27.57763 
136 ,27.7256 ,1.17145 ,2.80034 ,27.47689 
137 ,27.9179 ,1.17335 ,2.80034 ,27.47689 
138 ,28.1255 ,1.17542 ,2.77296 ,27.20827 
139 ,28.3179 ,1.17731 ,2.74900 ,26.97322 
140 ,28.4936 ,1.17922 ,2.74900 ,26.97322 
141 ,28.6862 ,1.18104 ,2.72847 ,26.77175 
142 ,28.9262 ,1.18329 ,2.72163 ,26.70459 
143 ,29.1183 ,1.18534 ,2.69083 ,26.40239 
144 ,29.3109 ,1.18728 ,2.68056 ,26.30165 
145 ,29.5024 ,1.18923 ,2.65318 ,26.03303 
146 ,29.6944 ,1.19114 ,2.64634 ,25.96587 
147 ,29.9023 ,1.19318 ,2.62581 ,25.76440 
148 ,30.1110 ,1.19517 ,2.61896 ,25.69724 
149 ,30.3193 ,1.19734 ,2.58474 ,25.36146 
150 ,30.4948 ,1.19923 ,2.58474 ,25.36146 
151 ,30.6865 ,1.20100 ,2.56763 ,25.19357 
152 ,30.8951 ,1.20308 ,2.52998 ,24.82421 
153 ,31.1031 ,1.20515 ,2.52314 ,24.75705 
154 ,31.2952 ,1.20709 ,2.50945 ,24.62274 
155 ,31.4869 ,1.20900 ,2.49918 ,24.52200 
156 ,31.6794 ,1.21094 ,2.46839 ,24.21980 
157 ,31.8871 ,1.21295 ,2.47865 ,24.32053 
158 ,32.1273 ,1.21547 ,2.42390 ,23.78328 
159 ,32.3356 ,1.21753 ,2.42732 ,23.81686 
160 ,32.5277 ,1.21945 ,2.40336 ,23.58181 
161 ,32.7356 ,1.22143 ,2.41021 ,23.64897 
162 ,32.9114 ,1.22337 ,2.39310 ,23.48108 
163 ,33.1040 ,1.22522 ,2.35888 ,23.14529 
164 ,33.3120 ,1.22729 ,2.35888 ,23.14529 
165 ,33.5041 ,1.22923 ,2.33492 ,22.91024 
166 ,33.7123 ,1.23127 ,2.33492 ,22.91024 
167 ,33.9200 ,1.23333 ,2.29728 ,22.54088 
168 ,34.1284 ,1.23540 ,2.29043 ,22.47373 
169 ,34.3364 ,1.23752 ,2.28701 ,22.44015 
170 ,34.5286 ,1.23956 ,2.24594 ,22.03721 
171 ,34.7366 ,1.24150 ,2.25621 ,22.13794 
172 ,34.9283 ,1.24343 ,2.22199 ,21.80216 
173 ,35.1043 ,1.24529 ,2.21172 ,21.70143 
174 ,35.2969 ,1.24714 ,2.21515 ,21.73500 
175 ,35.5049 ,1.24914 ,2.17408 ,21.33206 
176 ,35.6970 ,1.25112 ,2.17750 ,21.36564 
177 ,35.9048 ,1.25310 ,2.14670 ,21.06344 
178 ,36.1131 ,1.25526 ,2.14328 ,21.02986 
179 ,36.3052 ,1.25719 ,2.12617 ,20.86197 
180 ,36.5132 ,1.25923 ,2.10564 ,20.66050 
181 ,36.7215 ,1.26134 ,2.08168 ,20.42545 
182 ,36.9292 ,1.26344 ,2.09537 ,20.55976 
183 ,37.1375 ,1.26554 ,2.05773 ,20.19040 
184 ,37.3453 ,1.26758 ,2.03035 ,19.92178 
185 ,37.5374 ,1.26950 ,2.03035 ,19.92178 
186 ,37.7297 ,1.27146 ,2.03035 ,19.92178 
187 ,37.9698 ,1.27377 ,1.98928 ,19.51884 
188 ,38.1940 ,1.27605 ,1.97217 ,19.35094 
189 ,38.4016 ,1.27810 ,1.96533 ,19.28379 
190 ,38.5941 ,1.28011 ,1.96533 ,19.28379 
191 ,38.8187 ,1.28231 ,1.92768 ,18.91443 
192 ,39.0104 ,1.28425 ,1.93795 ,19.01516 
193 ,39.2183 ,1.28625 ,1.91057 ,18.74654 
194 ,39.3944 ,1.28822 ,1.90715 ,18.71296 
195 ,39.5865 ,1.29000 ,1.88319 ,18.47791 
196 ,39.7947 ,1.29205 ,1.87293 ,18.37717 
197 ,39.9863 ,1.29397 ,1.85582 ,18.20928 
198 ,40.1787 ,1.29590 ,1.83871 ,18.04139 
199 ,40.3709 ,1.29784 ,1.83871 ,18.04139 
200 ,40.5945 ,1.29999 ,1.81133 ,17.77276 
201 ,40.7871 ,1.30199 ,1.79080 ,17.57129 
202 ,40.9950 ,1.30406 ,1.78737 ,17.53772 
203 ,41.1873 ,1.30601 ,1.76684 ,17.33625 
204 ,41.3952 ,1.30800 ,1.75657 ,17.23551 
205 ,41.5874 ,1.30999 ,1.73946 ,17.06762 
206 ,41.7953 ,1.31208 ,1.71551 ,16.83257 
207 ,42.0034 ,1.31412 ,1.70866 ,16.76542 
208 ,42.2117 ,1.31626 ,1.70182 ,16.69826 
209 ,42.4197 ,1.31826 ,1.67102 ,16.39605 
210 ,42.6119 ,1.32024 ,1.67444 ,16.42963 
211 ,42.8355 ,1.32235 ,1.65049 ,16.19458 
212 ,43.0279 ,1.32439 ,1.65049 ,16.19458 
213 ,43.2358 ,1.32642 ,1.61969 ,15.89238 
214 ,43.4280 ,1.32842 ,1.60942 ,15.79164 
215 ,43.6361 ,1.33047 ,1.59231 ,15.62375 
216 ,43.9237 ,1.33291 ,1.57862 ,15.48944 
217 ,44.1325 ,1.33535 ,1.55467 ,15.25439 
218 ,44.3403 ,1.33756 ,1.53756 ,15.08650 
219 ,44.5484 ,1.33957 ,1.53413 ,15.05292 
220 ,44.7407 ,1.34148 ,1.50333 ,14.75072 
221 ,44.9485 ,1.34360 ,1.50676 ,14.78430 
222 ,45.1567 ,1.34563 ,1.47596 ,14.48209 
223 ,45.3806 ,1.34787 ,1.45885 ,14.31420 
224 ,45.5890 ,1.34993 ,1.45885 ,14.31420 
225 ,45.7969 ,1.35200 ,1.42462 ,13.97842 
226 ,45.9891 ,1.35398 ,1.44516 ,14.17989 
227 ,46.1968 ,1.35610 ,1.41436 ,13.87768 
228 ,46.3893 ,1.35799 ,1.40409 ,13.77695 
229 ,46.5973 ,1.36009 ,1.37329 ,13.47474 
230 ,46.7894 ,1.36204 ,1.38014 ,13.54190 
231 ,47.0135 ,1.36407 ,1.34591 ,13.20612 
232 ,47.2213 ,1.36633 ,1.33907 ,13.13896 
233 ,47.4136 ,1.36828 ,1.33565 ,13.10538 
234 ,47.6216 ,1.37031 ,1.30143 ,12.76960 
235 ,47.8300 ,1.37229 ,1.29458 ,12.70244 
236 ,48.0379 ,1.37446 ,1.27747 ,12.53455 
237 ,48.2299 ,1.37638 ,1.28432 ,12.60171 
238 ,48.4223 ,1.37835 ,1.25009 ,12.26592 
239 ,48.6300 ,1.38038 ,1.25694 ,12.33308 
240 ,48.8383 ,1.38248 ,1.22272 ,11.99730 
241 ,49.0304 ,1.38439 ,1.22956 ,12.06445 
242 ,49.2223 ,1.38643 ,1.20561 ,11.82941 
243 ,49.4301 ,1.38834 ,1.19534 ,11.72867 
244 ,49.6224 ,1.39035 ,1.17138 ,11.49362 
245 ,49.8152 ,1.39223 ,1.17138 ,11.49362 
246 ,50.0228 ,1.39430 ,1.14058 ,11.19142 
247 ,50.2148 ,1.39622 ,1.13374 ,11.12426 
248 ,50.4069 ,1.39819 ,1.14058 ,11.19142 
249 ,50.5988 ,1.40007 ,1.11321 ,10.92279 
250 ,50.7911 ,1.40199 ,1.10294 ,10.82206 
251 ,50.9672 ,1.40387 ,1.08925 ,10.68774 
252 ,51.1593 ,1.40565 ,1.06872 ,10.48627 
253 ,51.3673 ,1.40777 ,1.07214 ,10.51985 
254 ,51.5593 ,1.40969 ,1.05161 ,10.31838 
255 ,51.7676 ,1.41179 ,1.05845 ,10.38554 
256 ,51.9753 ,1.41384 ,1.02765 ,10.08333 
257 ,52.1678 ,1.41581 ,1.02081 ,10.01618 
258 ,52.3760 ,1.41784 ,0.99343 ,9.74755 
259 ,52.5838 ,1.41991 ,0.97974 ,9.61324 
260 ,52.7597 ,1.42177 ,0.97290 ,9.54608 
261 ,52.9519 ,1.42362 ,0.95921 ,9.41177 
262 ,53.1601 ,1.42571 ,0.93868 ,9.21030 
263 ,53.3683 ,1.42772 ,0.94210 ,9.24388 
264 ,53.5762 ,1.42986 ,0.92841 ,9.10956 
265 ,53.7681 ,1.43182 ,0.91472 ,8.97525 
266 ,54.0084 ,1.43402 ,0.90103 ,8.84094 
267 ,54.2164 ,1.43622 ,0.87023 ,8.53873 
268 ,54.4086 ,1.43817 ,0.87708 ,8.60589 
269 ,54.6168 ,1.44024 ,0.84628 ,8.30368 
270 ,54.8248 ,1.44228 ,0.85654 ,8.40442 
271 ,55.0326 ,1.44442 ,0.82232 ,8.06864 
272 ,55.2249 ,1.44642 ,0.81890 ,8.03506 
273 ,55.4171 ,1.44829 ,0.79837 ,7.83359 
274 ,55.6248 ,1.45033 ,0.79152 ,7.76643 
275 ,55.8329 ,1.45238 ,0.76415 ,7.49780 
276 ,56.0250 ,1.45432 ,0.77441 ,7.59854 
277 ,56.2333 ,1.45639 ,0.75046 ,7.36349 
278 ,56.4415 ,1.45845 ,0.74704 ,7.32991 
279 ,56.6813 ,1.46079 ,0.73335 ,7.19560 
280 ,56.8896 ,1.46296 ,0.73677 ,7.22918 
281 ,57.0813 ,1.46496 ,0.69228 ,6.79266 
282 ,57.2737 ,1.46684 ,0.67859 ,6.65835 
283 ,57.4813 ,1.46885 ,0.66490 ,6.52403 
284 ,57.6893 ,1.47099 ,0.68201 ,6.69193 
285 ,57.8976 ,1.47299 ,0.64437 ,6.32256 
286 ,58.0899 ,1.47502 ,0.65806 ,6.45688 
287 ,58.3140 ,1.47715 ,0.62042 ,6.08752 
288 ,58.5063 ,1.47910 ,0.61699 ,6.05394 
289 ,58.7145 ,1.48114 ,0.59646 ,5.85247 
290 ,58.9062 ,1.48314 ,0.60673 ,5.95320 
291 ,59.1305 ,1.48532 ,0.57935 ,5.68458 
292 ,59.3223 ,1.48738 ,0.55539 ,5.44953 
293 ,59.5303 ,1.48930 ,0.55539 ,5.44953 
294 ,59.7224 ,1.49128 ,0.54513 ,5.34879 
295 ,59.9303 ,1.49331 ,0.54855 ,5.38237 
296 ,60.1226 ,1.49531 ,0.52459 ,5.14732 
297 ,60.3310 ,1.49735 ,0.52117 ,5.11375 
298 ,60.5389 ,1.49937 ,0.50064 ,4.91228 
299 ,60.7471 ,1.50153 ,0.48695 ,4.77796 
300 ,60.9390 ,1.50344 ,0.46642 ,4.57649 
301 ,61.1472 ,1.50554 ,0.47326 ,4.64365 
302 ,61.3554 ,1.50755 ,0.43904 ,4.30787 
303 ,61.5470 ,1.50953 ,0.45615 ,4.47576 
304 ,61.7555 ,1.51162 ,0.42193 ,4.13997 
305 ,61.9957 ,1.51383 ,0.42535 ,4.17355 
306 ,62.2199 ,1.51616 ,0.40824 ,4.00566 
307 ,62.4276 ,1.51829 ,0.39113 ,3.83777 
308 ,62.6355 ,1.52039 ,0.36033 ,3.53557 
309 ,62.8278 ,1.52240 ,0.36718 ,3.60272 
310 ,63.0355 ,1.52440 ,0.36375 ,3.56914 
311 ,63.2278 ,1.52628 ,0.35006 ,3.43483 
312 ,63.4363 ,1.52839 ,0.32269 ,3.16620 
313 ,63.6283 ,1.53035 ,0.33638 ,3.30052 
314 ,63.8203 ,1.53223 ,0.31926 ,3.13263 
315 ,64.0125 ,1.53417 ,0.30558 ,2.99831 
316 ,64.2205 ,1.53619 ,0.30215 ,2.96473 
317 ,64.4126 ,1.53817 ,0.28162 ,2.76326 
318 ,64.6208 ,1.54027 ,0.26793 ,2.62895 
319 ,64.8284 ,1.54228 ,0.26109 ,2.56179 
320 ,65.0365 ,1.54437 ,0.23029 ,2.25959 
321 ,65.2450 ,1.54647 ,0.24055 ,2.36032 
322 ,65.4691 ,1.54862 ,0.21318 ,2.09170 
323 ,65.6612 ,1.55064 ,0.19264 ,1.89023 
324 ,65.8690 ,1.55272 ,0.20976 ,2.05812 
325 ,66.0611 ,1.55461 ,0.19264 ,1.89023 
326 ,66.2534 ,1.55652 ,0.17211 ,1.68876 
327 ,66.4930 ,1.55883 ,0.18238 ,1.78949 
328 ,66.7014 ,1.56094 ,0.17553 ,1.72234 
329 ,66.9098 ,1.56316 ,0.14816 ,1.45371 
330 ,67.1173 ,1.56523 ,0.13447 ,1.31940 
331 ,67.3104 ,1.56715 ,0.12078 ,1.18508 
332 ,67.5180 ,1.56919 ,0.10367 ,1.01719 
333 ,67.7259 ,1.57127 ,0.11736 ,1.15151 
334 ,67.9020 ,1.57314 ,0.08998 ,0.88288 
335 ,68.0941 ,1.57499 ,0.07287 ,0.71499 
336 ,68.2863 ,1.57689 ,0.08314 ,0.81572 
337 ,68.5103 ,1.57904 ,0.06602 ,0.64783 
338 ,68.7023 ,1.58104 ,0.05918 ,0.58067 
339 ,68.9105 ,1.58299 ,0.03522 ,0.34563 
340 ,69.1185 ,1.58518 ,0.02496 ,0.24489 
341 ,69.3102 ,1.58712 ,0.02496 ,0.24489 
342 ,69.5027 ,1.58909 ,0.02154 ,0.21131 
343 ,69.7108 ,1.59113 ,0.00100 ,0.00984 
344 ,69.9189 ,1.59314 ,0.00785 ,0.07700 
345 ,70.1268 ,1.59527 ,-0.00584 ,-0.05731 
346 ,70.3194 ,1.59718 ,-0.04348 ,-0.42667 
347 ,70.5270 ,1.59922 ,-0.04691 ,-0.46025 
348 ,70.7508 ,1.60148 ,-0.06060 ,-0.59457 
349 ,70.9590 ,1.60353 ,-0.06060 ,-0.59457 
350 ,71.1514 ,1.60553 ,-0.08113 ,-0.79604 
351 ,71.3593 ,1.60758 ,-0.08455 ,-0.82961 
352 ,71.5674 ,1.60967 ,-0.09824 ,-0.96393 
353 ,71.7752 ,1.61175 ,-0.11193 ,-1.09824 
354 ,71.9676 ,1.61365 ,-0.11535 ,-1.13182 
355 ,72.1758 ,1.61572 ,-0.12219 ,-1.19898 
356 ,72.3999 ,1.61790 ,-0.13588 ,-1.33329 
357 ,72.6075 ,1.62007 ,-0.14957 ,-1.46760 
358 ,72.8001 ,1.62201 ,-0.14273 ,-1.40045 
359 ,73.0080 ,1.62405 ,-0.17353 ,-1.70265 
360 ,73.2002 ,1.62602 ,-0.16668 ,-1.63549 
361 ,73.4081 ,1.62810 ,-0.18722 ,-1.83696 
362 ,73.6004 ,1.62998 ,-0.18722 ,-1.83696 
363 ,73.8083 ,1.63203 ,-0.21802 ,-2.13917 
364 ,74.0321 ,1.63431 ,-0.21802 ,-2.13917 
365 ,74.2407 ,1.63637 ,-0.22144 ,-2.17275 
366 ,74.4324 ,1.63845 ,-0.23170 ,-2.27348 
367 ,74.6247 ,1.64028 ,-0.23513 ,-2.30706 
368 ,74.8648 ,1.64243 ,-0.25908 ,-2.54211 
369 ,75.0567 ,1.64453 ,-0.26935 ,-2.64284 
370 ,75.2650 ,1.64664 ,-0.26935 ,-2.64284 
371 ,75.4569 ,1.64854 ,-0.28304 ,-2.77716 
372 ,75.6651 ,1.65062 ,-0.27619 ,-2.71000 
373 ,75.8569 ,1.65252 ,-0.30699 ,-3.01220 
374 ,76.0653 ,1.65466 ,-0.29673 ,-2.91147 
375 ,76.2733 ,1.65669 ,-0.33779 ,-3.31441 
376 ,76.4815 ,1.65867 ,-0.32068 ,-3.14652 
377 ,76.7055 ,1.66099 ,-0.33779 ,-3.31441 
378 ,76.8975 ,1.66293 ,-0.35490 ,-3.48230 
379 ,77.0736 ,1.66483 ,-0.36517 ,-3.58303 
380 ,77.2658 ,1.66663 ,-0.36517 ,-3.58303 
381 ,77.4739 ,1.66877 ,-0.39255 ,-3.85166 
382 ,77.6980 ,1.67090 ,-0.38570 ,-3.78450 
383 ,77.9058 ,1.67300 ,-0.39597 ,-3.88524 
384 ,78.1137 ,1.67511 ,-0.41650 ,-4.08671 
385 ,78.3061 ,1.67705 ,-0.41650 ,-4.08671 
386 ,78.5143 ,1.67912 ,-0.43703 ,-4.28818 
387 ,78.7063 ,1.68104 ,-0.43703 ,-4.28818 
388 ,78.9305 ,1.68316 ,-0.46441 ,-4.55681 
389 ,79.1226 ,1.68521 ,-0.45757 ,-4.48965 
390 ,79.3307 ,1.68725 ,-0.47468 ,-4.65754 
391 ,79.5387 ,1.68938 ,-0.47810 ,-4.69112 
392 ,79.7309 ,1.69128 ,-0.49521 ,-4.85901 
393 ,79.9389 ,1.69333 ,-0.48494 ,-4.75828 
394 ,80.1310 ,1.69528 ,-0.51574 ,-5.06048 
395 ,80.3227 ,1.69718 ,-0.49863 ,-4.89259 
396 ,80.5152 ,1.69910 ,-0.52601 ,-5.16121 
397 ,80.7234 ,1.70120 ,-0.52943 ,-5.19479 
398 ,80.9151 ,1.70314 ,-0.56365 ,-5.53058 
399 ,81.1074 ,1.70503 ,-0.54312 ,-5.32911 
400 ,81.2994 ,1.70693 ,-0.56365 ,-5.53058 
401 ,81.4914 ,1.70888 ,-0.57050 ,-5.59773 
402 ,81.6836 ,1.71082 ,-0.55681 ,-5.46342 
403 ,81.8918 ,1.71285 ,-0.59788 ,-5.86636 
404 ,82.0838 ,1.71481 ,-0.58761 ,-5.76562 
405 ,82.2755 ,1.71668 ,-0.60814 ,-5.96709 
406 ,82.4676 ,1.71863 ,-0.61841 ,-6.06783 
407 ,82.6761 ,1.72067 ,-0.62868 ,-6.16856 
408 ,82.8995 ,1.72290 ,-0.62868 ,-6.16856 
409 ,83.1242 ,1.72521 ,-0.64236 ,-6.30288 
410 ,83.3324 ,1.72726 ,-0.66290 ,-6.50435 
411 ,83.5564 ,1.72954 ,-0.66290 ,-6.50435 
412 ,83.7645 ,1.73153 ,-0.67316 ,-6.60508 
413 ,83.9724 ,1.73373 ,-0.70396 ,-6.90729 
414 ,84.1806 ,1.73580 ,-0.69027 ,-6.77297 
415 ,84.3887 ,1.73779 ,-0.71423 ,-7.00802 
416 ,84.5967 ,1.73993 ,-0.72107 ,-7.07518 
417 ,84.8048 ,1.74194 ,-0.72792 ,-7.14233 
418 ,84.9969 ,1.74389 ,-0.73476 ,-7.20949 
419 ,85.2211 ,1.74599 ,-0.72107 ,-7.07518 
420 ,85.4290 ,1.74822 ,-0.74845 ,-7.34380 
421 ,85.6370 ,1.75031 ,-0.75530 ,-7.41096 
422 ,85.8449 ,1.75239 ,-0.75187 ,-7.37738 
423 ,86.0372 ,1.75433 ,-0.78610 ,-7.71317 
424 ,86.2456 ,1.75633 ,-0.78267 ,-7.67959 
425 ,86.4696 ,1.75854 ,-0.81005 ,-7.94821 
426 ,86.6616 ,1.76061 ,-0.79294 ,-7.78032 
427 ,86.8854 ,1.76274 ,-0.82374 ,-8.08253 
428 ,87.0938 ,1.76485 ,-0.83401 ,-8.18326 
429 ,87.2859 ,1.76682 ,-0.81689 ,-8.01537 
430 ,87.4780 ,1.76873 ,-0.83401 ,-8.18326 
431 ,87.6859 ,1.77073 ,-0.84427 ,-8.28400 
432 ,87.8781 ,1.77271 ,-0.86138 ,-8.45189 
433 ,88.0856 ,1.77471 ,-0.87507 ,-8.58620 
434 ,88.2943 ,1.77680 ,-0.85796 ,-8.41831 
435 ,88.5025 ,1.77895 ,-0.87507 ,-8.58620 
436 ,88.7103 ,1.78102 ,-0.89218 ,-8.75409 
437 ,88.9025 ,1.78296 ,-0.89903 ,-8.82125 
438 ,89.0944 ,1.78485 ,-0.91956 ,-9.02272 
439 ,89.3193 ,1.78701 ,-0.90587 ,-8.88841 
440 ,89.5269 ,1.78924 ,-0.91614 ,-8.98914 
441 ,89.7350 ,1.79131 ,-0.95378 ,-9.35850 
442 ,89.9428 ,1.79336 ,-0.92983 ,-9.12345 
443 ,90.1508 ,1.79539 ,-0.96063 ,-9.42566 
444 ,90.3589 ,1.79752 ,-0.95378 ,-9.35850 
445 ,90.5833 ,1.79967 ,-0.96747 ,-9.49282 
446 ,90.7915 ,1.80183 ,-0.98458 ,-9.66071 
447 ,90.9993 ,1.80392 ,-0.98800 ,-9.69429 
448 ,91.1755 ,1.80580 ,-1.01880 ,-9.99649 
449 ,91.3831 ,1.80769 ,-0.99143 ,-9.72786 
450 ,91.5757 ,1.80966 ,-1.01538 ,-9.96291 
451 ,91.7994 ,1.81181 ,-1.01880 ,-9.99649 
452 ,92.0078 ,1.81394 ,-1.04618 ,-10.26512 
453 ,92.1837 ,1.81588 ,-1.02907 ,-10.09723 
454 ,92.3758 ,1.81769 ,-1.05987 ,-10.39943 
455 ,92.6161 ,1.81996 ,-1.04960 ,-10.29869 
456 ,92.8247 ,1.82218 ,-1.05645 ,-10.36585 
457 ,93.0162 ,1.82407 ,-1.07014 ,-10.50016 
458 ,93.2082 ,1.82598 ,-1.06671 ,-10.46659 
459 ,93.4162 ,1.82811 ,-1.09751 ,-10.76879 
460 ,93.6246 ,1.83015 ,-1.09409 ,-10.73521 
461 ,93.8166 ,1.83205 ,-1.11462 ,-10.93668 
462 ,94.0087 ,1.83400 ,-1.12147 ,-11.00384 
