Data stamp = , 03-05-2022 06:42:41 147

Calibration Values: 
Slope = , 26.54 , g/V 
Offset Voltage at no contact = , -0.501760 , V 

No , Time , Stage Position ,   Mass , Force 
   ,  (s) ,      (mm)      ,   (g)  , (mN)  

1 ,0.0000 ,0.89943 ,5.31563 ,52.15694 
2 ,0.2375 ,0.89953 ,5.30878 ,52.08979 
3 ,0.6056 ,0.90071 ,5.30536 ,52.05621 
4 ,0.8298 ,0.90249 ,5.31905 ,52.19052 
5 ,1.0542 ,0.90460 ,5.30878 ,52.08979 
6 ,1.2622 ,0.90677 ,5.30878 ,52.08979 
7 ,1.4545 ,0.90868 ,5.29167 ,51.92190 
8 ,1.6626 ,0.91086 ,5.28141 ,51.82116 
9 ,1.8705 ,0.91284 ,5.26087 ,51.61969 
10 ,2.0787 ,0.91500 ,5.23692 ,51.38464 
11 ,2.3026 ,0.91718 ,5.22323 ,51.25033 
12 ,2.5109 ,0.91916 ,5.19585 ,50.98170 
13 ,2.7191 ,0.92144 ,5.16505 ,50.67950 
14 ,2.9111 ,0.92330 ,5.17190 ,50.74666 
15 ,3.1027 ,0.92521 ,5.12741 ,50.31014 
16 ,3.2951 ,0.92711 ,5.11372 ,50.17583 
17 ,3.4873 ,0.92903 ,5.10688 ,50.10867 
18 ,3.6632 ,0.93093 ,5.05897 ,49.63857 
19 ,3.8554 ,0.93275 ,5.04870 ,49.53784 
20 ,4.0636 ,0.93483 ,5.03501 ,49.40352 
21 ,4.2555 ,0.93679 ,5.00763 ,49.13490 
22 ,4.4798 ,0.93897 ,4.98026 ,48.86627 
23 ,4.6879 ,0.94106 ,4.97341 ,48.79911 
24 ,4.9279 ,0.94333 ,4.94603 ,48.53049 
25 ,5.1358 ,0.94546 ,4.91181 ,48.19471 
26 ,5.3117 ,0.94740 ,4.88444 ,47.92608 
27 ,5.5043 ,0.94920 ,4.89128 ,47.99324 
28 ,5.6961 ,0.95114 ,4.86390 ,47.72461 
29 ,5.8883 ,0.95302 ,4.84679 ,47.55672 
30 ,6.0803 ,0.95499 ,4.82284 ,47.32167 
31 ,6.2724 ,0.95693 ,4.81257 ,47.22093 
32 ,6.4804 ,0.95898 ,4.76466 ,46.75084 
33 ,6.6884 ,0.96110 ,4.77150 ,46.81800 
34 ,6.8965 ,0.96314 ,4.73728 ,46.48221 
35 ,7.1046 ,0.96516 ,4.72702 ,46.38148 
36 ,7.3125 ,0.96732 ,4.69964 ,46.11285 
37 ,7.5049 ,0.96926 ,4.69279 ,46.04569 
38 ,7.6967 ,0.97110 ,4.64146 ,45.54202 
39 ,7.8891 ,0.97305 ,4.64831 ,45.60918 
40 ,8.0810 ,0.97496 ,4.61408 ,45.27339 
41 ,8.2893 ,0.97710 ,4.61408 ,45.27339 
42 ,8.4814 ,0.97898 ,4.56275 ,44.76972 
43 ,8.7214 ,0.98123 ,4.55591 ,44.70256 
44 ,8.9296 ,0.98346 ,4.53880 ,44.53467 
45 ,9.1535 ,0.98558 ,4.51484 ,44.29962 
46 ,9.3457 ,0.98764 ,4.51142 ,44.26604 
47 ,9.5537 ,0.98970 ,4.47035 ,43.86310 
48 ,9.7458 ,0.99162 ,4.47035 ,43.86310 
49 ,9.9379 ,0.99351 ,4.42586 ,43.42659 
50 ,10.1780 ,0.99579 ,4.42244 ,43.39301 
51 ,10.3697 ,0.99797 ,4.40191 ,43.19154 
52 ,10.5622 ,0.99974 ,4.37795 ,42.95649 
53 ,10.7538 ,1.00175 ,4.35058 ,42.68786 
54 ,10.9463 ,1.00361 ,4.34031 ,42.58713 
55 ,11.1382 ,1.00552 ,4.29924 ,42.18419 
56 ,11.3465 ,1.00761 ,4.29924 ,42.18419 
57 ,11.5383 ,1.00955 ,4.27187 ,41.91556 
58 ,11.7464 ,1.01163 ,4.26502 ,41.84841 
59 ,11.9546 ,1.01370 ,4.22053 ,41.41189 
60 ,12.2109 ,1.01608 ,4.21369 ,41.34473 
61 ,12.4191 ,1.01837 ,4.18974 ,41.10968 
62 ,12.6270 ,1.02039 ,4.17605 ,40.97537 
63 ,12.8031 ,1.02229 ,4.14183 ,40.63959 
64 ,12.9791 ,1.02404 ,4.12814 ,40.50527 
65 ,13.1709 ,1.02586 ,4.13156 ,40.53885 
66 ,13.3634 ,1.02777 ,4.10760 ,40.30380 
67 ,13.5713 ,1.02985 ,4.08365 ,40.06876 
68 ,13.7795 ,1.03186 ,4.06654 ,39.90087 
69 ,14.0032 ,1.03412 ,4.05285 ,39.76655 
70 ,14.1957 ,1.03612 ,4.00836 ,39.33003 
71 ,14.4038 ,1.03820 ,4.00494 ,39.29646 
72 ,14.5958 ,1.04008 ,3.97756 ,39.02783 
73 ,14.8040 ,1.04217 ,3.97072 ,38.96067 
74 ,14.9959 ,1.04411 ,3.94334 ,38.69205 
75 ,15.2681 ,1.04673 ,3.93307 ,38.59131 
76 ,15.4758 ,1.04887 ,3.89543 ,38.22195 
77 ,15.6682 ,1.05087 ,3.90570 ,38.32268 
78 ,15.8604 ,1.05275 ,3.86463 ,37.91975 
79 ,16.0684 ,1.05486 ,3.85436 ,37.81901 
80 ,16.2605 ,1.05674 ,3.83383 ,37.61754 
81 ,16.4844 ,1.05891 ,3.83041 ,37.58396 
82 ,16.6766 ,1.06088 ,3.78934 ,37.18102 
83 ,16.8844 ,1.06297 ,3.78592 ,37.14744 
84 ,17.0768 ,1.06488 ,3.74485 ,36.74450 
85 ,17.2844 ,1.06693 ,3.75170 ,36.81166 
86 ,17.4769 ,1.06888 ,3.71063 ,36.40872 
87 ,17.6850 ,1.07095 ,3.70721 ,36.37514 
88 ,17.8771 ,1.07292 ,3.67983 ,36.10652 
89 ,18.0689 ,1.07482 ,3.68668 ,36.17367 
90 ,18.3729 ,1.07728 ,3.65588 ,35.87147 
91 ,18.5815 ,1.07989 ,3.64219 ,35.73716 
92 ,18.7731 ,1.08189 ,3.59770 ,35.30064 
93 ,18.9812 ,1.08388 ,3.59770 ,35.30064 
94 ,19.1732 ,1.08585 ,3.57717 ,35.09917 
95 ,19.3817 ,1.08791 ,3.56690 ,34.99843 
96 ,19.5897 ,1.08997 ,3.53268 ,34.66265 
97 ,19.7819 ,1.09196 ,3.50530 ,34.39402 
98 ,19.9900 ,1.09397 ,3.50188 ,34.36045 
99 ,20.1981 ,1.09608 ,3.48477 ,34.19255 
100 ,20.4060 ,1.09822 ,3.47792 ,34.12540 
101 ,20.6302 ,1.10037 ,3.44028 ,33.75604 
102 ,20.8223 ,1.10236 ,3.43001 ,33.65530 
103 ,21.0146 ,1.10426 ,3.40606 ,33.42025 
104 ,21.2064 ,1.10618 ,3.41633 ,33.52099 
105 ,21.4145 ,1.10825 ,3.37184 ,33.08447 
106 ,21.6063 ,1.11019 ,3.36157 ,32.98374 
107 ,21.8308 ,1.11230 ,3.34446 ,32.81584 
108 ,22.0389 ,1.11452 ,3.32393 ,32.61437 
109 ,22.2470 ,1.11652 ,3.32393 ,32.61437 
110 ,22.4551 ,1.11865 ,3.29997 ,32.37933 
111 ,22.6472 ,1.12057 ,3.28286 ,32.21143 
112 ,22.8550 ,1.12265 ,3.25206 ,31.90923 
113 ,23.0473 ,1.12462 ,3.24864 ,31.87565 
114 ,23.2393 ,1.12660 ,3.22126 ,31.60702 
115 ,23.4315 ,1.12844 ,3.20415 ,31.43913 
116 ,23.6395 ,1.13048 ,3.18362 ,31.23766 
117 ,23.8312 ,1.13239 ,3.15966 ,31.00262 
118 ,24.0236 ,1.13434 ,3.15966 ,31.00262 
119 ,24.2318 ,1.13630 ,3.13571 ,30.76757 
120 ,24.4399 ,1.13853 ,3.12202 ,30.63325 
121 ,24.6477 ,1.14058 ,3.11175 ,30.53252 
122 ,24.8401 ,1.14248 ,3.08095 ,30.23031 
123 ,25.0639 ,1.14474 ,3.07069 ,30.12958 
124 ,25.2722 ,1.14676 ,3.05358 ,29.96169 
125 ,25.4643 ,1.14873 ,3.05015 ,29.92811 
126 ,25.6563 ,1.15062 ,3.01251 ,29.55875 
127 ,25.8645 ,1.15271 ,3.00567 ,29.49159 
128 ,26.0565 ,1.15468 ,2.97144 ,29.15581 
129 ,26.2646 ,1.15669 ,2.98855 ,29.32370 
130 ,26.4567 ,1.15870 ,2.95091 ,28.95434 
131 ,26.6649 ,1.16072 ,2.93722 ,28.82003 
132 ,26.8566 ,1.16263 ,2.92353 ,28.68571 
133 ,27.0486 ,1.16456 ,2.92353 ,28.68571 
134 ,27.2567 ,1.16661 ,2.88931 ,28.34993 
135 ,27.4811 ,1.16876 ,2.87220 ,28.18204 
136 ,27.7049 ,1.17110 ,2.86193 ,28.08130 
137 ,27.8973 ,1.17301 ,2.81745 ,27.64479 
138 ,28.0893 ,1.17495 ,2.81745 ,27.64479 
139 ,28.2812 ,1.17692 ,2.80376 ,27.51047 
140 ,28.4895 ,1.17896 ,2.79349 ,27.40974 
141 ,28.6816 ,1.18090 ,2.77980 ,27.27542 
142 ,28.8737 ,1.18285 ,2.76269 ,27.10753 
143 ,29.0658 ,1.18473 ,2.74900 ,26.97322 
144 ,29.2574 ,1.18664 ,2.71478 ,26.63744 
145 ,29.4660 ,1.18871 ,2.72505 ,26.73817 
146 ,29.6898 ,1.19085 ,2.68740 ,26.36881 
147 ,29.8820 ,1.19291 ,2.68056 ,26.30165 
148 ,30.0740 ,1.19486 ,2.68056 ,26.30165 
149 ,30.2661 ,1.19687 ,2.64292 ,25.93229 
150 ,30.4420 ,1.19861 ,2.62581 ,25.76440 
151 ,30.6345 ,1.20041 ,2.61554 ,25.66367 
152 ,30.8421 ,1.20253 ,2.61212 ,25.63009 
153 ,31.0345 ,1.20439 ,2.57105 ,25.22715 
154 ,31.2265 ,1.20639 ,2.58474 ,25.36146 
155 ,31.4343 ,1.20839 ,2.54025 ,24.92494 
156 ,31.6268 ,1.21040 ,2.54710 ,24.99210 
157 ,31.8348 ,1.21240 ,2.50945 ,24.62274 
158 ,32.0271 ,1.21436 ,2.51972 ,24.72347 
159 ,32.2187 ,1.21623 ,2.48207 ,24.35411 
160 ,32.4111 ,1.21818 ,2.48207 ,24.35411 
161 ,32.6031 ,1.22012 ,2.46839 ,24.21980 
162 ,32.8113 ,1.22219 ,2.44785 ,24.01833 
163 ,33.0033 ,1.22408 ,2.42048 ,23.74970 
164 ,33.1952 ,1.22604 ,2.39994 ,23.54823 
165 ,33.4035 ,1.22809 ,2.40336 ,23.58181 
166 ,33.5952 ,1.23002 ,2.37941 ,23.34676 
167 ,33.8037 ,1.23206 ,2.37599 ,23.31318 
168 ,34.0117 ,1.23419 ,2.35203 ,23.07814 
169 ,34.2038 ,1.23608 ,2.34177 ,22.97740 
170 ,34.4120 ,1.23816 ,2.31097 ,22.67520 
171 ,34.6201 ,1.24028 ,2.30412 ,22.60804 
172 ,34.8440 ,1.24242 ,2.30070 ,22.57446 
173 ,35.0521 ,1.24459 ,2.27332 ,22.30584 
174 ,35.2442 ,1.24653 ,2.25279 ,22.10437 
175 ,35.4522 ,1.24860 ,2.24252 ,22.00363 
176 ,35.6444 ,1.25051 ,2.22883 ,21.86932 
177 ,35.8521 ,1.25258 ,2.20146 ,21.60069 
178 ,36.0446 ,1.25449 ,2.20146 ,21.60069 
179 ,36.5089 ,1.25784 ,2.18092 ,21.39922 
180 ,36.7329 ,1.26135 ,2.12617 ,20.86197 
181 ,36.9407 ,1.26344 ,2.11932 ,20.79481 
182 ,37.1331 ,1.26541 ,2.10221 ,20.62692 
183 ,37.3570 ,1.26753 ,2.08510 ,20.45903 
184 ,37.5331 ,1.26947 ,2.08852 ,20.49261 
185 ,37.7253 ,1.27129 ,2.07141 ,20.32472 
186 ,37.9334 ,1.27336 ,2.05773 ,20.19040 
187 ,38.1411 ,1.27546 ,2.04061 ,20.02251 
188 ,38.3652 ,1.27771 ,2.03035 ,19.92178 
189 ,38.5731 ,1.27970 ,2.00297 ,19.65315 
190 ,38.7818 ,1.28183 ,1.96875 ,19.31737 
191 ,39.0219 ,1.28411 ,1.96875 ,19.31737 
192 ,39.2297 ,1.28638 ,1.95848 ,19.21663 
193 ,39.4379 ,1.28844 ,1.92084 ,18.84727 
194 ,39.6141 ,1.29032 ,1.92426 ,18.88085 
195 ,39.8061 ,1.29212 ,1.91742 ,18.81369 
196 ,39.9981 ,1.29402 ,1.87293 ,18.37717 
197 ,40.1739 ,1.29590 ,1.87977 ,18.44433 
198 ,40.3661 ,1.29773 ,1.87635 ,18.41075 
199 ,40.5744 ,1.29980 ,1.84555 ,18.10855 
200 ,40.7826 ,1.30186 ,1.83528 ,18.00781 
201 ,40.9906 ,1.30390 ,1.82502 ,17.90708 
202 ,41.1827 ,1.30582 ,1.80791 ,17.73919 
203 ,41.3907 ,1.30788 ,1.77369 ,17.40340 
204 ,41.5988 ,1.31002 ,1.78053 ,17.47056 
205 ,41.7910 ,1.31198 ,1.77369 ,17.40340 
206 ,42.0152 ,1.31407 ,1.73604 ,17.03404 
207 ,42.2391 ,1.31639 ,1.71893 ,16.86615 
208 ,42.4308 ,1.31832 ,1.70866 ,16.76542 
209 ,42.6233 ,1.32025 ,1.70524 ,16.73184 
210 ,42.8154 ,1.32219 ,1.68813 ,16.56395 
211 ,43.0237 ,1.32428 ,1.67444 ,16.42963 
212 ,43.2316 ,1.32636 ,1.66418 ,16.32890 
213 ,43.4392 ,1.32843 ,1.63680 ,16.06027 
214 ,43.6478 ,1.33052 ,1.64022 ,16.09385 
215 ,43.8558 ,1.33259 ,1.60942 ,15.79164 
216 ,44.0641 ,1.33468 ,1.60600 ,15.75807 
217 ,44.2560 ,1.33661 ,1.57862 ,15.48944 
218 ,44.4642 ,1.33868 ,1.56836 ,15.38871 
219 ,44.6882 ,1.34088 ,1.54782 ,15.18724 
220 ,44.8962 ,1.34301 ,1.52387 ,14.95219 
221 ,45.0883 ,1.34487 ,1.52729 ,14.98577 
222 ,45.2965 ,1.34700 ,1.50333 ,14.75072 
223 ,45.5044 ,1.34901 ,1.49649 ,14.68356 
224 ,45.6963 ,1.35101 ,1.47938 ,14.51567 
225 ,45.8885 ,1.35292 ,1.47596 ,14.48209 
226 ,46.0968 ,1.35494 ,1.44858 ,14.21346 
227 ,46.2887 ,1.35691 ,1.44858 ,14.21346 
228 ,46.4968 ,1.35901 ,1.41436 ,13.87768 
229 ,46.6888 ,1.36092 ,1.43489 ,14.07915 
230 ,46.8972 ,1.36303 ,1.39725 ,13.70979 
231 ,47.1052 ,1.36509 ,1.39383 ,13.67621 
232 ,47.2972 ,1.36698 ,1.36303 ,13.37401 
233 ,47.4894 ,1.36886 ,1.36987 ,13.44116 
234 ,47.6815 ,1.37080 ,1.34591 ,13.20612 
235 ,47.8896 ,1.37286 ,1.33565 ,13.10538 
236 ,48.0816 ,1.37483 ,1.31169 ,12.87033 
237 ,48.3058 ,1.37704 ,1.31169 ,12.87033 
238 ,48.5139 ,1.37914 ,1.28774 ,12.63528 
239 ,48.7059 ,1.38112 ,1.27405 ,12.50097 
240 ,48.8976 ,1.38299 ,1.26036 ,12.36666 
241 ,49.1222 ,1.38507 ,1.26720 ,12.43381 
242 ,49.3460 ,1.38742 ,1.24667 ,12.23235 
243 ,49.5383 ,1.38943 ,1.21587 ,11.93014 
244 ,49.7459 ,1.39143 ,1.21929 ,11.96372 
245 ,49.9384 ,1.39339 ,1.18850 ,11.66151 
246 ,50.1303 ,1.39527 ,1.18850 ,11.66151 
247 ,50.3226 ,1.39721 ,1.15770 ,11.35931 
248 ,50.5145 ,1.39914 ,1.16796 ,11.46004 
249 ,50.7068 ,1.40106 ,1.14743 ,11.25857 
250 ,50.9148 ,1.40317 ,1.13032 ,11.09068 
251 ,51.1224 ,1.40520 ,1.10979 ,10.88921 
252 ,51.3150 ,1.40717 ,1.10294 ,10.82206 
253 ,51.5231 ,1.40925 ,1.08241 ,10.62059 
254 ,51.7312 ,1.41132 ,1.09610 ,10.75490 
255 ,51.9393 ,1.41335 ,1.05161 ,10.31838 
256 ,52.1313 ,1.41530 ,1.05161 ,10.31838 
257 ,52.3393 ,1.41739 ,1.02765 ,10.08333 
258 ,52.5476 ,1.41941 ,1.03450 ,10.15049 
259 ,52.7392 ,1.42139 ,0.99685 ,9.78113 
260 ,52.9316 ,1.42332 ,1.00028 ,9.81471 
261 ,53.1238 ,1.42524 ,0.97974 ,9.61324 
262 ,53.3155 ,1.42717 ,0.97974 ,9.61324 
263 ,53.5080 ,1.42908 ,0.96605 ,9.47892 
264 ,53.7160 ,1.43116 ,0.94210 ,9.24388 
265 ,53.9401 ,1.43336 ,0.91472 ,8.97525 
266 ,54.1318 ,1.43540 ,0.93868 ,9.21030 
267 ,54.3241 ,1.43721 ,0.91814 ,9.00883 
268 ,54.5323 ,1.43925 ,0.89077 ,8.74020 
269 ,54.7403 ,1.44136 ,0.87023 ,8.53873 
270 ,54.9485 ,1.44345 ,0.88734 ,8.70662 
271 ,55.1403 ,1.44541 ,0.85312 ,8.37084 
272 ,55.3487 ,1.44743 ,0.85654 ,8.40442 
273 ,55.5404 ,1.44947 ,0.82917 ,8.13579 
274 ,55.7323 ,1.45130 ,0.81890 ,8.03506 
275 ,55.9247 ,1.45321 ,0.80521 ,7.90074 
276 ,56.1170 ,1.45521 ,0.80521 ,7.90074 
277 ,56.3249 ,1.45722 ,0.79152 ,7.76643 
278 ,56.5170 ,1.45914 ,0.77784 ,7.63212 
279 ,56.7251 ,1.46117 ,0.76757 ,7.53138 
280 ,56.9492 ,1.46339 ,0.75388 ,7.39707 
281 ,57.1409 ,1.46540 ,0.73335 ,7.19560 
282 ,57.3650 ,1.46755 ,0.74019 ,7.26276 
283 ,57.5576 ,1.46957 ,0.70255 ,6.89340 
284 ,57.7495 ,1.47148 ,0.71624 ,7.02771 
285 ,57.9418 ,1.47341 ,0.68201 ,6.69193 
286 ,58.1498 ,1.47540 ,0.68201 ,6.69193 
287 ,58.3578 ,1.47755 ,0.65121 ,6.38972 
288 ,58.5501 ,1.47945 ,0.66148 ,6.49046 
289 ,58.7416 ,1.48150 ,0.63753 ,6.25541 
290 ,58.9502 ,1.48343 ,0.63753 ,6.25541 
291 ,59.1422 ,1.48541 ,0.59988 ,5.88605 
292 ,59.3503 ,1.48742 ,0.61357 ,6.02036 
293 ,59.5425 ,1.48943 ,0.58962 ,5.78531 
294 ,59.7504 ,1.49144 ,0.59304 ,5.81889 
295 ,59.9585 ,1.49348 ,0.56224 ,5.51668 
296 ,60.1660 ,1.49560 ,0.56224 ,5.51668 
297 ,60.3745 ,1.49773 ,0.55539 ,5.44953 
298 ,60.5824 ,1.49983 ,0.52459 ,5.14732 
299 ,60.7746 ,1.50168 ,0.52117 ,5.11375 
300 ,60.9828 ,1.50376 ,0.49037 ,4.81154 
301 ,61.1748 ,1.50571 ,0.49722 ,4.87870 
302 ,61.3669 ,1.50764 ,0.48695 ,4.77796 
303 ,61.5431 ,1.50947 ,0.48011 ,4.71081 
304 ,61.7349 ,1.51128 ,0.46642 ,4.57649 
305 ,61.9274 ,1.51319 ,0.45273 ,4.44218 
306 ,62.1191 ,1.51517 ,0.43220 ,4.24071 
307 ,62.3276 ,1.51723 ,0.44246 ,4.34144 
308 ,62.5199 ,1.51914 ,0.42193 ,4.13997 
309 ,62.7438 ,1.52135 ,0.40482 ,3.97208 
310 ,62.9519 ,1.52351 ,0.38771 ,3.80419 
311 ,63.1435 ,1.52539 ,0.36718 ,3.60272 
312 ,63.3359 ,1.52734 ,0.37744 ,3.70346 
313 ,63.5440 ,1.52937 ,0.34322 ,3.36767 
314 ,63.7360 ,1.53132 ,0.36033 ,3.53557 
315 ,63.9600 ,1.53354 ,0.32269 ,3.16620 
316 ,64.1679 ,1.53562 ,0.32611 ,3.19978 
317 ,64.3760 ,1.53763 ,0.31242 ,3.06547 
318 ,64.5684 ,1.53960 ,0.31242 ,3.06547 
319 ,64.7605 ,1.54153 ,0.29189 ,2.86400 
320 ,64.9685 ,1.54358 ,0.28504 ,2.79684 
321 ,65.1767 ,1.54572 ,0.28162 ,2.76326 
322 ,65.3687 ,1.54762 ,0.26109 ,2.56179 
323 ,65.5768 ,1.54969 ,0.24740 ,2.42748 
324 ,65.7686 ,1.55163 ,0.24055 ,2.36032 
325 ,65.9609 ,1.55355 ,0.21318 ,2.09170 
326 ,66.1529 ,1.55546 ,0.21660 ,2.12528 
327 ,66.3608 ,1.55753 ,0.19264 ,1.89023 
328 ,66.5692 ,1.55961 ,0.19949 ,1.95738 
329 ,66.7771 ,1.56173 ,0.19264 ,1.89023 
330 ,66.9694 ,1.56365 ,0.17896 ,1.75592 
331 ,67.1775 ,1.56571 ,0.16869 ,1.65518 
332 ,67.3856 ,1.56778 ,0.15158 ,1.48729 
333 ,67.5776 ,1.56971 ,0.13789 ,1.35298 
334 ,67.7857 ,1.57177 ,0.11736 ,1.15151 
335 ,67.9776 ,1.57372 ,0.11736 ,1.15151 
336 ,68.1859 ,1.57576 ,0.10367 ,1.01719 
337 ,68.3781 ,1.57767 ,0.10709 ,1.05077 
338 ,68.5861 ,1.57974 ,0.08656 ,0.84930 
339 ,68.8102 ,1.58190 ,0.07971 ,0.78214 
340 ,69.0023 ,1.58400 ,0.06260 ,0.61425 
341 ,69.1940 ,1.58588 ,0.06602 ,0.64783 
342 ,69.3865 ,1.58777 ,0.03865 ,0.37920 
343 ,69.5942 ,1.58981 ,0.05234 ,0.51352 
344 ,69.8188 ,1.59199 ,0.01127 ,0.11058 
345 ,70.0267 ,1.59419 ,0.00785 ,0.07700 
346 ,70.2027 ,1.59605 ,0.01127 ,0.11058 
347 ,70.4109 ,1.59799 ,0.00443 ,0.04342 
348 ,70.6028 ,1.59994 ,-0.02637 ,-0.25878 
349 ,70.8271 ,1.60216 ,-0.01611 ,-0.15805 
350 ,71.0351 ,1.60429 ,-0.03322 ,-0.32594 
351 ,71.2272 ,1.60617 ,-0.05375 ,-0.52741 
352 ,71.4192 ,1.60812 ,-0.05033 ,-0.49383 
353 ,71.6113 ,1.61005 ,-0.05717 ,-0.56099 
354 ,71.8031 ,1.61194 ,-0.08113 ,-0.79604 
355 ,72.0118 ,1.61401 ,-0.07086 ,-0.69530 
356 ,72.2036 ,1.61605 ,-0.10166 ,-0.99751 
357 ,72.3796 ,1.61783 ,-0.11193 ,-1.09824 
358 ,72.5717 ,1.61974 ,-0.11535 ,-1.13182 
359 ,72.7636 ,1.62153 ,-0.12904 ,-1.26613 
360 ,72.9558 ,1.62350 ,-0.12562 ,-1.23255 
361 ,73.1480 ,1.62539 ,-0.13931 ,-1.36687 
362 ,73.3401 ,1.62729 ,-0.13931 ,-1.36687 
363 ,73.5482 ,1.62942 ,-0.15299 ,-1.50118 
364 ,73.7402 ,1.63130 ,-0.17353 ,-1.70265 
365 ,73.9481 ,1.63338 ,-0.20090 ,-1.97128 
366 ,74.1563 ,1.63544 ,-0.18722 ,-1.83696 
367 ,74.3644 ,1.63755 ,-0.21117 ,-2.07201 
368 ,74.5564 ,1.63946 ,-0.19064 ,-1.87054 
369 ,74.7647 ,1.64157 ,-0.23513 ,-2.30706 
370 ,74.9722 ,1.64357 ,-0.21459 ,-2.10559 
371 ,75.1646 ,1.64557 ,-0.24881 ,-2.44137 
372 ,75.3889 ,1.64780 ,-0.25224 ,-2.47495 
373 ,75.5969 ,1.64984 ,-0.24881 ,-2.44137 
374 ,75.8046 ,1.65192 ,-0.27961 ,-2.74358 
375 ,75.9969 ,1.65382 ,-0.26593 ,-2.60926 
376 ,76.1728 ,1.65573 ,-0.28988 ,-2.84431 
377 ,76.3652 ,1.65758 ,-0.30699 ,-3.01220 
378 ,76.5732 ,1.65965 ,-0.30015 ,-2.94505 
379 ,76.7810 ,1.66170 ,-0.32410 ,-3.18010 
380 ,76.9735 ,1.66364 ,-0.31726 ,-3.11294 
381 ,77.1654 ,1.66553 ,-0.34121 ,-3.34799 
382 ,77.3577 ,1.66749 ,-0.34806 ,-3.41514 
383 ,77.5819 ,1.66964 ,-0.36517 ,-3.58303 
384 ,77.7735 ,1.67164 ,-0.35148 ,-3.44872 
385 ,77.9659 ,1.67354 ,-0.38228 ,-3.75093 
386 ,78.1581 ,1.67549 ,-0.37886 ,-3.71735 
387 ,78.3657 ,1.67753 ,-0.40623 ,-3.98597 
388 ,78.5582 ,1.67945 ,-0.39597 ,-3.88524 
389 ,78.7499 ,1.68144 ,-0.39939 ,-3.91882 
390 ,78.9419 ,1.68332 ,-0.42335 ,-4.15387 
391 ,79.1341 ,1.68520 ,-0.43019 ,-4.22102 
392 ,79.4223 ,1.68767 ,-0.44730 ,-4.38891 
393 ,79.6146 ,1.69014 ,-0.45414 ,-4.45607 
394 ,79.8227 ,1.69211 ,-0.48152 ,-4.72470 
395 ,80.0150 ,1.69403 ,-0.46783 ,-4.59038 
396 ,80.2229 ,1.69616 ,-0.49179 ,-4.82543 
397 ,80.4310 ,1.69820 ,-0.49179 ,-4.82543 
398 ,80.6228 ,1.70022 ,-0.49521 ,-4.85901 
399 ,80.8146 ,1.70202 ,-0.50548 ,-4.95975 
400 ,81.0070 ,1.70390 ,-0.52259 ,-5.12764 
401 ,81.1831 ,1.70581 ,-0.52601 ,-5.16121 
402 ,81.3751 ,1.70761 ,-0.51917 ,-5.09406 
403 ,81.5672 ,1.70952 ,-0.55339 ,-5.42984 
404 ,81.7911 ,1.71171 ,-0.55339 ,-5.42984 
405 ,81.9837 ,1.71368 ,-0.56023 ,-5.49700 
406 ,82.1916 ,1.71572 ,-0.56708 ,-5.56415 
407 ,82.3838 ,1.71772 ,-0.58761 ,-5.76562 
408 ,82.6080 ,1.71992 ,-0.58761 ,-5.76562 
409 ,82.7996 ,1.72185 ,-0.60130 ,-5.89994 
410 ,82.9921 ,1.72376 ,-0.59788 ,-5.86636 
411 ,83.1841 ,1.72572 ,-0.63210 ,-6.20214 
412 ,83.3760 ,1.72760 ,-0.61156 ,-6.00067 
413 ,83.5844 ,1.72967 ,-0.64579 ,-6.33646 
414 ,83.7919 ,1.73174 ,-0.64236 ,-6.30288 
415 ,84.0005 ,1.73384 ,-0.67659 ,-6.63866 
416 ,84.2081 ,1.73599 ,-0.66974 ,-6.57150 
417 ,84.4007 ,1.73790 ,-0.67659 ,-6.63866 
418 ,84.5927 ,1.73984 ,-0.66290 ,-6.50435 
419 ,84.8007 ,1.74190 ,-0.69370 ,-6.80655 
420 ,84.9928 ,1.74376 ,-0.69027 ,-6.77297 
421 ,85.2009 ,1.74588 ,-0.70739 ,-6.94086 
422 ,85.3930 ,1.74776 ,-0.71423 ,-7.00802 
423 ,85.6011 ,1.74987 ,-0.72107 ,-7.07518 
424 ,85.8091 ,1.75192 ,-0.72792 ,-7.14233 
425 ,86.0168 ,1.75399 ,-0.74845 ,-7.34380 
426 ,86.2094 ,1.75596 ,-0.74503 ,-7.31023 
427 ,86.4014 ,1.75789 ,-0.75872 ,-7.44454 
428 ,86.6096 ,1.75998 ,-0.75872 ,-7.44454 
429 ,86.8172 ,1.76201 ,-0.76898 ,-7.54527 
430 ,87.0097 ,1.76398 ,-0.78267 ,-7.67959 
431 ,87.2334 ,1.76611 ,-0.79294 ,-7.78032 
432 ,87.4419 ,1.76823 ,-0.81689 ,-8.01537 
433 ,87.6500 ,1.77030 ,-0.80663 ,-7.91464 
434 ,87.8579 ,1.77242 ,-0.82032 ,-8.04895 
435 ,88.0659 ,1.77446 ,-0.83743 ,-8.21684 
436 ,88.2420 ,1.77638 ,-0.84085 ,-8.25042 
437 ,88.4342 ,1.77815 ,-0.84085 ,-8.25042 
438 ,88.6262 ,1.78008 ,-0.86138 ,-8.45189 
439 ,88.8181 ,1.78204 ,-0.86138 ,-8.45189 
440 ,89.0105 ,1.78396 ,-0.87849 ,-8.61978 
441 ,89.2026 ,1.78589 ,-0.88876 ,-8.72051 
442 ,89.4267 ,1.78801 ,-0.87507 ,-8.58620 
443 ,89.6347 ,1.79017 ,-0.89903 ,-8.82125 
444 ,89.8269 ,1.79211 ,-0.91272 ,-8.95556 
445 ,90.0350 ,1.79419 ,-0.90929 ,-8.92198 
446 ,90.2430 ,1.79625 ,-0.93667 ,-9.19061 
447 ,90.4347 ,1.79816 ,-0.92640 ,-9.08988 
448 ,90.6271 ,1.80011 ,-0.94351 ,-9.25777 
449 ,90.8195 ,1.80206 ,-0.94351 ,-9.25777 
450 ,91.0271 ,1.80408 ,-0.95378 ,-9.35850 
451 ,91.2515 ,1.80635 ,-0.97431 ,-9.55997 
452 ,91.4430 ,1.80826 ,-0.98800 ,-9.69429 
453 ,91.6676 ,1.81039 ,-0.97774 ,-9.59355 
454 ,91.8756 ,1.81263 ,-0.99143 ,-9.72786 
455 ,92.0677 ,1.81454 ,-1.00854 ,-9.89576 
456 ,92.2599 ,1.81644 ,-1.01196 ,-9.92933 
457 ,92.4679 ,1.81842 ,-1.01196 ,-9.92933 
458 ,92.6758 ,1.82057 ,-1.03249 ,-10.13080 
459 ,92.8840 ,1.82264 ,-1.04276 ,-10.23154 
460 ,93.0759 ,1.82457 ,-1.03591 ,-10.16438 
461 ,93.2842 ,1.82665 ,-1.06671 ,-10.46659 
462 ,93.4762 ,1.82859 ,-1.06671 ,-10.46659 
