Data stamp = , 03-05-2022 09:40:41 943

Calibration Values: 
Slope = , 26.54 , g/V 
Offset Voltage at no contact = , -0.501760 , V 

No , Time , Stage Position ,   Mass , Force 
   ,  (s) ,      (mm)      ,   (g)  , (mN)  

1 ,0.0000 ,0.89946 ,5.28825 ,51.88832 
2 ,0.2255 ,0.89956 ,5.26087 ,51.61969 
3 ,0.6581 ,0.90089 ,5.26087 ,51.61969 
4 ,0.8658 ,0.90294 ,5.27798 ,51.78758 
5 ,1.0742 ,0.90489 ,5.28825 ,51.88832 
6 ,1.3139 ,0.90726 ,5.27798 ,51.78758 
7 ,1.5225 ,0.90941 ,5.27456 ,51.75401 
8 ,1.7305 ,0.91153 ,5.24718 ,51.48538 
9 ,1.9225 ,0.91339 ,5.23692 ,51.38464 
10 ,2.1307 ,0.91551 ,5.20612 ,51.08244 
11 ,2.3386 ,0.91758 ,5.19243 ,50.94813 
12 ,2.5308 ,0.91953 ,5.16505 ,50.67950 
13 ,2.7227 ,0.92148 ,5.16505 ,50.67950 
14 ,2.9309 ,0.92354 ,5.11714 ,50.20940 
15 ,3.1069 ,0.92536 ,5.12056 ,50.24298 
16 ,3.2990 ,0.92714 ,5.10345 ,50.07509 
17 ,3.4909 ,0.92915 ,5.06923 ,49.73931 
18 ,3.6991 ,0.93117 ,5.05212 ,49.57142 
19 ,3.9068 ,0.93340 ,5.02132 ,49.26921 
20 ,4.0989 ,0.93527 ,5.01448 ,49.20205 
21 ,4.3074 ,0.93725 ,4.96999 ,48.76554 
22 ,4.5317 ,0.93954 ,4.95630 ,48.63122 
23 ,4.7395 ,0.94161 ,4.95630 ,48.63122 
24 ,4.9798 ,0.94384 ,4.90839 ,48.16113 
25 ,5.1873 ,0.94609 ,4.88444 ,47.92608 
26 ,5.4274 ,0.94842 ,4.86732 ,47.75819 
27 ,5.6361 ,0.95059 ,4.86390 ,47.72461 
28 ,5.8441 ,0.95264 ,4.80230 ,47.12020 
29 ,6.0363 ,0.95454 ,4.81941 ,47.28809 
30 ,6.2441 ,0.95661 ,4.77150 ,46.81800 
31 ,6.4527 ,0.95875 ,4.76466 ,46.75084 
32 ,6.6606 ,0.96068 ,4.73728 ,46.48221 
33 ,6.8681 ,0.96289 ,4.70648 ,46.18001 
34 ,7.0604 ,0.96479 ,4.70306 ,46.14643 
35 ,7.2528 ,0.96674 ,4.68937 ,46.01212 
36 ,7.4446 ,0.96862 ,4.65515 ,45.67633 
37 ,7.6529 ,0.97072 ,4.64146 ,45.54202 
38 ,7.8447 ,0.97257 ,4.60382 ,45.17266 
39 ,8.0370 ,0.97454 ,4.60040 ,45.13908 
40 ,8.2285 ,0.97648 ,4.57644 ,44.90403 
41 ,8.4532 ,0.97872 ,4.55933 ,44.73614 
42 ,8.6452 ,0.98060 ,4.52853 ,44.43394 
43 ,8.8534 ,0.98264 ,4.52853 ,44.43394 
44 ,9.0610 ,0.98475 ,4.48746 ,44.03100 
45 ,9.2534 ,0.98677 ,4.48404 ,43.99742 
46 ,9.4617 ,0.98881 ,4.44982 ,43.66163 
47 ,9.6536 ,0.99073 ,4.46009 ,43.76237 
48 ,9.8618 ,0.99279 ,4.40875 ,43.25870 
49 ,10.0537 ,0.99472 ,4.41218 ,43.29227 
50 ,10.2778 ,0.99687 ,4.37111 ,42.88933 
51 ,10.4858 ,0.99905 ,4.35742 ,42.75502 
52 ,10.7097 ,1.00121 ,4.35058 ,42.68786 
53 ,10.9017 ,1.00325 ,4.30267 ,42.21777 
54 ,11.0778 ,1.00506 ,4.30609 ,42.25135 
55 ,11.3178 ,1.00713 ,4.29240 ,42.11703 
56 ,11.5100 ,1.00927 ,4.27187 ,41.91556 
57 ,11.7185 ,1.01134 ,4.23765 ,41.57978 
58 ,11.9266 ,1.01347 ,4.22053 ,41.41189 
59 ,12.1346 ,1.01545 ,4.20000 ,41.21042 
60 ,12.3103 ,1.01737 ,4.18289 ,41.04253 
61 ,12.5188 ,1.01927 ,4.15209 ,40.74032 
62 ,12.7269 ,1.02143 ,4.14525 ,40.67317 
63 ,12.9029 ,1.02329 ,4.12129 ,40.43812 
64 ,13.0950 ,1.02508 ,4.12471 ,40.47170 
65 ,13.2870 ,1.02701 ,4.09734 ,40.20307 
66 ,13.4788 ,1.02899 ,4.06312 ,39.86729 
67 ,13.6873 ,1.03102 ,4.06654 ,39.90087 
68 ,13.8953 ,1.03309 ,4.02205 ,39.46435 
69 ,14.1034 ,1.03526 ,4.01178 ,39.36361 
70 ,14.3115 ,1.03723 ,4.00152 ,39.26288 
71 ,14.5197 ,1.03935 ,3.96387 ,38.89352 
72 ,14.7277 ,1.04142 ,3.97072 ,38.96067 
73 ,14.9359 ,1.04351 ,3.92965 ,38.55773 
74 ,15.1279 ,1.04543 ,3.91938 ,38.45700 
75 ,15.4320 ,1.04803 ,3.90912 ,38.35626 
76 ,15.6240 ,1.05039 ,3.85779 ,37.85259 
77 ,15.8319 ,1.05246 ,3.86805 ,37.95332 
78 ,16.0404 ,1.05459 ,3.83041 ,37.58396 
79 ,16.2645 ,1.05664 ,3.82699 ,37.55038 
80 ,16.4565 ,1.05872 ,3.80645 ,37.34891 
81 ,16.6642 ,1.06071 ,3.78934 ,37.18102 
82 ,16.8565 ,1.06270 ,3.76196 ,36.91240 
83 ,17.0487 ,1.06467 ,3.77223 ,37.01313 
84 ,17.2407 ,1.06658 ,3.73459 ,36.64377 
85 ,17.4328 ,1.06849 ,3.72432 ,36.54303 
86 ,17.6571 ,1.07068 ,3.69010 ,36.20725 
87 ,17.8646 ,1.07270 ,3.68325 ,36.14010 
88 ,18.0885 ,1.07496 ,3.65930 ,35.90505 
89 ,18.2808 ,1.07703 ,3.62850 ,35.60284 
90 ,18.4729 ,1.07885 ,3.62850 ,35.60284 
91 ,18.6815 ,1.08092 ,3.60797 ,35.40137 
92 ,18.8894 ,1.08301 ,3.59770 ,35.30064 
93 ,19.0816 ,1.08493 ,3.56006 ,34.93128 
94 ,19.2735 ,1.08686 ,3.56006 ,34.93128 
95 ,19.4653 ,1.08877 ,3.54979 ,34.83054 
96 ,19.6577 ,1.09076 ,3.51215 ,34.46118 
97 ,19.8497 ,1.09266 ,3.52584 ,34.59549 
98 ,20.0578 ,1.09465 ,3.49161 ,34.25971 
99 ,20.2976 ,1.09701 ,3.49504 ,34.29329 
100 ,20.4899 ,1.09904 ,3.46424 ,33.99108 
101 ,20.6821 ,1.10094 ,3.42317 ,33.58814 
102 ,20.8740 ,1.10287 ,3.42317 ,33.58814 
103 ,21.0663 ,1.10478 ,3.41633 ,33.52099 
104 ,21.2579 ,1.10675 ,3.38553 ,33.21878 
105 ,21.4505 ,1.10868 ,3.37526 ,33.11805 
106 ,21.6424 ,1.11058 ,3.35815 ,32.95016 
107 ,21.8505 ,1.11263 ,3.33077 ,32.68153 
108 ,22.0587 ,1.11471 ,3.31708 ,32.54722 
109 ,22.2509 ,1.11666 ,3.30339 ,32.41290 
110 ,22.4909 ,1.11892 ,3.27259 ,32.11070 
111 ,22.6990 ,1.12117 ,3.25548 ,31.94281 
112 ,22.8905 ,1.12302 ,3.25548 ,31.94281 
113 ,23.0830 ,1.12493 ,3.23837 ,31.77492 
114 ,23.2911 ,1.12703 ,3.21784 ,31.57345 
115 ,23.4833 ,1.12898 ,3.21442 ,31.53987 
116 ,23.7394 ,1.13144 ,3.18362 ,31.23766 
117 ,23.9313 ,1.13347 ,3.16651 ,31.06977 
118 ,24.1075 ,1.13529 ,3.16309 ,31.03619 
119 ,24.2996 ,1.13711 ,3.13229 ,30.73399 
120 ,24.4915 ,1.13908 ,3.12202 ,30.63325 
121 ,24.6997 ,1.14114 ,3.10491 ,30.46536 
122 ,24.9238 ,1.14334 ,3.09122 ,30.33105 
123 ,25.1156 ,1.14523 ,3.05015 ,29.92811 
124 ,25.3079 ,1.14720 ,3.04331 ,29.86095 
125 ,25.4999 ,1.14909 ,3.03989 ,29.82737 
126 ,25.6916 ,1.15113 ,3.00909 ,29.52517 
127 ,25.8837 ,1.15296 ,3.00567 ,29.49159 
128 ,26.0763 ,1.15485 ,2.97829 ,29.22297 
129 ,26.2844 ,1.15689 ,2.97829 ,29.22297 
130 ,26.4925 ,1.15899 ,2.95433 ,28.98792 
131 ,26.6845 ,1.16096 ,2.94064 ,28.85360 
132 ,26.8926 ,1.16294 ,2.90985 ,28.55140 
133 ,27.1007 ,1.16511 ,2.90642 ,28.51782 
134 ,27.3085 ,1.16717 ,2.89273 ,28.38351 
135 ,27.5012 ,1.16913 ,2.86536 ,28.11488 
136 ,27.7091 ,1.17116 ,2.84482 ,27.91341 
137 ,27.9008 ,1.17308 ,2.84140 ,27.87983 
138 ,28.0933 ,1.17504 ,2.81402 ,27.61121 
139 ,28.3013 ,1.17709 ,2.81060 ,27.57763 
140 ,28.5252 ,1.17932 ,2.78665 ,27.34258 
141 ,28.7174 ,1.18129 ,2.76611 ,27.14111 
142 ,28.9412 ,1.18348 ,2.75585 ,27.04038 
143 ,29.1657 ,1.18562 ,2.72163 ,26.70459 
144 ,29.4058 ,1.18798 ,2.70452 ,26.53670 
145 ,29.5977 ,1.19005 ,2.71136 ,26.60386 
146 ,29.8059 ,1.19215 ,2.67714 ,26.26807 
147 ,29.9978 ,1.19407 ,2.67714 ,26.26807 
148 ,30.2062 ,1.19616 ,2.63265 ,25.83156 
149 ,30.4140 ,1.19824 ,2.62238 ,25.73082 
150 ,30.6224 ,1.20030 ,2.61554 ,25.66367 
151 ,30.8305 ,1.20241 ,2.58474 ,25.36146 
152 ,31.0225 ,1.20435 ,2.58816 ,25.39504 
153 ,31.2305 ,1.20638 ,2.55394 ,25.05926 
154 ,31.4065 ,1.20828 ,2.55052 ,25.02568 
155 ,31.5827 ,1.21002 ,2.55736 ,25.09283 
156 ,31.7746 ,1.21181 ,2.52314 ,24.75705 
157 ,31.9988 ,1.21409 ,2.51287 ,24.65632 
158 ,32.1908 ,1.21600 ,2.46839 ,24.21980 
159 ,32.4150 ,1.21820 ,2.47181 ,24.25338 
160 ,32.6389 ,1.22044 ,2.45127 ,24.05191 
161 ,32.8471 ,1.22245 ,2.43759 ,23.91759 
162 ,33.0713 ,1.22457 ,2.43759 ,23.91759 
163 ,33.2953 ,1.22691 ,2.41363 ,23.68255 
164 ,33.5192 ,1.22916 ,2.37256 ,23.27961 
165 ,33.7276 ,1.23134 ,2.35203 ,23.07814 
166 ,33.9356 ,1.23341 ,2.36914 ,23.24603 
167 ,34.1438 ,1.23548 ,2.33492 ,22.91024 
168 ,34.3518 ,1.23747 ,2.33492 ,22.91024 
169 ,34.5599 ,1.23970 ,2.31097 ,22.67520 
170 ,34.7678 ,1.24176 ,2.26648 ,22.23868 
171 ,34.9761 ,1.24379 ,2.26990 ,22.27226 
172 ,35.1682 ,1.24574 ,2.24594 ,22.03721 
173 ,35.3761 ,1.24783 ,2.25279 ,22.10437 
174 ,35.5679 ,1.24977 ,2.21172 ,21.70143 
175 ,35.7764 ,1.25184 ,2.20830 ,21.66785 
176 ,35.9685 ,1.25376 ,2.18777 ,21.46638 
177 ,36.1764 ,1.25584 ,2.18435 ,21.43280 
178 ,36.3687 ,1.25777 ,2.14328 ,21.02986 
179 ,36.5767 ,1.25978 ,2.13301 ,20.92912 
180 ,36.7848 ,1.26194 ,2.11590 ,20.76123 
181 ,37.0087 ,1.26415 ,2.09537 ,20.55976 
182 ,37.2011 ,1.26605 ,2.08852 ,20.49261 
183 ,37.4091 ,1.26813 ,2.07141 ,20.32472 
184 ,37.6172 ,1.27023 ,2.07484 ,20.35829 
185 ,37.8251 ,1.27223 ,2.02693 ,19.88820 
186 ,38.0334 ,1.27437 ,2.03377 ,19.95535 
187 ,38.2413 ,1.27644 ,2.00982 ,19.72031 
188 ,38.4974 ,1.27892 ,1.98586 ,19.48526 
189 ,38.6897 ,1.28097 ,1.97902 ,19.41810 
190 ,38.9138 ,1.28314 ,1.97902 ,19.41810 
191 ,39.1057 ,1.28507 ,1.93453 ,18.98158 
192 ,39.2976 ,1.28704 ,1.94137 ,19.04874 
193 ,39.5059 ,1.28903 ,1.90715 ,18.71296 
194 ,39.6980 ,1.29102 ,1.91399 ,18.78011 
195 ,39.9056 ,1.29311 ,1.88319 ,18.47791 
196 ,40.1142 ,1.29517 ,1.88319 ,18.47791 
197 ,40.3222 ,1.29725 ,1.84897 ,18.14213 
198 ,40.5143 ,1.29918 ,1.84555 ,18.10855 
199 ,40.7384 ,1.30134 ,1.82844 ,17.94066 
200 ,40.9304 ,1.30335 ,1.80791 ,17.73919 
201 ,41.1386 ,1.30543 ,1.80106 ,17.67203 
202 ,41.3463 ,1.30754 ,1.77711 ,17.43698 
203 ,41.5708 ,1.30960 ,1.78395 ,17.50414 
204 ,41.7789 ,1.31183 ,1.73604 ,17.03404 
205 ,41.9869 ,1.31393 ,1.73262 ,17.00046 
206 ,42.1947 ,1.31603 ,1.73262 ,17.00046 
207 ,42.3871 ,1.31791 ,1.70524 ,16.73184 
208 ,42.5793 ,1.31986 ,1.68813 ,16.56395 
209 ,42.7873 ,1.32190 ,1.68129 ,16.49679 
210 ,42.9953 ,1.32399 ,1.65733 ,16.26174 
211 ,43.1873 ,1.32588 ,1.65049 ,16.19458 
212 ,43.4116 ,1.32813 ,1.63680 ,16.06027 
213 ,43.6355 ,1.33033 ,1.60942 ,15.79164 
214 ,43.8278 ,1.33231 ,1.59573 ,15.65733 
215 ,44.0356 ,1.33433 ,1.58889 ,15.59018 
216 ,44.2277 ,1.33632 ,1.57520 ,15.45586 
217 ,44.4359 ,1.33839 ,1.55467 ,15.25439 
218 ,44.6441 ,1.34050 ,1.54098 ,15.12008 
219 ,44.8359 ,1.34239 ,1.53071 ,15.01934 
220 ,45.0440 ,1.34451 ,1.51018 ,14.81787 
221 ,45.2523 ,1.34655 ,1.51360 ,14.85145 
222 ,45.4439 ,1.34844 ,1.46911 ,14.41493 
223 ,45.6525 ,1.35053 ,1.47938 ,14.51567 
224 ,45.8604 ,1.35260 ,1.44858 ,14.21346 
225 ,46.0526 ,1.35459 ,1.45542 ,14.28062 
226 ,46.2608 ,1.35663 ,1.42805 ,14.01199 
227 ,46.4528 ,1.35859 ,1.43831 ,14.11273 
228 ,46.6768 ,1.36077 ,1.38698 ,13.60906 
229 ,46.8848 ,1.36286 ,1.37671 ,13.50832 
230 ,47.0769 ,1.36481 ,1.36303 ,13.37401 
231 ,47.3006 ,1.36691 ,1.34591 ,13.20612 
232 ,47.4930 ,1.36891 ,1.34934 ,13.23969 
233 ,47.7173 ,1.37114 ,1.33565 ,13.10538 
234 ,47.9096 ,1.37313 ,1.33223 ,13.07180 
235 ,48.1013 ,1.37507 ,1.30485 ,12.80318 
236 ,48.3094 ,1.37706 ,1.30485 ,12.80318 
237 ,48.5014 ,1.37905 ,1.26720 ,12.43381 
238 ,48.6935 ,1.38099 ,1.26720 ,12.43381 
239 ,48.9015 ,1.38306 ,1.26036 ,12.36666 
240 ,49.1099 ,1.38507 ,1.25694 ,12.33308 
241 ,49.3179 ,1.38717 ,1.21587 ,11.93014 
242 ,49.5100 ,1.38914 ,1.21929 ,11.96372 
243 ,49.7181 ,1.39124 ,1.19876 ,11.76225 
244 ,49.9102 ,1.39312 ,1.20218 ,11.79583 
245 ,50.1020 ,1.39500 ,1.16796 ,11.46004 
246 ,50.2939 ,1.39708 ,1.16796 ,11.46004 
247 ,50.5504 ,1.39944 ,1.15427 ,11.32573 
248 ,50.7424 ,1.40145 ,1.11663 ,10.95637 
249 ,50.9342 ,1.40336 ,1.12005 ,10.98995 
250 ,51.1426 ,1.40542 ,1.09952 ,10.78848 
251 ,51.3505 ,1.40756 ,1.10294 ,10.82206 
252 ,51.5588 ,1.40954 ,1.06187 ,10.41912 
253 ,51.7670 ,1.41160 ,1.07214 ,10.51985 
254 ,51.9588 ,1.41364 ,1.04134 ,10.21765 
255 ,52.1511 ,1.41559 ,1.05503 ,10.35196 
256 ,52.3432 ,1.41744 ,1.02081 ,10.01618 
257 ,52.5513 ,1.41950 ,1.01739 ,9.98260 
258 ,52.7593 ,1.42161 ,0.99343 ,9.74755 
259 ,52.9670 ,1.42361 ,1.00028 ,9.81471 
260 ,53.1590 ,1.42561 ,0.95921 ,9.41177 
261 ,53.3515 ,1.42760 ,0.97974 ,9.61324 
262 ,53.5916 ,1.42977 ,0.94210 ,9.24388 
263 ,53.8156 ,1.43214 ,0.92841 ,9.10956 
264 ,54.0236 ,1.43424 ,0.92157 ,9.04241 
265 ,54.2157 ,1.43617 ,0.90446 ,8.87451 
266 ,54.4398 ,1.43830 ,0.90103 ,8.84094 
267 ,54.6480 ,1.44050 ,0.88734 ,8.70662 
268 ,54.8559 ,1.44251 ,0.85654 ,8.40442 
269 ,55.0480 ,1.44445 ,0.86681 ,8.50515 
270 ,55.2403 ,1.44645 ,0.83259 ,8.16937 
271 ,55.4483 ,1.44845 ,0.84286 ,8.27011 
272 ,55.6564 ,1.45056 ,0.80863 ,7.93432 
273 ,55.8647 ,1.45266 ,0.80863 ,7.93432 
274 ,56.0404 ,1.45451 ,0.78810 ,7.73285 
275 ,56.2325 ,1.45632 ,0.79152 ,7.76643 
276 ,56.4243 ,1.45820 ,0.77784 ,7.63212 
277 ,56.6488 ,1.46037 ,0.75388 ,7.39707 
278 ,56.8568 ,1.46256 ,0.73335 ,7.19560 
279 ,57.0488 ,1.46448 ,0.74019 ,7.26276 
280 ,57.2410 ,1.46640 ,0.71624 ,7.02771 
281 ,57.4331 ,1.46833 ,0.70939 ,6.96055 
282 ,57.6411 ,1.47037 ,0.69913 ,6.85982 
283 ,57.8331 ,1.47232 ,0.68201 ,6.69193 
284 ,58.0251 ,1.47422 ,0.69228 ,6.79266 
285 ,58.2173 ,1.47613 ,0.65121 ,6.38972 
286 ,58.4093 ,1.47805 ,0.65121 ,6.38972 
287 ,58.6010 ,1.48000 ,0.62726 ,6.15467 
288 ,58.8255 ,1.48210 ,0.62384 ,6.12109 
289 ,59.0495 ,1.48446 ,0.59988 ,5.88605 
290 ,59.2579 ,1.48656 ,0.59304 ,5.81889 
291 ,59.4978 ,1.48885 ,0.58962 ,5.78531 
292 ,59.7057 ,1.49105 ,0.55882 ,5.48311 
293 ,59.9140 ,1.49313 ,0.54855 ,5.38237 
294 ,60.1218 ,1.49518 ,0.55882 ,5.48311 
295 ,60.3300 ,1.49723 ,0.52459 ,5.14732 
296 ,60.5379 ,1.49939 ,0.51433 ,5.04659 
297 ,60.7303 ,1.50130 ,0.51775 ,5.08017 
298 ,60.9382 ,1.50332 ,0.49380 ,4.84512 
299 ,61.1305 ,1.50529 ,0.49380 ,4.84512 
300 ,61.3385 ,1.50735 ,0.48011 ,4.71081 
301 ,61.5466 ,1.50944 ,0.46300 ,4.54291 
302 ,61.7545 ,1.51147 ,0.45273 ,4.44218 
303 ,61.9624 ,1.51358 ,0.43904 ,4.30787 
304 ,62.1546 ,1.51554 ,0.42193 ,4.13997 
305 ,62.3630 ,1.51759 ,0.43220 ,4.24071 
306 ,62.5549 ,1.51950 ,0.40824 ,4.00566 
307 ,62.7470 ,1.52150 ,0.39113 ,3.83777 
308 ,62.9391 ,1.52335 ,0.38086 ,3.73703 
309 ,63.1312 ,1.52535 ,0.37402 ,3.66988 
310 ,63.3232 ,1.52715 ,0.37744 ,3.70346 
311 ,63.5314 ,1.52930 ,0.34664 ,3.40125 
312 ,63.7395 ,1.53138 ,0.34322 ,3.36767 
313 ,63.9637 ,1.53355 ,0.34322 ,3.36767 
314 ,64.1391 ,1.53546 ,0.31242 ,3.06547 
315 ,64.3311 ,1.53734 ,0.29873 ,2.93116 
316 ,64.5392 ,1.53932 ,0.29873 ,2.93116 
317 ,64.7475 ,1.54142 ,0.28847 ,2.83042 
318 ,64.9720 ,1.54370 ,0.26793 ,2.62895 
319 ,65.1639 ,1.54562 ,0.26451 ,2.59537 
320 ,65.3401 ,1.54750 ,0.24398 ,2.39390 
321 ,65.5802 ,1.54964 ,0.25767 ,2.52822 
322 ,65.7721 ,1.55171 ,0.22002 ,2.15885 
323 ,65.9803 ,1.55371 ,0.22687 ,2.22601 
324 ,66.1884 ,1.55581 ,0.21660 ,2.12528 
325 ,66.3801 ,1.55776 ,0.20633 ,2.02454 
326 ,66.5885 ,1.55972 ,0.18922 ,1.85665 
327 ,66.7966 ,1.56192 ,0.16869 ,1.65518 
328 ,67.0045 ,1.56399 ,0.17896 ,1.75592 
329 ,67.2128 ,1.56606 ,0.15158 ,1.48729 
330 ,67.4045 ,1.56800 ,0.15158 ,1.48729 
331 ,67.6131 ,1.57006 ,0.12420 ,1.21866 
332 ,67.8212 ,1.57218 ,0.12762 ,1.25224 
333 ,68.0293 ,1.57422 ,0.11051 ,1.08435 
334 ,68.2213 ,1.57617 ,0.10025 ,0.98361 
335 ,68.4294 ,1.57821 ,0.08998 ,0.88288 
336 ,68.6214 ,1.58015 ,0.08656 ,0.84930 
337 ,68.8136 ,1.58210 ,0.05918 ,0.58067 
338 ,69.0376 ,1.58429 ,0.06260 ,0.61425 
339 ,69.2296 ,1.58621 ,0.04207 ,0.41278 
340 ,69.4379 ,1.58834 ,0.03180 ,0.31205 
341 ,69.6454 ,1.59032 ,0.01811 ,0.17773 
342 ,69.8538 ,1.59241 ,0.01811 ,0.17773 
343 ,70.0620 ,1.59454 ,0.01469 ,0.14416 
344 ,70.2538 ,1.59645 ,-0.01953 ,-0.19163 
345 ,70.4624 ,1.59857 ,-0.00926 ,-0.09089 
346 ,70.6703 ,1.60059 ,-0.03322 ,-0.32594 
347 ,70.8782 ,1.60273 ,-0.02637 ,-0.25878 
348 ,71.0862 ,1.60487 ,-0.04691 ,-0.46025 
349 ,71.2786 ,1.60675 ,-0.05717 ,-0.56099 
350 ,71.5185 ,1.60913 ,-0.07428 ,-0.72888 
351 ,71.7267 ,1.61117 ,-0.09140 ,-0.89677 
352 ,71.9346 ,1.61324 ,-0.09140 ,-0.89677 
353 ,72.1270 ,1.61518 ,-0.11535 ,-1.13182 
354 ,72.3510 ,1.61742 ,-0.11193 ,-1.09824 
355 ,72.5431 ,1.61937 ,-0.09824 ,-0.96393 
356 ,72.7348 ,1.62128 ,-0.12904 ,-1.26613 
357 ,72.9588 ,1.62348 ,-0.14273 ,-1.40045 
358 ,73.1514 ,1.62547 ,-0.15642 ,-1.53476 
359 ,73.3594 ,1.62752 ,-0.14957 ,-1.46760 
360 ,73.5513 ,1.62949 ,-0.17695 ,-1.73623 
361 ,73.7598 ,1.63152 ,-0.17011 ,-1.66907 
362 ,73.9677 ,1.63358 ,-0.20090 ,-1.97128 
363 ,74.1758 ,1.63564 ,-0.19406 ,-1.90412 
364 ,74.3997 ,1.63788 ,-0.20090 ,-1.97128 
365 ,74.6079 ,1.63990 ,-0.22828 ,-2.23990 
366 ,74.7837 ,1.64186 ,-0.22486 ,-2.20632 
367 ,74.9758 ,1.64366 ,-0.23855 ,-2.34064 
368 ,75.1840 ,1.64573 ,-0.24197 ,-2.37422 
369 ,75.3760 ,1.64766 ,-0.24881 ,-2.44137 
370 ,75.5683 ,1.64955 ,-0.28646 ,-2.81073 
371 ,75.7604 ,1.65153 ,-0.26593 ,-2.60926 
372 ,75.9843 ,1.65371 ,-0.29330 ,-2.87789 
373 ,76.1921 ,1.65581 ,-0.28988 ,-2.84431 
374 ,76.4006 ,1.65790 ,-0.31384 ,-3.07936 
375 ,76.6087 ,1.65997 ,-0.31726 ,-3.11294 
376 ,76.8166 ,1.66211 ,-0.31726 ,-3.11294 
377 ,77.0090 ,1.66400 ,-0.34806 ,-3.41514 
378 ,77.2008 ,1.66594 ,-0.34464 ,-3.38156 
379 ,77.4250 ,1.66809 ,-0.36859 ,-3.61661 
380 ,77.6333 ,1.67027 ,-0.37544 ,-3.68377 
381 ,77.8575 ,1.67244 ,-0.37201 ,-3.65019 
382 ,78.0649 ,1.67453 ,-0.39597 ,-3.88524 
383 ,78.2730 ,1.67657 ,-0.39255 ,-3.85166 
384 ,78.4651 ,1.67852 ,-0.41650 ,-4.08671 
385 ,78.6577 ,1.68053 ,-0.39597 ,-3.88524 
386 ,78.8656 ,1.68253 ,-0.43361 ,-4.25460 
387 ,79.0577 ,1.68448 ,-0.42335 ,-4.15387 
388 ,79.2498 ,1.68639 ,-0.44730 ,-4.38891 
389 ,79.4580 ,1.68846 ,-0.45072 ,-4.42249 
390 ,79.6818 ,1.69068 ,-0.46783 ,-4.59038 
391 ,79.9058 ,1.69289 ,-0.47810 ,-4.69112 
392 ,80.0979 ,1.69485 ,-0.47810 ,-4.69112 
393 ,80.2902 ,1.69683 ,-0.49179 ,-4.82543 
394 ,80.4981 ,1.69890 ,-0.49521 ,-4.85901 
395 ,80.6903 ,1.70091 ,-0.53285 ,-5.22837 
396 ,80.8822 ,1.70269 ,-0.52601 ,-5.16121 
397 ,81.0907 ,1.70479 ,-0.52601 ,-5.16121 
398 ,81.2984 ,1.70684 ,-0.54654 ,-5.36268 
399 ,81.5067 ,1.70893 ,-0.54997 ,-5.39626 
400 ,81.6984 ,1.71089 ,-0.54654 ,-5.36268 
401 ,81.9068 ,1.71298 ,-0.56365 ,-5.53058 
402 ,82.1146 ,1.71500 ,-0.57392 ,-5.63131 
403 ,82.3070 ,1.71694 ,-0.59445 ,-5.83278 
404 ,82.5150 ,1.71904 ,-0.59788 ,-5.86636 
405 ,82.7231 ,1.72108 ,-0.62183 ,-6.10141 
406 ,82.9153 ,1.72304 ,-0.60130 ,-5.89994 
407 ,83.1230 ,1.72508 ,-0.60814 ,-5.96709 
408 ,83.2991 ,1.72697 ,-0.62183 ,-6.10141 
409 ,83.5235 ,1.72914 ,-0.65947 ,-6.47077 
410 ,83.7315 ,1.73121 ,-0.65263 ,-6.40361 
411 ,83.9233 ,1.73315 ,-0.68001 ,-6.67224 
412 ,84.1317 ,1.73518 ,-0.65947 ,-6.47077 
413 ,84.3236 ,1.73712 ,-0.69027 ,-6.77297 
414 ,84.5317 ,1.73914 ,-0.67659 ,-6.63866 
415 ,84.7241 ,1.74114 ,-0.69370 ,-6.80655 
416 ,84.9318 ,1.74321 ,-0.68343 ,-6.70582 
417 ,85.1242 ,1.74513 ,-0.72792 ,-7.14233 
418 ,85.3322 ,1.74719 ,-0.71765 ,-7.04160 
419 ,85.5244 ,1.74910 ,-0.74503 ,-7.31023 
420 ,85.7324 ,1.75122 ,-0.73476 ,-7.20949 
421 ,85.9567 ,1.75343 ,-0.75530 ,-7.41096 
422 ,86.1482 ,1.75535 ,-0.75530 ,-7.41096 
423 ,86.3563 ,1.75745 ,-0.76214 ,-7.47812 
424 ,86.5488 ,1.75937 ,-0.77925 ,-7.64601 
425 ,86.7570 ,1.76147 ,-0.79636 ,-7.81390 
426 ,86.9490 ,1.76335 ,-0.78610 ,-7.71317 
427 ,87.1410 ,1.76532 ,-0.82032 ,-8.04895 
428 ,87.3489 ,1.76733 ,-0.79978 ,-7.84748 
429 ,87.5572 ,1.76944 ,-0.81005 ,-7.94821 
430 ,87.7493 ,1.77141 ,-0.81347 ,-7.98179 
431 ,87.9572 ,1.77338 ,-0.84769 ,-8.31758 
432 ,88.1334 ,1.77530 ,-0.83401 ,-8.18326 
433 ,88.3413 ,1.77717 ,-0.84085 ,-8.25042 
434 ,88.5657 ,1.77947 ,-0.86823 ,-8.51904 
435 ,88.7734 ,1.78159 ,-0.87165 ,-8.55262 
436 ,88.9659 ,1.78349 ,-0.88192 ,-8.65336 
437 ,89.1735 ,1.78559 ,-0.88192 ,-8.65336 
438 ,89.3655 ,1.78752 ,-0.90587 ,-8.88841 
439 ,89.5576 ,1.78943 ,-0.92298 ,-9.05630 
440 ,89.7662 ,1.79160 ,-0.92298 ,-9.05630 
441 ,89.9582 ,1.79345 ,-0.93325 ,-9.15703 
442 ,90.1661 ,1.79550 ,-0.92298 ,-9.05630 
443 ,90.3422 ,1.79743 ,-0.95378 ,-9.35850 
444 ,90.5341 ,1.79918 ,-0.95378 ,-9.35850 
445 ,90.7587 ,1.80142 ,-0.95720 ,-9.39208 
446 ,90.9665 ,1.80349 ,-0.96063 ,-9.42566 
447 ,91.1587 ,1.80543 ,-0.98116 ,-9.62713 
448 ,91.3669 ,1.80752 ,-0.97431 ,-9.55997 
449 ,91.5909 ,1.80977 ,-0.98800 ,-9.69429 
450 ,91.7827 ,1.81179 ,-1.01880 ,-9.99649 
451 ,91.9749 ,1.81359 ,-1.01538 ,-9.96291 
452 ,92.1671 ,1.81546 ,-1.01196 ,-9.92933 
453 ,92.3749 ,1.81757 ,-1.04618 ,-10.26512 
454 ,92.5673 ,1.81948 ,-1.02565 ,-10.06365 
455 ,92.7750 ,1.82160 ,-1.04960 ,-10.29869 
456 ,92.9833 ,1.82369 ,-1.04276 ,-10.23154 
457 ,93.1915 ,1.82573 ,-1.05987 ,-10.39943 
458 ,93.3834 ,1.82769 ,-1.06329 ,-10.43301 
459 ,93.5756 ,1.82960 ,-1.08040 ,-10.60090 
460 ,93.7678 ,1.83146 ,-1.08725 ,-10.66806 
461 ,93.9593 ,1.83346 ,-1.09409 ,-10.73521 
462 ,94.1518 ,1.83537 ,-1.08382 ,-10.63448 
