Data stamp = , 03-05-2022 11:37:18 952

Calibration Values: 
Slope = , 26.54 , g/V 
Offset Voltage at no contact = , -0.501760 , V 

No , Time , Stage Position ,   Mass , Force 
   ,  (s) ,      (mm)      ,   (g)  , (mN)  

1 ,0.0000 ,0.89946 ,5.27798 ,51.78758 
2 ,0.2264 ,0.89956 ,5.27114 ,51.72043 
3 ,0.6110 ,0.90077 ,5.29510 ,51.95548 
4 ,0.8669 ,0.90287 ,5.26430 ,51.65327 
5 ,1.0910 ,0.90501 ,5.27798 ,51.78758 
6 ,1.3153 ,0.90724 ,5.28483 ,51.85474 
7 ,1.5229 ,0.90938 ,5.26772 ,51.68685 
8 ,1.7472 ,0.91154 ,5.24376 ,51.45180 
9 ,1.9555 ,0.91377 ,5.23007 ,51.31749 
10 ,2.1637 ,0.91581 ,5.20954 ,51.11602 
11 ,2.3873 ,0.91804 ,5.16848 ,50.71308 
12 ,2.5794 ,0.91995 ,5.17190 ,50.74666 
13 ,2.7879 ,0.92208 ,5.12741 ,50.31014 
14 ,2.9960 ,0.92413 ,5.11030 ,50.14225 
15 ,3.2041 ,0.92625 ,5.11372 ,50.17583 
16 ,3.3958 ,0.92823 ,5.06923 ,49.73931 
17 ,3.5882 ,0.93007 ,5.05897 ,49.63857 
18 ,3.7962 ,0.93217 ,5.02817 ,49.33637 
19 ,4.0044 ,0.93413 ,5.01106 ,49.16848 
20 ,4.1962 ,0.93613 ,4.98368 ,48.89985 
21 ,4.4044 ,0.93820 ,4.97341 ,48.79911 
22 ,4.6122 ,0.94027 ,4.93577 ,48.42975 
23 ,4.8043 ,0.94228 ,4.93919 ,48.46333 
24 ,5.0127 ,0.94432 ,4.90839 ,48.16113 
25 ,5.2208 ,0.94639 ,4.89470 ,48.02681 
26 ,5.4124 ,0.94830 ,4.85706 ,47.65745 
27 ,5.6050 ,0.95022 ,4.85364 ,47.62387 
28 ,5.7970 ,0.95221 ,4.82284 ,47.32167 
29 ,5.9890 ,0.95413 ,4.80230 ,47.12020 
30 ,6.1812 ,0.95603 ,4.79888 ,47.08662 
31 ,6.3899 ,0.95804 ,4.75782 ,46.68368 
32 ,6.5975 ,0.96018 ,4.73728 ,46.48221 
33 ,6.8057 ,0.96223 ,4.72359 ,46.34790 
34 ,6.9971 ,0.96416 ,4.69622 ,46.07927 
35 ,7.2056 ,0.96623 ,4.67911 ,45.91138 
36 ,7.3975 ,0.96828 ,4.64488 ,45.57560 
37 ,7.5899 ,0.97008 ,4.63119 ,45.44128 
38 ,7.7817 ,0.97197 ,4.62777 ,45.40771 
39 ,8.0059 ,0.97426 ,4.60724 ,45.20624 
40 ,8.1981 ,0.97627 ,4.55933 ,44.73614 
41 ,8.3907 ,0.97808 ,4.55249 ,44.66898 
42 ,8.5822 ,0.98000 ,4.53195 ,44.46751 
43 ,8.7902 ,0.98209 ,4.50457 ,44.19889 
44 ,8.9824 ,0.98401 ,4.49431 ,44.09815 
45 ,9.1743 ,0.98593 ,4.46351 ,43.79595 
46 ,9.3831 ,0.98802 ,4.47035 ,43.86310 
47 ,9.5908 ,0.99009 ,4.43271 ,43.49374 
48 ,9.8148 ,0.99230 ,4.41560 ,43.32585 
49 ,10.0066 ,0.99424 ,4.40533 ,43.22512 
50 ,10.2149 ,0.99633 ,4.37795 ,42.95649 
51 ,10.4229 ,0.99837 ,4.36084 ,42.78860 
52 ,10.6151 ,1.00029 ,4.33004 ,42.48639 
53 ,10.8231 ,1.00233 ,4.32320 ,42.41924 
54 ,11.0153 ,1.00430 ,4.28556 ,42.04988 
55 ,11.2233 ,1.00633 ,4.28556 ,42.04988 
56 ,11.4150 ,1.00831 ,4.25133 ,41.71409 
57 ,11.6234 ,1.01039 ,4.23422 ,41.54620 
58 ,11.8314 ,1.01245 ,4.21369 ,41.34473 
59 ,12.0237 ,1.01440 ,4.20685 ,41.27758 
60 ,12.2157 ,1.01632 ,4.16578 ,40.87464 
61 ,12.4078 ,1.01828 ,4.16578 ,40.87464 
62 ,12.5997 ,1.02016 ,4.14867 ,40.70674 
63 ,12.7920 ,1.02213 ,4.12129 ,40.43812 
64 ,12.9839 ,1.02404 ,4.12471 ,40.47170 
65 ,13.1761 ,1.02592 ,4.08365 ,40.06876 
66 ,13.3680 ,1.02788 ,4.06654 ,39.90087 
67 ,13.5763 ,1.02991 ,4.05285 ,39.76655 
68 ,13.8482 ,1.03228 ,4.03574 ,39.59866 
69 ,14.0565 ,1.03463 ,4.02205 ,39.46435 
70 ,14.2483 ,1.03667 ,3.99467 ,39.19572 
71 ,14.4566 ,1.03867 ,3.95703 ,38.82636 
72 ,14.6647 ,1.04080 ,3.95018 ,38.75920 
73 ,14.8567 ,1.04278 ,3.93650 ,38.62489 
74 ,15.0649 ,1.04478 ,3.90570 ,38.32268 
75 ,15.2891 ,1.04699 ,3.88858 ,38.15479 
76 ,15.4808 ,1.04899 ,3.88858 ,38.15479 
77 ,15.6889 ,1.05101 ,3.85436 ,37.81901 
78 ,15.8808 ,1.05292 ,3.85779 ,37.85259 
79 ,16.0733 ,1.05488 ,3.81330 ,37.41607 
80 ,16.2814 ,1.05700 ,3.81330 ,37.41607 
81 ,16.4735 ,1.05886 ,3.78592 ,37.14744 
82 ,16.6811 ,1.06095 ,3.78250 ,37.11387 
83 ,16.8736 ,1.06285 ,3.73459 ,36.64377 
84 ,17.1457 ,1.06546 ,3.72432 ,36.54303 
85 ,17.3698 ,1.06782 ,3.70037 ,36.30799 
86 ,17.5618 ,1.06979 ,3.70721 ,36.37514 
87 ,17.7697 ,1.07180 ,3.66272 ,35.93863 
88 ,17.9620 ,1.07377 ,3.66272 ,35.93863 
89 ,18.1701 ,1.07579 ,3.62508 ,35.56926 
90 ,18.3622 ,1.07778 ,3.62166 ,35.53569 
91 ,18.5704 ,1.07980 ,3.59086 ,35.23348 
92 ,18.7784 ,1.08194 ,3.58743 ,35.19990 
93 ,18.9864 ,1.08401 ,3.58059 ,35.13275 
94 ,19.1780 ,1.08592 ,3.55321 ,34.86412 
95 ,19.3706 ,1.08789 ,3.53610 ,34.69623 
96 ,19.5787 ,1.08993 ,3.50530 ,34.39402 
97 ,19.7868 ,1.09197 ,3.50530 ,34.39402 
98 ,19.9788 ,1.09392 ,3.47450 ,34.09182 
99 ,20.1868 ,1.09597 ,3.47108 ,34.05824 
100 ,20.3954 ,1.09806 ,3.45397 ,33.89035 
101 ,20.6031 ,1.10015 ,3.43344 ,33.68888 
102 ,20.7951 ,1.10204 ,3.40264 ,33.38667 
103 ,21.0030 ,1.10410 ,3.40264 ,33.38667 
104 ,21.2111 ,1.10618 ,3.37184 ,33.08447 
105 ,21.4029 ,1.10817 ,3.37184 ,33.08447 
106 ,21.5954 ,1.11010 ,3.33077 ,32.68153 
107 ,21.7877 ,1.11201 ,3.33077 ,32.68153 
108 ,21.9958 ,1.11405 ,3.31024 ,32.48006 
109 ,22.1876 ,1.11604 ,3.31024 ,32.48006 
110 ,22.3798 ,1.11790 ,3.27944 ,32.17786 
111 ,22.5878 ,1.11997 ,3.25548 ,31.94281 
112 ,22.7799 ,1.12204 ,3.22811 ,31.67418 
113 ,23.0040 ,1.12417 ,3.21784 ,31.57345 
114 ,23.2121 ,1.12628 ,3.19731 ,31.37198 
115 ,23.4041 ,1.12815 ,3.20415 ,31.43913 
116 ,23.5958 ,1.13007 ,3.16651 ,31.06977 
117 ,23.8044 ,1.13207 ,3.16309 ,31.03619 
118 ,23.9798 ,1.13407 ,3.13913 ,30.80115 
119 ,24.1880 ,1.13600 ,3.13913 ,30.80115 
120 ,24.3640 ,1.13791 ,3.10149 ,30.43178 
121 ,24.5887 ,1.13988 ,3.09806 ,30.39821 
122 ,24.8287 ,1.14239 ,3.07753 ,30.19674 
123 ,25.0365 ,1.14450 ,3.04673 ,29.89453 
124 ,25.2287 ,1.14638 ,3.05358 ,29.96169 
125 ,25.4208 ,1.14829 ,3.01593 ,29.59233 
126 ,25.6129 ,1.15020 ,2.99540 ,29.39086 
127 ,25.8046 ,1.15214 ,3.00567 ,29.49159 
128 ,26.0612 ,1.15460 ,2.98513 ,29.29012 
129 ,26.2693 ,1.15683 ,2.94749 ,28.92076 
130 ,26.4614 ,1.15871 ,2.94407 ,28.88718 
131 ,26.6696 ,1.16077 ,2.92353 ,28.68571 
132 ,26.8613 ,1.16272 ,2.90300 ,28.48424 
133 ,27.0694 ,1.16482 ,2.88589 ,28.31635 
134 ,27.2777 ,1.16686 ,2.86536 ,28.11488 
135 ,27.4697 ,1.16878 ,2.85509 ,28.01415 
136 ,27.6617 ,1.17069 ,2.84482 ,27.91341 
137 ,27.8701 ,1.17281 ,2.83456 ,27.81268 
138 ,28.0779 ,1.17486 ,2.79007 ,27.37616 
139 ,28.2698 ,1.17677 ,2.79007 ,27.37616 
140 ,28.4623 ,1.17873 ,2.76611 ,27.14111 
141 ,28.6702 ,1.18078 ,2.75585 ,27.04038 
142 ,28.8463 ,1.18269 ,2.74900 ,26.97322 
143 ,29.0385 ,1.18450 ,2.72847 ,26.77175 
144 ,29.2303 ,1.18639 ,2.69767 ,26.46954 
145 ,29.4386 ,1.18842 ,2.68398 ,26.33523 
146 ,29.6305 ,1.19037 ,2.67714 ,26.26807 
147 ,29.8388 ,1.19250 ,2.65318 ,26.03303 
148 ,30.0308 ,1.19439 ,2.64634 ,25.96587 
149 ,30.2065 ,1.19630 ,2.63265 ,25.83156 
150 ,30.3990 ,1.19814 ,2.61896 ,25.69724 
151 ,30.6071 ,1.20018 ,2.61896 ,25.69724 
152 ,30.7991 ,1.20210 ,2.57447 ,25.26073 
153 ,30.9911 ,1.20398 ,2.57789 ,25.29430 
154 ,31.1832 ,1.20594 ,2.57105 ,25.22715 
155 ,31.3752 ,1.20782 ,2.52656 ,24.79063 
156 ,31.5674 ,1.20974 ,2.53341 ,24.85779 
157 ,31.7756 ,1.21184 ,2.50261 ,24.55558 
158 ,31.9995 ,1.21411 ,2.48550 ,24.38769 
159 ,32.2077 ,1.21617 ,2.49576 ,24.48842 
160 ,32.3994 ,1.21806 ,2.46154 ,24.15264 
161 ,32.6240 ,1.22019 ,2.44443 ,23.98475 
162 ,32.8319 ,1.22239 ,2.42390 ,23.78328 
163 ,33.0241 ,1.22433 ,2.42048 ,23.74970 
164 ,33.2162 ,1.22623 ,2.39310 ,23.48108 
165 ,33.4243 ,1.22827 ,2.38968 ,23.44750 
166 ,33.6323 ,1.23040 ,2.35203 ,23.07814 
167 ,33.8403 ,1.23247 ,2.34861 ,23.04456 
168 ,34.0325 ,1.23436 ,2.32808 ,22.84309 
169 ,34.2567 ,1.23644 ,2.31781 ,22.74235 
170 ,34.4487 ,1.23860 ,2.31097 ,22.67520 
171 ,34.6404 ,1.24053 ,2.28359 ,22.40657 
172 ,34.8487 ,1.24255 ,2.27674 ,22.33941 
173 ,35.0409 ,1.24446 ,2.25963 ,22.17152 
174 ,35.2329 ,1.24641 ,2.23226 ,21.90290 
175 ,35.4407 ,1.24848 ,2.20488 ,21.63427 
176 ,35.6332 ,1.25042 ,2.20488 ,21.63427 
177 ,35.8730 ,1.25271 ,2.18435 ,21.43280 
178 ,36.0814 ,1.25488 ,2.17408 ,21.33206 
179 ,36.2895 ,1.25695 ,2.16723 ,21.26491 
180 ,36.4973 ,1.25910 ,2.12959 ,20.89555 
181 ,36.6896 ,1.26098 ,2.12959 ,20.89555 
182 ,36.8817 ,1.26293 ,2.10906 ,20.69408 
183 ,37.0737 ,1.26478 ,2.10906 ,20.69408 
184 ,37.2656 ,1.26673 ,2.08852 ,20.49261 
185 ,37.4580 ,1.26866 ,2.05773 ,20.19040 
186 ,37.6500 ,1.27060 ,2.05088 ,20.12325 
187 ,37.8443 ,1.27252 ,2.04061 ,20.02251 
188 ,38.0983 ,1.27491 ,2.02693 ,19.88820 
189 ,38.3063 ,1.27713 ,2.00982 ,19.72031 
190 ,38.4980 ,1.27906 ,1.99270 ,19.55241 
191 ,38.6904 ,1.28097 ,1.99613 ,19.58599 
192 ,38.8826 ,1.28291 ,1.96190 ,19.25021 
193 ,39.0905 ,1.28497 ,1.94822 ,19.11590 
194 ,39.2827 ,1.28695 ,1.93453 ,18.98158 
195 ,39.4747 ,1.28881 ,1.93453 ,18.98158 
196 ,39.6667 ,1.29078 ,1.92426 ,18.88085 
197 ,39.8589 ,1.29262 ,1.89004 ,18.54507 
198 ,40.0666 ,1.29473 ,1.88319 ,18.47791 
199 ,40.2750 ,1.29680 ,1.85582 ,18.20928 
200 ,40.4829 ,1.29892 ,1.84555 ,18.10855 
201 ,40.7069 ,1.30104 ,1.83528 ,18.00781 
202 ,40.8989 ,1.30304 ,1.81133 ,17.77276 
203 ,41.0911 ,1.30504 ,1.81817 ,17.83992 
204 ,41.2829 ,1.30686 ,1.78053 ,17.47056 
205 ,41.4752 ,1.30881 ,1.77369 ,17.40340 
206 ,41.6675 ,1.31074 ,1.76342 ,17.30267 
207 ,41.8753 ,1.31288 ,1.73604 ,17.03404 
208 ,42.0678 ,1.31473 ,1.75315 ,17.20193 
209 ,42.2755 ,1.31681 ,1.71209 ,16.79899 
210 ,42.4838 ,1.31888 ,1.71893 ,16.86615 
211 ,42.6919 ,1.32094 ,1.69155 ,16.59752 
212 ,42.8838 ,1.32285 ,1.67102 ,16.39605 
213 ,43.0761 ,1.32485 ,1.66075 ,16.29532 
214 ,43.2682 ,1.32678 ,1.66760 ,16.36248 
215 ,43.4762 ,1.32874 ,1.62653 ,15.95954 
216 ,43.7003 ,1.33088 ,1.62995 ,15.99311 
217 ,43.9084 ,1.33317 ,1.60600 ,15.75807 
218 ,44.1004 ,1.33506 ,1.58204 ,15.52302 
219 ,44.3086 ,1.33707 ,1.57178 ,15.42228 
220 ,44.5163 ,1.33919 ,1.54782 ,15.18724 
221 ,44.7085 ,1.34113 ,1.55467 ,15.25439 
222 ,44.9165 ,1.34320 ,1.52387 ,14.95219 
223 ,45.1087 ,1.34515 ,1.52045 ,14.91861 
224 ,45.3170 ,1.34719 ,1.49307 ,14.64998 
225 ,45.5249 ,1.34925 ,1.48622 ,14.58283 
226 ,45.7173 ,1.35127 ,1.46569 ,14.38136 
227 ,45.9253 ,1.35325 ,1.46227 ,14.34778 
228 ,46.1333 ,1.35538 ,1.43147 ,14.04557 
229 ,46.3414 ,1.35738 ,1.42805 ,14.01199 
230 ,46.5495 ,1.35955 ,1.42805 ,14.01199 
231 ,46.7574 ,1.36156 ,1.39725 ,13.70979 
232 ,46.9496 ,1.36354 ,1.39725 ,13.70979 
233 ,47.1413 ,1.36542 ,1.37671 ,13.50832 
234 ,47.3338 ,1.36733 ,1.36645 ,13.40759 
235 ,47.5419 ,1.36950 ,1.34591 ,13.20612 
236 ,47.7339 ,1.37136 ,1.33565 ,13.10538 
237 ,47.9576 ,1.37362 ,1.32196 ,12.97107 
238 ,48.1661 ,1.37566 ,1.32196 ,12.97107 
239 ,48.3740 ,1.37774 ,1.28774 ,12.63528 
240 ,48.5978 ,1.37996 ,1.26378 ,12.40024 
241 ,48.8063 ,1.38203 ,1.27063 ,12.46739 
242 ,48.9983 ,1.38405 ,1.23983 ,12.16519 
243 ,49.1907 ,1.38592 ,1.25352 ,12.29950 
244 ,49.3987 ,1.38796 ,1.21245 ,11.89656 
245 ,49.6067 ,1.39010 ,1.22272 ,11.99730 
246 ,49.8148 ,1.39214 ,1.19876 ,11.76225 
247 ,50.0383 ,1.39440 ,1.16112 ,11.39289 
248 ,50.2469 ,1.39638 ,1.17138 ,11.49362 
249 ,50.4550 ,1.39857 ,1.16454 ,11.42647 
250 ,50.6628 ,1.40062 ,1.13374 ,11.12426 
251 ,50.8711 ,1.40266 ,1.13032 ,11.09068 
252 ,51.0788 ,1.40479 ,1.10294 ,10.82206 
253 ,51.2872 ,1.40692 ,1.10636 ,10.85563 
254 ,51.4955 ,1.40898 ,1.06872 ,10.48627 
255 ,51.7035 ,1.41102 ,1.07214 ,10.51985 
256 ,51.8956 ,1.41297 ,1.05503 ,10.35196 
257 ,52.0876 ,1.41500 ,1.04134 ,10.21765 
258 ,52.2793 ,1.41685 ,1.02765 ,10.08333 
259 ,52.4719 ,1.41874 ,1.02765 ,10.08333 
260 ,52.6799 ,1.42081 ,1.00028 ,9.81471 
261 ,52.9040 ,1.42298 ,0.98659 ,9.68039 
262 ,53.0961 ,1.42495 ,0.97290 ,9.54608 
263 ,53.2881 ,1.42690 ,0.98659 ,9.68039 
264 ,53.4963 ,1.42889 ,0.94210 ,9.24388 
265 ,53.7043 ,1.43107 ,0.93525 ,9.17672 
266 ,53.9284 ,1.43324 ,0.93525 ,9.17672 
267 ,54.1365 ,1.43536 ,0.89077 ,8.74020 
268 ,54.3283 ,1.43733 ,0.90788 ,8.90809 
269 ,54.5364 ,1.43935 ,0.87366 ,8.57231 
270 ,54.7287 ,1.44130 ,0.88392 ,8.67305 
271 ,54.9368 ,1.44340 ,0.85312 ,8.37084 
272 ,55.1447 ,1.44541 ,0.84628 ,8.30368 
273 ,55.3529 ,1.44748 ,0.85312 ,8.37084 
274 ,55.5607 ,1.44957 ,0.82575 ,8.10221 
275 ,55.7848 ,1.45175 ,0.81548 ,8.00148 
276 ,55.9773 ,1.45380 ,0.79152 ,7.76643 
277 ,56.1853 ,1.45587 ,0.78126 ,7.66570 
278 ,56.3933 ,1.45789 ,0.78126 ,7.66570 
279 ,56.5694 ,1.45982 ,0.76415 ,7.49780 
280 ,56.7773 ,1.46175 ,0.73677 ,7.22918 
281 ,56.9858 ,1.46387 ,0.73677 ,7.22918 
282 ,57.1778 ,1.46578 ,0.71281 ,6.99413 
283 ,57.3859 ,1.46785 ,0.71624 ,7.02771 
284 ,57.5779 ,1.46981 ,0.69570 ,6.82624 
285 ,57.7856 ,1.47184 ,0.70255 ,6.89340 
286 ,57.9778 ,1.47379 ,0.66833 ,6.55761 
287 ,58.1860 ,1.47585 ,0.67175 ,6.59119 
288 ,58.3783 ,1.47777 ,0.64095 ,6.28899 
289 ,58.6022 ,1.47994 ,0.63410 ,6.22183 
290 ,58.7944 ,1.48190 ,0.63753 ,6.25541 
291 ,59.0345 ,1.48442 ,0.61699 ,6.05394 
292 ,59.2424 ,1.48640 ,0.59304 ,5.81889 
293 ,59.4347 ,1.48838 ,0.59304 ,5.81889 
294 ,59.6427 ,1.49042 ,0.57593 ,5.65100 
295 ,59.8507 ,1.49249 ,0.57593 ,5.65100 
296 ,60.0428 ,1.49440 ,0.53828 ,5.28164 
297 ,60.2509 ,1.49647 ,0.54513 ,5.34879 
298 ,60.4430 ,1.49841 ,0.52117 ,5.11375 
299 ,60.6509 ,1.50052 ,0.51433 ,5.04659 
300 ,60.8753 ,1.50270 ,0.50406 ,4.94585 
301 ,61.0829 ,1.50485 ,0.47668 ,4.67723 
302 ,61.2753 ,1.50672 ,0.48011 ,4.71081 
303 ,61.4836 ,1.50879 ,0.46642 ,4.57649 
304 ,61.6916 ,1.51086 ,0.46642 ,4.57649 
305 ,61.9316 ,1.51310 ,0.43562 ,4.27429 
306 ,62.1233 ,1.51519 ,0.44246 ,4.34144 
307 ,62.3318 ,1.51726 ,0.43220 ,4.24071 
308 ,62.5558 ,1.51944 ,0.40140 ,3.93850 
309 ,62.7480 ,1.52146 ,0.40482 ,3.97208 
310 ,62.9401 ,1.52338 ,0.36033 ,3.53557 
311 ,63.1320 ,1.52530 ,0.37402 ,3.66988 
312 ,63.3402 ,1.52736 ,0.35006 ,3.43483 
313 ,63.5323 ,1.52925 ,0.35006 ,3.43483 
314 ,63.7402 ,1.53129 ,0.33980 ,3.33410 
315 ,63.9323 ,1.53326 ,0.33295 ,3.26694 
316 ,64.1246 ,1.53519 ,0.30900 ,3.03189 
317 ,64.3321 ,1.53727 ,0.31242 ,3.06547 
318 ,64.5406 ,1.53932 ,0.28504 ,2.79684 
319 ,64.7647 ,1.54155 ,0.28847 ,2.83042 
320 ,64.9729 ,1.54371 ,0.26109 ,2.56179 
321 ,65.1648 ,1.54561 ,0.26793 ,2.62895 
322 ,65.3571 ,1.54755 ,0.24055 ,2.36032 
323 ,65.5491 ,1.54945 ,0.22687 ,2.22601 
324 ,65.7572 ,1.55151 ,0.21318 ,2.09170 
325 ,65.9648 ,1.55357 ,0.22002 ,2.15885 
326 ,66.1574 ,1.55553 ,0.20291 ,1.99096 
327 ,66.3653 ,1.55756 ,0.20291 ,1.99096 
328 ,66.5731 ,1.55966 ,0.16185 ,1.58802 
329 ,66.7496 ,1.56158 ,0.17896 ,1.75592 
330 ,66.9414 ,1.56333 ,0.14816 ,1.45371 
331 ,67.1337 ,1.56530 ,0.15500 ,1.52087 
332 ,67.3258 ,1.56727 ,0.13105 ,1.28582 
333 ,67.5018 ,1.56910 ,0.12762 ,1.25224 
334 ,67.6939 ,1.57090 ,0.11393 ,1.11793 
335 ,67.8855 ,1.57282 ,0.12762 ,1.25224 
336 ,68.1101 ,1.57505 ,0.09682 ,0.95004 
337 ,68.3183 ,1.57706 ,0.06602 ,0.64783 
338 ,68.5104 ,1.57904 ,0.08314 ,0.81572 
339 ,68.7180 ,1.58117 ,0.06260 ,0.61425 
340 ,68.9265 ,1.58318 ,0.07287 ,0.71499 
341 ,69.1345 ,1.58524 ,0.05234 ,0.51352 
342 ,69.3266 ,1.58719 ,0.04207 ,0.41278 
343 ,69.5188 ,1.58911 ,0.01127 ,0.11058 
344 ,69.7427 ,1.59127 ,0.01469 ,0.14416 
345 ,69.9829 ,1.59362 ,0.01469 ,0.14416 
346 ,70.1908 ,1.59581 ,-0.01269 ,-0.12447 
347 ,70.3991 ,1.59787 ,-0.02295 ,-0.22520 
348 ,70.5906 ,1.59986 ,-0.01953 ,-0.19163 
349 ,70.7832 ,1.60174 ,-0.04006 ,-0.39310 
350 ,70.9751 ,1.60372 ,-0.05033 ,-0.49383 
351 ,71.1673 ,1.60561 ,-0.04691 ,-0.46025 
352 ,71.3592 ,1.60752 ,-0.08797 ,-0.86319 
353 ,71.5675 ,1.60958 ,-0.06402 ,-0.62814 
354 ,71.7593 ,1.61153 ,-0.08113 ,-0.79604 
355 ,71.9512 ,1.61344 ,-0.08455 ,-0.82961 
356 ,72.1597 ,1.61548 ,-0.09824 ,-0.96393 
357 ,72.3678 ,1.61761 ,-0.10508 ,-1.03108 
358 ,72.5919 ,1.61988 ,-0.11877 ,-1.16540 
359 ,72.8000 ,1.62191 ,-0.13931 ,-1.36687 
360 ,73.0081 ,1.62401 ,-0.12904 ,-1.26613 
361 ,73.2162 ,1.62609 ,-0.15642 ,-1.53476 
362 ,73.4243 ,1.62813 ,-0.17695 ,-1.73623 
363 ,73.6323 ,1.63023 ,-0.20090 ,-1.97128 
364 ,73.8404 ,1.63230 ,-0.20090 ,-1.97128 
365 ,74.0643 ,1.63455 ,-0.18379 ,-1.80338 
366 ,74.2561 ,1.63649 ,-0.23855 ,-2.34064 
367 ,74.4483 ,1.63841 ,-0.20433 ,-2.00485 
368 ,74.6565 ,1.64046 ,-0.24539 ,-2.40779 
369 ,74.8649 ,1.64252 ,-0.23855 ,-2.34064 
370 ,75.0570 ,1.64449 ,-0.25566 ,-2.50853 
371 ,75.2651 ,1.64654 ,-0.25566 ,-2.50853 
372 ,75.4731 ,1.64864 ,-0.26593 ,-2.60926 
373 ,75.6812 ,1.65065 ,-0.27961 ,-2.74358 
374 ,75.8732 ,1.65266 ,-0.28646 ,-2.81073 
375 ,76.0812 ,1.65472 ,-0.30699 ,-3.01220 
376 ,76.2734 ,1.65661 ,-0.30015 ,-2.94505 
377 ,76.4650 ,1.65857 ,-0.31726 ,-3.11294 
378 ,76.6577 ,1.66051 ,-0.32410 ,-3.18010 
379 ,76.8815 ,1.66268 ,-0.32752 ,-3.21367 
380 ,77.1057 ,1.66498 ,-0.34121 ,-3.34799 
381 ,77.3139 ,1.66705 ,-0.34806 ,-3.41514 
382 ,77.5216 ,1.66906 ,-0.36517 ,-3.58303 
383 ,77.7298 ,1.67122 ,-0.36517 ,-3.58303 
384 ,77.9219 ,1.67311 ,-0.39939 ,-3.91882 
385 ,78.1303 ,1.67521 ,-0.39255 ,-3.85166 
386 ,78.3384 ,1.67727 ,-0.40623 ,-3.98597 
387 ,78.5623 ,1.67947 ,-0.41992 ,-4.12029 
388 ,78.7544 ,1.68148 ,-0.42677 ,-4.18744 
389 ,78.9626 ,1.68351 ,-0.45072 ,-4.42249 
390 ,79.1547 ,1.68543 ,-0.45414 ,-4.45607 
391 ,79.3624 ,1.68751 ,-0.46099 ,-4.52323 
392 ,79.5548 ,1.68945 ,-0.47810 ,-4.69112 
393 ,79.7626 ,1.69155 ,-0.48152 ,-4.72470 
394 ,79.9388 ,1.69337 ,-0.47810 ,-4.69112 
395 ,80.1307 ,1.69524 ,-0.48837 ,-4.79185 
396 ,80.3391 ,1.69725 ,-0.51232 ,-5.02690 
397 ,80.5472 ,1.69935 ,-0.50548 ,-4.95975 
398 ,80.7393 ,1.70130 ,-0.52601 ,-5.16121 
399 ,80.9632 ,1.70352 ,-0.53628 ,-5.26195 
400 ,81.1551 ,1.70544 ,-0.53285 ,-5.22837 
401 ,81.3475 ,1.70740 ,-0.55681 ,-5.46342 
402 ,81.5555 ,1.70944 ,-0.57392 ,-5.63131 
403 ,81.7475 ,1.71137 ,-0.56708 ,-5.56415 
404 ,81.9717 ,1.71360 ,-0.58419 ,-5.73205 
405 ,82.1635 ,1.71550 ,-0.61156 ,-6.00067 
406 ,82.3559 ,1.71744 ,-0.59788 ,-5.86636 
407 ,82.5638 ,1.71955 ,-0.61156 ,-6.00067 
408 ,82.7721 ,1.72165 ,-0.60814 ,-5.96709 
409 ,82.9796 ,1.72369 ,-0.63552 ,-6.23572 
410 ,83.1722 ,1.72562 ,-0.62525 ,-6.13499 
411 ,83.3803 ,1.72768 ,-0.65263 ,-6.40361 
412 ,83.5885 ,1.72977 ,-0.65605 ,-6.43719 
413 ,83.7966 ,1.73184 ,-0.66974 ,-6.57150 
414 ,84.0045 ,1.73398 ,-0.70054 ,-6.87371 
415 ,84.2126 ,1.73602 ,-0.68685 ,-6.73940 
416 ,84.4361 ,1.73821 ,-0.70396 ,-6.90729 
417 ,84.6282 ,1.74029 ,-0.71423 ,-7.00802 
418 ,84.8363 ,1.74223 ,-0.71423 ,-7.00802 
419 ,85.0448 ,1.74430 ,-0.72792 ,-7.14233 
420 ,85.3008 ,1.74691 ,-0.74161 ,-7.27665 
421 ,85.4927 ,1.74891 ,-0.73476 ,-7.20949 
422 ,85.7009 ,1.75089 ,-0.76556 ,-7.51170 
423 ,85.9089 ,1.75294 ,-0.75187 ,-7.37738 
424 ,86.1494 ,1.75533 ,-0.77583 ,-7.61243 
425 ,86.3572 ,1.75748 ,-0.78267 ,-7.67959 
426 ,86.5496 ,1.75937 ,-0.79636 ,-7.81390 
427 ,86.7415 ,1.76135 ,-0.79978 ,-7.84748 
428 ,86.9336 ,1.76322 ,-0.79978 ,-7.84748 
429 ,87.1258 ,1.76514 ,-0.81689 ,-8.01537 
430 ,87.3179 ,1.76710 ,-0.82374 ,-8.08253 
431 ,87.5259 ,1.76912 ,-0.83401 ,-8.18326 
432 ,87.7340 ,1.77119 ,-0.82716 ,-8.11611 
433 ,87.9260 ,1.77313 ,-0.85796 ,-8.41831 
434 ,88.1183 ,1.77508 ,-0.85796 ,-8.41831 
435 ,88.3260 ,1.77708 ,-0.87849 ,-8.61978 
436 ,88.5339 ,1.77919 ,-0.86823 ,-8.51904 
437 ,88.7261 ,1.78113 ,-0.89903 ,-8.82125 
438 ,88.9181 ,1.78301 ,-0.89560 ,-8.78767 
439 ,89.1106 ,1.78495 ,-0.90929 ,-8.92198 
440 ,89.3347 ,1.78708 ,-0.91614 ,-8.98914 
441 ,89.5428 ,1.78927 ,-0.91956 ,-9.02272 
442 ,89.7669 ,1.79137 ,-0.92640 ,-9.08988 
443 ,90.0069 ,1.79383 ,-0.93325 ,-9.15703 
444 ,90.2310 ,1.79618 ,-0.95036 ,-9.32492 
445 ,90.4392 ,1.79826 ,-0.96405 ,-9.45924 
446 ,90.6470 ,1.80034 ,-0.98116 ,-9.62713 
447 ,90.8553 ,1.80240 ,-0.97431 ,-9.55997 
448 ,91.0633 ,1.80444 ,-1.00854 ,-9.89576 
449 ,91.2555 ,1.80644 ,-0.98116 ,-9.62713 
450 ,91.4636 ,1.80845 ,-1.00511 ,-9.86218 
451 ,91.6717 ,1.81055 ,-1.01880 ,-9.99649 
452 ,91.8636 ,1.81250 ,-1.03591 ,-10.16438 
453 ,92.0717 ,1.81454 ,-1.00854 ,-9.89576 
454 ,92.2639 ,1.81648 ,-1.04960 ,-10.29869 
455 ,92.4720 ,1.81861 ,-1.04276 ,-10.23154 
456 ,92.6801 ,1.82063 ,-1.05987 ,-10.39943 
457 ,92.8879 ,1.82270 ,-1.06671 ,-10.46659 
458 ,93.0963 ,1.82483 ,-1.05987 ,-10.39943 
459 ,93.2884 ,1.82686 ,-1.08725 ,-10.66806 
460 ,93.4801 ,1.82864 ,-1.09751 ,-10.76879 
461 ,93.6725 ,1.83056 ,-1.09751 ,-10.76879 
462 ,93.8804 ,1.83263 ,-1.11120 ,-10.90310 
