Data stamp = , 03-05-2022 03:21:00 197

Calibration Values: 
Slope = , 26.54 , g/V 
Offset Voltage at no contact = , -0.501760 , V 

No , Time , Stage Position ,   Mass , Force 
   ,  (s) ,      (mm)      ,   (g)  , (mN)  

1 ,0.0000 ,0.89943 ,5.31563 ,52.15694 
2 ,0.2201 ,0.89952 ,5.33274 ,52.32484 
3 ,0.9730 ,0.90278 ,5.31905 ,52.19052 
4 ,1.2129 ,0.90613 ,5.30878 ,52.08979 
5 ,1.4373 ,0.90845 ,5.30878 ,52.08979 
6 ,1.6454 ,0.91064 ,5.29510 ,51.95548 
7 ,1.8371 ,0.91258 ,5.27798 ,51.78758 
8 ,2.0454 ,0.91462 ,5.26772 ,51.68685 
9 ,2.2370 ,0.91658 ,5.24376 ,51.45180 
10 ,2.4457 ,0.91855 ,5.23007 ,51.31749 
11 ,2.6696 ,0.92088 ,5.19585 ,50.98170 
12 ,2.8617 ,0.92279 ,5.19243 ,50.94813 
13 ,3.0538 ,0.92483 ,5.15136 ,50.54519 
14 ,3.2619 ,0.92680 ,5.14794 ,50.51161 
15 ,3.4700 ,0.92884 ,5.11372 ,50.17583 
16 ,3.6940 ,0.93107 ,5.08977 ,49.94078 
17 ,3.8860 ,0.93303 ,5.08634 ,49.90720 
18 ,4.0622 ,0.93492 ,5.05554 ,49.60499 
19 ,4.2543 ,0.93673 ,5.02474 ,49.30279 
20 ,4.4460 ,0.93870 ,5.04185 ,49.47068 
21 ,4.6383 ,0.94062 ,4.98710 ,48.93343 
22 ,4.8306 ,0.94247 ,4.96999 ,48.76554 
23 ,5.0226 ,0.94439 ,4.95288 ,48.59764 
24 ,5.2146 ,0.94633 ,4.92892 ,48.36260 
25 ,5.3907 ,0.94821 ,4.91523 ,48.22828 
26 ,5.5828 ,0.94996 ,4.89812 ,48.06039 
27 ,5.7909 ,0.95206 ,4.86390 ,47.72461 
28 ,5.9828 ,0.95406 ,4.85364 ,47.62387 
29 ,6.1750 ,0.95595 ,4.82626 ,47.35525 
30 ,6.3831 ,0.95798 ,4.81257 ,47.22093 
31 ,6.5748 ,0.95993 ,4.77835 ,46.88515 
32 ,6.7833 ,0.96200 ,4.76808 ,46.78442 
33 ,7.0230 ,0.96438 ,4.75782 ,46.68368 
34 ,7.2315 ,0.96639 ,4.71333 ,46.24716 
35 ,7.4237 ,0.96843 ,4.72017 ,46.31432 
36 ,7.6317 ,0.97047 ,4.66884 ,45.81065 
37 ,7.8398 ,0.97254 ,4.66542 ,45.77707 
38 ,8.0479 ,0.97461 ,4.62435 ,45.37413 
39 ,8.2559 ,0.97675 ,4.61066 ,45.23981 
40 ,8.4640 ,0.97879 ,4.60382 ,45.17266 
41 ,8.6561 ,0.98075 ,4.56960 ,44.83688 
42 ,8.8481 ,0.98266 ,4.54222 ,44.56825 
43 ,9.0402 ,0.98454 ,4.53880 ,44.53467 
44 ,9.2484 ,0.98661 ,4.51484 ,44.29962 
45 ,9.4564 ,0.98870 ,4.48062 ,43.96384 
46 ,9.6484 ,0.99061 ,4.47378 ,43.89668 
47 ,9.8404 ,0.99261 ,4.45666 ,43.72879 
48 ,10.0487 ,0.99458 ,4.41902 ,43.35943 
49 ,10.2729 ,0.99685 ,4.39849 ,43.15796 
50 ,10.4806 ,0.99894 ,4.39849 ,43.15796 
51 ,10.6729 ,1.00089 ,4.35400 ,42.72144 
52 ,10.8647 ,1.00281 ,4.36427 ,42.82218 
53 ,11.0891 ,1.00500 ,4.30951 ,42.28492 
54 ,11.2969 ,1.00710 ,4.32320 ,42.41924 
55 ,11.4732 ,1.00902 ,4.28556 ,42.04988 
56 ,11.6654 ,1.01084 ,4.26845 ,41.88198 
57 ,11.8894 ,1.01305 ,4.23422 ,41.54620 
58 ,12.0809 ,1.01507 ,4.22738 ,41.47905 
59 ,12.2736 ,1.01688 ,4.20685 ,41.27758 
60 ,12.4818 ,1.01898 ,4.19316 ,41.14326 
61 ,12.7057 ,1.02113 ,4.15894 ,40.80748 
62 ,12.8978 ,1.02307 ,4.14525 ,40.67317 
63 ,13.1056 ,1.02519 ,4.12814 ,40.50527 
64 ,13.3141 ,1.02727 ,4.11445 ,40.37096 
65 ,13.5220 ,1.02938 ,4.10076 ,40.23665 
66 ,13.7142 ,1.03129 ,4.06654 ,39.90087 
67 ,13.9062 ,1.03325 ,4.05285 ,39.76655 
68 ,14.1144 ,1.03529 ,4.03232 ,39.56508 
69 ,14.3063 ,1.03720 ,4.02547 ,39.49793 
70 ,14.4983 ,1.03912 ,4.00152 ,39.26288 
71 ,14.6904 ,1.04102 ,3.96387 ,38.89352 
72 ,14.8826 ,1.04293 ,3.97414 ,38.99425 
73 ,15.0747 ,1.04488 ,3.93650 ,38.62489 
74 ,15.2824 ,1.04701 ,3.93307 ,38.59131 
75 ,15.4906 ,1.04903 ,3.90912 ,38.35626 
76 ,15.7150 ,1.05125 ,3.89201 ,38.18837 
77 ,15.9389 ,1.05339 ,3.86463 ,37.91975 
78 ,16.1310 ,1.05546 ,3.84752 ,37.75185 
79 ,16.3232 ,1.05738 ,3.83725 ,37.65112 
80 ,16.5152 ,1.05932 ,3.80987 ,37.38249 
81 ,16.7233 ,1.06139 ,3.78934 ,37.18102 
82 ,16.9155 ,1.06327 ,3.78592 ,37.14744 
83 ,17.1236 ,1.06533 ,3.74828 ,36.77808 
84 ,17.3475 ,1.06759 ,3.73459 ,36.64377 
85 ,17.5393 ,1.06955 ,3.72432 ,36.54303 
86 ,17.7319 ,1.07148 ,3.69010 ,36.20725 
87 ,17.9400 ,1.07355 ,3.68325 ,36.14010 
88 ,18.1321 ,1.07546 ,3.66272 ,35.93863 
89 ,18.3561 ,1.07764 ,3.64903 ,35.80431 
90 ,18.5480 ,1.07964 ,3.62850 ,35.60284 
91 ,18.7560 ,1.08173 ,3.62166 ,35.53569 
92 ,18.9965 ,1.08390 ,3.59770 ,35.30064 
93 ,19.2204 ,1.08632 ,3.58059 ,35.13275 
94 ,19.4125 ,1.08833 ,3.54979 ,34.83054 
95 ,19.6205 ,1.09032 ,3.52926 ,34.62907 
96 ,19.8126 ,1.09228 ,3.50872 ,34.42760 
97 ,20.0207 ,1.09429 ,3.50530 ,34.39402 
98 ,20.2288 ,1.09637 ,3.47450 ,34.09182 
99 ,20.4366 ,1.09852 ,3.46081 ,33.95751 
100 ,20.6286 ,1.10045 ,3.44028 ,33.75604 
101 ,20.8208 ,1.10231 ,3.43344 ,33.68888 
102 ,21.0131 ,1.10426 ,3.40606 ,33.42025 
103 ,21.2052 ,1.10615 ,3.38553 ,33.21878 
104 ,21.4128 ,1.10827 ,3.35815 ,32.95016 
105 ,21.6054 ,1.11015 ,3.34788 ,32.84942 
106 ,21.8134 ,1.11226 ,3.34788 ,32.84942 
107 ,22.0531 ,1.11461 ,3.32051 ,32.58080 
108 ,22.2774 ,1.11675 ,3.29313 ,32.31217 
109 ,22.4694 ,1.11883 ,3.26917 ,32.07712 
110 ,22.6775 ,1.12085 ,3.26233 ,32.00996 
111 ,22.8698 ,1.12281 ,3.24180 ,31.80849 
112 ,23.0616 ,1.12471 ,3.23495 ,31.74134 
113 ,23.2700 ,1.12673 ,3.21442 ,31.53987 
114 ,23.4621 ,1.12870 ,3.19388 ,31.33840 
115 ,23.6541 ,1.13076 ,3.18020 ,31.20409 
116 ,23.8462 ,1.13255 ,3.14255 ,30.83472 
117 ,24.0222 ,1.13444 ,3.16993 ,31.10335 
118 ,24.2144 ,1.13627 ,3.14940 ,30.90188 
119 ,24.4226 ,1.13837 ,3.11518 ,30.56610 
120 ,24.6305 ,1.14042 ,3.10491 ,30.46536 
121 ,24.8226 ,1.14233 ,3.09464 ,30.36463 
122 ,25.0147 ,1.14424 ,3.07069 ,30.12958 
123 ,25.2224 ,1.14627 ,3.05700 ,29.99527 
124 ,25.4149 ,1.14823 ,3.05015 ,29.92811 
125 ,25.5910 ,1.15014 ,3.00224 ,29.45801 
126 ,25.7830 ,1.15191 ,3.00224 ,29.45801 
127 ,25.9752 ,1.15383 ,2.99540 ,29.39086 
128 ,26.1672 ,1.15577 ,2.96460 ,29.08865 
129 ,26.3913 ,1.15796 ,2.96802 ,29.12223 
130 ,26.5993 ,1.16008 ,2.94407 ,28.88718 
131 ,26.7914 ,1.16198 ,2.91327 ,28.58498 
132 ,26.9835 ,1.16392 ,2.89958 ,28.45066 
133 ,27.1755 ,1.16587 ,2.89616 ,28.41709 
134 ,27.3832 ,1.16791 ,2.86536 ,28.11488 
135 ,27.5753 ,1.16982 ,2.86536 ,28.11488 
136 ,27.7677 ,1.17180 ,2.82087 ,27.67836 
137 ,27.9920 ,1.17386 ,2.81745 ,27.64479 
138 ,28.2000 ,1.17610 ,2.80034 ,27.47689 
139 ,28.4077 ,1.17816 ,2.78322 ,27.30900 
140 ,28.6320 ,1.18026 ,2.77980 ,27.27542 
141 ,28.8403 ,1.18247 ,2.75585 ,27.04038 
142 ,29.0485 ,1.18458 ,2.74558 ,26.93964 
143 ,29.2562 ,1.18658 ,2.72505 ,26.73817 
144 ,29.4645 ,1.18872 ,2.70109 ,26.50312 
145 ,29.6726 ,1.19081 ,2.67372 ,26.23450 
146 ,29.8647 ,1.19273 ,2.66345 ,26.13376 
147 ,30.0568 ,1.19464 ,2.66687 ,26.16734 
148 ,30.2649 ,1.19673 ,2.63265 ,25.83156 
149 ,30.4887 ,1.19899 ,2.62581 ,25.76440 
150 ,30.6966 ,1.20103 ,2.60869 ,25.59651 
151 ,30.8888 ,1.20296 ,2.57447 ,25.26073 
152 ,31.1292 ,1.20537 ,2.56421 ,25.15999 
153 ,31.3373 ,1.20748 ,2.56078 ,25.12641 
154 ,31.5294 ,1.20945 ,2.52656 ,24.79063 
155 ,31.7212 ,1.21129 ,2.53341 ,24.85779 
156 ,31.9459 ,1.21346 ,2.49234 ,24.45485 
157 ,32.1536 ,1.21565 ,2.49234 ,24.45485 
158 ,32.3618 ,1.21767 ,2.46839 ,24.21980 
159 ,32.5695 ,1.21983 ,2.44443 ,23.98475 
160 ,32.7619 ,1.22167 ,2.42732 ,23.81686 
161 ,32.9539 ,1.22363 ,2.43074 ,23.85044 
162 ,33.1459 ,1.22553 ,2.40336 ,23.58181 
163 ,33.3383 ,1.22747 ,2.39652 ,23.51465 
164 ,33.5461 ,1.22952 ,2.36572 ,23.21245 
165 ,33.7382 ,1.23147 ,2.37256 ,23.27961 
166 ,33.9300 ,1.23334 ,2.34861 ,23.04456 
167 ,34.1383 ,1.23542 ,2.32465 ,22.80951 
168 ,34.3463 ,1.23745 ,2.30754 ,22.64162 
169 ,34.5386 ,1.23951 ,2.31097 ,22.67520 
170 ,34.7468 ,1.24155 ,2.28359 ,22.40657 
171 ,34.9387 ,1.24346 ,2.28359 ,22.40657 
172 ,35.1627 ,1.24569 ,2.24594 ,22.03721 
173 ,35.3867 ,1.24789 ,2.23226 ,21.90290 
174 ,35.5785 ,1.24983 ,2.23568 ,21.93647 
175 ,35.7711 ,1.25179 ,2.20146 ,21.60069 
176 ,35.9630 ,1.25370 ,2.19119 ,21.49996 
177 ,36.1548 ,1.25561 ,2.18092 ,21.39922 
178 ,36.3471 ,1.25755 ,2.15012 ,21.09702 
179 ,36.5396 ,1.25950 ,2.16381 ,21.23133 
180 ,36.7312 ,1.26138 ,2.13301 ,20.92912 
181 ,36.9395 ,1.26348 ,2.12959 ,20.89555 
182 ,37.1317 ,1.26535 ,2.10564 ,20.66050 
183 ,37.3236 ,1.26732 ,2.07826 ,20.39187 
184 ,37.5158 ,1.26923 ,2.08510 ,20.45903 
185 ,37.7398 ,1.27140 ,2.05088 ,20.12325 
186 ,37.9320 ,1.27334 ,2.04061 ,20.02251 
187 ,38.1401 ,1.27548 ,2.02693 ,19.88820 
188 ,38.3316 ,1.27749 ,2.00982 ,19.72031 
189 ,38.5242 ,1.27931 ,1.98928 ,19.51884 
190 ,38.7163 ,1.28128 ,1.99270 ,19.55241 
191 ,38.9084 ,1.28316 ,1.96190 ,19.25021 
192 ,39.1164 ,1.28516 ,1.96875 ,19.31737 
193 ,39.3245 ,1.28727 ,1.94137 ,19.04874 
194 ,39.5326 ,1.28932 ,1.93111 ,18.94801 
195 ,39.7247 ,1.29132 ,1.90031 ,18.64580 
196 ,39.9323 ,1.29336 ,1.90373 ,18.67938 
197 ,40.1405 ,1.29534 ,1.86266 ,18.27644 
198 ,40.3488 ,1.29749 ,1.86951 ,18.34360 
199 ,40.5410 ,1.29945 ,1.83528 ,18.00781 
200 ,40.7330 ,1.30138 ,1.84555 ,18.10855 
201 ,40.9408 ,1.30335 ,1.80106 ,17.67203 
202 ,41.1487 ,1.30549 ,1.80449 ,17.70561 
203 ,41.3569 ,1.30760 ,1.79080 ,17.57129 
204 ,41.5651 ,1.30966 ,1.77026 ,17.36983 
205 ,41.7895 ,1.31187 ,1.76342 ,17.30267 
206 ,41.9975 ,1.31403 ,1.75315 ,17.20193 
207 ,42.1896 ,1.31600 ,1.72235 ,16.89973 
208 ,42.3817 ,1.31783 ,1.70866 ,16.76542 
209 ,42.5736 ,1.31979 ,1.71209 ,16.79899 
210 ,42.7818 ,1.32184 ,1.67786 ,16.46321 
211 ,42.9575 ,1.32371 ,1.67444 ,16.42963 
212 ,43.1498 ,1.32550 ,1.67786 ,16.46321 
213 ,43.3261 ,1.32740 ,1.62995 ,15.99311 
214 ,43.5181 ,1.32920 ,1.63680 ,16.06027 
215 ,43.7103 ,1.33113 ,1.62311 ,15.92596 
216 ,43.9024 ,1.33311 ,1.59916 ,15.69091 
217 ,44.1104 ,1.33511 ,1.59916 ,15.69091 
218 ,44.3185 ,1.33723 ,1.57178 ,15.42228 
219 ,44.5106 ,1.33913 ,1.57178 ,15.42228 
220 ,44.7027 ,1.34107 ,1.54440 ,15.15366 
221 ,44.9103 ,1.34315 ,1.54440 ,15.15366 
222 ,45.1028 ,1.34515 ,1.52387 ,14.95219 
223 ,45.3106 ,1.34707 ,1.52387 ,14.95219 
224 ,45.5031 ,1.34908 ,1.47253 ,14.44851 
225 ,45.6950 ,1.35108 ,1.49307 ,14.64998 
226 ,45.8872 ,1.35290 ,1.45542 ,14.28062 
227 ,46.0953 ,1.35502 ,1.45885 ,14.31420 
228 ,46.2873 ,1.35687 ,1.44516 ,14.17989 
229 ,46.4795 ,1.35882 ,1.42120 ,13.94484 
230 ,46.6555 ,1.36069 ,1.41778 ,13.91126 
231 ,46.8478 ,1.36255 ,1.40067 ,13.74337 
232 ,47.0555 ,1.36455 ,1.39725 ,13.70979 
233 ,47.2638 ,1.36662 ,1.37329 ,13.47474 
234 ,47.4719 ,1.36870 ,1.36645 ,13.40759 
235 ,47.6640 ,1.37066 ,1.33907 ,13.13896 
236 ,47.8560 ,1.37261 ,1.33223 ,13.07180 
237 ,48.0480 ,1.37449 ,1.32196 ,12.97107 
238 ,48.2560 ,1.37649 ,1.29458 ,12.70244 
239 ,48.4484 ,1.37850 ,1.30827 ,12.83675 
240 ,48.6563 ,1.38061 ,1.28089 ,12.56813 
241 ,49.0722 ,1.38475 ,1.25352 ,12.29950 
242 ,49.2802 ,1.38678 ,1.23298 ,12.09803 
243 ,49.4888 ,1.38891 ,1.22956 ,12.06445 
244 ,49.6965 ,1.39096 ,1.21587 ,11.93014 
245 ,49.8887 ,1.39288 ,1.20561 ,11.82941 
246 ,50.0809 ,1.39479 ,1.17481 ,11.52720 
247 ,50.2889 ,1.39694 ,1.17481 ,11.52720 
248 ,50.4970 ,1.39893 ,1.15770 ,11.35931 
249 ,50.6891 ,1.40087 ,1.15770 ,11.35931 
250 ,50.8970 ,1.40300 ,1.12347 ,11.02353 
251 ,51.0893 ,1.40489 ,1.13032 ,11.09068 
252 ,51.2813 ,1.40685 ,1.09610 ,10.75490 
253 ,51.4733 ,1.40879 ,1.10979 ,10.88921 
254 ,51.6813 ,1.41086 ,1.08583 ,10.65416 
255 ,51.8896 ,1.41294 ,1.07899 ,10.58701 
256 ,52.1297 ,1.41529 ,1.07214 ,10.51985 
257 ,52.3378 ,1.41741 ,1.02423 ,10.04976 
258 ,52.5299 ,1.41932 ,1.04134 ,10.21765 
259 ,52.7540 ,1.42147 ,1.00712 ,9.88186 
260 ,52.9621 ,1.42357 ,0.99685 ,9.78113 
261 ,53.1702 ,1.42566 ,0.99685 ,9.78113 
262 ,53.3782 ,1.42775 ,0.96263 ,9.44535 
263 ,53.5704 ,1.42970 ,0.97632 ,9.57966 
264 ,53.7783 ,1.43173 ,0.93868 ,9.21030 
265 ,53.9863 ,1.43384 ,0.93868 ,9.21030 
266 ,54.1946 ,1.43588 ,0.92157 ,9.04241 
267 ,54.3864 ,1.43784 ,0.91814 ,9.00883 
268 ,54.5786 ,1.43976 ,0.89419 ,8.77378 
269 ,54.7549 ,1.44165 ,0.90446 ,8.87451 
270 ,54.9464 ,1.44349 ,0.87708 ,8.60589 
271 ,55.1710 ,1.44569 ,0.88392 ,8.67305 
272 ,55.3788 ,1.44773 ,0.84970 ,8.33726 
273 ,55.5710 ,1.44969 ,0.84628 ,8.30368 
274 ,55.7791 ,1.45175 ,0.81206 ,7.96790 
275 ,55.9710 ,1.45369 ,0.82917 ,8.13579 
276 ,56.1950 ,1.45591 ,0.80179 ,7.86717 
277 ,56.4032 ,1.45793 ,0.79152 ,7.76643 
278 ,56.5956 ,1.45993 ,0.77441 ,7.59854 
279 ,56.8197 ,1.46213 ,0.75730 ,7.43065 
280 ,57.0113 ,1.46409 ,0.77441 ,7.59854 
281 ,57.1872 ,1.46600 ,0.73677 ,7.22918 
282 ,57.3797 ,1.46774 ,0.71966 ,7.06129 
283 ,57.5717 ,1.46968 ,0.72992 ,7.16202 
284 ,57.7639 ,1.47164 ,0.70597 ,6.92697 
285 ,57.9558 ,1.47350 ,0.68886 ,6.75908 
286 ,58.1478 ,1.47544 ,0.68886 ,6.75908 
287 ,58.3400 ,1.47738 ,0.66490 ,6.52403 
288 ,58.5323 ,1.47930 ,0.67517 ,6.62477 
289 ,58.7240 ,1.48121 ,0.65464 ,6.42330 
290 ,58.9165 ,1.48314 ,0.62384 ,6.12109 
291 ,59.1082 ,1.48507 ,0.63753 ,6.25541 
292 ,59.3165 ,1.48709 ,0.61357 ,6.02036 
293 ,59.5248 ,1.48926 ,0.58962 ,5.78531 
294 ,59.7163 ,1.49121 ,0.58277 ,5.71815 
295 ,59.8923 ,1.49302 ,0.58619 ,5.75173 
296 ,60.0845 ,1.49484 ,0.57251 ,5.61742 
297 ,60.2927 ,1.49684 ,0.54855 ,5.38237 
298 ,60.5011 ,1.49886 ,0.55197 ,5.41595 
299 ,60.7092 ,1.50101 ,0.52802 ,5.18090 
300 ,60.9488 ,1.50332 ,0.51091 ,5.01301 
301 ,61.1410 ,1.50539 ,0.49037 ,4.81154 
302 ,61.3649 ,1.50752 ,0.50064 ,4.91228 
303 ,61.5729 ,1.50969 ,0.48353 ,4.74438 
304 ,61.7810 ,1.51170 ,0.46300 ,4.54291 
305 ,61.9896 ,1.51380 ,0.45957 ,4.50934 
306 ,62.1974 ,1.51592 ,0.43562 ,4.27429 
307 ,62.3897 ,1.51784 ,0.44246 ,4.34144 
308 ,62.5815 ,1.51981 ,0.41509 ,4.07282 
309 ,62.7738 ,1.52169 ,0.40140 ,3.93850 
310 ,62.9660 ,1.52360 ,0.40140 ,3.93850 
311 ,63.1581 ,1.52552 ,0.39113 ,3.83777 
312 ,63.3660 ,1.52761 ,0.39113 ,3.83777 
313 ,63.5899 ,1.52973 ,0.35691 ,3.50199 
314 ,63.7981 ,1.53195 ,0.35006 ,3.43483 
315 ,63.9904 ,1.53396 ,0.34664 ,3.40125 
316 ,64.1824 ,1.53577 ,0.33638 ,3.30052 
317 ,64.3747 ,1.53768 ,0.31584 ,3.09905 
318 ,64.5667 ,1.53962 ,0.32611 ,3.19978 
319 ,64.7583 ,1.54154 ,0.28847 ,2.83042 
320 ,64.9510 ,1.54342 ,0.29873 ,2.93116 
321 ,65.1590 ,1.54555 ,0.26451 ,2.59537 
322 ,65.3666 ,1.54760 ,0.27478 ,2.69611 
323 ,65.5591 ,1.54950 ,0.24398 ,2.39390 
324 ,65.7512 ,1.55155 ,0.24055 ,2.36032 
325 ,65.9751 ,1.55359 ,0.23713 ,2.32675 
326 ,66.1831 ,1.55582 ,0.22002 ,2.15885 
327 ,66.3914 ,1.55785 ,0.20633 ,2.02454 
328 ,66.5835 ,1.55976 ,0.20633 ,2.02454 
329 ,66.7756 ,1.56174 ,0.19264 ,1.89023 
330 ,66.9992 ,1.56384 ,0.18238 ,1.78949 
331 ,67.1914 ,1.56581 ,0.16185 ,1.58802 
332 ,67.3834 ,1.56779 ,0.16869 ,1.65518 
333 ,67.5757 ,1.56970 ,0.14131 ,1.38655 
334 ,67.7679 ,1.57167 ,0.15500 ,1.52087 
335 ,67.9760 ,1.57371 ,0.11051 ,1.08435 
336 ,68.1839 ,1.57584 ,0.12420 ,1.21866 
337 ,68.3919 ,1.57786 ,0.09682 ,0.95004 
338 ,68.5841 ,1.57977 ,0.10025 ,0.98361 
339 ,68.7923 ,1.58184 ,0.08998 ,0.88288 
340 ,68.9841 ,1.58377 ,0.08314 ,0.81572 
341 ,69.1760 ,1.58565 ,0.05234 ,0.51352 
342 ,69.3687 ,1.58767 ,0.05918 ,0.58067 
343 ,69.5763 ,1.58970 ,0.02154 ,0.21131 
344 ,69.7687 ,1.59159 ,0.04891 ,0.47994 
345 ,69.9767 ,1.59369 ,0.01127 ,0.11058 
346 ,70.1524 ,1.59556 ,0.01127 ,0.11058 
347 ,70.3606 ,1.59757 ,-0.00926 ,-0.09089 
348 ,70.5851 ,1.59980 ,-0.00242 ,-0.02373 
349 ,70.7932 ,1.60181 ,-0.02295 ,-0.22520 
350 ,70.9851 ,1.60382 ,-0.01953 ,-0.19163 
351 ,71.1772 ,1.60570 ,-0.04691 ,-0.46025 
352 ,71.4170 ,1.60805 ,-0.04691 ,-0.46025 
353 ,71.6249 ,1.61015 ,-0.04691 ,-0.46025 
354 ,71.8333 ,1.61214 ,-0.07428 ,-0.72888 
355 ,72.0417 ,1.61435 ,-0.08113 ,-0.79604 
356 ,72.2333 ,1.61624 ,-0.09482 ,-0.93035 
357 ,72.4258 ,1.61821 ,-0.08455 ,-0.82961 
358 ,72.6339 ,1.62023 ,-0.12219 ,-1.19898 
359 ,72.8420 ,1.62235 ,-0.12562 ,-1.23255 
360 ,73.0340 ,1.62430 ,-0.13588 ,-1.33329 
361 ,73.2421 ,1.62634 ,-0.14615 ,-1.43402 
362 ,73.4338 ,1.62828 ,-0.15299 ,-1.50118 
363 ,73.6257 ,1.63012 ,-0.14615 ,-1.43402 
364 ,73.8181 ,1.63205 ,-0.18037 ,-1.76981 
365 ,74.0265 ,1.63420 ,-0.17353 ,-1.70265 
366 ,74.2184 ,1.63609 ,-0.19064 ,-1.87054 
367 ,74.4104 ,1.63800 ,-0.19064 ,-1.87054 
368 ,74.6185 ,1.64003 ,-0.21117 ,-2.07201 
369 ,74.8269 ,1.64214 ,-0.21459 ,-2.10559 
370 ,75.0349 ,1.64428 ,-0.22828 ,-2.23990 
371 ,75.2590 ,1.64640 ,-0.23170 ,-2.27348 
372 ,75.4512 ,1.64841 ,-0.23513 ,-2.30706 
373 ,75.6590 ,1.65049 ,-0.26593 ,-2.60926 
374 ,75.8671 ,1.65250 ,-0.26593 ,-2.60926 
375 ,76.0910 ,1.65465 ,-0.27277 ,-2.67642 
376 ,76.3314 ,1.65707 ,-0.29330 ,-2.87789 
377 ,76.5235 ,1.65915 ,-0.28988 ,-2.84431 
378 ,76.7315 ,1.66116 ,-0.32410 ,-3.18010 
379 ,76.9235 ,1.66317 ,-0.30699 ,-3.01220 
380 ,77.1478 ,1.66526 ,-0.33437 ,-3.28083 
381 ,77.3558 ,1.66740 ,-0.34464 ,-3.38156 
382 ,77.5480 ,1.66937 ,-0.33779 ,-3.31441 
383 ,77.7559 ,1.67145 ,-0.37201 ,-3.65019 
384 ,77.9477 ,1.67336 ,-0.35148 ,-3.44872 
385 ,78.1562 ,1.67540 ,-0.39597 ,-3.88524 
386 ,78.3642 ,1.67754 ,-0.39255 ,-3.85166 
387 ,78.5564 ,1.67947 ,-0.40966 ,-4.01955 
388 ,78.7644 ,1.68152 ,-0.40623 ,-3.98597 
389 ,78.9559 ,1.68343 ,-0.42335 ,-4.15387 
390 ,79.1643 ,1.68562 ,-0.43703 ,-4.28818 
391 ,79.3725 ,1.68760 ,-0.44388 ,-4.35534 
392 ,79.5647 ,1.68956 ,-0.44046 ,-4.32176 
393 ,79.7729 ,1.69162 ,-0.45414 ,-4.45607 
394 ,79.9650 ,1.69355 ,-0.45757 ,-4.48965 
395 ,80.1565 ,1.69541 ,-0.47810 ,-4.69112 
396 ,80.3491 ,1.69740 ,-0.47810 ,-4.69112 
397 ,80.5569 ,1.69948 ,-0.49179 ,-4.82543 
398 ,80.7493 ,1.70139 ,-0.49179 ,-4.82543 
399 ,80.9571 ,1.70346 ,-0.52601 ,-5.16121 
400 ,81.1495 ,1.70536 ,-0.50890 ,-4.99332 
401 ,81.3414 ,1.70732 ,-0.51917 ,-5.09406 
402 ,81.5335 ,1.70922 ,-0.53970 ,-5.29553 
403 ,81.7257 ,1.71113 ,-0.53628 ,-5.26195 
404 ,81.9338 ,1.71321 ,-0.53628 ,-5.26195 
405 ,82.1576 ,1.71547 ,-0.57050 ,-5.59773 
406 ,82.3655 ,1.71747 ,-0.55339 ,-5.42984 
407 ,82.5578 ,1.71945 ,-0.58419 ,-5.73205 
408 ,82.7502 ,1.72136 ,-0.57392 ,-5.63131 
409 ,82.9579 ,1.72349 ,-0.61156 ,-6.00067 
410 ,83.1501 ,1.72540 ,-0.60472 ,-5.93352 
411 ,83.3424 ,1.72732 ,-0.62525 ,-6.13499 
412 ,83.5344 ,1.72926 ,-0.63210 ,-6.20214 
413 ,83.7266 ,1.73115 ,-0.62183 ,-6.10141 
414 ,83.9185 ,1.73306 ,-0.64921 ,-6.37003 
415 ,84.1267 ,1.73515 ,-0.64579 ,-6.33646 
416 ,84.3188 ,1.73707 ,-0.66974 ,-6.57150 
417 ,84.5424 ,1.73923 ,-0.66632 ,-6.53793 
418 ,84.7510 ,1.74136 ,-0.66974 ,-6.57150 
419 ,84.9586 ,1.74344 ,-0.69370 ,-6.80655 
420 ,85.1512 ,1.74539 ,-0.70054 ,-6.87371 
421 ,85.3911 ,1.74761 ,-0.70739 ,-6.94086 
422 ,85.5989 ,1.74985 ,-0.72107 ,-7.07518 
423 ,85.8234 ,1.75195 ,-0.70054 ,-6.87371 
424 ,86.0315 ,1.75417 ,-0.73476 ,-7.20949 
425 ,86.2235 ,1.75612 ,-0.74503 ,-7.31023 
426 ,86.4156 ,1.75802 ,-0.75872 ,-7.44454 
427 ,86.6074 ,1.75996 ,-0.74845 ,-7.34380 
428 ,86.8155 ,1.76201 ,-0.76556 ,-7.51170 
429 ,87.0238 ,1.76411 ,-0.77925 ,-7.64601 
430 ,87.2158 ,1.76600 ,-0.79636 ,-7.81390 
431 ,87.4080 ,1.76793 ,-0.78610 ,-7.71317 
432 ,87.6160 ,1.77004 ,-0.80321 ,-7.88106 
433 ,87.8077 ,1.77197 ,-0.80321 ,-7.88106 
434 ,88.0160 ,1.77395 ,-0.82374 ,-8.08253 
435 ,88.2081 ,1.77590 ,-0.82032 ,-8.04895 
436 ,88.4159 ,1.77797 ,-0.84427 ,-8.28400 
437 ,88.6405 ,1.78017 ,-0.84427 ,-8.28400 
438 ,88.8486 ,1.78236 ,-0.84769 ,-8.31758 
439 ,89.0406 ,1.78421 ,-0.86481 ,-8.48547 
440 ,89.2487 ,1.78637 ,-0.85454 ,-8.38473 
441 ,89.4568 ,1.78836 ,-0.89903 ,-8.82125 
442 ,89.6490 ,1.79037 ,-0.89560 ,-8.78767 
443 ,89.8727 ,1.79252 ,-0.90245 ,-8.85483 
444 ,90.0644 ,1.79460 ,-0.91956 ,-9.02272 
445 ,90.2569 ,1.79644 ,-0.92298 ,-9.05630 
446 ,90.4651 ,1.79846 ,-0.90929 ,-8.92198 
447 ,90.6733 ,1.80061 ,-0.92640 ,-9.08988 
448 ,90.8653 ,1.80252 ,-0.93667 ,-9.19061 
449 ,91.0571 ,1.80448 ,-0.95036 ,-9.32492 
450 ,91.2495 ,1.80633 ,-0.96063 ,-9.42566 
451 ,91.4573 ,1.80842 ,-0.98458 ,-9.66071 
452 ,91.6498 ,1.81030 ,-0.97431 ,-9.55997 
453 ,91.8576 ,1.81238 ,-1.00169 ,-9.82860 
454 ,92.0658 ,1.81448 ,-0.98458 ,-9.66071 
455 ,92.2574 ,1.81641 ,-1.01880 ,-9.99649 
456 ,92.4500 ,1.81832 ,-0.98800 ,-9.69429 
457 ,92.6577 ,1.82041 ,-1.02565 ,-10.06365 
458 ,92.8500 ,1.82231 ,-1.01880 ,-9.99649 
459 ,93.0579 ,1.82434 ,-1.04276 ,-10.23154 
460 ,93.2504 ,1.82633 ,-1.04276 ,-10.23154 
461 ,93.4584 ,1.82834 ,-1.06671 ,-10.46659 
462 ,93.6826 ,1.83063 ,-1.06671 ,-10.46659 
