Data stamp = , 03-05-2022 08:39:19 299

Calibration Values: 
Slope = , 26.54 , g/V 
Offset Voltage at no contact = , -0.501760 , V 

No , Time , Stage Position ,   Mass , Force 
   ,  (s) ,      (mm)      ,   (g)  , (mN)  

1 ,0.0000 ,0.89940 ,5.28141 ,51.82116 
2 ,0.2083 ,0.89949 ,5.27798 ,51.78758 
3 ,0.7686 ,0.90169 ,5.29510 ,51.95548 
4 ,1.0090 ,0.90402 ,5.28825 ,51.88832 
5 ,1.2332 ,0.90641 ,5.29167 ,51.92190 
6 ,1.4413 ,0.90847 ,5.28141 ,51.82116 
7 ,1.6648 ,0.91081 ,5.24718 ,51.48538 
8 ,1.8574 ,0.91275 ,5.23692 ,51.38464 
9 ,2.0813 ,0.91492 ,5.21296 ,51.14960 
10 ,2.3215 ,0.91733 ,5.19927 ,51.01528 
11 ,2.5296 ,0.91950 ,5.17190 ,50.74666 
12 ,2.7218 ,0.92138 ,5.14794 ,50.51161 
13 ,2.9299 ,0.92346 ,5.11714 ,50.20940 
14 ,3.1219 ,0.92537 ,5.11030 ,50.14225 
15 ,3.3300 ,0.92741 ,5.07950 ,49.84004 
16 ,3.5220 ,0.92940 ,5.07265 ,49.77289 
17 ,3.7300 ,0.93147 ,5.03843 ,49.43710 
18 ,3.9222 ,0.93339 ,5.02132 ,49.26921 
19 ,4.0979 ,0.93523 ,4.99394 ,49.00058 
20 ,4.3065 ,0.93719 ,4.97341 ,48.79911 
21 ,4.5306 ,0.93941 ,4.93235 ,48.39618 
22 ,4.7225 ,0.94136 ,4.95288 ,48.59764 
23 ,4.9146 ,0.94324 ,4.90839 ,48.16113 
24 ,5.1068 ,0.94524 ,4.90155 ,48.09397 
25 ,5.2988 ,0.94722 ,4.86048 ,47.69103 
26 ,5.4907 ,0.94906 ,4.85706 ,47.65745 
27 ,5.6829 ,0.95097 ,4.84337 ,47.52314 
28 ,5.8747 ,0.95288 ,4.80915 ,47.18736 
29 ,6.0510 ,0.95476 ,4.79888 ,47.08662 
30 ,6.2433 ,0.95652 ,4.78861 ,46.98589 
31 ,6.4512 ,0.95858 ,4.74755 ,46.58295 
32 ,6.6594 ,0.96072 ,4.73728 ,46.48221 
33 ,6.8514 ,0.96266 ,4.71333 ,46.24716 
34 ,7.0436 ,0.96452 ,4.70306 ,46.14643 
35 ,7.2517 ,0.96668 ,4.67568 ,45.87780 
36 ,7.4754 ,0.96874 ,4.65857 ,45.70991 
37 ,7.6674 ,0.97082 ,4.63119 ,45.44128 
38 ,7.8755 ,0.97283 ,4.61066 ,45.23981 
39 ,8.0837 ,0.97492 ,4.59355 ,45.07192 
40 ,8.2919 ,0.97706 ,4.55933 ,44.73614 
41 ,8.5157 ,0.97924 ,4.56275 ,44.76972 
42 ,8.7082 ,0.98118 ,4.52853 ,44.43394 
43 ,8.9323 ,0.98344 ,4.48746 ,44.03100 
44 ,9.1403 ,0.98541 ,4.49089 ,44.06457 
45 ,9.3484 ,0.98758 ,4.45666 ,43.72879 
46 ,9.5561 ,0.98965 ,4.43271 ,43.49374 
47 ,9.7645 ,0.99174 ,4.43271 ,43.49374 
48 ,9.9727 ,0.99386 ,4.39849 ,43.15796 
49 ,10.1645 ,0.99574 ,4.40875 ,43.25870 
50 ,10.3568 ,0.99767 ,4.36084 ,42.78860 
51 ,10.5646 ,0.99974 ,4.34373 ,42.62071 
52 ,10.7729 ,1.00184 ,4.31978 ,42.38566 
53 ,10.9648 ,1.00372 ,4.30609 ,42.25135 
54 ,11.1568 ,1.00566 ,4.28213 ,42.01630 
55 ,11.3972 ,1.00810 ,4.26502 ,41.84841 
56 ,11.6049 ,1.01014 ,4.26160 ,41.81483 
57 ,11.7969 ,1.01204 ,4.22738 ,41.47905 
58 ,12.0054 ,1.01415 ,4.21711 ,41.37831 
59 ,12.2294 ,1.01637 ,4.18289 ,41.04253 
60 ,12.4377 ,1.01847 ,4.16578 ,40.87464 
61 ,12.6618 ,1.02070 ,4.15894 ,40.80748 
62 ,12.8536 ,1.02266 ,4.11445 ,40.37096 
63 ,13.0939 ,1.02491 ,4.09391 ,40.16949 
64 ,13.2857 ,1.02708 ,4.09049 ,40.13591 
65 ,13.4781 ,1.02887 ,4.05627 ,39.80013 
66 ,13.6701 ,1.03093 ,4.06312 ,39.86729 
67 ,13.8623 ,1.03274 ,4.03574 ,39.59866 
68 ,14.0538 ,1.03468 ,4.00152 ,39.26288 
69 ,14.2784 ,1.03667 ,4.00494 ,39.29646 
70 ,14.4864 ,1.03898 ,3.97414 ,38.99425 
71 ,14.6786 ,1.04087 ,3.93992 ,38.65847 
72 ,14.8866 ,1.04294 ,3.94676 ,38.72562 
73 ,15.0944 ,1.04502 ,3.90912 ,38.35626 
74 ,15.3029 ,1.04704 ,3.91596 ,38.42342 
75 ,15.5269 ,1.04934 ,3.88174 ,38.08764 
76 ,15.7190 ,1.05126 ,3.85779 ,37.85259 
77 ,15.9430 ,1.05345 ,3.83383 ,37.61754 
78 ,16.1509 ,1.05558 ,3.81672 ,37.44965 
79 ,16.3752 ,1.05772 ,3.82014 ,37.48323 
80 ,16.5834 ,1.05986 ,3.78934 ,37.18102 
81 ,16.7915 ,1.06199 ,3.74485 ,36.74450 
82 ,16.9994 ,1.06418 ,3.73801 ,36.67735 
83 ,17.1915 ,1.06600 ,3.73117 ,36.61019 
84 ,17.3837 ,1.06792 ,3.72432 ,36.54303 
85 ,17.5758 ,1.06982 ,3.67983 ,36.10652 
86 ,17.7839 ,1.07192 ,3.68325 ,36.14010 
87 ,17.9920 ,1.07399 ,3.63534 ,35.67000 
88 ,18.1837 ,1.07592 ,3.64903 ,35.80431 
89 ,18.3756 ,1.07783 ,3.61823 ,35.50211 
90 ,18.5841 ,1.07987 ,3.62166 ,35.53569 
91 ,18.7920 ,1.08202 ,3.57717 ,35.09917 
92 ,18.9842 ,1.08388 ,3.57032 ,35.03201 
93 ,19.1923 ,1.08597 ,3.53610 ,34.69623 
94 ,19.3843 ,1.08796 ,3.54979 ,34.83054 
95 ,19.5925 ,1.08997 ,3.50188 ,34.36045 
96 ,19.8003 ,1.09212 ,3.49161 ,34.25971 
97 ,19.9927 ,1.09398 ,3.48135 ,34.15898 
98 ,20.2005 ,1.09599 ,3.46766 ,34.02466 
99 ,20.3929 ,1.09801 ,3.45055 ,33.85677 
100 ,20.5846 ,1.09996 ,3.43001 ,33.65530 
101 ,20.8090 ,1.10207 ,3.39921 ,33.35310 
102 ,21.0171 ,1.10429 ,3.38553 ,33.21878 
103 ,21.2248 ,1.10637 ,3.37526 ,33.11805 
104 ,21.4172 ,1.10822 ,3.35130 ,32.88300 
105 ,21.6253 ,1.11034 ,3.35473 ,32.91658 
106 ,21.8174 ,1.11225 ,3.30682 ,32.44648 
107 ,22.0094 ,1.11411 ,3.31366 ,32.51364 
108 ,22.2016 ,1.11609 ,3.28628 ,32.24501 
109 ,22.3938 ,1.11803 ,3.26233 ,32.00996 
110 ,22.5853 ,1.12003 ,3.25206 ,31.90923 
111 ,22.8095 ,1.12201 ,3.23153 ,31.70776 
112 ,23.0180 ,1.12421 ,3.21100 ,31.50629 
113 ,23.2579 ,1.12650 ,3.20415 ,31.43913 
114 ,23.4661 ,1.12869 ,3.19046 ,31.30482 
115 ,23.6900 ,1.13084 ,3.15624 ,30.96904 
116 ,23.8981 ,1.13306 ,3.13913 ,30.80115 
117 ,24.1063 ,1.13516 ,3.12544 ,30.66683 
118 ,24.2983 ,1.13716 ,3.10491 ,30.46536 
119 ,24.4904 ,1.13898 ,3.09464 ,30.36463 
120 ,24.6827 ,1.14089 ,3.08438 ,30.26389 
121 ,24.8903 ,1.14296 ,3.05700 ,29.99527 
122 ,25.0663 ,1.14485 ,3.05700 ,29.99527 
123 ,25.2425 ,1.14662 ,3.02620 ,29.69306 
124 ,25.4508 ,1.14854 ,3.01593 ,29.59233 
125 ,25.6429 ,1.15048 ,2.99198 ,29.35728 
126 ,25.8351 ,1.15243 ,2.96802 ,29.12223 
127 ,26.0271 ,1.15436 ,2.98855 ,29.32370 
128 ,26.2190 ,1.15637 ,2.94407 ,28.88718 
129 ,26.4114 ,1.15814 ,2.92353 ,28.68571 
130 ,26.6035 ,1.16008 ,2.93038 ,28.75287 
131 ,26.7955 ,1.16202 ,2.91327 ,28.58498 
132 ,27.0034 ,1.16414 ,2.88931 ,28.34993 
133 ,27.1953 ,1.16599 ,2.84825 ,27.94699 
134 ,27.4360 ,1.16827 ,2.85509 ,28.01415 
135 ,27.6437 ,1.17049 ,2.83798 ,27.84625 
136 ,27.8356 ,1.17239 ,2.81745 ,27.64479 
137 ,28.0437 ,1.17448 ,2.80034 ,27.47689 
138 ,28.2359 ,1.17635 ,2.78322 ,27.30900 
139 ,28.4281 ,1.17826 ,2.77638 ,27.24185 
140 ,28.6202 ,1.18027 ,2.74558 ,26.93964 
141 ,28.8123 ,1.18219 ,2.75927 ,27.07395 
142 ,29.0042 ,1.18419 ,2.72163 ,26.70459 
143 ,29.2123 ,1.18603 ,2.70109 ,26.50312 
144 ,29.4044 ,1.18804 ,2.71136 ,26.60386 
145 ,29.6443 ,1.19034 ,2.67714 ,26.26807 
146 ,29.8526 ,1.19256 ,2.66003 ,26.10018 
147 ,30.0447 ,1.19451 ,2.65660 ,26.06661 
148 ,30.2689 ,1.19665 ,2.63607 ,25.86514 
149 ,30.4610 ,1.19864 ,2.60185 ,25.52935 
150 ,30.6690 ,1.20068 ,2.59843 ,25.49577 
151 ,30.8612 ,1.20267 ,2.56078 ,25.12641 
152 ,31.0533 ,1.20458 ,2.56763 ,25.19357 
153 ,31.2613 ,1.20668 ,2.53683 ,24.89136 
154 ,31.4535 ,1.20855 ,2.51972 ,24.72347 
155 ,31.6610 ,1.21070 ,2.50603 ,24.58916 
156 ,31.8701 ,1.21270 ,2.48892 ,24.42127 
157 ,32.0774 ,1.21480 ,2.47523 ,24.28696 
158 ,32.2695 ,1.21680 ,2.47523 ,24.28696 
159 ,32.4618 ,1.21868 ,2.44101 ,23.95117 
160 ,32.6539 ,1.22059 ,2.43416 ,23.88402 
161 ,32.8457 ,1.22248 ,2.42390 ,23.78328 
162 ,33.0537 ,1.22455 ,2.39994 ,23.54823 
163 ,33.2460 ,1.22650 ,2.39994 ,23.54823 
164 ,33.4540 ,1.22857 ,2.37599 ,23.31318 
165 ,33.6623 ,1.23069 ,2.35545 ,23.11171 
166 ,33.8539 ,1.23255 ,2.33834 ,22.94382 
167 ,34.0626 ,1.23461 ,2.33150 ,22.87667 
168 ,34.2863 ,1.23678 ,2.31097 ,22.67520 
169 ,34.4784 ,1.23881 ,2.29385 ,22.50731 
170 ,34.6707 ,1.24074 ,2.29385 ,22.50731 
171 ,34.8628 ,1.24267 ,2.25621 ,22.13794 
172 ,35.0709 ,1.24475 ,2.25963 ,22.17152 
173 ,35.2787 ,1.24675 ,2.21857 ,21.76858 
174 ,35.4870 ,1.24880 ,2.22199 ,21.80216 
175 ,35.6951 ,1.25095 ,2.19119 ,21.49996 
176 ,35.8870 ,1.25300 ,2.18092 ,21.39922 
177 ,36.0788 ,1.25480 ,2.16381 ,21.23133 
178 ,36.2714 ,1.25672 ,2.16381 ,21.23133 
179 ,36.4795 ,1.25879 ,2.13301 ,20.92912 
180 ,36.6872 ,1.26086 ,2.12275 ,20.82839 
181 ,36.8796 ,1.26278 ,2.08852 ,20.49261 
182 ,37.0877 ,1.26487 ,2.09879 ,20.59334 
183 ,37.2957 ,1.26697 ,2.06799 ,20.29114 
184 ,37.5039 ,1.26901 ,2.05088 ,20.12325 
185 ,37.6960 ,1.27097 ,2.05088 ,20.12325 
186 ,37.9041 ,1.27304 ,2.02693 ,19.88820 
187 ,38.1120 ,1.27507 ,2.01666 ,19.78746 
188 ,38.3361 ,1.27721 ,1.99955 ,19.61957 
189 ,38.5444 ,1.27946 ,1.97217 ,19.35094 
190 ,38.7521 ,1.28147 ,1.97217 ,19.35094 
191 ,38.9442 ,1.28348 ,1.94822 ,19.11590 
192 ,39.1361 ,1.28537 ,1.93795 ,19.01516 
193 ,39.3283 ,1.28731 ,1.93453 ,18.98158 
194 ,39.5204 ,1.28924 ,1.89688 ,18.61222 
195 ,39.7287 ,1.29131 ,1.90031 ,18.64580 
196 ,39.9209 ,1.29320 ,1.87293 ,18.37717 
197 ,40.1290 ,1.29527 ,1.86951 ,18.34360 
198 ,40.3530 ,1.29750 ,1.84897 ,18.14213 
199 ,40.5447 ,1.29948 ,1.82844 ,17.94066 
200 ,40.7528 ,1.30147 ,1.81475 ,17.80634 
201 ,40.9449 ,1.30345 ,1.80791 ,17.73919 
202 ,41.1374 ,1.30534 ,1.78395 ,17.50414 
203 ,41.3454 ,1.30740 ,1.78737 ,17.53772 
204 ,41.5531 ,1.30951 ,1.77026 ,17.36983 
205 ,41.7456 ,1.31148 ,1.74631 ,17.13478 
206 ,41.9377 ,1.31337 ,1.72578 ,16.93331 
207 ,42.1458 ,1.31540 ,1.72235 ,16.89973 
208 ,42.3378 ,1.31735 ,1.69498 ,16.63110 
209 ,42.5299 ,1.31929 ,1.70182 ,16.69826 
210 ,42.7218 ,1.32122 ,1.67102 ,16.39605 
211 ,42.9141 ,1.32308 ,1.67102 ,16.39605 
212 ,43.1219 ,1.32514 ,1.63338 ,16.02669 
213 ,43.2982 ,1.32709 ,1.63680 ,16.06027 
214 ,43.4901 ,1.32888 ,1.62995 ,15.99311 
215 ,43.6825 ,1.33082 ,1.58889 ,15.59018 
216 ,43.8904 ,1.33292 ,1.59231 ,15.62375 
217 ,44.0986 ,1.33500 ,1.56493 ,15.35513 
218 ,44.2902 ,1.33691 ,1.57520 ,15.45586 
219 ,44.4827 ,1.33879 ,1.54098 ,15.12008 
220 ,44.7229 ,1.34101 ,1.54782 ,15.18724 
221 ,44.9308 ,1.34337 ,1.52045 ,14.91861 
222 ,45.1230 ,1.34522 ,1.49649 ,14.68356 
223 ,45.3310 ,1.34723 ,1.50333 ,14.75072 
224 ,45.5388 ,1.34932 ,1.45885 ,14.31420 
225 ,45.7312 ,1.35127 ,1.47253 ,14.44851 
226 ,45.9230 ,1.35319 ,1.43831 ,14.11273 
227 ,46.1314 ,1.35526 ,1.42805 ,14.01199 
228 ,46.3395 ,1.35733 ,1.40751 ,13.81053 
229 ,46.5635 ,1.35959 ,1.40751 ,13.81053 
230 ,46.7557 ,1.36150 ,1.38698 ,13.60906 
231 ,46.9639 ,1.36365 ,1.36987 ,13.44116 
232 ,47.1558 ,1.36551 ,1.36645 ,13.40759 
233 ,47.3639 ,1.36761 ,1.33223 ,13.07180 
234 ,47.5720 ,1.36969 ,1.33223 ,13.07180 
235 ,47.7641 ,1.37159 ,1.31512 ,12.90391 
236 ,47.9722 ,1.37369 ,1.31512 ,12.90391 
237 ,48.1639 ,1.37566 ,1.28774 ,12.63528 
238 ,48.3728 ,1.37764 ,1.29458 ,12.70244 
239 ,48.5800 ,1.37980 ,1.25694 ,12.33308 
240 ,48.7724 ,1.38169 ,1.26378 ,12.40024 
241 ,48.9806 ,1.38376 ,1.23298 ,12.09803 
242 ,49.1726 ,1.38573 ,1.22956 ,12.06445 
243 ,49.3807 ,1.38777 ,1.20903 ,11.86298 
244 ,49.5888 ,1.38984 ,1.21245 ,11.89656 
245 ,49.7650 ,1.39175 ,1.17823 ,11.56078 
246 ,49.9730 ,1.39370 ,1.17823 ,11.56078 
247 ,50.1650 ,1.39557 ,1.15085 ,11.29215 
248 ,50.3727 ,1.39781 ,1.15770 ,11.35931 
249 ,50.5652 ,1.39963 ,1.12347 ,11.02353 
250 ,50.7733 ,1.40173 ,1.12347 ,11.02353 
251 ,50.9655 ,1.40363 ,1.08583 ,10.65416 
252 ,51.1576 ,1.40552 ,1.09952 ,10.78848 
253 ,51.3655 ,1.40759 ,1.07899 ,10.58701 
254 ,51.5734 ,1.40965 ,1.06530 ,10.45270 
255 ,51.7657 ,1.41161 ,1.04476 ,10.25123 
256 ,51.9575 ,1.41352 ,1.05503 ,10.35196 
257 ,52.1499 ,1.41545 ,1.02765 ,10.08333 
258 ,52.3420 ,1.41737 ,0.99685 ,9.78113 
259 ,52.5496 ,1.41941 ,1.01396 ,9.94902 
260 ,52.7421 ,1.42136 ,0.98317 ,9.64682 
261 ,52.9502 ,1.42345 ,0.96263 ,9.44535 
262 ,53.1422 ,1.42537 ,0.95579 ,9.37819 
263 ,53.3823 ,1.42757 ,0.95921 ,9.41177 
264 ,53.5900 ,1.42980 ,0.95237 ,9.34461 
265 ,53.7985 ,1.43190 ,0.90446 ,8.87451 
266 ,54.0063 ,1.43403 ,0.90103 ,8.84094 
267 ,54.1989 ,1.43590 ,0.90103 ,8.84094 
268 ,54.4066 ,1.43804 ,0.87366 ,8.57231 
269 ,54.6149 ,1.44008 ,0.87366 ,8.57231 
270 ,54.7909 ,1.44197 ,0.84970 ,8.33726 
271 ,54.9831 ,1.44378 ,0.84970 ,8.33726 
272 ,55.1911 ,1.44584 ,0.84286 ,8.27011 
273 ,55.4152 ,1.44802 ,0.83601 ,8.20295 
274 ,55.6393 ,1.45031 ,0.79837 ,7.83359 
275 ,55.8469 ,1.45240 ,0.79152 ,7.76643 
276 ,56.0395 ,1.45435 ,0.78810 ,7.73285 
277 ,56.2794 ,1.45659 ,0.76072 ,7.46423 
278 ,56.4716 ,1.45863 ,0.75388 ,7.39707 
279 ,56.6798 ,1.46072 ,0.74361 ,7.29633 
280 ,56.8876 ,1.46277 ,0.73335 ,7.19560 
281 ,57.0959 ,1.46493 ,0.71281 ,6.99413 
282 ,57.2877 ,1.46694 ,0.70939 ,6.96055 
283 ,57.4800 ,1.46875 ,0.69570 ,6.82624 
284 ,57.6719 ,1.47063 ,0.68544 ,6.72550 
285 ,57.8799 ,1.47270 ,0.67517 ,6.62477 
286 ,58.0878 ,1.47476 ,0.65806 ,6.45688 
287 ,58.2802 ,1.47675 ,0.64095 ,6.28899 
288 ,58.5043 ,1.47891 ,0.62726 ,6.15467 
289 ,58.7126 ,1.48101 ,0.61699 ,6.05394 
290 ,58.9045 ,1.48298 ,0.58619 ,5.75173 
291 ,59.1124 ,1.48509 ,0.59988 ,5.88605 
292 ,59.3208 ,1.48709 ,0.58619 ,5.75173 
293 ,59.5289 ,1.48917 ,0.57251 ,5.61742 
294 ,59.7210 ,1.49117 ,0.54855 ,5.38237 
295 ,59.9131 ,1.49303 ,0.57593 ,5.65100 
296 ,60.1050 ,1.49497 ,0.52459 ,5.14732 
297 ,60.3128 ,1.49697 ,0.53144 ,5.21448 
298 ,60.5052 ,1.49894 ,0.49722 ,4.87870 
299 ,60.6973 ,1.50089 ,0.51433 ,5.04659 
300 ,60.8891 ,1.50281 ,0.49380 ,4.84512 
301 ,61.0816 ,1.50472 ,0.46642 ,4.57649 
302 ,61.3212 ,1.50716 ,0.46642 ,4.57649 
303 ,61.5298 ,1.50917 ,0.46984 ,4.61007 
304 ,61.7378 ,1.51131 ,0.45273 ,4.44218 
305 ,61.9300 ,1.51319 ,0.43220 ,4.24071 
306 ,62.1219 ,1.51513 ,0.41851 ,4.10640 
307 ,62.2979 ,1.51698 ,0.40824 ,4.00566 
308 ,62.4897 ,1.51879 ,0.40482 ,3.97208 
309 ,62.6820 ,1.52074 ,0.38429 ,3.77061 
310 ,62.8902 ,1.52287 ,0.37402 ,3.66988 
311 ,63.0823 ,1.52473 ,0.36375 ,3.56914 
312 ,63.2747 ,1.52664 ,0.37060 ,3.63630 
313 ,63.4825 ,1.52877 ,0.33980 ,3.33410 
314 ,63.6586 ,1.53059 ,0.34322 ,3.36767 
315 ,63.8345 ,1.53237 ,0.31584 ,3.09905 
316 ,64.0265 ,1.53414 ,0.30558 ,2.99831 
317 ,64.2185 ,1.53609 ,0.29531 ,2.89758 
318 ,64.4109 ,1.53797 ,0.30558 ,2.99831 
319 ,64.6028 ,1.53992 ,0.25424 ,2.49464 
320 ,64.8431 ,1.54223 ,0.27478 ,2.69611 
321 ,65.0512 ,1.54446 ,0.24740 ,2.42748 
322 ,65.2427 ,1.54635 ,0.23371 ,2.29317 
323 ,65.4673 ,1.54854 ,0.23371 ,2.29317 
324 ,65.6594 ,1.55046 ,0.21660 ,2.12528 
325 ,65.8515 ,1.55238 ,0.22344 ,2.19243 
326 ,66.0434 ,1.55428 ,0.19607 ,1.92381 
327 ,66.2516 ,1.55642 ,0.18580 ,1.82307 
328 ,66.4438 ,1.55832 ,0.16527 ,1.62160 
329 ,66.6519 ,1.56039 ,0.18580 ,1.82307 
330 ,66.8596 ,1.56249 ,0.14473 ,1.42013 
331 ,67.0681 ,1.56458 ,0.14816 ,1.45371 
332 ,67.2600 ,1.56648 ,0.13789 ,1.35298 
333 ,67.4522 ,1.56843 ,0.13447 ,1.31940 
334 ,67.6439 ,1.57033 ,0.10367 ,1.01719 
335 ,67.8360 ,1.57224 ,0.12078 ,1.18508 
336 ,68.0283 ,1.57415 ,0.09682 ,0.95004 
337 ,68.2205 ,1.57610 ,0.08314 ,0.81572 
338 ,68.4603 ,1.57843 ,0.07287 ,0.71499 
339 ,68.6687 ,1.58057 ,0.05918 ,0.58067 
340 ,68.8443 ,1.58244 ,0.04891 ,0.47994 
341 ,69.0364 ,1.58422 ,0.06602 ,0.64783 
342 ,69.2447 ,1.58627 ,0.02838 ,0.27847 
343 ,69.4690 ,1.58852 ,0.02496 ,0.24489 
344 ,69.6771 ,1.59066 ,0.02154 ,0.21131 
345 ,69.8692 ,1.59258 ,-0.00584 ,-0.05731 
346 ,70.0771 ,1.59462 ,-0.00584 ,-0.05731 
347 ,70.2851 ,1.59678 ,-0.03322 ,-0.32594 
348 ,70.4773 ,1.59868 ,-0.01269 ,-0.12447 
349 ,70.6533 ,1.60051 ,-0.04691 ,-0.46025 
350 ,70.8453 ,1.60232 ,-0.05033 ,-0.49383 
351 ,71.0536 ,1.60445 ,-0.04691 ,-0.46025 
352 ,71.2613 ,1.60647 ,-0.05375 ,-0.52741 
353 ,71.4697 ,1.60853 ,-0.07771 ,-0.76246 
354 ,71.7098 ,1.61095 ,-0.09482 ,-0.93035 
355 ,71.9017 ,1.61289 ,-0.10508 ,-1.03108 
356 ,72.0938 ,1.61486 ,-0.10508 ,-1.03108 
357 ,72.3018 ,1.61694 ,-0.12562 ,-1.23255 
358 ,72.4938 ,1.61882 ,-0.11535 ,-1.13182 
359 ,72.7020 ,1.62088 ,-0.13246 ,-1.29971 
360 ,72.9103 ,1.62293 ,-0.15642 ,-1.53476 
361 ,73.1185 ,1.62503 ,-0.16326 ,-1.60191 
362 ,73.3264 ,1.62714 ,-0.18037 ,-1.76981 
363 ,73.5340 ,1.62924 ,-0.16668 ,-1.63549 
364 ,73.7106 ,1.63106 ,-0.19064 ,-1.87054 
365 ,73.9027 ,1.63287 ,-0.19748 ,-1.93770 
366 ,74.1108 ,1.63496 ,-0.20433 ,-2.00485 
367 ,74.3188 ,1.63702 ,-0.21802 ,-2.13917 
368 ,74.5269 ,1.63911 ,-0.23170 ,-2.27348 
369 ,74.7349 ,1.64116 ,-0.23513 ,-2.30706 
370 ,74.9591 ,1.64342 ,-0.24539 ,-2.40779 
371 ,75.1512 ,1.64539 ,-0.25908 ,-2.54211 
372 ,75.3432 ,1.64742 ,-0.25908 ,-2.54211 
373 ,75.5353 ,1.64920 ,-0.26593 ,-2.60926 
374 ,75.7429 ,1.65121 ,-0.30357 ,-2.97863 
375 ,75.9354 ,1.65320 ,-0.28646 ,-2.81073 
376 ,76.1275 ,1.65514 ,-0.31384 ,-3.07936 
377 ,76.3356 ,1.65721 ,-0.31726 ,-3.11294 
378 ,76.5436 ,1.65921 ,-0.34464 ,-3.38156 
379 ,76.7519 ,1.66134 ,-0.33437 ,-3.28083 
380 ,76.9599 ,1.66345 ,-0.35148 ,-3.44872 
381 ,77.2001 ,1.66590 ,-0.33437 ,-3.28083 
382 ,77.3921 ,1.66781 ,-0.36517 ,-3.58303 
383 ,77.6002 ,1.66981 ,-0.37201 ,-3.65019 
384 ,77.7923 ,1.67180 ,-0.39255 ,-3.85166 
385 ,78.0003 ,1.67378 ,-0.39597 ,-3.88524 
386 ,78.1925 ,1.67577 ,-0.39597 ,-3.88524 
387 ,78.3843 ,1.67771 ,-0.40966 ,-4.01955 
388 ,78.5767 ,1.67961 ,-0.40966 ,-4.01955 
389 ,78.7846 ,1.68168 ,-0.43703 ,-4.28818 
390 ,78.9923 ,1.68372 ,-0.45072 ,-4.42249 
391 ,79.2006 ,1.68584 ,-0.45414 ,-4.45607 
392 ,79.3929 ,1.68776 ,-0.48152 ,-4.72470 
393 ,79.6010 ,1.68985 ,-0.47810 ,-4.69112 
394 ,79.8090 ,1.69195 ,-0.50548 ,-4.95975 
395 ,80.0011 ,1.69387 ,-0.48837 ,-4.79185 
396 ,80.2091 ,1.69591 ,-0.51232 ,-5.02690 
397 ,80.4332 ,1.69817 ,-0.51574 ,-5.06048 
398 ,80.6415 ,1.70025 ,-0.52601 ,-5.16121 
399 ,80.8495 ,1.70232 ,-0.55339 ,-5.42984 
400 ,81.0416 ,1.70425 ,-0.53285 ,-5.22837 
401 ,81.2494 ,1.70635 ,-0.57050 ,-5.59773 
402 ,81.4417 ,1.70826 ,-0.55681 ,-5.46342 
403 ,81.6178 ,1.71012 ,-0.56708 ,-5.56415 
404 ,81.8257 ,1.71206 ,-0.59788 ,-5.86636 
405 ,82.0180 ,1.71398 ,-0.57392 ,-5.63131 
406 ,82.2259 ,1.71605 ,-0.61156 ,-6.00067 
407 ,82.4340 ,1.71808 ,-0.59788 ,-5.86636 
408 ,82.6422 ,1.72022 ,-0.62183 ,-6.10141 
409 ,82.8501 ,1.72229 ,-0.62525 ,-6.13499 
410 ,83.0583 ,1.72436 ,-0.62868 ,-6.16856 
411 ,83.2500 ,1.72640 ,-0.64921 ,-6.37003 
412 ,83.4423 ,1.72822 ,-0.65605 ,-6.43719 
413 ,83.6345 ,1.73016 ,-0.65263 ,-6.40361 
414 ,83.8750 ,1.73241 ,-0.66632 ,-6.53793 
415 ,84.0828 ,1.73465 ,-0.66632 ,-6.53793 
416 ,84.2908 ,1.73669 ,-0.69027 ,-6.77297 
417 ,84.4985 ,1.73879 ,-0.68685 ,-6.73940 
418 ,84.6908 ,1.74074 ,-0.72450 ,-7.10876 
419 ,84.8989 ,1.74280 ,-0.69712 ,-6.84013 
420 ,85.0910 ,1.74474 ,-0.73134 ,-7.17591 
421 ,85.3310 ,1.74700 ,-0.72792 ,-7.14233 
422 ,85.5233 ,1.74902 ,-0.75530 ,-7.41096 
423 ,85.7470 ,1.75127 ,-0.76898 ,-7.54527 
424 ,85.9553 ,1.75331 ,-0.75530 ,-7.41096 
425 ,86.1637 ,1.75539 ,-0.77925 ,-7.64601 
426 ,86.3721 ,1.75752 ,-0.79294 ,-7.78032 
427 ,86.5637 ,1.75950 ,-0.79294 ,-7.78032 
428 ,86.7393 ,1.76133 ,-0.79294 ,-7.78032 
429 ,86.9318 ,1.76315 ,-0.81005 ,-7.94821 
430 ,87.1400 ,1.76523 ,-0.81347 ,-7.98179 
431 ,87.3474 ,1.76730 ,-0.81689 ,-8.01537 
432 ,87.5397 ,1.76924 ,-0.81347 ,-7.98179 
433 ,87.7478 ,1.77125 ,-0.84769 ,-8.31758 
434 ,87.9398 ,1.77329 ,-0.84427 ,-8.28400 
435 ,88.1320 ,1.77510 ,-0.86481 ,-8.48547 
436 ,88.3080 ,1.77701 ,-0.87165 ,-8.55262 
437 ,88.5001 ,1.77876 ,-0.87165 ,-8.55262 
438 ,88.7081 ,1.78083 ,-0.89903 ,-8.82125 
439 ,88.9162 ,1.78293 ,-0.88534 ,-8.68694 
440 ,89.1408 ,1.78503 ,-0.92298 ,-9.05630 
441 ,89.3645 ,1.78744 ,-0.92298 ,-9.05630 
442 ,89.5729 ,1.78946 ,-0.90929 ,-8.92198 
443 ,89.7810 ,1.79148 ,-0.93325 ,-9.15703 
444 ,89.9888 ,1.79370 ,-0.95036 ,-9.32492 
445 ,90.1973 ,1.79578 ,-0.94351 ,-9.25777 
446 ,90.4053 ,1.79784 ,-0.96747 ,-9.49282 
447 ,90.5973 ,1.79975 ,-0.94694 ,-9.29135 
448 ,90.7894 ,1.80171 ,-0.98800 ,-9.69429 
449 ,90.9816 ,1.80364 ,-0.98458 ,-9.66071 
450 ,91.1732 ,1.80550 ,-1.00169 ,-9.82860 
451 ,91.3657 ,1.80741 ,-1.02222 ,-10.03007 
452 ,91.5578 ,1.80935 ,-1.00511 ,-9.86218 
453 ,91.7656 ,1.81145 ,-1.01880 ,-9.99649 
454 ,91.9579 ,1.81337 ,-1.02565 ,-10.06365 
455 ,92.1657 ,1.81549 ,-1.03934 ,-10.19796 
456 ,92.3738 ,1.81748 ,-1.03934 ,-10.19796 
457 ,92.5981 ,1.81971 ,-1.04618 ,-10.26512 
458 ,92.8060 ,1.82186 ,-1.07356 ,-10.53374 
459 ,93.0139 ,1.82394 ,-1.06671 ,-10.46659 
460 ,93.2065 ,1.82587 ,-1.09409 ,-10.73521 
461 ,93.3985 ,1.82778 ,-1.08040 ,-10.60090 
462 ,93.6061 ,1.82979 ,-1.09409 ,-10.73521 
