Data stamp = , 02-05-2022 14:43:37 575

Calibration Values: 
Slope = , 26.54 , g/V 
Offset Voltage at no contact = , -0.501760 , V 

No , Time , Stage Position ,   Mass , Force 
   ,  (s) ,      (mm)      ,   (g)  , (mN)  

1 ,0.0000 ,0.94960 ,5.01106 ,49.16848 
2 ,0.2148 ,0.94963 ,5.00421 ,49.10132 
3 ,0.8231 ,0.95222 ,5.01106 ,49.16848 
4 ,1.0312 ,0.95461 ,4.98710 ,48.93343 
5 ,1.2552 ,0.95678 ,5.01448 ,49.20205 
6 ,1.4634 ,0.95891 ,4.97341 ,48.79911 
7 ,1.6716 ,0.96101 ,4.95288 ,48.59764 
8 ,1.8795 ,0.96311 ,4.93919 ,48.46333 
9 ,2.0717 ,0.96514 ,4.91181 ,48.19471 
10 ,2.2799 ,0.96713 ,4.90155 ,48.09397 
11 ,2.5038 ,0.96926 ,4.86390 ,47.72461 
12 ,2.7120 ,0.97139 ,4.85706 ,47.65745 
13 ,2.9042 ,0.97344 ,4.84679 ,47.55672 
14 ,3.1123 ,0.97547 ,4.79888 ,47.08662 
15 ,3.3203 ,0.97755 ,4.80230 ,47.12020 
16 ,3.5124 ,0.97951 ,4.77835 ,46.88515 
17 ,3.7205 ,0.98153 ,4.77150 ,46.81800 
18 ,3.9285 ,0.98359 ,4.73044 ,46.41506 
19 ,4.1205 ,0.98566 ,4.70990 ,46.21359 
20 ,4.3286 ,0.98767 ,4.67226 ,45.84422 
21 ,4.5366 ,0.98965 ,4.67911 ,45.91138 
22 ,4.7448 ,0.99174 ,4.64488 ,45.57560 
23 ,4.9529 ,0.99385 ,4.62435 ,45.37413 
24 ,5.1609 ,0.99593 ,4.62435 ,45.37413 
25 ,5.3691 ,0.99797 ,4.56617 ,44.80330 
26 ,5.5772 ,1.00001 ,4.56960 ,44.83688 
27 ,5.7852 ,1.00214 ,4.55591 ,44.70256 
28 ,5.9933 ,1.00426 ,4.51484 ,44.29962 
29 ,6.2173 ,1.00638 ,4.51142 ,44.26604 
30 ,6.4255 ,1.00859 ,4.50115 ,44.16531 
31 ,6.6335 ,1.01064 ,4.47378 ,43.89668 
32 ,6.8417 ,1.01271 ,4.44640 ,43.62806 
33 ,7.0496 ,1.01482 ,4.42244 ,43.39301 
34 ,7.2578 ,1.01686 ,4.39849 ,43.15796 
35 ,7.4659 ,1.01893 ,4.36427 ,42.82218 
36 ,7.6742 ,1.02102 ,4.35400 ,42.72144 
37 ,7.8823 ,1.02313 ,4.33347 ,42.51997 
38 ,8.0903 ,1.02520 ,4.30951 ,42.28492 
39 ,8.2984 ,1.02726 ,4.30951 ,42.28492 
40 ,8.5065 ,1.02936 ,4.26502 ,41.84841 
41 ,8.6825 ,1.03128 ,4.26845 ,41.88198 
42 ,8.8905 ,1.03326 ,4.21369 ,41.34473 
43 ,9.0987 ,1.03527 ,4.22396 ,41.44547 
44 ,9.3067 ,1.03734 ,4.20685 ,41.27758 
45 ,9.5150 ,1.03943 ,4.17262 ,40.94179 
46 ,9.7228 ,1.04157 ,4.17605 ,40.97537 
47 ,9.9312 ,1.04360 ,4.13498 ,40.57243 
48 ,10.1392 ,1.04568 ,4.12814 ,40.50527 
49 ,10.3472 ,1.04775 ,4.09049 ,40.13591 
50 ,10.5552 ,1.04980 ,4.07680 ,40.00160 
51 ,10.7633 ,1.05195 ,4.07338 ,39.96802 
52 ,10.9713 ,1.05399 ,4.02547 ,39.49793 
53 ,11.1794 ,1.05609 ,4.03232 ,39.56508 
54 ,11.3875 ,1.05819 ,3.99467 ,39.19572 
55 ,11.6118 ,1.06043 ,3.97414 ,38.99425 
56 ,11.8199 ,1.06253 ,3.96387 ,38.89352 
57 ,12.0279 ,1.06458 ,3.94334 ,38.69205 
58 ,12.2200 ,1.06655 ,3.91938 ,38.45700 
59 ,12.4280 ,1.06858 ,3.90227 ,38.28911 
60 ,12.6360 ,1.07062 ,3.87490 ,38.02048 
61 ,12.8442 ,1.07269 ,3.86463 ,37.91975 
62 ,13.0521 ,1.07485 ,3.84410 ,37.71828 
63 ,13.2604 ,1.07684 ,3.83041 ,37.58396 
64 ,13.4525 ,1.07888 ,3.79961 ,37.28176 
65 ,13.6445 ,1.08081 ,3.78934 ,37.18102 
66 ,13.8525 ,1.08277 ,3.76196 ,36.91240 
67 ,14.0605 ,1.08483 ,3.74828 ,36.77808 
68 ,14.2528 ,1.08694 ,3.73801 ,36.67735 
69 ,14.4609 ,1.08888 ,3.71748 ,36.47588 
70 ,14.6690 ,1.09095 ,3.67983 ,36.10652 
71 ,14.8609 ,1.09296 ,3.67299 ,36.03936 
72 ,15.0530 ,1.09489 ,3.64561 ,35.77073 
73 ,15.2610 ,1.09694 ,3.62850 ,35.60284 
74 ,15.4693 ,1.09895 ,3.60797 ,35.40137 
75 ,15.6611 ,1.10099 ,3.57717 ,35.09917 
76 ,15.8854 ,1.10319 ,3.58059 ,35.13275 
77 ,16.0935 ,1.10518 ,3.55663 ,34.89770 
78 ,16.3014 ,1.10726 ,3.54295 ,34.76338 
79 ,16.5096 ,1.10938 ,3.50872 ,34.42760 
80 ,16.7177 ,1.11146 ,3.50530 ,34.39402 
81 ,16.9258 ,1.11353 ,3.48819 ,34.22613 
82 ,17.1338 ,1.11560 ,3.44370 ,33.78961 
83 ,17.3418 ,1.11770 ,3.44028 ,33.75604 
84 ,17.5500 ,1.11975 ,3.42659 ,33.62172 
85 ,17.7581 ,1.12182 ,3.39237 ,33.28594 
86 ,17.9341 ,1.12375 ,3.39579 ,33.31952 
87 ,18.1423 ,1.12569 ,3.36842 ,33.05089 
88 ,18.3502 ,1.12780 ,3.35473 ,32.91658 
89 ,18.5745 ,1.12994 ,3.32735 ,32.64795 
90 ,18.7826 ,1.13201 ,3.32735 ,32.64795 
91 ,18.9907 ,1.13414 ,3.30339 ,32.41290 
92 ,19.1827 ,1.13614 ,3.27602 ,32.14428 
93 ,19.3908 ,1.13818 ,3.25548 ,31.94281 
94 ,19.5988 ,1.14028 ,3.23495 ,31.74134 
95 ,19.8069 ,1.14230 ,3.22811 ,31.67418 
96 ,19.9990 ,1.14430 ,3.19388 ,31.33840 
97 ,20.2071 ,1.14631 ,3.20073 ,31.40555 
98 ,20.4150 ,1.14838 ,3.16309 ,31.03619 
99 ,20.6392 ,1.15068 ,3.14255 ,30.83472 
100 ,20.8474 ,1.15272 ,3.14597 ,30.86830 
101 ,21.0553 ,1.15481 ,3.11860 ,30.59968 
102 ,21.2635 ,1.15683 ,3.10491 ,30.46536 
103 ,21.4716 ,1.15895 ,3.08095 ,30.23031 
104 ,21.6796 ,1.16106 ,3.06726 ,30.09600 
105 ,21.8876 ,1.16313 ,3.05015 ,29.92811 
106 ,22.0957 ,1.16520 ,3.02620 ,29.69306 
107 ,22.3039 ,1.16728 ,3.01251 ,29.55875 
108 ,22.5119 ,1.16935 ,2.99882 ,29.42444 
109 ,22.7200 ,1.17142 ,2.98171 ,29.25654 
110 ,22.9120 ,1.17341 ,2.97487 ,29.18939 
111 ,23.1042 ,1.17534 ,2.94064 ,28.85360 
112 ,23.2964 ,1.17724 ,2.91669 ,28.61856 
113 ,23.4885 ,1.17919 ,2.93380 ,28.78645 
114 ,23.6966 ,1.18122 ,2.89273 ,28.38351 
115 ,23.9046 ,1.18327 ,2.89616 ,28.41709 
116 ,24.1608 ,1.18587 ,2.85851 ,28.04772 
117 ,24.3687 ,1.18792 ,2.85509 ,28.01415 
118 ,24.5769 ,1.18995 ,2.81402 ,27.61121 
119 ,24.7850 ,1.19208 ,2.82429 ,27.71194 
120 ,24.9771 ,1.19407 ,2.79349 ,27.40974 
121 ,25.1850 ,1.19607 ,2.79007 ,27.37616 
122 ,25.3931 ,1.19817 ,2.76269 ,27.10753 
123 ,25.6013 ,1.20022 ,2.76269 ,27.10753 
124 ,25.8094 ,1.20234 ,2.74558 ,26.93964 
125 ,26.0175 ,1.20442 ,2.70794 ,26.57028 
126 ,26.2256 ,1.20651 ,2.69767 ,26.46954 
127 ,26.4336 ,1.20853 ,2.67029 ,26.20092 
128 ,26.6416 ,1.21066 ,2.66345 ,26.13376 
129 ,26.8337 ,1.21269 ,2.66687 ,26.16734 
130 ,27.0419 ,1.21464 ,2.63607 ,25.86514 
131 ,27.2339 ,1.21669 ,2.62923 ,25.79798 
132 ,27.4420 ,1.21866 ,2.60869 ,25.59651 
133 ,27.6502 ,1.22075 ,2.60185 ,25.52935 
134 ,27.8582 ,1.22274 ,2.56763 ,25.19357 
135 ,28.0663 ,1.22487 ,2.57447 ,25.26073 
136 ,28.2582 ,1.22685 ,2.53341 ,24.85779 
137 ,28.4664 ,1.22889 ,2.53683 ,24.89136 
138 ,28.6745 ,1.23092 ,2.50945 ,24.62274 
139 ,28.8826 ,1.23303 ,2.48892 ,24.42127 
140 ,29.0907 ,1.23513 ,2.47865 ,24.32053 
141 ,29.2827 ,1.23717 ,2.45812 ,24.11906 
142 ,29.4908 ,1.23910 ,2.45470 ,24.08549 
143 ,29.6990 ,1.24124 ,2.43074 ,23.85044 
144 ,29.9071 ,1.24331 ,2.41705 ,23.71612 
145 ,30.1151 ,1.24532 ,2.39652 ,23.51465 
146 ,30.3232 ,1.24745 ,2.38968 ,23.44750 
147 ,30.5315 ,1.24950 ,2.36914 ,23.24603 
148 ,30.7394 ,1.25160 ,2.34861 ,23.04456 
149 ,30.9154 ,1.25356 ,2.34861 ,23.04456 
150 ,31.1235 ,1.25545 ,2.32465 ,22.80951 
151 ,31.3316 ,1.25754 ,2.30412 ,22.60804 
152 ,31.5397 ,1.25958 ,2.28701 ,22.44015 
153 ,31.7478 ,1.26163 ,2.28017 ,22.37299 
154 ,31.9557 ,1.26374 ,2.25963 ,22.17152 
155 ,32.1479 ,1.26579 ,2.24252 ,22.00363 
156 ,32.3400 ,1.26765 ,2.22541 ,21.83574 
157 ,32.5320 ,1.26962 ,2.22541 ,21.83574 
158 ,32.7402 ,1.27160 ,2.19461 ,21.53353 
159 ,32.9482 ,1.27364 ,2.19119 ,21.49996 
160 ,33.1563 ,1.27574 ,2.17066 ,21.29849 
161 ,33.3644 ,1.27781 ,2.15355 ,21.13059 
162 ,33.5726 ,1.27991 ,2.13986 ,20.99628 
163 ,33.7805 ,1.28201 ,2.11932 ,20.79481 
164 ,33.9886 ,1.28411 ,2.10564 ,20.66050 
165 ,34.1967 ,1.28619 ,2.08852 ,20.49261 
166 ,34.4049 ,1.28825 ,2.08168 ,20.42545 
167 ,34.6129 ,1.29032 ,2.07141 ,20.32472 
168 ,34.8210 ,1.29241 ,2.04061 ,20.02251 
169 ,35.0293 ,1.29448 ,2.03377 ,19.95535 
170 ,35.2372 ,1.29655 ,2.00639 ,19.68673 
171 ,35.4454 ,1.29865 ,2.00982 ,19.72031 
172 ,35.6534 ,1.30069 ,1.96533 ,19.28379 
173 ,35.8614 ,1.30276 ,1.96190 ,19.25021 
174 ,36.0695 ,1.30485 ,1.95848 ,19.21663 
175 ,36.2774 ,1.30696 ,1.91057 ,18.74654 
176 ,36.4856 ,1.30906 ,1.92084 ,18.84727 
177 ,36.6937 ,1.31110 ,1.90373 ,18.67938 
178 ,36.9017 ,1.31319 ,1.88319 ,18.47791 
179 ,37.1099 ,1.31528 ,1.87977 ,18.44433 
180 ,37.3180 ,1.31738 ,1.84897 ,18.14213 
181 ,37.5261 ,1.31945 ,1.84555 ,18.10855 
182 ,37.7342 ,1.32152 ,1.83186 ,17.97423 
183 ,37.9423 ,1.32362 ,1.80791 ,17.73919 
184 ,38.1503 ,1.32569 ,1.81817 ,17.83992 
185 ,38.3743 ,1.32785 ,1.77711 ,17.43698 
186 ,38.5823 ,1.33008 ,1.75315 ,17.20193 
187 ,38.7906 ,1.33207 ,1.75657 ,17.23551 
188 ,38.9987 ,1.33417 ,1.71893 ,16.86615 
189 ,39.2068 ,1.33623 ,1.72920 ,16.96689 
190 ,39.4149 ,1.33828 ,1.70866 ,16.76542 
191 ,39.6227 ,1.34038 ,1.68471 ,16.53037 
192 ,39.8310 ,1.34247 ,1.69498 ,16.63110 
193 ,40.0391 ,1.34455 ,1.65391 ,16.22816 
194 ,40.2470 ,1.34662 ,1.64707 ,16.16101 
195 ,40.4552 ,1.34869 ,1.62311 ,15.92596 
196 ,40.6633 ,1.35079 ,1.62311 ,15.92596 
197 ,40.8715 ,1.35287 ,1.60258 ,15.72449 
198 ,41.0635 ,1.35491 ,1.59231 ,15.62375 
199 ,41.2718 ,1.35685 ,1.57520 ,15.45586 
200 ,41.5116 ,1.35911 ,1.55809 ,15.28797 
201 ,41.7199 ,1.36143 ,1.52387 ,14.95219 
202 ,41.9279 ,1.36354 ,1.51018 ,14.81787 
203 ,42.1361 ,1.36550 ,1.51360 ,14.85145 
204 ,42.3440 ,1.36760 ,1.49307 ,14.64998 
205 ,42.5522 ,1.36968 ,1.49307 ,14.64998 
206 ,42.7602 ,1.37176 ,1.46569 ,14.38136 
207 ,42.9682 ,1.37385 ,1.47596 ,14.48209 
208 ,43.1764 ,1.37589 ,1.43489 ,14.07915 
209 ,43.3845 ,1.37797 ,1.42120 ,13.94484 
210 ,43.5926 ,1.38009 ,1.42462 ,13.97842 
211 ,43.8006 ,1.38217 ,1.38698 ,13.60906 
212 ,44.0086 ,1.38428 ,1.38356 ,13.57548 
213 ,44.2167 ,1.38633 ,1.35960 ,13.34043 
214 ,44.4247 ,1.38839 ,1.35960 ,13.34043 
215 ,44.6489 ,1.39068 ,1.33565 ,13.10538 
216 ,44.8570 ,1.39272 ,1.31169 ,12.87033 
217 ,45.0651 ,1.39482 ,1.30485 ,12.80318 
218 ,45.2732 ,1.39694 ,1.29800 ,12.73602 
219 ,45.4813 ,1.39896 ,1.27747 ,12.53455 
220 ,45.6893 ,1.40105 ,1.28089 ,12.56813 
221 ,45.8974 ,1.40310 ,1.23298 ,12.09803 
222 ,46.1054 ,1.40520 ,1.24325 ,12.19877 
223 ,46.3135 ,1.40728 ,1.23641 ,12.13161 
224 ,46.5217 ,1.40938 ,1.21587 ,11.93014 
225 ,46.7298 ,1.41144 ,1.20903 ,11.86298 
226 ,46.9378 ,1.41354 ,1.16796 ,11.46004 
227 ,47.1459 ,1.41556 ,1.16796 ,11.46004 
228 ,47.3539 ,1.41768 ,1.17481 ,11.52720 
229 ,47.5621 ,1.41975 ,1.14058 ,11.19142 
230 ,47.7701 ,1.42186 ,1.13716 ,11.15784 
231 ,47.9783 ,1.42393 ,1.11321 ,10.92279 
232 ,48.1863 ,1.42600 ,1.10294 ,10.82206 
233 ,48.3944 ,1.42807 ,1.09610 ,10.75490 
234 ,48.6025 ,1.43026 ,1.06187 ,10.41912 
235 ,48.8105 ,1.43225 ,1.06187 ,10.41912 
236 ,49.0186 ,1.43434 ,1.04819 ,10.28480 
237 ,49.2268 ,1.43639 ,1.04819 ,10.28480 
238 ,49.4350 ,1.43848 ,1.03108 ,10.11691 
239 ,49.6429 ,1.44053 ,1.01396 ,9.94902 
240 ,49.8511 ,1.44265 ,1.01054 ,9.91544 
241 ,50.0590 ,1.44470 ,0.98659 ,9.68039 
242 ,50.2670 ,1.44683 ,0.97632 ,9.57966 
243 ,50.4911 ,1.44900 ,0.95579 ,9.37819 
244 ,50.6992 ,1.45116 ,0.94552 ,9.27745 
245 ,50.9073 ,1.45324 ,0.93868 ,9.21030 
246 ,51.0994 ,1.45515 ,0.90788 ,8.90809 
247 ,51.3076 ,1.45721 ,0.92157 ,9.04241 
248 ,51.5156 ,1.45929 ,0.89419 ,8.77378 
249 ,51.7238 ,1.46135 ,0.88392 ,8.67305 
250 ,51.9319 ,1.46346 ,0.87366 ,8.57231 
251 ,52.1400 ,1.46553 ,0.85997 ,8.43800 
252 ,52.3481 ,1.46758 ,0.85654 ,8.40442 
253 ,52.5401 ,1.46958 ,0.83259 ,8.16937 
254 ,52.7482 ,1.47161 ,0.82917 ,8.13579 
255 ,52.9562 ,1.47375 ,0.81890 ,8.03506 
256 ,53.1645 ,1.47580 ,0.79495 ,7.80001 
257 ,53.3723 ,1.47783 ,0.78126 ,7.66570 
258 ,53.5646 ,1.47986 ,0.76072 ,7.46423 
259 ,53.7725 ,1.48184 ,0.77441 ,7.59854 
260 ,53.9806 ,1.48394 ,0.73677 ,7.22918 
261 ,54.1728 ,1.48591 ,0.74704 ,7.32991 
262 ,54.3650 ,1.48784 ,0.72308 ,7.09486 
263 ,54.5729 ,1.48986 ,0.71966 ,7.06129 
264 ,54.7811 ,1.49194 ,0.69570 ,6.82624 
265 ,54.9730 ,1.49389 ,0.68886 ,6.75908 
266 ,55.1973 ,1.49606 ,0.66833 ,6.55761 
267 ,55.4053 ,1.49816 ,0.66833 ,6.55761 
268 ,55.5973 ,1.50016 ,0.65121 ,6.38972 
269 ,55.7896 ,1.50204 ,0.64095 ,6.28899 
270 ,55.9975 ,1.50407 ,0.62384 ,6.12109 
271 ,56.2056 ,1.50612 ,0.62726 ,6.15467 
272 ,56.3978 ,1.50821 ,0.61357 ,6.02036 
273 ,56.5897 ,1.51007 ,0.58277 ,5.71815 
274 ,56.7818 ,1.51205 ,0.56566 ,5.55026 
275 ,56.9899 ,1.51396 ,0.58277 ,5.71815 
276 ,57.1819 ,1.51597 ,0.55539 ,5.44953 
277 ,57.3901 ,1.51799 ,0.56224 ,5.51668 
278 ,57.5981 ,1.52011 ,0.52117 ,5.11375 
279 ,57.8063 ,1.52215 ,0.52459 ,5.14732 
280 ,58.0944 ,1.52465 ,0.51433 ,5.04659 
281 ,58.3025 ,1.52714 ,0.49037 ,4.81154 
282 ,58.5106 ,1.52924 ,0.48695 ,4.77796 
283 ,58.7028 ,1.53116 ,0.46984 ,4.61007 
284 ,58.9108 ,1.53325 ,0.46642 ,4.57649 
285 ,59.1028 ,1.53513 ,0.43220 ,4.24071 
286 ,59.2949 ,1.53705 ,0.44931 ,4.40860 
287 ,59.4869 ,1.53902 ,0.41509 ,4.07282 
288 ,59.6952 ,1.54102 ,0.41851 ,4.10640 
289 ,59.8870 ,1.54304 ,0.39455 ,3.87135 
290 ,60.0793 ,1.54495 ,0.39113 ,3.83777 
291 ,60.2874 ,1.54692 ,0.39455 ,3.87135 
292 ,60.4795 ,1.54900 ,0.36375 ,3.56914 
293 ,60.6875 ,1.55097 ,0.36375 ,3.56914 
294 ,60.8955 ,1.55300 ,0.36033 ,3.53557 
295 ,61.1036 ,1.55512 ,0.33295 ,3.26694 
296 ,61.3118 ,1.55721 ,0.32953 ,3.23336 
297 ,61.5199 ,1.55932 ,0.31584 ,3.09905 
298 ,61.7117 ,1.56132 ,0.29531 ,2.89758 
299 ,61.9038 ,1.56317 ,0.27478 ,2.69611 
300 ,62.0962 ,1.56511 ,0.28504 ,2.79684 
301 ,62.3040 ,1.56714 ,0.25424 ,2.49464 
302 ,62.5121 ,1.56928 ,0.27135 ,2.66253 
303 ,62.7362 ,1.57135 ,0.26451 ,2.59537 
304 ,62.9603 ,1.57378 ,0.23371 ,2.29317 
305 ,63.1843 ,1.57595 ,0.20633 ,2.02454 
306 ,63.3765 ,1.57791 ,0.22687 ,2.22601 
307 ,63.5846 ,1.57996 ,0.19607 ,1.92381 
308 ,63.7926 ,1.58209 ,0.19949 ,1.95738 
309 ,64.0007 ,1.58413 ,0.18580 ,1.82307 
310 ,64.2089 ,1.58611 ,0.16185 ,1.58802 
311 ,64.4169 ,1.58828 ,0.16185 ,1.58802 
312 ,64.6250 ,1.59032 ,0.13447 ,1.31940 
313 ,64.8171 ,1.59225 ,0.13789 ,1.35298 
314 ,64.9932 ,1.59416 ,0.12762 ,1.25224 
315 ,65.2016 ,1.59608 ,0.11736 ,1.15151 
316 ,65.4094 ,1.59817 ,0.10709 ,1.05077 
317 ,65.6014 ,1.60012 ,0.10367 ,1.01719 
318 ,65.8096 ,1.60220 ,0.08998 ,0.88288 
319 ,66.0176 ,1.60424 ,0.07629 ,0.74857 
320 ,66.2258 ,1.60636 ,0.05234 ,0.51352 
321 ,66.4339 ,1.60840 ,0.04891 ,0.47994 
322 ,66.6740 ,1.61067 ,0.02496 ,0.24489 
323 ,66.8821 ,1.61289 ,0.01469 ,0.14416 
324 ,67.0902 ,1.61500 ,0.01127 ,0.11058 
325 ,67.2981 ,1.61707 ,0.01127 ,0.11058 
326 ,67.5062 ,1.61911 ,-0.01269 ,-0.12447 
327 ,67.7144 ,1.62120 ,-0.00926 ,-0.09089 
328 ,67.9225 ,1.62332 ,-0.05375 ,-0.52741 
329 ,68.1305 ,1.62536 ,-0.03322 ,-0.32594 
330 ,68.3225 ,1.62740 ,-0.03664 ,-0.35952 
331 ,68.5308 ,1.62937 ,-0.06060 ,-0.59457 
332 ,68.7229 ,1.63141 ,-0.06402 ,-0.62814 
333 ,68.9309 ,1.63334 ,-0.08455 ,-0.82961 
334 ,69.1389 ,1.63545 ,-0.09482 ,-0.93035 
335 ,69.3470 ,1.63751 ,-0.10508 ,-1.03108 
336 ,69.5551 ,1.63963 ,-0.10166 ,-0.99751 
337 ,69.7632 ,1.64166 ,-0.13931 ,-1.36687 
338 ,69.9712 ,1.64377 ,-0.12562 ,-1.23255 
339 ,70.1793 ,1.64583 ,-0.13931 ,-1.36687 
340 ,70.3714 ,1.64790 ,-0.15984 ,-1.56834 
341 ,70.5795 ,1.64987 ,-0.17695 ,-1.73623 
342 ,70.7877 ,1.65192 ,-0.18379 ,-1.80338 
343 ,70.9957 ,1.65401 ,-0.18037 ,-1.76981 
344 ,71.2038 ,1.65608 ,-0.20775 ,-2.03843 
345 ,71.4119 ,1.65812 ,-0.20090 ,-1.97128 
346 ,71.6520 ,1.66039 ,-0.22828 ,-2.23990 
347 ,71.8602 ,1.66263 ,-0.22828 ,-2.23990 
348 ,72.0522 ,1.66475 ,-0.25224 ,-2.47495 
349 ,72.2442 ,1.66663 ,-0.25908 ,-2.54211 
350 ,72.4364 ,1.66842 ,-0.25224 ,-2.47495 
351 ,72.6283 ,1.67048 ,-0.26935 ,-2.64284 
352 ,72.8364 ,1.67234 ,-0.27277 ,-2.67642 
353 ,73.0446 ,1.67448 ,-0.29330 ,-2.87789 
354 ,73.2525 ,1.67655 ,-0.28304 ,-2.77716 
355 ,73.4448 ,1.67862 ,-0.30699 ,-3.01220 
356 ,73.6528 ,1.68056 ,-0.31041 ,-3.04578 
357 ,73.8608 ,1.68262 ,-0.34121 ,-3.34799 
358 ,74.0531 ,1.68463 ,-0.33779 ,-3.31441 
359 ,74.2451 ,1.68664 ,-0.35490 ,-3.48230 
360 ,74.4531 ,1.68856 ,-0.33437 ,-3.28083 
361 ,74.6452 ,1.69062 ,-0.36859 ,-3.61661 
362 ,74.8854 ,1.69288 ,-0.38570 ,-3.78450 
363 ,75.1095 ,1.69514 ,-0.38570 ,-3.78450 
364 ,75.3175 ,1.69719 ,-0.41308 ,-4.05313 
365 ,75.5257 ,1.69931 ,-0.41992 ,-4.12029 
366 ,75.7337 ,1.70136 ,-0.42335 ,-4.15387 
367 ,75.9418 ,1.70345 ,-0.44730 ,-4.38891 
368 ,76.1338 ,1.70547 ,-0.44730 ,-4.38891 
369 ,76.3419 ,1.70744 ,-0.46099 ,-4.52323 
370 ,76.5501 ,1.70954 ,-0.45757 ,-4.48965 
371 ,76.7580 ,1.71159 ,-0.47810 ,-4.69112 
372 ,76.9501 ,1.71360 ,-0.48152 ,-4.72470 
373 ,77.1423 ,1.71547 ,-0.48494 ,-4.75828 
374 ,77.3503 ,1.71753 ,-0.50548 ,-4.95975 
375 ,77.5583 ,1.71967 ,-0.50206 ,-4.92617 
376 ,77.7665 ,1.72167 ,-0.53285 ,-5.22837 
377 ,77.9746 ,1.72376 ,-0.51232 ,-5.02690 
378 ,78.1827 ,1.72582 ,-0.55681 ,-5.46342 
379 ,78.4068 ,1.72806 ,-0.54654 ,-5.36268 
380 ,78.5829 ,1.73002 ,-0.56023 ,-5.49700 
381 ,78.7909 ,1.73191 ,-0.56023 ,-5.49700 
382 ,78.9991 ,1.73403 ,-0.59788 ,-5.86636 
383 ,79.1911 ,1.73602 ,-0.58761 ,-5.76562 
384 ,79.3832 ,1.73793 ,-0.60472 ,-5.93352 
385 ,79.5913 ,1.73991 ,-0.59788 ,-5.86636 
386 ,79.7994 ,1.74201 ,-0.61841 ,-6.06783 
387 ,80.0074 ,1.74411 ,-0.62868 ,-6.16856 
388 ,80.2155 ,1.74614 ,-0.62525 ,-6.13499 
389 ,80.4236 ,1.74828 ,-0.64921 ,-6.37003 
390 ,80.6477 ,1.75050 ,-0.64579 ,-6.33646 
391 ,80.8559 ,1.75257 ,-0.65605 ,-6.43719 
392 ,81.0638 ,1.75462 ,-0.68001 ,-6.67224 
393 ,81.2720 ,1.75678 ,-0.68001 ,-6.67224 
394 ,81.4801 ,1.75886 ,-0.69027 ,-6.77297 
395 ,81.6879 ,1.76089 ,-0.68685 ,-6.73940 
396 ,81.8640 ,1.76283 ,-0.70739 ,-6.94086 
397 ,82.0561 ,1.76469 ,-0.70739 ,-6.94086 
398 ,82.2643 ,1.76663 ,-0.73134 ,-7.17591 
399 ,82.4723 ,1.76890 ,-0.74503 ,-7.31023 
400 ,82.6804 ,1.77081 ,-0.74845 ,-7.34380 
401 ,82.8724 ,1.77285 ,-0.75872 ,-7.44454 
402 ,83.0806 ,1.77479 ,-0.76214 ,-7.47812 
403 ,83.2888 ,1.77689 ,-0.76898 ,-7.54527 
404 ,83.4808 ,1.77896 ,-0.77583 ,-7.61243 
405 ,83.7049 ,1.78108 ,-0.79978 ,-7.84748 
406 ,83.9128 ,1.78317 ,-0.79294 ,-7.78032 
407 ,84.1211 ,1.78520 ,-0.82374 ,-8.08253 
408 ,84.3292 ,1.78730 ,-0.81005 ,-7.94821 
409 ,84.5371 ,1.78934 ,-0.83058 ,-8.14968 
410 ,84.7453 ,1.79142 ,-0.84085 ,-8.25042 
411 ,84.9534 ,1.79355 ,-0.83401 ,-8.18326 
412 ,85.1615 ,1.79556 ,-0.86823 ,-8.51904 
413 ,85.3535 ,1.79768 ,-0.86138 ,-8.45189 
414 ,85.5616 ,1.79960 ,-0.87507 ,-8.58620 
415 ,85.7538 ,1.80167 ,-0.87849 ,-8.61978 
416 ,85.9618 ,1.80359 ,-0.90929 ,-8.92198 
417 ,86.1539 ,1.80569 ,-0.90587 ,-8.88841 
418 ,86.3621 ,1.80762 ,-0.92298 ,-9.05630 
419 ,86.5541 ,1.80960 ,-0.90245 ,-8.85483 
420 ,86.7622 ,1.81161 ,-0.92983 ,-9.12345 
421 ,86.9541 ,1.81358 ,-0.92640 ,-9.08988 
422 ,87.1462 ,1.81549 ,-0.95378 ,-9.35850 
423 ,87.3545 ,1.81753 ,-0.95036 ,-9.32492 
424 ,87.5626 ,1.81960 ,-0.97431 ,-9.55997 
425 ,87.7706 ,1.82171 ,-0.96405 ,-9.45924 
426 ,87.9787 ,1.82374 ,-0.98116 ,-9.62713 
427 ,88.2187 ,1.82627 ,-0.99143 ,-9.72786 
428 ,88.4268 ,1.82830 ,-1.00854 ,-9.89576 
429 ,88.6350 ,1.83030 ,-0.99485 ,-9.76144 
430 ,88.8430 ,1.83241 ,-1.02565 ,-10.06365 
431 ,89.0351 ,1.83439 ,-1.02222 ,-10.03007 
432 ,89.2431 ,1.83642 ,-1.04960 ,-10.29869 
433 ,89.4511 ,1.83847 ,-1.04618 ,-10.26512 
434 ,89.6433 ,1.84053 ,-1.05302 ,-10.33227 
435 ,89.8515 ,1.84250 ,-1.05645 ,-10.36585 
436 ,90.0595 ,1.84455 ,-1.08040 ,-10.60090 
437 ,90.2677 ,1.84667 ,-1.08725 ,-10.66806 
438 ,90.4595 ,1.84868 ,-1.09409 ,-10.73521 
439 ,90.6517 ,1.85064 ,-1.09409 ,-10.73521 
440 ,90.8599 ,1.85257 ,-1.10093 ,-10.80237 
441 ,91.0679 ,1.85464 ,-1.11462 ,-10.93668 
442 ,91.2600 ,1.85674 ,-1.10778 ,-10.86953 
443 ,91.4520 ,1.85865 ,-1.13516 ,-11.13815 
444 ,91.6762 ,1.86070 ,-1.14542 ,-11.23889 
445 ,91.8842 ,1.86280 ,-1.15911 ,-11.37320 
446 ,92.0923 ,1.86486 ,-1.14884 ,-11.27247 
447 ,92.2845 ,1.86688 ,-1.16938 ,-11.47394 
448 ,92.4924 ,1.86888 ,-1.14884 ,-11.27247 
449 ,92.7166 ,1.87111 ,-1.16596 ,-11.44036 
450 ,92.9247 ,1.87324 ,-1.19333 ,-11.70898 
451 ,93.1327 ,1.87529 ,-1.19333 ,-11.70898 
452 ,93.3408 ,1.87738 ,-1.21729 ,-11.94403 
453 ,93.5490 ,1.87946 ,-1.21729 ,-11.94403 
454 ,93.7570 ,1.88150 ,-1.21387 ,-11.91045 
455 ,93.9651 ,1.88361 ,-1.22413 ,-12.01119 
456 ,94.1573 ,1.88558 ,-1.22755 ,-12.04477 
457 ,94.3653 ,1.88762 ,-1.25151 ,-12.27981 
458 ,94.5734 ,1.88966 ,-1.24124 ,-12.17908 
459 ,94.7814 ,1.89178 ,-1.27889 ,-12.54844 
460 ,94.9895 ,1.89393 ,-1.26178 ,-12.38055 
461 ,95.1816 ,1.89586 ,-1.27889 ,-12.54844 
