Data stamp = , 03-05-2022 05:23:07 147

Calibration Values: 
Slope = , 26.54 , g/V 
Offset Voltage at no contact = , -0.501760 , V 

No , Time , Stage Position ,   Mass , Force 
   ,  (s) ,      (mm)      ,   (g)  , (mN)  

1 ,0.0000 ,0.89946 ,5.30878 ,52.08979 
2 ,0.2226 ,0.89953 ,5.30536 ,52.05621 
3 ,0.8155 ,0.90195 ,5.30878 ,52.08979 
4 ,1.0395 ,0.90441 ,5.30878 ,52.08979 
5 ,1.2635 ,0.90660 ,5.29510 ,51.95548 
6 ,1.4556 ,0.90858 ,5.29510 ,51.95548 
7 ,1.6633 ,0.91068 ,5.25745 ,51.58611 
8 ,1.8718 ,0.91279 ,5.26430 ,51.65327 
9 ,2.0799 ,0.91491 ,5.24718 ,51.48538 
10 ,2.2718 ,0.91682 ,5.20270 ,51.04886 
11 ,2.4799 ,0.91887 ,5.18559 ,50.88097 
12 ,2.6720 ,0.92085 ,5.17190 ,50.74666 
13 ,2.8478 ,0.92271 ,5.16848 ,50.71308 
14 ,3.0404 ,0.92448 ,5.15136 ,50.54519 
15 ,3.2482 ,0.92661 ,5.10688 ,50.10867 
16 ,3.4565 ,0.92855 ,5.09661 ,50.00793 
17 ,3.6643 ,0.93077 ,5.06239 ,49.67215 
18 ,3.8727 ,0.93279 ,5.04185 ,49.47068 
19 ,4.0808 ,0.93488 ,5.03501 ,49.40352 
20 ,4.2889 ,0.93700 ,5.00079 ,49.06774 
21 ,4.4810 ,0.93890 ,4.99052 ,48.96701 
22 ,4.6730 ,0.94081 ,4.96315 ,48.69838 
23 ,4.8813 ,0.94282 ,4.95288 ,48.59764 
24 ,5.0889 ,0.94495 ,4.90839 ,48.16113 
25 ,5.2813 ,0.94687 ,4.90497 ,48.12755 
26 ,5.4733 ,0.94881 ,4.86732 ,47.75819 
27 ,5.6811 ,0.95089 ,4.86732 ,47.75819 
28 ,5.8734 ,0.95282 ,4.83995 ,47.48956 
29 ,6.0817 ,0.95487 ,4.82968 ,47.38883 
30 ,6.2896 ,0.95694 ,4.79204 ,47.01946 
31 ,6.4980 ,0.95906 ,4.78861 ,46.98589 
32 ,6.7057 ,0.96110 ,4.73386 ,46.44863 
33 ,6.9140 ,0.96311 ,4.74413 ,46.54937 
34 ,7.1058 ,0.96516 ,4.71333 ,46.24716 
35 ,7.3301 ,0.96734 ,4.67911 ,45.91138 
36 ,7.5382 ,0.96946 ,4.67911 ,45.91138 
37 ,7.7302 ,0.97137 ,4.62777 ,45.40771 
38 ,7.9224 ,0.97330 ,4.63804 ,45.50844 
39 ,8.1145 ,0.97521 ,4.60382 ,45.17266 
40 ,8.3220 ,0.97723 ,4.57302 ,44.87045 
41 ,8.5306 ,0.97933 ,4.56275 ,44.76972 
42 ,8.7227 ,0.98133 ,4.55933 ,44.73614 
43 ,8.9305 ,0.98338 ,4.52511 ,44.40036 
44 ,9.1229 ,0.98523 ,4.50800 ,44.23247 
45 ,9.3309 ,0.98741 ,4.46693 ,43.82953 
46 ,9.5070 ,0.98924 ,4.46009 ,43.76237 
47 ,9.7151 ,0.99111 ,4.46009 ,43.76237 
48 ,9.9231 ,0.99331 ,4.43955 ,43.56090 
49 ,10.1153 ,0.99520 ,4.40533 ,43.22512 
50 ,10.3073 ,0.99714 ,4.39507 ,43.12438 
51 ,10.4992 ,0.99908 ,4.39164 ,43.09080 
52 ,10.7234 ,1.00125 ,4.34716 ,42.65429 
53 ,10.9316 ,1.00337 ,4.32320 ,42.41924 
54 ,11.1556 ,1.00551 ,4.30951 ,42.28492 
55 ,11.3475 ,1.00756 ,4.27529 ,41.94914 
56 ,11.5559 ,1.00959 ,4.27871 ,41.98272 
57 ,11.7798 ,1.01182 ,4.24107 ,41.61336 
58 ,11.9878 ,1.01398 ,4.21711 ,41.37831 
59 ,12.1960 ,1.01602 ,4.20685 ,41.27758 
60 ,12.3879 ,1.01796 ,4.17947 ,41.00895 
61 ,12.5798 ,1.01987 ,4.17605 ,40.97537 
62 ,12.7719 ,1.02173 ,4.14867 ,40.70674 
63 ,12.9642 ,1.02371 ,4.13498 ,40.57243 
64 ,13.1723 ,1.02575 ,4.10418 ,40.27023 
65 ,13.3645 ,1.02769 ,4.07680 ,40.00160 
66 ,13.5726 ,1.02979 ,4.06312 ,39.86729 
67 ,13.7806 ,1.03188 ,4.05969 ,39.83371 
68 ,13.9888 ,1.03390 ,4.02205 ,39.46435 
69 ,14.1969 ,1.03600 ,4.02547 ,39.49793 
70 ,14.4050 ,1.03814 ,3.98098 ,39.06141 
71 ,14.5970 ,1.04000 ,3.98441 ,39.09499 
72 ,14.7892 ,1.04192 ,3.94334 ,38.69205 
73 ,14.9968 ,1.04399 ,3.95018 ,38.75920 
74 ,15.1891 ,1.04596 ,3.91938 ,38.45700 
75 ,15.3815 ,1.04790 ,3.91938 ,38.45700 
76 ,15.5734 ,1.04978 ,3.88858 ,38.15479 
77 ,15.7656 ,1.05164 ,3.85436 ,37.81901 
78 ,15.9735 ,1.05375 ,3.86463 ,37.91975 
79 ,16.1817 ,1.05580 ,3.83383 ,37.61754 
80 ,16.3736 ,1.05784 ,3.81330 ,37.41607 
81 ,16.5818 ,1.05982 ,3.79276 ,37.21460 
82 ,16.7736 ,1.06174 ,3.77908 ,37.08029 
83 ,16.9661 ,1.06371 ,3.74828 ,36.77808 
84 ,17.1575 ,1.06565 ,3.74828 ,36.77808 
85 ,17.3501 ,1.06756 ,3.72090 ,36.50946 
86 ,17.5582 ,1.06960 ,3.70037 ,36.30799 
87 ,17.7663 ,1.07160 ,3.68325 ,36.14010 
88 ,17.9585 ,1.07366 ,3.68325 ,36.14010 
89 ,18.1505 ,1.07556 ,3.64561 ,35.77073 
90 ,18.3584 ,1.07757 ,3.63877 ,35.70358 
91 ,18.5665 ,1.07968 ,3.61823 ,35.50211 
92 ,18.7588 ,1.08162 ,3.60454 ,35.36779 
93 ,18.9826 ,1.08379 ,3.57032 ,35.03201 
94 ,19.1750 ,1.08576 ,3.55321 ,34.86412 
95 ,19.3825 ,1.08786 ,3.56348 ,34.96485 
96 ,19.5751 ,1.08977 ,3.52926 ,34.62907 
97 ,19.7832 ,1.09186 ,3.50872 ,34.42760 
98 ,19.9912 ,1.09390 ,3.50188 ,34.36045 
99 ,20.1829 ,1.09588 ,3.47108 ,34.05824 
100 ,20.3754 ,1.09776 ,3.45397 ,33.89035 
101 ,20.5675 ,1.09971 ,3.43344 ,33.68888 
102 ,20.7755 ,1.10172 ,3.44028 ,33.75604 
103 ,20.9677 ,1.10369 ,3.40264 ,33.38667 
104 ,21.1758 ,1.10572 ,3.41290 ,33.48741 
105 ,21.3838 ,1.10780 ,3.36499 ,33.01731 
106 ,21.5755 ,1.10981 ,3.36157 ,32.98374 
107 ,21.7678 ,1.11169 ,3.32735 ,32.64795 
108 ,21.9757 ,1.11376 ,3.33419 ,32.71511 
109 ,22.1680 ,1.11570 ,3.30682 ,32.44648 
110 ,22.3601 ,1.11774 ,3.28628 ,32.24501 
111 ,22.5520 ,1.11948 ,3.27259 ,32.11070 
112 ,22.7444 ,1.12146 ,3.25206 ,31.90923 
113 ,22.9363 ,1.12335 ,3.24864 ,31.87565 
114 ,23.1446 ,1.12545 ,3.22468 ,31.64060 
115 ,23.3366 ,1.12735 ,3.21100 ,31.50629 
116 ,23.5288 ,1.12933 ,3.18020 ,31.20409 
117 ,23.7364 ,1.13134 ,3.16309 ,31.03619 
118 ,23.9449 ,1.13341 ,3.14597 ,30.86830 
119 ,24.1369 ,1.13545 ,3.13913 ,30.80115 
120 ,24.3291 ,1.13743 ,3.10491 ,30.46536 
121 ,24.5210 ,1.13923 ,3.09464 ,30.36463 
122 ,24.7293 ,1.14132 ,3.08438 ,30.26389 
123 ,24.9373 ,1.14332 ,3.06726 ,30.09600 
124 ,25.1295 ,1.14527 ,3.03989 ,29.82737 
125 ,25.3215 ,1.14730 ,3.04673 ,29.89453 
126 ,25.5296 ,1.14930 ,3.00224 ,29.45801 
127 ,25.7217 ,1.15118 ,3.00909 ,29.52517 
128 ,25.9134 ,1.15310 ,2.99882 ,29.42444 
129 ,26.1216 ,1.15514 ,2.97487 ,29.18939 
130 ,26.3299 ,1.15730 ,2.94749 ,28.92076 
131 ,26.5221 ,1.15919 ,2.93038 ,28.75287 
132 ,26.7298 ,1.16129 ,2.90985 ,28.55140 
133 ,26.9541 ,1.16341 ,2.90642 ,28.51782 
134 ,27.1462 ,1.16546 ,2.87905 ,28.24919 
135 ,27.3703 ,1.16766 ,2.86536 ,28.11488 
136 ,27.5623 ,1.16973 ,2.85167 ,27.98057 
137 ,27.7385 ,1.17150 ,2.84482 ,27.91341 
138 ,27.9305 ,1.17330 ,2.81060 ,27.57763 
139 ,28.1223 ,1.17521 ,2.78665 ,27.34258 
140 ,28.3305 ,1.17728 ,2.78665 ,27.34258 
141 ,28.5547 ,1.17940 ,2.77638 ,27.24185 
142 ,28.7470 ,1.18148 ,2.74900 ,26.97322 
143 ,28.9548 ,1.18354 ,2.73531 ,26.83891 
144 ,29.1472 ,1.18549 ,2.71478 ,26.63744 
145 ,29.3549 ,1.18754 ,2.71478 ,26.63744 
146 ,29.5473 ,1.18945 ,2.69425 ,26.43597 
147 ,29.7232 ,1.19135 ,2.68398 ,26.33523 
148 ,29.9156 ,1.19311 ,2.66003 ,26.10018 
149 ,30.1075 ,1.19505 ,2.63607 ,25.86514 
150 ,30.2997 ,1.19700 ,2.64634 ,25.96587 
151 ,30.5234 ,1.19918 ,2.61212 ,25.63009 
152 ,30.7314 ,1.20127 ,2.60527 ,25.56293 
153 ,30.9238 ,1.20323 ,2.59843 ,25.49577 
154 ,31.1316 ,1.20525 ,2.56763 ,25.19357 
155 ,31.3239 ,1.20716 ,2.54025 ,24.92494 
156 ,31.5161 ,1.20912 ,2.54025 ,24.92494 
157 ,31.7083 ,1.21105 ,2.50945 ,24.62274 
158 ,31.9003 ,1.21298 ,2.51630 ,24.68989 
159 ,32.1243 ,1.21518 ,2.48207 ,24.35411 
160 ,32.3169 ,1.21713 ,2.47181 ,24.25338 
161 ,32.5241 ,1.21917 ,2.46496 ,24.18622 
162 ,32.7325 ,1.22127 ,2.43416 ,23.88402 
163 ,32.9406 ,1.22340 ,2.42390 ,23.78328 
164 ,33.1484 ,1.22548 ,2.41021 ,23.64897 
165 ,33.3563 ,1.22750 ,2.39994 ,23.54823 
166 ,33.5484 ,1.22952 ,2.36572 ,23.21245 
167 ,33.7568 ,1.23152 ,2.36914 ,23.24603 
168 ,33.9650 ,1.23359 ,2.34519 ,23.01098 
169 ,34.1573 ,1.23556 ,2.33150 ,22.87667 
170 ,34.3492 ,1.23747 ,2.29728 ,22.54088 
171 ,34.5573 ,1.23952 ,2.30412 ,22.60804 
172 ,34.7490 ,1.24144 ,2.27332 ,22.30584 
173 ,34.9575 ,1.24346 ,2.27332 ,22.30584 
174 ,35.1654 ,1.24558 ,2.24937 ,22.07079 
175 ,35.3577 ,1.24755 ,2.24252 ,22.00363 
176 ,35.5657 ,1.24958 ,2.20488 ,21.63427 
177 ,35.7579 ,1.25153 ,2.20146 ,21.60069 
178 ,35.9658 ,1.25369 ,2.17750 ,21.36564 
179 ,36.1578 ,1.25555 ,2.18435 ,21.43280 
180 ,36.3500 ,1.25759 ,2.16039 ,21.19775 
181 ,36.5422 ,1.25937 ,2.15355 ,21.13059 
182 ,36.7502 ,1.26149 ,2.12275 ,20.82839 
183 ,36.9419 ,1.26334 ,2.11248 ,20.72766 
184 ,37.1503 ,1.26548 ,2.08852 ,20.49261 
185 ,37.3583 ,1.26758 ,2.08168 ,20.42545 
186 ,37.5504 ,1.26946 ,2.05088 ,20.12325 
187 ,37.7425 ,1.27138 ,2.06457 ,20.25756 
188 ,37.9347 ,1.27329 ,2.05088 ,20.12325 
189 ,38.1266 ,1.27522 ,2.02008 ,19.82104 
190 ,38.3348 ,1.27736 ,2.02008 ,19.82104 
191 ,38.5269 ,1.27924 ,1.98586 ,19.48526 
192 ,38.7190 ,1.28115 ,1.98928 ,19.51884 
193 ,38.9109 ,1.28309 ,1.94822 ,19.11590 
194 ,39.1189 ,1.28516 ,1.94822 ,19.11590 
195 ,39.3430 ,1.28733 ,1.93453 ,18.98158 
196 ,39.5512 ,1.28943 ,1.91399 ,18.78011 
197 ,39.7433 ,1.29142 ,1.91057 ,18.74654 
198 ,39.9355 ,1.29327 ,1.90031 ,18.64580 
199 ,40.1275 ,1.29523 ,1.86951 ,18.34360 
200 ,40.3354 ,1.29728 ,1.87293 ,18.37717 
201 ,40.5277 ,1.29921 ,1.83871 ,18.04139 
202 ,40.7200 ,1.30115 ,1.85240 ,18.17570 
203 ,40.9120 ,1.30308 ,1.81475 ,17.80634 
204 ,41.0875 ,1.30495 ,1.80106 ,17.67203 
205 ,41.2800 ,1.30671 ,1.80449 ,17.70561 
206 ,41.4718 ,1.30867 ,1.77369 ,17.40340 
207 ,41.6801 ,1.31074 ,1.77026 ,17.36983 
208 ,41.8723 ,1.31266 ,1.73262 ,17.00046 
209 ,42.0803 ,1.31469 ,1.74631 ,17.13478 
210 ,42.2725 ,1.31667 ,1.71893 ,16.86615 
211 ,42.4801 ,1.31868 ,1.71551 ,16.83257 
212 ,42.6885 ,1.32079 ,1.69155 ,16.59752 
213 ,42.8807 ,1.32270 ,1.68813 ,16.56395 
214 ,43.0888 ,1.32486 ,1.65733 ,16.26174 
215 ,43.2808 ,1.32678 ,1.66075 ,16.29532 
216 ,43.4889 ,1.32881 ,1.62653 ,15.95954 
217 ,43.6968 ,1.33091 ,1.62653 ,15.95954 
218 ,43.9050 ,1.33301 ,1.60600 ,15.75807 
219 ,44.0971 ,1.33496 ,1.59231 ,15.62375 
220 ,44.2892 ,1.33683 ,1.56493 ,15.35513 
221 ,44.4972 ,1.33890 ,1.57520 ,15.45586 
222 ,44.6890 ,1.34079 ,1.54782 ,15.18724 
223 ,44.8974 ,1.34288 ,1.54782 ,15.18724 
224 ,45.0895 ,1.34487 ,1.50676 ,14.78430 
225 ,45.3136 ,1.34703 ,1.51360 ,14.85145 
226 ,45.5056 ,1.34898 ,1.48965 ,14.61640 
227 ,45.6975 ,1.35092 ,1.49307 ,14.64998 
228 ,45.9053 ,1.35301 ,1.46227 ,14.34778 
229 ,46.0977 ,1.35489 ,1.45885 ,14.31420 
230 ,46.2901 ,1.35685 ,1.42805 ,14.01199 
231 ,46.4819 ,1.35876 ,1.42805 ,14.01199 
232 ,46.6901 ,1.36080 ,1.39725 ,13.70979 
233 ,46.8817 ,1.36273 ,1.40067 ,13.74337 
234 ,47.0903 ,1.36481 ,1.36987 ,13.44116 
235 ,47.2983 ,1.36694 ,1.36987 ,13.44116 
236 ,47.5066 ,1.36899 ,1.36303 ,13.37401 
237 ,47.6985 ,1.37088 ,1.35276 ,13.27327 
238 ,47.9069 ,1.37300 ,1.32196 ,12.97107 
239 ,48.1147 ,1.37513 ,1.30827 ,12.83675 
240 ,48.3069 ,1.37701 ,1.29458 ,12.70244 
241 ,48.4989 ,1.37894 ,1.29800 ,12.73602 
242 ,48.6911 ,1.38083 ,1.25694 ,12.33308 
243 ,48.8991 ,1.38293 ,1.28089 ,12.56813 
244 ,49.1067 ,1.38497 ,1.23983 ,12.16519 
245 ,49.2993 ,1.38691 ,1.22956 ,12.06445 
246 ,49.5073 ,1.38898 ,1.21245 ,11.89656 
247 ,49.6994 ,1.39090 ,1.21587 ,11.93014 
248 ,49.8916 ,1.39283 ,1.18507 ,11.62794 
249 ,50.0834 ,1.39478 ,1.17823 ,11.56078 
250 ,50.2913 ,1.39682 ,1.15770 ,11.35931 
251 ,50.4998 ,1.39889 ,1.15427 ,11.32573 
252 ,50.6918 ,1.40083 ,1.13716 ,11.15784 
253 ,50.8839 ,1.40280 ,1.12690 ,11.05710 
254 ,51.0917 ,1.40482 ,1.09952 ,10.78848 
255 ,51.2996 ,1.40688 ,1.10979 ,10.88921 
256 ,51.4919 ,1.40883 ,1.08241 ,10.62059 
257 ,51.7003 ,1.41087 ,1.08241 ,10.62059 
258 ,51.9084 ,1.41300 ,1.05845 ,10.38554 
259 ,52.1165 ,1.41504 ,1.05161 ,10.31838 
260 ,52.3241 ,1.41714 ,1.03450 ,10.15049 
261 ,52.5327 ,1.41918 ,1.02423 ,10.04976 
262 ,52.7403 ,1.42131 ,1.01739 ,9.98260 
263 ,52.9164 ,1.42319 ,0.98659 ,9.68039 
264 ,53.1085 ,1.42499 ,0.97974 ,9.61324 
265 ,53.3009 ,1.42690 ,0.99343 ,9.74755 
266 ,53.4926 ,1.42884 ,0.95237 ,9.34461 
267 ,53.7011 ,1.43088 ,0.95579 ,9.37819 
268 ,53.9091 ,1.43301 ,0.92841 ,9.10956 
269 ,54.1013 ,1.43492 ,0.94552 ,9.27745 
270 ,54.3094 ,1.43695 ,0.90103 ,8.84094 
271 ,54.5173 ,1.43907 ,0.89761 ,8.80736 
272 ,54.7094 ,1.44097 ,0.88050 ,8.63947 
273 ,54.9177 ,1.44299 ,0.88050 ,8.63947 
274 ,55.1258 ,1.44514 ,0.85997 ,8.43800 
275 ,55.3180 ,1.44706 ,0.85654 ,8.40442 
276 ,55.5258 ,1.44913 ,0.81890 ,8.03506 
277 ,55.7494 ,1.45132 ,0.81890 ,8.03506 
278 ,55.9417 ,1.45329 ,0.80179 ,7.86717 
279 ,56.1340 ,1.45519 ,0.80179 ,7.86717 
280 ,56.3262 ,1.45713 ,0.78468 ,7.69927 
281 ,56.5183 ,1.45904 ,0.77441 ,7.59854 
282 ,56.7102 ,1.46101 ,0.76415 ,7.49780 
283 ,56.9020 ,1.46285 ,0.76415 ,7.49780 
284 ,57.0945 ,1.46484 ,0.72650 ,7.12844 
285 ,57.2864 ,1.46677 ,0.72650 ,7.12844 
286 ,57.4947 ,1.46879 ,0.71966 ,7.06129 
287 ,57.7026 ,1.47082 ,0.69228 ,6.79266 
288 ,57.9103 ,1.47292 ,0.67859 ,6.65835 
289 ,58.1029 ,1.47489 ,0.68886 ,6.75908 
290 ,58.2950 ,1.47680 ,0.65121 ,6.38972 
291 ,58.4873 ,1.47873 ,0.65121 ,6.38972 
292 ,58.6952 ,1.48079 ,0.63410 ,6.22183 
293 ,58.8873 ,1.48273 ,0.62726 ,6.15467 
294 ,59.0792 ,1.48467 ,0.63068 ,6.18825 
295 ,59.2713 ,1.48656 ,0.60330 ,5.91962 
296 ,59.4633 ,1.48849 ,0.59646 ,5.85247 
297 ,59.6715 ,1.49058 ,0.57593 ,5.65100 
298 ,59.8636 ,1.49251 ,0.57593 ,5.65100 
299 ,60.0393 ,1.49439 ,0.55882 ,5.48311 
300 ,60.2476 ,1.49636 ,0.53486 ,5.24806 
301 ,60.4559 ,1.49844 ,0.53486 ,5.24806 
302 ,60.6480 ,1.50035 ,0.50748 ,4.97943 
303 ,60.8402 ,1.50227 ,0.52802 ,5.18090 
304 ,61.0320 ,1.50421 ,0.49380 ,4.84512 
305 ,61.2398 ,1.50622 ,0.50406 ,4.94585 
306 ,61.4323 ,1.50816 ,0.48695 ,4.77796 
307 ,61.6565 ,1.51028 ,0.48353 ,4.74438 
308 ,61.8645 ,1.51246 ,0.45957 ,4.50934 
309 ,62.0567 ,1.51442 ,0.44588 ,4.37502 
310 ,62.2644 ,1.51641 ,0.42877 ,4.20713 
311 ,62.4728 ,1.51853 ,0.41509 ,4.07282 
312 ,62.6645 ,1.52051 ,0.41166 ,4.03924 
313 ,62.8565 ,1.52249 ,0.38771 ,3.80419 
314 ,63.0487 ,1.52437 ,0.38086 ,3.73703 
315 ,63.2411 ,1.52627 ,0.38771 ,3.80419 
316 ,63.4491 ,1.52832 ,0.35691 ,3.50199 
317 ,63.6412 ,1.53026 ,0.34664 ,3.40125 
318 ,63.8332 ,1.53217 ,0.33980 ,3.33410 
319 ,64.0574 ,1.53428 ,0.32953 ,3.23336 
320 ,64.2494 ,1.53634 ,0.30215 ,2.96473 
321 ,64.4411 ,1.53823 ,0.31584 ,3.09905 
322 ,64.6334 ,1.54026 ,0.29873 ,2.93116 
323 ,64.8418 ,1.54228 ,0.29873 ,2.93116 
324 ,65.0499 ,1.54437 ,0.26109 ,2.56179 
325 ,65.2419 ,1.54628 ,0.27820 ,2.72969 
326 ,65.4500 ,1.54835 ,0.23713 ,2.32675 
327 ,65.6255 ,1.55023 ,0.24740 ,2.42748 
328 ,65.8017 ,1.55198 ,0.24398 ,2.39390 
329 ,65.9940 ,1.55375 ,0.23029 ,2.25959 
330 ,66.1863 ,1.55569 ,0.20291 ,1.99096 
331 ,66.3784 ,1.55765 ,0.21660 ,2.12528 
332 ,66.5865 ,1.55967 ,0.18922 ,1.85665 
333 ,66.8105 ,1.56190 ,0.17553 ,1.72234 
334 ,67.0025 ,1.56387 ,0.18238 ,1.78949 
335 ,67.1947 ,1.56579 ,0.15500 ,1.52087 
336 ,67.4026 ,1.56789 ,0.14816 ,1.45371 
337 ,67.6109 ,1.56990 ,0.13105 ,1.28582 
338 ,67.8025 ,1.57184 ,0.14131 ,1.38655 
339 ,67.9948 ,1.57377 ,0.11051 ,1.08435 
340 ,68.1872 ,1.57573 ,0.09682 ,0.95004 
341 ,68.3951 ,1.57782 ,0.10025 ,0.98361 
342 ,68.5870 ,1.57971 ,0.07971 ,0.78214 
343 ,68.7790 ,1.58159 ,0.08314 ,0.81572 
344 ,68.9713 ,1.58353 ,0.06260 ,0.61425 
345 ,69.1795 ,1.58557 ,0.06602 ,0.64783 
346 ,69.3716 ,1.58751 ,0.04549 ,0.44636 
347 ,69.5797 ,1.58964 ,0.03865 ,0.37920 
348 ,69.7716 ,1.59152 ,0.01127 ,0.11058 
349 ,69.9794 ,1.59363 ,0.01811 ,0.17773 
350 ,70.1717 ,1.59556 ,-0.00584 ,-0.05731 
351 ,70.3800 ,1.59761 ,0.00100 ,0.00984 
352 ,70.5721 ,1.59955 ,-0.01269 ,-0.12447 
353 ,70.7641 ,1.60146 ,-0.02637 ,-0.25878 
354 ,70.9561 ,1.60338 ,-0.04691 ,-0.46025 
355 ,71.1481 ,1.60532 ,-0.05375 ,-0.52741 
356 ,71.3404 ,1.60722 ,-0.03664 ,-0.35952 
357 ,71.5483 ,1.60930 ,-0.07428 ,-0.72888 
358 ,71.7405 ,1.61123 ,-0.05375 ,-0.52741 
359 ,71.9645 ,1.61332 ,-0.09824 ,-0.96393 
360 ,72.1722 ,1.61554 ,-0.12219 ,-1.19898 
361 ,72.3649 ,1.61742 ,-0.10508 ,-1.03108 
362 ,72.5727 ,1.61955 ,-0.12904 ,-1.26613 
363 ,72.7650 ,1.62146 ,-0.12562 ,-1.23255 
364 ,72.9731 ,1.62354 ,-0.13931 ,-1.36687 
365 ,73.1811 ,1.62560 ,-0.14273 ,-1.40045 
366 ,73.4052 ,1.62786 ,-0.17353 ,-1.70265 
367 ,73.6134 ,1.62996 ,-0.16326 ,-1.60191 
368 ,73.8214 ,1.63201 ,-0.17353 ,-1.70265 
369 ,74.0134 ,1.63395 ,-0.19748 ,-1.93770 
370 ,74.2055 ,1.63592 ,-0.20090 ,-1.97128 
371 ,74.3971 ,1.63775 ,-0.20090 ,-1.97128 
372 ,74.5897 ,1.63972 ,-0.22144 ,-2.17275 
373 ,74.7975 ,1.64178 ,-0.22144 ,-2.17275 
374 ,74.9898 ,1.64369 ,-0.23855 ,-2.34064 
375 ,75.1979 ,1.64577 ,-0.22828 ,-2.23990 
376 ,75.3903 ,1.64771 ,-0.26250 ,-2.57569 
377 ,75.5980 ,1.64976 ,-0.25566 ,-2.50853 
378 ,75.8064 ,1.65191 ,-0.27619 ,-2.71000 
379 ,75.9980 ,1.65393 ,-0.29330 ,-2.87789 
380 ,76.1902 ,1.65571 ,-0.30699 ,-3.01220 
381 ,76.3982 ,1.65778 ,-0.29330 ,-2.87789 
382 ,76.5900 ,1.65972 ,-0.32410 ,-3.18010 
383 ,76.7825 ,1.66161 ,-0.32068 ,-3.14652 
384 ,76.9744 ,1.66357 ,-0.33095 ,-3.24725 
385 ,77.1667 ,1.66546 ,-0.33437 ,-3.28083 
386 ,77.3584 ,1.66741 ,-0.34806 ,-3.41514 
387 ,77.5509 ,1.66943 ,-0.35832 ,-3.51588 
388 ,77.7269 ,1.67118 ,-0.36859 ,-3.61661 
389 ,77.9192 ,1.67300 ,-0.37201 ,-3.65019 
390 ,78.1112 ,1.67494 ,-0.39255 ,-3.85166 
391 ,78.3192 ,1.67699 ,-0.38570 ,-3.78450 
392 ,78.5112 ,1.67889 ,-0.41308 ,-4.05313 
393 ,78.7032 ,1.68081 ,-0.40966 ,-4.01955 
394 ,78.9112 ,1.68284 ,-0.42677 ,-4.18744 
395 ,79.1355 ,1.68504 ,-0.43019 ,-4.22102 
396 ,79.3277 ,1.68705 ,-0.46099 ,-4.52323 
397 ,79.5357 ,1.68915 ,-0.45414 ,-4.45607 
398 ,79.7438 ,1.69122 ,-0.46441 ,-4.55681 
399 ,79.9519 ,1.69332 ,-0.47468 ,-4.65754 
400 ,80.1440 ,1.69523 ,-0.47468 ,-4.65754 
401 ,80.3521 ,1.69729 ,-0.51574 ,-5.06048 
402 ,80.5761 ,1.69947 ,-0.49863 ,-4.89259 
403 ,80.7680 ,1.70148 ,-0.51917 ,-5.09406 
404 ,80.9598 ,1.70349 ,-0.52601 ,-5.16121 
405 ,81.1841 ,1.70547 ,-0.54654 ,-5.36268 
406 ,81.3765 ,1.70751 ,-0.54312 ,-5.32911 
407 ,81.5845 ,1.70961 ,-0.54654 ,-5.36268 
408 ,81.7924 ,1.71170 ,-0.57392 ,-5.63131 
409 ,81.9844 ,1.71363 ,-0.55681 ,-5.46342 
410 ,82.1926 ,1.71567 ,-0.58419 ,-5.73205 
411 ,82.4007 ,1.71779 ,-0.58077 ,-5.69847 
412 ,82.5929 ,1.71974 ,-0.60472 ,-5.93352 
413 ,82.8011 ,1.72177 ,-0.60472 ,-5.93352 
414 ,82.9930 ,1.72372 ,-0.62868 ,-6.16856 
415 ,83.1848 ,1.72562 ,-0.61841 ,-6.06783 
416 ,83.3772 ,1.72755 ,-0.64921 ,-6.37003 
417 ,83.5694 ,1.72949 ,-0.64579 ,-6.33646 
418 ,83.7613 ,1.73147 ,-0.65605 ,-6.43719 
419 ,83.9695 ,1.73349 ,-0.66974 ,-6.57150 
420 ,84.1614 ,1.73541 ,-0.66632 ,-6.53793 
421 ,84.3856 ,1.73757 ,-0.68343 ,-6.70582 
422 ,84.5938 ,1.73977 ,-0.69370 ,-6.80655 
423 ,84.8338 ,1.74211 ,-0.70396 ,-6.90729 
424 ,85.0419 ,1.74418 ,-0.70054 ,-6.87371 
425 ,85.2501 ,1.74622 ,-0.73134 ,-7.17591 
426 ,85.4418 ,1.74816 ,-0.71081 ,-6.97444 
427 ,85.6343 ,1.75010 ,-0.73476 ,-7.20949 
428 ,85.8422 ,1.75219 ,-0.73818 ,-7.24307 
429 ,86.0504 ,1.75430 ,-0.75530 ,-7.41096 
430 ,86.2587 ,1.75628 ,-0.74503 ,-7.31023 
431 ,86.4502 ,1.75824 ,-0.78610 ,-7.71317 
432 ,86.6586 ,1.76030 ,-0.76898 ,-7.54527 
433 ,86.8508 ,1.76224 ,-0.79978 ,-7.84748 
434 ,87.0428 ,1.76421 ,-0.78610 ,-7.71317 
435 ,87.2509 ,1.76628 ,-0.81005 ,-7.94821 
436 ,87.4430 ,1.76825 ,-0.79294 ,-7.78032 
437 ,87.6351 ,1.77013 ,-0.83058 ,-8.14968 
438 ,87.8272 ,1.77204 ,-0.81689 ,-8.01537 
439 ,88.0351 ,1.77408 ,-0.83401 ,-8.18326 
440 ,88.2272 ,1.77599 ,-0.84085 ,-8.25042 
441 ,88.4354 ,1.77807 ,-0.86481 ,-8.48547 
442 ,88.6430 ,1.78019 ,-0.85454 ,-8.38473 
443 ,88.8516 ,1.78227 ,-0.88876 ,-8.72051 
444 ,89.0596 ,1.78434 ,-0.88192 ,-8.65336 
445 ,89.2514 ,1.78625 ,-0.89560 ,-8.78767 
446 ,89.4594 ,1.78833 ,-0.90587 ,-8.88841 
447 ,89.6519 ,1.79030 ,-0.90929 ,-8.92198 
448 ,89.8599 ,1.79227 ,-0.90929 ,-8.92198 
449 ,90.0679 ,1.79441 ,-0.92983 ,-9.12345 
450 ,90.2762 ,1.79647 ,-0.95378 ,-9.35850 
451 ,90.4678 ,1.79845 ,-0.91956 ,-9.02272 
452 ,90.6602 ,1.80043 ,-0.96405 ,-9.45924 
453 ,90.8520 ,1.80224 ,-0.96063 ,-9.42566 
454 ,91.0444 ,1.80416 ,-0.96063 ,-9.42566 
455 ,91.2523 ,1.80628 ,-0.99143 ,-9.72786 
456 ,91.4605 ,1.80832 ,-0.97431 ,-9.55997 
457 ,91.6524 ,1.81026 ,-0.99485 ,-9.76144 
458 ,91.8608 ,1.81237 ,-1.00511 ,-9.86218 
459 ,92.0849 ,1.81458 ,-0.99827 ,-9.79502 
460 ,92.2929 ,1.81665 ,-1.02565 ,-10.06365 
461 ,92.4850 ,1.81858 ,-1.01538 ,-9.96291 
462 ,92.6929 ,1.82068 ,-1.04618 ,-10.26512 
