Data stamp = , 02-05-2022 23:36:12 178

Calibration Values: 
Slope = , 26.54 , g/V 
Offset Voltage at no contact = , -0.501760 , V 

No , Time , Stage Position ,   Mass , Force 
   ,  (s) ,      (mm)      ,   (g)  , (mN)  

1 ,0.0000 ,0.89946 ,5.30536 ,52.05621 
2 ,0.2125 ,0.89953 ,5.31221 ,52.12337 
3 ,0.7730 ,0.90182 ,5.31221 ,52.12337 
4 ,1.0134 ,0.90415 ,5.32932 ,52.29126 
5 ,1.2374 ,0.90644 ,5.32589 ,52.25768 
6 ,1.4613 ,0.90863 ,5.30536 ,52.05621 
7 ,1.6534 ,0.91074 ,5.30194 ,52.02263 
8 ,1.8456 ,0.91263 ,5.27798 ,51.78758 
9 ,2.0535 ,0.91473 ,5.26087 ,51.61969 
10 ,2.2458 ,0.91664 ,5.22665 ,51.28391 
11 ,2.4539 ,0.91868 ,5.21296 ,51.14960 
12 ,2.6618 ,0.92080 ,5.19585 ,50.98170 
13 ,2.8700 ,0.92287 ,5.17874 ,50.81381 
14 ,3.0782 ,0.92497 ,5.15821 ,50.61234 
15 ,3.2702 ,0.92687 ,5.12399 ,50.27656 
16 ,3.4784 ,0.92897 ,5.11714 ,50.20940 
17 ,3.6705 ,0.93094 ,5.08292 ,49.87362 
18 ,3.8785 ,0.93297 ,5.08634 ,49.90720 
19 ,4.0707 ,0.93491 ,5.04870 ,49.53784 
20 ,4.2626 ,0.93680 ,5.04185 ,49.47068 
21 ,4.4549 ,0.93875 ,5.01790 ,49.23563 
22 ,4.6468 ,0.94072 ,4.98368 ,48.89985 
23 ,4.8390 ,0.94259 ,4.98026 ,48.86627 
24 ,5.0469 ,0.94467 ,4.94946 ,48.56407 
25 ,5.2550 ,0.94670 ,4.94261 ,48.49691 
26 ,5.4469 ,0.94862 ,4.89812 ,48.06039 
27 ,5.6392 ,0.95069 ,4.88786 ,47.95966 
28 ,5.8310 ,0.95250 ,4.85706 ,47.65745 
29 ,6.0230 ,0.95435 ,4.83310 ,47.42240 
30 ,6.2153 ,0.95633 ,4.84337 ,47.52314 
31 ,6.4396 ,0.95847 ,4.80915 ,47.18736 
32 ,6.6319 ,0.96051 ,4.77150 ,46.81800 
33 ,6.8397 ,0.96258 ,4.76466 ,46.75084 
34 ,7.0318 ,0.96452 ,4.73728 ,46.48221 
35 ,7.2400 ,0.96656 ,4.72702 ,46.38148 
36 ,7.4479 ,0.96868 ,4.69622 ,46.07927 
37 ,7.6721 ,0.97086 ,4.66542 ,45.77707 
38 ,7.8639 ,0.97279 ,4.65857 ,45.70991 
39 ,8.0564 ,0.97476 ,4.63462 ,45.47486 
40 ,8.2479 ,0.97665 ,4.60724 ,45.20624 
41 ,8.4405 ,0.97860 ,4.61066 ,45.23981 
42 ,8.6486 ,0.98067 ,4.57302 ,44.87045 
43 ,8.8407 ,0.98261 ,4.57644 ,44.90403 
44 ,9.0488 ,0.98461 ,4.52853 ,44.43394 
45 ,9.2405 ,0.98662 ,4.52169 ,44.36678 
46 ,9.4489 ,0.98867 ,4.48746 ,44.03100 
47 ,9.6569 ,0.99076 ,4.46693 ,43.82953 
48 ,9.8491 ,0.99265 ,4.44640 ,43.62806 
49 ,10.0571 ,0.99472 ,4.45666 ,43.72879 
50 ,10.2810 ,0.99685 ,4.40533 ,43.22512 
51 ,10.4572 ,0.99885 ,4.38480 ,43.02365 
52 ,10.6492 ,1.00063 ,4.36769 ,42.85576 
53 ,10.8573 ,1.00274 ,4.36427 ,42.82218 
54 ,11.0656 ,1.00481 ,4.34373 ,42.62071 
55 ,11.2577 ,1.00678 ,4.31293 ,42.31850 
56 ,11.4654 ,1.00882 ,4.30267 ,42.21777 
57 ,11.6736 ,1.01087 ,4.26502 ,41.84841 
58 ,11.8819 ,1.01300 ,4.26160 ,41.81483 
59 ,12.0740 ,1.01491 ,4.23080 ,41.51262 
60 ,12.2817 ,1.01695 ,4.22738 ,41.47905 
61 ,12.4739 ,1.01888 ,4.20342 ,41.24400 
62 ,12.6502 ,1.02080 ,4.18974 ,41.10968 
63 ,12.8424 ,1.02259 ,4.17605 ,40.97537 
64 ,13.0343 ,1.02450 ,4.14867 ,40.70674 
65 ,13.2265 ,1.02640 ,4.13156 ,40.53885 
66 ,13.4186 ,1.02835 ,4.12471 ,40.47170 
67 ,13.6107 ,1.03029 ,4.09391 ,40.16949 
68 ,13.8186 ,1.03236 ,4.09391 ,40.16949 
69 ,14.0268 ,1.03438 ,4.04943 ,39.73297 
70 ,14.2189 ,1.03632 ,4.04943 ,39.73297 
71 ,14.4106 ,1.03825 ,4.00494 ,39.29646 
72 ,14.6031 ,1.04020 ,4.00152 ,39.26288 
73 ,14.7947 ,1.04212 ,3.97072 ,38.96067 
74 ,15.0033 ,1.04416 ,3.97072 ,38.96067 
75 ,15.2111 ,1.04620 ,3.93307 ,38.59131 
76 ,15.4039 ,1.04817 ,3.94334 ,38.69205 
77 ,15.5954 ,1.05015 ,3.90227 ,38.28911 
78 ,15.7876 ,1.05202 ,3.89885 ,38.25553 
79 ,15.9956 ,1.05412 ,3.87147 ,37.98690 
80 ,16.1877 ,1.05601 ,3.86805 ,37.95332 
81 ,16.3797 ,1.05794 ,3.84752 ,37.75185 
82 ,16.5879 ,1.06004 ,3.83725 ,37.65112 
83 ,16.7958 ,1.06208 ,3.80645 ,37.34891 
84 ,16.9876 ,1.06399 ,3.77565 ,37.04671 
85 ,17.1801 ,1.06593 ,3.75854 ,36.87882 
86 ,17.3722 ,1.06786 ,3.74143 ,36.71093 
87 ,17.5804 ,1.06990 ,3.73117 ,36.61019 
88 ,17.7724 ,1.07189 ,3.70379 ,36.34157 
89 ,17.9644 ,1.07381 ,3.71748 ,36.47588 
90 ,18.1563 ,1.07571 ,3.67299 ,36.03936 
91 ,18.3646 ,1.07772 ,3.65930 ,35.90505 
92 ,18.5724 ,1.07982 ,3.62850 ,35.60284 
93 ,18.7645 ,1.08177 ,3.64219 ,35.73716 
94 ,18.9728 ,1.08385 ,3.59770 ,35.30064 
95 ,19.1646 ,1.08581 ,3.60112 ,35.33422 
96 ,19.3731 ,1.08785 ,3.55663 ,34.89770 
97 ,19.5811 ,1.08996 ,3.56348 ,34.96485 
98 ,19.7734 ,1.09184 ,3.53610 ,34.69623 
99 ,19.9652 ,1.09376 ,3.51899 ,34.52834 
100 ,20.1573 ,1.09567 ,3.50188 ,34.36045 
101 ,20.3495 ,1.09761 ,3.48819 ,34.22613 
102 ,20.5416 ,1.09955 ,3.47108 ,34.05824 
103 ,20.7337 ,1.10146 ,3.43686 ,33.72246 
104 ,20.9417 ,1.10354 ,3.43344 ,33.68888 
105 ,21.1339 ,1.10547 ,3.40606 ,33.42025 
106 ,21.3574 ,1.10767 ,3.38895 ,33.25236 
107 ,21.5500 ,1.10965 ,3.37868 ,33.15163 
108 ,21.7580 ,1.11171 ,3.35130 ,32.88300 
109 ,21.9662 ,1.11376 ,3.34788 ,32.84942 
110 ,22.1741 ,1.11585 ,3.31024 ,32.48006 
111 ,22.3662 ,1.11781 ,3.32735 ,32.64795 
112 ,22.5424 ,1.11962 ,3.29313 ,32.31217 
113 ,22.7344 ,1.12149 ,3.26233 ,32.00996 
114 ,22.9266 ,1.12335 ,3.26575 ,32.04354 
115 ,23.1343 ,1.12545 ,3.23153 ,31.70776 
116 ,23.3267 ,1.12736 ,3.23153 ,31.70776 
117 ,23.5184 ,1.12930 ,3.21100 ,31.50629 
118 ,23.7269 ,1.13130 ,3.20073 ,31.40555 
119 ,23.9509 ,1.13360 ,3.17335 ,31.13693 
120 ,24.1427 ,1.13555 ,3.16309 ,31.03619 
121 ,24.3511 ,1.13764 ,3.13913 ,30.80115 
122 ,24.5433 ,1.13956 ,3.12886 ,30.70041 
123 ,24.7192 ,1.14141 ,3.09464 ,30.36463 
124 ,24.9114 ,1.14320 ,3.10491 ,30.46536 
125 ,25.1035 ,1.14514 ,3.07069 ,30.12958 
126 ,25.2954 ,1.14705 ,3.06042 ,30.02884 
127 ,25.4876 ,1.14899 ,3.05358 ,29.96169 
128 ,25.6953 ,1.15110 ,3.02962 ,29.72664 
129 ,25.8877 ,1.15301 ,3.01251 ,29.55875 
130 ,26.0798 ,1.15492 ,2.99540 ,29.39086 
131 ,26.2715 ,1.15682 ,2.97829 ,29.22297 
132 ,26.4638 ,1.15876 ,2.96802 ,29.12223 
133 ,26.6719 ,1.16080 ,2.95091 ,28.95434 
134 ,26.8639 ,1.16279 ,2.94064 ,28.85360 
135 ,27.0721 ,1.16479 ,2.90642 ,28.51782 
136 ,27.2804 ,1.16690 ,2.89273 ,28.38351 
137 ,27.4724 ,1.16884 ,2.89958 ,28.45066 
138 ,27.6967 ,1.17107 ,2.85851 ,28.04772 
139 ,27.8886 ,1.17295 ,2.86536 ,28.11488 
140 ,28.0968 ,1.17504 ,2.82771 ,27.74552 
141 ,28.3045 ,1.17714 ,2.82087 ,27.67836 
142 ,28.4969 ,1.17906 ,2.79007 ,27.37616 
143 ,28.6889 ,1.18100 ,2.79349 ,27.40974 
144 ,28.8971 ,1.18304 ,2.75585 ,27.04038 
145 ,29.0886 ,1.18511 ,2.76954 ,27.17469 
146 ,29.2810 ,1.18690 ,2.73874 ,26.87248 
147 ,29.4891 ,1.18902 ,2.72847 ,26.77175 
148 ,29.6976 ,1.19107 ,2.69425 ,26.43597 
149 ,29.8895 ,1.19298 ,2.70794 ,26.57028 
150 ,30.0977 ,1.19506 ,2.65660 ,26.06661 
151 ,30.3214 ,1.19715 ,2.66345 ,26.13376 
152 ,30.5136 ,1.19920 ,2.62581 ,25.76440 
153 ,30.7218 ,1.20124 ,2.61554 ,25.66367 
154 ,30.9137 ,1.20326 ,2.59501 ,25.46220 
155 ,31.1220 ,1.20528 ,2.59843 ,25.49577 
156 ,31.2977 ,1.20715 ,2.57105 ,25.22715 
157 ,31.4898 ,1.20898 ,2.55394 ,25.05926 
158 ,31.6979 ,1.21104 ,2.53341 ,24.85779 
159 ,31.8902 ,1.21296 ,2.52314 ,24.75705 
160 ,32.0821 ,1.21493 ,2.51972 ,24.72347 
161 ,32.2740 ,1.21684 ,2.48892 ,24.42127 
162 ,32.4663 ,1.21875 ,2.48892 ,24.42127 
163 ,32.6746 ,1.22088 ,2.46496 ,24.18622 
164 ,32.8665 ,1.22276 ,2.46839 ,24.21980 
165 ,33.0588 ,1.22470 ,2.42732 ,23.81686 
166 ,33.2505 ,1.22671 ,2.42390 ,23.78328 
167 ,33.4585 ,1.22862 ,2.39994 ,23.54823 
168 ,33.6511 ,1.23061 ,2.38625 ,23.41392 
169 ,33.8752 ,1.23280 ,2.35888 ,23.14529 
170 ,34.0671 ,1.23472 ,2.37941 ,23.34676 
171 ,34.2593 ,1.23668 ,2.34519 ,23.01098 
172 ,34.4513 ,1.23866 ,2.33150 ,22.87667 
173 ,34.6433 ,1.24051 ,2.31439 ,22.70877 
174 ,34.8355 ,1.24241 ,2.28701 ,22.44015 
175 ,35.0435 ,1.24450 ,2.28017 ,22.37299 
176 ,35.2357 ,1.24641 ,2.25279 ,22.10437 
177 ,35.4278 ,1.24834 ,2.25963 ,22.17152 
178 ,35.6196 ,1.25029 ,2.23226 ,21.90290 
179 ,35.8280 ,1.25239 ,2.21857 ,21.76858 
180 ,36.0360 ,1.25442 ,2.20488 ,21.63427 
181 ,36.2119 ,1.25631 ,2.19461 ,21.53353 
182 ,36.4040 ,1.25807 ,2.17750 ,21.36564 
183 ,36.6123 ,1.26019 ,2.15012 ,21.09702 
184 ,36.8198 ,1.26226 ,2.13644 ,20.96270 
185 ,37.0123 ,1.26418 ,2.11932 ,20.79481 
186 ,37.2043 ,1.26608 ,2.12275 ,20.82839 
187 ,37.4124 ,1.26818 ,2.09195 ,20.52619 
188 ,37.5880 ,1.27006 ,2.08852 ,20.49261 
189 ,37.7801 ,1.27195 ,2.05430 ,20.15682 
190 ,37.9882 ,1.27390 ,2.04404 ,20.05609 
191 ,38.1968 ,1.27602 ,2.02693 ,19.88820 
192 ,38.4210 ,1.27825 ,2.02350 ,19.85462 
193 ,38.6130 ,1.28023 ,2.00982 ,19.72031 
194 ,38.8048 ,1.28211 ,1.99955 ,19.61957 
195 ,38.9807 ,1.28396 ,1.97217 ,19.35094 
196 ,39.2052 ,1.28597 ,1.95164 ,19.14948 
197 ,39.3974 ,1.28800 ,1.93453 ,18.98158 
198 ,39.5895 ,1.29000 ,1.94822 ,19.11590 
199 ,39.7973 ,1.29199 ,1.90715 ,18.71296 
200 ,40.0057 ,1.29408 ,1.91399 ,18.78011 
201 ,40.2137 ,1.29616 ,1.88662 ,18.51149 
202 ,40.4218 ,1.29827 ,1.87977 ,18.44433 
203 ,40.6299 ,1.30031 ,1.86951 ,18.34360 
204 ,40.8219 ,1.30230 ,1.83186 ,17.97423 
205 ,41.0140 ,1.30419 ,1.82160 ,17.87350 
206 ,41.2216 ,1.30632 ,1.80791 ,17.73919 
207 ,41.4140 ,1.30817 ,1.77711 ,17.43698 
208 ,41.6064 ,1.31012 ,1.79080 ,17.57129 
209 ,41.8144 ,1.31215 ,1.77026 ,17.36983 
210 ,42.0224 ,1.31426 ,1.75315 ,17.20193 
211 ,42.2461 ,1.31630 ,1.72920 ,16.96689 
212 ,42.4546 ,1.31853 ,1.70524 ,16.73184 
213 ,42.6627 ,1.32066 ,1.71209 ,16.79899 
214 ,42.8546 ,1.32257 ,1.67786 ,16.46321 
215 ,43.0629 ,1.32464 ,1.67786 ,16.46321 
216 ,43.2549 ,1.32658 ,1.65049 ,16.19458 
217 ,43.4628 ,1.32866 ,1.65733 ,16.26174 
218 ,43.6706 ,1.33076 ,1.62995 ,15.99311 
219 ,43.8787 ,1.33288 ,1.61284 ,15.82522 
220 ,44.0868 ,1.33483 ,1.59916 ,15.69091 
221 ,44.2793 ,1.33686 ,1.58204 ,15.52302 
222 ,44.5032 ,1.33903 ,1.57862 ,15.48944 
223 ,44.6956 ,1.34104 ,1.54098 ,15.12008 
224 ,44.9039 ,1.34309 ,1.55467 ,15.25439 
225 ,45.0958 ,1.34499 ,1.51702 ,14.88503 
226 ,45.2877 ,1.34688 ,1.52045 ,14.91861 
227 ,45.4800 ,1.34884 ,1.49991 ,14.71714 
228 ,45.6876 ,1.35098 ,1.49649 ,14.68356 
229 ,45.8801 ,1.35285 ,1.47938 ,14.51567 
230 ,46.0878 ,1.35490 ,1.45885 ,14.31420 
231 ,46.2802 ,1.35682 ,1.44858 ,14.21346 
232 ,46.4723 ,1.35878 ,1.42120 ,13.94484 
233 ,46.6640 ,1.36069 ,1.42805 ,14.01199 
234 ,46.8724 ,1.36270 ,1.39383 ,13.67621 
235 ,47.0646 ,1.36464 ,1.39725 ,13.70979 
236 ,47.2726 ,1.36679 ,1.38014 ,13.54190 
237 ,47.4646 ,1.36867 ,1.36303 ,13.37401 
238 ,47.6564 ,1.37057 ,1.33907 ,13.13896 
239 ,47.8484 ,1.37260 ,1.34249 ,13.17254 
240 ,48.0406 ,1.37437 ,1.32538 ,13.00465 
241 ,48.2326 ,1.37630 ,1.30485 ,12.80318 
242 ,48.4250 ,1.37828 ,1.30143 ,12.76960 
243 ,48.6331 ,1.38036 ,1.27063 ,12.46739 
244 ,48.8252 ,1.38223 ,1.28432 ,12.60171 
245 ,49.0173 ,1.38420 ,1.24325 ,12.19877 
246 ,49.2096 ,1.38614 ,1.24667 ,12.23235 
247 ,49.4015 ,1.38803 ,1.23298 ,12.09803 
248 ,49.5936 ,1.39000 ,1.22272 ,11.99730 
249 ,49.7856 ,1.39181 ,1.19876 ,11.76225 
250 ,49.9773 ,1.39376 ,1.18165 ,11.59436 
251 ,50.1858 ,1.39581 ,1.17481 ,11.52720 
252 ,50.3936 ,1.39799 ,1.15085 ,11.29215 
253 ,50.5859 ,1.39990 ,1.16796 ,11.46004 
254 ,50.7941 ,1.40195 ,1.12690 ,11.05710 
255 ,50.9861 ,1.40387 ,1.13374 ,11.12426 
256 ,51.1777 ,1.40578 ,1.10979 ,10.88921 
257 ,51.3859 ,1.40778 ,1.09267 ,10.72132 
258 ,51.5781 ,1.40979 ,1.08241 ,10.62059 
259 ,51.7865 ,1.41180 ,1.07899 ,10.58701 
260 ,51.9945 ,1.41396 ,1.03450 ,10.15049 
261 ,52.2023 ,1.41596 ,1.05503 ,10.35196 
262 ,52.4108 ,1.41810 ,1.02081 ,10.01618 
263 ,52.6188 ,1.42016 ,1.01739 ,9.98260 
264 ,52.8108 ,1.42214 ,1.01396 ,9.94902 
265 ,53.0190 ,1.42418 ,0.98659 ,9.68039 
266 ,53.2111 ,1.42612 ,0.97974 ,9.61324 
267 ,53.4189 ,1.42819 ,0.96948 ,9.51250 
268 ,53.6112 ,1.43010 ,0.93183 ,9.14314 
269 ,53.8035 ,1.43203 ,0.94210 ,9.24388 
270 ,54.0114 ,1.43415 ,0.91814 ,9.00883 
271 ,54.2032 ,1.43606 ,0.90788 ,8.90809 
272 ,54.4272 ,1.43823 ,0.90103 ,8.84094 
273 ,54.6197 ,1.44024 ,0.88734 ,8.70662 
274 ,54.8277 ,1.44231 ,0.87708 ,8.60589 
275 ,55.0198 ,1.44419 ,0.86339 ,8.47158 
276 ,55.2277 ,1.44627 ,0.86681 ,8.50515 
277 ,55.4200 ,1.44821 ,0.84286 ,8.27011 
278 ,55.6279 ,1.45027 ,0.82917 ,8.13579 
279 ,55.8362 ,1.45234 ,0.80863 ,7.93432 
280 ,56.0282 ,1.45428 ,0.80863 ,7.93432 
281 ,56.2204 ,1.45632 ,0.78126 ,7.66570 
282 ,56.4123 ,1.45808 ,0.76072 ,7.46423 
283 ,56.6042 ,1.46000 ,0.77099 ,7.56496 
284 ,56.8126 ,1.46209 ,0.75046 ,7.36349 
285 ,57.0208 ,1.46422 ,0.74704 ,7.32991 
286 ,57.2123 ,1.46611 ,0.71624 ,7.02771 
287 ,57.3887 ,1.46799 ,0.72992 ,7.16202 
288 ,57.5970 ,1.46996 ,0.71624 ,7.02771 
289 ,57.7889 ,1.47187 ,0.70255 ,6.89340 
290 ,57.9811 ,1.47381 ,0.68886 ,6.75908 
291 ,58.1732 ,1.47573 ,0.65464 ,6.42330 
292 ,58.3812 ,1.47779 ,0.67175 ,6.59119 
293 ,58.5894 ,1.47974 ,0.63753 ,6.25541 
294 ,58.7970 ,1.48197 ,0.62726 ,6.15467 
295 ,59.0210 ,1.48414 ,0.62384 ,6.12109 
296 ,59.2290 ,1.48621 ,0.59304 ,5.81889 
297 ,59.4211 ,1.48827 ,0.58962 ,5.78531 
298 ,59.6293 ,1.49023 ,0.56908 ,5.58384 
299 ,59.8373 ,1.49235 ,0.54855 ,5.38237 
300 ,60.0296 ,1.49433 ,0.55882 ,5.48311 
301 ,60.2697 ,1.49650 ,0.54513 ,5.34879 
302 ,60.4781 ,1.49879 ,0.53486 ,5.24806 
303 ,60.6861 ,1.50085 ,0.52117 ,5.11375 
304 ,60.8783 ,1.50274 ,0.49380 ,4.84512 
305 ,61.0859 ,1.50480 ,0.49722 ,4.87870 
306 ,61.2784 ,1.50675 ,0.48353 ,4.74438 
307 ,61.4706 ,1.50872 ,0.45957 ,4.50934 
308 ,61.6786 ,1.51071 ,0.46984 ,4.61007 
309 ,61.8708 ,1.51270 ,0.44588 ,4.37502 
310 ,62.0627 ,1.51472 ,0.43904 ,4.30787 
311 ,62.2549 ,1.51650 ,0.42535 ,4.17355 
312 ,62.4627 ,1.51858 ,0.42877 ,4.20713 
313 ,62.6550 ,1.52046 ,0.40140 ,3.93850 
314 ,62.8630 ,1.52259 ,0.40140 ,3.93850 
315 ,63.0550 ,1.52450 ,0.38086 ,3.73703 
316 ,63.2469 ,1.52641 ,0.36375 ,3.56914 
317 ,63.4393 ,1.52836 ,0.36033 ,3.53557 
318 ,63.6474 ,1.53045 ,0.34664 ,3.40125 
319 ,63.8396 ,1.53236 ,0.34322 ,3.36767 
320 ,64.0317 ,1.53428 ,0.32953 ,3.23336 
321 ,64.2397 ,1.53638 ,0.30900 ,3.03189 
322 ,64.4318 ,1.53828 ,0.28847 ,2.83042 
323 ,64.6559 ,1.54043 ,0.30215 ,2.96473 
324 ,64.8480 ,1.54244 ,0.28504 ,2.79684 
325 ,65.0560 ,1.54448 ,0.26793 ,2.62895 
326 ,65.2481 ,1.54642 ,0.25424 ,2.49464 
327 ,65.4558 ,1.54858 ,0.24055 ,2.36032 
328 ,65.6483 ,1.55050 ,0.23371 ,2.29317 
329 ,65.8563 ,1.55253 ,0.22344 ,2.19243 
330 ,66.0642 ,1.55456 ,0.22002 ,2.15885 
331 ,66.2564 ,1.55654 ,0.21660 ,2.12528 
332 ,66.4485 ,1.55840 ,0.18238 ,1.78949 
333 ,66.6405 ,1.56047 ,0.17553 ,1.72234 
334 ,66.8324 ,1.56227 ,0.15842 ,1.55445 
335 ,67.0249 ,1.56421 ,0.17211 ,1.68876 
336 ,67.2330 ,1.56629 ,0.14816 ,1.45371 
337 ,67.4250 ,1.56816 ,0.13789 ,1.35298 
338 ,67.6169 ,1.57008 ,0.13789 ,1.35298 
339 ,67.8252 ,1.57215 ,0.12762 ,1.25224 
340 ,68.0334 ,1.57432 ,0.09340 ,0.91646 
341 ,68.2412 ,1.57632 ,0.10025 ,0.98361 
342 ,68.4495 ,1.57842 ,0.08314 ,0.81572 
343 ,68.6416 ,1.58036 ,0.07629 ,0.74857 
344 ,68.8655 ,1.58257 ,0.07629 ,0.74857 
345 ,69.0737 ,1.58468 ,0.04891 ,0.47994 
346 ,69.2497 ,1.58658 ,0.03865 ,0.37920 
347 ,69.4419 ,1.58837 ,0.04549 ,0.44636 
348 ,69.6500 ,1.59035 ,0.02838 ,0.27847 
349 ,69.8416 ,1.59237 ,0.03180 ,0.31205 
350 ,70.0503 ,1.59438 ,-0.00242 ,-0.02373 
351 ,70.2423 ,1.59637 ,0.00443 ,0.04342 
352 ,70.4341 ,1.59827 ,-0.01953 ,-0.19163 
353 ,70.6263 ,1.60019 ,-0.02637 ,-0.25878 
354 ,70.8344 ,1.60228 ,-0.03664 ,-0.35952 
355 ,71.0263 ,1.60423 ,-0.04006 ,-0.39310 
356 ,71.2344 ,1.60628 ,-0.06402 ,-0.62814 
357 ,71.4267 ,1.60818 ,-0.06744 ,-0.66172 
358 ,71.6346 ,1.61028 ,-0.08797 ,-0.86319 
359 ,71.8267 ,1.61223 ,-0.08113 ,-0.79604 
360 ,72.0186 ,1.61421 ,-0.10508 ,-1.03108 
361 ,72.2110 ,1.61605 ,-0.11193 ,-1.09824 
362 ,72.4348 ,1.61830 ,-0.12904 ,-1.26613 
363 ,72.6272 ,1.62026 ,-0.11193 ,-1.09824 
364 ,72.8193 ,1.62208 ,-0.13588 ,-1.33329 
365 ,73.0112 ,1.62405 ,-0.14615 ,-1.43402 
366 ,73.2029 ,1.62593 ,-0.14615 ,-1.43402 
367 ,73.4117 ,1.62789 ,-0.15984 ,-1.56834 
368 ,73.6197 ,1.63013 ,-0.15984 ,-1.56834 
369 ,73.8277 ,1.63223 ,-0.17695 ,-1.73623 
370 ,74.0197 ,1.63412 ,-0.19406 ,-1.90412 
371 ,74.2117 ,1.63605 ,-0.20433 ,-2.00485 
372 ,74.4200 ,1.63810 ,-0.20433 ,-2.00485 
373 ,74.6280 ,1.64020 ,-0.22144 ,-2.17275 
374 ,74.8202 ,1.64211 ,-0.21117 ,-2.07201 
375 ,75.0123 ,1.64406 ,-0.25908 ,-2.54211 
376 ,75.2201 ,1.64611 ,-0.24197 ,-2.37422 
377 ,75.4279 ,1.64815 ,-0.26935 ,-2.64284 
378 ,75.6366 ,1.65016 ,-0.26250 ,-2.57569 
379 ,75.8286 ,1.65220 ,-0.28304 ,-2.77716 
380 ,76.0525 ,1.65441 ,-0.29330 ,-2.87789 
381 ,76.2444 ,1.65632 ,-0.30015 ,-2.94505 
382 ,76.4366 ,1.65825 ,-0.31041 ,-3.04578 
383 ,76.6448 ,1.66039 ,-0.31384 ,-3.07936 
384 ,76.8528 ,1.66243 ,-0.34464 ,-3.38156 
385 ,77.0450 ,1.66437 ,-0.33779 ,-3.31441 
386 ,77.2369 ,1.66625 ,-0.36175 ,-3.54946 
387 ,77.4293 ,1.66817 ,-0.35490 ,-3.48230 
388 ,77.6208 ,1.67026 ,-0.37544 ,-3.68377 
389 ,77.8134 ,1.67205 ,-0.39597 ,-3.88524 
390 ,78.0054 ,1.67396 ,-0.38570 ,-3.78450 
391 ,78.1977 ,1.67590 ,-0.38570 ,-3.78450 
392 ,78.4375 ,1.67830 ,-0.41308 ,-4.05313 
393 ,78.6298 ,1.68023 ,-0.41992 ,-4.12029 
394 ,78.8375 ,1.68228 ,-0.42677 ,-4.18744 
395 ,79.0458 ,1.68435 ,-0.43019 ,-4.22102 
396 ,79.2379 ,1.68629 ,-0.45072 ,-4.42249 
397 ,79.4301 ,1.68817 ,-0.44730 ,-4.38891 
398 ,79.6220 ,1.69012 ,-0.44730 ,-4.38891 
399 ,79.8137 ,1.69199 ,-0.48494 ,-4.75828 
400 ,80.0064 ,1.69396 ,-0.48152 ,-4.72470 
401 ,80.2143 ,1.69604 ,-0.49863 ,-4.89259 
402 ,80.4063 ,1.69794 ,-0.49863 ,-4.89259 
403 ,80.5987 ,1.69992 ,-0.51574 ,-5.06048 
404 ,80.8067 ,1.70193 ,-0.53285 ,-5.22837 
405 ,81.0307 ,1.70413 ,-0.54997 ,-5.39626 
406 ,81.2227 ,1.70611 ,-0.52943 ,-5.19479 
407 ,81.4149 ,1.70805 ,-0.56023 ,-5.49700 
408 ,81.6071 ,1.70995 ,-0.54312 ,-5.32911 
409 ,81.7992 ,1.71190 ,-0.57050 ,-5.59773 
410 ,81.9907 ,1.71379 ,-0.59103 ,-5.79920 
411 ,82.1993 ,1.71582 ,-0.57392 ,-5.63131 
412 ,82.4072 ,1.71790 ,-0.58761 ,-5.76562 
413 ,82.5833 ,1.71986 ,-0.59788 ,-5.86636 
414 ,82.8076 ,1.72183 ,-0.62183 ,-6.10141 
415 ,83.0153 ,1.72404 ,-0.62525 ,-6.13499 
416 ,83.2236 ,1.72608 ,-0.63210 ,-6.20214 
417 ,83.4315 ,1.72821 ,-0.65263 ,-6.40361 
418 ,83.6558 ,1.73041 ,-0.65263 ,-6.40361 
419 ,83.8638 ,1.73255 ,-0.64579 ,-6.33646 
420 ,84.0721 ,1.73462 ,-0.68685 ,-6.73940 
421 ,84.2640 ,1.73653 ,-0.66290 ,-6.50435 
422 ,84.4560 ,1.73841 ,-0.68343 ,-6.70582 
423 ,84.6482 ,1.74034 ,-0.70739 ,-6.94086 
424 ,84.8723 ,1.74255 ,-0.70739 ,-6.94086 
425 ,85.0643 ,1.74451 ,-0.70054 ,-6.87371 
426 ,85.2720 ,1.74659 ,-0.73818 ,-7.24307 
427 ,85.4806 ,1.74864 ,-0.71081 ,-6.97444 
428 ,85.7045 ,1.75083 ,-0.73476 ,-7.20949 
429 ,85.8968 ,1.75286 ,-0.73818 ,-7.24307 
430 ,86.0887 ,1.75474 ,-0.75530 ,-7.41096 
431 ,86.2808 ,1.75665 ,-0.76214 ,-7.47812 
432 ,86.4729 ,1.75860 ,-0.78267 ,-7.67959 
433 ,86.6810 ,1.76070 ,-0.77583 ,-7.61243 
434 ,86.8731 ,1.76259 ,-0.80321 ,-7.88106 
435 ,87.0812 ,1.76465 ,-0.78952 ,-7.74674 
436 ,87.2732 ,1.76662 ,-0.81347 ,-7.98179 
437 ,87.4969 ,1.76883 ,-0.81005 ,-7.94821 
438 ,87.6896 ,1.77081 ,-0.82032 ,-8.04895 
439 ,87.8978 ,1.77285 ,-0.84769 ,-8.31758 
440 ,88.1057 ,1.77491 ,-0.84427 ,-8.28400 
441 ,88.2978 ,1.77689 ,-0.85112 ,-8.35115 
442 ,88.5057 ,1.77890 ,-0.85454 ,-8.38473 
443 ,88.7138 ,1.78097 ,-0.88192 ,-8.65336 
444 ,88.9220 ,1.78307 ,-0.86823 ,-8.51904 
445 ,89.1140 ,1.78511 ,-0.88192 ,-8.65336 
446 ,89.3062 ,1.78689 ,-0.89218 ,-8.75409 
447 ,89.4983 ,1.78886 ,-0.90245 ,-8.85483 
448 ,89.6901 ,1.79080 ,-0.90587 ,-8.88841 
449 ,89.8984 ,1.79287 ,-0.92640 ,-9.08988 
450 ,90.1063 ,1.79489 ,-0.92640 ,-9.08988 
451 ,90.3142 ,1.79699 ,-0.94009 ,-9.22419 
452 ,90.5227 ,1.79905 ,-0.93667 ,-9.19061 
453 ,90.7147 ,1.80097 ,-0.96405 ,-9.45924 
454 ,90.9070 ,1.80292 ,-0.95036 ,-9.32492 
455 ,91.0988 ,1.80495 ,-0.99485 ,-9.76144 
456 ,91.3072 ,1.80684 ,-0.97774 ,-9.59355 
457 ,91.4987 ,1.80889 ,-1.00854 ,-9.89576 
458 ,91.6912 ,1.81078 ,-1.00511 ,-9.86218 
459 ,91.8990 ,1.81282 ,-1.00511 ,-9.86218 
460 ,92.1074 ,1.81486 ,-0.99827 ,-9.79502 
461 ,92.3154 ,1.81696 ,-1.03249 ,-10.13080 
462 ,92.5076 ,1.81891 ,-1.02222 ,-10.03007 
