Data stamp = , 03-05-2022 11:31:10 732

Calibration Values: 
Slope = , 26.54 , g/V 
Offset Voltage at no contact = , -0.501760 , V 

No , Time , Stage Position ,   Mass , Force 
   ,  (s) ,      (mm)      ,   (g)  , (mN)  

1 ,0.0000 ,0.89943 ,5.27456 ,51.75401 
2 ,0.2166 ,0.89952 ,5.28141 ,51.82116 
3 ,0.8891 ,0.90229 ,5.28825 ,51.88832 
4 ,1.1131 ,0.90517 ,5.26430 ,51.65327 
5 ,1.3212 ,0.90737 ,5.28483 ,51.85474 
6 ,1.5135 ,0.90933 ,5.27798 ,51.78758 
7 ,1.7215 ,0.91137 ,5.25061 ,51.51896 
8 ,1.9296 ,0.91348 ,5.23007 ,51.31749 
9 ,2.1377 ,0.91559 ,5.18901 ,50.91455 
10 ,2.3455 ,0.91765 ,5.18216 ,50.84739 
11 ,2.5536 ,0.91969 ,5.16163 ,50.64592 
12 ,2.7456 ,0.92164 ,5.13425 ,50.37729 
13 ,2.9215 ,0.92351 ,5.11714 ,50.20940 
14 ,3.1141 ,0.92530 ,5.10345 ,50.07509 
15 ,3.3385 ,0.92741 ,5.08634 ,49.90720 
16 ,3.5304 ,0.92951 ,5.06239 ,49.67215 
17 ,3.7385 ,0.93152 ,5.02474 ,49.30279 
18 ,3.9461 ,0.93365 ,5.01790 ,49.23563 
19 ,4.1545 ,0.93568 ,4.98710 ,48.93343 
20 ,4.3625 ,0.93781 ,4.96657 ,48.73196 
21 ,4.5708 ,0.93990 ,4.95630 ,48.63122 
22 ,4.7625 ,0.94179 ,4.92550 ,48.32902 
23 ,4.9709 ,0.94385 ,4.91181 ,48.19471 
24 ,5.1788 ,0.94597 ,4.88101 ,47.89250 
25 ,5.3710 ,0.94783 ,4.85706 ,47.65745 
26 ,5.5632 ,0.94979 ,4.86048 ,47.69103 
27 ,5.7712 ,0.95186 ,4.82284 ,47.32167 
28 ,5.9632 ,0.95378 ,4.80915 ,47.18736 
29 ,6.1869 ,0.95601 ,4.78177 ,46.91873 
30 ,6.3954 ,0.95808 ,4.75097 ,46.61653 
31 ,6.6195 ,0.96030 ,4.73044 ,46.41506 
32 ,6.8116 ,0.96228 ,4.71333 ,46.24716 
33 ,7.0037 ,0.96420 ,4.69964 ,46.11285 
34 ,7.1958 ,0.96614 ,4.67226 ,45.84422 
35 ,7.3878 ,0.96808 ,4.67226 ,45.84422 
36 ,7.5959 ,0.97013 ,4.62435 ,45.37413 
37 ,7.7879 ,0.97201 ,4.61066 ,45.23981 
38 ,7.9801 ,0.97395 ,4.59355 ,45.07192 
39 ,8.2200 ,0.97621 ,4.57644 ,44.90403 
40 ,8.4118 ,0.97825 ,4.55249 ,44.66898 
41 ,8.6201 ,0.98037 ,4.52853 ,44.43394 
42 ,8.8445 ,0.98248 ,4.52511 ,44.40036 
43 ,9.0520 ,0.98459 ,4.47378 ,43.89668 
44 ,9.2447 ,0.98662 ,4.48062 ,43.96384 
45 ,9.4528 ,0.98866 ,4.42586 ,43.42659 
46 ,9.6607 ,0.99079 ,4.43955 ,43.56090 
47 ,9.8850 ,0.99296 ,4.42586 ,43.42659 
48 ,10.0768 ,0.99491 ,4.37795 ,42.95649 
49 ,10.2851 ,0.99703 ,4.37111 ,42.88933 
50 ,10.5092 ,0.99918 ,4.35742 ,42.75502 
51 ,10.7012 ,1.00115 ,4.34716 ,42.65429 
52 ,10.8934 ,1.00309 ,4.31636 ,42.35208 
53 ,11.1174 ,1.00528 ,4.28556 ,42.04988 
54 ,11.3094 ,1.00727 ,4.27871 ,41.98272 
55 ,11.5175 ,1.00937 ,4.24449 ,41.64694 
56 ,11.7253 ,1.01135 ,4.23765 ,41.57978 
57 ,11.9337 ,1.01344 ,4.19658 ,41.17684 
58 ,12.1256 ,1.01542 ,4.20685 ,41.27758 
59 ,12.3179 ,1.01732 ,4.16920 ,40.90821 
60 ,12.4934 ,1.01923 ,4.16578 ,40.87464 
61 ,12.6859 ,1.02096 ,4.15209 ,40.74032 
62 ,12.8939 ,1.02306 ,4.10418 ,40.27023 
63 ,13.1022 ,1.02516 ,4.10418 ,40.27023 
64 ,13.3424 ,1.02739 ,4.08707 ,40.10233 
65 ,13.5500 ,1.02959 ,4.05969 ,39.83371 
66 ,13.7585 ,1.03170 ,4.04258 ,39.66582 
67 ,13.9666 ,1.03380 ,4.03574 ,39.59866 
68 ,14.1747 ,1.03589 ,3.99125 ,39.16214 
69 ,14.3827 ,1.03798 ,3.99467 ,39.19572 
70 ,14.5749 ,1.03989 ,3.95361 ,38.79278 
71 ,14.7827 ,1.04193 ,3.96045 ,38.85994 
72 ,14.9906 ,1.04402 ,3.92965 ,38.55773 
73 ,15.1991 ,1.04612 ,3.92623 ,38.52415 
74 ,15.4070 ,1.04817 ,3.90227 ,38.28911 
75 ,15.5991 ,1.05008 ,3.88858 ,38.15479 
76 ,15.8072 ,1.05212 ,3.85436 ,37.81901 
77 ,15.9993 ,1.05412 ,3.84752 ,37.75185 
78 ,16.1914 ,1.05601 ,3.81330 ,37.41607 
79 ,16.3837 ,1.05795 ,3.81330 ,37.41607 
80 ,16.5916 ,1.06002 ,3.78592 ,37.14744 
81 ,16.7997 ,1.06218 ,3.76539 ,36.94597 
82 ,16.9918 ,1.06409 ,3.75854 ,36.87882 
83 ,17.1995 ,1.06614 ,3.73117 ,36.61019 
84 ,17.4080 ,1.06820 ,3.71063 ,36.40872 
85 ,17.6159 ,1.07025 ,3.69010 ,36.20725 
86 ,17.8080 ,1.07219 ,3.69010 ,36.20725 
87 ,18.0164 ,1.07426 ,3.65930 ,35.90505 
88 ,18.2080 ,1.07619 ,3.64561 ,35.77073 
89 ,18.4160 ,1.07823 ,3.62850 ,35.60284 
90 ,18.6242 ,1.08025 ,3.60454 ,35.36779 
91 ,18.8165 ,1.08231 ,3.58743 ,35.19990 
92 ,19.0246 ,1.08436 ,3.59428 ,35.26706 
93 ,19.2165 ,1.08630 ,3.55663 ,34.89770 
94 ,19.4244 ,1.08831 ,3.55321 ,34.86412 
95 ,19.6489 ,1.09049 ,3.52241 ,34.56192 
96 ,19.8570 ,1.09269 ,3.50530 ,34.39402 
97 ,20.0491 ,1.09460 ,3.48819 ,34.22613 
98 ,20.2413 ,1.09650 ,3.47792 ,34.12540 
99 ,20.4333 ,1.09847 ,3.45055 ,33.85677 
100 ,20.6252 ,1.10035 ,3.46081 ,33.95751 
101 ,20.8494 ,1.10244 ,3.40948 ,33.45383 
102 ,21.0574 ,1.10468 ,3.40948 ,33.45383 
103 ,21.2656 ,1.10669 ,3.39579 ,33.31952 
104 ,21.4576 ,1.10872 ,3.36499 ,33.01731 
105 ,21.6655 ,1.11069 ,3.34788 ,32.84942 
106 ,21.8577 ,1.11267 ,3.34104 ,32.78227 
107 ,22.0978 ,1.11496 ,3.32393 ,32.61437 
108 ,22.3060 ,1.11714 ,3.30339 ,32.41290 
109 ,22.5138 ,1.11917 ,3.27259 ,32.11070 
110 ,22.7218 ,1.12130 ,3.26917 ,32.07712 
111 ,22.9303 ,1.12338 ,3.24522 ,31.84207 
112 ,23.1384 ,1.12548 ,3.24180 ,31.80849 
113 ,23.3305 ,1.12748 ,3.21100 ,31.50629 
114 ,23.5380 ,1.12945 ,3.20415 ,31.43913 
115 ,23.7305 ,1.13137 ,3.16651 ,31.06977 
116 ,23.9384 ,1.13348 ,3.16993 ,31.10335 
117 ,24.1308 ,1.13544 ,3.14597 ,30.86830 
118 ,24.3229 ,1.13733 ,3.14255 ,30.83472 
119 ,24.5312 ,1.13943 ,3.10833 ,30.49894 
120 ,24.7549 ,1.14169 ,3.08780 ,30.29747 
121 ,24.9466 ,1.14366 ,3.09806 ,30.39821 
122 ,25.1392 ,1.14546 ,3.07753 ,30.19674 
123 ,25.3472 ,1.14752 ,3.04673 ,29.89453 
124 ,25.5395 ,1.14949 ,3.03647 ,29.79380 
125 ,25.7474 ,1.15154 ,3.01593 ,29.59233 
126 ,25.9555 ,1.15363 ,2.98513 ,29.29012 
127 ,26.1635 ,1.15571 ,2.98513 ,29.29012 
128 ,26.3716 ,1.15780 ,2.96118 ,29.05507 
129 ,26.5638 ,1.15970 ,2.95433 ,28.98792 
130 ,26.7557 ,1.16164 ,2.93038 ,28.75287 
131 ,26.9480 ,1.16354 ,2.92696 ,28.71929 
132 ,27.1396 ,1.16548 ,2.90642 ,28.51782 
133 ,27.3322 ,1.16744 ,2.88589 ,28.31635 
134 ,27.5240 ,1.16937 ,2.87905 ,28.24919 
135 ,27.7323 ,1.17141 ,2.84140 ,27.87983 
136 ,27.9405 ,1.17346 ,2.84482 ,27.91341 
137 ,28.1484 ,1.17550 ,2.81060 ,27.57763 
138 ,28.3409 ,1.17753 ,2.81402 ,27.61121 
139 ,28.5486 ,1.17956 ,2.78665 ,27.34258 
140 ,28.7563 ,1.18168 ,2.78322 ,27.30900 
141 ,28.9488 ,1.18356 ,2.74900 ,26.97322 
142 ,29.1248 ,1.18543 ,2.74216 ,26.90606 
143 ,29.3164 ,1.18725 ,2.72163 ,26.70459 
144 ,29.5244 ,1.18932 ,2.71136 ,26.60386 
145 ,29.7325 ,1.19133 ,2.68398 ,26.33523 
146 ,29.9410 ,1.19339 ,2.68740 ,26.36881 
147 ,30.1650 ,1.19569 ,2.66003 ,26.10018 
148 ,30.3572 ,1.19763 ,2.63949 ,25.89871 
149 ,30.5652 ,1.19974 ,2.62581 ,25.76440 
150 ,30.8216 ,1.20213 ,2.58816 ,25.39504 
151 ,31.0298 ,1.20441 ,2.58132 ,25.32788 
152 ,31.2218 ,1.20629 ,2.58474 ,25.36146 
153 ,31.4298 ,1.20837 ,2.55394 ,25.05926 
154 ,31.6219 ,1.21027 ,2.53683 ,24.89136 
155 ,31.8140 ,1.21225 ,2.52656 ,24.79063 
156 ,32.0220 ,1.21430 ,2.51972 ,24.72347 
157 ,32.2140 ,1.21620 ,2.47523 ,24.28696 
158 ,32.4060 ,1.21811 ,2.47865 ,24.32053 
159 ,32.5979 ,1.22000 ,2.45812 ,24.11906 
160 ,32.8063 ,1.22207 ,2.42732 ,23.81686 
161 ,33.0145 ,1.22422 ,2.42390 ,23.78328 
162 ,33.2225 ,1.22633 ,2.42390 ,23.78328 
163 ,33.4146 ,1.22833 ,2.38283 ,23.38034 
164 ,33.6066 ,1.23010 ,2.39310 ,23.48108 
165 ,33.7828 ,1.23200 ,2.38283 ,23.38034 
166 ,33.9587 ,1.23376 ,2.35545 ,23.11171 
167 ,34.1349 ,1.23550 ,2.33492 ,22.91024 
168 ,34.3270 ,1.23730 ,2.34519 ,23.01098 
169 ,34.5187 ,1.23924 ,2.32465 ,22.80951 
170 ,34.7112 ,1.24117 ,2.28701 ,22.44015 
171 ,34.9031 ,1.24315 ,2.30070 ,22.57446 
172 ,35.0953 ,1.24499 ,2.26990 ,22.27226 
173 ,35.2874 ,1.24691 ,2.24252 ,22.00363 
174 ,35.4955 ,1.24899 ,2.23910 ,21.97005 
175 ,35.6876 ,1.25096 ,2.22541 ,21.83574 
176 ,35.8954 ,1.25297 ,2.20488 ,21.63427 
177 ,36.1036 ,1.25510 ,2.19803 ,21.56711 
178 ,36.3279 ,1.25729 ,2.17066 ,21.29849 
179 ,36.5357 ,1.25934 ,2.16039 ,21.19775 
180 ,36.7598 ,1.26146 ,2.14670 ,21.06344 
181 ,36.9681 ,1.26373 ,2.13301 ,20.92912 
182 ,37.1761 ,1.26581 ,2.12959 ,20.89555 
183 ,37.3843 ,1.26784 ,2.09879 ,20.59334 
184 ,37.5759 ,1.26982 ,2.06799 ,20.29114 
185 ,37.7684 ,1.27170 ,2.05773 ,20.19040 
186 ,37.9765 ,1.27377 ,2.05430 ,20.15682 
187 ,38.1681 ,1.27574 ,2.03035 ,19.92178 
188 ,38.3443 ,1.27758 ,2.02693 ,19.88820 
189 ,38.5368 ,1.27940 ,2.00982 ,19.72031 
190 ,38.7451 ,1.28150 ,1.99613 ,19.58599 
191 ,38.9368 ,1.28344 ,1.98244 ,19.45168 
192 ,39.1450 ,1.28548 ,1.96533 ,19.28379 
193 ,39.3370 ,1.28744 ,1.95506 ,19.18305 
194 ,39.5454 ,1.28950 ,1.93111 ,18.94801 
195 ,39.7531 ,1.29153 ,1.91057 ,18.74654 
196 ,39.9612 ,1.29351 ,1.90031 ,18.64580 
197 ,40.1693 ,1.29574 ,1.88319 ,18.47791 
198 ,40.3610 ,1.29762 ,1.87635 ,18.41075 
199 ,40.5536 ,1.29956 ,1.84897 ,18.14213 
200 ,40.7616 ,1.30158 ,1.84555 ,18.10855 
201 ,40.9537 ,1.30359 ,1.82502 ,17.90708 
202 ,41.1617 ,1.30565 ,1.82502 ,17.90708 
203 ,41.3538 ,1.30760 ,1.81133 ,17.77276 
204 ,41.5776 ,1.30979 ,1.78395 ,17.50414 
205 ,41.7859 ,1.31184 ,1.76342 ,17.30267 
206 ,41.9942 ,1.31396 ,1.75315 ,17.20193 
207 ,42.1860 ,1.31600 ,1.73604 ,17.03404 
208 ,42.3783 ,1.31776 ,1.73262 ,17.00046 
209 ,42.5700 ,1.31986 ,1.69840 ,16.66468 
210 ,42.7945 ,1.32197 ,1.68471 ,16.53037 
211 ,43.0184 ,1.32413 ,1.68813 ,16.56395 
212 ,43.2427 ,1.32641 ,1.67102 ,16.39605 
213 ,43.4349 ,1.32837 ,1.64364 ,16.12743 
214 ,43.6424 ,1.33044 ,1.63338 ,16.02669 
215 ,43.8350 ,1.33241 ,1.61969 ,15.89238 
216 ,44.0591 ,1.33458 ,1.60600 ,15.75807 
217 ,44.2671 ,1.33670 ,1.57520 ,15.45586 
218 ,44.4592 ,1.33863 ,1.59916 ,15.69091 
219 ,44.6670 ,1.34066 ,1.55809 ,15.28797 
220 ,44.8751 ,1.34279 ,1.55467 ,15.25439 
221 ,45.0994 ,1.34497 ,1.53756 ,15.08650 
222 ,45.2912 ,1.34690 ,1.51360 ,14.85145 
223 ,45.4836 ,1.34887 ,1.51018 ,14.81787 
224 ,45.6919 ,1.35089 ,1.48965 ,14.61640 
225 ,45.8998 ,1.35302 ,1.47596 ,14.48209 
226 ,46.0758 ,1.35489 ,1.46569 ,14.38136 
227 ,46.2680 ,1.35668 ,1.44174 ,14.14631 
228 ,46.5241 ,1.35924 ,1.41436 ,13.87768 
229 ,46.7161 ,1.36128 ,1.40409 ,13.77695 
230 ,46.9079 ,1.36303 ,1.38356 ,13.57548 
231 ,47.1162 ,1.36512 ,1.39040 ,13.64263 
232 ,47.3245 ,1.36729 ,1.37671 ,13.50832 
233 ,47.5481 ,1.36933 ,1.36303 ,13.37401 
234 ,47.7407 ,1.37137 ,1.35276 ,13.27327 
235 ,47.9486 ,1.37341 ,1.32196 ,12.97107 
236 ,48.1567 ,1.37551 ,1.31169 ,12.87033 
237 ,48.3646 ,1.37765 ,1.29458 ,12.70244 
238 ,48.5729 ,1.37969 ,1.27405 ,12.50097 
239 ,48.7648 ,1.38166 ,1.26378 ,12.40024 
240 ,48.9732 ,1.38373 ,1.26378 ,12.40024 
241 ,49.1649 ,1.38567 ,1.25009 ,12.26592 
242 ,49.3408 ,1.38752 ,1.25352 ,12.29950 
243 ,49.5329 ,1.38936 ,1.21929 ,11.96372 
244 ,49.7252 ,1.39124 ,1.20218 ,11.79583 
245 ,49.9173 ,1.39316 ,1.19876 ,11.76225 
246 ,50.1417 ,1.39533 ,1.16112 ,11.39289 
247 ,50.3657 ,1.39764 ,1.15770 ,11.35931 
248 ,50.5738 ,1.39973 ,1.14743 ,11.25857 
249 ,50.7819 ,1.40176 ,1.13032 ,11.09068 
250 ,50.9739 ,1.40380 ,1.12005 ,10.98995 
251 ,51.1658 ,1.40564 ,1.11321 ,10.92279 
252 ,51.3577 ,1.40771 ,1.09267 ,10.72132 
253 ,51.5502 ,1.40946 ,1.06530 ,10.45270 
254 ,51.7743 ,1.41158 ,1.06530 ,10.45270 
255 ,51.9822 ,1.41380 ,1.06187 ,10.41912 
256 ,52.1904 ,1.41593 ,1.04134 ,10.21765 
257 ,52.3820 ,1.41787 ,1.03450 ,10.15049 
258 ,52.5905 ,1.41983 ,1.01739 ,9.98260 
259 ,52.7987 ,1.42196 ,1.00028 ,9.81471 
260 ,52.9905 ,1.42394 ,0.98659 ,9.68039 
261 ,53.1987 ,1.42597 ,0.98317 ,9.64682 
262 ,53.3906 ,1.42787 ,0.95921 ,9.41177 
263 ,53.6306 ,1.43020 ,0.96605 ,9.47892 
264 ,53.8231 ,1.43222 ,0.93868 ,9.21030 
265 ,54.0472 ,1.43431 ,0.91472 ,8.97525 
266 ,54.2553 ,1.43654 ,0.92499 ,9.07598 
267 ,54.4634 ,1.43862 ,0.90103 ,8.84094 
268 ,54.6554 ,1.44053 ,0.88734 ,8.70662 
269 ,54.8474 ,1.44243 ,0.85997 ,8.43800 
270 ,55.0395 ,1.44438 ,0.87708 ,8.60589 
271 ,55.2318 ,1.44626 ,0.84970 ,8.33726 
272 ,55.4398 ,1.44837 ,0.84628 ,8.30368 
273 ,55.6313 ,1.45037 ,0.81890 ,8.03506 
274 ,55.8398 ,1.45235 ,0.80863 ,7.93432 
275 ,56.0479 ,1.45444 ,0.78468 ,7.69927 
276 ,56.2401 ,1.45633 ,0.79495 ,7.80001 
277 ,56.4481 ,1.45843 ,0.76072 ,7.46423 
278 ,56.6404 ,1.46035 ,0.76072 ,7.46423 
279 ,56.8321 ,1.46234 ,0.75046 ,7.36349 
280 ,57.0245 ,1.46419 ,0.74019 ,7.26276 
281 ,57.2163 ,1.46610 ,0.73677 ,7.22918 
282 ,57.4086 ,1.46805 ,0.70939 ,6.96055 
283 ,57.6167 ,1.47008 ,0.70597 ,6.92697 
284 ,57.8404 ,1.47236 ,0.69228 ,6.79266 
285 ,58.0327 ,1.47432 ,0.66833 ,6.55761 
286 ,58.2410 ,1.47636 ,0.67175 ,6.59119 
287 ,58.4330 ,1.47830 ,0.66148 ,6.49046 
288 ,58.6251 ,1.48018 ,0.63753 ,6.25541 
289 ,58.8172 ,1.48216 ,0.64095 ,6.28899 
290 ,59.0091 ,1.48404 ,0.60673 ,5.95320 
291 ,59.2171 ,1.48611 ,0.61015 ,5.98678 
292 ,59.4254 ,1.48819 ,0.57935 ,5.68458 
293 ,59.6175 ,1.49010 ,0.58962 ,5.78531 
294 ,59.8257 ,1.49222 ,0.56566 ,5.55026 
295 ,60.0333 ,1.49427 ,0.55539 ,5.44953 
296 ,60.2416 ,1.49630 ,0.53486 ,5.24806 
297 ,60.4499 ,1.49841 ,0.52117 ,5.11375 
298 ,60.6417 ,1.50036 ,0.52117 ,5.11375 
299 ,60.8501 ,1.50236 ,0.50748 ,4.97943 
300 ,61.0581 ,1.50455 ,0.50748 ,4.97943 
301 ,61.2822 ,1.50668 ,0.48353 ,4.74438 
302 ,61.4900 ,1.50886 ,0.46984 ,4.61007 
303 ,61.6983 ,1.51096 ,0.46300 ,4.54291 
304 ,61.8903 ,1.51286 ,0.44931 ,4.40860 
305 ,62.0985 ,1.51494 ,0.42877 ,4.20713 
306 ,62.2741 ,1.51682 ,0.42193 ,4.13997 
307 ,62.4663 ,1.51861 ,0.41509 ,4.07282 
308 ,62.6748 ,1.52068 ,0.41166 ,4.03924 
309 ,62.8828 ,1.52267 ,0.38429 ,3.77061 
310 ,63.0909 ,1.52488 ,0.36718 ,3.60272 
311 ,63.2825 ,1.52676 ,0.37060 ,3.63630 
312 ,63.4911 ,1.52882 ,0.36033 ,3.53557 
313 ,63.7311 ,1.53126 ,0.32269 ,3.16620 
314 ,63.9393 ,1.53332 ,0.33295 ,3.26694 
315 ,64.1313 ,1.53526 ,0.29873 ,2.93116 
316 ,64.3235 ,1.53718 ,0.31926 ,3.13263 
317 ,64.5314 ,1.53924 ,0.29531 ,2.89758 
318 ,64.7236 ,1.54118 ,0.28162 ,2.76326 
319 ,64.9315 ,1.54330 ,0.28162 ,2.76326 
320 ,65.1235 ,1.54516 ,0.25424 ,2.49464 
321 ,65.3317 ,1.54727 ,0.25424 ,2.49464 
322 ,65.5397 ,1.54931 ,0.23371 ,2.29317 
323 ,65.7315 ,1.55125 ,0.22344 ,2.19243 
324 ,65.9240 ,1.55317 ,0.20976 ,2.05812 
325 ,66.1477 ,1.55539 ,0.20976 ,2.05812 
326 ,66.3401 ,1.55733 ,0.20291 ,1.99096 
327 ,66.5319 ,1.55926 ,0.17553 ,1.72234 
328 ,66.7401 ,1.56128 ,0.17211 ,1.68876 
329 ,66.9481 ,1.56342 ,0.15158 ,1.48729 
330 ,67.1564 ,1.56550 ,0.16185 ,1.58802 
331 ,67.3646 ,1.56757 ,0.11736 ,1.15151 
332 ,67.5726 ,1.56966 ,0.13789 ,1.35298 
333 ,67.7809 ,1.57168 ,0.11736 ,1.15151 
334 ,67.9887 ,1.57378 ,0.10025 ,0.98361 
335 ,68.1969 ,1.57591 ,0.11393 ,1.11793 
336 ,68.4049 ,1.57795 ,0.07971 ,0.78214 
337 ,68.5969 ,1.57987 ,0.08656 ,0.84930 
338 ,68.8050 ,1.58202 ,0.06945 ,0.68141 
339 ,69.0288 ,1.58417 ,0.05576 ,0.54710 
340 ,69.2211 ,1.58614 ,0.03180 ,0.31205 
341 ,69.4294 ,1.58824 ,0.02838 ,0.27847 
342 ,69.6214 ,1.59015 ,0.03522 ,0.34563 
343 ,69.8131 ,1.59204 ,0.01811 ,0.17773 
344 ,70.0214 ,1.59410 ,-0.01269 ,-0.12447 
345 ,70.2297 ,1.59618 ,-0.01269 ,-0.12447 
346 ,70.4376 ,1.59820 ,-0.00584 ,-0.05731 
347 ,70.6458 ,1.60034 ,-0.04006 ,-0.39310 
348 ,70.8700 ,1.60263 ,-0.04006 ,-0.39310 
349 ,71.1100 ,1.60487 ,-0.03322 ,-0.32594 
350 ,71.3181 ,1.60710 ,-0.05375 ,-0.52741 
351 ,71.5259 ,1.60910 ,-0.08455 ,-0.82961 
352 ,71.7177 ,1.61107 ,-0.08113 ,-0.79604 
353 ,71.9103 ,1.61302 ,-0.10508 ,-1.03108 
354 ,72.1025 ,1.61490 ,-0.11193 ,-1.09824 
355 ,72.2943 ,1.61688 ,-0.10508 ,-1.03108 
356 ,72.4866 ,1.61875 ,-0.13246 ,-1.29971 
357 ,72.6798 ,1.62070 ,-0.12219 ,-1.19898 
358 ,72.9026 ,1.62293 ,-0.15299 ,-1.50118 
359 ,73.1104 ,1.62500 ,-0.16326 ,-1.60191 
360 ,73.3190 ,1.62706 ,-0.14957 ,-1.46760 
361 ,73.5269 ,1.62907 ,-0.17695 ,-1.73623 
362 ,73.7191 ,1.63108 ,-0.18037 ,-1.76981 
363 ,73.9112 ,1.63299 ,-0.19064 ,-1.87054 
364 ,74.1193 ,1.63504 ,-0.20090 ,-1.97128 
365 ,74.3272 ,1.63713 ,-0.21459 ,-2.10559 
366 ,74.5514 ,1.63936 ,-0.22144 ,-2.17275 
367 ,74.7435 ,1.64134 ,-0.23855 ,-2.34064 
368 ,74.9357 ,1.64325 ,-0.21802 ,-2.13917 
369 ,75.1438 ,1.64527 ,-0.26593 ,-2.60926 
370 ,75.3517 ,1.64740 ,-0.25908 ,-2.54211 
371 ,75.5437 ,1.64931 ,-0.27619 ,-2.71000 
372 ,75.7358 ,1.65122 ,-0.27619 ,-2.71000 
373 ,75.9439 ,1.65333 ,-0.30015 ,-2.94505 
374 ,76.1362 ,1.65527 ,-0.28988 ,-2.84431 
375 ,76.3280 ,1.65718 ,-0.31726 ,-3.11294 
376 ,76.5361 ,1.65918 ,-0.32410 ,-3.18010 
377 ,76.7445 ,1.66131 ,-0.34121 ,-3.34799 
378 ,76.9360 ,1.66330 ,-0.33437 ,-3.28083 
379 ,77.1446 ,1.66530 ,-0.36175 ,-3.54946 
380 ,77.3367 ,1.66728 ,-0.35148 ,-3.44872 
381 ,77.5447 ,1.66935 ,-0.36859 ,-3.61661 
382 ,77.7527 ,1.67142 ,-0.38570 ,-3.78450 
383 ,77.9448 ,1.67330 ,-0.41308 ,-4.05313 
384 ,78.1367 ,1.67527 ,-0.38912 ,-3.81808 
385 ,78.3290 ,1.67717 ,-0.40623 ,-3.98597 
386 ,78.5208 ,1.67913 ,-0.40623 ,-3.98597 
387 ,78.7611 ,1.68128 ,-0.43019 ,-4.22102 
388 ,78.9691 ,1.68358 ,-0.44046 ,-4.32176 
389 ,79.1611 ,1.68549 ,-0.45072 ,-4.42249 
390 ,79.3693 ,1.68756 ,-0.46783 ,-4.59038 
391 ,79.5775 ,1.68958 ,-0.47126 ,-4.62396 
392 ,79.7856 ,1.69168 ,-0.49179 ,-4.82543 
393 ,80.0095 ,1.69399 ,-0.49521 ,-4.85901 
394 ,80.2017 ,1.69588 ,-0.50548 ,-4.95975 
395 ,80.3937 ,1.69788 ,-0.51574 ,-5.06048 
396 ,80.6019 ,1.69976 ,-0.52943 ,-5.19479 
397 ,80.8099 ,1.70196 ,-0.53970 ,-5.29553 
398 ,81.0180 ,1.70398 ,-0.53970 ,-5.29553 
399 ,81.2100 ,1.70595 ,-0.54997 ,-5.39626 
400 ,81.4180 ,1.70802 ,-0.54654 ,-5.36268 
401 ,81.6424 ,1.71019 ,-0.58077 ,-5.69847 
402 ,81.8499 ,1.71235 ,-0.59103 ,-5.79920 
403 ,82.0426 ,1.71425 ,-0.59788 ,-5.86636 
404 ,82.2507 ,1.71633 ,-0.60130 ,-5.89994 
405 ,82.4587 ,1.71840 ,-0.61156 ,-6.00067 
406 ,82.6665 ,1.72056 ,-0.63894 ,-6.26930 
407 ,82.8907 ,1.72267 ,-0.62183 ,-6.10141 
408 ,83.1148 ,1.72492 ,-0.63210 ,-6.20214 
409 ,83.3229 ,1.72707 ,-0.64921 ,-6.37003 
410 ,83.5312 ,1.72905 ,-0.63894 ,-6.26930 
411 ,83.7549 ,1.73137 ,-0.65263 ,-6.40361 
412 ,83.9313 ,1.73327 ,-0.67316 ,-6.60508 
413 ,84.1235 ,1.73513 ,-0.68001 ,-6.67224 
414 ,84.3314 ,1.73717 ,-0.68685 ,-6.73940 
415 ,84.5235 ,1.73908 ,-0.70396 ,-6.90729 
416 ,84.7157 ,1.74101 ,-0.70396 ,-6.90729 
417 ,84.9077 ,1.74297 ,-0.73134 ,-7.17591 
418 ,85.0834 ,1.74478 ,-0.73476 ,-7.20949 
419 ,85.2919 ,1.74676 ,-0.72450 ,-7.10876 
420 ,85.4997 ,1.74886 ,-0.73476 ,-7.20949 
421 ,85.6921 ,1.75083 ,-0.74503 ,-7.31023 
422 ,85.9160 ,1.75308 ,-0.74503 ,-7.31023 
423 ,86.1082 ,1.75491 ,-0.77241 ,-7.57885 
424 ,86.2843 ,1.75679 ,-0.76898 ,-7.54527 
425 ,86.4763 ,1.75860 ,-0.77583 ,-7.61243 
426 ,86.6685 ,1.76052 ,-0.81005 ,-7.94821 
427 ,86.8766 ,1.76255 ,-0.79978 ,-7.84748 
428 ,87.0847 ,1.76471 ,-0.81005 ,-7.94821 
429 ,87.3083 ,1.76691 ,-0.82374 ,-8.08253 
430 ,87.5167 ,1.76895 ,-0.83058 ,-8.14968 
431 ,87.7566 ,1.77118 ,-0.85454 ,-8.38473 
432 ,87.9489 ,1.77332 ,-0.84769 ,-8.31758 
433 ,88.1569 ,1.77539 ,-0.85454 ,-8.38473 
434 ,88.3490 ,1.77733 ,-0.86138 ,-8.45189 
435 ,88.5733 ,1.77952 ,-0.86481 ,-8.48547 
436 ,88.7813 ,1.78160 ,-0.89903 ,-8.82125 
437 ,88.9735 ,1.78354 ,-0.88876 ,-8.72051 
438 ,89.1811 ,1.78567 ,-0.91956 ,-9.02272 
439 ,89.3736 ,1.78760 ,-0.89903 ,-8.82125 
440 ,89.5656 ,1.78947 ,-0.93325 ,-9.15703 
441 ,89.7572 ,1.79138 ,-0.92983 ,-9.12345 
442 ,89.9493 ,1.79346 ,-0.95720 ,-9.39208 
443 ,90.1573 ,1.79534 ,-0.94009 ,-9.22419 
444 ,90.3658 ,1.79750 ,-0.96747 ,-9.49282 
445 ,90.5736 ,1.79966 ,-0.96063 ,-9.42566 
446 ,90.7979 ,1.80173 ,-0.99485 ,-9.76144 
447 ,90.9902 ,1.80374 ,-0.98116 ,-9.62713 
448 ,91.1983 ,1.80580 ,-0.99143 ,-9.72786 
449 ,91.4064 ,1.80788 ,-1.01196 ,-9.92933 
450 ,91.5983 ,1.80982 ,-0.99827 ,-9.79502 
451 ,91.8064 ,1.81186 ,-1.01538 ,-9.96291 
452 ,92.0307 ,1.81402 ,-1.01880 ,-9.99649 
453 ,92.2388 ,1.81617 ,-1.02565 ,-10.06365 
454 ,92.4307 ,1.81814 ,-1.04618 ,-10.26512 
455 ,92.6226 ,1.82005 ,-1.06329 ,-10.43301 
456 ,92.8146 ,1.82196 ,-1.04276 ,-10.23154 
457 ,93.0070 ,1.82388 ,-1.07698 ,-10.56732 
458 ,93.1992 ,1.82584 ,-1.07356 ,-10.53374 
459 ,93.4071 ,1.82791 ,-1.09409 ,-10.73521 
460 ,93.5993 ,1.82979 ,-1.08382 ,-10.63448 
461 ,93.8073 ,1.83187 ,-1.09751 ,-10.76879 
462 ,94.0156 ,1.83391 ,-1.10778 ,-10.86953 
