Data stamp = , 03-05-2022 10:35:57 033

Calibration Values: 
Slope = , 26.54 , g/V 
Offset Voltage at no contact = , -0.501760 , V 

No , Time , Stage Position ,   Mass , Force 
   ,  (s) ,      (mm)      ,   (g)  , (mN)  

1 ,0.0000 ,0.89955 ,5.30194 ,52.02263 
2 ,0.2090 ,0.89962 ,5.30194 ,52.02263 
3 ,0.7853 ,0.90195 ,5.31221 ,52.12337 
4 ,0.9935 ,0.90418 ,5.30536 ,52.05621 
5 ,1.2340 ,0.90648 ,5.30878 ,52.08979 
6 ,1.4418 ,0.90867 ,5.29852 ,51.98905 
7 ,1.6501 ,0.91075 ,5.27114 ,51.72043 
8 ,1.8736 ,0.91300 ,5.24376 ,51.45180 
9 ,2.0818 ,0.91508 ,5.20954 ,51.11602 
10 ,2.2742 ,0.91705 ,5.19585 ,50.98170 
11 ,2.4823 ,0.91911 ,5.18216 ,50.84739 
12 ,2.6903 ,0.92120 ,5.16505 ,50.67950 
13 ,2.8981 ,0.92327 ,5.14452 ,50.47803 
14 ,3.0900 ,0.92526 ,5.10003 ,50.04151 
15 ,3.2823 ,0.92712 ,5.11030 ,50.14225 
16 ,3.4746 ,0.92909 ,5.07950 ,49.84004 
17 ,3.6989 ,0.93123 ,5.05554 ,49.60499 
18 ,3.8905 ,0.93320 ,5.03159 ,49.36995 
19 ,4.0665 ,0.93508 ,5.01448 ,49.20205 
20 ,4.2749 ,0.93705 ,5.00421 ,49.10132 
21 ,4.4831 ,0.93910 ,4.95630 ,48.63122 
22 ,4.6910 ,0.94116 ,4.95288 ,48.59764 
23 ,4.8990 ,0.94329 ,4.93235 ,48.39618 
24 ,5.0913 ,0.94520 ,4.91523 ,48.22828 
25 ,5.2833 ,0.94711 ,4.88444 ,47.92608 
26 ,5.4916 ,0.94920 ,4.87075 ,47.79177 
27 ,5.6994 ,0.95129 ,4.84337 ,47.52314 
28 ,5.9237 ,0.95352 ,4.81941 ,47.28809 
29 ,6.1158 ,0.95549 ,4.80915 ,47.18736 
30 ,6.3074 ,0.95741 ,4.76808 ,46.78442 
31 ,6.4997 ,0.95928 ,4.77150 ,46.81800 
32 ,6.7079 ,0.96135 ,4.72359 ,46.34790 
33 ,6.8997 ,0.96330 ,4.72359 ,46.34790 
34 ,7.0922 ,0.96518 ,4.71333 ,46.24716 
35 ,7.2842 ,0.96715 ,4.67226 ,45.84422 
36 ,7.5084 ,0.96930 ,4.65515 ,45.67633 
37 ,7.7324 ,0.97155 ,4.64488 ,45.57560 
38 ,7.9404 ,0.97365 ,4.62093 ,45.34055 
39 ,8.1324 ,0.97559 ,4.60724 ,45.20624 
40 ,8.3566 ,0.97785 ,4.58328 ,44.97119 
41 ,8.5806 ,0.98000 ,4.55591 ,44.70256 
42 ,8.7888 ,0.98212 ,4.53195 ,44.46751 
43 ,8.9809 ,0.98410 ,4.51142 ,44.26604 
44 ,9.2052 ,0.98628 ,4.47720 ,43.93026 
45 ,9.4131 ,0.98835 ,4.48404 ,43.99742 
46 ,9.6050 ,0.99029 ,4.43271 ,43.49374 
47 ,9.7973 ,0.99227 ,4.43613 ,43.52732 
48 ,10.0051 ,0.99424 ,4.40533 ,43.22512 
49 ,10.2294 ,0.99659 ,4.39164 ,43.09080 
50 ,10.4533 ,0.99876 ,4.37111 ,42.88933 
51 ,10.6451 ,1.00080 ,4.34031 ,42.58713 
52 ,10.8534 ,1.00271 ,4.34373 ,42.62071 
53 ,11.0618 ,1.00493 ,4.30267 ,42.21777 
54 ,11.2533 ,1.00678 ,4.29924 ,42.18419 
55 ,11.4459 ,1.00875 ,4.26160 ,41.81483 
56 ,11.6378 ,1.01067 ,4.26160 ,41.81483 
57 ,11.8298 ,1.01258 ,4.23080 ,41.51262 
58 ,12.0219 ,1.01450 ,4.22396 ,41.44547 
59 ,12.2142 ,1.01644 ,4.21711 ,41.37831 
60 ,12.4224 ,1.01842 ,4.17947 ,41.00895 
61 ,12.6303 ,1.02049 ,4.15894 ,40.80748 
62 ,12.8220 ,1.02246 ,4.13840 ,40.60601 
63 ,13.0301 ,1.02457 ,4.13840 ,40.60601 
64 ,13.2705 ,1.02691 ,4.10076 ,40.23665 
65 ,13.4787 ,1.02899 ,4.07338 ,39.96802 
66 ,13.6707 ,1.03099 ,4.06312 ,39.86729 
67 ,13.8945 ,1.03304 ,4.03916 ,39.63224 
68 ,14.1029 ,1.03530 ,4.01178 ,39.36361 
69 ,14.3429 ,1.03752 ,3.99809 ,39.22930 
70 ,14.5352 ,1.03963 ,3.98441 ,39.09499 
71 ,14.7273 ,1.04155 ,3.96045 ,38.85994 
72 ,14.9189 ,1.04349 ,3.95018 ,38.75920 
73 ,15.1274 ,1.04546 ,3.92281 ,38.49058 
74 ,15.3354 ,1.04756 ,3.91254 ,38.38984 
75 ,15.5432 ,1.04966 ,3.89201 ,38.18837 
76 ,15.7357 ,1.05161 ,3.88516 ,38.12122 
77 ,15.9437 ,1.05364 ,3.84410 ,37.71828 
78 ,16.1353 ,1.05559 ,3.85779 ,37.85259 
79 ,16.3273 ,1.05765 ,3.80645 ,37.34891 
80 ,16.5354 ,1.05958 ,3.81330 ,37.41607 
81 ,16.7281 ,1.06152 ,3.76539 ,36.94597 
82 ,16.9361 ,1.06371 ,3.78250 ,37.11387 
83 ,17.1281 ,1.06552 ,3.73801 ,36.67735 
84 ,17.3363 ,1.06763 ,3.73801 ,36.67735 
85 ,17.5444 ,1.06967 ,3.69352 ,36.24083 
86 ,17.7524 ,1.07168 ,3.69694 ,36.27441 
87 ,17.9604 ,1.07380 ,3.66614 ,35.97220 
88 ,18.1685 ,1.07592 ,3.64219 ,35.73716 
89 ,18.3604 ,1.07783 ,3.63877 ,35.70358 
90 ,18.5526 ,1.07971 ,3.63192 ,35.63642 
91 ,18.7448 ,1.08165 ,3.59428 ,35.26706 
92 ,18.9526 ,1.08375 ,3.59428 ,35.26706 
93 ,19.1449 ,1.08575 ,3.55321 ,34.86412 
94 ,19.3687 ,1.08791 ,3.55663 ,34.89770 
95 ,19.5772 ,1.08997 ,3.53952 ,34.72981 
96 ,19.8173 ,1.09226 ,3.51557 ,34.49476 
97 ,20.0417 ,1.09467 ,3.48135 ,34.15898 
98 ,20.2495 ,1.09668 ,3.48135 ,34.15898 
99 ,20.4571 ,1.09878 ,3.46424 ,33.99108 
100 ,20.6657 ,1.10085 ,3.44028 ,33.75604 
101 ,20.8577 ,1.10292 ,3.44713 ,33.82319 
102 ,21.0496 ,1.10474 ,3.40606 ,33.42025 
103 ,21.2258 ,1.10662 ,3.38553 ,33.21878 
104 ,21.4338 ,1.10852 ,3.38553 ,33.21878 
105 ,21.6260 ,1.11061 ,3.35815 ,32.95016 
106 ,21.8181 ,1.11241 ,3.35473 ,32.91658 
107 ,22.0102 ,1.11432 ,3.33419 ,32.71511 
108 ,22.2023 ,1.11624 ,3.31024 ,32.48006 
109 ,22.4102 ,1.11832 ,3.29997 ,32.37933 
110 ,22.6185 ,1.12041 ,3.27944 ,32.17786 
111 ,22.8425 ,1.12267 ,3.24522 ,31.84207 
112 ,23.0506 ,1.12469 ,3.24522 ,31.84207 
113 ,23.2427 ,1.12665 ,3.21442 ,31.53987 
114 ,23.4348 ,1.12854 ,3.22126 ,31.60702 
115 ,23.6269 ,1.13052 ,3.18704 ,31.27124 
116 ,23.8349 ,1.13256 ,3.18704 ,31.27124 
117 ,24.0428 ,1.13463 ,3.14940 ,30.90188 
118 ,24.2352 ,1.13656 ,3.14597 ,30.86830 
119 ,24.4432 ,1.13863 ,3.12544 ,30.66683 
120 ,24.6353 ,1.14055 ,3.12202 ,30.63325 
121 ,24.8271 ,1.14253 ,3.09122 ,30.33105 
122 ,25.0831 ,1.14481 ,3.07753 ,30.19674 
123 ,25.2756 ,1.14692 ,3.06384 ,30.06242 
124 ,25.4836 ,1.14905 ,3.02962 ,29.72664 
125 ,25.6916 ,1.15103 ,3.02962 ,29.72664 
126 ,25.8837 ,1.15304 ,2.99882 ,29.42444 
127 ,26.0754 ,1.15495 ,2.99540 ,29.39086 
128 ,26.2679 ,1.15695 ,2.96118 ,29.05507 
129 ,26.4600 ,1.15882 ,2.95433 ,28.98792 
130 ,26.6520 ,1.16074 ,2.96802 ,29.12223 
131 ,26.8602 ,1.16278 ,2.91327 ,28.58498 
132 ,27.0358 ,1.16469 ,2.91327 ,28.58498 
133 ,27.2443 ,1.16660 ,2.89616 ,28.41709 
134 ,27.4520 ,1.16874 ,2.88589 ,28.31635 
135 ,27.6445 ,1.17064 ,2.85167 ,27.98057 
136 ,27.8526 ,1.17269 ,2.85509 ,28.01415 
137 ,28.0764 ,1.17486 ,2.82087 ,27.67836 
138 ,28.2524 ,1.17680 ,2.80718 ,27.54405 
139 ,28.4443 ,1.17864 ,2.79007 ,27.37616 
140 ,28.6528 ,1.18062 ,2.77638 ,27.24185 
141 ,28.8609 ,1.18282 ,2.76611 ,27.14111 
142 ,29.0531 ,1.18472 ,2.75243 ,27.00680 
143 ,29.2447 ,1.18663 ,2.72847 ,26.77175 
144 ,29.4531 ,1.18867 ,2.71478 ,26.63744 
145 ,29.6453 ,1.19063 ,2.68398 ,26.33523 
146 ,29.8211 ,1.19254 ,2.69425 ,26.43597 
147 ,30.0133 ,1.19429 ,2.67029 ,26.20092 
148 ,30.2215 ,1.19639 ,2.63949 ,25.89871 
149 ,30.4130 ,1.19834 ,2.64976 ,25.99945 
150 ,30.6059 ,1.20024 ,2.61896 ,25.69724 
151 ,30.8137 ,1.20232 ,2.60869 ,25.59651 
152 ,31.0054 ,1.20433 ,2.58132 ,25.32788 
153 ,31.1980 ,1.20619 ,2.57789 ,25.29430 
154 ,31.4065 ,1.20824 ,2.54367 ,24.95852 
155 ,31.6142 ,1.21031 ,2.54710 ,24.99210 
156 ,31.8222 ,1.21247 ,2.52656 ,24.79063 
157 ,32.0622 ,1.21464 ,2.51972 ,24.72347 
158 ,32.2542 ,1.21672 ,2.49576 ,24.48842 
159 ,32.4622 ,1.21872 ,2.44785 ,24.01833 
160 ,32.6705 ,1.22086 ,2.46496 ,24.18622 
161 ,32.8787 ,1.22298 ,2.44101 ,23.95117 
162 ,33.0867 ,1.22509 ,2.42390 ,23.78328 
163 ,33.2787 ,1.22699 ,2.42732 ,23.81686 
164 ,33.4709 ,1.22892 ,2.40336 ,23.58181 
165 ,33.6786 ,1.23088 ,2.36230 ,23.17887 
166 ,33.8710 ,1.23286 ,2.37256 ,23.27961 
167 ,34.0790 ,1.23505 ,2.35888 ,23.14529 
168 ,34.2872 ,1.23703 ,2.32808 ,22.84309 
169 ,34.4953 ,1.23907 ,2.32465 ,22.80951 
170 ,34.6873 ,1.24107 ,2.29728 ,22.54088 
171 ,34.9113 ,1.24321 ,2.28359 ,22.40657 
172 ,35.1355 ,1.24548 ,2.27332 ,22.30584 
173 ,35.3436 ,1.24764 ,2.24594 ,22.03721 
174 ,35.5355 ,1.24952 ,2.24252 ,22.00363 
175 ,35.7278 ,1.25157 ,2.21172 ,21.70143 
176 ,35.9354 ,1.25350 ,2.20146 ,21.60069 
177 ,36.1439 ,1.25551 ,2.19803 ,21.56711 
178 ,36.3357 ,1.25752 ,2.17750 ,21.36564 
179 ,36.5281 ,1.25943 ,2.16039 ,21.19775 
180 ,36.7201 ,1.26137 ,2.14328 ,21.02986 
181 ,36.9280 ,1.26339 ,2.12617 ,20.86197 
182 ,37.1522 ,1.26558 ,2.10564 ,20.66050 
183 ,37.3603 ,1.26774 ,2.08168 ,20.42545 
184 ,37.5525 ,1.26969 ,2.09879 ,20.59334 
185 ,37.7608 ,1.27176 ,2.04061 ,20.02251 
186 ,37.9847 ,1.27390 ,2.04061 ,20.02251 
187 ,38.2088 ,1.27615 ,2.03377 ,19.95535 
188 ,38.4168 ,1.27842 ,2.01666 ,19.78746 
189 ,38.6090 ,1.28027 ,1.99613 ,19.58599 
190 ,38.8330 ,1.28243 ,1.99270 ,19.55241 
191 ,39.0249 ,1.28441 ,1.95848 ,19.21663 
192 ,39.2172 ,1.28631 ,1.95164 ,19.14948 
193 ,39.4090 ,1.28825 ,1.94137 ,19.04874 
194 ,39.6016 ,1.29016 ,1.91742 ,18.81369 
195 ,39.8096 ,1.29224 ,1.92084 ,18.84727 
196 ,40.0014 ,1.29418 ,1.88662 ,18.51149 
197 ,40.2092 ,1.29619 ,1.89004 ,18.54507 
198 ,40.4177 ,1.29830 ,1.86608 ,18.31002 
199 ,40.6258 ,1.30043 ,1.84213 ,18.07497 
200 ,40.8178 ,1.30231 ,1.83528 ,18.00781 
201 ,41.0101 ,1.30426 ,1.81817 ,17.83992 
202 ,41.2019 ,1.30619 ,1.78737 ,17.53772 
203 ,41.3941 ,1.30808 ,1.80791 ,17.73919 
204 ,41.5858 ,1.30998 ,1.77711 ,17.43698 
205 ,41.7942 ,1.31211 ,1.77026 ,17.36983 
206 ,41.9863 ,1.31402 ,1.73946 ,17.06762 
207 ,42.1784 ,1.31594 ,1.73946 ,17.06762 
208 ,42.4022 ,1.31810 ,1.71551 ,16.83257 
209 ,42.6105 ,1.32023 ,1.71893 ,16.86615 
210 ,42.8186 ,1.32234 ,1.69155 ,16.59752 
211 ,43.0107 ,1.32423 ,1.68471 ,16.53037 
212 ,43.2188 ,1.32629 ,1.64707 ,16.16101 
213 ,43.4270 ,1.32845 ,1.64364 ,16.12743 
214 ,43.6349 ,1.33046 ,1.62995 ,15.99311 
215 ,43.8271 ,1.33242 ,1.61284 ,15.82522 
216 ,44.0348 ,1.33447 ,1.60942 ,15.79164 
217 ,44.2273 ,1.33642 ,1.56493 ,15.35513 
218 ,44.4352 ,1.33847 ,1.57862 ,15.48944 
219 ,44.6592 ,1.34067 ,1.55124 ,15.22081 
220 ,44.8515 ,1.34270 ,1.53756 ,15.08650 
221 ,45.0595 ,1.34474 ,1.53413 ,15.05292 
222 ,45.2517 ,1.34667 ,1.52729 ,14.98577 
223 ,45.4918 ,1.34891 ,1.50676 ,14.78430 
224 ,45.6833 ,1.35099 ,1.47938 ,14.51567 
225 ,45.9880 ,1.35354 ,1.47596 ,14.48209 
226 ,46.2121 ,1.35620 ,1.46569 ,14.38136 
227 ,46.4201 ,1.35831 ,1.42120 ,13.94484 
228 ,46.6122 ,1.36025 ,1.42120 ,13.94484 
229 ,46.8198 ,1.36225 ,1.38356 ,13.57548 
230 ,47.0284 ,1.36436 ,1.38014 ,13.54190 
231 ,47.2364 ,1.36652 ,1.37671 ,13.50832 
232 ,47.4445 ,1.36853 ,1.34934 ,13.23969 
233 ,47.6367 ,1.37047 ,1.35276 ,13.27327 
234 ,47.8442 ,1.37260 ,1.32196 ,12.97107 
235 ,48.0367 ,1.37456 ,1.33565 ,13.10538 
236 ,48.2447 ,1.37653 ,1.30827 ,12.83675 
237 ,48.4370 ,1.37850 ,1.29800 ,12.73602 
238 ,48.6449 ,1.38055 ,1.27063 ,12.46739 
239 ,48.8527 ,1.38264 ,1.28089 ,12.56813 
240 ,49.0287 ,1.38450 ,1.24325 ,12.19877 
241 ,49.2532 ,1.38662 ,1.25352 ,12.29950 
242 ,49.4934 ,1.38892 ,1.20903 ,11.86298 
243 ,49.6853 ,1.39100 ,1.20218 ,11.79583 
244 ,49.8935 ,1.39302 ,1.19534 ,11.72867 
245 ,50.1013 ,1.39516 ,1.18850 ,11.66151 
246 ,50.3096 ,1.39714 ,1.18507 ,11.62794 
247 ,50.5177 ,1.39928 ,1.15770 ,11.35931 
248 ,50.7259 ,1.40124 ,1.15427 ,11.32573 
249 ,50.9340 ,1.40345 ,1.13716 ,11.15784 
250 ,51.1261 ,1.40539 ,1.10636 ,10.85563 
251 ,51.3500 ,1.40758 ,1.10979 ,10.88921 
252 ,51.5742 ,1.40981 ,1.08583 ,10.65416 
253 ,51.7823 ,1.41189 ,1.06872 ,10.48627 
254 ,52.0063 ,1.41403 ,1.06530 ,10.45270 
255 ,52.2463 ,1.41647 ,1.05845 ,10.38554 
256 ,52.4705 ,1.41879 ,1.04134 ,10.21765 
257 ,52.6784 ,1.42087 ,1.01396 ,9.94902 
258 ,52.8707 ,1.42284 ,1.01054 ,9.91544 
259 ,53.0791 ,1.42491 ,0.98317 ,9.64682 
260 ,53.2708 ,1.42682 ,0.98659 ,9.68039 
261 ,53.4789 ,1.42887 ,0.97290 ,9.54608 
262 ,53.6708 ,1.43081 ,0.95921 ,9.41177 
263 ,53.8791 ,1.43284 ,0.92841 ,9.10956 
264 ,54.0867 ,1.43499 ,0.91814 ,9.00883 
265 ,54.2790 ,1.43690 ,0.90103 ,8.84094 
266 ,54.5030 ,1.43899 ,0.90788 ,8.90809 
267 ,54.7114 ,1.44120 ,0.90446 ,8.87451 
268 ,54.9196 ,1.44332 ,0.88734 ,8.70662 
269 ,55.1276 ,1.44530 ,0.86681 ,8.50515 
270 ,55.3197 ,1.44728 ,0.84628 ,8.30368 
271 ,55.5278 ,1.44939 ,0.83601 ,8.20295 
272 ,55.7359 ,1.45143 ,0.82917 ,8.13579 
273 ,55.9438 ,1.45358 ,0.80521 ,7.90074 
274 ,56.1360 ,1.45547 ,0.80179 ,7.86717 
275 ,56.3441 ,1.45750 ,0.78126 ,7.66570 
276 ,56.5363 ,1.45948 ,0.77441 ,7.59854 
277 ,56.7441 ,1.46152 ,0.75730 ,7.43065 
278 ,56.9364 ,1.46344 ,0.74361 ,7.29633 
279 ,57.1444 ,1.46556 ,0.72650 ,7.12844 
280 ,57.3525 ,1.46760 ,0.72992 ,7.16202 
281 ,57.5767 ,1.46970 ,0.69570 ,6.82624 
282 ,57.7843 ,1.47191 ,0.68544 ,6.72550 
283 ,58.0089 ,1.47406 ,0.69913 ,6.85982 
284 ,58.2328 ,1.47636 ,0.66490 ,6.52403 
285 ,58.4250 ,1.47834 ,0.64779 ,6.35614 
286 ,58.6331 ,1.48045 ,0.65121 ,6.38972 
287 ,58.8407 ,1.48252 ,0.62726 ,6.15467 
288 ,59.0651 ,1.48459 ,0.61699 ,6.05394 
289 ,59.2732 ,1.48685 ,0.61015 ,5.98678 
290 ,59.4812 ,1.48888 ,0.58277 ,5.71815 
291 ,59.6895 ,1.49093 ,0.58962 ,5.78531 
292 ,59.9137 ,1.49316 ,0.55882 ,5.48311 
293 ,60.1217 ,1.49525 ,0.54513 ,5.34879 
294 ,60.2975 ,1.49713 ,0.56908 ,5.58384 
295 ,60.4895 ,1.49898 ,0.55539 ,5.44953 
296 ,60.6819 ,1.50085 ,0.51433 ,5.04659 
297 ,60.8899 ,1.50299 ,0.51433 ,5.04659 
298 ,61.0816 ,1.50490 ,0.49037 ,4.81154 
299 ,61.3063 ,1.50711 ,0.48353 ,4.74438 
300 ,61.5142 ,1.50917 ,0.46642 ,4.57649 
301 ,61.7064 ,1.51112 ,0.46984 ,4.61007 
302 ,61.9145 ,1.51318 ,0.44246 ,4.34144 
303 ,62.1222 ,1.51523 ,0.44246 ,4.34144 
304 ,62.3304 ,1.51733 ,0.42535 ,4.17355 
305 ,62.5386 ,1.51946 ,0.40140 ,3.93850 
306 ,62.7468 ,1.52151 ,0.39797 ,3.90493 
307 ,62.9545 ,1.52357 ,0.38086 ,3.73703 
308 ,63.1466 ,1.52551 ,0.38429 ,3.77061 
309 ,63.3386 ,1.52743 ,0.35691 ,3.50199 
310 ,63.5309 ,1.52938 ,0.37060 ,3.63630 
311 ,63.7232 ,1.53124 ,0.35349 ,3.46841 
312 ,63.9153 ,1.53320 ,0.33295 ,3.26694 
313 ,64.1392 ,1.53530 ,0.32269 ,3.16620 
314 ,64.3151 ,1.53733 ,0.30215 ,2.96473 
315 ,64.5237 ,1.53925 ,0.30215 ,2.96473 
316 ,64.7316 ,1.54137 ,0.29531 ,2.89758 
317 ,64.9396 ,1.54345 ,0.26793 ,2.62895 
318 ,65.1318 ,1.54534 ,0.27820 ,2.72969 
319 ,65.3397 ,1.54746 ,0.24398 ,2.39390 
320 ,65.5479 ,1.54944 ,0.23029 ,2.25959 
321 ,65.7720 ,1.55179 ,0.22002 ,2.15885 
322 ,65.9799 ,1.55383 ,0.20976 ,2.05812 
323 ,66.1721 ,1.55580 ,0.21318 ,2.09170 
324 ,66.3802 ,1.55781 ,0.19607 ,1.92381 
325 ,66.5724 ,1.55979 ,0.19264 ,1.89023 
326 ,66.7803 ,1.56183 ,0.17211 ,1.68876 
327 ,66.9886 ,1.56387 ,0.17553 ,1.72234 
328 ,67.1807 ,1.56587 ,0.15842 ,1.55445 
329 ,67.3724 ,1.56776 ,0.13789 ,1.35298 
330 ,67.5803 ,1.56982 ,0.13447 ,1.31940 
331 ,67.7889 ,1.57190 ,0.13105 ,1.28582 
332 ,67.9807 ,1.57385 ,0.12078 ,1.18508 
333 ,68.1891 ,1.57594 ,0.11051 ,1.08435 
334 ,68.3971 ,1.57796 ,0.09340 ,0.91646 
335 ,68.6370 ,1.58036 ,0.08314 ,0.81572 
336 ,68.8453 ,1.58254 ,0.08656 ,0.84930 
337 ,69.0534 ,1.58455 ,0.04549 ,0.44636 
338 ,69.2612 ,1.58658 ,0.04207 ,0.41278 
339 ,69.4535 ,1.58858 ,0.03522 ,0.34563 
340 ,69.6455 ,1.59050 ,0.04549 ,0.44636 
341 ,69.8376 ,1.59241 ,0.01127 ,0.11058 
342 ,70.0292 ,1.59429 ,0.00443 ,0.04342 
343 ,70.2218 ,1.59623 ,0.01127 ,0.11058 
344 ,70.4299 ,1.59833 ,-0.01269 ,-0.12447 
345 ,70.6379 ,1.60035 ,-0.01953 ,-0.19163 
346 ,70.8298 ,1.60233 ,-0.02637 ,-0.25878 
347 ,71.0538 ,1.60452 ,-0.05717 ,-0.56099 
348 ,71.2622 ,1.60669 ,-0.04348 ,-0.42667 
349 ,71.4701 ,1.60866 ,-0.06744 ,-0.66172 
350 ,71.6781 ,1.61080 ,-0.07086 ,-0.69530 
351 ,71.8864 ,1.61289 ,-0.06060 ,-0.59457 
352 ,72.0784 ,1.61481 ,-0.08797 ,-0.86319 
353 ,72.2866 ,1.61693 ,-0.09140 ,-0.89677 
354 ,72.4946 ,1.61894 ,-0.13246 ,-1.29971 
355 ,72.6866 ,1.62090 ,-0.11535 ,-1.13182 
356 ,72.8949 ,1.62297 ,-0.15642 ,-1.53476 
357 ,73.0864 ,1.62499 ,-0.13246 ,-1.29971 
358 ,73.3113 ,1.62716 ,-0.15299 ,-1.50118 
359 ,73.5192 ,1.62923 ,-0.16326 ,-1.60191 
360 ,73.7272 ,1.63128 ,-0.18037 ,-1.76981 
361 ,73.9354 ,1.63335 ,-0.19064 ,-1.87054 
362 ,74.1433 ,1.63545 ,-0.19748 ,-1.93770 
363 ,74.3833 ,1.63772 ,-0.20775 ,-2.03843 
364 ,74.5917 ,1.63990 ,-0.21802 ,-2.13917 
365 ,74.7996 ,1.64201 ,-0.22486 ,-2.20632 
366 ,75.0079 ,1.64411 ,-0.23513 ,-2.30706 
367 ,75.1999 ,1.64603 ,-0.23855 ,-2.34064 
368 ,75.4235 ,1.64832 ,-0.25908 ,-2.54211 
369 ,75.6955 ,1.65081 ,-0.25224 ,-2.47495 
370 ,75.9036 ,1.65304 ,-0.27619 ,-2.71000 
371 ,76.1437 ,1.65523 ,-0.31726 ,-3.11294 
372 ,76.3362 ,1.65737 ,-0.30015 ,-2.94505 
373 ,76.5443 ,1.65946 ,-0.30699 ,-3.01220 
374 ,76.7519 ,1.66154 ,-0.32752 ,-3.21367 
375 ,76.9440 ,1.66354 ,-0.33437 ,-3.28083 
376 ,77.1525 ,1.66553 ,-0.35148 ,-3.44872 
377 ,77.3927 ,1.66779 ,-0.34464 ,-3.38156 
378 ,77.5847 ,1.66988 ,-0.34464 ,-3.38156 
379 ,77.7768 ,1.67177 ,-0.37201 ,-3.65019 
380 ,77.9850 ,1.67373 ,-0.38912 ,-3.81808 
381 ,78.1930 ,1.67596 ,-0.39255 ,-3.85166 
382 ,78.4009 ,1.67801 ,-0.38912 ,-3.81808 
383 ,78.6087 ,1.68008 ,-0.40281 ,-3.95240 
384 ,78.7849 ,1.68196 ,-0.41308 ,-4.05313 
385 ,78.9774 ,1.68375 ,-0.43019 ,-4.22102 
386 ,79.4896 ,1.68734 ,-0.44046 ,-4.32176 
387 ,79.6972 ,1.69095 ,-0.45757 ,-4.48965 
388 ,79.8894 ,1.69286 ,-0.47468 ,-4.65754 
389 ,80.1134 ,1.69509 ,-0.47810 ,-4.69112 
390 ,80.3057 ,1.69700 ,-0.47126 ,-4.62396 
391 ,80.5460 ,1.69931 ,-0.51917 ,-5.09406 
392 ,80.7376 ,1.70139 ,-0.50206 ,-4.92617 
393 ,80.9461 ,1.70343 ,-0.51917 ,-5.09406 
394 ,81.1542 ,1.70554 ,-0.53970 ,-5.29553 
395 ,81.3463 ,1.70741 ,-0.53628 ,-5.26195 
396 ,81.5385 ,1.70939 ,-0.54997 ,-5.39626 
397 ,81.7465 ,1.71146 ,-0.54312 ,-5.32911 
398 ,81.9546 ,1.71353 ,-0.57392 ,-5.63131 
399 ,82.1467 ,1.71544 ,-0.58077 ,-5.69847 
400 ,82.3387 ,1.71734 ,-0.57392 ,-5.63131 
401 ,82.5306 ,1.71929 ,-0.59445 ,-5.83278 
402 ,82.7389 ,1.72137 ,-0.60130 ,-5.89994 
403 ,82.9307 ,1.72331 ,-0.61499 ,-6.03425 
404 ,83.1551 ,1.72547 ,-0.62183 ,-6.10141 
405 ,83.3632 ,1.72758 ,-0.63894 ,-6.26930 
406 ,83.5553 ,1.72951 ,-0.64236 ,-6.30288 
407 ,83.7632 ,1.73162 ,-0.64236 ,-6.30288 
408 ,83.9552 ,1.73353 ,-0.66290 ,-6.50435 
409 ,84.1473 ,1.73548 ,-0.66290 ,-6.50435 
410 ,84.3555 ,1.73752 ,-0.68343 ,-6.70582 
411 ,84.5633 ,1.73959 ,-0.68001 ,-6.67224 
412 ,84.7553 ,1.74152 ,-0.69370 ,-6.80655 
413 ,84.9475 ,1.74344 ,-0.70396 ,-6.90729 
414 ,85.1557 ,1.74547 ,-0.71765 ,-7.04160 
415 ,85.3640 ,1.74760 ,-0.72450 ,-7.10876 
416 ,85.5881 ,1.74980 ,-0.75187 ,-7.37738 
417 ,85.7961 ,1.75187 ,-0.73476 ,-7.20949 
418 ,85.9882 ,1.75385 ,-0.77241 ,-7.57885 
419 ,86.1961 ,1.75589 ,-0.76898 ,-7.54527 
420 ,86.4044 ,1.75794 ,-0.77241 ,-7.57885 
421 ,86.6284 ,1.76022 ,-0.78267 ,-7.67959 
422 ,86.8205 ,1.76217 ,-0.77925 ,-7.64601 
423 ,87.0126 ,1.76405 ,-0.80663 ,-7.91464 
424 ,87.2045 ,1.76600 ,-0.79294 ,-7.78032 
425 ,87.3968 ,1.76794 ,-0.82374 ,-8.08253 
426 ,87.6050 ,1.77004 ,-0.82032 ,-8.04895 
427 ,87.8127 ,1.77204 ,-0.83743 ,-8.21684 
428 ,88.0051 ,1.77402 ,-0.83401 ,-8.18326 
429 ,88.2131 ,1.77603 ,-0.85112 ,-8.35115 
430 ,88.4528 ,1.77831 ,-0.85112 ,-8.35115 
431 ,88.6612 ,1.78052 ,-0.85112 ,-8.35115 
432 ,88.8373 ,1.78246 ,-0.89560 ,-8.78767 
433 ,89.0293 ,1.78424 ,-0.89560 ,-8.78767 
434 ,89.2376 ,1.78632 ,-0.86823 ,-8.51904 
435 ,89.4456 ,1.78846 ,-0.89218 ,-8.75409 
436 ,89.6378 ,1.79039 ,-0.90587 ,-8.88841 
437 ,89.8455 ,1.79243 ,-0.91272 ,-8.95556 
438 ,90.0538 ,1.79450 ,-0.93325 ,-9.15703 
439 ,90.2458 ,1.79642 ,-0.94009 ,-9.22419 
440 ,90.4380 ,1.79833 ,-0.95036 ,-9.32492 
441 ,90.6457 ,1.80039 ,-0.95378 ,-9.35850 
442 ,90.8540 ,1.80241 ,-0.97431 ,-9.55997 
443 ,91.0622 ,1.80457 ,-0.97089 ,-9.52639 
444 ,91.2701 ,1.80663 ,-0.99827 ,-9.79502 
445 ,91.4782 ,1.80872 ,-0.98458 ,-9.66071 
446 ,91.6705 ,1.81066 ,-1.00854 ,-9.89576 
447 ,91.8785 ,1.81267 ,-1.00511 ,-9.86218 
448 ,92.0866 ,1.81483 ,-1.02222 ,-10.03007 
449 ,92.2784 ,1.81674 ,-1.01880 ,-9.99649 
450 ,92.5029 ,1.81891 ,-1.03591 ,-10.16438 
451 ,92.7104 ,1.82106 ,-1.04960 ,-10.29869 
452 ,92.8865 ,1.82291 ,-1.05645 ,-10.36585 
453 ,93.0790 ,1.82471 ,-1.05302 ,-10.33227 
454 ,93.2712 ,1.82665 ,-1.08040 ,-10.60090 
455 ,93.4791 ,1.82865 ,-1.06329 ,-10.43301 
456 ,93.6870 ,1.83079 ,-1.08382 ,-10.63448 
457 ,93.8954 ,1.83280 ,-1.09067 ,-10.70163 
458 ,94.1057 ,1.83489 ,-1.10778 ,-10.86953 
459 ,94.3436 ,1.83737 ,-1.11805 ,-10.97026 
460 ,94.5357 ,1.83930 ,-1.12831 ,-11.07100 
461 ,94.7438 ,1.84135 ,-1.13173 ,-11.10457 
462 ,94.9358 ,1.84328 ,-1.13858 ,-11.17173 
