Data stamp = , 02-05-2022 19:09:03 938

Calibration Values: 
Slope = , 26.54 , g/V 
Offset Voltage at no contact = , -0.501760 , V 

No , Time , Stage Position ,   Mass , Force 
   ,  (s) ,      (mm)      ,   (g)  , (mN)  

1 ,0.0000 ,0.94948 ,4.90497 ,48.12755 
2 ,0.2214 ,0.94957 ,4.93235 ,48.39618 
3 ,0.7980 ,0.95194 ,4.91181 ,48.19471 
4 ,1.0221 ,0.95432 ,4.91866 ,48.26186 
5 ,1.2300 ,0.95643 ,4.91181 ,48.19471 
6 ,1.4223 ,0.95840 ,4.91523 ,48.22828 
7 ,1.6298 ,0.96047 ,4.88786 ,47.95966 
8 ,1.8221 ,0.96247 ,4.87759 ,47.85892 
9 ,2.0305 ,0.96452 ,4.87417 ,47.82534 
10 ,2.2386 ,0.96665 ,4.82284 ,47.32167 
11 ,2.4306 ,0.96856 ,4.82968 ,47.38883 
12 ,2.6386 ,0.97057 ,4.79204 ,47.01946 
13 ,2.8308 ,0.97254 ,4.77493 ,46.85157 
14 ,3.0229 ,0.97449 ,4.74755 ,46.58295 
15 ,3.2151 ,0.97639 ,4.74070 ,46.51579 
16 ,3.4230 ,0.97843 ,4.71675 ,46.28074 
17 ,3.6310 ,0.98051 ,4.70306 ,46.14643 
18 ,3.8228 ,0.98247 ,4.67911 ,45.91138 
19 ,4.0152 ,0.98438 ,4.64146 ,45.54202 
20 ,4.2233 ,0.98644 ,4.64146 ,45.54202 
21 ,4.4152 ,0.98837 ,4.60382 ,45.17266 
22 ,4.6076 ,0.99028 ,4.60724 ,45.20624 
23 ,4.8313 ,0.99257 ,4.60040 ,45.13908 
24 ,5.0236 ,0.99455 ,4.55249 ,44.66898 
25 ,5.2478 ,0.99656 ,4.52511 ,44.40036 
26 ,5.4398 ,0.99863 ,4.51142 ,44.26604 
27 ,5.6479 ,1.00064 ,4.50115 ,44.16531 
28 ,5.8235 ,1.00261 ,4.47035 ,43.86310 
29 ,6.0157 ,1.00434 ,4.43955 ,43.56090 
30 ,6.2081 ,1.00630 ,4.44640 ,43.62806 
31 ,6.4162 ,1.00840 ,4.41902 ,43.35943 
32 ,6.6080 ,1.01029 ,4.40875 ,43.25870 
33 ,6.8004 ,1.01221 ,4.37453 ,42.92291 
34 ,6.9923 ,1.01411 ,4.37111 ,42.88933 
35 ,7.1844 ,1.01605 ,4.36084 ,42.78860 
36 ,7.3765 ,1.01794 ,4.31978 ,42.38566 
37 ,7.5685 ,1.01994 ,4.31636 ,42.35208 
38 ,7.7605 ,1.02183 ,4.28556 ,42.04988 
39 ,7.9526 ,1.02371 ,4.26160 ,41.81483 
40 ,8.1450 ,1.02568 ,4.27871 ,41.98272 
41 ,8.3851 ,1.02796 ,4.22396 ,41.44547 
42 ,8.5931 ,1.03016 ,4.18974 ,41.10968 
43 ,8.7852 ,1.03212 ,4.20342 ,41.24400 
44 ,8.9932 ,1.03417 ,4.17262 ,40.94179 
45 ,9.2173 ,1.03635 ,4.14867 ,40.70674 
46 ,9.4252 ,1.03848 ,4.13498 ,40.57243 
47 ,9.6335 ,1.04055 ,4.11445 ,40.37096 
48 ,9.8252 ,1.04243 ,4.10760 ,40.30380 
49 ,10.0337 ,1.04453 ,4.06996 ,39.93444 
50 ,10.2253 ,1.04645 ,4.05969 ,39.83371 
51 ,10.4014 ,1.04830 ,4.02205 ,39.46435 
52 ,10.5937 ,1.05020 ,4.01178 ,39.36361 
53 ,10.7856 ,1.05206 ,4.01178 ,39.36361 
54 ,10.9780 ,1.05399 ,3.98098 ,39.06141 
55 ,11.1704 ,1.05594 ,3.96729 ,38.92709 
56 ,11.3621 ,1.05788 ,3.95703 ,38.82636 
57 ,11.5700 ,1.05989 ,3.93992 ,38.65847 
58 ,11.7622 ,1.06181 ,3.91938 ,38.45700 
59 ,11.9544 ,1.06372 ,3.87832 ,38.05406 
60 ,12.1463 ,1.06565 ,3.87490 ,38.02048 
61 ,12.3707 ,1.06783 ,3.84752 ,37.75185 
62 ,12.5785 ,1.06996 ,3.83041 ,37.58396 
63 ,12.7865 ,1.07202 ,3.83383 ,37.61754 
64 ,13.0109 ,1.07420 ,3.78592 ,37.14744 
65 ,13.2349 ,1.07638 ,3.77565 ,37.04671 
66 ,13.4270 ,1.07843 ,3.75512 ,36.84524 
67 ,13.6191 ,1.08037 ,3.74828 ,36.77808 
68 ,13.8111 ,1.08231 ,3.71405 ,36.44230 
69 ,14.0032 ,1.08423 ,3.71063 ,36.40872 
70 ,14.1954 ,1.08613 ,3.67983 ,36.10652 
71 ,14.4035 ,1.08827 ,3.67299 ,36.03936 
72 ,14.5955 ,1.09014 ,3.64219 ,35.73716 
73 ,14.8192 ,1.09235 ,3.63534 ,35.67000 
74 ,15.0115 ,1.09433 ,3.60797 ,35.40137 
75 ,15.2196 ,1.09633 ,3.58743 ,35.19990 
76 ,15.4119 ,1.09831 ,3.56348 ,34.96485 
77 ,15.6357 ,1.10047 ,3.55663 ,34.89770 
78 ,15.8281 ,1.10251 ,3.52584 ,34.59549 
79 ,16.0358 ,1.10454 ,3.51899 ,34.52834 
80 ,16.2118 ,1.10642 ,3.50188 ,34.36045 
81 ,16.4043 ,1.10822 ,3.50872 ,34.42760 
82 ,16.6124 ,1.11029 ,3.47450 ,34.09182 
83 ,16.8204 ,1.11238 ,3.46081 ,33.95751 
84 ,17.0283 ,1.11446 ,3.43344 ,33.68888 
85 ,17.2526 ,1.11658 ,3.43344 ,33.68888 
86 ,17.4605 ,1.11881 ,3.41290 ,33.48741 
87 ,17.6528 ,1.12070 ,3.37184 ,33.08447 
88 ,17.8608 ,1.12276 ,3.36842 ,33.05089 
89 ,18.0529 ,1.12469 ,3.34104 ,32.78227 
90 ,18.2448 ,1.12662 ,3.35815 ,32.95016 
91 ,18.4530 ,1.12870 ,3.29655 ,32.34575 
92 ,18.6452 ,1.13064 ,3.31366 ,32.51364 
93 ,18.8533 ,1.13274 ,3.27602 ,32.14428 
94 ,19.0613 ,1.13482 ,3.27259 ,32.11070 
95 ,19.2530 ,1.13673 ,3.24522 ,31.84207 
96 ,19.4452 ,1.13864 ,3.23495 ,31.74134 
97 ,19.6534 ,1.14070 ,3.20415 ,31.43913 
98 ,19.8453 ,1.14261 ,3.20073 ,31.40555 
99 ,20.0377 ,1.14455 ,3.18020 ,31.20409 
100 ,20.2618 ,1.14678 ,3.16993 ,31.10335 
101 ,20.4699 ,1.14887 ,3.13229 ,30.73399 
102 ,20.6778 ,1.15089 ,3.13229 ,30.73399 
103 ,20.8859 ,1.15303 ,3.10491 ,30.46536 
104 ,21.0782 ,1.15497 ,3.10833 ,30.49894 
105 ,21.2859 ,1.15704 ,3.07753 ,30.19674 
106 ,21.4778 ,1.15892 ,3.06384 ,30.06242 
107 ,21.6704 ,1.16089 ,3.03989 ,29.82737 
108 ,21.8626 ,1.16279 ,3.04331 ,29.86095 
109 ,22.0705 ,1.16486 ,3.00909 ,29.52517 
110 ,22.2627 ,1.16682 ,2.99540 ,29.39086 
111 ,22.4548 ,1.16871 ,2.99198 ,29.35728 
112 ,22.6468 ,1.17061 ,2.95433 ,28.98792 
113 ,22.8386 ,1.17253 ,2.95776 ,29.02150 
114 ,23.0469 ,1.17457 ,2.93380 ,28.78645 
115 ,23.2388 ,1.17651 ,2.92011 ,28.65213 
116 ,23.4312 ,1.17846 ,2.88931 ,28.34993 
117 ,23.6231 ,1.18042 ,2.90642 ,28.51782 
118 ,23.8313 ,1.18244 ,2.86193 ,28.08130 
119 ,24.0394 ,1.18456 ,2.86878 ,28.14846 
120 ,24.2475 ,1.18657 ,2.83456 ,27.81268 
121 ,24.4395 ,1.18855 ,2.82429 ,27.71194 
122 ,24.6316 ,1.19044 ,2.79691 ,27.44332 
123 ,24.8237 ,1.19237 ,2.79007 ,27.37616 
124 ,25.0479 ,1.19451 ,2.75927 ,27.07395 
125 ,25.2558 ,1.19668 ,2.75243 ,27.00680 
126 ,25.4480 ,1.19858 ,2.73189 ,26.80533 
127 ,25.6558 ,1.20068 ,2.71820 ,26.67101 
128 ,25.8478 ,1.20266 ,2.69083 ,26.40239 
129 ,26.0562 ,1.20467 ,2.68740 ,26.36881 
130 ,26.2645 ,1.20680 ,2.67029 ,26.20092 
131 ,26.4885 ,1.20887 ,2.64634 ,25.96587 
132 ,26.6966 ,1.21116 ,2.63607 ,25.86514 
133 ,26.8887 ,1.21302 ,2.61554 ,25.66367 
134 ,27.0806 ,1.21509 ,2.60527 ,25.56293 
135 ,27.2885 ,1.21694 ,2.58132 ,25.32788 
136 ,27.4967 ,1.21910 ,2.57789 ,25.29430 
137 ,27.6890 ,1.22102 ,2.54367 ,24.95852 
138 ,27.8971 ,1.22309 ,2.54025 ,24.92494 
139 ,28.1047 ,1.22513 ,2.52998 ,24.82421 
140 ,28.2810 ,1.22707 ,2.51287 ,24.65632 
141 ,28.4734 ,1.22889 ,2.49576 ,24.48842 
142 ,28.6652 ,1.23083 ,2.48207 ,24.35411 
143 ,28.8569 ,1.23267 ,2.46154 ,24.15264 
144 ,29.0495 ,1.23461 ,2.43759 ,23.91759 
145 ,29.2415 ,1.23650 ,2.44443 ,23.98475 
146 ,29.4336 ,1.23844 ,2.41363 ,23.68255 
147 ,29.6259 ,1.24038 ,2.38968 ,23.44750 
148 ,29.8498 ,1.24252 ,2.37941 ,23.34676 
149 ,30.0418 ,1.24456 ,2.37599 ,23.31318 
150 ,30.2336 ,1.24655 ,2.34519 ,23.01098 
151 ,30.4421 ,1.24853 ,2.34519 ,23.01098 
152 ,30.6340 ,1.25061 ,2.31439 ,22.70877 
153 ,30.8261 ,1.25238 ,2.31439 ,22.70877 
154 ,31.0183 ,1.25427 ,2.30070 ,22.57446 
155 ,31.2424 ,1.25647 ,2.27332 ,22.30584 
156 ,31.4339 ,1.25844 ,2.27332 ,22.30584 
157 ,31.6105 ,1.26036 ,2.24937 ,22.07079 
158 ,31.8025 ,1.26213 ,2.22883 ,21.86932 
159 ,32.0107 ,1.26414 ,2.23226 ,21.90290 
160 ,32.2186 ,1.26637 ,2.21515 ,21.73500 
161 ,32.4108 ,1.26823 ,2.16723 ,21.26491 
162 ,32.6025 ,1.27014 ,2.17066 ,21.29849 
163 ,32.7947 ,1.27207 ,2.15355 ,21.13059 
164 ,32.9871 ,1.27399 ,2.12617 ,20.86197 
165 ,33.1792 ,1.27592 ,2.12959 ,20.89555 
166 ,33.3711 ,1.27785 ,2.10564 ,20.66050 
167 ,33.5630 ,1.27979 ,2.10221 ,20.62692 
168 ,33.7716 ,1.28182 ,2.07484 ,20.35829 
169 ,33.9796 ,1.28389 ,2.07141 ,20.32472 
170 ,34.1716 ,1.28583 ,2.05088 ,20.12325 
171 ,34.3956 ,1.28804 ,2.04746 ,20.08967 
172 ,34.6037 ,1.29014 ,2.01324 ,19.75388 
173 ,34.8273 ,1.29228 ,1.99613 ,19.58599 
174 ,35.0033 ,1.29427 ,1.99270 ,19.55241 
175 ,35.2121 ,1.29620 ,1.97559 ,19.38452 
176 ,35.4521 ,1.29851 ,1.95848 ,19.21663 
177 ,35.6442 ,1.30056 ,1.95506 ,19.18305 
178 ,35.8523 ,1.30265 ,1.91742 ,18.81369 
179 ,36.0443 ,1.30454 ,1.90715 ,18.71296 
180 ,36.2365 ,1.30644 ,1.90715 ,18.71296 
181 ,36.4444 ,1.30849 ,1.86951 ,18.34360 
182 ,36.6527 ,1.31061 ,1.87293 ,18.37717 
183 ,36.8603 ,1.31270 ,1.86608 ,18.31002 
184 ,37.0848 ,1.31482 ,1.83186 ,17.97423 
185 ,37.2929 ,1.31703 ,1.81817 ,17.83992 
186 ,37.5010 ,1.31910 ,1.81133 ,17.77276 
187 ,37.7090 ,1.32119 ,1.77026 ,17.36983 
188 ,37.9011 ,1.32310 ,1.77026 ,17.36983 
189 ,38.0932 ,1.32501 ,1.77026 ,17.36983 
190 ,38.3013 ,1.32710 ,1.73604 ,17.03404 
191 ,38.4935 ,1.32904 ,1.74289 ,17.10120 
192 ,38.7016 ,1.33114 ,1.72235 ,16.89973 
193 ,38.9093 ,1.33315 ,1.70182 ,16.69826 
194 ,39.1335 ,1.33535 ,1.69155 ,16.59752 
195 ,39.3414 ,1.33751 ,1.67102 ,16.39605 
196 ,39.5338 ,1.33945 ,1.65733 ,16.26174 
197 ,39.7259 ,1.34137 ,1.63680 ,16.06027 
198 ,39.9338 ,1.34341 ,1.63680 ,16.06027 
199 ,40.1258 ,1.34532 ,1.59916 ,15.69091 
200 ,40.3340 ,1.34739 ,1.60258 ,15.72449 
201 ,40.5423 ,1.34951 ,1.58204 ,15.52302 
202 ,40.7504 ,1.35158 ,1.56151 ,15.32155 
203 ,40.9425 ,1.35356 ,1.56151 ,15.32155 
204 ,41.1506 ,1.35559 ,1.52729 ,14.98577 
205 ,41.3587 ,1.35768 ,1.52729 ,14.98577 
206 ,41.5668 ,1.35975 ,1.50333 ,14.75072 
207 ,41.7908 ,1.36188 ,1.49649 ,14.68356 
208 ,41.9989 ,1.36405 ,1.47938 ,14.51567 
209 ,42.1909 ,1.36599 ,1.45885 ,14.31420 
210 ,42.3826 ,1.36793 ,1.44858 ,14.21346 
211 ,42.5752 ,1.36984 ,1.44858 ,14.21346 
212 ,42.7833 ,1.37192 ,1.40409 ,13.77695 
213 ,42.9760 ,1.37385 ,1.43147 ,14.04557 
214 ,43.1671 ,1.37577 ,1.38014 ,13.54190 
215 ,43.3912 ,1.37781 ,1.38356 ,13.57548 
216 ,43.5996 ,1.38013 ,1.36645 ,13.40759 
217 ,43.8238 ,1.38227 ,1.34591 ,13.20612 
218 ,44.0156 ,1.38424 ,1.33907 ,13.13896 
219 ,44.2397 ,1.38634 ,1.31169 ,12.87033 
220 ,44.4319 ,1.38842 ,1.31512 ,12.90391 
221 ,44.6239 ,1.39032 ,1.29800 ,12.73602 
222 ,44.8156 ,1.39220 ,1.28089 ,12.56813 
223 ,45.0079 ,1.39417 ,1.27063 ,12.46739 
224 ,45.2002 ,1.39609 ,1.22956 ,12.06445 
225 ,45.4082 ,1.39820 ,1.22956 ,12.06445 
226 ,45.6161 ,1.40023 ,1.23298 ,12.09803 
227 ,45.8244 ,1.40223 ,1.20561 ,11.82941 
228 ,46.0485 ,1.40450 ,1.19876 ,11.76225 
229 ,46.2402 ,1.40648 ,1.19534 ,11.72867 
230 ,46.4327 ,1.40841 ,1.18165 ,11.59436 
231 ,46.6407 ,1.41051 ,1.15770 ,11.35931 
232 ,46.8328 ,1.41239 ,1.15770 ,11.35931 
233 ,47.0248 ,1.41430 ,1.13032 ,11.09068 
234 ,47.2169 ,1.41625 ,1.13374 ,11.12426 
235 ,47.4091 ,1.41817 ,1.10636 ,10.85563 
236 ,47.6171 ,1.42023 ,1.10979 ,10.88921 
237 ,47.8090 ,1.42217 ,1.09610 ,10.75490 
238 ,48.0330 ,1.42434 ,1.08925 ,10.68774 
239 ,48.2414 ,1.42650 ,1.05503 ,10.35196 
240 ,48.4332 ,1.42843 ,1.05503 ,10.35196 
241 ,48.6416 ,1.43050 ,1.03450 ,10.15049 
242 ,48.8337 ,1.43238 ,1.02765 ,10.08333 
243 ,49.0416 ,1.43447 ,1.01054 ,9.91544 
244 ,49.2818 ,1.43661 ,1.00712 ,9.88186 
245 ,49.4899 ,1.43884 ,0.97632 ,9.57966 
246 ,49.6819 ,1.44091 ,0.96263 ,9.44535 
247 ,49.8900 ,1.44301 ,0.95921 ,9.41177 
248 ,50.0816 ,1.44498 ,0.93868 ,9.21030 
249 ,50.2902 ,1.44684 ,0.94210 ,9.24388 
250 ,50.4822 ,1.44888 ,0.91472 ,8.97525 
251 ,50.6745 ,1.45078 ,0.91130 ,8.94167 
252 ,50.8664 ,1.45272 ,0.88734 ,8.70662 
253 ,51.0745 ,1.45484 ,0.89077 ,8.74020 
254 ,51.2505 ,1.45665 ,0.86681 ,8.50515 
255 ,51.4426 ,1.45846 ,0.84286 ,8.27011 
256 ,51.6348 ,1.46040 ,0.86339 ,8.47158 
257 ,51.8268 ,1.46231 ,0.82917 ,8.13579 
258 ,52.0189 ,1.46420 ,0.81206 ,7.96790 
259 ,52.2266 ,1.46629 ,0.80521 ,7.90074 
260 ,52.4671 ,1.46871 ,0.79152 ,7.76643 
261 ,52.6747 ,1.47078 ,0.79152 ,7.76643 
262 ,52.8671 ,1.47271 ,0.77441 ,7.59854 
263 ,53.0591 ,1.47465 ,0.75388 ,7.39707 
264 ,53.2676 ,1.47671 ,0.76415 ,7.49780 
265 ,53.4757 ,1.47876 ,0.72992 ,7.16202 
266 ,53.6835 ,1.48089 ,0.70939 ,6.96055 
267 ,53.8917 ,1.48287 ,0.72650 ,7.12844 
268 ,54.0997 ,1.48505 ,0.68886 ,6.75908 
269 ,54.3078 ,1.48710 ,0.68201 ,6.69193 
270 ,54.5157 ,1.48917 ,0.66833 ,6.55761 
271 ,54.7239 ,1.49124 ,0.64095 ,6.28899 
272 ,54.9318 ,1.49337 ,0.65464 ,6.42330 
273 ,55.1241 ,1.49529 ,0.62042 ,6.08752 
274 ,55.3160 ,1.49717 ,0.62726 ,6.15467 
275 ,55.5238 ,1.49929 ,0.59646 ,5.85247 
276 ,55.7162 ,1.50120 ,0.59988 ,5.88605 
277 ,55.9239 ,1.50318 ,0.57593 ,5.65100 
278 ,56.1000 ,1.50513 ,0.56224 ,5.51668 
279 ,56.2921 ,1.50692 ,0.56566 ,5.55026 
280 ,56.4843 ,1.50889 ,0.54513 ,5.34879 
281 ,56.6927 ,1.51099 ,0.54171 ,5.31522 
282 ,56.9005 ,1.51303 ,0.51091 ,5.01301 
283 ,57.1086 ,1.51510 ,0.51775 ,5.08017 
284 ,57.3006 ,1.51702 ,0.49380 ,4.84512 
285 ,57.4930 ,1.51901 ,0.50064 ,4.91228 
286 ,57.7006 ,1.52097 ,0.46642 ,4.57649 
287 ,57.9249 ,1.52320 ,0.48353 ,4.74438 
288 ,58.1331 ,1.52533 ,0.45615 ,4.47576 
289 ,58.3409 ,1.52739 ,0.43904 ,4.30787 
290 ,58.5332 ,1.52936 ,0.44931 ,4.40860 
291 ,58.7415 ,1.53145 ,0.42193 ,4.13997 
292 ,58.9817 ,1.53367 ,0.41166 ,4.03924 
293 ,59.1736 ,1.53587 ,0.39797 ,3.90493 
294 ,59.3655 ,1.53763 ,0.38429 ,3.77061 
295 ,59.5578 ,1.53959 ,0.37402 ,3.66988 
296 ,59.7657 ,1.54167 ,0.36375 ,3.56914 
297 ,59.9576 ,1.54362 ,0.36375 ,3.56914 
298 ,60.1502 ,1.54548 ,0.34322 ,3.36767 
299 ,60.3582 ,1.54759 ,0.32269 ,3.16620 
300 ,60.5664 ,1.54966 ,0.32611 ,3.19978 
301 ,60.7743 ,1.55171 ,0.31242 ,3.06547 
302 ,60.9981 ,1.55396 ,0.28847 ,2.83042 
303 ,61.2063 ,1.55603 ,0.28504 ,2.79684 
304 ,61.4466 ,1.55846 ,0.28162 ,2.76326 
305 ,61.6547 ,1.56058 ,0.26451 ,2.59537 
306 ,61.8463 ,1.56243 ,0.25767 ,2.52822 
307 ,62.0385 ,1.56435 ,0.22687 ,2.22601 
308 ,62.2308 ,1.56628 ,0.24398 ,2.39390 
309 ,62.4387 ,1.56833 ,0.20976 ,2.05812 
310 ,62.6472 ,1.57046 ,0.21318 ,2.09170 
311 ,62.8392 ,1.57246 ,0.20976 ,2.05812 
312 ,63.0313 ,1.57431 ,0.19264 ,1.89023 
313 ,63.2230 ,1.57624 ,0.17211 ,1.68876 
314 ,63.4154 ,1.57815 ,0.16527 ,1.62160 
315 ,63.6235 ,1.58022 ,0.14816 ,1.45371 
316 ,63.8316 ,1.58231 ,0.16185 ,1.58802 
317 ,64.0398 ,1.58438 ,0.12762 ,1.25224 
318 ,64.2316 ,1.58632 ,0.13105 ,1.28582 
319 ,64.4556 ,1.58852 ,0.11393 ,1.11793 
320 ,64.6638 ,1.59066 ,0.07971 ,0.78214 
321 ,64.8560 ,1.59260 ,0.08656 ,0.84930 
322 ,65.0640 ,1.59464 ,0.08314 ,0.81572 
323 ,65.2562 ,1.59650 ,0.06945 ,0.68141 
324 ,65.4641 ,1.59857 ,0.06260 ,0.61425 
325 ,65.6563 ,1.60053 ,0.04891 ,0.47994 
326 ,65.8485 ,1.60247 ,0.04207 ,0.41278 
327 ,66.0406 ,1.60440 ,0.02154 ,0.21131 
328 ,66.2487 ,1.60647 ,0.02496 ,0.24489 
329 ,66.4407 ,1.60838 ,0.00443 ,0.04342 
330 ,66.6488 ,1.61048 ,0.00443 ,0.04342 
331 ,66.8569 ,1.61251 ,-0.00926 ,-0.09089 
332 ,67.0809 ,1.61465 ,-0.00242 ,-0.02373 
333 ,67.2886 ,1.61691 ,-0.03322 ,-0.32594 
334 ,67.4810 ,1.61882 ,-0.05033 ,-0.49383 
335 ,67.6730 ,1.62070 ,-0.05717 ,-0.56099 
336 ,67.8653 ,1.62264 ,-0.06402 ,-0.62814 
337 ,68.0573 ,1.62456 ,-0.07086 ,-0.69530 
338 ,68.2651 ,1.62662 ,-0.07771 ,-0.76246 
339 ,68.4575 ,1.62856 ,-0.10166 ,-0.99751 
340 ,68.6494 ,1.63047 ,-0.09140 ,-0.89677 
341 ,68.8896 ,1.63274 ,-0.10166 ,-0.99751 
342 ,69.0975 ,1.63497 ,-0.11877 ,-1.16540 
343 ,69.2898 ,1.63685 ,-0.11535 ,-1.13182 
344 ,69.4819 ,1.63879 ,-0.14615 ,-1.43402 
345 ,69.6743 ,1.64073 ,-0.14615 ,-1.43402 
346 ,69.8820 ,1.64280 ,-0.16668 ,-1.63549 
347 ,70.0747 ,1.64471 ,-0.17011 ,-1.66907 
348 ,70.2659 ,1.64664 ,-0.16668 ,-1.63549 
349 ,70.4904 ,1.64889 ,-0.18722 ,-1.83696 
350 ,70.6985 ,1.65100 ,-0.20090 ,-1.97128 
351 ,70.9061 ,1.65303 ,-0.22144 ,-2.17275 
352 ,71.0987 ,1.65497 ,-0.22828 ,-2.23990 
353 ,71.3066 ,1.65699 ,-0.23513 ,-2.30706 
354 ,71.4988 ,1.65895 ,-0.24539 ,-2.40779 
355 ,71.7068 ,1.66102 ,-0.25566 ,-2.50853 
356 ,71.8989 ,1.66294 ,-0.26935 ,-2.64284 
357 ,72.1070 ,1.66504 ,-0.26935 ,-2.64284 
358 ,72.3309 ,1.66714 ,-0.30015 ,-2.94505 
359 ,72.5392 ,1.66935 ,-0.28988 ,-2.84431 
360 ,72.7309 ,1.67129 ,-0.29673 ,-2.91147 
361 ,72.9232 ,1.67322 ,-0.32068 ,-3.14652 
362 ,73.1149 ,1.67507 ,-0.32752 ,-3.21367 
363 ,73.3070 ,1.67702 ,-0.32068 ,-3.14652 
364 ,73.4992 ,1.67894 ,-0.34464 ,-3.38156 
365 ,73.6916 ,1.68088 ,-0.33437 ,-3.28083 
366 ,73.8835 ,1.68281 ,-0.36517 ,-3.58303 
367 ,74.0758 ,1.68472 ,-0.35832 ,-3.51588 
368 ,74.2834 ,1.68680 ,-0.38912 ,-3.81808 
369 ,74.5077 ,1.68899 ,-0.38228 ,-3.75093 
370 ,74.6998 ,1.69097 ,-0.39939 ,-3.91882 
371 ,74.9079 ,1.69298 ,-0.39597 ,-3.88524 
372 ,75.0999 ,1.69498 ,-0.42335 ,-4.15387 
373 ,75.2918 ,1.69686 ,-0.41992 ,-4.12029 
374 ,75.4844 ,1.69883 ,-0.43361 ,-4.25460 
375 ,75.6924 ,1.70089 ,-0.44046 ,-4.32176 
376 ,75.9005 ,1.70294 ,-0.47126 ,-4.62396 
377 ,76.1086 ,1.70505 ,-0.45072 ,-4.42249 
378 ,76.3006 ,1.70694 ,-0.47126 ,-4.62396 
379 ,76.4927 ,1.70885 ,-0.47126 ,-4.62396 
380 ,76.6850 ,1.71082 ,-0.49863 ,-4.89259 
381 ,76.8928 ,1.71288 ,-0.48152 ,-4.72470 
382 ,77.0848 ,1.71477 ,-0.50548 ,-4.95975 
383 ,77.2769 ,1.71668 ,-0.52943 ,-5.19479 
384 ,77.4846 ,1.71871 ,-0.51574 ,-5.06048 
385 ,77.6932 ,1.72085 ,-0.52943 ,-5.19479 
386 ,77.9173 ,1.72299 ,-0.56365 ,-5.53058 
387 ,78.1251 ,1.72512 ,-0.55681 ,-5.46342 
388 ,78.3172 ,1.72707 ,-0.57392 ,-5.63131 
389 ,78.5093 ,1.72907 ,-0.56365 ,-5.53058 
390 ,78.6855 ,1.73092 ,-0.58761 ,-5.76562 
391 ,78.8777 ,1.73267 ,-0.59445 ,-5.83278 
392 ,79.0857 ,1.73478 ,-0.60130 ,-5.89994 
393 ,79.2773 ,1.73672 ,-0.61156 ,-6.00067 
394 ,79.5019 ,1.73892 ,-0.62525 ,-6.13499 
395 ,79.6935 ,1.74101 ,-0.61499 ,-6.03425 
396 ,79.9021 ,1.74289 ,-0.65263 ,-6.40361 
397 ,80.1258 ,1.74512 ,-0.62868 ,-6.16856 
398 ,80.3182 ,1.74708 ,-0.65263 ,-6.40361 
399 ,80.5102 ,1.74905 ,-0.64236 ,-6.30288 
400 ,80.7184 ,1.75102 ,-0.68343 ,-6.70582 
401 ,80.9261 ,1.75322 ,-0.68001 ,-6.67224 
402 ,81.1184 ,1.75509 ,-0.69027 ,-6.77297 
403 ,81.3106 ,1.75704 ,-0.68685 ,-6.73940 
404 ,81.5028 ,1.75898 ,-0.71081 ,-6.97444 
405 ,81.7109 ,1.76105 ,-0.70396 ,-6.90729 
406 ,81.9345 ,1.76323 ,-0.72107 ,-7.07518 
407 ,82.1269 ,1.76520 ,-0.73134 ,-7.17591 
408 ,82.3348 ,1.76727 ,-0.74503 ,-7.31023 
409 ,82.5271 ,1.76917 ,-0.74845 ,-7.34380 
410 ,82.7348 ,1.77128 ,-0.75530 ,-7.41096 
411 ,82.9272 ,1.77316 ,-0.75872 ,-7.44454 
412 ,83.1193 ,1.77511 ,-0.78952 ,-7.74674 
413 ,83.3435 ,1.77730 ,-0.78952 ,-7.74674 
414 ,83.5352 ,1.77930 ,-0.77925 ,-7.64601 
415 ,83.7276 ,1.78118 ,-0.79636 ,-7.81390 
416 ,83.9194 ,1.78310 ,-0.81005 ,-7.94821 
417 ,84.1114 ,1.78503 ,-0.81005 ,-7.94821 
418 ,84.3037 ,1.78693 ,-0.83058 ,-8.14968 
419 ,84.5120 ,1.78909 ,-0.83058 ,-8.14968 
420 ,84.7196 ,1.79109 ,-0.85796 ,-8.41831 
421 ,84.9122 ,1.79307 ,-0.83401 ,-8.18326 
422 ,85.1361 ,1.79513 ,-0.87849 ,-8.61978 
423 ,85.3281 ,1.79724 ,-0.87165 ,-8.55262 
424 ,85.5205 ,1.79913 ,-0.88534 ,-8.68694 
425 ,85.7125 ,1.80106 ,-0.87507 ,-8.58620 
426 ,85.9206 ,1.80311 ,-0.90929 ,-8.92198 
427 ,86.1127 ,1.80504 ,-0.89218 ,-8.75409 
428 ,86.3043 ,1.80693 ,-0.91614 ,-8.98914 
429 ,86.5287 ,1.80924 ,-0.91272 ,-8.95556 
430 ,86.7370 ,1.81130 ,-0.92640 ,-9.08988 
431 ,86.9287 ,1.81316 ,-0.93667 ,-9.19061 
432 ,87.1371 ,1.81520 ,-0.94009 ,-9.22419 
433 ,87.3290 ,1.81721 ,-0.95378 ,-9.35850 
434 ,87.5211 ,1.81916 ,-0.97774 ,-9.59355 
435 ,87.7132 ,1.82120 ,-0.96747 ,-9.49282 
436 ,87.9052 ,1.82294 ,-0.97774 ,-9.59355 
437 ,88.0975 ,1.82490 ,-0.98458 ,-9.66071 
438 ,88.2892 ,1.82678 ,-0.99485 ,-9.76144 
439 ,88.4813 ,1.82871 ,-1.01538 ,-9.96291 
440 ,88.6898 ,1.83078 ,-1.00854 ,-9.89576 
441 ,88.8977 ,1.83291 ,-1.00511 ,-9.86218 
442 ,89.0900 ,1.83484 ,-1.03249 ,-10.13080 
443 ,89.2980 ,1.83686 ,-1.03249 ,-10.13080 
444 ,89.5062 ,1.83895 ,-1.04960 ,-10.29869 
445 ,89.6981 ,1.84091 ,-1.05302 ,-10.33227 
446 ,89.8903 ,1.84282 ,-1.05302 ,-10.33227 
447 ,90.0823 ,1.84486 ,-1.05987 ,-10.39943 
448 ,90.2905 ,1.84678 ,-1.07356 ,-10.53374 
449 ,90.4823 ,1.84871 ,-1.08382 ,-10.63448 
450 ,90.6742 ,1.85064 ,-1.08725 ,-10.66806 
451 ,90.8825 ,1.85268 ,-1.11462 ,-10.93668 
452 ,91.1067 ,1.85489 ,-1.11462 ,-10.93668 
453 ,91.2983 ,1.85688 ,-1.10436 ,-10.83595 
454 ,91.5230 ,1.85908 ,-1.13173 ,-11.10457 
455 ,91.7307 ,1.86118 ,-1.11462 ,-10.93668 
456 ,91.9231 ,1.86314 ,-1.14542 ,-11.23889 
457 ,92.1312 ,1.86518 ,-1.13858 ,-11.17173 
458 ,92.3393 ,1.86727 ,-1.15569 ,-11.33962 
459 ,92.5473 ,1.86933 ,-1.15569 ,-11.33962 
460 ,92.7395 ,1.87130 ,-1.17280 ,-11.50751 
461 ,92.9311 ,1.87328 ,-1.18649 ,-11.64183 
