Data stamp = , 03-05-2022 06:30:29 966

Calibration Values: 
Slope = , 26.54 , g/V 
Offset Voltage at no contact = , -0.501760 , V 

No , Time , Stage Position ,   Mass , Force 
   ,  (s) ,      (mm)      ,   (g)  , (mN)  

1 ,0.0000 ,0.94942 ,4.83310 ,47.42240 
2 ,0.2500 ,0.94951 ,4.83310 ,47.42240 
3 ,0.8101 ,0.95200 ,4.81599 ,47.25451 
4 ,1.0343 ,0.95442 ,4.83995 ,47.48956 
5 ,1.2424 ,0.95654 ,4.80573 ,47.15378 
6 ,1.4661 ,0.95872 ,4.81257 ,47.22093 
7 ,1.6582 ,0.96075 ,4.81257 ,47.22093 
8 ,1.8666 ,0.96276 ,4.78519 ,46.95231 
9 ,2.0908 ,0.96503 ,4.76124 ,46.71726 
10 ,2.2829 ,0.96696 ,4.73386 ,46.44863 
11 ,2.4907 ,0.96907 ,4.72017 ,46.31432 
12 ,2.6830 ,0.97102 ,4.69964 ,46.11285 
13 ,2.8749 ,0.97289 ,4.68937 ,46.01212 
14 ,3.0668 ,0.97483 ,4.65857 ,45.70991 
15 ,3.2592 ,0.97680 ,4.64831 ,45.60918 
16 ,3.4835 ,0.97895 ,4.61408 ,45.27339 
17 ,3.6753 ,0.98092 ,4.61408 ,45.27339 
18 ,3.8671 ,0.98295 ,4.58671 ,45.00477 
19 ,4.0755 ,0.98484 ,4.57644 ,44.90403 
20 ,4.2836 ,0.98698 ,4.53195 ,44.46751 
21 ,4.4757 ,0.98891 ,4.53880 ,44.53467 
22 ,4.6839 ,0.99093 ,4.47378 ,43.89668 
23 ,4.8759 ,0.99296 ,4.48746 ,44.03100 
24 ,5.0836 ,0.99496 ,4.46351 ,43.79595 
25 ,5.2759 ,0.99690 ,4.45324 ,43.69521 
26 ,5.4681 ,0.99879 ,4.41218 ,43.29227 
27 ,5.6920 ,1.00095 ,4.41218 ,43.29227 
28 ,5.8843 ,1.00302 ,4.37453 ,42.92291 
29 ,6.0919 ,1.00507 ,4.35058 ,42.68786 
30 ,6.2845 ,1.00701 ,4.33347 ,42.51997 
31 ,6.4922 ,1.00912 ,4.31978 ,42.38566 
32 ,6.6847 ,1.01102 ,4.28213 ,42.01630 
33 ,6.8926 ,1.01315 ,4.25818 ,41.78125 
34 ,7.0843 ,1.01507 ,4.24791 ,41.68051 
35 ,7.2927 ,1.01710 ,4.24449 ,41.64694 
36 ,7.5006 ,1.01908 ,4.22053 ,41.41189 
37 ,7.7088 ,1.02115 ,4.19316 ,41.14326 
38 ,7.9171 ,1.02331 ,4.19316 ,41.14326 
39 ,8.1253 ,1.02538 ,4.15209 ,40.74032 
40 ,8.3170 ,1.02731 ,4.14183 ,40.63959 
41 ,8.5254 ,1.02934 ,4.10760 ,40.30380 
42 ,8.7495 ,1.03159 ,4.08707 ,40.10233 
43 ,8.9577 ,1.03367 ,4.08365 ,40.06876 
44 ,9.1654 ,1.03574 ,4.04600 ,39.69940 
45 ,9.3895 ,1.03804 ,4.04600 ,39.69940 
46 ,9.5979 ,1.04005 ,4.01863 ,39.43077 
47 ,9.8219 ,1.04228 ,3.98783 ,39.12856 
48 ,10.0140 ,1.04425 ,3.99125 ,39.16214 
49 ,10.2057 ,1.04615 ,3.96045 ,38.85994 
50 ,10.3982 ,1.04807 ,3.94676 ,38.72562 
51 ,10.5902 ,1.05005 ,3.91254 ,38.38984 
52 ,10.7823 ,1.05196 ,3.90912 ,38.35626 
53 ,10.9905 ,1.05406 ,3.88858 ,38.15479 
54 ,11.1823 ,1.05597 ,3.87832 ,38.05406 
55 ,11.3907 ,1.05801 ,3.86463 ,37.91975 
56 ,11.5985 ,1.06011 ,3.84410 ,37.71828 
57 ,11.8066 ,1.06221 ,3.81330 ,37.41607 
58 ,12.0149 ,1.06428 ,3.80645 ,37.34891 
59 ,12.2069 ,1.06619 ,3.77908 ,37.08029 
60 ,12.3993 ,1.06816 ,3.75854 ,36.87882 
61 ,12.5750 ,1.06998 ,3.74485 ,36.74450 
62 ,12.7667 ,1.07176 ,3.72774 ,36.57661 
63 ,12.9753 ,1.07384 ,3.72432 ,36.54303 
64 ,13.1833 ,1.07592 ,3.69010 ,36.20725 
65 ,13.3748 ,1.07783 ,3.69010 ,36.20725 
66 ,13.5835 ,1.08001 ,3.65246 ,35.83789 
67 ,13.8073 ,1.08213 ,3.63192 ,35.63642 
68 ,14.0158 ,1.08428 ,3.61823 ,35.50211 
69 ,14.2398 ,1.08654 ,3.59428 ,35.26706 
70 ,14.4319 ,1.08844 ,3.56348 ,34.96485 
71 ,14.6238 ,1.09038 ,3.56006 ,34.93128 
72 ,14.8157 ,1.09225 ,3.56006 ,34.93128 
73 ,14.9916 ,1.09413 ,3.52926 ,34.62907 
74 ,15.1679 ,1.09591 ,3.50530 ,34.39402 
75 ,15.3761 ,1.09787 ,3.50530 ,34.39402 
76 ,15.5682 ,1.09981 ,3.48135 ,34.15898 
77 ,15.7602 ,1.10172 ,3.46766 ,34.02466 
78 ,15.9683 ,1.10378 ,3.44028 ,33.75604 
79 ,16.1605 ,1.10575 ,3.44370 ,33.78961 
80 ,16.3681 ,1.10777 ,3.39237 ,33.28594 
81 ,16.5927 ,1.11006 ,3.39921 ,33.35310 
82 ,16.8009 ,1.11214 ,3.38553 ,33.21878 
83 ,16.9928 ,1.11405 ,3.35815 ,32.95016 
84 ,17.2003 ,1.11608 ,3.34104 ,32.78227 
85 ,17.3929 ,1.11805 ,3.33762 ,32.74869 
86 ,17.5848 ,1.11993 ,3.29997 ,32.37933 
87 ,17.7930 ,1.12201 ,3.29655 ,32.34575 
88 ,17.9851 ,1.12398 ,3.27259 ,32.11070 
89 ,18.1934 ,1.12605 ,3.26575 ,32.04354 
90 ,18.4014 ,1.12810 ,3.22811 ,31.67418 
91 ,18.6255 ,1.13032 ,3.21100 ,31.50629 
92 ,18.8174 ,1.13229 ,3.22811 ,31.67418 
93 ,19.0097 ,1.13420 ,3.18362 ,31.23766 
94 ,19.2177 ,1.13624 ,3.18704 ,31.27124 
95 ,19.4257 ,1.13832 ,3.14940 ,30.90188 
96 ,19.6178 ,1.14029 ,3.14940 ,30.90188 
97 ,19.8259 ,1.14242 ,3.11518 ,30.56610 
98 ,20.0340 ,1.14439 ,3.10833 ,30.49894 
99 ,20.2260 ,1.14635 ,3.08780 ,30.29747 
100 ,20.4340 ,1.14841 ,3.07753 ,30.19674 
101 ,20.6421 ,1.15048 ,3.04331 ,29.86095 
102 ,20.8504 ,1.15262 ,3.01935 ,29.62590 
103 ,21.0424 ,1.15452 ,3.02620 ,29.69306 
104 ,21.2345 ,1.15648 ,3.01593 ,29.59233 
105 ,21.4267 ,1.15836 ,2.97487 ,29.18939 
106 ,21.6181 ,1.16027 ,2.98171 ,29.25654 
107 ,21.7948 ,1.16215 ,2.95433 ,28.98792 
108 ,21.9868 ,1.16396 ,2.93380 ,28.78645 
109 ,22.1789 ,1.16587 ,2.93722 ,28.82003 
110 ,22.3866 ,1.16790 ,2.89958 ,28.45066 
111 ,22.5789 ,1.16986 ,2.89273 ,28.38351 
112 ,22.7868 ,1.17192 ,2.86878 ,28.14846 
113 ,22.9948 ,1.17400 ,2.85509 ,28.01415 
114 ,23.2029 ,1.17603 ,2.84825 ,27.94699 
115 ,23.3949 ,1.17804 ,2.84140 ,27.87983 
116 ,23.6190 ,1.18027 ,2.79007 ,27.37616 
117 ,23.8111 ,1.18219 ,2.79007 ,27.37616 
118 ,24.0039 ,1.18410 ,2.75927 ,27.07395 
119 ,24.1954 ,1.18603 ,2.75585 ,27.04038 
120 ,24.3875 ,1.18791 ,2.73189 ,26.80533 
121 ,24.5798 ,1.18985 ,2.73531 ,26.83891 
122 ,24.7878 ,1.19192 ,2.70794 ,26.57028 
123 ,24.9798 ,1.19390 ,2.69425 ,26.43597 
124 ,25.1881 ,1.19597 ,2.67714 ,26.26807 
125 ,25.3799 ,1.19791 ,2.67714 ,26.26807 
126 ,25.5882 ,1.19996 ,2.66003 ,26.10018 
127 ,25.7804 ,1.20190 ,2.62923 ,25.79798 
128 ,25.9720 ,1.20381 ,2.61896 ,25.69724 
129 ,26.1644 ,1.20573 ,2.58816 ,25.39504 
130 ,26.3565 ,1.20763 ,2.59843 ,25.49577 
131 ,26.5323 ,1.20951 ,2.56763 ,25.19357 
132 ,26.7248 ,1.21133 ,2.54025 ,24.92494 
133 ,26.9329 ,1.21340 ,2.55394 ,25.05926 
134 ,27.1409 ,1.21546 ,2.51287 ,24.65632 
135 ,27.3490 ,1.21744 ,2.51630 ,24.68989 
136 ,27.5570 ,1.21962 ,2.50603 ,24.58916 
137 ,27.7331 ,1.22153 ,2.46839 ,24.21980 
138 ,27.9250 ,1.22330 ,2.45127 ,24.05191 
139 ,28.1014 ,1.22519 ,2.44785 ,24.01833 
140 ,28.3253 ,1.22722 ,2.42732 ,23.81686 
141 ,28.5494 ,1.22945 ,2.42390 ,23.78328 
142 ,28.7415 ,1.23146 ,2.38968 ,23.44750 
143 ,28.9338 ,1.23338 ,2.38283 ,23.38034 
144 ,29.1417 ,1.23545 ,2.36572 ,23.21245 
145 ,29.3335 ,1.23751 ,2.35545 ,23.11171 
146 ,29.5258 ,1.23930 ,2.33150 ,22.87667 
147 ,29.7180 ,1.24121 ,2.32808 ,22.84309 
148 ,29.9257 ,1.24330 ,2.29385 ,22.50731 
149 ,30.1018 ,1.24518 ,2.28701 ,22.44015 
150 ,30.2939 ,1.24703 ,2.28701 ,22.44015 
151 ,30.4858 ,1.24891 ,2.25279 ,22.10437 
152 ,30.6780 ,1.25083 ,2.25279 ,22.10437 
153 ,30.8864 ,1.25292 ,2.22199 ,21.80216 
154 ,31.0942 ,1.25500 ,2.21857 ,21.76858 
155 ,31.2865 ,1.25691 ,2.18435 ,21.43280 
156 ,31.4943 ,1.25896 ,2.19119 ,21.49996 
157 ,31.6867 ,1.26092 ,2.14670 ,21.06344 
158 ,31.8946 ,1.26299 ,2.15697 ,21.16417 
159 ,32.0868 ,1.26488 ,2.13301 ,20.92912 
160 ,32.2790 ,1.26682 ,2.12617 ,20.86197 
161 ,32.4711 ,1.26874 ,2.10564 ,20.66050 
162 ,32.6791 ,1.27080 ,2.10564 ,20.66050 
163 ,32.8871 ,1.27294 ,2.07484 ,20.35829 
164 ,33.0951 ,1.27495 ,2.06799 ,20.29114 
165 ,33.3036 ,1.27702 ,2.03719 ,19.98893 
166 ,33.5115 ,1.27912 ,2.03035 ,19.92178 
167 ,33.7032 ,1.28105 ,2.02008 ,19.82104 
168 ,33.8960 ,1.28304 ,2.00982 ,19.72031 
169 ,34.1038 ,1.28505 ,1.98586 ,19.48526 
170 ,34.2956 ,1.28701 ,1.98586 ,19.48526 
171 ,34.4876 ,1.28889 ,1.96190 ,19.25021 
172 ,34.6799 ,1.29080 ,1.95164 ,19.14948 
173 ,34.8719 ,1.29275 ,1.93453 ,18.98158 
174 ,35.0640 ,1.29469 ,1.90373 ,18.67938 
175 ,35.2560 ,1.29660 ,1.92426 ,18.88085 
176 ,35.4803 ,1.29878 ,1.88662 ,18.51149 
177 ,35.6722 ,1.30074 ,1.87635 ,18.41075 
178 ,35.8640 ,1.30272 ,1.84897 ,18.14213 
179 ,36.0726 ,1.30473 ,1.85924 ,18.24286 
180 ,36.2807 ,1.30680 ,1.83186 ,17.97423 
181 ,36.4887 ,1.30893 ,1.80791 ,17.73919 
182 ,36.6968 ,1.31100 ,1.81817 ,17.83992 
183 ,36.9048 ,1.31307 ,1.78395 ,17.50414 
184 ,37.0969 ,1.31501 ,1.78395 ,17.50414 
185 ,37.3057 ,1.31706 ,1.74631 ,17.13478 
186 ,37.4971 ,1.31909 ,1.73946 ,17.06762 
187 ,37.6890 ,1.32095 ,1.71209 ,16.79899 
188 ,37.8971 ,1.32295 ,1.72235 ,16.89973 
189 ,38.0889 ,1.32489 ,1.70182 ,16.69826 
190 ,38.2974 ,1.32699 ,1.68129 ,16.49679 
191 ,38.5057 ,1.32907 ,1.66760 ,16.36248 
192 ,38.6975 ,1.33101 ,1.65733 ,16.26174 
193 ,38.9216 ,1.33323 ,1.63338 ,16.02669 
194 ,39.1138 ,1.33512 ,1.62311 ,15.92596 
195 ,39.3057 ,1.33710 ,1.60600 ,15.75807 
196 ,39.4978 ,1.33900 ,1.60942 ,15.79164 
197 ,39.6899 ,1.34091 ,1.57178 ,15.42228 
198 ,39.8981 ,1.34301 ,1.58204 ,15.52302 
199 ,40.0901 ,1.34492 ,1.54782 ,15.18724 
200 ,40.2819 ,1.34687 ,1.53756 ,15.08650 
201 ,40.5222 ,1.34904 ,1.53756 ,15.08650 
202 ,40.7144 ,1.35114 ,1.51018 ,14.81787 
203 ,40.9065 ,1.35308 ,1.49649 ,14.68356 
204 ,41.1145 ,1.35513 ,1.48280 ,14.54925 
205 ,41.3226 ,1.35722 ,1.46569 ,14.38136 
206 ,41.5146 ,1.35930 ,1.45542 ,14.28062 
207 ,41.7068 ,1.36104 ,1.43147 ,14.04557 
208 ,41.8990 ,1.36302 ,1.44516 ,14.17989 
209 ,42.1069 ,1.36512 ,1.40409 ,13.77695 
210 ,42.2990 ,1.36704 ,1.41778 ,13.91126 
211 ,42.5069 ,1.36901 ,1.37671 ,13.50832 
212 ,42.7149 ,1.37121 ,1.39040 ,13.64263 
213 ,42.9232 ,1.37321 ,1.34934 ,13.23969 
214 ,43.1151 ,1.37515 ,1.35618 ,13.30685 
215 ,43.3234 ,1.37717 ,1.31169 ,12.87033 
216 ,43.5312 ,1.37923 ,1.33565 ,13.10538 
217 ,43.7390 ,1.38141 ,1.31169 ,12.87033 
218 ,43.9310 ,1.38340 ,1.27405 ,12.50097 
219 ,44.1397 ,1.38539 ,1.28089 ,12.56813 
220 ,44.3798 ,1.38786 ,1.27405 ,12.50097 
221 ,44.5719 ,1.38972 ,1.23298 ,12.09803 
222 ,44.7635 ,1.39165 ,1.22614 ,12.03088 
223 ,44.9720 ,1.39367 ,1.21929 ,11.96372 
224 ,45.1801 ,1.39581 ,1.20561 ,11.82941 
225 ,45.3882 ,1.39785 ,1.17138 ,11.49362 
226 ,45.5961 ,1.39995 ,1.16454 ,11.42647 
227 ,45.8045 ,1.40201 ,1.16112 ,11.39289 
228 ,46.0123 ,1.40414 ,1.14743 ,11.25857 
229 ,46.2202 ,1.40621 ,1.14401 ,11.22500 
230 ,46.4124 ,1.40809 ,1.11321 ,10.92279 
231 ,46.6046 ,1.41004 ,1.10636 ,10.85563 
232 ,46.8129 ,1.41212 ,1.08925 ,10.68774 
233 ,47.0044 ,1.41414 ,1.07556 ,10.55343 
234 ,47.1969 ,1.41596 ,1.07556 ,10.55343 
235 ,47.3891 ,1.41784 ,1.04476 ,10.25123 
236 ,47.5972 ,1.41994 ,1.05161 ,10.31838 
237 ,47.8053 ,1.42202 ,1.02765 ,10.08333 
238 ,47.9973 ,1.42396 ,1.03792 ,10.18407 
239 ,48.2214 ,1.42606 ,1.00028 ,9.81471 
240 ,48.4295 ,1.42826 ,0.97974 ,9.61324 
241 ,48.6215 ,1.43021 ,0.98659 ,9.68039 
242 ,48.8295 ,1.43230 ,0.95921 ,9.41177 
243 ,49.0217 ,1.43421 ,0.94552 ,9.27745 
244 ,49.2298 ,1.43623 ,0.93525 ,9.17672 
245 ,49.4373 ,1.43836 ,0.93525 ,9.17672 
246 ,49.6618 ,1.44056 ,0.91130 ,8.94167 
247 ,49.8539 ,1.44251 ,0.89419 ,8.77378 
248 ,50.0458 ,1.44441 ,0.88392 ,8.67305 
249 ,50.2378 ,1.44639 ,0.88050 ,8.63947 
250 ,50.4459 ,1.44842 ,0.86681 ,8.50515 
251 ,50.6379 ,1.45041 ,0.86339 ,8.47158 
252 ,50.8460 ,1.45232 ,0.83259 ,8.16937 
253 ,51.0542 ,1.45441 ,0.83259 ,8.16937 
254 ,51.2462 ,1.45645 ,0.80179 ,7.86717 
255 ,51.4383 ,1.45837 ,0.79837 ,7.83359 
256 ,51.6304 ,1.46030 ,0.78468 ,7.69927 
257 ,51.8224 ,1.46222 ,0.80179 ,7.86717 
258 ,52.0144 ,1.46417 ,0.75730 ,7.43065 
259 ,52.2067 ,1.46605 ,0.74704 ,7.32991 
260 ,52.3987 ,1.46795 ,0.74704 ,7.32991 
261 ,52.6066 ,1.47019 ,0.73677 ,7.22918 
262 ,52.7988 ,1.47194 ,0.71966 ,7.06129 
263 ,52.9908 ,1.47391 ,0.69570 ,6.82624 
264 ,53.1830 ,1.47580 ,0.70255 ,6.89340 
265 ,53.3751 ,1.47774 ,0.67859 ,6.65835 
266 ,53.5672 ,1.47964 ,0.67859 ,6.65835 
267 ,53.7753 ,1.48169 ,0.65806 ,6.45688 
268 ,53.9673 ,1.48366 ,0.64437 ,6.32256 
269 ,54.1593 ,1.48560 ,0.63753 ,6.25541 
270 ,54.3514 ,1.48748 ,0.61015 ,5.98678 
271 ,54.5434 ,1.48942 ,0.61015 ,5.98678 
272 ,54.7355 ,1.49131 ,0.59988 ,5.88605 
273 ,54.9280 ,1.49321 ,0.58962 ,5.78531 
274 ,55.1202 ,1.49513 ,0.58277 ,5.71815 
275 ,55.3283 ,1.49725 ,0.57251 ,5.61742 
276 ,55.5203 ,1.49915 ,0.55539 ,5.44953 
277 ,55.6964 ,1.50105 ,0.53144 ,5.21448 
278 ,55.9206 ,1.50303 ,0.53144 ,5.21448 
279 ,56.1286 ,1.50522 ,0.52459 ,5.14732 
280 ,56.3207 ,1.50720 ,0.51091 ,5.01301 
281 ,56.5285 ,1.50924 ,0.49380 ,4.84512 
282 ,56.7209 ,1.51118 ,0.48695 ,4.77796 
283 ,56.9284 ,1.51322 ,0.46642 ,4.57649 
284 ,57.1210 ,1.51516 ,0.46642 ,4.57649 
285 ,57.3132 ,1.51707 ,0.44246 ,4.34144 
286 ,57.5053 ,1.51911 ,0.44588 ,4.37502 
287 ,57.7133 ,1.52102 ,0.41851 ,4.10640 
288 ,57.9214 ,1.52319 ,0.41851 ,4.10640 
289 ,58.1293 ,1.52523 ,0.39113 ,3.83777 
290 ,58.3374 ,1.52729 ,0.39113 ,3.83777 
291 ,58.5296 ,1.52921 ,0.38771 ,3.80419 
292 ,58.7217 ,1.53115 ,0.36718 ,3.60272 
293 ,58.9136 ,1.53310 ,0.34664 ,3.40125 
294 ,59.1053 ,1.53492 ,0.37060 ,3.63630 
295 ,59.2978 ,1.53689 ,0.33980 ,3.33410 
296 ,59.4899 ,1.53896 ,0.32611 ,3.19978 
297 ,59.6819 ,1.54081 ,0.32611 ,3.19978 
298 ,59.8900 ,1.54279 ,0.30900 ,3.03189 
299 ,60.0980 ,1.54492 ,0.28847 ,2.83042 
300 ,60.3062 ,1.54702 ,0.29873 ,2.93116 
301 ,60.4984 ,1.54906 ,0.26451 ,2.59537 
302 ,60.6744 ,1.55080 ,0.27135 ,2.66253 
303 ,60.8662 ,1.55257 ,0.25424 ,2.49464 
304 ,61.0745 ,1.55467 ,0.23371 ,2.29317 
305 ,61.2662 ,1.55658 ,0.23713 ,2.32675 
306 ,61.5064 ,1.55883 ,0.20291 ,1.99096 
307 ,61.6990 ,1.56093 ,0.19949 ,1.95738 
308 ,61.8907 ,1.56282 ,0.19949 ,1.95738 
309 ,62.0830 ,1.56477 ,0.18238 ,1.78949 
310 ,62.2911 ,1.56679 ,0.16869 ,1.65518 
311 ,62.4832 ,1.56881 ,0.17211 ,1.68876 
312 ,62.6914 ,1.57082 ,0.15158 ,1.48729 
313 ,62.8832 ,1.57279 ,0.15158 ,1.48729 
314 ,63.0754 ,1.57466 ,0.12762 ,1.25224 
315 ,63.2675 ,1.57659 ,0.14473 ,1.42013 
316 ,63.4592 ,1.57852 ,0.11736 ,1.15151 
317 ,63.6675 ,1.58054 ,0.11736 ,1.15151 
318 ,63.8756 ,1.58263 ,0.07971 ,0.78214 
319 ,64.0839 ,1.58477 ,0.08998 ,0.88288 
320 ,64.2759 ,1.58667 ,0.06602 ,0.64783 
321 ,64.4678 ,1.58859 ,0.06260 ,0.61425 
322 ,64.6920 ,1.59082 ,0.04891 ,0.47994 
323 ,64.8838 ,1.59279 ,0.03865 ,0.37920 
324 ,65.1082 ,1.59496 ,0.03522 ,0.34563 
325 ,65.3004 ,1.59690 ,0.00443 ,0.04342 
326 ,65.4925 ,1.59882 ,0.00443 ,0.04342 
327 ,65.6841 ,1.60091 ,-0.01269 ,-0.12447 
328 ,65.8924 ,1.60283 ,-0.02295 ,-0.22520 
329 ,66.0848 ,1.60478 ,-0.02295 ,-0.22520 
330 ,66.2765 ,1.60669 ,-0.02980 ,-0.29236 
331 ,66.4688 ,1.60857 ,-0.02637 ,-0.25878 
332 ,66.6608 ,1.61054 ,-0.04691 ,-0.46025 
333 ,66.8690 ,1.61258 ,-0.05375 ,-0.52741 
334 ,67.0773 ,1.61470 ,-0.08797 ,-0.86319 
335 ,67.2853 ,1.61672 ,-0.08113 ,-0.79604 
336 ,67.4934 ,1.61886 ,-0.08455 ,-0.82961 
337 ,67.6849 ,1.62071 ,-0.09482 ,-0.93035 
338 ,67.8610 ,1.62260 ,-0.11877 ,-1.16540 
339 ,68.0536 ,1.62442 ,-0.11193 ,-1.09824 
340 ,68.2777 ,1.62660 ,-0.14273 ,-1.40045 
341 ,68.4698 ,1.62861 ,-0.12562 ,-1.23255 
342 ,68.6777 ,1.63064 ,-0.15299 ,-1.50118 
343 ,68.8700 ,1.63259 ,-0.15299 ,-1.50118 
344 ,69.0939 ,1.63482 ,-0.18037 ,-1.76981 
345 ,69.3019 ,1.63688 ,-0.19064 ,-1.87054 
346 ,69.4941 ,1.63883 ,-0.20090 ,-1.97128 
347 ,69.6859 ,1.64077 ,-0.19064 ,-1.87054 
348 ,69.8783 ,1.64268 ,-0.21459 ,-2.10559 
349 ,70.0699 ,1.64460 ,-0.19748 ,-1.93770 
350 ,70.2623 ,1.64650 ,-0.22828 ,-2.23990 
351 ,70.4544 ,1.64844 ,-0.22144 ,-2.17275 
352 ,70.6623 ,1.65049 ,-0.24881 ,-2.44137 
353 ,70.8863 ,1.65259 ,-0.26250 ,-2.57569 
354 ,71.0785 ,1.65469 ,-0.27961 ,-2.74358 
355 ,71.2866 ,1.65669 ,-0.26935 ,-2.64284 
356 ,71.4949 ,1.65889 ,-0.29330 ,-2.87789 
357 ,71.6866 ,1.66077 ,-0.28988 ,-2.84431 
358 ,71.8948 ,1.66278 ,-0.31041 ,-3.04578 
359 ,72.0871 ,1.66478 ,-0.31384 ,-3.07936 
360 ,72.2950 ,1.66688 ,-0.33779 ,-3.31441 
361 ,72.4872 ,1.66878 ,-0.33095 ,-3.24725 
362 ,72.6793 ,1.67065 ,-0.34121 ,-3.34799 
363 ,72.8554 ,1.67256 ,-0.35148 ,-3.44872 
364 ,73.0474 ,1.67434 ,-0.34806 ,-3.41514 
365 ,73.2712 ,1.67644 ,-0.38228 ,-3.75093 
366 ,73.4794 ,1.67865 ,-0.38912 ,-3.81808 
367 ,73.7193 ,1.68109 ,-0.39597 ,-3.88524 
368 ,73.9119 ,1.68300 ,-0.40623 ,-3.98597 
369 ,74.1200 ,1.68505 ,-0.41308 ,-4.05313 
370 ,74.3119 ,1.68700 ,-0.40966 ,-4.01955 
371 ,74.5039 ,1.68893 ,-0.43361 ,-4.25460 
372 ,74.6960 ,1.69090 ,-0.44046 ,-4.32176 
373 ,74.9044 ,1.69286 ,-0.45072 ,-4.42249 
374 ,75.0964 ,1.69488 ,-0.45757 ,-4.48965 
375 ,75.3046 ,1.69690 ,-0.47126 ,-4.62396 
376 ,75.4964 ,1.69888 ,-0.47810 ,-4.69112 
377 ,75.7048 ,1.70094 ,-0.49521 ,-4.85901 
378 ,75.9124 ,1.70299 ,-0.49179 ,-4.82543 
379 ,76.1048 ,1.70493 ,-0.52601 ,-5.16121 
380 ,76.2968 ,1.70681 ,-0.51917 ,-5.09406 
381 ,76.4729 ,1.70872 ,-0.51232 ,-5.02690 
382 ,76.6647 ,1.71049 ,-0.54997 ,-5.39626 
383 ,76.8568 ,1.71241 ,-0.54654 ,-5.36268 
384 ,77.0490 ,1.71430 ,-0.52943 ,-5.19479 
385 ,77.2571 ,1.71643 ,-0.54654 ,-5.36268 
386 ,77.4489 ,1.71836 ,-0.56023 ,-5.49700 
387 ,77.6411 ,1.72028 ,-0.58761 ,-5.76562 
388 ,77.8332 ,1.72223 ,-0.57050 ,-5.59773 
389 ,78.0411 ,1.72429 ,-0.60814 ,-5.96709 
390 ,78.2334 ,1.72620 ,-0.59445 ,-5.83278 
391 ,78.4417 ,1.72827 ,-0.61841 ,-6.06783 
392 ,78.6499 ,1.73034 ,-0.60814 ,-5.96709 
393 ,78.8418 ,1.73236 ,-0.63552 ,-6.23572 
394 ,79.0339 ,1.73420 ,-0.63894 ,-6.26930 
395 ,79.2420 ,1.73628 ,-0.65947 ,-6.47077 
396 ,79.4501 ,1.73832 ,-0.64579 ,-6.33646 
397 ,79.6742 ,1.74060 ,-0.66290 ,-6.50435 
398 ,79.8820 ,1.74270 ,-0.69027 ,-6.77297 
399 ,80.0904 ,1.74474 ,-0.68001 ,-6.67224 
400 ,80.2985 ,1.74682 ,-0.69712 ,-6.84013 
401 ,80.4905 ,1.74876 ,-0.69027 ,-6.77297 
402 ,80.6984 ,1.75087 ,-0.71081 ,-6.97444 
403 ,80.8904 ,1.75274 ,-0.71081 ,-6.97444 
404 ,81.0827 ,1.75468 ,-0.73134 ,-7.17591 
405 ,81.2747 ,1.75659 ,-0.72450 ,-7.10876 
406 ,81.4669 ,1.75851 ,-0.74503 ,-7.31023 
407 ,81.6749 ,1.76052 ,-0.73134 ,-7.17591 
408 ,81.8832 ,1.76267 ,-0.77583 ,-7.61243 
409 ,82.0908 ,1.76472 ,-0.77241 ,-7.57885 
410 ,82.2994 ,1.76679 ,-0.78952 ,-7.74674 
411 ,82.5070 ,1.76892 ,-0.79294 ,-7.78032 
412 ,82.7311 ,1.77112 ,-0.78952 ,-7.74674 
413 ,82.9235 ,1.77309 ,-0.82032 ,-8.04895 
414 ,83.1155 ,1.77501 ,-0.81005 ,-7.94821 
415 ,83.3237 ,1.77702 ,-0.83401 ,-8.18326 
416 ,83.5319 ,1.77906 ,-0.83401 ,-8.18326 
417 ,83.7239 ,1.78110 ,-0.85112 ,-8.35115 
418 ,83.9160 ,1.78297 ,-0.85112 ,-8.35115 
419 ,84.1081 ,1.78495 ,-0.86481 ,-8.48547 
420 ,84.3159 ,1.78699 ,-0.85454 ,-8.38473 
421 ,84.5085 ,1.78898 ,-0.88534 ,-8.68694 
422 ,84.7004 ,1.79094 ,-0.87849 ,-8.61978 
423 ,84.8924 ,1.79276 ,-0.88876 ,-8.72051 
424 ,85.0843 ,1.79466 ,-0.90929 ,-8.92198 
425 ,85.2766 ,1.79660 ,-0.89560 ,-8.78767 
426 ,85.4686 ,1.79855 ,-0.92298 ,-9.05630 
427 ,85.6607 ,1.80045 ,-0.92298 ,-9.05630 
428 ,85.8688 ,1.80244 ,-0.92640 ,-9.08988 
429 ,86.0608 ,1.80443 ,-0.94351 ,-9.25777 
430 ,86.2529 ,1.80636 ,-0.94694 ,-9.29135 
431 ,86.4287 ,1.80821 ,-0.96747 ,-9.49282 
432 ,86.6371 ,1.81012 ,-0.96063 ,-9.42566 
433 ,86.8612 ,1.81243 ,-0.98458 ,-9.66071 
434 ,87.0689 ,1.81454 ,-0.99143 ,-9.72786 
435 ,87.2452 ,1.81642 ,-0.99827 ,-9.79502 
436 ,87.4535 ,1.81833 ,-1.00169 ,-9.82860 
437 ,87.6615 ,1.82040 ,-1.02222 ,-10.03007 
438 ,87.8696 ,1.82251 ,-1.02222 ,-10.03007 
439 ,88.0774 ,1.82454 ,-1.03934 ,-10.19796 
440 ,88.3020 ,1.82678 ,-1.04960 ,-10.29869 
441 ,88.5093 ,1.82890 ,-1.03591 ,-10.16438 
442 ,88.7339 ,1.83111 ,-1.03934 ,-10.19796 
443 ,88.9258 ,1.83305 ,-1.07014 ,-10.50016 
444 ,89.1020 ,1.83495 ,-1.06329 ,-10.43301 
445 ,89.2940 ,1.83680 ,-1.05987 ,-10.39943 
446 ,89.4860 ,1.83869 ,-1.08040 ,-10.60090 
447 ,89.6938 ,1.84070 ,-1.10093 ,-10.80237 
448 ,89.8859 ,1.84274 ,-1.12147 ,-11.00384 
449 ,90.0941 ,1.84474 ,-1.09751 ,-10.76879 
450 ,90.2861 ,1.84667 ,-1.12489 ,-11.03742 
451 ,90.4784 ,1.84863 ,-1.12489 ,-11.03742 
452 ,90.6707 ,1.85050 ,-1.13516 ,-11.13815 
453 ,90.8783 ,1.85263 ,-1.14200 ,-11.20531 
454 ,91.0709 ,1.85452 ,-1.15227 ,-11.30604 
455 ,91.2787 ,1.85662 ,-1.15569 ,-11.33962 
456 ,91.4706 ,1.85853 ,-1.17622 ,-11.54109 
457 ,91.6948 ,1.86072 ,-1.17964 ,-11.57467 
458 ,91.9031 ,1.86281 ,-1.17280 ,-11.50751 
459 ,92.1113 ,1.86487 ,-1.17964 ,-11.57467 
460 ,92.3195 ,1.86701 ,-1.18991 ,-11.67541 
461 ,92.5273 ,1.86904 ,-1.20702 ,-11.84330 
