Data stamp = , 02-05-2022 21:04:47 545

Calibration Values: 
Slope = , 26.54 , g/V 
Offset Voltage at no contact = , -0.501760 , V 

No , Time , Stage Position ,   Mass , Force 
   ,  (s) ,      (mm)      ,   (g)  , (mN)  

1 ,0.0000 ,0.89946 ,5.31563 ,52.15694 
2 ,0.2130 ,0.89955 ,5.31563 ,52.15694 
3 ,0.8219 ,0.90205 ,5.32932 ,52.29126 
4 ,1.0296 ,0.90454 ,5.32247 ,52.22410 
5 ,1.2377 ,0.90645 ,5.31905 ,52.19052 
6 ,1.4459 ,0.90857 ,5.33616 ,52.35841 
7 ,1.6540 ,0.91078 ,5.29852 ,51.98905 
8 ,1.8621 ,0.91285 ,5.28483 ,51.85474 
9 ,2.0541 ,0.91479 ,5.27114 ,51.72043 
10 ,2.2458 ,0.91669 ,5.25061 ,51.51896 
11 ,2.4382 ,0.91858 ,5.21981 ,51.21675 
12 ,2.6464 ,0.92077 ,5.20270 ,51.04886 
13 ,2.8542 ,0.92276 ,5.18216 ,50.84739 
14 ,3.0625 ,0.92482 ,5.17874 ,50.81381 
15 ,3.2545 ,0.92679 ,5.14110 ,50.44445 
16 ,3.4625 ,0.92878 ,5.13083 ,50.34372 
17 ,3.6549 ,0.93078 ,5.09661 ,50.00793 
18 ,3.8629 ,0.93288 ,5.08292 ,49.87362 
19 ,4.0551 ,0.93477 ,5.05554 ,49.60499 
20 ,4.2468 ,0.93665 ,5.05212 ,49.57142 
21 ,4.4386 ,0.93856 ,5.01790 ,49.23563 
22 ,4.6311 ,0.94058 ,5.00763 ,49.13490 
23 ,4.8232 ,0.94254 ,4.97683 ,48.83269 
24 ,5.0153 ,0.94435 ,4.94946 ,48.56407 
25 ,5.2234 ,0.94646 ,4.94261 ,48.49691 
26 ,5.4154 ,0.94836 ,4.90839 ,48.16113 
27 ,5.6073 ,0.95027 ,4.90839 ,48.16113 
28 ,5.7993 ,0.95224 ,4.86732 ,47.75819 
29 ,6.0075 ,0.95429 ,4.85364 ,47.62387 
30 ,6.1998 ,0.95622 ,4.82626 ,47.35525 
31 ,6.3918 ,0.95812 ,4.81941 ,47.28809 
32 ,6.5835 ,0.96003 ,4.80230 ,47.12020 
33 ,6.7920 ,0.96210 ,4.78177 ,46.91873 
34 ,7.0002 ,0.96419 ,4.74070 ,46.51579 
35 ,7.1762 ,0.96607 ,4.73728 ,46.48221 
36 ,7.3682 ,0.96785 ,4.73386 ,46.44863 
37 ,7.5604 ,0.96977 ,4.68937 ,46.01212 
38 ,7.7520 ,0.97171 ,4.69279 ,46.04569 
39 ,7.9606 ,0.97369 ,4.66542 ,45.77707 
40 ,8.1686 ,0.97586 ,4.63462 ,45.47486 
41 ,8.3604 ,0.97780 ,4.59355 ,45.07192 
42 ,8.5528 ,0.97971 ,4.60382 ,45.17266 
43 ,8.7448 ,0.98166 ,4.57644 ,44.90403 
44 ,8.9528 ,0.98368 ,4.54906 ,44.63541 
45 ,9.1930 ,0.98601 ,4.53195 ,44.46751 
46 ,9.4011 ,0.98818 ,4.49773 ,44.13173 
47 ,9.6248 ,0.99041 ,4.49089 ,44.06457 
48 ,9.8169 ,0.99232 ,4.44982 ,43.66163 
49 ,10.0089 ,0.99427 ,4.45666 ,43.72879 
50 ,10.2010 ,0.99618 ,4.41902 ,43.35943 
51 ,10.3934 ,0.99813 ,4.41218 ,43.29227 
52 ,10.6017 ,1.00010 ,4.38822 ,43.05723 
53 ,10.7937 ,1.00213 ,4.37453 ,42.92291 
54 ,11.0012 ,1.00434 ,4.33689 ,42.55355 
55 ,11.1938 ,1.00611 ,4.33004 ,42.48639 
56 ,11.4019 ,1.00824 ,4.31293 ,42.31850 
57 ,11.5940 ,1.01012 ,4.29582 ,42.15061 
58 ,11.8021 ,1.01211 ,4.26845 ,41.88198 
59 ,11.9935 ,1.01414 ,4.25818 ,41.78125 
60 ,12.2183 ,1.01638 ,4.22738 ,41.47905 
61 ,12.4419 ,1.01854 ,4.21369 ,41.34473 
62 ,12.6340 ,1.02051 ,4.19658 ,41.17684 
63 ,12.8261 ,1.02242 ,4.17262 ,40.94179 
64 ,13.0184 ,1.02440 ,4.14867 ,40.70674 
65 ,13.2100 ,1.02631 ,4.14183 ,40.63959 
66 ,13.4027 ,1.02823 ,4.10076 ,40.23665 
67 ,13.5948 ,1.03011 ,4.09391 ,40.16949 
68 ,13.8028 ,1.03221 ,4.06654 ,39.90087 
69 ,13.9950 ,1.03411 ,4.05285 ,39.76655 
70 ,14.2031 ,1.03622 ,4.02889 ,39.53150 
71 ,14.4110 ,1.03826 ,4.03574 ,39.59866 
72 ,14.6195 ,1.04037 ,3.99125 ,39.16214 
73 ,14.8273 ,1.04240 ,3.98098 ,39.06141 
74 ,15.0354 ,1.04453 ,3.98098 ,39.06141 
75 ,15.2274 ,1.04645 ,3.94676 ,38.72562 
76 ,15.4356 ,1.04854 ,3.93992 ,38.65847 
77 ,15.6436 ,1.05064 ,3.89201 ,38.18837 
78 ,15.8675 ,1.05272 ,3.88858 ,38.15479 
79 ,16.0915 ,1.05504 ,3.87147 ,37.98690 
80 ,16.2840 ,1.05700 ,3.84067 ,37.68470 
81 ,16.4754 ,1.05890 ,3.83725 ,37.65112 
82 ,16.6680 ,1.06088 ,3.80303 ,37.31534 
83 ,16.8601 ,1.06276 ,3.79619 ,37.24818 
84 ,17.0680 ,1.06489 ,3.76881 ,36.97955 
85 ,17.2602 ,1.06676 ,3.75512 ,36.84524 
86 ,17.4683 ,1.06883 ,3.74828 ,36.77808 
87 ,17.6764 ,1.07088 ,3.71748 ,36.47588 
88 ,17.8845 ,1.07298 ,3.68325 ,36.14010 
89 ,18.0927 ,1.07509 ,3.68668 ,36.17367 
90 ,18.2845 ,1.07705 ,3.66272 ,35.93863 
91 ,18.5088 ,1.07913 ,3.64903 ,35.80431 
92 ,18.7166 ,1.08124 ,3.63192 ,35.63642 
93 ,18.9088 ,1.08320 ,3.61481 ,35.46853 
94 ,19.1011 ,1.08518 ,3.58743 ,35.19990 
95 ,19.3091 ,1.08731 ,3.57375 ,35.06559 
96 ,19.5169 ,1.08933 ,3.57375 ,35.06559 
97 ,19.7089 ,1.09126 ,3.53610 ,34.69623 
98 ,19.9331 ,1.09331 ,3.52926 ,34.62907 
99 ,20.1414 ,1.09556 ,3.48477 ,34.19255 
100 ,20.3335 ,1.09751 ,3.50188 ,34.36045 
101 ,20.5415 ,1.09957 ,3.46766 ,34.02466 
102 ,20.7337 ,1.10149 ,3.46424 ,33.99108 
103 ,20.9258 ,1.10340 ,3.42659 ,33.62172 
104 ,21.1497 ,1.10564 ,3.41633 ,33.52099 
105 ,21.3576 ,1.10773 ,3.40948 ,33.45383 
106 ,21.5499 ,1.10968 ,3.37868 ,33.15163 
107 ,21.7577 ,1.11161 ,3.34104 ,32.78227 
108 ,21.9497 ,1.11375 ,3.33077 ,32.68153 
109 ,22.1420 ,1.11556 ,3.32393 ,32.61437 
110 ,22.3342 ,1.11760 ,3.30682 ,32.44648 
111 ,22.5261 ,1.11937 ,3.28628 ,32.24501 
112 ,22.7342 ,1.12146 ,3.28971 ,32.27859 
113 ,22.9264 ,1.12340 ,3.26233 ,32.00996 
114 ,23.1025 ,1.12529 ,3.24180 ,31.80849 
115 ,23.2944 ,1.12707 ,3.23495 ,31.74134 
116 ,23.4868 ,1.12901 ,3.21100 ,31.50629 
117 ,23.6945 ,1.13109 ,3.20757 ,31.47271 
118 ,23.8868 ,1.13299 ,3.16993 ,31.10335 
119 ,24.0946 ,1.13509 ,3.16309 ,31.03619 
120 ,24.3186 ,1.13721 ,3.14255 ,30.83472 
121 ,24.5271 ,1.13939 ,3.12202 ,30.63325 
122 ,24.7351 ,1.14148 ,3.12202 ,30.63325 
123 ,24.9272 ,1.14338 ,3.08438 ,30.26389 
124 ,25.1193 ,1.14527 ,3.07411 ,30.16316 
125 ,25.3113 ,1.14730 ,3.06726 ,30.09600 
126 ,25.5195 ,1.14921 ,3.03647 ,29.79380 
127 ,25.7115 ,1.15121 ,3.01935 ,29.62590 
128 ,25.9035 ,1.15315 ,2.99882 ,29.42444 
129 ,26.0955 ,1.15504 ,3.00567 ,29.49159 
130 ,26.2874 ,1.15701 ,2.97144 ,29.15581 
131 ,26.4797 ,1.15899 ,2.97487 ,29.18939 
132 ,26.6879 ,1.16105 ,2.94749 ,28.92076 
133 ,26.8960 ,1.16310 ,2.94064 ,28.85360 
134 ,27.0880 ,1.16500 ,2.89958 ,28.45066 
135 ,27.2961 ,1.16708 ,2.90985 ,28.55140 
136 ,27.4882 ,1.16897 ,2.86193 ,28.08130 
137 ,27.6803 ,1.17094 ,2.86193 ,28.08130 
138 ,27.8724 ,1.17282 ,2.85509 ,28.01415 
139 ,28.0646 ,1.17475 ,2.83114 ,27.77910 
140 ,28.2564 ,1.17671 ,2.82429 ,27.71194 
141 ,28.4804 ,1.17881 ,2.80718 ,27.54405 
142 ,28.6885 ,1.18101 ,2.78665 ,27.34258 
143 ,28.8969 ,1.18311 ,2.78322 ,27.30900 
144 ,29.0888 ,1.18498 ,2.75585 ,27.04038 
145 ,29.2809 ,1.18689 ,2.73874 ,26.87248 
146 ,29.4888 ,1.18888 ,2.73531 ,26.83891 
147 ,29.6968 ,1.19107 ,2.71136 ,26.60386 
148 ,29.8891 ,1.19298 ,2.68398 ,26.33523 
149 ,30.0813 ,1.19493 ,2.68740 ,26.36881 
150 ,30.2895 ,1.19705 ,2.65318 ,26.03303 
151 ,30.4654 ,1.19888 ,2.65660 ,26.06661 
152 ,30.6732 ,1.20085 ,2.62923 ,25.79798 
153 ,30.8817 ,1.20283 ,2.59843 ,25.49577 
154 ,31.0895 ,1.20502 ,2.57789 ,25.29430 
155 ,31.2818 ,1.20697 ,2.57447 ,25.26073 
156 ,31.4576 ,1.20879 ,2.55394 ,25.05926 
157 ,31.6497 ,1.21060 ,2.54025 ,24.92494 
158 ,31.8415 ,1.21264 ,2.54025 ,24.92494 
159 ,32.0342 ,1.21444 ,2.51630 ,24.68989 
160 ,32.2422 ,1.21652 ,2.50945 ,24.62274 
161 ,32.4342 ,1.21847 ,2.47181 ,24.25338 
162 ,32.6265 ,1.22040 ,2.47523 ,24.28696 
163 ,32.8345 ,1.22241 ,2.44101 ,23.95117 
164 ,33.0744 ,1.22461 ,2.43759 ,23.91759 
165 ,33.2825 ,1.22694 ,2.42732 ,23.81686 
166 ,33.4747 ,1.22882 ,2.38968 ,23.44750 
167 ,33.6828 ,1.23089 ,2.39652 ,23.51465 
168 ,33.8748 ,1.23284 ,2.36230 ,23.17887 
169 ,34.0509 ,1.23471 ,2.35545 ,23.11171 
170 ,34.2431 ,1.23652 ,2.35888 ,23.14529 
171 ,34.4351 ,1.23843 ,2.31439 ,22.70877 
172 ,34.6272 ,1.24034 ,2.30412 ,22.60804 
173 ,34.8193 ,1.24230 ,2.30070 ,22.57446 
174 ,35.0114 ,1.24424 ,2.27332 ,22.30584 
175 ,35.2193 ,1.24633 ,2.27332 ,22.30584 
176 ,35.4274 ,1.24835 ,2.24594 ,22.03721 
177 ,35.6198 ,1.25031 ,2.24252 ,22.00363 
178 ,35.8276 ,1.25239 ,2.22541 ,21.83574 
179 ,36.0514 ,1.25443 ,2.20146 ,21.60069 
180 ,36.2439 ,1.25649 ,2.19461 ,21.53353 
181 ,36.4356 ,1.25842 ,2.16381 ,21.23133 
182 ,36.6279 ,1.26035 ,2.15355 ,21.13059 
183 ,36.8200 ,1.26230 ,2.13644 ,20.96270 
184 ,37.0123 ,1.26421 ,2.11590 ,20.76123 
185 ,37.2040 ,1.26618 ,2.12617 ,20.86197 
186 ,37.4282 ,1.26825 ,2.08168 ,20.42545 
187 ,37.6366 ,1.27043 ,2.07484 ,20.35829 
188 ,37.8288 ,1.27236 ,2.06799 ,20.29114 
189 ,38.0207 ,1.27430 ,2.03719 ,19.98893 
190 ,38.2128 ,1.27621 ,2.02008 ,19.82104 
191 ,38.4042 ,1.27813 ,2.03719 ,19.98893 
192 ,38.5969 ,1.28007 ,2.00297 ,19.65315 
193 ,38.8049 ,1.28211 ,2.00639 ,19.68673 
194 ,38.9967 ,1.28402 ,1.98244 ,19.45168 
195 ,39.2211 ,1.28626 ,1.94479 ,19.08232 
196 ,39.4289 ,1.28836 ,1.94822 ,19.11590 
197 ,39.6369 ,1.29040 ,1.92426 ,18.88085 
198 ,39.8294 ,1.29239 ,1.93111 ,18.94801 
199 ,40.0215 ,1.29431 ,1.89688 ,18.61222 
200 ,40.2136 ,1.29620 ,1.87635 ,18.41075 
201 ,40.4055 ,1.29816 ,1.87635 ,18.41075 
202 ,40.6132 ,1.30014 ,1.84213 ,18.07497 
203 ,40.8219 ,1.30222 ,1.84897 ,18.14213 
204 ,41.0301 ,1.30435 ,1.82502 ,17.90708 
205 ,41.2220 ,1.30631 ,1.80791 ,17.73919 
206 ,41.4140 ,1.30823 ,1.79764 ,17.63845 
207 ,41.6061 ,1.31012 ,1.78737 ,17.53772 
208 ,41.7979 ,1.31208 ,1.74973 ,17.16836 
209 ,41.9901 ,1.31400 ,1.76342 ,17.30267 
210 ,42.1824 ,1.31590 ,1.72920 ,16.96689 
211 ,42.3904 ,1.31797 ,1.72920 ,16.96689 
212 ,42.5824 ,1.31988 ,1.71209 ,16.79899 
213 ,42.7582 ,1.32174 ,1.68813 ,16.56395 
214 ,42.9507 ,1.32358 ,1.68813 ,16.56395 
215 ,43.1748 ,1.32575 ,1.65733 ,16.26174 
216 ,43.3666 ,1.32773 ,1.66075 ,16.29532 
217 ,43.6070 ,1.33009 ,1.65391 ,16.22816 
218 ,43.8149 ,1.33224 ,1.61627 ,15.85880 
219 ,44.0232 ,1.33431 ,1.61284 ,15.82522 
220 ,44.2313 ,1.33635 ,1.59916 ,15.69091 
221 ,44.4393 ,1.33842 ,1.56493 ,15.35513 
222 ,44.6316 ,1.34043 ,1.57178 ,15.42228 
223 ,44.8235 ,1.34241 ,1.54098 ,15.12008 
224 ,45.0155 ,1.34419 ,1.52387 ,14.95219 
225 ,45.2076 ,1.34608 ,1.53756 ,15.08650 
226 ,45.4157 ,1.34821 ,1.50676 ,14.78430 
227 ,45.6076 ,1.35012 ,1.49649 ,14.68356 
228 ,45.7998 ,1.35203 ,1.47253 ,14.44851 
229 ,45.9920 ,1.35397 ,1.48280 ,14.54925 
230 ,46.2160 ,1.35612 ,1.42805 ,14.01199 
231 ,46.4081 ,1.35812 ,1.44174 ,14.14631 
232 ,46.6002 ,1.36005 ,1.42120 ,13.94484 
233 ,46.8081 ,1.36210 ,1.41094 ,13.84410 
234 ,47.0005 ,1.36402 ,1.39383 ,13.67621 
235 ,47.1921 ,1.36595 ,1.39383 ,13.67621 
236 ,47.3846 ,1.36792 ,1.38014 ,13.54190 
237 ,47.5926 ,1.36994 ,1.36645 ,13.40759 
238 ,47.7848 ,1.37192 ,1.33907 ,13.13896 
239 ,47.9928 ,1.37401 ,1.33907 ,13.13896 
240 ,48.2324 ,1.37637 ,1.32538 ,13.00465 
241 ,48.4404 ,1.37848 ,1.29800 ,12.73602 
242 ,48.6325 ,1.38038 ,1.30143 ,12.76960 
243 ,48.8253 ,1.38230 ,1.27405 ,12.50097 
244 ,49.0333 ,1.38440 ,1.25694 ,12.33308 
245 ,49.2255 ,1.38630 ,1.25694 ,12.33308 
246 ,49.4014 ,1.38816 ,1.22272 ,11.99730 
247 ,49.5935 ,1.38998 ,1.22614 ,12.03088 
248 ,49.7855 ,1.39188 ,1.21587 ,11.93014 
249 ,49.9775 ,1.39377 ,1.19192 ,11.69509 
250 ,50.1857 ,1.39590 ,1.18165 ,11.59436 
251 ,50.4094 ,1.39799 ,1.17481 ,11.52720 
252 ,50.6179 ,1.40016 ,1.13716 ,11.15784 
253 ,50.8260 ,1.40231 ,1.14401 ,11.22500 
254 ,51.0179 ,1.40419 ,1.11321 ,10.92279 
255 ,51.2101 ,1.40612 ,1.12347 ,11.02353 
256 ,51.4023 ,1.40807 ,1.09610 ,10.75490 
257 ,51.6262 ,1.41027 ,1.07899 ,10.58701 
258 ,51.8182 ,1.41218 ,1.06872 ,10.48627 
259 ,52.0105 ,1.41412 ,1.07556 ,10.55343 
260 ,52.2185 ,1.41618 ,1.03450 ,10.15049 
261 ,52.4107 ,1.41814 ,1.05161 ,10.31838 
262 ,52.6183 ,1.42024 ,1.01739 ,9.98260 
263 ,52.8267 ,1.42224 ,1.01054 ,9.91544 
264 ,53.0671 ,1.42469 ,0.98659 ,9.68039 
265 ,53.2590 ,1.42661 ,0.97290 ,9.54608 
266 ,53.4510 ,1.42857 ,0.97632 ,9.57966 
267 ,53.6431 ,1.43046 ,0.95237 ,9.34461 
268 ,53.8352 ,1.43249 ,0.95579 ,9.37819 
269 ,54.0269 ,1.43428 ,0.94210 ,9.24388 
270 ,54.2193 ,1.43622 ,0.91130 ,8.94167 
271 ,54.4115 ,1.43816 ,0.91472 ,8.97525 
272 ,54.6037 ,1.44005 ,0.88392 ,8.67305 
273 ,54.8274 ,1.44227 ,0.87366 ,8.57231 
274 ,55.0358 ,1.44437 ,0.87366 ,8.57231 
275 ,55.2278 ,1.44630 ,0.84286 ,8.27011 
276 ,55.4359 ,1.44837 ,0.84286 ,8.27011 
277 ,55.6600 ,1.45049 ,0.82575 ,8.10221 
278 ,55.8680 ,1.45273 ,0.82232 ,8.06864 
279 ,56.0601 ,1.45458 ,0.79837 ,7.83359 
280 ,56.2522 ,1.45654 ,0.80179 ,7.86717 
281 ,56.4443 ,1.45855 ,0.77441 ,7.59854 
282 ,56.6365 ,1.46034 ,0.77784 ,7.63212 
283 ,56.8444 ,1.46248 ,0.75046 ,7.36349 
284 ,57.0841 ,1.46471 ,0.75046 ,7.36349 
285 ,57.2763 ,1.46678 ,0.73335 ,7.19560 
286 ,57.4847 ,1.46885 ,0.70255 ,6.89340 
287 ,57.6928 ,1.47082 ,0.70597 ,6.92697 
288 ,57.9169 ,1.47308 ,0.67859 ,6.65835 
289 ,58.1087 ,1.47518 ,0.67175 ,6.59119 
290 ,58.3170 ,1.47719 ,0.66490 ,6.52403 
291 ,58.5247 ,1.47927 ,0.65121 ,6.38972 
292 ,58.7171 ,1.48115 ,0.65121 ,6.38972 
293 ,58.9252 ,1.48325 ,0.61699 ,6.05394 
294 ,59.1491 ,1.48540 ,0.62384 ,6.12109 
295 ,59.3412 ,1.48741 ,0.60330 ,5.91962 
296 ,59.5334 ,1.48932 ,0.60673 ,5.95320 
297 ,59.7256 ,1.49127 ,0.56566 ,5.55026 
298 ,59.9174 ,1.49315 ,0.57251 ,5.61742 
299 ,60.1097 ,1.49506 ,0.55882 ,5.48311 
300 ,60.3174 ,1.49711 ,0.54855 ,5.38237 
301 ,60.5261 ,1.49917 ,0.52117 ,5.11375 
302 ,60.7340 ,1.50137 ,0.51433 ,5.04659 
303 ,60.9259 ,1.50328 ,0.50064 ,4.91228 
304 ,61.1341 ,1.50519 ,0.51775 ,5.08017 
305 ,61.3421 ,1.50745 ,0.47326 ,4.64365 
306 ,61.5662 ,1.50955 ,0.45957 ,4.50934 
307 ,61.7583 ,1.51156 ,0.45615 ,4.47576 
308 ,61.9503 ,1.51351 ,0.44931 ,4.40860 
309 ,62.1586 ,1.51558 ,0.44588 ,4.37502 
310 ,62.3506 ,1.51749 ,0.40824 ,4.00566 
311 ,62.5423 ,1.51940 ,0.40824 ,4.00566 
312 ,62.7350 ,1.52134 ,0.40482 ,3.97208 
313 ,62.9429 ,1.52345 ,0.39797 ,3.90493 
314 ,63.1351 ,1.52530 ,0.38771 ,3.80419 
315 ,63.3269 ,1.52721 ,0.35691 ,3.50199 
316 ,63.5192 ,1.52918 ,0.35349 ,3.46841 
317 ,63.7272 ,1.53122 ,0.32953 ,3.23336 
318 ,63.9194 ,1.53317 ,0.35006 ,3.43483 
319 ,64.0953 ,1.53507 ,0.31242 ,3.06547 
320 ,64.3033 ,1.53689 ,0.30215 ,2.96473 
321 ,64.4955 ,1.53895 ,0.30215 ,2.96473 
322 ,64.6873 ,1.54084 ,0.27820 ,2.72969 
323 ,64.8796 ,1.54282 ,0.28162 ,2.76326 
324 ,65.0717 ,1.54472 ,0.27135 ,2.66253 
325 ,65.2639 ,1.54664 ,0.25767 ,2.52822 
326 ,65.4720 ,1.54870 ,0.24398 ,2.39390 
327 ,65.6800 ,1.55080 ,0.23371 ,2.29317 
328 ,65.8716 ,1.55269 ,0.22344 ,2.19243 
329 ,66.1118 ,1.55485 ,0.21318 ,2.09170 
330 ,66.3043 ,1.55698 ,0.18238 ,1.78949 
331 ,66.5123 ,1.55906 ,0.18580 ,1.82307 
332 ,66.7044 ,1.56097 ,0.16869 ,1.65518 
333 ,66.8961 ,1.56291 ,0.17896 ,1.75592 
334 ,67.0885 ,1.56488 ,0.16185 ,1.58802 
335 ,67.2966 ,1.56695 ,0.16527 ,1.62160 
336 ,67.4887 ,1.56884 ,0.13447 ,1.31940 
337 ,67.6807 ,1.57076 ,0.14473 ,1.42013 
338 ,67.8884 ,1.57283 ,0.11051 ,1.08435 
339 ,68.0808 ,1.57477 ,0.10709 ,1.05077 
340 ,68.2730 ,1.57670 ,0.10367 ,1.01719 
341 ,68.4489 ,1.57858 ,0.10367 ,1.01719 
342 ,68.6408 ,1.58036 ,0.08314 ,0.81572 
343 ,68.8331 ,1.58231 ,0.07971 ,0.78214 
344 ,69.0254 ,1.58420 ,0.05576 ,0.54710 
345 ,69.2491 ,1.58637 ,0.03522 ,0.34563 
346 ,69.4896 ,1.58869 ,0.04207 ,0.41278 
347 ,69.6974 ,1.59095 ,0.02838 ,0.27847 
348 ,69.9057 ,1.59299 ,0.01469 ,0.14416 
349 ,70.0977 ,1.59493 ,0.00100 ,0.00984 
350 ,70.2900 ,1.59687 ,-0.01611 ,-0.15805 
351 ,70.4978 ,1.59891 ,-0.00584 ,-0.05731 
352 ,70.6901 ,1.60091 ,-0.02295 ,-0.22520 
353 ,70.8981 ,1.60292 ,-0.02295 ,-0.22520 
354 ,71.0903 ,1.60487 ,-0.05717 ,-0.56099 
355 ,71.2820 ,1.60681 ,-0.05033 ,-0.49383 
356 ,71.4905 ,1.60888 ,-0.07771 ,-0.76246 
357 ,71.7146 ,1.61104 ,-0.07086 ,-0.69530 
358 ,71.9223 ,1.61316 ,-0.08455 ,-0.82961 
359 ,72.1147 ,1.61506 ,-0.09824 ,-0.96393 
360 ,72.3062 ,1.61703 ,-0.09140 ,-0.89677 
361 ,72.4823 ,1.61888 ,-0.10508 ,-1.03108 
362 ,72.6744 ,1.62067 ,-0.11535 ,-1.13182 
363 ,72.8667 ,1.62261 ,-0.13931 ,-1.36687 
364 ,73.0750 ,1.62468 ,-0.15299 ,-1.50118 
365 ,73.2672 ,1.62662 ,-0.16668 ,-1.63549 
366 ,73.4590 ,1.62853 ,-0.15984 ,-1.56834 
367 ,73.6673 ,1.63064 ,-0.19064 ,-1.87054 
368 ,73.8753 ,1.63273 ,-0.20433 ,-2.00485 
369 ,74.0671 ,1.63461 ,-0.20433 ,-2.00485 
370 ,74.2595 ,1.63654 ,-0.19748 ,-1.93770 
371 ,74.4517 ,1.63847 ,-0.23170 ,-2.27348 
372 ,74.6433 ,1.64036 ,-0.21802 ,-2.13917 
373 ,74.8368 ,1.64232 ,-0.23170 ,-2.27348 
374 ,75.0438 ,1.64436 ,-0.24197 ,-2.37422 
375 ,75.2682 ,1.64662 ,-0.25224 ,-2.47495 
376 ,75.4764 ,1.64871 ,-0.27277 ,-2.67642 
377 ,75.6681 ,1.65058 ,-0.26935 ,-2.64284 
378 ,75.8763 ,1.65264 ,-0.27961 ,-2.74358 
379 ,76.0844 ,1.65478 ,-0.29330 ,-2.87789 
380 ,76.2763 ,1.65667 ,-0.29673 ,-2.91147 
381 ,76.4684 ,1.65855 ,-0.31726 ,-3.11294 
382 ,76.6607 ,1.66055 ,-0.32410 ,-3.18010 
383 ,76.8522 ,1.66259 ,-0.34121 ,-3.34799 
384 ,77.0449 ,1.66437 ,-0.33437 ,-3.28083 
385 ,77.2528 ,1.66647 ,-0.36175 ,-3.54946 
386 ,77.4450 ,1.66835 ,-0.35832 ,-3.51588 
387 ,77.6367 ,1.67033 ,-0.37544 ,-3.68377 
388 ,77.8451 ,1.67234 ,-0.37201 ,-3.65019 
389 ,78.0532 ,1.67445 ,-0.39255 ,-3.85166 
390 ,78.3093 ,1.67690 ,-0.41650 ,-4.08671 
391 ,78.5169 ,1.67909 ,-0.39597 ,-3.88524 
392 ,78.7094 ,1.68103 ,-0.42677 ,-4.18744 
393 ,78.9175 ,1.68305 ,-0.42677 ,-4.18744 
394 ,79.0936 ,1.68496 ,-0.44388 ,-4.35534 
395 ,79.2855 ,1.68679 ,-0.45072 ,-4.42249 
396 ,79.4938 ,1.68884 ,-0.46783 ,-4.59038 
397 ,79.6857 ,1.69076 ,-0.46783 ,-4.59038 
398 ,79.8779 ,1.69270 ,-0.48494 ,-4.75828 
399 ,80.0856 ,1.69479 ,-0.48494 ,-4.75828 
400 ,80.2942 ,1.69683 ,-0.49863 ,-4.89259 
401 ,80.5022 ,1.69890 ,-0.48837 ,-4.79185 
402 ,80.7103 ,1.70095 ,-0.52943 ,-5.19479 
403 ,80.9024 ,1.70298 ,-0.51574 ,-5.06048 
404 ,81.0940 ,1.70487 ,-0.53285 ,-5.22837 
405 ,81.2860 ,1.70674 ,-0.54312 ,-5.32911 
406 ,81.4785 ,1.70866 ,-0.53628 ,-5.26195 
407 ,81.6864 ,1.71078 ,-0.54997 ,-5.39626 
408 ,81.8786 ,1.71266 ,-0.55339 ,-5.42984 
409 ,82.1028 ,1.71495 ,-0.56365 ,-5.53058 
410 ,82.2946 ,1.71687 ,-0.59788 ,-5.86636 
411 ,82.5190 ,1.71900 ,-0.58077 ,-5.69847 
412 ,82.7271 ,1.72118 ,-0.60814 ,-5.96709 
413 ,82.9192 ,1.72308 ,-0.61499 ,-6.03425 
414 ,83.1111 ,1.72503 ,-0.61499 ,-6.03425 
415 ,83.3033 ,1.72696 ,-0.62868 ,-6.16856 
416 ,83.4952 ,1.72885 ,-0.64579 ,-6.33646 
417 ,83.7034 ,1.73089 ,-0.63552 ,-6.23572 
418 ,83.8954 ,1.73283 ,-0.66290 ,-6.50435 
419 ,84.1033 ,1.73491 ,-0.65605 ,-6.43719 
420 ,84.3118 ,1.73691 ,-0.68001 ,-6.67224 
421 ,84.5194 ,1.73910 ,-0.68685 ,-6.73940 
422 ,84.7120 ,1.74108 ,-0.69712 ,-6.84013 
423 ,84.9199 ,1.74305 ,-0.71081 ,-6.97444 
424 ,85.1121 ,1.74503 ,-0.70739 ,-6.94086 
425 ,85.3202 ,1.74706 ,-0.71081 ,-6.97444 
426 ,85.5283 ,1.74920 ,-0.72450 ,-7.10876 
427 ,85.7364 ,1.75124 ,-0.75187 ,-7.37738 
428 ,85.9444 ,1.75337 ,-0.75187 ,-7.37738 
429 ,86.1525 ,1.75544 ,-0.75872 ,-7.44454 
430 ,86.3445 ,1.75736 ,-0.75187 ,-7.37738 
431 ,86.5368 ,1.75926 ,-0.78952 ,-7.74674 
432 ,86.7123 ,1.76116 ,-0.77583 ,-7.61243 
433 ,86.9209 ,1.76306 ,-0.79978 ,-7.84748 
434 ,87.1447 ,1.76525 ,-0.79978 ,-7.84748 
435 ,87.3370 ,1.76726 ,-0.82032 ,-8.04895 
436 ,87.5451 ,1.76931 ,-0.80663 ,-7.91464 
437 ,87.7371 ,1.77124 ,-0.84769 ,-8.31758 
438 ,87.9453 ,1.77334 ,-0.83401 ,-8.18326 
439 ,88.1531 ,1.77542 ,-0.84085 ,-8.25042 
440 ,88.3615 ,1.77749 ,-0.86481 ,-8.48547 
441 ,88.5696 ,1.77954 ,-0.85454 ,-8.38473 
442 ,88.7775 ,1.78164 ,-0.88876 ,-8.72051 
443 ,88.9534 ,1.78354 ,-0.86823 ,-8.51904 
444 ,89.1456 ,1.78529 ,-0.88534 ,-8.68694 
445 ,89.3535 ,1.78740 ,-0.89903 ,-8.82125 
446 ,89.5460 ,1.78934 ,-0.90929 ,-8.92198 
447 ,89.7539 ,1.79135 ,-0.91614 ,-8.98914 
448 ,89.9460 ,1.79332 ,-0.91614 ,-8.98914 
449 ,90.1377 ,1.79529 ,-0.95036 ,-9.32492 
450 ,90.3304 ,1.79720 ,-0.94694 ,-9.29135 
451 ,90.5380 ,1.79921 ,-0.95378 ,-9.35850 
452 ,90.7304 ,1.80115 ,-0.95720 ,-9.39208 
453 ,90.9706 ,1.80343 ,-0.97089 ,-9.52639 
454 ,91.1785 ,1.80561 ,-0.98116 ,-9.62713 
455 ,91.3705 ,1.80754 ,-0.98116 ,-9.62713 
456 ,91.5628 ,1.80945 ,-0.99143 ,-9.72786 
457 ,91.7549 ,1.81147 ,-0.99827 ,-9.79502 
458 ,91.9467 ,1.81335 ,-0.98458 ,-9.66071 
459 ,92.1548 ,1.81542 ,-1.02565 ,-10.06365 
460 ,92.3630 ,1.81744 ,-1.01880 ,-9.99649 
461 ,92.5712 ,1.81960 ,-1.03934 ,-10.19796 
462 ,92.7790 ,1.82170 ,-1.04960 ,-10.29869 
