Data stamp = , 02-05-2022 23:05:55 897

Calibration Values: 
Slope = , 26.54 , g/V 
Offset Voltage at no contact = , -0.501760 , V 

No , Time , Stage Position ,   Mass , Force 
   ,  (s) ,      (mm)      ,   (g)  , (mN)  

1 ,0.0000 ,0.94948 ,4.85364 ,47.62387 
2 ,0.2234 ,0.94957 ,4.85364 ,47.62387 
3 ,0.7840 ,0.95189 ,4.84337 ,47.52314 
4 ,0.9923 ,0.95410 ,4.85021 ,47.59030 
5 ,1.2005 ,0.95611 ,4.85364 ,47.62387 
6 ,1.4079 ,0.95830 ,4.86048 ,47.69103 
7 ,1.6165 ,0.96033 ,4.81941 ,47.28809 
8 ,1.8246 ,0.96245 ,4.80573 ,47.15378 
9 ,2.0327 ,0.96446 ,4.77835 ,46.88515 
10 ,2.2407 ,0.96665 ,4.76808 ,46.78442 
11 ,2.4327 ,0.96860 ,4.73728 ,46.48221 
12 ,2.6570 ,0.97066 ,4.73386 ,46.44863 
13 ,2.8649 ,0.97290 ,4.70648 ,46.18001 
14 ,3.0890 ,0.97509 ,4.67911 ,45.91138 
15 ,3.2971 ,0.97722 ,4.65173 ,45.64275 
16 ,3.5052 ,0.97927 ,4.64146 ,45.54202 
17 ,3.7133 ,0.98131 ,4.60040 ,45.13908 
18 ,3.9373 ,0.98353 ,4.58328 ,44.97119 
19 ,4.1449 ,0.98566 ,4.57302 ,44.87045 
20 ,4.3211 ,0.98752 ,4.52853 ,44.43394 
21 ,4.5130 ,0.98933 ,4.53880 ,44.53467 
22 ,4.7052 ,0.99128 ,4.50800 ,44.23247 
23 ,4.8977 ,0.99319 ,4.47378 ,43.89668 
24 ,5.0898 ,0.99510 ,4.48746 ,44.03100 
25 ,5.2977 ,0.99720 ,4.43955 ,43.56090 
26 ,5.5058 ,0.99923 ,4.43955 ,43.56090 
27 ,5.7141 ,1.00137 ,4.40191 ,43.19154 
28 ,5.9383 ,1.00359 ,4.37111 ,42.88933 
29 ,6.1461 ,1.00566 ,4.36769 ,42.85576 
30 ,6.3386 ,1.00764 ,4.33689 ,42.55355 
31 ,6.5464 ,1.00965 ,4.34373 ,42.62071 
32 ,6.7388 ,1.01165 ,4.30267 ,42.21777 
33 ,6.9141 ,1.01351 ,4.28898 ,42.08345 
34 ,7.1066 ,1.01526 ,4.27187 ,41.91556 
35 ,7.3308 ,1.01745 ,4.24449 ,41.64694 
36 ,7.5549 ,1.01972 ,4.21711 ,41.37831 
37 ,7.7631 ,1.02185 ,4.19316 ,41.14326 
38 ,8.0030 ,1.02412 ,4.19658 ,41.17684 
39 ,8.2112 ,1.02632 ,4.16920 ,40.90821 
40 ,8.4034 ,1.02829 ,4.14525 ,40.67317 
41 ,8.6114 ,1.03032 ,4.13498 ,40.57243 
42 ,8.8036 ,1.03227 ,4.10076 ,40.23665 
43 ,8.9956 ,1.03418 ,4.09049 ,40.13591 
44 ,9.2038 ,1.03619 ,4.06654 ,39.90087 
45 ,9.4115 ,1.03832 ,4.05285 ,39.76655 
46 ,9.6038 ,1.04037 ,4.02547 ,39.49793 
47 ,9.7798 ,1.04212 ,4.00494 ,39.29646 
48 ,9.9720 ,1.04392 ,4.00152 ,39.26288 
49 ,10.1638 ,1.04585 ,3.97414 ,38.99425 
50 ,10.3562 ,1.04776 ,3.95361 ,38.79278 
51 ,10.5640 ,1.04983 ,3.93307 ,38.59131 
52 ,10.7563 ,1.05176 ,3.92623 ,38.52415 
53 ,10.9643 ,1.05390 ,3.90227 ,38.28911 
54 ,11.1725 ,1.05597 ,3.90570 ,38.32268 
55 ,11.3806 ,1.05803 ,3.86463 ,37.91975 
56 ,11.6047 ,1.06014 ,3.83041 ,37.58396 
57 ,11.7966 ,1.06216 ,3.84067 ,37.68470 
58 ,11.9888 ,1.06407 ,3.82356 ,37.51681 
59 ,12.1970 ,1.06611 ,3.79961 ,37.28176 
60 ,12.3728 ,1.06807 ,3.77565 ,37.04671 
61 ,12.5651 ,1.06985 ,3.75854 ,36.87882 
62 ,12.7730 ,1.07196 ,3.75854 ,36.87882 
63 ,12.9813 ,1.07401 ,3.71405 ,36.44230 
64 ,13.1733 ,1.07597 ,3.71748 ,36.47588 
65 ,13.3812 ,1.07802 ,3.68325 ,36.14010 
66 ,13.5894 ,1.08005 ,3.66614 ,35.97220 
67 ,13.7817 ,1.08200 ,3.64561 ,35.77073 
68 ,13.9896 ,1.08409 ,3.63192 ,35.63642 
69 ,14.2139 ,1.08630 ,3.61481 ,35.46853 
70 ,14.4058 ,1.08828 ,3.59086 ,35.23348 
71 ,14.6139 ,1.09032 ,3.57717 ,35.09917 
72 ,14.8219 ,1.09241 ,3.56690 ,34.99843 
73 ,15.0141 ,1.09433 ,3.54637 ,34.79696 
74 ,15.2060 ,1.09623 ,3.52584 ,34.59549 
75 ,15.4144 ,1.09834 ,3.52241 ,34.56192 
76 ,15.6060 ,1.10027 ,3.48477 ,34.19255 
77 ,15.8306 ,1.10236 ,3.48135 ,34.15898 
78 ,16.0388 ,1.10458 ,3.46766 ,34.02466 
79 ,16.2465 ,1.10666 ,3.43344 ,33.68888 
80 ,16.4388 ,1.10859 ,3.43001 ,33.65530 
81 ,16.6626 ,1.11070 ,3.40606 ,33.42025 
82 ,16.8865 ,1.11300 ,3.37526 ,33.11805 
83 ,17.0789 ,1.11499 ,3.37526 ,33.11805 
84 ,17.2869 ,1.11701 ,3.33762 ,32.74869 
85 ,17.4789 ,1.11897 ,3.34104 ,32.78227 
86 ,17.6712 ,1.12088 ,3.31366 ,32.51364 
87 ,17.8629 ,1.12283 ,3.30339 ,32.41290 
88 ,18.0555 ,1.12477 ,3.29313 ,32.31217 
89 ,18.2475 ,1.12666 ,3.26233 ,32.00996 
90 ,18.4717 ,1.12891 ,3.24864 ,31.87565 
91 ,18.6635 ,1.13082 ,3.23495 ,31.74134 
92 ,18.8558 ,1.13275 ,3.22126 ,31.60702 
93 ,19.0799 ,1.13498 ,3.19388 ,31.33840 
94 ,19.2879 ,1.13705 ,3.18362 ,31.23766 
95 ,19.4802 ,1.13899 ,3.17677 ,31.17051 
96 ,19.6561 ,1.14086 ,3.14255 ,30.83472 
97 ,19.8640 ,1.14281 ,3.13229 ,30.73399 
98 ,20.0883 ,1.14507 ,3.11175 ,30.53252 
99 ,20.2964 ,1.14714 ,3.10491 ,30.46536 
100 ,20.5042 ,1.14921 ,3.07411 ,30.16316 
101 ,20.6964 ,1.15110 ,3.06726 ,30.09600 
102 ,20.8884 ,1.15303 ,3.03304 ,29.76022 
103 ,21.0804 ,1.15498 ,3.02962 ,29.72664 
104 ,21.3048 ,1.15714 ,3.00567 ,29.49159 
105 ,21.5125 ,1.15930 ,2.99198 ,29.35728 
106 ,21.7049 ,1.16119 ,2.96802 ,29.12223 
107 ,21.8969 ,1.16326 ,2.96118 ,29.05507 
108 ,22.0729 ,1.16500 ,2.93038 ,28.75287 
109 ,22.2648 ,1.16683 ,2.93038 ,28.75287 
110 ,22.4892 ,1.16897 ,2.92353 ,28.68571 
111 ,22.6813 ,1.17097 ,2.90300 ,28.48424 
112 ,22.8730 ,1.17290 ,2.88247 ,28.28277 
113 ,23.0655 ,1.17482 ,2.85851 ,28.04772 
114 ,23.2734 ,1.17689 ,2.83798 ,27.84625 
115 ,23.4975 ,1.17908 ,2.84140 ,27.87983 
116 ,23.7055 ,1.18123 ,2.81745 ,27.64479 
117 ,23.8977 ,1.18317 ,2.80376 ,27.51047 
118 ,24.0897 ,1.18508 ,2.77296 ,27.20827 
119 ,24.2660 ,1.18695 ,2.77980 ,27.27542 
120 ,24.4575 ,1.18871 ,2.76269 ,27.10753 
121 ,24.6502 ,1.19066 ,2.72505 ,26.73817 
122 ,24.8422 ,1.19260 ,2.73189 ,26.80533 
123 ,25.0345 ,1.19453 ,2.69767 ,26.46954 
124 ,25.2419 ,1.19657 ,2.69767 ,26.46954 
125 ,25.4346 ,1.19850 ,2.68056 ,26.30165 
126 ,25.6423 ,1.20060 ,2.66345 ,26.13376 
127 ,25.8346 ,1.20248 ,2.64292 ,25.93229 
128 ,26.0264 ,1.20439 ,2.62238 ,25.73082 
129 ,26.2350 ,1.20652 ,2.61896 ,25.69724 
130 ,26.4267 ,1.20842 ,2.59843 ,25.49577 
131 ,26.6348 ,1.21050 ,2.56763 ,25.19357 
132 ,26.8269 ,1.21238 ,2.55394 ,25.05926 
133 ,27.0191 ,1.21435 ,2.55736 ,25.09283 
134 ,27.2271 ,1.21639 ,2.52656 ,24.79063 
135 ,27.4193 ,1.21836 ,2.51630 ,24.68989 
136 ,27.6111 ,1.22022 ,2.49576 ,24.48842 
137 ,27.8193 ,1.22234 ,2.49576 ,24.48842 
138 ,28.0113 ,1.22427 ,2.46154 ,24.15264 
139 ,28.2197 ,1.22637 ,2.46496 ,24.18622 
140 ,28.4118 ,1.22828 ,2.43759 ,23.91759 
141 ,28.6039 ,1.23019 ,2.43074 ,23.85044 
142 ,28.7955 ,1.23207 ,2.40336 ,23.58181 
143 ,28.9877 ,1.23403 ,2.39652 ,23.51465 
144 ,29.1801 ,1.23592 ,2.38283 ,23.38034 
145 ,29.4202 ,1.23818 ,2.36572 ,23.21245 
146 ,29.6123 ,1.24029 ,2.33492 ,22.91024 
147 ,29.8044 ,1.24220 ,2.33834 ,22.94382 
148 ,30.0125 ,1.24424 ,2.31439 ,22.70877 
149 ,30.2203 ,1.24633 ,2.30412 ,22.60804 
150 ,30.4126 ,1.24822 ,2.27674 ,22.33941 
151 ,30.6206 ,1.25025 ,2.28359 ,22.40657 
152 ,30.8128 ,1.25230 ,2.24937 ,22.07079 
153 ,31.0207 ,1.25440 ,2.22541 ,21.83574 
154 ,31.2129 ,1.25624 ,2.21172 ,21.70143 
155 ,31.4048 ,1.25816 ,2.20830 ,21.66785 
156 ,31.6130 ,1.26025 ,2.18777 ,21.46638 
157 ,31.8212 ,1.26221 ,2.18435 ,21.43280 
158 ,32.0291 ,1.26442 ,2.16381 ,21.23133 
159 ,32.2373 ,1.26648 ,2.15355 ,21.13059 
160 ,32.4296 ,1.26842 ,2.13301 ,20.92912 
161 ,32.6216 ,1.27032 ,2.10564 ,20.66050 
162 ,32.8296 ,1.27245 ,2.10221 ,20.62692 
163 ,33.0218 ,1.27430 ,2.07826 ,20.39187 
164 ,33.2297 ,1.27640 ,2.07141 ,20.32472 
165 ,33.4219 ,1.27835 ,2.05430 ,20.15682 
166 ,33.6140 ,1.28030 ,2.04404 ,20.05609 
167 ,33.8058 ,1.28218 ,2.02350 ,19.85462 
168 ,33.9981 ,1.28409 ,2.01324 ,19.75388 
169 ,34.2062 ,1.28618 ,2.00297 ,19.65315 
170 ,34.4142 ,1.28825 ,1.96190 ,19.25021 
171 ,34.6385 ,1.29043 ,1.95848 ,19.21663 
172 ,34.8622 ,1.29272 ,1.93453 ,18.98158 
173 ,35.0705 ,1.29479 ,1.93795 ,19.01516 
174 ,35.2463 ,1.29671 ,1.90373 ,18.67938 
175 ,35.4386 ,1.29852 ,1.90373 ,18.67938 
176 ,35.6308 ,1.30043 ,1.89688 ,18.61222 
177 ,35.8228 ,1.30237 ,1.86266 ,18.27644 
178 ,36.0149 ,1.30425 ,1.84555 ,18.10855 
179 ,36.2230 ,1.30632 ,1.85582 ,18.20928 
180 ,36.4307 ,1.30843 ,1.82844 ,17.94066 
181 ,36.6394 ,1.31052 ,1.81133 ,17.77276 
182 ,36.8470 ,1.31253 ,1.80106 ,17.67203 
183 ,37.0394 ,1.31451 ,1.76000 ,17.26909 
184 ,37.2472 ,1.31658 ,1.77026 ,17.36983 
185 ,37.4396 ,1.31849 ,1.73262 ,17.00046 
186 ,37.6315 ,1.32055 ,1.74631 ,17.13478 
187 ,37.8398 ,1.32238 ,1.71893 ,16.86615 
188 ,38.0476 ,1.32448 ,1.72235 ,16.89973 
189 ,38.2558 ,1.32665 ,1.69498 ,16.63110 
190 ,38.4639 ,1.32872 ,1.69155 ,16.59752 
191 ,38.6556 ,1.33066 ,1.67102 ,16.39605 
192 ,38.8641 ,1.33273 ,1.65049 ,16.19458 
193 ,39.0721 ,1.33484 ,1.64364 ,16.12743 
194 ,39.2797 ,1.33686 ,1.61284 ,15.82522 
195 ,39.4718 ,1.33890 ,1.61627 ,15.85880 
196 ,39.6803 ,1.34085 ,1.57862 ,15.48944 
197 ,39.9043 ,1.34318 ,1.58889 ,15.59018 
198 ,40.1124 ,1.34522 ,1.55467 ,15.25439 
199 ,40.3207 ,1.34728 ,1.53071 ,15.01934 
200 ,40.5287 ,1.34939 ,1.54098 ,15.12008 
201 ,40.7365 ,1.35148 ,1.51360 ,14.85145 
202 ,40.9123 ,1.35331 ,1.51018 ,14.81787 
203 ,41.1051 ,1.35513 ,1.47596 ,14.48209 
204 ,41.2970 ,1.35710 ,1.46911 ,14.41493 
205 ,41.4891 ,1.35901 ,1.46227 ,14.34778 
206 ,41.7131 ,1.36121 ,1.44516 ,14.17989 
207 ,41.9213 ,1.36328 ,1.42805 ,14.01199 
208 ,42.1295 ,1.36534 ,1.41436 ,13.87768 
209 ,42.3374 ,1.36749 ,1.40751 ,13.81053 
210 ,42.5297 ,1.36939 ,1.38698 ,13.60906 
211 ,42.7377 ,1.37146 ,1.37671 ,13.50832 
212 ,42.9457 ,1.37357 ,1.34591 ,13.20612 
213 ,43.1538 ,1.37561 ,1.34934 ,13.23969 
214 ,43.3457 ,1.37748 ,1.33223 ,13.07180 
215 ,43.5377 ,1.37945 ,1.31169 ,12.87033 
216 ,43.7458 ,1.38153 ,1.29800 ,12.73602 
217 ,43.9541 ,1.38360 ,1.28089 ,12.56813 
218 ,44.1458 ,1.38567 ,1.26720 ,12.43381 
219 ,44.3542 ,1.38761 ,1.28432 ,12.60171 
220 ,44.5625 ,1.38968 ,1.23298 ,12.09803 
221 ,44.7543 ,1.39166 ,1.23983 ,12.16519 
222 ,44.9620 ,1.39367 ,1.21587 ,11.93014 
223 ,45.1546 ,1.39562 ,1.21245 ,11.89656 
224 ,45.3461 ,1.39755 ,1.18850 ,11.66151 
225 ,45.5387 ,1.39941 ,1.17823 ,11.56078 
226 ,45.7467 ,1.40147 ,1.17138 ,11.49362 
227 ,45.9390 ,1.40351 ,1.16796 ,11.46004 
228 ,46.1631 ,1.40561 ,1.13374 ,11.12426 
229 ,46.3706 ,1.40778 ,1.13716 ,11.15784 
230 ,46.5632 ,1.40970 ,1.11321 ,10.92279 
231 ,46.8032 ,1.41192 ,1.10294 ,10.82206 
232 ,47.0111 ,1.41416 ,1.09267 ,10.72132 
233 ,47.2194 ,1.41631 ,1.06872 ,10.48627 
234 ,47.4116 ,1.41820 ,1.05845 ,10.38554 
235 ,47.6517 ,1.42042 ,1.04476 ,10.25123 
236 ,47.8597 ,1.42266 ,1.02765 ,10.08333 
237 ,48.0519 ,1.42463 ,1.01739 ,9.98260 
238 ,48.2598 ,1.42663 ,1.00712 ,9.88186 
239 ,48.4518 ,1.42857 ,0.99001 ,9.71397 
240 ,48.6599 ,1.43065 ,0.98659 ,9.68039 
241 ,48.8679 ,1.43275 ,0.93868 ,9.21030 
242 ,49.0761 ,1.43482 ,0.94894 ,9.31103 
243 ,49.2682 ,1.43674 ,0.93868 ,9.21030 
244 ,49.4603 ,1.43867 ,0.93525 ,9.17672 
245 ,49.6520 ,1.44056 ,0.91472 ,8.97525 
246 ,49.8605 ,1.44262 ,0.90103 ,8.84094 
247 ,50.1005 ,1.44508 ,0.88050 ,8.63947 
248 ,50.2927 ,1.44700 ,0.86339 ,8.47158 
249 ,50.4847 ,1.44890 ,0.87366 ,8.57231 
250 ,50.6766 ,1.45081 ,0.86681 ,8.50515 
251 ,50.8527 ,1.45269 ,0.82917 ,8.13579 
252 ,51.0449 ,1.45448 ,0.80863 ,7.93432 
253 ,51.2370 ,1.45640 ,0.81890 ,8.03506 
254 ,51.4291 ,1.45836 ,0.79152 ,7.76643 
255 ,51.6212 ,1.46025 ,0.79495 ,7.80001 
256 ,51.8133 ,1.46219 ,0.78126 ,7.66570 
257 ,52.0214 ,1.46422 ,0.75388 ,7.39707 
258 ,52.2453 ,1.46635 ,0.74704 ,7.32991 
259 ,52.4375 ,1.46846 ,0.74361 ,7.29633 
260 ,52.6295 ,1.47035 ,0.72650 ,7.12844 
261 ,52.8380 ,1.47235 ,0.71966 ,7.06129 
262 ,53.0133 ,1.47430 ,0.69228 ,6.79266 
263 ,53.2059 ,1.47611 ,0.68544 ,6.72550 
264 ,53.4459 ,1.47838 ,0.68201 ,6.69193 
265 ,53.6539 ,1.48054 ,0.67517 ,6.62477 
266 ,53.8460 ,1.48252 ,0.65806 ,6.45688 
267 ,54.0381 ,1.48439 ,0.65464 ,6.42330 
268 ,54.2463 ,1.48642 ,0.62042 ,6.08752 
269 ,54.4542 ,1.48857 ,0.61699 ,6.05394 
270 ,54.6465 ,1.49047 ,0.59304 ,5.81889 
271 ,54.8546 ,1.49261 ,0.58962 ,5.78531 
272 ,55.0306 ,1.49448 ,0.57593 ,5.65100 
273 ,55.2223 ,1.49624 ,0.57593 ,5.65100 
274 ,55.4148 ,1.49818 ,0.56224 ,5.51668 
275 ,55.6228 ,1.50023 ,0.55197 ,5.41595 
276 ,55.8149 ,1.50219 ,0.53486 ,5.24806 
277 ,56.0070 ,1.50407 ,0.51433 ,5.04659 
278 ,56.2149 ,1.50612 ,0.52117 ,5.11375 
279 ,56.4232 ,1.50818 ,0.49380 ,4.84512 
280 ,56.6312 ,1.51033 ,0.48353 ,4.74438 
281 ,56.8233 ,1.51224 ,0.48695 ,4.77796 
282 ,57.0154 ,1.51421 ,0.46300 ,4.54291 
283 ,57.2234 ,1.51622 ,0.45615 ,4.47576 
284 ,57.4314 ,1.51832 ,0.43562 ,4.27429 
285 ,57.6235 ,1.52039 ,0.44931 ,4.40860 
286 ,57.8157 ,1.52218 ,0.42193 ,4.13997 
287 ,58.0077 ,1.52409 ,0.40482 ,3.97208 
288 ,58.2158 ,1.52615 ,0.41166 ,4.03924 
289 ,58.4079 ,1.52809 ,0.37744 ,3.70346 
290 ,58.6322 ,1.53036 ,0.37060 ,3.63630 
291 ,58.8404 ,1.53242 ,0.37744 ,3.70346 
292 ,59.0958 ,1.53494 ,0.34664 ,3.40125 
293 ,59.3040 ,1.53704 ,0.34664 ,3.40125 
294 ,59.5121 ,1.53909 ,0.31242 ,3.06547 
295 ,59.7523 ,1.54144 ,0.31584 ,3.09905 
296 ,59.9604 ,1.54360 ,0.30900 ,3.03189 
297 ,60.1687 ,1.54565 ,0.28504 ,2.79684 
298 ,60.3608 ,1.54766 ,0.27478 ,2.69611 
299 ,60.5689 ,1.54963 ,0.26451 ,2.59537 
300 ,60.7609 ,1.55160 ,0.25767 ,2.52822 
301 ,60.9530 ,1.55354 ,0.23371 ,2.29317 
302 ,61.1451 ,1.55547 ,0.24740 ,2.42748 
303 ,61.3533 ,1.55753 ,0.20633 ,2.02454 
304 ,61.5453 ,1.55948 ,0.22002 ,2.15885 
305 ,61.7214 ,1.56135 ,0.19264 ,1.89023 
306 ,61.9132 ,1.56317 ,0.18238 ,1.78949 
307 ,62.1537 ,1.56556 ,0.16869 ,1.65518 
308 ,62.3616 ,1.56760 ,0.18238 ,1.78949 
309 ,62.5538 ,1.56954 ,0.15500 ,1.52087 
310 ,62.7458 ,1.57161 ,0.15842 ,1.55445 
311 ,62.9375 ,1.57337 ,0.13105 ,1.28582 
312 ,63.1138 ,1.57527 ,0.12420 ,1.21866 
313 ,63.3059 ,1.57708 ,0.11736 ,1.15151 
314 ,63.4981 ,1.57894 ,0.11393 ,1.11793 
315 ,63.7061 ,1.58103 ,0.10709 ,1.05077 
316 ,63.9144 ,1.58312 ,0.06602 ,0.64783 
317 ,64.1539 ,1.58541 ,0.08998 ,0.88288 
318 ,64.3460 ,1.58742 ,0.06945 ,0.68141 
319 ,64.5220 ,1.58932 ,0.05918 ,0.58067 
320 ,64.7143 ,1.59117 ,0.04207 ,0.41278 
321 ,64.9225 ,1.59318 ,0.04207 ,0.41278 
322 ,65.1463 ,1.59546 ,0.04549 ,0.44636 
323 ,65.3228 ,1.59732 ,0.02838 ,0.27847 
324 ,65.5310 ,1.59925 ,-0.00242 ,-0.02373 
325 ,65.7388 ,1.60133 ,-0.00584 ,-0.05731 
326 ,65.9310 ,1.60330 ,-0.01953 ,-0.19163 
327 ,66.1230 ,1.60535 ,-0.02295 ,-0.22520 
328 ,66.3150 ,1.60712 ,-0.04006 ,-0.39310 
329 ,66.5073 ,1.60908 ,-0.01953 ,-0.19163 
330 ,66.6993 ,1.61096 ,-0.05717 ,-0.56099 
331 ,66.9233 ,1.61309 ,-0.07086 ,-0.69530 
332 ,67.1154 ,1.61516 ,-0.08113 ,-0.79604 
333 ,67.2912 ,1.61701 ,-0.08455 ,-0.82961 
334 ,67.4998 ,1.61895 ,-0.08455 ,-0.82961 
335 ,67.7075 ,1.62114 ,-0.09140 ,-0.89677 
336 ,67.8998 ,1.62294 ,-0.10851 ,-1.06466 
337 ,68.0755 ,1.62487 ,-0.12904 ,-1.26613 
338 ,68.2681 ,1.62663 ,-0.12219 ,-1.19898 
339 ,68.4757 ,1.62876 ,-0.14957 ,-1.46760 
340 ,68.6682 ,1.63064 ,-0.14273 ,-1.40045 
341 ,68.8601 ,1.63259 ,-0.17011 ,-1.66907 
342 ,69.0684 ,1.63465 ,-0.17011 ,-1.66907 
343 ,69.2766 ,1.63675 ,-0.18037 ,-1.76981 
344 ,69.4846 ,1.63880 ,-0.18037 ,-1.76981 
345 ,69.7086 ,1.64092 ,-0.21117 ,-2.07201 
346 ,69.9164 ,1.64310 ,-0.21802 ,-2.13917 
347 ,70.0928 ,1.64503 ,-0.21802 ,-2.13917 
348 ,70.2847 ,1.64682 ,-0.22144 ,-2.17275 
349 ,70.4931 ,1.64890 ,-0.24197 ,-2.37422 
350 ,70.6845 ,1.65083 ,-0.25566 ,-2.50853 
351 ,70.9091 ,1.65309 ,-0.25566 ,-2.50853 
352 ,71.1170 ,1.65516 ,-0.28304 ,-2.77716 
353 ,71.3253 ,1.65720 ,-0.27619 ,-2.71000 
354 ,71.5174 ,1.65914 ,-0.30357 ,-2.97863 
355 ,71.7090 ,1.66116 ,-0.31726 ,-3.11294 
356 ,71.9174 ,1.66310 ,-0.31384 ,-3.07936 
357 ,72.1257 ,1.66518 ,-0.31384 ,-3.07936 
358 ,72.3176 ,1.66714 ,-0.34464 ,-3.38156 
359 ,72.5096 ,1.66906 ,-0.33437 ,-3.28083 
360 ,72.7174 ,1.67109 ,-0.36175 ,-3.54946 
361 ,72.9097 ,1.67303 ,-0.35832 ,-3.51588 
362 ,73.1180 ,1.67502 ,-0.36175 ,-3.54946 
363 ,73.3099 ,1.67705 ,-0.35490 ,-3.48230 
364 ,73.5021 ,1.67900 ,-0.38570 ,-3.78450 
365 ,73.6943 ,1.68090 ,-0.39939 ,-3.91882 
366 ,73.9019 ,1.68292 ,-0.40281 ,-3.95240 
367 ,74.1425 ,1.68540 ,-0.41992 ,-4.12029 
368 ,74.3506 ,1.68743 ,-0.43019 ,-4.22102 
369 ,74.5586 ,1.68956 ,-0.44388 ,-4.35534 
370 ,74.7663 ,1.69164 ,-0.43703 ,-4.28818 
371 ,74.9588 ,1.69353 ,-0.46441 ,-4.55681 
372 ,75.1666 ,1.69556 ,-0.44388 ,-4.35534 
373 ,75.3749 ,1.69773 ,-0.48152 ,-4.72470 
374 ,75.5829 ,1.69973 ,-0.47468 ,-4.65754 
375 ,75.7749 ,1.70171 ,-0.50206 ,-4.92617 
376 ,75.9832 ,1.70382 ,-0.50548 ,-4.95975 
377 ,76.1910 ,1.70581 ,-0.51917 ,-5.09406 
378 ,76.3833 ,1.70777 ,-0.52601 ,-5.16121 
379 ,76.5916 ,1.70984 ,-0.52943 ,-5.19479 
380 ,76.7835 ,1.71178 ,-0.54997 ,-5.39626 
381 ,76.9915 ,1.71385 ,-0.54312 ,-5.32911 
382 ,77.1834 ,1.71576 ,-0.56023 ,-5.49700 
383 ,77.3917 ,1.71777 ,-0.56365 ,-5.53058 
384 ,77.5998 ,1.71995 ,-0.59445 ,-5.83278 
385 ,77.7919 ,1.72187 ,-0.58419 ,-5.73205 
386 ,77.9999 ,1.72391 ,-0.61156 ,-6.00067 
387 ,78.1920 ,1.72585 ,-0.60130 ,-5.89994 
388 ,78.3842 ,1.72773 ,-0.61156 ,-6.00067 
389 ,78.5763 ,1.72975 ,-0.63552 ,-6.23572 
390 ,78.7679 ,1.73159 ,-0.62868 ,-6.16856 
391 ,78.9605 ,1.73356 ,-0.64236 ,-6.30288 
392 ,79.1684 ,1.73563 ,-0.64236 ,-6.30288 
393 ,79.3764 ,1.73771 ,-0.65263 ,-6.40361 
394 ,79.5847 ,1.73974 ,-0.65263 ,-6.40361 
395 ,79.8248 ,1.74225 ,-0.68343 ,-6.70582 
396 ,80.0326 ,1.74427 ,-0.68343 ,-6.70582 
397 ,80.2250 ,1.74620 ,-0.69027 ,-6.77297 
398 ,80.4328 ,1.74829 ,-0.70054 ,-6.87371 
399 ,80.6250 ,1.75017 ,-0.71765 ,-7.04160 
400 ,80.8169 ,1.75210 ,-0.73134 ,-7.17591 
401 ,81.0253 ,1.75418 ,-0.72792 ,-7.14233 
402 ,81.2171 ,1.75611 ,-0.73476 ,-7.20949 
403 ,81.4094 ,1.75799 ,-0.72792 ,-7.14233 
404 ,81.6013 ,1.75997 ,-0.77583 ,-7.61243 
405 ,81.8096 ,1.76207 ,-0.74845 ,-7.34380 
406 ,82.0176 ,1.76412 ,-0.78267 ,-7.67959 
407 ,82.2096 ,1.76600 ,-0.77925 ,-7.64601 
408 ,82.3858 ,1.76791 ,-0.79636 ,-7.81390 
409 ,82.5779 ,1.76969 ,-0.81347 ,-7.98179 
410 ,82.7855 ,1.77179 ,-0.80663 ,-7.91464 
411 ,82.9776 ,1.77367 ,-0.82716 ,-8.11611 
412 ,83.2022 ,1.77593 ,-0.82716 ,-8.11611 
413 ,83.4104 ,1.77806 ,-0.82032 ,-8.04895 
414 ,83.6184 ,1.78010 ,-0.85796 ,-8.41831 
415 ,83.8261 ,1.78220 ,-0.86138 ,-8.45189 
416 ,84.0347 ,1.78425 ,-0.86138 ,-8.45189 
417 ,84.2426 ,1.78635 ,-0.89560 ,-8.78767 
418 ,84.4347 ,1.78828 ,-0.87507 ,-8.58620 
419 ,84.6267 ,1.79016 ,-0.89218 ,-8.75409 
420 ,84.8189 ,1.79211 ,-0.91614 ,-8.98914 
421 ,85.0268 ,1.79413 ,-0.89903 ,-8.82125 
422 ,85.2190 ,1.79609 ,-0.91614 ,-8.98914 
423 ,85.4269 ,1.79820 ,-0.91614 ,-8.98914 
424 ,85.6192 ,1.80010 ,-0.94009 ,-9.22419 
425 ,85.8113 ,1.80202 ,-0.93325 ,-9.15703 
426 ,86.0033 ,1.80405 ,-0.96405 ,-9.45924 
427 ,86.2111 ,1.80603 ,-0.95378 ,-9.35850 
428 ,86.4195 ,1.80804 ,-0.97431 ,-9.55997 
429 ,86.6113 ,1.81007 ,-0.96747 ,-9.49282 
430 ,86.8036 ,1.81196 ,-0.99143 ,-9.72786 
431 ,86.9954 ,1.81384 ,-1.00169 ,-9.82860 
432 ,87.2034 ,1.81594 ,-1.02222 ,-10.03007 
433 ,87.3958 ,1.81788 ,-0.98800 ,-9.69429 
434 ,87.6199 ,1.82005 ,-1.02565 ,-10.06365 
435 ,87.8120 ,1.82203 ,-1.01538 ,-9.96291 
436 ,88.0042 ,1.82394 ,-1.03249 ,-10.13080 
437 ,88.1962 ,1.82588 ,-1.03249 ,-10.13080 
438 ,88.4203 ,1.82808 ,-1.05987 ,-10.39943 
439 ,88.6124 ,1.83003 ,-1.05302 ,-10.33227 
440 ,88.8205 ,1.83205 ,-1.07014 ,-10.50016 
441 ,89.0281 ,1.83423 ,-1.07014 ,-10.50016 
442 ,89.2202 ,1.83610 ,-1.08382 ,-10.63448 
443 ,89.4122 ,1.83807 ,-1.07698 ,-10.56732 
444 ,89.6048 ,1.83996 ,-1.11462 ,-10.93668 
445 ,89.7968 ,1.84188 ,-1.09067 ,-10.70163 
446 ,89.9889 ,1.84376 ,-1.09751 ,-10.76879 
447 ,90.1810 ,1.84570 ,-1.13516 ,-11.13815 
448 ,90.3729 ,1.84764 ,-1.11462 ,-10.93668 
449 ,90.5650 ,1.84958 ,-1.15569 ,-11.33962 
450 ,90.7572 ,1.85143 ,-1.14884 ,-11.27247 
451 ,90.9494 ,1.85338 ,-1.16253 ,-11.40678 
452 ,91.1574 ,1.85545 ,-1.15569 ,-11.33962 
453 ,91.3816 ,1.85761 ,-1.17964 ,-11.57467 
454 ,91.5892 ,1.85980 ,-1.16596 ,-11.44036 
455 ,91.7976 ,1.86181 ,-1.18991 ,-11.67541 
456 ,91.9894 ,1.86379 ,-1.17964 ,-11.57467 
457 ,92.1820 ,1.86572 ,-1.21387 ,-11.91045 
458 ,92.3896 ,1.86779 ,-1.21387 ,-11.91045 
459 ,92.5980 ,1.86985 ,-1.22755 ,-12.04477 
460 ,92.7897 ,1.87181 ,-1.21729 ,-11.94403 
461 ,92.9982 ,1.87378 ,-1.24467 ,-12.21266 
