Data stamp = , 02-05-2022 23:30:08 886

Calibration Values: 
Slope = , 26.54 , g/V 
Offset Voltage at no contact = , -0.501760 , V 

No , Time , Stage Position ,   Mass , Force 
   ,  (s) ,      (mm)      ,   (g)  , (mN)  

1 ,0.0000 ,0.94945 ,4.86390 ,47.72461 
2 ,0.2298 ,0.94955 ,4.88101 ,47.89250 
3 ,0.6620 ,0.95094 ,4.87075 ,47.79177 
4 ,0.8704 ,0.95295 ,4.87417 ,47.82534 
5 ,1.0944 ,0.95506 ,4.85706 ,47.65745 
6 ,1.3025 ,0.95715 ,4.87759 ,47.85892 
7 ,1.4948 ,0.95904 ,4.86390 ,47.72461 
8 ,1.6869 ,0.96102 ,4.85021 ,47.59030 
9 ,1.8789 ,0.96299 ,4.80915 ,47.18736 
10 ,2.0711 ,0.96483 ,4.81599 ,47.25451 
11 ,2.2791 ,0.96697 ,4.77493 ,46.85157 
12 ,2.5033 ,0.96913 ,4.76466 ,46.75084 
13 ,2.7116 ,0.97133 ,4.74755 ,46.58295 
14 ,2.9034 ,0.97322 ,4.71333 ,46.24716 
15 ,3.1111 ,0.97527 ,4.71675 ,46.28074 
16 ,3.3036 ,0.97720 ,4.69279 ,46.04569 
17 ,3.4792 ,0.97907 ,4.65515 ,45.67633 
18 ,3.6718 ,0.98091 ,4.65515 ,45.67633 
19 ,3.8798 ,0.98298 ,4.62435 ,45.37413 
20 ,4.0559 ,0.98486 ,4.61066 ,45.23981 
21 ,4.2475 ,0.98668 ,4.58328 ,44.97119 
22 ,4.4401 ,0.98865 ,4.55933 ,44.73614 
23 ,4.6321 ,0.99050 ,4.55933 ,44.73614 
24 ,4.8242 ,0.99241 ,4.52169 ,44.36678 
25 ,5.0324 ,0.99448 ,4.51826 ,44.33320 
26 ,5.2405 ,0.99656 ,4.47035 ,43.86310 
27 ,5.4484 ,0.99862 ,4.46693 ,43.82953 
28 ,5.6401 ,1.00057 ,4.44298 ,43.59448 
29 ,5.8804 ,1.00278 ,4.43271 ,43.49374 
30 ,6.0887 ,1.00504 ,4.40875 ,43.25870 
31 ,6.2807 ,1.00704 ,4.38138 ,42.99007 
32 ,6.4728 ,1.00892 ,4.38138 ,42.99007 
33 ,6.6646 ,1.01082 ,4.34716 ,42.65429 
34 ,6.8410 ,1.01272 ,4.33689 ,42.55355 
35 ,7.0331 ,1.01449 ,4.30951 ,42.28492 
36 ,7.2412 ,1.01666 ,4.28556 ,42.04988 
37 ,7.4493 ,1.01866 ,4.28556 ,42.04988 
38 ,7.6414 ,1.02061 ,4.25476 ,41.74767 
39 ,7.8332 ,1.02255 ,4.25476 ,41.74767 
40 ,8.0416 ,1.02463 ,4.20000 ,41.21042 
41 ,8.2496 ,1.02666 ,4.21027 ,41.31115 
42 ,8.4417 ,1.02861 ,4.17262 ,40.94179 
43 ,8.6338 ,1.03049 ,4.16920 ,40.90821 
44 ,8.8254 ,1.03242 ,4.13156 ,40.53885 
45 ,9.0179 ,1.03431 ,4.13840 ,40.60601 
46 ,9.2102 ,1.03626 ,4.12129 ,40.43812 
47 ,9.4023 ,1.03820 ,4.09734 ,40.20307 
48 ,9.6263 ,1.04037 ,4.06996 ,39.93444 
49 ,9.8184 ,1.04236 ,4.05969 ,39.83371 
50 ,10.0420 ,1.04454 ,4.02547 ,39.49793 
51 ,10.2663 ,1.04671 ,4.01520 ,39.39719 
52 ,10.4747 ,1.04892 ,4.00152 ,39.26288 
53 ,10.6666 ,1.05085 ,3.97756 ,39.02783 
54 ,10.8747 ,1.05289 ,3.96045 ,38.85994 
55 ,11.0668 ,1.05482 ,3.93650 ,38.62489 
56 ,11.2589 ,1.05674 ,3.92281 ,38.49058 
57 ,11.4668 ,1.05883 ,3.90227 ,38.28911 
58 ,11.6590 ,1.06074 ,3.89885 ,38.25553 
59 ,11.8668 ,1.06282 ,3.85436 ,37.81901 
60 ,12.0591 ,1.06473 ,3.84752 ,37.75185 
61 ,12.2349 ,1.06667 ,3.84410 ,37.71828 
62 ,12.4272 ,1.06848 ,3.82356 ,37.51681 
63 ,12.6356 ,1.07047 ,3.80987 ,37.38249 
64 ,12.8273 ,1.07243 ,3.78250 ,37.11387 
65 ,13.0196 ,1.07435 ,3.77908 ,37.08029 
66 ,13.2115 ,1.07622 ,3.76196 ,36.91240 
67 ,13.4039 ,1.07818 ,3.73801 ,36.67735 
68 ,13.6115 ,1.08012 ,3.72090 ,36.50946 
69 ,13.8043 ,1.08221 ,3.69352 ,36.24083 
70 ,13.9956 ,1.08413 ,3.70037 ,36.30799 
71 ,14.1878 ,1.08608 ,3.66272 ,35.93863 
72 ,14.3959 ,1.08807 ,3.64903 ,35.80431 
73 ,14.5884 ,1.09011 ,3.62850 ,35.60284 
74 ,14.7961 ,1.09212 ,3.63192 ,35.63642 
75 ,15.0206 ,1.09436 ,3.58743 ,35.19990 
76 ,15.2125 ,1.09637 ,3.57032 ,35.03201 
77 ,15.4048 ,1.09818 ,3.55321 ,34.86412 
78 ,15.5968 ,1.10015 ,3.55321 ,34.86412 
79 ,15.7890 ,1.10204 ,3.52241 ,34.56192 
80 ,15.9968 ,1.10413 ,3.51557 ,34.49476 
81 ,16.1891 ,1.10601 ,3.49161 ,34.25971 
82 ,16.3812 ,1.10798 ,3.48135 ,34.15898 
83 ,16.5889 ,1.11003 ,3.45739 ,33.92393 
84 ,16.7974 ,1.11210 ,3.44028 ,33.75604 
85 ,17.0053 ,1.11417 ,3.42317 ,33.58814 
86 ,17.1971 ,1.11609 ,3.43001 ,33.65530 
87 ,17.3896 ,1.11805 ,3.39237 ,33.28594 
88 ,17.5655 ,1.11991 ,3.38553 ,33.21878 
89 ,17.7734 ,1.12185 ,3.34446 ,32.81584 
90 ,17.9818 ,1.12385 ,3.34104 ,32.78227 
91 ,18.1899 ,1.12603 ,3.31024 ,32.48006 
92 ,18.3820 ,1.12796 ,3.31366 ,32.51364 
93 ,18.5900 ,1.13007 ,3.28628 ,32.24501 
94 ,18.7817 ,1.13198 ,3.28628 ,32.24501 
95 ,18.9901 ,1.13402 ,3.25206 ,31.90923 
96 ,19.1981 ,1.13608 ,3.25206 ,31.90923 
97 ,19.3901 ,1.13803 ,3.21784 ,31.57345 
98 ,19.5824 ,1.13997 ,3.22126 ,31.60702 
99 ,19.8065 ,1.14216 ,3.17335 ,31.13693 
100 ,19.9986 ,1.14411 ,3.18704 ,31.27124 
101 ,20.1907 ,1.14605 ,3.14940 ,30.90188 
102 ,20.3827 ,1.14794 ,3.13571 ,30.76757 
103 ,20.5749 ,1.14988 ,3.11175 ,30.53252 
104 ,20.7830 ,1.15195 ,3.11860 ,30.59968 
105 ,20.9749 ,1.15386 ,3.08780 ,30.29747 
106 ,21.1670 ,1.15584 ,3.06384 ,30.06242 
107 ,21.3753 ,1.15790 ,3.05700 ,29.99527 
108 ,21.5991 ,1.16011 ,3.04673 ,29.89453 
109 ,21.7913 ,1.16205 ,3.01593 ,29.59233 
110 ,21.9834 ,1.16396 ,3.01593 ,29.59233 
111 ,22.1752 ,1.16583 ,2.98855 ,29.32370 
112 ,22.3673 ,1.16778 ,2.95776 ,29.02150 
113 ,22.5757 ,1.16985 ,2.95776 ,29.02150 
114 ,22.7836 ,1.17195 ,2.93722 ,28.82003 
115 ,22.9918 ,1.17400 ,2.91327 ,28.58498 
116 ,23.1835 ,1.17596 ,2.91327 ,28.58498 
117 ,23.3920 ,1.17803 ,2.89616 ,28.41709 
118 ,23.6160 ,1.18017 ,2.87905 ,28.24919 
119 ,23.8238 ,1.18237 ,2.86878 ,28.14846 
120 ,24.0159 ,1.18426 ,2.84482 ,27.91341 
121 ,24.2244 ,1.18630 ,2.82429 ,27.71194 
122 ,24.4160 ,1.18821 ,2.81402 ,27.61121 
123 ,24.6245 ,1.19023 ,2.77638 ,27.24185 
124 ,24.8328 ,1.19241 ,2.76611 ,27.14111 
125 ,25.0247 ,1.19434 ,2.76611 ,27.14111 
126 ,25.2167 ,1.19627 ,2.75243 ,27.00680 
127 ,25.4086 ,1.19820 ,2.71820 ,26.67101 
128 ,25.6011 ,1.20017 ,2.71478 ,26.63744 
129 ,25.8093 ,1.20218 ,2.68740 ,26.36881 
130 ,26.0010 ,1.20415 ,2.69083 ,26.40239 
131 ,26.1931 ,1.20608 ,2.66003 ,26.10018 
132 ,26.3852 ,1.20795 ,2.64976 ,25.99945 
133 ,26.5932 ,1.21000 ,2.63265 ,25.83156 
134 ,26.7853 ,1.21191 ,2.62238 ,25.73082 
135 ,27.0096 ,1.21416 ,2.58816 ,25.39504 
136 ,27.2172 ,1.21624 ,2.58816 ,25.39504 
137 ,27.4097 ,1.21820 ,2.56078 ,25.12641 
138 ,27.6013 ,1.22012 ,2.56078 ,25.12641 
139 ,27.8100 ,1.22213 ,2.52998 ,24.82421 
140 ,28.0016 ,1.22411 ,2.53341 ,24.85779 
141 ,28.1939 ,1.22601 ,2.50603 ,24.58916 
142 ,28.4180 ,1.22818 ,2.50261 ,24.55558 
143 ,28.6101 ,1.23019 ,2.47865 ,24.32053 
144 ,28.7861 ,1.23207 ,2.47865 ,24.32053 
145 ,28.9783 ,1.23389 ,2.45470 ,24.08549 
146 ,29.1702 ,1.23577 ,2.43074 ,23.85044 
147 ,29.3619 ,1.23771 ,2.43416 ,23.88402 
148 ,29.5545 ,1.23961 ,2.41021 ,23.64897 
149 ,29.7626 ,1.24169 ,2.41021 ,23.64897 
150 ,30.0027 ,1.24398 ,2.36572 ,23.21245 
151 ,30.1947 ,1.24617 ,2.35545 ,23.11171 
152 ,30.3868 ,1.24793 ,2.35888 ,23.14529 
153 ,30.5789 ,1.24985 ,2.33150 ,22.87667 
154 ,30.7868 ,1.25195 ,2.30070 ,22.57446 
155 ,30.9788 ,1.25388 ,2.29385 ,22.50731 
156 ,31.1712 ,1.25580 ,2.26990 ,22.27226 
157 ,31.3630 ,1.25773 ,2.27332 ,22.30584 
158 ,31.5714 ,1.25981 ,2.25621 ,22.13794 
159 ,31.7634 ,1.26173 ,2.24252 ,22.00363 
160 ,31.9553 ,1.26361 ,2.20830 ,21.66785 
161 ,32.1473 ,1.26557 ,2.19461 ,21.53353 
162 ,32.3558 ,1.26758 ,2.17750 ,21.36564 
163 ,32.5479 ,1.26956 ,2.17066 ,21.29849 
164 ,32.7719 ,1.27167 ,2.15012 ,21.09702 
165 ,32.9640 ,1.27373 ,2.14328 ,21.02986 
166 ,33.1716 ,1.27581 ,2.11590 ,20.76123 
167 ,33.3641 ,1.27774 ,2.11248 ,20.72766 
168 ,33.5560 ,1.27963 ,2.09195 ,20.52619 
169 ,33.7482 ,1.28156 ,2.09195 ,20.52619 
170 ,33.9559 ,1.28361 ,2.06115 ,20.22398 
171 ,34.1484 ,1.28554 ,2.06115 ,20.22398 
172 ,34.3563 ,1.28768 ,2.01666 ,19.78746 
173 ,34.5646 ,1.28973 ,2.02693 ,19.88820 
174 ,34.7563 ,1.29163 ,2.00297 ,19.65315 
175 ,34.9485 ,1.29357 ,1.99955 ,19.61957 
176 ,35.1566 ,1.29564 ,1.97559 ,19.38452 
177 ,35.3484 ,1.29757 ,1.95506 ,19.18305 
178 ,35.5410 ,1.29947 ,1.94822 ,19.11590 
179 ,35.7490 ,1.30154 ,1.93795 ,19.01516 
180 ,35.9730 ,1.30361 ,1.93111 ,18.94801 
181 ,36.1810 ,1.30587 ,1.90373 ,18.67938 
182 ,36.3887 ,1.30792 ,1.88662 ,18.51149 
183 ,36.5813 ,1.30993 ,1.87977 ,18.44433 
184 ,36.7893 ,1.31193 ,1.85924 ,18.24286 
185 ,36.9816 ,1.31388 ,1.84555 ,18.10855 
186 ,37.1897 ,1.31595 ,1.83528 ,18.00781 
187 ,37.3976 ,1.31805 ,1.81133 ,17.77276 
188 ,37.5896 ,1.31995 ,1.80791 ,17.73919 
189 ,37.7974 ,1.32202 ,1.78395 ,17.50414 
190 ,38.0055 ,1.32403 ,1.78395 ,17.50414 
191 ,38.2136 ,1.32614 ,1.73946 ,17.06762 
192 ,38.4221 ,1.32830 ,1.73604 ,17.03404 
193 ,38.6298 ,1.33036 ,1.73946 ,17.06762 
194 ,38.8219 ,1.33231 ,1.70866 ,16.76542 
195 ,39.0942 ,1.33498 ,1.68129 ,16.49679 
196 ,39.2862 ,1.33688 ,1.69155 ,16.59752 
197 ,39.5105 ,1.33912 ,1.65733 ,16.26174 
198 ,39.7026 ,1.34107 ,1.65049 ,16.19458 
199 ,39.9265 ,1.34325 ,1.62653 ,15.95954 
200 ,40.1507 ,1.34544 ,1.61627 ,15.85880 
201 ,40.3429 ,1.34750 ,1.59916 ,15.69091 
202 ,40.5510 ,1.34955 ,1.58889 ,15.59018 
203 ,40.7590 ,1.35159 ,1.56836 ,15.38871 
204 ,40.9511 ,1.35362 ,1.55809 ,15.28797 
205 ,41.1431 ,1.35559 ,1.53756 ,15.08650 
206 ,41.3352 ,1.35738 ,1.52387 ,14.95219 
207 ,41.5270 ,1.35933 ,1.52729 ,14.98577 
208 ,41.7194 ,1.36124 ,1.50676 ,14.78430 
209 ,41.9272 ,1.36331 ,1.50333 ,14.75072 
210 ,42.1355 ,1.36541 ,1.47596 ,14.48209 
211 ,42.3436 ,1.36748 ,1.45542 ,14.28062 
212 ,42.5354 ,1.36939 ,1.44516 ,14.17989 
213 ,42.7279 ,1.37130 ,1.44516 ,14.17989 
214 ,42.9197 ,1.37322 ,1.41094 ,13.84410 
215 ,43.1115 ,1.37528 ,1.41436 ,13.87768 
216 ,43.3042 ,1.37707 ,1.39383 ,13.67621 
217 ,43.4961 ,1.37902 ,1.37329 ,13.47474 
218 ,43.7199 ,1.38121 ,1.35618 ,13.30685 
219 ,43.9122 ,1.38318 ,1.35276 ,13.27327 
220 ,44.1040 ,1.38509 ,1.34591 ,13.20612 
221 ,44.3121 ,1.38714 ,1.32196 ,12.97107 
222 ,44.5042 ,1.38909 ,1.30143 ,12.76960 
223 ,44.6962 ,1.39100 ,1.28774 ,12.63528 
224 ,44.8884 ,1.39290 ,1.28089 ,12.56813 
225 ,45.0966 ,1.39497 ,1.26036 ,12.36666 
226 ,45.3044 ,1.39705 ,1.26720 ,12.43381 
227 ,45.4969 ,1.39899 ,1.24667 ,12.23235 
228 ,45.6891 ,1.40092 ,1.23641 ,12.13161 
229 ,45.8811 ,1.40282 ,1.19534 ,11.72867 
230 ,46.0891 ,1.40491 ,1.21245 ,11.89656 
231 ,46.2813 ,1.40683 ,1.19534 ,11.72867 
232 ,46.4732 ,1.40887 ,1.17481 ,11.52720 
233 ,46.6653 ,1.41064 ,1.17138 ,11.49362 
234 ,46.8575 ,1.41258 ,1.15427 ,11.32573 
235 ,47.0496 ,1.41456 ,1.14743 ,11.25857 
236 ,47.2413 ,1.41644 ,1.13032 ,11.09068 
237 ,47.4339 ,1.41833 ,1.09952 ,10.78848 
238 ,47.6420 ,1.42046 ,1.11663 ,10.95637 
239 ,47.8496 ,1.42250 ,1.08241 ,10.62059 
240 ,48.0738 ,1.42475 ,1.05845 ,10.38554 
241 ,48.2822 ,1.42682 ,1.06530 ,10.45270 
242 ,48.4742 ,1.42878 ,1.04819 ,10.28480 
243 ,48.6821 ,1.43088 ,1.02423 ,10.04976 
244 ,48.8905 ,1.43291 ,1.02081 ,10.01618 
245 ,49.0983 ,1.43499 ,0.99001 ,9.71397 
246 ,49.2906 ,1.43690 ,0.99685 ,9.78113 
247 ,49.4984 ,1.43897 ,0.97632 ,9.57966 
248 ,49.6903 ,1.44090 ,0.97974 ,9.61324 
249 ,49.8987 ,1.44298 ,0.94210 ,9.24388 
250 ,50.1229 ,1.44514 ,0.94552 ,9.27745 
251 ,50.3150 ,1.44719 ,0.94210 ,9.24388 
252 ,50.5231 ,1.44928 ,0.92157 ,9.04241 
253 ,50.7148 ,1.45129 ,0.90446 ,8.87451 
254 ,50.9067 ,1.45310 ,0.89761 ,8.80736 
255 ,51.1149 ,1.45509 ,0.87708 ,8.60589 
256 ,51.3230 ,1.45721 ,0.86339 ,8.47158 
257 ,51.5149 ,1.45912 ,0.83601 ,8.20295 
258 ,51.7072 ,1.46110 ,0.84628 ,8.30368 
259 ,51.8992 ,1.46304 ,0.82232 ,8.06864 
260 ,52.1076 ,1.46509 ,0.82575 ,8.10221 
261 ,52.2999 ,1.46702 ,0.79495 ,7.80001 
262 ,52.5079 ,1.46907 ,0.80179 ,7.86717 
263 ,52.7160 ,1.47113 ,0.77099 ,7.56496 
264 ,52.9081 ,1.47302 ,0.77784 ,7.63212 
265 ,53.1000 ,1.47503 ,0.74019 ,7.26276 
266 ,53.2922 ,1.47694 ,0.75046 ,7.36349 
267 ,53.4840 ,1.47885 ,0.72650 ,7.12844 
268 ,53.6924 ,1.48091 ,0.72650 ,7.12844 
269 ,53.9002 ,1.48293 ,0.72308 ,7.09486 
270 ,54.0921 ,1.48487 ,0.68544 ,6.72550 
271 ,54.3002 ,1.48701 ,0.66833 ,6.55761 
272 ,54.4926 ,1.48892 ,0.67517 ,6.62477 
273 ,54.7006 ,1.49096 ,0.65464 ,6.42330 
274 ,54.9086 ,1.49305 ,0.64779 ,6.35614 
275 ,55.1011 ,1.49504 ,0.61699 ,6.05394 
276 ,55.2926 ,1.49701 ,0.62726 ,6.15467 
277 ,55.4851 ,1.49880 ,0.63068 ,6.18825 
278 ,55.6931 ,1.50095 ,0.60330 ,5.91962 
279 ,55.8852 ,1.50286 ,0.59304 ,5.81889 
280 ,56.0931 ,1.50491 ,0.57251 ,5.61742 
281 ,56.3010 ,1.50701 ,0.56224 ,5.51668 
282 ,56.5094 ,1.50905 ,0.56224 ,5.51668 
283 ,56.7015 ,1.51102 ,0.54513 ,5.34879 
284 ,56.8932 ,1.51290 ,0.52802 ,5.18090 
285 ,57.0854 ,1.51487 ,0.52802 ,5.18090 
286 ,57.2777 ,1.51678 ,0.50748 ,4.97943 
287 ,57.4693 ,1.51869 ,0.51091 ,5.01301 
288 ,57.6620 ,1.52061 ,0.48011 ,4.71081 
289 ,57.8539 ,1.52268 ,0.47668 ,4.67723 
290 ,58.0462 ,1.52441 ,0.46642 ,4.57649 
291 ,58.2541 ,1.52651 ,0.45615 ,4.47576 
292 ,58.4461 ,1.52842 ,0.44246 ,4.34144 
293 ,58.6382 ,1.53038 ,0.42535 ,4.17355 
294 ,58.8462 ,1.53245 ,0.41166 ,4.03924 
295 ,59.0706 ,1.53466 ,0.40824 ,4.00566 
296 ,59.2626 ,1.53661 ,0.38086 ,3.73703 
297 ,59.4544 ,1.53851 ,0.40140 ,3.93850 
298 ,59.6622 ,1.54059 ,0.36718 ,3.60272 
299 ,59.8546 ,1.54249 ,0.37060 ,3.63630 
300 ,60.0788 ,1.54482 ,0.34664 ,3.40125 
301 ,60.3028 ,1.54686 ,0.35349 ,3.46841 
302 ,60.5112 ,1.54909 ,0.34664 ,3.40125 
303 ,60.7030 ,1.55106 ,0.30215 ,2.96473 
304 ,60.8954 ,1.55294 ,0.31242 ,3.06547 
305 ,61.1194 ,1.55507 ,0.29189 ,2.86400 
306 ,61.3114 ,1.55705 ,0.28504 ,2.79684 
307 ,61.5196 ,1.55913 ,0.26451 ,2.59537 
308 ,61.7118 ,1.56106 ,0.27820 ,2.72969 
309 ,61.9037 ,1.56304 ,0.25424 ,2.49464 
310 ,62.1118 ,1.56509 ,0.25424 ,2.49464 
311 ,62.3041 ,1.56699 ,0.23371 ,2.29317 
312 ,62.5121 ,1.56909 ,0.23371 ,2.29317 
313 ,62.7200 ,1.57110 ,0.20976 ,2.05812 
314 ,62.9119 ,1.57305 ,0.20633 ,2.02454 
315 ,63.1043 ,1.57503 ,0.18580 ,1.82307 
316 ,63.3125 ,1.57708 ,0.18922 ,1.85665 
317 ,63.5045 ,1.57901 ,0.15158 ,1.48729 
318 ,63.7121 ,1.58103 ,0.17553 ,1.72234 
319 ,63.9045 ,1.58298 ,0.14131 ,1.38655 
320 ,64.0965 ,1.58486 ,0.13789 ,1.35298 
321 ,64.2884 ,1.58686 ,0.13105 ,1.28582 
322 ,64.4809 ,1.58878 ,0.10709 ,1.05077 
323 ,64.6889 ,1.59082 ,0.11736 ,1.15151 
324 ,64.8970 ,1.59289 ,0.09682 ,0.95004 
325 ,65.0726 ,1.59481 ,0.08998 ,0.88288 
326 ,65.2812 ,1.59674 ,0.06945 ,0.68141 
327 ,65.4892 ,1.59881 ,0.07971 ,0.78214 
328 ,65.6813 ,1.60076 ,0.05918 ,0.58067 
329 ,65.8730 ,1.60282 ,0.06602 ,0.64783 
330 ,66.0972 ,1.60490 ,0.03522 ,0.34563 
331 ,66.2895 ,1.60684 ,0.03522 ,0.34563 
332 ,66.4813 ,1.60876 ,0.00100 ,0.00984 
333 ,66.6737 ,1.61069 ,0.00785 ,0.07700 
334 ,66.8817 ,1.61276 ,-0.01953 ,-0.19163 
335 ,67.0899 ,1.61474 ,-0.00926 ,-0.09089 
336 ,67.2816 ,1.61675 ,-0.02637 ,-0.25878 
337 ,67.4900 ,1.61882 ,-0.02980 ,-0.29236 
338 ,67.7142 ,1.62104 ,-0.04348 ,-0.42667 
339 ,67.9061 ,1.62300 ,-0.06060 ,-0.59457 
340 ,68.1144 ,1.62510 ,-0.04348 ,-0.42667 
341 ,68.3066 ,1.62700 ,-0.08113 ,-0.79604 
342 ,68.4985 ,1.62888 ,-0.07086 ,-0.69530 
343 ,68.7069 ,1.63099 ,-0.08797 ,-0.86319 
344 ,68.9144 ,1.63305 ,-0.09140 ,-0.89677 
345 ,69.1067 ,1.63501 ,-0.12562 ,-1.23255 
346 ,69.2987 ,1.63691 ,-0.12219 ,-1.19898 
347 ,69.4905 ,1.63882 ,-0.12904 ,-1.26613 
348 ,69.6990 ,1.64090 ,-0.15642 ,-1.53476 
349 ,69.9069 ,1.64299 ,-0.15642 ,-1.53476 
350 ,70.0991 ,1.64497 ,-0.17011 ,-1.66907 
351 ,70.2911 ,1.64685 ,-0.17695 ,-1.73623 
352 ,70.4834 ,1.64877 ,-0.18379 ,-1.80338 
353 ,70.6913 ,1.65080 ,-0.18037 ,-1.76981 
354 ,70.8834 ,1.65272 ,-0.20433 ,-2.00485 
355 ,71.0754 ,1.65469 ,-0.20433 ,-2.00485 
356 ,71.2675 ,1.65656 ,-0.21802 ,-2.13917 
357 ,71.4757 ,1.65861 ,-0.22144 ,-2.17275 
358 ,71.6834 ,1.66071 ,-0.25566 ,-2.50853 
359 ,71.8914 ,1.66285 ,-0.24881 ,-2.44137 
360 ,72.1160 ,1.66508 ,-0.24881 ,-2.44137 
361 ,72.3242 ,1.66717 ,-0.28646 ,-2.81073 
362 ,72.5158 ,1.66905 ,-0.26593 ,-2.60926 
363 ,72.7083 ,1.67104 ,-0.29673 ,-2.91147 
364 ,72.8837 ,1.67290 ,-0.30015 ,-2.94505 
365 ,73.0763 ,1.67464 ,-0.31726 ,-3.11294 
366 ,73.2685 ,1.67658 ,-0.31726 ,-3.11294 
367 ,73.4605 ,1.67852 ,-0.33437 ,-3.28083 
368 ,73.6526 ,1.68045 ,-0.34121 ,-3.34799 
369 ,73.8449 ,1.68240 ,-0.35832 ,-3.51588 
370 ,74.0527 ,1.68445 ,-0.35832 ,-3.51588 
371 ,74.2608 ,1.68652 ,-0.37886 ,-3.71735 
372 ,74.4530 ,1.68843 ,-0.36859 ,-3.61661 
373 ,74.6610 ,1.69050 ,-0.39255 ,-3.85166 
374 ,74.8692 ,1.69250 ,-0.37544 ,-3.68377 
375 ,75.0608 ,1.69453 ,-0.39939 ,-3.91882 
376 ,75.2531 ,1.69643 ,-0.40623 ,-3.98597 
377 ,75.4456 ,1.69834 ,-0.43361 ,-4.25460 
378 ,75.6374 ,1.70027 ,-0.41992 ,-4.12029 
379 ,75.8455 ,1.70237 ,-0.45757 ,-4.48965 
380 ,76.0376 ,1.70426 ,-0.45757 ,-4.48965 
381 ,76.2457 ,1.70639 ,-0.48152 ,-4.72470 
382 ,76.4538 ,1.70843 ,-0.47126 ,-4.62396 
383 ,76.6459 ,1.71035 ,-0.48837 ,-4.79185 
384 ,76.8539 ,1.71238 ,-0.48152 ,-4.72470 
385 ,77.0620 ,1.71452 ,-0.49863 ,-4.89259 
386 ,77.2536 ,1.71652 ,-0.50548 ,-4.95975 
387 ,77.4623 ,1.71840 ,-0.53628 ,-5.26195 
388 ,77.6701 ,1.72059 ,-0.53628 ,-5.26195 
389 ,77.8620 ,1.72255 ,-0.53970 ,-5.29553 
390 ,78.0543 ,1.72441 ,-0.53628 ,-5.26195 
391 ,78.2624 ,1.72650 ,-0.57392 ,-5.63131 
392 ,78.4545 ,1.72849 ,-0.56023 ,-5.49700 
393 ,78.6627 ,1.73051 ,-0.58419 ,-5.73205 
394 ,78.8549 ,1.73245 ,-0.58761 ,-5.76562 
395 ,79.0629 ,1.73449 ,-0.60472 ,-5.93352 
396 ,79.2710 ,1.73647 ,-0.59103 ,-5.79920 
397 ,79.4631 ,1.73851 ,-0.62183 ,-6.10141 
398 ,79.6548 ,1.74042 ,-0.62525 ,-6.13499 
399 ,79.8472 ,1.74235 ,-0.63894 ,-6.26930 
400 ,80.0394 ,1.74430 ,-0.63552 ,-6.23572 
401 ,80.2314 ,1.74618 ,-0.64579 ,-6.33646 
402 ,80.4234 ,1.74812 ,-0.66290 ,-6.50435 
403 ,80.6315 ,1.75016 ,-0.66290 ,-6.50435 
404 ,80.8236 ,1.75219 ,-0.67316 ,-6.60508 
405 ,81.0155 ,1.75401 ,-0.66290 ,-6.50435 
406 ,81.2238 ,1.75608 ,-0.70054 ,-6.87371 
407 ,81.4157 ,1.75803 ,-0.70054 ,-6.87371 
408 ,81.6235 ,1.76012 ,-0.72107 ,-7.07518 
409 ,81.8159 ,1.76204 ,-0.71081 ,-6.97444 
410 ,82.0081 ,1.76408 ,-0.73818 ,-7.24307 
411 ,82.2002 ,1.76590 ,-0.72792 ,-7.14233 
412 ,82.3923 ,1.76778 ,-0.74503 ,-7.31023 
413 ,82.5843 ,1.76972 ,-0.75872 ,-7.44454 
414 ,82.7763 ,1.77162 ,-0.74845 ,-7.34380 
415 ,82.9683 ,1.77352 ,-0.77241 ,-7.57885 
416 ,83.1443 ,1.77542 ,-0.75872 ,-7.44454 
417 ,83.3365 ,1.77721 ,-0.77583 ,-7.61243 
418 ,83.5288 ,1.77915 ,-0.79978 ,-7.84748 
419 ,83.7526 ,1.78140 ,-0.79636 ,-7.81390 
420 ,83.9607 ,1.78355 ,-0.80321 ,-7.88106 
421 ,84.1530 ,1.78540 ,-0.81005 ,-7.94821 
422 ,84.3610 ,1.78746 ,-0.83743 ,-8.21684 
423 ,84.5692 ,1.78951 ,-0.83058 ,-8.14968 
424 ,84.7612 ,1.79150 ,-0.85454 ,-8.38473 
425 ,84.9851 ,1.79367 ,-0.87507 ,-8.58620 
426 ,85.1773 ,1.79559 ,-0.85112 ,-8.35115 
427 ,85.3853 ,1.79772 ,-0.88876 ,-8.72051 
428 ,85.5775 ,1.79962 ,-0.86823 ,-8.51904 
429 ,85.7854 ,1.80173 ,-0.89560 ,-8.78767 
430 ,85.9773 ,1.80361 ,-0.89218 ,-8.75409 
431 ,86.1857 ,1.80571 ,-0.91614 ,-8.98914 
432 ,86.3778 ,1.80765 ,-0.91272 ,-8.95556 
433 ,86.5700 ,1.80954 ,-0.92983 ,-9.12345 
434 ,86.7779 ,1.81163 ,-0.92983 ,-9.12345 
435 ,86.9701 ,1.81358 ,-0.94351 ,-9.25777 
436 ,87.1621 ,1.81547 ,-0.94694 ,-9.29135 
437 ,87.3543 ,1.81744 ,-0.95378 ,-9.35850 
438 ,87.5461 ,1.81931 ,-0.97431 ,-9.55997 
439 ,87.7545 ,1.82142 ,-0.96405 ,-9.45924 
440 ,87.9464 ,1.82332 ,-0.99827 ,-9.79502 
441 ,88.1542 ,1.82541 ,-0.98458 ,-9.66071 
442 ,88.3467 ,1.82731 ,-1.00854 ,-9.89576 
443 ,88.5548 ,1.82941 ,-1.00169 ,-9.82860 
444 ,88.7468 ,1.83130 ,-1.02565 ,-10.06365 
445 ,88.9550 ,1.83343 ,-1.01880 ,-9.99649 
446 ,89.1469 ,1.83530 ,-1.04276 ,-10.23154 
447 ,89.3226 ,1.83722 ,-1.01880 ,-9.99649 
448 ,89.5152 ,1.83901 ,-1.04276 ,-10.23154 
449 ,89.7233 ,1.84108 ,-1.04960 ,-10.29869 
450 ,89.9149 ,1.84299 ,-1.05645 ,-10.36585 
451 ,90.1234 ,1.84512 ,-1.06671 ,-10.46659 
452 ,90.3315 ,1.84713 ,-1.07356 ,-10.53374 
453 ,90.5396 ,1.84923 ,-1.09067 ,-10.70163 
454 ,90.7796 ,1.85149 ,-1.10778 ,-10.86953 
455 ,90.9717 ,1.85354 ,-1.11805 ,-10.97026 
456 ,91.1796 ,1.85553 ,-1.13173 ,-11.10457 
457 ,91.3878 ,1.85767 ,-1.13173 ,-11.10457 
458 ,91.5795 ,1.85962 ,-1.13173 ,-11.10457 
459 ,91.7721 ,1.86159 ,-1.13858 ,-11.17173 
460 ,91.9640 ,1.86353 ,-1.13858 ,-11.17173 
461 ,92.1720 ,1.86554 ,-1.15569 ,-11.33962 
462 ,92.3642 ,1.86744 ,-1.16253 ,-11.40678 
