Data stamp = , 03-05-2022 11:43:27 577

Calibration Values: 
Slope = , 26.54 , g/V 
Offset Voltage at no contact = , -0.501760 , V 

No , Time , Stage Position ,   Mass , Force 
   ,  (s) ,      (mm)      ,   (g)  , (mN)  

1 ,0.0000 ,0.89952 ,5.28483 ,51.85474 
2 ,0.2310 ,0.89962 ,5.30536 ,52.05621 
3 ,0.6154 ,0.90076 ,5.29167 ,51.92190 
4 ,0.8399 ,0.90271 ,5.30878 ,52.08979 
5 ,1.0797 ,0.90485 ,5.31221 ,52.12337 
6 ,1.2877 ,0.90710 ,5.29852 ,51.98905 
7 ,1.4958 ,0.90918 ,5.27456 ,51.75401 
8 ,1.7040 ,0.91132 ,5.25061 ,51.51896 
9 ,1.8960 ,0.91336 ,5.22323 ,51.25033 
10 ,2.1042 ,0.91532 ,5.20954 ,51.11602 
11 ,2.3121 ,0.91744 ,5.18216 ,50.84739 
12 ,2.5363 ,0.91966 ,5.15821 ,50.61234 
13 ,2.7281 ,0.92154 ,5.16163 ,50.64592 
14 ,2.9204 ,0.92345 ,5.11372 ,50.17583 
15 ,3.1126 ,0.92537 ,5.08634 ,49.90720 
16 ,3.3207 ,0.92749 ,5.07265 ,49.77289 
17 ,3.5286 ,0.92950 ,5.06581 ,49.70573 
18 ,3.7204 ,0.93148 ,5.03843 ,49.43710 
19 ,3.9289 ,0.93352 ,5.02474 ,49.30279 
20 ,4.1370 ,0.93568 ,4.97683 ,48.83269 
21 ,4.3453 ,0.93769 ,4.98368 ,48.89985 
22 ,4.5690 ,0.93993 ,4.94603 ,48.53049 
23 ,4.7772 ,0.94200 ,4.92208 ,48.29544 
24 ,5.0011 ,0.94426 ,4.91523 ,48.22828 
25 ,5.2095 ,0.94636 ,4.88786 ,47.95966 
26 ,5.4177 ,0.94842 ,4.85021 ,47.59030 
27 ,5.6254 ,0.95047 ,4.84337 ,47.52314 
28 ,5.8657 ,0.95289 ,4.81941 ,47.28809 
29 ,6.1054 ,0.95518 ,4.78177 ,46.91873 
30 ,6.2978 ,0.95725 ,4.76466 ,46.75084 
31 ,6.4898 ,0.95913 ,4.75782 ,46.68368 
32 ,6.6821 ,0.96105 ,4.72359 ,46.34790 
33 ,6.8902 ,0.96315 ,4.68595 ,45.97854 
34 ,7.0982 ,0.96516 ,4.68253 ,45.94496 
35 ,7.2904 ,0.96720 ,4.67226 ,45.84422 
36 ,7.4980 ,0.96923 ,4.63804 ,45.50844 
37 ,7.6904 ,0.97114 ,4.62777 ,45.40771 
38 ,7.8984 ,0.97320 ,4.60724 ,45.20624 
39 ,8.0902 ,0.97510 ,4.58671 ,45.00477 
40 ,8.2986 ,0.97719 ,4.56275 ,44.76972 
41 ,8.5069 ,0.97935 ,4.56275 ,44.76972 
42 ,8.6987 ,0.98130 ,4.51142 ,44.26604 
43 ,8.8911 ,0.98318 ,4.50115 ,44.16531 
44 ,9.1311 ,0.98542 ,4.46009 ,43.76237 
45 ,9.3390 ,0.98765 ,4.46351 ,43.79595 
46 ,9.5472 ,0.98970 ,4.44982 ,43.66163 
47 ,9.7393 ,0.99165 ,4.41902 ,43.35943 
48 ,9.9473 ,0.99372 ,4.40875 ,43.25870 
49 ,10.1395 ,0.99566 ,4.38822 ,43.05723 
50 ,10.3471 ,0.99771 ,4.38138 ,42.99007 
51 ,10.5397 ,0.99966 ,4.33689 ,42.55355 
52 ,10.7156 ,1.00150 ,4.33004 ,42.48639 
53 ,10.9237 ,1.00345 ,4.31636 ,42.35208 
54 ,11.1159 ,1.00542 ,4.27871 ,41.98272 
55 ,11.3239 ,1.00749 ,4.28556 ,42.04988 
56 ,11.5160 ,1.00943 ,4.23765 ,41.57978 
57 ,11.7562 ,1.01163 ,4.24107 ,41.61336 
58 ,11.9639 ,1.01388 ,4.22738 ,41.47905 
59 ,12.1563 ,1.01583 ,4.18289 ,41.04253 
60 ,12.3485 ,1.01774 ,4.19316 ,41.14326 
61 ,12.5405 ,1.01966 ,4.16236 ,40.84106 
62 ,12.7324 ,1.02156 ,4.12814 ,40.50527 
63 ,12.9246 ,1.02351 ,4.12814 ,40.50527 
64 ,13.1165 ,1.02538 ,4.08707 ,40.10233 
65 ,13.3087 ,1.02731 ,4.10076 ,40.23665 
66 ,13.5006 ,1.02927 ,4.07338 ,39.96802 
67 ,13.7250 ,1.03147 ,4.04943 ,39.73297 
68 ,13.9331 ,1.03358 ,4.01520 ,39.39719 
69 ,14.1410 ,1.03568 ,4.00836 ,39.33003 
70 ,14.3493 ,1.03772 ,3.99125 ,39.16214 
71 ,14.5413 ,1.03963 ,3.96729 ,38.92709 
72 ,14.7492 ,1.04172 ,3.96045 ,38.85994 
73 ,14.9414 ,1.04367 ,3.93307 ,38.59131 
74 ,15.1495 ,1.04577 ,3.91596 ,38.42342 
75 ,15.3417 ,1.04765 ,3.89885 ,38.25553 
76 ,15.5497 ,1.04964 ,3.86463 ,37.91975 
77 ,15.7413 ,1.05164 ,3.86805 ,37.95332 
78 ,15.9498 ,1.05368 ,3.84410 ,37.71828 
79 ,16.1578 ,1.05584 ,3.82356 ,37.51681 
80 ,16.3820 ,1.05786 ,3.81330 ,37.41607 
81 ,16.5899 ,1.06007 ,3.78934 ,37.18102 
82 ,16.8141 ,1.06235 ,3.75854 ,36.87882 
83 ,17.0062 ,1.06438 ,3.76881 ,36.97955 
84 ,17.2143 ,1.06638 ,3.72774 ,36.57661 
85 ,17.4064 ,1.06830 ,3.72774 ,36.57661 
86 ,17.6143 ,1.07037 ,3.67983 ,36.10652 
87 ,17.8226 ,1.07240 ,3.67983 ,36.10652 
88 ,18.0466 ,1.07464 ,3.65588 ,35.87147 
89 ,18.2383 ,1.07661 ,3.64903 ,35.80431 
90 ,18.4623 ,1.07882 ,3.63534 ,35.67000 
91 ,18.6703 ,1.08089 ,3.60112 ,35.33422 
92 ,18.8947 ,1.08299 ,3.58743 ,35.19990 
93 ,19.1031 ,1.08522 ,3.57717 ,35.09917 
94 ,19.3108 ,1.08732 ,3.54979 ,34.83054 
95 ,19.5192 ,1.08941 ,3.52926 ,34.62907 
96 ,19.7273 ,1.09142 ,3.51215 ,34.46118 
97 ,19.9355 ,1.09358 ,3.48819 ,34.22613 
98 ,20.1431 ,1.09559 ,3.48477 ,34.19255 
99 ,20.3515 ,1.09770 ,3.45739 ,33.92393 
100 ,20.5275 ,1.09959 ,3.46081 ,33.95751 
101 ,20.7517 ,1.10150 ,3.44713 ,33.82319 
102 ,20.9437 ,1.10363 ,3.41290 ,33.48741 
103 ,21.1518 ,1.10564 ,3.38895 ,33.25236 
104 ,21.3601 ,1.10779 ,3.38210 ,33.18520 
105 ,21.5679 ,1.10993 ,3.36157 ,32.98374 
106 ,21.7600 ,1.11179 ,3.34446 ,32.81584 
107 ,21.9680 ,1.11384 ,3.30339 ,32.41290 
108 ,22.1602 ,1.11579 ,3.32735 ,32.64795 
109 ,22.3680 ,1.11783 ,3.27944 ,32.17786 
110 ,22.5604 ,1.11983 ,3.28628 ,32.24501 
111 ,22.7522 ,1.12184 ,3.25548 ,31.94281 
112 ,22.9448 ,1.12363 ,3.24522 ,31.84207 
113 ,23.1364 ,1.12563 ,3.21442 ,31.53987 
114 ,23.3287 ,1.12749 ,3.20073 ,31.40555 
115 ,23.5367 ,1.12955 ,3.19388 ,31.33840 
116 ,24.0332 ,1.13313 ,3.18704 ,31.27124 
117 ,24.2412 ,1.13654 ,3.14255 ,30.83472 
118 ,24.4495 ,1.13866 ,3.10833 ,30.49894 
119 ,24.6731 ,1.14081 ,3.10833 ,30.49894 
120 ,24.8815 ,1.14299 ,3.09122 ,30.33105 
121 ,25.0730 ,1.14492 ,3.06384 ,30.06242 
122 ,25.2655 ,1.14682 ,3.05015 ,29.92811 
123 ,25.4575 ,1.14876 ,3.03647 ,29.79380 
124 ,25.6657 ,1.15083 ,3.01935 ,29.62590 
125 ,25.8738 ,1.15296 ,2.98171 ,29.25654 
126 ,26.0816 ,1.15501 ,2.99198 ,29.35728 
127 ,26.2899 ,1.15705 ,2.95433 ,28.98792 
128 ,26.4818 ,1.15903 ,2.95776 ,29.02150 
129 ,26.6736 ,1.16102 ,2.91669 ,28.61856 
130 ,26.8823 ,1.16301 ,2.92696 ,28.71929 
131 ,27.1383 ,1.16549 ,2.91327 ,28.58498 
132 ,27.3463 ,1.16765 ,2.88247 ,28.28277 
133 ,27.5546 ,1.16970 ,2.86193 ,28.08130 
134 ,27.7466 ,1.17169 ,2.84140 ,27.87983 
135 ,27.9706 ,1.17383 ,2.81745 ,27.64479 
136 ,28.1787 ,1.17597 ,2.82429 ,27.71194 
137 ,28.3708 ,1.17787 ,2.79349 ,27.40974 
138 ,28.5788 ,1.17995 ,2.77980 ,27.27542 
139 ,28.7707 ,1.18190 ,2.76269 ,27.10753 
140 ,28.9632 ,1.18389 ,2.75927 ,27.07395 
141 ,29.1551 ,1.18569 ,2.72847 ,26.77175 
142 ,29.3477 ,1.18766 ,2.70452 ,26.53670 
143 ,29.5552 ,1.18973 ,2.69425 ,26.43597 
144 ,29.7474 ,1.19162 ,2.67714 ,26.26807 
145 ,29.9552 ,1.19372 ,2.67714 ,26.26807 
146 ,30.1795 ,1.19595 ,2.66687 ,26.16734 
147 ,30.3876 ,1.19807 ,2.63949 ,25.89871 
148 ,30.5956 ,1.20005 ,2.62581 ,25.76440 
149 ,30.7878 ,1.20203 ,2.59158 ,25.42862 
150 ,30.9958 ,1.20413 ,2.59158 ,25.42862 
151 ,31.2038 ,1.20619 ,2.55394 ,25.05926 
152 ,31.3959 ,1.20811 ,2.55394 ,25.05926 
153 ,31.5879 ,1.21003 ,2.53683 ,24.89136 
154 ,31.7802 ,1.21193 ,2.53341 ,24.85779 
155 ,31.9881 ,1.21403 ,2.50945 ,24.62274 
156 ,32.2118 ,1.21626 ,2.50945 ,24.62274 
157 ,32.4358 ,1.21847 ,2.47181 ,24.25338 
158 ,32.6281 ,1.22043 ,2.46839 ,24.21980 
159 ,32.8361 ,1.22260 ,2.45470 ,24.08549 
160 ,33.0283 ,1.22448 ,2.41363 ,23.68255 
161 ,33.2367 ,1.22658 ,2.39994 ,23.54823 
162 ,33.4608 ,1.22876 ,2.38625 ,23.41392 
163 ,33.6850 ,1.23089 ,2.34177 ,22.97740 
164 ,33.8929 ,1.23306 ,2.34519 ,23.01098 
165 ,34.1012 ,1.23510 ,2.33150 ,22.87667 
166 ,34.3091 ,1.23728 ,2.30412 ,22.60804 
167 ,34.5173 ,1.23935 ,2.30412 ,22.60804 
168 ,34.7252 ,1.24146 ,2.28701 ,22.44015 
169 ,34.9335 ,1.24350 ,2.27332 ,22.30584 
170 ,35.1251 ,1.24541 ,2.27332 ,22.30584 
171 ,35.3496 ,1.24754 ,2.25621 ,22.13794 
172 ,35.5416 ,1.24955 ,2.23568 ,21.93647 
173 ,35.7335 ,1.25144 ,2.20488 ,21.63427 
174 ,35.9418 ,1.25345 ,2.17750 ,21.36564 
175 ,36.1500 ,1.25570 ,2.17066 ,21.29849 
176 ,36.3580 ,1.25771 ,2.17066 ,21.29849 
177 ,36.5657 ,1.25974 ,2.13644 ,20.96270 
178 ,36.7581 ,1.26175 ,2.15012 ,21.09702 
179 ,36.9821 ,1.26398 ,2.11590 ,20.76123 
180 ,37.1743 ,1.26589 ,2.11248 ,20.72766 
181 ,37.3982 ,1.26815 ,2.10906 ,20.69408 
182 ,37.6060 ,1.27019 ,2.06115 ,20.22398 
183 ,37.8143 ,1.27220 ,2.07141 ,20.32472 
184 ,38.0386 ,1.27450 ,2.04746 ,20.08967 
185 ,38.2626 ,1.27670 ,2.02008 ,19.82104 
186 ,38.4388 ,1.27864 ,2.00297 ,19.65315 
187 ,38.6306 ,1.28042 ,1.99955 ,19.61957 
188 ,38.8389 ,1.28245 ,1.98586 ,19.48526 
189 ,39.0310 ,1.28446 ,1.96875 ,19.31737 
190 ,39.2392 ,1.28650 ,1.96533 ,19.28379 
191 ,39.4472 ,1.28858 ,1.93453 ,18.98158 
192 ,39.6393 ,1.29058 ,1.94137 ,19.04874 
193 ,39.8789 ,1.29276 ,1.89688 ,18.61222 
194 ,40.0711 ,1.29485 ,1.88319 ,18.47791 
195 ,40.2796 ,1.29692 ,1.87635 ,18.41075 
196 ,40.4876 ,1.29897 ,1.85240 ,18.17570 
197 ,40.6958 ,1.30106 ,1.84555 ,18.10855 
198 ,40.9037 ,1.30322 ,1.83528 ,18.00781 
199 ,41.1278 ,1.30537 ,1.80791 ,17.73919 
200 ,41.3359 ,1.30753 ,1.80106 ,17.67203 
201 ,41.5279 ,1.30938 ,1.76684 ,17.33625 
202 ,41.7200 ,1.31133 ,1.78053 ,17.47056 
203 ,41.9118 ,1.31326 ,1.75315 ,17.20193 
204 ,42.1520 ,1.31560 ,1.73604 ,17.03404 
205 ,42.3442 ,1.31756 ,1.71209 ,16.79899 
206 ,42.5364 ,1.31950 ,1.70866 ,16.76542 
207 ,42.7285 ,1.32141 ,1.69155 ,16.59752 
208 ,42.9365 ,1.32352 ,1.68129 ,16.49679 
209 ,43.1284 ,1.32538 ,1.65391 ,16.22816 
210 ,43.3367 ,1.32748 ,1.65733 ,16.26174 
211 ,43.5446 ,1.32960 ,1.62995 ,15.99311 
212 ,43.7371 ,1.33149 ,1.63338 ,16.02669 
213 ,43.9609 ,1.33369 ,1.59231 ,15.62375 
214 ,44.1531 ,1.33565 ,1.59573 ,15.65733 
215 ,44.3609 ,1.33769 ,1.57520 ,15.45586 
216 ,44.5534 ,1.33967 ,1.56836 ,15.38871 
217 ,44.7453 ,1.34164 ,1.53756 ,15.08650 
218 ,44.9376 ,1.34350 ,1.54782 ,15.18724 
219 ,45.1454 ,1.34553 ,1.50676 ,14.78430 
220 ,45.3373 ,1.34760 ,1.50333 ,14.75072 
221 ,45.5459 ,1.34954 ,1.48622 ,14.58283 
222 ,45.7697 ,1.35175 ,1.48280 ,14.54925 
223 ,45.9617 ,1.35372 ,1.46569 ,14.38136 
224 ,46.1697 ,1.35579 ,1.44174 ,14.14631 
225 ,46.3942 ,1.35793 ,1.43489 ,14.07915 
226 ,46.6022 ,1.36005 ,1.41094 ,13.84410 
227 ,46.8102 ,1.36219 ,1.40751 ,13.81053 
228 ,47.0022 ,1.36413 ,1.39725 ,13.70979 
229 ,47.1944 ,1.36605 ,1.38014 ,13.54190 
230 ,47.3865 ,1.36800 ,1.34934 ,13.23969 
231 ,47.5781 ,1.36988 ,1.36303 ,13.37401 
232 ,47.7864 ,1.37192 ,1.33907 ,13.13896 
233 ,47.9948 ,1.37401 ,1.33565 ,13.10538 
234 ,48.1867 ,1.37598 ,1.29458 ,12.70244 
235 ,48.4108 ,1.37815 ,1.29800 ,12.73602 
236 ,48.5868 ,1.38007 ,1.27063 ,12.46739 
237 ,48.8111 ,1.38221 ,1.27405 ,12.50097 
238 ,49.0192 ,1.38431 ,1.26036 ,12.36666 
239 ,49.2270 ,1.38633 ,1.23641 ,12.13161 
240 ,49.4352 ,1.38845 ,1.23298 ,12.09803 
241 ,49.6271 ,1.39039 ,1.21245 ,11.89656 
242 ,49.8032 ,1.39226 ,1.19876 ,11.76225 
243 ,49.9954 ,1.39402 ,1.20218 ,11.79583 
244 ,50.1717 ,1.39590 ,1.16796 ,11.46004 
245 ,50.3636 ,1.39775 ,1.17138 ,11.49362 
246 ,50.5876 ,1.39990 ,1.14743 ,11.25857 
247 ,50.8114 ,1.40202 ,1.13374 ,11.12426 
248 ,51.0197 ,1.40428 ,1.11663 ,10.95637 
249 ,51.2278 ,1.40638 ,1.08925 ,10.68774 
250 ,51.4201 ,1.40829 ,1.10636 ,10.85563 
251 ,51.6441 ,1.41049 ,1.07899 ,10.58701 
252 ,51.8362 ,1.41244 ,1.06187 ,10.41912 
253 ,52.0599 ,1.41465 ,1.04476 ,10.25123 
254 ,52.2524 ,1.41663 ,1.02765 ,10.08333 
255 ,52.4604 ,1.41868 ,1.01396 ,9.94902 
256 ,52.6683 ,1.42074 ,1.00028 ,9.81471 
257 ,52.8768 ,1.42279 ,0.99001 ,9.71397 
258 ,53.0687 ,1.42475 ,0.98317 ,9.64682 
259 ,53.2609 ,1.42666 ,0.96948 ,9.51250 
260 ,53.4688 ,1.42877 ,0.95237 ,9.34461 
261 ,53.6610 ,1.43065 ,0.94210 ,9.24388 
262 ,53.8852 ,1.43294 ,0.93183 ,9.14314 
263 ,54.0769 ,1.43488 ,0.92841 ,9.10956 
264 ,54.2851 ,1.43698 ,0.90103 ,8.84094 
265 ,54.5093 ,1.43913 ,0.88734 ,8.70662 
266 ,54.7172 ,1.44119 ,0.87366 ,8.57231 
267 ,54.9256 ,1.44330 ,0.85654 ,8.40442 
268 ,55.1176 ,1.44534 ,0.86339 ,8.47158 
269 ,55.3097 ,1.44715 ,0.84628 ,8.30368 
270 ,55.5018 ,1.44906 ,0.82917 ,8.13579 
271 ,55.7094 ,1.45122 ,0.80521 ,7.90074 
272 ,55.9019 ,1.45304 ,0.80179 ,7.86717 
273 ,56.1101 ,1.45511 ,0.79837 ,7.83359 
274 ,56.3177 ,1.45722 ,0.77784 ,7.63212 
275 ,56.5101 ,1.45914 ,0.77099 ,7.56496 
276 ,56.7021 ,1.46111 ,0.76415 ,7.49780 
277 ,56.9426 ,1.46347 ,0.73335 ,7.19560 
278 ,57.1505 ,1.46557 ,0.71966 ,7.06129 
279 ,57.3581 ,1.46763 ,0.71281 ,6.99413 
280 ,57.5667 ,1.46968 ,0.68886 ,6.75908 
281 ,57.7747 ,1.47185 ,0.69228 ,6.79266 
282 ,57.9828 ,1.47387 ,0.66490 ,6.52403 
283 ,58.2069 ,1.47610 ,0.67175 ,6.59119 
284 ,58.3990 ,1.47809 ,0.65464 ,6.42330 
285 ,58.6070 ,1.48006 ,0.63753 ,6.25541 
286 ,58.8152 ,1.48219 ,0.62726 ,6.15467 
287 ,59.0071 ,1.48414 ,0.61015 ,5.98678 
288 ,59.2310 ,1.48630 ,0.60330 ,5.91962 
289 ,59.4231 ,1.48827 ,0.57251 ,5.61742 
290 ,59.6310 ,1.49037 ,0.57593 ,5.65100 
291 ,59.8234 ,1.49235 ,0.53486 ,5.24806 
292 ,60.0315 ,1.49437 ,0.56566 ,5.55026 
293 ,60.2557 ,1.49653 ,0.54513 ,5.34879 
294 ,60.4638 ,1.49866 ,0.53144 ,5.21448 
295 ,60.6556 ,1.50061 ,0.51433 ,5.04659 
296 ,60.8638 ,1.50267 ,0.48695 ,4.77796 
297 ,61.0561 ,1.50464 ,0.50406 ,4.94585 
298 ,61.2641 ,1.50668 ,0.47326 ,4.64365 
299 ,61.4563 ,1.50861 ,0.48011 ,4.71081 
300 ,61.6643 ,1.51068 ,0.43904 ,4.30787 
301 ,61.8400 ,1.51258 ,0.46642 ,4.57649 
302 ,62.0323 ,1.51437 ,0.44931 ,4.40860 
303 ,62.2245 ,1.51631 ,0.41166 ,4.03924 
304 ,62.4326 ,1.51837 ,0.42535 ,4.17355 
305 ,62.6408 ,1.52045 ,0.38086 ,3.73703 
306 ,62.8486 ,1.52252 ,0.38086 ,3.73703 
307 ,63.0569 ,1.52462 ,0.36718 ,3.60272 
308 ,63.2647 ,1.52664 ,0.35006 ,3.43483 
309 ,63.4571 ,1.52858 ,0.35691 ,3.50199 
310 ,63.6648 ,1.53070 ,0.33295 ,3.26694 
311 ,63.8414 ,1.53256 ,0.34322 ,3.36767 
312 ,64.0169 ,1.53431 ,0.31926 ,3.13263 
313 ,64.2091 ,1.53619 ,0.31584 ,3.09905 
314 ,64.4174 ,1.53820 ,0.29873 ,2.93116 
315 ,64.6095 ,1.54014 ,0.28847 ,2.83042 
316 ,64.8174 ,1.54212 ,0.27820 ,2.72969 
317 ,65.0097 ,1.54411 ,0.26451 ,2.59537 
318 ,65.2335 ,1.54636 ,0.24740 ,2.42748 
319 ,65.4420 ,1.54842 ,0.23713 ,2.32675 
320 ,65.6340 ,1.55040 ,0.24055 ,2.36032 
321 ,65.8740 ,1.55259 ,0.20291 ,1.99096 
322 ,66.0980 ,1.55498 ,0.20291 ,1.99096 
323 ,66.3063 ,1.55705 ,0.19949 ,1.95738 
324 ,66.5144 ,1.55919 ,0.19949 ,1.95738 
325 ,66.7223 ,1.56123 ,0.17211 ,1.68876 
326 ,66.9305 ,1.56332 ,0.16527 ,1.62160 
327 ,67.1065 ,1.56525 ,0.13789 ,1.35298 
328 ,67.2984 ,1.56697 ,0.12762 ,1.25224 
329 ,67.4907 ,1.56896 ,0.14473 ,1.42013 
330 ,67.6988 ,1.57098 ,0.11736 ,1.15151 
331 ,67.8909 ,1.57294 ,0.12762 ,1.25224 
332 ,68.0989 ,1.57501 ,0.10025 ,0.98361 
333 ,68.2909 ,1.57693 ,0.10709 ,1.05077 
334 ,68.5153 ,1.57910 ,0.08656 ,0.84930 
335 ,68.7712 ,1.58152 ,0.03865 ,0.37920 
336 ,68.9635 ,1.58368 ,0.03865 ,0.37920 
337 ,69.1713 ,1.58569 ,0.05234 ,0.51352 
338 ,69.3635 ,1.58769 ,0.01811 ,0.17773 
339 ,69.5556 ,1.58961 ,0.02154 ,0.21131 
340 ,69.7637 ,1.59161 ,0.00443 ,0.04342 
341 ,69.9559 ,1.59356 ,0.00785 ,0.07700 
342 ,70.1639 ,1.59570 ,-0.01611 ,-0.15805 
343 ,70.3561 ,1.59755 ,-0.01953 ,-0.19163 
344 ,70.5637 ,1.59958 ,-0.01953 ,-0.19163 
345 ,70.7563 ,1.60159 ,-0.04691 ,-0.46025 
346 ,70.9642 ,1.60368 ,-0.05717 ,-0.56099 
347 ,71.1724 ,1.60576 ,-0.05375 ,-0.52741 
348 ,71.3803 ,1.60780 ,-0.06744 ,-0.66172 
349 ,71.5885 ,1.60987 ,-0.07086 ,-0.69530 
350 ,71.7967 ,1.61193 ,-0.10508 ,-1.03108 
351 ,72.0047 ,1.61407 ,-0.09482 ,-0.93035 
352 ,72.2128 ,1.61611 ,-0.09140 ,-0.89677 
353 ,72.4208 ,1.61815 ,-0.11877 ,-1.16540 
354 ,72.6130 ,1.62013 ,-0.12219 ,-1.19898 
355 ,72.8046 ,1.62206 ,-0.14273 ,-1.40045 
356 ,73.0290 ,1.62427 ,-0.13588 ,-1.33329 
357 ,73.2367 ,1.62634 ,-0.16326 ,-1.60191 
358 ,73.4291 ,1.62825 ,-0.15642 ,-1.53476 
359 ,73.6213 ,1.63017 ,-0.19064 ,-1.87054 
360 ,73.8291 ,1.63223 ,-0.18037 ,-1.76981 
361 ,74.0373 ,1.63440 ,-0.20775 ,-2.03843 
362 ,74.2292 ,1.63638 ,-0.21459 ,-2.10559 
363 ,74.4056 ,1.63816 ,-0.23170 ,-2.27348 
364 ,74.5973 ,1.63993 ,-0.23855 ,-2.34064 
365 ,74.7895 ,1.64185 ,-0.23855 ,-2.34064 
366 ,74.9814 ,1.64379 ,-0.25908 ,-2.54211 
367 ,75.1895 ,1.64592 ,-0.23170 ,-2.27348 
368 ,75.3976 ,1.64791 ,-0.27277 ,-2.67642 
369 ,75.6219 ,1.65006 ,-0.26935 ,-2.64284 
370 ,75.8302 ,1.65229 ,-0.27619 ,-2.71000 
371 ,76.0217 ,1.65422 ,-0.30015 ,-2.94505 
372 ,76.2300 ,1.65624 ,-0.29330 ,-2.87789 
373 ,76.4384 ,1.65838 ,-0.32752 ,-3.21367 
374 ,76.6304 ,1.66030 ,-0.31726 ,-3.11294 
375 ,76.8224 ,1.66221 ,-0.34464 ,-3.38156 
376 ,77.0305 ,1.66434 ,-0.32752 ,-3.21367 
377 ,77.2546 ,1.66645 ,-0.36517 ,-3.58303 
378 ,77.4628 ,1.66860 ,-0.36859 ,-3.61661 
379 ,77.6710 ,1.67072 ,-0.36517 ,-3.58303 
380 ,77.8951 ,1.67279 ,-0.38912 ,-3.81808 
381 ,78.0871 ,1.67497 ,-0.39255 ,-3.85166 
382 ,78.2627 ,1.67671 ,-0.41308 ,-4.05313 
383 ,78.4553 ,1.67852 ,-0.41308 ,-4.05313 
384 ,78.6473 ,1.68047 ,-0.40623 ,-3.98597 
385 ,78.8548 ,1.68254 ,-0.44388 ,-4.35534 
386 ,79.0630 ,1.68457 ,-0.43703 ,-4.28818 
387 ,79.2713 ,1.68668 ,-0.44730 ,-4.38891 
388 ,79.5437 ,1.68929 ,-0.45757 ,-4.48965 
389 ,79.7677 ,1.69162 ,-0.46441 ,-4.55681 
390 ,79.9597 ,1.69358 ,-0.49863 ,-4.89259 
391 ,80.1359 ,1.69546 ,-0.49179 ,-4.82543 
392 ,80.3278 ,1.69719 ,-0.50206 ,-4.92617 
393 ,80.5521 ,1.69944 ,-0.51574 ,-5.06048 
394 ,80.7597 ,1.70157 ,-0.53970 ,-5.29553 
395 ,80.9680 ,1.70365 ,-0.52943 ,-5.19479 
396 ,81.1603 ,1.70560 ,-0.54997 ,-5.39626 
397 ,81.3684 ,1.70766 ,-0.53285 ,-5.22837 
398 ,81.5600 ,1.70963 ,-0.58077 ,-5.69847 
399 ,81.7685 ,1.71164 ,-0.57050 ,-5.59773 
400 ,81.9767 ,1.71369 ,-0.60130 ,-5.89994 
401 ,82.1845 ,1.71586 ,-0.58761 ,-5.76562 
402 ,82.3924 ,1.71792 ,-0.59788 ,-5.86636 
403 ,82.5848 ,1.71981 ,-0.60814 ,-5.96709 
404 ,82.8251 ,1.72209 ,-0.60814 ,-5.96709 
405 ,83.0329 ,1.72429 ,-0.63210 ,-6.20214 
406 ,83.2249 ,1.72624 ,-0.63210 ,-6.20214 
407 ,83.4331 ,1.72822 ,-0.65605 ,-6.43719 
408 ,83.6414 ,1.73040 ,-0.66974 ,-6.57150 
409 ,83.8496 ,1.73242 ,-0.66632 ,-6.53793 
410 ,84.0894 ,1.73483 ,-0.66974 ,-6.57150 
411 ,84.2973 ,1.73693 ,-0.69370 ,-6.80655 
412 ,84.5055 ,1.73897 ,-0.69027 ,-6.77297 
413 ,84.6978 ,1.74096 ,-0.72107 ,-7.07518 
414 ,84.9057 ,1.74302 ,-0.71081 ,-6.97444 
415 ,85.1140 ,1.74506 ,-0.72107 ,-7.07518 
416 ,85.3221 ,1.74713 ,-0.73818 ,-7.24307 
417 ,85.5301 ,1.74917 ,-0.73134 ,-7.17591 
418 ,85.7222 ,1.75120 ,-0.76898 ,-7.54527 
419 ,85.9138 ,1.75322 ,-0.75187 ,-7.37738 
420 ,86.1383 ,1.75519 ,-0.77925 ,-7.64601 
421 ,86.3625 ,1.75748 ,-0.76556 ,-7.51170 
422 ,86.5705 ,1.75961 ,-0.77925 ,-7.64601 
423 ,86.7623 ,1.76160 ,-0.80321 ,-7.88106 
424 ,86.9705 ,1.76361 ,-0.79978 ,-7.84748 
425 ,87.2106 ,1.76593 ,-0.83058 ,-8.14968 
426 ,87.4186 ,1.76810 ,-0.83743 ,-8.21684 
427 ,87.6269 ,1.77017 ,-0.83743 ,-8.21684 
428 ,87.8350 ,1.77230 ,-0.85454 ,-8.38473 
429 ,88.0432 ,1.77434 ,-0.85454 ,-8.38473 
430 ,88.2509 ,1.77637 ,-0.87507 ,-8.58620 
431 ,88.4435 ,1.77841 ,-0.88192 ,-8.65336 
432 ,88.6674 ,1.78056 ,-0.86823 ,-8.51904 
433 ,88.8595 ,1.78252 ,-0.90929 ,-8.92198 
434 ,89.0673 ,1.78456 ,-0.88876 ,-8.72051 
435 ,89.2757 ,1.78666 ,-0.93325 ,-9.15703 
436 ,89.5155 ,1.78898 ,-0.91956 ,-9.02272 
437 ,89.7399 ,1.79128 ,-0.92983 ,-9.12345 
438 ,89.9481 ,1.79339 ,-0.94009 ,-9.22419 
439 ,90.1561 ,1.79550 ,-0.96747 ,-9.49282 
440 ,90.3641 ,1.79753 ,-0.95720 ,-9.39208 
441 ,90.5561 ,1.79945 ,-0.98458 ,-9.66071 
442 ,90.7490 ,1.80141 ,-0.96405 ,-9.45924 
443 ,90.9398 ,1.80333 ,-1.00511 ,-9.86218 
444 ,91.1478 ,1.80540 ,-0.99143 ,-9.72786 
445 ,91.3559 ,1.80743 ,-1.01538 ,-9.96291 
446 ,91.5640 ,1.80954 ,-1.00169 ,-9.82860 
447 ,91.7561 ,1.81144 ,-1.03591 ,-10.16438 
448 ,91.9321 ,1.81340 ,-1.02565 ,-10.06365 
449 ,92.1403 ,1.81528 ,-1.02222 ,-10.03007 
450 ,92.3484 ,1.81740 ,-1.02907 ,-10.09723 
451 ,92.5564 ,1.81941 ,-1.06329 ,-10.43301 
452 ,92.7645 ,1.82154 ,-1.04960 ,-10.29869 
453 ,92.9886 ,1.82387 ,-1.05645 ,-10.36585 
454 ,93.1811 ,1.82576 ,-1.08725 ,-10.66806 
455 ,93.3892 ,1.82783 ,-1.07698 ,-10.56732 
456 ,93.5970 ,1.82987 ,-1.11120 ,-10.90310 
457 ,93.8055 ,1.83197 ,-1.09751 ,-10.76879 
458 ,94.0293 ,1.83414 ,-1.12147 ,-11.00384 
459 ,94.2216 ,1.83610 ,-1.10778 ,-10.86953 
460 ,94.4136 ,1.83817 ,-1.12831 ,-11.07100 
461 ,94.6057 ,1.83997 ,-1.12147 ,-11.00384 
462 ,94.7979 ,1.84186 ,-1.14200 ,-11.20531 
