Data stamp = , 02-05-2022 16:02:03 550

Calibration Values: 
Slope = , 26.54 , g/V 
Offset Voltage at no contact = , -0.501760 , V 

No , Time , Stage Position ,   Mass , Force 
   ,  (s) ,      (mm)      ,   (g)  , (mN)  

1 ,0.0000 ,0.94942 ,4.90497 ,48.12755 
2 ,0.2136 ,0.94945 ,4.89812 ,48.06039 
3 ,0.7899 ,0.95175 ,4.90497 ,48.12755 
4 ,1.0304 ,0.95429 ,4.90155 ,48.09397 
5 ,1.3505 ,0.95702 ,4.91181 ,48.19471 
6 ,1.5581 ,0.95971 ,4.89812 ,48.06039 
7 ,1.7507 ,0.96162 ,4.86048 ,47.69103 
8 ,1.9746 ,0.96385 ,4.85364 ,47.62387 
9 ,2.1668 ,0.96579 ,4.84337 ,47.52314 
10 ,2.3590 ,0.96772 ,4.81257 ,47.22093 
11 ,2.5509 ,0.96967 ,4.79888 ,47.08662 
12 ,2.7428 ,0.97156 ,4.78177 ,46.91873 
13 ,2.9506 ,0.97368 ,4.75439 ,46.65010 
14 ,3.1587 ,0.97570 ,4.74070 ,46.51579 
15 ,3.3670 ,0.97782 ,4.72017 ,46.31432 
16 ,3.5752 ,0.97996 ,4.70306 ,46.14643 
17 ,3.7994 ,0.98209 ,4.67568 ,45.87780 
18 ,3.9915 ,0.98403 ,4.64488 ,45.57560 
19 ,4.1834 ,0.98595 ,4.64146 ,45.54202 
20 ,4.3755 ,0.98789 ,4.60040 ,45.13908 
21 ,4.5678 ,0.98983 ,4.59355 ,45.07192 
22 ,4.7599 ,0.99176 ,4.57986 ,44.93761 
23 ,4.9679 ,0.99378 ,4.56275 ,44.76972 
24 ,5.1599 ,0.99570 ,4.54222 ,44.56825 
25 ,5.3680 ,0.99776 ,4.52853 ,44.43394 
26 ,5.5760 ,0.99980 ,4.50115 ,44.16531 
27 ,5.7842 ,1.00198 ,4.48746 ,44.03100 
28 ,6.0084 ,1.00420 ,4.44982 ,43.66163 
29 ,6.2002 ,1.00612 ,4.43271 ,43.49374 
30 ,6.4244 ,1.00822 ,4.41218 ,43.29227 
31 ,6.6326 ,1.01045 ,4.38822 ,43.05723 
32 ,6.8244 ,1.01233 ,4.38480 ,43.02365 
33 ,7.0168 ,1.01434 ,4.35058 ,42.68786 
34 ,7.2407 ,1.01646 ,4.34716 ,42.65429 
35 ,7.4489 ,1.01861 ,4.33004 ,42.48639 
36 ,7.6411 ,1.02051 ,4.29240 ,42.11703 
37 ,7.8486 ,1.02261 ,4.28556 ,42.04988 
38 ,8.0412 ,1.02453 ,4.25476 ,41.74767 
39 ,8.2494 ,1.02663 ,4.24791 ,41.68051 
40 ,8.4413 ,1.02857 ,4.22396 ,41.44547 
41 ,8.6495 ,1.03064 ,4.22053 ,41.41189 
42 ,8.8573 ,1.03265 ,4.17262 ,40.94179 
43 ,9.0656 ,1.03476 ,4.17262 ,40.94179 
44 ,9.2896 ,1.03702 ,4.15551 ,40.77390 
45 ,9.5137 ,1.03925 ,4.10760 ,40.30380 
46 ,9.7057 ,1.04118 ,4.11103 ,40.33738 
47 ,9.9140 ,1.04323 ,4.09391 ,40.16949 
48 ,10.1060 ,1.04518 ,4.08365 ,40.06876 
49 ,10.3461 ,1.04763 ,4.05627 ,39.80013 
50 ,10.5542 ,1.04967 ,4.01863 ,39.43077 
51 ,10.7619 ,1.05174 ,4.01178 ,39.36361 
52 ,10.9543 ,1.05368 ,3.98783 ,39.12856 
53 ,11.1622 ,1.05574 ,3.96387 ,38.89352 
54 ,11.3545 ,1.05762 ,3.95018 ,38.75920 
55 ,11.5466 ,1.05956 ,3.93992 ,38.65847 
56 ,11.7545 ,1.06167 ,3.90912 ,38.35626 
57 ,11.9467 ,1.06358 ,3.90912 ,38.35626 
58 ,12.1384 ,1.06547 ,3.87832 ,38.05406 
59 ,12.3307 ,1.06746 ,3.87490 ,38.02048 
60 ,12.5390 ,1.06947 ,3.83383 ,37.61754 
61 ,12.7307 ,1.07143 ,3.84067 ,37.68470 
62 ,12.9390 ,1.07346 ,3.80303 ,37.31534 
63 ,13.1310 ,1.07541 ,3.80303 ,37.31534 
64 ,13.3711 ,1.07778 ,3.76881 ,36.97955 
65 ,13.5952 ,1.07996 ,3.74143 ,36.71093 
66 ,13.7875 ,1.08196 ,3.74143 ,36.71093 
67 ,13.9954 ,1.08403 ,3.70721 ,36.37514 
68 ,14.1876 ,1.08600 ,3.71405 ,36.44230 
69 ,14.3793 ,1.08792 ,3.69010 ,36.20725 
70 ,14.5877 ,1.08995 ,3.67983 ,36.10652 
71 ,14.7797 ,1.09190 ,3.63192 ,35.63642 
72 ,14.9719 ,1.09381 ,3.62850 ,35.60284 
73 ,15.1800 ,1.09591 ,3.62508 ,35.56926 
74 ,15.3721 ,1.09782 ,3.60797 ,35.40137 
75 ,15.5800 ,1.09990 ,3.57375 ,35.06559 
76 ,15.7721 ,1.10182 ,3.57032 ,35.03201 
77 ,15.9643 ,1.10372 ,3.54979 ,34.83054 
78 ,16.1720 ,1.10582 ,3.53268 ,34.66265 
79 ,16.3644 ,1.10774 ,3.51215 ,34.46118 
80 ,16.5722 ,1.10984 ,3.50188 ,34.36045 
81 ,16.7966 ,1.11191 ,3.47792 ,34.12540 
82 ,17.0047 ,1.11410 ,3.46424 ,33.99108 
83 ,17.1969 ,1.11607 ,3.44370 ,33.78961 
84 ,17.4044 ,1.11812 ,3.42659 ,33.62172 
85 ,17.5969 ,1.12006 ,3.40264 ,33.38667 
86 ,17.7889 ,1.12197 ,3.39237 ,33.28594 
87 ,17.9971 ,1.12408 ,3.37184 ,33.08447 
88 ,18.1892 ,1.12602 ,3.36842 ,33.05089 
89 ,18.3973 ,1.12805 ,3.35130 ,32.88300 
90 ,18.6214 ,1.13032 ,3.32051 ,32.58080 
91 ,18.8130 ,1.13221 ,3.31708 ,32.54722 
92 ,19.0216 ,1.13426 ,3.28971 ,32.27859 
93 ,19.2296 ,1.13638 ,3.28286 ,32.21143 
94 ,19.4218 ,1.13831 ,3.25206 ,31.90923 
95 ,19.6297 ,1.14035 ,3.24522 ,31.84207 
96 ,19.8221 ,1.14234 ,3.22126 ,31.60702 
97 ,20.0137 ,1.14421 ,3.21442 ,31.53987 
98 ,20.2060 ,1.14612 ,3.19731 ,31.37198 
99 ,20.3981 ,1.14806 ,3.17677 ,31.17051 
100 ,20.6061 ,1.15014 ,3.16651 ,31.06977 
101 ,20.7981 ,1.15205 ,3.13229 ,30.73399 
102 ,20.9900 ,1.15393 ,3.13571 ,30.76757 
103 ,21.1984 ,1.15603 ,3.10491 ,30.46536 
104 ,21.4066 ,1.15813 ,3.09806 ,30.39821 
105 ,21.5985 ,1.16005 ,3.07411 ,30.16316 
106 ,21.7906 ,1.16198 ,3.07069 ,30.12958 
107 ,21.9985 ,1.16403 ,3.02962 ,29.72664 
108 ,22.1904 ,1.16599 ,3.04673 ,29.89453 
109 ,22.3988 ,1.16809 ,3.00909 ,29.52517 
110 ,22.6071 ,1.17017 ,3.00224 ,29.45801 
111 ,22.8151 ,1.17214 ,2.97487 ,29.18939 
112 ,23.0230 ,1.17425 ,2.96802 ,29.12223 
113 ,23.2148 ,1.17620 ,2.94407 ,28.88718 
114 ,23.4073 ,1.17817 ,2.92353 ,28.68571 
115 ,23.6155 ,1.18023 ,2.91327 ,28.58498 
116 ,23.8075 ,1.18218 ,2.90300 ,28.48424 
117 ,23.9996 ,1.18406 ,2.86878 ,28.14846 
118 ,24.1915 ,1.18594 ,2.86878 ,28.14846 
119 ,24.3674 ,1.18785 ,2.85509 ,28.01415 
120 ,24.5596 ,1.18961 ,2.82771 ,27.74552 
121 ,24.7679 ,1.19164 ,2.82429 ,27.71194 
122 ,24.9759 ,1.19384 ,2.78322 ,27.30900 
123 ,25.1676 ,1.19575 ,2.79349 ,27.40974 
124 ,25.4077 ,1.19802 ,2.76269 ,27.10753 
125 ,25.6160 ,1.20021 ,2.75243 ,27.00680 
126 ,25.8082 ,1.20215 ,2.74900 ,26.97322 
127 ,26.0003 ,1.20407 ,2.72163 ,26.70459 
128 ,26.2082 ,1.20614 ,2.71478 ,26.63744 
129 ,26.4005 ,1.20807 ,2.68398 ,26.33523 
130 ,26.6085 ,1.21012 ,2.67714 ,26.26807 
131 ,26.8167 ,1.21213 ,2.63949 ,25.89871 
132 ,27.0086 ,1.21417 ,2.65318 ,26.03303 
133 ,27.2006 ,1.21607 ,2.62581 ,25.76440 
134 ,27.3926 ,1.21795 ,2.60527 ,25.56293 
135 ,27.5845 ,1.21990 ,2.59158 ,25.42862 
136 ,27.7769 ,1.22185 ,2.56763 ,25.19357 
137 ,27.9850 ,1.22392 ,2.57447 ,25.26073 
138 ,28.1928 ,1.22586 ,2.55052 ,25.02568 
139 ,28.3853 ,1.22790 ,2.52656 ,24.79063 
140 ,28.5772 ,1.22980 ,2.52656 ,24.79063 
141 ,28.7849 ,1.23188 ,2.50945 ,24.62274 
142 ,28.9774 ,1.23382 ,2.47523 ,24.28696 
143 ,29.1695 ,1.23575 ,2.48892 ,24.42127 
144 ,29.3618 ,1.23764 ,2.45127 ,24.05191 
145 ,29.5697 ,1.23970 ,2.45127 ,24.05191 
146 ,29.7619 ,1.24166 ,2.41363 ,23.68255 
147 ,29.9378 ,1.24356 ,2.41363 ,23.68255 
148 ,30.1296 ,1.24532 ,2.41705 ,23.71612 
149 ,30.3221 ,1.24727 ,2.38283 ,23.38034 
150 ,30.5462 ,1.24933 ,2.37599 ,23.31318 
151 ,30.7383 ,1.25140 ,2.35545 ,23.11171 
152 ,30.9458 ,1.25348 ,2.34177 ,22.97740 
153 ,31.1544 ,1.25558 ,2.33492 ,22.91024 
154 ,31.3785 ,1.25773 ,2.29385 ,22.50731 
155 ,31.5705 ,1.25977 ,2.29728 ,22.54088 
156 ,31.7626 ,1.26160 ,2.26648 ,22.23868 
157 ,31.9546 ,1.26354 ,2.27332 ,22.30584 
158 ,32.1468 ,1.26551 ,2.23226 ,21.90290 
159 ,32.3389 ,1.26742 ,2.22199 ,21.80216 
160 ,32.5470 ,1.26944 ,2.21857 ,21.76858 
161 ,32.7390 ,1.27140 ,2.19461 ,21.53353 
162 ,32.9311 ,1.27331 ,2.20146 ,21.60069 
163 ,33.1388 ,1.27541 ,2.17066 ,21.29849 
164 ,33.3314 ,1.27739 ,2.16039 ,21.19775 
165 ,33.5394 ,1.27940 ,2.14328 ,21.02986 
166 ,33.7315 ,1.28132 ,2.13986 ,20.99628 
167 ,33.9237 ,1.28331 ,2.10906 ,20.69408 
168 ,34.0996 ,1.28514 ,2.09879 ,20.59334 
169 ,34.2912 ,1.28696 ,2.09537 ,20.55976 
170 ,34.4998 ,1.28890 ,2.07484 ,20.35829 
171 ,34.7078 ,1.29107 ,2.04746 ,20.08967 
172 ,34.9159 ,1.29309 ,2.03719 ,19.98893 
173 ,35.1238 ,1.29526 ,2.03035 ,19.92178 
174 ,35.3158 ,1.29718 ,2.01324 ,19.75388 
175 ,35.5241 ,1.29916 ,1.97902 ,19.41810 
176 ,35.7321 ,1.30135 ,1.99613 ,19.58599 
177 ,35.9244 ,1.30326 ,1.96533 ,19.28379 
178 ,36.1321 ,1.30530 ,1.96190 ,19.25021 
179 ,36.3246 ,1.30738 ,1.93795 ,19.01516 
180 ,36.5327 ,1.30932 ,1.93111 ,18.94801 
181 ,36.7406 ,1.31139 ,1.90373 ,18.67938 
182 ,36.9486 ,1.31353 ,1.89346 ,18.57864 
183 ,37.1408 ,1.31540 ,1.86951 ,18.34360 
184 ,37.3649 ,1.31757 ,1.85924 ,18.24286 
185 ,37.5566 ,1.31958 ,1.85582 ,18.20928 
186 ,37.7810 ,1.32181 ,1.81475 ,17.80634 
187 ,37.9891 ,1.32393 ,1.81133 ,17.77276 
188 ,38.1971 ,1.32587 ,1.79422 ,17.60487 
189 ,38.3893 ,1.32791 ,1.79422 ,17.60487 
190 ,38.5810 ,1.32983 ,1.76684 ,17.33625 
191 ,38.7894 ,1.33187 ,1.76000 ,17.26909 
192 ,38.9973 ,1.33400 ,1.74289 ,17.10120 
193 ,39.1896 ,1.33589 ,1.72578 ,16.93331 
194 ,39.3976 ,1.33799 ,1.70866 ,16.76542 
195 ,39.5897 ,1.33989 ,1.70182 ,16.69826 
196 ,39.7817 ,1.34178 ,1.68471 ,16.53037 
197 ,39.9737 ,1.34376 ,1.68471 ,16.53037 
198 ,40.1819 ,1.34585 ,1.66075 ,16.29532 
199 ,40.3740 ,1.34776 ,1.66075 ,16.29532 
200 ,40.5822 ,1.34984 ,1.62311 ,15.92596 
201 ,40.7741 ,1.35175 ,1.61969 ,15.89238 
202 ,40.9822 ,1.35378 ,1.58547 ,15.55660 
203 ,41.1903 ,1.35589 ,1.58204 ,15.52302 
204 ,41.3824 ,1.35786 ,1.56836 ,15.38871 
205 ,41.5905 ,1.35990 ,1.56151 ,15.32155 
206 ,41.7826 ,1.36179 ,1.54440 ,15.15366 
207 ,41.9906 ,1.36394 ,1.53413 ,15.05292 
208 ,42.1987 ,1.36595 ,1.51702 ,14.88503 
209 ,42.3909 ,1.36793 ,1.50676 ,14.78430 
210 ,42.5990 ,1.37000 ,1.48965 ,14.61640 
211 ,42.7910 ,1.37194 ,1.46911 ,14.41493 
212 ,42.9987 ,1.37395 ,1.46569 ,14.38136 
213 ,43.2548 ,1.37628 ,1.45200 ,14.24704 
214 ,43.4474 ,1.37848 ,1.43831 ,14.11273 
215 ,43.6554 ,1.38060 ,1.42462 ,13.97842 
216 ,43.8631 ,1.38262 ,1.38698 ,13.60906 
217 ,44.0555 ,1.38453 ,1.40409 ,13.77695 
218 ,44.2634 ,1.38653 ,1.37329 ,13.47474 
219 ,44.4716 ,1.38867 ,1.35960 ,13.34043 
220 ,44.6636 ,1.39060 ,1.33565 ,13.10538 
221 ,44.8558 ,1.39255 ,1.32880 ,13.03822 
222 ,45.0480 ,1.39450 ,1.31512 ,12.90391 
223 ,45.2396 ,1.39638 ,1.31512 ,12.90391 
224 ,45.4321 ,1.39834 ,1.28089 ,12.56813 
225 ,45.6401 ,1.40038 ,1.28432 ,12.60171 
226 ,45.8320 ,1.40226 ,1.27405 ,12.50097 
227 ,46.0403 ,1.40433 ,1.25694 ,12.33308 
228 ,46.2640 ,1.40642 ,1.24667 ,12.23235 
229 ,46.4565 ,1.40852 ,1.23641 ,12.13161 
230 ,46.6486 ,1.41043 ,1.22614 ,12.03088 
231 ,46.8406 ,1.41239 ,1.19876 ,11.76225 
232 ,47.0327 ,1.41431 ,1.19534 ,11.72867 
233 ,47.2408 ,1.41639 ,1.18165 ,11.59436 
234 ,47.4485 ,1.41844 ,1.14401 ,11.22500 
235 ,47.6409 ,1.42040 ,1.14743 ,11.25857 
236 ,47.8489 ,1.42244 ,1.12347 ,11.02353 
237 ,48.0411 ,1.42440 ,1.13032 ,11.09068 
238 ,48.2330 ,1.42628 ,1.12690 ,11.05710 
239 ,48.4255 ,1.42822 ,1.09267 ,10.72132 
240 ,48.6171 ,1.43014 ,1.08583 ,10.65416 
241 ,48.8257 ,1.43225 ,1.06187 ,10.41912 
242 ,49.0334 ,1.43428 ,1.06872 ,10.48627 
243 ,49.2252 ,1.43622 ,1.02765 ,10.08333 
244 ,49.4179 ,1.43817 ,1.03450 ,10.15049 
245 ,49.6414 ,1.44039 ,1.02081 ,10.01618 
246 ,49.8339 ,1.44227 ,1.01739 ,9.98260 
247 ,50.0416 ,1.44429 ,0.99343 ,9.74755 
248 ,50.2340 ,1.44625 ,0.99001 ,9.71397 
249 ,50.4262 ,1.44823 ,0.96605 ,9.47892 
250 ,50.6343 ,1.45031 ,0.95579 ,9.37819 
251 ,50.8423 ,1.45241 ,0.93525 ,9.17672 
252 ,51.0505 ,1.45444 ,0.93868 ,9.21030 
253 ,51.2586 ,1.45654 ,0.91472 ,8.97525 
254 ,51.4506 ,1.45847 ,0.90103 ,8.84094 
255 ,51.6426 ,1.46037 ,0.89419 ,8.77378 
256 ,51.8504 ,1.46250 ,0.88392 ,8.67305 
257 ,52.0429 ,1.46438 ,0.87366 ,8.57231 
258 ,52.2509 ,1.46645 ,0.85312 ,8.37084 
259 ,52.4430 ,1.46834 ,0.84286 ,8.27011 
260 ,52.6351 ,1.47035 ,0.83259 ,8.16937 
261 ,52.8271 ,1.47223 ,0.80863 ,7.93432 
262 ,53.0193 ,1.47423 ,0.81548 ,8.00148 
263 ,53.2113 ,1.47607 ,0.80179 ,7.86717 
264 ,53.4034 ,1.47801 ,0.78126 ,7.66570 
265 ,53.5955 ,1.47987 ,0.78126 ,7.66570 
266 ,53.7875 ,1.48182 ,0.74361 ,7.29633 
267 ,53.9797 ,1.48376 ,0.75730 ,7.43065 
268 ,54.1878 ,1.48580 ,0.73335 ,7.19560 
269 ,54.3798 ,1.48789 ,0.72308 ,7.09486 
270 ,54.5878 ,1.48980 ,0.71281 ,6.99413 
271 ,54.7799 ,1.49174 ,0.71281 ,6.99413 
272 ,54.9720 ,1.49369 ,0.70255 ,6.89340 
273 ,55.1637 ,1.49553 ,0.67517 ,6.62477 
274 ,55.3723 ,1.49760 ,0.66833 ,6.55761 
275 ,55.5800 ,1.49980 ,0.64779 ,6.35614 
276 ,55.7884 ,1.50182 ,0.63068 ,6.18825 
277 ,55.9805 ,1.50373 ,0.63410 ,6.22183 
278 ,56.1885 ,1.50582 ,0.61357 ,6.02036 
279 ,56.4124 ,1.50789 ,0.59646 ,5.85247 
280 ,56.6043 ,1.51007 ,0.57593 ,5.65100 
281 ,56.7804 ,1.51184 ,0.60673 ,5.95320 
282 ,56.9890 ,1.51370 ,0.56908 ,5.58384 
283 ,57.1966 ,1.51590 ,0.57593 ,5.65100 
284 ,57.3887 ,1.51786 ,0.53486 ,5.24806 
285 ,57.5971 ,1.51987 ,0.53828 ,5.28164 
286 ,57.8051 ,1.52198 ,0.50406 ,4.94585 
287 ,57.9973 ,1.52392 ,0.51775 ,5.08017 
288 ,58.2053 ,1.52596 ,0.49380 ,4.84512 
289 ,58.3975 ,1.52790 ,0.49722 ,4.87870 
290 ,58.6056 ,1.53000 ,0.46984 ,4.61007 
291 ,58.8136 ,1.53210 ,0.47668 ,4.67723 
292 ,59.0058 ,1.53400 ,0.44246 ,4.34144 
293 ,59.1979 ,1.53590 ,0.45957 ,4.50934 
294 ,59.3897 ,1.53781 ,0.41509 ,4.07282 
295 ,59.5975 ,1.53991 ,0.42877 ,4.20713 
296 ,59.7900 ,1.54182 ,0.40140 ,3.93850 
297 ,60.0143 ,1.54386 ,0.39455 ,3.87135 
298 ,60.2219 ,1.54619 ,0.38429 ,3.77061 
299 ,60.4152 ,1.54807 ,0.37402 ,3.66988 
300 ,60.6227 ,1.55015 ,0.35006 ,3.43483 
301 ,60.8306 ,1.55220 ,0.35006 ,3.43483 
302 ,61.0387 ,1.55434 ,0.34664 ,3.40125 
303 ,61.2463 ,1.55635 ,0.32611 ,3.19978 
304 ,61.4389 ,1.55832 ,0.32611 ,3.19978 
305 ,61.6309 ,1.56024 ,0.29531 ,2.89758 
306 ,61.8231 ,1.56216 ,0.29873 ,2.93116 
307 ,62.0310 ,1.56423 ,0.28162 ,2.76326 
308 ,62.2390 ,1.56629 ,0.27478 ,2.69611 
309 ,62.4472 ,1.56839 ,0.26109 ,2.56179 
310 ,62.6393 ,1.57034 ,0.26451 ,2.59537 
311 ,62.8470 ,1.57238 ,0.23713 ,2.32675 
312 ,63.0555 ,1.57441 ,0.24055 ,2.36032 
313 ,63.2476 ,1.57639 ,0.21660 ,2.12528 
314 ,63.4711 ,1.57853 ,0.21318 ,2.09170 
315 ,63.6791 ,1.58065 ,0.19607 ,1.92381 
316 ,63.8879 ,1.58275 ,0.17896 ,1.75592 
317 ,64.1280 ,1.58521 ,0.17553 ,1.72234 
318 ,64.3360 ,1.58728 ,0.16527 ,1.62160 
319 ,64.5440 ,1.58935 ,0.14473 ,1.42013 
320 ,64.7520 ,1.59142 ,0.13105 ,1.28582 
321 ,64.9441 ,1.59331 ,0.12078 ,1.18508 
322 ,65.1360 ,1.59527 ,0.11736 ,1.15151 
323 ,65.3443 ,1.59729 ,0.09682 ,0.95004 
324 ,65.5203 ,1.59919 ,0.10025 ,0.98361 
325 ,65.7125 ,1.60105 ,0.10025 ,0.98361 
326 ,65.9046 ,1.60292 ,0.06945 ,0.68141 
327 ,66.0967 ,1.60486 ,0.07971 ,0.78214 
328 ,66.3206 ,1.60707 ,0.04891 ,0.47994 
329 ,66.5289 ,1.60916 ,0.04207 ,0.41278 
330 ,66.7369 ,1.61124 ,0.04891 ,0.47994 
331 ,66.9291 ,1.61319 ,0.01469 ,0.14416 
332 ,67.1370 ,1.61525 ,0.02838 ,0.27847 
333 ,67.3288 ,1.61717 ,0.00443 ,0.04342 
334 ,67.5211 ,1.61908 ,-0.01953 ,-0.19163 
335 ,67.7134 ,1.62106 ,-0.01953 ,-0.19163 
336 ,67.9053 ,1.62294 ,-0.03322 ,-0.32594 
337 ,68.0974 ,1.62493 ,-0.02637 ,-0.25878 
338 ,68.3054 ,1.62694 ,-0.05717 ,-0.56099 
339 ,68.4974 ,1.62886 ,-0.04691 ,-0.46025 
340 ,68.7055 ,1.63095 ,-0.07086 ,-0.69530 
341 ,68.9137 ,1.63303 ,-0.06402 ,-0.62814 
342 ,69.1220 ,1.63500 ,-0.08797 ,-0.86319 
343 ,69.3618 ,1.63752 ,-0.10508 ,-1.03108 
344 ,69.5541 ,1.63939 ,-0.09824 ,-0.96393 
345 ,69.7620 ,1.64151 ,-0.12562 ,-1.23255 
346 ,69.9704 ,1.64358 ,-0.13246 ,-1.29971 
347 ,70.1624 ,1.64552 ,-0.14615 ,-1.43402 
348 ,70.3545 ,1.64740 ,-0.13246 ,-1.29971 
349 ,70.5622 ,1.64949 ,-0.15642 ,-1.53476 
350 ,70.7702 ,1.65153 ,-0.16668 ,-1.63549 
351 ,70.9623 ,1.65352 ,-0.18037 ,-1.76981 
352 ,71.1544 ,1.65542 ,-0.17695 ,-1.73623 
353 ,71.3465 ,1.65731 ,-0.19748 ,-1.93770 
354 ,71.5386 ,1.65924 ,-0.19406 ,-1.90412 
355 ,71.7305 ,1.66116 ,-0.21117 ,-2.07201 
356 ,71.9228 ,1.66313 ,-0.21802 ,-2.13917 
357 ,72.1147 ,1.66505 ,-0.22486 ,-2.20632 
358 ,72.3069 ,1.66692 ,-0.25224 ,-2.47495 
359 ,72.4989 ,1.66886 ,-0.22828 ,-2.23990 
360 ,72.6910 ,1.67077 ,-0.25908 ,-2.54211 
361 ,72.8990 ,1.67284 ,-0.26593 ,-2.60926 
362 ,73.0912 ,1.67478 ,-0.28646 ,-2.81073 
363 ,73.2992 ,1.67679 ,-0.29673 ,-2.91147 
364 ,73.4914 ,1.67877 ,-0.29673 ,-2.91147 
365 ,73.6833 ,1.68072 ,-0.31041 ,-3.04578 
366 ,73.8755 ,1.68260 ,-0.30357 ,-2.97863 
367 ,74.0676 ,1.68460 ,-0.33779 ,-3.31441 
368 ,74.2597 ,1.68644 ,-0.33095 ,-3.24725 
369 ,74.4517 ,1.68837 ,-0.35148 ,-3.44872 
370 ,74.6438 ,1.69031 ,-0.36175 ,-3.54946 
371 ,74.8359 ,1.69222 ,-0.36517 ,-3.58303 
372 ,75.0279 ,1.69413 ,-0.37886 ,-3.71735 
373 ,75.2201 ,1.69606 ,-0.38228 ,-3.75093 
374 ,75.4122 ,1.69798 ,-0.38912 ,-3.81808 
375 ,75.6207 ,1.70006 ,-0.40966 ,-4.01955 
376 ,75.8287 ,1.70221 ,-0.41992 ,-4.12029 
377 ,76.0362 ,1.70422 ,-0.41308 ,-4.05313 
378 ,76.2288 ,1.70620 ,-0.44730 ,-4.38891 
379 ,76.4370 ,1.70824 ,-0.42677 ,-4.18744 
380 ,76.6288 ,1.71015 ,-0.44730 ,-4.38891 
381 ,76.8370 ,1.71213 ,-0.45414 ,-4.45607 
382 ,77.0449 ,1.71430 ,-0.47468 ,-4.65754 
383 ,77.2370 ,1.71620 ,-0.46783 ,-4.59038 
384 ,77.4292 ,1.71812 ,-0.47468 ,-4.65754 
385 ,77.6532 ,1.72043 ,-0.49521 ,-4.85901 
386 ,77.8613 ,1.72247 ,-0.50890 ,-4.99332 
387 ,78.0532 ,1.72436 ,-0.50206 ,-4.92617 
388 ,78.2291 ,1.72626 ,-0.51917 ,-5.09406 
389 ,78.4218 ,1.72812 ,-0.51574 ,-5.06048 
390 ,78.6297 ,1.73012 ,-0.54997 ,-5.39626 
391 ,78.8217 ,1.73204 ,-0.53970 ,-5.29553 
392 ,79.0139 ,1.73403 ,-0.52943 ,-5.19479 
393 ,79.2222 ,1.73604 ,-0.55681 ,-5.46342 
394 ,79.4138 ,1.73803 ,-0.57392 ,-5.63131 
395 ,79.6061 ,1.73993 ,-0.59788 ,-5.86636 
396 ,79.7982 ,1.74185 ,-0.58761 ,-5.76562 
397 ,80.0063 ,1.74388 ,-0.60472 ,-5.93352 
398 ,80.2144 ,1.74590 ,-0.59788 ,-5.86636 
399 ,80.4062 ,1.74792 ,-0.61499 ,-6.03425 
400 ,80.6305 ,1.75000 ,-0.62525 ,-6.13499 
401 ,80.8704 ,1.75245 ,-0.64236 ,-6.30288 
402 ,81.0787 ,1.75462 ,-0.65263 ,-6.40361 
403 ,81.2866 ,1.75673 ,-0.66974 ,-6.57150 
404 ,81.4789 ,1.75867 ,-0.66632 ,-6.53793 
405 ,81.6869 ,1.76070 ,-0.68343 ,-6.70582 
406 ,81.8951 ,1.76278 ,-0.68001 ,-6.67224 
407 ,82.0870 ,1.76471 ,-0.70739 ,-6.94086 
408 ,82.2788 ,1.76666 ,-0.71081 ,-6.97444 
409 ,82.5031 ,1.76879 ,-0.74845 ,-7.34380 
410 ,82.7110 ,1.77093 ,-0.73818 ,-7.24307 
411 ,82.9032 ,1.77284 ,-0.74161 ,-7.27665 
412 ,83.1116 ,1.77491 ,-0.75530 ,-7.41096 
413 ,83.3037 ,1.77685 ,-0.75187 ,-7.37738 
414 ,83.5116 ,1.77901 ,-0.76898 ,-7.54527 
415 ,83.7036 ,1.78087 ,-0.75530 ,-7.41096 
416 ,83.9114 ,1.78291 ,-0.78267 ,-7.67959 
417 ,84.1039 ,1.78484 ,-0.79636 ,-7.81390 
418 ,84.3119 ,1.78696 ,-0.81005 ,-7.94821 
419 ,84.5040 ,1.78889 ,-0.79978 ,-7.84748 
420 ,84.7120 ,1.79096 ,-0.82716 ,-8.11611 
421 ,84.9197 ,1.79304 ,-0.81347 ,-7.98179 
422 ,85.1122 ,1.79491 ,-0.85112 ,-8.35115 
423 ,85.3202 ,1.79699 ,-0.83058 ,-8.14968 
424 ,85.5125 ,1.79896 ,-0.85112 ,-8.35115 
425 ,85.7366 ,1.80106 ,-0.86481 ,-8.48547 
426 ,85.9447 ,1.80323 ,-0.86138 ,-8.45189 
427 ,86.1688 ,1.80537 ,-0.87849 ,-8.61978 
428 ,86.3768 ,1.80759 ,-0.88192 ,-8.65336 
429 ,86.5689 ,1.80948 ,-0.91272 ,-8.95556 
430 ,86.7610 ,1.81142 ,-0.90245 ,-8.85483 
431 ,86.9528 ,1.81333 ,-0.90587 ,-8.88841 
432 ,87.1448 ,1.81525 ,-0.91956 ,-9.02272 
433 ,87.3373 ,1.81716 ,-0.91956 ,-9.02272 
434 ,87.5453 ,1.81920 ,-0.93325 ,-9.15703 
435 ,87.7534 ,1.82136 ,-0.95378 ,-9.35850 
436 ,87.9452 ,1.82330 ,-0.95378 ,-9.35850 
437 ,88.1376 ,1.82518 ,-0.95036 ,-9.32492 
438 ,88.3456 ,1.82724 ,-0.96747 ,-9.49282 
439 ,88.5535 ,1.82938 ,-0.99143 ,-9.72786 
440 ,88.7615 ,1.83136 ,-0.98458 ,-9.66071 
441 ,88.9537 ,1.83337 ,-1.00169 ,-9.82860 
442 ,89.1780 ,1.83544 ,-0.99827 ,-9.79502 
443 ,89.3859 ,1.83766 ,-1.00854 ,-9.89576 
444 ,89.5941 ,1.83968 ,-1.01538 ,-9.96291 
445 ,89.8022 ,1.84178 ,-1.02565 ,-10.06365 
446 ,89.9944 ,1.84376 ,-1.05987 ,-10.39943 
447 ,90.2024 ,1.84579 ,-1.03934 ,-10.19796 
448 ,90.3780 ,1.84773 ,-1.07356 ,-10.53374 
449 ,90.5866 ,1.84967 ,-1.07356 ,-10.53374 
450 ,90.7946 ,1.85174 ,-1.08382 ,-10.63448 
451 ,90.9866 ,1.85366 ,-1.07356 ,-10.53374 
452 ,91.2107 ,1.85572 ,-1.09751 ,-10.76879 
453 ,91.4192 ,1.85800 ,-1.10093 ,-10.80237 
454 ,91.6271 ,1.86007 ,-1.10436 ,-10.83595 
455 ,91.8350 ,1.86217 ,-1.12831 ,-11.07100 
456 ,92.0272 ,1.86407 ,-1.11805 ,-10.97026 
457 ,92.2194 ,1.86599 ,-1.12831 ,-11.07100 
458 ,92.4276 ,1.86805 ,-1.13516 ,-11.13815 
459 ,92.6191 ,1.87006 ,-1.15569 ,-11.33962 
460 ,92.8115 ,1.87191 ,-1.15911 ,-11.37320 
461 ,93.0035 ,1.87379 ,-1.15569 ,-11.33962 
