Point No.,Normal Force [N],Gap [mm],Time [s]
1,4.078954,12.2549,980.5751
2,4.079308,12.2549,980.5800
3,4.080651,12.2549,980.5850
4,4.082148,12.2549,980.5900
5,4.082564,12.2549,980.5950
6,4.081314,12.2549,980.6000
7,4.080299,12.2555,980.6050
8,4.077564,12.2555,980.6100
9,4.075232,12.2568,980.6141
10,4.070021,12.2568,980.6190
11,4.061664,12.2605,980.6240
12,4.052896,12.2605,980.6290
13,4.034089,12.2655,980.6340
14,4.022408,12.2655,980.6390
15,4.001333,12.2705,980.6440
16,3.982306,12.2705,980.6500
17,3.963414,12.2755,980.6550
18,3.942226,12.2755,980.6600
19,3.921169,12.2798,980.6650
20,3.900944,12.2798,980.6700
21,3.879280,12.2854,980.6750
22,3.859724,12.2854,980.6801
23,3.838265,12.2904,980.6851
24,3.818495,12.2904,980.6901
25,3.797012,12.2954,980.6951
26,3.777690,12.2954,980.7001
27,3.756026,12.3003,980.7050
28,3.735427,12.3003,980.7100
29,3.712341,12.3053,980.7150
30,3.697012,12.3053,980.7191
31,3.672023,12.3103,980.7241
32,3.657555,12.3103,980.7291
33,3.631723,12.3153,980.7341
34,3.617934,12.3153,980.7391
35,3.594814,12.3196,980.7440
36,3.580702,12.3196,980.7490
37,3.554502,12.3252,980.7540
38,3.540019,12.3252,980.7590
39,3.517564,12.3302,980.7640
40,3.504274,12.3302,980.7690
41,3.480173,12.3352,980.7740
42,3.466748,12.3352,980.7791
43,3.443830,12.3395,980.7841
44,3.429904,12.3395,980.7891
45,3.406786,12.3451,980.7941
46,3.393158,12.3451,980.7991
47,3.371101,12.3501,980.8040
48,3.357579,12.3501,980.8090
49,3.334061,12.3551,980.8140
50,3.320837,12.3551,980.8190
51,3.299935,12.3601,980.8240
52,3.286500,12.3601,980.8290
53,3.262291,12.3651,980.8340
54,3.246706,12.3650,980.8391
55,3.224022,12.3700,980.8441
56,3.211438,12.3700,980.8491
57,3.191335,12.3750,980.8541
58,3.179107,12.3750,980.8591
59,3.159037,12.3794,980.8641
60,3.145139,12.3794,980.8690
61,3.123269,12.3850,980.8740
62,3.109311,12.3850,980.8790
63,3.089858,12.3899,980.8840
64,3.077138,12.3899,980.8890
65,3.056437,12.3949,980.8940
66,3.043255,12.3949,980.8990
67,3.023096,12.3999,980.9041
68,3.009287,12.3999,980.9091
69,2.988366,12.4049,980.9141
70,2.974618,12.4049,980.9191
71,2.956245,12.4099,980.9241
72,2.943877,12.4099,980.9290
73,2.924695,12.4149,980.9340
74,2.911990,12.4148,980.9390
75,2.893687,12.4192,980.9440
76,2.880430,12.4192,980.9490
77,2.859963,12.4248,980.9540
78,2.845500,12.4248,980.9590
79,2.827379,12.4298,980.9641
80,2.814571,12.4298,980.9691
81,2.795418,12.4348,980.9741
82,2.782142,12.4348,980.9791
83,2.763984,12.4391,980.9841
84,2.750026,12.4391,980.9891
85,2.730610,12.4454,980.9940
86,2.717559,12.4454,980.9990
87,2.701529,12.4497,981.0040
88,2.689240,12.4497,981.0090
89,2.671065,12.4547,981.0140
90,2.657854,12.4547,981.0190
91,2.640813,12.4591,981.0240
92,2.627426,12.4590,981.0291
93,2.608563,12.4647,981.0341
94,2.594594,12.4647,981.0391
95,2.578027,12.4696,981.0441
96,2.564892,12.4696,981.0491
97,2.547272,12.4746,981.0540
98,2.534300,12.4746,981.0590
99,2.517774,12.4790,981.0640
100,2.504251,12.4790,981.0690
101,2.486103,12.4846,981.0740
102,2.472103,12.4846,981.0790
103,2.456184,12.4896,981.0840
104,2.442834,12.4896,981.0891
105,2.425658,12.4946,981.0941
106,2.412257,12.4945,981.0991
107,2.396647,12.4995,981.1041
108,2.382984,12.4995,981.1091
109,2.366542,12.5045,981.1141
110,2.353496,12.5045,981.1190
111,2.341001,12.5095,981.1240
112,2.330535,12.5095,981.1290
113,2.316329,12.5145,981.1340
114,2.303774,12.5145,981.1390
115,2.288137,12.5188,981.1440
116,2.275211,12.5188,981.1490
117,2.259911,12.5245,981.1541
118,2.247533,12.5244,981.1591
119,2.233973,12.5294,981.1641
120,2.221188,12.5294,981.1691
121,2.205027,12.5344,981.1741
122,2.191714,12.5344,981.1790
123,2.177592,12.5394,981.1840
124,2.165125,12.5394,981.1890
125,2.150554,12.5444,981.1940
126,2.137264,12.5444,981.1990
127,2.122815,12.5494,981.2040
128,2.109390,12.5494,981.2090
129,2.095904,12.5544,981.2141
130,2.084325,12.5544,981.2191
131,2.072065,12.5587,981.2241
132,2.058854,12.5587,981.2291
133,2.043054,12.5643,981.2341
134,2.027594,12.5643,981.2391
135,2.013495,12.5693,981.2440
136,1.999794,12.5693,981.2490
137,1.984995,12.5743,981.2540
138,1.971377,12.5743,981.2590
139,1.956545,12.5787,981.2640
140,1.942025,12.5786,981.2690
141,1.926790,12.5843,981.2740
142,1.912013,12.5843,981.2791
143,1.899406,12.5892,981.2841
144,1.885462,12.5892,981.2891
145,1.870288,12.5942,981.2941
146,1.855717,12.5942,981.2991
147,1.841861,12.5992,981.3040
148,1.827459,12.5992,981.3090
149,1.813047,12.6042,981.3140
150,1.798621,12.6042,981.3190
151,1.785537,12.6092,981.3240
152,1.771013,12.6092,981.3290
153,1.755965,12.6142,981.3340
154,1.741613,12.6142,981.3391
155,1.728768,12.6185,981.3441
156,1.714917,12.6185,981.3491
157,1.700285,12.6241,981.3541
158,1.684499,12.6241,981.3591
159,1.671246,12.6291,981.3641
160,1.656470,12.6291,981.3690
161,1.641857,12.6341,981.3740
162,1.627379,12.6341,981.3790
163,1.614964,12.6391,981.3840
164,1.601366,12.6391,981.3890
165,1.588263,12.6441,981.3940
166,1.573079,12.6441,981.3990
167,1.561118,12.6490,981.4041
168,1.546009,12.6490,981.4091
169,1.531611,12.6540,981.4141
170,1.516867,12.6540,981.4191
171,1.504185,12.6584,981.4241
172,1.488745,12.6584,981.4290
173,1.474524,12.6640,981.4340
174,1.458541,12.6640,981.4390
175,1.447814,12.6690,981.4440
176,1.432789,12.6690,981.4490
177,1.419425,12.6740,981.4540
178,1.404003,12.6740,981.4590
179,1.391134,12.6789,981.4641
180,1.377040,12.6789,981.4691
181,1.365209,12.6839,981.4741
182,1.349390,12.6839,981.4791
183,1.338265,12.6889,981.4841
184,1.323746,12.6889,981.4891
185,1.311377,12.6939,981.4940
186,1.296325,12.6939,981.4990
187,1.284634,12.6983,981.5040
188,1.269488,12.6982,981.5090
189,1.256773,12.7039,981.5140
190,1.241749,12.7039,981.5190
191,1.230568,12.7089,981.5240
192,1.215272,12.7088,981.5291
193,1.202198,12.7138,981.5341
194,1.187468,12.7138,981.5391
195,1.177466,12.7182,981.5441
196,1.163091,12.7182,981.5491
197,1.150264,12.7238,981.5540
198,1.133982,12.7238,981.5590
199,1.124241,12.7288,981.5640
200,1.109900,12.7288,981.5690
201,1.098705,12.7338,981.5740
202,1.083774,12.7338,981.5790
203,1.072991,12.7381,981.5840
204,1.057690,12.7381,981.5891
205,1.046542,12.7437,981.5941
206,1.031326,12.7437,981.5991
207,1.022890,12.7487,981.6041
208,1.008445,12.7487,981.6091
209,0.998289,12.7537,981.6141
210,0.982778,12.7537,981.6190
211,0.971583,12.7581,981.6240
212,0.956306,12.7581,981.6290
213,0.945756,12.7637,981.6340
214,0.930026,12.7637,981.6390
215,0.921464,12.7687,981.6440
216,0.906584,12.7687,981.6490
217,0.896708,12.7737,981.6541
218,0.882095,12.7736,981.6591
219,0.873654,12.7786,981.6641
220,0.859439,12.7786,981.6691
221,0.849558,12.7836,981.6741
222,0.833098,12.7836,981.6790
223,0.823620,12.7886,981.6840
224,0.808370,12.7886,981.6890
225,0.798218,12.7936,981.6940
226,0.783428,12.7936,981.6990
227,0.774178,12.7980,981.7040
228,0.759149,12.7979,981.7090
229,0.749820,12.8036,981.7141
230,0.734679,12.8036,981.7191
231,0.727655,12.8086,981.7241
232,0.712799,12.8085,981.7291
233,0.703054,12.8135,981.7341
234,0.687767,12.8135,981.7391
235,0.680033,12.8179,981.7440
236,0.665382,12.8179,981.7490
237,0.656301,12.8235,981.7540
238,0.640430,12.8235,981.7590
239,0.632869,12.8285,981.7640
240,0.617755,12.8285,981.7690
241,0.609128,12.8335,981.7740
242,0.594501,12.8335,981.7791
243,0.587487,12.8378,981.7841
244,0.571985,12.8378,981.7891
245,0.561263,12.8435,981.7941
246,0.543563,12.8434,981.7991
247,0.535932,12.8478,981.8041
248,0.520584,12.8478,981.8090
249,0.512079,12.8528,981.8140
250,0.496549,12.8528,981.8190
251,0.488225,12.8578,981.8240
252,0.472976,12.8578,981.8290
253,0.463942,12.8634,981.8340
254,0.448230,12.8634,981.8391
255,0.441987,12.8678,981.8441
256,0.426781,12.8678,981.8491
257,0.417601,12.8734,981.8541
258,0.401188,12.8734,981.8591
259,0.393149,12.8777,981.8641
260,0.377784,12.8777,981.8690
261,0.368324,12.8833,981.8740
262,0.351471,12.8833,981.8790
263,0.346018,12.8877,981.8840
264,0.333631,12.8877,981.8890
265,0.327589,12.8927,981.8940
266,0.316137,12.8927,981.8990
267,0.312289,12.8977,981.9041
268,0.300991,12.8977,981.9091
269,0.296432,12.9027,981.9141
270,0.284709,12.9027,981.9191
271,0.281637,12.9077,981.9241
272,0.269502,12.9077,981.9291
273,0.263283,12.9127,981.9340
274,0.250058,12.9126,981.9390
275,0.245574,12.9176,981.9440
276,0.233070,12.9176,981.9490
277,0.228043,12.9233,981.9540
278,0.214047,12.9233,981.9590
279,0.209488,12.9276,981.9641
280,0.196367,12.9276,981.9691
281,0.190606,12.9326,981.9741
282,0.176970,12.9326,981.9791
283,0.172247,12.9376,981.9841
284,0.158892,12.9376,981.9891
285,0.152509,12.9426,981.9940
286,0.138237,12.9426,981.9990
287,0.133832,12.9476,982.0040
288,0.120332,12.9476,982.0090
289,0.114393,12.9526,982.0140
290,0.100846,12.9526,982.0190
291,0.095740,12.9576,982.0240
292,0.081955,12.9575,982.0291
293,0.075600,12.9625,982.0341
294,0.061693,12.9625,982.0391
295,0.058144,12.9675,982.0441
296,0.044985,12.9675,982.0491
297,0.040547,12.9725,982.0541
298,0.027823,12.9725,982.0590
299,0.023746,12.9775,982.0640
300,0.010652,12.9775,982.0690
301,0.005873,12.9825,982.0740
302,-0.007954,12.9825,982.0790
303,-0.011083,12.9875,982.0840
304,-0.024176,12.9875,982.0891
305,-0.029343,12.9925,982.0941
306,-0.042955,12.9925,982.0991
307,-0.046766,12.9968,982.1041
308,-0.059794,12.9968,982.1091
309,-0.063661,13.0025,982.1141
310,-0.077143,13.0025,982.1190
311,-0.080299,13.0075,982.1240
312,-0.093430,13.0074,982.1290
313,-0.098480,13.0124,982.1340
314,-0.111704,13.0124,982.1390
315,-0.114674,13.0174,982.1440
316,-0.127402,13.0174,982.1490
317,-0.131733,13.0224,982.1541
318,-0.145032,13.0224,982.1591
319,-0.146874,13.0274,982.1641
320,-0.159420,13.0274,982.1691
321,-0.163025,13.0324,982.1741
322,-0.175754,13.0324,982.1791
323,-0.177484,13.0368,982.1840
324,-0.189811,13.0368,982.1890
325,-0.192990,13.0424,982.1940
326,-0.207356,13.0424,982.1990
327,-0.209586,13.0474,982.2040
328,-0.222563,13.0474,982.2090
329,-0.225929,13.0524,982.2141
330,-0.238859,13.0524,982.2191
331,-0.241010,13.0574,982.2241
332,-0.253673,13.0574,982.2291
333,-0.256970,13.0623,982.2341
334,-0.270409,13.0623,982.2391
335,-0.272228,13.0673,982.2440
336,-0.285382,13.0673,982.2490
337,-0.289264,13.0723,982.2540
338,-0.303400,13.0723,982.2590
339,-0.306481,13.0767,982.2640
340,-0.319037,13.0767,982.2690
341,-0.321674,13.0823,982.2740
342,-0.335656,13.0823,982.2791
343,-0.337302,13.0873,982.2841
344,-0.350578,13.0873,982.2891
345,-0.354571,13.0923,982.2941
346,-0.369296,13.0923,982.2991
347,-0.373435,13.0967,982.3041
348,-0.386911,13.0966,982.3090
349,-0.387608,13.1023,982.3140
350,-0.398144,13.1023,982.3190
351,-0.397676,13.1073,982.3240
352,-0.408389,13.1073,982.3290
353,-0.410358,13.1123,982.3340
354,-0.424040,13.1123,982.3391
355,-0.426696,13.1172,982.3441
356,-0.438097,13.1172,982.3491
357,-0.439958,13.1222,982.3541
358,-0.452219,13.1222,982.3591
359,-0.452705,13.1272,982.3641
360,-0.463264,13.1272,982.3690
361,-0.465560,13.1322,982.3740
362,-0.477409,13.1322,982.3790
363,-0.477802,13.1366,982.3840
364,-0.488787,13.1366,982.3890
365,-0.489904,13.1422,982.3940
366,-0.500304,13.1422,982.3990
367,-0.499055,13.1472,982.4041
368,-0.510105,13.1472,982.4091
369,-0.510437,13.1522,982.4141
370,-0.520369,13.1522,982.4191
371,-0.519560,13.1572,982.4241
372,-0.531826,13.1572,982.4291
373,-0.536034,13.1622,982.4340
374,-0.549525,13.1622,982.4390
375,-0.553294,13.1672,982.4440
376,-0.569315,13.1672,982.4490
377,-0.571681,13.1722,982.4540
378,-0.581351,13.1722,982.4590
379,-0.578826,13.1765,982.4641
380,-0.588595,13.1765,982.4691
381,-0.587430,13.1822,982.4741
382,-0.601726,13.1821,982.4791
383,-0.602535,13.1871,982.4841
384,-0.614580,13.1871,982.4891
385,-0.616862,13.1921,982.4940
386,-0.629820,13.1921,982.4990
387,-0.628614,13.1965,982.5040
388,-0.640730,13.1965,982.5090
389,-0.640440,13.2021,982.5140
390,-0.652200,13.2021,982.5190
391,-0.648992,13.2071,982.5240
392,-0.661861,13.2071,982.5291
393,-0.666280,13.2121,982.5341
394,-0.680182,13.2121,982.5391
395,-0.680458,13.2165,982.5441
396,-0.691747,13.2165,982.5491
397,-0.689025,13.2221,982.5541
398,-0.700351,13.2221,982.5590
399,-0.697409,13.2271,982.5640
400,-0.708730,13.2271,982.5690
401,-0.705233,13.2321,982.5740
402,-0.717274,13.2321,982.5790
403,-0.720393,13.2365,982.5840
404,-0.734024,13.2364,982.5891
405,-0.735085,13.2421,982.5941
406,-0.747945,13.2421,982.5991
407,-0.744498,13.2471,982.6041
408,-0.755067,13.2471,982.6091
409,-0.753318,13.2521,982.6141
410,-0.765925,13.2520,982.6190
411,-0.767683,13.2564,982.6240
412,-0.780215,13.2564,982.6290
413,-0.780491,13.2620,982.6340
414,-0.793065,13.2620,982.6390
415,-0.791003,13.2670,982.6440
416,-0.802628,13.2670,982.6500
417,-0.801422,13.2720,982.6550
418,-0.814697,13.2720,982.6600
419,-0.812083,13.2764,982.6650
420,-0.825242,13.2764,982.6700
421,-0.823549,13.2820,982.6750
422,-0.835417,13.2820,982.6801
423,-0.830765,13.2870,982.6851
424,-0.841768,13.2870,982.6901
425,-0.839612,13.2920,982.6951
426,-0.851513,13.2920,982.7001
427,-0.847795,13.2970,982.7050
428,-0.857218,13.2970,982.7100
429,-0.852383,13.3020,982.7150
430,-0.860257,13.3020,982.7200
431,-0.852790,13.3070,982.7250
432,-0.858555,13.3070,982.7300
433,-0.852850,13.3120,982.7350
434,-0.862053,13.3120,982.7401
435,-0.857325,13.3164,982.7451
436,-0.867388,13.3164,982.7501
437,-0.863633,13.3220,982.7551
438,-0.873594,13.3220,982.7601
439,-0.867949,13.3270,982.7651
440,-0.875936,13.3270,982.7700
441,-0.871728,13.3320,982.7750
442,-0.882492,13.3320,982.7800
443,-0.878396,13.3364,982.7850
444,-0.888520,13.3364,982.7900
445,-0.883535,13.3420,982.7950
446,-0.892658,13.3420,982.8000
447,-0.887692,13.3470,982.8051
448,-0.897825,13.3470,982.8101
449,-0.893813,13.3520,982.8151
450,-0.903619,13.3520,982.8201
451,-0.898812,13.3563,982.8251
452,-0.908281,13.3563,982.8300
453,-0.904190,13.3620,982.8350
454,-0.915567,13.3620,982.8400
455,-0.910947,13.3670,982.8450
456,-0.920201,13.3670,982.8500
457,-0.915558,13.3720,982.8550
458,-0.925176,13.3720,982.8600
459,-0.919766,13.3763,982.8651
460,-0.928497,13.3763,982.8701
461,-0.923876,13.3820,982.8751
462,-0.933734,13.3819,982.8801
463,-0.927608,13.3870,982.8851
464,-0.934314,13.3870,982.8901
465,-0.928066,13.3920,982.8950
466,-0.935735,13.3919,982.9000
467,-0.929567,13.3970,982.9050
468,-0.937307,13.3969,982.9100
469,-0.931597,13.4020,982.9150
470,-0.940000,13.4019,982.9200
471,-0.933168,13.4069,982.9250
472,-0.940884,13.4069,982.9301
473,-0.934211,13.4119,982.9351
474,-0.941127,13.4119,982.9401
475,-0.933958,13.4163,982.9451
476,-0.940196,13.4163,982.9501
477,-0.933084,13.4219,982.9550
478,-0.940421,13.4219,982.9600
479,-0.932364,13.4270,982.9650
480,-0.939228,13.4269,982.9700
481,-0.932205,13.4320,982.9750
482,-0.937087,13.4319,982.9800
483,-0.927024,13.4363,982.9850
484,-0.927080,13.4363,982.9901
485,-0.915647,13.4420,982.9951
486,-0.918106,13.4420,983.0001
487,-0.908319,13.4470,983.0051
488,-0.913458,13.4470,983.0101
489,-0.906519,13.4520,983.0151
490,-0.915361,13.4520,983.0200
491,-0.909647,13.4563,983.0250
492,-0.919055,13.4563,983.0300
493,-0.913121,13.4620,983.0350
494,-0.920856,13.4620,983.0400
495,-0.912673,13.4670,983.0450
496,-0.919724,13.4670,983.0500
497,-0.912668,13.4720,983.0551
498,-0.919182,13.4720,983.0601
499,-0.910091,13.4763,983.0651
500,-0.914178,13.4763,983.0701
501,-0.906519,13.4820,983.0751
502,-0.914202,13.4820,983.0800
503,-0.906598,13.4870,983.0850
504,-0.914889,13.4870,983.0900
505,-0.909638,13.4920,983.0950
506,-0.920103,13.4920,983.1000
507,-0.914898,13.4970,983.1050
508,-0.924915,13.4970,983.1100
509,-0.920108,13.5020,983.1151
510,-0.930535,13.5019,983.1201
511,-0.923245,13.5070,983.1251
512,-0.930769,13.5070,983.1301
513,-0.925822,13.5120,983.1351
514,-0.936025,13.5119,983.1401
515,-0.929207,13.5163,983.1450
516,-0.937185,13.5163,983.1500
517,-0.930493,13.5219,983.1550
518,-0.936521,13.5219,983.1600
519,-0.926888,13.5270,983.1650
520,-0.932205,13.5270,983.1700
521,-0.925742,13.5320,983.1750
522,-0.935487,13.5319,983.1801
523,-0.930652,13.5370,983.1851
524,-0.941651,13.5369,983.1901
525,-0.937451,13.5419,983.1951
526,-0.948754,13.5419,983.2001
527,-0.942693,13.5469,983.2050
528,-0.952359,13.5469,983.2100
529,-0.947702,13.5519,983.2150
530,-0.957339,13.5519,983.2200
531,-0.948894,13.5563,983.2250
532,-0.953285,13.5563,983.2300
533,-0.945817,13.5619,983.2350
534,-0.954300,13.5619,983.2401
535,-0.947529,13.5669,983.2451
536,-0.955838,13.5669,983.2501
537,-0.950344,13.5719,983.2551
538,-0.959668,13.5719,983.2601
539,-0.953121,13.5763,983.2651
540,-0.961150,13.5763,983.2700
541,-0.955661,13.5819,983.2750
542,-0.965312,13.5819,983.2800
543,-0.958298,13.5869,983.2850
544,-0.965481,13.5869,983.2900
545,-0.958172,13.5919,983.2950
546,-0.965499,13.5919,983.3000
547,-0.958101,13.5963,983.3051
548,-0.965424,13.5963,983.3101
549,-0.959401,13.6019,983.3151
550,-0.969114,13.6019,983.3201
551,-0.962404,13.6069,983.3251
552,-0.970049,13.6069,983.3300
553,-0.963114,13.6113,983.3350
554,-0.968843,13.6113,983.3400
555,-0.960154,13.6163,983.3450
556,-0.963241,13.6163,983.3500
557,-0.952920,13.6213,983.3550
558,-0.953799,13.6213,983.3600
559,-0.942436,13.6269,983.3651
560,-0.945850,13.6269,983.3701
561,-0.939317,13.6319,983.3751
562,-0.948595,13.6319,983.3801
563,-0.942511,13.6363,983.3851
564,-0.950535,13.6363,983.3901
565,-0.943717,13.6413,983.3950
566,-0.948052,13.6413,983.4000
567,-0.938906,13.6463,983.4050
568,-0.944447,13.6463,983.4100
569,-0.939607,13.6513,983.4150
570,-0.949839,13.6513,983.4200
571,-0.944185,13.6563,983.4250
572,-0.953084,13.6563,983.4301
573,-0.948197,13.6613,983.4351
574,-0.957788,13.6613,983.4401
575,-0.951798,13.6663,983.4451
576,-0.959537,13.6663,983.4501
577,-0.954197,13.6663,983.4550
578,-0.963755,13.6713,983.4600
579,-0.958261,13.6769,983.4650
580,-0.967271,13.6769,983.4700
581,-0.962469,13.6819,983.4750
582,-0.971896,13.6819,983.4800
583,-0.965766,13.6869,983.4850
584,-0.973729,13.6869,983.4901
585,-0.968632,13.6913,983.4951
586,-0.978214,13.6913,983.5001
587,-0.972958,13.6963,983.5051
588,-0.981207,13.6963,983.5101
589,-0.976016,13.7013,983.5151
590,-0.985331,13.7013,983.5200
591,-0.977442,13.7063,983.5250
592,-0.979350,13.7063,983.5300
593,-0.970596,13.7113,983.5350
594,-0.977087,13.7113,983.5400
595,-0.970339,13.7113,983.5450
596,-0.977017,13.7163,983.5500
597,-0.971003,13.7163,983.5551
598,-0.979504,13.7219,983.5601
599,-0.973276,13.7269,983.5651
600,-0.980033,13.7269,983.5701
601,-0.974113,13.7313,983.5751
602,-0.982249,13.7313,983.5800
603,-0.975679,13.7363,983.5850
604,-0.978536,13.7363,983.5900
605,-0.969240,13.7413,983.5950
606,-0.973659,13.7413,983.6000
607,-0.965373,13.7463,983.6050
608,-0.970666,13.7463,983.6100
609,-0.965392,13.7513,983.6151
610,-0.975693,13.7513,983.6201
611,-0.971083,13.7563,983.6251
612,-0.978204,13.7563,983.6301
613,-0.970428,13.7563,983.6351
614,-0.974889,13.7613,983.6401
615,-0.966453,13.7613,983.6450
616,-0.970381,13.7669,983.6500
617,-0.964185,13.7669,983.6550
618,-0.970708,13.7719,983.6600
619,-0.961763,13.7763,983.6650
620,-0.964410,13.7763,983.6700
621,-0.957255,13.7813,983.6750
622,-0.963966,13.7813,983.6801
623,-0.957751,13.7863,983.6851
624,-0.965265,13.7863,983.6901
625,-0.960631,13.7913,983.6951
626,-0.969324,13.7913,983.7001
627,-0.963727,13.7963,983.7050
628,-0.971340,13.7963,983.7100
629,-0.966790,13.8013,983.7150
630,-0.975843,13.8013,983.7200
631,-0.968945,13.8063,983.7250
632,-0.970793,13.8063,983.7300
633,-0.962212,13.8063,983.7350
634,-0.967931,13.8113,983.7401
635,-0.962544,13.8113,983.7451
636,-0.970498,13.8163,983.7501
637,-0.964919,13.8163,983.7551
638,-0.967931,13.8213,983.7601
639,-0.958714,13.8263,983.7651
640,-0.960870,13.8263,983.7700
641,-0.954197,13.8313,983.7750
642,-0.961660,13.8313,983.7800
643,-0.956549,13.8363,983.7850
644,-0.963390,13.8363,983.7900
645,-0.957811,13.8413,983.7950
646,-0.960103,13.8413,983.8000
647,-0.949460,13.8463,983.8051
648,-0.949666,13.8463,983.8101
649,-0.942838,13.8513,983.8151
650,-0.950101,13.8513,983.8201
651,-0.945233,13.8513,983.8251
652,-0.952710,13.8563,983.8300
653,-0.948866,13.8563,983.8350
654,-0.957208,13.8619,983.8400
655,-0.952093,13.8619,983.8450
656,-0.958672,13.8663,983.8500
