Point No.,Normal Force [N],Gap [mm],Time [s]
1.0,4.133711,11.4199,586.3311
2.0,4.133795,11.4199,586.3360
3.0,4.133925,11.4199,586.3410
4.0,4.133964,11.4199,586.3460
5.0,4.133823,11.4199,586.3510
6.0,4.131710,11.4199,586.3560
7.0,4.130643,11.4206,586.3610
8.0,4.126482,11.4206,586.3660
9.0,4.122671,11.4224,586.3701
10.0,4.118251,11.4224,586.3750
11.0,4.104593,11.4262,586.3800
12.0,4.095609,11.4262,586.3850
13.0,4.076232,11.4305,586.3900
14.0,4.057783,11.4305,586.3950
15.0,4.037428,11.4368,586.4000
16.0,4.012415,11.4367,586.4060
17.0,3.994693,11.4430,586.4110
18.0,3.966140,11.4430,586.4160
19.0,3.944985,11.4492,586.4210
20.0,3.909264,11.4492,586.4260
21.0,3.887823,11.4573,586.4310
22.0,3.847310,11.4573,586.4360
23.0,3.818326,11.4660,586.4410
24.0,3.773299,11.4660,586.4460
25.0,3.742367,11.4760,586.4510
26.0,3.695310,11.4759,586.4561
27.0,3.661712,11.4859,586.4610
28.0,3.612603,11.4859,586.4660
29.0,3.579219,11.4959,586.4710
30.0,3.547973,11.4958,586.4750
31.0,3.501034,11.5052,586.4800
32.0,3.469138,11.5052,586.4850
33.0,3.422778,11.5158,586.4901
34.0,3.392176,11.5158,586.4951
35.0,3.347501,11.5257,586.5000
36.0,3.318046,11.5257,586.5050
37.0,3.273491,11.5357,586.5100
38.0,3.244106,11.5357,586.5150
39.0,3.200014,11.5456,586.5200
40.0,3.170321,11.5456,586.5250
41.0,3.127150,11.5556,586.5300
42.0,3.099650,11.5556,586.5350
43.0,3.057699,11.5649,586.5400
44.0,3.029731,11.5649,586.5450
45.0,2.988282,11.5755,586.5500
46.0,2.962418,11.5755,586.5551
47.0,2.920300,11.5848,586.5600
48.0,2.893706,11.5848,586.5650
49.0,2.853285,11.5954,586.5700
50.0,2.828226,11.5954,586.5750
51.0,2.786841,11.6048,586.5800
52.0,2.760557,11.6048,586.5850
53.0,2.720875,11.6154,586.5900
54.0,2.696297,11.6153,586.5950
55.0,2.657199,11.6253,586.6000
56.0,2.632939,11.6253,586.6050
57.0,2.594300,11.6353,586.6100
58.0,2.570175,11.6353,586.6151
59.0,2.530910,11.6446,586.6201
60.0,2.505770,11.6446,586.6250
61.0,2.467355,11.6552,586.6300
62.0,2.445017,11.6552,586.6350
63.0,2.409250,11.6645,586.6400
64.0,2.385724,11.6645,586.6450
65.0,2.347781,11.6751,586.6500
66.0,2.325522,11.6751,586.6550
67.0,2.290204,11.6845,586.6600
68.0,2.268033,11.6845,586.6650
69.0,2.233023,11.6944,586.6700
70.0,2.212093,11.6944,586.6750
71.0,2.179930,11.7050,586.6801
72.0,2.159599,11.7050,586.6850
73.0,2.125149,11.7150,586.6900
74.0,2.103779,11.7150,586.6950
75.0,2.068235,11.7250,586.7000
76.0,2.045144,11.7250,586.7050
77.0,2.007917,11.7349,586.7100
78.0,1.984962,11.7349,586.7150
79.0,1.947028,11.7443,586.7200
80.0,1.923840,11.7443,586.7250
81.0,1.887337,11.7549,586.7300
82.0,1.865916,11.7549,586.7350
83.0,1.829647,11.7642,586.7401
84.0,1.806790,11.7642,586.7451
85.0,1.769563,11.7742,586.7500
86.0,1.747791,11.7742,586.7550
87.0,1.711293,11.7841,586.7600
88.0,1.688473,11.7841,586.7650
89.0,1.651550,11.7947,586.7700
90.0,1.630419,11.7947,586.7750
91.0,1.593818,11.8047,586.7800
92.0,1.570138,11.8047,586.7850
93.0,1.531106,11.8147,586.7900
94.0,1.508628,11.8146,586.7950
95.0,1.471999,11.8240,586.8000
96.0,1.449296,11.8240,586.8051
97.0,1.412719,11.8340,586.8100
98.0,1.390756,11.8339,586.8150
99.0,1.353907,11.8439,586.8200
100.0,1.331391,11.8439,586.8250
101.0,1.295272,11.8539,586.8300
102.0,1.274351,11.8539,586.8350
103.0,1.239691,11.8639,586.8400
104.0,1.218429,11.8638,586.8450
105.0,1.184026,11.8738,586.8500
106.0,1.163802,11.8738,586.8550
107.0,1.130157,11.8838,586.8600
108.0,1.108520,11.8838,586.8651
109.0,1.072841,11.8938,586.8701
110.0,1.051976,11.8937,586.8750
111.0,1.016727,11.9043,586.8800
112.0,0.994365,11.9043,586.8850
113.0,0.959247,11.9143,586.8900
114.0,0.938705,11.9143,586.8950
115.0,0.903718,11.9237,586.9000
116.0,0.882871,11.9236,586.9050
117.0,0.849399,11.9336,586.9100
118.0,0.829357,11.9336,586.9150
119.0,0.795375,11.9436,586.9200
120.0,0.774351,11.9436,586.9250
121.0,0.741337,11.9536,586.9301
122.0,0.721786,11.9536,586.9350
123.0,0.687851,11.9635,586.9400
124.0,0.667253,11.9635,586.9450
125.0,0.634417,11.9735,586.9500
126.0,0.614795,11.9735,586.9550
127.0,0.582128,11.9835,586.9600
128.0,0.560346,11.9835,586.9650
129.0,0.523096,11.9941,586.9700
130.0,0.503456,11.9940,586.9750
131.0,0.471363,12.0034,586.9800
132.0,0.450680,12.0034,586.9850
133.0,0.416624,12.0134,586.9901
134.0,0.396058,12.0134,586.9951
135.0,0.364162,12.0233,587.0000
136.0,0.345471,12.0233,587.0050
137.0,0.320524,12.0333,587.0100
138.0,0.305317,12.0333,587.0150
139.0,0.279355,12.0427,587.0200
140.0,0.264657,12.0427,587.0250
141.0,0.235960,12.0533,587.0300
142.0,0.217770,12.0533,587.0350
143.0,0.191157,12.0626,587.0400
144.0,0.176493,12.0626,587.0450
145.0,0.153444,12.0732,587.0500
146.0,0.141164,12.0732,587.0551
147.0,0.118868,12.0826,587.0600
148.0,0.101249,12.0826,587.0650
149.0,0.070405,12.0932,587.0700
150.0,0.055478,12.0932,587.0750
151.0,0.030980,12.1031,587.0800
152.0,0.016236,12.1031,587.0850
153.0,-0.013061,12.1131,587.0900
154.0,-0.031714,12.1131,587.0950
155.0,-0.060524,12.1225,587.1000
156.0,-0.076418,12.1225,587.1050
157.0,-0.103414,12.1324,587.1100
158.0,-0.118920,12.1324,587.1151
159.0,-0.145527,12.1424,587.1201
160.0,-0.162736,12.1424,587.1250
161.0,-0.190596,12.1524,587.1300
162.0,-0.206070,12.1524,587.1350
163.0,-0.231242,12.1624,587.1400
164.0,-0.247108,12.1624,587.1450
165.0,-0.273865,12.1723,587.1500
166.0,-0.289301,12.1723,587.1550
167.0,-0.314538,12.1829,587.1600
168.0,-0.330507,12.1829,587.1650
169.0,-0.356465,12.1929,587.1700
170.0,-0.371050,12.1929,587.1750
171.0,-0.394407,12.2029,587.1801
172.0,-0.408539,12.2029,587.1850
173.0,-0.432981,12.2122,587.1900
174.0,-0.447632,12.2122,587.1950
175.0,-0.471443,12.2222,587.2000
176.0,-0.486177,12.2222,587.2050
177.0,-0.509362,12.2322,587.2100
178.0,-0.522324,12.2322,587.2150
179.0,-0.544985,12.2422,587.2200
180.0,-0.560393,12.2422,587.2250
181.0,-0.586201,12.2522,587.2300
182.0,-0.600220,12.2521,587.2350
183.0,-0.623278,12.2621,587.2401
184.0,-0.637573,12.2621,587.2451
185.0,-0.660510,12.2727,587.2500
186.0,-0.673304,12.2727,587.2550
187.0,-0.695450,12.2827,587.2600
188.0,-0.708978,12.2827,587.2650
189.0,-0.731083,12.2927,587.2700
190.0,-0.743535,12.2927,587.2750
191.0,-0.766126,12.3020,587.2800
192.0,-0.779733,12.3020,587.2850
193.0,-0.802530,12.3120,587.2900
194.0,-0.814889,12.3120,587.2950
195.0,-0.836577,12.3220,587.3000
196.0,-0.850054,12.3220,587.3051
197.0,-0.871475,12.3320,587.3100
198.0,-0.883138,12.3320,587.3150
199.0,-0.903582,12.3420,587.3200
200.0,-0.917087,12.3420,587.3250
201.0,-0.939027,12.3519,587.3300
202.0,-0.951354,12.3519,587.3350
203.0,-0.970975,12.3626,587.3400
204.0,-0.982993,12.3625,587.3450
205.0,-1.003456,12.3725,587.3500
206.0,-1.015179,12.3725,587.3550
207.0,-1.035927,12.3825,587.3600
208.0,-1.048965,12.3825,587.3651
209.0,-1.069694,12.3925,587.3701
210.0,-1.080262,12.3925,587.3750
211.0,-1.097377,12.4019,587.3800
212.0,-1.108038,12.4018,587.3850
213.0,-1.126766,12.4125,587.3900
214.0,-1.136282,12.4125,587.3950
215.0,-1.153486,12.4218,587.4000
216.0,-1.164241,12.4218,587.4050
217.0,-1.180575,12.4324,587.4100
218.0,-1.188300,12.4324,587.4150
219.0,-1.201730,12.4418,587.4200
220.0,-1.211433,12.4418,587.4250
221.0,-1.227735,12.4524,587.4301
222.0,-1.236273,12.4524,587.4350
223.0,-1.250339,12.4624,587.4400
224.0,-1.259570,12.4624,587.4450
225.0,-1.275207,12.4724,587.4500
226.0,-1.283320,12.4724,587.4550
227.0,-1.298588,12.4824,587.4600
228.0,-1.309516,12.4824,587.4650
229.0,-1.327365,12.4923,587.4700
230.0,-1.335581,12.4923,587.4750
231.0,-1.349694,12.5017,587.4800
232.0,-1.358962,12.5017,587.4850
233.0,-1.375492,12.5123,587.4901
234.0,-1.384293,12.5123,587.4951
235.0,-1.400706,12.5217,587.5000
236.0,-1.411499,12.5217,587.5050
237.0,-1.429455,12.5323,587.5100
238.0,-1.438190,12.5323,587.5150
239.0,-1.452588,12.5416,587.5200
240.0,-1.463283,12.5416,587.5250
241.0,-1.481263,12.5523,587.5300
242.0,-1.491040,12.5522,587.5350
243.0,-1.506481,12.5622,587.5400
244.0,-1.515782,12.5622,587.5450
245.0,-1.531223,12.5722,587.5500
246.0,-1.539233,12.5722,587.5551
247.0,-1.553678,12.5816,587.5600
248.0,-1.563680,12.5816,587.5650
249.0,-1.577643,12.5922,587.5700
250.0,-1.584297,12.5922,587.5750
251.0,-1.594520,12.6016,587.5800
252.0,-1.600603,12.6016,587.5850
253.0,-1.612888,12.6122,587.5900
254.0,-1.618625,12.6122,587.5950
255.0,-1.631490,12.6215,587.6000
256.0,-1.639817,12.6215,587.6050
257.0,-1.653580,12.6321,587.6100
258.0,-1.660945,12.6321,587.6151
259.0,-1.673229,12.6421,587.6201
260.0,-1.681253,12.6421,587.6250
261.0,-1.693659,12.6521,587.6300
262.0,-1.699771,12.6521,587.6350
263.0,-1.711288,12.6621,587.6400
264.0,-1.719659,12.6621,587.6450
265.0,-1.733514,12.6721,587.6500
266.0,-1.741426,12.6721,587.6550
267.0,-1.754445,12.6815,587.6600
268.0,-1.763610,12.6815,587.6650
269.0,-1.778667,12.6915,587.6700
270.0,-1.786687,12.6914,587.6750
271.0,-1.800084,12.7014,587.6801
272.0,-1.808679,12.7014,587.6850
273.0,-1.822806,12.7121,587.6900
274.0,-1.830536,12.7120,587.6950
275.0,-1.844059,12.7214,587.7000
276.0,-1.853818,12.7214,587.7050
277.0,-1.868576,12.7314,587.7100
278.0,-1.876704,12.7314,587.7150
279.0,-1.890199,12.7420,587.7200
280.0,-1.897816,12.7420,587.7250
281.0,-1.911195,12.7520,587.7300
282.0,-1.918995,12.7520,587.7350
283.0,-1.931967,12.7620,587.7401
284.0,-1.940603,12.7620,587.7451
285.0,-1.953875,12.7713,587.7500
286.0,-1.961235,12.7713,587.7550
287.0,-1.973173,12.7813,587.7600
288.0,-1.981295,12.7813,587.7650
289.0,-1.994277,12.7913,587.7700
290.0,-2.001006,12.7913,587.7750
291.0,-2.012228,12.8013,587.7800
292.0,-2.020070,12.8013,587.7850
293.0,-2.032214,12.8113,587.7900
294.0,-2.039369,12.8113,587.7950
295.0,-2.048609,12.8213,587.8000
296.0,-2.053210,12.8213,587.8051
297.0,-2.059907,12.8319,587.8100
298.0,-2.064363,12.8319,587.8150
299.0,-2.073477,12.8419,587.8200
300.0,-2.080187,12.8419,587.8250
301.0,-2.091129,12.8513,587.8300
302.0,-2.095558,12.8513,587.8350
303.0,-2.100660,12.8613,587.8400
304.0,-2.104354,12.8613,587.8450
305.0,-2.112200,12.8713,587.8500
306.0,-2.116882,12.8713,587.8550
307.0,-2.127290,12.8812,587.8600
308.0,-2.135118,12.8812,587.8651
309.0,-2.148862,12.8912,587.8701
310.0,-2.156381,12.8912,587.8750
311.0,-2.167071,12.9012,587.8800
312.0,-2.174791,12.9012,587.8850
313.0,-2.186364,12.9112,587.8900
314.0,-2.192920,12.9112,587.8950
315.0,-2.204311,12.9218,587.9000
316.0,-2.212953,12.9218,587.9050
317.0,-2.225883,12.9318,587.9100
318.0,-2.232560,12.9318,587.9150
319.0,-2.242970,12.9412,587.9200
320.0,-2.251368,12.9412,587.9250
321.0,-2.263390,12.9512,587.9301
322.0,-2.270035,12.9512,587.9350
323.0,-2.277517,12.9612,587.9400
324.0,-2.281473,12.9612,587.9450
325.0,-2.288169,12.9712,587.9500
326.0,-2.292233,12.9711,587.9550
327.0,-2.300360,12.9811,587.9600
328.0,-2.307721,12.9811,587.9650
329.0,-2.319598,12.9911,587.9700
330.0,-2.326514,12.9911,587.9750
331.0,-2.336563,13.0011,587.9800
332.0,-2.343849,13.0011,587.9850
333.0,-2.353851,13.0111,587.9901
334.0,-2.359649,13.0111,587.9951
335.0,-2.369759,13.0211,588.0000
336.0,-2.377555,13.0211,588.0050
337.0,-2.387819,13.0311,588.0100
338.0,-2.393776,13.0311,588.0150
339.0,-2.403039,13.0411,588.0200
340.0,-2.410596,13.0411,588.0250
341.0,-2.421955,13.0511,588.0300
342.0,-2.428090,13.0511,588.0350
343.0,-2.438677,13.0611,588.0400
344.0,-2.446935,13.0611,588.0450
345.0,-2.456830,13.0711,588.0500
346.0,-2.462090,13.0710,588.0551
347.0,-2.469049,13.0804,588.0600
348.0,-2.475460,13.0804,588.0650
349.0,-2.486552,13.0910,588.0700
350.0,-2.493173,13.0910,588.0750
351.0,-2.503727,13.1004,588.0800
352.0,-2.510886,13.1004,588.0850
353.0,-2.521225,13.1110,588.0900
354.0,-2.526551,13.1110,588.0950
355.0,-2.535437,13.1204,588.1000
356.0,-2.542740,13.1204,588.1050
357.0,-2.554281,13.1310,588.1100
358.0,-2.560449,13.1310,588.1151
359.0,-2.569128,13.1410,588.1201
360.0,-2.575301,13.1410,588.1250
361.0,-2.585953,13.1510,588.1300
362.0,-2.591251,13.1510,588.1350
363.0,-2.597700,13.1610,588.1400
364.0,-2.603657,13.1610,588.1450
365.0,-2.612360,13.1710,588.1500
366.0,-2.617251,13.1710,588.1550
367.0,-2.623933,13.1803,588.1600
368.0,-2.630171,13.1803,588.1650
369.0,-2.638925,13.1903,588.1700
370.0,-2.640028,13.1903,588.1750
371.0,-2.637340,13.2003,588.1801
372.0,-2.637030,13.2003,588.1850
373.0,-2.637147,13.2109,588.1900
374.0,-2.634094,13.2109,588.1950
375.0,-2.618630,13.2203,588.2000
376.0,-2.608979,13.2203,588.2050
377.0,-2.599841,13.2310,588.2100
378.0,-2.596367,13.2310,588.2150
379.0,-2.594661,13.2410,588.2200
380.0,-2.596849,13.2410,588.2250
381.0,-2.600768,13.2510,588.2300
382.0,-2.604275,13.2510,588.2350
383.0,-2.609357,13.2603,588.2401
384.0,-2.615184,13.2603,588.2451
385.0,-2.621946,13.2710,588.2500
386.0,-2.622128,13.2710,588.2550
387.0,-2.618827,13.2803,588.2600
388.0,-2.618822,13.2803,588.2650
389.0,-2.620211,13.2910,588.2700
390.0,-2.623339,13.2910,588.2750
391.0,-2.628768,13.3003,588.2800
392.0,-2.634178,13.3003,588.2850
393.0,-2.640477,13.3109,588.2900
394.0,-2.644849,13.3109,588.2950
395.0,-2.650274,13.3209,588.3000
396.0,-2.654524,13.3209,588.3051
397.0,-2.654211,13.3309,588.3100
398.0,-2.652537,13.3309,588.3150
399.0,-2.649058,13.3409,588.3200
400.0,-2.648674,13.3409,588.3250
401.0,-2.647697,13.3509,588.3300
402.0,-2.647113,13.3509,588.3350
403.0,-2.639462,13.3603,588.3400
404.0,-2.634758,13.3603,588.3450
405.0,-2.626846,13.3710,588.3500
406.0,-2.615890,13.3710,588.3550
407.0,-2.594025,13.3803,588.3600
408.0,-2.584545,13.3804,588.3651
409.0,-2.575319,13.3910,588.3701
410.0,-2.573491,13.3910,588.3750
411.0,-2.572345,13.4004,588.3800
412.0,-2.575315,13.4004,588.3850
413.0,-2.579500,13.4110,588.3900
414.0,-2.582198,13.4110,588.3950
415.0,-2.583961,13.4210,588.4000
416.0,-2.589216,13.4210,588.4060
417.0,-2.591891,13.4310,588.4110
418.0,-2.594800,13.4310,588.4160
419.0,-2.595479,13.4403,588.4210
420.0,-2.591564,13.4403,588.4260
421.0,-2.587112,13.4510,588.4310
422.0,-2.574183,13.4510,588.4360
423.0,-2.563143,13.4604,588.4410
424.0,-2.552037,13.4604,588.4460
425.0,-2.547052,13.4710,588.4510
426.0,-2.542783,13.4710,588.4561
427.0,-2.540360,13.4804,588.4610
428.0,-2.528295,13.4804,588.4660
429.0,-2.516105,13.4910,588.4710
430.0,-2.500416,13.4910,588.4760
431.0,-2.493187,13.5010,588.4810
432.0,-2.489881,13.5010,588.4860
433.0,-2.489497,13.5110,588.4910
434.0,-2.487552,13.5110,588.4960
435.0,-2.480005,13.5210,588.5010
436.0,-2.464125,13.5210,588.5060
437.0,-2.453336,13.5311,588.5110
438.0,-2.441801,13.5311,588.5161
439.0,-2.436839,13.5404,588.5211
440.0,-2.434052,13.5404,588.5260
441.0,-2.433912,13.5511,588.5310
442.0,-2.434080,13.5511,588.5360
443.0,-2.429516,13.5604,588.5410
444.0,-2.412593,13.5605,588.5460
445.0,-2.398139,13.5711,588.5510
446.0,-2.373430,13.5711,588.5560
447.0,-2.357157,13.5805,588.5610
448.0,-2.335810,13.5805,588.5660
449.0,-2.324769,13.5911,588.5710
450.0,-2.311775,13.5911,588.5760
451.0,-2.300959,13.6011,588.5811
452.0,-2.288249,13.6012,588.5860
453.0,-2.281698,13.6112,588.5910
454.0,-2.276853,13.6112,588.5960
455.0,-2.275356,13.6212,588.6010
456.0,-2.277302,13.6212,588.6060
457.0,-2.277559,13.6312,588.6110
458.0,-2.275502,13.6312,588.6160
459.0,-2.272261,13.6405,588.6210
460.0,-2.269015,13.6405,588.6260
461.0,-2.266420,13.6512,588.6310
462.0,-2.257386,13.6512,588.6360
463.0,-2.248006,13.6605,588.6411
464.0,-2.232378,13.6606,588.6461
465.0,-2.209381,13.6712,588.6510
466.0,-2.168104,13.6712,588.6560
467.0,-2.145368,13.6806,588.6610
468.0,-2.125944,13.6806,588.6660
469.0,-2.119388,13.6913,588.6710
470.0,-2.109811,13.6913,588.6760
471.0,-2.101543,13.7013,588.6810
472.0,-2.093593,13.7013,588.6860
473.0,-2.089245,13.7113,588.6910
474.0,-2.084597,13.7113,588.6960
475.0,-2.082184,13.7206,588.7010
476.0,-2.076497,13.7206,588.7061
477.0,-2.070288,13.7313,588.7110
478.0,-2.064952,13.7313,588.7160
479.0,-2.062394,13.7407,588.7210
480.0,-2.062619,13.7407,588.7260
481.0,-2.062404,13.7513,588.7310
482.0,-2.063839,13.7513,588.7360
483.0,-2.064901,13.7607,588.7410
484.0,-2.070049,13.7607,588.7460
485.0,-2.072757,13.7713,588.7510
486.0,-2.076348,13.7713,588.7560
487.0,-2.076414,13.7813,588.7610
488.0,-2.075908,13.7813,588.7661
489.0,-2.068838,13.7913,588.7711
490.0,-2.052439,13.7913,588.7760
491.0,-2.037704,13.8013,588.7810
492.0,-2.020416,13.8013,588.7860
493.0,-2.013014,13.8113,588.7910
494.0,-2.006346,13.8113,588.7960
495.0,-2.002221,13.8207,588.8010
496.0,-2.000688,13.8207,588.8060
497.0,-1.995156,13.8307,588.8110
498.0,-1.985139,13.8307,588.8160
499.0,-1.977681,13.8407,588.8210
500.0,-1.959308,13.8407,588.8260
501.0,-1.937208,13.8507,588.8311
502.0,-1.890831,13.8508,588.8360
503.0,-1.853930,13.8608,588.8410
504.0,-1.812485,13.8608,588.8460
505.0,-1.790989,13.8714,588.8510
506.0,-1.764312,13.8715,588.8560
507.0,-1.750190,13.8815,588.8610
508.0,-1.739074,13.8815,588.8660
509.0,-1.734492,13.8915,588.8710
510.0,-1.721202,13.8915,588.8760
511.0,-1.709591,13.9009,588.8810
512.0,-1.699383,13.9009,588.8860
513.0,-1.694548,13.9109,588.8911
514.0,-1.682179,13.9109,588.8961
515.0,-1.670002,13.9209,588.9010
516.0,-1.656741,13.9209,588.9060
517.0,-1.642305,13.9309,588.9110
518.0,-1.603208,13.9309,588.9160
519.0,-1.570185,13.9409,588.9210
520.0,-1.520033,13.9410,588.9260
521.0,-1.484887,13.9510,588.9310
522.0,-1.440730,13.9510,588.9360
523.0,-1.418710,13.9610,588.9410
524.0,-1.399004,13.9611,588.9460
525.0,-1.385288,13.9717,588.9510
526.0,-1.367875,13.9717,588.9561
527.0,-1.350755,13.9811,588.9610
528.0,-1.320458,13.9811,588.9660
529.0,-1.302034,13.9911,588.9710
530.0,-1.283848,13.9911,588.9760
531.0,-1.274880,14.0011,588.9810
532.0,-1.264685,14.0011,588.9860
533.0,-1.253930,14.0111,588.9910
534.0,-1.233589,14.0111,588.9960
535.0,-1.215534,14.0212,589.0010
536.0,-1.192065,14.0212,589.0060
537.0,-1.180463,14.0312,589.0110
538.0,-1.168936,14.0312,589.0161
539.0,-1.155371,14.0412,589.0211
540.0,-1.129249,14.0412,589.0260
541.0,-1.108136,14.0512,589.0310
542.0,-1.067379,14.0512,589.0360
543.0,-1.037774,14.0613,589.0410
544.0,-0.988847,14.0613,589.0460
545.0,-0.951723,14.0713,589.0510
546.0,-0.906734,14.0713,589.0560
547.0,-0.884807,14.0814,589.0610
548.0,-0.869474,14.0814,589.0660
549.0,-0.862572,14.0914,589.0710
550.0,-0.844555,14.0914,589.0760
551.0,-0.823470,14.1008,589.0811
552.0,-0.791691,14.1008,589.0860
553.0,-0.769876,14.1114,589.0910
554.0,-0.745766,14.1114,589.0960
555.0,-0.733397,14.1208,589.1010
556.0,-0.715006,14.1208,589.1060
557.0,-0.702586,14.1315,589.1110
558.0,-0.688600,14.1315,589.1160
559.0,-0.672640,14.1409,589.1210
560.0,-0.642563,14.1409,589.1260
561.0,-0.623156,14.1515,589.1310
562.0,-0.603488,14.1515,589.1360
563.0,-0.594178,14.1615,589.1411
564.0,-0.583877,14.1615,589.1461
565.0,-0.573070,14.1715,589.1510
566.0,-0.559663,14.1715,589.1560
567.0,-0.549614,14.1816,589.1610
568.0,-0.533182,14.1816,589.1660
569.0,-0.519528,14.1916,589.1710
570.0,-0.502394,14.1916,589.1760
571.0,-0.482076,14.2010,589.1810
572.0,-0.447360,14.2010,589.1860
573.0,-0.421683,14.2116,589.1910
574.0,-0.391012,14.2116,589.1960
575.0,-0.374828,14.2210,589.2010
576.0,-0.355689,14.2210,589.2061
577.0,-0.339023,14.2317,589.2110
578.0,-0.310587,14.2317,589.2160
579.0,-0.286631,14.2411,589.2210
580.0,-0.254968,14.2411,589.2260
581.0,-0.237087,14.2517,589.2310
582.0,-0.212457,14.2518,589.2360
583.0,-0.194173,14.2618,589.2410
584.0,-0.177610,14.2618,589.2460
585.0,-0.170372,14.2718,589.2510
586.0,-0.165424,14.2718,589.2560
587.0,-0.156315,14.2812,589.2610
588.0,-0.138761,14.2812,589.2661
589.0,-0.122160,14.2918,589.2711
590.0,-0.096306,14.2918,589.2760
591.0,-0.082628,14.3018,589.2810
592.0,-0.073626,14.3018,589.2860
593.0,-0.069422,14.3118,589.2910
594.0,-0.067949,14.3118,589.2960
