Point No.,Normal Force [N],Gap [mm],Time [s]
1,4.095151,12.1180,193.3270
2,4.095550,12.1180,193.3320
3,4.096007,12.1180,193.3370
4,4.095834,12.1180,193.3420
5,4.094898,12.1180,193.3470
6,4.094604,12.1180,193.3520
7,4.092861,12.1187,193.3570
8,4.091242,12.1187,193.3620
9,4.089053,12.1205,193.3660
10,4.079641,12.1205,193.3710
11,4.074292,12.1237,193.3760
12,4.062592,12.1236,193.3810
13,4.050432,12.1286,193.3860
14,4.034323,12.1286,193.3910
15,4.021038,12.1336,193.3960
16,4.001202,12.1336,193.4020
17,3.975750,12.1386,193.4070
18,3.961085,12.1386,193.4120
19,3.934566,12.1436,193.4170
20,3.917892,12.1436,193.4220
21,3.888824,12.1485,193.4270
22,3.874104,12.1485,193.4320
23,3.848011,12.1529,193.4370
24,3.832196,12.1529,193.4420
25,3.804326,12.1585,193.4470
26,3.789246,12.1585,193.4520
27,3.764905,12.1635,193.4570
28,3.750470,12.1635,193.4620
29,3.724392,12.1684,193.4670
30,3.710737,12.1684,193.4710
31,3.696531,12.1728,193.4760
32,3.672430,12.1728,193.4810
33,3.656923,12.1784,193.4860
34,3.632518,12.1784,193.4910
35,3.620889,12.1834,193.4960
36,3.598645,12.1834,193.5010
37,3.584980,12.1884,193.5060
38,3.562464,12.1884,193.5110
39,3.550045,12.1927,193.5160
40,3.526205,12.1927,193.5210
41,3.512967,12.1983,193.5260
42,3.490634,12.1983,193.5310
43,3.479079,12.2033,193.5360
44,3.456184,12.2033,193.5410
45,3.444003,12.2083,193.5460
46,3.422390,12.2083,193.5510
47,3.411260,12.2126,193.5560
48,3.389642,12.2126,193.5610
49,3.377639,12.2182,193.5660
50,3.356844,12.2182,193.5710
51,3.346500,12.2232,193.5760
52,3.323797,12.2232,193.5810
53,3.311064,12.2282,193.5860
54,3.288174,12.2282,193.5910
55,3.277531,12.2332,193.5960
56,3.255544,12.2332,193.6010
57,3.245097,12.2382,193.6060
58,3.224087,12.2382,193.6110
59,3.215193,12.2431,193.6160
60,3.194800,12.2431,193.6210
61,3.183732,12.2481,193.6260
62,3.162156,12.2481,193.6310
63,3.152846,12.2525,193.6360
64,3.131036,12.2525,193.6410
65,3.120687,12.2581,193.6460
66,3.099645,12.2581,193.6510
67,3.091457,12.2631,193.6560
68,3.070596,12.2631,193.6610
69,3.059668,12.2681,193.6660
70,3.039191,12.2680,193.6710
71,3.030722,12.2724,193.6760
72,3.010180,12.2724,193.6810
73,3.000959,12.2780,193.6860
74,2.980150,12.2780,193.6910
75,2.972107,12.2830,193.6960
76,2.950750,12.2830,193.7010
77,2.940622,12.2880,193.7060
78,2.919210,12.2880,193.7110
79,2.911111,12.2923,193.7160
80,2.889834,12.2923,193.7210
81,2.881585,12.2979,193.7260
82,2.861908,12.2979,193.7310
83,2.855436,12.3029,193.7360
84,2.835446,12.3029,193.7410
85,2.826617,12.3079,193.7460
86,2.806725,12.3079,193.7510
87,2.799729,12.3123,193.7560
88,2.779406,12.3123,193.7610
89,2.770779,12.3179,193.7660
90,2.749909,12.3179,193.7710
91,2.743811,12.3229,193.7760
92,2.725018,12.3229,193.7810
93,2.717727,12.3279,193.7860
94,2.699593,12.3278,193.7910
95,2.693019,12.3328,193.7960
96,2.672467,12.3328,193.8010
97,2.664242,12.3378,193.8060
98,2.644097,12.3378,193.8110
99,2.638489,12.3428,193.8160
100,2.620898,12.3428,193.8210
101,2.613459,12.3478,193.8260
102,2.593290,12.3478,193.8310
103,2.586467,12.3522,193.8360
104,2.565925,12.3521,193.8410
105,2.559004,12.3578,193.8460
106,2.541819,12.3578,193.8510
107,2.537919,12.3627,193.8560
108,2.520145,12.3627,193.8610
109,2.512453,12.3677,193.8660
110,2.493005,12.3677,193.8710
111,2.486907,12.3727,193.8760
112,2.466570,12.3727,193.8810
113,2.460711,12.3777,193.8860
114,2.443694,12.3777,193.8910
115,2.440589,12.3827,193.8960
116,2.423657,12.3827,193.9010
117,2.416399,12.3877,193.9060
118,2.397227,12.3877,193.9110
119,2.392887,12.3920,193.9160
120,2.376147,12.3920,193.9210
121,2.370863,12.3976,193.9260
122,2.353931,12.3976,193.9310
123,2.350036,12.4026,193.9360
124,2.333944,12.4026,193.9410
125,2.328053,12.4076,193.9460
126,2.311298,12.4076,193.9510
127,2.307403,12.4120,193.9560
128,2.290882,12.4120,193.9610
129,2.285387,12.4182,193.9660
130,2.268436,12.4182,193.9710
131,2.264396,12.4226,193.9760
132,2.247805,12.4226,193.9810
133,2.242090,12.4276,193.9860
134,2.226654,12.4276,193.9910
135,2.223372,12.4326,193.9960
136,2.208754,12.4326,194.0010
137,2.204241,12.4376,194.0060
138,2.187332,12.4375,194.0110
139,2.184050,12.4425,194.0160
140,2.167992,12.4425,194.0210
141,2.163517,12.4475,194.0260
142,2.147828,12.4475,194.0310
143,2.145457,12.4519,194.0360
144,2.128632,12.4519,194.0410
145,2.124298,12.4575,194.0460
146,2.107225,12.4575,194.0510
147,2.105028,12.4625,194.0560
148,2.088216,12.4625,194.0610
149,2.083563,12.4675,194.0660
150,2.066458,12.4675,194.0710
151,2.063390,12.4725,194.0760
152,2.044643,12.4725,194.0810
153,2.040005,12.4775,194.0860
154,2.022319,12.4774,194.0910
155,2.020140,12.4824,194.0960
156,2.004686,12.4824,194.1010
157,2.000716,12.4874,194.1060
158,1.984049,12.4874,194.1110
159,1.980930,12.4918,194.1160
160,1.962759,12.4918,194.1210
161,1.959051,12.4974,194.1260
162,1.942259,12.4974,194.1310
163,1.941637,12.5024,194.1360
164,1.926164,12.5024,194.1410
165,1.921739,12.5074,194.1460
166,1.904003,12.5074,194.1510
167,1.901726,12.5124,194.1560
168,1.884498,12.5124,194.1610
169,1.880837,12.5174,194.1660
170,1.863610,12.5174,194.1710
171,1.862002,12.5223,194.1760
172,1.845724,12.5223,194.1810
173,1.842357,12.5273,194.1860
174,1.826640,12.5273,194.1910
175,1.825359,12.5317,194.1960
176,1.808922,12.5317,194.2010
177,1.805196,12.5373,194.2060
178,1.786851,12.5373,194.2110
179,1.785724,12.5423,194.2160
180,1.770816,12.5423,194.2210
181,1.768460,12.5473,194.2260
182,1.752439,12.5473,194.2310
183,1.750952,12.5517,194.2360
184,1.733622,12.5516,194.2410
185,1.729890,12.5579,194.2460
186,1.712972,12.5579,194.2510
187,1.713121,12.5623,194.2560
188,1.697410,12.5623,194.2610
189,1.694029,12.5672,194.2660
190,1.677489,12.5672,194.2710
191,1.676011,12.5722,194.2760
192,1.659144,12.5722,194.2810
193,1.656362,12.5772,194.2860
194,1.638597,12.5772,194.2910
195,1.638223,12.5822,194.2960
196,1.622825,12.5822,194.3010
197,1.620257,12.5872,194.3060
198,1.603259,12.5872,194.3110
199,1.601674,12.5922,194.3160
200,1.584073,12.5922,194.3210
201,1.581745,12.5972,194.3260
202,1.565789,12.5972,194.3310
203,1.567131,12.6022,194.3360
204,1.551293,12.6022,194.3410
205,1.548100,12.6072,194.3460
206,1.531260,12.6072,194.3510
207,1.530199,12.6122,194.3560
208,1.514169,12.6121,194.3610
209,1.511840,12.6171,194.3660
210,1.494665,12.6171,194.3710
211,1.494936,12.6221,194.3760
212,1.478859,12.6221,194.3810
213,1.475707,12.6271,194.3860
214,1.457676,12.6271,194.3910
215,1.456409,12.6321,194.3960
216,1.441085,12.6321,194.4010
217,1.439673,12.6371,194.4060
218,1.423498,12.6371,194.4110
219,1.423232,12.6421,194.4160
220,1.405803,12.6421,194.4210
221,1.402572,12.6471,194.4260
222,1.385532,12.6471,194.4310
223,1.385125,12.6521,194.4360
224,1.369652,12.6521,194.4410
225,1.367842,12.6571,194.4460
226,1.351251,12.6570,194.4510
227,1.351382,12.6620,194.4560
228,1.335731,12.6620,194.4610
229,1.333856,12.6670,194.4660
230,1.318419,12.6670,194.4710
231,1.317985,12.6714,194.4760
232,1.302951,12.6714,194.4810
233,1.301029,12.6770,194.4860
234,1.284031,12.6770,194.4910
235,1.284428,12.6820,194.4960
236,1.270255,12.6820,194.5010
237,1.268385,12.6870,194.5060
238,1.251700,12.6870,194.5110
239,1.250175,12.6914,194.5160
240,1.232976,12.6914,194.5210
241,1.230400,12.6976,194.5260
242,1.213781,12.6976,194.5310
243,1.214875,12.7020,194.5360
244,1.201159,12.7020,194.5410
245,1.199710,12.7070,194.5460
246,1.183956,12.7069,194.5510
247,1.183124,12.7113,194.5560
248,1.166776,12.7113,194.5610
249,1.165275,12.7169,194.5660
250,1.149109,12.7169,194.5710
251,1.149881,12.7219,194.5760
252,1.134361,12.7219,194.5810
253,1.132097,12.7269,194.5860
254,1.115661,12.7269,194.5910
255,1.115548,12.7313,194.5960
256,1.100383,12.7313,194.6010
257,1.098139,12.7369,194.6060
258,1.081085,12.7369,194.6110
259,1.081688,12.7419,194.6160
260,1.066275,12.7419,194.6210
261,1.063835,12.7469,194.6260
262,1.047398,12.7469,194.6310
263,1.047127,12.7519,194.6360
264,1.030980,12.7519,194.6410
265,1.029039,12.7569,194.6460
266,1.011611,12.7568,194.6510
267,1.011573,12.7618,194.6560
268,0.996184,12.7618,194.6610
269,0.994258,12.7668,194.6660
270,0.977414,12.7668,194.6710
271,0.977279,12.7712,194.6760
272,0.962296,12.7712,194.6810
273,0.960505,12.7768,194.6860
274,0.943577,12.7768,194.6910
275,0.943372,12.7818,194.6960
276,0.926402,12.7818,194.7010
277,0.924227,12.7868,194.7060
278,0.908800,12.7868,194.7110
279,0.908824,12.7918,194.7160
280,0.893884,12.7918,194.7210
281,0.892995,12.7968,194.7260
282,0.877129,12.7968,194.7310
283,0.876918,12.8018,194.7360
284,0.860744,12.8018,194.7410
285,0.858041,12.8068,194.7460
286,0.841113,12.8067,194.7510
287,0.841384,12.8111,194.7560
288,0.826776,12.8111,194.7610
289,0.825018,12.8167,194.7660
290,0.808094,12.8167,194.7710
291,0.807982,12.8217,194.7760
292,0.792822,12.8217,194.7810
293,0.790451,12.8267,194.7860
294,0.773879,12.8267,194.7910
295,0.774216,12.8311,194.7960
296,0.760131,12.8311,194.8010
297,0.758784,12.8367,194.8060
298,0.742184,12.8367,194.8110
299,0.741978,12.8417,194.8160
300,0.726715,12.8417,194.8210
301,0.725209,12.8417,194.8260
302,0.709670,12.8467,194.8310
303,0.710054,12.8467,194.8360
304,0.695174,12.8517,194.8410
305,0.693299,12.8567,194.8460
306,0.675352,12.8567,194.8510
307,0.675244,12.8616,194.8560
308,0.660786,12.8616,194.8610
309,0.659228,12.8666,194.8660
310,0.643732,12.8666,194.8710
311,0.643297,12.8710,194.8760
312,0.627360,12.8710,194.8810
313,0.625396,12.8766,194.8860
314,0.609067,12.8766,194.8910
315,0.610362,12.8810,194.8960
316,0.596413,12.8810,194.9010
317,0.594295,12.8860,194.9060
318,0.574926,12.8860,194.9110
319,0.573711,12.8860,194.9160
320,0.556909,12.8910,194.9210
321,0.555343,12.8910,194.9260
322,0.538602,12.8966,194.9310
323,0.540201,12.8966,194.9360
324,0.525812,12.9016,194.9410
325,0.524274,12.9066,194.9460
326,0.507220,12.9065,194.9510
327,0.506112,12.9109,194.9560
328,0.490737,12.9109,194.9610
329,0.489072,12.9165,194.9660
330,0.474286,12.9165,194.9710
331,0.474188,12.9209,194.9760
332,0.459649,12.9209,194.9810
333,0.456671,12.9259,194.9860
334,0.441754,12.9259,194.9910
335,0.441627,12.9309,194.9960
336,0.424545,12.9309,195.0010
337,0.422025,12.9365,195.0060
338,0.405373,12.9365,195.0110
339,0.406949,12.9365,195.0160
340,0.395735,12.9409,195.0210
341,0.394300,12.9409,195.0260
342,0.376563,12.9465,195.0310
343,0.374898,12.9508,195.0360
344,0.362717,12.9508,195.0410
345,0.362095,12.9565,195.0460
346,0.353528,12.9565,195.0510
347,0.355595,12.9608,195.0560
348,0.348267,12.9608,195.0610
349,0.348310,12.9658,195.0660
350,0.335254,12.9658,195.0710
351,0.335146,12.9708,195.0760
352,0.323390,12.9708,195.0810
353,0.321908,12.9758,195.0860
354,0.309516,12.9758,195.0910
355,0.311284,12.9808,195.0960
356,0.303446,12.9808,195.1010
357,0.302488,12.9808,195.1060
358,0.287697,12.9858,195.1110
359,0.287505,12.9858,195.1160
360,0.278401,12.9908,195.1210
361,0.278354,12.9908,195.1260
362,0.262469,12.9964,195.1310
363,0.260009,13.0008,195.1360
364,0.247805,13.0008,195.1410
365,0.246420,13.0058,195.1460
366,0.233075,13.0058,195.1510
367,0.231592,13.0108,195.1560
368,0.219546,13.0108,195.1610
369,0.220566,13.0158,195.1660
370,0.210049,13.0157,195.1710
371,0.211854,13.0208,195.1760
372,0.200832,13.0207,195.1810
373,0.201422,13.0257,195.1860
374,0.187805,13.0257,195.1910
375,0.185869,13.0257,195.1960
376,0.172560,13.0307,195.2010
377,0.171560,13.0307,195.2060
378,0.158265,13.0363,195.2110
379,0.159864,13.0363,195.2160
380,0.148665,13.0407,195.2210
381,0.148726,13.0407,195.2260
382,0.134393,13.0457,195.2310
383,0.131438,13.0507,195.2360
384,0.117447,13.0507,195.2410
385,0.117049,13.0557,195.2460
386,0.105162,13.0557,195.2510
387,0.108160,13.0607,195.2560
388,0.096816,13.0607,195.2610
389,0.096745,13.0657,195.2660
390,0.082937,13.0657,195.2710
391,0.081520,13.0707,195.2760
392,0.067449,13.0707,195.2810
393,0.066163,13.0707,195.2860
394,0.052803,13.0757,195.2910
395,0.052326,13.0757,195.2960
396,0.039500,13.0807,195.3010
397,0.038709,13.0806,195.3060
398,0.025812,13.0856,195.3110
399,0.025995,13.0856,195.3160
400,0.014047,13.0906,195.3210
401,0.012041,13.0906,195.3260
402,-0.002422,13.0956,195.3310
403,-0.001847,13.0956,195.3360
404,-0.012167,13.1006,195.3410
405,-0.012691,13.1006,195.3460
406,-0.024840,13.1056,195.3510
407,-0.025181,13.1056,195.3560
408,-0.037021,13.1100,195.3610
409,-0.038644,13.1100,195.3660
410,-0.051134,13.1156,195.3710
411,-0.049670,13.1156,195.3760
412,-0.059341,13.1206,195.3810
413,-0.060243,13.1206,195.3860
414,-0.073542,13.1256,195.3910
415,-0.074061,13.1256,195.3960
416,-0.084536,13.1306,195.4020
417,-0.086664,13.1356,195.4070
418,-0.097550,13.1356,195.4120
419,-0.098153,13.1406,195.4170
420,-0.107978,13.1406,195.4220
421,-0.111386,13.1456,195.4270
422,-0.122081,13.1456,195.4320
423,-0.123348,13.1499,195.4370
424,-0.133318,13.1499,195.4420
425,-0.135487,13.1555,195.4470
426,-0.145756,13.1555,195.4520
427,-0.145981,13.1605,195.4570
428,-0.155590,13.1605,195.4620
429,-0.157723,13.1655,195.4670
430,-0.167117,13.1655,195.4720
431,-0.167557,13.1699,195.4770
432,-0.176951,13.1699,195.4820
433,-0.179724,13.1755,195.4870
434,-0.190732,13.1755,195.4920
435,-0.190428,13.1805,195.4970
436,-0.199617,13.1805,195.5020
437,-0.201183,13.1855,195.5070
438,-0.210236,13.1855,195.5120
439,-0.209848,13.1899,195.5170
440,-0.219345,13.1899,195.5220
441,-0.221978,13.1955,195.5270
442,-0.232663,13.1955,195.5320
443,-0.233374,13.2005,195.5370
444,-0.243409,13.2005,195.5420
445,-0.245247,13.2055,195.5470
446,-0.254174,13.2055,195.5520
447,-0.254122,13.2098,195.5570
448,-0.263970,13.2098,195.5620
449,-0.267005,13.2155,195.5670
450,-0.278134,13.2155,195.5720
451,-0.276890,13.2205,195.5770
452,-0.284938,13.2205,195.5820
453,-0.286187,13.2255,195.5870
454,-0.296175,13.2255,195.5920
455,-0.296942,13.2305,195.5970
456,-0.306336,13.2304,195.6020
457,-0.308581,13.2354,195.6070
458,-0.318522,13.2354,195.6120
459,-0.317115,13.2404,195.6170
460,-0.325228,13.2404,195.6220
461,-0.326795,13.2454,195.6270
462,-0.336455,13.2454,195.6320
463,-0.336624,13.2498,195.6370
464,-0.345392,13.2498,195.6420
465,-0.347234,13.2554,195.6470
466,-0.357049,13.2554,195.6520
467,-0.356077,13.2604,195.6570
468,-0.364527,13.2604,195.6620
469,-0.366318,13.2654,195.6670
470,-0.376226,13.2654,195.6720
471,-0.376872,13.2704,195.6770
472,-0.386065,13.2704,195.6820
473,-0.388029,13.2754,195.6870
474,-0.397466,13.2754,195.6920
475,-0.397003,13.2804,195.6970
476,-0.405668,13.2804,195.7020
477,-0.406593,13.2854,195.7070
478,-0.415249,13.2854,195.7120
479,-0.415866,13.2898,195.7170
480,-0.425275,13.2897,195.7220
481,-0.428235,13.2954,195.7270
482,-0.438073,13.2954,195.7320
483,-0.436975,13.3004,195.7370
484,-0.444802,13.3004,195.7420
485,-0.445915,13.3054,195.7470
486,-0.454136,13.3054,195.7520
487,-0.453528,13.3097,195.7570
488,-0.461623,13.3097,195.7620
489,-0.462979,13.3154,195.7670
490,-0.472649,13.3153,195.7720
491,-0.472429,13.3203,195.7770
492,-0.479972,13.3203,195.7820
493,-0.480360,13.3253,195.7870
494,-0.488974,13.3253,195.7920
495,-0.488838,13.3297,195.7970
496,-0.497550,13.3297,195.8020
497,-0.500131,13.3353,195.8070
498,-0.509722,13.3353,195.8120
499,-0.507931,13.3403,195.8170
500,-0.514716,13.3403,195.8220
501,-0.515081,13.3453,195.8270
502,-0.523142,13.3453,195.8320
503,-0.522754,13.3497,195.8370
504,-0.530199,13.3497,195.8420
505,-0.531139,13.3553,195.8470
506,-0.539757,13.3553,195.8520
507,-0.537821,13.3603,195.8570
508,-0.544863,13.3603,195.8620
509,-0.545354,13.3653,195.8670
510,-0.553032,13.3653,195.8720
511,-0.551517,13.3703,195.8770
512,-0.558480,13.3703,195.8820
513,-0.558971,13.3753,195.8870
514,-0.566996,13.3753,195.8920
515,-0.564961,13.3803,195.8970
516,-0.571920,13.3803,195.9020
517,-0.571784,13.3853,195.9070
518,-0.579317,13.3853,195.9120
519,-0.577452,13.3897,195.9170
520,-0.583474,13.3897,195.9220
521,-0.583690,13.3953,195.9270
522,-0.591929,13.3953,195.9320
523,-0.591644,13.4003,195.9370
524,-0.599121,13.4003,195.9420
525,-0.600496,13.4053,195.9470
526,-0.608305,13.4053,195.9520
527,-0.607360,13.4103,195.9570
528,-0.613940,13.4103,195.9620
529,-0.614482,13.4153,195.9670
530,-0.622806,13.4153,195.9720
531,-0.622988,13.4203,195.9770
532,-0.630634,13.4203,195.9820
533,-0.631583,13.4253,195.9870
534,-0.639243,13.4252,195.9920
535,-0.639378,13.4296,195.9970
536,-0.647304,13.4296,196.0020
537,-0.649797,13.4352,196.0070
538,-0.658391,13.4352,196.0120
539,-0.657643,13.4402,196.0170
540,-0.664382,13.4402,196.0220
541,-0.665644,13.4452,196.0270
542,-0.673654,13.4452,196.0320
543,-0.672888,13.4496,196.0370
544,-0.679542,13.4496,196.0420
545,-0.680921,13.4552,196.0470
546,-0.688997,13.4552,196.0520
547,-0.687566,13.4602,196.0570
548,-0.693678,13.4602,196.0620
549,-0.694337,13.4652,196.0670
550,-0.701889,13.4652,196.0720
551,-0.701539,13.4696,196.0770
552,-0.707893,13.4696,196.0820
553,-0.708179,13.4752,196.0870
554,-0.715338,13.4752,196.0920
555,-0.713369,13.4802,196.0970
556,-0.718826,13.4802,196.1020
557,-0.718106,13.4852,196.1070
558,-0.724181,13.4852,196.1120
559,-0.721744,13.4896,196.1170
560,-0.726378,13.4896,196.1220
561,-0.725410,13.4952,196.1270
562,-0.731807,13.4952,196.1320
563,-0.729086,13.5002,196.1370
564,-0.733748,13.5002,196.1420
565,-0.731789,13.5052,196.1470
566,-0.736465,13.5052,196.1520
567,-0.731349,13.5102,196.1570
568,-0.734342,13.5102,196.1620
569,-0.731073,13.5152,196.1670
570,-0.735469,13.5152,196.1720
571,-0.731237,13.5202,196.1770
572,-0.735371,13.5202,196.1820
573,-0.734449,13.5252,196.1870
574,-0.740893,13.5252,196.1920
575,-0.740982,13.5296,196.1970
576,-0.746930,13.5296,196.2020
577,-0.748291,13.5352,196.2070
578,-0.754837,13.5352,196.2120
579,-0.753037,13.5402,196.2170
580,-0.757550,13.5402,196.2220
581,-0.756722,13.5452,196.2270
582,-0.762670,13.5452,196.2320
583,-0.762240,13.5502,196.2370
584,-0.768080,13.5502,196.2420
585,-0.769179,13.5552,196.2470
586,-0.775572,13.5552,196.2520
587,-0.773322,13.5602,196.2570
588,-0.777718,13.5602,196.2620
589,-0.777475,13.5652,196.2670
590,-0.783806,13.5652,196.2720
591,-0.783834,13.5695,196.2770
592,-0.789404,13.5695,196.2820
593,-0.790082,13.5752,196.2870
594,-0.795590,13.5752,196.2920
595,-0.793781,13.5802,196.2970
596,-0.799065,13.5802,196.3020
597,-0.800014,13.5852,196.3070
598,-0.806107,13.5851,196.3120
599,-0.805775,13.5895,196.3170
600,-0.810479,13.5895,196.3220
601,-0.810400,13.5951,196.3270
602,-0.816404,13.5951,196.3320
603,-0.815838,13.6001,196.3370
604,-0.820692,13.6001,196.3420
605,-0.820309,13.6051,196.3470
606,-0.825710,13.6051,196.3520
607,-0.825055,13.6095,196.3570
608,-0.829497,13.6095,196.3620
609,-0.830540,13.6151,196.3670
610,-0.837106,13.6151,196.3720
611,-0.837545,13.6201,196.3770
612,-0.842997,13.6201,196.3820
613,-0.844227,13.6251,196.3870
614,-0.849352,13.6251,196.3920
615,-0.848525,13.6295,196.3970
616,-0.853042,13.6295,196.4020
617,-0.854641,13.6351,196.4070
618,-0.861099,13.6351,196.4120
619,-0.861436,13.6401,196.4170
620,-0.866565,13.6401,196.4220
621,-0.867463,13.6451,196.4270
622,-0.873224,13.6451,196.4320
623,-0.873318,13.6501,196.4370
624,-0.877615,13.6501,196.4420
625,-0.877882,13.6551,196.4470
626,-0.882418,13.6551,196.4520
627,-0.880814,13.6601,196.4570
628,-0.883395,13.6601,196.4620
629,-0.880192,13.6651,196.4670
630,-0.882600,13.6651,196.4720
631,-0.878335,13.6695,196.4770
632,-0.880253,13.6695,196.4820
633,-0.878695,13.6751,196.4870
634,-0.881847,13.6751,196.4920
635,-0.879799,13.6801,196.4970
636,-0.883119,13.6801,196.5020
637,-0.882137,13.6851,196.5070
638,-0.886205,13.6851,196.5120
639,-0.884012,13.6901,196.5170
