Point No.,Normal Force [N],Gap [mm],Time [s]
1.0,4.195979,11.0394,1420
2.0,4.186770,11.0416,1420
3.0,4.121242,11.0507,1420
4.0,4.008017,11.0617,1420
5.0,3.891269,11.0750,1420
6.0,3.768476,11.0874,1420
7.0,3.655233,11.0999,1420
8.0,3.539873,11.1127,1420
9.0,3.435579,11.1247,1420
10.0,3.322474,11.1372,1420
11.0,3.220736,11.1496,1421
12.0,3.114705,11.1623,1421
13.0,3.015474,11.1745,1421
14.0,2.914271,11.1869,1421
15.0,2.820448,11.1994,1421
16.0,2.719823,11.2118,1421
17.0,2.628852,11.2243,1421
18.0,2.532103,11.2369,1421
19.0,2.442133,11.2491,1421
20.0,2.347789,11.2616,1421
21.0,2.265940,11.2740,1421
22.0,2.222829,11.2807,1421
23.0,2.105321,11.2990,1421
24.0,2.021436,11.3106,1421
25.0,1.923772,11.3238,1421
26.0,1.839786,11.3355,1421
27.0,1.748628,11.3487,1421
28.0,1.663747,11.3604,1421
29.0,1.570044,11.3736,1421
30.0,1.488498,11.3853,1421
31.0,1.396077,11.3985,1421
32.0,1.315438,11.4102,1421
33.0,1.230048,11.4226,1421
34.0,1.150782,11.4351,1421
35.0,1.065971,11.4483,1421
36.0,0.986961,11.4600,1421
37.0,0.902335,11.4732,1421
38.0,0.825103,11.4849,1421
39.0,0.745583,11.4981,1421
40.0,0.669553,11.5098,1421
41.0,0.586640,11.5231,1421
42.0,0.508347,11.5347,1421
43.0,0.430179,11.5480,1421
44.0,0.365575,11.5596,1421
45.0,0.305413,11.5729,1421
46.0,0.244110,11.5845,1421
47.0,0.177565,11.5978,1421
48.0,0.116882,11.6094,1421
49.0,0.051714,11.6219,1421
50.0,-0.006668,11.6344,1421
51.0,-0.068015,11.6477,1422
52.0,-0.125354,11.6593,1422
53.0,-0.186261,11.6718,1422
54.0,-0.243283,11.6842,1422
55.0,-0.301885,11.6975,1422
56.0,-0.352835,11.7092,1422
57.0,-0.401145,11.7203,1422
58.0,-0.450039,11.7341,1422
59.0,-0.499020,11.7473,1422
60.0,-0.547255,11.7582,1422
61.0,-0.608687,11.7718,1422
62.0,-0.655897,11.7834,1422
63.0,-0.707434,11.7972,1422
64.0,-0.750217,11.8075,1422
65.0,-0.794553,11.8206,1422
66.0,-0.834342,11.8333,1422
67.0,-0.876074,11.8466,1422
68.0,-0.908108,11.8582,1422
69.0,-0.948704,11.8700,1422
70.0,-0.986697,11.8823,1422
71.0,-1.031638,11.8948,1422
72.0,-1.071340,11.9073,1422
73.0,-1.111939,11.9198,1422
74.0,-1.147611,11.9324,1422
75.0,-1.182459,11.9447,1422
76.0,-1.213379,11.9572,1422
77.0,-1.245599,11.9697,1422
78.0,-1.276257,11.9822,1422
79.0,-1.307956,11.9946,1422
80.0,-1.339048,12.0071,1422
81.0,-1.368069,12.0196,1422
82.0,-1.396549,12.0321,1422
83.0,-1.424180,12.0446,1422
84.0,-1.451977,12.0571,1422
85.0,-1.485778,12.0695,1422
86.0,-1.503863,12.0820,1422
87.0,-1.526120,12.0945,1422
88.0,-1.531398,12.1068,1422
89.0,-1.542837,12.1190,1422
90.0,-1.552345,12.1316,1422
91.0,-1.552316,12.1439,1423
92.0,-1.572836,12.1570,1423
93.0,-1.594475,12.1690,1423
94.0,-1.605845,12.1813,1423
95.0,-1.630267,12.1944,1423
96.0,-1.641788,12.2069,1423
97.0,-1.662719,12.2189,1423
98.0,-1.689330,12.2324,1423
99.0,-1.701173,12.2438,1423
100.0,-1.723812,12.2574,1423
101.0,-1.748243,12.2688,1423
102.0,-1.772313,12.2821,1423
103.0,-1.792719,12.2943,1423
104.0,-1.810527,12.3074,1423
105.0,-1.830076,12.3188,1423
106.0,-1.829450,12.3324,1423
107.0,-1.806018,12.3442,1423
108.0,-1.818131,12.3574,1423
109.0,-1.820006,12.3687,1423
110.0,-1.837764,12.3820,1423
111.0,-1.844895,12.3943,1423
112.0,-1.858783,12.4070,1423
113.0,-1.852377,12.4188,1423
114.0,-1.868847,12.4323,1423
115.0,-1.886934,12.4443,1423
116.0,-1.906226,12.4573,1423
117.0,-1.921921,12.4687,1423
118.0,-1.923239,12.4820,1423
119.0,-1.934463,12.4943,1423
120.0,-1.949821,12.5070,1423
121.0,-1.963186,12.5187,1423
122.0,-1.980271,12.5323,1423
123.0,-2.002609,12.5436,1423
124.0,-2.008983,12.5573,1423
125.0,-2.024008,12.5686,1423
126.0,-2.024559,12.5826,1423
127.0,-2.017683,12.5941,1423
128.0,-2.016467,12.6069,1423
129.0,-2.024484,12.6192,1423
130.0,-2.010912,12.6323,1423
131.0,-2.017395,12.6436,1424
132.0,-2.031471,12.6572,1424
133.0,-2.042992,12.6686,1424
134.0,-2.035332,12.6813,1424
135.0,-1.987982,12.6942,1424
136.0,-1.978165,12.7070,1424
137.0,-1.991483,12.7187,1424
138.0,-1.978829,12.7313,1424
139.0,-1.966167,12.7443,1424
140.0,-1.980533,12.7573,1424
141.0,-1.993146,12.7686,1424
142.0,-2.006786,12.7819,1424
143.0,-2.021047,12.7941,1424
144.0,-2.032718,12.8072,1424
145.0,-2.041512,12.8187,1424
146.0,-2.057544,12.8313,1424
147.0,-2.065254,12.8436,1424
148.0,-2.078344,12.8561,1424
149.0,-2.073863,12.8677,1424
150.0,-2.058555,12.8811,1424
151.0,-2.061730,12.8936,1424
152.0,-2.010696,12.9069,1424
153.0,-1.997861,12.9178,1424
154.0,-1.979212,12.9311,1424
155.0,-1.956366,12.9428,1424
156.0,-1.921374,12.9562,1424
157.0,-1.869097,12.9679,1424
158.0,-1.834784,12.9812,1424
159.0,-1.830326,12.9929,1424
160.0,-1.755717,13.0063,1424
161.0,-1.721865,13.0179,1424
162.0,-1.714481,13.0313,1424
163.0,-1.690899,13.0430,1424
164.0,-1.697878,13.0563,1424
165.0,-1.689154,13.0680,1424
166.0,-1.619960,13.0813,1424
167.0,-1.459740,13.0929,1424
168.0,-1.398563,13.1063,1424
169.0,-1.400881,13.1181,1424
170.0,-1.402061,13.1310,1424
171.0,-1.354680,13.1425,1425
172.0,-1.313865,13.1563,1425
173.0,-1.284427,13.1676,1425
174.0,-1.270937,13.1811,1425
175.0,-1.250312,13.1932,1425
176.0,-1.208807,13.2060,1425
177.0,-1.202528,13.2178,1425
178.0,-1.202740,13.2316,1425
179.0,-1.200443,13.2430,1425
180.0,-1.200838,13.2564,1425
181.0,-1.170507,13.2676,1425
182.0,-1.153818,13.2816,1425
183.0,-1.133546,13.2931,1425
184.0,-1.076602,13.3064,1425
185.0,-0.972655,13.3180,1425
186.0,-0.937505,13.3313,1425
187.0,-0.885712,13.3434,1425
188.0,-0.817607,13.3566,1425
189.0,-0.729272,13.3681,1425
190.0,-0.678204,13.3815,1425
191.0,-0.618023,13.3936,1425
192.0,-0.540740,13.4070,1425
193.0,-0.495572,13.4182,1425
194.0,-0.428592,13.4320,1425
195.0,-0.399469,13.4437,1425
196.0,-0.360203,13.4571,1425
197.0,-0.359136,13.4687,1425
198.0,-0.356812,13.4821,1425
199.0,-0.358946,13.4937,1425
200.0,-0.322796,13.5071,1425
201.0,-0.285572,13.5188,1425
202.0,-0.253859,13.5321,1425
203.0,-0.213946,13.5438,1425
204.0,-0.169444,13.5572,1425
205.0,-0.119127,13.5689,1425
206.0,-0.113174,13.5822,1425
207.0,-0.113877,13.5939,1425
208.0,-0.113502,13.6072,1425
209.0,-0.112500,13.6189,1425
210.0,-0.101081,13.6322,1425
211.0,-0.060736,13.6439,1426
212.0,-0.060442,13.6573,1426
213.0,-0.058485,13.6689,1426
214.0,-0.057651,13.6823,1426
215.0,-0.058461,13.6939,1426
216.0,-0.056838,13.7064,1426
217.0,-0.056628,13.7189,1426
218.0,-0.036634,13.7323,1426
219.0,-0.002987,13.7440,1426
220.0,-0.002390,13.7565,1426
221.0,0.000660,13.7690,1426
222.0,-0.000997,13.7823,1426
223.0,-0.001067,13.7940,1426
224.0,-0.000367,13.8073,1426
225.0,-0.000527,13.8185,1426
226.0,-0.001598,13.8323,1426
227.0,-0.000408,13.8437,1426
228.0,-0.001453,13.8571,1426
229.0,-0.000051,13.8681,1426
230.0,-0.001342,13.8819,1426
231.0,-0.001328,13.8937,1426
232.0,-0.000244,13.9071,1426
233.0,-0.001164,13.9178,1426
234.0,-0.001970,13.9319,1426
235.0,-0.000561,13.9437,1426
236.0,-0.001012,13.9564,1426
237.0,-0.001151,13.9678,1426
238.0,-0.000804,13.9808,1426
239.0,-0.002658,13.9928,1426
240.0,0.000736,14.0058,1426
241.0,0.000507,14.0178,1426
242.0,-0.001987,14.0309,1426
243.0,-0.000329,14.0425,1426
244.0,-0.001514,14.0564,1426
245.0,-0.000649,14.0675,1426
246.0,-0.000392,14.0808,1426
247.0,-0.001581,14.0928,1426
248.0,-0.001108,14.1058,1426
249.0,-0.000577,14.1178,1426
250.0,-0.001488,14.1309,1426
251.0,-0.000477,14.1425,1427
252.0,-0.000782,14.1564,1427
253.0,0.001129,14.1675,1427
254.0,-0.001489,14.1808,1427
255.0,-0.001499,14.1928,1427
256.0,-0.001548,14.2058,1427
257.0,-0.000428,14.2178,1427
258.0,-0.000816,14.2309,1427
259.0,0.000196,14.2425,1427
260.0,0.000009,14.2564,1427
261.0,-0.000334,14.2675,1427
262.0,0.001949,14.2808,1427
263.0,-0.000743,14.2928,1427
264.0,0.001062,14.3058,1427
265.0,0.000432,14.3178,1427
266.0,-0.000595,14.3309,1427
267.0,-0.000093,14.3425,1427
268.0,-0.000387,14.3564,1427
269.0,-0.001555,14.3675,1427
270.0,-0.000308,14.3808,1427
271.0,-0.000882,14.3928,1427
272.0,-0.001003,14.4058,1427
273.0,0.000344,14.4178,1427
274.0,-0.001975,14.4309,1427
275.0,-0.000011,14.4425,1427
276.0,0.000336,14.4564,1427
277.0,0.000289,14.4675,1427
278.0,0.000353,14.4808,1427
279.0,-0.000964,14.4928,1427
280.0,0.000633,14.5058,1427
281.0,-0.001326,14.5178,1427
282.0,-0.000543,14.5309,1427
283.0,0.000332,14.5428,1427
284.0,-0.001436,14.5564,1427
285.0,0.000114,14.5675,1427
286.0,0.001421,14.5809,1427
287.0,-0.002394,14.5928,1427
288.0,-0.000020,14.6064,1427
289.0,-0.001196,14.6178,1427
290.0,-0.002520,14.6309,1427
291.0,-0.000645,14.6428,1428
292.0,-0.000313,14.6564,1428
293.0,0.000164,14.6678,1428
294.0,0.001980,14.6809,1428
295.0,-0.001661,14.6928,1428
296.0,0.000338,14.7064,1428
297.0,-0.000619,14.7178,1428
298.0,0.001940,14.7309,1428
299.0,-0.000348,14.7428,1428
300.0,-0.000646,14.7564,1428
301.0,0.000092,14.7678,1428
302.0,0.000815,14.7802,1428
303.0,-0.000521,14.7928,1428
304.0,0.000336,14.8064,1428
305.0,-0.001308,14.8171,1428
306.0,-0.000026,14.8302,1428
307.0,-0.001221,14.8428,1428
308.0,-0.000185,14.8564,1428
309.0,-0.001831,14.8671,1428
310.0,-0.000132,14.8808,1428
311.0,-0.000613,14.8919,1428
312.0,-0.000630,14.9050,1428
313.0,-0.000831,14.9178,1428
314.0,0.001698,14.9301,1428
315.0,-0.000207,14.9425,1428
316.0,0.000599,14.9564,1428
317.0,0.001319,14.9667,1428
318.0,0.000535,14.9801,1428
319.0,-0.000190,14.9919,1428
