Point No.,Normal Force [N],Gap [mm],Time [s]
1.0,4.002867,11.0436,944
2.0,3.998468,11.0447,944
3.0,3.961147,11.0517,944
4.0,3.860875,11.0627,944.1
5.0,3.726655,11.0759,944.1
6.0,3.603652,11.0892,944.1
7.0,3.495053,11.1008,944.1
8.0,3.381698,11.1141,944.2
9.0,3.276784,11.1254,944.2
10.0,3.161914,11.1388,944.2
11.0,3.064778,11.1499,944.2
12.0,2.957035,11.1632,944.3
13.0,2.860706,11.1754,944.3
14.0,2.758358,11.1881,944.3
15.0,2.665692,11.2000,944.3
16.0,2.564300,11.2136,944.4
17.0,2.476437,11.2246,944.4
18.0,2.377074,11.2384,944.4
19.0,2.291867,11.2495,944.4
20.0,2.206244,11.2634,944.5
21.0,2.128583,11.2747,944.5
22.0,2.082362,11.2811,944.5
23.0,1.948092,11.2996,944.5
24.0,1.858873,11.3115,944.6
25.0,1.764624,11.3242,944.6
26.0,1.680221,11.3363,944.6
27.0,1.588281,11.3491,944.6
28.0,1.501753,11.3608,944.7
29.0,1.409775,11.3743,944.7
30.0,1.325647,11.3856,944.7
31.0,1.236332,11.3995,944.7
32.0,1.155042,11.4106,944.8
33.0,1.067597,11.4238,944.8
34.0,0.986475,11.4359,944.8
35.0,0.901944,11.4493,944.8
36.0,0.822892,11.4604,944.9
37.0,0.735240,11.4739,944.9
38.0,0.660912,11.4857,944.9
39.0,0.573555,11.4988,944.9
40.0,0.489080,11.5101,945
41.0,0.411162,11.5234,945
42.0,0.340441,11.5356,945
43.0,0.275308,11.5486,945
44.0,0.211510,11.5600,945.1
45.0,0.136977,11.5735,945.1
46.0,0.077045,11.5855,945.1
47.0,0.016536,11.5984,945.1
48.0,-0.034812,11.6104,945.2
49.0,-0.101928,11.6231,945.2
50.0,-0.162365,11.6353,945.2
51.0,-0.230160,11.6480,945.2
52.0,-0.290279,11.6597,945.3
53.0,-0.355060,11.6732,945.3
54.0,-0.411249,11.6852,945.3
55.0,-0.473274,11.6982,945.3
56.0,-0.527172,11.7095,945.4
57.0,-0.587928,11.7228,945.4
58.0,-0.642553,11.7350,945.4
59.0,-0.699303,11.7477,945.4
60.0,-0.750023,11.7595,945.5
61.0,-0.808995,11.7720,945.5
62.0,-0.857179,11.7843,945.5
63.0,-0.908537,11.7979,945.5
64.0,-0.952722,11.8092,945.6
65.0,-1.005829,11.8225,945.6
66.0,-1.054239,11.8347,945.6
67.0,-1.098362,11.8475,945.6
68.0,-1.136017,11.8592,945.7
69.0,-1.178296,11.8724,945.7
70.0,-1.212421,11.8841,945.7
71.0,-1.251180,11.8974,945.7
72.0,-1.284213,11.9090,945.8
73.0,-1.332289,11.9215,945.8
74.0,-1.371230,11.9340,945.8
75.0,-1.413082,11.9473,945.8
76.0,-1.450452,11.9581,945.9
77.0,-1.494181,11.9722,945.9
78.0,-1.529872,11.9839,945.9
79.0,-1.568010,11.9972,945.9
80.0,-1.603837,12.0080,946
81.0,-1.639320,12.0222,946
82.0,-1.671151,12.0330,946
83.0,-1.700256,12.0463,946
84.0,-1.724323,12.0579,946.1
85.0,-1.751976,12.0713,946.1
86.0,-1.774445,12.0827,946.1
87.0,-1.809378,12.0960,946.1
88.0,-1.842212,12.1079,946.2
89.0,-1.877157,12.1206,946.2
90.0,-1.907694,12.1326,946.2
91.0,-1.941737,12.1455,946.2
92.0,-1.970962,12.1574,946.3
93.0,-2.004970,12.1707,946.3
94.0,-2.021461,12.1821,946.3
95.0,-2.045786,12.1959,946.3
96.0,-2.071769,12.2073,946.4
97.0,-2.095881,12.2204,946.4
98.0,-2.124845,12.2334,946.4
99.0,-2.150688,12.2454,946.4
100.0,-2.177493,12.2580,946.5
101.0,-2.205906,12.2706,946.5
102.0,-2.230406,12.2829,946.5
103.0,-2.238388,12.2960,946.5
104.0,-2.262445,12.3079,946.6
105.0,-2.265607,12.3203,946.6
106.0,-2.290963,12.3333,946.6
107.0,-2.316553,12.3457,946.6
108.0,-2.341497,12.3579,946.7
109.0,-2.352707,12.3705,946.7
110.0,-2.373224,12.3833,946.7
111.0,-2.397837,12.3957,946.7
112.0,-2.424266,12.4078,946.8
113.0,-2.448734,12.4204,946.8
114.0,-2.473573,12.4333,946.8
115.0,-2.463496,12.4458,946.8
116.0,-2.483149,12.4578,946.9
117.0,-2.509248,12.4708,946.9
118.0,-2.532598,12.4833,946.9
119.0,-2.557076,12.4956,946.9
120.0,-2.582011,12.5083,947
121.0,-2.602903,12.5208,947
122.0,-2.627280,12.5332,947
123.0,-2.648223,12.5457,947
124.0,-2.657396,12.5582,947.1
125.0,-2.641407,12.5707,947.1
126.0,-2.633993,12.5832,947.1
127.0,-2.651934,12.5957,947.1
128.0,-2.670341,12.6082,947.2
129.0,-2.689306,12.6207,947.2
130.0,-2.711282,12.6332,947.2
131.0,-2.719126,12.6457,947.2
132.0,-2.709218,12.6582,947.3
133.0,-2.729127,12.6707,947.3
134.0,-2.746790,12.6832,947.3
135.0,-2.767390,12.6957,947.3
136.0,-2.783744,12.7082,947.4
137.0,-2.801654,12.7206,947.4
138.0,-2.819590,12.7331,947.4
139.0,-2.833764,12.7456,947.4
140.0,-2.851890,12.7581,947.5
141.0,-2.867554,12.7706,947.5
142.0,-2.853297,12.7831,947.5
143.0,-2.805537,12.7956,947.5
144.0,-2.793185,12.8081,947.6
145.0,-2.763998,12.8202,947.6
146.0,-2.751434,12.8332,947.6
147.0,-2.725620,12.8455,947.6
148.0,-2.716957,12.8577,947.7
149.0,-2.685290,12.8703,947.7
150.0,-2.663097,12.8831,947.7
151.0,-2.663989,12.8955,947.7
152.0,-2.645560,12.9077,947.8
153.0,-2.577189,12.9201,947.8
154.0,-2.541732,12.9332,947.8
155.0,-2.484104,12.9452,947.8
156.0,-2.452367,12.9571,947.9
157.0,-2.450073,12.9704,947.9
158.0,-2.428537,12.9827,947.9
159.0,-2.421186,12.9949,947.9
160.0,-2.420703,13.0077,948
161.0,-2.395509,13.0203,948
162.0,-2.403249,13.0323,948
163.0,-2.411344,13.0444,948
164.0,-2.403473,13.0579,948.1
165.0,-2.353206,13.0705,948.1
166.0,-2.353702,13.0819,948.1
167.0,-2.364095,13.0950,948.1
168.0,-2.370068,13.1069,948.2
169.0,-2.377535,13.1194,948.2
170.0,-2.350438,13.1324,948.2
171.0,-2.324420,13.1445,948.2
172.0,-2.255184,13.1572,948.3
173.0,-2.231911,13.1696,948.3
174.0,-2.238561,13.1820,948.3
175.0,-2.248565,13.1950,948.3
176.0,-2.255225,13.2070,948.4
177.0,-2.262905,13.2195,948.4
178.0,-2.270902,13.2324,948.4
179.0,-2.253185,13.2445,948.4
180.0,-2.237556,13.2572,948.5
181.0,-2.244390,13.2696,948.5
182.0,-2.244803,13.2820,948.5
183.0,-2.246738,13.2950,948.5
184.0,-2.227160,13.3070,948.6
185.0,-2.221315,13.3195,948.6
186.0,-2.224437,13.3324,948.6
187.0,-2.159835,13.3446,948.6
188.0,-2.150894,13.3573,948.7
189.0,-2.122794,13.3697,948.7
190.0,-2.110789,13.3821,948.7
191.0,-2.079693,13.3951,948.7
192.0,-2.070924,13.4071,948.8
193.0,-2.075973,13.4196,948.8
194.0,-2.044095,13.4325,948.8
195.0,-2.036827,13.4446,948.8
196.0,-2.007922,13.4574,948.9
197.0,-1.997382,13.4698,948.9
198.0,-1.967463,13.4822,948.9
199.0,-1.923859,13.4952,948.9
200.0,-1.860967,13.5072,949
201.0,-1.838386,13.5199,949
202.0,-1.796569,13.5327,949
203.0,-1.751453,13.5453,949
204.0,-1.747441,13.5575,949.1
205.0,-1.747252,13.5699,949.1
206.0,-1.692225,13.5828,949.1
207.0,-1.635960,13.5954,949.1
208.0,-1.564464,13.6076,949.2
209.0,-1.535557,13.6200,949.2
210.0,-1.491149,13.6329,949.2
211.0,-1.347114,13.6456,949.2
212.0,-1.318034,13.6578,949.3
213.0,-1.272618,13.6702,949.3
214.0,-1.125851,13.6831,949.3
215.0,-0.998550,13.6958,949.3
216.0,-0.899523,13.7080,949.4
217.0,-0.872476,13.7204,949.4
218.0,-0.759013,13.7333,949.4
219.0,-0.676091,13.7460,949.4
220.0,-0.623732,13.7582,949.5
221.0,-0.580102,13.7706,949.5
222.0,-0.449143,13.7835,949.5
223.0,-0.398635,13.7961,949.5
224.0,-0.323614,13.8083,949.6
225.0,-0.319020,13.8208,949.6
226.0,-0.320819,13.8336,949.6
227.0,-0.319846,13.8462,949.6
228.0,-0.276261,13.8584,949.7
229.0,-0.216772,13.8708,949.7
230.0,-0.192213,13.8832,949.7
231.0,-0.151593,13.8963,949.7
232.0,-0.123481,13.9083,949.8
233.0,-0.121015,13.9208,949.8
234.0,-0.122757,13.9337,949.8
235.0,-0.121047,13.9458,949.8
236.0,-0.040714,13.9578,949.9
237.0,-0.005084,13.9709,949.9
238.0,-0.004329,13.9833,949.9
239.0,-0.004898,13.9964,949.9
240.0,-0.004313,14.0083,950
241.0,-0.004876,14.0208,950
242.0,-0.006317,14.0328,950
243.0,-0.003785,14.0450,950
244.0,-0.002372,14.0585,950.1
245.0,-0.005134,14.0709,950.1
246.0,-0.003763,14.0825,950.1
247.0,-0.004051,14.0954,950.1
248.0,-0.005045,14.1083,950.2
249.0,-0.003913,14.1200,950.2
250.0,-0.006284,14.1325,950.2
251.0,-0.006969,14.1442,950.2
252.0,-0.005654,14.1575,950.3
253.0,-0.005839,14.1692,950.3
254.0,-0.006965,14.1825,950.3
255.0,-0.005014,14.1942,950.3
256.0,-0.006906,14.2075,950.4
257.0,-0.003068,14.2192,950.4
258.0,-0.004109,14.2325,950.4
259.0,-0.004056,14.2442,950.4
260.0,-0.004276,14.2575,950.5
261.0,-0.004677,14.2692,950.5
262.0,-0.005137,14.2825,950.5
263.0,-0.006351,14.2942,950.5
264.0,-0.005518,14.3075,950.6
265.0,-0.005998,14.3192,950.6
266.0,-0.006643,14.3325,950.6
267.0,-0.004297,14.3442,950.6
268.0,-0.005597,14.3575,950.7
269.0,-0.003516,14.3692,950.7
270.0,-0.005539,14.3825,950.7
271.0,-0.005981,14.3947,950.7
272.0,-0.004296,14.4075,950.8
273.0,-0.003253,14.4193,950.8
274.0,-0.004728,14.4328,950.8
275.0,-0.002341,14.4442,950.8
276.0,-0.004481,14.4578,950.9
277.0,-0.004343,14.4692,950.9
278.0,-0.003942,14.4825,950.9
279.0,-0.004986,14.4947,950.9
280.0,-0.005101,14.5075,951
281.0,-0.004314,14.5193,951
282.0,-0.005762,14.5328,951
283.0,-0.004359,14.5442,951
284.0,-0.005689,14.5578,951.1
285.0,-0.002598,14.5692,951.1
286.0,-0.004872,14.5825,951.1
287.0,-0.005685,14.5947,951.1
288.0,-0.004389,14.6075,951.2
289.0,-0.006002,14.6193,951.2
290.0,-0.005804,14.6328,951.2
291.0,-0.003527,14.6442,951.2
292.0,-0.005212,14.6578,951.3
293.0,-0.004395,14.6692,951.3
294.0,-0.005045,14.6825,951.3
295.0,-0.004441,14.6947,951.3
296.0,-0.005898,14.7075,951.4
297.0,-0.004417,14.7193,951.4
298.0,-0.006575,14.7328,951.4
299.0,-0.003679,14.7442,951.4
300.0,-0.003574,14.7578,951.5
301.0,-0.004912,14.7692,951.5
302.0,-0.005874,14.7825,951.5
303.0,-0.005403,14.7947,951.5
304.0,-0.006027,14.8075,951.6
305.0,-0.004188,14.8193,951.6
306.0,-0.004012,14.8328,951.6
307.0,-0.003845,14.8442,951.6
308.0,-0.005616,14.8578,951.7
309.0,-0.005834,14.8692,951.7
310.0,-0.005149,14.8825,951.7
311.0,-0.004317,14.8947,951.7
312.0,-0.004763,14.9075,951.8
313.0,-0.004839,14.9192,951.8
314.0,-0.004882,14.9325,951.8
315.0,-0.002884,14.9442,951.8
316.0,-0.004558,14.9575,951.9
317.0,-0.004725,14.9679,951.9
318.0,-0.004597,14.9825,951.9
319.0,-0.005455,14.9941,951.9
