Point No.,Normal Force [N],Gap [mm],Time [s]
1.0,4.024728,11.4430,983.6071
2.0,4.020652,11.4433,983.6570
3.0,4.011909,11.4447,983.7061
4.0,4.000161,11.4460,983.7570
5.0,3.988883,11.4476,983.8071
6.0,3.979530,11.4491,983.8571
7.0,3.965581,11.4510,983.9070
8.0,3.956773,11.4520,983.9570
9.0,3.950286,11.4535,984.0070
10.0,3.940246,11.4552,984.0571
11.0,3.930967,11.4566,984.1071
12.0,3.923938,11.4578,984.1570
13.0,3.911657,11.4594,984.2070
14.0,3.896312,11.4609,984.2570
15.0,3.887691,11.4623,984.3071
16.0,3.878507,11.4638,984.3571
17.0,3.863182,11.4653,984.4070
18.0,3.852589,11.4669,984.4570
19.0,3.845361,11.4682,984.5070
20.0,3.828437,11.4702,984.5571
21.0,3.817506,11.4716,984.6071
22.0,3.806922,11.4727,984.6561
23.0,3.796584,11.4743,984.7061
24.0,3.783642,11.4756,984.7560
25.0,3.775441,11.4771,984.8060
26.0,3.765813,11.4787,984.8560
27.0,3.752009,11.4802,984.9061
28.0,3.740461,11.4816,984.9561
29.0,3.732303,11.4830,985.0060
30.0,3.719521,11.4845,985.0560
31.0,3.709164,11.4861,985.1060
32.0,3.701337,11.4874,985.1561
33.0,3.690701,11.4888,985.2061
34.0,3.675220,11.4911,985.2560
35.0,3.664113,11.4922,985.3060
36.0,3.657169,11.4934,985.3560
37.0,3.642405,11.4948,985.4061
38.0,3.633622,11.4963,985.4561
39.0,3.623939,11.4979,985.5060
40.0,3.612894,11.4992,985.5560
41.0,3.599752,11.5007,985.6060
42.0,3.591467,11.5023,985.6561
43.0,3.583367,11.5038,985.7061
44.0,3.569906,11.5052,985.7560
45.0,3.558698,11.5066,985.8060
46.0,3.551164,11.5081,985.8560
47.0,3.536600,11.5104,985.9061
48.0,3.524509,11.5116,985.9561
49.0,3.517180,11.5125,986.0060
50.0,3.507479,11.5141,986.0560
51.0,3.498151,11.5156,986.1060
52.0,3.490009,11.5171,986.1561
53.0,3.481711,11.5185,986.2061
54.0,3.469599,11.5200,986.2560
55.0,3.459731,11.5216,986.3060
56.0,3.452842,11.5228,986.3560
57.0,3.441611,11.5243,986.4061
58.0,3.430377,11.5259,986.4561
59.0,3.420901,11.5274,986.5060
60.0,3.410125,11.5290,986.5560
61.0,3.397870,11.5309,986.6060
62.0,3.388197,11.5320,986.6561
63.0,3.379611,11.5336,986.7061
64.0,3.370141,11.5351,986.7560
65.0,3.360056,11.5364,986.8060
66.0,3.353693,11.5378,986.8560
67.0,3.341021,11.5395,986.9061
68.0,3.328445,11.5409,986.9561
69.0,3.320739,11.5421,987.0060
70.0,3.311277,11.5436,987.0560
71.0,3.299307,11.5452,987.1060
72.0,3.291481,11.5467,987.1561
73.0,3.283245,11.5479,987.2061
74.0,3.269294,11.5502,987.2560
75.0,3.260115,11.5517,987.3060
76.0,3.251826,11.5527,987.3560
77.0,3.243392,11.5542,987.4061
78.0,3.232843,11.5554,987.4561
79.0,3.227289,11.5570,987.5060
80.0,3.216774,11.5585,987.5560
81.0,3.203770,11.5600,987.6060
82.0,3.193674,11.5614,987.6561
83.0,3.185827,11.5629,987.7061
84.0,3.177305,11.5645,987.7560
85.0,3.166177,11.5657,987.8060
86.0,3.157804,11.5672,987.8560
87.0,3.147166,11.5689,987.9061
88.0,3.134621,11.5710,987.9561
89.0,3.126361,11.5720,988.0060
90.0,3.115864,11.5732,988.0560
91.0,3.106472,11.5750,988.1060
92.0,3.094279,11.5763,988.1561
93.0,3.088200,11.5776,988.2061
94.0,3.079681,11.5792,988.2560
95.0,3.066607,11.5812,988.3060
96.0,3.061355,11.5822,988.3560
97.0,3.052737,11.5837,988.4070
98.0,3.045220,11.5851,988.4570
99.0,3.030986,11.5866,988.5070
100.0,3.029169,11.5882,988.5571
101.0,3.014452,11.5901,988.6071
102.0,3.003677,11.5916,988.6570
103.0,2.998223,11.5926,988.7070
104.0,2.986079,11.5945,988.7570
105.0,2.975933,11.5957,988.8071
106.0,2.967132,11.5969,988.8571
107.0,2.960897,11.5984,988.9070
108.0,2.947062,11.6006,988.9570
109.0,2.939491,11.6015,989.0070
110.0,2.933034,11.6028,989.0571
111.0,2.922762,11.6044,989.1071
112.0,2.914850,11.6059,989.1570
113.0,2.905816,11.6073,989.2070
114.0,2.894401,11.6089,989.2570
115.0,2.881742,11.6108,989.3071
116.0,2.875167,11.6119,989.3571
117.0,2.866302,11.6133,989.4070
118.0,2.855281,11.6152,989.4570
119.0,2.848121,11.6162,989.5070
120.0,2.840781,11.6177,989.5571
121.0,2.828886,11.6198,989.6071
122.0,2.820904,11.6210,989.6570
123.0,2.813348,11.6220,989.7070
124.0,2.804731,11.6236,989.7570
125.0,2.796085,11.6251,989.8071
126.0,2.786609,11.6266,989.8571
127.0,2.779409,11.6280,989.9070
128.0,2.763068,11.6301,989.9570
129.0,2.755145,11.6316,990.0070
130.0,2.749109,11.6326,990.0571
131.0,2.737411,11.6342,990.1071
132.0,2.727577,11.6355,990.1570
133.0,2.720101,11.6370,990.2070
134.0,2.712842,11.6383,990.2570
135.0,2.701451,11.6404,990.3071
136.0,2.692667,11.6413,990.3571
137.0,2.686226,11.6429,990.4070
138.0,2.674169,11.6444,990.4570
139.0,2.666148,11.6457,990.5070
140.0,2.657034,11.6473,990.5571
141.0,2.648449,11.6492,990.6071
142.0,2.636509,11.6509,990.6570
143.0,2.628233,11.6517,990.7070
144.0,2.621717,11.6532,990.7570
145.0,2.611105,11.6554,990.8071
146.0,2.603483,11.6563,990.8571
147.0,2.597486,11.6575,990.9070
148.0,2.586267,11.6595,990.9570
149.0,2.576681,11.6609,991.0070
150.0,2.569928,11.6622,991.0571
151.0,2.560839,11.6635,991.1071
152.0,2.551646,11.6650,991.1570
153.0,2.541892,11.6666,991.2070
154.0,2.534659,11.6681,991.2570
155.0,2.523238,11.6699,991.3071
156.0,2.512689,11.6714,991.3571
157.0,2.507052,11.6724,991.4070
158.0,2.495493,11.6745,991.4570
159.0,2.486942,11.6755,991.5070
160.0,2.480908,11.6768,991.5571
161.0,2.472191,11.6784,991.6071
162.0,2.462344,11.6805,991.6570
163.0,2.452821,11.6814,991.7070
164.0,2.446211,11.6827,991.7570
165.0,2.434631,11.6842,991.8071
166.0,2.427393,11.6858,991.8571
167.0,2.418581,11.6871,991.9070
168.0,2.407807,11.6889,991.9570
169.0,2.395139,11.6908,992.0070
170.0,2.388586,11.6918,992.0571
171.0,2.382157,11.6933,992.1071
172.0,2.371976,11.6951,992.1570
173.0,2.363713,11.6961,992.2070
174.0,2.357266,11.6976,992.2570
175.0,2.345983,11.6996,992.3071
176.0,2.337023,11.7008,992.3571
177.0,2.328482,11.7020,992.4070
178.0,2.321828,11.7038,992.4570
179.0,2.310753,11.7051,992.5070
180.0,2.302534,11.7064,992.5571
181.0,2.294089,11.7079,992.6071
182.0,2.282633,11.7101,992.6570
183.0,2.270531,11.7113,992.7070
184.0,2.266418,11.7123,992.7570
185.0,2.256309,11.7144,992.8071
186.0,2.246514,11.7154,992.8571
187.0,2.240848,11.7169,992.9070
188.0,2.233521,11.7182,992.9570
189.0,2.225042,11.7204,993.0070
190.0,2.219480,11.7213,993.0571
191.0,2.214164,11.7229,993.1071
192.0,2.206340,11.7241,993.1570
193.0,2.201682,11.7257,993.2070
194.0,2.195001,11.7272,993.2570
195.0,2.188436,11.7292,993.3071
196.0,2.180904,11.7307,993.3571
197.0,2.176839,11.7316,993.4070
198.0,2.168485,11.7332,993.4570
199.0,2.162206,11.7348,993.5070
200.0,2.152896,11.7362,993.5571
201.0,2.147608,11.7375,993.6071
202.0,2.135692,11.7396,993.6570
203.0,2.127779,11.7406,993.7070
204.0,2.119720,11.7419,993.7570
205.0,2.110372,11.7434,993.8071
206.0,2.102115,11.7449,993.8571
207.0,2.090446,11.7465,993.9070
208.0,2.083867,11.7477,993.9570
209.0,2.072643,11.7499,994.0070
210.0,2.063623,11.7512,994.0571
211.0,2.058023,11.7524,994.1071
212.0,2.045676,11.7542,994.1570
213.0,2.039242,11.7552,994.2070
214.0,2.031515,11.7567,994.2570
215.0,2.022582,11.7586,994.3071
216.0,2.010554,11.7602,994.3571
217.0,2.003510,11.7611,994.4070
218.0,1.995412,11.7627,994.4570
219.0,1.985132,11.7642,994.5070
220.0,1.977422,11.7658,994.5571
221.0,1.969217,11.7670,994.6071
222.0,1.957894,11.7691,994.6570
223.0,1.948164,11.7708,994.7070
224.0,1.942292,11.7717,994.7570
225.0,1.933150,11.7729,994.8071
226.0,1.925264,11.7745,994.8571
227.0,1.917655,11.7760,994.9070
228.0,1.910023,11.7776,994.9570
229.0,1.899377,11.7790,995.0070
230.0,1.889717,11.7804,995.0571
231.0,1.883412,11.7820,995.1071
232.0,1.873858,11.7835,995.1570
233.0,1.863636,11.7847,995.2070
234.0,1.857025,11.7864,995.2570
235.0,1.846100,11.7879,995.3071
236.0,1.833638,11.7901,995.3571
237.0,1.825896,11.7911,995.4070
238.0,1.819166,11.7922,995.4570
239.0,1.809980,11.7938,995.5070
240.0,1.800674,11.7953,995.5571
241.0,1.795182,11.7966,995.6071
242.0,1.785795,11.7982,995.6570
243.0,1.774833,11.8000,995.7070
244.0,1.765543,11.8013,995.7570
245.0,1.757145,11.8025,995.8071
246.0,1.748745,11.8040,995.8571
247.0,1.740806,11.8056,995.9070
248.0,1.733081,11.8071,995.9570
249.0,1.723460,11.8090,996.0070
250.0,1.713769,11.8104,996.0571
251.0,1.707903,11.8115,996.1071
252.0,1.698578,11.8133,996.1570
253.0,1.690276,11.8146,996.2070
254.0,1.683728,11.8158,996.2570
255.0,1.676777,11.8174,996.3071
256.0,1.666021,11.8190,996.3571
257.0,1.656718,11.8206,996.4070
258.0,1.650017,11.8218,996.4570
259.0,1.637410,11.8233,996.5070
260.0,1.630722,11.8249,996.5571
261.0,1.621890,11.8262,996.6071
262.0,1.613669,11.8277,996.6570
263.0,1.601654,11.8299,996.7070
264.0,1.595243,11.8308,996.7570
265.0,1.586260,11.8324,996.8071
266.0,1.576409,11.8336,996.8571
267.0,1.567902,11.8351,996.9070
268.0,1.561316,11.8368,996.9570
269.0,1.553439,11.8383,997.0070
270.0,1.541138,11.8395,997.0571
271.0,1.534021,11.8411,997.1071
272.0,1.525788,11.8426,997.1570
273.0,1.515666,11.8442,997.2070
274.0,1.508031,11.8455,997.2570
275.0,1.500705,11.8470,997.3071
276.0,1.489809,11.8488,997.3571
277.0,1.479992,11.8505,997.4070
278.0,1.473683,11.8515,997.4570
279.0,1.465147,11.8530,997.5070
280.0,1.456065,11.8544,997.5571
281.0,1.447953,11.8560,997.6071
282.0,1.441960,11.8573,997.6570
283.0,1.431648,11.8588,997.7070
284.0,1.422980,11.8604,997.7570
285.0,1.415941,11.8619,997.8071
286.0,1.404114,11.8633,997.8571
287.0,1.396600,11.8648,997.9070
288.0,1.390225,11.8662,997.9570
289.0,1.379919,11.8680,998.0070
290.0,1.370140,11.8697,998.0571
291.0,1.362535,11.8706,998.1071
292.0,1.355053,11.8722,998.1570
293.0,1.345129,11.8737,998.2070
294.0,1.335738,11.8752,998.2570
295.0,1.329691,11.8766,998.3071
296.0,1.318891,11.8781,998.3571
297.0,1.308707,11.8797,998.4070
298.0,1.303195,11.8809,998.4570
299.0,1.295656,11.8824,998.5070
300.0,1.285423,11.8840,998.5571
301.0,1.278475,11.8855,998.6071
302.0,1.272693,11.8868,998.6570
303.0,1.263193,11.8886,998.7070
304.0,1.254705,11.8901,998.7570
305.0,1.248855,11.8915,998.8071
306.0,1.239914,11.8930,998.8571
307.0,1.231776,11.8943,998.9070
308.0,1.225371,11.8959,998.9570
309.0,1.218482,11.8972,999.0070
310.0,1.206771,11.8990,999.0571
311.0,1.198728,11.9002,999.1071
312.0,1.191797,11.9017,999.1570
313.0,1.183939,11.9034,999.2070
314.0,1.174661,11.9049,999.2570
315.0,1.167273,11.9057,999.3071
316.0,1.160148,11.9077,999.3571
317.0,1.148559,11.9098,999.4070
318.0,1.140647,11.9108,999.4570
319.0,1.135242,11.9121,999.5070
320.0,1.125089,11.9136,999.5571
321.0,1.117752,11.9152,999.6071
322.0,1.112245,11.9165,999.6570
323.0,1.101186,11.9179,999.7070
324.0,1.092806,11.9196,999.7570
325.0,1.086290,11.9211,999.8071
326.0,1.078143,11.9227,999.8571
327.0,1.069715,11.9239,999.9070
328.0,1.061932,11.9254,999.9570
329.0,1.054439,11.9265,1000.0070
330.0,1.044419,11.9288,1000.0570
331.0,1.035439,11.9300,1000.1070
332.0,1.029585,11.9313,1000.1570
333.0,1.021406,11.9328,1000.2070
334.0,1.014334,11.9345,1000.2570
335.0,1.006933,11.9356,1000.3070
336.0,1.000761,11.9369,1000.3570
337.0,0.989426,11.9388,1000.4070
338.0,0.982096,11.9403,1000.4570
339.0,0.976580,11.9418,1000.5070
340.0,0.966573,11.9432,1000.5570
341.0,0.958977,11.9447,1000.6070
342.0,0.952529,11.9458,1000.6570
343.0,0.942779,11.9478,1000.7070
344.0,0.934158,11.9493,1000.7570
345.0,0.926776,11.9507,1000.8070
346.0,0.919538,11.9522,1000.8570
347.0,0.908382,11.9538,1000.9070
348.0,0.903391,11.9550,1000.9570
349.0,0.897662,11.9559,1001.0070
350.0,0.884704,11.9581,1001.0570
351.0,0.876690,11.9596,1001.1070
352.0,0.870803,11.9609,1001.1570
353.0,0.862940,11.9625,1001.2070
354.0,0.854646,11.9640,1001.2570
355.0,0.845889,11.9655,1001.3070
356.0,0.841106,11.9663,1001.3570
357.0,0.830060,11.9684,1001.4070
358.0,0.822641,11.9700,1001.4570
359.0,0.817491,11.9715,1001.5070
360.0,0.809482,11.9727,1001.5570
361.0,0.803183,11.9743,1001.6070
362.0,0.795883,11.9755,1001.6570
363.0,0.789999,11.9773,1001.7070
364.0,0.777868,11.9787,1001.7570
365.0,0.771472,11.9802,1001.8070
366.0,0.764275,11.9813,1001.8570
367.0,0.756857,11.9833,1001.9070
368.0,0.748254,11.9845,1001.9570
369.0,0.741971,11.9855,1002.0070
370.0,0.732511,11.9877,1002.0570
371.0,0.723417,11.9892,1002.1070
372.0,0.716679,11.9905,1002.1570
373.0,0.710262,11.9920,1002.2070
374.0,0.701217,11.9934,1002.2560
375.0,0.694921,11.9950,1002.3060
376.0,0.688621,11.9959,1002.3560
377.0,0.679950,11.9978,1002.4060
378.0,0.672557,11.9994,1002.4560
379.0,0.665013,12.0007,1002.5060
380.0,0.658034,12.0022,1002.5560
381.0,0.647595,12.0038,1002.6060
382.0,0.641741,12.0048,1002.6560
383.0,0.635287,12.0065,1002.7060
384.0,0.624221,12.0084,1002.7560
385.0,0.618400,12.0096,1002.8060
386.0,0.609404,12.0112,1002.8560
387.0,0.602051,12.0128,1002.9060
388.0,0.594174,12.0144,1002.9560
389.0,0.589552,12.0153,1003.0060
390.0,0.580398,12.0170,1003.0560
391.0,0.573359,12.0187,1003.1060
392.0,0.565821,12.0202,1003.1560
393.0,0.559860,12.0210,1003.2060
394.0,0.546633,12.0231,1003.2560
395.0,0.537850,12.0246,1003.3060
396.0,0.533156,12.0256,1003.3560
397.0,0.521573,12.0274,1003.4060
398.0,0.508594,12.0289,1003.4560
399.0,0.501467,12.0306,1003.5060
400.0,0.494303,12.0321,1003.5560
401.0,0.484687,12.0334,1003.6060
402.0,0.477376,12.0349,1003.6560
403.0,0.469901,12.0358,1003.7060
404.0,0.459500,12.0380,1003.7560
405.0,0.449988,12.0393,1003.8060
406.0,0.442305,12.0403,1003.8560
407.0,0.435450,12.0424,1003.9060
408.0,0.428283,12.0438,1003.9560
409.0,0.420143,12.0449,1004.0060
410.0,0.414948,12.0464,1004.0560
411.0,0.407584,12.0483,1004.1060
412.0,0.399873,12.0499,1004.1560
413.0,0.397040,12.0511,1004.2060
414.0,0.390284,12.0526,1004.2560
415.0,0.386802,12.0542,1004.3060
416.0,0.380276,12.0552,1004.3560
417.0,0.377313,12.0569,1004.4060
418.0,0.370014,12.0586,1004.4560
419.0,0.365543,12.0601,1004.5060
420.0,0.359028,12.0613,1004.5560
421.0,0.352356,12.0632,1004.6060
422.0,0.343517,12.0644,1004.6560
423.0,0.340642,12.0654,1004.7060
424.0,0.333342,12.0675,1004.7560
425.0,0.325177,12.0692,1004.8060
426.0,0.320938,12.0704,1004.8560
427.0,0.312423,12.0719,1004.9060
428.0,0.306567,12.0735,1004.9560
429.0,0.301683,12.0750,1005.0060
430.0,0.297104,12.0756,1005.0560
431.0,0.286941,12.0779,1005.1060
432.0,0.282181,12.0794,1005.1560
433.0,0.275046,12.0804,1005.2060
434.0,0.268169,12.0821,1005.2560
435.0,0.259629,12.0837,1005.3060
436.0,0.256205,12.0847,1005.3560
437.0,0.250901,12.0864,1005.4060
438.0,0.238757,12.0881,1005.4560
439.0,0.233579,12.0897,1005.5060
440.0,0.229624,12.0912,1005.5560
441.0,0.219329,12.0928,1005.6060
442.0,0.214690,12.0941,1005.6560
443.0,0.214470,12.0951,1005.7060
444.0,0.207528,12.0972,1005.7560
445.0,0.200751,12.0987,1005.8060
446.0,0.196759,12.1000,1005.8560
447.0,0.196237,12.1010,1005.9060
448.0,0.193656,12.1031,1005.9560
449.0,0.188114,12.1045,1006.0060
450.0,0.186440,12.1056,1006.0560
451.0,0.181684,12.1075,1006.1060
452.0,0.175821,12.1091,1006.1560
453.0,0.173335,12.1106,1006.2060
454.0,0.168077,12.1120,1006.2560
455.0,0.162474,12.1134,1006.3060
456.0,0.159580,12.1149,1006.3560
457.0,0.157349,12.1160,1006.4060
458.0,0.148628,12.1180,1006.4560
459.0,0.142750,12.1193,1006.5060
460.0,0.140108,12.1202,1006.5560
461.0,0.134439,12.1222,1006.6060
462.0,0.129246,12.1236,1006.6560
463.0,0.122617,12.1246,1006.7060
464.0,0.106076,12.1265,1006.7560
465.0,0.095482,12.1283,1006.8060
466.0,0.090842,12.1298,1006.8560
467.0,0.082766,12.1311,1006.9060
468.0,0.074644,12.1327,1006.9560
469.0,0.067201,12.1342,1007.0060
470.0,0.064082,12.1352,1007.0560
471.0,0.057544,12.1371,1007.1060
472.0,0.049948,12.1386,1007.1560
473.0,0.039637,12.1400,1007.2060
474.0,0.036242,12.1411,1007.2560
475.0,0.027338,12.1429,1007.3060
476.0,0.019926,12.1444,1007.3560
477.0,0.016266,12.1454,1007.4060
478.0,0.005563,12.1477,1007.4560
479.0,-0.000502,12.1489,1007.5060
480.0,-0.004786,12.1504,1007.5560
481.0,-0.011665,12.1520,1007.6060
482.0,-0.018633,12.1535,1007.6560
483.0,-0.023881,12.1545,1007.7060
484.0,-0.027253,12.1559,1007.7560
485.0,-0.035098,12.1579,1007.8060
486.0,-0.041609,12.1595,1007.8560
487.0,-0.045035,12.1604,1007.9060
488.0,-0.051250,12.1623,1007.9560
489.0,-0.056539,12.1639,1008.0060
490.0,-0.061662,12.1647,1008.0560
491.0,-0.066726,12.1666,1008.1060
492.0,-0.076398,12.1682,1008.1560
493.0,-0.080489,12.1697,1008.2060
494.0,-0.085674,12.1714,1008.2560
495.0,-0.094180,12.1728,1008.3060
496.0,-0.098807,12.1741,1008.3560
497.0,-0.103256,12.1751,1008.4060
498.0,-0.109947,12.1772,1008.4560
499.0,-0.118675,12.1788,1008.5060
500.0,-0.122449,12.1799,1008.5560
501.0,-0.126367,12.1809,1008.6060
502.0,-0.134498,12.1832,1008.6560
503.0,-0.137912,12.1843,1008.7060
504.0,-0.143406,12.1853,1008.7560
505.0,-0.151140,12.1875,1008.8060
506.0,-0.157985,12.1890,1008.8560
507.0,-0.162791,12.1905,1008.9060
508.0,-0.169367,12.1919,1008.9560
509.0,-0.175427,12.1934,1009.0060
510.0,-0.179978,12.1946,1009.0560
511.0,-0.184553,12.1960,1009.1060
512.0,-0.193775,12.1978,1009.1560
513.0,-0.198578,12.1994,1009.2060
514.0,-0.203826,12.2002,1009.2560
515.0,-0.208790,12.2025,1009.3060
516.0,-0.215389,12.2037,1009.3560
517.0,-0.220143,12.2046,1009.4060
518.0,-0.225464,12.2068,1009.4560
519.0,-0.233484,12.2084,1009.5060
520.0,-0.239282,12.2096,1009.5560
521.0,-0.243984,12.2112,1009.6060
522.0,-0.251492,12.2127,1009.6560
523.0,-0.255177,12.2143,1009.7060
524.0,-0.260711,12.2152,1009.7560
525.0,-0.266084,12.2171,1009.8060
526.0,-0.271628,12.2187,1009.8560
527.0,-0.275452,12.2198,1009.9060
528.0,-0.280961,12.2214,1009.9560
529.0,-0.286335,12.2231,1010.0060
530.0,-0.293560,12.2242,1010.0560
531.0,-0.298333,12.2257,1010.1060
532.0,-0.304949,12.2277,1010.1560
533.0,-0.312796,12.2289,1010.2060
534.0,-0.316562,12.2305,1010.2560
535.0,-0.322194,12.2320,1010.3060
536.0,-0.328173,12.2335,1010.3560
537.0,-0.333163,12.2348,1010.4060
538.0,-0.337660,12.2362,1010.4560
539.0,-0.344241,12.2380,1010.5060
540.0,-0.350403,12.2395,1010.5560
541.0,-0.354723,12.2404,1010.6060
542.0,-0.361174,12.2423,1010.6560
543.0,-0.366906,12.2438,1010.7060
544.0,-0.369797,12.2448,1010.7560
545.0,-0.378038,12.2467,1010.8060
546.0,-0.384384,12.2482,1010.8560
547.0,-0.390626,12.2498,1010.9060
548.0,-0.393258,12.2513,1010.9560
549.0,-0.400920,12.2526,1011.0060
550.0,-0.405570,12.2541,1011.0560
551.0,-0.410581,12.2551,1011.1060
552.0,-0.414926,12.2573,1011.1560
553.0,-0.421423,12.2585,1011.2060
554.0,-0.426757,12.2597,1011.2560
555.0,-0.430726,12.2616,1011.3060
556.0,-0.434467,12.2632,1011.3560
557.0,-0.439313,12.2641,1011.4060
558.0,-0.445872,12.2654,1011.4560
559.0,-0.451515,12.2675,1011.5060
560.0,-0.456171,12.2691,1011.5560
561.0,-0.461739,12.2704,1011.6060
562.0,-0.465579,12.2719,1011.6560
563.0,-0.471297,12.2735,1011.7060
564.0,-0.475585,12.2747,1011.7560
565.0,-0.480317,12.2762,1011.8060
566.0,-0.487997,12.2778,1011.8560
567.0,-0.494413,12.2794,1011.9060
568.0,-0.497436,12.2807,1011.9560
569.0,-0.502463,12.2823,1012.0060
570.0,-0.509156,12.2838,1012.0560
571.0,-0.514269,12.2847,1012.1060
572.0,-0.519076,12.2869,1012.1560
573.0,-0.525417,12.2884,1012.2060
574.0,-0.529182,12.2896,1012.2560
575.0,-0.534257,12.2912,1012.3060
576.0,-0.539417,12.2928,1012.3560
577.0,-0.543318,12.2941,1012.4060
578.0,-0.547967,12.2950,1012.4560
579.0,-0.554507,12.2972,1012.5060
580.0,-0.559868,12.2987,1012.5560
581.0,-0.562811,12.3000,1012.6060
582.0,-0.568963,12.3014,1012.6560
583.0,-0.574506,12.3030,1012.7060
584.0,-0.578869,12.3046,1012.7560
585.0,-0.583573,12.3055,1012.8060
586.0,-0.592423,12.3074,1012.8560
587.0,-0.595856,12.3089,1012.9060
588.0,-0.601292,12.3105,1012.9560
589.0,-0.607065,12.3120,1013.0060
590.0,-0.611627,12.3133,1013.0560
591.0,-0.616288,12.3146,1013.1060
592.0,-0.619296,12.3163,1013.1560
593.0,-0.625934,12.3180,1013.2060
594.0,-0.630633,12.3193,1013.2560
595.0,-0.634371,12.3203,1013.3060
596.0,-0.639360,12.3224,1013.3560
