Point No.,Normal Force [N],Gap [mm],Time [s]
1.0,4.249228,11.0444,127.6
2.0,4.241559,11.0463,127.6
3.0,4.187208,11.0541,127.6
4.0,4.075224,11.0664,127.6
5.0,3.953908,11.0788,127.7
6.0,3.837527,11.0921,127.7
7.0,3.726886,11.1037,127.7
8.0,3.608961,11.1169,127.7
9.0,3.503720,11.1281,127.8
10.0,3.393677,11.1418,127.8
11.0,3.288526,11.1528,127.8
12.0,3.181292,11.1665,127.8
13.0,3.084068,11.1781,127.9
14.0,2.983884,11.1909,127.9
15.0,2.888045,11.2025,127.9
16.0,2.788257,11.2164,127.9
17.0,2.696496,11.2274,128
18.0,2.596159,11.2407,128
19.0,2.507402,11.2527,128
20.0,2.411404,11.2658,128
21.0,2.323976,11.2772,128.1
22.0,2.277217,11.2852,128.1
23.0,2.162510,11.3021,128.1
24.0,2.081914,11.3146,128.1
25.0,1.989141,11.3270,128.2
26.0,1.903145,11.3395,128.2
27.0,1.808949,11.3514,128.2
28.0,1.722861,11.3644,128.2
29.0,1.630834,11.3768,128.3
30.0,1.547052,11.3892,128.3
31.0,1.454899,11.4017,128.3
32.0,1.367731,11.4147,128.3
33.0,1.280684,11.4266,128.4
34.0,1.201466,11.4390,128.4
35.0,1.116357,11.4513,128.4
36.0,1.035094,11.4639,128.4
37.0,0.951539,11.4764,128.5
38.0,0.871825,11.4872,128.5
39.0,0.788001,11.5011,128.5
40.0,0.712835,11.5138,128.5
41.0,0.630415,11.5262,128.6
42.0,0.550472,11.5387,128.6
43.0,0.466021,11.5511,128.6
44.0,0.399578,11.5636,128.6
45.0,0.333839,11.5755,128.7
46.0,0.279216,11.5878,128.7
47.0,0.215111,11.6010,128.7
48.0,0.152701,11.6118,128.7
49.0,0.091641,11.6254,128.8
50.0,0.031699,11.6367,128.8
51.0,-0.028351,11.6500,128.8
52.0,-0.085231,11.6616,128.8
53.0,-0.147075,11.6749,128.9
54.0,-0.201640,11.6865,128.9
55.0,-0.258865,11.6998,128.9
56.0,-0.312704,11.7120,128.9
57.0,-0.368610,11.7248,129
58.0,-0.424464,11.7364,129
59.0,-0.478665,11.7497,129
60.0,-0.523279,11.7615,129
61.0,-0.566607,11.7747,129.1
62.0,-0.614906,11.7863,129.1
63.0,-0.669231,11.7996,129.1
64.0,-0.711461,11.8112,129.1
65.0,-0.763688,11.8246,129.2
66.0,-0.810475,11.8362,129.2
67.0,-0.848749,11.8495,129.2
68.0,-0.884992,11.8606,129.2
69.0,-0.928939,11.8741,129.3
70.0,-0.968494,11.8861,129.3
71.0,-1.013297,11.8991,129.3
72.0,-1.056636,11.9104,129.3
73.0,-1.096868,11.9240,129.4
74.0,-1.132904,11.9360,129.4
75.0,-1.168402,11.9487,129.4
76.0,-1.198216,11.9603,129.4
77.0,-1.230338,11.9736,129.5
78.0,-1.256138,11.9853,129.5
79.0,-1.277131,11.9986,129.5
80.0,-1.304022,12.0104,129.5
81.0,-1.338967,12.0236,129.6
82.0,-1.369066,12.0352,129.6
83.0,-1.401916,12.0485,129.6
84.0,-1.433084,12.0602,129.6
85.0,-1.465309,12.0735,129.7
86.0,-1.487697,12.0852,129.7
87.0,-1.513885,12.0985,129.7
88.0,-1.543286,12.1101,129.7
89.0,-1.573320,12.1234,129.8
90.0,-1.600493,12.1351,129.8
91.0,-1.622834,12.1481,129.8
92.0,-1.650539,12.1601,129.8
93.0,-1.673879,12.1731,129.9
94.0,-1.678656,12.1851,129.9
95.0,-1.699503,12.1981,129.9
96.0,-1.726469,12.2094,129.9
97.0,-1.745713,12.2230,130
98.0,-1.766652,12.2366,130
99.0,-1.787711,12.2477,130
100.0,-1.813281,12.2616,130
101.0,-1.841096,12.2730,130.1
102.0,-1.868260,12.2860,130.1
103.0,-1.893519,12.2979,130.1
104.0,-1.919752,12.3111,130.1
105.0,-1.940515,12.3232,130.2
106.0,-1.962090,12.3364,130.2
107.0,-1.979739,12.3476,130.2
108.0,-1.967126,12.3603,130.2
109.0,-1.978357,12.3732,130.3
110.0,-1.980606,12.3859,130.3
111.0,-1.999589,12.3979,130.3
112.0,-2.026522,12.4106,130.3
113.0,-2.043452,12.4229,130.4
114.0,-2.063062,12.4364,130.4
115.0,-2.063251,12.4467,130.4
116.0,-2.084086,12.4606,130.4
117.0,-2.103997,12.4728,130.5
118.0,-2.122073,12.4858,130.5
119.0,-2.134458,12.4973,130.5
120.0,-2.140161,12.5114,130.5
121.0,-2.150351,12.5225,130.6
122.0,-2.140445,12.5356,130.6
123.0,-2.151053,12.5473,130.6
124.0,-2.168079,12.5608,130.6
125.0,-2.188294,12.5718,130.7
126.0,-2.190081,12.5855,130.7
127.0,-2.197154,12.5978,130.7
128.0,-2.211818,12.6099,130.7
129.0,-2.200501,12.6222,130.8
130.0,-2.193523,12.6347,130.8
131.0,-2.206121,12.6466,130.8
132.0,-2.222944,12.6592,130.8
133.0,-2.241579,12.6718,130.9
134.0,-2.247670,12.6841,130.9
135.0,-2.245926,12.6970,130.9
136.0,-2.262109,12.7091,130.9
137.0,-2.252688,12.7216,131
138.0,-2.262975,12.7346,131
139.0,-2.269608,12.7466,131
140.0,-2.265662,12.7591,131
141.0,-2.282234,12.7716,131.1
142.0,-2.280610,12.7847,131.1
143.0,-2.284015,12.7966,131.1
144.0,-2.300884,12.8096,131.1
145.0,-2.310264,12.8216,131.2
146.0,-2.322118,12.8340,131.2
147.0,-2.338895,12.8465,131.2
148.0,-2.342080,12.8590,131.2
149.0,-2.324087,12.8715,131.3
150.0,-2.321417,12.8840,131.3
151.0,-2.302693,12.8966,131.3
152.0,-2.311333,12.9091,131.3
153.0,-2.318111,12.9215,131.4
154.0,-2.329082,12.9340,131.4
155.0,-2.314525,12.9466,131.4
156.0,-2.261500,12.9591,131.4
157.0,-2.204444,12.9716,131.5
158.0,-2.120765,12.9842,131.5
159.0,-2.060483,12.9967,131.5
160.0,-2.048741,13.0092,131.5
161.0,-2.024517,13.0211,131.6
162.0,-2.001295,13.0341,131.6
163.0,-1.994037,13.0461,131.6
164.0,-1.972669,13.0587,131.6
165.0,-1.907590,13.0714,131.7
166.0,-1.875703,13.0837,131.7
167.0,-1.763200,13.0969,131.7
168.0,-1.693791,13.1089,131.7
169.0,-1.610034,13.1213,131.8
170.0,-1.596190,13.1339,131.8
171.0,-1.567244,13.1468,131.8
172.0,-1.512306,13.1589,131.8
173.0,-1.510846,13.1714,131.9
174.0,-1.511418,13.1844,131.9
175.0,-1.487268,13.1968,131.9
176.0,-1.428027,13.2089,131.9
177.0,-1.397504,13.2215,132
178.0,-1.367920,13.2345,132
179.0,-1.328957,13.2465,132
180.0,-1.266624,13.2596,132
181.0,-1.219993,13.2716,132.1
182.0,-1.176679,13.2841,132.1
183.0,-1.047352,13.2967,132.1
184.0,-0.928684,13.3092,132.1
185.0,-0.864186,13.3220,132.2
186.0,-0.855072,13.3343,132.2
187.0,-0.734852,13.3469,132.2
188.0,-0.703373,13.3595,132.2
189.0,-0.669420,13.3719,132.3
190.0,-0.591267,13.3850,132.3
191.0,-0.551669,13.3970,132.3
192.0,-0.543074,13.4096,132.3
193.0,-0.471963,13.4220,132.4
194.0,-0.436731,13.4351,132.4
195.0,-0.416534,13.4470,132.4
196.0,-0.382683,13.4597,132.4
197.0,-0.365723,13.4723,132.5
198.0,-0.355197,13.4846,132.5
199.0,-0.282851,13.4975,132.5
200.0,-0.265947,13.5092,132.5
201.0,-0.216949,13.5222,132.6
202.0,-0.178083,13.5353,132.6
203.0,-0.157921,13.5472,132.6
204.0,-0.139998,13.5598,132.6
205.0,-0.065724,13.5725,132.7
206.0,-0.051767,13.5841,132.7
207.0,-0.048634,13.5977,132.7
208.0,-0.005467,13.6098,132.7
209.0,0.001369,13.6223,132.8
210.0,0.002234,13.6344,132.8
211.0,0.001491,13.6470,132.8
212.0,0.003327,13.6599,132.8
213.0,0.002373,13.6725,132.9
214.0,0.002471,13.6844,132.9
215.0,0.001742,13.6970,132.9
216.0,0.003495,13.7090,132.9
217.0,0.002257,13.7215,133
218.0,0.001959,13.7344,133
219.0,0.002827,13.7465,133
220.0,0.002495,13.7590,133
221.0,0.002005,13.7715,133.1
222.0,0.003240,13.7840,133.1
223.0,0.002283,13.7970,133.1
224.0,0.003744,13.8090,133.1
225.0,0.001573,13.8215,133.2
226.0,0.002614,13.8340,133.2
227.0,0.001588,13.8465,133.2
228.0,0.003108,13.8590,133.2
229.0,0.001220,13.8715,133.3
230.0,0.002291,13.8840,133.3
231.0,0.002782,13.8965,133.3
232.0,0.002029,13.9090,133.3
233.0,0.002811,13.9215,133.4
234.0,0.001753,13.9340,133.4
235.0,0.002403,13.9465,133.4
236.0,0.002572,13.9590,133.4
237.0,0.002166,13.9715,133.5
238.0,0.002190,13.9840,133.5
239.0,0.001177,13.9965,133.5
240.0,0.002815,14.0090,133.5
241.0,0.003785,14.0209,133.6
242.0,0.001457,14.0338,133.6
243.0,0.002236,14.0464,133.6
244.0,0.004757,14.0585,133.6
245.0,0.001281,14.0709,133.7
246.0,0.003919,14.0838,133.7
247.0,0.002594,14.0964,133.7
248.0,0.002711,14.1085,133.7
249.0,0.002544,14.1208,133.8
250.0,0.002919,14.1338,133.8
251.0,0.003107,14.1458,133.8
252.0,0.004531,14.1585,133.8
253.0,0.001106,14.1709,133.9
254.0,0.003494,14.1833,133.9
255.0,0.000931,14.1964,133.9
256.0,0.001090,14.2085,133.9
257.0,0.002599,14.2208,134
258.0,0.001372,14.2338,134
259.0,0.002743,14.2459,134
260.0,0.004095,14.2585,134
261.0,0.001089,14.2709,134.1
262.0,0.002655,14.2833,134.1
263.0,0.002395,14.2964,134.1
264.0,0.002501,14.3085,134.1
265.0,0.000886,14.3208,134.2
266.0,0.002276,14.3338,134.2
267.0,0.002618,14.3465,134.2
268.0,0.003063,14.3585,134.2
269.0,0.001856,14.3709,134.3
270.0,0.001695,14.3838,134.3
271.0,0.002528,14.3964,134.3
272.0,0.004599,14.4090,134.3
273.0,0.003515,14.4209,134.4
274.0,0.001063,14.4338,134.4
275.0,0.003086,14.4464,134.4
276.0,0.002736,14.4590,134.4
277.0,0.002676,14.4709,134.5
278.0,0.004714,14.4838,134.5
279.0,0.001775,14.4964,134.5
280.0,0.002656,14.5090,134.5
281.0,0.002985,14.5209,134.6
282.0,0.002507,14.5340,134.6
283.0,0.002387,14.5465,134.6
284.0,0.003931,14.5585,134.6
285.0,0.001289,14.5715,134.7
286.0,0.002438,14.5828,134.7
287.0,0.002101,14.5965,134.7
288.0,0.002400,14.6090,134.7
289.0,0.003606,14.6215,134.8
290.0,0.001676,14.6340,134.8
291.0,0.003916,14.6456,134.8
292.0,0.003467,14.6581,134.8
293.0,0.004590,14.6706,134.9
294.0,0.002680,14.6831,134.9
295.0,0.003574,14.6965,134.9
296.0,0.002989,14.7090,134.9
297.0,0.003839,14.7198,135
298.0,0.002525,14.7331,135
299.0,0.003376,14.7448,135
300.0,0.004223,14.7581,135
301.0,0.002884,14.7698,135.1
302.0,0.004062,14.7831,135.1
303.0,0.001789,14.7947,135.1
304.0,0.003031,14.8078,135.1
305.0,0.004520,14.8193,135.2
306.0,0.001369,14.8328,135.2
307.0,0.003297,14.8447,135.2
308.0,0.004242,14.8578,135.2
309.0,0.002429,14.8693,135.3
310.0,0.003551,14.8828,135.3
311.0,0.003573,14.8947,135.3
312.0,0.003962,14.9078,135.3
313.0,0.004646,14.9193,135.4
314.0,0.001500,14.9328,135.4
315.0,0.003014,14.9442,135.4
316.0,0.004368,14.9578,135.4
317.0,0.003925,14.9692,135.5
318.0,0.002726,14.9825,135.5
319.0,0.001480,14.9947,135.5
