Point No.,Normal Force [N],Gap [mm],Time [s]
1.0,4.274688,11.3975,356.9690
2.0,4.273902,11.3975,356.9740
3.0,4.272439,11.3975,356.9790
4.0,4.271275,11.3975,356.9840
5.0,4.270390,11.3981,356.9890
6.0,4.270344,11.3981,356.9940
7.0,4.271036,11.3981,356.9990
8.0,4.271046,11.3981,357.0040
9.0,4.269913,11.3981,357.0080
10.0,4.261450,11.4013,357.0130
11.0,4.255951,11.4013,357.0180
12.0,4.244925,11.4038,357.0230
13.0,4.231448,11.4037,357.0280
14.0,4.211340,11.4081,357.0330
15.0,4.197102,11.4081,357.0380
16.0,4.168819,11.4137,357.0440
17.0,4.139098,11.4187,357.0490
18.0,4.117718,11.4187,357.0540
19.0,4.082189,11.4187,357.0590
20.0,4.059756,11.4268,357.0640
21.0,4.026313,11.4268,357.0690
22.0,3.999135,11.4349,357.0740
23.0,3.960632,11.4348,357.0790
24.0,3.931588,11.4442,357.0840
25.0,3.890017,11.4442,357.0890
26.0,3.857798,11.4542,357.0940
27.0,3.811434,11.4541,357.0990
28.0,3.776647,11.4647,357.1040
29.0,3.722979,11.4647,357.1090
30.0,3.682941,11.4772,357.1130
31.0,3.646608,11.4772,357.1180
32.0,3.585962,11.4896,357.1230
33.0,3.545747,11.4896,357.1280
34.0,3.486061,11.5033,357.1330
35.0,3.443395,11.5033,357.1380
36.0,3.378064,11.5182,357.1430
37.0,3.337400,11.5182,357.1480
38.0,3.269021,11.5332,357.1530
39.0,3.222731,11.5332,357.1580
40.0,3.152536,11.5494,357.1630
41.0,3.105658,11.5493,357.1680
42.0,3.035937,11.5668,357.1730
43.0,2.986336,11.5668,357.1780
44.0,2.913632,11.5855,357.1830
45.0,2.863783,11.5854,357.1880
46.0,2.788132,11.6048,357.1930
47.0,2.738420,11.6047,357.1980
48.0,2.660402,11.6247,357.2030
49.0,2.608038,11.6247,357.2080
50.0,2.527244,11.6465,357.2130
51.0,2.473472,11.6465,357.2180
52.0,2.390493,11.6683,357.2230
53.0,2.336983,11.6683,357.2280
54.0,2.260285,11.6932,357.2330
55.0,2.207973,11.6932,357.2380
56.0,2.127351,11.7169,357.2430
57.0,2.070765,11.7168,357.2480
58.0,1.982572,11.7418,357.2530
59.0,1.922815,11.7418,357.2580
60.0,1.829376,11.7673,357.2630
61.0,1.767688,11.7673,357.2680
62.0,1.673500,11.7935,357.2730
63.0,1.607973,11.7934,357.2780
64.0,1.507940,11.8215,357.2830
65.0,1.443965,11.8215,357.2880
66.0,1.340491,11.8502,357.2930
67.0,1.271354,11.8501,357.2980
68.0,1.168740,11.8801,357.3030
69.0,1.100561,11.8800,357.3080
70.0,0.997994,11.9100,357.3130
71.0,0.930624,11.9099,357.3180
72.0,0.829628,11.9424,357.3230
73.0,0.762647,11.9423,357.3280
74.0,0.659794,11.9716,357.3330
75.0,0.593874,11.9716,357.3380
76.0,0.490783,12.0015,357.3430
77.0,0.421655,12.0015,357.3480
78.0,0.326584,12.0308,357.3530
79.0,0.274370,12.0308,357.3580
80.0,0.197353,12.0614,357.3630
81.0,0.142469,12.0613,357.3680
82.0,0.058555,12.0913,357.3730
83.0,0.004947,12.0913,357.3780
84.0,-0.073776,12.1218,357.3830
85.0,-0.125686,12.1218,357.3880
86.0,-0.203610,12.1518,357.3930
87.0,-0.257335,12.1517,357.3980
88.0,-0.334917,12.1817,357.4030
89.0,-0.385312,12.1816,357.4080
90.0,-0.459364,12.2122,357.4130
91.0,-0.508188,12.2122,357.4180
92.0,-0.579789,12.2440,357.4230
93.0,-0.626668,12.2440,357.4280
94.0,-0.696703,12.2733,357.4330
95.0,-0.744134,12.2733,357.4380
96.0,-0.811695,12.3033,357.4430
97.0,-0.854089,12.3032,357.4480
98.0,-0.918190,12.3332,357.4530
99.0,-0.960094,12.3332,357.4580
100.0,-1.021188,12.3631,357.4630
101.0,-1.060355,12.3631,357.4680
102.0,-1.116760,12.3937,357.4730
103.0,-1.151775,12.3937,357.4780
104.0,-1.201936,12.4237,357.4830
105.0,-1.234618,12.4236,357.4880
106.0,-1.285345,12.4542,357.4930
107.0,-1.320089,12.4542,357.4980
108.0,-1.372205,12.4842,357.5030
109.0,-1.406257,12.4842,357.5080
110.0,-1.456717,12.5160,357.5130
111.0,-1.491274,12.5160,357.5180
112.0,-1.541763,12.5460,357.5230
113.0,-1.573561,12.5459,357.5280
114.0,-1.619607,12.5759,357.5330
115.0,-1.649661,12.5759,357.5380
116.0,-1.693365,12.6053,357.5430
117.0,-1.722567,12.6052,357.5480
118.0,-1.764391,12.6358,357.5530
119.0,-1.791966,12.6358,357.5580
120.0,-1.832177,12.6658,357.5630
121.0,-1.859762,12.6658,357.5680
122.0,-1.900636,12.6964,357.5730
123.0,-1.927907,12.6964,357.5780
124.0,-1.968745,12.7263,357.5830
125.0,-1.992939,12.7263,357.5880
126.0,-2.027477,12.7569,357.5930
127.0,-2.050914,12.7569,357.5980
128.0,-2.087286,12.7881,357.6030
129.0,-2.112448,12.7881,357.6080
130.0,-2.151653,12.8181,357.6130
131.0,-2.177676,12.8181,357.6180
132.0,-2.214389,12.8481,357.6230
133.0,-2.235497,12.8481,357.6280
134.0,-2.265167,12.8780,357.6330
135.0,-2.286247,12.8780,357.6380
136.0,-2.319126,12.9074,357.6430
137.0,-2.341931,12.9074,357.6480
138.0,-2.376068,12.9380,357.6530
139.0,-2.398840,12.9380,357.6580
140.0,-2.432864,12.9679,357.6630
141.0,-2.455305,12.9679,357.6680
142.0,-2.488277,12.9985,357.6730
143.0,-2.509764,12.9985,357.6780
144.0,-2.539009,13.0285,357.6830
145.0,-2.555609,13.0285,357.6880
146.0,-2.578817,13.0591,357.6930
147.0,-2.594707,13.0591,357.6980
148.0,-2.619233,13.0903,357.7030
149.0,-2.635562,13.0903,357.7080
150.0,-2.661057,13.1203,357.7130
151.0,-2.676853,13.1203,357.7180
152.0,-2.699238,13.1497,357.7230
153.0,-2.713336,13.1497,357.7280
154.0,-2.733033,13.1796,357.7330
155.0,-2.740912,13.1796,357.7380
156.0,-2.748721,13.2103,357.7430
157.0,-2.754394,13.2103,357.7480
158.0,-2.760861,13.2402,357.7530
159.0,-2.764985,13.2402,357.7580
160.0,-2.774323,13.2709,357.7630
161.0,-2.778761,13.2709,357.7680
162.0,-2.779364,13.3009,357.7730
163.0,-2.779579,13.3009,357.7780
164.0,-2.780809,13.3315,357.7830
165.0,-2.776671,13.3315,357.7880
166.0,-2.769595,13.3634,357.7930
167.0,-2.762937,13.3634,357.7980
168.0,-2.757438,13.3927,357.8030
169.0,-2.758377,13.3927,357.8080
170.0,-2.760360,13.4227,357.8130
171.0,-2.754997,13.4228,357.8180
172.0,-2.743596,13.4528,357.8230
173.0,-2.735441,13.4528,357.8280
174.0,-2.710675,13.4828,357.8330
175.0,-2.690961,13.4828,357.8380
176.0,-2.664494,13.5134,357.8430
177.0,-2.651125,13.5134,357.8480
178.0,-2.633758,13.5434,357.8530
179.0,-2.619219,13.5435,357.8580
180.0,-2.586864,13.5741,357.8630
181.0,-2.554950,13.5741,357.8680
182.0,-2.499556,13.6042,357.8730
183.0,-2.466046,13.6042,357.8780
184.0,-2.428544,13.6361,357.8830
185.0,-2.409764,13.6361,357.8880
186.0,-2.375969,13.6661,357.8930
187.0,-2.342301,13.6661,357.8980
188.0,-2.281482,13.6962,357.9030
189.0,-2.243087,13.6962,357.9080
190.0,-2.194730,13.7256,357.9130
191.0,-2.162586,13.7256,357.9180
192.0,-2.121974,13.7562,357.9230
193.0,-2.094838,13.7563,357.9280
194.0,-2.031181,13.7863,357.9330
195.0,-1.972032,13.7863,357.9380
196.0,-1.878485,13.8164,357.9430
197.0,-1.825948,13.8164,357.9480
198.0,-1.761726,13.8471,357.9530
199.0,-1.724905,13.8471,357.9580
200.0,-1.666584,13.8771,357.9630
201.0,-1.626486,13.8772,357.9680
202.0,-1.569988,13.9072,357.9730
203.0,-1.527169,13.9072,357.9780
204.0,-1.461838,13.9398,357.9830
205.0,-1.425182,13.9398,357.9880
206.0,-1.382128,13.9692,357.9930
207.0,-1.356156,13.9692,357.9980
208.0,-1.311532,13.9992,358.0030
209.0,-1.283072,13.9992,358.0080
210.0,-1.250891,14.0293,358.0130
211.0,-1.234066,14.0293,358.0180
212.0,-1.208277,14.0593,358.0230
213.0,-1.179869,14.0593,358.0280
214.0,-1.127627,14.0893,358.0330
215.0,-1.083058,14.0894,358.0380
216.0,-1.019322,14.1200,358.0430
217.0,-0.981754,14.1200,358.0480
218.0,-0.909203,14.1501,358.0530
219.0,-0.848370,14.1501,358.0580
220.0,-0.751695,14.1802,358.0630
221.0,-0.695880,14.1802,358.0680
222.0,-0.615548,14.2109,358.0730
223.0,-0.555955,14.2109,358.0780
224.0,-0.463091,14.2410,358.0830
225.0,-0.407169,14.2410,358.0880
226.0,-0.319958,14.2717,358.0930
227.0,-0.260229,14.2717,358.0980
228.0,-0.188548,14.3036,358.1030
229.0,-0.157363,14.3037,358.1080
230.0,-0.120238,14.3337,358.1130
231.0,-0.092336,14.3337,358.1180
232.0,-0.052065,14.3637,358.1230
233.0,-0.032874,14.3637,358.1280
234.0,-0.016329,14.3931,358.1330
235.0,-0.010975,14.3931,358.1380
236.0,-0.004185,14.4237,358.1430
237.0,-0.000627,14.4238,358.1480
238.0,0.001651,14.4538,358.1530
239.0,0.001085,14.4538,358.1580
240.0,0.001721,14.4837,358.1630
241.0,0.002310,14.4837,358.1680
242.0,0.001805,14.5144,358.1730
243.0,0.001763,14.5144,358.1780
244.0,0.001487,14.5444,358.1830
245.0,0.002067,14.5444,358.1880
246.0,0.001814,14.5763,358.1930
247.0,0.000458,14.5763,358.1980
248.0,0.000954,14.6063,358.2030
249.0,0.000734,14.6062,358.2080
250.0,-0.001543,14.6362,358.2130
251.0,-0.004101,14.6362,358.2180
252.0,-0.009161,14.6662,358.2230
253.0,-0.011555,14.6662,358.2280
254.0,-0.010316,14.6962,358.2330
255.0,-0.008426,14.6962,358.2380
256.0,-0.004251,14.7262,358.2430
257.0,-0.001950,14.7262,358.2480
258.0,0.002263,14.7569,358.2530
259.0,0.002240,14.7569,358.2580
260.0,0.000182,14.7869,358.2630
261.0,-0.000323,14.7869,358.2680
262.0,0.001113,14.8169,358.2730
263.0,0.001730,14.8169,358.2780
264.0,0.001337,14.8475,358.2830
265.0,0.001936,14.8475,358.2880
266.0,0.002895,14.8788,358.2930
267.0,0.002829,14.8788,358.2980
268.0,0.003844,14.9088,358.3030
269.0,0.004274,14.9088,358.3080
270.0,0.004325,14.9388,358.3130
271.0,0.003675,14.9388,358.3180
272.0,0.003100,14.9681,358.3230
273.0,0.003418,14.9681,358.3280
274.0,0.002843,14.9988,358.3330
275.0,0.001394,14.9987,358.3380
