Point No.,Normal Force [N],Gap [mm],Time [s]
1.0,1.399760,5.0003,837.3
2.0,1.200114,5.0499,837.4
3.0,1.025521,5.0996,837.5
4.0,0.861016,5.1493,837.6
5.0,0.708285,5.1990,837.7
6.0,0.593452,5.2486,837.8
7.0,0.479412,5.2985,837.9
8.0,0.366355,5.3485,838
9.0,0.263432,5.3984,838.1
10.0,0.155895,5.4483,838.2
11.0,0.047736,5.4982,838.3
12.0,-0.059587,5.5480,838.4
13.0,-0.162873,5.5979,838.5
14.0,-0.266588,5.6480,838.6
15.0,-0.353905,5.6979,838.7
16.0,-0.414321,5.7479,838.8
17.0,-0.503350,5.7980,838.9
18.0,-0.601454,5.8479,839
19.0,-0.687484,5.8978,839.1
20.0,-0.766304,5.9478,839.2
21.0,-0.826159,5.9978,839.3
22.0,-0.877406,6.0477,839.4
23.0,-0.927075,6.0973,839.5
24.0,-0.972413,6.1471,839.6
25.0,-1.008463,6.1970,839.7
26.0,-1.061693,6.2470,839.8
27.0,-1.115566,6.2969,839.9
28.0,-1.165335,6.3467,840
29.0,-1.209681,6.3962,840.1
30.0,-1.252764,6.4460,840.2
31.0,-1.252646,6.4959,840.3
32.0,-1.291112,6.5459,840.4
33.0,-1.332160,6.5959,840.5
34.0,-1.365973,6.6458,840.6
35.0,-1.402794,6.6958,840.7
36.0,-1.440531,6.7458,840.8
37.0,-1.477752,6.7958,840.9
38.0,-1.514641,6.8457,841
39.0,-1.549132,6.8957,841.1
40.0,-1.577526,6.9457,841.2
41.0,-1.557059,6.9958,841.3
42.0,-1.572654,7.0458,841.4
43.0,-1.566149,7.0957,841.5
44.0,-1.598587,7.1454,841.6
45.0,-1.622517,7.1952,841.7
46.0,-1.621346,7.2451,841.8
47.0,-1.577860,7.2950,841.9
48.0,-1.489142,7.3446,842
49.0,-1.471053,7.3945,842.1
50.0,-1.457569,7.4443,842.2
51.0,-1.240116,7.4943,842.3
52.0,-1.191757,7.5442,842.4
53.0,-1.027193,7.5943,842.5
54.0,-0.958639,7.6443,842.6
55.0,-0.772980,7.6944,842.7
56.0,-0.723719,7.7444,842.8
57.0,-0.726679,7.7944,842.9
58.0,-0.604145,7.8445,843
59.0,-0.569258,7.8945,843.1
60.0,-0.523607,7.9446,843.2
61.0,-0.428799,7.9947,843.3
62.0,-0.352150,8.0448,843.4
63.0,-0.268287,8.0947,843.5
64.0,-0.269979,8.1447,843.6
65.0,-0.267162,8.1943,843.7
66.0,-0.137625,8.2443,843.8
67.0,-0.137358,8.2942,843.9
68.0,-0.072985,8.3441,844
69.0,-0.074279,8.3940,844.1
70.0,-0.073018,8.4435,844.2
71.0,-0.073694,8.4930,844.3
72.0,-0.073932,8.5428,844.4
73.0,-0.074762,8.5928,844.5
74.0,-0.072872,8.6426,844.6
75.0,-0.074152,8.6926,844.7
76.0,-0.073083,8.7426,844.8
77.0,-0.073413,8.7926,844.9
78.0,-0.073822,8.8426,845
79.0,-0.072684,8.8928,845.1
80.0,-0.072692,8.9428,845.2
81.0,-0.072895,8.9927,845.3
82.0,-0.074537,9.0428,845.4
83.0,-0.073692,9.0927,845.5
84.0,-0.073924,9.1427,845.6
85.0,-0.072876,9.1926,845.7
86.0,-0.073722,9.2423,845.8
87.0,-0.074154,9.2921,845.9
88.0,-0.073161,9.3421,846
89.0,-0.073379,9.3920,846.1
90.0,-0.072696,9.4418,846.2
91.0,-0.072172,9.4918,846.3
92.0,-0.072714,9.5407,846.4
93.0,-0.073197,9.5906,846.5
94.0,-0.073118,9.6405,846.6
95.0,-0.072196,9.6905,846.7
96.0,-0.072620,9.7405,846.8
97.0,-0.074539,9.7905,846.9
98.0,-0.075045,9.8406,847
99.0,-0.074012,9.8907,847.1
100.0,-0.073957,9.9406,847.2
101.0,-0.073190,9.9909,847.3
102.0,-0.074180,10.0407,847.4
103.0,-0.075007,10.0906,847.5
104.0,-0.074720,10.1404,847.6
105.0,-0.073625,10.1903,847.7
106.0,-0.073756,10.2402,847.8
107.0,-0.072774,10.2903,847.9
108.0,-0.074089,10.3403,848
109.0,-0.074808,10.3900,848.1
110.0,-0.074226,10.4398,848.2
111.0,-0.075095,10.4895,848.3
112.0,-0.073967,10.5393,848.4
113.0,-0.074423,10.5887,848.5
114.0,-0.074472,10.6387,848.6
115.0,-0.075015,10.6888,848.7
116.0,-0.073293,10.7387,848.8
117.0,-0.074757,10.7887,848.9
118.0,-0.073841,10.8387,849
119.0,-0.075279,10.8887,849.1
120.0,-0.073556,10.9387,849.2
121.0,-0.074699,10.9888,849.3
122.0,-0.074334,11.0387,849.4
123.0,-0.074097,11.0887,849.5
124.0,-0.074257,11.1387,849.6
125.0,-0.073835,11.1887,849.7
126.0,-0.073189,11.2387,849.8
127.0,-0.074313,11.2887,849.9
128.0,-0.073374,11.3386,850
129.0,-0.072957,11.3885,850.1
130.0,-0.073498,11.4382,850.2
131.0,-0.073248,11.4882,850.3
132.0,-0.073720,11.5382,850.4
133.0,-0.073916,11.5882,850.5
134.0,-0.073908,11.6374,850.6
135.0,-0.073052,11.6872,850.7
136.0,-0.073670,11.7372,850.8
137.0,-0.074558,11.7872,850.9
138.0,-0.073333,11.8374,851
139.0,-0.073487,11.8874,851.1
140.0,-0.073486,11.9374,851.2
141.0,-0.073615,11.9874,851.3
142.0,-0.074640,12.0375,851.4
143.0,-0.072270,12.0875,851.5
144.0,-0.073062,12.1374,851.6
145.0,-0.073404,12.1874,851.7
146.0,-0.074321,12.2374,851.8
147.0,-0.074040,12.2872,851.9
148.0,-0.072109,12.3372,852
149.0,-0.073664,12.3872,852.1
150.0,-0.073354,12.4372,852.2
151.0,-0.074275,12.4871,852.3
152.0,-0.072747,12.5371,852.4
153.0,-0.073051,12.5869,852.5
154.0,-0.074044,12.6371,852.6
155.0,-0.074168,12.6862,852.7
156.0,-0.073866,12.7363,852.8
157.0,-0.072974,12.7862,852.9
158.0,-0.073662,12.8363,853
159.0,-0.074122,12.8862,853.1
160.0,-0.073426,12.9363,853.2
161.0,-0.073704,12.9864,853.3
162.0,-0.073331,13.0364,853.4
163.0,-0.074004,13.0864,853.5
164.0,-0.073785,13.1364,853.6
165.0,-0.072500,13.1864,853.7
166.0,-0.072366,13.2363,853.8
167.0,-0.073163,13.2862,853.9
168.0,-0.072924,13.3363,854
169.0,-0.073755,13.3862,854.1
170.0,-0.072956,13.4361,854.2
171.0,-0.071695,13.4861,854.3
172.0,-0.073391,13.5361,854.4
173.0,-0.073742,13.5859,854.5
174.0,-0.072893,13.6361,854.6
175.0,-0.073310,13.6861,854.7
176.0,-0.071947,13.7351,854.8
177.0,-0.074006,13.7852,854.9
178.0,-0.073232,13.8353,855
179.0,-0.073197,13.8852,855.1
180.0,-0.072504,13.9353,855.2
181.0,-0.073077,13.9852,855.3
182.0,-0.072385,14.0353,855.4
183.0,-0.072934,14.0852,855.5
184.0,-0.071537,14.1353,855.6
185.0,-0.073743,14.1851,855.7
186.0,-0.072323,14.2351,855.8
187.0,-0.072912,14.2851,855.9
188.0,-0.072240,14.3350,856
189.0,-0.072641,14.3849,856.1
190.0,-0.072600,14.4349,856.2
191.0,-0.073611,14.4848,856.3
192.0,-0.071583,14.5347,856.4
193.0,-0.073248,14.5846,856.5
194.0,-0.072818,14.6347,856.6
195.0,-0.072671,14.6846,856.7
196.0,-0.072707,14.7347,856.8
197.0,-0.073067,14.7836,856.9
198.0,-0.073217,14.8337,857
199.0,-0.073102,14.8836,857.1
200.0,-0.073637,14.9337,857.2
201.0,-0.072437,14.9836,857.3
202.0,-0.072056,15.0337,857.4
203.0,-0.073634,15.0836,857.5
204.0,-0.072279,15.1335,857.6
205.0,-0.073414,15.1835,857.7
206.0,-0.072934,15.2335,857.8
207.0,-0.073799,15.2835,857.9
208.0,-0.073146,15.3333,858
209.0,-0.073636,15.3833,858.1
210.0,-0.073697,15.4331,858.2
211.0,-0.073630,15.4828,858.3
212.0,-0.073550,15.5328,858.4
213.0,-0.073777,15.5830,858.5
214.0,-0.073364,15.6328,858.6
215.0,-0.073120,15.6828,858.7
216.0,-0.073698,15.7328,858.8
217.0,-0.072578,15.7828,858.9
218.0,-0.072728,15.8318,859
219.0,-0.073120,15.8818,859.1
220.0,-0.073716,15.9318,859.2
221.0,-0.074106,15.9818,859.3
222.0,-0.073139,16.0318,859.4
223.0,-0.073320,16.0818,859.5
224.0,-0.072658,16.1318,859.6
225.0,-0.073923,16.1816,859.7
226.0,-0.074656,16.2313,859.8
227.0,-0.073407,16.2812,859.9
228.0,-0.074259,16.3312,860
229.0,-0.075197,16.3812,860.1
230.0,-0.073859,16.4313,860.2
231.0,-0.074141,16.4810,860.3
232.0,-0.073295,16.5307,860.4
233.0,-0.074850,16.5806,860.5
234.0,-0.074965,16.6308,860.6
235.0,-0.073862,16.6806,860.7
236.0,-0.072985,16.7306,860.8
237.0,-0.073576,16.7806,860.9
238.0,-0.073689,16.8306,861
239.0,-0.074799,16.8798,861.1
240.0,-0.074120,16.9296,861.2
241.0,-0.073065,16.9796,861.3
242.0,-0.075474,17.0296,861.4
243.0,-0.074894,17.0796,861.5
244.0,-0.074836,17.1296,861.6
245.0,-0.073192,17.1796,861.7
246.0,-0.074651,17.2291,861.8
247.0,-0.074173,17.2791,861.9
248.0,-0.074804,17.3290,862
249.0,-0.073072,17.3790,862.1
250.0,-0.073368,17.4290,862.2
251.0,-0.073764,17.4790,862.3
252.0,-0.074749,17.5287,862.4
253.0,-0.073894,17.5785,862.5
254.0,-0.074816,17.6285,862.6
255.0,-0.074304,17.6787,862.7
256.0,-0.074097,17.7285,862.8
257.0,-0.074105,17.7785,862.9
258.0,-0.075324,17.8285,863
259.0,-0.074237,17.8785,863.1
260.0,-0.074823,17.9279,863.2
261.0,-0.074742,17.9775,863.3
262.0,-0.073808,18.0273,863.4
263.0,-0.074050,18.0773,863.5
264.0,-0.074690,18.1273,863.6
265.0,-0.073818,18.1773,863.7
266.0,-0.074081,18.2273,863.8
267.0,-0.073834,18.2773,863.9
268.0,-0.073102,18.3273,864
269.0,-0.074653,18.3770,864.1
270.0,-0.073672,18.4268,864.2
271.0,-0.073826,18.4767,864.3
272.0,-0.074012,18.5267,864.4
273.0,-0.073488,18.5767,864.5
274.0,-0.074458,18.6267,864.6
275.0,-0.075634,18.6767,864.7
276.0,-0.074953,18.7267,864.8
277.0,-0.074458,18.7767,864.9
278.0,-0.073686,18.8267,865
279.0,-0.074103,18.8767,865.1
280.0,-0.075137,18.9267,865.2
281.0,-0.073669,18.9762,865.3
282.0,-0.074840,19.0257,865.4
283.0,-0.074974,19.0757,865.5
284.0,-0.074382,19.1257,865.6
285.0,-0.074254,19.1757,865.7
286.0,-0.073790,19.2257,865.8
287.0,-0.074165,19.2757,865.9
288.0,-0.074286,19.3257,866
289.0,-0.074889,19.3754,866.1
290.0,-0.074595,19.4252,866.2
291.0,-0.072169,19.4753,866.3
292.0,-0.074899,19.5252,866.4
293.0,-0.074360,19.5753,866.5
294.0,-0.074314,19.6252,866.6
295.0,-0.074754,19.6753,866.7
296.0,-0.074752,19.7252,866.8
297.0,-0.074384,19.7754,866.9
298.0,-0.074347,19.8254,867
299.0,-0.073779,19.8754,867.1
300.0,-0.073547,19.9254,867.2
301.0,-0.072521,19.9754,867.3
302.0,-0.073235,20.0250,867.4
303.0,-0.073395,20.0744,867.5
304.0,-0.074860,20.1244,867.6
305.0,-0.074277,20.1744,867.7
306.0,-0.073335,20.2244,867.8
307.0,-0.072918,20.2743,867.9
308.0,-0.074558,20.3242,868
309.0,-0.074677,20.3743,868.1
310.0,-0.073514,20.4242,868.2
311.0,-0.073492,20.4743,868.3
312.0,-0.073408,20.5241,868.4
313.0,-0.073432,20.5741,868.5
314.0,-0.074118,20.6241,868.6
315.0,-0.074127,20.6742,868.7
316.0,-0.073642,20.7242,868.8
317.0,-0.072920,20.7743,868.9
318.0,-0.074158,20.8242,869
319.0,-0.074858,20.8743,869.1
320.0,-0.074027,20.9242,869.2
321.0,-0.073923,20.9744,869.3
322.0,-0.072955,21.0243,869.4
323.0,-0.073484,21.0740,869.5
324.0,-0.074311,21.1235,869.6
325.0,-0.073427,21.1735,869.7
326.0,-0.073315,21.2232,869.8
327.0,-0.074056,21.2733,869.9
328.0,-0.075176,21.3232,870
329.0,-0.073924,21.3733,870.1
330.0,-0.073740,21.4231,870.2
331.0,-0.073773,21.4731,870.3
332.0,-0.073421,21.5231,870.4
333.0,-0.074098,21.5731,870.5
334.0,-0.073827,21.6230,870.6
335.0,-0.072588,21.6731,870.7
336.0,-0.074397,21.7231,870.8
337.0,-0.074378,21.7733,870.9
338.0,-0.073957,21.8232,871
339.0,-0.074003,21.8733,871.1
340.0,-0.073062,21.9232,871.2
341.0,-0.073709,21.9733,871.3
342.0,-0.074125,22.0232,871.4
343.0,-0.074468,22.0733,871.5
344.0,-0.074089,22.1228,871.6
345.0,-0.073807,22.1725,871.7
346.0,-0.073954,22.2221,871.8
347.0,-0.074605,22.2721,871.9
348.0,-0.075341,22.3221,872
349.0,-0.073746,22.3719,872.1
350.0,-0.073738,22.4220,872.2
351.0,-0.074024,22.4718,872.3
352.0,-0.074740,22.5216,872.4
353.0,-0.074452,22.5717,872.5
354.0,-0.074592,22.6216,872.6
355.0,-0.073079,22.6717,872.7
356.0,-0.074933,22.7216,872.8
357.0,-0.075115,22.7717,872.9
358.0,-0.074908,22.8216,873
359.0,-0.073996,22.8718,873.1
360.0,-0.073364,22.9218,873.2
361.0,-0.074297,22.9718,873.3
362.0,-0.074067,23.0216,873.4
363.0,-0.074967,23.0717,873.5
364.0,-0.073927,23.1216,873.6
365.0,-0.073811,23.1711,873.7
366.0,-0.074129,23.2205,873.8
367.0,-0.073992,23.2705,873.9
368.0,-0.073669,23.3203,874
369.0,-0.074428,23.3703,874.1
370.0,-0.073477,23.4203,874.2
371.0,-0.075121,23.4700,874.3
372.0,-0.074529,23.5198,874.4
373.0,-0.074996,23.5698,874.5
374.0,-0.074605,23.6198,874.6
375.0,-0.074034,23.6698,874.7
376.0,-0.073854,23.7198,874.8
377.0,-0.073810,23.7698,874.9
378.0,-0.073998,23.8198,875
379.0,-0.074616,23.8698,875.1
380.0,-0.072889,23.9198,875.2
381.0,-0.073809,23.9698,875.3
382.0,-0.073681,24.0198,875.4
383.0,-0.074711,24.0698,875.5
384.0,-0.073324,24.1198,875.6
385.0,-0.074454,24.1698,875.7
386.0,-0.073322,24.2195,875.8
387.0,-0.074496,24.2682,875.9
388.0,-0.074968,24.3182,876
389.0,-0.074661,24.3682,876.1
390.0,-0.074349,24.4182,876.2
391.0,-0.074690,24.4680,876.3
392.0,-0.074541,24.5178,876.4
393.0,-0.074118,24.5676,876.5
394.0,-0.074341,24.6176,876.6
395.0,-0.074554,24.6676,876.7
396.0,-0.074144,24.7176,876.8
397.0,-0.073801,24.7676,876.9
398.0,-0.074568,24.8176,877
399.0,-0.073846,24.8677,877.1
400.0,-0.074293,24.9176,877.2
401.0,-0.073560,24.9676,877.3
402.0,-0.074337,25.0177,877.4
403.0,-0.073808,25.0676,877.5
404.0,-0.074249,25.1176,877.6
405.0,-0.074645,25.1676,877.7
406.0,-0.074144,25.2173,877.8
407.0,-0.073215,25.2671,877.9
408.0,-0.074133,25.3160,878
409.0,-0.074793,25.3660,878.1
410.0,-0.074288,25.4160,878.2
411.0,-0.074307,25.4660,878.3
412.0,-0.073806,25.5158,878.4
413.0,-0.072918,25.5655,878.5
414.0,-0.073227,25.6156,878.6
415.0,-0.074232,25.6655,878.7
416.0,-0.075602,25.7156,878.8
417.0,-0.074697,25.7655,878.9
418.0,-0.074454,25.8156,879
419.0,-0.073584,25.8655,879.1
420.0,-0.072728,25.9156,879.2
421.0,-0.074223,25.9655,879.3
422.0,-0.073722,26.0154,879.4
423.0,-0.073432,26.0653,879.5
424.0,-0.072969,26.1153,879.6
425.0,-0.073522,26.1653,879.7
426.0,-0.073268,26.2153,879.8
427.0,-0.073633,26.2653,879.9
428.0,-0.072621,26.3153,880
429.0,-0.074110,26.3642,880.1
430.0,-0.072857,26.4140,880.2
431.0,-0.074085,26.4637,880.3
432.0,-0.073460,26.5137,880.4
433.0,-0.074485,26.5637,880.5
434.0,-0.073044,26.6138,880.6
435.0,-0.073888,26.6637,880.7
436.0,-0.073587,26.7137,880.8
437.0,-0.073141,26.7637,880.9
438.0,-0.074221,26.8137,881
439.0,-0.073710,26.8637,881.1
440.0,-0.074248,26.9137,881.2
441.0,-0.073034,26.9637,881.3
442.0,-0.073164,27.0137,881.4
443.0,-0.073091,27.0637,881.5
444.0,-0.073703,27.1138,881.6
445.0,-0.073018,27.1637,881.7
446.0,-0.073212,27.2137,881.8
447.0,-0.074795,27.2637,881.9
448.0,-0.073966,27.3137,882
449.0,-0.074452,27.3636,882.1
450.0,-0.074564,27.4125,882.2
451.0,-0.073726,27.4622,882.3
452.0,-0.074086,27.5123,882.4
453.0,-0.073982,27.5622,882.5
454.0,-0.074195,27.6123,882.6
455.0,-0.073992,27.6622,882.7
456.0,-0.073477,27.7123,882.8
457.0,-0.073496,27.7622,882.9
458.0,-0.072811,27.8123,883
459.0,-0.074582,27.8624,883.1
460.0,-0.074441,27.9124,883.2
461.0,-0.073797,27.9624,883.3
462.0,-0.073876,28.0124,883.4
463.0,-0.074102,28.0626,883.5
464.0,-0.073596,28.1124,883.6
465.0,-0.073894,28.1624,883.7
466.0,-0.072424,28.2124,883.8
467.0,-0.073800,28.2622,883.9
468.0,-0.074785,28.3123,884
469.0,-0.073307,28.3622,884.1
470.0,-0.073675,28.4123,884.2
471.0,-0.073181,28.4612,884.3
472.0,-0.073612,28.5111,884.4
473.0,-0.074043,28.5611,884.5
474.0,-0.073227,28.6111,884.6
475.0,-0.074683,28.6611,884.7
476.0,-0.074417,28.7113,884.8
477.0,-0.075548,28.7612,884.9
478.0,-0.072801,28.8113,885
479.0,-0.074327,28.8612,885.1
480.0,-0.073511,28.9113,885.2
481.0,-0.074572,28.9612,885.3
482.0,-0.075027,29.0113,885.4
483.0,-0.074299,29.0614,885.5
484.0,-0.074162,29.1114,885.6
485.0,-0.075156,29.1614,885.7
486.0,-0.073273,29.2113,885.8
487.0,-0.074185,29.2612,885.9
488.0,-0.074068,29.3113,886
489.0,-0.073902,29.3612,886.1
490.0,-0.074744,29.4113,886.2
491.0,-0.074007,29.4611,886.3
492.0,-0.075512,29.5101,886.4
493.0,-0.074774,29.5601,886.5
494.0,-0.073741,29.6101,886.6
495.0,-0.074162,29.6601,886.7
496.0,-0.073896,29.7101,886.8
497.0,-0.073983,29.7602,886.9
498.0,-0.074885,29.8103,887
499.0,-0.074866,29.8602,887.1
500.0,-0.074617,29.9103,887.2
