Point No.,Normal Force [N],Gap [mm],Time [s]
1,6.503283,11.9113,388.6210
2,6.502105,11.9113,388.6260
3,6.501464,11.9113,388.6310
4,6.501324,11.9113,388.6360
5,6.501707,11.9113,388.6410
6,6.500922,11.9113,388.6460
7,6.497793,11.9120,388.6510
8,6.480820,11.9119,388.6560
9,6.453346,11.9144,388.6600
10,6.408043,11.9144,388.6650
11,6.307482,11.9181,388.6700
12,6.216044,11.9180,388.6750
13,6.035703,11.9217,388.6800
14,5.905462,11.9216,388.6850
15,5.688427,11.9259,388.6900
16,5.461389,11.9257,388.6960
17,5.297806,11.9306,388.7010
18,5.057049,11.9305,388.7060
19,4.894048,11.9354,388.7110
20,4.658696,11.9352,388.7160
21,4.498813,11.9402,388.7210
22,4.275002,11.9400,388.7260
23,4.134221,11.9456,388.7310
24,3.939131,11.9454,388.7360
25,3.804316,11.9504,388.7410
26,3.609750,11.9503,388.7460
27,3.480763,11.9546,388.7510
28,3.296068,11.9544,388.7560
29,3.166739,11.9594,388.7610
30,3.042231,11.9593,388.7650
31,2.856961,11.9642,388.7700
32,2.743521,11.9641,388.7750
33,2.570545,11.9690,388.7800
34,2.462586,11.9690,388.7850
35,2.306173,11.9739,388.7900
36,2.207936,11.9738,388.7950
37,2.048867,11.9787,388.8000
38,1.946519,11.9786,388.8050
39,1.792350,11.9836,388.8100
40,1.700407,11.9835,388.8150
41,1.559692,11.9890,388.8200
42,1.475212,11.9890,388.8250
43,1.349745,11.9933,388.8300
44,1.277690,11.9933,388.8350
45,1.165803,11.9982,388.8400
46,1.099907,11.9981,388.8450
47,1.005649,12.0031,388.8500
48,0.966074,12.0031,388.8550
49,0.927267,12.0080,388.8600
50,0.915403,12.0080,388.8650
51,0.894510,12.0130,388.8700
52,0.897405,12.0130,388.8750
53,0.924489,12.0180,388.8800
54,0.956872,12.0181,388.8850
55,1.005116,12.0231,388.8900
56,1.049684,12.0231,388.8950
57,1.121983,12.0282,388.9000
58,1.186032,12.0282,388.9050
59,1.264419,12.0332,388.9100
60,1.311906,12.0333,388.9150
61,1.351999,12.0383,388.9200
62,1.378864,12.0383,388.9250
63,1.406430,12.0433,388.9300
64,1.433557,12.0433,388.9350
65,1.471055,12.0484,388.9400
66,1.517933,12.0484,388.9450
67,1.585766,12.0534,388.9500
68,1.642857,12.0535,388.9550
69,1.724414,12.0585,388.9600
70,1.796488,12.0586,388.9650
71,1.892972,12.0636,388.9700
72,1.960781,12.0637,388.9750
73,2.040707,12.0687,388.9800
74,2.094623,12.0687,388.9850
75,2.160758,12.0738,388.9900
76,2.222170,12.0738,388.9950
77,2.305265,12.0795,389.0000
78,2.363732,12.0795,389.0050
79,2.423517,12.0839,389.0100
80,2.464026,12.0840,389.0150
81,2.508179,12.0890,389.0200
82,2.545771,12.0890,389.0250
83,2.585593,12.0940,389.0300
84,2.618326,12.0940,389.0350
85,2.649039,12.0991,389.0400
86,2.678798,12.0991,389.0450
87,2.706238,12.1041,389.0500
88,2.731761,12.1041,389.0550
89,2.755197,12.1091,389.0600
90,2.781399,12.1091,389.0650
91,2.807594,12.1142,389.0700
92,2.833870,12.1142,389.0750
93,2.854880,12.1192,389.0800
94,2.876503,12.1192,389.0850
95,2.888698,12.1242,389.0900
96,2.902188,12.1242,389.0950
97,2.906088,12.1292,389.1000
98,2.917251,12.1292,389.1050
99,2.917017,12.1342,389.1100
100,2.925565,12.1342,389.1150
101,2.921175,12.1392,389.1200
102,2.929175,12.1392,389.1250
103,2.931195,12.1442,389.1300
104,2.943568,12.1442,389.1350
105,2.949919,12.1492,389.1400
106,2.963919,12.1492,389.1450
107,2.968459,12.1543,389.1500
108,2.979219,12.1543,389.1550
109,2.979215,12.1593,389.1600
110,2.988717,12.1593,389.1650
111,2.986762,12.1643,389.1700
112,2.992748,12.1643,389.1750
113,2.988091,12.1693,389.1800
114,2.994029,12.1693,389.1850
115,2.986023,12.1743,389.1900
116,2.988057,12.1743,389.1950
117,2.975413,12.1793,389.2000
118,2.977601,12.1793,389.2050
119,2.967300,12.1843,389.2100
120,2.970171,12.1843,389.2150
121,2.960945,12.1892,389.2200
122,2.963381,12.1892,389.2250
123,2.949839,12.1942,389.2300
124,2.948997,12.1942,389.2350
125,2.933089,12.1992,389.2400
126,2.934431,12.1992,389.2450
127,2.922414,12.2042,389.2500
128,2.922694,12.2042,389.2550
129,2.907547,12.2092,389.2600
130,2.906102,12.2092,389.2650
131,2.887996,12.2142,389.2700
132,2.884630,12.2142,389.2750
133,2.864419,12.2192,389.2800
134,2.862207,12.2192,389.2850
135,2.843807,12.2242,389.2900
136,2.839364,12.2242,389.2950
137,2.820346,12.2292,389.3000
138,2.818640,12.2292,389.3050
139,2.802166,12.2342,389.3100
140,2.801127,12.2342,389.3150
141,2.789872,12.2391,389.3200
142,2.793832,12.2391,389.3250
143,2.779640,12.2441,389.3300
144,2.776236,12.2441,389.3350
145,2.755534,12.2491,389.3400
146,2.751695,12.2491,389.3450
147,2.730639,12.2541,389.3500
148,2.724934,12.2541,389.3550
149,2.702427,12.2591,389.3600
150,2.699121,12.2591,389.3650
151,2.677849,12.2641,389.3700
152,2.670948,12.2641,389.3750
153,2.649001,12.2691,389.3800
154,2.645261,12.2691,389.3850
155,2.624929,12.2740,389.3900
156,2.620174,12.2740,389.3950
157,2.599136,12.2790,389.4000
158,2.595610,12.2790,389.4050
159,2.574828,12.2840,389.4100
160,2.569493,12.2840,389.4150
161,2.548834,12.2890,389.4200
162,2.545458,12.2890,389.4250
163,2.526266,12.2940,389.4300
164,2.522188,12.2940,389.4350
165,2.501342,12.2990,389.4400
166,2.497709,12.2990,389.4450
167,2.477092,12.3040,389.4500
168,2.471733,12.3040,389.4550
169,2.450723,12.3089,389.4600
170,2.447258,12.3089,389.4650
171,2.427805,12.3139,389.4700
172,2.423325,12.3139,389.4750
173,2.402455,12.3189,389.4800
174,2.399551,12.3189,389.4850
175,2.380286,12.3239,389.4900
176,2.375698,12.3239,389.4950
177,2.355455,12.3289,389.5000
178,2.352172,12.3289,389.5050
179,2.334029,12.3339,389.5100
180,2.329759,12.3339,389.5150
181,2.311270,12.3389,389.5200
182,2.308955,12.3389,389.5250
183,2.291906,12.3439,389.5300
184,2.287258,12.3439,389.5350
185,2.269034,12.3488,389.5400
186,2.265621,12.3488,389.5450
187,2.248099,12.3538,389.5500
188,2.243596,12.3538,389.5550
189,2.226234,12.3588,389.5600
190,2.224209,12.3588,389.5650
191,2.208454,12.3638,389.5700
192,2.204602,12.3638,389.5750
193,2.187243,12.3688,389.5800
194,2.184363,12.3688,389.5850
195,2.168721,12.3738,389.5900
196,2.165728,12.3738,389.5950
197,2.148716,12.3788,389.6000
198,2.147122,12.3788,389.6050
199,2.129105,12.3838,389.6100
200,2.124485,12.3838,389.6150
201,2.105813,12.3887,389.6200
202,2.103994,12.3887,389.6250
203,2.087711,12.3937,389.6300
204,2.085560,12.3937,389.6350
205,2.068141,12.3987,389.6400
206,2.066654,12.3987,389.6450
207,2.049062,12.4037,389.6500
208,2.044943,12.4037,389.6550
209,2.026079,12.4087,389.6600
210,2.023867,12.4087,389.6650
211,2.006991,12.4137,389.6700
212,2.003909,12.4137,389.6750
213,1.985958,12.4187,389.6800
214,1.983755,12.4187,389.6850
215,1.966818,12.4237,389.6900
216,1.962979,12.4237,389.6950
217,1.944120,12.4286,389.7000
218,1.941651,12.4286,389.7050
219,1.925850,12.4336,389.7100
220,1.922525,12.4336,389.7150
221,1.904073,12.4386,389.7200
222,1.902076,12.4386,389.7250
223,1.885200,12.4436,389.7300
224,1.881450,12.4436,389.7350
225,1.863171,12.4486,389.7400
226,1.860762,12.4486,389.7450
227,1.844354,12.4536,389.7500
228,1.840720,12.4536,389.7550
229,1.822881,12.4586,389.7600
230,1.821520,12.4586,389.7650
231,1.807108,12.4636,389.7700
232,1.804836,12.4636,389.7750
233,1.787173,12.4686,389.7800
234,1.784400,12.4686,389.7850
235,1.767258,12.4735,389.7900
236,1.763203,12.4735,389.7950
237,1.744681,12.4785,389.8000
238,1.743372,12.4785,389.8050
239,1.728744,12.4835,389.8100
240,1.725364,12.4835,389.8150
241,1.708628,12.4885,389.8200
242,1.706435,12.4885,389.8250
243,1.690980,12.4935,389.8300
244,1.687627,12.4935,389.8350
245,1.670232,12.4985,389.8400
246,1.669006,12.4985,389.8450
247,1.654730,12.4985,389.8500
248,1.651111,12.5035,389.8550
249,1.633173,12.5035,389.8600
250,1.631265,12.5085,389.8650
251,1.617667,12.5135,389.8700
252,1.615567,12.5135,389.8750
253,1.599345,12.5184,389.8800
254,1.597966,12.5184,389.8850
255,1.583138,12.5234,389.8900
256,1.579481,12.5234,389.8950
257,1.561861,12.5284,389.9000
258,1.560178,12.5284,389.9050
259,1.546621,12.5334,389.9100
260,1.543876,12.5334,389.9150
261,1.527636,12.5384,389.9200
262,1.525822,12.5384,389.9250
263,1.510662,12.5434,389.9300
264,1.507159,12.5434,389.9350
265,1.490760,12.5484,389.9400
266,1.488796,12.5484,389.9450
267,1.474711,12.5484,389.9500
268,1.471059,12.5534,389.9550
269,1.454029,12.5534,389.9600
270,1.451704,12.5584,389.9650
271,1.437166,12.5633,389.9700
272,1.435011,12.5633,389.9750
273,1.420659,12.5683,389.9800
274,1.418892,12.5683,389.9850
275,1.403961,12.5733,389.9900
276,1.400182,12.5733,389.9950
277,1.382885,12.5783,390.0000
278,1.380426,12.5783,390.0050
279,1.366383,12.5833,390.0100
280,1.363517,12.5833,390.0150
281,1.348819,12.5883,390.0200
282,1.347314,12.5883,390.0250
283,1.334824,12.5933,390.0300
284,1.331434,12.5933,390.0350
285,1.315759,12.5933,390.0400
286,1.314075,12.5983,390.0450
287,1.300210,12.5983,390.0500
288,1.296544,12.6033,390.0550
289,1.280856,12.6033,390.0600
290,1.278256,12.6083,390.0650
291,1.265008,12.6132,390.0700
292,1.261510,12.6132,390.0750
293,1.247187,12.6182,390.0800
294,1.245818,12.6182,390.0850
295,1.232808,12.6232,390.0900
296,1.229399,12.6232,390.0950
297,1.214258,12.6282,390.1000
298,1.211934,12.6282,390.1050
299,1.200168,12.6332,390.1100
300,1.197162,12.6332,390.1150
301,1.182352,12.6382,390.1200
302,1.179752,12.6382,390.1250
303,1.165438,12.6382,390.1300
304,1.161394,12.6432,390.1350
305,1.146935,12.6432,390.1400
306,1.144718,12.6482,390.1450
307,1.132981,12.6482,390.1500
308,1.129348,12.6532,390.1550
309,1.114712,12.6532,390.1600
310,1.111233,12.6582,390.1650
311,1.097016,12.6631,390.1700
312,1.093402,12.6631,390.1750
313,1.079926,12.6681,390.1800
314,1.077564,12.6681,390.1850
315,1.065499,12.6731,390.1900
316,1.061169,12.6731,390.1950
317,1.044826,12.6781,390.2000
318,1.041389,12.6781,390.2050
319,1.028960,12.6831,390.2100
320,1.026570,12.6831,390.2150
321,1.014160,12.6831,390.2200
322,1.011344,12.6881,390.2250
323,0.997381,12.6881,390.2300
324,0.992341,12.6931,390.2350
325,0.977068,12.6931,390.2400
326,0.974108,12.6981,390.2450
327,0.963026,12.6981,390.2500
328,0.960379,12.7031,390.2550
329,0.946944,12.7031,390.2600
330,0.942960,12.7081,390.2650
331,0.929525,12.7130,390.2700
332,0.924274,12.7130,390.2750
333,0.908941,12.7180,390.2800
334,0.906575,12.7180,390.2850
335,0.896446,12.7230,390.2900
336,0.893332,12.7230,390.2950
337,0.879313,12.7280,390.3000
338,0.874866,12.7280,390.3050
339,0.861567,12.7324,390.3100
340,0.856778,12.7324,390.3150
341,0.843128,12.7324,390.3200
342,0.840379,12.7380,390.3250
343,0.829511,12.7380,390.3300
344,0.825607,12.7430,390.3350
345,0.812294,12.7430,390.3400
346,0.808165,12.7480,390.3450
347,0.795796,12.7480,390.3500
348,0.790353,12.7530,390.3550
349,0.777316,12.7580,390.3600
350,0.774622,12.7580,390.3650
351,0.763802,12.7623,390.3700
352,0.759079,12.7623,390.3750
353,0.744966,12.7679,390.3800
354,0.739991,12.7679,390.3850
355,0.727632,12.7679,390.3900
356,0.723222,12.7723,390.3950
357,0.710863,12.7723,390.4000
358,0.707950,12.7779,390.4050
359,0.697681,12.7779,390.4100
360,0.692972,12.7823,390.4150
361,0.679018,12.7823,390.4200
362,0.674075,12.7879,390.4250
363,0.663269,12.7879,390.4300
364,0.658485,12.7929,390.4350
365,0.644999,12.7929,390.4400
366,0.640650,12.7979,390.4450
367,0.629338,12.7979,390.4500
368,0.624335,12.8022,390.4550
369,0.611784,12.8022,390.4600
370,0.607889,12.8072,390.4650
371,0.596680,12.8072,390.4700
372,0.591125,12.8122,390.4750
373,0.577461,12.8122,390.4800
374,0.572696,12.8178,390.4850
375,0.560271,12.8178,390.4900
376,0.554580,12.8222,390.4950
377,0.540019,12.8222,390.5000
378,0.535151,12.8272,390.5050
379,0.525308,12.8272,390.5100
380,0.519813,12.8328,390.5150
381,0.506168,12.8328,390.5200
382,0.501842,12.8378,390.5250
383,0.492701,12.8378,390.5300
384,0.488080,12.8422,390.5350
385,0.475300,12.8422,390.5400
386,0.470386,12.8472,390.5450
387,0.460224,12.8471,390.5500
388,0.453912,12.8521,390.5550
389,0.440075,12.8521,390.5600
390,0.435352,12.8578,390.5650
391,0.425869,12.8578,390.5700
392,0.420701,12.8621,390.5750
393,0.409628,12.8621,390.5800
394,0.405214,12.8671,390.5850
395,0.394735,12.8671,390.5900
396,0.387711,12.8721,390.5950
397,0.374445,12.8721,390.6000
398,0.369839,12.8777,390.6050
399,0.360229,12.8777,390.6100
400,0.354950,12.8821,390.6150
401,0.344859,12.8821,390.6200
402,0.340921,12.8871,390.6250
403,0.333365,12.8871,390.6300
404,0.328744,12.8921,390.6350
405,0.318943,12.8921,390.6400
406,0.314276,12.8971,390.6450
407,0.307089,12.8971,390.6500
408,0.304068,12.9021,390.6550
409,0.296512,12.9020,390.6600
410,0.292630,12.9070,390.6650
411,0.285597,12.9070,390.6700
412,0.280552,12.9120,390.6750
413,0.270755,12.9120,390.6800
414,0.266243,12.9170,390.6850
415,0.258237,12.9170,390.6900
416,0.252892,12.9220,390.6960
417,0.243886,12.9220,390.7010
418,0.240561,12.9270,390.7060
419,0.232962,12.9270,390.7110
420,0.228225,12.9320,390.7160
421,0.218289,12.9320,390.7210
422,0.213304,12.9370,390.7260
423,0.204036,12.9370,390.7310
424,0.197367,12.9420,390.7360
425,0.188515,12.9420,390.7410
426,0.184293,12.9470,390.7460
427,0.175408,12.9470,390.7510
428,0.169385,12.9520,390.7560
429,0.160496,12.9520,390.7610
430,0.156624,12.9570,390.7660
431,0.149362,12.9570,390.7710
432,0.144648,12.9620,390.7760
433,0.134534,12.9620,390.7810
434,0.129315,12.9670,390.7860
435,0.121337,12.9669,390.7910
436,0.115913,12.9719,390.7960
437,0.109151,12.9719,390.8010
438,0.107187,12.9769,390.8060
439,0.101992,12.9769,390.8110
440,0.097550,12.9819,390.8160
441,0.087603,12.9819,390.8210
442,0.082146,12.9869,390.8260
443,0.075216,12.9869,390.8310
444,0.071536,12.9919,390.8360
445,0.064840,12.9919,390.8410
446,0.063914,12.9969,390.8460
447,0.057868,12.9969,390.8510
448,0.053879,13.0019,390.8560
449,0.047945,13.0019,390.8610
450,0.044686,13.0069,390.8660
451,0.037653,13.0069,390.8710
452,0.033037,13.0119,390.8760
453,0.024419,13.0119,390.8810
454,0.019079,13.0169,390.8860
455,0.008838,13.0169,390.8910
456,0.002142,13.0219,390.8960
457,-0.006668,13.0219,390.9010
458,-0.013968,13.0269,390.9060
459,-0.021772,13.0269,390.9110
460,-0.028936,13.0319,390.9160
461,-0.036357,13.0319,390.9210
462,-0.038901,13.0369,390.9260
463,-0.044082,13.0368,390.9310
464,-0.046224,13.0418,390.9360
465,-0.053444,13.0418,390.9410
466,-0.056273,13.0468,390.9460
467,-0.061379,13.0468,390.9510
468,-0.061590,13.0518,390.9560
469,-0.067982,13.0518,390.9610
470,-0.076156,13.0568,390.9660
471,-0.084812,13.0568,390.9710
472,-0.092032,13.0618,390.9760
473,-0.099589,13.0618,390.9810
474,-0.102619,13.0668,390.9860
475,-0.107515,13.0668,390.9910
476,-0.109235,13.0718,390.9960
477,-0.115534,13.0718,391.0010
478,-0.117615,13.0768,391.0060
479,-0.124171,13.0768,391.0110
480,-0.135632,13.0818,391.0160
481,-0.145845,13.0818,391.0210
482,-0.150610,13.0868,391.0260
483,-0.156451,13.0868,391.0310
484,-0.157938,13.0918,391.0360
485,-0.163750,13.0918,391.0410
486,-0.170643,13.0968,391.0460
487,-0.177526,13.0968,391.0510
488,-0.179584,13.1018,391.0560
489,-0.186219,13.1018,391.0610
490,-0.188913,13.1068,391.0660
491,-0.194459,13.1068,391.0710
492,-0.201337,13.1118,391.0760
493,-0.210217,13.1118,391.0810
494,-0.216371,13.1167,391.0860
495,-0.222754,13.1167,391.0910
496,-0.227917,13.1217,391.0960
497,-0.234580,13.1217,391.1010
498,-0.238073,13.1267,391.1060
499,-0.243474,13.1267,391.1110
500,-0.249156,13.1317,391.1160
501,-0.256535,13.1317,391.1210
502,-0.261136,13.1367,391.1260
503,-0.267262,13.1367,391.1310
504,-0.272747,13.1411,391.1360
505,-0.279060,13.1411,391.1410
506,-0.282988,13.1467,391.1460
507,-0.288356,13.1467,391.1510
508,-0.294019,13.1511,391.1560
509,-0.300823,13.1511,391.1610
510,-0.305261,13.1567,391.1660
511,-0.309610,13.1567,391.1710
512,-0.313467,13.1611,391.1760
513,-0.319921,13.1611,391.1810
514,-0.325102,13.1667,391.1860
515,-0.330306,13.1667,391.1910
516,-0.336404,13.1717,391.1960
517,-0.342357,13.1717,391.2010
518,-0.346238,13.1767,391.2060
519,-0.350442,13.1767,391.2110
520,-0.354515,13.1810,391.2160
521,-0.360472,13.1810,391.2210
522,-0.365177,13.1867,391.2260
523,-0.369535,13.1867,391.2310
524,-0.374047,13.1910,391.2360
525,-0.379425,13.1910,391.2410
526,-0.383736,13.1966,391.2460
527,-0.388038,13.1966,391.2510
528,-0.393930,13.2010,391.2560
529,-0.399892,13.2010,391.2610
530,-0.404583,13.2066,391.2660
531,-0.409193,13.2066,391.2710
532,-0.413921,13.2110,391.2760
533,-0.418906,13.2110,391.2810
534,-0.423133,13.2166,391.2860
535,-0.427286,13.2166,391.2910
536,-0.433416,13.2216,391.2960
537,-0.439154,13.2216,391.3010
538,-0.443535,13.2266,391.3060
539,-0.447575,13.2266,391.3110
540,-0.453135,13.2310,391.3160
541,-0.457830,13.2310,391.3210
542,-0.460935,13.2366,391.3260
543,-0.463732,13.2366,391.3310
544,-0.468894,13.2410,391.3360
545,-0.474244,13.2410,391.3410
546,-0.479228,13.2466,391.3460
547,-0.483199,13.2466,391.3510
548,-0.488773,13.2510,391.3560
549,-0.493996,13.2510,391.3610
550,-0.498569,13.2566,391.3660
551,-0.501066,13.2566,391.3710
552,-0.505513,13.2616,391.3760
553,-0.510428,13.2616,391.3810
554,-0.515609,13.2666,391.3860
555,-0.518592,13.2666,391.3910
556,-0.522955,13.2716,391.3960
557,-0.526463,13.2716,391.4010
558,-0.529647,13.2766,391.4060
559,-0.531246,13.2766,391.4110
560,-0.534926,13.2816,391.4160
561,-0.538967,13.2816,391.4210
562,-0.543418,13.2866,391.4260
563,-0.545911,13.2866,391.4310
564,-0.551078,13.2916,391.4360
565,-0.554819,13.2915,391.4410
566,-0.558457,13.2965,391.4460
567,-0.560729,13.2965,391.4510
568,-0.565897,13.3015,391.4560
569,-0.570213,13.3015,391.4610
570,-0.574431,13.3065,391.4660
571,-0.575838,13.3065,391.4710
572,-0.579724,13.3115,391.4760
573,-0.582450,13.3115,391.4810
574,-0.586411,13.3165,391.4860
575,-0.588183,13.3165,391.4910
576,-0.592859,13.3215,391.4960
577,-0.596689,13.3215,391.5010
578,-0.601253,13.3265,391.5060
579,-0.602913,13.3265,391.5110
580,-0.606500,13.3315,391.5160
581,-0.608291,13.3315,391.5210
582,-0.611812,13.3365,391.5260
583,-0.613856,13.3365,391.5310
584,-0.619958,13.3415,391.5360
585,-0.623764,13.3415,391.5410
586,-0.629011,13.3465,391.5460
587,-0.630835,13.3465,391.5510
588,-0.637101,13.3515,391.5560
589,-0.640304,13.3515,391.5610
590,-0.645808,13.3565,391.5660
591,-0.647636,13.3565,391.5710
592,-0.653421,13.3615,391.5760
593,-0.656834,13.3615,391.5810
594,-0.661524,13.3665,391.5860
595,-0.662946,13.3665,391.5910
596,-0.667688,13.3715,391.5960
597,-0.669778,13.3715,391.6010
598,-0.674576,13.3765,391.6060
599,-0.675502,13.3765,391.6110
600,-0.678971,13.3815,391.6160
601,-0.680505,13.3815,391.6210
602,-0.683072,13.3865,391.6260
603,-0.682516,13.3865,391.6310
604,-0.685625,13.3915,391.6360
605,-0.686519,13.3915,391.6410
606,-0.688688,13.3965,391.6460
607,-0.687141,13.3965,391.6510
608,-0.688006,13.4015,391.6560
609,-0.687907,13.4015,391.6610
610,-0.691185,13.4065,391.6660
611,-0.691765,13.4065,391.6710
612,-0.698102,13.4115,391.6760
613,-0.700617,13.4115,391.6810
614,-0.706425,13.4165,391.6860
615,-0.706009,13.4165,391.6910
616,-0.709670,13.4215,391.6960
617,-0.711256,13.4215,391.7010
618,-0.716923,13.4265,391.7060
619,-0.718139,13.4265,391.7110
620,-0.724896,13.4314,391.7160
621,-0.726158,13.4314,391.7210
622,-0.730161,13.4364,391.7260
623,-0.728941,13.4364,391.7310
624,-0.732116,13.4414,391.7360
625,-0.733580,13.4414,391.7410
626,-0.737863,13.4464,391.7460
627,-0.737246,13.4464,391.7510
628,-0.741599,13.4514,391.7560
629,-0.742231,13.4514,391.7610
630,-0.745967,13.4564,391.7660
631,-0.743736,13.4564,391.7710
632,-0.745378,13.4614,391.7760
633,-0.743965,13.4614,391.7810
634,-0.744302,13.4664,391.7860
635,-0.740991,13.4664,391.7910
636,-0.743180,13.4714,391.7960
637,-0.743386,13.4714,391.8010
638,-0.748342,13.4764,391.8060
639,-0.746902,13.4764,391.8110
640,-0.751765,13.4814,391.8160
641,-0.753318,13.4814,391.8210
