Point No.,Normal Force [N],Gap [mm],Time [s]
1.0,12.606577,10.4962,1881
2.0,12.589982,10.4974,1881
3.0,12.278753,10.5047,1881
4.0,11.637741,10.5155,1881
5.0,10.897134,10.5289,1881
6.0,10.293254,10.5419,1881
7.0,9.848478,10.5530,1882
8.0,9.454316,10.5664,1882
9.0,9.204145,10.5779,1882
10.0,9.012396,10.5910,1882
11.0,8.793381,10.6027,1882
12.0,8.542379,10.6154,1882
13.0,8.304153,10.6274,1882
14.0,8.056396,10.6406,1882
15.0,7.829126,10.6518,1882
16.0,7.600842,10.6653,1882
17.0,7.403124,10.6769,1882
18.0,7.193301,10.6900,1882
19.0,7.004427,10.7016,1882
20.0,6.810979,10.7143,1882
21.0,6.633171,10.7264,1882
22.0,6.537867,10.7325,1882
23.0,6.291746,10.7512,1882
24.0,6.134444,10.7628,1882
25.0,5.970004,10.7757,1882
26.0,5.824226,10.7876,1882
27.0,5.680209,10.8009,1882
28.0,5.543548,10.8119,1882
29.0,5.402619,10.8257,1882
30.0,5.269876,10.8372,1882
31.0,5.132964,10.8502,1882
32.0,5.005184,10.8616,1882
33.0,4.873123,10.8751,1882
34.0,4.752761,10.8863,1882
35.0,4.629063,10.9002,1882
36.0,4.514904,10.9113,1882
37.0,4.393578,10.9245,1882
38.0,4.283874,10.9361,1882
39.0,4.170405,10.9493,1882
40.0,4.071129,10.9609,1882
41.0,3.972992,10.9745,1882
42.0,3.880968,10.9858,1882
43.0,3.779374,10.9991,1882
44.0,3.686757,11.0107,1882
45.0,3.583820,11.0240,1882
46.0,3.499018,11.0356,1882
47.0,3.407051,11.0489,1883
48.0,3.319520,11.0605,1883
49.0,3.225612,11.0735,1883
50.0,3.143027,11.0854,1883
51.0,3.051740,11.0987,1883
52.0,2.970219,11.1103,1883
53.0,2.885763,11.1236,1883
54.0,2.804005,11.1352,1883
55.0,2.717273,11.1482,1883
56.0,2.637356,11.1601,1883
57.0,2.549644,11.1731,1883
58.0,2.469343,11.1850,1883
59.0,2.382015,11.1983,1883
60.0,2.305566,11.2094,1883
61.0,2.226961,11.2232,1883
62.0,2.153991,11.2347,1883
63.0,2.065612,11.2478,1883
64.0,1.984580,11.2597,1883
65.0,1.892168,11.2727,1883
66.0,1.808667,11.2846,1883
67.0,1.720222,11.2979,1883
68.0,1.633990,11.3090,1883
69.0,1.545047,11.3220,1883
70.0,1.457516,11.3344,1883
71.0,1.369351,11.3474,1883
72.0,1.287787,11.3593,1883
73.0,1.201906,11.3723,1883
74.0,1.122918,11.3834,1883
75.0,1.035262,11.3975,1883
76.0,0.956168,11.4086,1883
77.0,0.874767,11.4216,1883
78.0,0.792621,11.4332,1883
79.0,0.710743,11.4470,1883
80.0,0.633370,11.4589,1883
81.0,0.546296,11.4709,1883
82.0,0.467581,11.4830,1883
83.0,0.388956,11.4971,1883
84.0,0.330946,11.5082,1883
85.0,0.261189,11.5212,1883
86.0,0.194841,11.5336,1883
87.0,0.128938,11.5459,1884
88.0,0.065631,11.5577,1884
89.0,-0.002843,11.5706,1884
90.0,-0.061226,11.5827,1884
91.0,-0.124728,11.5960,1884
92.0,-0.177345,11.6074,1884
93.0,-0.237271,11.6207,1884
94.0,-0.297039,11.6323,1884
95.0,-0.361463,11.6456,1884
96.0,-0.424023,11.6575,1884
97.0,-0.484699,11.6701,1884
98.0,-0.544903,11.6831,1884
99.0,-0.600453,11.6957,1884
100.0,-0.658914,11.7075,1884
101.0,-0.712769,11.7202,1884
102.0,-0.771666,11.7330,1884
103.0,-0.822100,11.7449,1884
104.0,-0.876713,11.7574,1884
105.0,-0.924180,11.7701,1884
106.0,-0.979071,11.7824,1884
107.0,-1.026622,11.7948,1884
108.0,-1.072455,11.8073,1884
109.0,-1.104904,11.8202,1884
110.0,-1.144076,11.8322,1884
111.0,-1.179959,11.8447,1884
112.0,-1.220203,11.8572,1884
113.0,-1.258790,11.8697,1884
114.0,-1.302896,11.8821,1884
115.0,-1.343592,11.8946,1884
116.0,-1.390008,11.9071,1884
117.0,-1.427879,11.9196,1884
118.0,-1.475834,11.9326,1884
119.0,-1.511380,11.9445,1884
120.0,-1.554500,11.9570,1884
121.0,-1.591490,11.9691,1884
122.0,-1.632455,11.9820,1884
123.0,-1.669689,11.9944,1884
124.0,-1.710370,12.0064,1884
125.0,-1.745212,12.0194,1884
126.0,-1.785872,12.0313,1884
127.0,-1.821209,12.0437,1885
128.0,-1.860072,12.0562,1885
129.0,-1.892531,12.0689,1885
130.0,-1.930526,12.0813,1885
131.0,-1.965069,12.0938,1885
132.0,-1.998992,12.1062,1885
133.0,-2.021772,12.1186,1885
134.0,-2.054544,12.1311,1885
135.0,-2.084976,12.1436,1885
136.0,-2.120286,12.1560,1885
137.0,-2.148247,12.1685,1885
138.0,-2.183965,12.1815,1885
139.0,-2.213268,12.1935,1885
140.0,-2.224615,12.2060,1885
141.0,-2.239692,12.2185,1885
142.0,-2.267618,12.2310,1885
143.0,-2.277928,12.2434,1885
144.0,-2.305277,12.2559,1885
145.0,-2.331430,12.2684,1885
146.0,-2.359158,12.2809,1885
147.0,-2.383871,12.2934,1885
148.0,-2.401175,12.3059,1885
149.0,-2.410437,12.3184,1885
150.0,-2.434210,12.3314,1885
151.0,-2.455947,12.3433,1885
152.0,-2.477724,12.3558,1885
153.0,-2.498162,12.3675,1885
154.0,-2.519541,12.3802,1885
155.0,-2.540897,12.3933,1885
156.0,-2.564012,12.4058,1885
157.0,-2.574461,12.4183,1885
158.0,-2.549391,12.4308,1885
159.0,-2.515296,12.4425,1885
160.0,-2.525762,12.4552,1885
161.0,-2.532803,12.4683,1885
162.0,-2.525197,12.4808,1885
163.0,-2.532091,12.4926,1885
164.0,-2.527474,12.5050,1885
165.0,-2.523571,12.5183,1885
166.0,-2.519397,12.5308,1885
167.0,-2.513053,12.5433,1886
168.0,-2.510796,12.5554,1886
169.0,-2.522374,12.5675,1886
170.0,-2.538297,12.5808,1886
171.0,-2.514139,12.5925,1886
172.0,-2.482519,12.6050,1886
173.0,-2.489939,12.6175,1886
174.0,-2.503379,12.6300,1886
175.0,-2.511339,12.6425,1886
176.0,-2.526417,12.6550,1886
177.0,-2.541314,12.6675,1886
178.0,-2.542812,12.6800,1886
179.0,-2.543258,12.6925,1886
180.0,-2.476824,12.7050,1886
181.0,-2.436994,12.7175,1886
182.0,-2.447651,12.7300,1886
183.0,-2.451907,12.7424,1886
184.0,-2.414047,12.7550,1886
185.0,-2.388170,12.7669,1886
186.0,-2.366044,12.7796,1886
187.0,-2.354571,12.7926,1886
188.0,-2.365638,12.8044,1886
189.0,-2.372500,12.8175,1886
190.0,-2.351299,12.8294,1886
191.0,-2.312007,12.8425,1886
192.0,-2.259188,12.8545,1886
193.0,-2.235551,12.8670,1886
194.0,-2.215908,12.8799,1886
195.0,-2.225205,12.8920,1886
196.0,-2.236482,12.9045,1886
197.0,-2.233272,12.9170,1886
198.0,-2.226285,12.9295,1886
199.0,-2.232560,12.9420,1886
200.0,-2.245172,12.9545,1886
201.0,-2.251105,12.9670,1886
202.0,-2.260473,12.9795,1886
203.0,-2.258977,12.9920,1886
204.0,-2.222352,13.0045,1886
205.0,-2.227889,13.0170,1886
206.0,-2.236853,13.0295,1886
207.0,-2.218225,13.0420,1887
208.0,-2.198663,13.0545,1887
209.0,-2.197039,13.0664,1887
210.0,-2.197127,13.0795,1887
211.0,-2.139500,13.0915,1887
212.0,-2.136389,13.1039,1887
213.0,-2.113975,13.1171,1887
214.0,-2.079169,13.1296,1887
215.0,-2.068651,13.1415,1887
216.0,-2.011417,13.1540,1887
217.0,-2.007988,13.1665,1887
218.0,-2.011986,13.1790,1887
219.0,-2.019316,13.1921,1887
220.0,-2.018790,13.2040,1887
221.0,-1.987350,13.2165,1887
222.0,-1.982250,13.2290,1887
223.0,-1.876037,13.2421,1887
224.0,-1.859348,13.2541,1887
225.0,-1.863061,13.2666,1887
226.0,-1.869521,13.2791,1887
227.0,-1.829494,13.2916,1887
228.0,-1.781977,13.3042,1887
229.0,-1.732666,13.3167,1887
230.0,-1.712793,13.3292,1887
231.0,-1.719498,13.3417,1887
232.0,-1.665768,13.3542,1887
233.0,-1.590974,13.3668,1887
234.0,-1.586329,13.3788,1887
235.0,-1.591989,13.3918,1887
236.0,-1.592841,13.4043,1887
237.0,-1.589409,13.4168,1887
238.0,-1.538909,13.4288,1887
239.0,-1.471727,13.4418,1887
240.0,-1.436274,13.4544,1887
241.0,-1.418131,13.4660,1887
242.0,-1.411392,13.4796,1887
243.0,-1.368960,13.4919,1887
244.0,-1.237957,13.5045,1887
245.0,-1.220956,13.5158,1887
246.0,-1.221259,13.5295,1887
247.0,-1.185808,13.5420,1888
248.0,-1.082986,13.5540,1888
249.0,-1.044157,13.5664,1888
250.0,-1.043687,13.5796,1888
251.0,-1.044810,13.5921,1888
252.0,-0.996544,13.6046,1888
253.0,-0.957431,13.6171,1888
254.0,-0.876908,13.6292,1888
255.0,-0.787699,13.6407,1888
256.0,-0.763595,13.6539,1888
257.0,-0.732358,13.6656,1888
258.0,-0.725240,13.6789,1888
259.0,-0.678153,13.6906,1888
260.0,-0.627604,13.7040,1888
261.0,-0.617979,13.7157,1888
262.0,-0.611659,13.7290,1888
263.0,-0.564427,13.7407,1888
264.0,-0.521835,13.7541,1888
265.0,-0.454016,13.7658,1888
266.0,-0.385951,13.7791,1888
267.0,-0.304364,13.7909,1888
268.0,-0.220729,13.8042,1888
269.0,-0.206223,13.8159,1888
270.0,-0.201927,13.8293,1888
271.0,-0.156645,13.8410,1888
272.0,-0.143021,13.8543,1888
273.0,-0.056892,13.8660,1888
274.0,-0.044958,13.8790,1888
275.0,-0.046450,13.8904,1888
276.0,-0.026039,13.9037,1888
277.0,0.009637,13.9160,1888
278.0,0.011878,13.9288,1888
279.0,0.010382,13.9404,1888
280.0,0.010053,13.9541,1888
281.0,0.011621,13.9655,1888
282.0,0.013149,13.9788,1888
283.0,0.010732,13.9904,1888
284.0,0.011486,14.0038,1888
285.0,0.011701,14.0154,1888
286.0,0.010749,14.0288,1888
287.0,0.012109,14.0405,1889
288.0,0.008699,14.0538,1889
289.0,0.010786,14.0654,1889
290.0,0.011297,14.0788,1889
291.0,0.010122,14.0904,1889
292.0,0.010572,14.1038,1889
293.0,0.011290,14.1154,1889
294.0,0.011126,14.1288,1889
295.0,0.011772,14.1404,1889
296.0,0.009115,14.1538,1889
297.0,0.009868,14.1654,1889
298.0,0.012856,14.1788,1889
299.0,0.011049,14.1904,1889
300.0,0.011699,14.2038,1889
301.0,0.011859,14.2154,1889
302.0,0.012833,14.2288,1889
303.0,0.013174,14.2404,1889
304.0,0.010179,14.2538,1889
305.0,0.011855,14.2654,1889
306.0,0.012017,14.2788,1889
307.0,0.008892,14.2904,1889
308.0,0.011673,14.3038,1889
309.0,0.012368,14.3154,1889
310.0,0.010774,14.3288,1889
311.0,0.011679,14.3404,1889
312.0,0.012008,14.3538,1889
313.0,0.010779,14.3654,1889
314.0,0.011422,14.3788,1889
315.0,0.009553,14.3904,1889
316.0,0.011443,14.4038,1889
317.0,0.011066,14.4154,1889
318.0,0.011372,14.4279,1889
319.0,0.012101,14.4404,1889
320.0,0.009988,14.4538,1889
321.0,0.011205,14.4654,1889
322.0,0.011771,14.4779,1889
323.0,0.010910,14.4904,1889
324.0,0.012535,14.5038,1889
325.0,0.011509,14.5154,1889
326.0,0.011450,14.5288,1889
327.0,0.011521,14.5396,1890
328.0,0.011415,14.5538,1890
329.0,0.011648,14.5654,1890
330.0,0.012188,14.5779,1890
331.0,0.011912,14.5896,1890
332.0,0.011425,14.6038,1890
333.0,0.010399,14.6154,1890
334.0,0.011146,14.6288,1890
335.0,0.012688,14.6404,1890
336.0,0.010754,14.6538,1890
337.0,0.012595,14.6654,1890
338.0,0.011987,14.6788,1890
339.0,0.011964,14.6896,1890
340.0,0.011496,14.7029,1890
341.0,0.011216,14.7146,1890
342.0,0.012684,14.7279,1890
343.0,0.012533,14.7396,1890
344.0,0.011606,14.7529,1890
345.0,0.011911,14.7644,1890
346.0,0.012068,14.7777,1890
347.0,0.011215,14.7892,1890
348.0,0.012415,14.8025,1890
349.0,0.011639,14.8146,1890
350.0,0.012720,14.8277,1890
351.0,0.012036,14.8392,1890
352.0,0.010446,14.8525,1890
353.0,0.013681,14.8646,1890
354.0,0.012210,14.8777,1890
355.0,0.012096,14.8890,1890
356.0,0.012599,14.9023,1890
357.0,0.013658,14.9140,1890
358.0,0.013408,14.9273,1890
359.0,0.012656,14.9390,1890
360.0,0.011404,14.9525,1890
361.0,0.012050,14.9640,1890
362.0,0.011869,14.9773,1890
363.0,0.013587,14.9890,1890
