Point No.,Normal Force [N],Gap [mm],Time [s]
1,4.152168,12.0643,396.1290
2,4.152443,12.0643,396.1340
3,4.151639,12.0643,396.1390
4,4.151205,12.0643,396.1440
5,4.151115,12.0649,396.1490
6,4.149791,12.0649,396.1540
7,4.149432,12.0656,396.1590
8,4.146355,12.0656,396.1640
9,4.140627,12.0674,396.1680
10,4.131017,12.0674,396.1730
11,4.119809,12.0718,396.1780
12,4.102918,12.0718,396.1830
13,4.092299,12.0762,396.1880
14,4.068563,12.0761,396.1930
15,4.056432,12.0811,396.1980
16,4.028244,12.0811,396.2040
17,4.005883,12.0861,396.2090
18,3.985546,12.0861,396.2140
19,3.963437,12.0911,396.2190
20,3.941927,12.0911,396.2240
21,3.921459,12.0961,396.2290
22,3.900061,12.0961,396.2340
23,3.876409,12.1010,396.2390
24,3.853243,12.1010,396.2440
25,3.831817,12.1060,396.2490
26,3.811247,12.1060,396.2540
27,3.789998,12.1110,396.2590
28,3.768974,12.1110,396.2640
29,3.750396,12.1160,396.2690
30,3.729825,12.1160,396.2730
31,3.717821,12.1216,396.2780
32,3.687276,12.1216,396.2830
33,3.676493,12.1259,396.2880
34,3.649301,12.1259,396.2930
35,3.638607,12.1309,396.2980
36,3.610971,12.1309,396.3030
37,3.601562,12.1359,396.3080
38,3.575165,12.1359,396.3130
39,3.564494,12.1409,396.3180
40,3.536460,12.1408,396.3230
41,3.527328,12.1458,396.3280
42,3.501052,12.1458,396.3330
43,3.491466,12.1508,396.3380
44,3.465448,12.1508,396.3430
45,3.456704,12.1558,396.3480
46,3.432472,12.1558,396.3530
47,3.423157,12.1608,396.3580
48,3.397054,12.1608,396.3630
49,3.388604,12.1658,396.3680
50,3.364139,12.1657,396.3730
51,3.354300,12.1707,396.3780
52,3.326832,12.1707,396.3830
53,3.317947,12.1757,396.3880
54,3.293098,12.1757,396.3930
55,3.283742,12.1807,396.3980
56,3.257521,12.1807,396.4030
57,3.248904,12.1857,396.4080
58,3.225822,12.1857,396.4130
59,3.217493,12.1906,396.4180
60,3.193594,12.1906,396.4230
61,3.186477,12.1956,396.4280
62,3.163854,12.1956,396.4330
63,3.154875,12.2006,396.4380
64,3.130367,12.2006,396.4430
65,3.123016,12.2056,396.4480
66,3.101062,12.2056,396.4530
67,3.092873,12.2112,396.4580
68,3.068969,12.2112,396.4630
69,3.061202,12.2156,396.4680
70,3.038743,12.2155,396.4730
71,3.031466,12.2205,396.4780
72,3.009245,12.2205,396.4830
73,3.001941,12.2255,396.4880
74,2.979205,12.2255,396.4930
75,2.970966,12.2305,396.4980
76,2.947730,12.2305,396.5030
77,2.940533,12.2355,396.5080
78,2.919528,12.2355,396.5130
79,2.912505,12.2405,396.5180
80,2.890564,12.2405,396.5230
81,2.883026,12.2454,396.5280
82,2.861123,12.2454,396.5330
83,2.851827,12.2504,396.5380
84,2.827557,12.2504,396.5430
85,2.820954,12.2554,396.5480
86,2.801436,12.2554,396.5530
87,2.794469,12.2604,396.5580
88,2.774529,12.2604,396.5630
89,2.768605,12.2654,396.5680
90,2.750274,12.2654,396.5730
91,2.742343,12.2704,396.5780
92,2.720281,12.2704,396.5830
93,2.713645,12.2754,396.5880
94,2.695104,12.2753,396.5930
95,2.687557,12.2803,396.5980
96,2.666430,12.2803,396.6030
97,2.659014,12.2853,396.6080
98,2.640384,12.2853,396.6130
99,2.632869,12.2903,396.6180
100,2.612687,12.2903,396.6230
101,2.606505,12.2953,396.6280
102,2.589133,12.2953,396.6330
103,2.582109,12.3003,396.6380
104,2.562048,12.3003,396.6430
105,2.554805,12.3053,396.6480
106,2.536250,12.3052,396.6530
107,2.528309,12.3102,396.6580
108,2.509367,12.3102,396.6630
109,2.503839,12.3152,396.6680
110,2.487258,12.3152,396.6730
111,2.479636,12.3202,396.6780
112,2.460061,12.3202,396.6830
113,2.453331,12.3252,396.6880
114,2.436755,12.3252,396.6930
115,2.429498,12.3302,396.6980
116,2.411022,12.3302,396.7030
117,2.405111,12.3352,396.7080
118,2.389329,12.3352,396.7130
119,2.382637,12.3402,396.7180
120,2.365724,12.3401,396.7230
121,2.360155,12.3401,396.7280
122,2.346757,12.3451,396.7330
123,2.340790,12.3451,396.7380
124,2.323806,12.3507,396.7430
125,2.317583,12.3551,396.7480
126,2.302824,12.3551,396.7530
127,2.296142,12.3601,396.7580
128,2.280814,12.3601,396.7630
129,2.275730,12.3651,396.7680
130,2.262268,12.3651,396.7730
131,2.254791,12.3701,396.7780
132,2.237096,12.3701,396.7830
133,2.230405,12.3751,396.7880
134,2.216479,12.3751,396.7930
135,2.211381,12.3801,396.7980
136,2.197961,12.3800,396.8030
137,2.193019,12.3844,396.8080
138,2.178939,12.3844,396.8130
139,2.171751,12.3900,396.8180
140,2.155997,12.3900,396.8230
141,2.150348,12.3900,396.8280
142,2.137044,12.3950,396.8330
143,2.132196,12.3950,396.8380
144,2.118827,12.4000,396.8430
145,2.113776,12.4050,396.8480
146,2.099748,12.4050,396.8530
147,2.091850,12.4100,396.8580
148,2.074758,12.4100,396.8630
149,2.068394,12.4150,396.8680
150,2.055310,12.4150,396.8730
151,2.049259,12.4200,396.8780
152,2.033216,12.4199,396.8830
153,2.026617,12.4249,396.8880
154,2.012551,12.4249,396.8930
155,2.005607,12.4299,396.8980
156,1.989535,12.4299,396.9030
157,1.983793,12.4349,396.9080
158,1.970652,12.4349,396.9130
159,1.964256,12.4349,396.9180
160,1.949390,12.4399,396.9230
161,1.943110,12.4399,396.9280
162,1.929942,12.4449,396.9330
163,1.922801,12.4499,396.9380
164,1.908020,12.4499,396.9430
165,1.902399,12.4549,396.9480
166,1.889539,12.4549,396.9530
167,1.882731,12.4599,396.9580
168,1.868155,12.4599,396.9630
169,1.862114,12.4648,396.9680
170,1.849600,12.4648,396.9730
171,1.842871,12.4698,396.9780
172,1.828642,12.4698,396.9830
173,1.823044,12.4748,396.9880
174,1.811817,12.4748,396.9930
175,1.805827,12.4798,396.9980
176,1.791382,12.4798,397.0030
177,1.785186,12.4798,397.0080
178,1.773552,12.4848,397.0130
179,1.766486,12.4848,397.0180
180,1.752200,12.4904,397.0230
181,1.746313,12.4904,397.0280
182,1.735862,12.4948,397.0330
183,1.729315,12.4998,397.0380
184,1.715740,12.4998,397.0430
185,1.709352,12.5048,397.0480
186,1.697961,12.5048,397.0530
187,1.691176,12.5097,397.0580
188,1.678116,12.5097,397.0630
189,1.671812,12.5147,397.0680
190,1.661136,12.5147,397.0730
191,1.655076,12.5197,397.0780
192,1.641670,12.5197,397.0830
193,1.636030,12.5247,397.0880
194,1.625004,12.5247,397.0930
195,1.617835,12.5247,397.0980
196,1.604681,12.5297,397.1030
197,1.598476,12.5297,397.1080
198,1.588141,12.5347,397.1130
199,1.581515,12.5347,397.1180
200,1.568684,12.5397,397.1230
201,1.562179,12.5397,397.1280
202,1.552013,12.5447,397.1330
203,1.545195,12.5497,397.1380
204,1.532817,12.5497,397.1430
205,1.526439,12.5547,397.1480
206,1.516470,12.5546,397.1530
207,1.509829,12.5596,397.1580
208,1.497204,12.5596,397.1630
209,1.490765,12.5646,397.1680
210,1.480439,12.5646,397.1730
211,1.473271,12.5696,397.1780
212,1.461604,12.5696,397.1830
213,1.455146,12.5746,397.1880
214,1.445504,12.5746,397.1930
215,1.438672,12.5746,397.1980
216,1.426346,12.5796,397.2030
217,1.419701,12.5796,397.2080
218,1.410643,12.5846,397.2130
219,1.404480,12.5846,397.2180
220,1.393440,12.5896,397.2230
221,1.386308,12.5896,397.2280
222,1.376647,12.5946,397.2330
223,1.369067,12.5996,397.2380
224,1.357208,12.5996,397.2430
225,1.350372,12.6039,397.2480
226,1.341066,12.6039,397.2530
227,1.334291,12.6095,397.2580
228,1.323446,12.6095,397.2630
229,1.316460,12.6095,397.2680
230,1.308062,12.6145,397.2730
231,1.302212,12.6195,397.2780
232,1.293135,12.6195,397.2830
233,1.286982,12.6195,397.2880
234,1.277737,12.6239,397.2930
235,1.268908,12.6239,397.2980
236,1.256881,12.6295,397.3030
237,1.250330,12.6295,397.3080
238,1.243545,12.6345,397.3130
239,1.236820,12.6345,397.3180
240,1.225812,12.6395,397.3230
241,1.218780,12.6395,397.3280
242,1.211040,12.6445,397.3330
243,1.204162,12.6445,397.3380
244,1.194580,12.6495,397.3430
245,1.188197,12.6495,397.3480
246,1.181253,12.6544,397.3530
247,1.173982,12.6544,397.3580
248,1.163306,12.6594,397.3630
249,1.155665,12.6594,397.3680
250,1.147136,12.6638,397.3730
251,1.138906,12.6638,397.3780
252,1.128352,12.6694,397.3830
253,1.120912,12.6694,397.3880
254,1.113210,12.6744,397.3930
255,1.105574,12.6744,397.3980
256,1.095604,12.6794,397.4030
257,1.087912,12.6794,397.4080
258,1.079537,12.6838,397.4130
259,1.071419,12.6838,397.4180
260,1.062754,12.6894,397.4230
261,1.055890,12.6894,397.4280
262,1.048240,12.6944,397.4330
263,1.039705,12.6944,397.4380
264,1.028277,12.6994,397.4430
265,1.020051,12.6994,397.4480
266,1.013897,12.7043,397.4530
267,1.006317,12.7043,397.4580
268,0.997082,12.7093,397.4630
269,0.989277,12.7093,397.4680
270,0.981702,12.7143,397.4730
271,0.973121,12.7143,397.4780
272,0.963334,12.7187,397.4830
273,0.955988,12.7187,397.4880
274,0.950592,12.7237,397.4930
275,0.942184,12.7237,397.4980
276,0.932602,12.7287,397.5030
277,0.924531,12.7287,397.5080
278,0.918789,12.7343,397.5130
279,0.910938,12.7343,397.5180
280,0.901019,12.7393,397.5230
281,0.891583,12.7393,397.5280
282,0.884887,12.7443,397.5330
283,0.876488,12.7443,397.5380
284,0.868127,12.7493,397.5430
285,0.859673,12.7493,397.5480
286,0.853687,12.7543,397.5530
287,0.845616,12.7542,397.5580
288,0.836512,12.7586,397.5630
289,0.827300,12.7586,397.5680
290,0.819715,12.7636,397.5730
291,0.810928,12.7636,397.5780
292,0.802586,12.7686,397.5830
293,0.793818,12.7686,397.5880
294,0.787720,12.7736,397.5930
295,0.778892,12.7736,397.5980
296,0.769605,12.7786,397.6030
297,0.760440,12.7786,397.6080
298,0.754870,12.7836,397.6130
299,0.746355,12.7836,397.6180
300,0.739490,12.7892,397.6230
301,0.731583,12.7892,397.6280
302,0.725864,12.7942,397.6330
303,0.716643,12.7942,397.6380
304,0.707711,12.7985,397.6430
305,0.697887,12.7985,397.6480
306,0.691429,12.8035,397.6530
307,0.681838,12.8035,397.6580
308,0.673491,12.8085,397.6630
309,0.664293,12.8085,397.6680
310,0.659416,12.8135,397.6730
311,0.650709,12.8135,397.6780
312,0.643306,12.8185,397.6830
313,0.634529,12.8185,397.6880
314,0.628665,12.8235,397.6930
315,0.618962,12.8235,397.6980
316,0.611461,12.8285,397.7030
317,0.601169,12.8285,397.7080
318,0.596563,12.8341,397.7130
319,0.586823,12.8341,397.7180
320,0.578064,12.8391,397.7230
321,0.567604,12.8391,397.7280
322,0.561716,12.8435,397.7330
323,0.551157,12.8435,397.7380
324,0.543736,12.8484,397.7430
325,0.534267,12.8484,397.7480
326,0.530596,12.8534,397.7530
327,0.521618,12.8534,397.7580
328,0.513837,12.8584,397.7630
329,0.503671,12.8584,397.7680
330,0.497648,12.8634,397.7730
331,0.487622,12.8634,397.7780
332,0.480444,12.8684,397.7830
333,0.471050,12.8684,397.7880
334,0.466738,12.8734,397.7930
335,0.456357,12.8734,397.7980
336,0.446958,12.8790,397.8030
337,0.435623,12.8790,397.8080
338,0.430400,12.8834,397.8130
339,0.420528,12.8834,397.8180
340,0.413673,12.8884,397.8230
341,0.403091,12.8884,397.8280
342,0.398939,12.8934,397.8330
343,0.388917,12.8934,397.8380
344,0.383474,12.8984,397.8430
345,0.376858,12.8983,397.8480
346,0.373135,12.9033,397.8530
347,0.363914,12.9033,397.8580
348,0.359018,12.9083,397.8630
349,0.350713,12.9083,397.8680
350,0.348964,12.9133,397.8730
351,0.342750,12.9133,397.8780
352,0.337204,12.9183,397.8830
353,0.327636,12.9183,397.8880
354,0.323989,12.9233,397.8930
355,0.315450,12.9233,397.8980
356,0.312284,12.9283,397.9030
357,0.305279,12.9283,397.9080
358,0.305387,12.9333,397.9130
359,0.298981,12.9333,397.9180
360,0.291789,12.9383,397.9230
361,0.282193,12.9383,397.9280
362,0.278270,12.9433,397.9330
363,0.270601,12.9433,397.9380
364,0.267589,12.9483,397.9430
365,0.260482,12.9483,397.9480
366,0.258083,12.9533,397.9530
367,0.250077,12.9533,397.9580
368,0.246210,12.9583,397.9630
369,0.239341,12.9583,397.9680
370,0.236736,12.9626,397.9730
371,0.229596,12.9626,397.9780
372,0.223236,12.9683,397.9830
373,0.213098,12.9683,397.9880
374,0.207608,12.9732,397.9930
375,0.195707,12.9732,397.9980
376,0.188015,12.9782,398.0030
377,0.177540,12.9782,398.0080
378,0.172406,12.9832,398.0130
379,0.164456,12.9832,398.0180
380,0.162871,12.9882,398.0230
381,0.155787,12.9882,398.0280
382,0.155946,12.9932,398.0330
383,0.148581,12.9932,398.0380
384,0.146972,12.9982,398.0430
385,0.139523,12.9982,398.0480
386,0.138232,13.0026,398.0530
387,0.125625,13.0026,398.0580
388,0.115174,13.0076,398.0630
389,0.104166,13.0076,398.0680
390,0.104774,13.0132,398.0730
391,0.097456,13.0132,398.0780
392,0.096773,13.0182,398.0830
393,0.089067,13.0182,398.0880
394,0.089918,13.0232,398.0930
395,0.078999,13.0232,398.0980
396,0.072177,13.0282,398.1030
397,0.059827,13.0282,398.1080
398,0.058499,13.0332,398.1130
399,0.049516,13.0332,398.1180
400,0.046650,13.0375,398.1230
401,0.036745,13.0375,398.1280
402,0.031040,13.0425,398.1330
403,0.020267,13.0425,398.1380
404,0.018766,13.0475,398.1430
405,0.008726,13.0475,398.1480
406,0.008693,13.0525,398.1530
407,0.000210,13.0525,398.1580
408,-0.002778,13.0575,398.1630
409,-0.013215,13.0575,398.1680
410,-0.017180,13.0631,398.1730
411,-0.027566,13.0631,398.1780
412,-0.032336,13.0681,398.1830
413,-0.043255,13.0681,398.1880
414,-0.043638,13.0731,398.1930
415,-0.052649,13.0731,398.1980
416,-0.055459,13.0775,398.2040
417,-0.063708,13.0825,398.2090
418,-0.065906,13.0825,398.2140
419,-0.075871,13.0875,398.2190
420,-0.080187,13.0875,398.2240
421,-0.090040,13.0924,398.2290
422,-0.091695,13.0924,398.2340
423,-0.100257,13.0974,398.2390
424,-0.103834,13.0974,398.2440
425,-0.112700,13.1024,398.2490
426,-0.114370,13.1024,398.2540
427,-0.123816,13.1074,398.2590
428,-0.126397,13.1074,398.2640
429,-0.135712,13.1130,398.2690
430,-0.137185,13.1130,398.2740
431,-0.145995,13.1180,398.2790
432,-0.149264,13.1180,398.2840
433,-0.158714,13.1224,398.2890
434,-0.160360,13.1224,398.2940
435,-0.170217,13.1274,398.2990
436,-0.173093,13.1274,398.3040
437,-0.182418,13.1324,398.3090
438,-0.182946,13.1324,398.3140
439,-0.191891,13.1374,398.3190
440,-0.195048,13.1374,398.3240
441,-0.204396,13.1424,398.3290
442,-0.205995,13.1424,398.3340
443,-0.215773,13.1474,398.3390
444,-0.218017,13.1474,398.3440
445,-0.227374,13.1524,398.3490
446,-0.227589,13.1524,398.3540
447,-0.236862,13.1580,398.3590
448,-0.239565,13.1580,398.3640
449,-0.248646,13.1624,398.3690
450,-0.248931,13.1624,398.3740
451,-0.258349,13.1673,398.3790
452,-0.260613,13.1673,398.3840
453,-0.269900,13.1723,398.3890
454,-0.270330,13.1723,398.3940
455,-0.279902,13.1773,398.3990
456,-0.282609,13.1773,398.4040
457,-0.291545,13.1823,398.4090
458,-0.291882,13.1823,398.4140
459,-0.300818,13.1873,398.4190
460,-0.302062,13.1873,398.4240
461,-0.310891,13.1923,398.4290
462,-0.311050,13.1923,398.4340
463,-0.321548,13.1973,398.4390
464,-0.323937,13.1973,398.4440
465,-0.332953,13.2029,398.4490
466,-0.332616,13.2029,398.4540
467,-0.341618,13.2079,398.4590
468,-0.343657,13.2079,398.4640
469,-0.353636,13.2123,398.4690
470,-0.352743,13.2123,398.4740
471,-0.360603,13.2173,398.4790
472,-0.361155,13.2173,398.4840
473,-0.370288,13.2223,398.4890
474,-0.370610,13.2223,398.4940
475,-0.380533,13.2273,398.4990
476,-0.381726,13.2273,398.5040
477,-0.391475,13.2323,398.5090
478,-0.390933,13.2323,398.5140
479,-0.398321,13.2373,398.5190
480,-0.398148,13.2373,398.5240
481,-0.405672,13.2423,398.5290
482,-0.404728,13.2423,398.5340
483,-0.415048,13.2473,398.5390
484,-0.416367,13.2473,398.5440
485,-0.425200,13.2529,398.5490
486,-0.423484,13.2529,398.5540
487,-0.431868,13.2572,398.5590
488,-0.432672,13.2572,398.5640
489,-0.441716,13.2622,398.5690
490,-0.441019,13.2622,398.5740
491,-0.450652,13.2672,398.5790
492,-0.451419,13.2672,398.5840
493,-0.460145,13.2722,398.5890
494,-0.457409,13.2722,398.5940
495,-0.464985,13.2772,398.5990
496,-0.464765,13.2772,398.6040
497,-0.472775,13.2822,398.6090
498,-0.471148,13.2822,398.6140
499,-0.480940,13.2872,398.6190
500,-0.480252,13.2872,398.6240
501,-0.488618,13.2922,398.6290
502,-0.486818,13.2922,398.6340
503,-0.495020,13.2972,398.6390
504,-0.494912,13.2972,398.6440
505,-0.503830,13.3028,398.6490
506,-0.501842,13.3028,398.6540
507,-0.510601,13.3078,398.6590
508,-0.509736,13.3078,398.6640
509,-0.519083,13.3128,398.6690
510,-0.516783,13.3128,398.6740
511,-0.526201,13.3172,398.6790
512,-0.526916,13.3172,398.6840
513,-0.536951,13.3222,398.6890
514,-0.535053,13.3222,398.6940
515,-0.544924,13.3272,398.6990
516,-0.544873,13.3272,398.7040
517,-0.554941,13.3322,398.7090
518,-0.553453,13.3322,398.7140
519,-0.562881,13.3372,398.7190
520,-0.562595,13.3372,398.7240
521,-0.572130,13.3422,398.7290
522,-0.570419,13.3422,398.7340
523,-0.580655,13.3472,398.7390
524,-0.580159,13.3472,398.7440
525,-0.590320,13.3528,398.7490
526,-0.588179,13.3528,398.7540
527,-0.597905,13.3571,398.7590
528,-0.597812,13.3571,398.7640
529,-0.607038,13.3621,398.7690
530,-0.604508,13.3621,398.7740
531,-0.614136,13.3671,398.7790
532,-0.612939,13.3671,398.7840
533,-0.622006,13.3721,398.7890
534,-0.619256,13.3721,398.7940
535,-0.629179,13.3771,398.7990
536,-0.629128,13.3771,398.8040
537,-0.639247,13.3821,398.8090
538,-0.636147,13.3821,398.8140
539,-0.644873,13.3871,398.8190
540,-0.643760,13.3871,398.8240
541,-0.653785,13.3871,398.8290
542,-0.650348,13.3921,398.8340
543,-0.658261,13.3921,398.8390
544,-0.656830,13.3977,398.8440
545,-0.665714,13.4021,398.8490
546,-0.662581,13.4021,398.8540
547,-0.671536,13.4071,398.8590
548,-0.669853,13.4071,398.8640
549,-0.678737,13.4121,398.8690
550,-0.674590,13.4121,398.8740
551,-0.682483,13.4171,398.8790
552,-0.680706,13.4171,398.8840
553,-0.688413,13.4221,398.8890
554,-0.683643,13.4221,398.8940
555,-0.689151,13.4271,398.8990
556,-0.684255,13.4271,398.9040
557,-0.689292,13.4321,398.9090
558,-0.682722,13.4321,398.9140
559,-0.686014,13.4371,398.9190
560,-0.680669,13.4371,398.9240
561,-0.684774,13.4371,398.9290
562,-0.679444,13.4421,398.9340
563,-0.686448,13.4421,398.9390
564,-0.683540,13.4477,398.9440
565,-0.692850,13.4521,398.9490
566,-0.688730,13.4521,398.9540
567,-0.697180,13.4571,398.9590
568,-0.695483,13.4571,398.9640
569,-0.704078,13.4621,398.9690
570,-0.699864,13.4621,398.9740
571,-0.707959,13.4671,398.9790
572,-0.704475,13.4671,398.9840
573,-0.711274,13.4721,398.9890
574,-0.705116,13.4721,398.9940
575,-0.711634,13.4771,398.9990
576,-0.708889,13.4771,399.0040
577,-0.716643,13.4821,399.0090
578,-0.712312,13.4821,399.0140
579,-0.720103,13.4821,399.0190
580,-0.716498,13.4871,399.0240
581,-0.723259,13.4871,399.0290
582,-0.717587,13.4927,399.0340
583,-0.725509,13.4971,399.0390
584,-0.723507,13.4971,399.0440
585,-0.732593,13.5021,399.0490
586,-0.728520,13.5021,399.0540
587,-0.737218,13.5071,399.0590
588,-0.734819,13.5071,399.0640
589,-0.744648,13.5121,399.0690
590,-0.740173,13.5121,399.0740
591,-0.748165,13.5171,399.0790
592,-0.746575,13.5171,399.0840
593,-0.756123,13.5221,399.0890
594,-0.751821,13.5221,399.0940
595,-0.760804,13.5271,399.0990
596,-0.758630,13.5271,399.1040
597,-0.768843,13.5270,399.1090
598,-0.763947,13.5320,399.1140
599,-0.771901,13.5320,399.1190
600,-0.770054,13.5377,399.1240
601,-0.779673,13.5377,399.1290
602,-0.775782,13.5420,399.1340
603,-0.784887,13.5470,399.1390
604,-0.782609,13.5470,399.1440
605,-0.792668,13.5520,399.1490
606,-0.787543,13.5520,399.1540
607,-0.795043,13.5570,399.1590
608,-0.792247,13.5570,399.1640
609,-0.801599,13.5620,399.1690
610,-0.798382,13.5620,399.1740
611,-0.807996,13.5670,399.1790
612,-0.805700,13.5670,399.1840
613,-0.816147,13.5720,399.1890
614,-0.811232,13.5720,399.1940
615,-0.819168,13.5720,399.1990
616,-0.816694,13.5770,399.2040
617,-0.826552,13.5770,399.2090
618,-0.823666,13.5826,399.2140
619,-0.833729,13.5826,399.2190
620,-0.830713,13.5870,399.2240
621,-0.839687,13.5870,399.2290
622,-0.833556,13.5920,399.2340
623,-0.841894,13.5970,399.2390
624,-0.839635,13.5970,399.2440
625,-0.850573,13.6020,399.2490
626,-0.846968,13.6020,399.2540
627,-0.856114,13.6070,399.2590
628,-0.852514,13.6070,399.2640
629,-0.860645,13.6120,399.2690
630,-0.854898,13.6120,399.2740
631,-0.863797,13.6170,399.2790
632,-0.861669,13.6170,399.2840
633,-0.871845,13.6220,399.2890
634,-0.868020,13.6220,399.2940
635,-0.876848,13.6220,399.2990
636,-0.872874,13.6270,399.3040
637,-0.881959,13.6270,399.3090
638,-0.876671,13.6326,399.3140
639,-0.885588,13.6326,399.3190
