Data stamp = , 31-03-2022 04:38:45 979

Calibration Values: 
Slope = , 26.54 , g/V 
Offset Voltage at no contact = , -0.501760 , V 

No , Time , Stage Position ,   Mass , Force 
   ,  (s) ,      (mm)      ,   (g)  , (mN)  

1 ,0.0000 ,0.84941 ,5.34985 ,52.49273 
2 ,0.2103 ,0.84948 ,5.34301 ,52.42557 
3 ,0.5465 ,0.85037 ,5.35669 ,52.55988 
4 ,0.7386 ,0.85188 ,5.38065 ,52.79493 
5 ,0.9308 ,0.85346 ,5.35327 ,52.52631 
6 ,1.1228 ,0.85540 ,5.36696 ,52.66062 
7 ,1.2990 ,0.85716 ,5.36012 ,52.59346 
8 ,1.4749 ,0.85889 ,5.36696 ,52.66062 
9 ,1.6513 ,0.86072 ,5.34301 ,52.42557 
10 ,1.8271 ,0.86249 ,5.32589 ,52.25768 
11 ,2.0032 ,0.86423 ,5.32932 ,52.29126 
12 ,2.1793 ,0.86598 ,5.31221 ,52.12337 
13 ,2.3554 ,0.86771 ,5.28825 ,51.88832 
14 ,2.5474 ,0.86968 ,5.27114 ,51.72043 
15 ,2.7235 ,0.87140 ,5.26430 ,51.65327 
16 ,2.8994 ,0.87322 ,5.24718 ,51.48538 
17 ,3.0595 ,0.87487 ,5.22323 ,51.25033 
18 ,3.2518 ,0.87665 ,5.19927 ,51.01528 
19 ,3.4439 ,0.87864 ,5.20612 ,51.08244 
20 ,3.6358 ,0.88049 ,5.17532 ,50.78023 
21 ,3.8115 ,0.88224 ,5.16163 ,50.64592 
22 ,4.0039 ,0.88408 ,5.15821 ,50.61234 
23 ,4.1799 ,0.88599 ,5.14452 ,50.47803 
24 ,4.3722 ,0.88793 ,5.11372 ,50.17583 
25 ,4.5478 ,0.88968 ,5.10345 ,50.07509 
26 ,4.7243 ,0.89141 ,5.10003 ,50.04151 
27 ,4.9162 ,0.89334 ,5.07265 ,49.77289 
28 ,5.0925 ,0.89506 ,5.05212 ,49.57142 
29 ,5.2685 ,0.89697 ,5.03843 ,49.43710 
30 ,5.4446 ,0.89864 ,5.03501 ,49.40352 
31 ,5.6207 ,0.90033 ,5.01448 ,49.20205 
32 ,5.7968 ,0.90214 ,4.98026 ,48.86627 
33 ,5.9888 ,0.90403 ,4.98368 ,48.89985 
34 ,6.1649 ,0.90584 ,4.96657 ,48.73196 
35 ,6.3572 ,0.90772 ,4.92892 ,48.36260 
36 ,6.5490 ,0.90965 ,4.89470 ,48.02681 
37 ,6.7249 ,0.91137 ,4.91181 ,48.19471 
38 ,6.9010 ,0.91317 ,4.89812 ,48.06039 
39 ,7.0933 ,0.91514 ,4.86732 ,47.75819 
40 ,7.2691 ,0.91688 ,4.86048 ,47.69103 
41 ,7.4453 ,0.91857 ,4.85364 ,47.62387 
42 ,7.6214 ,0.92037 ,4.83995 ,47.48956 
43 ,7.7816 ,0.92206 ,4.81257 ,47.22093 
44 ,7.9577 ,0.92377 ,4.80915 ,47.18736 
45 ,8.1337 ,0.92548 ,4.78177 ,46.91873 
46 ,8.3257 ,0.92740 ,4.76808 ,46.78442 
47 ,8.5018 ,0.92921 ,4.76124 ,46.71726 
48 ,8.6779 ,0.93091 ,4.74413 ,46.54937 
49 ,8.8377 ,0.93262 ,4.70306 ,46.14643 
50 ,9.0301 ,0.93440 ,4.68595 ,45.97854 
51 ,9.2218 ,0.93635 ,4.69622 ,46.07927 
52 ,9.3982 ,0.93814 ,4.66542 ,45.77707 
53 ,9.5901 ,0.94002 ,4.63462 ,45.47486 
54 ,9.7660 ,0.94183 ,4.62777 ,45.40771 
55 ,9.9424 ,0.94358 ,4.61751 ,45.30697 
56 ,10.1507 ,0.94565 ,4.57986 ,44.93761 
57 ,10.3266 ,0.94741 ,4.56275 ,44.76972 
58 ,10.5025 ,0.94915 ,4.55591 ,44.70256 
59 ,10.6787 ,0.95094 ,4.53880 ,44.53467 
60 ,10.8545 ,0.95267 ,4.51826 ,44.33320 
61 ,11.0308 ,0.95448 ,4.48404 ,43.99742 
62 ,11.2067 ,0.95619 ,4.48062 ,43.96384 
63 ,11.3831 ,0.95795 ,4.47378 ,43.89668 
64 ,11.5591 ,0.95970 ,4.46351 ,43.79595 
65 ,11.7352 ,0.96151 ,4.42929 ,43.46016 
66 ,11.9267 ,0.96343 ,4.40191 ,43.19154 
67 ,12.1033 ,0.96519 ,4.40533 ,43.22512 
68 ,12.2791 ,0.96694 ,4.37111 ,42.88933 
69 ,12.4553 ,0.96868 ,4.35400 ,42.72144 
70 ,12.6314 ,0.97043 ,4.33689 ,42.55355 
71 ,12.8075 ,0.97232 ,4.33689 ,42.55355 
72 ,12.9832 ,0.97398 ,4.32320 ,42.41924 
73 ,13.1596 ,0.97572 ,4.29582 ,42.15061 
74 ,13.3518 ,0.97766 ,4.26160 ,41.81483 
75 ,13.5438 ,0.97957 ,4.24791 ,41.68051 
76 ,13.7199 ,0.98139 ,4.24791 ,41.68051 
77 ,13.9117 ,0.98325 ,4.21027 ,41.31115 
78 ,14.0717 ,0.98496 ,4.19658 ,41.17684 
79 ,14.2481 ,0.98663 ,4.17262 ,40.94179 
80 ,14.4402 ,0.98853 ,4.16236 ,40.84106 
81 ,14.6158 ,0.99031 ,4.14525 ,40.67317 
82 ,14.7923 ,0.99204 ,4.13498 ,40.57243 
83 ,14.9683 ,0.99386 ,4.10076 ,40.23665 
84 ,15.1444 ,0.99557 ,4.10076 ,40.23665 
85 ,15.3205 ,0.99727 ,4.08365 ,40.06876 
86 ,15.4966 ,0.99913 ,4.06654 ,39.90087 
87 ,15.6727 ,1.00089 ,4.02889 ,39.53150 
88 ,15.8648 ,1.00281 ,4.03232 ,39.56508 
89 ,16.0408 ,1.00456 ,4.01863 ,39.43077 
90 ,16.2169 ,1.00628 ,3.99809 ,39.22930 
91 ,16.3929 ,1.00806 ,3.98098 ,39.06141 
92 ,16.5690 ,1.00981 ,3.95361 ,38.79278 
93 ,16.7449 ,1.01160 ,3.94676 ,38.72562 
94 ,16.9211 ,1.01334 ,3.93992 ,38.65847 
95 ,17.0974 ,1.01514 ,3.90912 ,38.35626 
96 ,17.2731 ,1.01685 ,3.89543 ,38.22195 
97 ,17.4653 ,1.01873 ,3.88858 ,38.15479 
98 ,17.6415 ,1.02051 ,3.87832 ,38.05406 
99 ,17.8175 ,1.02233 ,3.86121 ,37.88617 
100 ,17.9935 ,1.02405 ,3.82356 ,37.51681 
101 ,18.1698 ,1.02583 ,3.80645 ,37.34891 
102 ,18.3458 ,1.02761 ,3.78592 ,37.14744 
103 ,18.5379 ,1.02946 ,3.77908 ,37.08029 
104 ,18.7139 ,1.03128 ,3.76196 ,36.91240 
105 ,18.9060 ,1.03312 ,3.76881 ,36.97955 
106 ,19.0820 ,1.03494 ,3.74485 ,36.74450 
107 ,19.2580 ,1.03667 ,3.71748 ,36.47588 
108 ,19.4502 ,1.03857 ,3.68668 ,36.17367 
109 ,19.6421 ,1.04049 ,3.68668 ,36.17367 
110 ,19.8184 ,1.04228 ,3.66957 ,36.00578 
111 ,20.0103 ,1.04422 ,3.62850 ,35.60284 
112 ,20.1866 ,1.04602 ,3.62508 ,35.56926 
113 ,20.3621 ,1.04773 ,3.62166 ,35.53569 
114 ,20.5388 ,1.04947 ,3.60112 ,35.33422 
115 ,20.7308 ,1.05141 ,3.56690 ,34.99843 
116 ,20.9228 ,1.05327 ,3.57717 ,35.09917 
117 ,21.0989 ,1.05505 ,3.54637 ,34.79696 
118 ,21.2750 ,1.05689 ,3.52241 ,34.56192 
119 ,21.4510 ,1.05864 ,3.50188 ,34.36045 
120 ,21.6271 ,1.06036 ,3.49161 ,34.25971 
121 ,21.8033 ,1.06208 ,3.49161 ,34.25971 
122 ,21.9952 ,1.06407 ,3.45055 ,33.85677 
123 ,22.1711 ,1.06579 ,3.42659 ,33.62172 
124 ,22.3473 ,1.06757 ,3.42659 ,33.62172 
125 ,22.5235 ,1.06932 ,3.42659 ,33.62172 
126 ,22.7153 ,1.07122 ,3.38553 ,33.21878 
127 ,22.8917 ,1.07304 ,3.36842 ,33.05089 
128 ,23.0836 ,1.07498 ,3.36499 ,33.01731 
129 ,23.2600 ,1.07670 ,3.36157 ,32.98374 
130 ,23.4359 ,1.07850 ,3.33077 ,32.68153 
131 ,23.6280 ,1.08038 ,3.30339 ,32.41290 
132 ,23.8040 ,1.08219 ,3.29655 ,32.34575 
133 ,23.9801 ,1.08390 ,3.28286 ,32.21143 
134 ,24.1562 ,1.08563 ,3.27602 ,32.14428 
135 ,24.3323 ,1.08742 ,3.22811 ,31.67418 
136 ,24.5239 ,1.08926 ,3.23153 ,31.70776 
137 ,24.6999 ,1.09110 ,3.21442 ,31.53987 
138 ,24.8762 ,1.09283 ,3.19731 ,31.37198 
139 ,25.0685 ,1.09480 ,3.16651 ,31.06977 
140 ,25.2608 ,1.09667 ,3.17677 ,31.17051 
141 ,25.4528 ,1.09855 ,3.14940 ,30.90188 
142 ,25.6448 ,1.10060 ,3.14940 ,30.90188 
143 ,25.8208 ,1.10225 ,3.12202 ,30.63325 
144 ,25.9970 ,1.10416 ,3.08095 ,30.23031 
145 ,26.1729 ,1.10582 ,3.07411 ,30.16316 
146 ,26.3330 ,1.10754 ,3.06042 ,30.02884 
147 ,26.5092 ,1.10917 ,3.04673 ,29.89453 
148 ,26.6852 ,1.11092 ,3.02278 ,29.65948 
149 ,26.8614 ,1.11267 ,3.03989 ,29.82737 
150 ,27.0694 ,1.11465 ,2.99882 ,29.42444 
151 ,27.2456 ,1.11655 ,2.99198 ,29.35728 
152 ,27.4375 ,1.11843 ,2.98513 ,29.29012 
153 ,27.6136 ,1.12018 ,2.95091 ,28.95434 
154 ,27.7897 ,1.12208 ,2.94064 ,28.85360 
155 ,27.9658 ,1.12373 ,2.93038 ,28.75287 
156 ,28.1578 ,1.12567 ,2.91669 ,28.61856 
157 ,28.3339 ,1.12740 ,2.89958 ,28.45066 
158 ,28.5261 ,1.12936 ,2.87562 ,28.21562 
159 ,28.7020 ,1.13109 ,2.86878 ,28.14846 
160 ,28.8780 ,1.13284 ,2.86193 ,28.08130 
161 ,29.0701 ,1.13479 ,2.81745 ,27.64479 
162 ,29.2463 ,1.13656 ,2.80718 ,27.54405 
163 ,29.4385 ,1.13845 ,2.80376 ,27.51047 
164 ,29.6304 ,1.14029 ,2.77638 ,27.24185 
165 ,29.8061 ,1.14224 ,2.76954 ,27.17469 
166 ,29.9827 ,1.14386 ,2.76269 ,27.10753 
167 ,30.1593 ,1.14567 ,2.74216 ,26.90606 
168 ,30.3344 ,1.14745 ,2.72847 ,26.77175 
169 ,30.5107 ,1.14918 ,2.71478 ,26.63744 
170 ,30.6870 ,1.15094 ,2.69083 ,26.40239 
171 ,30.8790 ,1.15280 ,2.69083 ,26.40239 
172 ,31.0553 ,1.15463 ,2.65660 ,26.06661 
173 ,31.2470 ,1.15650 ,2.63265 ,25.83156 
174 ,31.4233 ,1.15832 ,2.61554 ,25.66367 
175 ,31.6154 ,1.16016 ,2.60185 ,25.52935 
176 ,31.7914 ,1.16202 ,2.61212 ,25.63009 
177 ,31.9673 ,1.16384 ,2.58474 ,25.36146 
178 ,32.1433 ,1.16549 ,2.57105 ,25.22715 
179 ,32.3193 ,1.16723 ,2.56078 ,25.12641 
180 ,32.4958 ,1.16897 ,2.55394 ,25.05926 
181 ,32.6717 ,1.17080 ,2.51630 ,24.68989 
182 ,32.8479 ,1.17253 ,2.49576 ,24.48842 
183 ,33.0239 ,1.17429 ,2.49576 ,24.48842 
184 ,33.2000 ,1.17609 ,2.47865 ,24.32053 
185 ,33.3759 ,1.17778 ,2.46154 ,24.15264 
186 ,33.5682 ,1.17970 ,2.43759 ,23.91759 
187 ,33.7602 ,1.18157 ,2.41705 ,23.71612 
188 ,33.9364 ,1.18336 ,2.43074 ,23.85044 
189 ,34.1125 ,1.18517 ,2.41021 ,23.64897 
190 ,34.3043 ,1.18714 ,2.39310 ,23.48108 
191 ,34.4805 ,1.18887 ,2.37256 ,23.27961 
192 ,34.6567 ,1.19062 ,2.37256 ,23.27961 
193 ,34.8327 ,1.19241 ,2.34519 ,23.01098 
194 ,35.0245 ,1.19431 ,2.32123 ,22.77593 
195 ,35.2009 ,1.19607 ,2.31439 ,22.70877 
196 ,35.3930 ,1.19797 ,2.30412 ,22.60804 
197 ,35.5691 ,1.19977 ,2.28017 ,22.37299 
198 ,35.7611 ,1.20164 ,2.26306 ,22.20510 
199 ,35.9371 ,1.20342 ,2.25279 ,22.10437 
200 ,36.1130 ,1.20515 ,2.24252 ,22.00363 
201 ,36.2894 ,1.20697 ,2.21857 ,21.76858 
202 ,36.4974 ,1.20897 ,2.21172 ,21.70143 
203 ,36.6734 ,1.21081 ,2.19803 ,21.56711 
204 ,36.8655 ,1.21270 ,2.16381 ,21.23133 
205 ,37.0417 ,1.21446 ,2.15697 ,21.16417 
206 ,37.2177 ,1.21626 ,2.15697 ,21.16417 
207 ,37.4098 ,1.21815 ,2.12959 ,20.89555 
208 ,37.6019 ,1.22005 ,2.11932 ,20.79481 
209 ,37.7775 ,1.22185 ,2.09879 ,20.59334 
210 ,37.9536 ,1.22353 ,2.09195 ,20.52619 
211 ,38.1299 ,1.22529 ,2.06457 ,20.25756 
212 ,38.3061 ,1.22704 ,2.05088 ,20.12325 
213 ,38.4982 ,1.22903 ,2.04061 ,20.02251 
214 ,38.7063 ,1.23101 ,2.02350 ,19.85462 
215 ,38.8983 ,1.23300 ,2.01324 ,19.75388 
216 ,39.0744 ,1.23477 ,1.99955 ,19.61957 
217 ,39.2502 ,1.23658 ,1.96875 ,19.31737 
218 ,39.4426 ,1.23844 ,1.94822 ,19.11590 
219 ,39.6505 ,1.24047 ,1.95506 ,19.18305 
220 ,39.8267 ,1.24225 ,1.91742 ,18.81369 
221 ,40.0027 ,1.24399 ,1.91057 ,18.74654 
222 ,40.1788 ,1.24577 ,1.89004 ,18.54507 
223 ,40.3550 ,1.24758 ,1.87635 ,18.41075 
224 ,40.5471 ,1.24942 ,1.85924 ,18.24286 
225 ,40.7232 ,1.25127 ,1.83871 ,18.04139 
226 ,40.9312 ,1.25332 ,1.82844 ,17.94066 
227 ,41.1072 ,1.25512 ,1.80791 ,17.73919 
228 ,41.2833 ,1.25682 ,1.79422 ,17.60487 
229 ,41.4591 ,1.25861 ,1.79080 ,17.57129 
230 ,41.6516 ,1.26044 ,1.76684 ,17.33625 
231 ,41.8276 ,1.26233 ,1.74973 ,17.16836 
232 ,42.0195 ,1.26415 ,1.74631 ,17.13478 
233 ,42.2118 ,1.26618 ,1.73262 ,17.00046 
234 ,42.3877 ,1.26790 ,1.69840 ,16.66468 
235 ,42.5638 ,1.26962 ,1.68813 ,16.56395 
236 ,42.7560 ,1.27151 ,1.68813 ,16.56395 
237 ,42.9321 ,1.27336 ,1.67786 ,16.46321 
238 ,43.1240 ,1.27526 ,1.62995 ,15.99311 
239 ,43.3002 ,1.27702 ,1.62995 ,15.99311 
240 ,43.4759 ,1.27877 ,1.61969 ,15.89238 
241 ,43.6523 ,1.28056 ,1.61969 ,15.89238 
242 ,43.8284 ,1.28228 ,1.57862 ,15.48944 
243 ,44.0045 ,1.28408 ,1.55809 ,15.28797 
244 ,44.1805 ,1.28584 ,1.54782 ,15.18724 
245 ,44.3569 ,1.28759 ,1.54098 ,15.12008 
246 ,44.5484 ,1.28953 ,1.53756 ,15.08650 
247 ,44.7408 ,1.29132 ,1.50676 ,14.78430 
248 ,44.9168 ,1.29323 ,1.51018 ,14.81787 
249 ,45.0927 ,1.29494 ,1.50333 ,14.75072 
250 ,45.3010 ,1.29692 ,1.45542 ,14.28062 
251 ,45.4769 ,1.29877 ,1.46569 ,14.38136 
252 ,45.6531 ,1.30052 ,1.45885 ,14.31420 
253 ,45.8290 ,1.30228 ,1.44174 ,14.14631 
254 ,46.0054 ,1.30405 ,1.40409 ,13.77695 
255 ,46.2132 ,1.30601 ,1.40067 ,13.74337 
256 ,46.4054 ,1.30797 ,1.38698 ,13.60906 
257 ,46.5976 ,1.30998 ,1.38014 ,13.54190 
258 ,46.7736 ,1.31174 ,1.36987 ,13.44116 
259 ,46.9655 ,1.31362 ,1.34934 ,13.23969 
260 ,47.1418 ,1.31540 ,1.33907 ,13.13896 
261 ,47.3336 ,1.31724 ,1.32196 ,12.97107 
262 ,47.5258 ,1.31912 ,1.30143 ,12.76960 
263 ,47.7019 ,1.32103 ,1.28432 ,12.60171 
264 ,47.8780 ,1.32279 ,1.29800 ,12.73602 
265 ,48.0537 ,1.32448 ,1.27405 ,12.50097 
266 ,48.2301 ,1.32624 ,1.25009 ,12.26592 
267 ,48.4063 ,1.32801 ,1.23298 ,12.09803 
268 ,48.5984 ,1.32993 ,1.22614 ,12.03088 
269 ,48.7741 ,1.33175 ,1.23298 ,12.09803 
270 ,48.9509 ,1.33350 ,1.19534 ,11.72867 
271 ,49.1425 ,1.33549 ,1.19534 ,11.72867 
272 ,49.3186 ,1.33713 ,1.16796 ,11.46004 
273 ,49.4946 ,1.33894 ,1.16796 ,11.46004 
274 ,49.6708 ,1.34069 ,1.13716 ,11.15784 
275 ,49.8624 ,1.34260 ,1.13032 ,11.09068 
276 ,50.0388 ,1.34433 ,1.12347 ,11.02353 
277 ,50.2150 ,1.34613 ,1.10636 ,10.85563 
278 ,50.4390 ,1.34815 ,1.08925 ,10.68774 
279 ,50.6312 ,1.35028 ,1.07214 ,10.51985 
280 ,50.8233 ,1.35219 ,1.06187 ,10.41912 
281 ,51.0154 ,1.35408 ,1.05503 ,10.35196 
282 ,51.1914 ,1.35592 ,1.04134 ,10.21765 
283 ,51.3831 ,1.35784 ,1.01054 ,9.91544 
284 ,51.5597 ,1.35955 ,1.01054 ,9.91544 
285 ,51.7516 ,1.36150 ,1.00028 ,9.81471 
286 ,51.9274 ,1.36322 ,0.97974 ,9.61324 
287 ,52.1038 ,1.36504 ,0.95579 ,9.37819 
288 ,52.2799 ,1.36682 ,0.95237 ,9.34461 
289 ,52.4562 ,1.36859 ,0.94210 ,9.24388 
290 ,52.6479 ,1.37047 ,0.93868 ,9.21030 
291 ,52.8400 ,1.37227 ,0.90788 ,8.90809 
292 ,53.0157 ,1.37413 ,0.91814 ,9.00883 
293 ,53.1761 ,1.37586 ,0.90103 ,8.84094 
294 ,53.3523 ,1.37748 ,0.88734 ,8.70662 
295 ,53.5284 ,1.37924 ,0.88734 ,8.70662 
296 ,53.7205 ,1.38118 ,0.85312 ,8.37084 
297 ,53.8965 ,1.38297 ,0.83943 ,8.23653 
298 ,54.0722 ,1.38477 ,0.82232 ,8.06864 
299 ,54.2487 ,1.38647 ,0.83601 ,8.20295 
300 ,54.4407 ,1.38838 ,0.80521 ,7.90074 
301 ,54.6166 ,1.39013 ,0.80521 ,7.90074 
302 ,54.8087 ,1.39198 ,0.78468 ,7.69927 
303 ,54.9850 ,1.39383 ,0.77099 ,7.56496 
304 ,55.1608 ,1.39558 ,0.76415 ,7.49780 
305 ,55.3371 ,1.39736 ,0.75046 ,7.36349 
306 ,55.5289 ,1.39921 ,0.72992 ,7.16202 
307 ,55.7052 ,1.40105 ,0.73677 ,7.22918 
308 ,55.8811 ,1.40280 ,0.69913 ,6.85982 
309 ,56.0573 ,1.40462 ,0.69570 ,6.82624 
310 ,56.2330 ,1.40628 ,0.69570 ,6.82624 
311 ,56.4093 ,1.40803 ,0.67859 ,6.65835 
312 ,56.5855 ,1.40982 ,0.65806 ,6.45688 
313 ,56.7617 ,1.41156 ,0.63068 ,6.18825 
314 ,56.9537 ,1.41342 ,0.65464 ,6.42330 
315 ,57.1457 ,1.41546 ,0.61357 ,6.02036 
316 ,57.3057 ,1.41714 ,0.61015 ,5.98678 
317 ,57.4816 ,1.41874 ,0.59304 ,5.81889 
318 ,57.6581 ,1.42055 ,0.58962 ,5.78531 
319 ,57.8498 ,1.42243 ,0.57593 ,5.65100 
320 ,58.0260 ,1.42422 ,0.56224 ,5.51668 
321 ,58.2021 ,1.42597 ,0.54513 ,5.34879 
322 ,58.3938 ,1.42794 ,0.54171 ,5.31522 
323 ,58.5863 ,1.42972 ,0.54513 ,5.34879 
324 ,58.7784 ,1.43173 ,0.51091 ,5.01301 
325 ,58.9550 ,1.43351 ,0.50406 ,4.94585 
326 ,59.1306 ,1.43530 ,0.49380 ,4.84512 
327 ,59.3067 ,1.43706 ,0.49722 ,4.87870 
328 ,59.4987 ,1.43891 ,0.46300 ,4.54291 
329 ,59.6749 ,1.44072 ,0.45615 ,4.47576 
330 ,59.8510 ,1.44248 ,0.45273 ,4.44218 
331 ,60.0430 ,1.44435 ,0.42877 ,4.20713 
332 ,60.2190 ,1.44613 ,0.41166 ,4.03924 
333 ,60.3945 ,1.44791 ,0.41166 ,4.03924 
334 ,60.5711 ,1.44967 ,0.41166 ,4.03924 
335 ,60.7632 ,1.45157 ,0.37744 ,3.70346 
336 ,60.9389 ,1.45339 ,0.36375 ,3.56914 
337 ,61.1152 ,1.45509 ,0.37060 ,3.63630 
338 ,61.2913 ,1.45686 ,0.36375 ,3.56914 
339 ,61.4670 ,1.45856 ,0.33980 ,3.33410 
340 ,61.6433 ,1.46040 ,0.32611 ,3.19978 
341 ,61.8195 ,1.46218 ,0.31242 ,3.06547 
342 ,61.9957 ,1.46388 ,0.29189 ,2.86400 
343 ,62.2037 ,1.46591 ,0.27478 ,2.69611 
344 ,62.3798 ,1.46776 ,0.27478 ,2.69611 
345 ,62.5559 ,1.46949 ,0.28504 ,2.79684 
346 ,62.7319 ,1.47123 ,0.27820 ,2.72969 
347 ,62.9240 ,1.47312 ,0.24055 ,2.36032 
348 ,63.1002 ,1.47492 ,0.21660 ,2.12528 
349 ,63.2922 ,1.47681 ,0.22687 ,2.22601 
350 ,63.4843 ,1.47871 ,0.20976 ,2.05812 
351 ,63.6763 ,1.48076 ,0.19264 ,1.89023 
352 ,63.8684 ,1.48261 ,0.19949 ,1.95738 
353 ,64.0445 ,1.48436 ,0.17211 ,1.68876 
354 ,64.2367 ,1.48634 ,0.16185 ,1.58802 
355 ,64.4124 ,1.48811 ,0.16527 ,1.62160 
356 ,64.5886 ,1.48981 ,0.16185 ,1.58802 
357 ,64.7647 ,1.49159 ,0.13447 ,1.31940 
358 ,64.9571 ,1.49354 ,0.11393 ,1.11793 
359 ,65.1329 ,1.49525 ,0.11051 ,1.08435 
360 ,65.3089 ,1.49704 ,0.11051 ,1.08435 
361 ,65.5012 ,1.49894 ,0.06945 ,0.68141 
362 ,65.6929 ,1.50085 ,0.08314 ,0.81572 
363 ,65.8694 ,1.50258 ,0.07287 ,0.71499 
364 ,66.0614 ,1.50452 ,0.04891 ,0.47994 
365 ,66.2375 ,1.50625 ,0.03180 ,0.31205 
366 ,66.4136 ,1.50807 ,0.03522 ,0.34563 
367 ,66.5897 ,1.50982 ,0.03180 ,0.31205 
368 ,66.7658 ,1.51160 ,0.01811 ,0.17773 
369 ,66.9584 ,1.51353 ,-0.00584 ,-0.05731 
370 ,67.1339 ,1.51523 ,-0.00242 ,-0.02373 
371 ,67.3096 ,1.51705 ,-0.01953 ,-0.19163 
372 ,67.4858 ,1.51874 ,-0.03322 ,-0.32594 
373 ,67.6781 ,1.52070 ,-0.05717 ,-0.56099 
374 ,67.8698 ,1.52274 ,-0.06060 ,-0.59457 
375 ,68.0622 ,1.52452 ,-0.07086 ,-0.69530 
376 ,68.2383 ,1.52631 ,-0.08797 ,-0.86319 
377 ,68.4303 ,1.52820 ,-0.08797 ,-0.86319 
378 ,68.6065 ,1.53004 ,-0.09140 ,-0.89677 
379 ,68.7826 ,1.53177 ,-0.09482 ,-0.93035 
380 ,68.9746 ,1.53360 ,-0.11535 ,-1.13182 
381 ,69.1667 ,1.53564 ,-0.13246 ,-1.29971 
382 ,69.3587 ,1.53749 ,-0.16326 ,-1.60191 
383 ,69.5348 ,1.53922 ,-0.17011 ,-1.66907 
384 ,69.7109 ,1.54107 ,-0.16668 ,-1.63549 
385 ,69.9029 ,1.54293 ,-0.19064 ,-1.87054 
386 ,70.0791 ,1.54470 ,-0.20775 ,-2.03843 
387 ,70.2551 ,1.54653 ,-0.21117 ,-2.07201 
388 ,70.4636 ,1.54845 ,-0.20090 ,-1.97128 
389 ,70.6552 ,1.55040 ,-0.22486 ,-2.20632 
390 ,70.8472 ,1.55228 ,-0.23855 ,-2.34064 
391 ,71.0233 ,1.55410 ,-0.25224 ,-2.47495 
392 ,71.2152 ,1.55604 ,-0.26593 ,-2.60926 
393 ,71.3915 ,1.55784 ,-0.27619 ,-2.71000 
394 ,71.5835 ,1.55977 ,-0.27277 ,-2.67642 
395 ,71.7596 ,1.56149 ,-0.30699 ,-3.01220 
396 ,71.9356 ,1.56323 ,-0.31041 ,-3.04578 
397 ,72.1276 ,1.56523 ,-0.32068 ,-3.14652 
398 ,72.3197 ,1.56706 ,-0.31726 ,-3.11294 
399 ,72.4958 ,1.56881 ,-0.35148 ,-3.44872 
400 ,72.6721 ,1.57065 ,-0.35148 ,-3.44872 
401 ,72.8639 ,1.57251 ,-0.35832 ,-3.51588 
402 ,73.0399 ,1.57429 ,-0.38228 ,-3.75093 
403 ,73.2162 ,1.57608 ,-0.40281 ,-3.95240 
404 ,73.4083 ,1.57798 ,-0.39597 ,-3.88524 
405 ,73.6003 ,1.57989 ,-0.40281 ,-3.95240 
406 ,73.7763 ,1.58164 ,-0.42335 ,-4.15387 
407 ,73.9522 ,1.58343 ,-0.44388 ,-4.35534 
408 ,74.1120 ,1.58512 ,-0.43361 ,-4.25460 
409 ,74.2886 ,1.58678 ,-0.43703 ,-4.28818 
410 ,74.4646 ,1.58852 ,-0.45072 ,-4.42249 
411 ,74.6407 ,1.59030 ,-0.46783 ,-4.59038 
412 ,74.8166 ,1.59202 ,-0.49179 ,-4.82543 
413 ,75.0090 ,1.59387 ,-0.49863 ,-4.89259 
414 ,75.2007 ,1.59589 ,-0.49179 ,-4.82543 
415 ,75.4090 ,1.59785 ,-0.51574 ,-5.06048 
416 ,75.5850 ,1.59971 ,-0.52259 ,-5.12764 
417 ,75.7771 ,1.60159 ,-0.54312 ,-5.32911 
418 ,75.9531 ,1.60341 ,-0.56708 ,-5.56415 
419 ,76.1292 ,1.60513 ,-0.55681 ,-5.46342 
420 ,76.3054 ,1.60693 ,-0.56365 ,-5.53058 
421 ,76.4970 ,1.60891 ,-0.59103 ,-5.79920 
422 ,76.6736 ,1.61061 ,-0.60130 ,-5.89994 
423 ,76.8497 ,1.61241 ,-0.61156 ,-6.00067 
424 ,77.0257 ,1.61414 ,-0.61156 ,-6.00067 
425 ,77.2176 ,1.61604 ,-0.63210 ,-6.20214 
426 ,77.4259 ,1.61799 ,-0.64579 ,-6.33646 
427 ,77.6180 ,1.62007 ,-0.65605 ,-6.43719 
428 ,77.7941 ,1.62181 ,-0.66632 ,-6.53793 
429 ,77.9861 ,1.62370 ,-0.68001 ,-6.67224 
430 ,78.1622 ,1.62555 ,-0.67659 ,-6.63866 
431 ,78.3382 ,1.62736 ,-0.69712 ,-6.84013 
432 ,78.5142 ,1.62901 ,-0.70054 ,-6.87371 
433 ,78.6903 ,1.63077 ,-0.70739 ,-6.94086 
434 ,78.8665 ,1.63256 ,-0.71765 ,-7.04160 
435 ,79.0424 ,1.63433 ,-0.71765 ,-7.04160 
436 ,79.2186 ,1.63606 ,-0.75187 ,-7.37738 
437 ,79.3944 ,1.63780 ,-0.76898 ,-7.54527 
438 ,79.5707 ,1.63960 ,-0.76214 ,-7.47812 
439 ,79.7627 ,1.64151 ,-0.76556 ,-7.51170 
440 ,79.9390 ,1.64325 ,-0.79294 ,-7.78032 
441 ,80.1149 ,1.64500 ,-0.79978 ,-7.84748 
442 ,80.2911 ,1.64678 ,-0.80321 ,-7.88106 
443 ,80.4830 ,1.64870 ,-0.80663 ,-7.91464 
444 ,80.6751 ,1.65064 ,-0.83743 ,-8.21684 
445 ,80.8673 ,1.65252 ,-0.82716 ,-8.11611 
446 ,81.0751 ,1.65456 ,-0.84427 ,-8.28400 
447 ,81.2515 ,1.65637 ,-0.85454 ,-8.38473 
448 ,81.4431 ,1.65822 ,-0.87165 ,-8.55262 
449 ,81.6196 ,1.66010 ,-0.86481 ,-8.48547 
450 ,81.8117 ,1.66202 ,-0.89903 ,-8.82125 
451 ,81.9878 ,1.66376 ,-0.89218 ,-8.75409 
452 ,82.1636 ,1.66552 ,-0.89903 ,-8.82125 
453 ,82.3399 ,1.66728 ,-0.92640 ,-9.08988 
454 ,82.5155 ,1.66902 ,-0.93667 ,-9.19061 
455 ,82.6921 ,1.67077 ,-0.94351 ,-9.25777 
456 ,82.8682 ,1.67256 ,-0.95378 ,-9.35850 
457 ,83.0443 ,1.67431 ,-0.96405 ,-9.45924 
458 ,83.2363 ,1.67623 ,-0.97774 ,-9.59355 
459 ,83.4124 ,1.67797 ,-0.98458 ,-9.66071 
460 ,83.5884 ,1.67970 ,-0.99485 ,-9.76144 
461 ,83.7645 ,1.68145 ,-0.98800 ,-9.69429 
462 ,83.9406 ,1.68323 ,-0.99827 ,-9.79502 
463 ,84.1326 ,1.68511 ,-1.01880 ,-9.99649 
