Data stamp = , 30-03-2022 14:40:45 139

Calibration Values: 
Slope = , 26.54 , g/V 
Offset Voltage at no contact = , -0.501760 , V 

No , Time , Stage Position ,   Mass , Force 
   ,  (s) ,      (mm)      ,   (g)  , (mN)  

1 ,0.0000 ,0.89946 ,4.99737 ,49.03416 
2 ,0.2304 ,0.89957 ,5.00421 ,49.10132 
3 ,0.5506 ,0.90045 ,4.98026 ,48.86627 
4 ,0.7586 ,0.90201 ,4.99394 ,49.00058 
5 ,0.9347 ,0.90360 ,4.99737 ,49.03416 
6 ,1.1107 ,0.90524 ,5.00421 ,49.10132 
7 ,1.2869 ,0.90701 ,5.00079 ,49.06774 
8 ,1.4950 ,0.90914 ,4.96657 ,48.73196 
9 ,1.6709 ,0.91093 ,4.97683 ,48.83269 
10 ,1.8631 ,0.91279 ,4.93235 ,48.39618 
11 ,2.0549 ,0.91481 ,4.93235 ,48.39618 
12 ,2.2310 ,0.91654 ,4.91866 ,48.26186 
13 ,2.4074 ,0.91825 ,4.89470 ,48.02681 
14 ,2.5832 ,0.92005 ,4.86732 ,47.75819 
15 ,2.7597 ,0.92183 ,4.85364 ,47.62387 
16 ,2.9515 ,0.92370 ,4.85364 ,47.62387 
17 ,3.1597 ,0.92569 ,4.82284 ,47.32167 
18 ,3.3356 ,0.92754 ,4.81599 ,47.25451 
19 ,3.5118 ,0.92935 ,4.80230 ,47.12020 
20 ,3.7039 ,0.93129 ,4.78177 ,46.91873 
21 ,3.8799 ,0.93301 ,4.75439 ,46.65010 
22 ,4.0557 ,0.93475 ,4.74755 ,46.58295 
23 ,4.2320 ,0.93652 ,4.74070 ,46.51579 
24 ,4.4082 ,0.93826 ,4.72702 ,46.38148 
25 ,4.6001 ,0.94023 ,4.69964 ,46.11285 
26 ,4.7762 ,0.94196 ,4.68595 ,45.97854 
27 ,4.9843 ,0.94393 ,4.65857 ,45.70991 
28 ,5.1604 ,0.94579 ,4.63462 ,45.47486 
29 ,5.3366 ,0.94756 ,4.63462 ,45.47486 
30 ,5.5285 ,0.94950 ,4.60724 ,45.20624 
31 ,5.7208 ,0.95138 ,4.58671 ,45.00477 
32 ,5.8966 ,0.95321 ,4.56617 ,44.80330 
33 ,6.0725 ,0.95493 ,4.56617 ,44.80330 
34 ,6.2649 ,0.95681 ,4.51826 ,44.33320 
35 ,6.4407 ,0.95865 ,4.51826 ,44.33320 
36 ,6.6168 ,0.96037 ,4.50457 ,44.19889 
37 ,6.8092 ,0.96226 ,4.49089 ,44.06457 
38 ,6.9848 ,0.96409 ,4.46009 ,43.76237 
39 ,7.1773 ,0.96586 ,4.44640 ,43.62806 
40 ,7.3693 ,0.96790 ,4.43955 ,43.56090 
41 ,7.5453 ,0.96968 ,4.42586 ,43.42659 
42 ,7.7215 ,0.97137 ,4.39507 ,43.12438 
43 ,7.8975 ,0.97321 ,4.37111 ,42.88933 
44 ,8.0892 ,0.97503 ,4.35742 ,42.75502 
45 ,8.2656 ,0.97682 ,4.33689 ,42.55355 
46 ,8.4416 ,0.97862 ,4.32662 ,42.45282 
47 ,8.6177 ,0.98034 ,4.29924 ,42.18419 
48 ,8.8255 ,0.98232 ,4.28213 ,42.01630 
49 ,9.0024 ,0.98420 ,4.27529 ,41.94914 
50 ,9.1778 ,0.98598 ,4.25476 ,41.74767 
51 ,9.3538 ,0.98774 ,4.22738 ,41.47905 
52 ,9.5301 ,0.98943 ,4.22053 ,41.41189 
53 ,9.7062 ,0.99124 ,4.20000 ,41.21042 
54 ,9.8822 ,0.99305 ,4.18289 ,41.04253 
55 ,10.0582 ,0.99485 ,4.17605 ,40.97537 
56 ,10.2345 ,0.99649 ,4.15209 ,40.74032 
57 ,10.4265 ,0.99847 ,4.13840 ,40.60601 
58 ,10.6028 ,1.00025 ,4.12129 ,40.43812 
59 ,10.7785 ,1.00195 ,4.08023 ,40.03518 
60 ,11.0028 ,1.00405 ,4.06996 ,39.93444 
61 ,11.1787 ,1.00596 ,4.04600 ,39.69940 
62 ,11.3708 ,1.00783 ,4.05285 ,39.76655 
63 ,11.5470 ,1.00962 ,4.02889 ,39.53150 
64 ,11.7552 ,1.01157 ,4.02205 ,39.46435 
65 ,11.9312 ,1.01348 ,4.01178 ,39.36361 
66 ,12.1233 ,1.01529 ,3.99125 ,39.16214 
67 ,12.2993 ,1.01714 ,3.94676 ,38.72562 
68 ,12.4754 ,1.01892 ,3.93650 ,38.62489 
69 ,12.6512 ,1.02065 ,3.92623 ,38.52415 
70 ,12.8276 ,1.02245 ,3.90912 ,38.35626 
71 ,13.0194 ,1.02431 ,3.88516 ,38.12122 
72 ,13.2116 ,1.02629 ,3.88174 ,38.08764 
73 ,13.3876 ,1.02800 ,3.86121 ,37.88617 
74 ,13.5638 ,1.02979 ,3.84067 ,37.68470 
75 ,13.7559 ,1.03167 ,3.81330 ,37.41607 
76 ,13.9479 ,1.03364 ,3.81672 ,37.44965 
77 ,14.1239 ,1.03536 ,3.78250 ,37.11387 
78 ,14.2999 ,1.03715 ,3.76196 ,36.91240 
79 ,14.4763 ,1.03893 ,3.75854 ,36.87882 
80 ,14.6682 ,1.04081 ,3.73459 ,36.64377 
81 ,14.8440 ,1.04262 ,3.73801 ,36.67735 
82 ,15.0201 ,1.04431 ,3.69010 ,36.20725 
83 ,15.1805 ,1.04607 ,3.67641 ,36.07294 
84 ,15.3725 ,1.04790 ,3.67983 ,36.10652 
85 ,15.5646 ,1.04973 ,3.66957 ,36.00578 
86 ,15.7568 ,1.05168 ,3.62850 ,35.60284 
87 ,15.9326 ,1.05348 ,3.63192 ,35.63642 
88 ,16.1248 ,1.05539 ,3.60797 ,35.40137 
89 ,16.3009 ,1.05718 ,3.59428 ,35.26706 
90 ,16.4767 ,1.05905 ,3.57032 ,35.03201 
91 ,16.6531 ,1.06069 ,3.57032 ,35.03201 
92 ,16.8291 ,1.06250 ,3.56006 ,34.93128 
93 ,17.0052 ,1.06421 ,3.53268 ,34.66265 
94 ,17.1813 ,1.06597 ,3.49846 ,34.32687 
95 ,17.3573 ,1.06775 ,3.49846 ,34.32687 
96 ,17.5814 ,1.06983 ,3.47792 ,34.12540 
97 ,17.7576 ,1.07174 ,3.45397 ,33.89035 
98 ,17.9493 ,1.07359 ,3.45739 ,33.92393 
99 ,18.1417 ,1.07556 ,3.41633 ,33.52099 
100 ,18.3177 ,1.07732 ,3.39921 ,33.35310 
101 ,18.4938 ,1.07910 ,3.39921 ,33.35310 
102 ,18.6696 ,1.08081 ,3.38895 ,33.25236 
103 ,18.8460 ,1.08261 ,3.37526 ,33.11805 
104 ,19.0218 ,1.08438 ,3.35473 ,32.91658 
105 ,19.1980 ,1.08616 ,3.33077 ,32.68153 
106 ,19.3899 ,1.08808 ,3.32393 ,32.61437 
107 ,19.5662 ,1.08979 ,3.30682 ,32.44648 
108 ,19.7424 ,1.09155 ,3.28628 ,32.24501 
109 ,19.9344 ,1.09347 ,3.26575 ,32.04354 
110 ,20.1265 ,1.09532 ,3.25548 ,31.94281 
111 ,20.3026 ,1.09725 ,3.24180 ,31.80849 
112 ,20.4787 ,1.09892 ,3.22811 ,31.67418 
113 ,20.6546 ,1.10070 ,3.20415 ,31.43913 
114 ,20.8468 ,1.10260 ,3.19388 ,31.33840 
115 ,21.0229 ,1.10440 ,3.18362 ,31.23766 
116 ,21.2148 ,1.10627 ,3.16309 ,31.03619 
117 ,21.3910 ,1.10808 ,3.14940 ,30.90188 
118 ,21.5670 ,1.10986 ,3.14597 ,30.86830 
119 ,21.7588 ,1.11175 ,3.11518 ,30.56610 
120 ,21.9352 ,1.11346 ,3.09464 ,30.36463 
121 ,22.1113 ,1.11526 ,3.09464 ,30.36463 
122 ,22.3036 ,1.11711 ,3.06042 ,30.02884 
123 ,22.4794 ,1.11892 ,3.05358 ,29.96169 
124 ,22.6555 ,1.12069 ,3.03989 ,29.82737 
125 ,22.8314 ,1.12243 ,3.03304 ,29.76022 
126 ,23.0077 ,1.12423 ,3.02620 ,29.69306 
127 ,23.1839 ,1.12593 ,2.99198 ,29.35728 
128 ,23.4081 ,1.12808 ,2.97829 ,29.22297 
129 ,23.5839 ,1.12997 ,2.97487 ,29.18939 
130 ,23.7600 ,1.13173 ,2.94749 ,28.92076 
131 ,23.9360 ,1.13348 ,2.91669 ,28.61856 
132 ,24.1121 ,1.13525 ,2.91669 ,28.61856 
133 ,24.2883 ,1.13702 ,2.92011 ,28.65213 
134 ,24.4643 ,1.13883 ,2.89616 ,28.41709 
135 ,24.6403 ,1.14058 ,2.86193 ,28.08130 
136 ,24.8165 ,1.14230 ,2.85851 ,28.04772 
137 ,24.9764 ,1.14402 ,2.85509 ,28.01415 
138 ,25.1526 ,1.14565 ,2.83798 ,27.84625 
139 ,25.3286 ,1.14743 ,2.82771 ,27.74552 
140 ,25.5048 ,1.14914 ,2.80718 ,27.54405 
141 ,25.6809 ,1.15097 ,2.79691 ,27.44332 
142 ,25.8889 ,1.15285 ,2.77638 ,27.24185 
143 ,26.0808 ,1.15488 ,2.74216 ,26.90606 
144 ,26.2570 ,1.15664 ,2.75243 ,27.00680 
145 ,26.4333 ,1.15845 ,2.71820 ,26.67101 
146 ,26.6254 ,1.16035 ,2.72505 ,26.73817 
147 ,26.8174 ,1.16231 ,2.69425 ,26.43597 
148 ,26.9931 ,1.16406 ,2.68398 ,26.33523 
149 ,27.1696 ,1.16586 ,2.67029 ,26.20092 
150 ,27.3776 ,1.16778 ,2.65660 ,26.06661 
151 ,27.5537 ,1.16962 ,2.63265 ,25.83156 
152 ,27.7298 ,1.17144 ,2.61896 ,25.69724 
153 ,27.9057 ,1.17322 ,2.61896 ,25.69724 
154 ,28.0814 ,1.17492 ,2.59501 ,25.46220 
155 ,28.2578 ,1.17667 ,2.56763 ,25.19357 
156 ,28.4340 ,1.17846 ,2.55736 ,25.09283 
157 ,28.6099 ,1.18021 ,2.55052 ,25.02568 
158 ,28.8021 ,1.18211 ,2.52656 ,24.79063 
159 ,28.9783 ,1.18389 ,2.51630 ,24.68989 
160 ,29.1542 ,1.18581 ,2.51630 ,24.68989 
161 ,29.3305 ,1.18737 ,2.49576 ,24.48842 
162 ,29.5070 ,1.18921 ,2.48550 ,24.38769 
163 ,29.6826 ,1.19094 ,2.47181 ,24.25338 
164 ,29.8586 ,1.19275 ,2.45470 ,24.08549 
165 ,30.0185 ,1.19439 ,2.43074 ,23.85044 
166 ,30.2105 ,1.19617 ,2.43759 ,23.91759 
167 ,30.4028 ,1.19808 ,2.40336 ,23.58181 
168 ,30.6111 ,1.20014 ,2.38625 ,23.41392 
169 ,30.8032 ,1.20216 ,2.39994 ,23.54823 
170 ,30.9791 ,1.20401 ,2.35203 ,23.07814 
171 ,31.1708 ,1.20578 ,2.35545 ,23.11171 
172 ,31.3473 ,1.20759 ,2.34861 ,23.04456 
173 ,31.5392 ,1.20948 ,2.31439 ,22.70877 
174 ,31.7154 ,1.21119 ,2.29728 ,22.54088 
175 ,31.8912 ,1.21299 ,2.29728 ,22.54088 
176 ,32.0675 ,1.21477 ,2.28359 ,22.40657 
177 ,32.2272 ,1.21649 ,2.26306 ,22.20510 
178 ,32.4039 ,1.21817 ,2.25963 ,22.17152 
179 ,32.5954 ,1.22009 ,2.22883 ,21.86932 
180 ,32.7719 ,1.22184 ,2.20830 ,21.66785 
181 ,32.9479 ,1.22360 ,2.20146 ,21.60069 
182 ,33.1241 ,1.22531 ,2.19461 ,21.53353 
183 ,33.3157 ,1.22716 ,2.19461 ,21.53353 
184 ,33.4920 ,1.22901 ,2.15697 ,21.16417 
185 ,33.6683 ,1.23075 ,2.15697 ,21.16417 
186 ,33.8759 ,1.23274 ,2.13986 ,20.99628 
187 ,34.0524 ,1.23461 ,2.11590 ,20.76123 
188 ,34.2442 ,1.23655 ,2.11590 ,20.76123 
189 ,34.4204 ,1.23827 ,2.09195 ,20.52619 
190 ,34.5966 ,1.24006 ,2.08168 ,20.42545 
191 ,34.7727 ,1.24181 ,2.06115 ,20.22398 
192 ,34.9645 ,1.24376 ,2.05773 ,20.19040 
193 ,35.1407 ,1.24547 ,2.02350 ,19.85462 
194 ,35.3167 ,1.24723 ,2.01666 ,19.78746 
195 ,35.4929 ,1.24901 ,2.01324 ,19.75388 
196 ,35.6690 ,1.25074 ,2.00297 ,19.65315 
197 ,35.8451 ,1.25254 ,1.98586 ,19.48526 
198 ,36.0213 ,1.25431 ,1.97217 ,19.35094 
199 ,36.2133 ,1.25619 ,1.95164 ,19.14948 
200 ,36.4054 ,1.25819 ,1.95164 ,19.14948 
201 ,36.5811 ,1.25990 ,1.93111 ,18.94801 
202 ,36.7735 ,1.26175 ,1.90715 ,18.71296 
203 ,36.9652 ,1.26379 ,1.89004 ,18.54507 
204 ,37.1416 ,1.26554 ,1.88662 ,18.51149 
205 ,37.3175 ,1.26721 ,1.85924 ,18.24286 
206 ,37.5099 ,1.26915 ,1.85582 ,18.20928 
207 ,37.6857 ,1.27092 ,1.85240 ,18.17570 
208 ,37.8777 ,1.27281 ,1.81475 ,17.80634 
209 ,38.0540 ,1.27460 ,1.79080 ,17.57129 
210 ,38.2455 ,1.27653 ,1.80106 ,17.67203 
211 ,38.4218 ,1.27826 ,1.79422 ,17.60487 
212 ,38.5977 ,1.28004 ,1.77026 ,17.36983 
213 ,38.7740 ,1.28180 ,1.75315 ,17.20193 
214 ,38.9823 ,1.28389 ,1.73946 ,17.06762 
215 ,39.1585 ,1.28567 ,1.71893 ,16.86615 
216 ,39.3345 ,1.28744 ,1.70524 ,16.73184 
217 ,39.5106 ,1.28916 ,1.70182 ,16.69826 
218 ,39.6705 ,1.29086 ,1.69155 ,16.59752 
219 ,39.8467 ,1.29250 ,1.67444 ,16.42963 
220 ,40.0224 ,1.29427 ,1.65733 ,16.26174 
221 ,40.2148 ,1.29619 ,1.64364 ,16.12743 
222 ,40.3909 ,1.29798 ,1.62995 ,15.99311 
223 ,40.5828 ,1.29988 ,1.60942 ,15.79164 
224 ,40.7591 ,1.30166 ,1.58889 ,15.59018 
225 ,40.9512 ,1.30355 ,1.60942 ,15.79164 
226 ,41.1272 ,1.30533 ,1.57862 ,15.48944 
227 ,41.3035 ,1.30708 ,1.56151 ,15.32155 
228 ,41.4794 ,1.30887 ,1.53413 ,15.05292 
229 ,41.6715 ,1.31062 ,1.52729 ,14.98577 
230 ,41.8636 ,1.31270 ,1.52387 ,14.95219 
231 ,42.0555 ,1.31461 ,1.49991 ,14.71714 
232 ,42.2317 ,1.31636 ,1.49307 ,14.64998 
233 ,42.4233 ,1.31827 ,1.48965 ,14.61640 
234 ,42.5999 ,1.32001 ,1.44858 ,14.21346 
235 ,42.7756 ,1.32190 ,1.45200 ,14.24704 
236 ,42.9520 ,1.32361 ,1.43831 ,14.11273 
237 ,43.1280 ,1.32536 ,1.44516 ,14.17989 
238 ,43.3041 ,1.32712 ,1.41436 ,13.87768 
239 ,43.4802 ,1.32884 ,1.39040 ,13.64263 
240 ,43.6561 ,1.33069 ,1.39040 ,13.64263 
241 ,43.8159 ,1.33232 ,1.38356 ,13.57548 
242 ,43.9923 ,1.33400 ,1.35618 ,13.30685 
243 ,44.1682 ,1.33572 ,1.34934 ,13.23969 
244 ,44.3444 ,1.33748 ,1.34591 ,13.20612 
245 ,44.5206 ,1.33926 ,1.31854 ,12.93749 
246 ,44.6967 ,1.34105 ,1.30143 ,12.76960 
247 ,44.8724 ,1.34276 ,1.30143 ,12.76960 
248 ,45.0646 ,1.34460 ,1.28432 ,12.60171 
249 ,45.2569 ,1.34665 ,1.26036 ,12.36666 
250 ,45.4328 ,1.34840 ,1.25352 ,12.29950 
251 ,45.6092 ,1.35013 ,1.25694 ,12.33308 
252 ,45.8010 ,1.35199 ,1.21929 ,11.96372 
253 ,45.9767 ,1.35379 ,1.19876 ,11.76225 
254 ,46.1531 ,1.35556 ,1.20561 ,11.82941 
255 ,46.3292 ,1.35728 ,1.18507 ,11.62794 
256 ,46.5214 ,1.35913 ,1.16796 ,11.46004 
257 ,46.6974 ,1.36104 ,1.15770 ,11.35931 
258 ,46.8736 ,1.36276 ,1.15085 ,11.29215 
259 ,47.0496 ,1.36462 ,1.12690 ,11.05710 
260 ,47.2256 ,1.36627 ,1.12005 ,10.98995 
261 ,47.4019 ,1.36808 ,1.10294 ,10.82206 
262 ,47.5937 ,1.36991 ,1.09610 ,10.75490 
263 ,47.7697 ,1.37176 ,1.08925 ,10.68774 
264 ,47.9620 ,1.37369 ,1.06187 ,10.41912 
265 ,48.1378 ,1.37541 ,1.04819 ,10.28480 
266 ,48.3301 ,1.37733 ,1.04819 ,10.28480 
267 ,48.5060 ,1.37910 ,1.03792 ,10.18407 
268 ,48.6822 ,1.38083 ,1.00712 ,9.88186 
269 ,48.8743 ,1.38277 ,0.99685 ,9.78113 
270 ,49.0663 ,1.38469 ,1.01054 ,9.91544 
271 ,49.2424 ,1.38647 ,0.97632 ,9.57966 
272 ,49.4345 ,1.38838 ,0.96263 ,9.44535 
273 ,49.6105 ,1.39010 ,0.95921 ,9.41177 
274 ,49.7867 ,1.39188 ,0.93868 ,9.21030 
275 ,50.0106 ,1.39401 ,0.92841 ,9.10956 
276 ,50.1869 ,1.39584 ,0.92157 ,9.04241 
277 ,50.3788 ,1.39783 ,0.89761 ,8.80736 
278 ,50.5709 ,1.39973 ,0.89077 ,8.74020 
279 ,50.7470 ,1.40150 ,0.88392 ,8.67305 
280 ,50.9229 ,1.40323 ,0.86339 ,8.47158 
281 ,51.1152 ,1.40516 ,0.84628 ,8.30368 
282 ,51.2912 ,1.40692 ,0.83601 ,8.20295 
283 ,51.4673 ,1.40870 ,0.83943 ,8.23653 
284 ,51.6429 ,1.41042 ,0.81548 ,8.00148 
285 ,51.8195 ,1.41221 ,0.79152 ,7.76643 
286 ,51.9954 ,1.41403 ,0.77441 ,7.59854 
287 ,52.1716 ,1.41572 ,0.78810 ,7.73285 
288 ,52.3316 ,1.41743 ,0.76072 ,7.46423 
289 ,52.5236 ,1.41922 ,0.74704 ,7.32991 
290 ,52.6998 ,1.42102 ,0.74019 ,7.26276 
291 ,52.8759 ,1.42273 ,0.72992 ,7.16202 
292 ,53.0519 ,1.42457 ,0.71624 ,7.02771 
293 ,53.2280 ,1.42626 ,0.71624 ,7.02771 
294 ,53.4042 ,1.42806 ,0.70939 ,6.96055 
295 ,53.5961 ,1.42994 ,0.67859 ,6.65835 
296 ,53.7723 ,1.43176 ,0.67517 ,6.62477 
297 ,53.9483 ,1.43352 ,0.67175 ,6.59119 
298 ,54.1244 ,1.43523 ,0.64779 ,6.35614 
299 ,54.3004 ,1.43698 ,0.62042 ,6.08752 
300 ,54.4926 ,1.43884 ,0.64095 ,6.28899 
301 ,54.6687 ,1.44071 ,0.62726 ,6.15467 
302 ,54.8447 ,1.44244 ,0.58619 ,5.75173 
303 ,55.0207 ,1.44420 ,0.58277 ,5.71815 
304 ,55.1969 ,1.44600 ,0.57593 ,5.65100 
305 ,55.3887 ,1.44792 ,0.57935 ,5.68458 
306 ,55.5810 ,1.44974 ,0.54513 ,5.34879 
307 ,55.7731 ,1.45171 ,0.54855 ,5.38237 
308 ,55.9651 ,1.45365 ,0.53144 ,5.21448 
309 ,56.1412 ,1.45538 ,0.51433 ,5.04659 
310 ,56.3173 ,1.45716 ,0.49722 ,4.87870 
311 ,56.4929 ,1.45894 ,0.49037 ,4.81154 
312 ,56.6693 ,1.46066 ,0.49380 ,4.84512 
313 ,56.8455 ,1.46244 ,0.47668 ,4.67723 
314 ,57.0216 ,1.46422 ,0.45615 ,4.47576 
315 ,57.2137 ,1.46617 ,0.45273 ,4.44218 
316 ,57.4055 ,1.46805 ,0.43904 ,4.30787 
317 ,57.5658 ,1.46974 ,0.41851 ,4.10640 
318 ,57.7419 ,1.47140 ,0.41509 ,4.07282 
319 ,57.9341 ,1.47336 ,0.40140 ,3.93850 
320 ,58.1100 ,1.47509 ,0.40140 ,3.93850 
321 ,58.2862 ,1.47685 ,0.37744 ,3.70346 
322 ,58.4942 ,1.47888 ,0.37744 ,3.70346 
323 ,58.6704 ,1.48067 ,0.36033 ,3.53557 
324 ,58.8623 ,1.48264 ,0.33638 ,3.30052 
325 ,59.0384 ,1.48435 ,0.32611 ,3.19978 
326 ,59.2145 ,1.48614 ,0.32269 ,3.16620 
327 ,59.3906 ,1.48786 ,0.31926 ,3.13263 
328 ,59.5666 ,1.48977 ,0.29531 ,2.89758 
329 ,59.7427 ,1.49140 ,0.29873 ,2.93116 
330 ,59.9348 ,1.49334 ,0.28162 ,2.76326 
331 ,60.1109 ,1.49510 ,0.27135 ,2.66253 
332 ,60.2869 ,1.49687 ,0.25424 ,2.49464 
333 ,60.4789 ,1.49867 ,0.23713 ,2.32675 
334 ,60.6549 ,1.50048 ,0.24398 ,2.39390 
335 ,60.8471 ,1.50242 ,0.23029 ,2.25959 
336 ,61.0392 ,1.50439 ,0.19264 ,1.89023 
337 ,61.2152 ,1.50615 ,0.19264 ,1.89023 
338 ,61.4074 ,1.50793 ,0.18238 ,1.78949 
339 ,61.5994 ,1.51001 ,0.16869 ,1.65518 
340 ,61.7594 ,1.51170 ,0.15500 ,1.52087 
341 ,61.9359 ,1.51334 ,0.14473 ,1.42013 
342 ,62.1113 ,1.51509 ,0.13789 ,1.35298 
343 ,62.2874 ,1.51685 ,0.14131 ,1.38655 
344 ,62.4634 ,1.51858 ,0.12078 ,1.18508 
345 ,62.6395 ,1.52036 ,0.08998 ,0.88288 
346 ,62.7996 ,1.52208 ,0.08314 ,0.81572 
347 ,62.9596 ,1.52366 ,0.09682 ,0.95004 
348 ,63.1358 ,1.52529 ,0.06945 ,0.68141 
349 ,63.3119 ,1.52708 ,0.07287 ,0.71499 
350 ,63.4878 ,1.52887 ,0.06602 ,0.64783 
351 ,63.6639 ,1.53059 ,0.04549 ,0.44636 
352 ,63.8399 ,1.53236 ,0.03180 ,0.31205 
353 ,64.0160 ,1.53417 ,0.02154 ,0.21131 
354 ,64.1921 ,1.53590 ,0.01469 ,0.14416 
355 ,64.3682 ,1.53760 ,0.00100 ,0.00984 
356 ,64.5442 ,1.53940 ,-0.01269 ,-0.12447 
357 ,64.7043 ,1.54113 ,-0.02980 ,-0.29236 
358 ,64.8803 ,1.54279 ,-0.03664 ,-0.35952 
359 ,65.0565 ,1.54451 ,-0.05033 ,-0.49383 
360 ,65.2165 ,1.54626 ,-0.04691 ,-0.46025 
361 ,65.3766 ,1.54782 ,-0.06402 ,-0.62814 
362 ,65.5365 ,1.54943 ,-0.07428 ,-0.72888 
363 ,65.7127 ,1.55104 ,-0.08113 ,-0.79604 
364 ,65.8889 ,1.55282 ,-0.08113 ,-0.79604 
365 ,66.0648 ,1.55461 ,-0.09824 ,-0.96393 
366 ,66.2409 ,1.55632 ,-0.12904 ,-1.26613 
367 ,66.4170 ,1.55811 ,-0.13931 ,-1.36687 
368 ,66.6094 ,1.55993 ,-0.13246 ,-1.29971 
369 ,66.8015 ,1.56200 ,-0.15299 ,-1.50118 
370 ,66.9935 ,1.56388 ,-0.16668 ,-1.63549 
371 ,67.1697 ,1.56565 ,-0.16668 ,-1.63549 
372 ,67.3618 ,1.56757 ,-0.19406 ,-1.90412 
373 ,67.5538 ,1.56951 ,-0.18722 ,-1.83696 
374 ,67.7295 ,1.57126 ,-0.20090 ,-1.97128 
375 ,67.9061 ,1.57301 ,-0.22486 ,-2.20632 
376 ,68.0819 ,1.57479 ,-0.24539 ,-2.40779 
377 ,68.2581 ,1.57654 ,-0.24539 ,-2.40779 
378 ,68.4662 ,1.57845 ,-0.24539 ,-2.40779 
379 ,68.6582 ,1.58047 ,-0.26250 ,-2.57569 
380 ,68.8344 ,1.58231 ,-0.27277 ,-2.67642 
381 ,69.0110 ,1.58407 ,-0.27619 ,-2.71000 
382 ,69.1864 ,1.58584 ,-0.29330 ,-2.87789 
383 ,69.3623 ,1.58756 ,-0.31041 ,-3.04578 
384 ,69.5384 ,1.58936 ,-0.32410 ,-3.18010 
385 ,69.7305 ,1.59123 ,-0.32068 ,-3.14652 
386 ,69.9224 ,1.59314 ,-0.34464 ,-3.38156 
387 ,70.0987 ,1.59496 ,-0.35490 ,-3.48230 
388 ,70.2748 ,1.59665 ,-0.36859 ,-3.61661 
389 ,70.4509 ,1.59846 ,-0.36859 ,-3.61661 
390 ,70.6270 ,1.60016 ,-0.38228 ,-3.75093 
391 ,70.8192 ,1.60212 ,-0.40281 ,-3.95240 
392 ,70.9950 ,1.60397 ,-0.42335 ,-4.15387 
393 ,71.2029 ,1.60585 ,-0.41992 ,-4.12029 
394 ,71.3792 ,1.60770 ,-0.44730 ,-4.38891 
395 ,71.5553 ,1.60949 ,-0.43361 ,-4.25460 
396 ,71.7312 ,1.61126 ,-0.44730 ,-4.38891 
397 ,71.9074 ,1.61296 ,-0.46441 ,-4.55681 
398 ,72.0835 ,1.61475 ,-0.47810 ,-4.69112 
399 ,72.2433 ,1.61649 ,-0.48837 ,-4.79185 
400 ,72.4197 ,1.61811 ,-0.50890 ,-4.99332 
401 ,72.5958 ,1.61987 ,-0.50206 ,-4.92617 
402 ,72.7715 ,1.62171 ,-0.50548 ,-4.95975 
403 ,72.9477 ,1.62340 ,-0.51574 ,-5.06048 
404 ,73.1240 ,1.62517 ,-0.53628 ,-5.26195 
405 ,73.2838 ,1.62689 ,-0.55339 ,-5.42984 
406 ,73.4601 ,1.62850 ,-0.56365 ,-5.53058 
407 ,73.6522 ,1.63032 ,-0.57734 ,-5.66489 
408 ,73.8444 ,1.63240 ,-0.56708 ,-5.56415 
409 ,74.0364 ,1.63423 ,-0.58761 ,-5.76562 
410 ,74.2127 ,1.63606 ,-0.60130 ,-5.89994 
411 ,74.3725 ,1.63775 ,-0.60472 ,-5.93352 
412 ,74.5486 ,1.63939 ,-0.61499 ,-6.03425 
413 ,74.7243 ,1.64115 ,-0.61841 ,-6.06783 
414 ,74.9005 ,1.64297 ,-0.64236 ,-6.30288 
415 ,75.0929 ,1.64471 ,-0.65947 ,-6.47077 
416 ,75.3010 ,1.64689 ,-0.66974 ,-6.57150 
417 ,75.4769 ,1.64870 ,-0.68685 ,-6.73940 
418 ,75.6531 ,1.65048 ,-0.67316 ,-6.60508 
419 ,75.8293 ,1.65220 ,-0.68343 ,-6.70582 
420 ,76.0210 ,1.65401 ,-0.70396 ,-6.90729 
421 ,76.1972 ,1.65586 ,-0.71423 ,-7.00802 
422 ,76.3734 ,1.65769 ,-0.73134 ,-7.17591 
423 ,76.5494 ,1.65943 ,-0.73134 ,-7.17591 
424 ,76.7415 ,1.66132 ,-0.76214 ,-7.47812 
425 ,76.9175 ,1.66310 ,-0.76898 ,-7.54527 
426 ,77.0935 ,1.66489 ,-0.77241 ,-7.57885 
427 ,77.2697 ,1.66664 ,-0.76556 ,-7.51170 
428 ,77.4457 ,1.66839 ,-0.78267 ,-7.67959 
429 ,77.6219 ,1.67014 ,-0.80321 ,-7.88106 
430 ,77.8138 ,1.67206 ,-0.81005 ,-7.94821 
431 ,77.9900 ,1.67381 ,-0.80663 ,-7.91464 
432 ,78.1659 ,1.67561 ,-0.81347 ,-7.98179 
433 ,78.3420 ,1.67736 ,-0.84427 ,-8.28400 
434 ,78.5341 ,1.67928 ,-0.85112 ,-8.35115 
435 ,78.7263 ,1.68115 ,-0.86481 ,-8.48547 
436 ,78.9183 ,1.68311 ,-0.87507 ,-8.58620 
437 ,79.1104 ,1.68504 ,-0.87507 ,-8.58620 
438 ,79.3026 ,1.68680 ,-0.88876 ,-8.72051 
439 ,79.4784 ,1.68867 ,-0.90929 ,-8.92198 
440 ,79.6547 ,1.69044 ,-0.92298 ,-9.05630 
441 ,79.8307 ,1.69219 ,-0.90929 ,-8.92198 
442 ,80.0392 ,1.69423 ,-0.94694 ,-9.29135 
443 ,80.2309 ,1.69614 ,-0.93667 ,-9.19061 
444 ,80.4228 ,1.69815 ,-0.96405 ,-9.45924 
445 ,80.5990 ,1.69989 ,-0.96747 ,-9.49282 
446 ,80.7752 ,1.70162 ,-0.97774 ,-9.59355 
447 ,80.9508 ,1.70339 ,-0.97089 ,-9.52639 
448 ,81.1273 ,1.70519 ,-1.00169 ,-9.82860 
449 ,81.3191 ,1.70710 ,-1.01196 ,-9.92933 
450 ,81.4954 ,1.70884 ,-1.01196 ,-9.92933 
451 ,81.7032 ,1.71081 ,-1.02907 ,-10.09723 
452 ,81.8956 ,1.71276 ,-1.05302 ,-10.33227 
453 ,82.1034 ,1.71489 ,-1.06329 ,-10.43301 
454 ,82.2798 ,1.71667 ,-1.07356 ,-10.53374 
455 ,82.4716 ,1.71858 ,-1.06671 ,-10.46659 
456 ,82.6637 ,1.72056 ,-1.08040 ,-10.60090 
457 ,82.8398 ,1.72232 ,-1.11120 ,-10.90310 
458 ,83.0319 ,1.72420 ,-1.09409 ,-10.73521 
459 ,83.2081 ,1.72592 ,-1.10093 ,-10.80237 
460 ,83.4000 ,1.72785 ,-1.11805 ,-10.97026 
461 ,83.5922 ,1.72981 ,-1.12489 ,-11.03742 
462 ,83.7679 ,1.73155 ,-1.14200 ,-11.20531 
