Data stamp = , 31-03-2022 01:07:38 610

Calibration Values: 
Slope = , 26.54 , g/V 
Offset Voltage at no contact = , -0.501760 , V 

No , Time , Stage Position ,   Mass , Force 
   ,  (s) ,      (mm)      ,   (g)  , (mN)  

1 ,0.0000 ,0.84938 ,5.36354 ,52.62704 
2 ,0.2190 ,0.84945 ,5.34985 ,52.49273 
3 ,0.5394 ,0.85032 ,5.35669 ,52.55988 
4 ,0.7474 ,0.85184 ,5.34985 ,52.49273 
5 ,0.9397 ,0.85357 ,5.35669 ,52.55988 
6 ,1.1316 ,0.85545 ,5.35327 ,52.52631 
7 ,1.3237 ,0.85732 ,5.35669 ,52.55988 
8 ,1.4996 ,0.85905 ,5.35327 ,52.52631 
9 ,1.6758 ,0.86092 ,5.33616 ,52.35841 
10 ,1.8518 ,0.86267 ,5.31563 ,52.15694 
11 ,2.0277 ,0.86446 ,5.30194 ,52.02263 
12 ,2.2041 ,0.86621 ,5.30194 ,52.02263 
13 ,2.3961 ,0.86813 ,5.29510 ,51.95548 
14 ,2.5882 ,0.86990 ,5.26430 ,51.65327 
15 ,2.7799 ,0.87195 ,5.25403 ,51.55254 
16 ,2.9563 ,0.87372 ,5.24718 ,51.48538 
17 ,3.1325 ,0.87551 ,5.21296 ,51.14960 
18 ,3.3086 ,0.87723 ,5.20270 ,51.04886 
19 ,3.4844 ,0.87901 ,5.19243 ,50.94813 
20 ,3.6765 ,0.88089 ,5.19585 ,50.98170 
21 ,3.8527 ,0.88268 ,5.17190 ,50.74666 
22 ,4.0288 ,0.88444 ,5.14452 ,50.47803 
23 ,4.2047 ,0.88622 ,5.13083 ,50.34372 
24 ,4.3810 ,0.88790 ,5.12056 ,50.24298 
25 ,4.5569 ,0.88972 ,5.11372 ,50.17583 
26 ,4.7650 ,0.89183 ,5.09319 ,49.97436 
27 ,4.9415 ,0.89354 ,5.07608 ,49.80646 
28 ,5.1333 ,0.89536 ,5.06923 ,49.73931 
29 ,5.3090 ,0.89718 ,5.03843 ,49.43710 
30 ,5.5013 ,0.89911 ,5.03501 ,49.40352 
31 ,5.6774 ,0.90090 ,5.01106 ,49.16848 
32 ,5.8535 ,0.90266 ,5.00079 ,49.06774 
33 ,6.0295 ,0.90446 ,4.96999 ,48.76554 
34 ,6.2217 ,0.90624 ,4.96315 ,48.69838 
35 ,6.3977 ,0.90809 ,4.95972 ,48.66480 
36 ,6.6059 ,0.91017 ,4.91523 ,48.22828 
37 ,6.7816 ,0.91199 ,4.91181 ,48.19471 
38 ,6.9580 ,0.91370 ,4.90839 ,48.16113 
39 ,7.1661 ,0.91572 ,4.87075 ,47.79177 
40 ,7.3418 ,0.91750 ,4.87417 ,47.82534 
41 ,7.5179 ,0.91930 ,4.85021 ,47.59030 
42 ,7.6940 ,0.92109 ,4.82284 ,47.32167 
43 ,7.8702 ,0.92281 ,4.81257 ,47.22093 
44 ,8.0622 ,0.92469 ,4.79888 ,47.08662 
45 ,8.2385 ,0.92651 ,4.78861 ,46.98589 
46 ,8.4142 ,0.92823 ,4.76124 ,46.71726 
47 ,8.5907 ,0.93004 ,4.74413 ,46.54937 
48 ,8.7827 ,0.93198 ,4.72359 ,46.34790 
49 ,8.9587 ,0.93368 ,4.71675 ,46.28074 
50 ,9.1349 ,0.93546 ,4.69622 ,46.07927 
51 ,9.3109 ,0.93716 ,4.67226 ,45.84422 
52 ,9.4870 ,0.93896 ,4.63804 ,45.50844 
53 ,9.6630 ,0.94074 ,4.64146 ,45.54202 
54 ,9.8389 ,0.94247 ,4.63804 ,45.50844 
55 ,10.0151 ,0.94426 ,4.61066 ,45.23981 
56 ,10.1913 ,0.94600 ,4.58328 ,44.97119 
57 ,10.3673 ,0.94778 ,4.57302 ,44.87045 
58 ,10.5434 ,0.94954 ,4.55591 ,44.70256 
59 ,10.7196 ,0.95130 ,4.54564 ,44.60183 
60 ,10.8956 ,0.95311 ,4.53195 ,44.46751 
61 ,11.0873 ,0.95496 ,4.48746 ,44.03100 
62 ,11.2638 ,0.95678 ,4.48746 ,44.03100 
63 ,11.4559 ,0.95865 ,4.46693 ,43.82953 
64 ,11.6319 ,0.96043 ,4.44982 ,43.66163 
65 ,11.8076 ,0.96232 ,4.43613 ,43.52732 
66 ,11.9841 ,0.96393 ,4.42586 ,43.42659 
67 ,12.1922 ,0.96594 ,4.39849 ,43.15796 
68 ,12.3681 ,0.96779 ,4.37795 ,42.95649 
69 ,12.5919 ,0.96978 ,4.36427 ,42.82218 
70 ,12.7680 ,0.97183 ,4.32662 ,42.45282 
71 ,12.9444 ,0.97355 ,4.31636 ,42.35208 
72 ,13.1204 ,0.97529 ,4.31636 ,42.35208 
73 ,13.2966 ,0.97709 ,4.31636 ,42.35208 
74 ,13.4883 ,0.97900 ,4.25818 ,41.78125 
75 ,13.6644 ,0.98069 ,4.25476 ,41.74767 
76 ,13.8408 ,0.98252 ,4.24449 ,41.64694 
77 ,14.0329 ,0.98442 ,4.22396 ,41.44547 
78 ,14.2250 ,0.98633 ,4.20342 ,41.24400 
79 ,14.4171 ,0.98821 ,4.18974 ,41.10968 
80 ,14.5931 ,0.99006 ,4.16578 ,40.87464 
81 ,14.7691 ,0.99181 ,4.14183 ,40.63959 
82 ,14.9451 ,0.99351 ,4.12814 ,40.50527 
83 ,15.1214 ,0.99529 ,4.12471 ,40.47170 
84 ,15.3134 ,0.99726 ,4.10418 ,40.27023 
85 ,15.4894 ,0.99899 ,4.07338 ,39.96802 
86 ,15.6656 ,1.00074 ,4.07338 ,39.96802 
87 ,15.8416 ,1.00248 ,4.05627 ,39.80013 
88 ,16.0178 ,1.00429 ,4.03916 ,39.63224 
89 ,16.1936 ,1.00603 ,4.03232 ,39.56508 
90 ,16.3698 ,1.00777 ,4.00152 ,39.26288 
91 ,16.5458 ,1.00956 ,3.97756 ,39.02783 
92 ,16.7380 ,1.01147 ,3.98441 ,39.09499 
93 ,16.9459 ,1.01354 ,3.95018 ,38.75920 
94 ,17.1386 ,1.01545 ,3.94334 ,38.69205 
95 ,17.3302 ,1.01743 ,3.90227 ,38.28911 
96 ,17.5063 ,1.01914 ,3.88174 ,38.08764 
97 ,17.6824 ,1.02095 ,3.87832 ,38.05406 
98 ,17.8742 ,1.02281 ,3.85094 ,37.78543 
99 ,18.0501 ,1.02466 ,3.84067 ,37.68470 
100 ,18.2266 ,1.02634 ,3.83383 ,37.61754 
101 ,18.4027 ,1.02809 ,3.82699 ,37.55038 
102 ,18.5788 ,1.02988 ,3.80987 ,37.38249 
103 ,18.7549 ,1.03164 ,3.78592 ,37.14744 
104 ,18.9466 ,1.03354 ,3.77223 ,37.01313 
105 ,19.1070 ,1.03529 ,3.76196 ,36.91240 
106 ,19.2830 ,1.03686 ,3.74143 ,36.71093 
107 ,19.4593 ,1.03870 ,3.73117 ,36.61019 
108 ,19.6353 ,1.04046 ,3.70721 ,36.37514 
109 ,19.8111 ,1.04218 ,3.67641 ,36.07294 
110 ,19.9871 ,1.04392 ,3.66272 ,35.93863 
111 ,20.1635 ,1.04575 ,3.65246 ,35.83789 
112 ,20.3554 ,1.04762 ,3.63877 ,35.70358 
113 ,20.5317 ,1.04941 ,3.59770 ,35.30064 
114 ,20.7075 ,1.05115 ,3.59086 ,35.23348 
115 ,20.8838 ,1.05289 ,3.59428 ,35.26706 
116 ,21.0595 ,1.05472 ,3.57717 ,35.09917 
117 ,21.2355 ,1.05651 ,3.53952 ,34.72981 
118 ,21.4116 ,1.05817 ,3.52926 ,34.62907 
119 ,21.5878 ,1.05993 ,3.51215 ,34.46118 
120 ,21.7962 ,1.06203 ,3.49846 ,34.32687 
121 ,21.9879 ,1.06387 ,3.49846 ,34.32687 
122 ,22.1640 ,1.06568 ,3.48135 ,34.15898 
123 ,22.3561 ,1.06756 ,3.44370 ,33.78961 
124 ,22.5324 ,1.06938 ,3.43001 ,33.65530 
125 ,22.7085 ,1.07114 ,3.42317 ,33.58814 
126 ,22.8686 ,1.07286 ,3.40948 ,33.45383 
127 ,23.0447 ,1.07448 ,3.38553 ,33.21878 
128 ,23.2205 ,1.07624 ,3.38210 ,33.18520 
129 ,23.3969 ,1.07804 ,3.35473 ,32.91658 
130 ,23.5889 ,1.07996 ,3.34446 ,32.81584 
131 ,23.7649 ,1.08168 ,3.33077 ,32.68153 
132 ,23.9730 ,1.08381 ,3.29997 ,32.37933 
133 ,24.1491 ,1.08554 ,3.28628 ,32.24501 
134 ,24.3570 ,1.08758 ,3.26575 ,32.04354 
135 ,24.5329 ,1.08939 ,3.24522 ,31.84207 
136 ,24.7093 ,1.09116 ,3.25891 ,31.97639 
137 ,24.8854 ,1.09288 ,3.22811 ,31.67418 
138 ,25.0613 ,1.09470 ,3.21442 ,31.53987 
139 ,25.2535 ,1.09658 ,3.18704 ,31.27124 
140 ,25.4453 ,1.09852 ,3.17335 ,31.13693 
141 ,25.6696 ,1.10063 ,3.14940 ,30.90188 
142 ,25.8458 ,1.10252 ,3.15282 ,30.93546 
143 ,26.0218 ,1.10429 ,3.13229 ,30.73399 
144 ,26.2137 ,1.10614 ,3.09464 ,30.36463 
145 ,26.4215 ,1.10812 ,3.09122 ,30.33105 
146 ,26.5980 ,1.11003 ,3.06726 ,30.09600 
147 ,26.7901 ,1.11193 ,3.05358 ,29.96169 
148 ,26.9659 ,1.11367 ,3.05015 ,29.92811 
149 ,27.1422 ,1.11545 ,3.03304 ,29.76022 
150 ,27.3183 ,1.11720 ,3.01251 ,29.55875 
151 ,27.4944 ,1.11898 ,2.98855 ,29.32370 
152 ,27.6704 ,1.12070 ,2.98855 ,29.32370 
153 ,27.8463 ,1.12252 ,2.96802 ,29.12223 
154 ,28.0385 ,1.12439 ,2.93380 ,28.78645 
155 ,28.2146 ,1.12621 ,2.92696 ,28.71929 
156 ,28.3907 ,1.12792 ,2.90985 ,28.55140 
157 ,28.5828 ,1.12988 ,2.90642 ,28.51782 
158 ,28.7749 ,1.13181 ,2.87562 ,28.21562 
159 ,28.9347 ,1.13350 ,2.86878 ,28.14846 
160 ,29.1269 ,1.13528 ,2.85851 ,28.04772 
161 ,29.3029 ,1.13702 ,2.84140 ,27.87983 
162 ,29.4792 ,1.13883 ,2.82429 ,27.71194 
163 ,29.6552 ,1.14061 ,2.80034 ,27.47689 
164 ,29.8473 ,1.14249 ,2.81402 ,27.61121 
165 ,30.0232 ,1.14427 ,2.79007 ,27.37616 
166 ,30.1995 ,1.14600 ,2.75927 ,27.07395 
167 ,30.3754 ,1.14778 ,2.73531 ,26.83891 
168 ,30.5515 ,1.14953 ,2.74558 ,26.93964 
169 ,30.7277 ,1.15132 ,2.72505 ,26.73817 
170 ,30.9196 ,1.15322 ,2.69083 ,26.40239 
171 ,31.0959 ,1.15505 ,2.68056 ,26.30165 
172 ,31.2719 ,1.15675 ,2.67714 ,26.26807 
173 ,31.4640 ,1.15868 ,2.66345 ,26.13376 
174 ,31.6397 ,1.16046 ,2.63265 ,25.83156 
175 ,31.8162 ,1.16224 ,2.61554 ,25.66367 
176 ,32.0242 ,1.16418 ,2.61554 ,25.66367 
177 ,32.2002 ,1.16603 ,2.58132 ,25.32788 
178 ,32.3762 ,1.16781 ,2.57105 ,25.22715 
179 ,32.5844 ,1.16978 ,2.56421 ,25.15999 
180 ,32.7600 ,1.17167 ,2.56421 ,25.15999 
181 ,32.9366 ,1.17339 ,2.52656 ,24.79063 
182 ,33.1126 ,1.17513 ,2.51287 ,24.65632 
183 ,33.3046 ,1.17703 ,2.50603 ,24.58916 
184 ,33.4808 ,1.17881 ,2.49234 ,24.45485 
185 ,33.6569 ,1.18056 ,2.46496 ,24.18622 
186 ,33.8329 ,1.18237 ,2.46154 ,24.15264 
187 ,34.0090 ,1.18410 ,2.46496 ,24.18622 
188 ,34.2170 ,1.18614 ,2.42390 ,23.78328 
189 ,34.4092 ,1.18808 ,2.43074 ,23.85044 
190 ,34.6012 ,1.19007 ,2.39652 ,23.51465 
191 ,34.7771 ,1.19179 ,2.37599 ,23.31318 
192 ,34.9533 ,1.19356 ,2.37941 ,23.34676 
193 ,35.1455 ,1.19544 ,2.35888 ,23.14529 
194 ,35.3374 ,1.19740 ,2.33150 ,22.87667 
195 ,35.5136 ,1.19910 ,2.32123 ,22.77593 
196 ,35.6896 ,1.20097 ,2.32123 ,22.77593 
197 ,35.8655 ,1.20269 ,2.29728 ,22.54088 
198 ,36.0579 ,1.20457 ,2.27674 ,22.33941 
199 ,36.2339 ,1.20642 ,2.26648 ,22.23868 
200 ,36.4260 ,1.20824 ,2.25279 ,22.10437 
201 ,36.6019 ,1.21000 ,2.23910 ,21.97005 
202 ,36.7782 ,1.21175 ,2.21857 ,21.76858 
203 ,36.9696 ,1.21371 ,2.21172 ,21.70143 
204 ,37.1463 ,1.21543 ,2.20146 ,21.60069 
205 ,37.3383 ,1.21731 ,2.17408 ,21.33206 
206 ,37.5145 ,1.21914 ,2.16723 ,21.26491 
207 ,37.6905 ,1.22095 ,2.16723 ,21.26491 
208 ,37.8662 ,1.22264 ,2.13644 ,20.96270 
209 ,38.0427 ,1.22442 ,2.11248 ,20.72766 
210 ,38.2187 ,1.22618 ,2.09879 ,20.59334 
211 ,38.4104 ,1.22814 ,2.09537 ,20.55976 
212 ,38.5868 ,1.22983 ,2.08852 ,20.49261 
213 ,38.7629 ,1.23163 ,2.05773 ,20.19040 
214 ,38.9389 ,1.23343 ,2.04061 ,20.02251 
215 ,39.1151 ,1.23510 ,2.04746 ,20.08967 
216 ,39.2912 ,1.23694 ,2.03377 ,19.95535 
217 ,39.4670 ,1.23867 ,2.03377 ,19.95535 
218 ,39.6431 ,1.24047 ,2.00297 ,19.65315 
219 ,39.8194 ,1.24213 ,1.97902 ,19.41810 
220 ,39.9952 ,1.24397 ,1.96190 ,19.25021 
221 ,40.1554 ,1.24563 ,1.95848 ,19.21663 
222 ,40.3312 ,1.24735 ,1.94137 ,19.04874 
223 ,40.5072 ,1.24905 ,1.93453 ,18.98158 
224 ,40.6838 ,1.25082 ,1.91057 ,18.74654 
225 ,40.8597 ,1.25264 ,1.89004 ,18.54507 
226 ,41.0359 ,1.25436 ,1.88319 ,18.47791 
227 ,41.2119 ,1.25614 ,1.86951 ,18.34360 
228 ,41.3879 ,1.25784 ,1.85582 ,18.20928 
229 ,41.5642 ,1.25965 ,1.83528 ,18.00781 
230 ,41.7401 ,1.26141 ,1.81817 ,17.83992 
231 ,41.9162 ,1.26315 ,1.81133 ,17.77276 
232 ,42.1084 ,1.26503 ,1.80449 ,17.70561 
233 ,42.2844 ,1.26682 ,1.79422 ,17.60487 
234 ,42.4603 ,1.26864 ,1.76000 ,17.26909 
235 ,42.6525 ,1.27038 ,1.74973 ,17.16836 
236 ,42.8284 ,1.27230 ,1.74631 ,17.13478 
237 ,43.0208 ,1.27409 ,1.72920 ,16.96689 
238 ,43.1965 ,1.27597 ,1.70866 ,16.76542 
239 ,43.3888 ,1.27782 ,1.70182 ,16.69826 
240 ,43.5648 ,1.27963 ,1.69155 ,16.59752 
241 ,43.7411 ,1.28135 ,1.66418 ,16.32890 
242 ,43.9329 ,1.28326 ,1.65733 ,16.26174 
243 ,44.1252 ,1.28523 ,1.64022 ,16.09385 
244 ,44.3008 ,1.28701 ,1.61627 ,15.85880 
245 ,44.4773 ,1.28873 ,1.61284 ,15.82522 
246 ,44.6533 ,1.29052 ,1.60942 ,15.79164 
247 ,44.8293 ,1.29228 ,1.58204 ,15.52302 
248 ,45.0055 ,1.29402 ,1.57520 ,15.45586 
249 ,45.1975 ,1.29593 ,1.57178 ,15.42228 
250 ,45.3736 ,1.29771 ,1.55124 ,15.22081 
251 ,45.5496 ,1.29945 ,1.54098 ,15.12008 
252 ,45.7257 ,1.30134 ,1.51360 ,14.85145 
253 ,45.9016 ,1.30300 ,1.48965 ,14.61640 
254 ,46.0939 ,1.30491 ,1.49307 ,14.64998 
255 ,46.2697 ,1.30671 ,1.48622 ,14.58283 
256 ,46.4781 ,1.30872 ,1.46911 ,14.41493 
257 ,46.6698 ,1.31068 ,1.45542 ,14.28062 
258 ,46.8460 ,1.31243 ,1.42805 ,14.01199 
259 ,47.0219 ,1.31416 ,1.41094 ,13.84410 
260 ,47.1984 ,1.31593 ,1.41094 ,13.84410 
261 ,47.3904 ,1.31789 ,1.40751 ,13.81053 
262 ,47.5825 ,1.31976 ,1.37329 ,13.47474 
263 ,47.7744 ,1.32170 ,1.37671 ,13.50832 
264 ,47.9507 ,1.32348 ,1.35618 ,13.30685 
265 ,48.1265 ,1.32528 ,1.34934 ,13.23969 
266 ,48.3028 ,1.32700 ,1.32196 ,12.97107 
267 ,48.4785 ,1.32877 ,1.31169 ,12.87033 
268 ,48.6547 ,1.33052 ,1.30485 ,12.80318 
269 ,48.8471 ,1.33244 ,1.29458 ,12.70244 
270 ,49.0393 ,1.33435 ,1.27063 ,12.46739 
271 ,49.2150 ,1.33611 ,1.26036 ,12.36666 
272 ,49.4073 ,1.33793 ,1.25694 ,12.33308 
273 ,49.5830 ,1.33979 ,1.21929 ,11.96372 
274 ,49.7429 ,1.34149 ,1.21245 ,11.89656 
275 ,49.9029 ,1.34309 ,1.20903 ,11.86298 
276 ,50.0794 ,1.34478 ,1.19534 ,11.72867 
277 ,50.2876 ,1.34680 ,1.16454 ,11.42647 
278 ,50.4797 ,1.34866 ,1.16796 ,11.46004 
279 ,50.6718 ,1.35066 ,1.16454 ,11.42647 
280 ,50.8797 ,1.35277 ,1.13716 ,11.15784 
281 ,51.0560 ,1.35452 ,1.13716 ,11.15784 
282 ,51.2479 ,1.35645 ,1.11321 ,10.92279 
283 ,51.4242 ,1.35817 ,1.09267 ,10.72132 
284 ,51.6002 ,1.35997 ,1.08925 ,10.68774 
285 ,51.7922 ,1.36182 ,1.06872 ,10.48627 
286 ,51.9682 ,1.36378 ,1.05845 ,10.38554 
287 ,52.1604 ,1.36553 ,1.04819 ,10.28480 
288 ,52.3367 ,1.36735 ,1.04476 ,10.25123 
289 ,52.5285 ,1.36921 ,1.01054 ,9.91544 
290 ,52.6882 ,1.37093 ,1.00712 ,9.88186 
291 ,52.8646 ,1.37264 ,0.98659 ,9.68039 
292 ,53.0409 ,1.37436 ,0.97632 ,9.57966 
293 ,53.2168 ,1.37617 ,0.98659 ,9.68039 
294 ,53.3928 ,1.37789 ,0.96263 ,9.44535 
295 ,53.5689 ,1.37962 ,0.94210 ,9.24388 
296 ,53.7605 ,1.38160 ,0.93868 ,9.21030 
297 ,53.9372 ,1.38331 ,0.92499 ,9.07598 
298 ,54.1291 ,1.38520 ,0.90788 ,8.90809 
299 ,54.3052 ,1.38697 ,0.88392 ,8.67305 
300 ,54.4971 ,1.38888 ,0.89761 ,8.80736 
301 ,54.6894 ,1.39086 ,0.87366 ,8.57231 
302 ,54.8654 ,1.39261 ,0.85312 ,8.37084 
303 ,55.0414 ,1.39433 ,0.84286 ,8.27011 
304 ,55.2176 ,1.39608 ,0.85312 ,8.37084 
305 ,55.4095 ,1.39797 ,0.82232 ,8.06864 
306 ,55.5857 ,1.39978 ,0.80179 ,7.86717 
307 ,55.7618 ,1.40153 ,0.80179 ,7.86717 
308 ,55.9375 ,1.40332 ,0.79152 ,7.76643 
309 ,56.1301 ,1.40520 ,0.76757 ,7.53138 
310 ,56.3218 ,1.40708 ,0.77441 ,7.59854 
311 ,56.4981 ,1.40892 ,0.76415 ,7.49780 
312 ,56.6739 ,1.41070 ,0.74704 ,7.32991 
313 ,56.8502 ,1.41239 ,0.72992 ,7.16202 
314 ,57.0263 ,1.41416 ,0.71624 ,7.02771 
315 ,57.2182 ,1.41609 ,0.71624 ,7.02771 
316 ,57.3944 ,1.41787 ,0.70255 ,6.89340 
317 ,57.5705 ,1.41963 ,0.68544 ,6.72550 
318 ,57.7466 ,1.42139 ,0.66490 ,6.52403 
319 ,57.9226 ,1.42320 ,0.65464 ,6.42330 
320 ,58.1309 ,1.42508 ,0.64437 ,6.32256 
321 ,58.3227 ,1.42703 ,0.63410 ,6.22183 
322 ,58.4990 ,1.42890 ,0.61699 ,6.05394 
323 ,58.6910 ,1.43081 ,0.61015 ,5.98678 
324 ,58.8667 ,1.43262 ,0.59304 ,5.81889 
325 ,59.0433 ,1.43437 ,0.58619 ,5.75173 
326 ,59.2353 ,1.43628 ,0.58619 ,5.75173 
327 ,59.4271 ,1.43813 ,0.56566 ,5.55026 
328 ,59.6033 ,1.43995 ,0.55539 ,5.44953 
329 ,59.7793 ,1.44170 ,0.55197 ,5.41595 
330 ,59.9714 ,1.44362 ,0.52117 ,5.11375 
331 ,60.1475 ,1.44536 ,0.50406 ,4.94585 
332 ,60.3717 ,1.44748 ,0.49380 ,4.84512 
333 ,60.5797 ,1.44957 ,0.49722 ,4.87870 
334 ,60.7559 ,1.45151 ,0.48695 ,4.77796 
335 ,60.9320 ,1.45330 ,0.46984 ,4.61007 
336 ,61.1076 ,1.45498 ,0.45273 ,4.44218 
337 ,61.2841 ,1.45675 ,0.43562 ,4.27429 
338 ,61.4601 ,1.45847 ,0.44588 ,4.37502 
339 ,61.6363 ,1.46028 ,0.43562 ,4.27429 
340 ,61.8281 ,1.46215 ,0.40824 ,4.00566 
341 ,62.0044 ,1.46398 ,0.40140 ,3.93850 
342 ,62.1801 ,1.46575 ,0.38429 ,3.77061 
343 ,62.3726 ,1.46753 ,0.37060 ,3.63630 
344 ,62.5807 ,1.46970 ,0.37402 ,3.66988 
345 ,62.7567 ,1.47150 ,0.36718 ,3.60272 
346 ,62.9324 ,1.47330 ,0.33980 ,3.33410 
347 ,63.1087 ,1.47499 ,0.31584 ,3.09905 
348 ,63.2849 ,1.47687 ,0.33638 ,3.30052 
349 ,63.4450 ,1.47844 ,0.31584 ,3.09905 
350 ,63.6211 ,1.48013 ,0.29531 ,2.89758 
351 ,63.8132 ,1.48206 ,0.28162 ,2.76326 
352 ,64.0211 ,1.48403 ,0.27820 ,2.72969 
353 ,64.2134 ,1.48589 ,0.26109 ,2.56179 
354 ,64.4053 ,1.48795 ,0.24398 ,2.39390 
355 ,64.5813 ,1.48970 ,0.23713 ,2.32675 
356 ,64.7575 ,1.49146 ,0.23713 ,2.32675 
357 ,64.9495 ,1.49338 ,0.20976 ,2.05812 
358 ,65.1256 ,1.49516 ,0.19949 ,1.95738 
359 ,65.3017 ,1.49688 ,0.19607 ,1.92381 
360 ,65.4778 ,1.49869 ,0.19264 ,1.89023 
361 ,65.6698 ,1.50060 ,0.15842 ,1.55445 
362 ,65.8618 ,1.50240 ,0.14131 ,1.38655 
363 ,66.0540 ,1.50440 ,0.14473 ,1.42013 
364 ,66.2302 ,1.50622 ,0.12420 ,1.21866 
365 ,66.4057 ,1.50806 ,0.12420 ,1.21866 
366 ,66.5821 ,1.50969 ,0.10709 ,1.05077 
367 ,66.7581 ,1.51150 ,0.11051 ,1.08435 
368 ,66.9344 ,1.51322 ,0.07971 ,0.78214 
369 ,67.1103 ,1.51498 ,0.06602 ,0.64783 
370 ,67.2705 ,1.51667 ,0.06945 ,0.68141 
371 ,67.4463 ,1.51838 ,0.04891 ,0.47994 
372 ,67.6226 ,1.52016 ,0.04549 ,0.44636 
373 ,67.8148 ,1.52208 ,0.03180 ,0.31205 
374 ,67.9908 ,1.52383 ,0.01469 ,0.14416 
375 ,68.1670 ,1.52559 ,0.00100 ,0.00984 
376 ,68.3590 ,1.52749 ,0.01811 ,0.17773 
377 ,68.5347 ,1.52924 ,-0.00584 ,-0.05731 
378 ,68.7111 ,1.53099 ,-0.02637 ,-0.25878 
379 ,68.8872 ,1.53280 ,-0.04006 ,-0.39310 
380 ,69.0630 ,1.53453 ,-0.04691 ,-0.46025 
381 ,69.2554 ,1.53641 ,-0.05375 ,-0.52741 
382 ,69.4312 ,1.53822 ,-0.07771 ,-0.76246 
383 ,69.6235 ,1.54018 ,-0.07086 ,-0.69530 
384 ,69.7835 ,1.54183 ,-0.08455 ,-0.82961 
385 ,69.9597 ,1.54351 ,-0.10508 ,-1.03108 
386 ,70.1359 ,1.54527 ,-0.10166 ,-0.99751 
387 ,70.3278 ,1.54705 ,-0.13588 ,-1.33329 
388 ,70.5198 ,1.54911 ,-0.13246 ,-1.29971 
389 ,70.7118 ,1.55097 ,-0.16326 ,-1.60191 
390 ,70.8880 ,1.55273 ,-0.15984 ,-1.56834 
391 ,71.0801 ,1.55473 ,-0.16668 ,-1.63549 
392 ,71.2560 ,1.55645 ,-0.16668 ,-1.63549 
393 ,71.4322 ,1.55820 ,-0.19406 ,-1.90412 
394 ,71.6243 ,1.56011 ,-0.20433 ,-2.00485 
395 ,71.8164 ,1.56199 ,-0.22486 ,-2.20632 
396 ,72.0084 ,1.56387 ,-0.22486 ,-2.20632 
397 ,72.1846 ,1.56575 ,-0.23513 ,-2.30706 
398 ,72.3607 ,1.56747 ,-0.23855 ,-2.34064 
399 ,72.5528 ,1.56932 ,-0.24881 ,-2.44137 
400 ,72.7284 ,1.57114 ,-0.27961 ,-2.74358 
401 ,72.9047 ,1.57292 ,-0.28988 ,-2.84431 
402 ,73.0969 ,1.57483 ,-0.28304 ,-2.77716 
403 ,73.2888 ,1.57668 ,-0.31726 ,-3.11294 
404 ,73.4651 ,1.57849 ,-0.30015 ,-2.94505 
405 ,73.6570 ,1.58044 ,-0.30699 ,-3.01220 
406 ,73.8169 ,1.58215 ,-0.34121 ,-3.34799 
407 ,73.9933 ,1.58377 ,-0.35832 ,-3.51588 
408 ,74.1692 ,1.58551 ,-0.37201 ,-3.65019 
409 ,74.3455 ,1.58732 ,-0.37201 ,-3.65019 
410 ,74.5215 ,1.58906 ,-0.35490 ,-3.48230 
411 ,74.6975 ,1.59089 ,-0.39597 ,-3.88524 
412 ,74.8896 ,1.59273 ,-0.41992 ,-4.12029 
413 ,75.0658 ,1.59452 ,-0.40623 ,-3.98597 
414 ,75.2578 ,1.59636 ,-0.43019 ,-4.22102 
415 ,75.4498 ,1.59837 ,-0.45072 ,-4.42249 
416 ,75.6258 ,1.60006 ,-0.45072 ,-4.42249 
417 ,75.8022 ,1.60190 ,-0.46099 ,-4.52323 
418 ,75.9781 ,1.60369 ,-0.46099 ,-4.52323 
419 ,76.1702 ,1.60557 ,-0.48837 ,-4.79185 
420 ,76.3622 ,1.60747 ,-0.47810 ,-4.69112 
421 ,76.5384 ,1.60927 ,-0.50206 ,-4.92617 
422 ,76.7304 ,1.61112 ,-0.52259 ,-5.12764 
423 ,76.9061 ,1.61290 ,-0.52601 ,-5.16121 
424 ,77.0826 ,1.61470 ,-0.53628 ,-5.26195 
425 ,77.3065 ,1.61678 ,-0.53628 ,-5.26195 
426 ,77.4828 ,1.61867 ,-0.55681 ,-5.46342 
427 ,77.6748 ,1.62058 ,-0.58077 ,-5.69847 
428 ,77.8509 ,1.62241 ,-0.59445 ,-5.83278 
429 ,78.0265 ,1.62417 ,-0.59788 ,-5.86636 
430 ,78.2031 ,1.62586 ,-0.58761 ,-5.76562 
431 ,78.3951 ,1.62768 ,-0.60814 ,-5.96709 
432 ,78.5711 ,1.62958 ,-0.63210 ,-6.20214 
433 ,78.7472 ,1.63130 ,-0.63552 ,-6.23572 
434 ,78.9233 ,1.63307 ,-0.64236 ,-6.30288 
435 ,79.0833 ,1.63481 ,-0.64921 ,-6.37003 
436 ,79.2593 ,1.63643 ,-0.66974 ,-6.57150 
437 ,79.4357 ,1.63822 ,-0.68001 ,-6.67224 
438 ,79.6276 ,1.64016 ,-0.69027 ,-6.77297 
439 ,79.8036 ,1.64186 ,-0.68685 ,-6.73940 
440 ,79.9796 ,1.64361 ,-0.70396 ,-6.90729 
441 ,80.1557 ,1.64541 ,-0.72107 ,-7.07518 
442 ,80.3478 ,1.64730 ,-0.72450 ,-7.10876 
443 ,80.5240 ,1.64906 ,-0.74161 ,-7.27665 
444 ,80.7161 ,1.65099 ,-0.75187 ,-7.37738 
445 ,80.8921 ,1.65278 ,-0.77583 ,-7.61243 
446 ,81.0680 ,1.65452 ,-0.76556 ,-7.51170 
447 ,81.2442 ,1.65628 ,-0.77583 ,-7.61243 
448 ,81.4201 ,1.65798 ,-0.77925 ,-7.64601 
449 ,81.5963 ,1.65976 ,-0.79978 ,-7.84748 
450 ,81.7882 ,1.66166 ,-0.81347 ,-7.98179 
451 ,81.9645 ,1.66348 ,-0.81347 ,-7.98179 
452 ,82.1407 ,1.66530 ,-0.82716 ,-8.11611 
453 ,82.3328 ,1.66720 ,-0.85112 ,-8.35115 
454 ,82.5246 ,1.66911 ,-0.84085 ,-8.25042 
455 ,82.7007 ,1.67081 ,-0.86823 ,-8.51904 
456 ,82.8769 ,1.67253 ,-0.88876 ,-8.72051 
457 ,83.0530 ,1.67438 ,-0.89218 ,-8.75409 
458 ,83.2288 ,1.67616 ,-0.90245 ,-8.85483 
459 ,83.4212 ,1.67801 ,-0.91614 ,-8.98914 
460 ,83.6132 ,1.67998 ,-0.94009 ,-9.22419 
461 ,83.7893 ,1.68170 ,-0.92983 ,-9.12345 
462 ,83.9654 ,1.68346 ,-0.92298 ,-9.05630 
463 ,84.1575 ,1.68536 ,-0.96063 ,-9.42566 
