Data stamp = , 31-03-2022 10:45:03 127

Calibration Values: 
Slope = , 26.54 , g/V 
Offset Voltage at no contact = , -0.501760 , V 

No , Time , Stage Position ,   Mass , Force 
   ,  (s) ,      (mm)      ,   (g)  , (mN)  

1 ,0.0000 ,0.84946 ,5.35669 ,52.55988 
2 ,0.2161 ,0.84954 ,5.36012 ,52.59346 
3 ,0.5363 ,0.85043 ,5.36696 ,52.66062 
4 ,0.7445 ,0.85185 ,5.37723 ,52.76135 
5 ,0.9524 ,0.85371 ,5.35669 ,52.55988 
6 ,1.1285 ,0.85550 ,5.38065 ,52.79493 
7 ,1.3046 ,0.85716 ,5.37723 ,52.76135 
8 ,1.5288 ,0.85929 ,5.36012 ,52.59346 
9 ,1.7047 ,0.86128 ,5.34301 ,52.42557 
10 ,1.8810 ,0.86305 ,5.32589 ,52.25768 
11 ,2.0731 ,0.86490 ,5.31905 ,52.19052 
12 ,2.2489 ,0.86672 ,5.29852 ,51.98905 
13 ,2.4251 ,0.86850 ,5.28825 ,51.88832 
14 ,2.6493 ,0.87054 ,5.26430 ,51.65327 
15 ,2.8252 ,0.87249 ,5.26430 ,51.65327 
16 ,3.0174 ,0.87440 ,5.24034 ,51.41822 
17 ,3.1934 ,0.87615 ,5.21296 ,51.14960 
18 ,3.3531 ,0.87786 ,5.21296 ,51.14960 
19 ,3.5295 ,0.87952 ,5.19585 ,50.98170 
20 ,3.7056 ,0.88122 ,5.19243 ,50.94813 
21 ,3.8977 ,0.88324 ,5.16505 ,50.67950 
22 ,4.0736 ,0.88497 ,5.13768 ,50.41087 
23 ,4.2498 ,0.88670 ,5.13083 ,50.34372 
24 ,4.4419 ,0.88861 ,5.11030 ,50.14225 
25 ,4.6181 ,0.89039 ,5.11030 ,50.14225 
26 ,4.7941 ,0.89218 ,5.08292 ,49.87362 
27 ,4.9857 ,0.89405 ,5.05897 ,49.63857 
28 ,5.1617 ,0.89581 ,5.05897 ,49.63857 
29 ,5.3380 ,0.89762 ,5.02817 ,49.33637 
30 ,5.5304 ,0.89950 ,5.01448 ,49.20205 
31 ,5.7226 ,0.90140 ,5.00421 ,49.10132 
32 ,5.8984 ,0.90325 ,4.97341 ,48.79911 
33 ,6.0906 ,0.90500 ,4.95288 ,48.59764 
34 ,6.2666 ,0.90685 ,4.95630 ,48.63122 
35 ,6.4425 ,0.90864 ,4.92892 ,48.36260 
36 ,6.6188 ,0.91033 ,4.92208 ,48.29544 
37 ,6.8107 ,0.91233 ,4.88444 ,47.92608 
38 ,6.9870 ,0.91402 ,4.87759 ,47.85892 
39 ,7.1629 ,0.91581 ,4.86048 ,47.69103 
40 ,7.3391 ,0.91758 ,4.82626 ,47.35525 
41 ,7.5152 ,0.91938 ,4.81941 ,47.28809 
42 ,7.7073 ,0.92128 ,4.80230 ,47.12020 
43 ,7.8993 ,0.92320 ,4.78519 ,46.95231 
44 ,8.0754 ,0.92498 ,4.76466 ,46.75084 
45 ,8.2516 ,0.92668 ,4.73386 ,46.44863 
46 ,8.4276 ,0.92849 ,4.73728 ,46.48221 
47 ,8.6032 ,0.93018 ,4.72017 ,46.31432 
48 ,8.7794 ,0.93203 ,4.69964 ,46.11285 
49 ,8.9556 ,0.93377 ,4.68595 ,45.97854 
50 ,9.1317 ,0.93547 ,4.65857 ,45.70991 
51 ,9.3080 ,0.93724 ,4.65515 ,45.67633 
52 ,9.4840 ,0.93903 ,4.64146 ,45.54202 
53 ,9.6597 ,0.94084 ,4.63119 ,45.44128 
54 ,9.8522 ,0.94260 ,4.59355 ,45.07192 
55 ,10.0443 ,0.94461 ,4.59697 ,45.10550 
56 ,10.2204 ,0.94642 ,4.57986 ,44.93761 
57 ,10.4124 ,0.94836 ,4.54564 ,44.60183 
58 ,10.5886 ,0.95009 ,4.53537 ,44.50109 
59 ,10.7805 ,0.95192 ,4.51484 ,44.29962 
60 ,10.9566 ,0.95372 ,4.49773 ,44.13173 
61 ,11.1327 ,0.95553 ,4.47035 ,43.86310 
62 ,11.3087 ,0.95732 ,4.45666 ,43.72879 
63 ,11.5007 ,0.95914 ,4.43955 ,43.56090 
64 ,11.6770 ,0.96097 ,4.40875 ,43.25870 
65 ,11.8691 ,0.96291 ,4.40533 ,43.22512 
66 ,12.0771 ,0.96486 ,4.40533 ,43.22512 
67 ,12.2527 ,0.96671 ,4.35742 ,42.75502 
68 ,12.4291 ,0.96847 ,4.35400 ,42.72144 
69 ,12.6213 ,0.97041 ,4.34716 ,42.65429 
70 ,12.7971 ,0.97216 ,4.32320 ,42.41924 
71 ,12.9734 ,0.97391 ,4.30267 ,42.21777 
72 ,13.1655 ,0.97585 ,4.30267 ,42.21777 
73 ,13.3255 ,0.97752 ,4.28213 ,42.01630 
74 ,13.5177 ,0.97935 ,4.24791 ,41.68051 
75 ,13.6938 ,0.98115 ,4.23422 ,41.54620 
76 ,13.8695 ,0.98287 ,4.20685 ,41.27758 
77 ,14.0459 ,0.98465 ,4.20000 ,41.21042 
78 ,14.2379 ,0.98653 ,4.18289 ,41.04253 
79 ,14.4300 ,0.98841 ,4.16236 ,40.84106 
80 ,14.6061 ,0.99025 ,4.14867 ,40.70674 
81 ,14.7982 ,0.99219 ,4.15209 ,40.74032 
82 ,14.9743 ,0.99394 ,4.11787 ,40.40454 
83 ,15.1500 ,0.99563 ,4.08707 ,40.10233 
84 ,15.3263 ,0.99742 ,4.09049 ,40.13591 
85 ,15.5185 ,0.99934 ,4.07680 ,40.00160 
86 ,15.7267 ,1.00133 ,4.03916 ,39.63224 
87 ,15.9026 ,1.00322 ,4.04600 ,39.69940 
88 ,16.0785 ,1.00493 ,4.03232 ,39.56508 
89 ,16.2546 ,1.00675 ,3.99809 ,39.22930 
90 ,16.4309 ,1.00845 ,3.99125 ,39.16214 
91 ,16.6228 ,1.01041 ,3.97414 ,38.99425 
92 ,16.7990 ,1.01214 ,3.96045 ,38.85994 
93 ,16.9750 ,1.01392 ,3.92281 ,38.49058 
94 ,17.1512 ,1.01564 ,3.91596 ,38.42342 
95 ,17.3272 ,1.01745 ,3.89885 ,38.25553 
96 ,17.5034 ,1.01921 ,3.88174 ,38.08764 
97 ,17.6952 ,1.02102 ,3.88174 ,38.08764 
98 ,17.8715 ,1.02287 ,3.86463 ,37.91975 
99 ,18.0472 ,1.02459 ,3.84067 ,37.68470 
100 ,18.2237 ,1.02640 ,3.82356 ,37.51681 
101 ,18.4155 ,1.02822 ,3.82356 ,37.51681 
102 ,18.6239 ,1.03040 ,3.80303 ,37.31534 
103 ,18.8158 ,1.03224 ,3.76539 ,36.94597 
104 ,18.9920 ,1.03408 ,3.74828 ,36.77808 
105 ,19.1679 ,1.03580 ,3.74485 ,36.74450 
106 ,19.3441 ,1.03756 ,3.72774 ,36.57661 
107 ,19.5201 ,1.03935 ,3.73117 ,36.61019 
108 ,19.6962 ,1.04110 ,3.70037 ,36.30799 
109 ,19.8722 ,1.04287 ,3.68325 ,36.14010 
110 ,20.0482 ,1.04463 ,3.65588 ,35.87147 
111 ,20.2404 ,1.04648 ,3.64903 ,35.80431 
112 ,20.4323 ,1.04843 ,3.62508 ,35.56926 
113 ,20.6086 ,1.05021 ,3.59428 ,35.26706 
114 ,20.7846 ,1.05195 ,3.60112 ,35.33422 
115 ,20.9608 ,1.05375 ,3.60112 ,35.33422 
116 ,21.1369 ,1.05556 ,3.58401 ,35.16632 
117 ,21.3129 ,1.05725 ,3.54979 ,34.83054 
118 ,21.5048 ,1.05916 ,3.55321 ,34.86412 
119 ,21.6812 ,1.06094 ,3.52584 ,34.59549 
120 ,21.8571 ,1.06275 ,3.52241 ,34.56192 
121 ,22.0331 ,1.06450 ,3.49504 ,34.29329 
122 ,22.2410 ,1.06654 ,3.48135 ,34.15898 
123 ,22.4175 ,1.06834 ,3.47108 ,34.05824 
124 ,22.6094 ,1.07025 ,3.44028 ,33.75604 
125 ,22.7854 ,1.07199 ,3.43001 ,33.65530 
126 ,22.9777 ,1.07388 ,3.43001 ,33.65530 
127 ,23.1537 ,1.07568 ,3.39579 ,33.31952 
128 ,23.3456 ,1.07754 ,3.38553 ,33.21878 
129 ,23.5219 ,1.07935 ,3.36499 ,33.01731 
130 ,23.7139 ,1.08130 ,3.34104 ,32.78227 
131 ,23.9060 ,1.08312 ,3.32735 ,32.64795 
132 ,24.0981 ,1.08503 ,3.30682 ,32.44648 
133 ,24.2900 ,1.08694 ,3.31024 ,32.48006 
134 ,24.4821 ,1.08894 ,3.29655 ,32.34575 
135 ,24.6582 ,1.09072 ,3.27944 ,32.17786 
136 ,24.8342 ,1.09244 ,3.26233 ,32.00996 
137 ,25.0105 ,1.09422 ,3.23837 ,31.77492 
138 ,25.1864 ,1.09598 ,3.22811 ,31.67418 
139 ,25.3624 ,1.09777 ,3.20757 ,31.47271 
140 ,25.5545 ,1.09964 ,3.19731 ,31.37198 
141 ,25.7306 ,1.10146 ,3.17677 ,31.17051 
142 ,25.9068 ,1.10319 ,3.15966 ,31.00262 
143 ,26.0987 ,1.10513 ,3.16309 ,31.03619 
144 ,26.2750 ,1.10690 ,3.13913 ,30.80115 
145 ,26.4513 ,1.10868 ,3.12544 ,30.66683 
146 ,26.6432 ,1.11050 ,3.11518 ,30.56610 
147 ,26.8349 ,1.11254 ,3.09806 ,30.39821 
148 ,27.0113 ,1.11420 ,3.06726 ,30.09600 
149 ,27.2034 ,1.11618 ,3.04331 ,29.86095 
150 ,27.3954 ,1.11802 ,3.03989 ,29.82737 
151 ,27.5714 ,1.11996 ,3.02278 ,29.65948 
152 ,27.7475 ,1.12157 ,2.99540 ,29.39086 
153 ,27.9236 ,1.12337 ,2.99540 ,29.39086 
154 ,28.0996 ,1.12515 ,2.97829 ,29.22297 
155 ,28.2754 ,1.12689 ,2.97829 ,29.22297 
156 ,28.4515 ,1.12860 ,2.95776 ,29.02150 
157 ,28.6274 ,1.13045 ,2.93038 ,28.75287 
158 ,28.8038 ,1.13216 ,2.92353 ,28.68571 
159 ,28.9802 ,1.13392 ,2.91327 ,28.58498 
160 ,29.1560 ,1.13571 ,2.91327 ,28.58498 
161 ,29.3318 ,1.13742 ,2.87562 ,28.21562 
162 ,29.5079 ,1.13915 ,2.85509 ,28.01415 
163 ,29.6838 ,1.14100 ,2.84482 ,27.91341 
164 ,29.8604 ,1.14272 ,2.85167 ,27.98057 
165 ,30.0524 ,1.14466 ,2.82429 ,27.71194 
166 ,30.2285 ,1.14641 ,2.81745 ,27.64479 
167 ,30.4206 ,1.14831 ,2.79691 ,27.44332 
168 ,30.6127 ,1.15020 ,2.78322 ,27.30900 
169 ,30.7887 ,1.15202 ,2.76269 ,27.10753 
170 ,30.9647 ,1.15373 ,2.73531 ,26.83891 
171 ,31.1407 ,1.15555 ,2.74216 ,26.90606 
172 ,31.3330 ,1.15743 ,2.73531 ,26.83891 
173 ,31.5088 ,1.15915 ,2.69767 ,26.46954 
174 ,31.7011 ,1.16115 ,2.68398 ,26.33523 
175 ,31.8930 ,1.16304 ,2.68056 ,26.30165 
176 ,32.0852 ,1.16494 ,2.64634 ,25.96587 
177 ,32.2612 ,1.16672 ,2.63949 ,25.89871 
178 ,32.4374 ,1.16846 ,2.63949 ,25.89871 
179 ,32.6454 ,1.17046 ,2.61212 ,25.63009 
180 ,32.8212 ,1.17230 ,2.59158 ,25.42862 
181 ,32.9976 ,1.17409 ,2.57789 ,25.29430 
182 ,33.2057 ,1.17606 ,2.56078 ,25.12641 
183 ,33.3817 ,1.17795 ,2.54367 ,24.95852 
184 ,33.5578 ,1.17964 ,2.54710 ,24.99210 
185 ,33.7337 ,1.18142 ,2.51972 ,24.72347 
186 ,33.9257 ,1.18335 ,2.49576 ,24.48842 
187 ,34.1179 ,1.18526 ,2.50261 ,24.55558 
188 ,34.3101 ,1.18721 ,2.46839 ,24.21980 
189 ,34.4862 ,1.18899 ,2.46154 ,24.15264 
190 ,34.6620 ,1.19068 ,2.44443 ,23.98475 
191 ,34.8383 ,1.19247 ,2.45470 ,24.08549 
192 ,34.9979 ,1.19418 ,2.42390 ,23.78328 
193 ,35.1745 ,1.19585 ,2.41021 ,23.64897 
194 ,35.3661 ,1.19780 ,2.38625 ,23.41392 
195 ,35.5424 ,1.19952 ,2.36572 ,23.21245 
196 ,35.7345 ,1.20139 ,2.36230 ,23.17887 
197 ,35.9108 ,1.20318 ,2.34177 ,22.97740 
198 ,36.1028 ,1.20514 ,2.32465 ,22.80951 
199 ,36.2789 ,1.20687 ,2.31439 ,22.70877 
200 ,36.4549 ,1.20859 ,2.30412 ,22.60804 
201 ,36.6310 ,1.21038 ,2.27332 ,22.30584 
202 ,36.8232 ,1.21237 ,2.25963 ,22.17152 
203 ,36.9991 ,1.21409 ,2.24594 ,22.03721 
204 ,37.1753 ,1.21581 ,2.23910 ,21.97005 
205 ,37.3670 ,1.21767 ,2.22541 ,21.83574 
206 ,37.5594 ,1.21965 ,2.21857 ,21.76858 
207 ,37.7515 ,1.22152 ,2.19119 ,21.49996 
208 ,37.9275 ,1.22337 ,2.17066 ,21.29849 
209 ,38.1034 ,1.22509 ,2.15355 ,21.13059 
210 ,38.2798 ,1.22688 ,2.15012 ,21.09702 
211 ,38.4715 ,1.22881 ,2.13301 ,20.92912 
212 ,38.6479 ,1.23057 ,2.11590 ,20.76123 
213 ,38.8240 ,1.23231 ,2.08852 ,20.49261 
214 ,39.0161 ,1.23427 ,2.08852 ,20.49261 
215 ,39.2078 ,1.23612 ,2.07484 ,20.35829 
216 ,39.3839 ,1.23789 ,2.05773 ,20.19040 
217 ,39.5761 ,1.23972 ,2.03377 ,19.95535 
218 ,39.7684 ,1.24178 ,2.01666 ,19.78746 
219 ,39.9444 ,1.24351 ,1.99955 ,19.61957 
220 ,40.1365 ,1.24548 ,1.99955 ,19.61957 
221 ,40.3126 ,1.24717 ,1.98928 ,19.51884 
222 ,40.5044 ,1.24913 ,1.95848 ,19.21663 
223 ,40.6809 ,1.25090 ,1.93795 ,19.01516 
224 ,40.8568 ,1.25268 ,1.94137 ,19.04874 
225 ,41.0329 ,1.25440 ,1.92426 ,18.88085 
226 ,41.2090 ,1.25619 ,1.91399 ,18.78011 
227 ,41.4170 ,1.25821 ,1.90715 ,18.71296 
228 ,41.6090 ,1.26017 ,1.88662 ,18.51149 
229 ,41.7853 ,1.26191 ,1.85582 ,18.20928 
230 ,41.9613 ,1.26367 ,1.84897 ,18.14213 
231 ,42.1532 ,1.26563 ,1.84897 ,18.14213 
232 ,42.3451 ,1.26743 ,1.82502 ,17.90708 
233 ,42.5215 ,1.26928 ,1.80449 ,17.70561 
234 ,42.7134 ,1.27121 ,1.80106 ,17.67203 
235 ,42.8896 ,1.27297 ,1.77369 ,17.40340 
236 ,43.0657 ,1.27469 ,1.74631 ,17.13478 
237 ,43.2578 ,1.27662 ,1.75315 ,17.20193 
238 ,43.4337 ,1.27836 ,1.74289 ,17.10120 
239 ,43.6260 ,1.28020 ,1.70866 ,16.76542 
240 ,43.8020 ,1.28210 ,1.69155 ,16.59752 
241 ,43.9939 ,1.28396 ,1.69498 ,16.63110 
242 ,44.1700 ,1.28575 ,1.67444 ,16.42963 
243 ,44.3462 ,1.28750 ,1.65733 ,16.26174 
244 ,44.5222 ,1.28937 ,1.63680 ,16.06027 
245 ,44.6984 ,1.29106 ,1.64707 ,16.16101 
246 ,44.8903 ,1.29284 ,1.62653 ,15.95954 
247 ,45.0664 ,1.29467 ,1.59916 ,15.69091 
248 ,45.2426 ,1.29650 ,1.57862 ,15.48944 
249 ,45.4345 ,1.29832 ,1.58547 ,15.55660 
250 ,45.6106 ,1.30018 ,1.56493 ,15.35513 
251 ,45.8024 ,1.30208 ,1.54440 ,15.15366 
252 ,45.9788 ,1.30381 ,1.54440 ,15.15366 
253 ,46.1548 ,1.30561 ,1.53071 ,15.01934 
254 ,46.3308 ,1.30733 ,1.49991 ,14.71714 
255 ,46.5071 ,1.30912 ,1.48965 ,14.61640 
256 ,46.6991 ,1.31101 ,1.48280 ,14.54925 
257 ,46.8912 ,1.31300 ,1.46227 ,14.34778 
258 ,47.0673 ,1.31473 ,1.45200 ,14.24704 
259 ,47.2593 ,1.31658 ,1.44858 ,14.21346 
260 ,47.4354 ,1.31843 ,1.43147 ,14.04557 
261 ,47.6275 ,1.32025 ,1.41094 ,13.84410 
262 ,47.8037 ,1.32203 ,1.40409 ,13.77695 
263 ,47.9797 ,1.32390 ,1.38698 ,13.60906 
264 ,48.1558 ,1.32562 ,1.36987 ,13.44116 
265 ,48.3318 ,1.32735 ,1.36645 ,13.40759 
266 ,48.5076 ,1.32923 ,1.33223 ,13.07180 
267 ,48.6840 ,1.33089 ,1.30827 ,12.83675 
268 ,48.8600 ,1.33261 ,1.31854 ,12.93749 
269 ,49.0362 ,1.33435 ,1.31854 ,12.93749 
270 ,49.2122 ,1.33616 ,1.30143 ,12.76960 
271 ,49.3883 ,1.33795 ,1.27405 ,12.50097 
272 ,49.5644 ,1.33965 ,1.25352 ,12.29950 
273 ,49.7724 ,1.34167 ,1.24325 ,12.19877 
274 ,49.9643 ,1.34371 ,1.23298 ,12.09803 
275 ,50.1406 ,1.34546 ,1.22956 ,12.06445 
276 ,50.3167 ,1.34723 ,1.21245 ,11.89656 
277 ,50.4927 ,1.34906 ,1.18165 ,11.59436 
278 ,50.6689 ,1.35075 ,1.17481 ,11.52720 
279 ,50.8610 ,1.35267 ,1.15770 ,11.35931 
280 ,51.0529 ,1.35458 ,1.14743 ,11.25857 
281 ,51.2292 ,1.35628 ,1.13716 ,11.15784 
282 ,51.4211 ,1.35822 ,1.13374 ,11.12426 
283 ,51.5971 ,1.35997 ,1.11663 ,10.95637 
284 ,51.7730 ,1.36177 ,1.09610 ,10.75490 
285 ,51.9493 ,1.36359 ,1.09267 ,10.72132 
286 ,52.1415 ,1.36547 ,1.06872 ,10.48627 
287 ,52.3172 ,1.36722 ,1.07214 ,10.51985 
288 ,52.5416 ,1.36933 ,1.05845 ,10.38554 
289 ,52.7494 ,1.37149 ,1.01054 ,9.91544 
290 ,52.9257 ,1.37324 ,1.00712 ,9.88186 
291 ,53.1017 ,1.37509 ,1.00712 ,9.88186 
292 ,53.2779 ,1.37682 ,1.00028 ,9.81471 
293 ,53.4539 ,1.37854 ,0.99001 ,9.71397 
294 ,53.6139 ,1.38026 ,0.95921 ,9.41177 
295 ,53.7899 ,1.38189 ,0.94552 ,9.27745 
296 ,53.9661 ,1.38366 ,0.92499 ,9.07598 
297 ,54.1743 ,1.38576 ,0.91472 ,8.97525 
298 ,54.3503 ,1.38753 ,0.91472 ,8.97525 
299 ,54.5264 ,1.38928 ,0.89419 ,8.77378 
300 ,54.7185 ,1.39115 ,0.89419 ,8.77378 
301 ,54.8946 ,1.39300 ,0.88392 ,8.67305 
302 ,55.0868 ,1.39479 ,0.84628 ,8.30368 
303 ,55.2788 ,1.39682 ,0.85654 ,8.40442 
304 ,55.4544 ,1.39857 ,0.83259 ,8.16937 
305 ,55.6308 ,1.40029 ,0.82917 ,8.13579 
306 ,55.8069 ,1.40205 ,0.80179 ,7.86717 
307 ,55.9832 ,1.40385 ,0.80863 ,7.93432 
308 ,56.1591 ,1.40562 ,0.78126 ,7.66570 
309 ,56.3512 ,1.40755 ,0.77099 ,7.56496 
310 ,56.5271 ,1.40930 ,0.75388 ,7.39707 
311 ,56.7029 ,1.41103 ,0.74704 ,7.32991 
312 ,56.8788 ,1.41278 ,0.74019 ,7.26276 
313 ,57.0552 ,1.41454 ,0.71966 ,7.06129 
314 ,57.2474 ,1.41639 ,0.70939 ,6.96055 
315 ,57.4235 ,1.41826 ,0.69228 ,6.79266 
316 ,57.6154 ,1.42013 ,0.69570 ,6.82624 
317 ,57.7918 ,1.42192 ,0.67175 ,6.59119 
318 ,57.9837 ,1.42383 ,0.65806 ,6.45688 
319 ,58.1754 ,1.42566 ,0.65464 ,6.42330 
320 ,58.3520 ,1.42752 ,0.63068 ,6.18825 
321 ,58.5278 ,1.42932 ,0.62726 ,6.15467 
322 ,58.7200 ,1.43113 ,0.62042 ,6.08752 
323 ,58.8959 ,1.43297 ,0.60330 ,5.91962 
324 ,59.0722 ,1.43475 ,0.59646 ,5.85247 
325 ,59.2479 ,1.43648 ,0.56566 ,5.55026 
326 ,59.4241 ,1.43823 ,0.56908 ,5.58384 
327 ,59.6000 ,1.43998 ,0.55197 ,5.41595 
328 ,59.7765 ,1.44176 ,0.53486 ,5.24806 
329 ,59.9681 ,1.44372 ,0.52459 ,5.14732 
330 ,60.1445 ,1.44537 ,0.51775 ,5.08017 
331 ,60.3205 ,1.44721 ,0.51433 ,5.04659 
332 ,60.4968 ,1.44891 ,0.51091 ,5.01301 
333 ,60.6727 ,1.45069 ,0.49037 ,4.81154 
334 ,60.8647 ,1.45260 ,0.46984 ,4.61007 
335 ,61.0569 ,1.45460 ,0.47326 ,4.64365 
336 ,61.2326 ,1.45629 ,0.43904 ,4.30787 
337 ,61.4088 ,1.45805 ,0.42535 ,4.17355 
338 ,61.5687 ,1.45982 ,0.42193 ,4.13997 
339 ,61.7288 ,1.46139 ,0.41166 ,4.03924 
340 ,61.8890 ,1.46299 ,0.40140 ,3.93850 
341 ,62.0651 ,1.46460 ,0.39455 ,3.87135 
342 ,62.2574 ,1.46646 ,0.39455 ,3.87135 
343 ,62.4333 ,1.46834 ,0.38429 ,3.77061 
344 ,62.6094 ,1.47003 ,0.34664 ,3.40125 
345 ,62.7856 ,1.47185 ,0.35006 ,3.43483 
346 ,62.9617 ,1.47362 ,0.33980 ,3.33410 
347 ,63.1536 ,1.47550 ,0.32269 ,3.16620 
348 ,63.3299 ,1.47723 ,0.30900 ,3.03189 
349 ,63.5218 ,1.47920 ,0.30900 ,3.03189 
350 ,63.6977 ,1.48092 ,0.30215 ,2.96473 
351 ,63.8740 ,1.48271 ,0.28162 ,2.76326 
352 ,64.0500 ,1.48443 ,0.26451 ,2.59537 
353 ,64.2262 ,1.48621 ,0.24740 ,2.42748 
354 ,64.4183 ,1.48815 ,0.26109 ,2.56179 
355 ,64.5944 ,1.48993 ,0.23371 ,2.29317 
356 ,64.8025 ,1.49188 ,0.20976 ,2.05812 
357 ,64.9946 ,1.49385 ,0.19607 ,1.92381 
358 ,65.1707 ,1.49569 ,0.19949 ,1.95738 
359 ,65.3463 ,1.49743 ,0.17553 ,1.72234 
360 ,65.5223 ,1.49918 ,0.16869 ,1.65518 
361 ,65.6984 ,1.50096 ,0.16869 ,1.65518 
362 ,65.8748 ,1.50275 ,0.16869 ,1.65518 
363 ,66.0832 ,1.50480 ,0.13447 ,1.31940 
364 ,66.2751 ,1.50668 ,0.12762 ,1.25224 
365 ,66.4507 ,1.50851 ,0.11736 ,1.15151 
366 ,66.6106 ,1.51017 ,0.08998 ,0.88288 
367 ,66.7874 ,1.51186 ,0.08998 ,0.88288 
368 ,66.9795 ,1.51377 ,0.08656 ,0.84930 
369 ,67.1553 ,1.51549 ,0.08314 ,0.81572 
370 ,67.3311 ,1.51726 ,0.05576 ,0.54710 
371 ,67.5075 ,1.51902 ,0.04549 ,0.44636 
372 ,67.6833 ,1.52080 ,0.04207 ,0.41278 
373 ,67.8596 ,1.52258 ,0.03522 ,0.34563 
374 ,68.0517 ,1.52446 ,0.01127 ,0.11058 
375 ,68.2275 ,1.52627 ,0.00100 ,0.00984 
376 ,68.4038 ,1.52794 ,-0.00584 ,-0.05731 
377 ,68.5960 ,1.52984 ,-0.00926 ,-0.09089 
378 ,68.7719 ,1.53166 ,-0.02295 ,-0.22520 
379 ,68.9478 ,1.53345 ,-0.06402 ,-0.62814 
380 ,69.1241 ,1.53516 ,-0.06060 ,-0.59457 
381 ,69.3002 ,1.53695 ,-0.06060 ,-0.59457 
382 ,69.4919 ,1.53889 ,-0.06744 ,-0.66172 
383 ,69.6843 ,1.54071 ,-0.10851 ,-1.06466 
384 ,69.8760 ,1.54276 ,-0.08797 ,-0.86319 
385 ,70.0524 ,1.54447 ,-0.10508 ,-1.03108 
386 ,70.2445 ,1.54638 ,-0.12562 ,-1.23255 
387 ,70.4204 ,1.54817 ,-0.12562 ,-1.23255 
388 ,70.5967 ,1.54992 ,-0.13246 ,-1.29971 
389 ,70.7727 ,1.55166 ,-0.15642 ,-1.53476 
390 ,70.9489 ,1.55343 ,-0.17695 ,-1.73623 
391 ,71.1249 ,1.55521 ,-0.18379 ,-1.80338 
392 ,71.3009 ,1.55693 ,-0.17011 ,-1.66907 
393 ,71.4772 ,1.55877 ,-0.19406 ,-1.90412 
394 ,71.6530 ,1.56050 ,-0.21459 ,-2.10559 
395 ,71.8292 ,1.56225 ,-0.23513 ,-2.30706 
396 ,72.0049 ,1.56396 ,-0.24539 ,-2.40779 
397 ,72.1815 ,1.56578 ,-0.23855 ,-2.34064 
398 ,72.3413 ,1.56748 ,-0.24197 ,-2.37422 
399 ,72.5175 ,1.56909 ,-0.24881 ,-2.44137 
400 ,72.6935 ,1.57101 ,-0.29330 ,-2.87789 
401 ,72.8696 ,1.57262 ,-0.28988 ,-2.84431 
402 ,73.0456 ,1.57441 ,-0.30357 ,-2.97863 
403 ,73.2377 ,1.57620 ,-0.30015 ,-2.94505 
404 ,73.4140 ,1.57808 ,-0.31726 ,-3.11294 
405 ,73.6060 ,1.57995 ,-0.32752 ,-3.21367 
406 ,73.7979 ,1.58194 ,-0.33095 ,-3.24725 
407 ,73.9736 ,1.58366 ,-0.35148 ,-3.44872 
408 ,74.1501 ,1.58544 ,-0.37544 ,-3.68377 
409 ,74.3261 ,1.58716 ,-0.38570 ,-3.78450 
410 ,74.5023 ,1.58897 ,-0.38228 ,-3.75093 
411 ,74.6784 ,1.59075 ,-0.38912 ,-3.81808 
412 ,74.8544 ,1.59248 ,-0.40281 ,-3.95240 
413 ,75.0462 ,1.59438 ,-0.42335 ,-4.15387 
414 ,75.2226 ,1.59615 ,-0.41992 ,-4.12029 
415 ,75.4307 ,1.59818 ,-0.45072 ,-4.42249 
416 ,75.6067 ,1.60002 ,-0.46099 ,-4.52323 
417 ,75.7987 ,1.60193 ,-0.46099 ,-4.52323 
418 ,75.9910 ,1.60384 ,-0.47810 ,-4.69112 
419 ,76.1669 ,1.60560 ,-0.50206 ,-4.92617 
420 ,76.3589 ,1.60741 ,-0.49179 ,-4.82543 
421 ,76.5351 ,1.60927 ,-0.49521 ,-4.85901 
422 ,76.7111 ,1.61108 ,-0.51917 ,-5.09406 
423 ,76.9032 ,1.61299 ,-0.52601 ,-5.16121 
424 ,77.0953 ,1.61478 ,-0.53628 ,-5.26195 
425 ,77.2873 ,1.61675 ,-0.55339 ,-5.42984 
426 ,77.4633 ,1.61851 ,-0.55681 ,-5.46342 
427 ,77.6552 ,1.62037 ,-0.56365 ,-5.53058 
428 ,77.8315 ,1.62227 ,-0.58419 ,-5.73205 
429 ,78.0076 ,1.62402 ,-0.59445 ,-5.83278 
430 ,78.1834 ,1.62579 ,-0.59445 ,-5.83278 
431 ,78.3599 ,1.62754 ,-0.59788 ,-5.86636 
432 ,78.5519 ,1.62946 ,-0.61499 ,-6.03425 
433 ,78.7438 ,1.63130 ,-0.62868 ,-6.16856 
434 ,78.9201 ,1.63310 ,-0.63894 ,-6.26930 
435 ,79.1122 ,1.63506 ,-0.64579 ,-6.33646 
436 ,79.2880 ,1.63681 ,-0.66632 ,-6.53793 
437 ,79.4643 ,1.63856 ,-0.68001 ,-6.67224 
438 ,79.6723 ,1.64058 ,-0.68001 ,-6.67224 
439 ,79.8484 ,1.64234 ,-0.70396 ,-6.90729 
440 ,80.0245 ,1.64418 ,-0.71081 ,-6.97444 
441 ,80.2324 ,1.64613 ,-0.70739 ,-6.94086 
442 ,80.4247 ,1.64816 ,-0.73818 ,-7.24307 
443 ,80.6008 ,1.64991 ,-0.73818 ,-7.24307 
444 ,80.7929 ,1.65185 ,-0.74845 ,-7.34380 
445 ,80.9689 ,1.65360 ,-0.76214 ,-7.47812 
446 ,81.1610 ,1.65542 ,-0.77583 ,-7.61243 
447 ,81.3369 ,1.65731 ,-0.76556 ,-7.51170 
448 ,81.5291 ,1.65917 ,-0.80321 ,-7.88106 
449 ,81.7212 ,1.66110 ,-0.81005 ,-7.94821 
450 ,81.8972 ,1.66288 ,-0.81005 ,-7.94821 
451 ,82.0893 ,1.66470 ,-0.83058 ,-8.14968 
452 ,82.2654 ,1.66653 ,-0.84085 ,-8.25042 
453 ,82.4410 ,1.66826 ,-0.84427 ,-8.28400 
454 ,82.6172 ,1.67007 ,-0.85454 ,-8.38473 
455 ,82.7773 ,1.67180 ,-0.86138 ,-8.45189 
456 ,82.9373 ,1.67341 ,-0.87165 ,-8.55262 
457 ,83.1294 ,1.67514 ,-0.89560 ,-8.78767 
458 ,83.2898 ,1.67689 ,-0.90245 ,-8.85483 
459 ,83.4656 ,1.67852 ,-0.91956 ,-9.02272 
460 ,83.6421 ,1.68033 ,-0.91272 ,-8.95556 
461 ,83.8341 ,1.68227 ,-0.90587 ,-8.88841 
462 ,84.0101 ,1.68400 ,-0.95036 ,-9.32492 
463 ,84.2021 ,1.68593 ,-0.95036 ,-9.32492 
