Data stamp = , 31-03-2022 10:51:16 236

Calibration Values: 
Slope = , 26.54 , g/V 
Offset Voltage at no contact = , -0.501760 , V 

No , Time , Stage Position ,   Mass , Force 
   ,  (s) ,      (mm)      ,   (g)  , (mN)  

1 ,0.0000 ,0.84949 ,5.35327 ,52.52631 
2 ,0.2162 ,0.84957 ,5.35327 ,52.52631 
3 ,0.5366 ,0.85038 ,5.37038 ,52.69420 
4 ,0.7284 ,0.85178 ,5.35327 ,52.52631 
5 ,0.9046 ,0.85334 ,5.37038 ,52.69420 
6 ,1.0966 ,0.85518 ,5.36012 ,52.59346 
7 ,1.2889 ,0.85701 ,5.38065 ,52.79493 
8 ,1.4646 ,0.85881 ,5.38407 ,52.82851 
9 ,1.6410 ,0.86063 ,5.35327 ,52.52631 
10 ,1.8171 ,0.86245 ,5.33616 ,52.35841 
11 ,2.0088 ,0.86430 ,5.34643 ,52.45915 
12 ,2.2012 ,0.86614 ,5.32589 ,52.25768 
13 ,2.3772 ,0.86805 ,5.29510 ,51.95548 
14 ,2.5533 ,0.86974 ,5.28483 ,51.85474 
15 ,2.7293 ,0.87144 ,5.26772 ,51.68685 
16 ,2.9051 ,0.87327 ,5.25745 ,51.58611 
17 ,3.0813 ,0.87506 ,5.23692 ,51.38464 
18 ,3.2576 ,0.87684 ,5.19927 ,51.01528 
19 ,3.4495 ,0.87869 ,5.18559 ,50.88097 
20 ,3.6257 ,0.88052 ,5.18559 ,50.88097 
21 ,3.8016 ,0.88229 ,5.16505 ,50.67950 
22 ,3.9934 ,0.88412 ,5.13083 ,50.34372 
23 ,4.1699 ,0.88593 ,5.12056 ,50.24298 
24 ,4.3621 ,0.88774 ,5.11372 ,50.17583 
25 ,4.5381 ,0.88966 ,5.08634 ,49.90720 
26 ,4.7300 ,0.89148 ,5.07265 ,49.77289 
27 ,4.9063 ,0.89326 ,5.06581 ,49.70573 
28 ,5.0824 ,0.89503 ,5.03159 ,49.36995 
29 ,5.2745 ,0.89694 ,5.00079 ,49.06774 
30 ,5.4506 ,0.89873 ,4.99737 ,49.03416 
31 ,5.6425 ,0.90054 ,4.97683 ,48.83269 
32 ,5.8187 ,0.90236 ,4.95630 ,48.63122 
33 ,6.0108 ,0.90433 ,4.93235 ,48.39618 
34 ,6.2027 ,0.90615 ,4.92550 ,48.32902 
35 ,6.3949 ,0.90817 ,4.89812 ,48.06039 
36 ,6.5710 ,0.90992 ,4.88101 ,47.89250 
37 ,6.7630 ,0.91183 ,4.88101 ,47.89250 
38 ,6.9392 ,0.91363 ,4.84679 ,47.55672 
39 ,7.1150 ,0.91535 ,4.82626 ,47.35525 
40 ,7.2911 ,0.91718 ,4.81257 ,47.22093 
41 ,7.4993 ,0.91916 ,4.79204 ,47.01946 
42 ,7.6752 ,0.92100 ,4.78519 ,46.95231 
43 ,7.8675 ,0.92278 ,4.76466 ,46.75084 
44 ,8.0594 ,0.92480 ,4.73386 ,46.44863 
45 ,8.2356 ,0.92655 ,4.72017 ,46.31432 
46 ,8.4277 ,0.92832 ,4.70648 ,46.18001 
47 ,8.6197 ,0.93036 ,4.69622 ,46.07927 
48 ,8.7958 ,0.93221 ,4.65857 ,45.70991 
49 ,8.9719 ,0.93391 ,4.66542 ,45.77707 
50 ,9.1479 ,0.93568 ,4.64831 ,45.60918 
51 ,9.3080 ,0.93735 ,4.64146 ,45.54202 
52 ,9.4844 ,0.93905 ,4.61751 ,45.30697 
53 ,9.6603 ,0.94079 ,4.59013 ,45.03835 
54 ,9.8364 ,0.94260 ,4.56275 ,44.76972 
55 ,10.0285 ,0.94442 ,4.57302 ,44.87045 
56 ,10.2204 ,0.94639 ,4.55591 ,44.70256 
57 ,10.3963 ,0.94820 ,4.52169 ,44.36678 
58 ,10.5887 ,0.95008 ,4.51826 ,44.33320 
59 ,10.7805 ,0.95202 ,4.49431 ,44.09815 
60 ,10.9568 ,0.95380 ,4.47378 ,43.89668 
61 ,11.1647 ,0.95578 ,4.47378 ,43.89668 
62 ,11.3407 ,0.95761 ,4.44298 ,43.59448 
63 ,11.5168 ,0.95936 ,4.43955 ,43.56090 
64 ,11.7089 ,0.96132 ,4.40533 ,43.22512 
65 ,11.9009 ,0.96309 ,4.38822 ,43.05723 
66 ,12.0932 ,0.96509 ,4.37111 ,42.88933 
67 ,12.3011 ,0.96713 ,4.35742 ,42.75502 
68 ,12.4612 ,0.96891 ,4.34031 ,42.58713 
69 ,12.6374 ,0.97059 ,4.33004 ,42.48639 
70 ,12.8294 ,0.97250 ,4.31978 ,42.38566 
71 ,13.0053 ,0.97422 ,4.30267 ,42.21777 
72 ,13.1817 ,0.97602 ,4.28556 ,42.04988 
73 ,13.3575 ,0.97773 ,4.26502 ,41.84841 
74 ,13.5336 ,0.97948 ,4.24449 ,41.64694 
75 ,13.7418 ,0.98150 ,4.23422 ,41.54620 
76 ,13.9179 ,0.98335 ,4.23080 ,41.51262 
77 ,14.0941 ,0.98513 ,4.19658 ,41.17684 
78 ,14.2701 ,0.98691 ,4.18974 ,41.10968 
79 ,14.4777 ,0.98889 ,4.17605 ,40.97537 
80 ,14.6542 ,0.99074 ,4.14183 ,40.63959 
81 ,14.8464 ,0.99262 ,4.15209 ,40.74032 
82 ,15.0219 ,0.99440 ,4.14183 ,40.63959 
83 ,15.1984 ,0.99617 ,4.10418 ,40.27023 
84 ,15.3904 ,0.99808 ,4.08365 ,40.06876 
85 ,15.5661 ,0.99980 ,4.07680 ,40.00160 
86 ,15.7424 ,1.00163 ,4.05969 ,39.83371 
87 ,15.9185 ,1.00335 ,4.03232 ,39.56508 
88 ,16.0948 ,1.00513 ,4.01863 ,39.43077 
89 ,16.2868 ,1.00707 ,4.00494 ,39.29646 
90 ,16.4630 ,1.00879 ,3.98783 ,39.12856 
91 ,16.6709 ,1.01083 ,3.97072 ,38.96067 
92 ,16.8468 ,1.01261 ,3.96045 ,38.85994 
93 ,17.0229 ,1.01439 ,3.95018 ,38.75920 
94 ,17.1993 ,1.01616 ,3.93992 ,38.65847 
95 ,17.3753 ,1.01796 ,3.90227 ,38.28911 
96 ,17.5832 ,1.01992 ,3.89543 ,38.22195 
97 ,17.7594 ,1.02175 ,3.88516 ,38.12122 
98 ,17.9353 ,1.02351 ,3.86121 ,37.88617 
99 ,18.1111 ,1.02522 ,3.83725 ,37.65112 
100 ,18.2875 ,1.02705 ,3.82699 ,37.55038 
101 ,18.4636 ,1.02876 ,3.83041 ,37.58396 
102 ,18.6878 ,1.03081 ,3.79276 ,37.21460 
103 ,18.8635 ,1.03278 ,3.78250 ,37.11387 
104 ,19.0558 ,1.03466 ,3.75170 ,36.81166 
105 ,19.2319 ,1.03647 ,3.73117 ,36.61019 
106 ,19.4241 ,1.03836 ,3.72432 ,36.54303 
107 ,19.6160 ,1.04029 ,3.71063 ,36.40872 
108 ,19.8076 ,1.04212 ,3.68325 ,36.14010 
109 ,19.9843 ,1.04399 ,3.68325 ,36.14010 
110 ,20.1603 ,1.04578 ,3.66272 ,35.93863 
111 ,20.3524 ,1.04762 ,3.64219 ,35.73716 
112 ,20.5284 ,1.04944 ,3.62850 ,35.60284 
113 ,20.7205 ,1.05132 ,3.60454 ,35.36779 
114 ,20.8966 ,1.05307 ,3.58059 ,35.13275 
115 ,21.0727 ,1.05492 ,3.56348 ,34.96485 
116 ,21.2487 ,1.05663 ,3.55321 ,34.86412 
117 ,21.4248 ,1.05842 ,3.56690 ,34.99843 
118 ,21.5846 ,1.06008 ,3.52926 ,34.62907 
119 ,21.7609 ,1.06171 ,3.52241 ,34.56192 
120 ,21.9366 ,1.06353 ,3.49846 ,34.32687 
121 ,22.1129 ,1.06531 ,3.47450 ,34.09182 
122 ,22.3051 ,1.06724 ,3.48135 ,34.15898 
123 ,22.4813 ,1.06897 ,3.45739 ,33.92393 
124 ,22.6733 ,1.07087 ,3.41975 ,33.55457 
125 ,22.8493 ,1.07266 ,3.41290 ,33.48741 
126 ,23.0254 ,1.07439 ,3.40264 ,33.38667 
127 ,23.2015 ,1.07613 ,3.39237 ,33.28594 
128 ,23.4096 ,1.07813 ,3.36499 ,33.01731 
129 ,23.5856 ,1.08006 ,3.35815 ,32.95016 
130 ,23.7778 ,1.08190 ,3.33077 ,32.68153 
131 ,23.9538 ,1.08371 ,3.32051 ,32.58080 
132 ,24.1138 ,1.08537 ,3.31024 ,32.48006 
133 ,24.3059 ,1.08719 ,3.31024 ,32.48006 
134 ,24.4821 ,1.08895 ,3.27944 ,32.17786 
135 ,24.6738 ,1.09085 ,3.24864 ,31.87565 
136 ,24.8503 ,1.09264 ,3.25548 ,31.94281 
137 ,25.0260 ,1.09439 ,3.22468 ,31.64060 
138 ,25.2183 ,1.09626 ,3.19731 ,31.37198 
139 ,25.4263 ,1.09833 ,3.19388 ,31.33840 
140 ,25.6184 ,1.10024 ,3.18704 ,31.27124 
141 ,25.7944 ,1.10215 ,3.16993 ,31.10335 
142 ,25.9707 ,1.10381 ,3.14597 ,30.86830 
143 ,26.1462 ,1.10560 ,3.14597 ,30.86830 
144 ,26.3227 ,1.10738 ,3.11860 ,30.59968 
145 ,26.4989 ,1.10913 ,3.10149 ,30.43178 
146 ,26.6750 ,1.11089 ,3.07411 ,30.16316 
147 ,26.8509 ,1.11263 ,3.06384 ,30.06242 
148 ,27.0429 ,1.11453 ,3.06726 ,30.09600 
149 ,27.2188 ,1.11639 ,3.04331 ,29.86095 
150 ,27.3952 ,1.11800 ,3.00909 ,29.52517 
151 ,27.5872 ,1.12000 ,3.01935 ,29.62590 
152 ,27.7633 ,1.12175 ,3.00224 ,29.45801 
153 ,27.9394 ,1.12354 ,2.99198 ,29.35728 
154 ,28.1153 ,1.12534 ,2.96118 ,29.05507 
155 ,28.2911 ,1.12711 ,2.93038 ,28.75287 
156 ,28.4677 ,1.12876 ,2.93722 ,28.82003 
157 ,28.6437 ,1.13063 ,2.93038 ,28.75287 
158 ,28.8199 ,1.13233 ,2.91327 ,28.58498 
159 ,28.9960 ,1.13408 ,2.88247 ,28.28277 
160 ,29.1880 ,1.13599 ,2.87905 ,28.24919 
161 ,29.3640 ,1.13775 ,2.86536 ,28.11488 
162 ,29.5401 ,1.13949 ,2.83456 ,27.81268 
163 ,29.7322 ,1.14134 ,2.82087 ,27.67836 
164 ,29.9402 ,1.14344 ,2.79691 ,27.44332 
165 ,30.1163 ,1.14529 ,2.79691 ,27.44332 
166 ,30.2923 ,1.14710 ,2.77980 ,27.27542 
167 ,30.4521 ,1.14873 ,2.76954 ,27.17469 
168 ,30.6285 ,1.15035 ,2.76611 ,27.14111 
169 ,30.8044 ,1.15215 ,2.74558 ,26.93964 
170 ,30.9967 ,1.15409 ,2.72847 ,26.77175 
171 ,31.1725 ,1.15586 ,2.69425 ,26.43597 
172 ,31.3648 ,1.15775 ,2.69425 ,26.43597 
173 ,31.5409 ,1.15951 ,2.67714 ,26.26807 
174 ,31.7169 ,1.16126 ,2.65660 ,26.06661 
175 ,31.9090 ,1.16317 ,2.67372 ,26.23450 
176 ,32.0850 ,1.16494 ,2.64292 ,25.93229 
177 ,32.2611 ,1.16673 ,2.62923 ,25.79798 
178 ,32.4373 ,1.16842 ,2.58474 ,25.36146 
179 ,32.6292 ,1.17039 ,2.59501 ,25.46220 
180 ,32.8054 ,1.17217 ,2.57789 ,25.29430 
181 ,32.9814 ,1.17394 ,2.57447 ,25.26073 
182 ,33.1574 ,1.17564 ,2.53341 ,24.85779 
183 ,33.3335 ,1.17741 ,2.52314 ,24.75705 
184 ,33.5095 ,1.17916 ,2.51287 ,24.65632 
185 ,33.7018 ,1.18110 ,2.49576 ,24.48842 
186 ,33.8935 ,1.18301 ,2.47865 ,24.32053 
187 ,34.0700 ,1.18479 ,2.46839 ,24.21980 
188 ,34.2779 ,1.18677 ,2.46154 ,24.15264 
189 ,34.4700 ,1.18881 ,2.42390 ,23.78328 
190 ,34.6296 ,1.19050 ,2.42048 ,23.74970 
191 ,34.8062 ,1.19214 ,2.41021 ,23.64897 
192 ,34.9826 ,1.19394 ,2.39994 ,23.54823 
193 ,35.1744 ,1.19584 ,2.37256 ,23.27961 
194 ,35.3663 ,1.19776 ,2.36914 ,23.24603 
195 ,35.5425 ,1.19951 ,2.35545 ,23.11171 
196 ,35.7342 ,1.20142 ,2.32123 ,22.77593 
197 ,35.9266 ,1.20331 ,2.33492 ,22.91024 
198 ,36.1028 ,1.20511 ,2.30412 ,22.60804 
199 ,36.2789 ,1.20690 ,2.29043 ,22.47373 
200 ,36.4549 ,1.20863 ,2.26306 ,22.20510 
201 ,36.6307 ,1.21040 ,2.24252 ,22.00363 
202 ,36.8070 ,1.21212 ,2.24252 ,22.00363 
203 ,36.9831 ,1.21394 ,2.22199 ,21.80216 
204 ,37.1591 ,1.21570 ,2.21515 ,21.73500 
205 ,37.3353 ,1.21742 ,2.18777 ,21.46638 
206 ,37.5114 ,1.21920 ,2.17750 ,21.36564 
207 ,37.6871 ,1.22095 ,2.16723 ,21.26491 
208 ,37.8636 ,1.22273 ,2.16039 ,21.19775 
209 ,38.0556 ,1.22471 ,2.13301 ,20.92912 
210 ,38.2156 ,1.22631 ,2.12275 ,20.82839 
211 ,38.4076 ,1.22806 ,2.09537 ,20.55976 
212 ,38.5998 ,1.23005 ,2.09537 ,20.55976 
213 ,38.7917 ,1.23201 ,2.06457 ,20.25756 
214 ,38.9839 ,1.23388 ,2.06799 ,20.29114 
215 ,39.1599 ,1.23570 ,2.06457 ,20.25756 
216 ,39.3521 ,1.23751 ,2.04061 ,20.02251 
217 ,39.5282 ,1.23939 ,2.01324 ,19.75388 
218 ,39.7202 ,1.24117 ,1.99955 ,19.61957 
219 ,39.9123 ,1.24319 ,1.98244 ,19.45168 
220 ,40.1043 ,1.24499 ,1.97217 ,19.35094 
221 ,40.2965 ,1.24692 ,1.96875 ,19.31737 
222 ,40.4888 ,1.24899 ,1.93795 ,19.01516 
223 ,40.6645 ,1.25074 ,1.93111 ,18.94801 
224 ,40.8565 ,1.25261 ,1.91399 ,18.78011 
225 ,41.0327 ,1.25443 ,1.89346 ,18.57864 
226 ,41.2409 ,1.25643 ,1.87977 ,18.44433 
227 ,41.4169 ,1.25826 ,1.87293 ,18.37717 
228 ,41.5930 ,1.25997 ,1.85924 ,18.24286 
229 ,41.7851 ,1.26197 ,1.84555 ,18.10855 
230 ,41.9609 ,1.26369 ,1.83871 ,18.04139 
231 ,42.1371 ,1.26548 ,1.81817 ,17.83992 
232 ,42.3453 ,1.26745 ,1.78053 ,17.47056 
233 ,42.5212 ,1.26928 ,1.78737 ,17.53772 
234 ,42.6974 ,1.27102 ,1.76684 ,17.33625 
235 ,42.8895 ,1.27296 ,1.74289 ,17.10120 
236 ,43.0815 ,1.27485 ,1.74631 ,17.13478 
237 ,43.2575 ,1.27659 ,1.72920 ,16.96689 
238 ,43.4497 ,1.27844 ,1.69498 ,16.63110 
239 ,43.6093 ,1.28030 ,1.68471 ,16.53037 
240 ,43.7694 ,1.28186 ,1.68471 ,16.53037 
241 ,43.9457 ,1.28348 ,1.66418 ,16.32890 
242 ,44.1219 ,1.28526 ,1.66418 ,16.32890 
243 ,44.2980 ,1.28705 ,1.65049 ,16.19458 
244 ,44.4741 ,1.28883 ,1.61627 ,15.85880 
245 ,44.6501 ,1.29059 ,1.60258 ,15.72449 
246 ,44.8263 ,1.29230 ,1.60600 ,15.75807 
247 ,45.0182 ,1.29413 ,1.59231 ,15.62375 
248 ,45.1783 ,1.29596 ,1.56493 ,15.35513 
249 ,45.3544 ,1.29756 ,1.55809 ,15.28797 
250 ,45.5305 ,1.29934 ,1.53413 ,15.05292 
251 ,45.7065 ,1.30125 ,1.53071 ,15.01934 
252 ,45.8825 ,1.30288 ,1.52045 ,14.91861 
253 ,46.0587 ,1.30464 ,1.51702 ,14.88503 
254 ,46.2346 ,1.30642 ,1.50333 ,14.75072 
255 ,46.4109 ,1.30817 ,1.47596 ,14.48209 
256 ,46.5871 ,1.30995 ,1.45542 ,14.28062 
257 ,46.7629 ,1.31165 ,1.45542 ,14.28062 
258 ,46.9551 ,1.31351 ,1.44858 ,14.21346 
259 ,47.1472 ,1.31553 ,1.41094 ,13.84410 
260 ,47.3393 ,1.31740 ,1.41778 ,13.91126 
261 ,47.5153 ,1.31919 ,1.41436 ,13.87768 
262 ,47.6912 ,1.32095 ,1.38356 ,13.57548 
263 ,47.8675 ,1.32272 ,1.35960 ,13.34043 
264 ,48.0432 ,1.32447 ,1.36303 ,13.37401 
265 ,48.2196 ,1.32622 ,1.34934 ,13.23969 
266 ,48.3957 ,1.32799 ,1.32538 ,13.00465 
267 ,48.5874 ,1.32989 ,1.30827 ,12.83675 
268 ,48.7638 ,1.33168 ,1.30485 ,12.80318 
269 ,48.9398 ,1.33340 ,1.31169 ,12.87033 
270 ,49.1160 ,1.33522 ,1.29116 ,12.66886 
271 ,49.2921 ,1.33700 ,1.26036 ,12.36666 
272 ,49.4841 ,1.33890 ,1.26036 ,12.36666 
273 ,49.6599 ,1.34076 ,1.23983 ,12.16519 
274 ,49.8363 ,1.34235 ,1.23298 ,12.09803 
275 ,50.0124 ,1.34414 ,1.22272 ,11.99730 
276 ,50.1884 ,1.34591 ,1.19876 ,11.76225 
277 ,50.3962 ,1.34795 ,1.19192 ,11.69509 
278 ,50.5725 ,1.34974 ,1.18165 ,11.59436 
279 ,50.7644 ,1.35172 ,1.17138 ,11.49362 
280 ,50.9566 ,1.35362 ,1.15085 ,11.29215 
281 ,51.1328 ,1.35534 ,1.14058 ,11.19142 
282 ,51.3249 ,1.35731 ,1.12347 ,11.02353 
283 ,51.5004 ,1.35907 ,1.12347 ,11.02353 
284 ,51.6604 ,1.36077 ,1.12005 ,10.98995 
285 ,51.8370 ,1.36241 ,1.08925 ,10.68774 
286 ,52.0131 ,1.36413 ,1.08583 ,10.65416 
287 ,52.2212 ,1.36615 ,1.08241 ,10.62059 
288 ,52.3967 ,1.36802 ,1.06530 ,10.45270 
289 ,52.5729 ,1.36975 ,1.04134 ,10.21765 
290 ,52.7490 ,1.37150 ,1.01396 ,9.94902 
291 ,52.9255 ,1.37329 ,1.00370 ,9.84829 
292 ,53.1174 ,1.37528 ,1.00028 ,9.81471 
293 ,53.2936 ,1.37697 ,0.98659 ,9.68039 
294 ,53.4533 ,1.37863 ,0.97632 ,9.57966 
295 ,53.6297 ,1.38028 ,0.94894 ,9.31103 
296 ,53.8217 ,1.38217 ,0.95237 ,9.34461 
297 ,53.9977 ,1.38404 ,0.94210 ,9.24388 
298 ,54.1740 ,1.38577 ,0.93525 ,9.17672 
299 ,54.3498 ,1.38752 ,0.90446 ,8.87451 
300 ,54.5421 ,1.38939 ,0.89077 ,8.74020 
301 ,54.7500 ,1.39143 ,0.88050 ,8.63947 
302 ,54.9425 ,1.39348 ,0.86339 ,8.47158 
303 ,55.1179 ,1.39519 ,0.85654 ,8.40442 
304 ,55.2939 ,1.39694 ,0.84970 ,8.33726 
305 ,55.4699 ,1.39870 ,0.83943 ,8.23653 
306 ,55.6462 ,1.40048 ,0.82232 ,8.06864 
307 ,55.8704 ,1.40261 ,0.81548 ,8.00148 
308 ,56.0787 ,1.40479 ,0.79495 ,7.80001 
309 ,56.2707 ,1.40664 ,0.78810 ,7.73285 
310 ,56.4627 ,1.40860 ,0.76757 ,7.53138 
311 ,56.6389 ,1.41039 ,0.76415 ,7.49780 
312 ,56.8309 ,1.41237 ,0.73335 ,7.19560 
313 ,57.0229 ,1.41422 ,0.72308 ,7.09486 
314 ,57.1991 ,1.41600 ,0.71624 ,7.02771 
315 ,57.3752 ,1.41775 ,0.71624 ,7.02771 
316 ,57.5513 ,1.41953 ,0.68201 ,6.69193 
317 ,57.7432 ,1.42147 ,0.67175 ,6.59119 
318 ,57.9194 ,1.42319 ,0.66148 ,6.49046 
319 ,58.1115 ,1.42515 ,0.64437 ,6.32256 
320 ,58.3036 ,1.42701 ,0.64095 ,6.28899 
321 ,58.4954 ,1.42896 ,0.62726 ,6.15467 
322 ,58.6717 ,1.43071 ,0.60673 ,5.95320 
323 ,58.8475 ,1.43249 ,0.59304 ,5.81889 
324 ,59.0398 ,1.43434 ,0.59646 ,5.85247 
325 ,59.2319 ,1.43633 ,0.57251 ,5.61742 
326 ,59.4080 ,1.43808 ,0.54855 ,5.38237 
327 ,59.5999 ,1.44001 ,0.55882 ,5.48311 
328 ,59.7760 ,1.44174 ,0.55539 ,5.44953 
329 ,59.9519 ,1.44365 ,0.51433 ,5.04659 
330 ,60.1281 ,1.44525 ,0.51091 ,5.01301 
331 ,60.3043 ,1.44703 ,0.49722 ,4.87870 
332 ,60.5122 ,1.44903 ,0.49037 ,4.81154 
333 ,60.6884 ,1.45087 ,0.46642 ,4.57649 
334 ,60.8645 ,1.45261 ,0.47326 ,4.64365 
335 ,61.0405 ,1.45442 ,0.45957 ,4.50934 
336 ,61.2165 ,1.45616 ,0.44931 ,4.40860 
337 ,61.3929 ,1.45788 ,0.43562 ,4.27429 
338 ,61.5848 ,1.45979 ,0.41851 ,4.10640 
339 ,61.7770 ,1.46175 ,0.40824 ,4.00566 
340 ,61.9528 ,1.46350 ,0.40140 ,3.93850 
341 ,62.1289 ,1.46527 ,0.39113 ,3.83777 
342 ,62.3207 ,1.46719 ,0.37402 ,3.66988 
343 ,62.5131 ,1.46900 ,0.36375 ,3.56914 
344 ,62.7212 ,1.47114 ,0.35349 ,3.46841 
345 ,62.9291 ,1.47318 ,0.32611 ,3.19978 
346 ,63.1213 ,1.47519 ,0.33638 ,3.30052 
347 ,63.2974 ,1.47691 ,0.31242 ,3.06547 
348 ,63.4735 ,1.47866 ,0.30558 ,2.99831 
349 ,63.6497 ,1.48048 ,0.28504 ,2.79684 
350 ,63.8257 ,1.48226 ,0.26451 ,2.59537 
351 ,64.0016 ,1.48401 ,0.26109 ,2.56179 
352 ,64.1778 ,1.48570 ,0.25767 ,2.52822 
353 ,64.3539 ,1.48751 ,0.23371 ,2.29317 
354 ,64.5299 ,1.48929 ,0.22687 ,2.22601 
355 ,64.7058 ,1.49105 ,0.20976 ,2.05812 
356 ,64.8822 ,1.49276 ,0.20976 ,2.05812 
357 ,65.0742 ,1.49464 ,0.20633 ,2.02454 
358 ,65.2501 ,1.49644 ,0.18238 ,1.78949 
359 ,65.4263 ,1.49825 ,0.16527 ,1.62160 
360 ,65.6024 ,1.49997 ,0.15842 ,1.55445 
361 ,65.7941 ,1.50188 ,0.15842 ,1.55445 
362 ,65.9705 ,1.50366 ,0.13789 ,1.35298 
363 ,66.1466 ,1.50541 ,0.11736 ,1.15151 
364 ,66.3385 ,1.50733 ,0.11051 ,1.08435 
365 ,66.5468 ,1.50939 ,0.08998 ,0.88288 
366 ,66.7226 ,1.51119 ,0.07971 ,0.78214 
367 ,66.8988 ,1.51296 ,0.07629 ,0.74857 
368 ,67.0749 ,1.51468 ,0.07971 ,0.78214 
369 ,67.2667 ,1.51663 ,0.04207 ,0.41278 
370 ,67.4431 ,1.51842 ,0.03865 ,0.37920 
371 ,67.6191 ,1.52030 ,0.04549 ,0.44636 
372 ,67.7951 ,1.52191 ,0.02154 ,0.21131 
373 ,67.9712 ,1.52367 ,0.00785 ,0.07700 
374 ,68.1473 ,1.52539 ,-0.01269 ,-0.12447 
375 ,68.3231 ,1.52720 ,-0.01953 ,-0.19163 
376 ,68.4995 ,1.52898 ,-0.02980 ,-0.29236 
377 ,68.6915 ,1.53084 ,-0.02637 ,-0.25878 
378 ,68.8677 ,1.53262 ,-0.05717 ,-0.56099 
379 ,69.0598 ,1.53457 ,-0.06060 ,-0.59457 
380 ,69.2358 ,1.53634 ,-0.06402 ,-0.62814 
381 ,69.4115 ,1.53806 ,-0.07086 ,-0.69530 
382 ,69.6040 ,1.53989 ,-0.08797 ,-0.86319 
383 ,69.7799 ,1.54182 ,-0.08797 ,-0.86319 
384 ,69.9561 ,1.54354 ,-0.12219 ,-1.19898 
385 ,70.1321 ,1.54527 ,-0.11193 ,-1.09824 
386 ,70.3082 ,1.54704 ,-0.14273 ,-1.40045 
387 ,70.4838 ,1.54881 ,-0.15299 ,-1.50118 
388 ,70.6603 ,1.55059 ,-0.14957 ,-1.46760 
389 ,70.8365 ,1.55233 ,-0.16668 ,-1.63549 
390 ,71.0285 ,1.55425 ,-0.20433 ,-2.00485 
391 ,71.2045 ,1.55601 ,-0.20433 ,-2.00485 
392 ,71.3806 ,1.55772 ,-0.21117 ,-2.07201 
393 ,71.5567 ,1.55953 ,-0.20433 ,-2.00485 
394 ,71.7325 ,1.56129 ,-0.23513 ,-2.30706 
395 ,71.9089 ,1.56302 ,-0.25224 ,-2.47495 
396 ,72.0849 ,1.56480 ,-0.25908 ,-2.54211 
397 ,72.2771 ,1.56673 ,-0.24881 ,-2.44137 
398 ,72.4850 ,1.56867 ,-0.27277 ,-2.67642 
399 ,72.6612 ,1.57056 ,-0.29330 ,-2.87789 
400 ,72.8532 ,1.57254 ,-0.30015 ,-2.94505 
401 ,73.0294 ,1.57428 ,-0.30015 ,-2.94505 
402 ,73.2214 ,1.57614 ,-0.32752 ,-3.21367 
403 ,73.3975 ,1.57795 ,-0.32752 ,-3.21367 
404 ,73.5736 ,1.57968 ,-0.33437 ,-3.28083 
405 ,73.7656 ,1.58155 ,-0.36175 ,-3.54946 
406 ,73.9576 ,1.58350 ,-0.36175 ,-3.54946 
407 ,74.1335 ,1.58527 ,-0.37544 ,-3.68377 
408 ,74.3099 ,1.58706 ,-0.37544 ,-3.68377 
409 ,74.5020 ,1.58897 ,-0.40966 ,-4.01955 
410 ,74.6776 ,1.59073 ,-0.41650 ,-4.08671 
411 ,74.8380 ,1.59244 ,-0.39597 ,-3.88524 
412 ,75.0140 ,1.59406 ,-0.41650 ,-4.08671 
413 ,75.1901 ,1.59583 ,-0.44046 ,-4.32176 
414 ,75.3660 ,1.59761 ,-0.45757 ,-4.48965 
415 ,75.5423 ,1.59935 ,-0.47126 ,-4.62396 
416 ,75.7339 ,1.60126 ,-0.45757 ,-4.48965 
417 ,75.9104 ,1.60303 ,-0.48494 ,-4.75828 
418 ,76.0867 ,1.60481 ,-0.48837 ,-4.79185 
419 ,76.2626 ,1.60658 ,-0.50890 ,-4.99332 
420 ,76.4225 ,1.60825 ,-0.51574 ,-5.06048 
421 ,76.6146 ,1.61000 ,-0.51232 ,-5.02690 
422 ,76.7906 ,1.61185 ,-0.53285 ,-5.22837 
423 ,76.9828 ,1.61370 ,-0.54997 ,-5.39626 
424 ,77.1590 ,1.61553 ,-0.54654 ,-5.36268 
425 ,77.3350 ,1.61725 ,-0.53628 ,-5.26195 
426 ,77.5111 ,1.61905 ,-0.57050 ,-5.59773 
427 ,77.6872 ,1.62083 ,-0.58419 ,-5.73205 
428 ,77.8469 ,1.62252 ,-0.59788 ,-5.86636 
429 ,78.0233 ,1.62418 ,-0.60130 ,-5.89994 
430 ,78.2154 ,1.62609 ,-0.59788 ,-5.86636 
431 ,78.4074 ,1.62799 ,-0.62525 ,-6.13499 
432 ,78.5836 ,1.62978 ,-0.64579 ,-6.33646 
433 ,78.7755 ,1.63168 ,-0.63894 ,-6.26930 
434 ,78.9351 ,1.63337 ,-0.65263 ,-6.40361 
435 ,79.1116 ,1.63497 ,-0.65605 ,-6.43719 
436 ,79.2880 ,1.63679 ,-0.68001 ,-6.67224 
437 ,79.4638 ,1.63858 ,-0.69027 ,-6.77297 
438 ,79.6399 ,1.64035 ,-0.69370 ,-6.80655 
439 ,79.8158 ,1.64208 ,-0.69370 ,-6.80655 
440 ,79.9917 ,1.64383 ,-0.71081 ,-6.97444 
441 ,80.1681 ,1.64565 ,-0.72450 ,-7.10876 
442 ,80.3443 ,1.64734 ,-0.75530 ,-7.41096 
443 ,80.5202 ,1.64917 ,-0.74161 ,-7.27665 
444 ,80.7124 ,1.65103 ,-0.75187 ,-7.37738 
445 ,80.8883 ,1.65281 ,-0.76214 ,-7.47812 
446 ,81.0481 ,1.65447 ,-0.78267 ,-7.67959 
447 ,81.2245 ,1.65615 ,-0.78267 ,-7.67959 
448 ,81.4005 ,1.65794 ,-0.80321 ,-7.88106 
449 ,81.5767 ,1.65965 ,-0.79978 ,-7.84748 
450 ,81.7526 ,1.66144 ,-0.79978 ,-7.84748 
451 ,81.9448 ,1.66342 ,-0.84085 ,-8.25042 
452 ,82.1208 ,1.66508 ,-0.83743 ,-8.21684 
453 ,82.3130 ,1.66699 ,-0.84769 ,-8.31758 
454 ,82.5049 ,1.66889 ,-0.84427 ,-8.28400 
455 ,82.6812 ,1.67075 ,-0.87507 ,-8.58620 
456 ,82.8571 ,1.67244 ,-0.86138 ,-8.45189 
457 ,83.0333 ,1.67422 ,-0.87849 ,-8.61978 
458 ,83.2093 ,1.67600 ,-0.87849 ,-8.61978 
459 ,83.3853 ,1.67779 ,-0.92298 ,-9.05630 
460 ,83.5615 ,1.67948 ,-0.91614 ,-8.98914 
461 ,83.7376 ,1.68125 ,-0.91956 ,-9.02272 
462 ,83.9133 ,1.68313 ,-0.93667 ,-9.19061 
463 ,84.0894 ,1.68482 ,-0.94009 ,-9.22419 
