Data stamp = , 30-03-2022 18:55:03 413

Calibration Values: 
Slope = , 26.54 , g/V 
Offset Voltage at no contact = , -0.501760 , V 

No , Time , Stage Position ,   Mass , Force 
   ,  (s) ,      (mm)      ,   (g)  , (mN)  

1 ,0.0000 ,0.84946 ,5.38065 ,52.79493 
2 ,0.2025 ,0.84954 ,5.37381 ,52.72778 
3 ,0.4586 ,0.85015 ,5.40460 ,53.02998 
4 ,0.6506 ,0.85124 ,5.38749 ,52.86209 
5 ,0.8589 ,0.85280 ,5.37723 ,52.76135 
6 ,1.0510 ,0.85470 ,5.39434 ,52.92925 
7 ,1.2270 ,0.85645 ,5.39776 ,52.96282 
8 ,1.4189 ,0.85831 ,5.41487 ,53.13072 
9 ,1.5953 ,0.86019 ,5.38065 ,52.79493 
10 ,1.7710 ,0.86195 ,5.36012 ,52.59346 
11 ,1.9633 ,0.86382 ,5.31905 ,52.19052 
12 ,2.1392 ,0.86563 ,5.31221 ,52.12337 
13 ,2.3153 ,0.86736 ,5.30878 ,52.08979 
14 ,2.5076 ,0.86917 ,5.29167 ,51.92190 
15 ,2.6835 ,0.87106 ,5.26430 ,51.65327 
16 ,2.8594 ,0.87284 ,5.25403 ,51.55254 
17 ,3.0357 ,0.87456 ,5.24376 ,51.45180 
18 ,3.2117 ,0.87634 ,5.23007 ,51.31749 
19 ,3.4038 ,0.87822 ,5.19585 ,50.98170 
20 ,3.5799 ,0.88003 ,5.19927 ,51.01528 
21 ,3.7719 ,0.88192 ,5.17190 ,50.74666 
22 ,3.9316 ,0.88364 ,5.15821 ,50.61234 
23 ,4.1081 ,0.88528 ,5.14452 ,50.47803 
24 ,4.2843 ,0.88708 ,5.13083 ,50.34372 
25 ,4.4603 ,0.88883 ,5.11030 ,50.14225 
26 ,4.6366 ,0.89054 ,5.11714 ,50.20940 
27 ,4.8122 ,0.89236 ,5.08977 ,49.94078 
28 ,4.9721 ,0.89404 ,5.05897 ,49.63857 
29 ,5.1485 ,0.89565 ,5.05897 ,49.63857 
30 ,5.3407 ,0.89761 ,5.03159 ,49.36995 
31 ,5.5167 ,0.89934 ,5.02132 ,49.26921 
32 ,5.7087 ,0.90129 ,5.01106 ,49.16848 
33 ,5.8849 ,0.90304 ,4.98026 ,48.86627 
34 ,6.0446 ,0.90478 ,4.96999 ,48.76554 
35 ,6.2210 ,0.90640 ,4.94603 ,48.53049 
36 ,6.4451 ,0.90855 ,4.93235 ,48.39618 
37 ,6.6372 ,0.91056 ,4.93919 ,48.46333 
38 ,6.8453 ,0.91255 ,4.89128 ,47.99324 
39 ,7.0212 ,0.91440 ,4.87417 ,47.82534 
40 ,7.1976 ,0.91622 ,4.86390 ,47.72461 
41 ,7.4055 ,0.91823 ,4.82968 ,47.38883 
42 ,7.5977 ,0.92016 ,4.82626 ,47.35525 
43 ,7.7734 ,0.92193 ,4.80915 ,47.18736 
44 ,7.9497 ,0.92374 ,4.80230 ,47.12020 
45 ,8.1254 ,0.92543 ,4.76124 ,46.71726 
46 ,8.3019 ,0.92722 ,4.73728 ,46.48221 
47 ,8.5099 ,0.92926 ,4.73044 ,46.41506 
48 ,8.7020 ,0.93116 ,4.70306 ,46.14643 
49 ,8.8780 ,0.93300 ,4.69279 ,46.04569 
50 ,9.0540 ,0.93472 ,4.69279 ,46.04569 
51 ,9.2297 ,0.93649 ,4.66542 ,45.77707 
52 ,9.4061 ,0.93823 ,4.63119 ,45.44128 
53 ,9.5824 ,0.94008 ,4.62435 ,45.37413 
54 ,9.7585 ,0.94177 ,4.61408 ,45.27339 
55 ,9.9345 ,0.94353 ,4.61408 ,45.27339 
56 ,10.1105 ,0.94530 ,4.58328 ,44.97119 
57 ,10.2862 ,0.94702 ,4.54222 ,44.56825 
58 ,10.4627 ,0.94880 ,4.53880 ,44.53467 
59 ,10.6388 ,0.95055 ,4.54906 ,44.63541 
60 ,10.8149 ,0.95234 ,4.52169 ,44.36678 
61 ,10.9911 ,0.95407 ,4.49773 ,44.13173 
62 ,11.1670 ,0.95592 ,4.46693 ,43.82953 
63 ,11.3430 ,0.95760 ,4.45324 ,43.69521 
64 ,11.5190 ,0.95935 ,4.45666 ,43.72879 
65 ,11.6953 ,0.96114 ,4.44640 ,43.62806 
66 ,11.8714 ,0.96288 ,4.40533 ,43.22512 
67 ,12.0470 ,0.96468 ,4.38822 ,43.05723 
68 ,12.2235 ,0.96639 ,4.36427 ,42.82218 
69 ,12.3992 ,0.96821 ,4.35058 ,42.68786 
70 ,12.5752 ,0.96993 ,4.35058 ,42.68786 
71 ,12.7353 ,0.97165 ,4.31293 ,42.31850 
72 ,12.9114 ,0.97328 ,4.31293 ,42.31850 
73 ,13.1038 ,0.97522 ,4.28556 ,42.04988 
74 ,13.2958 ,0.97712 ,4.28898 ,42.08345 
75 ,13.4719 ,0.97891 ,4.25818 ,41.78125 
76 ,13.6480 ,0.98066 ,4.24107 ,41.61336 
77 ,13.8241 ,0.98245 ,4.21711 ,41.37831 
78 ,14.0000 ,0.98414 ,4.21027 ,41.31115 
79 ,14.1763 ,0.98596 ,4.18974 ,41.10968 
80 ,14.3844 ,0.98796 ,4.16578 ,40.87464 
81 ,14.5765 ,0.98994 ,4.15551 ,40.77390 
82 ,14.7523 ,0.99172 ,4.13498 ,40.57243 
83 ,14.9286 ,0.99347 ,4.10418 ,40.27023 
84 ,15.1207 ,0.99539 ,4.08707 ,40.10233 
85 ,15.2968 ,0.99717 ,4.08365 ,40.06876 
86 ,15.4885 ,0.99911 ,4.04943 ,39.73297 
87 ,15.6648 ,1.00080 ,4.03232 ,39.56508 
88 ,15.8570 ,1.00274 ,4.03232 ,39.56508 
89 ,16.0490 ,1.00469 ,4.00836 ,39.33003 
90 ,16.2251 ,1.00638 ,3.96045 ,38.85994 
91 ,16.4172 ,1.00828 ,3.98098 ,39.06141 
92 ,16.5931 ,1.01016 ,3.95361 ,38.79278 
93 ,16.7692 ,1.01185 ,3.92281 ,38.49058 
94 ,16.9613 ,1.01376 ,3.91596 ,38.42342 
95 ,17.1371 ,1.01555 ,3.90570 ,38.32268 
96 ,17.3135 ,1.01730 ,3.88858 ,38.15479 
97 ,17.5216 ,1.01937 ,3.87490 ,38.02048 
98 ,17.6977 ,1.02111 ,3.85779 ,37.85259 
99 ,17.8897 ,1.02304 ,3.83725 ,37.65112 
100 ,18.0659 ,1.02485 ,3.80645 ,37.34891 
101 ,18.2419 ,1.02663 ,3.78934 ,37.18102 
102 ,18.4181 ,1.02836 ,3.79276 ,37.21460 
103 ,18.6100 ,1.03026 ,3.75170 ,36.81166 
104 ,18.7863 ,1.03204 ,3.74143 ,36.71093 
105 ,18.9621 ,1.03377 ,3.72090 ,36.50946 
106 ,19.1383 ,1.03555 ,3.71748 ,36.47588 
107 ,19.3141 ,1.03731 ,3.70721 ,36.37514 
108 ,19.5064 ,1.03918 ,3.66272 ,35.93863 
109 ,19.6982 ,1.04102 ,3.65930 ,35.90505 
110 ,19.8747 ,1.04288 ,3.65246 ,35.83789 
111 ,20.0988 ,1.04498 ,3.63192 ,35.63642 
112 ,20.2747 ,1.04690 ,3.62166 ,35.53569 
113 ,20.4667 ,1.04880 ,3.57717 ,35.09917 
114 ,20.6428 ,1.05058 ,3.58401 ,35.16632 
115 ,20.8029 ,1.05227 ,3.58059 ,35.13275 
116 ,20.9788 ,1.05389 ,3.56006 ,34.93128 
117 ,21.1549 ,1.05572 ,3.53268 ,34.66265 
118 ,21.3311 ,1.05746 ,3.51899 ,34.52834 
119 ,21.5232 ,1.05935 ,3.50530 ,34.39402 
120 ,21.6993 ,1.06114 ,3.49846 ,34.32687 
121 ,21.8914 ,1.06302 ,3.46424 ,33.99108 
122 ,22.0833 ,1.06499 ,3.45739 ,33.92393 
123 ,22.2595 ,1.06673 ,3.44028 ,33.75604 
124 ,22.4356 ,1.06853 ,3.43686 ,33.72246 
125 ,22.6117 ,1.07025 ,3.40948 ,33.45383 
126 ,22.7877 ,1.07213 ,3.38210 ,33.18520 
127 ,22.9475 ,1.07372 ,3.38210 ,33.18520 
128 ,23.1236 ,1.07538 ,3.36157 ,32.98374 
129 ,23.2995 ,1.07722 ,3.35473 ,32.91658 
130 ,23.4754 ,1.07891 ,3.33077 ,32.68153 
131 ,23.6517 ,1.08063 ,3.31366 ,32.51364 
132 ,23.8441 ,1.08261 ,3.29655 ,32.34575 
133 ,24.0362 ,1.08442 ,3.28628 ,32.24501 
134 ,24.2442 ,1.08654 ,3.26575 ,32.04354 
135 ,24.4203 ,1.08834 ,3.25891 ,31.97639 
136 ,24.5966 ,1.09006 ,3.24522 ,31.84207 
137 ,24.7725 ,1.09188 ,3.21784 ,31.57345 
138 ,24.9484 ,1.09366 ,3.19731 ,31.37198 
139 ,25.1247 ,1.09541 ,3.16993 ,31.10335 
140 ,25.3164 ,1.09732 ,3.18020 ,31.20409 
141 ,25.5088 ,1.09910 ,3.15966 ,31.00262 
142 ,25.7008 ,1.10111 ,3.14255 ,30.83472 
143 ,25.8768 ,1.10289 ,3.12886 ,30.70041 
144 ,26.0531 ,1.10464 ,3.11175 ,30.53252 
145 ,26.2451 ,1.10656 ,3.09122 ,30.33105 
146 ,26.4210 ,1.10840 ,3.08438 ,30.26389 
147 ,26.6133 ,1.11029 ,3.06384 ,30.06242 
148 ,26.7892 ,1.11207 ,3.04331 ,29.86095 
149 ,26.9812 ,1.11394 ,3.03304 ,29.76022 
150 ,27.1413 ,1.11566 ,3.02962 ,29.72664 
151 ,27.3173 ,1.11732 ,3.01935 ,29.62590 
152 ,27.4934 ,1.11904 ,2.98513 ,29.29012 
153 ,27.6696 ,1.12080 ,2.95433 ,28.98792 
154 ,27.8456 ,1.12252 ,2.95091 ,28.95434 
155 ,28.0216 ,1.12431 ,2.95776 ,29.02150 
156 ,28.1981 ,1.12611 ,2.94749 ,28.92076 
157 ,28.4059 ,1.12809 ,2.91669 ,28.61856 
158 ,28.5981 ,1.13012 ,2.91669 ,28.61856 
159 ,28.7740 ,1.13191 ,2.89273 ,28.38351 
160 ,28.9502 ,1.13361 ,2.86193 ,28.08130 
161 ,29.1419 ,1.13549 ,2.85509 ,28.01415 
162 ,29.3182 ,1.13732 ,2.84825 ,27.94699 
163 ,29.5103 ,1.13924 ,2.80718 ,27.54405 
164 ,29.6864 ,1.14102 ,2.80034 ,27.47689 
165 ,29.8622 ,1.14269 ,2.80718 ,27.54405 
166 ,30.0386 ,1.14450 ,2.78665 ,27.34258 
167 ,30.2303 ,1.14641 ,2.76611 ,27.14111 
168 ,30.4067 ,1.14819 ,2.74558 ,26.93964 
169 ,30.5988 ,1.15010 ,2.73531 ,26.83891 
170 ,30.7748 ,1.15186 ,2.71820 ,26.67101 
171 ,30.9508 ,1.15363 ,2.69767 ,26.46954 
172 ,31.1270 ,1.15535 ,2.69083 ,26.40239 
173 ,31.3190 ,1.15730 ,2.68740 ,26.36881 
174 ,31.4952 ,1.15905 ,2.66003 ,26.10018 
175 ,31.6713 ,1.16083 ,2.64976 ,25.99945 
176 ,31.8472 ,1.16260 ,2.62923 ,25.79798 
177 ,32.0394 ,1.16454 ,2.62923 ,25.79798 
178 ,32.2314 ,1.16639 ,2.60185 ,25.52935 
179 ,32.4075 ,1.16817 ,2.60185 ,25.52935 
180 ,32.5997 ,1.17005 ,2.57789 ,25.29430 
181 ,32.7757 ,1.17189 ,2.57789 ,25.29430 
182 ,32.9516 ,1.17364 ,2.54367 ,24.95852 
183 ,33.1278 ,1.17537 ,2.54367 ,24.95852 
184 ,33.3038 ,1.17715 ,2.54025 ,24.92494 
185 ,33.4800 ,1.17887 ,2.52314 ,24.75705 
186 ,33.6717 ,1.18082 ,2.48892 ,24.42127 
187 ,33.8482 ,1.18259 ,2.48207 ,24.35411 
188 ,34.0242 ,1.18438 ,2.46154 ,24.15264 
189 ,34.2000 ,1.18614 ,2.47181 ,24.25338 
190 ,34.3924 ,1.18804 ,2.42732 ,23.81686 
191 ,34.5685 ,1.18977 ,2.41705 ,23.71612 
192 ,34.7604 ,1.19164 ,2.41363 ,23.68255 
193 ,34.9365 ,1.19348 ,2.39994 ,23.54823 
194 ,35.1127 ,1.19520 ,2.38625 ,23.41392 
195 ,35.2884 ,1.19700 ,2.36230 ,23.17887 
196 ,35.4645 ,1.19877 ,2.35888 ,23.14529 
197 ,35.6407 ,1.20047 ,2.34861 ,23.04456 
198 ,35.8170 ,1.20225 ,2.33834 ,22.94382 
199 ,36.0250 ,1.20425 ,2.32123 ,22.77593 
200 ,36.2172 ,1.20622 ,2.29043 ,22.47373 
201 ,36.3932 ,1.20807 ,2.27674 ,22.33941 
202 ,36.5690 ,1.20984 ,2.28359 ,22.40657 
203 ,36.7453 ,1.21154 ,2.25621 ,22.13794 
204 ,36.9214 ,1.21331 ,2.24252 ,22.00363 
205 ,37.1135 ,1.21522 ,2.21857 ,21.76858 
206 ,37.3055 ,1.21716 ,2.22199 ,21.80216 
207 ,37.4978 ,1.21910 ,2.19803 ,21.56711 
208 ,37.6896 ,1.22095 ,2.17750 ,21.36564 
209 ,37.8658 ,1.22274 ,2.17408 ,21.33206 
210 ,38.0413 ,1.22454 ,2.16381 ,21.23133 
211 ,38.2178 ,1.22624 ,2.13644 ,20.96270 
212 ,38.3938 ,1.22806 ,2.12617 ,20.86197 
213 ,38.5861 ,1.22997 ,2.11590 ,20.76123 
214 ,38.7781 ,1.23180 ,2.09537 ,20.55976 
215 ,38.9542 ,1.23368 ,2.08168 ,20.42545 
216 ,39.1300 ,1.23540 ,2.06115 ,20.22398 
217 ,39.3061 ,1.23713 ,2.07141 ,20.32472 
218 ,39.4983 ,1.23907 ,2.03377 ,19.95535 
219 ,39.6741 ,1.24088 ,2.02350 ,19.85462 
220 ,39.8501 ,1.24257 ,2.00982 ,19.72031 
221 ,40.0262 ,1.24429 ,2.00297 ,19.65315 
222 ,40.2024 ,1.24609 ,1.99613 ,19.58599 
223 ,40.3947 ,1.24803 ,1.96533 ,19.28379 
224 ,40.5708 ,1.24977 ,1.95506 ,19.18305 
225 ,40.7465 ,1.25157 ,1.94479 ,19.08232 
226 ,40.9390 ,1.25337 ,1.93795 ,19.01516 
227 ,41.1310 ,1.25539 ,1.90373 ,18.67938 
228 ,41.3230 ,1.25727 ,1.92084 ,18.84727 
229 ,41.5152 ,1.25915 ,1.87293 ,18.37717 
230 ,41.7073 ,1.26118 ,1.87293 ,18.37717 
231 ,41.8833 ,1.26287 ,1.84555 ,18.10855 
232 ,42.0595 ,1.26469 ,1.84555 ,18.10855 
233 ,42.2353 ,1.26646 ,1.82502 ,17.90708 
234 ,42.4116 ,1.26813 ,1.80106 ,17.67203 
235 ,42.6035 ,1.27010 ,1.80449 ,17.70561 
236 ,42.7959 ,1.27202 ,1.77369 ,17.40340 
237 ,42.9718 ,1.27382 ,1.76342 ,17.30267 
238 ,43.1638 ,1.27570 ,1.75657 ,17.23551 
239 ,43.3399 ,1.27746 ,1.74289 ,17.10120 
240 ,43.5160 ,1.27919 ,1.71893 ,16.86615 
241 ,43.6922 ,1.28100 ,1.71209 ,16.79899 
242 ,43.8840 ,1.28288 ,1.69498 ,16.63110 
243 ,44.0603 ,1.28470 ,1.69155 ,16.59752 
244 ,44.2523 ,1.28657 ,1.66075 ,16.29532 
245 ,44.4283 ,1.28841 ,1.66760 ,16.36248 
246 ,44.6044 ,1.29005 ,1.64707 ,16.16101 
247 ,44.7805 ,1.29186 ,1.62311 ,15.92596 
248 ,44.9565 ,1.29358 ,1.60942 ,15.79164 
249 ,45.1327 ,1.29540 ,1.59916 ,15.69091 
250 ,45.3086 ,1.29715 ,1.58547 ,15.55660 
251 ,45.5008 ,1.29903 ,1.57520 ,15.45586 
252 ,45.6766 ,1.30082 ,1.55809 ,15.28797 
253 ,45.8689 ,1.30273 ,1.54098 ,15.12008 
254 ,46.0446 ,1.30447 ,1.53756 ,15.08650 
255 ,46.2212 ,1.30626 ,1.51702 ,14.88503 
256 ,46.3967 ,1.30808 ,1.49991 ,14.71714 
257 ,46.5893 ,1.30986 ,1.47596 ,14.48209 
258 ,46.7973 ,1.31196 ,1.46227 ,14.34778 
259 ,46.9896 ,1.31397 ,1.44516 ,14.17989 
260 ,47.1654 ,1.31569 ,1.45200 ,14.24704 
261 ,47.3575 ,1.31754 ,1.42120 ,13.94484 
262 ,47.5337 ,1.31937 ,1.41094 ,13.84410 
263 ,47.7256 ,1.32130 ,1.41436 ,13.87768 
264 ,47.9018 ,1.32310 ,1.39383 ,13.67621 
265 ,48.0777 ,1.32483 ,1.36987 ,13.44116 
266 ,48.2699 ,1.32670 ,1.36645 ,13.40759 
267 ,48.4460 ,1.32847 ,1.35618 ,13.30685 
268 ,48.6220 ,1.33031 ,1.34591 ,13.20612 
269 ,48.7981 ,1.33203 ,1.32880 ,13.03822 
270 ,48.9902 ,1.33385 ,1.29800 ,12.73602 
271 ,49.1662 ,1.33573 ,1.29458 ,12.70244 
272 ,49.3584 ,1.33757 ,1.27405 ,12.50097 
273 ,49.5345 ,1.33942 ,1.25694 ,12.33308 
274 ,49.7269 ,1.34132 ,1.26036 ,12.36666 
275 ,49.9024 ,1.34306 ,1.25009 ,12.26592 
276 ,50.0946 ,1.34495 ,1.22272 ,11.99730 
277 ,50.2708 ,1.34669 ,1.20903 ,11.86298 
278 ,50.4309 ,1.34844 ,1.20903 ,11.86298 
279 ,50.6069 ,1.35006 ,1.19876 ,11.76225 
280 ,50.7831 ,1.35187 ,1.18165 ,11.59436 
281 ,50.9591 ,1.35368 ,1.15770 ,11.35931 
282 ,51.1353 ,1.35540 ,1.14058 ,11.19142 
283 ,51.2948 ,1.35710 ,1.13716 ,11.15784 
284 ,51.4712 ,1.35873 ,1.11663 ,10.95637 
285 ,51.6634 ,1.36072 ,1.11663 ,10.95637 
286 ,51.8394 ,1.36242 ,1.10636 ,10.85563 
287 ,52.0155 ,1.36420 ,1.07899 ,10.58701 
288 ,52.2075 ,1.36608 ,1.07214 ,10.51985 
289 ,52.3996 ,1.36800 ,1.05161 ,10.31838 
290 ,52.5755 ,1.36975 ,1.03108 ,10.11691 
291 ,52.7517 ,1.37155 ,1.03450 ,10.15049 
292 ,52.9277 ,1.37327 ,1.03450 ,10.15049 
293 ,53.1039 ,1.37503 ,1.01054 ,9.91544 
294 ,53.2799 ,1.37684 ,0.99343 ,9.74755 
295 ,53.4560 ,1.37857 ,0.96948 ,9.51250 
296 ,53.6322 ,1.38032 ,0.95921 ,9.41177 
297 ,53.8079 ,1.38211 ,0.96605 ,9.47892 
298 ,53.9843 ,1.38386 ,0.94210 ,9.24388 
299 ,54.1762 ,1.38579 ,0.92157 ,9.04241 
300 ,54.3524 ,1.38752 ,0.92157 ,9.04241 
301 ,54.5284 ,1.38927 ,0.91472 ,8.97525 
302 ,54.7045 ,1.39108 ,0.90788 ,8.90809 
303 ,54.8807 ,1.39280 ,0.87708 ,8.60589 
304 ,55.0727 ,1.39474 ,0.87366 ,8.57231 
305 ,55.2487 ,1.39650 ,0.86339 ,8.47158 
306 ,55.4248 ,1.39828 ,0.84628 ,8.30368 
307 ,55.6008 ,1.40000 ,0.82575 ,8.10221 
308 ,55.7929 ,1.40196 ,0.81890 ,8.03506 
309 ,55.9851 ,1.40380 ,0.81890 ,8.03506 
310 ,56.1609 ,1.40562 ,0.79152 ,7.76643 
311 ,56.3372 ,1.40737 ,0.77784 ,7.63212 
312 ,56.5289 ,1.40934 ,0.76072 ,7.46423 
313 ,56.7050 ,1.41105 ,0.75730 ,7.43065 
314 ,56.8813 ,1.41278 ,0.73677 ,7.22918 
315 ,57.0575 ,1.41459 ,0.72308 ,7.09486 
316 ,57.2335 ,1.41631 ,0.71281 ,6.99413 
317 ,57.4412 ,1.41839 ,0.71281 ,6.99413 
318 ,57.6173 ,1.42016 ,0.67859 ,6.65835 
319 ,57.7938 ,1.42193 ,0.66833 ,6.55761 
320 ,57.9698 ,1.42374 ,0.67175 ,6.59119 
321 ,58.1619 ,1.42558 ,0.65464 ,6.42330 
322 ,58.3381 ,1.42738 ,0.62726 ,6.15467 
323 ,58.5141 ,1.42915 ,0.63753 ,6.25541 
324 ,58.7059 ,1.43104 ,0.62726 ,6.15467 
325 ,58.8823 ,1.43278 ,0.58619 ,5.75173 
326 ,59.0743 ,1.43469 ,0.59304 ,5.81889 
327 ,59.2504 ,1.43648 ,0.59304 ,5.81889 
328 ,59.4581 ,1.43848 ,0.55882 ,5.48311 
329 ,59.6347 ,1.44037 ,0.55539 ,5.44953 
330 ,59.8105 ,1.44208 ,0.54513 ,5.34879 
331 ,59.9866 ,1.44387 ,0.54171 ,5.31522 
332 ,60.1628 ,1.44565 ,0.50748 ,4.97943 
333 ,60.3388 ,1.44734 ,0.50064 ,4.91228 
334 ,60.5150 ,1.44915 ,0.49380 ,4.84512 
335 ,60.6907 ,1.45089 ,0.49380 ,4.84512 
336 ,60.8511 ,1.45260 ,0.47668 ,4.67723 
337 ,61.0429 ,1.45438 ,0.44931 ,4.40860 
338 ,61.2193 ,1.45617 ,0.44931 ,4.40860 
339 ,61.3955 ,1.45792 ,0.44931 ,4.40860 
340 ,61.5715 ,1.45971 ,0.43220 ,4.24071 
341 ,61.7635 ,1.46162 ,0.40824 ,4.00566 
342 ,61.9396 ,1.46339 ,0.39455 ,3.87135 
343 ,62.1315 ,1.46530 ,0.41166 ,4.03924 
344 ,62.3073 ,1.46704 ,0.39113 ,3.83777 
345 ,62.4837 ,1.46879 ,0.35691 ,3.50199 
346 ,62.6597 ,1.47056 ,0.35691 ,3.50199 
347 ,62.8359 ,1.47235 ,0.36375 ,3.56914 
348 ,63.0118 ,1.47413 ,0.34322 ,3.36767 
349 ,63.2038 ,1.47604 ,0.31242 ,3.06547 
350 ,63.3800 ,1.47789 ,0.32611 ,3.19978 
351 ,63.5561 ,1.47952 ,0.31584 ,3.09905 
352 ,63.7481 ,1.48145 ,0.29873 ,2.93116 
353 ,63.9400 ,1.48327 ,0.27478 ,2.69611 
354 ,64.1162 ,1.48513 ,0.27478 ,2.69611 
355 ,64.2924 ,1.48690 ,0.26793 ,2.62895 
356 ,64.4685 ,1.48862 ,0.24740 ,2.42748 
357 ,64.6606 ,1.49048 ,0.24740 ,2.42748 
358 ,64.8526 ,1.49251 ,0.24055 ,2.36032 
359 ,65.0122 ,1.49418 ,0.22687 ,2.22601 
360 ,65.1889 ,1.49589 ,0.21660 ,2.12528 
361 ,65.3805 ,1.49778 ,0.19264 ,1.89023 
362 ,65.5568 ,1.49955 ,0.19949 ,1.95738 
363 ,65.7489 ,1.50147 ,0.16869 ,1.65518 
364 ,65.9410 ,1.50335 ,0.16527 ,1.62160 
365 ,66.1170 ,1.50512 ,0.15500 ,1.52087 
366 ,66.2934 ,1.50694 ,0.15158 ,1.48729 
367 ,66.4853 ,1.50883 ,0.12762 ,1.25224 
368 ,66.6935 ,1.51086 ,0.11736 ,1.15151 
369 ,66.8693 ,1.51267 ,0.12420 ,1.21866 
370 ,67.0616 ,1.51456 ,0.08656 ,0.84930 
371 ,67.2373 ,1.51632 ,0.07971 ,0.78214 
372 ,67.4296 ,1.51823 ,0.07287 ,0.71499 
373 ,67.5894 ,1.51994 ,0.04891 ,0.47994 
374 ,67.7658 ,1.52157 ,0.05234 ,0.51352 
375 ,67.9738 ,1.52360 ,0.05234 ,0.51352 
376 ,68.1498 ,1.52546 ,0.03522 ,0.34563 
377 ,68.3261 ,1.52727 ,0.00443 ,0.04342 
378 ,68.5180 ,1.52912 ,0.01811 ,0.17773 
379 ,68.6943 ,1.53087 ,0.00100 ,0.00984 
380 ,68.8701 ,1.53271 ,-0.00584 ,-0.05731 
381 ,69.0464 ,1.53449 ,-0.02980 ,-0.29236 
382 ,69.2381 ,1.53642 ,-0.02295 ,-0.22520 
383 ,69.4144 ,1.53807 ,-0.04348 ,-0.42667 
384 ,69.6065 ,1.54000 ,-0.07428 ,-0.72888 
385 ,69.7988 ,1.54202 ,-0.06744 ,-0.66172 
386 ,69.9746 ,1.54370 ,-0.07086 ,-0.69530 
387 ,70.1507 ,1.54548 ,-0.09824 ,-0.96393 
388 ,70.3106 ,1.54717 ,-0.11535 ,-1.13182 
389 ,70.4867 ,1.54880 ,-0.11877 ,-1.16540 
390 ,70.6629 ,1.55059 ,-0.12219 ,-1.19898 
391 ,70.8390 ,1.55230 ,-0.11877 ,-1.16540 
392 ,71.0151 ,1.55408 ,-0.13588 ,-1.33329 
393 ,71.2074 ,1.55600 ,-0.16326 ,-1.60191 
394 ,71.3833 ,1.55779 ,-0.17011 ,-1.66907 
395 ,71.5753 ,1.55964 ,-0.17353 ,-1.70265 
396 ,71.7514 ,1.56145 ,-0.18722 ,-1.83696 
397 ,71.9274 ,1.56319 ,-0.20775 ,-2.03843 
398 ,72.1037 ,1.56498 ,-0.20433 ,-2.00485 
399 ,72.2795 ,1.56677 ,-0.22486 ,-2.20632 
400 ,72.4558 ,1.56849 ,-0.22486 ,-2.20632 
401 ,72.6638 ,1.57055 ,-0.24881 ,-2.44137 
402 ,72.8397 ,1.57235 ,-0.25566 ,-2.50853 
403 ,73.0159 ,1.57412 ,-0.26935 ,-2.64284 
404 ,73.1919 ,1.57582 ,-0.28304 ,-2.77716 
405 ,73.3679 ,1.57764 ,-0.30015 ,-2.94505 
406 ,73.5442 ,1.57939 ,-0.30357 ,-2.97863 
407 ,73.7363 ,1.58129 ,-0.30015 ,-2.94505 
408 ,73.9283 ,1.58324 ,-0.32068 ,-3.14652 
409 ,74.1203 ,1.58514 ,-0.31726 ,-3.11294 
410 ,74.2965 ,1.58688 ,-0.34464 ,-3.38156 
411 ,74.4721 ,1.58862 ,-0.35148 ,-3.44872 
412 ,74.6323 ,1.59037 ,-0.36859 ,-3.61661 
413 ,74.8244 ,1.59216 ,-0.37201 ,-3.65019 
414 ,75.0010 ,1.59394 ,-0.37201 ,-3.65019 
415 ,75.1766 ,1.59569 ,-0.38228 ,-3.75093 
416 ,75.3529 ,1.59745 ,-0.40623 ,-3.98597 
417 ,75.5125 ,1.59916 ,-0.41992 ,-4.12029 
418 ,75.6888 ,1.60080 ,-0.42677 ,-4.18744 
419 ,75.8651 ,1.60261 ,-0.43361 ,-4.25460 
420 ,76.0411 ,1.60438 ,-0.43019 ,-4.22102 
421 ,76.2171 ,1.60610 ,-0.44730 ,-4.38891 
422 ,76.3933 ,1.60787 ,-0.47126 ,-4.62396 
423 ,76.5691 ,1.60958 ,-0.47126 ,-4.62396 
424 ,76.7454 ,1.61139 ,-0.47468 ,-4.65754 
425 ,76.9213 ,1.61309 ,-0.49521 ,-4.85901 
426 ,77.1136 ,1.61509 ,-0.50890 ,-4.99332 
427 ,77.2896 ,1.61687 ,-0.52601 ,-5.16121 
428 ,77.4656 ,1.61862 ,-0.52259 ,-5.12764 
429 ,77.6417 ,1.62035 ,-0.52259 ,-5.12764 
430 ,77.8178 ,1.62211 ,-0.54654 ,-5.36268 
431 ,78.0098 ,1.62404 ,-0.56365 ,-5.53058 
432 ,78.1857 ,1.62577 ,-0.57392 ,-5.63131 
433 ,78.3619 ,1.62752 ,-0.56023 ,-5.49700 
434 ,78.5381 ,1.62929 ,-0.58761 ,-5.76562 
435 ,78.7140 ,1.63106 ,-0.61156 ,-6.00067 
436 ,78.9059 ,1.63299 ,-0.58761 ,-5.76562 
437 ,79.0822 ,1.63469 ,-0.60814 ,-5.96709 
438 ,79.2583 ,1.63653 ,-0.62183 ,-6.10141 
439 ,79.4345 ,1.63829 ,-0.64579 ,-6.33646 
440 ,79.6104 ,1.64003 ,-0.65263 ,-6.40361 
441 ,79.7863 ,1.64179 ,-0.63894 ,-6.26930 
442 ,79.9463 ,1.64351 ,-0.65605 ,-6.43719 
443 ,80.1223 ,1.64513 ,-0.66974 ,-6.57150 
444 ,80.2985 ,1.64688 ,-0.68343 ,-6.70582 
445 ,80.4746 ,1.64867 ,-0.69712 ,-6.84013 
446 ,80.6507 ,1.65045 ,-0.71423 ,-7.00802 
447 ,80.8432 ,1.65234 ,-0.71081 ,-6.97444 
448 ,81.0189 ,1.65422 ,-0.74503 ,-7.31023 
449 ,81.1951 ,1.65587 ,-0.75187 ,-7.37738 
450 ,81.3711 ,1.65762 ,-0.75530 ,-7.41096 
451 ,81.5791 ,1.65956 ,-0.76214 ,-7.47812 
452 ,81.7712 ,1.66161 ,-0.77583 ,-7.61243 
453 ,81.9631 ,1.66354 ,-0.76556 ,-7.51170 
454 ,82.1393 ,1.66529 ,-0.79294 ,-7.78032 
455 ,82.3152 ,1.66707 ,-0.81347 ,-7.98179 
456 ,82.4915 ,1.66883 ,-0.81347 ,-7.98179 
457 ,82.6836 ,1.67069 ,-0.81689 ,-8.01537 
458 ,82.8756 ,1.67263 ,-0.85454 ,-8.38473 
459 ,83.0520 ,1.67444 ,-0.84769 ,-8.31758 
460 ,83.2438 ,1.67635 ,-0.84769 ,-8.31758 
461 ,83.4201 ,1.67808 ,-0.86823 ,-8.51904 
462 ,83.5963 ,1.67982 ,-0.87507 ,-8.58620 
463 ,83.7878 ,1.68173 ,-0.88192 ,-8.65336 
