Data stamp = , 31-03-2022 13:07:56 144

Calibration Values: 
Slope = , 26.54 , g/V 
Offset Voltage at no contact = , -0.501760 , V 

No , Time , Stage Position ,   Mass , Force 
   ,  (s) ,      (mm)      ,   (g)  , (mN)  

1 ,0.0000 ,0.84938 ,5.30878 ,52.08979 
2 ,0.2354 ,0.84946 ,5.29510 ,51.95548 
3 ,0.5555 ,0.85043 ,5.29852 ,51.98905 
4 ,0.7638 ,0.85193 ,5.31905 ,52.19052 
5 ,0.9559 ,0.85372 ,5.32247 ,52.22410 
6 ,1.1479 ,0.85559 ,5.32247 ,52.22410 
7 ,1.3239 ,0.85731 ,5.32247 ,52.22410 
8 ,1.5002 ,0.85910 ,5.31905 ,52.19052 
9 ,1.6922 ,0.86108 ,5.31563 ,52.15694 
10 ,1.8841 ,0.86305 ,5.29167 ,51.92190 
11 ,2.0600 ,0.86477 ,5.28141 ,51.82116 
12 ,2.2363 ,0.86652 ,5.29852 ,51.98905 
13 ,2.4122 ,0.86824 ,5.29510 ,51.95548 
14 ,2.6040 ,0.87019 ,5.26430 ,51.65327 
15 ,2.7805 ,0.87192 ,5.26087 ,51.61969 
16 ,2.9885 ,0.87397 ,5.25745 ,51.58611 
17 ,3.1646 ,0.87573 ,5.23692 ,51.38464 
18 ,3.3408 ,0.87751 ,5.22323 ,51.25033 
19 ,3.5168 ,0.87933 ,5.21639 ,51.18317 
20 ,3.6926 ,0.88106 ,5.21296 ,51.14960 
21 ,3.8526 ,0.88274 ,5.18901 ,50.91455 
22 ,4.0127 ,0.88434 ,5.17190 ,50.74666 
23 ,4.2052 ,0.88614 ,5.13768 ,50.41087 
24 ,4.4132 ,0.88821 ,5.14110 ,50.44445 
25 ,4.6054 ,0.89013 ,5.11030 ,50.14225 
26 ,4.7813 ,0.89194 ,5.10688 ,50.10867 
27 ,4.9735 ,0.89382 ,5.10003 ,50.04151 
28 ,5.1493 ,0.89564 ,5.08292 ,49.87362 
29 ,5.3256 ,0.89736 ,5.06581 ,49.70573 
30 ,5.5021 ,0.89915 ,5.05212 ,49.57142 
31 ,5.6935 ,0.90106 ,5.04185 ,49.47068 
32 ,5.8697 ,0.90285 ,5.03843 ,49.43710 
33 ,6.0619 ,0.90468 ,5.00079 ,49.06774 
34 ,6.2380 ,0.90647 ,5.00079 ,49.06774 
35 ,6.4141 ,0.90825 ,4.98710 ,48.93343 
36 ,6.6061 ,0.91026 ,4.94946 ,48.56407 
37 ,6.7819 ,0.91191 ,4.92550 ,48.32902 
38 ,6.9583 ,0.91370 ,4.91866 ,48.26186 
39 ,7.1502 ,0.91559 ,4.90155 ,48.09397 
40 ,7.3265 ,0.91736 ,4.87417 ,47.82534 
41 ,7.5030 ,0.91921 ,4.85706 ,47.65745 
42 ,7.6947 ,0.92103 ,4.84679 ,47.55672 
43 ,7.8702 ,0.92288 ,4.81941 ,47.28809 
44 ,8.0468 ,0.92451 ,4.80573 ,47.15378 
45 ,8.2226 ,0.92641 ,4.78861 ,46.98589 
46 ,8.4149 ,0.92823 ,4.77835 ,46.88515 
47 ,8.5910 ,0.93002 ,4.75782 ,46.68368 
48 ,8.7830 ,0.93195 ,4.74070 ,46.51579 
49 ,8.9591 ,0.93368 ,4.70648 ,46.18001 
50 ,9.1353 ,0.93543 ,4.69622 ,46.07927 
51 ,9.3113 ,0.93725 ,4.69279 ,46.04569 
52 ,9.5039 ,0.93913 ,4.65857 ,45.70991 
53 ,9.6954 ,0.94106 ,4.64831 ,45.60918 
54 ,9.8874 ,0.94294 ,4.62435 ,45.37413 
55 ,10.0636 ,0.94473 ,4.61408 ,45.27339 
56 ,10.2396 ,0.94648 ,4.60040 ,45.13908 
57 ,10.4158 ,0.94827 ,4.57644 ,44.90403 
58 ,10.6075 ,0.95008 ,4.54906 ,44.63541 
59 ,10.8001 ,0.95197 ,4.54222 ,44.56825 
60 ,10.9919 ,0.95391 ,4.51826 ,44.33320 
61 ,11.1841 ,0.95584 ,4.49089 ,44.06457 
62 ,11.3761 ,0.95786 ,4.47035 ,43.86310 
63 ,11.5522 ,0.95960 ,4.44982 ,43.66163 
64 ,11.7119 ,0.96133 ,4.43271 ,43.49374 
65 ,11.8883 ,0.96295 ,4.41218 ,43.29227 
66 ,12.0641 ,0.96471 ,4.40191 ,43.19154 
67 ,12.2405 ,0.96652 ,4.39507 ,43.12438 
68 ,12.4325 ,0.96844 ,4.36084 ,42.78860 
69 ,12.6407 ,0.97048 ,4.36084 ,42.78860 
70 ,12.8166 ,0.97226 ,4.33004 ,42.48639 
71 ,13.0088 ,0.97411 ,4.30267 ,42.21777 
72 ,13.1849 ,0.97591 ,4.29582 ,42.15061 
73 ,13.3610 ,0.97768 ,4.28898 ,42.08345 
74 ,13.5850 ,0.97984 ,4.26160 ,41.81483 
75 ,13.7611 ,0.98169 ,4.24791 ,41.68051 
76 ,13.9532 ,0.98357 ,4.20000 ,41.21042 
77 ,14.1292 ,0.98541 ,4.19316 ,41.14326 
78 ,14.3053 ,0.98712 ,4.17947 ,41.00895 
79 ,14.4973 ,0.98901 ,4.16236 ,40.84106 
80 ,14.6895 ,0.99088 ,4.13498 ,40.57243 
81 ,14.8816 ,0.99287 ,4.12129 ,40.43812 
82 ,15.0897 ,0.99487 ,4.09391 ,40.16949 
83 ,15.2653 ,0.99676 ,4.10076 ,40.23665 
84 ,15.4418 ,0.99848 ,4.08023 ,40.03518 
85 ,15.6338 ,1.00048 ,4.05285 ,39.76655 
86 ,15.8100 ,1.00217 ,4.03574 ,39.59866 
87 ,16.0020 ,1.00402 ,4.02205 ,39.46435 
88 ,16.1781 ,1.00584 ,4.00836 ,39.33003 
89 ,16.3537 ,1.00775 ,3.97756 ,39.02783 
90 ,16.5302 ,1.00934 ,3.95018 ,38.75920 
91 ,16.7061 ,1.01118 ,3.95361 ,38.79278 
92 ,16.8824 ,1.01296 ,3.93650 ,38.62489 
93 ,17.0582 ,1.01468 ,3.91254 ,38.38984 
94 ,17.2346 ,1.01643 ,3.88858 ,38.15479 
95 ,17.4106 ,1.01818 ,3.86463 ,37.91975 
96 ,17.6027 ,1.01997 ,3.87147 ,37.98690 
97 ,17.7785 ,1.02186 ,3.84067 ,37.68470 
98 ,17.9549 ,1.02361 ,3.82356 ,37.51681 
99 ,18.1311 ,1.02535 ,3.82014 ,37.48323 
100 ,18.3229 ,1.02721 ,3.81672 ,37.44965 
101 ,18.4995 ,1.02903 ,3.77223 ,37.01313 
102 ,18.7072 ,1.03109 ,3.76881 ,36.97955 
103 ,18.8833 ,1.03290 ,3.76196 ,36.91240 
104 ,19.0593 ,1.03466 ,3.72432 ,36.54303 
105 ,19.2356 ,1.03647 ,3.70037 ,36.30799 
106 ,19.4274 ,1.03826 ,3.70037 ,36.30799 
107 ,19.6196 ,1.04026 ,3.67983 ,36.10652 
108 ,19.8113 ,1.04217 ,3.65588 ,35.87147 
109 ,19.9877 ,1.04390 ,3.65246 ,35.83789 
110 ,20.1637 ,1.04569 ,3.63534 ,35.67000 
111 ,20.3559 ,1.04763 ,3.59770 ,35.30064 
112 ,20.5315 ,1.04940 ,3.58743 ,35.19990 
113 ,20.7079 ,1.05113 ,3.59086 ,35.23348 
114 ,20.8996 ,1.05311 ,3.55663 ,34.89770 
115 ,21.0596 ,1.05479 ,3.53610 ,34.69623 
116 ,21.2198 ,1.05636 ,3.51899 ,34.52834 
117 ,21.4123 ,1.05811 ,3.52241 ,34.56192 
118 ,21.6199 ,1.06018 ,3.48477 ,34.19255 
119 ,21.7961 ,1.06203 ,3.46081 ,33.95751 
120 ,21.9726 ,1.06375 ,3.46424 ,33.99108 
121 ,22.1488 ,1.06556 ,3.45055 ,33.85677 
122 ,22.3247 ,1.06735 ,3.43344 ,33.68888 
123 ,22.5167 ,1.06920 ,3.39921 ,33.35310 
124 ,22.6927 ,1.07108 ,3.40606 ,33.42025 
125 ,22.8688 ,1.07270 ,3.39237 ,33.28594 
126 ,23.0609 ,1.07463 ,3.35130 ,32.88300 
127 ,23.2370 ,1.07643 ,3.34104 ,32.78227 
128 ,23.4451 ,1.07849 ,3.32393 ,32.61437 
129 ,23.6371 ,1.08043 ,3.31024 ,32.48006 
130 ,23.8132 ,1.08222 ,3.29655 ,32.34575 
131 ,24.0058 ,1.08412 ,3.27944 ,32.17786 
132 ,24.1813 ,1.08584 ,3.25206 ,31.90923 
133 ,24.3572 ,1.08761 ,3.23837 ,31.77492 
134 ,24.5336 ,1.08939 ,3.24522 ,31.84207 
135 ,24.7258 ,1.09126 ,3.20073 ,31.40555 
136 ,24.9177 ,1.09315 ,3.19731 ,31.37198 
137 ,25.1098 ,1.09515 ,3.19046 ,31.30482 
138 ,25.2859 ,1.09690 ,3.15966 ,31.00262 
139 ,25.4620 ,1.09871 ,3.14940 ,30.90188 
140 ,25.6541 ,1.10053 ,3.13229 ,30.73399 
141 ,25.8300 ,1.10234 ,3.12886 ,30.70041 
142 ,26.0219 ,1.10420 ,3.09464 ,30.36463 
143 ,26.2141 ,1.10617 ,3.08780 ,30.29747 
144 ,26.4064 ,1.10796 ,3.07753 ,30.19674 
145 ,26.5984 ,1.11006 ,3.03989 ,29.82737 
146 ,26.7579 ,1.11175 ,3.03304 ,29.76022 
147 ,26.9342 ,1.11334 ,3.02620 ,29.69306 
148 ,27.1104 ,1.11516 ,3.01593 ,29.59233 
149 ,27.2866 ,1.11693 ,2.99540 ,29.39086 
150 ,27.4785 ,1.11870 ,2.98171 ,29.25654 
151 ,27.6547 ,1.12057 ,2.95776 ,29.02150 
152 ,27.8306 ,1.12232 ,2.95091 ,28.95434 
153 ,28.0229 ,1.12424 ,2.92011 ,28.65213 
154 ,28.2148 ,1.12608 ,2.90985 ,28.55140 
155 ,28.4071 ,1.12808 ,2.87905 ,28.24919 
156 ,28.5831 ,1.12996 ,2.88247 ,28.28277 
157 ,28.7589 ,1.13165 ,2.86878 ,28.14846 
158 ,28.9353 ,1.13341 ,2.86193 ,28.08130 
159 ,29.1113 ,1.13526 ,2.84482 ,27.91341 
160 ,29.2873 ,1.13692 ,2.81745 ,27.64479 
161 ,29.4633 ,1.13861 ,2.79691 ,27.44332 
162 ,29.6396 ,1.14045 ,2.79007 ,27.37616 
163 ,29.8316 ,1.14230 ,2.77638 ,27.24185 
164 ,30.0237 ,1.14423 ,2.75585 ,27.04038 
165 ,30.1997 ,1.14600 ,2.74558 ,26.93964 
166 ,30.3759 ,1.14777 ,2.74558 ,26.93964 
167 ,30.5519 ,1.14953 ,2.72163 ,26.70459 
168 ,30.7281 ,1.15131 ,2.70109 ,26.50312 
169 ,30.9523 ,1.15339 ,2.67029 ,26.20092 
170 ,31.1279 ,1.15535 ,2.65660 ,26.06661 
171 ,31.3040 ,1.15705 ,2.64292 ,25.93229 
172 ,31.5124 ,1.15899 ,2.65318 ,26.03303 
173 ,31.7044 ,1.16113 ,2.60527 ,25.56293 
174 ,31.8806 ,1.16282 ,2.60869 ,25.59651 
175 ,32.0886 ,1.16484 ,2.58132 ,25.32788 
176 ,32.2487 ,1.16660 ,2.56421 ,25.15999 
177 ,32.4248 ,1.16827 ,2.55052 ,25.02568 
178 ,32.6007 ,1.17001 ,2.53341 ,24.85779 
179 ,32.7769 ,1.17176 ,2.54367 ,24.95852 
180 ,32.9366 ,1.17348 ,2.51287 ,24.65632 
181 ,33.1129 ,1.17517 ,2.50261 ,24.55558 
182 ,33.2891 ,1.17699 ,2.48207 ,24.35411 
183 ,33.4653 ,1.17868 ,2.47181 ,24.25338 
184 ,33.6572 ,1.18058 ,2.46496 ,24.18622 
185 ,33.8173 ,1.18228 ,2.44785 ,24.01833 
186 ,33.9935 ,1.18389 ,2.43759 ,23.91759 
187 ,34.1854 ,1.18591 ,2.40679 ,23.61539 
188 ,34.3615 ,1.18760 ,2.40336 ,23.58181 
189 ,34.5536 ,1.18948 ,2.39310 ,23.48108 
190 ,34.7458 ,1.19135 ,2.36230 ,23.17887 
191 ,34.9215 ,1.19321 ,2.35203 ,23.07814 
192 ,35.0980 ,1.19493 ,2.34519 ,23.01098 
193 ,35.2743 ,1.19677 ,2.33492 ,22.91024 
194 ,35.4661 ,1.19872 ,2.29728 ,22.54088 
195 ,35.6582 ,1.20057 ,2.29385 ,22.50731 
196 ,35.8341 ,1.20228 ,2.27332 ,22.30584 
197 ,36.0101 ,1.20412 ,2.25963 ,22.17152 
198 ,36.1864 ,1.20584 ,2.25279 ,22.10437 
199 ,36.3783 ,1.20783 ,2.23568 ,21.93647 
200 ,36.5705 ,1.20968 ,2.21857 ,21.76858 
201 ,36.7467 ,1.21152 ,2.18777 ,21.46638 
202 ,36.9227 ,1.21324 ,2.18435 ,21.43280 
203 ,37.0990 ,1.21500 ,2.17408 ,21.33206 
204 ,37.2910 ,1.21691 ,2.15012 ,21.09702 
205 ,37.4667 ,1.21866 ,2.13301 ,20.92912 
206 ,37.6591 ,1.22051 ,2.13301 ,20.92912 
207 ,37.8512 ,1.22253 ,2.10221 ,20.62692 
208 ,38.0271 ,1.22426 ,2.09195 ,20.52619 
209 ,38.2192 ,1.22618 ,2.08510 ,20.45903 
210 ,38.4274 ,1.22814 ,2.07141 ,20.32472 
211 ,38.6194 ,1.23010 ,2.06457 ,20.25756 
212 ,38.7952 ,1.23209 ,2.02008 ,19.82104 
213 ,38.9715 ,1.23368 ,2.00297 ,19.65315 
214 ,39.1478 ,1.23545 ,1.99955 ,19.61957 
215 ,39.3238 ,1.23723 ,1.99955 ,19.61957 
216 ,39.5003 ,1.23900 ,1.98244 ,19.45168 
217 ,39.6919 ,1.24086 ,1.94479 ,19.08232 
218 ,39.8678 ,1.24280 ,1.95164 ,19.14948 
219 ,40.0439 ,1.24448 ,1.93453 ,18.98158 
220 ,40.2361 ,1.24633 ,1.91057 ,18.74654 
221 ,40.4121 ,1.24811 ,1.89688 ,18.61222 
222 ,40.5882 ,1.24985 ,1.88319 ,18.47791 
223 ,40.7643 ,1.25160 ,1.87293 ,18.37717 
224 ,40.9725 ,1.25366 ,1.83871 ,18.04139 
225 ,41.1485 ,1.25548 ,1.83186 ,17.97423 
226 ,41.3242 ,1.25719 ,1.83528 ,18.00781 
227 ,41.5013 ,1.25898 ,1.82844 ,17.94066 
228 ,41.6765 ,1.26079 ,1.80106 ,17.67203 
229 ,41.8528 ,1.26261 ,1.77026 ,17.36983 
230 ,42.0289 ,1.26431 ,1.76684 ,17.33625 
231 ,42.2046 ,1.26614 ,1.75657 ,17.23551 
232 ,42.3810 ,1.26780 ,1.74289 ,17.10120 
233 ,42.5889 ,1.26976 ,1.71551 ,16.83257 
234 ,42.7649 ,1.27163 ,1.71209 ,16.79899 
235 ,42.9412 ,1.27341 ,1.70182 ,16.69826 
236 ,43.1332 ,1.27532 ,1.67102 ,16.39605 
237 ,43.3252 ,1.27723 ,1.68471 ,16.53037 
238 ,43.5021 ,1.27903 ,1.66760 ,16.36248 
239 ,43.6936 ,1.28093 ,1.61969 ,15.89238 
240 ,43.8536 ,1.28262 ,1.61627 ,15.85880 
241 ,44.0297 ,1.28424 ,1.60942 ,15.79164 
242 ,44.2059 ,1.28603 ,1.60600 ,15.75807 
243 ,44.3977 ,1.28794 ,1.57862 ,15.48944 
244 ,44.5739 ,1.28970 ,1.55467 ,15.25439 
245 ,44.7820 ,1.29173 ,1.55124 ,15.22081 
246 ,44.9580 ,1.29349 ,1.52729 ,14.98577 
247 ,45.1501 ,1.29540 ,1.52729 ,14.98577 
248 ,45.3262 ,1.29718 ,1.52045 ,14.91861 
249 ,45.5183 ,1.29905 ,1.51018 ,14.81787 
250 ,45.6946 ,1.30093 ,1.47253 ,14.44851 
251 ,45.8704 ,1.30266 ,1.45885 ,14.31420 
252 ,46.0623 ,1.30459 ,1.46227 ,14.34778 
253 ,46.2543 ,1.30657 ,1.45200 ,14.24704 
254 ,46.4143 ,1.30823 ,1.41436 ,13.87768 
255 ,46.5908 ,1.30991 ,1.42120 ,13.94484 
256 ,46.7828 ,1.31183 ,1.41436 ,13.87768 
257 ,46.9588 ,1.31352 ,1.37671 ,13.50832 
258 ,47.1349 ,1.31537 ,1.36987 ,13.44116 
259 ,47.3431 ,1.31727 ,1.36645 ,13.40759 
260 ,47.5190 ,1.31915 ,1.33907 ,13.13896 
261 ,47.6953 ,1.32091 ,1.32196 ,12.97107 
262 ,47.8712 ,1.32267 ,1.31169 ,12.87033 
263 ,48.0631 ,1.32450 ,1.31169 ,12.87033 
264 ,48.2392 ,1.32633 ,1.28089 ,12.56813 
265 ,48.4635 ,1.32840 ,1.26720 ,12.43381 
266 ,48.6395 ,1.33030 ,1.24667 ,12.23235 
267 ,48.8158 ,1.33213 ,1.23298 ,12.09803 
268 ,49.0078 ,1.33396 ,1.23298 ,12.09803 
269 ,49.1997 ,1.33591 ,1.19876 ,11.76225 
270 ,49.3758 ,1.33770 ,1.20218 ,11.79583 
271 ,49.5522 ,1.33951 ,1.18850 ,11.66151 
272 ,49.7280 ,1.34121 ,1.18850 ,11.66151 
273 ,49.9039 ,1.34295 ,1.16112 ,11.39289 
274 ,50.1282 ,1.34508 ,1.14401 ,11.22500 
275 ,50.3039 ,1.34700 ,1.13032 ,11.09068 
276 ,50.4802 ,1.34875 ,1.10636 ,10.85563 
277 ,50.6722 ,1.35057 ,1.10294 ,10.82206 
278 ,50.8485 ,1.35239 ,1.09952 ,10.78848 
279 ,51.0243 ,1.35417 ,1.09267 ,10.72132 
280 ,51.2006 ,1.35594 ,1.06187 ,10.41912 
281 ,51.3928 ,1.35790 ,1.05503 ,10.35196 
282 ,51.5844 ,1.35980 ,1.04134 ,10.21765 
283 ,51.7608 ,1.36153 ,1.02423 ,10.04976 
284 ,51.9530 ,1.36343 ,1.01396 ,9.94902 
285 ,52.1290 ,1.36529 ,1.01396 ,9.94902 
286 ,52.3208 ,1.36704 ,0.97632 ,9.57966 
287 ,52.4971 ,1.36891 ,0.96263 ,9.44535 
288 ,52.7052 ,1.37093 ,0.95237 ,9.34461 
289 ,52.8652 ,1.37268 ,0.92841 ,9.10956 
290 ,53.0413 ,1.37433 ,0.92499 ,9.07598 
291 ,53.2174 ,1.37611 ,0.91130 ,8.94167 
292 ,53.3932 ,1.37787 ,0.91814 ,9.00883 
293 ,53.5694 ,1.37961 ,0.90103 ,8.84094 
294 ,53.7455 ,1.38138 ,0.87708 ,8.60589 
295 ,53.9218 ,1.38310 ,0.86339 ,8.47158 
296 ,54.0977 ,1.38493 ,0.85997 ,8.43800 
297 ,54.2899 ,1.38681 ,0.85312 ,8.37084 
298 ,54.4820 ,1.38872 ,0.82575 ,8.10221 
299 ,54.6579 ,1.39049 ,0.81548 ,8.00148 
300 ,54.8341 ,1.39223 ,0.81548 ,8.00148 
301 ,55.0101 ,1.39414 ,0.80179 ,7.86717 
302 ,55.2023 ,1.39581 ,0.77441 ,7.59854 
303 ,55.3944 ,1.39787 ,0.77441 ,7.59854 
304 ,55.5703 ,1.39963 ,0.77784 ,7.63212 
305 ,55.7464 ,1.40135 ,0.74361 ,7.29633 
306 ,55.9226 ,1.40316 ,0.72992 ,7.16202 
307 ,56.1306 ,1.40517 ,0.71281 ,6.99413 
308 ,56.3069 ,1.40698 ,0.69913 ,6.85982 
309 ,56.4993 ,1.40887 ,0.70597 ,6.92697 
310 ,56.6748 ,1.41068 ,0.68544 ,6.72550 
311 ,56.8508 ,1.41244 ,0.67859 ,6.65835 
312 ,57.0270 ,1.41421 ,0.66148 ,6.49046 
313 ,57.2189 ,1.41613 ,0.64437 ,6.32256 
314 ,57.3950 ,1.41790 ,0.65806 ,6.45688 
315 ,57.5712 ,1.41960 ,0.63410 ,6.22183 
316 ,57.7630 ,1.42150 ,0.61357 ,6.02036 
317 ,57.9394 ,1.42333 ,0.60673 ,5.95320 
318 ,58.1314 ,1.42521 ,0.59646 ,5.85247 
319 ,58.3073 ,1.42696 ,0.57935 ,5.68458 
320 ,58.4835 ,1.42874 ,0.55197 ,5.41595 
321 ,58.6594 ,1.43047 ,0.56224 ,5.51668 
322 ,58.8358 ,1.43228 ,0.56566 ,5.55026 
323 ,59.0277 ,1.43419 ,0.52459 ,5.14732 
324 ,59.2198 ,1.43604 ,0.53486 ,5.24806 
325 ,59.3960 ,1.43786 ,0.51433 ,5.04659 
326 ,59.5878 ,1.43976 ,0.48011 ,4.71081 
327 ,59.7637 ,1.44154 ,0.48353 ,4.74438 
328 ,59.9400 ,1.44330 ,0.48011 ,4.71081 
329 ,60.1642 ,1.44539 ,0.44931 ,4.40860 
330 ,60.3403 ,1.44725 ,0.44588 ,4.37502 
331 ,60.5485 ,1.44935 ,0.43562 ,4.27429 
332 ,60.7244 ,1.45116 ,0.41509 ,4.07282 
333 ,60.9004 ,1.45289 ,0.41166 ,4.03924 
334 ,61.0765 ,1.45467 ,0.41509 ,4.07282 
335 ,61.2527 ,1.45639 ,0.39455 ,3.87135 
336 ,61.4287 ,1.45818 ,0.37402 ,3.66988 
337 ,61.6050 ,1.45995 ,0.36375 ,3.56914 
338 ,61.7809 ,1.46175 ,0.36033 ,3.53557 
339 ,61.9729 ,1.46359 ,0.34664 ,3.40125 
340 ,62.1651 ,1.46559 ,0.31584 ,3.09905 
341 ,62.3411 ,1.46729 ,0.30900 ,3.03189 
342 ,62.5172 ,1.46907 ,0.31926 ,3.13263 
343 ,62.6931 ,1.47088 ,0.29873 ,2.93116 
344 ,62.8693 ,1.47260 ,0.27820 ,2.72969 
345 ,63.0614 ,1.47448 ,0.26793 ,2.62895 
346 ,63.2696 ,1.47659 ,0.25424 ,2.49464 
347 ,63.4616 ,1.47843 ,0.23713 ,2.32675 
348 ,63.6377 ,1.48029 ,0.23713 ,2.32675 
349 ,63.8134 ,1.48204 ,0.23371 ,2.29317 
350 ,63.9895 ,1.48376 ,0.20291 ,1.99096 
351 ,64.1658 ,1.48557 ,0.19264 ,1.89023 
352 ,64.3579 ,1.48739 ,0.19607 ,1.92381 
353 ,64.5339 ,1.48921 ,0.17896 ,1.75592 
354 ,64.7102 ,1.49096 ,0.15500 ,1.52087 
355 ,64.9182 ,1.49300 ,0.15500 ,1.52087 
356 ,65.0943 ,1.49484 ,0.14131 ,1.38655 
357 ,65.2704 ,1.49657 ,0.11051 ,1.08435 
358 ,65.4624 ,1.49848 ,0.12078 ,1.18508 
359 ,65.6385 ,1.50023 ,0.11393 ,1.11793 
360 ,65.8305 ,1.50223 ,0.08314 ,0.81572 
361 ,66.0227 ,1.50410 ,0.08314 ,0.81572 
362 ,66.1988 ,1.50586 ,0.07287 ,0.71499 
363 ,66.3908 ,1.50777 ,0.04207 ,0.41278 
364 ,66.5667 ,1.50952 ,0.03865 ,0.37920 
365 ,66.7430 ,1.51127 ,0.04207 ,0.41278 
366 ,66.9193 ,1.51307 ,0.02838 ,0.27847 
367 ,67.0947 ,1.51485 ,0.01469 ,0.14416 
368 ,67.2710 ,1.51659 ,0.00100 ,0.00984 
369 ,67.4632 ,1.51853 ,-0.00242 ,-0.02373 
370 ,67.6711 ,1.52054 ,-0.03322 ,-0.32594 
371 ,67.8473 ,1.52236 ,-0.04348 ,-0.42667 
372 ,68.0233 ,1.52411 ,-0.04348 ,-0.42667 
373 ,68.2152 ,1.52600 ,-0.05717 ,-0.56099 
374 ,68.3916 ,1.52777 ,-0.07086 ,-0.69530 
375 ,68.5837 ,1.52975 ,-0.08113 ,-0.79604 
376 ,68.7597 ,1.53151 ,-0.07771 ,-0.76246 
377 ,68.9518 ,1.53336 ,-0.10851 ,-1.06466 
378 ,69.1439 ,1.53535 ,-0.11535 ,-1.13182 
379 ,69.3361 ,1.53726 ,-0.12219 ,-1.19898 
380 ,69.5281 ,1.53915 ,-0.14957 ,-1.46760 
381 ,69.7201 ,1.54104 ,-0.14615 ,-1.43402 
382 ,69.8964 ,1.54287 ,-0.15299 ,-1.50118 
383 ,70.0723 ,1.54459 ,-0.19064 ,-1.87054 
384 ,70.2644 ,1.54654 ,-0.18379 ,-1.80338 
385 ,70.4404 ,1.54826 ,-0.18722 ,-1.83696 
386 ,70.6165 ,1.55004 ,-0.21802 ,-2.13917 
387 ,70.8085 ,1.55186 ,-0.22144 ,-2.17275 
388 ,70.9845 ,1.55367 ,-0.23170 ,-2.27348 
389 ,71.1767 ,1.55558 ,-0.24881 ,-2.44137 
390 ,71.3527 ,1.55737 ,-0.26935 ,-2.64284 
391 ,71.5287 ,1.55919 ,-0.28304 ,-2.77716 
392 ,71.7209 ,1.56106 ,-0.27961 ,-2.74358 
393 ,71.8969 ,1.56279 ,-0.30357 ,-2.97863 
394 ,72.0890 ,1.56477 ,-0.31384 ,-3.07936 
395 ,72.2651 ,1.56649 ,-0.30357 ,-2.97863 
396 ,72.4409 ,1.56826 ,-0.31726 ,-3.11294 
397 ,72.6173 ,1.57004 ,-0.33095 ,-3.24725 
398 ,72.8092 ,1.57194 ,-0.34806 ,-3.41514 
399 ,72.9855 ,1.57371 ,-0.35148 ,-3.44872 
400 ,73.1615 ,1.57547 ,-0.36517 ,-3.58303 
401 ,73.3376 ,1.57722 ,-0.38912 ,-3.81808 
402 ,73.5133 ,1.57896 ,-0.39255 ,-3.85166 
403 ,73.6898 ,1.58075 ,-0.41308 ,-4.05313 
404 ,73.8660 ,1.58254 ,-0.39939 ,-3.91882 
405 ,74.0579 ,1.58449 ,-0.43361 ,-4.25460 
406 ,74.2502 ,1.58636 ,-0.44046 ,-4.32176 
407 ,74.4261 ,1.58820 ,-0.44730 ,-4.38891 
408 ,74.6178 ,1.59002 ,-0.46441 ,-4.55681 
409 ,74.7941 ,1.59180 ,-0.47468 ,-4.65754 
410 ,74.9702 ,1.59355 ,-0.47810 ,-4.69112 
411 ,75.1463 ,1.59527 ,-0.46783 ,-4.59038 
412 ,75.3223 ,1.59706 ,-0.48494 ,-4.75828 
413 ,75.5142 ,1.59892 ,-0.50890 ,-4.99332 
414 ,75.6904 ,1.60072 ,-0.51232 ,-5.02690 
415 ,75.8663 ,1.60255 ,-0.52259 ,-5.12764 
416 ,76.0427 ,1.60427 ,-0.53628 ,-5.26195 
417 ,76.2188 ,1.60608 ,-0.54312 ,-5.32911 
418 ,76.4109 ,1.60786 ,-0.56708 ,-5.56415 
419 ,76.5870 ,1.60975 ,-0.56365 ,-5.53058 
420 ,76.7630 ,1.61147 ,-0.57734 ,-5.66489 
421 ,76.9550 ,1.61337 ,-0.60130 ,-5.89994 
422 ,77.1312 ,1.61510 ,-0.60130 ,-5.89994 
423 ,77.3073 ,1.61694 ,-0.61156 ,-6.00067 
424 ,77.4832 ,1.61870 ,-0.61499 ,-6.03425 
425 ,77.6912 ,1.62064 ,-0.62525 ,-6.13499 
426 ,77.8674 ,1.62251 ,-0.63894 ,-6.26930 
427 ,78.0435 ,1.62429 ,-0.64236 ,-6.30288 
428 ,78.2355 ,1.62622 ,-0.66632 ,-6.53793 
429 ,78.4117 ,1.62797 ,-0.67659 ,-6.63866 
430 ,78.5878 ,1.62974 ,-0.68685 ,-6.73940 
431 ,78.7954 ,1.63168 ,-0.70739 ,-6.94086 
432 ,78.9879 ,1.63360 ,-0.71423 ,-7.00802 
433 ,79.1800 ,1.63564 ,-0.73134 ,-7.17591 
434 ,79.3559 ,1.63736 ,-0.72792 ,-7.14233 
435 ,79.5316 ,1.63911 ,-0.72792 ,-7.14233 
436 ,79.7077 ,1.64096 ,-0.74845 ,-7.34380 
437 ,79.8838 ,1.64274 ,-0.76556 ,-7.51170 
438 ,80.0600 ,1.64444 ,-0.77925 ,-7.64601 
439 ,80.2523 ,1.64643 ,-0.78267 ,-7.67959 
440 ,80.4605 ,1.64842 ,-0.81347 ,-7.98179 
441 ,80.6525 ,1.65026 ,-0.81005 ,-7.94821 
442 ,80.8287 ,1.65211 ,-0.80663 ,-7.91464 
443 ,81.0048 ,1.65385 ,-0.81689 ,-8.01537 
444 ,81.1967 ,1.65580 ,-0.84085 ,-8.25042 
445 ,81.3563 ,1.65750 ,-0.85796 ,-8.41831 
446 ,81.5164 ,1.65914 ,-0.85112 ,-8.35115 
447 ,81.6764 ,1.66071 ,-0.86481 ,-8.48547 
448 ,81.8530 ,1.66237 ,-0.87165 ,-8.55262 
449 ,82.0610 ,1.66438 ,-0.89218 ,-8.75409 
450 ,82.2692 ,1.66650 ,-0.90245 ,-8.85483 
451 ,82.4612 ,1.66844 ,-0.91956 ,-9.02272 
452 ,82.6532 ,1.67023 ,-0.91956 ,-9.02272 
453 ,82.8455 ,1.67230 ,-0.92298 ,-9.05630 
454 ,83.0375 ,1.67413 ,-0.93667 ,-9.19061 
455 ,83.2136 ,1.67596 ,-0.93667 ,-9.19061 
456 ,83.3895 ,1.67772 ,-0.94351 ,-9.25777 
457 ,83.5658 ,1.67947 ,-0.95378 ,-9.35850 
458 ,83.7419 ,1.68129 ,-0.98116 ,-9.62713 
459 ,83.9180 ,1.68300 ,-0.99143 ,-9.72786 
460 ,84.1099 ,1.68491 ,-0.98458 ,-9.66071 
461 ,84.3021 ,1.68673 ,-1.00169 ,-9.82860 
462 ,84.4782 ,1.68856 ,-1.01880 ,-9.99649 
463 ,84.6703 ,1.69050 ,-1.01880 ,-9.99649 
