Data stamp = , 31-03-2022 05:53:16 931

Calibration Values: 
Slope = , 26.54 , g/V 
Offset Voltage at no contact = , -0.501760 , V 

No , Time , Stage Position ,   Mass , Force 
   ,  (s) ,      (mm)      ,   (g)  , (mN)  

1 ,0.0000 ,0.84946 ,5.32589 ,52.25768 
2 ,0.2111 ,0.84954 ,5.35327 ,52.52631 
3 ,0.6436 ,0.85075 ,5.33616 ,52.35841 
4 ,0.8355 ,0.85270 ,5.33274 ,52.32484 
5 ,1.0275 ,0.85449 ,5.35669 ,52.55988 
6 ,1.2196 ,0.85624 ,5.34985 ,52.49273 
7 ,1.3957 ,0.85800 ,5.36354 ,52.62704 
8 ,1.5719 ,0.85999 ,5.34301 ,52.42557 
9 ,1.7797 ,0.86198 ,5.32247 ,52.22410 
10 ,1.9556 ,0.86394 ,5.31563 ,52.15694 
11 ,2.1321 ,0.86558 ,5.30194 ,52.02263 
12 ,2.3240 ,0.86735 ,5.28825 ,51.88832 
13 ,2.5002 ,0.86917 ,5.25061 ,51.51896 
14 ,2.6924 ,0.87102 ,5.24034 ,51.41822 
15 ,2.8683 ,0.87289 ,5.22665 ,51.28391 
16 ,3.0442 ,0.87466 ,5.20612 ,51.08244 
17 ,3.2201 ,0.87637 ,5.19243 ,50.94813 
18 ,3.3966 ,0.87819 ,5.18559 ,50.88097 
19 ,3.5887 ,0.88006 ,5.16163 ,50.64592 
20 ,3.7807 ,0.88204 ,5.13768 ,50.41087 
21 ,3.9568 ,0.88375 ,5.14110 ,50.44445 
22 ,4.1326 ,0.88557 ,5.11714 ,50.20940 
23 ,4.3250 ,0.88742 ,5.09319 ,49.97436 
24 ,4.5009 ,0.88920 ,5.08977 ,49.94078 
25 ,4.6931 ,0.89108 ,5.07950 ,49.84004 
26 ,4.8851 ,0.89309 ,5.06239 ,49.67215 
27 ,5.0613 ,0.89479 ,5.03159 ,49.36995 
28 ,5.2532 ,0.89669 ,5.04185 ,49.47068 
29 ,5.4457 ,0.89869 ,5.01448 ,49.20205 
30 ,5.6375 ,0.90049 ,4.99737 ,49.03416 
31 ,5.8295 ,0.90243 ,4.99052 ,48.96701 
32 ,6.0217 ,0.90443 ,4.95288 ,48.59764 
33 ,6.1976 ,0.90618 ,4.93919 ,48.46333 
34 ,6.3737 ,0.90791 ,4.91523 ,48.22828 
35 ,6.5657 ,0.90976 ,4.88786 ,47.95966 
36 ,6.7579 ,0.91179 ,4.87759 ,47.85892 
37 ,6.9339 ,0.91357 ,4.86048 ,47.69103 
38 ,7.1101 ,0.91530 ,4.85706 ,47.65745 
39 ,7.2859 ,0.91702 ,4.82626 ,47.35525 
40 ,7.4941 ,0.91908 ,4.80915 ,47.18736 
41 ,7.6701 ,0.92090 ,4.78861 ,46.98589 
42 ,7.8783 ,0.92297 ,4.76466 ,46.75084 
43 ,8.0542 ,0.92473 ,4.74070 ,46.51579 
44 ,8.2461 ,0.92664 ,4.72702 ,46.38148 
45 ,8.4226 ,0.92842 ,4.70306 ,46.14643 
46 ,8.6146 ,0.93033 ,4.69622 ,46.07927 
47 ,8.7907 ,0.93214 ,4.66199 ,45.74349 
48 ,8.9667 ,0.93386 ,4.64488 ,45.57560 
49 ,9.1749 ,0.93588 ,4.64146 ,45.54202 
50 ,9.3508 ,0.93769 ,4.60724 ,45.20624 
51 ,9.5270 ,0.93947 ,4.59697 ,45.10550 
52 ,9.7190 ,0.94139 ,4.57644 ,44.90403 
53 ,9.8951 ,0.94311 ,4.56617 ,44.80330 
54 ,10.0713 ,0.94492 ,4.55249 ,44.66898 
55 ,10.2632 ,0.94681 ,4.51826 ,44.33320 
56 ,10.4232 ,0.94850 ,4.49773 ,44.13173 
57 ,10.6154 ,0.95030 ,4.51142 ,44.26604 
58 ,10.7915 ,0.95209 ,4.49431 ,44.09815 
59 ,10.9673 ,0.95387 ,4.47035 ,43.86310 
60 ,11.1435 ,0.95560 ,4.44298 ,43.59448 
61 ,11.3197 ,0.95735 ,4.41218 ,43.29227 
62 ,11.5116 ,0.95919 ,4.40533 ,43.22512 
63 ,11.7038 ,0.96120 ,4.38480 ,43.02365 
64 ,11.8799 ,0.96295 ,4.36084 ,42.78860 
65 ,12.0559 ,0.96471 ,4.36769 ,42.85576 
66 ,12.2321 ,0.96645 ,4.35400 ,42.72144 
67 ,12.4082 ,0.96825 ,4.33347 ,42.51997 
68 ,12.6003 ,0.97019 ,4.28898 ,42.08345 
69 ,12.7763 ,0.97191 ,4.28898 ,42.08345 
70 ,12.9683 ,0.97385 ,4.26845 ,41.88198 
71 ,13.1445 ,0.97559 ,4.25818 ,41.78125 
72 ,13.3364 ,0.97750 ,4.23765 ,41.57978 
73 ,13.5123 ,0.97926 ,4.22738 ,41.47905 
74 ,13.6886 ,0.98104 ,4.21369 ,41.34473 
75 ,13.8967 ,0.98309 ,4.19316 ,41.14326 
76 ,14.0727 ,0.98489 ,4.16578 ,40.87464 
77 ,14.2649 ,0.98685 ,4.13840 ,40.60601 
78 ,14.4569 ,0.98873 ,4.12129 ,40.43812 
79 ,14.6489 ,0.99061 ,4.12471 ,40.47170 
80 ,14.8251 ,0.99242 ,4.09391 ,40.16949 
81 ,15.0169 ,0.99430 ,4.08023 ,40.03518 
82 ,15.2092 ,0.99625 ,4.05969 ,39.83371 
83 ,15.4012 ,0.99822 ,4.02889 ,39.53150 
84 ,15.5929 ,1.00006 ,4.02547 ,39.49793 
85 ,15.7692 ,1.00184 ,4.00152 ,39.26288 
86 ,15.9614 ,1.00382 ,3.97072 ,38.96067 
87 ,16.1377 ,1.00557 ,3.96387 ,38.89352 
88 ,16.3296 ,1.00743 ,3.95361 ,38.79278 
89 ,16.5057 ,1.00918 ,3.92623 ,38.52415 
90 ,16.6817 ,1.01096 ,3.90570 ,38.32268 
91 ,16.8579 ,1.01272 ,3.88516 ,38.12122 
92 ,17.0338 ,1.01453 ,3.88858 ,38.15479 
93 ,17.2100 ,1.01625 ,3.87147 ,37.98690 
94 ,17.3860 ,1.01796 ,3.84410 ,37.71828 
95 ,17.5621 ,1.01974 ,3.83725 ,37.65112 
96 ,17.7382 ,1.02160 ,3.83041 ,37.58396 
97 ,17.9143 ,1.02326 ,3.80987 ,37.38249 
98 ,18.0902 ,1.02508 ,3.79619 ,37.24818 
99 ,18.2825 ,1.02692 ,3.75854 ,36.87882 
100 ,18.4584 ,1.02874 ,3.74828 ,36.77808 
101 ,18.6344 ,1.03052 ,3.73459 ,36.64377 
102 ,18.8106 ,1.03228 ,3.71748 ,36.47588 
103 ,18.9867 ,1.03396 ,3.71063 ,36.40872 
104 ,19.1629 ,1.03575 ,3.68325 ,36.14010 
105 ,19.3390 ,1.03755 ,3.67299 ,36.03936 
106 ,19.5149 ,1.03934 ,3.64903 ,35.80431 
107 ,19.6911 ,1.04107 ,3.65246 ,35.83789 
108 ,19.8510 ,1.04279 ,3.63192 ,35.63642 
109 ,20.0270 ,1.04444 ,3.61481 ,35.46853 
110 ,20.2032 ,1.04618 ,3.59770 ,35.30064 
111 ,20.3952 ,1.04807 ,3.58401 ,35.16632 
112 ,20.5552 ,1.04983 ,3.56006 ,34.93128 
113 ,20.7314 ,1.05142 ,3.56006 ,34.93128 
114 ,20.9075 ,1.05316 ,3.53610 ,34.69623 
115 ,21.0836 ,1.05492 ,3.51215 ,34.46118 
116 ,21.2598 ,1.05673 ,3.49846 ,34.32687 
117 ,21.4516 ,1.05861 ,3.49161 ,34.25971 
118 ,21.6278 ,1.06053 ,3.46081 ,33.95751 
119 ,21.8200 ,1.06231 ,3.44713 ,33.82319 
120 ,22.0120 ,1.06423 ,3.44028 ,33.75604 
121 ,22.2037 ,1.06616 ,3.41633 ,33.52099 
122 ,22.3958 ,1.06802 ,3.39237 ,33.28594 
123 ,22.5721 ,1.06985 ,3.40264 ,33.38667 
124 ,22.7484 ,1.07162 ,3.37526 ,33.11805 
125 ,22.9242 ,1.07337 ,3.33762 ,32.74869 
126 ,23.1162 ,1.07522 ,3.35130 ,32.88300 
127 ,23.2924 ,1.07710 ,3.30339 ,32.41290 
128 ,23.4685 ,1.07881 ,3.29997 ,32.37933 
129 ,23.6607 ,1.08075 ,3.28628 ,32.24501 
130 ,23.8366 ,1.08253 ,3.28286 ,32.21143 
131 ,24.0124 ,1.08425 ,3.25891 ,31.97639 
132 ,24.1889 ,1.08598 ,3.24864 ,31.87565 
133 ,24.3650 ,1.08779 ,3.21784 ,31.57345 
134 ,24.5568 ,1.08970 ,3.20757 ,31.47271 
135 ,24.7491 ,1.09158 ,3.18362 ,31.23766 
136 ,24.9407 ,1.09353 ,3.18020 ,31.20409 
137 ,25.1168 ,1.09525 ,3.15624 ,30.96904 
138 ,25.2931 ,1.09706 ,3.13913 ,30.80115 
139 ,25.4853 ,1.09904 ,3.12886 ,30.70041 
140 ,25.6615 ,1.10075 ,3.10833 ,30.49894 
141 ,25.8536 ,1.10264 ,3.09806 ,30.39821 
142 ,26.0297 ,1.10445 ,3.09122 ,30.33105 
143 ,26.1892 ,1.10614 ,3.07753 ,30.19674 
144 ,26.3657 ,1.10776 ,3.05015 ,29.92811 
145 ,26.5576 ,1.10962 ,3.03647 ,29.79380 
146 ,26.7659 ,1.11165 ,3.00909 ,29.52517 
147 ,26.9577 ,1.11362 ,3.00567 ,29.49159 
148 ,27.1501 ,1.11564 ,2.99540 ,29.39086 
149 ,27.3260 ,1.11739 ,2.98513 ,29.29012 
150 ,27.5343 ,1.11943 ,2.96118 ,29.05507 
151 ,27.7261 ,1.12136 ,2.94064 ,28.85360 
152 ,27.9024 ,1.12318 ,2.90300 ,28.48424 
153 ,28.0944 ,1.12500 ,2.93038 ,28.75287 
154 ,28.2862 ,1.12694 ,2.89273 ,28.38351 
155 ,28.4626 ,1.12875 ,2.86536 ,28.11488 
156 ,28.6386 ,1.13054 ,2.86193 ,28.08130 
157 ,28.8147 ,1.13224 ,2.84825 ,27.94699 
158 ,28.9907 ,1.13402 ,2.84482 ,27.91341 
159 ,29.1668 ,1.13574 ,2.81745 ,27.64479 
160 ,29.3426 ,1.13751 ,2.80034 ,27.47689 
161 ,29.5190 ,1.13931 ,2.79007 ,27.37616 
162 ,29.7111 ,1.14121 ,2.78665 ,27.34258 
163 ,29.9027 ,1.14312 ,2.75243 ,27.00680 
164 ,30.0628 ,1.14484 ,2.72847 ,26.77175 
165 ,30.2388 ,1.14650 ,2.72163 ,26.70459 
166 ,30.4150 ,1.14828 ,2.72163 ,26.70459 
167 ,30.6075 ,1.15007 ,2.71820 ,26.67101 
168 ,30.7995 ,1.15205 ,2.67372 ,26.23450 
169 ,30.9757 ,1.15386 ,2.68056 ,26.30165 
170 ,31.1676 ,1.15577 ,2.66003 ,26.10018 
171 ,31.3439 ,1.15753 ,2.63949 ,25.89871 
172 ,31.5357 ,1.15947 ,2.62581 ,25.76440 
173 ,31.7118 ,1.16119 ,2.62581 ,25.76440 
174 ,31.8880 ,1.16294 ,2.59158 ,25.42862 
175 ,32.0960 ,1.16494 ,2.58474 ,25.36146 
176 ,32.2721 ,1.16683 ,2.57789 ,25.29430 
177 ,32.4481 ,1.16852 ,2.55736 ,25.09283 
178 ,32.6081 ,1.17027 ,2.52314 ,24.75705 
179 ,32.7842 ,1.17190 ,2.50945 ,24.62274 
180 ,32.9603 ,1.17374 ,2.50261 ,24.55558 
181 ,33.1364 ,1.17545 ,2.49918 ,24.52200 
182 ,33.3125 ,1.17722 ,2.49576 ,24.48842 
183 ,33.4886 ,1.17899 ,2.46154 ,24.15264 
184 ,33.6807 ,1.18088 ,2.44443 ,23.98475 
185 ,33.8568 ,1.18269 ,2.42732 ,23.81686 
186 ,34.0488 ,1.18454 ,2.42390 ,23.78328 
187 ,34.2249 ,1.18632 ,2.39652 ,23.51465 
188 ,34.4008 ,1.18810 ,2.39310 ,23.48108 
189 ,34.5766 ,1.18982 ,2.37256 ,23.27961 
190 ,34.7691 ,1.19167 ,2.36914 ,23.24603 
191 ,34.9610 ,1.19372 ,2.33834 ,22.94382 
192 ,35.1371 ,1.19549 ,2.34177 ,22.97740 
193 ,35.3134 ,1.19721 ,2.32123 ,22.77593 
194 ,35.4894 ,1.19897 ,2.30754 ,22.64162 
195 ,35.6812 ,1.20089 ,2.28359 ,22.40657 
196 ,35.8574 ,1.20269 ,2.27332 ,22.30584 
197 ,36.0337 ,1.20444 ,2.25621 ,22.13794 
198 ,36.2254 ,1.20635 ,2.23568 ,21.93647 
199 ,36.3857 ,1.20810 ,2.22199 ,21.80216 
200 ,36.5619 ,1.20971 ,2.20488 ,21.63427 
201 ,36.7537 ,1.21165 ,2.20488 ,21.63427 
202 ,36.9300 ,1.21336 ,2.19461 ,21.53353 
203 ,37.1060 ,1.21515 ,2.16723 ,21.26491 
204 ,37.2821 ,1.21684 ,2.15012 ,21.09702 
205 ,37.4582 ,1.21863 ,2.14328 ,21.02986 
206 ,37.6343 ,1.22047 ,2.13986 ,20.99628 
207 ,37.8101 ,1.22223 ,2.10564 ,20.66050 
208 ,38.0024 ,1.22397 ,2.08168 ,20.42545 
209 ,38.1783 ,1.22583 ,2.08852 ,20.49261 
210 ,38.3545 ,1.22763 ,2.08168 ,20.42545 
211 ,38.5305 ,1.22943 ,2.05430 ,20.15682 
212 ,38.7227 ,1.23131 ,2.03719 ,19.98893 
213 ,38.9147 ,1.23322 ,2.03377 ,19.95535 
214 ,39.0908 ,1.23499 ,2.01666 ,19.78746 
215 ,39.2669 ,1.23674 ,1.98244 ,19.45168 
216 ,39.4437 ,1.23850 ,1.96190 ,19.25021 
217 ,39.6351 ,1.24044 ,1.97559 ,19.38452 
218 ,39.8111 ,1.24217 ,1.95506 ,19.18305 
219 ,39.9873 ,1.24392 ,1.93453 ,18.98158 
220 ,40.1793 ,1.24593 ,1.94137 ,19.04874 
221 ,40.3553 ,1.24764 ,1.92084 ,18.84727 
222 ,40.5476 ,1.24948 ,1.87977 ,18.44433 
223 ,40.7236 ,1.25131 ,1.86951 ,18.34360 
224 ,40.9152 ,1.25321 ,1.86608 ,18.31002 
225 ,41.1077 ,1.25504 ,1.85240 ,18.17570 
226 ,41.2998 ,1.25704 ,1.83528 ,18.00781 
227 ,41.4758 ,1.25888 ,1.82160 ,17.87350 
228 ,41.6518 ,1.26057 ,1.80449 ,17.70561 
229 ,41.8442 ,1.26246 ,1.78053 ,17.47056 
230 ,42.0199 ,1.26430 ,1.77026 ,17.36983 
231 ,42.1961 ,1.26599 ,1.76684 ,17.33625 
232 ,42.3562 ,1.26774 ,1.74289 ,17.10120 
233 ,42.5485 ,1.26953 ,1.72920 ,16.96689 
234 ,42.7244 ,1.27132 ,1.69840 ,16.66468 
235 ,42.9162 ,1.27320 ,1.72578 ,16.93331 
236 ,43.0762 ,1.27494 ,1.69155 ,16.59752 
237 ,43.2365 ,1.27653 ,1.67444 ,16.42963 
238 ,43.4123 ,1.27820 ,1.66418 ,16.32890 
239 ,43.5889 ,1.27991 ,1.65049 ,16.19458 
240 ,43.7649 ,1.28175 ,1.62995 ,15.99311 
241 ,43.9408 ,1.28348 ,1.61627 ,15.85880 
242 ,44.1165 ,1.28524 ,1.61284 ,15.82522 
243 ,44.2930 ,1.28695 ,1.58204 ,15.52302 
244 ,44.4691 ,1.28874 ,1.56836 ,15.38871 
245 ,44.6613 ,1.29052 ,1.54098 ,15.12008 
246 ,44.8373 ,1.29240 ,1.54782 ,15.18724 
247 ,45.0294 ,1.29437 ,1.52387 ,14.95219 
248 ,45.2053 ,1.29607 ,1.50676 ,14.78430 
249 ,45.3975 ,1.29794 ,1.50676 ,14.78430 
250 ,45.5736 ,1.29975 ,1.49649 ,14.68356 
251 ,45.7499 ,1.30154 ,1.46911 ,14.41493 
252 ,45.9257 ,1.30336 ,1.45200 ,14.24704 
253 ,46.1018 ,1.30507 ,1.44858 ,14.21346 
254 ,46.2615 ,1.30676 ,1.44174 ,14.14631 
255 ,46.4540 ,1.30851 ,1.41436 ,13.87768 
256 ,46.6299 ,1.31034 ,1.40409 ,13.77695 
257 ,46.8060 ,1.31203 ,1.38014 ,13.54190 
258 ,46.9822 ,1.31384 ,1.37671 ,13.50832 
259 ,47.1741 ,1.31576 ,1.36645 ,13.40759 
260 ,47.3503 ,1.31753 ,1.35276 ,13.27327 
261 ,47.5425 ,1.31947 ,1.33565 ,13.10538 
262 ,47.7186 ,1.32125 ,1.32880 ,13.03822 
263 ,47.9106 ,1.32305 ,1.30143 ,12.76960 
264 ,48.0865 ,1.32489 ,1.29458 ,12.70244 
265 ,48.2625 ,1.32668 ,1.28774 ,12.63528 
266 ,48.4548 ,1.32853 ,1.27063 ,12.46739 
267 ,48.6467 ,1.33050 ,1.25009 ,12.26592 
268 ,48.8229 ,1.33225 ,1.24667 ,12.23235 
269 ,48.9991 ,1.33398 ,1.23641 ,12.13161 
270 ,49.1751 ,1.33579 ,1.22614 ,12.03088 
271 ,49.3830 ,1.33782 ,1.20561 ,11.82941 
272 ,49.5592 ,1.33961 ,1.19534 ,11.72867 
273 ,49.7511 ,1.34155 ,1.17138 ,11.49362 
274 ,49.9273 ,1.34334 ,1.15770 ,11.35931 
275 ,50.1192 ,1.34513 ,1.16454 ,11.42647 
276 ,50.3116 ,1.34716 ,1.12690 ,11.05710 
277 ,50.4873 ,1.34888 ,1.12005 ,10.98995 
278 ,50.6632 ,1.35069 ,1.11321 ,10.92279 
279 ,50.8396 ,1.35245 ,1.09267 ,10.72132 
280 ,51.0158 ,1.35416 ,1.08925 ,10.68774 
281 ,51.1919 ,1.35596 ,1.06530 ,10.45270 
282 ,51.3679 ,1.35767 ,1.04819 ,10.28480 
283 ,51.5440 ,1.35945 ,1.03450 ,10.15049 
284 ,51.7200 ,1.36117 ,1.04134 ,10.21765 
285 ,51.8962 ,1.36299 ,1.03450 ,10.15049 
286 ,52.0723 ,1.36475 ,1.02081 ,10.01618 
287 ,52.2483 ,1.36649 ,0.99001 ,9.71397 
288 ,52.4241 ,1.36830 ,0.97290 ,9.54608 
289 ,52.5843 ,1.36997 ,0.97290 ,9.54608 
290 ,52.7925 ,1.37184 ,0.96948 ,9.51250 
291 ,52.9847 ,1.37388 ,0.93525 ,9.17672 
292 ,53.1604 ,1.37564 ,0.93183 ,9.14314 
293 ,53.3529 ,1.37739 ,0.92841 ,9.10956 
294 ,53.5446 ,1.37945 ,0.90446 ,8.87451 
295 ,53.7210 ,1.38118 ,0.89419 ,8.77378 
296 ,53.9131 ,1.38318 ,0.88734 ,8.70662 
297 ,54.0889 ,1.38490 ,0.86339 ,8.47158 
298 ,54.2812 ,1.38684 ,0.84286 ,8.27011 
299 ,54.4732 ,1.38867 ,0.83943 ,8.23653 
300 ,54.6489 ,1.39046 ,0.82917 ,8.13579 
301 ,54.8254 ,1.39226 ,0.81890 ,8.03506 
302 ,55.0014 ,1.39404 ,0.81548 ,8.00148 
303 ,55.1774 ,1.39573 ,0.81548 ,8.00148 
304 ,55.3536 ,1.39758 ,0.79495 ,7.80001 
305 ,55.5458 ,1.39944 ,0.75730 ,7.43065 
306 ,55.7056 ,1.40118 ,0.76072 ,7.46423 
307 ,55.8817 ,1.40280 ,0.75730 ,7.43065 
308 ,56.0576 ,1.40459 ,0.74704 ,7.32991 
309 ,56.2340 ,1.40632 ,0.72650 ,7.12844 
310 ,56.4101 ,1.40809 ,0.71281 ,6.99413 
311 ,56.5861 ,1.40988 ,0.69570 ,6.82624 
312 ,56.7780 ,1.41172 ,0.70255 ,6.89340 
313 ,56.9543 ,1.41357 ,0.68886 ,6.75908 
314 ,57.1304 ,1.41529 ,0.65464 ,6.42330 
315 ,57.3064 ,1.41709 ,0.63753 ,6.25541 
316 ,57.4826 ,1.41881 ,0.65121 ,6.38972 
317 ,57.6585 ,1.42058 ,0.63753 ,6.25541 
318 ,57.8344 ,1.42239 ,0.62384 ,6.12109 
319 ,58.0265 ,1.42427 ,0.61015 ,5.98678 
320 ,58.2027 ,1.42601 ,0.59304 ,5.81889 
321 ,58.3788 ,1.42778 ,0.59304 ,5.81889 
322 ,58.5549 ,1.42956 ,0.57593 ,5.65100 
323 ,58.7472 ,1.43148 ,0.55539 ,5.44953 
324 ,58.9389 ,1.43333 ,0.56566 ,5.55026 
325 ,59.1151 ,1.43514 ,0.53828 ,5.28164 
326 ,59.2912 ,1.43693 ,0.52802 ,5.18090 
327 ,59.4673 ,1.43865 ,0.51433 ,5.04659 
328 ,59.6593 ,1.44056 ,0.50406 ,4.94585 
329 ,59.8351 ,1.44238 ,0.50064 ,4.91228 
330 ,60.0115 ,1.44413 ,0.48353 ,4.74438 
331 ,60.1875 ,1.44584 ,0.45615 ,4.47576 
332 ,60.3636 ,1.44763 ,0.45615 ,4.47576 
333 ,60.5395 ,1.44941 ,0.45957 ,4.50934 
334 ,60.7157 ,1.45113 ,0.43220 ,4.24071 
335 ,60.8915 ,1.45286 ,0.42535 ,4.17355 
336 ,61.0679 ,1.45468 ,0.40824 ,4.00566 
337 ,61.2600 ,1.45655 ,0.40824 ,4.00566 
338 ,61.4359 ,1.45837 ,0.40140 ,3.93850 
339 ,61.6122 ,1.46008 ,0.37744 ,3.70346 
340 ,61.8041 ,1.46193 ,0.35691 ,3.50199 
341 ,61.9640 ,1.46372 ,0.36033 ,3.53557 
342 ,62.1243 ,1.46534 ,0.37402 ,3.66988 
343 ,62.3005 ,1.46699 ,0.34322 ,3.36767 
344 ,62.4925 ,1.46888 ,0.30558 ,2.99831 
345 ,62.6685 ,1.47062 ,0.30215 ,2.96473 
346 ,62.8602 ,1.47247 ,0.29189 ,2.86400 
347 ,63.0364 ,1.47433 ,0.29189 ,2.86400 
348 ,63.2128 ,1.47613 ,0.26109 ,2.56179 
349 ,63.3887 ,1.47792 ,0.24398 ,2.39390 
350 ,63.5809 ,1.47974 ,0.25424 ,2.49464 
351 ,63.7570 ,1.48152 ,0.24055 ,2.36032 
352 ,63.9331 ,1.48327 ,0.21660 ,2.12528 
353 ,64.1088 ,1.48512 ,0.20291 ,1.99096 
354 ,64.2851 ,1.48679 ,0.20291 ,1.99096 
355 ,64.4613 ,1.48856 ,0.19264 ,1.89023 
356 ,64.6372 ,1.49035 ,0.18922 ,1.85665 
357 ,64.8133 ,1.49209 ,0.16869 ,1.65518 
358 ,64.9896 ,1.49382 ,0.15158 ,1.48729 
359 ,65.1651 ,1.49561 ,0.15500 ,1.52087 
360 ,65.3418 ,1.49739 ,0.15158 ,1.48729 
361 ,65.5177 ,1.49918 ,0.13789 ,1.35298 
362 ,65.6935 ,1.50090 ,0.11736 ,1.15151 
363 ,65.8699 ,1.50265 ,0.09682 ,0.95004 
364 ,66.0460 ,1.50442 ,0.08656 ,0.84930 
365 ,66.2217 ,1.50617 ,0.08998 ,0.88288 
366 ,66.3980 ,1.50794 ,0.08314 ,0.81572 
367 ,66.5742 ,1.50966 ,0.04891 ,0.47994 
368 ,66.7503 ,1.51151 ,0.04207 ,0.41278 
369 ,66.9262 ,1.51313 ,0.04549 ,0.44636 
370 ,67.1022 ,1.51498 ,0.03865 ,0.37920 
371 ,67.3101 ,1.51691 ,0.01811 ,0.17773 
372 ,67.4864 ,1.51879 ,0.00100 ,0.00984 
373 ,67.6786 ,1.52073 ,0.00100 ,0.00984 
374 ,67.8705 ,1.52265 ,-0.00926 ,-0.09089 
375 ,68.0470 ,1.52447 ,-0.04691 ,-0.46025 
376 ,68.2387 ,1.52634 ,-0.03322 ,-0.32594 
377 ,68.4148 ,1.52806 ,-0.05717 ,-0.56099 
378 ,68.5909 ,1.52989 ,-0.07086 ,-0.69530 
379 ,68.7670 ,1.53160 ,-0.08113 ,-0.79604 
380 ,68.9433 ,1.53342 ,-0.09140 ,-0.89677 
381 ,69.1192 ,1.53510 ,-0.09824 ,-0.96393 
382 ,69.2953 ,1.53689 ,-0.10851 ,-1.06466 
383 ,69.4713 ,1.53871 ,-0.12219 ,-1.19898 
384 ,69.6794 ,1.54061 ,-0.12904 ,-1.26613 
385 ,69.8554 ,1.54253 ,-0.14957 ,-1.46760 
386 ,70.0477 ,1.54446 ,-0.15984 ,-1.56834 
387 ,70.2234 ,1.54619 ,-0.17011 ,-1.66907 
388 ,70.4155 ,1.54810 ,-0.17353 ,-1.70265 
389 ,70.6076 ,1.54994 ,-0.18722 ,-1.83696 
390 ,70.7839 ,1.55177 ,-0.18379 ,-1.80338 
391 ,70.9598 ,1.55357 ,-0.20775 ,-2.03843 
392 ,71.1356 ,1.55530 ,-0.21802 ,-2.13917 
393 ,71.3120 ,1.55703 ,-0.23513 ,-2.30706 
394 ,71.4880 ,1.55883 ,-0.25566 ,-2.50853 
395 ,71.6802 ,1.56068 ,-0.23855 ,-2.34064 
396 ,71.8883 ,1.56275 ,-0.28304 ,-2.77716 
397 ,72.0642 ,1.56458 ,-0.28304 ,-2.77716 
398 ,72.2405 ,1.56636 ,-0.28988 ,-2.84431 
399 ,72.4325 ,1.56824 ,-0.31384 ,-3.07936 
400 ,72.6085 ,1.56998 ,-0.31041 ,-3.04578 
401 ,72.7685 ,1.57173 ,-0.31384 ,-3.07936 
402 ,72.9607 ,1.57342 ,-0.34121 ,-3.34799 
403 ,73.1527 ,1.57546 ,-0.36175 ,-3.54946 
404 ,73.3288 ,1.57719 ,-0.37544 ,-3.68377 
405 ,73.5049 ,1.57894 ,-0.36175 ,-3.54946 
406 ,73.6965 ,1.58095 ,-0.38912 ,-3.81808 
407 ,73.8730 ,1.58267 ,-0.39255 ,-3.85166 
408 ,74.0492 ,1.58445 ,-0.40281 ,-3.95240 
409 ,74.2251 ,1.58617 ,-0.41650 ,-4.08671 
410 ,74.4011 ,1.58791 ,-0.39597 ,-3.88524 
411 ,74.5772 ,1.58968 ,-0.44388 ,-4.35534 
412 ,74.7533 ,1.59142 ,-0.44730 ,-4.38891 
413 ,74.9295 ,1.59325 ,-0.45757 ,-4.48965 
414 ,75.1215 ,1.59513 ,-0.45757 ,-4.48965 
415 ,75.3135 ,1.59701 ,-0.47126 ,-4.62396 
416 ,75.4897 ,1.59882 ,-0.50206 ,-4.92617 
417 ,75.6813 ,1.60073 ,-0.49179 ,-4.82543 
418 ,75.8576 ,1.60254 ,-0.50548 ,-4.95975 
419 ,76.0499 ,1.60443 ,-0.52943 ,-5.19479 
420 ,76.2259 ,1.60621 ,-0.53285 ,-5.22837 
421 ,76.4179 ,1.60806 ,-0.53970 ,-5.29553 
422 ,76.6101 ,1.60990 ,-0.56023 ,-5.49700 
423 ,76.8021 ,1.61198 ,-0.56708 ,-5.56415 
424 ,76.9783 ,1.61370 ,-0.57392 ,-5.63131 
425 ,77.1542 ,1.61544 ,-0.59445 ,-5.83278 
426 ,77.3304 ,1.61723 ,-0.60472 ,-5.93352 
427 ,77.5222 ,1.61916 ,-0.60472 ,-5.93352 
428 ,77.6986 ,1.62088 ,-0.61499 ,-6.03425 
429 ,77.8745 ,1.62276 ,-0.62868 ,-6.16856 
430 ,78.0507 ,1.62443 ,-0.65263 ,-6.40361 
431 ,78.2587 ,1.62636 ,-0.65263 ,-6.40361 
432 ,78.4507 ,1.62841 ,-0.66974 ,-6.57150 
433 ,78.6268 ,1.63015 ,-0.66974 ,-6.57150 
434 ,78.8191 ,1.63203 ,-0.69370 ,-6.80655 
435 ,79.0111 ,1.63396 ,-0.69712 ,-6.84013 
436 ,79.1872 ,1.63582 ,-0.70054 ,-6.87371 
437 ,79.3633 ,1.63755 ,-0.70396 ,-6.90729 
438 ,79.5553 ,1.63942 ,-0.74503 ,-7.31023 
439 ,79.7314 ,1.64124 ,-0.74845 ,-7.34380 
440 ,79.9231 ,1.64309 ,-0.74503 ,-7.31023 
441 ,80.0994 ,1.64490 ,-0.75530 ,-7.41096 
442 ,80.2756 ,1.64664 ,-0.77583 ,-7.61243 
443 ,80.4517 ,1.64841 ,-0.79636 ,-7.81390 
444 ,80.6277 ,1.65024 ,-0.78952 ,-7.74674 
445 ,80.8039 ,1.65196 ,-0.79294 ,-7.78032 
446 ,80.9796 ,1.65367 ,-0.80663 ,-7.91464 
447 ,81.1560 ,1.65545 ,-0.82716 ,-8.11611 
448 ,81.3319 ,1.65720 ,-0.84427 ,-8.28400 
449 ,81.5081 ,1.65902 ,-0.83743 ,-8.21684 
450 ,81.6842 ,1.66072 ,-0.83401 ,-8.18326 
451 ,81.8764 ,1.66259 ,-0.86823 ,-8.51904 
452 ,82.0683 ,1.66457 ,-0.87849 ,-8.61978 
453 ,82.2447 ,1.66634 ,-0.88192 ,-8.65336 
454 ,82.4206 ,1.66813 ,-0.89903 ,-8.82125 
455 ,82.5963 ,1.66986 ,-0.90587 ,-8.88841 
456 ,82.7886 ,1.67167 ,-0.92640 ,-9.08988 
457 ,82.9647 ,1.67354 ,-0.91614 ,-8.98914 
458 ,83.1247 ,1.67526 ,-0.92298 ,-9.05630 
459 ,83.3007 ,1.67683 ,-0.94694 ,-9.29135 
460 ,83.4930 ,1.67880 ,-0.94694 ,-9.29135 
461 ,83.6689 ,1.68063 ,-0.97774 ,-9.59355 
462 ,83.8450 ,1.68237 ,-0.97774 ,-9.59355 
463 ,84.0212 ,1.68405 ,-0.99143 ,-9.72786 
