Data stamp = , 30-03-2022 18:17:47 617

Calibration Values: 
Slope = , 26.54 , g/V 
Offset Voltage at no contact = , -0.501760 , V 

No , Time , Stage Position ,   Mass , Force 
   ,  (s) ,      (mm)      ,   (g)  , (mN)  

1 ,0.0000 ,0.84943 ,5.31905 ,52.19052 
2 ,0.2089 ,0.84951 ,5.32589 ,52.25768 
3 ,0.5291 ,0.85029 ,5.32932 ,52.29126 
4 ,0.7212 ,0.85165 ,5.33274 ,52.32484 
5 ,0.8971 ,0.85321 ,5.33958 ,52.39199 
6 ,1.0733 ,0.85494 ,5.33274 ,52.32484 
7 ,1.2495 ,0.85658 ,5.33958 ,52.39199 
8 ,1.4414 ,0.85846 ,5.34985 ,52.49273 
9 ,1.6177 ,0.86032 ,5.31563 ,52.15694 
10 ,1.7936 ,0.86214 ,5.31563 ,52.15694 
11 ,2.0178 ,0.86432 ,5.27798 ,51.78758 
12 ,2.2095 ,0.86624 ,5.26430 ,51.65327 
13 ,2.3858 ,0.86803 ,5.24376 ,51.45180 
14 ,2.5619 ,0.86977 ,5.23692 ,51.38464 
15 ,2.7380 ,0.87152 ,5.21296 ,51.14960 
16 ,2.9141 ,0.87327 ,5.19927 ,51.01528 
17 ,3.0902 ,0.87503 ,5.18216 ,50.84739 
18 ,3.2663 ,0.87682 ,5.16848 ,50.71308 
19 ,3.4422 ,0.87853 ,5.15821 ,50.61234 
20 ,3.6183 ,0.88032 ,5.14794 ,50.51161 
21 ,3.7946 ,0.88213 ,5.12399 ,50.27656 
22 ,3.9545 ,0.88382 ,5.11714 ,50.20940 
23 ,4.1305 ,0.88542 ,5.09661 ,50.00793 
24 ,4.3067 ,0.88724 ,5.06239 ,49.67215 
25 ,4.4824 ,0.88893 ,5.06239 ,49.67215 
26 ,4.6589 ,0.89074 ,5.04528 ,49.50426 
27 ,4.8348 ,0.89246 ,5.03501 ,49.40352 
28 ,5.0110 ,0.89424 ,5.02817 ,49.33637 
29 ,5.2031 ,0.89611 ,4.99394 ,49.00058 
30 ,5.3791 ,0.89796 ,4.98368 ,48.89985 
31 ,5.5391 ,0.89966 ,4.97341 ,48.79911 
32 ,5.7152 ,0.90128 ,4.96315 ,48.69838 
33 ,5.8912 ,0.90303 ,4.93919 ,48.46333 
34 ,6.0830 ,0.90497 ,4.90497 ,48.12755 
35 ,6.2595 ,0.90673 ,4.89128 ,47.99324 
36 ,6.4354 ,0.90849 ,4.88786 ,47.95966 
37 ,6.6116 ,0.91026 ,4.86390 ,47.72461 
38 ,6.7877 ,0.91204 ,4.83995 ,47.48956 
39 ,6.9799 ,0.91387 ,4.82626 ,47.35525 
40 ,7.1718 ,0.91588 ,4.81599 ,47.25451 
41 ,7.3479 ,0.91762 ,4.79204 ,47.01946 
42 ,7.5239 ,0.91935 ,4.76124 ,46.71726 
43 ,7.7001 ,0.92110 ,4.74070 ,46.51579 
44 ,7.8762 ,0.92294 ,4.73728 ,46.48221 
45 ,8.0683 ,0.92472 ,4.73044 ,46.41506 
46 ,8.2444 ,0.92661 ,4.68937 ,46.01212 
47 ,8.4204 ,0.92833 ,4.67568 ,45.87780 
48 ,8.6120 ,0.93024 ,4.67911 ,45.91138 
49 ,8.7884 ,0.93205 ,4.63462 ,45.47486 
50 ,8.9645 ,0.93378 ,4.61751 ,45.30697 
51 ,9.1405 ,0.93550 ,4.60040 ,45.13908 
52 ,9.3167 ,0.93727 ,4.60040 ,45.13908 
53 ,9.4927 ,0.93906 ,4.58671 ,45.00477 
54 ,9.6845 ,0.94095 ,4.55249 ,44.66898 
55 ,9.8610 ,0.94273 ,4.52169 ,44.36678 
56 ,10.0209 ,0.94445 ,4.51484 ,44.29962 
57 ,10.2130 ,0.94622 ,4.50800 ,44.23247 
58 ,10.3891 ,0.94802 ,4.48062 ,43.96384 
59 ,10.5650 ,0.94976 ,4.47035 ,43.86310 
60 ,10.7409 ,0.95154 ,4.44298 ,43.59448 
61 ,10.9174 ,0.95331 ,4.43613 ,43.52732 
62 ,11.1095 ,0.95524 ,4.41560 ,43.32585 
63 ,11.3175 ,0.95718 ,4.38138 ,42.99007 
64 ,11.5096 ,0.95920 ,4.38138 ,42.99007 
65 ,11.6856 ,0.96095 ,4.34716 ,42.65429 
66 ,11.8614 ,0.96276 ,4.33689 ,42.55355 
67 ,12.0537 ,0.96455 ,4.31293 ,42.31850 
68 ,12.2295 ,0.96643 ,4.32662 ,42.45282 
69 ,12.4056 ,0.96812 ,4.28898 ,42.08345 
70 ,12.5819 ,0.96990 ,4.27187 ,41.91556 
71 ,12.7740 ,0.97185 ,4.25818 ,41.78125 
72 ,12.9502 ,0.97362 ,4.24791 ,41.68051 
73 ,13.1263 ,0.97535 ,4.21369 ,41.34473 
74 ,13.3184 ,0.97722 ,4.21369 ,41.34473 
75 ,13.4944 ,0.97903 ,4.20000 ,41.21042 
76 ,13.6707 ,0.98083 ,4.16578 ,40.87464 
77 ,13.8463 ,0.98255 ,4.16236 ,40.84106 
78 ,14.0387 ,0.98443 ,4.14525 ,40.67317 
79 ,14.2307 ,0.98639 ,4.12129 ,40.43812 
80 ,14.4068 ,0.98814 ,4.10418 ,40.27023 
81 ,14.5989 ,0.99009 ,4.07680 ,40.00160 
82 ,14.8068 ,0.99201 ,4.05627 ,39.80013 
83 ,14.9829 ,0.99391 ,4.03574 ,39.59866 
84 ,15.1591 ,0.99570 ,4.02547 ,39.49793 
85 ,15.3670 ,0.99771 ,4.00152 ,39.26288 
86 ,15.5432 ,0.99952 ,3.99125 ,39.16214 
87 ,15.7352 ,1.00152 ,3.97072 ,38.96067 
88 ,15.9114 ,1.00322 ,3.96729 ,38.92709 
89 ,16.0713 ,1.00494 ,3.94334 ,38.69205 
90 ,16.2474 ,1.00665 ,3.94334 ,38.69205 
91 ,16.4236 ,1.00835 ,3.91254 ,38.38984 
92 ,16.5994 ,1.01013 ,3.89201 ,38.18837 
93 ,16.7757 ,1.01191 ,3.87147 ,37.98690 
94 ,16.9518 ,1.01366 ,3.87832 ,38.05406 
95 ,17.1278 ,1.01538 ,3.86121 ,37.88617 
96 ,17.3038 ,1.01718 ,3.83725 ,37.65112 
97 ,17.4799 ,1.01890 ,3.80303 ,37.31534 
98 ,17.6559 ,1.02064 ,3.80303 ,37.31534 
99 ,17.8322 ,1.02246 ,3.79276 ,37.21460 
100 ,18.0082 ,1.02420 ,3.77908 ,37.08029 
101 ,18.1842 ,1.02593 ,3.75170 ,36.81166 
102 ,18.3604 ,1.02774 ,3.73459 ,36.64377 
103 ,18.5525 ,1.02965 ,3.72432 ,36.54303 
104 ,18.7285 ,1.03142 ,3.71748 ,36.47588 
105 ,18.9045 ,1.03317 ,3.70037 ,36.30799 
106 ,19.0807 ,1.03488 ,3.66272 ,35.93863 
107 ,19.2728 ,1.03679 ,3.66614 ,35.97220 
108 ,19.4488 ,1.03857 ,3.65246 ,35.83789 
109 ,19.6408 ,1.04036 ,3.62508 ,35.56926 
110 ,19.8169 ,1.04223 ,3.60454 ,35.36779 
111 ,20.0089 ,1.04418 ,3.60112 ,35.33422 
112 ,20.1687 ,1.04590 ,3.58401 ,35.16632 
113 ,20.3448 ,1.04753 ,3.57032 ,35.03201 
114 ,20.5371 ,1.04940 ,3.54637 ,34.79696 
115 ,20.7291 ,1.05129 ,3.52926 ,34.62907 
116 ,20.9048 ,1.05311 ,3.53268 ,34.66265 
117 ,21.0809 ,1.05491 ,3.49504 ,34.29329 
118 ,21.2409 ,1.05663 ,3.48135 ,34.15898 
119 ,21.4010 ,1.05824 ,3.45055 ,33.85677 
120 ,21.5773 ,1.05983 ,3.45397 ,33.89035 
121 ,21.7857 ,1.06180 ,3.45055 ,33.85677 
122 ,21.9622 ,1.06374 ,3.42317 ,33.58814 
123 ,22.1379 ,1.06547 ,3.39237 ,33.28594 
124 ,22.3138 ,1.06722 ,3.38210 ,33.18520 
125 ,22.4899 ,1.06897 ,3.39921 ,33.35310 
126 ,22.6818 ,1.07088 ,3.35130 ,32.88300 
127 ,22.8581 ,1.07267 ,3.33762 ,32.74869 
128 ,23.0499 ,1.07451 ,3.33419 ,32.71511 
129 ,23.2262 ,1.07636 ,3.32735 ,32.64795 
130 ,23.4020 ,1.07807 ,3.31366 ,32.51364 
131 ,23.5782 ,1.07986 ,3.27944 ,32.17786 
132 ,23.7704 ,1.08181 ,3.26575 ,32.04354 
133 ,23.9460 ,1.08355 ,3.26233 ,32.00996 
134 ,24.1222 ,1.08528 ,3.24864 ,31.87565 
135 ,24.2986 ,1.08700 ,3.21784 ,31.57345 
136 ,24.4746 ,1.08874 ,3.19731 ,31.37198 
137 ,24.6507 ,1.09059 ,3.20415 ,31.43913 
138 ,24.8427 ,1.09247 ,3.18362 ,31.23766 
139 ,25.0029 ,1.09417 ,3.15282 ,30.93546 
140 ,25.1790 ,1.09582 ,3.14255 ,30.83472 
141 ,25.3547 ,1.09763 ,3.11518 ,30.56610 
142 ,25.5150 ,1.09930 ,3.13229 ,30.73399 
143 ,25.7231 ,1.10124 ,3.10149 ,30.43178 
144 ,25.8992 ,1.10303 ,3.10149 ,30.43178 
145 ,26.0752 ,1.10481 ,3.07069 ,30.12958 
146 ,26.2514 ,1.10655 ,3.07411 ,30.16316 
147 ,26.4272 ,1.10834 ,3.05015 ,29.92811 
148 ,26.6035 ,1.11012 ,3.04673 ,29.89453 
149 ,26.7956 ,1.11206 ,3.00567 ,29.49159 
150 ,26.9717 ,1.11376 ,3.00567 ,29.49159 
151 ,27.1478 ,1.11557 ,2.98513 ,29.29012 
152 ,27.3077 ,1.11726 ,2.96460 ,29.08865 
153 ,27.4995 ,1.11902 ,2.94064 ,28.85360 
154 ,27.6758 ,1.12083 ,2.94064 ,28.85360 
155 ,27.8679 ,1.12274 ,2.93380 ,28.78645 
156 ,28.0280 ,1.12442 ,2.91669 ,28.61856 
157 ,28.2040 ,1.12609 ,2.89958 ,28.45066 
158 ,28.3802 ,1.12789 ,2.87562 ,28.21562 
159 ,28.5561 ,1.12959 ,2.85509 ,28.01415 
160 ,28.7483 ,1.13146 ,2.84825 ,27.94699 
161 ,28.9243 ,1.13332 ,2.83114 ,27.77910 
162 ,29.1005 ,1.13504 ,2.81402 ,27.61121 
163 ,29.2766 ,1.13679 ,2.79349 ,27.40974 
164 ,29.4526 ,1.13870 ,2.81060 ,27.57763 
165 ,29.6283 ,1.14032 ,2.78322 ,27.30900 
166 ,29.8048 ,1.14213 ,2.76954 ,27.17469 
167 ,29.9965 ,1.14402 ,2.74216 ,26.90606 
168 ,30.1731 ,1.14577 ,2.72505 ,26.73817 
169 ,30.3490 ,1.14758 ,2.71478 ,26.63744 
170 ,30.5411 ,1.14944 ,2.69767 ,26.46954 
171 ,30.7007 ,1.15115 ,2.68398 ,26.33523 
172 ,30.8773 ,1.15282 ,2.67029 ,26.20092 
173 ,31.0695 ,1.15476 ,2.65660 ,26.06661 
174 ,31.2453 ,1.15650 ,2.65660 ,26.06661 
175 ,31.4374 ,1.15832 ,2.63607 ,25.86514 
176 ,31.6131 ,1.16019 ,2.60869 ,25.59651 
177 ,31.7895 ,1.16191 ,2.58816 ,25.39504 
178 ,31.9657 ,1.16367 ,2.59158 ,25.42862 
179 ,32.1418 ,1.16543 ,2.58816 ,25.39504 
180 ,32.3497 ,1.16743 ,2.56421 ,25.15999 
181 ,32.5258 ,1.16928 ,2.54025 ,24.92494 
182 ,32.7016 ,1.17106 ,2.52656 ,24.79063 
183 ,32.8620 ,1.17273 ,2.50261 ,24.55558 
184 ,33.0381 ,1.17441 ,2.49918 ,24.52200 
185 ,33.2143 ,1.17616 ,2.47523 ,24.28696 
186 ,33.3902 ,1.17797 ,2.46154 ,24.15264 
187 ,33.5663 ,1.17966 ,2.45127 ,24.05191 
188 ,33.7425 ,1.18148 ,2.44785 ,24.01833 
189 ,33.9344 ,1.18336 ,2.41705 ,23.71612 
190 ,34.1106 ,1.18514 ,2.41021 ,23.64897 
191 ,34.2864 ,1.18692 ,2.39310 ,23.48108 
192 ,34.4787 ,1.18877 ,2.37941 ,23.34676 
193 ,34.6548 ,1.19059 ,2.37256 ,23.27961 
194 ,34.8467 ,1.19244 ,2.35888 ,23.14529 
195 ,35.0227 ,1.19428 ,2.34177 ,22.97740 
196 ,35.2150 ,1.19617 ,2.31439 ,22.70877 
197 ,35.3909 ,1.19794 ,2.29728 ,22.54088 
198 ,35.5673 ,1.19973 ,2.29728 ,22.54088 
199 ,35.7432 ,1.20151 ,2.28017 ,22.37299 
200 ,35.9193 ,1.20321 ,2.28017 ,22.37299 
201 ,36.1114 ,1.20511 ,2.23910 ,21.97005 
202 ,36.2872 ,1.20689 ,2.22541 ,21.83574 
203 ,36.4639 ,1.20868 ,2.23226 ,21.90290 
204 ,36.6396 ,1.21038 ,2.22199 ,21.80216 
205 ,36.8157 ,1.21226 ,2.19461 ,21.53353 
206 ,36.9916 ,1.21394 ,2.17408 ,21.33206 
207 ,37.1679 ,1.21573 ,2.16039 ,21.19775 
208 ,37.3759 ,1.21776 ,2.14670 ,21.06344 
209 ,37.5520 ,1.21955 ,2.12617 ,20.86197 
210 ,37.7439 ,1.22140 ,2.12959 ,20.89555 
211 ,37.9201 ,1.22321 ,2.11590 ,20.76123 
212 ,38.0797 ,1.22490 ,2.08852 ,20.49261 
213 ,38.2564 ,1.22653 ,2.07141 ,20.32472 
214 ,38.4482 ,1.22847 ,2.05773 ,20.19040 
215 ,38.6243 ,1.23024 ,2.06115 ,20.22398 
216 ,38.8005 ,1.23197 ,2.04404 ,20.05609 
217 ,39.0086 ,1.23410 ,2.02693 ,19.88820 
218 ,39.1843 ,1.23591 ,2.02008 ,19.82104 
219 ,39.3767 ,1.23774 ,2.00297 ,19.65315 
220 ,39.5689 ,1.23970 ,1.96533 ,19.28379 
221 ,39.7448 ,1.24144 ,1.95848 ,19.21663 
222 ,39.9209 ,1.24321 ,1.95164 ,19.14948 
223 ,40.0969 ,1.24499 ,1.93795 ,19.01516 
224 ,40.2891 ,1.24688 ,1.91742 ,18.81369 
225 ,40.4811 ,1.24882 ,1.92084 ,18.84727 
226 ,40.6572 ,1.25055 ,1.91057 ,18.74654 
227 ,40.8651 ,1.25258 ,1.87635 ,18.41075 
228 ,41.0409 ,1.25442 ,1.86951 ,18.34360 
229 ,41.2172 ,1.25615 ,1.84897 ,18.14213 
230 ,41.4095 ,1.25809 ,1.83528 ,18.00781 
231 ,41.6015 ,1.26000 ,1.81475 ,17.80634 
232 ,41.7773 ,1.26181 ,1.81475 ,17.80634 
233 ,41.9702 ,1.26360 ,1.79422 ,17.60487 
234 ,42.1457 ,1.26552 ,1.78053 ,17.47056 
235 ,42.3054 ,1.26716 ,1.77711 ,17.43698 
236 ,42.4818 ,1.26882 ,1.75657 ,17.23551 
237 ,42.6580 ,1.27060 ,1.74973 ,17.16836 
238 ,42.8500 ,1.27246 ,1.71893 ,16.86615 
239 ,43.0418 ,1.27433 ,1.70866 ,16.76542 
240 ,43.2182 ,1.27619 ,1.71209 ,16.79899 
241 ,43.3942 ,1.27806 ,1.67786 ,16.46321 
242 ,43.5705 ,1.27968 ,1.65391 ,16.22816 
243 ,43.7464 ,1.28145 ,1.65049 ,16.19458 
244 ,43.9225 ,1.28320 ,1.65391 ,16.22816 
245 ,44.0985 ,1.28503 ,1.62995 ,15.99311 
246 ,44.2745 ,1.28673 ,1.62995 ,15.99311 
247 ,44.4666 ,1.28865 ,1.59573 ,15.65733 
248 ,44.6426 ,1.29040 ,1.59573 ,15.65733 
249 ,44.8189 ,1.29218 ,1.58889 ,15.59018 
250 ,44.9949 ,1.29397 ,1.57178 ,15.42228 
251 ,45.1870 ,1.29591 ,1.53756 ,15.08650 
252 ,45.3791 ,1.29778 ,1.54782 ,15.18724 
253 ,45.5711 ,1.29967 ,1.51018 ,14.81787 
254 ,45.7632 ,1.30163 ,1.51018 ,14.81787 
255 ,45.9393 ,1.30338 ,1.49991 ,14.71714 
256 ,46.1313 ,1.30530 ,1.46911 ,14.41493 
257 ,46.3073 ,1.30706 ,1.45542 ,14.28062 
258 ,46.4834 ,1.30881 ,1.45542 ,14.28062 
259 ,46.6596 ,1.31062 ,1.44858 ,14.21346 
260 ,46.8356 ,1.31231 ,1.42805 ,14.01199 
261 ,47.0117 ,1.31410 ,1.42462 ,13.97842 
262 ,47.1878 ,1.31585 ,1.38698 ,13.60906 
263 ,47.3800 ,1.31779 ,1.40067 ,13.74337 
264 ,47.5556 ,1.31957 ,1.38356 ,13.57548 
265 ,47.7319 ,1.32129 ,1.35618 ,13.30685 
266 ,47.9240 ,1.32320 ,1.32880 ,13.03822 
267 ,48.1001 ,1.32496 ,1.34249 ,13.17254 
268 ,48.2763 ,1.32675 ,1.32196 ,12.97107 
269 ,48.4843 ,1.32877 ,1.31512 ,12.90391 
270 ,48.6438 ,1.33052 ,1.30143 ,12.76960 
271 ,48.8205 ,1.33216 ,1.28774 ,12.63528 
272 ,49.0124 ,1.33409 ,1.27063 ,12.46739 
273 ,49.1886 ,1.33586 ,1.24667 ,12.23235 
274 ,49.3647 ,1.33758 ,1.23641 ,12.13161 
275 ,49.5408 ,1.33936 ,1.22956 ,12.06445 
276 ,49.7328 ,1.34126 ,1.20561 ,11.82941 
277 ,49.9089 ,1.34306 ,1.19876 ,11.76225 
278 ,50.0850 ,1.34480 ,1.16796 ,11.46004 
279 ,50.2611 ,1.34656 ,1.17823 ,11.56078 
280 ,50.4369 ,1.34833 ,1.16454 ,11.42647 
281 ,50.6292 ,1.35027 ,1.13032 ,11.09068 
282 ,50.7892 ,1.35200 ,1.13374 ,11.12426 
283 ,50.9659 ,1.35366 ,1.10979 ,10.88921 
284 ,51.1574 ,1.35553 ,1.11321 ,10.92279 
285 ,51.3334 ,1.35729 ,1.09267 ,10.72132 
286 ,51.5095 ,1.35905 ,1.07556 ,10.55343 
287 ,51.6855 ,1.36082 ,1.06530 ,10.45270 
288 ,51.8616 ,1.36258 ,1.06187 ,10.41912 
289 ,52.0537 ,1.36448 ,1.05845 ,10.38554 
290 ,52.2458 ,1.36634 ,1.03450 ,10.15049 
291 ,52.4219 ,1.36819 ,1.01396 ,9.94902 
292 ,52.5979 ,1.36997 ,1.00028 ,9.81471 
293 ,52.7740 ,1.37168 ,0.99343 ,9.74755 
294 ,52.9500 ,1.37345 ,0.97974 ,9.61324 
295 ,53.1261 ,1.37529 ,0.95237 ,9.34461 
296 ,53.3181 ,1.37707 ,0.96605 ,9.47892 
297 ,53.4941 ,1.37888 ,0.94894 ,9.31103 
298 ,53.6703 ,1.38068 ,0.93183 ,9.14314 
299 ,53.8463 ,1.38239 ,0.90788 ,8.90809 
300 ,54.0386 ,1.38431 ,0.91130 ,8.94167 
301 ,54.2305 ,1.38630 ,0.88734 ,8.70662 
302 ,54.3906 ,1.38799 ,0.87023 ,8.53873 
303 ,54.5669 ,1.38962 ,0.85312 ,8.37084 
304 ,54.7425 ,1.39135 ,0.86339 ,8.47158 
305 ,54.9186 ,1.39315 ,0.83601 ,8.20295 
306 ,55.1109 ,1.39501 ,0.82917 ,8.13579 
307 ,55.3027 ,1.39698 ,0.81206 ,7.96790 
308 ,55.4631 ,1.39867 ,0.80179 ,7.86717 
309 ,55.6392 ,1.40029 ,0.80179 ,7.86717 
310 ,55.8150 ,1.40215 ,0.78810 ,7.73285 
311 ,56.0070 ,1.40395 ,0.75730 ,7.43065 
312 ,56.1833 ,1.40578 ,0.74361 ,7.29633 
313 ,56.3756 ,1.40762 ,0.73335 ,7.19560 
314 ,56.5513 ,1.40947 ,0.73335 ,7.19560 
315 ,56.7276 ,1.41121 ,0.71281 ,6.99413 
316 ,56.9197 ,1.41316 ,0.68886 ,6.75908 
317 ,57.0794 ,1.41486 ,0.69570 ,6.82624 
318 ,57.2558 ,1.41654 ,0.68201 ,6.69193 
319 ,57.4479 ,1.41833 ,0.65806 ,6.45688 
320 ,57.6240 ,1.42018 ,0.66148 ,6.49046 
321 ,57.8002 ,1.42195 ,0.63068 ,6.18825 
322 ,57.9920 ,1.42383 ,0.63068 ,6.18825 
323 ,58.1679 ,1.42559 ,0.59304 ,5.81889 
324 ,58.3442 ,1.42737 ,0.59988 ,5.88605 
325 ,58.5202 ,1.42912 ,0.58619 ,5.75173 
326 ,58.6964 ,1.43093 ,0.58619 ,5.75173 
327 ,58.8724 ,1.43262 ,0.57251 ,5.61742 
328 ,59.0486 ,1.43442 ,0.55882 ,5.48311 
329 ,59.2406 ,1.43633 ,0.53486 ,5.24806 
330 ,59.4326 ,1.43819 ,0.53486 ,5.24806 
331 ,59.6088 ,1.43999 ,0.51775 ,5.08017 
332 ,59.7848 ,1.44187 ,0.50406 ,4.94585 
333 ,59.9610 ,1.44356 ,0.50406 ,4.94585 
334 ,60.1367 ,1.44528 ,0.49722 ,4.87870 
335 ,60.3131 ,1.44706 ,0.49037 ,4.81154 
336 ,60.4889 ,1.44883 ,0.46300 ,4.54291 
337 ,60.6812 ,1.45072 ,0.44931 ,4.40860 
338 ,60.8571 ,1.45251 ,0.43904 ,4.30787 
339 ,61.0334 ,1.45426 ,0.44588 ,4.37502 
340 ,61.2254 ,1.45616 ,0.40824 ,4.00566 
341 ,61.4336 ,1.45815 ,0.40140 ,3.93850 
342 ,61.6577 ,1.46038 ,0.39113 ,3.83777 
343 ,61.8337 ,1.46228 ,0.38086 ,3.73703 
344 ,62.0096 ,1.46403 ,0.36718 ,3.60272 
345 ,62.2017 ,1.46594 ,0.34664 ,3.40125 
346 ,62.3778 ,1.46779 ,0.35349 ,3.46841 
347 ,62.5540 ,1.46945 ,0.33980 ,3.33410 
348 ,62.7301 ,1.47124 ,0.32269 ,3.16620 
349 ,62.9061 ,1.47299 ,0.29531 ,2.89758 
350 ,63.0822 ,1.47473 ,0.28504 ,2.79684 
351 ,63.2743 ,1.47666 ,0.29531 ,2.89758 
352 ,63.4504 ,1.47841 ,0.28504 ,2.79684 
353 ,63.6423 ,1.48028 ,0.25767 ,2.52822 
354 ,63.8185 ,1.48209 ,0.25082 ,2.46106 
355 ,63.9945 ,1.48384 ,0.25424 ,2.49464 
356 ,64.1706 ,1.48561 ,0.23029 ,2.25959 
357 ,64.3626 ,1.48747 ,0.21318 ,2.09170 
358 ,64.5549 ,1.48949 ,0.21318 ,2.09170 
359 ,64.7305 ,1.49125 ,0.19607 ,1.92381 
360 ,64.9068 ,1.49297 ,0.18580 ,1.82307 
361 ,65.0829 ,1.49474 ,0.16185 ,1.58802 
362 ,65.2591 ,1.49655 ,0.16527 ,1.62160 
363 ,65.4351 ,1.49828 ,0.16185 ,1.58802 
364 ,65.6111 ,1.50004 ,0.15500 ,1.52087 
365 ,65.7871 ,1.50178 ,0.13105 ,1.28582 
366 ,65.9634 ,1.50354 ,0.11393 ,1.11793 
367 ,66.1389 ,1.50532 ,0.10025 ,0.98361 
368 ,66.3153 ,1.50704 ,0.11051 ,1.08435 
369 ,66.4912 ,1.50882 ,0.10367 ,1.01719 
370 ,66.6835 ,1.51061 ,0.08314 ,0.81572 
371 ,66.8757 ,1.51262 ,0.06945 ,0.68141 
372 ,67.0517 ,1.51440 ,0.04549 ,0.44636 
373 ,67.2275 ,1.51619 ,0.04207 ,0.41278 
374 ,67.4038 ,1.51790 ,0.01811 ,0.17773 
375 ,67.5797 ,1.51968 ,0.01469 ,0.14416 
376 ,67.7561 ,1.52148 ,0.02154 ,0.21131 
377 ,67.9641 ,1.52344 ,0.00785 ,0.07700 
378 ,68.1400 ,1.52530 ,-0.02980 ,-0.29236 
379 ,68.3163 ,1.52702 ,-0.01953 ,-0.19163 
380 ,68.5084 ,1.52899 ,-0.04006 ,-0.39310 
381 ,68.6842 ,1.53071 ,-0.05375 ,-0.52741 
382 ,68.8605 ,1.53252 ,-0.07771 ,-0.76246 
383 ,69.0366 ,1.53424 ,-0.06060 ,-0.59457 
384 ,69.2287 ,1.53609 ,-0.07428 ,-0.72888 
385 ,69.4207 ,1.53807 ,-0.10166 ,-0.99751 
386 ,69.5968 ,1.53985 ,-0.10851 ,-1.06466 
387 ,69.7889 ,1.54177 ,-0.10851 ,-1.06466 
388 ,69.9809 ,1.54371 ,-0.13931 ,-1.36687 
389 ,70.1569 ,1.54540 ,-0.14273 ,-1.40045 
390 ,70.3330 ,1.54720 ,-0.12904 ,-1.26613 
391 ,70.5090 ,1.54899 ,-0.14615 ,-1.43402 
392 ,70.6850 ,1.55074 ,-0.18037 ,-1.76981 
393 ,70.8612 ,1.55252 ,-0.18379 ,-1.80338 
394 ,71.0372 ,1.55424 ,-0.18722 ,-1.83696 
395 ,71.2135 ,1.55600 ,-0.20433 ,-2.00485 
396 ,71.4215 ,1.55800 ,-0.22486 ,-2.20632 
397 ,71.5975 ,1.55991 ,-0.24881 ,-2.44137 
398 ,71.7733 ,1.56171 ,-0.23170 ,-2.27348 
399 ,71.9497 ,1.56337 ,-0.24881 ,-2.44137 
400 ,72.1416 ,1.56523 ,-0.26935 ,-2.64284 
401 ,72.3015 ,1.56702 ,-0.27961 ,-2.74358 
402 ,72.4618 ,1.56861 ,-0.28304 ,-2.77716 
403 ,72.6379 ,1.57028 ,-0.30699 ,-3.01220 
404 ,72.8139 ,1.57205 ,-0.30357 ,-2.97863 
405 ,73.0062 ,1.57393 ,-0.31041 ,-3.04578 
406 ,73.1981 ,1.57589 ,-0.33437 ,-3.28083 
407 ,73.3743 ,1.57763 ,-0.32410 ,-3.18010 
408 ,73.5504 ,1.57938 ,-0.33095 ,-3.24725 
409 ,73.7424 ,1.58126 ,-0.36859 ,-3.61661 
410 ,73.9181 ,1.58311 ,-0.38228 ,-3.75093 
411 ,74.0944 ,1.58480 ,-0.37544 ,-3.68377 
412 ,74.2709 ,1.58661 ,-0.38570 ,-3.78450 
413 ,74.4466 ,1.58839 ,-0.40281 ,-3.95240 
414 ,74.6389 ,1.59019 ,-0.40966 ,-4.01955 
415 ,74.8149 ,1.59203 ,-0.42335 ,-4.15387 
416 ,75.0069 ,1.59397 ,-0.43019 ,-4.22102 
417 ,75.1671 ,1.59564 ,-0.45414 ,-4.45607 
418 ,75.3431 ,1.59728 ,-0.46099 ,-4.52323 
419 ,75.5190 ,1.59901 ,-0.46441 ,-4.55681 
420 ,75.7112 ,1.60098 ,-0.46441 ,-4.55681 
421 ,75.8872 ,1.60271 ,-0.49179 ,-4.82543 
422 ,76.0634 ,1.60452 ,-0.50890 ,-4.99332 
423 ,76.2234 ,1.60623 ,-0.50890 ,-4.99332 
424 ,76.3996 ,1.60783 ,-0.52943 ,-5.19479 
425 ,76.5758 ,1.60964 ,-0.52259 ,-5.12764 
426 ,76.7518 ,1.61142 ,-0.51917 ,-5.09406 
427 ,76.9276 ,1.61318 ,-0.53970 ,-5.29553 
428 ,77.0875 ,1.61481 ,-0.57050 ,-5.59773 
429 ,77.2640 ,1.61652 ,-0.56365 ,-5.53058 
430 ,77.4558 ,1.61843 ,-0.58077 ,-5.69847 
431 ,77.6321 ,1.62015 ,-0.57050 ,-5.59773 
432 ,77.8081 ,1.62195 ,-0.58077 ,-5.69847 
433 ,78.0001 ,1.62385 ,-0.61499 ,-6.03425 
434 ,78.1763 ,1.62563 ,-0.59788 ,-5.86636 
435 ,78.3524 ,1.62735 ,-0.62183 ,-6.10141 
436 ,78.5445 ,1.62921 ,-0.63210 ,-6.20214 
437 ,78.7366 ,1.63119 ,-0.65605 ,-6.43719 
438 ,78.9126 ,1.63300 ,-0.65263 ,-6.40361 
439 ,79.1368 ,1.63504 ,-0.68001 ,-6.67224 
440 ,79.3288 ,1.63710 ,-0.67316 ,-6.60508 
441 ,79.5209 ,1.63904 ,-0.69712 ,-6.84013 
442 ,79.6970 ,1.64080 ,-0.70054 ,-6.87371 
443 ,79.8890 ,1.64271 ,-0.71081 ,-6.97444 
444 ,80.0652 ,1.64444 ,-0.72792 ,-7.14233 
445 ,80.2572 ,1.64643 ,-0.73476 ,-7.20949 
446 ,80.4332 ,1.64815 ,-0.73818 ,-7.24307 
447 ,80.6094 ,1.64997 ,-0.75530 ,-7.41096 
448 ,80.7851 ,1.65167 ,-0.75530 ,-7.41096 
449 ,80.9615 ,1.65348 ,-0.78610 ,-7.71317 
450 ,81.1376 ,1.65516 ,-0.78952 ,-7.74674 
451 ,81.3294 ,1.65715 ,-0.78267 ,-7.67959 
452 ,81.4893 ,1.65884 ,-0.80663 ,-7.91464 
453 ,81.6493 ,1.66046 ,-0.82032 ,-8.04895 
454 ,81.8094 ,1.66204 ,-0.82032 ,-8.04895 
455 ,81.9859 ,1.66368 ,-0.83743 ,-8.21684 
456 ,82.1939 ,1.66580 ,-0.82716 ,-8.11611 
457 ,82.3701 ,1.66765 ,-0.84769 ,-8.31758 
458 ,82.5462 ,1.66927 ,-0.87165 ,-8.55262 
459 ,82.7542 ,1.67129 ,-0.87165 ,-8.55262 
460 ,82.9304 ,1.67317 ,-0.86481 ,-8.48547 
461 ,83.1061 ,1.67497 ,-0.87849 ,-8.61978 
462 ,83.2825 ,1.67663 ,-0.90245 ,-8.85483 
463 ,83.4585 ,1.67845 ,-0.92298 ,-9.05630 
