Data stamp = , 31-03-2022 13:57:37 921

Calibration Values: 
Slope = , 26.54 , g/V 
Offset Voltage at no contact = , -0.501760 , V 

No , Time , Stage Position ,   Mass , Force 
   ,  (s) ,      (mm)      ,   (g)  , (mN)  

1 ,0.0000 ,0.84949 ,5.36354 ,52.62704 
2 ,0.2279 ,0.84959 ,5.37038 ,52.69420 
3 ,0.5322 ,0.85040 ,5.35669 ,52.55988 
4 ,0.7243 ,0.85184 ,5.36696 ,52.66062 
5 ,0.9000 ,0.85331 ,5.35669 ,52.55988 
6 ,1.0764 ,0.85497 ,5.37038 ,52.69420 
7 ,1.2524 ,0.85671 ,5.38407 ,52.82851 
8 ,1.4286 ,0.85849 ,5.37381 ,52.72778 
9 ,1.6045 ,0.86028 ,5.34985 ,52.49273 
10 ,1.7808 ,0.86206 ,5.33616 ,52.35841 
11 ,1.9725 ,0.86394 ,5.33274 ,52.32484 
12 ,2.1488 ,0.86570 ,5.31905 ,52.19052 
13 ,2.3410 ,0.86762 ,5.27798 ,51.78758 
14 ,2.5170 ,0.86946 ,5.28483 ,51.85474 
15 ,2.6932 ,0.87115 ,5.27798 ,51.78758 
16 ,2.8693 ,0.87294 ,5.26087 ,51.61969 
17 ,3.0613 ,0.87483 ,5.23350 ,51.35107 
18 ,3.2369 ,0.87656 ,5.21981 ,51.21675 
19 ,3.4130 ,0.87835 ,5.21639 ,51.18317 
20 ,3.5730 ,0.88006 ,5.19585 ,50.98170 
21 ,3.7495 ,0.88178 ,5.18559 ,50.88097 
22 ,3.9737 ,0.88386 ,5.16848 ,50.71308 
23 ,4.1495 ,0.88579 ,5.15821 ,50.61234 
24 ,4.3414 ,0.88758 ,5.12056 ,50.24298 
25 ,4.5178 ,0.88937 ,5.12399 ,50.27656 
26 ,4.7098 ,0.89131 ,5.09661 ,50.00793 
27 ,4.8861 ,0.89312 ,5.07950 ,49.84004 
28 ,5.0777 ,0.89501 ,5.05554 ,49.60499 
29 ,5.2541 ,0.89676 ,5.04870 ,49.53784 
30 ,5.4622 ,0.89883 ,5.03501 ,49.40352 
31 ,5.6701 ,0.90090 ,5.01106 ,49.16848 
32 ,5.8623 ,0.90278 ,4.99052 ,48.96701 
33 ,6.0704 ,0.90491 ,4.95630 ,48.63122 
34 ,6.2465 ,0.90667 ,4.94603 ,48.53049 
35 ,6.4227 ,0.90847 ,4.93577 ,48.42975 
36 ,6.5987 ,0.91021 ,4.91523 ,48.22828 
37 ,6.7747 ,0.91193 ,4.90839 ,48.16113 
38 ,6.9507 ,0.91371 ,4.90155 ,48.09397 
39 ,7.1428 ,0.91565 ,4.86048 ,47.69103 
40 ,7.3191 ,0.91739 ,4.84337 ,47.52314 
41 ,7.5111 ,0.91937 ,4.84679 ,47.55672 
42 ,7.6871 ,0.92109 ,4.83310 ,47.42240 
43 ,7.8630 ,0.92284 ,4.78519 ,46.95231 
44 ,8.0552 ,0.92464 ,4.78177 ,46.91873 
45 ,8.2310 ,0.92652 ,4.78177 ,46.91873 
46 ,8.4075 ,0.92829 ,4.76466 ,46.75084 
47 ,8.5996 ,0.93020 ,4.73386 ,46.44863 
48 ,8.7756 ,0.93198 ,4.72017 ,46.31432 
49 ,8.9673 ,0.93383 ,4.72359 ,46.34790 
50 ,9.1594 ,0.93577 ,4.66884 ,45.81065 
51 ,9.3355 ,0.93753 ,4.67226 ,45.84422 
52 ,9.5119 ,0.93935 ,4.66542 ,45.77707 
53 ,9.7038 ,0.94125 ,4.63462 ,45.47486 
54 ,9.8800 ,0.94301 ,4.60382 ,45.17266 
55 ,10.0558 ,0.94476 ,4.59697 ,45.10550 
56 ,10.2322 ,0.94654 ,4.58671 ,45.00477 
57 ,10.3922 ,0.94826 ,4.56617 ,44.80330 
58 ,10.5684 ,0.94995 ,4.56275 ,44.76972 
59 ,10.7603 ,0.95171 ,4.53880 ,44.53467 
60 ,10.9519 ,0.95369 ,4.52169 ,44.36678 
61 ,11.1125 ,0.95549 ,4.50457 ,44.19889 
62 ,11.2884 ,0.95707 ,4.48404 ,43.99742 
63 ,11.4807 ,0.95900 ,4.43955 ,43.56090 
64 ,11.6724 ,0.96092 ,4.45666 ,43.72879 
65 ,11.8487 ,0.96266 ,4.43271 ,43.49374 
66 ,12.0247 ,0.96444 ,4.40191 ,43.19154 
67 ,12.2009 ,0.96620 ,4.37795 ,42.95649 
68 ,12.3929 ,0.96815 ,4.37111 ,42.88933 
69 ,12.5692 ,0.96990 ,4.36769 ,42.85576 
70 ,12.7452 ,0.97167 ,4.32320 ,42.41924 
71 ,12.9372 ,0.97357 ,4.30951 ,42.28492 
72 ,13.1134 ,0.97534 ,4.30951 ,42.28492 
73 ,13.3052 ,0.97720 ,4.27187 ,41.91556 
74 ,13.4812 ,0.97901 ,4.25133 ,41.71409 
75 ,13.6574 ,0.98076 ,4.23080 ,41.51262 
76 ,13.8496 ,0.98267 ,4.23080 ,41.51262 
77 ,14.0258 ,0.98443 ,4.21027 ,41.31115 
78 ,14.2177 ,0.98637 ,4.18289 ,41.04253 
79 ,14.3935 ,0.98822 ,4.18631 ,41.07611 
80 ,14.5695 ,0.98990 ,4.17262 ,40.94179 
81 ,14.7456 ,0.99168 ,4.14525 ,40.67317 
82 ,14.9217 ,0.99348 ,4.12129 ,40.43812 
83 ,15.0978 ,0.99519 ,4.09391 ,40.16949 
84 ,15.2739 ,0.99692 ,4.08365 ,40.06876 
85 ,15.4504 ,0.99872 ,4.08707 ,40.10233 
86 ,15.6420 ,1.00060 ,4.06312 ,39.86729 
87 ,15.8184 ,1.00240 ,4.03232 ,39.56508 
88 ,16.0105 ,1.00429 ,4.02889 ,39.53150 
89 ,16.1866 ,1.00603 ,4.00152 ,39.26288 
90 ,16.3628 ,1.00784 ,3.99125 ,39.16214 
91 ,16.5708 ,1.00988 ,3.97756 ,39.02783 
92 ,16.7465 ,1.01170 ,3.95361 ,38.79278 
93 ,16.9229 ,1.01339 ,3.92623 ,38.52415 
94 ,17.0990 ,1.01516 ,3.91254 ,38.38984 
95 ,17.2911 ,1.01700 ,3.89543 ,38.22195 
96 ,17.4671 ,1.01893 ,3.87147 ,37.98690 
97 ,17.6431 ,1.02062 ,3.86463 ,37.91975 
98 ,17.8351 ,1.02249 ,3.86121 ,37.88617 
99 ,18.0274 ,1.02441 ,3.83041 ,37.58396 
100 ,18.2034 ,1.02621 ,3.81672 ,37.44965 
101 ,18.3793 ,1.02796 ,3.78934 ,37.18102 
102 ,18.5875 ,1.03000 ,3.77908 ,37.08029 
103 ,18.7794 ,1.03189 ,3.75512 ,36.84524 
104 ,18.9558 ,1.03374 ,3.74143 ,36.71093 
105 ,19.1319 ,1.03549 ,3.73117 ,36.61019 
106 ,19.3238 ,1.03736 ,3.71063 ,36.40872 
107 ,19.4999 ,1.03916 ,3.69010 ,36.20725 
108 ,19.6760 ,1.04097 ,3.66272 ,35.93863 
109 ,19.8519 ,1.04263 ,3.66957 ,36.00578 
110 ,20.0282 ,1.04447 ,3.64219 ,35.73716 
111 ,20.2043 ,1.04626 ,3.62508 ,35.56926 
112 ,20.3965 ,1.04819 ,3.60112 ,35.33422 
113 ,20.5883 ,1.05007 ,3.59428 ,35.26706 
114 ,20.7645 ,1.05182 ,3.56690 ,34.99843 
115 ,20.9561 ,1.05377 ,3.54979 ,34.83054 
116 ,21.1326 ,1.05550 ,3.54295 ,34.76338 
117 ,21.3086 ,1.05730 ,3.53610 ,34.69623 
118 ,21.4847 ,1.05903 ,3.49846 ,34.32687 
119 ,21.6768 ,1.06093 ,3.47792 ,34.12540 
120 ,21.8529 ,1.06267 ,3.47450 ,34.09182 
121 ,22.0286 ,1.06444 ,3.47792 ,34.12540 
122 ,22.2047 ,1.06620 ,3.43344 ,33.68888 
123 ,22.3811 ,1.06798 ,3.41290 ,33.48741 
124 ,22.5572 ,1.06976 ,3.40948 ,33.45383 
125 ,22.7493 ,1.07164 ,3.39921 ,33.35310 
126 ,22.9254 ,1.07343 ,3.38553 ,33.21878 
127 ,23.1173 ,1.07533 ,3.34446 ,32.81584 
128 ,23.2936 ,1.07712 ,3.34104 ,32.78227 
129 ,23.4856 ,1.07898 ,3.33077 ,32.68153 
130 ,23.6616 ,1.08075 ,3.29313 ,32.31217 
131 ,23.8538 ,1.08269 ,3.29997 ,32.37933 
132 ,24.0294 ,1.08445 ,3.28286 ,32.21143 
133 ,24.1896 ,1.08614 ,3.24864 ,31.87565 
134 ,24.3658 ,1.08785 ,3.24522 ,31.84207 
135 ,24.5260 ,1.08952 ,3.20757 ,31.47271 
136 ,24.7019 ,1.09117 ,3.20073 ,31.40555 
137 ,24.8781 ,1.09290 ,3.20415 ,31.43913 
138 ,25.0541 ,1.09470 ,3.19388 ,31.33840 
139 ,25.2299 ,1.09637 ,3.17677 ,31.17051 
140 ,25.4063 ,1.09825 ,3.14255 ,30.83472 
141 ,25.5985 ,1.10012 ,3.13229 ,30.73399 
142 ,25.7744 ,1.10185 ,3.11518 ,30.56610 
143 ,25.9502 ,1.10362 ,3.11175 ,30.53252 
144 ,26.1266 ,1.10541 ,3.08780 ,30.29747 
145 ,26.2866 ,1.10713 ,3.07411 ,30.16316 
146 ,26.4628 ,1.10875 ,3.04673 ,29.89453 
147 ,26.6547 ,1.11073 ,3.04673 ,29.89453 
148 ,26.8310 ,1.11247 ,3.02962 ,29.72664 
149 ,27.0070 ,1.11427 ,3.01251 ,29.55875 
150 ,27.1989 ,1.11615 ,2.98513 ,29.29012 
151 ,27.3753 ,1.11787 ,2.96802 ,29.12223 
152 ,27.5512 ,1.11968 ,2.97487 ,29.18939 
153 ,27.7273 ,1.12143 ,2.94749 ,28.92076 
154 ,27.9353 ,1.12343 ,2.95091 ,28.95434 
155 ,28.1114 ,1.12534 ,2.90300 ,28.48424 
156 ,28.2711 ,1.12697 ,2.89616 ,28.41709 
157 ,28.4636 ,1.12875 ,2.87905 ,28.24919 
158 ,28.6396 ,1.13058 ,2.84825 ,27.94699 
159 ,28.8157 ,1.13229 ,2.85851 ,28.04772 
160 ,28.9917 ,1.13411 ,2.84825 ,27.94699 
161 ,29.1838 ,1.13598 ,2.81060 ,27.57763 
162 ,29.3756 ,1.13787 ,2.81060 ,27.57763 
163 ,29.5519 ,1.13966 ,2.80718 ,27.54405 
164 ,29.7279 ,1.14138 ,2.78322 ,27.30900 
165 ,29.9041 ,1.14320 ,2.75243 ,27.00680 
166 ,30.0962 ,1.14511 ,2.75585 ,27.04038 
167 ,30.2723 ,1.14691 ,2.73189 ,26.80533 
168 ,30.4482 ,1.14871 ,2.70452 ,26.53670 
169 ,30.6242 ,1.15038 ,2.68740 ,26.36881 
170 ,30.8004 ,1.15210 ,2.68056 ,26.30165 
171 ,30.9768 ,1.15390 ,2.67372 ,26.23450 
172 ,31.1687 ,1.15584 ,2.66003 ,26.10018 
173 ,31.3606 ,1.15768 ,2.63607 ,25.86514 
174 ,31.5526 ,1.15963 ,2.62581 ,25.76440 
175 ,31.7446 ,1.16156 ,2.59843 ,25.49577 
176 ,31.9209 ,1.16332 ,2.58132 ,25.32788 
177 ,32.1127 ,1.16517 ,2.57789 ,25.29430 
178 ,32.3051 ,1.16721 ,2.56078 ,25.12641 
179 ,32.5127 ,1.16912 ,2.55394 ,25.05926 
180 ,32.6891 ,1.17099 ,2.53341 ,24.85779 
181 ,32.8651 ,1.17276 ,2.51630 ,24.68989 
182 ,33.0414 ,1.17451 ,2.49576 ,24.48842 
183 ,33.2175 ,1.17631 ,2.48207 ,24.35411 
184 ,33.3935 ,1.17810 ,2.47865 ,24.32053 
185 ,33.5852 ,1.17995 ,2.44785 ,24.01833 
186 ,33.7455 ,1.18170 ,2.42732 ,23.81686 
187 ,33.9217 ,1.18333 ,2.42732 ,23.81686 
188 ,34.0974 ,1.18517 ,2.40679 ,23.61539 
189 ,34.2737 ,1.18684 ,2.39652 ,23.51465 
190 ,34.4658 ,1.18878 ,2.39310 ,23.48108 
191 ,34.6415 ,1.19053 ,2.36914 ,23.24603 
192 ,34.8177 ,1.19234 ,2.36572 ,23.21245 
193 ,34.9941 ,1.19406 ,2.35203 ,23.07814 
194 ,35.1858 ,1.19597 ,2.32465 ,22.80951 
195 ,35.3622 ,1.19773 ,2.30412 ,22.60804 
196 ,35.5381 ,1.19947 ,2.31097 ,22.67520 
197 ,35.7139 ,1.20122 ,2.29728 ,22.54088 
198 ,35.8905 ,1.20299 ,2.26306 ,22.20510 
199 ,36.0826 ,1.20496 ,2.24594 ,22.03721 
200 ,36.2746 ,1.20677 ,2.24252 ,22.00363 
201 ,36.4667 ,1.20879 ,2.22199 ,21.80216 
202 ,36.6588 ,1.21072 ,2.21515 ,21.73500 
203 ,36.8348 ,1.21247 ,2.21172 ,21.70143 
204 ,37.0269 ,1.21438 ,2.18777 ,21.46638 
205 ,37.2030 ,1.21616 ,2.16723 ,21.26491 
206 ,37.3950 ,1.21808 ,2.15697 ,21.16417 
207 ,37.5712 ,1.21984 ,2.12959 ,20.89555 
208 ,37.7471 ,1.22158 ,2.12617 ,20.86197 
209 ,37.9393 ,1.22347 ,2.11590 ,20.76123 
210 ,38.1314 ,1.22545 ,2.09195 ,20.52619 
211 ,38.3235 ,1.22735 ,2.07484 ,20.35829 
212 ,38.5315 ,1.22929 ,2.06457 ,20.25756 
213 ,38.7076 ,1.23115 ,2.05088 ,20.12325 
214 ,38.8838 ,1.23293 ,2.03035 ,19.92178 
215 ,39.0755 ,1.23484 ,2.03035 ,19.92178 
216 ,39.2515 ,1.23659 ,2.02008 ,19.82104 
217 ,39.4437 ,1.23841 ,1.99270 ,19.55241 
218 ,39.6200 ,1.24028 ,1.96875 ,19.31737 
219 ,39.8121 ,1.24214 ,1.97217 ,19.35094 
220 ,39.9882 ,1.24395 ,1.95164 ,19.14948 
221 ,40.1641 ,1.24579 ,1.92084 ,18.84727 
222 ,40.3403 ,1.24748 ,1.91399 ,18.78011 
223 ,40.5329 ,1.24939 ,1.91742 ,18.81369 
224 ,40.7084 ,1.25117 ,1.90031 ,18.64580 
225 ,40.9006 ,1.25309 ,1.87977 ,18.44433 
226 ,41.0926 ,1.25497 ,1.89004 ,18.54507 
227 ,41.2844 ,1.25694 ,1.84897 ,18.14213 
228 ,41.4608 ,1.25866 ,1.83871 ,18.04139 
229 ,41.6529 ,1.26065 ,1.83186 ,17.97423 
230 ,41.8449 ,1.26253 ,1.80791 ,17.73919 
231 ,42.0206 ,1.26430 ,1.80449 ,17.70561 
232 ,42.2131 ,1.26611 ,1.79422 ,17.60487 
233 ,42.4051 ,1.26818 ,1.76342 ,17.30267 
234 ,42.5812 ,1.26988 ,1.76000 ,17.26909 
235 ,42.7572 ,1.27166 ,1.74631 ,17.13478 
236 ,42.9332 ,1.27344 ,1.73604 ,17.03404 
237 ,43.1254 ,1.27527 ,1.70524 ,16.73184 
238 ,43.3011 ,1.27711 ,1.69155 ,16.59752 
239 ,43.4934 ,1.27898 ,1.69155 ,16.59752 
240 ,43.6697 ,1.28083 ,1.67444 ,16.42963 
241 ,43.8454 ,1.28252 ,1.64364 ,16.12743 
242 ,44.0217 ,1.28431 ,1.64364 ,16.12743 
243 ,44.1978 ,1.28616 ,1.63680 ,16.06027 
244 ,44.3739 ,1.28784 ,1.64022 ,16.09385 
245 ,44.5500 ,1.28953 ,1.60600 ,15.75807 
246 ,44.7260 ,1.29131 ,1.58547 ,15.55660 
247 ,44.9019 ,1.29311 ,1.58204 ,15.52302 
248 ,45.0943 ,1.29501 ,1.57178 ,15.42228 
249 ,45.2699 ,1.29677 ,1.55467 ,15.25439 
250 ,45.4623 ,1.29858 ,1.53413 ,15.05292 
251 ,45.6384 ,1.30045 ,1.53413 ,15.05292 
252 ,45.8146 ,1.30227 ,1.52045 ,14.91861 
253 ,45.9905 ,1.30397 ,1.49649 ,14.68356 
254 ,46.1668 ,1.30578 ,1.46911 ,14.41493 
255 ,46.3587 ,1.30759 ,1.48280 ,14.54925 
256 ,46.5508 ,1.30961 ,1.45885 ,14.31420 
257 ,46.7269 ,1.31135 ,1.43147 ,14.04557 
258 ,46.9190 ,1.31321 ,1.43489 ,14.07915 
259 ,47.0950 ,1.31505 ,1.42120 ,13.94484 
260 ,47.2709 ,1.31679 ,1.39383 ,13.67621 
261 ,47.4472 ,1.31852 ,1.36987 ,13.44116 
262 ,47.6233 ,1.32033 ,1.36987 ,13.44116 
263 ,47.7992 ,1.32206 ,1.37329 ,13.47474 
264 ,47.9757 ,1.32384 ,1.36987 ,13.44116 
265 ,48.1674 ,1.32572 ,1.33223 ,13.07180 
266 ,48.3431 ,1.32745 ,1.32196 ,12.97107 
267 ,48.5196 ,1.32923 ,1.31854 ,12.93749 
268 ,48.7115 ,1.33110 ,1.30485 ,12.80318 
269 ,48.9038 ,1.33311 ,1.28089 ,12.56813 
270 ,49.0796 ,1.33490 ,1.27747 ,12.53455 
271 ,49.2875 ,1.33684 ,1.25009 ,12.26592 
272 ,49.4638 ,1.33874 ,1.23641 ,12.13161 
273 ,49.6400 ,1.34053 ,1.22272 ,11.99730 
274 ,49.8159 ,1.34219 ,1.21245 ,11.89656 
275 ,49.9922 ,1.34400 ,1.19534 ,11.72867 
276 ,50.1843 ,1.34591 ,1.19192 ,11.69509 
277 ,50.3761 ,1.34782 ,1.17481 ,11.52720 
278 ,50.5525 ,1.34954 ,1.16112 ,11.39289 
279 ,50.7605 ,1.35166 ,1.14401 ,11.22500 
280 ,50.9686 ,1.35368 ,1.12690 ,11.05710 
281 ,51.1607 ,1.35569 ,1.13032 ,11.09068 
282 ,51.3207 ,1.35739 ,1.11321 ,10.92279 
283 ,51.4968 ,1.35897 ,1.07899 ,10.58701 
284 ,51.6730 ,1.36077 ,1.06187 ,10.41912 
285 ,51.8490 ,1.36249 ,1.05161 ,10.31838 
286 ,52.0250 ,1.36433 ,1.03450 ,10.15049 
287 ,52.2171 ,1.36624 ,1.04134 ,10.21765 
288 ,52.4091 ,1.36809 ,1.00712 ,9.88186 
289 ,52.5850 ,1.36987 ,1.01396 ,9.94902 
290 ,52.7775 ,1.37174 ,1.00028 ,9.81471 
291 ,52.9532 ,1.37359 ,0.97632 ,9.57966 
292 ,53.1453 ,1.37550 ,0.97974 ,9.61324 
293 ,53.3214 ,1.37720 ,0.96263 ,9.44535 
294 ,53.4977 ,1.37901 ,0.95237 ,9.34461 
295 ,53.6738 ,1.38080 ,0.92841 ,9.10956 
296 ,53.8818 ,1.38273 ,0.92841 ,9.10956 
297 ,54.0576 ,1.38463 ,0.90788 ,8.90809 
298 ,54.2498 ,1.38654 ,0.89077 ,8.74020 
299 ,54.4260 ,1.38828 ,0.87708 ,8.60589 
300 ,54.6018 ,1.39004 ,0.88050 ,8.63947 
301 ,54.7783 ,1.39183 ,0.86339 ,8.47158 
302 ,54.9702 ,1.39373 ,0.82575 ,8.10221 
303 ,55.1462 ,1.39549 ,0.82575 ,8.10221 
304 ,55.3221 ,1.39723 ,0.81890 ,8.03506 
305 ,55.4824 ,1.39896 ,0.80521 ,7.90074 
306 ,55.6581 ,1.40059 ,0.79495 ,7.80001 
307 ,55.8344 ,1.40236 ,0.78126 ,7.66570 
308 ,56.0106 ,1.40414 ,0.74704 ,7.32991 
309 ,56.1869 ,1.40593 ,0.74704 ,7.32991 
310 ,56.3788 ,1.40778 ,0.74704 ,7.32991 
311 ,56.5549 ,1.40956 ,0.72308 ,7.09486 
312 ,56.7306 ,1.41137 ,0.71281 ,6.99413 
313 ,56.9069 ,1.41307 ,0.70597 ,6.92697 
314 ,57.0992 ,1.41505 ,0.70597 ,6.92697 
315 ,57.2751 ,1.41679 ,0.67175 ,6.59119 
316 ,57.4512 ,1.41851 ,0.65121 ,6.38972 
317 ,57.6272 ,1.42027 ,0.66490 ,6.52403 
318 ,57.8030 ,1.42204 ,0.65806 ,6.45688 
319 ,57.9795 ,1.42380 ,0.63753 ,6.25541 
320 ,58.1717 ,1.42578 ,0.62384 ,6.12109 
321 ,58.3474 ,1.42750 ,0.61015 ,5.98678 
322 ,58.5237 ,1.42924 ,0.60330 ,5.91962 
323 ,58.6997 ,1.43103 ,0.59646 ,5.85247 
324 ,58.8759 ,1.43292 ,0.56224 ,5.51668 
325 ,59.0519 ,1.43456 ,0.54855 ,5.38237 
326 ,59.2280 ,1.43630 ,0.54855 ,5.38237 
327 ,59.4199 ,1.43823 ,0.53828 ,5.28164 
328 ,59.6121 ,1.44007 ,0.51775 ,5.08017 
329 ,59.7882 ,1.44192 ,0.52117 ,5.11375 
330 ,59.9642 ,1.44371 ,0.49722 ,4.87870 
331 ,60.1564 ,1.44553 ,0.49037 ,4.81154 
332 ,60.3324 ,1.44732 ,0.46642 ,4.57649 
333 ,60.5085 ,1.44913 ,0.45957 ,4.50934 
334 ,60.7167 ,1.45116 ,0.43904 ,4.30787 
335 ,60.9084 ,1.45314 ,0.42535 ,4.17355 
336 ,61.0847 ,1.45484 ,0.43562 ,4.27429 
337 ,61.2770 ,1.45683 ,0.41166 ,4.03924 
338 ,61.4688 ,1.45861 ,0.38429 ,3.77061 
339 ,61.6770 ,1.46072 ,0.39455 ,3.87135 
340 ,61.8530 ,1.46257 ,0.36375 ,3.56914 
341 ,62.0128 ,1.46425 ,0.36033 ,3.53557 
342 ,62.1891 ,1.46585 ,0.35349 ,3.46841 
343 ,62.3653 ,1.46767 ,0.35691 ,3.50199 
344 ,62.5414 ,1.46946 ,0.32611 ,3.19978 
345 ,62.7175 ,1.47123 ,0.32611 ,3.19978 
346 ,62.8935 ,1.47292 ,0.30558 ,2.99831 
347 ,63.0691 ,1.47470 ,0.29873 ,2.93116 
348 ,63.2456 ,1.47643 ,0.29189 ,2.86400 
349 ,63.4217 ,1.47827 ,0.28162 ,2.76326 
350 ,63.5978 ,1.47996 ,0.24740 ,2.42748 
351 ,63.7734 ,1.48172 ,0.23371 ,2.29317 
352 ,63.9494 ,1.48352 ,0.23371 ,2.29317 
353 ,64.1257 ,1.48525 ,0.22687 ,2.22601 
354 ,64.3340 ,1.48726 ,0.21318 ,2.09170 
355 ,64.5260 ,1.48923 ,0.19949 ,1.95738 
356 ,64.7022 ,1.49101 ,0.18922 ,1.85665 
357 ,64.8785 ,1.49276 ,0.17211 ,1.68876 
358 ,65.0703 ,1.49468 ,0.17896 ,1.75592 
359 ,65.2624 ,1.49652 ,0.16185 ,1.58802 
360 ,65.4546 ,1.49854 ,0.13105 ,1.28582 
361 ,65.6306 ,1.50029 ,0.12420 ,1.21866 
362 ,65.8068 ,1.50207 ,0.12762 ,1.25224 
363 ,65.9988 ,1.50401 ,0.10709 ,1.05077 
364 ,66.1905 ,1.50587 ,0.09340 ,0.91646 
365 ,66.3671 ,1.50768 ,0.10025 ,0.98361 
366 ,66.5590 ,1.50958 ,0.06602 ,0.64783 
367 ,66.7511 ,1.51150 ,0.07287 ,0.71499 
368 ,66.9271 ,1.51325 ,0.05576 ,0.54710 
369 ,67.1352 ,1.51533 ,0.02838 ,0.27847 
370 ,67.3112 ,1.51708 ,0.02496 ,0.24489 
371 ,67.4874 ,1.51890 ,0.02154 ,0.21131 
372 ,67.6635 ,1.52064 ,0.00785 ,0.07700 
373 ,67.8395 ,1.52242 ,-0.03322 ,-0.32594 
374 ,68.0155 ,1.52412 ,-0.03664 ,-0.35952 
375 ,68.1917 ,1.52592 ,-0.04006 ,-0.39310 
376 ,68.3517 ,1.52759 ,-0.03322 ,-0.32594 
377 ,68.5277 ,1.52924 ,-0.05033 ,-0.49383 
378 ,68.7039 ,1.53100 ,-0.07086 ,-0.69530 
379 ,68.8801 ,1.53278 ,-0.08113 ,-0.79604 
380 ,69.0881 ,1.53482 ,-0.08797 ,-0.86319 
381 ,69.2642 ,1.53661 ,-0.10851 ,-1.06466 
382 ,69.4560 ,1.53852 ,-0.12904 ,-1.26613 
383 ,69.6639 ,1.54062 ,-0.13588 ,-1.33329 
384 ,69.8403 ,1.54234 ,-0.14615 ,-1.43402 
385 ,70.0324 ,1.54418 ,-0.16668 ,-1.63549 
386 ,70.2245 ,1.54622 ,-0.15984 ,-1.56834 
387 ,70.4006 ,1.54797 ,-0.18379 ,-1.80338 
388 ,70.5927 ,1.54986 ,-0.19748 ,-1.93770 
389 ,70.7847 ,1.55183 ,-0.19748 ,-1.93770 
390 ,70.9608 ,1.55355 ,-0.21117 ,-2.07201 
391 ,71.1529 ,1.55547 ,-0.23170 ,-2.27348 
392 ,71.3291 ,1.55725 ,-0.22144 ,-2.17275 
393 ,71.5051 ,1.55903 ,-0.24197 ,-2.37422 
394 ,71.7132 ,1.56103 ,-0.24881 ,-2.44137 
395 ,71.9050 ,1.56292 ,-0.27277 ,-2.67642 
396 ,72.0811 ,1.56480 ,-0.28988 ,-2.84431 
397 ,72.2732 ,1.56665 ,-0.30699 ,-3.01220 
398 ,72.4492 ,1.56843 ,-0.30357 ,-2.97863 
399 ,72.6412 ,1.57031 ,-0.32410 ,-3.18010 
400 ,72.8494 ,1.57240 ,-0.32068 ,-3.14652 
401 ,73.0254 ,1.57419 ,-0.33779 ,-3.31441 
402 ,73.2016 ,1.57592 ,-0.35148 ,-3.44872 
403 ,73.3776 ,1.57775 ,-0.37544 ,-3.68377 
404 ,73.5535 ,1.57950 ,-0.37201 ,-3.65019 
405 ,73.7299 ,1.58123 ,-0.38570 ,-3.78450 
406 ,73.9219 ,1.58311 ,-0.39939 ,-3.91882 
407 ,74.0980 ,1.58493 ,-0.41992 ,-4.12029 
408 ,74.2900 ,1.58686 ,-0.41650 ,-4.08671 
409 ,74.4662 ,1.58865 ,-0.43019 ,-4.22102 
410 ,74.6421 ,1.59041 ,-0.43361 ,-4.25460 
411 ,74.8183 ,1.59212 ,-0.45757 ,-4.48965 
412 ,75.0103 ,1.59406 ,-0.45757 ,-4.48965 
413 ,75.2025 ,1.59589 ,-0.47468 ,-4.65754 
414 ,75.3784 ,1.59771 ,-0.49521 ,-4.85901 
415 ,75.5546 ,1.59952 ,-0.49863 ,-4.89259 
416 ,75.7466 ,1.60134 ,-0.49863 ,-4.89259 
417 ,75.9388 ,1.60328 ,-0.53970 ,-5.29553 
418 ,76.1308 ,1.60521 ,-0.52601 ,-5.16121 
419 ,76.3389 ,1.60720 ,-0.55681 ,-5.46342 
420 ,76.5470 ,1.60927 ,-0.56023 ,-5.49700 
421 ,76.7227 ,1.61123 ,-0.58077 ,-5.69847 
422 ,76.8988 ,1.61292 ,-0.58761 ,-5.76562 
423 ,77.0753 ,1.61471 ,-0.60472 ,-5.93352 
424 ,77.2671 ,1.61666 ,-0.59103 ,-5.79920 
425 ,77.4433 ,1.61841 ,-0.62868 ,-6.16856 
426 ,77.6194 ,1.62012 ,-0.62868 ,-6.16856 
427 ,77.7954 ,1.62187 ,-0.64236 ,-6.30288 
428 ,77.9714 ,1.62364 ,-0.63894 ,-6.26930 
429 ,78.1476 ,1.62542 ,-0.63894 ,-6.26930 
430 ,78.3237 ,1.62722 ,-0.66290 ,-6.50435 
431 ,78.4997 ,1.62894 ,-0.69370 ,-6.80655 
432 ,78.6756 ,1.63067 ,-0.69027 ,-6.77297 
433 ,78.8516 ,1.63243 ,-0.69370 ,-6.80655 
434 ,79.0438 ,1.63427 ,-0.69712 ,-6.84013 
435 ,79.2359 ,1.63619 ,-0.71765 ,-7.04160 
436 ,79.4120 ,1.63802 ,-0.73134 ,-7.17591 
437 ,79.5880 ,1.63984 ,-0.73134 ,-7.17591 
438 ,79.7804 ,1.64172 ,-0.77241 ,-7.57885 
439 ,79.9563 ,1.64347 ,-0.77241 ,-7.57885 
440 ,80.1484 ,1.64545 ,-0.77241 ,-7.57885 
441 ,80.3244 ,1.64723 ,-0.78610 ,-7.71317 
442 ,80.5006 ,1.64895 ,-0.80663 ,-7.91464 
443 ,80.6767 ,1.65070 ,-0.82032 ,-8.04895 
444 ,80.8688 ,1.65261 ,-0.81689 ,-8.01537 
445 ,81.0608 ,1.65446 ,-0.83743 ,-8.21684 
446 ,81.2367 ,1.65629 ,-0.84769 ,-8.31758 
447 ,81.4289 ,1.65819 ,-0.84427 ,-8.28400 
448 ,81.6051 ,1.65998 ,-0.86481 ,-8.48547 
449 ,81.7970 ,1.66189 ,-0.87165 ,-8.55262 
450 ,81.9727 ,1.66368 ,-0.87507 ,-8.58620 
451 ,82.1489 ,1.66545 ,-0.89218 ,-8.75409 
452 ,82.3253 ,1.66717 ,-0.90245 ,-8.85483 
453 ,82.5174 ,1.66915 ,-0.91956 ,-9.02272 
454 ,82.7094 ,1.67102 ,-0.91614 ,-8.98914 
455 ,82.8852 ,1.67275 ,-0.92298 ,-9.05630 
456 ,83.0613 ,1.67451 ,-0.95720 ,-9.39208 
457 ,83.2377 ,1.67629 ,-0.96063 ,-9.42566 
458 ,83.4298 ,1.67811 ,-0.95036 ,-9.32492 
459 ,83.6217 ,1.68015 ,-0.97431 ,-9.55997 
460 ,83.7977 ,1.68189 ,-0.99485 ,-9.76144 
461 ,83.9900 ,1.68375 ,-0.98800 ,-9.69429 
462 ,84.1820 ,1.68572 ,-1.01880 ,-9.99649 
463 ,84.3740 ,1.68769 ,-1.02222 ,-10.03007 
