Data stamp = , 31-03-2022 02:28:20 727

Calibration Values: 
Slope = , 26.54 , g/V 
Offset Voltage at no contact = , -0.501760 , V 

No , Time , Stage Position ,   Mass , Force 
   ,  (s) ,      (mm)      ,   (g)  , (mN)  

1 ,0.0000 ,0.84955 ,5.33958 ,52.39199 
2 ,0.2044 ,0.84962 ,5.34643 ,52.45915 
3 ,0.5244 ,0.85041 ,5.33958 ,52.39199 
4 ,0.7007 ,0.85174 ,5.33958 ,52.39199 
5 ,0.8928 ,0.85331 ,5.35327 ,52.52631 
6 ,1.0689 ,0.85496 ,5.34985 ,52.49273 
7 ,1.2611 ,0.85682 ,5.34985 ,52.49273 
8 ,1.4371 ,0.85868 ,5.34985 ,52.49273 
9 ,1.6129 ,0.86045 ,5.33958 ,52.39199 
10 ,1.7892 ,0.86220 ,5.33958 ,52.39199 
11 ,1.9813 ,0.86417 ,5.30536 ,52.05621 
12 ,2.1574 ,0.86590 ,5.29852 ,51.98905 
13 ,2.3334 ,0.86762 ,5.29852 ,51.98905 
14 ,2.5095 ,0.86942 ,5.29852 ,51.98905 
15 ,2.6856 ,0.87128 ,5.26772 ,51.68685 
16 ,2.8618 ,0.87294 ,5.24376 ,51.45180 
17 ,3.0374 ,0.87478 ,5.23692 ,51.38464 
18 ,3.2139 ,0.87641 ,5.22665 ,51.28391 
19 ,3.3901 ,0.87822 ,5.20954 ,51.11602 
20 ,3.5980 ,0.88028 ,5.18559 ,50.88097 
21 ,3.7580 ,0.88198 ,5.17190 ,50.74666 
22 ,3.9341 ,0.88366 ,5.17190 ,50.74666 
23 ,4.1101 ,0.88541 ,5.14110 ,50.44445 
24 ,4.3023 ,0.88729 ,5.10688 ,50.10867 
25 ,4.4782 ,0.88908 ,5.09319 ,49.97436 
26 ,4.6545 ,0.89089 ,5.07608 ,49.80646 
27 ,4.8305 ,0.89258 ,5.07950 ,49.84004 
28 ,5.0066 ,0.89441 ,5.06581 ,49.70573 
29 ,5.1827 ,0.89616 ,5.04870 ,49.53784 
30 ,5.3748 ,0.89804 ,5.02132 ,49.26921 
31 ,5.5507 ,0.89981 ,5.00421 ,49.10132 
32 ,5.7268 ,0.90157 ,5.00421 ,49.10132 
33 ,5.8870 ,0.90328 ,4.97683 ,48.83269 
34 ,6.0469 ,0.90491 ,4.95288 ,48.59764 
35 ,6.2231 ,0.90647 ,4.94261 ,48.49691 
36 ,6.3991 ,0.90829 ,4.91523 ,48.22828 
37 ,6.5909 ,0.91017 ,4.91523 ,48.22828 
38 ,6.7672 ,0.91192 ,4.89470 ,48.02681 
39 ,6.9595 ,0.91383 ,4.86048 ,47.69103 
40 ,7.1675 ,0.91590 ,4.86390 ,47.72461 
41 ,7.3435 ,0.91775 ,4.83995 ,47.48956 
42 ,7.5356 ,0.91963 ,4.81599 ,47.25451 
43 ,7.7276 ,0.92166 ,4.79546 ,47.05304 
44 ,7.9035 ,0.92330 ,4.78861 ,46.98589 
45 ,8.0797 ,0.92508 ,4.75782 ,46.68368 
46 ,8.2719 ,0.92701 ,4.74755 ,46.58295 
47 ,8.4477 ,0.92877 ,4.73728 ,46.48221 
48 ,8.6239 ,0.93049 ,4.72359 ,46.34790 
49 ,8.8002 ,0.93228 ,4.69279 ,46.04569 
50 ,8.9761 ,0.93421 ,4.66542 ,45.77707 
51 ,9.1521 ,0.93575 ,4.67568 ,45.87780 
52 ,9.3444 ,0.93775 ,4.64488 ,45.57560 
53 ,9.5203 ,0.93948 ,4.63119 ,45.44128 
54 ,9.6966 ,0.94125 ,4.61066 ,45.23981 
55 ,9.8725 ,0.94297 ,4.57986 ,44.93761 
56 ,10.0486 ,0.94473 ,4.57986 ,44.93761 
57 ,10.2246 ,0.94646 ,4.56275 ,44.76972 
58 ,10.4006 ,0.94829 ,4.53195 ,44.46751 
59 ,10.5769 ,0.95006 ,4.51484 ,44.29962 
60 ,10.7528 ,0.95180 ,4.50115 ,44.16531 
61 ,10.9449 ,0.95377 ,4.49431 ,44.09815 
62 ,11.1050 ,0.95541 ,4.46693 ,43.82953 
63 ,11.2811 ,0.95706 ,4.44640 ,43.62806 
64 ,11.4569 ,0.95885 ,4.43271 ,43.49374 
65 ,11.6653 ,0.96082 ,4.42929 ,43.46016 
66 ,11.8411 ,0.96276 ,4.39849 ,43.15796 
67 ,12.0175 ,0.96439 ,4.37795 ,42.95649 
68 ,12.2092 ,0.96635 ,4.36769 ,42.85576 
69 ,12.4016 ,0.96831 ,4.34716 ,42.65429 
70 ,12.5935 ,0.97018 ,4.32662 ,42.45282 
71 ,12.7858 ,0.97215 ,4.32662 ,42.45282 
72 ,12.9618 ,0.97390 ,4.29240 ,42.11703 
73 ,13.1375 ,0.97563 ,4.28213 ,42.01630 
74 ,13.3460 ,0.97760 ,4.27187 ,41.91556 
75 ,13.5221 ,0.97952 ,4.24449 ,41.64694 
76 ,13.6981 ,0.98127 ,4.21369 ,41.34473 
77 ,13.8742 ,0.98300 ,4.19658 ,41.17684 
78 ,14.0501 ,0.98474 ,4.19658 ,41.17684 
79 ,14.2260 ,0.98652 ,4.18974 ,41.10968 
80 ,14.4184 ,0.98837 ,4.14867 ,40.70674 
81 ,14.6104 ,0.99039 ,4.13840 ,40.60601 
82 ,14.7865 ,0.99214 ,4.13156 ,40.53885 
83 ,14.9627 ,0.99385 ,4.09391 ,40.16949 
84 ,15.1387 ,0.99567 ,4.08707 ,40.10233 
85 ,15.3304 ,0.99755 ,4.07680 ,40.00160 
86 ,15.5228 ,0.99943 ,4.05285 ,39.76655 
87 ,15.6991 ,1.00125 ,4.03232 ,39.56508 
88 ,15.8751 ,1.00306 ,4.01178 ,39.36361 
89 ,16.0509 ,1.00478 ,4.00152 ,39.26288 
90 ,16.2272 ,1.00650 ,4.00494 ,39.29646 
91 ,16.4191 ,1.00842 ,3.97072 ,38.96067 
92 ,16.5954 ,1.01022 ,3.94334 ,38.69205 
93 ,16.7713 ,1.01198 ,3.92965 ,38.55773 
94 ,16.9474 ,1.01372 ,3.92623 ,38.52415 
95 ,17.1233 ,1.01548 ,3.90912 ,38.35626 
96 ,17.2995 ,1.01723 ,3.87147 ,37.98690 
97 ,17.5076 ,1.01925 ,3.88516 ,38.12122 
98 ,17.6838 ,1.02108 ,3.86121 ,37.88617 
99 ,17.8600 ,1.02284 ,3.83041 ,37.58396 
100 ,18.0521 ,1.02469 ,3.80987 ,37.38249 
101 ,18.2281 ,1.02654 ,3.80987 ,37.38249 
102 ,18.4196 ,1.02842 ,3.78250 ,37.11387 
103 ,18.5960 ,1.03019 ,3.76881 ,36.97955 
104 ,18.7720 ,1.03194 ,3.75170 ,36.81166 
105 ,18.9483 ,1.03373 ,3.74143 ,36.71093 
106 ,19.1404 ,1.03559 ,3.72090 ,36.50946 
107 ,19.3324 ,1.03755 ,3.72090 ,36.50946 
108 ,19.5085 ,1.03930 ,3.69694 ,36.27441 
109 ,19.6847 ,1.04112 ,3.67983 ,36.10652 
110 ,19.8607 ,1.04285 ,3.66272 ,35.93863 
111 ,20.0368 ,1.04464 ,3.64219 ,35.73716 
112 ,20.2127 ,1.04639 ,3.61823 ,35.50211 
113 ,20.3890 ,1.04814 ,3.61481 ,35.46853 
114 ,20.5650 ,1.04988 ,3.59770 ,35.30064 
115 ,20.7410 ,1.05161 ,3.57717 ,35.09917 
116 ,20.9171 ,1.05338 ,3.56690 ,34.99843 
117 ,21.1090 ,1.05534 ,3.53952 ,34.72981 
118 ,21.2851 ,1.05712 ,3.54295 ,34.76338 
119 ,21.4772 ,1.05899 ,3.50188 ,34.36045 
120 ,21.6534 ,1.06074 ,3.49846 ,34.32687 
121 ,21.8294 ,1.06256 ,3.47792 ,34.12540 
122 ,22.0056 ,1.06426 ,3.47108 ,34.05824 
123 ,22.1977 ,1.06622 ,3.44713 ,33.82319 
124 ,22.3898 ,1.06811 ,3.44028 ,33.75604 
125 ,22.5657 ,1.06988 ,3.43344 ,33.68888 
126 ,22.7259 ,1.07158 ,3.40606 ,33.42025 
127 ,22.9178 ,1.07337 ,3.37868 ,33.15163 
128 ,23.0940 ,1.07515 ,3.37184 ,33.08447 
129 ,23.2701 ,1.07687 ,3.35815 ,32.95016 
130 ,23.4780 ,1.07894 ,3.33077 ,32.68153 
131 ,23.6541 ,1.08073 ,3.31366 ,32.51364 
132 ,23.8463 ,1.08264 ,3.31024 ,32.48006 
133 ,24.0223 ,1.08441 ,3.30682 ,32.44648 
134 ,24.1982 ,1.08623 ,3.26917 ,32.07712 
135 ,24.3745 ,1.08798 ,3.25548 ,31.94281 
136 ,24.5505 ,1.08968 ,3.23837 ,31.77492 
137 ,24.7265 ,1.09146 ,3.24180 ,31.80849 
138 ,24.9186 ,1.09337 ,3.21100 ,31.50629 
139 ,25.0947 ,1.09516 ,3.19046 ,31.30482 
140 ,25.2708 ,1.09693 ,3.17677 ,31.17051 
141 ,25.4470 ,1.09872 ,3.16993 ,31.10335 
142 ,25.6391 ,1.10060 ,3.14940 ,30.90188 
143 ,25.8147 ,1.10238 ,3.13229 ,30.73399 
144 ,25.9916 ,1.10413 ,3.11518 ,30.56610 
145 ,26.1832 ,1.10604 ,3.10491 ,30.46536 
146 ,26.3593 ,1.10779 ,3.09122 ,30.33105 
147 ,26.5356 ,1.10956 ,3.06726 ,30.09600 
148 ,26.7115 ,1.11134 ,3.04673 ,29.89453 
149 ,26.9033 ,1.11327 ,3.05358 ,29.96169 
150 ,27.0956 ,1.11518 ,3.01593 ,29.59233 
151 ,27.2876 ,1.11707 ,3.00909 ,29.52517 
152 ,27.4638 ,1.11886 ,3.00567 ,29.49159 
153 ,27.6556 ,1.12076 ,2.95091 ,28.95434 
154 ,27.8319 ,1.12252 ,2.95091 ,28.95434 
155 ,27.9919 ,1.12426 ,2.93722 ,28.82003 
156 ,28.1678 ,1.12590 ,2.93038 ,28.75287 
157 ,28.3440 ,1.12767 ,2.91669 ,28.61856 
158 ,28.5201 ,1.12936 ,2.89958 ,28.45066 
159 ,28.6964 ,1.13121 ,2.87905 ,28.24919 
160 ,28.8723 ,1.13297 ,2.84825 ,27.94699 
161 ,29.0645 ,1.13482 ,2.86193 ,28.08130 
162 ,29.2405 ,1.13662 ,2.84825 ,27.94699 
163 ,29.4325 ,1.13844 ,2.82087 ,27.67836 
164 ,29.6085 ,1.14028 ,2.81402 ,27.61121 
165 ,29.7848 ,1.14205 ,2.80034 ,27.47689 
166 ,29.9765 ,1.14395 ,2.77296 ,27.20827 
167 ,30.1527 ,1.14576 ,2.75243 ,27.00680 
168 ,30.3288 ,1.14750 ,2.74900 ,26.97322 
169 ,30.5528 ,1.14957 ,2.72163 ,26.70459 
170 ,30.7289 ,1.15150 ,2.72505 ,26.73817 
171 ,30.9052 ,1.15328 ,2.69767 ,26.46954 
172 ,31.0969 ,1.15514 ,2.66345 ,26.13376 
173 ,31.2731 ,1.15688 ,2.65660 ,26.06661 
174 ,31.4493 ,1.15868 ,2.64976 ,25.99945 
175 ,31.6090 ,1.16040 ,2.64292 ,25.93229 
176 ,31.7855 ,1.16208 ,2.62923 ,25.79798 
177 ,31.9616 ,1.16381 ,2.61896 ,25.69724 
178 ,32.1373 ,1.16556 ,2.59843 ,25.49577 
179 ,32.3137 ,1.16733 ,2.57105 ,25.22715 
180 ,32.5218 ,1.16938 ,2.56763 ,25.19357 
181 ,32.7139 ,1.17125 ,2.52998 ,24.82421 
182 ,32.9060 ,1.17329 ,2.53683 ,24.89136 
183 ,33.0815 ,1.17502 ,2.51630 ,24.68989 
184 ,33.2580 ,1.17673 ,2.49234 ,24.45485 
185 ,33.4340 ,1.17846 ,2.48550 ,24.38769 
186 ,33.6262 ,1.18036 ,2.48892 ,24.42127 
187 ,33.8181 ,1.18234 ,2.44785 ,24.01833 
188 ,34.0102 ,1.18429 ,2.43759 ,23.91759 
189 ,34.1864 ,1.18604 ,2.44101 ,23.95117 
190 ,34.3624 ,1.18778 ,2.41363 ,23.68255 
191 ,34.5386 ,1.18960 ,2.39994 ,23.54823 
192 ,34.7306 ,1.19148 ,2.36914 ,23.24603 
193 ,34.9067 ,1.19327 ,2.36230 ,23.17887 
194 ,35.0988 ,1.19521 ,2.34177 ,22.97740 
195 ,35.2749 ,1.19695 ,2.31439 ,22.70877 
196 ,35.4670 ,1.19883 ,2.33150 ,22.87667 
197 ,35.6430 ,1.20060 ,2.30070 ,22.57446 
198 ,35.8187 ,1.20235 ,2.29043 ,22.47373 
199 ,35.9952 ,1.20410 ,2.26306 ,22.20510 
200 ,36.1548 ,1.20582 ,2.25279 ,22.10437 
201 ,36.3311 ,1.20747 ,2.23910 ,21.97005 
202 ,36.5231 ,1.20941 ,2.24937 ,22.07079 
203 ,36.6996 ,1.21119 ,2.22541 ,21.83574 
204 ,36.8754 ,1.21298 ,2.19461 ,21.53353 
205 ,37.0516 ,1.21467 ,2.17750 ,21.36564 
206 ,37.2596 ,1.21675 ,2.16723 ,21.26491 
207 ,37.4512 ,1.21866 ,2.15012 ,21.09702 
208 ,37.6278 ,1.22047 ,2.15012 ,21.09702 
209 ,37.8356 ,1.22248 ,2.11932 ,20.79481 
210 ,38.0118 ,1.22429 ,2.09879 ,20.59334 
211 ,38.1879 ,1.22607 ,2.09537 ,20.55976 
212 ,38.3639 ,1.22785 ,2.09195 ,20.52619 
213 ,38.5400 ,1.22964 ,2.05773 ,20.19040 
214 ,38.7161 ,1.23130 ,2.05088 ,20.12325 
215 ,38.9082 ,1.23327 ,2.04061 ,20.02251 
216 ,39.0843 ,1.23503 ,2.01666 ,19.78746 
217 ,39.2599 ,1.23685 ,1.99955 ,19.61957 
218 ,39.4201 ,1.23846 ,1.98928 ,19.51884 
219 ,39.5964 ,1.24010 ,1.98244 ,19.45168 
220 ,39.7884 ,1.24193 ,1.96875 ,19.31737 
221 ,39.9803 ,1.24386 ,1.95848 ,19.21663 
222 ,40.1567 ,1.24574 ,1.93453 ,18.98158 
223 ,40.3487 ,1.24761 ,1.91399 ,18.78011 
224 ,40.5248 ,1.24937 ,1.91742 ,18.81369 
225 ,40.7010 ,1.25115 ,1.90031 ,18.64580 
226 ,40.8931 ,1.25310 ,1.86951 ,18.34360 
227 ,41.0690 ,1.25485 ,1.86266 ,18.27644 
228 ,41.2451 ,1.25665 ,1.84897 ,18.14213 
229 ,41.4212 ,1.25834 ,1.84897 ,18.14213 
230 ,41.6133 ,1.26035 ,1.81817 ,17.83992 
231 ,41.7893 ,1.26208 ,1.80106 ,17.67203 
232 ,41.9654 ,1.26382 ,1.80106 ,17.67203 
233 ,42.1414 ,1.26551 ,1.79080 ,17.57129 
234 ,42.3334 ,1.26753 ,1.76684 ,17.33625 
235 ,42.5096 ,1.26924 ,1.76000 ,17.26909 
236 ,42.6856 ,1.27105 ,1.73262 ,17.00046 
237 ,42.8618 ,1.27277 ,1.72235 ,16.89973 
238 ,43.0377 ,1.27452 ,1.70866 ,16.76542 
239 ,43.2138 ,1.27629 ,1.68471 ,16.53037 
240 ,43.3739 ,1.27800 ,1.67444 ,16.42963 
241 ,43.5340 ,1.27962 ,1.65733 ,16.26174 
242 ,43.7100 ,1.28122 ,1.63680 ,16.06027 
243 ,43.8863 ,1.28301 ,1.64707 ,16.16101 
244 ,44.0623 ,1.28481 ,1.63680 ,16.06027 
245 ,44.2382 ,1.28654 ,1.61969 ,15.89238 
246 ,44.4305 ,1.28844 ,1.60258 ,15.72449 
247 ,44.6064 ,1.29023 ,1.58547 ,15.55660 
248 ,44.7826 ,1.29199 ,1.56836 ,15.38871 
249 ,44.9746 ,1.29386 ,1.54098 ,15.12008 
250 ,45.1667 ,1.29581 ,1.55124 ,15.22081 
251 ,45.3429 ,1.29760 ,1.54098 ,15.12008 
252 ,45.5349 ,1.29948 ,1.50676 ,14.78430 
253 ,45.7110 ,1.30129 ,1.48622 ,14.58283 
254 ,45.8869 ,1.30304 ,1.48280 ,14.54925 
255 ,46.0631 ,1.30475 ,1.47596 ,14.48209 
256 ,46.2391 ,1.30654 ,1.45885 ,14.31420 
257 ,46.4152 ,1.30830 ,1.44174 ,14.14631 
258 ,46.6067 ,1.31020 ,1.43147 ,14.04557 
259 ,46.7669 ,1.31193 ,1.42120 ,13.94484 
260 ,46.9269 ,1.31352 ,1.41094 ,13.84410 
261 ,47.1036 ,1.31517 ,1.40067 ,13.74337 
262 ,47.3115 ,1.31724 ,1.37329 ,13.47474 
263 ,47.4878 ,1.31900 ,1.35960 ,13.34043 
264 ,47.6638 ,1.32079 ,1.35960 ,13.34043 
265 ,47.8398 ,1.32254 ,1.33565 ,13.10538 
266 ,47.9998 ,1.32425 ,1.32538 ,13.00465 
267 ,48.1759 ,1.32584 ,1.30827 ,12.83675 
268 ,48.3521 ,1.32763 ,1.29116 ,12.66886 
269 ,48.5761 ,1.32974 ,1.27063 ,12.46739 
270 ,48.7682 ,1.33178 ,1.26378 ,12.40024 
271 ,48.9443 ,1.33359 ,1.26720 ,12.43381 
272 ,49.1363 ,1.33550 ,1.22614 ,12.03088 
273 ,49.3124 ,1.33725 ,1.21587 ,11.93014 
274 ,49.5205 ,1.33925 ,1.21929 ,11.96372 
275 ,49.6965 ,1.34108 ,1.19534 ,11.72867 
276 ,49.8727 ,1.34283 ,1.18850 ,11.66151 
277 ,50.0643 ,1.34474 ,1.18850 ,11.66151 
278 ,50.2408 ,1.34656 ,1.17481 ,11.52720 
279 ,50.4327 ,1.34849 ,1.14058 ,11.19142 
280 ,50.6089 ,1.35021 ,1.13374 ,11.12426 
281 ,50.8008 ,1.35207 ,1.11663 ,10.95637 
282 ,50.9771 ,1.35392 ,1.10979 ,10.88921 
283 ,51.1528 ,1.35567 ,1.07556 ,10.55343 
284 ,51.3293 ,1.35739 ,1.08241 ,10.62059 
285 ,51.5053 ,1.35920 ,1.07214 ,10.51985 
286 ,51.6813 ,1.36092 ,1.06530 ,10.45270 
287 ,51.8735 ,1.36284 ,1.03108 ,10.11691 
288 ,52.0498 ,1.36462 ,1.02765 ,10.08333 
289 ,52.2255 ,1.36637 ,1.02081 ,10.01618 
290 ,52.4016 ,1.36809 ,1.01054 ,9.91544 
291 ,52.5777 ,1.36990 ,1.00370 ,9.84829 
292 ,52.7697 ,1.37172 ,0.96948 ,9.51250 
293 ,52.9459 ,1.37357 ,0.96605 ,9.47892 
294 ,53.1217 ,1.37536 ,0.95921 ,9.41177 
295 ,53.2977 ,1.37706 ,0.92499 ,9.07598 
296 ,53.4738 ,1.37885 ,0.91814 ,9.00883 
297 ,53.6501 ,1.38063 ,0.91472 ,8.97525 
298 ,53.8582 ,1.38265 ,0.90103 ,8.84094 
299 ,54.0343 ,1.38449 ,0.88392 ,8.67305 
300 ,54.2102 ,1.38622 ,0.87023 ,8.53873 
301 ,54.4025 ,1.38809 ,0.87708 ,8.60589 
302 ,54.5944 ,1.39004 ,0.83943 ,8.23653 
303 ,54.7706 ,1.39183 ,0.83259 ,8.16937 
304 ,54.9465 ,1.39354 ,0.83259 ,8.16937 
305 ,55.1225 ,1.39532 ,0.82917 ,8.13579 
306 ,55.3145 ,1.39721 ,0.80521 ,7.90074 
307 ,55.4914 ,1.39902 ,0.79495 ,7.80001 
308 ,55.6667 ,1.40081 ,0.77784 ,7.63212 
309 ,55.8428 ,1.40264 ,0.77441 ,7.59854 
310 ,56.0191 ,1.40425 ,0.76072 ,7.46423 
311 ,56.2110 ,1.40613 ,0.75046 ,7.36349 
312 ,56.4032 ,1.40810 ,0.73677 ,7.22918 
313 ,56.5793 ,1.40985 ,0.72650 ,7.12844 
314 ,56.7554 ,1.41166 ,0.70255 ,6.89340 
315 ,56.9315 ,1.41342 ,0.70255 ,6.89340 
316 ,57.1235 ,1.41533 ,0.69570 ,6.82624 
317 ,57.2992 ,1.41705 ,0.68201 ,6.69193 
318 ,57.4756 ,1.41881 ,0.66148 ,6.49046 
319 ,57.6518 ,1.42061 ,0.64779 ,6.35614 
320 ,57.8276 ,1.42237 ,0.64779 ,6.35614 
321 ,58.0040 ,1.42415 ,0.63753 ,6.25541 
322 ,58.2120 ,1.42613 ,0.62042 ,6.08752 
323 ,58.3881 ,1.42798 ,0.61015 ,5.98678 
324 ,58.5480 ,1.42970 ,0.59304 ,5.81889 
325 ,58.7562 ,1.43152 ,0.57935 ,5.68458 
326 ,58.9321 ,1.43342 ,0.57251 ,5.61742 
327 ,59.1084 ,1.43520 ,0.56224 ,5.51668 
328 ,59.2843 ,1.43693 ,0.57251 ,5.61742 
329 ,59.4766 ,1.43887 ,0.53144 ,5.21448 
330 ,59.6686 ,1.44079 ,0.53144 ,5.21448 
331 ,59.8607 ,1.44270 ,0.52459 ,5.14732 
332 ,60.0368 ,1.44447 ,0.49722 ,4.87870 
333 ,60.2128 ,1.44619 ,0.48695 ,4.77796 
334 ,60.4208 ,1.44827 ,0.49037 ,4.81154 
335 ,60.6126 ,1.45020 ,0.45273 ,4.44218 
336 ,60.7891 ,1.45196 ,0.46984 ,4.61007 
337 ,60.9812 ,1.45391 ,0.45273 ,4.44218 
338 ,61.1570 ,1.45563 ,0.43562 ,4.27429 
339 ,61.3333 ,1.45740 ,0.42877 ,4.20713 
340 ,61.5253 ,1.45930 ,0.42535 ,4.17355 
341 ,61.7172 ,1.46123 ,0.39455 ,3.87135 
342 ,61.8936 ,1.46302 ,0.37402 ,3.66988 
343 ,62.0694 ,1.46477 ,0.36718 ,3.60272 
344 ,62.2615 ,1.46669 ,0.37060 ,3.63630 
345 ,62.4375 ,1.46841 ,0.34322 ,3.36767 
346 ,62.6138 ,1.47027 ,0.32953 ,3.23336 
347 ,62.8059 ,1.47213 ,0.33638 ,3.30052 
348 ,62.9985 ,1.47406 ,0.31926 ,3.13263 
349 ,63.1738 ,1.47583 ,0.30215 ,2.96473 
350 ,63.3661 ,1.47771 ,0.31584 ,3.09905 
351 ,63.5419 ,1.47952 ,0.28162 ,2.76326 
352 ,63.7178 ,1.48136 ,0.27478 ,2.69611 
353 ,63.8943 ,1.48302 ,0.26109 ,2.56179 
354 ,64.0864 ,1.48496 ,0.26451 ,2.59537 
355 ,64.2623 ,1.48668 ,0.25082 ,2.46106 
356 ,64.4546 ,1.48849 ,0.22687 ,2.22601 
357 ,64.6306 ,1.49038 ,0.20633 ,2.02454 
358 ,64.8062 ,1.49214 ,0.20976 ,2.05812 
359 ,64.9822 ,1.49386 ,0.19949 ,1.95738 
360 ,65.1588 ,1.49567 ,0.19264 ,1.89023 
361 ,65.3348 ,1.49741 ,0.16527 ,1.62160 
362 ,65.5111 ,1.49917 ,0.15842 ,1.55445 
363 ,65.6871 ,1.50098 ,0.14816 ,1.45371 
364 ,65.8786 ,1.50284 ,0.14473 ,1.42013 
365 ,66.0550 ,1.50456 ,0.12420 ,1.21866 
366 ,66.2310 ,1.50637 ,0.12078 ,1.18508 
367 ,66.4232 ,1.50824 ,0.12078 ,1.18508 
368 ,66.5995 ,1.51009 ,0.10709 ,1.05077 
369 ,66.7917 ,1.51195 ,0.08314 ,0.81572 
370 ,66.9515 ,1.51367 ,0.07629 ,0.74857 
371 ,67.1276 ,1.51533 ,0.06260 ,0.61425 
372 ,67.3195 ,1.51720 ,0.04549 ,0.44636 
373 ,67.4963 ,1.51902 ,0.03180 ,0.31205 
374 ,67.6876 ,1.52095 ,0.03522 ,0.34563 
375 ,67.8638 ,1.52268 ,0.02154 ,0.21131 
376 ,68.0239 ,1.52440 ,0.00443 ,0.04342 
377 ,68.1999 ,1.52603 ,-0.00584 ,-0.05731 
378 ,68.3921 ,1.52785 ,-0.01953 ,-0.19163 
379 ,68.6001 ,1.53000 ,-0.02980 ,-0.29236 
380 ,68.7763 ,1.53182 ,-0.05033 ,-0.49383 
381 ,68.9683 ,1.53373 ,-0.05717 ,-0.56099 
382 ,69.1442 ,1.53548 ,-0.06402 ,-0.62814 
383 ,69.3363 ,1.53742 ,-0.08455 ,-0.82961 
384 ,69.5286 ,1.53932 ,-0.08455 ,-0.82961 
385 ,69.7044 ,1.54112 ,-0.08455 ,-0.82961 
386 ,69.8804 ,1.54295 ,-0.12219 ,-1.19898 
387 ,70.0408 ,1.54456 ,-0.12562 ,-1.23255 
388 ,70.2328 ,1.54641 ,-0.13588 ,-1.33329 
389 ,70.4249 ,1.54833 ,-0.13588 ,-1.33329 
390 ,70.6012 ,1.55005 ,-0.14273 ,-1.40045 
391 ,70.7930 ,1.55190 ,-0.17011 ,-1.66907 
392 ,70.9851 ,1.55392 ,-0.17695 ,-1.73623 
393 ,71.1607 ,1.55562 ,-0.18379 ,-1.80338 
394 ,71.3373 ,1.55741 ,-0.20433 ,-2.00485 
395 ,71.5134 ,1.55916 ,-0.20775 ,-2.03843 
396 ,71.6893 ,1.56097 ,-0.23170 ,-2.27348 
397 ,71.8655 ,1.56267 ,-0.22486 ,-2.20632 
398 ,72.0412 ,1.56453 ,-0.24539 ,-2.40779 
399 ,72.2173 ,1.56620 ,-0.25224 ,-2.47495 
400 ,72.3936 ,1.56797 ,-0.27277 ,-2.67642 
401 ,72.5698 ,1.56974 ,-0.28988 ,-2.84431 
402 ,72.7618 ,1.57158 ,-0.27961 ,-2.74358 
403 ,72.9378 ,1.57342 ,-0.29330 ,-2.87789 
404 ,73.1140 ,1.57520 ,-0.31384 ,-3.07936 
405 ,73.2897 ,1.57696 ,-0.32752 ,-3.21367 
406 ,73.4659 ,1.57871 ,-0.32752 ,-3.21367 
407 ,73.6582 ,1.58056 ,-0.34121 ,-3.34799 
408 ,73.8502 ,1.58244 ,-0.35490 ,-3.48230 
409 ,74.0264 ,1.58431 ,-0.35148 ,-3.44872 
410 ,74.2183 ,1.58621 ,-0.36517 ,-3.58303 
411 ,74.3947 ,1.58798 ,-0.39597 ,-3.88524 
412 ,74.6026 ,1.58990 ,-0.39597 ,-3.88524 
413 ,74.7786 ,1.59180 ,-0.40623 ,-3.98597 
414 ,74.9548 ,1.59360 ,-0.41650 ,-4.08671 
415 ,75.1468 ,1.59548 ,-0.42677 ,-4.18744 
416 ,75.3229 ,1.59726 ,-0.43019 ,-4.22102 
417 ,75.4989 ,1.59895 ,-0.45072 ,-4.42249 
418 ,75.6909 ,1.60091 ,-0.45757 ,-4.48965 
419 ,75.8670 ,1.60268 ,-0.47810 ,-4.69112 
420 ,76.0432 ,1.60446 ,-0.47810 ,-4.69112 
421 ,76.2192 ,1.60617 ,-0.48837 ,-4.79185 
422 ,76.4112 ,1.60811 ,-0.50890 ,-4.99332 
423 ,76.6034 ,1.60999 ,-0.50890 ,-4.99332 
424 ,76.7792 ,1.61179 ,-0.52943 ,-5.19479 
425 ,76.9555 ,1.61360 ,-0.53285 ,-5.22837 
426 ,77.1316 ,1.61531 ,-0.56023 ,-5.49700 
427 ,77.3078 ,1.61709 ,-0.56365 ,-5.53058 
428 ,77.5154 ,1.61902 ,-0.56708 ,-5.56415 
429 ,77.6919 ,1.62092 ,-0.59103 ,-5.79920 
430 ,77.8840 ,1.62286 ,-0.59788 ,-5.86636 
431 ,78.0598 ,1.62462 ,-0.59103 ,-5.79920 
432 ,78.2521 ,1.62650 ,-0.62868 ,-6.16856 
433 ,78.4441 ,1.62847 ,-0.61499 ,-6.03425 
434 ,78.6039 ,1.63017 ,-0.62525 ,-6.13499 
435 ,78.7803 ,1.63176 ,-0.63210 ,-6.20214 
436 ,78.9563 ,1.63360 ,-0.64921 ,-6.37003 
437 ,79.1325 ,1.63532 ,-0.66974 ,-6.57150 
438 ,79.3084 ,1.63710 ,-0.67659 ,-6.63866 
439 ,79.5011 ,1.63889 ,-0.67659 ,-6.63866 
440 ,79.6928 ,1.64097 ,-0.70739 ,-6.94086 
441 ,79.8847 ,1.64287 ,-0.69712 ,-6.84013 
442 ,80.0607 ,1.64455 ,-0.71081 ,-6.97444 
443 ,80.2529 ,1.64643 ,-0.72792 ,-7.14233 
444 ,80.4290 ,1.64835 ,-0.75187 ,-7.37738 
445 ,80.6529 ,1.65039 ,-0.76556 ,-7.51170 
446 ,80.8447 ,1.65242 ,-0.77583 ,-7.61243 
447 ,81.0367 ,1.65430 ,-0.77241 ,-7.57885 
448 ,81.2128 ,1.65610 ,-0.78952 ,-7.74674 
449 ,81.3892 ,1.65785 ,-0.79978 ,-7.84748 
450 ,81.5815 ,1.65976 ,-0.78610 ,-7.71317 
451 ,81.7572 ,1.66156 ,-0.81347 ,-7.98179 
452 ,81.9336 ,1.66332 ,-0.82716 ,-8.11611 
453 ,82.1258 ,1.66527 ,-0.84427 ,-8.28400 
454 ,82.3176 ,1.66708 ,-0.84427 ,-8.28400 
455 ,82.4943 ,1.66895 ,-0.86823 ,-8.51904 
456 ,82.6698 ,1.67071 ,-0.87507 ,-8.58620 
457 ,82.8454 ,1.67243 ,-0.88876 ,-8.72051 
458 ,83.0220 ,1.67416 ,-0.87849 ,-8.61978 
459 ,83.1981 ,1.67597 ,-0.89218 ,-8.75409 
460 ,83.3580 ,1.67769 ,-0.91614 ,-8.98914 
461 ,83.5341 ,1.67935 ,-0.90929 ,-8.92198 
462 ,83.7101 ,1.68106 ,-0.94351 ,-9.25777 
463 ,83.8860 ,1.68286 ,-0.93667 ,-9.19061 
