Data stamp = , 31-03-2022 09:18:05 274

Calibration Values: 
Slope = , 26.54 , g/V 
Offset Voltage at no contact = , -0.501760 , V 

No , Time , Stage Position ,   Mass , Force 
   ,  (s) ,      (mm)      ,   (g)  , (mN)  

1 ,0.0000 ,0.84949 ,5.33274 ,52.32484 
2 ,0.2062 ,0.84957 ,5.32589 ,52.25768 
3 ,0.5264 ,0.85037 ,5.33616 ,52.35841 
4 ,0.7187 ,0.85182 ,5.33958 ,52.39199 
5 ,0.9107 ,0.85341 ,5.32932 ,52.29126 
6 ,1.0865 ,0.85508 ,5.32247 ,52.22410 
7 ,1.2629 ,0.85681 ,5.34985 ,52.49273 
8 ,1.4390 ,0.85856 ,5.34985 ,52.49273 
9 ,1.6307 ,0.86060 ,5.31905 ,52.19052 
10 ,1.8071 ,0.86241 ,5.30878 ,52.08979 
11 ,1.9831 ,0.86418 ,5.30194 ,52.02263 
12 ,2.1591 ,0.86586 ,5.29852 ,51.98905 
13 ,2.3353 ,0.86761 ,5.26772 ,51.68685 
14 ,2.5272 ,0.86943 ,5.25745 ,51.58611 
15 ,2.7033 ,0.87127 ,5.24034 ,51.41822 
16 ,2.8795 ,0.87305 ,5.24034 ,51.41822 
17 ,3.0718 ,0.87497 ,5.20612 ,51.08244 
18 ,3.2637 ,0.87688 ,5.20954 ,51.11602 
19 ,3.4559 ,0.87879 ,5.18216 ,50.84739 
20 ,3.6319 ,0.88061 ,5.16163 ,50.64592 
21 ,3.8239 ,0.88245 ,5.15479 ,50.57876 
22 ,4.0000 ,0.88426 ,5.14794 ,50.51161 
23 ,4.1758 ,0.88600 ,5.12056 ,50.24298 
24 ,4.3522 ,0.88775 ,5.10688 ,50.10867 
25 ,4.5438 ,0.88968 ,5.10688 ,50.10867 
26 ,4.7202 ,0.89143 ,5.09319 ,49.97436 
27 ,4.8803 ,0.89318 ,5.06239 ,49.67215 
28 ,5.0564 ,0.89487 ,5.05212 ,49.57142 
29 ,5.2322 ,0.89662 ,5.02817 ,49.33637 
30 ,5.4244 ,0.89844 ,5.01106 ,49.16848 
31 ,5.6004 ,0.90026 ,5.01106 ,49.16848 
32 ,5.7767 ,0.90202 ,4.98368 ,48.89985 
33 ,5.9689 ,0.90395 ,4.95972 ,48.66480 
34 ,6.1768 ,0.90596 ,4.94603 ,48.53049 
35 ,6.3528 ,0.90774 ,4.93919 ,48.46333 
36 ,6.5291 ,0.90954 ,4.91181 ,48.19471 
37 ,6.7051 ,0.91129 ,4.90155 ,48.09397 
38 ,6.8968 ,0.91316 ,4.89128 ,47.99324 
39 ,7.0734 ,0.91500 ,4.87075 ,47.79177 
40 ,7.2814 ,0.91693 ,4.86390 ,47.72461 
41 ,7.4574 ,0.91884 ,4.84337 ,47.52314 
42 ,7.6495 ,0.92069 ,4.80230 ,47.12020 
43 ,7.8415 ,0.92262 ,4.80230 ,47.12020 
44 ,8.0011 ,0.92437 ,4.78177 ,46.91873 
45 ,8.1774 ,0.92599 ,4.78177 ,46.91873 
46 ,8.3696 ,0.92784 ,4.74755 ,46.58295 
47 ,8.5459 ,0.92967 ,4.72702 ,46.38148 
48 ,8.7220 ,0.93147 ,4.70990 ,46.21359 
49 ,8.8980 ,0.93320 ,4.70648 ,46.18001 
50 ,9.0740 ,0.93498 ,4.68253 ,45.94496 
51 ,9.2501 ,0.93671 ,4.64831 ,45.60918 
52 ,9.4261 ,0.93852 ,4.64146 ,45.54202 
53 ,9.6023 ,0.94030 ,4.63462 ,45.47486 
54 ,9.7942 ,0.94208 ,4.62435 ,45.37413 
55 ,9.9863 ,0.94409 ,4.60040 ,45.13908 
56 ,10.1464 ,0.94576 ,4.59013 ,45.03835 
57 ,10.3224 ,0.94744 ,4.56960 ,44.83688 
58 ,10.4987 ,0.94922 ,4.55933 ,44.73614 
59 ,10.6905 ,0.95113 ,4.52169 ,44.36678 
60 ,10.8667 ,0.95292 ,4.51826 ,44.33320 
61 ,11.0427 ,0.95463 ,4.51484 ,44.29962 
62 ,11.2189 ,0.95639 ,4.48746 ,44.03100 
63 ,11.3948 ,0.95818 ,4.46693 ,43.82953 
64 ,11.5871 ,0.96003 ,4.45324 ,43.69521 
65 ,11.7790 ,0.96197 ,4.43271 ,43.49374 
66 ,11.9552 ,0.96379 ,4.41560 ,43.32585 
67 ,12.1313 ,0.96553 ,4.39507 ,43.12438 
68 ,12.3075 ,0.96734 ,4.36427 ,42.82218 
69 ,12.4995 ,0.96923 ,4.37795 ,42.95649 
70 ,12.6756 ,0.97092 ,4.34373 ,42.62071 
71 ,12.8517 ,0.97274 ,4.31978 ,42.38566 
72 ,13.0437 ,0.97464 ,4.31293 ,42.31850 
73 ,13.2353 ,0.97653 ,4.29240 ,42.11703 
74 ,13.3958 ,0.97827 ,4.25818 ,41.78125 
75 ,13.5722 ,0.97994 ,4.24107 ,41.61336 
76 ,13.7639 ,0.98188 ,4.24791 ,41.68051 
77 ,13.9400 ,0.98360 ,4.23080 ,41.51262 
78 ,14.1322 ,0.98550 ,4.19658 ,41.17684 
79 ,14.2921 ,0.98729 ,4.18289 ,41.04253 
80 ,14.4682 ,0.98888 ,4.17262 ,40.94179 
81 ,14.6602 ,0.99077 ,4.16578 ,40.87464 
82 ,14.8363 ,0.99258 ,4.13498 ,40.57243 
83 ,15.0124 ,0.99432 ,4.11103 ,40.33738 
84 ,15.1885 ,0.99609 ,4.10760 ,40.30380 
85 ,15.3645 ,0.99784 ,4.09049 ,40.13591 
86 ,15.5566 ,0.99966 ,4.08023 ,40.03518 
87 ,15.7326 ,1.00155 ,4.06312 ,39.86729 
88 ,15.9088 ,1.00329 ,4.02547 ,39.49793 
89 ,16.0849 ,1.00501 ,4.01520 ,39.39719 
90 ,16.2771 ,1.00692 ,4.00836 ,39.33003 
91 ,16.4529 ,1.00872 ,3.98783 ,39.12856 
92 ,16.6452 ,1.01071 ,3.98783 ,39.12856 
93 ,16.8373 ,1.01261 ,3.96045 ,38.85994 
94 ,17.0133 ,1.01436 ,3.92965 ,38.55773 
95 ,17.1892 ,1.01614 ,3.91254 ,38.38984 
96 ,17.3813 ,1.01791 ,3.90570 ,38.32268 
97 ,17.5735 ,1.01997 ,3.88516 ,38.12122 
98 ,17.7816 ,1.02192 ,3.87490 ,38.02048 
99 ,17.9895 ,1.02393 ,3.85094 ,37.78543 
100 ,18.1657 ,1.02587 ,3.84067 ,37.68470 
101 ,18.3417 ,1.02764 ,3.82356 ,37.51681 
102 ,18.5338 ,1.02952 ,3.79619 ,37.24818 
103 ,18.7099 ,1.03129 ,3.77565 ,37.04671 
104 ,18.8861 ,1.03306 ,3.78592 ,37.14744 
105 ,19.0781 ,1.03497 ,3.76196 ,36.91240 
106 ,19.2543 ,1.03676 ,3.73117 ,36.61019 
107 ,19.4303 ,1.03851 ,3.71063 ,36.40872 
108 ,19.6064 ,1.04039 ,3.71063 ,36.40872 
109 ,19.7823 ,1.04204 ,3.69352 ,36.24083 
110 ,19.9586 ,1.04377 ,3.65930 ,35.90505 
111 ,20.1666 ,1.04581 ,3.65588 ,35.87147 
112 ,20.3427 ,1.04759 ,3.64561 ,35.77073 
113 ,20.5502 ,1.04962 ,3.61481 ,35.46853 
114 ,20.7103 ,1.05139 ,3.60454 ,35.36779 
115 ,20.8865 ,1.05304 ,3.59428 ,35.26706 
116 ,21.0950 ,1.05512 ,3.56348 ,34.96485 
117 ,21.2710 ,1.05703 ,3.55321 ,34.86412 
118 ,21.4629 ,1.05878 ,3.53952 ,34.72981 
119 ,21.6227 ,1.06053 ,3.51215 ,34.46118 
120 ,21.7991 ,1.06218 ,3.51215 ,34.46118 
121 ,21.9754 ,1.06394 ,3.49161 ,34.25971 
122 ,22.1674 ,1.06576 ,3.46424 ,33.99108 
123 ,22.3595 ,1.06782 ,3.45739 ,33.92393 
124 ,22.5516 ,1.06969 ,3.43001 ,33.65530 
125 ,22.7275 ,1.07145 ,3.42659 ,33.62172 
126 ,22.9035 ,1.07324 ,3.41975 ,33.55457 
127 ,23.0958 ,1.07508 ,3.37868 ,33.15163 
128 ,23.2720 ,1.07696 ,3.35815 ,32.95016 
129 ,23.4640 ,1.07885 ,3.35815 ,32.95016 
130 ,23.6400 ,1.08060 ,3.34788 ,32.84942 
131 ,23.8159 ,1.08240 ,3.32051 ,32.58080 
132 ,24.0080 ,1.08422 ,3.31366 ,32.51364 
133 ,24.1843 ,1.08601 ,3.31024 ,32.48006 
134 ,24.3763 ,1.08795 ,3.25548 ,31.94281 
135 ,24.5522 ,1.08971 ,3.26233 ,32.00996 
136 ,24.7283 ,1.09140 ,3.25206 ,31.90923 
137 ,24.9043 ,1.09323 ,3.23495 ,31.74134 
138 ,25.0965 ,1.09512 ,3.20415 ,31.43913 
139 ,25.2566 ,1.09684 ,3.18704 ,31.27124 
140 ,25.4327 ,1.09849 ,3.17335 ,31.13693 
141 ,25.6086 ,1.10025 ,3.16309 ,31.03619 
142 ,25.7849 ,1.10201 ,3.15966 ,31.00262 
143 ,25.9770 ,1.10392 ,3.13571 ,30.76757 
144 ,26.1849 ,1.10588 ,3.13571 ,30.76757 
145 ,26.3612 ,1.10776 ,3.12202 ,30.63325 
146 ,26.5852 ,1.10984 ,3.07753 ,30.19674 
147 ,26.7613 ,1.11179 ,3.08095 ,30.23031 
148 ,26.9373 ,1.11354 ,3.04673 ,29.89453 
149 ,27.1134 ,1.11526 ,3.03304 ,29.76022 
150 ,27.2894 ,1.11704 ,3.01935 ,29.62590 
151 ,27.4816 ,1.11888 ,3.02620 ,29.69306 
152 ,27.6897 ,1.12096 ,2.99882 ,29.42444 
153 ,27.8816 ,1.12297 ,2.97829 ,29.22297 
154 ,28.0579 ,1.12477 ,2.95433 ,28.98792 
155 ,28.2658 ,1.12681 ,2.96118 ,29.05507 
156 ,28.4419 ,1.12854 ,2.92696 ,28.71929 
157 ,28.6179 ,1.13036 ,2.91327 ,28.58498 
158 ,28.7940 ,1.13210 ,2.89273 ,28.38351 
159 ,28.9699 ,1.13401 ,2.89958 ,28.45066 
160 ,29.1462 ,1.13561 ,2.87905 ,28.24919 
161 ,29.3222 ,1.13740 ,2.85851 ,28.04772 
162 ,29.4984 ,1.13914 ,2.83114 ,27.77910 
163 ,29.6903 ,1.14106 ,2.82771 ,27.74552 
164 ,29.8666 ,1.14281 ,2.81060 ,27.57763 
165 ,30.0585 ,1.14471 ,2.79007 ,27.37616 
166 ,30.2506 ,1.14664 ,2.78665 ,27.34258 
167 ,30.4268 ,1.14842 ,2.78322 ,27.30900 
168 ,30.6188 ,1.15036 ,2.74900 ,26.97322 
169 ,30.7948 ,1.15213 ,2.71478 ,26.63744 
170 ,30.9711 ,1.15385 ,2.71820 ,26.67101 
171 ,31.1466 ,1.15562 ,2.71478 ,26.63744 
172 ,31.3230 ,1.15733 ,2.68740 ,26.36881 
173 ,31.5151 ,1.15931 ,2.67029 ,26.20092 
174 ,31.6909 ,1.16105 ,2.66003 ,26.10018 
175 ,31.8833 ,1.16288 ,2.66003 ,26.10018 
176 ,32.0914 ,1.16502 ,2.63607 ,25.86514 
177 ,32.2671 ,1.16685 ,2.61554 ,25.66367 
178 ,32.4434 ,1.16861 ,2.61212 ,25.63009 
179 ,32.6194 ,1.17034 ,2.57789 ,25.29430 
180 ,32.8114 ,1.17217 ,2.56421 ,25.15999 
181 ,33.0036 ,1.17416 ,2.55394 ,25.05926 
182 ,33.1955 ,1.17609 ,2.52998 ,24.82421 
183 ,33.3717 ,1.17782 ,2.51287 ,24.65632 
184 ,33.5480 ,1.17963 ,2.51287 ,24.65632 
185 ,33.7240 ,1.18142 ,2.50945 ,24.62274 
186 ,33.8840 ,1.18307 ,2.46839 ,24.21980 
187 ,34.0602 ,1.18470 ,2.48207 ,24.35411 
188 ,34.2521 ,1.18664 ,2.45127 ,24.05191 
189 ,34.4442 ,1.18856 ,2.44101 ,23.95117 
190 ,34.6364 ,1.19042 ,2.41363 ,23.68255 
191 ,34.8125 ,1.19225 ,2.38968 ,23.44750 
192 ,34.9725 ,1.19394 ,2.40336 ,23.58181 
193 ,35.1486 ,1.19565 ,2.38968 ,23.44750 
194 ,35.3243 ,1.19740 ,2.36572 ,23.21245 
195 ,35.5009 ,1.19916 ,2.35545 ,23.11171 
196 ,35.6927 ,1.20108 ,2.33150 ,22.87667 
197 ,35.9170 ,1.20320 ,2.30754 ,22.64162 
198 ,36.0928 ,1.20501 ,2.30070 ,22.57446 
199 ,36.2692 ,1.20686 ,2.28359 ,22.40657 
200 ,36.4611 ,1.20871 ,2.26990 ,22.27226 
201 ,36.6372 ,1.21044 ,2.24937 ,22.07079 
202 ,36.8133 ,1.21232 ,2.23226 ,21.90290 
203 ,36.9894 ,1.21403 ,2.23226 ,21.90290 
204 ,37.1814 ,1.21594 ,2.21515 ,21.73500 
205 ,37.3575 ,1.21770 ,2.18777 ,21.46638 
206 ,37.5335 ,1.21944 ,2.16723 ,21.26491 
207 ,37.7097 ,1.22123 ,2.17750 ,21.36564 
208 ,37.8857 ,1.22296 ,2.16039 ,21.19775 
209 ,38.0778 ,1.22487 ,2.12959 ,20.89555 
210 ,38.2699 ,1.22672 ,2.12275 ,20.82839 
211 ,38.4784 ,1.22881 ,2.11248 ,20.72766 
212 ,38.6543 ,1.23066 ,2.07484 ,20.35829 
213 ,38.8297 ,1.23252 ,2.07484 ,20.35829 
214 ,39.0057 ,1.23419 ,2.06115 ,20.22398 
215 ,39.1817 ,1.23593 ,2.06799 ,20.29114 
216 ,39.3578 ,1.23770 ,2.02008 ,19.82104 
217 ,39.5343 ,1.23948 ,2.02008 ,19.82104 
218 ,39.7581 ,1.24171 ,1.98928 ,19.51884 
219 ,39.9664 ,1.24369 ,1.98586 ,19.48526 
220 ,40.1427 ,1.24554 ,1.97559 ,19.38452 
221 ,40.3346 ,1.24739 ,1.95848 ,19.21663 
222 ,40.5269 ,1.24936 ,1.95506 ,19.18305 
223 ,40.7027 ,1.25112 ,1.91742 ,18.81369 
224 ,40.8788 ,1.25289 ,1.90715 ,18.71296 
225 ,41.0551 ,1.25465 ,1.90031 ,18.64580 
226 ,41.2311 ,1.25644 ,1.89346 ,18.57864 
227 ,41.4391 ,1.25845 ,1.85240 ,18.17570 
228 ,41.6152 ,1.26029 ,1.85582 ,18.20928 
229 ,41.8073 ,1.26213 ,1.83871 ,18.04139 
230 ,41.9994 ,1.26408 ,1.82160 ,17.87350 
231 ,42.1756 ,1.26587 ,1.79764 ,17.63845 
232 ,42.3354 ,1.26759 ,1.79422 ,17.60487 
233 ,42.5115 ,1.26917 ,1.79422 ,17.60487 
234 ,42.6877 ,1.27097 ,1.78737 ,17.53772 
235 ,42.8637 ,1.27278 ,1.75657 ,17.23551 
236 ,43.0396 ,1.27446 ,1.73262 ,17.00046 
237 ,43.2159 ,1.27627 ,1.71551 ,16.83257 
238 ,43.3918 ,1.27804 ,1.71893 ,16.86615 
239 ,43.5840 ,1.27992 ,1.68471 ,16.53037 
240 ,43.7761 ,1.28176 ,1.66760 ,16.36248 
241 ,43.9680 ,1.28380 ,1.67102 ,16.39605 
242 ,44.1443 ,1.28558 ,1.66075 ,16.29532 
243 ,44.3200 ,1.28731 ,1.62653 ,15.95954 
244 ,44.4965 ,1.28909 ,1.60942 ,15.79164 
245 ,44.6727 ,1.29083 ,1.60942 ,15.79164 
246 ,44.8645 ,1.29269 ,1.59573 ,15.65733 
247 ,45.0567 ,1.29460 ,1.58547 ,15.55660 
248 ,45.2487 ,1.29658 ,1.58204 ,15.52302 
249 ,45.4249 ,1.29836 ,1.56836 ,15.38871 
250 ,45.6010 ,1.30011 ,1.52729 ,14.98577 
251 ,45.7928 ,1.30192 ,1.53413 ,15.05292 
252 ,45.9692 ,1.30380 ,1.51702 ,14.88503 
253 ,46.1450 ,1.30552 ,1.49991 ,14.71714 
254 ,46.3213 ,1.30733 ,1.47938 ,14.51567 
255 ,46.4971 ,1.30909 ,1.46569 ,14.38136 
256 ,46.7053 ,1.31113 ,1.45542 ,14.28062 
257 ,46.8813 ,1.31292 ,1.43489 ,14.07915 
258 ,47.0738 ,1.31483 ,1.42805 ,14.01199 
259 ,47.2656 ,1.31677 ,1.40409 ,13.77695 
260 ,47.4576 ,1.31864 ,1.39383 ,13.67621 
261 ,47.6338 ,1.32039 ,1.38698 ,13.60906 
262 ,47.8099 ,1.32225 ,1.35618 ,13.30685 
263 ,47.9860 ,1.32396 ,1.34249 ,13.17254 
264 ,48.1781 ,1.32582 ,1.33907 ,13.13896 
265 ,48.3700 ,1.32782 ,1.33907 ,13.13896 
266 ,48.5462 ,1.32957 ,1.31169 ,12.87033 
267 ,48.7700 ,1.33164 ,1.29116 ,12.66886 
268 ,48.9463 ,1.33355 ,1.28089 ,12.56813 
269 ,49.1383 ,1.33546 ,1.26378 ,12.40024 
270 ,49.3459 ,1.33742 ,1.24667 ,12.23235 
271 ,49.5223 ,1.33929 ,1.23641 ,12.13161 
272 ,49.6986 ,1.34107 ,1.23298 ,12.09803 
273 ,49.8906 ,1.34293 ,1.20903 ,11.86298 
274 ,50.0506 ,1.34470 ,1.20218 ,11.79583 
275 ,50.2429 ,1.34645 ,1.16796 ,11.46004 
276 ,50.4348 ,1.34836 ,1.16112 ,11.39289 
277 ,50.6270 ,1.35041 ,1.15427 ,11.32573 
278 ,50.8191 ,1.35217 ,1.13032 ,11.09068 
279 ,50.9951 ,1.35404 ,1.13374 ,11.12426 
280 ,51.1868 ,1.35595 ,1.12347 ,11.02353 
281 ,51.3629 ,1.35771 ,1.09610 ,10.75490 
282 ,51.5392 ,1.35945 ,1.08925 ,10.68774 
283 ,51.7313 ,1.36139 ,1.07899 ,10.58701 
284 ,51.9232 ,1.36321 ,1.04476 ,10.25123 
285 ,52.0993 ,1.36509 ,1.04134 ,10.21765 
286 ,52.2915 ,1.36697 ,1.04134 ,10.21765 
287 ,52.4839 ,1.36876 ,1.00712 ,9.88186 
288 ,52.6598 ,1.37073 ,0.99685 ,9.78113 
289 ,52.8358 ,1.37251 ,0.99001 ,9.71397 
290 ,53.0119 ,1.37420 ,0.98317 ,9.64682 
291 ,53.1881 ,1.37596 ,0.96605 ,9.47892 
292 ,53.3637 ,1.37774 ,0.94552 ,9.27745 
293 ,53.5402 ,1.37946 ,0.93183 ,9.14314 
294 ,53.7162 ,1.38122 ,0.93183 ,9.14314 
295 ,53.8922 ,1.38294 ,0.91814 ,9.00883 
296 ,54.0684 ,1.38475 ,0.89761 ,8.80736 
297 ,54.2440 ,1.38651 ,0.88734 ,8.70662 
298 ,54.4205 ,1.38825 ,0.88050 ,8.63947 
299 ,54.5963 ,1.39001 ,0.87366 ,8.57231 
300 ,54.7563 ,1.39173 ,0.85997 ,8.43800 
301 ,54.9166 ,1.39334 ,0.84970 ,8.33726 
302 ,55.0930 ,1.39495 ,0.83259 ,8.16937 
303 ,55.2846 ,1.39691 ,0.80179 ,7.86717 
304 ,55.4609 ,1.39863 ,0.80179 ,7.86717 
305 ,55.6369 ,1.40043 ,0.79495 ,7.80001 
306 ,55.8130 ,1.40220 ,0.78468 ,7.69927 
307 ,55.9887 ,1.40395 ,0.76072 ,7.46423 
308 ,56.1650 ,1.40571 ,0.74704 ,7.32991 
309 ,56.3413 ,1.40749 ,0.73677 ,7.22918 
310 ,56.5173 ,1.40924 ,0.72650 ,7.12844 
311 ,56.7093 ,1.41115 ,0.71966 ,7.06129 
312 ,56.8852 ,1.41285 ,0.70255 ,6.89340 
313 ,57.0614 ,1.41463 ,0.68886 ,6.75908 
314 ,57.2375 ,1.41641 ,0.68886 ,6.75908 
315 ,57.4137 ,1.41816 ,0.68201 ,6.69193 
316 ,57.5898 ,1.42008 ,0.64095 ,6.28899 
317 ,57.7819 ,1.42183 ,0.63410 ,6.22183 
318 ,57.9579 ,1.42361 ,0.64095 ,6.28899 
319 ,58.1499 ,1.42548 ,0.61699 ,6.05394 
320 ,58.3261 ,1.42730 ,0.59646 ,5.85247 
321 ,58.5183 ,1.42922 ,0.59646 ,5.85247 
322 ,58.6942 ,1.43101 ,0.59304 ,5.81889 
323 ,58.8862 ,1.43292 ,0.55539 ,5.44953 
324 ,59.0624 ,1.43469 ,0.54855 ,5.38237 
325 ,59.2542 ,1.43651 ,0.55539 ,5.44953 
326 ,59.4305 ,1.43830 ,0.52802 ,5.18090 
327 ,59.6063 ,1.44005 ,0.51433 ,5.04659 
328 ,59.7827 ,1.44190 ,0.50748 ,4.97943 
329 ,59.9750 ,1.44383 ,0.50064 ,4.91228 
330 ,60.1507 ,1.44552 ,0.48695 ,4.77796 
331 ,60.3269 ,1.44731 ,0.47326 ,4.64365 
332 ,60.5030 ,1.44910 ,0.45957 ,4.50934 
333 ,60.6786 ,1.45079 ,0.46642 ,4.57649 
334 ,60.8551 ,1.45254 ,0.44588 ,4.37502 
335 ,61.0472 ,1.45452 ,0.41851 ,4.10640 
336 ,61.2232 ,1.45622 ,0.41851 ,4.10640 
337 ,61.4153 ,1.45817 ,0.41166 ,4.03924 
338 ,61.5915 ,1.45992 ,0.38086 ,3.73703 
339 ,61.7675 ,1.46170 ,0.37744 ,3.70346 
340 ,61.9435 ,1.46342 ,0.37060 ,3.63630 
341 ,62.1356 ,1.46538 ,0.37744 ,3.70346 
342 ,62.3118 ,1.46713 ,0.35349 ,3.46841 
343 ,62.4878 ,1.46892 ,0.33295 ,3.26694 
344 ,62.6639 ,1.47072 ,0.31926 ,3.13263 
345 ,62.8721 ,1.47270 ,0.31242 ,3.06547 
346 ,63.0641 ,1.47465 ,0.30215 ,2.96473 
347 ,63.2402 ,1.47646 ,0.29189 ,2.86400 
348 ,63.4322 ,1.47836 ,0.28162 ,2.76326 
349 ,63.6242 ,1.48025 ,0.26793 ,2.62895 
350 ,63.8002 ,1.48206 ,0.25424 ,2.49464 
351 ,63.9925 ,1.48391 ,0.23371 ,2.29317 
352 ,64.1686 ,1.48573 ,0.22002 ,2.15885 
353 ,64.3765 ,1.48770 ,0.23371 ,2.29317 
354 ,64.5527 ,1.48952 ,0.21660 ,2.12528 
355 ,64.7288 ,1.49131 ,0.19264 ,1.89023 
356 ,64.9045 ,1.49303 ,0.18580 ,1.82307 
357 ,65.0969 ,1.49496 ,0.17211 ,1.68876 
358 ,65.2729 ,1.49672 ,0.16869 ,1.65518 
359 ,65.4490 ,1.49845 ,0.14473 ,1.42013 
360 ,65.6409 ,1.50044 ,0.13447 ,1.31940 
361 ,65.8169 ,1.50213 ,0.13789 ,1.35298 
362 ,65.9929 ,1.50389 ,0.11393 ,1.11793 
363 ,66.1692 ,1.50570 ,0.10025 ,0.98361 
364 ,66.3454 ,1.50742 ,0.10025 ,0.98361 
365 ,66.5374 ,1.50937 ,0.08998 ,0.88288 
366 ,66.7133 ,1.51112 ,0.07287 ,0.71499 
367 ,66.9055 ,1.51309 ,0.05576 ,0.54710 
368 ,67.0817 ,1.51478 ,0.05918 ,0.58067 
369 ,67.2578 ,1.51657 ,0.04891 ,0.47994 
370 ,67.4335 ,1.51837 ,0.02838 ,0.27847 
371 ,67.6099 ,1.52010 ,0.00785 ,0.07700 
372 ,67.7860 ,1.52186 ,-0.00926 ,-0.09089 
373 ,67.9620 ,1.52363 ,-0.00242 ,-0.02373 
374 ,68.1378 ,1.52538 ,-0.00584 ,-0.05731 
375 ,68.3143 ,1.52717 ,-0.01953 ,-0.19163 
376 ,68.4902 ,1.52892 ,-0.03664 ,-0.35952 
377 ,68.6824 ,1.53078 ,-0.02980 ,-0.29236 
378 ,68.8584 ,1.53259 ,-0.05717 ,-0.56099 
379 ,69.0505 ,1.53447 ,-0.07086 ,-0.69530 
380 ,69.2105 ,1.53625 ,-0.08797 ,-0.86319 
381 ,69.4026 ,1.53801 ,-0.08797 ,-0.86319 
382 ,69.5789 ,1.53979 ,-0.09140 ,-0.89677 
383 ,69.7706 ,1.54164 ,-0.11193 ,-1.09824 
384 ,69.9468 ,1.54345 ,-0.12562 ,-1.23255 
385 ,70.1388 ,1.54536 ,-0.12904 ,-1.26613 
386 ,70.3149 ,1.54715 ,-0.14615 ,-1.43402 
387 ,70.5070 ,1.54908 ,-0.16326 ,-1.60191 
388 ,70.6831 ,1.55082 ,-0.16326 ,-1.60191 
389 ,70.8592 ,1.55263 ,-0.17011 ,-1.66907 
390 ,71.0513 ,1.55438 ,-0.19406 ,-1.90412 
391 ,71.2270 ,1.55639 ,-0.18722 ,-1.83696 
392 ,71.4034 ,1.55801 ,-0.20090 ,-1.97128 
393 ,71.5953 ,1.55993 ,-0.21459 ,-2.10559 
394 ,71.7716 ,1.56170 ,-0.23513 ,-2.30706 
395 ,71.9636 ,1.56365 ,-0.23170 ,-2.27348 
396 ,72.1398 ,1.56537 ,-0.24539 ,-2.40779 
397 ,72.3157 ,1.56716 ,-0.26250 ,-2.57569 
398 ,72.4917 ,1.56888 ,-0.27961 ,-2.74358 
399 ,72.6839 ,1.57082 ,-0.28646 ,-2.81073 
400 ,72.8600 ,1.57259 ,-0.28646 ,-2.81073 
401 ,73.0361 ,1.57434 ,-0.31384 ,-3.07936 
402 ,73.2281 ,1.57627 ,-0.32068 ,-3.14652 
403 ,73.3880 ,1.57798 ,-0.32068 ,-3.14652 
404 ,73.5642 ,1.57958 ,-0.34121 ,-3.34799 
405 ,73.7404 ,1.58136 ,-0.34464 ,-3.38156 
406 ,73.9323 ,1.58328 ,-0.36517 ,-3.58303 
407 ,74.1245 ,1.58515 ,-0.36517 ,-3.58303 
408 ,74.3005 ,1.58703 ,-0.37544 ,-3.68377 
409 ,74.4925 ,1.58891 ,-0.40281 ,-3.95240 
410 ,74.6846 ,1.59076 ,-0.39597 ,-3.88524 
411 ,74.8769 ,1.59266 ,-0.41650 ,-4.08671 
412 ,75.0528 ,1.59451 ,-0.44388 ,-4.35534 
413 ,75.2290 ,1.59623 ,-0.44046 ,-4.32176 
414 ,75.4207 ,1.59818 ,-0.45072 ,-4.42249 
415 ,75.5975 ,1.59993 ,-0.46441 ,-4.55681 
416 ,75.7891 ,1.60182 ,-0.48152 ,-4.72470 
417 ,75.9813 ,1.60369 ,-0.48152 ,-4.72470 
418 ,76.1734 ,1.60564 ,-0.48837 ,-4.79185 
419 ,76.3651 ,1.60764 ,-0.50206 ,-4.92617 
420 ,76.5414 ,1.60940 ,-0.50548 ,-4.95975 
421 ,76.7175 ,1.61112 ,-0.52259 ,-5.12764 
422 ,76.8937 ,1.61290 ,-0.54997 ,-5.39626 
423 ,77.0695 ,1.61477 ,-0.53970 ,-5.29553 
424 ,77.2457 ,1.61643 ,-0.57050 ,-5.59773 
425 ,77.4217 ,1.61822 ,-0.56365 ,-5.53058 
426 ,77.5979 ,1.61994 ,-0.58761 ,-5.76562 
427 ,77.7895 ,1.62188 ,-0.59103 ,-5.79920 
428 ,77.9661 ,1.62366 ,-0.61156 ,-6.00067 
429 ,78.1580 ,1.62554 ,-0.60472 ,-5.93352 
430 ,78.3342 ,1.62735 ,-0.61841 ,-6.06783 
431 ,78.5102 ,1.62907 ,-0.64921 ,-6.37003 
432 ,78.7023 ,1.63095 ,-0.64579 ,-6.33646 
433 ,78.8785 ,1.63277 ,-0.64236 ,-6.30288 
434 ,79.0543 ,1.63453 ,-0.65947 ,-6.47077 
435 ,79.2465 ,1.63643 ,-0.66632 ,-6.53793 
436 ,79.4222 ,1.63819 ,-0.67659 ,-6.63866 
437 ,79.5985 ,1.63998 ,-0.69027 ,-6.77297 
438 ,79.7908 ,1.64183 ,-0.71081 ,-6.97444 
439 ,79.9825 ,1.64377 ,-0.70739 ,-6.94086 
440 ,80.1589 ,1.64558 ,-0.72450 ,-7.10876 
441 ,80.3509 ,1.64748 ,-0.74161 ,-7.27665 
442 ,80.5271 ,1.64920 ,-0.74161 ,-7.27665 
443 ,80.7191 ,1.65113 ,-0.75187 ,-7.37738 
444 ,80.8948 ,1.65288 ,-0.77925 ,-7.64601 
445 ,81.0707 ,1.65466 ,-0.78610 ,-7.71317 
446 ,81.2308 ,1.65637 ,-0.78610 ,-7.71317 
447 ,81.4073 ,1.65806 ,-0.79636 ,-7.81390 
448 ,81.6154 ,1.66014 ,-0.81689 ,-8.01537 
449 ,81.8074 ,1.66195 ,-0.81689 ,-8.01537 
450 ,81.9836 ,1.66380 ,-0.82716 ,-8.11611 
451 ,82.1758 ,1.66568 ,-0.85454 ,-8.38473 
452 ,82.3518 ,1.66747 ,-0.85112 ,-8.35115 
453 ,82.5438 ,1.66934 ,-0.86138 ,-8.45189 
454 ,82.7359 ,1.67131 ,-0.86823 ,-8.51904 
455 ,82.9280 ,1.67317 ,-0.88192 ,-8.65336 
456 ,83.1199 ,1.67514 ,-0.89218 ,-8.75409 
457 ,83.2962 ,1.67689 ,-0.91272 ,-8.95556 
458 ,83.4882 ,1.67883 ,-0.91614 ,-8.98914 
459 ,83.6801 ,1.68074 ,-0.91272 ,-8.95556 
460 ,83.8563 ,1.68250 ,-0.93667 ,-9.19061 
461 ,84.0323 ,1.68421 ,-0.95378 ,-9.35850 
462 ,84.2085 ,1.68604 ,-0.95378 ,-9.35850 
463 ,84.4166 ,1.68802 ,-0.96063 ,-9.42566 
