Data stamp = , 30-03-2022 21:24:05 073

Calibration Values: 
Slope = , 26.54 , g/V 
Offset Voltage at no contact = , -0.501760 , V 

No , Time , Stage Position ,   Mass , Force 
   ,  (s) ,      (mm)      ,   (g)  , (mN)  

1 ,0.0000 ,0.84943 ,5.36354 ,52.62704 
2 ,0.2130 ,0.84951 ,5.37723 ,52.76135 
3 ,0.5494 ,0.85038 ,5.37381 ,52.72778 
4 ,0.7414 ,0.85181 ,5.38065 ,52.79493 
5 ,0.9342 ,0.85352 ,5.37381 ,52.72778 
6 ,1.1096 ,0.85525 ,5.38407 ,52.82851 
7 ,1.2857 ,0.85698 ,5.39092 ,52.89567 
8 ,1.4777 ,0.85892 ,5.38065 ,52.79493 
9 ,1.6537 ,0.86070 ,5.34643 ,52.45915 
10 ,1.8459 ,0.86261 ,5.34985 ,52.49273 
11 ,2.0381 ,0.86451 ,5.31905 ,52.19052 
12 ,2.2294 ,0.86646 ,5.30878 ,52.08979 
13 ,2.4061 ,0.86819 ,5.30878 ,52.08979 
14 ,2.5822 ,0.87000 ,5.28825 ,51.88832 
15 ,2.7583 ,0.87178 ,5.27798 ,51.78758 
16 ,2.9347 ,0.87351 ,5.26772 ,51.68685 
17 ,3.1101 ,0.87525 ,5.24034 ,51.41822 
18 ,3.2861 ,0.87704 ,5.24034 ,51.41822 
19 ,3.4782 ,0.87892 ,5.21981 ,51.21675 
20 ,3.6545 ,0.88071 ,5.19243 ,50.94813 
21 ,3.8306 ,0.88246 ,5.17874 ,50.81381 
22 ,4.0067 ,0.88421 ,5.17532 ,50.78023 
23 ,4.1828 ,0.88600 ,5.16505 ,50.67950 
24 ,4.3587 ,0.88783 ,5.12399 ,50.27656 
25 ,4.5348 ,0.88947 ,5.12056 ,50.24298 
26 ,4.7110 ,0.89124 ,5.11030 ,50.14225 
27 ,4.9030 ,0.89315 ,5.09319 ,49.97436 
28 ,5.0791 ,0.89500 ,5.06923 ,49.73931 
29 ,5.2552 ,0.89664 ,5.04528 ,49.50426 
30 ,5.4311 ,0.89847 ,5.02132 ,49.26921 
31 ,5.6074 ,0.90022 ,5.03843 ,49.43710 
32 ,5.7833 ,0.90202 ,5.00763 ,49.13490 
33 ,5.9593 ,0.90382 ,4.97341 ,48.79911 
34 ,6.1355 ,0.90552 ,4.96657 ,48.73196 
35 ,6.3277 ,0.90736 ,4.93577 ,48.42975 
36 ,6.5037 ,0.90918 ,4.93577 ,48.42975 
37 ,6.6799 ,0.91097 ,4.91523 ,48.22828 
38 ,6.8559 ,0.91269 ,4.88444 ,47.92608 
39 ,7.0319 ,0.91451 ,4.86732 ,47.75819 
40 ,7.2078 ,0.91622 ,4.86048 ,47.69103 
41 ,7.3840 ,0.91794 ,4.84679 ,47.55672 
42 ,7.5601 ,0.91973 ,4.82968 ,47.38883 
43 ,7.7523 ,0.92160 ,4.80230 ,47.12020 
44 ,7.9281 ,0.92345 ,4.78519 ,46.95231 
45 ,8.1043 ,0.92513 ,4.77493 ,46.85157 
46 ,8.2804 ,0.92695 ,4.75782 ,46.68368 
47 ,8.4564 ,0.92867 ,4.71333 ,46.24716 
48 ,8.6324 ,0.93046 ,4.72017 ,46.31432 
49 ,8.8407 ,0.93240 ,4.69622 ,46.07927 
50 ,9.0168 ,0.93431 ,4.67568 ,45.87780 
51 ,9.2088 ,0.93620 ,4.66542 ,45.77707 
52 ,9.3689 ,0.93794 ,4.63804 ,45.50844 
53 ,9.5447 ,0.93960 ,4.62777 ,45.40771 
54 ,9.7209 ,0.94135 ,4.61066 ,45.23981 
55 ,9.9290 ,0.94342 ,4.59355 ,45.07192 
56 ,10.1051 ,0.94517 ,4.57644 ,44.90403 
57 ,10.2813 ,0.94697 ,4.56960 ,44.83688 
58 ,10.4733 ,0.94887 ,4.52511 ,44.40036 
59 ,10.6331 ,0.95057 ,4.53195 ,44.46751 
60 ,10.8093 ,0.95221 ,4.51142 ,44.26604 
61 ,10.9855 ,0.95396 ,4.50457 ,44.19889 
62 ,11.1616 ,0.95572 ,4.47035 ,43.86310 
63 ,11.3537 ,0.95759 ,4.45324 ,43.69521 
64 ,11.5298 ,0.95944 ,4.42244 ,43.39301 
65 ,11.7053 ,0.96120 ,4.41902 ,43.35943 
66 ,11.8817 ,0.96295 ,4.39849 ,43.15796 
67 ,12.0580 ,0.96470 ,4.36769 ,42.85576 
68 ,12.2339 ,0.96646 ,4.34716 ,42.65429 
69 ,12.4097 ,0.96823 ,4.35058 ,42.68786 
70 ,12.5862 ,0.96999 ,4.33347 ,42.51997 
71 ,12.7781 ,0.97188 ,4.29924 ,42.18419 
72 ,12.9542 ,0.97363 ,4.29240 ,42.11703 
73 ,13.1304 ,0.97543 ,4.28898 ,42.08345 
74 ,13.3065 ,0.97717 ,4.28213 ,42.01630 
75 ,13.4985 ,0.97901 ,4.24107 ,41.61336 
76 ,13.6745 ,0.98086 ,4.22053 ,41.41189 
77 ,13.8507 ,0.98260 ,4.21027 ,41.31115 
78 ,14.0267 ,0.98443 ,4.21027 ,41.31115 
79 ,14.2028 ,0.98609 ,4.19316 ,41.14326 
80 ,14.3790 ,0.98792 ,4.15209 ,40.74032 
81 ,14.5549 ,0.98971 ,4.14525 ,40.67317 
82 ,14.7469 ,0.99156 ,4.13840 ,40.60601 
83 ,14.9231 ,0.99332 ,4.12129 ,40.43812 
84 ,15.0991 ,0.99510 ,4.08365 ,40.06876 
85 ,15.2753 ,0.99685 ,4.07680 ,40.00160 
86 ,15.4672 ,0.99880 ,4.07338 ,39.96802 
87 ,15.6433 ,1.00055 ,4.04258 ,39.66582 
88 ,15.8194 ,1.00233 ,4.03232 ,39.56508 
89 ,15.9955 ,1.00405 ,4.00152 ,39.26288 
90 ,16.1871 ,1.00603 ,4.00152 ,39.26288 
91 ,16.3637 ,1.00773 ,3.97756 ,39.02783 
92 ,16.5397 ,1.00952 ,3.95361 ,38.79278 
93 ,16.7318 ,1.01143 ,3.93992 ,38.65847 
94 ,16.9236 ,1.01334 ,3.93307 ,38.59131 
95 ,17.0998 ,1.01510 ,3.90912 ,38.35626 
96 ,17.2920 ,1.01701 ,3.88516 ,38.12122 
97 ,17.4679 ,1.01877 ,3.88516 ,38.12122 
98 ,17.6441 ,1.02054 ,3.87147 ,37.98690 
99 ,17.8202 ,1.02237 ,3.84410 ,37.71828 
100 ,17.9959 ,1.02406 ,3.81672 ,37.44965 
101 ,18.1722 ,1.02584 ,3.80645 ,37.34891 
102 ,18.3484 ,1.02764 ,3.79961 ,37.28176 
103 ,18.5404 ,1.02949 ,3.77223 ,37.01313 
104 ,18.7165 ,1.03128 ,3.75170 ,36.81166 
105 ,18.9085 ,1.03322 ,3.74143 ,36.71093 
106 ,19.0843 ,1.03489 ,3.73801 ,36.67735 
107 ,19.2607 ,1.03667 ,3.71063 ,36.40872 
108 ,19.4374 ,1.03849 ,3.69352 ,36.24083 
109 ,19.6291 ,1.04042 ,3.68668 ,36.17367 
110 ,19.8049 ,1.04217 ,3.66957 ,36.00578 
111 ,19.9970 ,1.04409 ,3.63192 ,35.63642 
112 ,20.1731 ,1.04583 ,3.62166 ,35.53569 
113 ,20.3493 ,1.04763 ,3.60797 ,35.40137 
114 ,20.5411 ,1.04950 ,3.60454 ,35.36779 
115 ,20.7170 ,1.05126 ,3.58059 ,35.13275 
116 ,20.8935 ,1.05300 ,3.56006 ,34.93128 
117 ,21.0695 ,1.05479 ,3.54979 ,34.83054 
118 ,21.2453 ,1.05654 ,3.54295 ,34.76338 
119 ,21.4216 ,1.05836 ,3.51899 ,34.52834 
120 ,21.6136 ,1.06024 ,3.49161 ,34.25971 
121 ,21.7896 ,1.06199 ,3.47450 ,34.09182 
122 ,21.9658 ,1.06374 ,3.48135 ,34.15898 
123 ,22.1419 ,1.06550 ,3.46081 ,33.95751 
124 ,22.3341 ,1.06744 ,3.42659 ,33.62172 
125 ,22.5261 ,1.06938 ,3.43344 ,33.68888 
126 ,22.7181 ,1.07130 ,3.40606 ,33.42025 
127 ,22.8942 ,1.07304 ,3.38553 ,33.21878 
128 ,23.0702 ,1.07477 ,3.36842 ,33.05089 
129 ,23.2620 ,1.07671 ,3.36157 ,32.98374 
130 ,23.4387 ,1.07845 ,3.33419 ,32.71511 
131 ,23.6303 ,1.08036 ,3.32735 ,32.64795 
132 ,23.8066 ,1.08216 ,3.31024 ,32.48006 
133 ,23.9826 ,1.08391 ,3.29997 ,32.37933 
134 ,24.1588 ,1.08566 ,3.27259 ,32.11070 
135 ,24.3346 ,1.08742 ,3.25548 ,31.94281 
136 ,24.5104 ,1.08920 ,3.24864 ,31.87565 
137 ,24.6868 ,1.09098 ,3.23495 ,31.74134 
138 ,24.8628 ,1.09267 ,3.21784 ,31.57345 
139 ,25.0391 ,1.09441 ,3.18704 ,31.27124 
140 ,25.2151 ,1.09621 ,3.17677 ,31.17051 
141 ,25.3910 ,1.09812 ,3.18704 ,31.27124 
142 ,25.5673 ,1.09971 ,3.15966 ,31.00262 
143 ,25.7433 ,1.10149 ,3.14940 ,30.90188 
144 ,25.9352 ,1.10337 ,3.11175 ,30.53252 
145 ,26.1114 ,1.10516 ,3.09806 ,30.39821 
146 ,26.2874 ,1.10688 ,3.09464 ,30.36463 
147 ,26.4635 ,1.10868 ,3.07753 ,30.19674 
148 ,26.6395 ,1.11048 ,3.05700 ,29.99527 
149 ,26.8156 ,1.11220 ,3.04331 ,29.86095 
150 ,27.0077 ,1.11404 ,3.03647 ,29.79380 
151 ,27.1838 ,1.11592 ,3.03304 ,29.76022 
152 ,27.3599 ,1.11762 ,2.99882 ,29.42444 
153 ,27.5359 ,1.11940 ,2.97144 ,29.15581 
154 ,27.7279 ,1.12133 ,2.97829 ,29.22297 
155 ,27.8880 ,1.12305 ,2.96802 ,29.12223 
156 ,28.0642 ,1.12469 ,2.94749 ,28.92076 
157 ,28.2402 ,1.12643 ,2.92353 ,28.68571 
158 ,28.4160 ,1.12825 ,2.89958 ,28.45066 
159 ,28.5920 ,1.12996 ,2.88589 ,28.31635 
160 ,28.7685 ,1.13173 ,2.88247 ,28.28277 
161 ,28.9444 ,1.13353 ,2.87905 ,28.24919 
162 ,29.1365 ,1.13549 ,2.84825 ,27.94699 
163 ,29.3127 ,1.13717 ,2.82771 ,27.74552 
164 ,29.4888 ,1.13891 ,2.81745 ,27.64479 
165 ,29.6648 ,1.14070 ,2.80718 ,27.54405 
166 ,29.8569 ,1.14264 ,2.77980 ,27.27542 
167 ,30.0331 ,1.14443 ,2.76611 ,27.14111 
168 ,30.2250 ,1.14629 ,2.76954 ,27.17469 
169 ,30.4011 ,1.14801 ,2.74216 ,26.90606 
170 ,30.5932 ,1.14985 ,2.71820 ,26.67101 
171 ,30.7853 ,1.15185 ,2.70794 ,26.57028 
172 ,30.9772 ,1.15380 ,2.68740 ,26.36881 
173 ,31.1693 ,1.15562 ,2.67714 ,26.26807 
174 ,31.3455 ,1.15749 ,2.67029 ,26.20092 
175 ,31.5374 ,1.15947 ,2.64292 ,25.93229 
176 ,31.7136 ,1.16125 ,2.63265 ,25.83156 
177 ,31.8737 ,1.16290 ,2.61212 ,25.63009 
178 ,32.0496 ,1.16456 ,2.59158 ,25.42862 
179 ,32.2417 ,1.16648 ,2.59501 ,25.46220 
180 ,32.4338 ,1.16838 ,2.55736 ,25.09283 
181 ,32.6100 ,1.17011 ,2.55394 ,25.05926 
182 ,32.7859 ,1.17189 ,2.54367 ,24.95852 
183 ,32.9621 ,1.17370 ,2.52998 ,24.82421 
184 ,33.1382 ,1.17543 ,2.51630 ,24.68989 
185 ,33.3143 ,1.17721 ,2.47523 ,24.28696 
186 ,33.5062 ,1.17912 ,2.47523 ,24.28696 
187 ,33.6824 ,1.18090 ,2.45812 ,24.11906 
188 ,33.8424 ,1.18257 ,2.45127 ,24.05191 
189 ,34.0506 ,1.18441 ,2.44785 ,24.01833 
190 ,34.2265 ,1.18636 ,2.42732 ,23.81686 
191 ,34.4023 ,1.18802 ,2.40679 ,23.61539 
192 ,34.5623 ,1.18979 ,2.39652 ,23.51465 
193 ,34.7223 ,1.19139 ,2.37599 ,23.31318 
194 ,34.8986 ,1.19301 ,2.35888 ,23.14529 
195 ,35.1708 ,1.19562 ,2.33834 ,22.94382 
196 ,35.3791 ,1.19779 ,2.31439 ,22.70877 
197 ,35.5391 ,1.19951 ,2.29728 ,22.54088 
198 ,35.7309 ,1.20136 ,2.28017 ,22.37299 
199 ,35.9071 ,1.20308 ,2.27332 ,22.30584 
200 ,36.0834 ,1.20482 ,2.27332 ,22.30584 
201 ,36.2593 ,1.20668 ,2.24594 ,22.03721 
202 ,36.4515 ,1.20846 ,2.22883 ,21.86932 
203 ,36.6273 ,1.21030 ,2.22199 ,21.80216 
204 ,36.8196 ,1.21219 ,2.19803 ,21.56711 
205 ,36.9796 ,1.21394 ,2.18777 ,21.46638 
206 ,37.1555 ,1.21560 ,2.18092 ,21.39922 
207 ,37.3158 ,1.21731 ,2.14670 ,21.06344 
208 ,37.4918 ,1.21907 ,2.13644 ,20.96270 
209 ,37.6680 ,1.22069 ,2.12959 ,20.89555 
210 ,37.8437 ,1.22242 ,2.13301 ,20.92912 
211 ,38.0201 ,1.22419 ,2.11248 ,20.72766 
212 ,38.1962 ,1.22596 ,2.07484 ,20.35829 
213 ,38.3723 ,1.22777 ,2.07484 ,20.35829 
214 ,38.5484 ,1.22951 ,2.05088 ,20.12325 
215 ,38.7406 ,1.23146 ,2.06115 ,20.22398 
216 ,38.9324 ,1.23328 ,2.02693 ,19.88820 
217 ,39.1087 ,1.23510 ,2.01666 ,19.78746 
218 ,39.2847 ,1.23691 ,2.00639 ,19.68673 
219 ,39.4767 ,1.23879 ,1.98586 ,19.48526 
220 ,39.6528 ,1.24051 ,1.96875 ,19.31737 
221 ,39.8449 ,1.24249 ,1.96533 ,19.28379 
222 ,40.0207 ,1.24426 ,1.95506 ,19.18305 
223 ,40.2289 ,1.24627 ,1.91399 ,18.78011 
224 ,40.4209 ,1.24813 ,1.91742 ,18.81369 
225 ,40.5972 ,1.24997 ,1.89688 ,18.61222 
226 ,40.7892 ,1.25192 ,1.86266 ,18.27644 
227 ,40.9653 ,1.25363 ,1.88319 ,18.47791 
228 ,41.1414 ,1.25539 ,1.86266 ,18.27644 
229 ,41.3335 ,1.25723 ,1.84897 ,18.14213 
230 ,41.5094 ,1.25911 ,1.82160 ,17.87350 
231 ,41.6856 ,1.26087 ,1.81475 ,17.80634 
232 ,41.8777 ,1.26275 ,1.79422 ,17.60487 
233 ,42.0696 ,1.26472 ,1.77369 ,17.40340 
234 ,42.2297 ,1.26640 ,1.77026 ,17.36983 
235 ,42.4058 ,1.26804 ,1.75657 ,17.23551 
236 ,42.5819 ,1.26994 ,1.74631 ,17.13478 
237 ,42.7581 ,1.27162 ,1.74631 ,17.13478 
238 ,42.9341 ,1.27334 ,1.72578 ,16.93331 
239 ,43.1102 ,1.27511 ,1.69498 ,16.63110 
240 ,43.2860 ,1.27683 ,1.68129 ,16.49679 
241 ,43.4783 ,1.27870 ,1.69155 ,16.59752 
242 ,43.6544 ,1.28056 ,1.66075 ,16.29532 
243 ,43.8464 ,1.28245 ,1.64707 ,16.16101 
244 ,44.0387 ,1.28428 ,1.64707 ,16.16101 
245 ,44.2146 ,1.28618 ,1.61969 ,15.89238 
246 ,44.3905 ,1.28798 ,1.60600 ,15.75807 
247 ,44.5827 ,1.28981 ,1.60258 ,15.72449 
248 ,44.7588 ,1.29155 ,1.58547 ,15.55660 
249 ,44.9348 ,1.29335 ,1.57178 ,15.42228 
250 ,45.1110 ,1.29508 ,1.53756 ,15.08650 
251 ,45.2868 ,1.29685 ,1.52729 ,14.98577 
252 ,45.4632 ,1.29868 ,1.51360 ,14.85145 
253 ,45.6553 ,1.30056 ,1.52387 ,14.95219 
254 ,45.8472 ,1.30249 ,1.49649 ,14.68356 
255 ,46.0233 ,1.30419 ,1.48280 ,14.54925 
256 ,46.1994 ,1.30598 ,1.47253 ,14.44851 
257 ,46.3752 ,1.30773 ,1.45200 ,14.24704 
258 ,46.5676 ,1.30961 ,1.43489 ,14.07915 
259 ,46.7916 ,1.31177 ,1.41778 ,13.91126 
260 ,46.9678 ,1.31362 ,1.40751 ,13.81053 
261 ,47.1278 ,1.31539 ,1.39040 ,13.64263 
262 ,47.3038 ,1.31700 ,1.38014 ,13.54190 
263 ,47.4798 ,1.31880 ,1.37671 ,13.50832 
264 ,47.6561 ,1.32050 ,1.35960 ,13.34043 
265 ,47.8481 ,1.32238 ,1.33907 ,13.13896 
266 ,48.0243 ,1.32422 ,1.33223 ,13.07180 
267 ,48.2161 ,1.32614 ,1.32538 ,13.00465 
268 ,48.3923 ,1.32791 ,1.30485 ,12.80318 
269 ,48.5684 ,1.32963 ,1.28089 ,12.56813 
270 ,48.7445 ,1.33142 ,1.27747 ,12.53455 
271 ,48.9205 ,1.33318 ,1.27747 ,12.53455 
272 ,49.0966 ,1.33496 ,1.26036 ,12.36666 
273 ,49.2726 ,1.33667 ,1.25009 ,12.26592 
274 ,49.4487 ,1.33844 ,1.22614 ,12.03088 
275 ,49.6088 ,1.34015 ,1.21245 ,11.89656 
276 ,49.7848 ,1.34186 ,1.19534 ,11.72867 
277 ,49.9609 ,1.34371 ,1.19534 ,11.72867 
278 ,50.1371 ,1.34532 ,1.18507 ,11.62794 
279 ,50.3131 ,1.34712 ,1.16454 ,11.42647 
280 ,50.4893 ,1.34891 ,1.14743 ,11.25857 
281 ,50.6651 ,1.35059 ,1.13374 ,11.12426 
282 ,50.8413 ,1.35241 ,1.11663 ,10.95637 
283 ,51.0174 ,1.35411 ,1.11321 ,10.92279 
284 ,51.2255 ,1.35620 ,1.10294 ,10.82206 
285 ,51.4012 ,1.35802 ,1.07899 ,10.58701 
286 ,51.5776 ,1.35971 ,1.08583 ,10.65416 
287 ,51.7856 ,1.36178 ,1.04819 ,10.28480 
288 ,51.9617 ,1.36363 ,1.04134 ,10.21765 
289 ,52.1379 ,1.36538 ,1.03108 ,10.11691 
290 ,52.3458 ,1.36738 ,1.00028 ,9.81471 
291 ,52.5375 ,1.36927 ,0.99343 ,9.74755 
292 ,52.7140 ,1.37108 ,0.99343 ,9.74755 
293 ,52.8897 ,1.37281 ,0.95579 ,9.37819 
294 ,53.0662 ,1.37461 ,0.96605 ,9.47892 
295 ,53.2423 ,1.37641 ,0.94894 ,9.31103 
296 ,53.4182 ,1.37815 ,0.95579 ,9.37819 
297 ,53.6264 ,1.38012 ,0.91130 ,8.94167 
298 ,53.8022 ,1.38197 ,0.91130 ,8.94167 
299 ,53.9945 ,1.38382 ,0.90446 ,8.87451 
300 ,54.1706 ,1.38570 ,0.88734 ,8.70662 
301 ,54.3787 ,1.38767 ,0.88392 ,8.67305 
302 ,54.5545 ,1.38953 ,0.87023 ,8.53873 
303 ,54.7309 ,1.39125 ,0.84628 ,8.30368 
304 ,54.9226 ,1.39315 ,0.82232 ,8.06864 
305 ,55.0989 ,1.39492 ,0.83601 ,8.20295 
306 ,55.2747 ,1.39664 ,0.82575 ,8.10221 
307 ,55.4512 ,1.39845 ,0.80179 ,7.86717 
308 ,55.6273 ,1.40024 ,0.78468 ,7.69927 
309 ,55.8032 ,1.40198 ,0.76757 ,7.53138 
310 ,55.9955 ,1.40385 ,0.76757 ,7.53138 
311 ,56.1874 ,1.40589 ,0.74019 ,7.26276 
312 ,56.3634 ,1.40765 ,0.71966 ,7.06129 
313 ,56.5398 ,1.40937 ,0.71966 ,7.06129 
314 ,56.7157 ,1.41110 ,0.72308 ,7.09486 
315 ,56.9076 ,1.41306 ,0.69228 ,6.79266 
316 ,57.0838 ,1.41479 ,0.67175 ,6.59119 
317 ,57.2599 ,1.41660 ,0.67517 ,6.62477 
318 ,57.4520 ,1.41842 ,0.66148 ,6.49046 
319 ,57.6120 ,1.42018 ,0.65464 ,6.42330 
320 ,57.8041 ,1.42199 ,0.62384 ,6.12109 
321 ,57.9802 ,1.42376 ,0.62726 ,6.15467 
322 ,58.1561 ,1.42549 ,0.63410 ,6.22183 
323 ,58.3324 ,1.42728 ,0.61015 ,5.98678 
324 ,58.5083 ,1.42905 ,0.58962 ,5.78531 
325 ,58.6843 ,1.43077 ,0.56908 ,5.58384 
326 ,58.8765 ,1.43273 ,0.57593 ,5.65100 
327 ,59.0365 ,1.43441 ,0.56908 ,5.58384 
328 ,59.2126 ,1.43604 ,0.55882 ,5.48311 
329 ,59.3887 ,1.43784 ,0.53486 ,5.24806 
330 ,59.5648 ,1.43960 ,0.51433 ,5.04659 
331 ,59.7409 ,1.44135 ,0.52117 ,5.11375 
332 ,59.9330 ,1.44314 ,0.50064 ,4.91228 
333 ,60.0930 ,1.44501 ,0.48695 ,4.77796 
334 ,60.2690 ,1.44665 ,0.48695 ,4.77796 
335 ,60.4452 ,1.44839 ,0.46642 ,4.57649 
336 ,60.6051 ,1.45008 ,0.46300 ,4.54291 
337 ,60.7812 ,1.45171 ,0.45273 ,4.44218 
338 ,60.9572 ,1.45350 ,0.44246 ,4.34144 
339 ,61.1495 ,1.45540 ,0.41851 ,4.10640 
340 ,61.3255 ,1.45713 ,0.41166 ,4.03924 
341 ,61.5016 ,1.45894 ,0.39113 ,3.83777 
342 ,61.6936 ,1.46086 ,0.40140 ,3.93850 
343 ,61.8697 ,1.46260 ,0.37744 ,3.70346 
344 ,62.0458 ,1.46439 ,0.36375 ,3.56914 
345 ,62.2379 ,1.46627 ,0.37060 ,3.63630 
346 ,62.4139 ,1.46808 ,0.35691 ,3.50199 
347 ,62.6220 ,1.47008 ,0.33980 ,3.33410 
348 ,62.8140 ,1.47204 ,0.32611 ,3.19978 
349 ,62.9902 ,1.47388 ,0.31584 ,3.09905 
350 ,63.1659 ,1.47562 ,0.28847 ,2.83042 
351 ,63.3423 ,1.47738 ,0.27135 ,2.66253 
352 ,63.5343 ,1.47929 ,0.28162 ,2.76326 
353 ,63.7105 ,1.48101 ,0.27135 ,2.66253 
354 ,63.9025 ,1.48292 ,0.24740 ,2.42748 
355 ,64.0945 ,1.48486 ,0.24740 ,2.42748 
356 ,64.2702 ,1.48659 ,0.24055 ,2.36032 
357 ,64.4466 ,1.48840 ,0.20633 ,2.02454 
358 ,64.6227 ,1.49018 ,0.19607 ,1.92381 
359 ,64.7988 ,1.49188 ,0.19607 ,1.92381 
360 ,64.9749 ,1.49370 ,0.19264 ,1.89023 
361 ,65.1507 ,1.49539 ,0.18238 ,1.78949 
362 ,65.3270 ,1.49722 ,0.15500 ,1.52087 
363 ,65.5033 ,1.49891 ,0.14816 ,1.45371 
364 ,65.6792 ,1.50071 ,0.13789 ,1.35298 
365 ,65.8711 ,1.50254 ,0.13447 ,1.31940 
366 ,66.0474 ,1.50439 ,0.11393 ,1.11793 
367 ,66.2234 ,1.50618 ,0.10367 ,1.01719 
368 ,66.4154 ,1.50802 ,0.10367 ,1.01719 
369 ,66.5915 ,1.50982 ,0.08656 ,0.84930 
370 ,66.7835 ,1.51163 ,0.06602 ,0.64783 
371 ,66.9757 ,1.51367 ,0.05918 ,0.58067 
372 ,67.1516 ,1.51541 ,0.05918 ,0.58067 
373 ,67.3280 ,1.51724 ,0.02496 ,0.24489 
374 ,67.5040 ,1.51899 ,0.01469 ,0.14416 
375 ,67.6800 ,1.52068 ,0.01469 ,0.14416 
376 ,67.8562 ,1.52245 ,0.00443 ,0.04342 
377 ,68.0483 ,1.52427 ,-0.00242 ,-0.02373 
378 ,68.2563 ,1.52638 ,0.00100 ,0.00984 
379 ,68.4321 ,1.52826 ,-0.02637 ,-0.25878 
380 ,68.6085 ,1.53003 ,-0.03664 ,-0.35952 
381 ,68.8006 ,1.53195 ,-0.05717 ,-0.56099 
382 ,68.9766 ,1.53371 ,-0.07428 ,-0.72888 
383 ,69.1524 ,1.53543 ,-0.06744 ,-0.66172 
384 ,69.3286 ,1.53720 ,-0.07771 ,-0.76246 
385 ,69.5043 ,1.53895 ,-0.10851 ,-1.06466 
386 ,69.6808 ,1.54072 ,-0.11877 ,-1.16540 
387 ,69.8725 ,1.54262 ,-0.11535 ,-1.13182 
388 ,70.0489 ,1.54438 ,-0.11877 ,-1.16540 
389 ,70.2249 ,1.54612 ,-0.15299 ,-1.50118 
390 ,70.4010 ,1.54791 ,-0.16326 ,-1.60191 
391 ,70.5768 ,1.54963 ,-0.16668 ,-1.63549 
392 ,70.7532 ,1.55141 ,-0.16326 ,-1.60191 
393 ,70.9453 ,1.55340 ,-0.18722 ,-1.83696 
394 ,71.1213 ,1.55510 ,-0.20090 ,-1.97128 
395 ,71.2972 ,1.55687 ,-0.20775 ,-2.03843 
396 ,71.4734 ,1.55859 ,-0.20433 ,-2.00485 
397 ,71.6495 ,1.56046 ,-0.23513 ,-2.30706 
398 ,71.8256 ,1.56215 ,-0.22828 ,-2.23990 
399 ,72.0017 ,1.56390 ,-0.25908 ,-2.54211 
400 ,72.1775 ,1.56571 ,-0.26250 ,-2.57569 
401 ,72.3535 ,1.56741 ,-0.24881 ,-2.44137 
402 ,72.5298 ,1.56918 ,-0.25908 ,-2.54211 
403 ,72.7059 ,1.57095 ,-0.28988 ,-2.84431 
404 ,72.8821 ,1.57270 ,-0.30357 ,-2.97863 
405 ,73.0582 ,1.57448 ,-0.31384 ,-3.07936 
406 ,73.2340 ,1.57624 ,-0.32068 ,-3.14652 
407 ,73.4102 ,1.57801 ,-0.32410 ,-3.18010 
408 ,73.5863 ,1.57971 ,-0.33095 ,-3.24725 
409 ,73.7624 ,1.58146 ,-0.35832 ,-3.51588 
410 ,73.9390 ,1.58328 ,-0.36517 ,-3.58303 
411 ,74.1307 ,1.58521 ,-0.35832 ,-3.51588 
412 ,74.3066 ,1.58696 ,-0.39255 ,-3.85166 
413 ,74.4827 ,1.58872 ,-0.40281 ,-3.95240 
414 ,74.6428 ,1.59041 ,-0.40623 ,-3.98597 
415 ,74.8024 ,1.59202 ,-0.41992 ,-4.12029 
416 ,74.9789 ,1.59363 ,-0.42677 ,-4.18744 
417 ,75.1550 ,1.59543 ,-0.43361 ,-4.25460 
418 ,75.3312 ,1.59713 ,-0.44046 ,-4.32176 
419 ,75.5070 ,1.59894 ,-0.45414 ,-4.45607 
420 ,75.6834 ,1.60073 ,-0.47126 ,-4.62396 
421 ,75.8749 ,1.60268 ,-0.47468 ,-4.65754 
422 ,76.0510 ,1.60443 ,-0.48494 ,-4.75828 
423 ,76.2271 ,1.60620 ,-0.50206 ,-4.92617 
424 ,76.3872 ,1.60784 ,-0.51574 ,-5.06048 
425 ,76.5632 ,1.60951 ,-0.50890 ,-4.99332 
426 ,76.7393 ,1.61123 ,-0.53285 ,-5.22837 
427 ,76.9155 ,1.61298 ,-0.53628 ,-5.26195 
428 ,77.0914 ,1.61477 ,-0.53970 ,-5.29553 
429 ,77.2515 ,1.61649 ,-0.56023 ,-5.49700 
430 ,77.4276 ,1.61811 ,-0.56023 ,-5.49700 
431 ,77.6039 ,1.61987 ,-0.59103 ,-5.79920 
432 ,77.7800 ,1.62168 ,-0.60130 ,-5.89994 
433 ,77.9560 ,1.62344 ,-0.59103 ,-5.79920 
434 ,78.1482 ,1.62531 ,-0.60814 ,-5.96709 
435 ,78.3242 ,1.62710 ,-0.61841 ,-6.06783 
436 ,78.5004 ,1.62883 ,-0.63894 ,-6.26930 
437 ,78.6763 ,1.63066 ,-0.64921 ,-6.37003 
438 ,78.8525 ,1.63240 ,-0.64921 ,-6.37003 
439 ,79.0600 ,1.63443 ,-0.67316 ,-6.60508 
440 ,79.2365 ,1.63618 ,-0.67659 ,-6.63866 
441 ,79.4128 ,1.63800 ,-0.66632 ,-6.53793 
442 ,79.5888 ,1.63974 ,-0.69027 ,-6.77297 
443 ,79.7649 ,1.64154 ,-0.71081 ,-6.97444 
444 ,79.9412 ,1.64329 ,-0.72792 ,-7.14233 
445 ,80.1329 ,1.64519 ,-0.72107 ,-7.07518 
446 ,80.3092 ,1.64694 ,-0.73134 ,-7.17591 
447 ,80.4852 ,1.64873 ,-0.75530 ,-7.41096 
448 ,80.6611 ,1.65052 ,-0.77241 ,-7.57885 
449 ,80.8533 ,1.65236 ,-0.75872 ,-7.44454 
450 ,81.0294 ,1.65418 ,-0.77241 ,-7.57885 
451 ,81.2214 ,1.65605 ,-0.79294 ,-7.78032 
452 ,81.3974 ,1.65784 ,-0.80321 ,-7.88106 
453 ,81.5736 ,1.65962 ,-0.79978 ,-7.84748 
454 ,81.7492 ,1.66132 ,-0.80321 ,-7.88106 
455 ,81.9422 ,1.66319 ,-0.83058 ,-8.14968 
456 ,82.1179 ,1.66507 ,-0.85454 ,-8.38473 
457 ,82.3097 ,1.66690 ,-0.84085 ,-8.25042 
458 ,82.4859 ,1.66874 ,-0.85454 ,-8.38473 
459 ,82.6619 ,1.67045 ,-0.88192 ,-8.65336 
460 ,82.8540 ,1.67233 ,-0.86481 ,-8.48547 
461 ,83.0303 ,1.67415 ,-0.88192 ,-8.65336 
462 ,83.2061 ,1.67591 ,-0.89560 ,-8.78767 
463 ,83.3821 ,1.67766 ,-0.91614 ,-8.98914 
