Data stamp = , 30-03-2022 16:19:48 368

Calibration Values: 
Slope = , 26.54 , g/V 
Offset Voltage at no contact = , -0.501760 , V 

No , Time , Stage Position ,   Mass , Force 
   ,  (s) ,      (mm)      ,   (g)  , (mN)  

1 ,0.0000 ,0.84949 ,5.34643 ,52.45915 
2 ,0.2213 ,0.84959 ,5.37038 ,52.69420 
3 ,0.5257 ,0.85041 ,5.34643 ,52.45915 
4 ,0.7017 ,0.85171 ,5.37038 ,52.69420 
5 ,0.8938 ,0.85325 ,5.35327 ,52.52631 
6 ,1.0858 ,0.85506 ,5.37381 ,52.72778 
7 ,1.2782 ,0.85700 ,5.36696 ,52.66062 
8 ,1.4541 ,0.85881 ,5.34643 ,52.45915 
9 ,1.6298 ,0.86058 ,5.34985 ,52.49273 
10 ,1.8221 ,0.86238 ,5.34301 ,52.42557 
11 ,2.0143 ,0.86445 ,5.30878 ,52.08979 
12 ,2.2062 ,0.86630 ,5.31563 ,52.15694 
13 ,2.3824 ,0.86808 ,5.28141 ,51.82116 
14 ,2.5744 ,0.86994 ,5.26430 ,51.65327 
15 ,2.7501 ,0.87171 ,5.26087 ,51.61969 
16 ,2.9265 ,0.87347 ,5.25061 ,51.51896 
17 ,3.1027 ,0.87525 ,5.23007 ,51.31749 
18 ,3.2790 ,0.87704 ,5.21296 ,51.14960 
19 ,3.4708 ,0.87898 ,5.19927 ,51.01528 
20 ,3.6470 ,0.88074 ,5.18559 ,50.88097 
21 ,3.8065 ,0.88245 ,5.16505 ,50.67950 
22 ,3.9829 ,0.88404 ,5.14794 ,50.51161 
23 ,4.1591 ,0.88583 ,5.13425 ,50.37729 
24 ,4.3351 ,0.88759 ,5.11030 ,50.14225 
25 ,4.5112 ,0.88936 ,5.10688 ,50.10867 
26 ,4.6873 ,0.89112 ,5.10345 ,50.07509 
27 ,4.8634 ,0.89290 ,5.08977 ,49.94078 
28 ,5.0556 ,0.89484 ,5.05212 ,49.57142 
29 ,5.2476 ,0.89663 ,5.04528 ,49.50426 
30 ,5.4237 ,0.89850 ,5.03159 ,49.36995 
31 ,5.5997 ,0.90024 ,5.01106 ,49.16848 
32 ,5.7918 ,0.90218 ,4.98026 ,48.86627 
33 ,5.9680 ,0.90393 ,4.97683 ,48.83269 
34 ,6.1440 ,0.90568 ,4.96315 ,48.69838 
35 ,6.3358 ,0.90759 ,4.94261 ,48.49691 
36 ,6.5121 ,0.90937 ,4.92550 ,48.32902 
37 ,6.6881 ,0.91109 ,4.92892 ,48.36260 
38 ,6.8639 ,0.91291 ,4.90155 ,48.09397 
39 ,7.0403 ,0.91463 ,4.87759 ,47.85892 
40 ,7.2325 ,0.91654 ,4.85021 ,47.59030 
41 ,7.4085 ,0.91832 ,4.85021 ,47.59030 
42 ,7.6004 ,0.92024 ,4.82284 ,47.32167 
43 ,7.7925 ,0.92218 ,4.79888 ,47.08662 
44 ,7.9684 ,0.92390 ,4.77835 ,46.88515 
45 ,8.1448 ,0.92566 ,4.77493 ,46.85157 
46 ,8.3206 ,0.92750 ,4.74755 ,46.58295 
47 ,8.4968 ,0.92916 ,4.71675 ,46.28074 
48 ,8.6729 ,0.93094 ,4.68937 ,46.01212 
49 ,8.8491 ,0.93270 ,4.68937 ,46.01212 
50 ,9.0407 ,0.93460 ,4.67568 ,45.87780 
51 ,9.2172 ,0.93636 ,4.63804 ,45.50844 
52 ,9.3931 ,0.93819 ,4.61751 ,45.30697 
53 ,9.5694 ,0.93992 ,4.61408 ,45.27339 
54 ,9.7453 ,0.94170 ,4.60382 ,45.17266 
55 ,9.9213 ,0.94342 ,4.56960 ,44.83688 
56 ,10.0972 ,0.94521 ,4.53880 ,44.53467 
57 ,10.2737 ,0.94693 ,4.54222 ,44.56825 
58 ,10.4496 ,0.94871 ,4.52853 ,44.43394 
59 ,10.6257 ,0.95050 ,4.50800 ,44.23247 
60 ,10.8018 ,0.95221 ,4.48746 ,44.03100 
61 ,10.9779 ,0.95400 ,4.47378 ,43.89668 
62 ,11.1377 ,0.95570 ,4.46351 ,43.79595 
63 ,11.3140 ,0.95731 ,4.43271 ,43.49374 
64 ,11.4898 ,0.95909 ,4.42244 ,43.39301 
65 ,11.6660 ,0.96089 ,4.41560 ,43.32585 
66 ,11.8421 ,0.96263 ,4.39849 ,43.15796 
67 ,12.0344 ,0.96454 ,4.36427 ,42.82218 
68 ,12.2103 ,0.96632 ,4.35058 ,42.68786 
69 ,12.3865 ,0.96805 ,4.34373 ,42.62071 
70 ,12.5626 ,0.96989 ,4.31978 ,42.38566 
71 ,12.7547 ,0.97174 ,4.30267 ,42.21777 
72 ,12.9308 ,0.97355 ,4.28898 ,42.08345 
73 ,13.1228 ,0.97541 ,4.26502 ,41.84841 
74 ,13.2989 ,0.97720 ,4.25133 ,41.71409 
75 ,13.4910 ,0.97913 ,4.23080 ,41.51262 
76 ,13.6510 ,0.98085 ,4.22053 ,41.41189 
77 ,13.8271 ,0.98245 ,4.20685 ,41.27758 
78 ,14.0030 ,0.98420 ,4.18289 ,41.04253 
79 ,14.1628 ,0.98595 ,4.16920 ,40.90821 
80 ,14.3233 ,0.98755 ,4.15209 ,40.74032 
81 ,14.5153 ,0.98935 ,4.13156 ,40.53885 
82 ,14.7075 ,0.99124 ,4.12814 ,40.50527 
83 ,14.8836 ,0.99306 ,4.11445 ,40.37096 
84 ,15.0755 ,0.99494 ,4.08023 ,40.03518 
85 ,15.2517 ,0.99669 ,4.05969 ,39.83371 
86 ,15.4438 ,0.99862 ,4.05627 ,39.80013 
87 ,15.6518 ,1.00063 ,4.02547 ,39.49793 
88 ,15.8278 ,1.00245 ,4.01863 ,39.43077 
89 ,16.0040 ,1.00426 ,3.99467 ,39.19572 
90 ,16.1801 ,1.00598 ,3.97756 ,39.02783 
91 ,16.3558 ,1.00775 ,3.95703 ,38.82636 
92 ,16.5319 ,1.00950 ,3.94676 ,38.72562 
93 ,16.7083 ,1.01128 ,3.94334 ,38.69205 
94 ,16.8845 ,1.01306 ,3.91254 ,38.38984 
95 ,17.0766 ,1.01500 ,3.88858 ,38.15479 
96 ,17.2524 ,1.01672 ,3.88174 ,38.08764 
97 ,17.4282 ,1.01854 ,3.86121 ,37.88617 
98 ,17.6205 ,1.02033 ,3.85436 ,37.81901 
99 ,17.7967 ,1.02214 ,3.82014 ,37.48323 
100 ,17.9725 ,1.02390 ,3.80987 ,37.38249 
101 ,18.1649 ,1.02577 ,3.80987 ,37.38249 
102 ,18.3570 ,1.02780 ,3.76881 ,36.97955 
103 ,18.5490 ,1.02970 ,3.76881 ,36.97955 
104 ,18.7411 ,1.03159 ,3.74485 ,36.74450 
105 ,18.9171 ,1.03335 ,3.71405 ,36.44230 
106 ,19.0932 ,1.03513 ,3.70721 ,36.37514 
107 ,19.2693 ,1.03689 ,3.69694 ,36.27441 
108 ,19.4614 ,1.03881 ,3.69010 ,36.20725 
109 ,19.6376 ,1.04059 ,3.67299 ,36.03936 
110 ,19.8294 ,1.04250 ,3.64903 ,35.80431 
111 ,20.0055 ,1.04424 ,3.62850 ,35.60284 
112 ,20.1817 ,1.04600 ,3.61139 ,35.43495 
113 ,20.3737 ,1.04791 ,3.60797 ,35.40137 
114 ,20.5496 ,1.04966 ,3.58743 ,35.19990 
115 ,20.7256 ,1.05147 ,3.57375 ,35.06559 
116 ,20.9340 ,1.05351 ,3.54979 ,34.83054 
117 ,21.1097 ,1.05533 ,3.54295 ,34.76338 
118 ,21.2862 ,1.05705 ,3.51557 ,34.49476 
119 ,21.4783 ,1.05889 ,3.51215 ,34.46118 
120 ,21.6539 ,1.06069 ,3.48819 ,34.22613 
121 ,21.8303 ,1.06250 ,3.48135 ,34.15898 
122 ,22.0224 ,1.06442 ,3.45397 ,33.89035 
123 ,22.1984 ,1.06611 ,3.43001 ,33.65530 
124 ,22.3905 ,1.06802 ,3.43001 ,33.65530 
125 ,22.5664 ,1.06989 ,3.41633 ,33.52099 
126 ,22.7263 ,1.07152 ,3.38553 ,33.21878 
127 ,22.9028 ,1.07321 ,3.37526 ,33.11805 
128 ,23.0944 ,1.07511 ,3.36157 ,32.98374 
129 ,23.2705 ,1.07684 ,3.34788 ,32.84942 
130 ,23.4468 ,1.07862 ,3.34104 ,32.78227 
131 ,23.6551 ,1.08066 ,3.30682 ,32.44648 
132 ,23.8471 ,1.08269 ,3.29313 ,32.31217 
133 ,24.0393 ,1.08460 ,3.27259 ,32.11070 
134 ,24.2153 ,1.08630 ,3.25548 ,31.94281 
135 ,24.4074 ,1.08812 ,3.24864 ,31.87565 
136 ,24.5836 ,1.09000 ,3.23153 ,31.70776 
137 ,24.7753 ,1.09193 ,3.20757 ,31.47271 
138 ,24.9515 ,1.09371 ,3.19388 ,31.33840 
139 ,25.1437 ,1.09562 ,3.17677 ,31.17051 
140 ,25.3197 ,1.09734 ,3.15966 ,31.00262 
141 ,25.5119 ,1.09930 ,3.15624 ,30.96904 
142 ,25.7199 ,1.10124 ,3.12202 ,30.63325 
143 ,25.8956 ,1.10309 ,3.10491 ,30.46536 
144 ,26.0721 ,1.10484 ,3.10149 ,30.43178 
145 ,26.2478 ,1.10662 ,3.10149 ,30.43178 
146 ,26.4243 ,1.10841 ,3.07753 ,30.19674 
147 ,26.6003 ,1.11018 ,3.05358 ,29.96169 
148 ,26.7923 ,1.11213 ,3.03647 ,29.79380 
149 ,26.9685 ,1.11386 ,3.02620 ,29.69306 
150 ,27.1602 ,1.11573 ,2.99882 ,29.42444 
151 ,27.3364 ,1.11751 ,2.98171 ,29.25654 
152 ,27.5286 ,1.11943 ,2.98855 ,29.32370 
153 ,27.7048 ,1.12117 ,2.96460 ,29.08865 
154 ,27.8806 ,1.12296 ,2.94064 ,28.85360 
155 ,28.0565 ,1.12471 ,2.93038 ,28.75287 
156 ,28.2489 ,1.12660 ,2.92011 ,28.65213 
157 ,28.4249 ,1.12838 ,2.90300 ,28.48424 
158 ,28.6171 ,1.13025 ,2.88589 ,28.31635 
159 ,28.7930 ,1.13210 ,2.87220 ,28.18204 
160 ,28.9851 ,1.13398 ,2.86193 ,28.08130 
161 ,29.1773 ,1.13586 ,2.83456 ,27.81268 
162 ,29.3853 ,1.13797 ,2.81745 ,27.64479 
163 ,29.5614 ,1.13975 ,2.80376 ,27.51047 
164 ,29.7376 ,1.14150 ,2.78322 ,27.30900 
165 ,29.9296 ,1.14348 ,2.79007 ,27.37616 
166 ,30.0893 ,1.14516 ,2.78322 ,27.30900 
167 ,30.2658 ,1.14679 ,2.75927 ,27.07395 
168 ,30.4578 ,1.14871 ,2.73189 ,26.80533 
169 ,30.6655 ,1.15070 ,2.71478 ,26.63744 
170 ,30.8418 ,1.15252 ,2.69425 ,26.43597 
171 ,31.0338 ,1.15443 ,2.70452 ,26.53670 
172 ,31.2100 ,1.15637 ,2.67714 ,26.26807 
173 ,31.3862 ,1.15801 ,2.67372 ,26.23450 
174 ,31.5624 ,1.15975 ,2.64292 ,25.93229 
175 ,31.7384 ,1.16156 ,2.63607 ,25.86514 
176 ,31.9139 ,1.16325 ,2.60869 ,25.59651 
177 ,32.0904 ,1.16502 ,2.61212 ,25.63009 
178 ,32.2665 ,1.16680 ,2.59843 ,25.49577 
179 ,32.4586 ,1.16870 ,2.56421 ,25.15999 
180 ,32.6506 ,1.17062 ,2.57105 ,25.22715 
181 ,32.8268 ,1.17246 ,2.55052 ,25.02568 
182 ,33.0188 ,1.17422 ,2.52998 ,24.82421 
183 ,33.1946 ,1.17609 ,2.51972 ,24.72347 
184 ,33.3709 ,1.17787 ,2.50603 ,24.58916 
185 ,33.5471 ,1.17956 ,2.49576 ,24.48842 
186 ,33.7390 ,1.18161 ,2.48207 ,24.35411 
187 ,33.9151 ,1.18333 ,2.46154 ,24.15264 
188 ,34.0913 ,1.18505 ,2.45470 ,24.08549 
189 ,34.2830 ,1.18689 ,2.43759 ,23.91759 
190 ,34.4755 ,1.18880 ,2.42390 ,23.78328 
191 ,34.6513 ,1.19063 ,2.39994 ,23.54823 
192 ,34.8272 ,1.19243 ,2.39652 ,23.51465 
193 ,35.0198 ,1.19422 ,2.37256 ,23.27961 
194 ,35.2117 ,1.19625 ,2.36914 ,23.24603 
195 ,35.4038 ,1.19817 ,2.34177 ,22.97740 
196 ,35.5798 ,1.19989 ,2.31781 ,22.74235 
197 ,35.7559 ,1.20170 ,2.31439 ,22.70877 
198 ,35.9317 ,1.20342 ,2.31439 ,22.70877 
199 ,36.1080 ,1.20519 ,2.29385 ,22.50731 
200 ,36.2681 ,1.20691 ,2.26306 ,22.20510 
201 ,36.4438 ,1.20856 ,2.24937 ,22.07079 
202 ,36.6202 ,1.21031 ,2.23910 ,21.97005 
203 ,36.7964 ,1.21212 ,2.22541 ,21.83574 
204 ,36.9724 ,1.21385 ,2.22883 ,21.86932 
205 ,37.1486 ,1.21560 ,2.21172 ,21.70143 
206 ,37.3406 ,1.21754 ,2.18435 ,21.43280 
207 ,37.5322 ,1.21948 ,2.18092 ,21.39922 
208 ,37.7249 ,1.22126 ,2.17066 ,21.29849 
209 ,37.9009 ,1.22317 ,2.15012 ,21.09702 
210 ,38.0768 ,1.22499 ,2.14328 ,21.02986 
211 ,38.2530 ,1.22666 ,2.12959 ,20.89555 
212 ,38.4450 ,1.22859 ,2.10564 ,20.66050 
213 ,38.6211 ,1.23034 ,2.08510 ,20.45903 
214 ,38.7972 ,1.23207 ,2.08168 ,20.42545 
215 ,38.9733 ,1.23385 ,2.06799 ,20.29114 
216 ,39.1494 ,1.23560 ,2.06115 ,20.22398 
217 ,39.3415 ,1.23751 ,2.03035 ,19.92178 
218 ,39.5175 ,1.23924 ,2.02008 ,19.82104 
219 ,39.6935 ,1.24104 ,2.01666 ,19.78746 
220 ,39.8696 ,1.24281 ,2.00297 ,19.65315 
221 ,40.0458 ,1.24459 ,1.98586 ,19.48526 
222 ,40.2214 ,1.24633 ,1.96533 ,19.28379 
223 ,40.4136 ,1.24812 ,1.96533 ,19.28379 
224 ,40.5900 ,1.25000 ,1.93453 ,18.98158 
225 ,40.7817 ,1.25191 ,1.92768 ,18.91443 
226 ,40.9577 ,1.25369 ,1.91399 ,18.78011 
227 ,41.1341 ,1.25542 ,1.90373 ,18.67938 
228 ,41.3263 ,1.25735 ,1.88662 ,18.51149 
229 ,41.5183 ,1.25930 ,1.88662 ,18.51149 
230 ,41.6783 ,1.26102 ,1.86951 ,18.34360 
231 ,41.8544 ,1.26261 ,1.85582 ,18.20928 
232 ,42.0466 ,1.26458 ,1.83528 ,18.00781 
233 ,42.2221 ,1.26647 ,1.82160 ,17.87350 
234 ,42.3986 ,1.26812 ,1.81475 ,17.80634 
235 ,42.5908 ,1.26998 ,1.79080 ,17.57129 
236 ,42.7825 ,1.27182 ,1.77711 ,17.43698 
237 ,42.9587 ,1.27369 ,1.76000 ,17.26909 
238 ,43.1510 ,1.27554 ,1.73946 ,17.06762 
239 ,43.3269 ,1.27736 ,1.71893 ,16.86615 
240 ,43.5032 ,1.27912 ,1.72578 ,16.93331 
241 ,43.6791 ,1.28091 ,1.70524 ,16.73184 
242 ,43.8548 ,1.28271 ,1.68813 ,16.56395 
243 ,44.0312 ,1.28441 ,1.69498 ,16.63110 
244 ,44.2072 ,1.28616 ,1.66760 ,16.36248 
245 ,44.3835 ,1.28794 ,1.66075 ,16.29532 
246 ,44.5755 ,1.28985 ,1.64364 ,16.12743 
247 ,44.7677 ,1.29170 ,1.62653 ,15.95954 
248 ,44.9593 ,1.29362 ,1.61627 ,15.85880 
249 ,45.1357 ,1.29545 ,1.61284 ,15.82522 
250 ,45.3118 ,1.29715 ,1.59231 ,15.62375 
251 ,45.5040 ,1.29912 ,1.56493 ,15.35513 
252 ,45.6803 ,1.30090 ,1.55124 ,15.22081 
253 ,45.8561 ,1.30266 ,1.55809 ,15.28797 
254 ,46.0478 ,1.30457 ,1.52387 ,14.95219 
255 ,46.2241 ,1.30626 ,1.50333 ,14.75072 
256 ,46.4163 ,1.30813 ,1.50676 ,14.78430 
257 ,46.5924 ,1.31004 ,1.49649 ,14.68356 
258 ,46.7842 ,1.31187 ,1.47938 ,14.51567 
259 ,46.9766 ,1.31384 ,1.46911 ,14.41493 
260 ,47.1524 ,1.31559 ,1.44858 ,14.21346 
261 ,47.3607 ,1.31757 ,1.42805 ,14.01199 
262 ,47.5367 ,1.31951 ,1.42120 ,13.94484 
263 ,47.7286 ,1.32141 ,1.40751 ,13.81053 
264 ,47.9209 ,1.32330 ,1.39725 ,13.70979 
265 ,48.0968 ,1.32508 ,1.39040 ,13.64263 
266 ,48.2733 ,1.32683 ,1.36645 ,13.40759 
267 ,48.4810 ,1.32880 ,1.33565 ,13.10538 
268 ,48.6571 ,1.33063 ,1.33565 ,13.10538 
269 ,48.8333 ,1.33241 ,1.32880 ,13.03822 
270 ,49.0092 ,1.33419 ,1.30143 ,12.76960 
271 ,49.1851 ,1.33591 ,1.28432 ,12.60171 
272 ,49.3615 ,1.33772 ,1.28089 ,12.56813 
273 ,49.5373 ,1.33944 ,1.27747 ,12.53455 
274 ,49.7137 ,1.34124 ,1.26036 ,12.36666 
275 ,49.9056 ,1.34309 ,1.23641 ,12.13161 
276 ,50.0818 ,1.34486 ,1.22956 ,12.06445 
277 ,50.2574 ,1.34661 ,1.22614 ,12.03088 
278 ,50.4338 ,1.34844 ,1.19534 ,11.72867 
279 ,50.6260 ,1.35029 ,1.17823 ,11.56078 
280 ,50.8018 ,1.35209 ,1.17138 ,11.49362 
281 ,51.0098 ,1.35416 ,1.15085 ,11.29215 
282 ,51.1860 ,1.35594 ,1.14401 ,11.22500 
283 ,51.3622 ,1.35782 ,1.14401 ,11.22500 
284 ,51.5383 ,1.35943 ,1.12690 ,11.05710 
285 ,51.7144 ,1.36123 ,1.11663 ,10.95637 
286 ,51.9065 ,1.36308 ,1.09610 ,10.75490 
287 ,52.0986 ,1.36504 ,1.08241 ,10.62059 
288 ,52.2743 ,1.36682 ,1.06872 ,10.48627 
289 ,52.4506 ,1.36854 ,1.04819 ,10.28480 
290 ,52.6266 ,1.37031 ,1.02765 ,10.08333 
291 ,52.8188 ,1.37223 ,1.03108 ,10.11691 
292 ,53.0109 ,1.37415 ,0.99685 ,9.78113 
293 ,53.2028 ,1.37606 ,1.00370 ,9.84829 
294 ,53.3788 ,1.37784 ,0.99001 ,9.71397 
295 ,53.5549 ,1.37965 ,0.96948 ,9.51250 
296 ,53.7471 ,1.38147 ,0.94552 ,9.27745 
297 ,53.9393 ,1.38335 ,0.94894 ,9.31103 
298 ,54.1153 ,1.38523 ,0.94552 ,9.27745 
299 ,54.2910 ,1.38697 ,0.90788 ,8.90809 
300 ,54.4512 ,1.38867 ,0.89077 ,8.74020 
301 ,54.6276 ,1.39032 ,0.88392 ,8.67305 
302 ,54.8354 ,1.39233 ,0.88392 ,8.67305 
303 ,55.0117 ,1.39418 ,0.84970 ,8.33726 
304 ,55.2037 ,1.39608 ,0.84970 ,8.33726 
305 ,55.3800 ,1.39781 ,0.84628 ,8.30368 
306 ,55.5556 ,1.39957 ,0.83943 ,8.23653 
307 ,55.7478 ,1.40143 ,0.80521 ,7.90074 
308 ,55.9240 ,1.40326 ,0.79837 ,7.83359 
309 ,56.1002 ,1.40500 ,0.79837 ,7.83359 
310 ,56.2763 ,1.40689 ,0.76415 ,7.49780 
311 ,56.4523 ,1.40854 ,0.75730 ,7.43065 
312 ,56.6279 ,1.41037 ,0.76072 ,7.46423 
313 ,56.8044 ,1.41209 ,0.74704 ,7.32991 
314 ,56.9961 ,1.41402 ,0.72992 ,7.16202 
315 ,57.1725 ,1.41577 ,0.70939 ,6.96055 
316 ,57.3645 ,1.41769 ,0.70597 ,6.92697 
317 ,57.5407 ,1.41943 ,0.69913 ,6.85982 
318 ,57.7007 ,1.42116 ,0.68886 ,6.75908 
319 ,57.8769 ,1.42278 ,0.67859 ,6.65835 
320 ,58.0529 ,1.42459 ,0.64437 ,6.32256 
321 ,58.2289 ,1.42636 ,0.64095 ,6.28899 
322 ,58.4051 ,1.42806 ,0.63753 ,6.25541 
323 ,58.5970 ,1.42995 ,0.63068 ,6.18825 
324 ,58.7733 ,1.43177 ,0.61015 ,5.98678 
325 ,58.9492 ,1.43351 ,0.58619 ,5.75173 
326 ,59.1253 ,1.43531 ,0.58619 ,5.75173 
327 ,59.3012 ,1.43705 ,0.57593 ,5.65100 
328 ,59.4932 ,1.43896 ,0.55539 ,5.44953 
329 ,59.6695 ,1.44069 ,0.54171 ,5.31522 
330 ,59.8615 ,1.44265 ,0.55197 ,5.41595 
331 ,60.0695 ,1.44463 ,0.52459 ,5.14732 
332 ,60.2457 ,1.44643 ,0.51775 ,5.08017 
333 ,60.4216 ,1.44826 ,0.50748 ,4.97943 
334 ,60.5979 ,1.45003 ,0.49380 ,4.84512 
335 ,60.7739 ,1.45181 ,0.48695 ,4.77796 
336 ,60.9661 ,1.45356 ,0.46300 ,4.54291 
337 ,61.1581 ,1.45563 ,0.46300 ,4.54291 
338 ,61.3340 ,1.45734 ,0.44588 ,4.37502 
339 ,61.5102 ,1.45912 ,0.42877 ,4.20713 
340 ,61.6863 ,1.46084 ,0.43562 ,4.27429 
341 ,61.8621 ,1.46264 ,0.41509 ,4.07282 
342 ,62.0385 ,1.46444 ,0.41166 ,4.03924 
343 ,62.2305 ,1.46635 ,0.38429 ,3.77061 
344 ,62.4065 ,1.46808 ,0.38086 ,3.73703 
345 ,62.5827 ,1.46984 ,0.37744 ,3.70346 
346 ,62.7587 ,1.47156 ,0.36375 ,3.56914 
347 ,62.9345 ,1.47334 ,0.33638 ,3.30052 
348 ,63.1269 ,1.47519 ,0.33295 ,3.26694 
349 ,63.3029 ,1.47715 ,0.33295 ,3.26694 
350 ,63.4790 ,1.47881 ,0.31242 ,3.06547 
351 ,63.6549 ,1.48054 ,0.29873 ,2.93116 
352 ,63.8312 ,1.48233 ,0.27820 ,2.72969 
353 ,64.0228 ,1.48423 ,0.28162 ,2.76326 
354 ,64.1993 ,1.48604 ,0.26793 ,2.62895 
355 ,64.3756 ,1.48777 ,0.26451 ,2.59537 
356 ,64.5514 ,1.48953 ,0.24398 ,2.39390 
357 ,64.7274 ,1.49125 ,0.23371 ,2.29317 
358 ,64.9036 ,1.49315 ,0.23029 ,2.25959 
359 ,65.0794 ,1.49477 ,0.21660 ,2.12528 
360 ,65.2558 ,1.49657 ,0.20291 ,1.99096 
361 ,65.4477 ,1.49841 ,0.19264 ,1.89023 
362 ,65.6235 ,1.50025 ,0.18238 ,1.78949 
363 ,65.7999 ,1.50198 ,0.17553 ,1.72234 
364 ,65.9918 ,1.50391 ,0.15158 ,1.48729 
365 ,66.1840 ,1.50583 ,0.15500 ,1.52087 
366 ,66.3762 ,1.50777 ,0.13789 ,1.35298 
367 ,66.5519 ,1.50950 ,0.13105 ,1.28582 
368 ,66.7282 ,1.51128 ,0.10709 ,1.05077 
369 ,66.9044 ,1.51302 ,0.11051 ,1.08435 
370 ,67.0805 ,1.51479 ,0.09682 ,0.95004 
371 ,67.2405 ,1.51650 ,0.07971 ,0.78214 
372 ,67.4162 ,1.51812 ,0.06260 ,0.61425 
373 ,67.5926 ,1.51994 ,0.04549 ,0.44636 
374 ,67.7844 ,1.52186 ,0.04891 ,0.47994 
375 ,67.9607 ,1.52358 ,0.04549 ,0.44636 
376 ,68.1687 ,1.52561 ,0.02154 ,0.21131 
377 ,68.3448 ,1.52740 ,0.01127 ,0.11058 
378 ,68.5369 ,1.52928 ,-0.01269 ,-0.12447 
379 ,68.7130 ,1.53112 ,-0.01611 ,-0.15805 
380 ,68.8889 ,1.53290 ,-0.02980 ,-0.29236 
381 ,69.0653 ,1.53465 ,-0.02637 ,-0.25878 
382 ,69.2409 ,1.53640 ,-0.04006 ,-0.39310 
383 ,69.4168 ,1.53819 ,-0.06402 ,-0.62814 
384 ,69.5929 ,1.53992 ,-0.06744 ,-0.66172 
385 ,69.7690 ,1.54169 ,-0.09140 ,-0.89677 
386 ,69.9453 ,1.54348 ,-0.09140 ,-0.89677 
387 ,70.1536 ,1.54542 ,-0.08797 ,-0.86319 
388 ,70.3454 ,1.54746 ,-0.10851 ,-1.06466 
389 ,70.5377 ,1.54931 ,-0.12904 ,-1.26613 
390 ,70.7297 ,1.55119 ,-0.13588 ,-1.33329 
391 ,70.9059 ,1.55304 ,-0.14615 ,-1.43402 
392 ,71.0820 ,1.55483 ,-0.15984 ,-1.56834 
393 ,71.2578 ,1.55657 ,-0.17011 ,-1.66907 
394 ,71.4337 ,1.55835 ,-0.19064 ,-1.87054 
395 ,71.6098 ,1.56017 ,-0.19064 ,-1.87054 
396 ,71.7700 ,1.56177 ,-0.19748 ,-1.93770 
397 ,71.9463 ,1.56343 ,-0.21459 ,-2.10559 
398 ,72.1544 ,1.56540 ,-0.22486 ,-2.20632 
399 ,72.3144 ,1.56727 ,-0.25566 ,-2.50853 
400 ,72.4902 ,1.56885 ,-0.25224 ,-2.47495 
401 ,72.6666 ,1.57066 ,-0.26250 ,-2.57569 
402 ,72.8426 ,1.57244 ,-0.26593 ,-2.60926 
403 ,73.0188 ,1.57413 ,-0.28304 ,-2.77716 
404 ,73.1945 ,1.57595 ,-0.28646 ,-2.81073 
405 ,73.3709 ,1.57769 ,-0.30357 ,-2.97863 
406 ,73.5469 ,1.57945 ,-0.30015 ,-2.94505 
407 ,73.7391 ,1.58130 ,-0.32410 ,-3.18010 
408 ,73.9310 ,1.58333 ,-0.34464 ,-3.38156 
409 ,74.1073 ,1.58502 ,-0.34121 ,-3.34799 
410 ,74.2835 ,1.58684 ,-0.34464 ,-3.38156 
411 ,74.4754 ,1.58871 ,-0.37544 ,-3.68377 
412 ,74.6510 ,1.59059 ,-0.36175 ,-3.54946 
413 ,74.8275 ,1.59222 ,-0.39255 ,-3.85166 
414 ,75.0036 ,1.59398 ,-0.38570 ,-3.78450 
415 ,75.1796 ,1.59576 ,-0.40281 ,-3.95240 
416 ,75.3555 ,1.59747 ,-0.42335 ,-4.15387 
417 ,75.5478 ,1.59943 ,-0.41650 ,-4.08671 
418 ,75.7399 ,1.60130 ,-0.43019 ,-4.22102 
419 ,75.9320 ,1.60328 ,-0.46441 ,-4.55681 
420 ,76.1080 ,1.60506 ,-0.46441 ,-4.55681 
421 ,76.3002 ,1.60688 ,-0.46783 ,-4.59038 
422 ,76.4764 ,1.60873 ,-0.49179 ,-4.82543 
423 ,76.6521 ,1.61053 ,-0.49863 ,-4.89259 
424 ,76.8442 ,1.61241 ,-0.49179 ,-4.82543 
425 ,77.0203 ,1.61413 ,-0.50548 ,-4.95975 
426 ,77.1965 ,1.61590 ,-0.53285 ,-5.22837 
427 ,77.4045 ,1.61784 ,-0.52601 ,-5.16121 
428 ,77.5966 ,1.61993 ,-0.54997 ,-5.39626 
429 ,77.7725 ,1.62165 ,-0.57050 ,-5.59773 
430 ,77.9488 ,1.62344 ,-0.58419 ,-5.73205 
431 ,78.1408 ,1.62538 ,-0.57050 ,-5.59773 
432 ,78.3329 ,1.62717 ,-0.58761 ,-5.76562 
433 ,78.5089 ,1.62902 ,-0.60130 ,-5.89994 
434 ,78.6851 ,1.63080 ,-0.59788 ,-5.86636 
435 ,78.8767 ,1.63273 ,-0.62525 ,-6.13499 
436 ,79.0531 ,1.63444 ,-0.64921 ,-6.37003 
437 ,79.2294 ,1.63622 ,-0.64579 ,-6.33646 
438 ,79.4214 ,1.63810 ,-0.64579 ,-6.33646 
439 ,79.6135 ,1.64001 ,-0.66290 ,-6.50435 
440 ,79.8055 ,1.64201 ,-0.66632 ,-6.53793 
441 ,79.9977 ,1.64377 ,-0.67659 ,-6.63866 
442 ,80.1898 ,1.64586 ,-0.69370 ,-6.80655 
443 ,80.3657 ,1.64764 ,-0.69712 ,-6.84013 
444 ,80.5578 ,1.64949 ,-0.72450 ,-7.10876 
445 ,80.7340 ,1.65127 ,-0.73476 ,-7.20949 
446 ,80.9097 ,1.65307 ,-0.74503 ,-7.31023 
447 ,81.0700 ,1.65472 ,-0.74503 ,-7.31023 
448 ,81.2461 ,1.65641 ,-0.74845 ,-7.34380 
449 ,81.4221 ,1.65816 ,-0.76556 ,-7.51170 
450 ,81.6142 ,1.66005 ,-0.78610 ,-7.71317 
451 ,81.7903 ,1.66183 ,-0.79636 ,-7.81390 
452 ,81.9664 ,1.66361 ,-0.78610 ,-7.71317 
453 ,82.1424 ,1.66533 ,-0.79636 ,-7.81390 
454 ,82.3185 ,1.66727 ,-0.82374 ,-8.08253 
455 ,82.4946 ,1.66887 ,-0.83743 ,-8.21684 
456 ,82.6867 ,1.67072 ,-0.83743 ,-8.21684 
457 ,82.8789 ,1.67268 ,-0.86138 ,-8.45189 
458 ,83.0546 ,1.67453 ,-0.86823 ,-8.51904 
459 ,83.2469 ,1.67632 ,-0.85454 ,-8.38473 
460 ,83.4384 ,1.67833 ,-0.88192 ,-8.65336 
461 ,83.5984 ,1.68005 ,-0.88876 ,-8.72051 
462 ,83.7586 ,1.68164 ,-0.90929 ,-8.92198 
463 ,83.9186 ,1.68324 ,-0.91272 ,-8.95556 
