Data stamp = , 30-03-2022 22:01:20 113

Calibration Values: 
Slope = , 26.54 , g/V 
Offset Voltage at no contact = , -0.501760 , V 

No , Time , Stage Position ,   Mass , Force 
   ,  (s) ,      (mm)      ,   (g)  , (mN)  

1 ,0.0000 ,0.84943 ,5.38065 ,52.79493 
2 ,0.2960 ,0.84961 ,5.38749 ,52.86209 
3 ,0.7122 ,0.85111 ,5.37381 ,52.72778 
4 ,0.9201 ,0.85340 ,5.37038 ,52.69420 
5 ,1.0963 ,0.85512 ,5.39434 ,52.92925 
6 ,1.2722 ,0.85684 ,5.40803 ,53.06356 
7 ,1.4319 ,0.85857 ,5.40460 ,53.02998 
8 ,1.6086 ,0.86029 ,5.36696 ,52.66062 
9 ,1.7845 ,0.86204 ,5.34643 ,52.45915 
10 ,1.9604 ,0.86388 ,5.32932 ,52.29126 
11 ,2.1527 ,0.86569 ,5.32247 ,52.22410 
12 ,2.3288 ,0.86746 ,5.29852 ,51.98905 
13 ,2.5205 ,0.86939 ,5.26772 ,51.68685 
14 ,2.6968 ,0.87112 ,5.28141 ,51.82116 
15 ,2.8728 ,0.87294 ,5.24718 ,51.48538 
16 ,3.0490 ,0.87466 ,5.22665 ,51.28391 
17 ,3.2251 ,0.87644 ,5.21296 ,51.14960 
18 ,3.4014 ,0.87822 ,5.20954 ,51.11602 
19 ,3.5613 ,0.87997 ,5.19927 ,51.01528 
20 ,3.7534 ,0.88163 ,5.18901 ,50.91455 
21 ,3.9453 ,0.88366 ,5.15821 ,50.61234 
22 ,4.1215 ,0.88536 ,5.14794 ,50.51161 
23 ,4.2975 ,0.88724 ,5.14110 ,50.44445 
24 ,4.4736 ,0.88893 ,5.12399 ,50.27656 
25 ,4.6336 ,0.89065 ,5.08977 ,49.94078 
26 ,4.7936 ,0.89226 ,5.08292 ,49.87362 
27 ,4.9699 ,0.89388 ,5.07608 ,49.80646 
28 ,5.1620 ,0.89583 ,5.05554 ,49.60499 
29 ,5.3378 ,0.89756 ,5.03843 ,49.43710 
30 ,5.5140 ,0.89931 ,5.03843 ,49.43710 
31 ,5.6741 ,0.90100 ,4.99737 ,49.03416 
32 ,5.8502 ,0.90269 ,4.98368 ,48.89985 
33 ,6.0265 ,0.90446 ,4.96999 ,48.76554 
34 ,6.2023 ,0.90621 ,4.95972 ,48.66480 
35 ,6.3943 ,0.90809 ,4.93235 ,48.39618 
36 ,6.5705 ,0.90995 ,4.91866 ,48.26186 
37 ,6.7466 ,0.91166 ,4.89128 ,47.99324 
38 ,6.9547 ,0.91370 ,4.89128 ,47.99324 
39 ,7.1306 ,0.91543 ,4.86048 ,47.69103 
40 ,7.3070 ,0.91725 ,4.83652 ,47.45598 
41 ,7.4829 ,0.91900 ,4.82968 ,47.38883 
42 ,7.6590 ,0.92077 ,4.81599 ,47.25451 
43 ,7.8351 ,0.92253 ,4.79204 ,47.01946 
44 ,8.0113 ,0.92434 ,4.77493 ,46.85157 
45 ,8.1872 ,0.92606 ,4.75439 ,46.65010 
46 ,8.3632 ,0.92785 ,4.74413 ,46.54937 
47 ,8.5394 ,0.92954 ,4.73386 ,46.44863 
48 ,8.7154 ,0.93135 ,4.70306 ,46.14643 
49 ,8.8915 ,0.93307 ,4.67568 ,45.87780 
50 ,9.0996 ,0.93512 ,4.66884 ,45.81065 
51 ,9.2917 ,0.93711 ,4.63804 ,45.50844 
52 ,9.4675 ,0.93890 ,4.63119 ,45.44128 
53 ,9.6437 ,0.94062 ,4.62435 ,45.37413 
54 ,9.8197 ,0.94240 ,4.59013 ,45.03835 
55 ,9.9957 ,0.94415 ,4.59013 ,45.03835 
56 ,10.1879 ,0.94606 ,4.56960 ,44.83688 
57 ,10.3641 ,0.94780 ,4.55249 ,44.66898 
58 ,10.5402 ,0.94960 ,4.53537 ,44.50109 
59 ,10.7321 ,0.95148 ,4.50457 ,44.19889 
60 ,10.8918 ,0.95321 ,4.49431 ,44.09815 
61 ,11.0684 ,0.95483 ,4.48062 ,43.96384 
62 ,11.2444 ,0.95664 ,4.46351 ,43.79595 
63 ,11.4205 ,0.95836 ,4.43955 ,43.56090 
64 ,11.6286 ,0.96041 ,4.42586 ,43.42659 
65 ,11.8206 ,0.96231 ,4.40533 ,43.22512 
66 ,11.9967 ,0.96426 ,4.37453 ,42.92291 
67 ,12.1726 ,0.96585 ,4.37111 ,42.88933 
68 ,12.3489 ,0.96769 ,4.34373 ,42.62071 
69 ,12.5568 ,0.96968 ,4.33004 ,42.48639 
70 ,12.7329 ,0.97148 ,4.30267 ,42.21777 
71 ,12.9091 ,0.97322 ,4.31636 ,42.35208 
72 ,13.0851 ,0.97500 ,4.29240 ,42.11703 
73 ,13.2612 ,0.97674 ,4.25133 ,41.71409 
74 ,13.4374 ,0.97850 ,4.24449 ,41.64694 
75 ,13.6134 ,0.98029 ,4.22738 ,41.47905 
76 ,13.8054 ,0.98223 ,4.22738 ,41.47905 
77 ,13.9816 ,0.98395 ,4.19658 ,41.17684 
78 ,14.1576 ,0.98577 ,4.16578 ,40.87464 
79 ,14.3497 ,0.98768 ,4.16920 ,40.90821 
80 ,14.5255 ,0.98937 ,4.15551 ,40.77390 
81 ,14.7019 ,0.99120 ,4.11787 ,40.40454 
82 ,14.8777 ,0.99295 ,4.11787 ,40.40454 
83 ,15.0539 ,0.99472 ,4.09734 ,40.20307 
84 ,15.2299 ,0.99649 ,4.08707 ,40.10233 
85 ,15.4221 ,0.99841 ,4.05969 ,39.83371 
86 ,15.6140 ,1.00034 ,4.04600 ,39.69940 
87 ,15.8062 ,1.00217 ,4.01520 ,39.39719 
88 ,15.9823 ,1.00399 ,4.00152 ,39.26288 
89 ,16.1580 ,1.00571 ,3.99467 ,39.19572 
90 ,16.3345 ,1.00752 ,3.98098 ,39.06141 
91 ,16.5266 ,1.00943 ,3.95018 ,38.75920 
92 ,16.7025 ,1.01122 ,3.93992 ,38.65847 
93 ,16.8786 ,1.01290 ,3.92965 ,38.55773 
94 ,17.0547 ,1.01471 ,3.90912 ,38.35626 
95 ,17.2464 ,1.01665 ,3.88516 ,38.12122 
96 ,17.4228 ,1.01835 ,3.87147 ,37.98690 
97 ,17.6149 ,1.02033 ,3.86463 ,37.91975 
98 ,17.7910 ,1.02208 ,3.85436 ,37.81901 
99 ,17.9831 ,1.02395 ,3.83041 ,37.58396 
100 ,18.1592 ,1.02571 ,3.80303 ,37.31534 
101 ,18.3188 ,1.02742 ,3.79619 ,37.24818 
102 ,18.4951 ,1.02912 ,3.78250 ,37.11387 
103 ,18.6713 ,1.03084 ,3.77223 ,37.01313 
104 ,18.8475 ,1.03262 ,3.74485 ,36.74450 
105 ,19.0395 ,1.03454 ,3.73459 ,36.64377 
106 ,19.2156 ,1.03631 ,3.70379 ,36.34157 
107 ,19.3916 ,1.03806 ,3.70379 ,36.34157 
108 ,19.5677 ,1.03979 ,3.66614 ,35.97220 
109 ,19.7598 ,1.04174 ,3.66272 ,35.93863 
110 ,19.9358 ,1.04346 ,3.65930 ,35.90505 
111 ,20.1279 ,1.04539 ,3.62850 ,35.60284 
112 ,20.3041 ,1.04717 ,3.60797 ,35.40137 
113 ,20.4801 ,1.04892 ,3.60112 ,35.33422 
114 ,20.6719 ,1.05080 ,3.57032 ,35.03201 
115 ,20.8482 ,1.05260 ,3.57375 ,35.06559 
116 ,21.0242 ,1.05434 ,3.55321 ,34.86412 
117 ,21.2005 ,1.05619 ,3.53952 ,34.72981 
118 ,21.3764 ,1.05792 ,3.52241 ,34.56192 
119 ,21.5525 ,1.05964 ,3.50530 ,34.39402 
120 ,21.7283 ,1.06139 ,3.47792 ,34.12540 
121 ,21.9046 ,1.06314 ,3.46081 ,33.95751 
122 ,22.0808 ,1.06490 ,3.47450 ,34.09182 
123 ,22.2729 ,1.06681 ,3.44370 ,33.78961 
124 ,22.4489 ,1.06865 ,3.42317 ,33.58814 
125 ,22.6410 ,1.07052 ,3.41975 ,33.55457 
126 ,22.8490 ,1.07262 ,3.38553 ,33.21878 
127 ,23.0252 ,1.07439 ,3.38210 ,33.18520 
128 ,23.2012 ,1.07616 ,3.37184 ,33.08447 
129 ,23.3773 ,1.07789 ,3.34446 ,32.81584 
130 ,23.5530 ,1.07968 ,3.32051 ,32.58080 
131 ,23.7292 ,1.08145 ,3.30339 ,32.41290 
132 ,23.9214 ,1.08339 ,3.31366 ,32.51364 
133 ,24.0974 ,1.08512 ,3.26917 ,32.07712 
134 ,24.2734 ,1.08684 ,3.25206 ,31.90923 
135 ,24.4656 ,1.08874 ,3.24864 ,31.87565 
136 ,24.6413 ,1.09051 ,3.22811 ,31.67418 
137 ,24.8179 ,1.09228 ,3.21100 ,31.50629 
138 ,24.9938 ,1.09407 ,3.19046 ,31.30482 
139 ,25.1700 ,1.09583 ,3.16993 ,31.10335 
140 ,25.3460 ,1.09760 ,3.15966 ,31.00262 
141 ,25.5378 ,1.09945 ,3.14940 ,30.90188 
142 ,25.7140 ,1.10121 ,3.12544 ,30.66683 
143 ,25.8901 ,1.10303 ,3.11518 ,30.56610 
144 ,26.0824 ,1.10483 ,3.10833 ,30.49894 
145 ,26.2744 ,1.10685 ,3.07753 ,30.19674 
146 ,26.4502 ,1.10869 ,3.06726 ,30.09600 
147 ,26.6266 ,1.11035 ,3.06384 ,30.06242 
148 ,26.7865 ,1.11213 ,3.04331 ,29.86095 
149 ,26.9627 ,1.11372 ,3.02962 ,29.72664 
150 ,27.1386 ,1.11547 ,2.99540 ,29.39086 
151 ,27.3148 ,1.11726 ,2.98855 ,29.32370 
152 ,27.4910 ,1.11897 ,2.97829 ,29.22297 
153 ,27.6670 ,1.12076 ,2.97144 ,29.15581 
154 ,27.8430 ,1.12260 ,2.93722 ,28.82003 
155 ,28.0191 ,1.12424 ,2.92011 ,28.65213 
156 ,28.1952 ,1.12609 ,2.91669 ,28.61856 
157 ,28.3712 ,1.12783 ,2.89958 ,28.45066 
158 ,28.5473 ,1.12956 ,2.88931 ,28.34993 
159 ,28.7234 ,1.13134 ,2.86193 ,28.08130 
160 ,28.8994 ,1.13313 ,2.84825 ,27.94699 
161 ,29.0756 ,1.13485 ,2.83456 ,27.81268 
162 ,29.2517 ,1.13666 ,2.81060 ,27.57763 
163 ,29.4277 ,1.13837 ,2.80718 ,27.54405 
164 ,29.6038 ,1.14016 ,2.80034 ,27.47689 
165 ,29.7798 ,1.14191 ,2.76954 ,27.17469 
166 ,29.9559 ,1.14360 ,2.75585 ,27.04038 
167 ,30.1320 ,1.14542 ,2.74900 ,26.97322 
168 ,30.3240 ,1.14733 ,2.73189 ,26.80533 
169 ,30.5163 ,1.14914 ,2.70794 ,26.57028 
170 ,30.6920 ,1.15106 ,2.69425 ,26.43597 
171 ,30.8684 ,1.15281 ,2.69083 ,26.40239 
172 ,31.0444 ,1.15457 ,2.66345 ,26.13376 
173 ,31.2364 ,1.15642 ,2.64976 ,25.99945 
174 ,31.4126 ,1.15820 ,2.63949 ,25.89871 
175 ,31.5886 ,1.16000 ,2.61896 ,25.69724 
176 ,31.7646 ,1.16170 ,2.60527 ,25.56293 
177 ,31.9408 ,1.16346 ,2.58474 ,25.36146 
178 ,32.1327 ,1.16545 ,2.58816 ,25.39504 
179 ,32.3250 ,1.16734 ,2.53683 ,24.89136 
180 ,32.5171 ,1.16927 ,2.53683 ,24.89136 
181 ,32.6930 ,1.17103 ,2.53341 ,24.85779 
182 ,32.8693 ,1.17279 ,2.50603 ,24.58916 
183 ,33.0609 ,1.17466 ,2.48892 ,24.42127 
184 ,33.2374 ,1.17642 ,2.48892 ,24.42127 
185 ,33.4134 ,1.17822 ,2.47181 ,24.25338 
186 ,33.6051 ,1.18011 ,2.44443 ,23.98475 
187 ,33.7811 ,1.18190 ,2.43416 ,23.88402 
188 ,33.9571 ,1.18364 ,2.40679 ,23.61539 
189 ,34.1332 ,1.18540 ,2.41363 ,23.68255 
190 ,34.3098 ,1.18722 ,2.40336 ,23.58181 
191 ,34.5336 ,1.18947 ,2.36914 ,23.24603 
192 ,34.7098 ,1.19119 ,2.36572 ,23.21245 
193 ,34.8858 ,1.19295 ,2.33150 ,22.87667 
194 ,35.0781 ,1.19486 ,2.32465 ,22.80951 
195 ,35.2543 ,1.19667 ,2.31781 ,22.74235 
196 ,35.4462 ,1.19855 ,2.28701 ,22.44015 
197 ,35.6222 ,1.20024 ,2.28359 ,22.40657 
198 ,35.7985 ,1.20206 ,2.27674 ,22.33941 
199 ,35.9744 ,1.20378 ,2.27332 ,22.30584 
200 ,36.1506 ,1.20557 ,2.24252 ,22.00363 
201 ,36.3266 ,1.20735 ,2.22199 ,21.80216 
202 ,36.5025 ,1.20912 ,2.21172 ,21.70143 
203 ,36.6787 ,1.21084 ,2.20146 ,21.60069 
204 ,36.8705 ,1.21277 ,2.19803 ,21.56711 
205 ,37.0468 ,1.21449 ,2.16723 ,21.26491 
206 ,37.2226 ,1.21629 ,2.15012 ,21.09702 
207 ,37.3991 ,1.21809 ,2.13644 ,20.96270 
208 ,37.5907 ,1.21996 ,2.12275 ,20.82839 
209 ,37.7508 ,1.22171 ,2.10221 ,20.62692 
210 ,37.9108 ,1.22330 ,2.08852 ,20.49261 
211 ,38.0873 ,1.22497 ,2.08168 ,20.42545 
212 ,38.2950 ,1.22699 ,2.06799 ,20.29114 
213 ,38.4713 ,1.22876 ,2.04746 ,20.08967 
214 ,38.6475 ,1.23051 ,2.04061 ,20.02251 
215 ,38.8236 ,1.23231 ,2.01666 ,19.78746 
216 ,39.0157 ,1.23423 ,2.02350 ,19.85462 
217 ,39.1916 ,1.23602 ,2.00297 ,19.65315 
218 ,39.3837 ,1.23790 ,1.97217 ,19.35094 
219 ,39.5597 ,1.23962 ,1.97217 ,19.35094 
220 ,39.7356 ,1.24143 ,1.95506 ,19.18305 
221 ,39.8956 ,1.24312 ,1.93795 ,19.01516 
222 ,40.0560 ,1.24474 ,1.92084 ,18.84727 
223 ,40.2320 ,1.24634 ,1.92084 ,18.84727 
224 ,40.4077 ,1.24809 ,1.90031 ,18.64580 
225 ,40.5838 ,1.24987 ,1.87977 ,18.44433 
226 ,40.7604 ,1.25165 ,1.88319 ,18.47791 
227 ,40.9364 ,1.25341 ,1.87635 ,18.41075 
228 ,41.1283 ,1.25531 ,1.82502 ,17.90708 
229 ,41.3046 ,1.25707 ,1.82844 ,17.94066 
230 ,41.4801 ,1.25892 ,1.81475 ,17.80634 
231 ,41.6567 ,1.26058 ,1.81133 ,17.77276 
232 ,41.8487 ,1.26256 ,1.78053 ,17.47056 
233 ,42.0248 ,1.26434 ,1.78395 ,17.50414 
234 ,42.2010 ,1.26609 ,1.76684 ,17.33625 
235 ,42.3768 ,1.26780 ,1.76000 ,17.26909 
236 ,42.5527 ,1.26955 ,1.73262 ,17.00046 
237 ,42.7292 ,1.27134 ,1.71209 ,16.79899 
238 ,42.9212 ,1.27326 ,1.71209 ,16.79899 
239 ,43.0973 ,1.27500 ,1.70524 ,16.73184 
240 ,43.2734 ,1.27679 ,1.67786 ,16.46321 
241 ,43.4493 ,1.27851 ,1.66075 ,16.29532 
242 ,43.6254 ,1.28027 ,1.65733 ,16.26174 
243 ,43.8014 ,1.28205 ,1.65391 ,16.22816 
244 ,43.9615 ,1.28376 ,1.63680 ,16.06027 
245 ,44.1376 ,1.28542 ,1.60600 ,15.75807 
246 ,44.3140 ,1.28718 ,1.59573 ,15.65733 
247 ,44.4898 ,1.28896 ,1.58204 ,15.52302 
248 ,44.6658 ,1.29068 ,1.56836 ,15.38871 
249 ,44.8420 ,1.29252 ,1.56493 ,15.35513 
250 ,45.0341 ,1.29440 ,1.52387 ,14.95219 
251 ,45.2103 ,1.29615 ,1.53071 ,15.01934 
252 ,45.3862 ,1.29795 ,1.51702 ,14.88503 
253 ,45.5622 ,1.29972 ,1.51702 ,14.88503 
254 ,45.7379 ,1.30141 ,1.50676 ,14.78430 
255 ,45.9145 ,1.30314 ,1.47253 ,14.44851 
256 ,46.0904 ,1.30494 ,1.46227 ,14.34778 
257 ,46.2505 ,1.30664 ,1.47253 ,14.44851 
258 ,46.4266 ,1.30829 ,1.45200 ,14.24704 
259 ,46.6185 ,1.31011 ,1.44516 ,14.17989 
260 ,46.7947 ,1.31195 ,1.41778 ,13.91126 
261 ,46.9869 ,1.31394 ,1.40067 ,13.74337 
262 ,47.1788 ,1.31578 ,1.38014 ,13.54190 
263 ,47.3547 ,1.31756 ,1.35960 ,13.34043 
264 ,47.5471 ,1.31948 ,1.36987 ,13.44116 
265 ,47.7228 ,1.32130 ,1.34249 ,13.17254 
266 ,47.8987 ,1.32301 ,1.34249 ,13.17254 
267 ,48.0751 ,1.32473 ,1.32880 ,13.03822 
268 ,48.2513 ,1.32654 ,1.30827 ,12.83675 
269 ,48.4271 ,1.32830 ,1.30485 ,12.80318 
270 ,48.6192 ,1.33018 ,1.27063 ,12.46739 
271 ,48.7950 ,1.33194 ,1.26720 ,12.43381 
272 ,48.9716 ,1.33375 ,1.26720 ,12.43381 
273 ,49.1476 ,1.33546 ,1.25352 ,12.29950 
274 ,49.3238 ,1.33725 ,1.25009 ,12.26592 
275 ,49.4999 ,1.33906 ,1.22614 ,12.03088 
276 ,49.6757 ,1.34079 ,1.20218 ,11.79583 
277 ,49.8516 ,1.34253 ,1.19534 ,11.72867 
278 ,50.0281 ,1.34429 ,1.20218 ,11.79583 
279 ,50.2041 ,1.34610 ,1.17481 ,11.52720 
280 ,50.3798 ,1.34779 ,1.15770 ,11.35931 
281 ,50.5563 ,1.34958 ,1.14058 ,11.19142 
282 ,50.7482 ,1.35146 ,1.15427 ,11.32573 
283 ,50.9243 ,1.35322 ,1.13716 ,11.15784 
284 ,51.1005 ,1.35502 ,1.09952 ,10.78848 
285 ,51.2926 ,1.35690 ,1.10636 ,10.85563 
286 ,51.4686 ,1.35870 ,1.10636 ,10.85563 
287 ,51.6447 ,1.36057 ,1.06187 ,10.41912 
288 ,51.8209 ,1.36223 ,1.06530 ,10.45270 
289 ,52.0129 ,1.36413 ,1.05503 ,10.35196 
290 ,52.2051 ,1.36605 ,1.03792 ,10.18407 
291 ,52.3811 ,1.36786 ,1.02081 ,10.01618 
292 ,52.5570 ,1.36956 ,0.99685 ,9.78113 
293 ,52.7333 ,1.37136 ,1.00370 ,9.84829 
294 ,52.9090 ,1.37315 ,0.98659 ,9.68039 
295 ,53.0691 ,1.37478 ,0.97974 ,9.61324 
296 ,53.2454 ,1.37649 ,0.96948 ,9.51250 
297 ,53.4214 ,1.37825 ,0.94894 ,9.31103 
298 ,53.6136 ,1.38019 ,0.94552 ,9.27745 
299 ,53.7895 ,1.38192 ,0.94210 ,9.24388 
300 ,53.9656 ,1.38364 ,0.91814 ,9.00883 
301 ,54.1417 ,1.38542 ,0.90446 ,8.87451 
302 ,54.3176 ,1.38717 ,0.88734 ,8.70662 
303 ,54.4938 ,1.38893 ,0.89077 ,8.74020 
304 ,54.6700 ,1.39067 ,0.88050 ,8.63947 
305 ,54.8620 ,1.39262 ,0.85312 ,8.37084 
306 ,55.0381 ,1.39436 ,0.83943 ,8.23653 
307 ,55.2303 ,1.39624 ,0.85654 ,8.40442 
308 ,55.4064 ,1.39804 ,0.82232 ,8.06864 
309 ,55.5824 ,1.39987 ,0.81206 ,7.96790 
310 ,55.7742 ,1.40166 ,0.81890 ,8.03506 
311 ,55.9505 ,1.40347 ,0.79837 ,7.83359 
312 ,56.1262 ,1.40526 ,0.78468 ,7.69927 
313 ,56.3029 ,1.40704 ,0.75730 ,7.43065 
314 ,56.4785 ,1.40877 ,0.73677 ,7.22918 
315 ,56.6548 ,1.41054 ,0.75046 ,7.36349 
316 ,56.8306 ,1.41234 ,0.74361 ,7.29633 
317 ,57.0072 ,1.41408 ,0.71966 ,7.06129 
318 ,57.1985 ,1.41596 ,0.69228 ,6.79266 
319 ,57.3751 ,1.41769 ,0.69913 ,6.85982 
320 ,57.5671 ,1.41964 ,0.68201 ,6.69193 
321 ,57.7433 ,1.42145 ,0.66148 ,6.49046 
322 ,57.9352 ,1.42330 ,0.66148 ,6.49046 
323 ,58.1113 ,1.42507 ,0.65464 ,6.42330 
324 ,58.2874 ,1.42685 ,0.63068 ,6.18825 
325 ,58.4635 ,1.42862 ,0.61015 ,5.98678 
326 ,58.6395 ,1.43040 ,0.61015 ,5.98678 
327 ,58.8157 ,1.43211 ,0.60330 ,5.91962 
328 ,58.9918 ,1.43391 ,0.58277 ,5.71815 
329 ,59.1677 ,1.43569 ,0.57593 ,5.65100 
330 ,59.3438 ,1.43740 ,0.55197 ,5.41595 
331 ,59.5200 ,1.43919 ,0.54513 ,5.34879 
332 ,59.6959 ,1.44094 ,0.53486 ,5.24806 
333 ,59.8720 ,1.44266 ,0.53828 ,5.28164 
334 ,60.0483 ,1.44442 ,0.51091 ,5.01301 
335 ,60.2237 ,1.44619 ,0.49380 ,4.84512 
336 ,60.4000 ,1.44798 ,0.50064 ,4.91228 
337 ,60.5764 ,1.44973 ,0.48353 ,4.74438 
338 ,60.7524 ,1.45151 ,0.46984 ,4.61007 
339 ,60.9606 ,1.45355 ,0.46300 ,4.54291 
340 ,61.1685 ,1.45557 ,0.44931 ,4.40860 
341 ,61.3444 ,1.45740 ,0.41509 ,4.07282 
342 ,61.5207 ,1.45922 ,0.42193 ,4.13997 
343 ,61.6969 ,1.46095 ,0.41166 ,4.03924 
344 ,61.8890 ,1.46285 ,0.39455 ,3.87135 
345 ,62.0650 ,1.46463 ,0.38771 ,3.80419 
346 ,62.2411 ,1.46643 ,0.37060 ,3.63630 
347 ,62.4169 ,1.46809 ,0.37744 ,3.70346 
348 ,62.5933 ,1.46993 ,0.35691 ,3.50199 
349 ,62.7691 ,1.47165 ,0.33295 ,3.26694 
350 ,62.9454 ,1.47341 ,0.32953 ,3.23336 
351 ,63.1376 ,1.47534 ,0.32269 ,3.16620 
352 ,63.3296 ,1.47719 ,0.32611 ,3.19978 
353 ,63.5052 ,1.47905 ,0.29873 ,2.93116 
354 ,63.6656 ,1.48073 ,0.29873 ,2.93116 
355 ,63.8417 ,1.48239 ,0.28162 ,2.76326 
356 ,64.0179 ,1.48416 ,0.27478 ,2.69611 
357 ,64.2098 ,1.48605 ,0.26109 ,2.56179 
358 ,64.3859 ,1.48781 ,0.24398 ,2.39390 
359 ,64.5780 ,1.48974 ,0.24055 ,2.36032 
360 ,64.7541 ,1.49147 ,0.22002 ,2.15885 
361 ,64.9301 ,1.49328 ,0.19607 ,1.92381 
362 ,65.1062 ,1.49504 ,0.18580 ,1.82307 
363 ,65.2822 ,1.49679 ,0.19264 ,1.89023 
364 ,65.4744 ,1.49863 ,0.18580 ,1.82307 
365 ,65.6502 ,1.50044 ,0.17211 ,1.68876 
366 ,65.8422 ,1.50235 ,0.15158 ,1.48729 
367 ,66.0186 ,1.50417 ,0.15842 ,1.55445 
368 ,66.1944 ,1.50593 ,0.14473 ,1.42013 
369 ,66.3707 ,1.50764 ,0.10709 ,1.05077 
370 ,66.5467 ,1.50944 ,0.10367 ,1.01719 
371 ,66.7226 ,1.51124 ,0.10709 ,1.05077 
372 ,66.8988 ,1.51297 ,0.10025 ,0.98361 
373 ,67.0749 ,1.51471 ,0.08314 ,0.81572 
374 ,67.2511 ,1.51648 ,0.05918 ,0.58067 
375 ,67.4270 ,1.51822 ,0.04549 ,0.44636 
376 ,67.6190 ,1.52019 ,0.05576 ,0.54710 
377 ,67.8115 ,1.52204 ,0.02496 ,0.24489 
378 ,68.0194 ,1.52406 ,0.02154 ,0.21131 
379 ,68.2274 ,1.52616 ,0.02154 ,0.21131 
380 ,68.4036 ,1.52799 ,0.00443 ,0.04342 
381 ,68.5954 ,1.52985 ,-0.01269 ,-0.12447 
382 ,68.7716 ,1.53167 ,-0.02980 ,-0.29236 
383 ,68.9477 ,1.53342 ,-0.03322 ,-0.32594 
384 ,69.1398 ,1.53532 ,-0.04348 ,-0.42667 
385 ,69.3161 ,1.53708 ,-0.05717 ,-0.56099 
386 ,69.4920 ,1.53890 ,-0.08455 ,-0.82961 
387 ,69.7000 ,1.54083 ,-0.07086 ,-0.69530 
388 ,69.8921 ,1.54276 ,-0.09140 ,-0.89677 
389 ,70.0681 ,1.54462 ,-0.10166 ,-0.99751 
390 ,70.2603 ,1.54645 ,-0.10166 ,-0.99751 
391 ,70.4360 ,1.54830 ,-0.13246 ,-1.29971 
392 ,70.6284 ,1.55017 ,-0.13588 ,-1.33329 
393 ,70.8042 ,1.55196 ,-0.15299 ,-1.50118 
394 ,70.9806 ,1.55377 ,-0.15642 ,-1.53476 
395 ,71.1725 ,1.55566 ,-0.17011 ,-1.66907 
396 ,71.3487 ,1.55740 ,-0.18722 ,-1.83696 
397 ,71.5405 ,1.55929 ,-0.19406 ,-1.90412 
398 ,71.7169 ,1.56106 ,-0.21117 ,-2.07201 
399 ,71.8926 ,1.56297 ,-0.21117 ,-2.07201 
400 ,72.0690 ,1.56460 ,-0.22828 ,-2.23990 
401 ,72.2608 ,1.56654 ,-0.22828 ,-2.23990 
402 ,72.4372 ,1.56832 ,-0.24881 ,-2.44137 
403 ,72.6293 ,1.57020 ,-0.25566 ,-2.50853 
404 ,72.8054 ,1.57194 ,-0.26935 ,-2.64284 
405 ,72.9813 ,1.57375 ,-0.26935 ,-2.64284 
406 ,73.1574 ,1.57546 ,-0.30015 ,-2.94505 
407 ,73.3334 ,1.57734 ,-0.30699 ,-3.01220 
408 ,73.5096 ,1.57903 ,-0.32410 ,-3.18010 
409 ,73.6856 ,1.58079 ,-0.31726 ,-3.11294 
410 ,73.8617 ,1.58256 ,-0.33437 ,-3.28083 
411 ,74.0535 ,1.58442 ,-0.35490 ,-3.48230 
412 ,74.2294 ,1.58621 ,-0.35832 ,-3.51588 
413 ,74.4061 ,1.58799 ,-0.35832 ,-3.51588 
414 ,74.5820 ,1.58979 ,-0.37201 ,-3.65019 
415 ,74.7741 ,1.59161 ,-0.40281 ,-3.95240 
416 ,74.9502 ,1.59346 ,-0.40623 ,-3.98597 
417 ,75.1422 ,1.59534 ,-0.40966 ,-4.01955 
418 ,75.3183 ,1.59713 ,-0.43361 ,-4.25460 
419 ,75.5104 ,1.59900 ,-0.43019 ,-4.22102 
420 ,75.6864 ,1.60079 ,-0.43703 ,-4.28818 
421 ,75.8783 ,1.60264 ,-0.47468 ,-4.65754 
422 ,76.0545 ,1.60459 ,-0.46441 ,-4.55681 
423 ,76.2626 ,1.60643 ,-0.47468 ,-4.65754 
424 ,76.4708 ,1.60853 ,-0.50206 ,-4.92617 
425 ,76.6469 ,1.61038 ,-0.49863 ,-4.89259 
426 ,76.8390 ,1.61228 ,-0.53628 ,-5.26195 
427 ,77.0308 ,1.61414 ,-0.51917 ,-5.09406 
428 ,77.2069 ,1.61596 ,-0.53285 ,-5.22837 
429 ,77.3828 ,1.61779 ,-0.54312 ,-5.32911 
430 ,77.5752 ,1.61955 ,-0.56365 ,-5.53058 
431 ,77.7831 ,1.62166 ,-0.58761 ,-5.76562 
432 ,77.9754 ,1.62369 ,-0.58761 ,-5.76562 
433 ,78.1513 ,1.62545 ,-0.59103 ,-5.79920 
434 ,78.3436 ,1.62733 ,-0.61499 ,-6.03425 
435 ,78.5354 ,1.62924 ,-0.62868 ,-6.16856 
436 ,78.7113 ,1.63114 ,-0.62525 ,-6.13499 
437 ,78.8877 ,1.63280 ,-0.63552 ,-6.23572 
438 ,79.0799 ,1.63471 ,-0.66632 ,-6.53793 
439 ,79.2554 ,1.63647 ,-0.66290 ,-6.50435 
440 ,79.4320 ,1.63821 ,-0.66290 ,-6.50435 
441 ,79.6239 ,1.64016 ,-0.68685 ,-6.73940 
442 ,79.8001 ,1.64188 ,-0.70396 ,-6.90729 
443 ,79.9762 ,1.64366 ,-0.70739 ,-6.94086 
444 ,80.1843 ,1.64561 ,-0.72450 ,-7.10876 
445 ,80.3603 ,1.64752 ,-0.73476 ,-7.20949 
446 ,80.5364 ,1.64928 ,-0.74161 ,-7.27665 
447 ,80.7444 ,1.65122 ,-0.74161 ,-7.27665 
448 ,80.9206 ,1.65312 ,-0.76556 ,-7.51170 
449 ,81.1126 ,1.65503 ,-0.77241 ,-7.57885 
450 ,81.2887 ,1.65673 ,-0.78952 ,-7.74674 
451 ,81.4648 ,1.65854 ,-0.78267 ,-7.67959 
452 ,81.6729 ,1.66059 ,-0.78610 ,-7.71317 
453 ,81.8489 ,1.66237 ,-0.81347 ,-7.98179 
454 ,82.0248 ,1.66419 ,-0.83743 ,-8.21684 
455 ,82.2171 ,1.66609 ,-0.84769 ,-8.31758 
456 ,82.3929 ,1.66779 ,-0.82716 ,-8.11611 
457 ,82.5691 ,1.66959 ,-0.84769 ,-8.31758 
458 ,82.7932 ,1.67158 ,-0.87165 ,-8.55262 
459 ,82.9694 ,1.67359 ,-0.87165 ,-8.55262 
460 ,83.1454 ,1.67537 ,-0.89903 ,-8.82125 
461 ,83.3537 ,1.67734 ,-0.88876 ,-8.72051 
462 ,83.5296 ,1.67918 ,-0.89903 ,-8.82125 
463 ,83.7213 ,1.68109 ,-0.91614 ,-8.98914 
