Data stamp = , 30-03-2022 14:04:02 991

Calibration Values: 
Slope = , 26.54 , g/V 
Offset Voltage at no contact = , -0.501760 , V 

No , Time , Stage Position ,   Mass , Force 
   ,  (s) ,      (mm)      ,   (g)  , (mN)  

1 ,0.0000 ,0.89940 ,5.07950 ,49.84004 
2 ,0.2153 ,0.89949 ,5.06239 ,49.67215 
3 ,0.5355 ,0.90032 ,5.07265 ,49.77289 
4 ,0.7437 ,0.90182 ,5.06923 ,49.73931 
5 ,0.9195 ,0.90339 ,5.06239 ,49.67215 
6 ,1.1117 ,0.90519 ,5.08634 ,49.90720 
7 ,1.3037 ,0.90710 ,5.07950 ,49.84004 
8 ,1.4639 ,0.90886 ,5.06923 ,49.73931 
9 ,1.6402 ,0.91062 ,5.03159 ,49.36995 
10 ,1.8479 ,0.91255 ,5.02817 ,49.33637 
11 ,2.0401 ,0.91450 ,4.99737 ,49.03416 
12 ,2.2162 ,0.91637 ,4.97341 ,48.79911 
13 ,2.4084 ,0.91820 ,4.95972 ,48.66480 
14 ,2.5999 ,0.92011 ,4.93919 ,48.46333 
15 ,2.7599 ,0.92189 ,4.93235 ,48.39618 
16 ,2.9363 ,0.92352 ,4.91866 ,48.26186 
17 ,3.1447 ,0.92546 ,4.89470 ,48.02681 
18 ,3.3369 ,0.92750 ,4.89128 ,47.99324 
19 ,3.5128 ,0.92932 ,4.87075 ,47.79177 
20 ,3.6890 ,0.93107 ,4.85364 ,47.62387 
21 ,3.8648 ,0.93282 ,4.82968 ,47.38883 
22 ,4.0409 ,0.93466 ,4.81941 ,47.28809 
23 ,4.2171 ,0.93630 ,4.81599 ,47.25451 
24 ,4.4091 ,0.93814 ,4.80230 ,47.12020 
25 ,4.6012 ,0.94014 ,4.75439 ,46.65010 
26 ,4.7773 ,0.94187 ,4.75439 ,46.65010 
27 ,4.9694 ,0.94385 ,4.73728 ,46.48221 
28 ,5.1454 ,0.94556 ,4.72017 ,46.31432 
29 ,5.3214 ,0.94734 ,4.70648 ,46.18001 
30 ,5.5296 ,0.94942 ,4.68253 ,45.94496 
31 ,5.7217 ,0.95124 ,4.66542 ,45.77707 
32 ,5.8977 ,0.95313 ,4.66199 ,45.74349 
33 ,6.0739 ,0.95490 ,4.65173 ,45.64275 
34 ,6.2657 ,0.95671 ,4.61408 ,45.27339 
35 ,6.4579 ,0.95862 ,4.61066 ,45.23981 
36 ,6.6342 ,0.96046 ,4.60382 ,45.17266 
37 ,6.8262 ,0.96241 ,4.56960 ,44.83688 
38 ,7.0182 ,0.96425 ,4.55933 ,44.73614 
39 ,7.1942 ,0.96608 ,4.54564 ,44.60183 
40 ,7.3703 ,0.96777 ,4.52511 ,44.40036 
41 ,7.5465 ,0.96962 ,4.48404 ,43.99742 
42 ,7.7384 ,0.97150 ,4.47720 ,43.93026 
43 ,7.9307 ,0.97333 ,4.48062 ,43.96384 
44 ,8.1067 ,0.97522 ,4.44982 ,43.66163 
45 ,8.3148 ,0.97722 ,4.44298 ,43.59448 
46 ,8.5067 ,0.97919 ,4.39507 ,43.12438 
47 ,8.6828 ,0.98092 ,4.39164 ,43.09080 
48 ,8.8589 ,0.98271 ,4.37111 ,42.88933 
49 ,9.0508 ,0.98452 ,4.37795 ,42.95649 
50 ,9.2267 ,0.98644 ,4.32320 ,42.41924 
51 ,9.4031 ,0.98821 ,4.31293 ,42.31850 
52 ,9.5952 ,0.98997 ,4.30609 ,42.25135 
53 ,9.7872 ,0.99197 ,4.28213 ,42.01630 
54 ,9.9792 ,0.99389 ,4.27871 ,41.98272 
55 ,10.1393 ,0.99560 ,4.26160 ,41.81483 
56 ,10.3315 ,0.99745 ,4.23080 ,41.51262 
57 ,10.5075 ,0.99918 ,4.21027 ,41.31115 
58 ,10.6836 ,1.00092 ,4.20000 ,41.21042 
59 ,10.8597 ,1.00274 ,4.19316 ,41.14326 
60 ,11.0359 ,1.00453 ,4.16920 ,40.90821 
61 ,11.2117 ,1.00624 ,4.14183 ,40.63959 
62 ,11.3715 ,1.00793 ,4.12129 ,40.43812 
63 ,11.5480 ,1.00962 ,4.10076 ,40.23665 
64 ,11.7241 ,1.01137 ,4.09049 ,40.13591 
65 ,11.9161 ,1.01326 ,4.08707 ,40.10233 
66 ,12.0919 ,1.01507 ,4.05285 ,39.76655 
67 ,12.2682 ,1.01676 ,4.03916 ,39.63224 
68 ,12.4442 ,1.01855 ,4.01520 ,39.39719 
69 ,12.6203 ,1.02030 ,4.02205 ,39.46435 
70 ,12.7964 ,1.02207 ,3.99809 ,39.22930 
71 ,12.9884 ,1.02392 ,3.98783 ,39.12856 
72 ,13.1644 ,1.02574 ,3.96045 ,38.85994 
73 ,13.3407 ,1.02752 ,3.94676 ,38.72562 
74 ,13.5328 ,1.02941 ,3.92623 ,38.52415 
75 ,13.7089 ,1.03124 ,3.91596 ,38.42342 
76 ,13.9008 ,1.03310 ,3.91254 ,38.38984 
77 ,14.0768 ,1.03485 ,3.89543 ,38.22195 
78 ,14.2531 ,1.03664 ,3.86463 ,37.91975 
79 ,14.4450 ,1.03851 ,3.84752 ,37.75185 
80 ,14.6373 ,1.04052 ,3.83725 ,37.65112 
81 ,14.8294 ,1.04243 ,3.79619 ,37.24818 
82 ,15.0054 ,1.04416 ,3.80303 ,37.31534 
83 ,15.1815 ,1.04597 ,3.78934 ,37.18102 
84 ,15.3736 ,1.04787 ,3.76539 ,36.94597 
85 ,15.5493 ,1.04959 ,3.74485 ,36.74450 
86 ,15.7255 ,1.05135 ,3.73117 ,36.61019 
87 ,15.9175 ,1.05324 ,3.70037 ,36.30799 
88 ,16.1259 ,1.05524 ,3.70037 ,36.30799 
89 ,16.3016 ,1.05717 ,3.68325 ,36.14010 
90 ,16.4779 ,1.05897 ,3.66614 ,35.97220 
91 ,16.6540 ,1.06061 ,3.64219 ,35.73716 
92 ,16.8462 ,1.06243 ,3.61823 ,35.50211 
93 ,17.0218 ,1.06432 ,3.61481 ,35.46853 
94 ,17.1983 ,1.06609 ,3.61823 ,35.50211 
95 ,17.3744 ,1.06781 ,3.57717 ,35.09917 
96 ,17.5504 ,1.06963 ,3.55663 ,34.89770 
97 ,17.7423 ,1.07152 ,3.57375 ,35.06559 
98 ,17.9185 ,1.07326 ,3.54637 ,34.79696 
99 ,18.1107 ,1.07522 ,3.50530 ,34.39402 
100 ,18.3022 ,1.07712 ,3.50872 ,34.42760 
101 ,18.4788 ,1.07887 ,3.48477 ,34.19255 
102 ,18.7026 ,1.08100 ,3.45397 ,33.89035 
103 ,18.8949 ,1.08295 ,3.45739 ,33.92393 
104 ,19.0709 ,1.08479 ,3.43344 ,33.68888 
105 ,19.2471 ,1.08658 ,3.41290 ,33.48741 
106 ,19.4392 ,1.08849 ,3.40948 ,33.45383 
107 ,19.6152 ,1.09022 ,3.37526 ,33.11805 
108 ,19.7750 ,1.09199 ,3.35130 ,32.88300 
109 ,19.9513 ,1.09359 ,3.34446 ,32.81584 
110 ,20.1275 ,1.09537 ,3.34104 ,32.78227 
111 ,20.3034 ,1.09712 ,3.34446 ,32.81584 
112 ,20.4796 ,1.09882 ,3.30682 ,32.44648 
113 ,20.6716 ,1.10080 ,3.29655 ,32.34575 
114 ,20.8317 ,1.10252 ,3.28628 ,32.24501 
115 ,21.0077 ,1.10413 ,3.26917 ,32.07712 
116 ,21.1838 ,1.10594 ,3.25891 ,31.97639 
117 ,21.3439 ,1.10760 ,3.23837 ,31.77492 
118 ,21.5200 ,1.10929 ,3.21442 ,31.53987 
119 ,21.7121 ,1.11120 ,3.20073 ,31.40555 
120 ,21.8879 ,1.11292 ,3.20415 ,31.43913 
121 ,22.0642 ,1.11470 ,3.18020 ,31.20409 
122 ,22.2404 ,1.11647 ,3.16651 ,31.06977 
123 ,22.4325 ,1.11840 ,3.13913 ,30.80115 
124 ,22.6244 ,1.12032 ,3.13571 ,30.76757 
125 ,22.8005 ,1.12206 ,3.11860 ,30.59968 
126 ,22.9927 ,1.12392 ,3.08095 ,30.23031 
127 ,23.1685 ,1.12582 ,3.08438 ,30.26389 
128 ,23.3444 ,1.12752 ,3.07753 ,30.19674 
129 ,23.5208 ,1.12931 ,3.06726 ,30.09600 
130 ,23.6969 ,1.13101 ,3.04331 ,29.86095 
131 ,23.8729 ,1.13280 ,3.01935 ,29.62590 
132 ,24.0490 ,1.13461 ,3.01935 ,29.62590 
133 ,24.2412 ,1.13651 ,2.99198 ,29.35728 
134 ,24.4172 ,1.13828 ,2.96118 ,29.05507 
135 ,24.6093 ,1.14011 ,2.95776 ,29.02150 
136 ,24.7852 ,1.14194 ,2.96118 ,29.05507 
137 ,24.9611 ,1.14370 ,2.93722 ,28.82003 
138 ,25.1376 ,1.14549 ,2.90985 ,28.55140 
139 ,25.3295 ,1.14739 ,2.92011 ,28.65213 
140 ,25.5055 ,1.14909 ,2.88931 ,28.34993 
141 ,25.6818 ,1.15089 ,2.87905 ,28.24919 
142 ,25.8578 ,1.15266 ,2.84825 ,27.94699 
143 ,26.0494 ,1.15457 ,2.84482 ,27.91341 
144 ,26.2258 ,1.15628 ,2.83114 ,27.77910 
145 ,26.4018 ,1.15806 ,2.81060 ,27.57763 
146 ,26.5781 ,1.15985 ,2.79691 ,27.44332 
147 ,26.7700 ,1.16179 ,2.78322 ,27.30900 
148 ,26.9462 ,1.16351 ,2.77980 ,27.27542 
149 ,27.1222 ,1.16526 ,2.75927 ,27.07395 
150 ,27.2823 ,1.16696 ,2.74216 ,26.90606 
151 ,27.4584 ,1.16868 ,2.72847 ,26.77175 
152 ,27.6504 ,1.17053 ,2.71478 ,26.63744 
153 ,27.8265 ,1.17228 ,2.70452 ,26.53670 
154 ,28.0346 ,1.17437 ,2.69083 ,26.40239 
155 ,28.2106 ,1.17629 ,2.67372 ,26.23450 
156 ,28.3867 ,1.17788 ,2.66345 ,26.13376 
157 ,28.5789 ,1.17970 ,2.63949 ,25.89871 
158 ,28.7548 ,1.18157 ,2.60869 ,25.59651 
159 ,28.9309 ,1.18335 ,2.61896 ,25.69724 
160 ,29.1228 ,1.18520 ,2.60869 ,25.59651 
161 ,29.2990 ,1.18702 ,2.56421 ,25.15999 
162 ,29.4752 ,1.18883 ,2.56078 ,25.12641 
163 ,29.6674 ,1.19071 ,2.55394 ,25.05926 
164 ,29.8435 ,1.19251 ,2.54025 ,24.92494 
165 ,30.0194 ,1.19425 ,2.51630 ,24.68989 
166 ,30.1955 ,1.19600 ,2.50261 ,24.55558 
167 ,30.3553 ,1.19770 ,2.49576 ,24.48842 
168 ,30.5318 ,1.19939 ,2.49234 ,24.45485 
169 ,30.7237 ,1.20130 ,2.47181 ,24.25338 
170 ,30.8999 ,1.20304 ,2.44443 ,23.98475 
171 ,31.0760 ,1.20482 ,2.43074 ,23.85044 
172 ,31.2520 ,1.20661 ,2.43416 ,23.88402 
173 ,31.4278 ,1.20840 ,2.41021 ,23.64897 
174 ,31.6040 ,1.21009 ,2.39994 ,23.54823 
175 ,31.7961 ,1.21199 ,2.38625 ,23.41392 
176 ,31.9723 ,1.21374 ,2.37256 ,23.27961 
177 ,32.1484 ,1.21556 ,2.36230 ,23.17887 
178 ,32.3401 ,1.21745 ,2.32808 ,22.84309 
179 ,32.5164 ,1.21923 ,2.31439 ,22.70877 
180 ,32.7085 ,1.22111 ,2.31439 ,22.70877 
181 ,32.8847 ,1.22286 ,2.29385 ,22.50731 
182 ,33.0767 ,1.22477 ,2.26990 ,22.27226 
183 ,33.2528 ,1.22659 ,2.27332 ,22.30584 
184 ,33.4285 ,1.22827 ,2.25621 ,22.13794 
185 ,33.6050 ,1.23009 ,2.23910 ,21.97005 
186 ,33.7811 ,1.23184 ,2.22883 ,21.86932 
187 ,33.9570 ,1.23363 ,2.20488 ,21.63427 
188 ,34.1489 ,1.23551 ,2.21172 ,21.70143 
189 ,34.3252 ,1.23729 ,2.18092 ,21.39922 
190 ,34.5172 ,1.23913 ,2.16723 ,21.26491 
191 ,34.6934 ,1.24090 ,2.16039 ,21.19775 
192 ,34.8694 ,1.24274 ,2.15697 ,21.16417 
193 ,35.0615 ,1.24468 ,2.11590 ,20.76123 
194 ,35.2377 ,1.24636 ,2.11932 ,20.79481 
195 ,35.4137 ,1.24819 ,2.10221 ,20.62692 
196 ,35.5893 ,1.24996 ,2.09195 ,20.52619 
197 ,35.7656 ,1.25165 ,2.07141 ,20.32472 
198 ,35.9418 ,1.25344 ,2.05088 ,20.12325 
199 ,36.1180 ,1.25523 ,2.04746 ,20.08967 
200 ,36.3101 ,1.25714 ,2.04404 ,20.05609 
201 ,36.4861 ,1.25895 ,2.03035 ,19.92178 
202 ,36.6622 ,1.26064 ,2.00297 ,19.65315 
203 ,36.8379 ,1.26236 ,2.00297 ,19.65315 
204 ,37.0143 ,1.26414 ,1.98928 ,19.51884 
205 ,37.1904 ,1.26589 ,1.95848 ,19.21663 
206 ,37.3661 ,1.26768 ,1.95164 ,19.14948 
207 ,37.5427 ,1.26941 ,1.93111 ,18.94801 
208 ,37.7346 ,1.27132 ,1.93795 ,19.01516 
209 ,37.9106 ,1.27306 ,1.92084 ,18.84727 
210 ,38.0868 ,1.27488 ,1.88662 ,18.51149 
211 ,38.2789 ,1.27680 ,1.89004 ,18.54507 
212 ,38.4708 ,1.27877 ,1.87977 ,18.44433 
213 ,38.6631 ,1.28056 ,1.83871 ,18.04139 
214 ,38.8551 ,1.28253 ,1.85924 ,18.24286 
215 ,39.0471 ,1.28456 ,1.80791 ,17.73919 
216 ,39.2233 ,1.28621 ,1.80106 ,17.67203 
217 ,39.4153 ,1.28816 ,1.80449 ,17.70561 
218 ,39.5752 ,1.28989 ,1.78395 ,17.50414 
219 ,39.7513 ,1.29153 ,1.78737 ,17.53772 
220 ,39.9273 ,1.29327 ,1.76000 ,17.26909 
221 ,40.1196 ,1.29521 ,1.73604 ,17.03404 
222 ,40.2956 ,1.29692 ,1.73946 ,17.06762 
223 ,40.5038 ,1.29899 ,1.70524 ,16.73184 
224 ,40.6798 ,1.30087 ,1.70866 ,16.76542 
225 ,40.8555 ,1.30256 ,1.70182 ,16.69826 
226 ,41.0320 ,1.30434 ,1.68471 ,16.53037 
227 ,41.2081 ,1.30606 ,1.66760 ,16.36248 
228 ,41.4000 ,1.30803 ,1.65733 ,16.26174 
229 ,41.5759 ,1.30973 ,1.65391 ,16.22816 
230 ,41.7522 ,1.31152 ,1.64022 ,16.09385 
231 ,41.9118 ,1.31323 ,1.60258 ,15.72449 
232 ,42.0883 ,1.31488 ,1.59916 ,15.69091 
233 ,42.2804 ,1.31683 ,1.57862 ,15.48944 
234 ,42.4564 ,1.31855 ,1.57862 ,15.48944 
235 ,42.6485 ,1.32049 ,1.55467 ,15.25439 
236 ,42.8406 ,1.32241 ,1.54440 ,15.15366 
237 ,43.0006 ,1.32410 ,1.55467 ,15.25439 
238 ,43.1768 ,1.32572 ,1.53071 ,15.01934 
239 ,43.3528 ,1.32751 ,1.51360 ,14.85145 
240 ,43.5289 ,1.32928 ,1.47596 ,14.48209 
241 ,43.7211 ,1.33113 ,1.47253 ,14.44851 
242 ,43.8970 ,1.33296 ,1.46569 ,14.38136 
243 ,44.0729 ,1.33484 ,1.44516 ,14.17989 
244 ,44.2653 ,1.33662 ,1.43489 ,14.07915 
245 ,44.4573 ,1.33849 ,1.43147 ,14.04557 
246 ,44.6492 ,1.34051 ,1.40409 ,13.77695 
247 ,44.8254 ,1.34222 ,1.38356 ,13.57548 
248 ,45.0015 ,1.34403 ,1.38698 ,13.60906 
249 ,45.1937 ,1.34588 ,1.38014 ,13.54190 
250 ,45.3856 ,1.34777 ,1.34591 ,13.20612 
251 ,45.5617 ,1.34962 ,1.34934 ,13.23969 
252 ,45.7536 ,1.35155 ,1.33223 ,13.07180 
253 ,45.9299 ,1.35333 ,1.31169 ,12.87033 
254 ,46.1055 ,1.35506 ,1.30827 ,12.83675 
255 ,46.2820 ,1.35681 ,1.30143 ,12.76960 
256 ,46.4739 ,1.35872 ,1.28089 ,12.56813 
257 ,46.6502 ,1.36051 ,1.26036 ,12.36666 
258 ,46.8422 ,1.36241 ,1.26036 ,12.36666 
259 ,47.0183 ,1.36411 ,1.24325 ,12.19877 
260 ,47.1944 ,1.36592 ,1.22956 ,12.06445 
261 ,47.3704 ,1.36768 ,1.20561 ,11.82941 
262 ,47.5464 ,1.36943 ,1.19192 ,11.69509 
263 ,47.7226 ,1.37131 ,1.19876 ,11.76225 
264 ,47.8987 ,1.37299 ,1.17823 ,11.56078 
265 ,48.0907 ,1.37491 ,1.14743 ,11.25857 
266 ,48.2507 ,1.37656 ,1.14401 ,11.22500 
267 ,48.4265 ,1.37818 ,1.11663 ,10.95637 
268 ,48.6030 ,1.37998 ,1.13374 ,11.12426 
269 ,48.7948 ,1.38192 ,1.10979 ,10.88921 
270 ,48.9711 ,1.38366 ,1.08925 ,10.68774 
271 ,49.1468 ,1.38544 ,1.08241 ,10.62059 
272 ,49.3227 ,1.38720 ,1.06187 ,10.41912 
273 ,49.4988 ,1.38896 ,1.06872 ,10.48627 
274 ,49.6749 ,1.39070 ,1.05503 ,10.35196 
275 ,49.8350 ,1.39243 ,1.01054 ,9.91544 
276 ,50.0111 ,1.39405 ,1.01396 ,9.94902 
277 ,50.2197 ,1.39618 ,1.00370 ,9.84829 
278 ,50.4273 ,1.39819 ,0.97632 ,9.57966 
279 ,50.6038 ,1.40003 ,0.98317 ,9.64682 
280 ,50.7798 ,1.40182 ,0.98317 ,9.64682 
281 ,50.9719 ,1.40367 ,0.94894 ,9.31103 
282 ,51.1480 ,1.40545 ,0.92499 ,9.07598 
283 ,51.3240 ,1.40724 ,0.93183 ,9.14314 
284 ,51.5322 ,1.40921 ,0.91130 ,8.94167 
285 ,51.7241 ,1.41122 ,0.91814 ,9.00883 
286 ,51.9001 ,1.41294 ,0.90446 ,8.87451 
287 ,52.0763 ,1.41478 ,0.88050 ,8.63947 
288 ,52.2681 ,1.41664 ,0.85312 ,8.37084 
289 ,52.4441 ,1.41842 ,0.85312 ,8.37084 
290 ,52.6365 ,1.42020 ,0.83943 ,8.23653 
291 ,52.8446 ,1.42233 ,0.83259 ,8.16937 
292 ,53.0206 ,1.42416 ,0.82575 ,8.10221 
293 ,53.1807 ,1.42590 ,0.79837 ,7.83359 
294 ,53.3568 ,1.42754 ,0.79495 ,7.80001 
295 ,53.5490 ,1.42941 ,0.77784 ,7.63212 
296 ,53.7411 ,1.43136 ,0.76757 ,7.53138 
297 ,53.9170 ,1.43310 ,0.74704 ,7.32991 
298 ,54.0931 ,1.43485 ,0.71966 ,7.06129 
299 ,54.2691 ,1.43664 ,0.72308 ,7.09486 
300 ,54.4614 ,1.43855 ,0.73677 ,7.22918 
301 ,54.6534 ,1.44046 ,0.67859 ,6.65835 
302 ,54.8454 ,1.44231 ,0.66490 ,6.52403 
303 ,55.0215 ,1.44416 ,0.67859 ,6.65835 
304 ,55.2293 ,1.44614 ,0.64779 ,6.35614 
305 ,55.4057 ,1.44799 ,0.65806 ,6.45688 
306 ,55.5814 ,1.44974 ,0.65464 ,6.42330 
307 ,55.7575 ,1.45152 ,0.62726 ,6.15467 
308 ,55.9341 ,1.45329 ,0.61015 ,5.98678 
309 ,56.1097 ,1.45508 ,0.59646 ,5.85247 
310 ,56.2861 ,1.45680 ,0.58962 ,5.78531 
311 ,56.4619 ,1.45862 ,0.58962 ,5.78531 
312 ,56.6380 ,1.46033 ,0.56566 ,5.55026 
313 ,56.8300 ,1.46221 ,0.55882 ,5.48311 
314 ,57.0220 ,1.46413 ,0.54855 ,5.38237 
315 ,57.1985 ,1.46591 ,0.53486 ,5.24806 
316 ,57.3745 ,1.46767 ,0.51091 ,5.01301 
317 ,57.5506 ,1.46946 ,0.50406 ,4.94585 
318 ,57.7262 ,1.47121 ,0.50748 ,4.97943 
319 ,57.9028 ,1.47295 ,0.50064 ,4.91228 
320 ,58.0948 ,1.47487 ,0.47326 ,4.64365 
321 ,58.2709 ,1.47668 ,0.46300 ,4.54291 
322 ,58.4468 ,1.47844 ,0.46642 ,4.57649 
323 ,58.6230 ,1.48022 ,0.45273 ,4.44218 
324 ,58.7830 ,1.48184 ,0.42193 ,4.13997 
325 ,58.9592 ,1.48354 ,0.41166 ,4.03924 
326 ,59.1351 ,1.48528 ,0.40824 ,4.00566 
327 ,59.3113 ,1.48706 ,0.40140 ,3.93850 
328 ,59.4874 ,1.48882 ,0.38771 ,3.80419 
329 ,59.6634 ,1.49066 ,0.36718 ,3.60272 
330 ,59.8395 ,1.49232 ,0.36033 ,3.53557 
331 ,60.0154 ,1.49404 ,0.34664 ,3.40125 
332 ,60.1917 ,1.49582 ,0.34664 ,3.40125 
333 ,60.3833 ,1.49777 ,0.32953 ,3.23336 
334 ,60.5598 ,1.49948 ,0.30558 ,2.99831 
335 ,60.7516 ,1.50146 ,0.30558 ,2.99831 
336 ,60.9280 ,1.50325 ,0.29531 ,2.89758 
337 ,61.1200 ,1.50515 ,0.27478 ,2.69611 
338 ,61.3281 ,1.50713 ,0.28162 ,2.76326 
339 ,61.5039 ,1.50895 ,0.25424 ,2.49464 
340 ,61.6802 ,1.51071 ,0.24740 ,2.42748 
341 ,61.8563 ,1.51245 ,0.21318 ,2.09170 
342 ,62.0484 ,1.51437 ,0.22687 ,2.22601 
343 ,62.2245 ,1.51619 ,0.21318 ,2.09170 
344 ,62.4005 ,1.51799 ,0.19264 ,1.89023 
345 ,62.5925 ,1.51982 ,0.18922 ,1.85665 
346 ,62.7846 ,1.52166 ,0.18238 ,1.78949 
347 ,62.9603 ,1.52352 ,0.15500 ,1.52087 
348 ,63.1203 ,1.52524 ,0.13447 ,1.31940 
349 ,63.2965 ,1.52688 ,0.12762 ,1.25224 
350 ,63.4728 ,1.52866 ,0.12420 ,1.21866 
351 ,63.6971 ,1.53080 ,0.11393 ,1.11793 
352 ,63.9051 ,1.53288 ,0.08998 ,0.88288 
353 ,64.0809 ,1.53469 ,0.08314 ,0.81572 
354 ,64.2571 ,1.53645 ,0.06260 ,0.61425 
355 ,64.4333 ,1.53823 ,0.06602 ,0.64783 
356 ,64.6093 ,1.53998 ,0.06260 ,0.61425 
357 ,64.7854 ,1.54174 ,0.05576 ,0.54710 
358 ,64.9615 ,1.54354 ,0.01811 ,0.17773 
359 ,65.1536 ,1.54540 ,0.03522 ,0.34563 
360 ,65.3457 ,1.54733 ,0.00785 ,0.07700 
361 ,65.5214 ,1.54912 ,0.00785 ,0.07700 
362 ,65.6977 ,1.55082 ,-0.01953 ,-0.19163 
363 ,65.8740 ,1.55266 ,-0.02637 ,-0.25878 
364 ,66.0661 ,1.55456 ,-0.02980 ,-0.29236 
365 ,66.2260 ,1.55628 ,-0.06060 ,-0.59457 
366 ,66.4181 ,1.55807 ,-0.07428 ,-0.72888 
367 ,66.5943 ,1.55982 ,-0.06402 ,-0.62814 
368 ,66.7863 ,1.56176 ,-0.05717 ,-0.56099 
369 ,66.9784 ,1.56368 ,-0.11193 ,-1.09824 
370 ,67.1544 ,1.56542 ,-0.10508 ,-1.03108 
371 ,67.3466 ,1.56734 ,-0.12219 ,-1.19898 
372 ,67.5387 ,1.56931 ,-0.13246 ,-1.29971 
373 ,67.7307 ,1.57108 ,-0.14957 ,-1.46760 
374 ,67.9069 ,1.57304 ,-0.15984 ,-1.56834 
375 ,68.1145 ,1.57496 ,-0.17011 ,-1.66907 
376 ,68.2909 ,1.57680 ,-0.17011 ,-1.66907 
377 ,68.4669 ,1.57855 ,-0.18722 ,-1.83696 
378 ,68.6591 ,1.58040 ,-0.20433 ,-2.00485 
379 ,68.8353 ,1.58229 ,-0.21802 ,-2.13917 
380 ,69.0272 ,1.58413 ,-0.22144 ,-2.17275 
381 ,69.2034 ,1.58591 ,-0.24539 ,-2.40779 
382 ,69.3790 ,1.58769 ,-0.24881 ,-2.44137 
383 ,69.5715 ,1.58957 ,-0.24539 ,-2.40779 
384 ,69.7477 ,1.59132 ,-0.26935 ,-2.64284 
385 ,69.9399 ,1.59331 ,-0.28646 ,-2.81073 
386 ,70.1314 ,1.59519 ,-0.28304 ,-2.77716 
387 ,70.3079 ,1.59694 ,-0.29673 ,-2.91147 
388 ,70.4999 ,1.59890 ,-0.32410 ,-3.18010 
389 ,70.6919 ,1.60080 ,-0.31041 ,-3.04578 
390 ,70.8680 ,1.60255 ,-0.33095 ,-3.24725 
391 ,71.0597 ,1.60446 ,-0.35832 ,-3.51588 
392 ,71.2518 ,1.60634 ,-0.36517 ,-3.58303 
393 ,71.4279 ,1.60818 ,-0.35832 ,-3.51588 
394 ,71.6040 ,1.60990 ,-0.39939 ,-3.91882 
395 ,71.7961 ,1.61174 ,-0.40281 ,-3.95240 
396 ,71.9887 ,1.61367 ,-0.38228 ,-3.75093 
397 ,72.1801 ,1.61570 ,-0.42677 ,-4.18744 
398 ,72.3566 ,1.61744 ,-0.41308 ,-4.05313 
399 ,72.5327 ,1.61924 ,-0.42335 ,-4.15387 
400 ,72.7407 ,1.62115 ,-0.46099 ,-4.52323 
401 ,72.9167 ,1.62303 ,-0.46441 ,-4.55681 
402 ,73.1088 ,1.62485 ,-0.46099 ,-4.52323 
403 ,73.3011 ,1.62676 ,-0.48494 ,-4.75828 
404 ,73.4928 ,1.62882 ,-0.47468 ,-4.65754 
405 ,73.6692 ,1.63061 ,-0.49521 ,-4.85901 
406 ,73.8612 ,1.63251 ,-0.52601 ,-5.16121 
407 ,74.0369 ,1.63428 ,-0.52259 ,-5.12764 
408 ,74.2131 ,1.63598 ,-0.52601 ,-5.16121 
409 ,74.3731 ,1.63770 ,-0.53970 ,-5.29553 
410 ,74.5492 ,1.63931 ,-0.54997 ,-5.39626 
411 ,74.7417 ,1.64121 ,-0.56708 ,-5.56415 
412 ,74.9338 ,1.64319 ,-0.57734 ,-5.66489 
413 ,75.1099 ,1.64500 ,-0.59103 ,-5.79920 
414 ,75.2860 ,1.64676 ,-0.60472 ,-5.93352 
415 ,75.4622 ,1.64855 ,-0.61156 ,-6.00067 
416 ,75.6377 ,1.65022 ,-0.62183 ,-6.10141 
417 ,75.8300 ,1.65205 ,-0.62183 ,-6.10141 
418 ,76.0062 ,1.65390 ,-0.63894 ,-6.26930 
419 ,76.1822 ,1.65570 ,-0.65605 ,-6.43719 
420 ,76.3583 ,1.65746 ,-0.65947 ,-6.47077 
421 ,76.5503 ,1.65935 ,-0.66632 ,-6.53793 
422 ,76.7265 ,1.66110 ,-0.68685 ,-6.73940 
423 ,76.9023 ,1.66285 ,-0.69370 ,-6.80655 
424 ,77.0787 ,1.66469 ,-0.69027 ,-6.77297 
425 ,77.2546 ,1.66642 ,-0.70396 ,-6.90729 
426 ,77.4308 ,1.66819 ,-0.71081 ,-6.97444 
427 ,77.6229 ,1.67001 ,-0.72792 ,-7.14233 
428 ,77.8146 ,1.67198 ,-0.72792 ,-7.14233 
429 ,77.9910 ,1.67376 ,-0.74503 ,-7.31023 
430 ,78.1672 ,1.67546 ,-0.77241 ,-7.57885 
431 ,78.3433 ,1.67731 ,-0.78610 ,-7.71317 
432 ,78.5190 ,1.67908 ,-0.78267 ,-7.67959 
433 ,78.6953 ,1.68085 ,-0.77583 ,-7.61243 
434 ,78.8873 ,1.68272 ,-0.79294 ,-7.78032 
435 ,79.0635 ,1.68450 ,-0.81347 ,-7.98179 
436 ,79.2394 ,1.68629 ,-0.83058 ,-8.14968 
437 ,79.3995 ,1.68797 ,-0.81689 ,-8.01537 
438 ,79.5755 ,1.68961 ,-0.83058 ,-8.14968 
439 ,79.7517 ,1.69138 ,-0.84427 ,-8.28400 
440 ,79.9596 ,1.69342 ,-0.86481 ,-8.48547 
441 ,80.1517 ,1.69534 ,-0.86138 ,-8.45189 
442 ,80.3439 ,1.69727 ,-0.88534 ,-8.68694 
443 ,80.5200 ,1.69904 ,-0.89560 ,-8.78767 
444 ,80.7121 ,1.70094 ,-0.90245 ,-8.85483 
445 ,80.8878 ,1.70273 ,-0.91614 ,-8.98914 
446 ,81.0642 ,1.70448 ,-0.93667 ,-9.19061 
447 ,81.2564 ,1.70635 ,-0.92983 ,-9.12345 
448 ,81.4323 ,1.70820 ,-0.93667 ,-9.19061 
449 ,81.6244 ,1.70999 ,-0.94694 ,-9.29135 
450 ,81.8325 ,1.71207 ,-0.95378 ,-9.35850 
451 ,82.0085 ,1.71393 ,-0.97089 ,-9.52639 
452 ,82.2166 ,1.71595 ,-0.96747 ,-9.49282 
453 ,82.3764 ,1.71770 ,-0.98800 ,-9.69429 
454 ,82.5527 ,1.71935 ,-1.00511 ,-9.86218 
455 ,82.7449 ,1.72133 ,-1.02565 ,-10.06365 
456 ,82.9370 ,1.72321 ,-1.01880 ,-9.99649 
457 ,83.1290 ,1.72512 ,-1.04276 ,-10.23154 
458 ,83.3210 ,1.72703 ,-1.04960 ,-10.29869 
459 ,83.4972 ,1.72878 ,-1.03934 ,-10.19796 
460 ,83.6893 ,1.73075 ,-1.06671 ,-10.46659 
461 ,83.8812 ,1.73264 ,-1.07698 ,-10.56732 
462 ,84.0411 ,1.73436 ,-1.07698 ,-10.56732 
