Data stamp = , 31-03-2022 09:55:20 985

Calibration Values: 
Slope = , 26.54 , g/V 
Offset Voltage at no contact = , -0.501760 , V 

No , Time , Stage Position ,   Mass , Force 
   ,  (s) ,      (mm)      ,   (g)  , (mN)  

1 ,0.0000 ,0.84949 ,5.31563 ,52.15694 
2 ,0.2089 ,0.84957 ,5.31221 ,52.12337 
3 ,0.6090 ,0.85067 ,5.33616 ,52.35841 
4 ,0.7854 ,0.85231 ,5.33274 ,52.32484 
5 ,0.9775 ,0.85405 ,5.33958 ,52.39199 
6 ,1.1533 ,0.85572 ,5.31221 ,52.12337 
7 ,1.3293 ,0.85739 ,5.32589 ,52.25768 
8 ,1.5054 ,0.85921 ,5.33958 ,52.39199 
9 ,1.6813 ,0.86104 ,5.30878 ,52.08979 
10 ,1.8577 ,0.86284 ,5.29510 ,51.95548 
11 ,2.0337 ,0.86461 ,5.28483 ,51.85474 
12 ,2.2096 ,0.86631 ,5.26087 ,51.61969 
13 ,2.3859 ,0.86809 ,5.27114 ,51.72043 
14 ,2.5619 ,0.86988 ,5.25403 ,51.55254 
15 ,2.7702 ,0.87187 ,5.23350 ,51.35107 
16 ,2.9619 ,0.87379 ,5.21296 ,51.14960 
17 ,3.1382 ,0.87566 ,5.20954 ,51.11602 
18 ,3.3301 ,0.87745 ,5.17874 ,50.81381 
19 ,3.5059 ,0.87929 ,5.15821 ,50.61234 
20 ,3.6822 ,0.88106 ,5.15479 ,50.57876 
21 ,3.8745 ,0.88297 ,5.12741 ,50.31014 
22 ,4.0505 ,0.88474 ,5.09661 ,50.00793 
23 ,4.2267 ,0.88650 ,5.09319 ,49.97436 
24 ,4.4187 ,0.88844 ,5.08292 ,49.87362 
25 ,4.6107 ,0.89035 ,5.04528 ,49.50426 
26 ,4.7867 ,0.89205 ,5.04870 ,49.53784 
27 ,4.9628 ,0.89382 ,5.03843 ,49.43710 
28 ,5.1390 ,0.89555 ,5.00421 ,49.10132 
29 ,5.3146 ,0.89734 ,5.01790 ,49.23563 
30 ,5.4911 ,0.89915 ,4.97341 ,48.79911 
31 ,5.6669 ,0.90089 ,4.95630 ,48.63122 
32 ,5.8593 ,0.90277 ,4.95288 ,48.59764 
33 ,6.0352 ,0.90460 ,4.92550 ,48.32902 
34 ,6.2114 ,0.90629 ,4.90155 ,48.09397 
35 ,6.3873 ,0.90809 ,4.89470 ,48.02681 
36 ,6.5794 ,0.90995 ,4.87759 ,47.85892 
37 ,6.7555 ,0.91173 ,4.86048 ,47.69103 
38 ,6.9315 ,0.91357 ,4.83995 ,47.48956 
39 ,7.1237 ,0.91543 ,4.83310 ,47.42240 
40 ,7.2999 ,0.91718 ,4.80230 ,47.12020 
41 ,7.4919 ,0.91903 ,4.79546 ,47.05304 
42 ,7.6680 ,0.92091 ,4.75782 ,46.68368 
43 ,7.8600 ,0.92279 ,4.75097 ,46.61653 
44 ,8.0521 ,0.92472 ,4.72017 ,46.31432 
45 ,8.2282 ,0.92652 ,4.70648 ,46.18001 
46 ,8.4041 ,0.92827 ,4.68595 ,45.97854 
47 ,8.5803 ,0.93002 ,4.67911 ,45.91138 
48 ,8.7559 ,0.93176 ,4.66199 ,45.74349 
49 ,8.9324 ,0.93351 ,4.63462 ,45.47486 
50 ,9.1245 ,0.93543 ,4.62777 ,45.40771 
51 ,9.3005 ,0.93719 ,4.60382 ,45.17266 
52 ,9.4767 ,0.93896 ,4.59697 ,45.10550 
53 ,9.6526 ,0.94071 ,4.56617 ,44.80330 
54 ,9.8284 ,0.94246 ,4.55591 ,44.70256 
55 ,10.0048 ,0.94420 ,4.55249 ,44.66898 
56 ,10.1968 ,0.94604 ,4.54222 ,44.56825 
57 ,10.3730 ,0.94799 ,4.51484 ,44.29962 
58 ,10.5491 ,0.94971 ,4.49089 ,44.06457 
59 ,10.7088 ,0.95141 ,4.47378 ,43.89668 
60 ,10.8692 ,0.95298 ,4.47035 ,43.86310 
61 ,11.0452 ,0.95464 ,4.44640 ,43.62806 
62 ,11.2213 ,0.95642 ,4.43271 ,43.49374 
63 ,11.3974 ,0.95818 ,4.42586 ,43.42659 
64 ,11.5895 ,0.96006 ,4.39849 ,43.15796 
65 ,11.7657 ,0.96184 ,4.36084 ,42.78860 
66 ,11.9416 ,0.96371 ,4.36084 ,42.78860 
67 ,12.1016 ,0.96534 ,4.35058 ,42.68786 
68 ,12.2779 ,0.96694 ,4.34031 ,42.58713 
69 ,12.4538 ,0.96874 ,4.30609 ,42.25135 
70 ,12.6139 ,0.97044 ,4.29240 ,42.11703 
71 ,12.7900 ,0.97206 ,4.26160 ,41.81483 
72 ,12.9660 ,0.97394 ,4.27529 ,41.94914 
73 ,13.1421 ,0.97557 ,4.24791 ,41.68051 
74 ,13.3183 ,0.97736 ,4.23765 ,41.57978 
75 ,13.4943 ,0.97913 ,4.21027 ,41.31115 
76 ,13.6703 ,0.98091 ,4.18974 ,41.10968 
77 ,13.8461 ,0.98267 ,4.18289 ,41.04253 
78 ,14.0226 ,0.98439 ,4.16578 ,40.87464 
79 ,14.1985 ,0.98614 ,4.16236 ,40.84106 
80 ,14.3749 ,0.98793 ,4.13498 ,40.57243 
81 ,14.5507 ,0.98965 ,4.11787 ,40.40454 
82 ,14.7268 ,0.99144 ,4.09734 ,40.20307 
83 ,14.9029 ,0.99324 ,4.09391 ,40.16949 
84 ,15.0789 ,0.99491 ,4.08365 ,40.06876 
85 ,15.2551 ,0.99678 ,4.05969 ,39.83371 
86 ,15.4308 ,0.99848 ,4.02889 ,39.53150 
87 ,15.6072 ,1.00028 ,4.02547 ,39.49793 
88 ,15.7669 ,1.00194 ,4.00494 ,39.29646 
89 ,15.9433 ,1.00360 ,3.98098 ,39.06141 
90 ,16.1514 ,1.00564 ,3.95361 ,38.79278 
91 ,16.3434 ,1.00759 ,3.94334 ,38.69205 
92 ,16.5197 ,1.00942 ,3.92623 ,38.52415 
93 ,16.7113 ,1.01131 ,3.90912 ,38.35626 
94 ,16.8873 ,1.01303 ,3.89543 ,38.22195 
95 ,17.0639 ,1.01482 ,3.87490 ,38.02048 
96 ,17.2558 ,1.01666 ,3.86805 ,37.95332 
97 ,17.4480 ,1.01867 ,3.83041 ,37.58396 
98 ,17.6240 ,1.02042 ,3.83725 ,37.65112 
99 ,17.8001 ,1.02218 ,3.81672 ,37.44965 
100 ,17.9760 ,1.02395 ,3.81672 ,37.44965 
101 ,18.1518 ,1.02583 ,3.78250 ,37.11387 
102 ,18.3283 ,1.02743 ,3.77565 ,37.04671 
103 ,18.5203 ,1.02937 ,3.75854 ,36.87882 
104 ,18.6964 ,1.03110 ,3.74143 ,36.71093 
105 ,18.8885 ,1.03300 ,3.70379 ,36.34157 
106 ,19.0967 ,1.03510 ,3.71063 ,36.40872 
107 ,19.2726 ,1.03693 ,3.69694 ,36.27441 
108 ,19.4648 ,1.03879 ,3.66272 ,35.93863 
109 ,19.6568 ,1.04065 ,3.64561 ,35.77073 
110 ,19.8649 ,1.04274 ,3.62850 ,35.60284 
111 ,20.0410 ,1.04456 ,3.61823 ,35.50211 
112 ,20.2171 ,1.04634 ,3.61823 ,35.50211 
113 ,20.4092 ,1.04829 ,3.59086 ,35.23348 
114 ,20.6012 ,1.05014 ,3.55663 ,34.89770 
115 ,20.7770 ,1.05195 ,3.56006 ,34.93128 
116 ,20.9692 ,1.05377 ,3.53268 ,34.66265 
117 ,21.1455 ,1.05563 ,3.52241 ,34.56192 
118 ,21.3371 ,1.05750 ,3.50872 ,34.42760 
119 ,21.5134 ,1.05926 ,3.50188 ,34.36045 
120 ,21.6897 ,1.06110 ,3.49161 ,34.25971 
121 ,21.8818 ,1.06301 ,3.45055 ,33.85677 
122 ,22.0738 ,1.06490 ,3.45055 ,33.85677 
123 ,22.2498 ,1.06662 ,3.42659 ,33.62172 
124 ,22.4259 ,1.06840 ,3.39921 ,33.35310 
125 ,22.6020 ,1.07015 ,3.39237 ,33.28594 
126 ,22.7780 ,1.07193 ,3.37868 ,33.15163 
127 ,22.9538 ,1.07368 ,3.37184 ,33.08447 
128 ,23.1298 ,1.07543 ,3.35473 ,32.91658 
129 ,23.2898 ,1.07718 ,3.31708 ,32.54722 
130 ,23.4662 ,1.07880 ,3.31708 ,32.54722 
131 ,23.6424 ,1.08056 ,3.29655 ,32.34575 
132 ,23.8341 ,1.08241 ,3.30339 ,32.41290 
133 ,24.0102 ,1.08425 ,3.26917 ,32.07712 
134 ,24.2025 ,1.08607 ,3.27259 ,32.11070 
135 ,24.4108 ,1.08812 ,3.24864 ,31.87565 
136 ,24.5867 ,1.09002 ,3.22126 ,31.60702 
137 ,24.7625 ,1.09177 ,3.21100 ,31.50629 
138 ,24.9389 ,1.09353 ,3.20073 ,31.40555 
139 ,25.1151 ,1.09528 ,3.18362 ,31.23766 
140 ,25.2911 ,1.09706 ,3.15966 ,31.00262 
141 ,25.4673 ,1.09878 ,3.15282 ,30.93546 
142 ,25.6433 ,1.10056 ,3.12886 ,30.70041 
143 ,25.8354 ,1.10245 ,3.12202 ,30.63325 
144 ,26.0115 ,1.10426 ,3.11175 ,30.53252 
145 ,26.1875 ,1.10602 ,3.09464 ,30.36463 
146 ,26.3796 ,1.10795 ,3.07753 ,30.19674 
147 ,26.5554 ,1.10968 ,3.06726 ,30.09600 
148 ,26.7317 ,1.11150 ,3.04673 ,29.89453 
149 ,26.9238 ,1.11341 ,3.01251 ,29.55875 
150 ,27.0998 ,1.11512 ,3.00224 ,29.45801 
151 ,27.2917 ,1.11693 ,2.99882 ,29.42444 
152 ,27.4842 ,1.11891 ,2.97487 ,29.18939 
153 ,27.6436 ,1.12071 ,2.95433 ,28.98792 
154 ,27.8200 ,1.12232 ,2.94407 ,28.88718 
155 ,28.0121 ,1.12420 ,2.94407 ,28.88718 
156 ,28.1886 ,1.12603 ,2.90985 ,28.55140 
157 ,28.3644 ,1.12781 ,2.89616 ,28.41709 
158 ,28.5403 ,1.12956 ,2.88247 ,28.28277 
159 ,28.7165 ,1.13134 ,2.88247 ,28.28277 
160 ,28.8925 ,1.13302 ,2.86878 ,28.14846 
161 ,29.0848 ,1.13488 ,2.84482 ,27.91341 
162 ,29.2608 ,1.13675 ,2.82771 ,27.74552 
163 ,29.4368 ,1.13851 ,2.81745 ,27.64479 
164 ,29.6287 ,1.14030 ,2.81402 ,27.61121 
165 ,29.8209 ,1.14233 ,2.78665 ,27.34258 
166 ,30.0129 ,1.14421 ,2.76269 ,27.10753 
167 ,30.1893 ,1.14605 ,2.75243 ,27.00680 
168 ,30.3810 ,1.14793 ,2.73189 ,26.80533 
169 ,30.5572 ,1.14972 ,2.71820 ,26.67101 
170 ,30.7332 ,1.15143 ,2.71136 ,26.60386 
171 ,30.9093 ,1.15322 ,2.69083 ,26.40239 
172 ,31.1015 ,1.15511 ,2.67029 ,26.20092 
173 ,31.2776 ,1.15689 ,2.66687 ,26.16734 
174 ,31.4536 ,1.15867 ,2.64976 ,25.99945 
175 ,31.6297 ,1.16048 ,2.64292 ,25.93229 
176 ,31.8056 ,1.16220 ,2.61554 ,25.66367 
177 ,31.9978 ,1.16405 ,2.60185 ,25.52935 
178 ,32.1738 ,1.16597 ,2.59501 ,25.46220 
179 ,32.3499 ,1.16760 ,2.57789 ,25.29430 
180 ,32.5260 ,1.16937 ,2.54710 ,24.99210 
181 ,32.7179 ,1.17128 ,2.53683 ,24.89136 
182 ,32.8939 ,1.17308 ,2.54367 ,24.95852 
183 ,33.0860 ,1.17492 ,2.49234 ,24.45485 
184 ,33.2623 ,1.17674 ,2.49576 ,24.48842 
185 ,33.4383 ,1.17845 ,2.48892 ,24.42127 
186 ,33.6145 ,1.18021 ,2.47865 ,24.32053 
187 ,33.7904 ,1.18201 ,2.46496 ,24.18622 
188 ,33.9662 ,1.18384 ,2.44443 ,23.98475 
189 ,34.1426 ,1.18552 ,2.40679 ,23.61539 
190 ,34.3188 ,1.18733 ,2.39994 ,23.54823 
191 ,34.4947 ,1.18909 ,2.39994 ,23.54823 
192 ,34.6710 ,1.19082 ,2.38625 ,23.41392 
193 ,34.8630 ,1.19269 ,2.36572 ,23.21245 
194 ,35.0550 ,1.19460 ,2.35203 ,23.07814 
195 ,35.2311 ,1.19639 ,2.33492 ,22.91024 
196 ,35.4229 ,1.19833 ,2.29043 ,22.47373 
197 ,35.5992 ,1.20009 ,2.30070 ,22.57446 
198 ,35.7753 ,1.20181 ,2.29385 ,22.50731 
199 ,35.9514 ,1.20362 ,2.27332 ,22.30584 
200 ,36.1274 ,1.20538 ,2.25963 ,22.17152 
201 ,36.3195 ,1.20719 ,2.23568 ,21.93647 
202 ,36.4955 ,1.20909 ,2.23226 ,21.90290 
203 ,36.6877 ,1.21092 ,2.21515 ,21.73500 
204 ,36.8636 ,1.21273 ,2.18435 ,21.43280 
205 ,37.0399 ,1.21449 ,2.19461 ,21.53353 
206 ,37.2319 ,1.21636 ,2.17066 ,21.29849 
207 ,37.4080 ,1.21821 ,2.15355 ,21.13059 
208 ,37.6000 ,1.22013 ,2.13301 ,20.92912 
209 ,37.7759 ,1.22184 ,2.14670 ,21.06344 
210 ,37.9523 ,1.22362 ,2.12275 ,20.82839 
211 ,38.1600 ,1.22559 ,2.09879 ,20.59334 
212 ,38.3362 ,1.22747 ,2.07826 ,20.39187 
213 ,38.5125 ,1.22923 ,2.07484 ,20.35829 
214 ,38.6885 ,1.23099 ,2.05773 ,20.19040 
215 ,38.8802 ,1.23289 ,2.03035 ,19.92178 
216 ,39.0563 ,1.23459 ,2.02350 ,19.85462 
217 ,39.2325 ,1.23642 ,2.02008 ,19.82104 
218 ,39.4248 ,1.23834 ,1.98586 ,19.48526 
219 ,39.6168 ,1.24026 ,1.99270 ,19.55241 
220 ,39.7929 ,1.24203 ,1.97559 ,19.38452 
221 ,39.9691 ,1.24375 ,1.96533 ,19.28379 
222 ,40.1451 ,1.24560 ,1.92426 ,18.88085 
223 ,40.3371 ,1.24742 ,1.92084 ,18.84727 
224 ,40.5132 ,1.24924 ,1.90373 ,18.67938 
225 ,40.7052 ,1.25105 ,1.87977 ,18.44433 
226 ,40.8816 ,1.25286 ,1.86608 ,18.31002 
227 ,41.0734 ,1.25484 ,1.87293 ,18.37717 
228 ,41.2654 ,1.25665 ,1.84897 ,18.14213 
229 ,41.4416 ,1.25847 ,1.81475 ,17.80634 
230 ,41.6178 ,1.26029 ,1.81475 ,17.80634 
231 ,41.8097 ,1.26217 ,1.81475 ,17.80634 
232 ,41.9861 ,1.26395 ,1.78737 ,17.53772 
233 ,42.1779 ,1.26586 ,1.76684 ,17.33625 
234 ,42.3539 ,1.26762 ,1.77369 ,17.40340 
235 ,42.5621 ,1.26963 ,1.73946 ,17.06762 
236 ,42.7540 ,1.27163 ,1.72920 ,16.96689 
237 ,42.9460 ,1.27350 ,1.71551 ,16.83257 
238 ,43.1381 ,1.27543 ,1.69840 ,16.66468 
239 ,43.3143 ,1.27720 ,1.69840 ,16.66468 
240 ,43.5061 ,1.27906 ,1.66760 ,16.36248 
241 ,43.6825 ,1.28087 ,1.64707 ,16.16101 
242 ,43.8586 ,1.28262 ,1.64022 ,16.09385 
243 ,44.0507 ,1.28447 ,1.62653 ,15.95954 
244 ,44.2267 ,1.28638 ,1.62311 ,15.92596 
245 ,44.4188 ,1.28825 ,1.58889 ,15.59018 
246 ,44.5947 ,1.28998 ,1.57178 ,15.42228 
247 ,44.7869 ,1.29195 ,1.57178 ,15.42228 
248 ,44.9631 ,1.29371 ,1.55809 ,15.28797 
249 ,45.1551 ,1.29565 ,1.54098 ,15.12008 
250 ,45.3467 ,1.29746 ,1.53071 ,15.01934 
251 ,45.5230 ,1.29928 ,1.50676 ,14.78430 
252 ,45.6993 ,1.30109 ,1.49649 ,14.68356 
253 ,45.8753 ,1.30285 ,1.47938 ,14.51567 
254 ,46.0515 ,1.30457 ,1.47938 ,14.51567 
255 ,46.2436 ,1.30648 ,1.45542 ,14.28062 
256 ,46.4196 ,1.30829 ,1.44516 ,14.17989 
257 ,46.6114 ,1.31027 ,1.44174 ,14.14631 
258 ,46.8034 ,1.31202 ,1.42120 ,13.94484 
259 ,46.9956 ,1.31399 ,1.40751 ,13.81053 
260 ,47.1721 ,1.31579 ,1.39040 ,13.64263 
261 ,47.3639 ,1.31767 ,1.36645 ,13.40759 
262 ,47.5400 ,1.31941 ,1.35618 ,13.30685 
263 ,47.7161 ,1.32120 ,1.33907 ,13.13896 
264 ,47.9082 ,1.32313 ,1.32880 ,13.03822 
265 ,48.0844 ,1.32493 ,1.31854 ,12.93749 
266 ,48.2763 ,1.32684 ,1.29458 ,12.70244 
267 ,48.4523 ,1.32858 ,1.29800 ,12.73602 
268 ,48.6446 ,1.33043 ,1.27405 ,12.50097 
269 ,48.8366 ,1.33235 ,1.26036 ,12.36666 
270 ,49.0286 ,1.33433 ,1.25694 ,12.33308 
271 ,49.2048 ,1.33608 ,1.23983 ,12.16519 
272 ,49.3808 ,1.33785 ,1.21587 ,11.93014 
273 ,49.5728 ,1.33971 ,1.19192 ,11.69509 
274 ,49.7650 ,1.34168 ,1.19534 ,11.72867 
275 ,49.9409 ,1.34343 ,1.16796 ,11.46004 
276 ,50.1171 ,1.34524 ,1.15427 ,11.32573 
277 ,50.2931 ,1.34701 ,1.15085 ,11.29215 
278 ,50.4693 ,1.34872 ,1.14401 ,11.22500 
279 ,50.6452 ,1.35051 ,1.13032 ,11.09068 
280 ,50.8210 ,1.35226 ,1.10636 ,10.85563 
281 ,50.9974 ,1.35398 ,1.07899 ,10.58701 
282 ,51.1736 ,1.35579 ,1.08583 ,10.65416 
283 ,51.3656 ,1.35768 ,1.07899 ,10.58701 
284 ,51.5416 ,1.35948 ,1.05503 ,10.35196 
285 ,51.7338 ,1.36127 ,1.03108 ,10.11691 
286 ,51.9259 ,1.36327 ,1.04134 ,10.21765 
287 ,52.1019 ,1.36506 ,1.02081 ,10.01618 
288 ,52.2777 ,1.36679 ,0.99001 ,9.71397 
289 ,52.4699 ,1.36863 ,0.99343 ,9.74755 
290 ,52.6621 ,1.37064 ,0.97632 ,9.57966 
291 ,52.8378 ,1.37239 ,0.94894 ,9.31103 
292 ,53.0144 ,1.37420 ,0.94552 ,9.27745 
293 ,53.2062 ,1.37612 ,0.94894 ,9.31103 
294 ,53.3985 ,1.37796 ,0.91472 ,8.97525 
295 ,53.5904 ,1.37993 ,0.90103 ,8.84094 
296 ,53.7665 ,1.38169 ,0.90788 ,8.90809 
297 ,53.9422 ,1.38345 ,0.89077 ,8.74020 
298 ,54.1187 ,1.38520 ,0.87366 ,8.57231 
299 ,54.3107 ,1.38710 ,0.85654 ,8.40442 
300 ,54.5029 ,1.38901 ,0.84970 ,8.33726 
301 ,54.6790 ,1.39083 ,0.82575 ,8.10221 
302 ,54.8711 ,1.39265 ,0.81206 ,7.96790 
303 ,55.0630 ,1.39460 ,0.79495 ,7.80001 
304 ,55.2550 ,1.39653 ,0.78126 ,7.66570 
305 ,55.4312 ,1.39831 ,0.78126 ,7.66570 
306 ,55.6072 ,1.40007 ,0.77441 ,7.59854 
307 ,55.7995 ,1.40205 ,0.74704 ,7.32991 
308 ,55.9911 ,1.40393 ,0.73677 ,7.22918 
309 ,56.1676 ,1.40570 ,0.72650 ,7.12844 
310 ,56.3433 ,1.40759 ,0.70597 ,6.92697 
311 ,56.5197 ,1.40919 ,0.70597 ,6.92697 
312 ,56.6958 ,1.41102 ,0.68544 ,6.72550 
313 ,56.8881 ,1.41291 ,0.67517 ,6.62477 
314 ,57.0637 ,1.41476 ,0.65806 ,6.45688 
315 ,57.2400 ,1.41645 ,0.66490 ,6.52403 
316 ,57.4320 ,1.41836 ,0.63068 ,6.18825 
317 ,57.6242 ,1.42021 ,0.64437 ,6.32256 
318 ,57.7998 ,1.42199 ,0.62042 ,6.08752 
319 ,57.9762 ,1.42380 ,0.58962 ,5.78531 
320 ,58.1520 ,1.42559 ,0.58962 ,5.78531 
321 ,58.3285 ,1.42728 ,0.57935 ,5.68458 
322 ,58.5045 ,1.42906 ,0.56908 ,5.58384 
323 ,58.6808 ,1.43088 ,0.56224 ,5.51668 
324 ,58.8568 ,1.43257 ,0.54171 ,5.31522 
325 ,59.0328 ,1.43435 ,0.51775 ,5.08017 
326 ,59.2085 ,1.43612 ,0.52459 ,5.14732 
327 ,59.3851 ,1.43785 ,0.52117 ,5.11375 
328 ,59.5930 ,1.43982 ,0.49037 ,4.81154 
329 ,59.7690 ,1.44174 ,0.48011 ,4.71081 
330 ,59.9612 ,1.44355 ,0.48353 ,4.74438 
331 ,60.1374 ,1.44539 ,0.45957 ,4.50934 
332 ,60.3133 ,1.44713 ,0.43562 ,4.27429 
333 ,60.4890 ,1.44887 ,0.44588 ,4.37502 
334 ,60.6654 ,1.45066 ,0.42193 ,4.13997 
335 ,60.8255 ,1.45232 ,0.42193 ,4.13997 
336 ,61.0016 ,1.45403 ,0.40824 ,4.00566 
337 ,61.1937 ,1.45584 ,0.38429 ,3.77061 
338 ,61.3858 ,1.45783 ,0.39113 ,3.83777 
339 ,61.5618 ,1.45967 ,0.37402 ,3.66988 
340 ,61.7379 ,1.46136 ,0.35691 ,3.50199 
341 ,61.9141 ,1.46314 ,0.33295 ,3.26694 
342 ,62.0901 ,1.46484 ,0.33295 ,3.26694 
343 ,62.2662 ,1.46668 ,0.31926 ,3.13263 
344 ,62.4423 ,1.46844 ,0.32611 ,3.19978 
345 ,62.6504 ,1.47041 ,0.28162 ,2.76326 
346 ,62.8583 ,1.47250 ,0.29531 ,2.89758 
347 ,63.0345 ,1.47430 ,0.26793 ,2.62895 
348 ,63.2261 ,1.47620 ,0.26109 ,2.56179 
349 ,63.4027 ,1.47802 ,0.24398 ,2.39390 
350 ,63.5948 ,1.47990 ,0.22344 ,2.19243 
351 ,63.7866 ,1.48184 ,0.23713 ,2.32675 
352 ,63.9627 ,1.48362 ,0.21318 ,2.09170 
353 ,64.1390 ,1.48534 ,0.20291 ,1.99096 
354 ,64.3468 ,1.48738 ,0.18922 ,1.85665 
355 ,64.5226 ,1.48920 ,0.18580 ,1.82307 
356 ,64.6988 ,1.49093 ,0.16527 ,1.62160 
357 ,64.8748 ,1.49273 ,0.16527 ,1.62160 
358 ,65.0509 ,1.49456 ,0.14816 ,1.45371 
359 ,65.2112 ,1.49622 ,0.11393 ,1.11793 
360 ,65.3871 ,1.49790 ,0.10025 ,0.98361 
361 ,65.5630 ,1.49962 ,0.12078 ,1.18508 
362 ,65.7396 ,1.50143 ,0.10367 ,1.01719 
363 ,65.9317 ,1.50329 ,0.07971 ,0.78214 
364 ,66.1077 ,1.50506 ,0.07629 ,0.74857 
365 ,66.2998 ,1.50688 ,0.06945 ,0.68141 
366 ,66.4761 ,1.50875 ,0.05234 ,0.51352 
367 ,66.6518 ,1.51060 ,0.04549 ,0.44636 
368 ,66.8279 ,1.51223 ,0.03180 ,0.31205 
369 ,67.0041 ,1.51401 ,0.03180 ,0.31205 
370 ,67.1960 ,1.51592 ,0.00443 ,0.04342 
371 ,67.3884 ,1.51787 ,-0.00584 ,-0.05731 
372 ,67.5642 ,1.51965 ,-0.00242 ,-0.02373 
373 ,67.7243 ,1.52134 ,-0.01611 ,-0.15805 
374 ,67.9005 ,1.52294 ,-0.02637 ,-0.25878 
375 ,68.0765 ,1.52476 ,-0.04348 ,-0.42667 
376 ,68.2685 ,1.52657 ,-0.05033 ,-0.49383 
377 ,68.4447 ,1.52841 ,-0.05717 ,-0.56099 
378 ,68.6366 ,1.53030 ,-0.07771 ,-0.76246 
379 ,68.8129 ,1.53211 ,-0.09482 ,-0.93035 
380 ,69.0052 ,1.53400 ,-0.10166 ,-0.99751 
381 ,69.1970 ,1.53584 ,-0.09824 ,-0.96393 
382 ,69.3892 ,1.53782 ,-0.12904 ,-1.26613 
383 ,69.5652 ,1.53966 ,-0.13246 ,-1.29971 
384 ,69.7410 ,1.54141 ,-0.14273 ,-1.40045 
385 ,69.9332 ,1.54325 ,-0.16668 ,-1.63549 
386 ,70.1253 ,1.54524 ,-0.17695 ,-1.73623 
387 ,70.3014 ,1.54696 ,-0.17695 ,-1.73623 
388 ,70.4775 ,1.54873 ,-0.19064 ,-1.87054 
389 ,70.6535 ,1.55046 ,-0.21802 ,-2.13917 
390 ,70.8133 ,1.55218 ,-0.22144 ,-2.17275 
391 ,70.9896 ,1.55383 ,-0.24197 ,-2.37422 
392 ,71.1819 ,1.55574 ,-0.22486 ,-2.20632 
393 ,71.3580 ,1.55760 ,-0.23855 ,-2.34064 
394 ,71.5339 ,1.55934 ,-0.26593 ,-2.60926 
395 ,71.7421 ,1.56133 ,-0.25908 ,-2.54211 
396 ,71.9176 ,1.56316 ,-0.26593 ,-2.60926 
397 ,72.0939 ,1.56490 ,-0.29673 ,-2.91147 
398 ,72.2862 ,1.56677 ,-0.29330 ,-2.87789 
399 ,72.4622 ,1.56859 ,-0.31384 ,-3.07936 
400 ,72.6544 ,1.57053 ,-0.31384 ,-3.07936 
401 ,72.8461 ,1.57241 ,-0.34121 ,-3.34799 
402 ,73.0065 ,1.57410 ,-0.34464 ,-3.38156 
403 ,73.1826 ,1.57579 ,-0.35148 ,-3.44872 
404 ,73.3585 ,1.57756 ,-0.35832 ,-3.51588 
405 ,73.5345 ,1.57929 ,-0.37886 ,-3.71735 
406 ,73.7268 ,1.58116 ,-0.39255 ,-3.85166 
407 ,73.9029 ,1.58292 ,-0.39597 ,-3.88524 
408 ,74.0789 ,1.58470 ,-0.39255 ,-3.85166 
409 ,74.2710 ,1.58662 ,-0.41992 ,-4.12029 
410 ,74.4472 ,1.58842 ,-0.42677 ,-4.18744 
411 ,74.6228 ,1.59021 ,-0.45072 ,-4.42249 
412 ,74.7992 ,1.59188 ,-0.45414 ,-4.45607 
413 ,74.9754 ,1.59369 ,-0.46783 ,-4.59038 
414 ,75.1836 ,1.59566 ,-0.47468 ,-4.65754 
415 ,75.3755 ,1.59764 ,-0.48837 ,-4.79185 
416 ,75.5834 ,1.59970 ,-0.48152 ,-4.72470 
417 ,75.7597 ,1.60152 ,-0.50206 ,-4.92617 
418 ,75.9517 ,1.60344 ,-0.50890 ,-4.99332 
419 ,76.1277 ,1.60522 ,-0.53970 ,-5.29553 
420 ,76.3038 ,1.60694 ,-0.53628 ,-5.26195 
421 ,76.4799 ,1.60872 ,-0.53628 ,-5.26195 
422 ,76.6560 ,1.61053 ,-0.55339 ,-5.42984 
423 ,76.8320 ,1.61225 ,-0.57734 ,-5.66489 
424 ,77.0082 ,1.61400 ,-0.58761 ,-5.76562 
425 ,77.1682 ,1.61570 ,-0.58419 ,-5.73205 
426 ,77.3443 ,1.61736 ,-0.59103 ,-5.79920 
427 ,77.5364 ,1.61926 ,-0.59103 ,-5.79920 
428 ,77.7125 ,1.62108 ,-0.61156 ,-6.00067 
429 ,77.8888 ,1.62280 ,-0.63894 ,-6.26930 
430 ,78.0644 ,1.62458 ,-0.64236 ,-6.30288 
431 ,78.2405 ,1.62633 ,-0.63894 ,-6.26930 
432 ,78.4328 ,1.62822 ,-0.66974 ,-6.57150 
433 ,78.6088 ,1.63001 ,-0.68001 ,-6.67224 
434 ,78.8010 ,1.63184 ,-0.66974 ,-6.57150 
435 ,78.9767 ,1.63373 ,-0.67659 ,-6.63866 
436 ,79.1532 ,1.63542 ,-0.70054 ,-6.87371 
437 ,79.3291 ,1.63720 ,-0.72107 ,-7.07518 
438 ,79.5053 ,1.63895 ,-0.72792 ,-7.14233 
439 ,79.6811 ,1.64077 ,-0.72792 ,-7.14233 
440 ,79.8574 ,1.64245 ,-0.72450 ,-7.10876 
441 ,80.0495 ,1.64443 ,-0.75187 ,-7.37738 
442 ,80.2255 ,1.64616 ,-0.76556 ,-7.51170 
443 ,80.4016 ,1.64797 ,-0.77583 ,-7.61243 
444 ,80.6098 ,1.64992 ,-0.79294 ,-7.78032 
445 ,80.7860 ,1.65183 ,-0.80321 ,-7.88106 
446 ,80.9777 ,1.65366 ,-0.79294 ,-7.78032 
447 ,81.1540 ,1.65543 ,-0.82374 ,-8.08253 
448 ,81.3296 ,1.65736 ,-0.82716 ,-8.11611 
449 ,81.5060 ,1.65899 ,-0.84769 ,-8.31758 
450 ,81.6980 ,1.66089 ,-0.84427 ,-8.28400 
451 ,81.8742 ,1.66269 ,-0.85454 ,-8.38473 
452 ,82.0504 ,1.66446 ,-0.87165 ,-8.55262 
453 ,82.2263 ,1.66616 ,-0.88192 ,-8.65336 
454 ,82.4021 ,1.66793 ,-0.88876 ,-8.72051 
455 ,82.5785 ,1.66970 ,-0.88876 ,-8.72051 
456 ,82.7545 ,1.67144 ,-0.89560 ,-8.78767 
457 ,82.9307 ,1.67322 ,-0.91272 ,-8.95556 
458 ,83.1227 ,1.67513 ,-0.93325 ,-9.15703 
459 ,83.2989 ,1.67692 ,-0.94009 ,-9.22419 
460 ,83.4905 ,1.67884 ,-0.95378 ,-9.35850 
461 ,83.6505 ,1.68055 ,-0.96405 ,-9.45924 
462 ,83.8106 ,1.68214 ,-0.98116 ,-9.62713 
463 ,83.9870 ,1.68380 ,-0.98458 ,-9.66071 
