Data stamp = , 31-03-2022 11:16:07 168

Calibration Values: 
Slope = , 26.54 , g/V 
Offset Voltage at no contact = , -0.501760 , V 

No , Time , Stage Position ,   Mass , Force 
   ,  (s) ,      (mm)      ,   (g)  , (mN)  

1 ,0.0000 ,0.84958 ,5.29167 ,51.92190 
2 ,0.2069 ,0.84965 ,5.28825 ,51.88832 
3 ,0.5433 ,0.85053 ,5.30878 ,52.08979 
4 ,0.7350 ,0.85206 ,5.29167 ,51.92190 
5 ,0.9114 ,0.85347 ,5.28141 ,51.82116 
6 ,1.1032 ,0.85531 ,5.30536 ,52.05621 
7 ,1.2795 ,0.85712 ,5.31905 ,52.19052 
8 ,1.4557 ,0.85886 ,5.29852 ,51.98905 
9 ,1.6317 ,0.86069 ,5.27798 ,51.78758 
10 ,1.8079 ,0.86244 ,5.26430 ,51.65327 
11 ,1.9838 ,0.86418 ,5.26087 ,51.61969 
12 ,2.1756 ,0.86611 ,5.24718 ,51.48538 
13 ,2.3520 ,0.86787 ,5.21981 ,51.21675 
14 ,2.5276 ,0.86962 ,5.22323 ,51.25033 
15 ,2.7038 ,0.87140 ,5.22323 ,51.25033 
16 ,2.8802 ,0.87313 ,5.19927 ,51.01528 
17 ,3.0562 ,0.87494 ,5.17874 ,50.81381 
18 ,3.2160 ,0.87663 ,5.15136 ,50.54519 
19 ,3.3923 ,0.87828 ,5.13768 ,50.41087 
20 ,3.5685 ,0.88004 ,5.13083 ,50.34372 
21 ,3.7445 ,0.88182 ,5.11372 ,50.17583 
22 ,3.9205 ,0.88354 ,5.10345 ,50.07509 
23 ,4.1125 ,0.88542 ,5.07950 ,49.84004 
24 ,4.2887 ,0.88721 ,5.06239 ,49.67215 
25 ,4.4647 ,0.88898 ,5.06239 ,49.67215 
26 ,4.6569 ,0.89095 ,5.04528 ,49.50426 
27 ,4.8329 ,0.89271 ,5.01106 ,49.16848 
28 ,5.0250 ,0.89457 ,5.02132 ,49.26921 
29 ,5.2010 ,0.89635 ,4.99737 ,49.03416 
30 ,5.3772 ,0.89809 ,4.96315 ,48.69838 
31 ,5.5531 ,0.89984 ,4.94261 ,48.49691 
32 ,5.7294 ,0.90159 ,4.94261 ,48.49691 
33 ,5.9059 ,0.90339 ,4.92892 ,48.36260 
34 ,6.0814 ,0.90511 ,4.91523 ,48.22828 
35 ,6.2575 ,0.90689 ,4.89470 ,48.02681 
36 ,6.4335 ,0.90867 ,4.86390 ,47.72461 
37 ,6.6097 ,0.91043 ,4.85706 ,47.65745 
38 ,6.7856 ,0.91221 ,4.84679 ,47.55672 
39 ,6.9778 ,0.91406 ,4.81941 ,47.28809 
40 ,7.1697 ,0.91594 ,4.79546 ,47.05304 
41 ,7.3779 ,0.91803 ,4.76466 ,46.75084 
42 ,7.5702 ,0.91995 ,4.75097 ,46.61653 
43 ,7.7622 ,0.92198 ,4.73728 ,46.48221 
44 ,7.9382 ,0.92367 ,4.71675 ,46.28074 
45 ,8.1143 ,0.92545 ,4.68937 ,46.01212 
46 ,8.3064 ,0.92738 ,4.68937 ,46.01212 
47 ,8.4981 ,0.92934 ,4.66884 ,45.81065 
48 ,8.6744 ,0.93106 ,4.64831 ,45.60918 
49 ,8.8507 ,0.93279 ,4.63804 ,45.50844 
50 ,9.0265 ,0.93460 ,4.62777 ,45.40771 
51 ,9.2029 ,0.93638 ,4.61066 ,45.23981 
52 ,9.3948 ,0.93837 ,4.58328 ,44.97119 
53 ,9.5545 ,0.93996 ,4.57302 ,44.87045 
54 ,9.7308 ,0.94164 ,4.53537 ,44.50109 
55 ,9.9231 ,0.94353 ,4.53537 ,44.50109 
56 ,10.0993 ,0.94534 ,4.50800 ,44.23247 
57 ,10.2754 ,0.94708 ,4.49089 ,44.06457 
58 ,10.4512 ,0.94883 ,4.47035 ,43.86310 
59 ,10.6269 ,0.95060 ,4.46351 ,43.79595 
60 ,10.8033 ,0.95235 ,4.46351 ,43.79595 
61 ,10.9789 ,0.95413 ,4.42586 ,43.42659 
62 ,11.1554 ,0.95584 ,4.39507 ,43.12438 
63 ,11.3316 ,0.95764 ,4.37795 ,42.95649 
64 ,11.5235 ,0.95954 ,4.36427 ,42.82218 
65 ,11.6994 ,0.96133 ,4.34716 ,42.65429 
66 ,11.8756 ,0.96305 ,4.33347 ,42.51997 
67 ,12.0675 ,0.96495 ,4.32320 ,42.41924 
68 ,12.2439 ,0.96674 ,4.31978 ,42.38566 
69 ,12.4360 ,0.96863 ,4.27187 ,41.91556 
70 ,12.6122 ,0.97047 ,4.26502 ,41.84841 
71 ,12.8041 ,0.97235 ,4.24449 ,41.64694 
72 ,12.9802 ,0.97408 ,4.23080 ,41.51262 
73 ,13.1722 ,0.97599 ,4.21369 ,41.34473 
74 ,13.3804 ,0.97805 ,4.17262 ,40.94179 
75 ,13.5565 ,0.97989 ,4.16578 ,40.87464 
76 ,13.7324 ,0.98166 ,4.15551 ,40.77390 
77 ,13.9085 ,0.98335 ,4.14525 ,40.67317 
78 ,14.0845 ,0.98515 ,4.13156 ,40.53885 
79 ,14.2607 ,0.98698 ,4.11445 ,40.37096 
80 ,14.4366 ,0.98869 ,4.09391 ,40.16949 
81 ,14.6288 ,0.99060 ,4.08365 ,40.06876 
82 ,14.8050 ,0.99235 ,4.07338 ,39.96802 
83 ,14.9810 ,0.99413 ,4.05627 ,39.80013 
84 ,15.1571 ,0.99583 ,4.02889 ,39.53150 
85 ,15.3653 ,0.99784 ,4.02205 ,39.46435 
86 ,15.5573 ,0.99988 ,3.98098 ,39.06141 
87 ,15.7334 ,1.00169 ,3.96045 ,38.85994 
88 ,15.9248 ,1.00359 ,3.96729 ,38.92709 
89 ,16.0849 ,1.00526 ,3.93992 ,38.65847 
90 ,16.2449 ,1.00688 ,3.93650 ,38.62489 
91 ,16.4217 ,1.00853 ,3.89885 ,38.25553 
92 ,16.6137 ,1.01048 ,3.88516 ,38.12122 
93 ,16.7896 ,1.01220 ,3.87490 ,38.02048 
94 ,16.9654 ,1.01399 ,3.85094 ,37.78543 
95 ,17.1415 ,1.01568 ,3.84752 ,37.75185 
96 ,17.3180 ,1.01746 ,3.82356 ,37.51681 
97 ,17.4940 ,1.01928 ,3.80303 ,37.31534 
98 ,17.6858 ,1.02116 ,3.80303 ,37.31534 
99 ,17.8622 ,1.02287 ,3.79276 ,37.21460 
100 ,18.0218 ,1.02460 ,3.75512 ,36.84524 
101 ,18.1981 ,1.02631 ,3.74143 ,36.71093 
102 ,18.3744 ,1.02800 ,3.72432 ,36.54303 
103 ,18.5501 ,1.02982 ,3.71405 ,36.44230 
104 ,18.7262 ,1.03151 ,3.70379 ,36.34157 
105 ,18.9023 ,1.03329 ,3.68325 ,36.14010 
106 ,19.0782 ,1.03511 ,3.66957 ,36.00578 
107 ,19.2707 ,1.03688 ,3.65588 ,35.87147 
108 ,19.4788 ,1.03906 ,3.62166 ,35.53569 
109 ,19.6550 ,1.04086 ,3.61481 ,35.46853 
110 ,19.8310 ,1.04265 ,3.60112 ,35.33422 
111 ,20.0072 ,1.04437 ,3.59086 ,35.23348 
112 ,20.1830 ,1.04612 ,3.57375 ,35.06559 
113 ,20.3592 ,1.04785 ,3.53610 ,34.69623 
114 ,20.5351 ,1.04963 ,3.52584 ,34.59549 
115 ,20.7114 ,1.05138 ,3.51557 ,34.49476 
116 ,20.9034 ,1.05320 ,3.51557 ,34.49476 
117 ,21.0955 ,1.05523 ,3.48135 ,34.15898 
118 ,21.2716 ,1.05702 ,3.48135 ,34.15898 
119 ,21.4635 ,1.05899 ,3.45397 ,33.89035 
120 ,21.6397 ,1.06063 ,3.44370 ,33.78961 
121 ,21.8316 ,1.06250 ,3.41633 ,33.52099 
122 ,22.0238 ,1.06451 ,3.41290 ,33.48741 
123 ,22.2156 ,1.06633 ,3.38210 ,33.18520 
124 ,22.3919 ,1.06817 ,3.37868 ,33.15163 
125 ,22.5838 ,1.07014 ,3.35815 ,32.95016 
126 ,22.7602 ,1.07184 ,3.34104 ,32.78227 
127 ,22.9362 ,1.07362 ,3.32393 ,32.61437 
128 ,23.1279 ,1.07555 ,3.32735 ,32.64795 
129 ,23.3044 ,1.07731 ,3.29997 ,32.37933 
130 ,23.4805 ,1.07901 ,3.26917 ,32.07712 
131 ,23.6565 ,1.08084 ,3.26233 ,32.00996 
132 ,23.8165 ,1.08251 ,3.25548 ,31.94281 
133 ,23.9926 ,1.08422 ,3.23837 ,31.77492 
134 ,24.1527 ,1.08588 ,3.23153 ,31.70776 
135 ,24.3284 ,1.08751 ,3.21442 ,31.53987 
136 ,24.5048 ,1.08932 ,3.18704 ,31.27124 
137 ,24.7131 ,1.09136 ,3.18020 ,31.20409 
138 ,24.8889 ,1.09317 ,3.17677 ,31.17051 
139 ,25.0651 ,1.09492 ,3.15282 ,30.93546 
140 ,25.2411 ,1.09661 ,3.10833 ,30.49894 
141 ,25.4172 ,1.09844 ,3.10491 ,30.46536 
142 ,25.5933 ,1.10016 ,3.10833 ,30.49894 
143 ,25.7855 ,1.10213 ,3.09122 ,30.33105 
144 ,25.9614 ,1.10389 ,3.05700 ,29.99527 
145 ,26.1375 ,1.10561 ,3.03647 ,29.79380 
146 ,26.3137 ,1.10736 ,3.02620 ,29.69306 
147 ,26.4896 ,1.10916 ,3.02278 ,29.65948 
148 ,26.6658 ,1.11091 ,3.01935 ,29.62590 
149 ,26.8579 ,1.11280 ,2.98513 ,29.29012 
150 ,27.0500 ,1.11480 ,2.97487 ,29.18939 
151 ,27.2259 ,1.11653 ,2.97487 ,29.18939 
152 ,27.4182 ,1.11844 ,2.94064 ,28.85360 
153 ,27.5941 ,1.12022 ,2.91327 ,28.58498 
154 ,27.7863 ,1.12214 ,2.91669 ,28.61856 
155 ,27.9622 ,1.12385 ,2.90300 ,28.48424 
156 ,28.1380 ,1.12563 ,2.87220 ,28.18204 
157 ,28.3145 ,1.12745 ,2.86193 ,28.08130 
158 ,28.4904 ,1.12917 ,2.85167 ,27.98057 
159 ,28.6666 ,1.13089 ,2.84482 ,27.91341 
160 ,28.8746 ,1.13297 ,2.80718 ,27.54405 
161 ,29.0508 ,1.13475 ,2.79349 ,27.40974 
162 ,29.2270 ,1.13653 ,2.79007 ,27.37616 
163 ,29.4190 ,1.13845 ,2.75927 ,27.07395 
164 ,29.6107 ,1.14029 ,2.76269 ,27.10753 
165 ,29.7871 ,1.14214 ,2.74216 ,26.90606 
166 ,29.9791 ,1.14402 ,2.71136 ,26.60386 
167 ,30.1388 ,1.14573 ,2.70109 ,26.50312 
168 ,30.3153 ,1.14736 ,2.67714 ,26.26807 
169 ,30.5234 ,1.14941 ,2.68740 ,26.36881 
170 ,30.6830 ,1.15119 ,2.64976 ,25.99945 
171 ,30.8595 ,1.15285 ,2.62581 ,25.76440 
172 ,31.0355 ,1.15460 ,2.63265 ,25.83156 
173 ,31.2116 ,1.15632 ,2.62923 ,25.79798 
174 ,31.4197 ,1.15826 ,2.58474 ,25.36146 
175 ,31.5958 ,1.16023 ,2.57789 ,25.29430 
176 ,31.7716 ,1.16201 ,2.57447 ,25.26073 
177 ,31.9477 ,1.16365 ,2.56421 ,25.15999 
178 ,32.1239 ,1.16549 ,2.52998 ,24.82421 
179 ,32.3000 ,1.16725 ,2.51972 ,24.72347 
180 ,32.4921 ,1.16919 ,2.51630 ,24.68989 
181 ,32.6682 ,1.17094 ,2.49918 ,24.52200 
182 ,32.8442 ,1.17269 ,2.48550 ,24.38769 
183 ,33.0524 ,1.17464 ,2.45470 ,24.08549 
184 ,33.2283 ,1.17652 ,2.45812 ,24.11906 
185 ,33.4205 ,1.17832 ,2.42390 ,23.78328 
186 ,33.6126 ,1.18036 ,2.42048 ,23.74970 
187 ,33.8045 ,1.18214 ,2.40336 ,23.58181 
188 ,33.9808 ,1.18405 ,2.37256 ,23.27961 
189 ,34.1889 ,1.18607 ,2.36230 ,23.17887 
190 ,34.3649 ,1.18788 ,2.34177 ,22.97740 
191 ,34.5407 ,1.18961 ,2.32465 ,22.80951 
192 ,34.7170 ,1.19141 ,2.31097 ,22.67520 
193 ,34.8929 ,1.19316 ,2.31097 ,22.67520 
194 ,35.0853 ,1.19505 ,2.27332 ,22.30584 
195 ,35.2773 ,1.19703 ,2.26648 ,22.23868 
196 ,35.4692 ,1.19888 ,2.25621 ,22.13794 
197 ,35.6453 ,1.20063 ,2.24937 ,22.07079 
198 ,35.8534 ,1.20270 ,2.22883 ,21.86932 
199 ,36.0295 ,1.20451 ,2.22541 ,21.83574 
200 ,36.2057 ,1.20627 ,2.19119 ,21.49996 
201 ,36.3978 ,1.20812 ,2.17750 ,21.36564 
202 ,36.5738 ,1.20996 ,2.16039 ,21.19775 
203 ,36.7498 ,1.21186 ,2.13986 ,20.99628 
204 ,36.9258 ,1.21344 ,2.13301 ,20.92912 
205 ,37.1021 ,1.21522 ,2.10906 ,20.69408 
206 ,37.2780 ,1.21700 ,2.10221 ,20.62692 
207 ,37.4543 ,1.21874 ,2.08168 ,20.42545 
208 ,37.6300 ,1.22056 ,2.07484 ,20.35829 
209 ,37.8064 ,1.22226 ,2.05088 ,20.12325 
210 ,37.9823 ,1.22407 ,2.03719 ,19.98893 
211 ,38.1745 ,1.22582 ,2.02350 ,19.85462 
212 ,38.3665 ,1.22789 ,2.00639 ,19.68673 
213 ,38.5426 ,1.22962 ,1.98586 ,19.48526 
214 ,38.7186 ,1.23142 ,1.96533 ,19.28379 
215 ,38.9107 ,1.23330 ,1.97902 ,19.41810 
216 ,39.0864 ,1.23509 ,1.94822 ,19.11590 
217 ,39.2629 ,1.23685 ,1.93453 ,18.98158 
218 ,39.4549 ,1.23879 ,1.93111 ,18.94801 
219 ,39.6471 ,1.24055 ,1.91399 ,18.78011 
220 ,39.8230 ,1.24245 ,1.87977 ,18.44433 
221 ,39.9993 ,1.24426 ,1.86266 ,18.27644 
222 ,40.1912 ,1.24608 ,1.86608 ,18.31002 
223 ,40.3671 ,1.24787 ,1.84897 ,18.14213 
224 ,40.5432 ,1.24961 ,1.81475 ,17.80634 
225 ,40.7193 ,1.25143 ,1.80791 ,17.73919 
226 ,40.9276 ,1.25340 ,1.80791 ,17.73919 
227 ,41.1034 ,1.25526 ,1.79080 ,17.57129 
228 ,41.2796 ,1.25711 ,1.77711 ,17.43698 
229 ,41.4557 ,1.25875 ,1.74631 ,17.13478 
230 ,41.6318 ,1.26051 ,1.74631 ,17.13478 
231 ,41.8079 ,1.26230 ,1.73946 ,17.06762 
232 ,42.0000 ,1.26421 ,1.70524 ,16.73184 
233 ,42.1920 ,1.26611 ,1.70866 ,16.76542 
234 ,42.3520 ,1.26781 ,1.68129 ,16.49679 
235 ,42.5443 ,1.26960 ,1.68471 ,16.53037 
236 ,42.7358 ,1.27150 ,1.66760 ,16.36248 
237 ,42.9122 ,1.27331 ,1.66075 ,16.29532 
238 ,43.0883 ,1.27511 ,1.63338 ,16.02669 
239 ,43.2645 ,1.27683 ,1.60600 ,15.75807 
240 ,43.4566 ,1.27877 ,1.59916 ,15.69091 
241 ,43.6807 ,1.28084 ,1.57862 ,15.48944 
242 ,43.8567 ,1.28275 ,1.58204 ,15.52302 
243 ,44.0328 ,1.28453 ,1.56493 ,15.35513 
244 ,44.2085 ,1.28631 ,1.56493 ,15.35513 
245 ,44.3845 ,1.28800 ,1.53756 ,15.08650 
246 ,44.5610 ,1.28976 ,1.51360 ,14.85145 
247 ,44.7371 ,1.29158 ,1.51360 ,14.85145 
248 ,44.9136 ,1.29336 ,1.50676 ,14.78430 
249 ,45.1054 ,1.29523 ,1.47596 ,14.48209 
250 ,45.2813 ,1.29696 ,1.47596 ,14.48209 
251 ,45.4573 ,1.29889 ,1.47253 ,14.44851 
252 ,45.6334 ,1.30053 ,1.45200 ,14.24704 
253 ,45.8095 ,1.30231 ,1.44516 ,14.17989 
254 ,45.9856 ,1.30405 ,1.41094 ,13.84410 
255 ,46.1619 ,1.30581 ,1.40067 ,13.74337 
256 ,46.3378 ,1.30757 ,1.40067 ,13.74337 
257 ,46.5295 ,1.30950 ,1.40067 ,13.74337 
258 ,46.7059 ,1.31120 ,1.35618 ,13.30685 
259 ,46.8819 ,1.31302 ,1.34934 ,13.23969 
260 ,47.0580 ,1.31479 ,1.34249 ,13.17254 
261 ,47.2337 ,1.31648 ,1.33907 ,13.13896 
262 ,47.4263 ,1.31842 ,1.31512 ,12.90391 
263 ,47.6021 ,1.32021 ,1.30485 ,12.80318 
264 ,47.7783 ,1.32190 ,1.30143 ,12.76960 
265 ,47.9543 ,1.32369 ,1.29116 ,12.66886 
266 ,48.1305 ,1.32544 ,1.28774 ,12.63528 
267 ,48.3064 ,1.32725 ,1.26036 ,12.36666 
268 ,48.4985 ,1.32920 ,1.24325 ,12.19877 
269 ,48.6746 ,1.33089 ,1.25009 ,12.26592 
270 ,48.8508 ,1.33270 ,1.23641 ,12.13161 
271 ,49.0267 ,1.33445 ,1.21245 ,11.89656 
272 ,49.2028 ,1.33620 ,1.19534 ,11.72867 
273 ,49.3949 ,1.33814 ,1.19876 ,11.76225 
274 ,49.5708 ,1.33984 ,1.17823 ,11.56078 
275 ,49.7470 ,1.34161 ,1.14743 ,11.25857 
276 ,49.9230 ,1.34341 ,1.14401 ,11.22500 
277 ,50.1152 ,1.34524 ,1.13716 ,11.15784 
278 ,50.2912 ,1.34706 ,1.12690 ,11.05710 
279 ,50.4674 ,1.34884 ,1.10294 ,10.82206 
280 ,50.6594 ,1.35076 ,1.09267 ,10.72132 
281 ,50.8515 ,1.35267 ,1.07899 ,10.58701 
282 ,51.0277 ,1.35448 ,1.05845 ,10.38554 
283 ,51.2037 ,1.35623 ,1.04819 ,10.28480 
284 ,51.3798 ,1.35793 ,1.05503 ,10.35196 
285 ,51.5717 ,1.35978 ,1.02081 ,10.01618 
286 ,51.7477 ,1.36161 ,1.00712 ,9.88186 
287 ,51.9561 ,1.36353 ,1.01054 ,9.91544 
288 ,52.1482 ,1.36566 ,0.99001 ,9.71397 
289 ,52.3241 ,1.36742 ,0.96948 ,9.51250 
290 ,52.5000 ,1.36917 ,0.96948 ,9.51250 
291 ,52.6760 ,1.37089 ,0.95921 ,9.41177 
292 ,52.8359 ,1.37261 ,0.95237 ,9.34461 
293 ,52.9962 ,1.37426 ,0.94552 ,9.27745 
294 ,53.1726 ,1.37583 ,0.92499 ,9.07598 
295 ,53.3486 ,1.37764 ,0.91472 ,8.97525 
296 ,53.5248 ,1.37940 ,0.88734 ,8.70662 
297 ,53.7168 ,1.38133 ,0.88392 ,8.67305 
298 ,53.8925 ,1.38307 ,0.88734 ,8.70662 
299 ,54.0690 ,1.38485 ,0.84970 ,8.33726 
300 ,54.2446 ,1.38659 ,0.83601 ,8.20295 
301 ,54.4209 ,1.38832 ,0.83943 ,8.23653 
302 ,54.5972 ,1.39010 ,0.82575 ,8.10221 
303 ,54.7732 ,1.39189 ,0.81890 ,8.03506 
304 ,54.9489 ,1.39360 ,0.79152 ,7.76643 
305 ,55.1254 ,1.39541 ,0.77441 ,7.59854 
306 ,55.3175 ,1.39736 ,0.78468 ,7.69927 
307 ,55.4934 ,1.39911 ,0.77784 ,7.63212 
308 ,55.6856 ,1.40089 ,0.74019 ,7.26276 
309 ,55.8615 ,1.40274 ,0.73335 ,7.19560 
310 ,56.0374 ,1.40450 ,0.72650 ,7.12844 
311 ,56.2138 ,1.40626 ,0.71624 ,7.02771 
312 ,56.4219 ,1.40826 ,0.68886 ,6.75908 
313 ,56.6139 ,1.41023 ,0.68886 ,6.75908 
314 ,56.7900 ,1.41201 ,0.66148 ,6.49046 
315 ,56.9821 ,1.41383 ,0.67175 ,6.59119 
316 ,57.1581 ,1.41567 ,0.65121 ,6.38972 
317 ,57.3503 ,1.41762 ,0.64437 ,6.32256 
318 ,57.5264 ,1.41944 ,0.62384 ,6.12109 
319 ,57.7183 ,1.42134 ,0.63068 ,6.18825 
320 ,57.9102 ,1.42323 ,0.59304 ,5.81889 
321 ,58.0864 ,1.42499 ,0.58962 ,5.78531 
322 ,58.2785 ,1.42689 ,0.59304 ,5.81889 
323 ,58.4705 ,1.42886 ,0.57251 ,5.61742 
324 ,58.6469 ,1.43061 ,0.54171 ,5.31522 
325 ,58.8228 ,1.43240 ,0.53828 ,5.28164 
326 ,58.9989 ,1.43413 ,0.53828 ,5.28164 
327 ,59.1747 ,1.43584 ,0.53144 ,5.21448 
328 ,59.3511 ,1.43765 ,0.51433 ,5.04659 
329 ,59.5429 ,1.43957 ,0.49380 ,4.84512 
330 ,59.7193 ,1.44132 ,0.49037 ,4.81154 
331 ,59.9272 ,1.44333 ,0.46642 ,4.57649 
332 ,60.1033 ,1.44515 ,0.45273 ,4.44218 
333 ,60.2635 ,1.44684 ,0.45615 ,4.47576 
334 ,60.4396 ,1.44849 ,0.44588 ,4.37502 
335 ,60.6317 ,1.45044 ,0.43220 ,4.24071 
336 ,60.7916 ,1.45216 ,0.40824 ,4.00566 
337 ,60.9677 ,1.45378 ,0.39113 ,3.83777 
338 ,61.1598 ,1.45565 ,0.39797 ,3.90493 
339 ,61.3519 ,1.45763 ,0.38429 ,3.77061 
340 ,61.5279 ,1.45941 ,0.37060 ,3.63630 
341 ,61.7041 ,1.46119 ,0.35006 ,3.43483 
342 ,61.8961 ,1.46304 ,0.35349 ,3.46841 
343 ,62.0721 ,1.46484 ,0.32953 ,3.23336 
344 ,62.2482 ,1.46659 ,0.31242 ,3.06547 
345 ,62.4242 ,1.46833 ,0.29531 ,2.89758 
346 ,62.6165 ,1.47016 ,0.29873 ,2.93116 
347 ,62.7925 ,1.47207 ,0.29531 ,2.89758 
348 ,62.9846 ,1.47400 ,0.27478 ,2.69611 
349 ,63.1927 ,1.47586 ,0.24055 ,2.36032 
350 ,63.3684 ,1.47779 ,0.23371 ,2.29317 
351 ,63.5448 ,1.47958 ,0.23371 ,2.29317 
352 ,63.7365 ,1.48146 ,0.22344 ,2.19243 
353 ,63.9128 ,1.48324 ,0.22687 ,2.22601 
354 ,64.0887 ,1.48497 ,0.19949 ,1.95738 
355 ,64.2807 ,1.48681 ,0.19264 ,1.89023 
356 ,64.4568 ,1.48867 ,0.18238 ,1.78949 
357 ,64.6330 ,1.49045 ,0.17896 ,1.75592 
358 ,64.8414 ,1.49242 ,0.14816 ,1.45371 
359 ,65.0331 ,1.49440 ,0.14816 ,1.45371 
360 ,65.2415 ,1.49644 ,0.13105 ,1.28582 
361 ,65.4334 ,1.49841 ,0.10709 ,1.05077 
362 ,65.6254 ,1.50035 ,0.09340 ,0.91646 
363 ,65.8177 ,1.50226 ,0.10025 ,0.98361 
364 ,65.9938 ,1.50404 ,0.08998 ,0.88288 
365 ,66.1698 ,1.50579 ,0.05918 ,0.58067 
366 ,66.3460 ,1.50754 ,0.05576 ,0.54710 
367 ,66.5379 ,1.50949 ,0.05576 ,0.54710 
368 ,66.7301 ,1.51140 ,0.03180 ,0.31205 
369 ,66.9222 ,1.51329 ,0.02838 ,0.27847 
370 ,67.0983 ,1.51511 ,0.03865 ,0.37920 
371 ,67.2903 ,1.51700 ,-0.01269 ,-0.12447 
372 ,67.4825 ,1.51888 ,-0.00242 ,-0.02373 
373 ,67.6580 ,1.52073 ,-0.00584 ,-0.05731 
374 ,67.8346 ,1.52243 ,-0.02637 ,-0.25878 
375 ,68.0266 ,1.52437 ,-0.04348 ,-0.42667 
376 ,68.2026 ,1.52612 ,-0.05033 ,-0.49383 
377 ,68.3786 ,1.52781 ,-0.05033 ,-0.49383 
378 ,68.5548 ,1.52966 ,-0.06744 ,-0.66172 
379 ,68.7468 ,1.53157 ,-0.08455 ,-0.82961 
380 ,68.9231 ,1.53335 ,-0.08455 ,-0.82961 
381 ,69.1152 ,1.53513 ,-0.10508 ,-1.03108 
382 ,69.3070 ,1.53712 ,-0.13931 ,-1.36687 
383 ,69.4833 ,1.53893 ,-0.13246 ,-1.29971 
384 ,69.6749 ,1.54081 ,-0.14957 ,-1.46760 
385 ,69.8514 ,1.54265 ,-0.15642 ,-1.53476 
386 ,70.0752 ,1.54472 ,-0.17011 ,-1.66907 
387 ,70.2515 ,1.54655 ,-0.19406 ,-1.90412 
388 ,70.4275 ,1.54836 ,-0.20433 ,-2.00485 
389 ,70.6036 ,1.55011 ,-0.19064 ,-1.87054 
390 ,70.7794 ,1.55185 ,-0.20433 ,-2.00485 
391 ,70.9559 ,1.55364 ,-0.22486 ,-2.20632 
392 ,71.1639 ,1.55561 ,-0.24197 ,-2.37422 
393 ,71.3560 ,1.55759 ,-0.24539 ,-2.40779 
394 ,71.5480 ,1.55960 ,-0.25566 ,-2.50853 
395 ,71.7241 ,1.56132 ,-0.25566 ,-2.50853 
396 ,71.9002 ,1.56311 ,-0.27277 ,-2.67642 
397 ,72.0763 ,1.56480 ,-0.28646 ,-2.81073 
398 ,72.2523 ,1.56661 ,-0.30357 ,-2.97863 
399 ,72.4285 ,1.56834 ,-0.30699 ,-3.01220 
400 ,72.6205 ,1.57028 ,-0.30015 ,-2.94505 
401 ,72.8127 ,1.57213 ,-0.32410 ,-3.18010 
402 ,73.0046 ,1.57413 ,-0.33095 ,-3.24725 
403 ,73.1967 ,1.57601 ,-0.35490 ,-3.48230 
404 ,73.3887 ,1.57796 ,-0.36517 ,-3.58303 
405 ,73.5648 ,1.57974 ,-0.38570 ,-3.78450 
406 ,73.7410 ,1.58148 ,-0.37886 ,-3.71735 
407 ,73.9168 ,1.58328 ,-0.39939 ,-3.91882 
408 ,74.0931 ,1.58503 ,-0.43019 ,-4.22102 
409 ,74.2848 ,1.58693 ,-0.41992 ,-4.12029 
410 ,74.4611 ,1.58869 ,-0.42335 ,-4.15387 
411 ,74.6372 ,1.59046 ,-0.44388 ,-4.35534 
412 ,74.8130 ,1.59215 ,-0.46099 ,-4.52323 
413 ,74.9889 ,1.59397 ,-0.47810 ,-4.69112 
414 ,75.1649 ,1.59569 ,-0.47810 ,-4.69112 
415 ,75.3250 ,1.59742 ,-0.47468 ,-4.65754 
416 ,75.5012 ,1.59904 ,-0.48837 ,-4.79185 
417 ,75.6937 ,1.60088 ,-0.50890 ,-4.99332 
418 ,75.9018 ,1.60299 ,-0.51232 ,-5.02690 
419 ,76.0775 ,1.60484 ,-0.51574 ,-5.06048 
420 ,76.2540 ,1.60663 ,-0.54997 ,-5.39626 
421 ,76.4455 ,1.60849 ,-0.53970 ,-5.29553 
422 ,76.6215 ,1.61028 ,-0.55339 ,-5.42984 
423 ,76.7980 ,1.61204 ,-0.57734 ,-5.66489 
424 ,77.0061 ,1.61414 ,-0.56708 ,-5.56415 
425 ,77.2302 ,1.61625 ,-0.59788 ,-5.86636 
426 ,77.4064 ,1.61811 ,-0.59103 ,-5.79920 
427 ,77.5985 ,1.62003 ,-0.61156 ,-6.00067 
428 ,77.7744 ,1.62181 ,-0.63552 ,-6.23572 
429 ,77.9506 ,1.62353 ,-0.64579 ,-6.33646 
430 ,78.1265 ,1.62534 ,-0.64236 ,-6.30288 
431 ,78.3187 ,1.62719 ,-0.65947 ,-6.47077 
432 ,78.4947 ,1.62895 ,-0.67659 ,-6.63866 
433 ,78.6708 ,1.63074 ,-0.68343 ,-6.70582 
434 ,78.8469 ,1.63246 ,-0.68001 ,-6.67224 
435 ,79.0230 ,1.63426 ,-0.69370 ,-6.80655 
436 ,79.1992 ,1.63608 ,-0.70054 ,-6.87371 
437 ,79.3751 ,1.63775 ,-0.72792 ,-7.14233 
438 ,79.5512 ,1.63955 ,-0.74161 ,-7.27665 
439 ,79.7274 ,1.64135 ,-0.72792 ,-7.14233 
440 ,79.9194 ,1.64325 ,-0.74845 ,-7.34380 
441 ,80.1114 ,1.64511 ,-0.75187 ,-7.37738 
442 ,80.2872 ,1.64689 ,-0.76214 ,-7.47812 
443 ,80.4634 ,1.64871 ,-0.77241 ,-7.57885 
444 ,80.6555 ,1.65059 ,-0.79978 ,-7.84748 
445 ,80.8317 ,1.65234 ,-0.81005 ,-7.94821 
446 ,81.0077 ,1.65417 ,-0.79636 ,-7.81390 
447 ,81.1838 ,1.65584 ,-0.80663 ,-7.91464 
448 ,81.3435 ,1.65761 ,-0.84085 ,-8.25042 
449 ,81.5201 ,1.65925 ,-0.83058 ,-8.14968 
450 ,81.7123 ,1.66106 ,-0.85112 ,-8.35115 
451 ,81.8881 ,1.66298 ,-0.84427 ,-8.28400 
452 ,82.0638 ,1.66472 ,-0.85112 ,-8.35115 
453 ,82.2563 ,1.66647 ,-0.87507 ,-8.58620 
454 ,82.4483 ,1.66851 ,-0.88876 ,-8.72051 
455 ,82.6245 ,1.67030 ,-0.88876 ,-8.72051 
456 ,82.8004 ,1.67206 ,-0.90929 ,-8.92198 
457 ,82.9766 ,1.67381 ,-0.92983 ,-9.12345 
458 ,83.1525 ,1.67550 ,-0.93667 ,-9.19061 
459 ,83.3287 ,1.67730 ,-0.93325 ,-9.15703 
460 ,83.4882 ,1.67903 ,-0.93667 ,-9.19061 
461 ,83.6644 ,1.68071 ,-0.95036 ,-9.32492 
462 ,83.8410 ,1.68244 ,-0.96405 ,-9.45924 
463 ,84.0330 ,1.68438 ,-0.98116 ,-9.62713 
