Data stamp = , 30-03-2022 21:42:42 419

Calibration Values: 
Slope = , 26.54 , g/V 
Offset Voltage at no contact = , -0.501760 , V 

No , Time , Stage Position ,   Mass , Force 
   ,  (s) ,      (mm)      ,   (g)  , (mN)  

1 ,0.0000 ,0.84952 ,5.36012 ,52.59346 
2 ,0.2089 ,0.84959 ,5.36696 ,52.66062 
3 ,0.4492 ,0.85022 ,5.36696 ,52.66062 
4 ,0.6413 ,0.85133 ,5.38065 ,52.79493 
5 ,0.8175 ,0.85258 ,5.36012 ,52.59346 
6 ,0.9936 ,0.85422 ,5.35327 ,52.52631 
7 ,1.1856 ,0.85607 ,5.38065 ,52.79493 
8 ,1.3457 ,0.85777 ,5.38407 ,52.82851 
9 ,1.5377 ,0.85964 ,5.34301 ,52.42557 
10 ,1.6978 ,0.86137 ,5.33274 ,52.32484 
11 ,1.8740 ,0.86308 ,5.30878 ,52.08979 
12 ,2.0819 ,0.86504 ,5.29167 ,51.92190 
13 ,2.2581 ,0.86688 ,5.29167 ,51.92190 
14 ,2.4500 ,0.86875 ,5.28141 ,51.82116 
15 ,2.6265 ,0.87051 ,5.26430 ,51.65327 
16 ,2.8021 ,0.87233 ,5.25403 ,51.55254 
17 ,2.9944 ,0.87421 ,5.22323 ,51.25033 
18 ,3.1704 ,0.87599 ,5.21981 ,51.21675 
19 ,3.3622 ,0.87789 ,5.20612 ,51.08244 
20 ,3.5386 ,0.87969 ,5.19927 ,51.01528 
21 ,3.7308 ,0.88157 ,5.16163 ,50.64592 
22 ,3.9068 ,0.88340 ,5.15821 ,50.61234 
23 ,4.0989 ,0.88528 ,5.13768 ,50.41087 
24 ,4.2750 ,0.88705 ,5.12056 ,50.24298 
25 ,4.4506 ,0.88880 ,5.09661 ,50.00793 
26 ,4.6271 ,0.89057 ,5.10345 ,50.07509 
27 ,4.8190 ,0.89245 ,5.07265 ,49.77289 
28 ,4.9952 ,0.89425 ,5.04870 ,49.53784 
29 ,5.1552 ,0.89595 ,5.04185 ,49.47068 
30 ,5.3314 ,0.89759 ,5.02474 ,49.30279 
31 ,5.5070 ,0.89937 ,5.01448 ,49.20205 
32 ,5.6835 ,0.90109 ,5.00763 ,49.13490 
33 ,5.8751 ,0.90300 ,4.98368 ,48.89985 
34 ,6.0512 ,0.90475 ,4.95972 ,48.66480 
35 ,6.2274 ,0.90651 ,4.94946 ,48.56407 
36 ,6.4035 ,0.90831 ,4.94946 ,48.56407 
37 ,6.6115 ,0.91037 ,4.90497 ,48.12755 
38 ,6.8040 ,0.91220 ,4.90155 ,48.09397 
39 ,6.9799 ,0.91409 ,4.88786 ,47.95966 
40 ,7.1561 ,0.91584 ,4.85706 ,47.65745 
41 ,7.3322 ,0.91762 ,4.82968 ,47.38883 
42 ,7.5082 ,0.91935 ,4.81941 ,47.28809 
43 ,7.6842 ,0.92122 ,4.81941 ,47.28809 
44 ,7.8604 ,0.92281 ,4.80573 ,47.15378 
45 ,8.0363 ,0.92462 ,4.76124 ,46.71726 
46 ,8.2123 ,0.92635 ,4.74070 ,46.51579 
47 ,8.3884 ,0.92813 ,4.71333 ,46.24716 
48 ,8.5646 ,0.92991 ,4.71333 ,46.24716 
49 ,8.7243 ,0.93163 ,4.69279 ,46.04569 
50 ,8.9006 ,0.93326 ,4.67568 ,45.87780 
51 ,9.0929 ,0.93507 ,4.65173 ,45.64275 
52 ,9.2849 ,0.93712 ,4.62435 ,45.37413 
53 ,9.4610 ,0.93887 ,4.61408 ,45.27339 
54 ,9.6370 ,0.94062 ,4.61066 ,45.23981 
55 ,9.7971 ,0.94232 ,4.57302 ,44.87045 
56 ,9.9731 ,0.94402 ,4.56960 ,44.83688 
57 ,10.1492 ,0.94578 ,4.53537 ,44.50109 
58 ,10.3254 ,0.94751 ,4.52511 ,44.40036 
59 ,10.5013 ,0.94932 ,4.52169 ,44.36678 
60 ,10.6933 ,0.95106 ,4.49773 ,44.13173 
61 ,10.8854 ,0.95304 ,4.48746 ,44.03100 
62 ,11.0617 ,0.95482 ,4.46009 ,43.76237 
63 ,11.2377 ,0.95665 ,4.43955 ,43.56090 
64 ,11.4138 ,0.95842 ,4.41560 ,43.32585 
65 ,11.6058 ,0.96033 ,4.38822 ,43.05723 
66 ,11.7818 ,0.96203 ,4.38480 ,43.02365 
67 ,11.9581 ,0.96384 ,4.37795 ,42.95649 
68 ,12.1340 ,0.96562 ,4.34373 ,42.62071 
69 ,12.3101 ,0.96737 ,4.32662 ,42.45282 
70 ,12.5022 ,0.96923 ,4.31293 ,42.31850 
71 ,12.6943 ,0.97111 ,4.28556 ,42.04988 
72 ,12.8699 ,0.97293 ,4.26160 ,41.81483 
73 ,13.0460 ,0.97470 ,4.24791 ,41.68051 
74 ,13.2225 ,0.97646 ,4.24791 ,41.68051 
75 ,13.3984 ,0.97822 ,4.23765 ,41.57978 
76 ,13.5905 ,0.98008 ,4.20000 ,41.21042 
77 ,13.7667 ,0.98203 ,4.18974 ,41.10968 
78 ,13.9424 ,0.98368 ,4.15894 ,40.80748 
79 ,14.1188 ,0.98545 ,4.15894 ,40.80748 
80 ,14.2949 ,0.98720 ,4.14525 ,40.67317 
81 ,14.4871 ,0.98904 ,4.11445 ,40.37096 
82 ,14.6630 ,0.99092 ,4.10076 ,40.23665 
83 ,14.8392 ,0.99264 ,4.08365 ,40.06876 
84 ,15.0311 ,0.99452 ,4.06996 ,39.93444 
85 ,15.2072 ,0.99631 ,4.03916 ,39.63224 
86 ,15.3834 ,0.99805 ,4.03232 ,39.56508 
87 ,15.5754 ,0.99990 ,4.01520 ,39.39719 
88 ,15.7515 ,1.00176 ,3.99809 ,39.22930 
89 ,15.9436 ,1.00360 ,3.97756 ,39.02783 
90 ,16.1517 ,1.00558 ,3.96045 ,38.85994 
91 ,16.3436 ,1.00762 ,3.93650 ,38.62489 
92 ,16.5200 ,1.00943 ,3.92965 ,38.55773 
93 ,16.6956 ,1.01119 ,3.91938 ,38.45700 
94 ,16.8720 ,1.01299 ,3.90227 ,38.28911 
95 ,17.0638 ,1.01488 ,3.86805 ,37.95332 
96 ,17.2400 ,1.01673 ,3.86121 ,37.88617 
97 ,17.4318 ,1.01851 ,3.83383 ,37.61754 
98 ,17.6079 ,1.02032 ,3.82699 ,37.55038 
99 ,17.7844 ,1.02204 ,3.79276 ,37.21460 
100 ,17.9762 ,1.02406 ,3.78934 ,37.18102 
101 ,18.1524 ,1.02577 ,3.78250 ,37.11387 
102 ,18.3446 ,1.02765 ,3.74828 ,36.77808 
103 ,18.5366 ,1.02960 ,3.74143 ,36.71093 
104 ,18.7126 ,1.03134 ,3.72774 ,36.57661 
105 ,18.8888 ,1.03314 ,3.70037 ,36.30799 
106 ,19.0645 ,1.03488 ,3.69694 ,36.27441 
107 ,19.2407 ,1.03667 ,3.66272 ,35.93863 
108 ,19.4331 ,1.03854 ,3.65588 ,35.87147 
109 ,19.6090 ,1.04033 ,3.64219 ,35.73716 
110 ,19.8012 ,1.04214 ,3.62166 ,35.53569 
111 ,19.9931 ,1.04415 ,3.61481 ,35.46853 
112 ,20.1690 ,1.04590 ,3.58401 ,35.16632 
113 ,20.3453 ,1.04763 ,3.56348 ,34.96485 
114 ,20.5213 ,1.04943 ,3.56006 ,34.93128 
115 ,20.6976 ,1.05117 ,3.54979 ,34.83054 
116 ,20.8895 ,1.05308 ,3.52584 ,34.59549 
117 ,21.0655 ,1.05489 ,3.50188 ,34.36045 
118 ,21.2577 ,1.05679 ,3.49846 ,34.32687 
119 ,21.4177 ,1.05851 ,3.48819 ,34.22613 
120 ,21.5939 ,1.06014 ,3.46081 ,33.95751 
121 ,21.7698 ,1.06187 ,3.45397 ,33.89035 
122 ,21.9461 ,1.06370 ,3.43344 ,33.68888 
123 ,22.1222 ,1.06546 ,3.41633 ,33.52099 
124 ,22.2981 ,1.06721 ,3.38895 ,33.25236 
125 ,22.4898 ,1.06915 ,3.40264 ,33.38667 
126 ,22.6663 ,1.07087 ,3.36499 ,33.01731 
127 ,22.8422 ,1.07264 ,3.34104 ,32.78227 
128 ,23.0345 ,1.07455 ,3.32735 ,32.64795 
129 ,23.2105 ,1.07632 ,3.32735 ,32.64795 
130 ,23.3866 ,1.07807 ,3.28971 ,32.27859 
131 ,23.5626 ,1.07980 ,3.26917 ,32.07712 
132 ,23.7387 ,1.08156 ,3.27602 ,32.14428 
133 ,23.9145 ,1.08337 ,3.25548 ,31.94281 
134 ,24.0910 ,1.08506 ,3.23837 ,31.77492 
135 ,24.2671 ,1.08688 ,3.21784 ,31.57345 
136 ,24.4432 ,1.08866 ,3.20073 ,31.40555 
137 ,24.6191 ,1.09051 ,3.19731 ,31.37198 
138 ,24.7950 ,1.09213 ,3.17677 ,31.17051 
139 ,24.9713 ,1.09394 ,3.16993 ,31.10335 
140 ,25.1472 ,1.09567 ,3.14255 ,30.83472 
141 ,25.3234 ,1.09744 ,3.11518 ,30.56610 
142 ,25.4996 ,1.09916 ,3.11175 ,30.53252 
143 ,25.6756 ,1.10105 ,3.10149 ,30.43178 
144 ,25.8518 ,1.10276 ,3.09464 ,30.36463 
145 ,26.0277 ,1.10446 ,3.08095 ,30.23031 
146 ,26.2035 ,1.10620 ,3.03989 ,29.82737 
147 ,26.3800 ,1.10795 ,3.02962 ,29.72664 
148 ,26.5559 ,1.10974 ,3.01935 ,29.62590 
149 ,26.7318 ,1.11153 ,3.00909 ,29.52517 
150 ,26.9080 ,1.11327 ,2.99882 ,29.42444 
151 ,27.0838 ,1.11504 ,2.97487 ,29.18939 
152 ,27.2442 ,1.11674 ,2.95776 ,29.02150 
153 ,27.4363 ,1.11851 ,2.95091 ,28.95434 
154 ,27.6124 ,1.12032 ,2.94749 ,28.92076 
155 ,27.7883 ,1.12206 ,2.91327 ,28.58498 
156 ,27.9804 ,1.12391 ,2.89958 ,28.45066 
157 ,28.1566 ,1.12577 ,2.88589 ,28.31635 
158 ,28.3484 ,1.12767 ,2.87905 ,28.24919 
159 ,28.5249 ,1.12943 ,2.85167 ,27.98057 
160 ,28.7168 ,1.13131 ,2.84140 ,27.87983 
161 ,28.8930 ,1.13310 ,2.82429 ,27.71194 
162 ,29.0850 ,1.13506 ,2.80034 ,27.47689 
163 ,29.2611 ,1.13684 ,2.77980 ,27.27542 
164 ,29.4532 ,1.13876 ,2.77980 ,27.27542 
165 ,29.6293 ,1.14051 ,2.76269 ,27.10753 
166 ,29.8209 ,1.14232 ,2.74558 ,26.93964 
167 ,30.0135 ,1.14424 ,2.72163 ,26.70459 
168 ,30.2052 ,1.14627 ,2.71820 ,26.67101 
169 ,30.3815 ,1.14796 ,2.69083 ,26.40239 
170 ,30.5576 ,1.14976 ,2.66687 ,26.16734 
171 ,30.7338 ,1.15156 ,2.65318 ,26.03303 
172 ,30.9095 ,1.15323 ,2.66345 ,26.13376 
173 ,31.0858 ,1.15500 ,2.64976 ,25.99945 
174 ,31.2618 ,1.15677 ,2.62923 ,25.79798 
175 ,31.4540 ,1.15863 ,2.60869 ,25.59651 
176 ,31.6461 ,1.16064 ,2.59843 ,25.49577 
177 ,31.8222 ,1.16244 ,2.57105 ,25.22715 
178 ,31.9980 ,1.16414 ,2.54025 ,24.92494 
179 ,32.1742 ,1.16590 ,2.54367 ,24.95852 
180 ,32.3664 ,1.16781 ,2.53683 ,24.89136 
181 ,32.5583 ,1.16978 ,2.49918 ,24.52200 
182 ,32.7343 ,1.17147 ,2.48892 ,24.42127 
183 ,32.9268 ,1.17335 ,2.49918 ,24.52200 
184 ,33.1345 ,1.17542 ,2.46839 ,24.21980 
185 ,33.3269 ,1.17737 ,2.47181 ,24.25338 
186 ,33.5188 ,1.17926 ,2.43416 ,23.88402 
187 ,33.6947 ,1.18112 ,2.41363 ,23.68255 
188 ,33.8709 ,1.18288 ,2.41021 ,23.64897 
189 ,34.0473 ,1.18460 ,2.41021 ,23.64897 
190 ,34.2391 ,1.18648 ,2.36914 ,23.24603 
191 ,34.4309 ,1.18837 ,2.35888 ,23.14529 
192 ,34.6072 ,1.19020 ,2.35888 ,23.14529 
193 ,34.7992 ,1.19209 ,2.34177 ,22.97740 
194 ,34.9753 ,1.19394 ,2.31097 ,22.67520 
195 ,35.1513 ,1.19571 ,2.30412 ,22.60804 
196 ,35.3275 ,1.19741 ,2.31097 ,22.67520 
197 ,35.5032 ,1.19920 ,2.28359 ,22.40657 
198 ,35.6796 ,1.20092 ,2.25963 ,22.17152 
199 ,35.8558 ,1.20278 ,2.24937 ,22.07079 
200 ,36.0318 ,1.20448 ,2.23568 ,21.93647 
201 ,36.2077 ,1.20620 ,2.22541 ,21.83574 
202 ,36.3837 ,1.20801 ,2.21515 ,21.73500 
203 ,36.5760 ,1.20996 ,2.18435 ,21.43280 
204 ,36.7680 ,1.21186 ,2.17750 ,21.36564 
205 ,36.9439 ,1.21363 ,2.17066 ,21.29849 
206 ,37.1201 ,1.21535 ,2.16723 ,21.26491 
207 ,37.3123 ,1.21725 ,2.13644 ,20.96270 
208 ,37.5043 ,1.21919 ,2.13986 ,20.99628 
209 ,37.6805 ,1.22098 ,2.11932 ,20.79481 
210 ,37.8565 ,1.22271 ,2.08852 ,20.49261 
211 ,38.0486 ,1.22458 ,2.09537 ,20.55976 
212 ,38.2246 ,1.22645 ,2.07484 ,20.35829 
213 ,38.4168 ,1.22830 ,2.05773 ,20.19040 
214 ,38.6088 ,1.23025 ,2.04061 ,20.02251 
215 ,38.7848 ,1.23193 ,2.03719 ,19.98893 
216 ,38.9609 ,1.23370 ,2.03035 ,19.92178 
217 ,39.1368 ,1.23553 ,1.99613 ,19.58599 
218 ,39.3290 ,1.23738 ,1.99613 ,19.58599 
219 ,39.5052 ,1.23918 ,1.98586 ,19.48526 
220 ,39.6972 ,1.24111 ,1.95848 ,19.21663 
221 ,39.8734 ,1.24289 ,1.95506 ,19.18305 
222 ,40.0494 ,1.24467 ,1.92426 ,18.88085 
223 ,40.2256 ,1.24644 ,1.91399 ,18.78011 
224 ,40.4015 ,1.24824 ,1.90373 ,18.67938 
225 ,40.5775 ,1.24991 ,1.89346 ,18.57864 
226 ,40.7538 ,1.25166 ,1.86608 ,18.31002 
227 ,40.9297 ,1.25341 ,1.85924 ,18.24286 
228 ,41.1057 ,1.25513 ,1.85582 ,18.20928 
229 ,41.2820 ,1.25697 ,1.84555 ,18.10855 
230 ,41.4740 ,1.25877 ,1.82160 ,17.87350 
231 ,41.6500 ,1.26065 ,1.80106 ,17.67203 
232 ,41.8263 ,1.26237 ,1.81133 ,17.77276 
233 ,42.0182 ,1.26431 ,1.79422 ,17.60487 
234 ,42.2103 ,1.26627 ,1.76684 ,17.33625 
235 ,42.4024 ,1.26806 ,1.75315 ,17.20193 
236 ,42.5944 ,1.26998 ,1.72920 ,16.96689 
237 ,42.7705 ,1.27188 ,1.72578 ,16.93331 
238 ,42.9626 ,1.27379 ,1.71551 ,16.83257 
239 ,43.1384 ,1.27552 ,1.70524 ,16.73184 
240 ,43.3145 ,1.27729 ,1.69840 ,16.66468 
241 ,43.5064 ,1.27922 ,1.66760 ,16.36248 
242 ,43.6987 ,1.28105 ,1.64707 ,16.16101 
243 ,43.8750 ,1.28288 ,1.63680 ,16.06027 
244 ,44.0829 ,1.28489 ,1.63680 ,16.06027 
245 ,44.2592 ,1.28669 ,1.62311 ,15.92596 
246 ,44.4352 ,1.28854 ,1.60942 ,15.79164 
247 ,44.6111 ,1.29023 ,1.57520 ,15.45586 
248 ,44.7874 ,1.29199 ,1.57862 ,15.48944 
249 ,44.9634 ,1.29378 ,1.56151 ,15.32155 
250 ,45.1394 ,1.29559 ,1.54782 ,15.18724 
251 ,45.3156 ,1.29728 ,1.54098 ,15.12008 
252 ,45.4916 ,1.29905 ,1.51702 ,14.88503 
253 ,45.6677 ,1.30080 ,1.50676 ,14.78430 
254 ,45.8434 ,1.30253 ,1.51018 ,14.81787 
255 ,46.0196 ,1.30432 ,1.49991 ,14.71714 
256 ,46.1959 ,1.30606 ,1.48280 ,14.54925 
257 ,46.3879 ,1.30794 ,1.44516 ,14.17989 
258 ,46.5640 ,1.30975 ,1.43831 ,14.11273 
259 ,46.7400 ,1.31149 ,1.43489 ,14.07915 
260 ,46.9158 ,1.31326 ,1.43147 ,14.04557 
261 ,47.0922 ,1.31502 ,1.41436 ,13.87768 
262 ,47.2844 ,1.31692 ,1.39383 ,13.67621 
263 ,47.4604 ,1.31874 ,1.37671 ,13.50832 
264 ,47.6364 ,1.32050 ,1.38014 ,13.54190 
265 ,47.7964 ,1.32219 ,1.35960 ,13.34043 
266 ,47.9725 ,1.32378 ,1.34934 ,13.23969 
267 ,48.1486 ,1.32557 ,1.33565 ,13.10538 
268 ,48.3246 ,1.32738 ,1.30827 ,12.83675 
269 ,48.5007 ,1.32907 ,1.31169 ,12.87033 
270 ,48.6767 ,1.33091 ,1.29800 ,12.73602 
271 ,48.8368 ,1.33259 ,1.28432 ,12.60171 
272 ,49.0130 ,1.33423 ,1.28774 ,12.63528 
273 ,49.1890 ,1.33605 ,1.26378 ,12.40024 
274 ,49.3811 ,1.33786 ,1.24325 ,12.19877 
275 ,49.5731 ,1.33976 ,1.24325 ,12.19877 
276 ,49.7490 ,1.34165 ,1.21929 ,11.96372 
277 ,49.9412 ,1.34347 ,1.20903 ,11.86298 
278 ,50.1334 ,1.34543 ,1.19192 ,11.69509 
279 ,50.3095 ,1.34720 ,1.18165 ,11.59436 
280 ,50.5014 ,1.34911 ,1.15770 ,11.35931 
281 ,50.6936 ,1.35091 ,1.15427 ,11.32573 
282 ,50.8852 ,1.35299 ,1.13032 ,11.09068 
283 ,51.0616 ,1.35468 ,1.12005 ,10.98995 
284 ,51.2378 ,1.35650 ,1.10636 ,10.85563 
285 ,51.4459 ,1.35838 ,1.08925 ,10.68774 
286 ,51.6219 ,1.36035 ,1.06872 ,10.48627 
287 ,51.8139 ,1.36212 ,1.07214 ,10.51985 
288 ,52.0061 ,1.36411 ,1.03450 ,10.15049 
289 ,52.1820 ,1.36589 ,1.02765 ,10.08333 
290 ,52.3743 ,1.36784 ,1.03450 ,10.15049 
291 ,52.5503 ,1.36962 ,1.01396 ,9.94902 
292 ,52.7268 ,1.37133 ,0.97974 ,9.61324 
293 ,52.9025 ,1.37316 ,0.97974 ,9.61324 
294 ,53.0786 ,1.37496 ,0.97974 ,9.61324 
295 ,53.2705 ,1.37668 ,0.96948 ,9.51250 
296 ,53.4626 ,1.37870 ,0.92841 ,9.10956 
297 ,53.6387 ,1.38047 ,0.93525 ,9.17672 
298 ,53.8149 ,1.38219 ,0.92841 ,9.10956 
299 ,54.0068 ,1.38407 ,0.93183 ,9.14314 
300 ,54.1991 ,1.38606 ,0.90103 ,8.84094 
301 ,54.4071 ,1.38812 ,0.88392 ,8.67305 
302 ,54.5832 ,1.38990 ,0.85997 ,8.43800 
303 ,54.7593 ,1.39170 ,0.85997 ,8.43800 
304 ,54.9352 ,1.39347 ,0.84970 ,8.33726 
305 ,55.1109 ,1.39520 ,0.84628 ,8.30368 
306 ,55.2872 ,1.39689 ,0.81890 ,8.03506 
307 ,55.4636 ,1.39871 ,0.80863 ,7.93432 
308 ,55.6554 ,1.40057 ,0.80863 ,7.93432 
309 ,55.8477 ,1.40255 ,0.79495 ,7.80001 
310 ,56.0236 ,1.40433 ,0.77441 ,7.59854 
311 ,56.1838 ,1.40600 ,0.76072 ,7.46423 
312 ,56.3599 ,1.40766 ,0.74361 ,7.29633 
313 ,56.5360 ,1.40943 ,0.74019 ,7.26276 
314 ,56.7121 ,1.41122 ,0.72308 ,7.09486 
315 ,56.8881 ,1.41297 ,0.71966 ,7.06129 
316 ,57.0642 ,1.41473 ,0.70597 ,6.92697 
317 ,57.2401 ,1.41642 ,0.68886 ,6.75908 
318 ,57.4163 ,1.41820 ,0.68544 ,6.72550 
319 ,57.5922 ,1.41997 ,0.66833 ,6.55761 
320 ,57.7684 ,1.42173 ,0.66490 ,6.52403 
321 ,57.9444 ,1.42351 ,0.63410 ,6.22183 
322 ,58.1045 ,1.42521 ,0.62384 ,6.12109 
323 ,58.2804 ,1.42683 ,0.61357 ,6.02036 
324 ,58.4568 ,1.42864 ,0.59988 ,5.88605 
325 ,58.6327 ,1.43037 ,0.60330 ,5.91962 
326 ,58.8088 ,1.43214 ,0.59646 ,5.85247 
327 ,59.0010 ,1.43403 ,0.56908 ,5.58384 
328 ,59.1770 ,1.43587 ,0.55882 ,5.48311 
329 ,59.3530 ,1.43757 ,0.56224 ,5.51668 
330 ,59.5612 ,1.43964 ,0.53486 ,5.24806 
331 ,59.7372 ,1.44148 ,0.52117 ,5.11375 
332 ,59.9293 ,1.44336 ,0.52459 ,5.14732 
333 ,60.1054 ,1.44508 ,0.50748 ,4.97943 
334 ,60.2971 ,1.44699 ,0.49037 ,4.81154 
335 ,60.4736 ,1.44880 ,0.48011 ,4.71081 
336 ,60.6656 ,1.45063 ,0.47326 ,4.64365 
337 ,60.8416 ,1.45248 ,0.44931 ,4.40860 
338 ,61.0337 ,1.45429 ,0.43562 ,4.27429 
339 ,61.2094 ,1.45617 ,0.45273 ,4.44218 
340 ,61.3856 ,1.45789 ,0.41851 ,4.10640 
341 ,61.5780 ,1.45983 ,0.40824 ,4.00566 
342 ,61.7701 ,1.46178 ,0.40482 ,3.97208 
343 ,61.9460 ,1.46349 ,0.40140 ,3.93850 
344 ,62.1222 ,1.46530 ,0.36375 ,3.56914 
345 ,62.2983 ,1.46699 ,0.35006 ,3.43483 
346 ,62.4743 ,1.46879 ,0.34664 ,3.40125 
347 ,62.6505 ,1.47057 ,0.35006 ,3.43483 
348 ,62.8425 ,1.47238 ,0.32611 ,3.19978 
349 ,63.0186 ,1.47427 ,0.30558 ,2.99831 
350 ,63.1947 ,1.47601 ,0.29189 ,2.86400 
351 ,63.3706 ,1.47776 ,0.29189 ,2.86400 
352 ,63.5627 ,1.47968 ,0.28847 ,2.83042 
353 ,63.7388 ,1.48140 ,0.25424 ,2.49464 
354 ,63.9150 ,1.48321 ,0.24055 ,2.36032 
355 ,64.0910 ,1.48494 ,0.25424 ,2.49464 
356 ,64.2671 ,1.48684 ,0.24055 ,2.36032 
357 ,64.4432 ,1.48851 ,0.22344 ,2.19243 
358 ,64.6191 ,1.49026 ,0.21318 ,2.09170 
359 ,64.7793 ,1.49195 ,0.19949 ,1.95738 
360 ,64.9715 ,1.49366 ,0.20291 ,1.99096 
361 ,65.1636 ,1.49567 ,0.18922 ,1.85665 
362 ,65.3393 ,1.49743 ,0.16527 ,1.62160 
363 ,65.5157 ,1.49921 ,0.13789 ,1.35298 
364 ,65.6756 ,1.50090 ,0.13447 ,1.31940 
365 ,65.8517 ,1.50254 ,0.13789 ,1.35298 
366 ,66.0280 ,1.50431 ,0.14131 ,1.38655 
367 ,66.2039 ,1.50609 ,0.13105 ,1.28582 
368 ,66.3955 ,1.50791 ,0.10025 ,0.98361 
369 ,66.5716 ,1.50971 ,0.08314 ,0.81572 
370 ,66.7316 ,1.51149 ,0.07629 ,0.74857 
371 ,66.9079 ,1.51310 ,0.07629 ,0.74857 
372 ,67.1322 ,1.51520 ,0.05234 ,0.51352 
373 ,67.3083 ,1.51716 ,0.05234 ,0.51352 
374 ,67.5005 ,1.51902 ,0.01811 ,0.17773 
375 ,67.6922 ,1.52084 ,0.00443 ,0.04342 
376 ,67.8686 ,1.52272 ,0.01127 ,0.11058 
377 ,68.0446 ,1.52447 ,0.00100 ,0.00984 
378 ,68.2209 ,1.52627 ,-0.01611 ,-0.15805 
379 ,68.3967 ,1.52801 ,-0.03664 ,-0.35952 
380 ,68.5729 ,1.52976 ,-0.05033 ,-0.49383 
381 ,68.7486 ,1.53150 ,-0.05717 ,-0.56099 
382 ,68.9252 ,1.53332 ,-0.06060 ,-0.59457 
383 ,69.1171 ,1.53521 ,-0.09482 ,-0.93035 
384 ,69.3092 ,1.53709 ,-0.08455 ,-0.82961 
385 ,69.4852 ,1.53890 ,-0.09824 ,-0.96393 
386 ,69.6773 ,1.54081 ,-0.11877 ,-1.16540 
387 ,69.8693 ,1.54276 ,-0.13246 ,-1.29971 
388 ,70.0452 ,1.54450 ,-0.13246 ,-1.29971 
389 ,70.2372 ,1.54635 ,-0.15299 ,-1.50118 
390 ,70.4298 ,1.54823 ,-0.15642 ,-1.53476 
391 ,70.6057 ,1.55007 ,-0.15642 ,-1.53476 
392 ,70.7976 ,1.55189 ,-0.18037 ,-1.76981 
393 ,70.9737 ,1.55386 ,-0.18722 ,-1.83696 
394 ,71.1658 ,1.55566 ,-0.21459 ,-2.10559 
395 ,71.3419 ,1.55744 ,-0.21117 ,-2.07201 
396 ,71.5340 ,1.55925 ,-0.21459 ,-2.10559 
397 ,71.7099 ,1.56113 ,-0.24539 ,-2.40779 
398 ,71.8860 ,1.56282 ,-0.25224 ,-2.47495 
399 ,72.0622 ,1.56464 ,-0.25566 ,-2.50853 
400 ,72.2380 ,1.56644 ,-0.26593 ,-2.60926 
401 ,72.4306 ,1.56829 ,-0.30015 ,-2.94505 
402 ,72.6223 ,1.57012 ,-0.30357 ,-2.97863 
403 ,72.7983 ,1.57197 ,-0.29673 ,-2.91147 
404 ,72.9744 ,1.57378 ,-0.33095 ,-3.24725 
405 ,73.1502 ,1.57552 ,-0.34121 ,-3.34799 
406 ,73.3267 ,1.57724 ,-0.34464 ,-3.38156 
407 ,73.5186 ,1.57923 ,-0.33779 ,-3.31441 
408 ,73.6946 ,1.58094 ,-0.36859 ,-3.61661 
409 ,73.8709 ,1.58275 ,-0.37886 ,-3.71735 
410 ,74.0467 ,1.58451 ,-0.38912 ,-3.81808 
411 ,74.2390 ,1.58633 ,-0.38912 ,-3.81808 
412 ,74.4151 ,1.58821 ,-0.40281 ,-3.95240 
413 ,74.6070 ,1.59006 ,-0.42335 ,-4.15387 
414 ,74.7833 ,1.59184 ,-0.42335 ,-4.15387 
415 ,74.9754 ,1.59375 ,-0.44388 ,-4.35534 
416 ,75.1510 ,1.59559 ,-0.45414 ,-4.45607 
417 ,75.3274 ,1.59726 ,-0.47126 ,-4.62396 
418 ,75.5194 ,1.59920 ,-0.46099 ,-4.52323 
419 ,75.6955 ,1.60098 ,-0.49521 ,-4.85901 
420 ,75.8877 ,1.60290 ,-0.50548 ,-4.95975 
421 ,76.0637 ,1.60467 ,-0.50548 ,-4.95975 
422 ,76.2397 ,1.60634 ,-0.51232 ,-5.02690 
423 ,76.4159 ,1.60818 ,-0.51917 ,-5.09406 
424 ,76.6079 ,1.61005 ,-0.53285 ,-5.22837 
425 ,76.7840 ,1.61178 ,-0.54654 ,-5.36268 
426 ,76.9761 ,1.61366 ,-0.56023 ,-5.49700 
427 ,77.1681 ,1.61567 ,-0.59445 ,-5.83278 
428 ,77.3438 ,1.61742 ,-0.58419 ,-5.73205 
429 ,77.5202 ,1.61927 ,-0.59445 ,-5.83278 
430 ,77.6801 ,1.62090 ,-0.60472 ,-5.93352 
431 ,77.8565 ,1.62258 ,-0.60814 ,-5.96709 
432 ,78.0485 ,1.62443 ,-0.63894 ,-6.26930 
433 ,78.2244 ,1.62622 ,-0.64579 ,-6.33646 
434 ,78.4006 ,1.62800 ,-0.64921 ,-6.37003 
435 ,78.6087 ,1.63006 ,-0.66974 ,-6.57150 
436 ,78.7846 ,1.63184 ,-0.68001 ,-6.67224 
437 ,78.9929 ,1.63388 ,-0.69370 ,-6.80655 
438 ,79.1689 ,1.63567 ,-0.70396 ,-6.90729 
439 ,79.3445 ,1.63751 ,-0.69712 ,-6.84013 
440 ,79.5210 ,1.63920 ,-0.70396 ,-6.90729 
441 ,79.6970 ,1.64092 ,-0.72450 ,-7.10876 
442 ,79.8892 ,1.64287 ,-0.74161 ,-7.27665 
443 ,80.0653 ,1.64460 ,-0.75872 ,-7.44454 
444 ,80.2413 ,1.64643 ,-0.74503 ,-7.31023 
445 ,80.4170 ,1.64809 ,-0.76214 ,-7.47812 
446 ,80.5934 ,1.64992 ,-0.77925 ,-7.64601 
447 ,80.7855 ,1.65183 ,-0.78610 ,-7.71317 
448 ,80.9455 ,1.65354 ,-0.79294 ,-7.78032 
449 ,81.1215 ,1.65517 ,-0.80321 ,-7.88106 
450 ,81.2977 ,1.65699 ,-0.81347 ,-7.98179 
451 ,81.4898 ,1.65892 ,-0.84085 ,-8.25042 
452 ,81.6659 ,1.66064 ,-0.84769 ,-8.31758 
453 ,81.8420 ,1.66243 ,-0.85112 ,-8.35115 
454 ,82.0341 ,1.66431 ,-0.87165 ,-8.55262 
455 ,82.2420 ,1.66635 ,-0.86138 ,-8.45189 
456 ,82.4342 ,1.66830 ,-0.86481 ,-8.48547 
457 ,82.6103 ,1.67004 ,-0.89903 ,-8.82125 
458 ,82.7863 ,1.67188 ,-0.90929 ,-8.92198 
459 ,82.9625 ,1.67357 ,-0.90587 ,-8.88841 
460 ,83.1544 ,1.67552 ,-0.90929 ,-8.92198 
461 ,83.3302 ,1.67731 ,-0.95036 ,-9.32492 
462 ,83.5066 ,1.67899 ,-0.94694 ,-9.29135 
463 ,83.6826 ,1.68077 ,-0.97431 ,-9.55997 
