Data stamp = , 31-03-2022 12:36:52 130

Calibration Values: 
Slope = , 26.54 , g/V 
Offset Voltage at no contact = , -0.501760 , V 

No , Time , Stage Position ,   Mass , Force 
   ,  (s) ,      (mm)      ,   (g)  , (mN)  

1 ,0.0000 ,0.84946 ,5.39434 ,52.92925 
2 ,0.2116 ,0.84954 ,5.39434 ,52.92925 
3 ,0.5638 ,0.85045 ,5.39776 ,52.96282 
4 ,0.7561 ,0.85199 ,5.38407 ,52.82851 
5 ,0.9482 ,0.85373 ,5.39776 ,52.96282 
6 ,1.1239 ,0.85548 ,5.39092 ,52.89567 
7 ,1.3004 ,0.85710 ,5.40803 ,53.06356 
8 ,1.4763 ,0.85895 ,5.41487 ,53.13072 
9 ,1.6521 ,0.86073 ,5.39434 ,52.92925 
10 ,1.8285 ,0.86252 ,5.37723 ,52.76135 
11 ,2.0206 ,0.86437 ,5.33958 ,52.39199 
12 ,2.2127 ,0.86627 ,5.32247 ,52.22410 
13 ,2.3887 ,0.86811 ,5.32247 ,52.22410 
14 ,2.5968 ,0.87013 ,5.28825 ,51.88832 
15 ,2.7726 ,0.87190 ,5.26430 ,51.65327 
16 ,2.9651 ,0.87385 ,5.25403 ,51.55254 
17 ,3.1569 ,0.87574 ,5.22323 ,51.25033 
18 ,3.3490 ,0.87758 ,5.21981 ,51.21675 
19 ,3.5252 ,0.87942 ,5.20612 ,51.08244 
20 ,3.6852 ,0.88115 ,5.17532 ,50.78023 
21 ,3.8614 ,0.88277 ,5.16848 ,50.71308 
22 ,4.0534 ,0.88474 ,5.14794 ,50.51161 
23 ,4.2291 ,0.88649 ,5.14452 ,50.47803 
24 ,4.4214 ,0.88828 ,5.13425 ,50.37729 
25 ,4.5973 ,0.89022 ,5.10003 ,50.04151 
26 ,4.7737 ,0.89195 ,5.08977 ,49.94078 
27 ,4.9656 ,0.89379 ,5.06239 ,49.67215 
28 ,5.1740 ,0.89593 ,5.04528 ,49.50426 
29 ,5.3499 ,0.89768 ,5.03843 ,49.43710 
30 ,5.5261 ,0.89947 ,5.01106 ,49.16848 
31 ,5.7180 ,0.90134 ,4.98710 ,48.93343 
32 ,5.8942 ,0.90312 ,4.97683 ,48.83269 
33 ,6.0704 ,0.90492 ,4.95972 ,48.66480 
34 ,6.2463 ,0.90664 ,4.95630 ,48.63122 
35 ,6.4224 ,0.90839 ,4.93919 ,48.46333 
36 ,6.5984 ,0.91013 ,4.90497 ,48.12755 
37 ,6.7907 ,0.91201 ,4.89128 ,47.99324 
38 ,6.9826 ,0.91398 ,4.87075 ,47.79177 
39 ,7.1589 ,0.91584 ,4.84679 ,47.55672 
40 ,7.3350 ,0.91750 ,4.82626 ,47.35525 
41 ,7.5112 ,0.91934 ,4.82626 ,47.35525 
42 ,7.7027 ,0.92122 ,4.80915 ,47.18736 
43 ,7.8947 ,0.92303 ,4.77493 ,46.85157 
44 ,8.0709 ,0.92488 ,4.77150 ,46.81800 
45 ,8.2471 ,0.92664 ,4.74755 ,46.58295 
46 ,8.4232 ,0.92839 ,4.73728 ,46.48221 
47 ,8.5994 ,0.93014 ,4.70648 ,46.18001 
48 ,8.7915 ,0.93211 ,4.70306 ,46.14643 
49 ,8.9835 ,0.93399 ,4.67226 ,45.84422 
50 ,9.1757 ,0.93588 ,4.65515 ,45.67633 
51 ,9.3838 ,0.93798 ,4.63119 ,45.44128 
52 ,9.5758 ,0.93983 ,4.62777 ,45.40771 
53 ,9.7674 ,0.94177 ,4.60724 ,45.20624 
54 ,9.9276 ,0.94355 ,4.57644 ,44.90403 
55 ,10.0874 ,0.94517 ,4.57644 ,44.90403 
56 ,10.2639 ,0.94687 ,4.54906 ,44.63541 
57 ,10.4721 ,0.94888 ,4.51826 ,44.33320 
58 ,10.6642 ,0.95076 ,4.51142 ,44.26604 
59 ,10.8401 ,0.95254 ,4.48404 ,43.99742 
60 ,11.0166 ,0.95435 ,4.46009 ,43.76237 
61 ,11.1924 ,0.95608 ,4.44982 ,43.66163 
62 ,11.4006 ,0.95811 ,4.42586 ,43.42659 
63 ,11.5765 ,0.95995 ,4.40875 ,43.25870 
64 ,11.7527 ,0.96172 ,4.39849 ,43.15796 
65 ,11.9287 ,0.96350 ,4.38480 ,43.02365 
66 ,12.1048 ,0.96522 ,4.37795 ,42.95649 
67 ,12.2968 ,0.96707 ,4.34031 ,42.58713 
68 ,12.4890 ,0.96910 ,4.34373 ,42.62071 
69 ,12.6645 ,0.97078 ,4.31636 ,42.35208 
70 ,12.8410 ,0.97258 ,4.29582 ,42.15061 
71 ,13.0174 ,0.97439 ,4.27187 ,41.91556 
72 ,13.2089 ,0.97629 ,4.26845 ,41.88198 
73 ,13.3854 ,0.97802 ,4.24791 ,41.68051 
74 ,13.5934 ,0.98002 ,4.21711 ,41.37831 
75 ,13.7694 ,0.98187 ,4.21027 ,41.31115 
76 ,13.9615 ,0.98375 ,4.17947 ,41.00895 
77 ,14.1376 ,0.98557 ,4.15209 ,40.74032 
78 ,14.3138 ,0.98733 ,4.13498 ,40.57243 
79 ,14.5057 ,0.98920 ,4.15209 ,40.74032 
80 ,14.6818 ,0.99098 ,4.11787 ,40.40454 
81 ,14.8576 ,0.99279 ,4.08707 ,40.10233 
82 ,15.0500 ,0.99467 ,4.07680 ,40.00160 
83 ,15.2261 ,0.99640 ,4.08365 ,40.06876 
84 ,15.4184 ,0.99834 ,4.05285 ,39.76655 
85 ,15.6102 ,1.00020 ,4.03232 ,39.56508 
86 ,15.8023 ,1.00216 ,4.00836 ,39.33003 
87 ,15.9944 ,1.00407 ,3.99125 ,39.16214 
88 ,16.1702 ,1.00586 ,3.97414 ,38.99425 
89 ,16.3461 ,1.00762 ,3.96387 ,38.89352 
90 ,16.5227 ,1.00943 ,3.95361 ,38.79278 
91 ,16.7148 ,1.01134 ,3.92281 ,38.49058 
92 ,16.8906 ,1.01306 ,3.91596 ,38.42342 
93 ,17.0668 ,1.01482 ,3.91254 ,38.38984 
94 ,17.2587 ,1.01662 ,3.87490 ,38.02048 
95 ,17.4508 ,1.01864 ,3.86805 ,37.95332 
96 ,17.6270 ,1.02043 ,3.84410 ,37.71828 
97 ,17.8029 ,1.02218 ,3.84410 ,37.71828 
98 ,17.9951 ,1.02406 ,3.79619 ,37.24818 
99 ,18.1871 ,1.02592 ,3.79619 ,37.24818 
100 ,18.3791 ,1.02784 ,3.78592 ,37.14744 
101 ,18.5552 ,1.02972 ,3.73801 ,36.67735 
102 ,18.7474 ,1.03156 ,3.75170 ,36.81166 
103 ,18.9395 ,1.03355 ,3.71748 ,36.47588 
104 ,19.1154 ,1.03533 ,3.70721 ,36.37514 
105 ,19.2915 ,1.03701 ,3.69010 ,36.20725 
106 ,19.4677 ,1.03880 ,3.67983 ,36.10652 
107 ,19.6436 ,1.04058 ,3.66957 ,36.00578 
108 ,19.8518 ,1.04265 ,3.64219 ,35.73716 
109 ,20.0279 ,1.04437 ,3.63534 ,35.67000 
110 ,20.2039 ,1.04616 ,3.61481 ,35.46853 
111 ,20.3800 ,1.04790 ,3.58743 ,35.19990 
112 ,20.5559 ,1.04964 ,3.56690 ,34.99843 
113 ,20.7481 ,1.05160 ,3.57375 ,35.06559 
114 ,20.9403 ,1.05348 ,3.53952 ,34.72981 
115 ,21.1163 ,1.05534 ,3.51899 ,34.52834 
116 ,21.2922 ,1.05709 ,3.50530 ,34.39402 
117 ,21.4684 ,1.05884 ,3.50188 ,34.36045 
118 ,21.6442 ,1.06056 ,3.49161 ,34.25971 
119 ,21.8207 ,1.06235 ,3.46766 ,34.02466 
120 ,22.0286 ,1.06434 ,3.45739 ,33.92393 
121 ,22.2048 ,1.06614 ,3.43686 ,33.72246 
122 ,22.3808 ,1.06798 ,3.41975 ,33.55457 
123 ,22.5569 ,1.06971 ,3.39237 ,33.28594 
124 ,22.7325 ,1.07151 ,3.39921 ,33.35310 
125 ,22.9091 ,1.07323 ,3.38210 ,33.18520 
126 ,23.0848 ,1.07502 ,3.35130 ,32.88300 
127 ,23.2773 ,1.07683 ,3.32051 ,32.58080 
128 ,23.4530 ,1.07866 ,3.32051 ,32.58080 
129 ,23.6294 ,1.08041 ,3.30682 ,32.44648 
130 ,23.7892 ,1.08215 ,3.29655 ,32.34575 
131 ,23.9655 ,1.08377 ,3.27944 ,32.17786 
132 ,24.1736 ,1.08585 ,3.25548 ,31.94281 
133 ,24.3497 ,1.08766 ,3.23837 ,31.77492 
134 ,24.5417 ,1.08954 ,3.22468 ,31.64060 
135 ,24.7176 ,1.09124 ,3.20073 ,31.40555 
136 ,24.8938 ,1.09305 ,3.19046 ,31.30482 
137 ,25.0858 ,1.09495 ,3.17677 ,31.17051 
138 ,25.2779 ,1.09677 ,3.16309 ,31.03619 
139 ,25.4701 ,1.09871 ,3.14597 ,30.86830 
140 ,25.6461 ,1.10057 ,3.12886 ,30.70041 
141 ,25.8383 ,1.10241 ,3.11518 ,30.56610 
142 ,26.0299 ,1.10445 ,3.09122 ,30.33105 
143 ,26.2223 ,1.10624 ,3.07753 ,30.19674 
144 ,26.3980 ,1.10811 ,3.05700 ,29.99527 
145 ,26.5745 ,1.10990 ,3.03647 ,29.79380 
146 ,26.7666 ,1.11179 ,3.03304 ,29.76022 
147 ,26.9423 ,1.11362 ,3.02278 ,29.65948 
148 ,27.1188 ,1.11528 ,2.99540 ,29.39086 
149 ,27.2945 ,1.11706 ,2.98855 ,29.32370 
150 ,27.4709 ,1.11883 ,2.97144 ,29.15581 
151 ,27.6469 ,1.12055 ,2.96460 ,29.08865 
152 ,27.8391 ,1.12254 ,2.93038 ,28.75287 
153 ,28.0148 ,1.12429 ,2.91669 ,28.61856 
154 ,28.1912 ,1.12599 ,2.90985 ,28.55140 
155 ,28.3669 ,1.12778 ,2.89273 ,28.38351 
156 ,28.5435 ,1.12955 ,2.89273 ,28.38351 
157 ,28.7195 ,1.13135 ,2.85851 ,28.04772 
158 ,28.9276 ,1.13326 ,2.86536 ,28.11488 
159 ,29.1035 ,1.13514 ,2.83456 ,27.81268 
160 ,29.2795 ,1.13685 ,2.81402 ,27.61121 
161 ,29.4556 ,1.13869 ,2.79349 ,27.40974 
162 ,29.6317 ,1.14042 ,2.78665 ,27.34258 
163 ,29.8238 ,1.14234 ,2.78665 ,27.34258 
164 ,29.9999 ,1.14408 ,2.75243 ,27.00680 
165 ,30.1759 ,1.14599 ,2.73874 ,26.87248 
166 ,30.3680 ,1.14771 ,2.73189 ,26.80533 
167 ,30.5440 ,1.14950 ,2.71820 ,26.67101 
168 ,30.7362 ,1.15137 ,2.69425 ,26.43597 
169 ,30.9123 ,1.15323 ,2.68056 ,26.30165 
170 ,31.1362 ,1.15524 ,2.66003 ,26.10018 
171 ,31.3125 ,1.15726 ,2.66003 ,26.10018 
172 ,31.5043 ,1.15914 ,2.64634 ,25.96587 
173 ,31.6805 ,1.16091 ,2.61896 ,25.69724 
174 ,31.8567 ,1.16262 ,2.61212 ,25.63009 
175 ,32.0328 ,1.16444 ,2.58474 ,25.36146 
176 ,32.2085 ,1.16621 ,2.58132 ,25.32788 
177 ,32.3848 ,1.16797 ,2.57447 ,25.26073 
178 ,32.5770 ,1.16986 ,2.54367 ,24.95852 
179 ,32.7529 ,1.17169 ,2.54367 ,24.95852 
180 ,32.9131 ,1.17332 ,2.52656 ,24.79063 
181 ,33.1212 ,1.17515 ,2.50261 ,24.55558 
182 ,33.2968 ,1.17705 ,2.48207 ,24.35411 
183 ,33.4734 ,1.17883 ,2.45812 ,24.11906 
184 ,33.6494 ,1.18063 ,2.46496 ,24.18622 
185 ,33.8415 ,1.18244 ,2.44101 ,23.95117 
186 ,34.0496 ,1.18451 ,2.43074 ,23.85044 
187 ,34.2257 ,1.18636 ,2.42048 ,23.74970 
188 ,34.4175 ,1.18827 ,2.38283 ,23.38034 
189 ,34.6257 ,1.19021 ,2.38968 ,23.44750 
190 ,34.8019 ,1.19211 ,2.34861 ,23.04456 
191 ,35.0100 ,1.19407 ,2.33834 ,22.94382 
192 ,35.1860 ,1.19597 ,2.34519 ,23.01098 
193 ,35.3619 ,1.19772 ,2.32123 ,22.77593 
194 ,35.5380 ,1.19948 ,2.28359 ,22.40657 
195 ,35.7302 ,1.20142 ,2.28017 ,22.37299 
196 ,35.9225 ,1.20321 ,2.26648 ,22.23868 
197 ,36.1145 ,1.20525 ,2.25963 ,22.17152 
198 ,36.3064 ,1.20713 ,2.24252 ,22.00363 
199 ,36.4660 ,1.20884 ,2.23910 ,21.97005 
200 ,36.6422 ,1.21047 ,2.22199 ,21.80216 
201 ,36.8185 ,1.21228 ,2.19803 ,21.56711 
202 ,36.9945 ,1.21398 ,2.18435 ,21.43280 
203 ,37.1867 ,1.21597 ,2.18435 ,21.43280 
204 ,37.3627 ,1.21770 ,2.15697 ,21.16417 
205 ,37.5388 ,1.21942 ,2.13644 ,20.96270 
206 ,37.7150 ,1.22120 ,2.11932 ,20.79481 
207 ,37.8911 ,1.22301 ,2.11932 ,20.79481 
208 ,38.0989 ,1.22503 ,2.08510 ,20.45903 
209 ,38.2750 ,1.22678 ,2.07826 ,20.39187 
210 ,38.4512 ,1.22857 ,2.06115 ,20.22398 
211 ,38.6113 ,1.23028 ,2.05773 ,20.19040 
212 ,38.7871 ,1.23193 ,2.04404 ,20.05609 
213 ,38.9636 ,1.23366 ,2.02693 ,19.88820 
214 ,39.1396 ,1.23542 ,2.00639 ,19.68673 
215 ,39.3315 ,1.23744 ,1.99955 ,19.61957 
216 ,39.5239 ,1.23933 ,1.97217 ,19.35094 
217 ,39.7319 ,1.24121 ,1.95848 ,19.21663 
218 ,39.9241 ,1.24330 ,1.96190 ,19.25021 
219 ,40.0998 ,1.24507 ,1.92084 ,18.84727 
220 ,40.2759 ,1.24685 ,1.91057 ,18.74654 
221 ,40.4520 ,1.24853 ,1.93111 ,18.94801 
222 ,40.6280 ,1.25035 ,1.90373 ,18.67938 
223 ,40.8042 ,1.25217 ,1.87293 ,18.37717 
224 ,40.9802 ,1.25380 ,1.85582 ,18.20928 
225 ,41.1564 ,1.25561 ,1.84213 ,18.07497 
226 ,41.3321 ,1.25735 ,1.84897 ,18.14213 
227 ,41.5246 ,1.25927 ,1.82502 ,17.90708 
228 ,41.7162 ,1.26116 ,1.81133 ,17.77276 
229 ,41.8927 ,1.26303 ,1.80449 ,17.70561 
230 ,42.0848 ,1.26494 ,1.78053 ,17.47056 
231 ,42.2606 ,1.26665 ,1.76684 ,17.33625 
232 ,42.4368 ,1.26842 ,1.74289 ,17.10120 
233 ,42.6129 ,1.27020 ,1.73604 ,17.03404 
234 ,42.7885 ,1.27189 ,1.73946 ,17.06762 
235 ,42.9650 ,1.27369 ,1.72235 ,16.89973 
236 ,43.1410 ,1.27546 ,1.68813 ,16.56395 
237 ,43.3171 ,1.27724 ,1.68471 ,16.53037 
238 ,43.4931 ,1.27895 ,1.67102 ,16.39605 
239 ,43.6693 ,1.28073 ,1.66760 ,16.36248 
240 ,43.8611 ,1.28269 ,1.65391 ,16.22816 
241 ,44.0534 ,1.28462 ,1.64022 ,16.09385 
242 ,44.2296 ,1.28631 ,1.62653 ,15.95954 
243 ,44.4055 ,1.28810 ,1.61627 ,15.85880 
244 ,44.5817 ,1.28985 ,1.57520 ,15.45586 
245 ,44.7577 ,1.29158 ,1.57178 ,15.42228 
246 ,44.9496 ,1.29342 ,1.56151 ,15.32155 
247 ,45.1421 ,1.29543 ,1.53756 ,15.08650 
248 ,45.3340 ,1.29733 ,1.53071 ,15.01934 
249 ,45.5262 ,1.29922 ,1.52045 ,14.91861 
250 ,45.7342 ,1.30132 ,1.50333 ,14.75072 
251 ,45.9263 ,1.30332 ,1.48965 ,14.61640 
252 ,46.1022 ,1.30504 ,1.47253 ,14.44851 
253 ,46.2944 ,1.30693 ,1.47596 ,14.48209 
254 ,46.4705 ,1.30874 ,1.46911 ,14.41493 
255 ,46.6624 ,1.31068 ,1.43489 ,14.07915 
256 ,46.8546 ,1.31259 ,1.42120 ,13.94484 
257 ,47.0306 ,1.31432 ,1.42120 ,13.94484 
258 ,47.2229 ,1.31620 ,1.38356 ,13.57548 
259 ,47.3989 ,1.31805 ,1.37329 ,13.47474 
260 ,47.5909 ,1.31992 ,1.37671 ,13.50832 
261 ,47.7671 ,1.32176 ,1.36303 ,13.37401 
262 ,47.9432 ,1.32346 ,1.34591 ,13.20612 
263 ,48.1189 ,1.32524 ,1.31854 ,12.93749 
264 ,48.2951 ,1.32696 ,1.30827 ,12.83675 
265 ,48.4713 ,1.32872 ,1.31169 ,12.87033 
266 ,48.6475 ,1.33046 ,1.30485 ,12.80318 
267 ,48.8390 ,1.33248 ,1.27747 ,12.53455 
268 ,49.0156 ,1.33414 ,1.25694 ,12.33308 
269 ,49.2072 ,1.33610 ,1.25352 ,12.29950 
270 ,49.3838 ,1.33783 ,1.23298 ,12.09803 
271 ,49.5597 ,1.33963 ,1.21245 ,11.89656 
272 ,49.7357 ,1.34136 ,1.21245 ,11.89656 
273 ,49.9121 ,1.34315 ,1.19876 ,11.76225 
274 ,50.1039 ,1.34508 ,1.18165 ,11.59436 
275 ,50.2635 ,1.34677 ,1.16454 ,11.42647 
276 ,50.4402 ,1.34841 ,1.14401 ,11.22500 
277 ,50.6158 ,1.35018 ,1.13716 ,11.15784 
278 ,50.7923 ,1.35193 ,1.13032 ,11.09068 
279 ,50.9843 ,1.35392 ,1.12005 ,10.98995 
280 ,51.1604 ,1.35563 ,1.08583 ,10.65416 
281 ,51.3363 ,1.35742 ,1.08583 ,10.65416 
282 ,51.5128 ,1.35914 ,1.09267 ,10.72132 
283 ,51.7207 ,1.36117 ,1.04819 ,10.28480 
284 ,51.8966 ,1.36302 ,1.04819 ,10.28480 
285 ,52.0728 ,1.36474 ,1.04134 ,10.21765 
286 ,52.2489 ,1.36652 ,1.03792 ,10.18407 
287 ,52.4250 ,1.36828 ,1.02423 ,10.04976 
288 ,52.6010 ,1.37004 ,0.99343 ,9.74755 
289 ,52.7767 ,1.37184 ,0.97290 ,9.54608 
290 ,52.9531 ,1.37363 ,0.98317 ,9.64682 
291 ,53.1288 ,1.37529 ,0.96948 ,9.51250 
292 ,53.3057 ,1.37706 ,0.94210 ,9.24388 
293 ,53.5132 ,1.37899 ,0.94552 ,9.27745 
294 ,53.6892 ,1.38092 ,0.92841 ,9.10956 
295 ,53.8652 ,1.38267 ,0.92499 ,9.07598 
296 ,54.0413 ,1.38443 ,0.90446 ,8.87451 
297 ,54.2177 ,1.38615 ,0.88050 ,8.63947 
298 ,54.4097 ,1.38810 ,0.88050 ,8.63947 
299 ,54.5858 ,1.38985 ,0.86339 ,8.47158 
300 ,54.7781 ,1.39173 ,0.85654 ,8.40442 
301 ,54.9700 ,1.39373 ,0.84286 ,8.27011 
302 ,55.1620 ,1.39564 ,0.82232 ,8.06864 
303 ,55.3382 ,1.39739 ,0.81206 ,7.96790 
304 ,55.5298 ,1.39925 ,0.81206 ,7.96790 
305 ,55.7224 ,1.40112 ,0.79152 ,7.76643 
306 ,55.8982 ,1.40313 ,0.76757 ,7.53138 
307 ,56.0744 ,1.40472 ,0.77441 ,7.59854 
308 ,56.2665 ,1.40672 ,0.75046 ,7.36349 
309 ,56.4423 ,1.40848 ,0.73677 ,7.22918 
310 ,56.6186 ,1.41016 ,0.70939 ,6.96055 
311 ,56.7947 ,1.41191 ,0.71966 ,7.06129 
312 ,56.9709 ,1.41367 ,0.71966 ,7.06129 
313 ,57.1469 ,1.41545 ,0.69228 ,6.79266 
314 ,57.3231 ,1.41728 ,0.67859 ,6.65835 
315 ,57.4991 ,1.41900 ,0.65121 ,6.38972 
316 ,57.6911 ,1.42088 ,0.65121 ,6.38972 
317 ,57.8669 ,1.42260 ,0.63410 ,6.22183 
318 ,58.0433 ,1.42440 ,0.61699 ,6.05394 
319 ,58.2353 ,1.42626 ,0.62726 ,6.15467 
320 ,58.4274 ,1.42816 ,0.61357 ,6.02036 
321 ,58.6033 ,1.43004 ,0.58619 ,5.75173 
322 ,58.8115 ,1.43206 ,0.58962 ,5.78531 
323 ,59.0035 ,1.43405 ,0.55882 ,5.48311 
324 ,59.1956 ,1.43591 ,0.54513 ,5.34879 
325 ,59.3717 ,1.43766 ,0.53828 ,5.28164 
326 ,59.5479 ,1.43941 ,0.53486 ,5.24806 
327 ,59.7236 ,1.44125 ,0.50748 ,4.97943 
328 ,59.9000 ,1.44301 ,0.49380 ,4.84512 
329 ,60.0921 ,1.44492 ,0.49722 ,4.87870 
330 ,60.2683 ,1.44664 ,0.48695 ,4.77796 
331 ,60.4602 ,1.44849 ,0.46300 ,4.54291 
332 ,60.6362 ,1.45031 ,0.43904 ,4.30787 
333 ,60.8121 ,1.45215 ,0.43220 ,4.24071 
334 ,60.9724 ,1.45381 ,0.41851 ,4.10640 
335 ,61.1643 ,1.45556 ,0.40824 ,4.00566 
336 ,61.3406 ,1.45737 ,0.39797 ,3.90493 
337 ,61.5166 ,1.45913 ,0.39455 ,3.87135 
338 ,61.6926 ,1.46094 ,0.38429 ,3.77061 
339 ,61.8685 ,1.46267 ,0.38429 ,3.77061 
340 ,62.0607 ,1.46457 ,0.35691 ,3.50199 
341 ,62.2691 ,1.46658 ,0.35691 ,3.50199 
342 ,62.4610 ,1.46847 ,0.33980 ,3.33410 
343 ,62.6691 ,1.47056 ,0.32953 ,3.23336 
344 ,62.8451 ,1.47241 ,0.29189 ,2.86400 
345 ,63.0215 ,1.47414 ,0.28847 ,2.83042 
346 ,63.2134 ,1.47614 ,0.28504 ,2.79684 
347 ,63.3895 ,1.47787 ,0.28847 ,2.83042 
348 ,63.5654 ,1.47965 ,0.26793 ,2.62895 
349 ,63.7417 ,1.48140 ,0.25082 ,2.46106 
350 ,63.9177 ,1.48315 ,0.22002 ,2.15885 
351 ,64.0937 ,1.48487 ,0.22344 ,2.19243 
352 ,64.2858 ,1.48684 ,0.20976 ,2.05812 
353 ,64.4779 ,1.48873 ,0.19607 ,1.92381 
354 ,64.6539 ,1.49048 ,0.17896 ,1.75592 
355 ,64.8301 ,1.49226 ,0.18238 ,1.78949 
356 ,65.0219 ,1.49417 ,0.15842 ,1.55445 
357 ,65.1983 ,1.49593 ,0.13789 ,1.35298 
358 ,65.3903 ,1.49786 ,0.13447 ,1.31940 
359 ,65.5661 ,1.49964 ,0.13789 ,1.35298 
360 ,65.7584 ,1.50152 ,0.11393 ,1.11793 
361 ,65.9501 ,1.50344 ,0.11393 ,1.11793 
362 ,66.1264 ,1.50516 ,0.09682 ,0.95004 
363 ,66.3025 ,1.50697 ,0.06945 ,0.68141 
364 ,66.4786 ,1.50870 ,0.06260 ,0.61425 
365 ,66.6706 ,1.51063 ,0.06945 ,0.68141 
366 ,66.8467 ,1.51240 ,0.04891 ,0.47994 
367 ,67.0389 ,1.51434 ,0.02838 ,0.27847 
368 ,67.2148 ,1.51614 ,0.03522 ,0.34563 
369 ,67.4071 ,1.51800 ,0.02154 ,0.21131 
370 ,67.5831 ,1.51976 ,0.00100 ,0.00984 
371 ,67.7587 ,1.52151 ,-0.00926 ,-0.09089 
372 ,67.9349 ,1.52326 ,-0.01953 ,-0.19163 
373 ,68.1114 ,1.52503 ,-0.03664 ,-0.35952 
374 ,68.3195 ,1.52708 ,-0.05033 ,-0.49383 
375 ,68.5115 ,1.52909 ,-0.05033 ,-0.49383 
376 ,68.6876 ,1.53077 ,-0.06744 ,-0.66172 
377 ,68.8636 ,1.53258 ,-0.07086 ,-0.69530 
378 ,69.0394 ,1.53431 ,-0.09824 ,-0.96393 
379 ,69.2155 ,1.53609 ,-0.10851 ,-1.06466 
380 ,69.3918 ,1.53787 ,-0.11877 ,-1.16540 
381 ,69.5679 ,1.53966 ,-0.11535 ,-1.13182 
382 ,69.7440 ,1.54139 ,-0.13246 ,-1.29971 
383 ,69.9361 ,1.54338 ,-0.16326 ,-1.60191 
384 ,70.1282 ,1.54524 ,-0.14957 ,-1.46760 
385 ,70.3198 ,1.54721 ,-0.17695 ,-1.73623 
386 ,70.4798 ,1.54886 ,-0.18037 ,-1.76981 
387 ,70.6399 ,1.55049 ,-0.20090 ,-1.97128 
388 ,70.8324 ,1.55222 ,-0.19406 ,-1.90412 
389 ,71.0248 ,1.55418 ,-0.20775 ,-2.03843 
390 ,71.2006 ,1.55600 ,-0.23170 ,-2.27348 
391 ,71.3764 ,1.55776 ,-0.24197 ,-2.37422 
392 ,71.5687 ,1.55950 ,-0.25224 ,-2.47495 
393 ,71.7447 ,1.56136 ,-0.25908 ,-2.54211 
394 ,71.9208 ,1.56326 ,-0.27961 ,-2.74358 
395 ,72.0969 ,1.56488 ,-0.30015 ,-2.94505 
396 ,72.2890 ,1.56676 ,-0.28646 ,-2.81073 
397 ,72.4650 ,1.56858 ,-0.29673 ,-2.91147 
398 ,72.6411 ,1.57043 ,-0.31726 ,-3.11294 
399 ,72.8491 ,1.57232 ,-0.34121 ,-3.34799 
400 ,73.0252 ,1.57415 ,-0.33437 ,-3.28083 
401 ,73.2012 ,1.57595 ,-0.34464 ,-3.38156 
402 ,73.3932 ,1.57782 ,-0.36517 ,-3.58303 
403 ,73.5694 ,1.57966 ,-0.37201 ,-3.65019 
404 ,73.7615 ,1.58152 ,-0.40623 ,-3.98597 
405 ,73.9377 ,1.58331 ,-0.39939 ,-3.91882 
406 ,74.1297 ,1.58522 ,-0.39939 ,-3.91882 
407 ,74.3059 ,1.58702 ,-0.40966 ,-4.01955 
408 ,74.4655 ,1.58869 ,-0.42335 ,-4.15387 
409 ,74.6420 ,1.59038 ,-0.44388 ,-4.35534 
410 ,74.8339 ,1.59228 ,-0.45072 ,-4.42249 
411 ,75.0263 ,1.59414 ,-0.45072 ,-4.42249 
412 ,75.2502 ,1.59630 ,-0.46441 ,-4.55681 
413 ,75.4264 ,1.59821 ,-0.47126 ,-4.62396 
414 ,75.5862 ,1.59990 ,-0.50890 ,-4.99332 
415 ,75.7624 ,1.60159 ,-0.51232 ,-5.02690 
416 ,75.9381 ,1.60328 ,-0.53628 ,-5.26195 
417 ,76.1146 ,1.60508 ,-0.52601 ,-5.16121 
418 ,76.2904 ,1.60682 ,-0.52943 ,-5.19479 
419 ,76.4667 ,1.60854 ,-0.54654 ,-5.36268 
420 ,76.6428 ,1.61032 ,-0.54312 ,-5.32911 
421 ,76.8190 ,1.61217 ,-0.56708 ,-5.56415 
422 ,77.0110 ,1.61407 ,-0.57734 ,-5.66489 
423 ,77.2030 ,1.61595 ,-0.60472 ,-5.93352 
424 ,77.3791 ,1.61774 ,-0.60472 ,-5.93352 
425 ,77.5548 ,1.61953 ,-0.60472 ,-5.93352 
426 ,77.7312 ,1.62122 ,-0.62183 ,-6.10141 
427 ,77.9229 ,1.62316 ,-0.63894 ,-6.26930 
428 ,78.0993 ,1.62487 ,-0.64921 ,-6.37003 
429 ,78.2753 ,1.62665 ,-0.67659 ,-6.63866 
430 ,78.4515 ,1.62843 ,-0.65263 ,-6.40361 
431 ,78.6431 ,1.63031 ,-0.68343 ,-6.70582 
432 ,78.8357 ,1.63217 ,-0.68001 ,-6.67224 
433 ,79.0277 ,1.63417 ,-0.68685 ,-6.73940 
434 ,79.2038 ,1.63598 ,-0.70054 ,-6.87371 
435 ,79.3957 ,1.63784 ,-0.72792 ,-7.14233 
436 ,79.5718 ,1.63958 ,-0.72792 ,-7.14233 
437 ,79.7479 ,1.64137 ,-0.72792 ,-7.14233 
438 ,79.9236 ,1.64309 ,-0.74503 ,-7.31023 
439 ,80.1002 ,1.64491 ,-0.76556 ,-7.51170 
440 ,80.2763 ,1.64670 ,-0.78267 ,-7.67959 
441 ,80.4520 ,1.64844 ,-0.77583 ,-7.61243 
442 ,80.6282 ,1.65017 ,-0.77925 ,-7.64601 
443 ,80.8040 ,1.65192 ,-0.79978 ,-7.84748 
444 ,80.9804 ,1.65368 ,-0.81347 ,-7.98179 
445 ,81.1725 ,1.65559 ,-0.81347 ,-7.98179 
446 ,81.3646 ,1.65750 ,-0.81689 ,-8.01537 
447 ,81.5408 ,1.65931 ,-0.83743 ,-8.21684 
448 ,81.7171 ,1.66109 ,-0.86138 ,-8.45189 
449 ,81.9087 ,1.66297 ,-0.85454 ,-8.38473 
450 ,82.0849 ,1.66473 ,-0.86481 ,-8.48547 
451 ,82.2611 ,1.66648 ,-0.89560 ,-8.78767 
452 ,82.4532 ,1.66844 ,-0.88876 ,-8.72051 
453 ,82.6292 ,1.67020 ,-0.89903 ,-8.82125 
454 ,82.8052 ,1.67192 ,-0.90929 ,-8.92198 
455 ,82.9973 ,1.67384 ,-0.93667 ,-9.19061 
456 ,83.1894 ,1.67578 ,-0.91956 ,-9.02272 
457 ,83.3656 ,1.67753 ,-0.93667 ,-9.19061 
458 ,83.5736 ,1.67953 ,-0.95720 ,-9.39208 
459 ,83.7496 ,1.68138 ,-0.95036 ,-9.32492 
460 ,83.9414 ,1.68330 ,-0.97774 ,-9.59355 
461 ,84.1339 ,1.68515 ,-0.99485 ,-9.76144 
462 ,84.3419 ,1.68719 ,-0.99827 ,-9.79502 
463 ,84.5181 ,1.68906 ,-1.01880 ,-9.99649 
