Data stamp = , 30-03-2022 14:34:39 250

Calibration Values: 
Slope = , 26.54 , g/V 
Offset Voltage at no contact = , -0.501760 , V 

No , Time , Stage Position ,   Mass , Force 
   ,  (s) ,      (mm)      ,   (g)  , (mN)  

1 ,0.0000 ,0.89952 ,4.98710 ,48.93343 
2 ,0.2173 ,0.89959 ,4.98368 ,48.89985 
3 ,0.5535 ,0.90049 ,4.99052 ,48.96701 
4 ,0.7616 ,0.90204 ,5.00763 ,49.13490 
5 ,0.9536 ,0.90382 ,4.98368 ,48.89985 
6 ,1.1297 ,0.90548 ,4.99394 ,49.00058 
7 ,1.3217 ,0.90745 ,5.01790 ,49.23563 
8 ,1.5138 ,0.90933 ,4.97341 ,48.79911 
9 ,1.6896 ,0.91115 ,4.96315 ,48.69838 
10 ,1.8660 ,0.91291 ,4.95630 ,48.63122 
11 ,2.0577 ,0.91491 ,4.93577 ,48.42975 
12 ,2.2341 ,0.91661 ,4.90497 ,48.12755 
13 ,2.4100 ,0.91836 ,4.89128 ,47.99324 
14 ,2.6022 ,0.92023 ,4.87417 ,47.82534 
15 ,2.7942 ,0.92222 ,4.83652 ,47.45598 
16 ,2.9703 ,0.92394 ,4.85706 ,47.65745 
17 ,3.1624 ,0.92587 ,4.82284 ,47.32167 
18 ,3.3386 ,0.92768 ,4.80230 ,47.12020 
19 ,3.5465 ,0.92970 ,4.78177 ,46.91873 
20 ,3.7227 ,0.93147 ,4.77835 ,46.88515 
21 ,3.8986 ,0.93324 ,4.74413 ,46.54937 
22 ,4.0909 ,0.93515 ,4.75097 ,46.61653 
23 ,4.2830 ,0.93708 ,4.71675 ,46.28074 
24 ,4.4591 ,0.93888 ,4.69964 ,46.11285 
25 ,4.6511 ,0.94068 ,4.69964 ,46.11285 
26 ,4.8427 ,0.94272 ,4.68595 ,45.97854 
27 ,5.0192 ,0.94450 ,4.65857 ,45.70991 
28 ,5.2113 ,0.94639 ,4.63119 ,45.44128 
29 ,5.3873 ,0.94814 ,4.63462 ,45.47486 
30 ,5.5634 ,0.94987 ,4.62093 ,45.34055 
31 ,5.7558 ,0.95170 ,4.59355 ,45.07192 
32 ,5.9476 ,0.95372 ,4.58328 ,44.97119 
33 ,6.1237 ,0.95549 ,4.55591 ,44.70256 
34 ,6.3158 ,0.95738 ,4.51826 ,44.33320 
35 ,6.5079 ,0.95926 ,4.52853 ,44.43394 
36 ,6.7001 ,0.96127 ,4.49431 ,44.09815 
37 ,6.8920 ,0.96321 ,4.46693 ,43.82953 
38 ,7.0841 ,0.96511 ,4.47720 ,43.93026 
39 ,7.2920 ,0.96710 ,4.44640 ,43.62806 
40 ,7.4684 ,0.96895 ,4.42586 ,43.42659 
41 ,7.6602 ,0.97078 ,4.40875 ,43.25870 
42 ,7.8361 ,0.97258 ,4.37795 ,42.95649 
43 ,8.0120 ,0.97443 ,4.36427 ,42.82218 
44 ,8.1884 ,0.97614 ,4.36084 ,42.78860 
45 ,8.3965 ,0.97808 ,4.32662 ,42.45282 
46 ,8.5728 ,0.97997 ,4.31636 ,42.35208 
47 ,8.7647 ,0.98188 ,4.30951 ,42.28492 
48 ,8.9407 ,0.98366 ,4.29240 ,42.11703 
49 ,9.1168 ,0.98537 ,4.25818 ,41.78125 
50 ,9.2930 ,0.98714 ,4.23765 ,41.57978 
51 ,9.4851 ,0.98905 ,4.24449 ,41.64694 
52 ,9.6611 ,0.99085 ,4.22396 ,41.44547 
53 ,9.8531 ,0.99276 ,4.18974 ,41.10968 
54 ,10.0292 ,0.99449 ,4.18974 ,41.10968 
55 ,10.1892 ,0.99624 ,4.17262 ,40.94179 
56 ,10.3973 ,0.99811 ,4.13156 ,40.53885 
57 ,10.5895 ,1.00000 ,4.11787 ,40.40454 
58 ,10.7654 ,1.00191 ,4.11445 ,40.37096 
59 ,10.9416 ,1.00363 ,4.09049 ,40.13591 
60 ,11.1175 ,1.00544 ,4.06312 ,39.86729 
61 ,11.3417 ,1.00748 ,4.06654 ,39.90087 
62 ,11.5337 ,1.00956 ,4.03574 ,39.59866 
63 ,11.7097 ,1.01133 ,4.02547 ,39.49793 
64 ,11.9019 ,1.01328 ,4.00836 ,39.33003 
65 ,12.0939 ,1.01520 ,3.97756 ,39.02783 
66 ,12.2700 ,1.01692 ,3.96387 ,38.89352 
67 ,12.4460 ,1.01867 ,3.96045 ,38.85994 
68 ,12.6222 ,1.02039 ,3.92965 ,38.55773 
69 ,12.7982 ,1.02221 ,3.91254 ,38.38984 
70 ,12.9902 ,1.02408 ,3.91596 ,38.42342 
71 ,13.1664 ,1.02589 ,3.90227 ,38.28911 
72 ,13.3584 ,1.02772 ,3.86463 ,37.91975 
73 ,13.5346 ,1.02954 ,3.84410 ,37.71828 
74 ,13.7104 ,1.03132 ,3.83041 ,37.58396 
75 ,13.8867 ,1.03309 ,3.82699 ,37.55038 
76 ,14.0787 ,1.03498 ,3.79961 ,37.28176 
77 ,14.2548 ,1.03676 ,3.77565 ,37.04671 
78 ,14.4309 ,1.03851 ,3.76539 ,36.94597 
79 ,14.6070 ,1.04032 ,3.75512 ,36.84524 
80 ,14.7670 ,1.04201 ,3.74828 ,36.77808 
81 ,14.9591 ,1.04377 ,3.71063 ,36.40872 
82 ,15.1350 ,1.04555 ,3.68668 ,36.17367 
83 ,15.3268 ,1.04743 ,3.70037 ,36.30799 
84 ,15.5191 ,1.04928 ,3.68668 ,36.17367 
85 ,15.7114 ,1.05129 ,3.65588 ,35.87147 
86 ,15.8714 ,1.05301 ,3.63534 ,35.67000 
87 ,16.0476 ,1.05461 ,3.63877 ,35.70358 
88 ,16.2397 ,1.05649 ,3.61481 ,35.46853 
89 ,16.4154 ,1.05835 ,3.57375 ,35.06559 
90 ,16.5919 ,1.06014 ,3.56690 ,34.99843 
91 ,16.7839 ,1.06206 ,3.56348 ,34.96485 
92 ,16.9920 ,1.06402 ,3.52241 ,34.56192 
93 ,17.1678 ,1.06593 ,3.51899 ,34.52834 
94 ,17.3442 ,1.06763 ,3.52241 ,34.56192 
95 ,17.5041 ,1.06938 ,3.49504 ,34.29329 
96 ,17.6803 ,1.07097 ,3.47792 ,34.12540 
97 ,17.8561 ,1.07275 ,3.45739 ,33.92393 
98 ,18.0323 ,1.07448 ,3.43344 ,33.68888 
99 ,18.2084 ,1.07626 ,3.44028 ,33.75604 
100 ,18.4004 ,1.07817 ,3.40948 ,33.45383 
101 ,18.5765 ,1.08001 ,3.39579 ,33.31952 
102 ,18.7687 ,1.08180 ,3.36842 ,33.05089 
103 ,18.9447 ,1.08371 ,3.37526 ,33.11805 
104 ,19.1205 ,1.08541 ,3.35130 ,32.88300 
105 ,19.2969 ,1.08718 ,3.32735 ,32.64795 
106 ,19.4731 ,1.08895 ,3.31366 ,32.51364 
107 ,19.6650 ,1.09081 ,3.31366 ,32.51364 
108 ,19.8411 ,1.09257 ,3.28628 ,32.24501 
109 ,20.0172 ,1.09438 ,3.26917 ,32.07712 
110 ,20.2094 ,1.09632 ,3.24522 ,31.84207 
111 ,20.4174 ,1.09833 ,3.22468 ,31.64060 
112 ,20.5932 ,1.10010 ,3.21442 ,31.53987 
113 ,20.7691 ,1.10190 ,3.20757 ,31.47271 
114 ,20.9454 ,1.10362 ,3.19731 ,31.37198 
115 ,21.1376 ,1.10556 ,3.16309 ,31.03619 
116 ,21.3137 ,1.10736 ,3.14940 ,30.90188 
117 ,21.5218 ,1.10935 ,3.13571 ,30.76757 
118 ,21.6978 ,1.11117 ,3.11860 ,30.59968 
119 ,21.8739 ,1.11292 ,3.10833 ,30.49894 
120 ,22.0499 ,1.11465 ,3.09806 ,30.39821 
121 ,22.2261 ,1.11642 ,3.08780 ,30.29747 
122 ,22.4022 ,1.11819 ,3.06384 ,30.06242 
123 ,22.5782 ,1.11997 ,3.04673 ,29.89453 
124 ,22.7703 ,1.12190 ,3.02620 ,29.69306 
125 ,22.9463 ,1.12362 ,3.02962 ,29.72664 
126 ,23.1224 ,1.12538 ,2.99882 ,29.42444 
127 ,23.3145 ,1.12732 ,2.97487 ,29.18939 
128 ,23.4904 ,1.12907 ,2.96460 ,29.08865 
129 ,23.6666 ,1.13084 ,2.96118 ,29.05507 
130 ,23.8267 ,1.13258 ,2.94407 ,28.88718 
131 ,24.0027 ,1.13424 ,2.93380 ,28.78645 
132 ,24.1949 ,1.13599 ,2.90642 ,28.51782 
133 ,24.3710 ,1.13794 ,2.88247 ,28.28277 
134 ,24.5471 ,1.13966 ,2.89958 ,28.45066 
135 ,24.7229 ,1.14144 ,2.88247 ,28.28277 
136 ,24.8991 ,1.14315 ,2.85509 ,28.01415 
137 ,25.0913 ,1.14507 ,2.83456 ,27.81268 
138 ,25.2833 ,1.14697 ,2.82771 ,27.74552 
139 ,25.4594 ,1.14879 ,2.80034 ,27.47689 
140 ,25.6355 ,1.15054 ,2.78322 ,27.30900 
141 ,25.8114 ,1.15230 ,2.77980 ,27.27542 
142 ,25.9876 ,1.15405 ,2.75585 ,27.04038 
143 ,26.1796 ,1.15605 ,2.73531 ,26.83891 
144 ,26.3555 ,1.15769 ,2.71820 ,26.67101 
145 ,26.5478 ,1.15962 ,2.71136 ,26.60386 
146 ,26.7238 ,1.16142 ,2.70452 ,26.53670 
147 ,26.8998 ,1.16313 ,2.68056 ,26.30165 
148 ,27.0920 ,1.16500 ,2.66003 ,26.10018 
149 ,27.2840 ,1.16702 ,2.66345 ,26.13376 
150 ,27.4602 ,1.16877 ,2.64976 ,25.99945 
151 ,27.6522 ,1.17065 ,2.62581 ,25.76440 
152 ,27.8282 ,1.17244 ,2.61554 ,25.66367 
153 ,28.0040 ,1.17421 ,2.59843 ,25.49577 
154 ,28.1806 ,1.17600 ,2.58816 ,25.39504 
155 ,28.3724 ,1.17789 ,2.56763 ,25.19357 
156 ,28.5486 ,1.17964 ,2.56421 ,25.15999 
157 ,28.7407 ,1.18154 ,2.52656 ,24.79063 
158 ,28.9327 ,1.18349 ,2.51630 ,24.68989 
159 ,29.1088 ,1.18523 ,2.49576 ,24.48842 
160 ,29.2850 ,1.18700 ,2.50261 ,24.55558 
161 ,29.4609 ,1.18880 ,2.49234 ,24.45485 
162 ,29.6369 ,1.19050 ,2.45812 ,24.11906 
163 ,29.8130 ,1.19228 ,2.44443 ,23.98475 
164 ,29.9892 ,1.19404 ,2.44101 ,23.95117 
165 ,30.1652 ,1.19579 ,2.42390 ,23.78328 
166 ,30.3413 ,1.19759 ,2.41705 ,23.71612 
167 ,30.5173 ,1.19931 ,2.38968 ,23.44750 
168 ,30.6934 ,1.20104 ,2.37941 ,23.34676 
169 ,30.8695 ,1.20282 ,2.37941 ,23.34676 
170 ,31.0456 ,1.20464 ,2.35545 ,23.11171 
171 ,31.2217 ,1.20635 ,2.34177 ,22.97740 
172 ,31.4137 ,1.20836 ,2.31781 ,22.74235 
173 ,31.6058 ,1.21017 ,2.32465 ,22.80951 
174 ,31.7821 ,1.21196 ,2.30754 ,22.64162 
175 ,31.9741 ,1.21382 ,2.27332 ,22.30584 
176 ,32.1496 ,1.21563 ,2.26648 ,22.23868 
177 ,32.3261 ,1.21741 ,2.25279 ,22.10437 
178 ,32.5340 ,1.21941 ,2.23568 ,21.93647 
179 ,32.7100 ,1.22126 ,2.21857 ,21.76858 
180 ,32.8863 ,1.22301 ,2.22541 ,21.83574 
181 ,33.0622 ,1.22474 ,2.20146 ,21.60069 
182 ,33.2384 ,1.22655 ,2.19119 ,21.49996 
183 ,33.4305 ,1.22844 ,2.16381 ,21.23133 
184 ,33.6226 ,1.23043 ,2.16039 ,21.19775 
185 ,33.7988 ,1.23210 ,2.14670 ,21.06344 
186 ,33.9908 ,1.23404 ,2.11248 ,20.72766 
187 ,34.1668 ,1.23583 ,2.11248 ,20.72766 
188 ,34.3427 ,1.23752 ,2.11248 ,20.72766 
189 ,34.5190 ,1.23927 ,2.08510 ,20.45903 
190 ,34.6949 ,1.24107 ,2.06457 ,20.25756 
191 ,34.8869 ,1.24293 ,2.05088 ,20.12325 
192 ,35.0634 ,1.24478 ,2.05430 ,20.15682 
193 ,35.2712 ,1.24666 ,2.02350 ,19.85462 
194 ,35.4634 ,1.24875 ,2.02350 ,19.85462 
195 ,35.6553 ,1.25063 ,1.99270 ,19.55241 
196 ,35.8316 ,1.25245 ,1.97559 ,19.38452 
197 ,36.0075 ,1.25427 ,1.97217 ,19.35094 
198 ,36.1837 ,1.25601 ,1.96533 ,19.28379 
199 ,36.3597 ,1.25773 ,1.96190 ,19.25021 
200 ,36.5355 ,1.25944 ,1.92768 ,18.91443 
201 ,36.7119 ,1.26128 ,1.91399 ,18.78011 
202 ,36.8881 ,1.26300 ,1.90373 ,18.67938 
203 ,37.0640 ,1.26478 ,1.90715 ,18.71296 
204 ,37.2402 ,1.26653 ,1.89004 ,18.54507 
205 ,37.4322 ,1.26845 ,1.85240 ,18.17570 
206 ,37.6082 ,1.27023 ,1.84897 ,18.14213 
207 ,37.8004 ,1.27213 ,1.84213 ,18.07497 
208 ,37.9766 ,1.27390 ,1.82502 ,17.90708 
209 ,38.1846 ,1.27589 ,1.80449 ,17.70561 
210 ,38.3768 ,1.27788 ,1.78737 ,17.53772 
211 ,38.5523 ,1.27970 ,1.77026 ,17.36983 
212 ,38.7289 ,1.28144 ,1.76684 ,17.33625 
213 ,38.9048 ,1.28314 ,1.76684 ,17.33625 
214 ,39.0809 ,1.28497 ,1.74973 ,17.16836 
215 ,39.2732 ,1.28686 ,1.72235 ,16.89973 
216 ,39.4489 ,1.28863 ,1.71209 ,16.79899 
217 ,39.6408 ,1.29048 ,1.70866 ,16.76542 
218 ,39.8171 ,1.29230 ,1.68471 ,16.53037 
219 ,39.9932 ,1.29403 ,1.66760 ,16.36248 
220 ,40.1853 ,1.29596 ,1.65733 ,16.26174 
221 ,40.3769 ,1.29787 ,1.65391 ,16.22816 
222 ,40.5532 ,1.29963 ,1.62995 ,15.99311 
223 ,40.7291 ,1.30139 ,1.62653 ,15.95954 
224 ,40.9054 ,1.30316 ,1.60600 ,15.75807 
225 ,41.0977 ,1.30514 ,1.60942 ,15.79164 
226 ,41.2734 ,1.30696 ,1.57862 ,15.48944 
227 ,41.4494 ,1.30861 ,1.56836 ,15.38871 
228 ,41.6254 ,1.31031 ,1.55809 ,15.28797 
229 ,41.8019 ,1.31215 ,1.54440 ,15.15366 
230 ,41.9941 ,1.31406 ,1.52729 ,14.98577 
231 ,42.1858 ,1.31594 ,1.51360 ,14.85145 
232 ,42.3621 ,1.31772 ,1.51360 ,14.85145 
233 ,42.5382 ,1.31945 ,1.49649 ,14.68356 
234 ,42.7304 ,1.32129 ,1.47253 ,14.44851 
235 ,42.9062 ,1.32317 ,1.46569 ,14.38136 
236 ,43.0825 ,1.32492 ,1.45542 ,14.28062 
237 ,43.2746 ,1.32677 ,1.45200 ,14.24704 
238 ,43.4667 ,1.32875 ,1.41436 ,13.87768 
239 ,43.6425 ,1.33057 ,1.40751 ,13.81053 
240 ,43.8345 ,1.33232 ,1.40067 ,13.74337 
241 ,44.0109 ,1.33426 ,1.38014 ,13.54190 
242 ,44.2029 ,1.33610 ,1.37671 ,13.50832 
243 ,44.3793 ,1.33791 ,1.36987 ,13.44116 
244 ,44.5550 ,1.33964 ,1.34591 ,13.20612 
245 ,44.7312 ,1.34140 ,1.32196 ,12.97107 
246 ,44.9069 ,1.34312 ,1.30827 ,12.83675 
247 ,45.0832 ,1.34493 ,1.29800 ,12.73602 
248 ,45.2592 ,1.34668 ,1.29458 ,12.70244 
249 ,45.4355 ,1.34847 ,1.29116 ,12.66886 
250 ,45.6275 ,1.35029 ,1.26378 ,12.40024 
251 ,45.8036 ,1.35219 ,1.25694 ,12.33308 
252 ,45.9792 ,1.35388 ,1.25009 ,12.26592 
253 ,46.1557 ,1.35561 ,1.22956 ,12.06445 
254 ,46.3318 ,1.35741 ,1.20903 ,11.86298 
255 ,46.5078 ,1.35916 ,1.20561 ,11.82941 
256 ,46.7001 ,1.36108 ,1.19192 ,11.69509 
257 ,46.8762 ,1.36287 ,1.19876 ,11.76225 
258 ,47.0518 ,1.36461 ,1.16454 ,11.42647 
259 ,47.2283 ,1.36639 ,1.14401 ,11.22500 
260 ,47.4363 ,1.36834 ,1.14401 ,11.22500 
261 ,47.6280 ,1.37028 ,1.12005 ,10.98995 
262 ,47.7884 ,1.37208 ,1.11321 ,10.92279 
263 ,47.9643 ,1.37372 ,1.09610 ,10.75490 
264 ,48.1407 ,1.37550 ,1.10294 ,10.82206 
265 ,48.3326 ,1.37736 ,1.07214 ,10.51985 
266 ,48.5248 ,1.37933 ,1.04134 ,10.21765 
267 ,48.7168 ,1.38127 ,1.06187 ,10.41912 
268 ,48.9248 ,1.38321 ,1.02765 ,10.08333 
269 ,49.1008 ,1.38507 ,1.02765 ,10.08333 
270 ,49.2772 ,1.38685 ,1.01396 ,9.94902 
271 ,49.4850 ,1.38883 ,0.98317 ,9.64682 
272 ,49.6610 ,1.39065 ,0.98317 ,9.64682 
273 ,49.8372 ,1.39245 ,0.96948 ,9.51250 
274 ,50.0134 ,1.39417 ,0.94894 ,9.31103 
275 ,50.2049 ,1.39612 ,0.93868 ,9.21030 
276 ,50.3810 ,1.39788 ,0.93525 ,9.17672 
277 ,50.5571 ,1.39966 ,0.91472 ,8.97525 
278 ,50.7331 ,1.40138 ,0.90788 ,8.90809 
279 ,50.9092 ,1.40317 ,0.89419 ,8.77378 
280 ,51.0853 ,1.40492 ,0.87023 ,8.53873 
281 ,51.2615 ,1.40675 ,0.88392 ,8.67305 
282 ,51.4376 ,1.40849 ,0.87023 ,8.53873 
283 ,51.6300 ,1.41039 ,0.82575 ,8.10221 
284 ,51.8218 ,1.41231 ,0.82917 ,8.13579 
285 ,51.9979 ,1.41402 ,0.81890 ,8.03506 
286 ,52.1741 ,1.41580 ,0.79495 ,7.80001 
287 ,52.3339 ,1.41752 ,0.77784 ,7.63212 
288 ,52.5103 ,1.41921 ,0.77784 ,7.63212 
289 ,52.7018 ,1.42112 ,0.75388 ,7.39707 
290 ,52.8940 ,1.42294 ,0.75730 ,7.43065 
291 ,53.0703 ,1.42478 ,0.73335 ,7.19560 
292 ,53.2465 ,1.42655 ,0.71966 ,7.06129 
293 ,53.4384 ,1.42840 ,0.73335 ,7.19560 
294 ,53.6147 ,1.43020 ,0.70597 ,6.92697 
295 ,53.7908 ,1.43192 ,0.67859 ,6.65835 
296 ,53.9670 ,1.43374 ,0.66833 ,6.55761 
297 ,54.1428 ,1.43553 ,0.66490 ,6.52403 
298 ,54.3346 ,1.43746 ,0.66148 ,6.49046 
299 ,54.5268 ,1.43926 ,0.62384 ,6.12109 
300 ,54.7031 ,1.44106 ,0.63068 ,6.18825 
301 ,54.8795 ,1.44286 ,0.63068 ,6.18825 
302 ,55.0551 ,1.44464 ,0.61357 ,6.02036 
303 ,55.2634 ,1.44657 ,0.59304 ,5.81889 
304 ,55.4394 ,1.44843 ,0.57935 ,5.68458 
305 ,55.5995 ,1.45017 ,0.57593 ,5.65100 
306 ,55.7758 ,1.45183 ,0.56908 ,5.58384 
307 ,55.9517 ,1.45358 ,0.54855 ,5.38237 
308 ,56.1277 ,1.45534 ,0.53486 ,5.24806 
309 ,56.3037 ,1.45705 ,0.52802 ,5.18090 
310 ,56.4959 ,1.45894 ,0.51433 ,5.04659 
311 ,56.6719 ,1.46089 ,0.48695 ,4.77796 
312 ,56.8638 ,1.46263 ,0.48695 ,4.77796 
313 ,57.0561 ,1.46451 ,0.48011 ,4.71081 
314 ,57.2481 ,1.46655 ,0.45615 ,4.47576 
315 ,57.4243 ,1.46831 ,0.44931 ,4.40860 
316 ,57.6001 ,1.47008 ,0.43562 ,4.27429 
317 ,57.7924 ,1.47193 ,0.42193 ,4.13997 
318 ,57.9842 ,1.47390 ,0.40482 ,3.97208 
319 ,58.1606 ,1.47566 ,0.39455 ,3.87135 
320 ,58.3366 ,1.47741 ,0.40482 ,3.97208 
321 ,58.5286 ,1.47926 ,0.37744 ,3.70346 
322 ,58.7044 ,1.48110 ,0.37402 ,3.66988 
323 ,58.8811 ,1.48289 ,0.35006 ,3.43483 
324 ,59.0568 ,1.48459 ,0.34322 ,3.36767 
325 ,59.2491 ,1.48658 ,0.33295 ,3.26694 
326 ,59.4250 ,1.48830 ,0.30900 ,3.03189 
327 ,59.6011 ,1.49004 ,0.30558 ,2.99831 
328 ,59.7768 ,1.49178 ,0.30558 ,2.99831 
329 ,59.9691 ,1.49367 ,0.30215 ,2.96473 
330 ,60.1614 ,1.49564 ,0.27820 ,2.72969 
331 ,60.3375 ,1.49743 ,0.25767 ,2.52822 
332 ,60.5134 ,1.49920 ,0.26451 ,2.59537 
333 ,60.6893 ,1.50095 ,0.23371 ,2.29317 
334 ,60.8813 ,1.50275 ,0.22344 ,2.19243 
335 ,61.0576 ,1.50459 ,0.22687 ,2.22601 
336 ,61.2494 ,1.50653 ,0.20633 ,2.02454 
337 ,61.4254 ,1.50824 ,0.18580 ,1.82307 
338 ,61.6016 ,1.51004 ,0.16527 ,1.62160 
339 ,61.7776 ,1.51176 ,0.17211 ,1.68876 
340 ,61.9538 ,1.51356 ,0.16185 ,1.58802 
341 ,62.1302 ,1.51539 ,0.14473 ,1.42013 
342 ,62.3221 ,1.51727 ,0.12420 ,1.21866 
343 ,62.4983 ,1.51902 ,0.12762 ,1.25224 
344 ,62.6583 ,1.52074 ,0.11736 ,1.15151 
345 ,62.8344 ,1.52234 ,0.09340 ,0.91646 
346 ,63.0102 ,1.52411 ,0.08656 ,0.84930 
347 ,63.1866 ,1.52587 ,0.06945 ,0.68141 
348 ,63.3788 ,1.52784 ,0.05918 ,0.58067 
349 ,63.5545 ,1.52962 ,0.06602 ,0.64783 
350 ,63.7309 ,1.53131 ,0.04549 ,0.44636 
351 ,63.9070 ,1.53310 ,0.02496 ,0.24489 
352 ,64.0830 ,1.53484 ,0.01469 ,0.14416 
353 ,64.2591 ,1.53657 ,0.02154 ,0.21131 
354 ,64.4510 ,1.53854 ,0.00443 ,0.04342 
355 ,64.6272 ,1.54030 ,-0.02980 ,-0.29236 
356 ,64.8193 ,1.54227 ,-0.02295 ,-0.22520 
357 ,65.0114 ,1.54415 ,-0.03322 ,-0.32594 
358 ,65.1714 ,1.54583 ,-0.05033 ,-0.49383 
359 ,65.3636 ,1.54763 ,-0.06402 ,-0.62814 
360 ,65.5716 ,1.54964 ,-0.06402 ,-0.62814 
361 ,65.7477 ,1.55147 ,-0.08797 ,-0.86319 
362 ,65.9234 ,1.55326 ,-0.11877 ,-1.16540 
363 ,66.0994 ,1.55499 ,-0.11877 ,-1.16540 
364 ,66.2755 ,1.55676 ,-0.12219 ,-1.19898 
365 ,66.4517 ,1.55855 ,-0.12562 ,-1.23255 
366 ,66.6277 ,1.56026 ,-0.13931 ,-1.36687 
367 ,66.7878 ,1.56200 ,-0.15642 ,-1.53476 
368 ,66.9638 ,1.56364 ,-0.17353 ,-1.70265 
369 ,67.1238 ,1.56537 ,-0.18037 ,-1.76981 
370 ,67.2840 ,1.56695 ,-0.17695 ,-1.73623 
371 ,67.4601 ,1.56864 ,-0.19748 ,-1.93770 
372 ,67.6520 ,1.57046 ,-0.19748 ,-1.93770 
373 ,67.8282 ,1.57229 ,-0.21802 ,-2.13917 
374 ,68.0205 ,1.57419 ,-0.23513 ,-2.30706 
375 ,68.1967 ,1.57598 ,-0.22828 ,-2.23990 
376 ,68.3567 ,1.57769 ,-0.24197 ,-2.37422 
377 ,68.5328 ,1.57931 ,-0.26593 ,-2.60926 
378 ,68.7089 ,1.58111 ,-0.26593 ,-2.60926 
379 ,68.9008 ,1.58301 ,-0.27961 ,-2.74358 
380 ,69.0931 ,1.58489 ,-0.26935 ,-2.64284 
381 ,69.2690 ,1.58675 ,-0.30015 ,-2.94505 
382 ,69.4450 ,1.58844 ,-0.32068 ,-3.14652 
383 ,69.6213 ,1.59024 ,-0.32752 ,-3.21367 
384 ,69.7974 ,1.59200 ,-0.33437 ,-3.28083 
385 ,69.9732 ,1.59376 ,-0.33095 ,-3.24725 
386 ,70.1495 ,1.59548 ,-0.34806 ,-3.41514 
387 ,70.3254 ,1.59726 ,-0.36859 ,-3.61661 
388 ,70.5174 ,1.59917 ,-0.38570 ,-3.78450 
389 ,70.6937 ,1.60096 ,-0.39597 ,-3.88524 
390 ,70.8697 ,1.60271 ,-0.39597 ,-3.88524 
391 ,71.0458 ,1.60443 ,-0.41650 ,-4.08671 
392 ,71.2219 ,1.60615 ,-0.43019 ,-4.22102 
393 ,71.3978 ,1.60799 ,-0.43703 ,-4.28818 
394 ,71.5901 ,1.60987 ,-0.44046 ,-4.32176 
395 ,71.7819 ,1.61181 ,-0.47468 ,-4.65754 
396 ,71.9583 ,1.61360 ,-0.47126 ,-4.62396 
397 ,72.1341 ,1.61534 ,-0.47126 ,-4.62396 
398 ,72.3103 ,1.61709 ,-0.47810 ,-4.69112 
399 ,72.4863 ,1.61888 ,-0.49863 ,-4.89259 
400 ,72.6622 ,1.62060 ,-0.51917 ,-5.09406 
401 ,72.8546 ,1.62258 ,-0.52259 ,-5.12764 
402 ,73.0464 ,1.62434 ,-0.51574 ,-5.06048 
403 ,73.2386 ,1.62633 ,-0.53285 ,-5.22837 
404 ,73.4305 ,1.62816 ,-0.55339 ,-5.42984 
405 ,73.6067 ,1.63004 ,-0.55339 ,-5.42984 
406 ,73.7987 ,1.63184 ,-0.57734 ,-5.66489 
407 ,73.9910 ,1.63391 ,-0.58419 ,-5.73205 
408 ,74.1671 ,1.63567 ,-0.59788 ,-5.86636 
409 ,74.3592 ,1.63752 ,-0.60472 ,-5.93352 
410 ,74.5352 ,1.63933 ,-0.61499 ,-6.03425 
411 ,74.6953 ,1.64102 ,-0.63210 ,-6.20214 
412 ,74.8714 ,1.64269 ,-0.62868 ,-6.16856 
413 ,75.0475 ,1.64441 ,-0.65605 ,-6.43719 
414 ,75.2393 ,1.64627 ,-0.65947 ,-6.47077 
415 ,75.4315 ,1.64818 ,-0.67316 ,-6.60508 
416 ,75.6076 ,1.65006 ,-0.68685 ,-6.73940 
417 ,75.7837 ,1.65176 ,-0.69370 ,-6.80655 
418 ,75.9916 ,1.65385 ,-0.70054 ,-6.87371 
419 ,76.1679 ,1.65565 ,-0.69712 ,-6.84013 
420 ,76.3440 ,1.65743 ,-0.72450 ,-7.10876 
421 ,76.5198 ,1.65919 ,-0.74845 ,-7.34380 
422 ,76.6960 ,1.66093 ,-0.73818 ,-7.24307 
423 ,76.8880 ,1.66281 ,-0.75530 ,-7.41096 
424 ,77.0804 ,1.66466 ,-0.75872 ,-7.44454 
425 ,77.2563 ,1.66653 ,-0.77241 ,-7.57885 
426 ,77.4323 ,1.66830 ,-0.77583 ,-7.61243 
427 ,77.6082 ,1.67004 ,-0.78267 ,-7.67959 
428 ,77.7843 ,1.67177 ,-0.80321 ,-7.88106 
429 ,77.9606 ,1.67359 ,-0.83058 ,-8.14968 
430 ,78.1526 ,1.67549 ,-0.81347 ,-7.98179 
431 ,78.3287 ,1.67724 ,-0.82032 ,-8.04895 
432 ,78.5047 ,1.67897 ,-0.85454 ,-8.38473 
433 ,78.6969 ,1.68090 ,-0.85454 ,-8.38473 
434 ,78.8727 ,1.68269 ,-0.85796 ,-8.41831 
435 ,79.0488 ,1.68445 ,-0.86823 ,-8.51904 
436 ,79.2247 ,1.68620 ,-0.88876 ,-8.72051 
437 ,79.4012 ,1.68798 ,-0.89903 ,-8.82125 
438 ,79.5930 ,1.68990 ,-0.89903 ,-8.82125 
439 ,79.7852 ,1.69177 ,-0.92298 ,-9.05630 
440 ,79.9614 ,1.69356 ,-0.92983 ,-9.12345 
441 ,80.1535 ,1.69549 ,-0.92983 ,-9.12345 
442 ,80.3136 ,1.69718 ,-0.92298 ,-9.05630 
443 ,80.4896 ,1.69883 ,-0.94351 ,-9.25777 
444 ,80.6653 ,1.70072 ,-0.97089 ,-9.52639 
445 ,80.8415 ,1.70234 ,-0.98800 ,-9.69429 
446 ,81.0338 ,1.70431 ,-0.97089 ,-9.52639 
447 ,81.2260 ,1.70623 ,-0.99143 ,-9.72786 
448 ,81.4181 ,1.70814 ,-1.01196 ,-9.92933 
449 ,81.5941 ,1.70993 ,-1.02222 ,-10.03007 
450 ,81.7861 ,1.71181 ,-1.02222 ,-10.03007 
451 ,81.9623 ,1.71358 ,-1.02907 ,-10.09723 
452 ,82.1544 ,1.71544 ,-1.04276 ,-10.23154 
453 ,82.3465 ,1.71744 ,-1.04960 ,-10.29869 
454 ,82.5385 ,1.71935 ,-1.07014 ,-10.50016 
455 ,82.7306 ,1.72126 ,-1.05987 ,-10.39943 
456 ,82.9067 ,1.72299 ,-1.08725 ,-10.66806 
457 ,83.0982 ,1.72492 ,-1.09067 ,-10.70163 
458 ,83.2749 ,1.72672 ,-1.10093 ,-10.80237 
459 ,83.4668 ,1.72860 ,-1.10436 ,-10.83595 
460 ,83.6430 ,1.73038 ,-1.12831 ,-11.07100 
461 ,83.8190 ,1.73216 ,-1.14884 ,-11.27247 
462 ,83.9949 ,1.73386 ,-1.12147 ,-11.00384 
