Data stamp = , 30-03-2022 18:42:37 922

Calibration Values: 
Slope = , 26.54 , g/V 
Offset Voltage at no contact = , -0.501760 , V 

No , Time , Stage Position ,   Mass , Force 
   ,  (s) ,      (mm)      ,   (g)  , (mN)  

1 ,0.0000 ,0.84943 ,5.35669 ,52.55988 
2 ,0.2161 ,0.84951 ,5.37038 ,52.69420 
3 ,0.4405 ,0.85008 ,5.35669 ,52.55988 
4 ,0.6323 ,0.85114 ,5.37723 ,52.76135 
5 ,0.8087 ,0.85241 ,5.36696 ,52.66062 
6 ,1.0008 ,0.85417 ,5.36696 ,52.66062 
7 ,1.1928 ,0.85605 ,5.38749 ,52.86209 
8 ,1.3529 ,0.85770 ,5.38407 ,52.82851 
9 ,1.5450 ,0.85955 ,5.35669 ,52.55988 
10 ,1.7371 ,0.86146 ,5.33958 ,52.39199 
11 ,1.9130 ,0.86344 ,5.32589 ,52.25768 
12 ,2.0893 ,0.86506 ,5.32589 ,52.25768 
13 ,2.2652 ,0.86684 ,5.28825 ,51.88832 
14 ,2.4414 ,0.86857 ,5.27114 ,51.72043 
15 ,2.6494 ,0.87054 ,5.28483 ,51.85474 
16 ,2.8415 ,0.87254 ,5.26087 ,51.61969 
17 ,3.0015 ,0.87429 ,5.23350 ,51.35107 
18 ,3.1776 ,0.87595 ,5.22323 ,51.25033 
19 ,3.3535 ,0.87765 ,5.21296 ,51.14960 
20 ,3.5299 ,0.87947 ,5.18901 ,50.91455 
21 ,3.7219 ,0.88143 ,5.18216 ,50.84739 
22 ,3.8980 ,0.88316 ,5.16505 ,50.67950 
23 ,4.0738 ,0.88488 ,5.15136 ,50.54519 
24 ,4.2661 ,0.88679 ,5.12741 ,50.31014 
25 ,4.4421 ,0.88856 ,5.10345 ,50.07509 
26 ,4.6182 ,0.89035 ,5.11030 ,50.14225 
27 ,4.7940 ,0.89207 ,5.07950 ,49.84004 
28 ,4.9701 ,0.89383 ,5.06581 ,49.70573 
29 ,5.1463 ,0.89557 ,5.03843 ,49.43710 
30 ,5.3224 ,0.89737 ,5.04185 ,49.47068 
31 ,5.4986 ,0.89922 ,5.01790 ,49.23563 
32 ,5.6746 ,0.90087 ,5.00421 ,49.10132 
33 ,5.8507 ,0.90266 ,4.97341 ,48.79911 
34 ,6.0268 ,0.90443 ,4.95630 ,48.63122 
35 ,6.2189 ,0.90626 ,4.95972 ,48.66480 
36 ,6.4109 ,0.90826 ,4.92892 ,48.36260 
37 ,6.5709 ,0.90995 ,4.90155 ,48.09397 
38 ,6.7471 ,0.91161 ,4.88786 ,47.95966 
39 ,6.9391 ,0.91348 ,4.89128 ,47.99324 
40 ,7.1152 ,0.91527 ,4.86048 ,47.69103 
41 ,7.2911 ,0.91701 ,4.82284 ,47.32167 
42 ,7.4672 ,0.91877 ,4.80915 ,47.18736 
43 ,7.6915 ,0.92093 ,4.81257 ,47.22093 
44 ,7.8995 ,0.92306 ,4.78519 ,46.95231 
45 ,8.0757 ,0.92489 ,4.77150 ,46.81800 
46 ,8.2676 ,0.92683 ,4.74413 ,46.54937 
47 ,8.4437 ,0.92858 ,4.73728 ,46.48221 
48 ,8.6194 ,0.93034 ,4.71675 ,46.28074 
49 ,8.7957 ,0.93214 ,4.69622 ,46.07927 
50 ,8.9720 ,0.93381 ,4.67568 ,45.87780 
51 ,9.1479 ,0.93562 ,4.64831 ,45.60918 
52 ,9.3241 ,0.93740 ,4.64488 ,45.57560 
53 ,9.5001 ,0.93913 ,4.63462 ,45.47486 
54 ,9.6758 ,0.94085 ,4.62777 ,45.40771 
55 ,9.8523 ,0.94266 ,4.59697 ,45.10550 
56 ,10.0283 ,0.94444 ,4.56960 ,44.83688 
57 ,10.2044 ,0.94617 ,4.55591 ,44.70256 
58 ,10.3966 ,0.94801 ,4.53537 ,44.50109 
59 ,10.5886 ,0.95008 ,4.53195 ,44.46751 
60 ,10.7483 ,0.95170 ,4.52511 ,44.40036 
61 ,10.9248 ,0.95336 ,4.49431 ,44.09815 
62 ,11.1007 ,0.95509 ,4.48062 ,43.96384 
63 ,11.2769 ,0.95691 ,4.47035 ,43.86310 
64 ,11.4690 ,0.95879 ,4.43271 ,43.49374 
65 ,11.6451 ,0.96063 ,4.42244 ,43.39301 
66 ,11.8050 ,0.96232 ,4.41902 ,43.35943 
67 ,11.9811 ,0.96390 ,4.39507 ,43.12438 
68 ,12.1734 ,0.96575 ,4.37453 ,42.92291 
69 ,12.3814 ,0.96786 ,4.34716 ,42.65429 
70 ,12.5575 ,0.96970 ,4.34031 ,42.58713 
71 ,12.7332 ,0.97143 ,4.31293 ,42.31850 
72 ,12.9096 ,0.97321 ,4.28213 ,42.01630 
73 ,13.0857 ,0.97496 ,4.26845 ,41.88198 
74 ,13.2617 ,0.97674 ,4.26845 ,41.88198 
75 ,13.4376 ,0.97854 ,4.24791 ,41.68051 
76 ,13.6299 ,0.98041 ,4.21711 ,41.37831 
77 ,13.8059 ,0.98213 ,4.21369 ,41.34473 
78 ,13.9981 ,0.98405 ,4.19658 ,41.17684 
79 ,14.2059 ,0.98604 ,4.17947 ,41.00895 
80 ,14.3821 ,0.98792 ,4.16236 ,40.84106 
81 ,14.5583 ,0.98965 ,4.14525 ,40.67317 
82 ,14.7342 ,0.99149 ,4.12471 ,40.47170 
83 ,14.9100 ,0.99325 ,4.09391 ,40.16949 
84 ,15.0864 ,0.99499 ,4.09734 ,40.20307 
85 ,15.2626 ,0.99679 ,4.08023 ,40.03518 
86 ,15.4385 ,0.99848 ,4.05969 ,39.83371 
87 ,15.6147 ,1.00031 ,4.04943 ,39.73297 
88 ,15.7908 ,1.00206 ,4.01178 ,39.36361 
89 ,15.9664 ,1.00379 ,4.00494 ,39.29646 
90 ,16.1428 ,1.00548 ,3.99467 ,39.19572 
91 ,16.3350 ,1.00749 ,3.96045 ,38.85994 
92 ,16.5110 ,1.00918 ,3.95361 ,38.79278 
93 ,16.6871 ,1.01099 ,3.93650 ,38.62489 
94 ,16.8632 ,1.01274 ,3.93307 ,38.59131 
95 ,17.0392 ,1.01450 ,3.91938 ,38.45700 
96 ,17.2153 ,1.01625 ,3.88858 ,38.15479 
97 ,17.3914 ,1.01802 ,3.86121 ,37.88617 
98 ,17.5676 ,1.01978 ,3.85779 ,37.85259 
99 ,17.7595 ,1.02167 ,3.83041 ,37.58396 
100 ,17.9516 ,1.02363 ,3.81330 ,37.41607 
101 ,18.1116 ,1.02532 ,3.81672 ,37.44965 
102 ,18.2877 ,1.02698 ,3.78592 ,37.14744 
103 ,18.4637 ,1.02877 ,3.76881 ,36.97955 
104 ,18.6400 ,1.03055 ,3.76539 ,36.94597 
105 ,18.8160 ,1.03231 ,3.73459 ,36.64377 
106 ,18.9921 ,1.03402 ,3.71063 ,36.40872 
107 ,19.1681 ,1.03577 ,3.70379 ,36.34157 
108 ,19.3442 ,1.03755 ,3.69352 ,36.24083 
109 ,19.5203 ,1.03932 ,3.68325 ,36.14010 
110 ,19.7285 ,1.04134 ,3.66614 ,35.97220 
111 ,19.9204 ,1.04326 ,3.63192 ,35.63642 
112 ,20.0963 ,1.04507 ,3.62508 ,35.56926 
113 ,20.2726 ,1.04682 ,3.61139 ,35.43495 
114 ,20.4485 ,1.04861 ,3.59770 ,35.30064 
115 ,20.6406 ,1.05049 ,3.59086 ,35.23348 
116 ,20.8166 ,1.05222 ,3.55321 ,34.86412 
117 ,21.0089 ,1.05409 ,3.52926 ,34.62907 
118 ,21.2008 ,1.05603 ,3.52241 ,34.56192 
119 ,21.3770 ,1.05788 ,3.50530 ,34.39402 
120 ,21.5529 ,1.05973 ,3.50872 ,34.42760 
121 ,21.7291 ,1.06141 ,3.48477 ,34.19255 
122 ,21.9048 ,1.06311 ,3.46424 ,33.99108 
123 ,22.0648 ,1.06483 ,3.44713 ,33.82319 
124 ,22.2413 ,1.06651 ,3.43686 ,33.72246 
125 ,22.4174 ,1.06824 ,3.41633 ,33.52099 
126 ,22.6095 ,1.07008 ,3.39579 ,33.31952 
127 ,22.8176 ,1.07215 ,3.37868 ,33.15163 
128 ,22.9936 ,1.07404 ,3.36157 ,32.98374 
129 ,23.1697 ,1.07573 ,3.35130 ,32.88300 
130 ,23.3454 ,1.07750 ,3.34446 ,32.81584 
131 ,23.5377 ,1.07944 ,3.31024 ,32.48006 
132 ,23.7299 ,1.08136 ,3.30339 ,32.41290 
133 ,23.9061 ,1.08310 ,3.28628 ,32.24501 
134 ,24.0820 ,1.08486 ,3.26575 ,32.04354 
135 ,24.2581 ,1.08661 ,3.24522 ,31.84207 
136 ,24.4502 ,1.08860 ,3.24522 ,31.84207 
137 ,24.6261 ,1.09032 ,3.23495 ,31.74134 
138 ,24.8025 ,1.09210 ,3.20073 ,31.40555 
139 ,24.9944 ,1.09406 ,3.18362 ,31.23766 
140 ,25.1866 ,1.09594 ,3.18020 ,31.20409 
141 ,25.3626 ,1.09774 ,3.16309 ,31.03619 
142 ,25.5384 ,1.09943 ,3.13571 ,30.76757 
143 ,25.7307 ,1.10134 ,3.15282 ,30.93546 
144 ,25.9068 ,1.10314 ,3.11860 ,30.59968 
145 ,26.0986 ,1.10505 ,3.08095 ,30.23031 
146 ,26.2748 ,1.10681 ,3.08095 ,30.23031 
147 ,26.4510 ,1.10856 ,3.06726 ,30.09600 
148 ,26.6270 ,1.11034 ,3.06042 ,30.02884 
149 ,26.8031 ,1.11207 ,3.03989 ,29.82737 
150 ,26.9791 ,1.11382 ,3.02278 ,29.65948 
151 ,27.1553 ,1.11560 ,3.01251 ,29.55875 
152 ,27.3311 ,1.11738 ,2.99540 ,29.39086 
153 ,27.5075 ,1.11916 ,2.98855 ,29.32370 
154 ,27.6835 ,1.12093 ,2.97144 ,29.15581 
155 ,27.8755 ,1.12284 ,2.93722 ,28.82003 
156 ,28.0517 ,1.12458 ,2.93380 ,28.78645 
157 ,28.2279 ,1.12638 ,2.92011 ,28.65213 
158 ,28.4037 ,1.12806 ,2.90642 ,28.51782 
159 ,28.5798 ,1.12988 ,2.87562 ,28.21562 
160 ,28.7720 ,1.13176 ,2.87220 ,28.18204 
161 ,28.9480 ,1.13358 ,2.87562 ,28.21562 
162 ,29.1401 ,1.13547 ,2.83456 ,27.81268 
163 ,29.3161 ,1.13727 ,2.81402 ,27.61121 
164 ,29.4922 ,1.13901 ,2.81402 ,27.61121 
165 ,29.6680 ,1.14074 ,2.79691 ,27.44332 
166 ,29.8442 ,1.14248 ,2.79691 ,27.44332 
167 ,30.0203 ,1.14428 ,2.76954 ,27.17469 
168 ,30.2125 ,1.14616 ,2.75927 ,27.07395 
169 ,30.3884 ,1.14796 ,2.74900 ,26.97322 
170 ,30.5643 ,1.14965 ,2.72505 ,26.73817 
171 ,30.7402 ,1.15151 ,2.71820 ,26.67101 
172 ,30.9168 ,1.15320 ,2.69767 ,26.46954 
173 ,31.0924 ,1.15501 ,2.69425 ,26.43597 
174 ,31.2689 ,1.15676 ,2.68398 ,26.33523 
175 ,31.4448 ,1.15852 ,2.65660 ,26.06661 
176 ,31.6369 ,1.16042 ,2.63949 ,25.89871 
177 ,31.8131 ,1.16217 ,2.63607 ,25.86514 
178 ,31.9892 ,1.16396 ,2.62581 ,25.76440 
179 ,32.1652 ,1.16581 ,2.60185 ,25.52935 
180 ,32.3411 ,1.16749 ,2.58474 ,25.36146 
181 ,32.5174 ,1.16924 ,2.57447 ,25.26073 
182 ,32.7094 ,1.17118 ,2.57105 ,25.22715 
183 ,32.8852 ,1.17301 ,2.52656 ,24.79063 
184 ,33.0776 ,1.17478 ,2.51972 ,24.72347 
185 ,33.2538 ,1.17658 ,2.51972 ,24.72347 
186 ,33.4617 ,1.17861 ,2.49234 ,24.45485 
187 ,33.6379 ,1.18042 ,2.48892 ,24.42127 
188 ,33.8299 ,1.18230 ,2.47181 ,24.25338 
189 ,34.0061 ,1.18409 ,2.46154 ,24.15264 
190 ,34.1820 ,1.18590 ,2.42048 ,23.74970 
191 ,34.3742 ,1.18778 ,2.42390 ,23.78328 
192 ,34.5503 ,1.18956 ,2.42732 ,23.81686 
193 ,34.7583 ,1.19157 ,2.40336 ,23.58181 
194 ,34.9342 ,1.19337 ,2.37941 ,23.34676 
195 ,35.1104 ,1.19520 ,2.36572 ,23.21245 
196 ,35.2865 ,1.19694 ,2.36572 ,23.21245 
197 ,35.4623 ,1.19862 ,2.33834 ,22.94382 
198 ,35.6387 ,1.20041 ,2.32465 ,22.80951 
199 ,35.8146 ,1.20219 ,2.30754 ,22.64162 
200 ,35.9905 ,1.20398 ,2.31781 ,22.74235 
201 ,36.1669 ,1.20569 ,2.30070 ,22.57446 
202 ,36.3590 ,1.20763 ,2.26306 ,22.20510 
203 ,36.5350 ,1.20936 ,2.26648 ,22.23868 
204 ,36.7112 ,1.21113 ,2.25621 ,22.13794 
205 ,36.8873 ,1.21295 ,2.24252 ,22.00363 
206 ,37.0627 ,1.21468 ,2.20830 ,21.66785 
207 ,37.2394 ,1.21643 ,2.19461 ,21.53353 
208 ,37.4315 ,1.21825 ,2.19119 ,21.49996 
209 ,37.6236 ,1.22024 ,2.16723 ,21.26491 
210 ,37.8156 ,1.22210 ,2.16039 ,21.19775 
211 ,38.0076 ,1.22411 ,2.14670 ,21.06344 
212 ,38.1835 ,1.22579 ,2.12275 ,20.82839 
213 ,38.3758 ,1.22773 ,2.12959 ,20.89555 
214 ,38.5519 ,1.22958 ,2.11932 ,20.79481 
215 ,38.7440 ,1.23147 ,2.08510 ,20.45903 
216 ,38.9199 ,1.23321 ,2.06457 ,20.25756 
217 ,39.1121 ,1.23507 ,2.06799 ,20.29114 
218 ,39.2880 ,1.23691 ,2.05773 ,20.19040 
219 ,39.4802 ,1.23881 ,2.02350 ,19.85462 
220 ,39.6562 ,1.24057 ,2.02693 ,19.88820 
221 ,39.8484 ,1.24252 ,2.00982 ,19.72031 
222 ,40.0564 ,1.24453 ,2.00982 ,19.72031 
223 ,40.2160 ,1.24630 ,1.98928 ,19.51884 
224 ,40.3927 ,1.24793 ,1.98244 ,19.45168 
225 ,40.5687 ,1.24971 ,1.95848 ,19.21663 
226 ,40.7448 ,1.25149 ,1.93453 ,18.98158 
227 ,40.9209 ,1.25322 ,1.91742 ,18.81369 
228 ,41.0965 ,1.25501 ,1.91057 ,18.74654 
229 ,41.2726 ,1.25669 ,1.91399 ,18.78011 
230 ,41.4492 ,1.25851 ,1.88319 ,18.47791 
231 ,41.6412 ,1.26045 ,1.85924 ,18.24286 
232 ,41.8172 ,1.26220 ,1.86608 ,18.31002 
233 ,41.9929 ,1.26392 ,1.85240 ,18.17570 
234 ,42.1694 ,1.26568 ,1.83871 ,18.04139 
235 ,42.3613 ,1.26768 ,1.81817 ,17.83992 
236 ,42.5374 ,1.26936 ,1.80106 ,17.67203 
237 ,42.7135 ,1.27113 ,1.79764 ,17.63845 
238 ,42.8732 ,1.27283 ,1.77711 ,17.43698 
239 ,43.0492 ,1.27452 ,1.77369 ,17.40340 
240 ,43.2092 ,1.27624 ,1.74289 ,17.10120 
241 ,43.3853 ,1.27787 ,1.72235 ,16.89973 
242 ,43.5620 ,1.27962 ,1.71209 ,16.79899 
243 ,43.7541 ,1.28157 ,1.71209 ,16.79899 
244 ,43.9300 ,1.28335 ,1.69498 ,16.63110 
245 ,44.1059 ,1.28507 ,1.66760 ,16.36248 
246 ,44.2821 ,1.28683 ,1.65733 ,16.26174 
247 ,44.4742 ,1.28871 ,1.65391 ,16.22816 
248 ,44.6663 ,1.29061 ,1.62995 ,15.99311 
249 ,44.8425 ,1.29246 ,1.61284 ,15.82522 
250 ,45.0185 ,1.29422 ,1.60942 ,15.79164 
251 ,45.2106 ,1.29610 ,1.58889 ,15.59018 
252 ,45.3865 ,1.29788 ,1.57862 ,15.48944 
253 ,45.5627 ,1.29969 ,1.57520 ,15.45586 
254 ,45.7388 ,1.30139 ,1.54782 ,15.18724 
255 ,45.9468 ,1.30333 ,1.53413 ,15.05292 
256 ,46.1389 ,1.30540 ,1.51702 ,14.88503 
257 ,46.3309 ,1.30725 ,1.51018 ,14.81787 
258 ,46.5067 ,1.30900 ,1.48965 ,14.61640 
259 ,46.6832 ,1.31079 ,1.46911 ,14.41493 
260 ,46.8753 ,1.31272 ,1.47596 ,14.48209 
261 ,47.0513 ,1.31456 ,1.44858 ,14.21346 
262 ,47.2432 ,1.31645 ,1.41778 ,13.91126 
263 ,47.4194 ,1.31821 ,1.40409 ,13.77695 
264 ,47.5789 ,1.31989 ,1.41436 ,13.87768 
265 ,47.7555 ,1.32151 ,1.40409 ,13.77695 
266 ,47.9476 ,1.32350 ,1.37329 ,13.47474 
267 ,48.1235 ,1.32527 ,1.35618 ,13.30685 
268 ,48.2997 ,1.32694 ,1.35960 ,13.34043 
269 ,48.4757 ,1.32872 ,1.34591 ,13.20612 
270 ,48.6518 ,1.33046 ,1.31854 ,12.93749 
271 ,48.8281 ,1.33226 ,1.29800 ,12.73602 
272 ,49.0039 ,1.33403 ,1.29458 ,12.70244 
273 ,49.1801 ,1.33576 ,1.29458 ,12.70244 
274 ,49.3562 ,1.33757 ,1.27747 ,12.53455 
275 ,49.5322 ,1.33932 ,1.26378 ,12.40024 
276 ,49.7240 ,1.34108 ,1.23983 ,12.16519 
277 ,49.9164 ,1.34306 ,1.23641 ,12.13161 
278 ,50.1083 ,1.34499 ,1.22272 ,11.99730 
279 ,50.3326 ,1.34716 ,1.19534 ,11.72867 
280 ,50.5087 ,1.34904 ,1.18507 ,11.62794 
281 ,50.6846 ,1.35094 ,1.17138 ,11.49362 
282 ,50.8606 ,1.35261 ,1.16112 ,11.39289 
283 ,51.0529 ,1.35452 ,1.14058 ,11.19142 
284 ,51.2287 ,1.35628 ,1.12690 ,11.05710 
285 ,51.4049 ,1.35803 ,1.11663 ,10.95637 
286 ,51.5811 ,1.35975 ,1.11663 ,10.95637 
287 ,51.7730 ,1.36169 ,1.08925 ,10.68774 
288 ,51.9652 ,1.36360 ,1.07899 ,10.58701 
289 ,52.1572 ,1.36558 ,1.08241 ,10.62059 
290 ,52.3494 ,1.36746 ,1.04134 ,10.21765 
291 ,52.5415 ,1.36940 ,1.04134 ,10.21765 
292 ,52.7335 ,1.37120 ,1.03108 ,10.11691 
293 ,52.9095 ,1.37303 ,0.99685 ,9.78113 
294 ,53.0857 ,1.37485 ,0.99685 ,9.78113 
295 ,53.2617 ,1.37657 ,0.97974 ,9.61324 
296 ,53.4381 ,1.37837 ,0.97974 ,9.61324 
297 ,53.6300 ,1.38026 ,0.95237 ,9.34461 
298 ,53.8060 ,1.38205 ,0.93525 ,9.17672 
299 ,53.9820 ,1.38377 ,0.93183 ,9.14314 
300 ,54.1740 ,1.38567 ,0.93525 ,9.17672 
301 ,54.3501 ,1.38748 ,0.91472 ,8.97525 
302 ,54.5423 ,1.38942 ,0.88734 ,8.70662 
303 ,54.7340 ,1.39128 ,0.88050 ,8.63947 
304 ,54.9103 ,1.39303 ,0.87023 ,8.53873 
305 ,55.0864 ,1.39482 ,0.84286 ,8.27011 
306 ,55.2626 ,1.39662 ,0.82575 ,8.10221 
307 ,55.4386 ,1.39838 ,0.84286 ,8.27011 
308 ,55.6146 ,1.40008 ,0.83259 ,8.16937 
309 ,55.7907 ,1.40189 ,0.79152 ,7.76643 
310 ,55.9670 ,1.40360 ,0.80179 ,7.86717 
311 ,56.1586 ,1.40555 ,0.79152 ,7.76643 
312 ,56.3509 ,1.40745 ,0.77784 ,7.63212 
313 ,56.5269 ,1.40925 ,0.74704 ,7.32991 
314 ,56.7028 ,1.41093 ,0.75046 ,7.36349 
315 ,56.8792 ,1.41269 ,0.75046 ,7.36349 
316 ,57.0549 ,1.41450 ,0.72992 ,7.16202 
317 ,57.2473 ,1.41634 ,0.71281 ,6.99413 
318 ,57.4391 ,1.41833 ,0.69228 ,6.79266 
319 ,57.6154 ,1.42004 ,0.68886 ,6.75908 
320 ,57.7915 ,1.42185 ,0.67175 ,6.59119 
321 ,57.9675 ,1.42359 ,0.65464 ,6.42330 
322 ,58.1272 ,1.42533 ,0.64779 ,6.35614 
323 ,58.3037 ,1.42698 ,0.63410 ,6.22183 
324 ,58.4799 ,1.42875 ,0.63068 ,6.18825 
325 ,58.6557 ,1.43055 ,0.62726 ,6.15467 
326 ,58.8321 ,1.43227 ,0.59304 ,5.81889 
327 ,59.0081 ,1.43402 ,0.58277 ,5.71815 
328 ,59.1838 ,1.43577 ,0.57251 ,5.61742 
329 ,59.3600 ,1.43754 ,0.56224 ,5.51668 
330 ,59.5523 ,1.43948 ,0.55539 ,5.44953 
331 ,59.7283 ,1.44122 ,0.53486 ,5.24806 
332 ,59.9042 ,1.44298 ,0.52459 ,5.14732 
333 ,60.0805 ,1.44473 ,0.52117 ,5.11375 
334 ,60.2725 ,1.44664 ,0.51775 ,5.08017 
335 ,60.4486 ,1.44846 ,0.47668 ,4.67723 
336 ,60.6246 ,1.45022 ,0.47668 ,4.67723 
337 ,60.8008 ,1.45190 ,0.48353 ,4.74438 
338 ,60.9764 ,1.45371 ,0.45957 ,4.50934 
339 ,61.1528 ,1.45546 ,0.44588 ,4.37502 
340 ,61.3129 ,1.45712 ,0.43562 ,4.27429 
341 ,61.4890 ,1.45877 ,0.42877 ,4.20713 
342 ,61.6649 ,1.46059 ,0.41851 ,4.10640 
343 ,61.8572 ,1.46247 ,0.42193 ,4.13997 
344 ,62.0331 ,1.46429 ,0.39797 ,3.90493 
345 ,62.2094 ,1.46600 ,0.37060 ,3.63630 
346 ,62.3853 ,1.46780 ,0.36375 ,3.56914 
347 ,62.5615 ,1.46958 ,0.36033 ,3.53557 
348 ,62.7375 ,1.47130 ,0.36033 ,3.53557 
349 ,62.9136 ,1.47302 ,0.33980 ,3.33410 
350 ,63.0897 ,1.47486 ,0.31926 ,3.13263 
351 ,63.2817 ,1.47675 ,0.32953 ,3.23336 
352 ,63.4579 ,1.47846 ,0.31584 ,3.09905 
353 ,63.6500 ,1.48045 ,0.28162 ,2.76326 
354 ,63.8259 ,1.48223 ,0.27820 ,2.72969 
355 ,64.0023 ,1.48397 ,0.27820 ,2.72969 
356 ,64.1939 ,1.48585 ,0.25767 ,2.52822 
357 ,64.3700 ,1.48757 ,0.24055 ,2.36032 
358 ,64.5623 ,1.48951 ,0.24398 ,2.39390 
359 ,64.7541 ,1.49146 ,0.23371 ,2.29317 
360 ,64.9143 ,1.49321 ,0.21660 ,2.12528 
361 ,65.0904 ,1.49481 ,0.20291 ,1.99096 
362 ,65.2665 ,1.49657 ,0.18580 ,1.82307 
363 ,65.4583 ,1.49847 ,0.18922 ,1.85665 
364 ,65.6350 ,1.50028 ,0.17553 ,1.72234 
365 ,65.8265 ,1.50220 ,0.14473 ,1.42013 
366 ,66.0028 ,1.50388 ,0.14816 ,1.45371 
367 ,66.1950 ,1.50580 ,0.12420 ,1.21866 
368 ,66.4030 ,1.50783 ,0.11736 ,1.15151 
369 ,66.5787 ,1.50966 ,0.12078 ,1.18508 
370 ,66.7552 ,1.51147 ,0.09682 ,0.95004 
371 ,66.9472 ,1.51337 ,0.07287 ,0.71499 
372 ,67.1233 ,1.51516 ,0.07287 ,0.71499 
373 ,67.2994 ,1.51695 ,0.06945 ,0.68141 
374 ,67.4752 ,1.51872 ,0.05918 ,0.58067 
375 ,67.6515 ,1.52045 ,0.03865 ,0.37920 
376 ,67.8433 ,1.52233 ,0.03522 ,0.34563 
377 ,68.0197 ,1.52406 ,0.02838 ,0.27847 
378 ,68.2114 ,1.52593 ,0.02154 ,0.21131 
379 ,68.4037 ,1.52787 ,0.00100 ,0.00984 
380 ,68.5797 ,1.52968 ,-0.00926 ,-0.09089 
381 ,68.7560 ,1.53147 ,-0.02295 ,-0.22520 
382 ,68.9475 ,1.53347 ,-0.04006 ,-0.39310 
383 ,69.1242 ,1.53513 ,-0.03322 ,-0.32594 
384 ,69.3001 ,1.53688 ,-0.05033 ,-0.49383 
385 ,69.4923 ,1.53886 ,-0.08113 ,-0.79604 
386 ,69.6678 ,1.54064 ,-0.07771 ,-0.76246 
387 ,69.8444 ,1.54231 ,-0.07771 ,-0.76246 
388 ,70.0525 ,1.54435 ,-0.09140 ,-0.89677 
389 ,70.2284 ,1.54622 ,-0.12219 ,-1.19898 
390 ,70.4045 ,1.54788 ,-0.13246 ,-1.29971 
391 ,70.5807 ,1.54966 ,-0.13588 ,-1.33329 
392 ,70.7566 ,1.55148 ,-0.14957 ,-1.46760 
393 ,70.9329 ,1.55322 ,-0.16668 ,-1.63549 
394 ,71.1089 ,1.55501 ,-0.17695 ,-1.73623 
395 ,71.3009 ,1.55683 ,-0.17695 ,-1.73623 
396 ,71.4770 ,1.55871 ,-0.19064 ,-1.87054 
397 ,71.6691 ,1.56058 ,-0.20433 ,-2.00485 
398 ,71.8452 ,1.56235 ,-0.21117 ,-2.07201 
399 ,72.0374 ,1.56419 ,-0.22486 ,-2.20632 
400 ,72.2134 ,1.56600 ,-0.24539 ,-2.40779 
401 ,72.4054 ,1.56791 ,-0.23513 ,-2.30706 
402 ,72.5813 ,1.56967 ,-0.25224 ,-2.47495 
403 ,72.7576 ,1.57146 ,-0.27619 ,-2.71000 
404 ,72.9497 ,1.57337 ,-0.29330 ,-2.87789 
405 ,73.1417 ,1.57533 ,-0.27619 ,-2.71000 
406 ,73.3176 ,1.57700 ,-0.29673 ,-2.91147 
407 ,73.4939 ,1.57881 ,-0.31726 ,-3.11294 
408 ,73.6699 ,1.58060 ,-0.33779 ,-3.31441 
409 ,73.8459 ,1.58234 ,-0.32752 ,-3.21367 
410 ,74.0218 ,1.58413 ,-0.33779 ,-3.31441 
411 ,74.1981 ,1.58588 ,-0.34806 ,-3.41514 
412 ,74.3742 ,1.58766 ,-0.37544 ,-3.68377 
413 ,74.5822 ,1.58964 ,-0.36859 ,-3.61661 
414 ,74.7583 ,1.59143 ,-0.37886 ,-3.71735 
415 ,74.9342 ,1.59323 ,-0.40281 ,-3.95240 
416 ,75.1105 ,1.59497 ,-0.41308 ,-4.05313 
417 ,75.3026 ,1.59687 ,-0.40623 ,-3.98597 
418 ,75.4947 ,1.59872 ,-0.41992 ,-4.12029 
419 ,75.6868 ,1.60072 ,-0.44388 ,-4.35534 
420 ,75.8948 ,1.60271 ,-0.44730 ,-4.38891 
421 ,76.0709 ,1.60455 ,-0.47468 ,-4.65754 
422 ,76.2628 ,1.60653 ,-0.46099 ,-4.52323 
423 ,76.4550 ,1.60837 ,-0.49179 ,-4.82543 
424 ,76.6314 ,1.61018 ,-0.51232 ,-5.02690 
425 ,76.8393 ,1.61217 ,-0.49521 ,-4.85901 
426 ,77.0309 ,1.61417 ,-0.52943 ,-5.19479 
427 ,77.2073 ,1.61589 ,-0.52601 ,-5.16121 
428 ,77.3837 ,1.61770 ,-0.52601 ,-5.16121 
429 ,77.5596 ,1.61951 ,-0.54312 ,-5.32911 
430 ,77.7517 ,1.62140 ,-0.56365 ,-5.53058 
431 ,77.9277 ,1.62316 ,-0.58077 ,-5.69847 
432 ,78.0877 ,1.62483 ,-0.56708 ,-5.56415 
433 ,78.2798 ,1.62653 ,-0.58419 ,-5.73205 
434 ,78.4719 ,1.62854 ,-0.61499 ,-6.03425 
435 ,78.6478 ,1.63031 ,-0.62525 ,-6.13499 
436 ,78.8401 ,1.63226 ,-0.62183 ,-6.10141 
437 ,79.0160 ,1.63404 ,-0.63210 ,-6.20214 
438 ,79.1762 ,1.63573 ,-0.64579 ,-6.33646 
439 ,79.3522 ,1.63737 ,-0.65605 ,-6.43719 
440 ,79.5283 ,1.63912 ,-0.66974 ,-6.57150 
441 ,79.7043 ,1.64090 ,-0.66632 ,-6.53793 
442 ,79.8806 ,1.64267 ,-0.67659 ,-6.63866 
443 ,80.0725 ,1.64457 ,-0.70396 ,-6.90729 
444 ,80.2326 ,1.64629 ,-0.70739 ,-6.94086 
445 ,80.4247 ,1.64809 ,-0.70739 ,-6.94086 
446 ,80.6168 ,1.65004 ,-0.71765 ,-7.04160 
447 ,80.7928 ,1.65179 ,-0.74161 ,-7.27665 
448 ,80.9844 ,1.65370 ,-0.73476 ,-7.20949 
449 ,81.1609 ,1.65545 ,-0.75872 ,-7.44454 
450 ,81.3530 ,1.65734 ,-0.77925 ,-7.64601 
451 ,81.5612 ,1.65937 ,-0.76898 ,-7.54527 
452 ,81.7693 ,1.66150 ,-0.78267 ,-7.67959 
453 ,81.9449 ,1.66328 ,-0.79294 ,-7.78032 
454 ,82.1210 ,1.66504 ,-0.80321 ,-7.88106 
455 ,82.2814 ,1.66679 ,-0.82374 ,-8.08253 
456 ,82.4575 ,1.66838 ,-0.84085 ,-8.25042 
457 ,82.6337 ,1.67020 ,-0.85454 ,-8.38473 
458 ,82.8253 ,1.67204 ,-0.85454 ,-8.38473 
459 ,83.0018 ,1.67384 ,-0.85454 ,-8.38473 
460 ,83.1938 ,1.67580 ,-0.88534 ,-8.68694 
461 ,83.3698 ,1.67753 ,-0.87507 ,-8.58620 
462 ,83.5620 ,1.67940 ,-0.88876 ,-8.72051 
463 ,83.7541 ,1.68128 ,-0.90587 ,-8.88841 
