Data stamp = , 31-03-2022 00:11:44 781

Calibration Values: 
Slope = , 26.54 , g/V 
Offset Voltage at no contact = , -0.501760 , V 

No , Time , Stage Position ,   Mass , Force 
   ,  (s) ,      (mm)      ,   (g)  , (mN)  

1 ,0.0000 ,0.84941 ,5.33274 ,52.32484 
2 ,0.2188 ,0.84946 ,5.33274 ,52.32484 
3 ,0.5710 ,0.85047 ,5.34985 ,52.49273 
4 ,0.7632 ,0.85207 ,5.34643 ,52.45915 
5 ,0.9391 ,0.85356 ,5.34643 ,52.45915 
6 ,1.1313 ,0.85547 ,5.34985 ,52.49273 
7 ,1.3072 ,0.85716 ,5.35669 ,52.55988 
8 ,1.4834 ,0.85892 ,5.34301 ,52.42557 
9 ,1.6595 ,0.86070 ,5.30878 ,52.08979 
10 ,1.8355 ,0.86257 ,5.30194 ,52.02263 
11 ,2.0117 ,0.86433 ,5.30536 ,52.05621 
12 ,2.1878 ,0.86605 ,5.28825 ,51.88832 
13 ,2.3639 ,0.86781 ,5.27456 ,51.75401 
14 ,2.5716 ,0.86980 ,5.26087 ,51.61969 
15 ,2.7480 ,0.87165 ,5.26430 ,51.65327 
16 ,2.9401 ,0.87356 ,5.22323 ,51.25033 
17 ,3.1159 ,0.87536 ,5.21981 ,51.21675 
18 ,3.2923 ,0.87710 ,5.21296 ,51.14960 
19 ,3.4844 ,0.87901 ,5.20270 ,51.04886 
20 ,3.6600 ,0.88080 ,5.16163 ,50.64592 
21 ,3.8365 ,0.88255 ,5.16848 ,50.71308 
22 ,4.0123 ,0.88437 ,5.15479 ,50.57876 
23 ,4.1726 ,0.88602 ,5.14110 ,50.44445 
24 ,4.3486 ,0.88765 ,5.13768 ,50.41087 
25 ,4.5246 ,0.88937 ,5.10688 ,50.10867 
26 ,4.7004 ,0.89112 ,5.10003 ,50.04151 
27 ,4.8769 ,0.89293 ,5.07265 ,49.77289 
28 ,5.0688 ,0.89485 ,5.07950 ,49.84004 
29 ,5.2449 ,0.89659 ,5.04528 ,49.50426 
30 ,5.4531 ,0.89864 ,5.04528 ,49.50426 
31 ,5.6291 ,0.90042 ,5.02474 ,49.30279 
32 ,5.8051 ,0.90215 ,4.99052 ,48.96701 
33 ,5.9812 ,0.90393 ,4.98026 ,48.86627 
34 ,6.1572 ,0.90570 ,4.96315 ,48.69838 
35 ,6.3333 ,0.90749 ,4.95972 ,48.66480 
36 ,6.5094 ,0.90922 ,4.93577 ,48.42975 
37 ,6.6854 ,0.91102 ,4.90155 ,48.09397 
38 ,6.8617 ,0.91278 ,4.89812 ,48.06039 
39 ,7.0537 ,0.91467 ,4.88101 ,47.89250 
40 ,7.2299 ,0.91647 ,4.88101 ,47.89250 
41 ,7.4059 ,0.91819 ,4.85364 ,47.62387 
42 ,7.5979 ,0.92007 ,4.82968 ,47.38883 
43 ,7.7742 ,0.92192 ,4.80915 ,47.18736 
44 ,7.9662 ,0.92378 ,4.77835 ,46.88515 
45 ,8.1744 ,0.92585 ,4.77493 ,46.85157 
46 ,8.3503 ,0.92772 ,4.74070 ,46.51579 
47 ,8.5267 ,0.92943 ,4.72017 ,46.31432 
48 ,8.7186 ,0.93131 ,4.71675 ,46.28074 
49 ,8.8941 ,0.93319 ,4.69279 ,46.04569 
50 ,9.0867 ,0.93491 ,4.68595 ,45.97854 
51 ,9.2787 ,0.93692 ,4.64146 ,45.54202 
52 ,9.4549 ,0.93870 ,4.65173 ,45.64275 
53 ,9.6469 ,0.94052 ,4.63119 ,45.44128 
54 ,9.8228 ,0.94235 ,4.61408 ,45.27339 
55 ,9.9990 ,0.94409 ,4.60040 ,45.13908 
56 ,10.1590 ,0.94581 ,4.59355 ,45.07192 
57 ,10.3352 ,0.94746 ,4.58328 ,44.97119 
58 ,10.5112 ,0.94923 ,4.56960 ,44.83688 
59 ,10.6873 ,0.95106 ,4.53537 ,44.50109 
60 ,10.8635 ,0.95280 ,4.50457 ,44.19889 
61 ,11.0394 ,0.95467 ,4.52169 ,44.36678 
62 ,11.2155 ,0.95627 ,4.49089 ,44.06457 
63 ,11.4075 ,0.95818 ,4.47035 ,43.86310 
64 ,11.5836 ,0.95995 ,4.44640 ,43.62806 
65 ,11.7597 ,0.96170 ,4.43271 ,43.49374 
66 ,11.9358 ,0.96349 ,4.42244 ,43.39301 
67 ,12.1114 ,0.96522 ,4.40875 ,43.25870 
68 ,12.2879 ,0.96703 ,4.38822 ,43.05723 
69 ,12.4798 ,0.96892 ,4.35400 ,42.72144 
70 ,12.6562 ,0.97070 ,4.36084 ,42.78860 
71 ,12.8321 ,0.97248 ,4.33347 ,42.51997 
72 ,13.0081 ,0.97423 ,4.31978 ,42.38566 
73 ,13.1842 ,0.97610 ,4.28898 ,42.08345 
74 ,13.3764 ,0.97782 ,4.29240 ,42.11703 
75 ,13.5524 ,0.97959 ,4.26845 ,41.88198 
76 ,13.7286 ,0.98142 ,4.24791 ,41.68051 
77 ,13.9046 ,0.98318 ,4.20685 ,41.27758 
78 ,14.0805 ,0.98487 ,4.20342 ,41.24400 
79 ,14.2888 ,0.98694 ,4.18631 ,41.07611 
80 ,14.4651 ,0.98881 ,4.16578 ,40.87464 
81 ,14.6409 ,0.99053 ,4.14867 ,40.70674 
82 ,14.8167 ,0.99226 ,4.14867 ,40.70674 
83 ,14.9931 ,0.99404 ,4.13840 ,40.60601 
84 ,15.1688 ,0.99579 ,4.10076 ,40.23665 
85 ,15.3449 ,0.99760 ,4.08707 ,40.10233 
86 ,15.5212 ,0.99929 ,4.06654 ,39.90087 
87 ,15.6972 ,1.00109 ,4.05969 ,39.83371 
88 ,15.8737 ,1.00290 ,4.04943 ,39.73297 
89 ,16.0491 ,1.00458 ,4.01863 ,39.43077 
90 ,16.2251 ,1.00633 ,3.99809 ,39.22930 
91 ,16.4011 ,1.00812 ,3.98441 ,39.09499 
92 ,16.5777 ,1.00987 ,3.97756 ,39.02783 
93 ,16.8019 ,1.01211 ,3.94676 ,38.72562 
94 ,17.0259 ,1.01428 ,3.93307 ,38.59131 
95 ,17.2019 ,1.01609 ,3.90912 ,38.35626 
96 ,17.3620 ,1.01783 ,3.90570 ,38.32268 
97 ,17.5380 ,1.01944 ,3.90227 ,38.28911 
98 ,17.7143 ,1.02122 ,3.88174 ,38.08764 
99 ,17.9223 ,1.02328 ,3.85779 ,37.85259 
100 ,18.0983 ,1.02506 ,3.83725 ,37.65112 
101 ,18.2744 ,1.02683 ,3.82699 ,37.55038 
102 ,18.4504 ,1.02861 ,3.79619 ,37.24818 
103 ,18.6264 ,1.03038 ,3.77565 ,37.04671 
104 ,18.8026 ,1.03214 ,3.77223 ,37.01313 
105 ,18.9948 ,1.03405 ,3.75170 ,36.81166 
106 ,19.1706 ,1.03583 ,3.73801 ,36.67735 
107 ,19.3469 ,1.03759 ,3.71063 ,36.40872 
108 ,19.5229 ,1.03931 ,3.70037 ,36.30799 
109 ,19.7150 ,1.04123 ,3.69010 ,36.20725 
110 ,19.8912 ,1.04298 ,3.66272 ,35.93863 
111 ,20.0673 ,1.04481 ,3.64219 ,35.73716 
112 ,20.2593 ,1.04673 ,3.64219 ,35.73716 
113 ,20.4353 ,1.04849 ,3.62850 ,35.60284 
114 ,20.6111 ,1.05020 ,3.60112 ,35.33422 
115 ,20.7874 ,1.05196 ,3.57375 ,35.06559 
116 ,20.9634 ,1.05371 ,3.57032 ,35.03201 
117 ,21.1551 ,1.05565 ,3.56006 ,34.93128 
118 ,21.3316 ,1.05738 ,3.52926 ,34.62907 
119 ,21.5234 ,1.05924 ,3.52584 ,34.59549 
120 ,21.6998 ,1.06112 ,3.50872 ,34.42760 
121 ,21.8918 ,1.06300 ,3.47792 ,34.12540 
122 ,22.0681 ,1.06477 ,3.44370 ,33.78961 
123 ,22.2440 ,1.06652 ,3.44370 ,33.78961 
124 ,22.4202 ,1.06834 ,3.44028 ,33.75604 
125 ,22.6122 ,1.07020 ,3.40264 ,33.38667 
126 ,22.7881 ,1.07193 ,3.39579 ,33.31952 
127 ,22.9644 ,1.07374 ,3.38210 ,33.18520 
128 ,23.1404 ,1.07546 ,3.37184 ,33.08447 
129 ,23.3161 ,1.07729 ,3.36499 ,33.01731 
130 ,23.4926 ,1.07894 ,3.33762 ,32.74869 
131 ,23.6843 ,1.08094 ,3.31708 ,32.54722 
132 ,23.8767 ,1.08277 ,3.28286 ,32.21143 
133 ,24.0528 ,1.08460 ,3.27944 ,32.17786 
134 ,24.2288 ,1.08635 ,3.26575 ,32.04354 
135 ,24.4209 ,1.08827 ,3.24522 ,31.84207 
136 ,24.5970 ,1.09008 ,3.24180 ,31.80849 
137 ,24.7731 ,1.09181 ,3.20757 ,31.47271 
138 ,24.9651 ,1.09378 ,3.19046 ,31.30482 
139 ,25.1410 ,1.09547 ,3.19388 ,31.33840 
140 ,25.3334 ,1.09738 ,3.15624 ,30.96904 
141 ,25.5094 ,1.09919 ,3.13571 ,30.76757 
142 ,25.6851 ,1.10094 ,3.13571 ,30.76757 
143 ,25.8616 ,1.10274 ,3.12202 ,30.63325 
144 ,26.0374 ,1.10451 ,3.10149 ,30.43178 
145 ,26.2137 ,1.10620 ,3.08095 ,30.23031 
146 ,26.3897 ,1.10800 ,3.06384 ,30.06242 
147 ,26.5819 ,1.10990 ,3.05358 ,29.96169 
148 ,26.7576 ,1.11166 ,3.04331 ,29.86095 
149 ,26.9340 ,1.11343 ,3.03304 ,29.76022 
150 ,27.1099 ,1.11516 ,2.99198 ,29.35728 
151 ,27.2861 ,1.11695 ,2.98171 ,29.25654 
152 ,27.4782 ,1.11885 ,2.98513 ,29.29012 
153 ,27.6543 ,1.12063 ,2.94749 ,28.92076 
154 ,27.8300 ,1.12235 ,2.94407 ,28.88718 
155 ,28.0225 ,1.12418 ,2.92011 ,28.65213 
156 ,28.1984 ,1.12617 ,2.90300 ,28.48424 
157 ,28.3581 ,1.12775 ,2.89273 ,28.38351 
158 ,28.5185 ,1.12937 ,2.88247 ,28.28277 
159 ,28.7106 ,1.13117 ,2.85851 ,28.04772 
160 ,28.8863 ,1.13291 ,2.85167 ,27.98057 
161 ,29.0626 ,1.13472 ,2.85167 ,27.98057 
162 ,29.2546 ,1.13654 ,2.82087 ,27.67836 
163 ,29.4304 ,1.13842 ,2.80034 ,27.47689 
164 ,29.5908 ,1.14009 ,2.79349 ,27.40974 
165 ,29.7666 ,1.14175 ,2.77296 ,27.20827 
166 ,29.9426 ,1.14347 ,2.76954 ,27.17469 
167 ,30.1187 ,1.14525 ,2.76611 ,27.14111 
168 ,30.2947 ,1.14699 ,2.74216 ,26.90606 
169 ,30.4708 ,1.14873 ,2.71136 ,26.60386 
170 ,30.6472 ,1.15057 ,2.69425 ,26.43597 
171 ,30.8717 ,1.15275 ,2.67029 ,26.20092 
172 ,31.0473 ,1.15459 ,2.66687 ,26.16734 
173 ,31.2237 ,1.15631 ,2.66003 ,26.10018 
174 ,31.4154 ,1.15822 ,2.64292 ,25.93229 
175 ,31.5918 ,1.15997 ,2.61554 ,25.66367 
176 ,31.7677 ,1.16176 ,2.59843 ,25.49577 
177 ,31.9439 ,1.16349 ,2.60527 ,25.56293 
178 ,32.1197 ,1.16521 ,2.59843 ,25.49577 
179 ,32.2961 ,1.16698 ,2.57105 ,25.22715 
180 ,32.4882 ,1.16890 ,2.54710 ,24.99210 
181 ,32.6963 ,1.17090 ,2.52998 ,24.82421 
182 ,32.8883 ,1.17295 ,2.51630 ,24.68989 
183 ,33.0805 ,1.17485 ,2.49918 ,24.52200 
184 ,33.2564 ,1.17661 ,2.49234 ,24.45485 
185 ,33.4325 ,1.17830 ,2.46496 ,24.18622 
186 ,33.6085 ,1.18012 ,2.44443 ,23.98475 
187 ,33.7847 ,1.18190 ,2.45812 ,24.11906 
188 ,33.9607 ,1.18368 ,2.43416 ,23.88402 
189 ,34.1370 ,1.18539 ,2.41363 ,23.68255 
190 ,34.3128 ,1.18718 ,2.38625 ,23.41392 
191 ,34.4885 ,1.18891 ,2.38625 ,23.41392 
192 ,34.6650 ,1.19071 ,2.38283 ,23.38034 
193 ,34.8411 ,1.19244 ,2.36572 ,23.21245 
194 ,35.0331 ,1.19438 ,2.33834 ,22.94382 
195 ,35.2092 ,1.19610 ,2.32808 ,22.84309 
196 ,35.3852 ,1.19786 ,2.32465 ,22.80951 
197 ,35.5613 ,1.19969 ,2.31097 ,22.67520 
198 ,35.7375 ,1.20141 ,2.28359 ,22.40657 
199 ,35.9135 ,1.20321 ,2.26990 ,22.27226 
200 ,36.1055 ,1.20508 ,2.24937 ,22.07079 
201 ,36.2814 ,1.20684 ,2.25963 ,22.17152 
202 ,36.4739 ,1.20875 ,2.21172 ,21.70143 
203 ,36.6819 ,1.21078 ,2.21515 ,21.73500 
204 ,36.8578 ,1.21258 ,2.20146 ,21.60069 
205 ,37.0500 ,1.21449 ,2.19119 ,21.49996 
206 ,37.2260 ,1.21632 ,2.17408 ,21.33206 
207 ,37.4017 ,1.21806 ,2.15697 ,21.16417 
208 ,37.5780 ,1.21980 ,2.14670 ,21.06344 
209 ,37.7543 ,1.22156 ,2.11932 ,20.79481 
210 ,37.9303 ,1.22336 ,2.10906 ,20.69408 
211 ,38.1062 ,1.22509 ,2.10564 ,20.66050 
212 ,38.2984 ,1.22696 ,2.08168 ,20.42545 
213 ,38.4742 ,1.22882 ,2.05773 ,20.19040 
214 ,38.6506 ,1.23054 ,2.05773 ,20.19040 
215 ,38.8266 ,1.23226 ,2.05088 ,20.12325 
216 ,39.0028 ,1.23405 ,2.03719 ,19.98893 
217 ,39.1951 ,1.23592 ,2.01666 ,19.78746 
218 ,39.3709 ,1.23776 ,1.99955 ,19.61957 
219 ,39.5469 ,1.23953 ,1.99270 ,19.55241 
220 ,39.7230 ,1.24124 ,1.98928 ,19.51884 
221 ,39.8987 ,1.24296 ,1.95164 ,19.14948 
222 ,40.0755 ,1.24477 ,1.94137 ,19.04874 
223 ,40.2671 ,1.24663 ,1.94822 ,19.11590 
224 ,40.4433 ,1.24845 ,1.93453 ,18.98158 
225 ,40.6033 ,1.25016 ,1.90715 ,18.71296 
226 ,40.7795 ,1.25182 ,1.89346 ,18.57864 
227 ,40.9555 ,1.25359 ,1.87635 ,18.41075 
228 ,41.1315 ,1.25539 ,1.86608 ,18.31002 
229 ,41.3074 ,1.25714 ,1.86266 ,18.27644 
230 ,41.4994 ,1.25896 ,1.84555 ,18.10855 
231 ,41.6757 ,1.26077 ,1.81817 ,17.83992 
232 ,41.8515 ,1.26256 ,1.81133 ,17.77276 
233 ,42.0437 ,1.26433 ,1.79422 ,17.60487 
234 ,42.2196 ,1.26619 ,1.78395 ,17.50414 
235 ,42.3961 ,1.26799 ,1.77026 ,17.36983 
236 ,42.5720 ,1.26978 ,1.76342 ,17.30267 
237 ,42.7482 ,1.27147 ,1.75657 ,17.23551 
238 ,42.9242 ,1.27329 ,1.74631 ,17.13478 
239 ,43.1003 ,1.27498 ,1.73604 ,17.03404 
240 ,43.2762 ,1.27678 ,1.69840 ,16.66468 
241 ,43.4523 ,1.27850 ,1.70182 ,16.69826 
242 ,43.6285 ,1.28030 ,1.69498 ,16.63110 
243 ,43.8046 ,1.28199 ,1.68129 ,16.49679 
244 ,43.9807 ,1.28382 ,1.66075 ,16.29532 
245 ,44.1569 ,1.28552 ,1.63680 ,16.06027 
246 ,44.3329 ,1.28733 ,1.63680 ,16.06027 
247 ,44.5246 ,1.28928 ,1.61969 ,15.89238 
248 ,44.7009 ,1.29099 ,1.60258 ,15.72449 
249 ,44.8929 ,1.29294 ,1.59916 ,15.69091 
250 ,45.0851 ,1.29482 ,1.57862 ,15.48944 
251 ,45.2611 ,1.29667 ,1.56493 ,15.35513 
252 ,45.4212 ,1.29832 ,1.54440 ,15.15366 
253 ,45.5974 ,1.29998 ,1.53756 ,15.08650 
254 ,45.7736 ,1.30176 ,1.53071 ,15.01934 
255 ,45.9652 ,1.30362 ,1.51018 ,14.81787 
256 ,46.1417 ,1.30539 ,1.50676 ,14.78430 
257 ,46.3337 ,1.30735 ,1.48965 ,14.61640 
258 ,46.5258 ,1.30926 ,1.48280 ,14.54925 
259 ,46.7019 ,1.31103 ,1.46227 ,14.34778 
260 ,46.8776 ,1.31289 ,1.44858 ,14.21346 
261 ,47.0539 ,1.31456 ,1.44174 ,14.14631 
262 ,47.2299 ,1.31626 ,1.43489 ,14.07915 
263 ,47.4221 ,1.31826 ,1.41094 ,13.84410 
264 ,47.5980 ,1.31995 ,1.40409 ,13.77695 
265 ,47.7902 ,1.32186 ,1.39383 ,13.67621 
266 ,47.9663 ,1.32362 ,1.37671 ,13.50832 
267 ,48.1424 ,1.32538 ,1.36303 ,13.37401 
268 ,48.3186 ,1.32715 ,1.33907 ,13.13896 
269 ,48.5106 ,1.32910 ,1.34249 ,13.17254 
270 ,48.6866 ,1.33089 ,1.31854 ,12.93749 
271 ,48.8628 ,1.33261 ,1.31512 ,12.90391 
272 ,49.0387 ,1.33436 ,1.28432 ,12.60171 
273 ,49.2149 ,1.33613 ,1.28774 ,12.63528 
274 ,49.3909 ,1.33791 ,1.28432 ,12.60171 
275 ,49.5671 ,1.33960 ,1.26720 ,12.43381 
276 ,49.7592 ,1.34158 ,1.23641 ,12.13161 
277 ,49.9351 ,1.34334 ,1.23641 ,12.13161 
278 ,50.1433 ,1.34532 ,1.21245 ,11.89656 
279 ,50.3190 ,1.34718 ,1.20218 ,11.79583 
280 ,50.4954 ,1.34894 ,1.18850 ,11.66151 
281 ,50.7032 ,1.35096 ,1.17481 ,11.52720 
282 ,50.8798 ,1.35271 ,1.16796 ,11.46004 
283 ,51.0556 ,1.35455 ,1.15085 ,11.29215 
284 ,51.2318 ,1.35630 ,1.15427 ,11.32573 
285 ,51.4079 ,1.35803 ,1.13716 ,11.15784 
286 ,51.5839 ,1.35983 ,1.11663 ,10.95637 
287 ,51.7600 ,1.36159 ,1.09610 ,10.75490 
288 ,51.9360 ,1.36328 ,1.10294 ,10.82206 
289 ,52.1278 ,1.36518 ,1.08241 ,10.62059 
290 ,52.2881 ,1.36698 ,1.06187 ,10.41912 
291 ,52.4643 ,1.36859 ,1.04134 ,10.21765 
292 ,52.6564 ,1.37053 ,1.04476 ,10.25123 
293 ,52.8484 ,1.37248 ,1.03450 ,10.15049 
294 ,53.0241 ,1.37423 ,1.02081 ,10.01618 
295 ,53.2002 ,1.37593 ,1.00370 ,9.84829 
296 ,53.3767 ,1.37774 ,0.98659 ,9.68039 
297 ,53.5689 ,1.37961 ,0.97632 ,9.57966 
298 ,53.7607 ,1.38156 ,0.96263 ,9.44535 
299 ,53.9368 ,1.38331 ,0.96263 ,9.44535 
300 ,54.1129 ,1.38507 ,0.94552 ,9.27745 
301 ,54.2888 ,1.38682 ,0.94210 ,9.24388 
302 ,54.4649 ,1.38860 ,0.92157 ,9.04241 
303 ,54.6251 ,1.39033 ,0.90103 ,8.84094 
304 ,54.8013 ,1.39192 ,0.90788 ,8.90809 
305 ,54.9933 ,1.39379 ,0.88050 ,8.63947 
306 ,55.1690 ,1.39567 ,0.88050 ,8.63947 
307 ,55.3291 ,1.39736 ,0.85312 ,8.37084 
308 ,55.5056 ,1.39901 ,0.85654 ,8.40442 
309 ,55.6816 ,1.40081 ,0.83601 ,8.20295 
310 ,55.8736 ,1.40269 ,0.83601 ,8.20295 
311 ,56.0498 ,1.40447 ,0.80863 ,7.93432 
312 ,56.2259 ,1.40619 ,0.78810 ,7.73285 
313 ,56.4015 ,1.40798 ,0.78810 ,7.73285 
314 ,56.5781 ,1.40978 ,0.78126 ,7.66570 
315 ,56.7541 ,1.41150 ,0.76757 ,7.53138 
316 ,56.9301 ,1.41330 ,0.77784 ,7.63212 
317 ,57.1062 ,1.41502 ,0.73677 ,7.22918 
318 ,57.2983 ,1.41696 ,0.73335 ,7.19560 
319 ,57.4744 ,1.41867 ,0.72992 ,7.16202 
320 ,57.6664 ,1.42055 ,0.68886 ,6.75908 
321 ,57.8424 ,1.42234 ,0.68201 ,6.69193 
322 ,58.0187 ,1.42415 ,0.67517 ,6.62477 
323 ,58.2427 ,1.42622 ,0.66148 ,6.49046 
324 ,58.4186 ,1.42814 ,0.65806 ,6.45688 
325 ,58.5947 ,1.43002 ,0.64095 ,6.28899 
326 ,58.7709 ,1.43170 ,0.63068 ,6.18825 
327 ,58.9630 ,1.43346 ,0.61015 ,5.98678 
328 ,59.1389 ,1.43534 ,0.60330 ,5.91962 
329 ,59.3151 ,1.43709 ,0.59988 ,5.88605 
330 ,59.4912 ,1.43883 ,0.58619 ,5.75173 
331 ,59.6512 ,1.44058 ,0.56566 ,5.55026 
332 ,59.8433 ,1.44234 ,0.54171 ,5.31522 
333 ,60.0194 ,1.44415 ,0.53144 ,5.21448 
334 ,60.1955 ,1.44584 ,0.53828 ,5.28164 
335 ,60.3716 ,1.44775 ,0.51775 ,5.08017 
336 ,60.5636 ,1.44952 ,0.49722 ,4.87870 
337 ,60.7554 ,1.45146 ,0.50064 ,4.91228 
338 ,60.9477 ,1.45345 ,0.47326 ,4.64365 
339 ,61.1237 ,1.45518 ,0.45615 ,4.47576 
340 ,61.3319 ,1.45715 ,0.44588 ,4.37502 
341 ,61.5079 ,1.45904 ,0.44246 ,4.34144 
342 ,61.6997 ,1.46095 ,0.42535 ,4.17355 
343 ,61.8760 ,1.46266 ,0.42535 ,4.17355 
344 ,62.0521 ,1.46448 ,0.41509 ,4.07282 
345 ,62.2442 ,1.46639 ,0.38429 ,3.77061 
346 ,62.4203 ,1.46809 ,0.39113 ,3.83777 
347 ,62.5962 ,1.46989 ,0.39113 ,3.83777 
348 ,62.7721 ,1.47164 ,0.36375 ,3.56914 
349 ,62.9486 ,1.47340 ,0.34664 ,3.40125 
350 ,63.1404 ,1.47532 ,0.33295 ,3.26694 
351 ,63.3169 ,1.47710 ,0.33638 ,3.30052 
352 ,63.4929 ,1.47888 ,0.32269 ,3.16620 
353 ,63.6849 ,1.48077 ,0.29531 ,2.89758 
354 ,63.8607 ,1.48251 ,0.29189 ,2.86400 
355 ,64.0370 ,1.48430 ,0.28504 ,2.79684 
356 ,64.2128 ,1.48608 ,0.27135 ,2.66253 
357 ,64.3892 ,1.48781 ,0.25082 ,2.46106 
358 ,64.5811 ,1.48971 ,0.24055 ,2.36032 
359 ,64.7733 ,1.49159 ,0.23371 ,2.29317 
360 ,64.9492 ,1.49340 ,0.21660 ,2.12528 
361 ,65.1254 ,1.49526 ,0.21660 ,2.12528 
362 ,65.3014 ,1.49688 ,0.20633 ,2.02454 
363 ,65.4772 ,1.49867 ,0.18922 ,1.85665 
364 ,65.6534 ,1.50041 ,0.18580 ,1.82307 
365 ,65.8297 ,1.50222 ,0.15500 ,1.52087 
366 ,66.0059 ,1.50392 ,0.13447 ,1.31940 
367 ,66.1820 ,1.50577 ,0.13447 ,1.31940 
368 ,66.3581 ,1.50752 ,0.14131 ,1.38655 
369 ,66.5502 ,1.50937 ,0.09682 ,0.95004 
370 ,66.7262 ,1.51118 ,0.08656 ,0.84930 
371 ,66.9021 ,1.51296 ,0.09340 ,0.91646 
372 ,67.0943 ,1.51472 ,0.09682 ,0.95004 
373 ,67.2861 ,1.51678 ,0.04891 ,0.47994 
374 ,67.4624 ,1.51855 ,0.05918 ,0.58067 
375 ,67.6384 ,1.52025 ,0.05576 ,0.54710 
376 ,67.8147 ,1.52207 ,0.04207 ,0.41278 
377 ,67.9903 ,1.52379 ,0.01127 ,0.11058 
378 ,68.1669 ,1.52562 ,0.00785 ,0.07700 
379 ,68.3749 ,1.52755 ,0.01469 ,0.14416 
380 ,68.5670 ,1.52956 ,-0.01611 ,-0.15805 
381 ,68.7431 ,1.53140 ,-0.02637 ,-0.25878 
382 ,68.9189 ,1.53310 ,-0.02980 ,-0.29236 
383 ,69.0948 ,1.53484 ,-0.04006 ,-0.39310 
384 ,69.2710 ,1.53661 ,-0.06402 ,-0.62814 
385 ,69.4472 ,1.53839 ,-0.08455 ,-0.82961 
386 ,69.6232 ,1.54014 ,-0.08113 ,-0.79604 
387 ,69.7994 ,1.54195 ,-0.08113 ,-0.79604 
388 ,69.9754 ,1.54368 ,-0.09140 ,-0.89677 
389 ,70.1512 ,1.54537 ,-0.11877 ,-1.16540 
390 ,70.3276 ,1.54720 ,-0.13931 ,-1.36687 
391 ,70.5036 ,1.54892 ,-0.13588 ,-1.33329 
392 ,70.6799 ,1.55069 ,-0.14273 ,-1.40045 
393 ,70.8717 ,1.55266 ,-0.16326 ,-1.60191 
394 ,71.0478 ,1.55434 ,-0.18037 ,-1.76981 
395 ,71.2239 ,1.55612 ,-0.18379 ,-1.80338 
396 ,71.4160 ,1.55795 ,-0.17695 ,-1.73623 
397 ,71.6081 ,1.56001 ,-0.20775 ,-2.03843 
398 ,71.7840 ,1.56174 ,-0.21459 ,-2.10559 
399 ,71.9603 ,1.56348 ,-0.22144 ,-2.17275 
400 ,72.1202 ,1.56524 ,-0.24197 ,-2.37422 
401 ,72.2962 ,1.56683 ,-0.24197 ,-2.37422 
402 ,72.4728 ,1.56862 ,-0.25566 ,-2.50853 
403 ,72.6485 ,1.57036 ,-0.27961 ,-2.74358 
404 ,72.8406 ,1.57228 ,-0.25908 ,-2.54211 
405 ,73.0167 ,1.57407 ,-0.30015 ,-2.94505 
406 ,73.2087 ,1.57595 ,-0.30699 ,-3.01220 
407 ,73.3687 ,1.57769 ,-0.31384 ,-3.07936 
408 ,73.5607 ,1.57947 ,-0.31041 ,-3.04578 
409 ,73.7369 ,1.58123 ,-0.31726 ,-3.11294 
410 ,73.9129 ,1.58304 ,-0.33437 ,-3.28083 
411 ,74.0891 ,1.58477 ,-0.35832 ,-3.51588 
412 ,74.2652 ,1.58659 ,-0.37544 ,-3.68377 
413 ,74.4732 ,1.58858 ,-0.37201 ,-3.65019 
414 ,74.6494 ,1.59040 ,-0.38912 ,-3.81808 
415 ,74.8253 ,1.59216 ,-0.40966 ,-4.01955 
416 ,75.0012 ,1.59390 ,-0.39255 ,-3.85166 
417 ,75.1771 ,1.59564 ,-0.40623 ,-3.98597 
418 ,75.3371 ,1.59736 ,-0.44046 ,-4.32176 
419 ,75.5135 ,1.59904 ,-0.43361 ,-4.25460 
420 ,75.7057 ,1.60099 ,-0.45757 ,-4.48965 
421 ,75.8819 ,1.60268 ,-0.45757 ,-4.48965 
422 ,76.0578 ,1.60448 ,-0.46099 ,-4.52323 
423 ,76.2338 ,1.60617 ,-0.48152 ,-4.72470 
424 ,76.4098 ,1.60799 ,-0.49863 ,-4.89259 
425 ,76.6016 ,1.60987 ,-0.49863 ,-4.89259 
426 ,76.7777 ,1.61165 ,-0.51574 ,-5.06048 
427 ,76.9539 ,1.61337 ,-0.51917 ,-5.09406 
428 ,77.1463 ,1.61537 ,-0.52601 ,-5.16121 
429 ,77.3383 ,1.61720 ,-0.54654 ,-5.36268 
430 ,77.5304 ,1.61914 ,-0.55681 ,-5.46342 
431 ,77.7063 ,1.62096 ,-0.57050 ,-5.59773 
432 ,77.8986 ,1.62281 ,-0.58077 ,-5.69847 
433 ,78.0745 ,1.62459 ,-0.60472 ,-5.93352 
434 ,78.2507 ,1.62636 ,-0.61499 ,-6.03425 
435 ,78.4268 ,1.62815 ,-0.60472 ,-5.93352 
436 ,78.6189 ,1.63006 ,-0.61841 ,-6.06783 
437 ,78.7949 ,1.63179 ,-0.63210 ,-6.20214 
438 ,78.9710 ,1.63361 ,-0.65605 ,-6.43719 
439 ,79.1470 ,1.63532 ,-0.64921 ,-6.37003 
440 ,79.3231 ,1.63702 ,-0.65605 ,-6.43719 
441 ,79.4992 ,1.63880 ,-0.67316 ,-6.60508 
442 ,79.6752 ,1.64058 ,-0.69027 ,-6.77297 
443 ,79.8513 ,1.64237 ,-0.70396 ,-6.90729 
444 ,80.0272 ,1.64415 ,-0.71423 ,-7.00802 
445 ,80.2194 ,1.64603 ,-0.70396 ,-6.90729 
446 ,80.3954 ,1.64781 ,-0.74503 ,-7.31023 
447 ,80.5876 ,1.64971 ,-0.73476 ,-7.20949 
448 ,80.7638 ,1.65153 ,-0.73134 ,-7.17591 
449 ,80.9557 ,1.65339 ,-0.76556 ,-7.51170 
450 ,81.1319 ,1.65516 ,-0.77925 ,-7.64601 
451 ,81.3078 ,1.65698 ,-0.78267 ,-7.67959 
452 ,81.5160 ,1.65892 ,-0.79294 ,-7.78032 
453 ,81.6917 ,1.66080 ,-0.81689 ,-8.01537 
454 ,81.8682 ,1.66255 ,-0.81689 ,-8.01537 
455 ,82.0443 ,1.66432 ,-0.82716 ,-8.11611 
456 ,82.2203 ,1.66609 ,-0.82374 ,-8.08253 
457 ,82.4123 ,1.66794 ,-0.86481 ,-8.48547 
458 ,82.5882 ,1.66972 ,-0.85796 ,-8.41831 
459 ,82.7640 ,1.67154 ,-0.86823 ,-8.51904 
460 ,82.9565 ,1.67342 ,-0.87165 ,-8.55262 
461 ,83.1485 ,1.67526 ,-0.87849 ,-8.61978 
462 ,83.3248 ,1.67706 ,-0.89218 ,-8.75409 
463 ,83.5165 ,1.67899 ,-0.92298 ,-9.05630 
