Data stamp = , 31-03-2022 12:05:48 667

Calibration Values: 
Slope = , 26.54 , g/V 
Offset Voltage at no contact = , -0.501760 , V 

No , Time , Stage Position ,   Mass , Force 
   ,  (s) ,      (mm)      ,   (g)  , (mN)  

1 ,0.0000 ,0.84949 ,5.37038 ,52.69420 
2 ,0.2030 ,0.84958 ,5.36012 ,52.59346 
3 ,0.6670 ,0.85086 ,5.39434 ,52.92925 
4 ,0.8434 ,0.85277 ,5.37381 ,52.72778 
5 ,1.0355 ,0.85464 ,5.38065 ,52.79493 
6 ,1.2115 ,0.85634 ,5.38065 ,52.79493 
7 ,1.3878 ,0.85809 ,5.37038 ,52.69420 
8 ,1.5797 ,0.85997 ,5.36696 ,52.66062 
9 ,1.7557 ,0.86184 ,5.34985 ,52.49273 
10 ,1.9318 ,0.86356 ,5.33616 ,52.35841 
11 ,2.1079 ,0.86535 ,5.32589 ,52.25768 
12 ,2.2836 ,0.86707 ,5.29852 ,51.98905 
13 ,2.4601 ,0.86886 ,5.28483 ,51.85474 
14 ,2.6361 ,0.87066 ,5.27798 ,51.78758 
15 ,2.8282 ,0.87254 ,5.26087 ,51.61969 
16 ,3.0042 ,0.87436 ,5.23692 ,51.38464 
17 ,3.1965 ,0.87611 ,5.24034 ,51.41822 
18 ,3.3725 ,0.87799 ,5.22323 ,51.25033 
19 ,3.5485 ,0.87975 ,5.20612 ,51.08244 
20 ,3.7246 ,0.88150 ,5.18559 ,50.88097 
21 ,3.9166 ,0.88345 ,5.17532 ,50.78023 
22 ,4.1088 ,0.88530 ,5.15821 ,50.61234 
23 ,4.2849 ,0.88716 ,5.13768 ,50.41087 
24 ,4.4609 ,0.88888 ,5.12399 ,50.27656 
25 ,4.6370 ,0.89064 ,5.11714 ,50.20940 
26 ,4.8287 ,0.89255 ,5.09319 ,49.97436 
27 ,5.0052 ,0.89431 ,5.06923 ,49.73931 
28 ,5.2293 ,0.89644 ,5.04528 ,49.50426 
29 ,5.4213 ,0.89844 ,5.05554 ,49.60499 
30 ,5.5972 ,0.90020 ,5.03159 ,49.36995 
31 ,5.7736 ,0.90198 ,5.00763 ,49.13490 
32 ,5.9655 ,0.90398 ,5.00079 ,49.06774 
33 ,6.1415 ,0.90567 ,4.96315 ,48.69838 
34 ,6.3178 ,0.90745 ,4.95972 ,48.66480 
35 ,6.4943 ,0.90919 ,4.94946 ,48.56407 
36 ,6.6859 ,0.91105 ,4.90497 ,48.12755 
37 ,6.8778 ,0.91303 ,4.90155 ,48.09397 
38 ,7.0379 ,0.91470 ,4.87417 ,47.82534 
39 ,7.2141 ,0.91642 ,4.86732 ,47.75819 
40 ,7.4061 ,0.91823 ,4.84337 ,47.52314 
41 ,7.5819 ,0.92001 ,4.82626 ,47.35525 
42 ,7.7742 ,0.92192 ,4.79546 ,47.05304 
43 ,7.9503 ,0.92374 ,4.77493 ,46.85157 
44 ,8.1263 ,0.92545 ,4.76124 ,46.71726 
45 ,8.3346 ,0.92756 ,4.73728 ,46.48221 
46 ,8.5102 ,0.92934 ,4.72702 ,46.38148 
47 ,8.6865 ,0.93109 ,4.70306 ,46.14643 
48 ,8.8624 ,0.93285 ,4.68595 ,45.97854 
49 ,9.0384 ,0.93461 ,4.69279 ,46.04569 
50 ,9.2307 ,0.93642 ,4.67226 ,45.84422 
51 ,9.4070 ,0.93833 ,4.64488 ,45.57560 
52 ,9.5829 ,0.94011 ,4.62435 ,45.37413 
53 ,9.7750 ,0.94200 ,4.61751 ,45.30697 
54 ,9.9510 ,0.94371 ,4.59697 ,45.10550 
55 ,10.1268 ,0.94544 ,4.56960 ,44.83688 
56 ,10.3031 ,0.94722 ,4.56617 ,44.80330 
57 ,10.4791 ,0.94901 ,4.56617 ,44.80330 
58 ,10.6713 ,0.95097 ,4.52853 ,44.43394 
59 ,10.8634 ,0.95289 ,4.52169 ,44.36678 
60 ,11.0555 ,0.95476 ,4.49773 ,44.13173 
61 ,11.2312 ,0.95655 ,4.47378 ,43.89668 
62 ,11.4073 ,0.95828 ,4.45324 ,43.69521 
63 ,11.5835 ,0.96008 ,4.44640 ,43.62806 
64 ,11.7759 ,0.96188 ,4.44298 ,43.59448 
65 ,11.9517 ,0.96375 ,4.40533 ,43.22512 
66 ,12.1280 ,0.96546 ,4.38480 ,43.02365 
67 ,12.3038 ,0.96723 ,4.37453 ,42.92291 
68 ,12.4801 ,0.96898 ,4.37453 ,42.92291 
69 ,12.6879 ,0.97095 ,4.34373 ,42.62071 
70 ,12.8642 ,0.97283 ,4.32320 ,42.41924 
71 ,13.0405 ,0.97467 ,4.31293 ,42.31850 
72 ,13.2324 ,0.97658 ,4.27871 ,41.98272 
73 ,13.4085 ,0.97831 ,4.24449 ,41.64694 
74 ,13.6006 ,0.98021 ,4.26160 ,41.81483 
75 ,13.7766 ,0.98201 ,4.23422 ,41.54620 
76 ,13.9525 ,0.98373 ,4.20342 ,41.24400 
77 ,14.1449 ,0.98561 ,4.21369 ,41.34473 
78 ,14.3366 ,0.98755 ,4.17262 ,40.94179 
79 ,14.5128 ,0.98936 ,4.14867 ,40.70674 
80 ,14.6895 ,0.99114 ,4.13156 ,40.53885 
81 ,14.8651 ,0.99284 ,4.14183 ,40.63959 
82 ,15.0410 ,0.99464 ,4.12129 ,40.43812 
83 ,15.2173 ,0.99637 ,4.09049 ,40.13591 
84 ,15.4089 ,0.99831 ,4.07338 ,39.96802 
85 ,15.5853 ,1.00007 ,4.07338 ,39.96802 
86 ,15.7614 ,1.00182 ,4.04600 ,39.69940 
87 ,15.9376 ,1.00357 ,4.02889 ,39.53150 
88 ,16.1296 ,1.00548 ,4.00836 ,39.33003 
89 ,16.3217 ,1.00748 ,3.99467 ,39.19572 
90 ,16.4982 ,1.00927 ,3.96729 ,38.92709 
91 ,16.6739 ,1.01093 ,3.95361 ,38.79278 
92 ,16.8657 ,1.01288 ,3.95361 ,38.79278 
93 ,17.0419 ,1.01460 ,3.93992 ,38.65847 
94 ,17.2180 ,1.01637 ,3.90570 ,38.32268 
95 ,17.3940 ,1.01809 ,3.89543 ,38.22195 
96 ,17.5701 ,1.01985 ,3.88516 ,38.12122 
97 ,17.7463 ,1.02166 ,3.86463 ,37.91975 
98 ,17.9703 ,1.02374 ,3.84067 ,37.68470 
99 ,18.1464 ,1.02567 ,3.83383 ,37.61754 
100 ,18.3545 ,1.02765 ,3.80987 ,37.38249 
101 ,18.5304 ,1.02952 ,3.79619 ,37.24818 
102 ,18.7226 ,1.03145 ,3.79276 ,37.21460 
103 ,18.9146 ,1.03329 ,3.75512 ,36.84524 
104 ,19.0907 ,1.03510 ,3.75170 ,36.81166 
105 ,19.2988 ,1.03712 ,3.71405 ,36.44230 
106 ,19.4748 ,1.03895 ,3.70379 ,36.34157 
107 ,19.6507 ,1.04067 ,3.69352 ,36.24083 
108 ,19.8270 ,1.04244 ,3.67983 ,36.10652 
109 ,20.0029 ,1.04418 ,3.65930 ,35.90505 
110 ,20.1951 ,1.04607 ,3.64903 ,35.80431 
111 ,20.3709 ,1.04787 ,3.62850 ,35.60284 
112 ,20.5473 ,1.04960 ,3.61823 ,35.50211 
113 ,20.7393 ,1.05157 ,3.58743 ,35.19990 
114 ,20.9314 ,1.05349 ,3.59086 ,35.23348 
115 ,21.1075 ,1.05526 ,3.56006 ,34.93128 
116 ,21.2997 ,1.05718 ,3.52584 ,34.59549 
117 ,21.4922 ,1.05912 ,3.52584 ,34.59549 
118 ,21.6678 ,1.06088 ,3.51899 ,34.52834 
119 ,21.8437 ,1.06262 ,3.49504 ,34.29329 
120 ,22.0199 ,1.06438 ,3.47450 ,34.09182 
121 ,22.1958 ,1.06609 ,3.44713 ,33.82319 
122 ,22.3720 ,1.06788 ,3.45397 ,33.89035 
123 ,22.5481 ,1.06963 ,3.43686 ,33.72246 
124 ,22.7239 ,1.07139 ,3.40606 ,33.42025 
125 ,22.9003 ,1.07318 ,3.38553 ,33.21878 
126 ,23.0763 ,1.07493 ,3.37526 ,33.11805 
127 ,23.2685 ,1.07683 ,3.37184 ,33.08447 
128 ,23.4605 ,1.07869 ,3.34104 ,32.78227 
129 ,23.6365 ,1.08053 ,3.32393 ,32.61437 
130 ,23.8125 ,1.08234 ,3.31366 ,32.51364 
131 ,24.0045 ,1.08420 ,3.29313 ,32.31217 
132 ,24.1967 ,1.08611 ,3.27259 ,32.11070 
133 ,24.3730 ,1.08793 ,3.26917 ,32.07712 
134 ,24.5650 ,1.08984 ,3.23837 ,31.77492 
135 ,24.7411 ,1.09162 ,3.21442 ,31.53987 
136 ,24.9331 ,1.09350 ,3.21784 ,31.57345 
137 ,25.1092 ,1.09522 ,3.18362 ,31.23766 
138 ,25.3013 ,1.09712 ,3.16993 ,31.10335 
139 ,25.4773 ,1.09895 ,3.14255 ,30.83472 
140 ,25.6534 ,1.10070 ,3.14597 ,30.86830 
141 ,25.8295 ,1.10245 ,3.13571 ,30.76757 
142 ,26.0055 ,1.10422 ,3.11175 ,30.53252 
143 ,26.1816 ,1.10602 ,3.08780 ,30.29747 
144 ,26.3577 ,1.10771 ,3.09122 ,30.33105 
145 ,26.5338 ,1.10951 ,3.06384 ,30.06242 
146 ,26.7099 ,1.11130 ,3.03989 ,29.82737 
147 ,26.9020 ,1.11316 ,3.01251 ,29.55875 
148 ,27.0780 ,1.11494 ,3.00224 ,29.45801 
149 ,27.2542 ,1.11668 ,3.00909 ,29.52517 
150 ,27.4302 ,1.11851 ,2.98513 ,29.29012 
151 ,27.6063 ,1.12025 ,2.97144 ,29.15581 
152 ,27.7983 ,1.12211 ,2.94064 ,28.85360 
153 ,27.9744 ,1.12386 ,2.95091 ,28.95434 
154 ,28.1823 ,1.12590 ,2.92011 ,28.65213 
155 ,28.3586 ,1.12775 ,2.90300 ,28.48424 
156 ,28.5665 ,1.12972 ,2.89273 ,28.38351 
157 ,28.7908 ,1.13194 ,2.87562 ,28.21562 
158 ,28.9828 ,1.13396 ,2.84482 ,27.91341 
159 ,29.1587 ,1.13571 ,2.83798 ,27.84625 
160 ,29.3510 ,1.13755 ,2.82429 ,27.71194 
161 ,29.5430 ,1.13958 ,2.79349 ,27.40974 
162 ,29.7186 ,1.14137 ,2.79007 ,27.37616 
163 ,29.8951 ,1.14309 ,2.77638 ,27.24185 
164 ,30.0711 ,1.14485 ,2.76269 ,27.10753 
165 ,30.2633 ,1.14675 ,2.73189 ,26.80533 
166 ,30.4715 ,1.14876 ,2.73189 ,26.80533 
167 ,30.6635 ,1.15080 ,2.69767 ,26.46954 
168 ,30.8716 ,1.15278 ,2.69425 ,26.43597 
169 ,31.0637 ,1.15479 ,2.66687 ,26.16734 
170 ,31.2396 ,1.15657 ,2.66345 ,26.13376 
171 ,31.4317 ,1.15833 ,2.65660 ,26.06661 
172 ,31.6075 ,1.16021 ,2.62923 ,25.79798 
173 ,31.7840 ,1.16198 ,2.60527 ,25.56293 
174 ,31.9599 ,1.16377 ,2.59843 ,25.49577 
175 ,32.1521 ,1.16559 ,2.57447 ,25.26073 
176 ,32.3601 ,1.16758 ,2.58816 ,25.39504 
177 ,32.5523 ,1.16966 ,2.56078 ,25.12641 
178 ,32.7443 ,1.17150 ,2.52998 ,24.82421 
179 ,32.9204 ,1.17335 ,2.52656 ,24.79063 
180 ,33.0965 ,1.17514 ,2.51630 ,24.68989 
181 ,33.2721 ,1.17696 ,2.49576 ,24.48842 
182 ,33.4487 ,1.17862 ,2.48207 ,24.35411 
183 ,33.6243 ,1.18040 ,2.46154 ,24.15264 
184 ,33.8007 ,1.18211 ,2.46496 ,24.18622 
185 ,33.9768 ,1.18386 ,2.45470 ,24.08549 
186 ,34.1530 ,1.18562 ,2.43074 ,23.85044 
187 ,34.3606 ,1.18767 ,2.42390 ,23.78328 
188 ,34.5371 ,1.18951 ,2.41363 ,23.68255 
189 ,34.7293 ,1.19142 ,2.38283 ,23.38034 
190 ,34.9213 ,1.19334 ,2.37256 ,23.27961 
191 ,35.0975 ,1.19508 ,2.36914 ,23.24603 
192 ,35.2895 ,1.19705 ,2.32123 ,22.77593 
193 ,35.4652 ,1.19878 ,2.32465 ,22.80951 
194 ,35.6415 ,1.20052 ,2.31781 ,22.74235 
195 ,35.8175 ,1.20228 ,2.30412 ,22.60804 
196 ,35.9936 ,1.20409 ,2.28701 ,22.44015 
197 ,36.2017 ,1.20604 ,2.26648 ,22.23868 
198 ,36.3779 ,1.20788 ,2.26990 ,22.27226 
199 ,36.5539 ,1.20967 ,2.24252 ,22.00363 
200 ,36.7461 ,1.21159 ,2.22883 ,21.86932 
201 ,36.9381 ,1.21349 ,2.22541 ,21.83574 
202 ,37.1139 ,1.21525 ,2.20488 ,21.63427 
203 ,37.2900 ,1.21703 ,2.19119 ,21.49996 
204 ,37.4500 ,1.21874 ,2.17750 ,21.36564 
205 ,37.6260 ,1.22038 ,2.14670 ,21.06344 
206 ,37.8021 ,1.22213 ,2.14670 ,21.06344 
207 ,37.9782 ,1.22388 ,2.13986 ,20.99628 
208 ,38.1867 ,1.22589 ,2.11248 ,20.72766 
209 ,38.3626 ,1.22777 ,2.11932 ,20.79481 
210 ,38.5546 ,1.22958 ,2.10221 ,20.62692 
211 ,38.7469 ,1.23161 ,2.07141 ,20.32472 
212 ,38.9387 ,1.23350 ,2.06457 ,20.25756 
213 ,39.1150 ,1.23525 ,2.04746 ,20.08967 
214 ,39.2911 ,1.23706 ,2.02350 ,19.85462 
215 ,39.4672 ,1.23881 ,2.01666 ,19.78746 
216 ,39.6429 ,1.24058 ,2.01666 ,19.78746 
217 ,39.8194 ,1.24230 ,2.00639 ,19.68673 
218 ,40.0110 ,1.24424 ,1.96533 ,19.28379 
219 ,40.1874 ,1.24598 ,1.98244 ,19.45168 
220 ,40.3635 ,1.24768 ,1.96533 ,19.28379 
221 ,40.5395 ,1.24946 ,1.95164 ,19.14948 
222 ,40.7313 ,1.25146 ,1.91399 ,18.78011 
223 ,40.9079 ,1.25322 ,1.91742 ,18.81369 
224 ,41.0838 ,1.25496 ,1.90373 ,18.67938 
225 ,41.2597 ,1.25668 ,1.89346 ,18.57864 
226 ,41.4358 ,1.25844 ,1.88319 ,18.47791 
227 ,41.6119 ,1.26022 ,1.85240 ,18.17570 
228 ,41.8039 ,1.26208 ,1.84897 ,18.14213 
229 ,42.0119 ,1.26409 ,1.82844 ,17.94066 
230 ,42.2202 ,1.26627 ,1.81475 ,17.80634 
231 ,42.3963 ,1.26812 ,1.80791 ,17.73919 
232 ,42.5883 ,1.26997 ,1.80106 ,17.67203 
233 ,42.7645 ,1.27170 ,1.78053 ,17.47056 
234 ,42.9565 ,1.27363 ,1.74631 ,17.13478 
235 ,43.1486 ,1.27558 ,1.74631 ,17.13478 
236 ,43.3246 ,1.27734 ,1.73604 ,17.03404 
237 ,43.5008 ,1.27911 ,1.72920 ,16.96689 
238 ,43.6766 ,1.28086 ,1.70524 ,16.73184 
239 ,43.8689 ,1.28266 ,1.69155 ,16.59752 
240 ,44.0450 ,1.28456 ,1.69155 ,16.59752 
241 ,44.2369 ,1.28645 ,1.66760 ,16.36248 
242 ,44.4291 ,1.28828 ,1.65391 ,16.22816 
243 ,44.6212 ,1.29030 ,1.65391 ,16.22816 
244 ,44.7975 ,1.29207 ,1.63338 ,16.02669 
245 ,44.9731 ,1.29380 ,1.61284 ,15.82522 
246 ,45.1495 ,1.29553 ,1.60600 ,15.75807 
247 ,45.3255 ,1.29739 ,1.59916 ,15.69091 
248 ,45.5017 ,1.29912 ,1.59916 ,15.69091 
249 ,45.6935 ,1.30103 ,1.54440 ,15.15366 
250 ,45.8696 ,1.30276 ,1.55124 ,15.22081 
251 ,46.0454 ,1.30451 ,1.54782 ,15.18724 
252 ,46.2217 ,1.30631 ,1.52387 ,14.95219 
253 ,46.3980 ,1.30810 ,1.51018 ,14.81787 
254 ,46.5580 ,1.30980 ,1.48965 ,14.61640 
255 ,46.7337 ,1.31138 ,1.49307 ,14.64998 
256 ,46.9101 ,1.31317 ,1.47596 ,14.48209 
257 ,47.0860 ,1.31495 ,1.46911 ,14.41493 
258 ,47.2623 ,1.31670 ,1.45885 ,14.31420 
259 ,47.4704 ,1.31874 ,1.44858 ,14.21346 
260 ,47.6466 ,1.32053 ,1.43147 ,14.04557 
261 ,47.8224 ,1.32232 ,1.42120 ,13.94484 
262 ,48.0144 ,1.32426 ,1.39040 ,13.64263 
263 ,48.1906 ,1.32607 ,1.38698 ,13.60906 
264 ,48.3667 ,1.32769 ,1.38014 ,13.54190 
265 ,48.5428 ,1.32951 ,1.36303 ,13.37401 
266 ,48.7189 ,1.33126 ,1.33907 ,13.13896 
267 ,48.8953 ,1.33304 ,1.33565 ,13.10538 
268 ,49.0870 ,1.33498 ,1.33223 ,13.07180 
269 ,49.2631 ,1.33670 ,1.31169 ,12.87033 
270 ,49.4390 ,1.33843 ,1.27747 ,12.53455 
271 ,49.6153 ,1.34021 ,1.29116 ,12.66886 
272 ,49.7915 ,1.34202 ,1.28089 ,12.56813 
273 ,49.9834 ,1.34392 ,1.25009 ,12.26592 
274 ,50.1755 ,1.34575 ,1.25009 ,12.26592 
275 ,50.3512 ,1.34755 ,1.22272 ,11.99730 
276 ,50.5436 ,1.34946 ,1.20903 ,11.86298 
277 ,50.7193 ,1.35126 ,1.19534 ,11.72867 
278 ,50.8957 ,1.35305 ,1.17138 ,11.49362 
279 ,51.0716 ,1.35478 ,1.17481 ,11.52720 
280 ,51.2479 ,1.35659 ,1.16796 ,11.46004 
281 ,51.4237 ,1.35827 ,1.15085 ,11.29215 
282 ,51.6320 ,1.36031 ,1.14058 ,11.19142 
283 ,51.8082 ,1.36213 ,1.10636 ,10.85563 
284 ,51.9842 ,1.36391 ,1.11321 ,10.92279 
285 ,52.1603 ,1.36561 ,1.08925 ,10.68774 
286 ,52.3520 ,1.36764 ,1.07556 ,10.55343 
287 ,52.5284 ,1.36933 ,1.07899 ,10.58701 
288 ,52.7525 ,1.37144 ,1.03450 ,10.15049 
289 ,52.9445 ,1.37345 ,1.03108 ,10.11691 
290 ,53.1205 ,1.37522 ,1.01054 ,9.91544 
291 ,53.2969 ,1.37701 ,1.01396 ,9.94902 
292 ,53.4726 ,1.37882 ,1.00370 ,9.84829 
293 ,53.6487 ,1.38051 ,0.98659 ,9.68039 
294 ,53.8249 ,1.38229 ,0.97290 ,9.54608 
295 ,54.0172 ,1.38421 ,0.94894 ,9.31103 
296 ,54.2090 ,1.38608 ,0.93183 ,9.14314 
297 ,54.3850 ,1.38790 ,0.91814 ,9.00883 
298 ,54.5452 ,1.38963 ,0.90788 ,8.90809 
299 ,54.7212 ,1.39125 ,0.89077 ,8.74020 
300 ,54.9132 ,1.39313 ,0.89761 ,8.80736 
301 ,55.0894 ,1.39498 ,0.88734 ,8.70662 
302 ,55.2656 ,1.39664 ,0.85312 ,8.37084 
303 ,55.4415 ,1.39847 ,0.82917 ,8.13579 
304 ,55.6177 ,1.40024 ,0.83601 ,8.20295 
305 ,55.8097 ,1.40215 ,0.82232 ,8.06864 
306 ,56.0018 ,1.40408 ,0.80521 ,7.90074 
307 ,56.1937 ,1.40596 ,0.79837 ,7.83359 
308 ,56.3860 ,1.40780 ,0.80179 ,7.86717 
309 ,56.5776 ,1.40982 ,0.77784 ,7.63212 
310 ,56.7539 ,1.41156 ,0.76757 ,7.53138 
311 ,56.9462 ,1.41342 ,0.74361 ,7.29633 
312 ,57.1222 ,1.41526 ,0.72650 ,7.12844 
313 ,57.3141 ,1.41717 ,0.73335 ,7.19560 
314 ,57.4909 ,1.41897 ,0.70255 ,6.89340 
315 ,57.6660 ,1.42071 ,0.68544 ,6.72550 
316 ,57.8423 ,1.42244 ,0.66490 ,6.52403 
317 ,58.0505 ,1.42444 ,0.67517 ,6.62477 
318 ,58.2265 ,1.42628 ,0.64779 ,6.35614 
319 ,58.4028 ,1.42807 ,0.63410 ,6.22183 
320 ,58.5944 ,1.42995 ,0.62726 ,6.15467 
321 ,58.7704 ,1.43174 ,0.61699 ,6.05394 
322 ,58.9467 ,1.43348 ,0.58962 ,5.78531 
323 ,59.1711 ,1.43565 ,0.58277 ,5.71815 
324 ,59.3471 ,1.43753 ,0.56224 ,5.51668 
325 ,59.5232 ,1.43929 ,0.55539 ,5.44953 
326 ,59.7150 ,1.44122 ,0.54855 ,5.38237 
327 ,59.9074 ,1.44307 ,0.52459 ,5.14732 
328 ,60.0993 ,1.44501 ,0.53486 ,5.24806 
329 ,60.2755 ,1.44677 ,0.51091 ,5.01301 
330 ,60.4516 ,1.44859 ,0.50406 ,4.94585 
331 ,60.6274 ,1.45030 ,0.46642 ,4.57649 
332 ,60.8033 ,1.45205 ,0.46300 ,4.54291 
333 ,60.9797 ,1.45381 ,0.47326 ,4.64365 
334 ,61.1558 ,1.45559 ,0.45273 ,4.44218 
335 ,61.3317 ,1.45738 ,0.44246 ,4.34144 
336 ,61.5239 ,1.45922 ,0.41509 ,4.07282 
337 ,61.7156 ,1.46111 ,0.40824 ,4.00566 
338 ,61.8918 ,1.46292 ,0.38771 ,3.80419 
339 ,62.0840 ,1.46474 ,0.37402 ,3.66988 
340 ,62.2762 ,1.46677 ,0.36718 ,3.60272 
341 ,62.4524 ,1.46850 ,0.37060 ,3.63630 
342 ,62.6284 ,1.47034 ,0.33638 ,3.30052 
343 ,62.8044 ,1.47207 ,0.32269 ,3.16620 
344 ,62.9966 ,1.47397 ,0.33295 ,3.26694 
345 ,63.1725 ,1.47569 ,0.30215 ,2.96473 
346 ,63.3486 ,1.47750 ,0.28504 ,2.79684 
347 ,63.5248 ,1.47929 ,0.28847 ,2.83042 
348 ,63.7007 ,1.48099 ,0.27820 ,2.72969 
349 ,63.8770 ,1.48277 ,0.26451 ,2.59537 
350 ,64.0851 ,1.48478 ,0.24398 ,2.39390 
351 ,64.2771 ,1.48679 ,0.23371 ,2.29317 
352 ,64.4531 ,1.48857 ,0.21660 ,2.12528 
353 ,64.6290 ,1.49029 ,0.19607 ,1.92381 
354 ,64.8049 ,1.49211 ,0.18580 ,1.82307 
355 ,64.9813 ,1.49379 ,0.19607 ,1.92381 
356 ,65.1572 ,1.49557 ,0.17896 ,1.75592 
357 ,65.3494 ,1.49745 ,0.16527 ,1.62160 
358 ,65.5415 ,1.49934 ,0.14473 ,1.42013 
359 ,65.7177 ,1.50121 ,0.13789 ,1.35298 
360 ,65.8938 ,1.50296 ,0.12762 ,1.25224 
361 ,66.0697 ,1.50472 ,0.11393 ,1.11793 
362 ,66.2619 ,1.50662 ,0.11051 ,1.08435 
363 ,66.4539 ,1.50851 ,0.08998 ,0.88288 
364 ,66.6301 ,1.51028 ,0.07629 ,0.74857 
365 ,66.8061 ,1.51207 ,0.06602 ,0.64783 
366 ,66.9821 ,1.51376 ,0.05918 ,0.58067 
367 ,67.1580 ,1.51558 ,0.04549 ,0.44636 
368 ,67.3504 ,1.51745 ,0.02838 ,0.27847 
369 ,67.5584 ,1.51952 ,0.01811 ,0.17773 
370 ,67.7344 ,1.52137 ,0.01127 ,0.11058 
371 ,67.9104 ,1.52312 ,-0.01953 ,-0.19163 
372 ,68.0866 ,1.52484 ,-0.01953 ,-0.19163 
373 ,68.2784 ,1.52670 ,-0.02295 ,-0.22520 
374 ,68.4547 ,1.52851 ,-0.05033 ,-0.49383 
375 ,68.6466 ,1.53038 ,-0.05375 ,-0.52741 
376 ,68.8389 ,1.53236 ,-0.05375 ,-0.52741 
377 ,69.0148 ,1.53418 ,-0.07771 ,-0.76246 
378 ,69.1911 ,1.53593 ,-0.09824 ,-0.96393 
379 ,69.3672 ,1.53766 ,-0.08797 ,-0.86319 
380 ,69.5593 ,1.53957 ,-0.11535 ,-1.13182 
381 ,69.7353 ,1.54137 ,-0.12904 ,-1.26613 
382 ,69.9110 ,1.54311 ,-0.13931 ,-1.36687 
383 ,70.0874 ,1.54486 ,-0.13931 ,-1.36687 
384 ,70.2794 ,1.54674 ,-0.15299 ,-1.50118 
385 ,70.4395 ,1.54848 ,-0.18037 ,-1.76981 
386 ,70.6316 ,1.55031 ,-0.18379 ,-1.80338 
387 ,70.8077 ,1.55206 ,-0.18722 ,-1.83696 
388 ,71.0003 ,1.55399 ,-0.19748 ,-1.93770 
389 ,71.1755 ,1.55578 ,-0.22144 ,-2.17275 
390 ,71.3516 ,1.55760 ,-0.20775 ,-2.03843 
391 ,71.5115 ,1.55921 ,-0.23855 ,-2.34064 
392 ,71.6717 ,1.56082 ,-0.23855 ,-2.34064 
393 ,71.8481 ,1.56249 ,-0.24881 ,-2.44137 
394 ,72.0562 ,1.56445 ,-0.27961 ,-2.74358 
395 ,72.2322 ,1.56630 ,-0.28304 ,-2.77716 
396 ,72.4084 ,1.56807 ,-0.28646 ,-2.81073 
397 ,72.6005 ,1.56995 ,-0.31384 ,-3.07936 
398 ,72.7923 ,1.57193 ,-0.32752 ,-3.21367 
399 ,72.9682 ,1.57361 ,-0.33095 ,-3.24725 
400 ,73.1446 ,1.57538 ,-0.33437 ,-3.28083 
401 ,73.3207 ,1.57721 ,-0.35148 ,-3.44872 
402 ,73.5125 ,1.57912 ,-0.36175 ,-3.54946 
403 ,73.6888 ,1.58089 ,-0.35832 ,-3.51588 
404 ,73.8649 ,1.58260 ,-0.36859 ,-3.61661 
405 ,74.0409 ,1.58439 ,-0.38228 ,-3.75093 
406 ,74.2330 ,1.58632 ,-0.39939 ,-3.91882 
407 ,74.4090 ,1.58804 ,-0.40966 ,-4.01955 
408 ,74.6009 ,1.58993 ,-0.43019 ,-4.22102 
409 ,74.7772 ,1.59172 ,-0.43361 ,-4.25460 
410 ,74.9534 ,1.59353 ,-0.44388 ,-4.35534 
411 ,75.1292 ,1.59527 ,-0.45757 ,-4.48965 
412 ,75.3054 ,1.59703 ,-0.46099 ,-4.52323 
413 ,75.4816 ,1.59879 ,-0.48152 ,-4.72470 
414 ,75.6572 ,1.60059 ,-0.49521 ,-4.85901 
415 ,75.8337 ,1.60235 ,-0.51917 ,-5.09406 
416 ,76.0417 ,1.60427 ,-0.51232 ,-5.02690 
417 ,76.2339 ,1.60621 ,-0.52943 ,-5.19479 
418 ,76.4098 ,1.60814 ,-0.54654 ,-5.36268 
419 ,76.5860 ,1.60984 ,-0.54654 ,-5.36268 
420 ,76.7779 ,1.61174 ,-0.57392 ,-5.63131 
421 ,76.9541 ,1.61357 ,-0.58419 ,-5.73205 
422 ,77.1622 ,1.61542 ,-0.59103 ,-5.79920 
423 ,77.3382 ,1.61735 ,-0.60814 ,-5.96709 
424 ,77.5141 ,1.61907 ,-0.61499 ,-6.03425 
425 ,77.6904 ,1.62088 ,-0.61499 ,-6.03425 
426 ,77.8664 ,1.62268 ,-0.61841 ,-6.06783 
427 ,78.0585 ,1.62448 ,-0.65947 ,-6.47077 
428 ,78.2665 ,1.62656 ,-0.64921 ,-6.37003 
429 ,78.4427 ,1.62838 ,-0.66632 ,-6.53793 
430 ,78.6188 ,1.63013 ,-0.68343 ,-6.70582 
431 ,78.7951 ,1.63189 ,-0.69027 ,-6.77297 
432 ,78.9709 ,1.63370 ,-0.68685 ,-6.73940 
433 ,79.1790 ,1.63567 ,-0.70054 ,-6.87371 
434 ,79.3551 ,1.63751 ,-0.72107 ,-7.07518 
435 ,79.5311 ,1.63927 ,-0.72107 ,-7.07518 
436 ,79.7072 ,1.64097 ,-0.73134 ,-7.17591 
437 ,79.8988 ,1.64291 ,-0.76214 ,-7.47812 
438 ,80.0913 ,1.64478 ,-0.75872 ,-7.44454 
439 ,80.2834 ,1.64681 ,-0.77241 ,-7.57885 
440 ,80.4594 ,1.64855 ,-0.78610 ,-7.71317 
441 ,80.6356 ,1.65026 ,-0.78267 ,-7.67959 
442 ,80.8115 ,1.65205 ,-0.77925 ,-7.64601 
443 ,80.9876 ,1.65382 ,-0.82032 ,-8.04895 
444 ,81.1637 ,1.65552 ,-0.83058 ,-8.14968 
445 ,81.3398 ,1.65731 ,-0.84427 ,-8.28400 
446 ,81.5319 ,1.65930 ,-0.83401 ,-8.18326 
447 ,81.7079 ,1.66105 ,-0.84769 ,-8.31758 
448 ,81.9001 ,1.66291 ,-0.86481 ,-8.48547 
449 ,82.0920 ,1.66489 ,-0.86823 ,-8.51904 
450 ,82.2681 ,1.66661 ,-0.88534 ,-8.68694 
451 ,82.4442 ,1.66835 ,-0.90587 ,-8.88841 
452 ,82.6203 ,1.67016 ,-0.90929 ,-8.92198 
453 ,82.8120 ,1.67208 ,-0.91272 ,-8.95556 
454 ,82.9885 ,1.67381 ,-0.92983 ,-9.12345 
455 ,83.1804 ,1.67572 ,-0.95720 ,-9.39208 
456 ,83.3726 ,1.67765 ,-0.93325 ,-9.15703 
457 ,83.5486 ,1.67943 ,-0.96063 ,-9.42566 
458 ,83.7407 ,1.68123 ,-0.97774 ,-9.59355 
459 ,83.9167 ,1.68321 ,-0.96747 ,-9.49282 
460 ,84.0927 ,1.68492 ,-0.97774 ,-9.59355 
461 ,84.2690 ,1.68663 ,-0.99485 ,-9.76144 
462 ,84.4449 ,1.68840 ,-1.01880 ,-9.99649 
463 ,84.6209 ,1.69017 ,-1.02907 ,-10.09723 
