Data stamp = , 31-03-2022 03:18:01 446

Calibration Values: 
Slope = , 26.54 , g/V 
Offset Voltage at no contact = , -0.501760 , V 

No , Time , Stage Position ,   Mass , Force 
   ,  (s) ,      (mm)      ,   (g)  , (mN)  

1 ,0.0000 ,0.84949 ,5.36696 ,52.66062 
2 ,0.2139 ,0.84958 ,5.35669 ,52.55988 
3 ,0.5341 ,0.85041 ,5.36354 ,52.62704 
4 ,0.7262 ,0.85188 ,5.35669 ,52.55988 
5 ,0.9183 ,0.85350 ,5.37723 ,52.76135 
6 ,1.0943 ,0.85516 ,5.35669 ,52.55988 
7 ,1.2704 ,0.85691 ,5.36354 ,52.62704 
8 ,1.4624 ,0.85884 ,5.36696 ,52.66062 
9 ,1.6387 ,0.86060 ,5.36012 ,52.59346 
10 ,1.8147 ,0.86244 ,5.36354 ,52.62704 
11 ,2.0067 ,0.86426 ,5.32932 ,52.29126 
12 ,2.1827 ,0.86609 ,5.31563 ,52.15694 
13 ,2.3588 ,0.86783 ,5.29510 ,51.95548 
14 ,2.5350 ,0.86956 ,5.28141 ,51.82116 
15 ,2.7430 ,0.87160 ,5.25403 ,51.55254 
16 ,2.9352 ,0.87363 ,5.24718 ,51.48538 
17 ,3.1112 ,0.87536 ,5.22665 ,51.28391 
18 ,3.2872 ,0.87714 ,5.21981 ,51.21675 
19 ,3.4633 ,0.87885 ,5.20612 ,51.08244 
20 ,3.6551 ,0.88071 ,5.18559 ,50.88097 
21 ,3.8314 ,0.88251 ,5.16848 ,50.71308 
22 ,4.0236 ,0.88447 ,5.16505 ,50.67950 
23 ,4.1835 ,0.88618 ,5.15136 ,50.54519 
24 ,4.3597 ,0.88787 ,5.13425 ,50.37729 
25 ,4.5354 ,0.88962 ,5.11030 ,50.14225 
26 ,4.7119 ,0.89140 ,5.08634 ,49.90720 
27 ,4.8878 ,0.89312 ,5.06239 ,49.67215 
28 ,5.0641 ,0.89488 ,5.06239 ,49.67215 
29 ,5.2401 ,0.89666 ,5.04870 ,49.53784 
30 ,5.4161 ,0.89848 ,5.02474 ,49.30279 
31 ,5.5919 ,0.90014 ,5.01448 ,49.20205 
32 ,5.7681 ,0.90196 ,4.99394 ,49.00058 
33 ,5.9764 ,0.90396 ,4.97341 ,48.79911 
34 ,6.1522 ,0.90578 ,4.94603 ,48.53049 
35 ,6.3446 ,0.90761 ,4.94946 ,48.56407 
36 ,6.5206 ,0.90947 ,4.94261 ,48.49691 
37 ,6.6966 ,0.91131 ,4.89812 ,48.06039 
38 ,6.8726 ,0.91294 ,4.88101 ,47.89250 
39 ,7.0488 ,0.91473 ,4.87075 ,47.79177 
40 ,7.2250 ,0.91654 ,4.87417 ,47.82534 
41 ,7.4169 ,0.91842 ,4.83652 ,47.45598 
42 ,7.6090 ,0.92032 ,4.81599 ,47.25451 
43 ,7.7690 ,0.92202 ,4.83310 ,47.42240 
44 ,7.9449 ,0.92373 ,4.81257 ,47.22093 
45 ,8.1211 ,0.92543 ,4.78519 ,46.95231 
46 ,8.2973 ,0.92721 ,4.76808 ,46.78442 
47 ,8.4895 ,0.92913 ,4.74070 ,46.51579 
48 ,8.6653 ,0.93087 ,4.74413 ,46.54937 
49 ,8.8574 ,0.93281 ,4.71333 ,46.24716 
50 ,9.0339 ,0.93456 ,4.67226 ,45.84422 
51 ,9.2255 ,0.93642 ,4.66542 ,45.77707 
52 ,9.4017 ,0.93823 ,4.67226 ,45.84422 
53 ,9.5778 ,0.94001 ,4.64831 ,45.60918 
54 ,9.7538 ,0.94176 ,4.61751 ,45.30697 
55 ,9.9138 ,0.94346 ,4.60382 ,45.17266 
56 ,10.1058 ,0.94524 ,4.59697 ,45.10550 
57 ,10.2820 ,0.94706 ,4.58328 ,44.97119 
58 ,10.4580 ,0.94877 ,4.56275 ,44.76972 
59 ,10.6343 ,0.95056 ,4.53880 ,44.53467 
60 ,10.8102 ,0.95238 ,4.52511 ,44.40036 
61 ,10.9863 ,0.95404 ,4.51142 ,44.26604 
62 ,11.1945 ,0.95608 ,4.47720 ,43.93026 
63 ,11.3703 ,0.95791 ,4.47378 ,43.89668 
64 ,11.5462 ,0.95968 ,4.44640 ,43.62806 
65 ,11.7066 ,0.96139 ,4.45666 ,43.72879 
66 ,11.8822 ,0.96302 ,4.42586 ,43.42659 
67 ,12.0587 ,0.96481 ,4.40533 ,43.22512 
68 ,12.2506 ,0.96669 ,4.37111 ,42.88933 
69 ,12.4269 ,0.96843 ,4.38138 ,42.99007 
70 ,12.6350 ,0.97043 ,4.33004 ,42.48639 
71 ,12.8272 ,0.97247 ,4.34031 ,42.58713 
72 ,13.0510 ,0.97455 ,4.29924 ,42.18419 
73 ,13.2272 ,0.97648 ,4.29240 ,42.11703 
74 ,13.4033 ,0.97824 ,4.28213 ,42.01630 
75 ,13.5793 ,0.98005 ,4.26502 ,41.84841 
76 ,13.7714 ,0.98188 ,4.23422 ,41.54620 
77 ,13.9474 ,0.98366 ,4.22738 ,41.47905 
78 ,14.1236 ,0.98542 ,4.20000 ,41.21042 
79 ,14.3316 ,0.98747 ,4.19316 ,41.14326 
80 ,14.5075 ,0.98927 ,4.17605 ,40.97537 
81 ,14.6836 ,0.99102 ,4.16578 ,40.87464 
82 ,14.8917 ,0.99311 ,4.11103 ,40.33738 
83 ,15.0677 ,0.99490 ,4.11787 ,40.40454 
84 ,15.2438 ,0.99665 ,4.10418 ,40.27023 
85 ,15.4361 ,0.99856 ,4.08023 ,40.03518 
86 ,15.6282 ,1.00039 ,4.06312 ,39.86729 
87 ,15.8041 ,1.00222 ,4.05285 ,39.76655 
88 ,16.0124 ,1.00427 ,4.02547 ,39.49793 
89 ,16.1721 ,1.00605 ,4.00494 ,39.29646 
90 ,16.3484 ,1.00765 ,4.00836 ,39.33003 
91 ,16.5245 ,1.00946 ,3.98783 ,39.12856 
92 ,16.7005 ,1.01121 ,3.97414 ,38.99425 
93 ,16.8764 ,1.01297 ,3.92623 ,38.52415 
94 ,17.0847 ,1.01490 ,3.94334 ,38.69205 
95 ,17.2447 ,1.01673 ,3.91596 ,38.42342 
96 ,17.4368 ,1.01854 ,3.89885 ,38.25553 
97 ,17.6130 ,1.02032 ,3.87490 ,38.02048 
98 ,17.8051 ,1.02223 ,3.88174 ,38.08764 
99 ,17.9971 ,1.02418 ,3.82699 ,37.55038 
100 ,18.1729 ,1.02592 ,3.82699 ,37.55038 
101 ,18.3494 ,1.02766 ,3.79961 ,37.28176 
102 ,18.5257 ,1.02947 ,3.79619 ,37.24818 
103 ,18.7014 ,1.03115 ,3.78592 ,37.14744 
104 ,18.8773 ,1.03297 ,3.75854 ,36.87882 
105 ,19.0697 ,1.03489 ,3.74828 ,36.77808 
106 ,19.2454 ,1.03669 ,3.74143 ,36.71093 
107 ,19.4216 ,1.03838 ,3.71748 ,36.47588 
108 ,19.6137 ,1.04037 ,3.68325 ,36.14010 
109 ,19.7899 ,1.04205 ,3.67641 ,36.07294 
110 ,19.9819 ,1.04400 ,3.65930 ,35.90505 
111 ,20.1579 ,1.04577 ,3.62166 ,35.53569 
112 ,20.3337 ,1.04750 ,3.60797 ,35.40137 
113 ,20.5101 ,1.04928 ,3.59428 ,35.26706 
114 ,20.6859 ,1.05106 ,3.60797 ,35.40137 
115 ,20.8783 ,1.05285 ,3.57375 ,35.06559 
116 ,21.0863 ,1.05494 ,3.56006 ,34.93128 
117 ,21.2625 ,1.05676 ,3.53952 ,34.72981 
118 ,21.4384 ,1.05856 ,3.51899 ,34.52834 
119 ,21.6141 ,1.06026 ,3.49504 ,34.29329 
120 ,21.7907 ,1.06206 ,3.49846 ,34.32687 
121 ,21.9827 ,1.06402 ,3.47108 ,34.05824 
122 ,22.1587 ,1.06582 ,3.45397 ,33.89035 
123 ,22.3508 ,1.06760 ,3.44713 ,33.82319 
124 ,22.5108 ,1.06941 ,3.42317 ,33.58814 
125 ,22.6869 ,1.07101 ,3.40264 ,33.38667 
126 ,22.8631 ,1.07275 ,3.38553 ,33.21878 
127 ,23.0390 ,1.07458 ,3.37184 ,33.08447 
128 ,23.2153 ,1.07632 ,3.35130 ,32.88300 
129 ,23.3913 ,1.07807 ,3.35473 ,32.91658 
130 ,23.5833 ,1.08003 ,3.32393 ,32.61437 
131 ,23.7595 ,1.08175 ,3.30682 ,32.44648 
132 ,23.9353 ,1.08356 ,3.27944 ,32.17786 
133 ,24.1114 ,1.08525 ,3.27944 ,32.17786 
134 ,24.3033 ,1.08722 ,3.26233 ,32.00996 
135 ,24.4797 ,1.08894 ,3.23153 ,31.70776 
136 ,24.6397 ,1.09065 ,3.22811 ,31.67418 
137 ,24.8160 ,1.09234 ,3.19731 ,31.37198 
138 ,24.9920 ,1.09409 ,3.19731 ,31.37198 
139 ,25.1681 ,1.09583 ,3.18362 ,31.23766 
140 ,25.3442 ,1.09764 ,3.16993 ,31.10335 
141 ,25.5202 ,1.09938 ,3.14940 ,30.90188 
142 ,25.6963 ,1.10113 ,3.12202 ,30.63325 
143 ,25.9044 ,1.10318 ,3.12544 ,30.66683 
144 ,26.0804 ,1.10499 ,3.10491 ,30.46536 
145 ,26.2565 ,1.10665 ,3.08438 ,30.26389 
146 ,26.4326 ,1.10846 ,3.07069 ,30.12958 
147 ,26.6083 ,1.11025 ,3.06726 ,30.09600 
148 ,26.7848 ,1.11200 ,3.05015 ,29.92811 
149 ,26.9767 ,1.11394 ,3.01935 ,29.62590 
150 ,27.1528 ,1.11572 ,3.00224 ,29.45801 
151 ,27.3289 ,1.11748 ,3.00224 ,29.45801 
152 ,27.5051 ,1.11916 ,2.98171 ,29.25654 
153 ,27.6966 ,1.12104 ,2.96460 ,29.08865 
154 ,27.8732 ,1.12286 ,2.93038 ,28.75287 
155 ,28.0653 ,1.12484 ,2.93380 ,28.78645 
156 ,28.2412 ,1.12655 ,2.89616 ,28.41709 
157 ,28.4336 ,1.12840 ,2.88931 ,28.34993 
158 ,28.6257 ,1.13036 ,2.88247 ,28.28277 
159 ,28.7852 ,1.13214 ,2.87220 ,28.18204 
160 ,28.9616 ,1.13379 ,2.83798 ,27.84625 
161 ,29.1538 ,1.13571 ,2.84140 ,27.87983 
162 ,29.3298 ,1.13745 ,2.83456 ,27.81268 
163 ,29.5058 ,1.13917 ,2.80718 ,27.54405 
164 ,29.6818 ,1.14097 ,2.78665 ,27.34258 
165 ,29.8575 ,1.14269 ,2.76611 ,27.14111 
166 ,30.0336 ,1.14449 ,2.75927 ,27.07395 
167 ,30.2097 ,1.14621 ,2.75927 ,27.07395 
168 ,30.3861 ,1.14799 ,2.74900 ,26.97322 
169 ,30.5944 ,1.15000 ,2.72163 ,26.70459 
170 ,30.7702 ,1.15185 ,2.71820 ,26.67101 
171 ,30.9459 ,1.15357 ,2.68740 ,26.36881 
172 ,31.1225 ,1.15536 ,2.67714 ,26.26807 
173 ,31.3147 ,1.15715 ,2.65660 ,26.06661 
174 ,31.4906 ,1.15906 ,2.63607 ,25.86514 
175 ,31.6667 ,1.16086 ,2.61896 ,25.69724 
176 ,31.8749 ,1.16278 ,2.59843 ,25.49577 
177 ,32.0348 ,1.16460 ,2.59158 ,25.42862 
178 ,32.2106 ,1.16625 ,2.58816 ,25.39504 
179 ,32.3869 ,1.16795 ,2.56421 ,25.15999 
180 ,32.5632 ,1.16973 ,2.55736 ,25.09283 
181 ,32.7391 ,1.17155 ,2.53683 ,24.89136 
182 ,32.9310 ,1.17342 ,2.53683 ,24.89136 
183 ,33.1073 ,1.17520 ,2.51630 ,24.68989 
184 ,33.2993 ,1.17705 ,2.48892 ,24.42127 
185 ,33.4754 ,1.17890 ,2.47181 ,24.25338 
186 ,33.6515 ,1.18066 ,2.46154 ,24.15264 
187 ,33.8435 ,1.18256 ,2.42732 ,23.81686 
188 ,34.0197 ,1.18432 ,2.41021 ,23.64897 
189 ,34.2114 ,1.18622 ,2.40679 ,23.61539 
190 ,34.4038 ,1.18811 ,2.38968 ,23.44750 
191 ,34.5799 ,1.18993 ,2.38625 ,23.41392 
192 ,34.7559 ,1.19170 ,2.35545 ,23.11171 
193 ,34.9480 ,1.19359 ,2.34861 ,23.04456 
194 ,35.1239 ,1.19533 ,2.33492 ,22.91024 
195 ,35.3002 ,1.19713 ,2.31439 ,22.70877 
196 ,35.4761 ,1.19891 ,2.29385 ,22.50731 
197 ,35.6523 ,1.20068 ,2.30412 ,22.60804 
198 ,35.8284 ,1.20240 ,2.27674 ,22.33941 
199 ,36.0045 ,1.20416 ,2.26990 ,22.27226 
200 ,36.1806 ,1.20595 ,2.24252 ,22.00363 
201 ,36.3725 ,1.20783 ,2.23568 ,21.93647 
202 ,36.5643 ,1.20977 ,2.21857 ,21.76858 
203 ,36.7408 ,1.21152 ,2.19461 ,21.53353 
204 ,36.9168 ,1.21334 ,2.17750 ,21.36564 
205 ,37.1089 ,1.21518 ,2.18435 ,21.43280 
206 ,37.2845 ,1.21696 ,2.16039 ,21.19775 
207 ,37.4770 ,1.21875 ,2.13301 ,20.92912 
208 ,37.6530 ,1.22063 ,2.13644 ,20.96270 
209 ,37.8292 ,1.22236 ,2.11248 ,20.72766 
210 ,38.0052 ,1.22417 ,2.08852 ,20.49261 
211 ,38.1652 ,1.22586 ,2.07826 ,20.39187 
212 ,38.3410 ,1.22754 ,2.05773 ,20.19040 
213 ,38.5174 ,1.22929 ,2.05773 ,20.19040 
214 ,38.6935 ,1.23104 ,2.04061 ,20.02251 
215 ,38.8696 ,1.23277 ,2.03377 ,19.95535 
216 ,39.0457 ,1.23459 ,2.02350 ,19.85462 
217 ,39.2375 ,1.23652 ,1.98928 ,19.51884 
218 ,39.4135 ,1.23828 ,1.97902 ,19.41810 
219 ,39.6059 ,1.24004 ,1.97559 ,19.38452 
220 ,39.7654 ,1.24188 ,1.94137 ,19.04874 
221 ,39.9421 ,1.24353 ,1.93795 ,19.01516 
222 ,40.1181 ,1.24529 ,1.91399 ,18.78011 
223 ,40.3101 ,1.24716 ,1.92768 ,18.91443 
224 ,40.4859 ,1.24898 ,1.89688 ,18.61222 
225 ,40.6623 ,1.25073 ,1.87293 ,18.37717 
226 ,40.8543 ,1.25262 ,1.87293 ,18.37717 
227 ,41.0304 ,1.25442 ,1.86266 ,18.27644 
228 ,41.2064 ,1.25612 ,1.84213 ,18.07497 
229 ,41.3987 ,1.25797 ,1.81817 ,17.83992 
230 ,41.5744 ,1.25982 ,1.81817 ,17.83992 
231 ,41.7508 ,1.26162 ,1.80106 ,17.67203 
232 ,41.9429 ,1.26353 ,1.77711 ,17.43698 
233 ,42.1510 ,1.26552 ,1.78395 ,17.50414 
234 ,42.3268 ,1.26736 ,1.76342 ,17.30267 
235 ,42.5030 ,1.26914 ,1.75315 ,17.20193 
236 ,42.6631 ,1.27084 ,1.72920 ,16.96689 
237 ,42.8391 ,1.27243 ,1.71209 ,16.79899 
238 ,43.0154 ,1.27421 ,1.71893 ,16.86615 
239 ,43.1911 ,1.27603 ,1.68813 ,16.56395 
240 ,43.3834 ,1.27791 ,1.66760 ,16.36248 
241 ,43.5913 ,1.27987 ,1.67102 ,16.39605 
242 ,43.7672 ,1.28172 ,1.64022 ,16.09385 
243 ,43.9434 ,1.28349 ,1.61969 ,15.89238 
244 ,44.1357 ,1.28545 ,1.61284 ,15.82522 
245 ,44.3117 ,1.28715 ,1.61627 ,15.85880 
246 ,44.5039 ,1.28902 ,1.59231 ,15.62375 
247 ,44.6799 ,1.29087 ,1.56836 ,15.38871 
248 ,44.8720 ,1.29275 ,1.56151 ,15.32155 
249 ,45.0800 ,1.29482 ,1.55467 ,15.25439 
250 ,45.2562 ,1.29666 ,1.53756 ,15.08650 
251 ,45.4321 ,1.29839 ,1.52729 ,14.98577 
252 ,45.6083 ,1.30018 ,1.50676 ,14.78430 
253 ,45.7842 ,1.30195 ,1.48280 ,14.54925 
254 ,45.9604 ,1.30368 ,1.47253 ,14.44851 
255 ,46.1524 ,1.30561 ,1.46911 ,14.41493 
256 ,46.3125 ,1.30731 ,1.43147 ,14.04557 
257 ,46.4886 ,1.30897 ,1.43489 ,14.07915 
258 ,46.6644 ,1.31074 ,1.43147 ,14.04557 
259 ,46.8406 ,1.31250 ,1.40409 ,13.77695 
260 ,47.0329 ,1.31439 ,1.39725 ,13.70979 
261 ,47.2409 ,1.31642 ,1.38356 ,13.57548 
262 ,47.4168 ,1.31821 ,1.35960 ,13.34043 
263 ,47.5931 ,1.31998 ,1.36303 ,13.37401 
264 ,47.7691 ,1.32178 ,1.34934 ,13.23969 
265 ,47.9607 ,1.32369 ,1.31854 ,12.93749 
266 ,48.1371 ,1.32544 ,1.31169 ,12.87033 
267 ,48.3294 ,1.32734 ,1.28089 ,12.56813 
268 ,48.5055 ,1.32915 ,1.28432 ,12.60171 
269 ,48.6815 ,1.33091 ,1.26036 ,12.36666 
270 ,48.8575 ,1.33264 ,1.24667 ,12.23235 
271 ,49.0337 ,1.33441 ,1.24667 ,12.23235 
272 ,49.2096 ,1.33611 ,1.23641 ,12.13161 
273 ,49.4019 ,1.33796 ,1.20903 ,11.86298 
274 ,49.5939 ,1.33999 ,1.20561 ,11.82941 
275 ,49.7699 ,1.34172 ,1.18507 ,11.62794 
276 ,49.9461 ,1.34352 ,1.16454 ,11.42647 
277 ,50.1379 ,1.34543 ,1.15770 ,11.35931 
278 ,50.3301 ,1.34734 ,1.14401 ,11.22500 
279 ,50.5062 ,1.34911 ,1.12005 ,10.98995 
280 ,50.6984 ,1.35105 ,1.10636 ,10.85563 
281 ,50.8743 ,1.35277 ,1.09952 ,10.78848 
282 ,51.0663 ,1.35474 ,1.07899 ,10.58701 
283 ,51.2426 ,1.35647 ,1.06187 ,10.41912 
284 ,51.4346 ,1.35838 ,1.06530 ,10.45270 
285 ,51.6267 ,1.36022 ,1.05845 ,10.38554 
286 ,51.8025 ,1.36209 ,1.03792 ,10.18407 
287 ,51.9789 ,1.36384 ,1.03108 ,10.11691 
288 ,52.1546 ,1.36563 ,1.01739 ,9.98260 
289 ,52.3311 ,1.36736 ,1.01396 ,9.94902 
290 ,52.5229 ,1.36929 ,0.98659 ,9.68039 
291 ,52.6992 ,1.37104 ,0.98659 ,9.68039 
292 ,52.8912 ,1.37296 ,0.96948 ,9.51250 
293 ,53.0833 ,1.37487 ,0.92841 ,9.10956 
294 ,53.2429 ,1.37657 ,0.93868 ,9.21030 
295 ,53.4194 ,1.37819 ,0.93525 ,9.17672 
296 ,53.6273 ,1.38029 ,0.90103 ,8.84094 
297 ,53.8032 ,1.38205 ,0.89419 ,8.77378 
298 ,53.9796 ,1.38382 ,0.88050 ,8.63947 
299 ,54.1717 ,1.38567 ,0.88392 ,8.67305 
300 ,54.3474 ,1.38751 ,0.85654 ,8.40442 
301 ,54.5239 ,1.38927 ,0.84286 ,8.27011 
302 ,54.6999 ,1.39108 ,0.82232 ,8.06864 
303 ,54.8919 ,1.39293 ,0.81206 ,7.96790 
304 ,55.0680 ,1.39471 ,0.80521 ,7.90074 
305 ,55.2600 ,1.39663 ,0.79495 ,7.80001 
306 ,55.4362 ,1.39838 ,0.79495 ,7.80001 
307 ,55.6123 ,1.40023 ,0.75730 ,7.43065 
308 ,55.7884 ,1.40194 ,0.76072 ,7.46423 
309 ,55.9803 ,1.40379 ,0.75730 ,7.43065 
310 ,56.1565 ,1.40556 ,0.75388 ,7.39707 
311 ,56.3326 ,1.40733 ,0.72992 ,7.16202 
312 ,56.5087 ,1.40909 ,0.72308 ,7.09486 
313 ,56.7168 ,1.41109 ,0.70255 ,6.89340 
314 ,56.9089 ,1.41313 ,0.67859 ,6.65835 
315 ,57.0846 ,1.41491 ,0.66833 ,6.55761 
316 ,57.2770 ,1.41677 ,0.66148 ,6.49046 
317 ,57.4849 ,1.41880 ,0.64779 ,6.35614 
318 ,57.6612 ,1.42061 ,0.63068 ,6.18825 
319 ,57.8369 ,1.42239 ,0.63068 ,6.18825 
320 ,58.0293 ,1.42434 ,0.62042 ,6.08752 
321 ,58.2053 ,1.42607 ,0.59304 ,5.81889 
322 ,58.3971 ,1.42798 ,0.59304 ,5.81889 
323 ,58.5732 ,1.42976 ,0.58962 ,5.78531 
324 ,58.7335 ,1.43147 ,0.56566 ,5.55026 
325 ,58.9096 ,1.43310 ,0.54513 ,5.34879 
326 ,59.1017 ,1.43495 ,0.53828 ,5.28164 
327 ,59.2938 ,1.43699 ,0.53486 ,5.24806 
328 ,59.4699 ,1.43875 ,0.51775 ,5.08017 
329 ,59.6460 ,1.44047 ,0.49037 ,4.81154 
330 ,59.8379 ,1.44240 ,0.50064 ,4.91228 
331 ,60.0301 ,1.44431 ,0.47326 ,4.64365 
332 ,60.2059 ,1.44610 ,0.46300 ,4.54291 
333 ,60.3821 ,1.44799 ,0.46300 ,4.54291 
334 ,60.5579 ,1.44955 ,0.45957 ,4.50934 
335 ,60.7344 ,1.45136 ,0.45273 ,4.44218 
336 ,60.9262 ,1.45331 ,0.42193 ,4.13997 
337 ,61.1025 ,1.45503 ,0.42193 ,4.13997 
338 ,61.2786 ,1.45683 ,0.41509 ,4.07282 
339 ,61.4547 ,1.45861 ,0.39113 ,3.83777 
340 ,61.6304 ,1.46031 ,0.38086 ,3.73703 
341 ,61.8068 ,1.46207 ,0.36718 ,3.60272 
342 ,61.9988 ,1.46397 ,0.35691 ,3.50199 
343 ,62.1748 ,1.46573 ,0.35349 ,3.46841 
344 ,62.3510 ,1.46750 ,0.32953 ,3.23336 
345 ,62.5272 ,1.46927 ,0.30558 ,2.99831 
346 ,62.7029 ,1.47107 ,0.31242 ,3.06547 
347 ,62.8792 ,1.47283 ,0.32611 ,3.19978 
348 ,63.0713 ,1.47473 ,0.29531 ,2.89758 
349 ,63.2633 ,1.47655 ,0.27478 ,2.69611 
350 ,63.4395 ,1.47841 ,0.28162 ,2.76326 
351 ,63.6155 ,1.48012 ,0.26109 ,2.56179 
352 ,63.7911 ,1.48187 ,0.23371 ,2.29317 
353 ,63.9517 ,1.48365 ,0.23371 ,2.29317 
354 ,64.1438 ,1.48547 ,0.22344 ,2.19243 
355 ,64.3199 ,1.48723 ,0.22002 ,2.15885 
356 ,64.5121 ,1.48913 ,0.19607 ,1.92381 
357 ,64.6881 ,1.49092 ,0.18580 ,1.82307 
358 ,64.8636 ,1.49262 ,0.17553 ,1.72234 
359 ,65.0402 ,1.49442 ,0.17553 ,1.72234 
360 ,65.2324 ,1.49630 ,0.15500 ,1.52087 
361 ,65.4085 ,1.49809 ,0.13447 ,1.31940 
362 ,65.6004 ,1.50001 ,0.14816 ,1.45371 
363 ,65.7765 ,1.50175 ,0.13447 ,1.31940 
364 ,65.9686 ,1.50369 ,0.10025 ,0.98361 
365 ,66.1607 ,1.50563 ,0.11393 ,1.11793 
366 ,66.3526 ,1.50752 ,0.08998 ,0.88288 
367 ,66.5291 ,1.50928 ,0.06260 ,0.61425 
368 ,66.7049 ,1.51109 ,0.06602 ,0.64783 
369 ,66.8967 ,1.51299 ,0.05918 ,0.58067 
370 ,67.0728 ,1.51472 ,0.04207 ,0.41278 
371 ,67.2649 ,1.51663 ,0.03180 ,0.31205 
372 ,67.4411 ,1.51841 ,0.02496 ,0.24489 
373 ,67.6333 ,1.52033 ,-0.01269 ,-0.12447 
374 ,67.8092 ,1.52210 ,-0.00242 ,-0.02373 
375 ,67.9849 ,1.52380 ,-0.00584 ,-0.05731 
376 ,68.1774 ,1.52564 ,-0.01953 ,-0.19163 
377 ,68.3535 ,1.52749 ,-0.04348 ,-0.42667 
378 ,68.5296 ,1.52927 ,-0.05717 ,-0.56099 
379 ,68.7055 ,1.53100 ,-0.06060 ,-0.59457 
380 ,68.8814 ,1.53280 ,-0.07086 ,-0.69530 
381 ,69.0574 ,1.53457 ,-0.08113 ,-0.79604 
382 ,69.2338 ,1.53631 ,-0.09482 ,-0.93035 
383 ,69.4099 ,1.53806 ,-0.11535 ,-1.13182 
384 ,69.6020 ,1.54004 ,-0.11193 ,-1.09824 
385 ,69.7778 ,1.54174 ,-0.12219 ,-1.19898 
386 ,69.9541 ,1.54352 ,-0.15299 ,-1.50118 
387 ,70.1138 ,1.54521 ,-0.16326 ,-1.60191 
388 ,70.2743 ,1.54685 ,-0.16668 ,-1.63549 
389 ,70.4502 ,1.54845 ,-0.17695 ,-1.73623 
390 ,70.6265 ,1.55027 ,-0.18037 ,-1.76981 
391 ,70.8022 ,1.55202 ,-0.18037 ,-1.76981 
392 ,70.9784 ,1.55373 ,-0.20433 ,-2.00485 
393 ,71.1543 ,1.55550 ,-0.22144 ,-2.17275 
394 ,71.3307 ,1.55730 ,-0.22828 ,-2.23990 
395 ,71.5228 ,1.55925 ,-0.22486 ,-2.20632 
396 ,71.6988 ,1.56095 ,-0.24539 ,-2.40779 
397 ,71.8749 ,1.56270 ,-0.26593 ,-2.60926 
398 ,72.0508 ,1.56445 ,-0.27961 ,-2.74358 
399 ,72.2268 ,1.56626 ,-0.27961 ,-2.74358 
400 ,72.4032 ,1.56799 ,-0.27277 ,-2.67642 
401 ,72.5952 ,1.56992 ,-0.31041 ,-3.04578 
402 ,72.7873 ,1.57181 ,-0.30699 ,-3.01220 
403 ,72.9635 ,1.57362 ,-0.32068 ,-3.14652 
404 ,73.1713 ,1.57565 ,-0.34464 ,-3.38156 
405 ,73.3314 ,1.57737 ,-0.34464 ,-3.38156 
406 ,73.5076 ,1.57900 ,-0.34121 ,-3.34799 
407 ,73.6838 ,1.58085 ,-0.35832 ,-3.51588 
408 ,73.8912 ,1.58277 ,-0.38228 ,-3.75093 
409 ,74.0674 ,1.58463 ,-0.38912 ,-3.81808 
410 ,74.2439 ,1.58640 ,-0.39255 ,-3.85166 
411 ,74.4198 ,1.58820 ,-0.40281 ,-3.95240 
412 ,74.5959 ,1.58993 ,-0.42677 ,-4.18744 
413 ,74.7720 ,1.59168 ,-0.44388 ,-4.35534 
414 ,74.9479 ,1.59344 ,-0.44388 ,-4.35534 
415 ,75.1241 ,1.59524 ,-0.44388 ,-4.35534 
416 ,75.3002 ,1.59694 ,-0.46783 ,-4.59038 
417 ,75.4762 ,1.59868 ,-0.48837 ,-4.79185 
418 ,75.6683 ,1.60062 ,-0.48837 ,-4.79185 
419 ,75.8443 ,1.60244 ,-0.49863 ,-4.89259 
420 ,76.0206 ,1.60414 ,-0.50548 ,-4.95975 
421 ,76.1966 ,1.60594 ,-0.51232 ,-5.02690 
422 ,76.3886 ,1.60783 ,-0.53285 ,-5.22837 
423 ,76.5805 ,1.60971 ,-0.54654 ,-5.36268 
424 ,76.7566 ,1.61153 ,-0.55681 ,-5.46342 
425 ,76.9487 ,1.61343 ,-0.56365 ,-5.53058 
426 ,77.1249 ,1.61521 ,-0.57392 ,-5.63131 
427 ,77.3331 ,1.61720 ,-0.59788 ,-5.86636 
428 ,77.5250 ,1.61921 ,-0.58761 ,-5.76562 
429 ,77.7012 ,1.62096 ,-0.60130 ,-5.89994 
430 ,77.8772 ,1.62274 ,-0.61841 ,-6.06783 
431 ,78.0532 ,1.62448 ,-0.63894 ,-6.26930 
432 ,78.2452 ,1.62637 ,-0.63210 ,-6.20214 
433 ,78.4214 ,1.62819 ,-0.65947 ,-6.47077 
434 ,78.5975 ,1.62993 ,-0.66290 ,-6.50435 
435 ,78.7735 ,1.63168 ,-0.68001 ,-6.67224 
436 ,78.9655 ,1.63358 ,-0.68001 ,-6.67224 
437 ,79.1418 ,1.63533 ,-0.69370 ,-6.80655 
438 ,79.3337 ,1.63729 ,-0.70739 ,-6.94086 
439 ,79.5419 ,1.63923 ,-0.70396 ,-6.90729 
440 ,79.7179 ,1.64112 ,-0.74161 ,-7.27665 
441 ,79.8939 ,1.64302 ,-0.73818 ,-7.24307 
442 ,80.0702 ,1.64465 ,-0.74503 ,-7.31023 
443 ,80.2623 ,1.64656 ,-0.76214 ,-7.47812 
444 ,80.4539 ,1.64852 ,-0.78267 ,-7.67959 
445 ,80.6300 ,1.65023 ,-0.78610 ,-7.71317 
446 ,80.8226 ,1.65208 ,-0.78952 ,-7.74674 
447 ,80.9983 ,1.65390 ,-0.80663 ,-7.91464 
448 ,81.1905 ,1.65586 ,-0.81005 ,-7.94821 
449 ,81.3665 ,1.65759 ,-0.82716 ,-8.11611 
450 ,81.5428 ,1.65938 ,-0.83743 ,-8.21684 
451 ,81.7185 ,1.66113 ,-0.86138 ,-8.45189 
452 ,81.8949 ,1.66291 ,-0.86481 ,-8.48547 
453 ,82.0870 ,1.66484 ,-0.86138 ,-8.45189 
454 ,82.2631 ,1.66657 ,-0.87849 ,-8.61978 
455 ,82.4392 ,1.66835 ,-0.89218 ,-8.75409 
456 ,82.6312 ,1.67020 ,-0.90245 ,-8.85483 
457 ,82.8069 ,1.67199 ,-0.90587 ,-8.88841 
458 ,82.9833 ,1.67371 ,-0.91614 ,-8.98914 
459 ,83.1756 ,1.67559 ,-0.94009 ,-9.22419 
460 ,83.3516 ,1.67744 ,-0.94009 ,-9.22419 
461 ,83.5277 ,1.67921 ,-0.94009 ,-9.22419 
462 ,83.7034 ,1.68100 ,-0.95720 ,-9.39208 
463 ,83.8797 ,1.68269 ,-0.98800 ,-9.69429 
