Data stamp = , 31-03-2022 11:47:09 794

Calibration Values: 
Slope = , 26.54 , g/V 
Offset Voltage at no contact = , -0.501760 , V 

No , Time , Stage Position ,   Mass , Force 
   ,  (s) ,      (mm)      ,   (g)  , (mN)  

1 ,0.0000 ,0.84941 ,5.36354 ,52.62704 
2 ,0.2119 ,0.84946 ,5.36696 ,52.66062 
3 ,0.5322 ,0.85029 ,5.34985 ,52.49273 
4 ,0.7081 ,0.85165 ,5.36696 ,52.66062 
5 ,0.9001 ,0.85315 ,5.36354 ,52.62704 
6 ,1.0763 ,0.85493 ,5.35669 ,52.55988 
7 ,1.2523 ,0.85659 ,5.37381 ,52.72778 
8 ,1.4444 ,0.85862 ,5.36012 ,52.59346 
9 ,1.6206 ,0.86037 ,5.34643 ,52.45915 
10 ,1.8127 ,0.86229 ,5.34985 ,52.49273 
11 ,1.9889 ,0.86411 ,5.32247 ,52.22410 
12 ,2.1648 ,0.86585 ,5.30194 ,52.02263 
13 ,2.3571 ,0.86765 ,5.30878 ,52.08979 
14 ,2.5330 ,0.86948 ,5.28825 ,51.88832 
15 ,2.7087 ,0.87128 ,5.27456 ,51.75401 
16 ,2.8853 ,0.87305 ,5.24718 ,51.48538 
17 ,3.0611 ,0.87490 ,5.24376 ,51.45180 
18 ,3.2212 ,0.87649 ,5.21639 ,51.18317 
19 ,3.4133 ,0.87828 ,5.20954 ,51.11602 
20 ,3.6055 ,0.88025 ,5.18559 ,50.88097 
21 ,3.7811 ,0.88198 ,5.17874 ,50.81381 
22 ,3.9411 ,0.88370 ,5.17190 ,50.74666 
23 ,4.1012 ,0.88530 ,5.15136 ,50.54519 
24 ,4.2775 ,0.88691 ,5.13768 ,50.41087 
25 ,4.4538 ,0.88874 ,5.12741 ,50.31014 
26 ,4.6457 ,0.89063 ,5.08292 ,49.87362 
27 ,4.8218 ,0.89243 ,5.08292 ,49.87362 
28 ,4.9978 ,0.89417 ,5.07608 ,49.80646 
29 ,5.1900 ,0.89602 ,5.03501 ,49.40352 
30 ,5.3821 ,0.89797 ,5.03501 ,49.40352 
31 ,5.5582 ,0.89976 ,5.02474 ,49.30279 
32 ,5.7662 ,0.90172 ,4.98710 ,48.93343 
33 ,5.9422 ,0.90363 ,4.97341 ,48.79911 
34 ,6.1184 ,0.90538 ,4.96999 ,48.76554 
35 ,6.2940 ,0.90708 ,4.94946 ,48.56407 
36 ,6.4701 ,0.90887 ,4.91866 ,48.26186 
37 ,6.6467 ,0.91065 ,4.90155 ,48.09397 
38 ,6.8548 ,0.91262 ,4.89470 ,48.02681 
39 ,7.0628 ,0.91472 ,4.87417 ,47.82534 
40 ,7.2389 ,0.91655 ,4.85021 ,47.59030 
41 ,7.4310 ,0.91842 ,4.81257 ,47.22093 
42 ,7.6391 ,0.92052 ,4.81257 ,47.22093 
43 ,7.8311 ,0.92246 ,4.78519 ,46.95231 
44 ,8.0073 ,0.92422 ,4.76466 ,46.75084 
45 ,8.1992 ,0.92615 ,4.75097 ,46.61653 
46 ,8.3751 ,0.92791 ,4.73386 ,46.44863 
47 ,8.5514 ,0.92972 ,4.71333 ,46.24716 
48 ,8.7274 ,0.93138 ,4.70306 ,46.14643 
49 ,8.9036 ,0.93320 ,4.69622 ,46.07927 
50 ,9.0797 ,0.93499 ,4.68937 ,46.01212 
51 ,9.2714 ,0.93689 ,4.64488 ,45.57560 
52 ,9.4474 ,0.93859 ,4.63462 ,45.47486 
53 ,9.6238 ,0.94037 ,4.62093 ,45.34055 
54 ,9.8159 ,0.94228 ,4.59697 ,45.10550 
55 ,9.9920 ,0.94407 ,4.58328 ,44.97119 
56 ,10.1680 ,0.94579 ,4.56617 ,44.80330 
57 ,10.3442 ,0.94760 ,4.56617 ,44.80330 
58 ,10.5361 ,0.94958 ,4.51142 ,44.26604 
59 ,10.7121 ,0.95126 ,4.49773 ,44.13173 
60 ,10.8882 ,0.95301 ,4.49431 ,44.09815 
61 ,11.0805 ,0.95496 ,4.48746 ,44.03100 
62 ,11.2565 ,0.95671 ,4.44640 ,43.62806 
63 ,11.4326 ,0.95847 ,4.43955 ,43.56090 
64 ,11.6246 ,0.96038 ,4.41902 ,43.35943 
65 ,11.8167 ,0.96229 ,4.39849 ,43.15796 
66 ,11.9928 ,0.96403 ,4.37111 ,42.88933 
67 ,12.1687 ,0.96581 ,4.36427 ,42.82218 
68 ,12.3605 ,0.96770 ,4.36084 ,42.78860 
69 ,12.5370 ,0.96946 ,4.32662 ,42.45282 
70 ,12.7130 ,0.97124 ,4.30951 ,42.28492 
71 ,12.8895 ,0.97305 ,4.28898 ,42.08345 
72 ,13.0652 ,0.97478 ,4.27529 ,41.94914 
73 ,13.2573 ,0.97675 ,4.26160 ,41.81483 
74 ,13.4493 ,0.97854 ,4.24107 ,41.61336 
75 ,13.6255 ,0.98035 ,4.23080 ,41.51262 
76 ,13.8175 ,0.98225 ,4.19316 ,41.14326 
77 ,14.0094 ,0.98423 ,4.19316 ,41.14326 
78 ,14.2015 ,0.98612 ,4.17262 ,40.94179 
79 ,14.4098 ,0.98805 ,4.15551 ,40.77390 
80 ,14.6020 ,0.99016 ,4.14867 ,40.70674 
81 ,14.7778 ,0.99191 ,4.12129 ,40.43812 
82 ,14.9540 ,0.99363 ,4.09049 ,40.13591 
83 ,15.1301 ,0.99542 ,4.06654 ,39.90087 
84 ,15.3062 ,0.99717 ,4.06312 ,39.86729 
85 ,15.4983 ,0.99914 ,4.03574 ,39.59866 
86 ,15.6905 ,1.00108 ,4.01178 ,39.36361 
87 ,15.8664 ,1.00280 ,4.01520 ,39.39719 
88 ,16.0425 ,1.00455 ,4.00152 ,39.26288 
89 ,16.2347 ,1.00647 ,3.96729 ,38.92709 
90 ,16.4106 ,1.00829 ,3.95703 ,38.82636 
91 ,16.6185 ,1.01022 ,3.94334 ,38.69205 
92 ,16.7946 ,1.01208 ,3.92281 ,38.49058 
93 ,16.9708 ,1.01385 ,3.89543 ,38.22195 
94 ,17.1469 ,1.01560 ,3.89885 ,38.25553 
95 ,17.3228 ,1.01734 ,3.88174 ,38.08764 
96 ,17.4990 ,1.01911 ,3.85094 ,37.78543 
97 ,17.6752 ,1.02089 ,3.83041 ,37.58396 
98 ,17.8511 ,1.02265 ,3.81672 ,37.44965 
99 ,18.0433 ,1.02455 ,3.81330 ,37.41607 
100 ,18.2353 ,1.02647 ,3.78592 ,37.14744 
101 ,18.4113 ,1.02820 ,3.77223 ,37.01313 
102 ,18.5874 ,1.02997 ,3.76196 ,36.91240 
103 ,18.7636 ,1.03175 ,3.74143 ,36.71093 
104 ,18.9393 ,1.03351 ,3.71405 ,36.44230 
105 ,19.1158 ,1.03527 ,3.69352 ,36.24083 
106 ,19.3078 ,1.03712 ,3.69010 ,36.20725 
107 ,19.4841 ,1.03899 ,3.67983 ,36.10652 
108 ,19.6758 ,1.04078 ,3.65930 ,35.90505 
109 ,19.8518 ,1.04262 ,3.63534 ,35.67000 
110 ,20.0281 ,1.04437 ,3.62508 ,35.56926 
111 ,20.2042 ,1.04610 ,3.61481 ,35.46853 
112 ,20.3801 ,1.04795 ,3.57375 ,35.06559 
113 ,20.5721 ,1.04979 ,3.57717 ,35.09917 
114 ,20.7484 ,1.05160 ,3.56348 ,34.96485 
115 ,20.9244 ,1.05332 ,3.54979 ,34.83054 
116 ,21.1000 ,1.05505 ,3.51557 ,34.49476 
117 ,21.2766 ,1.05689 ,3.50872 ,34.42760 
118 ,21.4687 ,1.05883 ,3.49504 ,34.29329 
119 ,21.6608 ,1.06072 ,3.47450 ,34.09182 
120 ,21.8525 ,1.06263 ,3.46424 ,33.99108 
121 ,22.0449 ,1.06441 ,3.45397 ,33.89035 
122 ,22.2207 ,1.06625 ,3.41975 ,33.55457 
123 ,22.3966 ,1.06807 ,3.39921 ,33.35310 
124 ,22.5730 ,1.06979 ,3.40948 ,33.45383 
125 ,22.7490 ,1.07158 ,3.38895 ,33.25236 
126 ,22.9090 ,1.07326 ,3.36157 ,32.98374 
127 ,23.0853 ,1.07493 ,3.35815 ,32.95016 
128 ,23.2774 ,1.07683 ,3.32735 ,32.64795 
129 ,23.4532 ,1.07862 ,3.31024 ,32.48006 
130 ,23.6456 ,1.08049 ,3.28286 ,32.21143 
131 ,23.8376 ,1.08245 ,3.27259 ,32.11070 
132 ,24.0136 ,1.08422 ,3.26233 ,32.00996 
133 ,24.1896 ,1.08597 ,3.26233 ,32.00996 
134 ,24.3817 ,1.08786 ,3.22811 ,31.67418 
135 ,24.5901 ,1.08995 ,3.22126 ,31.60702 
136 ,24.7817 ,1.09188 ,3.18362 ,31.23766 
137 ,24.9581 ,1.09368 ,3.18020 ,31.20409 
138 ,25.1341 ,1.09543 ,3.16309 ,31.03619 
139 ,25.3258 ,1.09735 ,3.16309 ,31.03619 
140 ,25.5022 ,1.09913 ,3.12544 ,30.66683 
141 ,25.6784 ,1.10086 ,3.11175 ,30.53252 
142 ,25.8700 ,1.10287 ,3.09464 ,30.36463 
143 ,26.0465 ,1.10451 ,3.07411 ,30.16316 
144 ,26.2384 ,1.10637 ,3.06384 ,30.06242 
145 ,26.4464 ,1.10847 ,3.05015 ,29.92811 
146 ,26.6388 ,1.11042 ,3.03304 ,29.76022 
147 ,26.8148 ,1.11225 ,3.02962 ,29.72664 
148 ,26.9910 ,1.11404 ,3.02278 ,29.65948 
149 ,27.1830 ,1.11595 ,2.98855 ,29.32370 
150 ,27.3586 ,1.11767 ,2.97829 ,29.22297 
151 ,27.5349 ,1.11943 ,2.95091 ,28.95434 
152 ,27.7268 ,1.12133 ,2.94749 ,28.92076 
153 ,27.9033 ,1.12311 ,2.92011 ,28.65213 
154 ,28.0953 ,1.12503 ,2.91327 ,28.58498 
155 ,28.2550 ,1.12676 ,2.91669 ,28.61856 
156 ,28.4149 ,1.12837 ,2.90300 ,28.48424 
157 ,28.5750 ,1.12996 ,2.88247 ,28.28277 
158 ,28.7515 ,1.13162 ,2.85851 ,28.04772 
159 ,28.9595 ,1.13363 ,2.83114 ,27.77910 
160 ,29.1357 ,1.13547 ,2.83456 ,27.81268 
161 ,29.3115 ,1.13720 ,2.82087 ,27.67836 
162 ,29.4875 ,1.13895 ,2.79349 ,27.40974 
163 ,29.6637 ,1.14073 ,2.76611 ,27.14111 
164 ,29.8399 ,1.14258 ,2.77296 ,27.20827 
165 ,30.0160 ,1.14424 ,2.75927 ,27.07395 
166 ,30.1920 ,1.14596 ,2.74216 ,26.90606 
167 ,30.3681 ,1.14772 ,2.72163 ,26.70459 
168 ,30.5439 ,1.14949 ,2.69767 ,26.46954 
169 ,30.7203 ,1.15127 ,2.68056 ,26.30165 
170 ,30.8963 ,1.15300 ,2.68056 ,26.30165 
171 ,31.0724 ,1.15476 ,2.67714 ,26.26807 
172 ,31.2643 ,1.15672 ,2.64976 ,25.99945 
173 ,31.4566 ,1.15864 ,2.63949 ,25.89871 
174 ,31.6323 ,1.16039 ,2.63265 ,25.83156 
175 ,31.8088 ,1.16211 ,2.60869 ,25.59651 
176 ,32.0167 ,1.16419 ,2.57105 ,25.22715 
177 ,32.1931 ,1.16599 ,2.57789 ,25.29430 
178 ,32.3850 ,1.16793 ,2.54710 ,24.99210 
179 ,32.5606 ,1.16976 ,2.55736 ,25.09283 
180 ,32.7368 ,1.17139 ,2.53683 ,24.89136 
181 ,32.9132 ,1.17317 ,2.50945 ,24.62274 
182 ,33.1053 ,1.17513 ,2.50261 ,24.55558 
183 ,33.2812 ,1.17686 ,2.48207 ,24.35411 
184 ,33.4574 ,1.17862 ,2.47865 ,24.32053 
185 ,33.6335 ,1.18040 ,2.47865 ,24.32053 
186 ,33.8094 ,1.18211 ,2.44785 ,24.01833 
187 ,34.0016 ,1.18403 ,2.43416 ,23.88402 
188 ,34.1939 ,1.18597 ,2.41705 ,23.71612 
189 ,34.3697 ,1.18773 ,2.41363 ,23.68255 
190 ,34.5460 ,1.18950 ,2.37941 ,23.34676 
191 ,34.7376 ,1.19144 ,2.38625 ,23.41392 
192 ,34.9140 ,1.19318 ,2.37599 ,23.31318 
193 ,35.1217 ,1.19521 ,2.35203 ,23.07814 
194 ,35.2982 ,1.19703 ,2.34519 ,23.01098 
195 ,35.4901 ,1.19887 ,2.33150 ,22.87667 
196 ,35.6821 ,1.20076 ,2.30070 ,22.57446 
197 ,35.8583 ,1.20276 ,2.28359 ,22.40657 
198 ,36.0343 ,1.20438 ,2.28017 ,22.37299 
199 ,36.2105 ,1.20614 ,2.25279 ,22.10437 
200 ,36.4027 ,1.20805 ,2.24594 ,22.03721 
201 ,36.5947 ,1.20998 ,2.22883 ,21.86932 
202 ,36.7706 ,1.21174 ,2.21515 ,21.73500 
203 ,36.9307 ,1.21346 ,2.20830 ,21.66785 
204 ,37.1068 ,1.21508 ,2.18435 ,21.43280 
205 ,37.2990 ,1.21706 ,2.18777 ,21.46638 
206 ,37.4750 ,1.21881 ,2.18092 ,21.39922 
207 ,37.6671 ,1.22070 ,2.13986 ,20.99628 
208 ,37.8591 ,1.22253 ,2.12617 ,20.86197 
209 ,38.0350 ,1.22435 ,2.13644 ,20.96270 
210 ,38.2113 ,1.22620 ,2.11932 ,20.79481 
211 ,38.4033 ,1.22805 ,2.10564 ,20.66050 
212 ,38.6115 ,1.23000 ,2.08510 ,20.45903 
213 ,38.8034 ,1.23204 ,2.06457 ,20.25756 
214 ,38.9792 ,1.23382 ,2.05430 ,20.15682 
215 ,39.1557 ,1.23560 ,2.04746 ,20.08967 
216 ,39.3317 ,1.23736 ,2.02693 ,19.88820 
217 ,39.5078 ,1.23913 ,1.99955 ,19.61957 
218 ,39.6998 ,1.24104 ,2.00297 ,19.65315 
219 ,39.8758 ,1.24280 ,1.98244 ,19.45168 
220 ,40.0676 ,1.24475 ,1.96190 ,19.25021 
221 ,40.2276 ,1.24641 ,1.95506 ,19.18305 
222 ,40.4042 ,1.24805 ,1.94479 ,19.08232 
223 ,40.5962 ,1.24996 ,1.92768 ,18.91443 
224 ,40.7723 ,1.25172 ,1.90715 ,18.71296 
225 ,40.9484 ,1.25353 ,1.90373 ,18.67938 
226 ,41.1244 ,1.25538 ,1.89688 ,18.61222 
227 ,41.3001 ,1.25700 ,1.87293 ,18.37717 
228 ,41.4766 ,1.25876 ,1.86951 ,18.34360 
229 ,41.6845 ,1.26076 ,1.83871 ,18.04139 
230 ,41.8767 ,1.26283 ,1.84213 ,18.07497 
231 ,42.0526 ,1.26455 ,1.83186 ,17.97423 
232 ,42.2288 ,1.26628 ,1.78737 ,17.53772 
233 ,42.4205 ,1.26819 ,1.79422 ,17.60487 
234 ,42.5970 ,1.27000 ,1.78395 ,17.50414 
235 ,42.7731 ,1.27182 ,1.77026 ,17.36983 
236 ,42.9492 ,1.27354 ,1.74631 ,17.13478 
237 ,43.1412 ,1.27548 ,1.73604 ,17.03404 
238 ,43.3333 ,1.27731 ,1.72920 ,16.96689 
239 ,43.5094 ,1.27914 ,1.70524 ,16.73184 
240 ,43.7014 ,1.28100 ,1.71551 ,16.83257 
241 ,43.8775 ,1.28280 ,1.68813 ,16.56395 
242 ,44.0535 ,1.28456 ,1.67444 ,16.42963 
243 ,44.2295 ,1.28628 ,1.65049 ,16.19458 
244 ,44.4058 ,1.28819 ,1.65391 ,16.22816 
245 ,44.5817 ,1.28984 ,1.63680 ,16.06027 
246 ,44.7578 ,1.29158 ,1.62311 ,15.92596 
247 ,44.9499 ,1.29351 ,1.59231 ,15.62375 
248 ,45.1419 ,1.29546 ,1.58889 ,15.59018 
249 ,45.3178 ,1.29717 ,1.58204 ,15.52302 
250 ,45.4939 ,1.29894 ,1.56836 ,15.38871 
251 ,45.6703 ,1.30072 ,1.54098 ,15.12008 
252 ,45.8462 ,1.30246 ,1.53413 ,15.05292 
253 ,46.0224 ,1.30421 ,1.53413 ,15.05292 
254 ,46.1984 ,1.30600 ,1.52729 ,14.98577 
255 ,46.3741 ,1.30776 ,1.49991 ,14.71714 
256 ,46.5504 ,1.30953 ,1.48965 ,14.61640 
257 ,46.7426 ,1.31144 ,1.47938 ,14.51567 
258 ,46.9186 ,1.31317 ,1.46227 ,14.34778 
259 ,47.0946 ,1.31490 ,1.44858 ,14.21346 
260 ,47.2710 ,1.31668 ,1.42462 ,13.97842 
261 ,47.4467 ,1.31851 ,1.41436 ,13.87768 
262 ,47.6390 ,1.32039 ,1.41778 ,13.91126 
263 ,47.8468 ,1.32240 ,1.40751 ,13.81053 
264 ,48.0232 ,1.32423 ,1.39040 ,13.64263 
265 ,48.2310 ,1.32632 ,1.35960 ,13.34043 
266 ,48.4232 ,1.32821 ,1.36303 ,13.37401 
267 ,48.5993 ,1.32998 ,1.35276 ,13.27327 
268 ,48.7754 ,1.33174 ,1.31854 ,12.93749 
269 ,48.9514 ,1.33350 ,1.29458 ,12.70244 
270 ,49.1276 ,1.33531 ,1.30143 ,12.76960 
271 ,49.3197 ,1.33718 ,1.30143 ,12.76960 
272 ,49.4958 ,1.33898 ,1.26720 ,12.43381 
273 ,49.6877 ,1.34088 ,1.24667 ,12.23235 
274 ,49.8799 ,1.34269 ,1.25352 ,12.29950 
275 ,50.0716 ,1.34470 ,1.23298 ,12.09803 
276 ,50.2478 ,1.34642 ,1.21245 ,11.89656 
277 ,50.4237 ,1.34825 ,1.20903 ,11.86298 
278 ,50.6000 ,1.34997 ,1.20218 ,11.79583 
279 ,50.7920 ,1.35188 ,1.17481 ,11.52720 
280 ,50.9684 ,1.35366 ,1.15770 ,11.35931 
281 ,51.1444 ,1.35545 ,1.15085 ,11.29215 
282 ,51.3363 ,1.35736 ,1.13374 ,11.12426 
283 ,51.5126 ,1.35913 ,1.09952 ,10.78848 
284 ,51.6884 ,1.36088 ,1.09952 ,10.78848 
285 ,51.8807 ,1.36268 ,1.10294 ,10.82206 
286 ,52.0726 ,1.36471 ,1.08241 ,10.62059 
287 ,52.2648 ,1.36668 ,1.08583 ,10.65416 
288 ,52.4406 ,1.36832 ,1.06530 ,10.45270 
289 ,52.6169 ,1.37013 ,1.04819 ,10.28480 
290 ,52.7928 ,1.37188 ,1.02765 ,10.08333 
291 ,52.9688 ,1.37366 ,1.01054 ,9.91544 
292 ,53.1451 ,1.37541 ,1.02423 ,10.04976 
293 ,53.3372 ,1.37727 ,0.99343 ,9.74755 
294 ,53.5292 ,1.37917 ,0.98317 ,9.64682 
295 ,53.7052 ,1.38101 ,0.97290 ,9.54608 
296 ,53.8813 ,1.38281 ,0.96263 ,9.44535 
297 ,54.0416 ,1.38450 ,0.93868 ,9.21030 
298 ,54.2176 ,1.38612 ,0.92499 ,9.07598 
299 ,54.4092 ,1.38818 ,0.91472 ,8.97525 
300 ,54.5856 ,1.38984 ,0.90788 ,8.90809 
301 ,54.7618 ,1.39154 ,0.89077 ,8.74020 
302 ,54.9379 ,1.39338 ,0.88050 ,8.63947 
303 ,55.1458 ,1.39536 ,0.87708 ,8.60589 
304 ,55.3220 ,1.39715 ,0.86681 ,8.50515 
305 ,55.4981 ,1.39890 ,0.83943 ,8.23653 
306 ,55.6901 ,1.40078 ,0.81548 ,8.00148 
307 ,55.8820 ,1.40272 ,0.81206 ,7.96790 
308 ,56.0583 ,1.40454 ,0.79837 ,7.83359 
309 ,56.2504 ,1.40648 ,0.78126 ,7.66570 
310 ,56.4264 ,1.40835 ,0.78810 ,7.73285 
311 ,56.6027 ,1.40998 ,0.77099 ,7.56496 
312 ,56.7950 ,1.41183 ,0.74361 ,7.29633 
313 ,56.9703 ,1.41364 ,0.72308 ,7.09486 
314 ,57.1468 ,1.41546 ,0.72992 ,7.16202 
315 ,57.3229 ,1.41724 ,0.71624 ,7.02771 
316 ,57.4989 ,1.41896 ,0.70597 ,6.92697 
317 ,57.7069 ,1.42100 ,0.68886 ,6.75908 
318 ,57.8828 ,1.42275 ,0.67175 ,6.59119 
319 ,58.0591 ,1.42466 ,0.64779 ,6.35614 
320 ,58.2191 ,1.42625 ,0.62726 ,6.15467 
321 ,58.3952 ,1.42784 ,0.62384 ,6.12109 
322 ,58.5713 ,1.42972 ,0.62042 ,6.08752 
323 ,58.7630 ,1.43155 ,0.61699 ,6.05394 
324 ,58.9395 ,1.43335 ,0.61699 ,6.05394 
325 ,59.1155 ,1.43514 ,0.58619 ,5.75173 
326 ,59.2915 ,1.43684 ,0.56908 ,5.58384 
327 ,59.4676 ,1.43862 ,0.56566 ,5.55026 
328 ,59.6438 ,1.44037 ,0.55882 ,5.48311 
329 ,59.8196 ,1.44218 ,0.54171 ,5.31522 
330 ,59.9959 ,1.44393 ,0.51433 ,5.04659 
331 ,60.1718 ,1.44565 ,0.50748 ,4.97943 
332 ,60.3320 ,1.44737 ,0.49722 ,4.87870 
333 ,60.5081 ,1.44901 ,0.49037 ,4.81154 
334 ,60.6841 ,1.45082 ,0.48011 ,4.71081 
335 ,60.8602 ,1.45257 ,0.45615 ,4.47576 
336 ,61.0361 ,1.45429 ,0.44246 ,4.34144 
337 ,61.2124 ,1.45605 ,0.44246 ,4.34144 
338 ,61.4043 ,1.45796 ,0.43220 ,4.24071 
339 ,61.5966 ,1.45987 ,0.41509 ,4.07282 
340 ,61.7725 ,1.46170 ,0.39797 ,3.90493 
341 ,61.9326 ,1.46340 ,0.38771 ,3.80419 
342 ,62.1084 ,1.46502 ,0.38771 ,3.80419 
343 ,62.2850 ,1.46683 ,0.36375 ,3.56914 
344 ,62.4769 ,1.46871 ,0.34664 ,3.40125 
345 ,62.6529 ,1.47051 ,0.33295 ,3.26694 
346 ,62.8290 ,1.47220 ,0.33980 ,3.33410 
347 ,63.0051 ,1.47403 ,0.31926 ,3.13263 
348 ,63.1972 ,1.47595 ,0.30215 ,2.96473 
349 ,63.3730 ,1.47767 ,0.28504 ,2.79684 
350 ,63.5653 ,1.47961 ,0.30215 ,2.96473 
351 ,63.7574 ,1.48146 ,0.25082 ,2.46106 
352 ,63.9335 ,1.48330 ,0.24055 ,2.36032 
353 ,64.1094 ,1.48507 ,0.24055 ,2.36032 
354 ,64.2855 ,1.48678 ,0.23713 ,2.32675 
355 ,64.4615 ,1.48854 ,0.22687 ,2.22601 
356 ,64.6377 ,1.49028 ,0.19949 ,1.95738 
357 ,64.8137 ,1.49209 ,0.17553 ,1.72234 
358 ,65.0059 ,1.49402 ,0.19949 ,1.95738 
359 ,65.1978 ,1.49589 ,0.15158 ,1.48729 
360 ,65.3738 ,1.49767 ,0.15842 ,1.55445 
361 ,65.5661 ,1.49956 ,0.14473 ,1.42013 
362 ,65.7578 ,1.50153 ,0.12762 ,1.25224 
363 ,65.9342 ,1.50325 ,0.10367 ,1.01719 
364 ,66.1103 ,1.50497 ,0.11051 ,1.08435 
365 ,66.2865 ,1.50678 ,0.11393 ,1.11793 
366 ,66.4785 ,1.50877 ,0.08656 ,0.84930 
367 ,66.6545 ,1.51045 ,0.06602 ,0.64783 
368 ,66.8303 ,1.51219 ,0.07287 ,0.71499 
369 ,67.0067 ,1.51396 ,0.06260 ,0.61425 
370 ,67.1827 ,1.51579 ,0.05234 ,0.51352 
371 ,67.3589 ,1.51749 ,0.02154 ,0.21131 
372 ,67.5346 ,1.51928 ,0.00443 ,0.04342 
373 ,67.7107 ,1.52103 ,0.01469 ,0.14416 
374 ,67.8869 ,1.52281 ,0.00100 ,0.00984 
375 ,68.0629 ,1.52452 ,-0.02295 ,-0.22520 
376 ,68.2391 ,1.52632 ,-0.01953 ,-0.19163 
377 ,68.4153 ,1.52807 ,-0.04691 ,-0.46025 
378 ,68.6073 ,1.53000 ,-0.04006 ,-0.39310 
379 ,68.7835 ,1.53172 ,-0.06744 ,-0.66172 
380 ,68.9755 ,1.53365 ,-0.08455 ,-0.82961 
381 ,69.1514 ,1.53546 ,-0.08113 ,-0.79604 
382 ,69.3436 ,1.53737 ,-0.10166 ,-0.99751 
383 ,69.5357 ,1.53921 ,-0.11535 ,-1.13182 
384 ,69.7114 ,1.54103 ,-0.12562 ,-1.23255 
385 ,69.9359 ,1.54316 ,-0.14615 ,-1.43402 
386 ,70.1119 ,1.54504 ,-0.15642 ,-1.53476 
387 ,70.2880 ,1.54679 ,-0.14957 ,-1.46760 
388 ,70.4638 ,1.54855 ,-0.15984 ,-1.56834 
389 ,70.6400 ,1.55031 ,-0.18379 ,-1.80338 
390 ,70.8163 ,1.55211 ,-0.19064 ,-1.87054 
391 ,71.0081 ,1.55402 ,-0.19748 ,-1.93770 
392 ,71.2004 ,1.55594 ,-0.22144 ,-2.17275 
393 ,71.3762 ,1.55768 ,-0.23513 ,-2.30706 
394 ,71.5685 ,1.55957 ,-0.25224 ,-2.47495 
395 ,71.7605 ,1.56151 ,-0.25908 ,-2.54211 
396 ,71.9365 ,1.56323 ,-0.27961 ,-2.74358 
397 ,72.1127 ,1.56502 ,-0.27619 ,-2.71000 
398 ,72.2890 ,1.56676 ,-0.29330 ,-2.87789 
399 ,72.4648 ,1.56855 ,-0.28646 ,-2.81073 
400 ,72.6410 ,1.57033 ,-0.31726 ,-3.11294 
401 ,72.8650 ,1.57240 ,-0.31384 ,-3.07936 
402 ,73.0412 ,1.57428 ,-0.32752 ,-3.21367 
403 ,73.2332 ,1.57624 ,-0.34121 ,-3.34799 
404 ,73.4092 ,1.57799 ,-0.34464 ,-3.38156 
405 ,73.5853 ,1.57974 ,-0.35148 ,-3.44872 
406 ,73.7614 ,1.58156 ,-0.37544 ,-3.68377 
407 ,73.9375 ,1.58327 ,-0.39255 ,-3.85166 
408 ,74.1294 ,1.58521 ,-0.38912 ,-3.81808 
409 ,74.3057 ,1.58697 ,-0.39939 ,-3.91882 
410 ,74.4977 ,1.58885 ,-0.41992 ,-4.12029 
411 ,74.6899 ,1.59070 ,-0.43703 ,-4.28818 
412 ,74.8816 ,1.59273 ,-0.44730 ,-4.38891 
413 ,75.0580 ,1.59446 ,-0.46441 ,-4.55681 
414 ,75.2498 ,1.59629 ,-0.47810 ,-4.69112 
415 ,75.4419 ,1.59827 ,-0.48152 ,-4.72470 
416 ,75.6181 ,1.60003 ,-0.49179 ,-4.82543 
417 ,75.7945 ,1.60185 ,-0.48152 ,-4.72470 
418 ,75.9860 ,1.60375 ,-0.50890 ,-4.99332 
419 ,76.1625 ,1.60550 ,-0.51574 ,-5.06048 
420 ,76.3545 ,1.60745 ,-0.53285 ,-5.22837 
421 ,76.5306 ,1.60921 ,-0.53285 ,-5.22837 
422 ,76.7067 ,1.61096 ,-0.54654 ,-5.36268 
423 ,76.8827 ,1.61273 ,-0.57050 ,-5.59773 
424 ,77.0589 ,1.61443 ,-0.57392 ,-5.63131 
425 ,77.2349 ,1.61623 ,-0.57734 ,-5.66489 
426 ,77.4269 ,1.61813 ,-0.57392 ,-5.63131 
427 ,77.6031 ,1.61993 ,-0.60130 ,-5.89994 
428 ,77.7791 ,1.62168 ,-0.61841 ,-6.06783 
429 ,77.9551 ,1.62343 ,-0.62525 ,-6.13499 
430 ,78.1473 ,1.62535 ,-0.64236 ,-6.30288 
431 ,78.3713 ,1.62743 ,-0.63552 ,-6.23572 
432 ,78.5475 ,1.62933 ,-0.64579 ,-6.33646 
433 ,78.7396 ,1.63127 ,-0.66632 ,-6.53793 
434 ,78.9316 ,1.63324 ,-0.66974 ,-6.57150 
435 ,79.1392 ,1.63523 ,-0.67659 ,-6.63866 
436 ,79.3316 ,1.63716 ,-0.69370 ,-6.80655 
437 ,79.5076 ,1.63893 ,-0.69712 ,-6.84013 
438 ,79.6997 ,1.64081 ,-0.72792 ,-7.14233 
439 ,79.8757 ,1.64261 ,-0.73134 ,-7.17591 
440 ,80.0520 ,1.64439 ,-0.72792 ,-7.14233 
441 ,80.2440 ,1.64631 ,-0.76556 ,-7.51170 
442 ,80.4362 ,1.64810 ,-0.77241 ,-7.57885 
443 ,80.6281 ,1.65011 ,-0.76556 ,-7.51170 
444 ,80.8044 ,1.65195 ,-0.78610 ,-7.71317 
445 ,80.9965 ,1.65385 ,-0.80321 ,-7.88106 
446 ,81.1886 ,1.65577 ,-0.79978 ,-7.84748 
447 ,81.3645 ,1.65752 ,-0.80663 ,-7.91464 
448 ,81.5406 ,1.65927 ,-0.83743 ,-8.21684 
449 ,81.7327 ,1.66119 ,-0.83058 ,-8.14968 
450 ,81.9087 ,1.66295 ,-0.84427 ,-8.28400 
451 ,82.0848 ,1.66473 ,-0.86481 ,-8.48547 
452 ,82.2609 ,1.66648 ,-0.88192 ,-8.65336 
453 ,82.4530 ,1.66841 ,-0.87849 ,-8.61978 
454 ,82.6290 ,1.67018 ,-0.87849 ,-8.61978 
455 ,82.8051 ,1.67195 ,-0.89218 ,-8.75409 
456 ,82.9811 ,1.67367 ,-0.91956 ,-9.02272 
457 ,83.1729 ,1.67558 ,-0.91614 ,-8.98914 
458 ,83.3489 ,1.67731 ,-0.92298 ,-9.05630 
459 ,83.5251 ,1.67913 ,-0.94351 ,-9.25777 
460 ,83.7331 ,1.68117 ,-0.95720 ,-9.39208 
461 ,83.9095 ,1.68291 ,-0.95378 ,-9.35850 
462 ,84.0857 ,1.68475 ,-0.97089 ,-9.52639 
463 ,84.2615 ,1.68648 ,-0.99485 ,-9.76144 
