Data stamp = , 31-03-2022 10:01:33 359

Calibration Values: 
Slope = , 26.54 , g/V 
Offset Voltage at no contact = , -0.501760 , V 

No , Time , Stage Position ,   Mass , Force 
   ,  (s) ,      (mm)      ,   (g)  , (mN)  

1 ,0.0000 ,0.84946 ,5.30878 ,52.08979 
2 ,0.2282 ,0.84954 ,5.30878 ,52.08979 
3 ,0.5647 ,0.85045 ,5.32589 ,52.25768 
4 ,0.7567 ,0.85204 ,5.31905 ,52.19052 
5 ,0.9326 ,0.85357 ,5.31905 ,52.19052 
6 ,1.1249 ,0.85540 ,5.30536 ,52.05621 
7 ,1.3008 ,0.85720 ,5.31905 ,52.19052 
8 ,1.4769 ,0.85894 ,5.32932 ,52.29126 
9 ,1.6528 ,0.86077 ,5.30878 ,52.08979 
10 ,1.8290 ,0.86254 ,5.28483 ,51.85474 
11 ,2.0052 ,0.86432 ,5.27798 ,51.78758 
12 ,2.1812 ,0.86604 ,5.27456 ,51.75401 
13 ,2.3574 ,0.86781 ,5.27456 ,51.75401 
14 ,2.5494 ,0.86967 ,5.24376 ,51.45180 
15 ,2.7255 ,0.87149 ,5.21981 ,51.21675 
16 ,2.9175 ,0.87343 ,5.22323 ,51.25033 
17 ,3.0935 ,0.87512 ,5.19585 ,50.98170 
18 ,3.2697 ,0.87692 ,5.16505 ,50.67950 
19 ,3.4458 ,0.87867 ,5.15821 ,50.61234 
20 ,3.6380 ,0.88055 ,5.14794 ,50.51161 
21 ,3.8300 ,0.88255 ,5.12056 ,50.24298 
22 ,3.9899 ,0.88427 ,5.09661 ,50.00793 
23 ,4.1660 ,0.88583 ,5.10345 ,50.07509 
24 ,4.3421 ,0.88759 ,5.10003 ,50.04151 
25 ,4.5187 ,0.88934 ,5.08977 ,49.94078 
26 ,4.6942 ,0.89114 ,5.04870 ,49.53784 
27 ,4.8704 ,0.89293 ,5.02474 ,49.30279 
28 ,5.0464 ,0.89466 ,5.02474 ,49.30279 
29 ,5.2386 ,0.89657 ,5.01106 ,49.16848 
30 ,5.4148 ,0.89835 ,4.99052 ,48.96701 
31 ,5.5905 ,0.90014 ,4.96315 ,48.69838 
32 ,5.7667 ,0.90189 ,4.94261 ,48.49691 
33 ,5.9588 ,0.90382 ,4.94946 ,48.56407 
34 ,6.1349 ,0.90554 ,4.92208 ,48.29544 
35 ,6.3268 ,0.90740 ,4.91181 ,48.19471 
36 ,6.5030 ,0.90925 ,4.89128 ,47.99324 
37 ,6.6788 ,0.91097 ,4.88101 ,47.89250 
38 ,6.8552 ,0.91274 ,4.84679 ,47.55672 
39 ,7.0472 ,0.91466 ,4.83310 ,47.42240 
40 ,7.2393 ,0.91661 ,4.81599 ,47.25451 
41 ,7.4155 ,0.91832 ,4.79204 ,47.01946 
42 ,7.5915 ,0.92014 ,4.78177 ,46.91873 
43 ,7.7675 ,0.92188 ,4.76124 ,46.71726 
44 ,7.9437 ,0.92361 ,4.75782 ,46.68368 
45 ,8.1197 ,0.92539 ,4.74070 ,46.51579 
46 ,8.2958 ,0.92717 ,4.70648 ,46.18001 
47 ,8.4879 ,0.92906 ,4.69622 ,46.07927 
48 ,8.6635 ,0.93082 ,4.67568 ,45.87780 
49 ,8.8400 ,0.93262 ,4.65857 ,45.70991 
50 ,9.0317 ,0.93451 ,4.62777 ,45.40771 
51 ,9.2082 ,0.93628 ,4.61751 ,45.30697 
52 ,9.3842 ,0.93804 ,4.61751 ,45.30697 
53 ,9.5923 ,0.94011 ,4.57986 ,44.93761 
54 ,9.7684 ,0.94187 ,4.56275 ,44.76972 
55 ,9.9443 ,0.94361 ,4.56275 ,44.76972 
56 ,10.1365 ,0.94550 ,4.51826 ,44.33320 
57 ,10.3126 ,0.94738 ,4.51484 ,44.29962 
58 ,10.4887 ,0.94909 ,4.49431 ,44.09815 
59 ,10.6643 ,0.95082 ,4.49431 ,44.09815 
60 ,10.8408 ,0.95260 ,4.47035 ,43.86310 
61 ,11.0329 ,0.95448 ,4.44982 ,43.66163 
62 ,11.2250 ,0.95648 ,4.42929 ,43.46016 
63 ,11.4167 ,0.95837 ,4.39849 ,43.15796 
64 ,11.5929 ,0.96009 ,4.37111 ,42.88933 
65 ,11.7690 ,0.96186 ,4.38480 ,43.02365 
66 ,11.9449 ,0.96362 ,4.36769 ,42.85576 
67 ,12.1210 ,0.96537 ,4.34373 ,42.62071 
68 ,12.2975 ,0.96713 ,4.31636 ,42.35208 
69 ,12.4734 ,0.96894 ,4.29582 ,42.15061 
70 ,12.6494 ,0.97064 ,4.28898 ,42.08345 
71 ,12.8416 ,0.97251 ,4.26502 ,41.84841 
72 ,13.0173 ,0.97435 ,4.24791 ,41.68051 
73 ,13.1937 ,0.97611 ,4.22738 ,41.47905 
74 ,13.3696 ,0.97786 ,4.22738 ,41.47905 
75 ,13.5455 ,0.97959 ,4.20685 ,41.27758 
76 ,13.7216 ,0.98140 ,4.20685 ,41.27758 
77 ,13.8815 ,0.98315 ,4.16578 ,40.87464 
78 ,14.0577 ,0.98478 ,4.14867 ,40.70674 
79 ,14.2342 ,0.98655 ,4.13840 ,40.60601 
80 ,14.4423 ,0.98857 ,4.11445 ,40.37096 
81 ,14.6184 ,0.99037 ,4.10760 ,40.30380 
82 ,14.7944 ,0.99211 ,4.08365 ,40.06876 
83 ,14.9706 ,0.99388 ,4.09049 ,40.13591 
84 ,15.1465 ,0.99563 ,4.06654 ,39.90087 
85 ,15.3226 ,0.99741 ,4.03916 ,39.63224 
86 ,15.4986 ,0.99917 ,4.02547 ,39.49793 
87 ,15.6904 ,1.00095 ,3.99809 ,39.22930 
88 ,15.8666 ,1.00281 ,4.01520 ,39.39719 
89 ,16.0430 ,1.00462 ,3.98098 ,39.06141 
90 ,16.2192 ,1.00635 ,3.95018 ,38.75920 
91 ,16.3950 ,1.00810 ,3.93307 ,38.59131 
92 ,16.5712 ,1.00982 ,3.94334 ,38.69205 
93 ,16.7469 ,1.01163 ,3.92281 ,38.49058 
94 ,16.9233 ,1.01339 ,3.89885 ,38.25553 
95 ,17.0992 ,1.01517 ,3.87147 ,37.98690 
96 ,17.2755 ,1.01691 ,3.86121 ,37.88617 
97 ,17.4516 ,1.01873 ,3.84410 ,37.71828 
98 ,17.6437 ,1.02062 ,3.83383 ,37.61754 
99 ,17.8198 ,1.02234 ,3.81672 ,37.44965 
100 ,18.0274 ,1.02438 ,3.80303 ,37.31534 
101 ,18.2038 ,1.02619 ,3.78250 ,37.11387 
102 ,18.3635 ,1.02793 ,3.76196 ,36.91240 
103 ,18.5559 ,1.02972 ,3.75512 ,36.84524 
104 ,18.7156 ,1.03144 ,3.74485 ,36.74450 
105 ,18.8919 ,1.03310 ,3.73459 ,36.64377 
106 ,19.0679 ,1.03488 ,3.72432 ,36.54303 
107 ,19.2601 ,1.03676 ,3.69010 ,36.20725 
108 ,19.4359 ,1.03845 ,3.66272 ,35.93863 
109 ,19.6284 ,1.04046 ,3.66614 ,35.97220 
110 ,19.8202 ,1.04227 ,3.64903 ,35.80431 
111 ,20.0125 ,1.04428 ,3.63877 ,35.70358 
112 ,20.1885 ,1.04602 ,3.61481 ,35.46853 
113 ,20.3802 ,1.04797 ,3.58401 ,35.16632 
114 ,20.5565 ,1.04969 ,3.57717 ,35.09917 
115 ,20.7323 ,1.05147 ,3.57032 ,35.03201 
116 ,20.9089 ,1.05323 ,3.55321 ,34.86412 
117 ,21.0849 ,1.05495 ,3.52584 ,34.59549 
118 ,21.2609 ,1.05677 ,3.50872 ,34.42760 
119 ,21.4527 ,1.05870 ,3.50188 ,34.36045 
120 ,21.6449 ,1.06055 ,3.47792 ,34.12540 
121 ,21.8213 ,1.06237 ,3.46766 ,34.02466 
122 ,21.9973 ,1.06418 ,3.45739 ,33.92393 
123 ,22.1893 ,1.06607 ,3.43686 ,33.72246 
124 ,22.3654 ,1.06778 ,3.40606 ,33.42025 
125 ,22.5410 ,1.06969 ,3.41290 ,33.48741 
126 ,22.7172 ,1.07129 ,3.39237 ,33.28594 
127 ,22.8934 ,1.07302 ,3.38895 ,33.25236 
128 ,23.0696 ,1.07485 ,3.35473 ,32.91658 
129 ,23.2458 ,1.07659 ,3.34104 ,32.78227 
130 ,23.4539 ,1.07859 ,3.34446 ,32.81584 
131 ,23.6298 ,1.08038 ,3.31024 ,32.48006 
132 ,23.8061 ,1.08216 ,3.30339 ,32.41290 
133 ,23.9820 ,1.08397 ,3.27602 ,32.14428 
134 ,24.1580 ,1.08584 ,3.27602 ,32.14428 
135 ,24.3342 ,1.08745 ,3.26575 ,32.04354 
136 ,24.5103 ,1.08923 ,3.24522 ,31.84207 
137 ,24.6864 ,1.09100 ,3.20757 ,31.47271 
138 ,24.8625 ,1.09273 ,3.19046 ,31.30482 
139 ,25.0545 ,1.09464 ,3.19388 ,31.33840 
140 ,25.2466 ,1.09659 ,3.15966 ,31.00262 
141 ,25.4227 ,1.09837 ,3.14597 ,30.86830 
142 ,25.5987 ,1.10009 ,3.15624 ,30.96904 
143 ,25.7908 ,1.10204 ,3.12544 ,30.66683 
144 ,25.9828 ,1.10391 ,3.09464 ,30.36463 
145 ,26.1590 ,1.10570 ,3.09122 ,30.33105 
146 ,26.3351 ,1.10748 ,3.08780 ,30.29747 
147 ,26.5111 ,1.10938 ,3.06042 ,30.02884 
148 ,26.6708 ,1.11096 ,3.03989 ,29.82737 
149 ,26.8471 ,1.11260 ,3.02962 ,29.72664 
150 ,27.0394 ,1.11453 ,3.02620 ,29.69306 
151 ,27.2157 ,1.11633 ,3.00567 ,29.49159 
152 ,27.3915 ,1.11803 ,2.99882 ,29.42444 
153 ,27.5676 ,1.11977 ,2.95776 ,29.02150 
154 ,27.7435 ,1.12159 ,2.94064 ,28.85360 
155 ,27.9358 ,1.12347 ,2.94064 ,28.85360 
156 ,28.1278 ,1.12541 ,2.92011 ,28.65213 
157 ,28.3038 ,1.12723 ,2.89616 ,28.41709 
158 ,28.4800 ,1.12895 ,2.89273 ,28.38351 
159 ,28.6560 ,1.13071 ,2.89273 ,28.38351 
160 ,28.8318 ,1.13242 ,2.86536 ,28.11488 
161 ,29.0241 ,1.13428 ,2.84825 ,27.94699 
162 ,29.2003 ,1.13614 ,2.82771 ,27.74552 
163 ,29.3764 ,1.13793 ,2.83456 ,27.81268 
164 ,29.5684 ,1.13971 ,2.80034 ,27.47689 
165 ,29.7764 ,1.14183 ,2.79349 ,27.40974 
166 ,29.9685 ,1.14376 ,2.76611 ,27.14111 
167 ,30.1444 ,1.14555 ,2.75243 ,27.00680 
168 ,30.3367 ,1.14736 ,2.74558 ,26.93964 
169 ,30.5287 ,1.14937 ,2.71820 ,26.67101 
170 ,30.7048 ,1.15119 ,2.69767 ,26.46954 
171 ,30.8806 ,1.15291 ,2.70452 ,26.53670 
172 ,31.0405 ,1.15466 ,2.69425 ,26.43597 
173 ,31.2168 ,1.15629 ,2.68056 ,26.30165 
174 ,31.4090 ,1.15810 ,2.66345 ,26.13376 
175 ,31.6013 ,1.16013 ,2.62923 ,25.79798 
176 ,31.8092 ,1.16215 ,2.60869 ,25.59651 
177 ,32.0010 ,1.16409 ,2.60527 ,25.56293 
178 ,32.1773 ,1.16587 ,2.58474 ,25.36146 
179 ,32.3535 ,1.16763 ,2.57447 ,25.26073 
180 ,32.5296 ,1.16941 ,2.55736 ,25.09283 
181 ,32.7217 ,1.17134 ,2.54367 ,24.95852 
182 ,32.8977 ,1.17313 ,2.51972 ,24.72347 
183 ,33.0735 ,1.17479 ,2.49576 ,24.48842 
184 ,33.2500 ,1.17660 ,2.48892 ,24.42127 
185 ,33.4259 ,1.17846 ,2.48550 ,24.38769 
186 ,33.6020 ,1.18012 ,2.47523 ,24.28696 
187 ,33.7779 ,1.18184 ,2.46496 ,24.18622 
188 ,33.9700 ,1.18375 ,2.43759 ,23.91759 
189 ,34.1463 ,1.18555 ,2.40679 ,23.61539 
190 ,34.3222 ,1.18730 ,2.41363 ,23.68255 
191 ,34.5145 ,1.18913 ,2.40336 ,23.58181 
192 ,34.6904 ,1.19098 ,2.36230 ,23.17887 
193 ,34.8664 ,1.19272 ,2.36914 ,23.24603 
194 ,35.0746 ,1.19479 ,2.34519 ,23.01098 
195 ,35.2505 ,1.19658 ,2.32123 ,22.77593 
196 ,35.4428 ,1.19849 ,2.32465 ,22.80951 
197 ,35.6190 ,1.20028 ,2.29385 ,22.50731 
198 ,35.7949 ,1.20208 ,2.28017 ,22.37299 
199 ,35.9708 ,1.20377 ,2.26648 ,22.23868 
200 ,36.1471 ,1.20559 ,2.25279 ,22.10437 
201 ,36.3552 ,1.20767 ,2.23226 ,21.90290 
202 ,36.5473 ,1.20960 ,2.22541 ,21.83574 
203 ,36.7394 ,1.21149 ,2.21857 ,21.76858 
204 ,36.9315 ,1.21340 ,2.17750 ,21.36564 
205 ,37.1236 ,1.21532 ,2.18435 ,21.43280 
206 ,37.2996 ,1.21707 ,2.15697 ,21.16417 
207 ,37.4756 ,1.21881 ,2.13986 ,20.99628 
208 ,37.6518 ,1.22062 ,2.11590 ,20.76123 
209 ,37.8438 ,1.22253 ,2.13986 ,20.99628 
210 ,38.0199 ,1.22429 ,2.10221 ,20.62692 
211 ,38.1960 ,1.22604 ,2.08852 ,20.49261 
212 ,38.3721 ,1.22783 ,2.06457 ,20.25756 
213 ,38.5642 ,1.22971 ,2.07484 ,20.35829 
214 ,38.7402 ,1.23149 ,2.04746 ,20.08967 
215 ,38.9323 ,1.23338 ,2.03035 ,19.92178 
216 ,39.1083 ,1.23521 ,2.02350 ,19.85462 
217 ,39.2845 ,1.23695 ,2.00982 ,19.72031 
218 ,39.4605 ,1.23865 ,1.97559 ,19.38452 
219 ,39.6366 ,1.24047 ,1.95848 ,19.21663 
220 ,39.8126 ,1.24219 ,1.95506 ,19.18305 
221 ,39.9886 ,1.24392 ,1.93795 ,19.01516 
222 ,40.1649 ,1.24571 ,1.94479 ,19.08232 
223 ,40.3569 ,1.24765 ,1.91399 ,18.78011 
224 ,40.5329 ,1.24939 ,1.90031 ,18.64580 
225 ,40.7091 ,1.25121 ,1.89346 ,18.57864 
226 ,40.9010 ,1.25305 ,1.87635 ,18.41075 
227 ,41.1091 ,1.25504 ,1.85924 ,18.24286 
228 ,41.2852 ,1.25692 ,1.84897 ,18.14213 
229 ,41.4770 ,1.25875 ,1.82844 ,17.94066 
230 ,41.6694 ,1.26074 ,1.80791 ,17.73919 
231 ,41.9096 ,1.26299 ,1.78395 ,17.50414 
232 ,42.0855 ,1.26491 ,1.79080 ,17.57129 
233 ,42.2777 ,1.26689 ,1.75315 ,17.20193 
234 ,42.4537 ,1.26863 ,1.74973 ,17.16836 
235 ,42.6298 ,1.27038 ,1.73946 ,17.06762 
236 ,42.8055 ,1.27213 ,1.72235 ,16.89973 
237 ,42.9816 ,1.27389 ,1.70524 ,16.73184 
238 ,43.1579 ,1.27567 ,1.68471 ,16.53037 
239 ,43.3499 ,1.27761 ,1.68129 ,16.49679 
240 ,43.5258 ,1.27931 ,1.67786 ,16.46321 
241 ,43.6862 ,1.28102 ,1.65049 ,16.19458 
242 ,43.8782 ,1.28281 ,1.63338 ,16.02669 
243 ,44.0543 ,1.28462 ,1.61284 ,15.82522 
244 ,44.2305 ,1.28632 ,1.61627 ,15.85880 
245 ,44.4227 ,1.28819 ,1.61969 ,15.89238 
246 ,44.5987 ,1.29002 ,1.58547 ,15.55660 
247 ,44.7905 ,1.29196 ,1.57862 ,15.48944 
248 ,44.9828 ,1.29387 ,1.54098 ,15.12008 
249 ,45.1749 ,1.29585 ,1.53756 ,15.08650 
250 ,45.3509 ,1.29762 ,1.53071 ,15.01934 
251 ,45.5270 ,1.29937 ,1.53071 ,15.01934 
252 ,45.7026 ,1.30109 ,1.49649 ,14.68356 
253 ,45.8791 ,1.30287 ,1.46227 ,14.34778 
254 ,46.0549 ,1.30463 ,1.47596 ,14.48209 
255 ,46.2473 ,1.30648 ,1.45542 ,14.28062 
256 ,46.4391 ,1.30835 ,1.43489 ,14.07915 
257 ,46.6152 ,1.31021 ,1.43147 ,14.04557 
258 ,46.8074 ,1.31202 ,1.42462 ,13.97842 
259 ,46.9834 ,1.31387 ,1.40409 ,13.77695 
260 ,47.1595 ,1.31565 ,1.38698 ,13.60906 
261 ,47.3357 ,1.31737 ,1.38356 ,13.57548 
262 ,47.5273 ,1.31934 ,1.35618 ,13.30685 
263 ,47.7034 ,1.32107 ,1.34249 ,13.17254 
264 ,47.8799 ,1.32286 ,1.33565 ,13.10538 
265 ,48.0719 ,1.32476 ,1.31512 ,12.90391 
266 ,48.2480 ,1.32652 ,1.32538 ,13.00465 
267 ,48.4400 ,1.32830 ,1.28774 ,12.63528 
268 ,48.6160 ,1.33019 ,1.28774 ,12.63528 
269 ,48.7923 ,1.33199 ,1.27747 ,12.53455 
270 ,48.9685 ,1.33377 ,1.26720 ,12.43381 
271 ,49.1600 ,1.33568 ,1.23298 ,12.09803 
272 ,49.3361 ,1.33737 ,1.22614 ,12.03088 
273 ,49.5124 ,1.33917 ,1.22272 ,11.99730 
274 ,49.6886 ,1.34088 ,1.20218 ,11.79583 
275 ,49.8646 ,1.34270 ,1.18165 ,11.59436 
276 ,50.0566 ,1.34457 ,1.18165 ,11.59436 
277 ,50.2487 ,1.34652 ,1.15770 ,11.35931 
278 ,50.4247 ,1.34825 ,1.14058 ,11.19142 
279 ,50.6010 ,1.35009 ,1.12690 ,11.05710 
280 ,50.7767 ,1.35181 ,1.13032 ,11.09068 
281 ,50.9526 ,1.35371 ,1.10636 ,10.85563 
282 ,51.1291 ,1.35529 ,1.08925 ,10.68774 
283 ,51.3212 ,1.35726 ,1.06530 ,10.45270 
284 ,51.4972 ,1.35898 ,1.07556 ,10.55343 
285 ,51.6733 ,1.36080 ,1.07899 ,10.58701 
286 ,51.8653 ,1.36270 ,1.04134 ,10.21765 
287 ,52.0574 ,1.36459 ,1.00712 ,9.88186 
288 ,52.2334 ,1.36637 ,1.01396 ,9.94902 
289 ,52.4257 ,1.36821 ,0.99343 ,9.74755 
290 ,52.6016 ,1.37002 ,0.99343 ,9.74755 
291 ,52.7778 ,1.37181 ,0.98659 ,9.68039 
292 ,52.9694 ,1.37373 ,0.96605 ,9.47892 
293 ,53.1457 ,1.37551 ,0.93525 ,9.17672 
294 ,53.3380 ,1.37740 ,0.93525 ,9.17672 
295 ,53.5301 ,1.37933 ,0.92157 ,9.04241 
296 ,53.7061 ,1.38112 ,0.89761 ,8.80736 
297 ,53.8822 ,1.38281 ,0.89761 ,8.80736 
298 ,54.0581 ,1.38461 ,0.89419 ,8.77378 
299 ,54.2340 ,1.38634 ,0.88392 ,8.67305 
300 ,54.4103 ,1.38815 ,0.85654 ,8.40442 
301 ,54.5865 ,1.38987 ,0.83601 ,8.20295 
302 ,54.7625 ,1.39165 ,0.82917 ,8.13579 
303 ,54.9384 ,1.39345 ,0.82232 ,8.06864 
304 ,55.1306 ,1.39529 ,0.79152 ,7.76643 
305 ,55.3067 ,1.39713 ,0.78810 ,7.73285 
306 ,55.4828 ,1.39889 ,0.77099 ,7.56496 
307 ,55.6589 ,1.40059 ,0.77784 ,7.63212 
308 ,55.8510 ,1.40249 ,0.74704 ,7.32991 
309 ,56.0270 ,1.40433 ,0.73335 ,7.19560 
310 ,56.2190 ,1.40619 ,0.74361 ,7.29633 
311 ,56.3951 ,1.40800 ,0.72308 ,7.09486 
312 ,56.5712 ,1.40970 ,0.69913 ,6.85982 
313 ,56.7632 ,1.41164 ,0.69913 ,6.85982 
314 ,56.9394 ,1.41342 ,0.68886 ,6.75908 
315 ,57.1633 ,1.41548 ,0.66833 ,6.55761 
316 ,57.3395 ,1.41740 ,0.66833 ,6.55761 
317 ,57.5161 ,1.41918 ,0.65464 ,6.42330 
318 ,57.6916 ,1.42088 ,0.62384 ,6.12109 
319 ,57.8837 ,1.42278 ,0.61015 ,5.98678 
320 ,58.0599 ,1.42462 ,0.61015 ,5.98678 
321 ,58.2517 ,1.42657 ,0.58619 ,5.75173 
322 ,58.4277 ,1.42826 ,0.57935 ,5.68458 
323 ,58.6201 ,1.43015 ,0.56908 ,5.58384 
324 ,58.7959 ,1.43193 ,0.55882 ,5.48311 
325 ,58.9883 ,1.43387 ,0.53486 ,5.24806 
326 ,59.1642 ,1.43563 ,0.53486 ,5.24806 
327 ,59.3404 ,1.43737 ,0.52802 ,5.18090 
328 ,59.5172 ,1.43919 ,0.51433 ,5.04659 
329 ,59.7246 ,1.44113 ,0.48353 ,4.74438 
330 ,59.9004 ,1.44300 ,0.49380 ,4.84512 
331 ,60.0766 ,1.44474 ,0.46984 ,4.61007 
332 ,60.2526 ,1.44648 ,0.44246 ,4.34144 
333 ,60.4286 ,1.44832 ,0.44931 ,4.40860 
334 ,60.6368 ,1.45025 ,0.44931 ,4.40860 
335 ,60.8609 ,1.45244 ,0.43220 ,4.24071 
336 ,61.0531 ,1.45451 ,0.39797 ,3.90493 
337 ,61.2448 ,1.45638 ,0.40140 ,3.93850 
338 ,61.4213 ,1.45823 ,0.39113 ,3.83777 
339 ,61.5973 ,1.45996 ,0.36718 ,3.60272 
340 ,61.7894 ,1.46191 ,0.35691 ,3.50199 
341 ,61.9653 ,1.46360 ,0.35006 ,3.43483 
342 ,62.1571 ,1.46551 ,0.33638 ,3.30052 
343 ,62.3336 ,1.46734 ,0.31926 ,3.13263 
344 ,62.5254 ,1.46922 ,0.32611 ,3.19978 
345 ,62.7017 ,1.47102 ,0.30558 ,2.99831 
346 ,62.9099 ,1.47304 ,0.28847 ,2.83042 
347 ,63.1018 ,1.47502 ,0.28847 ,2.83042 
348 ,63.2939 ,1.47693 ,0.27135 ,2.66253 
349 ,63.4701 ,1.47872 ,0.25424 ,2.49464 
350 ,63.6457 ,1.48047 ,0.24398 ,2.39390 
351 ,63.8218 ,1.48220 ,0.24055 ,2.36032 
352 ,63.9983 ,1.48395 ,0.21318 ,2.09170 
353 ,64.1902 ,1.48586 ,0.20976 ,2.05812 
354 ,64.3984 ,1.48787 ,0.20291 ,1.99096 
355 ,64.5903 ,1.48986 ,0.18580 ,1.82307 
356 ,64.7665 ,1.49172 ,0.17896 ,1.75592 
357 ,64.9422 ,1.49338 ,0.16869 ,1.65518 
358 ,65.1186 ,1.49515 ,0.16185 ,1.58802 
359 ,65.3106 ,1.49707 ,0.15158 ,1.48729 
360 ,65.4869 ,1.49880 ,0.13789 ,1.35298 
361 ,65.6788 ,1.50077 ,0.11051 ,1.08435 
362 ,65.8549 ,1.50246 ,0.10025 ,0.98361 
363 ,66.0471 ,1.50447 ,0.09340 ,0.91646 
364 ,66.2230 ,1.50618 ,0.10025 ,0.98361 
365 ,66.3992 ,1.50797 ,0.06945 ,0.68141 
366 ,66.5753 ,1.50978 ,0.05918 ,0.58067 
367 ,66.7672 ,1.51156 ,0.04549 ,0.44636 
368 ,66.9433 ,1.51335 ,0.04207 ,0.41278 
369 ,67.1355 ,1.51532 ,0.01811 ,0.17773 
370 ,67.3275 ,1.51724 ,0.02154 ,0.21131 
371 ,67.5197 ,1.51904 ,0.00443 ,0.04342 
372 ,67.6958 ,1.52090 ,-0.01611 ,-0.15805 
373 ,67.8713 ,1.52269 ,-0.01611 ,-0.15805 
374 ,68.0476 ,1.52447 ,-0.02295 ,-0.22520 
375 ,68.2399 ,1.52634 ,-0.05375 ,-0.52741 
376 ,68.4318 ,1.52825 ,-0.05375 ,-0.52741 
377 ,68.6081 ,1.53003 ,-0.05033 ,-0.49383 
378 ,68.7840 ,1.53182 ,-0.06744 ,-0.66172 
379 ,68.9601 ,1.53355 ,-0.09482 ,-0.93035 
380 ,69.1363 ,1.53532 ,-0.10166 ,-0.99751 
381 ,69.3282 ,1.53723 ,-0.10508 ,-1.03108 
382 ,69.5045 ,1.53898 ,-0.14273 ,-1.40045 
383 ,69.6804 ,1.54075 ,-0.13931 ,-1.36687 
384 ,69.8566 ,1.54252 ,-0.15299 ,-1.50118 
385 ,70.0646 ,1.54457 ,-0.16326 ,-1.60191 
386 ,70.2566 ,1.54647 ,-0.17353 ,-1.70265 
387 ,70.4328 ,1.54826 ,-0.17011 ,-1.66907 
388 ,70.6087 ,1.55005 ,-0.18037 ,-1.76981 
389 ,70.7850 ,1.55180 ,-0.19748 ,-1.93770 
390 ,71.0087 ,1.55390 ,-0.21117 ,-2.07201 
391 ,71.1849 ,1.55584 ,-0.21802 ,-2.13917 
392 ,71.3610 ,1.55756 ,-0.24881 ,-2.44137 
393 ,71.5533 ,1.55948 ,-0.23855 ,-2.34064 
394 ,71.7293 ,1.56128 ,-0.25224 ,-2.47495 
395 ,71.9054 ,1.56298 ,-0.28304 ,-2.77716 
396 ,72.0812 ,1.56479 ,-0.28988 ,-2.84431 
397 ,72.2576 ,1.56660 ,-0.30015 ,-2.94505 
398 ,72.4497 ,1.56843 ,-0.30015 ,-2.94505 
399 ,72.6258 ,1.57025 ,-0.31041 ,-3.04578 
400 ,72.8338 ,1.57227 ,-0.33437 ,-3.28083 
401 ,73.0099 ,1.57403 ,-0.33095 ,-3.24725 
402 ,73.2019 ,1.57591 ,-0.35148 ,-3.44872 
403 ,73.3779 ,1.57770 ,-0.36517 ,-3.58303 
404 ,73.5541 ,1.57950 ,-0.35832 ,-3.51588 
405 ,73.7300 ,1.58120 ,-0.37544 ,-3.68377 
406 ,73.9063 ,1.58298 ,-0.40281 ,-3.95240 
407 ,74.0818 ,1.58479 ,-0.40623 ,-3.98597 
408 ,74.2418 ,1.58649 ,-0.41650 ,-4.08671 
409 ,74.4181 ,1.58811 ,-0.41650 ,-4.08671 
410 ,74.6265 ,1.59022 ,-0.44046 ,-4.32176 
411 ,74.8345 ,1.59225 ,-0.44388 ,-4.35534 
412 ,75.0266 ,1.59410 ,-0.44046 ,-4.32176 
413 ,75.2026 ,1.59595 ,-0.47810 ,-4.69112 
414 ,75.3787 ,1.59771 ,-0.47468 ,-4.65754 
415 ,75.5868 ,1.59976 ,-0.49179 ,-4.82543 
416 ,75.7629 ,1.60158 ,-0.49179 ,-4.82543 
417 ,75.9389 ,1.60338 ,-0.49521 ,-4.85901 
418 ,76.1150 ,1.60510 ,-0.51917 ,-5.09406 
419 ,76.3066 ,1.60700 ,-0.54654 ,-5.36268 
420 ,76.4832 ,1.60873 ,-0.55339 ,-5.42984 
421 ,76.6754 ,1.61070 ,-0.54312 ,-5.32911 
422 ,76.8515 ,1.61245 ,-0.56365 ,-5.53058 
423 ,77.0433 ,1.61437 ,-0.58419 ,-5.73205 
424 ,77.2195 ,1.61609 ,-0.57392 ,-5.63131 
425 ,77.3955 ,1.61796 ,-0.60814 ,-5.96709 
426 ,77.5717 ,1.61965 ,-0.61156 ,-6.00067 
427 ,77.7477 ,1.62141 ,-0.63210 ,-6.20214 
428 ,77.9234 ,1.62313 ,-0.62525 ,-6.13499 
429 ,78.0997 ,1.62494 ,-0.62525 ,-6.13499 
430 ,78.2916 ,1.62681 ,-0.64236 ,-6.30288 
431 ,78.4679 ,1.62861 ,-0.65605 ,-6.43719 
432 ,78.6441 ,1.63036 ,-0.65947 ,-6.47077 
433 ,78.8203 ,1.63213 ,-0.66632 ,-6.53793 
434 ,78.9961 ,1.63385 ,-0.68343 ,-6.70582 
435 ,79.1883 ,1.63576 ,-0.70396 ,-6.90729 
436 ,79.3804 ,1.63768 ,-0.69370 ,-6.80655 
437 ,79.5565 ,1.63944 ,-0.70739 ,-6.94086 
438 ,79.7485 ,1.64143 ,-0.73134 ,-7.17591 
439 ,79.9405 ,1.64323 ,-0.74503 ,-7.31023 
440 ,80.1166 ,1.64507 ,-0.74845 ,-7.34380 
441 ,80.2928 ,1.64682 ,-0.75530 ,-7.41096 
442 ,80.4689 ,1.64867 ,-0.77583 ,-7.61243 
443 ,80.6609 ,1.65049 ,-0.77583 ,-7.61243 
444 ,80.8529 ,1.65249 ,-0.79978 ,-7.84748 
445 ,81.0290 ,1.65417 ,-0.81005 ,-7.94821 
446 ,81.2051 ,1.65591 ,-0.81689 ,-8.01537 
447 ,81.3972 ,1.65790 ,-0.81347 ,-7.98179 
448 ,81.5887 ,1.65985 ,-0.82374 ,-8.08253 
449 ,81.7654 ,1.66151 ,-0.85112 ,-8.35115 
450 ,81.9571 ,1.66352 ,-0.85796 ,-8.41831 
451 ,82.1335 ,1.66526 ,-0.87507 ,-8.58620 
452 ,82.3095 ,1.66704 ,-0.87507 ,-8.58620 
453 ,82.5016 ,1.66886 ,-0.90245 ,-8.85483 
454 ,82.6776 ,1.67068 ,-0.87849 ,-8.61978 
455 ,82.8698 ,1.67246 ,-0.90587 ,-8.88841 
456 ,83.0458 ,1.67443 ,-0.92640 ,-9.08988 
457 ,83.2220 ,1.67613 ,-0.92298 ,-9.05630 
458 ,83.3978 ,1.67792 ,-0.92983 ,-9.12345 
459 ,83.5901 ,1.67972 ,-0.95378 ,-9.35850 
460 ,83.7822 ,1.68173 ,-0.95036 ,-9.32492 
461 ,83.9742 ,1.68362 ,-0.97774 ,-9.59355 
462 ,84.1503 ,1.68542 ,-0.99485 ,-9.76144 
463 ,84.3263 ,1.68715 ,-0.99143 ,-9.72786 
