Data stamp = , 31-03-2022 11:40:57 428

Calibration Values: 
Slope = , 26.54 , g/V 
Offset Voltage at no contact = , -0.501760 , V 

No , Time , Stage Position ,   Mass , Force 
   ,  (s) ,      (mm)      ,   (g)  , (mN)  

1 ,0.0000 ,0.84952 ,5.36012 ,52.59346 
2 ,0.2074 ,0.84959 ,5.36012 ,52.59346 
3 ,0.5278 ,0.85043 ,5.38407 ,52.82851 
4 ,0.7357 ,0.85188 ,5.36696 ,52.66062 
5 ,0.9439 ,0.85360 ,5.36012 ,52.59346 
6 ,1.1198 ,0.85544 ,5.36012 ,52.59346 
7 ,1.3120 ,0.85732 ,5.38749 ,52.86209 
8 ,1.4880 ,0.85910 ,5.36354 ,52.62704 
9 ,1.6641 ,0.86085 ,5.34985 ,52.49273 
10 ,1.8404 ,0.86268 ,5.34301 ,52.42557 
11 ,2.0324 ,0.86462 ,5.33958 ,52.39199 
12 ,2.2084 ,0.86634 ,5.31221 ,52.12337 
13 ,2.4002 ,0.86819 ,5.28483 ,51.85474 
14 ,2.5761 ,0.87002 ,5.28825 ,51.88832 
15 ,2.7363 ,0.87172 ,5.25745 ,51.58611 
16 ,2.9126 ,0.87332 ,5.26430 ,51.65327 
17 ,3.1044 ,0.87516 ,5.23007 ,51.31749 
18 ,3.2808 ,0.87706 ,5.20954 ,51.11602 
19 ,3.4567 ,0.87882 ,5.20612 ,51.08244 
20 ,3.6328 ,0.88057 ,5.19927 ,51.01528 
21 ,3.8249 ,0.88246 ,5.17190 ,50.74666 
22 ,4.0011 ,0.88421 ,5.15479 ,50.57876 
23 ,4.1772 ,0.88605 ,5.13425 ,50.37729 
24 ,4.3692 ,0.88793 ,5.12399 ,50.27656 
25 ,4.5612 ,0.88987 ,5.09319 ,49.97436 
26 ,4.7534 ,0.89182 ,5.09661 ,50.00793 
27 ,4.9454 ,0.89372 ,5.05212 ,49.57142 
28 ,5.1213 ,0.89542 ,5.04528 ,49.50426 
29 ,5.2975 ,0.89720 ,5.03843 ,49.43710 
30 ,5.4896 ,0.89908 ,5.00763 ,49.13490 
31 ,5.6494 ,0.90084 ,4.98026 ,48.86627 
32 ,5.8417 ,0.90256 ,4.97341 ,48.79911 
33 ,6.0340 ,0.90462 ,4.95630 ,48.63122 
34 ,6.2260 ,0.90651 ,4.92208 ,48.29544 
35 ,6.4018 ,0.90823 ,4.90155 ,48.09397 
36 ,6.5777 ,0.91001 ,4.90155 ,48.09397 
37 ,6.7537 ,0.91174 ,4.87759 ,47.85892 
38 ,6.9301 ,0.91355 ,4.85364 ,47.62387 
39 ,7.1062 ,0.91529 ,4.84337 ,47.52314 
40 ,7.2823 ,0.91701 ,4.81599 ,47.25451 
41 ,7.4583 ,0.91883 ,4.80915 ,47.18736 
42 ,7.6346 ,0.92062 ,4.79546 ,47.05304 
43 ,7.8100 ,0.92239 ,4.76466 ,46.75084 
44 ,7.9866 ,0.92409 ,4.73728 ,46.48221 
45 ,8.1628 ,0.92582 ,4.73044 ,46.41506 
46 ,8.3707 ,0.92789 ,4.70648 ,46.18001 
47 ,8.5468 ,0.92967 ,4.68595 ,45.97854 
48 ,8.7388 ,0.93160 ,4.67911 ,45.91138 
49 ,8.9150 ,0.93336 ,4.65515 ,45.67633 
50 ,9.0910 ,0.93511 ,4.63119 ,45.44128 
51 ,9.2669 ,0.93690 ,4.63119 ,45.44128 
52 ,9.4589 ,0.93883 ,4.61408 ,45.27339 
53 ,9.6509 ,0.94074 ,4.58671 ,45.00477 
54 ,9.8273 ,0.94248 ,4.57302 ,44.87045 
55 ,10.0033 ,0.94423 ,4.55249 ,44.66898 
56 ,10.1955 ,0.94613 ,4.54222 ,44.56825 
57 ,10.3876 ,0.94805 ,4.50457 ,44.19889 
58 ,10.5636 ,0.94989 ,4.50115 ,44.16531 
59 ,10.7557 ,0.95173 ,4.48062 ,43.96384 
60 ,10.9316 ,0.95352 ,4.45666 ,43.72879 
61 ,11.1239 ,0.95543 ,4.42929 ,43.46016 
62 ,11.2997 ,0.95721 ,4.43613 ,43.52732 
63 ,11.4760 ,0.95900 ,4.42244 ,43.39301 
64 ,11.6521 ,0.96076 ,4.39507 ,43.12438 
65 ,11.8282 ,0.96254 ,4.38138 ,42.99007 
66 ,12.0359 ,0.96449 ,4.36769 ,42.85576 
67 ,12.2282 ,0.96643 ,4.34031 ,42.58713 
68 ,12.4043 ,0.96824 ,4.32320 ,42.41924 
69 ,12.5805 ,0.97000 ,4.31978 ,42.38566 
70 ,12.7562 ,0.97177 ,4.30267 ,42.21777 
71 ,12.9485 ,0.97356 ,4.26845 ,41.88198 
72 ,13.1242 ,0.97548 ,4.26502 ,41.84841 
73 ,13.3008 ,0.97719 ,4.24791 ,41.68051 
74 ,13.5086 ,0.97920 ,4.22053 ,41.41189 
75 ,13.6849 ,0.98105 ,4.19658 ,41.17684 
76 ,13.8767 ,0.98298 ,4.20685 ,41.27758 
77 ,14.0529 ,0.98472 ,4.17605 ,40.97537 
78 ,14.2130 ,0.98644 ,4.14183 ,40.63959 
79 ,14.3890 ,0.98806 ,4.13156 ,40.53885 
80 ,14.5652 ,0.98987 ,4.12814 ,40.50527 
81 ,14.7415 ,0.99163 ,4.11445 ,40.37096 
82 ,14.9333 ,0.99354 ,4.08707 ,40.10233 
83 ,15.1255 ,0.99531 ,4.07680 ,40.00160 
84 ,15.3014 ,0.99720 ,4.06654 ,39.90087 
85 ,15.4775 ,0.99901 ,4.04943 ,39.73297 
86 ,15.6536 ,1.00070 ,4.02205 ,39.46435 
87 ,15.8294 ,1.00248 ,4.00494 ,39.29646 
88 ,16.0058 ,1.00427 ,3.98783 ,39.12856 
89 ,16.1977 ,1.00615 ,3.98098 ,39.06141 
90 ,16.3579 ,1.00790 ,3.95361 ,38.79278 
91 ,16.5339 ,1.00958 ,3.94334 ,38.69205 
92 ,16.7101 ,1.01127 ,3.92965 ,38.55773 
93 ,16.9022 ,1.01322 ,3.90570 ,38.32268 
94 ,17.0941 ,1.01511 ,3.89201 ,38.18837 
95 ,17.2702 ,1.01688 ,3.87490 ,38.02048 
96 ,17.4463 ,1.01867 ,3.84410 ,37.71828 
97 ,17.6384 ,1.02058 ,3.84752 ,37.75185 
98 ,17.8143 ,1.02229 ,3.82014 ,37.48323 
99 ,17.9905 ,1.02409 ,3.80987 ,37.38249 
100 ,18.1667 ,1.02584 ,3.79276 ,37.21460 
101 ,18.3584 ,1.02771 ,3.78250 ,37.11387 
102 ,18.5509 ,1.02966 ,3.75512 ,36.84524 
103 ,18.7588 ,1.03177 ,3.73459 ,36.64377 
104 ,18.9349 ,1.03354 ,3.71748 ,36.47588 
105 ,19.1110 ,1.03527 ,3.70037 ,36.30799 
106 ,19.2869 ,1.03707 ,3.67983 ,36.10652 
107 ,19.4626 ,1.03880 ,3.68668 ,36.17367 
108 ,19.6552 ,1.04061 ,3.65930 ,35.90505 
109 ,19.8473 ,1.04275 ,3.64219 ,35.73716 
110 ,20.0234 ,1.04444 ,3.63192 ,35.63642 
111 ,20.1994 ,1.04622 ,3.60797 ,35.40137 
112 ,20.3756 ,1.04795 ,3.59428 ,35.26706 
113 ,20.5676 ,1.04983 ,3.57717 ,35.09917 
114 ,20.7438 ,1.05163 ,3.56006 ,34.93128 
115 ,20.9196 ,1.05335 ,3.54979 ,34.83054 
116 ,21.0958 ,1.05512 ,3.52241 ,34.56192 
117 ,21.2718 ,1.05692 ,3.49846 ,34.32687 
118 ,21.4639 ,1.05880 ,3.47450 ,34.09182 
119 ,21.6402 ,1.06055 ,3.49161 ,34.25971 
120 ,21.8162 ,1.06234 ,3.46081 ,33.95751 
121 ,21.9919 ,1.06410 ,3.45055 ,33.85677 
122 ,22.1843 ,1.06604 ,3.44713 ,33.82319 
123 ,22.3762 ,1.06795 ,3.41290 ,33.48741 
124 ,22.5524 ,1.06967 ,3.39237 ,33.28594 
125 ,22.7285 ,1.07142 ,3.39921 ,33.35310 
126 ,22.9366 ,1.07336 ,3.36499 ,33.01731 
127 ,23.1285 ,1.07543 ,3.35815 ,32.95016 
128 ,23.3045 ,1.07716 ,3.34104 ,32.78227 
129 ,23.4967 ,1.07907 ,3.31366 ,32.51364 
130 ,23.6725 ,1.08089 ,3.28971 ,32.27859 
131 ,23.8489 ,1.08267 ,3.28286 ,32.21143 
132 ,24.0411 ,1.08455 ,3.27602 ,32.14428 
133 ,24.2168 ,1.08633 ,3.24180 ,31.80849 
134 ,24.3932 ,1.08811 ,3.22468 ,31.64060 
135 ,24.5693 ,1.08989 ,3.21784 ,31.57345 
136 ,24.7450 ,1.09159 ,3.21442 ,31.53987 
137 ,24.9374 ,1.09344 ,3.19731 ,31.37198 
138 ,25.1136 ,1.09531 ,3.16309 ,31.03619 
139 ,25.2895 ,1.09703 ,3.15966 ,31.00262 
140 ,25.4652 ,1.09878 ,3.15282 ,30.93546 
141 ,25.6419 ,1.10060 ,3.13913 ,30.80115 
142 ,25.8172 ,1.10239 ,3.11518 ,30.56610 
143 ,25.9938 ,1.10410 ,3.08780 ,30.29747 
144 ,26.1858 ,1.10610 ,3.08438 ,30.26389 
145 ,26.3620 ,1.10777 ,3.07411 ,30.16316 
146 ,26.5382 ,1.10951 ,3.04331 ,29.86095 
147 ,26.7141 ,1.11131 ,3.02278 ,29.65948 
148 ,26.8741 ,1.11300 ,3.02620 ,29.69306 
149 ,27.0501 ,1.11467 ,3.01251 ,29.55875 
150 ,27.2423 ,1.11655 ,3.00224 ,29.45801 
151 ,27.4179 ,1.11830 ,2.97487 ,29.18939 
152 ,27.6105 ,1.12015 ,2.97487 ,29.18939 
153 ,27.7863 ,1.12204 ,2.95433 ,28.98792 
154 ,27.9785 ,1.12389 ,2.93038 ,28.75287 
155 ,28.1703 ,1.12585 ,2.91669 ,28.61856 
156 ,28.3465 ,1.12761 ,2.89958 ,28.45066 
157 ,28.5388 ,1.12950 ,2.88247 ,28.28277 
158 ,28.7308 ,1.13147 ,2.85509 ,28.01415 
159 ,28.9227 ,1.13334 ,2.86536 ,28.11488 
160 ,29.0990 ,1.13519 ,2.83456 ,27.81268 
161 ,29.2752 ,1.13694 ,2.81745 ,27.64479 
162 ,29.4513 ,1.13863 ,2.80718 ,27.54405 
163 ,29.6272 ,1.14045 ,2.79007 ,27.37616 
164 ,29.8034 ,1.14217 ,2.77638 ,27.24185 
165 ,29.9793 ,1.14396 ,2.75585 ,27.04038 
166 ,30.1716 ,1.14580 ,2.75585 ,27.04038 
167 ,30.3796 ,1.14787 ,2.73531 ,26.83891 
168 ,30.5877 ,1.14994 ,2.69767 ,26.46954 
169 ,30.7637 ,1.15180 ,2.70452 ,26.53670 
170 ,30.9558 ,1.15371 ,2.67714 ,26.26807 
171 ,31.1318 ,1.15549 ,2.66345 ,26.13376 
172 ,31.3078 ,1.15723 ,2.65660 ,26.06661 
173 ,31.4841 ,1.15899 ,2.63949 ,25.89871 
174 ,31.6766 ,1.16093 ,2.62238 ,25.73082 
175 ,31.8680 ,1.16281 ,2.61554 ,25.66367 
176 ,32.0439 ,1.16462 ,2.60185 ,25.52935 
177 ,32.2203 ,1.16628 ,2.57447 ,25.26073 
178 ,32.3963 ,1.16813 ,2.55736 ,25.09283 
179 ,32.5723 ,1.16991 ,2.55736 ,25.09283 
180 ,32.7485 ,1.17163 ,2.53683 ,24.89136 
181 ,32.9246 ,1.17338 ,2.51287 ,24.65632 
182 ,33.1007 ,1.17514 ,2.50603 ,24.58916 
183 ,33.2928 ,1.17698 ,2.48207 ,24.35411 
184 ,33.4848 ,1.17899 ,2.48207 ,24.35411 
185 ,33.6608 ,1.18072 ,2.45470 ,24.08549 
186 ,33.8529 ,1.18260 ,2.45127 ,24.05191 
187 ,34.0452 ,1.18447 ,2.44101 ,23.95117 
188 ,34.2208 ,1.18632 ,2.40336 ,23.58181 
189 ,34.3811 ,1.18807 ,2.40336 ,23.58181 
190 ,34.5732 ,1.18985 ,2.39994 ,23.54823 
191 ,34.7492 ,1.19162 ,2.37941 ,23.34676 
192 ,34.9254 ,1.19351 ,2.35545 ,23.11171 
193 ,35.1014 ,1.19514 ,2.33834 ,22.94382 
194 ,35.2772 ,1.19684 ,2.33492 ,22.91024 
195 ,35.4537 ,1.19869 ,2.31097 ,22.67520 
196 ,35.6456 ,1.20053 ,2.31097 ,22.67520 
197 ,35.8216 ,1.20235 ,2.29043 ,22.47373 
198 ,35.9979 ,1.20409 ,2.26648 ,22.23868 
199 ,36.2220 ,1.20619 ,2.26306 ,22.20510 
200 ,36.4140 ,1.20826 ,2.23226 ,21.90290 
201 ,36.5901 ,1.21002 ,2.23910 ,21.97005 
202 ,36.7661 ,1.21175 ,2.21515 ,21.73500 
203 ,36.9422 ,1.21353 ,2.20488 ,21.63427 
204 ,37.1182 ,1.21527 ,2.17408 ,21.33206 
205 ,37.2944 ,1.21704 ,2.17750 ,21.36564 
206 ,37.4543 ,1.21876 ,2.17066 ,21.29849 
207 ,37.6140 ,1.22040 ,2.16381 ,21.23133 
208 ,37.8061 ,1.22209 ,2.14328 ,21.02986 
209 ,37.9662 ,1.22390 ,2.12275 ,20.82839 
210 ,38.1428 ,1.22551 ,2.10564 ,20.66050 
211 ,38.3506 ,1.22760 ,2.09879 ,20.59334 
212 ,38.5430 ,1.22954 ,2.07141 ,20.32472 
213 ,38.7351 ,1.23143 ,2.07484 ,20.35829 
214 ,38.9110 ,1.23322 ,2.05430 ,20.15682 
215 ,39.1030 ,1.23513 ,2.03377 ,19.95535 
216 ,39.2951 ,1.23704 ,2.02350 ,19.85462 
217 ,39.4709 ,1.23881 ,2.03035 ,19.92178 
218 ,39.6474 ,1.24061 ,1.99613 ,19.58599 
219 ,39.8394 ,1.24248 ,1.97217 ,19.35094 
220 ,40.0154 ,1.24424 ,1.95506 ,19.18305 
221 ,40.1916 ,1.24601 ,1.95848 ,19.21663 
222 ,40.3676 ,1.24778 ,1.94479 ,19.08232 
223 ,40.5434 ,1.24949 ,1.93111 ,18.94801 
224 ,40.7198 ,1.25133 ,1.90031 ,18.64580 
225 ,40.9113 ,1.25322 ,1.90715 ,18.71296 
226 ,41.0878 ,1.25496 ,1.88319 ,18.47791 
227 ,41.2638 ,1.25672 ,1.86266 ,18.27644 
228 ,41.4402 ,1.25853 ,1.83871 ,18.04139 
229 ,41.6155 ,1.26026 ,1.83528 ,18.00781 
230 ,41.7921 ,1.26202 ,1.83528 ,18.00781 
231 ,41.9681 ,1.26377 ,1.82502 ,17.90708 
232 ,42.1603 ,1.26564 ,1.79764 ,17.63845 
233 ,42.3522 ,1.26771 ,1.78053 ,17.47056 
234 ,42.5283 ,1.26937 ,1.77369 ,17.40340 
235 ,42.7044 ,1.27119 ,1.74289 ,17.10120 
236 ,42.8805 ,1.27293 ,1.73262 ,17.00046 
237 ,43.0566 ,1.27465 ,1.71893 ,16.86615 
238 ,43.2324 ,1.27644 ,1.72235 ,16.89973 
239 ,43.4085 ,1.27815 ,1.70182 ,16.69826 
240 ,43.6006 ,1.28008 ,1.68813 ,16.56395 
241 ,43.7768 ,1.28188 ,1.68129 ,16.49679 
242 ,43.9689 ,1.28379 ,1.66760 ,16.36248 
243 ,44.1452 ,1.28552 ,1.64364 ,16.12743 
244 ,44.3370 ,1.28747 ,1.64364 ,16.12743 
245 ,44.5132 ,1.28918 ,1.62995 ,15.99311 
246 ,44.7209 ,1.29122 ,1.59916 ,15.69091 
247 ,44.8973 ,1.29304 ,1.58547 ,15.55660 
248 ,45.0729 ,1.29481 ,1.58547 ,15.55660 
249 ,45.2492 ,1.29657 ,1.56493 ,15.35513 
250 ,45.4414 ,1.29848 ,1.54098 ,15.12008 
251 ,45.6176 ,1.30024 ,1.53413 ,15.05292 
252 ,45.7934 ,1.30203 ,1.53071 ,15.01934 
253 ,45.9696 ,1.30378 ,1.51702 ,14.88503 
254 ,46.1457 ,1.30549 ,1.48280 ,14.54925 
255 ,46.3218 ,1.30727 ,1.47938 ,14.51567 
256 ,46.5139 ,1.30925 ,1.48622 ,14.58283 
257 ,46.6897 ,1.31094 ,1.45885 ,14.31420 
258 ,46.8657 ,1.31284 ,1.44516 ,14.17989 
259 ,47.0422 ,1.31453 ,1.43489 ,14.07915 
260 ,47.2181 ,1.31623 ,1.41436 ,13.87768 
261 ,47.3940 ,1.31801 ,1.41094 ,13.84410 
262 ,47.5701 ,1.31973 ,1.39383 ,13.67621 
263 ,47.7465 ,1.32154 ,1.37329 ,13.47474 
264 ,47.9382 ,1.32346 ,1.35960 ,13.34043 
265 ,48.1145 ,1.32524 ,1.36987 ,13.44116 
266 ,48.2907 ,1.32694 ,1.34591 ,13.20612 
267 ,48.4665 ,1.32872 ,1.32196 ,12.97107 
268 ,48.6587 ,1.33066 ,1.31169 ,12.87033 
269 ,48.8349 ,1.33244 ,1.32538 ,13.00465 
270 ,49.0105 ,1.33422 ,1.30827 ,12.83675 
271 ,49.1870 ,1.33594 ,1.27063 ,12.46739 
272 ,49.3629 ,1.33772 ,1.25694 ,12.33308 
273 ,49.5391 ,1.33944 ,1.26720 ,12.43381 
274 ,49.7311 ,1.34130 ,1.23983 ,12.16519 
275 ,49.9071 ,1.34314 ,1.21929 ,11.96372 
276 ,50.0988 ,1.34499 ,1.20903 ,11.86298 
277 ,50.2752 ,1.34681 ,1.20218 ,11.79583 
278 ,50.4515 ,1.34862 ,1.19192 ,11.69509 
279 ,50.6437 ,1.35047 ,1.16112 ,11.39289 
280 ,50.8357 ,1.35236 ,1.14743 ,11.25857 
281 ,51.0117 ,1.35423 ,1.14743 ,11.25857 
282 ,51.2196 ,1.35617 ,1.12690 ,11.05710 
283 ,51.3954 ,1.35802 ,1.12690 ,11.05710 
284 ,51.5717 ,1.35978 ,1.10636 ,10.85563 
285 ,51.7479 ,1.36155 ,1.07214 ,10.51985 
286 ,51.9240 ,1.36330 ,1.07214 ,10.51985 
287 ,52.1162 ,1.36512 ,1.05503 ,10.35196 
288 ,52.2922 ,1.36700 ,1.05503 ,10.35196 
289 ,52.4680 ,1.36885 ,1.02081 ,10.01618 
290 ,52.6443 ,1.37050 ,1.01739 ,9.98260 
291 ,52.8204 ,1.37226 ,1.01396 ,9.94902 
292 ,52.9964 ,1.37402 ,1.00370 ,9.84829 
293 ,53.1725 ,1.37582 ,0.99685 ,9.78113 
294 ,53.3486 ,1.37752 ,0.96605 ,9.47892 
295 ,53.5245 ,1.37931 ,0.93868 ,9.21030 
296 ,53.7007 ,1.38102 ,0.94552 ,9.27745 
297 ,53.9088 ,1.38297 ,0.94552 ,9.27745 
298 ,54.1008 ,1.38506 ,0.91814 ,9.00883 
299 ,54.2766 ,1.38688 ,0.91130 ,8.94167 
300 ,54.4530 ,1.38857 ,0.90446 ,8.87451 
301 ,54.6452 ,1.39038 ,0.88050 ,8.63947 
302 ,54.8211 ,1.39227 ,0.85312 ,8.37084 
303 ,54.9972 ,1.39405 ,0.86339 ,8.47158 
304 ,55.1732 ,1.39574 ,0.84970 ,8.33726 
305 ,55.3651 ,1.39769 ,0.81890 ,8.03506 
306 ,55.5415 ,1.39941 ,0.80521 ,7.90074 
307 ,55.7335 ,1.40140 ,0.81206 ,7.96790 
308 ,55.9097 ,1.40312 ,0.79152 ,7.76643 
309 ,56.0857 ,1.40489 ,0.76757 ,7.53138 
310 ,56.2619 ,1.40673 ,0.76072 ,7.46423 
311 ,56.4374 ,1.40839 ,0.75730 ,7.43065 
312 ,56.6138 ,1.41019 ,0.75388 ,7.39707 
313 ,56.7901 ,1.41195 ,0.73335 ,7.19560 
314 ,56.9821 ,1.41389 ,0.70255 ,6.89340 
315 ,57.1739 ,1.41580 ,0.71624 ,7.02771 
316 ,57.3502 ,1.41753 ,0.69228 ,6.79266 
317 ,57.5423 ,1.41948 ,0.67517 ,6.62477 
318 ,57.7180 ,1.42120 ,0.66833 ,6.55761 
319 ,57.8943 ,1.42301 ,0.66148 ,6.49046 
320 ,58.0704 ,1.42470 ,0.63410 ,6.22183 
321 ,58.2625 ,1.42654 ,0.62384 ,6.12109 
322 ,58.4388 ,1.42843 ,0.62726 ,6.15467 
323 ,58.6307 ,1.43021 ,0.59304 ,5.81889 
324 ,58.8070 ,1.43208 ,0.57593 ,5.65100 
325 ,59.0309 ,1.43424 ,0.58619 ,5.75173 
326 ,59.2230 ,1.43626 ,0.56566 ,5.55026 
327 ,59.3991 ,1.43800 ,0.55197 ,5.41595 
328 ,59.5908 ,1.43998 ,0.53828 ,5.28164 
329 ,59.7672 ,1.44173 ,0.52117 ,5.11375 
330 ,59.9433 ,1.44346 ,0.51091 ,5.01301 
331 ,60.1194 ,1.44518 ,0.51091 ,5.01301 
332 ,60.2954 ,1.44692 ,0.51091 ,5.01301 
333 ,60.4716 ,1.44874 ,0.47326 ,4.64365 
334 ,60.6476 ,1.45053 ,0.46300 ,4.54291 
335 ,60.8557 ,1.45244 ,0.44931 ,4.40860 
336 ,61.0478 ,1.45451 ,0.42877 ,4.20713 
337 ,61.2237 ,1.45622 ,0.41509 ,4.07282 
338 ,61.3999 ,1.45804 ,0.41166 ,4.03924 
339 ,61.5920 ,1.45989 ,0.41166 ,4.03924 
340 ,61.7839 ,1.46178 ,0.39797 ,3.90493 
341 ,61.9601 ,1.46362 ,0.38086 ,3.73703 
342 ,62.1361 ,1.46543 ,0.37744 ,3.70346 
343 ,62.3123 ,1.46716 ,0.36033 ,3.53557 
344 ,62.4880 ,1.46891 ,0.34664 ,3.40125 
345 ,62.6641 ,1.47062 ,0.32611 ,3.19978 
346 ,62.8405 ,1.47244 ,0.32269 ,3.16620 
347 ,63.0164 ,1.47413 ,0.31584 ,3.09905 
348 ,63.1928 ,1.47596 ,0.31242 ,3.06547 
349 ,63.3847 ,1.47785 ,0.28504 ,2.79684 
350 ,63.5608 ,1.47962 ,0.27135 ,2.66253 
351 ,63.7367 ,1.48140 ,0.28162 ,2.76326 
352 ,63.9129 ,1.48311 ,0.24740 ,2.42748 
353 ,64.1049 ,1.48503 ,0.22687 ,2.22601 
354 ,64.2810 ,1.48675 ,0.23713 ,2.32675 
355 ,64.4568 ,1.48854 ,0.22687 ,2.22601 
356 ,64.6332 ,1.49034 ,0.20976 ,2.05812 
357 ,64.8092 ,1.49206 ,0.18238 ,1.78949 
358 ,64.9854 ,1.49382 ,0.17211 ,1.68876 
359 ,65.1774 ,1.49582 ,0.18238 ,1.78949 
360 ,65.3534 ,1.49755 ,0.16869 ,1.65518 
361 ,65.5296 ,1.49929 ,0.12762 ,1.25224 
362 ,65.7377 ,1.50131 ,0.15158 ,1.48729 
363 ,65.9294 ,1.50329 ,0.11393 ,1.11793 
364 ,66.1059 ,1.50506 ,0.09682 ,0.95004 
365 ,66.2818 ,1.50681 ,0.09340 ,0.91646 
366 ,66.4578 ,1.50861 ,0.09340 ,0.91646 
367 ,66.6341 ,1.51030 ,0.07629 ,0.74857 
368 ,66.8262 ,1.51226 ,0.05576 ,0.54710 
369 ,67.0180 ,1.51420 ,0.05918 ,0.58067 
370 ,67.1942 ,1.51590 ,0.03522 ,0.34563 
371 ,67.3704 ,1.51768 ,0.01811 ,0.17773 
372 ,67.5465 ,1.51946 ,0.00100 ,0.00984 
373 ,67.7384 ,1.52125 ,0.01469 ,0.14416 
374 ,67.9305 ,1.52332 ,-0.02295 ,-0.22520 
375 ,68.1225 ,1.52522 ,-0.02295 ,-0.22520 
376 ,68.3144 ,1.52711 ,-0.02980 ,-0.29236 
377 ,68.5068 ,1.52903 ,-0.05717 ,-0.56099 
378 ,68.6987 ,1.53094 ,-0.05033 ,-0.49383 
379 ,68.8910 ,1.53288 ,-0.07086 ,-0.69530 
380 ,69.0669 ,1.53462 ,-0.08455 ,-0.82961 
381 ,69.2591 ,1.53653 ,-0.08113 ,-0.79604 
382 ,69.4509 ,1.53851 ,-0.10508 ,-1.03108 
383 ,69.6272 ,1.54021 ,-0.12904 ,-1.26613 
384 ,69.8193 ,1.54215 ,-0.11877 ,-1.16540 
385 ,69.9954 ,1.54390 ,-0.13931 ,-1.36687 
386 ,70.1710 ,1.54568 ,-0.16326 ,-1.60191 
387 ,70.3474 ,1.54749 ,-0.17353 ,-1.70265 
388 ,70.5236 ,1.54921 ,-0.17695 ,-1.73623 
389 ,70.6997 ,1.55100 ,-0.18722 ,-1.83696 
390 ,70.8757 ,1.55271 ,-0.19406 ,-1.90412 
391 ,71.0519 ,1.55454 ,-0.20775 ,-2.03843 
392 ,71.2275 ,1.55626 ,-0.22486 ,-2.20632 
393 ,71.3877 ,1.55801 ,-0.22486 ,-2.20632 
394 ,71.5641 ,1.55963 ,-0.24197 ,-2.37422 
395 ,71.7400 ,1.56142 ,-0.24539 ,-2.40779 
396 ,71.9321 ,1.56333 ,-0.27961 ,-2.74358 
397 ,72.1083 ,1.56507 ,-0.27961 ,-2.74358 
398 ,72.3000 ,1.56696 ,-0.27619 ,-2.71000 
399 ,72.4764 ,1.56875 ,-0.28988 ,-2.84431 
400 ,72.6525 ,1.57052 ,-0.31726 ,-3.11294 
401 ,72.8446 ,1.57240 ,-0.32752 ,-3.21367 
402 ,73.0368 ,1.57428 ,-0.31726 ,-3.11294 
403 ,73.2288 ,1.57626 ,-0.35148 ,-3.44872 
404 ,73.4207 ,1.57814 ,-0.35148 ,-3.44872 
405 ,73.6128 ,1.58003 ,-0.37544 ,-3.68377 
406 ,73.8049 ,1.58197 ,-0.37201 ,-3.65019 
407 ,73.9810 ,1.58378 ,-0.38570 ,-3.78450 
408 ,74.1572 ,1.58550 ,-0.39939 ,-3.91882 
409 ,74.3489 ,1.58750 ,-0.42677 ,-4.18744 
410 ,74.5252 ,1.58920 ,-0.42335 ,-4.15387 
411 ,74.7013 ,1.59101 ,-0.43019 ,-4.22102 
412 ,74.8773 ,1.59274 ,-0.44046 ,-4.32176 
413 ,75.0531 ,1.59451 ,-0.45757 ,-4.48965 
414 ,75.2294 ,1.59624 ,-0.46099 ,-4.52323 
415 ,75.4056 ,1.59801 ,-0.47810 ,-4.69112 
416 ,75.5976 ,1.59984 ,-0.49179 ,-4.82543 
417 ,75.7894 ,1.60182 ,-0.50206 ,-4.92617 
418 ,75.9493 ,1.60359 ,-0.52259 ,-5.12764 
419 ,76.1095 ,1.60519 ,-0.52259 ,-5.12764 
420 ,76.2859 ,1.60680 ,-0.53970 ,-5.29553 
421 ,76.4619 ,1.60860 ,-0.52601 ,-5.16121 
422 ,76.6538 ,1.61047 ,-0.56365 ,-5.53058 
423 ,76.8460 ,1.61233 ,-0.55681 ,-5.46342 
424 ,77.0222 ,1.61416 ,-0.57050 ,-5.59773 
425 ,77.1983 ,1.61590 ,-0.56708 ,-5.56415 
426 ,77.3744 ,1.61773 ,-0.59788 ,-5.86636 
427 ,77.5501 ,1.61949 ,-0.61499 ,-6.03425 
428 ,77.7425 ,1.62134 ,-0.61499 ,-6.03425 
429 ,77.9025 ,1.62309 ,-0.61156 ,-6.00067 
430 ,78.0787 ,1.62472 ,-0.63210 ,-6.20214 
431 ,78.2546 ,1.62650 ,-0.63894 ,-6.26930 
432 ,78.4307 ,1.62822 ,-0.65947 ,-6.47077 
433 ,78.6067 ,1.63003 ,-0.66290 ,-6.50435 
434 ,78.7989 ,1.63188 ,-0.68343 ,-6.70582 
435 ,79.0070 ,1.63398 ,-0.67659 ,-6.63866 
436 ,79.1990 ,1.63596 ,-0.69370 ,-6.80655 
437 ,79.3911 ,1.63775 ,-0.70396 ,-6.90729 
438 ,79.5832 ,1.63984 ,-0.70739 ,-6.94086 
439 ,79.7590 ,1.64153 ,-0.72107 ,-7.07518 
440 ,79.9513 ,1.64342 ,-0.75530 ,-7.41096 
441 ,80.1275 ,1.64519 ,-0.75530 ,-7.41096 
442 ,80.3194 ,1.64713 ,-0.76556 ,-7.51170 
443 ,80.4952 ,1.64890 ,-0.76898 ,-7.54527 
444 ,80.6718 ,1.65061 ,-0.79294 ,-7.78032 
445 ,80.8475 ,1.65240 ,-0.79636 ,-7.81390 
446 ,81.0237 ,1.65418 ,-0.81347 ,-7.98179 
447 ,81.1999 ,1.65594 ,-0.81347 ,-7.98179 
448 ,81.3919 ,1.65782 ,-0.83058 ,-8.14968 
449 ,81.5679 ,1.65963 ,-0.83743 ,-8.21684 
450 ,81.7601 ,1.66151 ,-0.83058 ,-8.14968 
451 ,81.9523 ,1.66345 ,-0.86481 ,-8.48547 
452 ,82.1444 ,1.66540 ,-0.86481 ,-8.48547 
453 ,82.3525 ,1.66733 ,-0.89218 ,-8.75409 
454 ,82.5284 ,1.66924 ,-0.89903 ,-8.82125 
455 ,82.7045 ,1.67099 ,-0.89903 ,-8.82125 
456 ,82.8806 ,1.67273 ,-0.89560 ,-8.78767 
457 ,83.0567 ,1.67445 ,-0.92640 ,-9.08988 
458 ,83.2328 ,1.67628 ,-0.94009 ,-9.22419 
459 ,83.4089 ,1.67801 ,-0.94694 ,-9.29135 
460 ,83.6009 ,1.67996 ,-0.94351 ,-9.25777 
461 ,83.7930 ,1.68184 ,-0.96747 ,-9.49282 
462 ,83.9691 ,1.68365 ,-0.97089 ,-9.52639 
463 ,84.1612 ,1.68552 ,-0.97431 ,-9.55997 
