Data stamp = , 30-03-2022 21:55:07 479

Calibration Values: 
Slope = , 26.54 , g/V 
Offset Voltage at no contact = , -0.501760 , V 

No , Time , Stage Position ,   Mass , Force 
   ,  (s) ,      (mm)      ,   (g)  , (mN)  

1 ,0.0000 ,0.84941 ,5.34643 ,52.45915 
2 ,0.2108 ,0.84943 ,5.36696 ,52.66062 
3 ,0.4509 ,0.85008 ,5.35327 ,52.52631 
4 ,0.6266 ,0.85108 ,5.34985 ,52.49273 
5 ,0.8031 ,0.85239 ,5.36012 ,52.59346 
6 ,0.9951 ,0.85414 ,5.36012 ,52.59346 
7 ,1.1713 ,0.85586 ,5.35669 ,52.55988 
8 ,1.3634 ,0.85773 ,5.36354 ,52.62704 
9 ,1.5715 ,0.85977 ,5.36696 ,52.66062 
10 ,1.7314 ,0.86165 ,5.32932 ,52.29126 
11 ,1.9076 ,0.86328 ,5.32589 ,52.25768 
12 ,2.0995 ,0.86516 ,5.31905 ,52.19052 
13 ,2.2917 ,0.86700 ,5.31905 ,52.19052 
14 ,2.4838 ,0.86898 ,5.29510 ,51.95548 
15 ,2.6598 ,0.87076 ,5.28141 ,51.82116 
16 ,2.8358 ,0.87254 ,5.26430 ,51.65327 
17 ,3.0121 ,0.87427 ,5.26087 ,51.61969 
18 ,3.1879 ,0.87606 ,5.23007 ,51.31749 
19 ,3.3801 ,0.87790 ,5.20954 ,51.11602 
20 ,3.5562 ,0.87972 ,5.19927 ,51.01528 
21 ,3.7484 ,0.88165 ,5.16848 ,50.71308 
22 ,3.9403 ,0.88354 ,5.16163 ,50.64592 
23 ,4.1484 ,0.88567 ,5.14794 ,50.51161 
24 ,4.3245 ,0.88743 ,5.13083 ,50.34372 
25 ,4.5170 ,0.88933 ,5.11030 ,50.14225 
26 ,4.6927 ,0.89109 ,5.10345 ,50.07509 
27 ,4.8688 ,0.89288 ,5.09661 ,50.00793 
28 ,5.0447 ,0.89459 ,5.07608 ,49.80646 
29 ,5.2370 ,0.89650 ,5.04528 ,49.50426 
30 ,5.4130 ,0.89828 ,5.04870 ,49.53784 
31 ,5.5891 ,0.90006 ,5.02132 ,49.26921 
32 ,5.7651 ,0.90180 ,5.01106 ,49.16848 
33 ,5.9412 ,0.90357 ,4.97341 ,48.79911 
34 ,6.1175 ,0.90532 ,4.97341 ,48.79911 
35 ,6.2930 ,0.90710 ,4.96315 ,48.69838 
36 ,6.4533 ,0.90883 ,4.93919 ,48.46333 
37 ,6.6294 ,0.91043 ,4.93577 ,48.42975 
38 ,6.8052 ,0.91226 ,4.92208 ,48.29544 
39 ,6.9816 ,0.91396 ,4.88101 ,47.89250 
40 ,7.1738 ,0.91586 ,4.88444 ,47.92608 
41 ,7.3498 ,0.91769 ,4.85706 ,47.65745 
42 ,7.5258 ,0.91954 ,4.83995 ,47.48956 
43 ,7.7020 ,0.92116 ,4.81257 ,47.22093 
44 ,7.8940 ,0.92301 ,4.80573 ,47.15378 
45 ,8.0861 ,0.92497 ,4.78177 ,46.91873 
46 ,8.2621 ,0.92679 ,4.76124 ,46.71726 
47 ,8.4702 ,0.92877 ,4.74755 ,46.58295 
48 ,8.6623 ,0.93071 ,4.73728 ,46.48221 
49 ,8.8703 ,0.93279 ,4.70990 ,46.21359 
50 ,9.0624 ,0.93473 ,4.66542 ,45.77707 
51 ,9.2384 ,0.93651 ,4.65857 ,45.70991 
52 ,9.4145 ,0.93824 ,4.65173 ,45.64275 
53 ,9.6064 ,0.94009 ,4.62777 ,45.40771 
54 ,9.7828 ,0.94202 ,4.61751 ,45.30697 
55 ,9.9748 ,0.94391 ,4.58328 ,44.97119 
56 ,10.1506 ,0.94559 ,4.57644 ,44.90403 
57 ,10.3270 ,0.94741 ,4.56960 ,44.83688 
58 ,10.5187 ,0.94936 ,4.53880 ,44.53467 
59 ,10.6950 ,0.95107 ,4.51826 ,44.33320 
60 ,10.8710 ,0.95282 ,4.51142 ,44.26604 
61 ,11.0472 ,0.95461 ,4.50115 ,44.16531 
62 ,11.2234 ,0.95633 ,4.48062 ,43.96384 
63 ,11.3993 ,0.95815 ,4.45666 ,43.72879 
64 ,11.5753 ,0.95987 ,4.44640 ,43.62806 
65 ,11.7516 ,0.96168 ,4.41218 ,43.29227 
66 ,11.9437 ,0.96356 ,4.42244 ,43.39301 
67 ,12.1197 ,0.96540 ,4.39507 ,43.12438 
68 ,12.2957 ,0.96709 ,4.36427 ,42.82218 
69 ,12.4878 ,0.96901 ,4.38138 ,42.99007 
70 ,12.6638 ,0.97072 ,4.35058 ,42.68786 
71 ,12.8398 ,0.97254 ,4.32662 ,42.45282 
72 ,13.0321 ,0.97449 ,4.32320 ,42.41924 
73 ,13.2238 ,0.97636 ,4.29924 ,42.18419 
74 ,13.4002 ,0.97809 ,4.26502 ,41.84841 
75 ,13.5922 ,0.98009 ,4.26160 ,41.81483 
76 ,13.7684 ,0.98181 ,4.24791 ,41.68051 
77 ,13.9602 ,0.98365 ,4.23080 ,41.51262 
78 ,14.1526 ,0.98563 ,4.20342 ,41.24400 
79 ,14.3285 ,0.98739 ,4.18289 ,41.04253 
80 ,14.5205 ,0.98929 ,4.16236 ,40.84106 
81 ,14.6967 ,0.99105 ,4.13498 ,40.57243 
82 ,14.8567 ,0.99281 ,4.13498 ,40.57243 
83 ,15.0328 ,0.99453 ,4.11787 ,40.40454 
84 ,15.2091 ,0.99621 ,4.10418 ,40.27023 
85 ,15.3849 ,0.99799 ,4.10418 ,40.27023 
86 ,15.5610 ,0.99972 ,4.05969 ,39.83371 
87 ,15.7371 ,1.00146 ,4.04943 ,39.73297 
88 ,15.9131 ,1.00324 ,4.03916 ,39.63224 
89 ,16.1052 ,1.00520 ,4.02889 ,39.53150 
90 ,16.2812 ,1.00687 ,4.00152 ,39.26288 
91 ,16.4573 ,1.00867 ,3.98441 ,39.09499 
92 ,16.6335 ,1.01044 ,3.95703 ,38.82636 
93 ,16.8256 ,1.01240 ,3.95703 ,38.82636 
94 ,17.0016 ,1.01412 ,3.93992 ,38.65847 
95 ,17.1777 ,1.01592 ,3.91596 ,38.42342 
96 ,17.3538 ,1.01764 ,3.89543 ,38.22195 
97 ,17.5618 ,1.01963 ,3.88516 ,38.12122 
98 ,17.7376 ,1.02150 ,3.86805 ,37.95332 
99 ,17.9141 ,1.02328 ,3.84410 ,37.71828 
100 ,18.0901 ,1.02504 ,3.84410 ,37.71828 
101 ,18.2660 ,1.02680 ,3.83725 ,37.65112 
102 ,18.4422 ,1.02848 ,3.81672 ,37.44965 
103 ,18.6341 ,1.03048 ,3.78934 ,37.18102 
104 ,18.8420 ,1.03253 ,3.75854 ,36.87882 
105 ,19.0344 ,1.03443 ,3.73801 ,36.67735 
106 ,19.2261 ,1.03638 ,3.74485 ,36.74450 
107 ,19.4187 ,1.03817 ,3.72774 ,36.57661 
108 ,19.5946 ,1.04005 ,3.69352 ,36.24083 
109 ,19.7865 ,1.04183 ,3.69010 ,36.20725 
110 ,19.9789 ,1.04393 ,3.66614 ,35.97220 
111 ,20.1548 ,1.04569 ,3.63192 ,35.63642 
112 ,20.3469 ,1.04760 ,3.63877 ,35.70358 
113 ,20.5229 ,1.04931 ,3.61823 ,35.50211 
114 ,20.6992 ,1.05107 ,3.60797 ,35.40137 
115 ,20.8753 ,1.05288 ,3.58059 ,35.13275 
116 ,21.0672 ,1.05475 ,3.56690 ,34.99843 
117 ,21.2433 ,1.05660 ,3.56006 ,34.93128 
118 ,21.4194 ,1.05842 ,3.52241 ,34.56192 
119 ,21.5950 ,1.06002 ,3.51557 ,34.49476 
120 ,21.7715 ,1.06180 ,3.49846 ,34.32687 
121 ,21.9476 ,1.06361 ,3.48135 ,34.15898 
122 ,22.1238 ,1.06534 ,3.47108 ,34.05824 
123 ,22.3159 ,1.06727 ,3.45397 ,33.89035 
124 ,22.5078 ,1.06912 ,3.42659 ,33.62172 
125 ,22.6834 ,1.07090 ,3.43686 ,33.72246 
126 ,22.8599 ,1.07270 ,3.40264 ,33.38667 
127 ,23.0521 ,1.07461 ,3.37526 ,33.11805 
128 ,23.2281 ,1.07639 ,3.36499 ,33.01731 
129 ,23.4361 ,1.07840 ,3.35130 ,32.88300 
130 ,23.6124 ,1.08024 ,3.31366 ,32.51364 
131 ,23.8043 ,1.08218 ,3.31708 ,32.54722 
132 ,24.0123 ,1.08409 ,3.28971 ,32.27859 
133 ,24.1884 ,1.08597 ,3.27259 ,32.11070 
134 ,24.3645 ,1.08776 ,3.26917 ,32.07712 
135 ,24.5406 ,1.08951 ,3.25891 ,31.97639 
136 ,24.7326 ,1.09130 ,3.23837 ,31.77492 
137 ,24.9248 ,1.09321 ,3.20073 ,31.40555 
138 ,25.1171 ,1.09524 ,3.20415 ,31.43913 
139 ,25.2929 ,1.09700 ,3.18020 ,31.20409 
140 ,25.4690 ,1.09881 ,3.15624 ,30.96904 
141 ,25.6451 ,1.10057 ,3.13571 ,30.76757 
142 ,25.8367 ,1.10239 ,3.12544 ,30.66683 
143 ,26.0133 ,1.10420 ,3.10833 ,30.49894 
144 ,26.2213 ,1.10630 ,3.08438 ,30.26389 
145 ,26.3974 ,1.10808 ,3.08438 ,30.26389 
146 ,26.5730 ,1.10981 ,3.06042 ,30.02884 
147 ,26.7493 ,1.11159 ,3.04331 ,29.86095 
148 ,26.9255 ,1.11344 ,3.05015 ,29.92811 
149 ,27.1177 ,1.11515 ,3.03304 ,29.76022 
150 ,27.3577 ,1.11744 ,2.99540 ,29.39086 
151 ,27.5338 ,1.11943 ,2.98171 ,29.25654 
152 ,27.7100 ,1.12117 ,2.95433 ,28.98792 
153 ,27.9176 ,1.12318 ,2.95433 ,28.98792 
154 ,28.1101 ,1.12506 ,2.93380 ,28.78645 
155 ,28.3021 ,1.12711 ,2.92353 ,28.68571 
156 ,28.4783 ,1.12885 ,2.90300 ,28.48424 
157 ,28.6541 ,1.13064 ,2.89273 ,28.38351 
158 ,28.8624 ,1.13267 ,2.87905 ,28.24919 
159 ,29.0541 ,1.13462 ,2.84825 ,27.94699 
160 ,29.2144 ,1.13631 ,2.82771 ,27.74552 
161 ,29.3904 ,1.13799 ,2.80718 ,27.54405 
162 ,29.5664 ,1.13974 ,2.81060 ,27.57763 
163 ,29.7427 ,1.14148 ,2.79691 ,27.44332 
164 ,29.9348 ,1.14337 ,2.77296 ,27.20827 
165 ,30.1108 ,1.14516 ,2.75243 ,27.00680 
166 ,30.2868 ,1.14694 ,2.73874 ,26.87248 
167 ,30.4787 ,1.14886 ,2.73531 ,26.83891 
168 ,30.6710 ,1.15070 ,2.72163 ,26.70459 
169 ,30.8628 ,1.15268 ,2.70452 ,26.53670 
170 ,31.0390 ,1.15444 ,2.69425 ,26.43597 
171 ,31.2312 ,1.15632 ,2.64976 ,25.99945 
172 ,31.4073 ,1.15816 ,2.63607 ,25.86514 
173 ,31.6153 ,1.16016 ,2.64292 ,25.93229 
174 ,31.8075 ,1.16211 ,2.61554 ,25.66367 
175 ,31.9835 ,1.16395 ,2.60527 ,25.56293 
176 ,32.1596 ,1.16577 ,2.59501 ,25.46220 
177 ,32.3357 ,1.16737 ,2.58474 ,25.36146 
178 ,32.5114 ,1.16918 ,2.56421 ,25.15999 
179 ,32.7037 ,1.17103 ,2.55394 ,25.05926 
180 ,32.8798 ,1.17290 ,2.54710 ,24.99210 
181 ,33.0560 ,1.17463 ,2.51972 ,24.72347 
182 ,33.2159 ,1.17634 ,2.50261 ,24.55558 
183 ,33.4082 ,1.17806 ,2.47865 ,24.32053 
184 ,33.5840 ,1.17986 ,2.45812 ,24.11906 
185 ,33.7603 ,1.18166 ,2.47181 ,24.25338 
186 ,33.9363 ,1.18339 ,2.45127 ,24.05191 
187 ,34.1125 ,1.18520 ,2.42732 ,23.81686 
188 ,34.2884 ,1.18693 ,2.40679 ,23.61539 
189 ,34.4804 ,1.18886 ,2.39652 ,23.51465 
190 ,34.6563 ,1.19058 ,2.39994 ,23.54823 
191 ,34.8323 ,1.19235 ,2.36914 ,23.24603 
192 ,35.0086 ,1.19413 ,2.35203 ,23.07814 
193 ,35.1848 ,1.19587 ,2.33150 ,22.87667 
194 ,35.3607 ,1.19763 ,2.33834 ,22.94382 
195 ,35.5370 ,1.19945 ,2.31439 ,22.70877 
196 ,35.7131 ,1.20122 ,2.30754 ,22.64162 
197 ,35.8890 ,1.20295 ,2.28701 ,22.44015 
198 ,36.0652 ,1.20470 ,2.27332 ,22.30584 
199 ,36.2411 ,1.20652 ,2.25621 ,22.13794 
200 ,36.4173 ,1.20820 ,2.25621 ,22.13794 
201 ,36.5933 ,1.21000 ,2.23910 ,21.97005 
202 ,36.7693 ,1.21175 ,2.22541 ,21.83574 
203 ,36.9455 ,1.21352 ,2.19803 ,21.56711 
204 ,37.1374 ,1.21546 ,2.19803 ,21.56711 
205 ,37.3293 ,1.21735 ,2.16381 ,21.23133 
206 ,37.5058 ,1.21914 ,2.15697 ,21.16417 
207 ,37.6818 ,1.22083 ,2.15012 ,21.09702 
208 ,37.8578 ,1.22261 ,2.14328 ,21.02986 
209 ,38.0340 ,1.22442 ,2.12959 ,20.89555 
210 ,38.2420 ,1.22646 ,2.10564 ,20.66050 
211 ,38.4177 ,1.22819 ,2.09537 ,20.55976 
212 ,38.5939 ,1.22999 ,2.07141 ,20.32472 
213 ,38.7702 ,1.23174 ,2.06457 ,20.25756 
214 ,38.9463 ,1.23347 ,2.03719 ,19.98893 
215 ,39.1223 ,1.23528 ,2.03035 ,19.92178 
216 ,39.2984 ,1.23706 ,2.02008 ,19.82104 
217 ,39.4905 ,1.23895 ,2.01324 ,19.75388 
218 ,39.6664 ,1.24066 ,1.98244 ,19.45168 
219 ,39.8424 ,1.24244 ,1.97559 ,19.38452 
220 ,40.0188 ,1.24423 ,1.96875 ,19.31737 
221 ,40.1947 ,1.24598 ,1.96190 ,19.25021 
222 ,40.3709 ,1.24771 ,1.94479 ,19.08232 
223 ,40.5468 ,1.24948 ,1.92768 ,18.91443 
224 ,40.7229 ,1.25125 ,1.91399 ,18.78011 
225 ,40.8989 ,1.25302 ,1.90715 ,18.71296 
226 ,41.0911 ,1.25491 ,1.89688 ,18.61222 
227 ,41.2833 ,1.25688 ,1.85924 ,18.24286 
228 ,41.4593 ,1.25861 ,1.86951 ,18.34360 
229 ,41.6350 ,1.26041 ,1.86608 ,18.31002 
230 ,41.8112 ,1.26213 ,1.84555 ,18.10855 
231 ,41.9875 ,1.26391 ,1.82160 ,17.87350 
232 ,42.1633 ,1.26568 ,1.80449 ,17.70561 
233 ,42.3397 ,1.26740 ,1.79764 ,17.63845 
234 ,42.5156 ,1.26921 ,1.78395 ,17.50414 
235 ,42.6919 ,1.27090 ,1.79080 ,17.57129 
236 ,42.8679 ,1.27272 ,1.74973 ,17.16836 
237 ,43.0598 ,1.27457 ,1.74973 ,17.16836 
238 ,43.2359 ,1.27637 ,1.74289 ,17.10120 
239 ,43.4122 ,1.27815 ,1.73262 ,17.00046 
240 ,43.6038 ,1.28004 ,1.69498 ,16.63110 
241 ,43.7803 ,1.28183 ,1.68471 ,16.53037 
242 ,43.9722 ,1.28374 ,1.69155 ,16.59752 
243 ,44.1644 ,1.28564 ,1.66760 ,16.36248 
244 ,44.3404 ,1.28746 ,1.66075 ,16.29532 
245 ,44.5166 ,1.28916 ,1.65391 ,16.22816 
246 ,44.6922 ,1.29107 ,1.61627 ,15.85880 
247 ,44.8684 ,1.29272 ,1.62311 ,15.92596 
248 ,45.0608 ,1.29457 ,1.60600 ,15.75807 
249 ,45.2366 ,1.29639 ,1.59573 ,15.65733 
250 ,45.4130 ,1.29819 ,1.58204 ,15.52302 
251 ,45.6208 ,1.30014 ,1.56151 ,15.32155 
252 ,45.7970 ,1.30196 ,1.55124 ,15.22081 
253 ,45.9731 ,1.30377 ,1.55124 ,15.22081 
254 ,46.1490 ,1.30547 ,1.53413 ,15.05292 
255 ,46.3413 ,1.30744 ,1.50676 ,14.78430 
256 ,46.5175 ,1.30918 ,1.51360 ,14.85145 
257 ,46.7094 ,1.31110 ,1.49307 ,14.64998 
258 ,46.9015 ,1.31292 ,1.47253 ,14.44851 
259 ,47.0776 ,1.31477 ,1.47253 ,14.44851 
260 ,47.2692 ,1.31664 ,1.45885 ,14.31420 
261 ,47.4452 ,1.31846 ,1.42805 ,14.01199 
262 ,47.6215 ,1.32018 ,1.42120 ,13.94484 
263 ,47.8138 ,1.32216 ,1.42805 ,14.01199 
264 ,48.0219 ,1.32410 ,1.40067 ,13.74337 
265 ,48.2140 ,1.32614 ,1.39725 ,13.70979 
266 ,48.4222 ,1.32821 ,1.35618 ,13.30685 
267 ,48.6142 ,1.33011 ,1.35618 ,13.30685 
268 ,48.8063 ,1.33199 ,1.35960 ,13.34043 
269 ,48.9821 ,1.33396 ,1.33565 ,13.10538 
270 ,49.2064 ,1.33586 ,1.31854 ,12.93749 
271 ,49.3824 ,1.33785 ,1.30485 ,12.80318 
272 ,49.5586 ,1.33957 ,1.29800 ,12.73602 
273 ,49.7345 ,1.34136 ,1.28432 ,12.60171 
274 ,49.9262 ,1.34317 ,1.26036 ,12.36666 
275 ,50.1028 ,1.34502 ,1.24667 ,12.23235 
276 ,50.2947 ,1.34691 ,1.25009 ,12.26592 
277 ,50.4709 ,1.34871 ,1.24325 ,12.19877 
278 ,50.6467 ,1.35047 ,1.21929 ,11.96372 
279 ,50.8230 ,1.35223 ,1.18165 ,11.59436 
280 ,50.9987 ,1.35394 ,1.18507 ,11.62794 
281 ,51.1753 ,1.35577 ,1.18850 ,11.66151 
282 ,51.3512 ,1.35749 ,1.17138 ,11.49362 
283 ,51.5273 ,1.35926 ,1.16454 ,11.42647 
284 ,51.7031 ,1.36114 ,1.14401 ,11.22500 
285 ,51.8791 ,1.36279 ,1.12005 ,10.98995 
286 ,52.0552 ,1.36451 ,1.12690 ,11.05710 
287 ,52.2476 ,1.36637 ,1.12690 ,11.05710 
288 ,52.4234 ,1.36834 ,1.08925 ,10.68774 
289 ,52.5835 ,1.36994 ,1.07556 ,10.55343 
290 ,52.7758 ,1.37160 ,1.04134 ,10.21765 
291 ,52.9677 ,1.37363 ,1.06530 ,10.45270 
292 ,53.1600 ,1.37550 ,1.03108 ,10.11691 
293 ,53.3358 ,1.37733 ,1.03450 ,10.15049 
294 ,53.5123 ,1.37907 ,1.03108 ,10.11691 
295 ,53.6882 ,1.38086 ,1.02423 ,10.04976 
296 ,53.8643 ,1.38264 ,0.99685 ,9.78113 
297 ,54.0564 ,1.38456 ,0.97290 ,9.54608 
298 ,54.2164 ,1.38625 ,0.96948 ,9.51250 
299 ,54.3925 ,1.38787 ,0.96263 ,9.44535 
300 ,54.5685 ,1.38969 ,0.94552 ,9.27745 
301 ,54.7286 ,1.39135 ,0.93868 ,9.21030 
302 ,54.8886 ,1.39296 ,0.92841 ,9.10956 
303 ,55.0647 ,1.39462 ,0.91814 ,9.00883 
304 ,55.2408 ,1.39637 ,0.89419 ,8.77378 
305 ,55.4169 ,1.39812 ,0.88050 ,8.63947 
306 ,55.5929 ,1.39987 ,0.89419 ,8.77378 
307 ,55.7691 ,1.40166 ,0.88392 ,8.67305 
308 ,55.9290 ,1.40341 ,0.85654 ,8.40442 
309 ,56.1051 ,1.40504 ,0.84970 ,8.33726 
310 ,56.2808 ,1.40675 ,0.82575 ,8.10221 
311 ,56.4572 ,1.40849 ,0.81548 ,8.00148 
312 ,56.6332 ,1.41030 ,0.80521 ,7.90074 
313 ,56.8094 ,1.41208 ,0.80179 ,7.86717 
314 ,56.9853 ,1.41386 ,0.78468 ,7.69927 
315 ,57.1776 ,1.41565 ,0.77099 ,7.56496 
316 ,57.3374 ,1.41747 ,0.75046 ,7.36349 
317 ,57.5137 ,1.41908 ,0.75730 ,7.43065 
318 ,57.6899 ,1.42084 ,0.73677 ,7.22918 
319 ,57.8659 ,1.42266 ,0.73335 ,7.19560 
320 ,58.0419 ,1.42437 ,0.70597 ,6.92697 
321 ,58.2180 ,1.42615 ,0.68886 ,6.75908 
322 ,58.3777 ,1.42782 ,0.69570 ,6.82624 
323 ,58.5543 ,1.42953 ,0.66490 ,6.52403 
324 ,58.7461 ,1.43144 ,0.65806 ,6.45688 
325 ,58.9222 ,1.43314 ,0.64437 ,6.32256 
326 ,59.0983 ,1.43493 ,0.62384 ,6.12109 
327 ,59.2745 ,1.43665 ,0.62726 ,6.15467 
328 ,59.4501 ,1.43859 ,0.62726 ,6.15467 
329 ,59.6266 ,1.44023 ,0.60673 ,5.95320 
330 ,59.8186 ,1.44215 ,0.59304 ,5.81889 
331 ,59.9946 ,1.44390 ,0.58277 ,5.71815 
332 ,60.1708 ,1.44562 ,0.57251 ,5.61742 
333 ,60.3468 ,1.44743 ,0.56908 ,5.58384 
334 ,60.5070 ,1.44916 ,0.54171 ,5.31522 
335 ,60.6989 ,1.45082 ,0.52802 ,5.18090 
336 ,60.8912 ,1.45275 ,0.50748 ,4.97943 
337 ,61.0993 ,1.45479 ,0.50748 ,4.97943 
338 ,61.2751 ,1.45670 ,0.48353 ,4.74438 
339 ,61.4511 ,1.45847 ,0.48695 ,4.77796 
340 ,61.6114 ,1.46016 ,0.48695 ,4.77796 
341 ,61.8034 ,1.46194 ,0.46642 ,4.57649 
342 ,61.9636 ,1.46366 ,0.43904 ,4.30787 
343 ,62.1397 ,1.46535 ,0.42877 ,4.20713 
344 ,62.3155 ,1.46709 ,0.41509 ,4.07282 
345 ,62.4917 ,1.46887 ,0.41851 ,4.10640 
346 ,62.6838 ,1.47076 ,0.41509 ,4.07282 
347 ,62.8598 ,1.47255 ,0.39455 ,3.87135 
348 ,63.0359 ,1.47425 ,0.37402 ,3.66988 
349 ,63.2122 ,1.47604 ,0.36033 ,3.53557 
350 ,63.3879 ,1.47785 ,0.36718 ,3.60272 
351 ,63.5803 ,1.47967 ,0.34322 ,3.36767 
352 ,63.7721 ,1.48158 ,0.33295 ,3.26694 
353 ,63.9643 ,1.48357 ,0.32953 ,3.23336 
354 ,64.1403 ,1.48532 ,0.30215 ,2.96473 
355 ,64.3326 ,1.48728 ,0.29873 ,2.93116 
356 ,64.5086 ,1.48907 ,0.29189 ,2.86400 
357 ,64.7002 ,1.49080 ,0.27820 ,2.72969 
358 ,64.8767 ,1.49273 ,0.25767 ,2.52822 
359 ,65.0528 ,1.49448 ,0.24055 ,2.36032 
360 ,65.2289 ,1.49624 ,0.24055 ,2.36032 
361 ,65.4210 ,1.49815 ,0.21318 ,2.09170 
362 ,65.6131 ,1.49997 ,0.19607 ,1.92381 
363 ,65.8050 ,1.50198 ,0.19607 ,1.92381 
364 ,65.9808 ,1.50372 ,0.19607 ,1.92381 
365 ,66.1572 ,1.50550 ,0.17211 ,1.68876 
366 ,66.3333 ,1.50726 ,0.16527 ,1.62160 
367 ,66.5253 ,1.50917 ,0.17211 ,1.68876 
368 ,66.7013 ,1.51087 ,0.13105 ,1.28582 
369 ,66.8774 ,1.51265 ,0.12762 ,1.25224 
370 ,67.0535 ,1.51453 ,0.11393 ,1.11793 
371 ,67.2452 ,1.51635 ,0.10367 ,1.01719 
372 ,67.4218 ,1.51812 ,0.08314 ,0.81572 
373 ,67.5976 ,1.51987 ,0.07287 ,0.71499 
374 ,67.7737 ,1.52164 ,0.06602 ,0.64783 
375 ,67.9338 ,1.52335 ,0.05918 ,0.58067 
376 ,68.1100 ,1.52503 ,0.05576 ,0.54710 
377 ,68.2856 ,1.52678 ,0.03865 ,0.37920 
378 ,68.4621 ,1.52855 ,0.03522 ,0.34563 
379 ,68.6379 ,1.53030 ,0.01469 ,0.14416 
380 ,68.8139 ,1.53215 ,0.02154 ,0.21131 
381 ,68.9742 ,1.53376 ,-0.00242 ,-0.02373 
382 ,69.1660 ,1.53552 ,-0.00584 ,-0.05731 
383 ,69.3424 ,1.53734 ,-0.03322 ,-0.32594 
384 ,69.5184 ,1.53912 ,-0.03664 ,-0.35952 
385 ,69.6940 ,1.54086 ,-0.05717 ,-0.56099 
386 ,69.8706 ,1.54259 ,-0.06060 ,-0.59457 
387 ,70.0466 ,1.54437 ,-0.06744 ,-0.66172 
388 ,70.2227 ,1.54610 ,-0.08113 ,-0.79604 
389 ,70.3985 ,1.54800 ,-0.09482 ,-0.93035 
390 ,70.5748 ,1.54964 ,-0.11193 ,-1.09824 
391 ,70.7508 ,1.55142 ,-0.11193 ,-1.09824 
392 ,70.9431 ,1.55336 ,-0.13588 ,-1.33329 
393 ,71.1353 ,1.55518 ,-0.15642 ,-1.53476 
394 ,71.3272 ,1.55719 ,-0.14273 ,-1.40045 
395 ,71.5031 ,1.55893 ,-0.15984 ,-1.56834 
396 ,71.6794 ,1.56072 ,-0.17353 ,-1.70265 
397 ,71.8554 ,1.56247 ,-0.20433 ,-2.00485 
398 ,72.0311 ,1.56435 ,-0.18722 ,-1.83696 
399 ,72.2077 ,1.56601 ,-0.20090 ,-1.97128 
400 ,72.3835 ,1.56772 ,-0.22828 ,-2.23990 
401 ,72.5598 ,1.56951 ,-0.22828 ,-2.23990 
402 ,72.7518 ,1.57136 ,-0.24881 ,-2.44137 
403 ,72.9279 ,1.57320 ,-0.25224 ,-2.47495 
404 ,73.1036 ,1.57490 ,-0.25908 ,-2.54211 
405 ,73.2800 ,1.57673 ,-0.27277 ,-2.67642 
406 ,73.4559 ,1.57842 ,-0.28988 ,-2.84431 
407 ,73.6322 ,1.58018 ,-0.30699 ,-3.01220 
408 ,73.8081 ,1.58193 ,-0.30015 ,-2.94505 
409 ,73.9843 ,1.58384 ,-0.32068 ,-3.14652 
410 ,74.1602 ,1.58549 ,-0.33095 ,-3.24725 
411 ,74.3525 ,1.58742 ,-0.34121 ,-3.34799 
412 ,74.5285 ,1.58919 ,-0.35490 ,-3.48230 
413 ,74.7044 ,1.59098 ,-0.34806 ,-3.41514 
414 ,74.8967 ,1.59285 ,-0.37886 ,-3.71735 
415 ,75.0886 ,1.59477 ,-0.38570 ,-3.78450 
416 ,75.2648 ,1.59652 ,-0.39597 ,-3.88524 
417 ,75.4410 ,1.59827 ,-0.39939 ,-3.91882 
418 ,75.6330 ,1.60025 ,-0.42677 ,-4.18744 
419 ,75.8091 ,1.60199 ,-0.43019 ,-4.22102 
420 ,75.9847 ,1.60379 ,-0.43019 ,-4.22102 
421 ,76.1612 ,1.60547 ,-0.44046 ,-4.32176 
422 ,76.3372 ,1.60726 ,-0.46783 ,-4.59038 
423 ,76.5134 ,1.60903 ,-0.48152 ,-4.72470 
424 ,76.7053 ,1.61099 ,-0.47810 ,-4.69112 
425 ,76.8971 ,1.61281 ,-0.50890 ,-4.99332 
426 ,77.0736 ,1.61455 ,-0.50548 ,-4.95975 
427 ,77.2496 ,1.61642 ,-0.50206 ,-4.92617 
428 ,77.4257 ,1.61813 ,-0.52601 ,-5.16121 
429 ,77.6176 ,1.62004 ,-0.54654 ,-5.36268 
430 ,77.7775 ,1.62178 ,-0.55681 ,-5.46342 
431 ,77.9535 ,1.62345 ,-0.55681 ,-5.46342 
432 ,78.1296 ,1.62516 ,-0.57734 ,-5.66489 
433 ,78.3219 ,1.62706 ,-0.57392 ,-5.63131 
434 ,78.5140 ,1.62902 ,-0.60130 ,-5.89994 
435 ,78.7221 ,1.63108 ,-0.60130 ,-5.89994 
436 ,78.8984 ,1.63284 ,-0.61499 ,-6.03425 
437 ,79.1063 ,1.63490 ,-0.61841 ,-6.06783 
438 ,79.2825 ,1.63668 ,-0.62868 ,-6.16856 
439 ,79.4582 ,1.63844 ,-0.64921 ,-6.37003 
440 ,79.6343 ,1.64022 ,-0.65263 ,-6.40361 
441 ,79.8106 ,1.64195 ,-0.67659 ,-6.63866 
442 ,79.9863 ,1.64369 ,-0.66290 ,-6.50435 
443 ,80.1628 ,1.64548 ,-0.67316 ,-6.60508 
444 ,80.3388 ,1.64724 ,-0.69370 ,-6.80655 
445 ,80.5148 ,1.64901 ,-0.71423 ,-7.00802 
446 ,80.6911 ,1.65075 ,-0.72107 ,-7.07518 
447 ,80.8672 ,1.65256 ,-0.71765 ,-7.04160 
448 ,81.0752 ,1.65453 ,-0.74503 ,-7.31023 
449 ,81.2511 ,1.65641 ,-0.75530 ,-7.41096 
450 ,81.4273 ,1.65813 ,-0.74845 ,-7.34380 
451 ,81.5870 ,1.65982 ,-0.75872 ,-7.44454 
452 ,81.7635 ,1.66150 ,-0.76556 ,-7.51170 
453 ,81.9552 ,1.66345 ,-0.78610 ,-7.71317 
454 ,82.1316 ,1.66513 ,-0.79294 ,-7.78032 
455 ,82.3237 ,1.66707 ,-0.79294 ,-7.78032 
456 ,82.4998 ,1.66883 ,-0.81689 ,-8.01537 
457 ,82.6597 ,1.67056 ,-0.83401 ,-8.18326 
458 ,82.8359 ,1.67220 ,-0.84427 ,-8.28400 
459 ,83.0120 ,1.67396 ,-0.84769 ,-8.31758 
460 ,83.1881 ,1.67577 ,-0.84769 ,-8.31758 
461 ,83.3638 ,1.67756 ,-0.85796 ,-8.41831 
462 ,83.5402 ,1.67924 ,-0.87507 ,-8.58620 
463 ,83.7162 ,1.68107 ,-0.88534 ,-8.68694 
