Point No.,Normal Force [N],Gap [mm],Time [s]
1,6.982371,9.9060,883.0370
2,6.982900,9.9060,883.0421
3,6.982596,9.9060,883.0471
4,6.981730,9.9060,883.0521
5,6.981179,9.9060,883.0571
6,6.981333,9.9060,883.0620
7,6.980829,9.9060,883.0670
8,6.978916,9.9066,883.0720
9,6.974113,9.9066,883.0760
10,6.966542,9.9085,883.0811
11,6.944284,9.9085,883.0861
12,6.921146,9.9122,883.0911
13,6.877480,9.9122,883.0961
14,6.840698,9.9165,883.1010
15,6.779014,9.9165,883.1060
16,6.705331,9.9221,883.1121
17,6.653379,9.9221,883.1171
18,6.573014,9.9270,883.1221
19,6.521338,9.9270,883.1270
20,6.442362,9.9319,883.1320
21,6.393346,9.9319,883.1370
22,6.315623,9.9362,883.1420
23,6.269138,9.9362,883.1470
24,6.193566,9.9418,883.1520
25,6.148062,9.9418,883.1570
26,6.075867,9.9461,883.1620
27,6.032649,9.9461,883.1671
28,5.964616,9.9510,883.1721
29,5.921538,9.9510,883.1771
30,5.878261,9.9560,883.1810
31,5.817013,9.9559,883.1860
32,5.777531,9.9615,883.1910
33,5.720384,9.9615,883.1960
34,5.682029,9.9665,883.2010
35,5.623218,9.9664,883.2061
36,5.583288,9.9714,883.2111
37,5.525719,9.9714,883.2161
38,5.487557,9.9757,883.2211
39,5.432499,9.9757,883.2260
40,5.395913,9.9813,883.2310
41,5.339608,9.9813,883.2360
42,5.302497,9.9856,883.2410
43,5.247599,9.9856,883.2460
44,5.211500,9.9906,883.2510
45,5.159631,9.9905,883.2560
46,5.124877,9.9955,883.2610
47,5.074113,9.9955,883.2661
48,5.039475,10.0011,883.2711
49,4.987071,10.0011,883.2761
50,4.953510,10.0060,883.2811
51,4.902881,10.0060,883.2861
52,4.869797,10.0110,883.2910
53,4.820623,10.0110,883.2960
54,4.787945,10.0153,883.3010
55,4.739954,10.0153,883.3060
56,4.707867,10.0209,883.3110
57,4.659555,10.0209,883.3160
58,4.628904,10.0252,883.3210
59,4.582960,10.0252,883.3260
60,4.551868,10.0302,883.3311
61,4.505289,10.0302,883.3361
62,4.475315,10.0351,883.3411
63,4.430567,10.0351,883.3461
64,4.401202,10.0407,883.3510
65,4.356479,10.0407,883.3560
66,4.328213,10.0451,883.3610
67,4.285748,10.0450,883.3660
68,4.257802,10.0500,883.3710
69,4.215969,10.0500,883.3760
70,4.187839,10.0550,883.3810
71,4.145948,10.0549,883.3860
72,4.118004,10.0606,883.3911
73,4.076256,10.0605,883.3961
74,4.051803,10.0649,883.4011
75,4.016932,10.0649,883.4061
76,3.994108,10.0699,883.4111
77,3.961043,10.0698,883.4160
78,3.938509,10.0748,883.4210
79,3.902908,10.0748,883.4260
80,3.878555,10.0804,883.4310
81,3.841534,10.0804,883.4360
82,3.818340,10.0848,883.4410
83,3.783526,10.0847,883.4460
84,3.759953,10.0897,883.4510
85,3.723484,10.0897,883.4561
86,3.699954,10.0947,883.4611
87,3.664503,10.0947,883.4661
88,3.640739,10.1003,883.4711
89,3.604172,10.1002,883.4760
90,3.580996,10.1046,883.4810
91,3.546495,10.1046,883.4860
92,3.524264,10.1096,883.4910
93,3.492383,10.1096,883.4960
94,3.472359,10.1145,883.5010
95,3.441487,10.1145,883.5060
96,3.419921,10.1201,883.5110
97,3.385504,10.1201,883.5161
98,3.364284,10.1245,883.5211
99,3.331480,10.1245,883.5261
100,3.310938,10.1295,883.5311
101,3.280454,10.1294,883.5361
102,3.261889,10.1344,883.5410
103,3.230971,10.1344,883.5460
104,3.210091,10.1400,883.5510
105,3.178069,10.1400,883.5560
106,3.159271,10.1450,883.5610
107,3.130171,10.1450,883.5660
108,3.111728,10.1500,883.5710
109,3.082399,10.1499,883.5760
110,3.063648,10.1543,883.5811
111,3.034810,10.1543,883.5861
112,3.016684,10.1599,883.5911
113,2.987833,10.1599,883.5961
114,2.970292,10.1643,883.6010
115,2.941623,10.1642,883.6060
116,2.923605,10.1692,883.6110
117,2.896553,10.1692,883.6160
118,2.879841,10.1742,883.6210
119,2.852663,10.1742,883.6260
120,2.835385,10.1798,883.6310
121,2.807244,10.1798,883.6360
122,2.791017,10.1841,883.6411
123,2.763788,10.1841,883.6461
124,2.748623,10.1897,883.6511
125,2.725770,10.1897,883.6561
126,2.709310,10.1941,883.6611
127,2.682058,10.1941,883.6660
128,2.665981,10.1997,883.6710
129,2.640262,10.1997,883.6760
130,2.625261,10.2041,883.6810
131,2.600673,10.2040,883.6860
132,2.585513,10.2090,883.6910
133,2.560285,10.2090,883.6960
134,2.545649,10.2140,883.7010
135,2.522020,10.2140,883.7061
136,2.507514,10.2196,883.7111
137,2.482876,10.2196,883.7161
138,2.468759,10.2240,883.7211
139,2.443456,10.2239,883.7260
140,2.427908,10.2289,883.7310
141,2.403535,10.2289,883.7360
142,2.389413,10.2339,883.7410
143,2.366379,10.2339,883.7460
144,2.353047,10.2395,883.7510
145,2.329525,10.2395,883.7560
146,2.316657,10.2439,883.7610
147,2.295015,10.2439,883.7661
148,2.282278,10.2488,883.7711
149,2.261440,10.2488,883.7761
150,2.249717,10.2538,883.7811
151,2.230737,10.2538,883.7861
152,2.219262,10.2594,883.7910
153,2.201066,10.2594,883.7960
154,2.191321,10.2638,883.8010
155,2.172247,10.2638,883.8060
156,2.160594,10.2688,883.8110
157,2.140861,10.2688,883.8160
158,2.128960,10.2738,883.8210
159,2.107370,10.2737,883.8260
160,2.095076,10.2794,883.8311
161,2.073074,10.2793,883.8361
162,2.062011,10.2843,883.8411
163,2.039752,10.2843,883.8461
164,2.025728,10.2893,883.8510
165,2.002207,10.2893,883.8560
166,1.990232,10.2937,883.8610
167,1.970245,10.2937,883.8660
168,1.958200,10.2993,883.8710
169,1.936184,10.2993,883.8760
170,1.926126,10.3043,883.8810
171,1.905584,10.3042,883.8860
172,1.893463,10.3086,883.8911
173,1.871826,10.3086,883.8961
174,1.860365,10.3136,883.9011
175,1.839729,10.3136,883.9061
176,1.827678,10.3192,883.9111
177,1.806219,10.3192,883.9160
178,1.795403,10.3236,883.9210
179,1.773510,10.3235,883.9260
180,1.761253,10.3285,883.9310
181,1.740636,10.3285,883.9360
182,1.730297,10.3335,883.9410
183,1.710091,10.3335,883.9460
184,1.698901,10.3391,883.9510
185,1.677849,10.3391,883.9561
186,1.668904,10.3441,883.9611
187,1.649371,10.3441,883.9661
188,1.638261,10.3491,883.9711
189,1.617644,10.3491,883.9760
190,1.606766,10.3534,883.9810
191,1.586575,10.3534,883.9860
192,1.575768,10.3591,883.9910
193,1.556095,10.3590,883.9960
194,1.547758,10.3634,884.0010
195,1.529647,10.3634,884.0060
196,1.519112,10.3684,884.0110
197,1.497671,10.3684,884.0161
198,1.486257,10.3734,884.0211
199,1.464924,10.3734,884.0261
200,1.454309,10.3790,884.0311
201,1.434702,10.3790,884.0361
202,1.426173,10.3840,884.0410
203,1.407431,10.3840,884.0460
204,1.397307,10.3890,884.0510
205,1.377269,10.3889,884.0560
206,1.367281,10.3933,884.0610
207,1.347496,10.3933,884.0660
208,1.337784,10.3989,884.0710
209,1.318410,10.3989,884.0760
210,1.310634,10.4033,884.0811
211,1.294239,10.4033,884.0861
212,1.286046,10.4083,884.0911
213,1.268473,10.4082,884.0961
214,1.259916,10.4132,884.1010
215,1.241454,10.4132,884.1060
216,1.232177,10.4189,884.1110
217,1.213916,10.4188,884.1160
218,1.206785,10.4232,884.1210
219,1.189095,10.4232,884.1260
220,1.179650,10.4288,884.1310
221,1.159930,10.4288,884.1360
222,1.150802,10.4332,884.1411
223,1.133014,10.4332,884.1461
224,1.124765,10.4388,884.1511
225,1.107978,10.4388,884.1561
226,1.101305,10.4431,884.1611
227,1.083797,10.4431,884.1660
228,1.075132,10.4481,884.1710
229,1.056549,10.4481,884.1760
230,1.048024,10.4531,884.1810
231,1.029853,10.4531,884.1860
232,1.021538,10.4587,884.1910
233,1.003344,10.4587,884.1960
234,0.996680,10.4631,884.2010
235,0.979612,10.4631,884.2061
236,0.972055,10.4681,884.2111
237,0.955674,10.4681,884.2161
238,0.948562,10.4731,884.2211
239,0.929806,10.4730,884.2260
240,0.920903,10.4787,884.2310
241,0.902941,10.4787,884.2360
242,0.896717,10.4837,884.2410
243,0.879500,10.4836,884.2460
244,0.871920,10.4880,884.2510
245,0.855212,10.4880,884.2560
246,0.847744,10.4930,884.2610
247,0.831391,10.4930,884.2661
248,0.824026,10.4980,884.2711
249,0.807084,10.4980,884.2761
250,0.801945,10.5030,884.2811
251,0.786654,10.5030,884.2861
252,0.779603,10.5080,884.2910
253,0.761501,10.5079,884.2960
254,0.754529,10.5129,884.3010
255,0.738008,10.5129,884.3060
256,0.730012,10.5179,884.3110
257,0.712439,10.5179,884.3160
258,0.706500,10.5235,884.3210
259,0.690058,10.5235,884.3260
260,0.683156,10.5285,884.3311
261,0.666187,10.5285,884.3361
262,0.659177,10.5329,884.3411
263,0.642595,10.5329,884.3461
264,0.635904,10.5379,884.3510
265,0.620033,10.5379,884.3560
266,0.614375,10.5429,884.3610
267,0.598457,10.5429,884.3660
268,0.592294,10.5478,884.3710
269,0.575520,10.5478,884.3760
270,0.568263,10.5528,884.3810
271,0.548875,10.5528,884.3860
272,0.540860,10.5578,884.3911
273,0.521206,10.5578,884.3961
274,0.514978,10.5628,884.4011
275,0.497246,10.5628,884.4061
276,0.490367,10.5684,884.4111
277,0.473542,10.5684,884.4160
278,0.467080,10.5728,884.4210
279,0.452097,10.5728,884.4260
280,0.445677,10.5784,884.4310
281,0.430867,10.5784,884.4360
282,0.425939,10.5827,884.4410
283,0.412186,10.5827,884.4460
284,0.407127,10.5877,884.4510
285,0.393519,10.5877,884.4561
286,0.388230,10.5927,884.4611
287,0.373486,10.5927,884.4661
288,0.367851,10.5977,884.4711
289,0.352111,10.5977,884.4760
290,0.348347,10.6027,884.4810
291,0.336956,10.6027,884.4860
292,0.333262,10.6077,884.4910
293,0.321945,10.6077,884.4960
294,0.318471,10.6127,884.5010
295,0.305794,10.6127,884.5060
296,0.300912,10.6183,884.5110
297,0.286953,10.6183,884.5161
298,0.283760,10.6227,884.5211
299,0.270891,10.6227,884.5261
300,0.265962,10.6277,884.5311
301,0.251083,10.6276,884.5361
302,0.246514,10.6326,884.5410
303,0.233481,10.6326,884.5460
304,0.228735,10.6376,884.5510
305,0.215413,10.6376,884.5560
306,0.212107,10.6426,884.5610
307,0.199472,10.6426,884.5660
308,0.195478,10.6476,884.5710
309,0.181763,10.6476,884.5760
310,0.177699,10.6476,884.5811
311,0.165976,10.6526,884.5861
312,0.162347,10.6526,884.5911
313,0.148810,10.6582,884.5961
314,0.144321,10.6626,884.6010
315,0.130811,10.6626,884.6060
316,0.126860,10.6676,884.6110
317,0.113093,10.6676,884.6160
318,0.109432,10.6726,884.6210
319,0.096586,10.6726,884.6260
320,0.092219,10.6776,884.6310
321,0.078106,10.6775,884.6360
322,0.074487,10.6825,884.6411
323,0.061347,10.6825,884.6461
324,0.056932,10.6875,884.6511
325,0.044335,10.6875,884.6561
326,0.041174,10.6925,884.6611
327,0.029380,10.6925,884.6660
328,0.025359,10.6975,884.6710
329,0.012729,10.6975,884.6760
330,0.009928,10.6975,884.6810
331,-0.001945,10.7025,884.6860
332,-0.005289,10.7025,884.6910
333,-0.017905,10.7075,884.6960
334,-0.021515,10.7125,884.7010
335,-0.033827,10.7125,884.7061
336,-0.037999,10.7175,884.7111
337,-0.050680,10.7175,884.7161
338,-0.052845,10.7225,884.7211
339,-0.064288,10.7225,884.7260
340,-0.067323,10.7275,884.7310
341,-0.079579,10.7275,884.7360
342,-0.082516,10.7318,884.7410
343,-0.094665,10.7318,884.7460
344,-0.098405,10.7374,884.7510
345,-0.111153,10.7374,884.7560
346,-0.113416,10.7424,884.7610
347,-0.125424,10.7424,884.7661
348,-0.128768,10.7424,884.7711
349,-0.141417,10.7474,884.7761
350,-0.144190,10.7474,884.7811
351,-0.155445,10.7524,884.7861
352,-0.158859,10.7524,884.7910
353,-0.171948,10.7574,884.7960
354,-0.173739,10.7624,884.8010
355,-0.184344,10.7624,884.8060
356,-0.187070,10.7674,884.8110
357,-0.198915,10.7674,884.8160
358,-0.201660,10.7718,884.8210
359,-0.213813,10.7717,884.8260
360,-0.217381,10.7774,884.8311
361,-0.230531,10.7774,884.8361
362,-0.232471,10.7824,884.8411
363,-0.243577,10.7824,884.8461
364,-0.245887,10.7874,884.8510
365,-0.257559,10.7873,884.8560
366,-0.260089,10.7873,884.8610
367,-0.270830,10.7917,884.8660
368,-0.274043,10.7917,884.8710
369,-0.286537,10.7973,884.8760
370,-0.288777,10.7973,884.8810
371,-0.299004,10.8023,884.8860
372,-0.300875,10.8023,884.8911
373,-0.311863,10.8073,884.8961
374,-0.313954,10.8117,884.9011
375,-0.325336,10.8117,884.9061
376,-0.328254,10.8173,884.9111
377,-0.340426,10.8173,884.9160
378,-0.342324,10.8223,884.9210
379,-0.352972,10.8223,884.9260
380,-0.354763,10.8267,884.9310
381,-0.365887,10.8267,884.9360
382,-0.367711,10.8317,884.9410
383,-0.378976,10.8316,884.9460
384,-0.382614,10.8373,884.9510
385,-0.395146,10.8373,884.9561
386,-0.396722,10.8373,884.9611
387,-0.405364,10.8416,884.9661
388,-0.406949,10.8416,884.9711
389,-0.417868,10.8473,884.9760
390,-0.420000,10.8473,884.9810
391,-0.430367,10.8522,884.9860
392,-0.432682,10.8522,884.9910
393,-0.443886,10.8572,884.9960
394,-0.444868,10.8622,885.0010
395,-0.454262,10.8622,885.0060
396,-0.455983,10.8666,885.0110
397,-0.466603,10.8666,885.0161
398,-0.467992,10.8716,885.0211
399,-0.477582,10.8716,885.0261
400,-0.479443,10.8766,885.0311
401,-0.490143,10.8766,885.0361
402,-0.491429,10.8816,885.0410
403,-0.500828,10.8816,885.0460
404,-0.502376,10.8866,885.0510
405,-0.513510,10.8866,885.0560
406,-0.514725,10.8866,885.0610
407,-0.524274,10.8916,885.0660
408,-0.526374,10.8916,885.0710
409,-0.537531,10.8972,885.0760
410,-0.538462,10.8972,885.0811
411,-0.547388,10.9022,885.0861
412,-0.548688,10.9022,885.0911
413,-0.559364,10.9065,885.0961
414,-0.560692,10.9065,885.1010
415,-0.569843,10.9115,885.1060
416,-0.574903,10.9165,885.1121
417,-0.582520,10.9165,885.1171
418,-0.585312,10.9215,885.1221
419,-0.592158,10.9215,885.1270
420,-0.596549,10.9265,885.1320
421,-0.603965,10.9265,885.1370
422,-0.607402,10.9315,885.1420
423,-0.614506,10.9315,885.1470
424,-0.619200,10.9365,885.1520
425,-0.626607,10.9365,885.1570
426,-0.628852,10.9421,885.1620
427,-0.636030,10.9421,885.1671
428,-0.640295,10.9471,885.1721
429,-0.646991,10.9471,885.1771
430,-0.649250,10.9515,885.1821
431,-0.656049,10.9515,885.1870
432,-0.660407,10.9565,885.1920
433,-0.667968,10.9565,885.1970
434,-0.669689,10.9615,885.2020
435,-0.675829,10.9615,885.2070
436,-0.678204,10.9665,885.2120
437,-0.684653,10.9665,885.2170
438,-0.687014,10.9715,885.2220
439,-0.693369,10.9715,885.2271
440,-0.696156,10.9765,885.2321
441,-0.702768,10.9765,885.2371
442,-0.704157,10.9815,885.2421
443,-0.710765,10.9815,885.2471
444,-0.713070,10.9871,885.2520
445,-0.719607,10.9871,885.2570
446,-0.721019,10.9914,885.2620
447,-0.726776,10.9914,885.2670
448,-0.728688,10.9964,885.2720
449,-0.735399,10.9964,885.2770
450,-0.737456,11.0014,885.2820
451,-0.744232,11.0014,885.2870
452,-0.746318,11.0064,885.2921
453,-0.753234,11.0064,885.2971
454,-0.756109,11.0114,885.3021
455,-0.763395,11.0114,885.3071
456,-0.767407,11.0164,885.3120
457,-0.775160,11.0164,885.3170
458,-0.778457,11.0214,885.3220
459,-0.785424,11.0214,885.3270
460,-0.787024,11.0264,885.3320
461,-0.793084,11.0264,885.3370
462,-0.794047,11.0314,885.3420
463,-0.799902,11.0314,885.3470
464,-0.803035,11.0370,885.3521
465,-0.810087,11.0370,885.3571
466,-0.811302,11.0414,885.3621
467,-0.817395,11.0414,885.3671
468,-0.820407,11.0464,885.3721
469,-0.828426,11.0464,885.3770
470,-0.830998,11.0514,885.3820
471,-0.837615,11.0514,885.3870
472,-0.839804,11.0564,885.3920
473,-0.846420,11.0564,885.3970
474,-0.847257,11.0614,885.4020
475,-0.852850,11.0614,885.4070
476,-0.855268,11.0664,885.4120
477,-0.862212,11.0664,885.4171
478,-0.864269,11.0714,885.4221
479,-0.870494,11.0714,885.4271
480,-0.871480,11.0764,885.4321
481,-0.876909,11.0764,885.4370
482,-0.876554,11.0820,885.4420
483,-0.882679,11.0820,885.4470
484,-0.884204,11.0864,885.4520
485,-0.890727,11.0863,885.4570
486,-0.891709,11.0913,885.4620
487,-0.897695,11.0913,885.4670
488,-0.899458,11.0963,885.4720
489,-0.906374,11.0963,885.4771
490,-0.907038,11.1013,885.4821
491,-0.913439,11.1013,885.4871
492,-0.915282,11.1063,885.4921
493,-0.921707,11.1063,885.4971
494,-0.921987,11.1113,885.5020
495,-0.927805,11.1113,885.5070
496,-0.929745,11.1163,885.5120
497,-0.936446,11.1163,885.5170
498,-0.937980,11.1213,885.5220
499,-0.944714,11.1213,885.5270
500,-0.946355,11.1269,885.5320
501,-0.952621,11.1269,885.5370
502,-0.953486,11.1313,885.5421
503,-0.959701,11.1313,885.5471
504,-0.961735,11.1363,885.5521
505,-0.968305,11.1363,885.5571
506,-0.968333,11.1413,885.5620
507,-0.974590,11.1413,885.5670
508,-0.976512,11.1463,885.5720
509,-0.983732,11.1463,885.5770
510,-0.984990,11.1513,885.5820
511,-0.991232,11.1513,885.5870
512,-0.992556,11.1563,885.5920
513,-0.999004,11.1563,885.5970
514,-0.998162,11.1613,885.6021
515,-1.002890,11.1613,885.6071
516,-1.002834,11.1663,885.6121
517,-1.008899,11.1663,885.6171
518,-1.009324,11.1713,885.6221
519,-1.015165,11.1713,885.6270
520,-1.016058,11.1769,885.6320
521,-1.021468,11.1769,885.6370
522,-1.020459,11.1813,885.6420
523,-1.025827,11.1813,885.6470
524,-1.026631,11.1863,885.6520
525,-1.031532,11.1863,885.6570
526,-1.029661,11.1913,885.6620
527,-1.033566,11.1913,885.6671
528,-1.032074,11.1963,885.6721
529,-1.036643,11.1963,885.6771
530,-1.036352,11.2013,885.6821
531,-1.041899,11.2013,885.6870
532,-1.042722,11.2063,885.6920
533,-1.048497,11.2063,885.6970
534,-1.047660,11.2113,885.7020
535,-1.052532,11.2113,885.7070
536,-1.052444,11.2163,885.7120
537,-1.058237,11.2163,885.7170
538,-1.057788,11.2219,885.7220
539,-1.062829,11.2219,885.7271
540,-1.062633,11.2262,885.7321
541,-1.068670,11.2262,885.7371
542,-1.068352,11.2312,885.7421
543,-1.072560,11.2312,885.7471
544,-1.069722,11.2362,885.7520
545,-1.073140,11.2362,885.7570
546,-1.070217,11.2412,885.7620
547,-1.074043,11.2412,885.7670
548,-1.072976,11.2462,885.7720
549,-1.078742,11.2462,885.7770
550,-1.079841,11.2512,885.7820
551,-1.085294,11.2512,885.7870
552,-1.086584,11.2562,885.7921
553,-1.092163,11.2562,885.7971
554,-1.090082,11.2612,885.8021
555,-1.092799,11.2612,885.8071
556,-1.088141,11.2662,885.8120
557,-1.090807,11.2662,885.8170
558,-1.087884,11.2712,885.8220
559,-1.091793,11.2712,885.8270
560,-1.091723,11.2762,885.8320
561,-1.097040,11.2762,885.8370
562,-1.096161,11.2812,885.8420
563,-1.100776,11.2812,885.8470
564,-1.100870,11.2862,885.8521
565,-1.106650,11.2862,885.8571
566,-1.106032,11.2912,885.8621
567,-1.110115,11.2912,885.8671
568,-1.109572,11.2962,885.8721
569,-1.112771,11.2962,885.8770
570,-1.105948,11.3012,885.8820
571,-1.106916,11.3012,885.8870
572,-1.103783,11.3062,885.8920
573,-1.108263,11.3062,885.8970
574,-1.107038,11.3112,885.9020
575,-1.111770,11.3112,885.9070
576,-1.112762,11.3168,885.9120
577,-1.118859,11.3168,885.9171
578,-1.118569,11.3212,885.9221
579,-1.122053,11.3212,885.9271
580,-1.120519,11.3262,885.9321
581,-1.125845,11.3262,885.9370
582,-1.127211,11.3312,885.9420
583,-1.132696,11.3312,885.9470
584,-1.133276,11.3362,885.9520
585,-1.137695,11.3362,885.9570
586,-1.135502,11.3412,885.9620
587,-1.137713,11.3412,885.9670
588,-1.134412,11.3462,885.9720
589,-1.138480,11.3462,885.9771
590,-1.138583,11.3512,885.9821
591,-1.143068,11.3512,885.9871
592,-1.142516,11.3562,885.9921
593,-1.145715,11.3562,885.9971
594,-1.138990,11.3618,886.0020
595,-1.138317,11.3618,886.0070
596,-1.132345,11.3662,886.0120
597,-1.134683,11.3662,886.0170
598,-1.132083,11.3712,886.0220
599,-1.135043,11.3712,886.0270
600,-1.132794,11.3762,886.0320
601,-1.135974,11.3762,886.0370
602,-1.131382,11.3812,886.0421
603,-1.132878,11.3812,886.0471
604,-1.130292,11.3862,886.0521
605,-1.134342,11.3862,886.0571
606,-1.130938,11.3912,886.0620
607,-1.131901,11.3912,886.0670
608,-1.127239,11.3962,886.0720
609,-1.129343,11.3962,886.0770
610,-1.124891,11.4012,886.0820
611,-1.126332,11.4012,886.0870
612,-1.123091,11.4062,886.0920
613,-1.126767,11.4062,886.0970
614,-1.124298,11.4112,886.1021
615,-1.125995,11.4112,886.1071
616,-1.119350,11.4162,886.1121
617,-1.120117,11.4162,886.1171
618,-1.114978,11.4212,886.1221
619,-1.116788,11.4212,886.1270
620,-1.114613,11.4262,886.1320
621,-1.118345,11.4262,886.1370
622,-1.116591,11.4312,886.1420
623,-1.120561,11.4312,886.1470
624,-1.120458,11.4362,886.1520
625,-1.124746,11.4362,886.1570
626,-1.123138,11.4412,886.1620
627,-1.125887,11.4412,886.1671
628,-1.123975,11.4462,886.1721
629,-1.127837,11.4462,886.1771
630,-1.123446,11.4512,886.1821
631,-1.122792,11.4512,886.1870
632,-1.115539,11.4562,886.1920
633,-1.116479,11.4562,886.1970
634,-1.112084,11.4612,886.2020
635,-1.113393,11.4612,886.2070
636,-1.108487,11.4662,886.2120
637,-1.110863,11.4662,886.2170
638,-1.107426,11.4712,886.2220
639,-1.109469,11.4712,886.2271
640,-1.106406,11.4762,886.2321
641,-1.109647,11.4762,886.2371
642,-1.105682,11.4812,886.2421
643,-1.104700,11.4812,886.2471
644,-1.096053,11.4862,886.2520
645,-1.096661,11.4862,886.2570
646,-1.092602,11.4912,886.2620
647,-1.095600,11.4912,886.2670
648,-1.094398,11.4962,886.2720
649,-1.098284,11.4962,886.2770
650,-1.096614,11.5012,886.2820
651,-1.099598,11.5012,886.2870
652,-1.097910,11.5062,886.2921
653,-1.101716,11.5062,886.2971
654,-1.099991,11.5112,886.3021
655,-1.103821,11.5112,886.3071
656,-1.102960,11.5162,886.3120
657,-1.105326,11.5162,886.3170
658,-1.096745,11.5212,886.3220
659,-1.094206,11.5212,886.3270
