Data stamp = , 26-04-2022 21:41:25 656

Calibration Values: 
Slope = , 26.54 , g/V 
Offset Voltage at no contact = , -0.501760 , V 

No , Time , Stage Position ,   Mass , Force 
   ,  (s) ,      (mm)      ,   (g)  , (mN)  

1 ,0.0000 ,0.74942 ,5.30194 ,52.02263 
2 ,0.2970 ,0.74964 ,5.30194 ,52.02263 
3 ,0.6814 ,0.75099 ,5.31221 ,52.12337 
4 ,0.8895 ,0.75310 ,5.30194 ,52.02263 
5 ,1.0815 ,0.75493 ,5.30194 ,52.02263 
6 ,1.2578 ,0.75675 ,5.28141 ,51.82116 
7 ,1.4498 ,0.75853 ,5.31563 ,52.15694 
8 ,1.6259 ,0.76039 ,5.33616 ,52.35841 
9 ,1.8181 ,0.76233 ,5.32589 ,52.25768 
10 ,1.9941 ,0.76420 ,5.32247 ,52.22410 
11 ,2.2022 ,0.76609 ,5.29852 ,51.98905 
12 ,2.3942 ,0.76804 ,5.26772 ,51.68685 
13 ,2.6024 ,0.77006 ,5.25745 ,51.58611 
14 ,2.8261 ,0.77232 ,5.23007 ,51.31749 
15 ,3.0025 ,0.77420 ,5.19243 ,50.94813 
16 ,3.1947 ,0.77613 ,5.17874 ,50.81381 
17 ,3.3865 ,0.77796 ,5.16848 ,50.71308 
18 ,3.5623 ,0.77982 ,5.13768 ,50.41087 
19 ,3.7546 ,0.78167 ,5.13083 ,50.34372 
20 ,3.9308 ,0.78354 ,5.11372 ,50.17583 
21 ,4.1070 ,0.78523 ,5.10688 ,50.10867 
22 ,4.3150 ,0.78728 ,5.07265 ,49.77289 
23 ,4.5232 ,0.78934 ,5.04185 ,49.47068 
24 ,4.7153 ,0.79128 ,5.02817 ,49.33637 
25 ,4.9233 ,0.79342 ,4.99737 ,49.03416 
26 ,5.1154 ,0.79529 ,4.99052 ,48.96701 
27 ,5.3075 ,0.79714 ,4.98368 ,48.89985 
28 ,5.4996 ,0.79912 ,4.93919 ,48.46333 
29 ,5.6912 ,0.80104 ,4.94946 ,48.56407 
30 ,5.8835 ,0.80295 ,4.90839 ,48.16113 
31 ,6.0757 ,0.80495 ,4.89812 ,48.06039 
32 ,6.2840 ,0.80696 ,4.87075 ,47.79177 
33 ,6.4756 ,0.80894 ,4.84679 ,47.55672 
34 ,6.6520 ,0.81068 ,4.85364 ,47.62387 
35 ,6.8442 ,0.81251 ,4.80230 ,47.12020 
36 ,7.0202 ,0.81439 ,4.79204 ,47.01946 
37 ,7.2122 ,0.81628 ,4.79546 ,47.05304 
38 ,7.4204 ,0.81832 ,4.76124 ,46.71726 
39 ,7.6284 ,0.82041 ,4.75097 ,46.61653 
40 ,7.8364 ,0.82246 ,4.72359 ,46.34790 
41 ,8.0285 ,0.82442 ,4.71333 ,46.24716 
42 ,8.2366 ,0.82648 ,4.68595 ,45.97854 
43 ,8.4285 ,0.82840 ,4.67226 ,45.84422 
44 ,8.6368 ,0.83053 ,4.64146 ,45.54202 
45 ,8.8448 ,0.83253 ,4.61408 ,45.27339 
46 ,9.0210 ,0.83435 ,4.60040 ,45.13908 
47 ,9.1967 ,0.83611 ,4.59355 ,45.07192 
48 ,9.3888 ,0.83799 ,4.57644 ,44.90403 
49 ,9.5649 ,0.83981 ,4.55591 ,44.70256 
50 ,9.7732 ,0.84183 ,4.55249 ,44.66898 
51 ,9.9651 ,0.84376 ,4.51142 ,44.26604 
52 ,10.1733 ,0.84589 ,4.50800 ,44.23247 
53 ,10.3813 ,0.84792 ,4.48062 ,43.96384 
54 ,10.5736 ,0.84981 ,4.46693 ,43.82953 
55 ,10.7495 ,0.85166 ,4.46009 ,43.76237 
56 ,10.9577 ,0.85359 ,4.41902 ,43.35943 
57 ,11.1495 ,0.85564 ,4.41902 ,43.35943 
58 ,11.3422 ,0.85751 ,4.37111 ,42.88933 
59 ,11.5340 ,0.85951 ,4.36427 ,42.82218 
60 ,11.7101 ,0.86127 ,4.36769 ,42.85576 
61 ,11.8860 ,0.86305 ,4.34716 ,42.65429 
62 ,12.0782 ,0.86486 ,4.31978 ,42.38566 
63 ,12.2542 ,0.86674 ,4.30267 ,42.21777 
64 ,12.4305 ,0.86843 ,4.30609 ,42.25135 
65 ,12.6226 ,0.87034 ,4.26160 ,41.81483 
66 ,12.8307 ,0.87236 ,4.25133 ,41.71409 
67 ,13.0387 ,0.87445 ,4.23765 ,41.57978 
68 ,13.2308 ,0.87638 ,4.21369 ,41.34473 
69 ,13.4228 ,0.87831 ,4.20342 ,41.24400 
70 ,13.6310 ,0.88041 ,4.17947 ,41.00895 
71 ,13.8228 ,0.88232 ,4.15209 ,40.74032 
72 ,14.0312 ,0.88439 ,4.14183 ,40.63959 
73 ,14.2230 ,0.88630 ,4.11787 ,40.40454 
74 ,14.4149 ,0.88834 ,4.10418 ,40.27023 
75 ,14.5911 ,0.89004 ,4.09391 ,40.16949 
76 ,14.7834 ,0.89198 ,4.05627 ,39.80013 
77 ,14.9754 ,0.89388 ,4.05285 ,39.76655 
78 ,15.1834 ,0.89592 ,4.02547 ,39.49793 
79 ,15.3756 ,0.89790 ,4.01178 ,39.36361 
80 ,15.5838 ,0.89994 ,3.99125 ,39.16214 
81 ,15.7920 ,0.90202 ,3.97072 ,38.96067 
82 ,15.9839 ,0.90392 ,3.95703 ,38.82636 
83 ,16.1598 ,0.90573 ,3.93992 ,38.65847 
84 ,16.3521 ,0.90758 ,3.91938 ,38.45700 
85 ,16.5440 ,0.90953 ,3.89885 ,38.25553 
86 ,16.7362 ,0.91147 ,3.88516 ,38.12122 
87 ,16.9447 ,0.91354 ,3.87490 ,38.02048 
88 ,17.1363 ,0.91543 ,3.85436 ,37.81901 
89 ,17.3123 ,0.91725 ,3.83725 ,37.65112 
90 ,17.5206 ,0.91919 ,3.79619 ,37.24818 
91 ,17.7286 ,0.92138 ,3.80303 ,37.31534 
92 ,17.9366 ,0.92345 ,3.76196 ,36.91240 
93 ,18.1288 ,0.92537 ,3.75854 ,36.87882 
94 ,18.3209 ,0.92730 ,3.73117 ,36.61019 
95 ,18.5290 ,0.92928 ,3.72432 ,36.54303 
96 ,18.7206 ,0.93128 ,3.69010 ,36.20725 
97 ,18.9131 ,0.93321 ,3.69694 ,36.27441 
98 ,19.1209 ,0.93531 ,3.65588 ,35.87147 
99 ,19.3293 ,0.93738 ,3.65246 ,35.83789 
100 ,19.5373 ,0.93942 ,3.62508 ,35.56926 
101 ,19.7294 ,0.94136 ,3.61481 ,35.46853 
102 ,19.9055 ,0.94320 ,3.57717 ,35.09917 
103 ,20.0975 ,0.94505 ,3.57032 ,35.03201 
104 ,20.2738 ,0.94686 ,3.57032 ,35.03201 
105 ,20.4660 ,0.94875 ,3.54637 ,34.79696 
106 ,20.6738 ,0.95084 ,3.53952 ,34.72981 
107 ,20.8657 ,0.95269 ,3.48819 ,34.22613 
108 ,21.0580 ,0.95467 ,3.48819 ,34.22613 
109 ,21.2662 ,0.95671 ,3.46424 ,33.99108 
110 ,21.4423 ,0.95855 ,3.43344 ,33.68888 
111 ,21.6503 ,0.96060 ,3.44713 ,33.82319 
112 ,21.8426 ,0.96251 ,3.40264 ,33.38667 
113 ,22.0341 ,0.96444 ,3.40606 ,33.42025 
114 ,22.2427 ,0.96637 ,3.37184 ,33.08447 
115 ,22.4347 ,0.96841 ,3.37184 ,33.08447 
116 ,22.6106 ,0.97030 ,3.33419 ,32.71511 
117 ,22.7866 ,0.97197 ,3.33762 ,32.74869 
118 ,22.9788 ,0.97391 ,3.31024 ,32.48006 
119 ,23.1549 ,0.97567 ,3.29997 ,32.37933 
120 ,23.3791 ,0.97785 ,3.27259 ,32.11070 
121 ,23.5707 ,0.97975 ,3.26233 ,32.00996 
122 ,23.7632 ,0.98166 ,3.24522 ,31.84207 
123 ,23.9553 ,0.98359 ,3.22468 ,31.64060 
124 ,24.1628 ,0.98569 ,3.19046 ,31.30482 
125 ,24.3555 ,0.98758 ,3.19388 ,31.33840 
126 ,24.5476 ,0.98949 ,3.15966 ,31.00262 
127 ,24.7396 ,0.99146 ,3.15624 ,30.96904 
128 ,24.9315 ,0.99340 ,3.14255 ,30.83472 
129 ,25.1398 ,0.99535 ,3.11518 ,30.56610 
130 ,25.3478 ,0.99754 ,3.09806 ,30.39821 
131 ,25.5559 ,0.99958 ,3.09464 ,30.36463 
132 ,25.7477 ,1.00152 ,3.05358 ,29.96169 
133 ,25.9558 ,1.00359 ,3.05358 ,29.96169 
134 ,26.1321 ,1.00545 ,3.04673 ,29.89453 
135 ,26.2918 ,1.00713 ,3.03304 ,29.76022 
136 ,26.4843 ,1.00891 ,2.99882 ,29.42444 
137 ,26.6763 ,1.01093 ,2.98855 ,29.32370 
138 ,26.8524 ,1.01262 ,2.98171 ,29.25654 
139 ,27.0287 ,1.01439 ,2.95776 ,29.02150 
140 ,27.2367 ,1.01640 ,2.93038 ,28.75287 
141 ,27.4447 ,1.01847 ,2.90300 ,28.48424 
142 ,27.6367 ,1.02035 ,2.91327 ,28.58498 
143 ,27.8289 ,1.02230 ,2.87905 ,28.24919 
144 ,28.0212 ,1.02427 ,2.85167 ,27.98057 
145 ,28.2290 ,1.02631 ,2.83456 ,27.81268 
146 ,28.4048 ,1.02819 ,2.82429 ,27.71194 
147 ,28.5971 ,1.03007 ,2.82429 ,27.71194 
148 ,28.8051 ,1.03208 ,2.78322 ,27.30900 
149 ,28.9972 ,1.03399 ,2.78322 ,27.30900 
150 ,29.1893 ,1.03591 ,2.77296 ,27.20827 
151 ,29.3652 ,1.03774 ,2.74216 ,26.90606 
152 ,29.5731 ,1.03975 ,2.73874 ,26.87248 
153 ,29.7495 ,1.04157 ,2.72505 ,26.73817 
154 ,29.9418 ,1.04345 ,2.68740 ,26.36881 
155 ,30.1497 ,1.04555 ,2.69083 ,26.40239 
156 ,30.3420 ,1.04744 ,2.65318 ,26.03303 
157 ,30.5498 ,1.04947 ,2.63949 ,25.89871 
158 ,30.7421 ,1.05147 ,2.62581 ,25.76440 
159 ,30.9181 ,1.05327 ,2.60869 ,25.59651 
160 ,31.1260 ,1.05530 ,2.58816 ,25.39504 
161 ,31.3182 ,1.05722 ,2.57447 ,25.26073 
162 ,31.4943 ,1.05909 ,2.57105 ,25.22715 
163 ,31.6860 ,1.06091 ,2.54710 ,24.99210 
164 ,31.8619 ,1.06278 ,2.52998 ,24.82421 
165 ,32.0385 ,1.06448 ,2.51630 ,24.68989 
166 ,32.2143 ,1.06622 ,2.51287 ,24.65632 
167 ,32.4224 ,1.06818 ,2.49918 ,24.52200 
168 ,32.5987 ,1.07006 ,2.46839 ,24.21980 
169 ,32.7744 ,1.07187 ,2.47181 ,24.25338 
170 ,32.9990 ,1.07397 ,2.44101 ,23.95117 
171 ,33.1907 ,1.07591 ,2.43416 ,23.88402 
172 ,33.3672 ,1.07773 ,2.39994 ,23.54823 
173 ,33.5753 ,1.07976 ,2.41021 ,23.64897 
174 ,33.7833 ,1.08187 ,2.36572 ,23.21245 
175 ,33.9754 ,1.08377 ,2.36572 ,23.21245 
176 ,34.1672 ,1.08576 ,2.35203 ,23.07814 
177 ,34.3591 ,1.08763 ,2.31781 ,22.74235 
178 ,34.5352 ,1.08948 ,2.32123 ,22.77593 
179 ,34.7113 ,1.09124 ,2.28359 ,22.40657 
180 ,34.8877 ,1.09298 ,2.30070 ,22.57446 
181 ,35.0958 ,1.09497 ,2.26648 ,22.23868 
182 ,35.3033 ,1.09704 ,2.25621 ,22.13794 
183 ,35.4954 ,1.09894 ,2.23226 ,21.90290 
184 ,35.6714 ,1.10083 ,2.22199 ,21.80216 
185 ,35.8799 ,1.10271 ,2.20146 ,21.60069 
186 ,36.1042 ,1.10502 ,2.17408 ,21.33206 
187 ,36.2962 ,1.10698 ,2.17066 ,21.29849 
188 ,36.4723 ,1.10881 ,2.17066 ,21.29849 
189 ,36.6644 ,1.11076 ,2.14328 ,21.02986 
190 ,36.8404 ,1.11247 ,2.10906 ,20.69408 
191 ,37.0325 ,1.11435 ,2.10906 ,20.69408 
192 ,37.2085 ,1.11621 ,2.08510 ,20.45903 
193 ,37.4164 ,1.11812 ,2.07826 ,20.39187 
194 ,37.6087 ,1.12004 ,2.06457 ,20.25756 
195 ,37.8168 ,1.12216 ,2.04746 ,20.08967 
196 ,38.0250 ,1.12421 ,2.02693 ,19.88820 
197 ,38.2170 ,1.12618 ,2.01324 ,19.75388 
198 ,38.4090 ,1.12819 ,1.99270 ,19.55241 
199 ,38.6009 ,1.13010 ,1.96875 ,19.31737 
200 ,38.7933 ,1.13188 ,1.97902 ,19.41810 
201 ,39.0174 ,1.13414 ,1.96533 ,19.28379 
202 ,39.2091 ,1.13606 ,1.95164 ,19.14948 
203 ,39.4015 ,1.13805 ,1.91057 ,18.74654 
204 ,39.6095 ,1.14004 ,1.92084 ,18.84727 
205 ,39.8017 ,1.14204 ,1.87977 ,18.44433 
206 ,39.9938 ,1.14390 ,1.87977 ,18.44433 
207 ,40.1856 ,1.14584 ,1.85924 ,18.24286 
208 ,40.3776 ,1.14781 ,1.85240 ,18.17570 
209 ,40.5700 ,1.14966 ,1.83871 ,18.04139 
210 ,40.7617 ,1.15160 ,1.80449 ,17.70561 
211 ,40.9542 ,1.15352 ,1.80791 ,17.73919 
212 ,41.1464 ,1.15539 ,1.79080 ,17.57129 
213 ,41.3384 ,1.15739 ,1.77711 ,17.43698 
214 ,41.5305 ,1.15927 ,1.77026 ,17.36983 
215 ,41.7386 ,1.16135 ,1.74631 ,17.13478 
216 ,41.9305 ,1.16329 ,1.73262 ,17.00046 
217 ,42.1388 ,1.16542 ,1.70182 ,16.69826 
218 ,42.3308 ,1.16731 ,1.71209 ,16.79899 
219 ,42.5224 ,1.16934 ,1.67102 ,16.39605 
220 ,42.7150 ,1.17110 ,1.67786 ,16.46321 
221 ,42.9066 ,1.17304 ,1.66760 ,16.36248 
222 ,43.0991 ,1.17492 ,1.64364 ,16.12743 
223 ,43.2911 ,1.17686 ,1.65391 ,16.22816 
224 ,43.4832 ,1.17880 ,1.60600 ,15.75807 
225 ,43.6751 ,1.18072 ,1.61627 ,15.85880 
226 ,43.8674 ,1.18266 ,1.59573 ,15.65733 
227 ,44.0436 ,1.18448 ,1.57862 ,15.48944 
228 ,44.2516 ,1.18639 ,1.56493 ,15.35513 
229 ,44.4438 ,1.18842 ,1.54782 ,15.18724 
230 ,44.6354 ,1.19034 ,1.54782 ,15.18724 
231 ,44.8274 ,1.19224 ,1.54782 ,15.18724 
232 ,45.0357 ,1.19432 ,1.51702 ,14.88503 
233 ,45.2280 ,1.19623 ,1.51018 ,14.81787 
234 ,45.4201 ,1.19824 ,1.48280 ,14.54925 
235 ,45.6120 ,1.20009 ,1.48622 ,14.58283 
236 ,45.8042 ,1.20210 ,1.44174 ,14.14631 
237 ,45.9803 ,1.20385 ,1.44858 ,14.21346 
238 ,46.1723 ,1.20569 ,1.42805 ,14.01199 
239 ,46.3645 ,1.20760 ,1.42120 ,13.94484 
240 ,46.5564 ,1.20951 ,1.39040 ,13.64263 
241 ,46.7326 ,1.21135 ,1.40067 ,13.74337 
242 ,46.9406 ,1.21337 ,1.37329 ,13.47474 
243 ,47.1326 ,1.21538 ,1.38014 ,13.54190 
244 ,47.3249 ,1.21718 ,1.35276 ,13.27327 
245 ,47.5167 ,1.21911 ,1.33565 ,13.10538 
246 ,47.7089 ,1.22101 ,1.33565 ,13.10538 
247 ,47.8846 ,1.22290 ,1.30827 ,12.83675 
248 ,48.0771 ,1.22473 ,1.29116 ,12.66886 
249 ,48.2851 ,1.22681 ,1.29800 ,12.73602 
250 ,48.4773 ,1.22878 ,1.26378 ,12.40024 
251 ,48.6694 ,1.23066 ,1.28089 ,12.56813 
252 ,48.8615 ,1.23260 ,1.24667 ,12.23235 
253 ,49.0535 ,1.23448 ,1.23641 ,12.13161 
254 ,49.2295 ,1.23626 ,1.23641 ,12.13161 
255 ,49.4055 ,1.23803 ,1.22272 ,11.99730 
256 ,49.5978 ,1.23988 ,1.20561 ,11.82941 
257 ,49.7899 ,1.24181 ,1.19876 ,11.76225 
258 ,49.9819 ,1.24381 ,1.17823 ,11.56078 
259 ,50.1740 ,1.24566 ,1.15770 ,11.35931 
260 ,50.3658 ,1.24758 ,1.16112 ,11.39289 
261 ,50.5422 ,1.24949 ,1.13374 ,11.12426 
262 ,50.7500 ,1.25140 ,1.12347 ,11.02353 
263 ,50.9425 ,1.25340 ,1.11663 ,10.95637 
264 ,51.1500 ,1.25547 ,1.10636 ,10.85563 
265 ,51.3425 ,1.25732 ,1.09610 ,10.75490 
266 ,51.5185 ,1.25921 ,1.06530 ,10.45270 
267 ,51.6947 ,1.26096 ,1.05503 ,10.35196 
268 ,51.8865 ,1.26277 ,1.05503 ,10.35196 
269 ,52.0628 ,1.26465 ,1.03450 ,10.15049 
270 ,52.2545 ,1.26647 ,1.01739 ,9.98260 
271 ,52.4469 ,1.26837 ,1.01739 ,9.98260 
272 ,52.6231 ,1.27022 ,1.01739 ,9.98260 
273 ,52.8148 ,1.27211 ,0.98659 ,9.68039 
274 ,53.0233 ,1.27417 ,0.97632 ,9.57966 
275 ,53.2150 ,1.27608 ,0.95921 ,9.41177 
276 ,53.3912 ,1.27796 ,0.96263 ,9.44535 
277 ,53.5671 ,1.27972 ,0.93868 ,9.21030 
278 ,53.7437 ,1.28144 ,0.93525 ,9.17672 
279 ,53.9351 ,1.28333 ,0.90788 ,8.90809 
280 ,54.1115 ,1.28510 ,0.88392 ,8.67305 
281 ,54.2877 ,1.28686 ,0.89077 ,8.74020 
282 ,54.4637 ,1.28873 ,0.87708 ,8.60589 
283 ,54.6559 ,1.29046 ,0.86681 ,8.50515 
284 ,54.8479 ,1.29239 ,0.87023 ,8.53873 
285 ,55.0240 ,1.29419 ,0.84970 ,8.33726 
286 ,55.2321 ,1.29623 ,0.82575 ,8.10221 
287 ,55.4398 ,1.29836 ,0.80521 ,7.90074 
288 ,55.6323 ,1.30023 ,0.79495 ,7.80001 
289 ,55.8404 ,1.30233 ,0.78468 ,7.69927 
290 ,56.0325 ,1.30425 ,0.76072 ,7.46423 
291 ,56.2248 ,1.30617 ,0.76757 ,7.53138 
292 ,56.4164 ,1.30808 ,0.74019 ,7.26276 
293 ,56.6084 ,1.30998 ,0.74361 ,7.29633 
294 ,56.8325 ,1.31224 ,0.71624 ,7.02771 
295 ,57.0247 ,1.31423 ,0.72308 ,7.09486 
296 ,57.2329 ,1.31620 ,0.70255 ,6.89340 
297 ,57.4248 ,1.31813 ,0.70597 ,6.92697 
298 ,57.6006 ,1.31998 ,0.68201 ,6.69193 
299 ,57.7930 ,1.32184 ,0.65464 ,6.42330 
300 ,57.9852 ,1.32377 ,0.65464 ,6.42330 
301 ,58.1932 ,1.32585 ,0.61699 ,6.05394 
302 ,58.4013 ,1.32785 ,0.62726 ,6.15467 
303 ,58.5773 ,1.32977 ,0.59988 ,5.88605 
304 ,58.7535 ,1.33154 ,0.59304 ,5.81889 
305 ,58.9458 ,1.33336 ,0.58962 ,5.78531 
306 ,59.1377 ,1.33530 ,0.56908 ,5.58384 
307 ,59.3297 ,1.33723 ,0.56566 ,5.55026 
308 ,59.5218 ,1.33913 ,0.56224 ,5.51668 
309 ,59.7137 ,1.34104 ,0.53144 ,5.21448 
310 ,59.9379 ,1.34311 ,0.53828 ,5.28164 
311 ,60.1459 ,1.34537 ,0.52802 ,5.18090 
312 ,60.3541 ,1.34745 ,0.49380 ,4.84512 
313 ,60.5300 ,1.34927 ,0.49037 ,4.81154 
314 ,60.7224 ,1.35113 ,0.49037 ,4.81154 
315 ,60.9143 ,1.35303 ,0.45957 ,4.50934 
316 ,61.1066 ,1.35496 ,0.45957 ,4.50934 
317 ,61.2984 ,1.35687 ,0.44588 ,4.37502 
318 ,61.4907 ,1.35888 ,0.43220 ,4.24071 
319 ,61.6825 ,1.36075 ,0.43562 ,4.27429 
320 ,61.8904 ,1.36276 ,0.40140 ,3.93850 
321 ,62.0827 ,1.36471 ,0.40140 ,3.93850 
322 ,62.2910 ,1.36678 ,0.38429 ,3.77061 
323 ,62.4832 ,1.36873 ,0.37744 ,3.70346 
324 ,62.6751 ,1.37060 ,0.35691 ,3.50199 
325 ,62.8507 ,1.37249 ,0.33295 ,3.26694 
326 ,63.0272 ,1.37421 ,0.34322 ,3.36767 
327 ,63.2034 ,1.37599 ,0.32953 ,3.23336 
328 ,63.3955 ,1.37786 ,0.32269 ,3.16620 
329 ,63.5874 ,1.37972 ,0.30558 ,2.99831 
330 ,63.7796 ,1.38170 ,0.29531 ,2.89758 
331 ,63.9716 ,1.38373 ,0.28504 ,2.79684 
332 ,64.1315 ,1.38539 ,0.27478 ,2.69611 
333 ,64.3239 ,1.38711 ,0.27478 ,2.69611 
334 ,64.5159 ,1.38904 ,0.25767 ,2.52822 
335 ,64.6919 ,1.39084 ,0.23029 ,2.25959 
336 ,64.8844 ,1.39275 ,0.25082 ,2.46106 
337 ,65.0919 ,1.39471 ,0.22687 ,2.22601 
338 ,65.3002 ,1.39682 ,0.21318 ,2.09170 
339 ,65.5083 ,1.39895 ,0.19607 ,1.92381 
340 ,65.7004 ,1.40089 ,0.19949 ,1.95738 
341 ,65.9084 ,1.40296 ,0.18580 ,1.82307 
342 ,66.1005 ,1.40491 ,0.18238 ,1.78949 
343 ,66.2926 ,1.40682 ,0.14473 ,1.42013 
344 ,66.5005 ,1.40884 ,0.14473 ,1.42013 
345 ,66.7085 ,1.41086 ,0.12078 ,1.18508 
346 ,66.9169 ,1.41304 ,0.11393 ,1.11793 
347 ,67.1087 ,1.41494 ,0.11736 ,1.15151 
348 ,67.2847 ,1.41683 ,0.10367 ,1.01719 
349 ,67.4769 ,1.41868 ,0.08998 ,0.88288 
350 ,67.6692 ,1.42064 ,0.06945 ,0.68141 
351 ,67.8453 ,1.42243 ,0.07971 ,0.78214 
352 ,68.0214 ,1.42412 ,0.07287 ,0.71499 
353 ,68.2133 ,1.42601 ,0.04549 ,0.44636 
354 ,68.3892 ,1.42782 ,0.03180 ,0.31205 
355 ,68.5817 ,1.42973 ,0.03180 ,0.31205 
356 ,68.7898 ,1.43174 ,0.00785 ,0.07700 
357 ,69.1739 ,1.43561 ,-0.01269 ,-0.12447 
358 ,69.3820 ,1.43769 ,-0.01269 ,-0.12447 
359 ,69.5741 ,1.43964 ,-0.02637 ,-0.25878 
360 ,69.7821 ,1.44173 ,-0.02637 ,-0.25878 
361 ,69.9742 ,1.44372 ,-0.05717 ,-0.56099 
362 ,70.1501 ,1.44546 ,-0.06402 ,-0.62814 
363 ,70.3427 ,1.44732 ,-0.06402 ,-0.62814 
364 ,70.5501 ,1.44935 ,-0.07428 ,-0.72888 
365 ,70.7428 ,1.45130 ,-0.08113 ,-0.79604 
366 ,70.9505 ,1.45334 ,-0.10166 ,-0.99751 
367 ,71.1429 ,1.45533 ,-0.08797 ,-0.86319 
368 ,71.3346 ,1.45724 ,-0.10851 ,-1.06466 
369 ,71.5268 ,1.45913 ,-0.12562 ,-1.23255 
370 ,71.7029 ,1.46102 ,-0.12904 ,-1.26613 
371 ,71.8948 ,1.46279 ,-0.15299 ,-1.50118 
372 ,72.0711 ,1.46463 ,-0.15642 ,-1.53476 
373 ,72.2473 ,1.46639 ,-0.16668 ,-1.63549 
374 ,72.4394 ,1.46828 ,-0.16326 ,-1.60191 
375 ,72.6475 ,1.47034 ,-0.20433 ,-2.00485 
376 ,72.8554 ,1.47244 ,-0.18379 ,-1.80338 
377 ,73.0475 ,1.47430 ,-0.20433 ,-2.00485 
378 ,73.2235 ,1.47618 ,-0.20090 ,-1.97128 
379 ,73.3996 ,1.47793 ,-0.21802 ,-2.13917 
380 ,73.5918 ,1.47978 ,-0.23513 ,-2.30706 
381 ,73.7835 ,1.48168 ,-0.24197 ,-2.37422 
382 ,73.9759 ,1.48362 ,-0.23855 ,-2.34064 
383 ,74.2000 ,1.48576 ,-0.25908 ,-2.54211 
384 ,74.3920 ,1.48777 ,-0.27619 ,-2.71000 
385 ,74.5843 ,1.48970 ,-0.28304 ,-2.77716 
386 ,74.7922 ,1.49168 ,-0.28646 ,-2.81073 
387 ,74.9843 ,1.49375 ,-0.30357 ,-2.97863 
388 ,75.1764 ,1.49563 ,-0.30357 ,-2.97863 
389 ,75.3845 ,1.49768 ,-0.32068 ,-3.14652 
390 ,75.5606 ,1.49955 ,-0.33779 ,-3.31441 
391 ,75.7365 ,1.50131 ,-0.33437 ,-3.28083 
392 ,75.9286 ,1.50312 ,-0.36175 ,-3.54946 
393 ,76.1367 ,1.50522 ,-0.35490 ,-3.48230 
394 ,76.3605 ,1.50738 ,-0.37201 ,-3.65019 
395 ,76.5371 ,1.50931 ,-0.37886 ,-3.71735 
396 ,76.7290 ,1.51115 ,-0.40281 ,-3.95240 
397 ,76.9211 ,1.51307 ,-0.38912 ,-3.81808 
398 ,77.1131 ,1.51494 ,-0.41992 ,-4.12029 
399 ,77.2894 ,1.51679 ,-0.42677 ,-4.18744 
400 ,77.4972 ,1.51879 ,-0.43019 ,-4.22102 
401 ,77.6734 ,1.52062 ,-0.44046 ,-4.32176 
402 ,77.8973 ,1.52272 ,-0.45072 ,-4.42249 
403 ,78.0893 ,1.52481 ,-0.47126 ,-4.62396 
404 ,78.2815 ,1.52667 ,-0.47126 ,-4.62396 
405 ,78.4737 ,1.52858 ,-0.46099 ,-4.52323 
406 ,78.6656 ,1.53049 ,-0.49179 ,-4.82543 
407 ,78.8422 ,1.53233 ,-0.49179 ,-4.82543 
408 ,79.0657 ,1.53454 ,-0.50890 ,-4.99332 
409 ,79.2416 ,1.53642 ,-0.50206 ,-4.92617 
410 ,79.4501 ,1.53825 ,-0.53285 ,-5.22837 
411 ,79.6582 ,1.54037 ,-0.52259 ,-5.12764 
412 ,79.8503 ,1.54230 ,-0.56023 ,-5.49700 
413 ,80.0426 ,1.54425 ,-0.54312 ,-5.32911 
414 ,80.2503 ,1.54632 ,-0.56708 ,-5.56415 
415 ,80.4586 ,1.54838 ,-0.56023 ,-5.49700 
416 ,80.6664 ,1.55046 ,-0.58419 ,-5.73205 
417 ,80.8427 ,1.55234 ,-0.60130 ,-5.89994 
418 ,81.0348 ,1.55412 ,-0.60814 ,-5.96709 
419 ,81.2267 ,1.55607 ,-0.61841 ,-6.06783 
420 ,81.4025 ,1.55798 ,-0.60814 ,-5.96709 
421 ,81.5950 ,1.55975 ,-0.62183 ,-6.10141 
422 ,81.7872 ,1.56167 ,-0.63210 ,-6.20214 
423 ,81.9951 ,1.56375 ,-0.64921 ,-6.37003 
424 ,82.1714 ,1.56559 ,-0.65605 ,-6.43719 
425 ,82.3794 ,1.56762 ,-0.64236 ,-6.30288 
426 ,82.5552 ,1.56948 ,-0.67659 ,-6.63866 
427 ,82.7476 ,1.57126 ,-0.69027 ,-6.77297 
428 ,82.9397 ,1.57326 ,-0.68685 ,-6.73940 
429 ,83.1475 ,1.57527 ,-0.69712 ,-6.84013 
430 ,83.3238 ,1.57712 ,-0.70739 ,-6.94086 
431 ,83.5316 ,1.57913 ,-0.71423 ,-7.00802 
432 ,83.7400 ,1.58117 ,-0.73134 ,-7.17591 
433 ,83.9481 ,1.58327 ,-0.74845 ,-7.34380 
434 ,84.1403 ,1.58524 ,-0.72107 ,-7.07518 
435 ,84.3480 ,1.58728 ,-0.75872 ,-7.44454 
436 ,84.5242 ,1.58913 ,-0.75872 ,-7.44454 
437 ,84.7004 ,1.59089 ,-0.77241 ,-7.57885 
438 ,84.9084 ,1.59290 ,-0.78952 ,-7.74674 
439 ,85.1325 ,1.59502 ,-0.77241 ,-7.57885 
440 ,85.3406 ,1.59710 ,-0.78952 ,-7.74674 
441 ,85.5327 ,1.59914 ,-0.81689 ,-8.01537 
442 ,85.7083 ,1.60104 ,-0.81689 ,-8.01537 
443 ,85.9008 ,1.60286 ,-0.81005 ,-7.94821 
444 ,86.1089 ,1.60489 ,-0.84427 ,-8.28400 
445 ,86.3010 ,1.60685 ,-0.83401 ,-8.18326 
446 ,86.4930 ,1.60873 ,-0.85112 ,-8.35115 
447 ,86.6691 ,1.61056 ,-0.85796 ,-8.41831 
448 ,86.8770 ,1.61246 ,-0.85454 ,-8.38473 
449 ,87.0693 ,1.61445 ,-0.88534 ,-8.68694 
450 ,87.2614 ,1.61644 ,-0.87507 ,-8.58620 
451 ,87.4534 ,1.61834 ,-0.88876 ,-8.72051 
452 ,87.6456 ,1.62023 ,-0.89218 ,-8.75409 
453 ,87.8535 ,1.62232 ,-0.91272 ,-8.95556 
454 ,88.0617 ,1.62433 ,-0.91956 ,-9.02272 
455 ,88.2536 ,1.62637 ,-0.90929 ,-8.92198 
456 ,88.4455 ,1.62826 ,-0.94009 ,-9.22419 
457 ,88.6214 ,1.63009 ,-0.93325 ,-9.15703 
458 ,88.8137 ,1.63192 ,-0.95036 ,-9.32492 
459 ,89.0055 ,1.63396 ,-0.95036 ,-9.32492 
460 ,89.1981 ,1.63579 ,-0.95036 ,-9.32492 
461 ,89.3743 ,1.63759 ,-0.96405 ,-9.45924 
462 ,89.5824 ,1.63963 ,-0.98116 ,-9.62713 
