Data stamp = , 26-04-2022 04:41:41 650

Calibration Values: 
Slope = , 26.54 , g/V 
Offset Voltage at no contact = , -0.501760 , V 

No , Time , Stage Position ,   Mass , Force 
   ,  (s) ,      (mm)      ,   (g)  , (mN)  

1 ,0.0000 ,0.74939 ,5.26087 ,51.61969 
2 ,0.2335 ,0.74950 ,5.24718 ,51.48538 
3 ,0.7620 ,0.75130 ,5.27114 ,51.72043 
4 ,0.9701 ,0.75382 ,5.26772 ,51.68685 
5 ,1.1622 ,0.75568 ,5.25403 ,51.55254 
6 ,1.3383 ,0.75752 ,5.25745 ,51.58611 
7 ,1.5300 ,0.75942 ,5.28141 ,51.82116 
8 ,1.7384 ,0.76137 ,5.25745 ,51.58611 
9 ,1.9306 ,0.76345 ,5.24034 ,51.41822 
10 ,2.1226 ,0.76542 ,5.21981 ,51.21675 
11 ,2.3143 ,0.76723 ,5.20954 ,51.11602 
12 ,2.4907 ,0.76908 ,5.20270 ,51.04886 
13 ,2.6824 ,0.77093 ,5.18216 ,50.84739 
14 ,2.8588 ,0.77274 ,5.15136 ,50.54519 
15 ,3.0508 ,0.77463 ,5.14794 ,50.51161 
16 ,3.2431 ,0.77657 ,5.13768 ,50.41087 
17 ,3.4348 ,0.77844 ,5.11030 ,50.14225 
18 ,3.6272 ,0.78038 ,5.09319 ,49.97436 
19 ,3.8189 ,0.78234 ,5.06581 ,49.70573 
20 ,4.0115 ,0.78422 ,5.07265 ,49.77289 
21 ,4.2034 ,0.78616 ,5.03501 ,49.40352 
22 ,4.3955 ,0.78800 ,5.01448 ,49.20205 
23 ,4.5876 ,0.78992 ,5.00763 ,49.13490 
24 ,4.7797 ,0.79189 ,4.97341 ,48.79911 
25 ,4.9717 ,0.79390 ,4.97683 ,48.83269 
26 ,5.1478 ,0.79565 ,4.95630 ,48.63122 
27 ,5.3239 ,0.79736 ,4.93577 ,48.42975 
28 ,5.5321 ,0.79943 ,4.91866 ,48.26186 
29 ,5.7239 ,0.80134 ,4.88101 ,47.89250 
30 ,5.9002 ,0.80314 ,4.87759 ,47.85892 
31 ,6.0922 ,0.80501 ,4.87417 ,47.82534 
32 ,6.2683 ,0.80684 ,4.83995 ,47.48956 
33 ,6.4439 ,0.80856 ,4.82626 ,47.35525 
34 ,6.6204 ,0.81033 ,4.80915 ,47.18736 
35 ,6.8284 ,0.81221 ,4.78861 ,46.98589 
36 ,7.0207 ,0.81435 ,4.77493 ,46.85157 
37 ,7.2127 ,0.81623 ,4.74413 ,46.54937 
38 ,7.4208 ,0.81834 ,4.72017 ,46.31432 
39 ,7.6129 ,0.82030 ,4.71333 ,46.24716 
40 ,7.8208 ,0.82234 ,4.69279 ,46.04569 
41 ,8.0129 ,0.82422 ,4.69279 ,46.04569 
42 ,8.1885 ,0.82600 ,4.66884 ,45.81065 
43 ,8.3651 ,0.82779 ,4.65515 ,45.67633 
44 ,8.5731 ,0.82980 ,4.61751 ,45.30697 
45 ,8.7651 ,0.83168 ,4.60382 ,45.17266 
46 ,8.9893 ,0.83387 ,4.59355 ,45.07192 
47 ,9.1812 ,0.83589 ,4.55591 ,44.70256 
48 ,9.3734 ,0.83779 ,4.53880 ,44.53467 
49 ,9.5654 ,0.83979 ,4.53195 ,44.46751 
50 ,9.7736 ,0.84178 ,4.51484 ,44.29962 
51 ,9.9656 ,0.84374 ,4.49431 ,44.09815 
52 ,10.1738 ,0.84579 ,4.48404 ,43.99742 
53 ,10.3494 ,0.84770 ,4.44640 ,43.62806 
54 ,10.5419 ,0.84949 ,4.42586 ,43.42659 
55 ,10.7499 ,0.85158 ,4.42244 ,43.39301 
56 ,10.9580 ,0.85360 ,4.39849 ,43.15796 
57 ,11.1499 ,0.85553 ,4.37111 ,42.88933 
58 ,11.3738 ,0.85768 ,4.36427 ,42.82218 
59 ,11.5661 ,0.85968 ,4.35058 ,42.68786 
60 ,11.7584 ,0.86169 ,4.31636 ,42.35208 
61 ,11.9505 ,0.86360 ,4.31293 ,42.31850 
62 ,12.1265 ,0.86539 ,4.30267 ,42.21777 
63 ,12.3026 ,0.86716 ,4.27871 ,41.98272 
64 ,12.4942 ,0.86910 ,4.26845 ,41.88198 
65 ,12.6868 ,0.87093 ,4.26502 ,41.84841 
66 ,12.8788 ,0.87292 ,4.22396 ,41.44547 
67 ,13.0547 ,0.87464 ,4.19316 ,41.14326 
68 ,13.2630 ,0.87669 ,4.19658 ,41.17684 
69 ,13.4709 ,0.87863 ,4.17262 ,40.94179 
70 ,13.8389 ,0.88160 ,4.14525 ,40.67317 
71 ,14.0313 ,0.88444 ,4.10418 ,40.27023 
72 ,14.2234 ,0.88625 ,4.09049 ,40.13591 
73 ,14.4151 ,0.88819 ,4.07680 ,40.00160 
74 ,14.5915 ,0.89004 ,4.05969 ,39.83371 
75 ,14.7677 ,0.89178 ,4.05627 ,39.80013 
76 ,14.9916 ,0.89388 ,4.02205 ,39.46435 
77 ,15.1839 ,0.89586 ,4.01178 ,39.36361 
78 ,15.3918 ,0.89799 ,3.99467 ,39.19572 
79 ,15.5839 ,0.89988 ,3.98441 ,39.09499 
80 ,15.7758 ,0.90176 ,3.95703 ,38.82636 
81 ,15.9522 ,0.90363 ,3.94334 ,38.69205 
82 ,16.1442 ,0.90549 ,3.94334 ,38.69205 
83 ,16.3363 ,0.90743 ,3.90570 ,38.32268 
84 ,16.5283 ,0.90940 ,3.89543 ,38.22195 
85 ,16.7043 ,0.91112 ,3.88174 ,38.08764 
86 ,16.9128 ,0.91316 ,3.86121 ,37.88617 
87 ,17.1206 ,0.91529 ,3.84410 ,37.71828 
88 ,17.3126 ,0.91711 ,3.83041 ,37.58396 
89 ,17.4887 ,0.91899 ,3.80645 ,37.34891 
90 ,17.6648 ,0.92077 ,3.79619 ,37.24818 
91 ,17.8565 ,0.92257 ,3.76196 ,36.91240 
92 ,18.0491 ,0.92451 ,3.76196 ,36.91240 
93 ,18.2567 ,0.92664 ,3.72090 ,36.50946 
94 ,18.4328 ,0.92840 ,3.71063 ,36.40872 
95 ,18.6089 ,0.93021 ,3.70379 ,36.34157 
96 ,18.8011 ,0.93206 ,3.68668 ,36.17367 
97 ,18.9929 ,0.93409 ,3.67983 ,36.10652 
98 ,19.1852 ,0.93585 ,3.65930 ,35.90505 
99 ,19.3775 ,0.93779 ,3.62508 ,35.56926 
100 ,19.5696 ,0.93977 ,3.62508 ,35.56926 
101 ,19.7455 ,0.94148 ,3.61139 ,35.43495 
102 ,19.9377 ,0.94346 ,3.57717 ,35.09917 
103 ,20.1299 ,0.94530 ,3.57032 ,35.03201 
104 ,20.3219 ,0.94731 ,3.55321 ,34.86412 
105 ,20.5141 ,0.94923 ,3.52241 ,34.56192 
106 ,20.7219 ,0.95124 ,3.50872 ,34.42760 
107 ,20.9143 ,0.95324 ,3.49161 ,34.25971 
108 ,21.1217 ,0.95524 ,3.48819 ,34.22613 
109 ,21.3144 ,0.95716 ,3.45397 ,33.89035 
110 ,21.5224 ,0.95926 ,3.45739 ,33.92393 
111 ,21.7145 ,0.96120 ,3.41633 ,33.52099 
112 ,21.9226 ,0.96312 ,3.42317 ,33.58814 
113 ,22.1148 ,0.96524 ,3.37868 ,33.15163 
114 ,22.2906 ,0.96704 ,3.38895 ,33.25236 
115 ,22.4828 ,0.96885 ,3.35473 ,32.91658 
116 ,22.6908 ,0.97092 ,3.33762 ,32.74869 
117 ,22.8670 ,0.97279 ,3.32735 ,32.64795 
118 ,23.0590 ,0.97462 ,3.30339 ,32.41290 
119 ,23.2349 ,0.97639 ,3.27602 ,32.14428 
120 ,23.4432 ,0.97838 ,3.27944 ,32.17786 
121 ,23.6351 ,0.98037 ,3.25206 ,31.90923 
122 ,23.8112 ,0.98217 ,3.23837 ,31.77492 
123 ,24.0195 ,0.98426 ,3.21442 ,31.53987 
124 ,24.2117 ,0.98614 ,3.20415 ,31.43913 
125 ,24.4032 ,0.98806 ,3.19388 ,31.33840 
126 ,24.5956 ,0.99003 ,3.15624 ,30.96904 
127 ,24.8037 ,0.99204 ,3.14940 ,30.90188 
128 ,24.9958 ,0.99395 ,3.12544 ,30.66683 
129 ,25.1879 ,0.99589 ,3.12202 ,30.63325 
130 ,25.3639 ,0.99770 ,3.11175 ,30.53252 
131 ,25.5401 ,0.99945 ,3.09464 ,30.36463 
132 ,25.7321 ,1.00136 ,3.07069 ,30.12958 
133 ,25.9242 ,1.00329 ,3.06726 ,30.09600 
134 ,26.1165 ,1.00515 ,3.02962 ,29.72664 
135 ,26.3244 ,1.00714 ,3.02278 ,29.65948 
136 ,26.5162 ,1.00917 ,2.98855 ,29.32370 
137 ,26.6925 ,1.01098 ,2.98171 ,29.25654 
138 ,26.8845 ,1.01281 ,2.97144 ,29.15581 
139 ,27.0607 ,1.01469 ,2.94407 ,28.88718 
140 ,27.2367 ,1.01641 ,2.93380 ,28.78645 
141 ,27.4285 ,1.01825 ,2.92353 ,28.68571 
142 ,27.6206 ,1.02020 ,2.89273 ,28.38351 
143 ,27.8129 ,1.02214 ,2.89273 ,28.38351 
144 ,28.0049 ,1.02408 ,2.88247 ,28.28277 
145 ,28.1971 ,1.02599 ,2.85167 ,27.98057 
146 ,28.4052 ,1.02804 ,2.84482 ,27.91341 
147 ,28.5973 ,1.02998 ,2.81745 ,27.64479 
148 ,28.7888 ,1.03204 ,2.81060 ,27.57763 
149 ,28.9655 ,1.03368 ,2.79691 ,27.44332 
150 ,29.1575 ,1.03555 ,2.76269 ,27.10753 
151 ,29.3496 ,1.03747 ,2.76611 ,27.14111 
152 ,29.5415 ,1.03943 ,2.74900 ,26.97322 
153 ,29.7179 ,1.04123 ,2.72163 ,26.70459 
154 ,29.9098 ,1.04311 ,2.71136 ,26.60386 
155 ,30.1181 ,1.04511 ,2.69767 ,26.46954 
156 ,30.3420 ,1.04728 ,2.67029 ,26.20092 
157 ,30.5340 ,1.04940 ,2.64292 ,25.93229 
158 ,30.7420 ,1.05141 ,2.63265 ,25.83156 
159 ,30.9178 ,1.05322 ,2.60527 ,25.56293 
160 ,31.1103 ,1.05510 ,2.59501 ,25.46220 
161 ,31.3023 ,1.05714 ,2.56763 ,25.19357 
162 ,31.4944 ,1.05889 ,2.55394 ,25.05926 
163 ,31.6704 ,1.06077 ,2.54367 ,24.95852 
164 ,31.8783 ,1.06279 ,2.53683 ,24.89136 
165 ,32.0705 ,1.06476 ,2.51287 ,24.65632 
166 ,32.2467 ,1.06651 ,2.51972 ,24.72347 
167 ,32.4389 ,1.06840 ,2.49234 ,24.45485 
168 ,32.6306 ,1.07031 ,2.46154 ,24.15264 
169 ,32.8230 ,1.07222 ,2.44785 ,24.01833 
170 ,33.0149 ,1.07413 ,2.43074 ,23.85044 
171 ,33.2072 ,1.07608 ,2.42732 ,23.81686 
172 ,33.4150 ,1.07815 ,2.39652 ,23.51465 
173 ,33.5914 ,1.07998 ,2.38625 ,23.41392 
174 ,33.7834 ,1.08190 ,2.38283 ,23.38034 
175 ,33.9754 ,1.08374 ,2.35888 ,23.14529 
176 ,34.1831 ,1.08576 ,2.34861 ,23.04456 
177 ,34.3756 ,1.08770 ,2.32123 ,22.77593 
178 ,34.5837 ,1.08980 ,2.31439 ,22.70877 
179 ,34.7598 ,1.09162 ,2.28701 ,22.44015 
180 ,34.9358 ,1.09339 ,2.27332 ,22.30584 
181 ,35.1280 ,1.09522 ,2.27332 ,22.30584 
182 ,35.3360 ,1.09731 ,2.22883 ,21.86932 
183 ,35.5281 ,1.09932 ,2.22883 ,21.86932 
184 ,35.7202 ,1.10120 ,2.20488 ,21.63427 
185 ,35.8961 ,1.10301 ,2.18777 ,21.46638 
186 ,36.0884 ,1.10491 ,2.18435 ,21.43280 
187 ,36.2962 ,1.10691 ,2.15012 ,21.09702 
188 ,36.4885 ,1.10891 ,2.14328 ,21.02986 
189 ,36.6966 ,1.11092 ,2.10906 ,20.69408 
190 ,36.8887 ,1.11281 ,2.12275 ,20.82839 
191 ,37.0807 ,1.11480 ,2.09879 ,20.59334 
192 ,37.2729 ,1.11671 ,2.07484 ,20.35829 
193 ,37.4808 ,1.11878 ,2.06799 ,20.29114 
194 ,37.6570 ,1.12061 ,2.05430 ,20.15682 
195 ,37.8650 ,1.12265 ,2.03719 ,19.98893 
196 ,38.0730 ,1.12469 ,2.00982 ,19.72031 
197 ,38.2813 ,1.12665 ,2.01324 ,19.75388 
198 ,38.4889 ,1.12885 ,1.98586 ,19.48526 
199 ,38.6814 ,1.13079 ,1.96875 ,19.31737 
200 ,38.8736 ,1.13274 ,1.94479 ,19.08232 
201 ,39.0656 ,1.13468 ,1.94822 ,19.11590 
202 ,39.2737 ,1.13670 ,1.92084 ,18.84727 
203 ,39.4655 ,1.13860 ,1.91742 ,18.81369 
204 ,39.6737 ,1.14071 ,1.89004 ,18.54507 
205 ,39.8818 ,1.14280 ,1.86951 ,18.34360 
206 ,40.0900 ,1.14475 ,1.84897 ,18.14213 
207 ,40.2821 ,1.14679 ,1.85240 ,18.17570 
208 ,40.4741 ,1.14883 ,1.83186 ,17.97423 
209 ,40.6337 ,1.15045 ,1.82160 ,17.87350 
210 ,40.8261 ,1.15224 ,1.81133 ,17.77276 
211 ,41.0341 ,1.15431 ,1.78053 ,17.47056 
212 ,41.2105 ,1.15613 ,1.77026 ,17.36983 
213 ,41.4026 ,1.15801 ,1.76342 ,17.30267 
214 ,41.5945 ,1.15991 ,1.72920 ,16.96689 
215 ,41.7863 ,1.16177 ,1.72578 ,16.93331 
216 ,41.9786 ,1.16371 ,1.71209 ,16.79899 
217 ,42.1549 ,1.16558 ,1.69840 ,16.66468 
218 ,42.3469 ,1.16740 ,1.69840 ,16.66468 
219 ,42.5550 ,1.16938 ,1.66418 ,16.32890 
220 ,42.7312 ,1.17134 ,1.65391 ,16.22816 
221 ,42.9231 ,1.17316 ,1.65391 ,16.22816 
222 ,43.1149 ,1.17507 ,1.61969 ,15.89238 
223 ,43.3074 ,1.17698 ,1.61969 ,15.89238 
224 ,43.5154 ,1.17910 ,1.59573 ,15.65733 
225 ,43.7069 ,1.18103 ,1.59231 ,15.62375 
226 ,43.8993 ,1.18305 ,1.58204 ,15.52302 
227 ,44.0917 ,1.18489 ,1.55124 ,15.22081 
228 ,44.2997 ,1.18689 ,1.54098 ,15.12008 
229 ,44.5079 ,1.18905 ,1.52729 ,14.98577 
230 ,44.7000 ,1.19093 ,1.49991 ,14.71714 
231 ,44.8920 ,1.19286 ,1.49307 ,14.64998 
232 ,45.0838 ,1.19476 ,1.49991 ,14.71714 
233 ,45.2601 ,1.19658 ,1.48280 ,14.54925 
234 ,45.4523 ,1.19843 ,1.45542 ,14.28062 
235 ,45.6444 ,1.20041 ,1.44858 ,14.21346 
236 ,45.8363 ,1.20229 ,1.42805 ,14.01199 
237 ,46.0285 ,1.20419 ,1.43147 ,14.04557 
238 ,46.2043 ,1.20611 ,1.41094 ,13.84410 
239 ,46.3966 ,1.20789 ,1.38698 ,13.60906 
240 ,46.5888 ,1.20980 ,1.36987 ,13.44116 
241 ,46.7967 ,1.21186 ,1.37671 ,13.50832 
242 ,46.9888 ,1.21382 ,1.35276 ,13.27327 
243 ,47.1804 ,1.21576 ,1.34249 ,13.17254 
244 ,47.3729 ,1.21761 ,1.31512 ,12.90391 
245 ,47.5489 ,1.21945 ,1.31854 ,12.93749 
246 ,47.7411 ,1.22130 ,1.29116 ,12.66886 
247 ,47.9332 ,1.22333 ,1.27405 ,12.50097 
248 ,48.1252 ,1.22518 ,1.28089 ,12.56813 
249 ,48.3008 ,1.22709 ,1.25694 ,12.33308 
250 ,48.4774 ,1.22876 ,1.23983 ,12.16519 
251 ,48.6693 ,1.23060 ,1.22956 ,12.06445 
252 ,48.8614 ,1.23255 ,1.23641 ,12.13161 
253 ,49.0375 ,1.23439 ,1.20903 ,11.86298 
254 ,49.2137 ,1.23609 ,1.18165 ,11.59436 
255 ,49.4218 ,1.23811 ,1.17481 ,11.52720 
256 ,49.5978 ,1.24000 ,1.18165 ,11.59436 
257 ,49.8058 ,1.24190 ,1.15770 ,11.35931 
258 ,49.9979 ,1.24389 ,1.14401 ,11.22500 
259 ,50.1899 ,1.24582 ,1.12347 ,11.02353 
260 ,50.3819 ,1.24771 ,1.12005 ,10.98995 
261 ,50.5742 ,1.24964 ,1.08583 ,10.65416 
262 ,50.7660 ,1.25156 ,1.09267 ,10.72132 
263 ,50.9423 ,1.25348 ,1.07214 ,10.51985 
264 ,51.1184 ,1.25516 ,1.06530 ,10.45270 
265 ,51.2943 ,1.25691 ,1.05503 ,10.35196 
266 ,51.4704 ,1.25867 ,1.03108 ,10.11691 
267 ,51.6785 ,1.26073 ,1.03108 ,10.11691 
268 ,51.8867 ,1.26272 ,1.01739 ,9.98260 
269 ,52.0787 ,1.26466 ,1.01396 ,9.94902 
270 ,52.2706 ,1.26670 ,0.97974 ,9.61324 
271 ,52.4466 ,1.26838 ,0.97974 ,9.61324 
272 ,52.6226 ,1.27023 ,0.95921 ,9.41177 
273 ,52.8148 ,1.27205 ,0.93183 ,9.14314 
274 ,53.0073 ,1.27408 ,0.93868 ,9.21030 
275 ,53.2309 ,1.27610 ,0.92157 ,9.04241 
276 ,53.4235 ,1.27806 ,0.90788 ,8.90809 
277 ,53.6152 ,1.28005 ,0.89077 ,8.74020 
278 ,53.7916 ,1.28191 ,0.87023 ,8.53873 
279 ,53.9835 ,1.28384 ,0.86681 ,8.50515 
280 ,54.1756 ,1.28561 ,0.86681 ,8.50515 
281 ,54.3676 ,1.28756 ,0.84628 ,8.30368 
282 ,54.5598 ,1.28943 ,0.84286 ,8.27011 
283 ,54.7357 ,1.29131 ,0.81548 ,8.00148 
284 ,54.9280 ,1.29316 ,0.79495 ,7.80001 
285 ,55.1359 ,1.29524 ,0.78810 ,7.73285 
286 ,55.3282 ,1.29715 ,0.79837 ,7.83359 
287 ,55.5204 ,1.29912 ,0.77441 ,7.59854 
288 ,55.7119 ,1.30101 ,0.75730 ,7.43065 
289 ,55.9201 ,1.30305 ,0.74704 ,7.32991 
290 ,56.0965 ,1.30495 ,0.74361 ,7.29633 
291 ,56.2884 ,1.30680 ,0.71966 ,7.06129 
292 ,56.4802 ,1.30870 ,0.71966 ,7.06129 
293 ,56.6721 ,1.31062 ,0.69570 ,6.82624 
294 ,56.8645 ,1.31251 ,0.67859 ,6.65835 
295 ,57.0727 ,1.31460 ,0.67175 ,6.59119 
296 ,57.2649 ,1.31660 ,0.66148 ,6.49046 
297 ,57.4410 ,1.31833 ,0.65464 ,6.42330 
298 ,57.6172 ,1.32012 ,0.63068 ,6.18825 
299 ,57.7928 ,1.32187 ,0.62042 ,6.08752 
300 ,57.9693 ,1.32365 ,0.59988 ,5.88605 
301 ,58.1453 ,1.32538 ,0.61357 ,6.02036 
302 ,58.3534 ,1.32740 ,0.58619 ,5.75173 
303 ,58.5295 ,1.32923 ,0.57251 ,5.61742 
304 ,58.7214 ,1.33103 ,0.57935 ,5.68458 
305 ,58.9297 ,1.33323 ,0.56566 ,5.55026 
306 ,59.1214 ,1.33511 ,0.55197 ,5.41595 
307 ,59.3139 ,1.33705 ,0.52459 ,5.14732 
308 ,59.5058 ,1.33893 ,0.53828 ,5.28164 
309 ,59.6980 ,1.34083 ,0.51433 ,5.04659 
310 ,59.8901 ,1.34282 ,0.50064 ,4.91228 
311 ,60.0982 ,1.34483 ,0.49722 ,4.87870 
312 ,60.2737 ,1.34672 ,0.48011 ,4.71081 
313 ,60.4503 ,1.34844 ,0.45615 ,4.47576 
314 ,60.6584 ,1.35048 ,0.45273 ,4.44218 
315 ,60.8341 ,1.35229 ,0.42877 ,4.20713 
316 ,61.0105 ,1.35407 ,0.41851 ,4.10640 
317 ,61.1864 ,1.35583 ,0.42877 ,4.20713 
318 ,61.3945 ,1.35782 ,0.41851 ,4.10640 
319 ,61.6028 ,1.35981 ,0.40140 ,3.93850 
320 ,61.7788 ,1.36171 ,0.39797 ,3.90493 
321 ,61.9709 ,1.36357 ,0.37744 ,3.70346 
322 ,62.1790 ,1.36564 ,0.36718 ,3.60272 
323 ,62.3867 ,1.36773 ,0.36033 ,3.53557 
324 ,62.5792 ,1.36967 ,0.35006 ,3.43483 
325 ,62.7712 ,1.37159 ,0.31242 ,3.06547 
326 ,62.9633 ,1.37350 ,0.32953 ,3.23336 
327 ,63.1550 ,1.37541 ,0.29873 ,2.93116 
328 ,63.3314 ,1.37729 ,0.30900 ,3.03189 
329 ,63.5070 ,1.37902 ,0.28162 ,2.76326 
330 ,63.6835 ,1.38082 ,0.28504 ,2.79684 
331 ,63.8595 ,1.38252 ,0.29189 ,2.86400 
332 ,64.0516 ,1.38442 ,0.25424 ,2.49464 
333 ,64.2437 ,1.38630 ,0.26451 ,2.59537 
334 ,64.4357 ,1.38821 ,0.22344 ,2.19243 
335 ,64.6274 ,1.39010 ,0.23713 ,2.32675 
336 ,64.8037 ,1.39194 ,0.21660 ,2.12528 
337 ,64.9961 ,1.39390 ,0.20976 ,2.05812 
338 ,65.1721 ,1.39573 ,0.19607 ,1.92381 
339 ,65.3482 ,1.39742 ,0.17896 ,1.75592 
340 ,65.5242 ,1.39915 ,0.17553 ,1.72234 
341 ,65.6999 ,1.40097 ,0.17896 ,1.75592 
342 ,65.8924 ,1.40277 ,0.15158 ,1.48729 
343 ,66.1005 ,1.40487 ,0.14816 ,1.45371 
344 ,66.2925 ,1.40689 ,0.13789 ,1.35298 
345 ,66.4686 ,1.40861 ,0.12420 ,1.21866 
346 ,66.6284 ,1.41032 ,0.12078 ,1.18508 
347 ,66.8208 ,1.41207 ,0.11393 ,1.11793 
348 ,66.9968 ,1.41390 ,0.10709 ,1.05077 
349 ,67.1889 ,1.41568 ,0.07971 ,0.78214 
350 ,67.3806 ,1.41766 ,0.08998 ,0.88288 
351 ,67.5570 ,1.41947 ,0.07971 ,0.78214 
352 ,67.7329 ,1.42125 ,0.05918 ,0.58067 
353 ,67.9248 ,1.42310 ,0.05576 ,0.54710 
354 ,68.1175 ,1.42498 ,0.05234 ,0.51352 
355 ,68.3252 ,1.42706 ,0.03865 ,0.37920 
356 ,68.5015 ,1.42891 ,0.03180 ,0.31205 
357 ,68.6936 ,1.43078 ,0.01811 ,0.17773 
358 ,68.8696 ,1.43259 ,-0.00242 ,-0.02373 
359 ,69.0615 ,1.43448 ,0.00785 ,0.07700 
360 ,69.2538 ,1.43642 ,-0.02295 ,-0.22520 
361 ,69.4619 ,1.43845 ,-0.02295 ,-0.22520 
362 ,69.6376 ,1.44028 ,-0.03322 ,-0.32594 
363 ,69.8299 ,1.44218 ,-0.05717 ,-0.56099 
364 ,70.0218 ,1.44406 ,-0.06060 ,-0.59457 
365 ,70.2141 ,1.44595 ,-0.07086 ,-0.69530 
366 ,70.4059 ,1.44794 ,-0.08113 ,-0.79604 
367 ,70.5822 ,1.44971 ,-0.08113 ,-0.79604 
368 ,70.7583 ,1.45148 ,-0.09140 ,-0.89677 
369 ,70.9344 ,1.45330 ,-0.11193 ,-1.09824 
370 ,71.1102 ,1.45498 ,-0.11877 ,-1.16540 
371 ,71.3027 ,1.45684 ,-0.11877 ,-1.16540 
372 ,71.4947 ,1.45877 ,-0.13588 ,-1.33329 
373 ,71.7028 ,1.46086 ,-0.13931 ,-1.36687 
374 ,71.8948 ,1.46280 ,-0.16326 ,-1.60191 
375 ,72.0870 ,1.46470 ,-0.15984 ,-1.56834 
376 ,72.2790 ,1.46665 ,-0.17695 ,-1.73623 
377 ,72.4710 ,1.46856 ,-0.19406 ,-1.90412 
378 ,72.6632 ,1.47048 ,-0.19406 ,-1.90412 
379 ,72.8552 ,1.47242 ,-0.19748 ,-1.93770 
380 ,73.0313 ,1.47422 ,-0.22828 ,-2.23990 
381 ,73.2230 ,1.47610 ,-0.21459 ,-2.10559 
382 ,73.4315 ,1.47819 ,-0.24197 ,-2.37422 
383 ,73.6395 ,1.48022 ,-0.23513 ,-2.30706 
384 ,73.8315 ,1.48219 ,-0.25908 ,-2.54211 
385 ,74.0235 ,1.48401 ,-0.24539 ,-2.40779 
386 ,74.2158 ,1.48595 ,-0.27277 ,-2.67642 
387 ,74.3914 ,1.48786 ,-0.27961 ,-2.74358 
388 ,74.5680 ,1.48955 ,-0.28988 ,-2.84431 
389 ,74.7600 ,1.49140 ,-0.28988 ,-2.84431 
390 ,74.9520 ,1.49335 ,-0.32410 ,-3.18010 
391 ,75.1442 ,1.49525 ,-0.31041 ,-3.04578 
392 ,75.3360 ,1.49720 ,-0.33095 ,-3.24725 
393 ,75.5123 ,1.49905 ,-0.34464 ,-3.38156 
394 ,75.6884 ,1.50077 ,-0.35832 ,-3.51588 
395 ,75.8804 ,1.50264 ,-0.34121 ,-3.34799 
396 ,76.0565 ,1.50445 ,-0.36517 ,-3.58303 
397 ,76.2487 ,1.50631 ,-0.36859 ,-3.61661 
398 ,76.4406 ,1.50824 ,-0.38570 ,-3.78450 
399 ,76.6325 ,1.51010 ,-0.40623 ,-3.98597 
400 ,76.8407 ,1.51211 ,-0.40281 ,-3.95240 
401 ,77.0168 ,1.51401 ,-0.40623 ,-3.98597 
402 ,77.2091 ,1.51590 ,-0.43019 ,-4.22102 
403 ,77.4174 ,1.51803 ,-0.43703 ,-4.28818 
404 ,77.6087 ,1.51990 ,-0.44388 ,-4.35534 
405 ,77.8012 ,1.52182 ,-0.44388 ,-4.35534 
406 ,77.9933 ,1.52373 ,-0.47810 ,-4.69112 
407 ,78.1851 ,1.52567 ,-0.46783 ,-4.59038 
408 ,78.3931 ,1.52772 ,-0.49179 ,-4.82543 
409 ,78.5691 ,1.52960 ,-0.48837 ,-4.79185 
410 ,78.7454 ,1.53129 ,-0.49863 ,-4.89259 
411 ,78.9376 ,1.53316 ,-0.49521 ,-4.85901 
412 ,79.1618 ,1.53529 ,-0.50548 ,-4.95975 
413 ,79.3537 ,1.53734 ,-0.54312 ,-5.32911 
414 ,79.5459 ,1.53925 ,-0.53628 ,-5.26195 
415 ,79.7220 ,1.54115 ,-0.54654 ,-5.36268 
416 ,79.9463 ,1.54320 ,-0.56365 ,-5.53058 
417 ,80.1541 ,1.54530 ,-0.57392 ,-5.63131 
418 ,80.3303 ,1.54717 ,-0.58077 ,-5.69847 
419 ,80.5384 ,1.54919 ,-0.58419 ,-5.73205 
420 ,80.7304 ,1.55112 ,-0.60130 ,-5.89994 
421 ,80.9226 ,1.55314 ,-0.59788 ,-5.86636 
422 ,81.0987 ,1.55480 ,-0.60814 ,-5.96709 
423 ,81.2907 ,1.55671 ,-0.62868 ,-6.16856 
424 ,81.4988 ,1.55874 ,-0.61841 ,-6.06783 
425 ,81.6907 ,1.56069 ,-0.64921 ,-6.37003 
426 ,81.8829 ,1.56262 ,-0.63552 ,-6.23572 
427 ,82.0910 ,1.56474 ,-0.67659 ,-6.63866 
428 ,82.2831 ,1.56668 ,-0.65947 ,-6.47077 
429 ,82.4912 ,1.56859 ,-0.67316 ,-6.60508 
430 ,82.6832 ,1.57059 ,-0.67659 ,-6.63866 
431 ,82.8591 ,1.57241 ,-0.69027 ,-6.77297 
432 ,83.0350 ,1.57425 ,-0.70739 ,-6.94086 
433 ,83.2274 ,1.57606 ,-0.70739 ,-6.94086 
434 ,83.4356 ,1.57814 ,-0.73476 ,-7.20949 
435 ,83.6275 ,1.58008 ,-0.73476 ,-7.20949 
436 ,83.8198 ,1.58205 ,-0.73134 ,-7.17591 
437 ,84.0118 ,1.58391 ,-0.75530 ,-7.41096 
438 ,84.1878 ,1.58578 ,-0.74503 ,-7.31023 
439 ,84.3800 ,1.58756 ,-0.75872 ,-7.44454 
440 ,84.5720 ,1.58954 ,-0.78610 ,-7.71317 
441 ,84.7797 ,1.59155 ,-0.76214 ,-7.47812 
442 ,84.9560 ,1.59339 ,-0.78267 ,-7.67959 
443 ,85.1323 ,1.59516 ,-0.78952 ,-7.74674 
444 ,85.3401 ,1.59713 ,-0.78610 ,-7.71317 
445 ,85.5325 ,1.59908 ,-0.82032 ,-8.04895 
446 ,85.7244 ,1.60102 ,-0.82374 ,-8.08253 
447 ,85.9325 ,1.60311 ,-0.83743 ,-8.21684 
448 ,86.1406 ,1.60518 ,-0.83401 ,-8.18326 
449 ,86.3163 ,1.60700 ,-0.84427 ,-8.28400 
450 ,86.4928 ,1.60876 ,-0.84769 ,-8.31758 
451 ,86.6846 ,1.61058 ,-0.85796 ,-8.41831 
452 ,86.8769 ,1.61252 ,-0.86481 ,-8.48547 
453 ,87.0690 ,1.61445 ,-0.87849 ,-8.61978 
454 ,87.2610 ,1.61637 ,-0.88534 ,-8.68694 
455 ,87.4371 ,1.61819 ,-0.88534 ,-8.68694 
456 ,87.6133 ,1.62003 ,-0.92298 ,-9.05630 
457 ,87.8053 ,1.62182 ,-0.91614 ,-8.98914 
458 ,87.9814 ,1.62366 ,-0.92298 ,-9.05630 
459 ,88.1734 ,1.62561 ,-0.94351 ,-9.25777 
460 ,88.3656 ,1.62743 ,-0.95036 ,-9.32492 
461 ,88.5576 ,1.62939 ,-0.94009 ,-9.22419 
462 ,88.7334 ,1.63121 ,-0.96063 ,-9.42566 
463 ,88.9418 ,1.63318 ,-0.96063 ,-9.42566 
