Data stamp = , 26-04-2022 02:46:17 333

Calibration Values: 
Slope = , 26.54 , g/V 
Offset Voltage at no contact = , -0.501760 , V 

No , Time , Stage Position ,   Mass , Force 
   ,  (s) ,      (mm)      ,   (g)  , (mN)  

1 ,0.0000 ,0.74945 ,5.27114 ,51.72043 
2 ,0.2081 ,0.74953 ,5.26430 ,51.65327 
3 ,0.6079 ,0.75077 ,5.28825 ,51.88832 
4 ,0.7844 ,0.75223 ,5.28141 ,51.82116 
5 ,0.9761 ,0.75392 ,5.28825 ,51.88832 
6 ,1.1845 ,0.75599 ,5.27456 ,51.75401 
7 ,1.3605 ,0.75777 ,5.28483 ,51.85474 
8 ,1.5363 ,0.75956 ,5.29167 ,51.92190 
9 ,1.7127 ,0.76134 ,5.26772 ,51.68685 
10 ,1.9048 ,0.76326 ,5.26430 ,51.65327 
11 ,2.1127 ,0.76529 ,5.23350 ,51.35107 
12 ,2.2889 ,0.76711 ,5.20954 ,51.11602 
13 ,2.4647 ,0.76888 ,5.20612 ,51.08244 
14 ,2.6411 ,0.77068 ,5.19243 ,50.94813 
15 ,2.8172 ,0.77240 ,5.18559 ,50.88097 
16 ,3.0093 ,0.77425 ,5.14794 ,50.51161 
17 ,3.1854 ,0.77609 ,5.13425 ,50.37729 
18 ,3.3775 ,0.77794 ,5.12399 ,50.27656 
19 ,3.5856 ,0.78001 ,5.11372 ,50.17583 
20 ,3.7772 ,0.78196 ,5.07608 ,49.80646 
21 ,3.9698 ,0.78389 ,5.06239 ,49.67215 
22 ,4.1778 ,0.78594 ,5.05212 ,49.57142 
23 ,4.3699 ,0.78785 ,5.01790 ,49.23563 
24 ,4.5619 ,0.78976 ,5.01790 ,49.23563 
25 ,4.7380 ,0.79160 ,5.00079 ,49.06774 
26 ,4.9302 ,0.79345 ,4.96315 ,48.69838 
27 ,5.1221 ,0.79548 ,4.95630 ,48.63122 
28 ,5.3143 ,0.79724 ,4.93919 ,48.46333 
29 ,5.5062 ,0.79932 ,4.89470 ,48.02681 
30 ,5.6824 ,0.80103 ,4.89470 ,48.02681 
31 ,5.8743 ,0.80285 ,4.87075 ,47.79177 
32 ,6.0665 ,0.80488 ,4.85364 ,47.62387 
33 ,6.2587 ,0.80671 ,4.84679 ,47.55672 
34 ,6.4504 ,0.80868 ,4.82626 ,47.35525 
35 ,6.6268 ,0.81044 ,4.80230 ,47.12020 
36 ,6.8349 ,0.81247 ,4.78519 ,46.95231 
37 ,7.0104 ,0.81439 ,4.77150 ,46.81800 
38 ,7.2030 ,0.81622 ,4.76124 ,46.71726 
39 ,7.3950 ,0.81810 ,4.72702 ,46.38148 
40 ,7.6032 ,0.82018 ,4.72359 ,46.34790 
41 ,7.8113 ,0.82228 ,4.68937 ,46.01212 
42 ,8.0034 ,0.82419 ,4.68937 ,46.01212 
43 ,8.2115 ,0.82630 ,4.65857 ,45.70991 
44 ,8.4036 ,0.82821 ,4.64488 ,45.57560 
45 ,8.5955 ,0.83012 ,4.61751 ,45.30697 
46 ,8.7876 ,0.83199 ,4.60382 ,45.17266 
47 ,8.9635 ,0.83382 ,4.60382 ,45.17266 
48 ,9.1396 ,0.83562 ,4.59013 ,45.03835 
49 ,9.3316 ,0.83748 ,4.54906 ,44.63541 
50 ,9.5238 ,0.83942 ,4.52853 ,44.43394 
51 ,9.7160 ,0.84126 ,4.51142 ,44.26604 
52 ,9.8920 ,0.84318 ,4.49773 ,44.13173 
53 ,10.0682 ,0.84492 ,4.48404 ,43.99742 
54 ,10.2598 ,0.84672 ,4.47720 ,43.93026 
55 ,10.4524 ,0.84869 ,4.45324 ,43.69521 
56 ,10.6605 ,0.85073 ,4.45324 ,43.69521 
57 ,10.8365 ,0.85257 ,4.43271 ,43.49374 
58 ,11.0281 ,0.85443 ,4.39164 ,43.09080 
59 ,11.2045 ,0.85620 ,4.38822 ,43.05723 
60 ,11.4122 ,0.85814 ,4.36769 ,42.85576 
61 ,11.6046 ,0.86015 ,4.36084 ,42.78860 
62 ,11.7805 ,0.86200 ,4.33689 ,42.55355 
63 ,11.9568 ,0.86378 ,4.32320 ,42.41924 
64 ,12.1330 ,0.86551 ,4.30267 ,42.21777 
65 ,12.3411 ,0.86755 ,4.29924 ,42.18419 
66 ,12.5491 ,0.86953 ,4.26502 ,41.84841 
67 ,12.7573 ,0.87169 ,4.24791 ,41.68051 
68 ,12.9490 ,0.87363 ,4.21711 ,41.37831 
69 ,13.1414 ,0.87557 ,4.22738 ,41.47905 
70 ,13.3174 ,0.87742 ,4.19658 ,41.17684 
71 ,13.5090 ,0.87920 ,4.17947 ,41.00895 
72 ,13.6856 ,0.88108 ,4.15894 ,40.80748 
73 ,13.8936 ,0.88305 ,4.13840 ,40.60601 
74 ,14.0697 ,0.88490 ,4.12129 ,40.43812 
75 ,14.2779 ,0.88692 ,4.10418 ,40.27023 
76 ,14.4857 ,0.88898 ,4.09391 ,40.16949 
77 ,14.6780 ,0.89089 ,4.06996 ,39.93444 
78 ,14.8856 ,0.89294 ,4.04943 ,39.73297 
79 ,15.0622 ,0.89481 ,4.04600 ,39.69940 
80 ,15.2541 ,0.89664 ,4.01863 ,39.43077 
81 ,15.4463 ,0.89860 ,4.00494 ,39.29646 
82 ,15.6379 ,0.90051 ,3.98441 ,39.09499 
83 ,15.8305 ,0.90236 ,3.97072 ,38.96067 
84 ,16.0223 ,0.90433 ,3.96045 ,38.85994 
85 ,16.2144 ,0.90622 ,3.93307 ,38.59131 
86 ,16.3906 ,0.90810 ,3.90570 ,38.32268 
87 ,16.5828 ,0.91000 ,3.91596 ,38.42342 
88 ,16.7748 ,0.91185 ,3.88174 ,38.08764 
89 ,16.9989 ,0.91398 ,3.88174 ,38.08764 
90 ,17.1748 ,0.91590 ,3.85094 ,37.78543 
91 ,17.3670 ,0.91772 ,3.81672 ,37.44965 
92 ,17.5592 ,0.91970 ,3.82356 ,37.51681 
93 ,17.7508 ,0.92167 ,3.78250 ,37.11387 
94 ,17.9433 ,0.92359 ,3.79276 ,37.21460 
95 ,18.1515 ,0.92564 ,3.75854 ,36.87882 
96 ,18.3433 ,0.92752 ,3.75512 ,36.84524 
97 ,18.5514 ,0.92963 ,3.72090 ,36.50946 
98 ,18.7434 ,0.93152 ,3.71748 ,36.47588 
99 ,18.9357 ,0.93349 ,3.69010 ,36.20725 
100 ,19.1435 ,0.93556 ,3.68325 ,36.14010 
101 ,19.3199 ,0.93734 ,3.66957 ,36.00578 
102 ,19.5280 ,0.93935 ,3.64561 ,35.77073 
103 ,19.7201 ,0.94128 ,3.62508 ,35.56926 
104 ,19.9118 ,0.94332 ,3.60797 ,35.40137 
105 ,20.1041 ,0.94517 ,3.60454 ,35.36779 
106 ,20.3122 ,0.94718 ,3.57375 ,35.06559 
107 ,20.4884 ,0.94907 ,3.56006 ,34.93128 
108 ,20.6963 ,0.95108 ,3.52926 ,34.62907 
109 ,20.9045 ,0.95313 ,3.53268 ,34.66265 
110 ,21.0805 ,0.95509 ,3.49846 ,34.32687 
111 ,21.2726 ,0.95686 ,3.48477 ,34.19255 
112 ,21.4485 ,0.95863 ,3.46766 ,34.02466 
113 ,21.6727 ,0.96070 ,3.44028 ,33.75604 
114 ,21.8491 ,0.96264 ,3.43001 ,33.65530 
115 ,22.0567 ,0.96467 ,3.40264 ,33.38667 
116 ,22.2490 ,0.96661 ,3.39579 ,33.31952 
117 ,22.4411 ,0.96859 ,3.39579 ,33.31952 
118 ,22.6333 ,0.97041 ,3.35815 ,32.95016 
119 ,22.8254 ,0.97232 ,3.37184 ,33.08447 
120 ,23.0174 ,0.97430 ,3.34446 ,32.81584 
121 ,23.2094 ,0.97620 ,3.32051 ,32.58080 
122 ,23.3853 ,0.97796 ,3.30682 ,32.44648 
123 ,23.5616 ,0.97977 ,3.30682 ,32.44648 
124 ,23.7696 ,0.98181 ,3.28286 ,32.21143 
125 ,23.9620 ,0.98368 ,3.26233 ,32.00996 
126 ,24.1534 ,0.98560 ,3.23495 ,31.74134 
127 ,24.3454 ,0.98757 ,3.20757 ,31.47271 
128 ,24.5214 ,0.98937 ,3.20757 ,31.47271 
129 ,24.7139 ,0.99124 ,3.19046 ,31.30482 
130 ,24.9542 ,0.99360 ,3.18362 ,31.23766 
131 ,25.1619 ,0.99571 ,3.16309 ,31.03619 
132 ,25.3379 ,0.99754 ,3.14597 ,30.86830 
133 ,25.5305 ,0.99936 ,3.11175 ,30.53252 
134 ,25.7225 ,1.00125 ,3.11518 ,30.56610 
135 ,25.8985 ,1.00315 ,3.10833 ,30.49894 
136 ,26.0743 ,1.00488 ,3.07411 ,30.16316 
137 ,26.2507 ,1.00660 ,3.04331 ,29.86095 
138 ,26.4264 ,1.00841 ,3.03647 ,29.79380 
139 ,26.6349 ,1.01032 ,3.02620 ,29.69306 
140 ,26.8427 ,1.01249 ,3.00909 ,29.52517 
141 ,27.0351 ,1.01450 ,3.00567 ,29.49159 
142 ,27.2270 ,1.01635 ,2.97829 ,29.22297 
143 ,27.4031 ,1.01815 ,2.96460 ,29.08865 
144 ,27.5793 ,1.01994 ,2.93380 ,28.78645 
145 ,27.7875 ,1.02192 ,2.93038 ,28.75287 
146 ,27.9793 ,1.02390 ,2.90300 ,28.48424 
147 ,28.1552 ,1.02573 ,2.89273 ,28.38351 
148 ,28.3316 ,1.02743 ,2.85851 ,28.04772 
149 ,28.5393 ,1.02944 ,2.85851 ,28.04772 
150 ,28.7158 ,1.03132 ,2.83456 ,27.81268 
151 ,28.9079 ,1.03325 ,2.82771 ,27.74552 
152 ,29.1000 ,1.03514 ,2.81060 ,27.57763 
153 ,29.3078 ,1.03711 ,2.80718 ,27.54405 
154 ,29.4841 ,1.03896 ,2.79349 ,27.40974 
155 ,29.6920 ,1.04096 ,2.75243 ,27.00680 
156 ,29.9001 ,1.04311 ,2.73874 ,26.87248 
157 ,30.0924 ,1.04498 ,2.71478 ,26.63744 
158 ,30.3003 ,1.04695 ,2.71820 ,26.67101 
159 ,30.4925 ,1.04902 ,2.67029 ,26.20092 
160 ,30.6842 ,1.05088 ,2.67714 ,26.26807 
161 ,30.8927 ,1.05298 ,2.64292 ,25.93229 
162 ,31.0844 ,1.05496 ,2.64292 ,25.93229 
163 ,31.2928 ,1.05711 ,2.60869 ,25.59651 
164 ,31.4686 ,1.05883 ,2.59843 ,25.49577 
165 ,31.6611 ,1.06074 ,2.58816 ,25.39504 
166 ,31.8528 ,1.06263 ,2.57105 ,25.22715 
167 ,32.0291 ,1.06439 ,2.54367 ,24.95852 
168 ,32.2211 ,1.06632 ,2.54710 ,24.99210 
169 ,32.4132 ,1.06830 ,2.54025 ,24.92494 
170 ,32.5894 ,1.06999 ,2.51972 ,24.72347 
171 ,32.7974 ,1.07203 ,2.48892 ,24.42127 
172 ,32.9733 ,1.07383 ,2.46154 ,24.15264 
173 ,33.1655 ,1.07569 ,2.47523 ,24.28696 
174 ,33.3736 ,1.07776 ,2.43416 ,23.88402 
175 ,33.5658 ,1.07971 ,2.42390 ,23.78328 
176 ,33.7417 ,1.08158 ,2.39652 ,23.51465 
177 ,33.9335 ,1.08339 ,2.37599 ,23.31318 
178 ,34.1258 ,1.08534 ,2.37256 ,23.27961 
179 ,34.3500 ,1.08756 ,2.36230 ,23.17887 
180 ,34.5421 ,1.08946 ,2.34519 ,23.01098 
181 ,34.7342 ,1.09140 ,2.32465 ,22.80951 
182 ,34.9101 ,1.09323 ,2.29728 ,22.54088 
183 ,35.1024 ,1.09503 ,2.29385 ,22.50731 
184 ,35.2785 ,1.09687 ,2.26990 ,22.27226 
185 ,35.4705 ,1.09882 ,2.25963 ,22.17152 
186 ,35.6623 ,1.10078 ,2.23568 ,21.93647 
187 ,35.8387 ,1.10254 ,2.22883 ,21.86932 
188 ,36.0468 ,1.10448 ,2.21857 ,21.76858 
189 ,36.2388 ,1.10645 ,2.20146 ,21.60069 
190 ,36.4470 ,1.10852 ,2.17750 ,21.36564 
191 ,36.6388 ,1.11041 ,2.15697 ,21.16417 
192 ,36.8311 ,1.11236 ,2.13986 ,20.99628 
193 ,37.0071 ,1.11418 ,2.13986 ,20.99628 
194 ,37.1827 ,1.11589 ,2.12617 ,20.86197 
195 ,37.3751 ,1.11777 ,2.09537 ,20.55976 
196 ,37.5672 ,1.11965 ,2.07141 ,20.32472 
197 ,37.7595 ,1.12160 ,2.05430 ,20.15682 
198 ,37.9672 ,1.12373 ,2.05773 ,20.19040 
199 ,38.1436 ,1.12552 ,2.05088 ,20.12325 
200 ,38.3517 ,1.12755 ,2.02693 ,19.88820 
201 ,38.5436 ,1.12946 ,2.01324 ,19.75388 
202 ,38.7199 ,1.13127 ,1.99270 ,19.55241 
203 ,38.8959 ,1.13306 ,1.97217 ,19.35094 
204 ,39.1039 ,1.13504 ,1.97217 ,19.35094 
205 ,39.2958 ,1.13700 ,1.92768 ,18.91443 
206 ,39.4883 ,1.13895 ,1.92768 ,18.91443 
207 ,39.6961 ,1.14097 ,1.89346 ,18.57864 
208 ,39.8885 ,1.14290 ,1.90715 ,18.71296 
209 ,40.0963 ,1.14495 ,1.87293 ,18.37717 
210 ,40.2885 ,1.14689 ,1.87293 ,18.37717 
211 ,40.4803 ,1.14879 ,1.84897 ,18.14213 
212 ,40.6566 ,1.15067 ,1.81475 ,17.80634 
213 ,40.8489 ,1.15262 ,1.81817 ,17.83992 
214 ,41.0250 ,1.15433 ,1.80106 ,17.67203 
215 ,41.2169 ,1.15615 ,1.77026 ,17.36983 
216 ,41.3929 ,1.15801 ,1.76000 ,17.26909 
217 ,41.5850 ,1.16003 ,1.76342 ,17.30267 
218 ,41.7934 ,1.16196 ,1.73604 ,17.03404 
219 ,41.9854 ,1.16386 ,1.73604 ,17.03404 
220 ,42.1775 ,1.16578 ,1.69155 ,16.59752 
221 ,42.3696 ,1.16774 ,1.69840 ,16.66468 
222 ,42.5612 ,1.16966 ,1.69840 ,16.66468 
223 ,42.7533 ,1.17153 ,1.65733 ,16.26174 
224 ,42.9293 ,1.17342 ,1.67102 ,16.39605 
225 ,43.1217 ,1.17524 ,1.63338 ,16.02669 
226 ,43.3136 ,1.17725 ,1.64022 ,16.09385 
227 ,43.4899 ,1.17902 ,1.62995 ,15.99311 
228 ,43.6656 ,1.18075 ,1.61969 ,15.89238 
229 ,43.8584 ,1.18262 ,1.58204 ,15.52302 
230 ,44.0662 ,1.18464 ,1.58204 ,15.52302 
231 ,44.2423 ,1.18648 ,1.56836 ,15.38871 
232 ,44.4344 ,1.18833 ,1.53756 ,15.08650 
233 ,44.6264 ,1.19024 ,1.55124 ,15.22081 
234 ,44.8345 ,1.19235 ,1.50333 ,14.75072 
235 ,45.0428 ,1.19444 ,1.49991 ,14.71714 
236 ,45.2506 ,1.19651 ,1.48622 ,14.58283 
237 ,45.4588 ,1.19848 ,1.46911 ,14.41493 
238 ,45.6669 ,1.20066 ,1.46227 ,14.34778 
239 ,45.8424 ,1.20253 ,1.44174 ,14.14631 
240 ,46.0350 ,1.20433 ,1.41778 ,13.91126 
241 ,46.2110 ,1.20630 ,1.41436 ,13.87768 
242 ,46.3871 ,1.20798 ,1.41436 ,13.87768 
243 ,46.5793 ,1.20986 ,1.39040 ,13.64263 
244 ,46.7713 ,1.21170 ,1.37329 ,13.47474 
245 ,46.9633 ,1.21366 ,1.35960 ,13.34043 
246 ,47.1395 ,1.21546 ,1.34591 ,13.20612 
247 ,47.3317 ,1.21731 ,1.33907 ,13.13896 
248 ,47.5237 ,1.21923 ,1.33907 ,13.13896 
249 ,47.7158 ,1.22115 ,1.29458 ,12.70244 
250 ,47.9076 ,1.22315 ,1.30485 ,12.80318 
251 ,48.0999 ,1.22500 ,1.28089 ,12.56813 
252 ,48.3078 ,1.22703 ,1.26378 ,12.40024 
253 ,48.5000 ,1.22900 ,1.25694 ,12.33308 
254 ,48.7079 ,1.23110 ,1.24667 ,12.23235 
255 ,48.9001 ,1.23303 ,1.22614 ,12.03088 
256 ,49.0922 ,1.23503 ,1.22614 ,12.03088 
257 ,49.2844 ,1.23684 ,1.20218 ,11.79583 
258 ,49.4765 ,1.23875 ,1.17138 ,11.49362 
259 ,49.6685 ,1.24072 ,1.18850 ,11.66151 
260 ,49.8608 ,1.24261 ,1.15770 ,11.35931 
261 ,50.0528 ,1.24452 ,1.13032 ,11.09068 
262 ,50.2447 ,1.24650 ,1.14401 ,11.22500 
263 ,50.4368 ,1.24843 ,1.12347 ,11.02353 
264 ,50.6289 ,1.25028 ,1.12347 ,11.02353 
265 ,50.8210 ,1.25222 ,1.09267 ,10.72132 
266 ,51.0130 ,1.25415 ,1.07214 ,10.51985 
267 ,51.2209 ,1.25618 ,1.07214 ,10.51985 
268 ,51.4132 ,1.25809 ,1.06187 ,10.41912 
269 ,51.6053 ,1.26003 ,1.05161 ,10.31838 
270 ,51.7813 ,1.26189 ,1.01054 ,9.91544 
271 ,51.9574 ,1.26361 ,1.01396 ,9.94902 
272 ,52.1174 ,1.26530 ,0.97974 ,9.61324 
273 ,52.3094 ,1.26720 ,1.00028 ,9.81471 
274 ,52.4856 ,1.26883 ,0.99001 ,9.71397 
275 ,52.6616 ,1.27070 ,0.95921 ,9.41177 
276 ,52.8378 ,1.27242 ,0.95921 ,9.41177 
277 ,53.0136 ,1.27415 ,0.93183 ,9.14314 
278 ,53.2057 ,1.27608 ,0.94210 ,9.24388 
279 ,53.3979 ,1.27797 ,0.91472 ,8.97525 
280 ,53.5740 ,1.27975 ,0.89761 ,8.80736 
281 ,53.7501 ,1.28154 ,0.89761 ,8.80736 
282 ,53.9582 ,1.28354 ,0.88734 ,8.70662 
283 ,54.1503 ,1.28546 ,0.88734 ,8.70662 
284 ,54.3264 ,1.28730 ,0.88734 ,8.70662 
285 ,54.5024 ,1.28911 ,0.85312 ,8.37084 
286 ,54.6944 ,1.29086 ,0.83943 ,8.23653 
287 ,54.8864 ,1.29279 ,0.83601 ,8.20295 
288 ,55.0787 ,1.29472 ,0.79152 ,7.76643 
289 ,55.2708 ,1.29669 ,0.79837 ,7.83359 
290 ,55.4786 ,1.29868 ,0.80179 ,7.86717 
291 ,55.6710 ,1.30074 ,0.76415 ,7.49780 
292 ,55.8790 ,1.30275 ,0.75730 ,7.43065 
293 ,56.0711 ,1.30464 ,0.75388 ,7.39707 
294 ,56.2631 ,1.30657 ,0.72992 ,7.16202 
295 ,56.4551 ,1.30858 ,0.72308 ,7.09486 
296 ,56.6310 ,1.31036 ,0.70939 ,6.96055 
297 ,56.8074 ,1.31211 ,0.70255 ,6.89340 
298 ,56.9994 ,1.31397 ,0.69228 ,6.79266 
299 ,57.1911 ,1.31585 ,0.68544 ,6.72550 
300 ,57.3676 ,1.31769 ,0.68201 ,6.69193 
301 ,57.5434 ,1.31942 ,0.66490 ,6.52403 
302 ,57.7353 ,1.32126 ,0.64437 ,6.32256 
303 ,57.9279 ,1.32323 ,0.64095 ,6.28899 
304 ,58.1197 ,1.32514 ,0.61015 ,5.98678 
305 ,58.3600 ,1.32748 ,0.61699 ,6.05394 
306 ,58.5520 ,1.32948 ,0.60673 ,5.95320 
307 ,58.7277 ,1.33126 ,0.60673 ,5.95320 
308 ,58.9202 ,1.33320 ,0.57251 ,5.61742 
309 ,59.1121 ,1.33511 ,0.55882 ,5.48311 
310 ,59.2719 ,1.33684 ,0.55197 ,5.41595 
311 ,59.4643 ,1.33856 ,0.55197 ,5.41595 
312 ,59.6726 ,1.34065 ,0.53828 ,5.28164 
313 ,59.8482 ,1.34255 ,0.51775 ,5.08017 
314 ,60.0246 ,1.34426 ,0.52459 ,5.14732 
315 ,60.2327 ,1.34627 ,0.49722 ,4.87870 
316 ,60.4087 ,1.34811 ,0.49037 ,4.81154 
317 ,60.6009 ,1.34996 ,0.46984 ,4.61007 
318 ,60.7768 ,1.35174 ,0.44588 ,4.37502 
319 ,60.9527 ,1.35357 ,0.44931 ,4.40860 
320 ,61.1291 ,1.35526 ,0.44246 ,4.34144 
321 ,61.3212 ,1.35714 ,0.42193 ,4.13997 
322 ,61.5131 ,1.35921 ,0.42193 ,4.13997 
323 ,61.6893 ,1.36089 ,0.40824 ,4.00566 
324 ,61.8652 ,1.36270 ,0.40482 ,3.97208 
325 ,62.0574 ,1.36451 ,0.36033 ,3.53557 
326 ,62.2334 ,1.36637 ,0.38429 ,3.77061 
327 ,62.4256 ,1.36815 ,0.36375 ,3.56914 
328 ,62.6017 ,1.37002 ,0.35006 ,3.43483 
329 ,62.8099 ,1.37206 ,0.35349 ,3.46841 
330 ,63.0014 ,1.37399 ,0.31926 ,3.13263 
331 ,63.1936 ,1.37587 ,0.31242 ,3.06547 
332 ,63.3859 ,1.37775 ,0.31926 ,3.13263 
333 ,63.5782 ,1.37969 ,0.28504 ,2.79684 
334 ,63.7702 ,1.38170 ,0.29873 ,2.93116 
335 ,63.9624 ,1.38360 ,0.28504 ,2.79684 
336 ,64.1543 ,1.38549 ,0.26451 ,2.59537 
337 ,64.3142 ,1.38724 ,0.27135 ,2.66253 
338 ,64.5063 ,1.38899 ,0.26109 ,2.56179 
339 ,64.7142 ,1.39106 ,0.23029 ,2.25959 
340 ,64.9065 ,1.39297 ,0.23371 ,2.29317 
341 ,65.0985 ,1.39488 ,0.20291 ,1.99096 
342 ,65.2907 ,1.39694 ,0.20976 ,2.05812 
343 ,65.4829 ,1.39873 ,0.18580 ,1.82307 
344 ,65.6906 ,1.40077 ,0.19264 ,1.89023 
345 ,65.8829 ,1.40272 ,0.17211 ,1.68876 
346 ,66.0592 ,1.40460 ,0.16527 ,1.62160 
347 ,66.2507 ,1.40642 ,0.15500 ,1.52087 
348 ,66.4432 ,1.40833 ,0.14816 ,1.45371 
349 ,66.6353 ,1.41026 ,0.13105 ,1.28582 
350 ,66.8432 ,1.41234 ,0.12078 ,1.18508 
351 ,67.0355 ,1.41425 ,0.10025 ,0.98361 
352 ,67.2435 ,1.41635 ,0.07971 ,0.78214 
353 ,67.4356 ,1.41827 ,0.07629 ,0.74857 
354 ,67.6437 ,1.42037 ,0.07629 ,0.74857 
355 ,67.8359 ,1.42225 ,0.06260 ,0.61425 
356 ,68.0439 ,1.42432 ,0.04549 ,0.44636 
357 ,68.2201 ,1.42619 ,0.03180 ,0.31205 
358 ,68.4117 ,1.42801 ,0.03522 ,0.34563 
359 ,68.6040 ,1.42996 ,0.02838 ,0.27847 
360 ,68.7963 ,1.43186 ,0.00100 ,0.00984 
361 ,68.9885 ,1.43383 ,0.00443 ,0.04342 
362 ,69.2124 ,1.43609 ,-0.00584 ,-0.05731 
363 ,69.3886 ,1.43785 ,-0.01269 ,-0.12447 
364 ,69.5806 ,1.43967 ,-0.04348 ,-0.42667 
365 ,69.7568 ,1.44157 ,-0.04006 ,-0.39310 
366 ,69.9487 ,1.44342 ,-0.04006 ,-0.39310 
367 ,70.1409 ,1.44534 ,-0.06402 ,-0.62814 
368 ,70.3329 ,1.44722 ,-0.06744 ,-0.66172 
369 ,70.5409 ,1.44931 ,-0.08797 ,-0.86319 
370 ,70.7331 ,1.45119 ,-0.09824 ,-0.96393 
371 ,70.9251 ,1.45313 ,-0.09140 ,-0.89677 
372 ,71.1172 ,1.45515 ,-0.12904 ,-1.26613 
373 ,71.3090 ,1.45700 ,-0.11535 ,-1.13182 
374 ,71.4854 ,1.45877 ,-0.11193 ,-1.09824 
375 ,71.6610 ,1.46065 ,-0.14957 ,-1.46760 
376 ,71.8536 ,1.46241 ,-0.15984 ,-1.56834 
377 ,72.0617 ,1.46452 ,-0.15642 ,-1.53476 
378 ,72.2536 ,1.46643 ,-0.17695 ,-1.73623 
379 ,72.4295 ,1.46831 ,-0.16668 ,-1.63549 
380 ,72.6058 ,1.47006 ,-0.17011 ,-1.66907 
381 ,72.7978 ,1.47187 ,-0.20775 ,-2.03843 
382 ,72.9740 ,1.47371 ,-0.22144 ,-2.17275 
383 ,73.1656 ,1.47564 ,-0.20433 ,-2.00485 
384 ,73.3422 ,1.47736 ,-0.24197 ,-2.37422 
385 ,73.5500 ,1.47940 ,-0.22486 ,-2.20632 
386 ,73.7423 ,1.48137 ,-0.23855 ,-2.34064 
387 ,73.9182 ,1.48319 ,-0.26250 ,-2.57569 
388 ,74.1104 ,1.48506 ,-0.26593 ,-2.60926 
389 ,74.3023 ,1.48693 ,-0.26593 ,-2.60926 
390 ,74.5266 ,1.48913 ,-0.26593 ,-2.60926 
391 ,74.7186 ,1.49112 ,-0.27961 ,-2.74358 
392 ,74.8943 ,1.49300 ,-0.30699 ,-3.01220 
393 ,75.0866 ,1.49474 ,-0.28988 ,-2.84431 
394 ,75.2787 ,1.49669 ,-0.32068 ,-3.14652 
395 ,75.4707 ,1.49857 ,-0.31041 ,-3.04578 
396 ,75.6632 ,1.50051 ,-0.33437 ,-3.28083 
397 ,75.8386 ,1.50239 ,-0.34806 ,-3.41514 
398 ,76.0307 ,1.50420 ,-0.36517 ,-3.58303 
399 ,76.2387 ,1.50622 ,-0.36517 ,-3.58303 
400 ,76.4309 ,1.50819 ,-0.37886 ,-3.71735 
401 ,76.6229 ,1.51010 ,-0.37886 ,-3.71735 
402 ,76.8155 ,1.51207 ,-0.39939 ,-3.91882 
403 ,77.0234 ,1.51409 ,-0.39255 ,-3.85166 
404 ,77.2156 ,1.51602 ,-0.41992 ,-4.12029 
405 ,77.4235 ,1.51812 ,-0.40281 ,-3.95240 
406 ,77.5998 ,1.51992 ,-0.43019 ,-4.22102 
407 ,77.8079 ,1.52185 ,-0.43703 ,-4.28818 
408 ,77.9839 ,1.52377 ,-0.43361 ,-4.25460 
409 ,78.1596 ,1.52559 ,-0.47126 ,-4.62396 
410 ,78.3521 ,1.52737 ,-0.45757 ,-4.48965 
411 ,78.5441 ,1.52930 ,-0.46783 ,-4.59038 
412 ,78.7523 ,1.53138 ,-0.48837 ,-4.79185 
413 ,78.9603 ,1.53338 ,-0.47810 ,-4.69112 
414 ,79.1525 ,1.53537 ,-0.50206 ,-4.92617 
415 ,79.3606 ,1.53744 ,-0.50206 ,-4.92617 
416 ,79.5685 ,1.53956 ,-0.51574 ,-5.06048 
417 ,79.7609 ,1.54150 ,-0.53970 ,-5.29553 
418 ,79.9527 ,1.54341 ,-0.54997 ,-5.39626 
419 ,80.1448 ,1.54530 ,-0.54654 ,-5.36268 
420 ,80.3365 ,1.54722 ,-0.56023 ,-5.49700 
421 ,80.5127 ,1.54906 ,-0.57734 ,-5.66489 
422 ,80.6891 ,1.55080 ,-0.56708 ,-5.56415 
423 ,80.8807 ,1.55263 ,-0.59103 ,-5.79920 
424 ,81.0728 ,1.55456 ,-0.60130 ,-5.89994 
425 ,81.2652 ,1.55649 ,-0.58419 ,-5.73205 
426 ,81.4573 ,1.55843 ,-0.61841 ,-6.06783 
427 ,81.6492 ,1.56031 ,-0.60814 ,-5.96709 
428 ,81.8416 ,1.56228 ,-0.61841 ,-6.06783 
429 ,82.0496 ,1.56435 ,-0.63552 ,-6.23572 
430 ,82.2416 ,1.56630 ,-0.63552 ,-6.23572 
431 ,82.4334 ,1.56816 ,-0.67316 ,-6.60508 
432 ,82.6418 ,1.57018 ,-0.65947 ,-6.47077 
433 ,82.8500 ,1.57235 ,-0.66290 ,-6.50435 
434 ,83.0421 ,1.57428 ,-0.68001 ,-6.67224 
435 ,83.2341 ,1.57617 ,-0.70054 ,-6.87371 
436 ,83.4102 ,1.57805 ,-0.69712 ,-6.84013 
437 ,83.6023 ,1.57982 ,-0.69712 ,-6.84013 
438 ,83.7781 ,1.58170 ,-0.71423 ,-7.00802 
439 ,83.9700 ,1.58358 ,-0.72450 ,-7.10876 
440 ,84.1465 ,1.58538 ,-0.74161 ,-7.27665 
441 ,84.3225 ,1.58716 ,-0.72792 ,-7.14233 
442 ,84.5146 ,1.58904 ,-0.75872 ,-7.44454 
443 ,84.7063 ,1.59092 ,-0.76556 ,-7.51170 
444 ,84.8822 ,1.59277 ,-0.75530 ,-7.41096 
445 ,85.0744 ,1.59455 ,-0.77583 ,-7.61243 
446 ,85.2987 ,1.59664 ,-0.77583 ,-7.61243 
447 ,85.5068 ,1.59897 ,-0.79294 ,-7.78032 
448 ,85.7147 ,1.60096 ,-0.80321 ,-7.88106 
449 ,85.9070 ,1.60289 ,-0.79978 ,-7.84748 
450 ,86.1152 ,1.60499 ,-0.83058 ,-8.14968 
451 ,86.3073 ,1.60690 ,-0.83401 ,-8.18326 
452 ,86.4991 ,1.60891 ,-0.83401 ,-8.18326 
453 ,86.6916 ,1.61082 ,-0.85796 ,-8.41831 
454 ,86.8676 ,1.61263 ,-0.84085 ,-8.25042 
455 ,87.0592 ,1.61443 ,-0.85796 ,-8.41831 
456 ,87.2357 ,1.61627 ,-0.87165 ,-8.55262 
457 ,87.4437 ,1.61828 ,-0.87165 ,-8.55262 
458 ,87.6359 ,1.62028 ,-0.88192 ,-8.65336 
459 ,87.8436 ,1.62222 ,-0.89560 ,-8.78767 
460 ,88.0200 ,1.62414 ,-0.90587 ,-8.88841 
461 ,88.2119 ,1.62595 ,-0.92640 ,-9.08988 
462 ,88.4203 ,1.62809 ,-0.91272 ,-8.95556 
463 ,88.6122 ,1.63000 ,-0.92640 ,-9.08988 
