Data stamp = , 26-04-2022 08:06:51 449

Calibration Values: 
Slope = , 26.54 , g/V 
Offset Voltage at no contact = , -0.501760 , V 

No , Time , Stage Position ,   Mass , Force 
   ,  (s) ,      (mm)      ,   (g)  , (mN)  

1 ,0.0000 ,0.74942 ,5.21296 ,51.14960 
2 ,0.2998 ,0.74964 ,5.19243 ,50.94813 
3 ,0.7805 ,0.75144 ,5.20270 ,51.04886 
4 ,0.9885 ,0.75408 ,5.19585 ,50.98170 
5 ,1.1809 ,0.75599 ,5.20954 ,51.11602 
6 ,1.3889 ,0.75794 ,5.21296 ,51.14960 
7 ,1.5808 ,0.75991 ,5.21981 ,51.21675 
8 ,1.7565 ,0.76172 ,5.20270 ,51.04886 
9 ,1.9490 ,0.76356 ,5.17532 ,50.78023 
10 ,2.1411 ,0.76555 ,5.17874 ,50.81381 
11 ,2.3491 ,0.76753 ,5.15821 ,50.61234 
12 ,2.5571 ,0.76962 ,5.14110 ,50.44445 
13 ,2.7493 ,0.77157 ,5.11030 ,50.14225 
14 ,2.9253 ,0.77339 ,5.10003 ,50.04151 
15 ,3.1013 ,0.77522 ,5.07608 ,49.80646 
16 ,3.2934 ,0.77710 ,5.07608 ,49.80646 
17 ,3.4694 ,0.77890 ,5.03843 ,49.43710 
18 ,3.6456 ,0.78065 ,5.01790 ,49.23563 
19 ,3.8538 ,0.78265 ,5.00421 ,49.10132 
20 ,4.0456 ,0.78459 ,4.99052 ,48.96701 
21 ,4.2539 ,0.78664 ,4.96999 ,48.76554 
22 ,4.4457 ,0.78852 ,4.95630 ,48.63122 
23 ,4.6380 ,0.79051 ,4.94946 ,48.56407 
24 ,4.8139 ,0.79233 ,4.92892 ,48.36260 
25 ,5.0058 ,0.79413 ,4.89812 ,48.06039 
26 ,5.1981 ,0.79607 ,4.89812 ,48.06039 
27 ,5.4063 ,0.79819 ,4.85706 ,47.65745 
28 ,5.5984 ,0.80007 ,4.85021 ,47.59030 
29 ,5.7905 ,0.80206 ,4.81599 ,47.25451 
30 ,5.9821 ,0.80399 ,4.80915 ,47.18736 
31 ,6.1585 ,0.80572 ,4.80230 ,47.12020 
32 ,6.3347 ,0.80754 ,4.77835 ,46.88515 
33 ,6.5428 ,0.80954 ,4.76466 ,46.75084 
34 ,6.7504 ,0.81157 ,4.73728 ,46.48221 
35 ,6.9429 ,0.81355 ,4.71675 ,46.28074 
36 ,7.1029 ,0.81534 ,4.70306 ,46.14643 
37 ,7.2790 ,0.81705 ,4.68253 ,45.94496 
38 ,7.4711 ,0.81887 ,4.66542 ,45.77707 
39 ,7.6471 ,0.82065 ,4.63119 ,45.44128 
40 ,7.8233 ,0.82244 ,4.62777 ,45.40771 
41 ,8.0153 ,0.82431 ,4.62435 ,45.37413 
42 ,8.1915 ,0.82608 ,4.60382 ,45.17266 
43 ,8.3832 ,0.82791 ,4.57986 ,44.93761 
44 ,8.5753 ,0.82990 ,4.57986 ,44.93761 
45 ,8.7512 ,0.83168 ,4.54564 ,44.60183 
46 ,8.9114 ,0.83337 ,4.52853 ,44.43394 
47 ,9.1038 ,0.83512 ,4.53195 ,44.46751 
48 ,9.2958 ,0.83702 ,4.50457 ,44.19889 
49 ,9.4880 ,0.83897 ,4.47720 ,43.93026 
50 ,9.6642 ,0.84081 ,4.46009 ,43.76237 
51 ,9.8722 ,0.84282 ,4.44640 ,43.62806 
52 ,10.0642 ,0.84471 ,4.44640 ,43.62806 
53 ,10.2403 ,0.84653 ,4.42244 ,43.39301 
54 ,10.4321 ,0.84841 ,4.39164 ,43.09080 
55 ,10.6245 ,0.85031 ,4.38480 ,43.02365 
56 ,10.8326 ,0.85241 ,4.35742 ,42.75502 
57 ,11.0249 ,0.85436 ,4.35058 ,42.68786 
58 ,11.2487 ,0.85646 ,4.31636 ,42.35208 
59 ,11.4245 ,0.85841 ,4.31293 ,42.31850 
60 ,11.6009 ,0.86013 ,4.30267 ,42.21777 
61 ,11.7931 ,0.86204 ,4.27871 ,41.98272 
62 ,11.9851 ,0.86404 ,4.24791 ,41.68051 
63 ,12.1771 ,0.86586 ,4.24107 ,41.61336 
64 ,12.3530 ,0.86767 ,4.22396 ,41.44547 
65 ,12.5450 ,0.86952 ,4.20000 ,41.21042 
66 ,12.7373 ,0.87149 ,4.19316 ,41.14326 
67 ,12.9293 ,0.87343 ,4.17262 ,40.94179 
68 ,13.1216 ,0.87529 ,4.16578 ,40.87464 
69 ,13.3135 ,0.87723 ,4.14183 ,40.63959 
70 ,13.5217 ,0.87926 ,4.14525 ,40.67317 
71 ,13.6815 ,0.88106 ,4.10760 ,40.30380 
72 ,13.8740 ,0.88281 ,4.09049 ,40.13591 
73 ,14.0816 ,0.88491 ,4.07680 ,40.00160 
74 ,14.2580 ,0.88670 ,4.06654 ,39.90087 
75 ,14.4501 ,0.88869 ,4.03232 ,39.56508 
76 ,14.6261 ,0.89041 ,4.00494 ,39.29646 
77 ,14.8018 ,0.89214 ,4.01178 ,39.36361 
78 ,14.9944 ,0.89402 ,3.98441 ,39.09499 
79 ,15.1863 ,0.89593 ,3.97756 ,39.02783 
80 ,15.3784 ,0.89790 ,3.96387 ,38.89352 
81 ,15.5707 ,0.89978 ,3.92281 ,38.49058 
82 ,15.7627 ,0.90180 ,3.92281 ,38.49058 
83 ,15.9226 ,0.90347 ,3.91254 ,38.38984 
84 ,16.0986 ,0.90511 ,3.89543 ,38.22195 
85 ,16.3066 ,0.90718 ,3.86463 ,37.91975 
86 ,16.4988 ,0.90912 ,3.86463 ,37.91975 
87 ,16.6910 ,0.91099 ,3.81672 ,37.44965 
88 ,16.8827 ,0.91285 ,3.82699 ,37.55038 
89 ,17.0753 ,0.91482 ,3.80303 ,37.31534 
90 ,17.2513 ,0.91667 ,3.78934 ,37.18102 
91 ,17.4433 ,0.91845 ,3.77223 ,37.01313 
92 ,17.6195 ,0.92034 ,3.76881 ,36.97955 
93 ,17.8435 ,0.92239 ,3.73117 ,36.61019 
94 ,18.0192 ,0.92437 ,3.72090 ,36.50946 
95 ,18.2118 ,0.92617 ,3.68668 ,36.17367 
96 ,18.4039 ,0.92811 ,3.68325 ,36.14010 
97 ,18.5959 ,0.92999 ,3.66614 ,35.97220 
98 ,18.7880 ,0.93196 ,3.65246 ,35.83789 
99 ,18.9958 ,0.93402 ,3.62850 ,35.60284 
100 ,19.2039 ,0.93607 ,3.61823 ,35.50211 
101 ,19.3960 ,0.93802 ,3.59428 ,35.26706 
102 ,19.5723 ,0.93990 ,3.58743 ,35.19990 
103 ,19.7479 ,0.94158 ,3.55321 ,34.86412 
104 ,19.9405 ,0.94356 ,3.56348 ,34.96485 
105 ,20.1483 ,0.94559 ,3.53268 ,34.66265 
106 ,20.3564 ,0.94760 ,3.52241 ,34.56192 
107 ,20.5487 ,0.94958 ,3.49504 ,34.29329 
108 ,20.7408 ,0.95143 ,3.50188 ,34.36045 
109 ,20.9329 ,0.95342 ,3.46081 ,33.95751 
110 ,21.1090 ,0.95521 ,3.43344 ,33.68888 
111 ,21.3166 ,0.95722 ,3.42317 ,33.58814 
112 ,21.4931 ,0.95909 ,3.39237 ,33.28594 
113 ,21.6691 ,0.96082 ,3.38210 ,33.18520 
114 ,21.8453 ,0.96254 ,3.37184 ,33.08447 
115 ,22.0212 ,0.96432 ,3.37184 ,33.08447 
116 ,22.2134 ,0.96614 ,3.34788 ,32.84942 
117 ,22.4211 ,0.96824 ,3.34104 ,32.78227 
118 ,22.5976 ,0.97008 ,3.30682 ,32.44648 
119 ,22.7896 ,0.97206 ,3.30339 ,32.41290 
120 ,22.9652 ,0.97375 ,3.29655 ,32.34575 
121 ,23.1417 ,0.97554 ,3.26917 ,32.07712 
122 ,23.3336 ,0.97738 ,3.24180 ,31.80849 
123 ,23.5419 ,0.97949 ,3.25206 ,31.90923 
124 ,23.7657 ,0.98172 ,3.21784 ,31.57345 
125 ,23.9421 ,0.98352 ,3.20073 ,31.40555 
126 ,24.1340 ,0.98538 ,3.16651 ,31.06977 
127 ,24.3103 ,0.98719 ,3.15966 ,31.00262 
128 ,24.5019 ,0.98920 ,3.13913 ,30.80115 
129 ,24.6943 ,0.99105 ,3.11860 ,30.59968 
130 ,24.9024 ,0.99306 ,3.11860 ,30.59968 
131 ,25.0945 ,0.99497 ,3.08780 ,30.29747 
132 ,25.3026 ,0.99704 ,3.08095 ,30.23031 
133 ,25.4947 ,0.99902 ,3.05015 ,29.92811 
134 ,25.6862 ,1.00087 ,3.04673 ,29.89453 
135 ,25.8629 ,1.00270 ,3.03989 ,29.82737 
136 ,26.0545 ,1.00461 ,3.00224 ,29.45801 
137 ,26.2310 ,1.00640 ,2.98513 ,29.29012 
138 ,26.4229 ,1.00825 ,2.98855 ,29.32370 
139 ,26.5992 ,1.01007 ,2.96802 ,29.12223 
140 ,26.7911 ,1.01197 ,2.93722 ,28.82003 
141 ,26.9834 ,1.01380 ,2.93722 ,28.82003 
142 ,27.1911 ,1.01597 ,2.90642 ,28.51782 
143 ,27.3831 ,1.01784 ,2.92011 ,28.65213 
144 ,27.5751 ,1.01982 ,2.86878 ,28.14846 
145 ,27.7836 ,1.02179 ,2.86536 ,28.11488 
146 ,27.9756 ,1.02385 ,2.83456 ,27.81268 
147 ,28.1677 ,1.02577 ,2.82429 ,27.71194 
148 ,28.3597 ,1.02759 ,2.81060 ,27.57763 
149 ,28.5521 ,1.02960 ,2.76611 ,27.14111 
150 ,28.7599 ,1.03151 ,2.77980 ,27.27542 
151 ,28.9522 ,1.03360 ,2.75585 ,27.04038 
152 ,29.1281 ,1.03539 ,2.73531 ,26.83891 
153 ,29.3362 ,1.03731 ,2.72847 ,26.77175 
154 ,29.5123 ,1.03922 ,2.70452 ,26.53670 
155 ,29.7044 ,1.04107 ,2.69767 ,26.46954 
156 ,29.8808 ,1.04288 ,2.68056 ,26.30165 
157 ,30.0729 ,1.04478 ,2.64976 ,25.99945 
158 ,30.2807 ,1.04679 ,2.63607 ,25.86514 
159 ,30.5047 ,1.04886 ,2.62581 ,25.76440 
160 ,30.6968 ,1.05096 ,2.58816 ,25.39504 
161 ,30.9048 ,1.05305 ,2.60185 ,25.52935 
162 ,31.0807 ,1.05496 ,2.56421 ,25.15999 
163 ,31.2733 ,1.05673 ,2.55052 ,25.02568 
164 ,31.4815 ,1.05884 ,2.52998 ,24.82421 
165 ,31.6734 ,1.06072 ,2.50945 ,24.62274 
166 ,31.8654 ,1.06266 ,2.51287 ,24.65632 
167 ,32.0414 ,1.06447 ,2.51287 ,24.65632 
168 ,32.2174 ,1.06625 ,2.48892 ,24.42127 
169 ,32.3937 ,1.06802 ,2.46496 ,24.18622 
170 ,32.6015 ,1.07002 ,2.43759 ,23.91759 
171 ,32.8096 ,1.07212 ,2.43074 ,23.85044 
172 ,33.0018 ,1.07410 ,2.42048 ,23.74970 
173 ,33.1936 ,1.07594 ,2.38968 ,23.44750 
174 ,33.3860 ,1.07785 ,2.39652 ,23.51465 
175 ,33.5940 ,1.07996 ,2.35888 ,23.14529 
176 ,33.8020 ,1.08202 ,2.34861 ,23.04456 
177 ,33.9943 ,1.08398 ,2.31439 ,22.70877 
178 ,34.1862 ,1.08585 ,2.32465 ,22.80951 
179 ,34.3624 ,1.08766 ,2.30070 ,22.57446 
180 ,34.5382 ,1.08948 ,2.29043 ,22.47373 
181 ,34.7306 ,1.09127 ,2.27674 ,22.33941 
182 ,34.9384 ,1.09334 ,2.22883 ,21.86932 
183 ,35.1307 ,1.09531 ,2.23568 ,21.93647 
184 ,35.3389 ,1.09728 ,2.21857 ,21.76858 
185 ,35.5305 ,1.09935 ,2.19119 ,21.49996 
186 ,35.7069 ,1.10114 ,2.19119 ,21.49996 
187 ,35.9151 ,1.10321 ,2.15012 ,21.09702 
188 ,36.1074 ,1.10512 ,2.15355 ,21.13059 
189 ,36.2991 ,1.10696 ,2.12617 ,20.86197 
190 ,36.4749 ,1.10878 ,2.09879 ,20.59334 
191 ,36.6675 ,1.11072 ,2.11590 ,20.76123 
192 ,36.8754 ,1.11271 ,2.08510 ,20.45903 
193 ,37.0676 ,1.11467 ,2.07484 ,20.35829 
194 ,37.2756 ,1.11674 ,2.05430 ,20.15682 
195 ,37.4518 ,1.11857 ,2.02350 ,19.85462 
196 ,37.6438 ,1.12044 ,2.01666 ,19.78746 
197 ,37.8519 ,1.12248 ,2.01324 ,19.75388 
198 ,38.0279 ,1.12433 ,1.99613 ,19.58599 
199 ,38.2357 ,1.12630 ,1.97559 ,19.38452 
200 ,38.4120 ,1.12816 ,1.95164 ,19.14948 
201 ,38.6038 ,1.13003 ,1.95506 ,19.18305 
202 ,38.7961 ,1.13194 ,1.92084 ,18.84727 
203 ,39.0043 ,1.13404 ,1.91399 ,18.78011 
204 ,39.1963 ,1.13593 ,1.88319 ,18.47791 
205 ,39.3885 ,1.13781 ,1.87293 ,18.37717 
206 ,39.5807 ,1.13977 ,1.87635 ,18.41075 
207 ,39.7727 ,1.14179 ,1.84897 ,18.14213 
208 ,39.9483 ,1.14348 ,1.83871 ,18.04139 
209 ,40.1248 ,1.14527 ,1.83186 ,17.97423 
210 ,40.3167 ,1.14721 ,1.79764 ,17.63845 
211 ,40.5089 ,1.14908 ,1.80449 ,17.70561 
212 ,40.6851 ,1.15087 ,1.78395 ,17.50414 
213 ,40.8931 ,1.15291 ,1.77711 ,17.43698 
214 ,41.0852 ,1.15482 ,1.73946 ,17.06762 
215 ,41.2772 ,1.15672 ,1.72578 ,16.93331 
216 ,41.4852 ,1.15882 ,1.72235 ,16.89973 
217 ,41.6776 ,1.16081 ,1.70182 ,16.69826 
218 ,41.8851 ,1.16282 ,1.67786 ,16.46321 
219 ,42.0779 ,1.16478 ,1.66418 ,16.32890 
220 ,42.2856 ,1.16682 ,1.65733 ,16.26174 
221 ,42.4776 ,1.16874 ,1.64364 ,16.12743 
222 ,42.6859 ,1.17088 ,1.63338 ,16.02669 
223 ,42.8940 ,1.17290 ,1.60942 ,15.79164 
224 ,43.0860 ,1.17483 ,1.60600 ,15.75807 
225 ,43.2939 ,1.17685 ,1.58889 ,15.59018 
226 ,43.4860 ,1.17881 ,1.56836 ,15.38871 
227 ,43.6944 ,1.18090 ,1.56493 ,15.35513 
228 ,43.8860 ,1.18284 ,1.55124 ,15.22081 
229 ,44.0944 ,1.18488 ,1.53756 ,15.08650 
230 ,44.2702 ,1.18674 ,1.53071 ,15.01934 
231 ,44.4463 ,1.18848 ,1.51702 ,14.88503 
232 ,44.6547 ,1.19050 ,1.48622 ,14.58283 
233 ,44.8628 ,1.19257 ,1.46569 ,14.38136 
234 ,45.0548 ,1.19451 ,1.45542 ,14.28062 
235 ,45.2629 ,1.19657 ,1.43147 ,14.04557 
236 ,45.4709 ,1.19869 ,1.43831 ,14.11273 
237 ,45.6786 ,1.20079 ,1.41094 ,13.84410 
238 ,45.8552 ,1.20257 ,1.39725 ,13.70979 
239 ,46.0631 ,1.20460 ,1.38014 ,13.54190 
240 ,46.2549 ,1.20649 ,1.36303 ,13.37401 
241 ,46.4474 ,1.20843 ,1.37329 ,13.47474 
242 ,46.6395 ,1.21041 ,1.34591 ,13.20612 
243 ,46.8474 ,1.21241 ,1.33223 ,13.07180 
244 ,47.0397 ,1.21433 ,1.31169 ,12.87033 
245 ,47.2317 ,1.21627 ,1.31854 ,12.93749 
246 ,47.4238 ,1.21820 ,1.29800 ,12.73602 
247 ,47.6158 ,1.22009 ,1.27747 ,12.53455 
248 ,47.8080 ,1.22199 ,1.27063 ,12.46739 
249 ,48.0001 ,1.22397 ,1.24325 ,12.19877 
250 ,48.1922 ,1.22591 ,1.25694 ,12.33308 
251 ,48.3838 ,1.22787 ,1.21929 ,11.96372 
252 ,48.5761 ,1.22968 ,1.21929 ,11.96372 
253 ,48.7683 ,1.23163 ,1.20903 ,11.86298 
254 ,48.9444 ,1.23343 ,1.17823 ,11.56078 
255 ,49.1363 ,1.23534 ,1.17823 ,11.56078 
256 ,49.3126 ,1.23713 ,1.16796 ,11.46004 
257 ,49.5046 ,1.23900 ,1.15085 ,11.29215 
258 ,49.6810 ,1.24082 ,1.13374 ,11.12426 
259 ,49.8729 ,1.24268 ,1.13716 ,11.15784 
260 ,50.0650 ,1.24461 ,1.10979 ,10.88921 
261 ,50.2730 ,1.24668 ,1.11321 ,10.92279 
262 ,50.4491 ,1.24851 ,1.09952 ,10.78848 
263 ,50.6412 ,1.25038 ,1.05845 ,10.38554 
264 ,50.8492 ,1.25238 ,1.05503 ,10.35196 
265 ,51.0252 ,1.25423 ,1.04819 ,10.28480 
266 ,51.2173 ,1.25615 ,1.03792 ,10.18407 
267 ,51.3934 ,1.25800 ,1.02423 ,10.04976 
268 ,51.5692 ,1.25968 ,1.01054 ,9.91544 
269 ,51.7776 ,1.26162 ,0.98659 ,9.68039 
270 ,51.9853 ,1.26374 ,0.98317 ,9.64682 
271 ,52.1776 ,1.26568 ,0.97290 ,9.54608 
272 ,52.3538 ,1.26753 ,0.96605 ,9.47892 
273 ,52.5298 ,1.26933 ,0.96263 ,9.44535 
274 ,52.7055 ,1.27111 ,0.91814 ,9.00883 
275 ,52.8976 ,1.27290 ,0.92499 ,9.07598 
276 ,53.0900 ,1.27490 ,0.91130 ,8.94167 
277 ,53.2979 ,1.27692 ,0.90103 ,8.84094 
278 ,53.4903 ,1.27883 ,0.88050 ,8.63947 
279 ,53.6824 ,1.28077 ,0.86339 ,8.47158 
280 ,53.8745 ,1.28268 ,0.85654 ,8.40442 
281 ,54.0662 ,1.28457 ,0.85312 ,8.37084 
282 ,54.2583 ,1.28650 ,0.82917 ,8.13579 
283 ,54.4507 ,1.28845 ,0.83601 ,8.20295 
284 ,54.6428 ,1.29039 ,0.81206 ,7.96790 
285 ,54.8504 ,1.29241 ,0.80179 ,7.86717 
286 ,55.0430 ,1.29434 ,0.76415 ,7.49780 
287 ,55.2510 ,1.29644 ,0.77099 ,7.56496 
288 ,55.4427 ,1.29845 ,0.75046 ,7.36349 
289 ,55.6191 ,1.30020 ,0.74361 ,7.29633 
290 ,55.8112 ,1.30206 ,0.74019 ,7.26276 
291 ,55.9867 ,1.30383 ,0.72992 ,7.16202 
292 ,56.1632 ,1.30561 ,0.71281 ,6.99413 
293 ,56.3554 ,1.30746 ,0.71624 ,7.02771 
294 ,56.5635 ,1.30951 ,0.68544 ,6.72550 
295 ,56.7717 ,1.31158 ,0.70255 ,6.89340 
296 ,56.9636 ,1.31353 ,0.66148 ,6.49046 
297 ,57.1717 ,1.31568 ,0.65806 ,6.45688 
298 ,57.3799 ,1.31766 ,0.63410 ,6.22183 
299 ,57.5720 ,1.31961 ,0.63753 ,6.25541 
300 ,57.7800 ,1.32170 ,0.62042 ,6.08752 
301 ,57.9560 ,1.32355 ,0.62042 ,6.08752 
302 ,58.1477 ,1.32543 ,0.60330 ,5.91962 
303 ,58.3244 ,1.32719 ,0.57935 ,5.68458 
304 ,58.5163 ,1.32910 ,0.58277 ,5.71815 
305 ,58.7084 ,1.33103 ,0.55882 ,5.48311 
306 ,58.8847 ,1.33285 ,0.53828 ,5.28164 
307 ,59.0765 ,1.33473 ,0.55197 ,5.41595 
308 ,59.2522 ,1.33645 ,0.54171 ,5.31522 
309 ,59.4287 ,1.33821 ,0.52117 ,5.11375 
310 ,59.6205 ,1.34008 ,0.50406 ,4.94585 
311 ,59.8288 ,1.34215 ,0.49722 ,4.87870 
312 ,60.0208 ,1.34407 ,0.46984 ,4.61007 
313 ,60.2289 ,1.34617 ,0.45615 ,4.47576 
314 ,60.4212 ,1.34814 ,0.44588 ,4.37502 
315 ,60.6292 ,1.35018 ,0.45273 ,4.44218 
316 ,60.8373 ,1.35235 ,0.43562 ,4.27429 
317 ,61.0292 ,1.35419 ,0.42877 ,4.20713 
318 ,61.2213 ,1.35614 ,0.40482 ,3.97208 
319 ,61.4293 ,1.35818 ,0.40140 ,3.93850 
320 ,61.6057 ,1.36000 ,0.37744 ,3.70346 
321 ,61.7978 ,1.36195 ,0.37744 ,3.70346 
322 ,62.0057 ,1.36394 ,0.35691 ,3.50199 
323 ,62.1818 ,1.36576 ,0.34322 ,3.36767 
324 ,62.3740 ,1.36762 ,0.33980 ,3.33410 
325 ,62.5500 ,1.36949 ,0.32611 ,3.19978 
326 ,62.7420 ,1.37124 ,0.31242 ,3.06547 
327 ,62.9341 ,1.37319 ,0.32953 ,3.23336 
328 ,63.1101 ,1.37503 ,0.31584 ,3.09905 
329 ,63.3022 ,1.37698 ,0.27820 ,2.72969 
330 ,63.4939 ,1.37888 ,0.28847 ,2.83042 
331 ,63.7024 ,1.38096 ,0.25767 ,2.52822 
332 ,63.9103 ,1.38296 ,0.25082 ,2.46106 
333 ,64.1026 ,1.38491 ,0.25082 ,2.46106 
334 ,64.2946 ,1.38695 ,0.23713 ,2.32675 
335 ,64.4868 ,1.38877 ,0.23371 ,2.29317 
336 ,64.6624 ,1.39055 ,0.20976 ,2.05812 
337 ,64.8549 ,1.39240 ,0.22002 ,2.15885 
338 ,65.0306 ,1.39423 ,0.21318 ,2.09170 
339 ,65.2071 ,1.39599 ,0.19607 ,1.92381 
340 ,65.3990 ,1.39784 ,0.17896 ,1.75592 
341 ,65.5911 ,1.39976 ,0.17211 ,1.68876 
342 ,65.7671 ,1.40157 ,0.15842 ,1.55445 
343 ,65.9434 ,1.40336 ,0.15158 ,1.48729 
344 ,66.1191 ,1.40508 ,0.13789 ,1.35298 
345 ,66.2955 ,1.40691 ,0.12420 ,1.21866 
346 ,66.4877 ,1.40873 ,0.11736 ,1.15151 
347 ,66.7118 ,1.41093 ,0.11393 ,1.11793 
348 ,66.9034 ,1.41303 ,0.10025 ,0.98361 
349 ,67.0957 ,1.41488 ,0.09340 ,0.91646 
350 ,67.2879 ,1.41672 ,0.07287 ,0.71499 
351 ,67.4801 ,1.41864 ,0.07287 ,0.71499 
352 ,67.6881 ,1.42065 ,0.06260 ,0.61425 
353 ,67.8638 ,1.42262 ,0.04891 ,0.47994 
354 ,68.0563 ,1.42444 ,0.04207 ,0.41278 
355 ,68.2484 ,1.42635 ,0.02496 ,0.24489 
356 ,68.4561 ,1.42840 ,0.03180 ,0.31205 
357 ,68.6321 ,1.43026 ,0.00785 ,0.07700 
358 ,68.8243 ,1.43205 ,-0.00926 ,-0.09089 
359 ,69.0162 ,1.43407 ,-0.01269 ,-0.12447 
360 ,69.2247 ,1.43600 ,-0.01953 ,-0.19163 
361 ,69.4010 ,1.43798 ,-0.04006 ,-0.39310 
362 ,69.5929 ,1.43989 ,-0.05717 ,-0.56099 
363 ,69.7853 ,1.44168 ,-0.08113 ,-0.79604 
364 ,69.9772 ,1.44362 ,-0.05717 ,-0.56099 
365 ,70.1532 ,1.44550 ,-0.08113 ,-0.79604 
366 ,70.3293 ,1.44724 ,-0.07428 ,-0.72888 
367 ,70.5213 ,1.44906 ,-0.10166 ,-0.99751 
368 ,70.7295 ,1.45113 ,-0.10508 ,-1.03108 
369 ,70.9375 ,1.45321 ,-0.10508 ,-1.03108 
370 ,71.1293 ,1.45515 ,-0.12219 ,-1.19898 
371 ,71.3218 ,1.45706 ,-0.14615 ,-1.43402 
372 ,71.5454 ,1.45920 ,-0.15984 ,-1.56834 
373 ,71.7218 ,1.46113 ,-0.14957 ,-1.46760 
374 ,71.8976 ,1.46285 ,-0.17011 ,-1.66907 
375 ,72.0901 ,1.46473 ,-0.18037 ,-1.76981 
376 ,72.2816 ,1.46668 ,-0.20433 ,-2.00485 
377 ,72.4581 ,1.46847 ,-0.19064 ,-1.87054 
378 ,72.8583 ,1.47247 ,-0.19406 ,-1.90412 
379 ,73.0664 ,1.47449 ,-0.21802 ,-2.13917 
380 ,73.2424 ,1.47631 ,-0.23855 ,-2.34064 
381 ,73.4025 ,1.47806 ,-0.25224 ,-2.47495 
382 ,73.5788 ,1.47970 ,-0.25566 ,-2.50853 
383 ,73.7546 ,1.48150 ,-0.26593 ,-2.60926 
384 ,73.9465 ,1.48328 ,-0.25908 ,-2.54211 
385 ,74.1389 ,1.48522 ,-0.26250 ,-2.57569 
386 ,74.3306 ,1.48716 ,-0.28304 ,-2.77716 
387 ,74.5070 ,1.48894 ,-0.29673 ,-2.91147 
388 ,74.6991 ,1.49086 ,-0.31726 ,-3.11294 
389 ,74.8911 ,1.49277 ,-0.31726 ,-3.11294 
390 ,75.0832 ,1.49468 ,-0.33437 ,-3.28083 
391 ,75.2593 ,1.49646 ,-0.34121 ,-3.34799 
392 ,75.4672 ,1.49844 ,-0.33779 ,-3.31441 
393 ,75.7071 ,1.50082 ,-0.34806 ,-3.41514 
394 ,75.8995 ,1.50280 ,-0.35490 ,-3.48230 
395 ,76.0916 ,1.50474 ,-0.37544 ,-3.68377 
396 ,76.2837 ,1.50669 ,-0.39939 ,-3.91882 
397 ,76.4599 ,1.50851 ,-0.38912 ,-3.81808 
398 ,76.6519 ,1.51033 ,-0.40623 ,-3.98597 
399 ,76.8279 ,1.51217 ,-0.40623 ,-3.98597 
400 ,77.0038 ,1.51392 ,-0.42335 ,-4.15387 
401 ,77.2122 ,1.51596 ,-0.42677 ,-4.18744 
402 ,77.4043 ,1.51788 ,-0.44730 ,-4.38891 
403 ,77.6124 ,1.51995 ,-0.46099 ,-4.52323 
404 ,77.8043 ,1.52185 ,-0.48152 ,-4.72470 
405 ,77.9806 ,1.52370 ,-0.46099 ,-4.52323 
406 ,78.1885 ,1.52570 ,-0.47810 ,-4.69112 
407 ,78.3802 ,1.52765 ,-0.46783 ,-4.59038 
408 ,78.5564 ,1.52946 ,-0.48494 ,-4.75828 
409 ,78.7483 ,1.53125 ,-0.48494 ,-4.75828 
410 ,78.9408 ,1.53326 ,-0.51232 ,-5.02690 
411 ,79.1490 ,1.53533 ,-0.53285 ,-5.22837 
412 ,79.3570 ,1.53739 ,-0.51917 ,-5.09406 
413 ,79.5491 ,1.53928 ,-0.54654 ,-5.36268 
414 ,79.7412 ,1.54119 ,-0.52943 ,-5.19479 
415 ,79.9332 ,1.54329 ,-0.56708 ,-5.56415 
416 ,80.1253 ,1.54505 ,-0.57392 ,-5.63131 
417 ,80.3174 ,1.54696 ,-0.57392 ,-5.63131 
418 ,80.5254 ,1.54906 ,-0.59445 ,-5.83278 
419 ,80.7173 ,1.55100 ,-0.59103 ,-5.79920 
420 ,80.9092 ,1.55287 ,-0.62183 ,-6.10141 
421 ,81.1018 ,1.55488 ,-0.62183 ,-6.10141 
422 ,81.2939 ,1.55674 ,-0.63210 ,-6.20214 
423 ,81.4857 ,1.55865 ,-0.64579 ,-6.33646 
424 ,81.6779 ,1.56059 ,-0.64579 ,-6.33646 
425 ,81.8701 ,1.56244 ,-0.65605 ,-6.43719 
426 ,82.0620 ,1.56441 ,-0.64921 ,-6.37003 
427 ,82.2539 ,1.56639 ,-0.66974 ,-6.57150 
428 ,82.4460 ,1.56823 ,-0.68685 ,-6.73940 
429 ,82.6382 ,1.57017 ,-0.68001 ,-6.67224 
430 ,82.8144 ,1.57199 ,-0.70054 ,-6.87371 
431 ,83.0063 ,1.57383 ,-0.70739 ,-6.94086 
432 ,83.2306 ,1.57603 ,-0.71765 ,-7.04160 
433 ,83.4385 ,1.57815 ,-0.71423 ,-7.00802 
434 ,83.6466 ,1.58014 ,-0.72792 ,-7.14233 
435 ,83.8227 ,1.58213 ,-0.74845 ,-7.34380 
436 ,83.9988 ,1.58381 ,-0.74503 ,-7.31023 
437 ,84.1904 ,1.58585 ,-0.76214 ,-7.47812 
438 ,84.3831 ,1.58763 ,-0.76898 ,-7.54527 
439 ,84.5751 ,1.58960 ,-0.77583 ,-7.61243 
440 ,84.7992 ,1.59167 ,-0.78610 ,-7.71317 
441 ,84.9912 ,1.59371 ,-0.81005 ,-7.94821 
442 ,85.1993 ,1.59575 ,-0.80321 ,-7.88106 
443 ,85.3912 ,1.59773 ,-0.83058 ,-8.14968 
444 ,85.5675 ,1.59951 ,-0.83401 ,-8.18326 
445 ,85.7596 ,1.60137 ,-0.83743 ,-8.21684 
446 ,85.9677 ,1.60346 ,-0.83743 ,-8.21684 
447 ,86.1598 ,1.60545 ,-0.84427 ,-8.28400 
448 ,86.3673 ,1.60745 ,-0.85454 ,-8.38473 
449 ,86.5599 ,1.60943 ,-0.86823 ,-8.51904 
450 ,86.7680 ,1.61143 ,-0.88192 ,-8.65336 
451 ,86.9600 ,1.61338 ,-0.88192 ,-8.65336 
452 ,87.1521 ,1.61531 ,-0.90245 ,-8.85483 
453 ,87.3602 ,1.61736 ,-0.89560 ,-8.78767 
454 ,87.5522 ,1.61932 ,-0.90929 ,-8.92198 
455 ,87.7278 ,1.62117 ,-0.92640 ,-9.08988 
456 ,87.9039 ,1.62294 ,-0.92298 ,-9.05630 
457 ,88.0959 ,1.62478 ,-0.93667 ,-9.19061 
458 ,88.2885 ,1.62669 ,-0.94009 ,-9.22419 
459 ,88.4964 ,1.62880 ,-0.94694 ,-9.29135 
460 ,88.7045 ,1.63083 ,-0.95378 ,-9.35850 
461 ,88.9129 ,1.63294 ,-0.97431 ,-9.55997 
462 ,89.1210 ,1.63490 ,-0.97774 ,-9.59355 
463 ,89.3130 ,1.63688 ,-0.99827 ,-9.79502 
