Data stamp = , 26-04-2022 02:14:14 200

Calibration Values: 
Slope = , 26.54 , g/V 
Offset Voltage at no contact = , -0.501760 , V 

No , Time , Stage Position ,   Mass , Force 
   ,  (s) ,      (mm)      ,   (g)  , (mN)  

1 ,0.0000 ,0.74942 ,5.27456 ,51.75401 
2 ,0.2120 ,0.74949 ,5.28483 ,51.85474 
3 ,0.7696 ,0.75159 ,5.27798 ,51.78758 
4 ,0.9774 ,0.75389 ,5.26430 ,51.65327 
5 ,1.1857 ,0.75593 ,5.27114 ,51.72043 
6 ,1.3616 ,0.75781 ,5.26772 ,51.68685 
7 ,1.5540 ,0.75965 ,5.28483 ,51.85474 
8 ,1.7458 ,0.76160 ,5.28141 ,51.82116 
9 ,1.9380 ,0.76356 ,5.27114 ,51.72043 
10 ,2.1300 ,0.76544 ,5.27798 ,51.78758 
11 ,2.3219 ,0.76746 ,5.24376 ,51.45180 
12 ,2.5141 ,0.76927 ,5.23692 ,51.38464 
13 ,2.7062 ,0.77113 ,5.21639 ,51.18317 
14 ,2.8980 ,0.77304 ,5.19243 ,50.94813 
15 ,3.0907 ,0.77497 ,5.17874 ,50.81381 
16 ,3.2825 ,0.77689 ,5.15821 ,50.61234 
17 ,3.4747 ,0.77882 ,5.15821 ,50.61234 
18 ,3.6662 ,0.78077 ,5.12399 ,50.27656 
19 ,3.8429 ,0.78261 ,5.11030 ,50.14225 
20 ,4.0506 ,0.78459 ,5.11372 ,50.17583 
21 ,4.2431 ,0.78653 ,5.06239 ,49.67215 
22 ,4.4507 ,0.78861 ,5.06923 ,49.73931 
23 ,4.6429 ,0.79053 ,5.02132 ,49.26921 
24 ,4.8514 ,0.79252 ,5.01448 ,49.20205 
25 ,5.0429 ,0.79463 ,4.99737 ,49.03416 
26 ,5.2515 ,0.79655 ,4.98710 ,48.93343 
27 ,5.4594 ,0.79867 ,4.95630 ,48.63122 
28 ,5.6352 ,0.80048 ,4.94261 ,48.49691 
29 ,5.8117 ,0.80228 ,4.93577 ,48.42975 
30 ,6.0039 ,0.80419 ,4.90497 ,48.12755 
31 ,6.1957 ,0.80607 ,4.89470 ,48.02681 
32 ,6.3719 ,0.80789 ,4.87759 ,47.85892 
33 ,6.5800 ,0.80980 ,4.85706 ,47.65745 
34 ,6.7881 ,0.81198 ,4.83652 ,47.45598 
35 ,6.9961 ,0.81406 ,4.81257 ,47.22093 
36 ,7.1881 ,0.81601 ,4.79204 ,47.01946 
37 ,7.3802 ,0.81788 ,4.76466 ,46.75084 
38 ,7.5724 ,0.81982 ,4.77150 ,46.81800 
39 ,7.7645 ,0.82168 ,4.73728 ,46.48221 
40 ,7.9565 ,0.82362 ,4.72702 ,46.38148 
41 ,8.1486 ,0.82556 ,4.70990 ,46.21359 
42 ,8.3407 ,0.82751 ,4.67911 ,45.91138 
43 ,8.5167 ,0.82936 ,4.66542 ,45.77707 
44 ,8.7088 ,0.83117 ,4.66884 ,45.81065 
45 ,8.9009 ,0.83310 ,4.62093 ,45.34055 
46 ,9.0932 ,0.83502 ,4.63462 ,45.47486 
47 ,9.3010 ,0.83699 ,4.60040 ,45.13908 
48 ,9.4931 ,0.83901 ,4.58671 ,45.00477 
49 ,9.6693 ,0.84082 ,4.58328 ,44.97119 
50 ,9.8609 ,0.84283 ,4.55249 ,44.66898 
51 ,10.0535 ,0.84464 ,4.54564 ,44.60183 
52 ,10.2454 ,0.84652 ,4.50800 ,44.23247 
53 ,10.4216 ,0.84833 ,4.49773 ,44.13173 
54 ,10.6132 ,0.85027 ,4.47378 ,43.89668 
55 ,10.7896 ,0.85204 ,4.47720 ,43.93026 
56 ,10.9652 ,0.85391 ,4.43613 ,43.52732 
57 ,11.1420 ,0.85554 ,4.43613 ,43.52732 
58 ,11.3499 ,0.85754 ,4.42929 ,43.46016 
59 ,11.5415 ,0.85949 ,4.39164 ,43.09080 
60 ,11.7176 ,0.86137 ,4.37453 ,42.92291 
61 ,11.9101 ,0.86312 ,4.37453 ,42.92291 
62 ,12.1342 ,0.86538 ,4.33347 ,42.51997 
63 ,12.3263 ,0.86739 ,4.34716 ,42.65429 
64 ,12.5185 ,0.86934 ,4.29240 ,42.11703 
65 ,12.7104 ,0.87114 ,4.29240 ,42.11703 
66 ,12.9185 ,0.87316 ,4.27871 ,41.98272 
67 ,13.1103 ,0.87528 ,4.25476 ,41.74767 
68 ,13.3026 ,0.87713 ,4.24107 ,41.61336 
69 ,13.5109 ,0.87912 ,4.24449 ,41.64694 
70 ,13.7026 ,0.88109 ,4.19316 ,41.14326 
71 ,13.8951 ,0.88300 ,4.19316 ,41.14326 
72 ,14.0868 ,0.88491 ,4.17947 ,41.00895 
73 ,14.2633 ,0.88673 ,4.15551 ,40.77390 
74 ,14.4710 ,0.88879 ,4.13498 ,40.57243 
75 ,14.6795 ,0.89080 ,4.11103 ,40.33738 
76 ,14.8712 ,0.89278 ,4.10418 ,40.27023 
77 ,15.0474 ,0.89457 ,4.08365 ,40.06876 
78 ,15.2551 ,0.89660 ,4.04600 ,39.69940 
79 ,15.4477 ,0.89854 ,4.05969 ,39.83371 
80 ,15.6560 ,0.90059 ,4.02889 ,39.53150 
81 ,15.8479 ,0.90250 ,4.02205 ,39.46435 
82 ,16.0400 ,0.90443 ,3.98098 ,39.06141 
83 ,16.2320 ,0.90641 ,3.98441 ,39.09499 
84 ,16.4239 ,0.90838 ,3.94676 ,38.72562 
85 ,16.6159 ,0.91023 ,3.92965 ,38.55773 
86 ,16.7921 ,0.91205 ,3.91938 ,38.45700 
87 ,16.9842 ,0.91399 ,3.89201 ,38.18837 
88 ,17.1604 ,0.91574 ,3.88858 ,38.15479 
89 ,17.3525 ,0.91758 ,3.86805 ,37.95332 
90 ,17.5443 ,0.91956 ,3.86121 ,37.88617 
91 ,17.7527 ,0.92160 ,3.82356 ,37.51681 
92 ,17.9606 ,0.92365 ,3.80303 ,37.31534 
93 ,18.1527 ,0.92559 ,3.79619 ,37.24818 
94 ,18.3447 ,0.92749 ,3.77565 ,37.04671 
95 ,18.5367 ,0.92944 ,3.75512 ,36.84524 
96 ,18.7127 ,0.93126 ,3.74485 ,36.74450 
97 ,18.9050 ,0.93320 ,3.72432 ,36.54303 
98 ,19.0968 ,0.93502 ,3.69352 ,36.24083 
99 ,19.2732 ,0.93684 ,3.69694 ,36.27441 
100 ,19.4652 ,0.93867 ,3.67983 ,36.10652 
101 ,19.6573 ,0.94065 ,3.64219 ,35.73716 
102 ,19.8334 ,0.94246 ,3.62850 ,35.60284 
103 ,20.0254 ,0.94431 ,3.63877 ,35.70358 
104 ,20.2015 ,0.94614 ,3.60112 ,35.33422 
105 ,20.3776 ,0.94783 ,3.59770 ,35.30064 
106 ,20.5697 ,0.94979 ,3.58743 ,35.19990 
107 ,20.7619 ,0.95168 ,3.57032 ,35.03201 
108 ,20.9698 ,0.95374 ,3.53952 ,34.72981 
109 ,21.1620 ,0.95568 ,3.51557 ,34.49476 
110 ,21.3540 ,0.95757 ,3.49504 ,34.29329 
111 ,21.5461 ,0.95948 ,3.49161 ,34.25971 
112 ,21.7377 ,0.96142 ,3.46766 ,34.02466 
113 ,21.9303 ,0.96336 ,3.46424 ,33.99108 
114 ,22.1223 ,0.96527 ,3.44370 ,33.78961 
115 ,22.2983 ,0.96704 ,3.42659 ,33.62172 
116 ,22.4904 ,0.96897 ,3.41290 ,33.48741 
117 ,22.6826 ,0.97089 ,3.40264 ,33.38667 
118 ,22.8906 ,0.97296 ,3.36157 ,32.98374 
119 ,23.0826 ,0.97487 ,3.35815 ,32.95016 
120 ,23.2588 ,0.97669 ,3.33419 ,32.71511 
121 ,23.4350 ,0.97840 ,3.31366 ,32.51364 
122 ,23.6268 ,0.98034 ,3.29997 ,32.37933 
123 ,23.8190 ,0.98217 ,3.28628 ,32.24501 
124 ,23.9948 ,0.98411 ,3.25891 ,31.97639 
125 ,24.1870 ,0.98589 ,3.26575 ,32.04354 
126 ,24.3632 ,0.98770 ,3.25548 ,31.94281 
127 ,24.5553 ,0.98956 ,3.22811 ,31.67418 
128 ,24.7315 ,0.99143 ,3.20073 ,31.40555 
129 ,24.9231 ,0.99332 ,3.20757 ,31.47271 
130 ,25.1154 ,0.99516 ,3.16651 ,31.06977 
131 ,25.3077 ,0.99711 ,3.16651 ,31.06977 
132 ,25.5158 ,0.99915 ,3.13571 ,30.76757 
133 ,25.7079 ,1.00105 ,3.12886 ,30.70041 
134 ,25.9159 ,1.00318 ,3.09464 ,30.36463 
135 ,26.0920 ,1.00503 ,3.09464 ,30.36463 
136 ,26.2682 ,1.00678 ,3.07411 ,30.16316 
137 ,26.4437 ,1.00856 ,3.05015 ,29.92811 
138 ,26.6201 ,1.01030 ,3.04331 ,29.86095 
139 ,26.7962 ,1.01202 ,3.02278 ,29.65948 
140 ,26.9883 ,1.01392 ,3.00224 ,29.45801 
141 ,27.1644 ,1.01579 ,2.98855 ,29.32370 
142 ,27.3566 ,1.01756 ,2.96460 ,29.08865 
143 ,27.5647 ,1.01956 ,2.95433 ,28.98792 
144 ,27.7727 ,1.02178 ,2.93380 ,28.78645 
145 ,27.9807 ,1.02376 ,2.92696 ,28.71929 
146 ,28.1725 ,1.02574 ,2.89616 ,28.41709 
147 ,28.3651 ,1.02766 ,2.88589 ,28.31635 
148 ,28.5731 ,1.02978 ,2.85509 ,28.01415 
149 ,28.7648 ,1.03164 ,2.85509 ,28.01415 
150 ,28.9408 ,1.03348 ,2.85167 ,27.98057 
151 ,29.1172 ,1.03526 ,2.82087 ,27.67836 
152 ,29.3253 ,1.03724 ,2.81060 ,27.57763 
153 ,29.5013 ,1.03916 ,2.78322 ,27.30900 
154 ,29.6775 ,1.04084 ,2.77638 ,27.24185 
155 ,29.9014 ,1.04290 ,2.76611 ,27.14111 
156 ,30.0938 ,1.04494 ,2.72505 ,26.73817 
157 ,30.2855 ,1.04685 ,2.72847 ,26.77175 
158 ,30.4775 ,1.04877 ,2.70452 ,26.53670 
159 ,30.6697 ,1.05075 ,2.68056 ,26.30165 
160 ,30.8626 ,1.05263 ,2.68398 ,26.33523 
161 ,31.0700 ,1.05463 ,2.64292 ,25.93229 
162 ,31.2623 ,1.05670 ,2.63949 ,25.89871 
163 ,31.4542 ,1.05855 ,2.61554 ,25.66367 
164 ,31.6301 ,1.06036 ,2.59843 ,25.49577 
165 ,31.8381 ,1.06235 ,2.58474 ,25.36146 
166 ,32.0461 ,1.06444 ,2.58474 ,25.36146 
167 ,32.2223 ,1.06626 ,2.57105 ,25.22715 
168 ,32.4307 ,1.06824 ,2.54367 ,24.95852 
169 ,32.6224 ,1.07020 ,2.52656 ,24.79063 
170 ,32.8148 ,1.07219 ,2.49234 ,24.45485 
171 ,33.0067 ,1.07406 ,2.49234 ,24.45485 
172 ,33.1829 ,1.07591 ,2.48207 ,24.35411 
173 ,33.3748 ,1.07773 ,2.44101 ,23.95117 
174 ,33.5667 ,1.07971 ,2.44101 ,23.95117 
175 ,33.7592 ,1.08158 ,2.43759 ,23.91759 
176 ,33.9674 ,1.08366 ,2.42048 ,23.74970 
177 ,34.1594 ,1.08559 ,2.39652 ,23.51465 
178 ,34.3674 ,1.08766 ,2.38625 ,23.41392 
179 ,34.5595 ,1.08957 ,2.37256 ,23.27961 
180 ,34.7675 ,1.09167 ,2.34177 ,22.97740 
181 ,34.9755 ,1.09374 ,2.31781 ,22.74235 
182 ,35.1838 ,1.09576 ,2.30754 ,22.64162 
183 ,35.3600 ,1.09767 ,2.28359 ,22.40657 
184 ,35.5519 ,1.09957 ,2.26648 ,22.23868 
185 ,35.7276 ,1.10134 ,2.25621 ,22.13794 
186 ,35.9201 ,1.10320 ,2.24594 ,22.03721 
187 ,36.1282 ,1.10531 ,2.22199 ,21.80216 
188 ,36.3042 ,1.10713 ,2.22199 ,21.80216 
189 ,36.4798 ,1.10882 ,2.20488 ,21.63427 
190 ,36.6564 ,1.11060 ,2.17408 ,21.33206 
191 ,36.8321 ,1.11242 ,2.16723 ,21.26491 
192 ,37.0247 ,1.11423 ,2.15355 ,21.13059 
193 ,37.2164 ,1.11611 ,2.11932 ,20.79481 
194 ,37.4087 ,1.11806 ,2.11248 ,20.72766 
195 ,37.6006 ,1.12002 ,2.09879 ,20.59334 
196 ,37.8090 ,1.12207 ,2.08852 ,20.49261 
197 ,38.0008 ,1.12410 ,2.05773 ,20.19040 
198 ,38.1931 ,1.12592 ,2.04746 ,20.08967 
199 ,38.3851 ,1.12781 ,2.04746 ,20.08967 
200 ,38.5608 ,1.12961 ,2.03035 ,19.92178 
201 ,38.7372 ,1.13140 ,2.01666 ,19.78746 
202 ,38.9293 ,1.13326 ,1.98928 ,19.51884 
203 ,39.1214 ,1.13514 ,2.00297 ,19.65315 
204 ,39.3294 ,1.13724 ,1.96190 ,19.25021 
205 ,39.5055 ,1.13907 ,1.93795 ,19.01516 
206 ,39.6976 ,1.14100 ,1.93453 ,18.98158 
207 ,39.9053 ,1.14303 ,1.91399 ,18.78011 
208 ,40.0654 ,1.14479 ,1.90715 ,18.71296 
209 ,40.2575 ,1.14653 ,1.87977 ,18.44433 
210 ,40.4500 ,1.14838 ,1.87293 ,18.37717 
211 ,40.6420 ,1.15038 ,1.86266 ,18.27644 
212 ,40.8501 ,1.15236 ,1.82160 ,17.87350 
213 ,41.0422 ,1.15440 ,1.82160 ,17.87350 
214 ,41.2342 ,1.15640 ,1.79764 ,17.63845 
215 ,41.4103 ,1.15819 ,1.79080 ,17.57129 
216 ,41.6023 ,1.16001 ,1.77711 ,17.43698 
217 ,41.7783 ,1.16182 ,1.75657 ,17.23551 
218 ,41.9705 ,1.16373 ,1.73604 ,17.03404 
219 ,42.1784 ,1.16565 ,1.74289 ,17.10120 
220 ,42.3708 ,1.16768 ,1.70524 ,16.73184 
221 ,42.5788 ,1.16972 ,1.70524 ,16.73184 
222 ,42.7550 ,1.17157 ,1.68813 ,16.56395 
223 ,42.9468 ,1.17339 ,1.68129 ,16.49679 
224 ,43.1551 ,1.17550 ,1.65391 ,16.22816 
225 ,43.3307 ,1.17740 ,1.64707 ,16.16101 
226 ,43.4911 ,1.17903 ,1.62311 ,15.92596 
227 ,43.6667 ,1.18074 ,1.60942 ,15.79164 
228 ,43.8594 ,1.18247 ,1.60600 ,15.75807 
229 ,44.0673 ,1.18458 ,1.58547 ,15.55660 
230 ,44.2435 ,1.18642 ,1.58889 ,15.59018 
231 ,44.4191 ,1.18817 ,1.57178 ,15.42228 
232 ,44.6116 ,1.19002 ,1.54098 ,15.12008 
233 ,44.7717 ,1.19183 ,1.54098 ,15.12008 
234 ,44.9640 ,1.19364 ,1.52045 ,14.91861 
235 ,45.1560 ,1.19552 ,1.50676 ,14.78430 
236 ,45.3478 ,1.19741 ,1.48965 ,14.61640 
237 ,45.5240 ,1.19922 ,1.49307 ,14.64998 
238 ,45.7158 ,1.20106 ,1.49307 ,14.64998 
239 ,45.8919 ,1.20291 ,1.44516 ,14.17989 
240 ,46.0678 ,1.20471 ,1.44858 ,14.21346 
241 ,46.2599 ,1.20654 ,1.44516 ,14.17989 
242 ,46.4525 ,1.20849 ,1.40067 ,13.74337 
243 ,46.6603 ,1.21050 ,1.41094 ,13.84410 
244 ,46.8844 ,1.21279 ,1.38356 ,13.57548 
245 ,47.0608 ,1.21461 ,1.38698 ,13.60906 
246 ,47.2528 ,1.21655 ,1.36645 ,13.40759 
247 ,47.4450 ,1.21839 ,1.35618 ,13.30685 
248 ,47.6368 ,1.22030 ,1.32538 ,13.00465 
249 ,47.8131 ,1.22215 ,1.32196 ,12.97107 
250 ,48.0050 ,1.22400 ,1.32196 ,12.97107 
251 ,48.1970 ,1.22598 ,1.30827 ,12.83675 
252 ,48.3732 ,1.22776 ,1.27405 ,12.50097 
253 ,48.5493 ,1.22951 ,1.26036 ,12.36666 
254 ,48.7414 ,1.23136 ,1.26720 ,12.43381 
255 ,48.9335 ,1.23328 ,1.22956 ,12.06445 
256 ,49.1255 ,1.23515 ,1.22614 ,12.03088 
257 ,49.3017 ,1.23700 ,1.21587 ,11.93014 
258 ,49.5096 ,1.23901 ,1.20561 ,11.82941 
259 ,49.6854 ,1.24090 ,1.19876 ,11.76225 
260 ,49.8778 ,1.24277 ,1.18850 ,11.66151 
261 ,50.1020 ,1.24483 ,1.15427 ,11.32573 
262 ,50.2938 ,1.24685 ,1.14401 ,11.22500 
263 ,50.4859 ,1.24878 ,1.14058 ,11.19142 
264 ,50.6779 ,1.25071 ,1.12347 ,11.02353 
265 ,50.8543 ,1.25258 ,1.09952 ,10.78848 
266 ,51.0303 ,1.25426 ,1.09610 ,10.75490 
267 ,51.2060 ,1.25609 ,1.07214 ,10.51985 
268 ,51.4305 ,1.25815 ,1.07214 ,10.51985 
269 ,51.6224 ,1.26017 ,1.05503 ,10.35196 
270 ,51.8147 ,1.26210 ,1.04134 ,10.21765 
271 ,52.0066 ,1.26395 ,1.02423 ,10.04976 
272 ,52.2148 ,1.26605 ,1.01054 ,9.91544 
273 ,52.4065 ,1.26796 ,1.00370 ,9.84829 
274 ,52.5989 ,1.26992 ,1.00370 ,9.84829 
275 ,52.7750 ,1.27169 ,0.98317 ,9.64682 
276 ,52.9668 ,1.27357 ,0.95921 ,9.41177 
277 ,53.1594 ,1.27554 ,0.96263 ,9.44535 
278 ,53.3672 ,1.27761 ,0.93868 ,9.21030 
279 ,53.5434 ,1.27938 ,0.93183 ,9.14314 
280 ,53.7194 ,1.28116 ,0.92157 ,9.04241 
281 ,53.9116 ,1.28298 ,0.89419 ,8.77378 
282 ,54.1031 ,1.28505 ,0.89419 ,8.77378 
283 ,54.2796 ,1.28677 ,0.89077 ,8.74020 
284 ,54.4559 ,1.28852 ,0.86681 ,8.50515 
285 ,54.6797 ,1.29061 ,0.86339 ,8.47158 
286 ,54.8880 ,1.29279 ,0.84286 ,8.27011 
287 ,55.0640 ,1.29467 ,0.83601 ,8.20295 
288 ,55.2401 ,1.29635 ,0.82232 ,8.06864 
289 ,55.4482 ,1.29835 ,0.79495 ,7.80001 
290 ,55.6559 ,1.30049 ,0.78468 ,7.69927 
291 ,55.8484 ,1.30241 ,0.76757 ,7.53138 
292 ,56.0565 ,1.30448 ,0.76415 ,7.49780 
293 ,56.2321 ,1.30632 ,0.74019 ,7.26276 
294 ,56.4247 ,1.30813 ,0.74019 ,7.26276 
295 ,56.6167 ,1.31005 ,0.72650 ,7.12844 
296 ,56.8088 ,1.31205 ,0.69913 ,6.85982 
297 ,57.0008 ,1.31399 ,0.71281 ,6.99413 
298 ,57.1929 ,1.31590 ,0.68886 ,6.75908 
299 ,57.3851 ,1.31772 ,0.67859 ,6.65835 
300 ,57.5929 ,1.31983 ,0.66490 ,6.52403 
301 ,57.8013 ,1.32184 ,0.65806 ,6.45688 
302 ,57.9932 ,1.32384 ,0.64095 ,6.28899 
303 ,58.2013 ,1.32582 ,0.63410 ,6.22183 
304 ,58.3770 ,1.32778 ,0.62042 ,6.08752 
305 ,58.5695 ,1.32963 ,0.59304 ,5.81889 
306 ,58.7615 ,1.33164 ,0.59646 ,5.85247 
307 ,58.9697 ,1.33353 ,0.57251 ,5.61742 
308 ,59.1618 ,1.33553 ,0.57593 ,5.65100 
309 ,59.3538 ,1.33741 ,0.54171 ,5.31522 
310 ,59.5456 ,1.33942 ,0.54855 ,5.38237 
311 ,59.7219 ,1.34113 ,0.53828 ,5.28164 
312 ,59.8980 ,1.34295 ,0.53486 ,5.24806 
313 ,60.0901 ,1.34481 ,0.50406 ,4.94585 
314 ,60.2822 ,1.34674 ,0.51091 ,5.01301 
315 ,60.4742 ,1.34863 ,0.47668 ,4.67723 
316 ,60.6502 ,1.35044 ,0.47668 ,4.67723 
317 ,60.8584 ,1.35248 ,0.46984 ,4.61007 
318 ,61.0346 ,1.35429 ,0.46300 ,4.54291 
319 ,61.2266 ,1.35617 ,0.43904 ,4.30787 
320 ,61.4187 ,1.35805 ,0.43562 ,4.27429 
321 ,61.6104 ,1.36000 ,0.41851 ,4.10640 
322 ,61.8027 ,1.36191 ,0.42193 ,4.13997 
323 ,61.9788 ,1.36369 ,0.41166 ,4.03924 
324 ,62.1549 ,1.36554 ,0.38429 ,3.77061 
325 ,62.3308 ,1.36729 ,0.36375 ,3.56914 
326 ,62.5232 ,1.36918 ,0.36718 ,3.60272 
327 ,62.7148 ,1.37099 ,0.35691 ,3.50199 
328 ,62.8913 ,1.37286 ,0.35349 ,3.46841 
329 ,63.0991 ,1.37484 ,0.34664 ,3.40125 
330 ,63.2914 ,1.37675 ,0.31584 ,3.09905 
331 ,63.4994 ,1.37882 ,0.31242 ,3.06547 
332 ,63.6916 ,1.38082 ,0.28847 ,2.83042 
333 ,63.8998 ,1.38289 ,0.30215 ,2.96473 
334 ,64.1076 ,1.38490 ,0.27135 ,2.66253 
335 ,64.2999 ,1.38681 ,0.26451 ,2.59537 
336 ,64.4917 ,1.38880 ,0.24398 ,2.39390 
337 ,64.6837 ,1.39074 ,0.23713 ,2.32675 
338 ,64.8757 ,1.39262 ,0.24398 ,2.39390 
339 ,65.0522 ,1.39444 ,0.22002 ,2.15885 
340 ,65.2442 ,1.39631 ,0.22002 ,2.15885 
341 ,65.4362 ,1.39822 ,0.20976 ,2.05812 
342 ,65.6121 ,1.40010 ,0.18238 ,1.78949 
343 ,65.7882 ,1.40178 ,0.18238 ,1.78949 
344 ,65.9482 ,1.40352 ,0.16527 ,1.62160 
345 ,66.1247 ,1.40513 ,0.16185 ,1.58802 
346 ,66.3005 ,1.40695 ,0.16185 ,1.58802 
347 ,66.4929 ,1.40880 ,0.14473 ,1.42013 
348 ,66.6850 ,1.41071 ,0.12078 ,1.18508 
349 ,66.8930 ,1.41279 ,0.12762 ,1.25224 
350 ,67.0850 ,1.41469 ,0.11051 ,1.08435 
351 ,67.2608 ,1.41653 ,0.10367 ,1.01719 
352 ,67.4369 ,1.41832 ,0.11393 ,1.11793 
353 ,67.6292 ,1.42021 ,0.08656 ,0.84930 
354 ,67.8052 ,1.42202 ,0.08314 ,0.81572 
355 ,67.9972 ,1.42377 ,0.05576 ,0.54710 
356 ,68.2053 ,1.42594 ,0.04549 ,0.44636 
357 ,68.3974 ,1.42788 ,0.05234 ,0.51352 
358 ,68.5893 ,1.42977 ,0.02838 ,0.27847 
359 ,68.7656 ,1.43155 ,0.01469 ,0.14416 
360 ,68.9737 ,1.43361 ,0.00785 ,0.07700 
361 ,69.1654 ,1.43546 ,-0.00584 ,-0.05731 
362 ,69.3579 ,1.43743 ,-0.01269 ,-0.12447 
363 ,69.5500 ,1.43932 ,-0.02980 ,-0.29236 
364 ,69.7259 ,1.44114 ,-0.04006 ,-0.39310 
365 ,69.9342 ,1.44318 ,-0.04006 ,-0.39310 
366 ,70.1262 ,1.44508 ,-0.05717 ,-0.56099 
367 ,70.3023 ,1.44699 ,-0.05375 ,-0.52741 
368 ,70.4944 ,1.44881 ,-0.07086 ,-0.69530 
369 ,70.6704 ,1.45060 ,-0.08455 ,-0.82961 
370 ,70.8631 ,1.45247 ,-0.08113 ,-0.79604 
371 ,71.0547 ,1.45441 ,-0.09482 ,-0.93035 
372 ,71.2465 ,1.45629 ,-0.09824 ,-0.96393 
373 ,71.4549 ,1.45840 ,-0.12219 ,-1.19898 
374 ,71.6469 ,1.46038 ,-0.13588 ,-1.33329 
375 ,71.8231 ,1.46210 ,-0.13588 ,-1.33329 
376 ,72.0306 ,1.46416 ,-0.14615 ,-1.43402 
377 ,72.2066 ,1.46601 ,-0.16326 ,-1.60191 
378 ,72.3987 ,1.46783 ,-0.17011 ,-1.66907 
379 ,72.5752 ,1.46968 ,-0.17011 ,-1.66907 
380 ,72.7669 ,1.47161 ,-0.20090 ,-1.97128 
381 ,72.9435 ,1.47330 ,-0.19406 ,-1.90412 
382 ,73.1511 ,1.47534 ,-0.21117 ,-2.07201 
383 ,73.3276 ,1.47716 ,-0.21802 ,-2.13917 
384 ,73.5354 ,1.47914 ,-0.22486 ,-2.20632 
385 ,73.7113 ,1.48098 ,-0.22486 ,-2.20632 
386 ,73.8877 ,1.48282 ,-0.24881 ,-2.44137 
387 ,74.0640 ,1.48454 ,-0.26250 ,-2.57569 
388 ,74.2557 ,1.48640 ,-0.25908 ,-2.54211 
389 ,74.4478 ,1.48831 ,-0.27619 ,-2.71000 
390 ,74.6401 ,1.49019 ,-0.26593 ,-2.60926 
391 ,74.8481 ,1.49227 ,-0.29330 ,-2.87789 
392 ,75.0403 ,1.49423 ,-0.29330 ,-2.87789 
393 ,75.2163 ,1.49606 ,-0.30357 ,-2.97863 
394 ,75.4085 ,1.49796 ,-0.32410 ,-3.18010 
395 ,75.6161 ,1.49997 ,-0.31726 ,-3.11294 
396 ,75.8086 ,1.50194 ,-0.34121 ,-3.34799 
397 ,76.0167 ,1.50398 ,-0.34806 ,-3.41514 
398 ,76.2086 ,1.50598 ,-0.36175 ,-3.54946 
399 ,76.4008 ,1.50790 ,-0.35832 ,-3.51588 
400 ,76.5766 ,1.50963 ,-0.36175 ,-3.54946 
401 ,76.7688 ,1.51156 ,-0.38570 ,-3.78450 
402 ,76.9451 ,1.51334 ,-0.39597 ,-3.88524 
403 ,77.1371 ,1.51523 ,-0.39255 ,-3.85166 
404 ,77.3290 ,1.51708 ,-0.41650 ,-4.08671 
405 ,77.5211 ,1.51901 ,-0.41650 ,-4.08671 
406 ,77.7132 ,1.52092 ,-0.42677 ,-4.18744 
407 ,77.8893 ,1.52278 ,-0.43703 ,-4.28818 
408 ,78.0815 ,1.52465 ,-0.45072 ,-4.42249 
409 ,78.2735 ,1.52657 ,-0.45414 ,-4.45607 
410 ,78.4656 ,1.52848 ,-0.47468 ,-4.65754 
411 ,78.6736 ,1.53054 ,-0.47126 ,-4.62396 
412 ,78.8653 ,1.53253 ,-0.48837 ,-4.79185 
413 ,79.0578 ,1.53438 ,-0.48494 ,-4.75828 
414 ,79.2658 ,1.53644 ,-0.49863 ,-4.89259 
415 ,79.4419 ,1.53830 ,-0.51232 ,-5.02690 
416 ,79.6501 ,1.54035 ,-0.53628 ,-5.26195 
417 ,79.8260 ,1.54209 ,-0.53285 ,-5.22837 
418 ,80.0341 ,1.54413 ,-0.52601 ,-5.16121 
419 ,80.2261 ,1.54612 ,-0.55339 ,-5.42984 
420 ,80.4024 ,1.54791 ,-0.54997 ,-5.39626 
421 ,80.5945 ,1.54982 ,-0.55339 ,-5.42984 
422 ,80.7865 ,1.55168 ,-0.58077 ,-5.69847 
423 ,80.9784 ,1.55365 ,-0.57392 ,-5.63131 
424 ,81.2026 ,1.55572 ,-0.60130 ,-5.89994 
425 ,81.3948 ,1.55786 ,-0.61841 ,-6.06783 
426 ,81.5709 ,1.55958 ,-0.60472 ,-5.93352 
427 ,81.7631 ,1.56142 ,-0.60814 ,-5.96709 
428 ,81.9710 ,1.56342 ,-0.62525 ,-6.13499 
429 ,82.1631 ,1.56542 ,-0.62868 ,-6.16856 
430 ,82.3551 ,1.56741 ,-0.63552 ,-6.23572 
431 ,82.5313 ,1.56918 ,-0.64579 ,-6.33646 
432 ,82.7233 ,1.57103 ,-0.65263 ,-6.40361 
433 ,82.8992 ,1.57286 ,-0.66974 ,-6.57150 
434 ,83.0755 ,1.57464 ,-0.69027 ,-6.77297 
435 ,83.2517 ,1.57639 ,-0.67659 ,-6.63866 
436 ,83.4594 ,1.57839 ,-0.68343 ,-6.70582 
437 ,83.6354 ,1.58018 ,-0.69370 ,-6.80655 
438 ,83.8119 ,1.58199 ,-0.69712 ,-6.84013 
439 ,84.0039 ,1.58378 ,-0.72450 ,-7.10876 
440 ,84.1958 ,1.58572 ,-0.71765 ,-7.04160 
441 ,84.3881 ,1.58764 ,-0.74845 ,-7.34380 
442 ,84.5961 ,1.58973 ,-0.73818 ,-7.24307 
443 ,84.7880 ,1.59165 ,-0.75872 ,-7.44454 
444 ,84.9959 ,1.59366 ,-0.76214 ,-7.47812 
445 ,85.1885 ,1.59563 ,-0.78267 ,-7.67959 
446 ,85.3803 ,1.59758 ,-0.78610 ,-7.71317 
447 ,85.5564 ,1.59942 ,-0.77925 ,-7.64601 
448 ,85.7323 ,1.60117 ,-0.79294 ,-7.78032 
449 ,85.9089 ,1.60293 ,-0.80663 ,-7.91464 
450 ,86.1167 ,1.60493 ,-0.79636 ,-7.81390 
451 ,86.3090 ,1.60684 ,-0.82716 ,-8.11611 
452 ,86.5009 ,1.60882 ,-0.82716 ,-8.11611 
453 ,86.6931 ,1.61077 ,-0.83743 ,-8.21684 
454 ,86.8852 ,1.61264 ,-0.85796 ,-8.41831 
455 ,87.0770 ,1.61464 ,-0.86138 ,-8.45189 
456 ,87.2534 ,1.61636 ,-0.87165 ,-8.55262 
457 ,87.4292 ,1.61816 ,-0.88876 ,-8.72051 
458 ,87.6375 ,1.62019 ,-0.86823 ,-8.51904 
459 ,87.8295 ,1.62214 ,-0.89903 ,-8.82125 
460 ,88.0052 ,1.62386 ,-0.90929 ,-8.92198 
461 ,88.1814 ,1.62564 ,-0.90929 ,-8.92198 
462 ,88.3578 ,1.62740 ,-0.90587 ,-8.88841 
463 ,88.5339 ,1.62917 ,-0.91956 ,-9.02272 
