Data stamp = , 25-04-2022 20:28:12 564

Calibration Values: 
Slope = , 26.54 , g/V 
Offset Voltage at no contact = , -0.501760 , V 

No , Time , Stage Position ,   Mass , Force 
   ,  (s) ,      (mm)      ,   (g)  , (mN)  

1 ,0.0000 ,0.74948 ,5.39092 ,52.89567 
2 ,0.2713 ,0.74965 ,5.37723 ,52.76135 
3 ,0.6238 ,0.75076 ,5.38749 ,52.86209 
4 ,0.8321 ,0.75254 ,5.39092 ,52.89567 
5 ,1.0562 ,0.75459 ,5.39434 ,52.92925 
6 ,1.2641 ,0.75670 ,5.37723 ,52.76135 
7 ,1.4723 ,0.75882 ,5.38065 ,52.79493 
8 ,1.6484 ,0.76076 ,5.37381 ,52.72778 
9 ,1.8406 ,0.76255 ,5.35327 ,52.52631 
10 ,2.0646 ,0.76471 ,5.33958 ,52.39199 
11 ,2.2563 ,0.76673 ,5.33958 ,52.39199 
12 ,2.4328 ,0.76857 ,5.32589 ,52.25768 
13 ,2.6405 ,0.77057 ,5.29852 ,51.98905 
14 ,2.8329 ,0.77246 ,5.26430 ,51.65327 
15 ,3.0250 ,0.77447 ,5.25061 ,51.51896 
16 ,3.2172 ,0.77635 ,5.24718 ,51.48538 
17 ,3.4252 ,0.77836 ,5.20612 ,51.08244 
18 ,3.6333 ,0.78058 ,5.18559 ,50.88097 
19 ,3.8253 ,0.78242 ,5.17532 ,50.78023 
20 ,4.0013 ,0.78427 ,5.15136 ,50.54519 
21 ,4.1934 ,0.78619 ,5.13083 ,50.34372 
22 ,4.3691 ,0.78795 ,5.12056 ,50.24298 
23 ,4.5616 ,0.78973 ,5.10688 ,50.10867 
24 ,4.7696 ,0.79177 ,5.06923 ,49.73931 
25 ,4.9778 ,0.79383 ,5.06923 ,49.73931 
26 ,5.1698 ,0.79583 ,5.04185 ,49.47068 
27 ,5.3779 ,0.79791 ,5.03843 ,49.43710 
28 ,5.5536 ,0.79970 ,5.00079 ,49.06774 
29 ,5.7457 ,0.80166 ,4.97341 ,48.79911 
30 ,5.9222 ,0.80343 ,4.95972 ,48.66480 
31 ,6.1143 ,0.80531 ,4.95630 ,48.63122 
32 ,6.2903 ,0.80709 ,4.92208 ,48.29544 
33 ,6.4664 ,0.80887 ,4.88786 ,47.95966 
34 ,6.6746 ,0.81088 ,4.88786 ,47.95966 
35 ,6.8664 ,0.81292 ,4.86732 ,47.75819 
36 ,7.0425 ,0.81463 ,4.85021 ,47.59030 
37 ,7.2348 ,0.81660 ,4.83995 ,47.48956 
38 ,7.4269 ,0.81839 ,4.80915 ,47.18736 
39 ,7.6185 ,0.82031 ,4.79204 ,47.01946 
40 ,7.8110 ,0.82225 ,4.76808 ,46.78442 
41 ,7.9868 ,0.82410 ,4.74070 ,46.51579 
42 ,8.1792 ,0.82595 ,4.74755 ,46.58295 
43 ,8.3872 ,0.82802 ,4.69964 ,46.11285 
44 ,8.5634 ,0.82983 ,4.69622 ,46.07927 
45 ,8.7554 ,0.83168 ,4.68595 ,45.97854 
46 ,8.9312 ,0.83355 ,4.66884 ,45.81065 
47 ,9.1237 ,0.83543 ,4.64488 ,45.57560 
48 ,9.3315 ,0.83741 ,4.62435 ,45.37413 
49 ,9.5077 ,0.83926 ,4.59697 ,45.10550 
50 ,9.6836 ,0.84107 ,4.59013 ,45.03835 
51 ,9.8597 ,0.84285 ,4.57302 ,44.87045 
52 ,10.0519 ,0.84467 ,4.55249 ,44.66898 
53 ,10.2600 ,0.84672 ,4.55933 ,44.73614 
54 ,10.4519 ,0.84863 ,4.50115 ,44.16531 
55 ,10.6441 ,0.85062 ,4.48746 ,44.03100 
56 ,10.8202 ,0.85238 ,4.48404 ,43.99742 
57 ,11.0124 ,0.85429 ,4.47035 ,43.86310 
58 ,11.2044 ,0.85620 ,4.43955 ,43.56090 
59 ,11.4125 ,0.85817 ,4.42586 ,43.42659 
60 ,11.6045 ,0.86010 ,4.41560 ,43.32585 
61 ,11.7804 ,0.86197 ,4.40191 ,43.19154 
62 ,11.9565 ,0.86385 ,4.37453 ,42.92291 
63 ,12.1490 ,0.86563 ,4.35058 ,42.68786 
64 ,12.3407 ,0.86754 ,4.33004 ,42.48639 
65 ,12.5330 ,0.86946 ,4.32320 ,42.41924 
66 ,12.7092 ,0.87134 ,4.28213 ,42.01630 
67 ,12.8853 ,0.87306 ,4.28556 ,42.04988 
68 ,13.0769 ,0.87499 ,4.26845 ,41.88198 
69 ,13.2532 ,0.87668 ,4.26160 ,41.81483 
70 ,13.4452 ,0.87853 ,4.22738 ,41.47905 
71 ,13.6535 ,0.88064 ,4.21027 ,41.31115 
72 ,13.8457 ,0.88255 ,4.18974 ,41.10968 
73 ,14.0536 ,0.88465 ,4.17947 ,41.00895 
74 ,14.2297 ,0.88643 ,4.16236 ,40.84106 
75 ,14.4379 ,0.88848 ,4.15551 ,40.77390 
76 ,14.6299 ,0.89041 ,4.12129 ,40.43812 
77 ,14.8061 ,0.89227 ,4.09391 ,40.16949 
78 ,15.0142 ,0.89427 ,4.08707 ,40.10233 
79 ,15.2058 ,0.89621 ,4.04600 ,39.69940 
80 ,15.3983 ,0.89810 ,4.04943 ,39.73297 
81 ,15.5903 ,0.90006 ,4.03574 ,39.59866 
82 ,15.7664 ,0.90186 ,4.00494 ,39.29646 
83 ,15.9585 ,0.90364 ,4.00494 ,39.29646 
84 ,16.1501 ,0.90568 ,3.97072 ,38.96067 
85 ,16.3262 ,0.90750 ,3.96045 ,38.85994 
86 ,16.5347 ,0.90934 ,3.93650 ,38.62489 
87 ,16.7421 ,0.91153 ,3.91938 ,38.45700 
88 ,16.9506 ,0.91357 ,3.91596 ,38.42342 
89 ,17.1589 ,0.91567 ,3.89543 ,38.22195 
90 ,17.3351 ,0.91753 ,3.87490 ,38.02048 
91 ,17.5271 ,0.91940 ,3.84410 ,37.71828 
92 ,17.7193 ,0.92126 ,3.83725 ,37.65112 
93 ,17.9110 ,0.92322 ,3.82014 ,37.48323 
94 ,18.0873 ,0.92502 ,3.80645 ,37.34891 
95 ,18.2634 ,0.92676 ,3.77565 ,37.04671 
96 ,18.4552 ,0.92868 ,3.78250 ,37.11387 
97 ,18.6475 ,0.93063 ,3.73459 ,36.64377 
98 ,18.8556 ,0.93270 ,3.73459 ,36.64377 
99 ,19.0477 ,0.93453 ,3.70379 ,36.34157 
100 ,19.2398 ,0.93649 ,3.69694 ,36.27441 
101 ,19.4319 ,0.93846 ,3.68325 ,36.14010 
102 ,19.6399 ,0.94047 ,3.65930 ,35.90505 
103 ,19.8161 ,0.94232 ,3.63877 ,35.70358 
104 ,20.0078 ,0.94415 ,3.61823 ,35.50211 
105 ,20.1842 ,0.94601 ,3.58743 ,35.19990 
106 ,20.3763 ,0.94782 ,3.59770 ,35.30064 
107 ,20.5683 ,0.94979 ,3.56348 ,34.96485 
108 ,20.7444 ,0.95158 ,3.54295 ,34.76338 
109 ,20.9365 ,0.95352 ,3.54979 ,34.83054 
110 ,21.1121 ,0.95530 ,3.52926 ,34.62907 
111 ,21.2885 ,0.95703 ,3.49846 ,34.32687 
112 ,21.4647 ,0.95878 ,3.48135 ,34.15898 
113 ,21.6565 ,0.96065 ,3.49161 ,34.25971 
114 ,21.8648 ,0.96274 ,3.43686 ,33.72246 
115 ,22.0566 ,0.96474 ,3.44370 ,33.78961 
116 ,22.2489 ,0.96653 ,3.40606 ,33.42025 
117 ,22.4408 ,0.96850 ,3.40948 ,33.45383 
118 ,22.6490 ,0.97054 ,3.37184 ,33.08447 
119 ,22.8248 ,0.97238 ,3.35815 ,32.95016 
120 ,23.0012 ,0.97414 ,3.34446 ,32.81584 
121 ,23.1931 ,0.97605 ,3.34446 ,32.81584 
122 ,23.3853 ,0.97799 ,3.30339 ,32.41290 
123 ,23.5773 ,0.97980 ,3.29997 ,32.37933 
124 ,23.7696 ,0.98187 ,3.27602 ,32.14428 
125 ,23.9455 ,0.98356 ,3.24864 ,31.87565 
126 ,24.1217 ,0.98537 ,3.23495 ,31.74134 
127 ,24.3136 ,0.98723 ,3.22468 ,31.64060 
128 ,24.4899 ,0.98910 ,3.21442 ,31.53987 
129 ,24.6660 ,0.99080 ,3.19388 ,31.33840 
130 ,24.8740 ,0.99289 ,3.19046 ,31.30482 
131 ,25.0660 ,0.99478 ,3.15966 ,31.00262 
132 ,25.2580 ,0.99669 ,3.15624 ,30.96904 
133 ,25.4183 ,0.99841 ,3.14255 ,30.83472 
134 ,25.6103 ,1.00017 ,3.11175 ,30.53252 
135 ,25.7864 ,1.00198 ,3.08780 ,30.29747 
136 ,25.9784 ,1.00386 ,3.09122 ,30.33105 
137 ,26.1867 ,1.00586 ,3.07411 ,30.16316 
138 ,26.3787 ,1.00790 ,3.05700 ,29.99527 
139 ,26.5707 ,1.00977 ,3.02620 ,29.69306 
140 ,26.7788 ,1.01185 ,3.02962 ,29.72664 
141 ,26.9549 ,1.01370 ,3.01593 ,29.59233 
142 ,27.1467 ,1.01560 ,2.97487 ,29.18939 
143 ,27.3230 ,1.01734 ,2.95776 ,29.02150 
144 ,27.5151 ,1.01923 ,2.95776 ,29.02150 
145 ,27.7073 ,1.02106 ,2.94749 ,28.92076 
146 ,27.9154 ,1.02310 ,2.94064 ,28.85360 
147 ,28.1234 ,1.02522 ,2.91327 ,28.58498 
148 ,28.3156 ,1.02726 ,2.89273 ,28.38351 
149 ,28.5075 ,1.02927 ,2.87562 ,28.21562 
150 ,28.6836 ,1.03094 ,2.86193 ,28.08130 
151 ,28.8756 ,1.03284 ,2.84140 ,27.87983 
152 ,29.0516 ,1.03469 ,2.82771 ,27.74552 
153 ,29.2276 ,1.03640 ,2.79349 ,27.40974 
154 ,29.4199 ,1.03823 ,2.80034 ,27.47689 
155 ,29.6279 ,1.04033 ,2.76269 ,27.10753 
156 ,29.8040 ,1.04217 ,2.74216 ,26.90606 
157 ,29.9801 ,1.04389 ,2.74558 ,26.93964 
158 ,30.1556 ,1.04575 ,2.71820 ,26.67101 
159 ,30.3318 ,1.04747 ,2.69425 ,26.43597 
160 ,30.5240 ,1.04934 ,2.69425 ,26.43597 
161 ,30.7165 ,1.05126 ,2.69083 ,26.40239 
162 ,30.9245 ,1.05330 ,2.65660 ,26.06661 
163 ,31.1168 ,1.05521 ,2.64292 ,25.93229 
164 ,31.3246 ,1.05728 ,2.62581 ,25.76440 
165 ,31.5004 ,1.05910 ,2.61896 ,25.69724 
166 ,31.6926 ,1.06093 ,2.59158 ,25.42862 
167 ,31.8688 ,1.06278 ,2.56421 ,25.15999 
168 ,32.0607 ,1.06469 ,2.56078 ,25.12641 
169 ,32.2368 ,1.06648 ,2.55394 ,25.05926 
170 ,32.4291 ,1.06840 ,2.52656 ,24.79063 
171 ,32.6212 ,1.07023 ,2.52656 ,24.79063 
172 ,32.7969 ,1.07212 ,2.48892 ,24.42127 
173 ,32.9893 ,1.07396 ,2.48207 ,24.35411 
174 ,33.1974 ,1.07601 ,2.47865 ,24.32053 
175 ,33.4056 ,1.07808 ,2.44101 ,23.95117 
176 ,33.5976 ,1.07999 ,2.43759 ,23.91759 
177 ,33.8058 ,1.08210 ,2.42390 ,23.78328 
178 ,33.9976 ,1.08404 ,2.40679 ,23.61539 
179 ,34.2060 ,1.08610 ,2.37599 ,23.31318 
180 ,34.3977 ,1.08804 ,2.37599 ,23.31318 
181 ,34.5741 ,1.08983 ,2.35888 ,23.14529 
182 ,34.7661 ,1.09171 ,2.33492 ,22.91024 
183 ,34.9744 ,1.09374 ,2.31439 ,22.70877 
184 ,35.1661 ,1.09569 ,2.30412 ,22.60804 
185 ,35.3744 ,1.09780 ,2.29385 ,22.50731 
186 ,35.5662 ,1.09968 ,2.28017 ,22.37299 
187 ,35.7583 ,1.10166 ,2.26990 ,22.27226 
188 ,35.9345 ,1.10344 ,2.24252 ,22.00363 
189 ,36.1428 ,1.10550 ,2.22883 ,21.86932 
190 ,36.3348 ,1.10735 ,2.19461 ,21.53353 
191 ,36.5429 ,1.10943 ,2.19803 ,21.56711 
192 ,36.7349 ,1.11134 ,2.16723 ,21.26491 
193 ,36.9271 ,1.11334 ,2.14670 ,21.06344 
194 ,37.1352 ,1.11532 ,2.13301 ,20.92912 
195 ,37.3273 ,1.11732 ,2.12959 ,20.89555 
196 ,37.5188 ,1.11933 ,2.11248 ,20.72766 
197 ,37.6948 ,1.12109 ,2.09879 ,20.59334 
198 ,37.8870 ,1.12289 ,2.08168 ,20.42545 
199 ,38.0635 ,1.12477 ,2.06457 ,20.25756 
200 ,38.2715 ,1.12671 ,2.04061 ,20.02251 
201 ,38.4637 ,1.12861 ,2.04061 ,20.02251 
202 ,38.6557 ,1.13055 ,2.02008 ,19.82104 
203 ,38.8478 ,1.13252 ,1.99270 ,19.55241 
204 ,39.0238 ,1.13433 ,1.98928 ,19.51884 
205 ,39.2320 ,1.13633 ,1.96190 ,19.25021 
206 ,39.4239 ,1.13829 ,1.95506 ,19.18305 
207 ,39.6321 ,1.14032 ,1.92768 ,18.91443 
208 ,39.8082 ,1.14214 ,1.91399 ,18.78011 
209 ,40.0000 ,1.14398 ,1.91399 ,18.78011 
210 ,40.1921 ,1.14590 ,1.89346 ,18.57864 
211 ,40.3847 ,1.14781 ,1.89004 ,18.54507 
212 ,40.5763 ,1.14988 ,1.84555 ,18.10855 
213 ,40.7524 ,1.15161 ,1.84897 ,18.14213 
214 ,40.9445 ,1.15351 ,1.83186 ,17.97423 
215 ,41.1529 ,1.15555 ,1.80449 ,17.70561 
216 ,41.3287 ,1.15736 ,1.78737 ,17.53772 
217 ,41.5217 ,1.15919 ,1.79422 ,17.60487 
218 ,41.7290 ,1.16129 ,1.77026 ,17.36983 
219 ,41.9372 ,1.16332 ,1.76000 ,17.26909 
220 ,42.1290 ,1.16533 ,1.73262 ,17.00046 
221 ,42.3213 ,1.16723 ,1.73946 ,17.06762 
222 ,42.5130 ,1.16911 ,1.70182 ,16.69826 
223 ,42.6895 ,1.17097 ,1.69840 ,16.66468 
224 ,42.8814 ,1.17285 ,1.69498 ,16.63110 
225 ,43.0576 ,1.17464 ,1.68813 ,16.56395 
226 ,43.2493 ,1.17654 ,1.65391 ,16.22816 
227 ,43.4417 ,1.17843 ,1.65391 ,16.22816 
228 ,43.6496 ,1.18052 ,1.63338 ,16.02669 
229 ,43.8418 ,1.18240 ,1.62311 ,15.92596 
230 ,44.0181 ,1.18422 ,1.60600 ,15.75807 
231 ,44.2100 ,1.18612 ,1.58889 ,15.59018 
232 ,44.3858 ,1.18791 ,1.57178 ,15.42228 
233 ,44.5782 ,1.18977 ,1.56151 ,15.32155 
234 ,44.7699 ,1.19176 ,1.52729 ,14.98577 
235 ,44.9465 ,1.19353 ,1.54440 ,15.15366 
236 ,45.1545 ,1.19553 ,1.50676 ,14.78430 
237 ,45.3626 ,1.19764 ,1.50676 ,14.78430 
238 ,45.5704 ,1.19973 ,1.47938 ,14.51567 
239 ,45.7785 ,1.20178 ,1.46911 ,14.41493 
240 ,45.9547 ,1.20356 ,1.45885 ,14.31420 
241 ,46.1469 ,1.20549 ,1.46227 ,14.34778 
242 ,46.3389 ,1.20738 ,1.42805 ,14.01199 
243 ,46.5147 ,1.20920 ,1.42462 ,13.97842 
244 ,46.7069 ,1.21107 ,1.42120 ,13.94484 
245 ,46.8992 ,1.21301 ,1.40751 ,13.81053 
246 ,47.1229 ,1.21514 ,1.38014 ,13.54190 
247 ,47.3150 ,1.21715 ,1.34934 ,13.23969 
248 ,47.4750 ,1.21890 ,1.32880 ,13.03822 
249 ,47.6671 ,1.22062 ,1.34934 ,13.23969 
250 ,47.8592 ,1.22253 ,1.32538 ,13.00465 
251 ,48.0515 ,1.22457 ,1.30827 ,12.83675 
252 ,48.2436 ,1.22643 ,1.30827 ,12.83675 
253 ,48.4358 ,1.22837 ,1.27405 ,12.50097 
254 ,48.6276 ,1.23029 ,1.26378 ,12.40024 
255 ,48.8199 ,1.23219 ,1.26378 ,12.40024 
256 ,49.0119 ,1.23408 ,1.23983 ,12.16519 
257 ,49.2041 ,1.23595 ,1.22956 ,12.06445 
258 ,49.3960 ,1.23795 ,1.21587 ,11.93014 
259 ,49.5720 ,1.23974 ,1.19534 ,11.72867 
260 ,49.7798 ,1.24175 ,1.17823 ,11.56078 
261 ,49.9563 ,1.24360 ,1.17481 ,11.52720 
262 ,50.1324 ,1.24536 ,1.16796 ,11.46004 
263 ,50.3245 ,1.24729 ,1.16454 ,11.42647 
264 ,50.5166 ,1.24913 ,1.13374 ,11.12426 
265 ,50.7086 ,1.25118 ,1.13374 ,11.12426 
266 ,50.8843 ,1.25287 ,1.12005 ,10.98995 
267 ,51.0605 ,1.25462 ,1.09952 ,10.78848 
268 ,51.2526 ,1.25660 ,1.08925 ,10.68774 
269 ,51.4290 ,1.25832 ,1.06872 ,10.48627 
270 ,51.6211 ,1.26016 ,1.07214 ,10.51985 
271 ,51.8129 ,1.26208 ,1.04134 ,10.21765 
272 ,51.9891 ,1.26391 ,1.03792 ,10.18407 
273 ,52.1973 ,1.26587 ,1.02081 ,10.01618 
274 ,52.3894 ,1.26790 ,1.02081 ,10.01618 
275 ,52.5974 ,1.26995 ,0.97290 ,9.54608 
276 ,52.7894 ,1.27185 ,0.97974 ,9.61324 
277 ,52.9971 ,1.27392 ,0.95921 ,9.41177 
278 ,53.1895 ,1.27586 ,0.96605 ,9.47892 
279 ,53.3657 ,1.27769 ,0.94894 ,9.31103 
280 ,53.5738 ,1.27965 ,0.91814 ,9.00883 
281 ,53.7660 ,1.28163 ,0.92499 ,9.07598 
282 ,53.9579 ,1.28352 ,0.89761 ,8.80736 
283 ,54.1340 ,1.28537 ,0.89419 ,8.77378 
284 ,54.3420 ,1.28737 ,0.87708 ,8.60589 
285 ,54.5182 ,1.28916 ,0.85997 ,8.43800 
286 ,54.6942 ,1.29099 ,0.84286 ,8.27011 
287 ,54.8863 ,1.29278 ,0.84970 ,8.33726 
288 ,55.0941 ,1.29483 ,0.81890 ,8.03506 
289 ,55.2865 ,1.29685 ,0.81548 ,8.00148 
290 ,55.4944 ,1.29886 ,0.79152 ,7.76643 
291 ,55.6867 ,1.30078 ,0.79837 ,7.83359 
292 ,55.8945 ,1.30291 ,0.77784 ,7.63212 
293 ,56.0868 ,1.30488 ,0.77099 ,7.56496 
294 ,56.2627 ,1.30667 ,0.74361 ,7.29633 
295 ,56.4549 ,1.30852 ,0.72650 ,7.12844 
296 ,56.6308 ,1.31031 ,0.71966 ,7.06129 
297 ,56.8232 ,1.31222 ,0.71966 ,7.06129 
298 ,56.9990 ,1.31407 ,0.69570 ,6.82624 
299 ,57.1913 ,1.31585 ,0.68544 ,6.72550 
300 ,57.3672 ,1.31770 ,0.68544 ,6.72550 
301 ,57.5592 ,1.31954 ,0.65121 ,6.38972 
302 ,57.7512 ,1.32146 ,0.64095 ,6.28899 
303 ,57.9434 ,1.32337 ,0.63753 ,6.25541 
304 ,58.1356 ,1.32530 ,0.60673 ,5.95320 
305 ,58.3274 ,1.32731 ,0.62042 ,6.08752 
306 ,58.5196 ,1.32915 ,0.60330 ,5.91962 
307 ,58.7116 ,1.33104 ,0.59304 ,5.81889 
308 ,58.9199 ,1.33304 ,0.57935 ,5.68458 
309 ,59.1120 ,1.33512 ,0.54855 ,5.38237 
310 ,59.3041 ,1.33707 ,0.55539 ,5.44953 
311 ,59.4961 ,1.33890 ,0.52117 ,5.11375 
312 ,59.6877 ,1.34086 ,0.52459 ,5.14732 
313 ,59.8638 ,1.34260 ,0.52117 ,5.11375 
314 ,60.0405 ,1.34439 ,0.51091 ,5.01301 
315 ,60.2322 ,1.34624 ,0.49722 ,4.87870 
316 ,60.4085 ,1.34806 ,0.48353 ,4.74438 
317 ,60.6166 ,1.35013 ,0.46300 ,4.54291 
318 ,60.8246 ,1.35219 ,0.46642 ,4.57649 
319 ,61.0166 ,1.35411 ,0.42193 ,4.13997 
320 ,61.2089 ,1.35604 ,0.44246 ,4.34144 
321 ,61.4008 ,1.35795 ,0.43220 ,4.24071 
322 ,61.5765 ,1.35974 ,0.40824 ,4.00566 
323 ,61.7531 ,1.36156 ,0.38429 ,3.77061 
324 ,61.9452 ,1.36334 ,0.39455 ,3.87135 
325 ,62.1371 ,1.36531 ,0.35006 ,3.43483 
326 ,62.3133 ,1.36714 ,0.35349 ,3.46841 
327 ,62.5054 ,1.36901 ,0.37060 ,3.63630 
328 ,62.6814 ,1.37077 ,0.35349 ,3.46841 
329 ,62.8891 ,1.37281 ,0.34322 ,3.36767 
330 ,63.0656 ,1.37461 ,0.32953 ,3.23336 
331 ,63.2415 ,1.37638 ,0.31926 ,3.13263 
332 ,63.4178 ,1.37824 ,0.29531 ,2.89758 
333 ,63.6258 ,1.38012 ,0.29189 ,2.86400 
334 ,63.8340 ,1.38224 ,0.26793 ,2.62895 
335 ,64.0420 ,1.38431 ,0.26793 ,2.62895 
336 ,64.2342 ,1.38621 ,0.25082 ,2.46106 
337 ,64.4262 ,1.38828 ,0.25082 ,2.46106 
338 ,64.6184 ,1.39011 ,0.23029 ,2.25959 
339 ,64.8101 ,1.39208 ,0.21660 ,2.12528 
340 ,65.0186 ,1.39408 ,0.20291 ,1.99096 
341 ,65.2264 ,1.39622 ,0.20291 ,1.99096 
342 ,65.4184 ,1.39809 ,0.18922 ,1.85665 
343 ,65.5947 ,1.39988 ,0.15842 ,1.55445 
344 ,65.7866 ,1.40175 ,0.17896 ,1.75592 
345 ,65.9789 ,1.40367 ,0.14816 ,1.45371 
346 ,66.1870 ,1.40583 ,0.15500 ,1.52087 
347 ,66.3790 ,1.40771 ,0.12420 ,1.21866 
348 ,66.5552 ,1.40950 ,0.12078 ,1.18508 
349 ,66.7471 ,1.41144 ,0.11393 ,1.11793 
350 ,66.9229 ,1.41317 ,0.10709 ,1.05077 
351 ,67.1152 ,1.41507 ,0.08656 ,0.84930 
352 ,67.3075 ,1.41702 ,0.07629 ,0.74857 
353 ,67.4995 ,1.41890 ,0.07287 ,0.71499 
354 ,67.6914 ,1.42081 ,0.05576 ,0.54710 
355 ,67.8675 ,1.42269 ,0.05234 ,0.51352 
356 ,68.0273 ,1.42435 ,0.05576 ,0.54710 
357 ,68.2197 ,1.42607 ,0.03180 ,0.31205 
358 ,68.3958 ,1.42792 ,0.01811 ,0.17773 
359 ,68.5718 ,1.42966 ,0.00785 ,0.07700 
360 ,68.7478 ,1.43145 ,-0.00584 ,-0.05731 
361 ,68.9719 ,1.43354 ,-0.01269 ,-0.12447 
362 ,69.1478 ,1.43549 ,-0.01611 ,-0.15805 
363 ,69.3403 ,1.43727 ,-0.02295 ,-0.22520 
364 ,69.5482 ,1.43939 ,-0.02980 ,-0.29236 
365 ,69.7244 ,1.44125 ,-0.04006 ,-0.39310 
366 ,69.9164 ,1.44313 ,-0.07428 ,-0.72888 
367 ,70.0923 ,1.44483 ,-0.07428 ,-0.72888 
368 ,70.2843 ,1.44678 ,-0.07771 ,-0.76246 
369 ,70.4922 ,1.44880 ,-0.09482 ,-0.93035 
370 ,70.6684 ,1.45063 ,-0.10166 ,-0.99751 
371 ,70.8767 ,1.45263 ,-0.11535 ,-1.13182 
372 ,71.0684 ,1.45460 ,-0.11193 ,-1.09824 
373 ,71.2445 ,1.45635 ,-0.11877 ,-1.16540 
374 ,71.4368 ,1.45826 ,-0.14615 ,-1.43402 
375 ,71.6290 ,1.46016 ,-0.15299 ,-1.50118 
376 ,71.8213 ,1.46209 ,-0.14615 ,-1.43402 
377 ,72.0291 ,1.46414 ,-0.15984 ,-1.56834 
378 ,72.2208 ,1.46614 ,-0.17353 ,-1.70265 
379 ,72.3973 ,1.46788 ,-0.18379 ,-1.80338 
380 ,72.5892 ,1.46983 ,-0.19748 ,-1.93770 
381 ,72.7655 ,1.47164 ,-0.20433 ,-2.00485 
382 ,72.9735 ,1.47365 ,-0.21802 ,-2.13917 
383 ,73.1654 ,1.47548 ,-0.23513 ,-2.30706 
384 ,73.3575 ,1.47750 ,-0.23170 ,-2.27348 
385 ,73.5495 ,1.47939 ,-0.24197 ,-2.37422 
386 ,73.7416 ,1.48134 ,-0.24881 ,-2.44137 
387 ,73.9339 ,1.48319 ,-0.27619 ,-2.71000 
388 ,74.1257 ,1.48513 ,-0.27961 ,-2.74358 
389 ,74.3182 ,1.48707 ,-0.28646 ,-2.81073 
390 ,74.5096 ,1.48904 ,-0.28646 ,-2.81073 
391 ,74.6862 ,1.49079 ,-0.29330 ,-2.87789 
392 ,74.8622 ,1.49258 ,-0.29673 ,-2.91147 
393 ,75.0542 ,1.49439 ,-0.33437 ,-3.28083 
394 ,75.2463 ,1.49631 ,-0.30699 ,-3.01220 
395 ,75.4384 ,1.49824 ,-0.35148 ,-3.44872 
396 ,75.6146 ,1.50015 ,-0.34121 ,-3.34799 
397 ,75.7906 ,1.50181 ,-0.38228 ,-3.75093 
398 ,75.9826 ,1.50366 ,-0.36175 ,-3.54946 
399 ,76.1908 ,1.50567 ,-0.38912 ,-3.81808 
400 ,76.3829 ,1.50767 ,-0.38570 ,-3.78450 
401 ,76.5749 ,1.50963 ,-0.40623 ,-3.98597 
402 ,76.7670 ,1.51153 ,-0.40966 ,-4.01955 
403 ,76.9592 ,1.51357 ,-0.42335 ,-4.15387 
404 ,77.1512 ,1.51538 ,-0.42677 ,-4.18744 
405 ,77.3434 ,1.51732 ,-0.41992 ,-4.12029 
406 ,77.5354 ,1.51917 ,-0.45757 ,-4.48965 
407 ,77.7270 ,1.52115 ,-0.44388 ,-4.35534 
408 ,77.9201 ,1.52304 ,-0.47810 ,-4.69112 
409 ,78.1277 ,1.52513 ,-0.46441 ,-4.55681 
410 ,78.3197 ,1.52704 ,-0.48837 ,-4.79185 
411 ,78.4959 ,1.52890 ,-0.50890 ,-4.99332 
412 ,78.6880 ,1.53074 ,-0.49179 ,-4.82543 
413 ,78.8799 ,1.53265 ,-0.52259 ,-5.12764 
414 ,79.0720 ,1.53468 ,-0.52601 ,-5.16121 
415 ,79.2802 ,1.53660 ,-0.53628 ,-5.26195 
416 ,79.4719 ,1.53854 ,-0.54312 ,-5.32911 
417 ,79.6643 ,1.54051 ,-0.54654 ,-5.36268 
418 ,79.8560 ,1.54243 ,-0.57050 ,-5.59773 
419 ,80.0643 ,1.54441 ,-0.56023 ,-5.49700 
420 ,80.2564 ,1.54647 ,-0.57734 ,-5.66489 
421 ,80.4645 ,1.54845 ,-0.58419 ,-5.73205 
422 ,80.6407 ,1.55031 ,-0.59445 ,-5.83278 
423 ,80.8167 ,1.55208 ,-0.61499 ,-6.03425 
424 ,80.9928 ,1.55387 ,-0.59788 ,-5.86636 
425 ,81.1690 ,1.55561 ,-0.60814 ,-5.96709 
426 ,81.3770 ,1.55763 ,-0.62868 ,-6.16856 
427 ,81.5692 ,1.55954 ,-0.62183 ,-6.10141 
428 ,81.7772 ,1.56165 ,-0.65947 ,-6.47077 
429 ,81.9692 ,1.56367 ,-0.65263 ,-6.40361 
430 ,82.1614 ,1.56552 ,-0.64921 ,-6.37003 
431 ,82.3694 ,1.56754 ,-0.66632 ,-6.53793 
432 ,82.5455 ,1.56939 ,-0.67659 ,-6.63866 
433 ,82.7376 ,1.57126 ,-0.69027 ,-6.77297 
434 ,82.9456 ,1.57327 ,-0.70739 ,-6.94086 
435 ,83.1373 ,1.57524 ,-0.71423 ,-7.00802 
436 ,83.3138 ,1.57705 ,-0.71765 ,-7.04160 
437 ,83.5058 ,1.57887 ,-0.71081 ,-6.97444 
438 ,83.6980 ,1.58076 ,-0.72450 ,-7.10876 
439 ,83.8900 ,1.58283 ,-0.73134 ,-7.17591 
440 ,84.0661 ,1.58457 ,-0.74161 ,-7.27665 
441 ,84.2580 ,1.58648 ,-0.76556 ,-7.51170 
442 ,84.4662 ,1.58847 ,-0.76898 ,-7.54527 
443 ,84.6422 ,1.59030 ,-0.77241 ,-7.57885 
444 ,84.8503 ,1.59231 ,-0.77241 ,-7.57885 
445 ,85.0265 ,1.59417 ,-0.77925 ,-7.64601 
446 ,85.2183 ,1.59602 ,-0.81005 ,-7.94821 
447 ,85.4107 ,1.59793 ,-0.80321 ,-7.88106 
448 ,85.6188 ,1.59997 ,-0.83743 ,-8.21684 
449 ,85.8269 ,1.60199 ,-0.81689 ,-8.01537 
450 ,86.0189 ,1.60405 ,-0.84769 ,-8.31758 
451 ,86.2108 ,1.60594 ,-0.85112 ,-8.35115 
452 ,86.4196 ,1.60806 ,-0.86481 ,-8.48547 
453 ,86.6272 ,1.61013 ,-0.85796 ,-8.41831 
454 ,86.8352 ,1.61216 ,-0.88192 ,-8.65336 
455 ,87.0274 ,1.61414 ,-0.88534 ,-8.68694 
456 ,87.2193 ,1.61611 ,-0.90245 ,-8.85483 
457 ,87.3951 ,1.61784 ,-0.90929 ,-8.92198 
458 ,87.5876 ,1.61969 ,-0.89903 ,-8.82125 
459 ,87.7958 ,1.62174 ,-0.92298 ,-9.05630 
460 ,87.9878 ,1.62373 ,-0.90587 ,-8.88841 
461 ,88.1958 ,1.62576 ,-0.94009 ,-9.22419 
462 ,88.3879 ,1.62771 ,-0.95036 ,-9.32492 
