Data stamp = , 25-04-2022 21:58:00 917

Calibration Values: 
Slope = , 26.54 , g/V 
Offset Voltage at no contact = , -0.501760 , V 

No , Time , Stage Position ,   Mass , Force 
   ,  (s) ,      (mm)      ,   (g)  , (mN)  

1 ,0.0000 ,0.74945 ,5.37381 ,52.72778 
2 ,0.2331 ,0.74955 ,5.37038 ,52.69420 
3 ,0.6334 ,0.75089 ,5.35669 ,52.55988 
4 ,0.8413 ,0.75267 ,5.36012 ,52.59346 
5 ,1.0498 ,0.75458 ,5.38065 ,52.79493 
6 ,1.2580 ,0.75668 ,5.38407 ,52.82851 
7 ,1.4500 ,0.75859 ,5.38065 ,52.79493 
8 ,1.6261 ,0.76048 ,5.36012 ,52.59346 
9 ,1.8181 ,0.76232 ,5.36012 ,52.59346 
10 ,2.0260 ,0.76439 ,5.31221 ,52.12337 
11 ,2.2180 ,0.76632 ,5.30878 ,52.08979 
12 ,2.3945 ,0.76813 ,5.29852 ,51.98905 
13 ,2.6024 ,0.77020 ,5.27114 ,51.72043 
14 ,2.7942 ,0.77208 ,5.26430 ,51.65327 
15 ,2.9866 ,0.77411 ,5.23350 ,51.35107 
16 ,3.1787 ,0.77596 ,5.20270 ,51.04886 
17 ,3.3868 ,0.77807 ,5.19585 ,50.98170 
18 ,3.5946 ,0.78008 ,5.17874 ,50.81381 
19 ,3.7869 ,0.78202 ,5.15821 ,50.61234 
20 ,3.9790 ,0.78387 ,5.14452 ,50.47803 
21 ,4.1546 ,0.78581 ,5.12741 ,50.31014 
22 ,4.3311 ,0.78753 ,5.12399 ,50.27656 
23 ,4.5392 ,0.78949 ,5.10345 ,50.07509 
24 ,4.7471 ,0.79158 ,5.05897 ,49.63857 
25 ,4.9393 ,0.79354 ,5.04870 ,49.53784 
26 ,5.1313 ,0.79545 ,5.02817 ,49.33637 
27 ,5.3235 ,0.79734 ,4.99737 ,49.03416 
28 ,5.5315 ,0.79948 ,4.99394 ,49.00058 
29 ,5.7236 ,0.80141 ,4.95972 ,48.66480 
30 ,5.8998 ,0.80322 ,4.94261 ,48.49691 
31 ,6.1079 ,0.80523 ,4.92550 ,48.32902 
32 ,6.2993 ,0.80715 ,4.89812 ,48.06039 
33 ,6.4762 ,0.80903 ,4.88101 ,47.89250 
34 ,6.6681 ,0.81085 ,4.87075 ,47.79177 
35 ,6.8602 ,0.81273 ,4.85706 ,47.65745 
36 ,7.0683 ,0.81477 ,4.82968 ,47.38883 
37 ,7.2604 ,0.81674 ,4.82284 ,47.32167 
38 ,7.4524 ,0.81865 ,4.80573 ,47.15378 
39 ,7.6442 ,0.82056 ,4.77493 ,46.85157 
40 ,7.8365 ,0.82248 ,4.76124 ,46.71726 
41 ,8.0286 ,0.82438 ,4.74413 ,46.54937 
42 ,8.2207 ,0.82636 ,4.70648 ,46.18001 
43 ,8.4124 ,0.82831 ,4.70306 ,46.14643 
44 ,8.6046 ,0.83018 ,4.68937 ,46.01212 
45 ,8.7969 ,0.83215 ,4.66542 ,45.77707 
46 ,8.9890 ,0.83404 ,4.66542 ,45.77707 
47 ,9.1812 ,0.83589 ,4.62093 ,45.34055 
48 ,9.3731 ,0.83786 ,4.62093 ,45.34055 
49 ,9.5651 ,0.83974 ,4.58328 ,44.97119 
50 ,9.7250 ,0.84156 ,4.56960 ,44.83688 
51 ,9.9013 ,0.84323 ,4.55591 ,44.70256 
52 ,10.1094 ,0.84522 ,4.55249 ,44.66898 
53 ,10.2854 ,0.84704 ,4.53195 ,44.46751 
54 ,10.4615 ,0.84879 ,4.50457 ,44.19889 
55 ,10.6375 ,0.85056 ,4.49089 ,44.06457 
56 ,10.8295 ,0.85235 ,4.49089 ,44.06457 
57 ,11.0378 ,0.85446 ,4.46009 ,43.76237 
58 ,11.2135 ,0.85634 ,4.45666 ,43.72879 
59 ,11.4056 ,0.85815 ,4.41560 ,43.32585 
60 ,11.5821 ,0.85999 ,4.39849 ,43.15796 
61 ,11.7900 ,0.86204 ,4.40533 ,43.22512 
62 ,11.9981 ,0.86411 ,4.35742 ,42.75502 
63 ,12.1903 ,0.86604 ,4.35400 ,42.72144 
64 ,12.3981 ,0.86813 ,4.31978 ,42.38566 
65 ,12.5744 ,0.86990 ,4.30609 ,42.25135 
66 ,12.7661 ,0.87184 ,4.30609 ,42.25135 
67 ,12.9747 ,0.87385 ,4.27529 ,41.94914 
68 ,13.1669 ,0.87579 ,4.25476 ,41.74767 
69 ,13.3587 ,0.87774 ,4.23422 ,41.54620 
70 ,13.5508 ,0.87966 ,4.22053 ,41.41189 
71 ,13.7431 ,0.88153 ,4.20685 ,41.27758 
72 ,13.9351 ,0.88347 ,4.17947 ,41.00895 
73 ,14.1271 ,0.88542 ,4.17605 ,40.97537 
74 ,14.3031 ,0.88721 ,4.15209 ,40.74032 
75 ,14.5113 ,0.88909 ,4.12471 ,40.47170 
76 ,14.7034 ,0.89125 ,4.09734 ,40.20307 
77 ,14.8790 ,0.89296 ,4.08707 ,40.10233 
78 ,15.0712 ,0.89484 ,4.08365 ,40.06876 
79 ,15.2797 ,0.89694 ,4.04943 ,39.73297 
80 ,15.4716 ,0.89883 ,4.05627 ,39.80013 
81 ,15.6798 ,0.90090 ,4.01178 ,39.36361 
82 ,15.8718 ,0.90282 ,4.01520 ,39.39719 
83 ,16.0480 ,0.90466 ,3.99467 ,39.19572 
84 ,16.2557 ,0.90663 ,3.96729 ,38.92709 
85 ,16.4318 ,0.90849 ,3.94334 ,38.69205 
86 ,16.6080 ,0.91029 ,3.93992 ,38.65847 
87 ,16.7843 ,0.91204 ,3.92623 ,38.52415 
88 ,16.9921 ,0.91400 ,3.90570 ,38.32268 
89 ,17.1522 ,0.91578 ,3.89201 ,38.18837 
90 ,17.3604 ,0.91760 ,3.87832 ,38.05406 
91 ,17.5525 ,0.91960 ,3.84752 ,37.75185 
92 ,17.7446 ,0.92154 ,3.83725 ,37.65112 
93 ,17.9367 ,0.92349 ,3.81330 ,37.41607 
94 ,18.1124 ,0.92533 ,3.80303 ,37.31534 
95 ,18.3369 ,0.92740 ,3.77223 ,37.01313 
96 ,18.5448 ,0.92954 ,3.76196 ,36.91240 
97 ,18.7370 ,0.93145 ,3.72432 ,36.54303 
98 ,18.9289 ,0.93345 ,3.72774 ,36.57661 
99 ,19.1372 ,0.93543 ,3.68668 ,36.17367 
100 ,19.3290 ,0.93747 ,3.69010 ,36.20725 
101 ,19.5052 ,0.93929 ,3.67299 ,36.03936 
102 ,19.6971 ,0.94106 ,3.63534 ,35.67000 
103 ,19.8736 ,0.94286 ,3.64561 ,35.77073 
104 ,20.0656 ,0.94477 ,3.62166 ,35.53569 
105 ,20.2416 ,0.94671 ,3.58743 ,35.19990 
106 ,20.4336 ,0.94842 ,3.58401 ,35.16632 
107 ,20.6259 ,0.95038 ,3.56348 ,34.96485 
108 ,20.8178 ,0.95228 ,3.53952 ,34.72981 
109 ,21.0099 ,0.95423 ,3.54295 ,34.76338 
110 ,21.1860 ,0.95598 ,3.52241 ,34.56192 
111 ,21.3936 ,0.95798 ,3.49504 ,34.29329 
112 ,21.5862 ,0.95990 ,3.49161 ,34.25971 
113 ,21.7783 ,0.96186 ,3.45397 ,33.89035 
114 ,21.9863 ,0.96385 ,3.44713 ,33.82319 
115 ,22.1785 ,0.96591 ,3.41290 ,33.48741 
116 ,22.3705 ,0.96780 ,3.43001 ,33.65530 
117 ,22.5625 ,0.96981 ,3.38895 ,33.25236 
118 ,22.7545 ,0.97164 ,3.37184 ,33.08447 
119 ,22.9467 ,0.97353 ,3.37184 ,33.08447 
120 ,23.1548 ,0.97562 ,3.33762 ,32.74869 
121 ,23.3468 ,0.97754 ,3.33762 ,32.74869 
122 ,23.5385 ,0.97945 ,3.29997 ,32.37933 
123 ,23.7150 ,0.98133 ,3.29655 ,32.34575 
124 ,23.8907 ,0.98306 ,3.26575 ,32.04354 
125 ,24.0833 ,0.98497 ,3.26917 ,32.07712 
126 ,24.2752 ,0.98694 ,3.25206 ,31.90923 
127 ,24.4513 ,0.98866 ,3.22126 ,31.60702 
128 ,24.6430 ,0.99048 ,3.21100 ,31.50629 
129 ,24.8191 ,0.99230 ,3.18362 ,31.23766 
130 ,24.9954 ,0.99407 ,3.16993 ,31.10335 
131 ,25.1716 ,0.99583 ,3.15282 ,30.93546 
132 ,25.3636 ,0.99770 ,3.16651 ,31.06977 
133 ,25.5555 ,0.99961 ,3.11518 ,30.56610 
134 ,25.7477 ,1.00149 ,3.13229 ,30.73399 
135 ,25.9239 ,1.00340 ,3.09464 ,30.36463 
136 ,26.0997 ,1.00510 ,3.08438 ,30.26389 
137 ,26.2756 ,1.00689 ,3.06726 ,30.09600 
138 ,26.4521 ,1.00864 ,3.04331 ,29.86095 
139 ,26.6440 ,1.01052 ,3.05358 ,29.96169 
140 ,26.8362 ,1.01246 ,3.02278 ,29.65948 
141 ,27.0604 ,1.01458 ,2.98855 ,29.32370 
142 ,27.2523 ,1.01663 ,2.97144 ,29.15581 
143 ,27.4284 ,1.01842 ,2.95433 ,28.98792 
144 ,27.6366 ,1.02041 ,2.93722 ,28.82003 
145 ,27.8283 ,1.02230 ,2.94064 ,28.85360 
146 ,28.0206 ,1.02427 ,2.93038 ,28.75287 
147 ,28.1964 ,1.02610 ,2.92011 ,28.65213 
148 ,28.3730 ,1.02784 ,2.87905 ,28.24919 
149 ,28.5650 ,1.02976 ,2.87905 ,28.24919 
150 ,28.7570 ,1.03164 ,2.85509 ,28.01415 
151 ,28.9327 ,1.03348 ,2.83798 ,27.84625 
152 ,29.1252 ,1.03530 ,2.82771 ,27.74552 
153 ,29.3331 ,1.03740 ,2.79691 ,27.44332 
154 ,29.5253 ,1.03928 ,2.78665 ,27.34258 
155 ,29.7332 ,1.04138 ,2.76611 ,27.14111 
156 ,29.9254 ,1.04333 ,2.75927 ,27.07395 
157 ,30.1334 ,1.04536 ,2.72505 ,26.73817 
158 ,30.3256 ,1.04740 ,2.72505 ,26.73817 
159 ,30.5016 ,1.04908 ,2.71820 ,26.67101 
160 ,30.6779 ,1.05088 ,2.70109 ,26.50312 
161 ,30.8539 ,1.05266 ,2.66345 ,26.13376 
162 ,31.0459 ,1.05451 ,2.67029 ,26.20092 
163 ,31.2381 ,1.05647 ,2.64976 ,25.99945 
164 ,31.4462 ,1.05854 ,2.62238 ,25.73082 
165 ,31.6541 ,1.06058 ,2.60527 ,25.56293 
166 ,31.8463 ,1.06250 ,2.60185 ,25.52935 
167 ,32.0222 ,1.06432 ,2.58816 ,25.39504 
168 ,32.2145 ,1.06622 ,2.57105 ,25.22715 
169 ,32.3906 ,1.06804 ,2.54367 ,24.95852 
170 ,32.5828 ,1.06988 ,2.53683 ,24.89136 
171 ,32.7748 ,1.07180 ,2.50261 ,24.55558 
172 ,32.9988 ,1.07407 ,2.50945 ,24.62274 
173 ,33.1748 ,1.07585 ,2.47523 ,24.28696 
174 ,33.3670 ,1.07778 ,2.46154 ,24.15264 
175 ,33.5592 ,1.07971 ,2.45470 ,24.08549 
176 ,33.7511 ,1.08162 ,2.43074 ,23.85044 
177 ,33.9430 ,1.08346 ,2.43074 ,23.85044 
178 ,34.1351 ,1.08538 ,2.39994 ,23.54823 
179 ,34.3270 ,1.08731 ,2.37941 ,23.34676 
180 ,34.5190 ,1.08928 ,2.37599 ,23.31318 
181 ,34.7110 ,1.09113 ,2.34861 ,23.04456 
182 ,34.9030 ,1.09305 ,2.33492 ,22.91024 
183 ,35.0798 ,1.09493 ,2.33492 ,22.91024 
184 ,35.2717 ,1.09677 ,2.31439 ,22.70877 
185 ,35.4633 ,1.09865 ,2.30070 ,22.57446 
186 ,35.6399 ,1.10050 ,2.28701 ,22.44015 
187 ,35.8639 ,1.10268 ,2.25621 ,22.13794 
188 ,36.0561 ,1.10459 ,2.24937 ,22.07079 
189 ,36.2480 ,1.10647 ,2.20830 ,21.66785 
190 ,36.4402 ,1.10852 ,2.20488 ,21.63427 
191 ,36.6322 ,1.11035 ,2.18777 ,21.46638 
192 ,36.8242 ,1.11226 ,2.17750 ,21.36564 
193 ,37.0164 ,1.11418 ,2.17408 ,21.33206 
194 ,37.2085 ,1.11614 ,2.13986 ,20.99628 
195 ,37.3846 ,1.11793 ,2.12959 ,20.89555 
196 ,37.5764 ,1.11980 ,2.11248 ,20.72766 
197 ,37.7688 ,1.12169 ,2.09879 ,20.59334 
198 ,37.9608 ,1.12367 ,2.09879 ,20.59334 
199 ,38.1526 ,1.12557 ,2.06457 ,20.25756 
200 ,38.3291 ,1.12735 ,2.05773 ,20.19040 
201 ,38.5211 ,1.12923 ,2.04746 ,20.08967 
202 ,38.7128 ,1.13111 ,2.01666 ,19.78746 
203 ,38.8892 ,1.13297 ,2.01324 ,19.75388 
204 ,39.0815 ,1.13487 ,1.99613 ,19.58599 
205 ,39.2734 ,1.13673 ,1.97902 ,19.41810 
206 ,39.4652 ,1.13869 ,1.95506 ,19.18305 
207 ,39.6577 ,1.14058 ,1.97217 ,19.35094 
208 ,39.8333 ,1.14246 ,1.93111 ,18.94801 
209 ,40.0257 ,1.14425 ,1.91399 ,18.78011 
210 ,40.2179 ,1.14621 ,1.92426 ,18.88085 
211 ,40.4100 ,1.14815 ,1.90031 ,18.64580 
212 ,40.6020 ,1.15006 ,1.86951 ,18.34360 
213 ,40.7937 ,1.15194 ,1.85240 ,18.17570 
214 ,40.9861 ,1.15389 ,1.83528 ,18.00781 
215 ,41.1942 ,1.15593 ,1.82844 ,17.94066 
216 ,41.5620 ,1.15968 ,1.79080 ,17.57129 
217 ,41.7542 ,1.16153 ,1.79422 ,17.60487 
218 ,41.9299 ,1.16342 ,1.76000 ,17.26909 
219 ,42.1066 ,1.16514 ,1.74973 ,17.16836 
220 ,42.2987 ,1.16699 ,1.75315 ,17.20193 
221 ,42.4905 ,1.16893 ,1.73604 ,17.03404 
222 ,42.6663 ,1.17074 ,1.69840 ,16.66468 
223 ,42.8585 ,1.17257 ,1.69840 ,16.66468 
224 ,43.0186 ,1.17434 ,1.68813 ,16.56395 
225 ,43.1949 ,1.17600 ,1.68129 ,16.49679 
226 ,43.3711 ,1.17778 ,1.65733 ,16.26174 
227 ,43.5632 ,1.17964 ,1.63680 ,16.06027 
228 ,43.7393 ,1.18148 ,1.63338 ,16.02669 
229 ,43.9471 ,1.18346 ,1.60258 ,15.72449 
230 ,44.1554 ,1.18553 ,1.60258 ,15.72449 
231 ,44.3634 ,1.18759 ,1.57862 ,15.48944 
232 ,44.5716 ,1.18976 ,1.58547 ,15.55660 
233 ,44.7636 ,1.19157 ,1.55467 ,15.25439 
234 ,44.9398 ,1.19349 ,1.54440 ,15.15366 
235 ,45.1314 ,1.19531 ,1.53071 ,15.01934 
236 ,45.3237 ,1.19725 ,1.50333 ,14.75072 
237 ,45.5319 ,1.19935 ,1.49991 ,14.71714 
238 ,45.7242 ,1.20123 ,1.47596 ,14.48209 
239 ,45.9162 ,1.20315 ,1.48622 ,14.58283 
240 ,46.1083 ,1.20505 ,1.45542 ,14.28062 
241 ,46.3161 ,1.20713 ,1.44858 ,14.21346 
242 ,46.5085 ,1.20914 ,1.43831 ,14.11273 
243 ,46.7003 ,1.21104 ,1.41436 ,13.87768 
244 ,46.8926 ,1.21292 ,1.39725 ,13.70979 
245 ,47.0845 ,1.21483 ,1.38356 ,13.57548 
246 ,47.2603 ,1.21671 ,1.38698 ,13.60906 
247 ,47.4688 ,1.21856 ,1.37329 ,13.47474 
248 ,47.6770 ,1.22073 ,1.35276 ,13.27327 
249 ,47.8690 ,1.22271 ,1.33223 ,13.07180 
250 ,48.0610 ,1.22464 ,1.30827 ,12.83675 
251 ,48.2372 ,1.22645 ,1.30485 ,12.80318 
252 ,48.4450 ,1.22843 ,1.27405 ,12.50097 
253 ,48.6374 ,1.23043 ,1.27405 ,12.50097 
254 ,48.8293 ,1.23228 ,1.25694 ,12.33308 
255 ,49.0054 ,1.23404 ,1.23983 ,12.16519 
256 ,49.1976 ,1.23596 ,1.24667 ,12.23235 
257 ,49.4054 ,1.23793 ,1.22614 ,12.03088 
258 ,49.5978 ,1.23999 ,1.20561 ,11.82941 
259 ,49.8055 ,1.24204 ,1.18507 ,11.62794 
260 ,49.9820 ,1.24382 ,1.17481 ,11.52720 
261 ,50.1896 ,1.24588 ,1.16454 ,11.42647 
262 ,50.3660 ,1.24771 ,1.15085 ,11.29215 
263 ,50.5577 ,1.24959 ,1.13374 ,11.12426 
264 ,50.7342 ,1.25137 ,1.14058 ,11.19142 
265 ,50.9422 ,1.25341 ,1.10294 ,10.82206 
266 ,51.1184 ,1.25520 ,1.10636 ,10.85563 
267 ,51.3104 ,1.25713 ,1.09952 ,10.78848 
268 ,51.5025 ,1.25905 ,1.06530 ,10.45270 
269 ,51.6944 ,1.26087 ,1.07556 ,10.55343 
270 ,51.8867 ,1.26284 ,1.04819 ,10.28480 
271 ,52.0784 ,1.26474 ,1.04134 ,10.21765 
272 ,52.2705 ,1.26669 ,1.03108 ,10.11691 
273 ,52.4629 ,1.26860 ,1.00028 ,9.81471 
274 ,52.6707 ,1.27068 ,1.00370 ,9.84829 
275 ,52.8630 ,1.27259 ,0.96948 ,9.51250 
276 ,53.0390 ,1.27437 ,0.97974 ,9.61324 
277 ,53.2309 ,1.27625 ,0.96605 ,9.47892 
278 ,53.4393 ,1.27836 ,0.95579 ,9.37819 
279 ,53.6313 ,1.28027 ,0.94210 ,9.24388 
280 ,53.8233 ,1.28217 ,0.90103 ,8.84094 
281 ,53.9994 ,1.28402 ,0.90103 ,8.84094 
282 ,54.2073 ,1.28606 ,0.88392 ,8.67305 
283 ,54.3996 ,1.28801 ,0.86681 ,8.50515 
284 ,54.5758 ,1.28973 ,0.87023 ,8.53873 
285 ,54.7678 ,1.29167 ,0.85312 ,8.37084 
286 ,54.9279 ,1.29341 ,0.84286 ,8.27011 
287 ,55.1200 ,1.29520 ,0.82575 ,8.10221 
288 ,55.3120 ,1.29706 ,0.83259 ,8.16937 
289 ,55.5202 ,1.29903 ,0.78810 ,7.73285 
290 ,55.7122 ,1.30107 ,0.81548 ,8.00148 
291 ,55.9040 ,1.30303 ,0.77784 ,7.63212 
292 ,56.0963 ,1.30492 ,0.77099 ,7.56496 
293 ,56.2725 ,1.30674 ,0.77099 ,7.56496 
294 ,56.4484 ,1.30851 ,0.75388 ,7.39707 
295 ,56.6566 ,1.31056 ,0.73677 ,7.22918 
296 ,56.8645 ,1.31259 ,0.70255 ,6.89340 
297 ,57.0404 ,1.31447 ,0.71966 ,7.06129 
298 ,57.2168 ,1.31619 ,0.69570 ,6.82624 
299 ,57.4090 ,1.31810 ,0.68886 ,6.75908 
300 ,57.6010 ,1.31995 ,0.67175 ,6.59119 
301 ,57.7930 ,1.32192 ,0.67175 ,6.59119 
302 ,57.9691 ,1.32368 ,0.66148 ,6.49046 
303 ,58.1611 ,1.32553 ,0.62384 ,6.12109 
304 ,58.3534 ,1.32747 ,0.62726 ,6.15467 
305 ,58.5454 ,1.32936 ,0.60330 ,5.91962 
306 ,58.7374 ,1.33136 ,0.59646 ,5.85247 
307 ,58.9133 ,1.33314 ,0.58619 ,5.75173 
308 ,59.1213 ,1.33514 ,0.57251 ,5.61742 
309 ,59.3132 ,1.33706 ,0.57593 ,5.65100 
310 ,59.4895 ,1.33887 ,0.55882 ,5.48311 
311 ,59.6820 ,1.34082 ,0.53486 ,5.24806 
312 ,59.9057 ,1.34288 ,0.51433 ,5.04659 
313 ,60.0980 ,1.34487 ,0.51091 ,5.01301 
314 ,60.2740 ,1.34675 ,0.50748 ,4.97943 
315 ,60.4500 ,1.34849 ,0.49380 ,4.84512 
316 ,60.6258 ,1.35022 ,0.47668 ,4.67723 
317 ,60.8024 ,1.35203 ,0.46642 ,4.57649 
318 ,60.9786 ,1.35379 ,0.44931 ,4.40860 
319 ,61.1544 ,1.35559 ,0.46642 ,4.57649 
320 ,61.3301 ,1.35728 ,0.43904 ,4.30787 
321 ,61.5066 ,1.35903 ,0.42877 ,4.20713 
322 ,61.6986 ,1.36098 ,0.40824 ,4.00566 
323 ,61.8747 ,1.36273 ,0.41166 ,4.03924 
324 ,62.0668 ,1.36456 ,0.40482 ,3.97208 
325 ,62.2746 ,1.36671 ,0.38429 ,3.77061 
326 ,62.4509 ,1.36847 ,0.37402 ,3.66988 
327 ,62.6271 ,1.37028 ,0.36375 ,3.56914 
328 ,62.8350 ,1.37223 ,0.35349 ,3.46841 
329 ,63.0110 ,1.37408 ,0.35006 ,3.43483 
330 ,63.2193 ,1.37599 ,0.32269 ,3.16620 
331 ,63.4273 ,1.37813 ,0.32953 ,3.23336 
332 ,63.6194 ,1.38010 ,0.28504 ,2.79684 
333 ,63.8116 ,1.38207 ,0.30558 ,2.99831 
334 ,64.0036 ,1.38393 ,0.27135 ,2.66253 
335 ,64.1957 ,1.38592 ,0.26793 ,2.62895 
336 ,64.3718 ,1.38774 ,0.26793 ,2.62895 
337 ,64.5475 ,1.38942 ,0.25424 ,2.49464 
338 ,64.7399 ,1.39132 ,0.22687 ,2.22601 
339 ,64.9156 ,1.39315 ,0.22002 ,2.15885 
340 ,65.1081 ,1.39492 ,0.22687 ,2.22601 
341 ,65.3000 ,1.39691 ,0.20291 ,1.99096 
342 ,65.4764 ,1.39876 ,0.18238 ,1.78949 
343 ,65.6841 ,1.40071 ,0.16869 ,1.65518 
344 ,65.8604 ,1.40259 ,0.16185 ,1.58802 
345 ,66.0524 ,1.40444 ,0.15842 ,1.55445 
346 ,66.2285 ,1.40631 ,0.16185 ,1.58802 
347 ,66.4365 ,1.40829 ,0.13105 ,1.28582 
348 ,66.6124 ,1.41013 ,0.13789 ,1.35298 
349 ,66.7884 ,1.41183 ,0.12420 ,1.21866 
350 ,66.9647 ,1.41367 ,0.08314 ,0.81572 
351 ,67.1408 ,1.41536 ,0.10025 ,0.98361 
352 ,67.3330 ,1.41724 ,0.08656 ,0.84930 
353 ,67.5410 ,1.41932 ,0.06602 ,0.64783 
354 ,67.7332 ,1.42120 ,0.06945 ,0.68141 
355 ,67.9250 ,1.42314 ,0.06945 ,0.68141 
356 ,68.1333 ,1.42524 ,0.03522 ,0.34563 
357 ,68.3252 ,1.42715 ,0.02496 ,0.24489 
358 ,68.5014 ,1.42899 ,0.02838 ,0.27847 
359 ,68.6934 ,1.43085 ,0.00785 ,0.07700 
360 ,68.8691 ,1.43263 ,0.01469 ,0.14416 
361 ,69.0616 ,1.43457 ,-0.01611 ,-0.15805 
362 ,69.2538 ,1.43649 ,-0.01611 ,-0.15805 
363 ,69.4458 ,1.43836 ,-0.02637 ,-0.25878 
364 ,69.6378 ,1.44034 ,-0.05033 ,-0.49383 
365 ,69.8140 ,1.44208 ,-0.05375 ,-0.52741 
366 ,69.9897 ,1.44383 ,-0.05375 ,-0.52741 
367 ,70.1660 ,1.44560 ,-0.05033 ,-0.49383 
368 ,70.3580 ,1.44743 ,-0.08455 ,-0.82961 
369 ,70.5501 ,1.44942 ,-0.08797 ,-0.86319 
370 ,70.7423 ,1.45133 ,-0.08455 ,-0.82961 
371 ,70.9342 ,1.45323 ,-0.11535 ,-1.13182 
372 ,71.1264 ,1.45512 ,-0.10508 ,-1.03108 
373 ,71.3345 ,1.45721 ,-0.12219 ,-1.19898 
374 ,71.5267 ,1.45913 ,-0.11877 ,-1.16540 
375 ,71.7187 ,1.46116 ,-0.15642 ,-1.53476 
376 ,71.8948 ,1.46291 ,-0.15299 ,-1.50118 
377 ,72.0866 ,1.46479 ,-0.15642 ,-1.53476 
378 ,72.2787 ,1.46672 ,-0.17695 ,-1.73623 
379 ,72.4708 ,1.46860 ,-0.19064 ,-1.87054 
380 ,72.6632 ,1.47057 ,-0.18722 ,-1.83696 
381 ,72.8872 ,1.47266 ,-0.20775 ,-2.03843 
382 ,73.0633 ,1.47458 ,-0.20775 ,-2.03843 
383 ,73.2394 ,1.47630 ,-0.22828 ,-2.23990 
384 ,73.4153 ,1.47814 ,-0.23170 ,-2.27348 
385 ,73.5916 ,1.47984 ,-0.24197 ,-2.37422 
386 ,73.7837 ,1.48171 ,-0.24197 ,-2.37422 
387 ,73.9756 ,1.48359 ,-0.26593 ,-2.60926 
388 ,74.1678 ,1.48560 ,-0.25908 ,-2.54211 
389 ,74.3596 ,1.48748 ,-0.28304 ,-2.77716 
390 ,74.5519 ,1.48937 ,-0.29673 ,-2.91147 
391 ,74.7439 ,1.49128 ,-0.29330 ,-2.87789 
392 ,74.9202 ,1.49313 ,-0.30357 ,-2.97863 
393 ,75.1122 ,1.49500 ,-0.33095 ,-3.24725 
394 ,75.3039 ,1.49694 ,-0.31041 ,-3.04578 
395 ,75.4963 ,1.49879 ,-0.34806 ,-3.41514 
396 ,75.6885 ,1.50080 ,-0.34806 ,-3.41514 
397 ,75.8805 ,1.50267 ,-0.35490 ,-3.48230 
398 ,76.0727 ,1.50459 ,-0.37544 ,-3.68377 
399 ,76.2646 ,1.50652 ,-0.37201 ,-3.65019 
400 ,76.4727 ,1.50863 ,-0.38228 ,-3.75093 
401 ,76.6648 ,1.51047 ,-0.38570 ,-3.78450 
402 ,76.8565 ,1.51240 ,-0.40623 ,-3.98597 
403 ,77.0324 ,1.51423 ,-0.41992 ,-4.12029 
404 ,77.2249 ,1.51608 ,-0.40623 ,-3.98597 
405 ,77.4649 ,1.51848 ,-0.45414 ,-4.45607 
406 ,77.6572 ,1.52048 ,-0.43361 ,-4.25460 
407 ,77.8332 ,1.52224 ,-0.45757 ,-4.48965 
408 ,78.0095 ,1.52401 ,-0.47126 ,-4.62396 
409 ,78.2015 ,1.52587 ,-0.46783 ,-4.59038 
410 ,78.3774 ,1.52768 ,-0.48837 ,-4.79185 
411 ,78.5692 ,1.52954 ,-0.49521 ,-4.85901 
412 ,78.7615 ,1.53145 ,-0.49179 ,-4.82543 
413 ,78.9698 ,1.53352 ,-0.50548 ,-4.95975 
414 ,79.1616 ,1.53546 ,-0.51917 ,-5.09406 
415 ,79.3539 ,1.53740 ,-0.54312 ,-5.32911 
416 ,79.5457 ,1.53931 ,-0.54312 ,-5.32911 
417 ,79.7060 ,1.54109 ,-0.52259 ,-5.12764 
418 ,79.8821 ,1.54272 ,-0.53970 ,-5.29553 
419 ,80.0582 ,1.54453 ,-0.56365 ,-5.53058 
420 ,80.2502 ,1.54634 ,-0.57392 ,-5.63131 
421 ,80.4744 ,1.54858 ,-0.58077 ,-5.69847 
422 ,80.6823 ,1.55068 ,-0.58077 ,-5.69847 
423 ,80.8906 ,1.55278 ,-0.60472 ,-5.93352 
424 ,81.0988 ,1.55482 ,-0.60814 ,-5.96709 
425 ,81.2908 ,1.55676 ,-0.62183 ,-6.10141 
426 ,81.4986 ,1.55883 ,-0.61156 ,-6.00067 
427 ,81.6911 ,1.56078 ,-0.64921 ,-6.37003 
428 ,81.8832 ,1.56266 ,-0.63894 ,-6.26930 
429 ,82.0910 ,1.56476 ,-0.65947 ,-6.47077 
430 ,82.2671 ,1.56662 ,-0.64921 ,-6.37003 
431 ,82.4593 ,1.56845 ,-0.66290 ,-6.50435 
432 ,82.6511 ,1.57036 ,-0.69370 ,-6.80655 
433 ,82.8430 ,1.57232 ,-0.68685 ,-6.73940 
434 ,83.0354 ,1.57418 ,-0.71081 ,-6.97444 
435 ,83.2116 ,1.57601 ,-0.70739 ,-6.94086 
436 ,83.4035 ,1.57794 ,-0.71081 ,-6.97444 
437 ,83.5957 ,1.57977 ,-0.72450 ,-7.10876 
438 ,83.8039 ,1.58189 ,-0.72107 ,-7.07518 
439 ,84.0119 ,1.58394 ,-0.74503 ,-7.31023 
440 ,84.1881 ,1.58578 ,-0.75872 ,-7.44454 
441 ,84.3959 ,1.58780 ,-0.77583 ,-7.61243 
442 ,84.5720 ,1.58967 ,-0.78610 ,-7.71317 
443 ,84.7482 ,1.59139 ,-0.78610 ,-7.71317 
444 ,84.9559 ,1.59331 ,-0.78610 ,-7.71317 
445 ,85.1322 ,1.59522 ,-0.80663 ,-7.91464 
446 ,85.3240 ,1.59709 ,-0.81005 ,-7.94821 
447 ,85.5003 ,1.59888 ,-0.79636 ,-7.81390 
448 ,85.6764 ,1.60066 ,-0.82374 ,-8.08253 
449 ,85.8685 ,1.60260 ,-0.83058 ,-8.14968 
450 ,86.0442 ,1.60433 ,-0.82716 ,-8.11611 
451 ,86.2206 ,1.60611 ,-0.84769 ,-8.31758 
452 ,86.4287 ,1.60815 ,-0.86823 ,-8.51904 
453 ,86.6364 ,1.61018 ,-0.87165 ,-8.55262 
454 ,86.8129 ,1.61200 ,-0.86823 ,-8.51904 
455 ,87.0209 ,1.61404 ,-0.86481 ,-8.48547 
456 ,87.2127 ,1.61596 ,-0.90245 ,-8.85483 
457 ,87.4051 ,1.61787 ,-0.89560 ,-8.78767 
458 ,87.6131 ,1.61996 ,-0.91614 ,-8.98914 
459 ,87.7894 ,1.62178 ,-0.91956 ,-9.02272 
460 ,88.0292 ,1.62391 ,-0.91956 ,-9.02272 
461 ,88.2375 ,1.62614 ,-0.93325 ,-9.15703 
462 ,88.4298 ,1.62815 ,-0.95036 ,-9.32492 
463 ,88.6376 ,1.63015 ,-0.94009 ,-9.22419 
