Data stamp = , 25-04-2022 17:22:19 612

Calibration Values: 
Slope = , 26.54 , g/V 
Offset Voltage at no contact = , -0.501760 , V 

No , Time , Stage Position ,   Mass , Force 
   ,  (s) ,      (mm)      ,   (g)  , (mN)  

1 ,0.0000 ,0.74945 ,5.37038 ,52.69420 
2 ,0.2931 ,0.74965 ,5.36354 ,52.62704 
3 ,0.6615 ,0.75096 ,5.36012 ,52.59346 
4 ,0.8697 ,0.75287 ,5.36696 ,52.66062 
5 ,1.0618 ,0.75477 ,5.36354 ,52.62704 
6 ,1.2540 ,0.75673 ,5.36696 ,52.66062 
7 ,1.4300 ,0.75845 ,5.38065 ,52.79493 
8 ,1.6222 ,0.76041 ,5.35669 ,52.55988 
9 ,1.8143 ,0.76229 ,5.35327 ,52.52631 
10 ,2.0064 ,0.76425 ,5.31563 ,52.15694 
11 ,2.1984 ,0.76615 ,5.29852 ,51.98905 
12 ,2.4061 ,0.76825 ,5.28141 ,51.82116 
13 ,2.5984 ,0.77014 ,5.25403 ,51.55254 
14 ,2.7906 ,0.77210 ,5.25403 ,51.55254 
15 ,2.9666 ,0.77386 ,5.24034 ,51.41822 
16 ,3.1428 ,0.77570 ,5.20954 ,51.11602 
17 ,3.3348 ,0.77755 ,5.19243 ,50.94813 
18 ,3.5265 ,0.77957 ,5.16163 ,50.64592 
19 ,3.7349 ,0.78138 ,5.14110 ,50.44445 
20 ,3.9272 ,0.78345 ,5.13425 ,50.37729 
21 ,4.1191 ,0.78537 ,5.11372 ,50.17583 
22 ,4.2953 ,0.78714 ,5.09661 ,50.00793 
23 ,4.4873 ,0.78899 ,5.07265 ,49.77289 
24 ,4.6953 ,0.79109 ,5.05212 ,49.57142 
25 ,4.8874 ,0.79303 ,5.04870 ,49.53784 
26 ,5.0795 ,0.79495 ,5.01106 ,49.16848 
27 ,5.2555 ,0.79673 ,5.00763 ,49.13490 
28 ,5.4474 ,0.79861 ,4.98026 ,48.86627 
29 ,5.6553 ,0.80069 ,4.96657 ,48.73196 
30 ,5.8478 ,0.80263 ,4.95972 ,48.66480 
31 ,6.0555 ,0.80473 ,4.92550 ,48.32902 
32 ,6.2317 ,0.80654 ,4.92208 ,48.29544 
33 ,6.4240 ,0.80843 ,4.88101 ,47.89250 
34 ,6.6155 ,0.81027 ,4.87759 ,47.85892 
35 ,6.7922 ,0.81212 ,4.83652 ,47.45598 
36 ,6.9681 ,0.81390 ,4.83652 ,47.45598 
37 ,7.1599 ,0.81572 ,4.81257 ,47.22093 
38 ,7.3524 ,0.81769 ,4.80573 ,47.15378 
39 ,7.5444 ,0.81957 ,4.76466 ,46.75084 
40 ,7.7204 ,0.82139 ,4.76124 ,46.71726 
41 ,7.8965 ,0.82318 ,4.75097 ,46.61653 
42 ,8.0726 ,0.82493 ,4.73044 ,46.41506 
43 ,8.2646 ,0.82692 ,4.69964 ,46.11285 
44 ,8.4729 ,0.82874 ,4.68937 ,46.01212 
45 ,8.6648 ,0.83091 ,4.65173 ,45.64275 
46 ,8.8566 ,0.83269 ,4.64831 ,45.60918 
47 ,9.0491 ,0.83470 ,4.64488 ,45.57560 
48 ,9.2412 ,0.83655 ,4.59697 ,45.10550 
49 ,9.4491 ,0.83865 ,4.60040 ,45.13908 
50 ,9.6410 ,0.84053 ,4.56275 ,44.76972 
51 ,9.8174 ,0.84237 ,4.55933 ,44.73614 
52 ,9.9929 ,0.84425 ,4.55591 ,44.70256 
53 ,10.1853 ,0.84599 ,4.51826 ,44.33320 
54 ,10.3775 ,0.84801 ,4.52169 ,44.36678 
55 ,10.5697 ,0.84980 ,4.49089 ,44.06457 
56 ,10.7617 ,0.85177 ,4.46693 ,43.82953 
57 ,10.9697 ,0.85381 ,4.45666 ,43.72879 
58 ,11.1455 ,0.85561 ,4.44298 ,43.59448 
59 ,11.3379 ,0.85747 ,4.40533 ,43.22512 
60 ,11.5301 ,0.85940 ,4.40533 ,43.22512 
61 ,11.7222 ,0.86147 ,4.37453 ,42.92291 
62 ,11.8982 ,0.86321 ,4.35058 ,42.68786 
63 ,12.1060 ,0.86515 ,4.33689 ,42.55355 
64 ,12.2983 ,0.86710 ,4.31636 ,42.35208 
65 ,12.5225 ,0.86921 ,4.28898 ,42.08345 
66 ,12.7142 ,0.87125 ,4.28898 ,42.08345 
67 ,12.8907 ,0.87309 ,4.27871 ,41.98272 
68 ,13.0827 ,0.87490 ,4.24449 ,41.64694 
69 ,13.2748 ,0.87687 ,4.22738 ,41.47905 
70 ,13.4508 ,0.87866 ,4.21027 ,41.31115 
71 ,13.6431 ,0.88058 ,4.20342 ,41.24400 
72 ,13.8352 ,0.88246 ,4.17947 ,41.00895 
73 ,14.0432 ,0.88461 ,4.15209 ,40.74032 
74 ,14.2353 ,0.88649 ,4.15551 ,40.77390 
75 ,14.4272 ,0.88838 ,4.12471 ,40.47170 
76 ,14.6353 ,0.89044 ,4.11103 ,40.33738 
77 ,14.8114 ,0.89230 ,4.09049 ,40.13591 
78 ,15.0036 ,0.89412 ,4.05627 ,39.80013 
79 ,15.1956 ,0.89616 ,4.05969 ,39.83371 
80 ,15.3873 ,0.89800 ,4.04258 ,39.66582 
81 ,15.5797 ,0.89990 ,3.99467 ,39.19572 
82 ,15.7876 ,0.90198 ,4.00836 ,39.33003 
83 ,15.9958 ,0.90403 ,3.97414 ,38.99425 
84 ,16.1720 ,0.90590 ,3.96387 ,38.89352 
85 ,16.3640 ,0.90772 ,3.94334 ,38.69205 
86 ,16.5721 ,0.90972 ,3.92965 ,38.55773 
87 ,16.7801 ,0.91183 ,3.89543 ,38.22195 
88 ,16.9723 ,0.91381 ,3.89201 ,38.18837 
89 ,17.1643 ,0.91574 ,3.86463 ,37.91975 
90 ,17.3561 ,0.91768 ,3.85094 ,37.78543 
91 ,17.5321 ,0.91959 ,3.84067 ,37.68470 
92 ,17.7246 ,0.92135 ,3.80987 ,37.38249 
93 ,17.9327 ,0.92342 ,3.80303 ,37.31534 
94 ,18.1247 ,0.92534 ,3.77565 ,37.04671 
95 ,18.3167 ,0.92725 ,3.75170 ,36.81166 
96 ,18.5090 ,0.92926 ,3.75512 ,36.84524 
97 ,18.7010 ,0.93110 ,3.72432 ,36.54303 
98 ,18.8770 ,0.93291 ,3.69694 ,36.27441 
99 ,19.1173 ,0.93526 ,3.68668 ,36.17367 
100 ,19.3253 ,0.93733 ,3.66957 ,36.00578 
101 ,19.5174 ,0.93929 ,3.64219 ,35.73716 
102 ,19.7091 ,0.94120 ,3.64219 ,35.73716 
103 ,19.9015 ,0.94313 ,3.60454 ,35.36779 
104 ,20.1097 ,0.94523 ,3.59770 ,35.30064 
105 ,20.3016 ,0.94713 ,3.57032 ,35.03201 
106 ,20.5096 ,0.94918 ,3.57375 ,35.06559 
107 ,20.7018 ,0.95113 ,3.52926 ,34.62907 
108 ,20.8618 ,0.95289 ,3.52584 ,34.59549 
109 ,21.0377 ,0.95451 ,3.50188 ,34.36045 
110 ,21.2301 ,0.95646 ,3.50188 ,34.36045 
111 ,21.4221 ,0.95834 ,3.47450 ,34.09182 
112 ,21.6141 ,0.96027 ,3.45397 ,33.89035 
113 ,21.7902 ,0.96207 ,3.43344 ,33.68888 
114 ,21.9823 ,0.96395 ,3.43001 ,33.65530 
115 ,22.1743 ,0.96585 ,3.39921 ,33.35310 
116 ,22.3664 ,0.96774 ,3.38553 ,33.21878 
117 ,22.5586 ,0.96967 ,3.37184 ,33.08447 
118 ,22.7507 ,0.97161 ,3.36499 ,33.01731 
119 ,22.9425 ,0.97352 ,3.32735 ,32.64795 
120 ,23.1508 ,0.97564 ,3.33077 ,32.68153 
121 ,23.3589 ,0.97764 ,3.28628 ,32.24501 
122 ,23.5669 ,0.97975 ,3.27944 ,32.17786 
123 ,23.7588 ,0.98165 ,3.24864 ,31.87565 
124 ,23.9511 ,0.98357 ,3.25206 ,31.90923 
125 ,24.1432 ,0.98550 ,3.22126 ,31.60702 
126 ,24.3352 ,0.98742 ,3.19388 ,31.33840 
127 ,24.5114 ,0.98927 ,3.18020 ,31.20409 
128 ,24.7196 ,0.99118 ,3.17677 ,31.17051 
129 ,24.9113 ,0.99331 ,3.17335 ,31.13693 
130 ,25.0876 ,0.99497 ,3.14940 ,30.90188 
131 ,25.2796 ,0.99692 ,3.13229 ,30.73399 
132 ,25.4555 ,0.99872 ,3.11175 ,30.53252 
133 ,25.6317 ,1.00045 ,3.08095 ,30.23031 
134 ,25.8238 ,1.00230 ,3.08438 ,30.26389 
135 ,26.0161 ,1.00427 ,3.04331 ,29.86095 
136 ,26.2078 ,1.00617 ,3.04331 ,29.86095 
137 ,26.4001 ,1.00806 ,3.01593 ,29.59233 
138 ,26.6082 ,1.01017 ,3.01593 ,29.59233 
139 ,26.8002 ,1.01207 ,2.97144 ,29.15581 
140 ,27.0083 ,1.01417 ,2.97487 ,29.18939 
141 ,27.1842 ,1.01609 ,2.94064 ,28.85360 
142 ,27.3599 ,1.01772 ,2.94407 ,28.88718 
143 ,27.5366 ,1.01949 ,2.90642 ,28.51782 
144 ,27.7287 ,1.02132 ,2.90642 ,28.51782 
145 ,27.9366 ,1.02344 ,2.88247 ,28.28277 
146 ,28.1446 ,1.02551 ,2.86536 ,28.11488 
147 ,28.3528 ,1.02750 ,2.84482 ,27.91341 
148 ,28.5449 ,1.02963 ,2.83798 ,27.84625 
149 ,28.7370 ,1.03150 ,2.80034 ,27.47689 
150 ,28.9287 ,1.03333 ,2.79007 ,27.37616 
151 ,29.1213 ,1.03529 ,2.77980 ,27.27542 
152 ,29.3134 ,1.03728 ,2.74216 ,26.90606 
153 ,29.5049 ,1.03912 ,2.75585 ,27.04038 
154 ,29.6974 ,1.04102 ,2.71478 ,26.63744 
155 ,29.8896 ,1.04295 ,2.72163 ,26.70459 
156 ,30.0817 ,1.04483 ,2.69083 ,26.40239 
157 ,30.2736 ,1.04679 ,2.68740 ,26.36881 
158 ,30.4657 ,1.04867 ,2.67372 ,26.23450 
159 ,30.6416 ,1.05050 ,2.65318 ,26.03303 
160 ,30.8179 ,1.05230 ,2.63949 ,25.89871 
161 ,30.9937 ,1.05408 ,2.60527 ,25.56293 
162 ,31.2021 ,1.05610 ,2.59843 ,25.49577 
163 ,31.3941 ,1.05800 ,2.56763 ,25.19357 
164 ,31.5861 ,1.05989 ,2.58132 ,25.32788 
165 ,31.7782 ,1.06187 ,2.54025 ,24.92494 
166 ,31.9704 ,1.06380 ,2.53341 ,24.85779 
167 ,32.1625 ,1.06569 ,2.51287 ,24.65632 
168 ,32.3546 ,1.06762 ,2.49576 ,24.48842 
169 ,32.5463 ,1.06948 ,2.49234 ,24.45485 
170 ,32.7223 ,1.07130 ,2.47181 ,24.25338 
171 ,32.9150 ,1.07318 ,2.43074 ,23.85044 
172 ,33.1228 ,1.07524 ,2.43416 ,23.88402 
173 ,33.3151 ,1.07718 ,2.40336 ,23.58181 
174 ,33.5072 ,1.07913 ,2.40336 ,23.58181 
175 ,33.6827 ,1.08100 ,2.38968 ,23.44750 
176 ,33.8747 ,1.08275 ,2.36572 ,23.21245 
177 ,34.0513 ,1.08461 ,2.33834 ,22.94382 
178 ,34.2431 ,1.08652 ,2.34519 ,23.01098 
179 ,34.4354 ,1.08842 ,2.31439 ,22.70877 
180 ,34.6115 ,1.09021 ,2.29728 ,22.54088 
181 ,34.8196 ,1.09219 ,2.30070 ,22.57446 
182 ,35.0114 ,1.09414 ,2.26990 ,22.27226 
183 ,35.2197 ,1.09620 ,2.24937 ,22.07079 
184 ,35.3957 ,1.09812 ,2.23226 ,21.90290 
185 ,35.5716 ,1.09983 ,2.21172 ,21.70143 
186 ,35.7638 ,1.10169 ,2.21172 ,21.70143 
187 ,35.9561 ,1.10354 ,2.20488 ,21.63427 
188 ,36.1798 ,1.10572 ,2.19119 ,21.49996 
189 ,36.3560 ,1.10774 ,2.16039 ,21.19775 
190 ,36.5323 ,1.10942 ,2.13644 ,20.96270 
191 ,36.7244 ,1.11130 ,2.14328 ,21.02986 
192 ,36.9323 ,1.11338 ,2.10564 ,20.66050 
193 ,37.1081 ,1.11518 ,2.09537 ,20.55976 
194 ,37.3006 ,1.11704 ,2.09537 ,20.55976 
195 ,37.4927 ,1.11897 ,2.05088 ,20.12325 
196 ,37.6685 ,1.12080 ,2.06115 ,20.22398 
197 ,37.8448 ,1.12251 ,2.04746 ,20.08967 
198 ,38.0366 ,1.12439 ,2.02008 ,19.82104 
199 ,38.2125 ,1.12625 ,1.99955 ,19.61957 
200 ,38.4050 ,1.12802 ,1.98928 ,19.51884 
201 ,38.6130 ,1.13015 ,1.96875 ,19.31737 
202 ,38.8052 ,1.13214 ,1.96875 ,19.31737 
203 ,38.9971 ,1.13404 ,1.94822 ,19.11590 
204 ,39.1892 ,1.13587 ,1.92768 ,18.91443 
205 ,39.3653 ,1.13775 ,1.91399 ,18.78011 
206 ,39.5735 ,1.13975 ,1.88662 ,18.51149 
207 ,39.7816 ,1.14186 ,1.90373 ,18.67938 
208 ,39.9737 ,1.14373 ,1.85240 ,18.17570 
209 ,40.1817 ,1.14584 ,1.86266 ,18.27644 
210 ,40.3733 ,1.14774 ,1.84555 ,18.10855 
211 ,40.5655 ,1.14960 ,1.82844 ,17.94066 
212 ,40.7416 ,1.15147 ,1.81817 ,17.83992 
213 ,40.9339 ,1.15335 ,1.78395 ,17.50414 
214 ,41.1422 ,1.15542 ,1.79764 ,17.63845 
215 ,41.3503 ,1.15747 ,1.74973 ,17.16836 
216 ,41.5582 ,1.15957 ,1.75315 ,17.20193 
217 ,41.7663 ,1.16169 ,1.73262 ,17.00046 
218 ,41.9583 ,1.16361 ,1.72235 ,16.89973 
219 ,42.1664 ,1.16564 ,1.70524 ,16.73184 
220 ,42.3585 ,1.16762 ,1.68813 ,16.56395 
221 ,42.5342 ,1.16953 ,1.68129 ,16.49679 
222 ,42.7107 ,1.17116 ,1.65733 ,16.26174 
223 ,42.9187 ,1.17320 ,1.66075 ,16.29532 
224 ,43.1109 ,1.17511 ,1.62995 ,15.99311 
225 ,43.3029 ,1.17701 ,1.62995 ,15.99311 
226 ,43.4791 ,1.17884 ,1.61969 ,15.89238 
227 ,43.6870 ,1.18087 ,1.58547 ,15.55660 
228 ,43.8791 ,1.18278 ,1.58889 ,15.59018 
229 ,44.0553 ,1.18458 ,1.57520 ,15.45586 
230 ,44.2309 ,1.18644 ,1.54098 ,15.12008 
231 ,44.4234 ,1.18823 ,1.54098 ,15.12008 
232 ,44.5995 ,1.19004 ,1.52387 ,14.95219 
233 ,44.7916 ,1.19193 ,1.52045 ,14.91861 
234 ,44.9997 ,1.19399 ,1.52045 ,14.91861 
235 ,45.1916 ,1.19588 ,1.47596 ,14.48209 
236 ,45.3838 ,1.19782 ,1.47596 ,14.48209 
237 ,45.5756 ,1.19977 ,1.46569 ,14.38136 
238 ,45.7835 ,1.20190 ,1.43147 ,14.04557 
239 ,45.9601 ,1.20366 ,1.42805 ,14.01199 
240 ,46.1522 ,1.20552 ,1.41436 ,13.87768 
241 ,46.3603 ,1.20750 ,1.40409 ,13.77695 
242 ,46.5522 ,1.20952 ,1.39040 ,13.64263 
243 ,46.7285 ,1.21135 ,1.36303 ,13.37401 
244 ,46.9045 ,1.21315 ,1.35618 ,13.30685 
245 ,47.0805 ,1.21484 ,1.34934 ,13.23969 
246 ,47.2727 ,1.21669 ,1.33565 ,13.10538 
247 ,47.4646 ,1.21862 ,1.31854 ,12.93749 
248 ,47.6409 ,1.22048 ,1.31512 ,12.90391 
249 ,47.8329 ,1.22228 ,1.28089 ,12.56813 
250 ,48.0407 ,1.22439 ,1.27405 ,12.50097 
251 ,48.2330 ,1.22633 ,1.28089 ,12.56813 
252 ,48.4251 ,1.22822 ,1.25694 ,12.33308 
253 ,48.6491 ,1.23041 ,1.23641 ,12.13161 
254 ,48.8254 ,1.23226 ,1.22272 ,11.99730 
255 ,49.0009 ,1.23403 ,1.21245 ,11.89656 
256 ,49.1935 ,1.23592 ,1.20218 ,11.79583 
257 ,49.3852 ,1.23781 ,1.17823 ,11.56078 
258 ,49.5936 ,1.23993 ,1.18165 ,11.59436 
259 ,49.8015 ,1.24198 ,1.15427 ,11.32573 
260 ,49.9936 ,1.24386 ,1.15085 ,11.29215 
261 ,50.1693 ,1.24573 ,1.14743 ,11.25857 
262 ,50.3614 ,1.24760 ,1.12005 ,10.98995 
263 ,50.5535 ,1.24949 ,1.11663 ,10.95637 
264 ,50.7619 ,1.25166 ,1.08241 ,10.62059 
265 ,50.9700 ,1.25366 ,1.07899 ,10.58701 
266 ,51.1618 ,1.25560 ,1.05503 ,10.35196 
267 ,51.3543 ,1.25755 ,1.05503 ,10.35196 
268 ,51.5622 ,1.25961 ,1.02765 ,10.08333 
269 ,51.7545 ,1.26146 ,1.03792 ,10.18407 
270 ,51.9624 ,1.26361 ,1.00370 ,9.84829 
271 ,52.1386 ,1.26539 ,1.00370 ,9.84829 
272 ,52.3463 ,1.26743 ,0.97632 ,9.57966 
273 ,52.5228 ,1.26925 ,0.96263 ,9.44535 
274 ,52.7150 ,1.27112 ,0.96605 ,9.47892 
275 ,52.9069 ,1.27303 ,0.93868 ,9.21030 
276 ,53.0991 ,1.27503 ,0.92841 ,9.10956 
277 ,53.2911 ,1.27695 ,0.92841 ,9.10956 
278 ,53.4832 ,1.27883 ,0.90103 ,8.84094 
279 ,53.6913 ,1.28083 ,0.90103 ,8.84094 
280 ,53.8832 ,1.28278 ,0.88392 ,8.67305 
281 ,54.0754 ,1.28472 ,0.87366 ,8.57231 
282 ,54.2673 ,1.28663 ,0.85654 ,8.40442 
283 ,54.4431 ,1.28842 ,0.82917 ,8.13579 
284 ,54.6516 ,1.29037 ,0.83601 ,8.20295 
285 ,54.8276 ,1.29230 ,0.82232 ,8.06864 
286 ,55.0037 ,1.29415 ,0.79837 ,7.83359 
287 ,55.1958 ,1.29596 ,0.79152 ,7.76643 
288 ,55.3878 ,1.29784 ,0.78126 ,7.66570 
289 ,55.5634 ,1.29967 ,0.77099 ,7.56496 
290 ,55.7556 ,1.30150 ,0.75388 ,7.39707 
291 ,55.9320 ,1.30327 ,0.75046 ,7.36349 
292 ,56.1243 ,1.30517 ,0.71966 ,7.06129 
293 ,56.3323 ,1.30728 ,0.72650 ,7.12844 
294 ,56.5083 ,1.30910 ,0.71281 ,6.99413 
295 ,56.6842 ,1.31082 ,0.68886 ,6.75908 
296 ,56.8604 ,1.31260 ,0.67517 ,6.62477 
297 ,57.0527 ,1.31448 ,0.68201 ,6.69193 
298 ,57.2446 ,1.31636 ,0.64779 ,6.35614 
299 ,57.4367 ,1.31834 ,0.64779 ,6.35614 
300 ,57.6447 ,1.32030 ,0.63068 ,6.18825 
301 ,57.8212 ,1.32221 ,0.61357 ,6.02036 
302 ,58.0131 ,1.32412 ,0.61357 ,6.02036 
303 ,58.2046 ,1.32607 ,0.58962 ,5.78531 
304 ,58.3968 ,1.32789 ,0.58619 ,5.75173 
305 ,58.5728 ,1.32979 ,0.57935 ,5.68458 
306 ,58.7653 ,1.33158 ,0.56224 ,5.51668 
307 ,58.9574 ,1.33350 ,0.54513 ,5.34879 
308 ,59.1655 ,1.33559 ,0.53828 ,5.28164 
309 ,59.3577 ,1.33748 ,0.51775 ,5.08017 
310 ,59.5496 ,1.33945 ,0.53828 ,5.28164 
311 ,59.7419 ,1.34130 ,0.49722 ,4.87870 
312 ,59.9334 ,1.34325 ,0.50064 ,4.91228 
313 ,60.1258 ,1.34521 ,0.47326 ,4.64365 
314 ,60.3020 ,1.34703 ,0.45957 ,4.50934 
315 ,60.4938 ,1.34891 ,0.45615 ,4.47576 
316 ,60.7022 ,1.35095 ,0.42535 ,4.17355 
317 ,60.8779 ,1.35282 ,0.43562 ,4.27429 
318 ,61.0704 ,1.35470 ,0.42193 ,4.13997 
319 ,61.2784 ,1.35665 ,0.40482 ,3.97208 
320 ,61.4864 ,1.35878 ,0.40140 ,3.93850 
321 ,61.6785 ,1.36069 ,0.38086 ,3.73703 
322 ,61.8545 ,1.36255 ,0.36718 ,3.60272 
323 ,62.0467 ,1.36445 ,0.37402 ,3.66988 
324 ,62.2386 ,1.36630 ,0.34322 ,3.36767 
325 ,62.4148 ,1.36813 ,0.33980 ,3.33410 
326 ,62.6067 ,1.37003 ,0.32953 ,3.23336 
327 ,62.7830 ,1.37185 ,0.31584 ,3.09905 
328 ,62.9752 ,1.37369 ,0.31242 ,3.06547 
329 ,63.1827 ,1.37574 ,0.28162 ,2.76326 
330 ,63.3749 ,1.37765 ,0.28162 ,2.76326 
331 ,63.5671 ,1.37958 ,0.26793 ,2.62895 
332 ,63.7594 ,1.38150 ,0.24740 ,2.42748 
333 ,63.9512 ,1.38344 ,0.25767 ,2.52822 
334 ,64.1436 ,1.38536 ,0.23029 ,2.25959 
335 ,64.3354 ,1.38724 ,0.22344 ,2.19243 
336 ,64.5275 ,1.38921 ,0.22687 ,2.22601 
337 ,64.7037 ,1.39108 ,0.18922 ,1.85665 
338 ,64.9118 ,1.39297 ,0.20633 ,2.02454 
339 ,65.1039 ,1.39494 ,0.16869 ,1.65518 
340 ,65.2958 ,1.39688 ,0.16527 ,1.62160 
341 ,65.4881 ,1.39882 ,0.17211 ,1.68876 
342 ,65.6641 ,1.40065 ,0.13105 ,1.28582 
343 ,65.8403 ,1.40240 ,0.14473 ,1.42013 
344 ,66.0163 ,1.40411 ,0.11736 ,1.15151 
345 ,66.2083 ,1.40603 ,0.12420 ,1.21866 
346 ,66.3844 ,1.40781 ,0.11736 ,1.15151 
347 ,66.5766 ,1.40975 ,0.08314 ,0.81572 
348 ,66.7846 ,1.41174 ,0.08656 ,0.84930 
349 ,66.9763 ,1.41371 ,0.05918 ,0.58067 
350 ,67.1528 ,1.41551 ,0.06602 ,0.64783 
351 ,67.3449 ,1.41739 ,0.06602 ,0.64783 
352 ,67.5365 ,1.41927 ,0.02496 ,0.24489 
353 ,67.7290 ,1.42115 ,0.04891 ,0.47994 
354 ,67.9050 ,1.42304 ,0.03522 ,0.34563 
355 ,68.0811 ,1.42476 ,0.01469 ,0.14416 
356 ,68.2732 ,1.42663 ,0.00785 ,0.07700 
357 ,68.4653 ,1.42855 ,-0.00584 ,-0.05731 
358 ,68.6570 ,1.43046 ,-0.01953 ,-0.19163 
359 ,68.8654 ,1.43256 ,-0.02295 ,-0.22520 
360 ,69.0576 ,1.43444 ,-0.04691 ,-0.46025 
361 ,69.2657 ,1.43655 ,-0.04348 ,-0.42667 
362 ,69.4577 ,1.43848 ,-0.08455 ,-0.82961 
363 ,69.6655 ,1.44053 ,-0.08455 ,-0.82961 
364 ,69.8579 ,1.44246 ,-0.10166 ,-0.99751 
365 ,70.0660 ,1.44453 ,-0.08797 ,-0.86319 
366 ,70.2580 ,1.44648 ,-0.12219 ,-1.19898 
367 ,70.4661 ,1.44858 ,-0.10166 ,-0.99751 
368 ,70.6259 ,1.45033 ,-0.13588 ,-1.33329 
369 ,70.8018 ,1.45194 ,-0.12904 ,-1.26613 
370 ,70.9780 ,1.45372 ,-0.14957 ,-1.46760 
371 ,71.1545 ,1.45547 ,-0.15642 ,-1.53476 
372 ,71.3624 ,1.45750 ,-0.16326 ,-1.60191 
373 ,71.5705 ,1.45963 ,-0.17353 ,-1.70265 
374 ,71.7465 ,1.46137 ,-0.18037 ,-1.76981 
375 ,71.9548 ,1.46344 ,-0.22144 ,-2.17275 
376 ,72.1468 ,1.46538 ,-0.19748 ,-1.93770 
377 ,72.3389 ,1.46723 ,-0.20090 ,-1.97128 
378 ,72.5470 ,1.46939 ,-0.21117 ,-2.07201 
379 ,72.7550 ,1.47140 ,-0.24539 ,-2.40779 
380 ,72.9308 ,1.47324 ,-0.25566 ,-2.50853 
381 ,73.1233 ,1.47513 ,-0.25908 ,-2.54211 
382 ,73.3314 ,1.47719 ,-0.26593 ,-2.60926 
383 ,73.5234 ,1.47911 ,-0.27961 ,-2.74358 
384 ,73.6995 ,1.48096 ,-0.27961 ,-2.74358 
385 ,73.8754 ,1.48268 ,-0.29673 ,-2.91147 
386 ,74.0673 ,1.48454 ,-0.30357 ,-2.97863 
387 ,74.2438 ,1.48639 ,-0.29330 ,-2.87789 
388 ,74.4356 ,1.48830 ,-0.32410 ,-3.18010 
389 ,74.6119 ,1.49010 ,-0.31726 ,-3.11294 
390 ,74.7877 ,1.49181 ,-0.34121 ,-3.34799 
391 ,74.9640 ,1.49354 ,-0.33095 ,-3.24725 
392 ,75.1557 ,1.49542 ,-0.35490 ,-3.48230 
393 ,75.3317 ,1.49727 ,-0.37886 ,-3.71735 
394 ,75.5083 ,1.49902 ,-0.37201 ,-3.65019 
395 ,75.7003 ,1.50086 ,-0.38570 ,-3.78450 
396 ,75.9084 ,1.50290 ,-0.40623 ,-3.98597 
397 ,76.1005 ,1.50491 ,-0.40281 ,-3.95240 
398 ,76.2925 ,1.50682 ,-0.43019 ,-4.22102 
399 ,76.4686 ,1.50866 ,-0.43019 ,-4.22102 
400 ,76.6447 ,1.51035 ,-0.42335 ,-4.15387 
401 ,76.8365 ,1.51226 ,-0.45072 ,-4.42249 
402 ,77.0129 ,1.51405 ,-0.46441 ,-4.55681 
403 ,77.2211 ,1.51606 ,-0.46099 ,-4.52323 
404 ,77.4131 ,1.51802 ,-0.47810 ,-4.69112 
405 ,77.6212 ,1.52010 ,-0.48152 ,-4.72470 
406 ,77.8291 ,1.52215 ,-0.49179 ,-4.82543 
407 ,78.0214 ,1.52405 ,-0.50890 ,-4.99332 
408 ,78.2291 ,1.52615 ,-0.50548 ,-4.95975 
409 ,78.4053 ,1.52801 ,-0.52259 ,-5.12764 
410 ,78.5815 ,1.52975 ,-0.52601 ,-5.16121 
411 ,78.7896 ,1.53185 ,-0.54997 ,-5.39626 
412 ,78.9976 ,1.53384 ,-0.54654 ,-5.36268 
413 ,79.2056 ,1.53594 ,-0.54997 ,-5.39626 
414 ,79.3976 ,1.53781 ,-0.55681 ,-5.46342 
415 ,79.6057 ,1.53994 ,-0.57050 ,-5.59773 
416 ,79.8141 ,1.54198 ,-0.59103 ,-5.79920 
417 ,80.0061 ,1.54395 ,-0.58077 ,-5.69847 
418 ,80.1982 ,1.54583 ,-0.60472 ,-5.93352 
419 ,80.4064 ,1.54787 ,-0.60130 ,-5.89994 
420 ,80.5822 ,1.54980 ,-0.62868 ,-6.16856 
421 ,80.7584 ,1.55151 ,-0.62868 ,-6.16856 
422 ,80.9666 ,1.55351 ,-0.63552 ,-6.23572 
423 ,81.1906 ,1.55568 ,-0.66290 ,-6.50435 
424 ,81.3826 ,1.55770 ,-0.65947 ,-6.47077 
425 ,81.5905 ,1.55975 ,-0.66290 ,-6.50435 
426 ,81.7828 ,1.56170 ,-0.66632 ,-6.53793 
427 ,81.9749 ,1.56367 ,-0.70054 ,-6.87371 
428 ,82.1669 ,1.56550 ,-0.68343 ,-6.70582 
429 ,82.3751 ,1.56757 ,-0.71765 ,-7.04160 
430 ,82.5671 ,1.56951 ,-0.70396 ,-6.90729 
431 ,82.7432 ,1.57145 ,-0.71423 ,-7.00802 
432 ,82.9194 ,1.57310 ,-0.73476 ,-7.20949 
433 ,83.1113 ,1.57503 ,-0.75530 ,-7.41096 
434 ,83.2875 ,1.57681 ,-0.75872 ,-7.44454 
435 ,83.4794 ,1.57861 ,-0.76556 ,-7.51170 
436 ,83.6555 ,1.58044 ,-0.76898 ,-7.54527 
437 ,83.8636 ,1.58244 ,-0.77241 ,-7.57885 
438 ,84.0557 ,1.58436 ,-0.79636 ,-7.81390 
439 ,84.2317 ,1.58623 ,-0.79636 ,-7.81390 
440 ,84.4078 ,1.58802 ,-0.81005 ,-7.94821 
441 ,84.6000 ,1.58981 ,-0.80321 ,-7.88106 
442 ,84.8078 ,1.59191 ,-0.82716 ,-8.11611 
443 ,84.9842 ,1.59384 ,-0.82716 ,-8.11611 
444 ,85.1761 ,1.59562 ,-0.83401 ,-8.18326 
445 ,85.4004 ,1.59763 ,-0.82032 ,-8.04895 
446 ,85.5921 ,1.59981 ,-0.85796 ,-8.41831 
447 ,85.7684 ,1.60159 ,-0.86481 ,-8.48547 
448 ,85.9441 ,1.60341 ,-0.86138 ,-8.45189 
449 ,86.1363 ,1.60525 ,-0.87165 ,-8.55262 
450 ,86.3605 ,1.60733 ,-0.86823 ,-8.51904 
451 ,86.5367 ,1.60923 ,-0.88876 ,-8.72051 
452 ,86.7286 ,1.61108 ,-0.90245 ,-8.85483 
453 ,86.9050 ,1.61292 ,-0.90929 ,-8.92198 
454 ,87.0964 ,1.61478 ,-0.91614 ,-8.98914 
455 ,87.2731 ,1.61663 ,-0.92640 ,-9.08988 
456 ,87.4811 ,1.61867 ,-0.93667 ,-9.19061 
457 ,87.6567 ,1.62042 ,-0.93667 ,-9.19061 
458 ,87.8493 ,1.62233 ,-0.95720 ,-9.39208 
459 ,88.0572 ,1.62440 ,-0.96405 ,-9.45924 
460 ,88.2334 ,1.62625 ,-0.98116 ,-9.62713 
461 ,88.4256 ,1.62813 ,-0.96405 ,-9.45924 
462 ,88.6336 ,1.63022 ,-1.00169 ,-9.82860 
