Data stamp = , 26-04-2022 04:48:06 474

Calibration Values: 
Slope = , 26.54 , g/V 
Offset Voltage at no contact = , -0.501760 , V 

No , Time , Stage Position ,   Mass , Force 
   ,  (s) ,      (mm)      ,   (g)  , (mN)  

1 ,0.0000 ,0.74942 ,5.27114 ,51.72043 
2 ,0.2668 ,0.74958 ,5.27798 ,51.78758 
3 ,0.6349 ,0.75077 ,5.27456 ,51.75401 
4 ,0.8272 ,0.75258 ,5.26772 ,51.68685 
5 ,1.0350 ,0.75445 ,5.27456 ,51.75401 
6 ,1.2273 ,0.75646 ,5.26087 ,51.61969 
7 ,1.4193 ,0.75826 ,5.28141 ,51.82116 
8 ,1.5955 ,0.76016 ,5.28141 ,51.82116 
9 ,1.7875 ,0.76204 ,5.25403 ,51.55254 
10 ,1.9956 ,0.76415 ,5.25745 ,51.58611 
11 ,2.2034 ,0.76621 ,5.23007 ,51.31749 
12 ,2.3798 ,0.76802 ,5.21296 ,51.14960 
13 ,2.5557 ,0.76979 ,5.19585 ,50.98170 
14 ,2.7478 ,0.77164 ,5.18216 ,50.84739 
15 ,2.9240 ,0.77342 ,5.16163 ,50.64592 
16 ,3.1161 ,0.77535 ,5.15821 ,50.61234 
17 ,3.3237 ,0.77736 ,5.14110 ,50.44445 
18 ,3.5160 ,0.77933 ,5.11714 ,50.20940 
19 ,3.7242 ,0.78144 ,5.09319 ,49.97436 
20 ,3.9007 ,0.78325 ,5.08292 ,49.87362 
21 ,4.0765 ,0.78504 ,5.04870 ,49.53784 
22 ,4.2684 ,0.78686 ,5.03501 ,49.40352 
23 ,4.4766 ,0.78889 ,5.02817 ,49.33637 
24 ,4.6848 ,0.79100 ,5.00079 ,49.06774 
25 ,4.8769 ,0.79288 ,4.99052 ,48.96701 
26 ,5.0849 ,0.79501 ,4.96999 ,48.76554 
27 ,5.2766 ,0.79686 ,4.94603 ,48.53049 
28 ,5.4528 ,0.79870 ,4.93577 ,48.42975 
29 ,5.6450 ,0.80065 ,4.88444 ,47.92608 
30 ,5.8531 ,0.80268 ,4.88786 ,47.95966 
31 ,6.0291 ,0.80447 ,4.86390 ,47.72461 
32 ,6.2051 ,0.80631 ,4.85364 ,47.62387 
33 ,6.3813 ,0.80803 ,4.83995 ,47.48956 
34 ,6.5571 ,0.80977 ,4.81257 ,47.22093 
35 ,6.7336 ,0.81152 ,4.79546 ,47.05304 
36 ,6.9411 ,0.81358 ,4.80573 ,47.15378 
37 ,7.1334 ,0.81552 ,4.77150 ,46.81800 
38 ,7.3258 ,0.81741 ,4.75782 ,46.68368 
39 ,7.5175 ,0.81929 ,4.72359 ,46.34790 
40 ,7.7099 ,0.82129 ,4.71675 ,46.28074 
41 ,7.9179 ,0.82330 ,4.69622 ,46.07927 
42 ,8.1098 ,0.82522 ,4.66884 ,45.81065 
43 ,8.3022 ,0.82713 ,4.64488 ,45.57560 
44 ,8.4942 ,0.82907 ,4.63804 ,45.50844 
45 ,8.7019 ,0.83111 ,4.63119 ,45.44128 
46 ,8.8944 ,0.83307 ,4.61066 ,45.23981 
47 ,9.0865 ,0.83503 ,4.59355 ,45.07192 
48 ,9.2785 ,0.83690 ,4.57302 ,44.87045 
49 ,9.4707 ,0.83879 ,4.54222 ,44.56825 
50 ,9.6626 ,0.84078 ,4.53880 ,44.53467 
51 ,9.8545 ,0.84269 ,4.50115 ,44.16531 
52 ,10.0468 ,0.84461 ,4.49431 ,44.09815 
53 ,10.2548 ,0.84668 ,4.46351 ,43.79595 
54 ,10.4306 ,0.84849 ,4.47378 ,43.89668 
55 ,10.6231 ,0.85032 ,4.44640 ,43.62806 
56 ,10.8149 ,0.85235 ,4.43271 ,43.49374 
57 ,11.0071 ,0.85417 ,4.40875 ,43.25870 
58 ,11.2152 ,0.85623 ,4.38822 ,43.05723 
59 ,11.3913 ,0.85811 ,4.38138 ,42.99007 
60 ,11.5835 ,0.85997 ,4.37453 ,42.92291 
61 ,11.7916 ,0.86204 ,4.34373 ,42.62071 
62 ,11.9675 ,0.86381 ,4.30951 ,42.28492 
63 ,12.1438 ,0.86563 ,4.30951 ,42.28492 
64 ,12.3358 ,0.86746 ,4.28213 ,42.01630 
65 ,12.5117 ,0.86930 ,4.26845 ,41.88198 
66 ,12.7201 ,0.87124 ,4.25133 ,41.71409 
67 ,12.8961 ,0.87318 ,4.23765 ,41.57978 
68 ,13.0882 ,0.87497 ,4.21369 ,41.34473 
69 ,13.2801 ,0.87688 ,4.22053 ,41.41189 
70 ,13.4561 ,0.87872 ,4.20342 ,41.24400 
71 ,13.6481 ,0.88057 ,4.16578 ,40.87464 
72 ,13.8404 ,0.88249 ,4.16920 ,40.90821 
73 ,14.0325 ,0.88446 ,4.12814 ,40.50527 
74 ,14.2084 ,0.88631 ,4.12129 ,40.43812 
75 ,14.4006 ,0.88821 ,4.11787 ,40.40454 
76 ,14.6083 ,0.89017 ,4.08023 ,40.03518 
77 ,14.7849 ,0.89201 ,4.06654 ,39.90087 
78 ,14.9767 ,0.89396 ,4.04258 ,39.66582 
79 ,15.1686 ,0.89580 ,4.02547 ,39.49793 
80 ,15.3611 ,0.89772 ,4.02547 ,39.49793 
81 ,15.5531 ,0.89959 ,4.01178 ,39.36361 
82 ,15.7291 ,0.90141 ,3.98098 ,39.06141 
83 ,15.9212 ,0.90332 ,3.98098 ,39.06141 
84 ,16.0970 ,0.90514 ,3.96045 ,38.85994 
85 ,16.2731 ,0.90689 ,3.93992 ,38.65847 
86 ,16.4654 ,0.90876 ,3.91254 ,38.38984 
87 ,16.6578 ,0.91074 ,3.91254 ,38.38984 
88 ,16.8496 ,0.91256 ,3.87147 ,37.98690 
89 ,17.0259 ,0.91437 ,3.87147 ,37.98690 
90 ,17.2338 ,0.91647 ,3.85094 ,37.78543 
91 ,17.4099 ,0.91829 ,3.83041 ,37.58396 
92 ,17.6021 ,0.92014 ,3.83041 ,37.58396 
93 ,17.8102 ,0.92220 ,3.80303 ,37.31534 
94 ,18.0023 ,0.92412 ,3.78592 ,37.14744 
95 ,18.1944 ,0.92599 ,3.77223 ,37.01313 
96 ,18.4025 ,0.92808 ,3.75854 ,36.87882 
97 ,18.5946 ,0.93005 ,3.72432 ,36.54303 
98 ,18.8025 ,0.93212 ,3.71748 ,36.47588 
99 ,18.9784 ,0.93389 ,3.70037 ,36.30799 
100 ,19.1548 ,0.93568 ,3.66272 ,35.93863 
101 ,19.3628 ,0.93773 ,3.65588 ,35.87147 
102 ,19.5386 ,0.93951 ,3.65246 ,35.83789 
103 ,19.7311 ,0.94138 ,3.60454 ,35.36779 
104 ,19.9230 ,0.94345 ,3.61139 ,35.43495 
105 ,20.0992 ,0.94520 ,3.60112 ,35.33422 
106 ,20.2911 ,0.94699 ,3.57375 ,35.06559 
107 ,20.4672 ,0.94887 ,3.56348 ,34.96485 
108 ,20.6430 ,0.95060 ,3.54637 ,34.79696 
109 ,20.8355 ,0.95244 ,3.50872 ,34.42760 
110 ,21.0436 ,0.95457 ,3.52241 ,34.56192 
111 ,21.2517 ,0.95655 ,3.48819 ,34.22613 
112 ,21.4597 ,0.95862 ,3.48477 ,34.19255 
113 ,21.6518 ,0.96065 ,3.45739 ,33.92393 
114 ,21.8276 ,0.96240 ,3.41975 ,33.55457 
115 ,22.0360 ,0.96444 ,3.41290 ,33.48741 
116 ,22.2278 ,0.96636 ,3.40948 ,33.45383 
117 ,22.4198 ,0.96833 ,3.39579 ,33.31952 
118 ,22.6123 ,0.97025 ,3.35815 ,32.95016 
119 ,22.8041 ,0.97213 ,3.35815 ,32.95016 
120 ,23.0124 ,0.97414 ,3.33419 ,32.71511 
121 ,23.2045 ,0.97623 ,3.31708 ,32.54722 
122 ,23.3802 ,0.97790 ,3.31708 ,32.54722 
123 ,23.5726 ,0.97975 ,3.27602 ,32.14428 
124 ,23.7807 ,0.98182 ,3.25891 ,31.97639 
125 ,23.9724 ,0.98376 ,3.23837 ,31.77492 
126 ,24.1648 ,0.98570 ,3.24180 ,31.80849 
127 ,24.3569 ,0.98764 ,3.19388 ,31.33840 
128 ,24.5489 ,0.98955 ,3.18362 ,31.23766 
129 ,24.7410 ,0.99149 ,3.19388 ,31.33840 
130 ,24.9328 ,0.99335 ,3.15282 ,30.93546 
131 ,25.1252 ,0.99528 ,3.14597 ,30.86830 
132 ,25.3173 ,0.99723 ,3.12202 ,30.63325 
133 ,25.5091 ,0.99913 ,3.12202 ,30.63325 
134 ,25.6855 ,1.00093 ,3.09464 ,30.36463 
135 ,25.8776 ,1.00284 ,3.06042 ,30.02884 
136 ,26.0693 ,1.00472 ,3.05358 ,29.96169 
137 ,26.2617 ,1.00668 ,3.05015 ,29.92811 
138 ,26.4699 ,1.00875 ,3.03304 ,29.76022 
139 ,26.6459 ,1.01065 ,3.01593 ,29.59233 
140 ,26.8220 ,1.01230 ,2.99882 ,29.42444 
141 ,26.9978 ,1.01411 ,2.97829 ,29.22297 
142 ,27.1897 ,1.01600 ,2.94064 ,28.85360 
143 ,27.3822 ,1.01790 ,2.95091 ,28.95434 
144 ,27.5742 ,1.01990 ,2.92353 ,28.68571 
145 ,27.7504 ,1.02163 ,2.90985 ,28.55140 
146 ,27.9584 ,1.02366 ,2.89616 ,28.41709 
147 ,28.1505 ,1.02562 ,2.85851 ,28.04772 
148 ,28.3266 ,1.02742 ,2.85851 ,28.04772 
149 ,28.5026 ,1.02914 ,2.85509 ,28.01415 
150 ,28.6948 ,1.03100 ,2.81402 ,27.61121 
151 ,28.8869 ,1.03293 ,2.82771 ,27.74552 
152 ,29.0788 ,1.03478 ,2.79007 ,27.37616 
153 ,29.2548 ,1.03669 ,2.78322 ,27.30900 
154 ,29.4310 ,1.03839 ,2.76611 ,27.14111 
155 ,29.6230 ,1.04032 ,2.74900 ,26.97322 
156 ,29.8152 ,1.04217 ,2.73189 ,26.80533 
157 ,30.0071 ,1.04412 ,2.72847 ,26.77175 
158 ,30.2154 ,1.04622 ,2.69767 ,26.46954 
159 ,30.4072 ,1.04814 ,2.68398 ,26.33523 
160 ,30.5993 ,1.05007 ,2.66003 ,26.10018 
161 ,30.7915 ,1.05208 ,2.64634 ,25.96587 
162 ,30.9836 ,1.05384 ,2.63949 ,25.89871 
163 ,31.1594 ,1.05568 ,2.62581 ,25.76440 
164 ,31.3518 ,1.05757 ,2.59158 ,25.42862 
165 ,31.5598 ,1.05953 ,2.58474 ,25.36146 
166 ,31.7361 ,1.06142 ,2.57105 ,25.22715 
167 ,31.9439 ,1.06351 ,2.55394 ,25.05926 
168 ,32.1361 ,1.06537 ,2.54025 ,24.92494 
169 ,32.3283 ,1.06727 ,2.50603 ,24.58916 
170 ,32.5362 ,1.06935 ,2.48892 ,24.42127 
171 ,32.7285 ,1.07133 ,2.48550 ,24.38769 
172 ,32.9366 ,1.07340 ,2.45812 ,24.11906 
173 ,33.1283 ,1.07537 ,2.44785 ,24.01833 
174 ,33.3207 ,1.07719 ,2.43759 ,23.91759 
175 ,33.5286 ,1.07932 ,2.43074 ,23.85044 
176 ,33.7045 ,1.08119 ,2.40679 ,23.61539 
177 ,33.8809 ,1.08285 ,2.40679 ,23.61539 
178 ,34.0567 ,1.08468 ,2.36230 ,23.17887 
179 ,34.2487 ,1.08654 ,2.34861 ,23.04456 
180 ,34.4251 ,1.08834 ,2.34177 ,22.97740 
181 ,34.6326 ,1.09049 ,2.30754 ,22.64162 
182 ,34.8087 ,1.09223 ,2.31781 ,22.74235 
183 ,35.0011 ,1.09404 ,2.30412 ,22.60804 
184 ,35.2254 ,1.09632 ,2.28359 ,22.40657 
185 ,35.4335 ,1.09837 ,2.24594 ,22.03721 
186 ,35.6093 ,1.10022 ,2.24937 ,22.07079 
187 ,35.7854 ,1.10190 ,2.22883 ,21.86932 
188 ,35.9773 ,1.10376 ,2.20830 ,21.66785 
189 ,36.1853 ,1.10586 ,2.19803 ,21.56711 
190 ,36.3619 ,1.10768 ,2.18092 ,21.39922 
191 ,36.5538 ,1.10955 ,2.14670 ,21.06344 
192 ,36.7300 ,1.11137 ,2.14670 ,21.06344 
193 ,36.9216 ,1.11325 ,2.13986 ,20.99628 
194 ,37.1141 ,1.11515 ,2.10564 ,20.66050 
195 ,37.3062 ,1.11706 ,2.10221 ,20.62692 
196 ,37.5142 ,1.11918 ,2.07826 ,20.39187 
197 ,37.7064 ,1.12106 ,2.06799 ,20.29114 
198 ,37.9144 ,1.12313 ,2.02693 ,19.88820 
199 ,38.0745 ,1.12491 ,2.02008 ,19.82104 
200 ,38.2506 ,1.12657 ,2.02008 ,19.82104 
201 ,38.4266 ,1.12829 ,2.00297 ,19.65315 
202 ,38.6029 ,1.13012 ,1.99955 ,19.61957 
203 ,38.8110 ,1.13211 ,1.97217 ,19.35094 
204 ,38.9869 ,1.13399 ,1.96190 ,19.25021 
205 ,39.1790 ,1.13579 ,1.93453 ,18.98158 
206 ,39.3871 ,1.13786 ,1.93795 ,19.01516 
207 ,39.5790 ,1.13977 ,1.90715 ,18.71296 
208 ,39.7712 ,1.14172 ,1.89688 ,18.61222 
209 ,39.9632 ,1.14366 ,1.90031 ,18.64580 
210 ,40.1392 ,1.14542 ,1.86608 ,18.31002 
211 ,40.3311 ,1.14732 ,1.84213 ,18.07497 
212 ,40.5235 ,1.14930 ,1.84555 ,18.10855 
213 ,40.7157 ,1.15118 ,1.81817 ,17.83992 
214 ,40.9237 ,1.15322 ,1.80791 ,17.73919 
215 ,41.0999 ,1.15505 ,1.80106 ,17.67203 
216 ,41.3075 ,1.15711 ,1.77711 ,17.43698 
217 ,41.5000 ,1.15899 ,1.74973 ,17.16836 
218 ,41.7079 ,1.16106 ,1.76000 ,17.26909 
219 ,41.9001 ,1.16297 ,1.73262 ,17.00046 
220 ,42.0922 ,1.16492 ,1.71893 ,16.86615 
221 ,42.2843 ,1.16683 ,1.71551 ,16.83257 
222 ,42.4763 ,1.16873 ,1.68813 ,16.56395 
223 ,42.6844 ,1.17083 ,1.68471 ,16.53037 
224 ,42.8765 ,1.17276 ,1.64364 ,16.12743 
225 ,43.0684 ,1.17464 ,1.64707 ,16.16101 
226 ,43.2606 ,1.17655 ,1.64364 ,16.12743 
227 ,43.4532 ,1.17849 ,1.60258 ,15.72449 
228 ,43.6608 ,1.18059 ,1.60942 ,15.79164 
229 ,43.8688 ,1.18266 ,1.59573 ,15.65733 
230 ,44.0449 ,1.18456 ,1.58204 ,15.52302 
231 ,44.2370 ,1.18639 ,1.55809 ,15.28797 
232 ,44.4129 ,1.18814 ,1.54440 ,15.15366 
233 ,44.5730 ,1.18988 ,1.53071 ,15.01934 
234 ,44.7492 ,1.19148 ,1.51702 ,14.88503 
235 ,44.9411 ,1.19333 ,1.50676 ,14.78430 
236 ,45.1174 ,1.19527 ,1.48622 ,14.58283 
237 ,45.2935 ,1.19699 ,1.47596 ,14.48209 
238 ,45.4855 ,1.19887 ,1.48280 ,14.54925 
239 ,45.6774 ,1.20072 ,1.45885 ,14.31420 
240 ,45.8536 ,1.20259 ,1.42462 ,13.97842 
241 ,46.0297 ,1.20435 ,1.43147 ,14.04557 
242 ,46.2216 ,1.20617 ,1.42462 ,13.97842 
243 ,46.4141 ,1.20814 ,1.38356 ,13.57548 
244 ,46.6058 ,1.21002 ,1.40409 ,13.77695 
245 ,46.8141 ,1.21215 ,1.36303 ,13.37401 
246 ,47.0221 ,1.21416 ,1.35276 ,13.27327 
247 ,47.2143 ,1.21604 ,1.34934 ,13.23969 
248 ,47.4060 ,1.21804 ,1.34591 ,13.20612 
249 ,47.5824 ,1.21986 ,1.32880 ,13.03822 
250 ,47.7740 ,1.22171 ,1.29800 ,12.73602 
251 ,47.9826 ,1.22369 ,1.30485 ,12.80318 
252 ,48.1746 ,1.22576 ,1.27063 ,12.46739 
253 ,48.3667 ,1.22763 ,1.27063 ,12.46739 
254 ,48.5587 ,1.22957 ,1.25694 ,12.33308 
255 ,48.7508 ,1.23153 ,1.23641 ,12.13161 
256 ,48.9266 ,1.23334 ,1.23298 ,12.09803 
257 ,49.1031 ,1.23506 ,1.21587 ,11.93014 
258 ,49.2947 ,1.23691 ,1.19192 ,11.69509 
259 ,49.5031 ,1.23901 ,1.19192 ,11.69509 
260 ,49.6791 ,1.24085 ,1.17481 ,11.52720 
261 ,49.8553 ,1.24258 ,1.14401 ,11.22500 
262 ,50.0472 ,1.24445 ,1.15427 ,11.32573 
263 ,50.2394 ,1.24634 ,1.12690 ,11.05710 
264 ,50.4154 ,1.24822 ,1.11663 ,10.95637 
265 ,50.6072 ,1.25001 ,1.12005 ,10.98995 
266 ,50.7996 ,1.25197 ,1.08925 ,10.68774 
267 ,50.9913 ,1.25383 ,1.08241 ,10.62059 
268 ,51.1838 ,1.25582 ,1.08925 ,10.68774 
269 ,51.3917 ,1.25791 ,1.05161 ,10.31838 
270 ,51.5678 ,1.25966 ,1.05161 ,10.31838 
271 ,51.7440 ,1.26146 ,1.04476 ,10.25123 
272 ,51.9519 ,1.26345 ,1.01739 ,9.98260 
273 ,52.1278 ,1.26525 ,0.99343 ,9.74755 
274 ,52.3202 ,1.26711 ,0.99343 ,9.74755 
275 ,52.5124 ,1.26906 ,0.96263 ,9.44535 
276 ,52.6882 ,1.27089 ,0.96948 ,9.51250 
277 ,52.8805 ,1.27274 ,0.94894 ,9.31103 
278 ,53.0725 ,1.27463 ,0.94210 ,9.24388 
279 ,53.2326 ,1.27645 ,0.93183 ,9.14314 
280 ,53.4084 ,1.27807 ,0.90446 ,8.87451 
281 ,53.5844 ,1.27984 ,0.91130 ,8.94167 
282 ,53.7765 ,1.28166 ,0.88734 ,8.70662 
283 ,53.9530 ,1.28358 ,0.88734 ,8.70662 
284 ,54.1451 ,1.28539 ,0.86339 ,8.47158 
285 ,54.3371 ,1.28730 ,0.84286 ,8.27011 
286 ,54.5289 ,1.28924 ,0.84286 ,8.27011 
287 ,54.7213 ,1.29121 ,0.82917 ,8.13579 
288 ,54.9135 ,1.29309 ,0.82917 ,8.13579 
289 ,55.1053 ,1.29498 ,0.82232 ,8.06864 
290 ,55.2814 ,1.29685 ,0.81548 ,8.00148 
291 ,55.4737 ,1.29868 ,0.76415 ,7.49780 
292 ,55.6814 ,1.30082 ,0.78126 ,7.66570 
293 ,55.8898 ,1.30279 ,0.76072 ,7.46423 
294 ,56.0819 ,1.30476 ,0.73677 ,7.22918 
295 ,56.2898 ,1.30679 ,0.72650 ,7.12844 
296 ,56.4655 ,1.30868 ,0.70597 ,6.92697 
297 ,56.6420 ,1.31043 ,0.71966 ,7.06129 
298 ,56.8342 ,1.31235 ,0.67859 ,6.65835 
299 ,57.0259 ,1.31418 ,0.69570 ,6.82624 
300 ,57.2021 ,1.31603 ,0.68201 ,6.69193 
301 ,57.3784 ,1.31775 ,0.66148 ,6.49046 
302 ,57.5544 ,1.31960 ,0.65806 ,6.45688 
303 ,57.7306 ,1.32130 ,0.63410 ,6.22183 
304 ,57.9386 ,1.32329 ,0.61357 ,6.02036 
305 ,58.1306 ,1.32521 ,0.60673 ,5.95320 
306 ,58.3228 ,1.32719 ,0.60673 ,5.95320 
307 ,58.5148 ,1.32907 ,0.57935 ,5.68458 
308 ,58.6908 ,1.33092 ,0.57593 ,5.65100 
309 ,58.8830 ,1.33282 ,0.57935 ,5.68458 
310 ,59.0430 ,1.33454 ,0.54513 ,5.34879 
311 ,59.2191 ,1.33619 ,0.55539 ,5.44953 
312 ,59.4271 ,1.33814 ,0.54855 ,5.38237 
313 ,59.6193 ,1.34009 ,0.51775 ,5.08017 
314 ,59.8275 ,1.34223 ,0.50748 ,4.97943 
315 ,60.0356 ,1.34426 ,0.49037 ,4.81154 
316 ,60.2116 ,1.34608 ,0.47668 ,4.67723 
317 ,60.4037 ,1.34790 ,0.46984 ,4.61007 
318 ,60.5957 ,1.34999 ,0.46984 ,4.61007 
319 ,60.8038 ,1.35188 ,0.44931 ,4.40860 
320 ,60.9797 ,1.35376 ,0.43220 ,4.24071 
321 ,61.1879 ,1.35577 ,0.44588 ,4.37502 
322 ,61.3639 ,1.35766 ,0.43904 ,4.30787 
323 ,61.5721 ,1.35964 ,0.39797 ,3.90493 
324 ,61.7641 ,1.36159 ,0.40482 ,3.97208 
325 ,61.9563 ,1.36349 ,0.38429 ,3.77061 
326 ,62.1644 ,1.36557 ,0.37744 ,3.70346 
327 ,62.3564 ,1.36746 ,0.35349 ,3.46841 
328 ,62.5326 ,1.36932 ,0.34664 ,3.40125 
329 ,62.7406 ,1.37131 ,0.33295 ,3.26694 
330 ,62.9163 ,1.37309 ,0.30900 ,3.03189 
331 ,63.1089 ,1.37500 ,0.32611 ,3.19978 
332 ,63.3167 ,1.37707 ,0.29873 ,2.93116 
333 ,63.4930 ,1.37891 ,0.29189 ,2.86400 
334 ,63.6689 ,1.38063 ,0.27135 ,2.66253 
335 ,63.8451 ,1.38240 ,0.28162 ,2.76326 
336 ,64.0370 ,1.38437 ,0.25767 ,2.52822 
337 ,64.2453 ,1.38627 ,0.25082 ,2.46106 
338 ,64.4371 ,1.38826 ,0.22687 ,2.22601 
339 ,64.6294 ,1.39016 ,0.23029 ,2.25959 
340 ,64.8374 ,1.39229 ,0.19949 ,1.95738 
341 ,65.0135 ,1.39409 ,0.20291 ,1.99096 
342 ,65.2057 ,1.39599 ,0.20633 ,2.02454 
343 ,65.3974 ,1.39796 ,0.19949 ,1.95738 
344 ,65.6058 ,1.39984 ,0.18580 ,1.82307 
345 ,65.8141 ,1.40201 ,0.15842 ,1.55445 
346 ,66.0220 ,1.40408 ,0.15500 ,1.52087 
347 ,66.1977 ,1.40602 ,0.13447 ,1.31940 
348 ,66.3741 ,1.40772 ,0.13105 ,1.28582 
349 ,66.5661 ,1.40956 ,0.14816 ,1.45371 
350 ,66.7581 ,1.41148 ,0.11393 ,1.11793 
351 ,66.9502 ,1.41339 ,0.09682 ,0.95004 
352 ,67.1423 ,1.41533 ,0.11393 ,1.11793 
353 ,67.3345 ,1.41724 ,0.07287 ,0.71499 
354 ,67.5265 ,1.41928 ,0.08656 ,0.84930 
355 ,67.7028 ,1.42100 ,0.07971 ,0.78214 
356 ,67.8942 ,1.42292 ,0.05234 ,0.51352 
357 ,68.0863 ,1.42472 ,0.04549 ,0.44636 
358 ,68.2784 ,1.42667 ,0.03180 ,0.31205 
359 ,68.4709 ,1.42867 ,0.00785 ,0.07700 
360 ,68.6788 ,1.43066 ,-0.00242 ,-0.02373 
361 ,68.8551 ,1.43250 ,-0.00584 ,-0.05731 
362 ,69.0470 ,1.43438 ,0.00100 ,0.00984 
363 ,69.2392 ,1.43623 ,-0.00242 ,-0.02373 
364 ,69.4473 ,1.43837 ,-0.02637 ,-0.25878 
365 ,69.6394 ,1.44030 ,-0.03664 ,-0.35952 
366 ,69.8475 ,1.44237 ,-0.03664 ,-0.35952 
367 ,70.0234 ,1.44415 ,-0.05717 ,-0.56099 
368 ,70.2155 ,1.44597 ,-0.08797 ,-0.86319 
369 ,70.3916 ,1.44789 ,-0.09140 ,-0.89677 
370 ,70.5996 ,1.44986 ,-0.08797 ,-0.86319 
371 ,70.8077 ,1.45193 ,-0.10851 ,-1.06466 
372 ,70.9835 ,1.45378 ,-0.09824 ,-0.96393 
373 ,71.1599 ,1.45549 ,-0.11535 ,-1.13182 
374 ,71.3361 ,1.45725 ,-0.12562 ,-1.23255 
375 ,71.5437 ,1.45933 ,-0.13931 ,-1.36687 
376 ,71.7362 ,1.46121 ,-0.15299 ,-1.50118 
377 ,71.9281 ,1.46320 ,-0.17011 ,-1.66907 
378 ,72.1204 ,1.46514 ,-0.15642 ,-1.53476 
379 ,72.2964 ,1.46687 ,-0.17695 ,-1.73623 
380 ,72.4885 ,1.46874 ,-0.19406 ,-1.90412 
381 ,72.6647 ,1.47063 ,-0.20090 ,-1.97128 
382 ,72.8726 ,1.47255 ,-0.21117 ,-2.07201 
383 ,73.0487 ,1.47443 ,-0.21802 ,-2.13917 
384 ,73.2570 ,1.47643 ,-0.22486 ,-2.20632 
385 ,73.4488 ,1.47843 ,-0.23513 ,-2.30706 
386 ,73.6412 ,1.48024 ,-0.24197 ,-2.37422 
387 ,73.8331 ,1.48222 ,-0.26250 ,-2.57569 
388 ,74.0253 ,1.48416 ,-0.26593 ,-2.60926 
389 ,74.2333 ,1.48617 ,-0.27961 ,-2.74358 
390 ,74.4254 ,1.48815 ,-0.27961 ,-2.74358 
391 ,74.6334 ,1.49016 ,-0.30357 ,-2.97863 
392 ,74.8094 ,1.49203 ,-0.29330 ,-2.87789 
393 ,75.0017 ,1.49392 ,-0.30015 ,-2.94505 
394 ,75.1936 ,1.49582 ,-0.33779 ,-3.31441 
395 ,75.3858 ,1.49771 ,-0.32068 ,-3.14652 
396 ,75.5938 ,1.49971 ,-0.33779 ,-3.31441 
397 ,75.7858 ,1.50179 ,-0.35148 ,-3.44872 
398 ,75.9615 ,1.50350 ,-0.34464 ,-3.38156 
399 ,76.1540 ,1.50545 ,-0.37544 ,-3.68377 
400 ,76.3461 ,1.50732 ,-0.37544 ,-3.68377 
401 ,76.5381 ,1.50937 ,-0.39939 ,-3.91882 
402 ,76.7142 ,1.51106 ,-0.40281 ,-3.95240 
403 ,76.8903 ,1.51284 ,-0.41650 ,-4.08671 
404 ,77.0820 ,1.51465 ,-0.41308 ,-4.05313 
405 ,77.2905 ,1.51675 ,-0.43361 ,-4.25460 
406 ,77.4986 ,1.51883 ,-0.43361 ,-4.25460 
407 ,77.6907 ,1.52076 ,-0.44388 ,-4.35534 
408 ,77.8828 ,1.52265 ,-0.45757 ,-4.48965 
409 ,78.0748 ,1.52460 ,-0.46441 ,-4.55681 
410 ,78.2508 ,1.52638 ,-0.47810 ,-4.69112 
411 ,78.4749 ,1.52848 ,-0.48837 ,-4.79185 
412 ,78.6512 ,1.53045 ,-0.49521 ,-4.85901 
413 ,78.8590 ,1.53243 ,-0.49863 ,-4.89259 
414 ,79.0513 ,1.53433 ,-0.52601 ,-5.16121 
415 ,79.2434 ,1.53629 ,-0.52601 ,-5.16121 
416 ,79.4515 ,1.53833 ,-0.54312 ,-5.32911 
417 ,79.6436 ,1.54032 ,-0.53628 ,-5.26195 
418 ,79.8356 ,1.54224 ,-0.55339 ,-5.42984 
419 ,80.0118 ,1.54406 ,-0.56365 ,-5.53058 
420 ,80.2033 ,1.54594 ,-0.56023 ,-5.49700 
421 ,80.3958 ,1.54781 ,-0.57392 ,-5.63131 
422 ,80.5876 ,1.54969 ,-0.57050 ,-5.59773 
423 ,80.7960 ,1.55183 ,-0.59788 ,-5.86636 
424 ,81.0038 ,1.55387 ,-0.59788 ,-5.86636 
425 ,81.1802 ,1.55571 ,-0.59788 ,-5.86636 
426 ,81.3722 ,1.55756 ,-0.62183 ,-6.10141 
427 ,81.5643 ,1.55953 ,-0.62868 ,-6.16856 
428 ,81.7406 ,1.56128 ,-0.63210 ,-6.20214 
429 ,81.9485 ,1.56330 ,-0.65605 ,-6.43719 
430 ,82.1566 ,1.56537 ,-0.66632 ,-6.53793 
431 ,82.3482 ,1.56731 ,-0.66632 ,-6.53793 
432 ,82.5403 ,1.56920 ,-0.67659 ,-6.63866 
433 ,82.7329 ,1.57116 ,-0.68685 ,-6.73940 
434 ,82.9249 ,1.57317 ,-0.68685 ,-6.73940 
435 ,83.1009 ,1.57492 ,-0.69370 ,-6.80655 
436 ,83.2931 ,1.57675 ,-0.72450 ,-7.10876 
437 ,83.4530 ,1.57853 ,-0.72450 ,-7.10876 
438 ,83.6290 ,1.58014 ,-0.73476 ,-7.20949 
439 ,83.8372 ,1.58219 ,-0.74161 ,-7.27665 
440 ,84.0292 ,1.58406 ,-0.74161 ,-7.27665 
441 ,84.2535 ,1.58639 ,-0.76214 ,-7.47812 
442 ,84.4451 ,1.58828 ,-0.74503 ,-7.31023 
443 ,84.6374 ,1.59019 ,-0.77241 ,-7.57885 
444 ,84.8457 ,1.59228 ,-0.77925 ,-7.64601 
445 ,85.0218 ,1.59406 ,-0.77583 ,-7.61243 
446 ,85.2141 ,1.59588 ,-0.79294 ,-7.78032 
447 ,85.4219 ,1.59799 ,-0.79978 ,-7.84748 
448 ,85.5977 ,1.59984 ,-0.80663 ,-7.91464 
449 ,85.7741 ,1.60164 ,-0.83058 ,-8.14968 
450 ,85.9822 ,1.60366 ,-0.81689 ,-8.01537 
451 ,86.1583 ,1.60545 ,-0.83058 ,-8.14968 
452 ,86.3342 ,1.60725 ,-0.84085 ,-8.25042 
453 ,86.5265 ,1.60907 ,-0.85454 ,-8.38473 
454 ,86.7342 ,1.61114 ,-0.87165 ,-8.55262 
455 ,86.9266 ,1.61315 ,-0.87849 ,-8.61978 
456 ,87.1185 ,1.61497 ,-0.87507 ,-8.58620 
457 ,87.3268 ,1.61706 ,-0.89560 ,-8.78767 
458 ,87.5349 ,1.61917 ,-0.89903 ,-8.82125 
459 ,87.7425 ,1.62125 ,-0.89903 ,-8.82125 
460 ,87.9345 ,1.62316 ,-0.92298 ,-9.05630 
461 ,88.1113 ,1.62500 ,-0.92983 ,-9.12345 
462 ,88.3192 ,1.62697 ,-0.92983 ,-9.12345 
463 ,88.5111 ,1.62894 ,-0.94694 ,-9.29135 
