Data stamp = , 26-04-2022 02:07:49 426

Calibration Values: 
Slope = , 26.54 , g/V 
Offset Voltage at no contact = , -0.501760 , V 

No , Time , Stage Position ,   Mass , Force 
   ,  (s) ,      (mm)      ,   (g)  , (mN)  

1 ,0.0000 ,0.74942 ,5.30878 ,52.08979 
2 ,0.2855 ,0.74961 ,5.28483 ,51.85474 
3 ,0.6217 ,0.75076 ,5.28825 ,51.88832 
4 ,0.8620 ,0.75281 ,5.28825 ,51.88832 
5 ,1.0543 ,0.75469 ,5.29510 ,51.95548 
6 ,1.2623 ,0.75669 ,5.27798 ,51.78758 
7 ,1.4543 ,0.75859 ,5.30194 ,52.02263 
8 ,1.6464 ,0.76063 ,5.30194 ,52.02263 
9 ,1.8225 ,0.76249 ,5.26087 ,51.61969 
10 ,2.0307 ,0.76436 ,5.25403 ,51.55254 
11 ,2.2387 ,0.76653 ,5.23007 ,51.31749 
12 ,2.4147 ,0.76832 ,5.21639 ,51.18317 
13 ,2.5909 ,0.77007 ,5.21296 ,51.14960 
14 ,2.7829 ,0.77194 ,5.19243 ,50.94813 
15 ,2.9745 ,0.77389 ,5.17190 ,50.74666 
16 ,3.1667 ,0.77578 ,5.15821 ,50.61234 
17 ,3.3432 ,0.77765 ,5.14110 ,50.44445 
18 ,3.5672 ,0.77979 ,5.13425 ,50.37729 
19 ,3.7592 ,0.78172 ,5.09661 ,50.00793 
20 ,3.9515 ,0.78368 ,5.10345 ,50.07509 
21 ,4.1435 ,0.78554 ,5.05897 ,49.63857 
22 ,4.3356 ,0.78753 ,5.04528 ,49.50426 
23 ,4.5275 ,0.78940 ,5.04528 ,49.50426 
24 ,4.7200 ,0.79128 ,5.02474 ,49.30279 
25 ,4.9123 ,0.79330 ,5.00079 ,49.06774 
26 ,5.1035 ,0.79521 ,4.96999 ,48.76554 
27 ,5.2960 ,0.79709 ,4.96657 ,48.73196 
28 ,5.4881 ,0.79899 ,4.94946 ,48.56407 
29 ,5.6800 ,0.80088 ,4.92208 ,48.29544 
30 ,5.8720 ,0.80289 ,4.92550 ,48.32902 
31 ,6.0483 ,0.80472 ,4.89812 ,48.06039 
32 ,6.2560 ,0.80668 ,4.87075 ,47.79177 
33 ,6.4485 ,0.80862 ,4.85364 ,47.62387 
34 ,6.6405 ,0.81059 ,4.83310 ,47.42240 
35 ,6.8164 ,0.81235 ,4.81599 ,47.25451 
36 ,7.0086 ,0.81422 ,4.80573 ,47.15378 
37 ,7.2008 ,0.81613 ,4.76466 ,46.75084 
38 ,7.3765 ,0.81802 ,4.76124 ,46.71726 
39 ,7.5688 ,0.81983 ,4.75097 ,46.61653 
40 ,7.7450 ,0.82161 ,4.73044 ,46.41506 
41 ,7.9531 ,0.82366 ,4.72359 ,46.34790 
42 ,8.1451 ,0.82562 ,4.69279 ,46.04569 
43 ,8.3208 ,0.82737 ,4.66884 ,45.81065 
44 ,8.5134 ,0.82926 ,4.66542 ,45.77707 
45 ,8.7214 ,0.83133 ,4.63119 ,45.44128 
46 ,8.9140 ,0.83326 ,4.63119 ,45.44128 
47 ,9.1215 ,0.83528 ,4.60724 ,45.20624 
48 ,9.3296 ,0.83741 ,4.59013 ,45.03835 
49 ,9.5216 ,0.83926 ,4.56275 ,44.76972 
50 ,9.6974 ,0.84113 ,4.53880 ,44.53467 
51 ,9.8736 ,0.84290 ,4.53537 ,44.50109 
52 ,10.0659 ,0.84477 ,4.52169 ,44.36678 
53 ,10.2739 ,0.84685 ,4.50800 ,44.23247 
54 ,10.4656 ,0.84873 ,4.48062 ,43.96384 
55 ,10.6576 ,0.85067 ,4.44640 ,43.62806 
56 ,10.8337 ,0.85254 ,4.46009 ,43.76237 
57 ,11.0260 ,0.85438 ,4.43955 ,43.56090 
58 ,11.2183 ,0.85633 ,4.40533 ,43.22512 
59 ,11.4263 ,0.85833 ,4.37795 ,42.95649 
60 ,11.6179 ,0.86023 ,4.38138 ,42.99007 
61 ,11.7946 ,0.86209 ,4.36769 ,42.85576 
62 ,11.9864 ,0.86395 ,4.34373 ,42.62071 
63 ,12.1626 ,0.86579 ,4.33004 ,42.48639 
64 ,12.3549 ,0.86764 ,4.31636 ,42.35208 
65 ,12.5469 ,0.86955 ,4.28556 ,42.04988 
66 ,12.7549 ,0.87163 ,4.27871 ,41.98272 
67 ,12.9309 ,0.87347 ,4.26845 ,41.88198 
68 ,13.1394 ,0.87550 ,4.23080 ,41.51262 
69 ,13.3313 ,0.87743 ,4.23080 ,41.51262 
70 ,13.5230 ,0.87931 ,4.20342 ,41.24400 
71 ,13.6992 ,0.88118 ,4.18289 ,41.04253 
72 ,13.8911 ,0.88302 ,4.18631 ,41.07611 
73 ,14.0996 ,0.88512 ,4.14525 ,40.67317 
74 ,14.3077 ,0.88710 ,4.13498 ,40.57243 
75 ,14.4997 ,0.88907 ,4.11103 ,40.33738 
76 ,14.6917 ,0.89099 ,4.11103 ,40.33738 
77 ,14.8516 ,0.89278 ,4.09734 ,40.20307 
78 ,15.0438 ,0.89457 ,4.06654 ,39.90087 
79 ,15.2521 ,0.89650 ,4.04600 ,39.69940 
80 ,15.4442 ,0.89867 ,4.01520 ,39.39719 
81 ,15.6202 ,0.90036 ,4.01178 ,39.36361 
82 ,15.8120 ,0.90234 ,3.98783 ,39.12856 
83 ,15.9719 ,0.90403 ,3.99467 ,39.19572 
84 ,16.1483 ,0.90565 ,3.97756 ,39.02783 
85 ,16.3245 ,0.90740 ,3.95018 ,38.75920 
86 ,16.5165 ,0.90927 ,3.93307 ,38.59131 
87 ,16.6926 ,0.91106 ,3.90912 ,38.35626 
88 ,16.8847 ,0.91294 ,3.89885 ,38.25553 
89 ,17.0447 ,0.91469 ,3.87490 ,38.02048 
90 ,17.2209 ,0.91637 ,3.86463 ,37.91975 
91 ,17.4136 ,0.91822 ,3.85779 ,37.85259 
92 ,17.6050 ,0.92018 ,3.83725 ,37.65112 
93 ,17.7972 ,0.92202 ,3.82699 ,37.55038 
94 ,17.9889 ,0.92399 ,3.81672 ,37.44965 
95 ,18.1650 ,0.92575 ,3.79619 ,37.24818 
96 ,18.3734 ,0.92784 ,3.76881 ,36.97955 
97 ,18.5650 ,0.92977 ,3.73801 ,36.67735 
98 ,18.7574 ,0.93163 ,3.73117 ,36.61019 
99 ,18.9496 ,0.93365 ,3.71748 ,36.47588 
100 ,19.1573 ,0.93568 ,3.70037 ,36.30799 
101 ,19.3497 ,0.93753 ,3.69352 ,36.24083 
102 ,19.5259 ,0.93942 ,3.66272 ,35.93863 
103 ,19.7339 ,0.94139 ,3.65588 ,35.87147 
104 ,19.9100 ,0.94323 ,3.63192 ,35.63642 
105 ,20.1022 ,0.94514 ,3.61481 ,35.46853 
106 ,20.2942 ,0.94700 ,3.60454 ,35.36779 
107 ,20.4703 ,0.94885 ,3.59770 ,35.30064 
108 ,20.6784 ,0.95092 ,3.55663 ,34.89770 
109 ,20.8704 ,0.95275 ,3.56348 ,34.96485 
110 ,21.0625 ,0.95468 ,3.51899 ,34.52834 
111 ,21.2545 ,0.95664 ,3.52241 ,34.56192 
112 ,21.4627 ,0.95871 ,3.48819 ,34.22613 
113 ,21.6548 ,0.96060 ,3.48135 ,34.15898 
114 ,21.8466 ,0.96253 ,3.46766 ,34.02466 
115 ,22.0228 ,0.96439 ,3.43344 ,33.68888 
116 ,22.2150 ,0.96623 ,3.43001 ,33.65530 
117 ,22.3906 ,0.96805 ,3.41633 ,33.52099 
118 ,22.5832 ,0.96986 ,3.38553 ,33.21878 
119 ,22.7747 ,0.97181 ,3.38210 ,33.18520 
120 ,22.9513 ,0.97362 ,3.37184 ,33.08447 
121 ,23.1430 ,0.97553 ,3.33419 ,32.71511 
122 ,23.3195 ,0.97729 ,3.32051 ,32.58080 
123 ,23.5111 ,0.97916 ,3.32393 ,32.61437 
124 ,23.6872 ,0.98099 ,3.31024 ,32.48006 
125 ,23.8637 ,0.98274 ,3.27944 ,32.17786 
126 ,24.0556 ,0.98459 ,3.26575 ,32.04354 
127 ,24.2318 ,0.98643 ,3.25891 ,31.97639 
128 ,24.4079 ,0.98816 ,3.25206 ,31.90923 
129 ,24.5996 ,0.99016 ,3.20757 ,31.47271 
130 ,24.7758 ,0.99193 ,3.21442 ,31.53987 
131 ,24.9521 ,0.99363 ,3.19388 ,31.33840 
132 ,25.1280 ,0.99538 ,3.18362 ,31.23766 
133 ,25.3204 ,0.99720 ,3.14940 ,30.90188 
134 ,25.5125 ,0.99915 ,3.14597 ,30.86830 
135 ,25.7046 ,1.00108 ,3.12544 ,30.66683 
136 ,25.8964 ,1.00310 ,3.09806 ,30.39821 
137 ,26.0884 ,1.00496 ,3.10149 ,30.43178 
138 ,26.2965 ,1.00701 ,3.07411 ,30.16316 
139 ,26.4887 ,1.00899 ,3.06384 ,30.06242 
140 ,26.6649 ,1.01074 ,3.04673 ,29.89453 
141 ,26.8568 ,1.01261 ,3.01935 ,29.62590 
142 ,27.0651 ,1.01471 ,3.00224 ,29.45801 
143 ,27.2731 ,1.01676 ,2.98855 ,29.32370 
144 ,27.4493 ,1.01864 ,2.98171 ,29.25654 
145 ,27.6569 ,1.02067 ,2.94064 ,28.85360 
146 ,27.8329 ,1.02239 ,2.93380 ,28.78645 
147 ,28.0415 ,1.02441 ,2.92011 ,28.65213 
148 ,28.2336 ,1.02640 ,2.92011 ,28.65213 
149 ,28.4256 ,1.02831 ,2.89616 ,28.41709 
150 ,28.6178 ,1.03026 ,2.87562 ,28.21562 
151 ,28.8098 ,1.03211 ,2.87562 ,28.21562 
152 ,29.0017 ,1.03408 ,2.82087 ,27.67836 
153 ,29.1940 ,1.03603 ,2.81745 ,27.64479 
154 ,29.3861 ,1.03787 ,2.81060 ,27.57763 
155 ,29.5781 ,1.03981 ,2.77980 ,27.27542 
156 ,29.7704 ,1.04170 ,2.77980 ,27.27542 
157 ,29.9619 ,1.04377 ,2.74900 ,26.97322 
158 ,30.1542 ,1.04559 ,2.72847 ,26.77175 
159 ,30.3623 ,1.04763 ,2.72163 ,26.70459 
160 ,30.5386 ,1.04950 ,2.69425 ,26.43597 
161 ,30.7466 ,1.05145 ,2.67714 ,26.26807 
162 ,30.9224 ,1.05332 ,2.67029 ,26.20092 
163 ,31.0982 ,1.05507 ,2.66003 ,26.10018 
164 ,31.2908 ,1.05692 ,2.66003 ,26.10018 
165 ,31.4829 ,1.05884 ,2.61554 ,25.66367 
166 ,31.6909 ,1.06091 ,2.61212 ,25.63009 
167 ,31.8829 ,1.06285 ,2.58474 ,25.36146 
168 ,32.0751 ,1.06477 ,2.56763 ,25.19357 
169 ,32.2671 ,1.06668 ,2.56078 ,25.12641 
170 ,32.4752 ,1.06875 ,2.53341 ,24.85779 
171 ,32.6672 ,1.07063 ,2.52656 ,24.79063 
172 ,32.8595 ,1.07257 ,2.52314 ,24.75705 
173 ,33.0355 ,1.07448 ,2.49918 ,24.52200 
174 ,33.2271 ,1.07632 ,2.48892 ,24.42127 
175 ,33.4191 ,1.07823 ,2.44785 ,24.01833 
176 ,33.6112 ,1.08014 ,2.45470 ,24.08549 
177 ,33.8037 ,1.08207 ,2.43074 ,23.85044 
178 ,34.0119 ,1.08419 ,2.41021 ,23.64897 
179 ,34.2040 ,1.08613 ,2.39310 ,23.48108 
180 ,34.3958 ,1.08801 ,2.37941 ,23.34676 
181 ,34.5877 ,1.08984 ,2.36914 ,23.24603 
182 ,34.7640 ,1.09169 ,2.35203 ,23.07814 
183 ,34.9723 ,1.09368 ,2.33492 ,22.91024 
184 ,35.1643 ,1.09566 ,2.31439 ,22.70877 
185 ,35.3561 ,1.09755 ,2.28359 ,22.40657 
186 ,35.5485 ,1.09951 ,2.29385 ,22.50731 
187 ,35.7406 ,1.10148 ,2.25621 ,22.13794 
188 ,35.9327 ,1.10334 ,2.25279 ,22.10437 
189 ,36.1246 ,1.10524 ,2.22883 ,21.86932 
190 ,36.3009 ,1.10710 ,2.22883 ,21.86932 
191 ,36.4925 ,1.10892 ,2.20146 ,21.60069 
192 ,36.6852 ,1.11088 ,2.19803 ,21.56711 
193 ,36.8930 ,1.11284 ,2.16381 ,21.23133 
194 ,37.0852 ,1.11484 ,2.16381 ,21.23133 
195 ,37.2932 ,1.11691 ,2.14670 ,21.06344 
196 ,37.4854 ,1.11881 ,2.12959 ,20.89555 
197 ,37.6935 ,1.12093 ,2.09879 ,20.59334 
198 ,37.8855 ,1.12294 ,2.08168 ,20.42545 
199 ,38.0615 ,1.12472 ,2.08168 ,20.42545 
200 ,38.2537 ,1.12655 ,2.06799 ,20.29114 
201 ,38.4455 ,1.12851 ,2.04061 ,20.02251 
202 ,38.6375 ,1.13041 ,2.02350 ,19.85462 
203 ,38.8299 ,1.13235 ,2.02350 ,19.85462 
204 ,39.0381 ,1.13431 ,1.98244 ,19.45168 
205 ,39.2141 ,1.13624 ,1.99613 ,19.58599 
206 ,39.3902 ,1.13794 ,1.96190 ,19.25021 
207 ,39.5822 ,1.13984 ,1.94137 ,19.04874 
208 ,39.8063 ,1.14198 ,1.93453 ,18.98158 
209 ,39.9824 ,1.14389 ,1.92426 ,18.88085 
210 ,40.1743 ,1.14576 ,1.89004 ,18.54507 
211 ,40.3662 ,1.14771 ,1.90031 ,18.64580 
212 ,40.5746 ,1.14972 ,1.84897 ,18.14213 
213 ,40.7823 ,1.15179 ,1.85924 ,18.24286 
214 ,40.9747 ,1.15374 ,1.82844 ,17.94066 
215 ,41.1828 ,1.15580 ,1.82502 ,17.90708 
216 ,41.3590 ,1.15762 ,1.80449 ,17.70561 
217 ,41.5510 ,1.15947 ,1.79422 ,17.60487 
218 ,41.7430 ,1.16141 ,1.77711 ,17.43698 
219 ,41.9352 ,1.16342 ,1.77369 ,17.40340 
220 ,42.1113 ,1.16516 ,1.74631 ,17.13478 
221 ,42.2872 ,1.16692 ,1.74973 ,17.16836 
222 ,42.4794 ,1.16884 ,1.71551 ,16.83257 
223 ,42.6556 ,1.17059 ,1.68813 ,16.56395 
224 ,42.8638 ,1.17263 ,1.69155 ,16.59752 
225 ,43.0557 ,1.17454 ,1.66418 ,16.32890 
226 ,43.2638 ,1.17661 ,1.66418 ,16.32890 
227 ,43.4718 ,1.17868 ,1.65391 ,16.22816 
228 ,43.6639 ,1.18061 ,1.62653 ,15.95954 
229 ,43.8401 ,1.18244 ,1.60942 ,15.79164 
230 ,44.0477 ,1.18442 ,1.61284 ,15.82522 
231 ,44.2403 ,1.18635 ,1.58547 ,15.55660 
232 ,44.4323 ,1.18830 ,1.58204 ,15.52302 
233 ,44.6243 ,1.19031 ,1.55467 ,15.25439 
234 ,44.8165 ,1.19212 ,1.54782 ,15.18724 
235 ,45.0085 ,1.19413 ,1.53413 ,15.05292 
236 ,45.2005 ,1.19600 ,1.52045 ,14.91861 
237 ,45.3926 ,1.19788 ,1.51702 ,14.88503 
238 ,45.5846 ,1.19980 ,1.49991 ,14.71714 
239 ,45.7927 ,1.20187 ,1.46569 ,14.38136 
240 ,45.9849 ,1.20387 ,1.47253 ,14.44851 
241 ,46.1766 ,1.20585 ,1.44174 ,14.14631 
242 ,46.3690 ,1.20761 ,1.43831 ,14.11273 
243 ,46.5770 ,1.20973 ,1.41778 ,13.91126 
244 ,46.7691 ,1.21167 ,1.41094 ,13.84410 
245 ,46.9453 ,1.21346 ,1.40067 ,13.74337 
246 ,47.1372 ,1.21535 ,1.36645 ,13.40759 
247 ,47.3452 ,1.21741 ,1.36987 ,13.44116 
248 ,47.5694 ,1.21952 ,1.36987 ,13.44116 
249 ,47.7616 ,1.22155 ,1.33565 ,13.10538 
250 ,47.9535 ,1.22350 ,1.31169 ,12.87033 
251 ,48.1297 ,1.22531 ,1.30827 ,12.83675 
252 ,48.3054 ,1.22712 ,1.29116 ,12.66886 
253 ,48.4978 ,1.22891 ,1.27405 ,12.50097 
254 ,48.7059 ,1.23105 ,1.26720 ,12.43381 
255 ,48.8980 ,1.23295 ,1.23983 ,12.16519 
256 ,49.0740 ,1.23480 ,1.24325 ,12.19877 
257 ,49.2501 ,1.23653 ,1.21929 ,11.96372 
258 ,49.4257 ,1.23824 ,1.21587 ,11.93014 
259 ,49.6024 ,1.24006 ,1.20218 ,11.79583 
260 ,49.7942 ,1.24203 ,1.18850 ,11.66151 
261 ,49.9704 ,1.24369 ,1.16454 ,11.42647 
262 ,50.1623 ,1.24563 ,1.17481 ,11.52720 
263 ,50.3545 ,1.24748 ,1.14058 ,11.19142 
264 ,50.5463 ,1.24937 ,1.15085 ,11.29215 
265 ,50.7222 ,1.25130 ,1.13032 ,11.09068 
266 ,50.9144 ,1.25309 ,1.09610 ,10.75490 
267 ,51.0903 ,1.25498 ,1.10979 ,10.88921 
268 ,51.2824 ,1.25676 ,1.08925 ,10.68774 
269 ,51.4909 ,1.25877 ,1.06187 ,10.41912 
270 ,51.6990 ,1.26098 ,1.06530 ,10.45270 
271 ,51.8912 ,1.26288 ,1.03792 ,10.18407 
272 ,52.0672 ,1.26466 ,1.03792 ,10.18407 
273 ,52.2433 ,1.26641 ,1.03792 ,10.18407 
274 ,52.4199 ,1.26823 ,1.01054 ,9.91544 
275 ,52.6115 ,1.27004 ,0.99001 ,9.71397 
276 ,52.8197 ,1.27218 ,0.97974 ,9.61324 
277 ,53.0118 ,1.27409 ,0.96605 ,9.47892 
278 ,53.2037 ,1.27599 ,0.96605 ,9.47892 
279 ,53.3793 ,1.27788 ,0.95579 ,9.37819 
280 ,53.5879 ,1.27975 ,0.92841 ,9.10956 
281 ,53.7955 ,1.28195 ,0.90788 ,8.90809 
282 ,53.9880 ,1.28380 ,0.91472 ,8.97525 
283 ,54.2122 ,1.28597 ,0.88392 ,8.67305 
284 ,54.4040 ,1.28795 ,0.87708 ,8.60589 
285 ,54.6123 ,1.29004 ,0.85654 ,8.40442 
286 ,54.8040 ,1.29198 ,0.84286 ,8.27011 
287 ,54.9804 ,1.29374 ,0.85312 ,8.37084 
288 ,55.1723 ,1.29567 ,0.82575 ,8.10221 
289 ,55.3643 ,1.29756 ,0.82575 ,8.10221 
290 ,55.5405 ,1.29944 ,0.80863 ,7.93432 
291 ,55.7328 ,1.30129 ,0.77441 ,7.59854 
292 ,55.9244 ,1.30317 ,0.78810 ,7.73285 
293 ,56.1008 ,1.30505 ,0.76072 ,7.46423 
294 ,56.2768 ,1.30671 ,0.76072 ,7.46423 
295 ,56.4531 ,1.30851 ,0.73335 ,7.19560 
296 ,56.6452 ,1.31039 ,0.75046 ,7.36349 
297 ,56.8373 ,1.31228 ,0.70939 ,6.96055 
298 ,57.0291 ,1.31426 ,0.69913 ,6.85982 
299 ,57.2214 ,1.31617 ,0.72308 ,7.09486 
300 ,57.4295 ,1.31817 ,0.68201 ,6.69193 
301 ,57.6215 ,1.32012 ,0.68544 ,6.72550 
302 ,57.8138 ,1.32206 ,0.65806 ,6.45688 
303 ,58.0057 ,1.32401 ,0.65806 ,6.45688 
304 ,58.1813 ,1.32582 ,0.64437 ,6.32256 
305 ,58.3577 ,1.32757 ,0.63753 ,6.25541 
306 ,58.5340 ,1.32935 ,0.62042 ,6.08752 
307 ,58.7420 ,1.33130 ,0.61357 ,6.02036 
308 ,58.9340 ,1.33339 ,0.58619 ,5.75173 
309 ,59.1420 ,1.33527 ,0.57251 ,5.61742 
310 ,59.3503 ,1.33742 ,0.55882 ,5.48311 
311 ,59.5424 ,1.33939 ,0.55539 ,5.44953 
312 ,59.7186 ,1.34113 ,0.54855 ,5.38237 
313 ,59.9110 ,1.34302 ,0.51775 ,5.08017 
314 ,60.1185 ,1.34511 ,0.51433 ,5.04659 
315 ,60.2942 ,1.34690 ,0.50064 ,4.91228 
316 ,60.4867 ,1.34881 ,0.48353 ,4.74438 
317 ,60.6789 ,1.35070 ,0.49037 ,4.81154 
318 ,60.8709 ,1.35270 ,0.45615 ,4.47576 
319 ,61.0630 ,1.35454 ,0.47326 ,4.64365 
320 ,61.2870 ,1.35665 ,0.46300 ,4.54291 
321 ,61.4631 ,1.35856 ,0.43904 ,4.30787 
322 ,61.6393 ,1.36038 ,0.43904 ,4.30787 
323 ,61.8312 ,1.36222 ,0.40482 ,3.97208 
324 ,62.0074 ,1.36407 ,0.39797 ,3.90493 
325 ,62.1995 ,1.36593 ,0.39797 ,3.90493 
326 ,62.3915 ,1.36781 ,0.37060 ,3.63630 
327 ,62.5836 ,1.36974 ,0.38086 ,3.73703 
328 ,62.7917 ,1.37179 ,0.35349 ,3.46841 
329 ,62.9674 ,1.37369 ,0.36375 ,3.56914 
330 ,63.1438 ,1.37539 ,0.35006 ,3.43483 
331 ,63.3357 ,1.37727 ,0.31926 ,3.13263 
332 ,63.5275 ,1.37918 ,0.31584 ,3.09905 
333 ,63.7202 ,1.38112 ,0.31242 ,3.06547 
334 ,63.9281 ,1.38315 ,0.28847 ,2.83042 
335 ,64.1043 ,1.38501 ,0.28162 ,2.76326 
336 ,64.3124 ,1.38705 ,0.27135 ,2.66253 
337 ,64.5044 ,1.38895 ,0.26793 ,2.62895 
338 ,64.6964 ,1.39097 ,0.24398 ,2.39390 
339 ,64.8724 ,1.39268 ,0.23029 ,2.25959 
340 ,65.0806 ,1.39469 ,0.24398 ,2.39390 
341 ,65.2887 ,1.39680 ,0.21318 ,2.09170 
342 ,65.4966 ,1.39885 ,0.19607 ,1.92381 
343 ,65.6885 ,1.40076 ,0.18922 ,1.85665 
344 ,65.8809 ,1.40268 ,0.19264 ,1.89023 
345 ,66.0889 ,1.40481 ,0.15500 ,1.52087 
346 ,66.2971 ,1.40683 ,0.15500 ,1.52087 
347 ,66.4891 ,1.40879 ,0.13789 ,1.35298 
348 ,66.6813 ,1.41067 ,0.15158 ,1.48729 
349 ,66.8732 ,1.41263 ,0.12078 ,1.18508 
350 ,67.0651 ,1.41451 ,0.11393 ,1.11793 
351 ,67.2575 ,1.41647 ,0.11051 ,1.08435 
352 ,67.4654 ,1.41857 ,0.08998 ,0.88288 
353 ,67.6413 ,1.42034 ,0.10367 ,1.01719 
354 ,67.8176 ,1.42214 ,0.08314 ,0.81572 
355 ,67.9935 ,1.42383 ,0.06260 ,0.61425 
356 ,68.1696 ,1.42568 ,0.07287 ,0.71499 
357 ,68.3618 ,1.42757 ,0.05576 ,0.54710 
358 ,68.5540 ,1.42945 ,0.03180 ,0.31205 
359 ,68.7460 ,1.43132 ,0.04207 ,0.41278 
360 ,68.9221 ,1.43319 ,0.03180 ,0.31205 
361 ,69.1302 ,1.43518 ,-0.01269 ,-0.12447 
362 ,69.3382 ,1.43724 ,0.00100 ,0.00984 
363 ,69.5464 ,1.43931 ,-0.00242 ,-0.02373 
364 ,69.7385 ,1.44132 ,0.00100 ,0.00984 
365 ,69.9463 ,1.44332 ,-0.03322 ,-0.32594 
366 ,70.1224 ,1.44514 ,-0.05033 ,-0.49383 
367 ,70.3146 ,1.44699 ,-0.06402 ,-0.62814 
368 ,70.4903 ,1.44881 ,-0.06744 ,-0.66172 
369 ,70.6503 ,1.45053 ,-0.08455 ,-0.82961 
370 ,70.8424 ,1.45227 ,-0.08113 ,-0.79604 
371 ,71.0345 ,1.45423 ,-0.08113 ,-0.79604 
372 ,71.2267 ,1.45611 ,-0.09824 ,-0.96393 
373 ,71.4352 ,1.45824 ,-0.11193 ,-1.09824 
374 ,71.6272 ,1.46012 ,-0.11535 ,-1.13182 
375 ,71.8194 ,1.46205 ,-0.12219 ,-1.19898 
376 ,72.0272 ,1.46411 ,-0.13931 ,-1.36687 
377 ,72.2030 ,1.46605 ,-0.14615 ,-1.43402 
378 ,72.3955 ,1.46785 ,-0.16326 ,-1.60191 
379 ,72.5714 ,1.46967 ,-0.17011 ,-1.66907 
380 ,72.7634 ,1.47152 ,-0.18722 ,-1.83696 
381 ,72.9397 ,1.47331 ,-0.18722 ,-1.83696 
382 ,73.1478 ,1.47532 ,-0.19406 ,-1.90412 
383 ,73.3395 ,1.47729 ,-0.20433 ,-2.00485 
384 ,73.5319 ,1.47919 ,-0.22828 ,-2.23990 
385 ,73.7079 ,1.48099 ,-0.23513 ,-2.30706 
386 ,73.8999 ,1.48296 ,-0.23170 ,-2.27348 
387 ,74.1082 ,1.48496 ,-0.26593 ,-2.60926 
388 ,74.3164 ,1.48703 ,-0.25224 ,-2.47495 
389 ,74.5084 ,1.48895 ,-0.27961 ,-2.74358 
390 ,74.7165 ,1.49099 ,-0.27277 ,-2.67642 
391 ,74.9085 ,1.49296 ,-0.30015 ,-2.94505 
392 ,75.0846 ,1.49474 ,-0.30357 ,-2.97863 
393 ,75.2444 ,1.49649 ,-0.28646 ,-2.81073 
394 ,75.4207 ,1.49815 ,-0.31384 ,-3.07936 
395 ,75.5808 ,1.49985 ,-0.32068 ,-3.14652 
396 ,75.7727 ,1.50159 ,-0.34121 ,-3.34799 
397 ,75.9649 ,1.50344 ,-0.34121 ,-3.34799 
398 ,76.1412 ,1.50532 ,-0.34121 ,-3.34799 
399 ,76.3492 ,1.50742 ,-0.36175 ,-3.54946 
400 ,76.5252 ,1.50923 ,-0.36175 ,-3.54946 
401 ,76.7174 ,1.51099 ,-0.36859 ,-3.61661 
402 ,76.9415 ,1.51315 ,-0.38912 ,-3.81808 
403 ,77.1177 ,1.51511 ,-0.37886 ,-3.71735 
404 ,77.3257 ,1.51714 ,-0.40623 ,-3.98597 
405 ,77.5336 ,1.51918 ,-0.41308 ,-4.05313 
406 ,77.7254 ,1.52103 ,-0.41650 ,-4.08671 
407 ,77.9018 ,1.52294 ,-0.43361 ,-4.25460 
408 ,78.0939 ,1.52479 ,-0.43361 ,-4.25460 
409 ,78.2697 ,1.52660 ,-0.45072 ,-4.42249 
410 ,78.4461 ,1.52832 ,-0.46441 ,-4.55681 
411 ,78.6382 ,1.53022 ,-0.46783 ,-4.59038 
412 ,78.8302 ,1.53211 ,-0.47810 ,-4.69112 
413 ,79.0383 ,1.53418 ,-0.47468 ,-4.65754 
414 ,79.2143 ,1.53603 ,-0.48494 ,-4.75828 
415 ,79.4063 ,1.53791 ,-0.50548 ,-4.95975 
416 ,79.5826 ,1.53972 ,-0.51917 ,-5.09406 
417 ,79.7746 ,1.54169 ,-0.50890 ,-4.99332 
418 ,79.9665 ,1.54355 ,-0.52943 ,-5.19479 
419 ,80.1427 ,1.54533 ,-0.54312 ,-5.32911 
420 ,80.3348 ,1.54724 ,-0.53628 ,-5.26195 
421 ,80.5430 ,1.54927 ,-0.55681 ,-5.46342 
422 ,80.7350 ,1.55117 ,-0.55681 ,-5.46342 
423 ,80.9268 ,1.55306 ,-0.56365 ,-5.53058 
424 ,81.1195 ,1.55508 ,-0.58077 ,-5.69847 
425 ,81.3273 ,1.55711 ,-0.60814 ,-5.96709 
426 ,81.5196 ,1.55899 ,-0.59788 ,-5.86636 
427 ,81.6954 ,1.56090 ,-0.61499 ,-6.03425 
428 ,81.8715 ,1.56260 ,-0.60814 ,-5.96709 
429 ,82.0631 ,1.56456 ,-0.62868 ,-6.16856 
430 ,82.2556 ,1.56638 ,-0.62183 ,-6.10141 
431 ,82.4477 ,1.56826 ,-0.65605 ,-6.43719 
432 ,82.6238 ,1.57011 ,-0.67316 ,-6.60508 
433 ,82.8000 ,1.57192 ,-0.65605 ,-6.43719 
434 ,83.0080 ,1.57384 ,-0.68343 ,-6.70582 
435 ,83.2001 ,1.57585 ,-0.67316 ,-6.60508 
436 ,83.3762 ,1.57769 ,-0.68685 ,-6.73940 
437 ,83.5681 ,1.57955 ,-0.70054 ,-6.87371 
438 ,83.7604 ,1.58148 ,-0.71081 ,-6.97444 
439 ,83.9364 ,1.58327 ,-0.70396 ,-6.90729 
440 ,84.1445 ,1.58531 ,-0.73476 ,-7.20949 
441 ,84.3363 ,1.58715 ,-0.71765 ,-7.04160 
442 ,84.5447 ,1.58925 ,-0.74503 ,-7.31023 
443 ,84.7208 ,1.59111 ,-0.76898 ,-7.54527 
444 ,84.9288 ,1.59308 ,-0.76898 ,-7.54527 
445 ,85.1209 ,1.59505 ,-0.77925 ,-7.64601 
446 ,85.3125 ,1.59704 ,-0.78610 ,-7.71317 
447 ,85.4891 ,1.59879 ,-0.77925 ,-7.64601 
448 ,85.6809 ,1.60059 ,-0.78952 ,-7.74674 
449 ,85.8732 ,1.60257 ,-0.79636 ,-7.81390 
450 ,86.2733 ,1.60548 ,-0.79636 ,-7.81390 
451 ,86.4655 ,1.60844 ,-0.83743 ,-8.21684 
452 ,86.6895 ,1.61061 ,-0.82032 ,-8.04895 
453 ,86.8816 ,1.61265 ,-0.85454 ,-8.38473 
454 ,87.0737 ,1.61455 ,-0.84085 ,-8.25042 
455 ,87.2657 ,1.61646 ,-0.87165 ,-8.55262 
456 ,87.4574 ,1.61846 ,-0.86138 ,-8.45189 
457 ,87.6498 ,1.62038 ,-0.87849 ,-8.61978 
458 ,87.8579 ,1.62236 ,-0.88534 ,-8.68694 
459 ,88.0499 ,1.62433 ,-0.88192 ,-8.65336 
460 ,88.2259 ,1.62611 ,-0.91614 ,-8.98914 
461 ,88.4022 ,1.62787 ,-0.91956 ,-9.02272 
462 ,88.5783 ,1.62962 ,-0.92983 ,-9.12345 
463 ,88.7701 ,1.63157 ,-0.91272 ,-8.95556 
