Data stamp = , 26-04-2022 12:10:36 783

Calibration Values: 
Slope = , 26.54 , g/V 
Offset Voltage at no contact = , -0.501760 , V 

No , Time , Stage Position ,   Mass , Force 
   ,  (s) ,      (mm)      ,   (g)  , (mN)  

1 ,0.0000 ,0.74939 ,5.30878 ,52.08979 
2 ,0.3090 ,0.74961 ,5.29510 ,51.95548 
3 ,0.6614 ,0.75093 ,5.31221 ,52.12337 
4 ,0.8536 ,0.75277 ,5.30536 ,52.05621 
5 ,1.0455 ,0.75465 ,5.29852 ,51.98905 
6 ,1.2538 ,0.75659 ,5.29852 ,51.98905 
7 ,1.4458 ,0.75857 ,5.31563 ,52.15694 
8 ,1.6540 ,0.76058 ,5.28825 ,51.88832 
9 ,1.8459 ,0.76252 ,5.25745 ,51.58611 
10 ,2.0381 ,0.76449 ,5.25061 ,51.51896 
11 ,2.2303 ,0.76643 ,5.23007 ,51.31749 
12 ,2.4378 ,0.76844 ,5.21296 ,51.14960 
13 ,2.6304 ,0.77042 ,5.18216 ,50.84739 
14 ,2.8220 ,0.77232 ,5.17532 ,50.78023 
15 ,2.9986 ,0.77417 ,5.16505 ,50.67950 
16 ,3.1906 ,0.77603 ,5.12741 ,50.31014 
17 ,3.3987 ,0.77806 ,5.12056 ,50.24298 
18 ,3.5906 ,0.78000 ,5.08977 ,49.94078 
19 ,3.7669 ,0.78188 ,5.06923 ,49.73931 
20 ,3.9591 ,0.78374 ,5.05554 ,49.60499 
21 ,4.1669 ,0.78577 ,5.02474 ,49.30279 
22 ,4.3589 ,0.78769 ,5.03843 ,49.43710 
23 ,4.5508 ,0.78962 ,4.99394 ,49.00058 
24 ,4.7432 ,0.79154 ,4.96315 ,48.69838 
25 ,4.9514 ,0.79361 ,4.95288 ,48.59764 
26 ,5.1434 ,0.79550 ,4.94261 ,48.49691 
27 ,5.3195 ,0.79733 ,4.91181 ,48.19471 
28 ,5.4957 ,0.79909 ,4.91523 ,48.22828 
29 ,5.7353 ,0.80135 ,4.87759 ,47.85892 
30 ,5.9278 ,0.80342 ,4.84337 ,47.52314 
31 ,6.1199 ,0.80533 ,4.83652 ,47.45598 
32 ,6.3119 ,0.80718 ,4.82626 ,47.35525 
33 ,6.4880 ,0.80903 ,4.79888 ,47.08662 
34 ,6.6798 ,0.81094 ,4.78519 ,46.95231 
35 ,6.8557 ,0.81272 ,4.77493 ,46.85157 
36 ,7.0483 ,0.81454 ,4.74413 ,46.54937 
37 ,7.2401 ,0.81649 ,4.74755 ,46.58295 
38 ,7.4324 ,0.81853 ,4.69964 ,46.11285 
39 ,7.6080 ,0.82023 ,4.69964 ,46.11285 
40 ,7.8005 ,0.82205 ,4.68253 ,45.94496 
41 ,7.9926 ,0.82400 ,4.66542 ,45.77707 
42 ,8.1844 ,0.82589 ,4.62777 ,45.40771 
43 ,8.3608 ,0.82770 ,4.61751 ,45.30697 
44 ,8.5687 ,0.82974 ,4.59013 ,45.03835 
45 ,8.7610 ,0.83168 ,4.59697 ,45.10550 
46 ,8.9209 ,0.83346 ,4.57986 ,44.93761 
47 ,9.1130 ,0.83522 ,4.56960 ,44.83688 
48 ,9.3049 ,0.83718 ,4.52511 ,44.40036 
49 ,9.4971 ,0.83903 ,4.52169 ,44.36678 
50 ,9.6890 ,0.84098 ,4.50115 ,44.16531 
51 ,9.8813 ,0.84286 ,4.48062 ,43.96384 
52 ,10.0730 ,0.84477 ,4.47378 ,43.89668 
53 ,10.2655 ,0.84672 ,4.43955 ,43.56090 
54 ,10.4735 ,0.84882 ,4.43271 ,43.49374 
55 ,10.6496 ,0.85062 ,4.42244 ,43.39301 
56 ,10.8414 ,0.85245 ,4.39507 ,43.12438 
57 ,11.0175 ,0.85430 ,4.38138 ,42.99007 
58 ,11.1934 ,0.85615 ,4.37453 ,42.92291 
59 ,11.3855 ,0.85789 ,4.33347 ,42.51997 
60 ,11.5616 ,0.85978 ,4.33004 ,42.48639 
61 ,11.7537 ,0.86153 ,4.31978 ,42.38566 
62 ,11.9459 ,0.86356 ,4.29240 ,42.11703 
63 ,12.1222 ,0.86542 ,4.27187 ,41.91556 
64 ,12.2983 ,0.86719 ,4.26845 ,41.88198 
65 ,12.4748 ,0.86886 ,4.24791 ,41.68051 
66 ,12.6667 ,0.87071 ,4.22053 ,41.41189 
67 ,12.8420 ,0.87258 ,4.21027 ,41.31115 
68 ,13.0186 ,0.87434 ,4.19316 ,41.14326 
69 ,13.2106 ,0.87620 ,4.17947 ,41.00895 
70 ,13.3866 ,0.87797 ,4.16236 ,40.84106 
71 ,13.5627 ,0.87975 ,4.14525 ,40.67317 
72 ,13.7388 ,0.88153 ,4.12471 ,40.47170 
73 ,13.9309 ,0.88337 ,4.12471 ,40.47170 
74 ,14.1389 ,0.88542 ,4.09049 ,40.13591 
75 ,14.3310 ,0.88733 ,4.08365 ,40.06876 
76 ,14.5390 ,0.88944 ,4.05285 ,39.76655 
77 ,14.7633 ,0.89153 ,4.04258 ,39.66582 
78 ,14.9393 ,0.89354 ,4.00836 ,39.33003 
79 ,15.1313 ,0.89536 ,4.01178 ,39.36361 
80 ,15.3234 ,0.89739 ,3.98098 ,39.06141 
81 ,15.4831 ,0.89908 ,3.95361 ,38.79278 
82 ,15.6755 ,0.90084 ,3.95703 ,38.82636 
83 ,15.8676 ,0.90275 ,3.94334 ,38.69205 
84 ,16.0597 ,0.90460 ,3.91938 ,38.45700 
85 ,16.2517 ,0.90657 ,3.90570 ,38.32268 
86 ,16.4277 ,0.90841 ,3.89885 ,38.25553 
87 ,16.6199 ,0.91039 ,3.87147 ,37.98690 
88 ,16.7958 ,0.91207 ,3.84410 ,37.71828 
89 ,16.9880 ,0.91387 ,3.84067 ,37.68470 
90 ,17.1642 ,0.91575 ,3.82356 ,37.51681 
91 ,17.3560 ,0.91759 ,3.79619 ,37.24818 
92 ,17.5644 ,0.91966 ,3.77223 ,37.01313 
93 ,17.7563 ,0.92157 ,3.76539 ,36.94597 
94 ,17.9324 ,0.92343 ,3.76196 ,36.91240 
95 ,18.1246 ,0.92529 ,3.72090 ,36.50946 
96 ,18.3326 ,0.92734 ,3.71748 ,36.47588 
97 ,18.5087 ,0.92919 ,3.71063 ,36.40872 
98 ,18.6844 ,0.93091 ,3.67641 ,36.07294 
99 ,18.8766 ,0.93278 ,3.65930 ,35.90505 
100 ,19.0848 ,0.93486 ,3.64561 ,35.77073 
101 ,19.2610 ,0.93674 ,3.62508 ,35.56926 
102 ,19.4531 ,0.93855 ,3.62166 ,35.53569 
103 ,19.6612 ,0.94066 ,3.58743 ,35.19990 
104 ,19.8368 ,0.94244 ,3.57032 ,35.03201 
105 ,20.0294 ,0.94432 ,3.57032 ,35.03201 
106 ,20.2212 ,0.94629 ,3.54979 ,34.83054 
107 ,20.3975 ,0.94805 ,3.53268 ,34.66265 
108 ,20.5896 ,0.94993 ,3.52241 ,34.56192 
109 ,20.7976 ,0.95199 ,3.49846 ,34.32687 
110 ,20.9895 ,0.95388 ,3.50188 ,34.36045 
111 ,21.1658 ,0.95576 ,3.47450 ,34.09182 
112 ,21.3899 ,0.95779 ,3.44370 ,33.78961 
113 ,21.5815 ,0.95982 ,3.42659 ,33.62172 
114 ,21.7579 ,0.96165 ,3.40948 ,33.45383 
115 ,21.9341 ,0.96342 ,3.38895 ,33.25236 
116 ,22.1262 ,0.96538 ,3.39237 ,33.28594 
117 ,22.3344 ,0.96737 ,3.36499 ,33.01731 
118 ,22.5262 ,0.96929 ,3.34788 ,32.84942 
119 ,22.7184 ,0.97123 ,3.31708 ,32.54722 
120 ,22.9265 ,0.97318 ,3.32051 ,32.58080 
121 ,23.1182 ,0.97528 ,3.29313 ,32.31217 
122 ,23.2942 ,0.97707 ,3.28628 ,32.24501 
123 ,23.4705 ,0.97879 ,3.26917 ,32.07712 
124 ,23.6627 ,0.98066 ,3.24522 ,31.84207 
125 ,23.8865 ,0.98289 ,3.23153 ,31.70776 
126 ,24.0630 ,0.98470 ,3.21442 ,31.53987 
127 ,24.2711 ,0.98671 ,3.19731 ,31.37198 
128 ,24.4791 ,0.98882 ,3.16651 ,31.06977 
129 ,24.6713 ,0.99070 ,3.16309 ,31.03619 
130 ,24.8634 ,0.99268 ,3.14255 ,30.83472 
131 ,25.0553 ,0.99453 ,3.11860 ,30.59968 
132 ,25.2632 ,0.99665 ,3.10833 ,30.49894 
133 ,25.4717 ,0.99863 ,3.06726 ,30.09600 
134 ,25.6796 ,1.00077 ,3.06042 ,30.02884 
135 ,25.8557 ,1.00262 ,3.04331 ,29.86095 
136 ,26.0318 ,1.00437 ,3.02620 ,29.69306 
137 ,26.2080 ,1.00618 ,3.00909 ,29.52517 
138 ,26.4157 ,1.00813 ,2.99882 ,29.42444 
139 ,26.6081 ,1.01003 ,2.98513 ,29.29012 
140 ,26.7839 ,1.01200 ,2.96460 ,29.08865 
141 ,26.9768 ,1.01380 ,2.95091 ,28.95434 
142 ,27.1843 ,1.01587 ,2.95091 ,28.95434 
143 ,27.3924 ,1.01794 ,2.90642 ,28.51782 
144 ,27.5683 ,1.01978 ,2.91327 ,28.58498 
145 ,27.7767 ,1.02182 ,2.88589 ,28.31635 
146 ,27.9842 ,1.02382 ,2.88247 ,28.28277 
147 ,28.1607 ,1.02567 ,2.86536 ,28.11488 
148 ,28.3367 ,1.02740 ,2.83114 ,27.77910 
149 ,28.5284 ,1.02931 ,2.82087 ,27.67836 
150 ,28.7370 ,1.03129 ,2.80718 ,27.54405 
151 ,28.9449 ,1.03344 ,2.78322 ,27.30900 
152 ,29.1369 ,1.03535 ,2.76954 ,27.17469 
153 ,29.3452 ,1.03744 ,2.75585 ,27.04038 
154 ,29.5373 ,1.03935 ,2.73189 ,26.80533 
155 ,29.7129 ,1.04121 ,2.73189 ,26.80533 
156 ,29.8889 ,1.04294 ,2.70794 ,26.57028 
157 ,30.0655 ,1.04469 ,2.70109 ,26.50312 
158 ,30.2576 ,1.04663 ,2.67714 ,26.26807 
159 ,30.4655 ,1.04865 ,2.67029 ,26.20092 
160 ,30.6578 ,1.05052 ,2.62923 ,25.79798 
161 ,30.8498 ,1.05249 ,2.61554 ,25.66367 
162 ,31.0579 ,1.05454 ,2.61554 ,25.66367 
163 ,31.2339 ,1.05638 ,2.58132 ,25.32788 
164 ,31.4420 ,1.05840 ,2.58132 ,25.32788 
165 ,31.6343 ,1.06031 ,2.54367 ,24.95852 
166 ,31.8099 ,1.06221 ,2.55736 ,25.09283 
167 ,32.0183 ,1.06419 ,2.53683 ,24.89136 
168 ,32.2104 ,1.06616 ,2.49234 ,24.45485 
169 ,32.3864 ,1.06788 ,2.49576 ,24.48842 
170 ,32.5787 ,1.06982 ,2.47523 ,24.28696 
171 ,32.7706 ,1.07173 ,2.45127 ,24.05191 
172 ,32.9307 ,1.07346 ,2.45470 ,24.08549 
173 ,33.1068 ,1.07509 ,2.41705 ,23.71612 
174 ,33.2989 ,1.07696 ,2.42732 ,23.81686 
175 ,33.4910 ,1.07887 ,2.39652 ,23.51465 
176 ,33.6831 ,1.08081 ,2.39652 ,23.51465 
177 ,33.8908 ,1.08291 ,2.35545 ,23.11171 
178 ,34.0832 ,1.08483 ,2.34519 ,23.01098 
179 ,34.2913 ,1.08696 ,2.33150 ,22.87667 
180 ,34.4833 ,1.08887 ,2.32123 ,22.77593 
181 ,34.6751 ,1.09072 ,2.30070 ,22.57446 
182 ,34.8515 ,1.09257 ,2.27674 ,22.33941 
183 ,35.0432 ,1.09438 ,2.28359 ,22.40657 
184 ,35.2356 ,1.09636 ,2.25621 ,22.13794 
185 ,35.4438 ,1.09843 ,2.22541 ,21.83574 
186 ,35.6358 ,1.10029 ,2.22883 ,21.86932 
187 ,35.8440 ,1.10244 ,2.20830 ,21.66785 
188 ,36.0520 ,1.10448 ,2.17408 ,21.33206 
189 ,36.2281 ,1.10631 ,2.14328 ,21.02986 
190 ,36.4198 ,1.10819 ,2.16723 ,21.26491 
191 ,36.5963 ,1.10999 ,2.13301 ,20.92912 
192 ,36.8204 ,1.11204 ,2.13644 ,20.96270 
193 ,37.0285 ,1.11416 ,2.09879 ,20.59334 
194 ,37.2201 ,1.11617 ,2.10221 ,20.62692 
195 ,37.4126 ,1.11806 ,2.06115 ,20.22398 
196 ,37.5887 ,1.11994 ,2.04061 ,20.02251 
197 ,37.7968 ,1.12192 ,2.05088 ,20.12325 
198 ,37.9889 ,1.12380 ,2.01666 ,19.78746 
199 ,38.1810 ,1.12580 ,2.01324 ,19.75388 
200 ,38.3730 ,1.12771 ,1.98244 ,19.45168 
201 ,38.5492 ,1.12953 ,1.97217 ,19.35094 
202 ,38.7567 ,1.13149 ,1.96875 ,19.31737 
203 ,38.9333 ,1.13335 ,1.94479 ,19.08232 
204 ,39.1413 ,1.13544 ,1.94479 ,19.08232 
205 ,39.3335 ,1.13730 ,1.92084 ,18.84727 
206 ,39.5254 ,1.13923 ,1.89004 ,18.54507 
207 ,39.7336 ,1.14128 ,1.87293 ,18.37717 
208 ,39.9256 ,1.14320 ,1.87293 ,18.37717 
209 ,40.1017 ,1.14504 ,1.85924 ,18.24286 
210 ,40.2937 ,1.14691 ,1.83871 ,18.04139 
211 ,40.4854 ,1.14877 ,1.83528 ,18.00781 
212 ,40.6780 ,1.15070 ,1.81475 ,17.80634 
213 ,40.8700 ,1.15264 ,1.79080 ,17.57129 
214 ,41.0781 ,1.15468 ,1.77711 ,17.43698 
215 ,41.2701 ,1.15664 ,1.76684 ,17.33625 
216 ,41.4463 ,1.15845 ,1.74289 ,17.10120 
217 ,41.6541 ,1.16048 ,1.72920 ,16.96689 
218 ,41.8463 ,1.16249 ,1.71209 ,16.79899 
219 ,42.0379 ,1.16438 ,1.73262 ,17.00046 
220 ,42.2141 ,1.16623 ,1.69155 ,16.59752 
221 ,42.4061 ,1.16806 ,1.67102 ,16.39605 
222 ,42.5985 ,1.16998 ,1.68129 ,16.49679 
223 ,42.8389 ,1.17224 ,1.66418 ,16.32890 
224 ,43.0308 ,1.17438 ,1.62311 ,15.92596 
225 ,43.2228 ,1.17613 ,1.64022 ,16.09385 
226 ,43.4147 ,1.17805 ,1.60258 ,15.72449 
227 ,43.5910 ,1.17994 ,1.59231 ,15.62375 
228 ,43.7832 ,1.18174 ,1.58889 ,15.59018 
229 ,43.9592 ,1.18359 ,1.57520 ,15.45586 
230 ,44.1514 ,1.18549 ,1.54782 ,15.18724 
231 ,44.3434 ,1.18737 ,1.54782 ,15.18724 
232 ,44.5352 ,1.18931 ,1.52729 ,14.98577 
233 ,44.7276 ,1.19117 ,1.49307 ,14.64998 
234 ,44.9677 ,1.19351 ,1.49991 ,14.71714 
235 ,45.1756 ,1.19568 ,1.48965 ,14.61640 
236 ,45.3516 ,1.19759 ,1.46911 ,14.41493 
237 ,45.5439 ,1.19936 ,1.44858 ,14.21346 
238 ,45.7201 ,1.20122 ,1.45542 ,14.28062 
239 ,45.9116 ,1.20307 ,1.43147 ,14.04557 
240 ,46.1042 ,1.20496 ,1.42120 ,13.94484 
241 ,46.2961 ,1.20693 ,1.40751 ,13.81053 
242 ,46.4728 ,1.20871 ,1.39725 ,13.70979 
243 ,46.6643 ,1.21066 ,1.37329 ,13.47474 
244 ,46.8565 ,1.21248 ,1.36645 ,13.40759 
245 ,47.0325 ,1.21438 ,1.34591 ,13.20612 
246 ,47.2087 ,1.21610 ,1.32538 ,13.00465 
247 ,47.4007 ,1.21796 ,1.32880 ,13.03822 
248 ,47.5768 ,1.21980 ,1.31854 ,12.93749 
249 ,47.7847 ,1.22168 ,1.28432 ,12.60171 
250 ,47.9609 ,1.22362 ,1.29458 ,12.70244 
251 ,48.1531 ,1.22545 ,1.27405 ,12.50097 
252 ,48.3612 ,1.22758 ,1.26720 ,12.43381 
253 ,48.5532 ,1.22943 ,1.25694 ,12.33308 
254 ,48.7452 ,1.23136 ,1.22956 ,12.06445 
255 ,48.9370 ,1.23325 ,1.22956 ,12.06445 
256 ,49.1130 ,1.23507 ,1.21929 ,11.96372 
257 ,49.3053 ,1.23694 ,1.19192 ,11.69509 
258 ,49.5296 ,1.23913 ,1.18165 ,11.59436 
259 ,49.7217 ,1.24114 ,1.16454 ,11.42647 
260 ,49.9138 ,1.24306 ,1.16796 ,11.46004 
261 ,50.1058 ,1.24497 ,1.14058 ,11.19142 
262 ,50.2979 ,1.24695 ,1.12347 ,11.02353 
263 ,50.5060 ,1.24894 ,1.11321 ,10.92279 
264 ,50.6822 ,1.25085 ,1.10979 ,10.88921 
265 ,51.1303 ,1.25388 ,1.09952 ,10.78848 
266 ,51.3223 ,1.25710 ,1.05503 ,10.35196 
267 ,51.4985 ,1.25898 ,1.04819 ,10.28480 
268 ,51.6904 ,1.26087 ,1.04134 ,10.21765 
269 ,51.8667 ,1.26265 ,1.02423 ,10.04976 
270 ,52.0587 ,1.26452 ,1.02081 ,10.01618 
271 ,52.2507 ,1.26643 ,0.99685 ,9.78113 
272 ,52.4587 ,1.26850 ,0.99343 ,9.74755 
273 ,52.6509 ,1.27042 ,0.96605 ,9.47892 
274 ,52.8429 ,1.27233 ,0.95921 ,9.41177 
275 ,53.0190 ,1.27411 ,0.94894 ,9.31103 
276 ,53.2111 ,1.27608 ,0.94894 ,9.31103 
277 ,53.4348 ,1.27813 ,0.94210 ,9.24388 
278 ,53.6272 ,1.28016 ,0.89761 ,8.80736 
279 ,53.8034 ,1.28201 ,0.88734 ,8.70662 
280 ,53.9791 ,1.28376 ,0.89077 ,8.74020 
281 ,54.1556 ,1.28549 ,0.89077 ,8.74020 
282 ,54.3475 ,1.28740 ,0.86339 ,8.47158 
283 ,54.5394 ,1.28931 ,0.85312 ,8.37084 
284 ,54.7318 ,1.29122 ,0.84970 ,8.33726 
285 ,54.9238 ,1.29317 ,0.82232 ,8.06864 
286 ,55.1158 ,1.29507 ,0.82232 ,8.06864 
287 ,55.2917 ,1.29688 ,0.80521 ,7.90074 
288 ,55.4685 ,1.29868 ,0.78810 ,7.73285 
289 ,55.6600 ,1.30059 ,0.79152 ,7.76643 
290 ,55.8362 ,1.30236 ,0.77099 ,7.56496 
291 ,56.0281 ,1.30421 ,0.75046 ,7.36349 
292 ,56.2363 ,1.30620 ,0.75046 ,7.36349 
293 ,56.4282 ,1.30816 ,0.72992 ,7.16202 
294 ,56.6365 ,1.31024 ,0.72650 ,7.12844 
295 ,56.8285 ,1.31219 ,0.70939 ,6.96055 
296 ,57.0366 ,1.31429 ,0.69913 ,6.85982 
297 ,57.2448 ,1.31622 ,0.68201 ,6.69193 
298 ,57.4528 ,1.31840 ,0.67517 ,6.62477 
299 ,57.6289 ,1.32024 ,0.65464 ,6.42330 
300 ,57.8209 ,1.32206 ,0.64437 ,6.32256 
301 ,57.9967 ,1.32400 ,0.63410 ,6.22183 
302 ,58.1732 ,1.32568 ,0.63410 ,6.22183 
303 ,58.3813 ,1.32770 ,0.61699 ,6.05394 
304 ,58.5732 ,1.32960 ,0.60673 ,5.95320 
305 ,58.7493 ,1.33146 ,0.59646 ,5.85247 
306 ,58.9413 ,1.33328 ,0.57251 ,5.61742 
307 ,59.1495 ,1.33543 ,0.56566 ,5.55026 
308 ,59.3416 ,1.33723 ,0.54513 ,5.34879 
309 ,59.5336 ,1.33923 ,0.54855 ,5.38237 
310 ,59.7256 ,1.34110 ,0.52459 ,5.14732 
311 ,59.9174 ,1.34304 ,0.51775 ,5.08017 
312 ,60.0936 ,1.34495 ,0.51775 ,5.08017 
313 ,60.2859 ,1.34680 ,0.50064 ,4.91228 
314 ,60.4939 ,1.34882 ,0.49037 ,4.81154 
315 ,60.7018 ,1.35089 ,0.45957 ,4.50934 
316 ,60.8942 ,1.35280 ,0.46300 ,4.54291 
317 ,61.0861 ,1.35481 ,0.44931 ,4.40860 
318 ,61.2942 ,1.35682 ,0.45615 ,4.47576 
319 ,61.4865 ,1.35875 ,0.41851 ,4.10640 
320 ,61.6944 ,1.36080 ,0.42193 ,4.13997 
321 ,61.8866 ,1.36273 ,0.38429 ,3.77061 
322 ,62.0783 ,1.36462 ,0.38429 ,3.77061 
323 ,62.2708 ,1.36658 ,0.37060 ,3.63630 
324 ,62.4470 ,1.36838 ,0.38429 ,3.77061 
325 ,62.6390 ,1.37026 ,0.35691 ,3.50199 
326 ,62.8311 ,1.37227 ,0.32611 ,3.19978 
327 ,63.0228 ,1.37408 ,0.33295 ,3.26694 
328 ,63.1992 ,1.37589 ,0.31926 ,3.13263 
329 ,63.3752 ,1.37771 ,0.32611 ,3.19978 
330 ,63.5834 ,1.37968 ,0.28847 ,2.83042 
331 ,63.7756 ,1.38165 ,0.30215 ,2.96473 
332 ,63.9996 ,1.38377 ,0.27478 ,2.69611 
333 ,64.1912 ,1.38579 ,0.26793 ,2.62895 
334 ,64.3677 ,1.38765 ,0.25767 ,2.52822 
335 ,64.5597 ,1.38946 ,0.24740 ,2.42748 
336 ,64.7518 ,1.39137 ,0.25082 ,2.46106 
337 ,64.9441 ,1.39328 ,0.22687 ,2.22601 
338 ,65.1360 ,1.39520 ,0.23029 ,2.25959 
339 ,65.3441 ,1.39729 ,0.21318 ,2.09170 
340 ,65.5361 ,1.39922 ,0.19949 ,1.95738 
341 ,65.7282 ,1.40105 ,0.19607 ,1.92381 
342 ,65.9043 ,1.40296 ,0.18922 ,1.85665 
343 ,66.0965 ,1.40481 ,0.16869 ,1.65518 
344 ,66.2725 ,1.40664 ,0.16527 ,1.62160 
345 ,66.4644 ,1.40847 ,0.14473 ,1.42013 
346 ,66.6565 ,1.41039 ,0.14473 ,1.42013 
347 ,66.8486 ,1.41230 ,0.13105 ,1.28582 
348 ,67.0568 ,1.41435 ,0.11051 ,1.08435 
349 ,67.2647 ,1.41653 ,0.10367 ,1.01719 
350 ,67.4726 ,1.41858 ,0.10025 ,0.98361 
351 ,67.6492 ,1.42042 ,0.09682 ,0.95004 
352 ,67.8572 ,1.42241 ,0.06602 ,0.64783 
353 ,68.0492 ,1.42432 ,0.06945 ,0.68141 
354 ,68.2253 ,1.42616 ,0.03865 ,0.37920 
355 ,68.4175 ,1.42798 ,0.03180 ,0.31205 
356 ,68.6254 ,1.43010 ,0.03180 ,0.31205 
357 ,68.8171 ,1.43208 ,0.01469 ,0.14416 
358 ,68.9937 ,1.43383 ,0.00785 ,0.07700 
359 ,69.2016 ,1.43588 ,-0.01269 ,-0.12447 
360 ,69.3778 ,1.43769 ,-0.00242 ,-0.02373 
361 ,69.5695 ,1.43951 ,-0.01611 ,-0.15805 
362 ,69.7619 ,1.44145 ,-0.03664 ,-0.35952 
363 ,69.9539 ,1.44339 ,-0.03322 ,-0.32594 
364 ,70.1462 ,1.44527 ,-0.05375 ,-0.52741 
365 ,70.3541 ,1.44729 ,-0.06402 ,-0.62814 
366 ,70.5464 ,1.44926 ,-0.07086 ,-0.69530 
367 ,70.7705 ,1.45145 ,-0.08797 ,-0.86319 
368 ,70.9790 ,1.45358 ,-0.10166 ,-0.99751 
369 ,71.1865 ,1.45557 ,-0.08797 ,-0.86319 
370 ,71.3627 ,1.45751 ,-0.11877 ,-1.16540 
371 ,71.5543 ,1.45936 ,-0.13246 ,-1.29971 
372 ,71.7464 ,1.46126 ,-0.13246 ,-1.29971 
373 ,71.9389 ,1.46325 ,-0.14957 ,-1.46760 
374 ,72.1306 ,1.46528 ,-0.13931 ,-1.36687 
375 ,72.3071 ,1.46697 ,-0.15642 ,-1.53476 
376 ,72.4992 ,1.46887 ,-0.18379 ,-1.80338 
377 ,72.6911 ,1.47076 ,-0.16668 ,-1.63549 
378 ,72.8993 ,1.47276 ,-0.20090 ,-1.97128 
379 ,73.0753 ,1.47461 ,-0.21117 ,-2.07201 
380 ,73.2832 ,1.47668 ,-0.21459 ,-2.10559 
381 ,73.4752 ,1.47856 ,-0.22828 ,-2.23990 
382 ,73.6676 ,1.48045 ,-0.23513 ,-2.30706 
383 ,73.8596 ,1.48244 ,-0.23513 ,-2.30706 
384 ,74.0356 ,1.48427 ,-0.24881 ,-2.44137 
385 ,74.2437 ,1.48624 ,-0.25224 ,-2.47495 
386 ,74.4198 ,1.48811 ,-0.27277 ,-2.67642 
387 ,74.6118 ,1.48997 ,-0.28646 ,-2.81073 
388 ,74.8359 ,1.49213 ,-0.28646 ,-2.81073 
389 ,75.0118 ,1.49401 ,-0.30015 ,-2.94505 
390 ,75.2042 ,1.49589 ,-0.30015 ,-2.94505 
391 ,75.4122 ,1.49794 ,-0.30699 ,-3.01220 
392 ,75.5884 ,1.49978 ,-0.32752 ,-3.21367 
393 ,75.7804 ,1.50162 ,-0.35490 ,-3.48230 
394 ,75.9885 ,1.50370 ,-0.32752 ,-3.21367 
395 ,76.1643 ,1.50554 ,-0.35490 ,-3.48230 
396 ,76.3407 ,1.50729 ,-0.36175 ,-3.54946 
397 ,76.5328 ,1.50914 ,-0.38228 ,-3.75093 
398 ,76.7408 ,1.51124 ,-0.38228 ,-3.75093 
399 ,76.9328 ,1.51313 ,-0.38912 ,-3.81808 
400 ,77.1089 ,1.51498 ,-0.39255 ,-3.85166 
401 ,77.3010 ,1.51683 ,-0.40966 ,-4.01955 
402 ,77.5091 ,1.51885 ,-0.41308 ,-4.05313 
403 ,77.6852 ,1.52073 ,-0.42677 ,-4.18744 
404 ,77.8931 ,1.52274 ,-0.42335 ,-4.15387 
405 ,78.0849 ,1.52466 ,-0.45072 ,-4.42249 
406 ,78.2610 ,1.52645 ,-0.46099 ,-4.52323 
407 ,78.4536 ,1.52835 ,-0.48152 ,-4.72470 
408 ,78.6775 ,1.53049 ,-0.47810 ,-4.69112 
409 ,78.8695 ,1.53253 ,-0.47810 ,-4.69112 
410 ,79.0778 ,1.53453 ,-0.48152 ,-4.72470 
411 ,79.2856 ,1.53658 ,-0.51232 ,-5.02690 
412 ,79.4782 ,1.53860 ,-0.51232 ,-5.02690 
413 ,79.6701 ,1.54053 ,-0.51917 ,-5.09406 
414 ,79.8622 ,1.54243 ,-0.52259 ,-5.12764 
415 ,80.0542 ,1.54435 ,-0.54997 ,-5.39626 
416 ,80.2461 ,1.54625 ,-0.56023 ,-5.49700 
417 ,80.4219 ,1.54806 ,-0.54997 ,-5.39626 
418 ,80.6141 ,1.54992 ,-0.58419 ,-5.73205 
419 ,80.8062 ,1.55186 ,-0.57734 ,-5.66489 
420 ,81.0305 ,1.55400 ,-0.59103 ,-5.79920 
421 ,81.2386 ,1.55616 ,-0.60130 ,-5.89994 
422 ,81.4306 ,1.55813 ,-0.61156 ,-6.00067 
423 ,81.6388 ,1.56018 ,-0.61499 ,-6.03425 
424 ,81.8308 ,1.56211 ,-0.62868 ,-6.16856 
425 ,82.0389 ,1.56419 ,-0.62525 ,-6.13499 
426 ,82.2149 ,1.56601 ,-0.64921 ,-6.37003 
427 ,82.4071 ,1.56785 ,-0.64921 ,-6.37003 
428 ,82.5988 ,1.56979 ,-0.66290 ,-6.50435 
429 ,82.7913 ,1.57171 ,-0.68343 ,-6.70582 
430 ,82.9993 ,1.57377 ,-0.68685 ,-6.73940 
431 ,83.1909 ,1.57566 ,-0.68685 ,-6.73940 
432 ,83.3831 ,1.57757 ,-0.70054 ,-6.87371 
433 ,83.5592 ,1.57944 ,-0.70396 ,-6.90729 
434 ,83.7515 ,1.58129 ,-0.72450 ,-7.10876 
435 ,83.9438 ,1.58320 ,-0.71423 ,-7.00802 
436 ,84.1517 ,1.58528 ,-0.75187 ,-7.37738 
437 ,84.3439 ,1.58725 ,-0.74503 ,-7.31023 
438 ,84.5519 ,1.58928 ,-0.75872 ,-7.44454 
439 ,84.7276 ,1.59116 ,-0.77583 ,-7.61243 
440 ,84.9200 ,1.59299 ,-0.76214 ,-7.47812 
441 ,85.1122 ,1.59502 ,-0.78267 ,-7.67959 
442 ,85.2880 ,1.59674 ,-0.78952 ,-7.74674 
443 ,85.4801 ,1.59862 ,-0.78952 ,-7.74674 
444 ,85.6564 ,1.60043 ,-0.80321 ,-7.88106 
445 ,85.8481 ,1.60232 ,-0.81005 ,-7.94821 
446 ,86.0406 ,1.60420 ,-0.82716 ,-8.11611 
447 ,86.2326 ,1.60611 ,-0.85112 ,-8.35115 
448 ,86.4247 ,1.60803 ,-0.83401 ,-8.18326 
449 ,86.6168 ,1.60994 ,-0.85454 ,-8.38473 
450 ,86.8246 ,1.61197 ,-0.85796 ,-8.41831 
451 ,87.0169 ,1.61389 ,-0.85454 ,-8.38473 
452 ,87.2248 ,1.61602 ,-0.86481 ,-8.48547 
453 ,87.4011 ,1.61783 ,-0.88876 ,-8.72051 
454 ,87.5932 ,1.61972 ,-0.89560 ,-8.78767 
455 ,87.7852 ,1.62162 ,-0.89218 ,-8.75409 
456 ,87.9773 ,1.62353 ,-0.90245 ,-8.85483 
457 ,88.1695 ,1.62547 ,-0.92298 ,-9.05630 
458 ,88.3777 ,1.62749 ,-0.92640 ,-9.08988 
459 ,88.5855 ,1.62959 ,-0.94694 ,-9.29135 
460 ,88.7778 ,1.63154 ,-0.92983 ,-9.12345 
461 ,88.9697 ,1.63348 ,-0.96405 ,-9.45924 
462 ,89.1457 ,1.63525 ,-0.96405 ,-9.45924 
463 ,89.3219 ,1.63701 ,-0.98116 ,-9.62713 
