Data stamp = , 26-04-2022 05:58:37 451

Calibration Values: 
Slope = , 26.54 , g/V 
Offset Voltage at no contact = , -0.501760 , V 

No , Time , Stage Position ,   Mass , Force 
   ,  (s) ,      (mm)      ,   (g)  , (mN)  

1 ,0.0000 ,0.74948 ,5.21639 ,51.18317 
2 ,0.2134 ,0.74956 ,5.21296 ,51.14960 
3 ,0.6779 ,0.75102 ,5.22323 ,51.25033 
4 ,0.8860 ,0.75313 ,5.23350 ,51.35107 
5 ,1.0621 ,0.75488 ,5.22323 ,51.25033 
6 ,1.2700 ,0.75688 ,5.21981 ,51.21675 
7 ,1.4781 ,0.75891 ,5.21296 ,51.14960 
8 ,1.6701 ,0.76086 ,5.20954 ,51.11602 
9 ,1.8464 ,0.76278 ,5.21981 ,51.21675 
10 ,2.0384 ,0.76456 ,5.18216 ,50.84739 
11 ,2.2141 ,0.76647 ,5.18901 ,50.91455 
12 ,2.4067 ,0.76826 ,5.17190 ,50.74666 
13 ,2.6147 ,0.77035 ,5.14110 ,50.44445 
14 ,2.8228 ,0.77227 ,5.11714 ,50.20940 
15 ,3.0150 ,0.77438 ,5.09319 ,49.97436 
16 ,3.2066 ,0.77627 ,5.09319 ,49.97436 
17 ,3.3830 ,0.77806 ,5.07950 ,49.84004 
18 ,3.5752 ,0.77994 ,5.05554 ,49.60499 
19 ,3.7667 ,0.78196 ,5.04528 ,49.50426 
20 ,3.9433 ,0.78374 ,5.03159 ,49.36995 
21 ,4.1353 ,0.78565 ,4.99737 ,49.03416 
22 ,4.3114 ,0.78737 ,4.96315 ,48.69838 
23 ,4.4870 ,0.78916 ,4.97683 ,48.83269 
24 ,4.6633 ,0.79090 ,4.96315 ,48.69838 
25 ,4.8557 ,0.79275 ,4.92208 ,48.29544 
26 ,5.0476 ,0.79464 ,4.90839 ,48.16113 
27 ,5.2398 ,0.79658 ,4.88444 ,47.92608 
28 ,5.4314 ,0.79851 ,4.87075 ,47.79177 
29 ,5.6238 ,0.80045 ,4.86390 ,47.72461 
30 ,5.8161 ,0.80243 ,4.83995 ,47.48956 
31 ,6.0079 ,0.80428 ,4.81941 ,47.28809 
32 ,6.1843 ,0.80607 ,4.80915 ,47.18736 
33 ,6.3761 ,0.80797 ,4.78519 ,46.95231 
34 ,6.5678 ,0.80985 ,4.76466 ,46.75084 
35 ,6.7601 ,0.81176 ,4.75439 ,46.65010 
36 ,6.9525 ,0.81370 ,4.72359 ,46.34790 
37 ,7.1442 ,0.81571 ,4.72702 ,46.38148 
38 ,7.3366 ,0.81754 ,4.69279 ,46.04569 
39 ,7.5284 ,0.81950 ,4.66884 ,45.81065 
40 ,7.7206 ,0.82146 ,4.66199 ,45.74349 
41 ,7.9126 ,0.82343 ,4.63119 ,45.44128 
42 ,8.1050 ,0.82524 ,4.62435 ,45.37413 
43 ,8.2966 ,0.82712 ,4.59697 ,45.10550 
44 ,8.4729 ,0.82897 ,4.59013 ,45.03835 
45 ,8.6647 ,0.83085 ,4.57986 ,44.93761 
46 ,8.8569 ,0.83275 ,4.55591 ,44.70256 
47 ,9.0652 ,0.83479 ,4.54222 ,44.56825 
48 ,9.2574 ,0.83675 ,4.52511 ,44.40036 
49 ,9.4493 ,0.83863 ,4.49089 ,44.06457 
50 ,9.6255 ,0.84053 ,4.48746 ,44.03100 
51 ,9.8011 ,0.84232 ,4.47720 ,43.93026 
52 ,9.9776 ,0.84406 ,4.44982 ,43.66163 
53 ,10.1698 ,0.84582 ,4.42929 ,43.46016 
54 ,10.3618 ,0.84777 ,4.43613 ,43.52732 
55 ,10.5697 ,0.84989 ,4.39164 ,43.09080 
56 ,10.7620 ,0.85177 ,4.39507 ,43.12438 
57 ,10.9541 ,0.85369 ,4.36084 ,42.78860 
58 ,11.1462 ,0.85567 ,4.35058 ,42.68786 
59 ,11.3542 ,0.85770 ,4.33004 ,42.48639 
60 ,11.5463 ,0.85964 ,4.31636 ,42.35208 
61 ,11.7544 ,0.86171 ,4.28556 ,42.04988 
62 ,11.9462 ,0.86362 ,4.27187 ,41.91556 
63 ,12.1384 ,0.86551 ,4.27529 ,41.94914 
64 ,12.3305 ,0.86741 ,4.24449 ,41.64694 
65 ,12.5063 ,0.86927 ,4.21711 ,41.37831 
66 ,12.6987 ,0.87117 ,4.22396 ,41.44547 
67 ,12.9068 ,0.87312 ,4.20000 ,41.21042 
68 ,13.0989 ,0.87513 ,4.18289 ,41.04253 
69 ,13.3069 ,0.87722 ,4.15551 ,40.77390 
70 ,13.4991 ,0.87912 ,4.14525 ,40.67317 
71 ,13.6911 ,0.88105 ,4.11445 ,40.37096 
72 ,13.8673 ,0.88287 ,4.08707 ,40.10233 
73 ,14.0590 ,0.88474 ,4.09049 ,40.13591 
74 ,14.2515 ,0.88669 ,4.05969 ,39.83371 
75 ,14.4594 ,0.88872 ,4.05969 ,39.83371 
76 ,14.6356 ,0.89058 ,4.03916 ,39.63224 
77 ,14.8276 ,0.89242 ,4.00494 ,39.29646 
78 ,15.0039 ,0.89425 ,4.00152 ,39.26288 
79 ,15.1959 ,0.89622 ,3.98783 ,39.12856 
80 ,15.3878 ,0.89800 ,3.95703 ,38.82636 
81 ,15.5960 ,0.90014 ,3.95018 ,38.75920 
82 ,15.7882 ,0.90205 ,3.91254 ,38.38984 
83 ,15.9962 ,0.90417 ,3.91596 ,38.42342 
84 ,16.1883 ,0.90609 ,3.89201 ,38.18837 
85 ,16.3806 ,0.90800 ,3.87490 ,38.02048 
86 ,16.5884 ,0.90998 ,3.86121 ,37.88617 
87 ,16.7645 ,0.91183 ,3.82699 ,37.55038 
88 ,16.9567 ,0.91370 ,3.82699 ,37.55038 
89 ,17.1487 ,0.91561 ,3.79961 ,37.28176 
90 ,17.3244 ,0.91750 ,3.78592 ,37.14744 
91 ,17.5169 ,0.91935 ,3.77223 ,37.01313 
92 ,17.7251 ,0.92138 ,3.74143 ,36.71093 
93 ,17.9170 ,0.92342 ,3.73801 ,36.67735 
94 ,18.1251 ,0.92531 ,3.70721 ,36.37514 
95 ,18.3012 ,0.92724 ,3.70379 ,36.34157 
96 ,18.4779 ,0.92909 ,3.68668 ,36.17367 
97 ,18.6855 ,0.93098 ,3.66614 ,35.97220 
98 ,18.8932 ,0.93304 ,3.65246 ,35.83789 
99 ,19.0856 ,0.93496 ,3.61481 ,35.46853 
100 ,19.2777 ,0.93702 ,3.62166 ,35.53569 
101 ,19.4537 ,0.93872 ,3.61481 ,35.46853 
102 ,19.6618 ,0.94074 ,3.57375 ,35.06559 
103 ,19.8697 ,0.94285 ,3.56006 ,34.93128 
104 ,20.0461 ,0.94466 ,3.55321 ,34.86412 
105 ,20.2381 ,0.94651 ,3.52241 ,34.56192 
106 ,20.4302 ,0.94843 ,3.51557 ,34.49476 
107 ,20.6218 ,0.95036 ,3.48135 ,34.15898 
108 ,20.8144 ,0.95231 ,3.49504 ,34.29329 
109 ,21.0223 ,0.95435 ,3.45055 ,33.85677 
110 ,21.1984 ,0.95617 ,3.44028 ,33.75604 
111 ,21.3747 ,0.95793 ,3.42317 ,33.58814 
112 ,21.5824 ,0.95983 ,3.40948 ,33.45383 
113 ,21.7746 ,0.96193 ,3.38895 ,33.25236 
114 ,21.9830 ,0.96394 ,3.36499 ,33.01731 
115 ,22.1749 ,0.96585 ,3.36499 ,33.01731 
116 ,22.3669 ,0.96780 ,3.34104 ,32.78227 
117 ,22.5585 ,0.96974 ,3.31366 ,32.51364 
118 ,22.7347 ,0.97149 ,3.30682 ,32.44648 
119 ,22.9269 ,0.97337 ,3.28971 ,32.27859 
120 ,23.1189 ,0.97540 ,3.27602 ,32.14428 
121 ,23.3113 ,0.97717 ,3.27259 ,32.11070 
122 ,23.4871 ,0.97900 ,3.24864 ,31.87565 
123 ,23.6796 ,0.98091 ,3.21100 ,31.50629 
124 ,23.8712 ,0.98293 ,3.21100 ,31.50629 
125 ,24.0636 ,0.98475 ,3.18704 ,31.27124 
126 ,24.2556 ,0.98682 ,3.17677 ,31.17051 
127 ,24.4478 ,0.98863 ,3.14940 ,30.90188 
128 ,24.6559 ,0.99072 ,3.12886 ,30.70041 
129 ,24.8479 ,0.99261 ,3.12544 ,30.66683 
130 ,25.0240 ,0.99437 ,3.10491 ,30.46536 
131 ,25.2161 ,0.99630 ,3.09122 ,30.33105 
132 ,25.4080 ,0.99819 ,3.08095 ,30.23031 
133 ,25.5842 ,1.00007 ,3.06384 ,30.06242 
134 ,25.7602 ,1.00179 ,3.02620 ,29.69306 
135 ,25.9363 ,1.00348 ,3.01593 ,29.59233 
136 ,26.1124 ,1.00531 ,3.00567 ,29.49159 
137 ,26.3045 ,1.00720 ,2.99198 ,29.35728 
138 ,26.4965 ,1.00905 ,2.95776 ,29.02150 
139 ,26.6729 ,1.01090 ,2.96460 ,29.08865 
140 ,26.8649 ,1.01274 ,2.94064 ,28.85360 
141 ,27.0725 ,1.01478 ,2.90985 ,28.55140 
142 ,27.2648 ,1.01678 ,2.90642 ,28.51782 
143 ,27.4732 ,1.01890 ,2.89273 ,28.38351 
144 ,27.6813 ,1.02092 ,2.85167 ,27.98057 
145 ,27.8734 ,1.02296 ,2.86878 ,28.14846 
146 ,28.0653 ,1.02479 ,2.84825 ,27.94699 
147 ,28.2412 ,1.02661 ,2.81745 ,27.64479 
148 ,28.4172 ,1.02835 ,2.80718 ,27.54405 
149 ,28.5935 ,1.03013 ,2.77980 ,27.27542 
150 ,28.7857 ,1.03201 ,2.78322 ,27.30900 
151 ,28.9774 ,1.03384 ,2.75243 ,27.00680 
152 ,29.1698 ,1.03575 ,2.73531 ,26.83891 
153 ,29.3778 ,1.03784 ,2.71820 ,26.67101 
154 ,29.5859 ,1.03992 ,2.70109 ,26.50312 
155 ,29.7620 ,1.04179 ,2.69083 ,26.40239 
156 ,29.9541 ,1.04364 ,2.66345 ,26.13376 
157 ,30.1462 ,1.04559 ,2.66345 ,26.13376 
158 ,30.3537 ,1.04762 ,2.64976 ,25.99945 
159 ,30.5302 ,1.04944 ,2.61896 ,25.69724 
160 ,30.7063 ,1.05120 ,2.60869 ,25.59651 
161 ,30.8983 ,1.05308 ,2.58132 ,25.32788 
162 ,31.1065 ,1.05514 ,2.57105 ,25.22715 
163 ,31.2824 ,1.05695 ,2.57105 ,25.22715 
164 ,31.4426 ,1.05868 ,2.54367 ,24.95852 
165 ,31.6186 ,1.06034 ,2.52998 ,24.82421 
166 ,31.8107 ,1.06216 ,2.51287 ,24.65632 
167 ,32.0029 ,1.06419 ,2.49576 ,24.48842 
168 ,32.1949 ,1.06604 ,2.46839 ,24.21980 
169 ,32.3709 ,1.06788 ,2.45127 ,24.05191 
170 ,32.5790 ,1.06988 ,2.44101 ,23.95117 
171 ,32.7552 ,1.07171 ,2.42732 ,23.81686 
172 ,32.9633 ,1.07372 ,2.41705 ,23.71612 
173 ,33.1714 ,1.07573 ,2.39310 ,23.48108 
174 ,33.3794 ,1.07785 ,2.38283 ,23.38034 
175 ,33.5873 ,1.07996 ,2.37599 ,23.31318 
176 ,33.7794 ,1.08187 ,2.35203 ,23.07814 
177 ,33.9718 ,1.08384 ,2.33150 ,22.87667 
178 ,34.1635 ,1.08570 ,2.32808 ,22.84309 
179 ,34.3559 ,1.08763 ,2.28701 ,22.44015 
180 ,34.5477 ,1.08955 ,2.29043 ,22.47373 
181 ,34.7560 ,1.09161 ,2.25279 ,22.10437 
182 ,34.9640 ,1.09372 ,2.25279 ,22.10437 
183 ,35.1403 ,1.09556 ,2.25279 ,22.10437 
184 ,35.3483 ,1.09755 ,2.22199 ,21.80216 
185 ,35.5404 ,1.09948 ,2.20488 ,21.63427 
186 ,35.7479 ,1.10158 ,2.18092 ,21.39922 
187 ,35.9404 ,1.10343 ,2.16723 ,21.26491 
188 ,36.1327 ,1.10543 ,2.13301 ,20.92912 
189 ,36.3243 ,1.10733 ,2.14328 ,21.02986 
190 ,36.5004 ,1.10914 ,2.12959 ,20.89555 
191 ,36.6929 ,1.11098 ,2.09537 ,20.55976 
192 ,36.8688 ,1.11287 ,2.09537 ,20.55976 
193 ,37.0450 ,1.11459 ,2.07141 ,20.32472 
194 ,37.2528 ,1.11663 ,2.03719 ,19.98893 
195 ,37.4611 ,1.11857 ,2.03719 ,19.98893 
196 ,37.6528 ,1.12064 ,2.03035 ,19.92178 
197 ,37.8291 ,1.12239 ,1.99613 ,19.58599 
198 ,38.0212 ,1.12431 ,2.00639 ,19.68673 
199 ,38.2294 ,1.12634 ,1.96875 ,19.31737 
200 ,38.4211 ,1.12829 ,1.96875 ,19.31737 
201 ,38.6130 ,1.13019 ,1.95506 ,19.18305 
202 ,38.8214 ,1.13224 ,1.93111 ,18.94801 
203 ,39.0458 ,1.13458 ,1.91057 ,18.74654 
204 ,39.2538 ,1.13660 ,1.88662 ,18.51149 
205 ,39.4460 ,1.13851 ,1.88319 ,18.47791 
206 ,39.6378 ,1.14042 ,1.86608 ,18.31002 
207 ,39.8461 ,1.14251 ,1.83186 ,17.97423 
208 ,40.0378 ,1.14444 ,1.84213 ,18.07497 
209 ,40.2302 ,1.14634 ,1.82160 ,17.87350 
210 ,40.4382 ,1.14844 ,1.81817 ,17.83992 
211 ,40.6143 ,1.15032 ,1.77711 ,17.43698 
212 ,40.7905 ,1.15199 ,1.76342 ,17.30267 
213 ,40.9826 ,1.15389 ,1.76684 ,17.33625 
214 ,41.1743 ,1.15577 ,1.76000 ,17.26909 
215 ,41.3666 ,1.15768 ,1.71893 ,16.86615 
216 ,41.5427 ,1.15953 ,1.72235 ,16.89973 
217 ,41.7188 ,1.16134 ,1.71209 ,16.79899 
218 ,41.9111 ,1.16322 ,1.67786 ,16.46321 
219 ,42.1030 ,1.16516 ,1.67786 ,16.46321 
220 ,42.2949 ,1.16709 ,1.66075 ,16.29532 
221 ,42.4709 ,1.16886 ,1.66075 ,16.29532 
222 ,42.6629 ,1.17065 ,1.64022 ,16.09385 
223 ,42.8713 ,1.17272 ,1.61969 ,15.89238 
224 ,43.0630 ,1.17467 ,1.58547 ,15.55660 
225 ,43.2549 ,1.17657 ,1.59573 ,15.65733 
226 ,43.4473 ,1.17849 ,1.56836 ,15.38871 
227 ,43.6715 ,1.18066 ,1.57178 ,15.42228 
228 ,43.8797 ,1.18284 ,1.54782 ,15.18724 
229 ,44.0558 ,1.18466 ,1.54440 ,15.15366 
230 ,44.2478 ,1.18649 ,1.51702 ,14.88503 
231 ,44.4234 ,1.18837 ,1.51018 ,14.81787 
232 ,44.6162 ,1.19023 ,1.49991 ,14.71714 
233 ,44.8398 ,1.19232 ,1.46227 ,14.34778 
234 ,45.0161 ,1.19429 ,1.45200 ,14.24704 
235 ,45.1922 ,1.19601 ,1.45200 ,14.24704 
236 ,45.3843 ,1.19788 ,1.43147 ,14.04557 
237 ,45.5440 ,1.19966 ,1.42462 ,13.97842 
238 ,45.7204 ,1.20132 ,1.40751 ,13.81053 
239 ,45.9285 ,1.20330 ,1.38698 ,13.60906 
240 ,46.1204 ,1.20530 ,1.38014 ,13.54190 
241 ,46.2967 ,1.20710 ,1.36987 ,13.44116 
242 ,46.4884 ,1.20888 ,1.36645 ,13.40759 
243 ,46.6648 ,1.21072 ,1.34934 ,13.23969 
244 ,46.8569 ,1.21263 ,1.34934 ,13.23969 
245 ,47.0650 ,1.21468 ,1.30827 ,12.83675 
246 ,47.2571 ,1.21661 ,1.31169 ,12.87033 
247 ,47.4492 ,1.21849 ,1.28089 ,12.56813 
248 ,47.6249 ,1.22038 ,1.27747 ,12.53455 
249 ,47.8174 ,1.22226 ,1.27063 ,12.46739 
250 ,48.0252 ,1.22427 ,1.24325 ,12.19877 
251 ,48.2015 ,1.22613 ,1.23983 ,12.16519 
252 ,48.4095 ,1.22812 ,1.22614 ,12.03088 
253 ,48.5857 ,1.23002 ,1.21245 ,11.89656 
254 ,48.7773 ,1.23172 ,1.18165 ,11.59436 
255 ,48.9538 ,1.23362 ,1.17823 ,11.56078 
256 ,49.1298 ,1.23542 ,1.17823 ,11.56078 
257 ,49.3379 ,1.23739 ,1.16112 ,11.39289 
258 ,49.5296 ,1.23936 ,1.14743 ,11.25857 
259 ,49.7062 ,1.24114 ,1.13032 ,11.09068 
260 ,49.9142 ,1.24313 ,1.13374 ,11.12426 
261 ,50.1063 ,1.24510 ,1.08583 ,10.65416 
262 ,50.2983 ,1.24698 ,1.07899 ,10.58701 
263 ,50.4901 ,1.24898 ,1.08925 ,10.68774 
264 ,50.6825 ,1.25079 ,1.04819 ,10.28480 
265 ,50.8743 ,1.25280 ,1.06530 ,10.45270 
266 ,51.0667 ,1.25474 ,1.03450 ,10.15049 
267 ,51.2746 ,1.25675 ,1.03450 ,10.15049 
268 ,51.4666 ,1.25869 ,1.02081 ,10.01618 
269 ,51.6589 ,1.26058 ,1.00370 ,9.84829 
270 ,51.8667 ,1.26271 ,0.97290 ,9.54608 
271 ,52.0428 ,1.26449 ,0.96948 ,9.51250 
272 ,52.2351 ,1.26628 ,0.95921 ,9.41177 
273 ,52.4271 ,1.26837 ,0.93525 ,9.17672 
274 ,52.6033 ,1.27010 ,0.93868 ,9.21030 
275 ,52.7954 ,1.27201 ,0.92157 ,9.04241 
276 ,52.9871 ,1.27386 ,0.92157 ,9.04241 
277 ,53.1634 ,1.27574 ,0.89761 ,8.80736 
278 ,53.3395 ,1.27752 ,0.87708 ,8.60589 
279 ,53.5317 ,1.27940 ,0.89077 ,8.74020 
280 ,53.7397 ,1.28140 ,0.87023 ,8.53873 
281 ,53.9319 ,1.28328 ,0.84628 ,8.30368 
282 ,54.1235 ,1.28540 ,0.81206 ,7.96790 
283 ,54.3161 ,1.28721 ,0.83601 ,8.20295 
284 ,54.5241 ,1.28927 ,0.81206 ,7.96790 
285 ,54.7481 ,1.29154 ,0.80863 ,7.93432 
286 ,54.9403 ,1.29336 ,0.78468 ,7.69927 
287 ,55.1162 ,1.29533 ,0.79152 ,7.76643 
288 ,55.2760 ,1.29693 ,0.77441 ,7.59854 
289 ,55.4684 ,1.29865 ,0.76072 ,7.46423 
290 ,55.6605 ,1.30058 ,0.73335 ,7.19560 
291 ,55.8526 ,1.30252 ,0.72992 ,7.16202 
292 ,56.0447 ,1.30445 ,0.72308 ,7.09486 
293 ,56.2369 ,1.30632 ,0.71966 ,7.06129 
294 ,56.4288 ,1.30829 ,0.70939 ,6.96055 
295 ,56.6210 ,1.31024 ,0.67175 ,6.59119 
296 ,56.7971 ,1.31202 ,0.66490 ,6.52403 
297 ,56.9892 ,1.31386 ,0.66490 ,6.52403 
298 ,57.1973 ,1.31593 ,0.63068 ,6.18825 
299 ,57.3730 ,1.31783 ,0.65464 ,6.42330 
300 ,57.5650 ,1.31963 ,0.62042 ,6.08752 
301 ,57.7733 ,1.32177 ,0.59988 ,5.88605 
302 ,57.9656 ,1.32365 ,0.60330 ,5.91962 
303 ,58.1894 ,1.32581 ,0.58619 ,5.75173 
304 ,58.3978 ,1.32792 ,0.56224 ,5.51668 
305 ,58.5738 ,1.32984 ,0.57251 ,5.61742 
306 ,58.7499 ,1.33154 ,0.55197 ,5.41595 
307 ,58.9420 ,1.33339 ,0.53486 ,5.24806 
308 ,59.1339 ,1.33537 ,0.51433 ,5.04659 
309 ,59.3262 ,1.33721 ,0.53144 ,5.21448 
310 ,59.5338 ,1.33929 ,0.50406 ,4.94585 
311 ,59.7264 ,1.34123 ,0.49380 ,4.84512 
312 ,59.9180 ,1.34317 ,0.48011 ,4.71081 
313 ,60.1105 ,1.34503 ,0.45957 ,4.50934 
314 ,60.3185 ,1.34719 ,0.46984 ,4.61007 
315 ,60.5105 ,1.34906 ,0.45615 ,4.47576 
316 ,60.6703 ,1.35086 ,0.45273 ,4.44218 
317 ,60.8626 ,1.35264 ,0.43562 ,4.27429 
318 ,61.0548 ,1.35455 ,0.41166 ,4.03924 
319 ,61.2308 ,1.35633 ,0.39455 ,3.87135 
320 ,61.4229 ,1.35818 ,0.40482 ,3.97208 
321 ,61.6311 ,1.36031 ,0.37060 ,3.63630 
322 ,61.8072 ,1.36207 ,0.37402 ,3.66988 
323 ,61.9993 ,1.36391 ,0.36375 ,3.56914 
324 ,62.2071 ,1.36602 ,0.35006 ,3.43483 
325 ,62.3995 ,1.36796 ,0.34322 ,3.36767 
326 ,62.5915 ,1.36990 ,0.32611 ,3.19978 
327 ,62.7833 ,1.37178 ,0.30900 ,3.03189 
328 ,62.9758 ,1.37370 ,0.28847 ,2.83042 
329 ,63.1843 ,1.37579 ,0.29531 ,2.89758 
330 ,63.3759 ,1.37774 ,0.28847 ,2.83042 
331 ,63.5676 ,1.37962 ,0.28847 ,2.83042 
332 ,63.7440 ,1.38149 ,0.26451 ,2.59537 
333 ,63.9356 ,1.38331 ,0.24740 ,2.42748 
334 ,64.1278 ,1.38517 ,0.25082 ,2.46106 
335 ,64.3203 ,1.38716 ,0.24055 ,2.36032 
336 ,64.5124 ,1.38905 ,0.22344 ,2.19243 
337 ,64.7205 ,1.39116 ,0.22002 ,2.15885 
338 ,64.9124 ,1.39312 ,0.17896 ,1.75592 
339 ,65.0882 ,1.39484 ,0.18238 ,1.78949 
340 ,65.2806 ,1.39673 ,0.18238 ,1.78949 
341 ,65.4727 ,1.39869 ,0.15158 ,1.48729 
342 ,65.6646 ,1.40061 ,0.15842 ,1.55445 
343 ,65.8407 ,1.40239 ,0.16527 ,1.62160 
344 ,66.0328 ,1.40421 ,0.13105 ,1.28582 
345 ,66.2410 ,1.40637 ,0.14131 ,1.38655 
346 ,66.4491 ,1.40844 ,0.11393 ,1.11793 
347 ,66.6251 ,1.41032 ,0.10709 ,1.05077 
348 ,66.8332 ,1.41223 ,0.06260 ,0.61425 
349 ,67.0254 ,1.41421 ,0.07971 ,0.78214 
350 ,67.2173 ,1.41610 ,0.06945 ,0.68141 
351 ,67.3934 ,1.41797 ,0.05576 ,0.54710 
352 ,67.6016 ,1.41994 ,0.05576 ,0.54710 
353 ,67.7936 ,1.42189 ,0.02838 ,0.27847 
354 ,67.9692 ,1.42373 ,0.02496 ,0.24489 
355 ,68.1456 ,1.42545 ,0.01127 ,0.11058 
356 ,68.3376 ,1.42737 ,0.02838 ,0.27847 
357 ,68.5459 ,1.42944 ,0.00785 ,0.07700 
358 ,68.7540 ,1.43148 ,-0.01269 ,-0.12447 
359 ,68.9463 ,1.43340 ,-0.01611 ,-0.15805 
360 ,69.1543 ,1.43550 ,-0.04691 ,-0.46025 
361 ,69.3459 ,1.43750 ,-0.03322 ,-0.32594 
362 ,69.5223 ,1.43922 ,-0.05033 ,-0.49383 
363 ,69.7144 ,1.44111 ,-0.07428 ,-0.72888 
364 ,69.9225 ,1.44317 ,-0.07428 ,-0.72888 
365 ,70.0985 ,1.44496 ,-0.07086 ,-0.69530 
366 ,70.2747 ,1.44673 ,-0.08797 ,-0.86319 
367 ,70.4664 ,1.44856 ,-0.09482 ,-0.93035 
368 ,70.6587 ,1.45046 ,-0.11193 ,-1.09824 
369 ,70.8669 ,1.45260 ,-0.11877 ,-1.16540 
370 ,71.0585 ,1.45450 ,-0.13246 ,-1.29971 
371 ,71.2347 ,1.45633 ,-0.13931 ,-1.36687 
372 ,71.4112 ,1.45812 ,-0.14957 ,-1.46760 
373 ,71.6190 ,1.46011 ,-0.15299 ,-1.50118 
374 ,71.8272 ,1.46219 ,-0.15984 ,-1.56834 
375 ,72.0196 ,1.46409 ,-0.18379 ,-1.80338 
376 ,72.2114 ,1.46602 ,-0.19064 ,-1.87054 
377 ,72.4035 ,1.46799 ,-0.21802 ,-2.13917 
378 ,72.5791 ,1.46980 ,-0.20775 ,-2.03843 
379 ,72.7879 ,1.47184 ,-0.23513 ,-2.30706 
380 ,72.9799 ,1.47382 ,-0.22486 ,-2.20632 
381 ,73.1878 ,1.47580 ,-0.25224 ,-2.47495 
382 ,73.3639 ,1.47758 ,-0.25566 ,-2.50853 
383 ,73.5397 ,1.47942 ,-0.25224 ,-2.47495 
384 ,73.7161 ,1.48110 ,-0.25908 ,-2.54211 
385 ,73.9078 ,1.48302 ,-0.28646 ,-2.81073 
386 ,74.0844 ,1.48484 ,-0.29330 ,-2.87789 
387 ,74.2764 ,1.48671 ,-0.28304 ,-2.77716 
388 ,74.4684 ,1.48859 ,-0.31384 ,-3.07936 
389 ,74.6763 ,1.49067 ,-0.31384 ,-3.07936 
390 ,74.8686 ,1.49262 ,-0.32068 ,-3.14652 
391 ,75.0606 ,1.49455 ,-0.33095 ,-3.24725 
392 ,75.2528 ,1.49644 ,-0.35832 ,-3.51588 
393 ,75.4448 ,1.49838 ,-0.36175 ,-3.54946 
394 ,75.6524 ,1.50039 ,-0.36859 ,-3.61661 
395 ,75.8125 ,1.50224 ,-0.38570 ,-3.78450 
396 ,75.9891 ,1.50389 ,-0.37886 ,-3.71735 
397 ,76.1972 ,1.50589 ,-0.37544 ,-3.68377 
398 ,76.3892 ,1.50783 ,-0.39597 ,-3.88524 
399 ,76.5813 ,1.50969 ,-0.40966 ,-4.01955 
400 ,76.7895 ,1.51178 ,-0.42677 ,-4.18744 
401 ,76.9815 ,1.51377 ,-0.44046 ,-4.32176 
402 ,77.1895 ,1.51579 ,-0.44388 ,-4.35534 
403 ,77.3817 ,1.51772 ,-0.45757 ,-4.48965 
404 ,77.5738 ,1.51969 ,-0.44730 ,-4.38891 
405 ,77.7816 ,1.52163 ,-0.46099 ,-4.52323 
406 ,77.9573 ,1.52352 ,-0.47126 ,-4.62396 
407 ,78.1500 ,1.52536 ,-0.48494 ,-4.75828 
408 ,78.3421 ,1.52731 ,-0.49863 ,-4.89259 
409 ,78.5500 ,1.52937 ,-0.49863 ,-4.89259 
410 ,78.7422 ,1.53126 ,-0.51232 ,-5.02690 
411 ,78.9341 ,1.53326 ,-0.51574 ,-5.06048 
412 ,79.1103 ,1.53503 ,-0.52601 ,-5.16121 
413 ,79.3024 ,1.53693 ,-0.55339 ,-5.42984 
414 ,79.4943 ,1.53883 ,-0.54654 ,-5.36268 
415 ,79.6867 ,1.54074 ,-0.57050 ,-5.59773 
416 ,79.8787 ,1.54266 ,-0.56023 ,-5.49700 
417 ,80.0544 ,1.54457 ,-0.57734 ,-5.66489 
418 ,80.2469 ,1.54635 ,-0.61156 ,-6.00067 
419 ,80.4707 ,1.54851 ,-0.58761 ,-5.76562 
420 ,80.6628 ,1.55049 ,-0.61841 ,-6.06783 
421 ,80.8550 ,1.55241 ,-0.60472 ,-5.93352 
422 ,81.0311 ,1.55422 ,-0.61841 ,-6.06783 
423 ,81.2231 ,1.55626 ,-0.63894 ,-6.26930 
424 ,81.4153 ,1.55805 ,-0.63210 ,-6.20214 
425 ,81.6230 ,1.56002 ,-0.65947 ,-6.47077 
426 ,81.8315 ,1.56218 ,-0.65605 ,-6.43719 
427 ,82.0391 ,1.56426 ,-0.66974 ,-6.57150 
428 ,82.2152 ,1.56607 ,-0.66974 ,-6.57150 
429 ,82.4072 ,1.56797 ,-0.69027 ,-6.77297 
430 ,82.5993 ,1.56990 ,-0.70739 ,-6.94086 
431 ,82.7754 ,1.57174 ,-0.69370 ,-6.80655 
432 ,82.9517 ,1.57345 ,-0.71423 ,-7.00802 
433 ,83.1276 ,1.57521 ,-0.71423 ,-7.00802 
434 ,83.3036 ,1.57705 ,-0.72792 ,-7.14233 
435 ,83.4801 ,1.57871 ,-0.73818 ,-7.24307 
436 ,83.6723 ,1.58060 ,-0.74845 ,-7.34380 
437 ,83.8639 ,1.58253 ,-0.75187 ,-7.37738 
438 ,84.0723 ,1.58452 ,-0.76556 ,-7.51170 
439 ,84.2644 ,1.58664 ,-0.79294 ,-7.78032 
440 ,84.4561 ,1.58850 ,-0.78952 ,-7.74674 
441 ,84.6483 ,1.59034 ,-0.77241 ,-7.57885 
442 ,84.8245 ,1.59219 ,-0.80321 ,-7.88106 
443 ,85.0007 ,1.59397 ,-0.81689 ,-8.01537 
444 ,85.1928 ,1.59581 ,-0.81347 ,-7.98179 
445 ,85.4006 ,1.59785 ,-0.84085 ,-8.25042 
446 ,85.5930 ,1.59986 ,-0.83401 ,-8.18326 
447 ,85.7850 ,1.60175 ,-0.83743 ,-8.21684 
448 ,85.9611 ,1.60357 ,-0.85454 ,-8.38473 
449 ,86.1531 ,1.60545 ,-0.85796 ,-8.41831 
450 ,86.3293 ,1.60720 ,-0.85454 ,-8.38473 
451 ,86.5049 ,1.60903 ,-0.88192 ,-8.65336 
452 ,86.6973 ,1.61088 ,-0.90245 ,-8.85483 
453 ,86.8896 ,1.61280 ,-0.89218 ,-8.75409 
454 ,87.0816 ,1.61467 ,-0.90587 ,-8.88841 
455 ,87.2895 ,1.61675 ,-0.90245 ,-8.85483 
456 ,87.4657 ,1.61859 ,-0.91614 ,-8.98914 
457 ,87.6576 ,1.62055 ,-0.92983 ,-9.12345 
458 ,87.8339 ,1.62226 ,-0.95036 ,-9.32492 
459 ,88.0418 ,1.62426 ,-0.95720 ,-9.39208 
460 ,88.2176 ,1.62612 ,-0.96063 ,-9.42566 
461 ,88.3940 ,1.62786 ,-0.97774 ,-9.59355 
462 ,88.5701 ,1.62959 ,-0.96063 ,-9.42566 
463 ,88.7620 ,1.63146 ,-0.97089 ,-9.52639 
