Data stamp = , 25-04-2022 22:17:15 541

Calibration Values: 
Slope = , 26.54 , g/V 
Offset Voltage at no contact = , -0.501760 , V 

No , Time , Stage Position ,   Mass , Force 
   ,  (s) ,      (mm)      ,   (g)  , (mN)  

1 ,0.0000 ,0.74942 ,5.34985 ,52.49273 
2 ,0.2635 ,0.74958 ,5.36354 ,52.62704 
3 ,0.5835 ,0.75057 ,5.36354 ,52.62704 
4 ,0.7761 ,0.75214 ,5.37381 ,52.72778 
5 ,0.9840 ,0.75398 ,5.35669 ,52.55988 
6 ,1.1920 ,0.75599 ,5.35327 ,52.52631 
7 ,1.3845 ,0.75789 ,5.36012 ,52.59346 
8 ,1.5761 ,0.75993 ,5.35327 ,52.52631 
9 ,1.7686 ,0.76182 ,5.34985 ,52.49273 
10 ,1.9765 ,0.76385 ,5.32932 ,52.29126 
11 ,2.1683 ,0.76586 ,5.33616 ,52.35841 
12 ,2.3605 ,0.76777 ,5.28825 ,51.88832 
13 ,2.5691 ,0.76984 ,5.28483 ,51.85474 
14 ,2.7607 ,0.77178 ,5.25403 ,51.55254 
15 ,2.9369 ,0.77352 ,5.23007 ,51.31749 
16 ,3.1131 ,0.77533 ,5.21981 ,51.21675 
17 ,3.3052 ,0.77714 ,5.20612 ,51.08244 
18 ,3.5130 ,0.77934 ,5.19243 ,50.94813 
19 ,3.7052 ,0.78118 ,5.16848 ,50.71308 
20 ,3.8653 ,0.78298 ,5.15136 ,50.54519 
21 ,4.0575 ,0.78475 ,5.12399 ,50.27656 
22 ,4.2495 ,0.78667 ,5.12056 ,50.24298 
23 ,4.4415 ,0.78849 ,5.08977 ,49.94078 
24 ,4.6016 ,0.79027 ,5.06581 ,49.70573 
25 ,4.7937 ,0.79201 ,5.07608 ,49.80646 
26 ,5.0018 ,0.79411 ,5.03501 ,49.40352 
27 ,5.1936 ,0.79610 ,5.01790 ,49.23563 
28 ,5.3701 ,0.79791 ,5.01448 ,49.20205 
29 ,5.5620 ,0.79975 ,4.98368 ,48.89985 
30 ,5.7541 ,0.80164 ,4.96999 ,48.76554 
31 ,5.9458 ,0.80362 ,4.96315 ,48.69838 
32 ,6.1543 ,0.80572 ,4.91866 ,48.26186 
33 ,6.3623 ,0.80773 ,4.92208 ,48.29544 
34 ,6.5544 ,0.80966 ,4.89128 ,47.99324 
35 ,6.7465 ,0.81154 ,4.87759 ,47.85892 
36 ,6.9385 ,0.81349 ,4.84337 ,47.52314 
37 ,7.1146 ,0.81536 ,4.82968 ,47.38883 
38 ,7.3068 ,0.81724 ,4.82968 ,47.38883 
39 ,7.4988 ,0.81910 ,4.78177 ,46.91873 
40 ,7.6907 ,0.82103 ,4.77835 ,46.88515 
41 ,7.8989 ,0.82307 ,4.73728 ,46.48221 
42 ,8.0906 ,0.82499 ,4.74755 ,46.58295 
43 ,8.2830 ,0.82697 ,4.72359 ,46.34790 
44 ,8.4752 ,0.82896 ,4.70648 ,46.18001 
45 ,8.6668 ,0.83081 ,4.69622 ,46.07927 
46 ,8.8432 ,0.83263 ,4.68253 ,45.94496 
47 ,9.0352 ,0.83445 ,4.64831 ,45.60918 
48 ,9.2109 ,0.83626 ,4.62435 ,45.37413 
49 ,9.4034 ,0.83814 ,4.61751 ,45.30697 
50 ,9.6114 ,0.84022 ,4.59697 ,45.10550 
51 ,9.8035 ,0.84213 ,4.57986 ,44.93761 
52 ,9.9956 ,0.84411 ,4.54564 ,44.60183 
53 ,10.1874 ,0.84604 ,4.54906 ,44.63541 
54 ,10.3797 ,0.84790 ,4.51826 ,44.33320 
55 ,10.5716 ,0.84984 ,4.49431 ,44.09815 
56 ,10.7480 ,0.85166 ,4.48404 ,43.99742 
57 ,10.9561 ,0.85371 ,4.44640 ,43.62806 
58 ,11.1481 ,0.85561 ,4.45324 ,43.69521 
59 ,11.3397 ,0.85749 ,4.43613 ,43.52732 
60 ,11.5322 ,0.85939 ,4.40533 ,43.22512 
61 ,11.7403 ,0.86150 ,4.38480 ,43.02365 
62 ,11.9164 ,0.86334 ,4.37111 ,42.88933 
63 ,12.1084 ,0.86522 ,4.36427 ,42.82218 
64 ,12.2846 ,0.86703 ,4.34373 ,42.62071 
65 ,12.4601 ,0.86881 ,4.30951 ,42.28492 
66 ,12.6368 ,0.87051 ,4.30267 ,42.21777 
67 ,12.8288 ,0.87235 ,4.29240 ,42.11703 
68 ,13.0368 ,0.87446 ,4.25476 ,41.74767 
69 ,13.2129 ,0.87625 ,4.24107 ,41.61336 
70 ,13.3890 ,0.87802 ,4.22738 ,41.47905 
71 ,13.5971 ,0.88004 ,4.20000 ,41.21042 
72 ,13.7731 ,0.88187 ,4.18289 ,41.04253 
73 ,13.9491 ,0.88363 ,4.16578 ,40.87464 
74 ,14.1253 ,0.88539 ,4.16920 ,40.90821 
75 ,14.3331 ,0.88742 ,4.13156 ,40.53885 
76 ,14.5091 ,0.88923 ,4.11787 ,40.40454 
77 ,14.7012 ,0.89108 ,4.10760 ,40.30380 
78 ,14.8936 ,0.89310 ,4.06654 ,39.90087 
79 ,15.0696 ,0.89484 ,4.07338 ,39.96802 
80 ,15.2616 ,0.89669 ,4.05969 ,39.83371 
81 ,15.4378 ,0.89852 ,4.04258 ,39.66582 
82 ,15.6294 ,0.90038 ,4.03574 ,39.59866 
83 ,15.8219 ,0.90227 ,4.02205 ,39.46435 
84 ,16.0302 ,0.90441 ,3.97756 ,39.02783 
85 ,16.2221 ,0.90629 ,3.97414 ,38.99425 
86 ,16.4143 ,0.90828 ,3.94676 ,38.72562 
87 ,16.6219 ,0.91024 ,3.93992 ,38.65847 
88 ,16.7982 ,0.91212 ,3.91254 ,38.38984 
89 ,16.9744 ,0.91386 ,3.89885 ,38.25553 
90 ,17.1504 ,0.91561 ,3.87490 ,38.02048 
91 ,17.3427 ,0.91749 ,3.86121 ,37.88617 
92 ,17.5187 ,0.91941 ,3.84067 ,37.68470 
93 ,17.6949 ,0.92110 ,3.83725 ,37.65112 
94 ,17.8869 ,0.92295 ,3.82014 ,37.48323 
95 ,18.0789 ,0.92492 ,3.80303 ,37.31534 
96 ,18.2551 ,0.92667 ,3.78592 ,37.14744 
97 ,18.4309 ,0.92845 ,3.75854 ,36.87882 
98 ,18.6232 ,0.93027 ,3.76881 ,36.97955 
99 ,18.8309 ,0.93238 ,3.72432 ,36.54303 
100 ,19.0233 ,0.93429 ,3.71405 ,36.44230 
101 ,19.1993 ,0.93610 ,3.71405 ,36.44230 
102 ,19.3915 ,0.93795 ,3.66957 ,36.00578 
103 ,19.5831 ,0.93986 ,3.67641 ,36.07294 
104 ,19.7915 ,0.94202 ,3.63534 ,35.67000 
105 ,19.9996 ,0.94404 ,3.62508 ,35.56926 
106 ,20.1760 ,0.94590 ,3.61481 ,35.46853 
107 ,20.3838 ,0.94786 ,3.59770 ,35.30064 
108 ,20.5600 ,0.94974 ,3.58401 ,35.16632 
109 ,20.7515 ,0.95159 ,3.54295 ,34.76338 
110 ,20.9441 ,0.95346 ,3.52584 ,34.59549 
111 ,21.1362 ,0.95554 ,3.50872 ,34.42760 
112 ,21.3283 ,0.95735 ,3.50872 ,34.42760 
113 ,21.5201 ,0.95925 ,3.49846 ,34.32687 
114 ,21.7124 ,0.96123 ,3.45739 ,33.92393 
115 ,21.8886 ,0.96301 ,3.45397 ,33.89035 
116 ,22.0802 ,0.96486 ,3.44713 ,33.82319 
117 ,22.2728 ,0.96683 ,3.41633 ,33.52099 
118 ,22.4805 ,0.96887 ,3.40264 ,33.38667 
119 ,22.6888 ,0.97082 ,3.38553 ,33.21878 
120 ,22.8808 ,0.97286 ,3.37868 ,33.15163 
121 ,23.0570 ,0.97468 ,3.35473 ,32.91658 
122 ,23.2489 ,0.97652 ,3.32393 ,32.61437 
123 ,23.4250 ,0.97837 ,3.31024 ,32.48006 
124 ,23.6013 ,0.98012 ,3.29655 ,32.34575 
125 ,23.8252 ,0.98213 ,3.29313 ,32.31217 
126 ,24.0174 ,0.98419 ,3.26917 ,32.07712 
127 ,24.2094 ,0.98615 ,3.24180 ,31.80849 
128 ,24.4015 ,0.98805 ,3.22468 ,31.64060 
129 ,24.6096 ,0.99023 ,3.20073 ,31.40555 
130 ,24.8015 ,0.99210 ,3.19388 ,31.33840 
131 ,24.9937 ,0.99394 ,3.18704 ,31.27124 
132 ,25.2015 ,0.99601 ,3.16651 ,31.06977 
133 ,25.3937 ,0.99808 ,3.14940 ,30.90188 
134 ,25.5698 ,0.99977 ,3.11175 ,30.53252 
135 ,25.7779 ,1.00179 ,3.12544 ,30.66683 
136 ,25.9861 ,1.00386 ,3.09122 ,30.33105 
137 ,26.1780 ,1.00580 ,3.07753 ,30.19674 
138 ,26.3699 ,1.00773 ,3.05015 ,29.92811 
139 ,26.5459 ,1.00962 ,3.04331 ,29.86095 
140 ,26.7379 ,1.01147 ,3.02620 ,29.69306 
141 ,26.9301 ,1.01335 ,3.01593 ,29.59233 
142 ,27.1060 ,1.01525 ,2.98513 ,29.29012 
143 ,27.3147 ,1.01710 ,2.98855 ,29.32370 
144 ,27.5063 ,1.01925 ,2.95776 ,29.02150 
145 ,27.6989 ,1.02103 ,2.95091 ,28.95434 
146 ,27.8908 ,1.02296 ,2.92696 ,28.71929 
147 ,28.0669 ,1.02476 ,2.90642 ,28.51782 
148 ,28.2590 ,1.02662 ,2.91327 ,28.58498 
149 ,28.4672 ,1.02874 ,2.86878 ,28.14846 
150 ,28.6590 ,1.03059 ,2.87220 ,28.18204 
151 ,28.8350 ,1.03246 ,2.85851 ,28.04772 
152 ,29.0433 ,1.03443 ,2.83114 ,27.77910 
153 ,29.2193 ,1.03632 ,2.81060 ,27.57763 
154 ,29.4113 ,1.03819 ,2.80376 ,27.51047 
155 ,29.6036 ,1.04005 ,2.77296 ,27.20827 
156 ,29.8110 ,1.04217 ,2.77296 ,27.20827 
157 ,29.9871 ,1.04400 ,2.73874 ,26.87248 
158 ,30.1793 ,1.04583 ,2.73189 ,26.80533 
159 ,30.4039 ,1.04810 ,2.71478 ,26.63744 
160 ,30.5958 ,1.05002 ,2.70452 ,26.53670 
161 ,30.7555 ,1.05174 ,2.69083 ,26.40239 
162 ,30.9481 ,1.05352 ,2.66687 ,26.16734 
163 ,31.1558 ,1.05558 ,2.64976 ,25.99945 
164 ,31.3320 ,1.05740 ,2.64634 ,25.96587 
165 ,31.5242 ,1.05931 ,2.59843 ,25.49577 
166 ,31.7165 ,1.06116 ,2.60527 ,25.56293 
167 ,31.9085 ,1.06319 ,2.56421 ,25.15999 
168 ,32.0845 ,1.06493 ,2.55736 ,25.09283 
169 ,32.3087 ,1.06700 ,2.54710 ,24.99210 
170 ,32.5168 ,1.06922 ,2.52998 ,24.82421 
171 ,32.7088 ,1.07111 ,2.50261 ,24.55558 
172 ,32.9005 ,1.07305 ,2.49918 ,24.52200 
173 ,33.0930 ,1.07495 ,2.48892 ,24.42127 
174 ,33.3010 ,1.07702 ,2.46154 ,24.15264 
175 ,33.4930 ,1.07890 ,2.45812 ,24.11906 
176 ,33.6851 ,1.08087 ,2.42048 ,23.74970 
177 ,33.8612 ,1.08272 ,2.41021 ,23.64897 
178 ,34.0692 ,1.08468 ,2.40336 ,23.58181 
179 ,34.2452 ,1.08655 ,2.38625 ,23.41392 
180 ,34.4213 ,1.08828 ,2.35888 ,23.14529 
181 ,34.5973 ,1.09006 ,2.36230 ,23.17887 
182 ,34.7898 ,1.09190 ,2.33492 ,22.91024 
183 ,34.9977 ,1.09397 ,2.32465 ,22.80951 
184 ,35.2055 ,1.09597 ,2.30070 ,22.57446 
185 ,35.3979 ,1.09808 ,2.29043 ,22.47373 
186 ,35.6060 ,1.10003 ,2.26306 ,22.20510 
187 ,35.7978 ,1.10197 ,2.26306 ,22.20510 
188 ,35.9900 ,1.10394 ,2.24252 ,22.00363 
189 ,36.1817 ,1.10579 ,2.23226 ,21.90290 
190 ,36.3745 ,1.10776 ,2.21515 ,21.73500 
191 ,36.5823 ,1.10981 ,2.18435 ,21.43280 
192 ,36.7746 ,1.11175 ,2.18092 ,21.39922 
193 ,36.9665 ,1.11366 ,2.15697 ,21.16417 
194 ,37.1585 ,1.11557 ,2.14670 ,21.06344 
195 ,37.3346 ,1.11745 ,2.14328 ,21.02986 
196 ,37.5104 ,1.11921 ,2.10564 ,20.66050 
197 ,37.6868 ,1.12089 ,2.09879 ,20.59334 
198 ,37.8949 ,1.12293 ,2.09537 ,20.55976 
199 ,38.0710 ,1.12478 ,2.09195 ,20.52619 
200 ,38.2791 ,1.12678 ,2.05088 ,20.12325 
201 ,38.4712 ,1.12872 ,2.04746 ,20.08967 
202 ,38.6793 ,1.13077 ,2.02008 ,19.82104 
203 ,38.8715 ,1.13271 ,2.00982 ,19.72031 
204 ,39.0794 ,1.13477 ,1.99270 ,19.55241 
205 ,39.2714 ,1.13676 ,1.97902 ,19.41810 
206 ,39.4471 ,1.13857 ,1.94479 ,19.08232 
207 ,39.6397 ,1.14038 ,1.93453 ,18.98158 
208 ,39.8477 ,1.14246 ,1.92768 ,18.91443 
209 ,40.0397 ,1.14436 ,1.90715 ,18.71296 
210 ,40.2159 ,1.14619 ,1.89688 ,18.61222 
211 ,40.4239 ,1.14815 ,1.86608 ,18.31002 
212 ,40.6157 ,1.15016 ,1.84897 ,18.14213 
213 ,40.8081 ,1.15208 ,1.85240 ,18.17570 
214 ,41.0000 ,1.15399 ,1.82844 ,17.94066 
215 ,41.1919 ,1.15596 ,1.82844 ,17.94066 
216 ,41.3844 ,1.15780 ,1.81133 ,17.77276 
217 ,41.5920 ,1.15989 ,1.78737 ,17.53772 
218 ,41.7685 ,1.16177 ,1.76684 ,17.33625 
219 ,41.9441 ,1.16349 ,1.76684 ,17.33625 
220 ,42.1206 ,1.16524 ,1.74631 ,17.13478 
221 ,42.3127 ,1.16705 ,1.72920 ,16.96689 
222 ,42.5208 ,1.16919 ,1.71551 ,16.83257 
223 ,42.7128 ,1.17106 ,1.71209 ,16.79899 
224 ,42.8888 ,1.17292 ,1.70866 ,16.76542 
225 ,43.0810 ,1.17478 ,1.67786 ,16.46321 
226 ,43.2892 ,1.17683 ,1.66075 ,16.29532 
227 ,43.4811 ,1.17878 ,1.62995 ,15.99311 
228 ,43.6730 ,1.18075 ,1.62311 ,15.92596 
229 ,43.8813 ,1.18285 ,1.61627 ,15.85880 
230 ,44.0894 ,1.18485 ,1.60942 ,15.79164 
231 ,44.2495 ,1.18663 ,1.59916 ,15.69091 
232 ,44.4251 ,1.18833 ,1.58889 ,15.59018 
233 ,44.6013 ,1.19007 ,1.56836 ,15.38871 
234 ,44.7773 ,1.19179 ,1.55124 ,15.22081 
235 ,44.9859 ,1.19372 ,1.55124 ,15.22081 
236 ,45.1934 ,1.19587 ,1.54098 ,15.12008 
237 ,45.3859 ,1.19778 ,1.52387 ,14.95219 
238 ,45.5940 ,1.19987 ,1.48622 ,14.58283 
239 ,45.7862 ,1.20180 ,1.48622 ,14.58283 
240 ,45.9619 ,1.20368 ,1.46569 ,14.38136 
241 ,46.1384 ,1.20541 ,1.45200 ,14.24704 
242 ,46.3304 ,1.20729 ,1.45200 ,14.24704 
243 ,46.5386 ,1.20938 ,1.43489 ,14.07915 
244 ,46.7464 ,1.21145 ,1.43147 ,14.04557 
245 ,46.9383 ,1.21336 ,1.39725 ,13.70979 
246 ,47.1467 ,1.21532 ,1.39383 ,13.67621 
247 ,47.3548 ,1.21748 ,1.37671 ,13.50832 
248 ,47.5467 ,1.21942 ,1.36987 ,13.44116 
249 ,47.7550 ,1.22139 ,1.35276 ,13.27327 
250 ,47.9470 ,1.22343 ,1.33907 ,13.13896 
251 ,48.1230 ,1.22524 ,1.32880 ,13.03822 
252 ,48.2991 ,1.22697 ,1.30827 ,12.83675 
253 ,48.4911 ,1.22891 ,1.29116 ,12.66886 
254 ,48.6671 ,1.23070 ,1.30143 ,12.76960 
255 ,48.8434 ,1.23247 ,1.28089 ,12.56813 
256 ,49.0354 ,1.23435 ,1.24667 ,12.23235 
257 ,49.2276 ,1.23623 ,1.25352 ,12.29950 
258 ,49.4036 ,1.23802 ,1.23298 ,12.09803 
259 ,49.5956 ,1.23988 ,1.21245 ,11.89656 
260 ,49.8037 ,1.24203 ,1.20218 ,11.79583 
261 ,50.0118 ,1.24407 ,1.20218 ,11.79583 
262 ,50.2036 ,1.24598 ,1.18165 ,11.59436 
263 ,50.3961 ,1.24794 ,1.14743 ,11.25857 
264 ,50.5878 ,1.24987 ,1.15427 ,11.32573 
265 ,50.7801 ,1.25175 ,1.13032 ,11.09068 
266 ,51.0044 ,1.25382 ,1.10636 ,10.85563 
267 ,51.1958 ,1.25587 ,1.08925 ,10.68774 
268 ,51.3563 ,1.25770 ,1.07214 ,10.51985 
269 ,51.5485 ,1.25943 ,1.09610 ,10.75490 
270 ,51.7403 ,1.26135 ,1.06872 ,10.48627 
271 ,51.9326 ,1.26326 ,1.04134 ,10.21765 
272 ,52.1405 ,1.26533 ,1.03108 ,10.11691 
273 ,52.3164 ,1.26718 ,1.01396 ,9.94902 
274 ,52.5086 ,1.26902 ,1.01396 ,9.94902 
275 ,52.7168 ,1.27113 ,0.98659 ,9.68039 
276 ,52.9087 ,1.27316 ,0.99001 ,9.71397 
277 ,53.0851 ,1.27487 ,0.99343 ,9.74755 
278 ,53.2611 ,1.27663 ,0.96605 ,9.47892 
279 ,53.4368 ,1.27841 ,0.94210 ,9.24388 
280 ,53.6294 ,1.28024 ,0.93868 ,9.21030 
281 ,53.8374 ,1.28228 ,0.91814 ,9.00883 
282 ,54.0135 ,1.28414 ,0.89077 ,8.74020 
283 ,54.2053 ,1.28602 ,0.90103 ,8.84094 
284 ,54.3816 ,1.28781 ,0.89761 ,8.80736 
285 ,54.5576 ,1.28962 ,0.85654 ,8.40442 
286 ,54.7338 ,1.29135 ,0.85997 ,8.43800 
287 ,54.9098 ,1.29314 ,0.86339 ,8.47158 
288 ,55.1019 ,1.29488 ,0.84286 ,8.27011 
289 ,55.2941 ,1.29693 ,0.82232 ,8.06864 
290 ,55.4861 ,1.29883 ,0.81890 ,8.03506 
291 ,55.6780 ,1.30072 ,0.79495 ,7.80001 
292 ,55.8705 ,1.30269 ,0.77784 ,7.63212 
293 ,56.0784 ,1.30472 ,0.77441 ,7.59854 
294 ,56.2703 ,1.30661 ,0.76072 ,7.46423 
295 ,56.4465 ,1.30843 ,0.75046 ,7.36349 
296 ,56.6382 ,1.31037 ,0.74704 ,7.32991 
297 ,56.8468 ,1.31227 ,0.70597 ,6.92697 
298 ,57.0548 ,1.31442 ,0.68886 ,6.75908 
299 ,57.2469 ,1.31641 ,0.70939 ,6.96055 
300 ,57.4389 ,1.31837 ,0.69228 ,6.79266 
301 ,57.6309 ,1.32021 ,0.67175 ,6.59119 
302 ,57.7907 ,1.32199 ,0.65806 ,6.45688 
303 ,57.9670 ,1.32365 ,0.64437 ,6.32256 
304 ,58.1592 ,1.32550 ,0.64437 ,6.32256 
305 ,58.3353 ,1.32732 ,0.62042 ,6.08752 
306 ,58.5273 ,1.32923 ,0.61357 ,6.02036 
307 ,58.6873 ,1.33097 ,0.61357 ,6.02036 
308 ,58.8795 ,1.33272 ,0.57935 ,5.68458 
309 ,59.0555 ,1.33455 ,0.56908 ,5.58384 
310 ,59.2476 ,1.33636 ,0.56566 ,5.55026 
311 ,59.4236 ,1.33824 ,0.56224 ,5.51668 
312 ,59.5994 ,1.33995 ,0.55882 ,5.48311 
313 ,59.7917 ,1.34180 ,0.54171 ,5.31522 
314 ,59.9679 ,1.34374 ,0.53828 ,5.28164 
315 ,60.1440 ,1.34546 ,0.51091 ,5.01301 
316 ,60.3520 ,1.34742 ,0.49380 ,4.84512 
317 ,60.5440 ,1.34938 ,0.48353 ,4.74438 
318 ,60.7201 ,1.35114 ,0.48353 ,4.74438 
319 ,60.9121 ,1.35299 ,0.47326 ,4.64365 
320 ,61.0883 ,1.35481 ,0.43562 ,4.27429 
321 ,61.2803 ,1.35666 ,0.45957 ,4.50934 
322 ,61.4726 ,1.35860 ,0.41509 ,4.07282 
323 ,61.6484 ,1.36050 ,0.43220 ,4.24071 
324 ,61.8247 ,1.36225 ,0.41166 ,4.03924 
325 ,62.0167 ,1.36405 ,0.41166 ,4.03924 
326 ,62.2088 ,1.36602 ,0.38429 ,3.77061 
327 ,62.4006 ,1.36797 ,0.39113 ,3.83777 
328 ,62.5929 ,1.36983 ,0.36718 ,3.60272 
329 ,62.8009 ,1.37190 ,0.36375 ,3.56914 
330 ,62.9771 ,1.37375 ,0.35349 ,3.46841 
331 ,63.1688 ,1.37563 ,0.32953 ,3.23336 
332 ,63.3612 ,1.37749 ,0.31926 ,3.13263 
333 ,63.5696 ,1.37959 ,0.29873 ,2.93116 
334 ,63.7612 ,1.38147 ,0.30215 ,2.96473 
335 ,63.9375 ,1.38331 ,0.29189 ,2.86400 
336 ,64.1297 ,1.38519 ,0.27135 ,2.66253 
337 ,64.3377 ,1.38723 ,0.26451 ,2.59537 
338 ,64.5298 ,1.38921 ,0.22687 ,2.22601 
339 ,64.7217 ,1.39111 ,0.23713 ,2.32675 
340 ,64.9139 ,1.39310 ,0.23029 ,2.25959 
341 ,65.0899 ,1.39488 ,0.21660 ,2.12528 
342 ,65.2656 ,1.39660 ,0.18922 ,1.85665 
343 ,65.4420 ,1.39838 ,0.19264 ,1.89023 
344 ,65.6499 ,1.40039 ,0.17211 ,1.68876 
345 ,65.8424 ,1.40226 ,0.18238 ,1.78949 
346 ,66.0502 ,1.40441 ,0.16869 ,1.65518 
347 ,66.2264 ,1.40622 ,0.14131 ,1.38655 
348 ,66.4180 ,1.40809 ,0.14473 ,1.42013 
349 ,66.6104 ,1.41000 ,0.11393 ,1.11793 
350 ,66.8022 ,1.41205 ,0.13447 ,1.31940 
351 ,66.9787 ,1.41373 ,0.11051 ,1.08435 
352 ,67.1865 ,1.41567 ,0.08656 ,0.84930 
353 ,67.3626 ,1.41759 ,0.09340 ,0.91646 
354 ,67.5545 ,1.41941 ,0.07971 ,0.78214 
355 ,67.7309 ,1.42122 ,0.05234 ,0.51352 
356 ,67.9231 ,1.42310 ,0.06945 ,0.68141 
357 ,68.1151 ,1.42501 ,0.03865 ,0.37920 
358 ,68.3232 ,1.42720 ,0.01811 ,0.17773 
359 ,68.5153 ,1.42900 ,0.02496 ,0.24489 
360 ,68.7232 ,1.43117 ,-0.00242 ,-0.02373 
361 ,68.9155 ,1.43301 ,-0.00584 ,-0.05731 
362 ,69.1074 ,1.43501 ,-0.02980 ,-0.29236 
363 ,69.3157 ,1.43705 ,-0.01953 ,-0.19163 
364 ,69.5238 ,1.43909 ,-0.02637 ,-0.25878 
365 ,69.7155 ,1.44100 ,-0.03664 ,-0.35952 
366 ,69.9077 ,1.44294 ,-0.07086 ,-0.69530 
367 ,70.0839 ,1.44476 ,-0.07086 ,-0.69530 
368 ,70.2599 ,1.44654 ,-0.07428 ,-0.72888 
369 ,70.4517 ,1.44840 ,-0.08455 ,-0.82961 
370 ,70.6282 ,1.45021 ,-0.10166 ,-0.99751 
371 ,70.8202 ,1.45205 ,-0.09140 ,-0.89677 
372 ,71.0123 ,1.45404 ,-0.11193 ,-1.09824 
373 ,71.2044 ,1.45592 ,-0.11877 ,-1.16540 
374 ,71.4123 ,1.45798 ,-0.12562 ,-1.23255 
375 ,71.6046 ,1.45989 ,-0.13588 ,-1.33329 
376 ,71.7802 ,1.46170 ,-0.14615 ,-1.43402 
377 ,71.9726 ,1.46363 ,-0.15984 ,-1.56834 
378 ,72.1807 ,1.46567 ,-0.17695 ,-1.73623 
379 ,72.3889 ,1.46773 ,-0.18379 ,-1.80338 
380 ,72.5968 ,1.46987 ,-0.18722 ,-1.83696 
381 ,72.7729 ,1.47168 ,-0.17695 ,-1.73623 
382 ,72.9807 ,1.47363 ,-0.21802 ,-2.13917 
383 ,73.1890 ,1.47567 ,-0.21117 ,-2.07201 
384 ,73.3811 ,1.47768 ,-0.24197 ,-2.37422 
385 ,73.5736 ,1.47957 ,-0.22828 ,-2.23990 
386 ,73.7490 ,1.48146 ,-0.26250 ,-2.57569 
387 ,73.9411 ,1.48321 ,-0.26935 ,-2.64284 
388 ,74.1333 ,1.48516 ,-0.25566 ,-2.50853 
389 ,74.3414 ,1.48730 ,-0.28304 ,-2.77716 
390 ,74.5174 ,1.48908 ,-0.28646 ,-2.81073 
391 ,74.7099 ,1.49098 ,-0.30357 ,-2.97863 
392 ,74.9016 ,1.49284 ,-0.31726 ,-3.11294 
393 ,75.0774 ,1.49471 ,-0.31726 ,-3.11294 
394 ,75.2700 ,1.49655 ,-0.33095 ,-3.24725 
395 ,75.4622 ,1.49847 ,-0.34464 ,-3.38156 
396 ,75.6542 ,1.50039 ,-0.35490 ,-3.48230 
397 ,75.8624 ,1.50246 ,-0.35832 ,-3.51588 
398 ,76.0541 ,1.50442 ,-0.36175 ,-3.54946 
399 ,76.2465 ,1.50635 ,-0.37886 ,-3.71735 
400 ,76.4383 ,1.50825 ,-0.37886 ,-3.71735 
401 ,76.6463 ,1.51028 ,-0.40281 ,-3.95240 
402 ,76.8385 ,1.51220 ,-0.39255 ,-3.85166 
403 ,77.0467 ,1.51431 ,-0.42677 ,-4.18744 
404 ,77.2384 ,1.51621 ,-0.42335 ,-4.15387 
405 ,77.4306 ,1.51816 ,-0.44046 ,-4.32176 
406 ,77.6230 ,1.52006 ,-0.46099 ,-4.52323 
407 ,77.8309 ,1.52213 ,-0.44388 ,-4.35534 
408 ,78.0231 ,1.52406 ,-0.47468 ,-4.65754 
409 ,78.2311 ,1.52613 ,-0.46783 ,-4.59038 
410 ,78.4068 ,1.52799 ,-0.49179 ,-4.82543 
411 ,78.5832 ,1.52973 ,-0.48152 ,-4.72470 
412 ,78.7913 ,1.53177 ,-0.48494 ,-4.75828 
413 ,78.9675 ,1.53357 ,-0.50548 ,-4.95975 
414 ,79.1433 ,1.53529 ,-0.52943 ,-5.19479 
415 ,79.3356 ,1.53721 ,-0.52259 ,-5.12764 
416 ,79.5116 ,1.53902 ,-0.53285 ,-5.22837 
417 ,79.6873 ,1.54083 ,-0.57050 ,-5.59773 
418 ,79.8638 ,1.54255 ,-0.56708 ,-5.56415 
419 ,80.0558 ,1.54446 ,-0.56023 ,-5.49700 
420 ,80.2481 ,1.54631 ,-0.57734 ,-5.66489 
421 ,80.4401 ,1.54827 ,-0.59445 ,-5.83278 
422 ,80.6322 ,1.55017 ,-0.58419 ,-5.73205 
423 ,80.8402 ,1.55221 ,-0.60814 ,-5.96709 
424 ,81.0323 ,1.55412 ,-0.61156 ,-6.00067 
425 ,81.2405 ,1.55622 ,-0.62183 ,-6.10141 
426 ,81.4325 ,1.55816 ,-0.62183 ,-6.10141 
427 ,81.6404 ,1.56021 ,-0.63894 ,-6.26930 
428 ,81.8647 ,1.56240 ,-0.64236 ,-6.30288 
429 ,82.0568 ,1.56437 ,-0.64236 ,-6.30288 
430 ,82.2650 ,1.56641 ,-0.66290 ,-6.50435 
431 ,82.4565 ,1.56836 ,-0.67316 ,-6.60508 
432 ,82.6327 ,1.57020 ,-0.66974 ,-6.57150 
433 ,82.8732 ,1.57244 ,-0.70054 ,-6.87371 
434 ,83.0811 ,1.57457 ,-0.70739 ,-6.94086 
435 ,83.2732 ,1.57654 ,-0.70054 ,-6.87371 
436 ,83.4654 ,1.57847 ,-0.72107 ,-7.07518 
437 ,83.6735 ,1.58054 ,-0.73134 ,-7.17591 
438 ,83.8654 ,1.58250 ,-0.74503 ,-7.31023 
439 ,84.0575 ,1.58444 ,-0.76556 ,-7.51170 
440 ,84.2496 ,1.58629 ,-0.75187 ,-7.37738 
441 ,84.4257 ,1.58817 ,-0.75872 ,-7.44454 
442 ,84.6338 ,1.59011 ,-0.76556 ,-7.51170 
443 ,84.8256 ,1.59207 ,-0.78952 ,-7.74674 
444 ,85.0180 ,1.59403 ,-0.81005 ,-7.94821 
445 ,85.2260 ,1.59610 ,-0.77925 ,-7.64601 
446 ,85.4019 ,1.59785 ,-0.82374 ,-8.08253 
447 ,85.5942 ,1.59968 ,-0.82716 ,-8.11611 
448 ,85.7862 ,1.60171 ,-0.83401 ,-8.18326 
449 ,85.9778 ,1.60371 ,-0.84085 ,-8.25042 
450 ,86.1704 ,1.60551 ,-0.84085 ,-8.25042 
451 ,86.3624 ,1.60741 ,-0.86481 ,-8.48547 
452 ,86.5546 ,1.60939 ,-0.85454 ,-8.38473 
453 ,86.7465 ,1.61126 ,-0.86138 ,-8.45189 
454 ,86.9227 ,1.61308 ,-0.88192 ,-8.65336 
455 ,87.1303 ,1.61506 ,-0.87849 ,-8.61978 
456 ,87.3228 ,1.61700 ,-0.90245 ,-8.85483 
457 ,87.5149 ,1.61898 ,-0.90587 ,-8.88841 
458 ,87.7069 ,1.62099 ,-0.90587 ,-8.88841 
459 ,87.8829 ,1.62271 ,-0.91956 ,-9.02272 
460 ,88.0590 ,1.62446 ,-0.93667 ,-9.19061 
461 ,88.2510 ,1.62631 ,-0.93325 ,-9.15703 
462 ,88.4431 ,1.62821 ,-0.94351 ,-9.25777 
463 ,88.6192 ,1.63010 ,-0.97089 ,-9.52639 
