Data stamp = , 26-04-2022 13:01:55 529

Calibration Values: 
Slope = , 26.54 , g/V 
Offset Voltage at no contact = , -0.501760 , V 

No , Time , Stage Position ,   Mass , Force 
   ,  (s) ,      (mm)      ,   (g)  , (mN)  

1 ,0.0000 ,0.74942 ,5.32247 ,52.22410 
2 ,0.2690 ,0.74958 ,5.31905 ,52.19052 
3 ,0.6055 ,0.75069 ,5.33274 ,52.32484 
4 ,0.8134 ,0.75242 ,5.31905 ,52.19052 
5 ,1.0057 ,0.75420 ,5.32932 ,52.29126 
6 ,1.1980 ,0.75619 ,5.32589 ,52.25768 
7 ,1.4058 ,0.75818 ,5.32247 ,52.22410 
8 ,1.5984 ,0.76014 ,5.30536 ,52.05621 
9 ,1.8060 ,0.76219 ,5.30878 ,52.08979 
10 ,1.9981 ,0.76414 ,5.29167 ,51.92190 
11 ,2.1904 ,0.76614 ,5.26430 ,51.65327 
12 ,2.3823 ,0.76797 ,5.25403 ,51.55254 
13 ,2.5746 ,0.76988 ,5.20954 ,51.11602 
14 ,2.7665 ,0.77181 ,5.21981 ,51.21675 
15 ,2.9742 ,0.77385 ,5.18559 ,50.88097 
16 ,3.1665 ,0.77581 ,5.18216 ,50.84739 
17 ,3.3909 ,0.77804 ,5.14110 ,50.44445 
18 ,3.5989 ,0.78014 ,5.12056 ,50.24298 
19 ,3.8069 ,0.78223 ,5.11714 ,50.20940 
20 ,3.9830 ,0.78412 ,5.08634 ,49.90720 
21 ,4.1751 ,0.78593 ,5.05554 ,49.60499 
22 ,4.3827 ,0.78794 ,5.04185 ,49.47068 
23 ,4.5590 ,0.78978 ,5.03159 ,49.36995 
24 ,4.7350 ,0.79157 ,5.01106 ,49.16848 
25 ,4.9112 ,0.79336 ,5.00421 ,49.10132 
26 ,5.1031 ,0.79520 ,4.99394 ,49.00058 
27 ,5.2957 ,0.79711 ,4.94261 ,48.49691 
28 ,5.5037 ,0.79919 ,4.93577 ,48.42975 
29 ,5.6956 ,0.80112 ,4.89812 ,48.06039 
30 ,5.8879 ,0.80310 ,4.90497 ,48.12755 
31 ,6.0955 ,0.80511 ,4.87417 ,47.82534 
32 ,6.2716 ,0.80695 ,4.86390 ,47.72461 
33 ,6.4480 ,0.80867 ,4.85021 ,47.59030 
34 ,6.6402 ,0.81047 ,4.82284 ,47.32167 
35 ,6.8322 ,0.81246 ,4.80573 ,47.15378 
36 ,7.0241 ,0.81447 ,4.77493 ,46.85157 
37 ,7.2004 ,0.81622 ,4.76808 ,46.78442 
38 ,7.3923 ,0.81808 ,4.74755 ,46.58295 
39 ,7.5846 ,0.82002 ,4.73386 ,46.44863 
40 ,7.7766 ,0.82189 ,4.70648 ,46.18001 
41 ,7.9686 ,0.82381 ,4.71333 ,46.24716 
42 ,8.1608 ,0.82569 ,4.66542 ,45.77707 
43 ,8.3526 ,0.82767 ,4.66542 ,45.77707 
44 ,8.5449 ,0.82957 ,4.64146 ,45.54202 
45 ,8.7368 ,0.83164 ,4.63119 ,45.44128 
46 ,8.9130 ,0.83328 ,4.61408 ,45.27339 
47 ,9.1048 ,0.83515 ,4.59355 ,45.07192 
48 ,9.2972 ,0.83709 ,4.56960 ,44.83688 
49 ,9.4727 ,0.83895 ,4.56275 ,44.76972 
50 ,9.6651 ,0.84072 ,4.53195 ,44.46751 
51 ,9.8573 ,0.84269 ,4.52169 ,44.36678 
52 ,10.0496 ,0.84462 ,4.51142 ,44.26604 
53 ,10.2575 ,0.84672 ,4.48404 ,43.99742 
54 ,10.4337 ,0.84853 ,4.47035 ,43.86310 
55 ,10.6416 ,0.85054 ,4.44298 ,43.59448 
56 ,10.8339 ,0.85251 ,4.43613 ,43.52732 
57 ,11.0418 ,0.85454 ,4.40191 ,43.19154 
58 ,11.2340 ,0.85645 ,4.40533 ,43.22512 
59 ,11.4260 ,0.85834 ,4.37111 ,42.88933 
60 ,11.6017 ,0.86026 ,4.37111 ,42.88933 
61 ,11.8102 ,0.86209 ,4.36769 ,42.85576 
62 ,12.0182 ,0.86430 ,4.33004 ,42.48639 
63 ,12.1940 ,0.86617 ,4.30267 ,42.21777 
64 ,12.3864 ,0.86795 ,4.29582 ,42.15061 
65 ,12.5783 ,0.86987 ,4.27529 ,41.94914 
66 ,12.7705 ,0.87184 ,4.25818 ,41.78125 
67 ,12.9626 ,0.87376 ,4.23422 ,41.54620 
68 ,13.1550 ,0.87567 ,4.23080 ,41.51262 
69 ,13.3468 ,0.87759 ,4.21369 ,41.34473 
70 ,13.5229 ,0.87939 ,4.17947 ,41.00895 
71 ,13.7152 ,0.88121 ,4.17262 ,40.94179 
72 ,13.9071 ,0.88319 ,4.16578 ,40.87464 
73 ,14.1152 ,0.88526 ,4.14183 ,40.63959 
74 ,14.3073 ,0.88719 ,4.11787 ,40.40454 
75 ,14.4993 ,0.88908 ,4.10076 ,40.23665 
76 ,14.6916 ,0.89102 ,4.09391 ,40.16949 
77 ,14.8670 ,0.89281 ,4.07338 ,39.96802 
78 ,15.0594 ,0.89466 ,4.05627 ,39.80013 
79 ,15.2676 ,0.89673 ,4.02205 ,39.46435 
80 ,15.4597 ,0.89870 ,4.00836 ,39.33003 
81 ,15.6519 ,0.90059 ,3.99809 ,39.22930 
82 ,15.8602 ,0.90272 ,3.96729 ,38.92709 
83 ,16.0520 ,0.90460 ,3.97414 ,38.99425 
84 ,16.2601 ,0.90660 ,3.92965 ,38.55773 
85 ,16.4523 ,0.90863 ,3.92623 ,38.52415 
86 ,16.6442 ,0.91054 ,3.89885 ,38.25553 
87 ,16.8362 ,0.91252 ,3.89201 ,38.18837 
88 ,17.0443 ,0.91451 ,3.86121 ,37.88617 
89 ,17.2044 ,0.91629 ,3.84752 ,37.75185 
90 ,17.3966 ,0.91806 ,3.85094 ,37.78543 
91 ,17.6207 ,0.92018 ,3.79961 ,37.28176 
92 ,17.8286 ,0.92241 ,3.78592 ,37.14744 
93 ,18.0048 ,0.92416 ,3.77565 ,37.04671 
94 ,18.1964 ,0.92604 ,3.75854 ,36.87882 
95 ,18.4048 ,0.92814 ,3.73117 ,36.61019 
96 ,18.5970 ,0.93007 ,3.74485 ,36.74450 
97 ,18.7891 ,0.93206 ,3.71405 ,36.44230 
98 ,18.9812 ,0.93393 ,3.69352 ,36.24083 
99 ,19.1887 ,0.93595 ,3.68668 ,36.17367 
100 ,19.3654 ,0.93782 ,3.65930 ,35.90505 
101 ,19.5413 ,0.93956 ,3.64219 ,35.73716 
102 ,19.7332 ,0.94141 ,3.63877 ,35.70358 
103 ,19.9252 ,0.94330 ,3.60454 ,35.36779 
104 ,20.1175 ,0.94524 ,3.59428 ,35.26706 
105 ,20.2937 ,0.94711 ,3.57032 ,35.03201 
106 ,20.4698 ,0.94881 ,3.54295 ,34.76338 
107 ,20.6779 ,0.95078 ,3.55663 ,34.89770 
108 ,20.8699 ,0.95280 ,3.51899 ,34.52834 
109 ,21.0622 ,0.95466 ,3.51215 ,34.46118 
110 ,21.2542 ,0.95671 ,3.49161 ,34.25971 
111 ,21.4458 ,0.95852 ,3.47450 ,34.09182 
112 ,21.6383 ,0.96049 ,3.46081 ,33.95751 
113 ,21.8143 ,0.96228 ,3.43686 ,33.72246 
114 ,22.0060 ,0.96423 ,3.43686 ,33.72246 
115 ,22.1984 ,0.96614 ,3.42659 ,33.62172 
116 ,22.3742 ,0.96788 ,3.38895 ,33.25236 
117 ,22.5666 ,0.96977 ,3.37868 ,33.15163 
118 ,22.7745 ,0.97184 ,3.35815 ,32.95016 
119 ,22.9667 ,0.97368 ,3.33077 ,32.68153 
120 ,23.1428 ,0.97560 ,3.32735 ,32.64795 
121 ,23.3189 ,0.97732 ,3.31024 ,32.48006 
122 ,23.5105 ,0.97916 ,3.28286 ,32.21143 
123 ,23.7028 ,0.98107 ,3.27944 ,32.17786 
124 ,23.9110 ,0.98314 ,3.25206 ,31.90923 
125 ,24.1191 ,0.98529 ,3.24522 ,31.84207 
126 ,24.3109 ,0.98720 ,3.21784 ,31.57345 
127 ,24.5034 ,0.98910 ,3.21442 ,31.53987 
128 ,24.6951 ,0.99101 ,3.18704 ,31.27124 
129 ,24.8877 ,0.99299 ,3.15282 ,30.93546 
130 ,25.0795 ,0.99487 ,3.15966 ,31.00262 
131 ,25.2877 ,0.99691 ,3.13229 ,30.73399 
132 ,25.4795 ,0.99886 ,3.12544 ,30.66683 
133 ,25.6555 ,1.00064 ,3.09806 ,30.39821 
134 ,25.8318 ,1.00249 ,3.07069 ,30.12958 
135 ,25.9920 ,1.00415 ,3.06384 ,30.06242 
136 ,26.1679 ,1.00576 ,3.03989 ,29.82737 
137 ,26.3602 ,1.00764 ,3.04331 ,29.86095 
138 ,26.5681 ,1.00969 ,3.02620 ,29.69306 
139 ,26.7439 ,1.01157 ,3.00224 ,29.45801 
140 ,26.9363 ,1.01342 ,2.97829 ,29.22297 
141 ,27.1445 ,1.01554 ,2.96802 ,29.12223 
142 ,27.3685 ,1.01765 ,2.95433 ,28.98792 
143 ,27.5766 ,1.01979 ,2.92696 ,28.71929 
144 ,27.7684 ,1.02175 ,2.90642 ,28.51782 
145 ,27.9767 ,1.02374 ,2.89958 ,28.45066 
146 ,28.1528 ,1.02562 ,2.87562 ,28.21562 
147 ,28.3610 ,1.02765 ,2.86878 ,28.14846 
148 ,28.5370 ,1.02947 ,2.85167 ,27.98057 
149 ,28.7288 ,1.03140 ,2.83114 ,27.77910 
150 ,28.9206 ,1.03331 ,2.81060 ,27.57763 
151 ,29.1132 ,1.03523 ,2.79007 ,27.37616 
152 ,29.3211 ,1.03728 ,2.78665 ,27.34258 
153 ,29.5132 ,1.03918 ,2.74900 ,26.97322 
154 ,29.7052 ,1.04110 ,2.74558 ,26.93964 
155 ,29.8974 ,1.04298 ,2.71820 ,26.67101 
156 ,30.0734 ,1.04485 ,2.71820 ,26.67101 
157 ,30.2491 ,1.04661 ,2.69767 ,26.46954 
158 ,30.4578 ,1.04864 ,2.66345 ,26.13376 
159 ,30.6499 ,1.05061 ,2.64976 ,25.99945 
160 ,30.8418 ,1.05249 ,2.64976 ,25.99945 
161 ,31.0498 ,1.05456 ,2.63265 ,25.83156 
162 ,31.2579 ,1.05660 ,2.59843 ,25.49577 
163 ,31.4662 ,1.05870 ,2.60527 ,25.56293 
164 ,31.6585 ,1.06061 ,2.57447 ,25.26073 
165 ,31.8664 ,1.06270 ,2.56078 ,25.12641 
166 ,32.0586 ,1.06456 ,2.55736 ,25.09283 
167 ,32.2666 ,1.06665 ,2.52998 ,24.82421 
168 ,32.4746 ,1.06875 ,2.49918 ,24.52200 
169 ,32.6508 ,1.07062 ,2.48207 ,24.35411 
170 ,32.8428 ,1.07250 ,2.47865 ,24.32053 
171 ,33.0509 ,1.07455 ,2.46154 ,24.15264 
172 ,33.2425 ,1.07655 ,2.45127 ,24.05191 
173 ,33.4509 ,1.07855 ,2.43074 ,23.85044 
174 ,33.6589 ,1.08057 ,2.39310 ,23.48108 
175 ,33.8512 ,1.08254 ,2.39994 ,23.54823 
176 ,34.0593 ,1.08458 ,2.36230 ,23.17887 
177 ,34.2513 ,1.08655 ,2.36572 ,23.21245 
178 ,34.4434 ,1.08843 ,2.33150 ,22.87667 
179 ,34.6354 ,1.09037 ,2.31097 ,22.67520 
180 ,34.8116 ,1.09219 ,2.30412 ,22.60804 
181 ,34.9877 ,1.09400 ,2.30070 ,22.57446 
182 ,35.1797 ,1.09581 ,2.25621 ,22.13794 
183 ,35.3718 ,1.09773 ,2.26990 ,22.27226 
184 ,35.5639 ,1.09980 ,2.22883 ,21.86932 
185 ,35.7556 ,1.10168 ,2.21515 ,21.73500 
186 ,35.9319 ,1.10338 ,2.20830 ,21.66785 
187 ,36.1242 ,1.10524 ,2.19119 ,21.49996 
188 ,36.3003 ,1.10713 ,2.16723 ,21.26491 
189 ,36.4758 ,1.10882 ,2.15012 ,21.09702 
190 ,36.6680 ,1.11070 ,2.15697 ,21.16417 
191 ,36.8762 ,1.11276 ,2.12617 ,20.86197 
192 ,37.0686 ,1.11470 ,2.10221 ,20.62692 
193 ,37.2607 ,1.11669 ,2.07826 ,20.39187 
194 ,37.4528 ,1.11856 ,2.08852 ,20.49261 
195 ,37.6610 ,1.12060 ,2.05773 ,20.19040 
196 ,37.8529 ,1.12261 ,2.06457 ,20.25756 
197 ,38.0449 ,1.12443 ,2.02008 ,19.82104 
198 ,38.2207 ,1.12627 ,2.00639 ,19.68673 
199 ,38.4130 ,1.12813 ,2.01324 ,19.75388 
200 ,38.6211 ,1.13023 ,1.97217 ,19.35094 
201 ,38.8129 ,1.13221 ,1.97559 ,19.38452 
202 ,39.0212 ,1.13417 ,1.95506 ,19.18305 
203 ,39.2294 ,1.13625 ,1.93795 ,19.01516 
204 ,39.4374 ,1.13841 ,1.90715 ,18.71296 
205 ,39.6454 ,1.14045 ,1.90031 ,18.64580 
206 ,39.8215 ,1.14226 ,1.87977 ,18.44433 
207 ,39.9977 ,1.14405 ,1.86951 ,18.34360 
208 ,40.1898 ,1.14587 ,1.85924 ,18.24286 
209 ,40.3817 ,1.14783 ,1.83186 ,17.97423 
210 ,40.5738 ,1.14972 ,1.84213 ,18.07497 
211 ,40.7499 ,1.15154 ,1.82502 ,17.90708 
212 ,40.9420 ,1.15354 ,1.79764 ,17.63845 
213 ,41.1180 ,1.15527 ,1.79080 ,17.57129 
214 ,41.3103 ,1.15710 ,1.78395 ,17.50414 
215 ,41.5022 ,1.15909 ,1.74289 ,17.10120 
216 ,41.7100 ,1.16106 ,1.74289 ,17.10120 
217 ,41.9021 ,1.16301 ,1.71551 ,16.83257 
218 ,42.0945 ,1.16492 ,1.72578 ,16.93331 
219 ,42.3025 ,1.16690 ,1.69155 ,16.59752 
220 ,42.4788 ,1.16886 ,1.68813 ,16.56395 
221 ,42.6868 ,1.17090 ,1.65733 ,16.26174 
222 ,42.8947 ,1.17292 ,1.67444 ,16.42963 
223 ,43.0870 ,1.17488 ,1.62995 ,15.99311 
224 ,43.2630 ,1.17667 ,1.61284 ,15.82522 
225 ,43.4391 ,1.17842 ,1.62311 ,15.92596 
226 ,43.6313 ,1.18030 ,1.60258 ,15.72449 
227 ,43.8393 ,1.18228 ,1.57520 ,15.45586 
228 ,44.0313 ,1.18431 ,1.57520 ,15.45586 
229 ,44.2233 ,1.18619 ,1.55809 ,15.28797 
230 ,44.4153 ,1.18811 ,1.56836 ,15.38871 
231 ,44.6076 ,1.19004 ,1.52387 ,14.95219 
232 ,44.7996 ,1.19205 ,1.52045 ,14.91861 
233 ,44.9917 ,1.19391 ,1.51018 ,14.81787 
234 ,45.1834 ,1.19576 ,1.49649 ,14.68356 
235 ,45.3759 ,1.19772 ,1.48622 ,14.58283 
236 ,45.5841 ,1.19982 ,1.44858 ,14.21346 
237 ,45.7759 ,1.20173 ,1.44858 ,14.21346 
238 ,45.9682 ,1.20362 ,1.43147 ,14.04557 
239 ,46.1604 ,1.20563 ,1.43147 ,14.04557 
240 ,46.3682 ,1.20769 ,1.40409 ,13.77695 
241 ,46.5605 ,1.20963 ,1.39725 ,13.70979 
242 ,46.7365 ,1.21139 ,1.38356 ,13.57548 
243 ,46.9285 ,1.21321 ,1.35276 ,13.27327 
244 ,47.1206 ,1.21515 ,1.34591 ,13.20612 
245 ,47.3283 ,1.21723 ,1.31854 ,12.93749 
246 ,47.5207 ,1.21920 ,1.31512 ,12.90391 
247 ,47.7288 ,1.22130 ,1.29116 ,12.66886 
248 ,47.9051 ,1.22311 ,1.28774 ,12.63528 
249 ,48.0968 ,1.22496 ,1.29458 ,12.70244 
250 ,48.2729 ,1.22678 ,1.27747 ,12.53455 
251 ,48.4811 ,1.22882 ,1.26378 ,12.40024 
252 ,48.6570 ,1.23063 ,1.24325 ,12.19877 
253 ,48.8488 ,1.23244 ,1.22272 ,11.99730 
254 ,49.0409 ,1.23435 ,1.22272 ,11.99730 
255 ,49.2496 ,1.23631 ,1.18165 ,11.59436 
256 ,49.4892 ,1.23866 ,1.19192 ,11.69509 
257 ,49.6817 ,1.24079 ,1.17138 ,11.49362 
258 ,49.8737 ,1.24283 ,1.14743 ,11.25857 
259 ,50.0499 ,1.24453 ,1.13716 ,11.15784 
260 ,50.2419 ,1.24639 ,1.14743 ,11.25857 
261 ,50.4180 ,1.24816 ,1.12347 ,11.02353 
262 ,50.5937 ,1.25000 ,1.11321 ,10.92279 
263 ,50.7860 ,1.25182 ,1.09952 ,10.78848 
264 ,50.9943 ,1.25391 ,1.07556 ,10.55343 
265 ,51.1704 ,1.25571 ,1.05845 ,10.38554 
266 ,51.3624 ,1.25767 ,1.06530 ,10.45270 
267 ,51.5545 ,1.25946 ,1.03450 ,10.15049 
268 ,51.7302 ,1.26137 ,1.02081 ,10.01618 
269 ,51.9066 ,1.26312 ,1.00712 ,9.88186 
270 ,52.0982 ,1.26495 ,1.01396 ,9.94902 
271 ,52.2748 ,1.26678 ,0.99343 ,9.74755 
272 ,52.4510 ,1.26854 ,0.97632 ,9.57966 
273 ,52.6587 ,1.27052 ,0.97290 ,9.54608 
274 ,52.8510 ,1.27248 ,0.95921 ,9.41177 
275 ,53.0592 ,1.27449 ,0.94552 ,9.27745 
276 ,53.2511 ,1.27647 ,0.92157 ,9.04241 
277 ,53.4433 ,1.27845 ,0.91814 ,9.00883 
278 ,53.6354 ,1.28039 ,0.89761 ,8.80736 
279 ,53.8271 ,1.28218 ,0.87366 ,8.57231 
280 ,54.0194 ,1.28419 ,0.88734 ,8.70662 
281 ,54.2277 ,1.28622 ,0.87023 ,8.53873 
282 ,54.4358 ,1.28832 ,0.85312 ,8.37084 
283 ,54.6279 ,1.29018 ,0.85654 ,8.40442 
284 ,54.8199 ,1.29215 ,0.83601 ,8.20295 
285 ,55.0119 ,1.29409 ,0.80179 ,7.86717 
286 ,55.2199 ,1.29604 ,0.80521 ,7.90074 
287 ,55.4282 ,1.29827 ,0.78126 ,7.66570 
288 ,55.6362 ,1.30030 ,0.76757 ,7.53138 
289 ,55.8279 ,1.30222 ,0.77441 ,7.59854 
290 ,56.0040 ,1.30410 ,0.74704 ,7.32991 
291 ,56.1963 ,1.30590 ,0.73335 ,7.19560 
292 ,56.3887 ,1.30792 ,0.73677 ,7.22918 
293 ,56.5967 ,1.30995 ,0.69913 ,6.85982 
294 ,56.7888 ,1.31186 ,0.70939 ,6.96055 
295 ,56.9648 ,1.31368 ,0.67859 ,6.65835 
296 ,57.1244 ,1.31537 ,0.68886 ,6.75908 
297 ,57.3169 ,1.31709 ,0.66490 ,6.52403 
298 ,57.5089 ,1.31897 ,0.64437 ,6.32256 
299 ,57.7170 ,1.32110 ,0.63410 ,6.22183 
300 ,57.9094 ,1.32302 ,0.64437 ,6.32256 
301 ,58.1170 ,1.32512 ,0.61015 ,5.98678 
302 ,58.2930 ,1.32697 ,0.60673 ,5.95320 
303 ,58.4851 ,1.32885 ,0.59988 ,5.88605 
304 ,58.6615 ,1.33060 ,0.59988 ,5.88605 
305 ,58.8537 ,1.33248 ,0.56908 ,5.58384 
306 ,59.0455 ,1.33439 ,0.56566 ,5.55026 
307 ,59.2374 ,1.33629 ,0.54171 ,5.31522 
308 ,59.4296 ,1.33825 ,0.54171 ,5.31522 
309 ,59.6380 ,1.34022 ,0.52117 ,5.11375 
310 ,59.8299 ,1.34220 ,0.51775 ,5.08017 
311 ,60.0382 ,1.34430 ,0.48695 ,4.77796 
312 ,60.2304 ,1.34621 ,0.50406 ,4.94585 
313 ,60.4381 ,1.34839 ,0.49037 ,4.81154 
314 ,60.6463 ,1.35040 ,0.46984 ,4.61007 
315 ,60.8383 ,1.35229 ,0.45957 ,4.50934 
316 ,61.0304 ,1.35427 ,0.44931 ,4.40860 
317 ,61.2381 ,1.35633 ,0.43562 ,4.27429 
318 ,61.4302 ,1.35824 ,0.42535 ,4.17355 
319 ,61.6222 ,1.36015 ,0.41166 ,4.03924 
320 ,61.8148 ,1.36209 ,0.38771 ,3.80419 
321 ,62.0228 ,1.36413 ,0.39455 ,3.87135 
322 ,62.1988 ,1.36596 ,0.37744 ,3.70346 
323 ,62.3911 ,1.36781 ,0.37744 ,3.70346 
324 ,62.5825 ,1.36972 ,0.35006 ,3.43483 
325 ,62.7591 ,1.37156 ,0.33295 ,3.26694 
326 ,62.9511 ,1.37341 ,0.35691 ,3.50199 
327 ,63.1431 ,1.37531 ,0.31926 ,3.13263 
328 ,63.3354 ,1.37723 ,0.30558 ,2.99831 
329 ,63.5114 ,1.37908 ,0.31242 ,3.06547 
330 ,63.7037 ,1.38095 ,0.28847 ,2.83042 
331 ,63.8956 ,1.38283 ,0.28847 ,2.83042 
332 ,64.0716 ,1.38472 ,0.26793 ,2.62895 
333 ,64.2799 ,1.38669 ,0.24398 ,2.39390 
334 ,64.4715 ,1.38864 ,0.25424 ,2.49464 
335 ,64.6636 ,1.39052 ,0.22687 ,2.22601 
336 ,64.8395 ,1.39242 ,0.21318 ,2.09170 
337 ,65.0323 ,1.39417 ,0.22002 ,2.15885 
338 ,65.2239 ,1.39612 ,0.20976 ,2.05812 
339 ,65.4324 ,1.39815 ,0.19607 ,1.92381 
340 ,65.6405 ,1.40032 ,0.17896 ,1.75592 
341 ,65.8321 ,1.40215 ,0.17211 ,1.68876 
342 ,66.0084 ,1.40408 ,0.18238 ,1.78949 
343 ,66.2166 ,1.40606 ,0.15842 ,1.55445 
344 ,66.4089 ,1.40801 ,0.15158 ,1.48729 
345 ,66.6166 ,1.41007 ,0.12078 ,1.18508 
346 ,66.8246 ,1.41211 ,0.11393 ,1.11793 
347 ,67.0170 ,1.41414 ,0.09682 ,0.95004 
348 ,67.2250 ,1.41618 ,0.09340 ,0.91646 
349 ,67.4331 ,1.41820 ,0.08656 ,0.84930 
350 ,67.6093 ,1.42007 ,0.09682 ,0.95004 
351 ,67.8013 ,1.42190 ,0.05918 ,0.58067 
352 ,67.9929 ,1.42394 ,0.05576 ,0.54710 
353 ,68.1694 ,1.42565 ,0.05918 ,0.58067 
354 ,68.3615 ,1.42750 ,0.03522 ,0.34563 
355 ,68.5376 ,1.42935 ,0.01469 ,0.14416 
356 ,68.7457 ,1.43135 ,0.02154 ,0.21131 
357 ,68.9378 ,1.43333 ,0.00100 ,0.00984 
358 ,69.1294 ,1.43526 ,-0.00926 ,-0.09089 
359 ,69.3219 ,1.43706 ,-0.00584 ,-0.05731 
360 ,69.5141 ,1.43899 ,-0.00926 ,-0.09089 
361 ,69.7220 ,1.44109 ,-0.04691 ,-0.46025 
362 ,69.8981 ,1.44297 ,-0.05717 ,-0.56099 
363 ,70.0901 ,1.44479 ,-0.04691 ,-0.46025 
364 ,70.2824 ,1.44674 ,-0.07086 ,-0.69530 
365 ,70.4905 ,1.44880 ,-0.06402 ,-0.62814 
366 ,70.6985 ,1.45084 ,-0.07771 ,-0.76246 
367 ,70.8906 ,1.45283 ,-0.08113 ,-0.79604 
368 ,71.0826 ,1.45468 ,-0.11877 ,-1.16540 
369 ,71.2747 ,1.45658 ,-0.11193 ,-1.09824 
370 ,71.4507 ,1.45845 ,-0.11535 ,-1.13182 
371 ,71.6269 ,1.46019 ,-0.13246 ,-1.29971 
372 ,71.8349 ,1.46219 ,-0.13931 ,-1.36687 
373 ,72.0111 ,1.46407 ,-0.14615 ,-1.43402 
374 ,72.2031 ,1.46595 ,-0.16668 ,-1.63549 
375 ,72.3950 ,1.46779 ,-0.16326 ,-1.60191 
376 ,72.6033 ,1.46993 ,-0.19064 ,-1.87054 
377 ,72.7953 ,1.47181 ,-0.18722 ,-1.83696 
378 ,72.9874 ,1.47375 ,-0.20433 ,-2.00485 
379 ,73.1634 ,1.47554 ,-0.21459 ,-2.10559 
380 ,73.3394 ,1.47732 ,-0.21802 ,-2.13917 
381 ,73.5316 ,1.47923 ,-0.22144 ,-2.17275 
382 ,73.7234 ,1.48117 ,-0.24539 ,-2.40779 
383 ,73.8998 ,1.48300 ,-0.24539 ,-2.40779 
384 ,74.0758 ,1.48468 ,-0.25224 ,-2.47495 
385 ,74.2515 ,1.48642 ,-0.26250 ,-2.57569 
386 ,74.4437 ,1.48831 ,-0.27277 ,-2.67642 
387 ,74.6361 ,1.49022 ,-0.26935 ,-2.64284 
388 ,74.8442 ,1.49230 ,-0.30357 ,-2.97863 
389 ,75.0363 ,1.49429 ,-0.30699 ,-3.01220 
390 ,75.2604 ,1.49646 ,-0.31041 ,-3.04578 
391 ,75.4684 ,1.49851 ,-0.33095 ,-3.24725 
392 ,75.6443 ,1.50032 ,-0.34806 ,-3.41514 
393 ,75.8366 ,1.50220 ,-0.33095 ,-3.24725 
394 ,76.0286 ,1.50412 ,-0.35832 ,-3.51588 
395 ,76.2048 ,1.50599 ,-0.34806 ,-3.41514 
396 ,76.3968 ,1.50783 ,-0.36175 ,-3.54946 
397 ,76.5727 ,1.50963 ,-0.37201 ,-3.65019 
398 ,76.7809 ,1.51153 ,-0.38570 ,-3.78450 
399 ,76.9732 ,1.51364 ,-0.38912 ,-3.81808 
400 ,77.1652 ,1.51549 ,-0.41650 ,-4.08671 
401 ,77.3413 ,1.51732 ,-0.43019 ,-4.22102 
402 ,77.5330 ,1.51923 ,-0.42335 ,-4.15387 
403 ,77.7250 ,1.52108 ,-0.44046 ,-4.32176 
404 ,77.9174 ,1.52301 ,-0.43703 ,-4.28818 
405 ,78.1252 ,1.52511 ,-0.46783 ,-4.59038 
406 ,78.3014 ,1.52692 ,-0.46099 ,-4.52323 
407 ,78.4937 ,1.52882 ,-0.46783 ,-4.59038 
408 ,78.6857 ,1.53075 ,-0.48494 ,-4.75828 
409 ,78.8780 ,1.53266 ,-0.48494 ,-4.75828 
410 ,79.0541 ,1.53446 ,-0.48494 ,-4.75828 
411 ,79.2621 ,1.53650 ,-0.50206 ,-4.92617 
412 ,79.4542 ,1.53844 ,-0.51917 ,-5.09406 
413 ,79.6462 ,1.54032 ,-0.53285 ,-5.22837 
414 ,79.8544 ,1.54241 ,-0.54654 ,-5.36268 
415 ,80.0625 ,1.54437 ,-0.55681 ,-5.46342 
416 ,80.2702 ,1.54653 ,-0.57050 ,-5.59773 
417 ,80.4785 ,1.54867 ,-0.54997 ,-5.39626 
418 ,80.6867 ,1.55068 ,-0.57050 ,-5.59773 
419 ,80.8789 ,1.55263 ,-0.58077 ,-5.69847 
420 ,81.0707 ,1.55464 ,-0.59103 ,-5.79920 
421 ,81.2470 ,1.55635 ,-0.61156 ,-6.00067 
422 ,81.4389 ,1.55827 ,-0.59788 ,-5.86636 
423 ,81.6311 ,1.56018 ,-0.62183 ,-6.10141 
424 ,81.8070 ,1.56195 ,-0.64579 ,-6.33646 
425 ,81.9993 ,1.56387 ,-0.61841 ,-6.06783 
426 ,82.1912 ,1.56579 ,-0.64579 ,-6.33646 
427 ,82.3835 ,1.56772 ,-0.66290 ,-6.50435 
428 ,82.5753 ,1.56960 ,-0.66632 ,-6.53793 
429 ,82.7835 ,1.57164 ,-0.66290 ,-6.50435 
430 ,82.9754 ,1.57356 ,-0.69370 ,-6.80655 
431 ,83.1834 ,1.57563 ,-0.67316 ,-6.60508 
432 ,83.3753 ,1.57756 ,-0.70739 ,-6.94086 
433 ,83.5519 ,1.57941 ,-0.70396 ,-6.90729 
434 ,83.7438 ,1.58126 ,-0.71765 ,-7.04160 
435 ,83.9199 ,1.58310 ,-0.72450 ,-7.10876 
436 ,84.1120 ,1.58496 ,-0.73476 ,-7.20949 
437 ,84.3038 ,1.58686 ,-0.72450 ,-7.10876 
438 ,84.4961 ,1.58874 ,-0.75872 ,-7.44454 
439 ,84.6723 ,1.59057 ,-0.76898 ,-7.54527 
440 ,84.8803 ,1.59263 ,-0.75872 ,-7.44454 
441 ,85.0564 ,1.59441 ,-0.77925 ,-7.64601 
442 ,85.2486 ,1.59627 ,-0.78610 ,-7.71317 
443 ,85.4407 ,1.59825 ,-0.77925 ,-7.64601 
444 ,85.6327 ,1.60016 ,-0.79294 ,-7.78032 
445 ,85.8407 ,1.60223 ,-0.80663 ,-7.91464 
446 ,86.0328 ,1.60417 ,-0.82716 ,-8.11611 
447 ,86.2090 ,1.60599 ,-0.83401 ,-8.18326 
448 ,86.4167 ,1.60796 ,-0.85112 ,-8.35115 
449 ,86.6091 ,1.60993 ,-0.85454 ,-8.38473 
450 ,86.8171 ,1.61203 ,-0.84769 ,-8.31758 
451 ,87.0093 ,1.61385 ,-0.86138 ,-8.45189 
452 ,87.2012 ,1.61589 ,-0.85454 ,-8.38473 
453 ,87.3934 ,1.61776 ,-0.88534 ,-8.68694 
454 ,87.6013 ,1.61985 ,-0.87507 ,-8.58620 
455 ,87.7936 ,1.62174 ,-0.91272 ,-8.95556 
456 ,88.0015 ,1.62373 ,-0.91272 ,-8.95556 
457 ,88.2097 ,1.62593 ,-0.92640 ,-9.08988 
458 ,88.4179 ,1.62796 ,-0.93325 ,-9.15703 
459 ,88.6096 ,1.62994 ,-0.94009 ,-9.22419 
460 ,88.8018 ,1.63185 ,-0.93325 ,-9.15703 
461 ,88.9941 ,1.63380 ,-0.95720 ,-9.39208 
462 ,89.2021 ,1.63582 ,-0.96063 ,-9.42566 
463 ,89.3782 ,1.63762 ,-0.97431 ,-9.55997 
