Data stamp = , 25-04-2022 22:30:05 002

Calibration Values: 
Slope = , 26.54 , g/V 
Offset Voltage at no contact = , -0.501760 , V 

No , Time , Stage Position ,   Mass , Force 
   ,  (s) ,      (mm)      ,   (g)  , (mN)  

1 ,0.0000 ,0.74942 ,5.37381 ,52.72778 
2 ,0.2358 ,0.74952 ,5.37723 ,52.76135 
3 ,0.6842 ,0.75103 ,5.38065 ,52.79493 
4 ,0.8924 ,0.75315 ,5.36696 ,52.66062 
5 ,1.0843 ,0.75496 ,5.35669 ,52.55988 
6 ,1.2765 ,0.75685 ,5.37723 ,52.76135 
7 ,1.4526 ,0.75870 ,5.37723 ,52.76135 
8 ,1.6606 ,0.76083 ,5.36696 ,52.66062 
9 ,1.8685 ,0.76287 ,5.33958 ,52.39199 
10 ,2.0446 ,0.76463 ,5.32589 ,52.25768 
11 ,2.2371 ,0.76660 ,5.32932 ,52.29126 
12 ,2.4449 ,0.76860 ,5.29510 ,51.95548 
13 ,2.6529 ,0.77070 ,5.27456 ,51.75401 
14 ,2.8612 ,0.77272 ,5.26430 ,51.65327 
15 ,3.0530 ,0.77471 ,5.22665 ,51.28391 
16 ,3.2454 ,0.77670 ,5.22323 ,51.25033 
17 ,3.4212 ,0.77838 ,5.20270 ,51.04886 
18 ,3.6294 ,0.78046 ,5.16163 ,50.64592 
19 ,3.8056 ,0.78227 ,5.14110 ,50.44445 
20 ,4.0293 ,0.78434 ,5.14110 ,50.44445 
21 ,4.2215 ,0.78638 ,5.13768 ,50.41087 
22 ,4.4137 ,0.78828 ,5.10003 ,50.04151 
23 ,4.6220 ,0.79029 ,5.07265 ,49.77289 
24 ,4.8141 ,0.79230 ,5.04870 ,49.53784 
25 ,5.0219 ,0.79422 ,5.02817 ,49.33637 
26 ,5.1983 ,0.79615 ,5.02132 ,49.26921 
27 ,5.3898 ,0.79804 ,4.98368 ,48.89985 
28 ,5.5824 ,0.79992 ,4.96315 ,48.69838 
29 ,5.7905 ,0.80203 ,4.95972 ,48.66480 
30 ,5.9826 ,0.80397 ,4.93919 ,48.46333 
31 ,6.1747 ,0.80585 ,4.92892 ,48.36260 
32 ,6.3506 ,0.80770 ,4.91523 ,48.22828 
33 ,6.5266 ,0.80950 ,4.87759 ,47.85892 
34 ,6.7187 ,0.81132 ,4.87759 ,47.85892 
35 ,6.9107 ,0.81320 ,4.83652 ,47.45598 
36 ,7.1187 ,0.81533 ,4.82284 ,47.32167 
37 ,7.2949 ,0.81716 ,4.81941 ,47.28809 
38 ,7.5028 ,0.81910 ,4.79204 ,47.01946 
39 ,7.6950 ,0.82114 ,4.76466 ,46.75084 
40 ,7.9032 ,0.82313 ,4.75439 ,46.65010 
41 ,8.0954 ,0.82503 ,4.73386 ,46.44863 
42 ,8.2875 ,0.82700 ,4.69964 ,46.11285 
43 ,8.4955 ,0.82906 ,4.69964 ,46.11285 
44 ,8.6716 ,0.83089 ,4.67911 ,45.91138 
45 ,8.8476 ,0.83261 ,4.65515 ,45.67633 
46 ,9.0399 ,0.83449 ,4.63804 ,45.50844 
47 ,9.2316 ,0.83643 ,4.61751 ,45.30697 
48 ,9.4238 ,0.83837 ,4.59355 ,45.07192 
49 ,9.5997 ,0.84014 ,4.57986 ,44.93761 
50 ,9.7759 ,0.84200 ,4.58328 ,44.97119 
51 ,9.9681 ,0.84384 ,4.53880 ,44.53467 
52 ,10.1443 ,0.84564 ,4.53195 ,44.46751 
53 ,10.3365 ,0.84748 ,4.54222 ,44.56825 
54 ,10.5282 ,0.84939 ,4.49773 ,44.13173 
55 ,10.7045 ,0.85123 ,4.47378 ,43.89668 
56 ,10.8804 ,0.85295 ,4.47035 ,43.86310 
57 ,11.0726 ,0.85484 ,4.46351 ,43.79595 
58 ,11.2647 ,0.85680 ,4.41560 ,43.32585 
59 ,11.4567 ,0.85866 ,4.42929 ,43.46016 
60 ,11.6488 ,0.86063 ,4.39164 ,43.09080 
61 ,11.8245 ,0.86248 ,4.38480 ,43.02365 
62 ,12.0328 ,0.86437 ,4.37795 ,42.95649 
63 ,12.2409 ,0.86647 ,4.34716 ,42.65429 
64 ,12.4332 ,0.86844 ,4.31978 ,42.38566 
65 ,12.6251 ,0.87038 ,4.29240 ,42.11703 
66 ,12.8173 ,0.87232 ,4.29240 ,42.11703 
67 ,13.0092 ,0.87417 ,4.24449 ,41.64694 
68 ,13.1855 ,0.87602 ,4.24107 ,41.61336 
69 ,13.3771 ,0.87787 ,4.23422 ,41.54620 
70 ,13.5536 ,0.87968 ,4.22396 ,41.44547 
71 ,13.7296 ,0.88146 ,4.20342 ,41.24400 
72 ,13.9377 ,0.88345 ,4.17605 ,40.97537 
73 ,14.1134 ,0.88528 ,4.16920 ,40.90821 
74 ,14.3058 ,0.88716 ,4.13498 ,40.57243 
75 ,14.4817 ,0.88895 ,4.12471 ,40.47170 
76 ,14.6900 ,0.89097 ,4.10418 ,40.27023 
77 ,14.8821 ,0.89291 ,4.09049 ,40.13591 
78 ,15.0738 ,0.89485 ,4.08023 ,40.03518 
79 ,15.2663 ,0.89673 ,4.04258 ,39.66582 
80 ,15.4582 ,0.89880 ,4.04600 ,39.69940 
81 ,15.6503 ,0.90057 ,4.01178 ,39.36361 
82 ,15.8425 ,0.90247 ,4.01178 ,39.36361 
83 ,16.0344 ,0.90444 ,3.98783 ,39.12856 
84 ,16.2261 ,0.90637 ,3.95361 ,38.79278 
85 ,16.4026 ,0.90822 ,3.94676 ,38.72562 
86 ,16.6265 ,0.91030 ,3.92281 ,38.49058 
87 ,16.8187 ,0.91224 ,3.92281 ,38.49058 
88 ,16.9950 ,0.91409 ,3.89543 ,38.22195 
89 ,17.2030 ,0.91607 ,3.88516 ,38.12122 
90 ,17.3947 ,0.91803 ,3.86805 ,37.95332 
91 ,17.5870 ,0.91997 ,3.83725 ,37.65112 
92 ,17.7633 ,0.92180 ,3.81330 ,37.41607 
93 ,17.9554 ,0.92365 ,3.81672 ,37.44965 
94 ,18.1474 ,0.92558 ,3.77565 ,37.04671 
95 ,18.3393 ,0.92747 ,3.77565 ,37.04671 
96 ,18.5317 ,0.92945 ,3.75854 ,36.87882 
97 ,18.7395 ,0.93144 ,3.74485 ,36.74450 
98 ,18.9157 ,0.93330 ,3.74143 ,36.71093 
99 ,19.1238 ,0.93528 ,3.70379 ,36.34157 
100 ,19.3158 ,0.93725 ,3.68668 ,36.17367 
101 ,19.5235 ,0.93929 ,3.66957 ,36.00578 
102 ,19.7321 ,0.94136 ,3.63534 ,35.67000 
103 ,19.9240 ,0.94329 ,3.62850 ,35.60284 
104 ,20.1320 ,0.94541 ,3.60112 ,35.33422 
105 ,20.3243 ,0.94732 ,3.59770 ,35.30064 
106 ,20.5319 ,0.94939 ,3.55321 ,34.86412 
107 ,20.7245 ,0.95133 ,3.55321 ,34.86412 
108 ,20.9325 ,0.95343 ,3.53952 ,34.72981 
109 ,21.1244 ,0.95531 ,3.52584 ,34.59549 
110 ,21.3167 ,0.95726 ,3.51215 ,34.46118 
111 ,21.4927 ,0.95904 ,3.48135 ,34.15898 
112 ,21.6683 ,0.96081 ,3.46424 ,33.99108 
113 ,21.8447 ,0.96256 ,3.45055 ,33.85677 
114 ,22.0530 ,0.96454 ,3.43001 ,33.65530 
115 ,22.2448 ,0.96652 ,3.42659 ,33.62172 
116 ,22.4373 ,0.96843 ,3.39579 ,33.31952 
117 ,22.6292 ,0.97037 ,3.37184 ,33.08447 
118 ,22.8213 ,0.97223 ,3.39579 ,33.31952 
119 ,23.0295 ,0.97439 ,3.34104 ,32.78227 
120 ,23.2374 ,0.97646 ,3.33077 ,32.68153 
121 ,23.4131 ,0.97824 ,3.30682 ,32.44648 
122 ,23.6056 ,0.98008 ,3.31366 ,32.51364 
123 ,23.8132 ,0.98216 ,3.26917 ,32.07712 
124 ,24.0058 ,0.98407 ,3.26233 ,32.00996 
125 ,24.1977 ,0.98611 ,3.24522 ,31.84207 
126 ,24.3737 ,0.98787 ,3.21442 ,31.53987 
127 ,24.5499 ,0.98962 ,3.20415 ,31.43913 
128 ,24.7580 ,0.99163 ,3.19731 ,31.37198 
129 ,24.9340 ,0.99343 ,3.17335 ,31.13693 
130 ,25.1261 ,0.99536 ,3.18020 ,31.20409 
131 ,25.3023 ,0.99711 ,3.15966 ,31.00262 
132 ,25.4783 ,0.99897 ,3.11860 ,30.59968 
133 ,25.6703 ,1.00076 ,3.11175 ,30.53252 
134 ,25.8466 ,1.00257 ,3.10149 ,30.43178 
135 ,26.0383 ,1.00446 ,3.08438 ,30.26389 
136 ,26.2307 ,1.00638 ,3.06726 ,30.09600 
137 ,26.4387 ,1.00840 ,3.04331 ,29.86095 
138 ,26.6147 ,1.01028 ,3.02620 ,29.69306 
139 ,26.8227 ,1.01216 ,3.03647 ,29.79380 
140 ,27.0146 ,1.01417 ,2.99540 ,29.39086 
141 ,27.2230 ,1.01635 ,2.99198 ,29.35728 
142 ,27.4311 ,1.01835 ,2.95091 ,28.95434 
143 ,27.6390 ,1.02048 ,2.94064 ,28.85360 
144 ,27.8312 ,1.02236 ,2.92696 ,28.71929 
145 ,28.0232 ,1.02427 ,2.92353 ,28.68571 
146 ,28.1994 ,1.02609 ,2.90985 ,28.55140 
147 ,28.3914 ,1.02797 ,2.85851 ,28.04772 
148 ,28.5675 ,1.02976 ,2.86878 ,28.14846 
149 ,28.7437 ,1.03157 ,2.86193 ,28.08130 
150 ,28.9357 ,1.03339 ,2.82429 ,27.71194 
151 ,29.1277 ,1.03532 ,2.82429 ,27.71194 
152 ,29.3037 ,1.03715 ,2.82087 ,27.67836 
153 ,29.4960 ,1.03908 ,2.77980 ,27.27542 
154 ,29.6878 ,1.04093 ,2.77980 ,27.27542 
155 ,29.8962 ,1.04287 ,2.75585 ,27.04038 
156 ,30.0879 ,1.04489 ,2.74216 ,26.90606 
157 ,30.2641 ,1.04677 ,2.73874 ,26.87248 
158 ,30.4560 ,1.04876 ,2.69767 ,26.46954 
159 ,30.6485 ,1.05055 ,2.70109 ,26.50312 
160 ,30.8404 ,1.05243 ,2.67372 ,26.23450 
161 ,31.0326 ,1.05438 ,2.65660 ,26.06661 
162 ,31.2406 ,1.05641 ,2.63949 ,25.89871 
163 ,31.4002 ,1.05823 ,2.62923 ,25.79798 
164 ,31.5925 ,1.05998 ,2.60869 ,25.59651 
165 ,31.8006 ,1.06203 ,2.58816 ,25.39504 
166 ,32.0085 ,1.06418 ,2.58816 ,25.39504 
167 ,32.1851 ,1.06593 ,2.56763 ,25.19357 
168 ,32.3929 ,1.06791 ,2.52998 ,24.82421 
169 ,32.5852 ,1.06989 ,2.52998 ,24.82421 
170 ,32.7768 ,1.07186 ,2.49234 ,24.45485 
171 ,32.9534 ,1.07362 ,2.49576 ,24.48842 
172 ,33.1451 ,1.07550 ,2.49576 ,24.48842 
173 ,33.3375 ,1.07741 ,2.45470 ,24.08549 
174 ,33.5135 ,1.07919 ,2.43759 ,23.91759 
175 ,33.7057 ,1.08104 ,2.43416 ,23.88402 
176 ,33.8977 ,1.08299 ,2.40336 ,23.58181 
177 ,34.0738 ,1.08482 ,2.40679 ,23.61539 
178 ,34.2819 ,1.08684 ,2.38625 ,23.41392 
179 ,34.4739 ,1.08879 ,2.37256 ,23.27961 
180 ,34.6657 ,1.09066 ,2.34861 ,23.04456 
181 ,34.8422 ,1.09253 ,2.33150 ,22.87667 
182 ,35.0343 ,1.09433 ,2.32465 ,22.80951 
183 ,35.2263 ,1.09630 ,2.30754 ,22.64162 
184 ,35.4182 ,1.09815 ,2.28017 ,22.37299 
185 ,35.6104 ,1.10009 ,2.28359 ,22.40657 
186 ,35.7865 ,1.10188 ,2.27332 ,22.30584 
187 ,35.9627 ,1.10371 ,2.24937 ,22.07079 
188 ,36.1547 ,1.10554 ,2.22541 ,21.83574 
189 ,36.3628 ,1.10760 ,2.19803 ,21.56711 
190 ,36.5549 ,1.10958 ,2.20146 ,21.60069 
191 ,36.7626 ,1.11162 ,2.17408 ,21.33206 
192 ,36.9551 ,1.11356 ,2.16039 ,21.19775 
193 ,37.1631 ,1.11561 ,2.13301 ,20.92912 
194 ,37.3548 ,1.11754 ,2.12959 ,20.89555 
195 ,37.5313 ,1.11937 ,2.11590 ,20.76123 
196 ,37.7391 ,1.12140 ,2.09879 ,20.59334 
197 ,37.9314 ,1.12343 ,2.07484 ,20.35829 
198 ,38.1076 ,1.12512 ,2.07484 ,20.35829 
199 ,38.2994 ,1.12704 ,2.03377 ,19.95535 
200 ,38.4755 ,1.12892 ,2.04061 ,20.02251 
201 ,38.6677 ,1.13067 ,2.01666 ,19.78746 
202 ,38.8596 ,1.13256 ,2.01324 ,19.75388 
203 ,39.0360 ,1.13437 ,1.99613 ,19.58599 
204 ,39.2280 ,1.13635 ,1.98586 ,19.48526 
205 ,39.4197 ,1.13828 ,1.95164 ,19.14948 
206 ,39.5962 ,1.14001 ,1.94822 ,19.11590 
207 ,39.8042 ,1.14202 ,1.92084 ,18.84727 
208 ,39.9960 ,1.14395 ,1.92426 ,18.88085 
209 ,40.2044 ,1.14603 ,1.89688 ,18.61222 
210 ,40.4125 ,1.14807 ,1.90373 ,18.67938 
211 ,40.6043 ,1.15010 ,1.86266 ,18.27644 
212 ,40.7965 ,1.15198 ,1.85240 ,18.17570 
213 ,40.9727 ,1.15379 ,1.84555 ,18.10855 
214 ,41.1643 ,1.15575 ,1.81817 ,17.83992 
215 ,41.3247 ,1.15742 ,1.79764 ,17.63845 
216 ,41.5007 ,1.15905 ,1.78053 ,17.47056 
217 ,41.7089 ,1.16105 ,1.78737 ,17.53772 
218 ,41.8849 ,1.16288 ,1.77711 ,17.43698 
219 ,42.0612 ,1.16467 ,1.74973 ,17.16836 
220 ,42.2366 ,1.16644 ,1.74289 ,17.10120 
221 ,42.4130 ,1.16820 ,1.74289 ,17.10120 
222 ,42.6053 ,1.17010 ,1.70524 ,16.73184 
223 ,42.7972 ,1.17195 ,1.69840 ,16.66468 
224 ,42.9735 ,1.17378 ,1.69498 ,16.63110 
225 ,43.1495 ,1.17552 ,1.68129 ,16.49679 
226 ,43.3413 ,1.17737 ,1.65733 ,16.26174 
227 ,43.5176 ,1.17922 ,1.64707 ,16.16101 
228 ,43.7417 ,1.18131 ,1.63680 ,16.06027 
229 ,43.9339 ,1.18332 ,1.61627 ,15.85880 
230 ,44.1260 ,1.18527 ,1.61284 ,15.82522 
231 ,44.3336 ,1.18734 ,1.59573 ,15.65733 
232 ,44.5262 ,1.18925 ,1.56151 ,15.32155 
233 ,44.7341 ,1.19133 ,1.56151 ,15.32155 
234 ,44.9262 ,1.19320 ,1.51702 ,14.88503 
235 ,45.1182 ,1.19512 ,1.54440 ,15.15366 
236 ,45.3264 ,1.19722 ,1.51018 ,14.81787 
237 ,45.5182 ,1.19915 ,1.51018 ,14.81787 
238 ,45.7106 ,1.20100 ,1.49991 ,14.71714 
239 ,45.9022 ,1.20295 ,1.46227 ,14.34778 
240 ,46.0786 ,1.20480 ,1.45542 ,14.28062 
241 ,46.2867 ,1.20684 ,1.43147 ,14.04557 
242 ,46.4788 ,1.20878 ,1.42805 ,14.01199 
243 ,46.6871 ,1.21073 ,1.42462 ,13.97842 
244 ,46.8945 ,1.21292 ,1.40067 ,13.74337 
245 ,47.0865 ,1.21481 ,1.38014 ,13.54190 
246 ,47.2786 ,1.21671 ,1.38698 ,13.60906 
247 ,47.4712 ,1.21872 ,1.34249 ,13.17254 
248 ,47.6792 ,1.22075 ,1.35960 ,13.34043 
249 ,47.8714 ,1.22264 ,1.33565 ,13.10538 
250 ,48.0794 ,1.22471 ,1.31169 ,12.87033 
251 ,48.2875 ,1.22681 ,1.28774 ,12.63528 
252 ,48.4637 ,1.22868 ,1.28089 ,12.56813 
253 ,48.6558 ,1.23061 ,1.28089 ,12.56813 
254 ,48.8479 ,1.23247 ,1.24667 ,12.23235 
255 ,49.0560 ,1.23454 ,1.25694 ,12.33308 
256 ,49.2315 ,1.23636 ,1.21929 ,11.96372 
257 ,49.4241 ,1.23815 ,1.21929 ,11.96372 
258 ,49.6161 ,1.24010 ,1.20561 ,11.82941 
259 ,49.8079 ,1.24204 ,1.18165 ,11.59436 
260 ,50.0002 ,1.24392 ,1.17823 ,11.56078 
261 ,50.1765 ,1.24580 ,1.18165 ,11.59436 
262 ,50.3841 ,1.24780 ,1.14743 ,11.25857 
263 ,50.5604 ,1.24965 ,1.14058 ,11.19142 
264 ,50.7526 ,1.25156 ,1.13374 ,11.12426 
265 ,50.9284 ,1.25331 ,1.10979 ,10.88921 
266 ,51.1207 ,1.25512 ,1.12690 ,11.05710 
267 ,51.2964 ,1.25697 ,1.09267 ,10.72132 
268 ,51.4729 ,1.25872 ,1.08241 ,10.62059 
269 ,51.6488 ,1.26049 ,1.05845 ,10.38554 
270 ,51.8570 ,1.26249 ,1.05503 ,10.35196 
271 ,52.0167 ,1.26430 ,1.04134 ,10.21765 
272 ,52.2090 ,1.26600 ,1.00712 ,9.88186 
273 ,52.4012 ,1.26790 ,1.02765 ,10.08333 
274 ,52.5933 ,1.26988 ,0.99001 ,9.71397 
275 ,52.7689 ,1.27167 ,0.97974 ,9.61324 
276 ,52.9455 ,1.27348 ,0.97290 ,9.54608 
277 ,53.1216 ,1.27522 ,0.95921 ,9.41177 
278 ,53.2976 ,1.27698 ,0.96263 ,9.44535 
279 ,53.5058 ,1.27901 ,0.93868 ,9.21030 
280 ,53.6978 ,1.28091 ,0.90446 ,8.87451 
281 ,53.8898 ,1.28282 ,0.90446 ,8.87451 
282 ,54.0979 ,1.28492 ,0.90103 ,8.84094 
283 ,54.2900 ,1.28692 ,0.87708 ,8.60589 
284 ,54.4822 ,1.28877 ,0.89761 ,8.80736 
285 ,54.6582 ,1.29069 ,0.84970 ,8.33726 
286 ,54.8340 ,1.29236 ,0.84970 ,8.33726 
287 ,55.0259 ,1.29415 ,0.84286 ,8.27011 
288 ,55.1859 ,1.29599 ,0.82575 ,8.10221 
289 ,55.3784 ,1.29771 ,0.81890 ,8.03506 
290 ,55.6022 ,1.29991 ,0.80179 ,7.86717 
291 ,55.7786 ,1.30176 ,0.79837 ,7.83359 
292 ,55.9707 ,1.30362 ,0.77441 ,7.59854 
293 ,56.1627 ,1.30553 ,0.76415 ,7.49780 
294 ,56.3544 ,1.30747 ,0.73677 ,7.22918 
295 ,56.5308 ,1.30934 ,0.72992 ,7.16202 
296 ,56.7232 ,1.31117 ,0.73677 ,7.22918 
297 ,56.9151 ,1.31310 ,0.69570 ,6.82624 
298 ,57.0910 ,1.31493 ,0.69570 ,6.82624 
299 ,57.2993 ,1.31690 ,0.68544 ,6.72550 
300 ,57.4749 ,1.31883 ,0.66833 ,6.55761 
301 ,57.6509 ,1.32050 ,0.65464 ,6.42330 
302 ,57.8431 ,1.32232 ,0.67859 ,6.65835 
303 ,58.0191 ,1.32423 ,0.63410 ,6.22183 
304 ,58.1952 ,1.32601 ,0.62384 ,6.12109 
305 ,58.3874 ,1.32779 ,0.62384 ,6.12109 
306 ,58.5635 ,1.32961 ,0.62042 ,6.08752 
307 ,58.7877 ,1.33183 ,0.58619 ,5.75173 
308 ,58.9797 ,1.33378 ,0.59304 ,5.81889 
309 ,59.1721 ,1.33563 ,0.55882 ,5.48311 
310 ,59.3641 ,1.33758 ,0.56566 ,5.55026 
311 ,59.5558 ,1.33949 ,0.53486 ,5.24806 
312 ,59.7483 ,1.34139 ,0.54171 ,5.31522 
313 ,59.9405 ,1.34336 ,0.53486 ,5.24806 
314 ,60.1324 ,1.34525 ,0.51433 ,5.04659 
315 ,60.3085 ,1.34704 ,0.48353 ,4.74438 
316 ,60.4846 ,1.34882 ,0.50748 ,4.97943 
317 ,60.6763 ,1.35070 ,0.46642 ,4.57649 
318 ,60.8688 ,1.35260 ,0.48353 ,4.74438 
319 ,61.0768 ,1.35470 ,0.46300 ,4.54291 
320 ,61.2529 ,1.35649 ,0.42535 ,4.17355 
321 ,61.4288 ,1.35830 ,0.43562 ,4.27429 
322 ,61.6209 ,1.36012 ,0.41851 ,4.10640 
323 ,61.7967 ,1.36197 ,0.41166 ,4.03924 
324 ,61.9891 ,1.36379 ,0.40824 ,4.00566 
325 ,62.1813 ,1.36576 ,0.36718 ,3.60272 
326 ,62.3734 ,1.36773 ,0.36375 ,3.56914 
327 ,62.5655 ,1.36961 ,0.36718 ,3.60272 
328 ,62.7576 ,1.37146 ,0.35006 ,3.43483 
329 ,62.9495 ,1.37347 ,0.33980 ,3.33410 
330 ,63.1416 ,1.37535 ,0.33638 ,3.30052 
331 ,63.3177 ,1.37717 ,0.31584 ,3.09905 
332 ,63.5094 ,1.37899 ,0.31242 ,3.06547 
333 ,63.6860 ,1.38082 ,0.29873 ,2.93116 
334 ,63.8940 ,1.38275 ,0.27478 ,2.69611 
335 ,64.0860 ,1.38477 ,0.28162 ,2.76326 
336 ,64.2939 ,1.38685 ,0.25424 ,2.49464 
337 ,64.4701 ,1.38863 ,0.25767 ,2.52822 
338 ,64.6623 ,1.39055 ,0.23029 ,2.25959 
339 ,64.8704 ,1.39264 ,0.23713 ,2.32675 
340 ,65.0458 ,1.39449 ,0.20976 ,2.05812 
341 ,65.2386 ,1.39638 ,0.20976 ,2.05812 
342 ,65.4306 ,1.39822 ,0.19949 ,1.95738 
343 ,65.6226 ,1.40008 ,0.18238 ,1.78949 
344 ,65.8145 ,1.40202 ,0.16869 ,1.65518 
345 ,66.0067 ,1.40398 ,0.15842 ,1.55445 
346 ,66.1989 ,1.40593 ,0.14131 ,1.38655 
347 ,66.4070 ,1.40801 ,0.14473 ,1.42013 
348 ,66.6149 ,1.41007 ,0.12762 ,1.25224 
349 ,66.8230 ,1.41209 ,0.12078 ,1.18508 
350 ,66.9992 ,1.41395 ,0.09340 ,0.91646 
351 ,67.2068 ,1.41594 ,0.10025 ,0.98361 
352 ,67.3992 ,1.41785 ,0.08656 ,0.84930 
353 ,67.5911 ,1.41982 ,0.08314 ,0.81572 
354 ,67.7836 ,1.42176 ,0.07971 ,0.78214 
355 ,67.9755 ,1.42374 ,0.06945 ,0.68141 
356 ,68.1517 ,1.42548 ,0.05234 ,0.51352 
357 ,68.3438 ,1.42731 ,0.03180 ,0.31205 
358 ,68.5197 ,1.42915 ,0.00443 ,0.04342 
359 ,68.6958 ,1.43091 ,0.00100 ,0.00984 
360 ,68.9041 ,1.43292 ,-0.01611 ,-0.15805 
361 ,69.0961 ,1.43491 ,-0.01269 ,-0.12447 
362 ,69.2880 ,1.43676 ,-0.00584 ,-0.05731 
363 ,69.4960 ,1.43886 ,-0.03664 ,-0.35952 
364 ,69.6883 ,1.44081 ,-0.04348 ,-0.42667 
365 ,69.8801 ,1.44266 ,-0.05717 ,-0.56099 
366 ,70.0565 ,1.44450 ,-0.06744 ,-0.66172 
367 ,70.2326 ,1.44633 ,-0.05717 ,-0.56099 
368 ,70.4082 ,1.44802 ,-0.07771 ,-0.76246 
369 ,70.6002 ,1.44987 ,-0.09140 ,-0.89677 
370 ,70.7928 ,1.45177 ,-0.08797 ,-0.86319 
371 ,70.9847 ,1.45371 ,-0.11193 ,-1.09824 
372 ,71.1609 ,1.45560 ,-0.12219 ,-1.19898 
373 ,71.3370 ,1.45726 ,-0.13246 ,-1.29971 
374 ,71.5126 ,1.45906 ,-0.13588 ,-1.33329 
375 ,71.7052 ,1.46097 ,-0.13931 ,-1.36687 
376 ,71.8971 ,1.46291 ,-0.15984 ,-1.56834 
377 ,72.0733 ,1.46468 ,-0.15642 ,-1.53476 
378 ,72.2654 ,1.46655 ,-0.18722 ,-1.83696 
379 ,72.4575 ,1.46844 ,-0.18037 ,-1.76981 
380 ,72.6651 ,1.47051 ,-0.18722 ,-1.83696 
381 ,72.8736 ,1.47261 ,-0.20775 ,-2.03843 
382 ,73.0656 ,1.47457 ,-0.21117 ,-2.07201 
383 ,73.2576 ,1.47646 ,-0.22828 ,-2.23990 
384 ,73.4498 ,1.47836 ,-0.22486 ,-2.20632 
385 ,73.6255 ,1.48019 ,-0.25224 ,-2.47495 
386 ,73.8019 ,1.48194 ,-0.26593 ,-2.60926 
387 ,74.0097 ,1.48395 ,-0.24881 ,-2.44137 
388 ,74.2180 ,1.48601 ,-0.28304 ,-2.77716 
389 ,74.4102 ,1.48796 ,-0.27277 ,-2.67642 
390 ,74.6343 ,1.49012 ,-0.31041 ,-3.04578 
391 ,74.8423 ,1.49229 ,-0.30357 ,-2.97863 
392 ,75.0345 ,1.49427 ,-0.32410 ,-3.18010 
393 ,75.2425 ,1.49628 ,-0.33095 ,-3.24725 
394 ,75.4186 ,1.49809 ,-0.34121 ,-3.34799 
395 ,75.6105 ,1.49996 ,-0.33779 ,-3.31441 
396 ,75.8185 ,1.50201 ,-0.34806 ,-3.41514 
397 ,76.0108 ,1.50402 ,-0.35148 ,-3.44872 
398 ,76.2030 ,1.50595 ,-0.38570 ,-3.78450 
399 ,76.3786 ,1.50767 ,-0.39255 ,-3.85166 
400 ,76.5551 ,1.50946 ,-0.38570 ,-3.78450 
401 ,76.7470 ,1.51133 ,-0.39939 ,-3.91882 
402 ,76.9549 ,1.51338 ,-0.40623 ,-3.98597 
403 ,77.1472 ,1.51535 ,-0.42677 ,-4.18744 
404 ,77.3554 ,1.51737 ,-0.41308 ,-4.05313 
405 ,77.5313 ,1.51918 ,-0.42677 ,-4.18744 
406 ,77.7395 ,1.52125 ,-0.45072 ,-4.42249 
407 ,77.9154 ,1.52303 ,-0.45414 ,-4.45607 
408 ,78.1077 ,1.52490 ,-0.47126 ,-4.62396 
409 ,78.3156 ,1.52698 ,-0.47810 ,-4.69112 
410 ,78.5080 ,1.52892 ,-0.49179 ,-4.82543 
411 ,78.7159 ,1.53102 ,-0.48837 ,-4.79185 
412 ,78.9081 ,1.53298 ,-0.50206 ,-4.92617 
413 ,79.1157 ,1.53495 ,-0.52943 ,-5.19479 
414 ,79.3243 ,1.53695 ,-0.52601 ,-5.16121 
415 ,79.5322 ,1.53919 ,-0.53970 ,-5.29553 
416 ,79.7081 ,1.54096 ,-0.54312 ,-5.32911 
417 ,79.9002 ,1.54291 ,-0.55681 ,-5.46342 
418 ,80.0925 ,1.54473 ,-0.54654 ,-5.36268 
419 ,80.2685 ,1.54661 ,-0.59445 ,-5.83278 
420 ,80.4446 ,1.54832 ,-0.57734 ,-5.66489 
421 ,80.6528 ,1.55031 ,-0.58419 ,-5.73205 
422 ,80.8448 ,1.55222 ,-0.60130 ,-5.89994 
423 ,81.0370 ,1.55428 ,-0.60130 ,-5.89994 
424 ,81.2288 ,1.55615 ,-0.62183 ,-6.10141 
425 ,81.4370 ,1.55820 ,-0.61156 ,-6.00067 
426 ,81.6291 ,1.56015 ,-0.62183 ,-6.10141 
427 ,81.8211 ,1.56202 ,-0.63552 ,-6.23572 
428 ,82.0293 ,1.56412 ,-0.64921 ,-6.37003 
429 ,82.2213 ,1.56604 ,-0.65947 ,-6.47077 
430 ,82.4295 ,1.56817 ,-0.65947 ,-6.47077 
431 ,82.6536 ,1.57024 ,-0.66632 ,-6.53793 
432 ,82.8295 ,1.57218 ,-0.68001 ,-6.67224 
433 ,83.0216 ,1.57407 ,-0.70054 ,-6.87371 
434 ,83.2137 ,1.57598 ,-0.69712 ,-6.84013 
435 ,83.3897 ,1.57782 ,-0.72792 ,-7.14233 
436 ,83.5655 ,1.57958 ,-0.72107 ,-7.07518 
437 ,83.7580 ,1.58136 ,-0.74161 ,-7.27665 
438 ,83.9500 ,1.58330 ,-0.74503 ,-7.31023 
439 ,84.1264 ,1.58515 ,-0.75872 ,-7.44454 
440 ,84.3183 ,1.58699 ,-0.75530 ,-7.41096 
441 ,84.5099 ,1.58890 ,-0.76898 ,-7.54527 
442 ,84.7025 ,1.59081 ,-0.78267 ,-7.67959 
443 ,84.9104 ,1.59290 ,-0.78952 ,-7.74674 
444 ,85.1026 ,1.59480 ,-0.79294 ,-7.78032 
445 ,85.2945 ,1.59680 ,-0.79978 ,-7.84748 
446 ,85.4707 ,1.59855 ,-0.81005 ,-7.94821 
447 ,85.6785 ,1.60059 ,-0.80321 ,-7.88106 
448 ,85.8548 ,1.60244 ,-0.82716 ,-8.11611 
449 ,86.0308 ,1.60419 ,-0.82716 ,-8.11611 
450 ,86.2229 ,1.60607 ,-0.85112 ,-8.35115 
451 ,86.4147 ,1.60793 ,-0.84427 ,-8.28400 
452 ,86.5912 ,1.60981 ,-0.85112 ,-8.35115 
453 ,86.7831 ,1.61165 ,-0.88192 ,-8.65336 
454 ,86.9753 ,1.61362 ,-0.86823 ,-8.51904 
455 ,87.1514 ,1.61535 ,-0.87165 ,-8.55262 
456 ,87.3437 ,1.61732 ,-0.89903 ,-8.82125 
457 ,87.5357 ,1.61920 ,-0.89560 ,-8.78767 
458 ,87.7434 ,1.62124 ,-0.90587 ,-8.88841 
459 ,87.9358 ,1.62319 ,-0.91614 ,-8.98914 
460 ,88.1438 ,1.62525 ,-0.92640 ,-9.08988 
461 ,88.3198 ,1.62703 ,-0.92983 ,-9.12345 
462 ,88.4959 ,1.62879 ,-0.93667 ,-9.19061 
463 ,88.6879 ,1.63067 ,-0.94694 ,-9.29135 
