Data stamp = , 26-04-2022 15:35:50 319

Calibration Values: 
Slope = , 26.54 , g/V 
Offset Voltage at no contact = , -0.501760 , V 

No , Time , Stage Position ,   Mass , Force 
   ,  (s) ,      (mm)      ,   (g)  , (mN)  

1 ,0.0000 ,0.74956 ,5.36354 ,52.62704 
2 ,0.2777 ,0.74974 ,5.37723 ,52.76135 
3 ,0.6138 ,0.75087 ,5.36354 ,52.62704 
4 ,0.8379 ,0.75267 ,5.35327 ,52.52631 
5 ,1.0302 ,0.75462 ,5.35669 ,52.55988 
6 ,1.2223 ,0.75647 ,5.36012 ,52.59346 
7 ,1.4300 ,0.75837 ,5.37038 ,52.69420 
8 ,1.6227 ,0.76049 ,5.34643 ,52.45915 
9 ,1.8303 ,0.76259 ,5.34301 ,52.42557 
10 ,2.0228 ,0.76455 ,5.31563 ,52.15694 
11 ,2.2147 ,0.76643 ,5.30536 ,52.05621 
12 ,2.4069 ,0.76835 ,5.27798 ,51.78758 
13 ,2.5829 ,0.77022 ,5.29167 ,51.92190 
14 ,2.7591 ,0.77189 ,5.26087 ,51.61969 
15 ,2.9671 ,0.77393 ,5.22665 ,51.28391 
16 ,3.1589 ,0.77583 ,5.22323 ,51.25033 
17 ,3.3352 ,0.77769 ,5.18559 ,50.88097 
18 ,3.5108 ,0.77943 ,5.18216 ,50.84739 
19 ,3.7034 ,0.78131 ,5.16505 ,50.67950 
20 ,3.8954 ,0.78320 ,5.14794 ,50.51161 
21 ,4.0876 ,0.78516 ,5.10688 ,50.10867 
22 ,4.2797 ,0.78704 ,5.11030 ,50.14225 
23 ,4.4878 ,0.78922 ,5.06581 ,49.70573 
24 ,4.6793 ,0.79109 ,5.05212 ,49.57142 
25 ,4.8719 ,0.79297 ,5.04185 ,49.47068 
26 ,5.0799 ,0.79511 ,5.02817 ,49.33637 
27 ,5.2400 ,0.79683 ,5.00763 ,49.13490 
28 ,5.4322 ,0.79858 ,4.97683 ,48.83269 
29 ,5.6241 ,0.80048 ,4.95972 ,48.66480 
30 ,5.7998 ,0.80233 ,4.96657 ,48.73196 
31 ,5.9922 ,0.80418 ,4.92550 ,48.32902 
32 ,6.1680 ,0.80597 ,4.90155 ,48.09397 
33 ,6.3605 ,0.80791 ,4.89470 ,48.02681 
34 ,6.5680 ,0.80993 ,4.85364 ,47.62387 
35 ,6.7607 ,0.81187 ,4.85021 ,47.59030 
36 ,6.9844 ,0.81399 ,4.83310 ,47.42240 
37 ,7.1767 ,0.81603 ,4.81599 ,47.25451 
38 ,7.3528 ,0.81783 ,4.79204 ,47.01946 
39 ,7.5447 ,0.81985 ,4.80230 ,47.12020 
40 ,7.7212 ,0.82152 ,4.75439 ,46.65010 
41 ,7.9288 ,0.82348 ,4.73386 ,46.44863 
42 ,8.1214 ,0.82550 ,4.72702 ,46.38148 
43 ,8.3295 ,0.82759 ,4.69964 ,46.11285 
44 ,8.5213 ,0.82948 ,4.69964 ,46.11285 
45 ,8.6973 ,0.83130 ,4.67911 ,45.91138 
46 ,8.8734 ,0.83299 ,4.64831 ,45.60918 
47 ,9.0492 ,0.83477 ,4.62435 ,45.37413 
48 ,9.2415 ,0.83664 ,4.62777 ,45.40771 
49 ,9.4337 ,0.83855 ,4.58328 ,44.97119 
50 ,9.6413 ,0.84070 ,4.58328 ,44.97119 
51 ,9.8334 ,0.84255 ,4.55933 ,44.73614 
52 ,10.0094 ,0.84445 ,4.53880 ,44.53467 
53 ,10.2020 ,0.84623 ,4.54222 ,44.56825 
54 ,10.3941 ,0.84827 ,4.50457 ,44.19889 
55 ,10.5696 ,0.84994 ,4.48746 ,44.03100 
56 ,10.7617 ,0.85184 ,4.48404 ,43.99742 
57 ,10.9539 ,0.85378 ,4.46009 ,43.76237 
58 ,11.1462 ,0.85580 ,4.42244 ,43.39301 
59 ,11.3539 ,0.85774 ,4.42244 ,43.39301 
60 ,11.5306 ,0.85956 ,4.39507 ,43.12438 
61 ,11.7227 ,0.86146 ,4.38480 ,43.02365 
62 ,11.9147 ,0.86332 ,4.35742 ,42.75502 
63 ,12.1228 ,0.86535 ,4.35400 ,42.72144 
64 ,12.3144 ,0.86741 ,4.32662 ,42.45282 
65 ,12.4904 ,0.86924 ,4.30609 ,42.25135 
66 ,12.6669 ,0.87093 ,4.28213 ,42.01630 
67 ,12.8748 ,0.87293 ,4.26845 ,41.88198 
68 ,13.0671 ,0.87488 ,4.25818 ,41.78125 
69 ,13.2592 ,0.87691 ,4.23080 ,41.51262 
70 ,13.4512 ,0.87888 ,4.21369 ,41.34473 
71 ,13.6272 ,0.88057 ,4.19658 ,41.17684 
72 ,13.8031 ,0.88227 ,4.20342 ,41.24400 
73 ,14.0114 ,0.88434 ,4.15894 ,40.80748 
74 ,14.1872 ,0.88612 ,4.14867 ,40.70674 
75 ,14.3954 ,0.88819 ,4.13156 ,40.53885 
76 ,14.5875 ,0.89016 ,4.10760 ,40.30380 
77 ,14.7798 ,0.89210 ,4.10076 ,40.23665 
78 ,14.9714 ,0.89393 ,4.06312 ,39.86729 
79 ,15.1478 ,0.89573 ,4.06312 ,39.86729 
80 ,15.3239 ,0.89750 ,4.05285 ,39.76655 
81 ,15.5157 ,0.89937 ,4.02205 ,39.46435 
82 ,15.7081 ,0.90132 ,4.01520 ,39.39719 
83 ,15.9160 ,0.90341 ,3.98098 ,39.06141 
84 ,16.0922 ,0.90523 ,3.94334 ,38.69205 
85 ,16.2844 ,0.90717 ,3.95703 ,38.82636 
86 ,16.4763 ,0.90898 ,3.93650 ,38.62489 
87 ,16.6685 ,0.91097 ,3.90570 ,38.32268 
88 ,16.8446 ,0.91271 ,3.92281 ,38.49058 
89 ,17.0528 ,0.91473 ,3.88174 ,38.08764 
90 ,17.2447 ,0.91679 ,3.86121 ,37.88617 
91 ,17.4210 ,0.91845 ,3.86463 ,37.91975 
92 ,17.6129 ,0.92034 ,3.82356 ,37.51681 
93 ,17.8047 ,0.92227 ,3.81672 ,37.44965 
94 ,17.9971 ,0.92416 ,3.79619 ,37.24818 
95 ,18.1892 ,0.92609 ,3.77565 ,37.04671 
96 ,18.3813 ,0.92806 ,3.76196 ,36.91240 
97 ,18.5730 ,0.92991 ,3.73459 ,36.64377 
98 ,18.7810 ,0.93208 ,3.73459 ,36.64377 
99 ,18.9734 ,0.93396 ,3.67299 ,36.03936 
100 ,19.1974 ,0.93607 ,3.69694 ,36.27441 
101 ,19.3897 ,0.93814 ,3.67299 ,36.03936 
102 ,19.5973 ,0.94015 ,3.64219 ,35.73716 
103 ,19.7739 ,0.94196 ,3.59428 ,35.26706 
104 ,19.9814 ,0.94400 ,3.60797 ,35.40137 
105 ,20.1419 ,0.94576 ,3.58401 ,35.16632 
106 ,20.3340 ,0.94753 ,3.56690 ,34.99843 
107 ,20.5421 ,0.94966 ,3.56006 ,34.93128 
108 ,20.7338 ,0.95155 ,3.51899 ,34.52834 
109 ,20.9264 ,0.95345 ,3.52241 ,34.56192 
110 ,21.1185 ,0.95544 ,3.50872 ,34.42760 
111 ,21.3264 ,0.95742 ,3.47792 ,34.12540 
112 ,21.5183 ,0.95935 ,3.46424 ,33.99108 
113 ,21.7427 ,0.96165 ,3.44370 ,33.78961 
114 ,21.9348 ,0.96365 ,3.42659 ,33.62172 
115 ,22.1103 ,0.96535 ,3.39237 ,33.28594 
116 ,22.3024 ,0.96718 ,3.40606 ,33.42025 
117 ,22.4790 ,0.96904 ,3.38553 ,33.21878 
118 ,22.6709 ,0.97089 ,3.34446 ,32.81584 
119 ,22.8470 ,0.97267 ,3.33762 ,32.74869 
120 ,23.0391 ,0.97452 ,3.32051 ,32.58080 
121 ,23.2312 ,0.97659 ,3.31024 ,32.48006 
122 ,23.4073 ,0.97828 ,3.29655 ,32.34575 
123 ,23.5995 ,0.98015 ,3.27259 ,32.11070 
124 ,23.7915 ,0.98209 ,3.25548 ,31.94281 
125 ,23.9996 ,0.98411 ,3.23153 ,31.70776 
126 ,24.1913 ,0.98612 ,3.21100 ,31.50629 
127 ,24.3838 ,0.98802 ,3.20757 ,31.47271 
128 ,24.5918 ,0.99010 ,3.18362 ,31.23766 
129 ,24.7679 ,0.99191 ,3.15966 ,31.00262 
130 ,24.9917 ,0.99410 ,3.14940 ,30.90188 
131 ,25.2001 ,0.99606 ,3.12544 ,30.66683 
132 ,25.3917 ,0.99809 ,3.10149 ,30.43178 
133 ,25.5843 ,1.00000 ,3.09806 ,30.39821 
134 ,25.7761 ,1.00191 ,3.06726 ,30.09600 
135 ,25.9684 ,1.00383 ,3.07069 ,30.12958 
136 ,26.1604 ,1.00580 ,3.05358 ,29.96169 
137 ,26.3524 ,1.00771 ,3.01251 ,29.55875 
138 ,26.5607 ,1.00981 ,3.01935 ,29.62590 
139 ,26.7687 ,1.01184 ,2.99882 ,29.42444 
140 ,26.9607 ,1.01379 ,2.98513 ,29.29012 
141 ,27.1366 ,1.01560 ,2.95433 ,28.98792 
142 ,27.3125 ,1.01739 ,2.95433 ,28.98792 
143 ,27.5045 ,1.01921 ,2.93722 ,28.82003 
144 ,27.6968 ,1.02112 ,2.89616 ,28.41709 
145 ,27.8892 ,1.02309 ,2.88589 ,28.31635 
146 ,28.0810 ,1.02500 ,2.87905 ,28.24919 
147 ,28.2890 ,1.02708 ,2.85167 ,27.98057 
148 ,28.4812 ,1.02902 ,2.83456 ,27.81268 
149 ,28.6734 ,1.03090 ,2.81402 ,27.61121 
150 ,28.8814 ,1.03298 ,2.79691 ,27.44332 
151 ,29.0736 ,1.03488 ,2.78322 ,27.30900 
152 ,29.2813 ,1.03686 ,2.79007 ,27.37616 
153 ,29.4738 ,1.03890 ,2.74216 ,26.90606 
154 ,29.6654 ,1.04081 ,2.75585 ,27.04038 
155 ,29.8578 ,1.04269 ,2.70452 ,26.53670 
156 ,30.0660 ,1.04482 ,2.71478 ,26.63744 
157 ,30.2422 ,1.04666 ,2.69083 ,26.40239 
158 ,30.4341 ,1.04851 ,2.66345 ,26.13376 
159 ,30.6423 ,1.05056 ,2.66003 ,26.10018 
160 ,30.8502 ,1.05265 ,2.61212 ,25.63009 
161 ,31.0585 ,1.05476 ,2.60527 ,25.56293 
162 ,31.2665 ,1.05682 ,2.60527 ,25.56293 
163 ,31.4586 ,1.05870 ,2.56078 ,25.12641 
164 ,31.6985 ,1.06103 ,2.57789 ,25.29430 
165 ,31.8908 ,1.06310 ,2.54025 ,24.92494 
166 ,32.0827 ,1.06498 ,2.53341 ,24.85779 
167 ,32.2749 ,1.06687 ,2.49576 ,24.48842 
168 ,32.4830 ,1.06896 ,2.48892 ,24.42127 
169 ,32.6910 ,1.07101 ,2.46839 ,24.21980 
170 ,32.8828 ,1.07304 ,2.45812 ,24.11906 
171 ,33.0752 ,1.07492 ,2.43416 ,23.88402 
172 ,33.2673 ,1.07690 ,2.43074 ,23.85044 
173 ,33.4593 ,1.07878 ,2.41021 ,23.64897 
174 ,33.6355 ,1.08056 ,2.38968 ,23.44750 
175 ,33.8272 ,1.08238 ,2.40336 ,23.58181 
176 ,34.0033 ,1.08419 ,2.37256 ,23.27961 
177 ,34.1955 ,1.08607 ,2.33150 ,22.87667 
178 ,34.4037 ,1.08820 ,2.33492 ,22.91024 
179 ,34.5956 ,1.09009 ,2.30412 ,22.60804 
180 ,34.7879 ,1.09202 ,2.31097 ,22.67520 
181 ,34.9956 ,1.09410 ,2.26648 ,22.23868 
182 ,35.1720 ,1.09586 ,2.25279 ,22.10437 
183 ,35.3642 ,1.09777 ,2.26648 ,22.23868 
184 ,35.5402 ,1.09962 ,2.23910 ,21.97005 
185 ,35.7322 ,1.10146 ,2.21172 ,21.70143 
186 ,35.9084 ,1.10325 ,2.20488 ,21.63427 
187 ,36.1005 ,1.10519 ,2.19461 ,21.53353 
188 ,36.2925 ,1.10717 ,2.17066 ,21.29849 
189 ,36.4847 ,1.10901 ,2.15355 ,21.13059 
190 ,36.6769 ,1.11091 ,2.12959 ,20.89555 
191 ,36.8688 ,1.11277 ,2.12959 ,20.89555 
192 ,37.0609 ,1.11475 ,2.10564 ,20.66050 
193 ,37.2686 ,1.11681 ,2.10564 ,20.66050 
194 ,37.4611 ,1.11875 ,2.06799 ,20.29114 
195 ,37.6371 ,1.12058 ,2.06115 ,20.22398 
196 ,37.8294 ,1.12236 ,2.05430 ,20.15682 
197 ,38.0373 ,1.12446 ,2.02693 ,19.88820 
198 ,38.2294 ,1.12646 ,2.01324 ,19.75388 
199 ,38.4215 ,1.12832 ,1.98928 ,19.51884 
200 ,38.6295 ,1.13038 ,1.99955 ,19.61957 
201 ,38.8056 ,1.13223 ,1.99270 ,19.55241 
202 ,38.9977 ,1.13412 ,1.94479 ,19.08232 
203 ,39.2058 ,1.13616 ,1.94479 ,19.08232 
204 ,39.3975 ,1.13807 ,1.93111 ,18.94801 
205 ,39.5898 ,1.14001 ,1.92084 ,18.84727 
206 ,39.7821 ,1.14197 ,1.90715 ,18.71296 
207 ,39.9736 ,1.14389 ,1.87635 ,18.41075 
208 ,40.1662 ,1.14580 ,1.88319 ,18.47791 
209 ,40.3742 ,1.14783 ,1.84213 ,18.07497 
210 ,40.5659 ,1.14978 ,1.84555 ,18.10855 
211 ,40.7420 ,1.15159 ,1.83528 ,18.00781 
212 ,40.9345 ,1.15351 ,1.82502 ,17.90708 
213 ,41.1267 ,1.15538 ,1.79764 ,17.63845 
214 ,41.3189 ,1.15733 ,1.77711 ,17.43698 
215 ,41.5107 ,1.15922 ,1.77369 ,17.40340 
216 ,41.6708 ,1.16099 ,1.76342 ,17.30267 
217 ,41.8468 ,1.16263 ,1.74631 ,17.13478 
218 ,42.0389 ,1.16451 ,1.72578 ,16.93331 
219 ,42.2312 ,1.16644 ,1.70182 ,16.69826 
220 ,42.4230 ,1.16835 ,1.70524 ,16.73184 
221 ,42.6149 ,1.17021 ,1.68471 ,16.53037 
222 ,42.8071 ,1.17212 ,1.67786 ,16.46321 
223 ,42.9993 ,1.17415 ,1.65391 ,16.22816 
224 ,43.1913 ,1.17604 ,1.64707 ,16.16101 
225 ,43.3835 ,1.17788 ,1.63338 ,16.02669 
226 ,43.5756 ,1.17979 ,1.62653 ,15.95954 
227 ,43.8153 ,1.18225 ,1.59916 ,15.69091 
228 ,44.0078 ,1.18413 ,1.58547 ,15.55660 
229 ,44.1999 ,1.18613 ,1.57520 ,15.45586 
230 ,44.4079 ,1.18816 ,1.56493 ,15.35513 
231 ,44.6000 ,1.19004 ,1.53071 ,15.01934 
232 ,44.8081 ,1.19215 ,1.53413 ,15.05292 
233 ,45.0001 ,1.19409 ,1.49649 ,14.68356 
234 ,45.2082 ,1.19616 ,1.51018 ,14.81787 
235 ,45.4003 ,1.19815 ,1.48280 ,14.54925 
236 ,45.6082 ,1.20018 ,1.48965 ,14.61640 
237 ,45.8005 ,1.20208 ,1.43831 ,14.11273 
238 ,45.9920 ,1.20398 ,1.46227 ,14.34778 
239 ,46.1686 ,1.20582 ,1.44174 ,14.14631 
240 ,46.3606 ,1.20782 ,1.40067 ,13.74337 
241 ,46.5368 ,1.20954 ,1.39383 ,13.67621 
242 ,46.7448 ,1.21145 ,1.39383 ,13.67621 
243 ,46.9530 ,1.21368 ,1.37671 ,13.50832 
244 ,47.1449 ,1.21562 ,1.36645 ,13.40759 
245 ,47.3529 ,1.21766 ,1.34249 ,13.17254 
246 ,47.5450 ,1.21957 ,1.34934 ,13.23969 
247 ,47.7211 ,1.22136 ,1.31854 ,12.93749 
248 ,47.9134 ,1.22321 ,1.30827 ,12.83675 
249 ,48.1052 ,1.22518 ,1.29116 ,12.66886 
250 ,48.3299 ,1.22725 ,1.27405 ,12.50097 
251 ,48.5372 ,1.22943 ,1.24325 ,12.19877 
252 ,48.7138 ,1.23130 ,1.25009 ,12.26592 
253 ,48.9055 ,1.23314 ,1.24325 ,12.19877 
254 ,49.0978 ,1.23505 ,1.22614 ,12.03088 
255 ,49.2898 ,1.23695 ,1.22956 ,12.06445 
256 ,49.4657 ,1.23878 ,1.19876 ,11.76225 
257 ,49.6421 ,1.24057 ,1.18165 ,11.59436 
258 ,49.8341 ,1.24241 ,1.17138 ,11.49362 
259 ,50.0263 ,1.24436 ,1.17138 ,11.49362 
260 ,50.2182 ,1.24630 ,1.14401 ,11.22500 
261 ,50.3943 ,1.24803 ,1.12690 ,11.05710 
262 ,50.5705 ,1.24980 ,1.14058 ,11.19142 
263 ,50.7785 ,1.25194 ,1.10294 ,10.82206 
264 ,50.9706 ,1.25382 ,1.09610 ,10.75490 
265 ,51.1466 ,1.25561 ,1.10979 ,10.88921 
266 ,51.3388 ,1.25754 ,1.07899 ,10.58701 
267 ,51.5311 ,1.25940 ,1.07556 ,10.55343 
268 ,51.7390 ,1.26149 ,1.03450 ,10.15049 
269 ,51.9312 ,1.26341 ,1.05161 ,10.31838 
270 ,52.1391 ,1.26538 ,1.02081 ,10.01618 
271 ,52.3312 ,1.26740 ,1.01396 ,9.94902 
272 ,52.5231 ,1.26927 ,0.99343 ,9.74755 
273 ,52.7312 ,1.27135 ,0.99685 ,9.78113 
274 ,52.9074 ,1.27320 ,0.99001 ,9.71397 
275 ,53.1153 ,1.27524 ,0.94894 ,9.31103 
276 ,53.3237 ,1.27736 ,0.94552 ,9.27745 
277 ,53.5473 ,1.27947 ,0.93868 ,9.21030 
278 ,53.7556 ,1.28160 ,0.92841 ,9.10956 
279 ,53.9640 ,1.28370 ,0.90788 ,8.90809 
280 ,54.1558 ,1.28559 ,0.88392 ,8.67305 
281 ,54.3639 ,1.28769 ,0.87708 ,8.60589 
282 ,54.5400 ,1.28953 ,0.85654 ,8.40442 
283 ,54.7320 ,1.29135 ,0.86681 ,8.50515 
284 ,54.9082 ,1.29320 ,0.85997 ,8.43800 
285 ,55.1000 ,1.29507 ,0.81548 ,8.00148 
286 ,55.3084 ,1.29720 ,0.83601 ,8.20295 
287 ,55.5005 ,1.29909 ,0.80179 ,7.86717 
288 ,55.6926 ,1.30099 ,0.80863 ,7.93432 
289 ,55.8847 ,1.30292 ,0.77784 ,7.63212 
290 ,56.0928 ,1.30498 ,0.77784 ,7.63212 
291 ,56.2849 ,1.30689 ,0.76415 ,7.49780 
292 ,56.4930 ,1.30897 ,0.74704 ,7.32991 
293 ,56.7009 ,1.31110 ,0.72992 ,7.16202 
294 ,56.8606 ,1.31284 ,0.71624 ,7.02771 
295 ,57.0533 ,1.31458 ,0.71966 ,7.06129 
296 ,57.2612 ,1.31668 ,0.68201 ,6.69193 
297 ,57.4532 ,1.31856 ,0.68544 ,6.72550 
298 ,57.6293 ,1.32039 ,0.67175 ,6.59119 
299 ,57.8217 ,1.32227 ,0.65806 ,6.45688 
300 ,58.0135 ,1.32413 ,0.65121 ,6.38972 
301 ,58.2056 ,1.32608 ,0.65121 ,6.38972 
302 ,58.3977 ,1.32799 ,0.61699 ,6.05394 
303 ,58.5898 ,1.32998 ,0.63410 ,6.22183 
304 ,58.7977 ,1.33194 ,0.60330 ,5.91962 
305 ,58.9895 ,1.33391 ,0.59646 ,5.85247 
306 ,59.1820 ,1.33588 ,0.58277 ,5.71815 
307 ,59.3901 ,1.33796 ,0.57593 ,5.65100 
308 ,59.6141 ,1.34019 ,0.55539 ,5.44953 
309 ,59.8062 ,1.34207 ,0.53828 ,5.28164 
310 ,60.0143 ,1.34419 ,0.53144 ,5.21448 
311 ,60.2064 ,1.34608 ,0.52802 ,5.18090 
312 ,60.4306 ,1.34822 ,0.51433 ,5.04659 
313 ,60.6226 ,1.35027 ,0.49380 ,4.84512 
314 ,60.7987 ,1.35207 ,0.47326 ,4.64365 
315 ,60.9748 ,1.35392 ,0.48011 ,4.71081 
316 ,61.1505 ,1.35561 ,0.47326 ,4.64365 
317 ,61.3427 ,1.35749 ,0.45273 ,4.44218 
318 ,61.5350 ,1.35945 ,0.44588 ,4.37502 
319 ,61.7431 ,1.36147 ,0.41851 ,4.10640 
320 ,61.9670 ,1.36362 ,0.42535 ,4.17355 
321 ,62.1431 ,1.36553 ,0.40140 ,3.93850 
322 ,62.3350 ,1.36733 ,0.39455 ,3.87135 
323 ,62.5273 ,1.36929 ,0.38429 ,3.77061 
324 ,62.7036 ,1.37111 ,0.37060 ,3.63630 
325 ,62.9115 ,1.37325 ,0.35691 ,3.50199 
326 ,63.0877 ,1.37499 ,0.36033 ,3.53557 
327 ,63.2955 ,1.37698 ,0.32269 ,3.16620 
328 ,63.4877 ,1.37895 ,0.33638 ,3.30052 
329 ,63.6799 ,1.38087 ,0.30900 ,3.03189 
330 ,63.8719 ,1.38273 ,0.30900 ,3.03189 
331 ,64.0479 ,1.38458 ,0.29189 ,2.86400 
332 ,64.2401 ,1.38649 ,0.28162 ,2.76326 
333 ,64.4319 ,1.38835 ,0.28504 ,2.79684 
334 ,64.6403 ,1.39033 ,0.25424 ,2.49464 
335 ,64.8485 ,1.39246 ,0.25424 ,2.49464 
336 ,65.0405 ,1.39446 ,0.22687 ,2.22601 
337 ,65.2327 ,1.39640 ,0.23371 ,2.29317 
338 ,65.4406 ,1.39841 ,0.20291 ,1.99096 
339 ,65.6327 ,1.40036 ,0.22002 ,2.15885 
340 ,65.8407 ,1.40245 ,0.18922 ,1.85665 
341 ,66.0329 ,1.40433 ,0.19607 ,1.92381 
342 ,66.2248 ,1.40625 ,0.18238 ,1.78949 
343 ,66.4330 ,1.40832 ,0.18238 ,1.78949 
344 ,66.6247 ,1.41023 ,0.14131 ,1.38655 
345 ,66.8173 ,1.41218 ,0.15842 ,1.55445 
346 ,67.0250 ,1.41424 ,0.12420 ,1.21866 
347 ,67.2175 ,1.41621 ,0.12420 ,1.21866 
348 ,67.4254 ,1.41826 ,0.11051 ,1.08435 
349 ,67.6016 ,1.42010 ,0.08314 ,0.81572 
350 ,67.7937 ,1.42195 ,0.09682 ,0.95004 
351 ,67.9856 ,1.42390 ,0.07287 ,0.71499 
352 ,68.1777 ,1.42577 ,0.06260 ,0.61425 
353 ,68.3700 ,1.42768 ,0.06945 ,0.68141 
354 ,68.5620 ,1.42967 ,0.04549 ,0.44636 
355 ,68.7537 ,1.43158 ,0.03865 ,0.37920 
356 ,68.9459 ,1.43345 ,0.02154 ,0.21131 
357 ,69.1383 ,1.43534 ,0.02154 ,0.21131 
358 ,69.3304 ,1.43733 ,0.02154 ,0.21131 
359 ,69.5379 ,1.43935 ,0.00100 ,0.00984 
360 ,69.7140 ,1.44117 ,0.00100 ,0.00984 
361 ,69.8899 ,1.44302 ,-0.02637 ,-0.25878 
362 ,70.0824 ,1.44483 ,-0.02637 ,-0.25878 
363 ,70.3064 ,1.44700 ,-0.02980 ,-0.29236 
364 ,70.5146 ,1.44913 ,-0.03664 ,-0.35952 
365 ,70.7068 ,1.45104 ,-0.06060 ,-0.59457 
366 ,70.8985 ,1.45301 ,-0.07086 ,-0.69530 
367 ,71.0904 ,1.45496 ,-0.09140 ,-0.89677 
368 ,71.2825 ,1.45681 ,-0.10851 ,-1.06466 
369 ,71.4748 ,1.45872 ,-0.09482 ,-0.93035 
370 ,71.6990 ,1.46102 ,-0.11193 ,-1.09824 
371 ,71.8912 ,1.46298 ,-0.11535 ,-1.13182 
372 ,72.0832 ,1.46479 ,-0.15299 ,-1.50118 
373 ,72.2753 ,1.46672 ,-0.13931 ,-1.36687 
374 ,72.4833 ,1.46881 ,-0.16326 ,-1.60191 
375 ,72.6756 ,1.47070 ,-0.15299 ,-1.50118 
376 ,72.8676 ,1.47264 ,-0.16668 ,-1.63549 
377 ,73.0754 ,1.47474 ,-0.16668 ,-1.63549 
378 ,73.2679 ,1.47668 ,-0.18379 ,-1.80338 
379 ,73.4758 ,1.47875 ,-0.19406 ,-1.90412 
380 ,73.6840 ,1.48083 ,-0.21802 ,-2.13917 
381 ,73.8758 ,1.48274 ,-0.21117 ,-2.07201 
382 ,74.0681 ,1.48467 ,-0.23513 ,-2.30706 
383 ,74.2602 ,1.48662 ,-0.24197 ,-2.37422 
384 ,74.4683 ,1.48865 ,-0.24881 ,-2.44137 
385 ,74.6443 ,1.49045 ,-0.25566 ,-2.50853 
386 ,74.8365 ,1.49233 ,-0.25566 ,-2.50853 
387 ,75.0445 ,1.49443 ,-0.28646 ,-2.81073 
388 ,75.2364 ,1.49634 ,-0.28646 ,-2.81073 
389 ,75.4285 ,1.49832 ,-0.28988 ,-2.84431 
390 ,75.6208 ,1.50023 ,-0.31726 ,-3.11294 
391 ,75.8290 ,1.50232 ,-0.31384 ,-3.07936 
392 ,76.0367 ,1.50434 ,-0.31384 ,-3.07936 
393 ,76.2293 ,1.50628 ,-0.34121 ,-3.34799 
394 ,76.4211 ,1.50828 ,-0.34121 ,-3.34799 
395 ,76.6293 ,1.51016 ,-0.35148 ,-3.44872 
396 ,76.8371 ,1.51227 ,-0.35832 ,-3.51588 
397 ,77.0295 ,1.51431 ,-0.37886 ,-3.71735 
398 ,77.2374 ,1.51637 ,-0.38228 ,-3.75093 
399 ,77.4290 ,1.51831 ,-0.39255 ,-3.85166 
400 ,77.6215 ,1.52017 ,-0.40623 ,-3.98597 
401 ,77.8136 ,1.52221 ,-0.42677 ,-4.18744 
402 ,78.0054 ,1.52406 ,-0.43361 ,-4.25460 
403 ,78.1976 ,1.52596 ,-0.43019 ,-4.22102 
404 ,78.3898 ,1.52782 ,-0.44730 ,-4.38891 
405 ,78.5819 ,1.52976 ,-0.46441 ,-4.55681 
406 ,78.7581 ,1.53164 ,-0.45414 ,-4.45607 
407 ,78.9660 ,1.53365 ,-0.46783 ,-4.59038 
408 ,79.1581 ,1.53554 ,-0.46783 ,-4.59038 
409 ,79.3501 ,1.53747 ,-0.47810 ,-4.69112 
410 ,79.5262 ,1.53928 ,-0.50890 ,-4.99332 
411 ,79.7023 ,1.54107 ,-0.49179 ,-4.82543 
412 ,79.8945 ,1.54293 ,-0.50206 ,-4.92617 
413 ,80.0865 ,1.54485 ,-0.52943 ,-5.19479 
414 ,80.2627 ,1.54664 ,-0.53970 ,-5.29553 
415 ,80.4547 ,1.54854 ,-0.52601 ,-5.16121 
416 ,80.6465 ,1.55046 ,-0.55681 ,-5.46342 
417 ,80.8388 ,1.55237 ,-0.56365 ,-5.53058 
418 ,81.0311 ,1.55431 ,-0.55681 ,-5.46342 
419 ,81.2231 ,1.55622 ,-0.58077 ,-5.69847 
420 ,81.4310 ,1.55827 ,-0.59788 ,-5.86636 
421 ,81.6230 ,1.56017 ,-0.60472 ,-5.93352 
422 ,81.8146 ,1.56222 ,-0.60472 ,-5.93352 
423 ,82.0234 ,1.56410 ,-0.60472 ,-5.93352 
424 ,82.2315 ,1.56628 ,-0.61841 ,-6.06783 
425 ,82.4237 ,1.56821 ,-0.63552 ,-6.23572 
426 ,82.6155 ,1.57015 ,-0.63894 ,-6.26930 
427 ,82.8077 ,1.57200 ,-0.66290 ,-6.50435 
428 ,83.0316 ,1.57418 ,-0.66290 ,-6.50435 
429 ,83.2237 ,1.57620 ,-0.66632 ,-6.53793 
430 ,83.3998 ,1.57801 ,-0.68001 ,-6.67224 
431 ,83.5919 ,1.57983 ,-0.69027 ,-6.77297 
432 ,83.7839 ,1.58178 ,-0.70396 ,-6.90729 
433 ,83.9597 ,1.58366 ,-0.68343 ,-6.70582 
434 ,84.1521 ,1.58547 ,-0.69370 ,-6.80655 
435 ,84.3603 ,1.58757 ,-0.71765 ,-7.04160 
436 ,84.5523 ,1.58949 ,-0.73818 ,-7.24307 
437 ,84.7441 ,1.59140 ,-0.74161 ,-7.27665 
438 ,84.9365 ,1.59333 ,-0.73818 ,-7.24307 
439 ,85.1125 ,1.59518 ,-0.76898 ,-7.54527 
440 ,85.2886 ,1.59691 ,-0.77241 ,-7.57885 
441 ,85.4966 ,1.59885 ,-0.76556 ,-7.51170 
442 ,85.6728 ,1.60072 ,-0.79294 ,-7.78032 
443 ,85.8648 ,1.60263 ,-0.79978 ,-7.84748 
444 ,86.0410 ,1.60443 ,-0.79978 ,-7.84748 
445 ,86.2330 ,1.60637 ,-0.81347 ,-7.98179 
446 ,86.4252 ,1.60819 ,-0.82032 ,-8.04895 
447 ,86.6334 ,1.61013 ,-0.81689 ,-8.01537 
448 ,86.8413 ,1.61236 ,-0.82032 ,-8.04895 
449 ,87.0335 ,1.61427 ,-0.84427 ,-8.28400 
450 ,87.2250 ,1.61618 ,-0.86481 ,-8.48547 
451 ,87.4336 ,1.61819 ,-0.85112 ,-8.35115 
452 ,87.6416 ,1.62035 ,-0.87507 ,-8.58620 
453 ,87.8656 ,1.62264 ,-0.89218 ,-8.75409 
454 ,88.0737 ,1.62465 ,-0.88192 ,-8.65336 
455 ,88.2657 ,1.62656 ,-0.90929 ,-8.92198 
456 ,88.4259 ,1.62834 ,-0.90587 ,-8.88841 
457 ,88.6340 ,1.63016 ,-0.91272 ,-8.95556 
458 ,88.8262 ,1.63223 ,-0.92983 ,-9.12345 
459 ,89.0181 ,1.63414 ,-0.92298 ,-9.05630 
460 ,89.2261 ,1.63615 ,-0.94351 ,-9.25777 
461 ,89.4019 ,1.63805 ,-0.93325 ,-9.15703 
462 ,89.6105 ,1.63993 ,-0.95036 ,-9.32492 
463 ,89.8184 ,1.64207 ,-0.95720 ,-9.39208 
