Data stamp = , 26-04-2022 12:36:16 168

Calibration Values: 
Slope = , 26.54 , g/V 
Offset Voltage at no contact = , -0.501760 , V 

No , Time , Stage Position ,   Mass , Force 
   ,  (s) ,      (mm)      ,   (g)  , (mN)  

1 ,0.0000 ,0.74939 ,5.28483 ,51.85474 
2 ,0.2737 ,0.74958 ,5.28483 ,51.85474 
3 ,0.7221 ,0.75112 ,5.27456 ,51.75401 
4 ,0.9142 ,0.75331 ,5.28141 ,51.82116 
5 ,1.1063 ,0.75515 ,5.28825 ,51.88832 
6 ,1.2825 ,0.75689 ,5.30194 ,52.02263 
7 ,1.4907 ,0.75893 ,5.30536 ,52.05621 
8 ,1.6985 ,0.76112 ,5.27456 ,51.75401 
9 ,1.9069 ,0.76309 ,5.25061 ,51.51896 
10 ,2.1149 ,0.76523 ,5.24376 ,51.45180 
11 ,2.3068 ,0.76720 ,5.23350 ,51.35107 
12 ,2.4829 ,0.76895 ,5.21639 ,51.18317 
13 ,2.6753 ,0.77080 ,5.19585 ,50.98170 
14 ,2.8673 ,0.77272 ,5.19585 ,50.98170 
15 ,3.0433 ,0.77450 ,5.17190 ,50.74666 
16 ,3.2353 ,0.77640 ,5.13083 ,50.34372 
17 ,3.4272 ,0.77833 ,5.13768 ,50.41087 
18 ,3.6196 ,0.78030 ,5.11030 ,50.14225 
19 ,3.8117 ,0.78220 ,5.10003 ,50.04151 
20 ,3.9873 ,0.78408 ,5.06923 ,49.73931 
21 ,4.1638 ,0.78581 ,5.06239 ,49.67215 
22 ,4.3399 ,0.78750 ,5.04185 ,49.47068 
23 ,4.5155 ,0.78935 ,5.01790 ,49.23563 
24 ,4.7079 ,0.79110 ,5.00421 ,49.10132 
25 ,4.9160 ,0.79317 ,4.96999 ,48.76554 
26 ,5.0921 ,0.79505 ,4.96999 ,48.76554 
27 ,5.2841 ,0.79688 ,4.95288 ,48.59764 
28 ,5.4919 ,0.79894 ,4.92550 ,48.32902 
29 ,5.6843 ,0.80091 ,4.91523 ,48.22828 
30 ,5.8766 ,0.80287 ,4.88101 ,47.89250 
31 ,6.0843 ,0.80488 ,4.87759 ,47.85892 
32 ,6.2766 ,0.80682 ,4.84679 ,47.55672 
33 ,6.4526 ,0.80861 ,4.82968 ,47.38883 
34 ,6.6285 ,0.81036 ,4.82626 ,47.35525 
35 ,6.8206 ,0.81227 ,4.78861 ,46.98589 
36 ,7.0126 ,0.81422 ,4.77835 ,46.88515 
37 ,7.1886 ,0.81603 ,4.78177 ,46.91873 
38 ,7.3810 ,0.81795 ,4.74070 ,46.51579 
39 ,7.5728 ,0.81979 ,4.73386 ,46.44863 
40 ,7.7812 ,0.82187 ,4.71333 ,46.24716 
41 ,7.9890 ,0.82394 ,4.69279 ,46.04569 
42 ,8.1814 ,0.82585 ,4.65857 ,45.70991 
43 ,8.3733 ,0.82778 ,4.65173 ,45.64275 
44 ,8.5491 ,0.82964 ,4.64146 ,45.54202 
45 ,8.7412 ,0.83143 ,4.60724 ,45.20624 
46 ,8.9337 ,0.83336 ,4.60382 ,45.17266 
47 ,9.1416 ,0.83547 ,4.57302 ,44.87045 
48 ,9.3337 ,0.83735 ,4.55933 ,44.73614 
49 ,9.5256 ,0.83926 ,4.54906 ,44.63541 
50 ,9.7180 ,0.84129 ,4.51826 ,44.33320 
51 ,9.9097 ,0.84314 ,4.51484 ,44.29962 
52 ,10.1022 ,0.84503 ,4.48746 ,44.03100 
53 ,10.2938 ,0.84697 ,4.47720 ,43.93026 
54 ,10.4702 ,0.84884 ,4.46009 ,43.76237 
55 ,10.6463 ,0.85060 ,4.44640 ,43.62806 
56 ,10.8384 ,0.85248 ,4.41560 ,43.32585 
57 ,10.9982 ,0.85423 ,4.39507 ,43.12438 
58 ,11.1744 ,0.85583 ,4.39507 ,43.12438 
59 ,11.3666 ,0.85766 ,4.39164 ,43.09080 
60 ,11.5587 ,0.85965 ,4.34716 ,42.65429 
61 ,11.7668 ,0.86166 ,4.33689 ,42.55355 
62 ,11.9589 ,0.86365 ,4.31293 ,42.31850 
63 ,12.1669 ,0.86580 ,4.31978 ,42.38566 
64 ,12.3590 ,0.86768 ,4.27529 ,41.94914 
65 ,12.5670 ,0.86972 ,4.26845 ,41.88198 
66 ,12.7592 ,0.87156 ,4.24449 ,41.64694 
67 ,12.9512 ,0.87357 ,4.23422 ,41.54620 
68 ,13.1269 ,0.87534 ,4.22738 ,41.47905 
69 ,13.3194 ,0.87723 ,4.20000 ,41.21042 
70 ,13.5112 ,0.87920 ,4.18974 ,41.10968 
71 ,13.7034 ,0.88105 ,4.15209 ,40.74032 
72 ,13.8958 ,0.88299 ,4.14525 ,40.67317 
73 ,14.0878 ,0.88493 ,4.13498 ,40.57243 
74 ,14.2797 ,0.88682 ,4.09734 ,40.20307 
75 ,14.4555 ,0.88870 ,4.08707 ,40.10233 
76 ,14.6478 ,0.89051 ,4.06996 ,39.93444 
77 ,14.8401 ,0.89245 ,4.04943 ,39.73297 
78 ,15.0476 ,0.89450 ,4.03574 ,39.59866 
79 ,15.2398 ,0.89643 ,4.01178 ,39.36361 
80 ,15.4318 ,0.89834 ,4.00152 ,39.26288 
81 ,15.6241 ,0.90026 ,3.97756 ,39.02783 
82 ,15.8643 ,0.90262 ,3.98098 ,39.06141 
83 ,16.0565 ,0.90459 ,3.94334 ,38.69205 
84 ,16.2647 ,0.90669 ,3.92281 ,38.49058 
85 ,16.4407 ,0.90854 ,3.91254 ,38.38984 
86 ,16.6326 ,0.91030 ,3.90227 ,38.28911 
87 ,16.8408 ,0.91240 ,3.86121 ,37.88617 
88 ,17.0328 ,0.91431 ,3.84410 ,37.71828 
89 ,17.2407 ,0.91641 ,3.83725 ,37.65112 
90 ,17.4171 ,0.91825 ,3.82014 ,37.48323 
91 ,17.6250 ,0.92016 ,3.82014 ,37.48323 
92 ,17.8329 ,0.92237 ,3.78934 ,37.18102 
93 ,18.0256 ,0.92419 ,3.77565 ,37.04671 
94 ,18.2175 ,0.92626 ,3.73459 ,36.64377 
95 ,18.4257 ,0.92832 ,3.71748 ,36.47588 
96 ,18.6336 ,0.93030 ,3.71748 ,36.47588 
97 ,18.8257 ,0.93225 ,3.69352 ,36.24083 
98 ,19.0019 ,0.93409 ,3.67641 ,36.07294 
99 ,19.1939 ,0.93595 ,3.66614 ,35.97220 
100 ,19.4021 ,0.93801 ,3.63534 ,35.67000 
101 ,19.5940 ,0.93993 ,3.62508 ,35.56926 
102 ,19.7862 ,0.94195 ,3.60797 ,35.40137 
103 ,19.9941 ,0.94391 ,3.60454 ,35.36779 
104 ,20.1864 ,0.94582 ,3.56006 ,34.93128 
105 ,20.3786 ,0.94780 ,3.55663 ,34.89770 
106 ,20.5704 ,0.94971 ,3.54295 ,34.76338 
107 ,20.7460 ,0.95152 ,3.53268 ,34.66265 
108 ,20.9545 ,0.95345 ,3.50530 ,34.39402 
109 ,21.1467 ,0.95546 ,3.49161 ,34.25971 
110 ,21.3225 ,0.95735 ,3.47108 ,34.05824 
111 ,21.5146 ,0.95919 ,3.44713 ,33.82319 
112 ,21.6909 ,0.96097 ,3.45397 ,33.89035 
113 ,21.8829 ,0.96283 ,3.41975 ,33.55457 
114 ,22.0591 ,0.96467 ,3.40948 ,33.45383 
115 ,22.2508 ,0.96649 ,3.39921 ,33.35310 
116 ,22.4593 ,0.96862 ,3.36499 ,33.01731 
117 ,22.6515 ,0.97053 ,3.36842 ,33.05089 
118 ,22.8591 ,0.97258 ,3.33762 ,32.74869 
119 ,23.0515 ,0.97451 ,3.32051 ,32.58080 
120 ,23.2596 ,0.97661 ,3.29313 ,32.31217 
121 ,23.4517 ,0.97850 ,3.29655 ,32.34575 
122 ,23.6436 ,0.98040 ,3.27944 ,32.17786 
123 ,23.8358 ,0.98229 ,3.26233 ,32.00996 
124 ,24.0116 ,0.98421 ,3.23837 ,31.77492 
125 ,24.1877 ,0.98598 ,3.23153 ,31.70776 
126 ,24.3960 ,0.98790 ,3.21784 ,31.57345 
127 ,24.5716 ,0.98978 ,3.19731 ,31.37198 
128 ,24.7481 ,0.99155 ,3.18020 ,31.20409 
129 ,24.9242 ,0.99332 ,3.13913 ,30.80115 
130 ,25.1160 ,0.99519 ,3.13571 ,30.76757 
131 ,25.2922 ,0.99695 ,3.12544 ,30.66683 
132 ,25.4840 ,0.99879 ,3.09122 ,30.33105 
133 ,25.6924 ,1.00093 ,3.10833 ,30.49894 
134 ,25.8845 ,1.00286 ,3.07069 ,30.12958 
135 ,26.0767 ,1.00481 ,3.06042 ,30.02884 
136 ,26.2848 ,1.00688 ,3.02620 ,29.69306 
137 ,26.4925 ,1.00891 ,3.01935 ,29.62590 
138 ,26.6849 ,1.01086 ,2.98855 ,29.32370 
139 ,26.8927 ,1.01293 ,2.97144 ,29.15581 
140 ,27.0851 ,1.01484 ,2.95433 ,28.98792 
141 ,27.2767 ,1.01678 ,2.94064 ,28.85360 
142 ,27.4529 ,1.01860 ,2.95091 ,28.95434 
143 ,27.6451 ,1.02041 ,2.92696 ,28.71929 
144 ,27.8374 ,1.02242 ,2.89273 ,28.38351 
145 ,28.0453 ,1.02443 ,2.88931 ,28.34993 
146 ,28.2374 ,1.02640 ,2.85851 ,28.04772 
147 ,28.4292 ,1.02829 ,2.86536 ,28.11488 
148 ,28.6377 ,1.03029 ,2.83114 ,27.77910 
149 ,28.8296 ,1.03228 ,2.82429 ,27.71194 
150 ,29.0058 ,1.03411 ,2.80376 ,27.51047 
151 ,29.1977 ,1.03605 ,2.78322 ,27.30900 
152 ,29.4056 ,1.03803 ,2.76611 ,27.14111 
153 ,29.5980 ,1.03997 ,2.74216 ,26.90606 
154 ,29.8063 ,1.04201 ,2.72163 ,26.70459 
155 ,29.9982 ,1.04393 ,2.71820 ,26.67101 
156 ,30.1742 ,1.04578 ,2.70794 ,26.57028 
157 ,30.3501 ,1.04752 ,2.70109 ,26.50312 
158 ,30.5260 ,1.04935 ,2.64634 ,25.96587 
159 ,30.7184 ,1.05115 ,2.65660 ,26.06661 
160 ,30.9106 ,1.05307 ,2.64634 ,25.96587 
161 ,31.1185 ,1.05517 ,2.62238 ,25.73082 
162 ,31.3268 ,1.05714 ,2.61554 ,25.66367 
163 ,31.5183 ,1.05919 ,2.56763 ,25.19357 
164 ,31.7108 ,1.06109 ,2.57105 ,25.22715 
165 ,31.9190 ,1.06308 ,2.55052 ,25.02568 
166 ,32.1111 ,1.06509 ,2.54367 ,24.95852 
167 ,32.3190 ,1.06716 ,2.50603 ,24.58916 
168 ,32.4953 ,1.06900 ,2.50261 ,24.55558 
169 ,32.6869 ,1.07087 ,2.50603 ,24.58916 
170 ,32.8796 ,1.07276 ,2.46154 ,24.15264 
171 ,33.0873 ,1.07486 ,2.46154 ,24.15264 
172 ,33.2798 ,1.07678 ,2.43759 ,23.91759 
173 ,33.4719 ,1.07866 ,2.43759 ,23.91759 
174 ,33.6636 ,1.08057 ,2.39652 ,23.51465 
175 ,33.8560 ,1.08250 ,2.39310 ,23.48108 
176 ,34.0640 ,1.08463 ,2.36230 ,23.17887 
177 ,34.2561 ,1.08651 ,2.35888 ,23.14529 
178 ,34.4642 ,1.08860 ,2.32465 ,22.80951 
179 ,34.6722 ,1.09062 ,2.32123 ,22.77593 
180 ,34.8478 ,1.09254 ,2.29385 ,22.50731 
181 ,35.0404 ,1.09438 ,2.28017 ,22.37299 
182 ,35.2484 ,1.09642 ,2.26990 ,22.27226 
183 ,35.4244 ,1.09824 ,2.24937 ,22.07079 
184 ,35.6168 ,1.10015 ,2.24252 ,22.00363 
185 ,35.8247 ,1.10216 ,2.21515 ,21.73500 
186 ,36.0167 ,1.10413 ,2.20488 ,21.63427 
187 ,36.2088 ,1.10604 ,2.19461 ,21.53353 
188 ,36.3849 ,1.10784 ,2.18435 ,21.43280 
189 ,36.5770 ,1.10971 ,2.15355 ,21.13059 
190 ,36.7527 ,1.11149 ,2.14328 ,21.02986 
191 ,36.9289 ,1.11334 ,2.12617 ,20.86197 
192 ,37.1211 ,1.11519 ,2.10564 ,20.66050 
193 ,37.3292 ,1.11725 ,2.10221 ,20.62692 
194 ,37.5209 ,1.11923 ,2.08168 ,20.42545 
195 ,37.7132 ,1.12105 ,2.07141 ,20.32472 
196 ,37.9054 ,1.12296 ,2.03719 ,19.98893 
197 ,38.0972 ,1.12493 ,2.03377 ,19.95535 
198 ,38.2897 ,1.12685 ,2.03035 ,19.92178 
199 ,38.4978 ,1.12889 ,2.02008 ,19.82104 
200 ,38.6898 ,1.13086 ,2.00297 ,19.65315 
201 ,38.8817 ,1.13281 ,1.97217 ,19.35094 
202 ,39.0740 ,1.13465 ,1.96533 ,19.28379 
203 ,39.2499 ,1.13654 ,1.94822 ,19.11590 
204 ,39.4422 ,1.13835 ,1.91742 ,18.81369 
205 ,39.6341 ,1.14032 ,1.91057 ,18.74654 
206 ,39.8103 ,1.14210 ,1.91057 ,18.74654 
207 ,40.0022 ,1.14393 ,1.87293 ,18.37717 
208 ,40.1944 ,1.14590 ,1.87293 ,18.37717 
209 ,40.4023 ,1.14794 ,1.85582 ,18.20928 
210 ,40.5785 ,1.14984 ,1.83871 ,18.04139 
211 ,40.7546 ,1.15151 ,1.81817 ,17.83992 
212 ,40.9307 ,1.15329 ,1.82160 ,17.87350 
213 ,41.1388 ,1.15529 ,1.78395 ,17.50414 
214 ,41.3305 ,1.15726 ,1.78053 ,17.47056 
215 ,41.5226 ,1.15917 ,1.76342 ,17.30267 
216 ,41.7149 ,1.16110 ,1.74973 ,17.16836 
217 ,41.8911 ,1.16287 ,1.74973 ,17.16836 
218 ,42.0832 ,1.16476 ,1.73604 ,17.03404 
219 ,42.2912 ,1.16683 ,1.71893 ,16.86615 
220 ,42.4672 ,1.16868 ,1.68129 ,16.49679 
221 ,42.6433 ,1.17040 ,1.68129 ,16.49679 
222 ,42.8515 ,1.17244 ,1.68129 ,16.49679 
223 ,43.0594 ,1.17453 ,1.66075 ,16.29532 
224 ,43.2518 ,1.17644 ,1.65049 ,16.19458 
225 ,43.4437 ,1.17830 ,1.63680 ,16.06027 
226 ,43.6358 ,1.18029 ,1.60600 ,15.75807 
227 ,43.8275 ,1.18224 ,1.60258 ,15.72449 
228 ,44.0196 ,1.18409 ,1.57520 ,15.45586 
229 ,44.1796 ,1.18587 ,1.56836 ,15.38871 
230 ,44.3562 ,1.18756 ,1.55124 ,15.22081 
231 ,44.5478 ,1.18945 ,1.56493 ,15.35513 
232 ,44.7563 ,1.19139 ,1.52045 ,14.91861 
233 ,44.9642 ,1.19358 ,1.52045 ,14.91861 
234 ,45.1405 ,1.19533 ,1.49649 ,14.68356 
235 ,45.3324 ,1.19732 ,1.49991 ,14.71714 
236 ,45.5242 ,1.19918 ,1.48280 ,14.54925 
237 ,45.7001 ,1.20095 ,1.46569 ,14.38136 
238 ,45.8928 ,1.20280 ,1.46227 ,14.34778 
239 ,46.0848 ,1.20477 ,1.44516 ,14.17989 
240 ,46.2927 ,1.20681 ,1.41436 ,13.87768 
241 ,46.4849 ,1.20879 ,1.42462 ,13.97842 
242 ,46.6610 ,1.21059 ,1.39383 ,13.67621 
243 ,46.8691 ,1.21261 ,1.38698 ,13.60906 
244 ,47.0613 ,1.21455 ,1.37671 ,13.50832 
245 ,47.2530 ,1.21648 ,1.34591 ,13.20612 
246 ,47.4453 ,1.21839 ,1.34591 ,13.20612 
247 ,47.6213 ,1.22015 ,1.34249 ,13.17254 
248 ,47.8131 ,1.22209 ,1.30827 ,12.83675 
249 ,48.0056 ,1.22391 ,1.31169 ,12.87033 
250 ,48.2136 ,1.22604 ,1.28089 ,12.56813 
251 ,48.3897 ,1.22786 ,1.28432 ,12.60171 
252 ,48.5818 ,1.22968 ,1.25352 ,12.29950 
253 ,48.7739 ,1.23161 ,1.24325 ,12.19877 
254 ,48.9495 ,1.23352 ,1.24325 ,12.19877 
255 ,49.1419 ,1.23528 ,1.21929 ,11.96372 
256 ,49.3339 ,1.23722 ,1.20903 ,11.86298 
257 ,49.5259 ,1.23920 ,1.20903 ,11.86298 
258 ,49.7182 ,1.24105 ,1.17823 ,11.56078 
259 ,49.9102 ,1.24303 ,1.17138 ,11.49362 
260 ,50.0864 ,1.24481 ,1.17481 ,11.52720 
261 ,50.2625 ,1.24656 ,1.15085 ,11.29215 
262 ,50.4544 ,1.24843 ,1.12690 ,11.05710 
263 ,50.6305 ,1.25025 ,1.11321 ,10.92279 
264 ,50.8065 ,1.25203 ,1.10636 ,10.85563 
265 ,50.9987 ,1.25394 ,1.08241 ,10.62059 
266 ,51.1905 ,1.25577 ,1.08583 ,10.65416 
267 ,51.3827 ,1.25773 ,1.06187 ,10.41912 
268 ,51.5908 ,1.25977 ,1.06530 ,10.45270 
269 ,51.7830 ,1.26170 ,1.04476 ,10.25123 
270 ,51.9750 ,1.26364 ,1.03450 ,10.15049 
271 ,52.1828 ,1.26568 ,1.02765 ,10.08333 
272 ,52.3752 ,1.26768 ,0.99685 ,9.78113 
273 ,52.5700 ,1.26962 ,0.99343 ,9.74755 
274 ,52.7755 ,1.27164 ,0.96263 ,9.44535 
275 ,52.9678 ,1.27360 ,0.95579 ,9.37819 
276 ,53.1597 ,1.27549 ,0.94210 ,9.24388 
277 ,53.3516 ,1.27740 ,0.93183 ,9.14314 
278 ,53.5437 ,1.27927 ,0.92499 ,9.07598 
279 ,53.7359 ,1.28128 ,0.90103 ,8.84094 
280 ,53.9279 ,1.28316 ,0.90788 ,8.90809 
281 ,54.1360 ,1.28519 ,0.87366 ,8.57231 
282 ,54.3277 ,1.28717 ,0.87708 ,8.60589 
283 ,54.5196 ,1.28903 ,0.85654 ,8.40442 
284 ,54.7120 ,1.29104 ,0.85997 ,8.43800 
285 ,54.9042 ,1.29288 ,0.84286 ,8.27011 
286 ,55.0963 ,1.29483 ,0.82232 ,8.06864 
287 ,55.2884 ,1.29682 ,0.81890 ,8.03506 
288 ,55.4805 ,1.29867 ,0.78810 ,7.73285 
289 ,55.6566 ,1.30049 ,0.77099 ,7.56496 
290 ,55.8647 ,1.30250 ,0.78126 ,7.66570 
291 ,56.0567 ,1.30445 ,0.74704 ,7.32991 
292 ,56.2487 ,1.30648 ,0.74704 ,7.32991 
293 ,56.4248 ,1.30821 ,0.74361 ,7.29633 
294 ,56.6490 ,1.31024 ,0.71624 ,7.02771 
295 ,56.8570 ,1.31246 ,0.69570 ,6.82624 
296 ,57.0491 ,1.31435 ,0.70939 ,6.96055 
297 ,57.2411 ,1.31625 ,0.68201 ,6.69193 
298 ,57.4173 ,1.31807 ,0.67175 ,6.59119 
299 ,57.6089 ,1.31992 ,0.67859 ,6.65835 
300 ,57.8174 ,1.32192 ,0.65464 ,6.42330 
301 ,58.0095 ,1.32399 ,0.64779 ,6.35614 
302 ,58.2015 ,1.32588 ,0.62384 ,6.12109 
303 ,58.3934 ,1.32783 ,0.61015 ,5.98678 
304 ,58.5695 ,1.32961 ,0.61699 ,6.05394 
305 ,58.7617 ,1.33145 ,0.58962 ,5.78531 
306 ,58.9539 ,1.33345 ,0.57935 ,5.68458 
307 ,59.1621 ,1.33547 ,0.55882 ,5.48311 
308 ,59.3541 ,1.33742 ,0.55197 ,5.41595 
309 ,59.5461 ,1.33935 ,0.55539 ,5.44953 
310 ,59.7378 ,1.34124 ,0.53486 ,5.24806 
311 ,59.9303 ,1.34317 ,0.52459 ,5.14732 
312 ,60.1222 ,1.34518 ,0.49380 ,4.84512 
313 ,60.3143 ,1.34697 ,0.48011 ,4.71081 
314 ,60.5224 ,1.34906 ,0.49037 ,4.81154 
315 ,60.7144 ,1.35099 ,0.46642 ,4.57649 
316 ,60.9066 ,1.35289 ,0.46984 ,4.61007 
317 ,61.1145 ,1.35500 ,0.44246 ,4.34144 
318 ,61.3066 ,1.35698 ,0.44588 ,4.37502 
319 ,61.4828 ,1.35872 ,0.43562 ,4.27429 
320 ,61.6751 ,1.36057 ,0.41509 ,4.07282 
321 ,61.8667 ,1.36263 ,0.39797 ,3.90493 
322 ,62.0592 ,1.36446 ,0.38771 ,3.80419 
323 ,62.2512 ,1.36639 ,0.39113 ,3.83777 
324 ,62.4432 ,1.36828 ,0.37744 ,3.70346 
325 ,62.6352 ,1.37015 ,0.36033 ,3.53557 
326 ,62.8113 ,1.37200 ,0.33980 ,3.33410 
327 ,62.9871 ,1.37376 ,0.33980 ,3.33410 
328 ,63.1796 ,1.37564 ,0.31242 ,3.06547 
329 ,63.3555 ,1.37743 ,0.29873 ,2.93116 
330 ,63.5316 ,1.37926 ,0.32611 ,3.19978 
331 ,63.7236 ,1.38103 ,0.30558 ,2.99831 
332 ,63.8996 ,1.38291 ,0.27820 ,2.72969 
333 ,64.1080 ,1.38490 ,0.28162 ,2.76326 
334 ,64.3159 ,1.38701 ,0.26109 ,2.56179 
335 ,64.5079 ,1.38892 ,0.26793 ,2.62895 
336 ,64.7000 ,1.39092 ,0.24055 ,2.36032 
337 ,64.8921 ,1.39284 ,0.22344 ,2.19243 
338 ,65.0842 ,1.39466 ,0.21660 ,2.12528 
339 ,65.2925 ,1.39678 ,0.20976 ,2.05812 
340 ,65.4845 ,1.39871 ,0.19949 ,1.95738 
341 ,65.6766 ,1.40061 ,0.17211 ,1.68876 
342 ,65.8687 ,1.40253 ,0.17896 ,1.75592 
343 ,66.0608 ,1.40446 ,0.16869 ,1.65518 
344 ,66.2690 ,1.40653 ,0.17211 ,1.68876 
345 ,66.4610 ,1.40848 ,0.14473 ,1.42013 
346 ,66.6526 ,1.41039 ,0.14131 ,1.38655 
347 ,66.8290 ,1.41218 ,0.13447 ,1.31940 
348 ,67.0372 ,1.41416 ,0.11051 ,1.08435 
349 ,67.2292 ,1.41612 ,0.10367 ,1.01719 
350 ,67.4373 ,1.41822 ,0.07971 ,0.78214 
351 ,67.6293 ,1.42014 ,0.07287 ,0.71499 
352 ,67.8215 ,1.42204 ,0.06602 ,0.64783 
353 ,68.0134 ,1.42394 ,0.06602 ,0.64783 
354 ,68.2375 ,1.42609 ,0.04549 ,0.44636 
355 ,68.4458 ,1.42829 ,0.03522 ,0.34563 
356 ,68.6378 ,1.43024 ,0.01127 ,0.11058 
357 ,68.8299 ,1.43218 ,0.00785 ,0.07700 
358 ,69.0378 ,1.43422 ,-0.00584 ,-0.05731 
359 ,69.2300 ,1.43614 ,0.00443 ,0.04342 
360 ,69.4222 ,1.43805 ,-0.00926 ,-0.09089 
361 ,69.6140 ,1.43995 ,-0.05033 ,-0.49383 
362 ,69.8062 ,1.44193 ,-0.03664 ,-0.35952 
363 ,69.9822 ,1.44368 ,-0.04348 ,-0.42667 
364 ,70.1744 ,1.44555 ,-0.04006 ,-0.39310 
365 ,70.3825 ,1.44763 ,-0.08455 ,-0.82961 
366 ,70.5580 ,1.44952 ,-0.09140 ,-0.89677 
367 ,70.7827 ,1.45155 ,-0.08455 ,-0.82961 
368 ,70.9907 ,1.45374 ,-0.09824 ,-0.96393 
369 ,71.1827 ,1.45563 ,-0.10508 ,-1.03108 
370 ,71.3907 ,1.45766 ,-0.11535 ,-1.13182 
371 ,71.5829 ,1.45965 ,-0.11877 ,-1.16540 
372 ,71.7911 ,1.46172 ,-0.13246 ,-1.29971 
373 ,71.9992 ,1.46384 ,-0.15642 ,-1.53476 
374 ,72.1913 ,1.46573 ,-0.14615 ,-1.43402 
375 ,72.3832 ,1.46764 ,-0.16326 ,-1.60191 
376 ,72.5593 ,1.46942 ,-0.18722 ,-1.83696 
377 ,72.7511 ,1.47129 ,-0.17695 ,-1.73623 
378 ,72.9435 ,1.47321 ,-0.20090 ,-1.97128 
379 ,73.1357 ,1.47513 ,-0.20433 ,-2.00485 
380 ,73.3277 ,1.47712 ,-0.20775 ,-2.03843 
381 ,73.5198 ,1.47892 ,-0.23170 ,-2.27348 
382 ,73.7279 ,1.48105 ,-0.23513 ,-2.30706 
383 ,73.9198 ,1.48311 ,-0.26935 ,-2.64284 
384 ,74.0961 ,1.48481 ,-0.25908 ,-2.54211 
385 ,74.2881 ,1.48672 ,-0.25908 ,-2.54211 
386 ,74.4802 ,1.48866 ,-0.28646 ,-2.81073 
387 ,74.6560 ,1.49041 ,-0.29330 ,-2.87789 
388 ,74.8322 ,1.49217 ,-0.28646 ,-2.81073 
389 ,75.0244 ,1.49401 ,-0.30699 ,-3.01220 
390 ,75.2321 ,1.49606 ,-0.30357 ,-2.97863 
391 ,75.4086 ,1.49796 ,-0.32068 ,-3.14652 
392 ,75.6000 ,1.49985 ,-0.33095 ,-3.24725 
393 ,75.7922 ,1.50169 ,-0.33437 ,-3.28083 
394 ,75.9683 ,1.50361 ,-0.35148 ,-3.44872 
395 ,76.1768 ,1.50548 ,-0.36517 ,-3.58303 
396 ,76.4010 ,1.50781 ,-0.38228 ,-3.75093 
397 ,76.6090 ,1.50985 ,-0.37544 ,-3.68377 
398 ,76.8009 ,1.51178 ,-0.40281 ,-3.95240 
399 ,76.9931 ,1.51372 ,-0.39939 ,-3.91882 
400 ,77.1852 ,1.51563 ,-0.40966 ,-4.01955 
401 ,77.3932 ,1.51771 ,-0.40623 ,-3.98597 
402 ,77.5852 ,1.51960 ,-0.43703 ,-4.28818 
403 ,77.7773 ,1.52159 ,-0.45072 ,-4.42249 
404 ,77.9696 ,1.52348 ,-0.43703 ,-4.28818 
405 ,78.1612 ,1.52549 ,-0.45072 ,-4.42249 
406 ,78.3377 ,1.52717 ,-0.47468 ,-4.65754 
407 ,78.5137 ,1.52896 ,-0.49521 ,-4.85901 
408 ,78.7219 ,1.53103 ,-0.49521 ,-4.85901 
409 ,78.9140 ,1.53291 ,-0.48837 ,-4.79185 
410 ,79.1058 ,1.53486 ,-0.49863 ,-4.89259 
411 ,79.2979 ,1.53674 ,-0.52259 ,-5.12764 
412 ,79.4742 ,1.53855 ,-0.51574 ,-5.06048 
413 ,79.6502 ,1.54046 ,-0.53970 ,-5.29553 
414 ,79.8584 ,1.54225 ,-0.54654 ,-5.36268 
415 ,80.0504 ,1.54431 ,-0.54312 ,-5.32911 
416 ,80.2423 ,1.54620 ,-0.56708 ,-5.56415 
417 ,80.4346 ,1.54813 ,-0.58077 ,-5.69847 
418 ,80.6263 ,1.55007 ,-0.56365 ,-5.53058 
419 ,80.8028 ,1.55187 ,-0.59103 ,-5.79920 
420 ,80.9948 ,1.55375 ,-0.59103 ,-5.79920 
421 ,81.2028 ,1.55582 ,-0.61841 ,-6.06783 
422 ,81.3946 ,1.55770 ,-0.61499 ,-6.03425 
423 ,81.5871 ,1.55967 ,-0.61841 ,-6.06783 
424 ,81.7951 ,1.56168 ,-0.62525 ,-6.13499 
425 ,81.9713 ,1.56353 ,-0.62868 ,-6.16856 
426 ,82.1792 ,1.56555 ,-0.65605 ,-6.43719 
427 ,82.3554 ,1.56740 ,-0.66290 ,-6.50435 
428 ,82.5474 ,1.56923 ,-0.67659 ,-6.63866 
429 ,82.7234 ,1.57103 ,-0.66974 ,-6.57150 
430 ,82.8995 ,1.57288 ,-0.68343 ,-6.70582 
431 ,83.0758 ,1.57460 ,-0.68343 ,-6.70582 
432 ,83.2678 ,1.57648 ,-0.69027 ,-6.77297 
433 ,83.4599 ,1.57836 ,-0.71423 ,-7.00802 
434 ,83.6519 ,1.58024 ,-0.72107 ,-7.07518 
435 ,83.8439 ,1.58224 ,-0.71765 ,-7.04160 
436 ,84.0361 ,1.58404 ,-0.74845 ,-7.34380 
437 ,84.2281 ,1.58607 ,-0.73476 ,-7.20949 
438 ,84.4042 ,1.58792 ,-0.75872 ,-7.44454 
439 ,84.5959 ,1.58974 ,-0.74845 ,-7.34380 
440 ,84.8044 ,1.59174 ,-0.76214 ,-7.47812 
441 ,85.0124 ,1.59385 ,-0.75872 ,-7.44454 
442 ,85.2046 ,1.59578 ,-0.80321 ,-7.88106 
443 ,85.4127 ,1.59786 ,-0.78610 ,-7.71317 
444 ,85.6045 ,1.59980 ,-0.81347 ,-7.98179 
445 ,85.7969 ,1.60174 ,-0.81347 ,-7.98179 
446 ,86.0049 ,1.60381 ,-0.83401 ,-8.18326 
447 ,86.2129 ,1.60589 ,-0.82374 ,-8.08253 
448 ,86.4210 ,1.60795 ,-0.84427 ,-8.28400 
449 ,86.6131 ,1.60987 ,-0.83743 ,-8.21684 
450 ,86.7886 ,1.61177 ,-0.86138 ,-8.45189 
451 ,86.9972 ,1.61378 ,-0.87165 ,-8.55262 
452 ,87.1894 ,1.61572 ,-0.87165 ,-8.55262 
453 ,87.3814 ,1.61760 ,-0.88876 ,-8.72051 
454 ,87.5731 ,1.61948 ,-0.87849 ,-8.61978 
455 ,87.7496 ,1.62131 ,-0.88876 ,-8.72051 
456 ,87.9415 ,1.62325 ,-0.90587 ,-8.88841 
457 ,88.1337 ,1.62507 ,-0.90929 ,-8.92198 
458 ,88.3418 ,1.62713 ,-0.93325 ,-9.15703 
459 ,88.5338 ,1.62907 ,-0.92640 ,-9.08988 
460 ,88.7259 ,1.63111 ,-0.95720 ,-9.39208 
461 ,88.9176 ,1.63289 ,-0.94694 ,-9.29135 
462 ,89.1099 ,1.63485 ,-0.95378 ,-9.35850 
