Data stamp = , 26-04-2022 06:56:19 720

Calibration Values: 
Slope = , 26.54 , g/V 
Offset Voltage at no contact = , -0.501760 , V 

No , Time , Stage Position ,   Mass , Force 
   ,  (s) ,      (mm)      ,   (g)  , (mN)  

1 ,0.0000 ,0.74945 ,5.20954 ,51.11602 
2 ,0.3021 ,0.74965 ,5.19927 ,51.01528 
3 ,0.6866 ,0.75108 ,5.18216 ,50.84739 
4 ,0.8945 ,0.75316 ,5.19585 ,50.98170 
5 ,1.0707 ,0.75497 ,5.19243 ,50.94813 
6 ,1.2789 ,0.75681 ,5.22323 ,51.25033 
7 ,1.4869 ,0.75904 ,5.20954 ,51.11602 
8 ,1.6626 ,0.76084 ,5.21981 ,51.21675 
9 ,1.8552 ,0.76272 ,5.19243 ,50.94813 
10 ,2.0632 ,0.76478 ,5.18216 ,50.84739 
11 ,2.2552 ,0.76675 ,5.15821 ,50.61234 
12 ,2.4472 ,0.76866 ,5.15136 ,50.54519 
13 ,2.6394 ,0.77061 ,5.13083 ,50.34372 
14 ,2.8316 ,0.77249 ,5.10688 ,50.10867 
15 ,3.0393 ,0.77455 ,5.10345 ,50.07509 
16 ,3.2317 ,0.77645 ,5.06239 ,49.67215 
17 ,3.4076 ,0.77829 ,5.04528 ,49.50426 
18 ,3.6001 ,0.78017 ,5.03159 ,49.36995 
19 ,3.7922 ,0.78214 ,4.99394 ,49.00058 
20 ,3.9841 ,0.78402 ,4.99052 ,48.96701 
21 ,4.1923 ,0.78609 ,4.98368 ,48.89985 
22 ,4.4006 ,0.78810 ,4.95288 ,48.59764 
23 ,4.5923 ,0.79007 ,4.94261 ,48.49691 
24 ,4.8005 ,0.79220 ,4.92208 ,48.29544 
25 ,5.0085 ,0.79422 ,4.89812 ,48.06039 
26 ,5.2000 ,0.79620 ,4.89470 ,48.02681 
27 ,5.4084 ,0.79820 ,4.84679 ,47.55672 
28 ,5.6167 ,0.80034 ,4.83995 ,47.48956 
29 ,5.8247 ,0.80244 ,4.82968 ,47.38883 
30 ,6.0004 ,0.80429 ,4.79888 ,47.08662 
31 ,6.1927 ,0.80609 ,4.79204 ,47.01946 
32 ,6.3689 ,0.80785 ,4.76808 ,46.78442 
33 ,6.5610 ,0.80973 ,4.76808 ,46.78442 
34 ,6.7371 ,0.81158 ,4.72702 ,46.38148 
35 ,6.9131 ,0.81332 ,4.70990 ,46.21359 
36 ,7.0888 ,0.81515 ,4.70648 ,46.18001 
37 ,7.2814 ,0.81696 ,4.68253 ,45.94496 
38 ,7.4735 ,0.81891 ,4.65857 ,45.70991 
39 ,7.6655 ,0.82082 ,4.66542 ,45.77707 
40 ,7.8576 ,0.82273 ,4.62093 ,45.34055 
41 ,8.0496 ,0.82460 ,4.61751 ,45.30697 
42 ,8.2254 ,0.82651 ,4.60040 ,45.13908 
43 ,8.4018 ,0.82823 ,4.59355 ,45.07192 
44 ,8.5778 ,0.82998 ,4.56617 ,44.80330 
45 ,8.7699 ,0.83180 ,4.55591 ,44.70256 
46 ,8.9460 ,0.83368 ,4.54564 ,44.60183 
47 ,9.1222 ,0.83546 ,4.53195 ,44.46751 
48 ,9.3143 ,0.83726 ,4.48746 ,44.03100 
49 ,9.4902 ,0.83914 ,4.47720 ,43.93026 
50 ,9.6661 ,0.84085 ,4.47720 ,43.93026 
51 ,9.8745 ,0.84290 ,4.44298 ,43.59448 
52 ,10.0826 ,0.84489 ,4.43271 ,43.49374 
53 ,10.2746 ,0.84690 ,4.39507 ,43.12438 
54 ,10.4667 ,0.84878 ,4.41560 ,43.32585 
55 ,10.6749 ,0.85089 ,4.36769 ,42.85576 
56 ,10.8670 ,0.85283 ,4.37111 ,42.88933 
57 ,11.0590 ,0.85478 ,4.33347 ,42.51997 
58 ,11.2670 ,0.85675 ,4.33347 ,42.51997 
59 ,11.4426 ,0.85865 ,4.31978 ,42.38566 
60 ,11.6353 ,0.86050 ,4.28898 ,42.08345 
61 ,11.8433 ,0.86254 ,4.28213 ,42.01630 
62 ,12.0354 ,0.86455 ,4.23765 ,41.57978 
63 ,12.2272 ,0.86640 ,4.25133 ,41.71409 
64 ,12.4193 ,0.86838 ,4.22738 ,41.47905 
65 ,12.6116 ,0.87022 ,4.18974 ,41.10968 
66 ,12.8033 ,0.87216 ,4.18631 ,41.07611 
67 ,12.9958 ,0.87407 ,4.15894 ,40.80748 
68 ,13.2039 ,0.87617 ,4.15551 ,40.77390 
69 ,13.3959 ,0.87819 ,4.13498 ,40.57243 
70 ,13.5715 ,0.87991 ,4.10760 ,40.30380 
71 ,13.7640 ,0.88178 ,4.11103 ,40.33738 
72 ,13.9561 ,0.88369 ,4.06654 ,39.90087 
73 ,14.1481 ,0.88558 ,4.08023 ,40.03518 
74 ,14.3881 ,0.88794 ,4.03232 ,39.56508 
75 ,14.5966 ,0.89011 ,4.01178 ,39.36361 
76 ,14.7884 ,0.89204 ,4.01178 ,39.36361 
77 ,14.9805 ,0.89393 ,3.98098 ,39.06141 
78 ,15.1726 ,0.89584 ,3.97414 ,38.99425 
79 ,15.3647 ,0.89778 ,3.96045 ,38.85994 
80 ,15.5570 ,0.89968 ,3.91938 ,38.45700 
81 ,15.7644 ,0.90175 ,3.91938 ,38.45700 
82 ,15.9570 ,0.90370 ,3.89201 ,38.18837 
83 ,16.1489 ,0.90559 ,3.88174 ,38.08764 
84 ,16.3412 ,0.90750 ,3.86121 ,37.88617 
85 ,16.5332 ,0.90947 ,3.84410 ,37.71828 
86 ,16.7092 ,0.91122 ,3.82699 ,37.55038 
87 ,16.9018 ,0.91309 ,3.80987 ,37.38249 
88 ,17.1094 ,0.91518 ,3.80303 ,37.31534 
89 ,17.3011 ,0.91717 ,3.77908 ,37.08029 
90 ,17.4930 ,0.91903 ,3.75170 ,36.81166 
91 ,17.6851 ,0.92097 ,3.74828 ,36.77808 
92 ,17.8774 ,0.92292 ,3.71405 ,36.44230 
93 ,18.0698 ,0.92480 ,3.71405 ,36.44230 
94 ,18.2459 ,0.92661 ,3.69010 ,36.20725 
95 ,18.4219 ,0.92840 ,3.67299 ,36.03936 
96 ,18.6141 ,0.93024 ,3.65246 ,35.83789 
97 ,18.8062 ,0.93221 ,3.64903 ,35.80431 
98 ,19.0139 ,0.93424 ,3.61139 ,35.43495 
99 ,19.2064 ,0.93612 ,3.61823 ,35.50211 
100 ,19.4145 ,0.93832 ,3.58059 ,35.13275 
101 ,19.6225 ,0.94036 ,3.56348 ,34.96485 
102 ,19.8144 ,0.94227 ,3.54295 ,34.76338 
103 ,20.0067 ,0.94422 ,3.54637 ,34.79696 
104 ,20.1827 ,0.94600 ,3.51899 ,34.52834 
105 ,20.3907 ,0.94801 ,3.50188 ,34.36045 
106 ,20.5827 ,0.95006 ,3.47108 ,34.05824 
107 ,20.7750 ,0.95193 ,3.46766 ,34.02466 
108 ,20.9669 ,0.95377 ,3.44370 ,33.78961 
109 ,21.1427 ,0.95563 ,3.41975 ,33.55457 
110 ,21.3352 ,0.95744 ,3.41290 ,33.48741 
111 ,21.5272 ,0.95935 ,3.40606 ,33.42025 
112 ,21.7034 ,0.96120 ,3.38210 ,33.18520 
113 ,21.8961 ,0.96307 ,3.35130 ,32.88300 
114 ,22.0876 ,0.96505 ,3.35130 ,32.88300 
115 ,22.2631 ,0.96683 ,3.32051 ,32.58080 
116 ,22.4557 ,0.96863 ,3.31024 ,32.48006 
117 ,22.6475 ,0.97056 ,3.30682 ,32.44648 
118 ,22.8399 ,0.97250 ,3.26233 ,32.00996 
119 ,23.0479 ,0.97454 ,3.25548 ,31.94281 
120 ,23.2400 ,0.97646 ,3.22811 ,31.67418 
121 ,23.4001 ,0.97824 ,3.22126 ,31.60702 
122 ,23.5923 ,0.97996 ,3.20415 ,31.43913 
123 ,23.7839 ,0.98193 ,3.19388 ,31.33840 
124 ,23.9761 ,0.98385 ,3.15966 ,31.00262 
125 ,24.1525 ,0.98569 ,3.16309 ,31.03619 
126 ,24.3603 ,0.98767 ,3.14597 ,30.86830 
127 ,24.5360 ,0.98946 ,3.12544 ,30.66683 
128 ,24.7121 ,0.99139 ,3.12544 ,30.66683 
129 ,24.9043 ,0.99315 ,3.09122 ,30.33105 
130 ,25.1128 ,0.99526 ,3.09464 ,30.36463 
131 ,25.3208 ,0.99729 ,3.04673 ,29.89453 
132 ,25.4966 ,0.99911 ,3.03989 ,29.82737 
133 ,25.6890 ,1.00095 ,3.02962 ,29.72664 
134 ,25.8808 ,1.00286 ,2.99882 ,29.42444 
135 ,26.0732 ,1.00487 ,3.00909 ,29.52517 
136 ,26.2489 ,1.00670 ,2.97487 ,29.18939 
137 ,26.4253 ,1.00838 ,2.96802 ,29.12223 
138 ,26.6169 ,1.01026 ,2.94064 ,28.85360 
139 ,26.8094 ,1.01214 ,2.94407 ,28.88718 
140 ,27.0012 ,1.01420 ,2.91669 ,28.61856 
141 ,27.1938 ,1.01603 ,2.90642 ,28.51782 
142 ,27.3857 ,1.01793 ,2.88247 ,28.28277 
143 ,27.5776 ,1.01981 ,2.87220 ,28.18204 
144 ,27.7538 ,1.02172 ,2.84140 ,27.87983 
145 ,27.9459 ,1.02355 ,2.84140 ,27.87983 
146 ,28.1221 ,1.02533 ,2.80034 ,27.47689 
147 ,28.3141 ,1.02729 ,2.81060 ,27.57763 
148 ,28.5061 ,1.02912 ,2.78322 ,27.30900 
149 ,28.6979 ,1.03103 ,2.75927 ,27.07395 
150 ,28.8742 ,1.03285 ,2.75585 ,27.04038 
151 ,29.0825 ,1.03479 ,2.73874 ,26.87248 
152 ,29.2744 ,1.03680 ,2.72847 ,26.77175 
153 ,29.4505 ,1.03861 ,2.70452 ,26.53670 
154 ,29.6426 ,1.04048 ,2.68056 ,26.30165 
155 ,29.8344 ,1.04241 ,2.68056 ,26.30165 
156 ,30.0265 ,1.04441 ,2.65660 ,26.06661 
157 ,30.2188 ,1.04628 ,2.63607 ,25.86514 
158 ,30.4267 ,1.04830 ,2.62581 ,25.76440 
159 ,30.6189 ,1.05023 ,2.60527 ,25.56293 
160 ,30.8268 ,1.05236 ,2.58816 ,25.39504 
161 ,31.0031 ,1.05422 ,2.55736 ,25.09283 
162 ,31.1789 ,1.05590 ,2.54710 ,24.99210 
163 ,31.3553 ,1.05770 ,2.54367 ,24.95852 
164 ,31.5473 ,1.05953 ,2.52314 ,24.75705 
165 ,31.7394 ,1.06144 ,2.50261 ,24.55558 
166 ,31.9315 ,1.06352 ,2.49576 ,24.48842 
167 ,32.1075 ,1.06515 ,2.48550 ,24.38769 
168 ,32.2995 ,1.06700 ,2.46154 ,24.15264 
169 ,32.4759 ,1.06885 ,2.44443 ,23.98475 
170 ,32.6839 ,1.07085 ,2.40679 ,23.61539 
171 ,32.8759 ,1.07280 ,2.42048 ,23.74970 
172 ,33.0835 ,1.07486 ,2.40336 ,23.58181 
173 ,33.2761 ,1.07678 ,2.38283 ,23.38034 
174 ,33.4521 ,1.07862 ,2.36914 ,23.24603 
175 ,33.6602 ,1.08053 ,2.33492 ,22.91024 
176 ,33.8523 ,1.08261 ,2.33150 ,22.87667 
177 ,34.0604 ,1.08461 ,2.31439 ,22.70877 
178 ,34.2683 ,1.08670 ,2.29043 ,22.47373 
179 ,34.4446 ,1.08852 ,2.26306 ,22.20510 
180 ,34.6366 ,1.09044 ,2.26990 ,22.27226 
181 ,34.8283 ,1.09234 ,2.24594 ,22.03721 
182 ,35.0048 ,1.09416 ,2.23226 ,21.90290 
183 ,35.1970 ,1.09601 ,2.21515 ,21.73500 
184 ,35.4048 ,1.09811 ,2.20830 ,21.66785 
185 ,35.6128 ,1.10012 ,2.18435 ,21.43280 
186 ,35.8050 ,1.10207 ,2.15355 ,21.13059 
187 ,35.9809 ,1.10394 ,2.13986 ,20.99628 
188 ,36.1572 ,1.10567 ,2.12275 ,20.82839 
189 ,36.3329 ,1.10748 ,2.11932 ,20.79481 
190 ,36.5254 ,1.10930 ,2.08510 ,20.45903 
191 ,36.7335 ,1.11140 ,2.08510 ,20.45903 
192 ,36.9255 ,1.11325 ,2.06457 ,20.25756 
193 ,37.1175 ,1.11521 ,2.04746 ,20.08967 
194 ,37.3097 ,1.11717 ,2.03719 ,19.98893 
195 ,37.5016 ,1.11905 ,2.00982 ,19.72031 
196 ,37.6775 ,1.12083 ,1.99955 ,19.61957 
197 ,37.8537 ,1.12262 ,2.00639 ,19.68673 
198 ,38.0620 ,1.12466 ,1.96533 ,19.28379 
199 ,38.2700 ,1.12669 ,1.96875 ,19.31737 
200 ,38.4462 ,1.12851 ,1.95506 ,19.18305 
201 ,38.6541 ,1.13055 ,1.95164 ,19.14948 
202 ,38.8460 ,1.13249 ,1.91057 ,18.74654 
203 ,39.0222 ,1.13437 ,1.90031 ,18.64580 
204 ,39.2144 ,1.13624 ,1.89688 ,18.61222 
205 ,39.3907 ,1.13800 ,1.88319 ,18.47791 
206 ,39.5982 ,1.13998 ,1.86266 ,18.27644 
207 ,39.7906 ,1.14197 ,1.84897 ,18.14213 
208 ,39.9828 ,1.14388 ,1.82160 ,17.87350 
209 ,40.1744 ,1.14576 ,1.81475 ,17.80634 
210 ,40.3505 ,1.14756 ,1.80106 ,17.67203 
211 ,40.5426 ,1.14941 ,1.76342 ,17.30267 
212 ,40.7347 ,1.15132 ,1.77369 ,17.40340 
213 ,40.9269 ,1.15325 ,1.74631 ,17.13478 
214 ,41.1352 ,1.15536 ,1.74289 ,17.10120 
215 ,41.3269 ,1.15726 ,1.71893 ,16.86615 
216 ,41.5352 ,1.15934 ,1.72235 ,16.89973 
217 ,41.7436 ,1.16142 ,1.67444 ,16.42963 
218 ,41.9356 ,1.16333 ,1.67102 ,16.39605 
219 ,42.1275 ,1.16523 ,1.65733 ,16.26174 
220 ,42.3038 ,1.16711 ,1.64707 ,16.16101 
221 ,42.4958 ,1.16899 ,1.64364 ,16.12743 
222 ,42.6719 ,1.17078 ,1.62311 ,15.92596 
223 ,42.8475 ,1.17253 ,1.61627 ,15.85880 
224 ,43.0400 ,1.17437 ,1.58889 ,15.59018 
225 ,43.2319 ,1.17639 ,1.59916 ,15.69091 
226 ,43.4402 ,1.17839 ,1.57520 ,15.45586 
227 ,43.6162 ,1.18030 ,1.55467 ,15.25439 
228 ,43.8079 ,1.18205 ,1.54440 ,15.15366 
229 ,43.9840 ,1.18387 ,1.51360 ,14.85145 
230 ,44.1766 ,1.18577 ,1.51018 ,14.81787 
231 ,44.6087 ,1.18894 ,1.48622 ,14.58283 
232 ,44.8167 ,1.19219 ,1.46569 ,14.38136 
233 ,44.9927 ,1.19399 ,1.46911 ,14.41493 
234 ,45.1687 ,1.19572 ,1.44858 ,14.21346 
235 ,45.3610 ,1.19767 ,1.41778 ,13.91126 
236 ,45.5527 ,1.19955 ,1.41778 ,13.91126 
237 ,45.7450 ,1.20141 ,1.38014 ,13.54190 
238 ,45.9528 ,1.20355 ,1.38698 ,13.60906 
239 ,46.1291 ,1.20534 ,1.38356 ,13.57548 
240 ,46.3211 ,1.20718 ,1.34591 ,13.20612 
241 ,46.5294 ,1.20933 ,1.34249 ,13.17254 
242 ,46.7213 ,1.21119 ,1.33565 ,13.10538 
243 ,46.9136 ,1.21314 ,1.31854 ,12.93749 
244 ,47.1215 ,1.21519 ,1.30485 ,12.80318 
245 ,47.3298 ,1.21722 ,1.30485 ,12.80318 
246 ,47.5378 ,1.21939 ,1.27747 ,12.53455 
247 ,47.7299 ,1.22129 ,1.26036 ,12.36666 
248 ,47.9060 ,1.22306 ,1.23983 ,12.16519 
249 ,48.0979 ,1.22497 ,1.24667 ,12.23235 
250 ,48.2740 ,1.22681 ,1.22614 ,12.03088 
251 ,48.4662 ,1.22866 ,1.20218 ,11.79583 
252 ,48.6421 ,1.23045 ,1.18850 ,11.66151 
253 ,48.8341 ,1.23231 ,1.18850 ,11.66151 
254 ,49.0264 ,1.23420 ,1.18165 ,11.59436 
255 ,49.2183 ,1.23612 ,1.16112 ,11.39289 
256 ,49.3945 ,1.23805 ,1.13716 ,11.15784 
257 ,49.5867 ,1.23986 ,1.12347 ,11.02353 
258 ,49.7946 ,1.24194 ,1.11321 ,10.92279 
259 ,49.9706 ,1.24375 ,1.12347 ,11.02353 
260 ,50.1629 ,1.24558 ,1.08925 ,10.68774 
261 ,50.3550 ,1.24752 ,1.08583 ,10.65416 
262 ,50.5469 ,1.24940 ,1.06530 ,10.45270 
263 ,50.7391 ,1.25141 ,1.05161 ,10.31838 
264 ,50.9471 ,1.25344 ,1.03108 ,10.11691 
265 ,51.1552 ,1.25557 ,1.03108 ,10.11691 
266 ,51.3470 ,1.25745 ,1.00712 ,9.88186 
267 ,51.5234 ,1.25927 ,1.00712 ,9.88186 
268 ,51.7153 ,1.26115 ,0.98659 ,9.68039 
269 ,51.9075 ,1.26307 ,0.97974 ,9.61324 
270 ,52.0836 ,1.26488 ,0.95579 ,9.37819 
271 ,52.2757 ,1.26679 ,0.96948 ,9.51250 
272 ,52.4838 ,1.26869 ,0.93183 ,9.14314 
273 ,52.6753 ,1.27084 ,0.91130 ,8.94167 
274 ,52.8519 ,1.27258 ,0.91130 ,8.94167 
275 ,53.0441 ,1.27446 ,0.90446 ,8.87451 
276 ,53.2356 ,1.27637 ,0.90446 ,8.87451 
277 ,53.4440 ,1.27836 ,0.87366 ,8.57231 
278 ,53.6362 ,1.28036 ,0.87366 ,8.57231 
279 ,53.8123 ,1.28215 ,0.85312 ,8.37084 
280 ,54.0046 ,1.28408 ,0.83259 ,8.16937 
281 ,54.1970 ,1.28593 ,0.83259 ,8.16937 
282 ,54.3884 ,1.28785 ,0.80863 ,7.93432 
283 ,54.5808 ,1.28975 ,0.79837 ,7.83359 
284 ,54.7567 ,1.29167 ,0.79837 ,7.83359 
285 ,54.9489 ,1.29346 ,0.77099 ,7.56496 
286 ,55.1569 ,1.29549 ,0.78126 ,7.66570 
287 ,55.3488 ,1.29743 ,0.75046 ,7.36349 
288 ,55.5571 ,1.29953 ,0.75388 ,7.39707 
289 ,55.7491 ,1.30142 ,0.72308 ,7.09486 
290 ,55.9250 ,1.30326 ,0.70939 ,6.96055 
291 ,56.1012 ,1.30504 ,0.70255 ,6.89340 
292 ,56.2772 ,1.30677 ,0.69913 ,6.85982 
293 ,56.4534 ,1.30855 ,0.68886 ,6.75908 
294 ,56.6614 ,1.31055 ,0.67859 ,6.65835 
295 ,56.8374 ,1.31235 ,0.67175 ,6.59119 
296 ,57.0133 ,1.31413 ,0.66148 ,6.49046 
297 ,57.1897 ,1.31588 ,0.64095 ,6.28899 
298 ,57.3817 ,1.31778 ,0.63410 ,6.22183 
299 ,57.5576 ,1.31958 ,0.62726 ,6.15467 
300 ,57.7499 ,1.32148 ,0.60330 ,5.91962 
301 ,57.9578 ,1.32350 ,0.59988 ,5.88605 
302 ,58.1500 ,1.32550 ,0.58962 ,5.78531 
303 ,58.3422 ,1.32743 ,0.55882 ,5.48311 
304 ,58.5343 ,1.32933 ,0.56566 ,5.55026 
305 ,58.7105 ,1.33114 ,0.55539 ,5.44953 
306 ,58.9346 ,1.33321 ,0.54855 ,5.38237 
307 ,59.1261 ,1.33524 ,0.51433 ,5.04659 
308 ,59.3026 ,1.33703 ,0.51091 ,5.01301 
309 ,59.4786 ,1.33879 ,0.51091 ,5.01301 
310 ,59.6868 ,1.34076 ,0.48353 ,4.74438 
311 ,59.8788 ,1.34270 ,0.48353 ,4.74438 
312 ,60.0870 ,1.34481 ,0.45957 ,4.50934 
313 ,60.2627 ,1.34669 ,0.46642 ,4.57649 
314 ,60.4389 ,1.34836 ,0.44931 ,4.40860 
315 ,60.6148 ,1.35015 ,0.44588 ,4.37502 
316 ,60.7913 ,1.35193 ,0.43562 ,4.27429 
317 ,60.9833 ,1.35379 ,0.41509 ,4.07282 
318 ,61.1754 ,1.35569 ,0.41509 ,4.07282 
319 ,61.3672 ,1.35758 ,0.38771 ,3.80419 
320 ,61.5594 ,1.35954 ,0.38771 ,3.80419 
321 ,61.7356 ,1.36134 ,0.38086 ,3.73703 
322 ,61.9272 ,1.36330 ,0.35006 ,3.43483 
323 ,62.1036 ,1.36502 ,0.33638 ,3.30052 
324 ,62.2956 ,1.36688 ,0.34322 ,3.36767 
325 ,62.5039 ,1.36885 ,0.31584 ,3.09905 
326 ,62.7120 ,1.37104 ,0.30215 ,2.96473 
327 ,62.9045 ,1.37299 ,0.29873 ,2.93116 
328 ,63.1121 ,1.37500 ,0.28162 ,2.76326 
329 ,63.3040 ,1.37698 ,0.27478 ,2.69611 
330 ,63.4963 ,1.37895 ,0.28504 ,2.79684 
331 ,63.6880 ,1.38077 ,0.27820 ,2.72969 
332 ,63.8804 ,1.38267 ,0.23029 ,2.25959 
333 ,64.0724 ,1.38471 ,0.23713 ,2.32675 
334 ,64.2486 ,1.38643 ,0.20976 ,2.05812 
335 ,64.4567 ,1.38851 ,0.21660 ,2.12528 
336 ,64.6328 ,1.39041 ,0.19949 ,1.95738 
337 ,64.8245 ,1.39223 ,0.19607 ,1.92381 
338 ,65.0004 ,1.39398 ,0.17553 ,1.72234 
339 ,65.1770 ,1.39574 ,0.18238 ,1.78949 
340 ,65.3851 ,1.39781 ,0.16185 ,1.58802 
341 ,65.5927 ,1.39987 ,0.15500 ,1.52087 
342 ,65.7852 ,1.40179 ,0.13105 ,1.28582 
343 ,65.9932 ,1.40386 ,0.11393 ,1.11793 
344 ,66.1692 ,1.40567 ,0.11051 ,1.08435 
345 ,66.3453 ,1.40750 ,0.12078 ,1.18508 
346 ,66.5215 ,1.40921 ,0.09340 ,0.91646 
347 ,66.7131 ,1.41105 ,0.07971 ,0.78214 
348 ,66.9057 ,1.41297 ,0.07629 ,0.74857 
349 ,67.1137 ,1.41504 ,0.06260 ,0.61425 
350 ,67.2898 ,1.41682 ,0.06260 ,0.61425 
351 ,67.4978 ,1.41889 ,0.04891 ,0.47994 
352 ,67.6739 ,1.42069 ,0.04549 ,0.44636 
353 ,67.8340 ,1.42243 ,0.02496 ,0.24489 
354 ,68.0101 ,1.42405 ,0.00443 ,0.04342 
355 ,68.2020 ,1.42594 ,0.01469 ,0.14416 
356 ,68.3947 ,1.42785 ,0.01469 ,0.14416 
357 ,68.6024 ,1.42991 ,-0.00584 ,-0.05731 
358 ,68.7945 ,1.43187 ,-0.02295 ,-0.22520 
359 ,68.9865 ,1.43387 ,-0.02637 ,-0.25878 
360 ,69.1785 ,1.43579 ,-0.03664 ,-0.35952 
361 ,69.3704 ,1.43760 ,-0.05375 ,-0.52741 
362 ,69.5467 ,1.43950 ,-0.05033 ,-0.49383 
363 ,69.7229 ,1.44122 ,-0.06744 ,-0.66172 
364 ,69.9305 ,1.44320 ,-0.08797 ,-0.86319 
365 ,70.1389 ,1.44523 ,-0.09482 ,-0.93035 
366 ,70.3471 ,1.44737 ,-0.10508 ,-1.03108 
367 ,70.5389 ,1.44929 ,-0.10166 ,-0.99751 
368 ,70.7311 ,1.45127 ,-0.11877 ,-1.16540 
369 ,70.9072 ,1.45301 ,-0.14957 ,-1.46760 
370 ,71.0993 ,1.45503 ,-0.13246 ,-1.29971 
371 ,71.3074 ,1.45683 ,-0.16326 ,-1.60191 
372 ,71.4996 ,1.45884 ,-0.15984 ,-1.56834 
373 ,71.7077 ,1.46095 ,-0.16668 ,-1.63549 
374 ,71.8836 ,1.46285 ,-0.17011 ,-1.66907 
375 ,72.0437 ,1.46449 ,-0.18722 ,-1.83696 
376 ,72.2198 ,1.46613 ,-0.18037 ,-1.76981 
377 ,72.4279 ,1.46820 ,-0.20433 ,-2.00485 
378 ,72.6199 ,1.47008 ,-0.20775 ,-2.03843 
379 ,72.8119 ,1.47199 ,-0.23513 ,-2.30706 
380 ,73.0041 ,1.47395 ,-0.22828 ,-2.23990 
381 ,73.1958 ,1.47582 ,-0.24539 ,-2.40779 
382 ,73.3881 ,1.47782 ,-0.25566 ,-2.50853 
383 ,73.5644 ,1.47961 ,-0.26935 ,-2.64284 
384 ,73.7402 ,1.48139 ,-0.25566 ,-2.50853 
385 ,73.9326 ,1.48330 ,-0.29330 ,-2.87789 
386 ,74.1244 ,1.48518 ,-0.28646 ,-2.81073 
387 ,74.3163 ,1.48706 ,-0.31041 ,-3.04578 
388 ,74.5084 ,1.48894 ,-0.29330 ,-2.87789 
389 ,74.7012 ,1.49085 ,-0.31726 ,-3.11294 
390 ,74.8932 ,1.49286 ,-0.33095 ,-3.24725 
391 ,75.0851 ,1.49474 ,-0.34464 ,-3.38156 
392 ,75.2929 ,1.49674 ,-0.34806 ,-3.41514 
393 ,75.4690 ,1.49860 ,-0.35832 ,-3.51588 
394 ,75.6610 ,1.50047 ,-0.36517 ,-3.58303 
395 ,75.8372 ,1.50230 ,-0.36859 ,-3.61661 
396 ,76.0133 ,1.50407 ,-0.39255 ,-3.85166 
397 ,76.1895 ,1.50580 ,-0.39939 ,-3.91882 
398 ,76.3815 ,1.50771 ,-0.39255 ,-3.85166 
399 ,76.5736 ,1.50962 ,-0.41992 ,-4.12029 
400 ,76.7816 ,1.51170 ,-0.40623 ,-3.98597 
401 ,76.9577 ,1.51350 ,-0.43361 ,-4.25460 
402 ,77.1818 ,1.51560 ,-0.44046 ,-4.32176 
403 ,77.3739 ,1.51762 ,-0.47126 ,-4.62396 
404 ,77.5654 ,1.51952 ,-0.46099 ,-4.52323 
405 ,77.7579 ,1.52140 ,-0.46783 ,-4.59038 
406 ,77.9502 ,1.52332 ,-0.48152 ,-4.72470 
407 ,78.1582 ,1.52545 ,-0.50206 ,-4.92617 
408 ,78.3502 ,1.52739 ,-0.50890 ,-4.99332 
409 ,78.5583 ,1.52941 ,-0.51232 ,-5.02690 
410 ,78.7501 ,1.53140 ,-0.52943 ,-5.19479 
411 ,78.9425 ,1.53336 ,-0.52259 ,-5.12764 
412 ,79.1343 ,1.53523 ,-0.55681 ,-5.46342 
413 ,79.3108 ,1.53704 ,-0.56365 ,-5.53058 
414 ,79.5027 ,1.53889 ,-0.54997 ,-5.39626 
415 ,79.6786 ,1.54071 ,-0.57050 ,-5.59773 
416 ,79.8710 ,1.54263 ,-0.58077 ,-5.69847 
417 ,80.0630 ,1.54454 ,-0.56023 ,-5.49700 
418 ,80.2390 ,1.54632 ,-0.59103 ,-5.79920 
419 ,80.4632 ,1.54851 ,-0.58761 ,-5.76562 
420 ,80.6710 ,1.55056 ,-0.61841 ,-6.06783 
421 ,80.8473 ,1.55243 ,-0.60814 ,-5.96709 
422 ,81.0233 ,1.55415 ,-0.61499 ,-6.03425 
423 ,81.1994 ,1.55590 ,-0.63210 ,-6.20214 
424 ,81.3756 ,1.55772 ,-0.65605 ,-6.43719 
425 ,81.5837 ,1.55970 ,-0.63894 ,-6.26930 
426 ,81.7917 ,1.56179 ,-0.66974 ,-6.57150 
427 ,81.9837 ,1.56371 ,-0.65605 ,-6.43719 
428 ,82.1758 ,1.56559 ,-0.69712 ,-6.84013 
429 ,82.3677 ,1.56753 ,-0.66290 ,-6.50435 
430 ,82.5440 ,1.56937 ,-0.69027 ,-6.77297 
431 ,82.7361 ,1.57123 ,-0.71423 ,-7.00802 
432 ,82.9277 ,1.57313 ,-0.71423 ,-7.00802 
433 ,83.1202 ,1.57509 ,-0.72450 ,-7.10876 
434 ,83.3282 ,1.57715 ,-0.72450 ,-7.10876 
435 ,83.5045 ,1.57894 ,-0.72792 ,-7.14233 
436 ,83.7125 ,1.58095 ,-0.74161 ,-7.27665 
437 ,83.9050 ,1.58292 ,-0.75530 ,-7.41096 
438 ,84.0966 ,1.58482 ,-0.77241 ,-7.57885 
439 ,84.2726 ,1.58662 ,-0.78610 ,-7.71317 
440 ,84.4487 ,1.58842 ,-0.77583 ,-7.61243 
441 ,84.6567 ,1.59037 ,-0.79978 ,-7.84748 
442 ,84.8330 ,1.59225 ,-0.80663 ,-7.91464 
443 ,85.0245 ,1.59411 ,-0.80663 ,-7.91464 
444 ,85.2165 ,1.59601 ,-0.82716 ,-8.11611 
445 ,85.4088 ,1.59790 ,-0.82716 ,-8.11611 
446 ,85.6332 ,1.60019 ,-0.84769 ,-8.31758 
447 ,85.8250 ,1.60213 ,-0.83743 ,-8.21684 
448 ,86.0015 ,1.60394 ,-0.86823 ,-8.51904 
449 ,86.2090 ,1.60591 ,-0.85454 ,-8.38473 
450 ,86.3855 ,1.60780 ,-0.87849 ,-8.61978 
451 ,86.5774 ,1.60967 ,-0.88534 ,-8.68694 
452 ,86.7698 ,1.61153 ,-0.87849 ,-8.61978 
453 ,86.9618 ,1.61340 ,-0.90587 ,-8.88841 
454 ,87.1539 ,1.61534 ,-0.90929 ,-8.92198 
455 ,87.3459 ,1.61736 ,-0.89903 ,-8.82125 
456 ,87.5221 ,1.61914 ,-0.91956 ,-9.02272 
457 ,87.7142 ,1.62099 ,-0.92983 ,-9.12345 
458 ,87.9067 ,1.62289 ,-0.92983 ,-9.12345 
459 ,88.1144 ,1.62500 ,-0.94351 ,-9.25777 
460 ,88.3064 ,1.62689 ,-0.94351 ,-9.25777 
461 ,88.4982 ,1.62879 ,-0.97089 ,-9.52639 
462 ,88.7066 ,1.63090 ,-0.96747 ,-9.49282 
463 ,88.9146 ,1.63300 ,-0.98458 ,-9.66071 
