Data stamp = , 26-04-2022 15:10:11 955

Calibration Values: 
Slope = , 26.54 , g/V 
Offset Voltage at no contact = , -0.501760 , V 

No , Time , Stage Position ,   Mass , Force 
   ,  (s) ,      (mm)      ,   (g)  , (mN)  

1 ,0.0000 ,0.74953 ,5.33958 ,52.39199 
2 ,0.2315 ,0.74964 ,5.33616 ,52.35841 
3 ,0.6800 ,0.75117 ,5.33616 ,52.35841 
4 ,0.9042 ,0.75332 ,5.33616 ,52.35841 
5 ,1.0961 ,0.75519 ,5.33958 ,52.39199 
6 ,1.3043 ,0.75721 ,5.33616 ,52.35841 
7 ,1.5284 ,0.75939 ,5.34985 ,52.49273 
8 ,1.7203 ,0.76150 ,5.33274 ,52.32484 
9 ,1.9124 ,0.76337 ,5.33274 ,52.32484 
10 ,2.1046 ,0.76528 ,5.30536 ,52.05621 
11 ,2.2963 ,0.76723 ,5.29510 ,51.95548 
12 ,2.4887 ,0.76906 ,5.26772 ,51.68685 
13 ,2.6809 ,0.77097 ,5.24718 ,51.48538 
14 ,2.8726 ,0.77304 ,5.23007 ,51.31749 
15 ,3.0651 ,0.77488 ,5.21296 ,51.14960 
16 ,3.2571 ,0.77679 ,5.20612 ,51.08244 
17 ,3.4493 ,0.77876 ,5.17190 ,50.74666 
18 ,3.6572 ,0.78090 ,5.16163 ,50.64592 
19 ,4.0894 ,0.78389 ,5.14794 ,50.51161 
20 ,4.2815 ,0.78705 ,5.08977 ,49.94078 
21 ,4.4894 ,0.78914 ,5.08292 ,49.87362 
22 ,4.6817 ,0.79106 ,5.04870 ,49.53784 
23 ,4.8897 ,0.79313 ,5.03159 ,49.36995 
24 ,5.0818 ,0.79508 ,5.01106 ,49.16848 
25 ,5.2898 ,0.79715 ,5.00421 ,49.10132 
26 ,5.4816 ,0.79906 ,4.97341 ,48.79911 
27 ,5.6740 ,0.80101 ,4.96315 ,48.69838 
28 ,5.8661 ,0.80295 ,4.93235 ,48.39618 
29 ,6.0582 ,0.80486 ,4.92208 ,48.29544 
30 ,6.2341 ,0.80663 ,4.91866 ,48.26186 
31 ,6.4263 ,0.80848 ,4.88101 ,47.89250 
32 ,6.6021 ,0.81031 ,4.87417 ,47.82534 
33 ,6.7942 ,0.81212 ,4.86390 ,47.72461 
34 ,6.9865 ,0.81410 ,4.82284 ,47.32167 
35 ,7.1946 ,0.81619 ,4.80915 ,47.18736 
36 ,7.3708 ,0.81799 ,4.79888 ,47.08662 
37 ,7.5625 ,0.81996 ,4.77835 ,46.88515 
38 ,7.7388 ,0.82170 ,4.77493 ,46.85157 
39 ,7.9311 ,0.82352 ,4.73044 ,46.41506 
40 ,8.1231 ,0.82547 ,4.72359 ,46.34790 
41 ,8.3310 ,0.82756 ,4.69622 ,46.07927 
42 ,8.5232 ,0.82945 ,4.67226 ,45.84422 
43 ,8.6993 ,0.83130 ,4.66199 ,45.74349 
44 ,8.8914 ,0.83312 ,4.66199 ,45.74349 
45 ,9.0995 ,0.83522 ,4.63804 ,45.50844 
46 ,9.2915 ,0.83715 ,4.63119 ,45.44128 
47 ,9.4996 ,0.83923 ,4.60040 ,45.13908 
48 ,9.6918 ,0.84107 ,4.59355 ,45.07192 
49 ,9.8838 ,0.84306 ,4.53880 ,44.53467 
50 ,10.0599 ,0.84487 ,4.54222 ,44.56825 
51 ,10.2357 ,0.84662 ,4.53880 ,44.53467 
52 ,10.4441 ,0.84863 ,4.49773 ,44.13173 
53 ,10.6358 ,0.85053 ,4.49431 ,44.09815 
54 ,10.8443 ,0.85266 ,4.45324 ,43.69521 
55 ,11.0521 ,0.85473 ,4.45666 ,43.72879 
56 ,11.2604 ,0.85677 ,4.43613 ,43.52732 
57 ,11.4685 ,0.85895 ,4.41560 ,43.32585 
58 ,11.6605 ,0.86086 ,4.39507 ,43.12438 
59 ,11.8524 ,0.86274 ,4.37795 ,42.95649 
60 ,12.0446 ,0.86461 ,4.35400 ,42.72144 
61 ,12.2368 ,0.86655 ,4.35742 ,42.75502 
62 ,12.4128 ,0.86846 ,4.31636 ,42.35208 
63 ,12.6046 ,0.87023 ,4.29924 ,42.18419 
64 ,12.8128 ,0.87232 ,4.28213 ,42.01630 
65 ,13.0209 ,0.87431 ,4.25476 ,41.74767 
66 ,13.2291 ,0.87652 ,4.23765 ,41.57978 
67 ,13.4370 ,0.87860 ,4.23080 ,41.51262 
68 ,13.6133 ,0.88036 ,4.21711 ,41.37831 
69 ,13.7893 ,0.88216 ,4.19316 ,41.14326 
70 ,13.9815 ,0.88399 ,4.17947 ,41.00895 
71 ,14.1891 ,0.88600 ,4.15551 ,40.77390 
72 ,14.3817 ,0.88797 ,4.13156 ,40.53885 
73 ,14.5734 ,0.88993 ,4.11787 ,40.40454 
74 ,14.7498 ,0.89178 ,4.11445 ,40.37096 
75 ,14.9417 ,0.89367 ,4.08707 ,40.10233 
76 ,15.1497 ,0.89571 ,4.06654 ,39.90087 
77 ,15.3580 ,0.89774 ,4.05285 ,39.76655 
78 ,15.5655 ,0.89981 ,4.02547 ,39.49793 
79 ,15.7578 ,0.90173 ,4.02205 ,39.46435 
80 ,15.9343 ,0.90358 ,3.99809 ,39.22930 
81 ,16.1262 ,0.90542 ,3.96045 ,38.85994 
82 ,16.3339 ,0.90752 ,3.97072 ,38.96067 
83 ,16.5263 ,0.90946 ,3.92965 ,38.55773 
84 ,16.7025 ,0.91131 ,3.93650 ,38.62489 
85 ,16.8785 ,0.91312 ,3.91254 ,38.38984 
86 ,17.0545 ,0.91476 ,3.89543 ,38.22195 
87 ,17.2467 ,0.91661 ,3.87490 ,38.02048 
88 ,17.4383 ,0.91851 ,3.87147 ,37.98690 
89 ,17.6309 ,0.92046 ,3.83041 ,37.58396 
90 ,17.8070 ,0.92233 ,3.81672 ,37.44965 
91 ,17.9830 ,0.92408 ,3.82014 ,37.48323 
92 ,18.1590 ,0.92581 ,3.77908 ,37.08029 
93 ,18.3511 ,0.92772 ,3.77223 ,37.01313 
94 ,18.5433 ,0.92957 ,3.74485 ,36.74450 
95 ,18.7510 ,0.93163 ,3.74485 ,36.74450 
96 ,18.9275 ,0.93348 ,3.71405 ,36.44230 
97 ,19.1514 ,0.93561 ,3.69352 ,36.24083 
98 ,19.3596 ,0.93776 ,3.67641 ,36.07294 
99 ,19.5513 ,0.93973 ,3.66272 ,35.93863 
100 ,19.7438 ,0.94160 ,3.63192 ,35.63642 
101 ,19.9519 ,0.94372 ,3.62166 ,35.53569 
102 ,20.1439 ,0.94560 ,3.60797 ,35.40137 
103 ,20.3519 ,0.94762 ,3.60112 ,35.33422 
104 ,20.5280 ,0.94954 ,3.56690 ,34.99843 
105 ,20.7202 ,0.95135 ,3.56348 ,34.96485 
106 ,20.8963 ,0.95323 ,3.54979 ,34.83054 
107 ,21.1043 ,0.95524 ,3.51215 ,34.46118 
108 ,21.2963 ,0.95716 ,3.50872 ,34.42760 
109 ,21.4885 ,0.95903 ,3.47108 ,34.05824 
110 ,21.6804 ,0.96092 ,3.48135 ,34.15898 
111 ,21.8886 ,0.96301 ,3.45397 ,33.89035 
112 ,22.0965 ,0.96515 ,3.44370 ,33.78961 
113 ,22.2887 ,0.96702 ,3.40264 ,33.38667 
114 ,22.4647 ,0.96884 ,3.37868 ,33.15163 
115 ,22.6568 ,0.97072 ,3.38553 ,33.21878 
116 ,22.8485 ,0.97267 ,3.35473 ,32.91658 
117 ,23.0411 ,0.97457 ,3.34446 ,32.81584 
118 ,23.2332 ,0.97652 ,3.32735 ,32.64795 
119 ,23.4252 ,0.97838 ,3.29313 ,32.31217 
120 ,23.6170 ,0.98032 ,3.28971 ,32.27859 
121 ,23.8093 ,0.98225 ,3.26575 ,32.04354 
122 ,23.9694 ,0.98401 ,3.23495 ,31.74134 
123 ,24.1614 ,0.98576 ,3.23495 ,31.74134 
124 ,24.3376 ,0.98754 ,3.21784 ,31.57345 
125 ,24.5136 ,0.98937 ,3.18704 ,31.27124 
126 ,24.6898 ,0.99109 ,3.19046 ,31.30482 
127 ,24.9138 ,0.99332 ,3.16651 ,31.06977 
128 ,25.1059 ,0.99520 ,3.14597 ,30.86830 
129 ,25.3139 ,0.99729 ,3.13913 ,30.80115 
130 ,25.5061 ,0.99917 ,3.09806 ,30.39821 
131 ,25.6982 ,1.00121 ,3.09122 ,30.33105 
132 ,25.8903 ,1.00308 ,3.06726 ,30.09600 
133 ,26.0982 ,1.00516 ,3.07069 ,30.12958 
134 ,26.2904 ,1.00701 ,3.02620 ,29.69306 
135 ,26.4824 ,1.00899 ,3.01251 ,29.55875 
136 ,26.6742 ,1.01086 ,3.01251 ,29.55875 
137 ,26.8664 ,1.01278 ,2.97829 ,29.22297 
138 ,27.0745 ,1.01491 ,2.98513 ,29.29012 
139 ,27.2668 ,1.01679 ,2.95091 ,28.95434 
140 ,27.4747 ,1.01890 ,2.94064 ,28.85360 
141 ,27.6667 ,1.02074 ,2.92011 ,28.65213 
142 ,27.8430 ,1.02265 ,2.91669 ,28.61856 
143 ,28.0352 ,1.02449 ,2.89273 ,28.38351 
144 ,28.2108 ,1.02638 ,2.85509 ,28.01415 
145 ,28.4032 ,1.02819 ,2.84825 ,27.94699 
146 ,28.6114 ,1.03020 ,2.84140 ,27.87983 
147 ,28.8034 ,1.03221 ,2.81060 ,27.57763 
148 ,28.9954 ,1.03412 ,2.81402 ,27.61121 
149 ,29.2035 ,1.03618 ,2.78322 ,27.30900 
150 ,29.3634 ,1.03794 ,2.75927 ,27.07395 
151 ,29.5397 ,1.03963 ,2.75585 ,27.04038 
152 ,29.7317 ,1.04150 ,2.73874 ,26.87248 
153 ,29.9239 ,1.04338 ,2.70452 ,26.53670 
154 ,30.1159 ,1.04526 ,2.70794 ,26.57028 
155 ,30.3079 ,1.04718 ,2.69083 ,26.40239 
156 ,30.5000 ,1.04913 ,2.66345 ,26.13376 
157 ,30.7082 ,1.05123 ,2.64976 ,25.99945 
158 ,30.8842 ,1.05308 ,2.64634 ,25.96587 
159 ,31.0763 ,1.05496 ,2.63265 ,25.83156 
160 ,31.2684 ,1.05677 ,2.59158 ,25.42862 
161 ,31.4603 ,1.05886 ,2.58816 ,25.39504 
162 ,31.6525 ,1.06066 ,2.56763 ,25.19357 
163 ,31.8286 ,1.06253 ,2.54710 ,24.99210 
164 ,32.0207 ,1.06435 ,2.52998 ,24.82421 
165 ,32.2288 ,1.06633 ,2.52314 ,24.75705 
166 ,32.4207 ,1.06837 ,2.49576 ,24.48842 
167 ,32.6128 ,1.07039 ,2.47523 ,24.28696 
168 ,32.8210 ,1.07222 ,2.45812 ,24.11906 
169 ,33.0130 ,1.07426 ,2.46154 ,24.15264 
170 ,33.1892 ,1.07608 ,2.44101 ,23.95117 
171 ,33.3812 ,1.07792 ,2.41705 ,23.71612 
172 ,33.5573 ,1.07982 ,2.40679 ,23.61539 
173 ,33.7492 ,1.08165 ,2.38968 ,23.44750 
174 ,33.9735 ,1.08381 ,2.37599 ,23.31318 
175 ,34.1816 ,1.08588 ,2.36230 ,23.17887 
176 ,34.3737 ,1.08786 ,2.35203 ,23.07814 
177 ,34.5818 ,1.08995 ,2.32808 ,22.84309 
178 ,34.7738 ,1.09183 ,2.31097 ,22.67520 
179 ,34.9660 ,1.09375 ,2.25963 ,22.17152 
180 ,35.1580 ,1.09569 ,2.27332 ,22.30584 
181 ,35.3499 ,1.09763 ,2.24594 ,22.03721 
182 ,35.5422 ,1.09955 ,2.22541 ,21.83574 
183 ,35.7336 ,1.10148 ,2.22883 ,21.86932 
184 ,35.9099 ,1.10336 ,2.20830 ,21.66785 
185 ,36.0859 ,1.10506 ,2.18777 ,21.46638 
186 ,36.2621 ,1.10685 ,2.18092 ,21.39922 
187 ,36.4539 ,1.10868 ,2.16381 ,21.23133 
188 ,36.6300 ,1.11057 ,2.13986 ,20.99628 
189 ,36.8221 ,1.11233 ,2.12275 ,20.82839 
190 ,37.0308 ,1.11430 ,2.12275 ,20.82839 
191 ,37.2708 ,1.11682 ,2.10906 ,20.69408 
192 ,37.4630 ,1.11875 ,2.06799 ,20.29114 
193 ,37.6548 ,1.12064 ,2.06115 ,20.22398 
194 ,37.8310 ,1.12249 ,2.03377 ,19.95535 
195 ,38.0231 ,1.12433 ,2.01666 ,19.78746 
196 ,38.2148 ,1.12624 ,2.01666 ,19.78746 
197 ,38.4072 ,1.12815 ,1.99955 ,19.61957 
198 ,38.5834 ,1.13000 ,1.96875 ,19.31737 
199 ,38.7754 ,1.13192 ,1.97559 ,19.38452 
200 ,38.9673 ,1.13379 ,1.96190 ,19.25021 
201 ,39.1596 ,1.13573 ,1.94479 ,19.08232 
202 ,39.3517 ,1.13762 ,1.92768 ,18.91443 
203 ,39.5439 ,1.13952 ,1.90715 ,18.71296 
204 ,39.7358 ,1.14141 ,1.91057 ,18.74654 
205 ,39.9279 ,1.14334 ,1.88662 ,18.51149 
206 ,40.1196 ,1.14525 ,1.86608 ,18.31002 
207 ,40.3120 ,1.14721 ,1.86951 ,18.34360 
208 ,40.4882 ,1.14908 ,1.84555 ,18.10855 
209 ,40.6962 ,1.15103 ,1.83871 ,18.04139 
210 ,40.9043 ,1.15319 ,1.80791 ,17.73919 
211 ,41.1121 ,1.15523 ,1.81475 ,17.80634 
212 ,41.3045 ,1.15712 ,1.78053 ,17.47056 
213 ,41.5286 ,1.15925 ,1.76342 ,17.30267 
214 ,41.7206 ,1.16128 ,1.74973 ,17.16836 
215 ,41.9126 ,1.16326 ,1.74631 ,17.13478 
216 ,42.1208 ,1.16514 ,1.72235 ,16.89973 
217 ,42.3290 ,1.16736 ,1.71209 ,16.79899 
218 ,42.5210 ,1.16934 ,1.69840 ,16.66468 
219 ,42.7131 ,1.17122 ,1.69840 ,16.66468 
220 ,42.9051 ,1.17311 ,1.66075 ,16.29532 
221 ,43.0973 ,1.17507 ,1.65733 ,16.26174 
222 ,43.3050 ,1.17717 ,1.62653 ,15.95954 
223 ,43.5133 ,1.17921 ,1.62995 ,15.99311 
224 ,43.7215 ,1.18133 ,1.60258 ,15.72449 
225 ,43.9134 ,1.18326 ,1.60942 ,15.79164 
226 ,44.1217 ,1.18530 ,1.57178 ,15.42228 
227 ,44.3296 ,1.18737 ,1.57520 ,15.45586 
228 ,44.5218 ,1.18926 ,1.54098 ,15.12008 
229 ,44.7459 ,1.19151 ,1.52729 ,14.98577 
230 ,44.9538 ,1.19362 ,1.53413 ,15.05292 
231 ,45.1460 ,1.19547 ,1.49307 ,14.64998 
232 ,45.3379 ,1.19743 ,1.48965 ,14.61640 
233 ,45.5297 ,1.19951 ,1.47253 ,14.44851 
234 ,45.7219 ,1.20130 ,1.45200 ,14.24704 
235 ,45.9141 ,1.20320 ,1.46227 ,14.34778 
236 ,46.1060 ,1.20512 ,1.42462 ,13.97842 
237 ,46.2985 ,1.20705 ,1.43489 ,14.07915 
238 ,46.4906 ,1.20901 ,1.41436 ,13.87768 
239 ,46.6826 ,1.21098 ,1.40409 ,13.77695 
240 ,46.8744 ,1.21279 ,1.39383 ,13.67621 
241 ,47.0667 ,1.21476 ,1.35960 ,13.34043 
242 ,47.2749 ,1.21677 ,1.34249 ,13.17254 
243 ,47.4669 ,1.21876 ,1.33223 ,13.07180 
244 ,47.6427 ,1.22054 ,1.32880 ,13.03822 
245 ,47.8512 ,1.22247 ,1.32196 ,12.97107 
246 ,48.0587 ,1.22465 ,1.29800 ,12.73602 
247 ,48.2510 ,1.22659 ,1.29458 ,12.70244 
248 ,48.4270 ,1.22840 ,1.26720 ,12.43381 
249 ,48.6353 ,1.23041 ,1.27063 ,12.46739 
250 ,48.8114 ,1.23229 ,1.23641 ,12.13161 
251 ,48.9876 ,1.23401 ,1.22956 ,12.06445 
252 ,49.1635 ,1.23575 ,1.21929 ,11.96372 
253 ,49.3557 ,1.23761 ,1.22614 ,12.03088 
254 ,49.5319 ,1.23945 ,1.21929 ,11.96372 
255 ,49.7235 ,1.24128 ,1.18165 ,11.59436 
256 ,49.8999 ,1.24309 ,1.17481 ,11.52720 
257 ,50.0758 ,1.24485 ,1.16454 ,11.42647 
258 ,50.2521 ,1.24662 ,1.15085 ,11.29215 
259 ,50.4441 ,1.24851 ,1.13374 ,11.12426 
260 ,50.6363 ,1.25051 ,1.11663 ,10.95637 
261 ,50.8602 ,1.25255 ,1.09952 ,10.78848 
262 ,51.0524 ,1.25453 ,1.10294 ,10.82206 
263 ,51.2602 ,1.25662 ,1.08241 ,10.62059 
264 ,51.4366 ,1.25845 ,1.07556 ,10.55343 
265 ,51.6285 ,1.26044 ,1.07214 ,10.51985 
266 ,51.8205 ,1.26224 ,1.02765 ,10.08333 
267 ,52.0124 ,1.26415 ,1.03108 ,10.11691 
268 ,52.2048 ,1.26608 ,1.01054 ,9.91544 
269 ,52.3968 ,1.26804 ,1.00712 ,9.88186 
270 ,52.6049 ,1.27003 ,0.99001 ,9.71397 
271 ,52.7809 ,1.27191 ,0.97632 ,9.57966 
272 ,52.9892 ,1.27396 ,0.96605 ,9.47892 
273 ,53.1651 ,1.27583 ,0.92499 ,9.07598 
274 ,53.3575 ,1.27765 ,0.94552 ,9.27745 
275 ,53.5495 ,1.27949 ,0.92157 ,9.04241 
276 ,53.7416 ,1.28145 ,0.90103 ,8.84094 
277 ,53.9496 ,1.28341 ,0.90103 ,8.84094 
278 ,54.1254 ,1.28535 ,0.87708 ,8.60589 
279 ,54.3178 ,1.28721 ,0.87023 ,8.53873 
280 ,54.5259 ,1.28928 ,0.85312 ,8.37084 
281 ,54.7180 ,1.29125 ,0.85654 ,8.40442 
282 ,54.9102 ,1.29319 ,0.83943 ,8.23653 
283 ,55.1021 ,1.29517 ,0.84628 ,8.30368 
284 ,55.2940 ,1.29695 ,0.82575 ,8.10221 
285 ,55.5183 ,1.29911 ,0.79152 ,7.76643 
286 ,55.7104 ,1.30112 ,0.79495 ,7.80001 
287 ,55.9023 ,1.30306 ,0.76757 ,7.53138 
288 ,56.1107 ,1.30502 ,0.77784 ,7.63212 
289 ,56.3023 ,1.30705 ,0.74704 ,7.32991 
290 ,56.4949 ,1.30897 ,0.75046 ,7.36349 
291 ,56.7029 ,1.31109 ,0.70255 ,6.89340 
292 ,56.9110 ,1.31301 ,0.72650 ,7.12844 
293 ,57.1189 ,1.31525 ,0.68886 ,6.75908 
294 ,57.3112 ,1.31713 ,0.67859 ,6.65835 
295 ,57.5032 ,1.31903 ,0.66833 ,6.55761 
296 ,57.6952 ,1.32100 ,0.65806 ,6.45688 
297 ,57.8713 ,1.32286 ,0.65464 ,6.42330 
298 ,58.0634 ,1.32464 ,0.63753 ,6.25541 
299 ,58.2556 ,1.32658 ,0.63753 ,6.25541 
300 ,58.4634 ,1.32864 ,0.60330 ,5.91962 
301 ,58.6558 ,1.33059 ,0.60673 ,5.95320 
302 ,58.8640 ,1.33266 ,0.58277 ,5.71815 
303 ,59.0559 ,1.33458 ,0.58962 ,5.78531 
304 ,59.2640 ,1.33668 ,0.56908 ,5.58384 
305 ,59.4557 ,1.33856 ,0.56908 ,5.58384 
306 ,59.6479 ,1.34046 ,0.53828 ,5.28164 
307 ,59.8561 ,1.34258 ,0.53486 ,5.24806 
308 ,60.0320 ,1.34444 ,0.51091 ,5.01301 
309 ,60.2241 ,1.34624 ,0.49722 ,4.87870 
310 ,60.4163 ,1.34814 ,0.49722 ,4.87870 
311 ,60.6083 ,1.35009 ,0.47668 ,4.67723 
312 ,60.8164 ,1.35212 ,0.47668 ,4.67723 
313 ,60.9928 ,1.35398 ,0.47326 ,4.64365 
314 ,61.2007 ,1.35601 ,0.45957 ,4.50934 
315 ,61.3929 ,1.35796 ,0.44931 ,4.40860 
316 ,61.5849 ,1.35983 ,0.41851 ,4.10640 
317 ,61.7606 ,1.36172 ,0.41851 ,4.10640 
318 ,61.9370 ,1.36347 ,0.40140 ,3.93850 
319 ,62.1613 ,1.36550 ,0.38429 ,3.77061 
320 ,62.3533 ,1.36755 ,0.39455 ,3.87135 
321 ,62.5293 ,1.36942 ,0.35691 ,3.50199 
322 ,62.7211 ,1.37120 ,0.37060 ,3.63630 
323 ,62.9133 ,1.37321 ,0.35349 ,3.46841 
324 ,63.0896 ,1.37496 ,0.36033 ,3.53557 
325 ,63.2817 ,1.37682 ,0.32269 ,3.16620 
326 ,63.4898 ,1.37894 ,0.32269 ,3.16620 
327 ,63.6818 ,1.38082 ,0.30900 ,3.03189 
328 ,63.8735 ,1.38268 ,0.30900 ,3.03189 
329 ,64.0660 ,1.38465 ,0.27135 ,2.66253 
330 ,64.2582 ,1.38654 ,0.28847 ,2.83042 
331 ,64.4502 ,1.38853 ,0.27135 ,2.66253 
332 ,64.6422 ,1.39042 ,0.25082 ,2.46106 
333 ,64.8345 ,1.39234 ,0.24398 ,2.39390 
334 ,65.0424 ,1.39441 ,0.22002 ,2.15885 
335 ,65.2343 ,1.39637 ,0.24055 ,2.36032 
336 ,65.4106 ,1.39816 ,0.21660 ,2.12528 
337 ,65.6027 ,1.40011 ,0.20976 ,2.05812 
338 ,65.7784 ,1.40183 ,0.18922 ,1.85665 
339 ,65.9709 ,1.40368 ,0.19607 ,1.92381 
340 ,66.1790 ,1.40584 ,0.16869 ,1.65518 
341 ,66.3870 ,1.40780 ,0.15500 ,1.52087 
342 ,66.5948 ,1.40992 ,0.16527 ,1.62160 
343 ,66.7708 ,1.41175 ,0.14816 ,1.45371 
344 ,66.9793 ,1.41387 ,0.11736 ,1.15151 
345 ,67.1554 ,1.41571 ,0.12078 ,1.18508 
346 ,67.3473 ,1.41741 ,0.12420 ,1.21866 
347 ,67.5394 ,1.41934 ,0.10367 ,1.01719 
348 ,67.7315 ,1.42128 ,0.09682 ,0.95004 
349 ,67.9236 ,1.42325 ,0.07629 ,0.74857 
350 ,68.1156 ,1.42521 ,0.08314 ,0.81572 
351 ,68.3076 ,1.42709 ,0.05576 ,0.54710 
352 ,68.4999 ,1.42905 ,0.03180 ,0.31205 
353 ,68.6920 ,1.43088 ,0.02838 ,0.27847 
354 ,68.9001 ,1.43304 ,0.01469 ,0.14416 
355 ,69.0921 ,1.43491 ,0.02838 ,0.27847 
356 ,69.2838 ,1.43676 ,0.00443 ,0.04342 
357 ,69.4763 ,1.43877 ,0.00443 ,0.04342 
358 ,69.6842 ,1.44078 ,-0.01269 ,-0.12447 
359 ,69.8764 ,1.44267 ,-0.01269 ,-0.12447 
360 ,70.0844 ,1.44483 ,-0.03664 ,-0.35952 
361 ,70.2607 ,1.44665 ,-0.03664 ,-0.35952 
362 ,70.4687 ,1.44864 ,-0.06060 ,-0.59457 
363 ,70.6766 ,1.45072 ,-0.06744 ,-0.66172 
364 ,70.9008 ,1.45286 ,-0.08455 ,-0.82961 
365 ,71.0930 ,1.45490 ,-0.09140 ,-0.89677 
366 ,71.3010 ,1.45700 ,-0.09824 ,-0.96393 
367 ,71.4928 ,1.45888 ,-0.09824 ,-0.96393 
368 ,71.6691 ,1.46073 ,-0.11877 ,-1.16540 
369 ,71.8773 ,1.46270 ,-0.13246 ,-1.29971 
370 ,72.0692 ,1.46467 ,-0.14615 ,-1.43402 
371 ,72.2614 ,1.46665 ,-0.16326 ,-1.60191 
372 ,72.4692 ,1.46858 ,-0.15984 ,-1.56834 
373 ,72.6775 ,1.47072 ,-0.16668 ,-1.63549 
374 ,72.8693 ,1.47274 ,-0.18379 ,-1.80338 
375 ,73.0778 ,1.47474 ,-0.18722 ,-1.83696 
376 ,73.2858 ,1.47675 ,-0.20433 ,-2.00485 
377 ,73.4778 ,1.47879 ,-0.20433 ,-2.00485 
378 ,73.6535 ,1.48056 ,-0.20090 ,-1.97128 
379 ,73.8301 ,1.48233 ,-0.22144 ,-2.17275 
380 ,74.0379 ,1.48438 ,-0.24197 ,-2.37422 
381 ,74.2301 ,1.48630 ,-0.25224 ,-2.47495 
382 ,74.4062 ,1.48812 ,-0.27619 ,-2.71000 
383 ,74.5983 ,1.48996 ,-0.25566 ,-2.50853 
384 ,74.7903 ,1.49184 ,-0.27961 ,-2.74358 
385 ,74.9664 ,1.49367 ,-0.29673 ,-2.91147 
386 ,75.1584 ,1.49554 ,-0.29330 ,-2.87789 
387 ,75.3666 ,1.49758 ,-0.31041 ,-3.04578 
388 ,75.5588 ,1.49956 ,-0.30357 ,-2.97863 
389 ,75.7504 ,1.50147 ,-0.31384 ,-3.07936 
390 ,75.9428 ,1.50343 ,-0.34464 ,-3.38156 
391 ,76.1507 ,1.50548 ,-0.35148 ,-3.44872 
392 ,76.3427 ,1.50738 ,-0.36175 ,-3.54946 
393 ,76.5350 ,1.50931 ,-0.34464 ,-3.38156 
394 ,76.7268 ,1.51118 ,-0.37544 ,-3.68377 
395 ,76.9192 ,1.51315 ,-0.37544 ,-3.68377 
396 ,77.0952 ,1.51497 ,-0.39597 ,-3.88524 
397 ,77.2874 ,1.51686 ,-0.39939 ,-3.91882 
398 ,77.4793 ,1.51876 ,-0.39255 ,-3.85166 
399 ,77.6716 ,1.52070 ,-0.41992 ,-4.12029 
400 ,77.8954 ,1.52284 ,-0.41308 ,-4.05313 
401 ,78.1037 ,1.52498 ,-0.43703 ,-4.28818 
402 ,78.3118 ,1.52707 ,-0.45072 ,-4.42249 
403 ,78.5199 ,1.52903 ,-0.46441 ,-4.55681 
404 ,78.7119 ,1.53108 ,-0.46783 ,-4.59038 
405 ,78.9201 ,1.53317 ,-0.47126 ,-4.62396 
406 ,79.1280 ,1.53526 ,-0.48837 ,-4.79185 
407 ,79.3202 ,1.53712 ,-0.49179 ,-4.82543 
408 ,79.5123 ,1.53905 ,-0.51232 ,-5.02690 
409 ,79.7204 ,1.54113 ,-0.51574 ,-5.06048 
410 ,79.9284 ,1.54313 ,-0.52601 ,-5.16121 
411 ,80.1200 ,1.54523 ,-0.53285 ,-5.22837 
412 ,80.3127 ,1.54705 ,-0.55681 ,-5.46342 
413 ,80.5047 ,1.54900 ,-0.55681 ,-5.46342 
414 ,80.6969 ,1.55093 ,-0.55681 ,-5.46342 
415 ,80.9049 ,1.55297 ,-0.58419 ,-5.73205 
416 ,81.1131 ,1.55502 ,-0.59103 ,-5.79920 
417 ,81.3050 ,1.55695 ,-0.60130 ,-5.89994 
418 ,81.5132 ,1.55907 ,-0.61499 ,-6.03425 
419 ,81.7050 ,1.56097 ,-0.60814 ,-5.96709 
420 ,81.8813 ,1.56276 ,-0.61156 ,-6.00067 
421 ,82.0733 ,1.56469 ,-0.62525 ,-6.13499 
422 ,82.2651 ,1.56657 ,-0.61499 ,-6.03425 
423 ,82.4576 ,1.56852 ,-0.64236 ,-6.30288 
424 ,82.6656 ,1.57062 ,-0.66290 ,-6.50435 
425 ,82.8416 ,1.57246 ,-0.66290 ,-6.50435 
426 ,83.0176 ,1.57413 ,-0.66974 ,-6.57150 
427 ,83.2098 ,1.57603 ,-0.69027 ,-6.77297 
428 ,83.4014 ,1.57795 ,-0.68001 ,-6.67224 
429 ,83.5780 ,1.57973 ,-0.69370 ,-6.80655 
430 ,83.7701 ,1.58161 ,-0.71423 ,-7.00802 
431 ,83.9620 ,1.58356 ,-0.69712 ,-6.84013 
432 ,84.1541 ,1.58546 ,-0.73476 ,-7.20949 
433 ,84.3463 ,1.58744 ,-0.74161 ,-7.27665 
434 ,84.5383 ,1.58930 ,-0.73476 ,-7.20949 
435 ,84.7304 ,1.59121 ,-0.75187 ,-7.37738 
436 ,84.9064 ,1.59306 ,-0.74503 ,-7.31023 
437 ,85.0986 ,1.59493 ,-0.75530 ,-7.41096 
438 ,85.3066 ,1.59694 ,-0.76898 ,-7.54527 
439 ,85.4827 ,1.59876 ,-0.76556 ,-7.51170 
440 ,85.6745 ,1.60064 ,-0.78610 ,-7.71317 
441 ,85.8671 ,1.60260 ,-0.79636 ,-7.81390 
442 ,86.0750 ,1.60468 ,-0.81347 ,-7.98179 
443 ,86.2671 ,1.60658 ,-0.82374 ,-8.08253 
444 ,86.4431 ,1.60846 ,-0.81689 ,-8.01537 
445 ,86.6190 ,1.61016 ,-0.82374 ,-8.08253 
446 ,86.8113 ,1.61203 ,-0.85796 ,-8.41831 
447 ,87.0033 ,1.61398 ,-0.84427 ,-8.28400 
448 ,87.1953 ,1.61585 ,-0.85454 ,-8.38473 
449 ,87.3715 ,1.61767 ,-0.87165 ,-8.55262 
450 ,87.5635 ,1.61953 ,-0.86138 ,-8.45189 
451 ,87.7553 ,1.62156 ,-0.88192 ,-8.65336 
452 ,87.9475 ,1.62340 ,-0.89560 ,-8.78767 
453 ,88.1557 ,1.62547 ,-0.90245 ,-8.85483 
454 ,88.3641 ,1.62757 ,-0.89903 ,-8.82125 
455 ,88.5560 ,1.62949 ,-0.91956 ,-9.02272 
456 ,88.7481 ,1.63137 ,-0.93325 ,-9.15703 
457 ,88.9399 ,1.63331 ,-0.92298 ,-9.05630 
458 ,89.1322 ,1.63526 ,-0.94009 ,-9.22419 
459 ,89.3082 ,1.63705 ,-0.96405 ,-9.45924 
460 ,89.4845 ,1.63879 ,-0.96063 ,-9.42566 
461 ,89.6764 ,1.64065 ,-0.96405 ,-9.45924 
462 ,89.8686 ,1.64261 ,-0.98458 ,-9.66071 
