Data stamp = , 26-04-2022 09:04:35 652

Calibration Values: 
Slope = , 26.54 , g/V 
Offset Voltage at no contact = , -0.501760 , V 

No , Time , Stage Position ,   Mass , Force 
   ,  (s) ,      (mm)      ,   (g)  , (mN)  

1 ,0.0000 ,0.74939 ,5.21296 ,51.14960 
2 ,0.2820 ,0.74956 ,5.21981 ,51.21675 
3 ,0.6021 ,0.75066 ,5.20612 ,51.08244 
4 ,0.7941 ,0.75223 ,5.20612 ,51.08244 
5 ,0.9863 ,0.75394 ,5.20954 ,51.11602 
6 ,1.1784 ,0.75583 ,5.22323 ,51.25033 
7 ,1.3707 ,0.75774 ,5.20270 ,51.04886 
8 ,1.5790 ,0.75988 ,5.21639 ,51.18317 
9 ,1.7706 ,0.76184 ,5.18901 ,50.91455 
10 ,1.9631 ,0.76369 ,5.18559 ,50.88097 
11 ,2.1552 ,0.76565 ,5.15821 ,50.61234 
12 ,2.3309 ,0.76753 ,5.13768 ,50.41087 
13 ,2.5073 ,0.76925 ,5.11372 ,50.17583 
14 ,2.6989 ,0.77103 ,5.11714 ,50.20940 
15 ,2.8913 ,0.77297 ,5.07950 ,49.84004 
16 ,3.0830 ,0.77490 ,5.07265 ,49.77289 
17 ,3.2756 ,0.77680 ,5.05897 ,49.63857 
18 ,3.4832 ,0.77895 ,5.05212 ,49.57142 
19 ,3.6599 ,0.78080 ,5.03159 ,49.36995 
20 ,3.8518 ,0.78258 ,4.99052 ,48.96701 
21 ,4.0277 ,0.78443 ,4.98026 ,48.86627 
22 ,4.2039 ,0.78622 ,4.95972 ,48.66480 
23 ,4.3959 ,0.78798 ,4.95630 ,48.63122 
24 ,4.5721 ,0.78984 ,4.91181 ,48.19471 
25 ,4.7483 ,0.79157 ,4.90497 ,48.12755 
26 ,4.9399 ,0.79345 ,4.89812 ,48.06039 
27 ,5.1324 ,0.79543 ,4.87075 ,47.79177 
28 ,5.3404 ,0.79747 ,4.85364 ,47.62387 
29 ,5.5325 ,0.79945 ,4.82968 ,47.38883 
30 ,5.7244 ,0.80128 ,4.83652 ,47.45598 
31 ,5.9163 ,0.80323 ,4.79204 ,47.01946 
32 ,6.1088 ,0.80517 ,4.77150 ,46.81800 
33 ,6.3328 ,0.80740 ,4.75097 ,46.61653 
34 ,6.5409 ,0.80945 ,4.73386 ,46.44863 
35 ,6.7170 ,0.81132 ,4.72359 ,46.34790 
36 ,6.9250 ,0.81327 ,4.72017 ,46.31432 
37 ,7.1011 ,0.81512 ,4.69622 ,46.07927 
38 ,7.2772 ,0.81693 ,4.67568 ,45.87780 
39 ,7.4692 ,0.81880 ,4.64488 ,45.57560 
40 ,7.6450 ,0.82055 ,4.64488 ,45.57560 
41 ,7.8373 ,0.82246 ,4.60382 ,45.17266 
42 ,8.0132 ,0.82423 ,4.59697 ,45.10550 
43 ,8.2055 ,0.82613 ,4.58671 ,45.00477 
44 ,8.4136 ,0.82818 ,4.54906 ,44.63541 
45 ,8.5898 ,0.83003 ,4.53880 ,44.53467 
46 ,8.7816 ,0.83190 ,4.54564 ,44.60183 
47 ,8.9738 ,0.83384 ,4.50800 ,44.23247 
48 ,9.1816 ,0.83579 ,4.49431 ,44.09815 
49 ,9.3741 ,0.83783 ,4.47378 ,43.89668 
50 ,9.5822 ,0.83989 ,4.46351 ,43.79595 
51 ,9.7903 ,0.84202 ,4.42586 ,43.42659 
52 ,9.9823 ,0.84391 ,4.42244 ,43.39301 
53 ,10.1584 ,0.84569 ,4.40533 ,43.22512 
54 ,10.3505 ,0.84754 ,4.38822 ,43.05723 
55 ,10.5266 ,0.84936 ,4.37795 ,42.95649 
56 ,10.7026 ,0.85118 ,4.34716 ,42.65429 
57 ,10.8944 ,0.85298 ,4.33004 ,42.48639 
58 ,11.0706 ,0.85483 ,4.31636 ,42.35208 
59 ,11.2624 ,0.85666 ,4.31293 ,42.31850 
60 ,11.4384 ,0.85856 ,4.27529 ,41.94914 
61 ,11.6306 ,0.86037 ,4.26845 ,41.88198 
62 ,11.8711 ,0.86283 ,4.24449 ,41.64694 
63 ,12.0637 ,0.86474 ,4.24107 ,41.61336 
64 ,12.2713 ,0.86665 ,4.21027 ,41.31115 
65 ,12.4630 ,0.86872 ,4.21027 ,41.31115 
66 ,12.6553 ,0.87060 ,4.16236 ,40.84106 
67 ,12.8309 ,0.87243 ,4.16236 ,40.84106 
68 ,13.0396 ,0.87436 ,4.15894 ,40.80748 
69 ,13.2477 ,0.87649 ,4.13498 ,40.57243 
70 ,13.4397 ,0.87844 ,4.09734 ,40.20307 
71 ,13.6159 ,0.88026 ,4.08707 ,40.10233 
72 ,13.8239 ,0.88226 ,4.06996 ,39.93444 
73 ,14.0000 ,0.88408 ,4.05627 ,39.80013 
74 ,14.1760 ,0.88586 ,4.03232 ,39.56508 
75 ,14.3521 ,0.88762 ,4.02547 ,39.49793 
76 ,14.5282 ,0.88943 ,4.01520 ,39.39719 
77 ,14.7043 ,0.89109 ,4.00836 ,39.33003 
78 ,14.8963 ,0.89297 ,3.95703 ,38.82636 
79 ,15.0722 ,0.89482 ,3.96387 ,38.89352 
80 ,15.2803 ,0.89682 ,3.93307 ,38.59131 
81 ,15.4565 ,0.89864 ,3.92281 ,38.49058 
82 ,15.6482 ,0.90048 ,3.91254 ,38.38984 
83 ,15.8406 ,0.90246 ,3.88858 ,38.15479 
84 ,16.0329 ,0.90443 ,3.86121 ,37.88617 
85 ,16.2245 ,0.90631 ,3.88174 ,38.08764 
86 ,16.4169 ,0.90816 ,3.83383 ,37.61754 
87 ,16.6089 ,0.91008 ,3.83383 ,37.61754 
88 ,16.8012 ,0.91202 ,3.80645 ,37.34891 
89 ,16.9771 ,0.91386 ,3.78250 ,37.11387 
90 ,17.1693 ,0.91575 ,3.78250 ,37.11387 
91 ,17.3453 ,0.91752 ,3.76881 ,36.97955 
92 ,17.5374 ,0.91940 ,3.72774 ,36.57661 
93 ,17.7295 ,0.92134 ,3.71748 ,36.47588 
94 ,17.9213 ,0.92327 ,3.71063 ,36.40872 
95 ,18.1296 ,0.92523 ,3.67983 ,36.10652 
96 ,18.3378 ,0.92743 ,3.65588 ,35.87147 
97 ,18.5297 ,0.92934 ,3.66272 ,35.93863 
98 ,18.7055 ,0.93113 ,3.63877 ,35.70358 
99 ,18.8976 ,0.93308 ,3.61139 ,35.43495 
100 ,19.0900 ,0.93496 ,3.59770 ,35.30064 
101 ,19.2820 ,0.93683 ,3.57375 ,35.06559 
102 ,19.4583 ,0.93867 ,3.56006 ,34.93128 
103 ,19.6658 ,0.94066 ,3.55663 ,34.89770 
104 ,19.8423 ,0.94250 ,3.53610 ,34.69623 
105 ,20.0500 ,0.94454 ,3.51899 ,34.52834 
106 ,20.2424 ,0.94646 ,3.49846 ,34.32687 
107 ,20.4185 ,0.94827 ,3.47792 ,34.12540 
108 ,20.6107 ,0.95006 ,3.46424 ,33.99108 
109 ,20.8188 ,0.95221 ,3.44370 ,33.78961 
110 ,20.9948 ,0.95403 ,3.43344 ,33.68888 
111 ,21.1865 ,0.95592 ,3.42659 ,33.62172 
112 ,21.3790 ,0.95775 ,3.40264 ,33.38667 
113 ,21.5869 ,0.95990 ,3.38553 ,33.21878 
114 ,21.7631 ,0.96168 ,3.36499 ,33.01731 
115 ,21.9552 ,0.96365 ,3.35473 ,32.91658 
116 ,22.1629 ,0.96562 ,3.31708 ,32.54722 
117 ,22.3551 ,0.96761 ,3.30339 ,32.41290 
118 ,22.5636 ,0.96965 ,3.30339 ,32.41290 
119 ,22.7555 ,0.97159 ,3.27602 ,32.14428 
120 ,22.9475 ,0.97344 ,3.27602 ,32.14428 
121 ,23.1396 ,0.97541 ,3.22468 ,31.64060 
122 ,23.3317 ,0.97731 ,3.23153 ,31.70776 
123 ,23.5235 ,0.97929 ,3.21784 ,31.57345 
124 ,23.7158 ,0.98117 ,3.18704 ,31.27124 
125 ,23.9397 ,0.98328 ,3.20073 ,31.40555 
126 ,24.1320 ,0.98537 ,3.17677 ,31.17051 
127 ,24.3396 ,0.98754 ,3.12886 ,30.70041 
128 ,24.5317 ,0.98930 ,3.12886 ,30.70041 
129 ,24.7078 ,0.99115 ,3.11518 ,30.56610 
130 ,24.8838 ,0.99289 ,3.09122 ,30.33105 
131 ,25.0762 ,0.99474 ,3.06726 ,30.09600 
132 ,25.2524 ,0.99660 ,3.06384 ,30.06242 
133 ,25.4281 ,0.99834 ,3.06042 ,30.02884 
134 ,25.6206 ,1.00022 ,3.01935 ,29.62590 
135 ,25.8126 ,1.00222 ,3.00567 ,29.49159 
136 ,25.9888 ,1.00398 ,3.00224 ,29.45801 
137 ,26.1809 ,1.00586 ,2.97144 ,29.15581 
138 ,26.3729 ,1.00778 ,2.96802 ,29.12223 
139 ,26.5484 ,1.00952 ,2.95776 ,29.02150 
140 ,26.7250 ,1.01131 ,2.93722 ,28.82003 
141 ,26.9332 ,1.01335 ,2.92353 ,28.68571 
142 ,27.1252 ,1.01525 ,2.88247 ,28.28277 
143 ,27.3654 ,1.01759 ,2.88931 ,28.34993 
144 ,27.5570 ,1.01965 ,2.84825 ,27.94699 
145 ,27.7494 ,1.02153 ,2.84825 ,27.94699 
146 ,27.9574 ,1.02357 ,2.82429 ,27.71194 
147 ,28.1336 ,1.02535 ,2.81402 ,27.61121 
148 ,28.3417 ,1.02740 ,2.77980 ,27.27542 
149 ,28.5338 ,1.02934 ,2.77638 ,27.24185 
150 ,28.7094 ,1.03124 ,2.75927 ,27.07395 
151 ,28.8858 ,1.03293 ,2.74900 ,26.97322 
152 ,29.0621 ,1.03468 ,2.71820 ,26.67101 
153 ,29.2539 ,1.03651 ,2.72163 ,26.70459 
154 ,29.4300 ,1.03833 ,2.69767 ,26.46954 
155 ,29.6222 ,1.04014 ,2.68398 ,26.33523 
156 ,29.7982 ,1.04208 ,2.66687 ,26.16734 
157 ,29.9741 ,1.04376 ,2.64976 ,25.99945 
158 ,30.1659 ,1.04571 ,2.64292 ,25.93229 
159 ,30.3743 ,1.04769 ,2.63265 ,25.83156 
160 ,30.5666 ,1.04969 ,2.60527 ,25.56293 
161 ,30.7427 ,1.05142 ,2.58132 ,25.32788 
162 ,30.9186 ,1.05327 ,2.57447 ,25.26073 
163 ,31.0946 ,1.05498 ,2.56078 ,25.12641 
164 ,31.2869 ,1.05687 ,2.52998 ,24.82421 
165 ,31.4949 ,1.05891 ,2.53341 ,24.85779 
166 ,31.6870 ,1.06081 ,2.49918 ,24.52200 
167 ,31.8789 ,1.06279 ,2.47865 ,24.32053 
168 ,32.0710 ,1.06466 ,2.48207 ,24.35411 
169 ,32.2792 ,1.06677 ,2.45470 ,24.08549 
170 ,32.4552 ,1.06861 ,2.44443 ,23.98475 
171 ,32.6474 ,1.07047 ,2.42048 ,23.74970 
172 ,32.8396 ,1.07235 ,2.41021 ,23.64897 
173 ,33.0310 ,1.07428 ,2.41021 ,23.64897 
174 ,33.2073 ,1.07614 ,2.36914 ,23.24603 
175 ,33.3837 ,1.07783 ,2.36572 ,23.21245 
176 ,33.5599 ,1.07964 ,2.33834 ,22.94382 
177 ,33.7518 ,1.08148 ,2.34861 ,23.04456 
178 ,33.9279 ,1.08331 ,2.33834 ,22.94382 
179 ,34.1196 ,1.08517 ,2.29043 ,22.47373 
180 ,34.3120 ,1.08707 ,2.29385 ,22.50731 
181 ,34.5199 ,1.08917 ,2.27332 ,22.30584 
182 ,34.7122 ,1.09104 ,2.27332 ,22.30584 
183 ,34.9043 ,1.09299 ,2.23568 ,21.93647 
184 ,35.0803 ,1.09480 ,2.20830 ,21.66785 
185 ,35.2563 ,1.09659 ,2.21857 ,21.76858 
186 ,35.4484 ,1.09841 ,2.19119 ,21.49996 
187 ,35.6407 ,1.10044 ,2.16723 ,21.26491 
188 ,35.8328 ,1.10229 ,2.15697 ,21.16417 
189 ,36.0246 ,1.10424 ,2.13986 ,20.99628 
190 ,36.3767 ,1.10690 ,2.10906 ,20.69408 
191 ,36.5530 ,1.10954 ,2.10906 ,20.69408 
192 ,36.7610 ,1.11156 ,2.08168 ,20.42545 
193 ,36.9375 ,1.11341 ,2.06457 ,20.25756 
194 ,37.1291 ,1.11523 ,2.04746 ,20.08967 
195 ,37.3209 ,1.11719 ,2.02350 ,19.85462 
196 ,37.5132 ,1.11910 ,2.01666 ,19.78746 
197 ,37.7054 ,1.12102 ,1.99613 ,19.58599 
198 ,37.8976 ,1.12290 ,1.99613 ,19.58599 
199 ,38.1053 ,1.12500 ,1.95506 ,19.18305 
200 ,38.2816 ,1.12688 ,1.96533 ,19.28379 
201 ,38.4733 ,1.12861 ,1.94479 ,19.08232 
202 ,38.6498 ,1.13050 ,1.93453 ,18.98158 
203 ,38.8420 ,1.13235 ,1.90373 ,18.67938 
204 ,39.0500 ,1.13440 ,1.87977 ,18.44433 
205 ,39.2419 ,1.13635 ,1.86608 ,18.31002 
206 ,39.4181 ,1.13819 ,1.86608 ,18.31002 
207 ,39.6101 ,1.14016 ,1.84213 ,18.07497 
208 ,39.8022 ,1.14198 ,1.83186 ,17.97423 
209 ,39.9943 ,1.14386 ,1.83871 ,18.04139 
210 ,40.1863 ,1.14577 ,1.80106 ,17.67203 
211 ,40.3785 ,1.14775 ,1.80106 ,17.67203 
212 ,40.5704 ,1.14963 ,1.78053 ,17.47056 
213 ,40.7627 ,1.15160 ,1.75315 ,17.20193 
214 ,40.9709 ,1.15364 ,1.74973 ,17.16836 
215 ,41.1630 ,1.15556 ,1.71893 ,16.86615 
216 ,41.3547 ,1.15749 ,1.72235 ,16.89973 
217 ,41.5630 ,1.15956 ,1.69498 ,16.63110 
218 ,41.7390 ,1.16148 ,1.69840 ,16.66468 
219 ,41.9149 ,1.16313 ,1.69498 ,16.63110 
220 ,42.1069 ,1.16502 ,1.66075 ,16.29532 
221 ,42.2833 ,1.16677 ,1.63680 ,16.06027 
222 ,42.4914 ,1.16886 ,1.63338 ,16.02669 
223 ,42.6994 ,1.17096 ,1.61627 ,15.85880 
224 ,42.8913 ,1.17288 ,1.61969 ,15.89238 
225 ,43.0836 ,1.17480 ,1.58204 ,15.52302 
226 ,43.2759 ,1.17666 ,1.58889 ,15.59018 
227 ,43.4838 ,1.17877 ,1.56151 ,15.32155 
228 ,43.6758 ,1.18069 ,1.56151 ,15.32155 
229 ,43.8835 ,1.18272 ,1.52387 ,14.95219 
230 ,44.0759 ,1.18464 ,1.52045 ,14.91861 
231 ,44.2682 ,1.18663 ,1.49991 ,14.71714 
232 ,44.4604 ,1.18855 ,1.49307 ,14.64998 
233 ,44.6521 ,1.19043 ,1.48280 ,14.54925 
234 ,44.8442 ,1.19231 ,1.45885 ,14.31420 
235 ,45.0203 ,1.19423 ,1.46569 ,14.38136 
236 ,45.2124 ,1.19601 ,1.44174 ,14.14631 
237 ,45.3883 ,1.19791 ,1.42462 ,13.97842 
238 ,45.5806 ,1.19974 ,1.39725 ,13.70979 
239 ,45.7884 ,1.20184 ,1.39040 ,13.64263 
240 ,45.9963 ,1.20393 ,1.37671 ,13.50832 
241 ,46.1728 ,1.20576 ,1.36303 ,13.37401 
242 ,46.3649 ,1.20760 ,1.35276 ,13.27327 
243 ,46.5570 ,1.20952 ,1.34249 ,13.17254 
244 ,46.7327 ,1.21136 ,1.31854 ,12.93749 
245 ,46.9091 ,1.21307 ,1.33223 ,13.07180 
246 ,47.1009 ,1.21495 ,1.29800 ,12.73602 
247 ,47.2930 ,1.21683 ,1.30827 ,12.83675 
248 ,47.4850 ,1.21879 ,1.28432 ,12.60171 
249 ,47.6774 ,1.22067 ,1.27405 ,12.50097 
250 ,47.8698 ,1.22257 ,1.25009 ,12.26592 
251 ,48.0776 ,1.22464 ,1.24325 ,12.19877 
252 ,48.2697 ,1.22665 ,1.23298 ,12.09803 
253 ,48.4457 ,1.22841 ,1.20218 ,11.79583 
254 ,48.6701 ,1.23050 ,1.21245 ,11.89656 
255 ,48.8621 ,1.23254 ,1.17823 ,11.56078 
256 ,49.0540 ,1.23445 ,1.18165 ,11.59436 
257 ,49.2459 ,1.23634 ,1.13716 ,11.15784 
258 ,49.4541 ,1.23841 ,1.15427 ,11.32573 
259 ,49.6462 ,1.24038 ,1.12005 ,10.98995 
260 ,49.8383 ,1.24232 ,1.10979 ,10.88921 
261 ,50.0144 ,1.24408 ,1.10979 ,10.88921 
262 ,50.2066 ,1.24599 ,1.08583 ,10.65416 
263 ,50.3821 ,1.24781 ,1.08583 ,10.65416 
264 ,50.5744 ,1.24964 ,1.07214 ,10.51985 
265 ,50.7667 ,1.25156 ,1.04819 ,10.28480 
266 ,50.9425 ,1.25338 ,1.03450 ,10.15049 
267 ,51.1350 ,1.25522 ,1.03792 ,10.18407 
268 ,51.3592 ,1.25755 ,1.01396 ,9.94902 
269 ,51.5509 ,1.25939 ,1.01054 ,9.91544 
270 ,51.7426 ,1.26134 ,0.99343 ,9.74755 
271 ,51.9191 ,1.26316 ,0.97290 ,9.54608 
272 ,52.1108 ,1.26500 ,0.97632 ,9.57966 
273 ,52.2873 ,1.26682 ,0.95579 ,9.37819 
274 ,52.4790 ,1.26870 ,0.94210 ,9.24388 
275 ,52.6874 ,1.27074 ,0.90788 ,8.90809 
276 ,52.8954 ,1.27284 ,0.92499 ,9.07598 
277 ,53.0876 ,1.27473 ,0.89761 ,8.80736 
278 ,53.2956 ,1.27680 ,0.89419 ,8.77378 
279 ,53.4718 ,1.27867 ,0.89077 ,8.74020 
280 ,53.6635 ,1.28049 ,0.85312 ,8.37084 
281 ,53.8400 ,1.28234 ,0.85312 ,8.37084 
282 ,54.0480 ,1.28428 ,0.85654 ,8.40442 
283 ,54.2398 ,1.28626 ,0.84628 ,8.30368 
284 ,54.4158 ,1.28814 ,0.82917 ,8.13579 
285 ,54.6082 ,1.28995 ,0.81548 ,8.00148 
286 ,54.8001 ,1.29190 ,0.78810 ,7.73285 
287 ,54.9925 ,1.29386 ,0.78468 ,7.69927 
288 ,55.1843 ,1.29572 ,0.75730 ,7.43065 
289 ,55.3766 ,1.29762 ,0.77441 ,7.59854 
290 ,55.5842 ,1.29970 ,0.74704 ,7.32991 
291 ,55.7602 ,1.30155 ,0.72992 ,7.16202 
292 ,55.9525 ,1.30343 ,0.72308 ,7.09486 
293 ,56.1608 ,1.30546 ,0.71281 ,6.99413 
294 ,56.3527 ,1.30740 ,0.69913 ,6.85982 
295 ,56.5449 ,1.30935 ,0.66490 ,6.52403 
296 ,56.7368 ,1.31126 ,0.67175 ,6.59119 
297 ,56.9131 ,1.31316 ,0.65806 ,6.45688 
298 ,57.0891 ,1.31483 ,0.65121 ,6.38972 
299 ,57.2812 ,1.31677 ,0.65121 ,6.38972 
300 ,57.4731 ,1.31859 ,0.64437 ,6.32256 
301 ,57.6494 ,1.32043 ,0.63068 ,6.18825 
302 ,57.8414 ,1.32227 ,0.61357 ,6.02036 
303 ,58.0496 ,1.32435 ,0.59304 ,5.81889 
304 ,58.2415 ,1.32630 ,0.57935 ,5.68458 
305 ,58.4177 ,1.32814 ,0.57251 ,5.61742 
306 ,58.6098 ,1.33003 ,0.55882 ,5.48311 
307 ,58.8019 ,1.33189 ,0.55539 ,5.44953 
308 ,58.9779 ,1.33374 ,0.54171 ,5.31522 
309 ,59.1703 ,1.33559 ,0.53144 ,5.21448 
310 ,59.3781 ,1.33763 ,0.52117 ,5.11375 
311 ,59.5701 ,1.33957 ,0.49722 ,4.87870 
312 ,59.7622 ,1.34146 ,0.50064 ,4.91228 
313 ,59.9541 ,1.34339 ,0.48695 ,4.77796 
314 ,60.1301 ,1.34527 ,0.45615 ,4.47576 
315 ,60.3065 ,1.34699 ,0.46642 ,4.57649 
316 ,60.4987 ,1.34884 ,0.44931 ,4.40860 
317 ,60.7065 ,1.35096 ,0.41509 ,4.07282 
318 ,60.8828 ,1.35277 ,0.42877 ,4.20713 
319 ,61.0747 ,1.35459 ,0.42535 ,4.17355 
320 ,61.2665 ,1.35661 ,0.41166 ,4.03924 
321 ,61.4590 ,1.35847 ,0.39113 ,3.83777 
322 ,61.6350 ,1.36023 ,0.39113 ,3.83777 
323 ,61.8111 ,1.36203 ,0.38429 ,3.77061 
324 ,62.0192 ,1.36395 ,0.34664 ,3.40125 
325 ,62.2270 ,1.36607 ,0.34664 ,3.40125 
326 ,62.4194 ,1.36802 ,0.32611 ,3.19978 
327 ,62.6274 ,1.37010 ,0.31584 ,3.09905 
328 ,62.8035 ,1.37195 ,0.30558 ,2.99831 
329 ,62.9796 ,1.37369 ,0.30215 ,2.96473 
330 ,63.1878 ,1.37561 ,0.29531 ,2.89758 
331 ,63.3798 ,1.37783 ,0.27820 ,2.72969 
332 ,63.5720 ,1.37950 ,0.27820 ,2.72969 
333 ,63.7639 ,1.38152 ,0.24740 ,2.42748 
334 ,63.9401 ,1.38329 ,0.23371 ,2.29317 
335 ,64.1482 ,1.38533 ,0.23371 ,2.29317 
336 ,64.3242 ,1.38714 ,0.23371 ,2.29317 
337 ,64.5162 ,1.38909 ,0.23371 ,2.29317 
338 ,64.7083 ,1.39096 ,0.21318 ,2.09170 
339 ,64.8844 ,1.39272 ,0.18922 ,1.85665 
340 ,65.0765 ,1.39460 ,0.19949 ,1.95738 
341 ,65.2526 ,1.39646 ,0.18238 ,1.78949 
342 ,65.4287 ,1.39819 ,0.17553 ,1.72234 
343 ,65.6368 ,1.40011 ,0.15842 ,1.55445 
344 ,65.8449 ,1.40224 ,0.14131 ,1.38655 
345 ,66.0530 ,1.40437 ,0.14473 ,1.42013 
346 ,66.2606 ,1.40640 ,0.11051 ,1.08435 
347 ,66.4532 ,1.40833 ,0.10367 ,1.01719 
348 ,66.6614 ,1.41046 ,0.10025 ,0.98361 
349 ,66.8695 ,1.41253 ,0.08656 ,0.84930 
350 ,67.0773 ,1.41460 ,0.07971 ,0.78214 
351 ,67.2535 ,1.41642 ,0.07629 ,0.74857 
352 ,67.4615 ,1.41845 ,0.03865 ,0.37920 
353 ,67.6373 ,1.42026 ,0.04549 ,0.44636 
354 ,67.8457 ,1.42224 ,0.05234 ,0.51352 
355 ,68.0538 ,1.42435 ,0.05234 ,0.51352 
356 ,68.2618 ,1.42645 ,0.01127 ,0.11058 
357 ,68.4538 ,1.42835 ,0.01127 ,0.11058 
358 ,68.6460 ,1.43027 ,-0.00584 ,-0.05731 
359 ,68.8539 ,1.43233 ,-0.01269 ,-0.12447 
360 ,69.0622 ,1.43447 ,-0.03664 ,-0.35952 
361 ,69.2542 ,1.43638 ,-0.03322 ,-0.32594 
362 ,69.4463 ,1.43826 ,-0.05033 ,-0.49383 
363 ,69.6384 ,1.44024 ,-0.06060 ,-0.59457 
364 ,69.8140 ,1.44200 ,-0.06402 ,-0.62814 
365 ,70.0065 ,1.44388 ,-0.06744 ,-0.66172 
366 ,70.1986 ,1.44584 ,-0.09824 ,-0.96393 
367 ,70.3908 ,1.44773 ,-0.09482 ,-0.93035 
368 ,70.5827 ,1.44964 ,-0.11535 ,-1.13182 
369 ,70.7590 ,1.45149 ,-0.11877 ,-1.16540 
370 ,70.9505 ,1.45331 ,-0.11535 ,-1.13182 
371 ,71.1269 ,1.45512 ,-0.12904 ,-1.26613 
372 ,71.3348 ,1.45705 ,-0.15642 ,-1.53476 
373 ,71.5432 ,1.45920 ,-0.16668 ,-1.63549 
374 ,71.7187 ,1.46114 ,-0.16326 ,-1.60191 
375 ,71.8948 ,1.46289 ,-0.17353 ,-1.70265 
376 ,72.0868 ,1.46470 ,-0.19064 ,-1.87054 
377 ,72.2790 ,1.46667 ,-0.19064 ,-1.87054 
378 ,72.4875 ,1.46856 ,-0.18722 ,-1.83696 
379 ,72.6956 ,1.47075 ,-0.22144 ,-2.17275 
380 ,72.8877 ,1.47267 ,-0.21459 ,-2.10559 
381 ,73.0793 ,1.47459 ,-0.24881 ,-2.44137 
382 ,73.2719 ,1.47655 ,-0.25224 ,-2.47495 
383 ,73.4799 ,1.47863 ,-0.27277 ,-2.67642 
384 ,73.6560 ,1.48044 ,-0.27277 ,-2.67642 
385 ,73.8638 ,1.48244 ,-0.28304 ,-2.77716 
386 ,74.0402 ,1.48430 ,-0.30015 ,-2.94505 
387 ,74.2322 ,1.48615 ,-0.29673 ,-2.91147 
388 ,74.4240 ,1.48800 ,-0.29673 ,-2.91147 
389 ,74.6003 ,1.48986 ,-0.32752 ,-3.21367 
390 ,74.8084 ,1.49191 ,-0.30699 ,-3.01220 
391 ,74.9843 ,1.49372 ,-0.33095 ,-3.24725 
392 ,75.1926 ,1.49571 ,-0.32068 ,-3.14652 
393 ,75.4327 ,1.49800 ,-0.34806 ,-3.41514 
394 ,75.6406 ,1.50026 ,-0.37886 ,-3.71735 
395 ,75.8329 ,1.50213 ,-0.36517 ,-3.58303 
396 ,76.0408 ,1.50417 ,-0.38912 ,-3.81808 
397 ,76.2331 ,1.50612 ,-0.39255 ,-3.85166 
398 ,76.4249 ,1.50809 ,-0.39597 ,-3.88524 
399 ,76.6332 ,1.51013 ,-0.40623 ,-3.98597 
400 ,76.8092 ,1.51195 ,-0.40966 ,-4.01955 
401 ,77.0173 ,1.51392 ,-0.43019 ,-4.22102 
402 ,77.2096 ,1.51587 ,-0.44388 ,-4.35534 
403 ,77.4171 ,1.51800 ,-0.46783 ,-4.59038 
404 ,77.6097 ,1.51990 ,-0.46441 ,-4.55681 
405 ,77.8177 ,1.52195 ,-0.48152 ,-4.72470 
406 ,78.0099 ,1.52392 ,-0.47126 ,-4.62396 
407 ,78.2179 ,1.52596 ,-0.49521 ,-4.85901 
408 ,78.4259 ,1.52807 ,-0.49179 ,-4.82543 
409 ,78.6340 ,1.53008 ,-0.51232 ,-5.02690 
410 ,78.8422 ,1.53220 ,-0.52601 ,-5.16121 
411 ,79.0340 ,1.53414 ,-0.52259 ,-5.12764 
412 ,79.2262 ,1.53613 ,-0.53285 ,-5.22837 
413 ,79.4023 ,1.53785 ,-0.55339 ,-5.42984 
414 ,79.5940 ,1.53984 ,-0.54997 ,-5.39626 
415 ,79.7865 ,1.54170 ,-0.56365 ,-5.53058 
416 ,79.9787 ,1.54367 ,-0.59788 ,-5.86636 
417 ,80.1707 ,1.54552 ,-0.57050 ,-5.59773 
418 ,80.3466 ,1.54736 ,-0.59788 ,-5.86636 
419 ,80.5389 ,1.54915 ,-0.61841 ,-6.06783 
420 ,80.7309 ,1.55109 ,-0.60130 ,-5.89994 
421 ,80.9070 ,1.55289 ,-0.61499 ,-6.03425 
422 ,81.0991 ,1.55482 ,-0.63894 ,-6.26930 
423 ,81.2907 ,1.55670 ,-0.63552 ,-6.23572 
424 ,81.4673 ,1.55851 ,-0.63894 ,-6.26930 
425 ,81.6749 ,1.56050 ,-0.64579 ,-6.33646 
426 ,81.8673 ,1.56244 ,-0.66632 ,-6.53793 
427 ,82.0596 ,1.56441 ,-0.69712 ,-6.84013 
428 ,82.2516 ,1.56629 ,-0.67659 ,-6.63866 
429 ,82.4436 ,1.56823 ,-0.69712 ,-6.84013 
430 ,82.6197 ,1.57009 ,-0.70739 ,-6.94086 
431 ,82.7953 ,1.57176 ,-0.72107 ,-7.07518 
432 ,82.9876 ,1.57368 ,-0.69712 ,-6.84013 
433 ,83.1959 ,1.57575 ,-0.73134 ,-7.17591 
434 ,83.3718 ,1.57761 ,-0.73476 ,-7.20949 
435 ,83.5482 ,1.57933 ,-0.72792 ,-7.14233 
436 ,83.7400 ,1.58117 ,-0.76556 ,-7.51170 
437 ,83.9318 ,1.58307 ,-0.75872 ,-7.44454 
438 ,84.1242 ,1.58500 ,-0.77241 ,-7.57885 
439 ,84.3478 ,1.58718 ,-0.77583 ,-7.61243 
440 ,84.5241 ,1.58911 ,-0.80663 ,-7.91464 
441 ,84.7002 ,1.59085 ,-0.79978 ,-7.84748 
442 ,84.8766 ,1.59260 ,-0.81689 ,-8.01537 
443 ,85.0525 ,1.59432 ,-0.81689 ,-8.01537 
444 ,85.2288 ,1.59614 ,-0.81347 ,-7.98179 
445 ,85.4368 ,1.59811 ,-0.83743 ,-8.21684 
446 ,85.6289 ,1.60009 ,-0.83401 ,-8.18326 
447 ,85.8369 ,1.60209 ,-0.84769 ,-8.31758 
448 ,86.0291 ,1.60403 ,-0.85454 ,-8.38473 
449 ,86.2209 ,1.60599 ,-0.87165 ,-8.55262 
450 ,86.4132 ,1.60799 ,-0.86823 ,-8.51904 
451 ,86.6053 ,1.60989 ,-0.86823 ,-8.51904 
452 ,86.7814 ,1.61163 ,-0.88534 ,-8.68694 
453 ,86.9735 ,1.61360 ,-0.88876 ,-8.72051 
454 ,87.1652 ,1.61537 ,-0.90587 ,-8.88841 
455 ,87.3576 ,1.61736 ,-0.91956 ,-9.02272 
456 ,87.5496 ,1.61926 ,-0.91272 ,-8.95556 
457 ,87.7258 ,1.62105 ,-0.92983 ,-9.12345 
458 ,87.9174 ,1.62305 ,-0.93667 ,-9.19061 
459 ,88.0940 ,1.62475 ,-0.94694 ,-9.29135 
460 ,88.2857 ,1.62666 ,-0.94009 ,-9.22419 
461 ,88.4781 ,1.62856 ,-0.97431 ,-9.55997 
462 ,88.6862 ,1.63060 ,-0.96747 ,-9.49282 
463 ,88.8784 ,1.63248 ,-0.99485 ,-9.76144 
