Data stamp = , 25-04-2022 15:46:04 863

Calibration Values: 
Slope = , 26.54 , g/V 
Offset Voltage at no contact = , -0.501760 , V 

No , Time , Stage Position ,   Mass , Force 
   ,  (s) ,      (mm)      ,   (g)  , (mN)  

1 ,0.0000 ,0.74942 ,5.41487 ,53.13072 
2 ,0.2185 ,0.74950 ,5.41487 ,53.13072 
3 ,0.6026 ,0.75076 ,5.40460 ,53.02998 
4 ,0.8271 ,0.75240 ,5.40118 ,52.99640 
5 ,1.0191 ,0.75429 ,5.42514 ,53.23145 
6 ,1.2269 ,0.75631 ,5.41145 ,53.09714 
7 ,1.4034 ,0.75815 ,5.41145 ,53.09714 
8 ,1.5952 ,0.76010 ,5.40460 ,53.02998 
9 ,1.7875 ,0.76205 ,5.39434 ,52.92925 
10 ,1.9795 ,0.76393 ,5.39434 ,52.92925 
11 ,2.1714 ,0.76584 ,5.36012 ,52.59346 
12 ,2.3478 ,0.76761 ,5.35327 ,52.52631 
13 ,2.5397 ,0.76944 ,5.35327 ,52.52631 
14 ,2.7474 ,0.77160 ,5.32589 ,52.25768 
15 ,2.9398 ,0.77348 ,5.30536 ,52.05621 
16 ,3.1318 ,0.77538 ,5.28483 ,51.85474 
17 ,3.3240 ,0.77733 ,5.28141 ,51.82116 
18 ,3.5163 ,0.77931 ,5.26430 ,51.65327 
19 ,3.7083 ,0.78122 ,5.22665 ,51.28391 
20 ,3.9002 ,0.78326 ,5.19927 ,51.01528 
21 ,4.0766 ,0.78495 ,5.20954 ,51.11602 
22 ,4.2686 ,0.78680 ,5.16848 ,50.71308 
23 ,4.4446 ,0.78860 ,5.14794 ,50.51161 
24 ,4.6207 ,0.79036 ,5.14452 ,50.47803 
25 ,4.8287 ,0.79243 ,5.11372 ,50.17583 
26 ,5.0048 ,0.79419 ,5.10688 ,50.10867 
27 ,5.1970 ,0.79606 ,5.08292 ,49.87362 
28 ,5.3890 ,0.79803 ,5.04870 ,49.53784 
29 ,5.5811 ,0.79989 ,5.05554 ,49.60499 
30 ,5.7732 ,0.80183 ,5.01448 ,49.20205 
31 ,5.9808 ,0.80389 ,5.00079 ,49.06774 
32 ,6.1735 ,0.80584 ,4.96315 ,48.69838 
33 ,6.3813 ,0.80795 ,4.96657 ,48.73196 
34 ,6.5895 ,0.81001 ,4.91181 ,48.19471 
35 ,6.7816 ,0.81186 ,4.92892 ,48.36260 
36 ,6.9897 ,0.81402 ,4.89812 ,48.06039 
37 ,7.1815 ,0.81587 ,4.87075 ,47.79177 
38 ,7.3578 ,0.81772 ,4.86390 ,47.72461 
39 ,7.5658 ,0.81976 ,4.84337 ,47.52314 
40 ,7.7578 ,0.82170 ,4.81257 ,47.22093 
41 ,7.9499 ,0.82361 ,4.79546 ,47.05304 
42 ,8.1418 ,0.82557 ,4.77493 ,46.85157 
43 ,8.3340 ,0.82738 ,4.74070 ,46.51579 
44 ,8.5422 ,0.82950 ,4.74413 ,46.54937 
45 ,8.7339 ,0.83148 ,4.71333 ,46.24716 
46 ,8.9104 ,0.83320 ,4.68595 ,45.97854 
47 ,9.1025 ,0.83511 ,4.68595 ,45.97854 
48 ,9.2942 ,0.83703 ,4.64831 ,45.60918 
49 ,9.4865 ,0.83893 ,4.64488 ,45.57560 
50 ,9.6628 ,0.84081 ,4.63804 ,45.50844 
51 ,9.8704 ,0.84280 ,4.59697 ,45.10550 
52 ,10.0469 ,0.84462 ,4.59355 ,45.07192 
53 ,10.2544 ,0.84667 ,4.56275 ,44.76972 
54 ,10.4309 ,0.84850 ,4.55249 ,44.66898 
55 ,10.6390 ,0.85045 ,4.52169 ,44.36678 
56 ,10.8312 ,0.85241 ,4.50800 ,44.23247 
57 ,11.0232 ,0.85429 ,4.49773 ,44.13173 
58 ,11.2154 ,0.85617 ,4.44982 ,43.66163 
59 ,11.3910 ,0.85808 ,4.46351 ,43.79595 
60 ,11.5836 ,0.85987 ,4.44298 ,43.59448 
61 ,11.7915 ,0.86194 ,4.41218 ,43.29227 
62 ,11.9677 ,0.86379 ,4.38138 ,42.99007 
63 ,12.1598 ,0.86570 ,4.37111 ,42.88933 
64 ,12.3679 ,0.86776 ,4.36427 ,42.82218 
65 ,12.5434 ,0.86962 ,4.33689 ,42.55355 
66 ,12.7200 ,0.87128 ,4.32662 ,42.45282 
67 ,12.9277 ,0.87334 ,4.29240 ,42.11703 
68 ,13.1036 ,0.87522 ,4.28556 ,42.04988 
69 ,13.2957 ,0.87703 ,4.25476 ,41.74767 
70 ,13.4883 ,0.87896 ,4.25476 ,41.74767 
71 ,13.7284 ,0.88127 ,4.20685 ,41.27758 
72 ,13.9206 ,0.88331 ,4.21027 ,41.31115 
73 ,14.1284 ,0.88535 ,4.17605 ,40.97537 
74 ,14.3366 ,0.88745 ,4.14867 ,40.70674 
75 ,14.5126 ,0.88924 ,4.13156 ,40.53885 
76 ,14.6884 ,0.89103 ,4.12814 ,40.50527 
77 ,14.8810 ,0.89288 ,4.11787 ,40.40454 
78 ,15.0889 ,0.89492 ,4.09391 ,40.16949 
79 ,15.2650 ,0.89676 ,4.07680 ,40.00160 
80 ,15.4569 ,0.89867 ,4.04600 ,39.69940 
81 ,15.6492 ,0.90055 ,4.04258 ,39.66582 
82 ,15.8412 ,0.90243 ,4.01863 ,39.43077 
83 ,16.0494 ,0.90456 ,4.00152 ,39.26288 
84 ,16.2414 ,0.90644 ,3.98098 ,39.06141 
85 ,16.4176 ,0.90832 ,3.95703 ,38.82636 
86 ,16.6096 ,0.91016 ,3.94334 ,38.69205 
87 ,16.7857 ,0.91195 ,3.92623 ,38.52415 
88 ,16.9457 ,0.91368 ,3.92281 ,38.49058 
89 ,17.1374 ,0.91539 ,3.88516 ,38.12122 
90 ,17.3135 ,0.91723 ,3.87490 ,38.02048 
91 ,17.5060 ,0.91908 ,3.87490 ,38.02048 
92 ,17.6821 ,0.92094 ,3.84752 ,37.75185 
93 ,17.8902 ,0.92294 ,3.83041 ,37.58396 
94 ,18.0820 ,0.92494 ,3.80987 ,37.38249 
95 ,18.2902 ,0.92692 ,3.77908 ,37.08029 
96 ,18.4826 ,0.92880 ,3.76881 ,36.97955 
97 ,18.6745 ,0.93080 ,3.73801 ,36.67735 
98 ,18.8505 ,0.93266 ,3.72090 ,36.50946 
99 ,19.0422 ,0.93445 ,3.72090 ,36.50946 
100 ,19.2348 ,0.93645 ,3.69694 ,36.27441 
101 ,19.4268 ,0.93833 ,3.68325 ,36.14010 
102 ,19.6030 ,0.94015 ,3.67641 ,36.07294 
103 ,19.7950 ,0.94203 ,3.63877 ,35.70358 
104 ,19.9869 ,0.94393 ,3.62850 ,35.60284 
105 ,20.1628 ,0.94571 ,3.62166 ,35.53569 
106 ,20.3389 ,0.94748 ,3.61823 ,35.50211 
107 ,20.5149 ,0.94923 ,3.57032 ,35.03201 
108 ,20.6912 ,0.95106 ,3.54295 ,34.76338 
109 ,20.8673 ,0.95276 ,3.54979 ,34.83054 
110 ,21.0594 ,0.95460 ,3.52241 ,34.56192 
111 ,21.2355 ,0.95645 ,3.50530 ,34.39402 
112 ,21.4117 ,0.95817 ,3.48477 ,34.19255 
113 ,21.6036 ,0.96003 ,3.47792 ,34.12540 
114 ,21.7957 ,0.96200 ,3.44713 ,33.82319 
115 ,21.9717 ,0.96382 ,3.44028 ,33.75604 
116 ,22.1479 ,0.96551 ,3.43001 ,33.65530 
117 ,22.3238 ,0.96732 ,3.43344 ,33.68888 
118 ,22.5001 ,0.96907 ,3.40606 ,33.42025 
119 ,22.6920 ,0.97094 ,3.37526 ,33.11805 
120 ,22.8682 ,0.97276 ,3.36499 ,33.01731 
121 ,23.0764 ,0.97481 ,3.32735 ,32.64795 
122 ,23.2684 ,0.97672 ,3.31708 ,32.54722 
123 ,23.4763 ,0.97881 ,3.28971 ,32.27859 
124 ,23.7002 ,0.98101 ,3.27602 ,32.14428 
125 ,23.8927 ,0.98299 ,3.26233 ,32.00996 
126 ,24.0849 ,0.98487 ,3.25548 ,31.94281 
127 ,24.2768 ,0.98681 ,3.22126 ,31.60702 
128 ,24.4525 ,0.98860 ,3.20415 ,31.43913 
129 ,24.6448 ,0.99045 ,3.20073 ,31.40555 
130 ,24.8372 ,0.99238 ,3.16309 ,31.03619 
131 ,25.0291 ,0.99426 ,3.16651 ,31.06977 
132 ,25.2373 ,0.99625 ,3.14597 ,30.86830 
133 ,25.4453 ,0.99838 ,3.12886 ,30.70041 
134 ,25.6374 ,1.00038 ,3.09806 ,30.39821 
135 ,25.8295 ,1.00230 ,3.08438 ,30.26389 
136 ,26.0213 ,1.00421 ,3.07753 ,30.19674 
137 ,26.1975 ,1.00603 ,3.04673 ,29.89453 
138 ,26.3739 ,1.00783 ,3.03989 ,29.82737 
139 ,26.5815 ,1.00981 ,3.01935 ,29.62590 
140 ,26.7740 ,1.01176 ,2.99540 ,29.39086 
141 ,26.9819 ,1.01389 ,2.97829 ,29.22297 
142 ,27.1739 ,1.01584 ,2.94749 ,28.92076 
143 ,27.3499 ,1.01752 ,2.94407 ,28.88718 
144 ,27.5260 ,1.01930 ,2.93722 ,28.82003 
145 ,27.7177 ,1.02118 ,2.91327 ,28.58498 
146 ,27.8943 ,1.02303 ,2.89616 ,28.41709 
147 ,28.0865 ,1.02495 ,2.87905 ,28.24919 
148 ,28.2785 ,1.02683 ,2.85851 ,28.04772 
149 ,28.4704 ,1.02870 ,2.84482 ,27.91341 
150 ,28.6786 ,1.03086 ,2.83456 ,27.81268 
151 ,28.8545 ,1.03259 ,2.81402 ,27.61121 
152 ,29.0469 ,1.03447 ,2.81060 ,27.57763 
153 ,29.2550 ,1.03657 ,2.75927 ,27.07395 
154 ,29.4469 ,1.03844 ,2.77638 ,27.24185 
155 ,29.6392 ,1.04039 ,2.75927 ,27.07395 
156 ,29.8468 ,1.04244 ,2.73531 ,26.83891 
157 ,30.0393 ,1.04437 ,2.69425 ,26.43597 
158 ,30.2312 ,1.04632 ,2.69083 ,26.40239 
159 ,30.4073 ,1.04811 ,2.68056 ,26.30165 
160 ,30.5994 ,1.05002 ,2.66687 ,26.16734 
161 ,30.7914 ,1.05192 ,2.63607 ,25.86514 
162 ,30.9676 ,1.05371 ,2.62238 ,25.73082 
163 ,31.1435 ,1.05547 ,2.62238 ,25.73082 
164 ,31.3197 ,1.05722 ,2.60527 ,25.56293 
165 ,31.5118 ,1.05912 ,2.58132 ,25.32788 
166 ,31.6880 ,1.06091 ,2.55736 ,25.09283 
167 ,31.8799 ,1.06279 ,2.54025 ,24.92494 
168 ,32.0560 ,1.06458 ,2.51972 ,24.72347 
169 ,32.2321 ,1.06642 ,2.52314 ,24.75705 
170 ,32.4242 ,1.06829 ,2.49576 ,24.48842 
171 ,32.6162 ,1.07020 ,2.47865 ,24.32053 
172 ,32.8243 ,1.07219 ,2.46154 ,24.15264 
173 ,33.0164 ,1.07419 ,2.43416 ,23.88402 
174 ,33.2242 ,1.07616 ,2.42732 ,23.81686 
175 ,33.4325 ,1.07827 ,2.42048 ,23.74970 
176 ,33.6406 ,1.08037 ,2.38625 ,23.41392 
177 ,33.8326 ,1.08234 ,2.37941 ,23.34676 
178 ,34.0406 ,1.08439 ,2.34519 ,23.01098 
179 ,34.2167 ,1.08619 ,2.33150 ,22.87667 
180 ,34.3929 ,1.08798 ,2.30754 ,22.64162 
181 ,34.5690 ,1.08974 ,2.32123 ,22.77593 
182 ,34.7610 ,1.09159 ,2.28017 ,22.37299 
183 ,34.9531 ,1.09350 ,2.28017 ,22.37299 
184 ,35.1451 ,1.09540 ,2.27332 ,22.30584 
185 ,35.3368 ,1.09731 ,2.23226 ,21.90290 
186 ,35.5289 ,1.09926 ,2.23226 ,21.90290 
187 ,35.7375 ,1.10136 ,2.20488 ,21.63427 
188 ,35.9456 ,1.10341 ,2.20146 ,21.60069 
189 ,36.1216 ,1.10524 ,2.18092 ,21.39922 
190 ,36.3294 ,1.10723 ,2.16723 ,21.26491 
191 ,36.5218 ,1.10921 ,2.15012 ,21.09702 
192 ,36.7297 ,1.11128 ,2.12959 ,20.89555 
193 ,36.9219 ,1.11318 ,2.10906 ,20.69408 
194 ,37.1300 ,1.11523 ,2.09195 ,20.52619 
195 ,37.3220 ,1.11716 ,2.08168 ,20.42545 
196 ,37.4981 ,1.11907 ,2.06799 ,20.29114 
197 ,37.6744 ,1.12079 ,2.03035 ,19.92178 
198 ,37.8664 ,1.12265 ,2.04061 ,20.02251 
199 ,38.0584 ,1.12455 ,2.00639 ,19.68673 
200 ,38.2346 ,1.12638 ,1.99613 ,19.58599 
201 ,38.4424 ,1.12835 ,1.97217 ,19.35094 
202 ,38.6186 ,1.13019 ,1.96875 ,19.31737 
203 ,38.8105 ,1.13210 ,1.95506 ,19.18305 
204 ,39.0027 ,1.13398 ,1.92768 ,18.91443 
205 ,39.1949 ,1.13586 ,1.92768 ,18.91443 
206 ,39.3870 ,1.13781 ,1.90715 ,18.71296 
207 ,39.5627 ,1.13971 ,1.90715 ,18.71296 
208 ,39.7389 ,1.14147 ,1.85924 ,18.24286 
209 ,39.9310 ,1.14332 ,1.85924 ,18.24286 
210 ,40.1233 ,1.14519 ,1.84213 ,18.07497 
211 ,40.2994 ,1.14701 ,1.82502 ,17.90708 
212 ,40.4914 ,1.14889 ,1.82844 ,17.94066 
213 ,40.6671 ,1.15075 ,1.81133 ,17.77276 
214 ,40.8597 ,1.15256 ,1.78053 ,17.47056 
215 ,41.0677 ,1.15463 ,1.77711 ,17.43698 
216 ,41.2598 ,1.15656 ,1.74973 ,17.16836 
217 ,41.4513 ,1.15844 ,1.74973 ,17.16836 
218 ,41.6434 ,1.16039 ,1.74289 ,17.10120 
219 ,41.8355 ,1.16234 ,1.70182 ,16.69826 
220 ,42.0442 ,1.16435 ,1.71551 ,16.83257 
221 ,42.2521 ,1.16653 ,1.70524 ,16.73184 
222 ,42.4443 ,1.16841 ,1.67444 ,16.42963 
223 ,42.6361 ,1.17039 ,1.64707 ,16.16101 
224 ,42.8280 ,1.17225 ,1.65391 ,16.22816 
225 ,43.0365 ,1.17421 ,1.61969 ,15.89238 
226 ,43.2285 ,1.17635 ,1.61284 ,15.82522 
227 ,43.4204 ,1.17819 ,1.58547 ,15.55660 
228 ,43.5967 ,1.17996 ,1.57520 ,15.45586 
229 ,43.7887 ,1.18183 ,1.57520 ,15.45586 
230 ,43.9644 ,1.18364 ,1.55809 ,15.28797 
231 ,44.1567 ,1.18549 ,1.54782 ,15.18724 
232 ,44.3486 ,1.18740 ,1.53413 ,15.05292 
233 ,44.5410 ,1.18931 ,1.50676 ,14.78430 
234 ,44.7170 ,1.19117 ,1.49649 ,14.68356 
235 ,44.8931 ,1.19292 ,1.49991 ,14.71714 
236 ,45.0853 ,1.19479 ,1.47938 ,14.51567 
237 ,45.2612 ,1.19660 ,1.46227 ,14.34778 
238 ,45.4534 ,1.19848 ,1.45542 ,14.28062 
239 ,45.6615 ,1.20059 ,1.42805 ,14.01199 
240 ,45.8536 ,1.20247 ,1.43147 ,14.04557 
241 ,46.0456 ,1.20445 ,1.41778 ,13.91126 
242 ,46.2378 ,1.20629 ,1.39725 ,13.70979 
243 ,46.4296 ,1.20836 ,1.37671 ,13.50832 
244 ,46.6219 ,1.21014 ,1.35960 ,13.34043 
245 ,46.8297 ,1.21225 ,1.34934 ,13.23969 
246 ,47.0379 ,1.21430 ,1.34591 ,13.20612 
247 ,47.2138 ,1.21611 ,1.32538 ,13.00465 
248 ,47.3901 ,1.21785 ,1.32880 ,13.03822 
249 ,47.5662 ,1.21970 ,1.28774 ,12.63528 
250 ,47.7581 ,1.22146 ,1.29800 ,12.73602 
251 ,47.9503 ,1.22350 ,1.27405 ,12.50097 
252 ,48.1423 ,1.22537 ,1.25694 ,12.33308 
253 ,48.3344 ,1.22738 ,1.24325 ,12.19877 
254 ,48.5265 ,1.22919 ,1.21929 ,11.96372 
255 ,48.7187 ,1.23117 ,1.21929 ,11.96372 
256 ,48.9105 ,1.23303 ,1.20218 ,11.79583 
257 ,49.1027 ,1.23491 ,1.16796 ,11.46004 
258 ,49.2787 ,1.23678 ,1.17481 ,11.52720 
259 ,49.5029 ,1.23884 ,1.17481 ,11.52720 
260 ,49.6947 ,1.24090 ,1.15085 ,11.29215 
261 ,49.8710 ,1.24270 ,1.14058 ,11.19142 
262 ,50.0629 ,1.24450 ,1.09952 ,10.78848 
263 ,50.2710 ,1.24659 ,1.10294 ,10.82206 
264 ,50.4468 ,1.24845 ,1.10294 ,10.82206 
265 ,50.6393 ,1.25026 ,1.08241 ,10.62059 
266 ,50.8312 ,1.25232 ,1.07556 ,10.55343 
267 ,51.0076 ,1.25411 ,1.04134 ,10.21765 
268 ,51.1994 ,1.25589 ,1.03108 ,10.11691 
269 ,51.4077 ,1.25797 ,1.02081 ,10.01618 
270 ,51.5838 ,1.25982 ,1.00028 ,9.81471 
271 ,51.7600 ,1.26151 ,0.99343 ,9.74755 
272 ,51.9519 ,1.26339 ,1.00370 ,9.84829 
273 ,52.1440 ,1.26542 ,0.96263 ,9.44535 
274 ,52.3361 ,1.26726 ,0.97290 ,9.54608 
275 ,52.5281 ,1.26917 ,0.94210 ,9.24388 
276 ,52.7201 ,1.27111 ,0.94210 ,9.24388 
277 ,52.9283 ,1.27319 ,0.92499 ,9.07598 
278 ,53.1203 ,1.27513 ,0.89761 ,8.80736 
279 ,53.3122 ,1.27714 ,0.89077 ,8.74020 
280 ,53.4885 ,1.27887 ,0.89077 ,8.74020 
281 ,53.7123 ,1.28110 ,0.89761 ,8.80736 
282 ,53.9046 ,1.28298 ,0.84970 ,8.33726 
283 ,54.0967 ,1.28486 ,0.84970 ,8.33726 
284 ,54.3048 ,1.28693 ,0.81890 ,8.03506 
285 ,54.4969 ,1.28895 ,0.82917 ,8.13579 
286 ,54.7050 ,1.29096 ,0.79495 ,7.80001 
287 ,54.8972 ,1.29298 ,0.79837 ,7.83359 
288 ,55.0890 ,1.29475 ,0.79495 ,7.80001 
289 ,55.2649 ,1.29664 ,0.76072 ,7.46423 
290 ,55.4249 ,1.29833 ,0.74361 ,7.29633 
291 ,55.6175 ,1.30007 ,0.76415 ,7.49780 
292 ,55.8095 ,1.30196 ,0.73335 ,7.19560 
293 ,56.0016 ,1.30391 ,0.71281 ,6.99413 
294 ,56.2096 ,1.30596 ,0.70939 ,6.96055 
295 ,56.4015 ,1.30788 ,0.69570 ,6.82624 
296 ,56.5778 ,1.30972 ,0.67175 ,6.59119 
297 ,56.7536 ,1.31151 ,0.68886 ,6.75908 
298 ,56.9457 ,1.31335 ,0.64437 ,6.32256 
299 ,57.1380 ,1.31527 ,0.65121 ,6.38972 
300 ,57.3462 ,1.31732 ,0.62042 ,6.08752 
301 ,57.5382 ,1.31931 ,0.63753 ,6.25541 
302 ,57.7301 ,1.32117 ,0.61015 ,5.98678 
303 ,57.9065 ,1.32302 ,0.59988 ,5.88605 
304 ,58.0980 ,1.32486 ,0.59988 ,5.88605 
305 ,58.2747 ,1.32677 ,0.58962 ,5.78531 
306 ,58.4667 ,1.32861 ,0.56908 ,5.58384 
307 ,58.6588 ,1.33049 ,0.56566 ,5.55026 
308 ,58.8669 ,1.33248 ,0.54855 ,5.38237 
309 ,59.0590 ,1.33452 ,0.52802 ,5.18090 
310 ,59.2510 ,1.33635 ,0.52459 ,5.14732 
311 ,59.4591 ,1.33844 ,0.50748 ,4.97943 
312 ,59.6672 ,1.34054 ,0.48011 ,4.71081 
313 ,59.8592 ,1.34258 ,0.49380 ,4.84512 
314 ,60.0352 ,1.34429 ,0.47326 ,4.64365 
315 ,60.2109 ,1.34602 ,0.46984 ,4.61007 
316 ,60.3870 ,1.34786 ,0.43904 ,4.30787 
317 ,60.5636 ,1.34958 ,0.42877 ,4.20713 
318 ,60.7712 ,1.35162 ,0.42193 ,4.13997 
319 ,60.9637 ,1.35347 ,0.41509 ,4.07282 
320 ,61.1716 ,1.35553 ,0.39797 ,3.90493 
321 ,61.3473 ,1.35736 ,0.39113 ,3.83777 
322 ,61.5240 ,1.35921 ,0.36033 ,3.53557 
323 ,61.7161 ,1.36107 ,0.38429 ,3.77061 
324 ,61.9241 ,1.36311 ,0.34664 ,3.40125 
325 ,62.1162 ,1.36504 ,0.35006 ,3.43483 
326 ,62.3243 ,1.36707 ,0.33295 ,3.26694 
327 ,62.5163 ,1.36901 ,0.32611 ,3.19978 
328 ,62.7403 ,1.37128 ,0.31584 ,3.09905 
329 ,62.9325 ,1.37332 ,0.29189 ,2.86400 
330 ,63.1245 ,1.37510 ,0.27820 ,2.72969 
331 ,63.3167 ,1.37700 ,0.27820 ,2.72969 
332 ,63.5407 ,1.37915 ,0.26109 ,2.56179 
333 ,63.7168 ,1.38103 ,0.25424 ,2.49464 
334 ,63.9089 ,1.38293 ,0.22687 ,2.22601 
335 ,64.1009 ,1.38493 ,0.23713 ,2.32675 
336 ,64.2930 ,1.38679 ,0.21318 ,2.09170 
337 ,64.4852 ,1.38870 ,0.20976 ,2.05812 
338 ,64.6772 ,1.39063 ,0.20633 ,2.02454 
339 ,64.8853 ,1.39269 ,0.18238 ,1.78949 
340 ,65.0613 ,1.39459 ,0.16527 ,1.62160 
341 ,65.2534 ,1.39637 ,0.15500 ,1.52087 
342 ,65.4295 ,1.39825 ,0.14816 ,1.45371 
343 ,65.6372 ,1.40023 ,0.14473 ,1.42013 
344 ,65.8297 ,1.40214 ,0.11393 ,1.11793 
345 ,66.0377 ,1.40421 ,0.11393 ,1.11793 
346 ,66.2139 ,1.40606 ,0.11051 ,1.08435 
347 ,66.3899 ,1.40788 ,0.09340 ,0.91646 
348 ,66.5821 ,1.40976 ,0.08656 ,0.84930 
349 ,66.7901 ,1.41174 ,0.06260 ,0.61425 
350 ,66.9822 ,1.41371 ,0.07287 ,0.71499 
351 ,67.1743 ,1.41553 ,0.06260 ,0.61425 
352 ,67.3663 ,1.41752 ,0.03522 ,0.34563 
353 ,67.5423 ,1.41932 ,0.02838 ,0.27847 
354 ,67.7344 ,1.42115 ,0.01127 ,0.11058 
355 ,67.9267 ,1.42316 ,-0.00242 ,-0.02373 
356 ,68.1346 ,1.42517 ,-0.00584 ,-0.05731 
357 ,68.3268 ,1.42717 ,-0.02295 ,-0.22520 
358 ,68.5343 ,1.42915 ,-0.01953 ,-0.19163 
359 ,68.7110 ,1.43101 ,-0.03664 ,-0.35952 
360 ,68.9349 ,1.43316 ,-0.05033 ,-0.49383 
361 ,69.1268 ,1.43518 ,-0.07086 ,-0.69530 
362 ,69.3031 ,1.43695 ,-0.05375 ,-0.52741 
363 ,69.5111 ,1.43891 ,-0.08455 ,-0.82961 
364 ,69.6875 ,1.44076 ,-0.09482 ,-0.93035 
365 ,69.8950 ,1.44279 ,-0.09824 ,-0.96393 
366 ,70.0876 ,1.44471 ,-0.11877 ,-1.16540 
367 ,70.2796 ,1.44668 ,-0.09482 ,-0.93035 
368 ,70.4714 ,1.44852 ,-0.14957 ,-1.46760 
369 ,70.6635 ,1.45041 ,-0.11535 ,-1.13182 
370 ,70.8398 ,1.45231 ,-0.12904 ,-1.26613 
371 ,71.0314 ,1.45423 ,-0.16668 ,-1.63549 
372 ,71.2239 ,1.45610 ,-0.17695 ,-1.73623 
373 ,71.3998 ,1.45796 ,-0.18379 ,-1.80338 
374 ,71.5759 ,1.45968 ,-0.17353 ,-1.70265 
375 ,71.7677 ,1.46156 ,-0.20090 ,-1.97128 
376 ,71.9597 ,1.46337 ,-0.20433 ,-2.00485 
377 ,72.1358 ,1.46532 ,-0.22486 ,-2.20632 
378 ,72.3280 ,1.46712 ,-0.22828 ,-2.23990 
379 ,72.5361 ,1.46909 ,-0.22486 ,-2.20632 
380 ,72.7284 ,1.47117 ,-0.25224 ,-2.47495 
381 ,72.9364 ,1.47321 ,-0.24881 ,-2.44137 
382 ,73.1125 ,1.47500 ,-0.28304 ,-2.77716 
383 ,73.3048 ,1.47688 ,-0.26250 ,-2.57569 
384 ,73.4963 ,1.47881 ,-0.28646 ,-2.81073 
385 ,73.6884 ,1.48069 ,-0.30357 ,-2.97863 
386 ,73.8809 ,1.48266 ,-0.30357 ,-2.97863 
387 ,74.1051 ,1.48480 ,-0.31384 ,-3.07936 
388 ,74.2967 ,1.48677 ,-0.31384 ,-3.07936 
389 ,74.4892 ,1.48876 ,-0.34806 ,-3.41514 
390 ,74.6973 ,1.49080 ,-0.34121 ,-3.34799 
391 ,74.8895 ,1.49276 ,-0.35148 ,-3.44872 
392 ,75.0973 ,1.49477 ,-0.36517 ,-3.58303 
393 ,75.2736 ,1.49663 ,-0.37201 ,-3.65019 
394 ,75.4657 ,1.49848 ,-0.37544 ,-3.68377 
395 ,75.6577 ,1.50042 ,-0.38228 ,-3.75093 
396 ,75.8496 ,1.50229 ,-0.40281 ,-3.95240 
397 ,76.0259 ,1.50417 ,-0.41308 ,-4.05313 
398 ,76.2018 ,1.50593 ,-0.41992 ,-4.12029 
399 ,76.3779 ,1.50773 ,-0.44730 ,-4.38891 
400 ,76.5378 ,1.50936 ,-0.43703 ,-4.28818 
401 ,76.7142 ,1.51102 ,-0.45072 ,-4.42249 
402 ,76.9221 ,1.51305 ,-0.45072 ,-4.42249 
403 ,77.1460 ,1.51514 ,-0.46783 ,-4.59038 
404 ,77.3382 ,1.51720 ,-0.47810 ,-4.69112 
405 ,77.5300 ,1.51917 ,-0.50206 ,-4.92617 
406 ,77.7384 ,1.52109 ,-0.49521 ,-4.85901 
407 ,77.9465 ,1.52325 ,-0.49179 ,-4.82543 
408 ,78.1221 ,1.52511 ,-0.51232 ,-5.02690 
409 ,78.3147 ,1.52689 ,-0.53285 ,-5.22837 
410 ,78.5227 ,1.52905 ,-0.53285 ,-5.22837 
411 ,78.6988 ,1.53084 ,-0.53628 ,-5.26195 
412 ,78.8908 ,1.53268 ,-0.54654 ,-5.36268 
413 ,79.0829 ,1.53463 ,-0.54312 ,-5.32911 
414 ,79.2590 ,1.53648 ,-0.58761 ,-5.76562 
415 ,79.4510 ,1.53833 ,-0.58077 ,-5.69847 
416 ,79.6592 ,1.54040 ,-0.58761 ,-5.76562 
417 ,79.8829 ,1.54255 ,-0.59445 ,-5.83278 
418 ,80.0755 ,1.54459 ,-0.60814 ,-5.96709 
419 ,80.2674 ,1.54645 ,-0.60472 ,-5.93352 
420 ,80.4755 ,1.54855 ,-0.62868 ,-6.16856 
421 ,80.6676 ,1.55048 ,-0.62868 ,-6.16856 
422 ,80.8757 ,1.55256 ,-0.64921 ,-6.37003 
423 ,81.0834 ,1.55460 ,-0.65263 ,-6.40361 
424 ,81.2757 ,1.55657 ,-0.68001 ,-6.67224 
425 ,81.4837 ,1.55855 ,-0.68001 ,-6.67224 
426 ,81.6759 ,1.56059 ,-0.68343 ,-6.70582 
427 ,81.8837 ,1.56256 ,-0.68001 ,-6.67224 
428 ,82.0921 ,1.56463 ,-0.71423 ,-7.00802 
429 ,82.2843 ,1.56665 ,-0.69370 ,-6.80655 
430 ,82.4761 ,1.56855 ,-0.72450 ,-7.10876 
431 ,82.6842 ,1.57057 ,-0.71081 ,-6.97444 
432 ,82.8764 ,1.57256 ,-0.73818 ,-7.24307 
433 ,83.0685 ,1.57445 ,-0.73818 ,-7.24307 
434 ,83.2602 ,1.57636 ,-0.75872 ,-7.44454 
435 ,83.4526 ,1.57826 ,-0.75872 ,-7.44454 
436 ,83.6286 ,1.58009 ,-0.76556 ,-7.51170 
437 ,83.8048 ,1.58190 ,-0.76556 ,-7.51170 
438 ,83.9807 ,1.58363 ,-0.78610 ,-7.71317 
439 ,84.1571 ,1.58540 ,-0.79636 ,-7.81390 
440 ,84.3490 ,1.58729 ,-0.79978 ,-7.84748 
441 ,84.5408 ,1.58922 ,-0.81005 ,-7.94821 
442 ,84.7331 ,1.59113 ,-0.83058 ,-8.14968 
443 ,84.9253 ,1.59298 ,-0.81005 ,-7.94821 
444 ,85.1171 ,1.59496 ,-0.84769 ,-8.31758 
445 ,85.3256 ,1.59694 ,-0.84085 ,-8.25042 
446 ,85.5330 ,1.59907 ,-0.86138 ,-8.45189 
447 ,85.7257 ,1.60104 ,-0.85454 ,-8.38473 
448 ,85.9336 ,1.60311 ,-0.89560 ,-8.78767 
449 ,86.1258 ,1.60508 ,-0.87507 ,-8.58620 
450 ,86.3337 ,1.60710 ,-0.90245 ,-8.85483 
451 ,86.5101 ,1.60894 ,-0.89560 ,-8.78767 
452 ,86.7019 ,1.61082 ,-0.89560 ,-8.78767 
453 ,86.8942 ,1.61279 ,-0.93325 ,-9.15703 
454 ,87.0863 ,1.61464 ,-0.91614 ,-8.98914 
455 ,87.2939 ,1.61672 ,-0.94694 ,-9.29135 
456 ,87.4862 ,1.61867 ,-0.93667 ,-9.19061 
457 ,87.6944 ,1.62071 ,-0.96063 ,-9.42566 
458 ,87.8865 ,1.62265 ,-0.96405 ,-9.45924 
459 ,88.0786 ,1.62466 ,-0.98458 ,-9.66071 
460 ,88.2545 ,1.62638 ,-0.99485 ,-9.76144 
461 ,88.4468 ,1.62824 ,-0.98458 ,-9.66071 
462 ,88.6228 ,1.63000 ,-0.98116 ,-9.62713 
