Data stamp = , 26-04-2022 05:20:09 689

Calibration Values: 
Slope = , 26.54 , g/V 
Offset Voltage at no contact = , -0.501760 , V 

No , Time , Stage Position ,   Mass , Force 
   ,  (s) ,      (mm)      ,   (g)  , (mN)  

1 ,0.0000 ,0.74939 ,5.20612 ,51.08244 
2 ,0.2866 ,0.74958 ,5.21296 ,51.14960 
3 ,0.6069 ,0.75066 ,5.20612 ,51.08244 
4 ,0.8152 ,0.75240 ,5.22665 ,51.28391 
5 ,1.0068 ,0.75418 ,5.22323 ,51.25033 
6 ,1.1995 ,0.75605 ,5.20954 ,51.11602 
7 ,1.3913 ,0.75793 ,5.23692 ,51.38464 
8 ,1.5831 ,0.76000 ,5.23350 ,51.35107 
9 ,1.7756 ,0.76181 ,5.18901 ,50.91455 
10 ,1.9677 ,0.76374 ,5.17532 ,50.78023 
11 ,2.1598 ,0.76570 ,5.17190 ,50.74666 
12 ,2.3520 ,0.76764 ,5.15821 ,50.61234 
13 ,2.5439 ,0.76952 ,5.11372 ,50.17583 
14 ,2.7359 ,0.77141 ,5.11714 ,50.20940 
15 ,2.9440 ,0.77355 ,5.09319 ,49.97436 
16 ,3.1361 ,0.77548 ,5.08634 ,49.90720 
17 ,3.3441 ,0.77752 ,5.05212 ,49.57142 
18 ,3.5524 ,0.77963 ,5.04185 ,49.47068 
19 ,3.7604 ,0.78170 ,5.01448 ,49.20205 
20 ,3.9363 ,0.78352 ,5.00421 ,49.10132 
21 ,4.1286 ,0.78546 ,4.99737 ,49.03416 
22 ,4.3209 ,0.78734 ,4.95630 ,48.63122 
23 ,4.5129 ,0.78927 ,4.95630 ,48.63122 
24 ,4.7050 ,0.79115 ,4.93235 ,48.39618 
25 ,4.8968 ,0.79303 ,4.90155 ,48.09397 
26 ,5.0889 ,0.79507 ,4.89812 ,48.06039 
27 ,5.2812 ,0.79685 ,4.86732 ,47.75819 
28 ,5.4891 ,0.79897 ,4.86048 ,47.69103 
29 ,5.6653 ,0.80080 ,4.84337 ,47.52314 
30 ,5.8569 ,0.80262 ,4.81941 ,47.28809 
31 ,6.0493 ,0.80453 ,4.80573 ,47.15378 
32 ,6.2576 ,0.80660 ,4.77493 ,46.85157 
33 ,6.4498 ,0.80854 ,4.76808 ,46.78442 
34 ,6.6417 ,0.81047 ,4.74413 ,46.54937 
35 ,6.8177 ,0.81230 ,4.71333 ,46.24716 
36 ,6.9939 ,0.81415 ,4.71675 ,46.28074 
37 ,7.1859 ,0.81604 ,4.67911 ,45.91138 
38 ,7.3620 ,0.81778 ,4.66884 ,45.81065 
39 ,7.5701 ,0.81970 ,4.66199 ,45.74349 
40 ,7.7622 ,0.82171 ,4.63119 ,45.44128 
41 ,7.9542 ,0.82359 ,4.61408 ,45.27339 
42 ,8.1622 ,0.82557 ,4.61408 ,45.27339 
43 ,8.3705 ,0.82773 ,4.59013 ,45.03835 
44 ,8.5626 ,0.82973 ,4.56960 ,44.83688 
45 ,8.7707 ,0.83171 ,4.55933 ,44.73614 
46 ,8.9465 ,0.83358 ,4.54222 ,44.56825 
47 ,9.1224 ,0.83544 ,4.50457 ,44.19889 
48 ,9.2991 ,0.83707 ,4.48746 ,44.03100 
49 ,9.4909 ,0.83900 ,4.48746 ,44.03100 
50 ,9.6831 ,0.84091 ,4.46351 ,43.79595 
51 ,9.8750 ,0.84282 ,4.44982 ,43.66163 
52 ,10.0509 ,0.84467 ,4.43271 ,43.49374 
53 ,10.2270 ,0.84639 ,4.42586 ,43.42659 
54 ,10.4514 ,0.84847 ,4.38822 ,43.05723 
55 ,10.6593 ,0.85054 ,4.37453 ,42.92291 
56 ,10.8674 ,0.85271 ,4.36084 ,42.78860 
57 ,11.0434 ,0.85451 ,4.35058 ,42.68786 
58 ,11.2353 ,0.85640 ,4.31978 ,42.38566 
59 ,11.4276 ,0.85838 ,4.31978 ,42.38566 
60 ,11.6199 ,0.86029 ,4.28898 ,42.08345 
61 ,11.8116 ,0.86216 ,4.28213 ,42.01630 
62 ,12.0037 ,0.86417 ,4.26502 ,41.84841 
63 ,12.1800 ,0.86593 ,4.24791 ,41.68051 
64 ,12.3722 ,0.86777 ,4.23422 ,41.54620 
65 ,12.5482 ,0.86959 ,4.21027 ,41.31115 
66 ,12.7403 ,0.87144 ,4.18974 ,41.10968 
67 ,12.9484 ,0.87353 ,4.17947 ,41.00895 
68 ,13.1563 ,0.87560 ,4.14525 ,40.67317 
69 ,13.3485 ,0.87751 ,4.13840 ,40.60601 
70 ,13.5406 ,0.87950 ,4.12471 ,40.47170 
71 ,13.7485 ,0.88153 ,4.10760 ,40.30380 
72 ,13.9247 ,0.88340 ,4.08023 ,40.03518 
73 ,14.1009 ,0.88513 ,4.07338 ,39.96802 
74 ,14.2928 ,0.88698 ,4.04600 ,39.69940 
75 ,14.4686 ,0.88880 ,4.03916 ,39.63224 
76 ,14.6611 ,0.89068 ,4.02889 ,39.53150 
77 ,14.8528 ,0.89269 ,4.01863 ,39.43077 
78 ,15.0293 ,0.89440 ,3.98783 ,39.12856 
79 ,15.2052 ,0.89613 ,3.97072 ,38.96067 
80 ,15.3970 ,0.89804 ,3.95361 ,38.79278 
81 ,15.5731 ,0.89987 ,3.94334 ,38.69205 
82 ,15.7655 ,0.90167 ,3.93992 ,38.65847 
83 ,15.9417 ,0.90352 ,3.91596 ,38.42342 
84 ,16.1498 ,0.90543 ,3.88516 ,38.12122 
85 ,16.3575 ,0.90761 ,3.86121 ,37.88617 
86 ,16.5498 ,0.90953 ,3.85779 ,37.85259 
87 ,16.7261 ,0.91134 ,3.84067 ,37.68470 
88 ,16.9341 ,0.91338 ,3.80987 ,37.38249 
89 ,17.1262 ,0.91532 ,3.80987 ,37.38249 
90 ,17.3341 ,0.91733 ,3.77223 ,37.01313 
91 ,17.5103 ,0.91922 ,3.76196 ,36.91240 
92 ,17.7020 ,0.92106 ,3.75512 ,36.84524 
93 ,17.9103 ,0.92303 ,3.73117 ,36.61019 
94 ,18.1023 ,0.92514 ,3.71748 ,36.47588 
95 ,18.2947 ,0.92692 ,3.68325 ,36.14010 
96 ,18.5028 ,0.92908 ,3.69010 ,36.20725 
97 ,18.6948 ,0.93096 ,3.65588 ,35.87147 
98 ,18.8548 ,0.93278 ,3.63192 ,35.63642 
99 ,19.0468 ,0.93444 ,3.61823 ,35.50211 
100 ,19.2230 ,0.93632 ,3.61823 ,35.50211 
101 ,19.4311 ,0.93839 ,3.58401 ,35.16632 
102 ,19.6231 ,0.94037 ,3.58059 ,35.13275 
103 ,19.7994 ,0.94212 ,3.57032 ,35.03201 
104 ,20.0073 ,0.94409 ,3.54295 ,34.76338 
105 ,20.2154 ,0.94620 ,3.53268 ,34.66265 
106 ,20.4074 ,0.94805 ,3.51215 ,34.46118 
107 ,20.6156 ,0.95012 ,3.49504 ,34.29329 
108 ,20.8077 ,0.95210 ,3.47108 ,34.05824 
109 ,20.9833 ,0.95396 ,3.46766 ,34.02466 
110 ,21.1758 ,0.95578 ,3.44370 ,33.78961 
111 ,21.3839 ,0.95785 ,3.42659 ,33.62172 
112 ,21.5919 ,0.95993 ,3.39921 ,33.35310 
113 ,21.7678 ,0.96174 ,3.38895 ,33.25236 
114 ,21.9601 ,0.96359 ,3.37184 ,33.08447 
115 ,22.1680 ,0.96567 ,3.33762 ,32.74869 
116 ,22.3763 ,0.96776 ,3.35130 ,32.88300 
117 ,22.5684 ,0.96971 ,3.32051 ,32.58080 
118 ,22.7763 ,0.97175 ,3.29997 ,32.37933 
119 ,22.9523 ,0.97360 ,3.28628 ,32.24501 
120 ,23.1281 ,0.97540 ,3.26917 ,32.07712 
121 ,23.3207 ,0.97723 ,3.26233 ,32.00996 
122 ,23.5127 ,0.97913 ,3.24180 ,31.80849 
123 ,23.7048 ,0.98111 ,3.22126 ,31.60702 
124 ,23.8809 ,0.98290 ,3.20073 ,31.40555 
125 ,24.0729 ,0.98471 ,3.18362 ,31.23766 
126 ,24.2646 ,0.98662 ,3.17335 ,31.13693 
127 ,24.4409 ,0.98851 ,3.14940 ,30.90188 
128 ,24.6491 ,0.99047 ,3.13571 ,30.76757 
129 ,24.8571 ,0.99251 ,3.12544 ,30.66683 
130 ,25.0653 ,0.99462 ,3.10491 ,30.46536 
131 ,25.2412 ,0.99649 ,3.07411 ,30.16316 
132 ,25.4492 ,0.99854 ,3.07411 ,30.16316 
133 ,25.6416 ,1.00047 ,3.04673 ,29.89453 
134 ,25.8334 ,1.00236 ,3.03989 ,29.82737 
135 ,26.0258 ,1.00424 ,3.00909 ,29.52517 
136 ,26.2335 ,1.00637 ,3.00909 ,29.52517 
137 ,26.4095 ,1.00819 ,2.96802 ,29.12223 
138 ,26.5858 ,1.00990 ,2.95776 ,29.02150 
139 ,26.7616 ,1.01169 ,2.94407 ,28.88718 
140 ,26.9380 ,1.01348 ,2.92011 ,28.65213 
141 ,27.1141 ,1.01526 ,2.92353 ,28.68571 
142 ,27.2903 ,1.01700 ,2.92696 ,28.71929 
143 ,27.4818 ,1.01885 ,2.88589 ,28.31635 
144 ,27.6582 ,1.02061 ,2.87562 ,28.21562 
145 ,27.8665 ,1.02262 ,2.86193 ,28.08130 
146 ,28.0584 ,1.02455 ,2.84825 ,27.94699 
147 ,28.2347 ,1.02640 ,2.83798 ,27.84625 
148 ,28.4262 ,1.02822 ,2.81060 ,27.57763 
149 ,28.6027 ,1.03004 ,2.78665 ,27.34258 
150 ,28.8108 ,1.03210 ,2.79007 ,27.37616 
151 ,29.0033 ,1.03412 ,2.76269 ,27.10753 
152 ,29.1948 ,1.03594 ,2.75243 ,27.00680 
153 ,29.3870 ,1.03784 ,2.72163 ,26.70459 
154 ,29.5787 ,1.03976 ,2.70794 ,26.57028 
155 ,29.7713 ,1.04169 ,2.69767 ,26.46954 
156 ,29.9790 ,1.04373 ,2.67372 ,26.23450 
157 ,30.1554 ,1.04558 ,2.65318 ,26.03303 
158 ,30.3472 ,1.04743 ,2.65318 ,26.03303 
159 ,30.5395 ,1.04935 ,2.62581 ,25.76440 
160 ,30.7314 ,1.05135 ,2.63607 ,25.86514 
161 ,30.9077 ,1.05313 ,2.61212 ,25.63009 
162 ,31.1154 ,1.05514 ,2.58816 ,25.39504 
163 ,31.3078 ,1.05705 ,2.57105 ,25.22715 
164 ,31.4998 ,1.05900 ,2.53683 ,24.89136 
165 ,31.6759 ,1.06078 ,2.52656 ,24.79063 
166 ,31.8519 ,1.06260 ,2.51972 ,24.72347 
167 ,32.0441 ,1.06441 ,2.49918 ,24.52200 
168 ,32.2200 ,1.06622 ,2.48207 ,24.35411 
169 ,32.3960 ,1.06798 ,2.46839 ,24.21980 
170 ,32.5724 ,1.06974 ,2.45470 ,24.08549 
171 ,32.7645 ,1.07164 ,2.44443 ,23.98475 
172 ,32.9565 ,1.07350 ,2.42048 ,23.74970 
173 ,33.1646 ,1.07562 ,2.40336 ,23.58181 
174 ,33.3406 ,1.07743 ,2.39994 ,23.54823 
175 ,33.5488 ,1.07942 ,2.38968 ,23.44750 
176 ,33.7408 ,1.08145 ,2.35545 ,23.11171 
177 ,33.9164 ,1.08324 ,2.34861 ,23.04456 
178 ,34.0930 ,1.08499 ,2.34519 ,23.01098 
179 ,34.3012 ,1.08690 ,2.32123 ,22.77593 
180 ,34.4931 ,1.08888 ,2.28359 ,22.40657 
181 ,34.7171 ,1.09102 ,2.26306 ,22.20510 
182 ,34.9094 ,1.09304 ,2.27332 ,22.30584 
183 ,35.1014 ,1.09508 ,2.23226 ,21.90290 
184 ,35.2934 ,1.09696 ,2.22199 ,21.80216 
185 ,35.4692 ,1.09868 ,2.21857 ,21.76858 
186 ,35.6613 ,1.10057 ,2.20830 ,21.66785 
187 ,35.8375 ,1.10239 ,2.18777 ,21.46638 
188 ,36.0296 ,1.10423 ,2.17066 ,21.29849 
189 ,36.2219 ,1.10618 ,2.16381 ,21.23133 
190 ,36.4300 ,1.10822 ,2.13301 ,20.92912 
191 ,36.6221 ,1.11016 ,2.11248 ,20.72766 
192 ,36.8461 ,1.11242 ,2.11932 ,20.79481 
193 ,37.0541 ,1.11449 ,2.07141 ,20.32472 
194 ,37.2462 ,1.11641 ,2.07484 ,20.35829 
195 ,37.4382 ,1.11838 ,2.05773 ,20.19040 
196 ,37.6300 ,1.12029 ,2.02008 ,19.82104 
197 ,37.8060 ,1.12217 ,2.02350 ,19.85462 
198 ,37.9982 ,1.12395 ,2.02008 ,19.82104 
199 ,38.1741 ,1.12580 ,1.96875 ,19.31737 
200 ,38.3663 ,1.12768 ,1.97217 ,19.35094 
201 ,38.5424 ,1.12946 ,1.96190 ,19.25021 
202 ,38.7348 ,1.13128 ,1.94822 ,19.11590 
203 ,38.9430 ,1.13335 ,1.94479 ,19.08232 
204 ,39.1349 ,1.13530 ,1.92084 ,18.84727 
205 ,39.3267 ,1.13719 ,1.91057 ,18.74654 
206 ,39.5192 ,1.13914 ,1.89004 ,18.54507 
207 ,39.7112 ,1.14111 ,1.85582 ,18.20928 
208 ,39.9035 ,1.14297 ,1.85924 ,18.24286 
209 ,40.0951 ,1.14492 ,1.82502 ,17.90708 
210 ,40.2871 ,1.14681 ,1.82502 ,17.90708 
211 ,40.4635 ,1.14866 ,1.81475 ,17.80634 
212 ,40.6395 ,1.15043 ,1.80449 ,17.70561 
213 ,40.8317 ,1.15233 ,1.77369 ,17.40340 
214 ,41.0398 ,1.15441 ,1.76342 ,17.30267 
215 ,41.2318 ,1.15625 ,1.73262 ,17.00046 
216 ,41.4077 ,1.15809 ,1.70524 ,16.73184 
217 ,41.6000 ,1.15995 ,1.73262 ,17.00046 
218 ,41.7920 ,1.16198 ,1.70524 ,16.73184 
219 ,41.9679 ,1.16364 ,1.68129 ,16.49679 
220 ,42.1602 ,1.16548 ,1.67102 ,16.39605 
221 ,42.3524 ,1.16746 ,1.66760 ,16.36248 
222 ,42.5599 ,1.16957 ,1.66418 ,16.32890 
223 ,42.7525 ,1.17148 ,1.64022 ,16.09385 
224 ,42.9606 ,1.17351 ,1.62653 ,15.95954 
225 ,43.1526 ,1.17543 ,1.60600 ,15.75807 
226 ,43.3287 ,1.17728 ,1.58547 ,15.55660 
227 ,43.5208 ,1.17912 ,1.59573 ,15.65733 
228 ,43.7128 ,1.18107 ,1.57178 ,15.42228 
229 ,43.8889 ,1.18288 ,1.54098 ,15.12008 
230 ,44.0811 ,1.18469 ,1.54440 ,15.15366 
231 ,44.2890 ,1.18677 ,1.52045 ,14.91861 
232 ,44.4812 ,1.18870 ,1.50676 ,14.78430 
233 ,44.6889 ,1.19087 ,1.48965 ,14.61640 
234 ,44.8813 ,1.19273 ,1.47596 ,14.48209 
235 ,45.0734 ,1.19466 ,1.47596 ,14.48209 
236 ,45.2656 ,1.19655 ,1.44516 ,14.17989 
237 ,45.4575 ,1.19853 ,1.45200 ,14.24704 
238 ,45.6497 ,1.20040 ,1.42805 ,14.01199 
239 ,45.8418 ,1.20238 ,1.41094 ,13.84410 
240 ,46.0655 ,1.20448 ,1.39383 ,13.67621 
241 ,46.2419 ,1.20640 ,1.38698 ,13.60906 
242 ,46.4180 ,1.20814 ,1.36987 ,13.44116 
243 ,46.6261 ,1.21015 ,1.34591 ,13.20612 
244 ,46.8181 ,1.21206 ,1.35276 ,13.27327 
245 ,46.9941 ,1.21397 ,1.34249 ,13.17254 
246 ,47.1857 ,1.21581 ,1.30827 ,12.83675 
247 ,47.3618 ,1.21764 ,1.30827 ,12.83675 
248 ,47.5543 ,1.21946 ,1.30827 ,12.83675 
249 ,47.8104 ,1.22194 ,1.28432 ,12.60171 
250 ,48.0027 ,1.22400 ,1.25009 ,12.26592 
251 ,48.1946 ,1.22594 ,1.25694 ,12.33308 
252 ,48.4026 ,1.22795 ,1.22272 ,11.99730 
253 ,48.5789 ,1.22978 ,1.21245 ,11.89656 
254 ,48.7709 ,1.23161 ,1.21587 ,11.93014 
255 ,48.9470 ,1.23343 ,1.21245 ,11.89656 
256 ,49.1230 ,1.23518 ,1.17823 ,11.56078 
257 ,49.3152 ,1.23707 ,1.17823 ,11.56078 
258 ,49.5069 ,1.23904 ,1.16112 ,11.39289 
259 ,49.6834 ,1.24080 ,1.14743 ,11.25857 
260 ,49.8752 ,1.24267 ,1.13374 ,11.12426 
261 ,50.0673 ,1.24456 ,1.12347 ,11.02353 
262 ,50.2751 ,1.24666 ,1.08583 ,10.65416 
263 ,50.4512 ,1.24854 ,1.09952 ,10.78848 
264 ,50.6433 ,1.25034 ,1.07899 ,10.58701 
265 ,50.8354 ,1.25223 ,1.06530 ,10.45270 
266 ,51.0279 ,1.25415 ,1.06530 ,10.45270 
267 ,51.2354 ,1.25628 ,1.04134 ,10.21765 
268 ,51.4280 ,1.25813 ,1.02765 ,10.08333 
269 ,51.6359 ,1.26032 ,1.00370 ,9.84829 
270 ,51.8121 ,1.26204 ,1.01054 ,9.91544 
271 ,52.0200 ,1.26405 ,0.98317 ,9.64682 
272 ,52.2443 ,1.26632 ,0.96948 ,9.51250 
273 ,52.4045 ,1.26810 ,0.94210 ,9.24388 
274 ,52.5965 ,1.26990 ,0.94552 ,9.27745 
275 ,52.7884 ,1.27175 ,0.95237 ,9.34461 
276 ,52.9804 ,1.27364 ,0.93868 ,9.21030 
277 ,53.1725 ,1.27567 ,0.91814 ,9.00883 
278 ,53.3646 ,1.27753 ,0.90103 ,8.84094 
279 ,53.5568 ,1.27952 ,0.87708 ,8.60589 
280 ,53.7489 ,1.28142 ,0.87708 ,8.60589 
281 ,53.9409 ,1.28333 ,0.86339 ,8.47158 
282 ,54.1171 ,1.28511 ,0.83601 ,8.20295 
283 ,54.3091 ,1.28695 ,0.84628 ,8.30368 
284 ,54.4848 ,1.28877 ,0.83601 ,8.20295 
285 ,54.6771 ,1.29064 ,0.80179 ,7.86717 
286 ,54.8694 ,1.29256 ,0.80863 ,7.93432 
287 ,55.0451 ,1.29444 ,0.77784 ,7.63212 
288 ,55.2536 ,1.29647 ,0.77099 ,7.56496 
289 ,55.4617 ,1.29841 ,0.78126 ,7.66570 
290 ,55.6537 ,1.30042 ,0.75046 ,7.36349 
291 ,55.8458 ,1.30241 ,0.74704 ,7.32991 
292 ,56.0379 ,1.30424 ,0.72992 ,7.16202 
293 ,56.2300 ,1.30623 ,0.71966 ,7.06129 
294 ,56.4221 ,1.30811 ,0.70597 ,6.92697 
295 ,56.5980 ,1.30996 ,0.68886 ,6.75908 
296 ,56.7903 ,1.31181 ,0.67175 ,6.59119 
297 ,56.9981 ,1.31384 ,0.65121 ,6.38972 
298 ,57.1744 ,1.31568 ,0.65121 ,6.38972 
299 ,57.3825 ,1.31765 ,0.64095 ,6.28899 
300 ,57.5746 ,1.31963 ,0.62384 ,6.12109 
301 ,57.7664 ,1.32151 ,0.61357 ,6.02036 
302 ,57.9427 ,1.32336 ,0.61357 ,6.02036 
303 ,58.1344 ,1.32536 ,0.58619 ,5.75173 
304 ,58.3267 ,1.32715 ,0.58962 ,5.78531 
305 ,58.5188 ,1.32906 ,0.57251 ,5.61742 
306 ,58.7269 ,1.33117 ,0.56566 ,5.55026 
307 ,58.9030 ,1.33304 ,0.54855 ,5.38237 
308 ,59.0953 ,1.33484 ,0.52459 ,5.14732 
309 ,59.3029 ,1.33691 ,0.53486 ,5.24806 
310 ,59.4794 ,1.33868 ,0.52459 ,5.14732 
311 ,59.6713 ,1.34059 ,0.48695 ,4.77796 
312 ,59.8632 ,1.34254 ,0.49722 ,4.87870 
313 ,60.0555 ,1.34444 ,0.48695 ,4.77796 
314 ,60.2637 ,1.34653 ,0.48353 ,4.74438 
315 ,60.4396 ,1.34833 ,0.46642 ,4.57649 
316 ,60.6158 ,1.35002 ,0.44588 ,4.37502 
317 ,60.7916 ,1.35185 ,0.42877 ,4.20713 
318 ,60.9676 ,1.35357 ,0.41509 ,4.07282 
319 ,61.1596 ,1.35544 ,0.42193 ,4.13997 
320 ,61.3362 ,1.35728 ,0.40482 ,3.97208 
321 ,61.5441 ,1.35935 ,0.39797 ,3.90493 
322 ,61.7524 ,1.36136 ,0.36718 ,3.60272 
323 ,61.9443 ,1.36332 ,0.37402 ,3.66988 
324 ,62.1363 ,1.36525 ,0.36718 ,3.60272 
325 ,62.3286 ,1.36713 ,0.33980 ,3.33410 
326 ,62.5206 ,1.36904 ,0.35006 ,3.43483 
327 ,62.6966 ,1.37088 ,0.33638 ,3.30052 
328 ,62.8887 ,1.37274 ,0.30900 ,3.03189 
329 ,63.0649 ,1.37456 ,0.30900 ,3.03189 
330 ,63.2729 ,1.37657 ,0.27478 ,2.69611 
331 ,63.4810 ,1.37864 ,0.28847 ,2.83042 
332 ,63.6731 ,1.38061 ,0.26451 ,2.59537 
333 ,63.8651 ,1.38256 ,0.24740 ,2.42748 
334 ,64.0569 ,1.38446 ,0.26109 ,2.56179 
335 ,64.2329 ,1.38621 ,0.24740 ,2.42748 
336 ,64.4254 ,1.38805 ,0.23371 ,2.29317 
337 ,64.6335 ,1.39020 ,0.19949 ,1.95738 
338 ,64.8256 ,1.39208 ,0.19949 ,1.95738 
339 ,65.0174 ,1.39404 ,0.20291 ,1.99096 
340 ,65.2096 ,1.39597 ,0.16527 ,1.62160 
341 ,65.3856 ,1.39772 ,0.16869 ,1.65518 
342 ,65.5775 ,1.39963 ,0.17211 ,1.68876 
343 ,65.7699 ,1.40150 ,0.15158 ,1.48729 
344 ,65.9460 ,1.40335 ,0.13447 ,1.31940 
345 ,66.1376 ,1.40522 ,0.13789 ,1.35298 
346 ,66.3300 ,1.40726 ,0.12762 ,1.25224 
347 ,66.5543 ,1.40928 ,0.11736 ,1.15151 
348 ,66.7462 ,1.41142 ,0.10367 ,1.01719 
349 ,66.9224 ,1.41316 ,0.07629 ,0.74857 
350 ,67.1145 ,1.41504 ,0.08656 ,0.84930 
351 ,67.3064 ,1.41688 ,0.06260 ,0.61425 
352 ,67.4821 ,1.41876 ,0.06945 ,0.68141 
353 ,67.6585 ,1.42048 ,0.04549 ,0.44636 
354 ,67.8664 ,1.42250 ,0.02838 ,0.27847 
355 ,68.0748 ,1.42457 ,0.03865 ,0.37920 
356 ,68.2669 ,1.42648 ,-0.00926 ,-0.09089 
357 ,68.4589 ,1.42838 ,0.00785 ,0.07700 
358 ,68.6511 ,1.43036 ,0.00443 ,0.04342 
359 ,68.8431 ,1.43230 ,-0.03322 ,-0.32594 
360 ,69.0192 ,1.43407 ,-0.02295 ,-0.22520 
361 ,69.2112 ,1.43607 ,-0.05375 ,-0.52741 
362 ,69.3872 ,1.43775 ,-0.05375 ,-0.52741 
363 ,69.5790 ,1.43964 ,-0.06060 ,-0.59457 
364 ,69.7554 ,1.44151 ,-0.05717 ,-0.56099 
365 ,69.9475 ,1.44329 ,-0.08113 ,-0.79604 
366 ,70.1556 ,1.44528 ,-0.09824 ,-0.96393 
367 ,70.3475 ,1.44729 ,-0.08455 ,-0.82961 
368 ,70.5238 ,1.44913 ,-0.10851 ,-1.06466 
369 ,70.7154 ,1.45100 ,-0.10508 ,-1.03108 
370 ,70.8920 ,1.45283 ,-0.11535 ,-1.13182 
371 ,71.0840 ,1.45466 ,-0.14957 ,-1.46760 
372 ,71.2760 ,1.45655 ,-0.14957 ,-1.46760 
373 ,71.4521 ,1.45839 ,-0.14273 ,-1.40045 
374 ,71.6440 ,1.46027 ,-0.16668 ,-1.63549 
375 ,71.8363 ,1.46219 ,-0.16668 ,-1.63549 
376 ,72.0122 ,1.46398 ,-0.16668 ,-1.63549 
377 ,72.2043 ,1.46594 ,-0.18722 ,-1.83696 
378 ,72.3805 ,1.46767 ,-0.20775 ,-2.03843 
379 ,72.5566 ,1.46946 ,-0.21802 ,-2.13917 
380 ,72.7486 ,1.47132 ,-0.21459 ,-2.10559 
381 ,72.9728 ,1.47340 ,-0.23170 ,-2.27348 
382 ,73.1487 ,1.47541 ,-0.24881 ,-2.44137 
383 ,73.3249 ,1.47713 ,-0.24881 ,-2.44137 
384 ,73.5169 ,1.47895 ,-0.27277 ,-2.67642 
385 ,73.6931 ,1.48076 ,-0.27277 ,-2.67642 
386 ,73.9007 ,1.48271 ,-0.28304 ,-2.77716 
387 ,74.0933 ,1.48474 ,-0.27619 ,-2.71000 
388 ,74.3173 ,1.48687 ,-0.30357 ,-2.97863 
389 ,74.5095 ,1.48891 ,-0.30015 ,-2.94505 
390 ,74.7015 ,1.49080 ,-0.33095 ,-3.24725 
391 ,74.8937 ,1.49277 ,-0.32410 ,-3.18010 
392 ,75.0857 ,1.49467 ,-0.33437 ,-3.28083 
393 ,75.2937 ,1.49675 ,-0.35148 ,-3.44872 
394 ,75.4698 ,1.49863 ,-0.35148 ,-3.44872 
395 ,75.6619 ,1.50045 ,-0.37544 ,-3.68377 
396 ,75.8379 ,1.50222 ,-0.38912 ,-3.81808 
397 ,76.0141 ,1.50399 ,-0.39939 ,-3.91882 
398 ,76.2059 ,1.50587 ,-0.37886 ,-3.71735 
399 ,76.3981 ,1.50783 ,-0.42335 ,-4.15387 
400 ,76.5743 ,1.50962 ,-0.40966 ,-4.01955 
401 ,76.7824 ,1.51159 ,-0.41992 ,-4.12029 
402 ,76.9745 ,1.51354 ,-0.43361 ,-4.25460 
403 ,77.1661 ,1.51546 ,-0.42677 ,-4.18744 
404 ,77.3586 ,1.51740 ,-0.45072 ,-4.42249 
405 ,77.5507 ,1.51931 ,-0.44730 ,-4.38891 
406 ,77.7587 ,1.52135 ,-0.47126 ,-4.62396 
407 ,77.9509 ,1.52331 ,-0.46783 ,-4.59038 
408 ,78.1428 ,1.52522 ,-0.49179 ,-4.82543 
409 ,78.3188 ,1.52702 ,-0.49521 ,-4.85901 
410 ,78.5109 ,1.52892 ,-0.50890 ,-4.99332 
411 ,78.6870 ,1.53074 ,-0.51917 ,-5.09406 
412 ,78.8632 ,1.53250 ,-0.51574 ,-5.06048 
413 ,79.0711 ,1.53441 ,-0.54997 ,-5.39626 
414 ,79.2950 ,1.53673 ,-0.53970 ,-5.29553 
415 ,79.4874 ,1.53865 ,-0.54654 ,-5.36268 
416 ,79.6635 ,1.54051 ,-0.55681 ,-5.46342 
417 ,79.8556 ,1.54237 ,-0.57734 ,-5.66489 
418 ,80.0637 ,1.54443 ,-0.57392 ,-5.63131 
419 ,80.2558 ,1.54638 ,-0.59445 ,-5.83278 
420 ,80.4639 ,1.54843 ,-0.59103 ,-5.79920 
421 ,80.6719 ,1.55050 ,-0.61499 ,-6.03425 
422 ,80.8640 ,1.55237 ,-0.61156 ,-6.00067 
423 ,81.0560 ,1.55434 ,-0.63210 ,-6.20214 
424 ,81.2321 ,1.55615 ,-0.64236 ,-6.30288 
425 ,81.4243 ,1.55798 ,-0.63210 ,-6.20214 
426 ,81.6163 ,1.55996 ,-0.65263 ,-6.40361 
427 ,81.8084 ,1.56186 ,-0.65605 ,-6.43719 
428 ,82.0005 ,1.56380 ,-0.66290 ,-6.50435 
429 ,82.2082 ,1.56590 ,-0.66974 ,-6.57150 
430 ,82.4006 ,1.56783 ,-0.68001 ,-6.67224 
431 ,82.5762 ,1.56957 ,-0.69370 ,-6.80655 
432 ,82.7688 ,1.57148 ,-0.70054 ,-6.87371 
433 ,82.9768 ,1.57353 ,-0.73134 ,-7.17591 
434 ,83.1690 ,1.57543 ,-0.71423 ,-7.00802 
435 ,83.3769 ,1.57753 ,-0.73818 ,-7.24307 
436 ,83.5689 ,1.57945 ,-0.73818 ,-7.24307 
437 ,83.7613 ,1.58139 ,-0.74161 ,-7.27665 
438 ,83.9693 ,1.58346 ,-0.76214 ,-7.47812 
439 ,84.1454 ,1.58534 ,-0.75530 ,-7.41096 
440 ,84.3373 ,1.58709 ,-0.76556 ,-7.51170 
441 ,84.5135 ,1.58898 ,-0.78952 ,-7.74674 
442 ,84.7054 ,1.59085 ,-0.80663 ,-7.91464 
443 ,84.8976 ,1.59272 ,-0.79636 ,-7.81390 
444 ,85.0733 ,1.59460 ,-0.82374 ,-8.08253 
445 ,85.2658 ,1.59650 ,-0.80663 ,-7.91464 
446 ,85.4579 ,1.59833 ,-0.81689 ,-8.01537 
447 ,85.6340 ,1.60015 ,-0.83743 ,-8.21684 
448 ,85.8420 ,1.60220 ,-0.84769 ,-8.31758 
449 ,86.0339 ,1.60414 ,-0.85796 ,-8.41831 
450 ,86.2263 ,1.60601 ,-0.87165 ,-8.55262 
451 ,86.4022 ,1.60783 ,-0.86823 ,-8.51904 
452 ,86.5944 ,1.60971 ,-0.88534 ,-8.68694 
453 ,86.7863 ,1.61166 ,-0.88534 ,-8.68694 
454 ,86.9786 ,1.61357 ,-0.88876 ,-8.72051 
455 ,87.1864 ,1.61564 ,-0.91956 ,-9.02272 
456 ,87.3788 ,1.61751 ,-0.91272 ,-8.95556 
457 ,87.5869 ,1.61955 ,-0.93325 ,-9.15703 
458 ,87.7789 ,1.62153 ,-0.91614 ,-8.98914 
459 ,87.9550 ,1.62344 ,-0.94694 ,-9.29135 
460 ,88.1310 ,1.62515 ,-0.95036 ,-9.32492 
461 ,88.3072 ,1.62687 ,-0.96063 ,-9.42566 
462 ,88.5152 ,1.62891 ,-0.96747 ,-9.49282 
463 ,88.6914 ,1.63073 ,-0.97089 ,-9.52639 
