Data stamp = , 26-04-2022 15:23:01 182

Calibration Values: 
Slope = , 26.54 , g/V 
Offset Voltage at no contact = , -0.501760 , V 

No , Time , Stage Position ,   Mass , Force 
   ,  (s) ,      (mm)      ,   (g)  , (mN)  

1 ,0.0000 ,0.74945 ,5.32589 ,52.25768 
2 ,0.2126 ,0.74953 ,5.31905 ,52.19052 
3 ,0.6449 ,0.75093 ,5.32247 ,52.22410 
4 ,0.8532 ,0.75277 ,5.32247 ,52.22410 
5 ,1.0450 ,0.75461 ,5.33958 ,52.39199 
6 ,1.2375 ,0.75656 ,5.31905 ,52.19052 
7 ,1.4454 ,0.75856 ,5.34643 ,52.45915 
8 ,1.6536 ,0.76060 ,5.31563 ,52.15694 
9 ,1.8612 ,0.76274 ,5.32932 ,52.29126 
10 ,2.0534 ,0.76472 ,5.30536 ,52.05621 
11 ,2.2457 ,0.76663 ,5.29852 ,51.98905 
12 ,2.4218 ,0.76841 ,5.28483 ,51.85474 
13 ,2.6140 ,0.77033 ,5.26087 ,51.61969 
14 ,2.8059 ,0.77224 ,5.24034 ,51.41822 
15 ,2.9818 ,0.77404 ,5.20954 ,51.11602 
16 ,3.1581 ,0.77580 ,5.20270 ,51.04886 
17 ,3.3500 ,0.77768 ,5.18559 ,50.88097 
18 ,3.5422 ,0.77960 ,5.16163 ,50.64592 
19 ,3.7343 ,0.78148 ,5.14452 ,50.47803 
20 ,3.9105 ,0.78333 ,5.10688 ,50.10867 
21 ,4.1024 ,0.78517 ,5.11714 ,50.20940 
22 ,4.3105 ,0.78726 ,5.08634 ,49.90720 
23 ,4.5026 ,0.78916 ,5.08292 ,49.87362 
24 ,4.6787 ,0.79097 ,5.04870 ,49.53784 
25 ,4.8706 ,0.79282 ,5.02474 ,49.30279 
26 ,5.0626 ,0.79473 ,5.01448 ,49.20205 
27 ,5.2549 ,0.79673 ,4.99737 ,49.03416 
28 ,5.4471 ,0.79868 ,4.97341 ,48.79911 
29 ,5.6549 ,0.80074 ,4.95288 ,48.59764 
30 ,5.8472 ,0.80260 ,4.95630 ,48.63122 
31 ,6.0233 ,0.80441 ,4.92892 ,48.36260 
32 ,6.2314 ,0.80648 ,4.90155 ,48.09397 
33 ,6.4393 ,0.80855 ,4.87759 ,47.85892 
34 ,6.6476 ,0.81049 ,4.87075 ,47.79177 
35 ,6.8556 ,0.81272 ,4.83310 ,47.42240 
36 ,7.0326 ,0.81453 ,4.80915 ,47.18736 
37 ,7.2393 ,0.81657 ,4.79888 ,47.08662 
38 ,7.4479 ,0.81852 ,4.77835 ,46.88515 
39 ,7.6400 ,0.82055 ,4.77150 ,46.81800 
40 ,7.8643 ,0.82276 ,4.75097 ,46.61653 
41 ,8.0561 ,0.82470 ,4.72359 ,46.34790 
42 ,8.2481 ,0.82662 ,4.72017 ,46.31432 
43 ,8.4403 ,0.82852 ,4.67911 ,45.91138 
44 ,8.6323 ,0.83050 ,4.65515 ,45.67633 
45 ,8.8084 ,0.83226 ,4.65515 ,45.67633 
46 ,9.0166 ,0.83432 ,4.63462 ,45.47486 
47 ,9.2087 ,0.83621 ,4.61408 ,45.27339 
48 ,9.4002 ,0.83817 ,4.61066 ,45.23981 
49 ,9.5927 ,0.84006 ,4.58328 ,44.97119 
50 ,9.7688 ,0.84196 ,4.57302 ,44.87045 
51 ,9.9449 ,0.84365 ,4.56275 ,44.76972 
52 ,10.1210 ,0.84538 ,4.54222 ,44.56825 
53 ,10.2969 ,0.84723 ,4.51142 ,44.26604 
54 ,10.4727 ,0.84895 ,4.50457 ,44.19889 
55 ,10.6491 ,0.85075 ,4.50115 ,44.16531 
56 ,10.8412 ,0.85252 ,4.45666 ,43.72879 
57 ,11.0490 ,0.85458 ,4.46351 ,43.79595 
58 ,11.2254 ,0.85645 ,4.42929 ,43.46016 
59 ,11.4175 ,0.85830 ,4.40875 ,43.25870 
60 ,11.5936 ,0.86010 ,4.38480 ,43.02365 
61 ,11.7697 ,0.86185 ,4.37111 ,42.88933 
62 ,11.9777 ,0.86389 ,4.35058 ,42.68786 
63 ,12.1697 ,0.86583 ,4.35742 ,42.75502 
64 ,12.3618 ,0.86777 ,4.32662 ,42.45282 
65 ,12.5539 ,0.86967 ,4.29924 ,42.18419 
66 ,12.7300 ,0.87147 ,4.29582 ,42.15061 
67 ,12.9382 ,0.87351 ,4.27187 ,41.91556 
68 ,13.1303 ,0.87548 ,4.24449 ,41.64694 
69 ,13.3223 ,0.87739 ,4.24791 ,41.68051 
70 ,13.5144 ,0.87926 ,4.20685 ,41.27758 
71 ,13.6900 ,0.88108 ,4.20342 ,41.24400 
72 ,13.8824 ,0.88297 ,4.19316 ,41.14326 
73 ,14.0744 ,0.88487 ,4.15551 ,40.77390 
74 ,14.2668 ,0.88675 ,4.15894 ,40.80748 
75 ,14.4748 ,0.88886 ,4.11787 ,40.40454 
76 ,14.6667 ,0.89077 ,4.11103 ,40.33738 
77 ,14.8589 ,0.89268 ,4.10760 ,40.30380 
78 ,15.0190 ,0.89449 ,4.07338 ,39.96802 
79 ,15.1949 ,0.89608 ,4.07338 ,39.96802 
80 ,15.3713 ,0.89788 ,4.04258 ,39.66582 
81 ,15.5631 ,0.89975 ,4.02889 ,39.53150 
82 ,15.7393 ,0.90159 ,4.01520 ,39.39719 
83 ,15.9312 ,0.90341 ,3.99809 ,39.22930 
84 ,16.1074 ,0.90524 ,3.98441 ,39.09499 
85 ,16.3156 ,0.90723 ,3.94334 ,38.69205 
86 ,16.4912 ,0.90911 ,3.94676 ,38.72562 
87 ,16.6997 ,0.91103 ,3.92965 ,38.55773 
88 ,16.8916 ,0.91298 ,3.90570 ,38.32268 
89 ,17.0839 ,0.91495 ,3.90227 ,38.28911 
90 ,17.2918 ,0.91696 ,3.86121 ,37.88617 
91 ,17.4839 ,0.91890 ,3.87490 ,38.02048 
92 ,17.6762 ,0.92088 ,3.84067 ,37.68470 
93 ,17.8683 ,0.92276 ,3.82699 ,37.55038 
94 ,18.0603 ,0.92464 ,3.80987 ,37.38249 
95 ,18.2525 ,0.92661 ,3.76539 ,36.94597 
96 ,18.4604 ,0.92868 ,3.76881 ,36.97955 
97 ,18.6526 ,0.93061 ,3.74143 ,36.71093 
98 ,18.8607 ,0.93275 ,3.73459 ,36.64377 
99 ,19.0684 ,0.93486 ,3.70721 ,36.37514 
100 ,19.2769 ,0.93679 ,3.70037 ,36.30799 
101 ,19.4849 ,0.93899 ,3.66957 ,36.00578 
102 ,19.6770 ,0.94087 ,3.66272 ,35.93863 
103 ,19.8690 ,0.94288 ,3.63534 ,35.67000 
104 ,20.0613 ,0.94474 ,3.63534 ,35.67000 
105 ,20.2373 ,0.94661 ,3.59770 ,35.30064 
106 ,20.4134 ,0.94824 ,3.57717 ,35.09917 
107 ,20.6051 ,0.95012 ,3.57375 ,35.06559 
108 ,20.7975 ,0.95210 ,3.56348 ,34.96485 
109 ,20.9897 ,0.95400 ,3.53268 ,34.66265 
110 ,21.1977 ,0.95607 ,3.50872 ,34.42760 
111 ,21.3898 ,0.95808 ,3.51215 ,34.46118 
112 ,21.5977 ,0.96011 ,3.48819 ,34.22613 
113 ,21.7899 ,0.96202 ,3.45739 ,33.92393 
114 ,21.9820 ,0.96394 ,3.45397 ,33.89035 
115 ,22.1901 ,0.96597 ,3.43344 ,33.68888 
116 ,22.3658 ,0.96779 ,3.40606 ,33.42025 
117 ,22.5582 ,0.96967 ,3.38895 ,33.25236 
118 ,22.7503 ,0.97158 ,3.36842 ,33.05089 
119 ,22.9265 ,0.97343 ,3.36157 ,32.98374 
120 ,23.1185 ,0.97529 ,3.34104 ,32.78227 
121 ,23.3105 ,0.97716 ,3.31708 ,32.54722 
122 ,23.4864 ,0.97907 ,3.32051 ,32.58080 
123 ,23.6626 ,0.98076 ,3.29655 ,32.34575 
124 ,23.8547 ,0.98260 ,3.26917 ,32.07712 
125 ,24.0468 ,0.98461 ,3.25206 ,31.90923 
126 ,24.2390 ,0.98649 ,3.24864 ,31.87565 
127 ,24.4467 ,0.98851 ,3.21784 ,31.57345 
128 ,24.6551 ,0.99054 ,3.20757 ,31.47271 
129 ,24.8627 ,0.99270 ,3.19046 ,31.30482 
130 ,25.0395 ,0.99453 ,3.17677 ,31.17051 
131 ,25.2314 ,0.99640 ,3.15624 ,30.96904 
132 ,25.4233 ,0.99828 ,3.13913 ,30.80115 
133 ,25.5991 ,1.00009 ,3.12202 ,30.63325 
134 ,25.7756 ,1.00191 ,3.11518 ,30.56610 
135 ,25.9677 ,1.00378 ,3.08780 ,30.29747 
136 ,26.1435 ,1.00555 ,3.06726 ,30.09600 
137 ,26.3359 ,1.00745 ,3.03989 ,29.82737 
138 ,26.5118 ,1.00923 ,3.04331 ,29.86095 
139 ,26.6877 ,1.01098 ,3.00224 ,29.45801 
140 ,26.8640 ,1.01275 ,3.00909 ,29.52517 
141 ,27.0402 ,1.01455 ,3.00224 ,29.45801 
142 ,27.2479 ,1.01654 ,2.98513 ,29.29012 
143 ,27.4083 ,1.01832 ,2.96460 ,29.08865 
144 ,27.6003 ,1.02007 ,2.94749 ,28.92076 
145 ,27.7924 ,1.02199 ,2.93038 ,28.75287 
146 ,27.9846 ,1.02398 ,2.90985 ,28.55140 
147 ,28.1766 ,1.02586 ,2.89273 ,28.38351 
148 ,28.3847 ,1.02790 ,2.87220 ,28.18204 
149 ,28.5607 ,1.02979 ,2.86193 ,28.08130 
150 ,28.7526 ,1.03159 ,2.83456 ,27.81268 
151 ,28.9450 ,1.03354 ,2.80718 ,27.54405 
152 ,29.1530 ,1.03558 ,2.81402 ,27.61121 
153 ,29.3451 ,1.03756 ,2.78322 ,27.30900 
154 ,29.5371 ,1.03946 ,2.77980 ,27.27542 
155 ,29.7293 ,1.04134 ,2.74558 ,26.93964 
156 ,29.9210 ,1.04330 ,2.75243 ,27.00680 
157 ,30.0972 ,1.04510 ,2.73874 ,26.87248 
158 ,30.2895 ,1.04698 ,2.70109 ,26.50312 
159 ,30.4816 ,1.04887 ,2.68740 ,26.36881 
160 ,30.7055 ,1.05104 ,2.68056 ,26.30165 
161 ,30.8812 ,1.05292 ,2.66687 ,26.16734 
162 ,31.0577 ,1.05466 ,2.64634 ,25.96587 
163 ,31.2496 ,1.05660 ,2.61212 ,25.63009 
164 ,31.4259 ,1.05838 ,2.59158 ,25.42862 
165 ,31.6340 ,1.06034 ,2.56763 ,25.19357 
166 ,31.8261 ,1.06233 ,2.57105 ,25.22715 
167 ,32.0178 ,1.06432 ,2.55736 ,25.09283 
168 ,32.2103 ,1.06617 ,2.53683 ,24.89136 
169 ,32.4182 ,1.06823 ,2.52998 ,24.82421 
170 ,32.6104 ,1.07011 ,2.49918 ,24.52200 
171 ,32.8184 ,1.07221 ,2.49234 ,24.45485 
172 ,33.0104 ,1.07415 ,2.46839 ,24.21980 
173 ,33.1865 ,1.07592 ,2.46154 ,24.15264 
174 ,33.3786 ,1.07780 ,2.45470 ,24.08549 
175 ,33.5543 ,1.07964 ,2.44443 ,23.98475 
176 ,33.7469 ,1.08154 ,2.42048 ,23.74970 
177 ,33.9389 ,1.08340 ,2.41021 ,23.64897 
178 ,34.1311 ,1.08534 ,2.36914 ,23.24603 
179 ,34.3231 ,1.08732 ,2.34861 ,23.04456 
180 ,34.5151 ,1.08919 ,2.34861 ,23.04456 
181 ,34.7232 ,1.09124 ,2.33834 ,22.94382 
182 ,34.9153 ,1.09318 ,2.32808 ,22.84309 
183 ,35.1230 ,1.09522 ,2.30754 ,22.64162 
184 ,35.2992 ,1.09707 ,2.29043 ,22.47373 
185 ,35.4755 ,1.09887 ,2.27674 ,22.33941 
186 ,35.6675 ,1.10073 ,2.24252 ,22.00363 
187 ,35.8437 ,1.10254 ,2.24252 ,22.00363 
188 ,36.0359 ,1.10443 ,2.22883 ,21.86932 
189 ,36.2277 ,1.10631 ,2.19803 ,21.56711 
190 ,36.4039 ,1.10812 ,2.19461 ,21.53353 
191 ,36.6117 ,1.11010 ,2.16039 ,21.19775 
192 ,36.8041 ,1.11203 ,2.16039 ,21.19775 
193 ,37.0283 ,1.11427 ,2.13986 ,20.99628 
194 ,37.2362 ,1.11639 ,2.12959 ,20.89555 
195 ,37.4118 ,1.11815 ,2.09879 ,20.59334 
196 ,37.6044 ,1.12007 ,2.07826 ,20.39187 
197 ,37.8125 ,1.12216 ,2.07141 ,20.32472 
198 ,38.0043 ,1.12408 ,2.06115 ,20.22398 
199 ,38.1966 ,1.12598 ,2.05430 ,20.15682 
200 ,38.4046 ,1.12808 ,2.02008 ,19.82104 
201 ,38.5807 ,1.12994 ,2.02008 ,19.82104 
202 ,38.7569 ,1.13165 ,2.01324 ,19.75388 
203 ,38.9648 ,1.13363 ,1.97559 ,19.38452 
204 ,39.1566 ,1.13555 ,1.96190 ,19.25021 
205 ,39.3486 ,1.13752 ,1.94822 ,19.11590 
206 ,39.5406 ,1.13942 ,1.93111 ,18.94801 
207 ,39.7486 ,1.14147 ,1.91057 ,18.74654 
208 ,39.9407 ,1.14341 ,1.90373 ,18.67938 
209 ,40.1332 ,1.14536 ,1.89688 ,18.61222 
210 ,40.3574 ,1.14767 ,1.87293 ,18.37717 
211 ,40.5973 ,1.14988 ,1.84897 ,18.14213 
212 ,40.8054 ,1.15208 ,1.82844 ,17.94066 
213 ,41.0137 ,1.15418 ,1.83528 ,18.00781 
214 ,41.2059 ,1.15615 ,1.79080 ,17.57129 
215 ,41.3979 ,1.15800 ,1.78737 ,17.53772 
216 ,41.5898 ,1.15992 ,1.77369 ,17.40340 
217 ,41.7656 ,1.16177 ,1.76684 ,17.33625 
218 ,41.9740 ,1.16371 ,1.76000 ,17.26909 
219 ,42.1660 ,1.16575 ,1.73262 ,17.00046 
220 ,42.3418 ,1.16747 ,1.70182 ,16.69826 
221 ,42.5340 ,1.16931 ,1.70866 ,16.76542 
222 ,42.7262 ,1.17126 ,1.67786 ,16.46321 
223 ,42.9343 ,1.17332 ,1.68471 ,16.53037 
224 ,43.1266 ,1.17536 ,1.65733 ,16.26174 
225 ,43.3345 ,1.17733 ,1.65391 ,16.22816 
226 ,43.5107 ,1.17915 ,1.62311 ,15.92596 
227 ,43.7184 ,1.18119 ,1.62311 ,15.92596 
228 ,43.9104 ,1.18314 ,1.61627 ,15.85880 
229 ,44.1028 ,1.18501 ,1.57178 ,15.42228 
230 ,44.2948 ,1.18699 ,1.57862 ,15.48944 
231 ,44.4709 ,1.18875 ,1.56836 ,15.38871 
232 ,44.6790 ,1.19079 ,1.56151 ,15.32155 
233 ,44.8553 ,1.19262 ,1.54098 ,15.12008 
234 ,45.0467 ,1.19447 ,1.52387 ,14.95219 
235 ,45.2234 ,1.19627 ,1.50333 ,14.75072 
236 ,45.4153 ,1.19821 ,1.49649 ,14.68356 
237 ,45.6076 ,1.20003 ,1.46227 ,14.34778 
238 ,45.8154 ,1.20213 ,1.47596 ,14.48209 
239 ,46.0077 ,1.20410 ,1.43489 ,14.07915 
240 ,46.1995 ,1.20600 ,1.42805 ,14.01199 
241 ,46.4079 ,1.20810 ,1.40751 ,13.81053 
242 ,46.5997 ,1.20999 ,1.41094 ,13.84410 
243 ,46.7760 ,1.21180 ,1.40409 ,13.77695 
244 ,46.9678 ,1.21371 ,1.37329 ,13.47474 
245 ,47.1598 ,1.21570 ,1.38356 ,13.57548 
246 ,47.3520 ,1.21753 ,1.36987 ,13.44116 
247 ,47.5761 ,1.21961 ,1.33223 ,13.07180 
248 ,47.7684 ,1.22168 ,1.30827 ,12.83675 
249 ,47.9604 ,1.22366 ,1.31854 ,12.93749 
250 ,48.1522 ,1.22554 ,1.30485 ,12.80318 
251 ,48.3287 ,1.22738 ,1.26378 ,12.40024 
252 ,48.5205 ,1.22914 ,1.27747 ,12.53455 
253 ,48.7128 ,1.23117 ,1.24667 ,12.23235 
254 ,48.9044 ,1.23314 ,1.24667 ,12.23235 
255 ,49.0809 ,1.23484 ,1.21245 ,11.89656 
256 ,49.3048 ,1.23694 ,1.21929 ,11.96372 
257 ,49.4969 ,1.23898 ,1.20561 ,11.82941 
258 ,49.7052 ,1.24099 ,1.18165 ,11.59436 
259 ,49.8811 ,1.24286 ,1.17823 ,11.56078 
260 ,50.0734 ,1.24474 ,1.16796 ,11.46004 
261 ,50.2655 ,1.24668 ,1.14743 ,11.25857 
262 ,50.4730 ,1.24870 ,1.13716 ,11.15784 
263 ,50.6495 ,1.25057 ,1.12005 ,10.98995 
264 ,50.8253 ,1.25233 ,1.10294 ,10.82206 
265 ,51.0017 ,1.25405 ,1.08925 ,10.68774 
266 ,51.1937 ,1.25587 ,1.09267 ,10.72132 
267 ,51.3856 ,1.25786 ,1.05845 ,10.38554 
268 ,51.5777 ,1.25978 ,1.06187 ,10.41912 
269 ,51.7541 ,1.26157 ,1.05161 ,10.31838 
270 ,51.9459 ,1.26345 ,1.02423 ,10.04976 
271 ,52.1386 ,1.26542 ,1.02423 ,10.04976 
272 ,52.3303 ,1.26730 ,1.01054 ,9.91544 
273 ,52.5062 ,1.26908 ,0.99685 ,9.78113 
274 ,52.6823 ,1.27089 ,0.99343 ,9.74755 
275 ,52.8744 ,1.27268 ,0.98317 ,9.64682 
276 ,53.0825 ,1.27478 ,0.94210 ,9.24388 
277 ,53.2746 ,1.27675 ,0.95579 ,9.37819 
278 ,53.4662 ,1.27866 ,0.92157 ,9.04241 
279 ,53.6582 ,1.28058 ,0.92157 ,9.04241 
280 ,53.8823 ,1.28277 ,0.89761 ,8.80736 
281 ,54.0749 ,1.28476 ,0.90446 ,8.87451 
282 ,54.2828 ,1.28685 ,0.86339 ,8.47158 
283 ,54.4751 ,1.28883 ,0.86681 ,8.50515 
284 ,54.6670 ,1.29059 ,0.84970 ,8.33726 
285 ,54.8753 ,1.29272 ,0.85312 ,8.37084 
286 ,55.0670 ,1.29466 ,0.83601 ,8.20295 
287 ,55.2593 ,1.29654 ,0.80863 ,7.93432 
288 ,55.4512 ,1.29857 ,0.79837 ,7.83359 
289 ,55.6437 ,1.30039 ,0.77441 ,7.59854 
290 ,55.8357 ,1.30236 ,0.79495 ,7.80001 
291 ,56.0279 ,1.30428 ,0.76415 ,7.49780 
292 ,56.2355 ,1.30632 ,0.75046 ,7.36349 
293 ,56.4121 ,1.30811 ,0.75046 ,7.36349 
294 ,56.6196 ,1.31015 ,0.72650 ,7.12844 
295 ,56.8120 ,1.31205 ,0.71281 ,6.99413 
296 ,56.9878 ,1.31393 ,0.69228 ,6.79266 
297 ,57.1642 ,1.31560 ,0.68886 ,6.75908 
298 ,57.3721 ,1.31766 ,0.68886 ,6.75908 
299 ,57.5804 ,1.31971 ,0.66490 ,6.52403 
300 ,57.7562 ,1.32157 ,0.65121 ,6.38972 
301 ,57.9485 ,1.32343 ,0.65464 ,6.42330 
302 ,58.1410 ,1.32536 ,0.62726 ,6.15467 
303 ,58.3488 ,1.32745 ,0.61357 ,6.02036 
304 ,58.5406 ,1.32933 ,0.60673 ,5.95320 
305 ,58.7164 ,1.33114 ,0.58962 ,5.78531 
306 ,58.8765 ,1.33292 ,0.59304 ,5.81889 
307 ,59.0687 ,1.33463 ,0.57593 ,5.65100 
308 ,59.2607 ,1.33661 ,0.56224 ,5.51668 
309 ,59.4691 ,1.33860 ,0.55197 ,5.41595 
310 ,59.6453 ,1.34046 ,0.53486 ,5.24806 
311 ,59.8534 ,1.34248 ,0.54513 ,5.34879 
312 ,60.0613 ,1.34446 ,0.52117 ,5.11375 
313 ,60.2693 ,1.34668 ,0.50064 ,4.91228 
314 ,60.4456 ,1.34849 ,0.48353 ,4.74438 
315 ,60.6536 ,1.35041 ,0.45957 ,4.50934 
316 ,60.8455 ,1.35242 ,0.46642 ,4.57649 
317 ,61.0537 ,1.35438 ,0.45615 ,4.47576 
318 ,61.2298 ,1.35631 ,0.42877 ,4.20713 
319 ,61.4220 ,1.35814 ,0.42877 ,4.20713 
320 ,61.6298 ,1.36026 ,0.43562 ,4.27429 
321 ,61.8061 ,1.36206 ,0.42193 ,4.13997 
322 ,61.9981 ,1.36401 ,0.41851 ,4.10640 
323 ,62.1903 ,1.36582 ,0.39455 ,3.87135 
324 ,62.3978 ,1.36789 ,0.37402 ,3.66988 
325 ,62.5743 ,1.36972 ,0.35349 ,3.46841 
326 ,62.7663 ,1.37160 ,0.36033 ,3.53557 
327 ,62.9586 ,1.37350 ,0.33980 ,3.33410 
328 ,63.1506 ,1.37542 ,0.33980 ,3.33410 
329 ,63.3427 ,1.37732 ,0.32953 ,3.23336 
330 ,63.5506 ,1.37940 ,0.32269 ,3.16620 
331 ,63.7590 ,1.38159 ,0.27820 ,2.72969 
332 ,63.9669 ,1.38356 ,0.27820 ,2.72969 
333 ,64.1590 ,1.38552 ,0.27478 ,2.69611 
334 ,64.3351 ,1.38735 ,0.26793 ,2.62895 
335 ,64.5268 ,1.38923 ,0.27135 ,2.66253 
336 ,64.7190 ,1.39111 ,0.24398 ,2.39390 
337 ,64.9275 ,1.39322 ,0.24740 ,2.42748 
338 ,65.1032 ,1.39501 ,0.22687 ,2.22601 
339 ,65.2956 ,1.39691 ,0.20976 ,2.05812 
340 ,65.4874 ,1.39880 ,0.20291 ,1.99096 
341 ,65.6798 ,1.40070 ,0.17896 ,1.75592 
342 ,65.8878 ,1.40274 ,0.18580 ,1.82307 
343 ,66.0959 ,1.40489 ,0.17896 ,1.75592 
344 ,66.2877 ,1.40680 ,0.17553 ,1.72234 
345 ,66.4801 ,1.40871 ,0.14131 ,1.38655 
346 ,66.6877 ,1.41075 ,0.15158 ,1.48729 
347 ,66.8961 ,1.41277 ,0.11051 ,1.08435 
348 ,67.1042 ,1.41492 ,0.11051 ,1.08435 
349 ,67.2803 ,1.41677 ,0.10709 ,1.05077 
350 ,67.4725 ,1.41862 ,0.10367 ,1.01719 
351 ,67.6645 ,1.42067 ,0.07287 ,0.71499 
352 ,67.8405 ,1.42233 ,0.06602 ,0.64783 
353 ,68.0166 ,1.42415 ,0.04891 ,0.47994 
354 ,68.2248 ,1.42616 ,0.04549 ,0.44636 
355 ,68.4168 ,1.42810 ,0.03522 ,0.34563 
356 ,68.6249 ,1.43012 ,0.02154 ,0.21131 
357 ,68.8168 ,1.43208 ,0.02496 ,0.24489 
358 ,69.0411 ,1.43425 ,0.02496 ,0.24489 
359 ,69.2491 ,1.43639 ,0.00443 ,0.04342 
360 ,69.4413 ,1.43837 ,-0.01611 ,-0.15805 
361 ,69.6492 ,1.44033 ,-0.00926 ,-0.09089 
362 ,69.8417 ,1.44228 ,-0.04006 ,-0.39310 
363 ,70.0334 ,1.44423 ,-0.04006 ,-0.39310 
364 ,70.2256 ,1.44611 ,-0.05033 ,-0.49383 
365 ,70.4176 ,1.44810 ,-0.07086 ,-0.69530 
366 ,70.6097 ,1.45005 ,-0.06402 ,-0.62814 
367 ,70.8017 ,1.45190 ,-0.07771 ,-0.76246 
368 ,71.0095 ,1.45394 ,-0.07086 ,-0.69530 
369 ,71.1858 ,1.45588 ,-0.10166 ,-0.99751 
370 ,71.3940 ,1.45776 ,-0.11877 ,-1.16540 
371 ,71.6021 ,1.45993 ,-0.12904 ,-1.26613 
372 ,71.7941 ,1.46180 ,-0.12219 ,-1.19898 
373 ,71.9862 ,1.46372 ,-0.14273 ,-1.40045 
374 ,72.1457 ,1.46553 ,-0.14615 ,-1.43402 
375 ,72.3223 ,1.46715 ,-0.15642 ,-1.53476 
376 ,72.5146 ,1.46903 ,-0.18379 ,-1.80338 
377 ,72.9623 ,1.47234 ,-0.19064 ,-1.87054 
378 ,73.1387 ,1.47534 ,-0.20433 ,-2.00485 
379 ,73.3307 ,1.47720 ,-0.20433 ,-2.00485 
380 ,73.5549 ,1.47932 ,-0.23855 ,-2.34064 
381 ,73.7471 ,1.48139 ,-0.22486 ,-2.20632 
382 ,73.9392 ,1.48330 ,-0.24197 ,-2.37422 
383 ,74.1472 ,1.48535 ,-0.24197 ,-2.37422 
384 ,74.3069 ,1.48712 ,-0.25908 ,-2.54211 
385 ,74.4834 ,1.48882 ,-0.25908 ,-2.54211 
386 ,74.6754 ,1.49069 ,-0.30357 ,-2.97863 
387 ,74.8836 ,1.49270 ,-0.30015 ,-2.94505 
388 ,75.0756 ,1.49468 ,-0.30699 ,-3.01220 
389 ,75.2834 ,1.49666 ,-0.30699 ,-3.01220 
390 ,75.4758 ,1.49864 ,-0.32752 ,-3.21367 
391 ,75.6676 ,1.50066 ,-0.32752 ,-3.21367 
392 ,75.8439 ,1.50239 ,-0.32752 ,-3.21367 
393 ,76.0361 ,1.50433 ,-0.35832 ,-3.51588 
394 ,76.2441 ,1.50628 ,-0.36175 ,-3.54946 
395 ,76.4358 ,1.50822 ,-0.36517 ,-3.58303 
396 ,76.6440 ,1.51020 ,-0.37201 ,-3.65019 
397 ,76.8366 ,1.51226 ,-0.38912 ,-3.81808 
398 ,77.0443 ,1.51421 ,-0.37886 ,-3.71735 
399 ,77.2525 ,1.51635 ,-0.41308 ,-4.05313 
400 ,77.4604 ,1.51848 ,-0.43019 ,-4.22102 
401 ,77.6526 ,1.52043 ,-0.43703 ,-4.28818 
402 ,77.8447 ,1.52237 ,-0.41992 ,-4.12029 
403 ,78.0528 ,1.52438 ,-0.43703 ,-4.28818 
404 ,78.2448 ,1.52634 ,-0.45072 ,-4.42249 
405 ,78.4529 ,1.52838 ,-0.46783 ,-4.59038 
406 ,78.6447 ,1.53039 ,-0.46441 ,-4.55681 
407 ,78.8374 ,1.53224 ,-0.48152 ,-4.72470 
408 ,79.0452 ,1.53430 ,-0.48494 ,-4.75828 
409 ,79.2375 ,1.53622 ,-0.51232 ,-5.02690 
410 ,79.4295 ,1.53816 ,-0.50206 ,-4.92617 
411 ,79.6217 ,1.54010 ,-0.52943 ,-5.19479 
412 ,79.7974 ,1.54199 ,-0.53285 ,-5.22837 
413 ,79.9897 ,1.54377 ,-0.51917 ,-5.09406 
414 ,80.1817 ,1.54569 ,-0.54312 ,-5.32911 
415 ,80.3738 ,1.54762 ,-0.56023 ,-5.49700 
416 ,80.5660 ,1.54954 ,-0.55681 ,-5.46342 
417 ,80.7578 ,1.55147 ,-0.59103 ,-5.79920 
418 ,80.9497 ,1.55342 ,-0.57392 ,-5.63131 
419 ,81.1422 ,1.55531 ,-0.58761 ,-5.76562 
420 ,81.3344 ,1.55724 ,-0.61841 ,-6.06783 
421 ,81.5262 ,1.55912 ,-0.60472 ,-5.93352 
422 ,81.7021 ,1.56097 ,-0.62868 ,-6.16856 
423 ,81.8940 ,1.56281 ,-0.62868 ,-6.16856 
424 ,82.0863 ,1.56477 ,-0.62183 ,-6.10141 
425 ,82.2943 ,1.56677 ,-0.63552 ,-6.23572 
426 ,82.4703 ,1.56862 ,-0.65605 ,-6.43719 
427 ,82.6468 ,1.57037 ,-0.65263 ,-6.40361 
428 ,82.8387 ,1.57224 ,-0.67659 ,-6.63866 
429 ,83.0303 ,1.57412 ,-0.67659 ,-6.63866 
430 ,83.2070 ,1.57598 ,-0.67659 ,-6.63866 
431 ,83.3989 ,1.57785 ,-0.70396 ,-6.90729 
432 ,83.5908 ,1.57968 ,-0.69027 ,-6.77297 
433 ,83.7832 ,1.58161 ,-0.72450 ,-7.10876 
434 ,83.9590 ,1.58350 ,-0.73476 ,-7.20949 
435 ,84.1188 ,1.58521 ,-0.73818 ,-7.24307 
436 ,84.2953 ,1.58690 ,-0.74845 ,-7.34380 
437 ,84.5033 ,1.58888 ,-0.74503 ,-7.31023 
438 ,84.6794 ,1.59066 ,-0.75872 ,-7.44454 
439 ,84.8716 ,1.59258 ,-0.76214 ,-7.47812 
440 ,85.0632 ,1.59444 ,-0.77583 ,-7.61243 
441 ,85.2397 ,1.59632 ,-0.77925 ,-7.64601 
442 ,85.4317 ,1.59818 ,-0.79294 ,-7.78032 
443 ,85.6079 ,1.59997 ,-0.77583 ,-7.61243 
444 ,85.8000 ,1.60182 ,-0.81689 ,-8.01537 
445 ,85.9920 ,1.60378 ,-0.80663 ,-7.91464 
446 ,86.1839 ,1.60572 ,-0.82374 ,-8.08253 
447 ,86.4083 ,1.60783 ,-0.84085 ,-8.25042 
448 ,86.6161 ,1.60997 ,-0.84085 ,-8.25042 
449 ,86.8084 ,1.61194 ,-0.84085 ,-8.25042 
450 ,87.0003 ,1.61379 ,-0.86823 ,-8.51904 
451 ,87.1925 ,1.61579 ,-0.86481 ,-8.48547 
452 ,87.3841 ,1.61773 ,-0.87165 ,-8.55262 
453 ,87.5767 ,1.61959 ,-0.88534 ,-8.68694 
454 ,87.7688 ,1.62153 ,-0.89218 ,-8.75409 
455 ,87.9768 ,1.62362 ,-0.90587 ,-8.88841 
456 ,88.1368 ,1.62538 ,-0.91956 ,-9.02272 
457 ,88.3289 ,1.62710 ,-0.91614 ,-8.98914 
458 ,88.5209 ,1.62899 ,-0.94351 ,-9.25777 
459 ,88.7292 ,1.63114 ,-0.92983 ,-9.12345 
460 ,88.9373 ,1.63322 ,-0.95720 ,-9.39208 
461 ,89.1292 ,1.63523 ,-0.95378 ,-9.35850 
462 ,89.3212 ,1.63700 ,-0.97774 ,-9.59355 
463 ,89.5290 ,1.63911 ,-0.97089 ,-9.52639 
