Data stamp = , 26-04-2022 11:38:32 016

Calibration Values: 
Slope = , 26.54 , g/V 
Offset Voltage at no contact = , -0.501760 , V 

No , Time , Stage Position ,   Mass , Force 
   ,  (s) ,      (mm)      ,   (g)  , (mN)  

1 ,0.0000 ,0.74945 ,5.28825 ,51.88832 
2 ,0.2950 ,0.74966 ,5.30194 ,52.02263 
3 ,0.6634 ,0.75096 ,5.29852 ,51.98905 
4 ,0.8874 ,0.75310 ,5.30194 ,52.02263 
5 ,1.0798 ,0.75494 ,5.27114 ,51.72043 
6 ,1.2557 ,0.75678 ,5.29510 ,51.95548 
7 ,1.4318 ,0.75848 ,5.30878 ,52.08979 
8 ,1.6235 ,0.76045 ,5.27456 ,51.75401 
9 ,1.8321 ,0.76245 ,5.27114 ,51.72043 
10 ,2.0239 ,0.76444 ,5.22665 ,51.28391 
11 ,2.2317 ,0.76648 ,5.22323 ,51.25033 
12 ,2.4084 ,0.76831 ,5.21639 ,51.18317 
13 ,2.5839 ,0.77004 ,5.18559 ,50.88097 
14 ,2.7764 ,0.77192 ,5.17190 ,50.74666 
15 ,2.9846 ,0.77399 ,5.14452 ,50.47803 
16 ,3.1762 ,0.77590 ,5.13083 ,50.34372 
17 ,3.3527 ,0.77774 ,5.13768 ,50.41087 
18 ,3.5608 ,0.77984 ,5.09319 ,49.97436 
19 ,3.7528 ,0.78183 ,5.07265 ,49.77289 
20 ,3.9289 ,0.78351 ,5.07950 ,49.84004 
21 ,4.1050 ,0.78524 ,5.04528 ,49.50426 
22 ,4.2970 ,0.78709 ,5.03159 ,49.36995 
23 ,4.5052 ,0.78921 ,5.00079 ,49.06774 
24 ,4.6971 ,0.79110 ,4.98710 ,48.93343 
25 ,4.8890 ,0.79301 ,4.96657 ,48.73196 
26 ,5.0974 ,0.79508 ,4.93919 ,48.46333 
27 ,5.2894 ,0.79714 ,4.92892 ,48.36260 
28 ,5.4814 ,0.79892 ,4.91181 ,48.19471 
29 ,5.6737 ,0.80091 ,4.89470 ,48.02681 
30 ,5.8652 ,0.80291 ,4.87417 ,47.82534 
31 ,6.0578 ,0.80477 ,4.85706 ,47.65745 
32 ,6.2495 ,0.80668 ,4.84679 ,47.55672 
33 ,6.4420 ,0.80854 ,4.80915 ,47.18736 
34 ,6.6341 ,0.81049 ,4.80573 ,47.15378 
35 ,6.8258 ,0.81246 ,4.79888 ,47.08662 
36 ,7.0181 ,0.81431 ,4.75782 ,46.68368 
37 ,7.2103 ,0.81622 ,4.74755 ,46.58295 
38 ,7.4024 ,0.81820 ,4.71333 ,46.24716 
39 ,7.6103 ,0.82025 ,4.70648 ,46.18001 
40 ,7.8185 ,0.82240 ,4.68595 ,45.97854 
41 ,8.0262 ,0.82435 ,4.66884 ,45.81065 
42 ,8.2187 ,0.82638 ,4.63462 ,45.47486 
43 ,8.4104 ,0.82824 ,4.65173 ,45.64275 
44 ,8.6029 ,0.83017 ,4.61751 ,45.30697 
45 ,8.7950 ,0.83209 ,4.60724 ,45.20624 
46 ,9.0029 ,0.83422 ,4.56960 ,44.83688 
47 ,9.1951 ,0.83616 ,4.56617 ,44.80330 
48 ,9.3709 ,0.83792 ,4.55591 ,44.70256 
49 ,9.5792 ,0.83992 ,4.52853 ,44.43394 
50 ,9.7554 ,0.84175 ,4.52511 ,44.40036 
51 ,9.9472 ,0.84362 ,4.49089 ,44.06457 
52 ,10.1554 ,0.84570 ,4.48746 ,44.03100 
53 ,10.3315 ,0.84755 ,4.45666 ,43.72879 
54 ,10.5237 ,0.84939 ,4.42929 ,43.46016 
55 ,10.7316 ,0.85137 ,4.43271 ,43.49374 
56 ,10.9234 ,0.85340 ,4.41218 ,43.29227 
57 ,11.1158 ,0.85526 ,4.39849 ,43.15796 
58 ,11.2915 ,0.85720 ,4.37111 ,42.88933 
59 ,11.4841 ,0.85892 ,4.33689 ,42.55355 
60 ,11.6921 ,0.86105 ,4.35058 ,42.68786 
61 ,11.8842 ,0.86298 ,4.31636 ,42.35208 
62 ,12.0923 ,0.86509 ,4.31293 ,42.31850 
63 ,12.2843 ,0.86707 ,4.28898 ,42.08345 
64 ,12.4605 ,0.86879 ,4.27187 ,41.91556 
65 ,12.6365 ,0.87053 ,4.25133 ,41.71409 
66 ,12.8447 ,0.87258 ,4.23080 ,41.51262 
67 ,13.0526 ,0.87464 ,4.22396 ,41.44547 
68 ,13.2286 ,0.87644 ,4.20685 ,41.27758 
69 ,13.4209 ,0.87834 ,4.17947 ,41.00895 
70 ,13.6128 ,0.88026 ,4.17947 ,41.00895 
71 ,13.8210 ,0.88233 ,4.14183 ,40.63959 
72 ,14.0292 ,0.88440 ,4.12471 ,40.47170 
73 ,14.2050 ,0.88627 ,4.10760 ,40.30380 
74 ,14.3812 ,0.88799 ,4.10076 ,40.23665 
75 ,14.5570 ,0.88975 ,4.08365 ,40.06876 
76 ,14.7653 ,0.89172 ,4.07680 ,40.00160 
77 ,14.9735 ,0.89385 ,4.05285 ,39.76655 
78 ,15.1492 ,0.89570 ,4.04600 ,39.69940 
79 ,15.3258 ,0.89740 ,4.01863 ,39.43077 
80 ,15.5178 ,0.89925 ,3.99809 ,39.22930 
81 ,15.7095 ,0.90122 ,3.99125 ,39.16214 
82 ,15.8859 ,0.90303 ,3.95018 ,38.75920 
83 ,16.0779 ,0.90487 ,3.95018 ,38.75920 
84 ,16.2697 ,0.90677 ,3.93650 ,38.62489 
85 ,16.4620 ,0.90865 ,3.90912 ,38.35626 
86 ,16.6701 ,0.91075 ,3.88516 ,38.12122 
87 ,16.8463 ,0.91263 ,3.88516 ,38.12122 
88 ,17.0384 ,0.91447 ,3.86121 ,37.88617 
89 ,17.2147 ,0.91631 ,3.85094 ,37.78543 
90 ,17.4065 ,0.91820 ,3.82699 ,37.55038 
91 ,17.5827 ,0.91997 ,3.79961 ,37.28176 
92 ,17.7743 ,0.92186 ,3.78592 ,37.14744 
93 ,17.9666 ,0.92376 ,3.76881 ,36.97955 
94 ,18.1585 ,0.92564 ,3.75512 ,36.84524 
95 ,18.3349 ,0.92747 ,3.73117 ,36.61019 
96 ,18.5267 ,0.92941 ,3.73117 ,36.61019 
97 ,18.7351 ,0.93142 ,3.71748 ,36.47588 
98 ,18.9108 ,0.93330 ,3.67983 ,36.10652 
99 ,19.1034 ,0.93514 ,3.65588 ,35.87147 
100 ,19.3111 ,0.93721 ,3.66614 ,35.97220 
101 ,19.4876 ,0.93900 ,3.64903 ,35.80431 
102 ,19.6795 ,0.94090 ,3.62166 ,35.53569 
103 ,19.8717 ,0.94273 ,3.60454 ,35.36779 
104 ,20.0637 ,0.94471 ,3.57717 ,35.09917 
105 ,20.2398 ,0.94651 ,3.56006 ,34.93128 
106 ,20.4319 ,0.94843 ,3.57375 ,35.06559 
107 ,20.6400 ,0.95050 ,3.53610 ,34.69623 
108 ,20.8318 ,0.95241 ,3.53952 ,34.72981 
109 ,21.0240 ,0.95432 ,3.49846 ,34.32687 
110 ,21.2161 ,0.95629 ,3.48135 ,34.15898 
111 ,21.4084 ,0.95824 ,3.47792 ,34.12540 
112 ,21.6003 ,0.96012 ,3.44028 ,33.75604 
113 ,21.7764 ,0.96191 ,3.44713 ,33.82319 
114 ,21.9685 ,0.96374 ,3.41633 ,33.52099 
115 ,22.1602 ,0.96567 ,3.39237 ,33.28594 
116 ,22.3524 ,0.96760 ,3.38895 ,33.25236 
117 ,22.5608 ,0.96977 ,3.37184 ,33.08447 
118 ,22.7527 ,0.97161 ,3.35473 ,32.91658 
119 ,22.9449 ,0.97363 ,3.33419 ,32.71511 
120 ,23.1209 ,0.97537 ,3.31024 ,32.48006 
121 ,23.2966 ,0.97715 ,3.31708 ,32.54722 
122 ,23.4731 ,0.97887 ,3.29997 ,32.37933 
123 ,23.6809 ,0.98088 ,3.26233 ,32.00996 
124 ,23.8572 ,0.98271 ,3.24522 ,31.84207 
125 ,24.0494 ,0.98455 ,3.23495 ,31.74134 
126 ,24.2573 ,0.98666 ,3.21784 ,31.57345 
127 ,24.4494 ,0.98860 ,3.21784 ,31.57345 
128 ,24.6415 ,0.99053 ,3.17335 ,31.13693 
129 ,24.8175 ,0.99227 ,3.15966 ,31.00262 
130 ,25.0097 ,0.99416 ,3.15282 ,30.93546 
131 ,25.2019 ,0.99612 ,3.12886 ,30.70041 
132 ,25.4096 ,0.99813 ,3.11860 ,30.59968 
133 ,25.6020 ,1.00012 ,3.09122 ,30.33105 
134 ,25.7940 ,1.00204 ,3.09122 ,30.33105 
135 ,26.0022 ,1.00408 ,3.07069 ,30.12958 
136 ,26.1943 ,1.00602 ,3.06384 ,30.06242 
137 ,26.3862 ,1.00790 ,3.02620 ,29.69306 
138 ,26.5619 ,1.00982 ,3.01251 ,29.55875 
139 ,26.7382 ,1.01151 ,2.98855 ,29.32370 
140 ,26.9306 ,1.01338 ,2.99198 ,29.35728 
141 ,27.1226 ,1.01535 ,2.95433 ,28.98792 
142 ,27.3148 ,1.01720 ,2.95776 ,29.02150 
143 ,27.5065 ,1.01917 ,2.93380 ,28.78645 
144 ,27.6827 ,1.02099 ,2.92011 ,28.65213 
145 ,27.8586 ,1.02268 ,2.88931 ,28.34993 
146 ,28.0506 ,1.02456 ,2.89616 ,28.41709 
147 ,28.2107 ,1.02637 ,2.86878 ,28.14846 
148 ,28.3867 ,1.02799 ,2.85851 ,28.04772 
149 ,28.5628 ,1.02981 ,2.83456 ,27.81268 
150 ,28.7550 ,1.03157 ,2.80034 ,27.47689 
151 ,28.9313 ,1.03344 ,2.81402 ,27.61121 
152 ,29.1074 ,1.03521 ,2.79691 ,27.44332 
153 ,29.2995 ,1.03701 ,2.76954 ,27.17469 
154 ,29.4916 ,1.03902 ,2.77638 ,27.24185 
155 ,29.6836 ,1.04099 ,2.73874 ,26.87248 
156 ,29.8755 ,1.04284 ,2.71478 ,26.63744 
157 ,30.0677 ,1.04479 ,2.71820 ,26.67101 
158 ,30.2599 ,1.04671 ,2.68056 ,26.30165 
159 ,30.4519 ,1.04861 ,2.69425 ,26.43597 
160 ,30.6435 ,1.05049 ,2.64976 ,25.99945 
161 ,30.8355 ,1.05243 ,2.63607 ,25.86514 
162 ,31.0275 ,1.05434 ,2.63607 ,25.86514 
163 ,31.2201 ,1.05626 ,2.60527 ,25.56293 
164 ,31.4443 ,1.05854 ,2.57789 ,25.29430 
165 ,31.6362 ,1.06042 ,2.57447 ,25.26073 
166 ,31.8447 ,1.06256 ,2.56078 ,25.12641 
167 ,32.0686 ,1.06463 ,2.53341 ,24.85779 
168 ,32.2927 ,1.06686 ,2.52314 ,24.75705 
169 ,32.4848 ,1.06893 ,2.50261 ,24.55558 
170 ,32.7088 ,1.07103 ,2.49234 ,24.45485 
171 ,32.9006 ,1.07305 ,2.46839 ,24.21980 
172 ,33.0926 ,1.07492 ,2.46154 ,24.15264 
173 ,33.2847 ,1.07684 ,2.42732 ,23.81686 
174 ,33.4768 ,1.07875 ,2.42048 ,23.74970 
175 ,33.6528 ,1.08065 ,2.41363 ,23.68255 
176 ,33.8288 ,1.08250 ,2.39994 ,23.54823 
177 ,34.0210 ,1.08423 ,2.36572 ,23.21245 
178 ,34.2130 ,1.08614 ,2.36914 ,23.24603 
179 ,34.4052 ,1.08809 ,2.33150 ,22.87667 
180 ,34.5811 ,1.08996 ,2.32808 ,22.84309 
181 ,35.0294 ,1.09304 ,2.32123 ,22.77593 
182 ,35.2215 ,1.09623 ,2.26648 ,22.23868 
183 ,35.3976 ,1.09812 ,2.26648 ,22.23868 
184 ,35.5896 ,1.09990 ,2.23910 ,21.97005 
185 ,35.7817 ,1.10181 ,2.22883 ,21.86932 
186 ,35.9738 ,1.10373 ,2.22199 ,21.80216 
187 ,36.1658 ,1.10563 ,2.18435 ,21.43280 
188 ,36.3418 ,1.10754 ,2.17750 ,21.36564 
189 ,36.5339 ,1.10933 ,2.17066 ,21.29849 
190 ,36.7101 ,1.11126 ,2.15355 ,21.13059 
191 ,36.9021 ,1.11305 ,2.12275 ,20.82839 
192 ,37.0942 ,1.11496 ,2.11590 ,20.76123 
193 ,37.2703 ,1.11682 ,2.09879 ,20.59334 
194 ,37.4623 ,1.11862 ,2.08168 ,20.42545 
195 ,37.6225 ,1.12042 ,2.05088 ,20.12325 
196 ,37.8149 ,1.12217 ,2.04746 ,20.08967 
197 ,38.0228 ,1.12424 ,2.03719 ,19.98893 
198 ,38.2150 ,1.12622 ,2.02008 ,19.82104 
199 ,38.3907 ,1.12805 ,2.00639 ,19.68673 
200 ,38.5832 ,1.12987 ,1.98928 ,19.51884 
201 ,38.7912 ,1.13194 ,1.98244 ,19.45168 
202 ,38.9830 ,1.13386 ,1.95506 ,19.18305 
203 ,39.1915 ,1.13583 ,1.94479 ,19.08232 
204 ,39.3831 ,1.13783 ,1.93111 ,18.94801 
205 ,39.5591 ,1.13966 ,1.90715 ,18.71296 
206 ,39.7515 ,1.14147 ,1.89688 ,18.61222 
207 ,39.9437 ,1.14354 ,1.86608 ,18.31002 
208 ,40.1357 ,1.14533 ,1.87977 ,18.44433 
209 ,40.3280 ,1.14727 ,1.85924 ,18.24286 
210 ,40.5357 ,1.14933 ,1.84897 ,18.14213 
211 ,40.7122 ,1.15116 ,1.82844 ,17.94066 
212 ,40.9042 ,1.15306 ,1.80106 ,17.67203 
213 ,41.1127 ,1.15505 ,1.78737 ,17.53772 
214 ,41.3041 ,1.15707 ,1.77369 ,17.40340 
215 ,41.4964 ,1.15898 ,1.77026 ,17.36983 
216 ,41.6882 ,1.16097 ,1.77026 ,17.36983 
217 ,41.8966 ,1.16293 ,1.73262 ,17.00046 
218 ,42.1047 ,1.16502 ,1.70524 ,16.73184 
219 ,42.2966 ,1.16698 ,1.70182 ,16.69826 
220 ,42.5045 ,1.16905 ,1.68813 ,16.56395 
221 ,42.6809 ,1.17084 ,1.65733 ,16.26174 
222 ,42.8729 ,1.17272 ,1.67444 ,16.42963 
223 ,43.0490 ,1.17456 ,1.65733 ,16.26174 
224 ,43.2250 ,1.17632 ,1.62653 ,15.95954 
225 ,43.4333 ,1.17835 ,1.64022 ,16.09385 
226 ,43.6250 ,1.18030 ,1.60600 ,15.75807 
227 ,43.7852 ,1.18205 ,1.58889 ,15.59018 
228 ,43.9773 ,1.18375 ,1.58547 ,15.55660 
229 ,44.1695 ,1.18575 ,1.56836 ,15.38871 
230 ,44.3455 ,1.18754 ,1.54440 ,15.15366 
231 ,44.5377 ,1.18939 ,1.55124 ,15.22081 
232 ,44.7297 ,1.19130 ,1.53413 ,15.05292 
233 ,44.9217 ,1.19332 ,1.51360 ,14.85145 
234 ,45.1140 ,1.19518 ,1.51018 ,14.81787 
235 ,45.3221 ,1.19721 ,1.47596 ,14.48209 
236 ,45.5299 ,1.19925 ,1.46569 ,14.38136 
237 ,45.7222 ,1.20127 ,1.44516 ,14.17989 
238 ,45.9301 ,1.20334 ,1.44174 ,14.14631 
239 ,46.1224 ,1.20525 ,1.42120 ,13.94484 
240 ,46.3304 ,1.20734 ,1.42120 ,13.94484 
241 ,46.5226 ,1.20929 ,1.39040 ,13.64263 
242 ,46.7307 ,1.21123 ,1.39383 ,13.67621 
243 ,46.9068 ,1.21311 ,1.37671 ,13.50832 
244 ,47.1144 ,1.21514 ,1.37329 ,13.47474 
245 ,47.3067 ,1.21706 ,1.34249 ,13.17254 
246 ,47.4988 ,1.21895 ,1.31512 ,12.90391 
247 ,47.6910 ,1.22094 ,1.33565 ,13.10538 
248 ,47.8830 ,1.22285 ,1.30143 ,12.76960 
249 ,48.0752 ,1.22473 ,1.29800 ,12.73602 
250 ,48.2670 ,1.22664 ,1.26720 ,12.43381 
251 ,48.4754 ,1.22873 ,1.27747 ,12.53455 
252 ,48.6674 ,1.23067 ,1.23298 ,12.09803 
253 ,48.8594 ,1.23261 ,1.22272 ,11.99730 
254 ,49.0353 ,1.23438 ,1.23641 ,12.13161 
255 ,49.2276 ,1.23627 ,1.22272 ,11.99730 
256 ,49.4195 ,1.23824 ,1.18507 ,11.62794 
257 ,49.6278 ,1.24022 ,1.17823 ,11.56078 
258 ,49.8036 ,1.24214 ,1.16112 ,11.39289 
259 ,49.9957 ,1.24397 ,1.15770 ,11.35931 
260 ,50.1875 ,1.24585 ,1.13716 ,11.15784 
261 ,50.3636 ,1.24771 ,1.11663 ,10.95637 
262 ,50.5559 ,1.24953 ,1.11663 ,10.95637 
263 ,50.7641 ,1.25166 ,1.09952 ,10.78848 
264 ,50.9401 ,1.25344 ,1.07899 ,10.58701 
265 ,51.1324 ,1.25529 ,1.09267 ,10.72132 
266 ,51.3243 ,1.25719 ,1.05161 ,10.31838 
267 ,51.5166 ,1.25915 ,1.05161 ,10.31838 
268 ,51.7242 ,1.26124 ,1.02081 ,10.01618 
269 ,51.9008 ,1.26302 ,1.01054 ,9.91544 
270 ,52.1086 ,1.26498 ,1.01396 ,9.94902 
271 ,52.3008 ,1.26702 ,0.97290 ,9.54608 
272 ,52.4928 ,1.26890 ,1.00712 ,9.88186 
273 ,52.6849 ,1.27078 ,0.96605 ,9.47892 
274 ,52.8929 ,1.27299 ,0.95921 ,9.41177 
275 ,53.1013 ,1.27501 ,0.95237 ,9.34461 
276 ,53.3093 ,1.27707 ,0.93525 ,9.17672 
277 ,53.4854 ,1.27889 ,0.91130 ,8.94167 
278 ,53.6935 ,1.28089 ,0.90446 ,8.87451 
279 ,53.8696 ,1.28271 ,0.90103 ,8.84094 
280 ,54.0614 ,1.28459 ,0.87708 ,8.60589 
281 ,54.2377 ,1.28637 ,0.87708 ,8.60589 
282 ,54.4133 ,1.28819 ,0.85654 ,8.40442 
283 ,54.6218 ,1.29005 ,0.83259 ,8.16937 
284 ,54.8137 ,1.29211 ,0.84628 ,8.30368 
285 ,55.0217 ,1.29419 ,0.80179 ,7.86717 
286 ,55.2302 ,1.29622 ,0.79495 ,7.80001 
287 ,55.4218 ,1.29816 ,0.78468 ,7.69927 
288 ,55.6145 ,1.30014 ,0.79152 ,7.76643 
289 ,55.8058 ,1.30202 ,0.77784 ,7.63212 
290 ,55.9821 ,1.30390 ,0.76072 ,7.46423 
291 ,56.1585 ,1.30558 ,0.74019 ,7.26276 
292 ,56.3664 ,1.30754 ,0.76072 ,7.46423 
293 ,56.5587 ,1.30953 ,0.72308 ,7.09486 
294 ,56.7503 ,1.31149 ,0.71624 ,7.02771 
295 ,56.9426 ,1.31336 ,0.69913 ,6.85982 
296 ,57.1346 ,1.31527 ,0.70255 ,6.89340 
297 ,57.3269 ,1.31724 ,0.66490 ,6.52403 
298 ,57.5030 ,1.31906 ,0.65464 ,6.42330 
299 ,57.6789 ,1.32082 ,0.64779 ,6.35614 
300 ,57.8551 ,1.32257 ,0.65121 ,6.38972 
301 ,58.0152 ,1.32428 ,0.63410 ,6.22183 
302 ,58.2073 ,1.32600 ,0.60673 ,5.95320 
303 ,58.3995 ,1.32791 ,0.61015 ,5.98678 
304 ,58.5916 ,1.32992 ,0.60330 ,5.91962 
305 ,58.7836 ,1.33175 ,0.57935 ,5.68458 
306 ,58.9595 ,1.33356 ,0.55882 ,5.48311 
307 ,59.1518 ,1.33547 ,0.55882 ,5.48311 
308 ,59.3599 ,1.33758 ,0.52802 ,5.18090 
309 ,59.5519 ,1.33945 ,0.54513 ,5.34879 
310 ,59.7440 ,1.34136 ,0.51775 ,5.08017 
311 ,59.9361 ,1.34331 ,0.51775 ,5.08017 
312 ,60.1280 ,1.34524 ,0.50064 ,4.91228 
313 ,60.3203 ,1.34707 ,0.48353 ,4.74438 
314 ,60.5125 ,1.34903 ,0.48011 ,4.71081 
315 ,60.7045 ,1.35099 ,0.45615 ,4.47576 
316 ,60.8966 ,1.35289 ,0.46984 ,4.61007 
317 ,61.1047 ,1.35500 ,0.43562 ,4.27429 
318 ,61.2966 ,1.35693 ,0.43562 ,4.27429 
319 ,61.4887 ,1.35886 ,0.41509 ,4.07282 
320 ,61.6808 ,1.36076 ,0.41509 ,4.07282 
321 ,61.8729 ,1.36264 ,0.40140 ,3.93850 
322 ,62.0810 ,1.36467 ,0.39797 ,3.90493 
323 ,62.2726 ,1.36678 ,0.34664 ,3.40125 
324 ,62.4488 ,1.36850 ,0.36375 ,3.56914 
325 ,62.6250 ,1.37031 ,0.33980 ,3.33410 
326 ,62.8333 ,1.37219 ,0.35349 ,3.46841 
327 ,63.0093 ,1.37408 ,0.33638 ,3.30052 
328 ,63.1854 ,1.37582 ,0.31926 ,3.13263 
329 ,63.3611 ,1.37764 ,0.32269 ,3.16620 
330 ,63.5376 ,1.37939 ,0.29873 ,2.93116 
331 ,63.7456 ,1.38143 ,0.27135 ,2.66253 
332 ,63.9217 ,1.38321 ,0.26793 ,2.62895 
333 ,64.1298 ,1.38510 ,0.27135 ,2.66253 
334 ,64.3376 ,1.38729 ,0.25767 ,2.52822 
335 ,64.5297 ,1.38923 ,0.25082 ,2.46106 
336 ,64.7378 ,1.39127 ,0.23371 ,2.29317 
337 ,64.9139 ,1.39310 ,0.24398 ,2.39390 
338 ,65.1059 ,1.39494 ,0.19949 ,1.95738 
339 ,65.3139 ,1.39702 ,0.19949 ,1.95738 
340 ,65.5059 ,1.39898 ,0.17896 ,1.75592 
341 ,65.6821 ,1.40080 ,0.17553 ,1.72234 
342 ,65.8741 ,1.40277 ,0.17211 ,1.68876 
343 ,66.0502 ,1.40447 ,0.16185 ,1.58802 
344 ,66.2263 ,1.40625 ,0.14131 ,1.38655 
345 ,66.4185 ,1.40807 ,0.15158 ,1.48729 
346 ,66.6106 ,1.41008 ,0.12762 ,1.25224 
347 ,66.8186 ,1.41205 ,0.11393 ,1.11793 
348 ,67.0107 ,1.41403 ,0.11051 ,1.08435 
349 ,67.2027 ,1.41596 ,0.08656 ,0.84930 
350 ,67.4108 ,1.41803 ,0.08314 ,0.81572 
351 ,67.5869 ,1.41985 ,0.06945 ,0.68141 
352 ,67.7949 ,1.42189 ,0.08314 ,0.81572 
353 ,67.9870 ,1.42374 ,0.04891 ,0.47994 
354 ,68.1791 ,1.42565 ,0.03180 ,0.31205 
355 ,68.3715 ,1.42763 ,0.03865 ,0.37920 
356 ,68.5796 ,1.42973 ,0.02838 ,0.27847 
357 ,68.7712 ,1.43167 ,0.02154 ,0.21131 
358 ,68.9477 ,1.43348 ,0.00443 ,0.04342 
359 ,69.1399 ,1.43527 ,-0.00242 ,-0.02373 
360 ,69.3479 ,1.43735 ,-0.02980 ,-0.29236 
361 ,69.5240 ,1.43925 ,-0.02637 ,-0.25878 
362 ,69.6997 ,1.44095 ,-0.02980 ,-0.29236 
363 ,69.8600 ,1.44267 ,-0.03664 ,-0.35952 
364 ,70.0361 ,1.44431 ,-0.05033 ,-0.49383 
365 ,70.2283 ,1.44619 ,-0.06744 ,-0.66172 
366 ,70.4204 ,1.44821 ,-0.07428 ,-0.72888 
367 ,70.6126 ,1.45002 ,-0.09140 ,-0.89677 
368 ,70.8045 ,1.45205 ,-0.08455 ,-0.82961 
369 ,70.9806 ,1.45378 ,-0.08455 ,-0.82961 
370 ,71.1725 ,1.45565 ,-0.10851 ,-1.06466 
371 ,71.3647 ,1.45750 ,-0.14615 ,-1.43402 
372 ,71.5568 ,1.45942 ,-0.12904 ,-1.26613 
373 ,71.7648 ,1.46151 ,-0.15642 ,-1.53476 
374 ,71.9406 ,1.46336 ,-0.17011 ,-1.66907 
375 ,72.1330 ,1.46528 ,-0.16326 ,-1.60191 
376 ,72.3572 ,1.46737 ,-0.16668 ,-1.63549 
377 ,72.5333 ,1.46935 ,-0.19406 ,-1.90412 
378 ,72.7254 ,1.47117 ,-0.20433 ,-2.00485 
379 ,72.9332 ,1.47321 ,-0.20433 ,-2.00485 
380 ,73.1255 ,1.47522 ,-0.20433 ,-2.00485 
381 ,73.3015 ,1.47699 ,-0.22486 ,-2.20632 
382 ,73.5098 ,1.47898 ,-0.24539 ,-2.40779 
383 ,73.7177 ,1.48101 ,-0.23513 ,-2.30706 
384 ,73.9098 ,1.48299 ,-0.26250 ,-2.57569 
385 ,74.1017 ,1.48493 ,-0.26593 ,-2.60926 
386 ,74.2940 ,1.48682 ,-0.26593 ,-2.60926 
387 ,74.5017 ,1.48889 ,-0.27619 ,-2.71000 
388 ,74.6942 ,1.49082 ,-0.28646 ,-2.81073 
389 ,74.8859 ,1.49274 ,-0.30699 ,-3.01220 
390 ,75.0944 ,1.49484 ,-0.31384 ,-3.07936 
391 ,75.2702 ,1.49672 ,-0.33437 ,-3.28083 
392 ,75.4622 ,1.49847 ,-0.32410 ,-3.18010 
393 ,75.6383 ,1.50034 ,-0.32752 ,-3.21367 
394 ,75.8306 ,1.50222 ,-0.35148 ,-3.44872 
395 ,76.0225 ,1.50412 ,-0.35490 ,-3.48230 
396 ,76.2307 ,1.50606 ,-0.36175 ,-3.54946 
397 ,76.4387 ,1.50834 ,-0.37201 ,-3.65019 
398 ,76.6308 ,1.51019 ,-0.39597 ,-3.88524 
399 ,76.8225 ,1.51205 ,-0.38912 ,-3.81808 
400 ,77.0149 ,1.51402 ,-0.39939 ,-3.91882 
401 ,77.1909 ,1.51587 ,-0.41992 ,-4.12029 
402 ,77.3828 ,1.51769 ,-0.41650 ,-4.08671 
403 ,77.5911 ,1.51965 ,-0.41992 ,-4.12029 
404 ,77.7994 ,1.52189 ,-0.42335 ,-4.15387 
405 ,77.9915 ,1.52379 ,-0.44730 ,-4.38891 
406 ,78.1833 ,1.52571 ,-0.45757 ,-4.48965 
407 ,78.3752 ,1.52764 ,-0.46099 ,-4.52323 
408 ,78.5672 ,1.52957 ,-0.47126 ,-4.62396 
409 ,78.7592 ,1.53147 ,-0.48494 ,-4.75828 
410 ,78.9678 ,1.53345 ,-0.49179 ,-4.82543 
411 ,79.1600 ,1.53545 ,-0.49863 ,-4.89259 
412 ,79.3520 ,1.53737 ,-0.51917 ,-5.09406 
413 ,79.5437 ,1.53934 ,-0.54312 ,-5.32911 
414 ,79.7362 ,1.54122 ,-0.53285 ,-5.22837 
415 ,79.9282 ,1.54320 ,-0.56023 ,-5.49700 
416 ,80.1045 ,1.54498 ,-0.57392 ,-5.63131 
417 ,80.2961 ,1.54682 ,-0.55339 ,-5.42984 
418 ,80.4886 ,1.54873 ,-0.58077 ,-5.69847 
419 ,80.6801 ,1.55069 ,-0.58761 ,-5.76562 
420 ,80.8727 ,1.55256 ,-0.60130 ,-5.89994 
421 ,81.0808 ,1.55454 ,-0.59103 ,-5.79920 
422 ,81.2889 ,1.55680 ,-0.62183 ,-6.10141 
423 ,81.4809 ,1.55868 ,-0.60814 ,-5.96709 
424 ,81.6570 ,1.56052 ,-0.61841 ,-6.06783 
425 ,81.8488 ,1.56235 ,-0.65605 ,-6.43719 
426 ,82.0411 ,1.56426 ,-0.64236 ,-6.30288 
427 ,82.2331 ,1.56619 ,-0.66290 ,-6.50435 
428 ,82.4251 ,1.56814 ,-0.66290 ,-6.50435 
429 ,82.6172 ,1.56999 ,-0.66974 ,-6.57150 
430 ,82.7931 ,1.57187 ,-0.70396 ,-6.90729 
431 ,82.9853 ,1.57369 ,-0.69712 ,-6.84013 
432 ,83.1935 ,1.57578 ,-0.70396 ,-6.90729 
433 ,83.3855 ,1.57769 ,-0.70739 ,-6.94086 
434 ,83.5936 ,1.57976 ,-0.72450 ,-7.10876 
435 ,83.7857 ,1.58167 ,-0.71765 ,-7.04160 
436 ,83.9615 ,1.58355 ,-0.73134 ,-7.17591 
437 ,84.1378 ,1.58525 ,-0.74161 ,-7.27665 
438 ,84.3463 ,1.58731 ,-0.75530 ,-7.41096 
439 ,84.5377 ,1.58922 ,-0.75872 ,-7.44454 
440 ,84.7144 ,1.59107 ,-0.76556 ,-7.51170 
441 ,84.9219 ,1.59302 ,-0.76556 ,-7.51170 
442 ,85.0985 ,1.59489 ,-0.78610 ,-7.71317 
443 ,85.3063 ,1.59691 ,-0.79636 ,-7.81390 
444 ,85.5146 ,1.59894 ,-0.80663 ,-7.91464 
445 ,85.6904 ,1.60080 ,-0.83058 ,-8.14968 
446 ,85.8827 ,1.60274 ,-0.83058 ,-8.14968 
447 ,86.0904 ,1.60470 ,-0.83058 ,-8.14968 
448 ,86.2830 ,1.60668 ,-0.83401 ,-8.18326 
449 ,86.4748 ,1.60859 ,-0.83401 ,-8.18326 
450 ,86.6831 ,1.61069 ,-0.85454 ,-8.38473 
451 ,86.8751 ,1.61258 ,-0.86481 ,-8.48547 
452 ,87.0672 ,1.61456 ,-0.87849 ,-8.61978 
453 ,87.2594 ,1.61647 ,-0.86481 ,-8.48547 
454 ,87.4835 ,1.61869 ,-0.88876 ,-8.72051 
455 ,87.6753 ,1.62058 ,-0.89560 ,-8.78767 
456 ,87.8511 ,1.62238 ,-0.91956 ,-9.02272 
457 ,88.0271 ,1.62421 ,-0.90587 ,-8.88841 
458 ,88.2033 ,1.62596 ,-0.92298 ,-9.05630 
459 ,88.3955 ,1.62775 ,-0.91272 ,-8.95556 
460 ,88.5876 ,1.62964 ,-0.93667 ,-9.19061 
461 ,88.7795 ,1.63166 ,-0.93325 ,-9.15703 
462 ,88.9560 ,1.63342 ,-0.94694 ,-9.29135 
463 ,89.1638 ,1.63547 ,-0.96405 ,-9.45924 
