Data stamp = , 26-04-2022 17:37:44 255

Calibration Values: 
Slope = , 26.54 , g/V 
Offset Voltage at no contact = , -0.501760 , V 

No , Time , Stage Position ,   Mass , Force 
   ,  (s) ,      (mm)      ,   (g)  , (mN)  

1 ,0.0000 ,0.74948 ,5.34301 ,52.42557 
2 ,0.2428 ,0.74958 ,5.37723 ,52.76135 
3 ,0.7071 ,0.75122 ,5.35327 ,52.52631 
4 ,0.9149 ,0.75341 ,5.34985 ,52.49273 
5 ,1.1072 ,0.75532 ,5.37723 ,52.76135 
6 ,1.2993 ,0.75721 ,5.36696 ,52.66062 
7 ,1.4755 ,0.75895 ,5.35327 ,52.52631 
8 ,1.6676 ,0.76083 ,5.37038 ,52.69420 
9 ,1.8597 ,0.76281 ,5.33958 ,52.39199 
10 ,2.0515 ,0.76477 ,5.32247 ,52.22410 
11 ,2.2599 ,0.76667 ,5.32247 ,52.22410 
12 ,2.4681 ,0.76888 ,5.29167 ,51.92190 
13 ,2.6601 ,0.77078 ,5.27798 ,51.78758 
14 ,2.8522 ,0.77264 ,5.26087 ,51.61969 
15 ,3.0443 ,0.77473 ,5.22665 ,51.28391 
16 ,3.2364 ,0.77650 ,5.20954 ,51.11602 
17 ,3.4446 ,0.77864 ,5.18216 ,50.84739 
18 ,3.6367 ,0.78056 ,5.15479 ,50.57876 
19 ,3.8444 ,0.78263 ,5.16163 ,50.64592 
20 ,4.0369 ,0.78457 ,5.12056 ,50.24298 
21 ,4.2446 ,0.78660 ,5.11714 ,50.20940 
22 ,4.4206 ,0.78844 ,5.10345 ,50.07509 
23 ,4.5970 ,0.79017 ,5.06239 ,49.67215 
24 ,4.7890 ,0.79209 ,5.05554 ,49.60499 
25 ,4.9810 ,0.79402 ,5.03843 ,49.43710 
26 ,5.1571 ,0.79578 ,5.01448 ,49.20205 
27 ,5.3491 ,0.79766 ,4.99052 ,48.96701 
28 ,5.5415 ,0.79960 ,4.97341 ,48.79911 
29 ,5.7334 ,0.80152 ,4.96657 ,48.73196 
30 ,5.9092 ,0.80336 ,4.93577 ,48.42975 
31 ,6.1014 ,0.80518 ,4.91181 ,48.19471 
32 ,6.2937 ,0.80709 ,4.89470 ,48.02681 
33 ,6.4857 ,0.80909 ,4.90497 ,48.12755 
34 ,6.6938 ,0.81109 ,4.86048 ,47.69103 
35 ,6.8857 ,0.81301 ,4.86048 ,47.69103 
36 ,7.0779 ,0.81496 ,4.81257 ,47.22093 
37 ,7.2859 ,0.81702 ,4.80915 ,47.18736 
38 ,7.4616 ,0.81891 ,4.79204 ,47.01946 
39 ,7.6541 ,0.82069 ,4.77150 ,46.81800 
40 ,7.8462 ,0.82273 ,4.76124 ,46.71726 
41 ,8.0383 ,0.82451 ,4.72359 ,46.34790 
42 ,8.2144 ,0.82636 ,4.69964 ,46.11285 
43 ,8.4225 ,0.82843 ,4.70306 ,46.14643 
44 ,8.5821 ,0.83017 ,4.66884 ,45.81065 
45 ,8.7587 ,0.83183 ,4.65857 ,45.70991 
46 ,8.9667 ,0.83381 ,4.64488 ,45.57560 
47 ,9.1428 ,0.83569 ,4.62093 ,45.34055 
48 ,9.3349 ,0.83750 ,4.59697 ,45.10550 
49 ,9.5429 ,0.83961 ,4.59355 ,45.07192 
50 ,9.7189 ,0.84140 ,4.57986 ,44.93761 
51 ,9.9271 ,0.84350 ,4.57302 ,44.87045 
52 ,10.1191 ,0.84537 ,4.53537 ,44.50109 
53 ,10.2951 ,0.84716 ,4.52169 ,44.36678 
54 ,10.4874 ,0.84904 ,4.52511 ,44.40036 
55 ,10.6790 ,0.85095 ,4.49431 ,44.09815 
56 ,10.8715 ,0.85290 ,4.47035 ,43.86310 
57 ,11.0796 ,0.85500 ,4.44298 ,43.59448 
58 ,11.2875 ,0.85710 ,4.43271 ,43.49374 
59 ,11.4635 ,0.85884 ,4.40533 ,43.22512 
60 ,11.6557 ,0.86069 ,4.38822 ,43.05723 
61 ,11.8315 ,0.86260 ,4.37795 ,42.95649 
62 ,12.0402 ,0.86443 ,4.35742 ,42.75502 
63 ,12.2479 ,0.86659 ,4.34031 ,42.58713 
64 ,12.4402 ,0.86857 ,4.30609 ,42.25135 
65 ,12.6321 ,0.87057 ,4.30267 ,42.21777 
66 ,12.8082 ,0.87232 ,4.28213 ,42.01630 
67 ,13.0002 ,0.87429 ,4.25476 ,41.74767 
68 ,13.1924 ,0.87612 ,4.24791 ,41.68051 
69 ,13.3685 ,0.87790 ,4.22738 ,41.47905 
70 ,13.5761 ,0.87991 ,4.20342 ,41.24400 
71 ,13.7524 ,0.88172 ,4.17605 ,40.97537 
72 ,13.9283 ,0.88350 ,4.18289 ,41.04253 
73 ,14.1203 ,0.88532 ,4.16236 ,40.84106 
74 ,14.2970 ,0.88724 ,4.11787 ,40.40454 
75 ,14.4887 ,0.88907 ,4.13156 ,40.53885 
76 ,14.6810 ,0.89097 ,4.10076 ,40.23665 
77 ,14.8728 ,0.89294 ,4.07680 ,40.00160 
78 ,15.0648 ,0.89476 ,4.06996 ,39.93444 
79 ,15.2571 ,0.89672 ,4.04600 ,39.69940 
80 ,15.4494 ,0.89858 ,4.02205 ,39.46435 
81 ,15.6410 ,0.90055 ,4.01178 ,39.36361 
82 ,15.8170 ,0.90234 ,3.97756 ,39.02783 
83 ,15.9932 ,0.90417 ,3.98441 ,39.09499 
84 ,16.1852 ,0.90593 ,3.96045 ,38.85994 
85 ,16.3776 ,0.90790 ,3.93650 ,38.62489 
86 ,16.5698 ,0.90986 ,3.91938 ,38.45700 
87 ,16.7614 ,0.91173 ,3.91938 ,38.45700 
88 ,16.9533 ,0.91364 ,3.87832 ,38.05406 
89 ,17.1934 ,0.91584 ,3.87832 ,38.05406 
90 ,17.4020 ,0.91803 ,3.86121 ,37.88617 
91 ,17.6100 ,0.92024 ,3.83041 ,37.58396 
92 ,17.8181 ,0.92228 ,3.83041 ,37.58396 
93 ,18.0102 ,0.92422 ,3.78592 ,37.14744 
94 ,18.2024 ,0.92615 ,3.75854 ,36.87882 
95 ,18.3943 ,0.92807 ,3.74143 ,36.71093 
96 ,18.5865 ,0.92995 ,3.74143 ,36.71093 
97 ,18.7788 ,0.93192 ,3.71405 ,36.44230 
98 ,18.9867 ,0.93405 ,3.69352 ,36.24083 
99 ,19.2108 ,0.93610 ,3.66272 ,35.93863 
100 ,19.4025 ,0.93817 ,3.65246 ,35.83789 
101 ,19.5947 ,0.94008 ,3.63192 ,35.63642 
102 ,19.8031 ,0.94216 ,3.63192 ,35.63642 
103 ,19.9950 ,0.94409 ,3.60797 ,35.40137 
104 ,20.1867 ,0.94601 ,3.59428 ,35.26706 
105 ,20.3787 ,0.94792 ,3.57717 ,35.09917 
106 ,20.5708 ,0.94986 ,3.53610 ,34.69623 
107 ,20.7628 ,0.95181 ,3.53952 ,34.72981 
108 ,20.9549 ,0.95371 ,3.51899 ,34.52834 
109 ,21.1474 ,0.95565 ,3.50188 ,34.36045 
110 ,21.4515 ,0.95836 ,3.45397 ,33.89035 
111 ,21.6594 ,0.96088 ,3.44713 ,33.82319 
112 ,21.8358 ,0.96251 ,3.43001 ,33.65530 
113 ,22.0119 ,0.96435 ,3.42317 ,33.58814 
114 ,22.1879 ,0.96608 ,3.40948 ,33.45383 
115 ,22.3801 ,0.96798 ,3.38210 ,33.18520 
116 ,22.5721 ,0.96989 ,3.36842 ,33.05089 
117 ,22.7802 ,0.97196 ,3.34446 ,32.81584 
118 ,22.9560 ,0.97371 ,3.32051 ,32.58080 
119 ,23.1323 ,0.97551 ,3.30682 ,32.44648 
120 ,23.3407 ,0.97752 ,3.29313 ,32.31217 
121 ,23.5326 ,0.97957 ,3.27602 ,32.14428 
122 ,23.7085 ,0.98127 ,3.24864 ,31.87565 
123 ,23.8842 ,0.98298 ,3.25206 ,31.90923 
124 ,24.0763 ,0.98483 ,3.21784 ,31.57345 
125 ,24.2683 ,0.98681 ,3.20757 ,31.47271 
126 ,24.4605 ,0.98873 ,3.18704 ,31.27124 
127 ,24.6526 ,0.99064 ,3.15966 ,31.00262 
128 ,24.8446 ,0.99258 ,3.15282 ,30.93546 
129 ,25.0370 ,0.99455 ,3.13913 ,30.80115 
130 ,25.2448 ,0.99656 ,3.13913 ,30.80115 
131 ,25.4368 ,0.99850 ,3.11518 ,30.56610 
132 ,25.6129 ,1.00032 ,3.09806 ,30.39821 
133 ,25.8051 ,1.00210 ,3.07753 ,30.19674 
134 ,25.9811 ,1.00402 ,3.05015 ,29.92811 
135 ,26.1734 ,1.00583 ,3.03304 ,29.76022 
136 ,26.3492 ,1.00765 ,3.01935 ,29.62590 
137 ,26.5257 ,1.00939 ,3.00909 ,29.52517 
138 ,26.7177 ,1.01122 ,2.98513 ,29.29012 
139 ,26.9098 ,1.01318 ,2.96118 ,29.05507 
140 ,27.1017 ,1.01523 ,2.93722 ,28.82003 
141 ,27.2780 ,1.01697 ,2.94064 ,28.85360 
142 ,27.4540 ,1.01874 ,2.92011 ,28.65213 
143 ,27.6460 ,1.02051 ,2.90642 ,28.51782 
144 ,27.8222 ,1.02237 ,2.88247 ,28.28277 
145 ,28.0139 ,1.02427 ,2.85851 ,28.04772 
146 ,28.1899 ,1.02603 ,2.86193 ,28.08130 
147 ,28.3823 ,1.02791 ,2.83798 ,27.84625 
148 ,28.5745 ,1.02991 ,2.81745 ,27.64479 
149 ,28.7823 ,1.03192 ,2.80034 ,27.47689 
150 ,28.9745 ,1.03382 ,2.77638 ,27.24185 
151 ,29.1504 ,1.03567 ,2.75585 ,27.04038 
152 ,29.3588 ,1.03769 ,2.75243 ,27.00680 
153 ,29.5669 ,1.03972 ,2.74900 ,26.97322 
154 ,29.7590 ,1.04173 ,2.70109 ,26.50312 
155 ,29.9508 ,1.04370 ,2.70794 ,26.57028 
156 ,30.1272 ,1.04543 ,2.68056 ,26.30165 
157 ,30.3028 ,1.04722 ,2.66345 ,26.13376 
158 ,30.4954 ,1.04903 ,2.64292 ,25.93229 
159 ,30.7034 ,1.05107 ,2.63949 ,25.89871 
160 ,30.8954 ,1.05301 ,2.60869 ,25.59651 
161 ,31.0875 ,1.05494 ,2.60527 ,25.56293 
162 ,31.2797 ,1.05693 ,2.58132 ,25.32788 
163 ,31.4717 ,1.05880 ,2.56421 ,25.15999 
164 ,31.6479 ,1.06063 ,2.55052 ,25.02568 
165 ,31.8403 ,1.06251 ,2.53683 ,24.89136 
166 ,32.0318 ,1.06441 ,2.52314 ,24.75705 
167 ,32.2239 ,1.06628 ,2.49576 ,24.48842 
168 ,32.4161 ,1.06833 ,2.47523 ,24.28696 
169 ,32.6081 ,1.07024 ,2.46496 ,24.18622 
170 ,32.8162 ,1.07219 ,2.44785 ,24.01833 
171 ,33.0083 ,1.07415 ,2.44443 ,23.98475 
172 ,33.2004 ,1.07610 ,2.41363 ,23.68255 
173 ,33.4083 ,1.07820 ,2.39310 ,23.48108 
174 ,33.6001 ,1.08003 ,2.37941 ,23.34676 
175 ,33.7924 ,1.08200 ,2.35888 ,23.14529 
176 ,33.9844 ,1.08391 ,2.35888 ,23.14529 
177 ,34.1923 ,1.08598 ,2.32808 ,22.84309 
178 ,34.3689 ,1.08788 ,2.33834 ,22.94382 
179 ,34.5767 ,1.08990 ,2.29385 ,22.50731 
180 ,34.7689 ,1.09181 ,2.27332 ,22.30584 
181 ,34.9607 ,1.09369 ,2.27332 ,22.30584 
182 ,35.1373 ,1.09553 ,2.26306 ,22.20510 
183 ,35.3292 ,1.09739 ,2.24937 ,22.07079 
184 ,35.5374 ,1.09939 ,2.20146 ,21.60069 
185 ,35.7452 ,1.10150 ,2.21172 ,21.70143 
186 ,35.9375 ,1.10346 ,2.18435 ,21.43280 
187 ,36.1133 ,1.10529 ,2.17750 ,21.36564 
188 ,36.3056 ,1.10714 ,2.15355 ,21.13059 
189 ,36.4976 ,1.10903 ,2.12959 ,20.89555 
190 ,36.6898 ,1.11096 ,2.13301 ,20.92912 
191 ,36.8815 ,1.11287 ,2.12275 ,20.82839 
192 ,37.0739 ,1.11487 ,2.08852 ,20.49261 
193 ,37.2658 ,1.11672 ,2.08510 ,20.45903 
194 ,37.4581 ,1.11862 ,2.06115 ,20.22398 
195 ,37.6661 ,1.12070 ,2.04746 ,20.08967 
196 ,37.8584 ,1.12265 ,2.02350 ,19.85462 
197 ,38.0500 ,1.12469 ,2.03377 ,19.95535 
198 ,38.2424 ,1.12646 ,2.01324 ,19.75388 
199 ,38.4346 ,1.12837 ,1.97902 ,19.41810 
200 ,38.6266 ,1.13038 ,1.98244 ,19.45168 
201 ,38.8184 ,1.13223 ,1.95848 ,19.21663 
202 ,39.0105 ,1.13417 ,1.93795 ,19.01516 
203 ,39.2026 ,1.13606 ,1.93453 ,18.98158 
204 ,39.4105 ,1.13818 ,1.90373 ,18.67938 
205 ,39.5868 ,1.13995 ,1.91399 ,18.78011 
206 ,39.7948 ,1.14202 ,1.87977 ,18.44433 
207 ,39.9871 ,1.14388 ,1.89346 ,18.57864 
208 ,40.1791 ,1.14597 ,1.84555 ,18.10855 
209 ,40.3713 ,1.14772 ,1.84555 ,18.10855 
210 ,40.5791 ,1.14984 ,1.81817 ,17.83992 
211 ,40.7556 ,1.15166 ,1.81133 ,17.77276 
212 ,40.9636 ,1.15366 ,1.79080 ,17.57129 
213 ,41.1556 ,1.15562 ,1.78053 ,17.47056 
214 ,41.3638 ,1.15774 ,1.77711 ,17.43698 
215 ,41.5719 ,1.15981 ,1.76000 ,17.26909 
216 ,41.7958 ,1.16205 ,1.73262 ,17.00046 
217 ,41.9880 ,1.16389 ,1.73604 ,17.03404 
218 ,42.1642 ,1.16574 ,1.71209 ,16.79899 
219 ,42.3398 ,1.16758 ,1.68813 ,16.56395 
220 ,42.5161 ,1.16924 ,1.66760 ,16.36248 
221 ,42.7081 ,1.17107 ,1.69840 ,16.66468 
222 ,42.9001 ,1.17304 ,1.66075 ,16.29532 
223 ,43.0761 ,1.17485 ,1.64022 ,16.09385 
224 ,43.2686 ,1.17668 ,1.64364 ,16.12743 
225 ,43.4605 ,1.17867 ,1.62653 ,15.95954 
226 ,43.6528 ,1.18055 ,1.59916 ,15.69091 
227 ,43.8608 ,1.18266 ,1.60600 ,15.75807 
228 ,44.0368 ,1.18448 ,1.56836 ,15.38871 
229 ,44.2128 ,1.18620 ,1.56493 ,15.35513 
230 ,44.4050 ,1.18805 ,1.55809 ,15.28797 
231 ,44.5969 ,1.19004 ,1.53756 ,15.08650 
232 ,44.7892 ,1.19197 ,1.52045 ,14.91861 
233 ,44.9967 ,1.19399 ,1.51018 ,14.81787 
234 ,45.1893 ,1.19585 ,1.49649 ,14.68356 
235 ,45.3974 ,1.19798 ,1.48622 ,14.58283 
236 ,45.5731 ,1.19987 ,1.46569 ,14.38136 
237 ,45.7654 ,1.20168 ,1.47596 ,14.48209 
238 ,45.9737 ,1.20377 ,1.43831 ,14.11273 
239 ,46.1817 ,1.20573 ,1.43831 ,14.11273 
240 ,46.3739 ,1.20775 ,1.40067 ,13.74337 
241 ,46.5660 ,1.20967 ,1.39725 ,13.70979 
242 ,46.7581 ,1.21156 ,1.37329 ,13.47474 
243 ,46.9658 ,1.21371 ,1.37671 ,13.50832 
244 ,47.1421 ,1.21547 ,1.36303 ,13.37401 
245 ,47.3344 ,1.21737 ,1.32196 ,12.97107 
246 ,47.5583 ,1.21952 ,1.34249 ,13.17254 
247 ,47.7499 ,1.22165 ,1.33223 ,13.07180 
248 ,47.9425 ,1.22346 ,1.32196 ,12.97107 
249 ,48.1505 ,1.22550 ,1.28089 ,12.56813 
250 ,48.3429 ,1.22745 ,1.28089 ,12.56813 
251 ,48.5344 ,1.22933 ,1.25694 ,12.33308 
252 ,48.7429 ,1.23143 ,1.25009 ,12.26592 
253 ,48.9347 ,1.23337 ,1.21587 ,11.93014 
254 ,49.1431 ,1.23541 ,1.21929 ,11.96372 
255 ,49.3510 ,1.23751 ,1.19876 ,11.76225 
256 ,49.5591 ,1.23956 ,1.18850 ,11.66151 
257 ,49.7512 ,1.24152 ,1.17823 ,11.56078 
258 ,49.9433 ,1.24354 ,1.15770 ,11.35931 
259 ,50.1193 ,1.24522 ,1.15427 ,11.32573 
260 ,50.2954 ,1.24698 ,1.13374 ,11.12426 
261 ,50.5035 ,1.24908 ,1.12690 ,11.05710 
262 ,50.6954 ,1.25093 ,1.10979 ,10.88921 
263 ,50.8877 ,1.25284 ,1.10294 ,10.82206 
264 ,51.0957 ,1.25493 ,1.08241 ,10.62059 
265 ,51.3039 ,1.25705 ,1.08583 ,10.65416 
266 ,51.4959 ,1.25893 ,1.05845 ,10.38554 
267 ,51.6880 ,1.26086 ,1.06187 ,10.41912 
268 ,51.8960 ,1.26294 ,1.02423 ,10.04976 
269 ,52.1039 ,1.26498 ,1.03108 ,10.11691 
270 ,52.2802 ,1.26683 ,1.02423 ,10.04976 
271 ,52.4883 ,1.26890 ,1.00028 ,9.81471 
272 ,52.6644 ,1.27070 ,0.98659 ,9.68039 
273 ,52.8405 ,1.27245 ,0.96948 ,9.51250 
274 ,53.0164 ,1.27418 ,0.94552 ,9.27745 
275 ,53.1925 ,1.27596 ,0.93183 ,9.14314 
276 ,53.4008 ,1.27800 ,0.93868 ,9.21030 
277 ,53.6088 ,1.28011 ,0.92157 ,9.04241 
278 ,53.8008 ,1.28201 ,0.91814 ,9.00883 
279 ,53.9769 ,1.28379 ,0.90788 ,8.90809 
280 ,54.1686 ,1.28568 ,0.88734 ,8.70662 
281 ,54.3771 ,1.28766 ,0.87708 ,8.60589 
282 ,54.5849 ,1.28982 ,0.88050 ,8.63947 
283 ,54.7613 ,1.29166 ,0.84970 ,8.33726 
284 ,54.9373 ,1.29339 ,0.82917 ,8.13579 
285 ,55.1290 ,1.29524 ,0.82575 ,8.10221 
286 ,55.3052 ,1.29706 ,0.83259 ,8.16937 
287 ,55.4818 ,1.29887 ,0.80863 ,7.93432 
288 ,55.6738 ,1.30074 ,0.78468 ,7.69927 
289 ,55.8658 ,1.30266 ,0.79152 ,7.76643 
290 ,56.0578 ,1.30453 ,0.75388 ,7.39707 
291 ,56.2498 ,1.30647 ,0.74361 ,7.29633 
292 ,56.4260 ,1.30830 ,0.74361 ,7.29633 
293 ,56.6342 ,1.31034 ,0.72308 ,7.09486 
294 ,56.8261 ,1.31224 ,0.72308 ,7.09486 
295 ,57.0343 ,1.31428 ,0.69228 ,6.79266 
296 ,57.2262 ,1.31622 ,0.69228 ,6.79266 
297 ,57.4340 ,1.31833 ,0.66490 ,6.52403 
298 ,57.6265 ,1.32027 ,0.66490 ,6.52403 
299 ,57.8347 ,1.32229 ,0.64437 ,6.32256 
300 ,58.0428 ,1.32431 ,0.64095 ,6.28899 
301 ,58.2506 ,1.32646 ,0.61357 ,6.02036 
302 ,58.4267 ,1.32827 ,0.60330 ,5.91962 
303 ,58.6027 ,1.33009 ,0.62042 ,6.08752 
304 ,58.7945 ,1.33193 ,0.59304 ,5.81889 
305 ,58.9866 ,1.33385 ,0.57935 ,5.68458 
306 ,59.1788 ,1.33576 ,0.57935 ,5.68458 
307 ,59.3710 ,1.33769 ,0.55539 ,5.44953 
308 ,59.5788 ,1.33977 ,0.55882 ,5.48311 
309 ,59.7713 ,1.34169 ,0.52117 ,5.11375 
310 ,59.9792 ,1.34376 ,0.52117 ,5.11375 
311 ,60.1551 ,1.34564 ,0.51091 ,5.01301 
312 ,60.3312 ,1.34731 ,0.49037 ,4.81154 
313 ,60.5075 ,1.34910 ,0.49380 ,4.84512 
314 ,60.6992 ,1.35095 ,0.50064 ,4.91228 
315 ,60.9077 ,1.35296 ,0.46300 ,4.54291 
316 ,61.1154 ,1.35515 ,0.44931 ,4.40860 
317 ,61.3077 ,1.35709 ,0.44931 ,4.40860 
318 ,61.4839 ,1.35885 ,0.42877 ,4.20713 
319 ,61.6759 ,1.36073 ,0.41851 ,4.10640 
320 ,61.8521 ,1.36261 ,0.43220 ,4.24071 
321 ,62.0283 ,1.36432 ,0.41509 ,4.07282 
322 ,62.2198 ,1.36617 ,0.41166 ,4.03924 
323 ,62.4125 ,1.36809 ,0.37744 ,3.70346 
324 ,62.6205 ,1.37015 ,0.38771 ,3.80419 
325 ,62.8125 ,1.37208 ,0.34664 ,3.40125 
326 ,62.9886 ,1.37394 ,0.35691 ,3.50199 
327 ,63.1967 ,1.37587 ,0.33295 ,3.26694 
328 ,63.3888 ,1.37783 ,0.32611 ,3.19978 
329 ,63.5969 ,1.37991 ,0.31242 ,3.06547 
330 ,63.7889 ,1.38187 ,0.30558 ,2.99831 
331 ,63.9646 ,1.38363 ,0.30900 ,3.03189 
332 ,64.1411 ,1.38548 ,0.29189 ,2.86400 
333 ,64.3332 ,1.38721 ,0.26109 ,2.56179 
334 ,64.5248 ,1.38918 ,0.28162 ,2.76326 
335 ,64.7010 ,1.39100 ,0.26451 ,2.59537 
336 ,64.8773 ,1.39280 ,0.25424 ,2.49464 
337 ,65.0530 ,1.39460 ,0.23371 ,2.29317 
338 ,65.2615 ,1.39647 ,0.23371 ,2.29317 
339 ,65.4531 ,1.39842 ,0.21318 ,2.09170 
340 ,65.6298 ,1.40032 ,0.19264 ,1.89023 
341 ,65.8376 ,1.40229 ,0.18922 ,1.85665 
342 ,66.0300 ,1.40425 ,0.18238 ,1.78949 
343 ,66.2215 ,1.40616 ,0.18580 ,1.82307 
344 ,66.4141 ,1.40810 ,0.16185 ,1.58802 
345 ,66.6058 ,1.40998 ,0.15842 ,1.55445 
346 ,66.8142 ,1.41215 ,0.14473 ,1.42013 
347 ,67.0223 ,1.41406 ,0.13789 ,1.35298 
348 ,67.2139 ,1.41602 ,0.11051 ,1.08435 
349 ,67.4064 ,1.41806 ,0.12078 ,1.18508 
350 ,67.5986 ,1.41997 ,0.10367 ,1.01719 
351 ,67.7907 ,1.42193 ,0.07629 ,0.74857 
352 ,67.9667 ,1.42365 ,0.07971 ,0.78214 
353 ,68.1586 ,1.42555 ,0.06602 ,0.64783 
354 ,68.3508 ,1.42753 ,0.05918 ,0.58067 
355 ,68.5909 ,1.42963 ,0.04207 ,0.41278 
356 ,68.7990 ,1.43189 ,0.03865 ,0.37920 
357 ,68.9911 ,1.43387 ,0.01469 ,0.14416 
358 ,69.1992 ,1.43588 ,0.00785 ,0.07700 
359 ,69.3908 ,1.43785 ,-0.01269 ,-0.12447 
360 ,69.5832 ,1.43973 ,0.00100 ,0.00984 
361 ,69.7753 ,1.44170 ,-0.02295 ,-0.22520 
362 ,69.9515 ,1.44352 ,-0.02980 ,-0.29236 
363 ,70.1433 ,1.44541 ,-0.02295 ,-0.22520 
364 ,70.3197 ,1.44718 ,-0.02637 ,-0.25878 
365 ,70.5116 ,1.44901 ,-0.07428 ,-0.72888 
366 ,70.6877 ,1.45087 ,-0.06744 ,-0.66172 
367 ,70.8800 ,1.45270 ,-0.06060 ,-0.59457 
368 ,71.0720 ,1.45463 ,-0.09824 ,-0.96393 
369 ,71.2636 ,1.45658 ,-0.08797 ,-0.86319 
370 ,71.4402 ,1.45840 ,-0.09824 ,-0.96393 
371 ,71.6318 ,1.46024 ,-0.12219 ,-1.19898 
372 ,71.8239 ,1.46215 ,-0.11193 ,-1.09824 
373 ,72.0162 ,1.46404 ,-0.13931 ,-1.36687 
374 ,72.2085 ,1.46605 ,-0.14957 ,-1.46760 
375 ,72.4164 ,1.46806 ,-0.15642 ,-1.53476 
376 ,72.5921 ,1.46990 ,-0.18037 ,-1.76981 
377 ,72.8006 ,1.47184 ,-0.17011 ,-1.66907 
378 ,73.0088 ,1.47401 ,-0.18037 ,-1.76981 
379 ,73.1847 ,1.47585 ,-0.18722 ,-1.83696 
380 ,73.3767 ,1.47764 ,-0.21459 ,-2.10559 
381 ,73.5689 ,1.47964 ,-0.22486 ,-2.20632 
382 ,73.7608 ,1.48150 ,-0.20090 ,-1.97128 
383 ,73.9527 ,1.48341 ,-0.23855 ,-2.34064 
384 ,74.1290 ,1.48529 ,-0.23855 ,-2.34064 
385 ,74.3210 ,1.48717 ,-0.24197 ,-2.37422 
386 ,74.5293 ,1.48923 ,-0.25908 ,-2.54211 
387 ,74.7053 ,1.49102 ,-0.26593 ,-2.60926 
388 ,74.9133 ,1.49303 ,-0.28646 ,-2.81073 
389 ,75.1052 ,1.49500 ,-0.27961 ,-2.74358 
390 ,75.2976 ,1.49682 ,-0.27277 ,-2.67642 
391 ,75.4896 ,1.49882 ,-0.31384 ,-3.07936 
392 ,75.6814 ,1.50070 ,-0.30357 ,-2.97863 
393 ,75.8734 ,1.50259 ,-0.34121 ,-3.34799 
394 ,76.0496 ,1.50453 ,-0.32410 ,-3.18010 
395 ,76.2417 ,1.50628 ,-0.33437 ,-3.28083 
396 ,76.4502 ,1.50828 ,-0.35490 ,-3.48230 
397 ,76.6581 ,1.51047 ,-0.35148 ,-3.44872 
398 ,76.8343 ,1.51227 ,-0.38570 ,-3.78450 
399 ,77.0420 ,1.51431 ,-0.37201 ,-3.65019 
400 ,77.2180 ,1.51612 ,-0.38912 ,-3.81808 
401 ,77.4100 ,1.51813 ,-0.39255 ,-3.85166 
402 ,77.6022 ,1.51991 ,-0.39255 ,-3.85166 
403 ,77.8105 ,1.52204 ,-0.42677 ,-4.18744 
404 ,78.0184 ,1.52406 ,-0.42677 ,-4.18744 
405 ,78.2110 ,1.52602 ,-0.44730 ,-4.38891 
406 ,78.4190 ,1.52813 ,-0.44046 ,-4.32176 
407 ,78.6111 ,1.53001 ,-0.46441 ,-4.55681 
408 ,78.8030 ,1.53198 ,-0.46783 ,-4.59038 
409 ,78.9792 ,1.53374 ,-0.45072 ,-4.42249 
410 ,79.1710 ,1.53556 ,-0.49521 ,-4.85901 
411 ,79.3633 ,1.53752 ,-0.48152 ,-4.72470 
412 ,79.5551 ,1.53947 ,-0.48837 ,-4.79185 
413 ,79.7312 ,1.54128 ,-0.52601 ,-5.16121 
414 ,79.9075 ,1.54301 ,-0.51917 ,-5.09406 
415 ,80.1154 ,1.54505 ,-0.53285 ,-5.22837 
416 ,80.2916 ,1.54698 ,-0.53970 ,-5.29553 
417 ,80.4678 ,1.54861 ,-0.55681 ,-5.46342 
418 ,80.6600 ,1.55053 ,-0.54312 ,-5.32911 
419 ,80.8679 ,1.55250 ,-0.57050 ,-5.59773 
420 ,81.0443 ,1.55438 ,-0.56023 ,-5.49700 
421 ,81.2521 ,1.55645 ,-0.59445 ,-5.83278 
422 ,81.4603 ,1.55849 ,-0.58077 ,-5.69847 
423 ,81.6682 ,1.56053 ,-0.61156 ,-6.00067 
424 ,81.8605 ,1.56247 ,-0.61156 ,-6.00067 
425 ,82.0365 ,1.56434 ,-0.61841 ,-6.06783 
426 ,82.2287 ,1.56614 ,-0.63552 ,-6.23572 
427 ,82.4203 ,1.56810 ,-0.63210 ,-6.20214 
428 ,82.6128 ,1.57001 ,-0.64921 ,-6.37003 
429 ,82.8204 ,1.57209 ,-0.65263 ,-6.40361 
430 ,82.9969 ,1.57390 ,-0.65947 ,-6.47077 
431 ,83.1889 ,1.57575 ,-0.68343 ,-6.70582 
432 ,83.3811 ,1.57770 ,-0.67659 ,-6.63866 
433 ,83.5888 ,1.57976 ,-0.71081 ,-6.97444 
434 ,83.7648 ,1.58155 ,-0.70054 ,-6.87371 
435 ,83.9572 ,1.58343 ,-0.70739 ,-6.94086 
436 ,84.1334 ,1.58525 ,-0.73476 ,-7.20949 
437 ,84.3253 ,1.58715 ,-0.73818 ,-7.24307 
438 ,84.5176 ,1.58906 ,-0.71765 ,-7.04160 
439 ,84.6935 ,1.59095 ,-0.75187 ,-7.37738 
440 ,84.8855 ,1.59274 ,-0.74845 ,-7.34380 
441 ,85.0617 ,1.59452 ,-0.74845 ,-7.34380 
442 ,85.2378 ,1.59627 ,-0.76556 ,-7.51170 
443 ,85.4139 ,1.59809 ,-0.78610 ,-7.71317 
444 ,85.6216 ,1.60008 ,-0.77583 ,-7.61243 
445 ,85.8141 ,1.60200 ,-0.80321 ,-7.88106 
446 ,86.0221 ,1.60419 ,-0.78267 ,-7.67959 
447 ,86.1818 ,1.60586 ,-0.80663 ,-7.91464 
448 ,86.3743 ,1.60761 ,-0.83401 ,-8.18326 
449 ,86.5983 ,1.60972 ,-0.81347 ,-7.98179 
450 ,86.7742 ,1.61163 ,-0.85112 ,-8.35115 
451 ,86.9505 ,1.61340 ,-0.85796 ,-8.41831 
452 ,87.1426 ,1.61525 ,-0.84769 ,-8.31758 
453 ,87.3348 ,1.61720 ,-0.86823 ,-8.51904 
454 ,87.5267 ,1.61910 ,-0.85796 ,-8.41831 
455 ,87.7189 ,1.62109 ,-0.86481 ,-8.48547 
456 ,87.9106 ,1.62308 ,-0.88192 ,-8.65336 
457 ,88.1030 ,1.62490 ,-0.88192 ,-8.65336 
458 ,88.2947 ,1.62681 ,-0.90587 ,-8.88841 
459 ,88.4709 ,1.62861 ,-0.91956 ,-9.02272 
460 ,88.6793 ,1.63063 ,-0.90587 ,-8.88841 
461 ,88.8709 ,1.63255 ,-0.93325 ,-9.15703 
462 ,89.0634 ,1.63447 ,-0.91956 ,-9.02272 
463 ,89.2711 ,1.63657 ,-0.94694 ,-9.29135 
