Data stamp = , 26-04-2022 21:28:35 826

Calibration Values: 
Slope = , 26.54 , g/V 
Offset Voltage at no contact = , -0.501760 , V 

No , Time , Stage Position ,   Mass , Force 
   ,  (s) ,      (mm)      ,   (g)  , (mN)  

1 ,0.0000 ,0.74945 ,5.28483 ,51.85474 
2 ,0.2305 ,0.74955 ,5.27798 ,51.78758 
3 ,0.6309 ,0.75093 ,5.27114 ,51.72043 
4 ,0.8232 ,0.75261 ,5.27456 ,51.75401 
5 ,1.0313 ,0.75450 ,5.26087 ,51.61969 
6 ,1.2394 ,0.75652 ,5.28483 ,51.85474 
7 ,1.4151 ,0.75832 ,5.27114 ,51.72043 
8 ,1.6076 ,0.76023 ,5.27798 ,51.78758 
9 ,1.8317 ,0.76243 ,5.24376 ,51.45180 
10 ,2.0395 ,0.76459 ,5.24376 ,51.45180 
11 ,2.2317 ,0.76653 ,5.22323 ,51.25033 
12 ,2.4078 ,0.76829 ,5.18216 ,50.84739 
13 ,2.5840 ,0.77009 ,5.16848 ,50.71308 
14 ,2.7920 ,0.77208 ,5.14452 ,50.47803 
15 ,2.9681 ,0.77387 ,5.13425 ,50.37729 
16 ,3.1443 ,0.77567 ,5.11372 ,50.17583 
17 ,3.3362 ,0.77756 ,5.11372 ,50.17583 
18 ,3.4963 ,0.77931 ,5.07608 ,49.80646 
19 ,3.6724 ,0.78105 ,5.06581 ,49.70573 
20 ,3.8645 ,0.78281 ,5.04185 ,49.47068 
21 ,4.0726 ,0.78489 ,5.03159 ,49.36995 
22 ,4.2487 ,0.78669 ,5.01106 ,49.16848 
23 ,4.4403 ,0.78867 ,4.99394 ,49.00058 
24 ,4.6164 ,0.79037 ,4.97341 ,48.79911 
25 ,4.7928 ,0.79225 ,4.94261 ,48.49691 
26 ,4.9849 ,0.79402 ,4.92892 ,48.36260 
27 ,5.1610 ,0.79581 ,4.90839 ,48.16113 
28 ,5.3691 ,0.79788 ,4.89470 ,48.02681 
29 ,5.5613 ,0.79978 ,4.89128 ,47.99324 
30 ,5.7529 ,0.80182 ,4.85706 ,47.65745 
31 ,5.9452 ,0.80368 ,4.83652 ,47.45598 
32 ,6.1215 ,0.80543 ,4.82284 ,47.32167 
33 ,6.3137 ,0.80728 ,4.80915 ,47.18736 
34 ,6.4896 ,0.80919 ,4.77493 ,46.85157 
35 ,6.6654 ,0.81085 ,4.76466 ,46.75084 
36 ,6.8735 ,0.81286 ,4.76124 ,46.71726 
37 ,7.0819 ,0.81493 ,4.73728 ,46.48221 
38 ,7.2740 ,0.81692 ,4.72359 ,46.34790 
39 ,7.4659 ,0.81891 ,4.68253 ,45.94496 
40 ,7.6416 ,0.82059 ,4.66199 ,45.74349 
41 ,7.8181 ,0.82240 ,4.64831 ,45.60918 
42 ,7.9943 ,0.82416 ,4.63804 ,45.50844 
43 ,8.1864 ,0.82603 ,4.60724 ,45.20624 
44 ,8.3784 ,0.82794 ,4.60724 ,45.20624 
45 ,8.5704 ,0.82986 ,4.59355 ,45.07192 
46 ,8.7462 ,0.83165 ,4.56960 ,44.83688 
47 ,8.9387 ,0.83358 ,4.54906 ,44.63541 
48 ,9.1787 ,0.83585 ,4.51826 ,44.33320 
49 ,9.3864 ,0.83799 ,4.49431 ,44.09815 
50 ,9.5630 ,0.83980 ,4.48746 ,44.03100 
51 ,9.7707 ,0.84174 ,4.46693 ,43.82953 
52 ,9.9631 ,0.84381 ,4.43271 ,43.49374 
53 ,10.1547 ,0.84567 ,4.43955 ,43.56090 
54 ,10.3469 ,0.84755 ,4.41560 ,43.32585 
55 ,10.5231 ,0.84943 ,4.39164 ,43.09080 
56 ,10.7154 ,0.85133 ,4.38138 ,42.99007 
57 ,10.9072 ,0.85321 ,4.37111 ,42.88933 
58 ,11.1157 ,0.85537 ,4.35400 ,42.72144 
59 ,11.3072 ,0.85722 ,4.33347 ,42.51997 
60 ,11.5157 ,0.85927 ,4.30609 ,42.25135 
61 ,11.7075 ,0.86117 ,4.28556 ,42.04988 
62 ,11.8839 ,0.86305 ,4.26845 ,41.88198 
63 ,12.0918 ,0.86503 ,4.26502 ,41.84841 
64 ,12.2839 ,0.86697 ,4.22738 ,41.47905 
65 ,12.4764 ,0.86888 ,4.20685 ,41.27758 
66 ,12.6841 ,0.87098 ,4.18289 ,41.04253 
67 ,12.8600 ,0.87281 ,4.16236 ,40.84106 
68 ,13.0682 ,0.87481 ,4.17262 ,40.94179 
69 ,13.2441 ,0.87665 ,4.14867 ,40.70674 
70 ,13.4525 ,0.87861 ,4.12129 ,40.43812 
71 ,13.6605 ,0.88071 ,4.09391 ,40.16949 
72 ,13.8364 ,0.88254 ,4.07680 ,40.00160 
73 ,14.0448 ,0.88452 ,4.06654 ,39.90087 
74 ,14.2367 ,0.88650 ,4.05285 ,39.76655 
75 ,14.4284 ,0.88839 ,4.04600 ,39.69940 
76 ,14.6050 ,0.89023 ,4.01178 ,39.36361 
77 ,14.7970 ,0.89210 ,3.99467 ,39.19572 
78 ,15.0049 ,0.89417 ,3.96729 ,38.92709 
79 ,15.1970 ,0.89608 ,3.95361 ,38.79278 
80 ,15.3731 ,0.89796 ,3.95361 ,38.79278 
81 ,15.5650 ,0.89972 ,3.92623 ,38.52415 
82 ,15.7734 ,0.90182 ,3.89885 ,38.25553 
83 ,15.9814 ,0.90382 ,3.88174 ,38.08764 
84 ,16.1736 ,0.90587 ,3.86463 ,37.91975 
85 ,16.3657 ,0.90775 ,3.86463 ,37.91975 
86 ,16.5413 ,0.90966 ,3.82699 ,37.55038 
87 ,16.7339 ,0.91144 ,3.80987 ,37.38249 
88 ,16.9256 ,0.91346 ,3.78592 ,37.14744 
89 ,17.1179 ,0.91527 ,3.77565 ,37.04671 
90 ,17.3100 ,0.91718 ,3.76881 ,36.97955 
91 ,17.5181 ,0.91928 ,3.73459 ,36.64377 
92 ,17.6941 ,0.92116 ,3.73117 ,36.61019 
93 ,17.8861 ,0.92292 ,3.70721 ,36.37514 
94 ,18.1104 ,0.92514 ,3.67641 ,36.07294 
95 ,18.3023 ,0.92715 ,3.67641 ,36.07294 
96 ,18.4940 ,0.92902 ,3.64561 ,35.77073 
97 ,18.7022 ,0.93119 ,3.65246 ,35.83789 
98 ,18.8941 ,0.93301 ,3.61481 ,35.46853 
99 ,19.0862 ,0.93495 ,3.61823 ,35.50211 
100 ,19.2787 ,0.93686 ,3.58059 ,35.13275 
101 ,19.5027 ,0.93913 ,3.55321 ,34.86412 
102 ,19.7111 ,0.94117 ,3.54637 ,34.79696 
103 ,19.9031 ,0.94313 ,3.52926 ,34.62907 
104 ,20.0953 ,0.94508 ,3.49846 ,34.32687 
105 ,20.3033 ,0.94702 ,3.50530 ,34.39402 
106 ,20.5113 ,0.94922 ,3.47108 ,34.05824 
107 ,20.6874 ,0.95104 ,3.46081 ,33.95751 
108 ,20.8951 ,0.95302 ,3.43344 ,33.68888 
109 ,21.0716 ,0.95487 ,3.41290 ,33.48741 
110 ,21.2476 ,0.95662 ,3.43001 ,33.65530 
111 ,21.4398 ,0.95847 ,3.38553 ,33.21878 
112 ,21.6638 ,0.96075 ,3.38210 ,33.18520 
113 ,21.8398 ,0.96251 ,3.35473 ,32.91658 
114 ,22.0159 ,0.96429 ,3.32393 ,32.61437 
115 ,22.1920 ,0.96608 ,3.31024 ,32.48006 
116 ,22.3681 ,0.96782 ,3.31024 ,32.48006 
117 ,22.5764 ,0.96987 ,3.27602 ,32.14428 
118 ,22.7681 ,0.97177 ,3.26917 ,32.07712 
119 ,22.9604 ,0.97376 ,3.25891 ,31.97639 
120 ,23.1526 ,0.97564 ,3.23153 ,31.70776 
121 ,23.3606 ,0.97766 ,3.22811 ,31.67418 
122 ,23.5526 ,0.97964 ,3.19388 ,31.33840 
123 ,23.7287 ,0.98145 ,3.18362 ,31.23766 
124 ,23.9208 ,0.98328 ,3.17677 ,31.17051 
125 ,24.1125 ,0.98518 ,3.14255 ,30.83472 
126 ,24.3045 ,0.98710 ,3.13571 ,30.76757 
127 ,24.4806 ,0.98894 ,3.12886 ,30.70041 
128 ,24.6891 ,0.99104 ,3.09464 ,30.36463 
129 ,24.8972 ,0.99309 ,3.07069 ,30.12958 
130 ,25.1213 ,0.99519 ,3.06726 ,30.09600 
131 ,25.3133 ,0.99723 ,3.03304 ,29.76022 
132 ,25.5216 ,0.99927 ,3.02620 ,29.69306 
133 ,25.6975 ,1.00106 ,3.01935 ,29.62590 
134 ,25.9056 ,1.00312 ,2.98855 ,29.32370 
135 ,26.0977 ,1.00513 ,2.97487 ,29.18939 
136 ,26.2733 ,1.00692 ,2.93722 ,28.82003 
137 ,26.4498 ,1.00860 ,2.93038 ,28.75287 
138 ,26.6419 ,1.01060 ,2.93038 ,28.75287 
139 ,26.8182 ,1.01235 ,2.91669 ,28.61856 
140 ,27.0100 ,1.01414 ,2.88931 ,28.34993 
141 ,27.2022 ,1.01609 ,2.88589 ,28.31635 
142 ,27.3782 ,1.01790 ,2.87562 ,28.21562 
143 ,27.5860 ,1.01995 ,2.84140 ,27.87983 
144 ,27.7784 ,1.02188 ,2.82087 ,27.67836 
145 ,27.9706 ,1.02373 ,2.80718 ,27.54405 
146 ,28.1786 ,1.02584 ,2.80034 ,27.47689 
147 ,28.3705 ,1.02784 ,2.76269 ,27.10753 
148 ,28.5628 ,1.02976 ,2.75585 ,27.04038 
149 ,28.7706 ,1.03175 ,2.73189 ,26.80533 
150 ,28.9628 ,1.03371 ,2.73189 ,26.80533 
151 ,29.1551 ,1.03559 ,2.69767 ,26.46954 
152 ,29.3632 ,1.03771 ,2.68740 ,26.36881 
153 ,29.5551 ,1.03959 ,2.67714 ,26.26807 
154 ,29.7471 ,1.04150 ,2.66003 ,26.10018 
155 ,29.9235 ,1.04336 ,2.66003 ,26.10018 
156 ,30.1315 ,1.04540 ,2.62581 ,25.76440 
157 ,30.3234 ,1.04733 ,2.61212 ,25.63009 
158 ,30.5153 ,1.04916 ,2.59501 ,25.46220 
159 ,30.7077 ,1.05112 ,2.57105 ,25.22715 
160 ,30.9158 ,1.05324 ,2.57105 ,25.22715 
161 ,31.1079 ,1.05514 ,2.52998 ,24.82421 
162 ,31.2999 ,1.05711 ,2.52314 ,24.75705 
163 ,31.4920 ,1.05900 ,2.51287 ,24.65632 
164 ,31.6841 ,1.06098 ,2.50603 ,24.58916 
165 ,31.8758 ,1.06275 ,2.48207 ,24.35411 
166 ,32.0523 ,1.06461 ,2.46839 ,24.21980 
167 ,32.2444 ,1.06654 ,2.45470 ,24.08549 
168 ,32.4364 ,1.06840 ,2.45127 ,24.05191 
169 ,32.6284 ,1.07037 ,2.41705 ,23.71612 
170 ,32.8362 ,1.07241 ,2.41021 ,23.64897 
171 ,33.0448 ,1.07442 ,2.38625 ,23.41392 
172 ,33.2367 ,1.07641 ,2.37256 ,23.27961 
173 ,33.4448 ,1.07845 ,2.34519 ,23.01098 
174 ,33.6047 ,1.08027 ,2.34519 ,23.01098 
175 ,33.7965 ,1.08197 ,2.33834 ,22.94382 
176 ,33.9891 ,1.08397 ,2.31097 ,22.67520 
177 ,34.1969 ,1.08598 ,2.29043 ,22.47373 
178 ,34.3893 ,1.08792 ,2.27332 ,22.30584 
179 ,34.5655 ,1.08976 ,2.25963 ,22.17152 
180 ,34.7894 ,1.09200 ,2.24252 ,22.00363 
181 ,34.9815 ,1.09385 ,2.22883 ,21.86932 
182 ,35.1735 ,1.09582 ,2.22883 ,21.86932 
183 ,35.3497 ,1.09761 ,2.20146 ,21.60069 
184 ,35.5577 ,1.09957 ,2.18092 ,21.39922 
185 ,35.7338 ,1.10143 ,2.17750 ,21.36564 
186 ,35.9256 ,1.10340 ,2.13986 ,20.99628 
187 ,36.1019 ,1.10518 ,2.13986 ,20.99628 
188 ,36.2941 ,1.10701 ,2.13986 ,20.99628 
189 ,36.4862 ,1.10892 ,2.09195 ,20.52619 
190 ,36.6782 ,1.11083 ,2.10564 ,20.66050 
191 ,36.8542 ,1.11268 ,2.08510 ,20.45903 
192 ,37.0301 ,1.11440 ,2.07484 ,20.35829 
193 ,37.2225 ,1.11627 ,2.04061 ,20.02251 
194 ,37.4144 ,1.11816 ,2.04746 ,20.08967 
195 ,37.6066 ,1.12009 ,2.01324 ,19.75388 
196 ,37.7986 ,1.12201 ,2.00982 ,19.72031 
197 ,37.9906 ,1.12391 ,1.99270 ,19.55241 
198 ,38.1663 ,1.12571 ,1.97902 ,19.41810 
199 ,38.3429 ,1.12754 ,1.94479 ,19.08232 
200 ,38.5509 ,1.12952 ,1.95164 ,19.14948 
201 ,38.7589 ,1.13159 ,1.93111 ,18.94801 
202 ,38.9352 ,1.13344 ,1.92426 ,18.88085 
203 ,39.1432 ,1.13544 ,1.89688 ,18.61222 
204 ,39.3352 ,1.13740 ,1.89004 ,18.54507 
205 ,39.5273 ,1.13934 ,1.88662 ,18.51149 
206 ,39.7034 ,1.14112 ,1.86608 ,18.31002 
207 ,39.8632 ,1.14283 ,1.84213 ,18.07497 
208 ,40.0396 ,1.14450 ,1.82844 ,17.94066 
209 ,40.2474 ,1.14644 ,1.82160 ,17.87350 
210 ,40.4398 ,1.14841 ,1.80106 ,17.67203 
211 ,40.6477 ,1.15051 ,1.79422 ,17.60487 
212 ,40.8395 ,1.15250 ,1.78395 ,17.50414 
213 ,41.0159 ,1.15424 ,1.76684 ,17.33625 
214 ,41.2081 ,1.15609 ,1.76000 ,17.26909 
215 ,41.3998 ,1.15801 ,1.74289 ,17.10120 
216 ,41.5922 ,1.15995 ,1.72920 ,16.96689 
217 ,41.7842 ,1.16183 ,1.70182 ,16.69826 
218 ,41.9762 ,1.16374 ,1.71209 ,16.79899 
219 ,42.1842 ,1.16572 ,1.67786 ,16.46321 
220 ,42.3764 ,1.16774 ,1.67444 ,16.42963 
221 ,42.5684 ,1.16969 ,1.68129 ,16.49679 
222 ,42.7608 ,1.17164 ,1.64022 ,16.09385 
223 ,42.9685 ,1.17359 ,1.62653 ,15.95954 
224 ,43.1608 ,1.17559 ,1.61284 ,15.82522 
225 ,43.3529 ,1.17756 ,1.60942 ,15.79164 
226 ,43.5606 ,1.17963 ,1.57862 ,15.48944 
227 ,43.7533 ,1.18149 ,1.58889 ,15.59018 
228 ,43.9453 ,1.18346 ,1.56151 ,15.32155 
229 ,44.1534 ,1.18555 ,1.56151 ,15.32155 
230 ,44.3454 ,1.18744 ,1.53413 ,15.05292 
231 ,44.5217 ,1.18929 ,1.50676 ,14.78430 
232 ,44.7134 ,1.19113 ,1.51018 ,14.81787 
233 ,44.9056 ,1.19316 ,1.48280 ,14.54925 
234 ,45.0976 ,1.19495 ,1.47596 ,14.48209 
235 ,45.2735 ,1.19680 ,1.46569 ,14.38136 
236 ,45.4815 ,1.19884 ,1.44174 ,14.14631 
237 ,45.6734 ,1.20069 ,1.43831 ,14.11273 
238 ,45.8660 ,1.20264 ,1.43489 ,14.07915 
239 ,46.0743 ,1.20477 ,1.41778 ,13.91126 
240 ,46.2659 ,1.20665 ,1.42120 ,13.94484 
241 ,46.4581 ,1.20861 ,1.39040 ,13.64263 
242 ,46.6504 ,1.21047 ,1.37329 ,13.47474 
243 ,46.8424 ,1.21250 ,1.35960 ,13.34043 
244 ,47.0345 ,1.21435 ,1.34591 ,13.20612 
245 ,47.2264 ,1.21623 ,1.33565 ,13.10538 
246 ,47.4026 ,1.21808 ,1.32538 ,13.00465 
247 ,47.5785 ,1.21990 ,1.30143 ,12.76960 
248 ,47.7706 ,1.22171 ,1.30485 ,12.80318 
249 ,47.9626 ,1.22368 ,1.29116 ,12.66886 
250 ,48.1708 ,1.22567 ,1.29116 ,12.66886 
251 ,48.3467 ,1.22750 ,1.27405 ,12.50097 
252 ,48.5385 ,1.22938 ,1.22956 ,12.06445 
253 ,48.7311 ,1.23128 ,1.23298 ,12.09803 
254 ,48.9068 ,1.23312 ,1.22272 ,11.99730 
255 ,49.0993 ,1.23494 ,1.19876 ,11.76225 
256 ,49.2914 ,1.23690 ,1.20218 ,11.79583 
257 ,49.4994 ,1.23904 ,1.17138 ,11.49362 
258 ,49.6754 ,1.24079 ,1.15427 ,11.32573 
259 ,49.8515 ,1.24257 ,1.14743 ,11.25857 
260 ,50.0276 ,1.24437 ,1.14401 ,11.22500 
261 ,50.2037 ,1.24611 ,1.13032 ,11.09068 
262 ,50.3957 ,1.24793 ,1.10636 ,10.85563 
263 ,50.5878 ,1.24985 ,1.12347 ,11.02353 
264 ,50.7639 ,1.25168 ,1.09267 ,10.72132 
265 ,50.9720 ,1.25372 ,1.07899 ,10.58701 
266 ,51.1641 ,1.25561 ,1.07214 ,10.51985 
267 ,51.3561 ,1.25752 ,1.04134 ,10.21765 
268 ,51.5320 ,1.25937 ,1.03792 ,10.18407 
269 ,51.7404 ,1.26140 ,1.02765 ,10.08333 
270 ,51.9325 ,1.26332 ,1.01739 ,9.98260 
271 ,52.1242 ,1.26523 ,1.01739 ,9.98260 
272 ,52.3166 ,1.26718 ,0.99343 ,9.74755 
273 ,52.5243 ,1.26921 ,0.98659 ,9.68039 
274 ,52.7007 ,1.27105 ,0.97974 ,9.61324 
275 ,52.8765 ,1.27280 ,0.94552 ,9.27745 
276 ,53.0689 ,1.27465 ,0.93525 ,9.17672 
277 ,53.2605 ,1.27657 ,0.93183 ,9.14314 
278 ,53.4526 ,1.27845 ,0.92157 ,9.04241 
279 ,53.6289 ,1.28035 ,0.91130 ,8.94167 
280 ,53.8370 ,1.28231 ,0.88050 ,8.63947 
281 ,54.0291 ,1.28421 ,0.89077 ,8.74020 
282 ,54.2215 ,1.28623 ,0.87708 ,8.60589 
283 ,54.4135 ,1.28813 ,0.83943 ,8.23653 
284 ,54.6212 ,1.29018 ,0.83601 ,8.20295 
285 ,54.8136 ,1.29209 ,0.82917 ,8.13579 
286 ,55.0056 ,1.29402 ,0.82232 ,8.06864 
287 ,55.1976 ,1.29593 ,0.79837 ,7.83359 
288 ,55.3734 ,1.29781 ,0.79837 ,7.83359 
289 ,55.5819 ,1.29966 ,0.78468 ,7.69927 
290 ,55.7898 ,1.30185 ,0.77099 ,7.56496 
291 ,55.9820 ,1.30377 ,0.76415 ,7.49780 
292 ,56.1742 ,1.30571 ,0.74019 ,7.26276 
293 ,56.3660 ,1.30760 ,0.74361 ,7.29633 
294 ,56.5582 ,1.30966 ,0.71624 ,7.02771 
295 ,56.7504 ,1.31152 ,0.70255 ,6.89340 
296 ,56.9425 ,1.31346 ,0.71624 ,7.02771 
297 ,57.1346 ,1.31533 ,0.69228 ,6.79266 
298 ,57.3426 ,1.31734 ,0.68886 ,6.75908 
299 ,57.5185 ,1.31919 ,0.66490 ,6.52403 
300 ,57.7427 ,1.32145 ,0.65806 ,6.45688 
301 ,57.9509 ,1.32343 ,0.62384 ,6.12109 
302 ,58.1269 ,1.32530 ,0.62042 ,6.08752 
303 ,58.3350 ,1.32728 ,0.59988 ,5.88605 
304 ,58.5108 ,1.32916 ,0.59304 ,5.81889 
305 ,58.6868 ,1.33085 ,0.58962 ,5.78531 
306 ,58.8632 ,1.33270 ,0.57935 ,5.68458 
307 ,59.0554 ,1.33447 ,0.56224 ,5.51668 
308 ,59.2474 ,1.33639 ,0.56224 ,5.51668 
309 ,59.4715 ,1.33856 ,0.55539 ,5.44953 
310 ,59.6796 ,1.34070 ,0.53144 ,5.21448 
311 ,59.8716 ,1.34266 ,0.49722 ,4.87870 
312 ,60.0798 ,1.34478 ,0.51433 ,5.04659 
313 ,60.2715 ,1.34667 ,0.48695 ,4.77796 
314 ,60.4478 ,1.34844 ,0.47326 ,4.64365 
315 ,60.6399 ,1.35031 ,0.46642 ,4.57649 
316 ,60.8317 ,1.35231 ,0.46300 ,4.54291 
317 ,61.0242 ,1.35419 ,0.45615 ,4.47576 
318 ,61.2322 ,1.35623 ,0.42193 ,4.13997 
319 ,61.4244 ,1.35821 ,0.41851 ,4.10640 
320 ,61.6163 ,1.36009 ,0.41509 ,4.07282 
321 ,61.8246 ,1.36219 ,0.40824 ,4.00566 
322 ,62.0324 ,1.36427 ,0.38771 ,3.80419 
323 ,62.2403 ,1.36634 ,0.39455 ,3.87135 
324 ,62.4328 ,1.36828 ,0.36033 ,3.53557 
325 ,62.6244 ,1.37020 ,0.34664 ,3.40125 
326 ,62.8167 ,1.37211 ,0.34664 ,3.40125 
327 ,63.0086 ,1.37398 ,0.32611 ,3.19978 
328 ,63.2171 ,1.37608 ,0.32611 ,3.19978 
329 ,63.4250 ,1.37818 ,0.31242 ,3.06547 
330 ,63.6168 ,1.38007 ,0.29873 ,2.93116 
331 ,63.8254 ,1.38220 ,0.26793 ,2.62895 
332 ,64.0333 ,1.38428 ,0.27135 ,2.66253 
333 ,64.2415 ,1.38628 ,0.24740 ,2.42748 
334 ,64.4495 ,1.38842 ,0.23029 ,2.25959 
335 ,64.6252 ,1.39030 ,0.24055 ,2.36032 
336 ,64.8017 ,1.39201 ,0.22344 ,2.19243 
337 ,64.9936 ,1.39386 ,0.22687 ,2.22601 
338 ,65.1695 ,1.39570 ,0.20291 ,1.99096 
339 ,65.3780 ,1.39762 ,0.18922 ,1.85665 
340 ,65.5700 ,1.39962 ,0.18238 ,1.78949 
341 ,65.7622 ,1.40159 ,0.17896 ,1.75592 
342 ,65.9542 ,1.40357 ,0.15500 ,1.52087 
343 ,66.1303 ,1.40529 ,0.15158 ,1.48729 
344 ,66.3384 ,1.40730 ,0.14816 ,1.45371 
345 ,66.5305 ,1.40930 ,0.13447 ,1.31940 
346 ,66.7063 ,1.41103 ,0.12420 ,1.21866 
347 ,66.8985 ,1.41290 ,0.12078 ,1.18508 
348 ,67.0908 ,1.41482 ,0.08998 ,0.88288 
349 ,67.2827 ,1.41676 ,0.08656 ,0.84930 
350 ,67.4749 ,1.41868 ,0.08656 ,0.84930 
351 ,67.6830 ,1.42077 ,0.05234 ,0.51352 
352 ,67.8911 ,1.42281 ,0.03865 ,0.37920 
353 ,68.0992 ,1.42482 ,0.03522 ,0.34563 
354 ,68.2913 ,1.42689 ,0.02838 ,0.27847 
355 ,68.4830 ,1.42873 ,0.02154 ,0.21131 
356 ,68.6594 ,1.43059 ,0.00443 ,0.04342 
357 ,68.8516 ,1.43237 ,-0.00926 ,-0.09089 
358 ,69.0596 ,1.43451 ,0.00443 ,0.04342 
359 ,69.2356 ,1.43639 ,-0.02295 ,-0.22520 
360 ,69.4277 ,1.43817 ,-0.04006 ,-0.39310 
361 ,69.6197 ,1.44012 ,-0.04348 ,-0.42667 
362 ,69.7960 ,1.44192 ,-0.04006 ,-0.39310 
363 ,69.9876 ,1.44377 ,-0.06402 ,-0.62814 
364 ,70.1641 ,1.44557 ,-0.08797 ,-0.86319 
365 ,70.3560 ,1.44744 ,-0.07086 ,-0.69530 
366 ,70.5639 ,1.44955 ,-0.09824 ,-0.96393 
367 ,70.7559 ,1.45146 ,-0.09140 ,-0.89677 
368 ,70.9326 ,1.45329 ,-0.10166 ,-0.99751 
369 ,71.1244 ,1.45515 ,-0.11535 ,-1.13182 
370 ,71.3006 ,1.45700 ,-0.13588 ,-1.33329 
371 ,71.4925 ,1.45882 ,-0.14273 ,-1.40045 
372 ,71.7003 ,1.46095 ,-0.15299 ,-1.50118 
373 ,71.8926 ,1.46277 ,-0.15299 ,-1.50118 
374 ,72.1009 ,1.46495 ,-0.18379 ,-1.80338 
375 ,72.2926 ,1.46687 ,-0.16668 ,-1.63549 
376 ,72.4851 ,1.46872 ,-0.20775 ,-2.03843 
377 ,72.6768 ,1.47066 ,-0.20433 ,-2.00485 
378 ,72.8852 ,1.47273 ,-0.22144 ,-2.17275 
379 ,73.0934 ,1.47483 ,-0.20090 ,-1.97128 
380 ,73.2854 ,1.47674 ,-0.23855 ,-2.34064 
381 ,73.4775 ,1.47865 ,-0.24539 ,-2.40779 
382 ,73.7016 ,1.48083 ,-0.24881 ,-2.44137 
383 ,73.8936 ,1.48282 ,-0.25224 ,-2.47495 
384 ,74.0858 ,1.48478 ,-0.28304 ,-2.77716 
385 ,74.2778 ,1.48671 ,-0.29330 ,-2.87789 
386 ,74.4858 ,1.48872 ,-0.29330 ,-2.87789 
387 ,74.6777 ,1.49069 ,-0.30015 ,-2.94505 
388 ,74.8537 ,1.49248 ,-0.32068 ,-3.14652 
389 ,75.0461 ,1.49436 ,-0.31726 ,-3.11294 
390 ,75.2542 ,1.49636 ,-0.32068 ,-3.14652 
391 ,75.4463 ,1.49834 ,-0.33779 ,-3.31441 
392 ,75.6543 ,1.50039 ,-0.34121 ,-3.34799 
393 ,75.8466 ,1.50233 ,-0.35490 ,-3.48230 
394 ,76.0383 ,1.50439 ,-0.35490 ,-3.48230 
395 ,76.2146 ,1.50606 ,-0.37544 ,-3.68377 
396 ,76.4225 ,1.50812 ,-0.40281 ,-3.95240 
397 ,76.5986 ,1.50990 ,-0.40281 ,-3.95240 
398 ,76.7749 ,1.51169 ,-0.42335 ,-4.15387 
399 ,76.9667 ,1.51354 ,-0.41650 ,-4.08671 
400 ,77.1750 ,1.51564 ,-0.41992 ,-4.12029 
401 ,77.3830 ,1.51771 ,-0.44388 ,-4.35534 
402 ,77.5593 ,1.51953 ,-0.44730 ,-4.38891 
403 ,77.7671 ,1.52150 ,-0.45072 ,-4.42249 
404 ,77.9594 ,1.52341 ,-0.46441 ,-4.55681 
405 ,78.1350 ,1.52532 ,-0.47468 ,-4.65754 
406 ,78.3114 ,1.52708 ,-0.47810 ,-4.69112 
407 ,78.5037 ,1.52890 ,-0.49179 ,-4.82543 
408 ,78.7118 ,1.53086 ,-0.49863 ,-4.89259 
409 ,78.9037 ,1.53291 ,-0.51232 ,-5.02690 
410 ,79.0799 ,1.53475 ,-0.52601 ,-5.16121 
411 ,79.2713 ,1.53660 ,-0.52259 ,-5.12764 
412 ,79.4634 ,1.53851 ,-0.53285 ,-5.22837 
413 ,79.6394 ,1.54039 ,-0.55339 ,-5.42984 
414 ,79.8322 ,1.54223 ,-0.57050 ,-5.59773 
415 ,80.0239 ,1.54413 ,-0.55339 ,-5.42984 
416 ,80.2003 ,1.54596 ,-0.58419 ,-5.73205 
417 ,80.4082 ,1.54801 ,-0.58419 ,-5.73205 
418 ,80.6165 ,1.55001 ,-0.60814 ,-5.96709 
419 ,80.8086 ,1.55193 ,-0.60130 ,-5.89994 
420 ,81.0165 ,1.55399 ,-0.62525 ,-6.13499 
421 ,81.2087 ,1.55594 ,-0.61841 ,-6.06783 
422 ,81.4002 ,1.55791 ,-0.63552 ,-6.23572 
423 ,81.6087 ,1.55985 ,-0.64579 ,-6.33646 
424 ,81.7849 ,1.56177 ,-0.64579 ,-6.33646 
425 ,81.9928 ,1.56377 ,-0.65263 ,-6.40361 
426 ,82.1851 ,1.56569 ,-0.66632 ,-6.53793 
427 ,82.3769 ,1.56759 ,-0.68001 ,-6.67224 
428 ,82.5532 ,1.56953 ,-0.67316 ,-6.60508 
429 ,82.7454 ,1.57132 ,-0.69370 ,-6.80655 
430 ,82.9372 ,1.57320 ,-0.70396 ,-6.90729 
431 ,83.1133 ,1.57505 ,-0.71423 ,-7.00802 
432 ,83.3215 ,1.57705 ,-0.73476 ,-7.20949 
433 ,83.4973 ,1.57885 ,-0.73476 ,-7.20949 
434 ,83.7056 ,1.58091 ,-0.72792 ,-7.14233 
435 ,83.8977 ,1.58283 ,-0.75530 ,-7.41096 
436 ,84.0893 ,1.58476 ,-0.75530 ,-7.41096 
437 ,84.2653 ,1.58654 ,-0.75187 ,-7.37738 
438 ,84.4415 ,1.58836 ,-0.77925 ,-7.64601 
439 ,84.6336 ,1.59021 ,-0.78952 ,-7.74674 
440 ,84.8421 ,1.59215 ,-0.77583 ,-7.61243 
441 ,85.0502 ,1.59435 ,-0.78952 ,-7.74674 
442 ,85.2583 ,1.59639 ,-0.82374 ,-8.08253 
443 ,85.4504 ,1.59836 ,-0.81005 ,-7.94821 
444 ,85.6425 ,1.60025 ,-0.82716 ,-8.11611 
445 ,85.8344 ,1.60216 ,-0.84427 ,-8.28400 
446 ,86.0265 ,1.60411 ,-0.83058 ,-8.14968 
447 ,86.2185 ,1.60604 ,-0.84769 ,-8.31758 
448 ,86.4265 ,1.60811 ,-0.83743 ,-8.21684 
449 ,86.6030 ,1.60999 ,-0.87165 ,-8.55262 
450 ,86.7947 ,1.61182 ,-0.88192 ,-8.65336 
451 ,87.0030 ,1.61386 ,-0.87849 ,-8.61978 
452 ,87.2108 ,1.61590 ,-0.89218 ,-8.75409 
453 ,87.4191 ,1.61799 ,-0.89903 ,-8.82125 
454 ,87.6271 ,1.62009 ,-0.92640 ,-9.08988 
455 ,87.8193 ,1.62197 ,-0.92640 ,-9.08988 
456 ,88.0274 ,1.62415 ,-0.92983 ,-9.12345 
457 ,88.2191 ,1.62606 ,-0.94009 ,-9.22419 
458 ,88.3954 ,1.62783 ,-0.94694 ,-9.29135 
459 ,88.5874 ,1.62969 ,-0.94694 ,-9.29135 
460 ,88.7955 ,1.63176 ,-0.95720 ,-9.39208 
461 ,88.9875 ,1.63373 ,-0.96747 ,-9.49282 
462 ,89.1796 ,1.63563 ,-0.96747 ,-9.49282 
463 ,89.3559 ,1.63743 ,-0.98458 ,-9.66071 
