Data stamp = , 26-04-2022 20:30:52 134

Calibration Values: 
Slope = , 26.54 , g/V 
Offset Voltage at no contact = , -0.501760 , V 

No , Time , Stage Position ,   Mass , Force 
   ,  (s) ,      (mm)      ,   (g)  , (mN)  

1 ,0.0000 ,0.74945 ,5.34301 ,52.42557 
2 ,0.3244 ,0.74971 ,5.32932 ,52.29126 
3 ,0.8527 ,0.75189 ,5.32589 ,52.25768 
4 ,1.0608 ,0.75481 ,5.34985 ,52.49273 
5 ,1.2690 ,0.75675 ,5.32932 ,52.29126 
6 ,1.4770 ,0.75886 ,5.34643 ,52.45915 
7 ,1.6850 ,0.76099 ,5.34301 ,52.42557 
8 ,1.8771 ,0.76299 ,5.29510 ,51.95548 
9 ,2.0853 ,0.76500 ,5.29510 ,51.95548 
10 ,2.2773 ,0.76695 ,5.26087 ,51.61969 
11 ,2.4853 ,0.76901 ,5.25061 ,51.51896 
12 ,2.6935 ,0.77109 ,5.21639 ,51.18317 
13 ,2.9014 ,0.77312 ,5.18559 ,50.88097 
14 ,3.1097 ,0.77517 ,5.17190 ,50.74666 
15 ,3.3026 ,0.77720 ,5.15479 ,50.57876 
16 ,3.5098 ,0.77931 ,5.12056 ,50.24298 
17 ,3.7019 ,0.78124 ,5.12056 ,50.24298 
18 ,3.8939 ,0.78320 ,5.09661 ,50.00793 
19 ,4.0858 ,0.78507 ,5.08292 ,49.87362 
20 ,4.2780 ,0.78689 ,5.05897 ,49.63857 
21 ,4.4702 ,0.78889 ,5.03159 ,49.36995 
22 ,4.6622 ,0.79081 ,5.02474 ,49.30279 
23 ,4.8543 ,0.79274 ,4.98710 ,48.93343 
24 ,5.0462 ,0.79469 ,4.98026 ,48.86627 
25 ,5.2383 ,0.79660 ,4.96999 ,48.76554 
26 ,5.4306 ,0.79846 ,4.93235 ,48.39618 
27 ,5.6226 ,0.80043 ,4.92550 ,48.32902 
28 ,5.8147 ,0.80230 ,4.89470 ,48.02681 
29 ,5.9908 ,0.80415 ,4.87417 ,47.82534 
30 ,6.1986 ,0.80616 ,4.85364 ,47.62387 
31 ,6.4070 ,0.80814 ,4.83310 ,47.42240 
32 ,6.5990 ,0.81021 ,4.82284 ,47.32167 
33 ,6.7911 ,0.81211 ,4.80230 ,47.12020 
34 ,6.9832 ,0.81399 ,4.77835 ,46.88515 
35 ,7.1753 ,0.81594 ,4.74413 ,46.54937 
36 ,7.3511 ,0.81778 ,4.75097 ,46.61653 
37 ,7.5434 ,0.81955 ,4.73044 ,46.41506 
38 ,7.7353 ,0.82145 ,4.70648 ,46.18001 
39 ,7.9274 ,0.82342 ,4.69622 ,46.07927 
40 ,8.1034 ,0.82531 ,4.66884 ,45.81065 
41 ,8.2956 ,0.82709 ,4.64488 ,45.57560 
42 ,8.4876 ,0.82906 ,4.64146 ,45.54202 
43 ,8.6798 ,0.83097 ,4.61408 ,45.27339 
44 ,8.8720 ,0.83288 ,4.60040 ,45.13908 
45 ,9.0643 ,0.83480 ,4.59013 ,45.03835 
46 ,9.2560 ,0.83668 ,4.54906 ,44.63541 
47 ,9.4480 ,0.83866 ,4.55933 ,44.73614 
48 ,9.6402 ,0.84056 ,4.53195 ,44.46751 
49 ,9.8327 ,0.84250 ,4.51484 ,44.29962 
50 ,10.0248 ,0.84439 ,4.50800 ,44.23247 
51 ,10.2164 ,0.84633 ,4.47035 ,43.86310 
52 ,10.4085 ,0.84831 ,4.45324 ,43.69521 
53 ,10.6006 ,0.85018 ,4.45324 ,43.69521 
54 ,10.7930 ,0.85204 ,4.41902 ,43.35943 
55 ,10.9851 ,0.85397 ,4.41902 ,43.35943 
56 ,11.1768 ,0.85588 ,4.37795 ,42.95649 
57 ,11.3851 ,0.85795 ,4.37795 ,42.95649 
58 ,11.5770 ,0.85991 ,4.34373 ,42.62071 
59 ,11.7850 ,0.86195 ,4.34031 ,42.58713 
60 ,11.9771 ,0.86395 ,4.29582 ,42.15061 
61 ,12.1536 ,0.86580 ,4.29582 ,42.15061 
62 ,12.3453 ,0.86758 ,4.28213 ,42.01630 
63 ,12.5373 ,0.86945 ,4.25133 ,41.71409 
64 ,12.7134 ,0.87136 ,4.24791 ,41.68051 
65 ,12.9057 ,0.87318 ,4.23765 ,41.57978 
66 ,13.0977 ,0.87509 ,4.20000 ,41.21042 
67 ,13.2897 ,0.87704 ,4.19658 ,41.17684 
68 ,13.4821 ,0.87901 ,4.17262 ,40.94179 
69 ,13.6737 ,0.88086 ,4.15551 ,40.77390 
70 ,13.8659 ,0.88275 ,4.13840 ,40.60601 
71 ,14.0423 ,0.88468 ,4.10760 ,40.30380 
72 ,14.2344 ,0.88649 ,4.08365 ,40.06876 
73 ,14.4263 ,0.88845 ,4.09391 ,40.16949 
74 ,14.6026 ,0.89026 ,4.04600 ,39.69940 
75 ,14.7946 ,0.89204 ,4.04600 ,39.69940 
76 ,14.9863 ,0.89406 ,4.04258 ,39.66582 
77 ,15.1628 ,0.89581 ,4.01520 ,39.39719 
78 ,15.3548 ,0.89769 ,3.99467 ,39.19572 
79 ,15.5466 ,0.89953 ,3.98441 ,39.09499 
80 ,15.7387 ,0.90147 ,3.93992 ,38.65847 
81 ,15.9311 ,0.90342 ,3.95361 ,38.79278 
82 ,16.1232 ,0.90538 ,3.92965 ,38.55773 
83 ,16.3153 ,0.90726 ,3.91596 ,38.42342 
84 ,16.5234 ,0.90935 ,3.88174 ,38.08764 
85 ,16.7155 ,0.91126 ,3.86463 ,37.91975 
86 ,16.9075 ,0.91313 ,3.85094 ,37.78543 
87 ,17.0992 ,0.91513 ,3.83041 ,37.58396 
88 ,17.2915 ,0.91708 ,3.81330 ,37.41607 
89 ,17.4838 ,0.91899 ,3.79619 ,37.24818 
90 ,17.7079 ,0.92109 ,3.78250 ,37.11387 
91 ,17.8998 ,0.92311 ,3.74828 ,36.77808 
92 ,18.0918 ,0.92510 ,3.73459 ,36.64377 
93 ,18.2841 ,0.92690 ,3.71063 ,36.40872 
94 ,18.4760 ,0.92884 ,3.70721 ,36.37514 
95 ,18.6679 ,0.93078 ,3.69352 ,36.24083 
96 ,18.8602 ,0.93279 ,3.66272 ,35.93863 
97 ,19.0685 ,0.93472 ,3.65588 ,35.87147 
98 ,19.2602 ,0.93673 ,3.62166 ,35.53569 
99 ,19.4683 ,0.93875 ,3.62508 ,35.56926 
100 ,19.6764 ,0.94084 ,3.58743 ,35.19990 
101 ,19.8687 ,0.94283 ,3.58401 ,35.16632 
102 ,20.0606 ,0.94470 ,3.56690 ,34.99843 
103 ,20.2688 ,0.94677 ,3.54295 ,34.76338 
104 ,20.4607 ,0.94868 ,3.51215 ,34.46118 
105 ,20.6689 ,0.95073 ,3.49846 ,34.32687 
106 ,20.8770 ,0.95280 ,3.49504 ,34.29329 
107 ,21.0533 ,0.95473 ,3.46766 ,34.02466 
108 ,21.2453 ,0.95654 ,3.45055 ,33.85677 
109 ,21.4532 ,0.95862 ,3.44028 ,33.75604 
110 ,21.6773 ,0.96079 ,3.40606 ,33.42025 
111 ,21.8853 ,0.96291 ,3.38553 ,33.21878 
112 ,22.0777 ,0.96483 ,3.37526 ,33.11805 
113 ,22.3017 ,0.96710 ,3.33762 ,32.74869 
114 ,22.4936 ,0.96909 ,3.34446 ,32.81584 
115 ,22.6696 ,0.97095 ,3.33077 ,32.68153 
116 ,22.8617 ,0.97270 ,3.28971 ,32.27859 
117 ,23.0541 ,0.97468 ,3.28628 ,32.24501 
118 ,23.2621 ,0.97680 ,3.26233 ,32.00996 
119 ,23.4699 ,0.97872 ,3.24522 ,31.84207 
120 ,23.6619 ,0.98073 ,3.21442 ,31.53987 
121 ,23.8545 ,0.98264 ,3.21442 ,31.53987 
122 ,24.0461 ,0.98458 ,3.19731 ,31.37198 
123 ,24.2383 ,0.98653 ,3.15624 ,30.96904 
124 ,24.4462 ,0.98854 ,3.15282 ,30.93546 
125 ,24.6383 ,0.99048 ,3.14255 ,30.83472 
126 ,24.8306 ,0.99241 ,3.12886 ,30.70041 
127 ,25.0385 ,0.99434 ,3.10149 ,30.43178 
128 ,25.2309 ,0.99643 ,3.09806 ,30.39821 
129 ,25.4229 ,0.99838 ,3.06042 ,30.02884 
130 ,25.6150 ,1.00019 ,3.08095 ,30.23031 
131 ,25.8070 ,1.00208 ,3.02962 ,29.72664 
132 ,25.9991 ,1.00408 ,3.01251 ,29.55875 
133 ,26.1910 ,1.00605 ,3.01251 ,29.55875 
134 ,26.3993 ,1.00800 ,2.97829 ,29.22297 
135 ,26.5914 ,1.01001 ,2.98513 ,29.29012 
136 ,26.7835 ,1.01198 ,2.94407 ,28.88718 
137 ,26.9755 ,1.01386 ,2.93380 ,28.78645 
138 ,27.1516 ,1.01573 ,2.90985 ,28.55140 
139 ,27.3437 ,1.01752 ,2.90642 ,28.51782 
140 ,27.5355 ,1.01940 ,2.89616 ,28.41709 
141 ,27.7119 ,1.02128 ,2.85509 ,28.01415 
142 ,27.9036 ,1.02307 ,2.84482 ,27.91341 
143 ,28.0797 ,1.02494 ,2.85851 ,28.04772 
144 ,28.2723 ,1.02680 ,2.82429 ,27.71194 
145 ,28.4801 ,1.02890 ,2.80376 ,27.51047 
146 ,28.6720 ,1.03090 ,2.79349 ,27.40974 
147 ,28.8646 ,1.03272 ,2.76954 ,27.17469 
148 ,29.0562 ,1.03470 ,2.76269 ,27.10753 
149 ,29.2643 ,1.03670 ,2.71820 ,26.67101 
150 ,29.4564 ,1.03873 ,2.72505 ,26.73817 
151 ,29.6485 ,1.04058 ,2.71136 ,26.60386 
152 ,29.8407 ,1.04249 ,2.67372 ,26.23450 
153 ,30.0329 ,1.04450 ,2.67029 ,26.20092 
154 ,30.2247 ,1.04634 ,2.65660 ,26.06661 
155 ,30.4168 ,1.04822 ,2.64292 ,25.93229 
156 ,30.6089 ,1.05011 ,2.61212 ,25.63009 
157 ,30.8011 ,1.05214 ,2.59501 ,25.46220 
158 ,30.9933 ,1.05403 ,2.60869 ,25.59651 
159 ,31.1851 ,1.05587 ,2.56763 ,25.19357 
160 ,31.3771 ,1.05781 ,2.56763 ,25.19357 
161 ,31.5536 ,1.05966 ,2.55736 ,25.09283 
162 ,31.7454 ,1.06151 ,2.51972 ,24.72347 
163 ,31.9377 ,1.06348 ,2.51972 ,24.72347 
164 ,32.1137 ,1.06534 ,2.48892 ,24.42127 
165 ,32.3056 ,1.06715 ,2.46839 ,24.21980 
166 ,32.4976 ,1.06909 ,2.46839 ,24.21980 
167 ,32.6901 ,1.07097 ,2.44443 ,23.98475 
168 ,32.8818 ,1.07286 ,2.43759 ,23.91759 
169 ,33.0742 ,1.07479 ,2.42732 ,23.81686 
170 ,33.2663 ,1.07681 ,2.40679 ,23.61539 
171 ,33.4740 ,1.07888 ,2.37941 ,23.34676 
172 ,33.6662 ,1.08072 ,2.35888 ,23.14529 
173 ,33.8580 ,1.08272 ,2.36230 ,23.17887 
174 ,34.0501 ,1.08455 ,2.32465 ,22.80951 
175 ,34.2422 ,1.08652 ,2.31781 ,22.74235 
176 ,34.4343 ,1.08839 ,2.31097 ,22.67520 
177 ,34.6266 ,1.09035 ,2.28017 ,22.37299 
178 ,34.8507 ,1.09245 ,2.27332 ,22.30584 
179 ,35.0588 ,1.09460 ,2.25621 ,22.13794 
180 ,35.2511 ,1.09658 ,2.23910 ,21.97005 
181 ,35.4593 ,1.09862 ,2.21857 ,21.76858 
182 ,35.6508 ,1.10064 ,2.19803 ,21.56711 
183 ,35.8434 ,1.10251 ,2.18777 ,21.46638 
184 ,36.0354 ,1.10443 ,2.18435 ,21.43280 
185 ,36.2273 ,1.10639 ,2.15355 ,21.13059 
186 ,36.4195 ,1.10830 ,2.14328 ,21.02986 
187 ,36.6113 ,1.11013 ,2.12959 ,20.89555 
188 ,36.8038 ,1.11206 ,2.11248 ,20.72766 
189 ,36.9959 ,1.11402 ,2.11590 ,20.76123 
190 ,37.1876 ,1.11598 ,2.07826 ,20.39187 
191 ,37.3799 ,1.11790 ,2.07484 ,20.35829 
192 ,37.5721 ,1.11980 ,2.05088 ,20.12325 
193 ,37.7642 ,1.12168 ,2.03377 ,19.95535 
194 ,37.9723 ,1.12373 ,2.02693 ,19.88820 
195 ,38.1643 ,1.12567 ,1.99955 ,19.61957 
196 ,38.3564 ,1.12757 ,1.99613 ,19.58599 
197 ,38.5482 ,1.12955 ,1.97217 ,19.35094 
198 ,38.7405 ,1.13147 ,1.97217 ,19.35094 
199 ,38.9323 ,1.13335 ,1.94822 ,19.11590 
200 ,39.1248 ,1.13528 ,1.93795 ,19.01516 
201 ,39.3168 ,1.13721 ,1.92426 ,18.88085 
202 ,39.5250 ,1.13931 ,1.89688 ,18.61222 
203 ,39.7168 ,1.14118 ,1.89688 ,18.61222 
204 ,39.9091 ,1.14325 ,1.87977 ,18.44433 
205 ,40.1011 ,1.14503 ,1.86608 ,18.31002 
206 ,40.3093 ,1.14701 ,1.84213 ,18.07497 
207 ,40.5173 ,1.14917 ,1.83528 ,18.00781 
208 ,40.7095 ,1.15108 ,1.80449 ,17.70561 
209 ,40.9173 ,1.15323 ,1.80106 ,17.67203 
210 ,41.1091 ,1.15513 ,1.77711 ,17.43698 
211 ,41.3017 ,1.15707 ,1.77711 ,17.43698 
212 ,41.5098 ,1.15908 ,1.75315 ,17.20193 
213 ,41.7017 ,1.16107 ,1.74631 ,17.13478 
214 ,41.9099 ,1.16303 ,1.71893 ,16.86615 
215 ,42.1177 ,1.16521 ,1.71551 ,16.83257 
216 ,42.3100 ,1.16714 ,1.69155 ,16.59752 
217 ,42.5344 ,1.16938 ,1.67102 ,16.39605 
218 ,42.7424 ,1.17144 ,1.67102 ,16.39605 
219 ,42.9344 ,1.17339 ,1.65049 ,16.19458 
220 ,43.1105 ,1.17515 ,1.62653 ,15.95954 
221 ,43.3021 ,1.17706 ,1.62653 ,15.95954 
222 ,43.4786 ,1.17889 ,1.61969 ,15.89238 
223 ,43.6866 ,1.18087 ,1.60258 ,15.72449 
224 ,43.8788 ,1.18281 ,1.59573 ,15.65733 
225 ,44.0865 ,1.18485 ,1.56493 ,15.35513 
226 ,44.2789 ,1.18674 ,1.55467 ,15.25439 
227 ,44.4711 ,1.18874 ,1.54440 ,15.15366 
228 ,44.6631 ,1.19065 ,1.53756 ,15.08650 
229 ,44.8389 ,1.19247 ,1.53071 ,15.01934 
230 ,45.0313 ,1.19431 ,1.50333 ,14.75072 
231 ,45.2230 ,1.19626 ,1.49991 ,14.71714 
232 ,45.3991 ,1.19805 ,1.47938 ,14.51567 
233 ,45.6073 ,1.19998 ,1.45885 ,14.31420 
234 ,45.7996 ,1.20210 ,1.46227 ,14.34778 
235 ,46.0076 ,1.20407 ,1.42462 ,13.97842 
236 ,46.2154 ,1.20614 ,1.41436 ,13.87768 
237 ,46.3918 ,1.20802 ,1.42805 ,14.01199 
238 ,46.5839 ,1.20986 ,1.40751 ,13.81053 
239 ,46.7919 ,1.21187 ,1.36987 ,13.44116 
240 ,46.9840 ,1.21385 ,1.37329 ,13.47474 
241 ,47.1759 ,1.21576 ,1.36645 ,13.40759 
242 ,47.3843 ,1.21779 ,1.36303 ,13.37401 
243 ,47.5758 ,1.21973 ,1.32196 ,12.97107 
244 ,47.7683 ,1.22168 ,1.31169 ,12.87033 
245 ,47.9605 ,1.22366 ,1.32196 ,12.97107 
246 ,48.1526 ,1.22554 ,1.27405 ,12.50097 
247 ,48.3445 ,1.22747 ,1.28774 ,12.63528 
248 ,48.5687 ,1.22959 ,1.27063 ,12.46739 
249 ,48.7607 ,1.23169 ,1.25352 ,12.29950 
250 ,48.9368 ,1.23344 ,1.25009 ,12.26592 
251 ,49.1129 ,1.23516 ,1.23983 ,12.16519 
252 ,49.3048 ,1.23716 ,1.21929 ,11.96372 
253 ,49.4971 ,1.23892 ,1.20561 ,11.82941 
254 ,49.6893 ,1.24086 ,1.19876 ,11.76225 
255 ,49.8969 ,1.24299 ,1.19192 ,11.69509 
256 ,50.0733 ,1.24483 ,1.16454 ,11.42647 
257 ,50.2491 ,1.24655 ,1.14058 ,11.19142 
258 ,50.4412 ,1.24840 ,1.15085 ,11.29215 
259 ,50.6336 ,1.25034 ,1.11663 ,10.95637 
260 ,50.8253 ,1.25224 ,1.12005 ,10.98995 
261 ,51.0175 ,1.25417 ,1.10636 ,10.85563 
262 ,51.2098 ,1.25612 ,1.08925 ,10.68774 
263 ,51.5616 ,1.25880 ,1.08583 ,10.65416 
264 ,51.7698 ,1.26159 ,1.04134 ,10.21765 
265 ,51.9777 ,1.26374 ,1.04476 ,10.25123 
266 ,52.1700 ,1.26573 ,1.02081 ,10.01618 
267 ,52.3781 ,1.26777 ,1.02081 ,10.01618 
268 ,52.5539 ,1.26956 ,0.99685 ,9.78113 
269 ,52.7463 ,1.27147 ,0.98659 ,9.68039 
270 ,52.9384 ,1.27334 ,0.99001 ,9.71397 
271 ,53.1307 ,1.27527 ,0.94210 ,9.24388 
272 ,53.3224 ,1.27734 ,0.95237 ,9.34461 
273 ,53.5147 ,1.27903 ,0.94894 ,9.31103 
274 ,53.7066 ,1.28103 ,0.92157 ,9.04241 
275 ,53.8829 ,1.28287 ,0.91472 ,8.97525 
276 ,54.0749 ,1.28476 ,0.90103 ,8.84094 
277 ,54.2670 ,1.28667 ,0.88392 ,8.67305 
278 ,54.4750 ,1.28871 ,0.86339 ,8.47158 
279 ,54.6669 ,1.29064 ,0.85312 ,8.37084 
280 ,54.8591 ,1.29252 ,0.84970 ,8.33726 
281 ,55.0516 ,1.29453 ,0.83259 ,8.16937 
282 ,55.2430 ,1.29639 ,0.84286 ,8.27011 
283 ,55.4196 ,1.29826 ,0.81890 ,8.03506 
284 ,55.6116 ,1.30014 ,0.80179 ,7.86717 
285 ,55.7876 ,1.30190 ,0.79495 ,7.80001 
286 ,55.9798 ,1.30381 ,0.78126 ,7.66570 
287 ,56.1559 ,1.30563 ,0.75388 ,7.39707 
288 ,56.3321 ,1.30738 ,0.76415 ,7.49780 
289 ,56.5081 ,1.30910 ,0.75388 ,7.39707 
290 ,56.7000 ,1.31100 ,0.74361 ,7.29633 
291 ,56.8921 ,1.31291 ,0.70939 ,6.96055 
292 ,57.0843 ,1.31477 ,0.72308 ,7.09486 
293 ,57.2762 ,1.31668 ,0.69228 ,6.79266 
294 ,57.4684 ,1.31859 ,0.66833 ,6.55761 
295 ,57.6762 ,1.32069 ,0.66148 ,6.49046 
296 ,57.8685 ,1.32272 ,0.65806 ,6.45688 
297 ,58.0764 ,1.32471 ,0.65806 ,6.45688 
298 ,58.2527 ,1.32651 ,0.63068 ,6.18825 
299 ,58.4446 ,1.32837 ,0.64095 ,6.28899 
300 ,58.6369 ,1.33034 ,0.61699 ,6.05394 
301 ,58.8448 ,1.33242 ,0.60330 ,5.91962 
302 ,59.0368 ,1.33433 ,0.58619 ,5.75173 
303 ,59.2132 ,1.33613 ,0.57593 ,5.65100 
304 ,59.4212 ,1.33821 ,0.57593 ,5.65100 
305 ,59.5808 ,1.33993 ,0.55539 ,5.44953 
306 ,59.7734 ,1.34169 ,0.54513 ,5.34879 
307 ,59.9816 ,1.34378 ,0.54171 ,5.31522 
308 ,60.1736 ,1.34569 ,0.50748 ,4.97943 
309 ,60.3657 ,1.34769 ,0.51433 ,5.04659 
310 ,60.5577 ,1.34949 ,0.49722 ,4.87870 
311 ,60.7499 ,1.35140 ,0.48353 ,4.74438 
312 ,60.9419 ,1.35337 ,0.48011 ,4.71081 
313 ,61.1340 ,1.35528 ,0.46300 ,4.54291 
314 ,61.3261 ,1.35719 ,0.45957 ,4.50934 
315 ,61.5181 ,1.35911 ,0.44246 ,4.34144 
316 ,61.7099 ,1.36102 ,0.42535 ,4.17355 
317 ,61.9021 ,1.36300 ,0.42193 ,4.13997 
318 ,62.1104 ,1.36503 ,0.40482 ,3.97208 
319 ,62.2864 ,1.36684 ,0.40824 ,4.00566 
320 ,62.4944 ,1.36888 ,0.38429 ,3.77061 
321 ,62.6865 ,1.37077 ,0.38429 ,3.77061 
322 ,62.8947 ,1.37287 ,0.35691 ,3.50199 
323 ,63.0703 ,1.37468 ,0.34322 ,3.36767 
324 ,63.2468 ,1.37644 ,0.33638 ,3.30052 
325 ,63.4388 ,1.37829 ,0.33295 ,3.26694 
326 ,63.6309 ,1.38026 ,0.31242 ,3.06547 
327 ,63.8069 ,1.38203 ,0.30558 ,2.99831 
328 ,63.9991 ,1.38392 ,0.30900 ,3.03189 
329 ,64.1912 ,1.38586 ,0.27820 ,2.72969 
330 ,64.3672 ,1.38765 ,0.28162 ,2.76326 
331 ,64.5433 ,1.38947 ,0.28162 ,2.76326 
332 ,64.7515 ,1.39144 ,0.24740 ,2.42748 
333 ,64.9591 ,1.39345 ,0.24740 ,2.42748 
334 ,65.1517 ,1.39546 ,0.23029 ,2.25959 
335 ,65.3437 ,1.39736 ,0.23371 ,2.29317 
336 ,65.5358 ,1.39936 ,0.20976 ,2.05812 
337 ,65.7438 ,1.40134 ,0.21660 ,2.12528 
338 ,65.9201 ,1.40319 ,0.20976 ,2.05812 
339 ,66.1114 ,1.40511 ,0.18238 ,1.78949 
340 ,66.2882 ,1.40688 ,0.16527 ,1.62160 
341 ,66.4960 ,1.40887 ,0.15842 ,1.55445 
342 ,66.7040 ,1.41100 ,0.15842 ,1.55445 
343 ,66.8801 ,1.41278 ,0.15158 ,1.48729 
344 ,67.0564 ,1.41454 ,0.14131 ,1.38655 
345 ,67.2323 ,1.41632 ,0.12420 ,1.21866 
346 ,67.4246 ,1.41816 ,0.11393 ,1.11793 
347 ,67.6006 ,1.41999 ,0.10025 ,0.98361 
348 ,67.7764 ,1.42170 ,0.10367 ,1.01719 
349 ,67.9525 ,1.42348 ,0.07971 ,0.78214 
350 ,68.1444 ,1.42533 ,0.07629 ,0.74857 
351 ,68.3369 ,1.42725 ,0.06945 ,0.68141 
352 ,68.5451 ,1.42935 ,0.05576 ,0.54710 
353 ,68.7530 ,1.43145 ,0.03180 ,0.31205 
354 ,68.9296 ,1.43330 ,0.02838 ,0.27847 
355 ,69.1213 ,1.43512 ,0.02838 ,0.27847 
356 ,69.3130 ,1.43714 ,-0.00926 ,-0.09089 
357 ,69.5214 ,1.43906 ,-0.00926 ,-0.09089 
358 ,69.6973 ,1.44104 ,-0.00926 ,-0.09089 
359 ,69.8736 ,1.44269 ,-0.01953 ,-0.19163 
360 ,70.0656 ,1.44453 ,-0.03664 ,-0.35952 
361 ,70.2577 ,1.44649 ,-0.01953 ,-0.19163 
362 ,70.4340 ,1.44836 ,-0.06744 ,-0.66172 
363 ,70.6100 ,1.45009 ,-0.06744 ,-0.66172 
364 ,70.8020 ,1.45193 ,-0.07086 ,-0.69530 
365 ,71.0101 ,1.45398 ,-0.09140 ,-0.89677 
366 ,71.1861 ,1.45581 ,-0.10851 ,-1.06466 
367 ,71.3783 ,1.45767 ,-0.07428 ,-0.72888 
368 ,71.5861 ,1.45977 ,-0.12219 ,-1.19898 
369 ,71.7625 ,1.46158 ,-0.11535 ,-1.13182 
370 ,71.9702 ,1.46350 ,-0.12904 ,-1.26613 
371 ,72.1464 ,1.46541 ,-0.15642 ,-1.53476 
372 ,72.3708 ,1.46760 ,-0.15299 ,-1.50118 
373 ,72.5624 ,1.46951 ,-0.15984 ,-1.56834 
374 ,72.7549 ,1.47145 ,-0.17011 ,-1.66907 
375 ,72.9470 ,1.47336 ,-0.18722 ,-1.83696 
376 ,73.1391 ,1.47528 ,-0.18379 ,-1.80338 
377 ,73.3471 ,1.47733 ,-0.20433 ,-2.00485 
378 ,73.5393 ,1.47930 ,-0.21117 ,-2.07201 
379 ,73.7312 ,1.48124 ,-0.22486 ,-2.20632 
380 ,73.9394 ,1.48325 ,-0.21459 ,-2.10559 
381 ,74.1314 ,1.48522 ,-0.24539 ,-2.40779 
382 ,74.3075 ,1.48707 ,-0.26593 ,-2.60926 
383 ,74.5156 ,1.48900 ,-0.25566 ,-2.50853 
384 ,74.7072 ,1.49096 ,-0.26593 ,-2.60926 
385 ,74.8995 ,1.49293 ,-0.26935 ,-2.64284 
386 ,75.1076 ,1.49497 ,-0.30015 ,-2.94505 
387 ,75.3157 ,1.49701 ,-0.29330 ,-2.87789 
388 ,75.4920 ,1.49894 ,-0.33437 ,-3.28083 
389 ,75.6841 ,1.50071 ,-0.32752 ,-3.21367 
390 ,75.8760 ,1.50264 ,-0.32068 ,-3.14652 
391 ,76.0522 ,1.50446 ,-0.33779 ,-3.31441 
392 ,76.2439 ,1.50630 ,-0.35832 ,-3.51588 
393 ,76.4359 ,1.50822 ,-0.34464 ,-3.38156 
394 ,76.6284 ,1.51012 ,-0.36517 ,-3.58303 
395 ,76.8365 ,1.51221 ,-0.37544 ,-3.68377 
396 ,77.0126 ,1.51417 ,-0.38912 ,-3.81808 
397 ,77.2046 ,1.51593 ,-0.39939 ,-3.91882 
398 ,77.3808 ,1.51778 ,-0.40281 ,-3.95240 
399 ,77.6047 ,1.51981 ,-0.39939 ,-3.91882 
400 ,77.7969 ,1.52183 ,-0.41992 ,-4.12029 
401 ,77.9885 ,1.52382 ,-0.42677 ,-4.18744 
402 ,78.1809 ,1.52568 ,-0.43703 ,-4.28818 
403 ,78.3891 ,1.52777 ,-0.45757 ,-4.48965 
404 ,78.5971 ,1.52982 ,-0.45072 ,-4.42249 
405 ,78.7732 ,1.53173 ,-0.45757 ,-4.48965 
406 ,78.9653 ,1.53349 ,-0.49521 ,-4.85901 
407 ,79.1574 ,1.53540 ,-0.48152 ,-4.72470 
408 ,79.3493 ,1.53752 ,-0.50206 ,-4.92617 
409 ,79.5411 ,1.53928 ,-0.50890 ,-4.99332 
410 ,79.7333 ,1.54115 ,-0.50206 ,-4.92617 
411 ,79.9093 ,1.54309 ,-0.53970 ,-5.29553 
412 ,80.1014 ,1.54486 ,-0.53970 ,-5.29553 
413 ,80.2935 ,1.54680 ,-0.52601 ,-5.16121 
414 ,80.4695 ,1.54868 ,-0.57734 ,-5.66489 
415 ,80.6615 ,1.55046 ,-0.56365 ,-5.53058 
416 ,80.8537 ,1.55237 ,-0.56365 ,-5.53058 
417 ,81.0298 ,1.55425 ,-0.59445 ,-5.83278 
418 ,81.2220 ,1.55610 ,-0.60130 ,-5.89994 
419 ,81.4138 ,1.55801 ,-0.60472 ,-5.93352 
420 ,81.6060 ,1.56004 ,-0.61156 ,-6.00067 
421 ,81.7821 ,1.56180 ,-0.61841 ,-6.06783 
422 ,81.9742 ,1.56358 ,-0.62183 ,-6.10141 
423 ,82.1502 ,1.56549 ,-0.64236 ,-6.30288 
424 ,82.3422 ,1.56727 ,-0.64921 ,-6.37003 
425 ,82.5345 ,1.56920 ,-0.63210 ,-6.20214 
426 ,82.7104 ,1.57109 ,-0.67659 ,-6.63866 
427 ,82.9026 ,1.57286 ,-0.67659 ,-6.63866 
428 ,83.0786 ,1.57476 ,-0.65947 ,-6.47077 
429 ,83.2707 ,1.57655 ,-0.68685 ,-6.73940 
430 ,83.4628 ,1.57843 ,-0.70054 ,-6.87371 
431 ,83.6388 ,1.58036 ,-0.69712 ,-6.84013 
432 ,83.8310 ,1.58216 ,-0.70739 ,-6.94086 
433 ,84.0230 ,1.58404 ,-0.73134 ,-7.17591 
434 ,84.1991 ,1.58594 ,-0.72107 ,-7.07518 
435 ,84.3912 ,1.58774 ,-0.74161 ,-7.27665 
436 ,84.5992 ,1.58987 ,-0.74845 ,-7.34380 
437 ,84.7915 ,1.59172 ,-0.75530 ,-7.41096 
438 ,84.9835 ,1.59366 ,-0.75530 ,-7.41096 
439 ,85.1597 ,1.59554 ,-0.77241 ,-7.57885 
440 ,85.3676 ,1.59751 ,-0.79978 ,-7.84748 
441 ,85.5600 ,1.59941 ,-0.79636 ,-7.81390 
442 ,85.7680 ,1.60156 ,-0.79636 ,-7.81390 
443 ,85.9600 ,1.60352 ,-0.80663 ,-7.91464 
444 ,86.1524 ,1.60541 ,-0.81347 ,-7.98179 
445 ,86.3605 ,1.60745 ,-0.82716 ,-8.11611 
446 ,86.5524 ,1.60939 ,-0.82032 ,-8.04895 
447 ,86.7441 ,1.61128 ,-0.86138 ,-8.45189 
448 ,86.9363 ,1.61318 ,-0.84769 ,-8.31758 
449 ,87.1287 ,1.61513 ,-0.86138 ,-8.45189 
450 ,87.3368 ,1.61719 ,-0.86138 ,-8.45189 
451 ,87.5128 ,1.61908 ,-0.87507 ,-8.58620 
452 ,87.7046 ,1.62088 ,-0.90587 ,-8.88841 
453 ,87.8645 ,1.62267 ,-0.89560 ,-8.78767 
454 ,88.0568 ,1.62437 ,-0.90929 ,-8.92198 
455 ,88.2651 ,1.62646 ,-0.91956 ,-9.02272 
456 ,88.4733 ,1.62848 ,-0.91614 ,-8.98914 
457 ,88.6651 ,1.63058 ,-0.92640 ,-9.08988 
458 ,88.8569 ,1.63238 ,-0.94009 ,-9.22419 
459 ,89.0495 ,1.63434 ,-0.94351 ,-9.25777 
460 ,89.2575 ,1.63638 ,-0.95036 ,-9.32492 
461 ,89.4653 ,1.63847 ,-0.98116 ,-9.62713 
462 ,89.6416 ,1.64030 ,-0.98116 ,-9.62713 
