Data stamp = , 26-04-2022 09:23:49 680

Calibration Values: 
Slope = , 26.54 , g/V 
Offset Voltage at no contact = , -0.501760 , V 

No , Time , Stage Position ,   Mass , Force 
   ,  (s) ,      (mm)      ,   (g)  , (mN)  

1 ,0.0000 ,0.74948 ,5.23350 ,51.35107 
2 ,0.2047 ,0.74956 ,5.21981 ,51.21675 
3 ,0.6371 ,0.75087 ,5.24718 ,51.48538 
4 ,0.8290 ,0.75267 ,5.23007 ,51.31749 
5 ,1.0214 ,0.75450 ,5.23007 ,51.31749 
6 ,1.2293 ,0.75646 ,5.23007 ,51.31749 
7 ,1.4376 ,0.75853 ,5.24034 ,51.41822 
8 ,1.6456 ,0.76067 ,5.21639 ,51.18317 
9 ,1.8217 ,0.76246 ,5.19927 ,51.01528 
10 ,1.9979 ,0.76425 ,5.19243 ,50.94813 
11 ,2.1734 ,0.76608 ,5.15821 ,50.61234 
12 ,2.3659 ,0.76784 ,5.14794 ,50.51161 
13 ,2.5420 ,0.76968 ,5.14452 ,50.47803 
14 ,2.7656 ,0.77179 ,5.11030 ,50.14225 
15 ,2.9422 ,0.77370 ,5.08292 ,49.87362 
16 ,3.1501 ,0.77568 ,5.06581 ,49.70573 
17 ,3.3423 ,0.77765 ,5.05554 ,49.60499 
18 ,3.5504 ,0.77975 ,5.03843 ,49.43710 
19 ,3.7741 ,0.78188 ,5.03843 ,49.43710 
20 ,3.9666 ,0.78386 ,5.00421 ,49.10132 
21 ,4.1586 ,0.78583 ,4.99737 ,49.03416 
22 ,4.3343 ,0.78758 ,4.97341 ,48.79911 
23 ,4.5268 ,0.78946 ,4.94603 ,48.53049 
24 ,4.7349 ,0.79153 ,4.92892 ,48.36260 
25 ,4.9270 ,0.79345 ,4.90155 ,48.09397 
26 ,5.1350 ,0.79555 ,4.90497 ,48.12755 
27 ,5.3111 ,0.79736 ,4.88444 ,47.92608 
28 ,5.5031 ,0.79928 ,4.85364 ,47.62387 
29 ,5.6791 ,0.80101 ,4.85364 ,47.62387 
30 ,5.8713 ,0.80287 ,4.81257 ,47.22093 
31 ,6.0792 ,0.80498 ,4.82626 ,47.35525 
32 ,6.2554 ,0.80686 ,4.78177 ,46.91873 
33 ,6.4471 ,0.80865 ,4.76466 ,46.75084 
34 ,6.6391 ,0.81055 ,4.74755 ,46.58295 
35 ,6.8152 ,0.81244 ,4.74070 ,46.51579 
36 ,6.9917 ,0.81421 ,4.72017 ,46.31432 
37 ,7.2159 ,0.81623 ,4.70990 ,46.21359 
38 ,7.4082 ,0.81827 ,4.67911 ,45.91138 
39 ,7.6157 ,0.82034 ,4.67226 ,45.84422 
40 ,7.8079 ,0.82227 ,4.64146 ,45.54202 
41 ,8.0001 ,0.82432 ,4.65173 ,45.64275 
42 ,8.1763 ,0.82603 ,4.62435 ,45.37413 
43 ,8.3683 ,0.82786 ,4.59013 ,45.03835 
44 ,8.5444 ,0.82967 ,4.56960 ,44.83688 
45 ,8.7359 ,0.83155 ,4.59013 ,45.03835 
46 ,8.9445 ,0.83362 ,4.53880 ,44.53467 
47 ,9.1367 ,0.83557 ,4.53880 ,44.53467 
48 ,9.3607 ,0.83764 ,4.50115 ,44.16531 
49 ,9.5365 ,0.83958 ,4.49773 ,44.13173 
50 ,9.7447 ,0.84167 ,4.46351 ,43.79595 
51 ,9.9368 ,0.84363 ,4.46351 ,43.79595 
52 ,10.1290 ,0.84548 ,4.44298 ,43.59448 
53 ,10.3366 ,0.84753 ,4.43613 ,43.52732 
54 ,10.5127 ,0.84943 ,4.41218 ,43.29227 
55 ,10.7049 ,0.85120 ,4.38822 ,43.05723 
56 ,10.8970 ,0.85314 ,4.38138 ,42.99007 
57 ,11.0892 ,0.85503 ,4.35742 ,42.75502 
58 ,11.2655 ,0.85688 ,4.34031 ,42.58713 
59 ,11.4895 ,0.85895 ,4.33689 ,42.55355 
60 ,11.6973 ,0.86115 ,4.31293 ,42.31850 
61 ,11.8897 ,0.86303 ,4.27529 ,41.94914 
62 ,12.1138 ,0.86522 ,4.27871 ,41.98272 
63 ,12.3219 ,0.86741 ,4.24449 ,41.64694 
64 ,12.5138 ,0.86927 ,4.23422 ,41.54620 
65 ,12.7063 ,0.87121 ,4.21027 ,41.31115 
66 ,12.8982 ,0.87319 ,4.19658 ,41.17684 
67 ,13.1062 ,0.87523 ,4.17947 ,41.00895 
68 ,13.2821 ,0.87706 ,4.15209 ,40.74032 
69 ,13.4744 ,0.87888 ,4.13156 ,40.53885 
70 ,13.6982 ,0.88111 ,4.12814 ,40.50527 
71 ,13.8746 ,0.88300 ,4.11787 ,40.40454 
72 ,14.0664 ,0.88482 ,4.09391 ,40.16949 
73 ,14.2747 ,0.88691 ,4.08707 ,40.10233 
74 ,14.4828 ,0.88904 ,4.05285 ,39.76655 
75 ,14.6749 ,0.89102 ,4.05285 ,39.76655 
76 ,14.8667 ,0.89281 ,4.02205 ,39.46435 
77 ,15.0588 ,0.89478 ,3.99467 ,39.19572 
78 ,15.2508 ,0.89664 ,3.99467 ,39.19572 
79 ,15.4272 ,0.89847 ,3.97756 ,39.02783 
80 ,15.6190 ,0.90033 ,3.95361 ,38.79278 
81 ,15.8112 ,0.90236 ,3.95018 ,38.75920 
82 ,15.9874 ,0.90406 ,3.92965 ,38.55773 
83 ,16.1635 ,0.90586 ,3.90912 ,38.35626 
84 ,16.3395 ,0.90761 ,3.88858 ,38.15479 
85 ,16.5157 ,0.90937 ,3.87490 ,38.02048 
86 ,16.7237 ,0.91134 ,3.84752 ,37.75185 
87 ,16.9158 ,0.91332 ,3.83725 ,37.65112 
88 ,17.0918 ,0.91520 ,3.83725 ,37.65112 
89 ,17.2679 ,0.91688 ,3.82699 ,37.55038 
90 ,17.4439 ,0.91870 ,3.78250 ,37.11387 
91 ,17.6199 ,0.92046 ,3.78592 ,37.14744 
92 ,17.7962 ,0.92220 ,3.74828 ,36.77808 
93 ,17.9723 ,0.92392 ,3.74485 ,36.74450 
94 ,18.1640 ,0.92577 ,3.72432 ,36.54303 
95 ,18.3402 ,0.92765 ,3.72432 ,36.54303 
96 ,18.5164 ,0.92944 ,3.70037 ,36.30799 
97 ,18.6923 ,0.93113 ,3.67641 ,36.07294 
98 ,18.8685 ,0.93288 ,3.67299 ,36.03936 
99 ,19.0765 ,0.93493 ,3.63192 ,35.63642 
100 ,19.2527 ,0.93676 ,3.63534 ,35.67000 
101 ,19.4446 ,0.93858 ,3.62166 ,35.53569 
102 ,19.6369 ,0.94052 ,3.58059 ,35.13275 
103 ,19.8448 ,0.94260 ,3.59428 ,35.26706 
104 ,20.0211 ,0.94441 ,3.55321 ,34.86412 
105 ,20.2290 ,0.94638 ,3.56348 ,34.96485 
106 ,20.4212 ,0.94834 ,3.51899 ,34.52834 
107 ,20.6129 ,0.95027 ,3.50530 ,34.39402 
108 ,20.8053 ,0.95224 ,3.50530 ,34.39402 
109 ,20.9813 ,0.95400 ,3.47450 ,34.09182 
110 ,21.1895 ,0.95604 ,3.47792 ,34.12540 
111 ,21.3811 ,0.95795 ,3.44370 ,33.78961 
112 ,21.5737 ,0.95989 ,3.41975 ,33.55457 
113 ,21.7817 ,0.96191 ,3.40606 ,33.42025 
114 ,21.9898 ,0.96406 ,3.40264 ,33.38667 
115 ,22.1817 ,0.96592 ,3.38553 ,33.21878 
116 ,22.3740 ,0.96799 ,3.36157 ,32.98374 
117 ,22.5658 ,0.96978 ,3.34104 ,32.78227 
118 ,22.7578 ,0.97169 ,3.30682 ,32.44648 
119 ,22.9499 ,0.97366 ,3.30339 ,32.41290 
120 ,23.1584 ,0.97573 ,3.28628 ,32.24501 
121 ,23.3502 ,0.97761 ,3.27259 ,32.11070 
122 ,23.5424 ,0.97957 ,3.25891 ,31.97639 
123 ,23.7183 ,0.98136 ,3.22126 ,31.60702 
124 ,23.9264 ,0.98337 ,3.22468 ,31.64060 
125 ,24.1025 ,0.98518 ,3.22126 ,31.60702 
126 ,24.2788 ,0.98703 ,3.18704 ,31.27124 
127 ,24.4707 ,0.98881 ,3.16651 ,31.06977 
128 ,24.6470 ,0.99066 ,3.15624 ,30.96904 
129 ,24.8386 ,0.99251 ,3.13913 ,30.80115 
130 ,25.0151 ,0.99434 ,3.12202 ,30.63325 
131 ,25.2232 ,0.99631 ,3.10149 ,30.43178 
132 ,25.4150 ,0.99827 ,3.07411 ,30.16316 
133 ,25.6073 ,1.00017 ,3.08095 ,30.23031 
134 ,25.7834 ,1.00204 ,3.06042 ,30.02884 
135 ,25.9752 ,1.00388 ,3.02620 ,29.69306 
136 ,26.1836 ,1.00593 ,3.03304 ,29.76022 
137 ,26.3757 ,1.00789 ,2.98513 ,29.29012 
138 ,26.5673 ,1.00979 ,2.98513 ,29.29012 
139 ,26.7596 ,1.01169 ,2.96460 ,29.08865 
140 ,26.9678 ,1.01379 ,2.94749 ,28.92076 
141 ,27.1435 ,1.01567 ,2.94064 ,28.85360 
142 ,27.3360 ,1.01748 ,2.91669 ,28.61856 
143 ,27.5280 ,1.01941 ,2.90642 ,28.51782 
144 ,27.7360 ,1.02146 ,2.88247 ,28.28277 
145 ,27.9121 ,1.02328 ,2.85509 ,28.01415 
146 ,28.0880 ,1.02501 ,2.84482 ,27.91341 
147 ,28.2802 ,1.02688 ,2.85167 ,27.98057 
148 ,28.4562 ,1.02870 ,2.83114 ,27.77910 
149 ,28.6325 ,1.03051 ,2.81060 ,27.57763 
150 ,28.8086 ,1.03224 ,2.77980 ,27.27542 
151 ,29.0006 ,1.03412 ,2.78665 ,27.34258 
152 ,29.1928 ,1.03599 ,2.74900 ,26.97322 
153 ,29.3848 ,1.03793 ,2.75927 ,27.07395 
154 ,29.5769 ,1.03988 ,2.73874 ,26.87248 
155 ,29.7688 ,1.04177 ,2.70452 ,26.53670 
156 ,29.9770 ,1.04389 ,2.70452 ,26.53670 
157 ,30.1691 ,1.04577 ,2.67714 ,26.26807 
158 ,30.3609 ,1.04778 ,2.67029 ,26.20092 
159 ,30.5533 ,1.04964 ,2.64634 ,25.96587 
160 ,30.7453 ,1.05164 ,2.63607 ,25.86514 
161 ,30.9215 ,1.05335 ,2.62238 ,25.73082 
162 ,31.1295 ,1.05536 ,2.58132 ,25.32788 
163 ,31.3536 ,1.05750 ,2.57789 ,25.29430 
164 ,31.5456 ,1.05956 ,2.57789 ,25.29430 
165 ,31.7537 ,1.06161 ,2.54025 ,24.92494 
166 ,31.9299 ,1.06349 ,2.50603 ,24.58916 
167 ,32.1379 ,1.06544 ,2.52656 ,24.79063 
168 ,32.3140 ,1.06727 ,2.48892 ,24.42127 
169 ,32.5057 ,1.06928 ,2.48207 ,24.35411 
170 ,32.6981 ,1.07107 ,2.47523 ,24.28696 
171 ,32.9063 ,1.07318 ,2.44785 ,24.01833 
172 ,33.1144 ,1.07531 ,2.42732 ,23.81686 
173 ,33.3064 ,1.07718 ,2.40336 ,23.58181 
174 ,33.4980 ,1.07913 ,2.39994 ,23.54823 
175 ,33.6745 ,1.08094 ,2.36572 ,23.21245 
176 ,33.8503 ,1.08269 ,2.37599 ,23.31318 
177 ,34.0426 ,1.08455 ,2.34861 ,23.04456 
178 ,34.2184 ,1.08630 ,2.33834 ,22.94382 
179 ,34.3948 ,1.08812 ,2.32465 ,22.80951 
180 ,34.5709 ,1.08987 ,2.30412 ,22.60804 
181 ,34.7465 ,1.09165 ,2.29385 ,22.50731 
182 ,34.9230 ,1.09336 ,2.25279 ,22.10437 
183 ,35.1312 ,1.09534 ,2.24937 ,22.07079 
184 ,35.3232 ,1.09728 ,2.23910 ,21.97005 
185 ,35.5152 ,1.09929 ,2.22541 ,21.83574 
186 ,35.7075 ,1.10114 ,2.20146 ,21.60069 
187 ,35.9313 ,1.10331 ,2.20488 ,21.63427 
188 ,36.1395 ,1.10543 ,2.18435 ,21.43280 
189 ,36.3316 ,1.10742 ,2.15012 ,21.09702 
190 ,36.5397 ,1.10951 ,2.15012 ,21.09702 
191 ,36.7317 ,1.11146 ,2.14328 ,21.02986 
192 ,36.9074 ,1.11327 ,2.10906 ,20.69408 
193 ,37.0997 ,1.11506 ,2.09537 ,20.55976 
194 ,37.2918 ,1.11694 ,2.08852 ,20.49261 
195 ,37.4840 ,1.11886 ,2.05773 ,20.19040 
196 ,37.6761 ,1.12079 ,2.05088 ,20.12325 
197 ,37.8521 ,1.12261 ,2.03719 ,19.98893 
198 ,38.0278 ,1.12446 ,2.01324 ,19.75388 
199 ,38.2044 ,1.12618 ,1.98586 ,19.48526 
200 ,38.4124 ,1.12816 ,1.98928 ,19.51884 
201 ,38.6204 ,1.13023 ,1.96533 ,19.28379 
202 ,38.8121 ,1.13223 ,1.95848 ,19.21663 
203 ,39.0044 ,1.13405 ,1.95506 ,19.18305 
204 ,39.1969 ,1.13615 ,1.93795 ,19.01516 
205 ,39.4050 ,1.13812 ,1.89346 ,18.57864 
206 ,39.6128 ,1.14022 ,1.89688 ,18.61222 
207 ,39.7889 ,1.14198 ,1.87635 ,18.41075 
208 ,39.9809 ,1.14390 ,1.85582 ,18.20928 
209 ,40.1566 ,1.14565 ,1.84897 ,18.14213 
210 ,40.3489 ,1.14756 ,1.83528 ,18.00781 
211 ,40.5413 ,1.14956 ,1.81475 ,17.80634 
212 ,40.7334 ,1.15143 ,1.81475 ,17.80634 
213 ,40.9094 ,1.15317 ,1.80106 ,17.67203 
214 ,41.1014 ,1.15507 ,1.77026 ,17.36983 
215 ,41.2936 ,1.15695 ,1.76684 ,17.33625 
216 ,41.4854 ,1.15890 ,1.74289 ,17.10120 
217 ,41.6938 ,1.16099 ,1.74973 ,17.16836 
218 ,41.8858 ,1.16291 ,1.71893 ,16.86615 
219 ,42.0777 ,1.16485 ,1.71209 ,16.79899 
220 ,42.2696 ,1.16674 ,1.69840 ,16.66468 
221 ,42.4621 ,1.16870 ,1.66418 ,16.32890 
222 ,42.6701 ,1.17072 ,1.66760 ,16.36248 
223 ,42.8462 ,1.17256 ,1.65391 ,16.22816 
224 ,43.0542 ,1.17460 ,1.64022 ,16.09385 
225 ,43.2304 ,1.17641 ,1.63338 ,16.02669 
226 ,43.4062 ,1.17813 ,1.61284 ,15.82522 
227 ,43.5826 ,1.17994 ,1.60258 ,15.72449 
228 ,43.7904 ,1.18186 ,1.59573 ,15.65733 
229 ,43.9828 ,1.18391 ,1.56493 ,15.35513 
230 ,44.1906 ,1.18594 ,1.56493 ,15.35513 
231 ,44.3829 ,1.18789 ,1.54440 ,15.15366 
232 ,44.5747 ,1.18979 ,1.53071 ,15.01934 
233 ,44.7831 ,1.19183 ,1.51702 ,14.88503 
234 ,44.9912 ,1.19402 ,1.51018 ,14.81787 
235 ,45.1831 ,1.19584 ,1.47253 ,14.44851 
236 ,45.3755 ,1.19780 ,1.47938 ,14.51567 
237 ,45.5671 ,1.19967 ,1.47253 ,14.44851 
238 ,45.7594 ,1.20161 ,1.43147 ,14.04557 
239 ,45.9514 ,1.20353 ,1.44516 ,14.17989 
240 ,46.1275 ,1.20537 ,1.42462 ,13.97842 
241 ,46.3197 ,1.20718 ,1.39383 ,13.67621 
242 ,46.5113 ,1.20928 ,1.40067 ,13.74337 
243 ,46.6878 ,1.21092 ,1.38356 ,13.57548 
244 ,46.8796 ,1.21280 ,1.36303 ,13.37401 
245 ,47.0720 ,1.21479 ,1.36987 ,13.44116 
246 ,47.2799 ,1.21681 ,1.33223 ,13.07180 
247 ,47.4718 ,1.21875 ,1.33907 ,13.13896 
248 ,47.6479 ,1.22056 ,1.31512 ,12.90391 
249 ,47.8399 ,1.22244 ,1.30827 ,12.83675 
250 ,48.0162 ,1.22429 ,1.29458 ,12.70244 
251 ,48.2086 ,1.22610 ,1.28432 ,12.60171 
252 ,48.4006 ,1.22808 ,1.27063 ,12.46739 
253 ,48.5926 ,1.22993 ,1.25352 ,12.29950 
254 ,48.8003 ,1.23203 ,1.22614 ,12.03088 
255 ,48.9924 ,1.23398 ,1.21245 ,11.89656 
256 ,49.1847 ,1.23588 ,1.21929 ,11.96372 
257 ,49.3770 ,1.23783 ,1.18850 ,11.66151 
258 ,49.5690 ,1.23975 ,1.19534 ,11.72867 
259 ,49.7614 ,1.24166 ,1.17138 ,11.49362 
260 ,49.9531 ,1.24366 ,1.17138 ,11.49362 
261 ,50.1292 ,1.24534 ,1.13716 ,11.15784 
262 ,50.3213 ,1.24723 ,1.14058 ,11.19142 
263 ,50.5133 ,1.24927 ,1.11663 ,10.95637 
264 ,50.7055 ,1.25108 ,1.12005 ,10.98995 
265 ,50.8973 ,1.25316 ,1.08925 ,10.68774 
266 ,51.0896 ,1.25491 ,1.07899 ,10.58701 
267 ,51.2817 ,1.25688 ,1.08583 ,10.65416 
268 ,51.4737 ,1.25872 ,1.05161 ,10.31838 
269 ,51.6499 ,1.26060 ,1.02423 ,10.04976 
270 ,51.8419 ,1.26252 ,1.05503 ,10.35196 
271 ,52.0176 ,1.26425 ,1.02765 ,10.08333 
272 ,52.2102 ,1.26614 ,1.01739 ,9.98260 
273 ,52.4022 ,1.26809 ,1.00028 ,9.81471 
274 ,52.6102 ,1.27009 ,0.97974 ,9.61324 
275 ,52.8022 ,1.27204 ,0.97974 ,9.61324 
276 ,52.9943 ,1.27402 ,0.95579 ,9.37819 
277 ,53.1704 ,1.27586 ,0.95921 ,9.41177 
278 ,53.3465 ,1.27755 ,0.93183 ,9.14314 
279 ,53.5383 ,1.27941 ,0.91472 ,8.97525 
280 ,53.7627 ,1.28164 ,0.92157 ,9.04241 
281 ,53.9548 ,1.28358 ,0.88392 ,8.67305 
282 ,54.1467 ,1.28549 ,0.89761 ,8.80736 
283 ,54.3386 ,1.28739 ,0.88050 ,8.63947 
284 ,54.5468 ,1.28950 ,0.85997 ,8.43800 
285 ,54.7550 ,1.29160 ,0.85312 ,8.37084 
286 ,54.9311 ,1.29338 ,0.83601 ,8.20295 
287 ,55.1232 ,1.29523 ,0.82575 ,8.10221 
288 ,55.3151 ,1.29714 ,0.81206 ,7.96790 
289 ,55.4913 ,1.29897 ,0.80179 ,7.86717 
290 ,55.6835 ,1.30085 ,0.79837 ,7.83359 
291 ,55.8754 ,1.30285 ,0.77441 ,7.59854 
292 ,56.0516 ,1.30461 ,0.77441 ,7.59854 
293 ,56.2595 ,1.30658 ,0.76415 ,7.49780 
294 ,56.4357 ,1.30838 ,0.75046 ,7.36349 
295 ,56.6438 ,1.31049 ,0.72650 ,7.12844 
296 ,56.8357 ,1.31234 ,0.71281 ,6.99413 
297 ,57.0119 ,1.31413 ,0.69570 ,6.82624 
298 ,57.1880 ,1.31593 ,0.68886 ,6.75908 
299 ,57.3641 ,1.31772 ,0.68544 ,6.72550 
300 ,57.5563 ,1.31958 ,0.68201 ,6.69193 
301 ,57.7642 ,1.32162 ,0.67517 ,6.62477 
302 ,57.9564 ,1.32353 ,0.65806 ,6.45688 
303 ,58.1484 ,1.32550 ,0.63068 ,6.18825 
304 ,58.3404 ,1.32735 ,0.62726 ,6.15467 
305 ,58.5162 ,1.32925 ,0.61015 ,5.98678 
306 ,58.7088 ,1.33104 ,0.59646 ,5.85247 
307 ,58.9006 ,1.33302 ,0.60673 ,5.95320 
308 ,59.0928 ,1.33495 ,0.57251 ,5.61742 
309 ,59.3008 ,1.33705 ,0.56566 ,5.55026 
310 ,59.4929 ,1.33893 ,0.55197 ,5.41595 
311 ,59.6851 ,1.34085 ,0.53486 ,5.24806 
312 ,59.8770 ,1.34277 ,0.55197 ,5.41595 
313 ,60.0531 ,1.34460 ,0.52459 ,5.14732 
314 ,60.2291 ,1.34632 ,0.50064 ,4.91228 
315 ,60.4213 ,1.34815 ,0.50406 ,4.94585 
316 ,60.6132 ,1.35012 ,0.49380 ,4.84512 
317 ,60.8056 ,1.35206 ,0.47326 ,4.64365 
318 ,61.0136 ,1.35413 ,0.47668 ,4.67723 
319 ,61.2217 ,1.35621 ,0.45957 ,4.50934 
320 ,61.4138 ,1.35814 ,0.44588 ,4.37502 
321 ,61.5897 ,1.36000 ,0.41509 ,4.07282 
322 ,61.7654 ,1.36166 ,0.40482 ,3.97208 
323 ,61.9419 ,1.36350 ,0.41166 ,4.03924 
324 ,62.1341 ,1.36532 ,0.40824 ,4.00566 
325 ,62.3423 ,1.36742 ,0.40140 ,3.93850 
326 ,62.5341 ,1.36932 ,0.38086 ,3.73703 
327 ,62.7106 ,1.37112 ,0.37060 ,3.63630 
328 ,62.9022 ,1.37302 ,0.36033 ,3.53557 
329 ,63.0940 ,1.37491 ,0.35349 ,3.46841 
330 ,63.2704 ,1.37669 ,0.34322 ,3.36767 
331 ,63.4464 ,1.37851 ,0.30900 ,3.03189 
332 ,63.6385 ,1.38029 ,0.32611 ,3.19978 
333 ,63.8147 ,1.38219 ,0.29873 ,2.93116 
334 ,64.0068 ,1.38405 ,0.28847 ,2.83042 
335 ,64.1988 ,1.38599 ,0.28847 ,2.83042 
336 ,64.3750 ,1.38777 ,0.27478 ,2.69611 
337 ,64.5831 ,1.38977 ,0.25767 ,2.52822 
338 ,64.7750 ,1.39178 ,0.26109 ,2.56179 
339 ,64.9830 ,1.39377 ,0.22344 ,2.19243 
340 ,65.1592 ,1.39560 ,0.22687 ,2.22601 
341 ,65.3513 ,1.39756 ,0.22687 ,2.22601 
342 ,65.5274 ,1.39937 ,0.20291 ,1.99096 
343 ,65.7032 ,1.40108 ,0.19607 ,1.92381 
344 ,65.8795 ,1.40280 ,0.19264 ,1.89023 
345 ,66.0553 ,1.40457 ,0.18922 ,1.85665 
346 ,66.2318 ,1.40632 ,0.17553 ,1.72234 
347 ,66.4398 ,1.40833 ,0.15158 ,1.48729 
348 ,66.6318 ,1.41023 ,0.14473 ,1.42013 
349 ,66.8236 ,1.41218 ,0.12078 ,1.18508 
350 ,67.0155 ,1.41412 ,0.12420 ,1.21866 
351 ,67.2076 ,1.41599 ,0.11051 ,1.08435 
352 ,67.4001 ,1.41795 ,0.09340 ,0.91646 
353 ,67.6562 ,1.42040 ,0.08314 ,0.81572 
354 ,67.8324 ,1.42234 ,0.09682 ,0.95004 
355 ,68.0083 ,1.42409 ,0.08998 ,0.88288 
356 ,68.2001 ,1.42600 ,0.06260 ,0.61425 
357 ,68.3927 ,1.42788 ,0.06602 ,0.64783 
358 ,68.5847 ,1.42983 ,0.04207 ,0.41278 
359 ,68.7606 ,1.43164 ,0.03522 ,0.34563 
360 ,68.9685 ,1.43361 ,0.01811 ,0.17773 
361 ,69.1449 ,1.43543 ,0.02496 ,0.24489 
362 ,69.3210 ,1.43716 ,0.00100 ,0.00984 
363 ,69.5127 ,1.43907 ,0.00100 ,0.00984 
364 ,69.7050 ,1.44098 ,-0.03322 ,-0.32594 
365 ,69.9130 ,1.44297 ,-0.04006 ,-0.39310 
366 ,70.1052 ,1.44504 ,-0.02295 ,-0.22520 
367 ,70.2970 ,1.44687 ,-0.05717 ,-0.56099 
368 ,70.4890 ,1.44883 ,-0.04691 ,-0.46025 
369 ,70.6812 ,1.45073 ,-0.08797 ,-0.86319 
370 ,70.8734 ,1.45270 ,-0.07428 ,-0.72888 
371 ,71.0814 ,1.45473 ,-0.07771 ,-0.76246 
372 ,71.2575 ,1.45659 ,-0.09824 ,-0.96393 
373 ,71.4334 ,1.45831 ,-0.11535 ,-1.13182 
374 ,71.6260 ,1.46017 ,-0.11535 ,-1.13182 
375 ,71.8021 ,1.46202 ,-0.12219 ,-1.19898 
376 ,71.9941 ,1.46387 ,-0.14957 ,-1.46760 
377 ,72.1701 ,1.46569 ,-0.13931 ,-1.36687 
378 ,72.3621 ,1.46758 ,-0.16668 ,-1.63549 
379 ,72.5543 ,1.46954 ,-0.17695 ,-1.73623 
380 ,72.7302 ,1.47137 ,-0.16326 ,-1.60191 
381 ,72.9221 ,1.47315 ,-0.19406 ,-1.90412 
382 ,73.0984 ,1.47500 ,-0.19064 ,-1.87054 
383 ,73.2746 ,1.47674 ,-0.21459 ,-2.10559 
384 ,73.4827 ,1.47871 ,-0.21117 ,-2.07201 
385 ,73.6427 ,1.48053 ,-0.23170 ,-2.27348 
386 ,73.8349 ,1.48231 ,-0.23855 ,-2.34064 
387 ,74.0429 ,1.48439 ,-0.24197 ,-2.37422 
388 ,74.2510 ,1.48643 ,-0.24197 ,-2.37422 
389 ,74.4431 ,1.48834 ,-0.26593 ,-2.60926 
390 ,74.6348 ,1.49025 ,-0.26935 ,-2.64284 
391 ,74.8273 ,1.49223 ,-0.26250 ,-2.57569 
392 ,75.0351 ,1.49429 ,-0.29673 ,-2.91147 
393 ,75.2275 ,1.49620 ,-0.28304 ,-2.77716 
394 ,75.4193 ,1.49812 ,-0.31041 ,-3.04578 
395 ,75.6118 ,1.50012 ,-0.32410 ,-3.18010 
396 ,75.7876 ,1.50189 ,-0.32410 ,-3.18010 
397 ,75.9797 ,1.50369 ,-0.34806 ,-3.41514 
398 ,76.1558 ,1.50555 ,-0.35148 ,-3.44872 
399 ,76.3640 ,1.50751 ,-0.35490 ,-3.48230 
400 ,76.5559 ,1.50949 ,-0.38228 ,-3.75093 
401 ,76.7478 ,1.51151 ,-0.37886 ,-3.71735 
402 ,76.9401 ,1.51335 ,-0.38570 ,-3.78450 
403 ,77.1322 ,1.51530 ,-0.41308 ,-4.05313 
404 ,77.3561 ,1.51734 ,-0.40966 ,-4.01955 
405 ,77.5643 ,1.51944 ,-0.40281 ,-3.95240 
406 ,77.7560 ,1.52148 ,-0.42335 ,-4.15387 
407 ,77.9323 ,1.52329 ,-0.44730 ,-4.38891 
408 ,78.1081 ,1.52507 ,-0.43361 ,-4.25460 
409 ,78.2846 ,1.52682 ,-0.44046 ,-4.32176 
410 ,78.4925 ,1.52886 ,-0.46783 ,-4.59038 
411 ,78.6686 ,1.53062 ,-0.48494 ,-4.75828 
412 ,78.8608 ,1.53250 ,-0.47126 ,-4.62396 
413 ,79.0528 ,1.53450 ,-0.47810 ,-4.69112 
414 ,79.2609 ,1.53644 ,-0.48837 ,-4.79185 
415 ,79.4529 ,1.53835 ,-0.50206 ,-4.92617 
416 ,79.6611 ,1.54048 ,-0.51232 ,-5.02690 
417 ,79.8690 ,1.54258 ,-0.52601 ,-5.16121 
418 ,80.0448 ,1.54447 ,-0.53285 ,-5.22837 
419 ,80.2210 ,1.54616 ,-0.54312 ,-5.32911 
420 ,80.4134 ,1.54804 ,-0.57050 ,-5.59773 
421 ,80.6055 ,1.54998 ,-0.55681 ,-5.46342 
422 ,80.7815 ,1.55176 ,-0.55681 ,-5.46342 
423 ,80.9575 ,1.55348 ,-0.56708 ,-5.56415 
424 ,81.1496 ,1.55539 ,-0.59445 ,-5.83278 
425 ,81.3257 ,1.55724 ,-0.59445 ,-5.83278 
426 ,81.5017 ,1.55896 ,-0.59788 ,-5.86636 
427 ,81.7098 ,1.56097 ,-0.61841 ,-6.06783 
428 ,81.9021 ,1.56291 ,-0.60814 ,-5.96709 
429 ,82.0940 ,1.56482 ,-0.63210 ,-6.20214 
430 ,82.2541 ,1.56661 ,-0.64921 ,-6.37003 
431 ,82.4623 ,1.56840 ,-0.64236 ,-6.30288 
432 ,82.6704 ,1.57062 ,-0.65947 ,-6.47077 
433 ,82.8625 ,1.57251 ,-0.66290 ,-6.50435 
434 ,83.0544 ,1.57447 ,-0.67316 ,-6.60508 
435 ,83.2462 ,1.57638 ,-0.69027 ,-6.77297 
436 ,83.4387 ,1.57824 ,-0.68685 ,-6.73940 
437 ,83.6149 ,1.58009 ,-0.69712 ,-6.84013 
438 ,83.8230 ,1.58213 ,-0.70739 ,-6.94086 
439 ,84.0151 ,1.58404 ,-0.70739 ,-6.94086 
440 ,84.2231 ,1.58613 ,-0.71765 ,-7.04160 
441 ,84.4150 ,1.58808 ,-0.73476 ,-7.20949 
442 ,84.6232 ,1.59012 ,-0.73818 ,-7.24307 
443 ,84.8153 ,1.59206 ,-0.75530 ,-7.41096 
444 ,85.0075 ,1.59397 ,-0.77583 ,-7.61243 
445 ,85.1995 ,1.59592 ,-0.76898 ,-7.54527 
446 ,85.3911 ,1.59774 ,-0.78952 ,-7.74674 
447 ,85.5836 ,1.59974 ,-0.80663 ,-7.91464 
448 ,85.7755 ,1.60162 ,-0.78952 ,-7.74674 
449 ,85.9518 ,1.60343 ,-0.81347 ,-7.98179 
450 ,86.1759 ,1.60553 ,-0.81005 ,-7.94821 
451 ,86.3677 ,1.60752 ,-0.84427 ,-8.28400 
452 ,86.5598 ,1.60943 ,-0.83743 ,-8.21684 
453 ,86.7521 ,1.61134 ,-0.83743 ,-8.21684 
454 ,86.9442 ,1.61335 ,-0.85112 ,-8.35115 
455 ,87.1363 ,1.61529 ,-0.85796 ,-8.41831 
456 ,87.3281 ,1.61717 ,-0.87507 ,-8.58620 
457 ,87.5204 ,1.61913 ,-0.89218 ,-8.75409 
458 ,87.7126 ,1.62101 ,-0.87849 ,-8.61978 
459 ,87.9203 ,1.62305 ,-0.89218 ,-8.75409 
460 ,88.1124 ,1.62499 ,-0.90587 ,-8.88841 
461 ,88.3207 ,1.62710 ,-0.91272 ,-8.95556 
462 ,88.5127 ,1.62907 ,-0.90587 ,-8.88841 
463 ,88.7043 ,1.63092 ,-0.94351 ,-9.25777 
