Data stamp = , 26-04-2022 04:22:27 222

Calibration Values: 
Slope = , 26.54 , g/V 
Offset Voltage at no contact = , -0.501760 , V 

No , Time , Stage Position ,   Mass , Force 
   ,  (s) ,      (mm)      ,   (g)  , (mN)  

1 ,0.0000 ,0.74950 ,5.27456 ,51.75401 
2 ,0.3119 ,0.74974 ,5.28141 ,51.82116 
3 ,0.6806 ,0.75117 ,5.27456 ,51.75401 
4 ,0.8885 ,0.75318 ,5.29510 ,51.95548 
5 ,1.0808 ,0.75504 ,5.27798 ,51.78758 
6 ,1.2882 ,0.75705 ,5.28141 ,51.82116 
7 ,1.4803 ,0.75901 ,5.28825 ,51.88832 
8 ,1.6729 ,0.76093 ,5.26772 ,51.68685 
9 ,1.8970 ,0.76321 ,5.25403 ,51.55254 
10 ,2.0891 ,0.76506 ,5.24376 ,51.45180 
11 ,2.2970 ,0.76723 ,5.21639 ,51.18317 
12 ,2.4888 ,0.76925 ,5.20612 ,51.08244 
13 ,2.6811 ,0.77103 ,5.17532 ,50.78023 
14 ,2.8733 ,0.77299 ,5.16163 ,50.64592 
15 ,3.0656 ,0.77484 ,5.17190 ,50.74666 
16 ,3.2735 ,0.77694 ,5.13425 ,50.37729 
17 ,3.4495 ,0.77879 ,5.11714 ,50.20940 
18 ,3.6416 ,0.78070 ,5.09661 ,50.00793 
19 ,3.8338 ,0.78256 ,5.07608 ,49.80646 
20 ,4.0259 ,0.78444 ,5.05897 ,49.63857 
21 ,4.2179 ,0.78645 ,5.03843 ,49.43710 
22 ,4.4259 ,0.78844 ,5.03159 ,49.36995 
23 ,4.6017 ,0.79024 ,5.00763 ,49.13490 
24 ,4.7943 ,0.79218 ,4.98710 ,48.93343 
25 ,5.0020 ,0.79424 ,4.95630 ,48.63122 
26 ,5.1940 ,0.79612 ,4.95972 ,48.66480 
27 ,5.3706 ,0.79800 ,4.93235 ,48.39618 
28 ,5.5626 ,0.79992 ,4.92208 ,48.29544 
29 ,5.7540 ,0.80173 ,4.89812 ,48.06039 
30 ,5.9467 ,0.80368 ,4.87417 ,47.82534 
31 ,6.1548 ,0.80572 ,4.85706 ,47.65745 
32 ,6.3630 ,0.80791 ,4.83652 ,47.45598 
33 ,6.5706 ,0.80991 ,4.81599 ,47.25451 
34 ,6.7470 ,0.81174 ,4.81941 ,47.28809 
35 ,6.9712 ,0.81383 ,4.77493 ,46.85157 
36 ,7.1792 ,0.81603 ,4.75439 ,46.65010 
37 ,7.3714 ,0.81794 ,4.75439 ,46.65010 
38 ,7.5633 ,0.81986 ,4.71675 ,46.28074 
39 ,7.7552 ,0.82174 ,4.69964 ,46.11285 
40 ,7.9310 ,0.82355 ,4.68937 ,46.01212 
41 ,8.1234 ,0.82543 ,4.66884 ,45.81065 
42 ,8.3155 ,0.82735 ,4.64831 ,45.60918 
43 ,8.4912 ,0.82928 ,4.65173 ,45.64275 
44 ,8.6677 ,0.83095 ,4.63119 ,45.44128 
45 ,8.8437 ,0.83273 ,4.61751 ,45.30697 
46 ,9.0359 ,0.83454 ,4.58328 ,44.97119 
47 ,9.2437 ,0.83659 ,4.56617 ,44.80330 
48 ,9.4518 ,0.83874 ,4.55249 ,44.66898 
49 ,9.6439 ,0.84065 ,4.52169 ,44.36678 
50 ,9.8361 ,0.84261 ,4.52511 ,44.40036 
51 ,10.0118 ,0.84445 ,4.50800 ,44.23247 
52 ,10.2040 ,0.84626 ,4.47378 ,43.89668 
53 ,10.4121 ,0.84833 ,4.46009 ,43.76237 
54 ,10.5885 ,0.85016 ,4.45666 ,43.72879 
55 ,10.7963 ,0.85220 ,4.41560 ,43.32585 
56 ,10.9887 ,0.85416 ,4.41902 ,43.35943 
57 ,11.1802 ,0.85607 ,4.37795 ,42.95649 
58 ,11.3728 ,0.85789 ,4.37795 ,42.95649 
59 ,11.5488 ,0.85974 ,4.36427 ,42.82218 
60 ,11.7249 ,0.86155 ,4.35400 ,42.72144 
61 ,11.9169 ,0.86344 ,4.32662 ,42.45282 
62 ,12.1091 ,0.86522 ,4.30267 ,42.21777 
63 ,12.3172 ,0.86733 ,4.28898 ,42.08345 
64 ,12.5251 ,0.86943 ,4.27187 ,41.91556 
65 ,12.7013 ,0.87125 ,4.25133 ,41.71409 
66 ,12.8935 ,0.87319 ,4.23080 ,41.51262 
67 ,13.1013 ,0.87519 ,4.20685 ,41.27758 
68 ,13.2776 ,0.87707 ,4.18631 ,41.07611 
69 ,13.4855 ,0.87901 ,4.17605 ,40.97537 
70 ,13.6938 ,0.88114 ,4.16920 ,40.90821 
71 ,13.8853 ,0.88303 ,4.14525 ,40.67317 
72 ,14.0619 ,0.88485 ,4.12471 ,40.47170 
73 ,14.2696 ,0.88685 ,4.12471 ,40.47170 
74 ,14.4620 ,0.88889 ,4.08023 ,40.03518 
75 ,14.6377 ,0.89063 ,4.07338 ,39.96802 
76 ,14.8142 ,0.89239 ,4.05969 ,39.83371 
77 ,15.0061 ,0.89425 ,4.05285 ,39.76655 
78 ,15.2141 ,0.89628 ,4.02889 ,39.53150 
79 ,15.3904 ,0.89815 ,4.01520 ,39.39719 
80 ,15.5824 ,0.90010 ,3.98783 ,39.12856 
81 ,15.7745 ,0.90191 ,3.96729 ,38.92709 
82 ,15.9506 ,0.90376 ,3.96387 ,38.89352 
83 ,16.1586 ,0.90578 ,3.94334 ,38.69205 
84 ,16.3504 ,0.90766 ,3.93307 ,38.59131 
85 ,16.5423 ,0.90959 ,3.90912 ,38.35626 
86 ,16.7348 ,0.91151 ,3.88516 ,38.12122 
87 ,16.9269 ,0.91346 ,3.87832 ,38.05406 
88 ,17.1190 ,0.91542 ,3.84067 ,37.68470 
89 ,17.2949 ,0.91717 ,3.82699 ,37.55038 
90 ,17.4711 ,0.91890 ,3.83041 ,37.58396 
91 ,17.6468 ,0.92078 ,3.79619 ,37.24818 
92 ,17.8393 ,0.92259 ,3.77223 ,37.01313 
93 ,18.0317 ,0.92441 ,3.76539 ,36.94597 
94 ,18.2395 ,0.92658 ,3.75512 ,36.84524 
95 ,18.4476 ,0.92859 ,3.74143 ,36.71093 
96 ,18.6235 ,0.93046 ,3.72774 ,36.57661 
97 ,18.8156 ,0.93231 ,3.70037 ,36.30799 
98 ,19.0078 ,0.93432 ,3.69694 ,36.27441 
99 ,19.1837 ,0.93601 ,3.67983 ,36.10652 
100 ,19.3756 ,0.93791 ,3.64219 ,35.73716 
101 ,19.5839 ,0.93999 ,3.62508 ,35.56926 
102 ,19.7762 ,0.94195 ,3.60454 ,35.36779 
103 ,19.9684 ,0.94388 ,3.61139 ,35.43495 
104 ,20.1604 ,0.94585 ,3.58743 ,35.19990 
105 ,20.3364 ,0.94759 ,3.56006 ,34.93128 
106 ,20.5284 ,0.94950 ,3.55321 ,34.86412 
107 ,20.7045 ,0.95132 ,3.52241 ,34.56192 
108 ,20.8802 ,0.95307 ,3.50872 ,34.42760 
109 ,21.0887 ,0.95495 ,3.50872 ,34.42760 
110 ,21.2967 ,0.95716 ,3.47792 ,34.12540 
111 ,21.4887 ,0.95919 ,3.47450 ,34.09182 
112 ,21.6808 ,0.96098 ,3.44713 ,33.82319 
113 ,21.8890 ,0.96293 ,3.42317 ,33.58814 
114 ,22.0810 ,0.96508 ,3.40606 ,33.42025 
115 ,22.2730 ,0.96688 ,3.39921 ,33.35310 
116 ,22.4492 ,0.96874 ,3.39237 ,33.28594 
117 ,22.6412 ,0.97064 ,3.36157 ,32.98374 
118 ,22.8332 ,0.97248 ,3.36157 ,32.98374 
119 ,23.0570 ,0.97459 ,3.33077 ,32.68153 
120 ,23.2497 ,0.97666 ,3.31708 ,32.54722 
121 ,23.4412 ,0.97869 ,3.28628 ,32.24501 
122 ,23.6177 ,0.98040 ,3.27602 ,32.14428 
123 ,23.8257 ,0.98236 ,3.26233 ,32.00996 
124 ,24.0179 ,0.98427 ,3.22468 ,31.64060 
125 ,24.2097 ,0.98627 ,3.23153 ,31.70776 
126 ,24.4020 ,0.98819 ,3.20415 ,31.43913 
127 ,24.5781 ,0.99003 ,3.19046 ,31.30482 
128 ,24.7703 ,0.99193 ,3.16309 ,31.03619 
129 ,24.9623 ,0.99376 ,3.14940 ,30.90188 
130 ,25.1543 ,0.99582 ,3.14597 ,30.86830 
131 ,25.3304 ,0.99746 ,3.12202 ,30.63325 
132 ,25.5225 ,0.99934 ,3.10833 ,30.49894 
133 ,25.6821 ,1.00112 ,3.09122 ,30.33105 
134 ,25.8585 ,1.00278 ,3.06384 ,30.06242 
135 ,26.0508 ,1.00462 ,3.07069 ,30.12958 
136 ,26.2590 ,1.00676 ,3.03304 ,29.76022 
137 ,26.4505 ,1.00872 ,3.03989 ,29.82737 
138 ,26.6427 ,1.01058 ,3.00567 ,29.49159 
139 ,26.8190 ,1.01239 ,2.98855 ,29.32370 
140 ,27.0272 ,1.01446 ,2.97829 ,29.22297 
141 ,27.2192 ,1.01632 ,2.94407 ,28.88718 
142 ,27.4108 ,1.01834 ,2.93038 ,28.75287 
143 ,27.5873 ,1.02007 ,2.94064 ,28.85360 
144 ,27.7635 ,1.02183 ,2.92011 ,28.65213 
145 ,27.9555 ,1.02367 ,2.89273 ,28.38351 
146 ,28.1476 ,1.02557 ,2.89273 ,28.38351 
147 ,28.3396 ,1.02759 ,2.86536 ,28.11488 
148 ,28.5316 ,1.02940 ,2.86193 ,28.08130 
149 ,28.7234 ,1.03134 ,2.83798 ,27.84625 
150 ,28.9158 ,1.03328 ,2.81060 ,27.57763 
151 ,29.1079 ,1.03521 ,2.80034 ,27.47689 
152 ,29.2998 ,1.03712 ,2.76269 ,27.10753 
153 ,29.4756 ,1.03899 ,2.75585 ,27.04038 
154 ,29.6682 ,1.04077 ,2.76269 ,27.10753 
155 ,29.8762 ,1.04290 ,2.72847 ,26.77175 
156 ,30.0683 ,1.04482 ,2.70794 ,26.57028 
157 ,30.2441 ,1.04658 ,2.70794 ,26.57028 
158 ,30.4204 ,1.04846 ,2.67372 ,26.23450 
159 ,30.6121 ,1.05029 ,2.65318 ,26.03303 
160 ,30.8044 ,1.05222 ,2.66345 ,26.13376 
161 ,31.0127 ,1.05422 ,2.63607 ,25.86514 
162 ,31.1886 ,1.05604 ,2.62923 ,25.79798 
163 ,31.3808 ,1.05792 ,2.58816 ,25.39504 
164 ,31.5569 ,1.05975 ,2.57447 ,25.26073 
165 ,31.7326 ,1.06149 ,2.57447 ,25.26073 
166 ,31.9250 ,1.06337 ,2.56763 ,25.19357 
167 ,32.1171 ,1.06533 ,2.52314 ,24.75705 
168 ,32.3091 ,1.06725 ,2.53341 ,24.85779 
169 ,32.5013 ,1.06910 ,2.49576 ,24.48842 
170 ,32.6770 ,1.07092 ,2.48207 ,24.35411 
171 ,32.8530 ,1.07267 ,2.46154 ,24.15264 
172 ,33.0291 ,1.07451 ,2.45470 ,24.08549 
173 ,33.2215 ,1.07632 ,2.43759 ,23.91759 
174 ,33.4298 ,1.07843 ,2.43759 ,23.91759 
175 ,33.6215 ,1.08034 ,2.39994 ,23.54823 
176 ,33.8138 ,1.08226 ,2.39652 ,23.51465 
177 ,34.0220 ,1.08430 ,2.36914 ,23.24603 
178 ,34.2139 ,1.08633 ,2.37256 ,23.27961 
179 ,34.3901 ,1.08809 ,2.35888 ,23.14529 
180 ,34.5982 ,1.09006 ,2.32465 ,22.80951 
181 ,34.7903 ,1.09199 ,2.32123 ,22.77593 
182 ,34.9820 ,1.09394 ,2.29043 ,22.47373 
183 ,35.1744 ,1.09583 ,2.27674 ,22.33941 
184 ,35.3667 ,1.09774 ,2.25963 ,22.17152 
185 ,35.5906 ,1.09981 ,2.25279 ,22.10437 
186 ,35.7988 ,1.10207 ,2.21172 ,21.70143 
187 ,35.9908 ,1.10404 ,2.22199 ,21.80216 
188 ,36.1985 ,1.10610 ,2.17750 ,21.36564 
189 ,36.3909 ,1.10805 ,2.17750 ,21.36564 
190 ,36.5671 ,1.10989 ,2.16723 ,21.26491 
191 ,36.7430 ,1.11165 ,2.13301 ,20.92912 
192 ,36.9348 ,1.11338 ,2.12617 ,20.86197 
193 ,37.1110 ,1.11525 ,2.11248 ,20.72766 
194 ,37.3032 ,1.11713 ,2.09537 ,20.55976 
195 ,37.5113 ,1.11920 ,2.09879 ,20.59334 
196 ,37.7031 ,1.12117 ,2.06115 ,20.22398 
197 ,37.8794 ,1.12294 ,2.03719 ,19.98893 
198 ,38.0556 ,1.12471 ,2.03035 ,19.92178 
199 ,38.2472 ,1.12656 ,2.03377 ,19.95535 
200 ,38.4393 ,1.12847 ,1.98928 ,19.51884 
201 ,38.6478 ,1.13058 ,2.00297 ,19.65315 
202 ,38.8558 ,1.13268 ,1.96533 ,19.28379 
203 ,39.0480 ,1.13456 ,1.95848 ,19.21663 
204 ,39.2400 ,1.13654 ,1.93795 ,19.01516 
205 ,39.4322 ,1.13839 ,1.93111 ,18.94801 
206 ,39.6401 ,1.14048 ,1.89688 ,18.61222 
207 ,39.8323 ,1.14242 ,1.90715 ,18.71296 
208 ,40.0402 ,1.14452 ,1.86608 ,18.31002 
209 ,40.2160 ,1.14629 ,1.85924 ,18.24286 
210 ,40.3921 ,1.14809 ,1.85582 ,18.20928 
211 ,40.5846 ,1.14990 ,1.83871 ,18.04139 
212 ,40.7927 ,1.15202 ,1.82160 ,17.87350 
213 ,40.9847 ,1.15392 ,1.79764 ,17.63845 
214 ,41.1769 ,1.15583 ,1.78395 ,17.50414 
215 ,41.3691 ,1.15784 ,1.77711 ,17.43698 
216 ,41.5931 ,1.15991 ,1.74631 ,17.13478 
217 ,41.7852 ,1.16198 ,1.74631 ,17.13478 
218 ,41.9771 ,1.16381 ,1.71893 ,16.86615 
219 ,42.1692 ,1.16578 ,1.72920 ,16.96689 
220 ,42.3613 ,1.16771 ,1.69155 ,16.59752 
221 ,42.5372 ,1.16954 ,1.67786 ,16.46321 
222 ,42.7456 ,1.17150 ,1.68129 ,16.49679 
223 ,42.9534 ,1.17364 ,1.65391 ,16.22816 
224 ,43.1297 ,1.17548 ,1.65733 ,16.26174 
225 ,43.3057 ,1.17714 ,1.64707 ,16.16101 
226 ,43.4978 ,1.17900 ,1.61969 ,15.89238 
227 ,43.6894 ,1.18094 ,1.60258 ,15.72449 
228 ,43.8821 ,1.18291 ,1.58889 ,15.59018 
229 ,44.0901 ,1.18498 ,1.59231 ,15.62375 
230 ,44.2822 ,1.18689 ,1.55809 ,15.28797 
231 ,44.4739 ,1.18883 ,1.54440 ,15.15366 
232 ,44.6504 ,1.19063 ,1.54098 ,15.12008 
233 ,44.8423 ,1.19259 ,1.52045 ,14.91861 
234 ,45.0341 ,1.19438 ,1.50676 ,14.78430 
235 ,45.2107 ,1.19625 ,1.50333 ,14.75072 
236 ,45.4027 ,1.19818 ,1.48622 ,14.58283 
237 ,45.6108 ,1.20014 ,1.47938 ,14.51567 
238 ,45.8029 ,1.20208 ,1.44516 ,14.17989 
239 ,45.9949 ,1.20400 ,1.42120 ,13.94484 
240 ,46.2027 ,1.20613 ,1.42805 ,14.01199 
241 ,46.3950 ,1.20805 ,1.39040 ,13.64263 
242 ,46.5870 ,1.20993 ,1.40409 ,13.77695 
243 ,46.7793 ,1.21186 ,1.37329 ,13.47474 
244 ,46.9713 ,1.21390 ,1.37671 ,13.50832 
245 ,47.1474 ,1.21563 ,1.36303 ,13.37401 
246 ,47.3554 ,1.21755 ,1.33907 ,13.13896 
247 ,47.5315 ,1.21948 ,1.33565 ,13.10538 
248 ,47.7234 ,1.22129 ,1.31512 ,12.90391 
249 ,47.8997 ,1.22308 ,1.30485 ,12.80318 
250 ,48.1079 ,1.22506 ,1.30143 ,12.76960 
251 ,48.3158 ,1.22717 ,1.27063 ,12.46739 
252 ,48.4920 ,1.22913 ,1.27747 ,12.53455 
253 ,48.6838 ,1.23086 ,1.25009 ,12.26592 
254 ,48.8602 ,1.23268 ,1.23298 ,12.09803 
255 ,49.0521 ,1.23456 ,1.21929 ,11.96372 
256 ,49.2283 ,1.23642 ,1.21587 ,11.93014 
257 ,49.4205 ,1.23831 ,1.20218 ,11.79583 
258 ,49.6125 ,1.24021 ,1.17481 ,11.52720 
259 ,49.8045 ,1.24213 ,1.16796 ,11.46004 
260 ,49.9807 ,1.24391 ,1.16796 ,11.46004 
261 ,50.1725 ,1.24577 ,1.14401 ,11.22500 
262 ,50.3648 ,1.24773 ,1.13716 ,11.15784 
263 ,50.5889 ,1.24983 ,1.11663 ,10.95637 
264 ,50.7810 ,1.25188 ,1.09952 ,10.78848 
265 ,50.9733 ,1.25376 ,1.08583 ,10.65416 
266 ,51.1810 ,1.25583 ,1.07214 ,10.51985 
267 ,51.3410 ,1.25764 ,1.06530 ,10.45270 
268 ,51.5172 ,1.25928 ,1.05503 ,10.35196 
269 ,51.7250 ,1.26128 ,1.05845 ,10.38554 
270 ,51.9014 ,1.26309 ,1.03792 ,10.18407 
271 ,52.0932 ,1.26495 ,1.01739 ,9.98260 
272 ,52.2855 ,1.26692 ,1.01396 ,9.94902 
273 ,52.4935 ,1.26895 ,0.98659 ,9.68039 
274 ,52.7016 ,1.27106 ,0.96263 ,9.44535 
275 ,52.8774 ,1.27287 ,0.95579 ,9.37819 
276 ,53.0538 ,1.27459 ,0.93868 ,9.21030 
277 ,53.2456 ,1.27647 ,0.94552 ,9.27745 
278 ,53.4216 ,1.27829 ,0.92499 ,9.07598 
279 ,53.6298 ,1.28036 ,0.90446 ,8.87451 
280 ,53.8380 ,1.28237 ,0.89761 ,8.80736 
281 ,54.0300 ,1.28433 ,0.88392 ,8.67305 
282 ,54.2223 ,1.28629 ,0.88392 ,8.67305 
283 ,54.4140 ,1.28820 ,0.85312 ,8.37084 
284 ,54.6224 ,1.29023 ,0.85312 ,8.37084 
285 ,54.8305 ,1.29231 ,0.84286 ,8.27011 
286 ,55.0385 ,1.29435 ,0.81206 ,7.96790 
287 ,55.2307 ,1.29629 ,0.81548 ,8.00148 
288 ,55.4228 ,1.29829 ,0.80521 ,7.90074 
289 ,55.6145 ,1.30024 ,0.77784 ,7.63212 
290 ,55.8070 ,1.30209 ,0.78126 ,7.66570 
291 ,56.0150 ,1.30419 ,0.74704 ,7.32991 
292 ,56.2071 ,1.30606 ,0.75730 ,7.43065 
293 ,56.3990 ,1.30803 ,0.72650 ,7.12844 
294 ,56.8314 ,1.31120 ,0.71281 ,6.99413 
295 ,57.0234 ,1.31422 ,0.69913 ,6.85982 
296 ,57.2314 ,1.31635 ,0.69228 ,6.79266 
297 ,57.4396 ,1.31832 ,0.67859 ,6.65835 
298 ,57.6477 ,1.32049 ,0.65464 ,6.42330 
299 ,57.8393 ,1.32238 ,0.63753 ,6.25541 
300 ,58.0157 ,1.32420 ,0.63068 ,6.18825 
301 ,58.2079 ,1.32608 ,0.63410 ,6.22183 
302 ,58.3998 ,1.32796 ,0.60330 ,5.91962 
303 ,58.5922 ,1.32995 ,0.59988 ,5.88605 
304 ,58.7841 ,1.33187 ,0.59988 ,5.88605 
305 ,58.9923 ,1.33393 ,0.57251 ,5.61742 
306 ,59.2003 ,1.33598 ,0.55882 ,5.48311 
307 ,59.3768 ,1.33786 ,0.55197 ,5.41595 
308 ,59.6165 ,1.33996 ,0.53486 ,5.24806 
309 ,59.8241 ,1.34228 ,0.53144 ,5.21448 
310 ,60.0003 ,1.34406 ,0.52459 ,5.14732 
311 ,60.1925 ,1.34594 ,0.49722 ,4.87870 
312 ,60.4009 ,1.34805 ,0.49037 ,4.81154 
313 ,60.5926 ,1.35006 ,0.48695 ,4.77796 
314 ,60.7691 ,1.35177 ,0.46300 ,4.54291 
315 ,60.9609 ,1.35362 ,0.44588 ,4.37502 
316 ,61.1532 ,1.35551 ,0.43904 ,4.30787 
317 ,61.3609 ,1.35764 ,0.43220 ,4.24071 
318 ,61.5530 ,1.35958 ,0.41509 ,4.07282 
319 ,61.7289 ,1.36134 ,0.40824 ,4.00566 
320 ,61.9210 ,1.36318 ,0.40140 ,3.93850 
321 ,62.1131 ,1.36512 ,0.37060 ,3.63630 
322 ,62.3054 ,1.36707 ,0.37744 ,3.70346 
323 ,62.4972 ,1.36895 ,0.36033 ,3.53557 
324 ,62.7058 ,1.37111 ,0.37060 ,3.63630 
325 ,62.9135 ,1.37313 ,0.32953 ,3.23336 
326 ,63.0900 ,1.37496 ,0.32953 ,3.23336 
327 ,63.2817 ,1.37682 ,0.33295 ,3.26694 
328 ,63.4582 ,1.37864 ,0.30558 ,2.99831 
329 ,63.6502 ,1.38058 ,0.28504 ,2.79684 
330 ,63.8421 ,1.38242 ,0.28847 ,2.83042 
331 ,64.0183 ,1.38427 ,0.28162 ,2.76326 
332 ,64.2105 ,1.38614 ,0.27478 ,2.69611 
333 ,64.4023 ,1.38799 ,0.25767 ,2.52822 
334 ,64.5784 ,1.38987 ,0.23713 ,2.32675 
335 ,64.7708 ,1.39176 ,0.23029 ,2.25959 
336 ,64.9628 ,1.39364 ,0.22344 ,2.19243 
337 ,65.1389 ,1.39545 ,0.21660 ,2.12528 
338 ,65.3309 ,1.39726 ,0.20633 ,2.02454 
339 ,65.5389 ,1.39928 ,0.21660 ,2.12528 
340 ,65.7310 ,1.40121 ,0.18238 ,1.78949 
341 ,65.9551 ,1.40345 ,0.16869 ,1.65518 
342 ,66.1632 ,1.40565 ,0.16185 ,1.58802 
343 ,66.3393 ,1.40746 ,0.15842 ,1.55445 
344 ,66.5314 ,1.40928 ,0.14473 ,1.42013 
345 ,66.7075 ,1.41109 ,0.13105 ,1.28582 
346 ,66.9156 ,1.41310 ,0.11736 ,1.15151 
347 ,67.1236 ,1.41523 ,0.10367 ,1.01719 
348 ,67.3158 ,1.41715 ,0.08998 ,0.88288 
349 ,67.5232 ,1.41922 ,0.08656 ,0.84930 
350 ,67.7159 ,1.42110 ,0.06945 ,0.68141 
351 ,67.9238 ,1.42325 ,0.05918 ,0.58067 
352 ,68.1160 ,1.42514 ,0.04207 ,0.41278 
353 ,68.3239 ,1.42720 ,0.04207 ,0.41278 
354 ,68.5162 ,1.42912 ,0.01469 ,0.14416 
355 ,68.6918 ,1.43093 ,0.01469 ,0.14416 
356 ,68.8686 ,1.43275 ,0.01127 ,0.11058 
357 ,69.0761 ,1.43476 ,-0.01611 ,-0.15805 
358 ,69.2522 ,1.43652 ,-0.01953 ,-0.19163 
359 ,69.4445 ,1.43840 ,-0.01269 ,-0.12447 
360 ,69.6207 ,1.44023 ,-0.01953 ,-0.19163 
361 ,69.8285 ,1.44230 ,-0.04006 ,-0.39310 
362 ,70.0367 ,1.44435 ,-0.05717 ,-0.56099 
363 ,70.2286 ,1.44619 ,-0.06744 ,-0.66172 
364 ,70.4210 ,1.44821 ,-0.06744 ,-0.66172 
365 ,70.6288 ,1.45022 ,-0.07428 ,-0.72888 
366 ,70.8207 ,1.45218 ,-0.08797 ,-0.86319 
367 ,71.0130 ,1.45410 ,-0.10508 ,-1.03108 
368 ,71.2212 ,1.45614 ,-0.11877 ,-1.16540 
369 ,71.3971 ,1.45801 ,-0.12219 ,-1.19898 
370 ,71.5893 ,1.45987 ,-0.14273 ,-1.40045 
371 ,71.7654 ,1.46168 ,-0.12562 ,-1.23255 
372 ,71.9412 ,1.46347 ,-0.16326 ,-1.60191 
373 ,72.1336 ,1.46528 ,-0.17695 ,-1.73623 
374 ,72.3256 ,1.46722 ,-0.15984 ,-1.56834 
375 ,72.5177 ,1.46920 ,-0.18037 ,-1.76981 
376 ,72.7094 ,1.47110 ,-0.18722 ,-1.83696 
377 ,72.9015 ,1.47295 ,-0.18379 ,-1.80338 
378 ,73.0936 ,1.47487 ,-0.22486 ,-2.20632 
379 ,73.2857 ,1.47681 ,-0.21459 ,-2.10559 
380 ,73.4777 ,1.47871 ,-0.23855 ,-2.34064 
381 ,73.6699 ,1.48064 ,-0.24197 ,-2.37422 
382 ,73.8621 ,1.48260 ,-0.23513 ,-2.30706 
383 ,74.1020 ,1.48503 ,-0.24539 ,-2.40779 
384 ,74.2941 ,1.48695 ,-0.28304 ,-2.77716 
385 ,74.4862 ,1.48878 ,-0.26935 ,-2.64284 
386 ,74.6626 ,1.49064 ,-0.28304 ,-2.77716 
387 ,74.8384 ,1.49242 ,-0.29330 ,-2.87789 
388 ,75.0148 ,1.49417 ,-0.32068 ,-3.14652 
389 ,75.1905 ,1.49596 ,-0.31041 ,-3.04578 
390 ,75.3830 ,1.49777 ,-0.31041 ,-3.04578 
391 ,75.5911 ,1.49987 ,-0.33095 ,-3.24725 
392 ,75.7832 ,1.50175 ,-0.33437 ,-3.28083 
393 ,75.9912 ,1.50386 ,-0.35148 ,-3.44872 
394 ,76.1832 ,1.50579 ,-0.36175 ,-3.54946 
395 ,76.3753 ,1.50777 ,-0.37886 ,-3.71735 
396 ,76.5517 ,1.50949 ,-0.39255 ,-3.85166 
397 ,76.7435 ,1.51137 ,-0.38228 ,-3.75093 
398 ,76.9195 ,1.51315 ,-0.39939 ,-3.91882 
399 ,77.0955 ,1.51495 ,-0.41308 ,-4.05313 
400 ,77.2878 ,1.51686 ,-0.41650 ,-4.08671 
401 ,77.4799 ,1.51873 ,-0.42335 ,-4.15387 
402 ,77.6719 ,1.52068 ,-0.44730 ,-4.38891 
403 ,77.8801 ,1.52269 ,-0.44730 ,-4.38891 
404 ,78.0882 ,1.52471 ,-0.45414 ,-4.45607 
405 ,78.2962 ,1.52689 ,-0.47468 ,-4.65754 
406 ,78.4720 ,1.52870 ,-0.49521 ,-4.85901 
407 ,78.6644 ,1.53055 ,-0.47810 ,-4.69112 
408 ,78.8885 ,1.53269 ,-0.49863 ,-4.89259 
409 ,79.0805 ,1.53476 ,-0.50206 ,-4.92617 
410 ,79.2728 ,1.53667 ,-0.51574 ,-5.06048 
411 ,79.4806 ,1.53876 ,-0.52943 ,-5.19479 
412 ,79.6730 ,1.54064 ,-0.53970 ,-5.29553 
413 ,79.8806 ,1.54276 ,-0.54997 ,-5.39626 
414 ,80.0731 ,1.54469 ,-0.55681 ,-5.46342 
415 ,80.2488 ,1.54648 ,-0.57392 ,-5.63131 
416 ,80.4410 ,1.54838 ,-0.57392 ,-5.63131 
417 ,80.6168 ,1.55015 ,-0.58077 ,-5.69847 
418 ,80.8092 ,1.55202 ,-0.59103 ,-5.79920 
419 ,81.0013 ,1.55397 ,-0.59445 ,-5.83278 
420 ,81.1933 ,1.55588 ,-0.61156 ,-6.00067 
421 ,81.3855 ,1.55778 ,-0.61156 ,-6.00067 
422 ,81.5774 ,1.55970 ,-0.63552 ,-6.23572 
423 ,81.7534 ,1.56148 ,-0.64921 ,-6.37003 
424 ,81.9456 ,1.56333 ,-0.63894 ,-6.26930 
425 ,82.1218 ,1.56521 ,-0.64921 ,-6.37003 
426 ,82.3137 ,1.56709 ,-0.66974 ,-6.57150 
427 ,82.4900 ,1.56888 ,-0.66974 ,-6.57150 
428 ,82.7138 ,1.57107 ,-0.68685 ,-6.73940 
429 ,82.9220 ,1.57313 ,-0.68001 ,-6.67224 
430 ,83.1140 ,1.57518 ,-0.69370 ,-6.80655 
431 ,83.2902 ,1.57690 ,-0.70739 ,-6.94086 
432 ,83.4823 ,1.57880 ,-0.71423 ,-7.00802 
433 ,83.6903 ,1.58084 ,-0.72450 ,-7.10876 
434 ,83.8500 ,1.58259 ,-0.72792 ,-7.14233 
435 ,84.0426 ,1.58433 ,-0.71423 ,-7.00802 
436 ,84.2507 ,1.58640 ,-0.75530 ,-7.41096 
437 ,84.4424 ,1.58833 ,-0.75872 ,-7.44454 
438 ,84.6189 ,1.59016 ,-0.75872 ,-7.44454 
439 ,84.8263 ,1.59212 ,-0.76556 ,-7.51170 
440 ,85.0190 ,1.59413 ,-0.78267 ,-7.67959 
441 ,85.2111 ,1.59610 ,-0.78952 ,-7.74674 
442 ,85.3870 ,1.59786 ,-0.79636 ,-7.81390 
443 ,85.5632 ,1.59961 ,-0.79636 ,-7.81390 
444 ,85.7714 ,1.60162 ,-0.81005 ,-7.94821 
445 ,85.9634 ,1.60352 ,-0.83058 ,-8.14968 
446 ,86.1715 ,1.60563 ,-0.83743 ,-8.21684 
447 ,86.3795 ,1.60773 ,-0.84769 ,-8.31758 
448 ,86.5555 ,1.60959 ,-0.86481 ,-8.48547 
449 ,86.7311 ,1.61131 ,-0.86138 ,-8.45189 
450 ,86.9237 ,1.61311 ,-0.87165 ,-8.55262 
451 ,87.1153 ,1.61518 ,-0.87849 ,-8.61978 
452 ,87.3079 ,1.61701 ,-0.88192 ,-8.65336 
453 ,87.5160 ,1.61905 ,-0.90245 ,-8.85483 
454 ,87.7079 ,1.62096 ,-0.91272 ,-8.95556 
455 ,87.9001 ,1.62294 ,-0.91272 ,-8.95556 
456 ,88.0922 ,1.62483 ,-0.92983 ,-9.12345 
457 ,88.2684 ,1.62665 ,-0.91956 ,-9.02272 
458 ,88.4765 ,1.62861 ,-0.94351 ,-9.25777 
459 ,88.6842 ,1.63073 ,-0.94351 ,-9.25777 
460 ,88.8764 ,1.63264 ,-0.97089 ,-9.52639 
461 ,89.0687 ,1.63458 ,-0.95378 ,-9.35850 
462 ,89.2765 ,1.63669 ,-0.98116 ,-9.62713 
