Data stamp = , 25-04-2022 16:56:38 787

Calibration Values: 
Slope = , 26.54 , g/V 
Offset Voltage at no contact = , -0.501760 , V 

No , Time , Stage Position ,   Mass , Force 
   ,  (s) ,      (mm)      ,   (g)  , (mN)  

1 ,0.0000 ,0.74950 ,5.36354 ,52.62704 
2 ,0.2927 ,0.74971 ,5.33958 ,52.39199 
3 ,0.6130 ,0.75085 ,5.36012 ,52.59346 
4 ,0.8372 ,0.75264 ,5.36696 ,52.66062 
5 ,1.0293 ,0.75456 ,5.36012 ,52.59346 
6 ,1.2373 ,0.75656 ,5.34643 ,52.45915 
7 ,1.4293 ,0.75838 ,5.36012 ,52.59346 
8 ,1.6054 ,0.76032 ,5.37381 ,52.72778 
9 ,1.7977 ,0.76220 ,5.35327 ,52.52631 
10 ,1.9895 ,0.76414 ,5.35327 ,52.52631 
11 ,2.1978 ,0.76624 ,5.33616 ,52.35841 
12 ,2.3895 ,0.76810 ,5.32247 ,52.22410 
13 ,2.5821 ,0.77006 ,5.30878 ,52.08979 
14 ,2.7738 ,0.77207 ,5.28825 ,51.88832 
15 ,2.9661 ,0.77390 ,5.27456 ,51.75401 
16 ,3.1583 ,0.77587 ,5.25061 ,51.51896 
17 ,3.3503 ,0.77771 ,5.22665 ,51.28391 
18 ,3.5423 ,0.77976 ,5.19585 ,50.98170 
19 ,3.7182 ,0.78153 ,5.20270 ,51.04886 
20 ,3.9106 ,0.78341 ,5.16163 ,50.64592 
21 ,4.1185 ,0.78543 ,5.14110 ,50.44445 
22 ,4.3107 ,0.78728 ,5.13768 ,50.41087 
23 ,4.5186 ,0.78947 ,5.11030 ,50.14225 
24 ,4.7429 ,0.79153 ,5.09661 ,50.00793 
25 ,4.9508 ,0.79374 ,5.07265 ,49.77289 
26 ,5.1431 ,0.79561 ,5.05554 ,49.60499 
27 ,5.3349 ,0.79766 ,5.01790 ,49.23563 
28 ,5.5271 ,0.79948 ,5.01790 ,49.23563 
29 ,5.7032 ,0.80136 ,4.99394 ,49.00058 
30 ,5.8796 ,0.80311 ,4.98026 ,48.86627 
31 ,6.0874 ,0.80510 ,4.95630 ,48.63122 
32 ,6.2635 ,0.80690 ,4.94261 ,48.49691 
33 ,6.4717 ,0.80893 ,4.90155 ,48.09397 
34 ,6.6637 ,0.81085 ,4.90839 ,48.16113 
35 ,6.8553 ,0.81278 ,4.86732 ,47.75819 
36 ,7.0638 ,0.81489 ,4.87075 ,47.79177 
37 ,7.2559 ,0.81677 ,4.83310 ,47.42240 
38 ,7.4319 ,0.81865 ,4.83310 ,47.42240 
39 ,7.6080 ,0.82036 ,4.80573 ,47.15378 
40 ,7.7997 ,0.82219 ,4.77835 ,46.88515 
41 ,7.9921 ,0.82413 ,4.75439 ,46.65010 
42 ,8.1842 ,0.82601 ,4.76124 ,46.71726 
43 ,8.3759 ,0.82794 ,4.74070 ,46.51579 
44 ,8.5525 ,0.82979 ,4.70648 ,46.18001 
45 ,8.7605 ,0.83175 ,4.70306 ,46.14643 
46 ,8.9365 ,0.83363 ,4.69279 ,46.04569 
47 ,9.1126 ,0.83540 ,4.64831 ,45.60918 
48 ,9.3044 ,0.83722 ,4.64831 ,45.60918 
49 ,9.4808 ,0.83906 ,4.63462 ,45.47486 
50 ,9.6730 ,0.84089 ,4.62435 ,45.37413 
51 ,9.8650 ,0.84283 ,4.60382 ,45.17266 
52 ,10.0406 ,0.84474 ,4.57302 ,44.87045 
53 ,10.2332 ,0.84656 ,4.54906 ,44.63541 
54 ,10.4409 ,0.84860 ,4.54564 ,44.60183 
55 ,10.6493 ,0.85066 ,4.52511 ,44.40036 
56 ,10.8250 ,0.85248 ,4.50115 ,44.16531 
57 ,11.0010 ,0.85427 ,4.49089 ,44.06457 
58 ,11.1933 ,0.85614 ,4.46693 ,43.82953 
59 ,11.4017 ,0.85824 ,4.44298 ,43.59448 
60 ,11.5937 ,0.86013 ,4.41560 ,43.32585 
61 ,11.8017 ,0.86219 ,4.41218 ,43.29227 
62 ,11.9938 ,0.86414 ,4.37795 ,42.95649 
63 ,12.2019 ,0.86623 ,4.36769 ,42.85576 
64 ,12.3939 ,0.86825 ,4.34373 ,42.62071 
65 ,12.5860 ,0.87012 ,4.33004 ,42.48639 
66 ,12.7782 ,0.87194 ,4.32662 ,42.45282 
67 ,12.9701 ,0.87388 ,4.29924 ,42.18419 
68 ,13.1620 ,0.87583 ,4.27529 ,41.94914 
69 ,13.3700 ,0.87781 ,4.25476 ,41.74767 
70 ,13.5625 ,0.87980 ,4.25476 ,41.74767 
71 ,13.7381 ,0.88172 ,4.21711 ,41.37831 
72 ,13.9144 ,0.88337 ,4.20000 ,41.21042 
73 ,14.1067 ,0.88528 ,4.19658 ,41.17684 
74 ,14.2983 ,0.88719 ,4.16920 ,40.90821 
75 ,14.4747 ,0.88899 ,4.16236 ,40.84106 
76 ,14.6508 ,0.89076 ,4.13156 ,40.53885 
77 ,14.8591 ,0.89280 ,4.12471 ,40.47170 
78 ,15.0509 ,0.89475 ,4.09734 ,40.20307 
79 ,15.2432 ,0.89659 ,4.08707 ,40.10233 
80 ,15.4349 ,0.89857 ,4.06654 ,39.90087 
81 ,15.6114 ,0.90036 ,4.04600 ,39.69940 
82 ,15.8033 ,0.90221 ,4.04600 ,39.69940 
83 ,15.9791 ,0.90406 ,4.02889 ,39.53150 
84 ,16.1391 ,0.90575 ,4.00152 ,39.26288 
85 ,16.3152 ,0.90747 ,3.96729 ,38.92709 
86 ,16.5072 ,0.90927 ,3.96387 ,38.89352 
87 ,16.6996 ,0.91121 ,3.95361 ,38.79278 
88 ,16.9399 ,0.91355 ,3.93307 ,38.59131 
89 ,17.1481 ,0.91565 ,3.90227 ,38.28911 
90 ,17.3400 ,0.91768 ,3.88858 ,38.15479 
91 ,17.5157 ,0.91946 ,3.86121 ,37.88617 
92 ,17.7082 ,0.92125 ,3.85094 ,37.78543 
93 ,17.9003 ,0.92325 ,3.84067 ,37.68470 
94 ,18.0921 ,0.92508 ,3.80987 ,37.38249 
95 ,18.2841 ,0.92703 ,3.80303 ,37.31534 
96 ,18.4606 ,0.92883 ,3.79619 ,37.24818 
97 ,18.6685 ,0.93088 ,3.76881 ,36.97955 
98 ,18.8445 ,0.93266 ,3.74485 ,36.74450 
99 ,19.0205 ,0.93441 ,3.74143 ,36.71093 
100 ,19.1966 ,0.93617 ,3.71748 ,36.47588 
101 ,19.4048 ,0.93820 ,3.70379 ,36.34157 
102 ,19.5970 ,0.94009 ,3.69010 ,36.20725 
103 ,19.7890 ,0.94211 ,3.65588 ,35.87147 
104 ,19.9812 ,0.94400 ,3.65930 ,35.90505 
105 ,20.1573 ,0.94579 ,3.62850 ,35.60284 
106 ,20.3654 ,0.94779 ,3.61481 ,35.46853 
107 ,20.5736 ,0.94993 ,3.57375 ,35.06559 
108 ,20.7810 ,0.95203 ,3.56348 ,34.96485 
109 ,20.9736 ,0.95388 ,3.55663 ,34.89770 
110 ,21.1492 ,0.95576 ,3.53952 ,34.72981 
111 ,21.3093 ,0.95744 ,3.52926 ,34.62907 
112 ,21.5014 ,0.95913 ,3.49846 ,34.32687 
113 ,21.6935 ,0.96104 ,3.48135 ,34.15898 
114 ,21.8855 ,0.96301 ,3.48135 ,34.15898 
115 ,22.0776 ,0.96495 ,3.46081 ,33.95751 
116 ,22.2696 ,0.96686 ,3.42317 ,33.58814 
117 ,22.4618 ,0.96876 ,3.43001 ,33.65530 
118 ,22.6539 ,0.97067 ,3.39579 ,33.31952 
119 ,22.8462 ,0.97257 ,3.39921 ,33.35310 
120 ,23.0541 ,0.97468 ,3.35473 ,32.91658 
121 ,23.2462 ,0.97659 ,3.34788 ,32.84942 
122 ,23.4386 ,0.97854 ,3.31366 ,32.51364 
123 ,23.6307 ,0.98043 ,3.31024 ,32.48006 
124 ,23.8067 ,0.98228 ,3.29313 ,32.31217 
125 ,23.9830 ,0.98401 ,3.28628 ,32.24501 
126 ,24.1748 ,0.98592 ,3.24522 ,31.84207 
127 ,24.3991 ,0.98815 ,3.23837 ,31.77492 
128 ,24.6071 ,0.99022 ,3.22811 ,31.67418 
129 ,24.7992 ,0.99217 ,3.19388 ,31.33840 
130 ,24.9911 ,0.99410 ,3.17335 ,31.13693 
131 ,25.1669 ,0.99586 ,3.17677 ,31.17051 
132 ,25.3750 ,0.99780 ,3.14597 ,30.86830 
133 ,25.5675 ,0.99977 ,3.13229 ,30.73399 
134 ,25.7756 ,1.00188 ,3.10491 ,30.46536 
135 ,25.9676 ,1.00388 ,3.09464 ,30.36463 
136 ,26.1437 ,1.00564 ,3.08438 ,30.26389 
137 ,26.3357 ,1.00749 ,3.05700 ,29.99527 
138 ,26.5439 ,1.00952 ,3.06384 ,30.06242 
139 ,26.7357 ,1.01149 ,3.02278 ,29.65948 
140 ,26.9278 ,1.01339 ,3.00567 ,29.49159 
141 ,27.1201 ,1.01533 ,2.99882 ,29.42444 
142 ,27.3119 ,1.01729 ,2.97829 ,29.22297 
143 ,27.5041 ,1.01915 ,2.96118 ,29.05507 
144 ,27.7123 ,1.02125 ,2.93722 ,28.82003 
145 ,27.8885 ,1.02307 ,2.91669 ,28.61856 
146 ,28.0806 ,1.02498 ,2.91327 ,28.58498 
147 ,28.2887 ,1.02694 ,2.88589 ,28.31635 
148 ,28.4807 ,1.02905 ,2.86878 ,28.14846 
149 ,28.6727 ,1.03089 ,2.85167 ,27.98057 
150 ,28.8649 ,1.03278 ,2.84482 ,27.91341 
151 ,29.0569 ,1.03469 ,2.82429 ,27.71194 
152 ,29.2491 ,1.03657 ,2.80034 ,27.47689 
153 ,29.4409 ,1.03852 ,2.79349 ,27.40974 
154 ,29.6332 ,1.04049 ,2.75585 ,27.04038 
155 ,29.8251 ,1.04237 ,2.75927 ,27.07395 
156 ,30.0174 ,1.04427 ,2.73189 ,26.80533 
157 ,30.2095 ,1.04625 ,2.71136 ,26.60386 
158 ,30.4016 ,1.04814 ,2.71136 ,26.60386 
159 ,30.5931 ,1.05007 ,2.67372 ,26.23450 
160 ,30.7693 ,1.05192 ,2.66003 ,26.10018 
161 ,30.9457 ,1.05362 ,2.65318 ,26.03303 
162 ,31.1538 ,1.05562 ,2.63265 ,25.83156 
163 ,31.3298 ,1.05754 ,2.62923 ,25.79798 
164 ,31.5220 ,1.05937 ,2.60527 ,25.56293 
165 ,31.7300 ,1.06139 ,2.58132 ,25.32788 
166 ,31.9382 ,1.06346 ,2.56763 ,25.19357 
167 ,32.1301 ,1.06543 ,2.55394 ,25.05926 
168 ,32.3223 ,1.06738 ,2.54025 ,24.92494 
169 ,32.4983 ,1.06912 ,2.51630 ,24.68989 
170 ,32.6902 ,1.07103 ,2.48550 ,24.38769 
171 ,32.8827 ,1.07291 ,2.49576 ,24.48842 
172 ,33.0907 ,1.07503 ,2.45812 ,24.11906 
173 ,33.2988 ,1.07710 ,2.44785 ,24.01833 
174 ,33.4906 ,1.07906 ,2.41705 ,23.71612 
175 ,33.6668 ,1.08085 ,2.41363 ,23.68255 
176 ,33.8423 ,1.08256 ,2.40336 ,23.58181 
177 ,34.0190 ,1.08436 ,2.39310 ,23.48108 
178 ,34.1947 ,1.08608 ,2.37599 ,23.31318 
179 ,34.3713 ,1.08793 ,2.35545 ,23.11171 
180 ,34.5794 ,1.08986 ,2.34177 ,22.97740 
181 ,34.7874 ,1.09200 ,2.31781 ,22.74235 
182 ,34.9633 ,1.09382 ,2.31097 ,22.67520 
183 ,35.1554 ,1.09562 ,2.28017 ,22.37299 
184 ,35.3473 ,1.09755 ,2.27674 ,22.33941 
185 ,35.5236 ,1.09938 ,2.26648 ,22.23868 
186 ,35.7156 ,1.10121 ,2.24937 ,22.07079 
187 ,35.9078 ,1.10321 ,2.22541 ,21.83574 
188 ,36.0995 ,1.10509 ,2.22541 ,21.83574 
189 ,36.2919 ,1.10704 ,2.17408 ,21.33206 
190 ,36.4842 ,1.10894 ,2.19803 ,21.56711 
191 ,36.6758 ,1.11086 ,2.15355 ,21.13059 
192 ,36.8522 ,1.11263 ,2.14670 ,21.06344 
193 ,37.0438 ,1.11464 ,2.13986 ,20.99628 
194 ,37.2363 ,1.11652 ,2.10564 ,20.66050 
195 ,37.4441 ,1.11850 ,2.10221 ,20.62692 
196 ,37.6364 ,1.12041 ,2.09537 ,20.55976 
197 ,37.8443 ,1.12249 ,2.07484 ,20.35829 
198 ,38.0206 ,1.12437 ,2.05773 ,20.19040 
199 ,38.2124 ,1.12634 ,2.03035 ,19.92178 
200 ,38.3889 ,1.12806 ,2.00982 ,19.72031 
201 ,38.5968 ,1.12998 ,2.01666 ,19.78746 
202 ,38.8049 ,1.13213 ,1.99270 ,19.55241 
203 ,38.9808 ,1.13396 ,1.98244 ,19.45168 
204 ,39.1572 ,1.13576 ,1.94479 ,19.08232 
205 ,39.3813 ,1.13777 ,1.94137 ,19.04874 
206 ,39.5734 ,1.13993 ,1.91742 ,18.81369 
207 ,39.7652 ,1.14172 ,1.92084 ,18.84727 
208 ,39.9576 ,1.14363 ,1.89004 ,18.54507 
209 ,40.1656 ,1.14570 ,1.88662 ,18.51149 
210 ,40.3577 ,1.14771 ,1.86608 ,18.31002 
211 ,40.5334 ,1.14952 ,1.83528 ,18.00781 
212 ,40.7257 ,1.15138 ,1.83528 ,18.00781 
213 ,40.9017 ,1.15313 ,1.82844 ,17.94066 
214 ,41.0940 ,1.15511 ,1.80106 ,17.67203 
215 ,41.2701 ,1.15686 ,1.78737 ,17.53772 
216 ,41.4621 ,1.15873 ,1.78395 ,17.50414 
217 ,41.6381 ,1.16054 ,1.75657 ,17.23551 
218 ,41.8304 ,1.16231 ,1.75315 ,17.20193 
219 ,42.0224 ,1.16432 ,1.73262 ,17.00046 
220 ,42.2145 ,1.16631 ,1.72920 ,16.96689 
221 ,42.3906 ,1.16807 ,1.70524 ,16.73184 
222 ,42.5987 ,1.17007 ,1.69840 ,16.66468 
223 ,42.7907 ,1.17206 ,1.66418 ,16.32890 
224 ,42.9989 ,1.17394 ,1.67444 ,16.42963 
225 ,43.2067 ,1.17610 ,1.66418 ,16.32890 
226 ,43.3990 ,1.17804 ,1.62995 ,15.99311 
227 ,43.6068 ,1.18014 ,1.61627 ,15.85880 
228 ,43.7834 ,1.18196 ,1.61627 ,15.85880 
229 ,43.9753 ,1.18384 ,1.58547 ,15.55660 
230 ,44.1669 ,1.18578 ,1.56493 ,15.35513 
231 ,44.3434 ,1.18753 ,1.55467 ,15.25439 
232 ,44.5194 ,1.18938 ,1.53756 ,15.08650 
233 ,44.6955 ,1.19110 ,1.54098 ,15.12008 
234 ,44.8716 ,1.19285 ,1.51702 ,14.88503 
235 ,45.0798 ,1.19473 ,1.51702 ,14.88503 
236 ,45.2719 ,1.19681 ,1.48622 ,14.58283 
237 ,45.4638 ,1.19869 ,1.48965 ,14.61640 
238 ,45.6556 ,1.20056 ,1.47938 ,14.51567 
239 ,45.8320 ,1.20250 ,1.45200 ,14.24704 
240 ,46.0241 ,1.20433 ,1.45200 ,14.24704 
241 ,46.2158 ,1.20623 ,1.41436 ,13.87768 
242 ,46.3920 ,1.20811 ,1.41778 ,13.91126 
243 ,46.6001 ,1.21011 ,1.41094 ,13.84410 
244 ,46.8080 ,1.21215 ,1.39383 ,13.67621 
245 ,47.0005 ,1.21406 ,1.36645 ,13.40759 
246 ,47.1766 ,1.21589 ,1.36303 ,13.37401 
247 ,47.3847 ,1.21790 ,1.34591 ,13.20612 
248 ,47.5608 ,1.21974 ,1.33223 ,13.07180 
249 ,47.7529 ,1.22161 ,1.30827 ,12.83675 
250 ,47.9447 ,1.22356 ,1.29116 ,12.66886 
251 ,48.1368 ,1.22550 ,1.27405 ,12.50097 
252 ,48.3292 ,1.22738 ,1.26378 ,12.40024 
253 ,48.5210 ,1.22929 ,1.26036 ,12.36666 
254 ,48.7134 ,1.23118 ,1.23983 ,12.16519 
255 ,48.8893 ,1.23305 ,1.22956 ,12.06445 
256 ,49.0815 ,1.23483 ,1.21929 ,11.96372 
257 ,49.2735 ,1.23687 ,1.19876 ,11.76225 
258 ,49.4492 ,1.23865 ,1.20218 ,11.79583 
259 ,49.6256 ,1.24031 ,1.19534 ,11.72867 
260 ,49.8498 ,1.24241 ,1.16796 ,11.46004 
261 ,50.0414 ,1.24445 ,1.15085 ,11.29215 
262 ,50.2339 ,1.24637 ,1.13716 ,11.15784 
263 ,50.4420 ,1.24841 ,1.12005 ,10.98995 
264 ,50.6340 ,1.25036 ,1.09952 ,10.78848 
265 ,50.8102 ,1.25222 ,1.09952 ,10.78848 
266 ,51.0182 ,1.25414 ,1.08583 ,10.65416 
267 ,51.2102 ,1.25627 ,1.06872 ,10.48627 
268 ,51.4024 ,1.25807 ,1.05503 ,10.35196 
269 ,51.6104 ,1.26014 ,1.05845 ,10.38554 
270 ,51.8026 ,1.26210 ,1.03792 ,10.18407 
271 ,51.9945 ,1.26396 ,1.02081 ,10.01618 
272 ,52.1708 ,1.26584 ,1.00712 ,9.88186 
273 ,52.3629 ,1.26768 ,0.99685 ,9.78113 
274 ,52.7947 ,1.27089 ,0.97974 ,9.61324 
275 ,52.9870 ,1.27386 ,0.94894 ,9.31103 
276 ,53.1793 ,1.27592 ,0.93525 ,9.17672 
277 ,53.3713 ,1.27775 ,0.93868 ,9.21030 
278 ,53.5473 ,1.27952 ,0.92157 ,9.04241 
279 ,53.7231 ,1.28132 ,0.91814 ,9.00883 
280 ,53.9314 ,1.28323 ,0.89419 ,8.77378 
281 ,54.1233 ,1.28529 ,0.87366 ,8.57231 
282 ,54.2997 ,1.28714 ,0.84628 ,8.30368 
283 ,54.4916 ,1.28895 ,0.85997 ,8.43800 
284 ,54.6837 ,1.29090 ,0.83601 ,8.20295 
285 ,54.8760 ,1.29275 ,0.81890 ,8.03506 
286 ,55.0840 ,1.29482 ,0.80521 ,7.90074 
287 ,55.2920 ,1.29693 ,0.80521 ,7.90074 
288 ,55.4839 ,1.29886 ,0.80863 ,7.93432 
289 ,55.6762 ,1.30075 ,0.78126 ,7.66570 
290 ,55.9004 ,1.30292 ,0.74704 ,7.32991 
291 ,56.0923 ,1.30492 ,0.75046 ,7.36349 
292 ,56.2846 ,1.30684 ,0.72992 ,7.16202 
293 ,56.4765 ,1.30880 ,0.71624 ,7.02771 
294 ,56.6685 ,1.31066 ,0.71966 ,7.06129 
295 ,56.8766 ,1.31273 ,0.67859 ,6.65835 
296 ,57.0688 ,1.31472 ,0.68201 ,6.69193 
297 ,57.2610 ,1.31661 ,0.66833 ,6.55761 
298 ,57.4690 ,1.31871 ,0.65806 ,6.45688 
299 ,57.6446 ,1.32049 ,0.64437 ,6.32256 
300 ,57.8532 ,1.32246 ,0.63068 ,6.18825 
301 ,58.0451 ,1.32448 ,0.61699 ,6.05394 
302 ,58.2373 ,1.32639 ,0.60330 ,5.91962 
303 ,58.4291 ,1.32831 ,0.60330 ,5.91962 
304 ,58.6055 ,1.33011 ,0.58277 ,5.71815 
305 ,58.7976 ,1.33197 ,0.57593 ,5.65100 
306 ,59.0216 ,1.33422 ,0.55197 ,5.41595 
307 ,59.2298 ,1.33632 ,0.55539 ,5.44953 
308 ,59.4217 ,1.33824 ,0.52802 ,5.18090 
309 ,59.6299 ,1.34030 ,0.53486 ,5.24806 
310 ,59.8215 ,1.34228 ,0.50406 ,4.94585 
311 ,60.0140 ,1.34416 ,0.50406 ,4.94585 
312 ,60.2059 ,1.34607 ,0.49380 ,4.84512 
313 ,60.3823 ,1.34787 ,0.46984 ,4.61007 
314 ,60.5901 ,1.34981 ,0.46642 ,4.57649 
315 ,60.7823 ,1.35181 ,0.44588 ,4.37502 
316 ,60.9741 ,1.35372 ,0.44588 ,4.37502 
317 ,61.1664 ,1.35561 ,0.43904 ,4.30787 
318 ,61.3745 ,1.35776 ,0.42877 ,4.20713 
319 ,61.5667 ,1.35965 ,0.39797 ,3.90493 
320 ,61.7908 ,1.36178 ,0.39455 ,3.87135 
321 ,61.9827 ,1.36382 ,0.36375 ,3.56914 
322 ,62.1747 ,1.36573 ,0.36375 ,3.56914 
323 ,62.3833 ,1.36783 ,0.33980 ,3.33410 
324 ,62.5749 ,1.36975 ,0.33980 ,3.33410 
325 ,62.7513 ,1.37155 ,0.32611 ,3.19978 
326 ,62.9432 ,1.37341 ,0.30900 ,3.03189 
327 ,63.1188 ,1.37532 ,0.29531 ,2.89758 
328 ,63.3114 ,1.37708 ,0.29531 ,2.89758 
329 ,63.5035 ,1.37917 ,0.26451 ,2.59537 
330 ,63.6795 ,1.38086 ,0.25767 ,2.52822 
331 ,63.8716 ,1.38273 ,0.26793 ,2.62895 
332 ,64.0795 ,1.38465 ,0.25082 ,2.46106 
333 ,64.2718 ,1.38675 ,0.24055 ,2.36032 
334 ,64.4475 ,1.38853 ,0.22687 ,2.22601 
335 ,64.6239 ,1.39032 ,0.22002 ,2.15885 
336 ,64.7999 ,1.39205 ,0.19607 ,1.92381 
337 ,64.9921 ,1.39395 ,0.20976 ,2.05812 
338 ,65.1840 ,1.39589 ,0.19264 ,1.89023 
339 ,65.3922 ,1.39788 ,0.17553 ,1.72234 
340 ,65.5842 ,1.39979 ,0.15842 ,1.55445 
341 ,65.7605 ,1.40167 ,0.15158 ,1.48729 
342 ,65.9364 ,1.40344 ,0.15158 ,1.48729 
343 ,66.1125 ,1.40513 ,0.12762 ,1.25224 
344 ,66.2886 ,1.40692 ,0.13447 ,1.31940 
345 ,66.4808 ,1.40880 ,0.10367 ,1.01719 
346 ,66.6887 ,1.41088 ,0.10709 ,1.05077 
347 ,66.9123 ,1.41306 ,0.07971 ,0.78214 
348 ,67.1049 ,1.41500 ,0.06945 ,0.68141 
349 ,67.2970 ,1.41692 ,0.05576 ,0.54710 
350 ,67.4889 ,1.41883 ,0.06602 ,0.64783 
351 ,67.6652 ,1.42067 ,0.04891 ,0.47994 
352 ,67.8732 ,1.42275 ,0.04207 ,0.41278 
353 ,68.0492 ,1.42453 ,0.03865 ,0.37920 
354 ,68.2253 ,1.42629 ,0.01469 ,0.14416 
355 ,68.4175 ,1.42816 ,0.00100 ,0.00984 
356 ,68.5935 ,1.43001 ,-0.00242 ,-0.02373 
357 ,68.7856 ,1.43182 ,-0.02637 ,-0.25878 
358 ,68.9778 ,1.43374 ,-0.02637 ,-0.25878 
359 ,69.1697 ,1.43568 ,-0.04348 ,-0.42667 
360 ,69.3618 ,1.43762 ,-0.05033 ,-0.49383 
361 ,69.5696 ,1.43966 ,-0.05033 ,-0.49383 
362 ,69.7620 ,1.44158 ,-0.07086 ,-0.69530 
363 ,69.9379 ,1.44340 ,-0.09482 ,-0.93035 
364 ,70.1300 ,1.44530 ,-0.07771 ,-0.76246 
365 ,70.3223 ,1.44719 ,-0.11193 ,-1.09824 
366 ,70.4984 ,1.44900 ,-0.12219 ,-1.19898 
367 ,70.6740 ,1.45079 ,-0.13246 ,-1.29971 
368 ,70.8665 ,1.45261 ,-0.11535 ,-1.13182 
369 ,71.0744 ,1.45473 ,-0.13246 ,-1.29971 
370 ,71.2507 ,1.45652 ,-0.14957 ,-1.46760 
371 ,71.4427 ,1.45843 ,-0.16668 ,-1.63549 
372 ,71.6347 ,1.46031 ,-0.16326 ,-1.60191 
373 ,71.8103 ,1.46216 ,-0.17353 ,-1.70265 
374 ,71.9868 ,1.46384 ,-0.19064 ,-1.87054 
375 ,72.1788 ,1.46572 ,-0.21117 ,-2.07201 
376 ,72.3711 ,1.46770 ,-0.20433 ,-2.00485 
377 ,72.5472 ,1.46952 ,-0.20775 ,-2.03843 
378 ,72.7394 ,1.47140 ,-0.23513 ,-2.30706 
379 ,72.9308 ,1.47322 ,-0.23170 ,-2.27348 
380 ,73.1074 ,1.47510 ,-0.25224 ,-2.47495 
381 ,73.2994 ,1.47703 ,-0.26935 ,-2.64284 
382 ,73.4913 ,1.47885 ,-0.26593 ,-2.60926 
383 ,73.6673 ,1.48070 ,-0.27619 ,-2.71000 
384 ,73.8597 ,1.48254 ,-0.29330 ,-2.87789 
385 ,74.0518 ,1.48443 ,-0.28646 ,-2.81073 
386 ,74.2600 ,1.48658 ,-0.31384 ,-3.07936 
387 ,74.4520 ,1.48850 ,-0.31041 ,-3.04578 
388 ,74.6440 ,1.49042 ,-0.33095 ,-3.24725 
389 ,74.8361 ,1.49229 ,-0.33095 ,-3.24725 
390 ,75.0438 ,1.49436 ,-0.35148 ,-3.44872 
391 ,75.2202 ,1.49621 ,-0.36859 ,-3.61661 
392 ,75.4281 ,1.49822 ,-0.36859 ,-3.61661 
393 ,75.6203 ,1.50017 ,-0.39255 ,-3.85166 
394 ,75.7965 ,1.50198 ,-0.39597 ,-3.88524 
395 ,76.0044 ,1.50395 ,-0.40623 ,-3.98597 
396 ,76.1806 ,1.50586 ,-0.40623 ,-3.98597 
397 ,76.3888 ,1.50773 ,-0.40966 ,-4.01955 
398 ,76.5805 ,1.50977 ,-0.42335 ,-4.15387 
399 ,76.7884 ,1.51178 ,-0.42677 ,-4.18744 
400 ,76.9805 ,1.51372 ,-0.44388 ,-4.35534 
401 ,77.1728 ,1.51571 ,-0.44388 ,-4.35534 
402 ,77.3812 ,1.51768 ,-0.46441 ,-4.55681 
403 ,77.5890 ,1.51987 ,-0.46441 ,-4.55681 
404 ,77.7813 ,1.52178 ,-0.48494 ,-4.75828 
405 ,77.9891 ,1.52373 ,-0.48837 ,-4.79185 
406 ,78.1654 ,1.52561 ,-0.48494 ,-4.75828 
407 ,78.3415 ,1.52743 ,-0.52601 ,-5.16121 
408 ,78.5176 ,1.52915 ,-0.52259 ,-5.12764 
409 ,78.7096 ,1.53099 ,-0.51917 ,-5.09406 
410 ,78.9017 ,1.53294 ,-0.55339 ,-5.42984 
411 ,79.0777 ,1.53479 ,-0.55681 ,-5.46342 
412 ,79.2700 ,1.53663 ,-0.56365 ,-5.53058 
413 ,79.4620 ,1.53857 ,-0.58077 ,-5.69847 
414 ,79.6702 ,1.54069 ,-0.57392 ,-5.63131 
415 ,79.8782 ,1.54262 ,-0.59103 ,-5.79920 
416 ,80.0704 ,1.54466 ,-0.58077 ,-5.69847 
417 ,80.2623 ,1.54655 ,-0.61499 ,-6.03425 
418 ,80.4381 ,1.54836 ,-0.61499 ,-6.03425 
419 ,80.6305 ,1.55026 ,-0.61499 ,-6.03425 
420 ,80.8227 ,1.55215 ,-0.63210 ,-6.20214 
421 ,81.0143 ,1.55403 ,-0.63210 ,-6.20214 
422 ,81.2063 ,1.55604 ,-0.63552 ,-6.23572 
423 ,81.3825 ,1.55781 ,-0.66974 ,-6.57150 
424 ,81.5585 ,1.55957 ,-0.66632 ,-6.53793 
425 ,81.7345 ,1.56138 ,-0.67316 ,-6.60508 
426 ,81.9271 ,1.56313 ,-0.66974 ,-6.57150 
427 ,82.1189 ,1.56508 ,-0.69712 ,-6.84013 
428 ,82.2954 ,1.56692 ,-0.69370 ,-6.80655 
429 ,82.4871 ,1.56885 ,-0.70739 ,-6.94086 
430 ,82.6794 ,1.57084 ,-0.71423 ,-7.00802 
431 ,82.8555 ,1.57254 ,-0.72450 ,-7.10876 
432 ,83.0476 ,1.57441 ,-0.71765 ,-7.04160 
433 ,83.2397 ,1.57627 ,-0.74161 ,-7.27665 
434 ,83.4477 ,1.57834 ,-0.74503 ,-7.31023 
435 ,83.6399 ,1.58027 ,-0.76214 ,-7.47812 
436 ,83.8320 ,1.58226 ,-0.75530 ,-7.41096 
437 ,84.0239 ,1.58417 ,-0.77583 ,-7.61243 
438 ,84.2002 ,1.58598 ,-0.79294 ,-7.78032 
439 ,84.3921 ,1.58783 ,-0.78610 ,-7.71317 
440 ,84.5844 ,1.58973 ,-0.79636 ,-7.81390 
441 ,84.7760 ,1.59174 ,-0.82716 ,-8.11611 
442 ,84.9683 ,1.59362 ,-0.81347 ,-7.98179 
443 ,85.1446 ,1.59540 ,-0.83058 ,-8.14968 
444 ,85.3365 ,1.59726 ,-0.82374 ,-8.08253 
445 ,85.5444 ,1.59930 ,-0.83401 ,-8.18326 
446 ,85.7205 ,1.60118 ,-0.85454 ,-8.38473 
447 ,85.8963 ,1.60292 ,-0.85796 ,-8.41831 
448 ,86.0886 ,1.60480 ,-0.86823 ,-8.51904 
449 ,86.2646 ,1.60659 ,-0.87507 ,-8.58620 
450 ,86.4409 ,1.60837 ,-0.88876 ,-8.72051 
451 ,86.6171 ,1.61012 ,-0.88534 ,-8.68694 
452 ,86.8251 ,1.61216 ,-0.90245 ,-8.85483 
453 ,87.0170 ,1.61408 ,-0.89903 ,-8.82125 
454 ,87.2092 ,1.61605 ,-0.91272 ,-8.95556 
455 ,87.4014 ,1.61786 ,-0.92640 ,-9.08988 
456 ,87.6092 ,1.62003 ,-0.93325 ,-9.15703 
457 ,87.7854 ,1.62176 ,-0.95720 ,-9.39208 
458 ,87.9615 ,1.62360 ,-0.94694 ,-9.29135 
459 ,88.1216 ,1.62526 ,-0.96405 ,-9.45924 
460 ,88.2978 ,1.62692 ,-0.96063 ,-9.42566 
461 ,88.4897 ,1.62876 ,-0.97089 ,-9.52639 
462 ,88.6980 ,1.63087 ,-0.98800 ,-9.69429 
