Data stamp = , 26-04-2022 22:32:44 072

Calibration Values: 
Slope = , 26.54 , g/V 
Offset Voltage at no contact = , -0.501760 , V 

No , Time , Stage Position ,   Mass , Force 
   ,  (s) ,      (mm)      ,   (g)  , (mN)  

1 ,0.0000 ,0.74945 ,5.32589 ,52.25768 
2 ,0.2127 ,0.74955 ,5.33274 ,52.32484 
3 ,0.6290 ,0.75086 ,5.31563 ,52.15694 
4 ,0.8531 ,0.75271 ,5.32589 ,52.25768 
5 ,1.0450 ,0.75461 ,5.31221 ,52.12337 
6 ,1.2375 ,0.75649 ,5.31563 ,52.15694 
7 ,1.4296 ,0.75837 ,5.32589 ,52.25768 
8 ,1.6378 ,0.76052 ,5.31905 ,52.19052 
9 ,1.8298 ,0.76251 ,5.30194 ,52.02263 
10 ,2.0378 ,0.76456 ,5.27114 ,51.72043 
11 ,2.2296 ,0.76651 ,5.26087 ,51.61969 
12 ,2.4380 ,0.76851 ,5.23007 ,51.31749 
13 ,2.6301 ,0.77045 ,5.21639 ,51.18317 
14 ,2.8223 ,0.77236 ,5.18559 ,50.88097 
15 ,3.0141 ,0.77430 ,5.17532 ,50.78023 
16 ,3.2219 ,0.77645 ,5.13083 ,50.34372 
17 ,3.4145 ,0.77833 ,5.14452 ,50.47803 
18 ,3.6225 ,0.78042 ,5.08977 ,49.94078 
19 ,3.7988 ,0.78226 ,5.07608 ,49.80646 
20 ,3.9747 ,0.78400 ,5.07608 ,49.80646 
21 ,4.1668 ,0.78584 ,5.04528 ,49.50426 
22 ,4.3749 ,0.78791 ,5.04870 ,49.53784 
23 ,4.5831 ,0.78992 ,5.01106 ,49.16848 
24 ,4.7908 ,0.79205 ,5.00421 ,49.10132 
25 ,4.9671 ,0.79386 ,4.98026 ,48.86627 
26 ,5.1591 ,0.79574 ,4.95288 ,48.59764 
27 ,5.3350 ,0.79766 ,4.94261 ,48.49691 
28 ,5.5271 ,0.79948 ,4.92892 ,48.36260 
29 ,5.7193 ,0.80141 ,4.89470 ,48.02681 
30 ,5.8952 ,0.80317 ,4.87759 ,47.85892 
31 ,6.0873 ,0.80505 ,4.86390 ,47.72461 
32 ,6.2797 ,0.80699 ,4.83995 ,47.48956 
33 ,6.4713 ,0.80896 ,4.84337 ,47.52314 
34 ,6.6638 ,0.81078 ,4.80573 ,47.15378 
35 ,6.8717 ,0.81286 ,4.78177 ,46.91873 
36 ,7.0480 ,0.81467 ,4.77493 ,46.85157 
37 ,7.2398 ,0.81655 ,4.75439 ,46.65010 
38 ,7.4480 ,0.81868 ,4.73728 ,46.48221 
39 ,7.6241 ,0.82041 ,4.72017 ,46.31432 
40 ,7.8002 ,0.82222 ,4.68595 ,45.97854 
41 ,7.9922 ,0.82412 ,4.68253 ,45.94496 
42 ,8.1845 ,0.82598 ,4.66199 ,45.74349 
43 ,8.3763 ,0.82792 ,4.64146 ,45.54202 
44 ,8.5685 ,0.82983 ,4.63119 ,45.44128 
45 ,8.7447 ,0.83170 ,4.60040 ,45.13908 
46 ,8.9367 ,0.83350 ,4.59355 ,45.07192 
47 ,9.1288 ,0.83541 ,4.59013 ,45.03835 
48 ,9.3209 ,0.83738 ,4.54564 ,44.60183 
49 ,9.5130 ,0.83930 ,4.55249 ,44.66898 
50 ,9.7048 ,0.84121 ,4.52511 ,44.40036 
51 ,9.9128 ,0.84334 ,4.49773 ,44.13173 
52 ,10.1051 ,0.84524 ,4.48404 ,43.99742 
53 ,10.2812 ,0.84704 ,4.46009 ,43.76237 
54 ,10.4733 ,0.84890 ,4.45324 ,43.69521 
55 ,10.6652 ,0.85080 ,4.43613 ,43.52732 
56 ,10.8411 ,0.85263 ,4.40533 ,43.22512 
57 ,11.0495 ,0.85455 ,4.40875 ,43.25870 
58 ,11.2576 ,0.85671 ,4.38822 ,43.05723 
59 ,11.4498 ,0.85863 ,4.37453 ,42.92291 
60 ,11.6578 ,0.86073 ,4.34373 ,42.62071 
61 ,11.8500 ,0.86267 ,4.33347 ,42.51997 
62 ,12.0421 ,0.86459 ,4.29924 ,42.18419 
63 ,12.2502 ,0.86669 ,4.28898 ,42.08345 
64 ,12.4421 ,0.86865 ,4.26502 ,41.84841 
65 ,12.6180 ,0.87035 ,4.24791 ,41.68051 
66 ,12.8261 ,0.87236 ,4.21711 ,41.37831 
67 ,13.0019 ,0.87429 ,4.21027 ,41.31115 
68 ,13.1945 ,0.87605 ,4.20685 ,41.27758 
69 ,13.4023 ,0.87818 ,4.15894 ,40.80748 
70 ,13.5946 ,0.88012 ,4.16578 ,40.87464 
71 ,13.7707 ,0.88188 ,4.15209 ,40.74032 
72 ,13.9627 ,0.88375 ,4.12129 ,40.43812 
73 ,14.1548 ,0.88565 ,4.11787 ,40.40454 
74 ,14.3470 ,0.88758 ,4.09049 ,40.13591 
75 ,14.5390 ,0.88956 ,4.06312 ,39.86729 
76 ,14.7470 ,0.89162 ,4.04600 ,39.69940 
77 ,14.9231 ,0.89342 ,4.03574 ,39.59866 
78 ,15.1150 ,0.89527 ,4.02547 ,39.49793 
79 ,15.3073 ,0.89727 ,4.01178 ,39.36361 
80 ,15.5150 ,0.89925 ,3.99125 ,39.16214 
81 ,15.9632 ,0.90242 ,3.96045 ,38.85994 
82 ,16.1392 ,0.90565 ,3.92623 ,38.52415 
83 ,16.3314 ,0.90745 ,3.90570 ,38.32268 
84 ,16.5398 ,0.90954 ,3.89543 ,38.22195 
85 ,16.7155 ,0.91132 ,3.86805 ,37.95332 
86 ,16.9078 ,0.91316 ,3.86463 ,37.91975 
87 ,17.1158 ,0.91527 ,3.83725 ,37.65112 
88 ,17.3078 ,0.91718 ,3.83383 ,37.61754 
89 ,17.5162 ,0.91919 ,3.77908 ,37.08029 
90 ,17.7083 ,0.92119 ,3.79276 ,37.21460 
91 ,17.9004 ,0.92319 ,3.75512 ,36.84524 
92 ,18.0926 ,0.92508 ,3.74143 ,36.71093 
93 ,18.3005 ,0.92712 ,3.71405 ,36.44230 
94 ,18.4926 ,0.92899 ,3.70721 ,36.37514 
95 ,18.6846 ,0.93096 ,3.68668 ,36.17367 
96 ,18.8608 ,0.93281 ,3.66957 ,36.00578 
97 ,19.0530 ,0.93463 ,3.65930 ,35.90505 
98 ,19.2610 ,0.93664 ,3.63877 ,35.70358 
99 ,19.4526 ,0.93872 ,3.62166 ,35.53569 
100 ,19.6451 ,0.94056 ,3.60454 ,35.36779 
101 ,19.8369 ,0.94251 ,3.57717 ,35.09917 
102 ,20.0292 ,0.94438 ,3.58059 ,35.13275 
103 ,20.2213 ,0.94627 ,3.53952 ,34.72981 
104 ,20.4295 ,0.94830 ,3.54637 ,34.79696 
105 ,20.6215 ,0.95033 ,3.49504 ,34.29329 
106 ,20.7976 ,0.95221 ,3.49504 ,34.29329 
107 ,21.0055 ,0.95415 ,3.47108 ,34.05824 
108 ,21.1978 ,0.95604 ,3.45739 ,33.92393 
109 ,21.3898 ,0.95798 ,3.45055 ,33.85677 
110 ,21.5656 ,0.95989 ,3.41975 ,33.55457 
111 ,21.7741 ,0.96186 ,3.39921 ,33.35310 
112 ,21.9659 ,0.96385 ,3.36842 ,33.05089 
113 ,22.1581 ,0.96570 ,3.36842 ,33.05089 
114 ,22.3502 ,0.96763 ,3.35473 ,32.91658 
115 ,22.5260 ,0.96942 ,3.32393 ,32.61437 
116 ,22.7180 ,0.97126 ,3.31024 ,32.48006 
117 ,22.9105 ,0.97321 ,3.31024 ,32.48006 
118 ,23.1185 ,0.97527 ,3.28286 ,32.21143 
119 ,23.2945 ,0.97715 ,3.27259 ,32.11070 
120 ,23.4706 ,0.97888 ,3.25891 ,31.97639 
121 ,23.6629 ,0.98072 ,3.21100 ,31.50629 
122 ,23.8547 ,0.98263 ,3.20757 ,31.47271 
123 ,24.0308 ,0.98445 ,3.20073 ,31.40555 
124 ,24.2386 ,0.98646 ,3.16993 ,31.10335 
125 ,24.4151 ,0.98830 ,3.15966 ,31.00262 
126 ,24.6226 ,0.99035 ,3.13913 ,30.80115 
127 ,24.8312 ,0.99242 ,3.13229 ,30.73399 
128 ,25.0233 ,0.99432 ,3.09806 ,30.39821 
129 ,25.2313 ,0.99643 ,3.10833 ,30.49894 
130 ,25.4234 ,0.99844 ,3.06042 ,30.02884 
131 ,25.5994 ,1.00013 ,3.03989 ,29.82737 
132 ,25.7917 ,1.00197 ,3.04331 ,29.86095 
133 ,25.9671 ,1.00388 ,3.00909 ,29.52517 
134 ,26.1597 ,1.00571 ,3.00224 ,29.45801 
135 ,26.3678 ,1.00777 ,2.98855 ,29.32370 
136 ,26.5601 ,1.00965 ,2.97144 ,29.15581 
137 ,26.7679 ,1.01173 ,2.95776 ,29.02150 
138 ,26.9438 ,1.01364 ,2.93380 ,28.78645 
139 ,27.1358 ,1.01544 ,2.91669 ,28.61856 
140 ,27.3117 ,1.01730 ,2.90985 ,28.55140 
141 ,27.5041 ,1.01912 ,2.88589 ,28.31635 
142 ,27.6643 ,1.02090 ,2.85509 ,28.01415 
143 ,27.8406 ,1.02255 ,2.84482 ,27.91341 
144 ,28.0325 ,1.02440 ,2.84140 ,27.87983 
145 ,28.2406 ,1.02645 ,2.82771 ,27.74552 
146 ,28.4326 ,1.02847 ,2.81402 ,27.61121 
147 ,28.6086 ,1.03022 ,2.80718 ,27.54405 
148 ,28.8328 ,1.03230 ,2.77638 ,27.24185 
149 ,29.0250 ,1.03434 ,2.75585 ,27.04038 
150 ,29.2326 ,1.03637 ,2.74900 ,26.97322 
151 ,29.4248 ,1.03833 ,2.71136 ,26.60386 
152 ,29.6170 ,1.04020 ,2.71478 ,26.63744 
153 ,29.7932 ,1.04204 ,2.69767 ,26.46954 
154 ,30.0012 ,1.04405 ,2.67372 ,26.23450 
155 ,30.1774 ,1.04596 ,2.66003 ,26.10018 
156 ,30.3531 ,1.04771 ,2.64292 ,25.93229 
157 ,30.5452 ,1.04951 ,2.61896 ,25.69724 
158 ,30.7531 ,1.05147 ,2.61212 ,25.63009 
159 ,30.9617 ,1.05355 ,2.58132 ,25.32788 
160 ,31.1536 ,1.05565 ,2.58132 ,25.32788 
161 ,31.3618 ,1.05756 ,2.55736 ,25.09283 
162 ,31.5537 ,1.05960 ,2.56078 ,25.12641 
163 ,31.7459 ,1.06149 ,2.52314 ,24.75705 
164 ,31.9379 ,1.06343 ,2.51630 ,24.68989 
165 ,32.1141 ,1.06525 ,2.50261 ,24.55558 
166 ,32.3219 ,1.06727 ,2.47181 ,24.25338 
167 ,32.5138 ,1.06918 ,2.46839 ,24.21980 
168 ,32.7221 ,1.07117 ,2.44443 ,23.98475 
169 ,32.9145 ,1.07327 ,2.43759 ,23.91759 
170 ,33.1226 ,1.07534 ,2.41363 ,23.68255 
171 ,33.3146 ,1.07719 ,2.40679 ,23.61539 
172 ,33.5228 ,1.07929 ,2.36572 ,23.21245 
173 ,33.7307 ,1.08139 ,2.37599 ,23.31318 
174 ,33.9390 ,1.08340 ,2.34177 ,22.97740 
175 ,34.1470 ,1.08554 ,2.31097 ,22.67520 
176 ,34.3551 ,1.08753 ,2.31439 ,22.70877 
177 ,34.5472 ,1.08951 ,2.27674 ,22.33941 
178 ,34.7552 ,1.09161 ,2.28017 ,22.37299 
179 ,34.9473 ,1.09352 ,2.25963 ,22.17152 
180 ,35.1394 ,1.09540 ,2.25621 ,22.13794 
181 ,35.3312 ,1.09747 ,2.22541 ,21.83574 
182 ,35.5236 ,1.09923 ,2.20830 ,21.66785 
183 ,35.7312 ,1.10139 ,2.20830 ,21.66785 
184 ,35.9238 ,1.10330 ,2.17066 ,21.29849 
185 ,36.1478 ,1.10547 ,2.16381 ,21.23133 
186 ,36.3556 ,1.10758 ,2.15697 ,21.16417 
187 ,36.5638 ,1.10956 ,2.11248 ,20.72766 
188 ,36.7563 ,1.11156 ,2.10221 ,20.62692 
189 ,36.9641 ,1.11367 ,2.08168 ,20.42545 
190 ,37.1720 ,1.11579 ,2.09195 ,20.52619 
191 ,37.3642 ,1.11770 ,2.06115 ,20.22398 
192 ,37.5563 ,1.11964 ,2.06115 ,20.22398 
193 ,37.7644 ,1.12169 ,2.02693 ,19.88820 
194 ,37.9560 ,1.12360 ,2.03035 ,19.92178 
195 ,38.1323 ,1.12544 ,2.01666 ,19.78746 
196 ,38.3086 ,1.12716 ,1.98586 ,19.48526 
197 ,38.5004 ,1.12905 ,1.98928 ,19.51884 
198 ,38.7088 ,1.13111 ,1.95164 ,19.14948 
199 ,38.9168 ,1.13307 ,1.95164 ,19.14948 
200 ,39.1250 ,1.13532 ,1.91742 ,18.81369 
201 ,39.3170 ,1.13724 ,1.92084 ,18.84727 
202 ,39.5092 ,1.13920 ,1.89688 ,18.61222 
203 ,39.7012 ,1.14111 ,1.87635 ,18.41075 
204 ,39.8771 ,1.14283 ,1.87635 ,18.41075 
205 ,40.0690 ,1.14474 ,1.85240 ,18.17570 
206 ,40.2774 ,1.14673 ,1.82844 ,17.94066 
207 ,40.4853 ,1.14892 ,1.80449 ,17.70561 
208 ,40.6775 ,1.15077 ,1.82160 ,17.87350 
209 ,40.8536 ,1.15259 ,1.80106 ,17.67203 
210 ,41.0458 ,1.15449 ,1.77026 ,17.36983 
211 ,41.2378 ,1.15638 ,1.77711 ,17.43698 
212 ,41.4458 ,1.15851 ,1.74289 ,17.10120 
213 ,41.6379 ,1.16039 ,1.74631 ,17.13478 
214 ,41.8298 ,1.16234 ,1.72235 ,16.89973 
215 ,42.0378 ,1.16443 ,1.70524 ,16.73184 
216 ,42.2297 ,1.16634 ,1.68813 ,16.56395 
217 ,42.4222 ,1.16827 ,1.69155 ,16.59752 
218 ,42.6461 ,1.17053 ,1.65391 ,16.22816 
219 ,42.8547 ,1.17256 ,1.65733 ,16.26174 
220 ,43.0627 ,1.17466 ,1.62995 ,15.99311 
221 ,43.2548 ,1.17655 ,1.62995 ,15.99311 
222 ,43.4467 ,1.17848 ,1.60258 ,15.72449 
223 ,43.6550 ,1.18056 ,1.59916 ,15.69091 
224 ,43.8467 ,1.18247 ,1.57178 ,15.42228 
225 ,44.0552 ,1.18457 ,1.56836 ,15.38871 
226 ,44.2630 ,1.18664 ,1.54782 ,15.18724 
227 ,44.4551 ,1.18852 ,1.54098 ,15.12008 
228 ,44.6311 ,1.19042 ,1.52387 ,14.95219 
229 ,44.8233 ,1.19224 ,1.51702 ,14.88503 
230 ,45.0154 ,1.19419 ,1.50676 ,14.78430 
231 ,45.1915 ,1.19595 ,1.47938 ,14.51567 
232 ,45.3995 ,1.19804 ,1.46569 ,14.38136 
233 ,45.6074 ,1.20002 ,1.44516 ,14.17989 
234 ,45.8156 ,1.20216 ,1.44516 ,14.17989 
235 ,46.0235 ,1.20428 ,1.42462 ,13.97842 
236 ,46.1997 ,1.20608 ,1.43147 ,14.04557 
237 ,46.3758 ,1.20783 ,1.41094 ,13.84410 
238 ,46.5675 ,1.20967 ,1.38014 ,13.54190 
239 ,46.7441 ,1.21149 ,1.36987 ,13.44116 
240 ,46.9361 ,1.21334 ,1.38014 ,13.54190 
241 ,47.1282 ,1.21527 ,1.35276 ,13.27327 
242 ,47.3362 ,1.21737 ,1.36645 ,13.40759 
243 ,47.5283 ,1.21925 ,1.31854 ,12.93749 
244 ,47.7365 ,1.22133 ,1.31854 ,12.93749 
245 ,47.9446 ,1.22344 ,1.29458 ,12.70244 
246 ,48.1206 ,1.22527 ,1.29458 ,12.70244 
247 ,48.2967 ,1.22701 ,1.28089 ,12.56813 
248 ,48.4888 ,1.22888 ,1.25352 ,12.29950 
249 ,48.6804 ,1.23089 ,1.25352 ,12.29950 
250 ,48.8727 ,1.23273 ,1.23641 ,12.13161 
251 ,49.0650 ,1.23464 ,1.21587 ,11.93014 
252 ,49.2412 ,1.23646 ,1.20218 ,11.79583 
253 ,49.4492 ,1.23849 ,1.18850 ,11.66151 
254 ,49.6412 ,1.24041 ,1.20218 ,11.79583 
255 ,49.8333 ,1.24230 ,1.15427 ,11.32573 
256 ,50.0255 ,1.24421 ,1.16112 ,11.39289 
257 ,50.2174 ,1.24615 ,1.15770 ,11.35931 
258 ,50.4096 ,1.24809 ,1.12347 ,11.02353 
259 ,50.6017 ,1.24999 ,1.13032 ,11.09068 
260 ,50.7938 ,1.25192 ,1.09952 ,10.78848 
261 ,51.0018 ,1.25401 ,1.10294 ,10.82206 
262 ,51.2098 ,1.25611 ,1.06872 ,10.48627 
263 ,51.4021 ,1.25799 ,1.08241 ,10.62059 
264 ,51.6100 ,1.25998 ,1.05503 ,10.35196 
265 ,51.8180 ,1.26219 ,1.05503 ,10.35196 
266 ,51.9777 ,1.26393 ,1.03450 ,10.15049 
267 ,52.1702 ,1.26567 ,1.00712 ,9.88186 
268 ,52.3619 ,1.26759 ,1.01054 ,9.91544 
269 ,52.5548 ,1.26949 ,0.98317 ,9.64682 
270 ,52.7462 ,1.27146 ,0.97290 ,9.54608 
271 ,52.9386 ,1.27334 ,0.97632 ,9.57966 
272 ,53.1306 ,1.27532 ,0.94894 ,9.31103 
273 ,53.3228 ,1.27729 ,0.94210 ,9.24388 
274 ,53.5148 ,1.27914 ,0.92841 ,9.10956 
275 ,53.7068 ,1.28108 ,0.90788 ,8.90809 
276 ,53.9149 ,1.28312 ,0.90103 ,8.84094 
277 ,54.0906 ,1.28492 ,0.89077 ,8.74020 
278 ,54.2830 ,1.28685 ,0.88734 ,8.70662 
279 ,54.4911 ,1.28889 ,0.85312 ,8.37084 
280 ,54.6831 ,1.29078 ,0.85312 ,8.37084 
281 ,54.8594 ,1.29263 ,0.85654 ,8.40442 
282 ,55.0515 ,1.29454 ,0.81890 ,8.03506 
283 ,55.2435 ,1.29644 ,0.82575 ,8.10221 
284 ,55.4196 ,1.29819 ,0.82232 ,8.06864 
285 ,55.6114 ,1.30008 ,0.78468 ,7.69927 
286 ,55.8036 ,1.30199 ,0.79495 ,7.80001 
287 ,55.9955 ,1.30390 ,0.77441 ,7.59854 
288 ,56.2196 ,1.30606 ,0.76072 ,7.46423 
289 ,56.4120 ,1.30813 ,0.75046 ,7.36349 
290 ,56.6198 ,1.31020 ,0.74361 ,7.29633 
291 ,56.8280 ,1.31219 ,0.71624 ,7.02771 
292 ,57.0200 ,1.31413 ,0.71624 ,7.02771 
293 ,57.2123 ,1.31610 ,0.68201 ,6.69193 
294 ,57.4042 ,1.31798 ,0.69228 ,6.79266 
295 ,57.5960 ,1.31989 ,0.67175 ,6.59119 
296 ,57.7883 ,1.32181 ,0.66148 ,6.49046 
297 ,57.9807 ,1.32380 ,0.65121 ,6.38972 
298 ,58.1725 ,1.32569 ,0.63068 ,6.18825 
299 ,58.3487 ,1.32748 ,0.61699 ,6.05394 
300 ,58.5409 ,1.32938 ,0.62042 ,6.08752 
301 ,58.7490 ,1.33145 ,0.59646 ,5.85247 
302 ,58.9410 ,1.33340 ,0.60330 ,5.91962 
303 ,59.1491 ,1.33537 ,0.56908 ,5.58384 
304 ,59.3573 ,1.33750 ,0.56224 ,5.51668 
305 ,59.5649 ,1.33957 ,0.54855 ,5.38237 
306 ,59.7412 ,1.34140 ,0.55882 ,5.48311 
307 ,59.9491 ,1.34344 ,0.51775 ,5.08017 
308 ,60.1414 ,1.34537 ,0.51775 ,5.08017 
309 ,60.3336 ,1.34728 ,0.49380 ,4.84512 
310 ,60.5413 ,1.34941 ,0.49722 ,4.87870 
311 ,60.7335 ,1.35130 ,0.46642 ,4.57649 
312 ,60.9418 ,1.35325 ,0.48011 ,4.71081 
313 ,61.1499 ,1.35543 ,0.43904 ,4.30787 
314 ,61.3417 ,1.35741 ,0.44931 ,4.40860 
315 ,61.5340 ,1.35936 ,0.42877 ,4.20713 
316 ,61.7256 ,1.36118 ,0.41166 ,4.03924 
317 ,61.9182 ,1.36306 ,0.41851 ,4.10640 
318 ,62.1102 ,1.36506 ,0.38429 ,3.77061 
319 ,62.3023 ,1.36694 ,0.39455 ,3.87135 
320 ,62.4784 ,1.36881 ,0.38429 ,3.77061 
321 ,62.6546 ,1.37054 ,0.36033 ,3.53557 
322 ,62.8626 ,1.37258 ,0.37060 ,3.63630 
323 ,63.0706 ,1.37464 ,0.32269 ,3.16620 
324 ,63.2628 ,1.37656 ,0.33980 ,3.33410 
325 ,63.4709 ,1.37854 ,0.31926 ,3.13263 
326 ,63.6625 ,1.38055 ,0.31584 ,3.09905 
327 ,63.8547 ,1.38248 ,0.28162 ,2.76326 
328 ,64.0469 ,1.38442 ,0.29873 ,2.93116 
329 ,64.2391 ,1.38631 ,0.27135 ,2.66253 
330 ,64.4312 ,1.38828 ,0.24740 ,2.42748 
331 ,64.6393 ,1.39030 ,0.23713 ,2.32675 
332 ,64.8313 ,1.39224 ,0.23371 ,2.29317 
333 ,65.0235 ,1.39421 ,0.23029 ,2.25959 
334 ,65.2316 ,1.39624 ,0.22344 ,2.19243 
335 ,65.4236 ,1.39825 ,0.20633 ,2.02454 
336 ,65.6316 ,1.40023 ,0.18922 ,1.85665 
337 ,65.8238 ,1.40215 ,0.19607 ,1.92381 
338 ,66.0153 ,1.40405 ,0.15842 ,1.55445 
339 ,66.2079 ,1.40602 ,0.16527 ,1.62160 
340 ,66.4000 ,1.40794 ,0.16527 ,1.62160 
341 ,66.5920 ,1.40986 ,0.13105 ,1.28582 
342 ,66.7842 ,1.41179 ,0.14473 ,1.42013 
343 ,66.9922 ,1.41384 ,0.10709 ,1.05077 
344 ,67.1843 ,1.41580 ,0.11736 ,1.15151 
345 ,67.3924 ,1.41785 ,0.08656 ,0.84930 
346 ,67.5845 ,1.41978 ,0.09340 ,0.91646 
347 ,67.7765 ,1.42174 ,0.07629 ,0.74857 
348 ,67.9686 ,1.42365 ,0.06260 ,0.61425 
349 ,68.1762 ,1.42564 ,0.04549 ,0.44636 
350 ,68.3686 ,1.42754 ,0.05234 ,0.51352 
351 ,68.5606 ,1.42954 ,0.03522 ,0.34563 
352 ,68.7687 ,1.43151 ,0.02154 ,0.21131 
353 ,68.9769 ,1.43368 ,-0.00242 ,-0.02373 
354 ,69.1689 ,1.43558 ,0.00100 ,0.00984 
355 ,69.3610 ,1.43756 ,0.00100 ,0.00984 
356 ,69.5533 ,1.43947 ,-0.03322 ,-0.32594 
357 ,69.7453 ,1.44142 ,-0.02637 ,-0.25878 
358 ,69.9374 ,1.44330 ,-0.03664 ,-0.35952 
359 ,70.1294 ,1.44517 ,-0.05033 ,-0.49383 
360 ,70.3211 ,1.44712 ,-0.06060 ,-0.59457 
361 ,70.5136 ,1.44900 ,-0.08113 ,-0.79604 
362 ,70.7217 ,1.45113 ,-0.07428 ,-0.72888 
363 ,70.9135 ,1.45308 ,-0.10508 ,-1.03108 
364 ,71.1055 ,1.45496 ,-0.10508 ,-1.03108 
365 ,71.2817 ,1.45678 ,-0.11193 ,-1.09824 
366 ,71.4900 ,1.45881 ,-0.12562 ,-1.23255 
367 ,71.6979 ,1.46095 ,-0.13246 ,-1.29971 
368 ,71.8902 ,1.46288 ,-0.13931 ,-1.36687 
369 ,72.0822 ,1.46476 ,-0.15984 ,-1.56834 
370 ,72.2743 ,1.46667 ,-0.17353 ,-1.70265 
371 ,72.4500 ,1.46846 ,-0.17011 ,-1.66907 
372 ,72.6424 ,1.47037 ,-0.17353 ,-1.70265 
373 ,72.8503 ,1.47242 ,-0.19406 ,-1.90412 
374 ,73.0266 ,1.47419 ,-0.20090 ,-1.97128 
375 ,73.2343 ,1.47621 ,-0.22828 ,-2.23990 
376 ,73.4266 ,1.47815 ,-0.21117 ,-2.07201 
377 ,73.6347 ,1.48021 ,-0.24197 ,-2.37422 
378 ,73.8110 ,1.48206 ,-0.25566 ,-2.50853 
379 ,74.0027 ,1.48389 ,-0.25224 ,-2.47495 
380 ,74.1788 ,1.48575 ,-0.26935 ,-2.64284 
381 ,74.3552 ,1.48748 ,-0.27277 ,-2.67642 
382 ,74.5470 ,1.48939 ,-0.26935 ,-2.64284 
383 ,74.7233 ,1.49115 ,-0.27961 ,-2.74358 
384 ,74.9153 ,1.49305 ,-0.31384 ,-3.07936 
385 ,75.0914 ,1.49485 ,-0.31726 ,-3.11294 
386 ,75.2836 ,1.49672 ,-0.31041 ,-3.04578 
387 ,75.4757 ,1.49864 ,-0.33095 ,-3.24725 
388 ,75.6672 ,1.50057 ,-0.33095 ,-3.24725 
389 ,75.8754 ,1.50271 ,-0.33437 ,-3.28083 
390 ,76.0514 ,1.50452 ,-0.35490 ,-3.48230 
391 ,76.2114 ,1.50618 ,-0.35832 ,-3.51588 
392 ,76.4040 ,1.50793 ,-0.35832 ,-3.51588 
393 ,76.6120 ,1.51001 ,-0.39255 ,-3.85166 
394 ,76.7877 ,1.51179 ,-0.38228 ,-3.75093 
395 ,76.9802 ,1.51370 ,-0.38570 ,-3.78450 
396 ,77.1883 ,1.51573 ,-0.40281 ,-3.95240 
397 ,77.3644 ,1.51759 ,-0.40623 ,-3.98597 
398 ,77.5565 ,1.51944 ,-0.43703 ,-4.28818 
399 ,77.7487 ,1.52138 ,-0.43361 ,-4.25460 
400 ,77.9402 ,1.52329 ,-0.44046 ,-4.32176 
401 ,78.1323 ,1.52516 ,-0.45072 ,-4.42249 
402 ,78.3083 ,1.52708 ,-0.46099 ,-4.52323 
403 ,78.5004 ,1.52887 ,-0.47468 ,-4.65754 
404 ,78.7085 ,1.53086 ,-0.48837 ,-4.79185 
405 ,78.9006 ,1.53287 ,-0.48837 ,-4.79185 
406 ,79.0927 ,1.53479 ,-0.50890 ,-4.99332 
407 ,79.2849 ,1.53669 ,-0.51232 ,-5.02690 
408 ,79.4608 ,1.53857 ,-0.52259 ,-5.12764 
409 ,79.6530 ,1.54037 ,-0.53285 ,-5.22837 
410 ,79.8451 ,1.54230 ,-0.52259 ,-5.12764 
411 ,80.0211 ,1.54419 ,-0.56708 ,-5.56415 
412 ,80.2132 ,1.54602 ,-0.56365 ,-5.53058 
413 ,80.4053 ,1.54788 ,-0.55681 ,-5.46342 
414 ,80.5814 ,1.54982 ,-0.58077 ,-5.69847 
415 ,80.7735 ,1.55155 ,-0.58077 ,-5.69847 
416 ,80.9496 ,1.55346 ,-0.58077 ,-5.69847 
417 ,81.1416 ,1.55526 ,-0.60814 ,-5.96709 
418 ,81.3337 ,1.55721 ,-0.61841 ,-6.06783 
419 ,81.5098 ,1.55907 ,-0.60814 ,-5.96709 
420 ,81.7179 ,1.56091 ,-0.61499 ,-6.03425 
421 ,81.8939 ,1.56289 ,-0.63552 ,-6.23572 
422 ,82.0860 ,1.56469 ,-0.62183 ,-6.10141 
423 ,82.2621 ,1.56660 ,-0.64921 ,-6.37003 
424 ,82.4547 ,1.56837 ,-0.65947 ,-6.47077 
425 ,82.6627 ,1.57049 ,-0.66632 ,-6.53793 
426 ,82.8549 ,1.57240 ,-0.70054 ,-6.87371 
427 ,83.0468 ,1.57432 ,-0.67316 ,-6.60508 
428 ,83.2389 ,1.57624 ,-0.69712 ,-6.84013 
429 ,83.4471 ,1.57834 ,-0.69712 ,-6.84013 
430 ,83.6547 ,1.58031 ,-0.71423 ,-7.00802 
431 ,83.8472 ,1.58237 ,-0.71081 ,-6.97444 
432 ,84.0552 ,1.58441 ,-0.73476 ,-7.20949 
433 ,84.2472 ,1.58643 ,-0.73818 ,-7.24307 
434 ,84.4388 ,1.58825 ,-0.75187 ,-7.37738 
435 ,84.6153 ,1.59006 ,-0.75872 ,-7.44454 
436 ,85.0637 ,1.59315 ,-0.75187 ,-7.37738 
437 ,85.2560 ,1.59640 ,-0.79294 ,-7.78032 
438 ,85.4473 ,1.59833 ,-0.78267 ,-7.67959 
439 ,85.6397 ,1.60027 ,-0.80663 ,-7.91464 
440 ,85.8319 ,1.60219 ,-0.80321 ,-7.88106 
441 ,86.0237 ,1.60413 ,-0.82374 ,-8.08253 
442 ,86.2159 ,1.60602 ,-0.85112 ,-8.35115 
443 ,86.4082 ,1.60795 ,-0.83058 ,-8.14968 
444 ,86.5998 ,1.60984 ,-0.85796 ,-8.41831 
445 ,86.7923 ,1.61172 ,-0.84769 ,-8.31758 
446 ,86.9844 ,1.61370 ,-0.85454 ,-8.38473 
447 ,87.1925 ,1.61574 ,-0.86823 ,-8.51904 
448 ,87.3685 ,1.61758 ,-0.87165 ,-8.55262 
449 ,87.5607 ,1.61948 ,-0.89560 ,-8.78767 
450 ,87.7527 ,1.62136 ,-0.88876 ,-8.72051 
451 ,87.9608 ,1.62332 ,-0.91614 ,-8.98914 
452 ,88.1530 ,1.62539 ,-0.91614 ,-8.98914 
453 ,88.3449 ,1.62730 ,-0.91956 ,-9.02272 
454 ,88.5368 ,1.62915 ,-0.92640 ,-9.08988 
455 ,88.7287 ,1.63111 ,-0.92298 ,-9.05630 
456 ,88.9371 ,1.63313 ,-0.94694 ,-9.29135 
457 ,89.1451 ,1.63535 ,-0.94694 ,-9.29135 
458 ,89.3371 ,1.63721 ,-0.97089 ,-9.52639 
459 ,89.5134 ,1.63907 ,-0.95036 ,-9.32492 
460 ,89.7215 ,1.64105 ,-0.99143 ,-9.72786 
461 ,89.9135 ,1.64300 ,-0.99485 ,-9.76144 
462 ,90.0898 ,1.64479 ,-0.99485 ,-9.76144 
