Data stamp = , 03-04-2022 03:57:32 476

Calibration Values: 
Slope = , 26.54 , g/V 
Offset Voltage at no contact = , -0.501760 , V 

No , Time , Stage Position ,   Mass , Force 
   ,  (s) ,      (mm)      ,   (g)  , (mN)  

1 ,0.0000 ,0.59943 ,5.20954 ,51.11602 
2 ,0.2133 ,0.59946 ,5.20270 ,51.04886 
3 ,0.5657 ,0.60044 ,5.18901 ,50.91455 
4 ,0.7734 ,0.60207 ,5.20270 ,51.04886 
5 ,0.9498 ,0.60375 ,5.20270 ,51.04886 
6 ,1.1260 ,0.60544 ,5.19927 ,51.01528 
7 ,1.3019 ,0.60716 ,5.19927 ,51.01528 
8 ,1.4780 ,0.60886 ,5.22665 ,51.28391 
9 ,1.6539 ,0.61070 ,5.20612 ,51.08244 
10 ,1.8305 ,0.61249 ,5.19927 ,51.01528 
11 ,2.0384 ,0.61448 ,5.18901 ,50.91455 
12 ,2.2304 ,0.61646 ,5.20612 ,51.08244 
13 ,2.4064 ,0.61819 ,5.18901 ,50.91455 
14 ,2.5825 ,0.61997 ,5.19585 ,50.98170 
15 ,2.7584 ,0.62178 ,5.17874 ,50.81381 
16 ,2.9346 ,0.62348 ,5.16163 ,50.64592 
17 ,3.1108 ,0.62526 ,5.16505 ,50.67950 
18 ,3.2868 ,0.62703 ,5.14452 ,50.47803 
19 ,3.4625 ,0.62879 ,5.14794 ,50.51161 
20 ,3.6229 ,0.63049 ,5.12056 ,50.24298 
21 ,3.7991 ,0.63217 ,5.11372 ,50.17583 
22 ,3.9751 ,0.63396 ,5.10345 ,50.07509 
23 ,4.1511 ,0.63568 ,5.09661 ,50.00793 
24 ,4.3269 ,0.63742 ,5.08634 ,49.90720 
25 ,4.5194 ,0.63923 ,5.07608 ,49.80646 
26 ,4.7111 ,0.64127 ,5.04185 ,49.47068 
27 ,4.8875 ,0.64307 ,5.03501 ,49.40352 
28 ,5.0635 ,0.64478 ,5.03501 ,49.40352 
29 ,5.2557 ,0.64672 ,5.00763 ,49.13490 
30 ,5.4476 ,0.64855 ,4.99737 ,49.03416 
31 ,5.6239 ,0.65038 ,4.98368 ,48.89985 
32 ,5.8159 ,0.65234 ,4.94946 ,48.56407 
33 ,6.0079 ,0.65424 ,4.93577 ,48.42975 
34 ,6.1837 ,0.65594 ,4.92892 ,48.36260 
35 ,6.3601 ,0.65774 ,4.89812 ,48.06039 
36 ,6.5362 ,0.65951 ,4.87075 ,47.79177 
37 ,6.7121 ,0.66126 ,4.84337 ,47.52314 
38 ,6.9042 ,0.66313 ,4.84679 ,47.55672 
39 ,7.0804 ,0.66498 ,4.81257 ,47.22093 
40 ,7.2565 ,0.66669 ,4.80230 ,47.12020 
41 ,7.4484 ,0.66857 ,4.78861 ,46.98589 
42 ,7.6406 ,0.67059 ,4.76124 ,46.71726 
43 ,7.8485 ,0.67253 ,4.74413 ,46.54937 
44 ,8.0247 ,0.67438 ,4.72702 ,46.38148 
45 ,8.2009 ,0.67616 ,4.70648 ,46.18001 
46 ,8.3771 ,0.67791 ,4.66884 ,45.81065 
47 ,8.5527 ,0.67970 ,4.66542 ,45.77707 
48 ,8.7451 ,0.68147 ,4.64488 ,45.57560 
49 ,8.9373 ,0.68348 ,4.62777 ,45.40771 
50 ,9.1133 ,0.68530 ,4.61408 ,45.27339 
51 ,9.3212 ,0.68725 ,4.61066 ,45.23981 
52 ,9.4973 ,0.68910 ,4.55933 ,44.73614 
53 ,9.6733 ,0.69087 ,4.53537 ,44.50109 
54 ,9.8496 ,0.69265 ,4.54564 ,44.60183 
55 ,10.0414 ,0.69450 ,4.52511 ,44.40036 
56 ,10.2336 ,0.69646 ,4.49773 ,44.13173 
57 ,10.4098 ,0.69823 ,4.49773 ,44.13173 
58 ,10.6017 ,0.70014 ,4.47378 ,43.89668 
59 ,10.7779 ,0.70190 ,4.42929 ,43.46016 
60 ,10.9536 ,0.70365 ,4.41560 ,43.32585 
61 ,11.1301 ,0.70544 ,4.40875 ,43.25870 
62 ,11.3061 ,0.70724 ,4.40875 ,43.25870 
63 ,11.4822 ,0.70898 ,4.37111 ,42.88933 
64 ,11.6581 ,0.71075 ,4.34031 ,42.58713 
65 ,11.8344 ,0.71254 ,4.33004 ,42.48639 
66 ,12.0100 ,0.71425 ,4.31978 ,42.38566 
67 ,12.2025 ,0.71610 ,4.31293 ,42.31850 
68 ,12.3785 ,0.71795 ,4.27529 ,41.94914 
69 ,12.5545 ,0.71967 ,4.26160 ,41.81483 
70 ,12.7306 ,0.72145 ,4.25476 ,41.74767 
71 ,12.9067 ,0.72317 ,4.24449 ,41.64694 
72 ,13.1145 ,0.72518 ,4.23080 ,41.51262 
73 ,13.2908 ,0.72697 ,4.20000 ,41.21042 
74 ,13.4830 ,0.72882 ,4.18631 ,41.07611 
75 ,13.6910 ,0.73091 ,4.16578 ,40.87464 
76 ,13.8671 ,0.73280 ,4.14867 ,40.70674 
77 ,14.0432 ,0.73459 ,4.12129 ,40.43812 
78 ,14.2513 ,0.73655 ,4.10760 ,40.30380 
79 ,14.4593 ,0.73870 ,4.08023 ,40.03518 
80 ,14.6515 ,0.74056 ,4.06312 ,39.86729 
81 ,14.8436 ,0.74258 ,4.04943 ,39.73297 
82 ,15.0196 ,0.74436 ,4.02547 ,39.49793 
83 ,15.1953 ,0.74618 ,4.01520 ,39.39719 
84 ,15.3717 ,0.74781 ,3.99809 ,39.22930 
85 ,15.5637 ,0.74968 ,3.97072 ,38.96067 
86 ,15.7399 ,0.75153 ,3.95018 ,38.75920 
87 ,15.9160 ,0.75332 ,3.94334 ,38.69205 
88 ,16.0919 ,0.75504 ,3.93307 ,38.59131 
89 ,16.2676 ,0.75676 ,3.91938 ,38.45700 
90 ,16.4442 ,0.75851 ,3.88516 ,38.12122 
91 ,16.6201 ,0.76033 ,3.88174 ,38.08764 
92 ,16.7961 ,0.76202 ,3.86463 ,37.91975 
93 ,16.9722 ,0.76382 ,3.84410 ,37.71828 
94 ,17.1484 ,0.76561 ,3.83383 ,37.61754 
95 ,17.3241 ,0.76739 ,3.81330 ,37.41607 
96 ,17.5166 ,0.76920 ,3.79276 ,37.21460 
97 ,17.7087 ,0.77109 ,3.78250 ,37.11387 
98 ,17.8847 ,0.77299 ,3.76881 ,36.97955 
99 ,18.0608 ,0.77471 ,3.74485 ,36.74450 
100 ,18.2370 ,0.77653 ,3.72432 ,36.54303 
101 ,18.4288 ,0.77839 ,3.71405 ,36.44230 
102 ,18.6048 ,0.78010 ,3.69010 ,36.20725 
103 ,18.7971 ,0.78204 ,3.66614 ,35.97220 
104 ,18.9888 ,0.78400 ,3.67299 ,36.03936 
105 ,19.1652 ,0.78574 ,3.63877 ,35.70358 
106 ,19.3413 ,0.78756 ,3.62166 ,35.53569 
107 ,19.5334 ,0.78940 ,3.62508 ,35.56926 
108 ,19.7095 ,0.79113 ,3.58743 ,35.19990 
109 ,19.8855 ,0.79294 ,3.57375 ,35.06559 
110 ,20.0616 ,0.79475 ,3.56006 ,34.93128 
111 ,20.2537 ,0.79660 ,3.56348 ,34.96485 
112 ,20.4458 ,0.79855 ,3.53952 ,34.72981 
113 ,20.6377 ,0.80043 ,3.51557 ,34.49476 
114 ,20.8459 ,0.80252 ,3.50188 ,34.36045 
115 ,21.0220 ,0.80434 ,3.46424 ,33.99108 
116 ,21.1977 ,0.80606 ,3.45397 ,33.89035 
117 ,21.3741 ,0.80784 ,3.47108 ,34.05824 
118 ,21.5497 ,0.80961 ,3.44713 ,33.82319 
119 ,21.7259 ,0.81138 ,3.42317 ,33.58814 
120 ,21.9020 ,0.81311 ,3.39579 ,33.31952 
121 ,22.0781 ,0.81490 ,3.39579 ,33.31952 
122 ,22.2543 ,0.81664 ,3.36842 ,33.05089 
123 ,22.4307 ,0.81839 ,3.37184 ,33.08447 
124 ,22.6063 ,0.82015 ,3.34104 ,32.78227 
125 ,22.7827 ,0.82190 ,3.31708 ,32.54722 
126 ,22.9747 ,0.82384 ,3.32393 ,32.61437 
127 ,23.1508 ,0.82559 ,3.29655 ,32.34575 
128 ,23.3269 ,0.82734 ,3.28286 ,32.21143 
129 ,23.5029 ,0.82907 ,3.25891 ,31.97639 
130 ,23.6788 ,0.83087 ,3.24522 ,31.84207 
131 ,23.8552 ,0.83266 ,3.24522 ,31.84207 
132 ,24.0314 ,0.83441 ,3.24180 ,31.80849 
133 ,24.2071 ,0.83619 ,3.21784 ,31.57345 
134 ,24.3992 ,0.83793 ,3.18704 ,31.27124 
135 ,24.5755 ,0.83981 ,3.18020 ,31.20409 
136 ,24.7514 ,0.84164 ,3.18362 ,31.23766 
137 ,24.9279 ,0.84337 ,3.15966 ,31.00262 
138 ,25.1033 ,0.84513 ,3.12202 ,30.63325 
139 ,25.2799 ,0.84683 ,3.11175 ,30.53252 
140 ,25.4560 ,0.84865 ,3.10833 ,30.49894 
141 ,25.6319 ,0.85041 ,3.09806 ,30.39821 
142 ,25.7915 ,0.85210 ,3.08095 ,30.23031 
143 ,25.9676 ,0.85371 ,3.07069 ,30.12958 
144 ,26.1437 ,0.85550 ,3.01593 ,29.59233 
145 ,26.3200 ,0.85731 ,3.02278 ,29.65948 
146 ,26.4963 ,0.85914 ,3.02278 ,29.65948 
147 ,26.6724 ,0.86077 ,3.01251 ,29.55875 
148 ,26.8644 ,0.86270 ,2.97487 ,29.18939 
149 ,27.0405 ,0.86451 ,2.96460 ,29.08865 
150 ,27.2325 ,0.86640 ,2.97829 ,29.22297 
151 ,27.4081 ,0.86809 ,2.93380 ,28.78645 
152 ,27.5843 ,0.86999 ,2.92353 ,28.68571 
153 ,27.7607 ,0.87163 ,2.90300 ,28.48424 
154 ,27.9529 ,0.87351 ,2.89273 ,28.38351 
155 ,28.1290 ,0.87538 ,2.88247 ,28.28277 
156 ,28.3048 ,0.87708 ,2.85167 ,27.98057 
157 ,28.4811 ,0.87891 ,2.83456 ,27.81268 
158 ,28.6573 ,0.88067 ,2.83114 ,27.77910 
159 ,28.8493 ,0.88258 ,2.80376 ,27.51047 
160 ,29.0249 ,0.88434 ,2.78665 ,27.34258 
161 ,29.2014 ,0.88606 ,2.77980 ,27.27542 
162 ,29.3933 ,0.88799 ,2.78665 ,27.34258 
163 ,29.5695 ,0.88975 ,2.75585 ,27.04038 
164 ,29.7616 ,0.89166 ,2.73531 ,26.83891 
165 ,29.9535 ,0.89360 ,2.72847 ,26.77175 
166 ,30.1458 ,0.89546 ,2.69767 ,26.46954 
167 ,30.3381 ,0.89745 ,2.70109 ,26.50312 
168 ,30.5139 ,0.89917 ,2.68740 ,26.36881 
169 ,30.6900 ,0.90096 ,2.67372 ,26.23450 
170 ,30.8661 ,0.90269 ,2.64292 ,25.93229 
171 ,31.0577 ,0.90454 ,2.63607 ,25.86514 
172 ,31.2501 ,0.90644 ,2.61212 ,25.63009 
173 ,31.4262 ,0.90831 ,2.59843 ,25.49577 
174 ,31.6024 ,0.91007 ,2.59158 ,25.42862 
175 ,31.7785 ,0.91179 ,2.57789 ,25.29430 
176 ,31.9544 ,0.91360 ,2.55736 ,25.09283 
177 ,32.1304 ,0.91530 ,2.53683 ,24.89136 
178 ,32.3067 ,0.91707 ,2.51630 ,24.68989 
179 ,32.4986 ,0.91902 ,2.50945 ,24.62274 
180 ,32.6749 ,0.92083 ,2.49234 ,24.45485 
181 ,32.8668 ,0.92271 ,2.46496 ,24.18622 
182 ,33.0430 ,0.92447 ,2.44785 ,24.01833 
183 ,33.2190 ,0.92619 ,2.45470 ,24.08549 
184 ,33.3791 ,0.92797 ,2.43416 ,23.88402 
185 ,33.5552 ,0.92957 ,2.42732 ,23.81686 
186 ,33.7313 ,0.93135 ,2.39652 ,23.51465 
187 ,33.9234 ,0.93327 ,2.38625 ,23.41392 
188 ,34.1154 ,0.93511 ,2.38283 ,23.38034 
189 ,34.2912 ,0.93695 ,2.35203 ,23.07814 
190 ,34.4996 ,0.93891 ,2.34861 ,23.04456 
191 ,34.6757 ,0.94079 ,2.33492 ,22.91024 
192 ,34.8516 ,0.94254 ,2.30754 ,22.64162 
193 ,35.0278 ,0.94432 ,2.28017 ,22.37299 
194 ,35.2038 ,0.94609 ,2.26990 ,22.27226 
195 ,35.3800 ,0.94783 ,2.24937 ,22.07079 
196 ,35.5719 ,0.94976 ,2.25621 ,22.13794 
197 ,35.7480 ,0.95152 ,2.22541 ,21.83574 
198 ,35.9245 ,0.95327 ,2.21515 ,21.73500 
199 ,36.1002 ,0.95508 ,2.20830 ,21.66785 
200 ,36.2603 ,0.95674 ,2.20146 ,21.60069 
201 ,36.4364 ,0.95839 ,2.18435 ,21.43280 
202 ,36.6124 ,0.96011 ,2.16381 ,21.23133 
203 ,36.8046 ,0.96206 ,2.14328 ,21.02986 
204 ,37.0287 ,0.96420 ,2.11932 ,20.79481 
205 ,37.2207 ,0.96617 ,2.11932 ,20.79481 
206 ,37.4127 ,0.96815 ,2.09537 ,20.55976 
207 ,37.5887 ,0.96987 ,2.06799 ,20.29114 
208 ,37.7650 ,0.97165 ,2.05773 ,20.19040 
209 ,37.9569 ,0.97353 ,2.05088 ,20.12325 
210 ,38.1489 ,0.97551 ,2.03035 ,19.92178 
211 ,38.3252 ,0.97726 ,2.03035 ,19.92178 
212 ,38.5173 ,0.97908 ,2.02693 ,19.88820 
213 ,38.7090 ,0.98114 ,1.98586 ,19.48526 
214 ,38.8854 ,0.98290 ,1.97902 ,19.41810 
215 ,39.1092 ,0.98496 ,1.94822 ,19.11590 
216 ,39.2856 ,0.98691 ,1.94137 ,19.04874 
217 ,39.4772 ,0.98879 ,1.94479 ,19.08232 
218 ,39.6537 ,0.99057 ,1.92426 ,18.88085 
219 ,39.8617 ,0.99260 ,1.90715 ,18.71296 
220 ,40.0378 ,0.99440 ,1.89004 ,18.54507 
221 ,40.2137 ,0.99612 ,1.87293 ,18.37717 
222 ,40.3900 ,0.99792 ,1.85240 ,18.17570 
223 ,40.5818 ,0.99981 ,1.84213 ,18.07497 
224 ,40.7582 ,1.00162 ,1.83186 ,17.97423 
225 ,40.9501 ,1.00343 ,1.80106 ,17.67203 
226 ,41.1264 ,1.00529 ,1.78395 ,17.50414 
227 ,41.3023 ,1.00700 ,1.78053 ,17.47056 
228 ,41.4785 ,1.00882 ,1.76684 ,17.33625 
229 ,41.6544 ,1.01054 ,1.75315 ,17.20193 
230 ,41.8464 ,1.01240 ,1.72920 ,16.96689 
231 ,42.0227 ,1.01425 ,1.71551 ,16.83257 
232 ,42.2148 ,1.01609 ,1.70524 ,16.73184 
233 ,42.3907 ,1.01793 ,1.67102 ,16.39605 
234 ,42.5667 ,1.01963 ,1.66418 ,16.32890 
235 ,42.7430 ,1.02147 ,1.66418 ,16.32890 
236 ,42.9353 ,1.02338 ,1.65391 ,16.22816 
237 ,43.1110 ,1.02511 ,1.63338 ,16.02669 
238 ,43.2870 ,1.02685 ,1.60942 ,15.79164 
239 ,43.4629 ,1.02860 ,1.61284 ,15.82522 
240 ,43.6550 ,1.03054 ,1.59231 ,15.62375 
241 ,43.8315 ,1.03231 ,1.57520 ,15.45586 
242 ,44.0393 ,1.03430 ,1.56493 ,15.35513 
243 ,44.2155 ,1.03612 ,1.56151 ,15.32155 
244 ,44.4075 ,1.03807 ,1.52045 ,14.91861 
245 ,44.5836 ,1.03985 ,1.53071 ,15.01934 
246 ,44.8077 ,1.04193 ,1.49991 ,14.71714 
247 ,44.9998 ,1.04397 ,1.48622 ,14.58283 
248 ,45.1760 ,1.04575 ,1.48280 ,14.54925 
249 ,45.3839 ,1.04778 ,1.46569 ,14.38136 
250 ,45.5601 ,1.04960 ,1.44858 ,14.21346 
251 ,45.7518 ,1.05152 ,1.41436 ,13.87768 
252 ,45.9442 ,1.05336 ,1.40409 ,13.77695 
253 ,46.1364 ,1.05534 ,1.39040 ,13.64263 
254 ,46.3285 ,1.05730 ,1.37671 ,13.50832 
255 ,46.5043 ,1.05907 ,1.38014 ,13.54190 
256 ,46.6965 ,1.06091 ,1.34934 ,13.23969 
257 ,46.8724 ,1.06270 ,1.32880 ,13.03822 
258 ,47.0487 ,1.06445 ,1.32880 ,13.03822 
259 ,47.2408 ,1.06641 ,1.31169 ,12.87033 
260 ,47.4168 ,1.06818 ,1.30143 ,12.76960 
261 ,47.5926 ,1.06988 ,1.26720 ,12.43381 
262 ,47.7690 ,1.07170 ,1.27063 ,12.46739 
263 ,47.9446 ,1.07340 ,1.25694 ,12.33308 
264 ,48.1370 ,1.07524 ,1.25009 ,12.26592 
265 ,48.3290 ,1.07716 ,1.21587 ,11.93014 
266 ,48.5213 ,1.07922 ,1.21245 ,11.89656 
267 ,48.7295 ,1.08117 ,1.19192 ,11.69509 
268 ,48.9054 ,1.08304 ,1.18507 ,11.62794 
269 ,49.0971 ,1.08489 ,1.15770 ,11.35931 
270 ,49.2735 ,1.08672 ,1.14401 ,11.22500 
271 ,49.4495 ,1.08849 ,1.13032 ,11.09068 
272 ,49.6255 ,1.09027 ,1.11663 ,10.95637 
273 ,49.8018 ,1.09203 ,1.13374 ,11.12426 
274 ,49.9778 ,1.09379 ,1.11663 ,10.95637 
275 ,50.1699 ,1.09563 ,1.08241 ,10.62059 
276 ,50.3780 ,1.09770 ,1.06872 ,10.48627 
277 ,50.5542 ,1.09951 ,1.04819 ,10.28480 
278 ,50.7301 ,1.10129 ,1.04134 ,10.21765 
279 ,50.9063 ,1.10306 ,1.02765 ,10.08333 
280 ,51.0983 ,1.10490 ,1.01739 ,9.98260 
281 ,51.2743 ,1.10668 ,0.99343 ,9.74755 
282 ,51.4503 ,1.10847 ,0.99001 ,9.71397 
283 ,51.6264 ,1.11028 ,0.97290 ,9.54608 
284 ,51.8025 ,1.11195 ,0.97290 ,9.54608 
285 ,51.9787 ,1.11379 ,0.95921 ,9.41177 
286 ,52.1704 ,1.11574 ,0.94894 ,9.31103 
287 ,52.3467 ,1.11741 ,0.92157 ,9.04241 
288 ,52.5226 ,1.11920 ,0.92499 ,9.07598 
289 ,52.6986 ,1.12093 ,0.90788 ,8.90809 
290 ,52.8747 ,1.12267 ,0.88050 ,8.63947 
291 ,53.0507 ,1.12445 ,0.86339 ,8.47158 
292 ,53.2269 ,1.12625 ,0.85654 ,8.40442 
293 ,53.4029 ,1.12799 ,0.86339 ,8.47158 
294 ,53.5790 ,1.12978 ,0.84970 ,8.33726 
295 ,53.7550 ,1.13150 ,0.81548 ,8.00148 
296 ,53.9312 ,1.13326 ,0.80863 ,7.93432 
297 ,54.1072 ,1.13500 ,0.80179 ,7.86717 
298 ,54.2831 ,1.13681 ,0.80521 ,7.90074 
299 ,54.4432 ,1.13853 ,0.79152 ,7.76643 
300 ,54.6033 ,1.14013 ,0.76757 ,7.53138 
301 ,54.7634 ,1.14170 ,0.76072 ,7.46423 
302 ,54.9395 ,1.14334 ,0.74704 ,7.32991 
303 ,55.1156 ,1.14510 ,0.72992 ,7.16202 
304 ,55.2754 ,1.14685 ,0.72650 ,7.12844 
305 ,55.4517 ,1.14845 ,0.70939 ,6.96055 
306 ,55.6278 ,1.15024 ,0.69913 ,6.85982 
307 ,55.8038 ,1.15196 ,0.68544 ,6.72550 
308 ,55.9800 ,1.15374 ,0.67859 ,6.65835 
309 ,56.1559 ,1.15551 ,0.66490 ,6.52403 
310 ,56.3319 ,1.15724 ,0.64095 ,6.28899 
311 ,56.5082 ,1.15903 ,0.63753 ,6.25541 
312 ,56.6681 ,1.16075 ,0.64095 ,6.28899 
313 ,56.8445 ,1.16234 ,0.62726 ,6.15467 
314 ,57.0366 ,1.16419 ,0.60673 ,5.95320 
315 ,57.2127 ,1.16604 ,0.59304 ,5.81889 
316 ,57.4048 ,1.16795 ,0.59646 ,5.85247 
317 ,57.5808 ,1.16976 ,0.57251 ,5.61742 
318 ,57.7730 ,1.17167 ,0.54855 ,5.38237 
319 ,57.9488 ,1.17346 ,0.55539 ,5.44953 
320 ,58.1412 ,1.17539 ,0.53486 ,5.24806 
321 ,58.3492 ,1.17733 ,0.52117 ,5.11375 
322 ,58.5413 ,1.17935 ,0.50748 ,4.97943 
323 ,58.7331 ,1.18120 ,0.49037 ,4.81154 
324 ,58.9095 ,1.18303 ,0.49380 ,4.84512 
325 ,59.0855 ,1.18477 ,0.48695 ,4.77796 
326 ,59.2615 ,1.18657 ,0.45615 ,4.47576 
327 ,59.4536 ,1.18837 ,0.44931 ,4.40860 
328 ,59.6616 ,1.19049 ,0.42877 ,4.20713 
329 ,59.8697 ,1.19266 ,0.42877 ,4.20713 
330 ,60.0460 ,1.19441 ,0.41509 ,4.07282 
331 ,60.2538 ,1.19639 ,0.38429 ,3.77061 
332 ,60.4460 ,1.19833 ,0.39113 ,3.83777 
333 ,60.6220 ,1.20020 ,0.38086 ,3.73703 
334 ,60.7821 ,1.20186 ,0.36718 ,3.60272 
335 ,60.9581 ,1.20349 ,0.36375 ,3.56914 
336 ,61.1504 ,1.20533 ,0.35006 ,3.43483 
337 ,61.3264 ,1.20725 ,0.33980 ,3.33410 
338 ,61.5024 ,1.20896 ,0.32611 ,3.19978 
339 ,61.6785 ,1.21065 ,0.29873 ,2.93116 
340 ,61.8545 ,1.21247 ,0.30215 ,2.96473 
341 ,62.0305 ,1.21423 ,0.28847 ,2.83042 
342 ,62.2227 ,1.21607 ,0.30215 ,2.96473 
343 ,62.4309 ,1.21818 ,0.27478 ,2.69611 
344 ,62.6229 ,1.22019 ,0.26793 ,2.62895 
345 ,62.7990 ,1.22190 ,0.24055 ,2.36032 
346 ,62.9906 ,1.22382 ,0.24055 ,2.36032 
347 ,63.1671 ,1.22557 ,0.22687 ,2.22601 
348 ,63.3590 ,1.22754 ,0.20633 ,2.02454 
349 ,63.5511 ,1.22943 ,0.19607 ,1.92381 
350 ,63.7270 ,1.23120 ,0.20633 ,2.02454 
351 ,63.9194 ,1.23308 ,0.17211 ,1.68876 
352 ,64.1113 ,1.23503 ,0.16869 ,1.65518 
353 ,64.2876 ,1.23681 ,0.16869 ,1.65518 
354 ,64.4633 ,1.23860 ,0.15158 ,1.48729 
355 ,64.6398 ,1.24029 ,0.14131 ,1.38655 
356 ,64.8635 ,1.24238 ,0.11736 ,1.15151 
357 ,65.0559 ,1.24437 ,0.09340 ,0.91646 
358 ,65.2319 ,1.24621 ,0.11393 ,1.11793 
359 ,65.4080 ,1.24797 ,0.10025 ,0.98361 
360 ,65.6160 ,1.24996 ,0.07971 ,0.78214 
361 ,65.7921 ,1.25181 ,0.08656 ,0.84930 
362 ,65.9683 ,1.25360 ,0.07287 ,0.71499 
363 ,66.1603 ,1.25557 ,0.04549 ,0.44636 
364 ,66.3365 ,1.25727 ,0.02838 ,0.27847 
365 ,66.5124 ,1.25901 ,0.03180 ,0.31205 
366 ,66.6886 ,1.26082 ,0.03522 ,0.34563 
367 ,66.8649 ,1.26261 ,0.01811 ,0.17773 
368 ,67.0567 ,1.26456 ,-0.00926 ,-0.09089 
369 ,67.2808 ,1.26660 ,-0.00242 ,-0.02373 
370 ,67.4570 ,1.26850 ,-0.02980 ,-0.29236 
371 ,67.6490 ,1.27033 ,-0.01953 ,-0.19163 
372 ,67.8570 ,1.27240 ,-0.04006 ,-0.39310 
373 ,68.0331 ,1.27422 ,-0.04348 ,-0.42667 
374 ,68.2252 ,1.27606 ,-0.05375 ,-0.52741 
375 ,68.4173 ,1.27810 ,-0.06402 ,-0.62814 
376 ,68.6094 ,1.28001 ,-0.06402 ,-0.62814 
377 ,68.8016 ,1.28196 ,-0.10851 ,-1.06466 
378 ,68.9775 ,1.28370 ,-0.09824 ,-0.96393 
379 ,69.1696 ,1.28561 ,-0.09482 ,-0.93035 
380 ,69.3774 ,1.28756 ,-0.14273 ,-1.40045 
381 ,69.5535 ,1.28956 ,-0.11535 ,-1.13182 
382 ,69.7300 ,1.29121 ,-0.12904 ,-1.26613 
383 ,69.9058 ,1.29300 ,-0.13588 ,-1.33329 
384 ,70.0816 ,1.29467 ,-0.15984 ,-1.56834 
385 ,70.2580 ,1.29654 ,-0.17353 ,-1.70265 
386 ,70.4501 ,1.29830 ,-0.17011 ,-1.66907 
387 ,70.6422 ,1.30033 ,-0.20433 ,-2.00485 
388 ,70.8183 ,1.30212 ,-0.20433 ,-2.00485 
389 ,71.0264 ,1.30406 ,-0.19748 ,-1.93770 
390 ,71.2183 ,1.30607 ,-0.21459 ,-2.10559 
391 ,71.3942 ,1.30781 ,-0.21802 ,-2.13917 
392 ,71.5704 ,1.30963 ,-0.23855 ,-2.34064 
393 ,71.7625 ,1.31151 ,-0.25224 ,-2.47495 
394 ,71.9389 ,1.31329 ,-0.26250 ,-2.57569 
395 ,72.1148 ,1.31505 ,-0.27277 ,-2.67642 
396 ,72.3068 ,1.31692 ,-0.27961 ,-2.74358 
397 ,72.4825 ,1.31872 ,-0.28646 ,-2.81073 
398 ,72.6748 ,1.32059 ,-0.29330 ,-2.87789 
399 ,72.8511 ,1.32240 ,-0.28988 ,-2.84431 
400 ,73.0271 ,1.32419 ,-0.30357 ,-2.97863 
401 ,73.2193 ,1.32611 ,-0.32752 ,-3.21367 
402 ,73.4110 ,1.32798 ,-0.31384 ,-3.07936 
403 ,73.6033 ,1.32984 ,-0.32752 ,-3.21367 
404 ,73.7794 ,1.33168 ,-0.35148 ,-3.44872 
405 ,73.9555 ,1.33340 ,-0.34464 ,-3.38156 
406 ,74.1474 ,1.33540 ,-0.35832 ,-3.51588 
407 ,74.3393 ,1.33725 ,-0.36859 ,-3.61661 
408 ,74.5158 ,1.33901 ,-0.36175 ,-3.54946 
409 ,74.7236 ,1.34098 ,-0.40966 ,-4.01955 
410 ,74.9159 ,1.34302 ,-0.40966 ,-4.01955 
411 ,75.0920 ,1.34481 ,-0.39597 ,-3.88524 
412 ,75.2681 ,1.34655 ,-0.42335 ,-4.15387 
413 ,75.4442 ,1.34834 ,-0.43703 ,-4.28818 
414 ,75.6364 ,1.35024 ,-0.43703 ,-4.28818 
415 ,75.8123 ,1.35203 ,-0.44046 ,-4.32176 
416 ,75.9883 ,1.35375 ,-0.46099 ,-4.52323 
417 ,76.1644 ,1.35553 ,-0.46783 ,-4.59038 
418 ,76.3407 ,1.35726 ,-0.48152 ,-4.72470 
419 ,76.5327 ,1.35920 ,-0.46783 ,-4.59038 
420 ,76.7247 ,1.36115 ,-0.49521 ,-4.85901 
421 ,76.9327 ,1.36303 ,-0.48152 ,-4.72470 
422 ,77.1247 ,1.36516 ,-0.50548 ,-4.95975 
423 ,77.3008 ,1.36693 ,-0.50890 ,-4.99332 
424 ,77.4926 ,1.36869 ,-0.51574 ,-5.06048 
425 ,77.6689 ,1.37060 ,-0.52601 ,-5.16121 
426 ,77.8609 ,1.37246 ,-0.54312 ,-5.32911 
427 ,78.0371 ,1.37427 ,-0.54312 ,-5.32911 
428 ,78.2133 ,1.37602 ,-0.54312 ,-5.32911 
429 ,78.3893 ,1.37778 ,-0.56023 ,-5.49700 
430 ,78.5489 ,1.37946 ,-0.58761 ,-5.76562 
431 ,78.7255 ,1.38114 ,-0.59788 ,-5.86636 
432 ,78.9494 ,1.38319 ,-0.59103 ,-5.79920 
433 ,79.1256 ,1.38513 ,-0.59103 ,-5.79920 
434 ,79.3015 ,1.38685 ,-0.60814 ,-5.96709 
435 ,79.4776 ,1.38866 ,-0.61499 ,-6.03425 
436 ,79.6535 ,1.39035 ,-0.60814 ,-5.96709 
437 ,79.8298 ,1.39216 ,-0.62868 ,-6.16856 
438 ,80.0060 ,1.39390 ,-0.63894 ,-6.26930 
439 ,80.1821 ,1.39570 ,-0.64921 ,-6.37003 
440 ,80.3580 ,1.39746 ,-0.65605 ,-6.43719 
441 ,80.5502 ,1.39936 ,-0.65947 ,-6.47077 
442 ,80.7260 ,1.40116 ,-0.66632 ,-6.53793 
443 ,80.9022 ,1.40287 ,-0.68685 ,-6.73940 
444 ,81.0783 ,1.40462 ,-0.68001 ,-6.67224 
445 ,81.2704 ,1.40656 ,-0.69027 ,-6.77297 
446 ,81.4624 ,1.40847 ,-0.71423 ,-7.00802 
447 ,81.6546 ,1.41042 ,-0.70739 ,-6.94086 
448 ,81.8305 ,1.41215 ,-0.70739 ,-6.94086 
449 ,82.0226 ,1.41409 ,-0.72792 ,-7.14233 
450 ,82.1988 ,1.41581 ,-0.72107 ,-7.07518 
451 ,82.3909 ,1.41775 ,-0.75187 ,-7.37738 
452 ,82.5668 ,1.41950 ,-0.75872 ,-7.44454 
453 ,82.7426 ,1.42128 ,-0.75530 ,-7.41096 
454 ,82.9191 ,1.42310 ,-0.77925 ,-7.64601 
455 ,83.1111 ,1.42498 ,-0.76898 ,-7.54527 
456 ,83.2871 ,1.42671 ,-0.78952 ,-7.74674 
457 ,83.4634 ,1.42846 ,-0.79978 ,-7.84748 
458 ,83.6553 ,1.43043 ,-0.78952 ,-7.74674 
459 ,83.8310 ,1.43218 ,-0.82032 ,-8.04895 
460 ,84.0234 ,1.43397 ,-0.83058 ,-8.14968 
461 ,84.2320 ,1.43614 ,-0.83401 ,-8.18326 
462 ,84.4234 ,1.43798 ,-0.83743 ,-8.21684 
463 ,84.6156 ,1.43992 ,-0.84769 ,-8.31758 
