Data stamp = , 01-04-2022 15:42:41 503

Calibration Values: 
Slope = , 26.54 , g/V 
Offset Voltage at no contact = , -0.501760 , V 

No , Time , Stage Position ,   Mass , Force 
   ,  (s) ,      (mm)      ,   (g)  , (mN)  

1 ,0.0000 ,0.64946 ,5.16505 ,50.67950 
2 ,0.2292 ,0.64956 ,5.16505 ,50.67950 
3 ,0.5336 ,0.65036 ,5.15479 ,50.57876 
4 ,0.7096 ,0.65172 ,5.15479 ,50.57876 
5 ,0.9018 ,0.65328 ,5.15479 ,50.57876 
6 ,1.0937 ,0.65514 ,5.16163 ,50.64592 
7 ,1.2697 ,0.65688 ,5.16163 ,50.64592 
8 ,1.4620 ,0.65882 ,5.16163 ,50.64592 
9 ,1.6537 ,0.66075 ,5.16505 ,50.67950 
10 ,1.8301 ,0.66247 ,5.14452 ,50.47803 
11 ,2.0543 ,0.66462 ,5.13768 ,50.41087 
12 ,2.2303 ,0.66653 ,5.12399 ,50.27656 
13 ,2.4221 ,0.66841 ,5.10345 ,50.07509 
14 ,2.6144 ,0.67036 ,5.11030 ,50.14225 
15 ,2.7904 ,0.67208 ,5.07950 ,49.84004 
16 ,2.9664 ,0.67387 ,5.07608 ,49.80646 
17 ,3.1426 ,0.67564 ,5.06923 ,49.73931 
18 ,3.3185 ,0.67738 ,5.05897 ,49.63857 
19 ,3.4951 ,0.67921 ,5.05554 ,49.60499 
20 ,3.6870 ,0.68110 ,5.02474 ,49.30279 
21 ,3.8629 ,0.68288 ,5.00763 ,49.13490 
22 ,4.0707 ,0.68485 ,4.99394 ,49.00058 
23 ,4.2471 ,0.68668 ,4.98368 ,48.89985 
24 ,4.4230 ,0.68840 ,4.95630 ,48.63122 
25 ,4.5991 ,0.69018 ,4.95288 ,48.59764 
26 ,4.7754 ,0.69196 ,4.94946 ,48.56407 
27 ,4.9513 ,0.69372 ,4.92208 ,48.29544 
28 ,5.1272 ,0.69549 ,4.90839 ,48.16113 
29 ,5.3034 ,0.69721 ,4.88444 ,47.92608 
30 ,5.4795 ,0.69900 ,4.87075 ,47.79177 
31 ,5.6878 ,0.70104 ,4.83652 ,47.45598 
32 ,5.8637 ,0.70288 ,4.82626 ,47.35525 
33 ,6.0559 ,0.70467 ,4.82284 ,47.32167 
34 ,6.2479 ,0.70671 ,4.78519 ,46.95231 
35 ,6.4400 ,0.70852 ,4.77150 ,46.81800 
36 ,6.6319 ,0.71051 ,4.76466 ,46.75084 
37 ,6.8561 ,0.71263 ,4.73386 ,46.44863 
38 ,7.0321 ,0.71451 ,4.71675 ,46.28074 
39 ,7.2081 ,0.71624 ,4.68253 ,45.94496 
40 ,7.3844 ,0.71808 ,4.66542 ,45.77707 
41 ,7.5604 ,0.71978 ,4.63804 ,45.50844 
42 ,7.7363 ,0.72156 ,4.62435 ,45.37413 
43 ,7.9126 ,0.72333 ,4.61751 ,45.30697 
44 ,8.0887 ,0.72508 ,4.59013 ,45.03835 
45 ,8.2646 ,0.72682 ,4.57302 ,44.87045 
46 ,8.4407 ,0.72854 ,4.55249 ,44.66898 
47 ,8.6169 ,0.73032 ,4.54564 ,44.60183 
48 ,8.8247 ,0.73235 ,4.50800 ,44.23247 
49 ,9.0006 ,0.73420 ,4.50457 ,44.19889 
50 ,9.1771 ,0.73596 ,4.49431 ,44.09815 
51 ,9.3531 ,0.73773 ,4.47720 ,43.93026 
52 ,9.5608 ,0.73978 ,4.44298 ,43.59448 
53 ,9.7372 ,0.74155 ,4.41560 ,43.32585 
54 ,9.9455 ,0.74353 ,4.41560 ,43.32585 
55 ,10.1212 ,0.74541 ,4.38138 ,42.99007 
56 ,10.3134 ,0.74727 ,4.38138 ,42.99007 
57 ,10.4895 ,0.74905 ,4.35742 ,42.75502 
58 ,10.6497 ,0.75077 ,4.33004 ,42.48639 
59 ,10.8254 ,0.75242 ,4.31293 ,42.31850 
60 ,11.0015 ,0.75417 ,4.29582 ,42.15061 
61 ,11.1780 ,0.75598 ,4.29240 ,42.11703 
62 ,11.3700 ,0.75787 ,4.27187 ,41.91556 
63 ,11.5461 ,0.75963 ,4.24791 ,41.68051 
64 ,11.7381 ,0.76151 ,4.23422 ,41.54620 
65 ,11.9302 ,0.76347 ,4.21711 ,41.37831 
66 ,12.1062 ,0.76525 ,4.20000 ,41.21042 
67 ,12.2983 ,0.76710 ,4.17947 ,41.00895 
68 ,12.4745 ,0.76889 ,4.17947 ,41.00895 
69 ,12.6664 ,0.77084 ,4.14525 ,40.67317 
70 ,12.8586 ,0.77266 ,4.11445 ,40.37096 
71 ,13.0506 ,0.77471 ,4.11445 ,40.37096 
72 ,13.2264 ,0.77640 ,4.08023 ,40.03518 
73 ,13.4028 ,0.77820 ,4.05969 ,39.83371 
74 ,13.5789 ,0.77991 ,4.04600 ,39.69940 
75 ,13.7545 ,0.78173 ,4.02547 ,39.49793 
76 ,13.9310 ,0.78354 ,4.01863 ,39.43077 
77 ,14.1071 ,0.78523 ,4.00836 ,39.33003 
78 ,14.2833 ,0.78702 ,3.97414 ,38.99425 
79 ,14.4593 ,0.78874 ,3.95703 ,38.82636 
80 ,14.6353 ,0.79053 ,3.94334 ,38.69205 
81 ,14.8111 ,0.79227 ,3.94676 ,38.72562 
82 ,14.9876 ,0.79403 ,3.91596 ,38.42342 
83 ,15.1796 ,0.79596 ,3.88516 ,38.12122 
84 ,15.3713 ,0.79787 ,3.88174 ,38.08764 
85 ,15.5473 ,0.79966 ,3.86463 ,37.91975 
86 ,15.7237 ,0.80136 ,3.83383 ,37.61754 
87 ,15.9157 ,0.80332 ,3.81672 ,37.44965 
88 ,16.0918 ,0.80502 ,3.82356 ,37.51681 
89 ,16.2680 ,0.80687 ,3.82014 ,37.48323 
90 ,16.4439 ,0.80865 ,3.77223 ,37.01313 
91 ,16.6360 ,0.81047 ,3.74828 ,36.77808 
92 ,16.8119 ,0.81225 ,3.73801 ,36.67735 
93 ,16.9882 ,0.81413 ,3.72090 ,36.50946 
94 ,17.1642 ,0.81581 ,3.69694 ,36.27441 
95 ,17.3564 ,0.81769 ,3.70037 ,36.30799 
96 ,17.5324 ,0.81947 ,3.66957 ,36.00578 
97 ,17.7086 ,0.82125 ,3.65930 ,35.90505 
98 ,17.9006 ,0.82315 ,3.63534 ,35.67000 
99 ,18.0765 ,0.82486 ,3.60797 ,35.40137 
100 ,18.2687 ,0.82675 ,3.60797 ,35.40137 
101 ,18.4445 ,0.82856 ,3.59086 ,35.23348 
102 ,18.6206 ,0.83031 ,3.55663 ,34.89770 
103 ,18.7969 ,0.83215 ,3.54637 ,34.79696 
104 ,18.9731 ,0.83390 ,3.53952 ,34.72981 
105 ,19.1651 ,0.83576 ,3.52926 ,34.62907 
106 ,19.3571 ,0.83773 ,3.49504 ,34.29329 
107 ,19.5330 ,0.83944 ,3.49504 ,34.29329 
108 ,19.7092 ,0.84123 ,3.46766 ,34.02466 
109 ,19.8854 ,0.84298 ,3.45055 ,33.85677 
110 ,20.0614 ,0.84476 ,3.42317 ,33.58814 
111 ,20.2375 ,0.84653 ,3.40264 ,33.38667 
112 ,20.4297 ,0.84846 ,3.40264 ,33.38667 
113 ,20.6056 ,0.85024 ,3.37184 ,33.08447 
114 ,20.7976 ,0.85210 ,3.35815 ,32.95016 
115 ,20.9738 ,0.85387 ,3.33077 ,32.68153 
116 ,21.1335 ,0.85556 ,3.33419 ,32.71511 
117 ,21.3098 ,0.85728 ,3.31024 ,32.48006 
118 ,21.5179 ,0.85923 ,3.27944 ,32.17786 
119 ,21.6941 ,0.86108 ,3.26233 ,32.00996 
120 ,21.8702 ,0.86283 ,3.26233 ,32.00996 
121 ,22.0462 ,0.86462 ,3.25206 ,31.90923 
122 ,22.2058 ,0.86630 ,3.22468 ,31.64060 
123 ,22.3824 ,0.86799 ,3.20415 ,31.43913 
124 ,22.5744 ,0.86985 ,3.19388 ,31.33840 
125 ,22.7505 ,0.87157 ,3.18020 ,31.20409 
126 ,22.9264 ,0.87340 ,3.16651 ,31.06977 
127 ,23.1186 ,0.87529 ,3.12886 ,30.70041 
128 ,23.2948 ,0.87703 ,3.12544 ,30.66683 
129 ,23.4709 ,0.87882 ,3.12202 ,30.63325 
130 ,23.6465 ,0.88060 ,3.10833 ,30.49894 
131 ,23.8229 ,0.88235 ,3.08095 ,30.23031 
132 ,23.9990 ,0.88407 ,3.05358 ,29.96169 
133 ,24.1752 ,0.88590 ,3.03304 ,29.76022 
134 ,24.3667 ,0.88777 ,3.04673 ,29.89453 
135 ,24.5433 ,0.88958 ,3.02620 ,29.69306 
136 ,24.7194 ,0.89135 ,3.00567 ,29.49159 
137 ,24.9114 ,0.89318 ,2.99882 ,29.42444 
138 ,25.0874 ,0.89501 ,2.98171 ,29.25654 
139 ,25.2635 ,0.89673 ,2.94749 ,28.92076 
140 ,25.4235 ,0.89848 ,2.94064 ,28.85360 
141 ,25.6156 ,0.90024 ,2.90300 ,28.48424 
142 ,25.7918 ,0.90205 ,2.90985 ,28.55140 
143 ,25.9677 ,0.90382 ,2.88247 ,28.28277 
144 ,26.1439 ,0.90558 ,2.88931 ,28.34993 
145 ,26.3198 ,0.90731 ,2.85851 ,28.04772 
146 ,26.4960 ,0.90919 ,2.83114 ,27.77910 
147 ,26.6721 ,0.91086 ,2.83114 ,27.77910 
148 ,26.8480 ,0.91258 ,2.81402 ,27.61121 
149 ,27.0403 ,0.91449 ,2.80376 ,27.51047 
150 ,27.2324 ,0.91644 ,2.75585 ,27.04038 
151 ,27.4083 ,0.91819 ,2.76611 ,27.14111 
152 ,27.5846 ,0.91998 ,2.74216 ,26.90606 
153 ,27.7604 ,0.92171 ,2.73531 ,26.83891 
154 ,27.9365 ,0.92348 ,2.71136 ,26.60386 
155 ,28.1127 ,0.92521 ,2.68740 ,26.36881 
156 ,28.2887 ,0.92702 ,2.68056 ,26.30165 
157 ,28.4646 ,0.92877 ,2.66345 ,26.13376 
158 ,28.6407 ,0.93056 ,2.64292 ,25.93229 
159 ,28.8330 ,0.93243 ,2.62581 ,25.76440 
160 ,29.0090 ,0.93421 ,2.60527 ,25.56293 
161 ,29.2012 ,0.93614 ,2.60185 ,25.52935 
162 ,29.3933 ,0.93804 ,2.57105 ,25.22715 
163 ,29.5689 ,0.93982 ,2.56078 ,25.12641 
164 ,29.7454 ,0.94154 ,2.54710 ,24.99210 
165 ,29.9374 ,0.94348 ,2.54710 ,24.99210 
166 ,30.1134 ,0.94525 ,2.50261 ,24.55558 
167 ,30.2896 ,0.94700 ,2.49918 ,24.52200 
168 ,30.4656 ,0.94877 ,2.49576 ,24.48842 
169 ,30.6413 ,0.95050 ,2.47865 ,24.32053 
170 ,30.8178 ,0.95227 ,2.43759 ,23.91759 
171 ,30.9940 ,0.95406 ,2.43074 ,23.85044 
172 ,31.1859 ,0.95594 ,2.43074 ,23.85044 
173 ,31.3619 ,0.95776 ,2.42732 ,23.81686 
174 ,31.5377 ,0.95944 ,2.37941 ,23.34676 
175 ,31.7136 ,0.96120 ,2.34861 ,23.04456 
176 ,31.8906 ,0.96302 ,2.35203 ,23.07814 
177 ,32.0662 ,0.96476 ,2.35203 ,23.07814 
178 ,32.2421 ,0.96652 ,2.33492 ,22.91024 
179 ,32.4184 ,0.96824 ,2.30754 ,22.64162 
180 ,32.5944 ,0.97003 ,2.28701 ,22.44015 
181 ,32.7865 ,0.97191 ,2.28017 ,22.37299 
182 ,32.9625 ,0.97372 ,2.26306 ,22.20510 
183 ,33.1387 ,0.97547 ,2.26306 ,22.20510 
184 ,33.3469 ,0.97751 ,2.23568 ,21.93647 
185 ,33.5228 ,0.97932 ,2.22199 ,21.80216 
186 ,33.7308 ,0.98131 ,2.19461 ,21.53353 
187 ,33.9069 ,0.98315 ,2.18777 ,21.46638 
188 ,34.0832 ,0.98494 ,2.18435 ,21.43280 
189 ,34.2591 ,0.98669 ,2.16723 ,21.26491 
190 ,34.4508 ,0.98862 ,2.13644 ,20.96270 
191 ,34.6107 ,0.99032 ,2.12617 ,20.86197 
192 ,34.7707 ,0.99193 ,2.09879 ,20.59334 
193 ,34.9312 ,0.99348 ,2.09879 ,20.59334 
194 ,35.1071 ,0.99518 ,2.07484 ,20.35829 
195 ,35.2835 ,0.99692 ,2.08510 ,20.45903 
196 ,35.4596 ,0.99869 ,2.06115 ,20.22398 
197 ,35.6356 ,1.00045 ,2.03377 ,19.95535 
198 ,35.8112 ,1.00217 ,2.01324 ,19.75388 
199 ,35.9876 ,1.00395 ,2.00982 ,19.72031 
200 ,36.1797 ,1.00587 ,2.01324 ,19.75388 
201 ,36.3717 ,1.00773 ,1.98244 ,19.45168 
202 ,36.5480 ,1.00956 ,1.95848 ,19.21663 
203 ,36.7240 ,1.01134 ,1.95164 ,19.14948 
204 ,36.9001 ,1.01307 ,1.93795 ,19.01516 
205 ,37.0762 ,1.01485 ,1.91742 ,18.81369 
206 ,37.2682 ,1.01672 ,1.89688 ,18.61222 
207 ,37.4444 ,1.01851 ,1.89346 ,18.57864 
208 ,37.6205 ,1.02033 ,1.89004 ,18.54507 
209 ,37.8285 ,1.02233 ,1.85924 ,18.24286 
210 ,37.9884 ,1.02405 ,1.85240 ,18.17570 
211 ,38.1646 ,1.02570 ,1.83528 ,18.00781 
212 ,38.3568 ,1.02756 ,1.83186 ,17.97423 
213 ,38.5329 ,1.02941 ,1.79080 ,17.57129 
214 ,38.7409 ,1.03138 ,1.78737 ,17.53772 
215 ,38.9330 ,1.03341 ,1.74973 ,17.16836 
216 ,39.1092 ,1.03516 ,1.74973 ,17.16836 
217 ,39.2850 ,1.03693 ,1.75315 ,17.20193 
218 ,39.4610 ,1.03868 ,1.73262 ,17.00046 
219 ,39.6373 ,1.04046 ,1.71551 ,16.83257 
220 ,39.8292 ,1.04236 ,1.68471 ,16.53037 
221 ,40.0215 ,1.04428 ,1.69840 ,16.66468 
222 ,40.1975 ,1.04606 ,1.67102 ,16.39605 
223 ,40.3895 ,1.04792 ,1.64364 ,16.12743 
224 ,40.5652 ,1.04966 ,1.63338 ,16.02669 
225 ,40.7415 ,1.05145 ,1.62995 ,15.99311 
226 ,40.9335 ,1.05333 ,1.60942 ,15.79164 
227 ,41.1099 ,1.05512 ,1.58547 ,15.55660 
228 ,41.2858 ,1.05696 ,1.56836 ,15.38871 
229 ,41.4779 ,1.05880 ,1.57178 ,15.42228 
230 ,41.6541 ,1.06059 ,1.55124 ,15.22081 
231 ,41.8301 ,1.06238 ,1.53413 ,15.05292 
232 ,42.0063 ,1.06412 ,1.51702 ,14.88503 
233 ,42.1981 ,1.06597 ,1.50676 ,14.78430 
234 ,42.3905 ,1.06797 ,1.48622 ,14.58283 
235 ,42.5985 ,1.06993 ,1.47253 ,14.44851 
236 ,42.7746 ,1.07181 ,1.48965 ,14.61640 
237 ,42.9503 ,1.07356 ,1.44516 ,14.17989 
238 ,43.1267 ,1.07534 ,1.43489 ,14.07915 
239 ,43.3025 ,1.07706 ,1.43147 ,14.04557 
240 ,43.4788 ,1.07888 ,1.42120 ,13.94484 
241 ,43.6869 ,1.08088 ,1.39383 ,13.67621 
242 ,43.8630 ,1.08269 ,1.38698 ,13.60906 
243 ,44.0390 ,1.08445 ,1.37329 ,13.47474 
244 ,44.2148 ,1.08616 ,1.36987 ,13.44116 
245 ,44.4071 ,1.08811 ,1.34249 ,13.17254 
246 ,44.5832 ,1.08990 ,1.33223 ,13.07180 
247 ,44.7594 ,1.09165 ,1.33565 ,13.10538 
248 ,44.9354 ,1.09343 ,1.31512 ,12.90391 
249 ,45.1275 ,1.09531 ,1.28089 ,12.56813 
250 ,45.3194 ,1.09716 ,1.28432 ,12.60171 
251 ,45.4955 ,1.09897 ,1.27063 ,12.46739 
252 ,45.6877 ,1.10088 ,1.24325 ,12.19877 
253 ,45.8639 ,1.10268 ,1.22614 ,12.03088 
254 ,46.0718 ,1.10468 ,1.20903 ,11.86298 
255 ,46.2476 ,1.10647 ,1.19534 ,11.72867 
256 ,46.4239 ,1.10827 ,1.19534 ,11.72867 
257 ,46.6161 ,1.11016 ,1.19534 ,11.72867 
258 ,46.8081 ,1.11213 ,1.16112 ,11.39289 
259 ,46.9843 ,1.11394 ,1.16112 ,11.39289 
260 ,47.1761 ,1.11574 ,1.15770 ,11.35931 
261 ,47.3524 ,1.11751 ,1.13374 ,11.12426 
262 ,47.5441 ,1.11934 ,1.11663 ,10.95637 
263 ,47.7205 ,1.12125 ,1.12005 ,10.98995 
264 ,47.9285 ,1.12331 ,1.08925 ,10.68774 
265 ,48.1048 ,1.12503 ,1.07214 ,10.51985 
266 ,48.2968 ,1.12701 ,1.08241 ,10.62059 
267 ,48.4729 ,1.12875 ,1.06187 ,10.41912 
268 ,48.6489 ,1.13055 ,1.03450 ,10.15049 
269 ,48.8250 ,1.13221 ,1.02423 ,10.04976 
270 ,49.0012 ,1.13404 ,1.01739 ,9.98260 
271 ,49.1771 ,1.13583 ,1.02081 ,10.01618 
272 ,49.3693 ,1.13768 ,0.98659 ,9.68039 
273 ,49.5453 ,1.13952 ,0.96605 ,9.47892 
274 ,49.7213 ,1.14119 ,0.96605 ,9.47892 
275 ,49.8974 ,1.14303 ,0.96605 ,9.47892 
276 ,50.0896 ,1.14485 ,0.96605 ,9.47892 
277 ,50.2654 ,1.14669 ,0.92499 ,9.07598 
278 ,50.4577 ,1.14855 ,0.92841 ,9.10956 
279 ,50.6336 ,1.15038 ,0.91472 ,8.97525 
280 ,50.8098 ,1.15223 ,0.88734 ,8.70662 
281 ,50.9859 ,1.15383 ,0.86681 ,8.50515 
282 ,51.1616 ,1.15565 ,0.86339 ,8.47158 
283 ,51.3381 ,1.15736 ,0.86339 ,8.47158 
284 ,51.5142 ,1.15917 ,0.85654 ,8.40442 
285 ,51.7062 ,1.16102 ,0.83601 ,8.20295 
286 ,51.8823 ,1.16284 ,0.79837 ,7.83359 
287 ,52.0584 ,1.16463 ,0.80863 ,7.93432 
288 ,52.2504 ,1.16650 ,0.79495 ,7.80001 
289 ,52.4265 ,1.16832 ,0.77099 ,7.56496 
290 ,52.6185 ,1.17016 ,0.77441 ,7.59854 
291 ,52.7946 ,1.17195 ,0.76757 ,7.53138 
292 ,52.9707 ,1.17378 ,0.74704 ,7.32991 
293 ,53.1627 ,1.17568 ,0.72650 ,7.12844 
294 ,53.3389 ,1.17737 ,0.71966 ,7.06129 
295 ,53.5150 ,1.17918 ,0.71281 ,6.99413 
296 ,53.6910 ,1.18088 ,0.69913 ,6.85982 
297 ,53.8827 ,1.18286 ,0.67517 ,6.62477 
298 ,54.0591 ,1.18457 ,0.66490 ,6.52403 
299 ,54.2513 ,1.18651 ,0.65121 ,6.38972 
300 ,54.4274 ,1.18830 ,0.63410 ,6.22183 
301 ,54.6035 ,1.19007 ,0.61015 ,5.98678 
302 ,54.7793 ,1.19183 ,0.58962 ,5.78531 
303 ,54.9712 ,1.19365 ,0.60673 ,5.95320 
304 ,55.1477 ,1.19549 ,0.58619 ,5.75173 
305 ,55.3397 ,1.19735 ,0.58619 ,5.75173 
306 ,55.5159 ,1.19913 ,0.56224 ,5.51668 
307 ,55.6919 ,1.20094 ,0.55882 ,5.48311 
308 ,55.8840 ,1.20282 ,0.52459 ,5.14732 
309 ,56.0598 ,1.20463 ,0.51775 ,5.08017 
310 ,56.2358 ,1.20638 ,0.51775 ,5.08017 
311 ,56.4121 ,1.20814 ,0.49380 ,4.84512 
312 ,56.5883 ,1.20989 ,0.48353 ,4.74438 
313 ,56.7643 ,1.21167 ,0.46642 ,4.57649 
314 ,56.9563 ,1.21350 ,0.46300 ,4.54291 
315 ,57.1324 ,1.21534 ,0.44588 ,4.37502 
316 ,57.3085 ,1.21704 ,0.43220 ,4.24071 
317 ,57.5006 ,1.21892 ,0.42877 ,4.20713 
318 ,57.6766 ,1.22075 ,0.40824 ,4.00566 
319 ,57.8688 ,1.22257 ,0.41851 ,4.10640 
320 ,58.0448 ,1.22443 ,0.37402 ,3.66988 
321 ,58.2367 ,1.22627 ,0.38086 ,3.73703 
322 ,58.4290 ,1.22820 ,0.36033 ,3.53557 
323 ,58.6052 ,1.23005 ,0.35006 ,3.43483 
324 ,58.7809 ,1.23181 ,0.32953 ,3.23336 
325 ,58.9572 ,1.23350 ,0.32269 ,3.16620 
326 ,59.1489 ,1.23547 ,0.31584 ,3.09905 
327 ,59.3250 ,1.23723 ,0.30215 ,2.96473 
328 ,59.5171 ,1.23911 ,0.30558 ,2.99831 
329 ,59.6934 ,1.24092 ,0.29189 ,2.86400 
330 ,59.8695 ,1.24267 ,0.24055 ,2.36032 
331 ,60.0455 ,1.24443 ,0.24398 ,2.39390 
332 ,60.2372 ,1.24637 ,0.22344 ,2.19243 
333 ,60.4136 ,1.24809 ,0.23713 ,2.32675 
334 ,60.5900 ,1.24988 ,0.21318 ,2.09170 
335 ,60.7819 ,1.25178 ,0.19607 ,1.92381 
336 ,60.9580 ,1.25361 ,0.18580 ,1.82307 
337 ,61.1338 ,1.25532 ,0.19264 ,1.89023 
338 ,61.3100 ,1.25707 ,0.17553 ,1.72234 
339 ,61.4862 ,1.25882 ,0.15500 ,1.52087 
340 ,61.6623 ,1.26063 ,0.14473 ,1.42013 
341 ,61.8381 ,1.26236 ,0.12420 ,1.21866 
342 ,62.0304 ,1.26418 ,0.12762 ,1.25224 
343 ,62.2222 ,1.26612 ,0.10709 ,1.05077 
344 ,62.3985 ,1.26793 ,0.10367 ,1.01719 
345 ,62.5906 ,1.26985 ,0.10367 ,1.01719 
346 ,62.7666 ,1.27164 ,0.08998 ,0.88288 
347 ,62.9588 ,1.27357 ,0.05918 ,0.58067 
348 ,63.1347 ,1.27535 ,0.05918 ,0.58067 
349 ,63.3265 ,1.27723 ,0.04549 ,0.44636 
350 ,63.5026 ,1.27901 ,0.04549 ,0.44636 
351 ,63.6946 ,1.28086 ,0.01469 ,0.14416 
352 ,63.8706 ,1.28268 ,0.02154 ,0.21131 
353 ,64.0471 ,1.28447 ,0.00443 ,0.04342 
354 ,64.2549 ,1.28648 ,0.00100 ,0.00984 
355 ,64.4312 ,1.28828 ,-0.02295 ,-0.22520 
356 ,64.6234 ,1.29017 ,-0.05033 ,-0.49383 
357 ,64.8315 ,1.29224 ,-0.04348 ,-0.42667 
358 ,65.0075 ,1.29402 ,-0.06060 ,-0.59457 
359 ,65.1994 ,1.29600 ,-0.08455 ,-0.82961 
360 ,65.3918 ,1.29778 ,-0.07771 ,-0.76246 
361 ,65.5838 ,1.29983 ,-0.09824 ,-0.96393 
362 ,65.7599 ,1.30157 ,-0.10851 ,-1.06466 
363 ,65.9519 ,1.30352 ,-0.11193 ,-1.09824 
364 ,66.1280 ,1.30521 ,-0.12562 ,-1.23255 
365 ,66.3521 ,1.30737 ,-0.12904 ,-1.26613 
366 ,66.5281 ,1.30921 ,-0.13931 ,-1.36687 
367 ,66.7043 ,1.31098 ,-0.16326 ,-1.60191 
368 ,66.8963 ,1.31291 ,-0.17011 ,-1.66907 
369 ,67.0724 ,1.31474 ,-0.17353 ,-1.70265 
370 ,67.2642 ,1.31660 ,-0.19748 ,-1.93770 
371 ,67.4404 ,1.31832 ,-0.19748 ,-1.93770 
372 ,67.6323 ,1.32015 ,-0.20433 ,-2.00485 
373 ,67.8085 ,1.32205 ,-0.20433 ,-2.00485 
374 ,67.9847 ,1.32383 ,-0.21802 ,-2.13917 
375 ,68.1608 ,1.32553 ,-0.23513 ,-2.30706 
376 ,68.3368 ,1.32734 ,-0.25908 ,-2.54211 
377 ,68.5127 ,1.32904 ,-0.23513 ,-2.30706 
378 ,68.6889 ,1.33087 ,-0.24881 ,-2.44137 
379 ,68.8651 ,1.33263 ,-0.25908 ,-2.54211 
380 ,69.0571 ,1.33449 ,-0.27961 ,-2.74358 
381 ,69.2332 ,1.33623 ,-0.26935 ,-2.64284 
382 ,69.4093 ,1.33807 ,-0.27961 ,-2.74358 
383 ,69.5854 ,1.33979 ,-0.28988 ,-2.84431 
384 ,69.7611 ,1.34155 ,-0.32410 ,-3.18010 
385 ,69.9373 ,1.34336 ,-0.32068 ,-3.14652 
386 ,70.1291 ,1.34524 ,-0.32410 ,-3.18010 
387 ,70.2894 ,1.34696 ,-0.33095 ,-3.24725 
388 ,70.4658 ,1.34857 ,-0.35148 ,-3.44872 
389 ,70.6418 ,1.35040 ,-0.34806 ,-3.41514 
390 ,70.8177 ,1.35210 ,-0.36517 ,-3.58303 
391 ,71.0099 ,1.35404 ,-0.35832 ,-3.51588 
392 ,71.2020 ,1.35596 ,-0.38570 ,-3.78450 
393 ,71.3942 ,1.35782 ,-0.37886 ,-3.71735 
394 ,71.5860 ,1.35983 ,-0.38570 ,-3.78450 
395 ,71.7618 ,1.36158 ,-0.41650 ,-4.08671 
396 ,71.9218 ,1.36325 ,-0.41992 ,-4.12029 
397 ,72.0984 ,1.36490 ,-0.43703 ,-4.28818 
398 ,72.2903 ,1.36676 ,-0.44046 ,-4.32176 
399 ,72.4664 ,1.36862 ,-0.44046 ,-4.32176 
400 ,72.6425 ,1.37034 ,-0.45414 ,-4.45607 
401 ,72.8186 ,1.37210 ,-0.47468 ,-4.65754 
402 ,72.9946 ,1.37388 ,-0.48837 ,-4.79185 
403 ,73.1708 ,1.37563 ,-0.48152 ,-4.72470 
404 ,73.3469 ,1.37738 ,-0.48837 ,-4.79185 
405 ,73.5230 ,1.37918 ,-0.50206 ,-4.92617 
406 ,73.6992 ,1.38090 ,-0.53285 ,-5.22837 
407 ,73.8909 ,1.38281 ,-0.52601 ,-5.16121 
408 ,74.0672 ,1.38456 ,-0.51232 ,-5.02690 
409 ,74.2433 ,1.38633 ,-0.54312 ,-5.32911 
410 ,74.4194 ,1.38816 ,-0.54997 ,-5.39626 
411 ,74.5952 ,1.38995 ,-0.55681 ,-5.46342 
412 ,74.7712 ,1.39163 ,-0.56365 ,-5.53058 
413 ,74.9474 ,1.39342 ,-0.54997 ,-5.39626 
414 ,75.1236 ,1.39517 ,-0.58761 ,-5.76562 
415 ,75.2997 ,1.39689 ,-0.60130 ,-5.89994 
416 ,75.4757 ,1.39864 ,-0.60472 ,-5.93352 
417 ,75.6679 ,1.40065 ,-0.59788 ,-5.86636 
418 ,75.8440 ,1.40239 ,-0.61841 ,-6.06783 
419 ,76.0199 ,1.40417 ,-0.63552 ,-6.23572 
420 ,76.1959 ,1.40584 ,-0.63552 ,-6.23572 
421 ,76.3721 ,1.40763 ,-0.64921 ,-6.37003 
422 ,76.5802 ,1.40963 ,-0.64921 ,-6.37003 
423 ,76.7562 ,1.41148 ,-0.66632 ,-6.53793 
424 ,76.9483 ,1.41344 ,-0.65947 ,-6.47077 
425 ,77.1403 ,1.41533 ,-0.68343 ,-6.70582 
426 ,77.3163 ,1.41709 ,-0.69712 ,-6.84013 
427 ,77.5086 ,1.41892 ,-0.69370 ,-6.80655 
428 ,77.7006 ,1.42094 ,-0.70739 ,-6.94086 
429 ,77.8767 ,1.42271 ,-0.72107 ,-7.07518 
430 ,78.0526 ,1.42444 ,-0.72450 ,-7.10876 
431 ,78.2285 ,1.42623 ,-0.73134 ,-7.17591 
432 ,78.4046 ,1.42794 ,-0.72450 ,-7.10876 
433 ,78.5806 ,1.42970 ,-0.75187 ,-7.37738 
434 ,78.7570 ,1.43152 ,-0.75872 ,-7.44454 
435 ,78.9332 ,1.43336 ,-0.75530 ,-7.41096 
436 ,79.1092 ,1.43501 ,-0.76556 ,-7.51170 
437 ,79.2850 ,1.43677 ,-0.77583 ,-7.61243 
438 ,79.4615 ,1.43855 ,-0.78267 ,-7.67959 
439 ,79.6694 ,1.44050 ,-0.78267 ,-7.67959 
440 ,79.8456 ,1.44235 ,-0.79636 ,-7.81390 
441 ,80.0376 ,1.44425 ,-0.82716 ,-8.11611 
442 ,80.2138 ,1.44604 ,-0.82374 ,-8.08253 
443 ,80.4055 ,1.44797 ,-0.82032 ,-8.04895 
444 ,80.5819 ,1.44973 ,-0.84085 ,-8.25042 
445 ,80.7578 ,1.45145 ,-0.85454 ,-8.38473 
446 ,80.9500 ,1.45342 ,-0.84427 ,-8.28400 
447 ,81.1259 ,1.45517 ,-0.84769 ,-8.31758 
448 ,81.3021 ,1.45694 ,-0.85454 ,-8.38473 
449 ,81.4782 ,1.45865 ,-0.88534 ,-8.68694 
450 ,81.6542 ,1.46040 ,-0.88534 ,-8.68694 
451 ,81.8304 ,1.46219 ,-0.87849 ,-8.61978 
452 ,82.0225 ,1.46409 ,-0.90245 ,-8.85483 
453 ,82.1986 ,1.46592 ,-0.91614 ,-8.98914 
454 ,82.3905 ,1.46780 ,-0.90929 ,-8.92198 
455 ,82.5826 ,1.46965 ,-0.92983 ,-9.12345 
456 ,82.7746 ,1.47159 ,-0.92983 ,-9.12345 
457 ,82.9509 ,1.47341 ,-0.93325 ,-9.15703 
458 ,83.1428 ,1.47531 ,-0.94351 ,-9.25777 
459 ,83.3188 ,1.47712 ,-0.97089 ,-9.52639 
460 ,83.4950 ,1.47881 ,-0.97774 ,-9.59355 
461 ,83.6711 ,1.48060 ,-0.96405 ,-9.45924 
462 ,83.8633 ,1.48257 ,-0.96747 ,-9.49282 
