Data stamp = , 04-04-2022 05:28:02 622

Calibration Values: 
Slope = , 26.54 , g/V 
Offset Voltage at no contact = , -0.501760 , V 

No , Time , Stage Position ,   Mass , Force 
   ,  (s) ,      (mm)      ,   (g)  , (mN)  

1 ,0.0000 ,0.59932 ,5.18216 ,50.84739 
2 ,0.2114 ,0.59941 ,5.19243 ,50.94813 
3 ,0.5156 ,0.60018 ,5.20954 ,51.11602 
4 ,0.6918 ,0.60143 ,5.18559 ,50.88097 
5 ,0.8997 ,0.60302 ,5.17874 ,50.81381 
6 ,1.0919 ,0.60499 ,5.19585 ,50.98170 
7 ,1.2679 ,0.60665 ,5.18901 ,50.91455 
8 ,1.4443 ,0.60847 ,5.16848 ,50.71308 
9 ,1.6201 ,0.61028 ,5.15136 ,50.54519 
10 ,1.8118 ,0.61220 ,5.13768 ,50.41087 
11 ,1.9884 ,0.61400 ,5.13083 ,50.34372 
12 ,2.1801 ,0.61589 ,5.10345 ,50.07509 
13 ,2.3563 ,0.61762 ,5.07950 ,49.84004 
14 ,2.5323 ,0.61937 ,5.08292 ,49.87362 
15 ,2.7085 ,0.62120 ,5.04870 ,49.53784 
16 ,2.8683 ,0.62286 ,5.03501 ,49.40352 
17 ,3.0448 ,0.62453 ,5.02474 ,49.30279 
18 ,3.2207 ,0.62630 ,5.00079 ,49.06774 
19 ,3.3969 ,0.62809 ,4.98026 ,48.86627 
20 ,3.5890 ,0.62996 ,4.96999 ,48.76554 
21 ,3.7645 ,0.63173 ,4.95630 ,48.63122 
22 ,3.9407 ,0.63347 ,4.92892 ,48.36260 
23 ,4.1172 ,0.63522 ,4.91181 ,48.19471 
24 ,4.2932 ,0.63702 ,4.90839 ,48.16113 
25 ,4.4693 ,0.63880 ,4.89470 ,48.02681 
26 ,4.6453 ,0.64054 ,4.86732 ,47.75819 
27 ,4.8372 ,0.64236 ,4.85364 ,47.62387 
28 ,5.0290 ,0.64433 ,4.83310 ,47.42240 
29 ,5.2054 ,0.64609 ,4.82284 ,47.32167 
30 ,5.3817 ,0.64787 ,4.79204 ,47.01946 
31 ,5.5575 ,0.64966 ,4.79204 ,47.01946 
32 ,5.7494 ,0.65143 ,4.77150 ,46.81800 
33 ,5.9255 ,0.65329 ,4.75782 ,46.68368 
34 ,6.1019 ,0.65507 ,4.72702 ,46.38148 
35 ,6.2778 ,0.65679 ,4.71333 ,46.24716 
36 ,6.4540 ,0.65860 ,4.70990 ,46.21359 
37 ,6.6301 ,0.66040 ,4.69964 ,46.11285 
38 ,6.8222 ,0.66224 ,4.66199 ,45.74349 
39 ,6.9982 ,0.66406 ,4.64831 ,45.60918 
40 ,7.1583 ,0.66572 ,4.63119 ,45.44128 
41 ,7.3505 ,0.66743 ,4.62093 ,45.34055 
42 ,7.5584 ,0.66954 ,4.59697 ,45.10550 
43 ,7.7346 ,0.67139 ,4.58671 ,45.00477 
44 ,7.9103 ,0.67320 ,4.56617 ,44.80330 
45 ,8.0866 ,0.67488 ,4.54564 ,44.60183 
46 ,8.2784 ,0.67683 ,4.53537 ,44.50109 
47 ,8.4552 ,0.67859 ,4.51826 ,44.33320 
48 ,8.6468 ,0.68046 ,4.50457 ,44.19889 
49 ,8.8390 ,0.68246 ,4.47035 ,43.86310 
50 ,9.0151 ,0.68416 ,4.48062 ,43.96384 
51 ,9.1913 ,0.68600 ,4.46351 ,43.79595 
52 ,9.3832 ,0.68779 ,4.42586 ,43.42659 
53 ,9.5753 ,0.68982 ,4.41560 ,43.32585 
54 ,9.7516 ,0.69157 ,4.40875 ,43.25870 
55 ,9.9275 ,0.69334 ,4.38480 ,43.02365 
56 ,10.1193 ,0.69523 ,4.38138 ,42.99007 
57 ,10.2953 ,0.69697 ,4.35742 ,42.75502 
58 ,10.4717 ,0.69878 ,4.35742 ,42.75502 
59 ,10.6638 ,0.70059 ,4.31293 ,42.31850 
60 ,10.8397 ,0.70245 ,4.29582 ,42.15061 
61 ,11.0317 ,0.70429 ,4.29240 ,42.11703 
62 ,11.2078 ,0.70611 ,4.26845 ,41.88198 
63 ,11.3835 ,0.70801 ,4.25476 ,41.74767 
64 ,11.5604 ,0.70965 ,4.23422 ,41.54620 
65 ,11.7522 ,0.71151 ,4.22396 ,41.44547 
66 ,11.9282 ,0.71333 ,4.21369 ,41.34473 
67 ,12.1043 ,0.71506 ,4.17947 ,41.00895 
68 ,12.2963 ,0.71702 ,4.17605 ,40.97537 
69 ,12.4562 ,0.71872 ,4.15551 ,40.77390 
70 ,12.6325 ,0.72032 ,4.13498 ,40.57243 
71 ,12.8247 ,0.72228 ,4.12129 ,40.43812 
72 ,13.0007 ,0.72406 ,4.09391 ,40.16949 
73 ,13.1927 ,0.72599 ,4.09734 ,40.20307 
74 ,13.3688 ,0.72773 ,4.08023 ,40.03518 
75 ,13.5285 ,0.72945 ,4.04258 ,39.66582 
76 ,13.7048 ,0.73105 ,4.01520 ,39.39719 
77 ,13.8811 ,0.73286 ,4.01178 ,39.36361 
78 ,14.0729 ,0.73486 ,4.01863 ,39.43077 
79 ,14.2494 ,0.73653 ,3.98441 ,39.09499 
80 ,14.4410 ,0.73843 ,3.97414 ,38.99425 
81 ,14.6012 ,0.74015 ,3.95361 ,38.79278 
82 ,14.7768 ,0.74179 ,3.95361 ,38.79278 
83 ,14.9695 ,0.74362 ,3.91596 ,38.42342 
84 ,15.1615 ,0.74561 ,3.89885 ,38.25553 
85 ,15.3376 ,0.74741 ,3.89543 ,38.22195 
86 ,15.5296 ,0.74929 ,3.87147 ,37.98690 
87 ,15.7057 ,0.75108 ,3.84752 ,37.75185 
88 ,15.8978 ,0.75300 ,3.86121 ,37.88617 
89 ,16.0739 ,0.75480 ,3.83725 ,37.65112 
90 ,16.2659 ,0.75669 ,3.81330 ,37.41607 
91 ,16.4420 ,0.75845 ,3.79276 ,37.21460 
92 ,16.6178 ,0.76022 ,3.77908 ,37.08029 
93 ,16.7943 ,0.76198 ,3.78250 ,37.11387 
94 ,16.9863 ,0.76391 ,3.74143 ,36.71093 
95 ,17.1786 ,0.76579 ,3.73459 ,36.64377 
96 ,17.3543 ,0.76758 ,3.72432 ,36.54303 
97 ,17.5303 ,0.76931 ,3.69694 ,36.27441 
98 ,17.7223 ,0.77119 ,3.69010 ,36.20725 
99 ,17.9143 ,0.77306 ,3.67641 ,36.07294 
100 ,18.0907 ,0.77491 ,3.64903 ,35.80431 
101 ,18.2985 ,0.77694 ,3.65246 ,35.83789 
102 ,18.4748 ,0.77873 ,3.63192 ,35.63642 
103 ,18.6668 ,0.78059 ,3.60797 ,35.40137 
104 ,18.8590 ,0.78258 ,3.60112 ,35.33422 
105 ,19.0512 ,0.78446 ,3.56348 ,34.96485 
106 ,19.2272 ,0.78628 ,3.54295 ,34.76338 
107 ,19.4032 ,0.78806 ,3.52926 ,34.62907 
108 ,19.5793 ,0.78978 ,3.53268 ,34.66265 
109 ,19.7552 ,0.79160 ,3.51557 ,34.49476 
110 ,19.9154 ,0.79325 ,3.49161 ,34.25971 
111 ,20.0914 ,0.79491 ,3.46766 ,34.02466 
112 ,20.2672 ,0.79666 ,3.46766 ,34.02466 
113 ,20.4436 ,0.79846 ,3.45055 ,33.85677 
114 ,20.6195 ,0.80018 ,3.44370 ,33.78961 
115 ,20.7958 ,0.80206 ,3.41975 ,33.55457 
116 ,20.9559 ,0.80365 ,3.38895 ,33.25236 
117 ,21.1317 ,0.80529 ,3.38210 ,33.18520 
118 ,21.3078 ,0.80708 ,3.38210 ,33.18520 
119 ,21.4841 ,0.80880 ,3.36499 ,33.01731 
120 ,21.6921 ,0.81082 ,3.34788 ,32.84942 
121 ,21.8843 ,0.81279 ,3.33077 ,32.68153 
122 ,22.0601 ,0.81461 ,3.31708 ,32.54722 
123 ,22.2523 ,0.81649 ,3.27602 ,32.14428 
124 ,22.4285 ,0.81830 ,3.27944 ,32.17786 
125 ,22.6041 ,0.82006 ,3.26233 ,32.00996 
126 ,22.7806 ,0.82180 ,3.26233 ,32.00996 
127 ,22.9567 ,0.82356 ,3.23495 ,31.74134 
128 ,23.1327 ,0.82530 ,3.20757 ,31.47271 
129 ,23.3086 ,0.82709 ,3.18704 ,31.27124 
130 ,23.4848 ,0.82882 ,3.21100 ,31.50629 
131 ,23.6609 ,0.83063 ,3.18362 ,31.23766 
132 ,23.8369 ,0.83234 ,3.17677 ,31.17051 
133 ,24.0291 ,0.83425 ,3.15282 ,30.93546 
134 ,24.2211 ,0.83616 ,3.14940 ,30.90188 
135 ,24.3973 ,0.83793 ,3.10491 ,30.46536 
136 ,24.5733 ,0.83974 ,3.08780 ,30.29747 
137 ,24.7652 ,0.84158 ,3.08095 ,30.23031 
138 ,24.9411 ,0.84343 ,3.08095 ,30.23031 
139 ,25.1173 ,0.84518 ,3.05015 ,29.92811 
140 ,25.3095 ,0.84704 ,3.02962 ,29.72664 
141 ,25.5017 ,0.84903 ,3.03647 ,29.79380 
142 ,25.6777 ,0.85079 ,3.01935 ,29.62590 
143 ,25.8854 ,0.85268 ,3.00909 ,29.52517 
144 ,26.0615 ,0.85459 ,2.98513 ,29.29012 
145 ,26.2214 ,0.85630 ,2.96460 ,29.08865 
146 ,26.3978 ,0.85795 ,2.95776 ,29.02150 
147 ,26.5737 ,0.85974 ,2.94064 ,28.85360 
148 ,26.7498 ,0.86149 ,2.90985 ,28.55140 
149 ,26.9258 ,0.86321 ,2.89958 ,28.45066 
150 ,27.1023 ,0.86502 ,2.89958 ,28.45066 
151 ,27.3101 ,0.86704 ,2.87905 ,28.24919 
152 ,27.4864 ,0.86883 ,2.87220 ,28.18204 
153 ,27.6785 ,0.87079 ,2.84482 ,27.91341 
154 ,27.8706 ,0.87273 ,2.81060 ,27.57763 
155 ,28.0466 ,0.87443 ,2.81060 ,27.57763 
156 ,28.2229 ,0.87621 ,2.79691 ,27.44332 
157 ,28.4307 ,0.87824 ,2.78665 ,27.34258 
158 ,28.6069 ,0.88006 ,2.76611 ,27.14111 
159 ,28.7831 ,0.88178 ,2.75927 ,27.07395 
160 ,28.9591 ,0.88354 ,2.74216 ,26.90606 
161 ,29.1351 ,0.88530 ,2.71136 ,26.60386 
162 ,29.3270 ,0.88726 ,2.71136 ,26.60386 
163 ,29.5353 ,0.88923 ,2.68398 ,26.33523 
164 ,29.7273 ,0.89127 ,2.68056 ,26.30165 
165 ,29.9033 ,0.89299 ,2.67372 ,26.23450 
166 ,30.0795 ,0.89475 ,2.63607 ,25.86514 
167 ,30.2713 ,0.89666 ,2.61212 ,25.63009 
168 ,30.4478 ,0.89845 ,2.61896 ,25.69724 
169 ,30.6396 ,0.90032 ,2.60527 ,25.56293 
170 ,30.8318 ,0.90217 ,2.57447 ,25.26073 
171 ,31.0079 ,0.90408 ,2.57105 ,25.22715 
172 ,31.2000 ,0.90590 ,2.53341 ,24.85779 
173 ,31.3759 ,0.90772 ,2.54025 ,24.92494 
174 ,31.6001 ,0.90984 ,2.53341 ,24.85779 
175 ,31.7922 ,0.91183 ,2.49918 ,24.52200 
176 ,31.9678 ,0.91368 ,2.49576 ,24.48842 
177 ,32.1444 ,0.91539 ,2.48550 ,24.38769 
178 ,32.3683 ,0.91759 ,2.46839 ,24.21980 
179 ,32.5442 ,0.91941 ,2.45470 ,24.08549 
180 ,32.7202 ,0.92119 ,2.43074 ,23.85044 
181 ,32.8967 ,0.92295 ,2.40336 ,23.58181 
182 ,33.0726 ,0.92469 ,2.39310 ,23.48108 
183 ,33.2488 ,0.92644 ,2.39652 ,23.51465 
184 ,33.4568 ,0.92845 ,2.36572 ,23.21245 
185 ,33.6487 ,0.93034 ,2.34177 ,22.97740 
186 ,33.8251 ,0.93224 ,2.35203 ,23.07814 
187 ,34.0331 ,0.93428 ,2.31439 ,22.70877 
188 ,34.2091 ,0.93604 ,2.31781 ,22.74235 
189 ,34.3852 ,0.93776 ,2.30412 ,22.60804 
190 ,34.5613 ,0.93961 ,2.29385 ,22.50731 
191 ,34.7370 ,0.94135 ,2.27332 ,22.30584 
192 ,34.9135 ,0.94307 ,2.23910 ,21.97005 
193 ,35.0894 ,0.94496 ,2.25279 ,22.10437 
194 ,35.2654 ,0.94662 ,2.23910 ,21.97005 
195 ,35.4416 ,0.94836 ,2.22883 ,21.86932 
196 ,35.6178 ,0.95011 ,2.20488 ,21.63427 
197 ,35.7935 ,0.95187 ,2.18777 ,21.46638 
198 ,35.9696 ,0.95365 ,2.19119 ,21.49996 
199 ,36.1459 ,0.95540 ,2.16723 ,21.26491 
200 ,36.3221 ,0.95719 ,2.16039 ,21.19775 
201 ,36.4981 ,0.95896 ,2.13644 ,20.96270 
202 ,36.6741 ,0.96066 ,2.11590 ,20.76123 
203 ,36.8500 ,0.96240 ,2.11248 ,20.72766 
204 ,37.0263 ,0.96420 ,2.09537 ,20.55976 
205 ,37.2345 ,0.96618 ,2.07826 ,20.39187 
206 ,37.4104 ,0.96806 ,2.05430 ,20.15682 
207 ,37.5864 ,0.96981 ,2.06115 ,20.22398 
208 ,37.7787 ,0.97168 ,2.01324 ,19.75388 
209 ,37.9546 ,0.97347 ,2.00639 ,19.68673 
210 ,38.1147 ,0.97521 ,2.01666 ,19.78746 
211 ,38.2907 ,0.97680 ,1.99955 ,19.61957 
212 ,38.4669 ,0.97860 ,1.98586 ,19.48526 
213 ,38.6589 ,0.98044 ,1.95506 ,19.18305 
214 ,38.8670 ,0.98254 ,1.94137 ,19.04874 
215 ,39.0431 ,0.98439 ,1.95164 ,19.14948 
216 ,39.2353 ,0.98628 ,1.91399 ,18.78011 
217 ,39.4273 ,0.98821 ,1.91742 ,18.81369 
218 ,39.6033 ,0.99002 ,1.90373 ,18.67938 
219 ,39.7794 ,0.99171 ,1.86951 ,18.34360 
220 ,39.9715 ,0.99363 ,1.86951 ,18.34360 
221 ,40.1635 ,0.99550 ,1.83871 ,18.04139 
222 ,40.3556 ,0.99743 ,1.83528 ,18.00781 
223 ,40.5638 ,0.99943 ,1.81475 ,17.80634 
224 ,40.7559 ,1.00152 ,1.80106 ,17.67203 
225 ,40.9319 ,1.00322 ,1.79080 ,17.57129 
226 ,41.1074 ,1.00498 ,1.77711 ,17.43698 
227 ,41.2841 ,1.00675 ,1.75657 ,17.23551 
228 ,41.4599 ,1.00857 ,1.75315 ,17.20193 
229 ,41.6363 ,1.01028 ,1.73946 ,17.06762 
230 ,41.8282 ,1.01214 ,1.72235 ,16.89973 
231 ,42.0044 ,1.01399 ,1.71209 ,16.79899 
232 ,42.1963 ,1.01587 ,1.67786 ,16.46321 
233 ,42.3562 ,1.01758 ,1.68129 ,16.49679 
234 ,42.5486 ,1.01933 ,1.66418 ,16.32890 
235 ,42.7244 ,1.02115 ,1.64707 ,16.16101 
236 ,42.9167 ,1.02299 ,1.63338 ,16.02669 
237 ,43.1249 ,1.02510 ,1.62995 ,15.99311 
238 ,43.3171 ,1.02710 ,1.61284 ,15.82522 
239 ,43.5250 ,1.02906 ,1.59573 ,15.65733 
240 ,43.7010 ,1.03091 ,1.57178 ,15.42228 
241 ,43.8771 ,1.03271 ,1.55809 ,15.28797 
242 ,44.0531 ,1.03440 ,1.54782 ,15.18724 
243 ,44.2610 ,1.03650 ,1.53071 ,15.01934 
244 ,44.4374 ,1.03830 ,1.51360 ,14.85145 
245 ,44.6294 ,1.04021 ,1.52045 ,14.91861 
246 ,44.8054 ,1.04195 ,1.49649 ,14.68356 
247 ,44.9812 ,1.04377 ,1.48280 ,14.54925 
248 ,45.1577 ,1.04543 ,1.47596 ,14.48209 
249 ,45.3494 ,1.04740 ,1.45200 ,14.24704 
250 ,45.5258 ,1.04916 ,1.44174 ,14.14631 
251 ,45.7016 ,1.05091 ,1.41436 ,13.87768 
252 ,45.8940 ,1.05282 ,1.42805 ,14.01199 
253 ,46.0698 ,1.05460 ,1.40751 ,13.81053 
254 ,46.2461 ,1.05639 ,1.39383 ,13.67621 
255 ,46.4218 ,1.05808 ,1.37329 ,13.47474 
256 ,46.5983 ,1.05989 ,1.35960 ,13.34043 
257 ,46.7903 ,1.06181 ,1.36987 ,13.44116 
258 ,46.9660 ,1.06352 ,1.33907 ,13.13896 
259 ,47.1424 ,1.06533 ,1.30143 ,12.76960 
260 ,47.3505 ,1.06737 ,1.31169 ,12.87033 
261 ,47.5262 ,1.06913 ,1.29116 ,12.66886 
262 ,47.7026 ,1.07090 ,1.28432 ,12.60171 
263 ,47.8627 ,1.07263 ,1.26720 ,12.43381 
264 ,48.0388 ,1.07429 ,1.25352 ,12.29950 
265 ,48.2309 ,1.07617 ,1.26036 ,12.36666 
266 ,48.4230 ,1.07811 ,1.21245 ,11.89656 
267 ,48.5990 ,1.07990 ,1.21929 ,11.96372 
268 ,48.7750 ,1.08168 ,1.22956 ,12.06445 
269 ,48.9514 ,1.08340 ,1.20903 ,11.86298 
270 ,49.1272 ,1.08516 ,1.17823 ,11.56078 
271 ,49.3034 ,1.08694 ,1.15427 ,11.32573 
272 ,49.4954 ,1.08894 ,1.15427 ,11.32573 
273 ,49.6713 ,1.09059 ,1.14743 ,11.25857 
274 ,49.8476 ,1.09235 ,1.13032 ,11.09068 
275 ,50.0396 ,1.09422 ,1.13032 ,11.09068 
276 ,50.2157 ,1.09604 ,1.11321 ,10.92279 
277 ,50.4076 ,1.09795 ,1.09952 ,10.78848 
278 ,50.5839 ,1.09973 ,1.07214 ,10.51985 
279 ,50.7758 ,1.10162 ,1.08583 ,10.65416 
280 ,50.9680 ,1.10346 ,1.04819 ,10.28480 
281 ,51.1601 ,1.10551 ,1.03792 ,10.18407 
282 ,51.3521 ,1.10739 ,1.03450 ,10.15049 
283 ,51.5282 ,1.10913 ,1.00370 ,9.84829 
284 ,51.7201 ,1.11109 ,1.00028 ,9.81471 
285 ,51.9120 ,1.11293 ,0.99685 ,9.78113 
286 ,52.0880 ,1.11474 ,0.97290 ,9.54608 
287 ,52.2641 ,1.11649 ,0.96605 ,9.47892 
288 ,52.4402 ,1.11828 ,0.94552 ,9.27745 
289 ,52.6326 ,1.12007 ,0.94210 ,9.24388 
290 ,52.8243 ,1.12208 ,0.91814 ,9.00883 
291 ,53.0004 ,1.12388 ,0.91814 ,9.00883 
292 ,53.1769 ,1.12564 ,0.90103 ,8.84094 
293 ,53.3531 ,1.12745 ,0.88392 ,8.67305 
294 ,53.5450 ,1.12940 ,0.88050 ,8.63947 
295 ,53.7210 ,1.13106 ,0.86339 ,8.47158 
296 ,53.8972 ,1.13281 ,0.85997 ,8.43800 
297 ,54.0732 ,1.13461 ,0.84628 ,8.30368 
298 ,54.2495 ,1.13635 ,0.82575 ,8.10221 
299 ,54.4254 ,1.13816 ,0.79837 ,7.83359 
300 ,54.6175 ,1.13994 ,0.80179 ,7.86717 
301 ,54.8255 ,1.14201 ,0.78810 ,7.73285 
302 ,55.0016 ,1.14382 ,0.78126 ,7.66570 
303 ,55.1777 ,1.14564 ,0.77441 ,7.59854 
304 ,55.3538 ,1.14743 ,0.76072 ,7.46423 
305 ,55.5299 ,1.14920 ,0.72650 ,7.12844 
306 ,55.7218 ,1.15102 ,0.74019 ,7.26276 
307 ,55.8978 ,1.15287 ,0.71281 ,6.99413 
308 ,56.0739 ,1.15459 ,0.71624 ,7.02771 
309 ,56.2822 ,1.15666 ,0.69228 ,6.79266 
310 ,56.4741 ,1.15860 ,0.67175 ,6.59119 
311 ,56.6505 ,1.16037 ,0.66833 ,6.55761 
312 ,56.8263 ,1.16220 ,0.64779 ,6.35614 
313 ,57.0021 ,1.16390 ,0.64779 ,6.35614 
314 ,57.1785 ,1.16570 ,0.63753 ,6.25541 
315 ,57.3703 ,1.16756 ,0.61357 ,6.02036 
316 ,57.5303 ,1.16928 ,0.60330 ,5.91962 
317 ,57.6903 ,1.17090 ,0.59988 ,5.88605 
318 ,57.8667 ,1.17255 ,0.58962 ,5.78531 
319 ,58.0586 ,1.17445 ,0.57593 ,5.65100 
320 ,58.2349 ,1.17619 ,0.55882 ,5.48311 
321 ,58.4109 ,1.17807 ,0.55539 ,5.44953 
322 ,58.5871 ,1.17967 ,0.53486 ,5.24806 
323 ,58.7630 ,1.18148 ,0.52459 ,5.14732 
324 ,58.9392 ,1.18326 ,0.53144 ,5.21448 
325 ,59.1309 ,1.18510 ,0.49722 ,4.87870 
326 ,59.3234 ,1.18699 ,0.49037 ,4.81154 
327 ,59.5315 ,1.18910 ,0.46984 ,4.61007 
328 ,59.7075 ,1.19091 ,0.45273 ,4.44218 
329 ,59.8836 ,1.19266 ,0.45615 ,4.47576 
330 ,60.0598 ,1.19444 ,0.45273 ,4.44218 
331 ,60.2353 ,1.19633 ,0.42877 ,4.20713 
332 ,60.4116 ,1.19794 ,0.41166 ,4.03924 
333 ,60.5879 ,1.19974 ,0.40482 ,3.97208 
334 ,60.7960 ,1.20168 ,0.41166 ,4.03924 
335 ,61.0036 ,1.20380 ,0.37744 ,3.70346 
336 ,61.1801 ,1.20563 ,0.38429 ,3.77061 
337 ,61.3561 ,1.20747 ,0.35006 ,3.43483 
338 ,61.5321 ,1.20917 ,0.34322 ,3.36767 
339 ,61.7243 ,1.21104 ,0.35349 ,3.46841 
340 ,61.9003 ,1.21288 ,0.35349 ,3.46841 
341 ,62.0924 ,1.21476 ,0.30900 ,3.03189 
342 ,62.2685 ,1.21652 ,0.29189 ,2.86400 
343 ,62.4446 ,1.21833 ,0.29531 ,2.89758 
344 ,62.6367 ,1.22024 ,0.29189 ,2.86400 
345 ,62.8127 ,1.22199 ,0.25424 ,2.49464 
346 ,62.9889 ,1.22372 ,0.25424 ,2.49464 
347 ,63.1647 ,1.22550 ,0.25424 ,2.49464 
348 ,63.3409 ,1.22728 ,0.25767 ,2.52822 
349 ,63.5167 ,1.22900 ,0.23371 ,2.29317 
350 ,63.6931 ,1.23076 ,0.20633 ,2.02454 
351 ,63.8692 ,1.23251 ,0.22344 ,2.19243 
352 ,64.0612 ,1.23445 ,0.20291 ,1.99096 
353 ,64.2372 ,1.23618 ,0.19607 ,1.92381 
354 ,64.4291 ,1.23811 ,0.17896 ,1.75592 
355 ,64.6053 ,1.23991 ,0.17553 ,1.72234 
356 ,64.7975 ,1.24176 ,0.15158 ,1.48729 
357 ,64.9735 ,1.24357 ,0.13105 ,1.28582 
358 ,65.1656 ,1.24545 ,0.14816 ,1.45371 
359 ,65.3418 ,1.24723 ,0.13447 ,1.31940 
360 ,65.5334 ,1.24917 ,0.10025 ,0.98361 
361 ,65.7099 ,1.25092 ,0.09340 ,0.91646 
362 ,65.9020 ,1.25278 ,0.10025 ,0.98361 
363 ,66.0781 ,1.25459 ,0.07287 ,0.71499 
364 ,66.2541 ,1.25638 ,0.06945 ,0.68141 
365 ,66.4300 ,1.25810 ,0.04891 ,0.47994 
366 ,66.6061 ,1.25987 ,0.05918 ,0.58067 
367 ,66.7824 ,1.26169 ,0.04891 ,0.47994 
368 ,66.9744 ,1.26356 ,0.01811 ,0.17773 
369 ,67.1664 ,1.26538 ,0.00443 ,0.04342 
370 ,67.3426 ,1.26726 ,0.01469 ,0.14416 
371 ,67.5184 ,1.26901 ,-0.00242 ,-0.02373 
372 ,67.7105 ,1.27089 ,-0.00926 ,-0.09089 
373 ,67.8867 ,1.27262 ,-0.02295 ,-0.22520 
374 ,68.0626 ,1.27444 ,-0.02295 ,-0.22520 
375 ,68.2550 ,1.27634 ,-0.05375 ,-0.52741 
376 ,68.4309 ,1.27813 ,-0.06060 ,-0.59457 
377 ,68.6071 ,1.27984 ,-0.05033 ,-0.49383 
378 ,68.7831 ,1.28170 ,-0.09482 ,-0.93035 
379 ,68.9595 ,1.28345 ,-0.09482 ,-0.93035 
380 ,69.1354 ,1.28519 ,-0.10166 ,-0.99751 
381 ,69.3271 ,1.28699 ,-0.10508 ,-1.03108 
382 ,69.5195 ,1.28900 ,-0.11193 ,-1.09824 
383 ,69.6956 ,1.29078 ,-0.13588 ,-1.33329 
384 ,69.9037 ,1.29278 ,-0.13588 ,-1.33329 
385 ,70.0796 ,1.29463 ,-0.15299 ,-1.50118 
386 ,70.2556 ,1.29634 ,-0.16668 ,-1.63549 
387 ,70.4319 ,1.29816 ,-0.16668 ,-1.63549 
388 ,70.6079 ,1.29988 ,-0.15984 ,-1.56834 
389 ,70.7996 ,1.30180 ,-0.19406 ,-1.90412 
390 ,70.9920 ,1.30373 ,-0.19748 ,-1.93770 
391 ,71.1680 ,1.30552 ,-0.20090 ,-1.97128 
392 ,71.3602 ,1.30744 ,-0.22828 ,-2.23990 
393 ,71.5521 ,1.30932 ,-0.23513 ,-2.30706 
394 ,71.7281 ,1.31106 ,-0.23513 ,-2.30706 
395 ,71.9203 ,1.31302 ,-0.25224 ,-2.47495 
396 ,72.0964 ,1.31476 ,-0.27961 ,-2.74358 
397 ,72.2724 ,1.31654 ,-0.27619 ,-2.71000 
398 ,72.4487 ,1.31827 ,-0.25908 ,-2.54211 
399 ,72.6243 ,1.32002 ,-0.27961 ,-2.74358 
400 ,72.8007 ,1.32177 ,-0.29330 ,-2.87789 
401 ,72.9604 ,1.32353 ,-0.31384 ,-3.07936 
402 ,73.1369 ,1.32515 ,-0.31726 ,-3.11294 
403 ,73.3130 ,1.32694 ,-0.32752 ,-3.21367 
404 ,73.4889 ,1.32872 ,-0.31384 ,-3.07936 
405 ,73.6810 ,1.33062 ,-0.33779 ,-3.31441 
406 ,73.8571 ,1.33238 ,-0.34464 ,-3.38156 
407 ,74.0328 ,1.33410 ,-0.35490 ,-3.48230 
408 ,74.2093 ,1.33592 ,-0.35148 ,-3.44872 
409 ,74.4014 ,1.33783 ,-0.37886 ,-3.71735 
410 ,74.5935 ,1.33973 ,-0.38912 ,-3.81808 
411 ,74.7857 ,1.34165 ,-0.40281 ,-3.95240 
412 ,74.9616 ,1.34344 ,-0.39939 ,-3.91882 
413 ,75.1537 ,1.34531 ,-0.39939 ,-3.91882 
414 ,75.3615 ,1.34723 ,-0.41308 ,-4.05313 
415 ,75.5379 ,1.34916 ,-0.43019 ,-4.22102 
416 ,75.7299 ,1.35111 ,-0.42677 ,-4.18744 
417 ,75.9220 ,1.35301 ,-0.45414 ,-4.45607 
418 ,76.1139 ,1.35483 ,-0.46441 ,-4.55681 
419 ,76.3061 ,1.35681 ,-0.46099 ,-4.52323 
420 ,76.4822 ,1.35857 ,-0.47810 ,-4.69112 
421 ,76.6585 ,1.36037 ,-0.49179 ,-4.82543 
422 ,76.8344 ,1.36217 ,-0.50206 ,-4.92617 
423 ,77.0424 ,1.36408 ,-0.48152 ,-4.72470 
424 ,77.2183 ,1.36593 ,-0.52259 ,-5.12764 
425 ,77.4106 ,1.36781 ,-0.49863 ,-4.89259 
426 ,77.6028 ,1.36984 ,-0.52943 ,-5.19479 
427 ,77.7947 ,1.37166 ,-0.53628 ,-5.26195 
428 ,77.9707 ,1.37348 ,-0.53628 ,-5.26195 
429 ,78.1630 ,1.37538 ,-0.54654 ,-5.36268 
430 ,78.3390 ,1.37716 ,-0.57050 ,-5.59773 
431 ,78.5150 ,1.37889 ,-0.56023 ,-5.49700 
432 ,78.6911 ,1.38067 ,-0.57050 ,-5.59773 
433 ,78.8670 ,1.38245 ,-0.57734 ,-5.66489 
434 ,79.0752 ,1.38439 ,-0.60130 ,-5.89994 
435 ,79.2513 ,1.38625 ,-0.60130 ,-5.89994 
436 ,79.4434 ,1.38823 ,-0.61156 ,-6.00067 
437 ,79.6513 ,1.39026 ,-0.61499 ,-6.03425 
438 ,79.8277 ,1.39204 ,-0.62525 ,-6.13499 
439 ,80.0034 ,1.39392 ,-0.64579 ,-6.33646 
440 ,80.1797 ,1.39557 ,-0.64921 ,-6.37003 
441 ,80.3557 ,1.39729 ,-0.65605 ,-6.43719 
442 ,80.5319 ,1.39908 ,-0.65947 ,-6.47077 
443 ,80.7238 ,1.40099 ,-0.67316 ,-6.60508 
444 ,80.9000 ,1.40277 ,-0.69370 ,-6.80655 
445 ,81.0921 ,1.40457 ,-0.67659 ,-6.63866 
446 ,81.2841 ,1.40654 ,-0.70396 ,-6.90729 
447 ,81.4599 ,1.40835 ,-0.71765 ,-7.04160 
448 ,81.6363 ,1.41010 ,-0.71423 ,-7.00802 
449 ,81.8284 ,1.41202 ,-0.71765 ,-7.04160 
450 ,82.0204 ,1.41393 ,-0.73476 ,-7.20949 
451 ,82.1967 ,1.41571 ,-0.73476 ,-7.20949 
452 ,82.3723 ,1.41752 ,-0.73476 ,-7.20949 
453 ,82.5487 ,1.41918 ,-0.74161 ,-7.27665 
454 ,82.7248 ,1.42099 ,-0.76556 ,-7.51170 
455 ,82.9170 ,1.42292 ,-0.76214 ,-7.47812 
456 ,83.1407 ,1.42501 ,-0.77925 ,-7.64601 
457 ,83.3171 ,1.42696 ,-0.79636 ,-7.81390 
458 ,83.5248 ,1.42899 ,-0.78610 ,-7.71317 
459 ,83.7012 ,1.43077 ,-0.81689 ,-8.01537 
460 ,83.8931 ,1.43273 ,-0.81005 ,-7.94821 
461 ,84.0693 ,1.43447 ,-0.81005 ,-7.94821 
462 ,84.2612 ,1.43632 ,-0.84769 ,-8.31758 
463 ,84.4537 ,1.43823 ,-0.83401 ,-8.18326 
