Data stamp = , 02-04-2022 00:28:44 246

Calibration Values: 
Slope = , 26.54 , g/V 
Offset Voltage at no contact = , -0.501760 , V 

No , Time , Stage Position ,   Mass , Force 
   ,  (s) ,      (mm)      ,   (g)  , (mN)  

1 ,0.0000 ,0.64940 ,5.03159 ,49.36995 
2 ,0.2403 ,0.64950 ,5.02817 ,49.33637 
3 ,0.5446 ,0.65039 ,5.04528 ,49.50426 
4 ,0.7206 ,0.65175 ,5.01790 ,49.23563 
5 ,0.8969 ,0.65317 ,5.03843 ,49.43710 
6 ,1.0730 ,0.65492 ,5.04185 ,49.47068 
7 ,1.2650 ,0.65677 ,5.03843 ,49.43710 
8 ,1.4406 ,0.65858 ,5.02817 ,49.33637 
9 ,1.6170 ,0.66027 ,5.05212 ,49.57142 
10 ,1.7931 ,0.66208 ,5.03159 ,49.36995 
11 ,1.9854 ,0.66400 ,5.01106 ,49.16848 
12 ,2.1614 ,0.66578 ,4.99737 ,49.03416 
13 ,2.3368 ,0.66755 ,4.99394 ,49.00058 
14 ,2.5132 ,0.66928 ,4.99737 ,49.03416 
15 ,2.7053 ,0.67120 ,4.96315 ,48.69838 
16 ,2.8818 ,0.67301 ,4.94603 ,48.53049 
17 ,3.0576 ,0.67480 ,4.95630 ,48.63122 
18 ,3.2337 ,0.67650 ,4.95630 ,48.63122 
19 ,3.4097 ,0.67823 ,4.94261 ,48.49691 
20 ,3.5860 ,0.68001 ,4.91866 ,48.26186 
21 ,3.7940 ,0.68205 ,4.91866 ,48.26186 
22 ,3.9701 ,0.68383 ,4.90839 ,48.16113 
23 ,4.1462 ,0.68563 ,4.87759 ,47.85892 
24 ,4.3223 ,0.68738 ,4.85706 ,47.65745 
25 ,4.5143 ,0.68929 ,4.85364 ,47.62387 
26 ,4.6902 ,0.69107 ,4.84337 ,47.52314 
27 ,4.8665 ,0.69283 ,4.81599 ,47.25451 
28 ,5.0588 ,0.69470 ,4.78861 ,46.98589 
29 ,5.2344 ,0.69654 ,4.78177 ,46.91873 
30 ,5.4104 ,0.69829 ,4.76466 ,46.75084 
31 ,5.5867 ,0.70001 ,4.73728 ,46.48221 
32 ,5.7625 ,0.70175 ,4.70648 ,46.18001 
33 ,5.9549 ,0.70359 ,4.69279 ,46.04569 
34 ,6.1629 ,0.70570 ,4.66884 ,45.81065 
35 ,6.3389 ,0.70753 ,4.65173 ,45.64275 
36 ,6.5151 ,0.70931 ,4.64831 ,45.60918 
37 ,6.6911 ,0.71111 ,4.62777 ,45.40771 
38 ,6.8672 ,0.71280 ,4.61066 ,45.23981 
39 ,7.0433 ,0.71452 ,4.57644 ,44.90403 
40 ,7.2195 ,0.71633 ,4.55249 ,44.66898 
41 ,7.3955 ,0.71811 ,4.54906 ,44.63541 
42 ,7.5714 ,0.71986 ,4.53195 ,44.46751 
43 ,7.7477 ,0.72161 ,4.50800 ,44.23247 
44 ,7.9393 ,0.72344 ,4.48746 ,44.03100 
45 ,8.1157 ,0.72528 ,4.47378 ,43.89668 
46 ,8.2919 ,0.72709 ,4.44982 ,43.66163 
47 ,8.4679 ,0.72887 ,4.42586 ,43.42659 
48 ,8.6440 ,0.73059 ,4.40191 ,43.19154 
49 ,8.8200 ,0.73228 ,4.38822 ,43.05723 
50 ,8.9961 ,0.73407 ,4.38480 ,43.02365 
51 ,9.1722 ,0.73586 ,4.37111 ,42.88933 
52 ,9.3642 ,0.73765 ,4.34716 ,42.65429 
53 ,9.5402 ,0.73952 ,4.32320 ,42.41924 
54 ,9.7324 ,0.74134 ,4.30267 ,42.21777 
55 ,9.9086 ,0.74322 ,4.30609 ,42.25135 
56 ,10.0845 ,0.74496 ,4.28213 ,42.01630 
57 ,10.2767 ,0.74688 ,4.25476 ,41.74767 
58 ,10.4528 ,0.74866 ,4.23765 ,41.57978 
59 ,10.6448 ,0.75055 ,4.23422 ,41.54620 
60 ,10.8207 ,0.75233 ,4.20685 ,41.27758 
61 ,10.9970 ,0.75412 ,4.16920 ,40.90821 
62 ,11.1888 ,0.75598 ,4.16578 ,40.87464 
63 ,11.3811 ,0.75794 ,4.15209 ,40.74032 
64 ,11.5571 ,0.75968 ,4.12471 ,40.47170 
65 ,11.7333 ,0.76144 ,4.12129 ,40.43812 
66 ,11.9254 ,0.76332 ,4.09391 ,40.16949 
67 ,12.1011 ,0.76522 ,4.07338 ,39.96802 
68 ,12.2614 ,0.76683 ,4.04943 ,39.73297 
69 ,12.4535 ,0.76860 ,4.04943 ,39.73297 
70 ,12.6292 ,0.77036 ,4.03232 ,39.56508 
71 ,12.8053 ,0.77215 ,4.01520 ,39.39719 
72 ,12.9816 ,0.77389 ,3.98783 ,39.12856 
73 ,13.1576 ,0.77573 ,3.96045 ,38.85994 
74 ,13.3336 ,0.77743 ,3.94334 ,38.69205 
75 ,13.5257 ,0.77940 ,3.94334 ,38.69205 
76 ,13.7341 ,0.78135 ,3.91596 ,38.42342 
77 ,13.8937 ,0.78316 ,3.90912 ,38.35626 
78 ,14.0701 ,0.78485 ,3.88516 ,38.12122 
79 ,14.2619 ,0.78677 ,3.87147 ,37.98690 
80 ,14.4381 ,0.78849 ,3.84067 ,37.68470 
81 ,14.6304 ,0.79030 ,3.84067 ,37.68470 
82 ,14.8227 ,0.79239 ,3.81330 ,37.41607 
83 ,14.9986 ,0.79413 ,3.80987 ,37.38249 
84 ,15.1907 ,0.79594 ,3.77908 ,37.08029 
85 ,15.3988 ,0.79820 ,3.74485 ,36.74450 
86 ,15.6065 ,0.80005 ,3.73801 ,36.67735 
87 ,15.7825 ,0.80199 ,3.71063 ,36.40872 
88 ,15.9589 ,0.80371 ,3.70037 ,36.30799 
89 ,16.1833 ,0.80577 ,3.66272 ,35.93863 
90 ,16.3588 ,0.80770 ,3.64903 ,35.80431 
91 ,16.5511 ,0.80953 ,3.63534 ,35.67000 
92 ,16.7431 ,0.81149 ,3.61139 ,35.43495 
93 ,16.9190 ,0.81326 ,3.60454 ,35.36779 
94 ,17.0952 ,0.81502 ,3.57717 ,35.09917 
95 ,17.3035 ,0.81699 ,3.56690 ,34.99843 
96 ,17.4793 ,0.81885 ,3.54979 ,34.83054 
97 ,17.6556 ,0.82074 ,3.52241 ,34.56192 
98 ,17.8638 ,0.82266 ,3.52241 ,34.56192 
99 ,18.0394 ,0.82454 ,3.49504 ,34.29329 
100 ,18.2159 ,0.82624 ,3.48477 ,34.19255 
101 ,18.4078 ,0.82820 ,3.47108 ,34.05824 
102 ,18.5840 ,0.82993 ,3.45397 ,33.89035 
103 ,18.7760 ,0.83187 ,3.42317 ,33.58814 
104 ,18.9683 ,0.83382 ,3.41633 ,33.52099 
105 ,19.1604 ,0.83570 ,3.40606 ,33.42025 
106 ,19.3519 ,0.83753 ,3.37526 ,33.11805 
107 ,19.5283 ,0.83941 ,3.35815 ,32.95016 
108 ,19.7205 ,0.84127 ,3.34446 ,32.81584 
109 ,19.8963 ,0.84312 ,3.32735 ,32.64795 
110 ,20.0724 ,0.84481 ,3.30339 ,32.41290 
111 ,20.2807 ,0.84684 ,3.28971 ,32.27859 
112 ,20.4564 ,0.84863 ,3.27602 ,32.14428 
113 ,20.6326 ,0.85041 ,3.25206 ,31.90923 
114 ,20.8089 ,0.85222 ,3.24180 ,31.80849 
115 ,21.0007 ,0.85411 ,3.24522 ,31.84207 
116 ,21.1930 ,0.85598 ,3.20415 ,31.43913 
117 ,21.3852 ,0.85790 ,3.20073 ,31.40555 
118 ,21.5769 ,0.85978 ,3.19388 ,31.33840 
119 ,21.7530 ,0.86162 ,3.15624 ,30.96904 
120 ,21.9614 ,0.86359 ,3.15624 ,30.96904 
121 ,22.1371 ,0.86544 ,3.13571 ,30.76757 
122 ,22.3133 ,0.86719 ,3.10833 ,30.49894 
123 ,22.4895 ,0.86895 ,3.09122 ,30.33105 
124 ,22.6820 ,0.87083 ,3.08095 ,30.23031 
125 ,22.8574 ,0.87262 ,3.06042 ,30.02884 
126 ,23.0338 ,0.87445 ,3.04331 ,29.86095 
127 ,23.2420 ,0.87640 ,3.02620 ,29.69306 
128 ,23.4177 ,0.87828 ,3.02620 ,29.69306 
129 ,23.6102 ,0.88012 ,2.98855 ,29.32370 
130 ,23.8179 ,0.88223 ,2.97487 ,29.18939 
131 ,23.9940 ,0.88399 ,2.94407 ,28.88718 
132 ,24.1703 ,0.88574 ,2.93380 ,28.78645 
133 ,24.3464 ,0.88748 ,2.93380 ,28.78645 
134 ,24.5224 ,0.88930 ,2.92696 ,28.71929 
135 ,24.6981 ,0.89105 ,2.90300 ,28.48424 
136 ,24.8744 ,0.89283 ,2.87905 ,28.24919 
137 ,25.0508 ,0.89459 ,2.85851 ,28.04772 
138 ,25.2265 ,0.89634 ,2.84825 ,27.94699 
139 ,25.4026 ,0.89809 ,2.82771 ,27.74552 
140 ,25.5788 ,0.89984 ,2.81402 ,27.61121 
141 ,25.7547 ,0.90160 ,2.79349 ,27.40974 
142 ,25.9307 ,0.90335 ,2.76954 ,27.17469 
143 ,26.1072 ,0.90511 ,2.76611 ,27.14111 
144 ,26.2834 ,0.90692 ,2.75243 ,27.00680 
145 ,26.4753 ,0.90880 ,2.72163 ,26.70459 
146 ,26.6513 ,0.91056 ,2.71478 ,26.63744 
147 ,26.8274 ,0.91233 ,2.71136 ,26.60386 
148 ,27.0032 ,0.91408 ,2.69425 ,26.43597 
149 ,27.1796 ,0.91586 ,2.68056 ,26.30165 
150 ,27.3557 ,0.91762 ,2.65660 ,26.06661 
151 ,27.5158 ,0.91934 ,2.63607 ,25.86514 
152 ,27.6919 ,0.92100 ,2.61554 ,25.66367 
153 ,27.8842 ,0.92288 ,2.62581 ,25.76440 
154 ,28.0597 ,0.92463 ,2.60869 ,25.59651 
155 ,28.2516 ,0.92655 ,2.57789 ,25.29430 
156 ,28.4282 ,0.92832 ,2.54710 ,24.99210 
157 ,28.6523 ,0.93040 ,2.53683 ,24.89136 
158 ,28.8444 ,0.93240 ,2.51630 ,24.68989 
159 ,29.0204 ,0.93428 ,2.52998 ,24.82421 
160 ,29.2125 ,0.93614 ,2.47865 ,24.32053 
161 ,29.3885 ,0.93795 ,2.47865 ,24.32053 
162 ,29.5646 ,0.93970 ,2.47181 ,24.25338 
163 ,29.7406 ,0.94145 ,2.46154 ,24.15264 
164 ,29.9327 ,0.94336 ,2.43416 ,23.88402 
165 ,30.1086 ,0.94515 ,2.40679 ,23.61539 
166 ,30.2851 ,0.94686 ,2.41021 ,23.64897 
167 ,30.4927 ,0.94890 ,2.37599 ,23.31318 
168 ,30.6691 ,0.95073 ,2.36572 ,23.21245 
169 ,30.8610 ,0.95259 ,2.36914 ,23.24603 
170 ,31.0373 ,0.95438 ,2.34519 ,23.01098 
171 ,31.2134 ,0.95620 ,2.31439 ,22.70877 
172 ,31.4054 ,0.95801 ,2.31439 ,22.70877 
173 ,31.5973 ,0.95998 ,2.30412 ,22.60804 
174 ,31.7734 ,0.96180 ,2.27674 ,22.33941 
175 ,31.9495 ,0.96350 ,2.25279 ,22.10437 
176 ,32.1417 ,0.96547 ,2.25279 ,22.10437 
177 ,32.3015 ,0.96720 ,2.24594 ,22.03721 
178 ,32.4778 ,0.96879 ,2.22883 ,21.86932 
179 ,32.6702 ,0.97073 ,2.19119 ,21.49996 
180 ,32.8460 ,0.97253 ,2.18092 ,21.39922 
181 ,33.0381 ,0.97430 ,2.17408 ,21.33206 
182 ,33.2139 ,0.97614 ,2.15697 ,21.16417 
183 ,33.3741 ,0.97789 ,2.12959 ,20.89555 
184 ,33.5503 ,0.97952 ,2.11932 ,20.79481 
185 ,33.7424 ,0.98147 ,2.12275 ,20.82839 
186 ,33.9185 ,0.98322 ,2.10906 ,20.69408 
187 ,34.1103 ,0.98507 ,2.07826 ,20.39187 
188 ,34.2866 ,0.98690 ,2.07141 ,20.32472 
189 ,34.4624 ,0.98862 ,2.05773 ,20.19040 
190 ,34.6388 ,0.99044 ,2.05430 ,20.15682 
191 ,34.8147 ,0.99213 ,2.02693 ,19.88820 
192 ,34.9909 ,0.99397 ,2.00982 ,19.72031 
193 ,35.1668 ,0.99571 ,1.98586 ,19.48526 
194 ,35.3430 ,0.99749 ,2.00639 ,19.68673 
195 ,35.5187 ,0.99918 ,1.98928 ,19.51884 
196 ,35.6951 ,1.00096 ,1.96533 ,19.28379 
197 ,35.8712 ,1.00271 ,1.93453 ,18.98158 
198 ,36.0473 ,1.00453 ,1.92426 ,18.88085 
199 ,36.2232 ,1.00625 ,1.91057 ,18.74654 
200 ,36.4154 ,1.00816 ,1.92084 ,18.84727 
201 ,36.5915 ,1.00990 ,1.89004 ,18.54507 
202 ,36.7838 ,1.01182 ,1.87977 ,18.44433 
203 ,36.9756 ,1.01382 ,1.86608 ,18.31002 
204 ,37.1519 ,1.01552 ,1.83186 ,17.97423 
205 ,37.3278 ,1.01732 ,1.81817 ,17.83992 
206 ,37.5037 ,1.01906 ,1.80106 ,17.67203 
207 ,37.7120 ,1.02108 ,1.79080 ,17.57129 
208 ,37.9038 ,1.02306 ,1.77369 ,17.40340 
209 ,38.1118 ,1.02508 ,1.79080 ,17.57129 
210 ,38.2879 ,1.02686 ,1.74289 ,17.10120 
211 ,38.4640 ,1.02864 ,1.73604 ,17.03404 
212 ,38.6561 ,1.03056 ,1.72920 ,16.96689 
213 ,38.8321 ,1.03236 ,1.70866 ,16.76542 
214 ,39.0081 ,1.03411 ,1.69155 ,16.59752 
215 ,39.1842 ,1.03580 ,1.67786 ,16.46321 
216 ,39.3603 ,1.03760 ,1.66075 ,16.29532 
217 ,39.5361 ,1.03941 ,1.66075 ,16.29532 
218 ,39.7124 ,1.04107 ,1.65391 ,16.22816 
219 ,39.8884 ,1.04288 ,1.61969 ,15.89238 
220 ,40.0967 ,1.04481 ,1.60258 ,15.72449 
221 ,40.2888 ,1.04692 ,1.59573 ,15.65733 
222 ,40.4650 ,1.04861 ,1.57178 ,15.42228 
223 ,40.6412 ,1.05053 ,1.58547 ,15.55660 
224 ,40.8007 ,1.05212 ,1.56836 ,15.38871 
225 ,40.9773 ,1.05374 ,1.55809 ,15.28797 
226 ,41.1534 ,1.05556 ,1.55124 ,15.22081 
227 ,41.3294 ,1.05730 ,1.52729 ,14.98577 
228 ,41.5053 ,1.05903 ,1.51018 ,14.81787 
229 ,41.6815 ,1.06079 ,1.49991 ,14.71714 
230 ,41.8737 ,1.06276 ,1.48280 ,14.54925 
231 ,42.0497 ,1.06448 ,1.46911 ,14.41493 
232 ,42.2258 ,1.06622 ,1.45542 ,14.28062 
233 ,42.4178 ,1.06821 ,1.45542 ,14.28062 
234 ,42.5939 ,1.06998 ,1.43489 ,14.07915 
235 ,42.7859 ,1.07184 ,1.40751 ,13.81053 
236 ,42.9621 ,1.07358 ,1.40751 ,13.81053 
237 ,43.1381 ,1.07540 ,1.39040 ,13.64263 
238 ,43.3143 ,1.07713 ,1.38698 ,13.60906 
239 ,43.4903 ,1.07894 ,1.37671 ,13.50832 
240 ,43.6663 ,1.08072 ,1.35276 ,13.27327 
241 ,43.8584 ,1.08257 ,1.34934 ,13.23969 
242 ,44.0344 ,1.08429 ,1.33223 ,13.07180 
243 ,44.2104 ,1.08610 ,1.31854 ,12.93749 
244 ,44.3868 ,1.08783 ,1.29116 ,12.66886 
245 ,44.5628 ,1.08961 ,1.27747 ,12.53455 
246 ,44.7388 ,1.09142 ,1.27747 ,12.53455 
247 ,44.9148 ,1.09312 ,1.28089 ,12.56813 
248 ,45.0910 ,1.09495 ,1.26378 ,12.40024 
249 ,45.2831 ,1.09680 ,1.23298 ,12.09803 
250 ,45.4589 ,1.09859 ,1.21929 ,11.96372 
251 ,45.6351 ,1.10029 ,1.21587 ,11.93014 
252 ,45.8114 ,1.10206 ,1.20218 ,11.79583 
253 ,46.0032 ,1.10403 ,1.16454 ,11.42647 
254 ,46.1955 ,1.10589 ,1.16112 ,11.39289 
255 ,46.3875 ,1.10786 ,1.14743 ,11.25857 
256 ,46.5635 ,1.10958 ,1.12005 ,10.98995 
257 ,46.7397 ,1.11134 ,1.11321 ,10.92279 
258 ,46.9159 ,1.11312 ,1.11321 ,10.92279 
259 ,47.1074 ,1.11506 ,1.08925 ,10.68774 
260 ,47.2841 ,1.11679 ,1.07899 ,10.58701 
261 ,47.5082 ,1.11891 ,1.05503 ,10.35196 
262 ,47.6841 ,1.12083 ,1.04819 ,10.28480 
263 ,47.8760 ,1.12274 ,1.03792 ,10.18407 
264 ,48.0519 ,1.12448 ,1.03450 ,10.15049 
265 ,48.2278 ,1.12625 ,1.00370 ,9.84829 
266 ,48.3879 ,1.12797 ,0.99343 ,9.74755 
267 ,48.5804 ,1.12966 ,0.96948 ,9.51250 
268 ,48.7884 ,1.13182 ,0.96263 ,9.44535 
269 ,48.9645 ,1.13361 ,0.94894 ,9.31103 
270 ,49.1565 ,1.13551 ,0.94210 ,9.24388 
271 ,49.3326 ,1.13727 ,0.93183 ,9.14314 
272 ,49.5407 ,1.13923 ,0.91130 ,8.94167 
273 ,49.7169 ,1.14115 ,0.90788 ,8.90809 
274 ,49.8928 ,1.14288 ,0.89419 ,8.77378 
275 ,50.0691 ,1.14468 ,0.88050 ,8.63947 
276 ,50.2452 ,1.14643 ,0.85997 ,8.43800 
277 ,50.4372 ,1.14835 ,0.84286 ,8.27011 
278 ,50.6130 ,1.15011 ,0.84628 ,8.30368 
279 ,50.7893 ,1.15186 ,0.83601 ,8.20295 
280 ,50.9651 ,1.15363 ,0.80179 ,7.86717 
281 ,51.1415 ,1.15536 ,0.78468 ,7.69927 
282 ,51.3334 ,1.15728 ,0.78468 ,7.69927 
283 ,51.5257 ,1.15925 ,0.76415 ,7.49780 
284 ,51.7176 ,1.16116 ,0.75046 ,7.36349 
285 ,51.8939 ,1.16291 ,0.73677 ,7.22918 
286 ,52.0860 ,1.16475 ,0.72308 ,7.09486 
287 ,52.2620 ,1.16661 ,0.70939 ,6.96055 
288 ,52.4378 ,1.16836 ,0.69228 ,6.79266 
289 ,52.6141 ,1.17011 ,0.68201 ,6.69193 
290 ,52.8063 ,1.17204 ,0.67517 ,6.62477 
291 ,52.9984 ,1.17393 ,0.67175 ,6.59119 
292 ,53.1743 ,1.17575 ,0.64437 ,6.32256 
293 ,53.3664 ,1.17760 ,0.64095 ,6.28899 
294 ,53.5743 ,1.17960 ,0.63410 ,6.22183 
295 ,53.7505 ,1.18147 ,0.61699 ,6.05394 
296 ,53.9267 ,1.18323 ,0.61015 ,5.98678 
297 ,54.1028 ,1.18499 ,0.57935 ,5.68458 
298 ,54.2790 ,1.18679 ,0.56566 ,5.55026 
299 ,54.4708 ,1.18868 ,0.56908 ,5.58384 
300 ,54.6470 ,1.19040 ,0.55539 ,5.44953 
301 ,54.8391 ,1.19235 ,0.53144 ,5.21448 
302 ,55.0151 ,1.19409 ,0.52459 ,5.14732 
303 ,55.1911 ,1.19588 ,0.51775 ,5.08017 
304 ,55.3834 ,1.19778 ,0.48695 ,4.77796 
305 ,55.5750 ,1.19966 ,0.49380 ,4.84512 
306 ,55.7514 ,1.20145 ,0.47326 ,4.64365 
307 ,55.9436 ,1.20337 ,0.46300 ,4.54291 
308 ,56.1196 ,1.20515 ,0.43904 ,4.30787 
309 ,56.2955 ,1.20694 ,0.42535 ,4.17355 
310 ,56.4718 ,1.20866 ,0.42193 ,4.13997 
311 ,56.6793 ,1.21057 ,0.39797 ,3.90493 
312 ,56.8559 ,1.21250 ,0.38771 ,3.80419 
313 ,57.0319 ,1.21428 ,0.38429 ,3.77061 
314 ,57.2081 ,1.21598 ,0.38771 ,3.80419 
315 ,57.3996 ,1.21802 ,0.35691 ,3.50199 
316 ,57.5762 ,1.21977 ,0.34322 ,3.36767 
317 ,57.7522 ,1.22156 ,0.34322 ,3.36767 
318 ,57.9284 ,1.22318 ,0.33638 ,3.30052 
319 ,58.1044 ,1.22499 ,0.31926 ,3.13263 
320 ,58.2961 ,1.22685 ,0.30900 ,3.03189 
321 ,58.4727 ,1.22868 ,0.29531 ,2.89758 
322 ,58.6644 ,1.23056 ,0.26793 ,2.62895 
323 ,58.8567 ,1.23242 ,0.25767 ,2.52822 
324 ,59.0328 ,1.23429 ,0.26109 ,2.56179 
325 ,59.2248 ,1.23618 ,0.24740 ,2.42748 
326 ,59.4008 ,1.23798 ,0.22687 ,2.22601 
327 ,59.5930 ,1.23977 ,0.20633 ,2.02454 
328 ,59.7690 ,1.24162 ,0.21318 ,2.09170 
329 ,59.9451 ,1.24341 ,0.19949 ,1.95738 
330 ,60.1210 ,1.24519 ,0.18580 ,1.82307 
331 ,60.2973 ,1.24690 ,0.17896 ,1.75592 
332 ,60.4892 ,1.24869 ,0.14816 ,1.45371 
333 ,60.6810 ,1.25070 ,0.14816 ,1.45371 
334 ,60.8732 ,1.25262 ,0.13789 ,1.35298 
335 ,61.0495 ,1.25443 ,0.13105 ,1.28582 
336 ,61.2415 ,1.25633 ,0.11393 ,1.11793 
337 ,61.4178 ,1.25810 ,0.09340 ,0.91646 
338 ,61.5936 ,1.25987 ,0.08656 ,0.84930 
339 ,61.7697 ,1.26162 ,0.08314 ,0.81572 
340 ,61.9456 ,1.26342 ,0.08998 ,0.88288 
341 ,62.1220 ,1.26514 ,0.07629 ,0.74857 
342 ,62.3139 ,1.26713 ,0.04549 ,0.44636 
343 ,62.4901 ,1.26882 ,0.04549 ,0.44636 
344 ,62.6824 ,1.27073 ,0.01811 ,0.17773 
345 ,62.8741 ,1.27264 ,0.02154 ,0.21131 
346 ,63.0504 ,1.27440 ,0.00785 ,0.07700 
347 ,63.2425 ,1.27635 ,0.00100 ,0.00984 
348 ,63.4185 ,1.27813 ,-0.01953 ,-0.19163 
349 ,63.5945 ,1.27985 ,-0.03322 ,-0.32594 
350 ,63.7706 ,1.28163 ,-0.02980 ,-0.29236 
351 ,63.9627 ,1.28355 ,-0.04348 ,-0.42667 
352 ,64.1227 ,1.28526 ,-0.06060 ,-0.59457 
353 ,64.2988 ,1.28686 ,-0.07086 ,-0.69530 
354 ,64.4909 ,1.28883 ,-0.08113 ,-0.79604 
355 ,64.6671 ,1.29056 ,-0.08797 ,-0.86319 
356 ,64.8429 ,1.29239 ,-0.09482 ,-0.93035 
357 ,65.0191 ,1.29408 ,-0.10851 ,-1.06466 
358 ,65.1792 ,1.29580 ,-0.12562 ,-1.23255 
359 ,65.3553 ,1.29744 ,-0.13931 ,-1.36687 
360 ,65.5314 ,1.29918 ,-0.13931 ,-1.36687 
361 ,65.7234 ,1.30113 ,-0.13931 ,-1.36687 
362 ,65.8993 ,1.30289 ,-0.16326 ,-1.60191 
363 ,66.0757 ,1.30469 ,-0.17353 ,-1.70265 
364 ,66.2358 ,1.30638 ,-0.18037 ,-1.76981 
365 ,66.4117 ,1.30800 ,-0.19748 ,-1.93770 
366 ,66.5880 ,1.30982 ,-0.20090 ,-1.97128 
367 ,66.7638 ,1.31157 ,-0.20433 ,-2.00485 
368 ,66.9561 ,1.31343 ,-0.22828 ,-2.23990 
369 ,67.1320 ,1.31521 ,-0.23855 ,-2.34064 
370 ,67.3081 ,1.31712 ,-0.22828 ,-2.23990 
371 ,67.4843 ,1.31871 ,-0.23170 ,-2.27348 
372 ,67.6600 ,1.32053 ,-0.24881 ,-2.44137 
373 ,67.8521 ,1.32243 ,-0.26593 ,-2.60926 
374 ,68.0285 ,1.32416 ,-0.26593 ,-2.60926 
375 ,68.2205 ,1.32611 ,-0.27619 ,-2.71000 
376 ,68.3965 ,1.32788 ,-0.29673 ,-2.91147 
377 ,68.5885 ,1.32974 ,-0.29673 ,-2.91147 
378 ,68.7645 ,1.33152 ,-0.30357 ,-2.97863 
379 ,68.9408 ,1.33334 ,-0.31041 ,-3.04578 
380 ,69.1329 ,1.33521 ,-0.33095 ,-3.24725 
381 ,69.3090 ,1.33703 ,-0.34806 ,-3.41514 
382 ,69.5008 ,1.33882 ,-0.34806 ,-3.41514 
383 ,69.6931 ,1.34079 ,-0.36517 ,-3.58303 
384 ,69.8689 ,1.34258 ,-0.36175 ,-3.54946 
385 ,70.0612 ,1.34439 ,-0.36517 ,-3.58303 
386 ,70.2692 ,1.34648 ,-0.40281 ,-3.95240 
387 ,70.4454 ,1.34837 ,-0.38912 ,-3.81808 
388 ,70.6214 ,1.35009 ,-0.39597 ,-3.88524 
389 ,70.8136 ,1.35204 ,-0.42335 ,-4.15387 
390 ,70.9896 ,1.35382 ,-0.42335 ,-4.15387 
391 ,71.1656 ,1.35556 ,-0.42335 ,-4.15387 
392 ,71.3417 ,1.35728 ,-0.43019 ,-4.22102 
393 ,71.5179 ,1.35905 ,-0.46441 ,-4.55681 
394 ,71.7094 ,1.36095 ,-0.46441 ,-4.55681 
395 ,71.8859 ,1.36271 ,-0.46783 ,-4.59038 
396 ,72.0620 ,1.36449 ,-0.46441 ,-4.55681 
397 ,72.2381 ,1.36628 ,-0.47810 ,-4.69112 
398 ,72.4141 ,1.36799 ,-0.50206 ,-4.92617 
399 ,72.5902 ,1.36984 ,-0.50206 ,-4.92617 
400 ,72.7503 ,1.37149 ,-0.49863 ,-4.89259 
401 ,72.9263 ,1.37311 ,-0.51917 ,-5.09406 
402 ,73.1025 ,1.37494 ,-0.51917 ,-5.09406 
403 ,73.2944 ,1.37685 ,-0.53285 ,-5.22837 
404 ,73.4707 ,1.37859 ,-0.54997 ,-5.39626 
405 ,73.6307 ,1.38032 ,-0.55681 ,-5.46342 
406 ,73.8067 ,1.38198 ,-0.56023 ,-5.49700 
407 ,73.9989 ,1.38383 ,-0.56365 ,-5.53058 
408 ,74.1749 ,1.38567 ,-0.58761 ,-5.76562 
409 ,74.3831 ,1.38758 ,-0.57734 ,-5.66489 
410 ,74.5590 ,1.38944 ,-0.58761 ,-5.76562 
411 ,74.7352 ,1.39122 ,-0.60130 ,-5.89994 
412 ,74.9272 ,1.39312 ,-0.62183 ,-6.10141 
413 ,75.1034 ,1.39492 ,-0.61156 ,-6.00067 
414 ,75.2952 ,1.39678 ,-0.62525 ,-6.13499 
415 ,75.4715 ,1.39854 ,-0.64921 ,-6.37003 
416 ,75.6631 ,1.40045 ,-0.63210 ,-6.20214 
417 ,75.8232 ,1.40221 ,-0.63552 ,-6.23572 
418 ,75.9835 ,1.40380 ,-0.65263 ,-6.40361 
419 ,76.1758 ,1.40561 ,-0.67316 ,-6.60508 
420 ,76.3678 ,1.40755 ,-0.68001 ,-6.67224 
421 ,76.5438 ,1.40930 ,-0.68685 ,-6.73940 
422 ,76.7196 ,1.41107 ,-0.69027 ,-6.77297 
423 ,76.8961 ,1.41287 ,-0.69370 ,-6.80655 
424 ,77.1040 ,1.41481 ,-0.71081 ,-6.97444 
425 ,77.2803 ,1.41666 ,-0.71081 ,-6.97444 
426 ,77.4885 ,1.41865 ,-0.73476 ,-7.20949 
427 ,77.6804 ,1.42058 ,-0.73818 ,-7.24307 
428 ,77.8564 ,1.42247 ,-0.72450 ,-7.10876 
429 ,78.0484 ,1.42435 ,-0.76214 ,-7.47812 
430 ,78.2245 ,1.42609 ,-0.75872 ,-7.44454 
431 ,78.4006 ,1.42798 ,-0.77241 ,-7.57885 
432 ,78.5768 ,1.42961 ,-0.76898 ,-7.54527 
433 ,78.7526 ,1.43135 ,-0.79978 ,-7.84748 
434 ,78.9288 ,1.43329 ,-0.79294 ,-7.78032 
435 ,79.1369 ,1.43512 ,-0.77925 ,-7.64601 
436 ,79.3291 ,1.43714 ,-0.82374 ,-8.08253 
437 ,79.5372 ,1.43909 ,-0.82032 ,-8.04895 
438 ,79.7132 ,1.44098 ,-0.83743 ,-8.21684 
439 ,79.9052 ,1.44292 ,-0.84427 ,-8.28400 
440 ,80.0973 ,1.44477 ,-0.83743 ,-8.21684 
441 ,80.2733 ,1.44660 ,-0.85454 ,-8.38473 
442 ,80.4655 ,1.44837 ,-0.87165 ,-8.55262 
443 ,80.6415 ,1.45024 ,-0.86481 ,-8.48547 
444 ,80.8178 ,1.45205 ,-0.87507 ,-8.58620 
445 ,81.0093 ,1.45393 ,-0.89218 ,-8.75409 
446 ,81.2018 ,1.45578 ,-0.90587 ,-8.88841 
447 ,81.3779 ,1.45763 ,-0.89560 ,-8.78767 
448 ,81.5701 ,1.45957 ,-0.91956 ,-9.02272 
449 ,81.7460 ,1.46133 ,-0.92640 ,-9.08988 
450 ,81.9221 ,1.46304 ,-0.91614 ,-8.98914 
451 ,82.0981 ,1.46495 ,-0.94351 ,-9.25777 
452 ,82.2743 ,1.46665 ,-0.94351 ,-9.25777 
453 ,82.4501 ,1.46831 ,-0.96063 ,-9.42566 
454 ,82.6264 ,1.47009 ,-0.95720 ,-9.39208 
455 ,82.8025 ,1.47191 ,-0.96405 ,-9.45924 
456 ,82.9784 ,1.47360 ,-0.96747 ,-9.49282 
457 ,83.1705 ,1.47551 ,-0.97774 ,-9.59355 
458 ,83.3627 ,1.47745 ,-0.97431 ,-9.55997 
459 ,83.5388 ,1.47929 ,-1.00169 ,-9.82860 
460 ,83.7148 ,1.48099 ,-0.99143 ,-9.72786 
461 ,83.8909 ,1.48277 ,-1.00854 ,-9.89576 
462 ,84.0670 ,1.48451 ,-1.02565 ,-10.06365 
