Data stamp = , 03-04-2022 04:24:09 014

Calibration Values: 
Slope = , 26.54 , g/V 
Offset Voltage at no contact = , -0.501760 , V 

No , Time , Stage Position ,   Mass , Force 
   ,  (s) ,      (mm)      ,   (g)  , (mN)  

1 ,0.0000 ,0.59946 ,5.29167 ,51.92190 
2 ,0.2100 ,0.59952 ,5.28141 ,51.82116 
3 ,0.6419 ,0.60073 ,5.28483 ,51.85474 
4 ,0.8340 ,0.60261 ,5.27456 ,51.75401 
5 ,1.0264 ,0.60446 ,5.28141 ,51.82116 
6 ,1.2022 ,0.60618 ,5.29510 ,51.95548 
7 ,1.3783 ,0.60792 ,5.29167 ,51.92190 
8 ,1.5545 ,0.60975 ,5.28141 ,51.82116 
9 ,1.7303 ,0.61150 ,5.28825 ,51.88832 
10 ,1.9223 ,0.61332 ,5.27456 ,51.75401 
11 ,2.1143 ,0.61534 ,5.24718 ,51.48538 
12 ,2.2903 ,0.61711 ,5.23692 ,51.38464 
13 ,2.4827 ,0.61898 ,5.23350 ,51.35107 
14 ,2.6750 ,0.62104 ,5.19585 ,50.98170 
15 ,2.8670 ,0.62287 ,5.17874 ,50.81381 
16 ,3.0431 ,0.62466 ,5.18216 ,50.84739 
17 ,3.2191 ,0.62638 ,5.15479 ,50.57876 
18 ,3.3953 ,0.62819 ,5.14452 ,50.47803 
19 ,3.5874 ,0.63010 ,5.13425 ,50.37729 
20 ,3.7794 ,0.63188 ,5.13425 ,50.37729 
21 ,3.9717 ,0.63386 ,5.10688 ,50.10867 
22 ,4.1634 ,0.63583 ,5.10003 ,50.04151 
23 ,4.3556 ,0.63771 ,5.06923 ,49.73931 
24 ,4.5316 ,0.63952 ,5.04528 ,49.50426 
25 ,4.7398 ,0.64154 ,5.02817 ,49.33637 
26 ,4.9156 ,0.64337 ,5.01790 ,49.23563 
27 ,5.0916 ,0.64511 ,5.00421 ,49.10132 
28 ,5.2679 ,0.64682 ,4.99737 ,49.03416 
29 ,5.4600 ,0.64882 ,4.96657 ,48.73196 
30 ,5.6521 ,0.65062 ,4.93577 ,48.42975 
31 ,5.8440 ,0.65262 ,4.92892 ,48.36260 
32 ,6.0201 ,0.65441 ,4.90839 ,48.16113 
33 ,6.2122 ,0.65624 ,4.88444 ,47.92608 
34 ,6.4204 ,0.65833 ,4.86390 ,47.72461 
35 ,6.5963 ,0.66016 ,4.83652 ,47.45598 
36 ,6.7884 ,0.66205 ,4.83652 ,47.45598 
37 ,6.9642 ,0.66381 ,4.82284 ,47.32167 
38 ,7.1403 ,0.66553 ,4.79546 ,47.05304 
39 ,7.3167 ,0.66737 ,4.78177 ,46.91873 
40 ,7.4928 ,0.66911 ,4.73728 ,46.48221 
41 ,7.7170 ,0.67110 ,4.72017 ,46.31432 
42 ,7.8930 ,0.67313 ,4.70990 ,46.21359 
43 ,8.0691 ,0.67499 ,4.70306 ,46.14643 
44 ,8.2452 ,0.67661 ,4.68595 ,45.97854 
45 ,8.4212 ,0.67840 ,4.67911 ,45.91138 
46 ,8.6132 ,0.68024 ,4.64488 ,45.57560 
47 ,8.7894 ,0.68209 ,4.63804 ,45.50844 
48 ,8.9656 ,0.68387 ,4.63119 ,45.44128 
49 ,9.1574 ,0.68579 ,4.60040 ,45.13908 
50 ,9.3333 ,0.68756 ,4.56960 ,44.83688 
51 ,9.5096 ,0.68923 ,4.56275 ,44.76972 
52 ,9.7176 ,0.69130 ,4.53195 ,44.46751 
53 ,9.8940 ,0.69313 ,4.52169 ,44.36678 
54 ,10.0699 ,0.69490 ,4.49431 ,44.09815 
55 ,10.2779 ,0.69692 ,4.47720 ,43.93026 
56 ,10.4540 ,0.69868 ,4.47035 ,43.86310 
57 ,10.6460 ,0.70062 ,4.45324 ,43.69521 
58 ,10.8221 ,0.70241 ,4.44640 ,43.62806 
59 ,10.9981 ,0.70410 ,4.40533 ,43.22512 
60 ,11.1739 ,0.70588 ,4.38822 ,43.05723 
61 ,11.3503 ,0.70770 ,4.37453 ,42.92291 
62 ,11.5584 ,0.70974 ,4.35400 ,42.72144 
63 ,11.7666 ,0.71174 ,4.34031 ,42.58713 
64 ,11.9424 ,0.71360 ,4.35058 ,42.68786 
65 ,12.1506 ,0.71554 ,4.30267 ,42.21777 
66 ,12.3427 ,0.71755 ,4.28556 ,42.04988 
67 ,12.5509 ,0.71964 ,4.26845 ,41.88198 
68 ,12.7270 ,0.72149 ,4.25476 ,41.74767 
69 ,12.9190 ,0.72333 ,4.22396 ,41.44547 
70 ,13.0949 ,0.72513 ,4.20000 ,41.21042 
71 ,13.2870 ,0.72701 ,4.19658 ,41.17684 
72 ,13.4792 ,0.72891 ,4.15551 ,40.77390 
73 ,13.6715 ,0.73089 ,4.14525 ,40.67317 
74 ,13.8474 ,0.73268 ,4.14183 ,40.63959 
75 ,14.0395 ,0.73459 ,4.12471 ,40.47170 
76 ,14.2154 ,0.73631 ,4.09391 ,40.16949 
77 ,14.3913 ,0.73809 ,4.08365 ,40.06876 
78 ,14.5677 ,0.73986 ,4.07338 ,39.96802 
79 ,14.7598 ,0.74178 ,4.05285 ,39.76655 
80 ,14.9358 ,0.74350 ,4.02547 ,39.49793 
81 ,15.1275 ,0.74536 ,4.02889 ,39.53150 
82 ,15.3040 ,0.74717 ,4.00494 ,39.29646 
83 ,15.4799 ,0.74897 ,3.99125 ,39.16214 
84 ,15.6724 ,0.75073 ,3.96045 ,38.85994 
85 ,15.8642 ,0.75283 ,3.95361 ,38.79278 
86 ,16.0402 ,0.75453 ,3.92965 ,38.55773 
87 ,16.2163 ,0.75631 ,3.89885 ,38.25553 
88 ,16.3924 ,0.75812 ,3.88858 ,38.15479 
89 ,16.5524 ,0.75978 ,3.87490 ,38.02048 
90 ,16.7285 ,0.76144 ,3.86805 ,37.95332 
91 ,16.9046 ,0.76321 ,3.85436 ,37.81901 
92 ,17.0805 ,0.76493 ,3.84752 ,37.75185 
93 ,17.2568 ,0.76670 ,3.80645 ,37.34891 
94 ,17.4649 ,0.76867 ,3.80645 ,37.34891 
95 ,17.6568 ,0.77067 ,3.77565 ,37.04671 
96 ,17.8329 ,0.77252 ,3.76196 ,36.91240 
97 ,18.0088 ,0.77421 ,3.74828 ,36.77808 
98 ,18.1848 ,0.77600 ,3.74143 ,36.71093 
99 ,18.3611 ,0.77777 ,3.71405 ,36.44230 
100 ,18.5371 ,0.77953 ,3.71063 ,36.40872 
101 ,18.6972 ,0.78122 ,3.67641 ,36.07294 
102 ,18.8890 ,0.78298 ,3.67641 ,36.07294 
103 ,19.0655 ,0.78484 ,3.66957 ,36.00578 
104 ,19.2576 ,0.78677 ,3.63534 ,35.67000 
105 ,19.4335 ,0.78845 ,3.62166 ,35.53569 
106 ,19.6255 ,0.79042 ,3.61139 ,35.43495 
107 ,19.8178 ,0.79228 ,3.58059 ,35.13275 
108 ,20.0098 ,0.79422 ,3.57717 ,35.09917 
109 ,20.1858 ,0.79597 ,3.55663 ,34.89770 
110 ,20.3617 ,0.79776 ,3.54979 ,34.83054 
111 ,20.5379 ,0.79954 ,3.53268 ,34.66265 
112 ,20.7138 ,0.80131 ,3.49161 ,34.25971 
113 ,20.9060 ,0.80319 ,3.50872 ,34.42760 
114 ,21.0820 ,0.80499 ,3.48819 ,34.22613 
115 ,21.2740 ,0.80687 ,3.45397 ,33.89035 
116 ,21.4504 ,0.80861 ,3.43686 ,33.72246 
117 ,21.6423 ,0.81058 ,3.44370 ,33.78961 
118 ,21.8179 ,0.81233 ,3.40948 ,33.45383 
119 ,21.9945 ,0.81407 ,3.37868 ,33.15163 
120 ,22.1707 ,0.81587 ,3.36842 ,33.05089 
121 ,22.3627 ,0.81772 ,3.37868 ,33.15163 
122 ,22.5389 ,0.81953 ,3.34788 ,32.84942 
123 ,22.7309 ,0.82143 ,3.32393 ,32.61437 
124 ,22.9069 ,0.82318 ,3.32393 ,32.61437 
125 ,23.0829 ,0.82492 ,3.32051 ,32.58080 
126 ,23.2590 ,0.82674 ,3.28628 ,32.24501 
127 ,23.4352 ,0.82846 ,3.26917 ,32.07712 
128 ,23.6110 ,0.83024 ,3.26575 ,32.04354 
129 ,23.7872 ,0.83202 ,3.24522 ,31.84207 
130 ,23.9633 ,0.83375 ,3.23837 ,31.77492 
131 ,24.1394 ,0.83551 ,3.21100 ,31.50629 
132 ,24.3155 ,0.83728 ,3.19388 ,31.33840 
133 ,24.4916 ,0.83906 ,3.17335 ,31.13693 
134 ,24.6678 ,0.84083 ,3.16993 ,31.10335 
135 ,24.8437 ,0.84258 ,3.16309 ,31.03619 
136 ,25.0198 ,0.84430 ,3.15282 ,30.93546 
137 ,25.1797 ,0.84604 ,3.11518 ,30.56610 
138 ,25.3721 ,0.84786 ,3.11175 ,30.53252 
139 ,25.5481 ,0.84962 ,3.10491 ,30.46536 
140 ,25.7401 ,0.85152 ,3.08438 ,30.26389 
141 ,25.9160 ,0.85331 ,3.06042 ,30.02884 
142 ,26.0923 ,0.85505 ,3.03989 ,29.82737 
143 ,26.2685 ,0.85681 ,3.02962 ,29.72664 
144 ,26.4764 ,0.85885 ,2.99882 ,29.42444 
145 ,26.6683 ,0.86076 ,3.00224 ,29.45801 
146 ,26.8446 ,0.86260 ,2.99540 ,29.39086 
147 ,27.0205 ,0.86437 ,2.98171 ,29.25654 
148 ,27.2128 ,0.86625 ,2.94407 ,28.88718 
149 ,27.4048 ,0.86819 ,2.93722 ,28.82003 
150 ,27.5807 ,0.86993 ,2.93722 ,28.82003 
151 ,27.7569 ,0.87174 ,2.89958 ,28.45066 
152 ,27.9330 ,0.87343 ,2.88589 ,28.31635 
153 ,28.1088 ,0.87532 ,2.88931 ,28.34993 
154 ,28.2852 ,0.87697 ,2.88247 ,28.28277 
155 ,28.4773 ,0.87885 ,2.84825 ,27.94699 
156 ,28.6533 ,0.88071 ,2.84140 ,27.87983 
157 ,28.8453 ,0.88258 ,2.82771 ,27.74552 
158 ,29.0375 ,0.88436 ,2.81060 ,27.57763 
159 ,29.2131 ,0.88621 ,2.78665 ,27.34258 
160 ,29.3896 ,0.88800 ,2.77638 ,27.24185 
161 ,29.5657 ,0.88975 ,2.77638 ,27.24185 
162 ,29.7578 ,0.89173 ,2.74216 ,26.90606 
163 ,29.9498 ,0.89361 ,2.74900 ,26.97322 
164 ,30.1259 ,0.89533 ,2.72505 ,26.73817 
165 ,30.3178 ,0.89721 ,2.69083 ,26.40239 
166 ,30.4940 ,0.89902 ,2.67029 ,26.20092 
167 ,30.6704 ,0.90077 ,2.66687 ,26.16734 
168 ,30.8461 ,0.90256 ,2.65318 ,26.03303 
169 ,31.0222 ,0.90431 ,2.64634 ,25.96587 
170 ,31.1819 ,0.90602 ,2.62923 ,25.79798 
171 ,31.3422 ,0.90761 ,2.60185 ,25.52935 
172 ,31.5183 ,0.90924 ,2.59158 ,25.42862 
173 ,31.7103 ,0.91119 ,2.58132 ,25.32788 
174 ,31.9186 ,0.91319 ,2.56763 ,25.19357 
175 ,32.1107 ,0.91510 ,2.54367 ,24.95852 
176 ,32.3027 ,0.91711 ,2.54367 ,24.95852 
177 ,32.4787 ,0.91884 ,2.52998 ,24.82421 
178 ,32.6711 ,0.92077 ,2.50945 ,24.62274 
179 ,32.8469 ,0.92256 ,2.48550 ,24.38769 
180 ,33.0229 ,0.92431 ,2.49234 ,24.45485 
181 ,33.1989 ,0.92603 ,2.45812 ,24.11906 
182 ,33.3752 ,0.92781 ,2.43416 ,23.88402 
183 ,33.5670 ,0.92976 ,2.43759 ,23.91759 
184 ,33.7594 ,0.93168 ,2.40679 ,23.61539 
185 ,33.9354 ,0.93345 ,2.38625 ,23.41392 
186 ,34.1114 ,0.93521 ,2.37599 ,23.31318 
187 ,34.2876 ,0.93698 ,2.38968 ,23.44750 
188 ,34.4793 ,0.93890 ,2.36572 ,23.21245 
189 ,34.6557 ,0.94071 ,2.33492 ,22.91024 
190 ,34.8318 ,0.94243 ,2.32465 ,22.80951 
191 ,35.0078 ,0.94419 ,2.32123 ,22.77593 
192 ,35.1838 ,0.94592 ,2.31097 ,22.67520 
193 ,35.3599 ,0.94773 ,2.29043 ,22.47373 
194 ,35.5357 ,0.94948 ,2.27674 ,22.33941 
195 ,35.7120 ,0.95123 ,2.25621 ,22.13794 
196 ,35.8882 ,0.95294 ,2.24594 ,22.03721 
197 ,36.0802 ,0.95487 ,2.21857 ,21.76858 
198 ,36.2402 ,0.95658 ,2.21172 ,21.70143 
199 ,36.4164 ,0.95823 ,2.17408 ,21.33206 
200 ,36.6081 ,0.96006 ,2.18777 ,21.46638 
201 ,36.7842 ,0.96191 ,2.17750 ,21.36564 
202 ,36.9606 ,0.96371 ,2.15012 ,21.09702 
203 ,37.1368 ,0.96543 ,2.12617 ,20.86197 
204 ,37.3128 ,0.96718 ,2.12959 ,20.89555 
205 ,37.5045 ,0.96903 ,2.11248 ,20.72766 
206 ,37.6805 ,0.97088 ,2.09879 ,20.59334 
207 ,37.8726 ,0.97271 ,2.07826 ,20.39187 
208 ,38.0487 ,0.97457 ,2.07826 ,20.39187 
209 ,38.2247 ,0.97633 ,2.05088 ,20.12325 
210 ,38.4008 ,0.97806 ,2.04061 ,20.02251 
211 ,38.5929 ,0.97994 ,2.00639 ,19.68673 
212 ,38.7848 ,0.98187 ,2.00639 ,19.68673 
213 ,38.9614 ,0.98366 ,1.99270 ,19.55241 
214 ,39.1534 ,0.98561 ,1.97559 ,19.38452 
215 ,39.3294 ,0.98735 ,1.98244 ,19.45168 
216 ,39.5215 ,0.98924 ,1.94822 ,19.11590 
217 ,39.6976 ,0.99102 ,1.93111 ,18.94801 
218 ,39.8577 ,0.99276 ,1.93111 ,18.94801 
219 ,40.0338 ,0.99442 ,1.90715 ,18.71296 
220 ,40.2258 ,0.99631 ,1.90715 ,18.71296 
221 ,40.4019 ,0.99808 ,1.87977 ,18.44433 
222 ,40.5939 ,0.99997 ,1.84555 ,18.10855 
223 ,40.7861 ,1.00184 ,1.85582 ,18.20928 
224 ,40.9781 ,1.00382 ,1.82160 ,17.87350 
225 ,41.1863 ,1.00592 ,1.83186 ,17.97423 
226 ,41.3622 ,1.00774 ,1.82160 ,17.87350 
227 ,41.5540 ,1.00961 ,1.77711 ,17.43698 
228 ,41.7302 ,1.01137 ,1.78737 ,17.53772 
229 ,41.9062 ,1.01316 ,1.77369 ,17.40340 
230 ,42.0825 ,1.01490 ,1.74289 ,17.10120 
231 ,42.2907 ,1.01689 ,1.72920 ,16.96689 
232 ,42.4669 ,1.01876 ,1.71209 ,16.79899 
233 ,42.6425 ,1.02046 ,1.69155 ,16.59752 
234 ,42.8188 ,1.02227 ,1.68471 ,16.53037 
235 ,42.9947 ,1.02395 ,1.66418 ,16.32890 
236 ,43.1711 ,1.02576 ,1.65733 ,16.26174 
237 ,43.3471 ,1.02753 ,1.65391 ,16.22816 
238 ,43.5230 ,1.02933 ,1.63680 ,16.06027 
239 ,43.6993 ,1.03109 ,1.61284 ,15.82522 
240 ,43.8914 ,1.03297 ,1.60258 ,15.72449 
241 ,44.0510 ,1.03470 ,1.59573 ,15.65733 
242 ,44.2274 ,1.03629 ,1.59231 ,15.62375 
243 ,44.4034 ,1.03809 ,1.56836 ,15.38871 
244 ,44.5797 ,1.03979 ,1.54782 ,15.18724 
245 ,44.7557 ,1.04160 ,1.53071 ,15.01934 
246 ,44.9477 ,1.04355 ,1.54098 ,15.12008 
247 ,45.1399 ,1.04534 ,1.50676 ,14.78430 
248 ,45.3319 ,1.04737 ,1.49649 ,14.68356 
249 ,45.5080 ,1.04912 ,1.47938 ,14.51567 
250 ,45.6840 ,1.05090 ,1.45542 ,14.28062 
251 ,45.8601 ,1.05266 ,1.45200 ,14.24704 
252 ,46.0521 ,1.05453 ,1.45200 ,14.24704 
253 ,46.2282 ,1.05632 ,1.42462 ,13.97842 
254 ,46.4199 ,1.05824 ,1.40067 ,13.74337 
255 ,46.5964 ,1.06001 ,1.40409 ,13.77695 
256 ,46.7725 ,1.06174 ,1.39040 ,13.64263 
257 ,46.9648 ,1.06371 ,1.36987 ,13.44116 
258 ,47.1565 ,1.06552 ,1.34591 ,13.20612 
259 ,47.3483 ,1.06744 ,1.34249 ,13.17254 
260 ,47.5247 ,1.06929 ,1.33565 ,13.10538 
261 ,47.7168 ,1.07113 ,1.31854 ,12.93749 
262 ,47.9087 ,1.07313 ,1.32196 ,12.97107 
263 ,48.0847 ,1.07490 ,1.29116 ,12.66886 
264 ,48.2607 ,1.07664 ,1.26720 ,12.43381 
265 ,48.4371 ,1.07845 ,1.24667 ,12.23235 
266 ,48.6133 ,1.08017 ,1.26036 ,12.36666 
267 ,48.8212 ,1.08221 ,1.23298 ,12.09803 
268 ,48.9974 ,1.08396 ,1.21929 ,11.96372 
269 ,49.2053 ,1.08605 ,1.20561 ,11.82941 
270 ,49.3814 ,1.08782 ,1.18507 ,11.62794 
271 ,49.5411 ,1.08954 ,1.17823 ,11.56078 
272 ,49.7336 ,1.09130 ,1.17481 ,11.52720 
273 ,49.9098 ,1.09315 ,1.16454 ,11.42647 
274 ,50.0858 ,1.09495 ,1.16112 ,11.39289 
275 ,50.2779 ,1.09674 ,1.14058 ,11.19142 
276 ,50.4537 ,1.09860 ,1.12347 ,11.02353 
277 ,50.6621 ,1.10051 ,1.08925 ,10.68774 
278 ,50.8378 ,1.10241 ,1.07214 ,10.51985 
279 ,50.9976 ,1.10411 ,1.07214 ,10.51985 
280 ,51.1741 ,1.10570 ,1.07214 ,10.51985 
281 ,51.3502 ,1.10751 ,1.05503 ,10.35196 
282 ,51.5102 ,1.10923 ,1.03792 ,10.18407 
283 ,51.7022 ,1.11095 ,1.03108 ,10.11691 
284 ,51.8786 ,1.11279 ,1.01054 ,9.91544 
285 ,52.0866 ,1.11480 ,1.00028 ,9.81471 
286 ,52.2625 ,1.11666 ,0.97632 ,9.57966 
287 ,52.4547 ,1.11850 ,0.97290 ,9.54608 
288 ,52.6308 ,1.12031 ,0.95579 ,9.37819 
289 ,52.8069 ,1.12211 ,0.95579 ,9.37819 
290 ,52.9990 ,1.12391 ,0.92841 ,9.10956 
291 ,53.1907 ,1.12587 ,0.92841 ,9.10956 
292 ,53.3671 ,1.12770 ,0.90788 ,8.90809 
293 ,53.5429 ,1.12940 ,0.88392 ,8.67305 
294 ,53.7194 ,1.13122 ,0.86339 ,8.47158 
295 ,53.9274 ,1.13321 ,0.85997 ,8.43800 
296 ,54.1194 ,1.13522 ,0.83943 ,8.23653 
297 ,54.2956 ,1.13700 ,0.84286 ,8.27011 
298 ,54.4876 ,1.13885 ,0.82232 ,8.06864 
299 ,54.6476 ,1.14061 ,0.80179 ,7.86717 
300 ,54.8237 ,1.14220 ,0.78810 ,7.73285 
301 ,55.0159 ,1.14408 ,0.77441 ,7.59854 
302 ,55.1919 ,1.14595 ,0.78810 ,7.73285 
303 ,55.3839 ,1.14780 ,0.75046 ,7.36349 
304 ,55.5600 ,1.14963 ,0.73335 ,7.19560 
305 ,55.7200 ,1.15132 ,0.75046 ,7.36349 
306 ,55.9120 ,1.15307 ,0.73677 ,7.22918 
307 ,56.0882 ,1.15487 ,0.71624 ,7.02771 
308 ,56.2644 ,1.15664 ,0.68886 ,6.75908 
309 ,56.4562 ,1.15855 ,0.67517 ,6.62477 
310 ,56.6325 ,1.16036 ,0.67517 ,6.62477 
311 ,56.8246 ,1.16218 ,0.64437 ,6.32256 
312 ,57.0326 ,1.16430 ,0.66148 ,6.49046 
313 ,57.2088 ,1.16606 ,0.64437 ,6.32256 
314 ,57.4008 ,1.16801 ,0.61357 ,6.02036 
315 ,57.5929 ,1.16986 ,0.61357 ,6.02036 
316 ,57.7685 ,1.17167 ,0.58619 ,5.75173 
317 ,57.9449 ,1.17343 ,0.57593 ,5.65100 
318 ,58.1210 ,1.17527 ,0.56224 ,5.51668 
319 ,58.2971 ,1.17698 ,0.55882 ,5.48311 
320 ,58.4737 ,1.17874 ,0.55882 ,5.48311 
321 ,58.6493 ,1.18050 ,0.53828 ,5.28164 
322 ,58.8251 ,1.18219 ,0.52117 ,5.11375 
323 ,59.0015 ,1.18400 ,0.50406 ,4.94585 
324 ,59.1775 ,1.18575 ,0.50406 ,4.94585 
325 ,59.3536 ,1.18753 ,0.50406 ,4.94585 
326 ,59.5458 ,1.18945 ,0.46300 ,4.54291 
327 ,59.7217 ,1.19123 ,0.45957 ,4.50934 
328 ,59.8975 ,1.19295 ,0.44246 ,4.34144 
329 ,60.0900 ,1.19477 ,0.45273 ,4.44218 
330 ,60.2656 ,1.19671 ,0.42193 ,4.13997 
331 ,60.4579 ,1.19843 ,0.40824 ,4.00566 
332 ,60.6339 ,1.20031 ,0.40140 ,3.93850 
333 ,60.8422 ,1.20237 ,0.38771 ,3.80419 
334 ,61.0340 ,1.20425 ,0.39113 ,3.83777 
335 ,61.2583 ,1.20645 ,0.36033 ,3.53557 
336 ,61.4344 ,1.20828 ,0.37060 ,3.63630 
337 ,61.6424 ,1.21035 ,0.32953 ,3.23336 
338 ,61.8347 ,1.21219 ,0.33980 ,3.33410 
339 ,62.0107 ,1.21410 ,0.32611 ,3.19978 
340 ,62.1865 ,1.21582 ,0.30558 ,2.99831 
341 ,62.3627 ,1.21761 ,0.29189 ,2.86400 
342 ,62.5384 ,1.21932 ,0.28847 ,2.83042 
343 ,62.7145 ,1.22110 ,0.28504 ,2.79684 
344 ,62.8745 ,1.22285 ,0.26793 ,2.62895 
345 ,63.0506 ,1.22448 ,0.25424 ,2.49464 
346 ,63.2268 ,1.22627 ,0.24055 ,2.36032 
347 ,63.4033 ,1.22801 ,0.22687 ,2.22601 
348 ,63.5952 ,1.22984 ,0.22344 ,2.19243 
349 ,63.7711 ,1.23166 ,0.20633 ,2.02454 
350 ,63.9474 ,1.23343 ,0.19264 ,1.89023 
351 ,64.1072 ,1.23516 ,0.18580 ,1.82307 
352 ,64.2675 ,1.23677 ,0.17553 ,1.72234 
353 ,64.4437 ,1.23840 ,0.16185 ,1.58802 
354 ,64.6358 ,1.24023 ,0.16185 ,1.58802 
355 ,64.8118 ,1.24209 ,0.15842 ,1.55445 
356 ,64.9878 ,1.24378 ,0.12078 ,1.18508 
357 ,65.1638 ,1.24564 ,0.13105 ,1.28582 
358 ,65.3400 ,1.24736 ,0.11736 ,1.15151 
359 ,65.5482 ,1.24942 ,0.09682 ,0.95004 
360 ,65.7403 ,1.25131 ,0.10367 ,1.01719 
361 ,65.9163 ,1.25313 ,0.08656 ,0.84930 
362 ,66.0923 ,1.25490 ,0.07287 ,0.71499 
363 ,66.2844 ,1.25681 ,0.06260 ,0.61425 
364 ,66.4605 ,1.25859 ,0.04891 ,0.47994 
365 ,66.6524 ,1.26048 ,0.03865 ,0.37920 
366 ,66.8283 ,1.26223 ,0.02154 ,0.21131 
367 ,67.0047 ,1.26396 ,0.00443 ,0.04342 
368 ,67.1807 ,1.26573 ,0.00785 ,0.07700 
369 ,67.3569 ,1.26749 ,0.00443 ,0.04342 
370 ,67.5329 ,1.26921 ,-0.01953 ,-0.19163 
371 ,67.7091 ,1.27102 ,-0.02637 ,-0.25878 
372 ,67.8850 ,1.27278 ,-0.04006 ,-0.39310 
373 ,68.0772 ,1.27462 ,-0.04348 ,-0.42667 
374 ,68.2530 ,1.27648 ,-0.05375 ,-0.52741 
375 ,68.4292 ,1.27823 ,-0.07086 ,-0.69530 
376 ,68.6054 ,1.28004 ,-0.08797 ,-0.86319 
377 ,68.7974 ,1.28194 ,-0.08455 ,-0.82961 
378 ,68.9736 ,1.28367 ,-0.08797 ,-0.86319 
379 ,69.1496 ,1.28545 ,-0.10508 ,-1.03108 
380 ,69.3575 ,1.28744 ,-0.11193 ,-1.09824 
381 ,69.5499 ,1.28941 ,-0.13246 ,-1.29971 
382 ,69.7417 ,1.29134 ,-0.12904 ,-1.26613 
383 ,69.9178 ,1.29313 ,-0.12904 ,-1.26613 
384 ,70.1099 ,1.29510 ,-0.16326 ,-1.60191 
385 ,70.2859 ,1.29682 ,-0.17353 ,-1.70265 
386 ,70.4618 ,1.29859 ,-0.17353 ,-1.70265 
387 ,70.6541 ,1.30040 ,-0.17353 ,-1.70265 
388 ,70.8462 ,1.30231 ,-0.20775 ,-2.03843 
389 ,71.0382 ,1.30432 ,-0.19406 ,-1.90412 
390 ,71.2144 ,1.30612 ,-0.21459 ,-2.10559 
391 ,71.4065 ,1.30804 ,-0.24197 ,-2.37422 
392 ,71.5822 ,1.30972 ,-0.23513 ,-2.30706 
393 ,71.7588 ,1.31152 ,-0.22828 ,-2.23990 
394 ,71.9344 ,1.31327 ,-0.24881 ,-2.44137 
395 ,72.1108 ,1.31504 ,-0.26935 ,-2.64284 
396 ,72.2869 ,1.31676 ,-0.27619 ,-2.71000 
397 ,72.4629 ,1.31855 ,-0.27961 ,-2.74358 
398 ,72.6390 ,1.32034 ,-0.27277 ,-2.67642 
399 ,72.8150 ,1.32205 ,-0.29673 ,-2.91147 
400 ,72.9910 ,1.32385 ,-0.31384 ,-3.07936 
401 ,73.1829 ,1.32572 ,-0.31041 ,-3.04578 
402 ,73.3751 ,1.32754 ,-0.32752 ,-3.21367 
403 ,73.5513 ,1.32945 ,-0.34806 ,-3.41514 
404 ,73.7112 ,1.33114 ,-0.35148 ,-3.44872 
405 ,73.8875 ,1.33280 ,-0.35148 ,-3.44872 
406 ,74.0636 ,1.33460 ,-0.36175 ,-3.54946 
407 ,74.2555 ,1.33643 ,-0.36517 ,-3.58303 
408 ,74.4318 ,1.33825 ,-0.39255 ,-3.85166 
409 ,74.6077 ,1.34003 ,-0.40281 ,-3.95240 
410 ,74.7839 ,1.34174 ,-0.39255 ,-3.85166 
411 ,74.9600 ,1.34355 ,-0.39597 ,-3.88524 
412 ,75.1361 ,1.34530 ,-0.40623 ,-3.98597 
413 ,75.3280 ,1.34722 ,-0.43361 ,-4.25460 
414 ,75.5041 ,1.34895 ,-0.41992 ,-4.12029 
415 ,75.6958 ,1.35088 ,-0.43019 ,-4.22102 
416 ,75.8724 ,1.35263 ,-0.46099 ,-4.52323 
417 ,76.0643 ,1.35459 ,-0.45757 ,-4.48965 
418 ,76.2726 ,1.35659 ,-0.48152 ,-4.72470 
419 ,76.4642 ,1.35853 ,-0.46441 ,-4.55681 
420 ,76.6565 ,1.36050 ,-0.48494 ,-4.75828 
421 ,76.8326 ,1.36225 ,-0.50206 ,-4.92617 
422 ,77.0084 ,1.36398 ,-0.50548 ,-4.95975 
423 ,77.1846 ,1.36573 ,-0.50890 ,-4.99332 
424 ,77.3765 ,1.36754 ,-0.51232 ,-5.02690 
425 ,77.5528 ,1.36945 ,-0.53628 ,-5.26195 
426 ,77.7450 ,1.37137 ,-0.52601 ,-5.16121 
427 ,77.9050 ,1.37309 ,-0.52943 ,-5.19479 
428 ,78.0812 ,1.37475 ,-0.54312 ,-5.32911 
429 ,78.2572 ,1.37649 ,-0.56023 ,-5.49700 
430 ,78.4333 ,1.37821 ,-0.56365 ,-5.53058 
431 ,78.6094 ,1.37997 ,-0.58077 ,-5.69847 
432 ,78.8016 ,1.38201 ,-0.58419 ,-5.73205 
433 ,78.9776 ,1.38367 ,-0.58419 ,-5.73205 
434 ,79.1854 ,1.38574 ,-0.58419 ,-5.73205 
435 ,79.3777 ,1.38759 ,-0.59445 ,-5.83278 
436 ,79.5536 ,1.38944 ,-0.61841 ,-6.06783 
437 ,79.7299 ,1.39127 ,-0.62525 ,-6.13499 
438 ,79.9216 ,1.39309 ,-0.61841 ,-6.06783 
439 ,80.0979 ,1.39490 ,-0.62525 ,-6.13499 
440 ,80.2739 ,1.39663 ,-0.65605 ,-6.43719 
441 ,80.4501 ,1.39839 ,-0.67316 ,-6.60508 
442 ,80.6261 ,1.40020 ,-0.66290 ,-6.50435 
443 ,80.8183 ,1.40205 ,-0.68001 ,-6.67224 
444 ,80.9940 ,1.40385 ,-0.68685 ,-6.73940 
445 ,81.1704 ,1.40562 ,-0.70054 ,-6.87371 
446 ,81.3465 ,1.40737 ,-0.69712 ,-6.84013 
447 ,81.5224 ,1.40917 ,-0.69027 ,-6.77297 
448 ,81.6986 ,1.41093 ,-0.71081 ,-6.97444 
449 ,81.8746 ,1.41265 ,-0.73818 ,-7.24307 
450 ,82.0665 ,1.41451 ,-0.72107 ,-7.07518 
451 ,82.2427 ,1.41631 ,-0.74161 ,-7.27665 
452 ,82.4190 ,1.41804 ,-0.75187 ,-7.37738 
453 ,82.6110 ,1.42001 ,-0.76214 ,-7.47812 
454 ,82.7868 ,1.42174 ,-0.75872 ,-7.44454 
455 ,82.9631 ,1.42354 ,-0.75530 ,-7.41096 
456 ,83.1227 ,1.42524 ,-0.78267 ,-7.67959 
457 ,83.2993 ,1.42687 ,-0.77925 ,-7.64601 
458 ,83.4913 ,1.42880 ,-0.79636 ,-7.81390 
459 ,83.6673 ,1.43055 ,-0.79978 ,-7.84748 
460 ,83.8434 ,1.43228 ,-0.80321 ,-7.88106 
461 ,84.0195 ,1.43407 ,-0.82374 ,-8.08253 
462 ,84.1952 ,1.43597 ,-0.82716 ,-8.11611 
463 ,84.3719 ,1.43759 ,-0.83401 ,-8.18326 
