Data stamp = , 03-04-2022 03:24:38 479

Calibration Values: 
Slope = , 26.54 , g/V 
Offset Voltage at no contact = , -0.501760 , V 

No , Time , Stage Position ,   Mass , Force 
   ,  (s) ,      (mm)      ,   (g)  , (mN)  

1 ,0.0000 ,0.64940 ,5.01448 ,49.20205 
2 ,0.2135 ,0.64947 ,5.02132 ,49.26921 
3 ,0.5174 ,0.65026 ,5.00763 ,49.13490 
4 ,0.7097 ,0.65161 ,5.02132 ,49.26921 
5 ,0.8855 ,0.65307 ,5.01790 ,49.23563 
6 ,1.0617 ,0.65479 ,5.02132 ,49.26921 
7 ,1.2541 ,0.65666 ,5.02817 ,49.33637 
8 ,1.4296 ,0.65847 ,5.01790 ,49.23563 
9 ,1.6059 ,0.66017 ,4.98710 ,48.93343 
10 ,1.7661 ,0.66198 ,4.98026 ,48.86627 
11 ,1.9422 ,0.66363 ,4.96999 ,48.76554 
12 ,2.1184 ,0.66537 ,4.96999 ,48.76554 
13 ,2.3104 ,0.66730 ,4.92892 ,48.36260 
14 ,2.5022 ,0.66919 ,4.93235 ,48.39618 
15 ,2.6946 ,0.67106 ,4.90155 ,48.09397 
16 ,2.8864 ,0.67292 ,4.89470 ,48.02681 
17 ,3.0787 ,0.67486 ,4.88101 ,47.89250 
18 ,3.3028 ,0.67705 ,4.84679 ,47.55672 
19 ,3.4948 ,0.67913 ,4.85364 ,47.62387 
20 ,3.6705 ,0.68087 ,4.82626 ,47.35525 
21 ,3.8465 ,0.68262 ,4.79204 ,47.01946 
22 ,4.0226 ,0.68435 ,4.78861 ,46.98589 
23 ,4.2150 ,0.68623 ,4.77835 ,46.88515 
24 ,4.4236 ,0.68839 ,4.76124 ,46.71726 
25 ,4.5989 ,0.69015 ,4.75439 ,46.65010 
26 ,4.7754 ,0.69192 ,4.74413 ,46.54937 
27 ,4.9995 ,0.69403 ,4.70990 ,46.21359 
28 ,5.1915 ,0.69610 ,4.69964 ,46.11285 
29 ,5.3677 ,0.69786 ,4.66199 ,45.74349 
30 ,5.5438 ,0.69961 ,4.64146 ,45.54202 
31 ,5.7518 ,0.70159 ,4.62777 ,45.40771 
32 ,5.9281 ,0.70345 ,4.61066 ,45.23981 
33 ,6.1038 ,0.70522 ,4.59697 ,45.10550 
34 ,6.2961 ,0.70707 ,4.58671 ,45.00477 
35 ,6.4721 ,0.70885 ,4.57644 ,44.90403 
36 ,6.6484 ,0.71066 ,4.54906 ,44.63541 
37 ,6.8403 ,0.71257 ,4.53195 ,44.46751 
38 ,7.0324 ,0.71446 ,4.51484 ,44.29962 
39 ,7.2085 ,0.71624 ,4.51142 ,44.26604 
40 ,7.4004 ,0.71817 ,4.49089 ,44.06457 
41 ,7.5766 ,0.71993 ,4.47720 ,43.93026 
42 ,7.7686 ,0.72178 ,4.42929 ,43.46016 
43 ,7.9608 ,0.72368 ,4.43613 ,43.52732 
44 ,8.1686 ,0.72576 ,4.41560 ,43.32585 
45 ,8.3608 ,0.72773 ,4.40191 ,43.19154 
46 ,8.5847 ,0.72987 ,4.36084 ,42.78860 
47 ,8.7768 ,0.73188 ,4.36769 ,42.85576 
48 ,8.9527 ,0.73365 ,4.34373 ,42.62071 
49 ,9.1450 ,0.73556 ,4.31293 ,42.31850 
50 ,9.3210 ,0.73733 ,4.29924 ,42.18419 
51 ,9.4974 ,0.73911 ,4.30609 ,42.25135 
52 ,9.6730 ,0.74086 ,4.28556 ,42.04988 
53 ,9.8493 ,0.74262 ,4.26160 ,41.81483 
54 ,10.0255 ,0.74436 ,4.24791 ,41.68051 
55 ,10.2175 ,0.74634 ,4.23080 ,41.51262 
56 ,10.3934 ,0.74806 ,4.21369 ,41.34473 
57 ,10.5696 ,0.74984 ,4.19316 ,41.14326 
58 ,10.7458 ,0.75163 ,4.15894 ,40.80748 
59 ,10.9377 ,0.75347 ,4.17947 ,41.00895 
60 ,11.1138 ,0.75533 ,4.13156 ,40.53885 
61 ,11.3060 ,0.75719 ,4.12129 ,40.43812 
62 ,11.4820 ,0.75896 ,4.09391 ,40.16949 
63 ,11.6902 ,0.76082 ,4.09734 ,40.20307 
64 ,11.8983 ,0.76307 ,4.06996 ,39.93444 
65 ,12.0742 ,0.76488 ,4.05969 ,39.83371 
66 ,12.2664 ,0.76678 ,4.01863 ,39.43077 
67 ,12.4423 ,0.76861 ,3.99809 ,39.22930 
68 ,12.6187 ,0.77035 ,3.98098 ,39.06141 
69 ,12.8105 ,0.77215 ,3.97756 ,39.02783 
70 ,13.0027 ,0.77420 ,3.95361 ,38.79278 
71 ,13.1786 ,0.77592 ,3.92965 ,38.55773 
72 ,13.3709 ,0.77784 ,3.93992 ,38.65847 
73 ,13.5469 ,0.77965 ,3.91254 ,38.38984 
74 ,13.7391 ,0.78150 ,3.90227 ,38.28911 
75 ,13.9313 ,0.78335 ,3.87147 ,37.98690 
76 ,14.1230 ,0.78537 ,3.84752 ,37.75185 
77 ,14.2993 ,0.78717 ,3.82356 ,37.51681 
78 ,14.4914 ,0.78899 ,3.82699 ,37.55038 
79 ,14.6672 ,0.79083 ,3.80303 ,37.31534 
80 ,14.8433 ,0.79259 ,3.76539 ,36.94597 
81 ,15.0356 ,0.79447 ,3.76539 ,36.94597 
82 ,15.2275 ,0.79636 ,3.74143 ,36.71093 
83 ,15.4038 ,0.79817 ,3.71748 ,36.47588 
84 ,15.6117 ,0.80007 ,3.72432 ,36.54303 
85 ,15.7878 ,0.80201 ,3.70379 ,36.34157 
86 ,15.9640 ,0.80377 ,3.67299 ,36.03936 
87 ,16.1399 ,0.80555 ,3.66614 ,35.97220 
88 ,16.3321 ,0.80741 ,3.66614 ,35.97220 
89 ,16.5081 ,0.80924 ,3.62508 ,35.56926 
90 ,16.6844 ,0.81097 ,3.59428 ,35.26706 
91 ,16.8924 ,0.81289 ,3.59086 ,35.23348 
92 ,17.0681 ,0.81482 ,3.58059 ,35.13275 
93 ,17.2444 ,0.81661 ,3.54295 ,34.76338 
94 ,17.4366 ,0.81839 ,3.54979 ,34.83054 
95 ,17.6286 ,0.82039 ,3.51899 ,34.52834 
96 ,17.8047 ,0.82216 ,3.49504 ,34.29329 
97 ,17.9807 ,0.82391 ,3.48135 ,34.15898 
98 ,18.1569 ,0.82571 ,3.48135 ,34.15898 
99 ,18.3648 ,0.82773 ,3.46081 ,33.95751 
100 ,18.5570 ,0.82966 ,3.43686 ,33.72246 
101 ,18.7652 ,0.83162 ,3.42317 ,33.58814 
102 ,18.9730 ,0.83382 ,3.39579 ,33.31952 
103 ,19.1653 ,0.83575 ,3.38553 ,33.21878 
104 ,19.3412 ,0.83753 ,3.36499 ,33.01731 
105 ,19.5173 ,0.83930 ,3.35130 ,32.88300 
106 ,19.7095 ,0.84116 ,3.36157 ,32.98374 
107 ,19.8855 ,0.84295 ,3.30682 ,32.44648 
108 ,20.0617 ,0.84468 ,3.29313 ,32.31217 
109 ,20.2697 ,0.84674 ,3.28628 ,32.24501 
110 ,20.4459 ,0.84859 ,3.26575 ,32.04354 
111 ,20.6379 ,0.85045 ,3.24522 ,31.84207 
112 ,20.8460 ,0.85252 ,3.23837 ,31.77492 
113 ,21.0219 ,0.85435 ,3.21784 ,31.57345 
114 ,21.1982 ,0.85612 ,3.18704 ,31.27124 
115 ,21.3739 ,0.85784 ,3.18362 ,31.23766 
116 ,21.5499 ,0.85958 ,3.18020 ,31.20409 
117 ,21.7259 ,0.86137 ,3.16309 ,31.03619 
118 ,21.9022 ,0.86308 ,3.14255 ,30.83472 
119 ,22.0942 ,0.86499 ,3.12544 ,30.66683 
120 ,22.2705 ,0.86676 ,3.11860 ,30.59968 
121 ,22.4464 ,0.86856 ,3.09122 ,30.33105 
122 ,22.6224 ,0.87031 ,3.07753 ,30.19674 
123 ,22.8146 ,0.87216 ,3.04331 ,29.86095 
124 ,23.0068 ,0.87410 ,3.03647 ,29.79380 
125 ,23.1989 ,0.87595 ,3.00909 ,29.52517 
126 ,23.3910 ,0.87797 ,3.01935 ,29.62590 
127 ,23.5669 ,0.87977 ,2.98513 ,29.29012 
128 ,23.7431 ,0.88149 ,2.96802 ,29.12223 
129 ,23.9191 ,0.88328 ,2.94064 ,28.85360 
130 ,24.0953 ,0.88500 ,2.92353 ,28.68571 
131 ,24.2872 ,0.88700 ,2.92696 ,28.71929 
132 ,24.4634 ,0.88873 ,2.90642 ,28.51782 
133 ,24.6395 ,0.89045 ,2.87905 ,28.24919 
134 ,24.8317 ,0.89233 ,2.87562 ,28.21562 
135 ,25.0238 ,0.89425 ,2.87220 ,28.18204 
136 ,25.1997 ,0.89608 ,2.83456 ,27.81268 
137 ,25.3757 ,0.89785 ,2.82087 ,27.67836 
138 ,25.5518 ,0.89955 ,2.81402 ,27.61121 
139 ,25.7439 ,0.90159 ,2.76269 ,27.10753 
140 ,25.9199 ,0.90329 ,2.76611 ,27.14111 
141 ,26.1117 ,0.90517 ,2.75927 ,27.07395 
142 ,26.2879 ,0.90696 ,2.73874 ,26.87248 
143 ,26.4803 ,0.90884 ,2.71478 ,26.63744 
144 ,26.6563 ,0.91068 ,2.69767 ,26.46954 
145 ,26.8480 ,0.91255 ,2.69767 ,26.46954 
146 ,27.0244 ,0.91434 ,2.68056 ,26.30165 
147 ,27.2166 ,0.91623 ,2.63949 ,25.89871 
148 ,27.4086 ,0.91817 ,2.65660 ,26.06661 
149 ,27.5847 ,0.91986 ,2.63607 ,25.86514 
150 ,27.7768 ,0.92180 ,2.59843 ,25.49577 
151 ,27.9525 ,0.92357 ,2.59501 ,25.46220 
152 ,28.1291 ,0.92536 ,2.57105 ,25.22715 
153 ,28.3213 ,0.92731 ,2.56763 ,25.19357 
154 ,28.4974 ,0.92909 ,2.53683 ,24.89136 
155 ,28.6892 ,0.93097 ,2.53341 ,24.85779 
156 ,28.8654 ,0.93275 ,2.52314 ,24.75705 
157 ,29.0413 ,0.93447 ,2.48550 ,24.38769 
158 ,29.2174 ,0.93626 ,2.47181 ,24.25338 
159 ,29.3932 ,0.93804 ,2.45127 ,24.05191 
160 ,29.6015 ,0.93995 ,2.45812 ,24.11906 
161 ,29.7775 ,0.94183 ,2.41705 ,23.71612 
162 ,29.9536 ,0.94361 ,2.41021 ,23.64897 
163 ,30.1298 ,0.94536 ,2.38625 ,23.41392 
164 ,30.3220 ,0.94729 ,2.38968 ,23.44750 
165 ,30.5139 ,0.94922 ,2.35203 ,23.07814 
166 ,30.6900 ,0.95103 ,2.35203 ,23.07814 
167 ,30.8659 ,0.95272 ,2.34861 ,23.04456 
168 ,31.0581 ,0.95466 ,2.32808 ,22.84309 
169 ,31.2341 ,0.95648 ,2.29043 ,22.47373 
170 ,31.4102 ,0.95814 ,2.29385 ,22.50731 
171 ,31.5864 ,0.95995 ,2.27332 ,22.30584 
172 ,31.7624 ,0.96171 ,2.26306 ,22.20510 
173 ,31.9385 ,0.96346 ,2.24937 ,22.07079 
174 ,32.1306 ,0.96530 ,2.22199 ,21.80216 
175 ,32.3385 ,0.96737 ,2.20830 ,21.66785 
176 ,32.5147 ,0.96925 ,2.18435 ,21.43280 
177 ,32.6907 ,0.97099 ,2.18092 ,21.39922 
178 ,32.8826 ,0.97274 ,2.17750 ,21.36564 
179 ,33.0589 ,0.97464 ,2.15697 ,21.16417 
180 ,33.2667 ,0.97655 ,2.14670 ,21.06344 
181 ,33.4430 ,0.97846 ,2.14328 ,21.02986 
182 ,33.6191 ,0.98026 ,2.10906 ,20.69408 
183 ,33.7954 ,0.98200 ,2.09537 ,20.55976 
184 ,33.9873 ,0.98392 ,2.06457 ,20.25756 
185 ,34.1633 ,0.98582 ,2.06457 ,20.25756 
186 ,34.3394 ,0.98745 ,2.05773 ,20.19040 
187 ,34.5154 ,0.98917 ,2.03035 ,19.92178 
188 ,34.6916 ,0.99099 ,1.99955 ,19.61957 
189 ,34.8673 ,0.99274 ,2.00982 ,19.72031 
190 ,35.0437 ,0.99451 ,2.00639 ,19.68673 
191 ,35.2357 ,0.99639 ,1.96875 ,19.31737 
192 ,35.4117 ,0.99813 ,1.95164 ,19.14948 
193 ,35.6038 ,1.00003 ,1.95506 ,19.18305 
194 ,35.7801 ,1.00185 ,1.92768 ,18.91443 
195 ,35.9718 ,1.00376 ,1.91399 ,18.78011 
196 ,36.1478 ,1.00549 ,1.90031 ,18.64580 
197 ,36.3242 ,1.00724 ,1.90031 ,18.64580 
198 ,36.5003 ,1.00902 ,1.87977 ,18.44433 
199 ,36.6763 ,1.01083 ,1.85924 ,18.24286 
200 ,36.8684 ,1.01272 ,1.83871 ,18.04139 
201 ,37.0445 ,1.01446 ,1.84213 ,18.07497 
202 ,37.2366 ,1.01632 ,1.81475 ,17.80634 
203 ,37.4285 ,1.01834 ,1.80449 ,17.70561 
204 ,37.6043 ,1.02011 ,1.79080 ,17.57129 
205 ,37.7967 ,1.02191 ,1.77026 ,17.36983 
206 ,37.9890 ,1.02392 ,1.74973 ,17.16836 
207 ,38.1647 ,1.02571 ,1.74289 ,17.10120 
208 ,38.3412 ,1.02743 ,1.72578 ,16.93331 
209 ,38.5168 ,1.02925 ,1.70524 ,16.73184 
210 ,38.6933 ,1.03096 ,1.68813 ,16.56395 
211 ,38.9012 ,1.03294 ,1.68129 ,16.49679 
212 ,39.0934 ,1.03485 ,1.68129 ,16.49679 
213 ,39.2855 ,1.03676 ,1.64022 ,16.09385 
214 ,39.4775 ,1.03881 ,1.64022 ,16.09385 
215 ,39.6376 ,1.04049 ,1.60600 ,15.75807 
216 ,39.8297 ,1.04228 ,1.61284 ,15.82522 
217 ,40.0057 ,1.04411 ,1.59573 ,15.65733 
218 ,40.1818 ,1.04581 ,1.59916 ,15.69091 
219 ,40.3418 ,1.04755 ,1.56493 ,15.35513 
220 ,40.5180 ,1.04921 ,1.54440 ,15.15366 
221 ,40.7100 ,1.05110 ,1.52387 ,14.95219 
222 ,40.8861 ,1.05285 ,1.52387 ,14.95219 
223 ,41.0623 ,1.05464 ,1.52045 ,14.91861 
224 ,41.2542 ,1.05645 ,1.50333 ,14.75072 
225 ,41.4462 ,1.05851 ,1.48965 ,14.61640 
226 ,41.6227 ,1.06026 ,1.46911 ,14.41493 
227 ,41.8146 ,1.06209 ,1.44516 ,14.17989 
228 ,42.0227 ,1.06415 ,1.43489 ,14.07915 
229 ,42.2307 ,1.06628 ,1.40067 ,13.74337 
230 ,42.4068 ,1.06808 ,1.39383 ,13.67621 
231 ,42.5828 ,1.06982 ,1.40409 ,13.77695 
232 ,42.7589 ,1.07158 ,1.39383 ,13.67621 
233 ,42.9349 ,1.07333 ,1.35618 ,13.30685 
234 ,43.1110 ,1.07512 ,1.34591 ,13.20612 
235 ,43.3029 ,1.07705 ,1.33565 ,13.10538 
236 ,43.4792 ,1.07882 ,1.33223 ,13.07180 
237 ,43.6711 ,1.08075 ,1.29116 ,12.66886 
238 ,43.8473 ,1.08250 ,1.28774 ,12.63528 
239 ,44.0392 ,1.08435 ,1.27747 ,12.53455 
240 ,44.2155 ,1.08616 ,1.26720 ,12.43381 
241 ,44.3915 ,1.08795 ,1.23983 ,12.16519 
242 ,44.5839 ,1.08979 ,1.25009 ,12.26592 
243 ,44.7597 ,1.09161 ,1.22956 ,12.06445 
244 ,44.9516 ,1.09343 ,1.19876 ,11.76225 
245 ,45.1438 ,1.09540 ,1.19192 ,11.69509 
246 ,45.3039 ,1.09716 ,1.19876 ,11.76225 
247 ,45.4798 ,1.09878 ,1.18165 ,11.59436 
248 ,45.6560 ,1.10057 ,1.16796 ,11.46004 
249 ,45.8321 ,1.10235 ,1.14401 ,11.22500 
250 ,46.0080 ,1.10404 ,1.13032 ,11.09068 
251 ,46.1999 ,1.10602 ,1.13032 ,11.09068 
252 ,46.3761 ,1.10779 ,1.10636 ,10.85563 
253 ,46.5683 ,1.10968 ,1.08583 ,10.65416 
254 ,46.7443 ,1.11140 ,1.08241 ,10.62059 
255 ,46.9362 ,1.11332 ,1.07214 ,10.51985 
256 ,47.1127 ,1.11513 ,1.04819 ,10.28480 
257 ,47.3046 ,1.11701 ,1.02765 ,10.08333 
258 ,47.4808 ,1.11882 ,1.04134 ,10.21765 
259 ,47.6569 ,1.12053 ,1.02423 ,10.04976 
260 ,47.8331 ,1.12233 ,1.00712 ,9.88186 
261 ,48.0089 ,1.12410 ,0.97290 ,9.54608 
262 ,48.2011 ,1.12602 ,0.96605 ,9.47892 
263 ,48.3772 ,1.12774 ,0.96948 ,9.51250 
264 ,48.5693 ,1.12966 ,0.93183 ,9.14314 
265 ,48.7453 ,1.13147 ,0.91472 ,8.97525 
266 ,48.9214 ,1.13324 ,0.93183 ,9.14314 
267 ,49.0973 ,1.13498 ,0.91130 ,8.94167 
268 ,49.3056 ,1.13692 ,0.88050 ,8.63947 
269 ,49.4978 ,1.13888 ,0.88392 ,8.67305 
270 ,49.7057 ,1.14100 ,0.87023 ,8.53873 
271 ,49.8819 ,1.14278 ,0.85654 ,8.40442 
272 ,50.0576 ,1.14459 ,0.84970 ,8.33726 
273 ,50.2496 ,1.14644 ,0.81890 ,8.03506 
274 ,50.4260 ,1.14826 ,0.80521 ,7.90074 
275 ,50.6019 ,1.14998 ,0.80863 ,7.93432 
276 ,50.7782 ,1.15173 ,0.78810 ,7.73285 
277 ,50.9543 ,1.15350 ,0.78468 ,7.69927 
278 ,51.1460 ,1.15543 ,0.75388 ,7.39707 
279 ,51.3224 ,1.15718 ,0.75046 ,7.36349 
280 ,51.5143 ,1.15906 ,0.72992 ,7.16202 
281 ,51.6906 ,1.16091 ,0.71624 ,7.02771 
282 ,51.8667 ,1.16269 ,0.71281 ,6.99413 
283 ,52.0426 ,1.16441 ,0.70597 ,6.92697 
284 ,52.2185 ,1.16621 ,0.69228 ,6.79266 
285 ,52.3948 ,1.16798 ,0.68544 ,6.72550 
286 ,52.5871 ,1.16988 ,0.65806 ,6.45688 
287 ,52.7630 ,1.17164 ,0.64437 ,6.32256 
288 ,52.9390 ,1.17336 ,0.65806 ,6.45688 
289 ,53.1471 ,1.17536 ,0.62384 ,6.12109 
290 ,53.3230 ,1.17724 ,0.59988 ,5.88605 
291 ,53.4992 ,1.17897 ,0.61015 ,5.98678 
292 ,53.6753 ,1.18077 ,0.61015 ,5.98678 
293 ,53.8675 ,1.18256 ,0.56908 ,5.58384 
294 ,54.0594 ,1.18458 ,0.56908 ,5.58384 
295 ,54.2356 ,1.18633 ,0.55882 ,5.48311 
296 ,54.4116 ,1.18810 ,0.53828 ,5.28164 
297 ,54.6037 ,1.19002 ,0.53144 ,5.21448 
298 ,54.7798 ,1.19173 ,0.53828 ,5.28164 
299 ,54.9720 ,1.19364 ,0.49722 ,4.87870 
300 ,55.1478 ,1.19546 ,0.48353 ,4.74438 
301 ,55.3240 ,1.19718 ,0.46984 ,4.61007 
302 ,55.5322 ,1.19919 ,0.47326 ,4.64365 
303 ,55.7241 ,1.20122 ,0.44931 ,4.40860 
304 ,55.9003 ,1.20295 ,0.45273 ,4.44218 
305 ,56.0763 ,1.20473 ,0.44246 ,4.34144 
306 ,56.2521 ,1.20649 ,0.42877 ,4.20713 
307 ,56.4283 ,1.20823 ,0.39455 ,3.87135 
308 ,56.6043 ,1.21003 ,0.38771 ,3.80419 
309 ,56.7964 ,1.21190 ,0.39455 ,3.87135 
310 ,56.9728 ,1.21372 ,0.36375 ,3.56914 
311 ,57.1646 ,1.21562 ,0.35006 ,3.43483 
312 ,57.3569 ,1.21750 ,0.34322 ,3.36767 
313 ,57.5488 ,1.21938 ,0.32953 ,3.23336 
314 ,57.7250 ,1.22123 ,0.32611 ,3.19978 
315 ,57.9010 ,1.22293 ,0.31926 ,3.13263 
316 ,58.0771 ,1.22473 ,0.30558 ,2.99831 
317 ,58.2529 ,1.22646 ,0.28504 ,2.79684 
318 ,58.4293 ,1.22828 ,0.27820 ,2.72969 
319 ,58.5893 ,1.22996 ,0.26109 ,2.56179 
320 ,58.7655 ,1.23159 ,0.25082 ,2.46106 
321 ,58.9577 ,1.23349 ,0.25424 ,2.49464 
322 ,59.1657 ,1.23544 ,0.22687 ,2.22601 
323 ,59.3417 ,1.23736 ,0.22002 ,2.15885 
324 ,59.5178 ,1.23916 ,0.22002 ,2.15885 
325 ,59.7098 ,1.24102 ,0.19949 ,1.95738 
326 ,59.9017 ,1.24295 ,0.19607 ,1.92381 
327 ,60.0778 ,1.24471 ,0.20291 ,1.99096 
328 ,60.2699 ,1.24665 ,0.17211 ,1.68876 
329 ,60.4462 ,1.24841 ,0.15842 ,1.55445 
330 ,60.6222 ,1.25019 ,0.13789 ,1.35298 
331 ,60.7982 ,1.25192 ,0.14816 ,1.45371 
332 ,61.0063 ,1.25396 ,0.10709 ,1.05077 
333 ,61.1825 ,1.25579 ,0.11393 ,1.11793 
334 ,61.3585 ,1.25752 ,0.11393 ,1.11793 
335 ,61.5506 ,1.25944 ,0.08998 ,0.88288 
336 ,61.7263 ,1.26122 ,0.08656 ,0.84930 
337 ,61.9028 ,1.26299 ,0.06945 ,0.68141 
338 ,62.0948 ,1.26484 ,0.08314 ,0.81572 
339 ,62.3029 ,1.26692 ,0.05234 ,0.51352 
340 ,62.4951 ,1.26877 ,0.05576 ,0.54710 
341 ,62.6871 ,1.27073 ,0.03180 ,0.31205 
342 ,62.8792 ,1.27264 ,0.02496 ,0.24489 
343 ,63.0872 ,1.27476 ,-0.00242 ,-0.02373 
344 ,63.2629 ,1.27654 ,0.00100 ,0.00984 
345 ,63.4394 ,1.27836 ,-0.02295 ,-0.22520 
346 ,63.6311 ,1.28024 ,-0.01611 ,-0.15805 
347 ,63.8071 ,1.28199 ,-0.03664 ,-0.35952 
348 ,63.9835 ,1.28382 ,-0.03664 ,-0.35952 
349 ,64.1752 ,1.28570 ,-0.04348 ,-0.42667 
350 ,64.3513 ,1.28742 ,-0.04348 ,-0.42667 
351 ,64.5273 ,1.28919 ,-0.05717 ,-0.56099 
352 ,64.7036 ,1.29100 ,-0.09140 ,-0.89677 
353 ,64.9114 ,1.29298 ,-0.07771 ,-0.76246 
354 ,65.0880 ,1.29481 ,-0.09824 ,-0.96393 
355 ,65.2636 ,1.29660 ,-0.11535 ,-1.13182 
356 ,65.4402 ,1.29832 ,-0.11877 ,-1.16540 
357 ,65.6162 ,1.30013 ,-0.11193 ,-1.09824 
358 ,65.7924 ,1.30185 ,-0.12219 ,-1.19898 
359 ,65.9680 ,1.30361 ,-0.13588 ,-1.33329 
360 ,66.1445 ,1.30533 ,-0.15984 ,-1.56834 
361 ,66.3365 ,1.30731 ,-0.16326 ,-1.60191 
362 ,66.5126 ,1.30905 ,-0.17353 ,-1.70265 
363 ,66.6886 ,1.31079 ,-0.19406 ,-1.90412 
364 ,66.8649 ,1.31259 ,-0.19748 ,-1.93770 
365 ,67.0405 ,1.31431 ,-0.21459 ,-2.10559 
366 ,67.2167 ,1.31609 ,-0.20090 ,-1.97128 
367 ,67.3930 ,1.31788 ,-0.21459 ,-2.10559 
368 ,67.5690 ,1.31964 ,-0.22144 ,-2.17275 
369 ,67.7450 ,1.32135 ,-0.23855 ,-2.34064 
370 ,67.9212 ,1.32313 ,-0.24197 ,-2.37422 
371 ,68.0969 ,1.32489 ,-0.25566 ,-2.50853 
372 ,68.2733 ,1.32664 ,-0.25224 ,-2.47495 
373 ,68.4654 ,1.32853 ,-0.27619 ,-2.71000 
374 ,68.6415 ,1.33033 ,-0.30015 ,-2.94505 
375 ,68.8175 ,1.33213 ,-0.28988 ,-2.84431 
376 ,68.9936 ,1.33381 ,-0.28646 ,-2.81073 
377 ,69.1697 ,1.33562 ,-0.31041 ,-3.04578 
378 ,69.3458 ,1.33738 ,-0.32068 ,-3.14652 
379 ,69.5378 ,1.33930 ,-0.32410 ,-3.18010 
380 ,69.7138 ,1.34104 ,-0.33437 ,-3.28083 
381 ,69.8899 ,1.34280 ,-0.33779 ,-3.31441 
382 ,70.0661 ,1.34452 ,-0.35148 ,-3.44872 
383 ,70.2420 ,1.34632 ,-0.35490 ,-3.48230 
384 ,70.4183 ,1.34809 ,-0.38912 ,-3.81808 
385 ,70.5943 ,1.34990 ,-0.37201 ,-3.65019 
386 ,70.7704 ,1.35162 ,-0.37886 ,-3.71735 
387 ,70.9785 ,1.35362 ,-0.40281 ,-3.95240 
388 ,71.1704 ,1.35560 ,-0.38570 ,-3.78450 
389 ,71.3305 ,1.35731 ,-0.40623 ,-3.98597 
390 ,71.4906 ,1.35891 ,-0.41992 ,-4.12029 
391 ,71.6665 ,1.36058 ,-0.41992 ,-4.12029 
392 ,71.8425 ,1.36235 ,-0.43703 ,-4.28818 
393 ,72.0349 ,1.36413 ,-0.46099 ,-4.52323 
394 ,72.2268 ,1.36609 ,-0.44730 ,-4.38891 
395 ,72.4190 ,1.36806 ,-0.46783 ,-4.59038 
396 ,72.6266 ,1.37010 ,-0.48837 ,-4.79185 
397 ,72.8032 ,1.37191 ,-0.48494 ,-4.75828 
398 ,72.9792 ,1.37367 ,-0.49863 ,-4.89259 
399 ,73.1713 ,1.37561 ,-0.50206 ,-4.92617 
400 ,73.3309 ,1.37730 ,-0.51574 ,-5.06048 
401 ,73.5075 ,1.37901 ,-0.50890 ,-4.99332 
402 ,73.7155 ,1.38102 ,-0.51917 ,-5.09406 
403 ,73.8916 ,1.38283 ,-0.52943 ,-5.19479 
404 ,74.0837 ,1.38469 ,-0.53970 ,-5.29553 
405 ,74.2597 ,1.38641 ,-0.56365 ,-5.53058 
406 ,74.4354 ,1.38819 ,-0.56708 ,-5.56415 
407 ,74.6116 ,1.39001 ,-0.54654 ,-5.36268 
408 ,74.7880 ,1.39182 ,-0.56365 ,-5.53058 
409 ,74.9800 ,1.39372 ,-0.58761 ,-5.76562 
410 ,75.1561 ,1.39541 ,-0.59103 ,-5.79920 
411 ,75.3320 ,1.39726 ,-0.60130 ,-5.89994 
412 ,75.4922 ,1.39892 ,-0.59445 ,-5.83278 
413 ,75.6683 ,1.40055 ,-0.60130 ,-5.89994 
414 ,75.8604 ,1.40252 ,-0.63552 ,-6.23572 
415 ,76.0525 ,1.40437 ,-0.62868 ,-6.16856 
416 ,76.2284 ,1.40618 ,-0.63894 ,-6.26930 
417 ,76.4046 ,1.40794 ,-0.64236 ,-6.30288 
418 ,76.5646 ,1.40968 ,-0.66632 ,-6.53793 
419 ,76.7408 ,1.41129 ,-0.66974 ,-6.57150 
420 ,76.9168 ,1.41312 ,-0.68685 ,-6.73940 
421 ,77.1089 ,1.41497 ,-0.67316 ,-6.60508 
422 ,77.2851 ,1.41676 ,-0.68685 ,-6.73940 
423 ,77.4771 ,1.41865 ,-0.71423 ,-7.00802 
424 ,77.6528 ,1.42050 ,-0.70054 ,-6.87371 
425 ,77.8452 ,1.42225 ,-0.72450 ,-7.10876 
426 ,78.0371 ,1.42427 ,-0.74503 ,-7.31023 
427 ,78.2293 ,1.42616 ,-0.74161 ,-7.27665 
428 ,78.3893 ,1.42785 ,-0.73476 ,-7.20949 
429 ,78.5971 ,1.42969 ,-0.76556 ,-7.51170 
430 ,78.7735 ,1.43163 ,-0.76898 ,-7.54527 
431 ,78.9655 ,1.43343 ,-0.76556 ,-7.51170 
432 ,79.1416 ,1.43527 ,-0.76898 ,-7.54527 
433 ,79.3175 ,1.43705 ,-0.79294 ,-7.78032 
434 ,79.4939 ,1.43878 ,-0.79636 ,-7.81390 
435 ,79.6696 ,1.44058 ,-0.79978 ,-7.84748 
436 ,79.8778 ,1.44246 ,-0.80663 ,-7.91464 
437 ,80.0537 ,1.44439 ,-0.81689 ,-8.01537 
438 ,80.2302 ,1.44613 ,-0.82374 ,-8.08253 
439 ,80.4222 ,1.44810 ,-0.84427 ,-8.28400 
440 ,80.5981 ,1.44982 ,-0.85112 ,-8.35115 
441 ,80.7741 ,1.45158 ,-0.86481 ,-8.48547 
442 ,80.9503 ,1.45333 ,-0.85796 ,-8.41831 
443 ,81.1263 ,1.45511 ,-0.84769 ,-8.31758 
444 ,81.3025 ,1.45683 ,-0.86481 ,-8.48547 
445 ,81.5102 ,1.45891 ,-0.88192 ,-8.65336 
446 ,81.6862 ,1.46072 ,-0.88876 ,-8.72051 
447 ,81.8465 ,1.46244 ,-0.89560 ,-8.78767 
448 ,82.0227 ,1.46407 ,-0.90245 ,-8.85483 
449 ,82.1989 ,1.46586 ,-0.90587 ,-8.88841 
450 ,82.3910 ,1.46777 ,-0.94009 ,-9.22419 
451 ,82.5830 ,1.46970 ,-0.91956 ,-9.02272 
452 ,82.7591 ,1.47143 ,-0.94694 ,-9.29135 
453 ,82.9512 ,1.47331 ,-0.95378 ,-9.35850 
454 ,83.1432 ,1.47528 ,-0.94694 ,-9.29135 
455 ,83.3194 ,1.47709 ,-0.95036 ,-9.32492 
456 ,83.4953 ,1.47882 ,-0.97431 ,-9.55997 
457 ,83.6715 ,1.48053 ,-0.98116 ,-9.62713 
458 ,83.8472 ,1.48232 ,-0.97431 ,-9.55997 
459 ,84.0237 ,1.48408 ,-0.98116 ,-9.62713 
460 ,84.1996 ,1.48585 ,-0.99827 ,-9.79502 
461 ,84.3918 ,1.48776 ,-1.02565 ,-10.06365 
462 ,84.5678 ,1.48953 ,-1.00854 ,-9.89576 
