Data stamp = , 03-04-2022 12:29:41 564

Calibration Values: 
Slope = , 26.54 , g/V 
Offset Voltage at no contact = , -0.501760 , V 

No , Time , Stage Position ,   Mass , Force 
   ,  (s) ,      (mm)      ,   (g)  , (mN)  

1 ,0.0000 ,0.59949 ,5.17874 ,50.81381 
2 ,0.2063 ,0.59955 ,5.18901 ,50.91455 
3 ,0.6868 ,0.60094 ,5.18559 ,50.88097 
4 ,0.8947 ,0.60317 ,5.19585 ,50.98170 
5 ,1.0869 ,0.60500 ,5.17874 ,50.81381 
6 ,1.2790 ,0.60693 ,5.19243 ,50.94813 
7 ,1.4550 ,0.60872 ,5.20270 ,51.04886 
8 ,1.6311 ,0.61056 ,5.17874 ,50.81381 
9 ,1.8230 ,0.61241 ,5.19927 ,51.01528 
10 ,1.9990 ,0.61421 ,5.19585 ,50.98170 
11 ,2.2072 ,0.61624 ,5.17532 ,50.78023 
12 ,2.3835 ,0.61806 ,5.17190 ,50.74666 
13 ,2.5596 ,0.61988 ,5.15479 ,50.57876 
14 ,2.7676 ,0.62185 ,5.12741 ,50.31014 
15 ,2.9593 ,0.62379 ,5.13768 ,50.41087 
16 ,3.1357 ,0.62552 ,5.10345 ,50.07509 
17 ,3.3277 ,0.62742 ,5.09319 ,49.97436 
18 ,3.5040 ,0.62923 ,5.08634 ,49.90720 
19 ,3.6800 ,0.63103 ,5.06239 ,49.67215 
20 ,3.8562 ,0.63275 ,5.04528 ,49.50426 
21 ,4.0321 ,0.63465 ,5.02474 ,49.30279 
22 ,4.2082 ,0.63627 ,5.00763 ,49.13490 
23 ,4.3844 ,0.63806 ,4.99737 ,49.03416 
24 ,4.5763 ,0.63993 ,4.97341 ,48.79911 
25 ,4.7526 ,0.64172 ,4.94946 ,48.56407 
26 ,4.9605 ,0.64377 ,4.95972 ,48.66480 
27 ,5.1205 ,0.64552 ,4.90497 ,48.12755 
28 ,5.3122 ,0.64729 ,4.90497 ,48.12755 
29 ,5.4887 ,0.64905 ,4.88444 ,47.92608 
30 ,5.6647 ,0.65087 ,4.87075 ,47.79177 
31 ,5.8409 ,0.65268 ,4.85364 ,47.62387 
32 ,6.0647 ,0.65470 ,4.83310 ,47.42240 
33 ,6.2410 ,0.65664 ,4.81941 ,47.28809 
34 ,6.4330 ,0.65849 ,4.77493 ,46.85157 
35 ,6.5931 ,0.66026 ,4.77835 ,46.88515 
36 ,6.7851 ,0.66202 ,4.77150 ,46.81800 
37 ,6.9930 ,0.66400 ,4.72017 ,46.31432 
38 ,7.1531 ,0.66583 ,4.72017 ,46.31432 
39 ,7.3294 ,0.66749 ,4.68937 ,46.01212 
40 ,7.5374 ,0.66953 ,4.68253 ,45.94496 
41 ,7.7296 ,0.67144 ,4.66199 ,45.74349 
42 ,7.9056 ,0.67338 ,4.64831 ,45.60918 
43 ,8.0818 ,0.67499 ,4.61751 ,45.30697 
44 ,8.2578 ,0.67676 ,4.61066 ,45.23981 
45 ,8.4340 ,0.67852 ,4.57986 ,44.93761 
46 ,8.6582 ,0.68065 ,4.56275 ,44.76972 
47 ,8.8341 ,0.68256 ,4.53195 ,44.46751 
48 ,9.0101 ,0.68429 ,4.53537 ,44.50109 
49 ,9.2182 ,0.68632 ,4.51484 ,44.29962 
50 ,9.3943 ,0.68814 ,4.49431 ,44.09815 
51 ,9.6019 ,0.69017 ,4.48746 ,44.03100 
52 ,9.7784 ,0.69197 ,4.46351 ,43.79595 
53 ,9.9706 ,0.69387 ,4.44640 ,43.62806 
54 ,10.1467 ,0.69566 ,4.44298 ,43.59448 
55 ,10.3224 ,0.69754 ,4.40533 ,43.22512 
56 ,10.4988 ,0.69922 ,4.39507 ,43.12438 
57 ,10.6907 ,0.70116 ,4.38480 ,43.02365 
58 ,10.8670 ,0.70285 ,4.36427 ,42.82218 
59 ,11.0590 ,0.70471 ,4.33347 ,42.51997 
60 ,11.2351 ,0.70655 ,4.32320 ,42.41924 
61 ,11.4268 ,0.70843 ,4.31293 ,42.31850 
62 ,11.6033 ,0.71022 ,4.28898 ,42.08345 
63 ,11.8112 ,0.71228 ,4.27187 ,41.91556 
64 ,12.0034 ,0.71407 ,4.25818 ,41.78125 
65 ,12.1794 ,0.71598 ,4.23422 ,41.54620 
66 ,12.3716 ,0.71779 ,4.20685 ,41.27758 
67 ,12.5476 ,0.71978 ,4.19658 ,41.17684 
68 ,12.7237 ,0.72143 ,4.18631 ,41.07611 
69 ,12.9154 ,0.72327 ,4.15894 ,40.80748 
70 ,13.0919 ,0.72508 ,4.13840 ,40.60601 
71 ,13.2680 ,0.72690 ,4.13498 ,40.57243 
72 ,13.4599 ,0.72881 ,4.10760 ,40.30380 
73 ,13.6200 ,0.73047 ,4.09734 ,40.20307 
74 ,13.7960 ,0.73212 ,4.07680 ,40.00160 
75 ,13.9882 ,0.73411 ,4.07338 ,39.96802 
76 ,14.1798 ,0.73599 ,4.05285 ,39.76655 
77 ,14.3563 ,0.73776 ,4.02889 ,39.53150 
78 ,14.5323 ,0.73945 ,4.01178 ,39.36361 
79 ,14.7245 ,0.74147 ,4.00152 ,39.26288 
80 ,14.9483 ,0.74353 ,3.97756 ,39.02783 
81 ,15.1246 ,0.74539 ,3.97072 ,38.96067 
82 ,15.3167 ,0.74725 ,3.93992 ,38.65847 
83 ,15.5089 ,0.74929 ,3.92281 ,38.49058 
84 ,15.6846 ,0.75115 ,3.90912 ,38.35626 
85 ,15.8610 ,0.75278 ,3.89201 ,38.18837 
86 ,16.0371 ,0.75459 ,3.87147 ,37.98690 
87 ,16.2451 ,0.75663 ,3.85779 ,37.85259 
88 ,16.4213 ,0.75840 ,3.83383 ,37.61754 
89 ,16.6134 ,0.76025 ,3.83725 ,37.65112 
90 ,16.7892 ,0.76211 ,3.80645 ,37.34891 
91 ,16.9653 ,0.76379 ,3.79619 ,37.24818 
92 ,17.1416 ,0.76558 ,3.76881 ,36.97955 
93 ,17.3335 ,0.76751 ,3.75170 ,36.81166 
94 ,17.5096 ,0.76928 ,3.75854 ,36.87882 
95 ,17.7177 ,0.77122 ,3.71748 ,36.47588 
96 ,17.9098 ,0.77313 ,3.70037 ,36.30799 
97 ,18.1018 ,0.77514 ,3.67641 ,36.07294 
98 ,18.2776 ,0.77694 ,3.65930 ,35.90505 
99 ,18.4375 ,0.77867 ,3.64561 ,35.77073 
100 ,18.5976 ,0.78024 ,3.65246 ,35.83789 
101 ,18.7737 ,0.78186 ,3.62850 ,35.60284 
102 ,18.9501 ,0.78367 ,3.62166 ,35.53569 
103 ,19.1422 ,0.78554 ,3.58743 ,35.19990 
104 ,19.3184 ,0.78736 ,3.57032 ,35.03201 
105 ,19.5103 ,0.78927 ,3.57032 ,35.03201 
106 ,19.6865 ,0.79103 ,3.54637 ,34.79696 
107 ,19.8782 ,0.79294 ,3.51557 ,34.49476 
108 ,20.0547 ,0.79469 ,3.50872 ,34.42760 
109 ,20.2467 ,0.79664 ,3.49846 ,34.32687 
110 ,20.4228 ,0.79836 ,3.48477 ,34.19255 
111 ,20.6148 ,0.80030 ,3.45739 ,33.92393 
112 ,20.7906 ,0.80209 ,3.45397 ,33.89035 
113 ,20.9666 ,0.80381 ,3.43686 ,33.72246 
114 ,21.1430 ,0.80558 ,3.41290 ,33.48741 
115 ,21.3351 ,0.80735 ,3.39579 ,33.31952 
116 ,21.5111 ,0.80925 ,3.39579 ,33.31952 
117 ,21.6873 ,0.81101 ,3.35815 ,32.95016 
118 ,21.8792 ,0.81291 ,3.35130 ,32.88300 
119 ,22.0715 ,0.81486 ,3.33762 ,32.74869 
120 ,22.2473 ,0.81664 ,3.32735 ,32.64795 
121 ,22.4236 ,0.81836 ,3.29997 ,32.37933 
122 ,22.5997 ,0.82017 ,3.28286 ,32.21143 
123 ,22.7757 ,0.82192 ,3.27259 ,32.11070 
124 ,22.9519 ,0.82368 ,3.26233 ,32.00996 
125 ,23.1439 ,0.82559 ,3.23495 ,31.74134 
126 ,23.3200 ,0.82734 ,3.22811 ,31.67418 
127 ,23.5116 ,0.82923 ,3.22811 ,31.67418 
128 ,23.6879 ,0.83101 ,3.20415 ,31.43913 
129 ,23.8802 ,0.83285 ,3.18020 ,31.20409 
130 ,24.0723 ,0.83489 ,3.17677 ,31.17051 
131 ,24.2482 ,0.83667 ,3.15282 ,30.93546 
132 ,24.4400 ,0.83849 ,3.12886 ,30.70041 
133 ,24.6166 ,0.84030 ,3.12544 ,30.66683 
134 ,24.7924 ,0.84209 ,3.10491 ,30.46536 
135 ,24.9845 ,0.84400 ,3.07753 ,30.19674 
136 ,25.1766 ,0.84591 ,3.07753 ,30.19674 
137 ,25.3528 ,0.84773 ,3.05700 ,29.99527 
138 ,25.5449 ,0.84961 ,3.02962 ,29.72664 
139 ,25.7367 ,0.85145 ,3.03647 ,29.79380 
140 ,25.9130 ,0.85322 ,3.02278 ,29.65948 
141 ,26.1050 ,0.85512 ,2.97829 ,29.22297 
142 ,26.2966 ,0.85706 ,2.97829 ,29.22297 
143 ,26.4732 ,0.85884 ,2.96802 ,29.12223 
144 ,26.6493 ,0.86061 ,2.95776 ,29.02150 
145 ,26.8254 ,0.86244 ,2.93722 ,28.82003 
146 ,27.0174 ,0.86430 ,2.92011 ,28.65213 
147 ,27.1931 ,0.86604 ,2.90985 ,28.55140 
148 ,27.3691 ,0.86780 ,2.88931 ,28.34993 
149 ,27.5451 ,0.86961 ,2.85509 ,28.01415 
150 ,27.7214 ,0.87133 ,2.85167 ,27.98057 
151 ,27.9298 ,0.87338 ,2.83456 ,27.81268 
152 ,28.1058 ,0.87522 ,2.81402 ,27.61121 
153 ,28.2819 ,0.87692 ,2.80718 ,27.54405 
154 ,28.4576 ,0.87869 ,2.79007 ,27.37616 
155 ,28.6340 ,0.88045 ,2.78322 ,27.30900 
156 ,28.8261 ,0.88230 ,2.76611 ,27.14111 
157 ,29.0341 ,0.88440 ,2.75585 ,27.04038 
158 ,29.2261 ,0.88631 ,2.72847 ,26.77175 
159 ,29.4181 ,0.88816 ,2.71478 ,26.63744 
160 ,29.5943 ,0.89007 ,2.70794 ,26.57028 
161 ,29.8026 ,0.89210 ,2.69767 ,26.46954 
162 ,29.9943 ,0.89405 ,2.67714 ,26.26807 
163 ,30.1707 ,0.89583 ,2.64976 ,25.99945 
164 ,30.3626 ,0.89778 ,2.63949 ,25.89871 
165 ,30.5547 ,0.89965 ,2.62238 ,25.73082 
166 ,30.7309 ,0.90138 ,2.60869 ,25.59651 
167 ,30.9230 ,0.90339 ,2.59843 ,25.49577 
168 ,31.0989 ,0.90510 ,2.59501 ,25.46220 
169 ,31.2752 ,0.90686 ,2.56763 ,25.19357 
170 ,31.4512 ,0.90863 ,2.55394 ,25.05926 
171 ,31.6272 ,0.91036 ,2.52314 ,24.75705 
172 ,31.8033 ,0.91215 ,2.52314 ,24.75705 
173 ,31.9789 ,0.91398 ,2.51972 ,24.72347 
174 ,32.1713 ,0.91571 ,2.50261 ,24.55558 
175 ,32.3476 ,0.91758 ,2.46839 ,24.21980 
176 ,32.5557 ,0.91963 ,2.44785 ,24.01833 
177 ,32.7477 ,0.92154 ,2.44443 ,23.98475 
178 ,32.9394 ,0.92351 ,2.42732 ,23.81686 
179 ,33.1159 ,0.92521 ,2.42732 ,23.81686 
180 ,33.2917 ,0.92701 ,2.39310 ,23.48108 
181 ,33.4676 ,0.92875 ,2.38968 ,23.44750 
182 ,33.6438 ,0.93055 ,2.36914 ,23.24603 
183 ,33.8200 ,0.93228 ,2.35545 ,23.11171 
184 ,34.0280 ,0.93422 ,2.33492 ,22.91024 
185 ,34.2042 ,0.93616 ,2.31439 ,22.70877 
186 ,34.3803 ,0.93794 ,2.31781 ,22.74235 
187 ,34.5565 ,0.93972 ,2.30412 ,22.60804 
188 ,34.7323 ,0.94142 ,2.27332 ,22.30584 
189 ,34.9085 ,0.94317 ,2.26648 ,22.23868 
190 ,35.1165 ,0.94518 ,2.24252 ,22.00363 
191 ,35.2927 ,0.94700 ,2.23910 ,21.97005 
192 ,35.4847 ,0.94890 ,2.22199 ,21.80216 
193 ,35.6769 ,0.95079 ,2.22199 ,21.80216 
194 ,35.8688 ,0.95280 ,2.19461 ,21.53353 
195 ,36.0448 ,0.95451 ,2.17408 ,21.33206 
196 ,36.2529 ,0.95656 ,2.15012 ,21.09702 
197 ,36.4291 ,0.95839 ,2.15012 ,21.09702 
198 ,36.6049 ,0.96006 ,2.13644 ,20.96270 
199 ,36.7972 ,0.96205 ,2.10906 ,20.69408 
200 ,36.9734 ,0.96388 ,2.10564 ,20.66050 
201 ,37.1495 ,0.96560 ,2.08852 ,20.49261 
202 ,37.3413 ,0.96754 ,2.07484 ,20.35829 
203 ,37.5174 ,0.96926 ,2.07484 ,20.35829 
204 ,37.6936 ,0.97102 ,2.03377 ,19.95535 
205 ,37.8696 ,0.97276 ,2.01666 ,19.78746 
206 ,38.0458 ,0.97459 ,2.01666 ,19.78746 
207 ,38.2219 ,0.97633 ,2.00982 ,19.72031 
208 ,38.3979 ,0.97803 ,1.97902 ,19.41810 
209 ,38.5739 ,0.97978 ,1.97217 ,19.35094 
210 ,38.7497 ,0.98159 ,1.96190 ,19.25021 
211 ,38.9262 ,0.98331 ,1.94822 ,19.11590 
212 ,39.1343 ,0.98545 ,1.92084 ,18.84727 
213 ,39.3263 ,0.98736 ,1.91057 ,18.74654 
214 ,39.5024 ,0.98905 ,1.91057 ,18.74654 
215 ,39.6942 ,0.99105 ,1.85924 ,18.24286 
216 ,39.8706 ,0.99286 ,1.88319 ,18.47791 
217 ,40.0626 ,0.99464 ,1.85582 ,18.20928 
218 ,40.2386 ,0.99643 ,1.83528 ,18.00781 
219 ,40.4147 ,0.99819 ,1.81133 ,17.77276 
220 ,40.6069 ,1.00006 ,1.81133 ,17.77276 
221 ,40.7827 ,1.00191 ,1.80106 ,17.67203 
222 ,40.9750 ,1.00376 ,1.78737 ,17.53772 
223 ,41.1510 ,1.00564 ,1.76684 ,17.33625 
224 ,41.3273 ,1.00739 ,1.77026 ,17.36983 
225 ,41.5031 ,1.00911 ,1.74289 ,17.10120 
226 ,41.6952 ,1.01100 ,1.71893 ,16.86615 
227 ,41.8714 ,1.01278 ,1.70524 ,16.73184 
228 ,42.0635 ,1.01474 ,1.70866 ,16.76542 
229 ,42.2554 ,1.01662 ,1.67102 ,16.39605 
230 ,42.4316 ,1.01837 ,1.66418 ,16.32890 
231 ,42.6077 ,1.02019 ,1.66075 ,16.29532 
232 ,42.7997 ,1.02199 ,1.64022 ,16.09385 
233 ,42.9759 ,1.02383 ,1.61284 ,15.82522 
234 ,43.1675 ,1.02571 ,1.61627 ,15.85880 
235 ,43.3440 ,1.02750 ,1.61969 ,15.89238 
236 ,43.5361 ,1.02941 ,1.56836 ,15.38871 
237 ,43.7120 ,1.03121 ,1.58204 ,15.52302 
238 ,43.9041 ,1.03312 ,1.54782 ,15.18724 
239 ,44.0962 ,1.03501 ,1.53756 ,15.08650 
240 ,44.2720 ,1.03672 ,1.53756 ,15.08650 
241 ,44.4483 ,1.03855 ,1.52387 ,14.95219 
242 ,44.6245 ,1.04033 ,1.51360 ,14.85145 
243 ,44.8005 ,1.04207 ,1.48622 ,14.58283 
244 ,44.9766 ,1.04384 ,1.47596 ,14.48209 
245 ,45.1687 ,1.04577 ,1.47253 ,14.44851 
246 ,45.3607 ,1.04762 ,1.43831 ,14.11273 
247 ,45.5368 ,1.04944 ,1.41778 ,13.91126 
248 ,45.7289 ,1.05132 ,1.42462 ,13.97842 
249 ,45.9050 ,1.05308 ,1.40409 ,13.77695 
250 ,46.0810 ,1.05491 ,1.38014 ,13.54190 
251 ,46.2731 ,1.05674 ,1.38698 ,13.60906 
252 ,46.4330 ,1.05849 ,1.37671 ,13.50832 
253 ,46.6092 ,1.06008 ,1.34934 ,13.23969 
254 ,46.7852 ,1.06187 ,1.33223 ,13.07180 
255 ,46.9774 ,1.06375 ,1.32196 ,12.97107 
256 ,47.1695 ,1.06578 ,1.31169 ,12.87033 
257 ,47.3618 ,1.06756 ,1.29116 ,12.66886 
258 ,47.5696 ,1.06966 ,1.27405 ,12.50097 
259 ,47.7453 ,1.07149 ,1.26378 ,12.40024 
260 ,47.9217 ,1.07324 ,1.25694 ,12.33308 
261 ,48.0977 ,1.07502 ,1.23298 ,12.09803 
262 ,48.2738 ,1.07678 ,1.22956 ,12.06445 
263 ,48.4499 ,1.07855 ,1.21245 ,11.89656 
264 ,48.6420 ,1.08038 ,1.19192 ,11.69509 
265 ,48.8180 ,1.08228 ,1.19534 ,11.72867 
266 ,49.0102 ,1.08410 ,1.16796 ,11.46004 
267 ,49.1862 ,1.08588 ,1.13032 ,11.09068 
268 ,49.3783 ,1.08782 ,1.15427 ,11.32573 
269 ,49.5539 ,1.08971 ,1.12347 ,11.02353 
270 ,49.7305 ,1.09133 ,1.10979 ,10.88921 
271 ,49.9225 ,1.09328 ,1.09610 ,10.75490 
272 ,50.0987 ,1.09502 ,1.08925 ,10.68774 
273 ,50.2746 ,1.09678 ,1.07899 ,10.58701 
274 ,50.4508 ,1.09857 ,1.06530 ,10.45270 
275 ,50.6428 ,1.10044 ,1.04819 ,10.28480 
276 ,50.8188 ,1.10222 ,1.05161 ,10.31838 
277 ,50.9948 ,1.10395 ,1.02765 ,10.08333 
278 ,51.1711 ,1.10575 ,1.01396 ,9.94902 
279 ,51.3468 ,1.10747 ,0.97974 ,9.61324 
280 ,51.5393 ,1.10938 ,0.98659 ,9.68039 
281 ,51.7150 ,1.11120 ,0.98317 ,9.64682 
282 ,51.8914 ,1.11295 ,0.95921 ,9.41177 
283 ,52.0675 ,1.11470 ,0.93525 ,9.17672 
284 ,52.2595 ,1.11662 ,0.94894 ,9.31103 
285 ,52.4356 ,1.11838 ,0.91472 ,8.97525 
286 ,52.6116 ,1.12013 ,0.88734 ,8.70662 
287 ,52.7879 ,1.12191 ,0.88734 ,8.70662 
288 ,52.9799 ,1.12382 ,0.88392 ,8.67305 
289 ,53.1555 ,1.12560 ,0.86681 ,8.50515 
290 ,53.3319 ,1.12730 ,0.84970 ,8.33726 
291 ,53.5239 ,1.12920 ,0.85312 ,8.37084 
292 ,53.7001 ,1.13103 ,0.84286 ,8.27011 
293 ,53.8921 ,1.13287 ,0.81890 ,8.03506 
294 ,54.1002 ,1.13497 ,0.80179 ,7.86717 
295 ,54.2921 ,1.13695 ,0.77784 ,7.63212 
296 ,54.4684 ,1.13866 ,0.76757 ,7.53138 
297 ,54.6605 ,1.14064 ,0.77099 ,7.56496 
298 ,54.8526 ,1.14256 ,0.74704 ,7.32991 
299 ,55.0286 ,1.14425 ,0.73677 ,7.22918 
300 ,55.2047 ,1.14606 ,0.72650 ,7.12844 
301 ,55.3808 ,1.14785 ,0.71624 ,7.02771 
302 ,55.5728 ,1.14969 ,0.68886 ,6.75908 
303 ,55.7490 ,1.15150 ,0.69570 ,6.82624 
304 ,55.9408 ,1.15335 ,0.67517 ,6.62477 
305 ,56.1170 ,1.15514 ,0.65806 ,6.45688 
306 ,56.2931 ,1.15695 ,0.65121 ,6.38972 
307 ,56.4692 ,1.15870 ,0.63410 ,6.22183 
308 ,56.6614 ,1.16059 ,0.63753 ,6.25541 
309 ,56.8536 ,1.16259 ,0.61015 ,5.98678 
310 ,57.0294 ,1.16428 ,0.59304 ,5.81889 
311 ,57.2214 ,1.16625 ,0.59646 ,5.85247 
312 ,57.4135 ,1.16813 ,0.57251 ,5.61742 
313 ,57.5894 ,1.16988 ,0.56908 ,5.58384 
314 ,57.7655 ,1.17169 ,0.55539 ,5.44953 
315 ,57.9415 ,1.17339 ,0.54171 ,5.31522 
316 ,58.1338 ,1.17527 ,0.52459 ,5.14732 
317 ,58.3582 ,1.17744 ,0.50748 ,4.97943 
318 ,58.5339 ,1.17937 ,0.50406 ,4.94585 
319 ,58.7419 ,1.18139 ,0.49722 ,4.87870 
320 ,58.9339 ,1.18321 ,0.47326 ,4.64365 
321 ,59.1263 ,1.18526 ,0.47326 ,4.64365 
322 ,59.3181 ,1.18719 ,0.43220 ,4.24071 
323 ,59.4944 ,1.18890 ,0.42877 ,4.20713 
324 ,59.7022 ,1.19098 ,0.42877 ,4.20713 
325 ,59.8780 ,1.19291 ,0.40824 ,4.00566 
326 ,60.0543 ,1.19454 ,0.40140 ,3.93850 
327 ,60.2468 ,1.19638 ,0.38771 ,3.80419 
328 ,60.4228 ,1.19824 ,0.37402 ,3.66988 
329 ,60.6148 ,1.20006 ,0.36718 ,3.60272 
330 ,60.7907 ,1.20192 ,0.36033 ,3.53557 
331 ,60.9670 ,1.20364 ,0.35349 ,3.46841 
332 ,61.1427 ,1.20540 ,0.34664 ,3.40125 
333 ,61.3192 ,1.20719 ,0.31584 ,3.09905 
334 ,61.5113 ,1.20910 ,0.31242 ,3.06547 
335 ,61.7033 ,1.21098 ,0.29531 ,2.89758 
336 ,61.8953 ,1.21292 ,0.28504 ,2.79684 
337 ,62.0711 ,1.21468 ,0.29873 ,2.93116 
338 ,62.2311 ,1.21642 ,0.27820 ,2.72969 
339 ,62.3911 ,1.21802 ,0.26793 ,2.62895 
340 ,62.5512 ,1.21964 ,0.26793 ,2.62895 
341 ,62.7274 ,1.22123 ,0.25082 ,2.46106 
342 ,62.9034 ,1.22299 ,0.21318 ,2.09170 
343 ,63.0795 ,1.22478 ,0.20976 ,2.05812 
344 ,63.2395 ,1.22648 ,0.19607 ,1.92381 
345 ,63.4156 ,1.22814 ,0.19949 ,1.95738 
346 ,63.5918 ,1.22989 ,0.18238 ,1.78949 
347 ,63.7519 ,1.23163 ,0.17896 ,1.75592 
348 ,63.9279 ,1.23321 ,0.16185 ,1.58802 
349 ,64.1039 ,1.23500 ,0.15158 ,1.48729 
350 ,64.2639 ,1.23675 ,0.14131 ,1.38655 
351 ,64.4240 ,1.23834 ,0.13447 ,1.31940 
352 ,64.6002 ,1.23996 ,0.10709 ,1.05077 
353 ,64.7762 ,1.24172 ,0.10709 ,1.05077 
354 ,64.9523 ,1.24348 ,0.11736 ,1.15151 
355 ,65.1283 ,1.24522 ,0.09682 ,0.95004 
356 ,65.2884 ,1.24697 ,0.08314 ,0.81572 
357 ,65.4644 ,1.24860 ,0.06945 ,0.68141 
358 ,65.6406 ,1.25035 ,0.06260 ,0.61425 
359 ,65.8006 ,1.25211 ,0.05918 ,0.58067 
360 ,65.9608 ,1.25369 ,0.04549 ,0.44636 
361 ,66.1207 ,1.25529 ,0.04207 ,0.41278 
362 ,66.2808 ,1.25689 ,0.03865 ,0.37920 
363 ,66.4408 ,1.25851 ,0.02496 ,0.24489 
364 ,66.6009 ,1.26010 ,0.01469 ,0.14416 
365 ,66.7773 ,1.26172 ,0.00100 ,0.00984 
366 ,66.9854 ,1.26377 ,-0.02637 ,-0.25878 
367 ,67.1615 ,1.26560 ,-0.01953 ,-0.19163 
368 ,67.3538 ,1.26749 ,-0.02980 ,-0.29236 
369 ,67.5456 ,1.26943 ,-0.03322 ,-0.32594 
370 ,67.7216 ,1.27119 ,-0.06060 ,-0.59457 
371 ,67.9139 ,1.27307 ,-0.05375 ,-0.52741 
372 ,68.1058 ,1.27504 ,-0.08797 ,-0.86319 
373 ,68.2821 ,1.27680 ,-0.07771 ,-0.76246 
374 ,68.4737 ,1.27868 ,-0.08113 ,-0.79604 
375 ,68.6501 ,1.28046 ,-0.08113 ,-0.79604 
376 ,68.8585 ,1.28246 ,-0.11193 ,-1.09824 
377 ,69.0343 ,1.28435 ,-0.11193 ,-1.09824 
378 ,69.2103 ,1.28605 ,-0.12904 ,-1.26613 
379 ,69.3864 ,1.28782 ,-0.14957 ,-1.46760 
380 ,69.5622 ,1.28957 ,-0.15299 ,-1.50118 
381 ,69.7384 ,1.29131 ,-0.16326 ,-1.60191 
382 ,69.9466 ,1.29335 ,-0.17695 ,-1.73623 
383 ,70.1225 ,1.29523 ,-0.18722 ,-1.83696 
384 ,70.2988 ,1.29695 ,-0.18379 ,-1.80338 
385 ,70.4748 ,1.29867 ,-0.19064 ,-1.87054 
386 ,70.6510 ,1.30042 ,-0.21117 ,-2.07201 
387 ,70.8266 ,1.30224 ,-0.22828 ,-2.23990 
388 ,71.0030 ,1.30394 ,-0.23170 ,-2.27348 
389 ,71.1951 ,1.30582 ,-0.24197 ,-2.37422 
390 ,71.3714 ,1.30769 ,-0.23513 ,-2.30706 
391 ,71.5474 ,1.30947 ,-0.26593 ,-2.60926 
392 ,71.7233 ,1.31119 ,-0.28304 ,-2.77716 
393 ,71.8995 ,1.31291 ,-0.27619 ,-2.71000 
394 ,72.0756 ,1.31470 ,-0.26935 ,-2.64284 
395 ,72.2676 ,1.31664 ,-0.30699 ,-3.01220 
396 ,72.4598 ,1.31851 ,-0.28304 ,-2.77716 
397 ,72.6359 ,1.32027 ,-0.30699 ,-3.01220 
398 ,72.8118 ,1.32213 ,-0.32752 ,-3.21367 
399 ,73.0039 ,1.32396 ,-0.34121 ,-3.34799 
400 ,73.1958 ,1.32581 ,-0.34121 ,-3.34799 
401 ,73.3882 ,1.32786 ,-0.35832 ,-3.51588 
402 ,73.5801 ,1.32968 ,-0.35832 ,-3.51588 
403 ,73.7566 ,1.33149 ,-0.35832 ,-3.51588 
404 ,73.9483 ,1.33339 ,-0.38228 ,-3.75093 
405 ,74.1405 ,1.33531 ,-0.38570 ,-3.78450 
406 ,74.3166 ,1.33712 ,-0.38570 ,-3.78450 
407 ,74.4926 ,1.33885 ,-0.40966 ,-4.01955 
408 ,74.6687 ,1.34060 ,-0.40966 ,-4.01955 
409 ,74.8446 ,1.34241 ,-0.42677 ,-4.18744 
410 ,75.0209 ,1.34419 ,-0.43019 ,-4.22102 
411 ,75.2290 ,1.34617 ,-0.44730 ,-4.38891 
412 ,75.4208 ,1.34815 ,-0.45414 ,-4.45607 
413 ,75.5971 ,1.34993 ,-0.45414 ,-4.45607 
414 ,75.7732 ,1.35171 ,-0.45414 ,-4.45607 
415 ,75.9489 ,1.35353 ,-0.48152 ,-4.72470 
416 ,76.1251 ,1.35519 ,-0.48837 ,-4.79185 
417 ,76.3013 ,1.35693 ,-0.48494 ,-4.75828 
418 ,76.4774 ,1.35870 ,-0.49179 ,-4.82543 
419 ,76.6536 ,1.36047 ,-0.50548 ,-4.95975 
420 ,76.8455 ,1.36236 ,-0.51917 ,-5.09406 
421 ,77.0217 ,1.36410 ,-0.52259 ,-5.12764 
422 ,77.1976 ,1.36589 ,-0.51917 ,-5.09406 
423 ,77.3898 ,1.36783 ,-0.54654 ,-5.36268 
424 ,77.5659 ,1.36956 ,-0.54997 ,-5.39626 
425 ,77.7420 ,1.37133 ,-0.54312 ,-5.32911 
426 ,77.9180 ,1.37309 ,-0.55339 ,-5.42984 
427 ,78.0781 ,1.37480 ,-0.55681 ,-5.46342 
428 ,78.2540 ,1.37649 ,-0.58419 ,-5.73205 
429 ,78.4299 ,1.37822 ,-0.57734 ,-5.66489 
430 ,78.6062 ,1.37994 ,-0.60472 ,-5.93352 
431 ,78.7825 ,1.38170 ,-0.60130 ,-5.89994 
432 ,78.9744 ,1.38369 ,-0.60814 ,-5.96709 
433 ,79.1666 ,1.38552 ,-0.61841 ,-6.06783 
434 ,79.3586 ,1.38752 ,-0.61841 ,-6.06783 
435 ,79.5507 ,1.38936 ,-0.63894 ,-6.26930 
436 ,79.7266 ,1.39121 ,-0.64921 ,-6.37003 
437 ,79.9026 ,1.39288 ,-0.65605 ,-6.43719 
438 ,80.0790 ,1.39471 ,-0.66290 ,-6.50435 
439 ,80.2710 ,1.39660 ,-0.69027 ,-6.77297 
440 ,80.4471 ,1.39839 ,-0.68685 ,-6.73940 
441 ,80.6231 ,1.40011 ,-0.67316 ,-6.60508 
442 ,80.7993 ,1.40191 ,-0.68685 ,-6.73940 
443 ,80.9753 ,1.40367 ,-0.69370 ,-6.80655 
444 ,81.1831 ,1.40564 ,-0.71765 ,-7.04160 
445 ,81.3598 ,1.40753 ,-0.70054 ,-6.87371 
446 ,81.5675 ,1.40949 ,-0.74161 ,-7.27665 
447 ,81.7440 ,1.41132 ,-0.72792 ,-7.14233 
448 ,81.9356 ,1.41317 ,-0.73476 ,-7.20949 
449 ,82.1279 ,1.41523 ,-0.75530 ,-7.41096 
450 ,82.3038 ,1.41692 ,-0.75872 ,-7.44454 
451 ,82.4799 ,1.41876 ,-0.75530 ,-7.41096 
452 ,82.6880 ,1.42069 ,-0.76898 ,-7.54527 
453 ,82.8640 ,1.42256 ,-0.77925 ,-7.64601 
454 ,83.0561 ,1.42445 ,-0.79978 ,-7.84748 
455 ,83.2323 ,1.42622 ,-0.81005 ,-7.94821 
456 ,83.4405 ,1.42827 ,-0.81689 ,-8.01537 
457 ,83.6324 ,1.43015 ,-0.82716 ,-8.11611 
458 ,83.8242 ,1.43214 ,-0.83401 ,-8.18326 
459 ,84.0322 ,1.43418 ,-0.83743 ,-8.21684 
460 ,84.2087 ,1.43597 ,-0.85112 ,-8.35115 
461 ,84.3847 ,1.43784 ,-0.84427 ,-8.28400 
462 ,84.5610 ,1.43951 ,-0.86823 ,-8.51904 
463 ,84.7369 ,1.44126 ,-0.88192 ,-8.65336 
