Data stamp = , 03-04-2022 22:08:25 467

Calibration Values: 
Slope = , 26.54 , g/V 
Offset Voltage at no contact = , -0.501760 , V 

No , Time , Stage Position ,   Mass , Force 
   ,  (s) ,      (mm)      ,   (g)  , (mN)  

1 ,0.0000 ,0.59943 ,5.24718 ,51.48538 
2 ,0.2143 ,0.59951 ,5.23007 ,51.31749 
3 ,0.5185 ,0.60025 ,5.23350 ,51.35107 
4 ,0.7105 ,0.60168 ,5.22665 ,51.28391 
5 ,0.9027 ,0.60324 ,5.23692 ,51.38464 
6 ,1.0946 ,0.60502 ,5.21981 ,51.21675 
7 ,1.2867 ,0.60691 ,5.26087 ,51.61969 
8 ,1.4627 ,0.60866 ,5.22665 ,51.28391 
9 ,1.6550 ,0.61072 ,5.20612 ,51.08244 
10 ,1.8308 ,0.61248 ,5.19243 ,50.94813 
11 ,2.0070 ,0.61426 ,5.19585 ,50.98170 
12 ,2.1828 ,0.61601 ,5.16848 ,50.71308 
13 ,2.3592 ,0.61779 ,5.15479 ,50.57876 
14 ,2.5192 ,0.61948 ,5.14110 ,50.44445 
15 ,2.6954 ,0.62111 ,5.13768 ,50.41087 
16 ,2.8713 ,0.62287 ,5.12399 ,50.27656 
17 ,3.0473 ,0.62458 ,5.11714 ,50.20940 
18 ,3.2234 ,0.62633 ,5.10003 ,50.04151 
19 ,3.4155 ,0.62837 ,5.06239 ,49.67215 
20 ,3.5920 ,0.63006 ,5.05897 ,49.63857 
21 ,3.7836 ,0.63203 ,5.02817 ,49.33637 
22 ,3.9758 ,0.63389 ,5.00421 ,49.10132 
23 ,4.1516 ,0.63567 ,5.00421 ,49.10132 
24 ,4.3280 ,0.63745 ,4.99394 ,49.00058 
25 ,4.5199 ,0.63936 ,4.95288 ,48.59764 
26 ,4.7122 ,0.64122 ,4.95630 ,48.63122 
27 ,4.9202 ,0.64331 ,4.90497 ,48.12755 
28 ,5.0963 ,0.64507 ,4.89470 ,48.02681 
29 ,5.2885 ,0.64698 ,4.89470 ,48.02681 
30 ,5.4805 ,0.64889 ,4.86732 ,47.75819 
31 ,5.6725 ,0.65086 ,4.84679 ,47.55672 
32 ,5.8643 ,0.65269 ,4.83995 ,47.48956 
33 ,6.0408 ,0.65459 ,4.80230 ,47.12020 
34 ,6.2168 ,0.65635 ,4.79204 ,47.01946 
35 ,6.4088 ,0.65825 ,4.77493 ,46.85157 
36 ,6.5850 ,0.65998 ,4.74413 ,46.54937 
37 ,6.7609 ,0.66174 ,4.73044 ,46.41506 
38 ,6.9530 ,0.66364 ,4.72359 ,46.34790 
39 ,7.1291 ,0.66545 ,4.70990 ,46.21359 
40 ,7.3048 ,0.66718 ,4.67911 ,45.91138 
41 ,7.4813 ,0.66893 ,4.65857 ,45.70991 
42 ,7.6572 ,0.67068 ,4.66199 ,45.74349 
43 ,7.8334 ,0.67246 ,4.64831 ,45.60918 
44 ,8.0255 ,0.67437 ,4.61751 ,45.30697 
45 ,8.2016 ,0.67617 ,4.60382 ,45.17266 
46 ,8.3777 ,0.67797 ,4.59355 ,45.07192 
47 ,8.5536 ,0.67969 ,4.57986 ,44.93761 
48 ,8.7298 ,0.68144 ,4.56275 ,44.76972 
49 ,8.9058 ,0.68313 ,4.54222 ,44.56825 
50 ,9.0980 ,0.68507 ,4.52853 ,44.43394 
51 ,9.2898 ,0.68699 ,4.50457 ,44.19889 
52 ,9.4662 ,0.68881 ,4.48746 ,44.03100 
53 ,9.6741 ,0.69081 ,4.48062 ,43.96384 
54 ,9.8498 ,0.69266 ,4.44982 ,43.66163 
55 ,10.0264 ,0.69441 ,4.42929 ,43.46016 
56 ,10.2183 ,0.69630 ,4.41560 ,43.32585 
57 ,10.3942 ,0.69804 ,4.40875 ,43.25870 
58 ,10.5705 ,0.69982 ,4.38480 ,43.02365 
59 ,10.7466 ,0.70157 ,4.36084 ,42.78860 
60 ,10.9224 ,0.70336 ,4.34716 ,42.65429 
61 ,11.0827 ,0.70509 ,4.33347 ,42.51997 
62 ,11.2749 ,0.70684 ,4.32320 ,42.41924 
63 ,11.4510 ,0.70866 ,4.30609 ,42.25135 
64 ,11.6429 ,0.71057 ,4.26502 ,41.84841 
65 ,11.8351 ,0.71250 ,4.26845 ,41.88198 
66 ,12.0111 ,0.71420 ,4.24791 ,41.68051 
67 ,12.1872 ,0.71598 ,4.22053 ,41.41189 
68 ,12.3632 ,0.71773 ,4.19316 ,41.14326 
69 ,12.5553 ,0.71968 ,4.21027 ,41.31115 
70 ,12.7314 ,0.72145 ,4.17262 ,40.94179 
71 ,12.9074 ,0.72320 ,4.15209 ,40.74032 
72 ,13.0834 ,0.72493 ,4.13156 ,40.53885 
73 ,13.2595 ,0.72669 ,4.13156 ,40.53885 
74 ,13.4355 ,0.72844 ,4.12814 ,40.50527 
75 ,13.6117 ,0.73024 ,4.08365 ,40.06876 
76 ,13.7878 ,0.73198 ,4.07680 ,40.00160 
77 ,13.9639 ,0.73373 ,4.04600 ,39.69940 
78 ,14.1399 ,0.73553 ,4.03574 ,39.59866 
79 ,14.3160 ,0.73728 ,4.03574 ,39.59866 
80 ,14.4922 ,0.73902 ,4.01863 ,39.43077 
81 ,14.6683 ,0.74083 ,3.98441 ,39.09499 
82 ,14.8602 ,0.74271 ,3.97072 ,38.96067 
83 ,15.0362 ,0.74452 ,3.97072 ,38.96067 
84 ,15.2284 ,0.74637 ,3.94676 ,38.72562 
85 ,15.4203 ,0.74829 ,3.93992 ,38.65847 
86 ,15.5965 ,0.75007 ,3.90570 ,38.32268 
87 ,15.7724 ,0.75182 ,3.89885 ,38.25553 
88 ,15.9488 ,0.75363 ,3.87490 ,38.02048 
89 ,16.1567 ,0.75560 ,3.86121 ,37.88617 
90 ,16.3330 ,0.75745 ,3.84410 ,37.71828 
91 ,16.5569 ,0.75953 ,3.84067 ,37.68470 
92 ,16.7327 ,0.76143 ,3.80303 ,37.31534 
93 ,16.9091 ,0.76319 ,3.78934 ,37.18102 
94 ,17.1012 ,0.76511 ,3.78934 ,37.18102 
95 ,17.2771 ,0.76692 ,3.77908 ,37.08029 
96 ,17.4531 ,0.76861 ,3.74828 ,36.77808 
97 ,17.6295 ,0.77041 ,3.72432 ,36.54303 
98 ,17.8053 ,0.77215 ,3.72774 ,36.57661 
99 ,17.9817 ,0.77390 ,3.70379 ,36.34157 
100 ,18.1733 ,0.77577 ,3.67299 ,36.03936 
101 ,18.3497 ,0.77756 ,3.67299 ,36.03936 
102 ,18.5260 ,0.77938 ,3.63877 ,35.70358 
103 ,18.7019 ,0.78115 ,3.64219 ,35.73716 
104 ,18.9101 ,0.78314 ,3.61139 ,35.43495 
105 ,19.0861 ,0.78500 ,3.59770 ,35.30064 
106 ,19.2620 ,0.78673 ,3.59428 ,35.26706 
107 ,19.4381 ,0.78846 ,3.58401 ,35.16632 
108 ,19.6461 ,0.79042 ,3.55321 ,34.86412 
109 ,19.8222 ,0.79230 ,3.54637 ,34.79696 
110 ,19.9983 ,0.79406 ,3.52926 ,34.62907 
111 ,20.1906 ,0.79600 ,3.50530 ,34.39402 
112 ,20.3666 ,0.79781 ,3.48819 ,34.22613 
113 ,20.5587 ,0.79966 ,3.47108 ,34.05824 
114 ,20.7668 ,0.80173 ,3.46424 ,33.99108 
115 ,20.9588 ,0.80371 ,3.45397 ,33.89035 
116 ,21.1507 ,0.80559 ,3.42317 ,33.58814 
117 ,21.3269 ,0.80735 ,3.39921 ,33.35310 
118 ,21.5028 ,0.80910 ,3.40264 ,33.38667 
119 ,21.6790 ,0.81091 ,3.36842 ,33.05089 
120 ,21.8549 ,0.81263 ,3.35130 ,32.88300 
121 ,22.0471 ,0.81454 ,3.35130 ,32.88300 
122 ,22.2233 ,0.81633 ,3.33419 ,32.71511 
123 ,22.4154 ,0.81821 ,3.31708 ,32.54722 
124 ,22.5914 ,0.81999 ,3.29997 ,32.37933 
125 ,22.7670 ,0.82171 ,3.28628 ,32.24501 
126 ,22.9435 ,0.82356 ,3.26917 ,32.07712 
127 ,23.1354 ,0.82544 ,3.24864 ,31.87565 
128 ,23.3118 ,0.82715 ,3.24180 ,31.80849 
129 ,23.4878 ,0.82901 ,3.22811 ,31.67418 
130 ,23.6639 ,0.83073 ,3.21100 ,31.50629 
131 ,23.8560 ,0.83261 ,3.19046 ,31.30482 
132 ,24.0319 ,0.83439 ,3.16993 ,31.10335 
133 ,24.2078 ,0.83620 ,3.14255 ,30.83472 
134 ,24.4002 ,0.83804 ,3.13913 ,30.80115 
135 ,24.5762 ,0.83989 ,3.12886 ,30.70041 
136 ,24.7523 ,0.84155 ,3.09122 ,30.33105 
137 ,24.9283 ,0.84349 ,3.10149 ,30.43178 
138 ,25.1045 ,0.84512 ,3.09122 ,30.33105 
139 ,25.2966 ,0.84696 ,3.05358 ,29.96169 
140 ,25.4726 ,0.84884 ,3.06042 ,30.02884 
141 ,25.6488 ,0.85056 ,3.04331 ,29.86095 
142 ,25.8246 ,0.85232 ,3.03647 ,29.79380 
143 ,26.0168 ,0.85414 ,3.00224 ,29.45801 
144 ,26.1930 ,0.85601 ,2.98171 ,29.25654 
145 ,26.3690 ,0.85776 ,2.96802 ,29.12223 
146 ,26.5451 ,0.85954 ,2.96460 ,29.08865 
147 ,26.7369 ,0.86140 ,2.94064 ,28.85360 
148 ,26.9130 ,0.86318 ,2.92353 ,28.68571 
149 ,27.0894 ,0.86497 ,2.92696 ,28.71929 
150 ,27.2814 ,0.86684 ,2.88589 ,28.31635 
151 ,27.4735 ,0.86876 ,2.87562 ,28.21562 
152 ,27.6495 ,0.87053 ,2.87905 ,28.24919 
153 ,27.8411 ,0.87248 ,2.84140 ,27.87983 
154 ,28.0172 ,0.87421 ,2.82429 ,27.71194 
155 ,28.1932 ,0.87601 ,2.81745 ,27.64479 
156 ,28.3694 ,0.87771 ,2.82429 ,27.71194 
157 ,28.5457 ,0.87953 ,2.79349 ,27.40974 
158 ,28.7539 ,0.88163 ,2.75243 ,27.00680 
159 ,28.9621 ,0.88356 ,2.75243 ,27.00680 
160 ,29.1541 ,0.88560 ,2.73531 ,26.83891 
161 ,29.3301 ,0.88739 ,2.71136 ,26.60386 
162 ,29.5062 ,0.88915 ,2.72163 ,26.70459 
163 ,29.6822 ,0.89087 ,2.70109 ,26.50312 
164 ,29.8585 ,0.89267 ,2.67029 ,26.20092 
165 ,30.0505 ,0.89457 ,2.65660 ,26.06661 
166 ,30.2265 ,0.89634 ,2.64292 ,25.93229 
167 ,30.4026 ,0.89806 ,2.63607 ,25.86514 
168 ,30.5946 ,0.90000 ,2.60527 ,25.56293 
169 ,30.7705 ,0.90175 ,2.61896 ,25.69724 
170 ,30.9308 ,0.90347 ,2.60185 ,25.52935 
171 ,31.0908 ,0.90507 ,2.56421 ,25.15999 
172 ,31.2830 ,0.90683 ,2.53683 ,24.89136 
173 ,31.4592 ,0.90867 ,2.53341 ,24.85779 
174 ,31.6351 ,0.91045 ,2.50603 ,24.58916 
175 ,31.8272 ,0.91234 ,2.50603 ,24.58916 
176 ,32.0028 ,0.91405 ,2.46839 ,24.21980 
177 ,32.1794 ,0.91586 ,2.46839 ,24.21980 
178 ,32.3550 ,0.91772 ,2.45470 ,24.08549 
179 ,32.5311 ,0.91937 ,2.45812 ,24.11906 
180 ,32.7072 ,0.92107 ,2.43759 ,23.91759 
181 ,32.8833 ,0.92284 ,2.40679 ,23.61539 
182 ,33.0434 ,0.92459 ,2.39652 ,23.51465 
183 ,33.2193 ,0.92619 ,2.38283 ,23.38034 
184 ,33.3954 ,0.92801 ,2.36914 ,23.24603 
185 ,33.5555 ,0.92969 ,2.36230 ,23.17887 
186 ,33.7156 ,0.93129 ,2.34519 ,23.01098 
187 ,33.8757 ,0.93291 ,2.34519 ,23.01098 
188 ,34.0356 ,0.93450 ,2.31781 ,22.74235 
189 ,34.2117 ,0.93616 ,2.31439 ,22.70877 
190 ,34.3878 ,0.93789 ,2.29385 ,22.50731 
191 ,34.5639 ,0.93967 ,2.27674 ,22.33941 
192 ,34.7238 ,0.94138 ,2.25621 ,22.13794 
193 ,34.9000 ,0.94301 ,2.23568 ,21.93647 
194 ,35.0601 ,0.94476 ,2.23226 ,21.90290 
195 ,35.2201 ,0.94636 ,2.21515 ,21.73500 
196 ,35.3962 ,0.94801 ,2.20830 ,21.66785 
197 ,35.5564 ,0.94971 ,2.19461 ,21.53353 
198 ,35.7163 ,0.95130 ,2.18777 ,21.46638 
199 ,35.8925 ,0.95296 ,2.17066 ,21.29849 
200 ,36.0686 ,0.95471 ,2.15355 ,21.13059 
201 ,36.2285 ,0.95643 ,2.13301 ,20.92912 
202 ,36.4047 ,0.95807 ,2.11590 ,20.76123 
203 ,36.5647 ,0.95979 ,2.10564 ,20.66050 
204 ,36.7411 ,0.96145 ,2.07826 ,20.39187 
205 ,36.9333 ,0.96336 ,2.07826 ,20.39187 
206 ,37.1094 ,0.96508 ,2.07141 ,20.32472 
207 ,37.3173 ,0.96720 ,2.05088 ,20.12325 
208 ,37.5096 ,0.96914 ,2.03377 ,19.95535 
209 ,37.7176 ,0.97111 ,2.01666 ,19.78746 
210 ,37.8939 ,0.97295 ,1.99613 ,19.58599 
211 ,38.0856 ,0.97487 ,1.99613 ,19.58599 
212 ,38.2778 ,0.97669 ,1.97559 ,19.38452 
213 ,38.4539 ,0.97853 ,1.95164 ,19.14948 
214 ,38.6300 ,0.98034 ,1.95848 ,19.21663 
215 ,38.8061 ,0.98203 ,1.90373 ,18.67938 
216 ,38.9822 ,0.98385 ,1.90031 ,18.64580 
217 ,39.1903 ,0.98579 ,1.90715 ,18.71296 
218 ,39.3979 ,0.98793 ,1.87635 ,18.41075 
219 ,39.5742 ,0.98972 ,1.85582 ,18.20928 
220 ,39.7665 ,0.99172 ,1.83871 ,18.04139 
221 ,39.9423 ,0.99348 ,1.82502 ,17.90708 
222 ,40.1348 ,0.99528 ,1.81475 ,17.80634 
223 ,40.3267 ,0.99729 ,1.78737 ,17.53772 
224 ,40.5028 ,0.99904 ,1.76342 ,17.30267 
225 ,40.6949 ,1.00092 ,1.76684 ,17.33625 
226 ,40.8868 ,1.00286 ,1.75657 ,17.23551 
227 ,41.0631 ,1.00465 ,1.72578 ,16.93331 
228 ,41.2391 ,1.00634 ,1.70524 ,16.73184 
229 ,41.4152 ,1.00821 ,1.70524 ,16.73184 
230 ,41.5910 ,1.00994 ,1.70182 ,16.69826 
231 ,41.7671 ,1.01168 ,1.68813 ,16.56395 
232 ,41.9434 ,1.01344 ,1.65391 ,16.22816 
233 ,42.1194 ,1.01519 ,1.65391 ,16.22816 
234 ,42.2956 ,1.01697 ,1.64022 ,16.09385 
235 ,42.4876 ,1.01885 ,1.60942 ,15.79164 
236 ,42.6633 ,1.02065 ,1.59916 ,15.69091 
237 ,42.8399 ,1.02242 ,1.58547 ,15.55660 
238 ,43.0319 ,1.02436 ,1.58204 ,15.52302 
239 ,43.2240 ,1.02627 ,1.54782 ,15.18724 
240 ,43.4320 ,1.02819 ,1.54782 ,15.18724 
241 ,43.6242 ,1.03026 ,1.51702 ,14.88503 
242 ,43.8001 ,1.03202 ,1.49991 ,14.71714 
243 ,43.9759 ,1.03374 ,1.50676 ,14.78430 
244 ,44.1524 ,1.03549 ,1.49991 ,14.71714 
245 ,44.3602 ,1.03747 ,1.48280 ,14.54925 
246 ,44.5365 ,1.03935 ,1.46911 ,14.41493 
247 ,44.7125 ,1.04116 ,1.45200 ,14.24704 
248 ,44.9046 ,1.04303 ,1.42120 ,13.94484 
249 ,45.0966 ,1.04495 ,1.42805 ,14.01199 
250 ,45.2727 ,1.04670 ,1.40751 ,13.81053 
251 ,45.4488 ,1.04845 ,1.40751 ,13.81053 
252 ,45.6409 ,1.05030 ,1.37671 ,13.50832 
253 ,45.8327 ,1.05231 ,1.37329 ,13.47474 
254 ,46.0091 ,1.05410 ,1.35276 ,13.27327 
255 ,46.2011 ,1.05603 ,1.33223 ,13.07180 
256 ,46.3934 ,1.05791 ,1.32538 ,13.00465 
257 ,46.5856 ,1.05986 ,1.30143 ,12.76960 
258 ,46.7614 ,1.06161 ,1.29116 ,12.66886 
259 ,46.9371 ,1.06336 ,1.27747 ,12.53455 
260 ,47.1135 ,1.06511 ,1.28089 ,12.56813 
261 ,47.3215 ,1.06714 ,1.24667 ,12.23235 
262 ,47.4977 ,1.06896 ,1.24667 ,12.23235 
263 ,47.6738 ,1.07069 ,1.25009 ,12.26592 
264 ,47.8658 ,1.07259 ,1.21245 ,11.89656 
265 ,48.0418 ,1.07439 ,1.18165 ,11.59436 
266 ,48.2178 ,1.07616 ,1.18850 ,11.66151 
267 ,48.3943 ,1.07794 ,1.18507 ,11.62794 
268 ,48.5701 ,1.07971 ,1.16454 ,11.42647 
269 ,48.7462 ,1.08145 ,1.13716 ,11.15784 
270 ,48.9381 ,1.08330 ,1.15427 ,11.32573 
271 ,49.1143 ,1.08512 ,1.13716 ,11.15784 
272 ,49.2903 ,1.08687 ,1.11663 ,10.95637 
273 ,49.4663 ,1.08860 ,1.09610 ,10.75490 
274 ,49.6586 ,1.09046 ,1.08241 ,10.62059 
275 ,49.8507 ,1.09247 ,1.06187 ,10.41912 
276 ,50.0426 ,1.09438 ,1.04819 ,10.28480 
277 ,50.2187 ,1.09617 ,1.04476 ,10.25123 
278 ,50.3949 ,1.09792 ,1.03792 ,10.18407 
279 ,50.5709 ,1.09973 ,1.01396 ,9.94902 
280 ,50.7630 ,1.10161 ,1.00712 ,9.88186 
281 ,50.9390 ,1.10338 ,1.00370 ,9.84829 
282 ,51.1151 ,1.10510 ,0.99001 ,9.71397 
283 ,51.3070 ,1.10697 ,0.97290 ,9.54608 
284 ,51.4992 ,1.10897 ,0.96263 ,9.44535 
285 ,51.6753 ,1.11075 ,0.95579 ,9.37819 
286 ,51.8515 ,1.11248 ,0.92157 ,9.04241 
287 ,52.0433 ,1.11440 ,0.91130 ,8.94167 
288 ,52.2193 ,1.11615 ,0.90788 ,8.90809 
289 ,52.3956 ,1.11793 ,0.90446 ,8.87451 
290 ,52.5878 ,1.11983 ,0.88050 ,8.63947 
291 ,52.7638 ,1.12160 ,0.87366 ,8.57231 
292 ,52.9398 ,1.12337 ,0.87023 ,8.53873 
293 ,53.1159 ,1.12507 ,0.85997 ,8.43800 
294 ,53.3075 ,1.12706 ,0.82575 ,8.10221 
295 ,53.4841 ,1.12878 ,0.82917 ,8.13579 
296 ,53.6762 ,1.13068 ,0.81206 ,7.96790 
297 ,53.8682 ,1.13264 ,0.78126 ,7.66570 
298 ,54.0765 ,1.13468 ,0.78126 ,7.66570 
299 ,54.2522 ,1.13651 ,0.76757 ,7.53138 
300 ,54.4124 ,1.13821 ,0.76415 ,7.49780 
301 ,54.5884 ,1.13981 ,0.74704 ,7.32991 
302 ,54.7645 ,1.14159 ,0.74019 ,7.26276 
303 ,54.9407 ,1.14338 ,0.74019 ,7.26276 
304 ,55.1327 ,1.14522 ,0.71966 ,7.06129 
305 ,55.3249 ,1.14726 ,0.69913 ,6.85982 
306 ,55.5009 ,1.14901 ,0.69228 ,6.79266 
307 ,55.6930 ,1.15092 ,0.66490 ,6.52403 
308 ,55.8690 ,1.15262 ,0.66833 ,6.55761 
309 ,56.0451 ,1.15443 ,0.63410 ,6.22183 
310 ,56.2211 ,1.15613 ,0.65121 ,6.38972 
311 ,56.3973 ,1.15793 ,0.63068 ,6.18825 
312 ,56.5733 ,1.15963 ,0.60673 ,5.95320 
313 ,56.7814 ,1.16169 ,0.59988 ,5.88605 
314 ,56.9575 ,1.16352 ,0.59304 ,5.81889 
315 ,57.1335 ,1.16529 ,0.57935 ,5.68458 
316 ,57.3098 ,1.16702 ,0.55882 ,5.48311 
317 ,57.5014 ,1.16896 ,0.56566 ,5.55026 
318 ,57.6778 ,1.17074 ,0.55882 ,5.48311 
319 ,57.8859 ,1.17273 ,0.53828 ,5.28164 
320 ,58.0619 ,1.17456 ,0.52802 ,5.18090 
321 ,58.2536 ,1.17648 ,0.51091 ,5.01301 
322 ,58.4301 ,1.17822 ,0.50406 ,4.94585 
323 ,58.6220 ,1.18017 ,0.49380 ,4.84512 
324 ,58.7983 ,1.18190 ,0.48011 ,4.71081 
325 ,58.9740 ,1.18368 ,0.46300 ,4.54291 
326 ,59.1504 ,1.18544 ,0.43904 ,4.30787 
327 ,59.3264 ,1.18721 ,0.44246 ,4.34144 
328 ,59.5025 ,1.18896 ,0.43904 ,4.30787 
329 ,59.6785 ,1.19074 ,0.43562 ,4.27429 
330 ,59.8385 ,1.19244 ,0.40140 ,3.93850 
331 ,60.0146 ,1.19406 ,0.39113 ,3.83777 
332 ,60.1908 ,1.19585 ,0.37744 ,3.70346 
333 ,60.3669 ,1.19764 ,0.37060 ,3.63630 
334 ,60.5588 ,1.19945 ,0.35691 ,3.50199 
335 ,60.7349 ,1.20126 ,0.35006 ,3.43483 
336 ,60.9110 ,1.20304 ,0.33295 ,3.26694 
337 ,61.0711 ,1.20474 ,0.32953 ,3.23336 
338 ,61.2472 ,1.20642 ,0.32269 ,3.16620 
339 ,61.4553 ,1.20840 ,0.31242 ,3.06547 
340 ,61.6313 ,1.21024 ,0.30215 ,2.96473 
341 ,61.8074 ,1.21200 ,0.28847 ,2.83042 
342 ,61.9837 ,1.21381 ,0.29531 ,2.89758 
343 ,62.1594 ,1.21557 ,0.26451 ,2.59537 
344 ,62.3356 ,1.21722 ,0.23713 ,2.32675 
345 ,62.5277 ,1.21909 ,0.24055 ,2.36032 
346 ,62.7519 ,1.22133 ,0.23029 ,2.25959 
347 ,62.9439 ,1.22328 ,0.20976 ,2.05812 
348 ,63.1200 ,1.22513 ,0.20976 ,2.05812 
349 ,63.3120 ,1.22701 ,0.20291 ,1.99096 
350 ,63.5201 ,1.22900 ,0.17896 ,1.75592 
351 ,63.6960 ,1.23089 ,0.17553 ,1.72234 
352 ,63.8719 ,1.23266 ,0.14473 ,1.42013 
353 ,64.0479 ,1.23439 ,0.15158 ,1.48729 
354 ,64.2243 ,1.23615 ,0.14473 ,1.42013 
355 ,64.4001 ,1.23792 ,0.12762 ,1.25224 
356 ,64.5762 ,1.23962 ,0.11736 ,1.15151 
357 ,64.7523 ,1.24144 ,0.09682 ,0.95004 
358 ,64.9285 ,1.24321 ,0.09340 ,0.91646 
359 ,65.1207 ,1.24513 ,0.07629 ,0.74857 
360 ,65.3129 ,1.24701 ,0.07287 ,0.71499 
361 ,65.4891 ,1.24882 ,0.06260 ,0.61425 
362 ,65.6650 ,1.25058 ,0.05918 ,0.58067 
363 ,65.8731 ,1.25254 ,0.03522 ,0.34563 
364 ,66.0489 ,1.25442 ,0.02838 ,0.27847 
365 ,66.2253 ,1.25618 ,0.02154 ,0.21131 
366 ,66.4014 ,1.25794 ,0.01127 ,0.11058 
367 ,66.5774 ,1.25972 ,0.00443 ,0.04342 
368 ,66.7532 ,1.26146 ,-0.02637 ,-0.25878 
369 ,66.9295 ,1.26322 ,-0.00926 ,-0.09089 
370 ,67.1053 ,1.26495 ,-0.01611 ,-0.15805 
371 ,67.2977 ,1.26678 ,-0.04348 ,-0.42667 
372 ,67.4737 ,1.26866 ,-0.06060 ,-0.59457 
373 ,67.6498 ,1.27043 ,-0.06402 ,-0.62814 
374 ,67.8258 ,1.27215 ,-0.06744 ,-0.66172 
375 ,68.0179 ,1.27402 ,-0.07428 ,-0.72888 
376 ,68.1940 ,1.27584 ,-0.10166 ,-0.99751 
377 ,68.3861 ,1.27772 ,-0.10166 ,-0.99751 
378 ,68.5622 ,1.27956 ,-0.09482 ,-0.93035 
379 ,68.7381 ,1.28128 ,-0.12562 ,-1.23255 
380 ,68.9303 ,1.28323 ,-0.13588 ,-1.33329 
381 ,69.1062 ,1.28497 ,-0.12904 ,-1.26613 
382 ,69.3143 ,1.28701 ,-0.15299 ,-1.50118 
383 ,69.5065 ,1.28896 ,-0.15642 ,-1.53476 
384 ,69.6826 ,1.29072 ,-0.16326 ,-1.60191 
385 ,69.8588 ,1.29247 ,-0.19406 ,-1.90412 
386 ,70.0348 ,1.29425 ,-0.19748 ,-1.93770 
387 ,70.2104 ,1.29602 ,-0.19748 ,-1.93770 
388 ,70.3870 ,1.29778 ,-0.19406 ,-1.90412 
389 ,70.5788 ,1.29970 ,-0.23855 ,-2.34064 
390 ,70.7551 ,1.30142 ,-0.23513 ,-2.30706 
391 ,70.9310 ,1.30327 ,-0.22486 ,-2.20632 
392 ,71.1072 ,1.30499 ,-0.23513 ,-2.30706 
393 ,71.2989 ,1.30696 ,-0.25566 ,-2.50853 
394 ,71.4754 ,1.30870 ,-0.27277 ,-2.67642 
395 ,71.6512 ,1.31042 ,-0.28304 ,-2.77716 
396 ,71.8274 ,1.31215 ,-0.27619 ,-2.71000 
397 ,72.0195 ,1.31413 ,-0.29330 ,-2.87789 
398 ,72.2116 ,1.31601 ,-0.30699 ,-3.01220 
399 ,72.3877 ,1.31776 ,-0.30015 ,-2.94505 
400 ,72.5636 ,1.31950 ,-0.33437 ,-3.28083 
401 ,72.7398 ,1.32129 ,-0.34464 ,-3.38156 
402 ,72.9479 ,1.32326 ,-0.33779 ,-3.31441 
403 ,73.1240 ,1.32514 ,-0.35490 ,-3.48230 
404 ,73.3001 ,1.32692 ,-0.36859 ,-3.61661 
405 ,73.4761 ,1.32865 ,-0.37544 ,-3.68377 
406 ,73.6520 ,1.33047 ,-0.37201 ,-3.65019 
407 ,73.8282 ,1.33213 ,-0.37886 ,-3.71735 
408 ,74.0044 ,1.33393 ,-0.39939 ,-3.91882 
409 ,74.1964 ,1.33581 ,-0.42335 ,-4.15387 
410 ,74.3886 ,1.33773 ,-0.40623 ,-3.98597 
411 ,74.5644 ,1.33952 ,-0.40966 ,-4.01955 
412 ,74.7404 ,1.34127 ,-0.44046 ,-4.32176 
413 ,74.9326 ,1.34306 ,-0.44046 ,-4.32176 
414 ,75.1088 ,1.34497 ,-0.45072 ,-4.42249 
415 ,75.3008 ,1.34685 ,-0.47126 ,-4.62396 
416 ,75.4768 ,1.34866 ,-0.46783 ,-4.59038 
417 ,75.6529 ,1.35040 ,-0.46783 ,-4.59038 
418 ,75.8291 ,1.35217 ,-0.47810 ,-4.69112 
419 ,76.0049 ,1.35398 ,-0.48837 ,-4.79185 
420 ,76.1813 ,1.35572 ,-0.51917 ,-5.09406 
421 ,76.3731 ,1.35761 ,-0.50890 ,-4.99332 
422 ,76.5492 ,1.35942 ,-0.51574 ,-5.06048 
423 ,76.7574 ,1.36131 ,-0.53970 ,-5.29553 
424 ,76.9332 ,1.36331 ,-0.53628 ,-5.26195 
425 ,77.1095 ,1.36496 ,-0.52601 ,-5.16121 
426 ,77.2858 ,1.36675 ,-0.54997 ,-5.39626 
427 ,77.4617 ,1.36851 ,-0.57050 ,-5.59773 
428 ,77.6374 ,1.37025 ,-0.58419 ,-5.73205 
429 ,77.8298 ,1.37207 ,-0.57050 ,-5.59773 
430 ,78.0218 ,1.37407 ,-0.60472 ,-5.93352 
431 ,78.1979 ,1.37587 ,-0.59788 ,-5.86636 
432 ,78.3740 ,1.37762 ,-0.61499 ,-6.03425 
433 ,78.5659 ,1.37952 ,-0.61841 ,-6.06783 
434 ,78.7421 ,1.38130 ,-0.63210 ,-6.20214 
435 ,78.9183 ,1.38302 ,-0.63552 ,-6.23572 
436 ,79.0941 ,1.38482 ,-0.62868 ,-6.16856 
437 ,79.2704 ,1.38653 ,-0.63552 ,-6.23572 
438 ,79.4464 ,1.38834 ,-0.65605 ,-6.43719 
439 ,79.6385 ,1.39025 ,-0.66974 ,-6.57150 
440 ,79.8146 ,1.39201 ,-0.67316 ,-6.60508 
441 ,79.9907 ,1.39383 ,-0.69370 ,-6.80655 
442 ,80.1667 ,1.39549 ,-0.68343 ,-6.70582 
443 ,80.3427 ,1.39724 ,-0.70739 ,-6.94086 
444 ,80.5189 ,1.39906 ,-0.70396 ,-6.90729 
445 ,80.6950 ,1.40084 ,-0.70739 ,-6.94086 
446 ,80.8710 ,1.40253 ,-0.71765 ,-7.04160 
447 ,81.0470 ,1.40433 ,-0.73818 ,-7.24307 
448 ,81.2231 ,1.40612 ,-0.74845 ,-7.34380 
449 ,81.3989 ,1.40785 ,-0.74845 ,-7.34380 
450 ,81.5753 ,1.40957 ,-0.74503 ,-7.31023 
451 ,81.7673 ,1.41144 ,-0.75530 ,-7.41096 
452 ,81.9594 ,1.41344 ,-0.78610 ,-7.71317 
453 ,82.1355 ,1.41523 ,-0.78610 ,-7.71317 
454 ,82.3114 ,1.41695 ,-0.76898 ,-7.54527 
455 ,82.4876 ,1.41873 ,-0.79636 ,-7.81390 
456 ,82.6637 ,1.42046 ,-0.81005 ,-7.94821 
457 ,82.8399 ,1.42224 ,-0.82032 ,-8.04895 
458 ,83.0318 ,1.42413 ,-0.81347 ,-7.98179 
459 ,83.2239 ,1.42603 ,-0.83401 ,-8.18326 
460 ,83.4001 ,1.42784 ,-0.83743 ,-8.21684 
461 ,83.5920 ,1.42979 ,-0.83401 ,-8.18326 
462 ,83.7683 ,1.43152 ,-0.84769 ,-8.31758 
463 ,83.9760 ,1.43351 ,-0.85796 ,-8.41831 
