Data stamp = , 02-04-2022 03:39:02 262

Calibration Values: 
Slope = , 26.54 , g/V 
Offset Voltage at no contact = , -0.501760 , V 

No , Time , Stage Position ,   Mass , Force 
   ,  (s) ,      (mm)      ,   (g)  , (mN)  

1 ,0.0000 ,0.64943 ,5.02474 ,49.30279 
2 ,0.2147 ,0.64950 ,5.01448 ,49.20205 
3 ,0.5185 ,0.65029 ,5.01106 ,49.16848 
4 ,0.6949 ,0.65159 ,5.02817 ,49.33637 
5 ,0.8868 ,0.65310 ,5.01448 ,49.20205 
6 ,1.0951 ,0.65510 ,5.01106 ,49.16848 
7 ,1.3032 ,0.65705 ,5.03159 ,49.36995 
8 ,1.4952 ,0.65911 ,5.02474 ,49.30279 
9 ,1.6872 ,0.66094 ,5.00079 ,49.06774 
10 ,1.8634 ,0.66279 ,5.01106 ,49.16848 
11 ,2.0713 ,0.66488 ,4.98026 ,48.86627 
12 ,2.2475 ,0.66669 ,4.98368 ,48.89985 
13 ,2.4233 ,0.66846 ,4.96657 ,48.73196 
14 ,2.6154 ,0.67036 ,4.94603 ,48.53049 
15 ,2.7915 ,0.67211 ,4.93235 ,48.39618 
16 ,2.9994 ,0.67412 ,4.93577 ,48.42975 
17 ,3.1753 ,0.67594 ,4.91523 ,48.22828 
18 ,3.3516 ,0.67772 ,4.89812 ,48.06039 
19 ,3.5600 ,0.67976 ,4.89470 ,48.02681 
20 ,3.7522 ,0.68170 ,4.85364 ,47.62387 
21 ,3.9441 ,0.68358 ,4.86390 ,47.72461 
22 ,4.1360 ,0.68553 ,4.84679 ,47.55672 
23 ,4.3121 ,0.68735 ,4.82284 ,47.32167 
24 ,4.5044 ,0.68915 ,4.81257 ,47.22093 
25 ,4.6803 ,0.69101 ,4.80915 ,47.18736 
26 ,4.8564 ,0.69275 ,4.80230 ,47.12020 
27 ,5.0482 ,0.69464 ,4.77835 ,46.88515 
28 ,5.2247 ,0.69641 ,4.76808 ,46.78442 
29 ,5.4168 ,0.69836 ,4.75097 ,46.61653 
30 ,5.5929 ,0.70011 ,4.73728 ,46.48221 
31 ,5.7690 ,0.70192 ,4.70990 ,46.21359 
32 ,5.9610 ,0.70372 ,4.71675 ,46.28074 
33 ,6.1370 ,0.70560 ,4.68937 ,46.01212 
34 ,6.3451 ,0.70761 ,4.67568 ,45.87780 
35 ,6.5213 ,0.70939 ,4.66199 ,45.74349 
36 ,6.7135 ,0.71129 ,4.63119 ,45.44128 
37 ,6.8888 ,0.71309 ,4.60724 ,45.20624 
38 ,7.0651 ,0.71479 ,4.61066 ,45.23981 
39 ,7.2416 ,0.71655 ,4.60382 ,45.17266 
40 ,7.4335 ,0.71843 ,4.55933 ,44.73614 
41 ,7.6096 ,0.72024 ,4.53880 ,44.53467 
42 ,7.7856 ,0.72199 ,4.53537 ,44.50109 
43 ,7.9613 ,0.72378 ,4.52169 ,44.36678 
44 ,8.1381 ,0.72556 ,4.49431 ,44.09815 
45 ,8.3300 ,0.72747 ,4.46009 ,43.76237 
46 ,8.5061 ,0.72924 ,4.44298 ,43.59448 
47 ,8.6982 ,0.73105 ,4.43613 ,43.52732 
48 ,8.8902 ,0.73302 ,4.40533 ,43.22512 
49 ,9.0499 ,0.73477 ,4.39849 ,43.15796 
50 ,9.2262 ,0.73639 ,4.36769 ,42.85576 
51 ,9.4024 ,0.73821 ,4.36427 ,42.82218 
52 ,9.5785 ,0.73997 ,4.35058 ,42.68786 
53 ,9.7866 ,0.74190 ,4.30267 ,42.21777 
54 ,9.9785 ,0.74395 ,4.30267 ,42.21777 
55 ,10.1543 ,0.74566 ,4.26845 ,41.88198 
56 ,10.3308 ,0.74751 ,4.24449 ,41.64694 
57 ,10.5070 ,0.74929 ,4.22053 ,41.41189 
58 ,10.7148 ,0.75125 ,4.21027 ,41.31115 
59 ,10.8909 ,0.75309 ,4.18974 ,41.10968 
60 ,11.0668 ,0.75478 ,4.19316 ,41.14326 
61 ,11.2431 ,0.75660 ,4.16920 ,40.90821 
62 ,11.4191 ,0.75831 ,4.14867 ,40.70674 
63 ,11.5951 ,0.76009 ,4.13156 ,40.53885 
64 ,11.7874 ,0.76200 ,4.10760 ,40.30380 
65 ,11.9635 ,0.76379 ,4.10076 ,40.23665 
66 ,12.1393 ,0.76552 ,4.07680 ,40.00160 
67 ,12.3316 ,0.76745 ,4.04258 ,39.66582 
68 ,12.5236 ,0.76939 ,4.04600 ,39.69940 
69 ,12.6995 ,0.77112 ,4.03232 ,39.56508 
70 ,12.8757 ,0.77290 ,4.00152 ,39.26288 
71 ,13.0519 ,0.77468 ,3.98098 ,39.06141 
72 ,13.2436 ,0.77657 ,3.97756 ,39.02783 
73 ,13.4199 ,0.77833 ,3.95361 ,38.79278 
74 ,13.6277 ,0.78033 ,3.91938 ,38.45700 
75 ,13.8041 ,0.78220 ,3.90227 ,38.28911 
76 ,13.9801 ,0.78393 ,3.90912 ,38.35626 
77 ,14.1563 ,0.78570 ,3.88174 ,38.08764 
78 ,14.3323 ,0.78744 ,3.84410 ,37.71828 
79 ,14.5085 ,0.78919 ,3.84410 ,37.71828 
80 ,14.6846 ,0.79099 ,3.82356 ,37.51681 
81 ,14.8766 ,0.79281 ,3.82356 ,37.51681 
82 ,15.0683 ,0.79488 ,3.78934 ,37.18102 
83 ,15.2449 ,0.79658 ,3.77565 ,37.04671 
84 ,15.4209 ,0.79835 ,3.75854 ,36.87882 
85 ,15.5970 ,0.80020 ,3.73117 ,36.61019 
86 ,15.7731 ,0.80185 ,3.71748 ,36.47588 
87 ,15.9811 ,0.80390 ,3.70037 ,36.30799 
88 ,16.1572 ,0.80572 ,3.67983 ,36.10652 
89 ,16.3332 ,0.80743 ,3.64561 ,35.77073 
90 ,16.5095 ,0.80926 ,3.64561 ,35.77073 
91 ,16.7013 ,0.81116 ,3.63534 ,35.67000 
92 ,16.8775 ,0.81289 ,3.61139 ,35.43495 
93 ,17.0852 ,0.81495 ,3.59086 ,35.23348 
94 ,17.2615 ,0.81673 ,3.58401 ,35.16632 
95 ,17.4374 ,0.81852 ,3.57032 ,35.03201 
96 ,17.6135 ,0.82028 ,3.53952 ,34.72981 
97 ,17.7897 ,0.82200 ,3.52241 ,34.56192 
98 ,17.9979 ,0.82407 ,3.50530 ,34.39402 
99 ,18.1896 ,0.82591 ,3.49161 ,34.25971 
100 ,18.3661 ,0.82779 ,3.48135 ,34.15898 
101 ,18.5260 ,0.82952 ,3.46081 ,33.95751 
102 ,18.7022 ,0.83117 ,3.45055 ,33.85677 
103 ,18.8942 ,0.83304 ,3.41633 ,33.52099 
104 ,19.0703 ,0.83483 ,3.41290 ,33.48741 
105 ,19.2465 ,0.83662 ,3.38895 ,33.25236 
106 ,19.4546 ,0.83855 ,3.37184 ,33.08447 
107 ,19.6305 ,0.84043 ,3.36157 ,32.98374 
108 ,19.8065 ,0.84220 ,3.34446 ,32.81584 
109 ,19.9825 ,0.84397 ,3.34446 ,32.81584 
110 ,20.1587 ,0.84569 ,3.32051 ,32.58080 
111 ,20.3349 ,0.84747 ,3.29313 ,32.31217 
112 ,20.5109 ,0.84919 ,3.26575 ,32.04354 
113 ,20.6870 ,0.85098 ,3.27259 ,32.11070 
114 ,20.8630 ,0.85273 ,3.25206 ,31.90923 
115 ,21.0552 ,0.85457 ,3.24180 ,31.80849 
116 ,21.2473 ,0.85658 ,3.21100 ,31.50629 
117 ,21.4233 ,0.85835 ,3.19731 ,31.37198 
118 ,21.6315 ,0.86028 ,3.17677 ,31.17051 
119 ,21.8074 ,0.86220 ,3.14255 ,30.83472 
120 ,21.9996 ,0.86413 ,3.14940 ,30.90188 
121 ,22.1917 ,0.86604 ,3.11860 ,30.59968 
122 ,22.3675 ,0.86783 ,3.09806 ,30.39821 
123 ,22.5438 ,0.86953 ,3.10833 ,30.49894 
124 ,22.7198 ,0.87131 ,3.09464 ,30.36463 
125 ,22.8956 ,0.87306 ,3.07069 ,30.12958 
126 ,23.0718 ,0.87483 ,3.04673 ,29.89453 
127 ,23.2480 ,0.87657 ,3.02962 ,29.72664 
128 ,23.4562 ,0.87857 ,3.01935 ,29.62590 
129 ,23.6639 ,0.88070 ,2.99540 ,29.39086 
130 ,23.8403 ,0.88248 ,2.98171 ,29.25654 
131 ,24.0322 ,0.88428 ,2.95776 ,29.02150 
132 ,24.2244 ,0.88635 ,2.95776 ,29.02150 
133 ,24.4005 ,0.88806 ,2.94064 ,28.85360 
134 ,24.5926 ,0.89006 ,2.89616 ,28.41709 
135 ,24.7686 ,0.89178 ,2.88589 ,28.31635 
136 ,24.9448 ,0.89357 ,2.88247 ,28.28277 
137 ,25.1370 ,0.89546 ,2.85851 ,28.04772 
138 ,25.3290 ,0.89740 ,2.83798 ,27.84625 
139 ,25.5053 ,0.89918 ,2.83456 ,27.81268 
140 ,25.6968 ,0.90103 ,2.79691 ,27.44332 
141 ,25.8571 ,0.90278 ,2.79349 ,27.40974 
142 ,26.0331 ,0.90438 ,2.76954 ,27.17469 
143 ,26.2093 ,0.90632 ,2.77296 ,27.20827 
144 ,26.4013 ,0.90806 ,2.75243 ,27.00680 
145 ,26.5775 ,0.90991 ,2.74216 ,26.90606 
146 ,26.7695 ,0.91173 ,2.70794 ,26.57028 
147 ,26.9454 ,0.91349 ,2.70794 ,26.57028 
148 ,27.1373 ,0.91543 ,2.67372 ,26.23450 
149 ,27.3298 ,0.91736 ,2.66687 ,26.16734 
150 ,27.5059 ,0.91919 ,2.64634 ,25.96587 
151 ,27.6978 ,0.92109 ,2.63607 ,25.86514 
152 ,27.8897 ,0.92294 ,2.61896 ,25.69724 
153 ,28.0820 ,0.92486 ,2.60185 ,25.52935 
154 ,28.2580 ,0.92663 ,2.57447 ,25.26073 
155 ,28.4343 ,0.92842 ,2.55052 ,25.02568 
156 ,28.6262 ,0.93033 ,2.54367 ,24.95852 
157 ,28.8024 ,0.93215 ,2.53341 ,24.85779 
158 ,28.9785 ,0.93386 ,2.50261 ,24.55558 
159 ,29.1863 ,0.93585 ,2.51287 ,24.65632 
160 ,29.3785 ,0.93776 ,2.48892 ,24.42127 
161 ,29.5547 ,0.93964 ,2.45812 ,24.11906 
162 ,29.7308 ,0.94141 ,2.43416 ,23.88402 
163 ,29.9228 ,0.94321 ,2.43074 ,23.85044 
164 ,30.0987 ,0.94506 ,2.42390 ,23.78328 
165 ,30.2909 ,0.94697 ,2.40679 ,23.61539 
166 ,30.4829 ,0.94893 ,2.37941 ,23.34676 
167 ,30.6591 ,0.95069 ,2.37256 ,23.27961 
168 ,30.8351 ,0.95247 ,2.33834 ,22.94382 
169 ,31.0111 ,0.95416 ,2.33492 ,22.91024 
170 ,31.1870 ,0.95591 ,2.32123 ,22.77593 
171 ,31.3632 ,0.95772 ,2.31439 ,22.70877 
172 ,31.5395 ,0.95944 ,2.29728 ,22.54088 
173 ,31.7314 ,0.96139 ,2.27332 ,22.30584 
174 ,31.9074 ,0.96315 ,2.26648 ,22.23868 
175 ,32.0836 ,0.96490 ,2.25621 ,22.13794 
176 ,32.2593 ,0.96669 ,2.24594 ,22.03721 
177 ,32.4358 ,0.96844 ,2.20830 ,21.66785 
178 ,32.6278 ,0.97037 ,2.20488 ,21.63427 
179 ,32.8200 ,0.97218 ,2.18435 ,21.43280 
180 ,32.9961 ,0.97401 ,2.17066 ,21.29849 
181 ,33.1718 ,0.97582 ,2.15012 ,21.09702 
182 ,33.3318 ,0.97750 ,2.16723 ,21.26491 
183 ,33.5084 ,0.97917 ,2.13301 ,20.92912 
184 ,33.6840 ,0.98092 ,2.12275 ,20.82839 
185 ,33.8603 ,0.98268 ,2.10906 ,20.69408 
186 ,34.0363 ,0.98445 ,2.07826 ,20.39187 
187 ,34.2124 ,0.98615 ,2.06457 ,20.25756 
188 ,34.3882 ,0.98792 ,2.05773 ,20.19040 
189 ,34.5645 ,0.98971 ,2.06115 ,20.22398 
190 ,34.7406 ,0.99156 ,2.01666 ,19.78746 
191 ,34.9168 ,0.99324 ,2.00639 ,19.68673 
192 ,35.1090 ,0.99516 ,2.00297 ,19.65315 
193 ,35.3010 ,0.99703 ,1.99270 ,19.55241 
194 ,35.4765 ,0.99882 ,1.96875 ,19.31737 
195 ,35.6530 ,1.00055 ,1.94137 ,19.04874 
196 ,35.8290 ,1.00238 ,1.94479 ,19.08232 
197 ,36.0050 ,1.00408 ,1.94137 ,19.04874 
198 ,36.1809 ,1.00590 ,1.93795 ,19.01516 
199 ,36.3732 ,1.00777 ,1.89004 ,18.54507 
200 ,36.5490 ,1.00956 ,1.87293 ,18.37717 
201 ,36.7254 ,1.01131 ,1.87293 ,18.37717 
202 ,36.9177 ,1.01321 ,1.84897 ,18.14213 
203 ,37.0936 ,1.01498 ,1.83186 ,17.97423 
204 ,37.2856 ,1.01691 ,1.84213 ,18.07497 
205 ,37.4618 ,1.01866 ,1.82160 ,17.87350 
206 ,37.6378 ,1.02042 ,1.79080 ,17.57129 
207 ,37.8300 ,1.02223 ,1.77711 ,17.43698 
208 ,38.0220 ,1.02422 ,1.77711 ,17.43698 
209 ,38.2139 ,1.02618 ,1.74973 ,17.16836 
210 ,38.3902 ,1.02794 ,1.73946 ,17.06762 
211 ,38.5662 ,1.02972 ,1.73604 ,17.03404 
212 ,38.7422 ,1.03148 ,1.72235 ,16.89973 
213 ,38.9503 ,1.03341 ,1.70182 ,16.69826 
214 ,39.1263 ,1.03526 ,1.69498 ,16.63110 
215 ,39.3025 ,1.03704 ,1.67102 ,16.39605 
216 ,39.4783 ,1.03883 ,1.65049 ,16.19458 
217 ,39.6545 ,1.04059 ,1.62653 ,15.95954 
218 ,39.8465 ,1.04249 ,1.64022 ,16.09385 
219 ,40.0388 ,1.04440 ,1.59916 ,15.69091 
220 ,40.2153 ,1.04622 ,1.59231 ,15.62375 
221 ,40.4069 ,1.04803 ,1.59916 ,15.69091 
222 ,40.5830 ,1.04989 ,1.59231 ,15.62375 
223 ,40.7588 ,1.05166 ,1.55809 ,15.28797 
224 ,40.9351 ,1.05338 ,1.53413 ,15.05292 
225 ,41.1273 ,1.05530 ,1.53756 ,15.08650 
226 ,41.3192 ,1.05721 ,1.51018 ,14.81787 
227 ,41.4954 ,1.05902 ,1.51702 ,14.88503 
228 ,41.6714 ,1.06075 ,1.50333 ,14.75072 
229 ,41.8470 ,1.06265 ,1.49307 ,14.64998 
230 ,42.0236 ,1.06428 ,1.48280 ,14.54925 
231 ,42.2317 ,1.06630 ,1.45200 ,14.24704 
232 ,42.4237 ,1.06818 ,1.43831 ,14.11273 
233 ,42.5997 ,1.07001 ,1.41778 ,13.91126 
234 ,42.7919 ,1.07186 ,1.40067 ,13.74337 
235 ,42.9678 ,1.07381 ,1.40751 ,13.81053 
236 ,43.1441 ,1.07550 ,1.40751 ,13.81053 
237 ,43.3522 ,1.07744 ,1.35618 ,13.30685 
238 ,43.5441 ,1.07951 ,1.37671 ,13.50832 
239 ,43.7203 ,1.08124 ,1.33565 ,13.10538 
240 ,43.8802 ,1.08296 ,1.32196 ,12.97107 
241 ,44.0403 ,1.08454 ,1.30485 ,12.80318 
242 ,44.2325 ,1.08629 ,1.30485 ,12.80318 
243 ,44.4086 ,1.08809 ,1.29800 ,12.73602 
244 ,44.5847 ,1.08989 ,1.28432 ,12.60171 
245 ,44.7607 ,1.09164 ,1.27747 ,12.53455 
246 ,44.9528 ,1.09353 ,1.25352 ,12.29950 
247 ,45.1450 ,1.09543 ,1.24667 ,12.23235 
248 ,45.3370 ,1.09742 ,1.22272 ,11.99730 
249 ,45.5291 ,1.09935 ,1.21929 ,11.96372 
250 ,45.7211 ,1.10123 ,1.20218 ,11.79583 
251 ,45.9133 ,1.10320 ,1.17823 ,11.56078 
252 ,46.1051 ,1.10508 ,1.16796 ,11.46004 
253 ,46.2814 ,1.10682 ,1.15427 ,11.32573 
254 ,46.4735 ,1.10875 ,1.13374 ,11.12426 
255 ,46.6495 ,1.11056 ,1.13374 ,11.12426 
256 ,46.8253 ,1.11222 ,1.13032 ,11.09068 
257 ,47.0176 ,1.11407 ,1.10636 ,10.85563 
258 ,47.1776 ,1.11589 ,1.08241 ,10.62059 
259 ,47.3538 ,1.11752 ,1.07214 ,10.51985 
260 ,47.5459 ,1.11946 ,1.06872 ,10.48627 
261 ,47.7220 ,1.12122 ,1.04476 ,10.25123 
262 ,47.9141 ,1.12316 ,1.04134 ,10.21765 
263 ,48.0901 ,1.12494 ,1.03450 ,10.15049 
264 ,48.2821 ,1.12679 ,1.02081 ,10.01618 
265 ,48.4583 ,1.12856 ,0.99001 ,9.71397 
266 ,48.6344 ,1.13036 ,0.97632 ,9.57966 
267 ,48.8264 ,1.13221 ,0.97290 ,9.54608 
268 ,49.0185 ,1.13421 ,0.95579 ,9.37819 
269 ,49.1944 ,1.13595 ,0.93868 ,9.21030 
270 ,49.3867 ,1.13783 ,0.94894 ,9.31103 
271 ,49.5946 ,1.13985 ,0.92499 ,9.07598 
272 ,49.7708 ,1.14170 ,0.91814 ,9.00883 
273 ,49.9630 ,1.14358 ,0.90446 ,8.87451 
274 ,50.1390 ,1.14542 ,0.89419 ,8.77378 
275 ,50.3149 ,1.14713 ,0.87023 ,8.53873 
276 ,50.5071 ,1.14899 ,0.87023 ,8.53873 
277 ,50.6992 ,1.15100 ,0.85997 ,8.43800 
278 ,50.8750 ,1.15272 ,0.83601 ,8.20295 
279 ,51.0511 ,1.15452 ,0.82917 ,8.13579 
280 ,51.2273 ,1.15628 ,0.82917 ,8.13579 
281 ,51.4033 ,1.15807 ,0.81548 ,8.00148 
282 ,51.5954 ,1.15988 ,0.78126 ,7.66570 
283 ,51.7717 ,1.16170 ,0.78126 ,7.66570 
284 ,51.9637 ,1.16364 ,0.76757 ,7.53138 
285 ,52.1397 ,1.16540 ,0.75388 ,7.39707 
286 ,52.3157 ,1.16712 ,0.73335 ,7.19560 
287 ,52.4918 ,1.16890 ,0.71966 ,7.06129 
288 ,52.6679 ,1.17065 ,0.72650 ,7.12844 
289 ,52.8439 ,1.17243 ,0.70255 ,6.89340 
290 ,53.0200 ,1.17418 ,0.68544 ,6.72550 
291 ,53.1962 ,1.17594 ,0.67175 ,6.59119 
292 ,53.3883 ,1.17788 ,0.67175 ,6.59119 
293 ,53.5804 ,1.17976 ,0.65121 ,6.38972 
294 ,53.7562 ,1.18160 ,0.64095 ,6.28899 
295 ,53.9324 ,1.18332 ,0.62042 ,6.08752 
296 ,54.1243 ,1.18514 ,0.62384 ,6.12109 
297 ,54.3007 ,1.18700 ,0.61699 ,6.05394 
298 ,54.5085 ,1.18903 ,0.59646 ,5.85247 
299 ,54.6848 ,1.19084 ,0.59304 ,5.81889 
300 ,54.8608 ,1.19259 ,0.58277 ,5.71815 
301 ,55.0370 ,1.19432 ,0.55197 ,5.41595 
302 ,55.2129 ,1.19614 ,0.54855 ,5.38237 
303 ,55.3887 ,1.19786 ,0.54171 ,5.31522 
304 ,55.5648 ,1.19964 ,0.53828 ,5.28164 
305 ,55.7568 ,1.20148 ,0.52117 ,5.11375 
306 ,55.9332 ,1.20330 ,0.48353 ,4.74438 
307 ,56.1252 ,1.20525 ,0.49722 ,4.87870 
308 ,56.3173 ,1.20712 ,0.47326 ,4.64365 
309 ,56.4936 ,1.20893 ,0.44931 ,4.40860 
310 ,56.6855 ,1.21079 ,0.47668 ,4.67723 
311 ,56.8618 ,1.21261 ,0.44931 ,4.40860 
312 ,57.0377 ,1.21439 ,0.42877 ,4.20713 
313 ,57.2139 ,1.21611 ,0.41851 ,4.10640 
314 ,57.4060 ,1.21806 ,0.41166 ,4.03924 
315 ,57.5976 ,1.21993 ,0.38429 ,3.77061 
316 ,57.7577 ,1.22164 ,0.37060 ,3.63630 
317 ,57.9178 ,1.22328 ,0.35349 ,3.46841 
318 ,58.0943 ,1.22492 ,0.35006 ,3.43483 
319 ,58.2861 ,1.22680 ,0.36033 ,3.53557 
320 ,58.4624 ,1.22863 ,0.35006 ,3.43483 
321 ,58.6543 ,1.23048 ,0.31242 ,3.06547 
322 ,58.8305 ,1.23225 ,0.31242 ,3.06547 
323 ,59.0225 ,1.23419 ,0.30558 ,2.99831 
324 ,59.2146 ,1.23614 ,0.28504 ,2.79684 
325 ,59.4068 ,1.23795 ,0.26451 ,2.59537 
326 ,59.5826 ,1.23980 ,0.28504 ,2.79684 
327 ,59.7588 ,1.24156 ,0.26793 ,2.62895 
328 ,59.9510 ,1.24346 ,0.23713 ,2.32675 
329 ,60.1429 ,1.24541 ,0.24740 ,2.42748 
330 ,60.3191 ,1.24717 ,0.23713 ,2.32675 
331 ,60.5272 ,1.24914 ,0.22002 ,2.15885 
332 ,60.7031 ,1.25101 ,0.20976 ,2.05812 
333 ,60.8793 ,1.25289 ,0.18922 ,1.85665 
334 ,61.0553 ,1.25449 ,0.16869 ,1.65518 
335 ,61.2315 ,1.25628 ,0.15842 ,1.55445 
336 ,61.4076 ,1.25809 ,0.14473 ,1.42013 
337 ,61.5996 ,1.25994 ,0.14816 ,1.45371 
338 ,61.7917 ,1.26182 ,0.14131 ,1.38655 
339 ,61.9678 ,1.26363 ,0.12420 ,1.21866 
340 ,62.1759 ,1.26565 ,0.10025 ,0.98361 
341 ,62.3519 ,1.26751 ,0.09340 ,0.91646 
342 ,62.5281 ,1.26923 ,0.07629 ,0.74857 
343 ,62.7200 ,1.27105 ,0.08998 ,0.88288 
344 ,62.9120 ,1.27296 ,0.06260 ,0.61425 
345 ,63.1043 ,1.27498 ,0.06260 ,0.61425 
346 ,63.2962 ,1.27692 ,0.04549 ,0.44636 
347 ,63.4719 ,1.27866 ,0.02154 ,0.21131 
348 ,63.6481 ,1.28039 ,0.01811 ,0.17773 
349 ,63.8242 ,1.28221 ,0.00785 ,0.07700 
350 ,64.0163 ,1.28422 ,-0.01611 ,-0.15805 
351 ,64.1925 ,1.28591 ,-0.01611 ,-0.15805 
352 ,64.3689 ,1.28762 ,-0.03322 ,-0.32594 
353 ,64.5447 ,1.28944 ,-0.02980 ,-0.29236 
354 ,64.7210 ,1.29116 ,-0.03322 ,-0.32594 
355 ,64.9129 ,1.29298 ,-0.04691 ,-0.46025 
356 ,65.0891 ,1.29479 ,-0.07428 ,-0.72888 
357 ,65.2652 ,1.29658 ,-0.07086 ,-0.69530 
358 ,65.4413 ,1.29835 ,-0.07428 ,-0.72888 
359 ,65.6173 ,1.30013 ,-0.08455 ,-0.82961 
360 ,65.7931 ,1.30185 ,-0.11535 ,-1.13182 
361 ,65.9695 ,1.30365 ,-0.11535 ,-1.13182 
362 ,66.1455 ,1.30539 ,-0.13246 ,-1.29971 
363 ,66.3212 ,1.30719 ,-0.14957 ,-1.46760 
364 ,66.4975 ,1.30890 ,-0.14957 ,-1.46760 
365 ,66.6738 ,1.31069 ,-0.15984 ,-1.56834 
366 ,66.8658 ,1.31256 ,-0.15642 ,-1.53476 
367 ,67.0419 ,1.31437 ,-0.17011 ,-1.66907 
368 ,67.2019 ,1.31607 ,-0.17695 ,-1.73623 
369 ,67.3781 ,1.31766 ,-0.19748 ,-1.93770 
370 ,67.5542 ,1.31950 ,-0.21802 ,-2.13917 
371 ,67.7302 ,1.32127 ,-0.21459 ,-2.10559 
372 ,67.9223 ,1.32317 ,-0.22144 ,-2.17275 
373 ,68.0982 ,1.32493 ,-0.22144 ,-2.17275 
374 ,68.2745 ,1.32673 ,-0.24881 ,-2.44137 
375 ,68.4825 ,1.32864 ,-0.26593 ,-2.60926 
376 ,68.6584 ,1.33052 ,-0.25908 ,-2.54211 
377 ,68.8348 ,1.33231 ,-0.26593 ,-2.60926 
378 ,69.0588 ,1.33438 ,-0.26935 ,-2.64284 
379 ,69.2345 ,1.33629 ,-0.28646 ,-2.81073 
380 ,69.4109 ,1.33807 ,-0.31041 ,-3.04578 
381 ,69.6029 ,1.33993 ,-0.30699 ,-3.01220 
382 ,69.7950 ,1.34172 ,-0.31384 ,-3.07936 
383 ,69.9707 ,1.34362 ,-0.34464 ,-3.38156 
384 ,70.1470 ,1.34538 ,-0.34806 ,-3.41514 
385 ,70.3389 ,1.34725 ,-0.34121 ,-3.34799 
386 ,70.5155 ,1.34906 ,-0.35832 ,-3.51588 
387 ,70.6914 ,1.35083 ,-0.37201 ,-3.65019 
388 ,70.8675 ,1.35258 ,-0.38912 ,-3.81808 
389 ,71.0435 ,1.35435 ,-0.37201 ,-3.65019 
390 ,71.2517 ,1.35643 ,-0.40623 ,-3.98597 
391 ,71.4435 ,1.35834 ,-0.40623 ,-3.98597 
392 ,71.6201 ,1.36012 ,-0.39597 ,-3.88524 
393 ,71.8119 ,1.36200 ,-0.43361 ,-4.25460 
394 ,71.9880 ,1.36379 ,-0.43703 ,-4.28818 
395 ,72.1958 ,1.36583 ,-0.43703 ,-4.28818 
396 ,72.3720 ,1.36762 ,-0.44730 ,-4.38891 
397 ,72.5482 ,1.36937 ,-0.46783 ,-4.59038 
398 ,72.7242 ,1.37120 ,-0.47126 ,-4.62396 
399 ,72.9004 ,1.37294 ,-0.48152 ,-4.72470 
400 ,73.0764 ,1.37468 ,-0.47468 ,-4.65754 
401 ,73.2685 ,1.37662 ,-0.50548 ,-4.95975 
402 ,73.4445 ,1.37837 ,-0.50548 ,-4.95975 
403 ,73.6366 ,1.38028 ,-0.48837 ,-4.79185 
404 ,73.8285 ,1.38219 ,-0.53285 ,-5.22837 
405 ,74.0048 ,1.38399 ,-0.53285 ,-5.22837 
406 ,74.1967 ,1.38584 ,-0.51574 ,-5.06048 
407 ,74.3729 ,1.38765 ,-0.54312 ,-5.32911 
408 ,74.5805 ,1.38955 ,-0.56365 ,-5.53058 
409 ,74.7571 ,1.39144 ,-0.55681 ,-5.46342 
410 ,74.9331 ,1.39326 ,-0.57050 ,-5.59773 
411 ,75.1091 ,1.39500 ,-0.58419 ,-5.73205 
412 ,75.3013 ,1.39691 ,-0.58419 ,-5.73205 
413 ,75.4773 ,1.39866 ,-0.59445 ,-5.83278 
414 ,75.6693 ,1.40057 ,-0.61156 ,-6.00067 
415 ,75.8455 ,1.40231 ,-0.61841 ,-6.06783 
416 ,76.0376 ,1.40418 ,-0.62868 ,-6.16856 
417 ,76.2137 ,1.40606 ,-0.63552 ,-6.23572 
418 ,76.3897 ,1.40781 ,-0.64921 ,-6.37003 
419 ,76.5979 ,1.40972 ,-0.64236 ,-6.30288 
420 ,76.7738 ,1.41163 ,-0.64921 ,-6.37003 
421 ,76.9658 ,1.41346 ,-0.67316 ,-6.60508 
422 ,77.1420 ,1.41532 ,-0.68343 ,-6.70582 
423 ,77.3338 ,1.41720 ,-0.68343 ,-6.70582 
424 ,77.5101 ,1.41899 ,-0.70396 ,-6.90729 
425 ,77.6701 ,1.42069 ,-0.70739 ,-6.94086 
426 ,77.8302 ,1.42233 ,-0.72107 ,-7.07518 
427 ,78.0063 ,1.42393 ,-0.72107 ,-7.07518 
428 ,78.1979 ,1.42591 ,-0.71081 ,-6.97444 
429 ,78.3906 ,1.42766 ,-0.73134 ,-7.17591 
430 ,78.5825 ,1.42972 ,-0.74161 ,-7.27665 
431 ,78.7585 ,1.43147 ,-0.74161 ,-7.27665 
432 ,78.9347 ,1.43324 ,-0.75530 ,-7.41096 
433 ,79.1265 ,1.43515 ,-0.77241 ,-7.57885 
434 ,79.3029 ,1.43692 ,-0.78610 ,-7.71317 
435 ,79.4789 ,1.43868 ,-0.77241 ,-7.57885 
436 ,79.6550 ,1.44043 ,-0.78952 ,-7.74674 
437 ,79.8791 ,1.44251 ,-0.80663 ,-7.91464 
438 ,80.0551 ,1.44441 ,-0.79978 ,-7.84748 
439 ,80.2473 ,1.44632 ,-0.82716 ,-8.11611 
440 ,80.4233 ,1.44811 ,-0.83058 ,-8.14968 
441 ,80.5995 ,1.44990 ,-0.83058 ,-8.14968 
442 ,80.7753 ,1.45164 ,-0.83058 ,-8.14968 
443 ,80.9515 ,1.45355 ,-0.86481 ,-8.48547 
444 ,81.1275 ,1.45515 ,-0.85796 ,-8.41831 
445 ,81.3037 ,1.45690 ,-0.87507 ,-8.58620 
446 ,81.4798 ,1.45865 ,-0.87165 ,-8.55262 
447 ,81.6560 ,1.46046 ,-0.87507 ,-8.58620 
448 ,81.8320 ,1.46222 ,-0.88192 ,-8.65336 
449 ,82.0240 ,1.46406 ,-0.89903 ,-8.82125 
450 ,82.2160 ,1.46602 ,-0.89903 ,-8.82125 
451 ,82.3921 ,1.46782 ,-0.90587 ,-8.88841 
452 ,82.5843 ,1.46971 ,-0.91956 ,-9.02272 
453 ,82.7603 ,1.47153 ,-0.94009 ,-9.22419 
454 ,82.9363 ,1.47334 ,-0.92298 ,-9.05630 
455 ,83.1128 ,1.47503 ,-0.92983 ,-9.12345 
456 ,83.3045 ,1.47696 ,-0.96405 ,-9.45924 
457 ,83.4802 ,1.47865 ,-0.97089 ,-9.52639 
458 ,83.6726 ,1.48056 ,-0.96405 ,-9.45924 
459 ,83.8486 ,1.48238 ,-0.97774 ,-9.59355 
460 ,84.0406 ,1.48426 ,-0.98800 ,-9.69429 
461 ,84.2170 ,1.48602 ,-0.98458 ,-9.66071 
462 ,84.3926 ,1.48779 ,-0.98116 ,-9.62713 
