Data stamp = , 04-04-2022 09:40:35 011

Calibration Values: 
Slope = , 26.54 , g/V 
Offset Voltage at no contact = , -0.501760 , V 

No , Time , Stage Position ,   Mass , Force 
   ,  (s) ,      (mm)      ,   (g)  , (mN)  

1 ,0.0000 ,0.59946 ,5.09319 ,49.97436 
2 ,0.2248 ,0.59954 ,5.11372 ,50.17583 
3 ,0.4487 ,0.60016 ,5.12056 ,50.24298 
4 ,0.6251 ,0.60118 ,5.10345 ,50.07509 
5 ,0.8329 ,0.60254 ,5.10688 ,50.10867 
6 ,1.0092 ,0.60432 ,5.08292 ,49.87362 
7 ,1.1692 ,0.60598 ,5.10345 ,50.07509 
8 ,1.3772 ,0.60782 ,5.11372 ,50.17583 
9 ,1.5374 ,0.60971 ,5.08977 ,49.94078 
10 ,1.7136 ,0.61139 ,5.08634 ,49.90720 
11 ,1.8896 ,0.61322 ,5.06923 ,49.73931 
12 ,2.0816 ,0.61503 ,5.05897 ,49.63857 
13 ,2.2577 ,0.61690 ,5.04870 ,49.53784 
14 ,2.4498 ,0.61878 ,5.03159 ,49.36995 
15 ,2.6258 ,0.62051 ,5.01106 ,49.16848 
16 ,2.8339 ,0.62255 ,4.99394 ,49.00058 
17 ,3.0259 ,0.62442 ,4.98026 ,48.86627 
18 ,3.2177 ,0.62643 ,4.96657 ,48.73196 
19 ,3.3941 ,0.62816 ,4.96657 ,48.73196 
20 ,3.6023 ,0.63013 ,4.92892 ,48.36260 
21 ,3.7943 ,0.63211 ,4.92208 ,48.29544 
22 ,3.9864 ,0.63408 ,4.90497 ,48.12755 
23 ,4.1785 ,0.63599 ,4.88101 ,47.89250 
24 ,4.3385 ,0.63774 ,4.87759 ,47.85892 
25 ,4.5145 ,0.63937 ,4.88101 ,47.89250 
26 ,4.6908 ,0.64115 ,4.84337 ,47.52314 
27 ,4.8828 ,0.64304 ,4.81599 ,47.25451 
28 ,5.0591 ,0.64485 ,4.80573 ,47.15378 
29 ,5.2352 ,0.64657 ,4.80573 ,47.15378 
30 ,5.4270 ,0.64844 ,4.78519 ,46.95231 
31 ,5.6191 ,0.65045 ,4.75439 ,46.65010 
32 ,5.7952 ,0.65224 ,4.73728 ,46.48221 
33 ,5.9713 ,0.65395 ,4.73044 ,46.41506 
34 ,6.1474 ,0.65570 ,4.70990 ,46.21359 
35 ,6.3395 ,0.65763 ,4.68595 ,45.97854 
36 ,6.5316 ,0.65950 ,4.69279 ,46.04569 
37 ,6.7235 ,0.66145 ,4.66542 ,45.77707 
38 ,6.9157 ,0.66336 ,4.64146 ,45.54202 
39 ,7.0918 ,0.66511 ,4.64831 ,45.60918 
40 ,7.2681 ,0.66689 ,4.62777 ,45.40771 
41 ,7.4434 ,0.66877 ,4.58328 ,44.97119 
42 ,7.6198 ,0.67042 ,4.56960 ,44.83688 
43 ,7.7960 ,0.67214 ,4.56275 ,44.76972 
44 ,8.0040 ,0.67419 ,4.53537 ,44.50109 
45 ,8.2281 ,0.67635 ,4.52853 ,44.43394 
46 ,8.4203 ,0.67829 ,4.50800 ,44.23247 
47 ,8.6124 ,0.68029 ,4.50457 ,44.19889 
48 ,8.8204 ,0.68237 ,4.47378 ,43.89668 
49 ,8.9966 ,0.68416 ,4.47035 ,43.86310 
50 ,9.1723 ,0.68593 ,4.44298 ,43.59448 
51 ,9.3486 ,0.68770 ,4.44640 ,43.62806 
52 ,9.5245 ,0.68945 ,4.41902 ,43.35943 
53 ,9.7006 ,0.69120 ,4.40875 ,43.25870 
54 ,9.9086 ,0.69329 ,4.39849 ,43.15796 
55 ,10.0849 ,0.69501 ,4.37111 ,42.88933 
56 ,10.2769 ,0.69699 ,4.34373 ,42.62071 
57 ,10.4369 ,0.69869 ,4.32320 ,42.41924 
58 ,10.6128 ,0.70034 ,4.32662 ,42.45282 
59 ,10.7891 ,0.70209 ,4.30951 ,42.28492 
60 ,10.9653 ,0.70387 ,4.29240 ,42.11703 
61 ,11.1411 ,0.70565 ,4.28556 ,42.04988 
62 ,11.3335 ,0.70748 ,4.25133 ,41.71409 
63 ,11.5415 ,0.70948 ,4.23765 ,41.57978 
64 ,11.7175 ,0.71135 ,4.22738 ,41.47905 
65 ,11.8938 ,0.71314 ,4.20685 ,41.27758 
66 ,12.0698 ,0.71495 ,4.20342 ,41.24400 
67 ,12.2618 ,0.71680 ,4.17947 ,41.00895 
68 ,12.4380 ,0.71862 ,4.15209 ,40.74032 
69 ,12.6458 ,0.72064 ,4.14183 ,40.63959 
70 ,12.8380 ,0.72264 ,4.11445 ,40.37096 
71 ,13.0141 ,0.72433 ,4.10076 ,40.23665 
72 ,13.1902 ,0.72615 ,4.09391 ,40.16949 
73 ,13.3661 ,0.72786 ,4.08365 ,40.06876 
74 ,13.5424 ,0.72959 ,4.05627 ,39.80013 
75 ,13.7346 ,0.73146 ,4.02889 ,39.53150 
76 ,13.9105 ,0.73325 ,4.01178 ,39.36361 
77 ,14.0866 ,0.73507 ,4.02547 ,39.49793 
78 ,14.2627 ,0.73678 ,3.99467 ,39.19572 
79 ,14.4868 ,0.73894 ,3.99125 ,39.16214 
80 ,14.6629 ,0.74079 ,3.95703 ,38.82636 
81 ,14.8387 ,0.74258 ,3.92623 ,38.52415 
82 ,15.0310 ,0.74446 ,3.90570 ,38.32268 
83 ,15.2071 ,0.74625 ,3.90570 ,38.32268 
84 ,15.3831 ,0.74806 ,3.89885 ,38.25553 
85 ,15.5750 ,0.74997 ,3.85779 ,37.85259 
86 ,15.7511 ,0.75176 ,3.83725 ,37.65112 
87 ,15.9270 ,0.75345 ,3.83725 ,37.65112 
88 ,16.1033 ,0.75526 ,3.83041 ,37.58396 
89 ,16.3115 ,0.75719 ,3.78934 ,37.18102 
90 ,16.4874 ,0.75907 ,3.78250 ,37.11387 
91 ,16.6637 ,0.76086 ,3.77565 ,37.04671 
92 ,16.8557 ,0.76268 ,3.74828 ,36.77808 
93 ,17.0313 ,0.76450 ,3.73117 ,36.61019 
94 ,17.2079 ,0.76622 ,3.71748 ,36.47588 
95 ,17.3839 ,0.76800 ,3.73459 ,36.64377 
96 ,17.5757 ,0.76997 ,3.68668 ,36.17367 
97 ,17.7519 ,0.77167 ,3.66614 ,35.97220 
98 ,17.9280 ,0.77345 ,3.65588 ,35.87147 
99 ,18.1040 ,0.77517 ,3.64561 ,35.77073 
100 ,18.2804 ,0.77699 ,3.63534 ,35.67000 
101 ,18.4723 ,0.77886 ,3.60797 ,35.40137 
102 ,18.6486 ,0.78067 ,3.59428 ,35.26706 
103 ,18.8404 ,0.78258 ,3.59428 ,35.26706 
104 ,19.0163 ,0.78434 ,3.58059 ,35.13275 
105 ,19.1926 ,0.78607 ,3.54979 ,34.83054 
106 ,19.3687 ,0.78791 ,3.51899 ,34.52834 
107 ,19.5448 ,0.78960 ,3.51557 ,34.49476 
108 ,19.7210 ,0.79138 ,3.51557 ,34.49476 
109 ,19.8969 ,0.79313 ,3.51215 ,34.46118 
110 ,20.0731 ,0.79489 ,3.47792 ,34.12540 
111 ,20.2491 ,0.79664 ,3.45055 ,33.85677 
112 ,20.4576 ,0.79865 ,3.46081 ,33.95751 
113 ,20.6331 ,0.80048 ,3.41975 ,33.55457 
114 ,20.8092 ,0.80225 ,3.41290 ,33.48741 
115 ,20.9854 ,0.80403 ,3.39921 ,33.35310 
116 ,21.1615 ,0.80578 ,3.38895 ,33.25236 
117 ,21.3216 ,0.80747 ,3.38553 ,33.21878 
118 ,21.4976 ,0.80913 ,3.37868 ,33.15163 
119 ,21.6738 ,0.81094 ,3.33419 ,32.71511 
120 ,21.8498 ,0.81267 ,3.32051 ,32.58080 
121 ,22.0260 ,0.81439 ,3.31708 ,32.54722 
122 ,22.2020 ,0.81617 ,3.31024 ,32.48006 
123 ,22.3940 ,0.81807 ,3.27602 ,32.14428 
124 ,22.5702 ,0.81986 ,3.26233 ,32.00996 
125 ,22.7620 ,0.82176 ,3.26917 ,32.07712 
126 ,22.9383 ,0.82356 ,3.25206 ,31.90923 
127 ,23.1460 ,0.82552 ,3.22126 ,31.60702 
128 ,23.3221 ,0.82735 ,3.21100 ,31.50629 
129 ,23.5144 ,0.82923 ,3.20073 ,31.40555 
130 ,23.7225 ,0.83133 ,3.18020 ,31.20409 
131 ,23.8987 ,0.83314 ,3.17677 ,31.17051 
132 ,24.0906 ,0.83509 ,3.13571 ,30.76757 
133 ,24.2669 ,0.83680 ,3.12202 ,30.63325 
134 ,24.4424 ,0.83869 ,3.12886 ,30.70041 
135 ,24.6187 ,0.84032 ,3.10491 ,30.46536 
136 ,24.7945 ,0.84206 ,3.09806 ,30.39821 
137 ,24.9546 ,0.84385 ,3.08095 ,30.23031 
138 ,25.1307 ,0.84547 ,3.07069 ,30.12958 
139 ,25.2908 ,0.84716 ,3.04331 ,29.86095 
140 ,25.4510 ,0.84876 ,3.02620 ,29.69306 
141 ,25.6433 ,0.85050 ,3.02962 ,29.72664 
142 ,25.8195 ,0.85236 ,3.01593 ,29.59233 
143 ,25.9955 ,0.85414 ,2.98855 ,29.32370 
144 ,26.1715 ,0.85585 ,2.97487 ,29.18939 
145 ,26.3638 ,0.85776 ,2.95433 ,28.98792 
146 ,26.5554 ,0.85959 ,2.94064 ,28.85360 
147 ,26.7478 ,0.86152 ,2.93038 ,28.75287 
148 ,26.9398 ,0.86350 ,2.92696 ,28.71929 
149 ,27.1159 ,0.86534 ,2.89958 ,28.45066 
150 ,27.3079 ,0.86726 ,2.88931 ,28.34993 
151 ,27.4843 ,0.86901 ,2.84482 ,27.91341 
152 ,27.6761 ,0.87083 ,2.85167 ,27.98057 
153 ,27.8684 ,0.87281 ,2.82771 ,27.74552 
154 ,28.0444 ,0.87461 ,2.80376 ,27.51047 
155 ,28.2526 ,0.87656 ,2.81402 ,27.61121 
156 ,28.4447 ,0.87857 ,2.77296 ,27.20827 
157 ,28.6366 ,0.88054 ,2.76954 ,27.17469 
158 ,28.8288 ,0.88245 ,2.75927 ,27.07395 
159 ,29.0208 ,0.88433 ,2.73874 ,26.87248 
160 ,29.1969 ,0.88605 ,2.72505 ,26.73817 
161 ,29.3890 ,0.88802 ,2.70794 ,26.57028 
162 ,29.5648 ,0.88974 ,2.67372 ,26.23450 
163 ,29.7409 ,0.89154 ,2.67029 ,26.20092 
164 ,29.9493 ,0.89351 ,2.67029 ,26.20092 
165 ,30.1253 ,0.89538 ,2.63949 ,25.89871 
166 ,30.3173 ,0.89732 ,2.62923 ,25.79798 
167 ,30.4934 ,0.89906 ,2.62238 ,25.73082 
168 ,30.6855 ,0.90094 ,2.59158 ,25.42862 
169 ,30.8615 ,0.90275 ,2.57447 ,25.26073 
170 ,31.0376 ,0.90449 ,2.56421 ,25.15999 
171 ,31.2293 ,0.90635 ,2.55736 ,25.09283 
172 ,31.4217 ,0.90823 ,2.53683 ,24.89136 
173 ,31.6139 ,0.91026 ,2.53683 ,24.89136 
174 ,31.8060 ,0.91217 ,2.50945 ,24.62274 
175 ,32.0141 ,0.91411 ,2.49234 ,24.45485 
176 ,32.2061 ,0.91621 ,2.49234 ,24.45485 
177 ,32.3981 ,0.91807 ,2.45470 ,24.08549 
178 ,32.5743 ,0.91983 ,2.44785 ,24.01833 
179 ,32.7665 ,0.92174 ,2.43416 ,23.88402 
180 ,32.9420 ,0.92357 ,2.42732 ,23.81686 
181 ,33.1185 ,0.92529 ,2.40336 ,23.58181 
182 ,33.2945 ,0.92706 ,2.38625 ,23.41392 
183 ,33.4704 ,0.92881 ,2.39310 ,23.48108 
184 ,33.6468 ,0.93062 ,2.36572 ,23.21245 
185 ,33.8229 ,0.93238 ,2.34519 ,23.01098 
186 ,34.0144 ,0.93425 ,2.32808 ,22.84309 
187 ,34.1910 ,0.93601 ,2.31097 ,22.67520 
188 ,34.3831 ,0.93791 ,2.29385 ,22.50731 
189 ,34.5751 ,0.93988 ,2.29043 ,22.47373 
190 ,34.7512 ,0.94160 ,2.28359 ,22.40657 
191 ,34.9433 ,0.94342 ,2.28359 ,22.40657 
192 ,35.1033 ,0.94527 ,2.23910 ,21.97005 
193 ,35.2795 ,0.94689 ,2.21857 ,21.76858 
194 ,35.4556 ,0.94869 ,2.20146 ,21.60069 
195 ,35.6476 ,0.95059 ,2.20488 ,21.63427 
196 ,35.8557 ,0.95257 ,2.18092 ,21.39922 
197 ,36.0637 ,0.95464 ,2.18092 ,21.39922 
198 ,36.2398 ,0.95648 ,2.15012 ,21.09702 
199 ,36.4157 ,0.95828 ,2.12275 ,20.82839 
200 ,36.5916 ,0.95998 ,2.12275 ,20.82839 
201 ,36.7680 ,0.96177 ,2.11248 ,20.72766 
202 ,36.9439 ,0.96349 ,2.11248 ,20.72766 
203 ,37.1362 ,0.96534 ,2.08852 ,20.49261 
204 ,37.3439 ,0.96745 ,2.06799 ,20.29114 
205 ,37.5520 ,0.96961 ,2.03377 ,19.95535 
206 ,37.7282 ,0.97137 ,2.03035 ,19.92178 
207 ,37.9043 ,0.97308 ,2.03035 ,19.92178 
208 ,38.0805 ,0.97489 ,2.01324 ,19.75388 
209 ,38.2561 ,0.97664 ,1.98586 ,19.48526 
210 ,38.4328 ,0.97841 ,1.96190 ,19.25021 
211 ,38.6249 ,0.98037 ,1.96875 ,19.31737 
212 ,38.8008 ,0.98213 ,1.95506 ,19.18305 
213 ,38.9929 ,0.98401 ,1.93111 ,18.94801 
214 ,39.1690 ,0.98580 ,1.90031 ,18.64580 
215 ,39.3448 ,0.98749 ,1.91057 ,18.74654 
216 ,39.5370 ,0.98935 ,1.88662 ,18.51149 
217 ,39.7132 ,0.99124 ,1.86951 ,18.34360 
218 ,39.8893 ,0.99299 ,1.85924 ,18.24286 
219 ,40.0813 ,0.99490 ,1.84897 ,18.14213 
220 ,40.2572 ,0.99666 ,1.83871 ,18.04139 
221 ,40.4333 ,0.99844 ,1.79422 ,17.60487 
222 ,40.6095 ,1.00017 ,1.79764 ,17.63845 
223 ,40.7856 ,1.00194 ,1.79080 ,17.57129 
224 ,40.9774 ,1.00382 ,1.78053 ,17.47056 
225 ,41.1539 ,1.00561 ,1.74631 ,17.13478 
226 ,41.3297 ,1.00745 ,1.74631 ,17.13478 
227 ,41.5058 ,1.00926 ,1.74631 ,17.13478 
228 ,41.6820 ,1.01089 ,1.72235 ,16.89973 
229 ,41.8580 ,1.01268 ,1.71551 ,16.83257 
230 ,42.0341 ,1.01437 ,1.68129 ,16.49679 
231 ,42.2102 ,1.01619 ,1.67102 ,16.39605 
232 ,42.4022 ,1.01806 ,1.67444 ,16.42963 
233 ,42.5944 ,1.02003 ,1.64707 ,16.16101 
234 ,42.7865 ,1.02195 ,1.63338 ,16.02669 
235 ,42.9626 ,1.02370 ,1.62653 ,15.95954 
236 ,43.1545 ,1.02555 ,1.60258 ,15.72449 
237 ,43.3307 ,1.02737 ,1.57862 ,15.48944 
238 ,43.5065 ,1.02917 ,1.56151 ,15.32155 
239 ,43.6827 ,1.03096 ,1.55467 ,15.25439 
240 ,43.8590 ,1.03269 ,1.56151 ,15.32155 
241 ,44.0508 ,1.03459 ,1.52729 ,14.98577 
242 ,44.2269 ,1.03631 ,1.51360 ,14.85145 
243 ,44.4191 ,1.03830 ,1.51702 ,14.88503 
244 ,44.5948 ,1.04001 ,1.48965 ,14.61640 
245 ,44.7712 ,1.04180 ,1.47938 ,14.51567 
246 ,44.9632 ,1.04370 ,1.45885 ,14.31420 
247 ,45.1393 ,1.04540 ,1.45542 ,14.28062 
248 ,45.3153 ,1.04722 ,1.44858 ,14.21346 
249 ,45.4914 ,1.04900 ,1.41778 ,13.91126 
250 ,45.6671 ,1.05075 ,1.40409 ,13.77695 
251 ,45.8435 ,1.05250 ,1.39040 ,13.64263 
252 ,46.0353 ,1.05443 ,1.39725 ,13.70979 
253 ,46.2275 ,1.05628 ,1.35276 ,13.27327 
254 ,46.4038 ,1.05810 ,1.35960 ,13.34043 
255 ,46.5799 ,1.05985 ,1.33907 ,13.13896 
256 ,46.7555 ,1.06161 ,1.34591 ,13.20612 
257 ,46.9321 ,1.06337 ,1.31854 ,12.93749 
258 ,47.1241 ,1.06533 ,1.29116 ,12.66886 
259 ,47.3001 ,1.06703 ,1.28774 ,12.63528 
260 ,47.4763 ,1.06881 ,1.29116 ,12.66886 
261 ,47.6525 ,1.07060 ,1.28089 ,12.56813 
262 ,47.8284 ,1.07234 ,1.25009 ,12.26592 
263 ,48.0044 ,1.07410 ,1.22956 ,12.06445 
264 ,48.1966 ,1.07588 ,1.23298 ,12.09803 
265 ,48.3727 ,1.07780 ,1.22272 ,11.99730 
266 ,48.5647 ,1.07973 ,1.18850 ,11.66151 
267 ,48.7408 ,1.08145 ,1.17823 ,11.56078 
268 ,48.9489 ,1.08345 ,1.15770 ,11.35931 
269 ,49.1410 ,1.08541 ,1.15427 ,11.32573 
270 ,49.3331 ,1.08732 ,1.16796 ,11.46004 
271 ,49.5091 ,1.08916 ,1.14058 ,11.19142 
272 ,49.7173 ,1.09110 ,1.10636 ,10.85563 
273 ,49.9089 ,1.09309 ,1.11321 ,10.92279 
274 ,50.0852 ,1.09495 ,1.09610 ,10.75490 
275 ,50.2774 ,1.09680 ,1.07899 ,10.58701 
276 ,50.4534 ,1.09859 ,1.07556 ,10.55343 
277 ,50.6294 ,1.10035 ,1.04819 ,10.28480 
278 ,50.8056 ,1.10210 ,1.04819 ,10.28480 
279 ,51.0137 ,1.10416 ,1.03108 ,10.11691 
280 ,51.1898 ,1.10595 ,1.02423 ,10.04976 
281 ,51.3658 ,1.10770 ,1.00370 ,9.84829 
282 ,51.5580 ,1.10964 ,0.97974 ,9.61324 
283 ,51.7340 ,1.11139 ,0.97290 ,9.54608 
284 ,51.9099 ,1.11312 ,0.96263 ,9.44535 
285 ,52.0859 ,1.11493 ,0.96605 ,9.47892 
286 ,52.2623 ,1.11669 ,0.93868 ,9.21030 
287 ,52.4543 ,1.11851 ,0.91472 ,8.97525 
288 ,52.6464 ,1.12053 ,0.91130 ,8.94167 
289 ,52.8223 ,1.12225 ,0.90446 ,8.87451 
290 ,53.0145 ,1.12405 ,0.87366 ,8.57231 
291 ,53.1902 ,1.12602 ,0.87708 ,8.60589 
292 ,53.3826 ,1.12787 ,0.84628 ,8.30368 
293 ,53.5905 ,1.12985 ,0.84970 ,8.33726 
294 ,53.7669 ,1.13170 ,0.84970 ,8.33726 
295 ,53.9427 ,1.13347 ,0.83601 ,8.20295 
296 ,54.1188 ,1.13522 ,0.79837 ,7.83359 
297 ,54.2949 ,1.13698 ,0.78810 ,7.73285 
298 ,54.5031 ,1.13901 ,0.78810 ,7.73285 
299 ,54.6791 ,1.14083 ,0.77099 ,7.56496 
300 ,54.8554 ,1.14262 ,0.76072 ,7.46423 
301 ,55.0311 ,1.14433 ,0.75730 ,7.43065 
302 ,55.2072 ,1.14612 ,0.74019 ,7.26276 
303 ,55.3994 ,1.14800 ,0.72308 ,7.09486 
304 ,55.5915 ,1.14994 ,0.70255 ,6.89340 
305 ,55.7677 ,1.15172 ,0.70939 ,6.96055 
306 ,55.9600 ,1.15361 ,0.67517 ,6.62477 
307 ,56.1358 ,1.15540 ,0.66148 ,6.49046 
308 ,56.3274 ,1.15723 ,0.68544 ,6.72550 
309 ,56.5039 ,1.15906 ,0.67175 ,6.59119 
310 ,56.7120 ,1.16110 ,0.63753 ,6.25541 
311 ,56.8881 ,1.16290 ,0.62726 ,6.15467 
312 ,57.0637 ,1.16463 ,0.62042 ,6.08752 
313 ,57.2403 ,1.16645 ,0.59988 ,5.88605 
314 ,57.4321 ,1.16827 ,0.58962 ,5.78531 
315 ,57.6083 ,1.17008 ,0.57593 ,5.65100 
316 ,57.7843 ,1.17186 ,0.57251 ,5.61742 
317 ,58.0085 ,1.17406 ,0.53486 ,5.24806 
318 ,58.2006 ,1.17599 ,0.54171 ,5.31522 
319 ,58.4082 ,1.17806 ,0.52117 ,5.11375 
320 ,58.5844 ,1.17985 ,0.51433 ,5.04659 
321 ,58.7605 ,1.18163 ,0.50064 ,4.91228 
322 ,58.9369 ,1.18338 ,0.49037 ,4.81154 
323 ,59.1289 ,1.18537 ,0.48353 ,4.74438 
324 ,59.3051 ,1.18706 ,0.47326 ,4.64365 
325 ,59.4811 ,1.18884 ,0.46984 ,4.61007 
326 ,59.6573 ,1.19060 ,0.45957 ,4.50934 
327 ,59.8493 ,1.19257 ,0.42877 ,4.20713 
328 ,60.0253 ,1.19425 ,0.42877 ,4.20713 
329 ,60.2014 ,1.19603 ,0.41851 ,4.10640 
330 ,60.3776 ,1.19776 ,0.40140 ,3.93850 
331 ,60.5692 ,1.19969 ,0.38086 ,3.73703 
332 ,60.7457 ,1.20146 ,0.37060 ,3.63630 
333 ,60.9377 ,1.20337 ,0.37744 ,3.70346 
334 ,61.1139 ,1.20512 ,0.35691 ,3.50199 
335 ,61.3059 ,1.20706 ,0.34322 ,3.36767 
336 ,61.4818 ,1.20884 ,0.33980 ,3.33410 
337 ,61.6577 ,1.21059 ,0.32953 ,3.23336 
338 ,61.8341 ,1.21234 ,0.30900 ,3.03189 
339 ,62.0101 ,1.21406 ,0.29189 ,2.86400 
340 ,62.1863 ,1.21583 ,0.29189 ,2.86400 
341 ,62.3621 ,1.21766 ,0.28847 ,2.83042 
342 ,62.5384 ,1.21933 ,0.27135 ,2.66253 
343 ,62.7141 ,1.22118 ,0.26451 ,2.59537 
344 ,62.8906 ,1.22292 ,0.24740 ,2.42748 
345 ,63.0826 ,1.22483 ,0.24055 ,2.36032 
346 ,63.2589 ,1.22661 ,0.24055 ,2.36032 
347 ,63.4348 ,1.22837 ,0.23029 ,2.25959 
348 ,63.6268 ,1.23028 ,0.20291 ,1.99096 
349 ,63.8026 ,1.23198 ,0.19264 ,1.89023 
350 ,63.9790 ,1.23382 ,0.18238 ,1.78949 
351 ,64.1711 ,1.23570 ,0.17211 ,1.68876 
352 ,64.3469 ,1.23749 ,0.16185 ,1.58802 
353 ,64.5228 ,1.23916 ,0.15158 ,1.48729 
354 ,64.6992 ,1.24098 ,0.14131 ,1.38655 
355 ,64.8908 ,1.24287 ,0.14131 ,1.38655 
356 ,65.0674 ,1.24468 ,0.10025 ,0.98361 
357 ,65.2595 ,1.24659 ,0.11393 ,1.11793 
358 ,65.4516 ,1.24838 ,0.10367 ,1.01719 
359 ,65.6596 ,1.25052 ,0.09340 ,0.91646 
360 ,65.8519 ,1.25243 ,0.09682 ,0.95004 
361 ,66.0277 ,1.25423 ,0.05576 ,0.54710 
362 ,66.2039 ,1.25605 ,0.04207 ,0.41278 
363 ,66.3960 ,1.25790 ,0.05576 ,0.54710 
364 ,66.5721 ,1.25969 ,0.04891 ,0.47994 
365 ,66.7802 ,1.26162 ,0.02838 ,0.27847 
366 ,66.9562 ,1.26356 ,0.02838 ,0.27847 
367 ,67.1482 ,1.26538 ,-0.01611 ,-0.15805 
368 ,67.3404 ,1.26734 ,0.00100 ,0.00984 
369 ,67.5165 ,1.26917 ,0.00100 ,0.00984 
370 ,67.6926 ,1.27090 ,-0.01611 ,-0.15805 
371 ,67.9004 ,1.27294 ,-0.03322 ,-0.32594 
372 ,68.0762 ,1.27472 ,-0.05375 ,-0.52741 
373 ,68.2526 ,1.27647 ,-0.05717 ,-0.56099 
374 ,68.4449 ,1.27836 ,-0.07771 ,-0.76246 
375 ,68.6370 ,1.28033 ,-0.07086 ,-0.69530 
376 ,68.8129 ,1.28211 ,-0.07086 ,-0.69530 
377 ,68.9890 ,1.28387 ,-0.09140 ,-0.89677 
378 ,69.1811 ,1.28578 ,-0.10851 ,-1.06466 
379 ,69.3572 ,1.28758 ,-0.11877 ,-1.16540 
380 ,69.5331 ,1.28930 ,-0.12904 ,-1.26613 
381 ,69.7092 ,1.29107 ,-0.13588 ,-1.33329 
382 ,69.8855 ,1.29281 ,-0.15642 ,-1.53476 
383 ,70.0775 ,1.29478 ,-0.16668 ,-1.63549 
384 ,70.2536 ,1.29658 ,-0.15984 ,-1.56834 
385 ,70.4456 ,1.29836 ,-0.16668 ,-1.63549 
386 ,70.6378 ,1.30029 ,-0.18037 ,-1.76981 
387 ,70.8299 ,1.30225 ,-0.19064 ,-1.87054 
388 ,71.0220 ,1.30406 ,-0.19064 ,-1.87054 
389 ,71.2136 ,1.30601 ,-0.21459 ,-2.10559 
390 ,71.3900 ,1.30786 ,-0.22486 ,-2.20632 
391 ,71.5981 ,1.30993 ,-0.24197 ,-2.37422 
392 ,71.7742 ,1.31174 ,-0.24197 ,-2.37422 
393 ,71.9503 ,1.31348 ,-0.24197 ,-2.37422 
394 ,72.1264 ,1.31525 ,-0.25224 ,-2.47495 
395 ,72.3020 ,1.31695 ,-0.27277 ,-2.67642 
396 ,72.4784 ,1.31877 ,-0.29330 ,-2.87789 
397 ,72.6706 ,1.32071 ,-0.27961 ,-2.74358 
398 ,72.8465 ,1.32247 ,-0.28988 ,-2.84431 
399 ,73.0387 ,1.32429 ,-0.32752 ,-3.21367 
400 ,73.2147 ,1.32607 ,-0.32410 ,-3.18010 
401 ,73.3749 ,1.32782 ,-0.32410 ,-3.18010 
402 ,73.5511 ,1.32950 ,-0.34121 ,-3.34799 
403 ,73.7431 ,1.33142 ,-0.34121 ,-3.34799 
404 ,73.9187 ,1.33312 ,-0.37201 ,-3.65019 
405 ,74.0953 ,1.33489 ,-0.37886 ,-3.71735 
406 ,74.3033 ,1.33683 ,-0.36859 ,-3.61661 
407 ,74.4953 ,1.33890 ,-0.39597 ,-3.88524 
408 ,74.6715 ,1.34069 ,-0.40281 ,-3.95240 
409 ,74.8635 ,1.34261 ,-0.39597 ,-3.88524 
410 ,75.0395 ,1.34429 ,-0.41650 ,-4.08671 
411 ,75.2317 ,1.34627 ,-0.42335 ,-4.15387 
412 ,75.4077 ,1.34804 ,-0.43019 ,-4.22102 
413 ,75.5839 ,1.34976 ,-0.42335 ,-4.15387 
414 ,75.7599 ,1.35155 ,-0.44046 ,-4.32176 
415 ,75.9518 ,1.35338 ,-0.44730 ,-4.38891 
416 ,76.1278 ,1.35524 ,-0.46099 ,-4.52323 
417 ,76.3040 ,1.35696 ,-0.46099 ,-4.52323 
418 ,76.4801 ,1.35872 ,-0.48494 ,-4.75828 
419 ,76.6722 ,1.36057 ,-0.48494 ,-4.75828 
420 ,76.8645 ,1.36251 ,-0.50548 ,-4.95975 
421 ,77.0563 ,1.36446 ,-0.52601 ,-5.16121 
422 ,77.2322 ,1.36624 ,-0.52259 ,-5.12764 
423 ,77.4083 ,1.36802 ,-0.52601 ,-5.16121 
424 ,77.5683 ,1.36972 ,-0.52259 ,-5.12764 
425 ,77.7447 ,1.37139 ,-0.52943 ,-5.19479 
426 ,77.9209 ,1.37318 ,-0.54312 ,-5.32911 
427 ,78.1286 ,1.37520 ,-0.54654 ,-5.36268 
428 ,78.3209 ,1.37710 ,-0.56023 ,-5.49700 
429 ,78.4971 ,1.37886 ,-0.58761 ,-5.76562 
430 ,78.6731 ,1.38067 ,-0.58761 ,-5.76562 
431 ,78.8492 ,1.38243 ,-0.60130 ,-5.89994 
432 ,79.0251 ,1.38424 ,-0.59445 ,-5.83278 
433 ,79.2014 ,1.38595 ,-0.59445 ,-5.83278 
434 ,79.4251 ,1.38809 ,-0.61841 ,-6.06783 
435 ,79.6015 ,1.38997 ,-0.61841 ,-6.06783 
436 ,79.7774 ,1.39167 ,-0.62183 ,-6.10141 
437 ,80.0017 ,1.39383 ,-0.64579 ,-6.33646 
438 ,80.2096 ,1.39593 ,-0.65605 ,-6.43719 
439 ,80.3859 ,1.39777 ,-0.65947 ,-6.47077 
440 ,80.5777 ,1.39968 ,-0.67316 ,-6.60508 
441 ,80.7538 ,1.40151 ,-0.67316 ,-6.60508 
442 ,80.9299 ,1.40323 ,-0.68685 ,-6.73940 
443 ,81.1220 ,1.40517 ,-0.68685 ,-6.73940 
444 ,81.2978 ,1.40688 ,-0.69027 ,-6.77297 
445 ,81.4742 ,1.40867 ,-0.71081 ,-6.97444 
446 ,81.6502 ,1.41048 ,-0.72450 ,-7.10876 
447 ,81.8258 ,1.41220 ,-0.74161 ,-7.27665 
448 ,82.0024 ,1.41398 ,-0.73134 ,-7.17591 
449 ,82.1785 ,1.41569 ,-0.73134 ,-7.17591 
450 ,82.3866 ,1.41774 ,-0.75530 ,-7.41096 
451 ,82.5947 ,1.41969 ,-0.76898 ,-7.54527 
452 ,82.8028 ,1.42192 ,-0.77241 ,-7.57885 
453 ,82.9787 ,1.42371 ,-0.78267 ,-7.67959 
454 ,83.1708 ,1.42559 ,-0.78952 ,-7.74674 
455 ,83.3629 ,1.42746 ,-0.79636 ,-7.81390 
456 ,83.5390 ,1.42932 ,-0.79636 ,-7.81390 
457 ,83.7312 ,1.43122 ,-0.80663 ,-7.91464 
458 ,83.9070 ,1.43304 ,-0.82374 ,-8.08253 
459 ,84.0993 ,1.43485 ,-0.83058 ,-8.14968 
460 ,84.3234 ,1.43702 ,-0.84427 ,-8.28400 
461 ,84.5153 ,1.43903 ,-0.84085 ,-8.25042 
462 ,84.7074 ,1.44098 ,-0.86823 ,-8.51904 
463 ,84.8832 ,1.44269 ,-0.88534 ,-8.68694 
