Data stamp = , 02-04-2022 03:45:34 643

Calibration Values: 
Slope = , 26.54 , g/V 
Offset Voltage at no contact = , -0.501760 , V 

No , Time , Stage Position ,   Mass , Force 
   ,  (s) ,      (mm)      ,   (g)  , (mN)  

1 ,0.0000 ,0.64943 ,5.06239 ,49.67215 
2 ,0.2074 ,0.64949 ,5.07608 ,49.80646 
3 ,0.5438 ,0.65035 ,5.07265 ,49.77289 
4 ,0.7518 ,0.65192 ,5.07265 ,49.77289 
5 ,0.9283 ,0.65351 ,5.07265 ,49.77289 
6 ,1.1363 ,0.65543 ,5.06239 ,49.67215 
7 ,1.3441 ,0.65762 ,5.08292 ,49.87362 
8 ,1.5363 ,0.65951 ,5.06923 ,49.73931 
9 ,1.7124 ,0.66126 ,5.06239 ,49.67215 
10 ,1.8724 ,0.66303 ,5.03843 ,49.43710 
11 ,2.0646 ,0.66485 ,5.01448 ,49.20205 
12 ,2.2407 ,0.66661 ,5.00421 ,49.10132 
13 ,2.4326 ,0.66852 ,5.00079 ,49.06774 
14 ,2.6089 ,0.67030 ,5.00421 ,49.10132 
15 ,2.7848 ,0.67205 ,4.96999 ,48.76554 
16 ,2.9609 ,0.67381 ,4.95288 ,48.59764 
17 ,3.1531 ,0.67566 ,4.94603 ,48.53049 
18 ,3.3292 ,0.67752 ,4.93577 ,48.42975 
19 ,3.5052 ,0.67928 ,4.91866 ,48.26186 
20 ,3.6811 ,0.68103 ,4.89470 ,48.02681 
21 ,3.8732 ,0.68292 ,4.89128 ,47.99324 
22 ,4.0654 ,0.68479 ,4.87417 ,47.82534 
23 ,4.2736 ,0.68680 ,4.85364 ,47.62387 
24 ,4.4492 ,0.68868 ,4.85021 ,47.59030 
25 ,4.6259 ,0.69043 ,4.81257 ,47.22093 
26 ,4.8176 ,0.69232 ,4.79204 ,47.01946 
27 ,5.0097 ,0.69429 ,4.78519 ,46.95231 
28 ,5.1858 ,0.69603 ,4.76466 ,46.75084 
29 ,5.3620 ,0.69776 ,4.73386 ,46.44863 
30 ,5.5540 ,0.69976 ,4.73728 ,46.48221 
31 ,5.7462 ,0.70162 ,4.70306 ,46.14643 
32 ,5.9223 ,0.70342 ,4.68595 ,45.97854 
33 ,6.0982 ,0.70512 ,4.67911 ,45.91138 
34 ,6.2903 ,0.70706 ,4.66199 ,45.74349 
35 ,6.4665 ,0.70882 ,4.63462 ,45.47486 
36 ,6.6425 ,0.71060 ,4.60382 ,45.17266 
37 ,6.8185 ,0.71241 ,4.59697 ,45.10550 
38 ,7.0107 ,0.71419 ,4.58671 ,45.00477 
39 ,7.2028 ,0.71618 ,4.54906 ,44.63541 
40 ,7.3948 ,0.71812 ,4.54906 ,44.63541 
41 ,7.5709 ,0.71986 ,4.53195 ,44.46751 
42 ,7.7630 ,0.72183 ,4.48746 ,44.03100 
43 ,7.9389 ,0.72359 ,4.46693 ,43.82953 
44 ,8.1147 ,0.72529 ,4.47720 ,43.93026 
45 ,8.2910 ,0.72710 ,4.45324 ,43.69521 
46 ,8.4833 ,0.72904 ,4.42244 ,43.39301 
47 ,8.6750 ,0.73095 ,4.41902 ,43.35943 
48 ,8.8511 ,0.73271 ,4.39164 ,43.09080 
49 ,9.0271 ,0.73443 ,4.38822 ,43.05723 
50 ,9.2030 ,0.73620 ,4.35742 ,42.75502 
51 ,9.3791 ,0.73795 ,4.34031 ,42.58713 
52 ,9.5554 ,0.73975 ,4.33004 ,42.48639 
53 ,9.7637 ,0.74175 ,4.30609 ,42.25135 
54 ,9.9399 ,0.74354 ,4.29240 ,42.11703 
55 ,10.1159 ,0.74536 ,4.27871 ,41.98272 
56 ,10.2917 ,0.74706 ,4.26160 ,41.81483 
57 ,10.4682 ,0.74883 ,4.23765 ,41.57978 
58 ,10.6440 ,0.75063 ,4.21369 ,41.34473 
59 ,10.8201 ,0.75236 ,4.20000 ,41.21042 
60 ,10.9798 ,0.75407 ,4.18974 ,41.10968 
61 ,11.1720 ,0.75583 ,4.17262 ,40.94179 
62 ,11.3479 ,0.75765 ,4.15894 ,40.80748 
63 ,11.5243 ,0.75940 ,4.12471 ,40.47170 
64 ,11.7005 ,0.76116 ,4.11787 ,40.40454 
65 ,11.8923 ,0.76294 ,4.10076 ,40.23665 
66 ,12.0684 ,0.76487 ,4.08365 ,40.06876 
67 ,12.2444 ,0.76660 ,4.05285 ,39.76655 
68 ,12.4211 ,0.76837 ,4.04258 ,39.66582 
69 ,12.6130 ,0.77030 ,4.03916 ,39.63224 
70 ,12.7890 ,0.77202 ,4.00836 ,39.33003 
71 ,12.9652 ,0.77379 ,3.98441 ,39.09499 
72 ,13.1412 ,0.77559 ,3.96729 ,38.92709 
73 ,13.3171 ,0.77734 ,3.95703 ,38.82636 
74 ,13.5092 ,0.77922 ,3.93307 ,38.59131 
75 ,13.6854 ,0.78100 ,3.91254 ,38.38984 
76 ,13.8615 ,0.78280 ,3.89543 ,38.22195 
77 ,14.0375 ,0.78451 ,3.90227 ,38.28911 
78 ,14.2137 ,0.78629 ,3.87832 ,38.05406 
79 ,14.3896 ,0.78804 ,3.84410 ,37.71828 
80 ,14.5656 ,0.78984 ,3.82356 ,37.51681 
81 ,14.7418 ,0.79160 ,3.81672 ,37.44965 
82 ,14.9338 ,0.79349 ,3.80645 ,37.34891 
83 ,15.1098 ,0.79526 ,3.77908 ,37.08029 
84 ,15.3021 ,0.79711 ,3.77223 ,37.01313 
85 ,15.4942 ,0.79906 ,3.74828 ,36.77808 
86 ,15.6698 ,0.80082 ,3.72774 ,36.57661 
87 ,15.8463 ,0.80262 ,3.71063 ,36.40872 
88 ,16.0221 ,0.80441 ,3.67983 ,36.10652 
89 ,16.1985 ,0.80612 ,3.68668 ,36.17367 
90 ,16.3903 ,0.80807 ,3.65930 ,35.90505 
91 ,16.5826 ,0.80996 ,3.64903 ,35.80431 
92 ,16.7745 ,0.81184 ,3.61481 ,35.46853 
93 ,16.9827 ,0.81393 ,3.61139 ,35.43495 
94 ,17.1587 ,0.81578 ,3.59086 ,35.23348 
95 ,17.3509 ,0.81765 ,3.56006 ,34.93128 
96 ,17.5271 ,0.81945 ,3.54637 ,34.79696 
97 ,17.7027 ,0.82125 ,3.54637 ,34.79696 
98 ,17.8790 ,0.82292 ,3.53268 ,34.66265 
99 ,18.0552 ,0.82469 ,3.50872 ,34.42760 
100 ,18.2312 ,0.82649 ,3.48819 ,34.22613 
101 ,18.4234 ,0.82834 ,3.48477 ,34.19255 
102 ,18.5993 ,0.83014 ,3.46766 ,34.02466 
103 ,18.7754 ,0.83194 ,3.44713 ,33.82319 
104 ,18.9516 ,0.83369 ,3.42659 ,33.62172 
105 ,19.1435 ,0.83554 ,3.40606 ,33.42025 
106 ,19.3195 ,0.83734 ,3.40264 ,33.38667 
107 ,19.5117 ,0.83926 ,3.37526 ,33.11805 
108 ,19.6880 ,0.84102 ,3.34446 ,32.81584 
109 ,19.8639 ,0.84277 ,3.33762 ,32.74869 
110 ,20.0401 ,0.84455 ,3.32393 ,32.61437 
111 ,20.2162 ,0.84633 ,3.32393 ,32.61437 
112 ,20.3920 ,0.84805 ,3.29313 ,32.31217 
113 ,20.5683 ,0.84984 ,3.26575 ,32.04354 
114 ,20.7603 ,0.85172 ,3.28286 ,32.21143 
115 ,20.9364 ,0.85346 ,3.24864 ,31.87565 
116 ,21.1286 ,0.85535 ,3.23495 ,31.74134 
117 ,21.3046 ,0.85720 ,3.20415 ,31.43913 
118 ,21.5127 ,0.85914 ,3.20757 ,31.47271 
119 ,21.7047 ,0.86114 ,3.19388 ,31.33840 
120 ,21.8804 ,0.86292 ,3.17335 ,31.13693 
121 ,22.0569 ,0.86470 ,3.15966 ,31.00262 
122 ,22.2490 ,0.86660 ,3.11175 ,30.53252 
123 ,22.4251 ,0.86840 ,3.11860 ,30.59968 
124 ,22.6010 ,0.87016 ,3.10491 ,30.46536 
125 ,22.7769 ,0.87190 ,3.08780 ,30.29747 
126 ,22.9530 ,0.87363 ,3.05358 ,29.96169 
127 ,23.1453 ,0.87552 ,3.04331 ,29.86095 
128 ,23.3371 ,0.87749 ,3.02962 ,29.72664 
129 ,23.5294 ,0.87940 ,3.01593 ,29.59233 
130 ,23.7051 ,0.88114 ,2.99882 ,29.42444 
131 ,23.8816 ,0.88289 ,2.98855 ,29.32370 
132 ,24.0732 ,0.88477 ,2.96802 ,29.12223 
133 ,24.2336 ,0.88653 ,2.94749 ,28.92076 
134 ,24.4418 ,0.88841 ,2.93722 ,28.82003 
135 ,24.6178 ,0.89030 ,2.93038 ,28.75287 
136 ,24.8100 ,0.89226 ,2.89958 ,28.45066 
137 ,25.0021 ,0.89404 ,2.88931 ,28.34993 
138 ,25.1777 ,0.89587 ,2.86878 ,28.14846 
139 ,25.3378 ,0.89761 ,2.83798 ,27.84625 
140 ,25.5139 ,0.89925 ,2.83456 ,27.81268 
141 ,25.6901 ,0.90096 ,2.81745 ,27.64479 
142 ,25.8664 ,0.90274 ,2.80718 ,27.54405 
143 ,26.0744 ,0.90482 ,2.78665 ,27.34258 
144 ,26.2505 ,0.90663 ,2.77638 ,27.24185 
145 ,26.4425 ,0.90852 ,2.75243 ,27.00680 
146 ,26.6187 ,0.91032 ,2.75243 ,27.00680 
147 ,26.7947 ,0.91204 ,2.71478 ,26.63744 
148 ,26.9706 ,0.91386 ,2.70109 ,26.50312 
149 ,27.1466 ,0.91556 ,2.67714 ,26.26807 
150 ,27.3389 ,0.91747 ,2.67714 ,26.26807 
151 ,27.5469 ,0.91953 ,2.66345 ,26.13376 
152 ,27.7230 ,0.92134 ,2.64634 ,25.96587 
153 ,27.8991 ,0.92307 ,2.62581 ,25.76440 
154 ,28.0752 ,0.92489 ,2.60869 ,25.59651 
155 ,28.2670 ,0.92674 ,2.58816 ,25.39504 
156 ,28.4433 ,0.92855 ,2.57789 ,25.29430 
157 ,28.6355 ,0.93043 ,2.54710 ,24.99210 
158 ,28.8114 ,0.93222 ,2.54025 ,24.92494 
159 ,28.9876 ,0.93399 ,2.52656 ,24.79063 
160 ,29.2116 ,0.93606 ,2.49918 ,24.52200 
161 ,29.3877 ,0.93794 ,2.49234 ,24.45485 
162 ,29.5637 ,0.93977 ,2.48207 ,24.35411 
163 ,29.7398 ,0.94146 ,2.46839 ,24.21980 
164 ,29.9156 ,0.94326 ,2.44101 ,23.95117 
165 ,30.0921 ,0.94499 ,2.42390 ,23.78328 
166 ,30.2840 ,0.94692 ,2.41705 ,23.71612 
167 ,30.4602 ,0.94868 ,2.41363 ,23.68255 
168 ,30.6362 ,0.95046 ,2.37599 ,23.31318 
169 ,30.8123 ,0.95219 ,2.35545 ,23.11171 
170 ,30.9884 ,0.95394 ,2.34861 ,23.04456 
171 ,31.1644 ,0.95572 ,2.34177 ,22.97740 
172 ,31.3405 ,0.95747 ,2.33834 ,22.94382 
173 ,31.5165 ,0.95928 ,2.31781 ,22.74235 
174 ,31.6927 ,0.96100 ,2.28017 ,22.37299 
175 ,31.8686 ,0.96273 ,2.26990 ,22.27226 
176 ,32.0445 ,0.96448 ,2.26648 ,22.23868 
177 ,32.2209 ,0.96630 ,2.25279 ,22.10437 
178 ,32.4292 ,0.96831 ,2.22541 ,21.83574 
179 ,32.6050 ,0.97012 ,2.21515 ,21.73500 
180 ,32.7972 ,0.97204 ,2.19119 ,21.49996 
181 ,32.9731 ,0.97385 ,2.17408 ,21.33206 
182 ,33.1653 ,0.97567 ,2.17750 ,21.36564 
183 ,33.3414 ,0.97752 ,2.15697 ,21.16417 
184 ,33.5174 ,0.97924 ,2.13301 ,20.92912 
185 ,33.6936 ,0.98104 ,2.12275 ,20.82839 
186 ,33.8852 ,0.98293 ,2.11248 ,20.72766 
187 ,34.0612 ,0.98470 ,2.08852 ,20.49261 
188 ,34.2373 ,0.98642 ,2.07484 ,20.35829 
189 ,34.4138 ,0.98825 ,2.05088 ,20.12325 
190 ,34.6056 ,0.99023 ,2.06115 ,20.22398 
191 ,34.7981 ,0.99197 ,2.04061 ,20.02251 
192 ,34.9741 ,0.99382 ,1.99955 ,19.61957 
193 ,35.1502 ,0.99555 ,1.99613 ,19.58599 
194 ,35.3262 ,0.99736 ,1.98928 ,19.51884 
195 ,35.5343 ,0.99927 ,1.96190 ,19.25021 
196 ,35.7101 ,1.00114 ,1.94822 ,19.11590 
197 ,35.8865 ,1.00294 ,1.94137 ,19.04874 
198 ,36.0620 ,1.00472 ,1.92768 ,18.91443 
199 ,36.2387 ,1.00646 ,1.91399 ,18.78011 
200 ,36.4306 ,1.00841 ,1.89004 ,18.54507 
201 ,36.6068 ,1.01020 ,1.87635 ,18.41075 
202 ,36.7829 ,1.01186 ,1.86951 ,18.34360 
203 ,36.9589 ,1.01367 ,1.84897 ,18.14213 
204 ,37.1349 ,1.01539 ,1.83186 ,17.97423 
205 ,37.3272 ,1.01732 ,1.82160 ,17.87350 
206 ,37.5032 ,1.01911 ,1.81475 ,17.80634 
207 ,37.6793 ,1.02083 ,1.80791 ,17.73919 
208 ,37.8873 ,1.02277 ,1.79422 ,17.60487 
209 ,38.0795 ,1.02484 ,1.77026 ,17.36983 
210 ,38.2555 ,1.02664 ,1.74289 ,17.10120 
211 ,38.4316 ,1.02842 ,1.73604 ,17.03404 
212 ,38.6075 ,1.03011 ,1.73604 ,17.03404 
213 ,38.7835 ,1.03191 ,1.70524 ,16.73184 
214 ,38.9758 ,1.03382 ,1.68471 ,16.53037 
215 ,39.1677 ,1.03572 ,1.68129 ,16.49679 
216 ,39.3440 ,1.03753 ,1.67444 ,16.42963 
217 ,39.5359 ,1.03946 ,1.63680 ,16.06027 
218 ,39.7284 ,1.04134 ,1.64707 ,16.16101 
219 ,39.8878 ,1.04303 ,1.63680 ,16.06027 
220 ,40.0642 ,1.04470 ,1.62311 ,15.92596 
221 ,40.2563 ,1.04664 ,1.58889 ,15.59018 
222 ,40.4324 ,1.04835 ,1.57178 ,15.42228 
223 ,40.6084 ,1.05015 ,1.56836 ,15.38871 
224 ,40.7843 ,1.05187 ,1.56836 ,15.38871 
225 ,40.9601 ,1.05364 ,1.55124 ,15.22081 
226 ,41.1366 ,1.05543 ,1.52729 ,14.98577 
227 ,41.3128 ,1.05719 ,1.51018 ,14.81787 
228 ,41.4886 ,1.05893 ,1.49991 ,14.71714 
229 ,41.6649 ,1.06072 ,1.48965 ,14.61640 
230 ,41.8409 ,1.06250 ,1.47596 ,14.48209 
231 ,42.0325 ,1.06434 ,1.45885 ,14.31420 
232 ,42.2091 ,1.06613 ,1.44516 ,14.17989 
233 ,42.3852 ,1.06789 ,1.44516 ,14.17989 
234 ,42.5613 ,1.06969 ,1.42805 ,14.01199 
235 ,42.7694 ,1.07160 ,1.40067 ,13.74337 
236 ,42.9294 ,1.07346 ,1.40409 ,13.77695 
237 ,43.0890 ,1.07505 ,1.38698 ,13.60906 
238 ,43.2495 ,1.07665 ,1.38356 ,13.57548 
239 ,43.4257 ,1.07831 ,1.37329 ,13.47474 
240 ,43.6180 ,1.08025 ,1.33223 ,13.07180 
241 ,43.8096 ,1.08216 ,1.32196 ,12.97107 
242 ,43.9857 ,1.08387 ,1.31512 ,12.90391 
243 ,44.1619 ,1.08563 ,1.30485 ,12.80318 
244 ,44.3541 ,1.08761 ,1.28089 ,12.56813 
245 ,44.5300 ,1.08936 ,1.27063 ,12.46739 
246 ,44.7061 ,1.09105 ,1.27747 ,12.53455 
247 ,44.8982 ,1.09290 ,1.25694 ,12.33308 
248 ,45.0738 ,1.09477 ,1.21929 ,11.96372 
249 ,45.2501 ,1.09655 ,1.21929 ,11.96372 
250 ,45.4264 ,1.09830 ,1.21245 ,11.89656 
251 ,45.6025 ,1.10003 ,1.20218 ,11.79583 
252 ,45.7945 ,1.10194 ,1.17138 ,11.49362 
253 ,45.9706 ,1.10373 ,1.17481 ,11.52720 
254 ,46.1468 ,1.10551 ,1.16112 ,11.39289 
255 ,46.3229 ,1.10729 ,1.15085 ,11.29215 
256 ,46.5145 ,1.10919 ,1.12347 ,11.02353 
257 ,46.6909 ,1.11092 ,1.11321 ,10.92279 
258 ,46.8988 ,1.11300 ,1.11663 ,10.95637 
259 ,47.0751 ,1.11478 ,1.08583 ,10.65416 
260 ,47.2668 ,1.11671 ,1.06530 ,10.45270 
261 ,47.4433 ,1.11847 ,1.08241 ,10.62059 
262 ,47.6352 ,1.12036 ,1.05161 ,10.31838 
263 ,47.8115 ,1.12208 ,1.03792 ,10.18407 
264 ,47.9872 ,1.12388 ,1.02765 ,10.08333 
265 ,48.1635 ,1.12566 ,1.02081 ,10.01618 
266 ,48.3552 ,1.12755 ,0.99001 ,9.71397 
267 ,48.5316 ,1.12934 ,0.98317 ,9.64682 
268 ,48.7077 ,1.13106 ,0.97974 ,9.61324 
269 ,48.8838 ,1.13281 ,0.96948 ,9.51250 
270 ,49.0758 ,1.13478 ,0.94552 ,9.27745 
271 ,49.2517 ,1.13651 ,0.93183 ,9.14314 
272 ,49.4277 ,1.13829 ,0.93183 ,9.14314 
273 ,49.6039 ,1.14006 ,0.91130 ,8.94167 
274 ,49.7961 ,1.14200 ,0.89077 ,8.74020 
275 ,49.9722 ,1.14377 ,0.89077 ,8.74020 
276 ,50.1481 ,1.14549 ,0.88734 ,8.70662 
277 ,50.3244 ,1.14729 ,0.87023 ,8.53873 
278 ,50.4844 ,1.14901 ,0.84286 ,8.27011 
279 ,50.6604 ,1.15059 ,0.83259 ,8.16937 
280 ,50.8525 ,1.15259 ,0.81890 ,8.03506 
281 ,51.0125 ,1.15425 ,0.82575 ,8.10221 
282 ,51.1886 ,1.15591 ,0.82232 ,8.06864 
283 ,51.3808 ,1.15785 ,0.78810 ,7.73285 
284 ,51.5727 ,1.15970 ,0.77099 ,7.56496 
285 ,51.7808 ,1.16173 ,0.74361 ,7.29633 
286 ,51.9569 ,1.16364 ,0.75388 ,7.39707 
287 ,52.1329 ,1.16530 ,0.73677 ,7.22918 
288 ,52.3252 ,1.16721 ,0.73677 ,7.22918 
289 ,52.5011 ,1.16902 ,0.71281 ,6.99413 
290 ,52.6769 ,1.17075 ,0.69228 ,6.79266 
291 ,52.8533 ,1.17259 ,0.68544 ,6.72550 
292 ,53.0290 ,1.17429 ,0.67517 ,6.62477 
293 ,53.2051 ,1.17604 ,0.66490 ,6.52403 
294 ,53.3811 ,1.17779 ,0.65806 ,6.45688 
295 ,53.5412 ,1.17956 ,0.62384 ,6.12109 
296 ,53.7173 ,1.18122 ,0.62726 ,6.15467 
297 ,53.8937 ,1.18289 ,0.61357 ,6.02036 
298 ,54.0870 ,1.18483 ,0.61699 ,6.05394 
299 ,54.2778 ,1.18667 ,0.58962 ,5.78531 
300 ,54.4540 ,1.18855 ,0.57251 ,5.61742 
301 ,54.6456 ,1.19044 ,0.57593 ,5.65100 
302 ,54.8222 ,1.19225 ,0.54855 ,5.38237 
303 ,55.0140 ,1.19415 ,0.53486 ,5.24806 
304 ,55.1902 ,1.19587 ,0.53486 ,5.24806 
305 ,55.3662 ,1.19766 ,0.52459 ,5.14732 
306 ,55.5425 ,1.19947 ,0.52117 ,5.11375 
307 ,55.7181 ,1.20122 ,0.49722 ,4.87870 
308 ,55.8945 ,1.20295 ,0.48695 ,4.77796 
309 ,56.0705 ,1.20466 ,0.48695 ,4.77796 
310 ,56.2467 ,1.20646 ,0.46984 ,4.61007 
311 ,56.4388 ,1.20840 ,0.44246 ,4.34144 
312 ,56.6148 ,1.21017 ,0.42877 ,4.20713 
313 ,56.7906 ,1.21187 ,0.42877 ,4.20713 
314 ,56.9666 ,1.21369 ,0.42193 ,4.13997 
315 ,57.1430 ,1.21541 ,0.39797 ,3.90493 
316 ,57.3349 ,1.21729 ,0.39797 ,3.90493 
317 ,57.5111 ,1.21907 ,0.38771 ,3.80419 
318 ,57.6872 ,1.22086 ,0.38086 ,3.73703 
319 ,57.8632 ,1.22258 ,0.36375 ,3.56914 
320 ,58.0394 ,1.22438 ,0.33638 ,3.30052 
321 ,58.2314 ,1.22630 ,0.34664 ,3.40125 
322 ,58.4075 ,1.22801 ,0.32611 ,3.19978 
323 ,58.5836 ,1.22978 ,0.30215 ,2.96473 
324 ,58.7756 ,1.23172 ,0.28847 ,2.83042 
325 ,58.9518 ,1.23347 ,0.29531 ,2.89758 
326 ,59.1278 ,1.23528 ,0.28504 ,2.79684 
327 ,59.3040 ,1.23701 ,0.25767 ,2.52822 
328 ,59.4800 ,1.23881 ,0.24740 ,2.42748 
329 ,59.6721 ,1.24063 ,0.25424 ,2.49464 
330 ,59.8482 ,1.24244 ,0.24740 ,2.42748 
331 ,60.0240 ,1.24424 ,0.22687 ,2.22601 
332 ,60.2162 ,1.24615 ,0.21660 ,2.12528 
333 ,60.4083 ,1.24805 ,0.20633 ,2.02454 
334 ,60.6004 ,1.25001 ,0.16869 ,1.65518 
335 ,60.7765 ,1.25173 ,0.17211 ,1.68876 
336 ,60.9844 ,1.25378 ,0.16185 ,1.58802 
337 ,61.1605 ,1.25560 ,0.14473 ,1.42013 
338 ,61.3528 ,1.25748 ,0.15842 ,1.55445 
339 ,61.5447 ,1.25944 ,0.12078 ,1.18508 
340 ,61.7210 ,1.26122 ,0.11736 ,1.15151 
341 ,61.9130 ,1.26300 ,0.09340 ,0.91646 
342 ,62.0730 ,1.26484 ,0.10025 ,0.98361 
343 ,62.2490 ,1.26643 ,0.09340 ,0.91646 
344 ,62.4256 ,1.26823 ,0.06602 ,0.64783 
345 ,62.6173 ,1.27016 ,0.04549 ,0.44636 
346 ,62.7935 ,1.27186 ,0.05918 ,0.58067 
347 ,62.9695 ,1.27367 ,0.04549 ,0.44636 
348 ,63.1454 ,1.27543 ,0.04207 ,0.41278 
349 ,63.3212 ,1.27720 ,0.02154 ,0.21131 
350 ,63.4974 ,1.27895 ,0.01127 ,0.11058 
351 ,63.6896 ,1.28084 ,0.00443 ,0.04342 
352 ,63.8655 ,1.28262 ,-0.00926 ,-0.09089 
353 ,64.0579 ,1.28456 ,-0.03322 ,-0.32594 
354 ,64.2496 ,1.28644 ,-0.02637 ,-0.25878 
355 ,64.4581 ,1.28854 ,-0.03664 ,-0.35952 
356 ,64.6498 ,1.29048 ,-0.04006 ,-0.39310 
357 ,64.8263 ,1.29218 ,-0.06060 ,-0.59457 
358 ,65.0022 ,1.29399 ,-0.08455 ,-0.82961 
359 ,65.1939 ,1.29587 ,-0.06744 ,-0.66172 
360 ,65.3704 ,1.29765 ,-0.07428 ,-0.72888 
361 ,65.5465 ,1.29940 ,-0.10508 ,-1.03108 
362 ,65.7222 ,1.30117 ,-0.12219 ,-1.19898 
363 ,65.8985 ,1.30291 ,-0.12904 ,-1.26613 
364 ,66.0747 ,1.30469 ,-0.11877 ,-1.16540 
365 ,66.2503 ,1.30651 ,-0.12904 ,-1.26613 
366 ,66.4270 ,1.30824 ,-0.15299 ,-1.50118 
367 ,66.6187 ,1.31014 ,-0.14957 ,-1.46760 
368 ,66.7949 ,1.31190 ,-0.16326 ,-1.60191 
369 ,66.9709 ,1.31362 ,-0.17695 ,-1.73623 
370 ,67.1470 ,1.31546 ,-0.19064 ,-1.87054 
371 ,67.3228 ,1.31718 ,-0.20433 ,-2.00485 
372 ,67.4992 ,1.31897 ,-0.20090 ,-1.97128 
373 ,67.6753 ,1.32072 ,-0.22144 ,-2.17275 
374 ,67.8514 ,1.32248 ,-0.21802 ,-2.13917 
375 ,68.0435 ,1.32439 ,-0.24539 ,-2.40779 
376 ,68.2196 ,1.32616 ,-0.26250 ,-2.57569 
377 ,68.3953 ,1.32794 ,-0.25224 ,-2.47495 
378 ,68.5716 ,1.32964 ,-0.24881 ,-2.44137 
379 ,68.7637 ,1.33161 ,-0.28646 ,-2.81073 
380 ,68.9399 ,1.33334 ,-0.26935 ,-2.64284 
381 ,69.1157 ,1.33515 ,-0.29330 ,-2.87789 
382 ,69.3081 ,1.33696 ,-0.31384 ,-3.07936 
383 ,69.5000 ,1.33893 ,-0.31041 ,-3.04578 
384 ,69.6761 ,1.34072 ,-0.30357 ,-2.97863 
385 ,69.8682 ,1.34263 ,-0.32752 ,-3.21367 
386 ,70.0442 ,1.34436 ,-0.35490 ,-3.48230 
387 ,70.2684 ,1.34645 ,-0.34464 ,-3.38156 
388 ,70.4443 ,1.34843 ,-0.36517 ,-3.58303 
389 ,70.6366 ,1.35028 ,-0.36175 ,-3.54946 
390 ,70.8283 ,1.35222 ,-0.38228 ,-3.75093 
391 ,71.0045 ,1.35400 ,-0.39939 ,-3.91882 
392 ,71.1966 ,1.35588 ,-0.38228 ,-3.75093 
393 ,71.3729 ,1.35761 ,-0.39597 ,-3.88524 
394 ,71.5486 ,1.35945 ,-0.41992 ,-4.12029 
395 ,71.7251 ,1.36118 ,-0.43703 ,-4.28818 
396 ,71.9170 ,1.36314 ,-0.43019 ,-4.22102 
397 ,72.0931 ,1.36488 ,-0.43019 ,-4.22102 
398 ,72.2692 ,1.36668 ,-0.45072 ,-4.42249 
399 ,72.4612 ,1.36856 ,-0.47126 ,-4.62396 
400 ,72.6370 ,1.37028 ,-0.45757 ,-4.48965 
401 ,72.8134 ,1.37206 ,-0.46099 ,-4.52323 
402 ,72.9893 ,1.37376 ,-0.48837 ,-4.79185 
403 ,73.1658 ,1.37557 ,-0.49863 ,-4.89259 
404 ,73.3416 ,1.37733 ,-0.50206 ,-4.92617 
405 ,73.5177 ,1.37912 ,-0.49863 ,-4.89259 
406 ,73.6936 ,1.38083 ,-0.51574 ,-5.06048 
407 ,73.8700 ,1.38265 ,-0.53285 ,-5.22837 
408 ,74.0621 ,1.38455 ,-0.52943 ,-5.19479 
409 ,74.2541 ,1.38641 ,-0.53970 ,-5.29553 
410 ,74.4462 ,1.38837 ,-0.55339 ,-5.42984 
411 ,74.6381 ,1.39026 ,-0.55339 ,-5.42984 
412 ,74.8142 ,1.39214 ,-0.58419 ,-5.73205 
413 ,74.9905 ,1.39385 ,-0.58419 ,-5.73205 
414 ,75.1663 ,1.39557 ,-0.57734 ,-5.66489 
415 ,75.3425 ,1.39733 ,-0.59103 ,-5.79920 
416 ,75.5186 ,1.39911 ,-0.58761 ,-5.76562 
417 ,75.7105 ,1.40105 ,-0.61499 ,-6.03425 
418 ,75.8867 ,1.40274 ,-0.61499 ,-6.03425 
419 ,76.0629 ,1.40456 ,-0.62183 ,-6.10141 
420 ,76.2550 ,1.40648 ,-0.62868 ,-6.16856 
421 ,76.4312 ,1.40826 ,-0.63552 ,-6.23572 
422 ,76.6068 ,1.40995 ,-0.64921 ,-6.37003 
423 ,76.7830 ,1.41176 ,-0.64921 ,-6.37003 
424 ,76.9591 ,1.41345 ,-0.65605 ,-6.43719 
425 ,77.1513 ,1.41546 ,-0.66974 ,-6.57150 
426 ,77.3433 ,1.41737 ,-0.66632 ,-6.53793 
427 ,77.5354 ,1.41927 ,-0.66632 ,-6.53793 
428 ,77.7114 ,1.42100 ,-0.69370 ,-6.80655 
429 ,77.8873 ,1.42278 ,-0.70054 ,-6.87371 
430 ,78.0796 ,1.42467 ,-0.69370 ,-6.80655 
431 ,78.2715 ,1.42655 ,-0.73476 ,-7.20949 
432 ,78.4477 ,1.42836 ,-0.73818 ,-7.24307 
433 ,78.6240 ,1.43015 ,-0.74161 ,-7.27665 
434 ,78.8001 ,1.43193 ,-0.72792 ,-7.14233 
435 ,78.9916 ,1.43375 ,-0.76898 ,-7.54527 
436 ,79.1680 ,1.43559 ,-0.76898 ,-7.54527 
437 ,79.3600 ,1.43746 ,-0.76898 ,-7.54527 
438 ,79.5362 ,1.43928 ,-0.76898 ,-7.54527 
439 ,79.7282 ,1.44111 ,-0.78267 ,-7.67959 
440 ,79.9043 ,1.44295 ,-0.78952 ,-7.74674 
441 ,80.0801 ,1.44476 ,-0.81005 ,-7.94821 
442 ,80.2565 ,1.44643 ,-0.80321 ,-7.88106 
443 ,80.4483 ,1.44829 ,-0.82716 ,-8.11611 
444 ,80.6406 ,1.45031 ,-0.82032 ,-8.04895 
445 ,80.8167 ,1.45209 ,-0.83401 ,-8.18326 
446 ,81.0088 ,1.45393 ,-0.84769 ,-8.31758 
447 ,81.1849 ,1.45573 ,-0.85112 ,-8.35115 
448 ,81.3770 ,1.45760 ,-0.86138 ,-8.45189 
449 ,81.5530 ,1.45945 ,-0.86481 ,-8.48547 
450 ,81.7289 ,1.46117 ,-0.87507 ,-8.58620 
451 ,81.9051 ,1.46295 ,-0.87849 ,-8.61978 
452 ,82.0812 ,1.46468 ,-0.87507 ,-8.58620 
453 ,82.2573 ,1.46645 ,-0.89560 ,-8.78767 
454 ,82.4494 ,1.46843 ,-0.91272 ,-8.95556 
455 ,82.6254 ,1.47015 ,-0.91272 ,-8.95556 
456 ,82.7850 ,1.47183 ,-0.90587 ,-8.88841 
457 ,82.9615 ,1.47344 ,-0.91614 ,-8.98914 
458 ,83.1534 ,1.47534 ,-0.94694 ,-9.29135 
459 ,83.3457 ,1.47735 ,-0.94009 ,-9.22419 
460 ,83.5375 ,1.47927 ,-0.94009 ,-9.22419 
461 ,83.7297 ,1.48112 ,-0.96747 ,-9.49282 
462 ,83.9059 ,1.48296 ,-0.96063 ,-9.42566 
