Data stamp = , 03-04-2022 21:28:20 041

Calibration Values: 
Slope = , 26.54 , g/V 
Offset Voltage at no contact = , -0.501760 , V 

No , Time , Stage Position ,   Mass , Force 
   ,  (s) ,      (mm)      ,   (g)  , (mN)  

1 ,0.0000 ,0.59938 ,5.24718 ,51.48538 
2 ,0.2048 ,0.59945 ,5.26430 ,51.65327 
3 ,0.5089 ,0.60018 ,5.25745 ,51.58611 
4 ,0.6849 ,0.60145 ,5.25745 ,51.58611 
5 ,0.8931 ,0.60309 ,5.24718 ,51.48538 
6 ,1.0850 ,0.60496 ,5.24376 ,51.45180 
7 ,1.2614 ,0.60675 ,5.25745 ,51.58611 
8 ,1.4533 ,0.60862 ,5.25061 ,51.51896 
9 ,1.6294 ,0.61040 ,5.25403 ,51.55254 
10 ,1.8372 ,0.61249 ,5.23350 ,51.35107 
11 ,2.0296 ,0.61442 ,5.23007 ,51.31749 
12 ,2.2214 ,0.61633 ,5.21639 ,51.18317 
13 ,2.4138 ,0.61821 ,5.19243 ,50.94813 
14 ,2.6058 ,0.62023 ,5.18901 ,50.91455 
15 ,2.7818 ,0.62200 ,5.17532 ,50.78023 
16 ,2.9580 ,0.62376 ,5.15479 ,50.57876 
17 ,3.1338 ,0.62547 ,5.14110 ,50.44445 
18 ,3.3098 ,0.62722 ,5.13083 ,50.34372 
19 ,3.4859 ,0.62898 ,5.12741 ,50.31014 
20 ,3.6459 ,0.63071 ,5.12399 ,50.27656 
21 ,3.8060 ,0.63229 ,5.10003 ,50.04151 
22 ,3.9661 ,0.63391 ,5.08977 ,49.94078 
23 ,4.1421 ,0.63560 ,5.05897 ,49.63857 
24 ,4.3182 ,0.63729 ,5.05212 ,49.57142 
25 ,4.4942 ,0.63907 ,5.01790 ,49.23563 
26 ,4.6703 ,0.64079 ,5.00763 ,49.13490 
27 ,4.8463 ,0.64258 ,4.99737 ,49.03416 
28 ,5.0225 ,0.64433 ,4.98710 ,48.93343 
29 ,5.1986 ,0.64613 ,4.96657 ,48.73196 
30 ,5.3586 ,0.64783 ,4.94946 ,48.56407 
31 ,5.5186 ,0.64943 ,4.91523 ,48.22828 
32 ,5.6788 ,0.65102 ,4.90497 ,48.12755 
33 ,5.8548 ,0.65262 ,4.88444 ,47.92608 
34 ,6.0310 ,0.65443 ,4.86048 ,47.69103 
35 ,6.2070 ,0.65621 ,4.85364 ,47.62387 
36 ,6.3831 ,0.65794 ,4.84337 ,47.52314 
37 ,6.5431 ,0.65966 ,4.82284 ,47.32167 
38 ,6.7192 ,0.66129 ,4.79204 ,47.01946 
39 ,6.8953 ,0.66304 ,4.75439 ,46.65010 
40 ,7.0714 ,0.66482 ,4.74070 ,46.51579 
41 ,7.2314 ,0.66655 ,4.72702 ,46.38148 
42 ,7.3915 ,0.66814 ,4.71675 ,46.28074 
43 ,7.5678 ,0.66979 ,4.69279 ,46.04569 
44 ,7.7600 ,0.67173 ,4.68253 ,45.94496 
45 ,7.9521 ,0.67367 ,4.66199 ,45.74349 
46 ,8.1282 ,0.67537 ,4.65173 ,45.64275 
47 ,8.3202 ,0.67728 ,4.62777 ,45.40771 
48 ,8.5127 ,0.67916 ,4.59013 ,45.03835 
49 ,8.7046 ,0.68119 ,4.57644 ,44.90403 
50 ,8.8806 ,0.68288 ,4.55933 ,44.73614 
51 ,9.0566 ,0.68464 ,4.52853 ,44.43394 
52 ,9.2325 ,0.68645 ,4.52169 ,44.36678 
53 ,9.4248 ,0.68827 ,4.51826 ,44.33320 
54 ,9.6168 ,0.69031 ,4.49089 ,44.06457 
55 ,9.7930 ,0.69202 ,4.46009 ,43.76237 
56 ,9.9688 ,0.69384 ,4.44640 ,43.62806 
57 ,10.1453 ,0.69555 ,4.44640 ,43.62806 
58 ,10.3367 ,0.69751 ,4.42244 ,43.39301 
59 ,10.5133 ,0.69925 ,4.38822 ,43.05723 
60 ,10.6892 ,0.70098 ,4.36427 ,42.82218 
61 ,10.8651 ,0.70282 ,4.36769 ,42.85576 
62 ,11.0575 ,0.70457 ,4.36427 ,42.82218 
63 ,11.2496 ,0.70659 ,4.31636 ,42.35208 
64 ,11.4576 ,0.70862 ,4.31293 ,42.31850 
65 ,11.6497 ,0.71057 ,4.27187 ,41.91556 
66 ,11.8258 ,0.71235 ,4.27871 ,41.98272 
67 ,12.0020 ,0.71417 ,4.25818 ,41.78125 
68 ,12.1780 ,0.71589 ,4.24791 ,41.68051 
69 ,12.3698 ,0.71780 ,4.20000 ,41.21042 
70 ,12.5462 ,0.71958 ,4.20000 ,41.21042 
71 ,12.7382 ,0.72148 ,4.17262 ,40.94179 
72 ,12.9142 ,0.72322 ,4.17262 ,40.94179 
73 ,13.0903 ,0.72496 ,4.12471 ,40.47170 
74 ,13.2661 ,0.72675 ,4.13156 ,40.53885 
75 ,13.4582 ,0.72863 ,4.11787 ,40.40454 
76 ,13.6346 ,0.73045 ,4.08707 ,40.10233 
77 ,13.8261 ,0.73236 ,4.07680 ,40.00160 
78 ,14.0022 ,0.73414 ,4.06312 ,39.86729 
79 ,14.1782 ,0.73586 ,4.05969 ,39.83371 
80 ,14.3548 ,0.73767 ,4.01520 ,39.39719 
81 ,14.5788 ,0.73984 ,4.01863 ,39.43077 
82 ,14.7550 ,0.74162 ,3.99125 ,39.16214 
83 ,14.9310 ,0.74338 ,3.95703 ,38.82636 
84 ,15.1232 ,0.74528 ,3.96045 ,38.85994 
85 ,15.2991 ,0.74713 ,3.93992 ,38.65847 
86 ,15.4592 ,0.74878 ,3.91596 ,38.42342 
87 ,15.6512 ,0.75055 ,3.89201 ,38.18837 
88 ,15.8274 ,0.75238 ,3.89543 ,38.22195 
89 ,16.0035 ,0.75414 ,3.86805 ,37.95332 
90 ,16.1797 ,0.75589 ,3.87147 ,37.98690 
91 ,16.3878 ,0.75786 ,3.83383 ,37.61754 
92 ,16.5795 ,0.75991 ,3.82356 ,37.51681 
93 ,16.7558 ,0.76160 ,3.79276 ,37.21460 
94 ,16.9800 ,0.76372 ,3.79619 ,37.24818 
95 ,17.1720 ,0.76580 ,3.74828 ,36.77808 
96 ,17.3481 ,0.76761 ,3.73801 ,36.67735 
97 ,17.5402 ,0.76943 ,3.73801 ,36.67735 
98 ,17.7159 ,0.77124 ,3.72432 ,36.54303 
99 ,17.8923 ,0.77301 ,3.69010 ,36.20725 
100 ,18.0680 ,0.77472 ,3.66272 ,35.93863 
101 ,18.2447 ,0.77653 ,3.65588 ,35.87147 
102 ,18.4365 ,0.77838 ,3.65246 ,35.83789 
103 ,18.6287 ,0.78038 ,3.61823 ,35.50211 
104 ,18.8047 ,0.78215 ,3.59770 ,35.30064 
105 ,18.9809 ,0.78390 ,3.60797 ,35.40137 
106 ,19.1569 ,0.78564 ,3.58401 ,35.16632 
107 ,19.3330 ,0.78740 ,3.56348 ,34.96485 
108 ,19.5094 ,0.78912 ,3.53268 ,34.66265 
109 ,19.7012 ,0.79100 ,3.53268 ,34.66265 
110 ,19.9089 ,0.79310 ,3.50188 ,34.36045 
111 ,20.0852 ,0.79491 ,3.49846 ,34.32687 
112 ,20.2614 ,0.79666 ,3.47792 ,34.12540 
113 ,20.4535 ,0.79857 ,3.45397 ,33.89035 
114 ,20.6455 ,0.80053 ,3.45739 ,33.92393 
115 ,20.8374 ,0.80240 ,3.42317 ,33.58814 
116 ,21.0138 ,0.80418 ,3.40948 ,33.45383 
117 ,21.2057 ,0.80613 ,3.39237 ,33.28594 
118 ,21.3815 ,0.80784 ,3.37868 ,33.15163 
119 ,21.5579 ,0.80964 ,3.36842 ,33.05089 
120 ,21.7339 ,0.81142 ,3.34788 ,32.84942 
121 ,21.9097 ,0.81316 ,3.32735 ,32.64795 
122 ,22.1022 ,0.81507 ,3.32051 ,32.58080 
123 ,22.2941 ,0.81699 ,3.28971 ,32.27859 
124 ,22.4702 ,0.81875 ,3.25891 ,31.97639 
125 ,22.6303 ,0.82046 ,3.26233 ,32.00996 
126 ,22.8061 ,0.82213 ,3.23495 ,31.74134 
127 ,22.9823 ,0.82388 ,3.24522 ,31.84207 
128 ,23.1905 ,0.82585 ,3.22126 ,31.60702 
129 ,23.3826 ,0.82791 ,3.20415 ,31.43913 
130 ,23.5426 ,0.82958 ,3.20073 ,31.40555 
131 ,23.7188 ,0.83127 ,3.18362 ,31.23766 
132 ,23.9108 ,0.83315 ,3.15282 ,30.93546 
133 ,24.1026 ,0.83499 ,3.13913 ,30.80115 
134 ,24.2791 ,0.83683 ,3.13571 ,30.76757 
135 ,24.4550 ,0.83866 ,3.12886 ,30.70041 
136 ,24.6471 ,0.84050 ,3.09122 ,30.33105 
137 ,24.8233 ,0.84229 ,3.08095 ,30.23031 
138 ,25.0153 ,0.84416 ,3.06726 ,30.09600 
139 ,25.2234 ,0.84615 ,3.05700 ,29.99527 
140 ,25.4153 ,0.84806 ,3.03647 ,29.79380 
141 ,25.5914 ,0.84997 ,3.00909 ,29.52517 
142 ,25.7834 ,0.85178 ,2.97829 ,29.22297 
143 ,25.9756 ,0.85381 ,2.98855 ,29.32370 
144 ,26.1517 ,0.85554 ,2.96460 ,29.08865 
145 ,26.3439 ,0.85748 ,2.94749 ,28.92076 
146 ,26.5358 ,0.85942 ,2.93722 ,28.82003 
147 ,26.7122 ,0.86114 ,2.90300 ,28.48424 
148 ,26.8879 ,0.86293 ,2.90642 ,28.51782 
149 ,27.0642 ,0.86465 ,2.88931 ,28.34993 
150 ,27.2402 ,0.86644 ,2.88247 ,28.28277 
151 ,27.4322 ,0.86834 ,2.85167 ,27.98057 
152 ,27.6242 ,0.87023 ,2.84482 ,27.91341 
153 ,27.8005 ,0.87206 ,2.83114 ,27.77910 
154 ,27.9764 ,0.87380 ,2.83114 ,27.77910 
155 ,28.1526 ,0.87557 ,2.80718 ,27.54405 
156 ,28.3284 ,0.87738 ,2.77296 ,27.20827 
157 ,28.5210 ,0.87921 ,2.77296 ,27.20827 
158 ,28.7129 ,0.88115 ,2.74216 ,26.90606 
159 ,28.8886 ,0.88293 ,2.72163 ,26.70459 
160 ,29.0648 ,0.88466 ,2.70452 ,26.53670 
161 ,29.2408 ,0.88647 ,2.69767 ,26.46954 
162 ,29.4169 ,0.88821 ,2.69083 ,26.40239 
163 ,29.6092 ,0.89009 ,2.66687 ,26.16734 
164 ,29.8012 ,0.89202 ,2.66003 ,26.10018 
165 ,29.9771 ,0.89379 ,2.65660 ,26.06661 
166 ,30.1854 ,0.89586 ,2.62581 ,25.76440 
167 ,30.3614 ,0.89768 ,2.61554 ,25.66367 
168 ,30.5372 ,0.89934 ,2.60185 ,25.52935 
169 ,30.7295 ,0.90122 ,2.58132 ,25.32788 
170 ,30.9056 ,0.90306 ,2.54025 ,24.92494 
171 ,31.0818 ,0.90485 ,2.55736 ,25.09283 
172 ,31.2738 ,0.90666 ,2.54025 ,24.92494 
173 ,31.4658 ,0.90871 ,2.50261 ,24.55558 
174 ,31.6259 ,0.91037 ,2.51287 ,24.65632 
175 ,31.8021 ,0.91207 ,2.49234 ,24.45485 
176 ,31.9942 ,0.91400 ,2.47865 ,24.32053 
177 ,32.1862 ,0.91581 ,2.43416 ,23.88402 
178 ,32.3623 ,0.91771 ,2.42732 ,23.81686 
179 ,32.5864 ,0.91964 ,2.41363 ,23.68255 
180 ,32.7784 ,0.92171 ,2.41363 ,23.68255 
181 ,32.9704 ,0.92371 ,2.38625 ,23.41392 
182 ,33.1465 ,0.92546 ,2.35888 ,23.14529 
183 ,33.3226 ,0.92724 ,2.35203 ,23.07814 
184 ,33.4984 ,0.92900 ,2.34177 ,22.97740 
185 ,33.6744 ,0.93080 ,2.32808 ,22.84309 
186 ,33.8508 ,0.93252 ,2.31439 ,22.70877 
187 ,34.0429 ,0.93444 ,2.27332 ,22.30584 
188 ,34.2189 ,0.93623 ,2.28017 ,22.37299 
189 ,34.4106 ,0.93811 ,2.25963 ,22.17152 
190 ,34.5871 ,0.93988 ,2.23226 ,21.90290 
191 ,34.7628 ,0.94158 ,2.22883 ,21.86932 
192 ,34.9393 ,0.94340 ,2.22883 ,21.86932 
193 ,35.1153 ,0.94518 ,2.21515 ,21.73500 
194 ,35.2913 ,0.94694 ,2.17750 ,21.36564 
195 ,35.4676 ,0.94869 ,2.16381 ,21.23133 
196 ,35.6756 ,0.95065 ,2.16039 ,21.19775 
197 ,35.8673 ,0.95266 ,2.13644 ,20.96270 
198 ,36.0438 ,0.95447 ,2.11248 ,20.72766 
199 ,36.2199 ,0.95620 ,2.11590 ,20.76123 
200 ,36.4118 ,0.95811 ,2.09537 ,20.55976 
201 ,36.5878 ,0.95987 ,2.06799 ,20.29114 
202 ,36.7641 ,0.96167 ,2.06457 ,20.25756 
203 ,36.9396 ,0.96339 ,2.06115 ,20.22398 
204 ,37.1163 ,0.96518 ,2.04404 ,20.05609 
205 ,37.2922 ,0.96697 ,2.02008 ,19.82104 
206 ,37.4844 ,0.96879 ,2.02008 ,19.82104 
207 ,37.6765 ,0.97079 ,1.99613 ,19.58599 
208 ,37.8686 ,0.97267 ,1.96875 ,19.31737 
209 ,38.0284 ,0.97439 ,1.95506 ,19.18305 
210 ,38.2047 ,0.97602 ,1.92768 ,18.91443 
211 ,38.3808 ,0.97780 ,1.92768 ,18.91443 
212 ,38.5728 ,0.97965 ,1.91399 ,18.78011 
213 ,38.7490 ,0.98152 ,1.90031 ,18.64580 
214 ,38.9730 ,0.98359 ,1.88662 ,18.51149 
215 ,39.1491 ,0.98548 ,1.88662 ,18.51149 
216 ,39.3412 ,0.98744 ,1.84555 ,18.10855 
217 ,39.5172 ,0.98920 ,1.85582 ,18.20928 
218 ,39.6931 ,0.99092 ,1.82502 ,17.90708 
219 ,39.8689 ,0.99267 ,1.80791 ,17.73919 
220 ,40.0450 ,0.99439 ,1.80106 ,17.67203 
221 ,40.2215 ,0.99621 ,1.77026 ,17.36983 
222 ,40.4135 ,0.99808 ,1.77711 ,17.43698 
223 ,40.5897 ,0.99988 ,1.77026 ,17.36983 
224 ,40.7976 ,1.00185 ,1.72920 ,16.96689 
225 ,40.9898 ,1.00386 ,1.72235 ,16.89973 
226 ,41.1494 ,1.00560 ,1.70182 ,16.69826 
227 ,41.3258 ,1.00723 ,1.69155 ,16.59752 
228 ,41.5179 ,1.00918 ,1.67786 ,16.46321 
229 ,41.6937 ,1.01095 ,1.68129 ,16.49679 
230 ,41.8861 ,1.01278 ,1.64022 ,16.09385 
231 ,42.0621 ,1.01466 ,1.63680 ,16.06027 
232 ,42.2542 ,1.01650 ,1.63338 ,16.02669 
233 ,42.4302 ,1.01823 ,1.61284 ,15.82522 
234 ,42.6065 ,1.02004 ,1.60600 ,15.75807 
235 ,42.7984 ,1.02189 ,1.58889 ,15.59018 
236 ,42.9746 ,1.02374 ,1.58204 ,15.52302 
237 ,43.1667 ,1.02557 ,1.56493 ,15.35513 
238 ,43.3587 ,1.02764 ,1.55467 ,15.25439 
239 ,43.5343 ,1.02934 ,1.55467 ,15.25439 
240 ,43.7107 ,1.03108 ,1.52045 ,14.91861 
241 ,43.9027 ,1.03293 ,1.51018 ,14.81787 
242 ,44.0790 ,1.03472 ,1.48965 ,14.61640 
243 ,44.2867 ,1.03680 ,1.47596 ,14.48209 
244 ,44.4631 ,1.03863 ,1.46227 ,14.34778 
245 ,44.6551 ,1.04051 ,1.44174 ,14.14631 
246 ,44.8313 ,1.04227 ,1.45200 ,14.24704 
247 ,45.0074 ,1.04405 ,1.43147 ,14.04557 
248 ,45.1834 ,1.04578 ,1.40751 ,13.81053 
249 ,45.3912 ,1.04782 ,1.40751 ,13.81053 
250 ,45.5676 ,1.04963 ,1.38356 ,13.57548 
251 ,45.7597 ,1.05154 ,1.36303 ,13.37401 
252 ,45.9357 ,1.05332 ,1.36303 ,13.37401 
253 ,46.1118 ,1.05511 ,1.34249 ,13.17254 
254 ,46.2879 ,1.05689 ,1.32538 ,13.00465 
255 ,46.4799 ,1.05877 ,1.30827 ,12.83675 
256 ,46.6558 ,1.06055 ,1.31512 ,12.90391 
257 ,46.8480 ,1.06241 ,1.30143 ,12.76960 
258 ,47.0242 ,1.06421 ,1.27747 ,12.53455 
259 ,47.2163 ,1.06616 ,1.26720 ,12.43381 
260 ,47.3921 ,1.06792 ,1.27405 ,12.50097 
261 ,47.6003 ,1.06995 ,1.23298 ,12.09803 
262 ,47.7925 ,1.07192 ,1.23298 ,12.09803 
263 ,47.9845 ,1.07377 ,1.20903 ,11.86298 
264 ,48.1603 ,1.07557 ,1.19876 ,11.76225 
265 ,48.3367 ,1.07735 ,1.18850 ,11.66151 
266 ,48.5126 ,1.07910 ,1.17138 ,11.49362 
267 ,48.6889 ,1.08087 ,1.17823 ,11.56078 
268 ,48.8969 ,1.08289 ,1.15427 ,11.32573 
269 ,49.0889 ,1.08484 ,1.14058 ,11.19142 
270 ,49.2650 ,1.08659 ,1.12005 ,10.98995 
271 ,49.4411 ,1.08837 ,1.10636 ,10.85563 
272 ,49.6171 ,1.09011 ,1.08925 ,10.68774 
273 ,49.7932 ,1.09190 ,1.09952 ,10.78848 
274 ,49.9694 ,1.09366 ,1.07214 ,10.51985 
275 ,50.1613 ,1.09550 ,1.06530 ,10.45270 
276 ,50.3376 ,1.09732 ,1.04476 ,10.25123 
277 ,50.5295 ,1.09924 ,1.04134 ,10.21765 
278 ,50.6895 ,1.10094 ,1.02081 ,10.01618 
279 ,50.8655 ,1.10260 ,1.03108 ,10.11691 
280 ,51.0418 ,1.10439 ,0.99685 ,9.78113 
281 ,51.2337 ,1.10628 ,0.99001 ,9.71397 
282 ,51.4101 ,1.10805 ,0.98317 ,9.64682 
283 ,51.6019 ,1.10999 ,0.95921 ,9.41177 
284 ,51.7776 ,1.11171 ,0.94894 ,9.31103 
285 ,51.9701 ,1.11360 ,0.95237 ,9.34461 
286 ,52.1461 ,1.11541 ,0.92499 ,9.07598 
287 ,52.3222 ,1.11717 ,0.90788 ,8.90809 
288 ,52.5303 ,1.11921 ,0.91130 ,8.94167 
289 ,52.7063 ,1.12101 ,0.90103 ,8.84094 
290 ,52.8823 ,1.12277 ,0.88734 ,8.70662 
291 ,53.0586 ,1.12453 ,0.85997 ,8.43800 
292 ,53.2505 ,1.12641 ,0.85997 ,8.43800 
293 ,53.4267 ,1.12821 ,0.84628 ,8.30368 
294 ,53.6188 ,1.13013 ,0.81548 ,8.00148 
295 ,53.8106 ,1.13200 ,0.82232 ,8.06864 
296 ,53.9868 ,1.13385 ,0.81548 ,8.00148 
297 ,54.1790 ,1.13568 ,0.79495 ,7.80001 
298 ,54.3551 ,1.13751 ,0.78126 ,7.66570 
299 ,54.5313 ,1.13921 ,0.77784 ,7.63212 
300 ,54.7228 ,1.14116 ,0.75388 ,7.39707 
301 ,54.8992 ,1.14291 ,0.74019 ,7.26276 
302 ,55.0754 ,1.14468 ,0.71966 ,7.06129 
303 ,55.2514 ,1.14647 ,0.71624 ,7.02771 
304 ,55.4276 ,1.14819 ,0.72650 ,7.12844 
305 ,55.6196 ,1.15006 ,0.69228 ,6.79266 
306 ,55.8117 ,1.15202 ,0.66833 ,6.55761 
307 ,56.0037 ,1.15396 ,0.67859 ,6.65835 
308 ,56.1958 ,1.15584 ,0.65806 ,6.45688 
309 ,56.3878 ,1.15781 ,0.65464 ,6.42330 
310 ,56.5798 ,1.15962 ,0.63410 ,6.22183 
311 ,56.7560 ,1.16157 ,0.62384 ,6.12109 
312 ,56.9320 ,1.16328 ,0.61357 ,6.02036 
313 ,57.1242 ,1.16505 ,0.59988 ,5.88605 
314 ,57.3323 ,1.16717 ,0.58619 ,5.75173 
315 ,57.5244 ,1.16918 ,0.57593 ,5.65100 
316 ,57.7003 ,1.17094 ,0.56566 ,5.55026 
317 ,57.8924 ,1.17282 ,0.54855 ,5.38237 
318 ,58.0686 ,1.17459 ,0.54855 ,5.38237 
319 ,58.2446 ,1.17638 ,0.52802 ,5.18090 
320 ,58.4206 ,1.17808 ,0.51433 ,5.04659 
321 ,58.6128 ,1.18001 ,0.49380 ,4.84512 
322 ,58.8048 ,1.18198 ,0.49722 ,4.87870 
323 ,58.9810 ,1.18371 ,0.47326 ,4.64365 
324 ,59.1891 ,1.18575 ,0.45273 ,4.44218 
325 ,59.3812 ,1.18772 ,0.44246 ,4.34144 
326 ,59.5572 ,1.18950 ,0.42535 ,4.17355 
327 ,59.7489 ,1.19142 ,0.42877 ,4.20713 
328 ,59.9253 ,1.19316 ,0.44246 ,4.34144 
329 ,60.1171 ,1.19508 ,0.40140 ,3.93850 
330 ,60.3094 ,1.19699 ,0.40482 ,3.97208 
331 ,60.4855 ,1.19877 ,0.39455 ,3.87135 
332 ,60.6776 ,1.20056 ,0.37744 ,3.70346 
333 ,60.8696 ,1.20256 ,0.36718 ,3.60272 
334 ,61.0457 ,1.20439 ,0.36718 ,3.60272 
335 ,61.2214 ,1.20616 ,0.34664 ,3.40125 
336 ,61.3978 ,1.20788 ,0.32269 ,3.16620 
337 ,61.5738 ,1.20961 ,0.30900 ,3.03189 
338 ,61.7500 ,1.21139 ,0.30900 ,3.03189 
339 ,61.9260 ,1.21317 ,0.30900 ,3.03189 
340 ,62.1022 ,1.21493 ,0.28504 ,2.79684 
341 ,62.2937 ,1.21677 ,0.27820 ,2.72969 
342 ,62.4703 ,1.21860 ,0.26109 ,2.56179 
343 ,62.6463 ,1.22040 ,0.25424 ,2.49464 
344 ,62.8224 ,1.22213 ,0.25424 ,2.49464 
345 ,62.9986 ,1.22390 ,0.22687 ,2.22601 
346 ,63.1905 ,1.22582 ,0.21318 ,2.09170 
347 ,63.3666 ,1.22760 ,0.21660 ,2.12528 
348 ,63.5427 ,1.22929 ,0.19607 ,1.92381 
349 ,63.7347 ,1.23120 ,0.17896 ,1.75592 
350 ,63.9110 ,1.23302 ,0.16527 ,1.62160 
351 ,64.1030 ,1.23490 ,0.16527 ,1.62160 
352 ,64.2949 ,1.23675 ,0.14816 ,1.45371 
353 ,64.4711 ,1.23862 ,0.13789 ,1.35298 
354 ,64.6628 ,1.24058 ,0.11393 ,1.11793 
355 ,64.8393 ,1.24225 ,0.11051 ,1.08435 
356 ,65.0469 ,1.24436 ,0.09682 ,0.95004 
357 ,65.2230 ,1.24609 ,0.10025 ,0.98361 
358 ,65.3991 ,1.24793 ,0.08314 ,0.81572 
359 ,65.5752 ,1.24965 ,0.07629 ,0.74857 
360 ,65.7352 ,1.25136 ,0.04549 ,0.44636 
361 ,65.9115 ,1.25305 ,0.03865 ,0.37920 
362 ,66.1197 ,1.25498 ,0.04549 ,0.44636 
363 ,66.3114 ,1.25704 ,0.01469 ,0.14416 
364 ,66.4875 ,1.25872 ,0.01469 ,0.14416 
365 ,66.6797 ,1.26058 ,0.01469 ,0.14416 
366 ,66.8561 ,1.26246 ,-0.00584 ,-0.05731 
367 ,67.0320 ,1.26420 ,-0.00926 ,-0.09089 
368 ,67.2241 ,1.26609 ,-0.01269 ,-0.12447 
369 ,67.4003 ,1.26790 ,-0.02637 ,-0.25878 
370 ,67.5761 ,1.26963 ,-0.05033 ,-0.49383 
371 ,67.7524 ,1.27137 ,-0.06744 ,-0.66172 
372 ,67.9283 ,1.27319 ,-0.06744 ,-0.66172 
373 ,68.1041 ,1.27492 ,-0.07428 ,-0.72888 
374 ,68.2805 ,1.27670 ,-0.06402 ,-0.62814 
375 ,68.4566 ,1.27841 ,-0.08797 ,-0.86319 
376 ,68.6324 ,1.28019 ,-0.10851 ,-1.06466 
377 ,68.8090 ,1.28199 ,-0.12562 ,-1.23255 
378 ,69.0006 ,1.28386 ,-0.12219 ,-1.19898 
379 ,69.1930 ,1.28580 ,-0.14273 ,-1.40045 
380 ,69.3689 ,1.28755 ,-0.13931 ,-1.36687 
381 ,69.5611 ,1.28943 ,-0.13931 ,-1.36687 
382 ,69.7531 ,1.29138 ,-0.16326 ,-1.60191 
383 ,69.9292 ,1.29314 ,-0.17695 ,-1.73623 
384 ,70.1212 ,1.29508 ,-0.17011 ,-1.66907 
385 ,70.2975 ,1.29683 ,-0.19064 ,-1.87054 
386 ,70.4736 ,1.29865 ,-0.20433 ,-2.00485 
387 ,70.6496 ,1.30036 ,-0.22144 ,-2.17275 
388 ,70.8256 ,1.30214 ,-0.23170 ,-2.27348 
389 ,71.0017 ,1.30390 ,-0.22486 ,-2.20632 
390 ,71.1778 ,1.30563 ,-0.23513 ,-2.30706 
391 ,71.3539 ,1.30743 ,-0.25224 ,-2.47495 
392 ,71.5298 ,1.30922 ,-0.26250 ,-2.57569 
393 ,71.7218 ,1.31107 ,-0.24881 ,-2.44137 
394 ,71.9142 ,1.31298 ,-0.27619 ,-2.71000 
395 ,72.1062 ,1.31495 ,-0.28646 ,-2.81073 
396 ,72.2821 ,1.31665 ,-0.30357 ,-2.97863 
397 ,72.4903 ,1.31871 ,-0.30357 ,-2.97863 
398 ,72.6665 ,1.32049 ,-0.31384 ,-3.07936 
399 ,72.8742 ,1.32257 ,-0.33095 ,-3.24725 
400 ,73.0501 ,1.32439 ,-0.34806 ,-3.41514 
401 ,73.2263 ,1.32608 ,-0.35490 ,-3.48230 
402 ,73.4027 ,1.32791 ,-0.35148 ,-3.44872 
403 ,73.5789 ,1.32966 ,-0.35490 ,-3.48230 
404 ,73.7547 ,1.33140 ,-0.36859 ,-3.61661 
405 ,73.9307 ,1.33312 ,-0.38228 ,-3.75093 
406 ,74.1070 ,1.33493 ,-0.40281 ,-3.95240 
407 ,74.2987 ,1.33686 ,-0.38228 ,-3.75093 
408 ,74.4748 ,1.33858 ,-0.40966 ,-4.01955 
409 ,74.6507 ,1.34035 ,-0.41650 ,-4.08671 
410 ,74.8273 ,1.34215 ,-0.44046 ,-4.32176 
411 ,75.0193 ,1.34410 ,-0.44730 ,-4.38891 
412 ,75.1956 ,1.34579 ,-0.44730 ,-4.38891 
413 ,75.3875 ,1.34777 ,-0.44730 ,-4.38891 
414 ,75.5635 ,1.34951 ,-0.47810 ,-4.69112 
415 ,75.7397 ,1.35127 ,-0.45072 ,-4.42249 
416 ,75.9316 ,1.35312 ,-0.48494 ,-4.75828 
417 ,76.1078 ,1.35499 ,-0.48494 ,-4.75828 
418 ,76.2839 ,1.35671 ,-0.49863 ,-4.89259 
419 ,76.4599 ,1.35843 ,-0.49521 ,-4.85901 
420 ,76.6361 ,1.36021 ,-0.51917 ,-5.09406 
421 ,76.8282 ,1.36214 ,-0.53285 ,-5.22837 
422 ,77.0045 ,1.36392 ,-0.52943 ,-5.19479 
423 ,77.1803 ,1.36566 ,-0.52943 ,-5.19479 
424 ,77.3724 ,1.36758 ,-0.54654 ,-5.36268 
425 ,77.5485 ,1.36933 ,-0.57050 ,-5.59773 
426 ,77.7246 ,1.37109 ,-0.55339 ,-5.42984 
427 ,77.9166 ,1.37292 ,-0.57392 ,-5.63131 
428 ,78.0926 ,1.37481 ,-0.57050 ,-5.59773 
429 ,78.2686 ,1.37655 ,-0.60472 ,-5.93352 
430 ,78.4768 ,1.37848 ,-0.58761 ,-5.76562 
431 ,78.6528 ,1.38044 ,-0.61499 ,-6.03425 
432 ,78.8450 ,1.38230 ,-0.62525 ,-6.13499 
433 ,79.0209 ,1.38404 ,-0.61841 ,-6.06783 
434 ,79.1968 ,1.38580 ,-0.62525 ,-6.13499 
435 ,79.3892 ,1.38770 ,-0.63552 ,-6.23572 
436 ,79.5812 ,1.38965 ,-0.64236 ,-6.30288 
437 ,79.7573 ,1.39140 ,-0.65263 ,-6.40361 
438 ,79.9335 ,1.39315 ,-0.66974 ,-6.57150 
439 ,80.1097 ,1.39497 ,-0.69370 ,-6.80655 
440 ,80.2853 ,1.39666 ,-0.68001 ,-6.67224 
441 ,80.4617 ,1.39845 ,-0.68685 ,-6.73940 
442 ,80.6538 ,1.40038 ,-0.69027 ,-6.77297 
443 ,80.8298 ,1.40214 ,-0.72107 ,-7.07518 
444 ,81.0058 ,1.40389 ,-0.72107 ,-7.07518 
445 ,81.1819 ,1.40567 ,-0.72107 ,-7.07518 
446 ,81.3579 ,1.40745 ,-0.72450 ,-7.10876 
447 ,81.5501 ,1.40933 ,-0.75187 ,-7.37738 
448 ,81.7582 ,1.41134 ,-0.74161 ,-7.27665 
449 ,81.9343 ,1.41319 ,-0.74845 ,-7.34380 
450 ,82.1264 ,1.41502 ,-0.76898 ,-7.54527 
451 ,82.3024 ,1.41686 ,-0.77925 ,-7.64601 
452 ,82.4621 ,1.41858 ,-0.76898 ,-7.54527 
453 ,82.6384 ,1.42018 ,-0.78267 ,-7.67959 
454 ,82.8145 ,1.42195 ,-0.79978 ,-7.84748 
455 ,82.9907 ,1.42371 ,-0.80663 ,-7.91464 
456 ,83.1667 ,1.42552 ,-0.82032 ,-8.04895 
457 ,83.3427 ,1.42731 ,-0.82374 ,-8.08253 
458 ,83.5186 ,1.42900 ,-0.82716 ,-8.11611 
459 ,83.7108 ,1.43087 ,-0.84085 ,-8.25042 
460 ,83.8871 ,1.43268 ,-0.85112 ,-8.35115 
461 ,84.0631 ,1.43451 ,-0.85454 ,-8.38473 
462 ,84.2392 ,1.43623 ,-0.84769 ,-8.31758 
463 ,84.4311 ,1.43805 ,-0.86138 ,-8.45189 
