Data stamp = , 02-04-2022 12:29:45 149

Calibration Values: 
Slope = , 26.54 , g/V 
Offset Voltage at no contact = , -0.501760 , V 

No , Time , Stage Position ,   Mass , Force 
   ,  (s) ,      (mm)      ,   (g)  , (mN)  

1 ,0.0000 ,0.64943 ,5.05212 ,49.57142 
2 ,0.2133 ,0.64952 ,5.07608 ,49.80646 
3 ,0.5015 ,0.65027 ,5.04528 ,49.50426 
4 ,0.6937 ,0.65148 ,5.04528 ,49.50426 
5 ,0.8854 ,0.65312 ,5.04528 ,49.50426 
6 ,1.0776 ,0.65491 ,5.04185 ,49.47068 
7 ,1.2857 ,0.65695 ,5.04185 ,49.47068 
8 ,1.4779 ,0.65886 ,5.03501 ,49.40352 
9 ,1.6697 ,0.66086 ,5.02817 ,49.33637 
10 ,1.8462 ,0.66266 ,5.01106 ,49.16848 
11 ,2.0218 ,0.66443 ,5.01448 ,49.20205 
12 ,2.1983 ,0.66619 ,5.00079 ,49.06774 
13 ,2.4062 ,0.66819 ,4.97341 ,48.79911 
14 ,2.5824 ,0.66997 ,4.95630 ,48.63122 
15 ,2.7904 ,0.67209 ,4.94261 ,48.49691 
16 ,2.9664 ,0.67387 ,4.92550 ,48.32902 
17 ,3.1425 ,0.67559 ,4.90497 ,48.12755 
18 ,3.3187 ,0.67736 ,4.89812 ,48.06039 
19 ,3.5106 ,0.67928 ,4.88786 ,47.95966 
20 ,3.6867 ,0.68103 ,4.85021 ,47.59030 
21 ,3.8629 ,0.68275 ,4.83995 ,47.48956 
22 ,4.0550 ,0.68460 ,4.82968 ,47.38883 
23 ,4.2471 ,0.68665 ,4.79204 ,47.01946 
24 ,4.4391 ,0.68856 ,4.80230 ,47.12020 
25 ,4.6152 ,0.69036 ,4.77835 ,46.88515 
26 ,4.7913 ,0.69214 ,4.77150 ,46.81800 
27 ,4.9672 ,0.69388 ,4.74070 ,46.51579 
28 ,5.1429 ,0.69559 ,4.72359 ,46.34790 
29 ,5.3194 ,0.69737 ,4.71333 ,46.24716 
30 ,5.5113 ,0.69931 ,4.68595 ,45.97854 
31 ,5.7197 ,0.70136 ,4.67568 ,45.87780 
32 ,5.9115 ,0.70324 ,4.64488 ,45.57560 
33 ,6.0878 ,0.70505 ,4.62093 ,45.34055 
34 ,6.2634 ,0.70681 ,4.59697 ,45.10550 
35 ,6.4399 ,0.70856 ,4.60382 ,45.17266 
36 ,6.6160 ,0.71035 ,4.58671 ,45.00477 
37 ,6.8088 ,0.71228 ,4.54222 ,44.56825 
38 ,7.0002 ,0.71409 ,4.52853 ,44.43394 
39 ,7.1923 ,0.71605 ,4.50800 ,44.23247 
40 ,7.3682 ,0.71786 ,4.48062 ,43.96384 
41 ,7.5443 ,0.71961 ,4.46351 ,43.79595 
42 ,7.7204 ,0.72136 ,4.45324 ,43.69521 
43 ,7.8965 ,0.72314 ,4.43955 ,43.56090 
44 ,8.0565 ,0.72483 ,4.42244 ,43.39301 
45 ,8.2325 ,0.72652 ,4.39849 ,43.15796 
46 ,8.4087 ,0.72837 ,4.35742 ,42.75502 
47 ,8.6011 ,0.73012 ,4.36084 ,42.78860 
48 ,8.7929 ,0.73198 ,4.34716 ,42.65429 
49 ,8.9689 ,0.73388 ,4.31978 ,42.38566 
50 ,9.1610 ,0.73576 ,4.29582 ,42.15061 
51 ,9.3370 ,0.73757 ,4.28556 ,42.04988 
52 ,9.5612 ,0.73964 ,4.25133 ,41.71409 
53 ,9.7691 ,0.74174 ,4.23765 ,41.57978 
54 ,9.9453 ,0.74360 ,4.20685 ,41.27758 
55 ,10.1372 ,0.74558 ,4.19658 ,41.17684 
56 ,10.3294 ,0.74749 ,4.17262 ,40.94179 
57 ,10.5054 ,0.74915 ,4.15209 ,40.74032 
58 ,10.6816 ,0.75096 ,4.13840 ,40.60601 
59 ,10.8577 ,0.75270 ,4.11445 ,40.37096 
60 ,11.0497 ,0.75456 ,4.09734 ,40.20307 
61 ,11.2418 ,0.75656 ,4.07338 ,39.96802 
62 ,11.4180 ,0.75834 ,4.07338 ,39.96802 
63 ,11.5779 ,0.76007 ,4.04943 ,39.73297 
64 ,11.7701 ,0.76186 ,4.01520 ,39.39719 
65 ,11.9462 ,0.76358 ,3.99125 ,39.16214 
66 ,12.1382 ,0.76558 ,3.97414 ,38.99425 
67 ,12.3142 ,0.76726 ,3.96729 ,38.92709 
68 ,12.5064 ,0.76918 ,3.94334 ,38.69205 
69 ,12.6825 ,0.77097 ,3.92281 ,38.49058 
70 ,12.8743 ,0.77290 ,3.92281 ,38.49058 
71 ,13.0503 ,0.77460 ,3.87832 ,38.05406 
72 ,13.2265 ,0.77641 ,3.84752 ,37.75185 
73 ,13.4187 ,0.77832 ,3.85436 ,37.81901 
74 ,13.5945 ,0.78011 ,3.84410 ,37.71828 
75 ,13.7870 ,0.78195 ,3.83383 ,37.61754 
76 ,13.9786 ,0.78393 ,3.79276 ,37.21460 
77 ,14.1551 ,0.78570 ,3.78250 ,37.11387 
78 ,14.3630 ,0.78768 ,3.75512 ,36.84524 
79 ,14.5392 ,0.78949 ,3.74485 ,36.74450 
80 ,14.7149 ,0.79128 ,3.73459 ,36.64377 
81 ,14.8749 ,0.79297 ,3.70379 ,36.34157 
82 ,15.0511 ,0.79459 ,3.68325 ,36.14010 
83 ,15.2433 ,0.79658 ,3.67641 ,36.07294 
84 ,15.4353 ,0.79849 ,3.65930 ,35.90505 
85 ,15.6116 ,0.80023 ,3.62850 ,35.60284 
86 ,15.8037 ,0.80221 ,3.61139 ,35.43495 
87 ,15.9797 ,0.80403 ,3.60112 ,35.33422 
88 ,16.1559 ,0.80571 ,3.59428 ,35.26706 
89 ,16.3480 ,0.80760 ,3.55321 ,34.86412 
90 ,16.5239 ,0.80940 ,3.53610 ,34.69623 
91 ,16.6998 ,0.81116 ,3.53610 ,34.69623 
92 ,16.8600 ,0.81285 ,3.52584 ,34.59549 
93 ,17.0361 ,0.81445 ,3.50530 ,34.39402 
94 ,17.2121 ,0.81625 ,3.48135 ,34.15898 
95 ,17.3883 ,0.81799 ,3.45397 ,33.89035 
96 ,17.5803 ,0.81990 ,3.45739 ,33.92393 
97 ,17.7563 ,0.82167 ,3.44713 ,33.82319 
98 ,17.9325 ,0.82343 ,3.42317 ,33.58814 
99 ,18.1086 ,0.82527 ,3.40264 ,33.38667 
100 ,18.2846 ,0.82696 ,3.38210 ,33.18520 
101 ,18.4605 ,0.82874 ,3.39579 ,33.31952 
102 ,18.6528 ,0.83066 ,3.37184 ,33.08447 
103 ,18.8285 ,0.83238 ,3.34446 ,32.81584 
104 ,19.0049 ,0.83416 ,3.32393 ,32.61437 
105 ,19.2130 ,0.83616 ,3.33762 ,32.74869 
106 ,19.3888 ,0.83802 ,3.29313 ,32.31217 
107 ,19.5811 ,0.83992 ,3.29313 ,32.31217 
108 ,19.7571 ,0.84171 ,3.27944 ,32.17786 
109 ,19.9328 ,0.84344 ,3.25206 ,31.90923 
110 ,20.1093 ,0.84522 ,3.23153 ,31.70776 
111 ,20.3174 ,0.84725 ,3.23153 ,31.70776 
112 ,20.5250 ,0.84938 ,3.19731 ,31.37198 
113 ,20.7176 ,0.85115 ,3.20073 ,31.40555 
114 ,20.8936 ,0.85309 ,3.18704 ,31.27124 
115 ,21.0696 ,0.85481 ,3.14597 ,30.86830 
116 ,21.2458 ,0.85656 ,3.13913 ,30.80115 
117 ,21.4378 ,0.85846 ,3.13913 ,30.80115 
118 ,21.6139 ,0.86026 ,3.12886 ,30.70041 
119 ,21.8060 ,0.86214 ,3.10149 ,30.43178 
120 ,21.9821 ,0.86394 ,3.08438 ,30.26389 
121 ,22.1742 ,0.86580 ,3.06726 ,30.09600 
122 ,22.3821 ,0.86790 ,3.06726 ,30.09600 
123 ,22.5582 ,0.86964 ,3.05015 ,29.92811 
124 ,22.7344 ,0.87144 ,3.02278 ,29.65948 
125 ,22.9105 ,0.87325 ,3.00224 ,29.45801 
126 ,23.0862 ,0.87497 ,2.98171 ,29.25654 
127 ,23.2783 ,0.87685 ,2.98855 ,29.32370 
128 ,23.4545 ,0.87864 ,2.95776 ,29.02150 
129 ,23.6464 ,0.88055 ,2.95776 ,29.02150 
130 ,23.8387 ,0.88252 ,2.94407 ,28.88718 
131 ,24.0146 ,0.88423 ,2.91669 ,28.61856 
132 ,24.1746 ,0.88598 ,2.89273 ,28.38351 
133 ,24.3510 ,0.88759 ,2.88931 ,28.34993 
134 ,24.5430 ,0.88950 ,2.88589 ,28.31635 
135 ,24.7192 ,0.89125 ,2.86878 ,28.14846 
136 ,24.8953 ,0.89310 ,2.85509 ,28.01415 
137 ,25.0712 ,0.89478 ,2.83798 ,27.84625 
138 ,25.2473 ,0.89653 ,2.82429 ,27.71194 
139 ,25.4233 ,0.89831 ,2.80718 ,27.54405 
140 ,25.6317 ,0.90027 ,2.81060 ,27.57763 
141 ,25.8079 ,0.90221 ,2.76611 ,27.14111 
142 ,25.9837 ,0.90398 ,2.75927 ,27.07395 
143 ,26.1759 ,0.90587 ,2.76611 ,27.14111 
144 ,26.3516 ,0.90761 ,2.72847 ,26.77175 
145 ,26.5439 ,0.90951 ,2.71478 ,26.63744 
146 ,26.7360 ,0.91137 ,2.69767 ,26.46954 
147 ,26.9282 ,0.91335 ,2.68056 ,26.30165 
148 ,27.1040 ,0.91514 ,2.67372 ,26.23450 
149 ,27.2960 ,0.91693 ,2.67372 ,26.23450 
150 ,27.4883 ,0.91889 ,2.63607 ,25.86514 
151 ,27.6804 ,0.92088 ,2.64292 ,25.93229 
152 ,27.8564 ,0.92260 ,2.61212 ,25.63009 
153 ,28.0326 ,0.92440 ,2.59501 ,25.46220 
154 ,28.2246 ,0.92636 ,2.58474 ,25.36146 
155 ,28.4166 ,0.92822 ,2.57447 ,25.26073 
156 ,28.5927 ,0.92999 ,2.54025 ,24.92494 
157 ,28.7689 ,0.93176 ,2.52998 ,24.82421 
158 ,28.9609 ,0.93371 ,2.54025 ,24.92494 
159 ,29.1368 ,0.93542 ,2.50945 ,24.62274 
160 ,29.3291 ,0.93728 ,2.49918 ,24.52200 
161 ,29.5051 ,0.93925 ,2.48207 ,24.35411 
162 ,29.6972 ,0.94103 ,2.46154 ,24.15264 
163 ,29.8732 ,0.94285 ,2.45812 ,24.11906 
164 ,30.0493 ,0.94455 ,2.42732 ,23.81686 
165 ,30.2416 ,0.94655 ,2.42048 ,23.74970 
166 ,30.4335 ,0.94842 ,2.40336 ,23.58181 
167 ,30.6095 ,0.95018 ,2.37599 ,23.31318 
168 ,30.8016 ,0.95209 ,2.37941 ,23.34676 
169 ,30.9775 ,0.95385 ,2.37941 ,23.34676 
170 ,31.1538 ,0.95563 ,2.34519 ,23.01098 
171 ,31.3300 ,0.95738 ,2.32123 ,22.77593 
172 ,31.5057 ,0.95913 ,2.32123 ,22.77593 
173 ,31.7140 ,0.96107 ,2.30070 ,22.57446 
174 ,31.9062 ,0.96312 ,2.28701 ,22.44015 
175 ,32.0822 ,0.96487 ,2.27332 ,22.30584 
176 ,32.2902 ,0.96693 ,2.25621 ,22.13794 
177 ,32.4662 ,0.96872 ,2.23226 ,21.90290 
178 ,32.6423 ,0.97046 ,2.23568 ,21.93647 
179 ,32.8185 ,0.97226 ,2.21515 ,21.73500 
180 ,32.9945 ,0.97407 ,2.18777 ,21.46638 
181 ,33.1866 ,0.97586 ,2.18092 ,21.39922 
182 ,33.3626 ,0.97776 ,2.15697 ,21.16417 
183 ,33.5547 ,0.97954 ,2.13644 ,20.96270 
184 ,33.7308 ,0.98137 ,2.12617 ,20.86197 
185 ,33.9389 ,0.98331 ,2.12959 ,20.89555 
186 ,34.1148 ,0.98518 ,2.09537 ,20.55976 
187 ,34.2911 ,0.98701 ,2.07484 ,20.35829 
188 ,34.4669 ,0.98875 ,2.07826 ,20.39187 
189 ,34.6590 ,0.99056 ,2.07141 ,20.32472 
190 ,34.8512 ,0.99257 ,2.03719 ,19.98893 
191 ,35.0430 ,0.99451 ,2.04061 ,20.02251 
192 ,35.2192 ,0.99620 ,2.02693 ,19.88820 
193 ,35.3953 ,0.99805 ,1.99613 ,19.58599 
194 ,35.5715 ,0.99978 ,1.98244 ,19.45168 
195 ,35.7630 ,1.00169 ,1.98586 ,19.48526 
196 ,35.9556 ,1.00350 ,1.95506 ,19.18305 
197 ,36.1477 ,1.00552 ,1.94137 ,19.04874 
198 ,36.3236 ,1.00733 ,1.93453 ,18.98158 
199 ,36.5158 ,1.00920 ,1.90031 ,18.64580 
200 ,36.6919 ,1.01099 ,1.88662 ,18.51149 
201 ,36.8839 ,1.01287 ,1.90031 ,18.64580 
202 ,37.0759 ,1.01479 ,1.86608 ,18.31002 
203 ,37.2680 ,1.01672 ,1.85582 ,18.20928 
204 ,37.4441 ,1.01850 ,1.84213 ,18.07497 
205 ,37.6203 ,1.02022 ,1.83528 ,18.00781 
206 ,37.7961 ,1.02199 ,1.80106 ,17.67203 
207 ,37.9723 ,1.02376 ,1.78395 ,17.50414 
208 ,38.1805 ,1.02581 ,1.78737 ,17.53772 
209 ,38.3564 ,1.02762 ,1.77369 ,17.40340 
210 ,38.5327 ,1.02937 ,1.75315 ,17.20193 
211 ,38.7084 ,1.03115 ,1.73604 ,17.03404 
212 ,38.8848 ,1.03287 ,1.72920 ,16.96689 
213 ,39.0768 ,1.03472 ,1.71209 ,16.79899 
214 ,39.2689 ,1.03674 ,1.69840 ,16.66468 
215 ,39.4446 ,1.03844 ,1.68813 ,16.56395 
216 ,39.6206 ,1.04024 ,1.67444 ,16.42963 
217 ,39.7967 ,1.04202 ,1.64707 ,16.16101 
218 ,39.9730 ,1.04377 ,1.64364 ,16.12743 
219 ,40.1813 ,1.04583 ,1.61969 ,15.89238 
220 ,40.3895 ,1.04791 ,1.61627 ,15.85880 
221 ,40.5655 ,1.04973 ,1.59231 ,15.62375 
222 ,40.7574 ,1.05161 ,1.56836 ,15.38871 
223 ,40.9337 ,1.05338 ,1.55467 ,15.25439 
224 ,41.1097 ,1.05520 ,1.56151 ,15.32155 
225 ,41.2859 ,1.05692 ,1.53756 ,15.08650 
226 ,41.4619 ,1.05867 ,1.52387 ,14.95219 
227 ,41.6538 ,1.06050 ,1.50333 ,14.75072 
228 ,41.8300 ,1.06234 ,1.48280 ,14.54925 
229 ,42.0058 ,1.06410 ,1.49307 ,14.64998 
230 ,42.1818 ,1.06581 ,1.47938 ,14.51567 
231 ,42.3582 ,1.06759 ,1.45200 ,14.24704 
232 ,42.5342 ,1.06937 ,1.43147 ,14.04557 
233 ,42.7265 ,1.07132 ,1.43489 ,14.07915 
234 ,42.9026 ,1.07311 ,1.43147 ,14.04557 
235 ,43.0946 ,1.07487 ,1.40409 ,13.77695 
236 ,43.2866 ,1.07690 ,1.38356 ,13.57548 
237 ,43.4788 ,1.07884 ,1.35276 ,13.27327 
238 ,43.6547 ,1.08062 ,1.33907 ,13.13896 
239 ,43.8308 ,1.08234 ,1.33565 ,13.10538 
240 ,44.0072 ,1.08407 ,1.32880 ,13.03822 
241 ,44.1830 ,1.08594 ,1.31512 ,12.90391 
242 ,44.3591 ,1.08761 ,1.29116 ,12.66886 
243 ,44.5350 ,1.08936 ,1.27747 ,12.53455 
244 ,44.7112 ,1.09114 ,1.27747 ,12.53455 
245 ,44.9033 ,1.09302 ,1.26720 ,12.43381 
246 ,45.0790 ,1.09478 ,1.23298 ,12.09803 
247 ,45.2711 ,1.09667 ,1.23641 ,12.13161 
248 ,45.4475 ,1.09849 ,1.22614 ,12.03088 
249 ,45.6394 ,1.10043 ,1.20903 ,11.86298 
250 ,45.8157 ,1.10213 ,1.17823 ,11.56078 
251 ,46.0079 ,1.10413 ,1.18850 ,11.66151 
252 ,46.2319 ,1.10621 ,1.17138 ,11.49362 
253 ,46.4076 ,1.10809 ,1.16454 ,11.42647 
254 ,46.5841 ,1.10987 ,1.14401 ,11.22500 
255 ,46.7761 ,1.11172 ,1.12005 ,10.98995 
256 ,46.9521 ,1.11363 ,1.12690 ,11.05710 
257 ,47.1282 ,1.11526 ,1.10636 ,10.85563 
258 ,47.3044 ,1.11709 ,1.08925 ,10.68774 
259 ,47.4643 ,1.11879 ,1.06530 ,10.45270 
260 ,47.6404 ,1.12045 ,1.05503 ,10.35196 
261 ,47.8166 ,1.12219 ,1.02081 ,10.01618 
262 ,47.9926 ,1.12395 ,1.01396 ,9.94902 
263 ,48.1686 ,1.12567 ,1.02423 ,10.04976 
264 ,48.3606 ,1.12759 ,1.00370 ,9.84829 
265 ,48.5369 ,1.12937 ,0.98659 ,9.68039 
266 ,48.7128 ,1.13114 ,0.97974 ,9.61324 
267 ,48.8890 ,1.13290 ,0.97290 ,9.54608 
268 ,49.0650 ,1.13461 ,0.95237 ,9.34461 
269 ,49.2411 ,1.13640 ,0.93183 ,9.14314 
270 ,49.4333 ,1.13837 ,0.93183 ,9.14314 
271 ,49.6253 ,1.14030 ,0.93183 ,9.14314 
272 ,49.8017 ,1.14202 ,0.90103 ,8.84094 
273 ,49.9774 ,1.14377 ,0.89761 ,8.80736 
274 ,50.1696 ,1.14558 ,0.88734 ,8.70662 
275 ,50.3616 ,1.14752 ,0.87023 ,8.53873 
276 ,50.5374 ,1.14936 ,0.84628 ,8.30368 
277 ,50.7137 ,1.15112 ,0.83601 ,8.20295 
278 ,50.9059 ,1.15306 ,0.83943 ,8.23653 
279 ,51.0976 ,1.15491 ,0.80179 ,7.86717 
280 ,51.2740 ,1.15675 ,0.80521 ,7.90074 
281 ,51.4661 ,1.15865 ,0.78810 ,7.73285 
282 ,51.6420 ,1.16042 ,0.78810 ,7.73285 
283 ,51.8179 ,1.16218 ,0.74019 ,7.26276 
284 ,51.9942 ,1.16390 ,0.74361 ,7.29633 
285 ,52.1703 ,1.16571 ,0.74704 ,7.32991 
286 ,52.3623 ,1.16760 ,0.72650 ,7.12844 
287 ,52.5384 ,1.16938 ,0.69913 ,6.85982 
288 ,52.7144 ,1.17113 ,0.68886 ,6.75908 
289 ,52.8906 ,1.17292 ,0.69228 ,6.79266 
290 ,53.0667 ,1.17469 ,0.67859 ,6.65835 
291 ,53.2587 ,1.17655 ,0.65121 ,6.38972 
292 ,53.4506 ,1.17848 ,0.65464 ,6.42330 
293 ,53.6269 ,1.18024 ,0.64437 ,6.32256 
294 ,53.8028 ,1.18202 ,0.63068 ,6.18825 
295 ,53.9949 ,1.18387 ,0.61015 ,5.98678 
296 ,54.1711 ,1.18575 ,0.59646 ,5.85247 
297 ,54.3470 ,1.18743 ,0.60330 ,5.91962 
298 ,54.5230 ,1.18921 ,0.58619 ,5.75173 
299 ,54.6992 ,1.19098 ,0.55539 ,5.44953 
300 ,54.8913 ,1.19282 ,0.55539 ,5.44953 
301 ,55.0675 ,1.19467 ,0.54171 ,5.31522 
302 ,55.2595 ,1.19661 ,0.51433 ,5.04659 
303 ,55.4516 ,1.19846 ,0.51775 ,5.08017 
304 ,55.6276 ,1.20024 ,0.51433 ,5.04659 
305 ,55.8034 ,1.20199 ,0.49037 ,4.81154 
306 ,55.9797 ,1.20380 ,0.48353 ,4.74438 
307 ,56.1718 ,1.20569 ,0.47668 ,4.67723 
308 ,56.3639 ,1.20750 ,0.46300 ,4.54291 
309 ,56.5397 ,1.20932 ,0.43562 ,4.27429 
310 ,56.7160 ,1.21113 ,0.42193 ,4.13997 
311 ,56.9081 ,1.21295 ,0.42193 ,4.13997 
312 ,57.0840 ,1.21481 ,0.40824 ,4.00566 
313 ,57.2763 ,1.21667 ,0.39455 ,3.87135 
314 ,57.4524 ,1.21846 ,0.37402 ,3.66988 
315 ,57.6604 ,1.22044 ,0.37060 ,3.63630 
316 ,57.8365 ,1.22235 ,0.36375 ,3.56914 
317 ,57.9963 ,1.22406 ,0.35349 ,3.46841 
318 ,58.1886 ,1.22580 ,0.33980 ,3.33410 
319 ,58.3647 ,1.22763 ,0.31584 ,3.09905 
320 ,58.5567 ,1.22951 ,0.31242 ,3.06547 
321 ,58.7329 ,1.23134 ,0.29873 ,2.93116 
322 ,58.9249 ,1.23321 ,0.28847 ,2.83042 
323 ,59.1171 ,1.23512 ,0.28847 ,2.83042 
324 ,59.3093 ,1.23706 ,0.27135 ,2.66253 
325 ,59.5013 ,1.23900 ,0.24055 ,2.36032 
326 ,59.6773 ,1.24074 ,0.24055 ,2.36032 
327 ,59.8534 ,1.24244 ,0.23029 ,2.25959 
328 ,60.0292 ,1.24427 ,0.22344 ,2.19243 
329 ,60.2215 ,1.24611 ,0.20976 ,2.05812 
330 ,60.4294 ,1.24818 ,0.19607 ,1.92381 
331 ,60.6058 ,1.25003 ,0.18922 ,1.85665 
332 ,60.7818 ,1.25181 ,0.15842 ,1.55445 
333 ,60.9579 ,1.25357 ,0.15842 ,1.55445 
334 ,61.1495 ,1.25541 ,0.15158 ,1.48729 
335 ,61.3259 ,1.25721 ,0.14816 ,1.45371 
336 ,61.5023 ,1.25901 ,0.11393 ,1.11793 
337 ,61.6777 ,1.26070 ,0.10367 ,1.01719 
338 ,61.8539 ,1.26248 ,0.10367 ,1.01719 
339 ,62.0303 ,1.26425 ,0.11051 ,1.08435 
340 ,62.2063 ,1.26602 ,0.08314 ,0.81572 
341 ,62.3822 ,1.26774 ,0.05918 ,0.58067 
342 ,62.5585 ,1.26952 ,0.04207 ,0.41278 
343 ,62.7345 ,1.27128 ,0.05576 ,0.54710 
344 ,62.9109 ,1.27307 ,0.04207 ,0.41278 
345 ,63.0868 ,1.27481 ,0.02838 ,0.27847 
346 ,63.2628 ,1.27657 ,0.00443 ,0.04342 
347 ,63.4389 ,1.27835 ,0.00785 ,0.07700 
348 ,63.6629 ,1.28045 ,-0.00584 ,-0.05731 
349 ,63.8231 ,1.28228 ,-0.01953 ,-0.19163 
350 ,63.9990 ,1.28393 ,-0.01269 ,-0.12447 
351 ,64.1748 ,1.28565 ,-0.02295 ,-0.22520 
352 ,64.3351 ,1.28737 ,-0.04348 ,-0.42667 
353 ,64.5115 ,1.28902 ,-0.04348 ,-0.42667 
354 ,64.6874 ,1.29081 ,-0.05717 ,-0.56099 
355 ,64.8634 ,1.29259 ,-0.08455 ,-0.82961 
356 ,65.0394 ,1.29427 ,-0.09140 ,-0.89677 
357 ,65.2155 ,1.29609 ,-0.09482 ,-0.93035 
358 ,65.3754 ,1.29782 ,-0.09482 ,-0.93035 
359 ,65.5356 ,1.29940 ,-0.11193 ,-1.09824 
360 ,65.7117 ,1.30103 ,-0.11193 ,-1.09824 
361 ,65.8879 ,1.30289 ,-0.12904 ,-1.26613 
362 ,66.0799 ,1.30475 ,-0.15299 ,-1.50118 
363 ,66.2719 ,1.30664 ,-0.15299 ,-1.50118 
364 ,66.4480 ,1.30839 ,-0.16668 ,-1.63549 
365 ,66.6401 ,1.31031 ,-0.17353 ,-1.70265 
366 ,66.8163 ,1.31205 ,-0.18722 ,-1.83696 
367 ,67.0243 ,1.31412 ,-0.20433 ,-2.00485 
368 ,67.2004 ,1.31595 ,-0.22144 ,-2.17275 
369 ,67.3922 ,1.31785 ,-0.20775 ,-2.03843 
370 ,67.5686 ,1.31966 ,-0.20433 ,-2.00485 
371 ,67.7447 ,1.32142 ,-0.25908 ,-2.54211 
372 ,67.9367 ,1.32334 ,-0.24539 ,-2.40779 
373 ,68.1288 ,1.32524 ,-0.24539 ,-2.40779 
374 ,68.3046 ,1.32699 ,-0.27277 ,-2.67642 
375 ,68.4967 ,1.32885 ,-0.28304 ,-2.77716 
376 ,68.6889 ,1.33070 ,-0.28646 ,-2.81073 
377 ,68.8648 ,1.33259 ,-0.30357 ,-2.97863 
378 ,69.0411 ,1.33432 ,-0.31384 ,-3.07936 
379 ,69.2010 ,1.33604 ,-0.31041 ,-3.04578 
380 ,69.3612 ,1.33763 ,-0.33095 ,-3.24725 
381 ,69.5371 ,1.33929 ,-0.33437 ,-3.28083 
382 ,69.7135 ,1.34107 ,-0.32752 ,-3.21367 
383 ,69.9056 ,1.34296 ,-0.35148 ,-3.44872 
384 ,70.0973 ,1.34493 ,-0.36517 ,-3.58303 
385 ,70.2736 ,1.34664 ,-0.36175 ,-3.54946 
386 ,70.4657 ,1.34856 ,-0.38912 ,-3.81808 
387 ,70.6418 ,1.35034 ,-0.38912 ,-3.81808 
388 ,70.8178 ,1.35206 ,-0.39597 ,-3.88524 
389 ,70.9939 ,1.35387 ,-0.40281 ,-3.95240 
390 ,71.1700 ,1.35559 ,-0.40966 ,-4.01955 
391 ,71.3461 ,1.35733 ,-0.41308 ,-4.05313 
392 ,71.5221 ,1.35913 ,-0.44046 ,-4.32176 
393 ,71.6979 ,1.36093 ,-0.45072 ,-4.42249 
394 ,71.8899 ,1.36270 ,-0.44388 ,-4.35534 
395 ,72.0658 ,1.36459 ,-0.44388 ,-4.35534 
396 ,72.2419 ,1.36636 ,-0.46441 ,-4.55681 
397 ,72.4180 ,1.36808 ,-0.47468 ,-4.65754 
398 ,72.6101 ,1.36993 ,-0.47126 ,-4.62396 
399 ,72.7862 ,1.37175 ,-0.47810 ,-4.69112 
400 ,72.9628 ,1.37357 ,-0.49863 ,-4.89259 
401 ,73.2184 ,1.37595 ,-0.52601 ,-5.16121 
402 ,73.3948 ,1.37789 ,-0.49521 ,-4.85901 
403 ,73.6189 ,1.37998 ,-0.52259 ,-5.12764 
404 ,73.7947 ,1.38197 ,-0.52259 ,-5.12764 
405 ,74.0032 ,1.38377 ,-0.53628 ,-5.26195 
406 ,74.2272 ,1.38614 ,-0.55681 ,-5.46342 
407 ,74.4190 ,1.38807 ,-0.56708 ,-5.56415 
408 ,74.5952 ,1.38987 ,-0.56708 ,-5.56415 
409 ,74.7871 ,1.39179 ,-0.57050 ,-5.59773 
410 ,74.9470 ,1.39348 ,-0.59445 ,-5.83278 
411 ,75.1233 ,1.39516 ,-0.60130 ,-5.89994 
412 ,75.3475 ,1.39727 ,-0.59103 ,-5.79920 
413 ,75.5398 ,1.39930 ,-0.62525 ,-6.13499 
414 ,75.7315 ,1.40115 ,-0.60472 ,-5.93352 
415 ,75.9239 ,1.40306 ,-0.64921 ,-6.37003 
416 ,76.1317 ,1.40517 ,-0.63894 ,-6.26930 
417 ,76.3080 ,1.40698 ,-0.64236 ,-6.30288 
418 ,76.5161 ,1.40908 ,-0.65263 ,-6.40361 
419 ,76.7242 ,1.41107 ,-0.67316 ,-6.60508 
420 ,76.9160 ,1.41301 ,-0.66290 ,-6.50435 
421 ,77.1083 ,1.41502 ,-0.69370 ,-6.80655 
422 ,77.3164 ,1.41690 ,-0.68343 ,-6.70582 
423 ,77.4922 ,1.41884 ,-0.69027 ,-6.77297 
424 ,77.6844 ,1.42074 ,-0.71765 ,-7.04160 
425 ,77.8606 ,1.42252 ,-0.72107 ,-7.07518 
426 ,78.0363 ,1.42438 ,-0.72107 ,-7.07518 
427 ,78.2125 ,1.42599 ,-0.73134 ,-7.17591 
428 ,78.4048 ,1.42789 ,-0.75530 ,-7.41096 
429 ,78.5806 ,1.42964 ,-0.75530 ,-7.41096 
430 ,78.7729 ,1.43152 ,-0.76556 ,-7.51170 
431 ,78.9811 ,1.43364 ,-0.76556 ,-7.51170 
432 ,79.1568 ,1.43543 ,-0.77241 ,-7.57885 
433 ,79.3329 ,1.43722 ,-0.77241 ,-7.57885 
434 ,79.5413 ,1.43916 ,-0.78952 ,-7.74674 
435 ,79.7170 ,1.44107 ,-0.79978 ,-7.84748 
436 ,79.8933 ,1.44285 ,-0.78952 ,-7.74674 
437 ,80.1013 ,1.44486 ,-0.82032 ,-8.04895 
438 ,80.2775 ,1.44662 ,-0.79978 ,-7.84748 
439 ,80.4534 ,1.44846 ,-0.82716 ,-8.11611 
440 ,80.6455 ,1.45036 ,-0.84769 ,-8.31758 
441 ,80.8379 ,1.45225 ,-0.83401 ,-8.18326 
442 ,81.0296 ,1.45416 ,-0.84085 ,-8.25042 
443 ,81.2060 ,1.45594 ,-0.86138 ,-8.45189 
444 ,81.4141 ,1.45795 ,-0.85796 ,-8.41831 
445 ,81.5899 ,1.45983 ,-0.89560 ,-8.78767 
446 ,81.7983 ,1.46171 ,-0.88192 ,-8.65336 
447 ,81.9903 ,1.46378 ,-0.89218 ,-8.75409 
448 ,82.1660 ,1.46551 ,-0.90245 ,-8.85483 
449 ,82.3420 ,1.46732 ,-0.89903 ,-8.82125 
450 ,82.5185 ,1.46907 ,-0.91272 ,-8.95556 
451 ,82.7103 ,1.47097 ,-0.92298 ,-9.05630 
452 ,82.8863 ,1.47271 ,-0.92640 ,-9.08988 
453 ,83.0626 ,1.47445 ,-0.95720 ,-9.39208 
454 ,83.2389 ,1.47626 ,-0.94009 ,-9.22419 
455 ,83.4144 ,1.47802 ,-0.92983 ,-9.12345 
456 ,83.5907 ,1.47975 ,-0.95036 ,-9.32492 
457 ,83.7830 ,1.48166 ,-0.97089 ,-9.52639 
458 ,83.9587 ,1.48359 ,-0.96747 ,-9.49282 
459 ,84.1350 ,1.48522 ,-0.98458 ,-9.66071 
460 ,84.3112 ,1.48697 ,-0.98458 ,-9.66071 
461 ,84.4867 ,1.48872 ,-0.99827 ,-9.79502 
462 ,84.6630 ,1.49047 ,-1.01538 ,-9.96291 
