Data stamp = , 03-04-2022 20:15:07 544

Calibration Values: 
Slope = , 26.54 , g/V 
Offset Voltage at no contact = , -0.501760 , V 

No , Time , Stage Position ,   Mass , Force 
   ,  (s) ,      (mm)      ,   (g)  , (mN)  

1 ,0.0000 ,0.59938 ,5.23692 ,51.38464 
2 ,0.2126 ,0.59945 ,5.24718 ,51.48538 
3 ,0.5168 ,0.60022 ,5.27798 ,51.78758 
4 ,0.7249 ,0.60169 ,5.27456 ,51.75401 
5 ,0.9332 ,0.60350 ,5.24718 ,51.48538 
6 ,1.1092 ,0.60528 ,5.25403 ,51.55254 
7 ,1.3011 ,0.60703 ,5.26430 ,51.65327 
8 ,1.4933 ,0.60900 ,5.27456 ,51.75401 
9 ,1.6691 ,0.61082 ,5.26087 ,51.61969 
10 ,1.8454 ,0.61260 ,5.24376 ,51.45180 
11 ,2.0375 ,0.61452 ,5.19927 ,51.01528 
12 ,2.2136 ,0.61633 ,5.18901 ,50.91455 
13 ,2.3897 ,0.61808 ,5.18901 ,50.91455 
14 ,2.5660 ,0.61985 ,5.18216 ,50.84739 
15 ,2.7574 ,0.62172 ,5.16848 ,50.71308 
16 ,2.9339 ,0.62344 ,5.13425 ,50.37729 
17 ,3.1100 ,0.62525 ,5.13768 ,50.41087 
18 ,3.2861 ,0.62704 ,5.11372 ,50.17583 
19 ,3.4781 ,0.62895 ,5.08977 ,49.94078 
20 ,3.6540 ,0.63070 ,5.07608 ,49.80646 
21 ,3.8298 ,0.63246 ,5.05897 ,49.63857 
22 ,4.0062 ,0.63423 ,5.04870 ,49.53784 
23 ,4.1985 ,0.63614 ,5.00763 ,49.13490 
24 ,4.3743 ,0.63793 ,5.00079 ,49.06774 
25 ,4.5503 ,0.63963 ,5.00079 ,49.06774 
26 ,4.7266 ,0.64140 ,4.98368 ,48.89985 
27 ,4.9187 ,0.64331 ,4.93919 ,48.46333 
28 ,5.0948 ,0.64509 ,4.93577 ,48.42975 
29 ,5.2710 ,0.64681 ,4.92550 ,48.32902 
30 ,5.4630 ,0.64874 ,4.90155 ,48.09397 
31 ,5.6390 ,0.65057 ,4.86732 ,47.75819 
32 ,5.8311 ,0.65245 ,4.87759 ,47.85892 
33 ,5.9911 ,0.65418 ,4.86390 ,47.72461 
34 ,6.1672 ,0.65580 ,4.84337 ,47.52314 
35 ,6.3434 ,0.65758 ,4.81257 ,47.22093 
36 ,6.5194 ,0.65935 ,4.78861 ,46.98589 
37 ,6.7114 ,0.66119 ,4.78861 ,46.98589 
38 ,6.8875 ,0.66297 ,4.77493 ,46.85157 
39 ,7.0635 ,0.66479 ,4.75439 ,46.65010 
40 ,7.2397 ,0.66657 ,4.71675 ,46.28074 
41 ,7.4157 ,0.66830 ,4.70306 ,46.14643 
42 ,7.5918 ,0.67002 ,4.68937 ,46.01212 
43 ,7.7680 ,0.67185 ,4.68595 ,45.97854 
44 ,7.9600 ,0.67367 ,4.64146 ,45.54202 
45 ,8.1520 ,0.67564 ,4.64146 ,45.54202 
46 ,8.3597 ,0.67765 ,4.61751 ,45.30697 
47 ,8.5362 ,0.67945 ,4.59355 ,45.07192 
48 ,8.7122 ,0.68123 ,4.58328 ,44.97119 
49 ,8.8883 ,0.68303 ,4.57644 ,44.90403 
50 ,9.0804 ,0.68495 ,4.55591 ,44.70256 
51 ,9.2725 ,0.68679 ,4.55933 ,44.73614 
52 ,9.4806 ,0.68887 ,4.50800 ,44.23247 
53 ,9.6726 ,0.69079 ,4.51142 ,44.26604 
54 ,9.8484 ,0.69257 ,4.49431 ,44.09815 
55 ,10.0249 ,0.69438 ,4.46351 ,43.79595 
56 ,10.2168 ,0.69623 ,4.45324 ,43.69521 
57 ,10.3930 ,0.69807 ,4.43613 ,43.52732 
58 ,10.5846 ,0.69998 ,4.41218 ,43.29227 
59 ,10.7610 ,0.70173 ,4.39507 ,43.12438 
60 ,10.9368 ,0.70346 ,4.37111 ,42.88933 
61 ,11.1129 ,0.70525 ,4.37111 ,42.88933 
62 ,11.2733 ,0.70694 ,4.35742 ,42.75502 
63 ,11.4494 ,0.70858 ,4.36084 ,42.78860 
64 ,11.6253 ,0.71040 ,4.33347 ,42.51997 
65 ,11.8015 ,0.71213 ,4.29240 ,42.11703 
66 ,11.9775 ,0.71393 ,4.28556 ,42.04988 
67 ,12.1536 ,0.71565 ,4.27871 ,41.98272 
68 ,12.3292 ,0.71741 ,4.25133 ,41.71409 
69 ,12.5060 ,0.71914 ,4.23080 ,41.51262 
70 ,12.6818 ,0.72094 ,4.22053 ,41.41189 
71 ,12.8577 ,0.72266 ,4.19658 ,41.17684 
72 ,13.0340 ,0.72446 ,4.18289 ,41.04253 
73 ,13.2100 ,0.72620 ,4.17262 ,40.94179 
74 ,13.3857 ,0.72796 ,4.15551 ,40.77390 
75 ,13.5621 ,0.72971 ,4.13840 ,40.60601 
76 ,13.7383 ,0.73149 ,4.10760 ,40.30380 
77 ,13.9143 ,0.73328 ,4.10076 ,40.23665 
78 ,14.0903 ,0.73510 ,4.09391 ,40.16949 
79 ,14.2666 ,0.73677 ,4.07680 ,40.00160 
80 ,14.4584 ,0.73867 ,4.04600 ,39.69940 
81 ,14.6345 ,0.74039 ,4.03232 ,39.56508 
82 ,14.8106 ,0.74217 ,4.02889 ,39.53150 
83 ,14.9868 ,0.74395 ,3.99809 ,39.22930 
84 ,15.1628 ,0.74574 ,3.98783 ,39.12856 
85 ,15.3388 ,0.74752 ,3.96045 ,38.85994 
86 ,15.4986 ,0.74921 ,3.96387 ,38.89352 
87 ,15.6750 ,0.75079 ,3.94676 ,38.72562 
88 ,15.8509 ,0.75262 ,3.93650 ,38.62489 
89 ,16.0273 ,0.75440 ,3.92623 ,38.52415 
90 ,16.2034 ,0.75614 ,3.90227 ,38.28911 
91 ,16.4114 ,0.75819 ,3.88174 ,38.08764 
92 ,16.6033 ,0.76009 ,3.84752 ,37.75185 
93 ,16.7954 ,0.76197 ,3.85436 ,37.81901 
94 ,16.9718 ,0.76382 ,3.83041 ,37.58396 
95 ,17.1476 ,0.76558 ,3.82014 ,37.48323 
96 ,17.3239 ,0.76733 ,3.77908 ,37.08029 
97 ,17.4997 ,0.76915 ,3.76196 ,36.91240 
98 ,17.6758 ,0.77083 ,3.76881 ,36.97955 
99 ,17.8515 ,0.77259 ,3.74485 ,36.74450 
100 ,18.0280 ,0.77438 ,3.72432 ,36.54303 
101 ,18.2201 ,0.77619 ,3.70379 ,36.34157 
102 ,18.3961 ,0.77807 ,3.68668 ,36.17367 
103 ,18.5882 ,0.78005 ,3.65930 ,35.90505 
104 ,18.7644 ,0.78172 ,3.65930 ,35.90505 
105 ,18.9563 ,0.78367 ,3.63877 ,35.70358 
106 ,19.1325 ,0.78537 ,3.63192 ,35.63642 
107 ,19.3085 ,0.78718 ,3.62166 ,35.53569 
108 ,19.5005 ,0.78908 ,3.57717 ,35.09917 
109 ,19.6764 ,0.79086 ,3.56690 ,34.99843 
110 ,19.8524 ,0.79262 ,3.56006 ,34.93128 
111 ,20.0284 ,0.79434 ,3.52926 ,34.62907 
112 ,20.2046 ,0.79613 ,3.51215 ,34.46118 
113 ,20.3806 ,0.79785 ,3.49504 ,34.29329 
114 ,20.5568 ,0.79963 ,3.49504 ,34.29329 
115 ,20.7329 ,0.80136 ,3.48477 ,34.19255 
116 ,20.9088 ,0.80322 ,3.44370 ,33.78961 
117 ,21.0688 ,0.80486 ,3.45055 ,33.85677 
118 ,21.2614 ,0.80661 ,3.43686 ,33.72246 
119 ,21.4535 ,0.80861 ,3.42317 ,33.58814 
120 ,21.6296 ,0.81040 ,3.40948 ,33.45383 
121 ,21.8214 ,0.81225 ,3.37526 ,33.11805 
122 ,22.0135 ,0.81421 ,3.38210 ,33.18520 
123 ,22.2058 ,0.81610 ,3.32735 ,32.64795 
124 ,22.3818 ,0.81791 ,3.32051 ,32.58080 
125 ,22.5579 ,0.81963 ,3.31024 ,32.48006 
126 ,22.7341 ,0.82141 ,3.30339 ,32.41290 
127 ,22.9418 ,0.82340 ,3.27259 ,32.11070 
128 ,23.1342 ,0.82538 ,3.27259 ,32.11070 
129 ,23.3103 ,0.82722 ,3.25548 ,31.94281 
130 ,23.4864 ,0.82897 ,3.22468 ,31.64060 
131 ,23.6782 ,0.83084 ,3.21442 ,31.53987 
132 ,23.8545 ,0.83264 ,3.21100 ,31.50629 
133 ,24.0303 ,0.83435 ,3.19046 ,31.30482 
134 ,24.2386 ,0.83630 ,3.18020 ,31.20409 
135 ,24.4146 ,0.83818 ,3.15282 ,30.93546 
136 ,24.6069 ,0.84016 ,3.14597 ,30.86830 
137 ,24.7827 ,0.84190 ,3.11175 ,30.53252 
138 ,24.9589 ,0.84366 ,3.11518 ,30.56610 
139 ,25.1189 ,0.84537 ,3.10491 ,30.46536 
140 ,25.2951 ,0.84699 ,3.08095 ,30.23031 
141 ,25.5032 ,0.84901 ,3.05700 ,29.99527 
142 ,25.6792 ,0.85088 ,3.04331 ,29.86095 
143 ,25.8550 ,0.85260 ,3.03989 ,29.82737 
144 ,26.0474 ,0.85446 ,3.01935 ,29.62590 
145 ,26.2234 ,0.85627 ,2.99540 ,29.39086 
146 ,26.4153 ,0.85821 ,2.99540 ,29.39086 
147 ,26.6076 ,0.86013 ,2.95433 ,28.98792 
148 ,26.8157 ,0.86216 ,2.96118 ,29.05507 
149 ,27.0077 ,0.86410 ,2.92696 ,28.71929 
150 ,27.1994 ,0.86607 ,2.93038 ,28.75287 
151 ,27.3920 ,0.86786 ,2.90985 ,28.55140 
152 ,27.5840 ,0.86987 ,2.88931 ,28.34993 
153 ,27.7601 ,0.87165 ,2.87562 ,28.21562 
154 ,27.9841 ,0.87364 ,2.85509 ,28.01415 
155 ,28.1601 ,0.87570 ,2.84140 ,27.87983 
156 ,28.3362 ,0.87739 ,2.82429 ,27.71194 
157 ,28.5124 ,0.87918 ,2.80376 ,27.51047 
158 ,28.6881 ,0.88099 ,2.80034 ,27.47689 
159 ,28.8803 ,0.88278 ,2.78665 ,27.34258 
160 ,29.0565 ,0.88462 ,2.76611 ,27.14111 
161 ,29.2487 ,0.88653 ,2.73189 ,26.80533 
162 ,29.4247 ,0.88835 ,2.75243 ,27.00680 
163 ,29.6167 ,0.89020 ,2.71820 ,26.67101 
164 ,29.7929 ,0.89200 ,2.70452 ,26.53670 
165 ,29.9690 ,0.89373 ,2.67372 ,26.23450 
166 ,30.1772 ,0.89577 ,2.67372 ,26.23450 
167 ,30.3527 ,0.89759 ,2.66003 ,26.10018 
168 ,30.5288 ,0.89930 ,2.64634 ,25.96587 
169 ,30.7212 ,0.90113 ,2.60527 ,25.56293 
170 ,30.8973 ,0.90301 ,2.60185 ,25.52935 
171 ,31.0573 ,0.90470 ,2.60185 ,25.52935 
172 ,31.2335 ,0.90638 ,2.57789 ,25.29430 
173 ,31.4093 ,0.90816 ,2.55736 ,25.09283 
174 ,31.5856 ,0.90991 ,2.52998 ,24.82421 
175 ,31.7775 ,0.91179 ,2.53341 ,24.85779 
176 ,31.9537 ,0.91355 ,2.51630 ,24.68989 
177 ,32.1298 ,0.91529 ,2.49234 ,24.45485 
178 ,32.3219 ,0.91727 ,2.49576 ,24.48842 
179 ,32.4978 ,0.91906 ,2.47865 ,24.32053 
180 ,32.6898 ,0.92087 ,2.44101 ,23.95117 
181 ,32.8821 ,0.92287 ,2.44101 ,23.95117 
182 ,33.0743 ,0.92475 ,2.42390 ,23.78328 
183 ,33.2502 ,0.92658 ,2.40679 ,23.61539 
184 ,33.4424 ,0.92839 ,2.39994 ,23.54823 
185 ,33.6343 ,0.93036 ,2.37599 ,23.31318 
186 ,33.8105 ,0.93218 ,2.34177 ,22.97740 
187 ,34.0025 ,0.93405 ,2.34177 ,22.97740 
188 ,34.1786 ,0.93578 ,2.34177 ,22.97740 
189 ,34.3706 ,0.93772 ,2.30070 ,22.57446 
190 ,34.5467 ,0.93945 ,2.29728 ,22.54088 
191 ,34.7228 ,0.94125 ,2.29728 ,22.54088 
192 ,34.9145 ,0.94314 ,2.28359 ,22.40657 
193 ,35.0910 ,0.94493 ,2.26306 ,22.20510 
194 ,35.2830 ,0.94678 ,2.23226 ,21.90290 
195 ,35.4590 ,0.94864 ,2.23910 ,21.97005 
196 ,35.6509 ,0.95044 ,2.22883 ,21.86932 
197 ,35.8432 ,0.95241 ,2.18092 ,21.39922 
198 ,36.0191 ,0.95422 ,2.18092 ,21.39922 
199 ,36.1954 ,0.95598 ,2.17066 ,21.29849 
200 ,36.3715 ,0.95775 ,2.14670 ,21.06344 
201 ,36.5475 ,0.95948 ,2.12275 ,20.82839 
202 ,36.7554 ,0.96143 ,2.12617 ,20.86197 
203 ,36.9317 ,0.96336 ,2.09879 ,20.59334 
204 ,37.1238 ,0.96527 ,2.08852 ,20.49261 
205 ,37.3159 ,0.96713 ,2.06799 ,20.29114 
206 ,37.4919 ,0.96895 ,2.04746 ,20.08967 
207 ,37.6840 ,0.97085 ,2.03719 ,19.98893 
208 ,37.8440 ,0.97258 ,2.01324 ,19.75388 
209 ,38.0200 ,0.97417 ,2.02693 ,19.88820 
210 ,38.1962 ,0.97595 ,2.01324 ,19.75388 
211 ,38.3882 ,0.97780 ,1.96875 ,19.31737 
212 ,38.5644 ,0.97968 ,1.95164 ,19.14948 
213 ,38.7405 ,0.98145 ,1.95848 ,19.21663 
214 ,38.9324 ,0.98331 ,1.92768 ,18.91443 
215 ,39.1084 ,0.98509 ,1.91742 ,18.81369 
216 ,39.2846 ,0.98688 ,1.90715 ,18.71296 
217 ,39.4769 ,0.98875 ,1.89688 ,18.61222 
218 ,39.6528 ,0.99057 ,1.89004 ,18.54507 
219 ,39.8288 ,0.99229 ,1.85240 ,18.17570 
220 ,40.0209 ,0.99414 ,1.84213 ,18.07497 
221 ,40.2130 ,0.99614 ,1.82844 ,17.94066 
222 ,40.3891 ,0.99790 ,1.81133 ,17.77276 
223 ,40.5651 ,0.99968 ,1.79422 ,17.60487 
224 ,40.7734 ,1.00169 ,1.76684 ,17.33625 
225 ,40.9489 ,1.00348 ,1.77369 ,17.40340 
226 ,41.1249 ,1.00523 ,1.74289 ,17.10120 
227 ,41.3014 ,1.00705 ,1.74289 ,17.10120 
228 ,41.4935 ,1.00898 ,1.73604 ,17.03404 
229 ,41.7176 ,1.01105 ,1.70524 ,16.73184 
230 ,41.9097 ,1.01306 ,1.68813 ,16.56395 
231 ,42.1017 ,1.01503 ,1.68813 ,16.56395 
232 ,42.2780 ,1.01678 ,1.67444 ,16.42963 
233 ,42.4538 ,1.01854 ,1.65733 ,16.26174 
234 ,42.6459 ,1.02042 ,1.62311 ,15.92596 
235 ,42.8220 ,1.02220 ,1.62311 ,15.92596 
236 ,43.0140 ,1.02414 ,1.59916 ,15.69091 
237 ,43.1901 ,1.02590 ,1.59573 ,15.65733 
238 ,43.3822 ,1.02782 ,1.57520 ,15.45586 
239 ,43.5583 ,1.02957 ,1.58889 ,15.59018 
240 ,43.7501 ,1.03151 ,1.53756 ,15.08650 
241 ,43.9265 ,1.03325 ,1.53756 ,15.08650 
242 ,44.1342 ,1.03526 ,1.51702 ,14.88503 
243 ,44.3106 ,1.03711 ,1.50333 ,14.75072 
244 ,44.5025 ,1.03903 ,1.49649 ,14.68356 
245 ,44.6788 ,1.04078 ,1.49307 ,14.64998 
246 ,44.8548 ,1.04252 ,1.46911 ,14.41493 
247 ,45.0469 ,1.04444 ,1.45885 ,14.31420 
248 ,45.2390 ,1.04645 ,1.43831 ,14.11273 
249 ,45.4151 ,1.04808 ,1.42805 ,14.01199 
250 ,45.6071 ,1.04994 ,1.41436 ,13.87768 
251 ,45.7992 ,1.05196 ,1.39725 ,13.70979 
252 ,45.9911 ,1.05390 ,1.38014 ,13.54190 
253 ,46.1833 ,1.05577 ,1.36987 ,13.44116 
254 ,46.3594 ,1.05759 ,1.36303 ,13.37401 
255 ,46.5355 ,1.05932 ,1.34249 ,13.17254 
256 ,46.7115 ,1.06112 ,1.32880 ,13.03822 
257 ,46.8876 ,1.06285 ,1.30485 ,12.80318 
258 ,47.0637 ,1.06461 ,1.30485 ,12.80318 
259 ,47.2398 ,1.06641 ,1.30143 ,12.76960 
260 ,47.4158 ,1.06811 ,1.28089 ,12.56813 
261 ,47.6077 ,1.07008 ,1.24325 ,12.19877 
262 ,47.7840 ,1.07180 ,1.25694 ,12.33308 
263 ,47.9600 ,1.07364 ,1.23983 ,12.16519 
264 ,48.1522 ,1.07544 ,1.21587 ,11.93014 
265 ,48.3281 ,1.07724 ,1.21587 ,11.93014 
266 ,48.5044 ,1.07904 ,1.19876 ,11.76225 
267 ,48.7441 ,1.08119 ,1.16454 ,11.42647 
268 ,48.9205 ,1.08312 ,1.17481 ,11.52720 
269 ,49.0965 ,1.08496 ,1.15427 ,11.32573 
270 ,49.2728 ,1.08674 ,1.14401 ,11.22500 
271 ,49.4483 ,1.08852 ,1.12005 ,10.98995 
272 ,49.6248 ,1.09021 ,1.11663 ,10.95637 
273 ,49.8006 ,1.09197 ,1.11321 ,10.92279 
274 ,49.9929 ,1.09379 ,1.09952 ,10.78848 
275 ,50.1691 ,1.09563 ,1.07899 ,10.58701 
276 ,50.3610 ,1.09758 ,1.07899 ,10.58701 
277 ,50.5366 ,1.09930 ,1.04476 ,10.25123 
278 ,50.7127 ,1.10111 ,1.04134 ,10.21765 
279 ,50.8728 ,1.10283 ,1.01396 ,9.94902 
280 ,51.0490 ,1.10445 ,1.02423 ,10.04976 
281 ,51.2574 ,1.10650 ,0.99343 ,9.74755 
282 ,51.4493 ,1.10847 ,0.96948 ,9.51250 
283 ,51.6416 ,1.11029 ,0.97974 ,9.61324 
284 ,51.8175 ,1.11228 ,0.94210 ,9.24388 
285 ,51.9934 ,1.11385 ,0.94552 ,9.27745 
286 ,52.1699 ,1.11567 ,0.92157 ,9.04241 
287 ,52.3454 ,1.11745 ,0.93525 ,9.17672 
288 ,52.5216 ,1.11913 ,0.92157 ,9.04241 
289 ,52.6978 ,1.12096 ,0.90103 ,8.84094 
290 ,52.8901 ,1.12284 ,0.88392 ,8.67305 
291 ,53.0821 ,1.12474 ,0.88050 ,8.63947 
292 ,53.2579 ,1.12653 ,0.86681 ,8.50515 
293 ,53.4342 ,1.12825 ,0.84628 ,8.30368 
294 ,53.6424 ,1.13036 ,0.85312 ,8.37084 
295 ,53.8184 ,1.13214 ,0.84286 ,8.27011 
296 ,54.0105 ,1.13402 ,0.79837 ,7.83359 
297 ,54.1863 ,1.13577 ,0.81206 ,7.96790 
298 ,54.3786 ,1.13768 ,0.78468 ,7.69927 
299 ,54.5546 ,1.13949 ,0.77784 ,7.63212 
300 ,54.7466 ,1.14137 ,0.77784 ,7.63212 
301 ,54.9386 ,1.14326 ,0.75730 ,7.43065 
302 ,55.1149 ,1.14509 ,0.72992 ,7.16202 
303 ,55.2908 ,1.14682 ,0.71966 ,7.06129 
304 ,55.4831 ,1.14873 ,0.72308 ,7.09486 
305 ,55.6590 ,1.15059 ,0.71966 ,7.06129 
306 ,55.8347 ,1.15230 ,0.67859 ,6.65835 
307 ,56.0113 ,1.15409 ,0.67859 ,6.65835 
308 ,56.1874 ,1.15590 ,0.67859 ,6.65835 
309 ,56.3635 ,1.15759 ,0.66833 ,6.55761 
310 ,56.5395 ,1.15933 ,0.65464 ,6.42330 
311 ,56.7157 ,1.16112 ,0.64779 ,6.35614 
312 ,56.8914 ,1.16287 ,0.62042 ,6.08752 
313 ,57.0677 ,1.16465 ,0.59988 ,5.88605 
314 ,57.2918 ,1.16670 ,0.58619 ,5.75173 
315 ,57.4678 ,1.16862 ,0.56908 ,5.58384 
316 ,57.6439 ,1.17033 ,0.59304 ,5.81889 
317 ,57.8201 ,1.17212 ,0.56566 ,5.55026 
318 ,58.0120 ,1.17405 ,0.54855 ,5.38237 
319 ,58.1882 ,1.17581 ,0.53828 ,5.28164 
320 ,58.3641 ,1.17754 ,0.53828 ,5.28164 
321 ,58.5404 ,1.17935 ,0.53144 ,5.21448 
322 ,58.7483 ,1.18126 ,0.50406 ,4.94585 
323 ,58.9244 ,1.18316 ,0.49722 ,4.87870 
324 ,59.1006 ,1.18493 ,0.48353 ,4.74438 
325 ,59.2767 ,1.18668 ,0.45615 ,4.47576 
326 ,59.4527 ,1.18849 ,0.44588 ,4.37502 
327 ,59.6289 ,1.19020 ,0.44588 ,4.37502 
328 ,59.8050 ,1.19202 ,0.44246 ,4.34144 
329 ,59.9809 ,1.19377 ,0.43562 ,4.27429 
330 ,60.1568 ,1.19544 ,0.41509 ,4.07282 
331 ,60.3491 ,1.19744 ,0.39455 ,3.87135 
332 ,60.5252 ,1.19916 ,0.40824 ,4.00566 
333 ,60.7011 ,1.20088 ,0.38429 ,3.77061 
334 ,60.8773 ,1.20269 ,0.37744 ,3.70346 
335 ,61.0534 ,1.20444 ,0.36033 ,3.53557 
336 ,61.2455 ,1.20638 ,0.35691 ,3.50199 
337 ,61.4216 ,1.20810 ,0.34322 ,3.36767 
338 ,61.5977 ,1.20990 ,0.32611 ,3.19978 
339 ,61.7736 ,1.21164 ,0.31242 ,3.06547 
340 ,61.9495 ,1.21339 ,0.29531 ,2.89758 
341 ,62.1259 ,1.21515 ,0.29531 ,2.89758 
342 ,62.3019 ,1.21693 ,0.28504 ,2.79684 
343 ,62.4940 ,1.21891 ,0.25767 ,2.52822 
344 ,62.7020 ,1.22086 ,0.25767 ,2.52822 
345 ,62.8782 ,1.22269 ,0.24055 ,2.36032 
346 ,63.0701 ,1.22459 ,0.23029 ,2.25959 
347 ,63.2620 ,1.22649 ,0.22344 ,2.19243 
348 ,63.4385 ,1.22831 ,0.22344 ,2.19243 
349 ,63.6145 ,1.23003 ,0.19607 ,1.92381 
350 ,63.7904 ,1.23180 ,0.18922 ,1.85665 
351 ,63.9667 ,1.23357 ,0.18580 ,1.82307 
352 ,64.1587 ,1.23548 ,0.16869 ,1.65518 
353 ,64.3343 ,1.23732 ,0.15842 ,1.55445 
354 ,64.5109 ,1.23902 ,0.13105 ,1.28582 
355 ,64.6868 ,1.24077 ,0.14131 ,1.38655 
356 ,64.8950 ,1.24273 ,0.11393 ,1.11793 
357 ,65.0869 ,1.24475 ,0.12078 ,1.18508 
358 ,65.2632 ,1.24653 ,0.11393 ,1.11793 
359 ,65.4552 ,1.24848 ,0.07287 ,0.71499 
360 ,65.6473 ,1.25032 ,0.07971 ,0.78214 
361 ,65.8233 ,1.25210 ,0.08656 ,0.84930 
362 ,65.9994 ,1.25392 ,0.05234 ,0.51352 
363 ,66.1756 ,1.25561 ,0.03865 ,0.37920 
364 ,66.3675 ,1.25756 ,0.04549 ,0.44636 
365 ,66.5276 ,1.25927 ,0.03180 ,0.31205 
366 ,66.7037 ,1.26095 ,0.02154 ,0.21131 
367 ,66.8796 ,1.26267 ,0.00443 ,0.04342 
368 ,67.0558 ,1.26446 ,-0.01611 ,-0.15805 
369 ,67.2317 ,1.26625 ,-0.00926 ,-0.09089 
370 ,67.4240 ,1.26810 ,-0.02980 ,-0.29236 
371 ,67.6001 ,1.26990 ,-0.01953 ,-0.19163 
372 ,67.7920 ,1.27182 ,-0.04691 ,-0.46025 
373 ,67.9685 ,1.27363 ,-0.06402 ,-0.62814 
374 ,68.1443 ,1.27538 ,-0.05717 ,-0.56099 
375 ,68.3203 ,1.27705 ,-0.07086 ,-0.69530 
376 ,68.4965 ,1.27887 ,-0.09824 ,-0.96393 
377 ,68.6886 ,1.28074 ,-0.08113 ,-0.79604 
378 ,68.8807 ,1.28269 ,-0.10851 ,-1.06466 
379 ,69.0728 ,1.28459 ,-0.12219 ,-1.19898 
380 ,69.2487 ,1.28638 ,-0.12904 ,-1.26613 
381 ,69.4247 ,1.28812 ,-0.12219 ,-1.19898 
382 ,69.6005 ,1.28986 ,-0.13931 ,-1.36687 
383 ,69.7769 ,1.29169 ,-0.15984 ,-1.56834 
384 ,69.9688 ,1.29358 ,-0.16326 ,-1.60191 
385 ,70.1451 ,1.29530 ,-0.16326 ,-1.60191 
386 ,70.3211 ,1.29711 ,-0.17011 ,-1.66907 
387 ,70.5131 ,1.29899 ,-0.19406 ,-1.90412 
388 ,70.6893 ,1.30074 ,-0.19064 ,-1.87054 
389 ,70.8654 ,1.30252 ,-0.19406 ,-1.90412 
390 ,71.0415 ,1.30429 ,-0.21459 ,-2.10559 
391 ,71.2335 ,1.30619 ,-0.22486 ,-2.20632 
392 ,71.4417 ,1.30826 ,-0.25224 ,-2.47495 
393 ,71.6178 ,1.31008 ,-0.25566 ,-2.50853 
394 ,71.7936 ,1.31183 ,-0.27619 ,-2.71000 
395 ,71.9859 ,1.31374 ,-0.26250 ,-2.57569 
396 ,72.1779 ,1.31558 ,-0.27277 ,-2.67642 
397 ,72.3540 ,1.31740 ,-0.30015 ,-2.94505 
398 ,72.5460 ,1.31925 ,-0.30015 ,-2.94505 
399 ,72.7378 ,1.32122 ,-0.32068 ,-3.14652 
400 ,72.9303 ,1.32307 ,-0.32068 ,-3.14652 
401 ,73.1062 ,1.32495 ,-0.32068 ,-3.14652 
402 ,73.2822 ,1.32673 ,-0.32410 ,-3.18010 
403 ,73.4583 ,1.32846 ,-0.35490 ,-3.48230 
404 ,73.6345 ,1.33024 ,-0.38228 ,-3.75093 
405 ,73.8103 ,1.33202 ,-0.36517 ,-3.58303 
406 ,73.9865 ,1.33375 ,-0.37201 ,-3.65019 
407 ,74.1623 ,1.33550 ,-0.37544 ,-3.68377 
408 ,74.3388 ,1.33719 ,-0.39597 ,-3.88524 
409 ,74.5149 ,1.33901 ,-0.40623 ,-3.98597 
410 ,74.7069 ,1.34091 ,-0.42677 ,-4.18744 
411 ,74.8827 ,1.34266 ,-0.40623 ,-3.98597 
412 ,75.0591 ,1.34448 ,-0.43361 ,-4.25460 
413 ,75.2512 ,1.34642 ,-0.43703 ,-4.28818 
414 ,75.4429 ,1.34822 ,-0.44046 ,-4.32176 
415 ,75.6194 ,1.35009 ,-0.45757 ,-4.48965 
416 ,75.8113 ,1.35197 ,-0.45757 ,-4.48965 
417 ,75.9871 ,1.35368 ,-0.46783 ,-4.59038 
418 ,76.1794 ,1.35554 ,-0.46783 ,-4.59038 
419 ,76.3554 ,1.35736 ,-0.49863 ,-4.89259 
420 ,76.5314 ,1.35913 ,-0.49179 ,-4.82543 
421 ,76.7077 ,1.36093 ,-0.49863 ,-4.89259 
422 ,76.9156 ,1.36298 ,-0.53285 ,-5.22837 
423 ,77.0918 ,1.36477 ,-0.53285 ,-5.22837 
424 ,77.2678 ,1.36656 ,-0.52601 ,-5.16121 
425 ,77.4439 ,1.36827 ,-0.54312 ,-5.32911 
426 ,77.6201 ,1.37006 ,-0.55681 ,-5.46342 
427 ,77.7961 ,1.37184 ,-0.57050 ,-5.59773 
428 ,77.9885 ,1.37370 ,-0.56023 ,-5.49700 
429 ,78.1643 ,1.37552 ,-0.57734 ,-5.66489 
430 ,78.3565 ,1.37740 ,-0.59445 ,-5.83278 
431 ,78.5483 ,1.37931 ,-0.58419 ,-5.73205 
432 ,78.7246 ,1.38111 ,-0.58761 ,-5.76562 
433 ,78.9006 ,1.38287 ,-0.60814 ,-5.96709 
434 ,79.0765 ,1.38462 ,-0.62525 ,-6.13499 
435 ,79.2526 ,1.38641 ,-0.63210 ,-6.20214 
436 ,79.4449 ,1.38822 ,-0.63552 ,-6.23572 
437 ,79.6207 ,1.39004 ,-0.63894 ,-6.26930 
438 ,79.8131 ,1.39192 ,-0.65263 ,-6.40361 
439 ,80.0049 ,1.39395 ,-0.64921 ,-6.37003 
440 ,80.1971 ,1.39583 ,-0.68001 ,-6.67224 
441 ,80.3732 ,1.39756 ,-0.69027 ,-6.77297 
442 ,80.5812 ,1.39955 ,-0.67659 ,-6.63866 
443 ,80.7734 ,1.40156 ,-0.68685 ,-6.73940 
444 ,80.9495 ,1.40335 ,-0.69370 ,-6.80655 
445 ,81.1415 ,1.40520 ,-0.73134 ,-7.17591 
446 ,81.3012 ,1.40698 ,-0.72792 ,-7.14233 
447 ,81.4775 ,1.40857 ,-0.72450 ,-7.10876 
448 ,81.6538 ,1.41036 ,-0.74161 ,-7.27665 
449 ,81.8298 ,1.41214 ,-0.73476 ,-7.20949 
450 ,82.0057 ,1.41390 ,-0.73134 ,-7.17591 
451 ,82.1977 ,1.41583 ,-0.76214 ,-7.47812 
452 ,82.3896 ,1.41766 ,-0.76898 ,-7.54527 
453 ,82.5658 ,1.41951 ,-0.77241 ,-7.57885 
454 ,82.7418 ,1.42129 ,-0.77583 ,-7.61243 
455 ,82.9019 ,1.42297 ,-0.78610 ,-7.71317 
456 ,83.0619 ,1.42460 ,-0.79978 ,-7.84748 
457 ,83.2383 ,1.42625 ,-0.81347 ,-7.98179 
458 ,83.4144 ,1.42808 ,-0.80321 ,-7.88106 
459 ,83.6062 ,1.42982 ,-0.80663 ,-7.91464 
460 ,83.7986 ,1.43171 ,-0.83743 ,-8.21684 
461 ,83.9908 ,1.43375 ,-0.83058 ,-8.14968 
462 ,84.1827 ,1.43569 ,-0.83401 ,-8.18326 
463 ,84.3584 ,1.43737 ,-0.86823 ,-8.51904 
