Data stamp = , 03-04-2022 12:56:11 802

Calibration Values: 
Slope = , 26.54 , g/V 
Offset Voltage at no contact = , -0.501760 , V 

No , Time , Stage Position ,   Mass , Force 
   ,  (s) ,      (mm)      ,   (g)  , (mN)  

1 ,0.0000 ,0.59941 ,5.21639 ,51.18317 
2 ,0.2062 ,0.59945 ,5.23692 ,51.38464 
3 ,0.6224 ,0.60067 ,5.24034 ,51.41822 
4 ,0.8145 ,0.60238 ,5.22323 ,51.25033 
5 ,1.0066 ,0.60420 ,5.25061 ,51.51896 
6 ,1.1986 ,0.60612 ,5.21981 ,51.21675 
7 ,1.3747 ,0.60787 ,5.22323 ,51.25033 
8 ,1.5507 ,0.60970 ,5.21639 ,51.18317 
9 ,1.7269 ,0.61144 ,5.21639 ,51.18317 
10 ,1.9028 ,0.61321 ,5.20270 ,51.04886 
11 ,2.0791 ,0.61502 ,5.18559 ,50.88097 
12 ,2.2711 ,0.61688 ,5.16505 ,50.67950 
13 ,2.4472 ,0.61869 ,5.15479 ,50.57876 
14 ,2.6392 ,0.62051 ,5.12399 ,50.27656 
15 ,2.8153 ,0.62232 ,5.11714 ,50.20940 
16 ,2.9914 ,0.62410 ,5.11030 ,50.14225 
17 ,3.1676 ,0.62582 ,5.11714 ,50.20940 
18 ,3.3436 ,0.62762 ,5.09319 ,49.97436 
19 ,3.5196 ,0.62939 ,5.06923 ,49.73931 
20 ,3.6956 ,0.63114 ,5.04528 ,49.50426 
21 ,3.8718 ,0.63287 ,5.03843 ,49.43710 
22 ,4.0478 ,0.63463 ,5.04528 ,49.50426 
23 ,4.2078 ,0.63634 ,5.01790 ,49.23563 
24 ,4.3842 ,0.63805 ,5.00421 ,49.10132 
25 ,4.5601 ,0.63978 ,5.00079 ,49.06774 
26 ,4.7361 ,0.64154 ,4.96999 ,48.76554 
27 ,4.9121 ,0.64326 ,4.93919 ,48.46333 
28 ,5.1043 ,0.64520 ,4.94946 ,48.56407 
29 ,5.2965 ,0.64699 ,4.91523 ,48.22828 
30 ,5.5046 ,0.64905 ,4.89812 ,48.06039 
31 ,5.6969 ,0.65106 ,4.87075 ,47.79177 
32 ,5.9049 ,0.65310 ,4.87075 ,47.79177 
33 ,6.0966 ,0.65505 ,4.84337 ,47.52314 
34 ,6.2730 ,0.65692 ,4.82968 ,47.38883 
35 ,6.4651 ,0.65877 ,4.81257 ,47.22093 
36 ,6.6408 ,0.66056 ,4.78861 ,46.98589 
37 ,6.8170 ,0.66233 ,4.76124 ,46.71726 
38 ,6.9934 ,0.66409 ,4.75439 ,46.65010 
39 ,7.1849 ,0.66588 ,4.73728 ,46.48221 
40 ,7.3615 ,0.66775 ,4.71675 ,46.28074 
41 ,7.5694 ,0.66979 ,4.70306 ,46.14643 
42 ,7.7455 ,0.67164 ,4.68253 ,45.94496 
43 ,7.9217 ,0.67338 ,4.66199 ,45.74349 
44 ,8.1297 ,0.67542 ,4.64831 ,45.60918 
45 ,8.2894 ,0.67711 ,4.63119 ,45.44128 
46 ,8.4659 ,0.67881 ,4.62093 ,45.34055 
47 ,8.6419 ,0.68056 ,4.59013 ,45.03835 
48 ,8.8181 ,0.68233 ,4.56617 ,44.80330 
49 ,9.0098 ,0.68424 ,4.56275 ,44.76972 
50 ,9.1859 ,0.68597 ,4.55591 ,44.70256 
51 ,9.3623 ,0.68775 ,4.52853 ,44.43394 
52 ,9.5382 ,0.68954 ,4.50457 ,44.19889 
53 ,9.7299 ,0.69144 ,4.49431 ,44.09815 
54 ,9.9061 ,0.69318 ,4.47720 ,43.93026 
55 ,10.0821 ,0.69496 ,4.46351 ,43.79595 
56 ,10.2583 ,0.69673 ,4.44298 ,43.59448 
57 ,10.4505 ,0.69864 ,4.42929 ,43.46016 
58 ,10.6267 ,0.70037 ,4.42929 ,43.46016 
59 ,10.8025 ,0.70215 ,4.38822 ,43.05723 
60 ,10.9948 ,0.70404 ,4.38138 ,42.99007 
61 ,11.1709 ,0.70588 ,4.36084 ,42.78860 
62 ,11.3631 ,0.70770 ,4.34716 ,42.65429 
63 ,11.5231 ,0.70948 ,4.32320 ,42.41924 
64 ,11.7153 ,0.71124 ,4.29924 ,42.18419 
65 ,11.8916 ,0.71307 ,4.28213 ,42.01630 
66 ,12.0832 ,0.71484 ,4.28556 ,42.04988 
67 ,12.2593 ,0.71672 ,4.24449 ,41.64694 
68 ,12.4354 ,0.71847 ,4.23765 ,41.57978 
69 ,12.5954 ,0.72016 ,4.23080 ,41.51262 
70 ,12.8037 ,0.72200 ,4.21369 ,41.34473 
71 ,12.9954 ,0.72411 ,4.18974 ,41.10968 
72 ,13.1718 ,0.72580 ,4.17947 ,41.00895 
73 ,13.3638 ,0.72770 ,4.15209 ,40.74032 
74 ,13.5396 ,0.72949 ,4.12471 ,40.47170 
75 ,13.7320 ,0.73145 ,4.12129 ,40.43812 
76 ,13.9241 ,0.73338 ,4.11445 ,40.37096 
77 ,14.0999 ,0.73518 ,4.08707 ,40.10233 
78 ,14.2922 ,0.73706 ,4.06654 ,39.90087 
79 ,14.4684 ,0.73881 ,4.06312 ,39.86729 
80 ,14.6602 ,0.74063 ,4.04258 ,39.66582 
81 ,14.8365 ,0.74246 ,4.00836 ,39.33003 
82 ,15.0126 ,0.74423 ,3.99467 ,39.19572 
83 ,15.1886 ,0.74605 ,3.98441 ,39.09499 
84 ,15.3647 ,0.74774 ,3.97072 ,38.96067 
85 ,15.5408 ,0.74956 ,3.95018 ,38.75920 
86 ,15.7328 ,0.75144 ,3.92623 ,38.52415 
87 ,15.9249 ,0.75328 ,3.92623 ,38.52415 
88 ,16.1006 ,0.75515 ,3.90227 ,38.28911 
89 ,16.2770 ,0.75691 ,3.88174 ,38.08764 
90 ,16.4531 ,0.75864 ,3.86805 ,37.95332 
91 ,16.6293 ,0.76044 ,3.86121 ,37.88617 
92 ,16.7892 ,0.76214 ,3.86121 ,37.88617 
93 ,16.9653 ,0.76372 ,3.82699 ,37.55038 
94 ,17.1415 ,0.76558 ,3.82699 ,37.55038 
95 ,17.3336 ,0.76737 ,3.79619 ,37.24818 
96 ,17.5092 ,0.76924 ,3.77565 ,37.04671 
97 ,17.6692 ,0.77093 ,3.77565 ,37.04671 
98 ,17.8293 ,0.77252 ,3.76196 ,36.91240 
99 ,17.9894 ,0.77411 ,3.74828 ,36.77808 
100 ,18.1654 ,0.77573 ,3.74143 ,36.71093 
101 ,18.3416 ,0.77752 ,3.70379 ,36.34157 
102 ,18.5176 ,0.77928 ,3.68668 ,36.17367 
103 ,18.7101 ,0.78112 ,3.67299 ,36.03936 
104 ,18.9021 ,0.78310 ,3.66272 ,35.93863 
105 ,19.0781 ,0.78488 ,3.64903 ,35.80431 
106 ,19.2542 ,0.78664 ,3.61823 ,35.50211 
107 ,19.4303 ,0.78833 ,3.62508 ,35.56926 
108 ,19.6064 ,0.79014 ,3.59086 ,35.23348 
109 ,19.7824 ,0.79192 ,3.59428 ,35.26706 
110 ,19.9584 ,0.79364 ,3.55321 ,34.86412 
111 ,20.1506 ,0.79567 ,3.54295 ,34.76338 
112 ,20.3426 ,0.79746 ,3.55321 ,34.86412 
113 ,20.5348 ,0.79948 ,3.50530 ,34.39402 
114 ,20.7107 ,0.80119 ,3.49846 ,34.32687 
115 ,20.8872 ,0.80297 ,3.49161 ,34.25971 
116 ,21.0630 ,0.80477 ,3.45055 ,33.85677 
117 ,21.2551 ,0.80657 ,3.44028 ,33.75604 
118 ,21.4311 ,0.80838 ,3.43001 ,33.65530 
119 ,21.6232 ,0.81028 ,3.41290 ,33.48741 
120 ,21.7992 ,0.81208 ,3.39237 ,33.28594 
121 ,21.9754 ,0.81384 ,3.37868 ,33.15163 
122 ,22.1835 ,0.81584 ,3.37526 ,33.11805 
123 ,22.3756 ,0.81785 ,3.33419 ,32.71511 
124 ,22.5515 ,0.81961 ,3.32735 ,32.64795 
125 ,22.7276 ,0.82136 ,3.32735 ,32.64795 
126 ,22.9038 ,0.82308 ,3.30682 ,32.44648 
127 ,23.0795 ,0.82493 ,3.29313 ,32.31217 
128 ,23.2559 ,0.82670 ,3.27259 ,32.11070 
129 ,23.4479 ,0.82859 ,3.26917 ,32.07712 
130 ,23.6400 ,0.83041 ,3.23837 ,31.77492 
131 ,23.8160 ,0.83221 ,3.23153 ,31.70776 
132 ,23.9924 ,0.83403 ,3.21100 ,31.50629 
133 ,24.1679 ,0.83578 ,3.18704 ,31.27124 
134 ,24.3443 ,0.83753 ,3.20073 ,31.40555 
135 ,24.5524 ,0.83954 ,3.16309 ,31.03619 
136 ,24.7286 ,0.84135 ,3.15282 ,30.93546 
137 ,24.9206 ,0.84324 ,3.12202 ,30.63325 
138 ,25.0965 ,0.84505 ,3.11518 ,30.56610 
139 ,25.2728 ,0.84680 ,3.09806 ,30.39821 
140 ,25.4487 ,0.84853 ,3.09122 ,30.33105 
141 ,25.6249 ,0.85031 ,3.08095 ,30.23031 
142 ,25.8010 ,0.85210 ,3.06726 ,30.09600 
143 ,25.9930 ,0.85403 ,3.02620 ,29.69306 
144 ,26.1851 ,0.85583 ,3.03304 ,29.76022 
145 ,26.3451 ,0.85764 ,3.01251 ,29.55875 
146 ,26.5211 ,0.85926 ,3.00567 ,29.49159 
147 ,26.6972 ,0.86107 ,2.98171 ,29.25654 
148 ,26.8734 ,0.86280 ,2.96118 ,29.05507 
149 ,27.0812 ,0.86486 ,2.94749 ,28.92076 
150 ,27.2572 ,0.86668 ,2.93038 ,28.75287 
151 ,27.4175 ,0.86834 ,2.90985 ,28.55140 
152 ,27.5937 ,0.87000 ,2.89616 ,28.41709 
153 ,27.7695 ,0.87187 ,2.89958 ,28.45066 
154 ,27.9456 ,0.87351 ,2.87905 ,28.24919 
155 ,28.1218 ,0.87528 ,2.86193 ,28.08130 
156 ,28.2981 ,0.87707 ,2.83456 ,27.81268 
157 ,28.4900 ,0.87895 ,2.82429 ,27.71194 
158 ,28.6656 ,0.88068 ,2.83456 ,27.81268 
159 ,28.8582 ,0.88251 ,2.81060 ,27.57763 
160 ,29.0342 ,0.88439 ,2.77638 ,27.24185 
161 ,29.2102 ,0.88616 ,2.77638 ,27.24185 
162 ,29.4022 ,0.88807 ,2.75585 ,27.04038 
163 ,29.5784 ,0.88985 ,2.73874 ,26.87248 
164 ,29.7866 ,0.89185 ,2.71820 ,26.67101 
165 ,29.9785 ,0.89388 ,2.69767 ,26.46954 
166 ,30.1550 ,0.89561 ,2.68398 ,26.33523 
167 ,30.3308 ,0.89748 ,2.68740 ,26.36881 
168 ,30.5226 ,0.89928 ,2.66003 ,26.10018 
169 ,30.6990 ,0.90105 ,2.64292 ,25.93229 
170 ,30.8914 ,0.90299 ,2.61896 ,25.69724 
171 ,31.0671 ,0.90475 ,2.60869 ,25.59651 
172 ,31.2431 ,0.90648 ,2.61212 ,25.63009 
173 ,31.4351 ,0.90836 ,2.58132 ,25.32788 
174 ,31.6109 ,0.91014 ,2.56078 ,25.12641 
175 ,31.7875 ,0.91193 ,2.55052 ,25.02568 
176 ,31.9634 ,0.91368 ,2.55394 ,25.05926 
177 ,32.1392 ,0.91546 ,2.54367 ,24.95852 
178 ,32.3314 ,0.91730 ,2.50945 ,24.62274 
179 ,32.5237 ,0.91927 ,2.50261 ,24.55558 
180 ,32.6994 ,0.92103 ,2.48550 ,24.38769 
181 ,32.8758 ,0.92281 ,2.45127 ,24.05191 
182 ,33.0514 ,0.92454 ,2.44443 ,23.98475 
183 ,33.2279 ,0.92634 ,2.44101 ,23.95117 
184 ,33.4199 ,0.92819 ,2.41363 ,23.68255 
185 ,33.5962 ,0.92995 ,2.40336 ,23.58181 
186 ,33.7721 ,0.93182 ,2.38968 ,23.44750 
187 ,33.9321 ,0.93349 ,2.37256 ,23.27961 
188 ,34.1083 ,0.93514 ,2.36914 ,23.24603 
189 ,34.3004 ,0.93703 ,2.35203 ,23.07814 
190 ,34.4924 ,0.93899 ,2.32123 ,22.77593 
191 ,34.6685 ,0.94069 ,2.30754 ,22.64162 
192 ,34.8606 ,0.94267 ,2.29043 ,22.47373 
193 ,35.0527 ,0.94457 ,2.26990 ,22.27226 
194 ,35.2444 ,0.94638 ,2.26306 ,22.20510 
195 ,35.4206 ,0.94824 ,2.24937 ,22.07079 
196 ,35.5968 ,0.94998 ,2.23226 ,21.90290 
197 ,35.8046 ,0.95200 ,2.22541 ,21.83574 
198 ,35.9810 ,0.95387 ,2.21515 ,21.73500 
199 ,36.1569 ,0.95563 ,2.19119 ,21.49996 
200 ,36.3331 ,0.95735 ,2.18092 ,21.39922 
201 ,36.5091 ,0.95916 ,2.16039 ,21.19775 
202 ,36.6853 ,0.96089 ,2.15697 ,21.16417 
203 ,36.8613 ,0.96269 ,2.14328 ,21.02986 
204 ,37.0374 ,0.96441 ,2.11932 ,20.79481 
205 ,37.2615 ,0.96649 ,2.10221 ,20.62692 
206 ,37.4372 ,0.96847 ,2.08852 ,20.49261 
207 ,37.6137 ,0.97016 ,2.06115 ,20.22398 
208 ,37.7897 ,0.97191 ,2.06115 ,20.22398 
209 ,37.9655 ,0.97363 ,2.05430 ,20.15682 
210 ,38.1419 ,0.97551 ,2.04746 ,20.08967 
211 ,38.3339 ,0.97736 ,2.01324 ,19.75388 
212 ,38.5420 ,0.97933 ,1.99955 ,19.61957 
213 ,38.7180 ,0.98120 ,1.97902 ,19.41810 
214 ,38.8941 ,0.98299 ,1.96875 ,19.31737 
215 ,39.0699 ,0.98467 ,1.95164 ,19.14948 
216 ,39.2460 ,0.98650 ,1.94479 ,19.08232 
217 ,39.4385 ,0.98840 ,1.92426 ,18.88085 
218 ,39.6142 ,0.99021 ,1.90715 ,18.71296 
219 ,39.7905 ,0.99201 ,1.89688 ,18.61222 
220 ,39.9665 ,0.99367 ,1.89346 ,18.57864 
221 ,40.1424 ,0.99542 ,1.87293 ,18.37717 
222 ,40.3188 ,0.99719 ,1.85240 ,18.17570 
223 ,40.4948 ,0.99901 ,1.83186 ,17.97423 
224 ,40.6710 ,1.00071 ,1.82502 ,17.90708 
225 ,40.8468 ,1.00248 ,1.80791 ,17.73919 
226 ,41.0551 ,1.00453 ,1.80449 ,17.70561 
227 ,41.2308 ,1.00631 ,1.77711 ,17.43698 
228 ,41.4072 ,1.00806 ,1.76342 ,17.30267 
229 ,41.5993 ,1.00993 ,1.76684 ,17.33625 
230 ,41.7913 ,1.01195 ,1.72920 ,16.96689 
231 ,41.9675 ,1.01366 ,1.71893 ,16.86615 
232 ,42.1595 ,1.01557 ,1.70866 ,16.76542 
233 ,42.3352 ,1.01733 ,1.69155 ,16.59752 
234 ,42.5118 ,1.01912 ,1.66760 ,16.36248 
235 ,42.7036 ,1.02103 ,1.66418 ,16.32890 
236 ,42.8797 ,1.02278 ,1.65733 ,16.26174 
237 ,43.0559 ,1.02457 ,1.62995 ,15.99311 
238 ,43.2320 ,1.02635 ,1.61969 ,15.89238 
239 ,43.4081 ,1.02806 ,1.59916 ,15.69091 
240 ,43.6001 ,1.03001 ,1.59916 ,15.69091 
241 ,43.7923 ,1.03191 ,1.55809 ,15.28797 
242 ,43.9842 ,1.03387 ,1.56493 ,15.35513 
243 ,44.1604 ,1.03561 ,1.55124 ,15.22081 
244 ,44.3521 ,1.03752 ,1.51702 ,14.88503 
245 ,44.5446 ,1.03935 ,1.51360 ,14.85145 
246 ,44.7207 ,1.04123 ,1.50676 ,14.78430 
247 ,44.9288 ,1.04326 ,1.48965 ,14.61640 
248 ,45.1048 ,1.04508 ,1.49307 ,14.64998 
249 ,45.2965 ,1.04701 ,1.44516 ,14.17989 
250 ,45.4728 ,1.04878 ,1.45200 ,14.24704 
251 ,45.6490 ,1.05045 ,1.44858 ,14.21346 
252 ,45.8410 ,1.05236 ,1.41436 ,13.87768 
253 ,46.0172 ,1.05410 ,1.40067 ,13.74337 
254 ,46.2090 ,1.05606 ,1.39383 ,13.67621 
255 ,46.3854 ,1.05787 ,1.36987 ,13.44116 
256 ,46.5934 ,1.05989 ,1.34934 ,13.23969 
257 ,46.7854 ,1.06187 ,1.34591 ,13.20612 
258 ,46.9613 ,1.06365 ,1.33223 ,13.07180 
259 ,47.1376 ,1.06542 ,1.32880 ,13.03822 
260 ,47.3454 ,1.06734 ,1.31512 ,12.90391 
261 ,47.5373 ,1.06938 ,1.29800 ,12.73602 
262 ,47.7137 ,1.07114 ,1.26378 ,12.40024 
263 ,47.8898 ,1.07286 ,1.25009 ,12.26592 
264 ,48.0654 ,1.07467 ,1.25694 ,12.33308 
265 ,48.2415 ,1.07636 ,1.23641 ,12.13161 
266 ,48.4016 ,1.07811 ,1.22272 ,11.99730 
267 ,48.5620 ,1.07973 ,1.19876 ,11.76225 
268 ,48.7381 ,1.08139 ,1.20218 ,11.79583 
269 ,48.9303 ,1.08327 ,1.17481 ,11.52720 
270 ,49.1063 ,1.08505 ,1.17138 ,11.49362 
271 ,49.2823 ,1.08681 ,1.15770 ,11.35931 
272 ,49.4904 ,1.08875 ,1.13716 ,11.15784 
273 ,49.6662 ,1.09066 ,1.11663 ,10.95637 
274 ,49.8424 ,1.09244 ,1.12347 ,11.02353 
275 ,50.0187 ,1.09414 ,1.10294 ,10.82206 
276 ,50.2108 ,1.09607 ,1.08583 ,10.65416 
277 ,50.3868 ,1.09786 ,1.07214 ,10.51985 
278 ,50.5629 ,1.09957 ,1.06187 ,10.41912 
279 ,50.7390 ,1.10134 ,1.04476 ,10.25123 
280 ,50.9151 ,1.10315 ,1.02081 ,10.01618 
281 ,51.1071 ,1.10505 ,1.01396 ,9.94902 
282 ,51.2831 ,1.10682 ,1.01396 ,9.94902 
283 ,51.4754 ,1.10866 ,0.98659 ,9.68039 
284 ,51.6674 ,1.11063 ,0.99001 ,9.71397 
285 ,51.8594 ,1.11257 ,0.96605 ,9.47892 
286 ,52.0515 ,1.11445 ,0.94552 ,9.27745 
287 ,52.2276 ,1.11627 ,0.94552 ,9.27745 
288 ,52.4037 ,1.11797 ,0.92841 ,9.10956 
289 ,52.5958 ,1.11996 ,0.90446 ,8.87451 
290 ,52.7718 ,1.12166 ,0.88734 ,8.70662 
291 ,52.9640 ,1.12363 ,0.88734 ,8.70662 
292 ,53.1560 ,1.12542 ,0.88392 ,8.67305 
293 ,53.3320 ,1.12729 ,0.84286 ,8.27011 
294 ,53.5079 ,1.12910 ,0.85312 ,8.37084 
295 ,53.6841 ,1.13082 ,0.83943 ,8.23653 
296 ,53.8759 ,1.13262 ,0.83259 ,8.16937 
297 ,54.0523 ,1.13450 ,0.79837 ,7.83359 
298 ,54.2604 ,1.13649 ,0.80179 ,7.86717 
299 ,54.4366 ,1.13831 ,0.78126 ,7.66570 
300 ,54.6124 ,1.14013 ,0.76072 ,7.46423 
301 ,54.8046 ,1.14195 ,0.76415 ,7.49780 
302 ,54.9804 ,1.14373 ,0.76072 ,7.46423 
303 ,55.1568 ,1.14555 ,0.72650 ,7.12844 
304 ,55.3324 ,1.14733 ,0.71624 ,7.02771 
305 ,55.5089 ,1.14904 ,0.70255 ,6.89340 
306 ,55.6849 ,1.15081 ,0.70255 ,6.89340 
307 ,55.8612 ,1.15258 ,0.68544 ,6.72550 
308 ,56.0367 ,1.15434 ,0.67175 ,6.59119 
309 ,56.2131 ,1.15608 ,0.65464 ,6.42330 
310 ,56.4053 ,1.15806 ,0.64437 ,6.32256 
311 ,56.5973 ,1.15997 ,0.63410 ,6.22183 
312 ,56.7735 ,1.16166 ,0.61357 ,6.02036 
313 ,56.9653 ,1.16360 ,0.61357 ,6.02036 
314 ,57.1416 ,1.16536 ,0.61015 ,5.98678 
315 ,57.3337 ,1.16723 ,0.56908 ,5.58384 
316 ,57.5099 ,1.16903 ,0.57593 ,5.65100 
317 ,57.7019 ,1.17102 ,0.55882 ,5.48311 
318 ,57.8778 ,1.17271 ,0.55539 ,5.44953 
319 ,58.0541 ,1.17448 ,0.53828 ,5.28164 
320 ,58.2301 ,1.17626 ,0.53144 ,5.21448 
321 ,58.4222 ,1.17819 ,0.53144 ,5.21448 
322 ,58.5981 ,1.17992 ,0.51091 ,5.01301 
323 ,58.7744 ,1.18171 ,0.49380 ,4.84512 
324 ,58.9505 ,1.18345 ,0.47668 ,4.67723 
325 ,59.1264 ,1.18521 ,0.46984 ,4.61007 
326 ,59.3023 ,1.18698 ,0.46984 ,4.61007 
327 ,59.4945 ,1.18887 ,0.43904 ,4.30787 
328 ,59.6707 ,1.19062 ,0.42193 ,4.13997 
329 ,59.8627 ,1.19257 ,0.42877 ,4.20713 
330 ,60.0387 ,1.19431 ,0.41851 ,4.10640 
331 ,60.2150 ,1.19608 ,0.39455 ,3.87135 
332 ,60.4070 ,1.19802 ,0.39113 ,3.83777 
333 ,60.6151 ,1.20001 ,0.37402 ,3.66988 
334 ,60.7907 ,1.20184 ,0.35349 ,3.46841 
335 ,60.9672 ,1.20361 ,0.36375 ,3.56914 
336 ,61.1593 ,1.20546 ,0.34322 ,3.36767 
337 ,61.3348 ,1.20731 ,0.33295 ,3.26694 
338 ,61.5114 ,1.20907 ,0.31242 ,3.06547 
339 ,61.7035 ,1.21101 ,0.31584 ,3.09905 
340 ,61.8954 ,1.21291 ,0.29189 ,2.86400 
341 ,62.0717 ,1.21460 ,0.27820 ,2.72969 
342 ,62.2794 ,1.21659 ,0.29189 ,2.86400 
343 ,62.4718 ,1.21860 ,0.26793 ,2.62895 
344 ,62.6638 ,1.22051 ,0.26451 ,2.59537 
345 ,62.8399 ,1.22235 ,0.25424 ,2.49464 
346 ,63.0160 ,1.22410 ,0.23371 ,2.29317 
347 ,63.1923 ,1.22588 ,0.21660 ,2.12528 
348 ,63.3680 ,1.22760 ,0.20291 ,1.99096 
349 ,63.5441 ,1.22938 ,0.20976 ,2.05812 
350 ,63.7522 ,1.23137 ,0.18238 ,1.78949 
351 ,63.9281 ,1.23318 ,0.16185 ,1.58802 
352 ,64.1524 ,1.23531 ,0.16869 ,1.65518 
353 ,64.3443 ,1.23730 ,0.16185 ,1.58802 
354 ,64.5041 ,1.23908 ,0.16185 ,1.58802 
355 ,64.6805 ,1.24074 ,0.14816 ,1.45371 
356 ,64.8728 ,1.24265 ,0.11393 ,1.11793 
357 ,65.0487 ,1.24442 ,0.09682 ,0.95004 
358 ,65.2408 ,1.24633 ,0.11051 ,1.08435 
359 ,65.4169 ,1.24808 ,0.08314 ,0.81572 
360 ,65.6250 ,1.25009 ,0.07287 ,0.71499 
361 ,65.8011 ,1.25192 ,0.06602 ,0.64783 
362 ,65.9771 ,1.25369 ,0.06602 ,0.64783 
363 ,66.1532 ,1.25545 ,0.03522 ,0.34563 
364 ,66.3291 ,1.25720 ,0.01811 ,0.17773 
365 ,66.5053 ,1.25898 ,0.02496 ,0.24489 
366 ,66.6975 ,1.26082 ,0.01811 ,0.17773 
367 ,66.8897 ,1.26274 ,-0.00584 ,-0.05731 
368 ,67.0815 ,1.26465 ,0.00443 ,0.04342 
369 ,67.2895 ,1.26667 ,-0.03322 ,-0.32594 
370 ,67.4655 ,1.26857 ,-0.02637 ,-0.25878 
371 ,67.6414 ,1.27033 ,-0.04006 ,-0.39310 
372 ,67.8179 ,1.27208 ,-0.04348 ,-0.42667 
373 ,68.0096 ,1.27405 ,-0.06744 ,-0.66172 
374 ,68.1858 ,1.27577 ,-0.09482 ,-0.93035 
375 ,68.3781 ,1.27756 ,-0.07086 ,-0.69530 
376 ,68.5699 ,1.27956 ,-0.10166 ,-0.99751 
377 ,68.7301 ,1.28134 ,-0.09824 ,-0.96393 
378 ,68.9062 ,1.28294 ,-0.11193 ,-1.09824 
379 ,69.0984 ,1.28479 ,-0.12562 ,-1.23255 
380 ,69.2904 ,1.28675 ,-0.13931 ,-1.36687 
381 ,69.4825 ,1.28877 ,-0.12562 ,-1.23255 
382 ,69.6586 ,1.29049 ,-0.14273 ,-1.40045 
383 ,69.8504 ,1.29236 ,-0.17353 ,-1.70265 
384 ,70.0427 ,1.29431 ,-0.16326 ,-1.60191 
385 ,70.2188 ,1.29606 ,-0.16326 ,-1.60191 
386 ,70.4103 ,1.29801 ,-0.19748 ,-1.93770 
387 ,70.5864 ,1.29975 ,-0.20090 ,-1.97128 
388 ,70.7627 ,1.30152 ,-0.20090 ,-1.97128 
389 ,70.9711 ,1.30359 ,-0.22486 ,-2.20632 
390 ,71.1631 ,1.30553 ,-0.22486 ,-2.20632 
391 ,71.3392 ,1.30728 ,-0.22144 ,-2.17275 
392 ,71.5313 ,1.30910 ,-0.24197 ,-2.37422 
393 ,71.7073 ,1.31098 ,-0.25908 ,-2.54211 
394 ,71.8671 ,1.31267 ,-0.26250 ,-2.57569 
395 ,72.0432 ,1.31431 ,-0.27961 ,-2.74358 
396 ,72.2357 ,1.31611 ,-0.26935 ,-2.64284 
397 ,72.4276 ,1.31820 ,-0.30015 ,-2.94505 
398 ,72.6357 ,1.32024 ,-0.30357 ,-2.97863 
399 ,72.8116 ,1.32199 ,-0.32068 ,-3.14652 
400 ,72.9879 ,1.32377 ,-0.33095 ,-3.24725 
401 ,73.1639 ,1.32553 ,-0.33437 ,-3.28083 
402 ,73.3399 ,1.32725 ,-0.32752 ,-3.21367 
403 ,73.5162 ,1.32904 ,-0.33095 ,-3.24725 
404 ,73.6921 ,1.33081 ,-0.35490 ,-3.48230 
405 ,73.8682 ,1.33272 ,-0.35148 ,-3.44872 
406 ,74.0443 ,1.33432 ,-0.38228 ,-3.75093 
407 ,74.2365 ,1.33627 ,-0.37886 ,-3.71735 
408 ,74.4285 ,1.33817 ,-0.39939 ,-3.91882 
409 ,74.6046 ,1.33996 ,-0.40281 ,-3.95240 
410 ,74.7807 ,1.34169 ,-0.39597 ,-3.88524 
411 ,74.9567 ,1.34341 ,-0.40281 ,-3.95240 
412 ,75.1326 ,1.34516 ,-0.41992 ,-4.12029 
413 ,75.3089 ,1.34697 ,-0.43703 ,-4.28818 
414 ,75.4849 ,1.34873 ,-0.43703 ,-4.28818 
415 ,75.6611 ,1.35050 ,-0.44388 ,-4.35534 
416 ,75.8691 ,1.35241 ,-0.46441 ,-4.55681 
417 ,76.0452 ,1.35432 ,-0.46783 ,-4.59038 
418 ,76.2213 ,1.35608 ,-0.46099 ,-4.52323 
419 ,76.4134 ,1.35803 ,-0.48494 ,-4.75828 
420 ,76.5895 ,1.35984 ,-0.49179 ,-4.82543 
421 ,76.7655 ,1.36153 ,-0.50890 ,-4.99332 
422 ,76.9415 ,1.36331 ,-0.51232 ,-5.02690 
423 ,77.1177 ,1.36504 ,-0.50206 ,-4.92617 
424 ,77.3097 ,1.36693 ,-0.54312 ,-5.32911 
425 ,77.4857 ,1.36876 ,-0.54997 ,-5.39626 
426 ,77.6618 ,1.37050 ,-0.54312 ,-5.32911 
427 ,77.8540 ,1.37232 ,-0.53970 ,-5.29553 
428 ,78.0461 ,1.37436 ,-0.56708 ,-5.56415 
429 ,78.2217 ,1.37608 ,-0.57392 ,-5.63131 
430 ,78.3981 ,1.37786 ,-0.57392 ,-5.63131 
431 ,78.5904 ,1.37975 ,-0.56365 ,-5.53058 
432 ,78.7661 ,1.38153 ,-0.60814 ,-5.96709 
433 ,78.9584 ,1.38341 ,-0.58761 ,-5.76562 
434 ,79.1345 ,1.38517 ,-0.59445 ,-5.83278 
435 ,79.3101 ,1.38695 ,-0.62183 ,-6.10141 
436 ,79.4866 ,1.38874 ,-0.62525 ,-6.13499 
437 ,79.6787 ,1.39064 ,-0.62525 ,-6.13499 
438 ,79.8547 ,1.39242 ,-0.63210 ,-6.20214 
439 ,80.0308 ,1.39420 ,-0.64921 ,-6.37003 
440 ,80.2070 ,1.39593 ,-0.66290 ,-6.50435 
441 ,80.3825 ,1.39768 ,-0.67659 ,-6.63866 
442 ,80.5589 ,1.39943 ,-0.66290 ,-6.50435 
443 ,80.7510 ,1.40138 ,-0.68001 ,-6.67224 
444 ,80.9432 ,1.40322 ,-0.68343 ,-6.70582 
445 ,81.1194 ,1.40505 ,-0.70396 ,-6.90729 
446 ,81.3114 ,1.40695 ,-0.70054 ,-6.87371 
447 ,81.5034 ,1.40886 ,-0.72450 ,-7.10876 
448 ,81.6952 ,1.41075 ,-0.72107 ,-7.07518 
449 ,81.8717 ,1.41258 ,-0.73818 ,-7.24307 
450 ,82.0794 ,1.41463 ,-0.74845 ,-7.34380 
451 ,82.2558 ,1.41637 ,-0.73818 ,-7.24307 
452 ,82.4477 ,1.41839 ,-0.76556 ,-7.51170 
453 ,82.6238 ,1.42008 ,-0.77583 ,-7.61243 
454 ,82.8159 ,1.42204 ,-0.76556 ,-7.51170 
455 ,83.0081 ,1.42381 ,-0.78952 ,-7.74674 
456 ,83.1842 ,1.42571 ,-0.79978 ,-7.84748 
457 ,83.3762 ,1.42752 ,-0.79294 ,-7.78032 
458 ,83.5680 ,1.42944 ,-0.82032 ,-8.04895 
459 ,83.7444 ,1.43128 ,-0.83058 ,-8.14968 
460 ,83.9364 ,1.43323 ,-0.81347 ,-7.98179 
461 ,84.1126 ,1.43496 ,-0.84427 ,-8.28400 
462 ,84.3046 ,1.43680 ,-0.85112 ,-8.35115 
463 ,84.4969 ,1.43883 ,-0.84427 ,-8.28400 
