Data stamp = , 03-04-2022 00:13:39 385

Calibration Values: 
Slope = , 26.54 , g/V 
Offset Voltage at no contact = , -0.501760 , V 

No , Time , Stage Position ,   Mass , Force 
   ,  (s) ,      (mm)      ,   (g)  , (mN)  

1 ,0.0000 ,0.64943 ,5.03159 ,49.36995 
2 ,0.2104 ,0.64950 ,5.02132 ,49.26921 
3 ,0.4985 ,0.65024 ,5.04528 ,49.50426 
4 ,0.6906 ,0.65154 ,5.03159 ,49.36995 
5 ,0.8667 ,0.65299 ,5.03501 ,49.40352 
6 ,1.0429 ,0.65468 ,5.05554 ,49.60499 
7 ,1.2349 ,0.65647 ,5.04185 ,49.47068 
8 ,1.4269 ,0.65841 ,5.05212 ,49.57142 
9 ,1.6031 ,0.66024 ,5.05212 ,49.57142 
10 ,1.7791 ,0.66198 ,5.03159 ,49.36995 
11 ,1.9553 ,0.66381 ,5.00421 ,49.10132 
12 ,2.1310 ,0.66553 ,4.99394 ,49.00058 
13 ,2.3074 ,0.66725 ,4.99052 ,48.96701 
14 ,2.4834 ,0.66903 ,4.98368 ,48.89985 
15 ,2.6914 ,0.67106 ,4.96315 ,48.69838 
16 ,2.8677 ,0.67287 ,4.96315 ,48.69838 
17 ,3.0597 ,0.67483 ,4.93919 ,48.46333 
18 ,3.2353 ,0.67660 ,4.91523 ,48.22828 
19 ,3.4279 ,0.67838 ,4.89128 ,47.99324 
20 ,3.6198 ,0.68039 ,4.90155 ,48.09397 
21 ,3.7961 ,0.68215 ,4.85364 ,47.62387 
22 ,3.9878 ,0.68403 ,4.85021 ,47.59030 
23 ,4.1961 ,0.68600 ,4.80573 ,47.15378 
24 ,4.3721 ,0.68786 ,4.79546 ,47.05304 
25 ,4.5482 ,0.68966 ,4.78177 ,46.91873 
26 ,4.7243 ,0.69142 ,4.76466 ,46.75084 
27 ,4.9325 ,0.69351 ,4.73728 ,46.48221 
28 ,5.1244 ,0.69539 ,4.72017 ,46.31432 
29 ,5.3006 ,0.69724 ,4.70990 ,46.21359 
30 ,5.4925 ,0.69904 ,4.66884 ,45.81065 
31 ,5.7007 ,0.70113 ,4.65173 ,45.64275 
32 ,5.8768 ,0.70294 ,4.63462 ,45.47486 
33 ,6.0529 ,0.70476 ,4.60724 ,45.20624 
34 ,6.2450 ,0.70654 ,4.61408 ,45.27339 
35 ,6.4207 ,0.70845 ,4.59013 ,45.03835 
36 ,6.6131 ,0.71019 ,4.56275 ,44.76972 
37 ,6.7892 ,0.71209 ,4.53537 ,44.50109 
38 ,6.9652 ,0.71381 ,4.52853 ,44.43394 
39 ,7.1574 ,0.71566 ,4.50800 ,44.23247 
40 ,7.3655 ,0.71776 ,4.48062 ,43.96384 
41 ,7.5415 ,0.71960 ,4.47035 ,43.86310 
42 ,7.7335 ,0.72148 ,4.43613 ,43.52732 
43 ,7.9095 ,0.72324 ,4.42244 ,43.39301 
44 ,8.0857 ,0.72503 ,4.42244 ,43.39301 
45 ,8.2617 ,0.72680 ,4.39507 ,43.12438 
46 ,8.4380 ,0.72856 ,4.37453 ,42.92291 
47 ,8.6298 ,0.73043 ,4.35058 ,42.68786 
48 ,8.8222 ,0.73229 ,4.34373 ,42.62071 
49 ,9.0139 ,0.73435 ,4.30951 ,42.28492 
50 ,9.1902 ,0.73611 ,4.29582 ,42.15061 
51 ,9.3662 ,0.73787 ,4.28556 ,42.04988 
52 ,9.5424 ,0.73964 ,4.28556 ,42.04988 
53 ,9.7344 ,0.74149 ,4.24791 ,41.68051 
54 ,9.9103 ,0.74325 ,4.24107 ,41.61336 
55 ,10.0866 ,0.74502 ,4.22738 ,41.47905 
56 ,10.2627 ,0.74679 ,4.21369 ,41.34473 
57 ,10.4387 ,0.74862 ,4.19316 ,41.14326 
58 ,10.6149 ,0.75034 ,4.16920 ,40.90821 
59 ,10.8069 ,0.75222 ,4.16920 ,40.90821 
60 ,10.9990 ,0.75418 ,4.13498 ,40.57243 
61 ,11.1751 ,0.75596 ,4.10760 ,40.30380 
62 ,11.3672 ,0.75786 ,4.10418 ,40.27023 
63 ,11.5593 ,0.75969 ,4.09049 ,40.13591 
64 ,11.7351 ,0.76151 ,4.06654 ,39.90087 
65 ,11.9114 ,0.76329 ,4.03232 ,39.56508 
66 ,12.0873 ,0.76504 ,4.03916 ,39.63224 
67 ,12.2636 ,0.76683 ,4.02547 ,39.49793 
68 ,12.4396 ,0.76860 ,4.00494 ,39.29646 
69 ,12.6156 ,0.77032 ,3.99467 ,39.19572 
70 ,12.7753 ,0.77201 ,3.95703 ,38.82636 
71 ,12.9518 ,0.77373 ,3.93307 ,38.59131 
72 ,13.1279 ,0.77545 ,3.91938 ,38.45700 
73 ,13.3198 ,0.77730 ,3.90570 ,38.32268 
74 ,13.4960 ,0.77911 ,3.89543 ,38.22195 
75 ,13.6880 ,0.78102 ,3.88516 ,38.12122 
76 ,13.8477 ,0.78274 ,3.86805 ,37.95332 
77 ,14.0241 ,0.78435 ,3.85436 ,37.81901 
78 ,14.2162 ,0.78623 ,3.82356 ,37.51681 
79 ,14.3922 ,0.78806 ,3.80987 ,37.38249 
80 ,14.5685 ,0.78979 ,3.79276 ,37.21460 
81 ,14.7445 ,0.79163 ,3.79619 ,37.24818 
82 ,14.9365 ,0.79352 ,3.76539 ,36.94597 
83 ,15.1125 ,0.79532 ,3.73801 ,36.67735 
84 ,15.2887 ,0.79705 ,3.71748 ,36.47588 
85 ,15.4648 ,0.79886 ,3.71063 ,36.40872 
86 ,15.6569 ,0.80064 ,3.70037 ,36.30799 
87 ,15.8490 ,0.80268 ,3.66957 ,36.00578 
88 ,16.0410 ,0.80453 ,3.66272 ,35.93863 
89 ,16.2169 ,0.80632 ,3.63534 ,35.67000 
90 ,16.3933 ,0.80807 ,3.60797 ,35.40137 
91 ,16.6012 ,0.81011 ,3.61139 ,35.43495 
92 ,16.7774 ,0.81187 ,3.58401 ,35.16632 
93 ,16.9531 ,0.81372 ,3.57032 ,35.03201 
94 ,17.1293 ,0.81547 ,3.55321 ,34.86412 
95 ,17.3376 ,0.81754 ,3.53952 ,34.72981 
96 ,17.5452 ,0.81953 ,3.52241 ,34.56192 
97 ,17.7377 ,0.82139 ,3.51215 ,34.46118 
98 ,17.9139 ,0.82327 ,3.47792 ,34.12540 
99 ,18.0898 ,0.82506 ,3.45397 ,33.89035 
100 ,18.2818 ,0.82687 ,3.45739 ,33.92393 
101 ,18.4578 ,0.82872 ,3.44370 ,33.78961 
102 ,18.6339 ,0.83047 ,3.41633 ,33.52099 
103 ,18.8262 ,0.83240 ,3.40948 ,33.45383 
104 ,19.0186 ,0.83426 ,3.39237 ,33.28594 
105 ,19.2102 ,0.83626 ,3.35473 ,32.91658 
106 ,19.4023 ,0.83814 ,3.36157 ,32.98374 
107 ,19.5785 ,0.83993 ,3.33762 ,32.74869 
108 ,19.7545 ,0.84172 ,3.31708 ,32.54722 
109 ,19.9466 ,0.84363 ,3.29997 ,32.37933 
110 ,20.1225 ,0.84535 ,3.28971 ,32.27859 
111 ,20.2988 ,0.84713 ,3.27602 ,32.14428 
112 ,20.4904 ,0.84903 ,3.23837 ,31.77492 
113 ,20.6505 ,0.85073 ,3.21784 ,31.57345 
114 ,20.8268 ,0.85241 ,3.21784 ,31.57345 
115 ,21.0188 ,0.85432 ,3.20757 ,31.47271 
116 ,21.1949 ,0.85608 ,3.18704 ,31.27124 
117 ,21.3872 ,0.85795 ,3.17335 ,31.13693 
118 ,21.5631 ,0.85975 ,3.16993 ,31.10335 
119 ,21.7390 ,0.86150 ,3.13229 ,30.73399 
120 ,21.9313 ,0.86340 ,3.11518 ,30.56610 
121 ,22.1073 ,0.86516 ,3.11175 ,30.53252 
122 ,22.2832 ,0.86694 ,3.10491 ,30.46536 
123 ,22.4596 ,0.86875 ,3.08095 ,30.23031 
124 ,22.6517 ,0.87066 ,3.04331 ,29.86095 
125 ,22.8278 ,0.87246 ,3.03304 ,29.76022 
126 ,23.0194 ,0.87431 ,3.02962 ,29.72664 
127 ,23.1958 ,0.87606 ,2.99540 ,29.39086 
128 ,23.3555 ,0.87777 ,2.98171 ,29.25654 
129 ,23.5321 ,0.87947 ,2.97487 ,29.18939 
130 ,23.7081 ,0.88119 ,2.94064 ,28.85360 
131 ,23.8842 ,0.88299 ,2.93722 ,28.82003 
132 ,24.0439 ,0.88466 ,2.93038 ,28.75287 
133 ,24.2202 ,0.88628 ,2.92011 ,28.65213 
134 ,24.3960 ,0.88805 ,2.88931 ,28.34993 
135 ,24.5724 ,0.88985 ,2.86536 ,28.11488 
136 ,24.7645 ,0.89181 ,2.86193 ,28.08130 
137 ,24.9566 ,0.89360 ,2.85509 ,28.01415 
138 ,25.1487 ,0.89560 ,2.82087 ,27.67836 
139 ,25.3407 ,0.89753 ,2.80718 ,27.54405 
140 ,25.5167 ,0.89927 ,2.79349 ,27.40974 
141 ,25.6927 ,0.90099 ,2.76269 ,27.10753 
142 ,25.8689 ,0.90280 ,2.76269 ,27.10753 
143 ,26.0610 ,0.90462 ,2.74900 ,26.97322 
144 ,26.2372 ,0.90645 ,2.72847 ,26.77175 
145 ,26.4132 ,0.90823 ,2.69767 ,26.46954 
146 ,26.5888 ,0.91013 ,2.69767 ,26.46954 
147 ,26.7489 ,0.91173 ,2.68398 ,26.33523 
148 ,26.9249 ,0.91335 ,2.68056 ,26.30165 
149 ,27.1011 ,0.91513 ,2.66345 ,26.13376 
150 ,27.2771 ,0.91686 ,2.63265 ,25.83156 
151 ,27.4695 ,0.91870 ,2.62923 ,25.79798 
152 ,27.6455 ,0.92067 ,2.60185 ,25.52935 
153 ,27.8217 ,0.92234 ,2.59158 ,25.42862 
154 ,27.9975 ,0.92406 ,2.57447 ,25.26073 
155 ,28.1739 ,0.92584 ,2.55052 ,25.02568 
156 ,28.3658 ,0.92784 ,2.52998 ,24.82421 
157 ,28.5420 ,0.92951 ,2.53341 ,24.85779 
158 ,28.7181 ,0.93123 ,2.49576 ,24.48842 
159 ,28.9103 ,0.93323 ,2.47523 ,24.28696 
160 ,29.1023 ,0.93505 ,2.46839 ,24.21980 
161 ,29.2943 ,0.93703 ,2.45812 ,24.11906 
162 ,29.4699 ,0.93880 ,2.43074 ,23.85044 
163 ,29.6459 ,0.94056 ,2.42732 ,23.81686 
164 ,29.8382 ,0.94238 ,2.39994 ,23.54823 
165 ,30.0465 ,0.94450 ,2.39310 ,23.48108 
166 ,30.2387 ,0.94642 ,2.37256 ,23.27961 
167 ,30.4149 ,0.94827 ,2.37256 ,23.27961 
168 ,30.6067 ,0.95018 ,2.34519 ,23.01098 
169 ,30.7829 ,0.95190 ,2.33834 ,22.94382 
170 ,30.9749 ,0.95380 ,2.30412 ,22.60804 
171 ,31.1672 ,0.95575 ,2.30070 ,22.57446 
172 ,31.3432 ,0.95757 ,2.29385 ,22.50731 
173 ,31.5191 ,0.95928 ,2.26990 ,22.27226 
174 ,31.6954 ,0.96104 ,2.24252 ,22.00363 
175 ,31.8714 ,0.96285 ,2.23568 ,21.93647 
176 ,32.0476 ,0.96454 ,2.22199 ,21.80216 
177 ,32.2237 ,0.96636 ,2.20146 ,21.60069 
178 ,32.4317 ,0.96833 ,2.18092 ,21.39922 
179 ,32.6238 ,0.97030 ,2.17750 ,21.36564 
180 ,32.7995 ,0.97209 ,2.16723 ,21.26491 
181 ,32.9759 ,0.97390 ,2.14670 ,21.06344 
182 ,33.1677 ,0.97576 ,2.12617 ,20.86197 
183 ,33.3438 ,0.97754 ,2.11248 ,20.72766 
184 ,33.5360 ,0.97943 ,2.09195 ,20.52619 
185 ,33.7117 ,0.98120 ,2.07484 ,20.35829 
186 ,33.8878 ,0.98292 ,2.06115 ,20.22398 
187 ,34.0638 ,0.98475 ,2.05430 ,20.15682 
188 ,34.2403 ,0.98644 ,2.05088 ,20.12325 
189 ,34.4324 ,0.98827 ,2.02693 ,19.88820 
190 ,34.6085 ,0.99018 ,1.99955 ,19.61957 
191 ,34.8007 ,0.99204 ,1.99613 ,19.58599 
192 ,34.9767 ,0.99395 ,1.97217 ,19.35094 
193 ,35.1528 ,0.99561 ,1.96533 ,19.28379 
194 ,35.3447 ,0.99755 ,1.95848 ,19.21663 
195 ,35.5211 ,0.99929 ,1.95506 ,19.18305 
196 ,35.7131 ,1.00124 ,1.90373 ,18.67938 
197 ,35.9050 ,1.00315 ,1.91742 ,18.81369 
198 ,36.0645 ,1.00482 ,1.89688 ,18.61222 
199 ,36.2409 ,1.00644 ,1.88319 ,18.47791 
200 ,36.4170 ,1.00824 ,1.85582 ,18.20928 
201 ,36.5934 ,1.01003 ,1.83871 ,18.04139 
202 ,36.7853 ,1.01195 ,1.84213 ,18.07497 
203 ,36.9614 ,1.01369 ,1.83528 ,18.00781 
204 ,37.1376 ,1.01544 ,1.79764 ,17.63845 
205 ,37.3297 ,1.01740 ,1.78737 ,17.53772 
206 ,37.5056 ,1.01914 ,1.78053 ,17.47056 
207 ,37.6817 ,1.02087 ,1.77026 ,17.36983 
208 ,37.8579 ,1.02267 ,1.74631 ,17.13478 
209 ,38.0340 ,1.02444 ,1.72235 ,16.89973 
210 ,38.2421 ,1.02644 ,1.73262 ,17.00046 
211 ,38.4501 ,1.02854 ,1.71209 ,16.79899 
212 ,38.6262 ,1.03035 ,1.68471 ,16.53037 
213 ,38.8022 ,1.03210 ,1.68813 ,16.56395 
214 ,38.9784 ,1.03382 ,1.65733 ,16.26174 
215 ,39.1540 ,1.03568 ,1.65391 ,16.22816 
216 ,39.3465 ,1.03750 ,1.65049 ,16.19458 
217 ,39.5223 ,1.03931 ,1.63338 ,16.02669 
218 ,39.6986 ,1.04102 ,1.60942 ,15.79164 
219 ,39.9068 ,1.04300 ,1.58889 ,15.59018 
220 ,40.0828 ,1.04492 ,1.58547 ,15.55660 
221 ,40.2428 ,1.04660 ,1.56151 ,15.32155 
222 ,40.4186 ,1.04820 ,1.53413 ,15.05292 
223 ,40.5951 ,1.04998 ,1.53071 ,15.01934 
224 ,40.7711 ,1.05174 ,1.51360 ,14.85145 
225 ,40.9633 ,1.05370 ,1.52045 ,14.91861 
226 ,41.1392 ,1.05547 ,1.50676 ,14.78430 
227 ,41.3154 ,1.05728 ,1.47938 ,14.51567 
228 ,41.4914 ,1.05900 ,1.45542 ,14.28062 
229 ,41.6672 ,1.06074 ,1.45542 ,14.28062 
230 ,41.8436 ,1.06249 ,1.44174 ,14.14631 
231 ,42.0197 ,1.06429 ,1.42805 ,14.01199 
232 ,42.1955 ,1.06595 ,1.40409 ,13.77695 
233 ,42.3718 ,1.06775 ,1.38356 ,13.57548 
234 ,42.5478 ,1.06953 ,1.38356 ,13.57548 
235 ,42.7241 ,1.07123 ,1.38014 ,13.54190 
236 ,42.9160 ,1.07321 ,1.35276 ,13.27327 
237 ,43.0922 ,1.07496 ,1.32880 ,13.03822 
238 ,43.3001 ,1.07700 ,1.32538 ,13.00465 
239 ,43.4923 ,1.07896 ,1.30485 ,12.80318 
240 ,43.6843 ,1.08095 ,1.29800 ,12.73602 
241 ,43.8604 ,1.08264 ,1.29116 ,12.66886 
242 ,44.0365 ,1.08439 ,1.27747 ,12.53455 
243 ,44.2284 ,1.08629 ,1.26378 ,12.40024 
244 ,44.4043 ,1.08809 ,1.25352 ,12.29950 
245 ,44.5808 ,1.08983 ,1.24667 ,12.23235 
246 ,44.7887 ,1.09190 ,1.22614 ,12.03088 
247 ,44.9648 ,1.09369 ,1.19876 ,11.76225 
248 ,45.1410 ,1.09543 ,1.19534 ,11.72867 
249 ,45.3331 ,1.09738 ,1.17138 ,11.49362 
250 ,45.5087 ,1.09910 ,1.14743 ,11.25857 
251 ,45.7010 ,1.10092 ,1.15770 ,11.35931 
252 ,45.8772 ,1.10282 ,1.13032 ,11.09068 
253 ,46.0531 ,1.10452 ,1.12690 ,11.05710 
254 ,46.2455 ,1.10652 ,1.12347 ,11.02353 
255 ,46.4372 ,1.10844 ,1.09952 ,10.78848 
256 ,46.6134 ,1.11021 ,1.08241 ,10.62059 
257 ,46.8055 ,1.11206 ,1.07214 ,10.51985 
258 ,46.9818 ,1.11384 ,1.07214 ,10.51985 
259 ,47.1898 ,1.11586 ,1.04476 ,10.25123 
260 ,47.3659 ,1.11767 ,1.03450 ,10.15049 
261 ,47.5419 ,1.11948 ,1.02765 ,10.08333 
262 ,47.7179 ,1.12124 ,0.99685 ,9.78113 
263 ,47.8941 ,1.12297 ,0.98659 ,9.68039 
264 ,48.0701 ,1.12477 ,0.96263 ,9.44535 
265 ,48.2462 ,1.12652 ,0.97290 ,9.54608 
266 ,48.4383 ,1.12843 ,0.94552 ,9.27745 
267 ,48.6303 ,1.13025 ,0.93868 ,9.21030 
268 ,48.8227 ,1.13224 ,0.93868 ,9.21030 
269 ,49.0302 ,1.13423 ,0.92499 ,9.07598 
270 ,49.2067 ,1.13605 ,0.90446 ,8.87451 
271 ,49.3987 ,1.13799 ,0.89077 ,8.74020 
272 ,49.5908 ,1.13984 ,0.88392 ,8.67305 
273 ,49.7829 ,1.14185 ,0.86681 ,8.50515 
274 ,49.9750 ,1.14377 ,0.84628 ,8.30368 
275 ,50.1510 ,1.14554 ,0.83943 ,8.23653 
276 ,50.3269 ,1.14734 ,0.83601 ,8.20295 
277 ,50.5032 ,1.14905 ,0.82575 ,8.10221 
278 ,50.6952 ,1.15092 ,0.80179 ,7.86717 
279 ,50.8712 ,1.15271 ,0.78810 ,7.73285 
280 ,51.0633 ,1.15466 ,0.79152 ,7.76643 
281 ,51.2393 ,1.15641 ,0.76757 ,7.53138 
282 ,51.4315 ,1.15832 ,0.75046 ,7.36349 
283 ,51.6076 ,1.16010 ,0.74361 ,7.29633 
284 ,51.7833 ,1.16183 ,0.73335 ,7.19560 
285 ,51.9595 ,1.16361 ,0.73335 ,7.19560 
286 ,52.1358 ,1.16549 ,0.69228 ,6.79266 
287 ,52.3120 ,1.16711 ,0.68886 ,6.75908 
288 ,52.5035 ,1.16895 ,0.68544 ,6.72550 
289 ,52.6639 ,1.17077 ,0.67517 ,6.62477 
290 ,52.8402 ,1.17244 ,0.68201 ,6.69193 
291 ,53.0322 ,1.17435 ,0.64437 ,6.32256 
292 ,53.2242 ,1.17626 ,0.65464 ,6.42330 
293 ,53.4164 ,1.17804 ,0.62042 ,6.08752 
294 ,53.5924 ,1.17998 ,0.60330 ,5.91962 
295 ,53.7683 ,1.18176 ,0.60673 ,5.95320 
296 ,53.9443 ,1.18346 ,0.60330 ,5.91962 
297 ,54.1365 ,1.18528 ,0.57593 ,5.65100 
298 ,54.3127 ,1.18709 ,0.57593 ,5.65100 
299 ,54.4887 ,1.18888 ,0.57251 ,5.61742 
300 ,54.6647 ,1.19065 ,0.55539 ,5.44953 
301 ,54.8407 ,1.19240 ,0.54171 ,5.31522 
302 ,55.0166 ,1.19419 ,0.51775 ,5.08017 
303 ,55.1931 ,1.19598 ,0.49722 ,4.87870 
304 ,55.3850 ,1.19786 ,0.52802 ,5.18090 
305 ,55.5611 ,1.19960 ,0.50064 ,4.91228 
306 ,55.7373 ,1.20138 ,0.47668 ,4.67723 
307 ,55.9132 ,1.20315 ,0.46984 ,4.61007 
308 ,56.1049 ,1.20490 ,0.46984 ,4.61007 
309 ,56.2815 ,1.20680 ,0.45273 ,4.44218 
310 ,56.5055 ,1.20879 ,0.44246 ,4.34144 
311 ,56.6816 ,1.21082 ,0.42877 ,4.20713 
312 ,56.8575 ,1.21257 ,0.41166 ,4.03924 
313 ,57.0334 ,1.21432 ,0.40824 ,4.00566 
314 ,57.2098 ,1.21604 ,0.40482 ,3.97208 
315 ,57.3860 ,1.21782 ,0.39797 ,3.90493 
316 ,57.5620 ,1.21962 ,0.39455 ,3.87135 
317 ,57.7381 ,1.22134 ,0.36033 ,3.53557 
318 ,57.9142 ,1.22312 ,0.35006 ,3.43483 
319 ,58.1058 ,1.22494 ,0.35349 ,3.46841 
320 ,58.2822 ,1.22678 ,0.34664 ,3.40125 
321 ,58.4584 ,1.22854 ,0.31584 ,3.09905 
322 ,58.6345 ,1.23034 ,0.30558 ,2.99831 
323 ,58.8267 ,1.23217 ,0.30900 ,3.03189 
324 ,59.0026 ,1.23403 ,0.29873 ,2.93116 
325 ,59.2107 ,1.23598 ,0.26451 ,2.59537 
326 ,59.4028 ,1.23802 ,0.27478 ,2.69611 
327 ,59.5947 ,1.23991 ,0.24055 ,2.36032 
328 ,59.7709 ,1.24165 ,0.25082 ,2.46106 
329 ,59.9627 ,1.24362 ,0.24740 ,2.42748 
330 ,60.1390 ,1.24534 ,0.22344 ,2.19243 
331 ,60.3308 ,1.24729 ,0.22344 ,2.19243 
332 ,60.5069 ,1.24902 ,0.21318 ,2.09170 
333 ,60.6832 ,1.25079 ,0.19949 ,1.95738 
334 ,60.8590 ,1.25254 ,0.17553 ,1.72234 
335 ,61.0354 ,1.25431 ,0.17553 ,1.72234 
336 ,61.2275 ,1.25612 ,0.17553 ,1.72234 
337 ,61.4195 ,1.25822 ,0.14473 ,1.42013 
338 ,61.5957 ,1.25994 ,0.14131 ,1.38655 
339 ,61.7878 ,1.26185 ,0.15158 ,1.48729 
340 ,61.9797 ,1.26369 ,0.11736 ,1.15151 
341 ,62.1559 ,1.26551 ,0.11736 ,1.15151 
342 ,62.3319 ,1.26737 ,0.11736 ,1.15151 
343 ,62.5080 ,1.26902 ,0.10025 ,0.98361 
344 ,62.6842 ,1.27078 ,0.08656 ,0.84930 
345 ,62.8601 ,1.27256 ,0.06945 ,0.68141 
346 ,63.0361 ,1.27428 ,0.05234 ,0.51352 
347 ,63.2123 ,1.27613 ,0.04891 ,0.47994 
348 ,63.3884 ,1.27781 ,0.04891 ,0.47994 
349 ,63.5484 ,1.27957 ,0.03865 ,0.37920 
350 ,63.7244 ,1.28118 ,0.03522 ,0.34563 
351 ,63.9006 ,1.28297 ,0.02154 ,0.21131 
352 ,64.0924 ,1.28484 ,0.01127 ,0.11058 
353 ,64.2686 ,1.28664 ,0.00100 ,0.00984 
354 ,64.4448 ,1.28838 ,-0.00242 ,-0.02373 
355 ,64.6208 ,1.29018 ,-0.03322 ,-0.32594 
356 ,64.7968 ,1.29190 ,-0.05033 ,-0.49383 
357 ,65.0052 ,1.29389 ,-0.05717 ,-0.56099 
358 ,65.1968 ,1.29585 ,-0.07771 ,-0.76246 
359 ,65.3733 ,1.29771 ,-0.07428 ,-0.72888 
360 ,65.5652 ,1.29962 ,-0.08797 ,-0.86319 
361 ,65.7574 ,1.30147 ,-0.10166 ,-0.99751 
362 ,65.9654 ,1.30361 ,-0.09824 ,-0.96393 
363 ,66.1575 ,1.30552 ,-0.12904 ,-1.26613 
364 ,66.3495 ,1.30738 ,-0.13931 ,-1.36687 
365 ,66.5416 ,1.30929 ,-0.14957 ,-1.46760 
366 ,66.7177 ,1.31110 ,-0.15642 ,-1.53476 
367 ,66.8936 ,1.31291 ,-0.16326 ,-1.60191 
368 ,67.0696 ,1.31464 ,-0.16326 ,-1.60191 
369 ,67.2619 ,1.31652 ,-0.18379 ,-1.80338 
370 ,67.4219 ,1.31827 ,-0.21459 ,-2.10559 
371 ,67.5981 ,1.31992 ,-0.20775 ,-2.03843 
372 ,67.7582 ,1.32164 ,-0.21117 ,-2.07201 
373 ,67.9343 ,1.32326 ,-0.21459 ,-2.10559 
374 ,68.1261 ,1.32524 ,-0.22144 ,-2.17275 
375 ,68.3022 ,1.32694 ,-0.23513 ,-2.30706 
376 ,68.4785 ,1.32878 ,-0.24881 ,-2.44137 
377 ,68.6546 ,1.33053 ,-0.25908 ,-2.54211 
378 ,68.8303 ,1.33237 ,-0.25224 ,-2.47495 
379 ,69.0230 ,1.33413 ,-0.27619 ,-2.71000 
380 ,69.1987 ,1.33598 ,-0.27961 ,-2.74358 
381 ,69.3748 ,1.33766 ,-0.28988 ,-2.84431 
382 ,69.5669 ,1.33961 ,-0.29673 ,-2.91147 
383 ,69.7431 ,1.34136 ,-0.32068 ,-3.14652 
384 ,69.9352 ,1.34327 ,-0.32410 ,-3.18010 
385 ,70.1273 ,1.34528 ,-0.34464 ,-3.38156 
386 ,70.3033 ,1.34700 ,-0.33437 ,-3.28083 
387 ,70.4794 ,1.34873 ,-0.36175 ,-3.54946 
388 ,70.6713 ,1.35062 ,-0.34464 ,-3.38156 
389 ,70.8473 ,1.35241 ,-0.35148 ,-3.44872 
390 ,71.0396 ,1.35427 ,-0.36517 ,-3.58303 
391 ,71.2316 ,1.35623 ,-0.38228 ,-3.75093 
392 ,71.4076 ,1.35798 ,-0.38228 ,-3.75093 
393 ,71.5837 ,1.35977 ,-0.40623 ,-3.98597 
394 ,71.7598 ,1.36152 ,-0.40623 ,-3.98597 
395 ,71.9355 ,1.36334 ,-0.40623 ,-3.98597 
396 ,72.1120 ,1.36507 ,-0.41992 ,-4.12029 
397 ,72.3037 ,1.36695 ,-0.43019 ,-4.22102 
398 ,72.4801 ,1.36867 ,-0.45757 ,-4.48965 
399 ,72.6562 ,1.37048 ,-0.45072 ,-4.42249 
400 ,72.8323 ,1.37229 ,-0.45414 ,-4.45607 
401 ,73.0242 ,1.37418 ,-0.46441 ,-4.55681 
402 ,73.2005 ,1.37587 ,-0.48152 ,-4.72470 
403 ,73.3925 ,1.37780 ,-0.46783 ,-4.59038 
404 ,73.5686 ,1.37959 ,-0.48152 ,-4.72470 
405 ,73.7605 ,1.38150 ,-0.50206 ,-4.92617 
406 ,73.9369 ,1.38331 ,-0.51917 ,-5.09406 
407 ,74.1609 ,1.38538 ,-0.51574 ,-5.06048 
408 ,74.3689 ,1.38756 ,-0.52259 ,-5.12764 
409 ,74.5450 ,1.38936 ,-0.53285 ,-5.22837 
410 ,74.7213 ,1.39111 ,-0.53970 ,-5.29553 
411 ,74.9131 ,1.39307 ,-0.56365 ,-5.53058 
412 ,75.0889 ,1.39479 ,-0.56023 ,-5.49700 
413 ,75.2654 ,1.39659 ,-0.55681 ,-5.46342 
414 ,75.4414 ,1.39836 ,-0.58077 ,-5.69847 
415 ,75.6335 ,1.40027 ,-0.59103 ,-5.79920 
416 ,75.8095 ,1.40201 ,-0.59103 ,-5.79920 
417 ,75.9856 ,1.40379 ,-0.60472 ,-5.93352 
418 ,76.1612 ,1.40552 ,-0.63552 ,-6.23572 
419 ,76.3377 ,1.40730 ,-0.62868 ,-6.16856 
420 ,76.5143 ,1.40906 ,-0.62183 ,-6.10141 
421 ,76.6899 ,1.41083 ,-0.63210 ,-6.20214 
422 ,76.8660 ,1.41258 ,-0.64236 ,-6.30288 
423 ,77.0420 ,1.41444 ,-0.66290 ,-6.50435 
424 ,77.2180 ,1.41612 ,-0.66974 ,-6.57150 
425 ,77.3941 ,1.41785 ,-0.67659 ,-6.63866 
426 ,77.5862 ,1.41978 ,-0.68685 ,-6.73940 
427 ,77.7623 ,1.42151 ,-0.69712 ,-6.84013 
428 ,77.9384 ,1.42330 ,-0.69712 ,-6.84013 
429 ,78.1147 ,1.42507 ,-0.71081 ,-6.97444 
430 ,78.2902 ,1.42690 ,-0.71765 ,-7.04160 
431 ,78.4666 ,1.42862 ,-0.71765 ,-7.04160 
432 ,78.6586 ,1.43047 ,-0.74845 ,-7.34380 
433 ,78.8347 ,1.43227 ,-0.72792 ,-7.14233 
434 ,79.0108 ,1.43403 ,-0.74161 ,-7.27665 
435 ,79.1868 ,1.43574 ,-0.76898 ,-7.54527 
436 ,79.3626 ,1.43753 ,-0.77241 ,-7.57885 
437 ,79.5391 ,1.43932 ,-0.78952 ,-7.74674 
438 ,79.7152 ,1.44106 ,-0.79294 ,-7.78032 
439 ,79.9232 ,1.44304 ,-0.77241 ,-7.57885 
440 ,80.0993 ,1.44488 ,-0.82032 ,-8.04895 
441 ,80.2754 ,1.44668 ,-0.81347 ,-7.98179 
442 ,80.4670 ,1.44849 ,-0.81689 ,-8.01537 
443 ,80.6432 ,1.45034 ,-0.83058 ,-8.14968 
444 ,80.8030 ,1.45205 ,-0.83743 ,-8.21684 
445 ,80.9633 ,1.45365 ,-0.85112 ,-8.35115 
446 ,81.1396 ,1.45531 ,-0.84427 ,-8.28400 
447 ,81.3157 ,1.45709 ,-0.85112 ,-8.35115 
448 ,81.4918 ,1.45881 ,-0.85796 ,-8.41831 
449 ,81.6679 ,1.46060 ,-0.86138 ,-8.45189 
450 ,81.8599 ,1.46248 ,-0.89218 ,-8.75409 
451 ,82.0360 ,1.46426 ,-0.88876 ,-8.72051 
452 ,82.2281 ,1.46614 ,-0.87849 ,-8.61978 
453 ,82.4042 ,1.46798 ,-0.90245 ,-8.85483 
454 ,82.5799 ,1.46967 ,-0.92298 ,-9.05630 
455 ,82.7560 ,1.47145 ,-0.91272 ,-8.95556 
456 ,82.9324 ,1.47318 ,-0.90587 ,-8.88841 
457 ,83.1244 ,1.47508 ,-0.92640 ,-9.08988 
458 ,83.3325 ,1.47719 ,-0.92640 ,-9.08988 
459 ,83.5246 ,1.47903 ,-0.93667 ,-9.19061 
460 ,83.7005 ,1.48088 ,-0.95720 ,-9.39208 
461 ,83.8766 ,1.48266 ,-0.96747 ,-9.49282 
462 ,84.0528 ,1.48438 ,-0.95720 ,-9.39208 
463 ,84.2288 ,1.48612 ,-0.97774 ,-9.59355 
