Data stamp = , 02-04-2022 10:38:26 889

Calibration Values: 
Slope = , 26.54 , g/V 
Offset Voltage at no contact = , -0.501760 , V 

No , Time , Stage Position ,   Mass , Force 
   ,  (s) ,      (mm)      ,   (g)  , (mN)  

1 ,0.0000 ,0.64949 ,5.06239 ,49.67215 
2 ,0.2127 ,0.64959 ,5.07608 ,49.80646 
3 ,0.5969 ,0.65058 ,5.06923 ,49.73931 
4 ,0.7888 ,0.65231 ,5.07265 ,49.77289 
5 ,0.9652 ,0.65395 ,5.05212 ,49.57142 
6 ,1.1573 ,0.65581 ,5.05897 ,49.63857 
7 ,1.3333 ,0.65753 ,5.06581 ,49.70573 
8 ,1.5254 ,0.65947 ,5.04528 ,49.50426 
9 ,1.7014 ,0.66123 ,5.03501 ,49.40352 
10 ,1.8775 ,0.66303 ,5.02474 ,49.30279 
11 ,2.0536 ,0.66482 ,5.02474 ,49.30279 
12 ,2.2297 ,0.66655 ,5.01106 ,49.16848 
13 ,2.4057 ,0.66827 ,4.99737 ,49.03416 
14 ,2.5817 ,0.67007 ,4.96999 ,48.76554 
15 ,2.7580 ,0.67186 ,4.95288 ,48.59764 
16 ,2.9338 ,0.67367 ,4.95972 ,48.66480 
17 ,3.0935 ,0.67529 ,4.94261 ,48.49691 
18 ,3.2696 ,0.67698 ,4.93577 ,48.42975 
19 ,3.4457 ,0.67870 ,4.91866 ,48.26186 
20 ,3.6220 ,0.68050 ,4.88786 ,47.95966 
21 ,3.8306 ,0.68256 ,4.88101 ,47.89250 
22 ,4.0222 ,0.68445 ,4.85021 ,47.59030 
23 ,4.1984 ,0.68617 ,4.83310 ,47.42240 
24 ,4.3745 ,0.68800 ,4.82626 ,47.35525 
25 ,4.5506 ,0.68973 ,4.82626 ,47.35525 
26 ,4.7269 ,0.69154 ,4.79204 ,47.01946 
27 ,4.9184 ,0.69348 ,4.77835 ,46.88515 
28 ,5.0948 ,0.69518 ,4.76808 ,46.78442 
29 ,5.2708 ,0.69697 ,4.75782 ,46.68368 
30 ,5.4468 ,0.69871 ,4.73728 ,46.48221 
31 ,5.6230 ,0.70046 ,4.71675 ,46.28074 
32 ,5.7990 ,0.70221 ,4.69622 ,46.07927 
33 ,5.9752 ,0.70401 ,4.67568 ,45.87780 
34 ,6.1512 ,0.70576 ,4.67568 ,45.87780 
35 ,6.3275 ,0.70751 ,4.65857 ,45.70991 
36 ,6.5034 ,0.70929 ,4.63462 ,45.47486 
37 ,6.6954 ,0.71114 ,4.60382 ,45.17266 
38 ,6.8876 ,0.71314 ,4.60382 ,45.17266 
39 ,7.0796 ,0.71506 ,4.58671 ,45.00477 
40 ,7.2716 ,0.71702 ,4.55249 ,44.66898 
41 ,7.4478 ,0.71874 ,4.54906 ,44.63541 
42 ,7.6399 ,0.72059 ,4.51142 ,44.26604 
43 ,7.8322 ,0.72254 ,4.50457 ,44.19889 
44 ,8.0079 ,0.72435 ,4.48404 ,43.99742 
45 ,8.1836 ,0.72605 ,4.45666 ,43.72879 
46 ,8.3599 ,0.72783 ,4.44982 ,43.66163 
47 ,8.5521 ,0.72975 ,4.43613 ,43.52732 
48 ,8.7441 ,0.73163 ,4.40875 ,43.25870 
49 ,8.9203 ,0.73347 ,4.40191 ,43.19154 
50 ,9.0965 ,0.73516 ,4.37795 ,42.95649 
51 ,9.2721 ,0.73709 ,4.37111 ,42.88933 
52 ,9.4484 ,0.73870 ,4.35742 ,42.75502 
53 ,9.6406 ,0.74066 ,4.33004 ,42.48639 
54 ,9.8168 ,0.74241 ,4.30609 ,42.25135 
55 ,9.9928 ,0.74420 ,4.29240 ,42.11703 
56 ,10.1688 ,0.74589 ,4.28898 ,42.08345 
57 ,10.3445 ,0.74770 ,4.26502 ,41.84841 
58 ,10.5212 ,0.74949 ,4.25818 ,41.78125 
59 ,10.7131 ,0.75137 ,4.23080 ,41.51262 
60 ,10.8891 ,0.75316 ,4.22396 ,41.44547 
61 ,11.0651 ,0.75488 ,4.20685 ,41.27758 
62 ,11.2412 ,0.75665 ,4.17947 ,41.00895 
63 ,11.4168 ,0.75840 ,4.15209 ,40.74032 
64 ,11.5934 ,0.76016 ,4.14867 ,40.70674 
65 ,11.7695 ,0.76186 ,4.13498 ,40.57243 
66 ,11.9456 ,0.76373 ,4.12471 ,40.47170 
67 ,12.1375 ,0.76563 ,4.08707 ,40.10233 
68 ,12.3137 ,0.76737 ,4.06312 ,39.86729 
69 ,12.5053 ,0.76920 ,4.05627 ,39.80013 
70 ,12.6819 ,0.77102 ,4.04943 ,39.73297 
71 ,12.8580 ,0.77284 ,4.02889 ,39.53150 
72 ,13.0501 ,0.77468 ,4.02205 ,39.46435 
73 ,13.2421 ,0.77664 ,3.99125 ,39.16214 
74 ,13.4181 ,0.77842 ,3.97072 ,38.96067 
75 ,13.5942 ,0.78011 ,3.93992 ,38.65847 
76 ,13.7702 ,0.78194 ,3.93307 ,38.59131 
77 ,13.9465 ,0.78367 ,3.93992 ,38.65847 
78 ,14.1226 ,0.78546 ,3.91938 ,38.45700 
79 ,14.2985 ,0.78720 ,3.88174 ,38.08764 
80 ,14.4907 ,0.78900 ,3.87147 ,37.98690 
81 ,14.6666 ,0.79083 ,3.86121 ,37.88617 
82 ,14.8429 ,0.79263 ,3.85094 ,37.78543 
83 ,15.0509 ,0.79462 ,3.82699 ,37.55038 
84 ,15.2430 ,0.79666 ,3.80645 ,37.34891 
85 ,15.4190 ,0.79843 ,3.77565 ,37.04671 
86 ,15.5951 ,0.80015 ,3.76196 ,36.91240 
87 ,15.7711 ,0.80189 ,3.73117 ,36.61019 
88 ,15.9473 ,0.80368 ,3.74143 ,36.71093 
89 ,16.1235 ,0.80547 ,3.72432 ,36.54303 
90 ,16.2994 ,0.80718 ,3.69694 ,36.27441 
91 ,16.4913 ,0.80916 ,3.66272 ,35.93863 
92 ,16.6673 ,0.81093 ,3.66272 ,35.93863 
93 ,16.8594 ,0.81279 ,3.63877 ,35.70358 
94 ,17.0517 ,0.81472 ,3.61481 ,35.46853 
95 ,17.2277 ,0.81644 ,3.61139 ,35.43495 
96 ,17.4037 ,0.81826 ,3.60797 ,35.40137 
97 ,17.5798 ,0.81996 ,3.57717 ,35.09917 
98 ,17.7556 ,0.82174 ,3.55663 ,34.89770 
99 ,17.9321 ,0.82353 ,3.53268 ,34.66265 
100 ,18.1240 ,0.82546 ,3.53610 ,34.69623 
101 ,18.3002 ,0.82719 ,3.52241 ,34.56192 
102 ,18.4923 ,0.82901 ,3.48819 ,34.22613 
103 ,18.6844 ,0.83108 ,3.48135 ,34.15898 
104 ,18.8761 ,0.83288 ,3.44713 ,33.82319 
105 ,19.0684 ,0.83480 ,3.42659 ,33.62172 
106 ,19.2765 ,0.83691 ,3.41290 ,33.48741 
107 ,19.4528 ,0.83874 ,3.39237 ,33.28594 
108 ,19.6448 ,0.84056 ,3.40264 ,33.38667 
109 ,19.8211 ,0.84245 ,3.37184 ,33.08447 
110 ,19.9969 ,0.84417 ,3.36157 ,32.98374 
111 ,20.1728 ,0.84598 ,3.32735 ,32.64795 
112 ,20.3486 ,0.84770 ,3.30682 ,32.44648 
113 ,20.5411 ,0.84952 ,3.30339 ,32.41290 
114 ,20.7329 ,0.85149 ,3.28971 ,32.27859 
115 ,20.9093 ,0.85327 ,3.26575 ,32.04354 
116 ,21.1012 ,0.85513 ,3.26233 ,32.00996 
117 ,21.3095 ,0.85720 ,3.22468 ,31.64060 
118 ,21.4854 ,0.85908 ,3.22126 ,31.60702 
119 ,21.6775 ,0.86093 ,3.21784 ,31.57345 
120 ,21.8535 ,0.86274 ,3.18704 ,31.27124 
121 ,22.0294 ,0.86448 ,3.15966 ,31.00262 
122 ,22.2058 ,0.86623 ,3.14940 ,30.90188 
123 ,22.3978 ,0.86818 ,3.13571 ,30.76757 
124 ,22.5736 ,0.86994 ,3.10491 ,30.46536 
125 ,22.7500 ,0.87162 ,3.10491 ,30.46536 
126 ,22.9259 ,0.87345 ,3.08095 ,30.23031 
127 ,23.1020 ,0.87520 ,3.07411 ,30.16316 
128 ,23.3103 ,0.87716 ,3.06384 ,30.06242 
129 ,23.5023 ,0.87910 ,3.03304 ,29.76022 
130 ,23.6783 ,0.88099 ,3.02278 ,29.65948 
131 ,23.8545 ,0.88271 ,2.98513 ,29.29012 
132 ,24.0307 ,0.88452 ,2.97144 ,29.15581 
133 ,24.2225 ,0.88643 ,2.97487 ,29.18939 
134 ,24.3986 ,0.88812 ,2.96460 ,29.08865 
135 ,24.5586 ,0.88985 ,2.93380 ,28.78645 
136 ,24.7347 ,0.89154 ,2.92353 ,28.68571 
137 ,24.8947 ,0.89322 ,2.89273 ,28.38351 
138 ,25.0709 ,0.89491 ,2.88931 ,28.34993 
139 ,25.2466 ,0.89662 ,2.87562 ,28.21562 
140 ,25.4231 ,0.89842 ,2.86193 ,28.08130 
141 ,25.6312 ,0.90045 ,2.82771 ,27.74552 
142 ,25.8234 ,0.90239 ,2.81745 ,27.64479 
143 ,25.9993 ,0.90419 ,2.80718 ,27.54405 
144 ,26.1914 ,0.90597 ,2.80376 ,27.51047 
145 ,26.3673 ,0.90781 ,2.76611 ,27.14111 
146 ,26.5595 ,0.90969 ,2.75243 ,27.00680 
147 ,26.7355 ,0.91154 ,2.74216 ,26.90606 
148 ,26.9277 ,0.91341 ,2.71136 ,26.60386 
149 ,27.1038 ,0.91523 ,2.71136 ,26.60386 
150 ,27.2955 ,0.91705 ,2.68056 ,26.30165 
151 ,27.4718 ,0.91886 ,2.68398 ,26.33523 
152 ,27.6637 ,0.92080 ,2.65660 ,26.06661 
153 ,27.8401 ,0.92253 ,2.64292 ,25.93229 
154 ,28.0321 ,0.92448 ,2.61212 ,25.63009 
155 ,28.2082 ,0.92626 ,2.59158 ,25.42862 
156 ,28.3999 ,0.92810 ,2.60527 ,25.56293 
157 ,28.5924 ,0.93001 ,2.58474 ,25.36146 
158 ,28.7683 ,0.93184 ,2.54710 ,24.99210 
159 ,28.9444 ,0.93361 ,2.52998 ,24.82421 
160 ,29.1206 ,0.93536 ,2.52656 ,24.79063 
161 ,29.2966 ,0.93714 ,2.51630 ,24.68989 
162 ,29.4724 ,0.93883 ,2.49576 ,24.48842 
163 ,29.6489 ,0.94063 ,2.46839 ,24.21980 
164 ,29.8729 ,0.94272 ,2.44785 ,24.01833 
165 ,30.0490 ,0.94463 ,2.44101 ,23.95117 
166 ,30.2410 ,0.94657 ,2.42390 ,23.78328 
167 ,30.4171 ,0.94833 ,2.41705 ,23.71612 
168 ,30.5927 ,0.95009 ,2.40336 ,23.58181 
169 ,30.7691 ,0.95184 ,2.37599 ,23.31318 
170 ,30.9613 ,0.95375 ,2.36572 ,23.21245 
171 ,31.1372 ,0.95556 ,2.34861 ,23.04456 
172 ,31.3133 ,0.95726 ,2.33492 ,22.91024 
173 ,31.4894 ,0.95906 ,2.32808 ,22.84309 
174 ,31.6654 ,0.96078 ,2.29728 ,22.54088 
175 ,31.8577 ,0.96276 ,2.28701 ,22.44015 
176 ,32.0338 ,0.96446 ,2.28017 ,22.37299 
177 ,32.2097 ,0.96624 ,2.25621 ,22.13794 
178 ,32.3857 ,0.96798 ,2.24252 ,22.00363 
179 ,32.5623 ,0.96977 ,2.21172 ,21.70143 
180 ,32.7541 ,0.97167 ,2.21172 ,21.70143 
181 ,32.9458 ,0.97357 ,2.20146 ,21.60069 
182 ,33.1219 ,0.97541 ,2.18435 ,21.43280 
183 ,33.2818 ,0.97704 ,2.17750 ,21.36564 
184 ,33.4742 ,0.97875 ,2.14670 ,21.06344 
185 ,33.6503 ,0.98061 ,2.14328 ,21.02986 
186 ,33.8264 ,0.98238 ,2.11590 ,20.76123 
187 ,34.0184 ,0.98430 ,2.10564 ,20.66050 
188 ,34.1945 ,0.98607 ,2.09537 ,20.55976 
189 ,34.3707 ,0.98781 ,2.08510 ,20.45903 
190 ,34.5628 ,0.98974 ,2.06457 ,20.25756 
191 ,34.7546 ,0.99171 ,2.03719 ,19.98893 
192 ,34.9469 ,0.99356 ,2.02008 ,19.82104 
193 ,35.1390 ,0.99554 ,2.00982 ,19.72031 
194 ,35.3311 ,0.99736 ,2.00639 ,19.68673 
195 ,35.5072 ,0.99920 ,1.97902 ,19.41810 
196 ,35.7153 ,1.00121 ,1.97559 ,19.38452 
197 ,35.8912 ,1.00302 ,1.96875 ,19.31737 
198 ,36.0675 ,1.00482 ,1.94479 ,19.08232 
199 ,36.2435 ,1.00656 ,1.92768 ,18.91443 
200 ,36.4195 ,1.00837 ,1.90031 ,18.64580 
201 ,36.5956 ,1.01004 ,1.89346 ,18.57864 
202 ,36.7717 ,1.01182 ,1.89346 ,18.57864 
203 ,36.9474 ,1.01357 ,1.87293 ,18.37717 
204 ,37.1238 ,1.01538 ,1.83871 ,18.04139 
205 ,37.2997 ,1.01711 ,1.82502 ,17.90708 
206 ,37.4758 ,1.01883 ,1.82502 ,17.90708 
207 ,37.6680 ,1.02077 ,1.81817 ,17.83992 
208 ,37.8601 ,1.02264 ,1.79422 ,17.60487 
209 ,38.0358 ,1.02455 ,1.80106 ,17.67203 
210 ,38.2123 ,1.02622 ,1.78395 ,17.50414 
211 ,38.3881 ,1.02799 ,1.76342 ,17.30267 
212 ,38.5644 ,1.02976 ,1.72920 ,16.96689 
213 ,38.7405 ,1.03154 ,1.72578 ,16.93331 
214 ,38.9326 ,1.03348 ,1.72235 ,16.89973 
215 ,39.1086 ,1.03520 ,1.69840 ,16.66468 
216 ,39.3006 ,1.03704 ,1.67102 ,16.39605 
217 ,39.4767 ,1.03889 ,1.65733 ,16.26174 
218 ,39.6526 ,1.04061 ,1.67444 ,16.42963 
219 ,39.8289 ,1.04246 ,1.63680 ,16.06027 
220 ,40.0048 ,1.04412 ,1.64364 ,16.12743 
221 ,40.1810 ,1.04590 ,1.61969 ,15.89238 
222 ,40.3571 ,1.04769 ,1.60600 ,15.75807 
223 ,40.5491 ,1.04960 ,1.59916 ,15.69091 
224 ,40.7251 ,1.05135 ,1.58547 ,15.55660 
225 ,40.9012 ,1.05308 ,1.56151 ,15.32155 
226 ,41.0774 ,1.05489 ,1.54782 ,15.18724 
227 ,41.2695 ,1.05682 ,1.54440 ,15.15366 
228 ,41.4774 ,1.05880 ,1.53071 ,15.01934 
229 ,41.6535 ,1.06074 ,1.52729 ,14.98577 
230 ,41.8299 ,1.06241 ,1.50333 ,14.75072 
231 ,42.0056 ,1.06415 ,1.49307 ,14.64998 
232 ,42.1814 ,1.06590 ,1.46227 ,14.34778 
233 ,42.3578 ,1.06770 ,1.45542 ,14.28062 
234 ,42.5341 ,1.06942 ,1.44858 ,14.21346 
235 ,42.7260 ,1.07136 ,1.44174 ,14.14631 
236 ,42.9019 ,1.07313 ,1.41436 ,13.87768 
237 ,43.0941 ,1.07505 ,1.39383 ,13.67621 
238 ,43.2702 ,1.07678 ,1.41436 ,13.87768 
239 ,43.4463 ,1.07856 ,1.38356 ,13.57548 
240 ,43.6224 ,1.08034 ,1.37329 ,13.47474 
241 ,43.8307 ,1.08229 ,1.34249 ,13.17254 
242 ,44.0225 ,1.08435 ,1.34249 ,13.17254 
243 ,44.2146 ,1.08610 ,1.31169 ,12.87033 
244 ,44.3905 ,1.08798 ,1.31169 ,12.87033 
245 ,44.5828 ,1.08996 ,1.30485 ,12.80318 
246 ,44.7588 ,1.09169 ,1.27747 ,12.53455 
247 ,44.9350 ,1.09350 ,1.26378 ,12.40024 
248 ,45.1109 ,1.09519 ,1.26036 ,12.36666 
249 ,45.2870 ,1.09697 ,1.25009 ,12.26592 
250 ,45.4631 ,1.09868 ,1.23641 ,12.13161 
251 ,45.6549 ,1.10056 ,1.20561 ,11.82941 
252 ,45.8473 ,1.10255 ,1.21929 ,11.96372 
253 ,46.0233 ,1.10433 ,1.19876 ,11.76225 
254 ,46.1990 ,1.10602 ,1.16796 ,11.46004 
255 ,46.3752 ,1.10779 ,1.15427 ,11.32573 
256 ,46.5515 ,1.10961 ,1.14401 ,11.22500 
257 ,46.7438 ,1.11153 ,1.13716 ,11.15784 
258 ,46.9197 ,1.11331 ,1.14058 ,11.19142 
259 ,47.0955 ,1.11502 ,1.10294 ,10.82206 
260 ,47.2719 ,1.11681 ,1.08925 ,10.68774 
261 ,47.4478 ,1.11857 ,1.08241 ,10.62059 
262 ,47.6240 ,1.12031 ,1.07899 ,10.58701 
263 ,47.8002 ,1.12206 ,1.05161 ,10.31838 
264 ,47.9762 ,1.12383 ,1.04476 ,10.25123 
265 ,48.1680 ,1.12576 ,1.04476 ,10.25123 
266 ,48.3444 ,1.12757 ,1.03108 ,10.11691 
267 ,48.5361 ,1.12939 ,1.00028 ,9.81471 
268 ,48.7125 ,1.13124 ,0.98317 ,9.64682 
269 ,48.9207 ,1.13319 ,0.99343 ,9.74755 
270 ,49.1126 ,1.13520 ,0.94894 ,9.31103 
271 ,49.2886 ,1.13695 ,0.95579 ,9.37819 
272 ,49.4648 ,1.13876 ,0.94210 ,9.24388 
273 ,49.6563 ,1.14061 ,0.92841 ,9.10956 
274 ,49.8330 ,1.14239 ,0.90446 ,8.87451 
275 ,50.0250 ,1.14433 ,0.91130 ,8.94167 
276 ,50.2011 ,1.14611 ,0.90103 ,8.84094 
277 ,50.3770 ,1.14784 ,0.87708 ,8.60589 
278 ,50.5532 ,1.14959 ,0.85997 ,8.43800 
279 ,50.7289 ,1.15135 ,0.85654 ,8.40442 
280 ,50.9213 ,1.15320 ,0.85997 ,8.43800 
281 ,51.0975 ,1.15504 ,0.82232 ,8.06864 
282 ,51.2736 ,1.15683 ,0.81548 ,8.00148 
283 ,51.4655 ,1.15876 ,0.80863 ,7.93432 
284 ,51.6417 ,1.16051 ,0.80179 ,7.86717 
285 ,51.8174 ,1.16224 ,0.77784 ,7.63212 
286 ,51.9935 ,1.16400 ,0.74704 ,7.32991 
287 ,52.1699 ,1.16575 ,0.74704 ,7.32991 
288 ,52.3778 ,1.16779 ,0.72992 ,7.16202 
289 ,52.5540 ,1.16969 ,0.70939 ,6.96055 
290 ,52.7302 ,1.17135 ,0.70255 ,6.89340 
291 ,52.9221 ,1.17332 ,0.70597 ,6.92697 
292 ,53.1142 ,1.17521 ,0.67859 ,6.65835 
293 ,53.2743 ,1.17689 ,0.66148 ,6.49046 
294 ,53.4505 ,1.17861 ,0.64779 ,6.35614 
295 ,53.6266 ,1.18034 ,0.63410 ,6.22183 
296 ,53.8026 ,1.18211 ,0.63753 ,6.25541 
297 ,53.9947 ,1.18391 ,0.61357 ,6.02036 
298 ,54.1708 ,1.18578 ,0.60330 ,5.91962 
299 ,54.3629 ,1.18767 ,0.59988 ,5.88605 
300 ,54.5389 ,1.18942 ,0.58619 ,5.75173 
301 ,54.7150 ,1.19132 ,0.56224 ,5.51668 
302 ,54.8911 ,1.19295 ,0.55882 ,5.48311 
303 ,55.0831 ,1.19483 ,0.55539 ,5.44953 
304 ,55.2751 ,1.19683 ,0.53486 ,5.24806 
305 ,55.4510 ,1.19855 ,0.50748 ,4.97943 
306 ,55.6273 ,1.20031 ,0.49380 ,4.84512 
307 ,55.8033 ,1.20209 ,0.50748 ,4.97943 
308 ,55.9950 ,1.20396 ,0.46984 ,4.61007 
309 ,56.1714 ,1.20575 ,0.47668 ,4.67723 
310 ,56.3475 ,1.20754 ,0.45273 ,4.44218 
311 ,56.5398 ,1.20945 ,0.44931 ,4.40860 
312 ,56.7155 ,1.21123 ,0.44588 ,4.37502 
313 ,56.8919 ,1.21295 ,0.40824 ,4.00566 
314 ,57.0675 ,1.21473 ,0.39113 ,3.83777 
315 ,57.2438 ,1.21646 ,0.39797 ,3.90493 
316 ,57.4362 ,1.21839 ,0.38771 ,3.80419 
317 ,57.6123 ,1.22016 ,0.37060 ,3.63630 
318 ,57.8042 ,1.22206 ,0.35006 ,3.43483 
319 ,57.9804 ,1.22385 ,0.34322 ,3.36767 
320 ,58.1563 ,1.22556 ,0.35006 ,3.43483 
321 ,58.3326 ,1.22736 ,0.31584 ,3.09905 
322 ,58.5086 ,1.22908 ,0.30900 ,3.03189 
323 ,58.7006 ,1.23105 ,0.29873 ,2.93116 
324 ,58.8767 ,1.23279 ,0.29531 ,2.89758 
325 ,59.0688 ,1.23472 ,0.27135 ,2.66253 
326 ,59.2448 ,1.23647 ,0.25767 ,2.52822 
327 ,59.4370 ,1.23830 ,0.25424 ,2.49464 
328 ,59.6130 ,1.24018 ,0.23713 ,2.32675 
329 ,59.7889 ,1.24188 ,0.22344 ,2.19243 
330 ,59.9811 ,1.24375 ,0.22002 ,2.15885 
331 ,60.1572 ,1.24561 ,0.20291 ,1.99096 
332 ,60.3492 ,1.24745 ,0.18238 ,1.78949 
333 ,60.5412 ,1.24943 ,0.16869 ,1.65518 
334 ,60.7335 ,1.25128 ,0.16869 ,1.65518 
335 ,60.9095 ,1.25310 ,0.13789 ,1.35298 
336 ,61.1014 ,1.25500 ,0.15158 ,1.48729 
337 ,61.2773 ,1.25681 ,0.12762 ,1.25224 
338 ,61.4537 ,1.25859 ,0.12420 ,1.21866 
339 ,61.6457 ,1.26054 ,0.10025 ,0.98361 
340 ,61.8215 ,1.26227 ,0.08314 ,0.81572 
341 ,61.9978 ,1.26401 ,0.08314 ,0.81572 
342 ,62.1740 ,1.26580 ,0.08314 ,0.81572 
343 ,62.3660 ,1.26768 ,0.05234 ,0.51352 
344 ,62.5422 ,1.26946 ,0.03522 ,0.34563 
345 ,62.7343 ,1.27134 ,0.04207 ,0.41278 
346 ,62.9263 ,1.27329 ,0.01127 ,0.11058 
347 ,63.1024 ,1.27507 ,0.01127 ,0.11058 
348 ,63.2943 ,1.27696 ,0.01127 ,0.11058 
349 ,63.4705 ,1.27882 ,-0.01269 ,-0.12447 
350 ,63.6622 ,1.28058 ,-0.02637 ,-0.25878 
351 ,63.8542 ,1.28247 ,-0.03322 ,-0.32594 
352 ,64.0305 ,1.28433 ,-0.04006 ,-0.39310 
353 ,64.2067 ,1.28612 ,-0.05375 ,-0.52741 
354 ,64.3986 ,1.28804 ,-0.06744 ,-0.66172 
355 ,64.5749 ,1.28975 ,-0.08455 ,-0.82961 
356 ,64.7510 ,1.29164 ,-0.07771 ,-0.76246 
357 ,64.9271 ,1.29327 ,-0.09824 ,-0.96393 
358 ,65.1030 ,1.29504 ,-0.10851 ,-1.06466 
359 ,65.2793 ,1.29686 ,-0.12562 ,-1.23255 
360 ,65.4550 ,1.29858 ,-0.12219 ,-1.19898 
361 ,65.6315 ,1.30034 ,-0.13588 ,-1.33329 
362 ,65.8075 ,1.30205 ,-0.14273 ,-1.40045 
363 ,65.9836 ,1.30389 ,-0.17011 ,-1.66907 
364 ,66.1597 ,1.30561 ,-0.16668 ,-1.63549 
365 ,66.3358 ,1.30738 ,-0.18037 ,-1.76981 
366 ,66.4957 ,1.30907 ,-0.18037 ,-1.76981 
367 ,66.6718 ,1.31072 ,-0.19406 ,-1.90412 
368 ,66.8639 ,1.31266 ,-0.20090 ,-1.97128 
369 ,67.0720 ,1.31467 ,-0.20775 ,-2.03843 
370 ,67.2480 ,1.31652 ,-0.22144 ,-2.17275 
371 ,67.4400 ,1.31842 ,-0.25224 ,-2.47495 
372 ,67.6156 ,1.32014 ,-0.24539 ,-2.40779 
373 ,67.7920 ,1.32192 ,-0.23855 ,-2.34064 
374 ,67.9682 ,1.32371 ,-0.25224 ,-2.47495 
375 ,68.1442 ,1.32541 ,-0.27277 ,-2.67642 
376 ,68.3204 ,1.32721 ,-0.29330 ,-2.87789 
377 ,68.4963 ,1.32897 ,-0.31384 ,-3.07936 
378 ,68.6561 ,1.33069 ,-0.29330 ,-2.87789 
379 ,68.8328 ,1.33235 ,-0.30357 ,-2.97863 
380 ,69.0248 ,1.33426 ,-0.32068 ,-3.14652 
381 ,69.2324 ,1.33629 ,-0.33437 ,-3.28083 
382 ,69.4089 ,1.33811 ,-0.32068 ,-3.14652 
383 ,69.6330 ,1.34018 ,-0.34464 ,-3.38156 
384 ,69.8090 ,1.34212 ,-0.35832 ,-3.51588 
385 ,70.0011 ,1.34400 ,-0.37201 ,-3.65019 
386 ,70.1772 ,1.34575 ,-0.38570 ,-3.78450 
387 ,70.3852 ,1.34769 ,-0.38570 ,-3.78450 
388 ,70.5614 ,1.34955 ,-0.39939 ,-3.91882 
389 ,70.7530 ,1.35149 ,-0.38912 ,-3.81808 
390 ,70.9296 ,1.35331 ,-0.41650 ,-4.08671 
391 ,71.1213 ,1.35524 ,-0.41650 ,-4.08671 
392 ,71.2975 ,1.35693 ,-0.42677 ,-4.18744 
393 ,71.4738 ,1.35870 ,-0.44046 ,-4.32176 
394 ,71.6495 ,1.36053 ,-0.44388 ,-4.35534 
395 ,71.8257 ,1.36223 ,-0.44388 ,-4.35534 
396 ,72.0179 ,1.36411 ,-0.46783 ,-4.59038 
397 ,72.2100 ,1.36605 ,-0.47126 ,-4.62396 
398 ,72.3861 ,1.36784 ,-0.48494 ,-4.75828 
399 ,72.5622 ,1.36962 ,-0.48494 ,-4.75828 
400 ,72.7380 ,1.37140 ,-0.48837 ,-4.79185 
401 ,72.9138 ,1.37319 ,-0.51574 ,-5.06048 
402 ,73.0904 ,1.37485 ,-0.52259 ,-5.12764 
403 ,73.2825 ,1.37679 ,-0.51917 ,-5.09406 
404 ,73.4585 ,1.37856 ,-0.52259 ,-5.12764 
405 ,73.6348 ,1.38032 ,-0.54312 ,-5.32911 
406 ,73.8267 ,1.38224 ,-0.54312 ,-5.32911 
407 ,73.9864 ,1.38396 ,-0.54997 ,-5.39626 
408 ,74.1628 ,1.38558 ,-0.56023 ,-5.49700 
409 ,74.3387 ,1.38736 ,-0.58077 ,-5.69847 
410 ,74.5150 ,1.38911 ,-0.59788 ,-5.86636 
411 ,74.6910 ,1.39089 ,-0.59788 ,-5.86636 
412 ,74.8670 ,1.39267 ,-0.60472 ,-5.93352 
413 ,75.0431 ,1.39443 ,-0.61156 ,-6.00067 
414 ,75.2354 ,1.39624 ,-0.62183 ,-6.10141 
415 ,75.4274 ,1.39815 ,-0.62525 ,-6.13499 
416 ,75.6035 ,1.40001 ,-0.62868 ,-6.16856 
417 ,75.7795 ,1.40178 ,-0.63552 ,-6.23572 
418 ,75.9556 ,1.40350 ,-0.65947 ,-6.47077 
419 ,76.1317 ,1.40527 ,-0.66290 ,-6.50435 
420 ,76.3238 ,1.40718 ,-0.65263 ,-6.40361 
421 ,76.4998 ,1.40899 ,-0.68001 ,-6.67224 
422 ,76.6917 ,1.41083 ,-0.67659 ,-6.63866 
423 ,76.8839 ,1.41275 ,-0.68001 ,-6.67224 
424 ,77.0598 ,1.41457 ,-0.69712 ,-6.84013 
425 ,77.2521 ,1.41653 ,-0.71423 ,-7.00802 
426 ,77.4440 ,1.41842 ,-0.71081 ,-6.97444 
427 ,77.6203 ,1.42020 ,-0.70739 ,-6.94086 
428 ,77.8282 ,1.42215 ,-0.72792 ,-7.14233 
429 ,78.0203 ,1.42415 ,-0.73476 ,-7.20949 
430 ,78.1963 ,1.42594 ,-0.74503 ,-7.31023 
431 ,78.3725 ,1.42765 ,-0.77241 ,-7.57885 
432 ,78.5484 ,1.42944 ,-0.76898 ,-7.54527 
433 ,78.7406 ,1.43126 ,-0.76898 ,-7.54527 
434 ,78.9167 ,1.43314 ,-0.76556 ,-7.51170 
435 ,79.0928 ,1.43485 ,-0.79636 ,-7.81390 
436 ,79.2689 ,1.43665 ,-0.80321 ,-7.88106 
437 ,79.4608 ,1.43859 ,-0.78952 ,-7.74674 
438 ,79.6371 ,1.44034 ,-0.80663 ,-7.91464 
439 ,79.8129 ,1.44205 ,-0.81347 ,-7.98179 
440 ,79.9891 ,1.44384 ,-0.82716 ,-8.11611 
441 ,80.1650 ,1.44555 ,-0.83401 ,-8.18326 
442 ,80.3572 ,1.44754 ,-0.83058 ,-8.14968 
443 ,80.5492 ,1.44939 ,-0.85454 ,-8.38473 
444 ,80.7252 ,1.45122 ,-0.86138 ,-8.45189 
445 ,80.9014 ,1.45298 ,-0.87507 ,-8.58620 
446 ,81.0776 ,1.45471 ,-0.86481 ,-8.48547 
447 ,81.2537 ,1.45651 ,-0.85454 ,-8.38473 
448 ,81.4457 ,1.45833 ,-0.89560 ,-8.78767 
449 ,81.6219 ,1.46018 ,-0.88192 ,-8.65336 
450 ,81.8138 ,1.46213 ,-0.89903 ,-8.82125 
451 ,81.9899 ,1.46382 ,-0.90587 ,-8.88841 
452 ,82.1660 ,1.46562 ,-0.92983 ,-9.12345 
453 ,82.3419 ,1.46738 ,-0.91956 ,-9.02272 
454 ,82.5344 ,1.46922 ,-0.92640 ,-9.08988 
455 ,82.7262 ,1.47124 ,-0.95036 ,-9.32492 
456 ,82.9024 ,1.47299 ,-0.95378 ,-9.35850 
457 ,83.0945 ,1.47490 ,-0.93667 ,-9.19061 
458 ,83.2704 ,1.47668 ,-0.96063 ,-9.42566 
459 ,83.4461 ,1.47840 ,-0.97774 ,-9.59355 
460 ,83.6225 ,1.48018 ,-0.97089 ,-9.52639 
461 ,83.8146 ,1.48209 ,-0.97774 ,-9.59355 
462 ,83.9907 ,1.48382 ,-0.97774 ,-9.59355 
