Data stamp = , 02-04-2022 10:12:11 953

Calibration Values: 
Slope = , 26.54 , g/V 
Offset Voltage at no contact = , -0.501760 , V 

No , Time , Stage Position ,   Mass , Force 
   ,  (s) ,      (mm)      ,   (g)  , (mN)  

1 ,0.0000 ,0.59943 ,5.30194 ,52.02263 
2 ,0.2163 ,0.59949 ,5.29510 ,51.95548 
3 ,0.5365 ,0.60040 ,5.29167 ,51.92190 
4 ,0.7284 ,0.60185 ,5.29510 ,51.95548 
5 ,0.9207 ,0.60344 ,5.29510 ,51.95548 
6 ,1.1127 ,0.60534 ,5.30536 ,52.05621 
7 ,1.2889 ,0.60706 ,5.30194 ,52.02263 
8 ,1.4808 ,0.60891 ,5.30536 ,52.05621 
9 ,1.6570 ,0.61076 ,5.29852 ,51.98905 
10 ,1.8330 ,0.61254 ,5.28141 ,51.82116 
11 ,2.0091 ,0.61440 ,5.27114 ,51.72043 
12 ,2.1851 ,0.61609 ,5.25061 ,51.51896 
13 ,2.3614 ,0.61780 ,5.25061 ,51.51896 
14 ,2.5374 ,0.61962 ,5.24376 ,51.45180 
15 ,2.7135 ,0.62133 ,5.24718 ,51.48538 
16 ,2.9056 ,0.62329 ,5.21639 ,51.18317 
17 ,3.0812 ,0.62500 ,5.19585 ,50.98170 
18 ,3.2737 ,0.62685 ,5.19585 ,50.98170 
19 ,3.4657 ,0.62885 ,5.17190 ,50.74666 
20 ,3.6419 ,0.63063 ,5.14794 ,50.51161 
21 ,3.8339 ,0.63251 ,5.15821 ,50.61234 
22 ,4.0100 ,0.63434 ,5.14110 ,50.44445 
23 ,4.2020 ,0.63619 ,5.13425 ,50.37729 
24 ,4.3782 ,0.63800 ,5.10003 ,50.04151 
25 ,4.5540 ,0.63974 ,5.09319 ,49.97436 
26 ,4.7303 ,0.64151 ,5.08634 ,49.90720 
27 ,4.9062 ,0.64325 ,5.06239 ,49.67215 
28 ,5.0820 ,0.64500 ,5.04185 ,49.47068 
29 ,5.2581 ,0.64678 ,5.01790 ,49.23563 
30 ,5.4342 ,0.64852 ,5.01448 ,49.20205 
31 ,5.6104 ,0.65032 ,4.98710 ,48.93343 
32 ,5.8188 ,0.65242 ,4.97341 ,48.79911 
33 ,6.0108 ,0.65431 ,4.94946 ,48.56407 
34 ,6.1869 ,0.65605 ,4.92208 ,48.29544 
35 ,6.3631 ,0.65782 ,4.89812 ,48.06039 
36 ,6.5548 ,0.65973 ,4.90155 ,48.09397 
37 ,6.7310 ,0.66145 ,4.88101 ,47.89250 
38 ,6.9072 ,0.66326 ,4.84337 ,47.52314 
39 ,7.0829 ,0.66505 ,4.82284 ,47.32167 
40 ,7.2594 ,0.66676 ,4.82968 ,47.38883 
41 ,7.4354 ,0.66857 ,4.81257 ,47.22093 
42 ,7.6436 ,0.67055 ,4.78519 ,46.95231 
43 ,7.8196 ,0.67249 ,4.76808 ,46.78442 
44 ,7.9955 ,0.67416 ,4.74755 ,46.58295 
45 ,8.1877 ,0.67604 ,4.72359 ,46.34790 
46 ,8.3634 ,0.67784 ,4.69964 ,46.11285 
47 ,8.5559 ,0.67961 ,4.68595 ,45.97854 
48 ,8.7319 ,0.68148 ,4.68595 ,45.97854 
49 ,8.9238 ,0.68343 ,4.65173 ,45.64275 
50 ,9.1001 ,0.68517 ,4.63462 ,45.47486 
51 ,9.2762 ,0.68698 ,4.64488 ,45.57560 
52 ,9.4519 ,0.68867 ,4.62435 ,45.37413 
53 ,9.6282 ,0.69047 ,4.59697 ,45.10550 
54 ,9.8043 ,0.69224 ,4.56960 ,44.83688 
55 ,9.9965 ,0.69412 ,4.55933 ,44.73614 
56 ,10.2043 ,0.69609 ,4.53880 ,44.53467 
57 ,10.3802 ,0.69798 ,4.51484 ,44.29962 
58 ,10.5406 ,0.69969 ,4.51484 ,44.29962 
59 ,10.7167 ,0.70132 ,4.48062 ,43.96384 
60 ,10.8928 ,0.70314 ,4.47720 ,43.93026 
61 ,11.0848 ,0.70499 ,4.45666 ,43.72879 
62 ,11.2611 ,0.70684 ,4.42929 ,43.46016 
63 ,11.4691 ,0.70878 ,4.43955 ,43.56090 
64 ,11.6611 ,0.71075 ,4.37795 ,42.95649 
65 ,11.8370 ,0.71253 ,4.38480 ,43.02365 
66 ,12.0132 ,0.71433 ,4.37111 ,42.88933 
67 ,12.1892 ,0.71601 ,4.35058 ,42.68786 
68 ,12.3815 ,0.71785 ,4.32662 ,42.45282 
69 ,12.5574 ,0.71976 ,4.30267 ,42.21777 
70 ,12.7495 ,0.72158 ,4.30267 ,42.21777 
71 ,12.9257 ,0.72341 ,4.27871 ,41.98272 
72 ,13.1017 ,0.72519 ,4.25818 ,41.78125 
73 ,13.2937 ,0.72704 ,4.25133 ,41.71409 
74 ,13.4696 ,0.72884 ,4.23080 ,41.51262 
75 ,13.6454 ,0.73059 ,4.21027 ,41.31115 
76 ,13.8219 ,0.73236 ,4.19316 ,41.14326 
77 ,14.0140 ,0.73421 ,4.16236 ,40.84106 
78 ,14.1899 ,0.73605 ,4.16578 ,40.87464 
79 ,14.3663 ,0.73783 ,4.14183 ,40.63959 
80 ,14.5580 ,0.73975 ,4.12471 ,40.47170 
81 ,14.7503 ,0.74156 ,4.11787 ,40.40454 
82 ,14.9264 ,0.74343 ,4.09391 ,40.16949 
83 ,15.1186 ,0.74526 ,4.06996 ,39.93444 
84 ,15.3265 ,0.74730 ,4.05627 ,39.80013 
85 ,15.5025 ,0.74915 ,4.02205 ,39.46435 
86 ,15.7106 ,0.75121 ,4.03916 ,39.63224 
87 ,15.9189 ,0.75325 ,3.99809 ,39.22930 
88 ,16.0948 ,0.75516 ,3.98098 ,39.06141 
89 ,16.2867 ,0.75700 ,3.97414 ,38.99425 
90 ,16.4630 ,0.75880 ,3.95361 ,38.79278 
91 ,16.6392 ,0.76055 ,3.92965 ,38.55773 
92 ,16.8150 ,0.76235 ,3.91596 ,38.42342 
93 ,16.9915 ,0.76405 ,3.90912 ,38.35626 
94 ,17.1834 ,0.76597 ,3.88858 ,38.15479 
95 ,17.3754 ,0.76781 ,3.87147 ,37.98690 
96 ,17.5513 ,0.76963 ,3.85094 ,37.78543 
97 ,17.7276 ,0.77141 ,3.84067 ,37.68470 
98 ,17.9034 ,0.77320 ,3.81330 ,37.41607 
99 ,18.0797 ,0.77494 ,3.79961 ,37.28176 
100 ,18.2555 ,0.77667 ,3.77565 ,37.04671 
101 ,18.4478 ,0.77863 ,3.77223 ,37.01313 
102 ,18.6400 ,0.78052 ,3.74485 ,36.74450 
103 ,18.8158 ,0.78226 ,3.72432 ,36.54303 
104 ,18.9917 ,0.78403 ,3.71748 ,36.47588 
105 ,19.1682 ,0.78581 ,3.72090 ,36.50946 
106 ,19.3603 ,0.78777 ,3.68668 ,36.17367 
107 ,19.5363 ,0.78947 ,3.66272 ,35.93863 
108 ,19.7124 ,0.79122 ,3.64219 ,35.73716 
109 ,19.8885 ,0.79295 ,3.64219 ,35.73716 
110 ,20.0644 ,0.79478 ,3.63192 ,35.63642 
111 ,20.2407 ,0.79657 ,3.61823 ,35.50211 
112 ,20.4326 ,0.79848 ,3.58743 ,35.19990 
113 ,20.6246 ,0.80036 ,3.58059 ,35.13275 
114 ,20.8010 ,0.80218 ,3.54979 ,34.83054 
115 ,20.9770 ,0.80399 ,3.52241 ,34.56192 
116 ,21.1690 ,0.80581 ,3.52926 ,34.62907 
117 ,21.3450 ,0.80756 ,3.51557 ,34.49476 
118 ,21.5208 ,0.80934 ,3.49504 ,34.29329 
119 ,21.6970 ,0.81107 ,3.47450 ,34.09182 
120 ,21.8734 ,0.81285 ,3.45739 ,33.92393 
121 ,22.0654 ,0.81467 ,3.45055 ,33.85677 
122 ,22.2415 ,0.81658 ,3.44028 ,33.75604 
123 ,22.4335 ,0.81845 ,3.41290 ,33.48741 
124 ,22.6096 ,0.82023 ,3.40606 ,33.42025 
125 ,22.7857 ,0.82194 ,3.39237 ,33.28594 
126 ,22.9619 ,0.82378 ,3.37526 ,33.11805 
127 ,23.1379 ,0.82550 ,3.34446 ,32.81584 
128 ,23.3139 ,0.82734 ,3.33762 ,32.74869 
129 ,23.4901 ,0.82906 ,3.31708 ,32.54722 
130 ,23.6661 ,0.83082 ,3.32393 ,32.61437 
131 ,23.8420 ,0.83251 ,3.29997 ,32.37933 
132 ,24.0183 ,0.83429 ,3.28286 ,32.21143 
133 ,24.2100 ,0.83621 ,3.26233 ,32.00996 
134 ,24.3704 ,0.83793 ,3.24864 ,31.87565 
135 ,24.5783 ,0.83979 ,3.22126 ,31.60702 
136 ,24.7544 ,0.84172 ,3.20415 ,31.43913 
137 ,24.9306 ,0.84341 ,3.20415 ,31.43913 
138 ,25.1227 ,0.84532 ,3.19046 ,31.30482 
139 ,25.2987 ,0.84709 ,3.17677 ,31.17051 
140 ,25.4906 ,0.84897 ,3.14940 ,30.90188 
141 ,25.6989 ,0.85096 ,3.14255 ,30.83472 
142 ,25.8910 ,0.85301 ,3.11175 ,30.53252 
143 ,26.0830 ,0.85494 ,3.12544 ,30.66683 
144 ,26.2747 ,0.85684 ,3.07753 ,30.19674 
145 ,26.4511 ,0.85862 ,3.06042 ,30.02884 
146 ,26.6112 ,0.86032 ,3.05700 ,29.99527 
147 ,26.7873 ,0.86197 ,3.03989 ,29.82737 
148 ,26.9794 ,0.86386 ,3.02962 ,29.72664 
149 ,27.1554 ,0.86566 ,3.02620 ,29.69306 
150 ,27.3314 ,0.86745 ,2.98855 ,29.32370 
151 ,27.4916 ,0.86914 ,2.97829 ,29.22297 
152 ,27.6833 ,0.87082 ,2.96118 ,29.05507 
153 ,27.8597 ,0.87271 ,2.96802 ,29.12223 
154 ,28.0358 ,0.87445 ,2.94064 ,28.85360 
155 ,28.2119 ,0.87622 ,2.92011 ,28.65213 
156 ,28.3879 ,0.87799 ,2.89958 ,28.45066 
157 ,28.5639 ,0.87972 ,2.90642 ,28.51782 
158 ,28.7397 ,0.88147 ,2.89616 ,28.41709 
159 ,28.9162 ,0.88326 ,2.86878 ,28.14846 
160 ,29.0923 ,0.88504 ,2.84482 ,27.91341 
161 ,29.2683 ,0.88676 ,2.82429 ,27.71194 
162 ,29.4444 ,0.88860 ,2.82429 ,27.71194 
163 ,29.6364 ,0.89041 ,2.81402 ,27.61121 
164 ,29.8126 ,0.89220 ,2.80034 ,27.47689 
165 ,29.9884 ,0.89398 ,2.77980 ,27.27542 
166 ,30.1647 ,0.89574 ,2.77638 ,27.24185 
167 ,30.3406 ,0.89750 ,2.74900 ,26.97322 
168 ,30.5167 ,0.89921 ,2.74216 ,26.90606 
169 ,30.6768 ,0.90097 ,2.73189 ,26.80533 
170 ,30.8528 ,0.90259 ,2.71136 ,26.60386 
171 ,31.0449 ,0.90459 ,2.69083 ,26.40239 
172 ,31.2211 ,0.90628 ,2.69425 ,26.43597 
173 ,31.3972 ,0.90804 ,2.68056 ,26.30165 
174 ,31.5891 ,0.90994 ,2.65660 ,26.06661 
175 ,31.7651 ,0.91173 ,2.63949 ,25.89871 
176 ,31.9573 ,0.91364 ,2.63949 ,25.89871 
177 ,32.1334 ,0.91543 ,2.62923 ,25.79798 
178 ,32.3093 ,0.91717 ,2.59501 ,25.46220 
179 ,32.4857 ,0.91895 ,2.58132 ,25.32788 
180 ,32.6617 ,0.92075 ,2.57105 ,25.22715 
181 ,32.8377 ,0.92246 ,2.56763 ,25.19357 
182 ,33.0298 ,0.92434 ,2.54367 ,24.95852 
183 ,33.2219 ,0.92629 ,2.53683 ,24.89136 
184 ,33.3980 ,0.92810 ,2.51972 ,24.72347 
185 ,33.5742 ,0.92983 ,2.50603 ,24.58916 
186 ,33.7496 ,0.93157 ,2.48207 ,24.35411 
187 ,33.9262 ,0.93338 ,2.46154 ,24.15264 
188 ,34.1023 ,0.93515 ,2.45127 ,24.05191 
189 ,34.2943 ,0.93699 ,2.44785 ,24.01833 
190 ,34.4706 ,0.93880 ,2.42048 ,23.74970 
191 ,34.6621 ,0.94066 ,2.41021 ,23.64897 
192 ,34.8222 ,0.94241 ,2.40679 ,23.61539 
193 ,34.9983 ,0.94407 ,2.39310 ,23.48108 
194 ,35.2066 ,0.94611 ,2.37256 ,23.27961 
195 ,35.3825 ,0.94791 ,2.34177 ,22.97740 
196 ,35.5749 ,0.94985 ,2.34177 ,22.97740 
197 ,35.7509 ,0.95158 ,2.32123 ,22.77593 
198 ,35.9109 ,0.95334 ,2.31439 ,22.70877 
199 ,36.0869 ,0.95492 ,2.29043 ,22.47373 
200 ,36.2633 ,0.95671 ,2.27674 ,22.33941 
201 ,36.4553 ,0.95861 ,2.28359 ,22.40657 
202 ,36.6312 ,0.96038 ,2.25963 ,22.17152 
203 ,36.8074 ,0.96215 ,2.24252 ,22.00363 
204 ,36.9834 ,0.96388 ,2.21515 ,21.73500 
205 ,37.1594 ,0.96569 ,2.21172 ,21.70143 
206 ,37.3355 ,0.96741 ,2.20488 ,21.63427 
207 ,37.5116 ,0.96917 ,2.18777 ,21.46638 
208 ,37.6877 ,0.97092 ,2.16723 ,21.26491 
209 ,37.8796 ,0.97283 ,2.15697 ,21.16417 
210 ,38.0558 ,0.97462 ,2.13986 ,20.99628 
211 ,38.2318 ,0.97634 ,2.14670 ,21.06344 
212 ,38.4080 ,0.97814 ,2.12275 ,20.82839 
213 ,38.5841 ,0.97993 ,2.09879 ,20.59334 
214 ,38.7599 ,0.98168 ,2.06799 ,20.29114 
215 ,38.9522 ,0.98347 ,2.06799 ,20.29114 
216 ,39.1604 ,0.98563 ,2.05773 ,20.19040 
217 ,39.3524 ,0.98751 ,2.04404 ,20.05609 
218 ,39.5285 ,0.98936 ,2.03377 ,19.95535 
219 ,39.7046 ,0.99112 ,2.00982 ,19.72031 
220 ,39.9126 ,0.99313 ,1.99955 ,19.61957 
221 ,40.0882 ,0.99504 ,1.96875 ,19.31737 
222 ,40.2650 ,0.99671 ,1.97217 ,19.35094 
223 ,40.4569 ,0.99864 ,1.95164 ,19.14948 
224 ,40.6328 ,1.00041 ,1.93453 ,18.98158 
225 ,40.8251 ,1.00229 ,1.91399 ,18.78011 
226 ,41.0012 ,1.00408 ,1.90373 ,18.67938 
227 ,41.1928 ,1.00596 ,1.89346 ,18.57864 
228 ,41.3852 ,1.00784 ,1.85582 ,18.20928 
229 ,41.5613 ,1.00966 ,1.85924 ,18.24286 
230 ,41.7375 ,1.01140 ,1.84213 ,18.07497 
231 ,41.9295 ,1.01337 ,1.85582 ,18.20928 
232 ,42.1056 ,1.01510 ,1.82502 ,17.90708 
233 ,42.2816 ,1.01686 ,1.80449 ,17.70561 
234 ,42.4737 ,1.01876 ,1.80106 ,17.67203 
235 ,42.6497 ,1.02051 ,1.78053 ,17.47056 
236 ,42.8258 ,1.02230 ,1.75657 ,17.23551 
237 ,43.0020 ,1.02408 ,1.74289 ,17.10120 
238 ,43.1780 ,1.02589 ,1.72235 ,16.89973 
239 ,43.3542 ,1.02758 ,1.71551 ,16.83257 
240 ,43.5782 ,1.02970 ,1.71209 ,16.79899 
241 ,43.7542 ,1.03160 ,1.68471 ,16.53037 
242 ,43.9302 ,1.03336 ,1.67786 ,16.46321 
243 ,44.1065 ,1.03511 ,1.67786 ,16.46321 
244 ,44.2821 ,1.03688 ,1.65049 ,16.19458 
245 ,44.4585 ,1.03863 ,1.62995 ,15.99311 
246 ,44.6505 ,1.04052 ,1.62653 ,15.95954 
247 ,44.8428 ,1.04236 ,1.61284 ,15.82522 
248 ,45.0186 ,1.04425 ,1.58204 ,15.52302 
249 ,45.1949 ,1.04597 ,1.59573 ,15.65733 
250 ,45.3707 ,1.04775 ,1.55809 ,15.28797 
251 ,45.5468 ,1.04948 ,1.55809 ,15.28797 
252 ,45.7228 ,1.05126 ,1.53413 ,15.05292 
253 ,45.8991 ,1.05301 ,1.50676 ,14.78430 
254 ,46.0911 ,1.05492 ,1.51702 ,14.88503 
255 ,46.2674 ,1.05670 ,1.50333 ,14.75072 
256 ,46.4592 ,1.05862 ,1.48965 ,14.61640 
257 ,46.6354 ,1.06046 ,1.47938 ,14.51567 
258 ,46.8274 ,1.06221 ,1.45885 ,14.31420 
259 ,47.0194 ,1.06423 ,1.44516 ,14.17989 
260 ,47.1953 ,1.06597 ,1.42462 ,13.97842 
261 ,47.3877 ,1.06795 ,1.42805 ,14.01199 
262 ,47.5637 ,1.06974 ,1.39040 ,13.64263 
263 ,47.7556 ,1.07154 ,1.37671 ,13.50832 
264 ,47.9315 ,1.07333 ,1.35960 ,13.34043 
265 ,48.1076 ,1.07511 ,1.36645 ,13.40759 
266 ,48.2838 ,1.07686 ,1.35960 ,13.34043 
267 ,48.4601 ,1.07865 ,1.32538 ,13.00465 
268 ,48.6522 ,1.08053 ,1.31854 ,12.93749 
269 ,48.8283 ,1.08235 ,1.31169 ,12.87033 
270 ,49.0204 ,1.08425 ,1.30143 ,12.76960 
271 ,49.1963 ,1.08597 ,1.27063 ,12.46739 
272 ,49.3724 ,1.08773 ,1.25352 ,12.29950 
273 ,49.5483 ,1.08951 ,1.25009 ,12.26592 
274 ,49.7244 ,1.09126 ,1.24325 ,12.19877 
275 ,49.9007 ,1.09304 ,1.23983 ,12.16519 
276 ,50.0766 ,1.09480 ,1.21245 ,11.89656 
277 ,50.2528 ,1.09655 ,1.20218 ,11.79583 
278 ,50.4288 ,1.09830 ,1.19192 ,11.69509 
279 ,50.6046 ,1.10002 ,1.18850 ,11.66151 
280 ,50.7810 ,1.10184 ,1.17481 ,11.52720 
281 ,50.9736 ,1.10375 ,1.13374 ,11.12426 
282 ,51.1652 ,1.10560 ,1.14401 ,11.22500 
283 ,51.3413 ,1.10744 ,1.11663 ,10.95637 
284 ,51.5174 ,1.10923 ,1.11663 ,10.95637 
285 ,51.6932 ,1.11095 ,1.09267 ,10.72132 
286 ,51.8696 ,1.11274 ,1.07899 ,10.58701 
287 ,52.0617 ,1.11462 ,1.08241 ,10.62059 
288 ,52.2377 ,1.11643 ,1.07214 ,10.51985 
289 ,52.4298 ,1.11834 ,1.03792 ,10.18407 
290 ,52.6537 ,1.12039 ,1.02423 ,10.04976 
291 ,52.8300 ,1.12232 ,1.00370 ,9.84829 
292 ,53.0221 ,1.12423 ,1.00370 ,9.84829 
293 ,53.2140 ,1.12618 ,0.98659 ,9.68039 
294 ,53.3901 ,1.12793 ,0.96948 ,9.51250 
295 ,53.5664 ,1.12966 ,0.94894 ,9.31103 
296 ,53.7583 ,1.13160 ,0.95237 ,9.34461 
297 ,53.9505 ,1.13350 ,0.92841 ,9.10956 
298 ,54.1584 ,1.13551 ,0.92157 ,9.04241 
299 ,54.3346 ,1.13733 ,0.90788 ,8.90809 
300 ,54.5267 ,1.13921 ,0.88734 ,8.70662 
301 ,54.7188 ,1.14115 ,0.89419 ,8.77378 
302 ,54.9107 ,1.14307 ,0.85654 ,8.40442 
303 ,55.0864 ,1.14484 ,0.84628 ,8.30368 
304 ,55.2628 ,1.14664 ,0.83943 ,8.23653 
305 ,55.4390 ,1.14838 ,0.83259 ,8.16937 
306 ,55.6151 ,1.15013 ,0.81548 ,8.00148 
307 ,55.8071 ,1.15213 ,0.78468 ,7.69927 
308 ,55.9672 ,1.15380 ,0.77784 ,7.63212 
309 ,56.1431 ,1.15539 ,0.76757 ,7.53138 
310 ,56.3191 ,1.15717 ,0.77784 ,7.63212 
311 ,56.5113 ,1.15908 ,0.74704 ,7.32991 
312 ,56.6874 ,1.16086 ,0.73677 ,7.22918 
313 ,56.8632 ,1.16263 ,0.71966 ,7.06129 
314 ,57.0395 ,1.16435 ,0.71966 ,7.06129 
315 ,57.2157 ,1.16610 ,0.70597 ,6.92697 
316 ,57.4077 ,1.16798 ,0.70255 ,6.89340 
317 ,57.5838 ,1.16985 ,0.66490 ,6.52403 
318 ,57.7759 ,1.17167 ,0.67517 ,6.62477 
319 ,57.9840 ,1.17373 ,0.62726 ,6.15467 
320 ,58.1759 ,1.17572 ,0.64437 ,6.32256 
321 ,58.3521 ,1.17754 ,0.63068 ,6.18825 
322 ,58.5440 ,1.17931 ,0.59988 ,5.88605 
323 ,58.7202 ,1.18112 ,0.59988 ,5.88605 
324 ,58.9123 ,1.18304 ,0.58962 ,5.78531 
325 ,59.0881 ,1.18489 ,0.57593 ,5.65100 
326 ,59.2645 ,1.18663 ,0.55197 ,5.41595 
327 ,59.4563 ,1.18853 ,0.54513 ,5.34879 
328 ,59.6326 ,1.19028 ,0.54171 ,5.31522 
329 ,59.8088 ,1.19212 ,0.52117 ,5.11375 
330 ,60.0008 ,1.19399 ,0.48353 ,4.74438 
331 ,60.1764 ,1.19575 ,0.49380 ,4.84512 
332 ,60.3689 ,1.19763 ,0.49037 ,4.81154 
333 ,60.5290 ,1.19935 ,0.46642 ,4.57649 
334 ,60.7049 ,1.20100 ,0.46984 ,4.61007 
335 ,60.8973 ,1.20296 ,0.44588 ,4.37502 
336 ,61.0735 ,1.20471 ,0.43220 ,4.24071 
337 ,61.2329 ,1.20640 ,0.43562 ,4.27429 
338 ,61.4092 ,1.20805 ,0.42535 ,4.17355 
339 ,61.5854 ,1.20982 ,0.40140 ,3.93850 
340 ,61.7775 ,1.21167 ,0.37402 ,3.66988 
341 ,61.9536 ,1.21350 ,0.37402 ,3.66988 
342 ,62.1456 ,1.21535 ,0.37060 ,3.63630 
343 ,62.3217 ,1.21719 ,0.35006 ,3.43483 
344 ,62.4979 ,1.21897 ,0.33295 ,3.26694 
345 ,62.6899 ,1.22091 ,0.32611 ,3.19978 
346 ,62.8815 ,1.22279 ,0.31584 ,3.09905 
347 ,63.0581 ,1.22452 ,0.28847 ,2.83042 
348 ,63.2342 ,1.22631 ,0.28847 ,2.83042 
349 ,63.3941 ,1.22803 ,0.27820 ,2.72969 
350 ,63.5701 ,1.22964 ,0.27478 ,2.69611 
351 ,63.7624 ,1.23149 ,0.26109 ,2.56179 
352 ,63.9384 ,1.23335 ,0.23371 ,2.29317 
353 ,64.1145 ,1.23513 ,0.22002 ,2.15885 
354 ,64.3225 ,1.23712 ,0.21660 ,2.12528 
355 ,64.4825 ,1.23892 ,0.20633 ,2.02454 
356 ,64.6587 ,1.24051 ,0.18922 ,1.85665 
357 ,64.8349 ,1.24226 ,0.16185 ,1.58802 
358 ,65.0269 ,1.24423 ,0.18238 ,1.78949 
359 ,65.2030 ,1.24596 ,0.18580 ,1.82307 
360 ,65.3950 ,1.24793 ,0.13447 ,1.31940 
361 ,65.5711 ,1.24968 ,0.12420 ,1.21866 
362 ,65.7467 ,1.25156 ,0.12762 ,1.25224 
363 ,65.9068 ,1.25313 ,0.11051 ,1.08435 
364 ,66.0669 ,1.25477 ,0.11736 ,1.15151 
365 ,66.2593 ,1.25644 ,0.10367 ,1.01719 
366 ,66.4673 ,1.25856 ,0.07971 ,0.78214 
367 ,66.6434 ,1.26042 ,0.07629 ,0.74857 
368 ,66.8357 ,1.26230 ,0.05234 ,0.51352 
369 ,67.0116 ,1.26409 ,0.04207 ,0.41278 
370 ,67.2038 ,1.26595 ,0.04549 ,0.44636 
371 ,67.3799 ,1.26778 ,0.01811 ,0.17773 
372 ,67.5396 ,1.26947 ,0.01127 ,0.11058 
373 ,67.7160 ,1.27111 ,-0.00584 ,-0.05731 
374 ,67.9078 ,1.27306 ,-0.00926 ,-0.09089 
375 ,68.1004 ,1.27492 ,-0.01611 ,-0.15805 
376 ,68.2923 ,1.27682 ,-0.03664 ,-0.35952 
377 ,68.4844 ,1.27880 ,-0.05033 ,-0.49383 
378 ,68.6762 ,1.28067 ,-0.06060 ,-0.59457 
379 ,68.8685 ,1.28259 ,-0.07428 ,-0.72888 
380 ,69.0606 ,1.28447 ,-0.08797 ,-0.86319 
381 ,69.2525 ,1.28647 ,-0.09482 ,-0.93035 
382 ,69.4287 ,1.28829 ,-0.10851 ,-1.06466 
383 ,69.6204 ,1.29018 ,-0.10166 ,-0.99751 
384 ,69.8128 ,1.29205 ,-0.12562 ,-1.23255 
385 ,70.0049 ,1.29399 ,-0.14273 ,-1.40045 
386 ,70.1969 ,1.29584 ,-0.13588 ,-1.33329 
387 ,70.3730 ,1.29769 ,-0.16326 ,-1.60191 
388 ,70.5650 ,1.29954 ,-0.15642 ,-1.53476 
389 ,70.7411 ,1.30138 ,-0.18379 ,-1.80338 
390 ,70.9170 ,1.30307 ,-0.18722 ,-1.83696 
391 ,71.0932 ,1.30482 ,-0.21117 ,-2.07201 
392 ,71.2851 ,1.30676 ,-0.21117 ,-2.07201 
393 ,71.4615 ,1.30854 ,-0.21117 ,-2.07201 
394 ,71.6376 ,1.31033 ,-0.21802 ,-2.13917 
395 ,71.8296 ,1.31221 ,-0.25224 ,-2.47495 
396 ,72.0376 ,1.31426 ,-0.24197 ,-2.37422 
397 ,72.1977 ,1.31601 ,-0.26593 ,-2.60926 
398 ,72.3897 ,1.31779 ,-0.27961 ,-2.74358 
399 ,72.5658 ,1.31955 ,-0.27961 ,-2.74358 
400 ,72.7418 ,1.32133 ,-0.30015 ,-2.94505 
401 ,72.9180 ,1.32308 ,-0.29673 ,-2.91147 
402 ,73.1101 ,1.32503 ,-0.32068 ,-3.14652 
403 ,73.2859 ,1.32677 ,-0.32068 ,-3.14652 
404 ,73.4782 ,1.32874 ,-0.30699 ,-3.01220 
405 ,73.6704 ,1.33057 ,-0.34121 ,-3.34799 
406 ,73.8460 ,1.33241 ,-0.35490 ,-3.48230 
407 ,74.0226 ,1.33414 ,-0.35490 ,-3.48230 
408 ,74.2462 ,1.33623 ,-0.37886 ,-3.71735 
409 ,74.4227 ,1.33814 ,-0.37201 ,-3.65019 
410 ,74.5987 ,1.33995 ,-0.37201 ,-3.65019 
411 ,74.7907 ,1.34184 ,-0.39597 ,-3.88524 
412 ,74.9667 ,1.34358 ,-0.40281 ,-3.95240 
413 ,75.1588 ,1.34551 ,-0.39939 ,-3.91882 
414 ,75.3349 ,1.34729 ,-0.41308 ,-4.05313 
415 ,75.5107 ,1.34901 ,-0.43361 ,-4.25460 
416 ,75.6871 ,1.35079 ,-0.43361 ,-4.25460 
417 ,75.8631 ,1.35258 ,-0.46441 ,-4.55681 
418 ,76.0392 ,1.35427 ,-0.46099 ,-4.52323 
419 ,76.2311 ,1.35614 ,-0.45072 ,-4.42249 
420 ,76.4075 ,1.35802 ,-0.48152 ,-4.72470 
421 ,76.5834 ,1.35977 ,-0.49179 ,-4.82543 
422 ,76.7759 ,1.36158 ,-0.49179 ,-4.82543 
423 ,76.9678 ,1.36362 ,-0.49863 ,-4.89259 
424 ,77.1597 ,1.36542 ,-0.51574 ,-5.06048 
425 ,77.3358 ,1.36726 ,-0.50548 ,-4.95975 
426 ,77.5120 ,1.36904 ,-0.52943 ,-5.19479 
427 ,77.6877 ,1.37079 ,-0.53285 ,-5.22837 
428 ,77.8800 ,1.37260 ,-0.55681 ,-5.46342 
429 ,78.0559 ,1.37443 ,-0.54997 ,-5.39626 
430 ,78.2319 ,1.37622 ,-0.54997 ,-5.39626 
431 ,78.4243 ,1.37818 ,-0.57050 ,-5.59773 
432 ,78.6002 ,1.37994 ,-0.58419 ,-5.73205 
433 ,78.7925 ,1.38188 ,-0.56708 ,-5.56415 
434 ,78.9845 ,1.38369 ,-0.61499 ,-6.03425 
435 ,79.1766 ,1.38567 ,-0.59445 ,-5.83278 
436 ,79.3527 ,1.38745 ,-0.59788 ,-5.86636 
437 ,79.5447 ,1.38931 ,-0.63552 ,-6.23572 
438 ,79.7208 ,1.39108 ,-0.63210 ,-6.20214 
439 ,79.9129 ,1.39303 ,-0.63210 ,-6.20214 
440 ,80.0889 ,1.39478 ,-0.62525 ,-6.13499 
441 ,80.2650 ,1.39654 ,-0.64921 ,-6.37003 
442 ,80.4407 ,1.39826 ,-0.66632 ,-6.53793 
443 ,80.6171 ,1.40003 ,-0.66632 ,-6.53793 
444 ,80.7933 ,1.40185 ,-0.66632 ,-6.53793 
445 ,80.9854 ,1.40380 ,-0.67316 ,-6.60508 
446 ,81.1774 ,1.40567 ,-0.69027 ,-6.77297 
447 ,81.3535 ,1.40745 ,-0.70739 ,-6.94086 
448 ,81.5296 ,1.40918 ,-0.68685 ,-6.73940 
449 ,81.7055 ,1.41097 ,-0.70396 ,-6.90729 
450 ,81.8817 ,1.41272 ,-0.72792 ,-7.14233 
451 ,82.0577 ,1.41446 ,-0.73476 ,-7.20949 
452 ,82.2339 ,1.41623 ,-0.74161 ,-7.27665 
453 ,82.4259 ,1.41813 ,-0.73818 ,-7.24307 
454 ,82.6017 ,1.41997 ,-0.75872 ,-7.44454 
455 ,82.7781 ,1.42166 ,-0.76214 ,-7.47812 
456 ,82.9704 ,1.42362 ,-0.75530 ,-7.41096 
457 ,83.1622 ,1.42555 ,-0.77583 ,-7.61243 
458 ,83.3542 ,1.42733 ,-0.79294 ,-7.78032 
459 ,83.5464 ,1.42929 ,-0.78952 ,-7.74674 
460 ,83.7221 ,1.43116 ,-0.81005 ,-7.94821 
461 ,83.8986 ,1.43289 ,-0.81689 ,-8.01537 
462 ,84.0906 ,1.43480 ,-0.82032 ,-8.04895 
463 ,84.2666 ,1.43658 ,-0.83058 ,-8.14968 
