Data stamp = , 01-04-2022 14:24:03 042

Calibration Values: 
Slope = , 26.54 , g/V 
Offset Voltage at no contact = , -0.501760 , V 

No , Time , Stage Position ,   Mass , Force 
   ,  (s) ,      (mm)      ,   (g)  , (mN)  

1 ,0.0000 ,0.64946 ,5.12056 ,50.24298 
2 ,0.2124 ,0.64953 ,5.12741 ,50.31014 
3 ,0.5166 ,0.65029 ,5.11030 ,50.14225 
4 ,0.7246 ,0.65178 ,5.13083 ,50.34372 
5 ,0.9167 ,0.65342 ,5.13768 ,50.41087 
6 ,1.0929 ,0.65511 ,5.12056 ,50.24298 
7 ,1.2689 ,0.65686 ,5.11714 ,50.20940 
8 ,1.4610 ,0.65867 ,5.13425 ,50.37729 
9 ,1.6691 ,0.66086 ,5.12741 ,50.31014 
10 ,1.8451 ,0.66259 ,5.10688 ,50.10867 
11 ,2.0211 ,0.66446 ,5.09661 ,50.00793 
12 ,2.1973 ,0.66618 ,5.09319 ,49.97436 
13 ,2.3893 ,0.66809 ,5.06239 ,49.67215 
14 ,2.5653 ,0.66982 ,5.06239 ,49.67215 
15 ,2.7416 ,0.67163 ,5.05554 ,49.60499 
16 ,2.9174 ,0.67342 ,5.04528 ,49.50426 
17 ,3.1097 ,0.67534 ,5.00763 ,49.13490 
18 ,3.3015 ,0.67721 ,5.01790 ,49.23563 
19 ,3.4935 ,0.67912 ,4.96657 ,48.73196 
20 ,3.6859 ,0.68094 ,4.96657 ,48.73196 
21 ,3.8619 ,0.68279 ,4.96657 ,48.73196 
22 ,4.0217 ,0.68447 ,4.94261 ,48.49691 
23 ,4.1981 ,0.68619 ,4.93235 ,48.39618 
24 ,4.3902 ,0.68811 ,4.90839 ,48.16113 
25 ,4.5824 ,0.68995 ,4.90155 ,48.09397 
26 ,4.7579 ,0.69179 ,4.89812 ,48.06039 
27 ,4.9347 ,0.69353 ,4.85706 ,47.65745 
28 ,5.1104 ,0.69530 ,4.83310 ,47.42240 
29 ,5.3025 ,0.69716 ,4.84337 ,47.52314 
30 ,5.4788 ,0.69894 ,4.81941 ,47.28809 
31 ,5.6706 ,0.70087 ,4.79546 ,47.05304 
32 ,5.8466 ,0.70260 ,4.77835 ,46.88515 
33 ,6.0225 ,0.70439 ,4.77150 ,46.81800 
34 ,6.1824 ,0.70608 ,4.75782 ,46.68368 
35 ,6.3590 ,0.70775 ,4.74070 ,46.51579 
36 ,6.5510 ,0.70970 ,4.70306 ,46.14643 
37 ,6.7271 ,0.71142 ,4.69622 ,46.07927 
38 ,6.9032 ,0.71321 ,4.68253 ,45.94496 
39 ,7.0951 ,0.71511 ,4.65173 ,45.64275 
40 ,7.2713 ,0.71687 ,4.63462 ,45.47486 
41 ,7.4313 ,0.71860 ,4.62435 ,45.37413 
42 ,7.6075 ,0.72021 ,4.60724 ,45.20624 
43 ,7.7836 ,0.72199 ,4.58671 ,45.00477 
44 ,7.9593 ,0.72372 ,4.57986 ,44.93761 
45 ,8.1357 ,0.72551 ,4.54906 ,44.63541 
46 ,8.3114 ,0.72729 ,4.54222 ,44.56825 
47 ,8.4880 ,0.72901 ,4.52853 ,44.43394 
48 ,8.6799 ,0.73098 ,4.50115 ,44.16531 
49 ,8.8560 ,0.73273 ,4.48062 ,43.96384 
50 ,9.0320 ,0.73445 ,4.47035 ,43.86310 
51 ,9.2082 ,0.73623 ,4.45324 ,43.69521 
52 ,9.3844 ,0.73802 ,4.43955 ,43.56090 
53 ,9.5604 ,0.73975 ,4.42929 ,43.46016 
54 ,9.7364 ,0.74150 ,4.40191 ,43.19154 
55 ,9.9126 ,0.74327 ,4.37795 ,42.95649 
56 ,10.0887 ,0.74504 ,4.36084 ,42.78860 
57 ,10.2806 ,0.74698 ,4.36084 ,42.78860 
58 ,10.4566 ,0.74872 ,4.33347 ,42.51997 
59 ,10.6327 ,0.75047 ,4.29924 ,42.18419 
60 ,10.8088 ,0.75222 ,4.29582 ,42.15061 
61 ,10.9849 ,0.75405 ,4.28213 ,42.01630 
62 ,11.1607 ,0.75580 ,4.26502 ,41.84841 
63 ,11.3530 ,0.75770 ,4.24107 ,41.61336 
64 ,11.5290 ,0.75942 ,4.22396 ,41.44547 
65 ,11.7050 ,0.76122 ,4.22053 ,41.41189 
66 ,11.8811 ,0.76300 ,4.20342 ,41.24400 
67 ,12.0734 ,0.76487 ,4.17262 ,40.94179 
68 ,12.2653 ,0.76682 ,4.16920 ,40.90821 
69 ,12.4414 ,0.76854 ,4.14525 ,40.67317 
70 ,12.6335 ,0.77043 ,4.10760 ,40.30380 
71 ,12.8096 ,0.77223 ,4.10760 ,40.30380 
72 ,13.0017 ,0.77408 ,4.10076 ,40.23665 
73 ,13.1938 ,0.77609 ,4.05627 ,39.80013 
74 ,13.3860 ,0.77803 ,4.06312 ,39.86729 
75 ,13.5779 ,0.77994 ,4.02889 ,39.53150 
76 ,13.7537 ,0.78166 ,4.00494 ,39.29646 
77 ,13.9300 ,0.78342 ,3.99467 ,39.19572 
78 ,14.1060 ,0.78524 ,3.97756 ,39.02783 
79 ,14.2983 ,0.78711 ,3.95703 ,38.82636 
80 ,14.4582 ,0.78883 ,3.94676 ,38.72562 
81 ,14.6183 ,0.79039 ,3.91596 ,38.42342 
82 ,14.7942 ,0.79205 ,3.90912 ,38.35626 
83 ,14.9705 ,0.79386 ,3.89885 ,38.25553 
84 ,15.1465 ,0.79558 ,3.89885 ,38.25553 
85 ,15.3385 ,0.79755 ,3.87490 ,38.02048 
86 ,15.5145 ,0.79925 ,3.84067 ,37.68470 
87 ,15.6907 ,0.80104 ,3.81672 ,37.44965 
88 ,15.8667 ,0.80276 ,3.81672 ,37.44965 
89 ,16.0428 ,0.80453 ,3.81330 ,37.41607 
90 ,16.2191 ,0.80628 ,3.79619 ,37.24818 
91 ,16.4110 ,0.80829 ,3.76881 ,36.97955 
92 ,16.5870 ,0.80999 ,3.75512 ,36.84524 
93 ,16.7632 ,0.81174 ,3.74485 ,36.74450 
94 ,16.9389 ,0.81355 ,3.72090 ,36.50946 
95 ,17.1153 ,0.81530 ,3.68668 ,36.17367 
96 ,17.3074 ,0.81721 ,3.68325 ,36.14010 
97 ,17.4836 ,0.81899 ,3.67641 ,36.07294 
98 ,17.6435 ,0.82068 ,3.65246 ,35.83789 
99 ,17.8196 ,0.82231 ,3.64219 ,35.73716 
100 ,17.9952 ,0.82410 ,3.62166 ,35.53569 
101 ,18.1718 ,0.82587 ,3.59086 ,35.23348 
102 ,18.3636 ,0.82772 ,3.58401 ,35.16632 
103 ,18.5399 ,0.82960 ,3.57717 ,35.09917 
104 ,18.7159 ,0.83132 ,3.54295 ,34.76338 
105 ,18.9080 ,0.83318 ,3.52241 ,34.56192 
106 ,19.1000 ,0.83511 ,3.52241 ,34.56192 
107 ,19.2917 ,0.83703 ,3.49161 ,34.25971 
108 ,19.4682 ,0.83879 ,3.47450 ,34.09182 
109 ,19.6443 ,0.84060 ,3.45739 ,33.92393 
110 ,19.8201 ,0.84234 ,3.45397 ,33.89035 
111 ,20.0124 ,0.84422 ,3.40264 ,33.38667 
112 ,20.2205 ,0.84633 ,3.40606 ,33.42025 
113 ,20.3966 ,0.84809 ,3.37868 ,33.15163 
114 ,20.5725 ,0.84983 ,3.36842 ,33.05089 
115 ,20.7487 ,0.85161 ,3.34788 ,32.84942 
116 ,20.9242 ,0.85338 ,3.34788 ,32.84942 
117 ,21.1009 ,0.85513 ,3.32051 ,32.58080 
118 ,21.2769 ,0.85688 ,3.30339 ,32.41290 
119 ,21.4529 ,0.85862 ,3.28971 ,32.27859 
120 ,21.6450 ,0.86050 ,3.26917 ,32.07712 
121 ,21.8210 ,0.86230 ,3.25206 ,31.90923 
122 ,21.9970 ,0.86408 ,3.22468 ,31.64060 
123 ,22.1892 ,0.86596 ,3.22126 ,31.60702 
124 ,22.3654 ,0.86780 ,3.21784 ,31.57345 
125 ,22.5415 ,0.86955 ,3.19046 ,31.30482 
126 ,22.7175 ,0.87131 ,3.18362 ,31.23766 
127 ,22.8936 ,0.87300 ,3.15282 ,30.93546 
128 ,23.0696 ,0.87487 ,3.14255 ,30.83472 
129 ,23.2456 ,0.87653 ,3.13229 ,30.73399 
130 ,23.4218 ,0.87832 ,3.11518 ,30.56610 
131 ,23.5979 ,0.88009 ,3.08780 ,30.29747 
132 ,23.7901 ,0.88191 ,3.06384 ,30.06242 
133 ,23.9820 ,0.88393 ,3.08095 ,30.23031 
134 ,24.1579 ,0.88570 ,3.04331 ,29.86095 
135 ,24.3500 ,0.88764 ,3.01251 ,29.55875 
136 ,24.5262 ,0.88934 ,3.01251 ,29.55875 
137 ,24.7023 ,0.89119 ,2.98855 ,29.32370 
138 ,24.8783 ,0.89288 ,2.96802 ,29.12223 
139 ,25.0545 ,0.89462 ,2.95776 ,29.02150 
140 ,25.2465 ,0.89648 ,2.95433 ,28.98792 
141 ,25.4227 ,0.89834 ,2.94064 ,28.85360 
142 ,25.6143 ,0.90022 ,2.90985 ,28.55140 
143 ,25.7906 ,0.90198 ,2.89273 ,28.38351 
144 ,25.9668 ,0.90376 ,2.87562 ,28.21562 
145 ,26.1427 ,0.90552 ,2.87562 ,28.21562 
146 ,26.3348 ,0.90743 ,2.84482 ,27.91341 
147 ,26.5270 ,0.90938 ,2.83456 ,27.81268 
148 ,26.7191 ,0.91126 ,2.81060 ,27.57763 
149 ,26.8950 ,0.91304 ,2.79691 ,27.44332 
150 ,27.0713 ,0.91481 ,2.77296 ,27.20827 
151 ,27.2794 ,0.91676 ,2.75927 ,27.07395 
152 ,27.4554 ,0.91873 ,2.73531 ,26.83891 
153 ,27.6474 ,0.92049 ,2.71820 ,26.67101 
154 ,27.8556 ,0.92259 ,2.70109 ,26.50312 
155 ,28.0316 ,0.92444 ,2.67714 ,26.26807 
156 ,28.2077 ,0.92617 ,2.66345 ,26.13376 
157 ,28.3997 ,0.92801 ,2.66687 ,26.16734 
158 ,28.5918 ,0.93002 ,2.62581 ,25.76440 
159 ,28.7838 ,0.93192 ,2.63265 ,25.83156 
160 ,28.9600 ,0.93370 ,2.61896 ,25.69724 
161 ,29.1360 ,0.93544 ,2.59158 ,25.42862 
162 ,29.3118 ,0.93718 ,2.57789 ,25.29430 
163 ,29.4884 ,0.93897 ,2.55394 ,25.05926 
164 ,29.6801 ,0.94085 ,2.54710 ,24.99210 
165 ,29.8564 ,0.94265 ,2.52656 ,24.79063 
166 ,30.0485 ,0.94455 ,2.50261 ,24.55558 
167 ,30.2245 ,0.94635 ,2.48550 ,24.38769 
168 ,30.3845 ,0.94804 ,2.48207 ,24.35411 
169 ,30.5607 ,0.94969 ,2.47865 ,24.32053 
170 ,30.7368 ,0.95151 ,2.46154 ,24.15264 
171 ,30.9286 ,0.95339 ,2.42390 ,23.78328 
172 ,31.1046 ,0.95515 ,2.40679 ,23.61539 
173 ,31.2970 ,0.95697 ,2.41021 ,23.64897 
174 ,31.4730 ,0.95879 ,2.38283 ,23.38034 
175 ,31.6492 ,0.96059 ,2.36572 ,23.21245 
176 ,31.8252 ,0.96240 ,2.35545 ,23.11171 
177 ,32.0493 ,0.96441 ,2.33834 ,22.94382 
178 ,32.2253 ,0.96636 ,2.30754 ,22.64162 
179 ,32.4015 ,0.96809 ,2.31097 ,22.67520 
180 ,32.5930 ,0.96999 ,2.29043 ,22.47373 
181 ,32.7692 ,0.97175 ,2.25621 ,22.13794 
182 ,32.9455 ,0.97352 ,2.25963 ,22.17152 
183 ,33.1377 ,0.97550 ,2.24594 ,22.03721 
184 ,33.3298 ,0.97728 ,2.22883 ,21.86932 
185 ,33.5059 ,0.97910 ,2.20488 ,21.63427 
186 ,33.6980 ,0.98107 ,2.19461 ,21.53353 
187 ,33.8900 ,0.98295 ,2.16381 ,21.23133 
188 ,34.0980 ,0.98489 ,2.16039 ,21.19775 
189 ,34.2737 ,0.98681 ,2.13986 ,20.99628 
190 ,34.4498 ,0.98859 ,2.11932 ,20.79481 
191 ,34.6258 ,0.99031 ,2.10221 ,20.62692 
192 ,34.8020 ,0.99210 ,2.09537 ,20.55976 
193 ,34.9944 ,0.99401 ,2.08168 ,20.42545 
194 ,35.1865 ,0.99589 ,2.06799 ,20.29114 
195 ,35.3626 ,0.99767 ,2.06115 ,20.22398 
196 ,35.5547 ,0.99959 ,2.04061 ,20.02251 
197 ,35.7465 ,1.00138 ,2.02693 ,19.88820 
198 ,35.9228 ,1.00329 ,2.00639 ,19.68673 
199 ,36.1146 ,1.00519 ,1.98928 ,19.51884 
200 ,36.2910 ,1.00692 ,1.96533 ,19.28379 
201 ,36.4988 ,1.00896 ,1.96533 ,19.28379 
202 ,36.6751 ,1.01083 ,1.93795 ,19.01516 
203 ,36.8671 ,1.01274 ,1.92084 ,18.84727 
204 ,37.0593 ,1.01465 ,1.92426 ,18.88085 
205 ,37.2353 ,1.01644 ,1.91399 ,18.78011 
206 ,37.4114 ,1.01813 ,1.87293 ,18.37717 
207 ,37.6034 ,1.01997 ,1.85582 ,18.20928 
208 ,37.7793 ,1.02185 ,1.85582 ,18.20928 
209 ,37.9717 ,1.02369 ,1.84555 ,18.10855 
210 ,38.1638 ,1.02571 ,1.81475 ,17.80634 
211 ,38.3398 ,1.02746 ,1.80106 ,17.67203 
212 ,38.5159 ,1.02922 ,1.79764 ,17.63845 
213 ,38.7081 ,1.03113 ,1.76342 ,17.30267 
214 ,38.8997 ,1.03300 ,1.77026 ,17.36983 
215 ,39.0758 ,1.03481 ,1.76000 ,17.26909 
216 ,39.2682 ,1.03672 ,1.72235 ,16.89973 
217 ,39.4762 ,1.03879 ,1.71551 ,16.83257 
218 ,39.6524 ,1.04053 ,1.70866 ,16.76542 
219 ,39.8442 ,1.04247 ,1.67786 ,16.46321 
220 ,40.0685 ,1.04459 ,1.66760 ,16.36248 
221 ,40.2765 ,1.04680 ,1.66418 ,16.32890 
222 ,40.4525 ,1.04855 ,1.63680 ,16.06027 
223 ,40.6287 ,1.05034 ,1.61627 ,15.85880 
224 ,40.8207 ,1.05224 ,1.60942 ,15.79164 
225 ,40.9963 ,1.05397 ,1.59573 ,15.65733 
226 ,41.1729 ,1.05574 ,1.58547 ,15.55660 
227 ,41.3491 ,1.05757 ,1.56151 ,15.32155 
228 ,41.5249 ,1.05932 ,1.54782 ,15.18724 
229 ,41.7172 ,1.06120 ,1.53756 ,15.08650 
230 ,41.9091 ,1.06307 ,1.51018 ,14.81787 
231 ,42.1012 ,1.06504 ,1.50676 ,14.78430 
232 ,42.2933 ,1.06695 ,1.49649 ,14.68356 
233 ,42.4857 ,1.06887 ,1.46911 ,14.41493 
234 ,42.6612 ,1.07066 ,1.45885 ,14.31420 
235 ,42.8375 ,1.07240 ,1.46227 ,14.34778 
236 ,43.0136 ,1.07413 ,1.45200 ,14.24704 
237 ,43.2217 ,1.07623 ,1.42805 ,14.01199 
238 ,43.4138 ,1.07821 ,1.42462 ,13.97842 
239 ,43.6059 ,1.08005 ,1.38698 ,13.60906 
240 ,43.8139 ,1.08212 ,1.39383 ,13.67621 
241 ,43.9903 ,1.08390 ,1.36645 ,13.40759 
242 ,44.1821 ,1.08585 ,1.34591 ,13.20612 
243 ,44.3581 ,1.08758 ,1.34249 ,13.17254 
244 ,44.5342 ,1.08936 ,1.33907 ,13.13896 
245 ,44.7104 ,1.09113 ,1.32880 ,13.03822 
246 ,44.9025 ,1.09305 ,1.30143 ,12.76960 
247 ,45.0944 ,1.09490 ,1.29800 ,12.73602 
248 ,45.2705 ,1.09669 ,1.28089 ,12.56813 
249 ,45.4623 ,1.09863 ,1.26378 ,12.40024 
250 ,45.6385 ,1.10040 ,1.25352 ,12.29950 
251 ,45.8465 ,1.10248 ,1.24667 ,12.23235 
252 ,46.0228 ,1.10422 ,1.21929 ,11.96372 
253 ,46.1988 ,1.10596 ,1.21929 ,11.96372 
254 ,46.3750 ,1.10776 ,1.20903 ,11.86298 
255 ,46.5990 ,1.10986 ,1.17138 ,11.49362 
256 ,46.7750 ,1.11177 ,1.17823 ,11.56078 
257 ,46.9513 ,1.11347 ,1.16796 ,11.46004 
258 ,47.1273 ,1.11529 ,1.14058 ,11.19142 
259 ,47.3031 ,1.11701 ,1.13032 ,11.09068 
260 ,47.4794 ,1.11883 ,1.11663 ,10.95637 
261 ,47.7034 ,1.12088 ,1.11321 ,10.92279 
262 ,47.8795 ,1.12281 ,1.08925 ,10.68774 
263 ,48.0716 ,1.12465 ,1.08583 ,10.65416 
264 ,48.2638 ,1.12656 ,1.06872 ,10.48627 
265 ,48.4396 ,1.12843 ,1.05161 ,10.31838 
266 ,48.6319 ,1.13036 ,1.04476 ,10.25123 
267 ,48.8240 ,1.13220 ,1.01054 ,9.91544 
268 ,49.0000 ,1.13402 ,1.01054 ,9.91544 
269 ,49.1762 ,1.13577 ,1.00370 ,9.84829 
270 ,49.3999 ,1.13784 ,0.98659 ,9.68039 
271 ,49.5763 ,1.13981 ,0.97974 ,9.61324 
272 ,49.7683 ,1.14172 ,0.94894 ,9.31103 
273 ,49.9443 ,1.14342 ,0.93525 ,9.17672 
274 ,50.1206 ,1.14523 ,0.93183 ,9.14314 
275 ,50.3125 ,1.14713 ,0.92841 ,9.10956 
276 ,50.4722 ,1.14885 ,0.90788 ,8.90809 
277 ,50.6487 ,1.15049 ,0.90103 ,8.84094 
278 ,50.8244 ,1.15227 ,0.88050 ,8.63947 
279 ,51.0009 ,1.15405 ,0.86681 ,8.50515 
280 ,51.2088 ,1.15603 ,0.85312 ,8.37084 
281 ,51.4010 ,1.15790 ,0.83601 ,8.20295 
282 ,51.5770 ,1.15979 ,0.83259 ,8.16937 
283 ,51.7530 ,1.16153 ,0.83601 ,8.20295 
284 ,51.9291 ,1.16329 ,0.81206 ,7.96790 
285 ,52.1213 ,1.16524 ,0.78810 ,7.73285 
286 ,52.3132 ,1.16718 ,0.78810 ,7.73285 
287 ,52.5055 ,1.16905 ,0.76415 ,7.49780 
288 ,52.6815 ,1.17083 ,0.74704 ,7.32991 
289 ,52.8576 ,1.17255 ,0.73677 ,7.22918 
290 ,53.0497 ,1.17447 ,0.73335 ,7.19560 
291 ,53.2258 ,1.17628 ,0.72308 ,7.09486 
292 ,53.4017 ,1.17801 ,0.70939 ,6.96055 
293 ,53.5935 ,1.17986 ,0.70255 ,6.89340 
294 ,53.7700 ,1.18171 ,0.68544 ,6.72550 
295 ,53.9460 ,1.18346 ,0.67175 ,6.59119 
296 ,54.1222 ,1.18521 ,0.64437 ,6.32256 
297 ,54.2981 ,1.18699 ,0.62726 ,6.15467 
298 ,54.4741 ,1.18868 ,0.63068 ,6.18825 
299 ,54.6499 ,1.19046 ,0.61015 ,5.98678 
300 ,54.8264 ,1.19228 ,0.59646 ,5.85247 
301 ,55.0023 ,1.19402 ,0.57935 ,5.68458 
302 ,55.1944 ,1.19595 ,0.58619 ,5.75173 
303 ,55.3706 ,1.19770 ,0.56224 ,5.51668 
304 ,55.5626 ,1.19955 ,0.54855 ,5.38237 
305 ,55.7383 ,1.20135 ,0.52802 ,5.18090 
306 ,55.9146 ,1.20311 ,0.53486 ,5.24806 
307 ,56.1068 ,1.20499 ,0.51091 ,5.01301 
308 ,56.2831 ,1.20680 ,0.49037 ,4.81154 
309 ,56.4751 ,1.20871 ,0.49037 ,4.81154 
310 ,56.6671 ,1.21056 ,0.48011 ,4.71081 
311 ,56.8588 ,1.21256 ,0.44931 ,4.40860 
312 ,57.0349 ,1.21430 ,0.44931 ,4.40860 
313 ,57.2114 ,1.21610 ,0.43220 ,4.24071 
314 ,57.4034 ,1.21804 ,0.41166 ,4.03924 
315 ,57.5954 ,1.21992 ,0.41166 ,4.03924 
316 ,57.7716 ,1.22167 ,0.40140 ,3.93850 
317 ,57.9637 ,1.22356 ,0.38086 ,3.73703 
318 ,58.1718 ,1.22559 ,0.37060 ,3.63630 
319 ,58.3478 ,1.22747 ,0.34322 ,3.36767 
320 ,58.5240 ,1.22924 ,0.33980 ,3.33410 
321 ,58.7160 ,1.23115 ,0.31584 ,3.09905 
322 ,58.9240 ,1.23308 ,0.31926 ,3.13263 
323 ,59.1000 ,1.23500 ,0.28847 ,2.83042 
324 ,59.2922 ,1.23690 ,0.30558 ,2.99831 
325 ,59.4683 ,1.23862 ,0.28504 ,2.79684 
326 ,59.6284 ,1.24037 ,0.26793 ,2.62895 
327 ,59.8044 ,1.24200 ,0.25767 ,2.52822 
328 ,59.9644 ,1.24372 ,0.24055 ,2.36032 
329 ,60.1407 ,1.24535 ,0.22344 ,2.19243 
330 ,60.3325 ,1.24725 ,0.24055 ,2.36032 
331 ,60.5088 ,1.24904 ,0.21318 ,2.09170 
332 ,60.7008 ,1.25098 ,0.19264 ,1.89023 
333 ,60.8770 ,1.25270 ,0.18922 ,1.85665 
334 ,61.0852 ,1.25474 ,0.18580 ,1.82307 
335 ,61.2772 ,1.25675 ,0.14816 ,1.45371 
336 ,61.4532 ,1.25851 ,0.15842 ,1.55445 
337 ,61.6293 ,1.26025 ,0.15158 ,1.48729 
338 ,61.8534 ,1.26236 ,0.13789 ,1.35298 
339 ,62.0294 ,1.26425 ,0.12762 ,1.25224 
340 ,62.2053 ,1.26599 ,0.11393 ,1.11793 
341 ,62.3816 ,1.26775 ,0.09682 ,0.95004 
342 ,62.5576 ,1.26956 ,0.06602 ,0.64783 
343 ,62.7335 ,1.27129 ,0.06945 ,0.68141 
344 ,62.9098 ,1.27303 ,0.06602 ,0.64783 
345 ,63.1015 ,1.27501 ,0.04549 ,0.44636 
346 ,63.2779 ,1.27676 ,0.02154 ,0.21131 
347 ,63.4539 ,1.27845 ,0.03180 ,0.31205 
348 ,63.6300 ,1.28020 ,0.01127 ,0.11058 
349 ,63.8222 ,1.28220 ,-0.00584 ,-0.05731 
350 ,63.9979 ,1.28392 ,-0.01953 ,-0.19163 
351 ,64.1743 ,1.28565 ,-0.02637 ,-0.25878 
352 ,64.3503 ,1.28737 ,-0.01953 ,-0.19163 
353 ,64.5425 ,1.28924 ,-0.04348 ,-0.42667 
354 ,64.7345 ,1.29125 ,-0.06060 ,-0.59457 
355 ,64.9106 ,1.29307 ,-0.05033 ,-0.49383 
356 ,65.1026 ,1.29501 ,-0.07086 ,-0.69530 
357 ,65.2786 ,1.29673 ,-0.09824 ,-0.96393 
358 ,65.4704 ,1.29858 ,-0.10166 ,-0.99751 
359 ,65.6628 ,1.30050 ,-0.11535 ,-1.13182 
360 ,65.8550 ,1.30241 ,-0.12562 ,-1.23255 
361 ,66.0311 ,1.30426 ,-0.13246 ,-1.29971 
362 ,66.2068 ,1.30603 ,-0.13588 ,-1.33329 
363 ,66.3992 ,1.30791 ,-0.16326 ,-1.60191 
364 ,66.6073 ,1.30998 ,-0.15984 ,-1.56834 
365 ,66.7993 ,1.31193 ,-0.19064 ,-1.87054 
366 ,66.9753 ,1.31372 ,-0.19064 ,-1.87054 
367 ,67.1674 ,1.31552 ,-0.19748 ,-1.93770 
368 ,67.3595 ,1.31756 ,-0.20433 ,-2.00485 
369 ,67.5357 ,1.31931 ,-0.22486 ,-2.20632 
370 ,67.7277 ,1.32126 ,-0.20775 ,-2.03843 
371 ,67.9037 ,1.32298 ,-0.22144 ,-2.17275 
372 ,68.0799 ,1.32473 ,-0.24881 ,-2.44137 
373 ,68.2720 ,1.32659 ,-0.23855 ,-2.34064 
374 ,68.4477 ,1.32840 ,-0.25566 ,-2.50853 
375 ,68.6401 ,1.33027 ,-0.28646 ,-2.81073 
376 ,68.8161 ,1.33210 ,-0.28304 ,-2.77716 
377 ,68.9922 ,1.33379 ,-0.28304 ,-2.77716 
378 ,69.1843 ,1.33575 ,-0.28988 ,-2.84431 
379 ,69.3605 ,1.33750 ,-0.29673 ,-2.91147 
380 ,69.5525 ,1.33938 ,-0.32068 ,-3.14652 
381 ,69.7285 ,1.34121 ,-0.31384 ,-3.07936 
382 ,69.9046 ,1.34301 ,-0.32410 ,-3.18010 
383 ,70.0805 ,1.34471 ,-0.34464 ,-3.38156 
384 ,70.2568 ,1.34652 ,-0.35832 ,-3.51588 
385 ,70.4327 ,1.34830 ,-0.35832 ,-3.51588 
386 ,70.6249 ,1.35022 ,-0.36175 ,-3.54946 
387 ,70.8169 ,1.35207 ,-0.37886 ,-3.71735 
388 ,70.9930 ,1.35384 ,-0.38570 ,-3.78450 
389 ,71.1692 ,1.35563 ,-0.39255 ,-3.85166 
390 ,71.3452 ,1.35736 ,-0.38228 ,-3.75093 
391 ,71.5211 ,1.35913 ,-0.39939 ,-3.91882 
392 ,71.6975 ,1.36092 ,-0.43019 ,-4.22102 
393 ,71.8735 ,1.36264 ,-0.43703 ,-4.28818 
394 ,72.0495 ,1.36440 ,-0.44730 ,-4.38891 
395 ,72.2256 ,1.36614 ,-0.44046 ,-4.32176 
396 ,72.4177 ,1.36812 ,-0.47126 ,-4.62396 
397 ,72.5933 ,1.36981 ,-0.46099 ,-4.52323 
398 ,72.7697 ,1.37160 ,-0.46441 ,-4.55681 
399 ,72.9458 ,1.37334 ,-0.46099 ,-4.52323 
400 ,73.1219 ,1.37513 ,-0.48837 ,-4.79185 
401 ,73.2980 ,1.37691 ,-0.49863 ,-4.89259 
402 ,73.4900 ,1.37882 ,-0.49863 ,-4.89259 
403 ,73.6497 ,1.38052 ,-0.50206 ,-4.92617 
404 ,73.8262 ,1.38217 ,-0.52259 ,-5.12764 
405 ,74.0183 ,1.38412 ,-0.54997 ,-5.39626 
406 ,74.1945 ,1.38584 ,-0.53970 ,-5.29553 
407 ,74.3704 ,1.38756 ,-0.54312 ,-5.32911 
408 ,74.5465 ,1.38939 ,-0.56023 ,-5.49700 
409 ,74.7062 ,1.39105 ,-0.57392 ,-5.63131 
410 ,74.8828 ,1.39275 ,-0.57734 ,-5.66489 
411 ,75.0746 ,1.39468 ,-0.59445 ,-5.83278 
412 ,75.2508 ,1.39638 ,-0.57734 ,-5.66489 
413 ,75.4268 ,1.39819 ,-0.60472 ,-5.93352 
414 ,75.6026 ,1.39988 ,-0.60130 ,-5.89994 
415 ,75.7786 ,1.40170 ,-0.62525 ,-6.13499 
416 ,75.9552 ,1.40347 ,-0.64236 ,-6.30288 
417 ,76.1632 ,1.40551 ,-0.63210 ,-6.20214 
418 ,76.3391 ,1.40730 ,-0.64921 ,-6.37003 
419 ,76.5313 ,1.40917 ,-0.64921 ,-6.37003 
420 ,76.7075 ,1.41096 ,-0.65263 ,-6.40361 
421 ,76.8835 ,1.41274 ,-0.64579 ,-6.33646 
422 ,77.0434 ,1.41444 ,-0.68001 ,-6.67224 
423 ,77.2196 ,1.41609 ,-0.68001 ,-6.67224 
424 ,77.3954 ,1.41787 ,-0.69027 ,-6.77297 
425 ,77.5717 ,1.41960 ,-0.68343 ,-6.70582 
426 ,77.7476 ,1.42132 ,-0.69712 ,-6.84013 
427 ,77.9238 ,1.42313 ,-0.70396 ,-6.90729 
428 ,78.0999 ,1.42486 ,-0.72450 ,-7.10876 
429 ,78.2759 ,1.42666 ,-0.73134 ,-7.17591 
430 ,78.4521 ,1.42845 ,-0.73818 ,-7.24307 
431 ,78.6441 ,1.43037 ,-0.74161 ,-7.27665 
432 ,78.8203 ,1.43205 ,-0.75187 ,-7.37738 
433 ,78.9963 ,1.43384 ,-0.76898 ,-7.54527 
434 ,79.1722 ,1.43563 ,-0.76898 ,-7.54527 
435 ,79.3646 ,1.43750 ,-0.77241 ,-7.57885 
436 ,79.5405 ,1.43932 ,-0.78267 ,-7.67959 
437 ,79.7165 ,1.44103 ,-0.78952 ,-7.74674 
438 ,79.8926 ,1.44283 ,-0.81005 ,-7.94821 
439 ,80.0527 ,1.44451 ,-0.79636 ,-7.81390 
440 ,80.2288 ,1.44613 ,-0.81689 ,-8.01537 
441 ,80.4050 ,1.44794 ,-0.81347 ,-7.98179 
442 ,80.5970 ,1.44980 ,-0.84769 ,-8.31758 
443 ,80.7731 ,1.45164 ,-0.83743 ,-8.21684 
444 ,80.9812 ,1.45358 ,-0.83401 ,-8.18326 
445 ,81.1572 ,1.45541 ,-0.84769 ,-8.31758 
446 ,81.3332 ,1.45718 ,-0.87849 ,-8.61978 
447 ,81.5095 ,1.45898 ,-0.87849 ,-8.61978 
448 ,81.6856 ,1.46076 ,-0.87165 ,-8.55262 
449 ,81.8776 ,1.46261 ,-0.89218 ,-8.75409 
450 ,82.0532 ,1.46441 ,-0.90245 ,-8.85483 
451 ,82.2297 ,1.46617 ,-0.90245 ,-8.85483 
452 ,82.4056 ,1.46798 ,-0.89903 ,-8.82125 
453 ,82.5821 ,1.46971 ,-0.89903 ,-8.82125 
454 ,82.7579 ,1.47149 ,-0.91614 ,-8.98914 
455 ,82.9499 ,1.47341 ,-0.93667 ,-9.19061 
456 ,83.1419 ,1.47518 ,-0.93325 ,-9.15703 
457 ,83.3502 ,1.47722 ,-0.95720 ,-9.39208 
458 ,83.5741 ,1.47948 ,-0.95720 ,-9.39208 
459 ,83.7500 ,1.48139 ,-0.97774 ,-9.59355 
460 ,83.9424 ,1.48328 ,-0.95720 ,-9.39208 
461 ,84.1182 ,1.48503 ,-0.98458 ,-9.66071 
462 ,84.2945 ,1.48678 ,-0.99485 ,-9.76144 
