Data stamp = , 03-04-2022 21:15:02 437

Calibration Values: 
Slope = , 26.54 , g/V 
Offset Voltage at no contact = , -0.501760 , V 

No , Time , Stage Position ,   Mass , Force 
   ,  (s) ,      (mm)      ,   (g)  , (mN)  

1 ,0.0000 ,0.59949 ,5.26087 ,51.61969 
2 ,0.2204 ,0.59958 ,5.25403 ,51.55254 
3 ,0.5405 ,0.60040 ,5.26430 ,51.65327 
4 ,0.7326 ,0.60185 ,5.26087 ,51.61969 
5 ,0.9088 ,0.60338 ,5.26430 ,51.65327 
6 ,1.1007 ,0.60528 ,5.25061 ,51.51896 
7 ,1.2767 ,0.60700 ,5.26087 ,51.61969 
8 ,1.4529 ,0.60875 ,5.26430 ,51.65327 
9 ,1.6288 ,0.61050 ,5.25745 ,51.58611 
10 ,1.8050 ,0.61230 ,5.23350 ,51.35107 
11 ,1.9810 ,0.61410 ,5.22323 ,51.25033 
12 ,2.1571 ,0.61586 ,5.20954 ,51.11602 
13 ,2.3332 ,0.61754 ,5.19243 ,50.94813 
14 ,2.4931 ,0.61929 ,5.18559 ,50.88097 
15 ,2.6693 ,0.62095 ,5.18216 ,50.84739 
16 ,2.8455 ,0.62271 ,5.16848 ,50.71308 
17 ,3.0215 ,0.62450 ,5.12399 ,50.27656 
18 ,3.1975 ,0.62622 ,5.12056 ,50.24298 
19 ,3.3737 ,0.62802 ,5.12399 ,50.27656 
20 ,3.5494 ,0.62977 ,5.11030 ,50.14225 
21 ,3.7259 ,0.63150 ,5.08292 ,49.87362 
22 ,3.9019 ,0.63331 ,5.05212 ,49.57142 
23 ,4.0940 ,0.63514 ,5.05897 ,49.63857 
24 ,4.2860 ,0.63700 ,5.03501 ,49.40352 
25 ,4.4626 ,0.63892 ,5.00763 ,49.13490 
26 ,4.6381 ,0.64057 ,4.98026 ,48.86627 
27 ,4.8302 ,0.64249 ,4.97341 ,48.79911 
28 ,5.0059 ,0.64430 ,4.94946 ,48.56407 
29 ,5.1823 ,0.64605 ,4.91866 ,48.26186 
30 ,5.3586 ,0.64784 ,4.91181 ,48.19471 
31 ,5.5344 ,0.64956 ,4.89812 ,48.06039 
32 ,5.7105 ,0.65131 ,4.88101 ,47.89250 
33 ,5.9185 ,0.65338 ,4.85706 ,47.65745 
34 ,6.0947 ,0.65514 ,4.83995 ,47.48956 
35 ,6.2706 ,0.65695 ,4.81257 ,47.22093 
36 ,6.4469 ,0.65871 ,4.79204 ,47.01946 
37 ,6.6388 ,0.66058 ,4.76808 ,46.78442 
38 ,6.8150 ,0.66237 ,4.75097 ,46.61653 
39 ,6.9911 ,0.66414 ,4.74755 ,46.58295 
40 ,7.1673 ,0.66588 ,4.70306 ,46.14643 
41 ,7.3432 ,0.66766 ,4.68253 ,45.94496 
42 ,7.5190 ,0.66940 ,4.66542 ,45.77707 
43 ,7.6794 ,0.67112 ,4.65857 ,45.70991 
44 ,7.8715 ,0.67295 ,4.63804 ,45.50844 
45 ,8.0637 ,0.67489 ,4.59697 ,45.10550 
46 ,8.2396 ,0.67664 ,4.58671 ,45.00477 
47 ,8.4157 ,0.67835 ,4.59013 ,45.03835 
48 ,8.5916 ,0.68014 ,4.56275 ,44.76972 
49 ,8.7678 ,0.68187 ,4.52169 ,44.36678 
50 ,8.9439 ,0.68365 ,4.50457 ,44.19889 
51 ,9.1520 ,0.68571 ,4.48746 ,44.03100 
52 ,9.3279 ,0.68750 ,4.47720 ,43.93026 
53 ,9.5041 ,0.68921 ,4.44298 ,43.59448 
54 ,9.6961 ,0.69119 ,4.43955 ,43.56090 
55 ,9.8719 ,0.69294 ,4.42929 ,43.46016 
56 ,10.0483 ,0.69469 ,4.40191 ,43.19154 
57 ,10.2243 ,0.69641 ,4.38822 ,43.05723 
58 ,10.4005 ,0.69823 ,4.35742 ,42.75502 
59 ,10.5925 ,0.70005 ,4.34373 ,42.62071 
60 ,10.7843 ,0.70203 ,4.32662 ,42.45282 
61 ,10.9603 ,0.70378 ,4.31293 ,42.31850 
62 ,11.1367 ,0.70557 ,4.30267 ,42.21777 
63 ,11.3128 ,0.70732 ,4.28898 ,42.08345 
64 ,11.4889 ,0.70913 ,4.26502 ,41.84841 
65 ,11.6650 ,0.71089 ,4.24449 ,41.64694 
66 ,11.8410 ,0.71261 ,4.23422 ,41.54620 
67 ,12.0167 ,0.71435 ,4.22053 ,41.41189 
68 ,12.1932 ,0.71611 ,4.19316 ,41.14326 
69 ,12.3693 ,0.71792 ,4.15551 ,40.77390 
70 ,12.5451 ,0.71970 ,4.15551 ,40.77390 
71 ,12.7214 ,0.72143 ,4.14525 ,40.67317 
72 ,12.8974 ,0.72321 ,4.14183 ,40.63959 
73 ,13.0572 ,0.72489 ,4.11445 ,40.37096 
74 ,13.2174 ,0.72650 ,4.10076 ,40.23665 
75 ,13.3936 ,0.72812 ,4.08023 ,40.03518 
76 ,13.5696 ,0.72990 ,4.05285 ,39.76655 
77 ,13.7459 ,0.73168 ,4.03574 ,39.59866 
78 ,13.9379 ,0.73354 ,4.02889 ,39.53150 
79 ,14.1135 ,0.73534 ,4.01520 ,39.39719 
80 ,14.2900 ,0.73712 ,3.99809 ,39.22930 
81 ,14.4821 ,0.73905 ,3.98098 ,39.06141 
82 ,14.6580 ,0.74079 ,3.97414 ,38.99425 
83 ,14.8340 ,0.74249 ,3.94676 ,38.72562 
84 ,15.0102 ,0.74429 ,3.91938 ,38.45700 
85 ,15.1861 ,0.74609 ,3.91596 ,38.42342 
86 ,15.3785 ,0.74797 ,3.90570 ,38.32268 
87 ,15.5703 ,0.74990 ,3.86463 ,37.91975 
88 ,15.7467 ,0.75168 ,3.86121 ,37.88617 
89 ,15.9385 ,0.75356 ,3.86121 ,37.88617 
90 ,16.1309 ,0.75552 ,3.83725 ,37.65112 
91 ,16.3064 ,0.75726 ,3.81330 ,37.41607 
92 ,16.4830 ,0.75902 ,3.81672 ,37.44965 
93 ,16.6748 ,0.76093 ,3.78250 ,37.11387 
94 ,16.8670 ,0.76277 ,3.76881 ,36.97955 
95 ,17.0432 ,0.76460 ,3.74828 ,36.77808 
96 ,17.2193 ,0.76640 ,3.74143 ,36.71093 
97 ,17.4111 ,0.76828 ,3.71748 ,36.47588 
98 ,17.5874 ,0.77007 ,3.68668 ,36.17367 
99 ,17.7632 ,0.77185 ,3.69352 ,36.24083 
100 ,17.9396 ,0.77357 ,3.68325 ,36.14010 
101 ,18.1475 ,0.77558 ,3.65588 ,35.87147 
102 ,18.3397 ,0.77746 ,3.64219 ,35.73716 
103 ,18.5318 ,0.77944 ,3.60454 ,35.36779 
104 ,18.7239 ,0.78142 ,3.61139 ,35.43495 
105 ,18.9158 ,0.78325 ,3.60112 ,35.33422 
106 ,19.1079 ,0.78514 ,3.55663 ,34.89770 
107 ,19.2839 ,0.78699 ,3.56006 ,34.93128 
108 ,19.4600 ,0.78876 ,3.55321 ,34.86412 
109 ,19.6360 ,0.79051 ,3.52926 ,34.62907 
110 ,19.8283 ,0.79240 ,3.52241 ,34.56192 
111 ,20.0361 ,0.79437 ,3.48477 ,34.19255 
112 ,20.2125 ,0.79631 ,3.46424 ,33.99108 
113 ,20.4045 ,0.79823 ,3.46424 ,33.99108 
114 ,20.5966 ,0.80001 ,3.43686 ,33.72246 
115 ,20.7727 ,0.80192 ,3.41975 ,33.55457 
116 ,20.9654 ,0.80381 ,3.41633 ,33.52099 
117 ,21.1566 ,0.80569 ,3.38210 ,33.18520 
118 ,21.3489 ,0.80762 ,3.38553 ,33.21878 
119 ,21.5249 ,0.80942 ,3.37184 ,33.08447 
120 ,21.6849 ,0.81113 ,3.36157 ,32.98374 
121 ,21.8771 ,0.81289 ,3.34104 ,32.78227 
122 ,22.0691 ,0.81477 ,3.31708 ,32.54722 
123 ,22.2613 ,0.81676 ,3.29655 ,32.34575 
124 ,22.4534 ,0.81859 ,3.28628 ,32.24501 
125 ,22.6451 ,0.82062 ,3.26233 ,32.00996 
126 ,22.8375 ,0.82243 ,3.25891 ,31.97639 
127 ,23.0456 ,0.82447 ,3.24864 ,31.87565 
128 ,23.2214 ,0.82638 ,3.23837 ,31.77492 
129 ,23.3978 ,0.82815 ,3.20073 ,31.40555 
130 ,23.5898 ,0.83005 ,3.18020 ,31.20409 
131 ,23.7658 ,0.83181 ,3.18362 ,31.23766 
132 ,23.9422 ,0.83355 ,3.17677 ,31.17051 
133 ,24.1181 ,0.83535 ,3.15624 ,30.96904 
134 ,24.2941 ,0.83710 ,3.13571 ,30.76757 
135 ,24.4699 ,0.83882 ,3.12544 ,30.66683 
136 ,24.6463 ,0.84060 ,3.11860 ,30.59968 
137 ,24.8379 ,0.84257 ,3.08780 ,30.29747 
138 ,25.0141 ,0.84430 ,3.05700 ,29.99527 
139 ,25.1900 ,0.84602 ,3.05700 ,29.99527 
140 ,25.3665 ,0.84779 ,3.05358 ,29.96169 
141 ,25.5906 ,0.84992 ,3.01251 ,29.55875 
142 ,25.7668 ,0.85182 ,3.00909 ,29.52517 
143 ,25.9427 ,0.85362 ,2.98513 ,29.29012 
144 ,26.1349 ,0.85545 ,2.97829 ,29.22297 
145 ,26.3109 ,0.85728 ,2.95091 ,28.95434 
146 ,26.4871 ,0.85904 ,2.95776 ,29.02150 
147 ,26.6632 ,0.86083 ,2.94407 ,28.88718 
148 ,26.8708 ,0.86283 ,2.90985 ,28.55140 
149 ,27.0472 ,0.86464 ,2.91669 ,28.61856 
150 ,27.2234 ,0.86639 ,2.88589 ,28.31635 
151 ,27.3994 ,0.86818 ,2.87220 ,28.18204 
152 ,27.5913 ,0.87002 ,2.86536 ,28.11488 
153 ,27.7674 ,0.87179 ,2.83798 ,27.84625 
154 ,27.9430 ,0.87357 ,2.82771 ,27.74552 
155 ,28.1196 ,0.87532 ,2.79691 ,27.44332 
156 ,28.2958 ,0.87704 ,2.79691 ,27.44332 
157 ,28.4719 ,0.87886 ,2.76954 ,27.17469 
158 ,28.6478 ,0.88064 ,2.75585 ,27.04038 
159 ,28.8240 ,0.88239 ,2.74900 ,26.97322 
160 ,28.9997 ,0.88417 ,2.72505 ,26.73817 
161 ,29.1761 ,0.88592 ,2.70794 ,26.57028 
162 ,29.3517 ,0.88761 ,2.71820 ,26.67101 
163 ,29.5283 ,0.88940 ,2.70794 ,26.57028 
164 ,29.7043 ,0.89115 ,2.68056 ,26.30165 
165 ,29.9121 ,0.89322 ,2.65318 ,26.03303 
166 ,30.0883 ,0.89506 ,2.63607 ,25.86514 
167 ,30.2646 ,0.89673 ,2.62923 ,25.79798 
168 ,30.4407 ,0.89854 ,2.60185 ,25.52935 
169 ,30.6324 ,0.90039 ,2.61212 ,25.63009 
170 ,30.8087 ,0.90220 ,2.58474 ,25.36146 
171 ,30.9847 ,0.90399 ,2.55052 ,25.02568 
172 ,31.1606 ,0.90577 ,2.54710 ,24.99210 
173 ,31.3370 ,0.90750 ,2.54367 ,24.95852 
174 ,31.5131 ,0.90924 ,2.52656 ,24.79063 
175 ,31.6892 ,0.91103 ,2.50603 ,24.58916 
176 ,31.8812 ,0.91297 ,2.48892 ,24.42127 
177 ,32.0731 ,0.91485 ,2.46839 ,24.21980 
178 ,32.2494 ,0.91658 ,2.45470 ,24.08549 
179 ,32.4254 ,0.91832 ,2.43759 ,23.91759 
180 ,32.6016 ,0.92013 ,2.42390 ,23.78328 
181 ,32.7935 ,0.92206 ,2.41021 ,23.64897 
182 ,32.9697 ,0.92381 ,2.39652 ,23.51465 
183 ,33.1617 ,0.92562 ,2.37599 ,23.31318 
184 ,33.3378 ,0.92752 ,2.36230 ,23.17887 
185 ,33.5140 ,0.92932 ,2.35888 ,23.14529 
186 ,33.6899 ,0.93098 ,2.34177 ,22.97740 
187 ,33.8821 ,0.93294 ,2.30412 ,22.60804 
188 ,34.0580 ,0.93475 ,2.31097 ,22.67520 
189 ,34.2343 ,0.93642 ,2.30070 ,22.57446 
190 ,34.4098 ,0.93821 ,2.29728 ,22.54088 
191 ,34.5861 ,0.93998 ,2.25963 ,22.17152 
192 ,34.7461 ,0.94168 ,2.24594 ,22.03721 
193 ,34.9222 ,0.94332 ,2.22541 ,21.83574 
194 ,35.0983 ,0.94511 ,2.21857 ,21.76858 
195 ,35.2743 ,0.94681 ,2.20830 ,21.66785 
196 ,35.4669 ,0.94868 ,2.21515 ,21.73500 
197 ,35.6587 ,0.95076 ,2.15355 ,21.13059 
198 ,35.8505 ,0.95267 ,2.15012 ,21.09702 
199 ,36.0266 ,0.95436 ,2.15355 ,21.13059 
200 ,36.2031 ,0.95613 ,2.11932 ,20.79481 
201 ,36.3790 ,0.95795 ,2.11932 ,20.79481 
202 ,36.5552 ,0.95968 ,2.11590 ,20.76123 
203 ,36.7470 ,0.96152 ,2.06457 ,20.25756 
204 ,36.9234 ,0.96337 ,2.06115 ,20.22398 
205 ,37.1313 ,0.96532 ,2.05773 ,20.19040 
206 ,37.3072 ,0.96718 ,2.04061 ,20.02251 
207 ,37.4835 ,0.96891 ,2.03035 ,19.92178 
208 ,37.6593 ,0.97070 ,2.00297 ,19.65315 
209 ,37.8517 ,0.97255 ,1.99955 ,19.61957 
210 ,38.0278 ,0.97438 ,1.98586 ,19.48526 
211 ,38.2199 ,0.97626 ,1.97217 ,19.35094 
212 ,38.4119 ,0.97819 ,1.96190 ,19.25021 
213 ,38.5877 ,0.97999 ,1.93453 ,18.98158 
214 ,38.7642 ,0.98177 ,1.91057 ,18.74654 
215 ,38.9399 ,0.98349 ,1.90373 ,18.67938 
216 ,39.1159 ,0.98526 ,1.90031 ,18.64580 
217 ,39.2923 ,0.98700 ,1.89688 ,18.61222 
218 ,39.5004 ,0.98895 ,1.87293 ,18.37717 
219 ,39.6601 ,0.99082 ,1.86266 ,18.27644 
220 ,39.8365 ,0.99249 ,1.84897 ,18.14213 
221 ,40.0286 ,0.99436 ,1.80791 ,17.73919 
222 ,40.2047 ,0.99618 ,1.81133 ,17.77276 
223 ,40.4127 ,0.99813 ,1.78395 ,17.50414 
224 ,40.5888 ,0.99997 ,1.77711 ,17.43698 
225 ,40.7809 ,1.00187 ,1.76000 ,17.26909 
226 ,40.9569 ,1.00366 ,1.74973 ,17.16836 
227 ,41.1330 ,1.00544 ,1.73946 ,17.06762 
228 ,41.3252 ,1.00726 ,1.71209 ,16.79899 
229 ,41.5171 ,1.00924 ,1.70866 ,16.76542 
230 ,41.6932 ,1.01100 ,1.69498 ,16.63110 
231 ,41.8694 ,1.01280 ,1.65733 ,16.26174 
232 ,42.0453 ,1.01458 ,1.66418 ,16.32890 
233 ,42.2215 ,1.01631 ,1.66075 ,16.29532 
234 ,42.4136 ,1.01822 ,1.64022 ,16.09385 
235 ,42.5897 ,1.02001 ,1.61627 ,15.85880 
236 ,42.7658 ,1.02173 ,1.59916 ,15.69091 
237 ,42.9577 ,1.02358 ,1.60600 ,15.75807 
238 ,43.1818 ,1.02577 ,1.55467 ,15.25439 
239 ,43.3900 ,1.02785 ,1.54782 ,15.18724 
240 ,43.5821 ,1.02989 ,1.54440 ,15.15366 
241 ,43.7581 ,1.03169 ,1.53413 ,15.05292 
242 ,43.9501 ,1.03355 ,1.49307 ,14.64998 
243 ,44.1260 ,1.03535 ,1.49649 ,14.68356 
244 ,44.3023 ,1.03711 ,1.48965 ,14.61640 
245 ,44.4943 ,1.03903 ,1.47938 ,14.51567 
246 ,44.6703 ,1.04078 ,1.47596 ,14.48209 
247 ,44.8464 ,1.04253 ,1.43489 ,14.07915 
248 ,45.0226 ,1.04430 ,1.44858 ,14.21346 
249 ,45.2306 ,1.04623 ,1.41778 ,13.91126 
250 ,45.4067 ,1.04816 ,1.39383 ,13.67621 
251 ,45.5829 ,1.04992 ,1.38698 ,13.60906 
252 ,45.7907 ,1.05187 ,1.37671 ,13.50832 
253 ,45.9670 ,1.05377 ,1.36303 ,13.37401 
254 ,46.1431 ,1.05553 ,1.34591 ,13.20612 
255 ,46.3192 ,1.05728 ,1.34249 ,13.17254 
256 ,46.4953 ,1.05907 ,1.32196 ,12.97107 
257 ,46.6714 ,1.06081 ,1.29800 ,12.73602 
258 ,46.8634 ,1.06269 ,1.30143 ,12.76960 
259 ,47.0552 ,1.06460 ,1.28774 ,12.63528 
260 ,47.2316 ,1.06641 ,1.27063 ,12.46739 
261 ,47.4076 ,1.06818 ,1.25009 ,12.26592 
262 ,47.5999 ,1.07006 ,1.24667 ,12.23235 
263 ,47.7758 ,1.07183 ,1.25009 ,12.26592 
264 ,47.9683 ,1.07372 ,1.21245 ,11.89656 
265 ,48.1436 ,1.07555 ,1.19192 ,11.69509 
266 ,48.3200 ,1.07729 ,1.20218 ,11.79583 
267 ,48.5281 ,1.07926 ,1.17823 ,11.56078 
268 ,48.7041 ,1.08108 ,1.16796 ,11.46004 
269 ,48.8803 ,1.08288 ,1.16796 ,11.46004 
270 ,49.0564 ,1.08463 ,1.14743 ,11.25857 
271 ,49.2644 ,1.08664 ,1.15770 ,11.35931 
272 ,49.4406 ,1.08847 ,1.12690 ,11.05710 
273 ,49.6326 ,1.09034 ,1.08925 ,10.68774 
274 ,49.8086 ,1.09215 ,1.07899 ,10.58701 
275 ,49.9847 ,1.09401 ,1.07899 ,10.58701 
276 ,50.1608 ,1.09566 ,1.06530 ,10.45270 
277 ,50.3368 ,1.09753 ,1.04819 ,10.28480 
278 ,50.5129 ,1.09920 ,1.04476 ,10.25123 
279 ,50.7051 ,1.10104 ,1.01396 ,9.94902 
280 ,50.8810 ,1.10290 ,1.03108 ,10.11691 
281 ,51.0571 ,1.10464 ,1.00028 ,9.81471 
282 ,51.2493 ,1.10653 ,0.98659 ,9.68039 
283 ,51.4092 ,1.10827 ,0.97290 ,9.54608 
284 ,51.6015 ,1.10999 ,0.97974 ,9.61324 
285 ,51.7934 ,1.11190 ,0.94210 ,9.24388 
286 ,51.9855 ,1.11388 ,0.94552 ,9.27745 
287 ,52.1776 ,1.11574 ,0.93525 ,9.17672 
288 ,52.3536 ,1.11755 ,0.90446 ,8.87451 
289 ,52.5458 ,1.11946 ,0.89761 ,8.80736 
290 ,52.7378 ,1.12143 ,0.89419 ,8.77378 
291 ,52.9140 ,1.12321 ,0.87708 ,8.60589 
292 ,53.1059 ,1.12507 ,0.86339 ,8.47158 
293 ,53.2821 ,1.12691 ,0.85654 ,8.40442 
294 ,53.4580 ,1.12861 ,0.85654 ,8.40442 
295 ,53.6343 ,1.13039 ,0.82575 ,8.10221 
296 ,53.8263 ,1.13229 ,0.81206 ,7.96790 
297 ,54.0024 ,1.13405 ,0.80179 ,7.86717 
298 ,54.2105 ,1.13611 ,0.78810 ,7.73285 
299 ,54.3866 ,1.13794 ,0.76415 ,7.49780 
300 ,54.5622 ,1.13966 ,0.77441 ,7.59854 
301 ,54.7543 ,1.14148 ,0.76415 ,7.49780 
302 ,54.9467 ,1.14339 ,0.72650 ,7.12844 
303 ,55.1388 ,1.14539 ,0.72650 ,7.12844 
304 ,55.3150 ,1.14714 ,0.71281 ,6.99413 
305 ,55.4910 ,1.14899 ,0.68544 ,6.72550 
306 ,55.6827 ,1.15084 ,0.69570 ,6.82624 
307 ,55.8752 ,1.15264 ,0.68544 ,6.72550 
308 ,56.0669 ,1.15463 ,0.68201 ,6.69193 
309 ,56.2434 ,1.15647 ,0.66833 ,6.55761 
310 ,56.4512 ,1.15844 ,0.63753 ,6.25541 
311 ,56.6274 ,1.16029 ,0.62384 ,6.12109 
312 ,56.8036 ,1.16207 ,0.62042 ,6.08752 
313 ,56.9955 ,1.16399 ,0.59988 ,5.88605 
314 ,57.1717 ,1.16572 ,0.58277 ,5.71815 
315 ,57.3955 ,1.16787 ,0.56566 ,5.55026 
316 ,57.5874 ,1.16982 ,0.57251 ,5.61742 
317 ,57.7636 ,1.17166 ,0.54855 ,5.38237 
318 ,57.9397 ,1.17338 ,0.53828 ,5.28164 
319 ,58.1161 ,1.17520 ,0.52117 ,5.11375 
320 ,58.3242 ,1.17724 ,0.52459 ,5.14732 
321 ,58.5163 ,1.17916 ,0.49722 ,4.87870 
322 ,58.6923 ,1.18097 ,0.49037 ,4.81154 
323 ,58.8685 ,1.18269 ,0.47668 ,4.67723 
324 ,59.0605 ,1.18460 ,0.47326 ,4.64365 
325 ,59.2366 ,1.18641 ,0.46642 ,4.57649 
326 ,59.4287 ,1.18824 ,0.44588 ,4.37502 
327 ,59.6047 ,1.19008 ,0.44588 ,4.37502 
328 ,59.7967 ,1.19199 ,0.40482 ,3.97208 
329 ,59.9726 ,1.19375 ,0.41166 ,4.03924 
330 ,60.1650 ,1.19560 ,0.41166 ,4.03924 
331 ,60.3409 ,1.19746 ,0.39455 ,3.87135 
332 ,60.5170 ,1.19915 ,0.37402 ,3.66988 
333 ,60.6770 ,1.20087 ,0.36033 ,3.53557 
334 ,60.8532 ,1.20251 ,0.33980 ,3.33410 
335 ,61.0612 ,1.20457 ,0.33638 ,3.30052 
336 ,61.2533 ,1.20652 ,0.32611 ,3.19978 
337 ,61.4611 ,1.20855 ,0.31926 ,3.13263 
338 ,61.6374 ,1.21037 ,0.31242 ,3.06547 
339 ,61.8135 ,1.21221 ,0.30900 ,3.03189 
340 ,61.9895 ,1.21391 ,0.29531 ,2.89758 
341 ,62.1656 ,1.21565 ,0.29531 ,2.89758 
342 ,62.3418 ,1.21744 ,0.27820 ,2.72969 
343 ,62.5334 ,1.21930 ,0.24398 ,2.39390 
344 ,62.7100 ,1.22111 ,0.24055 ,2.36032 
345 ,62.8859 ,1.22292 ,0.22002 ,2.15885 
346 ,63.0621 ,1.22459 ,0.23029 ,2.25959 
347 ,63.2382 ,1.22639 ,0.21318 ,2.09170 
348 ,63.4138 ,1.22814 ,0.18922 ,1.85665 
349 ,63.6063 ,1.22993 ,0.17553 ,1.72234 
350 ,63.7822 ,1.23185 ,0.18922 ,1.85665 
351 ,64.0064 ,1.23389 ,0.17896 ,1.75592 
352 ,64.1823 ,1.23580 ,0.15842 ,1.55445 
353 ,64.3745 ,1.23774 ,0.13105 ,1.28582 
354 ,64.5504 ,1.23951 ,0.12420 ,1.21866 
355 ,64.7428 ,1.24144 ,0.12078 ,1.18508 
356 ,64.9188 ,1.24319 ,0.11051 ,1.08435 
357 ,65.0948 ,1.24494 ,0.08314 ,0.81572 
358 ,65.2709 ,1.24678 ,0.09682 ,0.95004 
359 ,65.4789 ,1.24870 ,0.06260 ,0.61425 
360 ,65.6711 ,1.25060 ,0.06260 ,0.61425 
361 ,65.8632 ,1.25265 ,0.06945 ,0.68141 
362 ,66.0393 ,1.25443 ,0.04207 ,0.41278 
363 ,66.2472 ,1.25643 ,0.05234 ,0.51352 
364 ,66.4234 ,1.25818 ,0.02496 ,0.24489 
365 ,66.5996 ,1.25998 ,0.01469 ,0.14416 
366 ,66.7915 ,1.26188 ,-0.00926 ,-0.09089 
367 ,66.9681 ,1.26367 ,0.00100 ,0.00984 
368 ,67.1594 ,1.26555 ,-0.01953 ,-0.19163 
369 ,67.3357 ,1.26733 ,-0.04348 ,-0.42667 
370 ,67.5118 ,1.26905 ,-0.05033 ,-0.49383 
371 ,67.6880 ,1.27086 ,-0.05033 ,-0.49383 
372 ,67.8641 ,1.27265 ,-0.05717 ,-0.56099 
373 ,68.0720 ,1.27459 ,-0.07428 ,-0.72888 
374 ,68.2641 ,1.27651 ,-0.07086 ,-0.69530 
375 ,68.4402 ,1.27835 ,-0.08113 ,-0.79604 
376 ,68.6323 ,1.28026 ,-0.10166 ,-0.99751 
377 ,68.8081 ,1.28204 ,-0.10508 ,-1.03108 
378 ,68.9846 ,1.28379 ,-0.10508 ,-1.03108 
379 ,69.1607 ,1.28559 ,-0.11535 ,-1.13182 
380 ,69.3526 ,1.28750 ,-0.15642 ,-1.53476 
381 ,69.5447 ,1.28937 ,-0.14615 ,-1.43402 
382 ,69.7367 ,1.29134 ,-0.15984 ,-1.56834 
383 ,69.9127 ,1.29306 ,-0.18037 ,-1.76981 
384 ,70.1209 ,1.29514 ,-0.17011 ,-1.66907 
385 ,70.2971 ,1.29695 ,-0.19406 ,-1.90412 
386 ,70.4728 ,1.29868 ,-0.19748 ,-1.93770 
387 ,70.6493 ,1.30048 ,-0.20433 ,-2.00485 
388 ,70.8413 ,1.30238 ,-0.22828 ,-2.23990 
389 ,71.0333 ,1.30431 ,-0.22486 ,-2.20632 
390 ,71.2254 ,1.30616 ,-0.24197 ,-2.37422 
391 ,71.4016 ,1.30798 ,-0.23855 ,-2.34064 
392 ,71.5776 ,1.30975 ,-0.25908 ,-2.54211 
393 ,71.7535 ,1.31149 ,-0.26593 ,-2.60926 
394 ,71.9297 ,1.31324 ,-0.27277 ,-2.67642 
395 ,72.1058 ,1.31504 ,-0.28988 ,-2.84431 
396 ,72.2815 ,1.31674 ,-0.29673 ,-2.91147 
397 ,72.4579 ,1.31855 ,-0.31041 ,-3.04578 
398 ,72.6179 ,1.32024 ,-0.33095 ,-3.24725 
399 ,72.7940 ,1.32190 ,-0.33095 ,-3.24725 
400 ,72.9706 ,1.32366 ,-0.33095 ,-3.24725 
401 ,73.1619 ,1.32552 ,-0.34464 ,-3.38156 
402 ,73.3384 ,1.32735 ,-0.36859 ,-3.61661 
403 ,73.5143 ,1.32916 ,-0.36175 ,-3.54946 
404 ,73.6904 ,1.33087 ,-0.36517 ,-3.58303 
405 ,73.8665 ,1.33261 ,-0.37201 ,-3.65019 
406 ,74.0587 ,1.33455 ,-0.38912 ,-3.81808 
407 ,74.2508 ,1.33640 ,-0.39255 ,-3.85166 
408 ,74.4268 ,1.33826 ,-0.39597 ,-3.88524 
409 ,74.6348 ,1.34022 ,-0.42335 ,-4.15387 
410 ,74.8269 ,1.34213 ,-0.41650 ,-4.08671 
411 ,75.0030 ,1.34404 ,-0.42677 ,-4.18744 
412 ,75.1951 ,1.34592 ,-0.44730 ,-4.38891 
413 ,75.3872 ,1.34776 ,-0.44388 ,-4.35534 
414 ,75.5631 ,1.34958 ,-0.44730 ,-4.38891 
415 ,75.7549 ,1.35140 ,-0.48152 ,-4.72470 
416 ,75.9474 ,1.35338 ,-0.47126 ,-4.62396 
417 ,76.1553 ,1.35548 ,-0.49179 ,-4.82543 
418 ,76.3475 ,1.35729 ,-0.50206 ,-4.92617 
419 ,76.5553 ,1.35948 ,-0.50890 ,-4.99332 
420 ,76.7316 ,1.36124 ,-0.50548 ,-4.95975 
421 ,76.9076 ,1.36302 ,-0.52259 ,-5.12764 
422 ,77.1158 ,1.36504 ,-0.52601 ,-5.16121 
423 ,77.2915 ,1.36687 ,-0.53970 ,-5.29553 
424 ,77.4685 ,1.36865 ,-0.54654 ,-5.36268 
425 ,77.6439 ,1.37038 ,-0.54312 ,-5.32911 
426 ,77.8202 ,1.37216 ,-0.57734 ,-5.66489 
427 ,78.0282 ,1.37407 ,-0.58419 ,-5.73205 
428 ,78.2203 ,1.37602 ,-0.57734 ,-5.66489 
429 ,78.4123 ,1.37802 ,-0.58761 ,-5.76562 
430 ,78.5885 ,1.37982 ,-0.59788 ,-5.86636 
431 ,78.7805 ,1.38173 ,-0.60472 ,-5.93352 
432 ,78.9562 ,1.38348 ,-0.63210 ,-6.20214 
433 ,79.1325 ,1.38526 ,-0.62183 ,-6.10141 
434 ,79.3088 ,1.38705 ,-0.62183 ,-6.10141 
435 ,79.5007 ,1.38892 ,-0.63210 ,-6.20214 
436 ,79.6769 ,1.39070 ,-0.65263 ,-6.40361 
437 ,79.8688 ,1.39253 ,-0.65947 ,-6.47077 
438 ,80.0286 ,1.39434 ,-0.65947 ,-6.47077 
439 ,80.2051 ,1.39600 ,-0.66632 ,-6.53793 
440 ,80.3810 ,1.39778 ,-0.68343 ,-6.70582 
441 ,80.5732 ,1.39965 ,-0.69370 ,-6.80655 
442 ,80.7493 ,1.40143 ,-0.68001 ,-6.67224 
443 ,80.9572 ,1.40335 ,-0.71423 ,-7.00802 
444 ,81.1492 ,1.40540 ,-0.71081 ,-6.97444 
445 ,81.3254 ,1.40728 ,-0.74503 ,-7.31023 
446 ,81.5016 ,1.40893 ,-0.72792 ,-7.14233 
447 ,81.6777 ,1.41072 ,-0.75530 ,-7.41096 
448 ,81.8536 ,1.41247 ,-0.76214 ,-7.47812 
449 ,82.0620 ,1.41444 ,-0.75872 ,-7.44454 
450 ,82.2379 ,1.41631 ,-0.75872 ,-7.44454 
451 ,82.4459 ,1.41830 ,-0.78610 ,-7.71317 
452 ,82.6221 ,1.42017 ,-0.77241 ,-7.57885 
453 ,82.8302 ,1.42212 ,-0.80321 ,-7.88106 
454 ,83.0061 ,1.42399 ,-0.79294 ,-7.78032 
455 ,83.1979 ,1.42593 ,-0.82032 ,-8.04895 
456 ,83.3744 ,1.42766 ,-0.82374 ,-8.08253 
457 ,83.5505 ,1.42944 ,-0.82032 ,-8.04895 
458 ,83.7426 ,1.43129 ,-0.83743 ,-8.21684 
459 ,83.9346 ,1.43319 ,-0.84427 ,-8.28400 
460 ,84.1268 ,1.43514 ,-0.84085 ,-8.25042 
461 ,84.3028 ,1.43693 ,-0.85796 ,-8.41831 
462 ,84.4787 ,1.43870 ,-0.87849 ,-8.61978 
463 ,84.6550 ,1.44047 ,-0.88534 ,-8.68694 
