Data stamp = , 02-04-2022 17:18:32 521

Calibration Values: 
Slope = , 26.54 , g/V 
Offset Voltage at no contact = , -0.501760 , V 

No , Time , Stage Position ,   Mass , Force 
   ,  (s) ,      (mm)      ,   (g)  , (mN)  

1 ,0.0000 ,0.59941 ,5.37723 ,52.76135 
2 ,0.2143 ,0.59946 ,5.37723 ,52.76135 
3 ,0.5508 ,0.60040 ,5.37723 ,52.76135 
4 ,0.7427 ,0.60191 ,5.39092 ,52.89567 
5 ,0.9188 ,0.60340 ,5.39092 ,52.89567 
6 ,1.0946 ,0.60508 ,5.38407 ,52.82851 
7 ,1.2865 ,0.60696 ,5.41145 ,53.09714 
8 ,1.4629 ,0.60872 ,5.39434 ,52.92925 
9 ,1.6390 ,0.61056 ,5.36354 ,52.62704 
10 ,1.8150 ,0.61230 ,5.35669 ,52.55988 
11 ,2.0072 ,0.61423 ,5.34643 ,52.45915 
12 ,2.1991 ,0.61615 ,5.32589 ,52.25768 
13 ,2.3753 ,0.61795 ,5.31905 ,52.19052 
14 ,2.5673 ,0.61977 ,5.31221 ,52.12337 
15 ,2.7596 ,0.62181 ,5.27456 ,51.75401 
16 ,2.9517 ,0.62364 ,5.28141 ,51.82116 
17 ,3.1436 ,0.62563 ,5.26087 ,51.61969 
18 ,3.3197 ,0.62739 ,5.23692 ,51.38464 
19 ,3.4955 ,0.62907 ,5.22323 ,51.25033 
20 ,3.6719 ,0.63083 ,5.21981 ,51.21675 
21 ,3.8639 ,0.63280 ,5.19927 ,51.01528 
22 ,4.0399 ,0.63456 ,5.17532 ,50.78023 
23 ,4.2161 ,0.63631 ,5.15821 ,50.61234 
24 ,4.3921 ,0.63806 ,5.15821 ,50.61234 
25 ,4.5523 ,0.63977 ,5.14452 ,50.47803 
26 ,4.7283 ,0.64147 ,5.12741 ,50.31014 
27 ,4.9040 ,0.64325 ,5.10003 ,50.04151 
28 ,5.0803 ,0.64497 ,5.07608 ,49.80646 
29 ,5.2723 ,0.64688 ,5.07265 ,49.77289 
30 ,5.4646 ,0.64877 ,5.06239 ,49.67215 
31 ,5.6245 ,0.65052 ,5.03159 ,49.36995 
32 ,5.8004 ,0.65215 ,5.01790 ,49.23563 
33 ,5.9768 ,0.65389 ,4.98368 ,48.89985 
34 ,6.1688 ,0.65584 ,4.99737 ,49.03416 
35 ,6.3451 ,0.65759 ,4.94946 ,48.56407 
36 ,6.5370 ,0.65951 ,4.92892 ,48.36260 
37 ,6.7129 ,0.66125 ,4.93577 ,48.42975 
38 ,6.8892 ,0.66301 ,4.90497 ,48.12755 
39 ,7.0653 ,0.66478 ,4.88444 ,47.92608 
40 ,7.2413 ,0.66657 ,4.86732 ,47.75819 
41 ,7.4169 ,0.66833 ,4.84679 ,47.55672 
42 ,7.5933 ,0.67007 ,4.83995 ,47.48956 
43 ,7.7696 ,0.67186 ,4.80573 ,47.15378 
44 ,7.9615 ,0.67374 ,4.78177 ,46.91873 
45 ,8.1378 ,0.67555 ,4.76466 ,46.75084 
46 ,8.3135 ,0.67727 ,4.76466 ,46.75084 
47 ,8.5055 ,0.67915 ,4.73728 ,46.48221 
48 ,8.6820 ,0.68097 ,4.72017 ,46.31432 
49 ,8.8741 ,0.68282 ,4.70306 ,46.14643 
50 ,9.0659 ,0.68480 ,4.67911 ,45.91138 
51 ,9.2421 ,0.68657 ,4.66199 ,45.74349 
52 ,9.4181 ,0.68832 ,4.63804 ,45.50844 
53 ,9.5942 ,0.69009 ,4.63462 ,45.47486 
54 ,9.7702 ,0.69187 ,4.63119 ,45.44128 
55 ,9.9625 ,0.69371 ,4.59355 ,45.07192 
56 ,10.1545 ,0.69568 ,4.58328 ,44.97119 
57 ,10.3306 ,0.69748 ,4.56275 ,44.76972 
58 ,10.5067 ,0.69922 ,4.55591 ,44.70256 
59 ,10.6984 ,0.70110 ,4.51142 ,44.26604 
60 ,10.8748 ,0.70291 ,4.50800 ,44.23247 
61 ,11.0508 ,0.70460 ,4.48746 ,44.03100 
62 ,11.2590 ,0.70670 ,4.46693 ,43.82953 
63 ,11.4508 ,0.70861 ,4.43955 ,43.56090 
64 ,11.6270 ,0.71038 ,4.41902 ,43.35943 
65 ,11.8031 ,0.71212 ,4.41218 ,43.29227 
66 ,11.9629 ,0.71385 ,4.40533 ,43.22512 
67 ,12.1393 ,0.71554 ,4.37111 ,42.88933 
68 ,12.3154 ,0.71729 ,4.36427 ,42.82218 
69 ,12.4915 ,0.71904 ,4.35400 ,42.72144 
70 ,12.6675 ,0.72075 ,4.33689 ,42.55355 
71 ,12.8434 ,0.72251 ,4.30609 ,42.25135 
72 ,13.0192 ,0.72430 ,4.29582 ,42.15061 
73 ,13.1953 ,0.72610 ,4.27871 ,41.98272 
74 ,13.3714 ,0.72785 ,4.27187 ,41.91556 
75 ,13.5476 ,0.72962 ,4.24449 ,41.64694 
76 ,13.7718 ,0.73168 ,4.21711 ,41.37831 
77 ,13.9480 ,0.73363 ,4.21027 ,41.31115 
78 ,14.1401 ,0.73550 ,4.18974 ,41.10968 
79 ,14.3482 ,0.73751 ,4.16578 ,40.87464 
80 ,14.5401 ,0.73946 ,4.14183 ,40.63959 
81 ,14.7162 ,0.74127 ,4.13156 ,40.53885 
82 ,14.8924 ,0.74297 ,4.12129 ,40.43812 
83 ,15.0681 ,0.74481 ,4.09391 ,40.16949 
84 ,15.2446 ,0.74656 ,4.06654 ,39.90087 
85 ,15.4206 ,0.74832 ,4.04600 ,39.69940 
86 ,15.6127 ,0.75015 ,4.03916 ,39.63224 
87 ,15.7886 ,0.75200 ,4.01178 ,39.36361 
88 ,15.9649 ,0.75378 ,3.99467 ,39.19572 
89 ,16.1408 ,0.75552 ,3.98441 ,39.09499 
90 ,16.3169 ,0.75726 ,3.96045 ,38.85994 
91 ,16.4926 ,0.75904 ,3.95703 ,38.82636 
92 ,16.6691 ,0.76076 ,3.92965 ,38.55773 
93 ,16.8933 ,0.76281 ,3.91254 ,38.38984 
94 ,17.0692 ,0.76481 ,3.90912 ,38.35626 
95 ,17.2775 ,0.76679 ,3.88174 ,38.08764 
96 ,17.4694 ,0.76879 ,3.85094 ,37.78543 
97 ,17.6454 ,0.77057 ,3.83383 ,37.61754 
98 ,17.8212 ,0.77232 ,3.81672 ,37.44965 
99 ,17.9976 ,0.77408 ,3.80987 ,37.38249 
100 ,18.1576 ,0.77581 ,3.79619 ,37.24818 
101 ,18.3498 ,0.77753 ,3.76196 ,36.91240 
102 ,18.5259 ,0.77940 ,3.74828 ,36.77808 
103 ,18.7180 ,0.78128 ,3.74485 ,36.74450 
104 ,18.8941 ,0.78310 ,3.72774 ,36.57661 
105 ,19.0701 ,0.78482 ,3.71063 ,36.40872 
106 ,19.2617 ,0.78669 ,3.67299 ,36.03936 
107 ,19.4383 ,0.78846 ,3.66957 ,36.00578 
108 ,19.6299 ,0.79039 ,3.65246 ,35.83789 
109 ,19.8064 ,0.79212 ,3.62850 ,35.60284 
110 ,19.9984 ,0.79408 ,3.62508 ,35.56926 
111 ,20.1743 ,0.79581 ,3.62850 ,35.60284 
112 ,20.3826 ,0.79788 ,3.59086 ,35.23348 
113 ,20.5745 ,0.79979 ,3.57375 ,35.06559 
114 ,20.7508 ,0.80160 ,3.56006 ,34.93128 
115 ,20.9269 ,0.80340 ,3.54295 ,34.76338 
116 ,21.1186 ,0.80529 ,3.53268 ,34.66265 
117 ,21.2949 ,0.80699 ,3.51899 ,34.52834 
118 ,21.4710 ,0.80877 ,3.49504 ,34.29329 
119 ,21.6633 ,0.81072 ,3.45397 ,33.89035 
120 ,21.8552 ,0.81262 ,3.47450 ,34.09182 
121 ,22.0474 ,0.81444 ,3.45055 ,33.85677 
122 ,22.2394 ,0.81648 ,3.43344 ,33.68888 
123 ,22.4152 ,0.81826 ,3.41975 ,33.55457 
124 ,22.6075 ,0.82005 ,3.39921 ,33.35310 
125 ,22.7996 ,0.82209 ,3.38553 ,33.21878 
126 ,22.9756 ,0.82383 ,3.37184 ,33.08447 
127 ,23.1519 ,0.82562 ,3.35130 ,32.88300 
128 ,23.3438 ,0.82756 ,3.32735 ,32.64795 
129 ,23.5197 ,0.82926 ,3.31366 ,32.51364 
130 ,23.6959 ,0.83101 ,3.30339 ,32.41290 
131 ,23.8720 ,0.83279 ,3.29997 ,32.37933 
132 ,24.0483 ,0.83455 ,3.26233 ,32.00996 
133 ,24.2242 ,0.83637 ,3.24180 ,31.80849 
134 ,24.4163 ,0.83823 ,3.26233 ,32.00996 
135 ,24.5919 ,0.83997 ,3.23495 ,31.74134 
136 ,24.7684 ,0.84175 ,3.20415 ,31.43913 
137 ,24.9444 ,0.84353 ,3.19046 ,31.30482 
138 ,25.1366 ,0.84541 ,3.19046 ,31.30482 
139 ,25.3285 ,0.84726 ,3.15624 ,30.96904 
140 ,25.5046 ,0.84916 ,3.13571 ,30.76757 
141 ,25.6807 ,0.85088 ,3.13571 ,30.76757 
142 ,25.8564 ,0.85261 ,3.11518 ,30.56610 
143 ,26.0329 ,0.85439 ,3.10833 ,30.49894 
144 ,26.2089 ,0.85615 ,3.08780 ,30.29747 
145 ,26.3851 ,0.85792 ,3.05358 ,29.96169 
146 ,26.5770 ,0.85977 ,3.04331 ,29.86095 
147 ,26.7533 ,0.86159 ,3.03989 ,29.82737 
148 ,26.9453 ,0.86351 ,3.01251 ,29.55875 
149 ,27.1211 ,0.86528 ,3.01251 ,29.55875 
150 ,27.2971 ,0.86701 ,2.99540 ,29.39086 
151 ,27.4731 ,0.86889 ,2.95776 ,29.02150 
152 ,27.6331 ,0.87048 ,2.96460 ,29.08865 
153 ,27.8256 ,0.87220 ,2.94407 ,28.88718 
154 ,28.0336 ,0.87430 ,2.93722 ,28.82003 
155 ,28.2096 ,0.87615 ,2.90642 ,28.51782 
156 ,28.4018 ,0.87808 ,2.89616 ,28.41709 
157 ,28.6098 ,0.88010 ,2.87905 ,28.24919 
158 ,28.7860 ,0.88194 ,2.85851 ,28.04772 
159 ,28.9779 ,0.88386 ,2.86193 ,28.08130 
160 ,29.1542 ,0.88557 ,2.84825 ,27.94699 
161 ,29.3463 ,0.88751 ,2.80034 ,27.47689 
162 ,29.5220 ,0.88928 ,2.80034 ,27.47689 
163 ,29.6983 ,0.89105 ,2.79349 ,27.40974 
164 ,29.8744 ,0.89277 ,2.77980 ,27.27542 
165 ,30.0665 ,0.89469 ,2.75585 ,27.04038 
166 ,30.2585 ,0.89664 ,2.75585 ,27.04038 
167 ,30.4346 ,0.89842 ,2.73531 ,26.83891 
168 ,30.6107 ,0.90019 ,2.72505 ,26.73817 
169 ,30.7868 ,0.90189 ,2.69767 ,26.46954 
170 ,30.9629 ,0.90368 ,2.69425 ,26.43597 
171 ,31.1548 ,0.90558 ,2.67372 ,26.23450 
172 ,31.3312 ,0.90737 ,2.64976 ,25.99945 
173 ,31.5389 ,0.90940 ,2.64976 ,25.99945 
174 ,31.7151 ,0.91119 ,2.63607 ,25.86514 
175 ,31.8910 ,0.91295 ,2.61212 ,25.63009 
176 ,32.0674 ,0.91472 ,2.57789 ,25.29430 
177 ,32.2593 ,0.91657 ,2.57447 ,25.26073 
178 ,32.4353 ,0.91836 ,2.57789 ,25.29430 
179 ,32.6115 ,0.92016 ,2.54367 ,24.95852 
180 ,32.7875 ,0.92193 ,2.51972 ,24.72347 
181 ,32.9633 ,0.92367 ,2.50945 ,24.62274 
182 ,33.1397 ,0.92542 ,2.51287 ,24.65632 
183 ,33.3158 ,0.92720 ,2.50261 ,24.55558 
184 ,33.4919 ,0.92896 ,2.47523 ,24.28696 
185 ,33.6680 ,0.93075 ,2.45812 ,24.11906 
186 ,33.8599 ,0.93266 ,2.45470 ,24.08549 
187 ,34.0357 ,0.93442 ,2.43759 ,23.91759 
188 ,34.2279 ,0.93623 ,2.42390 ,23.78328 
189 ,34.4041 ,0.93808 ,2.39652 ,23.51465 
190 ,34.5803 ,0.93983 ,2.40679 ,23.61539 
191 ,34.7404 ,0.94154 ,2.38968 ,23.44750 
192 ,34.9165 ,0.94318 ,2.37599 ,23.31318 
193 ,35.1242 ,0.94521 ,2.34177 ,22.97740 
194 ,35.3005 ,0.94702 ,2.33492 ,22.91024 
195 ,35.4764 ,0.94878 ,2.31781 ,22.74235 
196 ,35.6687 ,0.95066 ,2.29385 ,22.50731 
197 ,35.8449 ,0.95250 ,2.29043 ,22.47373 
198 ,36.0208 ,0.95425 ,2.27674 ,22.33941 
199 ,36.1969 ,0.95595 ,2.27332 ,22.30584 
200 ,36.3731 ,0.95780 ,2.24937 ,22.07079 
201 ,36.5492 ,0.95957 ,2.22199 ,21.80216 
202 ,36.7252 ,0.96132 ,2.21172 ,21.70143 
203 ,36.9012 ,0.96307 ,2.20830 ,21.66785 
204 ,37.0774 ,0.96480 ,2.18777 ,21.46638 
205 ,37.2372 ,0.96653 ,2.17750 ,21.36564 
206 ,37.4135 ,0.96812 ,2.15355 ,21.13059 
207 ,37.6056 ,0.96997 ,2.13644 ,20.96270 
208 ,37.7976 ,0.97199 ,2.13644 ,20.96270 
209 ,37.9737 ,0.97376 ,2.10906 ,20.69408 
210 ,38.1817 ,0.97569 ,2.10906 ,20.69408 
211 ,38.3578 ,0.97766 ,2.09537 ,20.55976 
212 ,38.5498 ,0.97946 ,2.05773 ,20.19040 
213 ,38.7260 ,0.98126 ,2.05088 ,20.12325 
214 ,38.9021 ,0.98302 ,2.06457 ,20.25756 
215 ,39.0782 ,0.98478 ,2.03035 ,19.92178 
216 ,39.2701 ,0.98669 ,2.02008 ,19.82104 
217 ,39.4622 ,0.98863 ,2.01324 ,19.75388 
218 ,39.6382 ,0.99042 ,1.98586 ,19.48526 
219 ,39.8302 ,0.99233 ,1.95848 ,19.21663 
220 ,39.9901 ,0.99404 ,1.94822 ,19.11590 
221 ,40.1662 ,0.99567 ,1.93453 ,18.98158 
222 ,40.3422 ,0.99741 ,1.92768 ,18.91443 
223 ,40.5022 ,0.99917 ,1.92768 ,18.91443 
224 ,40.6623 ,1.00076 ,1.90715 ,18.71296 
225 ,40.8384 ,1.00243 ,1.89346 ,18.57864 
226 ,41.0469 ,1.00437 ,1.86608 ,18.31002 
227 ,41.2389 ,1.00644 ,1.85582 ,18.20928 
228 ,41.4147 ,1.00815 ,1.85240 ,18.17570 
229 ,41.5913 ,1.00994 ,1.82502 ,17.90708 
230 ,41.7833 ,1.01185 ,1.80449 ,17.70561 
231 ,41.9753 ,1.01367 ,1.80791 ,17.73919 
232 ,42.1515 ,1.01563 ,1.76684 ,17.33625 
233 ,42.3274 ,1.01730 ,1.77369 ,17.40340 
234 ,42.5032 ,1.01902 ,1.75657 ,17.23551 
235 ,42.6796 ,1.02083 ,1.75657 ,17.23551 
236 ,42.8716 ,1.02272 ,1.72578 ,16.93331 
237 ,43.0479 ,1.02450 ,1.70182 ,16.69826 
238 ,43.2398 ,1.02640 ,1.71551 ,16.83257 
239 ,43.4160 ,1.02819 ,1.69498 ,16.63110 
240 ,43.5917 ,1.02992 ,1.67444 ,16.42963 
241 ,43.7681 ,1.03172 ,1.65391 ,16.22816 
242 ,43.9602 ,1.03361 ,1.66075 ,16.29532 
243 ,44.1361 ,1.03539 ,1.65049 ,16.19458 
244 ,44.3123 ,1.03709 ,1.61969 ,15.89238 
245 ,44.4884 ,1.03884 ,1.60600 ,15.75807 
246 ,44.6804 ,1.04083 ,1.59573 ,15.65733 
247 ,44.8563 ,1.04252 ,1.58889 ,15.59018 
248 ,45.0322 ,1.04430 ,1.56493 ,15.35513 
249 ,45.2083 ,1.04603 ,1.54782 ,15.18724 
250 ,45.3683 ,1.04779 ,1.53071 ,15.01934 
251 ,45.5284 ,1.04938 ,1.53071 ,15.01934 
252 ,45.7044 ,1.05101 ,1.51360 ,14.85145 
253 ,45.8646 ,1.05275 ,1.51360 ,14.85145 
254 ,46.0407 ,1.05437 ,1.50676 ,14.78430 
255 ,46.2168 ,1.05616 ,1.49307 ,14.64998 
256 ,46.3768 ,1.05788 ,1.45885 ,14.31420 
257 ,46.5369 ,1.05947 ,1.44516 ,14.17989 
258 ,46.6969 ,1.06107 ,1.44858 ,14.21346 
259 ,46.8730 ,1.06272 ,1.42805 ,14.01199 
260 ,47.0491 ,1.06447 ,1.41778 ,13.91126 
261 ,47.2252 ,1.06623 ,1.40409 ,13.77695 
262 ,47.4012 ,1.06800 ,1.41094 ,13.84410 
263 ,47.5613 ,1.06971 ,1.39383 ,13.67621 
264 ,47.7214 ,1.07132 ,1.37329 ,13.47474 
265 ,47.8814 ,1.07291 ,1.37671 ,13.50832 
266 ,48.0415 ,1.07452 ,1.34934 ,13.23969 
267 ,48.2176 ,1.07608 ,1.33907 ,13.13896 
268 ,48.3937 ,1.07791 ,1.31854 ,12.93749 
269 ,48.5538 ,1.07963 ,1.31169 ,12.87033 
270 ,48.7297 ,1.08129 ,1.29116 ,12.66886 
271 ,48.9059 ,1.08302 ,1.27405 ,12.50097 
272 ,49.0819 ,1.08479 ,1.27405 ,12.50097 
273 ,49.2585 ,1.08656 ,1.27063 ,12.46739 
274 ,49.4508 ,1.08853 ,1.22956 ,12.06445 
275 ,49.6266 ,1.09025 ,1.20903 ,11.86298 
276 ,49.8182 ,1.09219 ,1.22956 ,12.06445 
277 ,49.9947 ,1.09391 ,1.20218 ,11.79583 
278 ,50.1707 ,1.09564 ,1.16454 ,11.42647 
279 ,50.3628 ,1.09758 ,1.17481 ,11.52720 
280 ,50.5387 ,1.09932 ,1.17481 ,11.52720 
281 ,50.7309 ,1.10124 ,1.15427 ,11.32573 
282 ,50.9072 ,1.10306 ,1.12690 ,11.05710 
283 ,51.0993 ,1.10491 ,1.13032 ,11.09068 
284 ,51.2753 ,1.10672 ,1.10294 ,10.82206 
285 ,51.4673 ,1.10866 ,1.07899 ,10.58701 
286 ,51.6435 ,1.11042 ,1.07556 ,10.55343 
287 ,51.8356 ,1.11236 ,1.06872 ,10.48627 
288 ,52.0113 ,1.11408 ,1.05503 ,10.35196 
289 ,52.2036 ,1.11593 ,1.04819 ,10.28480 
290 ,52.3796 ,1.11779 ,1.02423 ,10.04976 
291 ,52.5719 ,1.11967 ,1.00712 ,9.88186 
292 ,52.7478 ,1.12147 ,1.00028 ,9.81471 
293 ,52.9395 ,1.12332 ,0.99685 ,9.78113 
294 ,53.0997 ,1.12506 ,0.97632 ,9.57966 
295 ,53.2762 ,1.12672 ,0.96263 ,9.44535 
296 ,53.4843 ,1.12876 ,0.94894 ,9.31103 
297 ,53.6762 ,1.13068 ,0.94210 ,9.24388 
298 ,53.8525 ,1.13252 ,0.91472 ,8.97525 
299 ,54.0445 ,1.13442 ,0.90446 ,8.87451 
300 ,54.2363 ,1.13628 ,0.88734 ,8.70662 
301 ,54.4286 ,1.13818 ,0.87023 ,8.53873 
302 ,54.6047 ,1.14001 ,0.85654 ,8.40442 
303 ,54.7807 ,1.14178 ,0.85654 ,8.40442 
304 ,54.9565 ,1.14351 ,0.85654 ,8.40442 
305 ,55.1328 ,1.14526 ,0.82232 ,8.06864 
306 ,55.3088 ,1.14705 ,0.79495 ,7.80001 
307 ,55.4848 ,1.14885 ,0.79495 ,7.80001 
308 ,55.6610 ,1.15058 ,0.78126 ,7.66570 
309 ,55.8530 ,1.15240 ,0.77099 ,7.56496 
310 ,56.0611 ,1.15447 ,0.76415 ,7.49780 
311 ,56.2530 ,1.15645 ,0.73335 ,7.19560 
312 ,56.4292 ,1.15825 ,0.71966 ,7.06129 
313 ,56.6053 ,1.16004 ,0.70255 ,6.89340 
314 ,56.7814 ,1.16182 ,0.70939 ,6.96055 
315 ,56.9734 ,1.16363 ,0.69228 ,6.79266 
316 ,57.1495 ,1.16542 ,0.67175 ,6.59119 
317 ,57.3254 ,1.16721 ,0.65121 ,6.38972 
318 ,57.5017 ,1.16895 ,0.65464 ,6.42330 
319 ,57.6778 ,1.17072 ,0.64437 ,6.32256 
320 ,57.8541 ,1.17246 ,0.62726 ,6.15467 
321 ,58.0301 ,1.17429 ,0.60330 ,5.91962 
322 ,58.2221 ,1.17609 ,0.61015 ,5.98678 
323 ,58.3818 ,1.17788 ,0.59988 ,5.88605 
324 ,58.5579 ,1.17954 ,0.58962 ,5.78531 
325 ,58.7344 ,1.18128 ,0.55539 ,5.44953 
326 ,58.9262 ,1.18313 ,0.54513 ,5.34879 
327 ,59.1186 ,1.18511 ,0.53144 ,5.21448 
328 ,59.2945 ,1.18692 ,0.53486 ,5.24806 
329 ,59.4702 ,1.18861 ,0.49722 ,4.87870 
330 ,59.6468 ,1.19040 ,0.48695 ,4.77796 
331 ,59.8547 ,1.19247 ,0.49037 ,4.81154 
332 ,60.0309 ,1.19426 ,0.45615 ,4.47576 
333 ,60.2069 ,1.19600 ,0.44588 ,4.37502 
334 ,60.3990 ,1.19792 ,0.46300 ,4.54291 
335 ,60.5591 ,1.19963 ,0.44588 ,4.37502 
336 ,60.7351 ,1.20132 ,0.43220 ,4.24071 
337 ,60.9113 ,1.20307 ,0.41166 ,4.03924 
338 ,61.1033 ,1.20495 ,0.39113 ,3.83777 
339 ,61.2953 ,1.20691 ,0.39455 ,3.87135 
340 ,61.4715 ,1.20865 ,0.37060 ,3.63630 
341 ,61.6473 ,1.21044 ,0.35349 ,3.46841 
342 ,61.8397 ,1.21235 ,0.34664 ,3.40125 
343 ,62.0155 ,1.21414 ,0.34322 ,3.36767 
344 ,62.2077 ,1.21600 ,0.31242 ,3.06547 
345 ,62.3834 ,1.21776 ,0.31584 ,3.09905 
346 ,62.5598 ,1.21952 ,0.30215 ,2.96473 
347 ,62.7360 ,1.22129 ,0.29531 ,2.89758 
348 ,62.9280 ,1.22322 ,0.27135 ,2.66253 
349 ,63.1039 ,1.22492 ,0.26793 ,2.62895 
350 ,63.2802 ,1.22668 ,0.25424 ,2.49464 
351 ,63.4723 ,1.22866 ,0.23713 ,2.32675 
352 ,63.6480 ,1.23044 ,0.22687 ,2.22601 
353 ,63.8244 ,1.23216 ,0.22687 ,2.22601 
354 ,64.0164 ,1.23404 ,0.22002 ,2.15885 
355 ,64.1926 ,1.23582 ,0.19949 ,1.95738 
356 ,64.3846 ,1.23773 ,0.17896 ,1.75592 
357 ,64.5608 ,1.23952 ,0.17553 ,1.72234 
358 ,64.7363 ,1.24133 ,0.16527 ,1.62160 
359 ,64.9125 ,1.24302 ,0.15842 ,1.55445 
360 ,65.1046 ,1.24490 ,0.13789 ,1.35298 
361 ,65.2969 ,1.24685 ,0.13789 ,1.35298 
362 ,65.4729 ,1.24863 ,0.11736 ,1.15151 
363 ,65.6491 ,1.25041 ,0.10709 ,1.05077 
364 ,65.8410 ,1.25230 ,0.10025 ,0.98361 
365 ,66.0171 ,1.25405 ,0.08314 ,0.81572 
366 ,66.1932 ,1.25584 ,0.07971 ,0.78214 
367 ,66.3693 ,1.25758 ,0.04891 ,0.47994 
368 ,66.5453 ,1.25937 ,0.04207 ,0.41278 
369 ,66.7374 ,1.26128 ,0.04549 ,0.44636 
370 ,66.8975 ,1.26300 ,0.03865 ,0.37920 
371 ,67.0576 ,1.26459 ,0.03180 ,0.31205 
372 ,67.2337 ,1.26627 ,0.02154 ,0.21131 
373 ,67.4096 ,1.26806 ,0.01127 ,0.11058 
374 ,67.6017 ,1.26997 ,-0.00926 ,-0.09089 
375 ,67.7777 ,1.27169 ,-0.01611 ,-0.15805 
376 ,67.9698 ,1.27358 ,-0.03664 ,-0.35952 
377 ,68.1460 ,1.27539 ,-0.03322 ,-0.32594 
378 ,68.3381 ,1.27715 ,-0.05717 ,-0.56099 
379 ,68.5140 ,1.27905 ,-0.04691 ,-0.46025 
380 ,68.6903 ,1.28084 ,-0.06744 ,-0.66172 
381 ,68.8662 ,1.28259 ,-0.08797 ,-0.86319 
382 ,69.0423 ,1.28434 ,-0.10166 ,-0.99751 
383 ,69.2023 ,1.28603 ,-0.08797 ,-0.86319 
384 ,69.3782 ,1.28768 ,-0.12219 ,-1.19898 
385 ,69.5706 ,1.28965 ,-0.11535 ,-1.13182 
386 ,69.7625 ,1.29153 ,-0.13588 ,-1.33329 
387 ,69.9386 ,1.29325 ,-0.12562 ,-1.23255 
388 ,70.1146 ,1.29505 ,-0.13931 ,-1.36687 
389 ,70.3229 ,1.29708 ,-0.15984 ,-1.56834 
390 ,70.5149 ,1.29900 ,-0.15642 ,-1.53476 
391 ,70.6910 ,1.30084 ,-0.17353 ,-1.70265 
392 ,70.8670 ,1.30257 ,-0.20433 ,-2.00485 
393 ,71.0589 ,1.30443 ,-0.19748 ,-1.93770 
394 ,71.2512 ,1.30632 ,-0.20090 ,-1.97128 
395 ,71.4272 ,1.30817 ,-0.22828 ,-2.23990 
396 ,71.6034 ,1.30992 ,-0.23170 ,-2.27348 
397 ,71.7794 ,1.31165 ,-0.23855 ,-2.34064 
398 ,71.9555 ,1.31345 ,-0.23170 ,-2.27348 
399 ,72.1312 ,1.31515 ,-0.25566 ,-2.50853 
400 ,72.3077 ,1.31697 ,-0.27619 ,-2.71000 
401 ,72.4838 ,1.31872 ,-0.29673 ,-2.91147 
402 ,72.6759 ,1.32068 ,-0.27961 ,-2.74358 
403 ,72.8520 ,1.32240 ,-0.29330 ,-2.87789 
404 ,73.0280 ,1.32418 ,-0.31726 ,-3.11294 
405 ,73.1875 ,1.32585 ,-0.33095 ,-3.24725 
406 ,73.3642 ,1.32751 ,-0.32752 ,-3.21367 
407 ,73.5396 ,1.32929 ,-0.32410 ,-3.18010 
408 ,73.7158 ,1.33107 ,-0.33095 ,-3.24725 
409 ,73.8918 ,1.33279 ,-0.34464 ,-3.38156 
410 ,74.0841 ,1.33467 ,-0.34464 ,-3.38156 
411 ,74.3084 ,1.33687 ,-0.36175 ,-3.54946 
412 ,74.5005 ,1.33885 ,-0.38570 ,-3.78450 
413 ,74.6766 ,1.34067 ,-0.38228 ,-3.75093 
414 ,74.8686 ,1.34251 ,-0.41650 ,-4.08671 
415 ,75.0445 ,1.34430 ,-0.40966 ,-4.01955 
416 ,75.2367 ,1.34623 ,-0.40966 ,-4.01955 
417 ,75.4130 ,1.34802 ,-0.41650 ,-4.08671 
418 ,75.6211 ,1.34993 ,-0.43703 ,-4.28818 
419 ,75.8131 ,1.35188 ,-0.44046 ,-4.32176 
420 ,76.0051 ,1.35392 ,-0.47126 ,-4.62396 
421 ,76.1812 ,1.35566 ,-0.46783 ,-4.59038 
422 ,76.3729 ,1.35754 ,-0.47810 ,-4.69112 
423 ,76.5493 ,1.35938 ,-0.48837 ,-4.79185 
424 ,76.7576 ,1.36131 ,-0.48837 ,-4.79185 
425 ,76.9334 ,1.36322 ,-0.49521 ,-4.85901 
426 ,77.1094 ,1.36493 ,-0.50890 ,-4.99332 
427 ,77.3017 ,1.36690 ,-0.51574 ,-5.06048 
428 ,77.4777 ,1.36866 ,-0.51574 ,-5.06048 
429 ,77.6539 ,1.37039 ,-0.53970 ,-5.29553 
430 ,77.8457 ,1.37230 ,-0.54312 ,-5.32911 
431 ,78.0216 ,1.37408 ,-0.56023 ,-5.49700 
432 ,78.1979 ,1.37586 ,-0.54312 ,-5.32911 
433 ,78.3741 ,1.37762 ,-0.56365 ,-5.53058 
434 ,78.5660 ,1.37950 ,-0.59788 ,-5.86636 
435 ,78.7422 ,1.38131 ,-0.57392 ,-5.63131 
436 ,78.9182 ,1.38306 ,-0.58077 ,-5.69847 
437 ,79.0783 ,1.38474 ,-0.58761 ,-5.76562 
438 ,79.2546 ,1.38643 ,-0.60130 ,-5.89994 
439 ,79.4303 ,1.38816 ,-0.60472 ,-5.93352 
440 ,79.6225 ,1.39001 ,-0.62868 ,-6.16856 
441 ,79.8147 ,1.39205 ,-0.61156 ,-6.00067 
442 ,80.0068 ,1.39398 ,-0.64921 ,-6.37003 
443 ,80.1989 ,1.39576 ,-0.64921 ,-6.37003 
444 ,80.3749 ,1.39764 ,-0.64236 ,-6.30288 
445 ,80.5509 ,1.39937 ,-0.66974 ,-6.57150 
446 ,80.7432 ,1.40122 ,-0.65263 ,-6.40361 
447 ,80.9347 ,1.40320 ,-0.67316 ,-6.60508 
448 ,81.1112 ,1.40495 ,-0.68685 ,-6.73940 
449 ,81.3191 ,1.40698 ,-0.69027 ,-6.77297 
450 ,81.5114 ,1.40889 ,-0.70396 ,-6.90729 
451 ,81.7029 ,1.41083 ,-0.70054 ,-6.87371 
452 ,81.8794 ,1.41259 ,-0.72107 ,-7.07518 
453 ,82.0559 ,1.41437 ,-0.72450 ,-7.10876 
454 ,82.2316 ,1.41615 ,-0.74845 ,-7.34380 
455 ,82.4077 ,1.41790 ,-0.75530 ,-7.41096 
456 ,82.5998 ,1.41983 ,-0.75530 ,-7.41096 
457 ,82.7758 ,1.42160 ,-0.76898 ,-7.54527 
458 ,82.9678 ,1.42345 ,-0.78267 ,-7.67959 
459 ,83.1440 ,1.42527 ,-0.77925 ,-7.64601 
460 ,83.3200 ,1.42702 ,-0.77241 ,-7.57885 
461 ,83.4961 ,1.42878 ,-0.79636 ,-7.81390 
462 ,83.6723 ,1.43059 ,-0.81689 ,-8.01537 
463 ,83.8643 ,1.43250 ,-0.82716 ,-8.11611 
