Data stamp = , 01-04-2022 17:47:19 788

Calibration Values: 
Slope = , 26.54 , g/V 
Offset Voltage at no contact = , -0.501760 , V 

No , Time , Stage Position ,   Mass , Force 
   ,  (s) ,      (mm)      ,   (g)  , (mN)  

1 ,0.0000 ,0.64949 ,5.07950 ,49.84004 
2 ,0.2208 ,0.64959 ,5.08634 ,49.90720 
3 ,0.4609 ,0.65017 ,5.07950 ,49.84004 
4 ,0.6690 ,0.65137 ,5.06581 ,49.70573 
5 ,0.8611 ,0.65291 ,5.08292 ,49.87362 
6 ,1.0372 ,0.65460 ,5.08634 ,49.90720 
7 ,1.2134 ,0.65632 ,5.07950 ,49.84004 
8 ,1.3890 ,0.65806 ,5.06581 ,49.70573 
9 ,1.5656 ,0.65989 ,5.07265 ,49.77289 
10 ,1.7577 ,0.66182 ,5.06581 ,49.70573 
11 ,1.9658 ,0.66386 ,5.05897 ,49.63857 
12 ,2.1418 ,0.66567 ,5.04528 ,49.50426 
13 ,2.3339 ,0.66760 ,5.01790 ,49.23563 
14 ,2.5096 ,0.66931 ,5.00421 ,49.10132 
15 ,2.6859 ,0.67107 ,5.00421 ,49.10132 
16 ,2.8620 ,0.67284 ,4.99052 ,48.96701 
17 ,3.0542 ,0.67467 ,4.98710 ,48.93343 
18 ,3.2302 ,0.67654 ,4.95972 ,48.66480 
19 ,3.4064 ,0.67832 ,4.94603 ,48.53049 
20 ,3.5984 ,0.68020 ,4.92892 ,48.36260 
21 ,3.7745 ,0.68195 ,4.91523 ,48.22828 
22 ,3.9504 ,0.68375 ,4.89470 ,48.02681 
23 ,4.1266 ,0.68547 ,4.89812 ,48.06039 
24 ,4.3186 ,0.68733 ,4.88101 ,47.89250 
25 ,4.5106 ,0.68934 ,4.85706 ,47.65745 
26 ,4.6867 ,0.69111 ,4.83995 ,47.48956 
27 ,4.8629 ,0.69283 ,4.83995 ,47.48956 
28 ,5.0390 ,0.69467 ,4.82626 ,47.35525 
29 ,5.2149 ,0.69638 ,4.79546 ,47.05304 
30 ,5.3913 ,0.69815 ,4.77493 ,46.85157 
31 ,5.5828 ,0.70006 ,4.77835 ,46.88515 
32 ,5.7593 ,0.70180 ,4.75097 ,46.61653 
33 ,5.9514 ,0.70366 ,4.73386 ,46.44863 
34 ,6.1435 ,0.70568 ,4.72702 ,46.38148 
35 ,6.3193 ,0.70742 ,4.69279 ,46.04569 
36 ,6.5116 ,0.70923 ,4.67568 ,45.87780 
37 ,6.6871 ,0.71114 ,4.66199 ,45.74349 
38 ,6.8638 ,0.71286 ,4.65173 ,45.64275 
39 ,7.0556 ,0.71470 ,4.61751 ,45.30697 
40 ,7.2640 ,0.71677 ,4.59355 ,45.07192 
41 ,7.4398 ,0.71863 ,4.59013 ,45.03835 
42 ,7.6160 ,0.72040 ,4.55933 ,44.73614 
43 ,7.8079 ,0.72223 ,4.55249 ,44.66898 
44 ,8.0161 ,0.72427 ,4.51826 ,44.33320 
45 ,8.2082 ,0.72621 ,4.51484 ,44.29962 
46 ,8.3843 ,0.72803 ,4.50115 ,44.16531 
47 ,8.5763 ,0.72997 ,4.47378 ,43.89668 
48 ,8.7681 ,0.73188 ,4.44982 ,43.66163 
49 ,8.9445 ,0.73366 ,4.43955 ,43.56090 
50 ,9.1526 ,0.73570 ,4.41218 ,43.29227 
51 ,9.3286 ,0.73749 ,4.41218 ,43.29227 
52 ,9.5207 ,0.73943 ,4.38480 ,43.02365 
53 ,9.6969 ,0.74117 ,4.36084 ,42.78860 
54 ,9.8888 ,0.74306 ,4.35400 ,42.72144 
55 ,10.0968 ,0.74502 ,4.32320 ,42.41924 
56 ,10.2731 ,0.74694 ,4.31636 ,42.35208 
57 ,10.4492 ,0.74873 ,4.29582 ,42.15061 
58 ,10.6252 ,0.75044 ,4.28556 ,42.04988 
59 ,10.8013 ,0.75226 ,4.26160 ,41.81483 
60 ,10.9771 ,0.75395 ,4.23765 ,41.57978 
61 ,11.1534 ,0.75577 ,4.22396 ,41.44547 
62 ,11.3294 ,0.75745 ,4.21027 ,41.31115 
63 ,11.5216 ,0.75937 ,4.17947 ,41.00895 
64 ,11.6975 ,0.76124 ,4.17605 ,40.97537 
65 ,11.8738 ,0.76297 ,4.14183 ,40.63959 
66 ,12.0497 ,0.76475 ,4.14525 ,40.67317 
67 ,12.2259 ,0.76648 ,4.14867 ,40.70674 
68 ,12.4020 ,0.76820 ,4.10418 ,40.27023 
69 ,12.5939 ,0.77010 ,4.08365 ,40.06876 
70 ,12.7702 ,0.77189 ,4.06654 ,39.90087 
71 ,12.9462 ,0.77363 ,4.06312 ,39.86729 
72 ,13.1383 ,0.77559 ,4.02889 ,39.53150 
73 ,13.3302 ,0.77749 ,4.02205 ,39.46435 
74 ,13.4903 ,0.77921 ,3.99467 ,39.19572 
75 ,13.6984 ,0.78105 ,3.97414 ,38.99425 
76 ,13.8745 ,0.78294 ,3.94334 ,38.69205 
77 ,14.0502 ,0.78470 ,3.94676 ,38.72562 
78 ,14.2263 ,0.78648 ,3.92623 ,38.52415 
79 ,14.4027 ,0.78820 ,3.90912 ,38.35626 
80 ,14.5788 ,0.78997 ,3.88858 ,38.15479 
81 ,14.7705 ,0.79189 ,3.87147 ,37.98690 
82 ,14.9468 ,0.79368 ,3.85779 ,37.85259 
83 ,15.1229 ,0.79537 ,3.84067 ,37.68470 
84 ,15.2991 ,0.79715 ,3.80987 ,37.38249 
85 ,15.4752 ,0.79896 ,3.78250 ,37.11387 
86 ,15.6512 ,0.80075 ,3.78250 ,37.11387 
87 ,15.8432 ,0.80262 ,3.75854 ,36.87882 
88 ,16.0194 ,0.80438 ,3.73459 ,36.64377 
89 ,16.1951 ,0.80616 ,3.73459 ,36.64377 
90 ,16.3715 ,0.80785 ,3.72432 ,36.54303 
91 ,16.5476 ,0.80966 ,3.70721 ,36.37514 
92 ,16.7237 ,0.81148 ,3.66272 ,35.93863 
93 ,16.8999 ,0.81317 ,3.64903 ,35.80431 
94 ,17.0915 ,0.81514 ,3.65246 ,35.83789 
95 ,17.2518 ,0.81679 ,3.63192 ,35.63642 
96 ,17.4279 ,0.81842 ,3.60454 ,35.36779 
97 ,17.6045 ,0.82023 ,3.59086 ,35.23348 
98 ,17.7961 ,0.82213 ,3.56690 ,34.99843 
99 ,17.9723 ,0.82391 ,3.55321 ,34.86412 
100 ,18.1642 ,0.82575 ,3.54295 ,34.76338 
101 ,18.3402 ,0.82770 ,3.50872 ,34.42760 
102 ,18.5163 ,0.82933 ,3.50188 ,34.36045 
103 ,18.7085 ,0.83122 ,3.48819 ,34.22613 
104 ,18.8847 ,0.83302 ,3.48135 ,34.15898 
105 ,19.0607 ,0.83482 ,3.45397 ,33.89035 
106 ,19.2366 ,0.83658 ,3.42317 ,33.58814 
107 ,19.4125 ,0.83827 ,3.42317 ,33.58814 
108 ,19.5888 ,0.84008 ,3.39921 ,33.35310 
109 ,19.7648 ,0.84178 ,3.38553 ,33.21878 
110 ,19.9409 ,0.84371 ,3.36842 ,33.05089 
111 ,20.1170 ,0.84537 ,3.34788 ,32.84942 
112 ,20.2931 ,0.84713 ,3.32735 ,32.64795 
113 ,20.4851 ,0.84900 ,3.31366 ,32.51364 
114 ,20.6773 ,0.85095 ,3.28628 ,32.24501 
115 ,20.8694 ,0.85276 ,3.27944 ,32.17786 
116 ,21.0454 ,0.85462 ,3.25206 ,31.90923 
117 ,21.2375 ,0.85658 ,3.23495 ,31.74134 
118 ,21.4132 ,0.85830 ,3.23495 ,31.74134 
119 ,21.5897 ,0.86009 ,3.22126 ,31.60702 
120 ,21.7656 ,0.86185 ,3.19731 ,31.37198 
121 ,21.9418 ,0.86357 ,3.16993 ,31.10335 
122 ,22.1179 ,0.86534 ,3.15624 ,30.96904 
123 ,22.2938 ,0.86710 ,3.14255 ,30.83472 
124 ,22.4857 ,0.86889 ,3.11860 ,30.59968 
125 ,22.6621 ,0.87077 ,3.10833 ,30.49894 
126 ,22.8380 ,0.87257 ,3.08438 ,30.26389 
127 ,23.0142 ,0.87430 ,3.08780 ,30.29747 
128 ,23.1902 ,0.87608 ,3.07069 ,30.12958 
129 ,23.3664 ,0.87781 ,3.06042 ,30.02884 
130 ,23.5419 ,0.87968 ,3.03647 ,29.79380 
131 ,23.7184 ,0.88133 ,2.99882 ,29.42444 
132 ,23.8948 ,0.88312 ,3.01593 ,29.59233 
133 ,24.1028 ,0.88509 ,2.98855 ,29.32370 
134 ,24.3108 ,0.88720 ,2.97487 ,29.18939 
135 ,24.5185 ,0.88923 ,2.95091 ,28.95434 
136 ,24.6949 ,0.89111 ,2.93380 ,28.78645 
137 ,24.8710 ,0.89291 ,2.93038 ,28.75287 
138 ,25.0789 ,0.89488 ,2.88931 ,28.34993 
139 ,25.2551 ,0.89664 ,2.88589 ,28.31635 
140 ,25.4311 ,0.89847 ,2.86193 ,28.08130 
141 ,25.6229 ,0.90036 ,2.83456 ,27.81268 
142 ,25.8153 ,0.90220 ,2.80718 ,27.54405 
143 ,26.0074 ,0.90427 ,2.81060 ,27.57763 
144 ,26.1995 ,0.90613 ,2.79007 ,27.37616 
145 ,26.3756 ,0.90785 ,2.79349 ,27.40974 
146 ,26.5515 ,0.90972 ,2.77296 ,27.20827 
147 ,26.7116 ,0.91134 ,2.73531 ,26.83891 
148 ,26.8877 ,0.91303 ,2.72505 ,26.73817 
149 ,27.0797 ,0.91489 ,2.70109 ,26.50312 
150 ,27.2559 ,0.91670 ,2.69083 ,26.40239 
151 ,27.4479 ,0.91861 ,2.67029 ,26.20092 
152 ,27.6399 ,0.92052 ,2.64976 ,25.99945 
153 ,27.8160 ,0.92225 ,2.65318 ,26.03303 
154 ,28.0082 ,0.92415 ,2.61554 ,25.66367 
155 ,28.2003 ,0.92609 ,2.60869 ,25.59651 
156 ,28.3762 ,0.92791 ,2.59843 ,25.49577 
157 ,28.5522 ,0.92964 ,2.59501 ,25.46220 
158 ,28.7445 ,0.93160 ,2.56078 ,25.12641 
159 ,28.9205 ,0.93338 ,2.52998 ,24.82421 
160 ,29.1126 ,0.93521 ,2.54025 ,24.92494 
161 ,29.2886 ,0.93695 ,2.52314 ,24.75705 
162 ,29.4808 ,0.93894 ,2.48892 ,24.42127 
163 ,29.6569 ,0.94071 ,2.47523 ,24.28696 
164 ,29.8325 ,0.94247 ,2.47523 ,24.28696 
165 ,30.0089 ,0.94422 ,2.44785 ,24.01833 
166 ,30.1850 ,0.94600 ,2.42390 ,23.78328 
167 ,30.3609 ,0.94778 ,2.41021 ,23.64897 
168 ,30.5372 ,0.94955 ,2.39310 ,23.48108 
169 ,30.7133 ,0.95126 ,2.38625 ,23.41392 
170 ,30.8890 ,0.95304 ,2.37941 ,23.34676 
171 ,31.0654 ,0.95479 ,2.34519 ,23.01098 
172 ,31.2731 ,0.95675 ,2.34177 ,22.97740 
173 ,31.4495 ,0.95856 ,2.32465 ,22.80951 
174 ,31.6096 ,0.96033 ,2.31097 ,22.67520 
175 ,31.7854 ,0.96194 ,2.28701 ,22.44015 
176 ,31.9614 ,0.96371 ,2.27332 ,22.30584 
177 ,32.1378 ,0.96554 ,2.25279 ,22.10437 
178 ,32.3299 ,0.96742 ,2.24594 ,22.03721 
179 ,32.5058 ,0.96916 ,2.22199 ,21.80216 
180 ,32.6981 ,0.97113 ,2.20830 ,21.66785 
181 ,32.8740 ,0.97282 ,2.21515 ,21.73500 
182 ,33.0501 ,0.97474 ,2.17750 ,21.36564 
183 ,33.2422 ,0.97645 ,2.16381 ,21.23133 
184 ,33.4183 ,0.97825 ,2.14670 ,21.06344 
185 ,33.6261 ,0.98032 ,2.13301 ,20.92912 
186 ,33.8021 ,0.98212 ,2.10221 ,20.62692 
187 ,33.9786 ,0.98385 ,2.11590 ,20.76123 
188 ,34.1546 ,0.98564 ,2.09537 ,20.55976 
189 ,34.3307 ,0.98742 ,2.07484 ,20.35829 
190 ,34.5228 ,0.98936 ,2.04061 ,20.02251 
191 ,34.7147 ,0.99124 ,2.05088 ,20.12325 
192 ,34.8910 ,0.99302 ,2.02693 ,19.88820 
193 ,35.0829 ,0.99490 ,2.00297 ,19.65315 
194 ,35.2589 ,0.99665 ,1.98928 ,19.51884 
195 ,35.4672 ,0.99867 ,1.97559 ,19.38452 
196 ,35.6593 ,1.00066 ,1.96533 ,19.28379 
197 ,35.8353 ,1.00246 ,1.95164 ,19.14948 
198 ,36.0114 ,1.00418 ,1.94822 ,19.11590 
199 ,36.1871 ,1.00599 ,1.92084 ,18.84727 
200 ,36.3632 ,1.00775 ,1.89346 ,18.57864 
201 ,36.5396 ,1.00950 ,1.89346 ,18.57864 
202 ,36.6995 ,1.01124 ,1.89004 ,18.54507 
203 ,36.8756 ,1.01283 ,1.87293 ,18.37717 
204 ,37.0518 ,1.01463 ,1.84897 ,18.14213 
205 ,37.2437 ,1.01651 ,1.83186 ,17.97423 
206 ,37.4199 ,1.01832 ,1.80791 ,17.73919 
207 ,37.5961 ,1.02010 ,1.81475 ,17.80634 
208 ,37.7877 ,1.02201 ,1.77711 ,17.43698 
209 ,37.9641 ,1.02371 ,1.76342 ,17.30267 
210 ,38.1402 ,1.02552 ,1.74973 ,17.16836 
211 ,38.3320 ,1.02742 ,1.74631 ,17.13478 
212 ,38.5083 ,1.02919 ,1.72235 ,16.89973 
213 ,38.7001 ,1.03103 ,1.71209 ,16.79899 
214 ,38.8765 ,1.03287 ,1.70182 ,16.69826 
215 ,39.0523 ,1.03462 ,1.68471 ,16.53037 
216 ,39.2285 ,1.03642 ,1.66760 ,16.36248 
217 ,39.4043 ,1.03817 ,1.64707 ,16.16101 
218 ,39.5969 ,1.03997 ,1.63680 ,16.06027 
219 ,39.7888 ,1.04196 ,1.61969 ,15.89238 
220 ,39.9648 ,1.04371 ,1.61627 ,15.85880 
221 ,40.1727 ,1.04577 ,1.60600 ,15.75807 
222 ,40.3327 ,1.04755 ,1.58547 ,15.55660 
223 ,40.5089 ,1.04918 ,1.57520 ,15.45586 
224 ,40.7013 ,1.05109 ,1.56493 ,15.35513 
225 ,40.8933 ,1.05303 ,1.55809 ,15.28797 
226 ,41.0855 ,1.05482 ,1.52387 ,14.95219 
227 ,41.2610 ,1.05673 ,1.49649 ,14.68356 
228 ,41.4376 ,1.05846 ,1.51360 ,14.85145 
229 ,41.6136 ,1.06021 ,1.49991 ,14.71714 
230 ,41.8054 ,1.06211 ,1.47596 ,14.48209 
231 ,41.9979 ,1.06399 ,1.46911 ,14.41493 
232 ,42.1737 ,1.06582 ,1.46911 ,14.41493 
233 ,42.3498 ,1.06759 ,1.43831 ,14.11273 
234 ,42.5258 ,1.06937 ,1.40409 ,13.77695 
235 ,42.7340 ,1.07135 ,1.41094 ,13.84410 
236 ,42.9260 ,1.07330 ,1.38356 ,13.57548 
237 ,43.1024 ,1.07511 ,1.37329 ,13.47474 
238 ,43.2782 ,1.07692 ,1.36987 ,13.44116 
239 ,43.4704 ,1.07877 ,1.34249 ,13.17254 
240 ,43.6460 ,1.08053 ,1.34249 ,13.17254 
241 ,43.8225 ,1.08234 ,1.32880 ,13.03822 
242 ,43.9988 ,1.08407 ,1.32538 ,13.00465 
243 ,44.1907 ,1.08601 ,1.30827 ,12.83675 
244 ,44.3665 ,1.08773 ,1.27747 ,12.53455 
245 ,44.5747 ,1.08974 ,1.28089 ,12.56813 
246 ,44.7508 ,1.09153 ,1.27063 ,12.46739 
247 ,44.9266 ,1.09334 ,1.23298 ,12.09803 
248 ,45.1032 ,1.09511 ,1.23641 ,12.13161 
249 ,45.2951 ,1.09706 ,1.22614 ,12.03088 
250 ,45.4871 ,1.09887 ,1.21587 ,11.93014 
251 ,45.6953 ,1.10091 ,1.21587 ,11.93014 
252 ,45.9036 ,1.10299 ,1.17481 ,11.52720 
253 ,46.0955 ,1.10503 ,1.18165 ,11.59436 
254 ,46.2713 ,1.10678 ,1.16112 ,11.39289 
255 ,46.4476 ,1.10854 ,1.13032 ,11.09068 
256 ,46.6237 ,1.11032 ,1.13374 ,11.12426 
257 ,46.7993 ,1.11216 ,1.12347 ,11.02353 
258 ,46.9759 ,1.11384 ,1.11321 ,10.92279 
259 ,47.1518 ,1.11560 ,1.09610 ,10.75490 
260 ,47.3278 ,1.11733 ,1.08583 ,10.65416 
261 ,47.5043 ,1.11910 ,1.06872 ,10.48627 
262 ,47.6801 ,1.12085 ,1.06872 ,10.48627 
263 ,47.8558 ,1.12262 ,1.05845 ,10.38554 
264 ,48.0323 ,1.12437 ,1.02081 ,10.01618 
265 ,48.2402 ,1.12647 ,1.03450 ,10.15049 
266 ,48.4164 ,1.12821 ,1.01739 ,9.98260 
267 ,48.6085 ,1.13012 ,0.99343 ,9.74755 
268 ,48.8005 ,1.13205 ,0.98659 ,9.68039 
269 ,48.9605 ,1.13377 ,0.96263 ,9.44535 
270 ,49.1369 ,1.13544 ,0.96263 ,9.44535 
271 ,49.3128 ,1.13719 ,0.94210 ,9.24388 
272 ,49.4887 ,1.13898 ,0.92157 ,9.04241 
273 ,49.6649 ,1.14067 ,0.89761 ,8.80736 
274 ,49.8406 ,1.14249 ,0.90446 ,8.87451 
275 ,50.0171 ,1.14415 ,0.90103 ,8.84094 
276 ,50.1931 ,1.14600 ,0.88392 ,8.67305 
277 ,50.3692 ,1.14772 ,0.85654 ,8.40442 
278 ,50.5453 ,1.14953 ,0.85312 ,8.37084 
279 ,50.7209 ,1.15131 ,0.84628 ,8.30368 
280 ,50.8975 ,1.15303 ,0.83943 ,8.23653 
281 ,51.0895 ,1.15489 ,0.80179 ,7.86717 
282 ,51.2815 ,1.15683 ,0.80521 ,7.90074 
283 ,51.4576 ,1.15857 ,0.80521 ,7.90074 
284 ,51.6337 ,1.16042 ,0.77441 ,7.59854 
285 ,51.8098 ,1.16217 ,0.76072 ,7.46423 
286 ,52.0025 ,1.16405 ,0.75046 ,7.36349 
287 ,52.1779 ,1.16586 ,0.74704 ,7.32991 
288 ,52.3698 ,1.16776 ,0.71281 ,6.99413 
289 ,52.5620 ,1.16963 ,0.71966 ,7.06129 
290 ,52.7382 ,1.17144 ,0.70939 ,6.96055 
291 ,52.9302 ,1.17335 ,0.66833 ,6.55761 
292 ,53.1220 ,1.17527 ,0.66833 ,6.55761 
293 ,53.2984 ,1.17703 ,0.66833 ,6.55761 
294 ,53.4905 ,1.17881 ,0.64437 ,6.32256 
295 ,53.6826 ,1.18087 ,0.63753 ,6.25541 
296 ,53.8587 ,1.18263 ,0.62384 ,6.12109 
297 ,54.0347 ,1.18444 ,0.61015 ,5.98678 
298 ,54.2108 ,1.18613 ,0.58277 ,5.71815 
299 ,54.3868 ,1.18788 ,0.56908 ,5.58384 
300 ,54.5630 ,1.18969 ,0.56908 ,5.58384 
301 ,54.7549 ,1.19154 ,0.55197 ,5.41595 
302 ,54.9312 ,1.19334 ,0.54513 ,5.34879 
303 ,55.1392 ,1.19525 ,0.53828 ,5.28164 
304 ,55.3152 ,1.19725 ,0.50406 ,4.94585 
305 ,55.4913 ,1.19896 ,0.49380 ,4.84512 
306 ,55.6671 ,1.20066 ,0.48011 ,4.71081 
307 ,55.8435 ,1.20250 ,0.48695 ,4.77796 
308 ,56.0194 ,1.20419 ,0.48011 ,4.71081 
309 ,56.2117 ,1.20614 ,0.44588 ,4.37502 
310 ,56.3876 ,1.20793 ,0.44246 ,4.34144 
311 ,56.5798 ,1.20980 ,0.44588 ,4.37502 
312 ,56.7553 ,1.21156 ,0.42877 ,4.20713 
313 ,56.9314 ,1.21333 ,0.40482 ,3.97208 
314 ,57.1075 ,1.21509 ,0.38429 ,3.77061 
315 ,57.2838 ,1.21686 ,0.38429 ,3.77061 
316 ,57.4922 ,1.21895 ,0.36718 ,3.60272 
317 ,57.7003 ,1.22095 ,0.35691 ,3.50199 
318 ,57.8759 ,1.22283 ,0.36375 ,3.56914 
319 ,58.0524 ,1.22455 ,0.32953 ,3.23336 
320 ,58.2284 ,1.22631 ,0.31242 ,3.06547 
321 ,58.4042 ,1.22805 ,0.32269 ,3.16620 
322 ,58.5806 ,1.22983 ,0.30215 ,2.96473 
323 ,58.7724 ,1.23174 ,0.29531 ,2.89758 
324 ,58.9485 ,1.23352 ,0.27135 ,2.66253 
325 ,59.1406 ,1.23541 ,0.27820 ,2.72969 
326 ,59.3327 ,1.23738 ,0.26451 ,2.59537 
327 ,59.5088 ,1.23907 ,0.23371 ,2.29317 
328 ,59.7011 ,1.24092 ,0.24055 ,2.36032 
329 ,59.8930 ,1.24286 ,0.21660 ,2.12528 
330 ,60.0692 ,1.24471 ,0.21660 ,2.12528 
331 ,60.2451 ,1.24644 ,0.21318 ,2.09170 
332 ,60.4213 ,1.24822 ,0.19607 ,1.92381 
333 ,60.5974 ,1.25000 ,0.19264 ,1.89023 
334 ,60.8055 ,1.25198 ,0.15842 ,1.55445 
335 ,60.9816 ,1.25382 ,0.16869 ,1.65518 
336 ,61.1736 ,1.25573 ,0.13789 ,1.35298 
337 ,61.3657 ,1.25768 ,0.13447 ,1.31940 
338 ,61.5416 ,1.25940 ,0.13789 ,1.35298 
339 ,61.7175 ,1.26121 ,0.12078 ,1.18508 
340 ,61.8941 ,1.26294 ,0.09340 ,0.91646 
341 ,62.0861 ,1.26488 ,0.08998 ,0.88288 
342 ,62.2622 ,1.26669 ,0.08314 ,0.81572 
343 ,62.4702 ,1.26867 ,0.06602 ,0.64783 
344 ,62.6462 ,1.27045 ,0.03865 ,0.37920 
345 ,62.8063 ,1.27215 ,0.04549 ,0.44636 
346 ,62.9824 ,1.27385 ,0.04891 ,0.47994 
347 ,63.1743 ,1.27570 ,0.00100 ,0.00984 
348 ,63.3502 ,1.27750 ,-0.00242 ,-0.02373 
349 ,63.5266 ,1.27928 ,-0.00584 ,-0.05731 
350 ,63.7027 ,1.28100 ,-0.00242 ,-0.02373 
351 ,63.8788 ,1.28278 ,-0.01269 ,-0.12447 
352 ,64.0549 ,1.28454 ,-0.04006 ,-0.39310 
353 ,64.2310 ,1.28634 ,-0.05375 ,-0.52741 
354 ,64.4071 ,1.28812 ,-0.06060 ,-0.59457 
355 ,64.5830 ,1.28994 ,-0.05717 ,-0.56099 
356 ,64.7590 ,1.29158 ,-0.07771 ,-0.76246 
357 ,64.9348 ,1.29332 ,-0.08113 ,-0.79604 
358 ,65.1112 ,1.29511 ,-0.09824 ,-0.96393 
359 ,65.2873 ,1.29686 ,-0.12904 ,-1.26613 
360 ,65.4634 ,1.29865 ,-0.11535 ,-1.13182 
361 ,65.6396 ,1.30042 ,-0.12562 ,-1.23255 
362 ,65.8314 ,1.30228 ,-0.14957 ,-1.46760 
363 ,66.0075 ,1.30402 ,-0.15642 ,-1.53476 
364 ,66.1838 ,1.30584 ,-0.15642 ,-1.53476 
365 ,66.3599 ,1.30759 ,-0.15984 ,-1.56834 
366 ,66.5518 ,1.30950 ,-0.18379 ,-1.80338 
367 ,66.7120 ,1.31123 ,-0.19748 ,-1.93770 
368 ,66.8717 ,1.31282 ,-0.21459 ,-2.10559 
369 ,67.0482 ,1.31450 ,-0.22144 ,-2.17275 
370 ,67.2241 ,1.31623 ,-0.21802 ,-2.13917 
371 ,67.4162 ,1.31817 ,-0.23855 ,-2.34064 
372 ,67.6083 ,1.32004 ,-0.24881 ,-2.44137 
373 ,67.8002 ,1.32199 ,-0.24539 ,-2.40779 
374 ,67.9601 ,1.32368 ,-0.25566 ,-2.50853 
375 ,68.1365 ,1.32533 ,-0.27277 ,-2.67642 
376 ,68.3125 ,1.32710 ,-0.27961 ,-2.74358 
377 ,68.5047 ,1.32901 ,-0.27619 ,-2.71000 
378 ,68.6809 ,1.33079 ,-0.28988 ,-2.84431 
379 ,68.8890 ,1.33275 ,-0.30699 ,-3.01220 
380 ,69.0809 ,1.33473 ,-0.31041 ,-3.04578 
381 ,69.2570 ,1.33649 ,-0.33095 ,-3.24725 
382 ,69.4330 ,1.33828 ,-0.34464 ,-3.38156 
383 ,69.6091 ,1.34006 ,-0.34806 ,-3.41514 
384 ,69.7852 ,1.34180 ,-0.34806 ,-3.41514 
385 ,69.9771 ,1.34368 ,-0.35148 ,-3.44872 
386 ,70.1534 ,1.34550 ,-0.37886 ,-3.71735 
387 ,70.3294 ,1.34731 ,-0.39255 ,-3.85166 
388 ,70.5215 ,1.34920 ,-0.38912 ,-3.81808 
389 ,70.6976 ,1.35096 ,-0.40966 ,-4.01955 
390 ,70.8897 ,1.35283 ,-0.41992 ,-4.12029 
391 ,71.0655 ,1.35465 ,-0.41992 ,-4.12029 
392 ,71.2419 ,1.35642 ,-0.41992 ,-4.12029 
393 ,71.4338 ,1.35831 ,-0.44388 ,-4.35534 
394 ,71.6420 ,1.36026 ,-0.44730 ,-4.38891 
395 ,71.8179 ,1.36214 ,-0.45072 ,-4.42249 
396 ,72.0100 ,1.36401 ,-0.47126 ,-4.62396 
397 ,72.1862 ,1.36586 ,-0.46441 ,-4.55681 
398 ,72.3462 ,1.36754 ,-0.47468 ,-4.65754 
399 ,72.5384 ,1.36937 ,-0.49863 ,-4.89259 
400 ,72.7302 ,1.37118 ,-0.50890 ,-4.99332 
401 ,72.9225 ,1.37322 ,-0.49521 ,-4.85901 
402 ,73.1146 ,1.37509 ,-0.53285 ,-5.22837 
403 ,73.3067 ,1.37704 ,-0.53628 ,-5.26195 
404 ,73.4823 ,1.37879 ,-0.51917 ,-5.09406 
405 ,73.6589 ,1.38055 ,-0.54312 ,-5.32911 
406 ,73.8344 ,1.38238 ,-0.56365 ,-5.53058 
407 ,74.0110 ,1.38404 ,-0.57392 ,-5.63131 
408 ,74.2029 ,1.38598 ,-0.55339 ,-5.42984 
409 ,74.3788 ,1.38781 ,-0.59103 ,-5.79920 
410 ,74.5710 ,1.38962 ,-0.59103 ,-5.79920 
411 ,74.7471 ,1.39143 ,-0.59788 ,-5.86636 
412 ,74.9233 ,1.39318 ,-0.60472 ,-5.93352 
413 ,75.0995 ,1.39498 ,-0.61499 ,-6.03425 
414 ,75.3072 ,1.39695 ,-0.60814 ,-5.96709 
415 ,75.4835 ,1.39879 ,-0.61841 ,-6.06783 
416 ,75.6596 ,1.40049 ,-0.63894 ,-6.26930 
417 ,75.8357 ,1.40230 ,-0.66290 ,-6.50435 
418 ,76.0277 ,1.40422 ,-0.65605 ,-6.43719 
419 ,76.2199 ,1.40621 ,-0.64921 ,-6.37003 
420 ,76.3959 ,1.40793 ,-0.66974 ,-6.57150 
421 ,76.5718 ,1.40963 ,-0.69027 ,-6.77297 
422 ,76.7479 ,1.41138 ,-0.68343 ,-6.70582 
423 ,76.9242 ,1.41320 ,-0.68685 ,-6.73940 
424 ,77.1323 ,1.41517 ,-0.71765 ,-7.04160 
425 ,77.3082 ,1.41702 ,-0.73134 ,-7.17591 
426 ,77.4843 ,1.41880 ,-0.72450 ,-7.10876 
427 ,77.6763 ,1.42072 ,-0.74161 ,-7.27665 
428 ,77.8525 ,1.42247 ,-0.75530 ,-7.41096 
429 ,78.0767 ,1.42459 ,-0.75530 ,-7.41096 
430 ,78.2846 ,1.42671 ,-0.74845 ,-7.34380 
431 ,78.4604 ,1.42857 ,-0.76898 ,-7.54527 
432 ,78.6369 ,1.43031 ,-0.78267 ,-7.67959 
433 ,78.8127 ,1.43208 ,-0.79978 ,-7.84748 
434 ,79.0049 ,1.43394 ,-0.79636 ,-7.81390 
435 ,79.1809 ,1.43577 ,-0.79636 ,-7.81390 
436 ,79.3730 ,1.43763 ,-0.82032 ,-8.04895 
437 ,79.5491 ,1.43939 ,-0.82716 ,-8.11611 
438 ,79.7252 ,1.44116 ,-0.82032 ,-8.04895 
439 ,79.9173 ,1.44314 ,-0.84427 ,-8.28400 
440 ,80.0934 ,1.44488 ,-0.85454 ,-8.38473 
441 ,80.2853 ,1.44678 ,-0.84769 ,-8.31758 
442 ,80.4776 ,1.44858 ,-0.85796 ,-8.41831 
443 ,80.6857 ,1.45071 ,-0.86481 ,-8.48547 
444 ,80.8777 ,1.45269 ,-0.89560 ,-8.78767 
445 ,81.0539 ,1.45451 ,-0.89560 ,-8.78767 
446 ,81.2459 ,1.45635 ,-0.88192 ,-8.65336 
447 ,81.4220 ,1.45818 ,-0.89903 ,-8.82125 
448 ,81.6135 ,1.46005 ,-0.91956 ,-9.02272 
449 ,81.7901 ,1.46181 ,-0.91956 ,-9.02272 
450 ,81.9822 ,1.46369 ,-0.91614 ,-8.98914 
451 ,82.1582 ,1.46553 ,-0.94009 ,-9.22419 
452 ,82.3344 ,1.46729 ,-0.95036 ,-9.32492 
453 ,82.5265 ,1.46916 ,-0.94009 ,-9.22419 
454 ,82.7185 ,1.47105 ,-0.97431 ,-9.55997 
455 ,82.8946 ,1.47287 ,-0.96405 ,-9.45924 
456 ,83.0704 ,1.47462 ,-0.97774 ,-9.59355 
457 ,83.2467 ,1.47642 ,-0.97774 ,-9.59355 
458 ,83.4228 ,1.47812 ,-0.97774 ,-9.59355 
459 ,83.6148 ,1.47999 ,-1.00854 ,-9.89576 
460 ,83.7910 ,1.48180 ,-1.01538 ,-9.96291 
461 ,83.9829 ,1.48372 ,-1.00854 ,-9.89576 
462 ,84.1591 ,1.48550 ,-1.02565 ,-10.06365 
