Data stamp = , 02-04-2022 13:35:33 245

Calibration Values: 
Slope = , 26.54 , g/V 
Offset Voltage at no contact = , -0.501760 , V 

No , Time , Stage Position ,   Mass , Force 
   ,  (s) ,      (mm)      ,   (g)  , (mN)  

1 ,0.0000 ,0.64949 ,5.01106 ,49.16848 
2 ,0.2106 ,0.64957 ,4.99394 ,49.00058 
3 ,0.4349 ,0.65014 ,5.01106 ,49.16848 
4 ,0.6268 ,0.65115 ,5.00763 ,49.13490 
5 ,0.8029 ,0.65245 ,4.99052 ,48.96701 
6 ,0.9787 ,0.65403 ,4.99394 ,49.00058 
7 ,1.1710 ,0.65580 ,5.00763 ,49.13490 
8 ,1.3470 ,0.65769 ,5.01106 ,49.16848 
9 ,1.5233 ,0.65947 ,5.00763 ,49.13490 
10 ,1.6992 ,0.66128 ,4.98026 ,48.86627 
11 ,1.8913 ,0.66306 ,4.96657 ,48.73196 
12 ,2.0835 ,0.66498 ,4.96999 ,48.76554 
13 ,2.2756 ,0.66693 ,4.95630 ,48.63122 
14 ,2.4516 ,0.66878 ,4.92892 ,48.36260 
15 ,2.6273 ,0.67055 ,4.92892 ,48.36260 
16 ,2.8038 ,0.67230 ,4.91523 ,48.22828 
17 ,2.9959 ,0.67413 ,4.88786 ,47.95966 
18 ,3.1716 ,0.67599 ,4.88444 ,47.92608 
19 ,3.3480 ,0.67775 ,4.88101 ,47.89250 
20 ,3.5560 ,0.67972 ,4.86732 ,47.75819 
21 ,3.7321 ,0.68160 ,4.83995 ,47.48956 
22 ,3.9239 ,0.68346 ,4.83310 ,47.42240 
23 ,4.1003 ,0.68526 ,4.81599 ,47.25451 
24 ,4.2763 ,0.68702 ,4.80573 ,47.15378 
25 ,4.4685 ,0.68881 ,4.78177 ,46.91873 
26 ,4.6444 ,0.69074 ,4.78177 ,46.91873 
27 ,4.8204 ,0.69248 ,4.75097 ,46.61653 
28 ,5.0126 ,0.69438 ,4.73386 ,46.44863 
29 ,5.1886 ,0.69610 ,4.72702 ,46.38148 
30 ,5.3807 ,0.69805 ,4.69622 ,46.07927 
31 ,5.5727 ,0.69996 ,4.67226 ,45.84422 
32 ,5.7489 ,0.70168 ,4.67226 ,45.84422 
33 ,5.9409 ,0.70366 ,4.63804 ,45.50844 
34 ,6.1171 ,0.70543 ,4.61066 ,45.23981 
35 ,6.3091 ,0.70735 ,4.61408 ,45.27339 
36 ,6.4852 ,0.70910 ,4.57986 ,44.93761 
37 ,6.6773 ,0.71104 ,4.54564 ,44.60183 
38 ,6.8534 ,0.71274 ,4.53880 ,44.53467 
39 ,7.0293 ,0.71454 ,4.53537 ,44.50109 
40 ,7.2055 ,0.71629 ,4.51142 ,44.26604 
41 ,7.3812 ,0.71808 ,4.47720 ,43.93026 
42 ,7.5576 ,0.71981 ,4.45324 ,43.69521 
43 ,7.7496 ,0.72171 ,4.44982 ,43.66163 
44 ,7.9255 ,0.72343 ,4.42929 ,43.46016 
45 ,8.1020 ,0.72529 ,4.40533 ,43.22512 
46 ,8.2778 ,0.72700 ,4.38822 ,43.05723 
47 ,8.4537 ,0.72875 ,4.36769 ,42.85576 
48 ,8.6300 ,0.73050 ,4.35742 ,42.75502 
49 ,8.8063 ,0.73231 ,4.35058 ,42.68786 
50 ,8.9982 ,0.73420 ,4.31978 ,42.38566 
51 ,9.1743 ,0.73592 ,4.29924 ,42.18419 
52 ,9.3503 ,0.73779 ,4.29582 ,42.15061 
53 ,9.5260 ,0.73946 ,4.28556 ,42.04988 
54 ,9.7025 ,0.74127 ,4.26502 ,41.84841 
55 ,9.8785 ,0.74313 ,4.23765 ,41.57978 
56 ,10.0706 ,0.74491 ,4.22396 ,41.44547 
57 ,10.2468 ,0.74672 ,4.21711 ,41.37831 
58 ,10.4228 ,0.74844 ,4.17605 ,40.97537 
59 ,10.5988 ,0.75023 ,4.16920 ,40.90821 
60 ,10.7749 ,0.75195 ,4.15209 ,40.74032 
61 ,10.9670 ,0.75380 ,4.13498 ,40.57243 
62 ,11.1589 ,0.75582 ,4.11787 ,40.40454 
63 ,11.3351 ,0.75758 ,4.09734 ,40.20307 
64 ,11.5113 ,0.75933 ,4.09391 ,40.16949 
65 ,11.6872 ,0.76109 ,4.08023 ,40.03518 
66 ,11.8635 ,0.76286 ,4.04600 ,39.69940 
67 ,12.0552 ,0.76475 ,4.03232 ,39.56508 
68 ,12.2316 ,0.76656 ,4.01863 ,39.43077 
69 ,12.4075 ,0.76829 ,4.01178 ,39.36361 
70 ,12.5838 ,0.77004 ,3.99125 ,39.16214 
71 ,12.7438 ,0.77175 ,3.96045 ,38.85994 
72 ,12.9198 ,0.77341 ,3.94334 ,38.69205 
73 ,13.1121 ,0.77533 ,3.92965 ,38.55773 
74 ,13.2880 ,0.77708 ,3.91596 ,38.42342 
75 ,13.4801 ,0.77905 ,3.89543 ,38.22195 
76 ,13.6561 ,0.78080 ,3.87490 ,38.02048 
77 ,13.8318 ,0.78250 ,3.84752 ,37.75185 
78 ,14.0079 ,0.78430 ,3.84752 ,37.75185 
79 ,14.1840 ,0.78602 ,3.82699 ,37.55038 
80 ,14.3763 ,0.78790 ,3.81672 ,37.44965 
81 ,14.5525 ,0.78984 ,3.78934 ,37.18102 
82 ,14.7287 ,0.79150 ,3.78592 ,37.14744 
83 ,14.9048 ,0.79329 ,3.75512 ,36.84524 
84 ,15.0808 ,0.79501 ,3.74143 ,36.71093 
85 ,15.2565 ,0.79679 ,3.71063 ,36.40872 
86 ,15.4488 ,0.79858 ,3.69694 ,36.27441 
87 ,15.6249 ,0.80043 ,3.70379 ,36.34157 
88 ,15.8169 ,0.80228 ,3.67299 ,36.03936 
89 ,15.9931 ,0.80409 ,3.63534 ,35.67000 
90 ,16.2013 ,0.80619 ,3.62508 ,35.56926 
91 ,16.3773 ,0.80797 ,3.60797 ,35.40137 
92 ,16.5532 ,0.80975 ,3.59086 ,35.23348 
93 ,16.7293 ,0.81149 ,3.58743 ,35.19990 
94 ,16.9051 ,0.81324 ,3.56690 ,34.99843 
95 ,17.0816 ,0.81505 ,3.57032 ,35.03201 
96 ,17.2575 ,0.81677 ,3.53610 ,34.69623 
97 ,17.4336 ,0.81853 ,3.50188 ,34.36045 
98 ,17.6099 ,0.82028 ,3.50530 ,34.39402 
99 ,17.8018 ,0.82225 ,3.49161 ,34.25971 
100 ,17.9615 ,0.82391 ,3.45055 ,33.85677 
101 ,18.1380 ,0.82557 ,3.45397 ,33.89035 
102 ,18.3457 ,0.82757 ,3.44713 ,33.82319 
103 ,18.5221 ,0.82942 ,3.42659 ,33.62172 
104 ,18.7141 ,0.83120 ,3.39237 ,33.28594 
105 ,18.9067 ,0.83326 ,3.38553 ,33.21878 
106 ,19.0982 ,0.83515 ,3.36157 ,32.98374 
107 ,19.2904 ,0.83703 ,3.34446 ,32.81584 
108 ,19.4664 ,0.83885 ,3.33077 ,32.68153 
109 ,19.6426 ,0.84056 ,3.32393 ,32.61437 
110 ,19.8187 ,0.84241 ,3.28628 ,32.24501 
111 ,20.0114 ,0.84426 ,3.27259 ,32.11070 
112 ,20.1705 ,0.84601 ,3.26233 ,32.00996 
113 ,20.3628 ,0.84774 ,3.23837 ,31.77492 
114 ,20.5549 ,0.84970 ,3.21442 ,31.53987 
115 ,20.7311 ,0.85150 ,3.20073 ,31.40555 
116 ,20.9230 ,0.85337 ,3.20073 ,31.40555 
117 ,21.1150 ,0.85538 ,3.17335 ,31.13693 
118 ,21.3073 ,0.85720 ,3.17335 ,31.13693 
119 ,21.4834 ,0.85901 ,3.15624 ,30.96904 
120 ,21.6594 ,0.86079 ,3.13229 ,30.73399 
121 ,21.8515 ,0.86268 ,3.10491 ,30.46536 
122 ,22.0436 ,0.86452 ,3.09464 ,30.36463 
123 ,22.2354 ,0.86641 ,3.07411 ,30.16316 
124 ,22.4120 ,0.86831 ,3.05700 ,29.99527 
125 ,22.5876 ,0.87003 ,3.03647 ,29.79380 
126 ,22.7799 ,0.87192 ,3.02620 ,29.69306 
127 ,22.9557 ,0.87372 ,3.00567 ,29.49159 
128 ,23.1320 ,0.87548 ,2.99198 ,29.35728 
129 ,23.3239 ,0.87740 ,2.98855 ,29.32370 
130 ,23.5156 ,0.87923 ,2.96118 ,29.05507 
131 ,23.6917 ,0.88108 ,2.94064 ,28.85360 
132 ,23.8680 ,0.88283 ,2.93380 ,28.78645 
133 ,24.0923 ,0.88496 ,2.90642 ,28.51782 
134 ,24.2682 ,0.88688 ,2.88589 ,28.31635 
135 ,24.4605 ,0.88877 ,2.87905 ,28.24919 
136 ,24.6526 ,0.89071 ,2.84825 ,27.94699 
137 ,24.8285 ,0.89242 ,2.84482 ,27.91341 
138 ,25.0207 ,0.89436 ,2.83114 ,27.77910 
139 ,25.2128 ,0.89621 ,2.81060 ,27.57763 
140 ,25.3883 ,0.89803 ,2.79691 ,27.44332 
141 ,25.5650 ,0.89981 ,2.78665 ,27.34258 
142 ,25.7410 ,0.90156 ,2.77296 ,27.20827 
143 ,25.9169 ,0.90335 ,2.75585 ,27.04038 
144 ,26.0932 ,0.90504 ,2.73874 ,26.87248 
145 ,26.2690 ,0.90688 ,2.73189 ,26.80533 
146 ,26.4450 ,0.90860 ,2.72505 ,26.73817 
147 ,26.6050 ,0.91032 ,2.71136 ,26.60386 
148 ,26.7649 ,0.91191 ,2.69425 ,26.43597 
149 ,26.9411 ,0.91351 ,2.68056 ,26.30165 
150 ,27.1334 ,0.91543 ,2.64292 ,25.93229 
151 ,27.3257 ,0.91730 ,2.64292 ,25.93229 
152 ,27.5014 ,0.91921 ,2.63607 ,25.86514 
153 ,27.6778 ,0.92094 ,2.59843 ,25.49577 
154 ,27.8538 ,0.92271 ,2.58816 ,25.39504 
155 ,28.0299 ,0.92456 ,2.59501 ,25.46220 
156 ,28.2059 ,0.92619 ,2.56763 ,25.19357 
157 ,28.3982 ,0.92806 ,2.57447 ,25.26073 
158 ,28.5581 ,0.92986 ,2.52656 ,24.79063 
159 ,28.7342 ,0.93151 ,2.52314 ,24.75705 
160 ,28.9105 ,0.93327 ,2.50261 ,24.55558 
161 ,29.0864 ,0.93507 ,2.49576 ,24.48842 
162 ,29.2624 ,0.93677 ,2.48550 ,24.38769 
163 ,29.4385 ,0.93851 ,2.46154 ,24.15264 
164 ,29.6145 ,0.94027 ,2.44443 ,23.98475 
165 ,29.7906 ,0.94208 ,2.42048 ,23.74970 
166 ,29.9667 ,0.94380 ,2.42390 ,23.78328 
167 ,30.1588 ,0.94574 ,2.41363 ,23.68255 
168 ,30.3349 ,0.94748 ,2.37256 ,23.27961 
169 ,30.5113 ,0.94931 ,2.36572 ,23.21245 
170 ,30.6867 ,0.95101 ,2.37599 ,23.31318 
171 ,30.8631 ,0.95282 ,2.35203 ,23.07814 
172 ,31.0551 ,0.95463 ,2.32465 ,22.80951 
173 ,31.2473 ,0.95661 ,2.33150 ,22.87667 
174 ,31.4233 ,0.95840 ,2.31097 ,22.67520 
175 ,31.6153 ,0.96027 ,2.28017 ,22.37299 
176 ,31.8076 ,0.96221 ,2.27332 ,22.30584 
177 ,32.0315 ,0.96429 ,2.26648 ,22.23868 
178 ,32.2078 ,0.96620 ,2.24594 ,22.03721 
179 ,32.3997 ,0.96814 ,2.22883 ,21.86932 
180 ,32.5758 ,0.96989 ,2.20830 ,21.66785 
181 ,32.7518 ,0.97162 ,2.18777 ,21.46638 
182 ,32.9279 ,0.97337 ,2.19119 ,21.49996 
183 ,33.1039 ,0.97518 ,2.18435 ,21.43280 
184 ,33.2960 ,0.97700 ,2.16381 ,21.23133 
185 ,33.4722 ,0.97888 ,2.13644 ,20.96270 
186 ,33.6484 ,0.98063 ,2.12617 ,20.86197 
187 ,33.8242 ,0.98245 ,2.11590 ,20.76123 
188 ,34.0001 ,0.98413 ,2.10221 ,20.62692 
189 ,34.1924 ,0.98602 ,2.08510 ,20.45903 
190 ,34.3685 ,0.98774 ,2.07141 ,20.32472 
191 ,34.5445 ,0.98956 ,2.07484 ,20.35829 
192 ,34.7206 ,0.99136 ,2.05088 ,20.12325 
193 ,34.8967 ,0.99308 ,2.03719 ,19.98893 
194 ,35.0888 ,0.99497 ,2.02008 ,19.82104 
195 ,35.2648 ,0.99675 ,2.00639 ,19.68673 
196 ,35.4410 ,0.99848 ,1.98928 ,19.51884 
197 ,35.6169 ,1.00031 ,1.97902 ,19.41810 
198 ,35.8092 ,1.00219 ,1.96533 ,19.28379 
199 ,36.0012 ,1.00404 ,1.94822 ,19.11590 
200 ,36.1934 ,1.00609 ,1.92768 ,18.91443 
201 ,36.3693 ,1.00778 ,1.90373 ,18.67938 
202 ,36.5775 ,1.00985 ,1.89346 ,18.57864 
203 ,36.7535 ,1.01169 ,1.88319 ,18.47791 
204 ,36.9295 ,1.01338 ,1.87635 ,18.41075 
205 ,37.1058 ,1.01519 ,1.86951 ,18.34360 
206 ,37.2977 ,1.01710 ,1.84897 ,18.14213 
207 ,37.4738 ,1.01880 ,1.81817 ,17.83992 
208 ,37.6500 ,1.02061 ,1.81133 ,17.77276 
209 ,37.8417 ,1.02249 ,1.80791 ,17.73919 
210 ,38.0177 ,1.02427 ,1.78395 ,17.50414 
211 ,38.1941 ,1.02608 ,1.78053 ,17.47056 
212 ,38.3702 ,1.02781 ,1.76342 ,17.30267 
213 ,38.5463 ,1.02956 ,1.76000 ,17.26909 
214 ,38.7221 ,1.03134 ,1.74973 ,17.16836 
215 ,38.8984 ,1.03312 ,1.71893 ,16.86615 
216 ,39.0584 ,1.03481 ,1.71209 ,16.79899 
217 ,39.2345 ,1.03644 ,1.69498 ,16.63110 
218 ,39.4105 ,1.03822 ,1.67102 ,16.39605 
219 ,39.5868 ,1.03994 ,1.67444 ,16.42963 
220 ,39.7627 ,1.04173 ,1.67102 ,16.39605 
221 ,39.9387 ,1.04352 ,1.65391 ,16.22816 
222 ,40.1309 ,1.04542 ,1.62653 ,15.95954 
223 ,40.3227 ,1.04731 ,1.62311 ,15.92596 
224 ,40.4991 ,1.04908 ,1.61627 ,15.85880 
225 ,40.7070 ,1.05116 ,1.59573 ,15.65733 
226 ,40.8992 ,1.05297 ,1.57862 ,15.48944 
227 ,41.0909 ,1.05496 ,1.54440 ,15.15366 
228 ,41.2674 ,1.05674 ,1.54440 ,15.15366 
229 ,41.4594 ,1.05871 ,1.53756 ,15.08650 
230 ,41.6514 ,1.06062 ,1.49991 ,14.71714 
231 ,41.8594 ,1.06260 ,1.50676 ,14.78430 
232 ,42.0677 ,1.06461 ,1.49307 ,14.64998 
233 ,42.2596 ,1.06664 ,1.47253 ,14.44851 
234 ,42.4358 ,1.06852 ,1.46227 ,14.34778 
235 ,42.6277 ,1.07034 ,1.44174 ,14.14631 
236 ,42.8038 ,1.07215 ,1.43147 ,14.04557 
237 ,42.9799 ,1.07391 ,1.42120 ,13.94484 
238 ,43.1721 ,1.07578 ,1.40067 ,13.74337 
239 ,43.3480 ,1.07759 ,1.37671 ,13.50832 
240 ,43.5404 ,1.07950 ,1.38014 ,13.54190 
241 ,43.7165 ,1.08124 ,1.34591 ,13.20612 
242 ,43.9243 ,1.08326 ,1.34591 ,13.20612 
243 ,44.1167 ,1.08514 ,1.33907 ,13.13896 
244 ,44.2922 ,1.08699 ,1.31169 ,12.87033 
245 ,44.4847 ,1.08888 ,1.31512 ,12.90391 
246 ,44.6606 ,1.09066 ,1.30143 ,12.76960 
247 ,44.8368 ,1.09244 ,1.27747 ,12.53455 
248 ,45.0131 ,1.09426 ,1.26720 ,12.43381 
249 ,45.2048 ,1.09615 ,1.25694 ,12.33308 
250 ,45.3810 ,1.09786 ,1.25352 ,12.29950 
251 ,45.5570 ,1.09962 ,1.22956 ,12.06445 
252 ,45.7492 ,1.10162 ,1.19534 ,11.72867 
253 ,45.9253 ,1.10331 ,1.20903 ,11.86298 
254 ,46.1013 ,1.10513 ,1.19534 ,11.72867 
255 ,46.2772 ,1.10687 ,1.18165 ,11.59436 
256 ,46.4534 ,1.10859 ,1.17138 ,11.49362 
257 ,46.6296 ,1.11035 ,1.14743 ,11.25857 
258 ,46.8056 ,1.11214 ,1.13374 ,11.12426 
259 ,46.9975 ,1.11405 ,1.12690 ,11.05710 
260 ,47.1737 ,1.11582 ,1.10636 ,10.85563 
261 ,47.3498 ,1.11757 ,1.08925 ,10.68774 
262 ,47.5259 ,1.11934 ,1.09267 ,10.72132 
263 ,47.7178 ,1.12124 ,1.06530 ,10.45270 
264 ,47.8940 ,1.12302 ,1.04819 ,10.28480 
265 ,48.0862 ,1.12493 ,1.04134 ,10.21765 
266 ,48.2622 ,1.12671 ,1.03108 ,10.11691 
267 ,48.4542 ,1.12863 ,1.01739 ,9.98260 
268 ,48.6304 ,1.13041 ,0.99685 ,9.78113 
269 ,48.8220 ,1.13229 ,1.00370 ,9.84829 
270 ,48.9983 ,1.13404 ,1.00028 ,9.81471 
271 ,49.1745 ,1.13583 ,0.97290 ,9.54608 
272 ,49.3505 ,1.13758 ,0.94894 ,9.31103 
273 ,49.5265 ,1.13931 ,0.94894 ,9.31103 
274 ,49.7184 ,1.14118 ,0.93183 ,9.14314 
275 ,49.9110 ,1.14307 ,0.92157 ,9.04241 
276 ,50.0869 ,1.14491 ,0.89077 ,8.74020 
277 ,50.2629 ,1.14672 ,0.90103 ,8.84094 
278 ,50.4551 ,1.14850 ,0.88392 ,8.67305 
279 ,50.6307 ,1.15038 ,0.85654 ,8.40442 
280 ,50.8068 ,1.15214 ,0.84970 ,8.33726 
281 ,50.9827 ,1.15393 ,0.83259 ,8.16937 
282 ,51.1588 ,1.15561 ,0.83259 ,8.16937 
283 ,51.3353 ,1.15746 ,0.82232 ,8.06864 
284 ,51.5595 ,1.15965 ,0.80179 ,7.86717 
285 ,51.7355 ,1.16154 ,0.77441 ,7.59854 
286 ,51.9115 ,1.16313 ,0.77099 ,7.56496 
287 ,52.1036 ,1.16502 ,0.75388 ,7.39707 
288 ,52.2796 ,1.16683 ,0.76757 ,7.53138 
289 ,52.4717 ,1.16876 ,0.73335 ,7.19560 
290 ,52.6478 ,1.17056 ,0.71624 ,7.02771 
291 ,52.8080 ,1.17224 ,0.71281 ,6.99413 
292 ,53.0000 ,1.17408 ,0.69570 ,6.82624 
293 ,53.1760 ,1.17580 ,0.68544 ,6.72550 
294 ,53.3521 ,1.17753 ,0.66833 ,6.55761 
295 ,53.5282 ,1.17931 ,0.65464 ,6.42330 
296 ,53.7044 ,1.18109 ,0.64779 ,6.35614 
297 ,53.8804 ,1.18288 ,0.64095 ,6.28899 
298 ,54.0564 ,1.18456 ,0.63410 ,6.22183 
299 ,54.2324 ,1.18638 ,0.61357 ,6.02036 
300 ,54.4087 ,1.18816 ,0.59988 ,5.88605 
301 ,54.5846 ,1.18988 ,0.58619 ,5.75173 
302 ,54.7765 ,1.19179 ,0.57593 ,5.65100 
303 ,54.9525 ,1.19359 ,0.57593 ,5.65100 
304 ,55.1285 ,1.19534 ,0.55882 ,5.48311 
305 ,55.3046 ,1.19712 ,0.52802 ,5.18090 
306 ,55.4807 ,1.19883 ,0.53144 ,5.21448 
307 ,55.6407 ,1.20056 ,0.52117 ,5.11375 
308 ,55.8168 ,1.20219 ,0.51775 ,5.08017 
309 ,55.9930 ,1.20398 ,0.49722 ,4.87870 
310 ,56.1852 ,1.20588 ,0.48011 ,4.71081 
311 ,56.3774 ,1.20770 ,0.46300 ,4.54291 
312 ,56.5696 ,1.20965 ,0.44588 ,4.37502 
313 ,56.7617 ,1.21162 ,0.44246 ,4.34144 
314 ,56.9374 ,1.21342 ,0.44246 ,4.34144 
315 ,57.1138 ,1.21519 ,0.41851 ,4.10640 
316 ,57.3057 ,1.21712 ,0.39455 ,3.87135 
317 ,57.4820 ,1.21888 ,0.40140 ,3.93850 
318 ,57.6580 ,1.22064 ,0.38429 ,3.77061 
319 ,57.8337 ,1.22241 ,0.36375 ,3.56914 
320 ,58.0099 ,1.22411 ,0.35691 ,3.50199 
321 ,58.1863 ,1.22589 ,0.33638 ,3.30052 
322 ,58.3782 ,1.22782 ,0.35349 ,3.46841 
323 ,58.5544 ,1.22961 ,0.31926 ,3.13263 
324 ,58.7623 ,1.23156 ,0.29873 ,2.93116 
325 ,58.9385 ,1.23344 ,0.30900 ,3.03189 
326 ,59.1306 ,1.23532 ,0.26451 ,2.59537 
327 ,59.3066 ,1.23712 ,0.26451 ,2.59537 
328 ,59.4825 ,1.23882 ,0.25767 ,2.52822 
329 ,59.6588 ,1.24061 ,0.25767 ,2.52822 
330 ,59.8348 ,1.24232 ,0.23713 ,2.32675 
331 ,60.0107 ,1.24414 ,0.21660 ,2.12528 
332 ,60.1867 ,1.24589 ,0.20976 ,2.05812 
333 ,60.3630 ,1.24767 ,0.20291 ,1.99096 
334 ,60.5392 ,1.24942 ,0.18922 ,1.85665 
335 ,60.7152 ,1.25117 ,0.18580 ,1.82307 
336 ,60.9069 ,1.25312 ,0.16527 ,1.62160 
337 ,61.0834 ,1.25485 ,0.15500 ,1.52087 
338 ,61.2755 ,1.25673 ,0.15842 ,1.55445 
339 ,61.4516 ,1.25857 ,0.13447 ,1.31940 
340 ,61.6276 ,1.26029 ,0.11393 ,1.11793 
341 ,61.8196 ,1.26219 ,0.11051 ,1.08435 
342 ,62.0117 ,1.26414 ,0.10367 ,1.01719 
343 ,62.1877 ,1.26586 ,0.06602 ,0.64783 
344 ,62.3638 ,1.26764 ,0.06945 ,0.68141 
345 ,62.5399 ,1.26939 ,0.07287 ,0.71499 
346 ,62.7318 ,1.27121 ,0.05576 ,0.54710 
347 ,62.9242 ,1.27315 ,0.03865 ,0.37920 
348 ,63.1001 ,1.27504 ,0.02838 ,0.27847 
349 ,63.2923 ,1.27695 ,0.01811 ,0.17773 
350 ,63.4682 ,1.27868 ,-0.00242 ,-0.02373 
351 ,63.6765 ,1.28065 ,-0.00926 ,-0.09089 
352 ,63.8525 ,1.28258 ,-0.01953 ,-0.19163 
353 ,64.0286 ,1.28431 ,-0.03664 ,-0.35952 
354 ,64.2205 ,1.28621 ,-0.03664 ,-0.35952 
355 ,64.3966 ,1.28798 ,-0.04691 ,-0.46025 
356 ,64.5888 ,1.28985 ,-0.08113 ,-0.79604 
357 ,64.7969 ,1.29192 ,-0.06744 ,-0.66172 
358 ,64.9728 ,1.29370 ,-0.08455 ,-0.82961 
359 ,65.1491 ,1.29549 ,-0.10508 ,-1.03108 
360 ,65.3247 ,1.29727 ,-0.12562 ,-1.23255 
361 ,65.5010 ,1.29899 ,-0.12904 ,-1.26613 
362 ,65.6770 ,1.30081 ,-0.11877 ,-1.16540 
363 ,65.8694 ,1.30273 ,-0.14615 ,-1.43402 
364 ,66.0614 ,1.30461 ,-0.15984 ,-1.56834 
365 ,66.2376 ,1.30638 ,-0.15299 ,-1.50118 
366 ,66.4296 ,1.30830 ,-0.18037 ,-1.76981 
367 ,66.6054 ,1.31008 ,-0.18722 ,-1.83696 
368 ,66.7818 ,1.31180 ,-0.19748 ,-1.93770 
369 ,66.9576 ,1.31362 ,-0.19748 ,-1.93770 
370 ,67.1338 ,1.31533 ,-0.20090 ,-1.97128 
371 ,67.3257 ,1.31716 ,-0.22144 ,-2.17275 
372 ,67.5183 ,1.31913 ,-0.21459 ,-2.10559 
373 ,67.7100 ,1.32104 ,-0.24539 ,-2.40779 
374 ,67.8862 ,1.32283 ,-0.25566 ,-2.50853 
375 ,68.0778 ,1.32467 ,-0.25224 ,-2.47495 
376 ,68.2704 ,1.32657 ,-0.26250 ,-2.57569 
377 ,68.4623 ,1.32856 ,-0.28646 ,-2.81073 
378 ,68.6385 ,1.33034 ,-0.27619 ,-2.71000 
379 ,68.8306 ,1.33222 ,-0.30699 ,-3.01220 
380 ,69.0067 ,1.33414 ,-0.31726 ,-3.11294 
381 ,69.1828 ,1.33581 ,-0.32752 ,-3.21367 
382 ,69.3588 ,1.33757 ,-0.32752 ,-3.21367 
383 ,69.5509 ,1.33954 ,-0.33437 ,-3.28083 
384 ,69.7268 ,1.34126 ,-0.34121 ,-3.34799 
385 ,69.9189 ,1.34306 ,-0.34806 ,-3.41514 
386 ,70.0950 ,1.34493 ,-0.34464 ,-3.38156 
387 ,70.2712 ,1.34671 ,-0.36859 ,-3.61661 
388 ,70.4791 ,1.34862 ,-0.38912 ,-3.81808 
389 ,70.6553 ,1.35053 ,-0.38912 ,-3.81808 
390 ,70.8309 ,1.35232 ,-0.38228 ,-3.75093 
391 ,71.0075 ,1.35410 ,-0.39939 ,-3.91882 
392 ,71.1834 ,1.35582 ,-0.44388 ,-4.35534 
393 ,71.3591 ,1.35754 ,-0.42335 ,-4.15387 
394 ,71.5356 ,1.35932 ,-0.42335 ,-4.15387 
395 ,71.7118 ,1.36107 ,-0.43019 ,-4.22102 
396 ,71.8873 ,1.36283 ,-0.44388 ,-4.35534 
397 ,72.0638 ,1.36464 ,-0.46441 ,-4.55681 
398 ,72.2400 ,1.36637 ,-0.46783 ,-4.59038 
399 ,72.4318 ,1.36822 ,-0.45414 ,-4.45607 
400 ,72.6085 ,1.37007 ,-0.47810 ,-4.69112 
401 ,72.7841 ,1.37182 ,-0.48837 ,-4.79185 
402 ,72.9761 ,1.37373 ,-0.49863 ,-4.89259 
403 ,73.1524 ,1.37548 ,-0.50548 ,-4.95975 
404 ,73.3284 ,1.37723 ,-0.51917 ,-5.09406 
405 ,73.5204 ,1.37910 ,-0.53628 ,-5.26195 
406 ,73.6965 ,1.38092 ,-0.52943 ,-5.19479 
407 ,73.8725 ,1.38274 ,-0.52259 ,-5.12764 
408 ,74.0646 ,1.38459 ,-0.54997 ,-5.39626 
409 ,74.2566 ,1.38647 ,-0.55681 ,-5.46342 
410 ,74.4328 ,1.38828 ,-0.56023 ,-5.49700 
411 ,74.6249 ,1.39023 ,-0.57734 ,-5.66489 
412 ,74.8010 ,1.39195 ,-0.58761 ,-5.76562 
413 ,74.9767 ,1.39374 ,-0.58419 ,-5.73205 
414 ,75.1531 ,1.39548 ,-0.57392 ,-5.63131 
415 ,75.3451 ,1.39742 ,-0.60814 ,-5.96709 
416 ,75.5212 ,1.39917 ,-0.62525 ,-6.13499 
417 ,75.6972 ,1.40092 ,-0.62525 ,-6.13499 
418 ,75.8732 ,1.40264 ,-0.63210 ,-6.20214 
419 ,76.0491 ,1.40443 ,-0.63552 ,-6.23572 
420 ,76.2254 ,1.40625 ,-0.64579 ,-6.33646 
421 ,76.4179 ,1.40816 ,-0.65605 ,-6.43719 
422 ,76.5933 ,1.40994 ,-0.66290 ,-6.50435 
423 ,76.7856 ,1.41183 ,-0.68343 ,-6.70582 
424 ,76.9615 ,1.41354 ,-0.69370 ,-6.80655 
425 ,77.1374 ,1.41533 ,-0.70054 ,-6.87371 
426 ,77.3139 ,1.41711 ,-0.69370 ,-6.80655 
427 ,77.5218 ,1.41912 ,-0.71765 ,-7.04160 
428 ,77.7140 ,1.42107 ,-0.71423 ,-7.00802 
429 ,77.8902 ,1.42288 ,-0.71765 ,-7.04160 
430 ,78.0823 ,1.42478 ,-0.75530 ,-7.41096 
431 ,78.2582 ,1.42668 ,-0.73818 ,-7.24307 
432 ,78.4343 ,1.42826 ,-0.75187 ,-7.37738 
433 ,78.6106 ,1.43005 ,-0.74845 ,-7.34380 
434 ,78.8025 ,1.43195 ,-0.77925 ,-7.64601 
435 ,78.9622 ,1.43370 ,-0.77925 ,-7.64601 
436 ,79.1388 ,1.43534 ,-0.77925 ,-7.64601 
437 ,79.3144 ,1.43706 ,-0.79636 ,-7.81390 
438 ,79.4908 ,1.43887 ,-0.78267 ,-7.67959 
439 ,79.6827 ,1.44068 ,-0.79636 ,-7.81390 
440 ,79.8590 ,1.44250 ,-0.81347 ,-7.98179 
441 ,80.0509 ,1.44441 ,-0.82032 ,-8.04895 
442 ,80.2270 ,1.44619 ,-0.84427 ,-8.28400 
443 ,80.4032 ,1.44801 ,-0.83743 ,-8.21684 
444 ,80.5789 ,1.44969 ,-0.85454 ,-8.38473 
445 ,80.7553 ,1.45148 ,-0.85112 ,-8.35115 
446 ,80.9315 ,1.45329 ,-0.84427 ,-8.28400 
447 ,81.1071 ,1.45501 ,-0.86823 ,-8.51904 
448 ,81.2996 ,1.45683 ,-0.88192 ,-8.65336 
449 ,81.4755 ,1.45868 ,-0.88534 ,-8.68694 
450 ,81.6676 ,1.46057 ,-0.89560 ,-8.78767 
451 ,81.8438 ,1.46237 ,-0.90929 ,-8.92198 
452 ,82.0357 ,1.46429 ,-0.90929 ,-8.92198 
453 ,82.2279 ,1.46623 ,-0.90929 ,-8.92198 
454 ,82.4037 ,1.46805 ,-0.92640 ,-9.08988 
455 ,82.5801 ,1.46977 ,-0.94009 ,-9.22419 
456 ,82.7719 ,1.47169 ,-0.94009 ,-9.22419 
457 ,82.9482 ,1.47344 ,-0.93667 ,-9.19061 
458 ,83.1244 ,1.47519 ,-0.95720 ,-9.39208 
459 ,83.3164 ,1.47709 ,-0.96405 ,-9.45924 
460 ,83.4923 ,1.47888 ,-0.97089 ,-9.52639 
461 ,83.6845 ,1.48075 ,-0.98458 ,-9.66071 
462 ,83.8922 ,1.48286 ,-0.98800 ,-9.69429 
