Data stamp = , 03-04-2022 05:30:41 304

Calibration Values: 
Slope = , 26.54 , g/V 
Offset Voltage at no contact = , -0.501760 , V 

No , Time , Stage Position ,   Mass , Force 
   ,  (s) ,      (mm)      ,   (g)  , (mN)  

1 ,0.0000 ,0.59943 ,5.23692 ,51.38464 
2 ,0.2132 ,0.59951 ,5.26772 ,51.68685 
3 ,0.5176 ,0.60024 ,5.24718 ,51.48538 
4 ,0.7096 ,0.60165 ,5.24034 ,51.41822 
5 ,0.9017 ,0.60324 ,5.24718 ,51.48538 
6 ,1.0773 ,0.60500 ,5.25403 ,51.55254 
7 ,1.2538 ,0.60675 ,5.25745 ,51.58611 
8 ,1.4459 ,0.60865 ,5.25061 ,51.51896 
9 ,1.6216 ,0.61041 ,5.24718 ,51.48538 
10 ,1.7978 ,0.61214 ,5.24376 ,51.45180 
11 ,1.9904 ,0.61411 ,5.21296 ,51.14960 
12 ,2.1658 ,0.61589 ,5.19927 ,51.01528 
13 ,2.3423 ,0.61762 ,5.19927 ,51.01528 
14 ,2.5339 ,0.61955 ,5.17190 ,50.74666 
15 ,2.7100 ,0.62131 ,5.15821 ,50.61234 
16 ,2.8860 ,0.62309 ,5.14452 ,50.47803 
17 ,3.0787 ,0.62490 ,5.13425 ,50.37729 
18 ,3.2706 ,0.62700 ,5.10003 ,50.04151 
19 ,3.4468 ,0.62870 ,5.08977 ,49.94078 
20 ,3.6228 ,0.63045 ,5.08634 ,49.90720 
21 ,3.8469 ,0.63254 ,5.04528 ,49.50426 
22 ,4.0230 ,0.63443 ,5.03843 ,49.43710 
23 ,4.2150 ,0.63637 ,5.03843 ,49.43710 
24 ,4.3915 ,0.63809 ,5.01790 ,49.23563 
25 ,4.5672 ,0.63987 ,4.99394 ,49.00058 
26 ,4.7432 ,0.64159 ,4.99052 ,48.96701 
27 ,4.9195 ,0.64342 ,4.99394 ,49.00058 
28 ,5.0954 ,0.64519 ,4.96315 ,48.69838 
29 ,5.2714 ,0.64686 ,4.93919 ,48.46333 
30 ,5.4476 ,0.64870 ,4.92208 ,48.29544 
31 ,5.6555 ,0.65065 ,4.90155 ,48.09397 
32 ,5.8317 ,0.65250 ,4.89812 ,48.06039 
33 ,6.0237 ,0.65446 ,4.89128 ,47.99324 
34 ,6.1998 ,0.65619 ,4.86390 ,47.72461 
35 ,6.3756 ,0.65794 ,4.85021 ,47.59030 
36 ,6.5680 ,0.65975 ,4.81941 ,47.28809 
37 ,6.7600 ,0.66179 ,4.81599 ,47.25451 
38 ,6.9361 ,0.66354 ,4.79888 ,47.08662 
39 ,7.1121 ,0.66529 ,4.78519 ,46.95231 
40 ,7.2884 ,0.66709 ,4.76808 ,46.78442 
41 ,7.4801 ,0.66899 ,4.76466 ,46.75084 
42 ,7.6564 ,0.67072 ,4.73044 ,46.41506 
43 ,7.8326 ,0.67250 ,4.70648 ,46.18001 
44 ,8.0246 ,0.67441 ,4.70990 ,46.21359 
45 ,8.2327 ,0.67638 ,4.65173 ,45.64275 
46 ,8.4088 ,0.67822 ,4.65173 ,45.64275 
47 ,8.6008 ,0.68018 ,4.62777 ,45.40771 
48 ,8.8090 ,0.68211 ,4.59697 ,45.10550 
49 ,8.9850 ,0.68405 ,4.60040 ,45.13908 
50 ,9.1770 ,0.68595 ,4.56617 ,44.80330 
51 ,9.3531 ,0.68769 ,4.54222 ,44.56825 
52 ,9.5289 ,0.68960 ,4.53880 ,44.53467 
53 ,9.7053 ,0.69125 ,4.52853 ,44.43394 
54 ,9.9130 ,0.69326 ,4.50115 ,44.16531 
55 ,10.0895 ,0.69511 ,4.49089 ,44.06457 
56 ,10.2814 ,0.69705 ,4.46351 ,43.79595 
57 ,10.4577 ,0.69869 ,4.44982 ,43.66163 
58 ,10.6334 ,0.70050 ,4.41560 ,43.32585 
59 ,10.8098 ,0.70229 ,4.40191 ,43.19154 
60 ,10.9863 ,0.70409 ,4.38822 ,43.05723 
61 ,11.1780 ,0.70598 ,4.36427 ,42.82218 
62 ,11.3538 ,0.70775 ,4.35742 ,42.75502 
63 ,11.5300 ,0.70949 ,4.33347 ,42.51997 
64 ,11.6898 ,0.71120 ,4.33347 ,42.51997 
65 ,11.8662 ,0.71282 ,4.31978 ,42.38566 
66 ,12.0583 ,0.71480 ,4.28556 ,42.04988 
67 ,12.2504 ,0.71659 ,4.27187 ,41.91556 
68 ,12.4263 ,0.71843 ,4.26160 ,41.81483 
69 ,12.6181 ,0.72035 ,4.22738 ,41.47905 
70 ,12.7784 ,0.72206 ,4.19658 ,41.17684 
71 ,12.9545 ,0.72368 ,4.18974 ,41.10968 
72 ,13.1306 ,0.72547 ,4.18631 ,41.07611 
73 ,13.3066 ,0.72720 ,4.17947 ,41.00895 
74 ,13.4829 ,0.72900 ,4.14525 ,40.67317 
75 ,13.6586 ,0.73079 ,4.13156 ,40.53885 
76 ,13.8350 ,0.73247 ,4.10076 ,40.23665 
77 ,14.0270 ,0.73442 ,4.10076 ,40.23665 
78 ,14.2189 ,0.73639 ,4.06996 ,39.93444 
79 ,14.4111 ,0.73818 ,4.05285 ,39.76655 
80 ,14.6031 ,0.74021 ,4.03916 ,39.63224 
81 ,14.7794 ,0.74195 ,4.01520 ,39.39719 
82 ,14.9713 ,0.74379 ,3.98783 ,39.12856 
83 ,15.1474 ,0.74560 ,4.00152 ,39.26288 
84 ,15.3233 ,0.74741 ,3.96729 ,38.92709 
85 ,15.5155 ,0.74930 ,3.95018 ,38.75920 
86 ,15.6915 ,0.75112 ,3.92281 ,38.49058 
87 ,15.8835 ,0.75305 ,3.91596 ,38.42342 
88 ,16.0598 ,0.75475 ,3.89885 ,38.25553 
89 ,16.2678 ,0.75678 ,3.88858 ,38.15479 
90 ,16.4598 ,0.75867 ,3.86121 ,37.88617 
91 ,16.6521 ,0.76068 ,3.84410 ,37.71828 
92 ,16.8280 ,0.76245 ,3.84067 ,37.68470 
93 ,17.0042 ,0.76417 ,3.80303 ,37.31534 
94 ,17.1962 ,0.76603 ,3.78592 ,37.14744 
95 ,17.3724 ,0.76788 ,3.75854 ,36.87882 
96 ,17.5482 ,0.76962 ,3.76196 ,36.91240 
97 ,17.7405 ,0.77144 ,3.75170 ,36.81166 
98 ,17.9164 ,0.77331 ,3.70721 ,36.37514 
99 ,18.0767 ,0.77501 ,3.70379 ,36.34157 
100 ,18.2527 ,0.77663 ,3.69010 ,36.20725 
101 ,18.4290 ,0.77842 ,3.67299 ,36.03936 
102 ,18.6205 ,0.78026 ,3.63534 ,35.67000 
103 ,18.7965 ,0.78208 ,3.63534 ,35.67000 
104 ,18.9728 ,0.78384 ,3.62850 ,35.60284 
105 ,19.1490 ,0.78559 ,3.61823 ,35.50211 
106 ,19.3253 ,0.78743 ,3.60112 ,35.33422 
107 ,19.5172 ,0.78932 ,3.56690 ,34.99843 
108 ,19.6933 ,0.79102 ,3.55663 ,34.89770 
109 ,19.8695 ,0.79282 ,3.54295 ,34.76338 
110 ,20.0457 ,0.79457 ,3.52926 ,34.62907 
111 ,20.2375 ,0.79654 ,3.49846 ,34.32687 
112 ,20.4296 ,0.79842 ,3.49846 ,34.32687 
113 ,20.6056 ,0.80017 ,3.48477 ,34.19255 
114 ,20.7818 ,0.80201 ,3.46081 ,33.95751 
115 ,20.9580 ,0.80368 ,3.42317 ,33.58814 
116 ,21.1497 ,0.80555 ,3.43686 ,33.72246 
117 ,21.3261 ,0.80740 ,3.41633 ,33.52099 
118 ,21.5183 ,0.80925 ,3.38895 ,33.25236 
119 ,21.6944 ,0.81109 ,3.37526 ,33.11805 
120 ,21.8862 ,0.81292 ,3.34446 ,32.81584 
121 ,22.0623 ,0.81474 ,3.35815 ,32.95016 
122 ,22.2381 ,0.81652 ,3.31708 ,32.54722 
123 ,22.4145 ,0.81827 ,3.31708 ,32.54722 
124 ,22.6066 ,0.82020 ,3.30682 ,32.44648 
125 ,22.7827 ,0.82199 ,3.29655 ,32.34575 
126 ,23.0065 ,0.82403 ,3.27602 ,32.14428 
127 ,23.1829 ,0.82595 ,3.25548 ,31.94281 
128 ,23.3747 ,0.82788 ,3.24522 ,31.84207 
129 ,23.5510 ,0.82963 ,3.22811 ,31.67418 
130 ,23.7270 ,0.83142 ,3.21442 ,31.53987 
131 ,23.9030 ,0.83315 ,3.19046 ,31.30482 
132 ,24.0951 ,0.83495 ,3.16993 ,31.10335 
133 ,24.2712 ,0.83683 ,3.16993 ,31.10335 
134 ,24.4474 ,0.83856 ,3.15966 ,31.00262 
135 ,24.6394 ,0.84051 ,3.12886 ,30.70041 
136 ,24.8155 ,0.84232 ,3.11860 ,30.59968 
137 ,24.9915 ,0.84413 ,3.10149 ,30.43178 
138 ,25.1677 ,0.84581 ,3.09806 ,30.39821 
139 ,25.3435 ,0.84757 ,3.08780 ,30.29747 
140 ,25.5357 ,0.84951 ,3.05358 ,29.96169 
141 ,25.7276 ,0.85143 ,3.04673 ,29.89453 
142 ,25.9038 ,0.85314 ,3.01593 ,29.59233 
143 ,26.0960 ,0.85508 ,3.00909 ,29.52517 
144 ,26.2720 ,0.85682 ,2.99198 ,29.35728 
145 ,26.4477 ,0.85857 ,2.98855 ,29.32370 
146 ,26.6242 ,0.86034 ,2.96460 ,29.08865 
147 ,26.8002 ,0.86213 ,2.93380 ,28.78645 
148 ,26.9760 ,0.86385 ,2.93038 ,28.75287 
149 ,27.1525 ,0.86563 ,2.93038 ,28.75287 
150 ,27.3444 ,0.86749 ,2.90300 ,28.48424 
151 ,27.5204 ,0.86930 ,2.86878 ,28.14846 
152 ,27.6967 ,0.87111 ,2.87220 ,28.18204 
153 ,27.8888 ,0.87302 ,2.87905 ,28.24919 
154 ,28.0645 ,0.87472 ,2.84140 ,27.87983 
155 ,28.2567 ,0.87668 ,2.83798 ,27.84625 
156 ,28.4323 ,0.87841 ,2.82429 ,27.71194 
157 ,28.5926 ,0.88012 ,2.80034 ,27.47689 
158 ,28.7690 ,0.88181 ,2.79691 ,27.44332 
159 ,28.9611 ,0.88372 ,2.76611 ,27.14111 
160 ,29.1371 ,0.88548 ,2.74900 ,26.97322 
161 ,29.3131 ,0.88720 ,2.75585 ,27.04038 
162 ,29.5052 ,0.88911 ,2.73531 ,26.83891 
163 ,29.6810 ,0.89093 ,2.69425 ,26.43597 
164 ,29.8574 ,0.89267 ,2.69083 ,26.40239 
165 ,30.0173 ,0.89436 ,2.69083 ,26.40239 
166 ,30.1937 ,0.89600 ,2.66687 ,26.16734 
167 ,30.4015 ,0.89804 ,2.64292 ,25.93229 
168 ,30.5777 ,0.89984 ,2.62923 ,25.79798 
169 ,30.7696 ,0.90172 ,2.63949 ,25.89871 
170 ,30.9457 ,0.90358 ,2.60869 ,25.59651 
171 ,31.1377 ,0.90535 ,2.58132 ,25.32788 
172 ,31.3138 ,0.90721 ,2.57105 ,25.22715 
173 ,31.4899 ,0.90898 ,2.57447 ,25.26073 
174 ,31.6660 ,0.91072 ,2.55052 ,25.02568 
175 ,31.8260 ,0.91244 ,2.52656 ,24.79063 
176 ,32.0019 ,0.91411 ,2.50603 ,24.58916 
177 ,32.1783 ,0.91588 ,2.50261 ,24.55558 
178 ,32.3543 ,0.91769 ,2.48207 ,24.35411 
179 ,32.5623 ,0.91964 ,2.46839 ,24.21980 
180 ,32.7385 ,0.92145 ,2.45812 ,24.11906 
181 ,32.9145 ,0.92335 ,2.45127 ,24.05191 
182 ,33.0906 ,0.92499 ,2.44101 ,23.95117 
183 ,33.2667 ,0.92674 ,2.42048 ,23.74970 
184 ,33.4586 ,0.92867 ,2.40679 ,23.61539 
185 ,33.6508 ,0.93058 ,2.40336 ,23.58181 
186 ,33.8267 ,0.93233 ,2.36914 ,23.24603 
187 ,34.0027 ,0.93409 ,2.35203 ,23.07814 
188 ,34.1790 ,0.93597 ,2.34861 ,23.04456 
189 ,34.3551 ,0.93762 ,2.32808 ,22.84309 
190 ,34.5791 ,0.93977 ,2.31781 ,22.74235 
191 ,34.7713 ,0.94181 ,2.30754 ,22.64162 
192 ,34.9628 ,0.94372 ,2.26990 ,22.27226 
193 ,35.1394 ,0.94543 ,2.25621 ,22.13794 
194 ,35.3474 ,0.94748 ,2.24937 ,22.07079 
195 ,35.5236 ,0.94934 ,2.24252 ,22.00363 
196 ,35.6996 ,0.95108 ,2.21515 ,21.73500 
197 ,35.8757 ,0.95280 ,2.20830 ,21.66785 
198 ,36.0358 ,0.95454 ,2.19461 ,21.53353 
199 ,36.2119 ,0.95616 ,2.19461 ,21.53353 
200 ,36.3879 ,0.95796 ,2.18092 ,21.39922 
201 ,36.5800 ,0.95986 ,2.15012 ,21.09702 
202 ,36.7719 ,0.96168 ,2.15012 ,21.09702 
203 ,36.9641 ,0.96359 ,2.11932 ,20.79481 
204 ,37.1402 ,0.96544 ,2.09879 ,20.59334 
205 ,37.3158 ,0.96719 ,2.09537 ,20.55976 
206 ,37.4922 ,0.96894 ,2.09195 ,20.52619 
207 ,37.6683 ,0.97072 ,2.07141 ,20.32472 
208 ,37.8445 ,0.97251 ,2.05430 ,20.15682 
209 ,38.0205 ,0.97427 ,2.04061 ,20.02251 
210 ,38.1968 ,0.97599 ,2.03377 ,19.95535 
211 ,38.3887 ,0.97795 ,2.02693 ,19.88820 
212 ,38.5645 ,0.97967 ,2.01324 ,19.75388 
213 ,38.7404 ,0.98147 ,1.98244 ,19.45168 
214 ,38.9165 ,0.98324 ,1.96875 ,19.31737 
215 ,39.0929 ,0.98506 ,1.95848 ,19.21663 
216 ,39.2529 ,0.98671 ,1.95164 ,19.14948 
217 ,39.4450 ,0.98849 ,1.93111 ,18.94801 
218 ,39.6211 ,0.99026 ,1.91399 ,18.78011 
219 ,39.7973 ,0.99203 ,1.89004 ,18.54507 
220 ,39.9733 ,0.99381 ,1.89688 ,18.61222 
221 ,40.1495 ,0.99550 ,1.88319 ,18.47791 
222 ,40.3577 ,0.99760 ,1.86266 ,18.27644 
223 ,40.5496 ,0.99955 ,1.85924 ,18.24286 
224 ,40.7416 ,1.00141 ,1.82502 ,17.90708 
225 ,40.9177 ,1.00322 ,1.80791 ,17.73919 
226 ,41.0939 ,1.00500 ,1.81133 ,17.77276 
227 ,41.2856 ,1.00692 ,1.79422 ,17.60487 
228 ,41.4619 ,1.00872 ,1.74973 ,17.16836 
229 ,41.6381 ,1.01047 ,1.76342 ,17.30267 
230 ,41.8302 ,1.01236 ,1.76000 ,17.26909 
231 ,42.0063 ,1.01415 ,1.74289 ,17.10120 
232 ,42.1984 ,1.01602 ,1.71893 ,16.86615 
233 ,42.3581 ,1.01774 ,1.71209 ,16.79899 
234 ,42.5345 ,1.01936 ,1.69840 ,16.66468 
235 ,42.7264 ,1.02129 ,1.66760 ,16.36248 
236 ,42.9024 ,1.02309 ,1.66418 ,16.32890 
237 ,43.0947 ,1.02494 ,1.65049 ,16.19458 
238 ,43.2708 ,1.02675 ,1.65049 ,16.19458 
239 ,43.4627 ,1.02867 ,1.60258 ,15.72449 
240 ,43.6388 ,1.03043 ,1.59916 ,15.69091 
241 ,43.8148 ,1.03215 ,1.59231 ,15.62375 
242 ,43.9911 ,1.03395 ,1.58547 ,15.55660 
243 ,44.1671 ,1.03570 ,1.56836 ,15.38871 
244 ,44.3431 ,1.03755 ,1.55124 ,15.22081 
245 ,44.5032 ,1.03919 ,1.54098 ,15.12008 
246 ,44.6793 ,1.04081 ,1.52387 ,14.95219 
247 ,44.8552 ,1.04259 ,1.52045 ,14.91861 
248 ,45.0310 ,1.04434 ,1.51018 ,14.81787 
249 ,45.2075 ,1.04613 ,1.47596 ,14.48209 
250 ,45.3836 ,1.04790 ,1.47596 ,14.48209 
251 ,45.5596 ,1.04962 ,1.45885 ,14.31420 
252 ,45.7357 ,1.05141 ,1.44516 ,14.17989 
253 ,45.9118 ,1.05319 ,1.43147 ,14.04557 
254 ,46.0877 ,1.05489 ,1.41094 ,13.84410 
255 ,46.2959 ,1.05695 ,1.41778 ,13.91126 
256 ,46.4720 ,1.05875 ,1.40751 ,13.81053 
257 ,46.6480 ,1.06053 ,1.38356 ,13.57548 
258 ,46.8241 ,1.06225 ,1.36303 ,13.37401 
259 ,47.0001 ,1.06402 ,1.34249 ,13.17254 
260 ,47.1919 ,1.06585 ,1.35618 ,13.30685 
261 ,47.3683 ,1.06769 ,1.32538 ,13.00465 
262 ,47.5441 ,1.06950 ,1.30143 ,12.76960 
263 ,47.7204 ,1.07123 ,1.30143 ,12.76960 
264 ,47.9126 ,1.07320 ,1.29458 ,12.70244 
265 ,48.0886 ,1.07501 ,1.26378 ,12.40024 
266 ,48.2486 ,1.07661 ,1.24667 ,12.23235 
267 ,48.4087 ,1.07823 ,1.22956 ,12.06445 
268 ,48.6007 ,1.08002 ,1.23983 ,12.16519 
269 ,48.7769 ,1.08183 ,1.21929 ,11.96372 
270 ,48.9690 ,1.08375 ,1.20561 ,11.82941 
271 ,49.1451 ,1.08554 ,1.19192 ,11.69509 
272 ,49.3371 ,1.08735 ,1.18850 ,11.66151 
273 ,49.5130 ,1.08916 ,1.18507 ,11.62794 
274 ,49.7049 ,1.09102 ,1.16454 ,11.42647 
275 ,49.8814 ,1.09277 ,1.14058 ,11.19142 
276 ,50.0575 ,1.09464 ,1.12347 ,11.02353 
277 ,50.2495 ,1.09652 ,1.10979 ,10.88921 
278 ,50.4255 ,1.09828 ,1.09267 ,10.72132 
279 ,50.6174 ,1.10013 ,1.09267 ,10.72132 
280 ,50.7936 ,1.10196 ,1.08583 ,10.65416 
281 ,50.9699 ,1.10366 ,1.04476 ,10.25123 
282 ,51.1619 ,1.10554 ,1.03792 ,10.18407 
283 ,51.3541 ,1.10751 ,1.05845 ,10.38554 
284 ,51.5300 ,1.10935 ,1.01739 ,9.98260 
285 ,51.7221 ,1.11121 ,1.00370 ,9.84829 
286 ,51.9142 ,1.11311 ,0.99685 ,9.78113 
287 ,52.0904 ,1.11491 ,0.97974 ,9.61324 
288 ,52.2664 ,1.11668 ,0.96948 ,9.51250 
289 ,52.4423 ,1.11846 ,0.94552 ,9.27745 
290 ,52.6185 ,1.12019 ,0.94894 ,9.31103 
291 ,52.8106 ,1.12208 ,0.91472 ,8.97525 
292 ,53.0026 ,1.12401 ,0.91814 ,9.00883 
293 ,53.1786 ,1.12580 ,0.90788 ,8.90809 
294 ,53.3548 ,1.12757 ,0.89077 ,8.74020 
295 ,53.5309 ,1.12931 ,0.88392 ,8.67305 
296 ,53.7228 ,1.13122 ,0.84970 ,8.33726 
297 ,53.8987 ,1.13300 ,0.85997 ,8.43800 
298 ,54.0750 ,1.13478 ,0.86681 ,8.50515 
299 ,54.2829 ,1.13679 ,0.81890 ,8.03506 
300 ,54.4592 ,1.13858 ,0.80863 ,7.93432 
301 ,54.6512 ,1.14044 ,0.80521 ,7.90074 
302 ,54.8433 ,1.14240 ,0.79152 ,7.76643 
303 ,55.0193 ,1.14418 ,0.77441 ,7.59854 
304 ,55.1954 ,1.14597 ,0.78126 ,7.66570 
305 ,55.3716 ,1.14769 ,0.74361 ,7.29633 
306 ,55.5795 ,1.14975 ,0.75046 ,7.36349 
307 ,55.7557 ,1.15153 ,0.72992 ,7.16202 
308 ,55.9477 ,1.15348 ,0.70597 ,6.92697 
309 ,56.1077 ,1.15516 ,0.70255 ,6.89340 
310 ,56.2999 ,1.15696 ,0.69228 ,6.79266 
311 ,56.4760 ,1.15876 ,0.68886 ,6.75908 
312 ,56.6680 ,1.16068 ,0.65121 ,6.38972 
313 ,56.8602 ,1.16259 ,0.66148 ,6.49046 
314 ,57.0678 ,1.16466 ,0.63068 ,6.18825 
315 ,57.2443 ,1.16639 ,0.61357 ,6.02036 
316 ,57.4364 ,1.16838 ,0.63068 ,6.18825 
317 ,57.6123 ,1.17011 ,0.60330 ,5.91962 
318 ,57.7883 ,1.17182 ,0.57935 ,5.68458 
319 ,57.9642 ,1.17361 ,0.58277 ,5.71815 
320 ,58.1403 ,1.17537 ,0.56566 ,5.55026 
321 ,58.3167 ,1.17720 ,0.56224 ,5.51668 
322 ,58.5086 ,1.17909 ,0.53486 ,5.24806 
323 ,58.6848 ,1.18087 ,0.52802 ,5.18090 
324 ,58.8609 ,1.18256 ,0.51775 ,5.08017 
325 ,59.0369 ,1.18435 ,0.51433 ,5.04659 
326 ,59.1968 ,1.18607 ,0.49722 ,4.87870 
327 ,59.3730 ,1.18769 ,0.49722 ,4.87870 
328 ,59.5812 ,1.18973 ,0.47668 ,4.67723 
329 ,59.7572 ,1.19154 ,0.46300 ,4.54291 
330 ,59.9333 ,1.19330 ,0.44246 ,4.34144 
331 ,60.1094 ,1.19509 ,0.42877 ,4.20713 
332 ,60.3014 ,1.19693 ,0.42193 ,4.13997 
333 ,60.4777 ,1.19874 ,0.42877 ,4.20713 
334 ,60.6696 ,1.20068 ,0.38771 ,3.80419 
335 ,60.8455 ,1.20250 ,0.38429 ,3.77061 
336 ,61.0219 ,1.20419 ,0.38771 ,3.80419 
337 ,61.2135 ,1.20613 ,0.38086 ,3.73703 
338 ,61.4219 ,1.20814 ,0.36375 ,3.56914 
339 ,61.6137 ,1.21014 ,0.35006 ,3.43483 
340 ,61.8060 ,1.21190 ,0.32953 ,3.23336 
341 ,61.9821 ,1.21378 ,0.32611 ,3.19978 
342 ,62.1740 ,1.21570 ,0.29873 ,2.93116 
343 ,62.3499 ,1.21751 ,0.28504 ,2.79684 
344 ,62.5263 ,1.21927 ,0.27478 ,2.69611 
345 ,62.7024 ,1.22099 ,0.25767 ,2.52822 
346 ,62.8784 ,1.22273 ,0.28162 ,2.76326 
347 ,63.0541 ,1.22446 ,0.25082 ,2.46106 
348 ,63.2301 ,1.22627 ,0.23029 ,2.25959 
349 ,63.4062 ,1.22803 ,0.22002 ,2.15885 
350 ,63.5990 ,1.22984 ,0.23029 ,2.25959 
351 ,63.8069 ,1.23198 ,0.19949 ,1.95738 
352 ,63.9828 ,1.23376 ,0.19949 ,1.95738 
353 ,64.1589 ,1.23553 ,0.18922 ,1.85665 
354 ,64.3351 ,1.23728 ,0.16527 ,1.62160 
355 ,64.5270 ,1.23923 ,0.15500 ,1.52087 
356 ,64.7032 ,1.24099 ,0.14473 ,1.42013 
357 ,64.8954 ,1.24292 ,0.12762 ,1.25224 
358 ,65.0871 ,1.24477 ,0.12078 ,1.18508 
359 ,65.2635 ,1.24659 ,0.11736 ,1.15151 
360 ,65.4554 ,1.24845 ,0.11393 ,1.11793 
361 ,65.6315 ,1.25026 ,0.08656 ,0.84930 
362 ,65.8396 ,1.25222 ,0.07971 ,0.78214 
363 ,66.0154 ,1.25411 ,0.06945 ,0.68141 
364 ,66.1918 ,1.25586 ,0.05234 ,0.51352 
365 ,66.3839 ,1.25781 ,0.04549 ,0.44636 
366 ,66.5598 ,1.25959 ,0.04207 ,0.41278 
367 ,66.7359 ,1.26133 ,0.04207 ,0.41278 
368 ,66.9441 ,1.26332 ,0.03180 ,0.31205 
369 ,67.1201 ,1.26519 ,0.01127 ,0.11058 
370 ,67.3121 ,1.26707 ,-0.00242 ,-0.02373 
371 ,67.4884 ,1.26882 ,-0.01611 ,-0.15805 
372 ,67.6799 ,1.27071 ,-0.02295 ,-0.22520 
373 ,67.8565 ,1.27249 ,-0.03322 ,-0.32594 
374 ,68.0326 ,1.27427 ,-0.05717 ,-0.56099 
375 ,68.2246 ,1.27613 ,-0.04691 ,-0.46025 
376 ,68.4166 ,1.27807 ,-0.06402 ,-0.62814 
377 ,68.5926 ,1.27982 ,-0.07771 ,-0.76246 
378 ,68.7688 ,1.28166 ,-0.09140 ,-0.89677 
379 ,68.9609 ,1.28354 ,-0.09482 ,-0.93035 
380 ,69.1369 ,1.28532 ,-0.10166 ,-0.99751 
381 ,69.3128 ,1.28705 ,-0.12219 ,-1.19898 
382 ,69.4892 ,1.28886 ,-0.11877 ,-1.16540 
383 ,69.6649 ,1.29055 ,-0.12219 ,-1.19898 
384 ,69.8412 ,1.29230 ,-0.14273 ,-1.40045 
385 ,70.0333 ,1.29428 ,-0.17011 ,-1.66907 
386 ,70.2094 ,1.29602 ,-0.18379 ,-1.80338 
387 ,70.3854 ,1.29779 ,-0.17695 ,-1.73623 
388 ,70.5773 ,1.29966 ,-0.20090 ,-1.97128 
389 ,70.7535 ,1.30147 ,-0.20775 ,-2.03843 
390 ,70.9458 ,1.30336 ,-0.19064 ,-1.87054 
391 ,71.1378 ,1.30530 ,-0.21802 ,-2.13917 
392 ,71.3298 ,1.30724 ,-0.23170 ,-2.27348 
393 ,71.5059 ,1.30902 ,-0.23513 ,-2.30706 
394 ,71.6981 ,1.31082 ,-0.25224 ,-2.47495 
395 ,71.8576 ,1.31262 ,-0.27277 ,-2.67642 
396 ,72.0339 ,1.31428 ,-0.27961 ,-2.74358 
397 ,72.2582 ,1.31633 ,-0.28304 ,-2.77716 
398 ,72.4343 ,1.31832 ,-0.27961 ,-2.74358 
399 ,72.6263 ,1.32015 ,-0.28304 ,-2.77716 
400 ,72.8024 ,1.32196 ,-0.28988 ,-2.84431 
401 ,73.0105 ,1.32400 ,-0.31041 ,-3.04578 
402 ,73.2023 ,1.32592 ,-0.31726 ,-3.11294 
403 ,73.3786 ,1.32775 ,-0.33437 ,-3.28083 
404 ,73.5705 ,1.32960 ,-0.34121 ,-3.34799 
405 ,73.7468 ,1.33139 ,-0.34806 ,-3.41514 
406 ,73.9385 ,1.33321 ,-0.36175 ,-3.54946 
407 ,74.1150 ,1.33509 ,-0.36175 ,-3.54946 
408 ,74.3070 ,1.33703 ,-0.37544 ,-3.68377 
409 ,74.4831 ,1.33875 ,-0.37201 ,-3.65019 
410 ,74.6593 ,1.34053 ,-0.39939 ,-3.91882 
411 ,74.8352 ,1.34226 ,-0.41308 ,-4.05313 
412 ,75.0111 ,1.34403 ,-0.42335 ,-4.15387 
413 ,75.1876 ,1.34582 ,-0.43019 ,-4.22102 
414 ,75.3796 ,1.34776 ,-0.43361 ,-4.25460 
415 ,75.5715 ,1.34959 ,-0.43703 ,-4.28818 
416 ,75.7478 ,1.35137 ,-0.45072 ,-4.42249 
417 ,75.9236 ,1.35315 ,-0.45072 ,-4.42249 
418 ,76.1314 ,1.35509 ,-0.44730 ,-4.38891 
419 ,76.3079 ,1.35700 ,-0.45757 ,-4.48965 
420 ,76.4840 ,1.35882 ,-0.46441 ,-4.55681 
421 ,76.6598 ,1.36053 ,-0.49521 ,-4.85901 
422 ,76.8681 ,1.36255 ,-0.49179 ,-4.82543 
423 ,77.0439 ,1.36440 ,-0.51232 ,-5.02690 
424 ,77.2201 ,1.36621 ,-0.52943 ,-5.19479 
425 ,77.3962 ,1.36787 ,-0.53628 ,-5.26195 
426 ,77.5722 ,1.36958 ,-0.53970 ,-5.29553 
427 ,77.7485 ,1.37140 ,-0.54997 ,-5.39626 
428 ,77.9245 ,1.37315 ,-0.53970 ,-5.29553 
429 ,78.1003 ,1.37494 ,-0.55339 ,-5.42984 
430 ,78.2926 ,1.37678 ,-0.56365 ,-5.53058 
431 ,78.4687 ,1.37860 ,-0.56708 ,-5.56415 
432 ,78.6445 ,1.38033 ,-0.57734 ,-5.66489 
433 ,78.8205 ,1.38207 ,-0.58761 ,-5.76562 
434 ,79.0130 ,1.38391 ,-0.60130 ,-5.89994 
435 ,79.2051 ,1.38599 ,-0.60130 ,-5.89994 
436 ,79.3974 ,1.38788 ,-0.62183 ,-6.10141 
437 ,79.5731 ,1.38963 ,-0.61499 ,-6.03425 
438 ,79.7490 ,1.39138 ,-0.63552 ,-6.23572 
439 ,79.9414 ,1.39322 ,-0.62868 ,-6.16856 
440 ,80.1332 ,1.39525 ,-0.64921 ,-6.37003 
441 ,80.3092 ,1.39699 ,-0.66290 ,-6.50435 
442 ,80.5014 ,1.39889 ,-0.65947 ,-6.47077 
443 ,80.7095 ,1.40090 ,-0.66632 ,-6.53793 
444 ,80.8856 ,1.40275 ,-0.67316 ,-6.60508 
445 ,81.0617 ,1.40447 ,-0.69712 ,-6.84013 
446 ,81.2378 ,1.40626 ,-0.70396 ,-6.90729 
447 ,81.4135 ,1.40804 ,-0.71423 ,-7.00802 
448 ,81.5902 ,1.40981 ,-0.72792 ,-7.14233 
449 ,81.8139 ,1.41186 ,-0.74161 ,-7.27665 
450 ,81.9900 ,1.41379 ,-0.72450 ,-7.10876 
451 ,82.1661 ,1.41553 ,-0.72450 ,-7.10876 
452 ,82.3421 ,1.41730 ,-0.74503 ,-7.31023 
453 ,82.5183 ,1.41906 ,-0.77925 ,-7.64601 
454 ,82.6945 ,1.42080 ,-0.77241 ,-7.57885 
455 ,82.9023 ,1.42285 ,-0.79294 ,-7.78032 
456 ,83.0786 ,1.42470 ,-0.79294 ,-7.78032 
457 ,83.2706 ,1.42652 ,-0.78267 ,-7.67959 
458 ,83.4466 ,1.42836 ,-0.80663 ,-7.91464 
459 ,83.6227 ,1.43023 ,-0.82716 ,-8.11611 
460 ,83.7989 ,1.43193 ,-0.82374 ,-8.08253 
461 ,83.9749 ,1.43364 ,-0.84085 ,-8.25042 
462 ,84.1830 ,1.43566 ,-0.83743 ,-8.21684 
463 ,84.3590 ,1.43746 ,-0.86138 ,-8.45189 
