Data stamp = , 03-04-2022 03:18:02 408

Calibration Values: 
Slope = , 26.54 , g/V 
Offset Voltage at no contact = , -0.501760 , V 

No , Time , Stage Position ,   Mass , Force 
   ,  (s) ,      (mm)      ,   (g)  , (mN)  

1 ,0.0000 ,0.64946 ,4.98710 ,48.93343 
2 ,0.2145 ,0.64955 ,4.98710 ,48.93343 
3 ,0.5668 ,0.65049 ,4.99394 ,49.00058 
4 ,0.7751 ,0.65215 ,5.00079 ,49.06774 
5 ,0.9513 ,0.65376 ,5.00421 ,49.10132 
6 ,1.1272 ,0.65551 ,4.99737 ,49.03416 
7 ,1.3189 ,0.65730 ,4.98710 ,48.93343 
8 ,1.5272 ,0.65941 ,4.98368 ,48.89985 
9 ,1.7031 ,0.66122 ,4.95972 ,48.66480 
10 ,1.8955 ,0.66319 ,4.96315 ,48.69838 
11 ,2.0872 ,0.66511 ,4.94261 ,48.49691 
12 ,2.2633 ,0.66683 ,4.92550 ,48.32902 
13 ,2.4396 ,0.66862 ,4.91181 ,48.19471 
14 ,2.6317 ,0.67053 ,4.90497 ,48.12755 
15 ,2.8077 ,0.67230 ,4.88444 ,47.92608 
16 ,2.9837 ,0.67403 ,4.87075 ,47.79177 
17 ,3.1599 ,0.67581 ,4.85706 ,47.65745 
18 ,3.3357 ,0.67759 ,4.84337 ,47.52314 
19 ,3.5120 ,0.67934 ,4.83652 ,47.45598 
20 ,3.7202 ,0.68131 ,4.80573 ,47.15378 
21 ,3.9123 ,0.68333 ,4.80573 ,47.15378 
22 ,4.0884 ,0.68512 ,4.78177 ,46.91873 
23 ,4.2804 ,0.68700 ,4.74755 ,46.58295 
24 ,4.4564 ,0.68875 ,4.74070 ,46.51579 
25 ,4.6323 ,0.69052 ,4.73728 ,46.48221 
26 ,4.8245 ,0.69246 ,4.69622 ,46.07927 
27 ,5.0007 ,0.69422 ,4.68595 ,45.97854 
28 ,5.1927 ,0.69616 ,4.68595 ,45.97854 
29 ,5.3687 ,0.69788 ,4.66542 ,45.77707 
30 ,5.5448 ,0.69966 ,4.64146 ,45.54202 
31 ,5.7367 ,0.70157 ,4.63462 ,45.47486 
32 ,5.9130 ,0.70333 ,4.62435 ,45.37413 
33 ,6.1052 ,0.70522 ,4.59355 ,45.07192 
34 ,6.2811 ,0.70705 ,4.56960 ,44.83688 
35 ,6.4573 ,0.70877 ,4.55933 ,44.73614 
36 ,6.6334 ,0.71059 ,4.53195 ,44.46751 
37 ,6.8255 ,0.71250 ,4.52169 ,44.36678 
38 ,7.0176 ,0.71429 ,4.49431 ,44.09815 
39 ,7.1935 ,0.71614 ,4.48746 ,44.03100 
40 ,7.3699 ,0.71790 ,4.47035 ,43.86310 
41 ,7.5614 ,0.71980 ,4.44982 ,43.66163 
42 ,7.7377 ,0.72159 ,4.44298 ,43.59448 
43 ,7.9137 ,0.72330 ,4.41218 ,43.29227 
44 ,8.0900 ,0.72512 ,4.39507 ,43.12438 
45 ,8.2821 ,0.72699 ,4.37111 ,42.88933 
46 ,8.4582 ,0.72881 ,4.36427 ,42.82218 
47 ,8.6499 ,0.73067 ,4.34373 ,42.62071 
48 ,8.8264 ,0.73248 ,4.34031 ,42.58713 
49 ,9.0183 ,0.73439 ,4.32320 ,42.41924 
50 ,9.1947 ,0.73614 ,4.29582 ,42.15061 
51 ,9.3705 ,0.73790 ,4.28556 ,42.04988 
52 ,9.5467 ,0.73964 ,4.25818 ,41.78125 
53 ,9.7226 ,0.74143 ,4.25133 ,41.71409 
54 ,9.8987 ,0.74315 ,4.24107 ,41.61336 
55 ,10.0909 ,0.74500 ,4.21711 ,41.37831 
56 ,10.2829 ,0.74695 ,4.19658 ,41.17684 
57 ,10.4589 ,0.74879 ,4.17605 ,40.97537 
58 ,10.6351 ,0.75050 ,4.18631 ,41.07611 
59 ,10.8109 ,0.75229 ,4.15551 ,40.77390 
60 ,11.0191 ,0.75433 ,4.14183 ,40.63959 
61 ,11.1952 ,0.75612 ,4.12129 ,40.43812 
62 ,11.3712 ,0.75787 ,4.10418 ,40.27023 
63 ,11.5475 ,0.75966 ,4.07680 ,40.00160 
64 ,11.7233 ,0.76147 ,4.05969 ,39.83371 
65 ,11.9156 ,0.76323 ,4.05627 ,39.80013 
66 ,12.1075 ,0.76519 ,4.03574 ,39.59866 
67 ,12.2837 ,0.76700 ,4.01520 ,39.39719 
68 ,12.4760 ,0.76885 ,4.00494 ,39.29646 
69 ,12.6516 ,0.77068 ,3.98783 ,39.12856 
70 ,12.8276 ,0.77243 ,3.95361 ,38.79278 
71 ,13.0040 ,0.77420 ,3.94676 ,38.72562 
72 ,13.1961 ,0.77613 ,3.93307 ,38.59131 
73 ,13.3722 ,0.77787 ,3.91938 ,38.45700 
74 ,13.5482 ,0.77968 ,3.89543 ,38.22195 
75 ,13.7083 ,0.78137 ,3.86805 ,37.95332 
76 ,13.8842 ,0.78303 ,3.86805 ,37.95332 
77 ,14.0605 ,0.78478 ,3.85779 ,37.85259 
78 ,14.2523 ,0.78670 ,3.83725 ,37.65112 
79 ,14.4285 ,0.78846 ,3.80303 ,37.31534 
80 ,14.6047 ,0.79017 ,3.78934 ,37.18102 
81 ,14.7806 ,0.79201 ,3.79961 ,37.28176 
82 ,14.9564 ,0.79383 ,3.76881 ,36.97955 
83 ,15.1328 ,0.79548 ,3.74828 ,36.77808 
84 ,15.3090 ,0.79727 ,3.71748 ,36.47588 
85 ,15.5008 ,0.79918 ,3.70721 ,36.37514 
86 ,15.6930 ,0.80104 ,3.70037 ,36.30799 
87 ,15.8852 ,0.80294 ,3.69010 ,36.20725 
88 ,16.0612 ,0.80483 ,3.67299 ,36.03936 
89 ,16.2371 ,0.80657 ,3.65246 ,35.83789 
90 ,16.4294 ,0.80843 ,3.62166 ,35.53569 
91 ,16.6055 ,0.81024 ,3.59770 ,35.30064 
92 ,16.8135 ,0.81214 ,3.58401 ,35.16632 
93 ,16.9895 ,0.81409 ,3.56006 ,34.93128 
94 ,17.1493 ,0.81575 ,3.56006 ,34.93128 
95 ,17.3577 ,0.81770 ,3.55663 ,34.89770 
96 ,17.5337 ,0.81954 ,3.52926 ,34.62907 
97 ,17.7099 ,0.82127 ,3.51215 ,34.46118 
98 ,17.9018 ,0.82311 ,3.49504 ,34.29329 
99 ,18.0780 ,0.82498 ,3.49161 ,34.25971 
100 ,18.2702 ,0.82683 ,3.45397 ,33.89035 
101 ,18.4941 ,0.82894 ,3.44713 ,33.82319 
102 ,18.6701 ,0.83088 ,3.40948 ,33.45383 
103 ,18.8786 ,0.83291 ,3.40948 ,33.45383 
104 ,19.0701 ,0.83487 ,3.37868 ,33.15163 
105 ,19.2464 ,0.83662 ,3.35473 ,32.91658 
106 ,19.4385 ,0.83847 ,3.35815 ,32.95016 
107 ,19.6786 ,0.84070 ,3.31708 ,32.54722 
108 ,19.8709 ,0.84273 ,3.30339 ,32.41290 
109 ,20.0788 ,0.84484 ,3.29997 ,32.37933 
110 ,20.2545 ,0.84672 ,3.26575 ,32.04354 
111 ,20.4470 ,0.84853 ,3.25548 ,31.94281 
112 ,20.6392 ,0.85050 ,3.24864 ,31.87565 
113 ,20.8152 ,0.85232 ,3.23837 ,31.77492 
114 ,21.0229 ,0.85433 ,3.21442 ,31.53987 
115 ,21.1994 ,0.85612 ,3.19731 ,31.37198 
116 ,21.3754 ,0.85789 ,3.17677 ,31.17051 
117 ,21.5675 ,0.85984 ,3.15282 ,30.93546 
118 ,21.7434 ,0.86163 ,3.13229 ,30.73399 
119 ,21.9195 ,0.86331 ,3.13571 ,30.76757 
120 ,22.1117 ,0.86519 ,3.09464 ,30.36463 
121 ,22.2879 ,0.86701 ,3.07753 ,30.19674 
122 ,22.4640 ,0.86879 ,3.06384 ,30.06242 
123 ,22.6559 ,0.87070 ,3.06042 ,30.02884 
124 ,22.8319 ,0.87245 ,3.03304 ,29.76022 
125 ,23.0082 ,0.87424 ,3.02278 ,29.65948 
126 ,23.1842 ,0.87602 ,3.00567 ,29.49159 
127 ,23.3603 ,0.87774 ,3.00224 ,29.45801 
128 ,23.5363 ,0.87950 ,2.98855 ,29.32370 
129 ,23.7121 ,0.88127 ,2.96118 ,29.05507 
130 ,23.9205 ,0.88322 ,2.94749 ,28.92076 
131 ,24.0961 ,0.88512 ,2.93380 ,28.78645 
132 ,24.2728 ,0.88688 ,2.90985 ,28.55140 
133 ,24.4484 ,0.88867 ,2.88931 ,28.34993 
134 ,24.6248 ,0.89041 ,2.86536 ,28.11488 
135 ,24.8168 ,0.89229 ,2.86536 ,28.11488 
136 ,24.9929 ,0.89406 ,2.84140 ,27.87983 
137 ,25.1690 ,0.89581 ,2.82771 ,27.74552 
138 ,25.3450 ,0.89759 ,2.80034 ,27.47689 
139 ,25.5208 ,0.89933 ,2.81402 ,27.61121 
140 ,25.6971 ,0.90106 ,2.79691 ,27.44332 
141 ,25.8892 ,0.90301 ,2.76954 ,27.17469 
142 ,26.0653 ,0.90481 ,2.74558 ,26.93964 
143 ,26.2414 ,0.90650 ,2.74216 ,26.90606 
144 ,26.4334 ,0.90835 ,2.73189 ,26.80533 
145 ,26.6252 ,0.91032 ,2.71136 ,26.60386 
146 ,26.8014 ,0.91217 ,2.70794 ,26.57028 
147 ,26.9776 ,0.91386 ,2.67372 ,26.23450 
148 ,27.1537 ,0.91567 ,2.64976 ,25.99945 
149 ,27.3459 ,0.91756 ,2.64976 ,25.99945 
150 ,27.5219 ,0.91937 ,2.63265 ,25.83156 
151 ,27.6976 ,0.92119 ,2.61212 ,25.63009 
152 ,27.8743 ,0.92285 ,2.60869 ,25.59651 
153 ,28.0498 ,0.92459 ,2.58474 ,25.36146 
154 ,28.2261 ,0.92636 ,2.58816 ,25.39504 
155 ,28.4022 ,0.92811 ,2.56763 ,25.19357 
156 ,28.5781 ,0.92991 ,2.55394 ,25.05926 
157 ,28.7540 ,0.93166 ,2.51630 ,24.68989 
158 ,28.9465 ,0.93351 ,2.50945 ,24.62274 
159 ,29.1544 ,0.93559 ,2.49234 ,24.45485 
160 ,29.3305 ,0.93740 ,2.48207 ,24.35411 
161 ,29.5067 ,0.93921 ,2.44443 ,23.98475 
162 ,29.6987 ,0.94116 ,2.45812 ,24.11906 
163 ,29.8746 ,0.94282 ,2.43416 ,23.88402 
164 ,30.0508 ,0.94461 ,2.41363 ,23.68255 
165 ,30.2268 ,0.94638 ,2.38625 ,23.41392 
166 ,30.4029 ,0.94817 ,2.39652 ,23.51465 
167 ,30.5790 ,0.94992 ,2.38968 ,23.44750 
168 ,30.7552 ,0.95167 ,2.37256 ,23.27961 
169 ,30.9632 ,0.95361 ,2.33150 ,22.87667 
170 ,31.1553 ,0.95566 ,2.32808 ,22.84309 
171 ,31.3313 ,0.95747 ,2.31781 ,22.74235 
172 ,31.5075 ,0.95917 ,2.29043 ,22.47373 
173 ,31.6835 ,0.96097 ,2.28701 ,22.44015 
174 ,31.8595 ,0.96269 ,2.27332 ,22.30584 
175 ,32.0357 ,0.96448 ,2.26306 ,22.20510 
176 ,32.2437 ,0.96637 ,2.24594 ,22.03721 
177 ,32.4198 ,0.96828 ,2.23568 ,21.93647 
178 ,32.5958 ,0.97005 ,2.20488 ,21.63427 
179 ,32.7720 ,0.97178 ,2.19461 ,21.53353 
180 ,32.9797 ,0.97373 ,2.18777 ,21.46638 
181 ,33.1561 ,0.97563 ,2.17408 ,21.33206 
182 ,33.3322 ,0.97744 ,2.14328 ,21.02986 
183 ,33.5244 ,0.97933 ,2.13986 ,20.99628 
184 ,33.7004 ,0.98112 ,2.13644 ,20.96270 
185 ,33.9085 ,0.98314 ,2.10221 ,20.62692 
186 ,34.0844 ,0.98496 ,2.09537 ,20.55976 
187 ,34.2606 ,0.98671 ,2.08510 ,20.45903 
188 ,34.4687 ,0.98866 ,2.04061 ,20.02251 
189 ,34.6448 ,0.99054 ,2.05088 ,20.12325 
190 ,34.8369 ,0.99235 ,2.04061 ,20.02251 
191 ,35.0290 ,0.99439 ,1.99955 ,19.61957 
192 ,35.2209 ,0.99621 ,2.00297 ,19.65315 
193 ,35.3971 ,0.99806 ,1.98928 ,19.51884 
194 ,35.5733 ,0.99987 ,1.96533 ,19.28379 
195 ,35.7652 ,1.00178 ,1.95506 ,19.18305 
196 ,35.9734 ,1.00364 ,1.94479 ,19.08232 
197 ,36.1492 ,1.00564 ,1.92426 ,18.88085 
198 ,36.3255 ,1.00736 ,1.90373 ,18.67938 
199 ,36.5175 ,1.00924 ,1.90373 ,18.67938 
200 ,36.6935 ,1.01100 ,1.87635 ,18.41075 
201 ,36.8692 ,1.01277 ,1.84897 ,18.14213 
202 ,37.0453 ,1.01455 ,1.83871 ,18.04139 
203 ,37.2052 ,1.01624 ,1.83186 ,17.97423 
204 ,37.3819 ,1.01794 ,1.82502 ,17.90708 
205 ,37.5897 ,1.01998 ,1.80791 ,17.73919 
206 ,37.7661 ,1.02178 ,1.78053 ,17.47056 
207 ,37.9579 ,1.02363 ,1.78395 ,17.50414 
208 ,38.1341 ,1.02539 ,1.77369 ,17.40340 
209 ,38.3102 ,1.02723 ,1.76684 ,17.33625 
210 ,38.5020 ,1.02914 ,1.75315 ,17.20193 
211 ,38.6783 ,1.03086 ,1.72578 ,16.93331 
212 ,38.8544 ,1.03258 ,1.69155 ,16.59752 
213 ,39.0306 ,1.03437 ,1.68813 ,16.56395 
214 ,39.2226 ,1.03629 ,1.67786 ,16.46321 
215 ,39.3986 ,1.03806 ,1.67786 ,16.46321 
216 ,39.5908 ,1.03997 ,1.64364 ,16.12743 
217 ,39.7667 ,1.04177 ,1.62653 ,15.95954 
218 ,39.9589 ,1.04370 ,1.62653 ,15.95954 
219 ,40.1349 ,1.04542 ,1.60942 ,15.79164 
220 ,40.3106 ,1.04720 ,1.58204 ,15.52302 
221 ,40.4871 ,1.04894 ,1.56493 ,15.35513 
222 ,40.6629 ,1.05074 ,1.57178 ,15.42228 
223 ,40.8552 ,1.05257 ,1.53756 ,15.08650 
224 ,41.0312 ,1.05434 ,1.53071 ,15.01934 
225 ,41.2234 ,1.05622 ,1.51702 ,14.88503 
226 ,41.3993 ,1.05811 ,1.51018 ,14.81787 
227 ,41.5915 ,1.05995 ,1.47596 ,14.48209 
228 ,41.7835 ,1.06189 ,1.46911 ,14.41493 
229 ,41.9595 ,1.06365 ,1.47253 ,14.44851 
230 ,42.1517 ,1.06559 ,1.43489 ,14.07915 
231 ,42.3278 ,1.06735 ,1.41436 ,13.87768 
232 ,42.5036 ,1.06910 ,1.41094 ,13.84410 
233 ,42.6798 ,1.07085 ,1.40751 ,13.81053 
234 ,42.8719 ,1.07273 ,1.38356 ,13.57548 
235 ,43.0481 ,1.07452 ,1.35960 ,13.34043 
236 ,43.2241 ,1.07626 ,1.36987 ,13.44116 
237 ,43.4004 ,1.07802 ,1.35618 ,13.30685 
238 ,43.6080 ,1.08006 ,1.33223 ,13.07180 
239 ,43.7843 ,1.08189 ,1.30827 ,12.83675 
240 ,43.9605 ,1.08365 ,1.30143 ,12.76960 
241 ,44.1364 ,1.08546 ,1.29116 ,12.66886 
242 ,44.3125 ,1.08716 ,1.27747 ,12.53455 
243 ,44.5206 ,1.08922 ,1.27747 ,12.53455 
244 ,44.6968 ,1.09101 ,1.23983 ,12.16519 
245 ,44.8888 ,1.09296 ,1.23298 ,12.09803 
246 ,45.0809 ,1.09484 ,1.22956 ,12.06445 
247 ,45.2569 ,1.09659 ,1.21587 ,11.93014 
248 ,45.4812 ,1.09869 ,1.19192 ,11.69509 
249 ,45.6572 ,1.10062 ,1.17823 ,11.56078 
250 ,45.8652 ,1.10263 ,1.15770 ,11.35931 
251 ,46.0412 ,1.10449 ,1.14401 ,11.22500 
252 ,46.2173 ,1.10617 ,1.13374 ,11.12426 
253 ,46.4094 ,1.10806 ,1.13374 ,11.12426 
254 ,46.5854 ,1.10991 ,1.09267 ,10.72132 
255 ,46.7612 ,1.11165 ,1.09952 ,10.78848 
256 ,46.9216 ,1.11337 ,1.08925 ,10.68774 
257 ,47.0976 ,1.11515 ,1.06530 ,10.45270 
258 ,47.2737 ,1.11681 ,1.06872 ,10.48627 
259 ,47.4498 ,1.11853 ,1.04134 ,10.21765 
260 ,47.6418 ,1.12039 ,1.04134 ,10.21765 
261 ,47.8335 ,1.12229 ,1.00712 ,9.88186 
262 ,48.0100 ,1.12414 ,0.99001 ,9.71397 
263 ,48.2022 ,1.12609 ,0.99343 ,9.74755 
264 ,48.3781 ,1.12786 ,0.96605 ,9.47892 
265 ,48.5542 ,1.12956 ,0.95921 ,9.41177 
266 ,48.7303 ,1.13134 ,0.94552 ,9.27745 
267 ,48.9224 ,1.13324 ,0.92841 ,9.10956 
268 ,49.0985 ,1.13503 ,0.92841 ,9.10956 
269 ,49.2748 ,1.13676 ,0.90446 ,8.87451 
270 ,49.4666 ,1.13869 ,0.89419 ,8.77378 
271 ,49.6428 ,1.14048 ,0.87708 ,8.60589 
272 ,49.8188 ,1.14226 ,0.88050 ,8.63947 
273 ,49.9949 ,1.14395 ,0.85312 ,8.37084 
274 ,50.1869 ,1.14590 ,0.82575 ,8.10221 
275 ,50.3631 ,1.14768 ,0.82917 ,8.13579 
276 ,50.5551 ,1.14952 ,0.80521 ,7.90074 
277 ,50.7149 ,1.15129 ,0.79495 ,7.80001 
278 ,50.9071 ,1.15312 ,0.78126 ,7.66570 
279 ,51.0832 ,1.15488 ,0.76757 ,7.53138 
280 ,51.2595 ,1.15663 ,0.77441 ,7.59854 
281 ,51.4352 ,1.15841 ,0.76415 ,7.49780 
282 ,51.6116 ,1.16013 ,0.72992 ,7.16202 
283 ,51.7876 ,1.16193 ,0.72308 ,7.09486 
284 ,51.9799 ,1.16383 ,0.71281 ,6.99413 
285 ,52.1714 ,1.16569 ,0.69228 ,6.79266 
286 ,52.3479 ,1.16747 ,0.66833 ,6.55761 
287 ,52.5559 ,1.16953 ,0.67859 ,6.65835 
288 ,52.7319 ,1.17134 ,0.64437 ,6.32256 
289 ,52.9240 ,1.17326 ,0.63753 ,6.25541 
290 ,53.1001 ,1.17502 ,0.64437 ,6.32256 
291 ,53.2764 ,1.17676 ,0.61357 ,6.02036 
292 ,53.4682 ,1.17867 ,0.61015 ,5.98678 
293 ,53.6442 ,1.18043 ,0.58962 ,5.78531 
294 ,53.8205 ,1.18227 ,0.57935 ,5.68458 
295 ,54.0285 ,1.18419 ,0.56908 ,5.58384 
296 ,54.2046 ,1.18606 ,0.56224 ,5.51668 
297 ,54.3966 ,1.18791 ,0.54855 ,5.38237 
298 ,54.5724 ,1.18973 ,0.52459 ,5.14732 
299 ,54.7488 ,1.19146 ,0.51091 ,5.01301 
300 ,54.9249 ,1.19327 ,0.51091 ,5.01301 
301 ,55.1330 ,1.19533 ,0.48695 ,4.77796 
302 ,55.3089 ,1.19713 ,0.46984 ,4.61007 
303 ,55.5170 ,1.19910 ,0.47668 ,4.67723 
304 ,55.6931 ,1.20095 ,0.45273 ,4.44218 
305 ,55.8693 ,1.20273 ,0.44246 ,4.34144 
306 ,56.0455 ,1.20447 ,0.42877 ,4.20713 
307 ,56.2212 ,1.20624 ,0.42193 ,4.13997 
308 ,56.4135 ,1.20814 ,0.41166 ,4.03924 
309 ,56.6057 ,1.21006 ,0.38771 ,3.80419 
310 ,56.7818 ,1.21187 ,0.38429 ,3.77061 
311 ,56.9897 ,1.21387 ,0.37060 ,3.63630 
312 ,57.1659 ,1.21569 ,0.34664 ,3.40125 
313 ,57.3259 ,1.21739 ,0.34322 ,3.36767 
314 ,57.4856 ,1.21897 ,0.33295 ,3.26694 
315 ,57.6616 ,1.22063 ,0.32269 ,3.16620 
316 ,57.8381 ,1.22238 ,0.32269 ,3.16620 
317 ,58.0300 ,1.22429 ,0.29189 ,2.86400 
318 ,58.2222 ,1.22618 ,0.29531 ,2.89758 
319 ,58.3983 ,1.22793 ,0.29531 ,2.89758 
320 ,58.5745 ,1.22973 ,0.28504 ,2.79684 
321 ,58.7504 ,1.23152 ,0.25767 ,2.52822 
322 ,58.9265 ,1.23325 ,0.24398 ,2.39390 
323 ,59.1026 ,1.23502 ,0.23713 ,2.32675 
324 ,59.2948 ,1.23688 ,0.23029 ,2.25959 
325 ,59.4706 ,1.23873 ,0.22002 ,2.15885 
326 ,59.6628 ,1.24054 ,0.20633 ,2.02454 
327 ,59.8389 ,1.24238 ,0.20633 ,2.02454 
328 ,60.0151 ,1.24418 ,0.17896 ,1.75592 
329 ,60.2071 ,1.24601 ,0.17211 ,1.68876 
330 ,60.3830 ,1.24784 ,0.14816 ,1.45371 
331 ,60.5593 ,1.24955 ,0.16527 ,1.62160 
332 ,60.7351 ,1.25136 ,0.16185 ,1.58802 
333 ,60.9274 ,1.25325 ,0.12078 ,1.18508 
334 ,61.1034 ,1.25504 ,0.11736 ,1.15151 
335 ,61.2956 ,1.25694 ,0.11736 ,1.15151 
336 ,61.4715 ,1.25875 ,0.10025 ,0.98361 
337 ,61.6477 ,1.26049 ,0.07971 ,0.78214 
338 ,61.8238 ,1.26226 ,0.06602 ,0.64783 
339 ,62.0159 ,1.26404 ,0.06945 ,0.68141 
340 ,62.1919 ,1.26593 ,0.05918 ,0.58067 
341 ,62.3840 ,1.26778 ,0.04207 ,0.41278 
342 ,62.9922 ,1.27258 ,0.03865 ,0.37920 
343 ,63.1683 ,1.27570 ,0.00443 ,0.04342 
344 ,63.3605 ,1.27749 ,-0.02295 ,-0.22520 
345 ,63.5523 ,1.27952 ,-0.01953 ,-0.19163 
346 ,63.7124 ,1.28121 ,-0.02980 ,-0.29236 
347 ,63.9206 ,1.28309 ,-0.04348 ,-0.42667 
348 ,64.1126 ,1.28513 ,-0.04006 ,-0.39310 
349 ,64.2887 ,1.28685 ,-0.07086 ,-0.69530 
350 ,64.4647 ,1.28861 ,-0.07086 ,-0.69530 
351 ,64.6408 ,1.29035 ,-0.06744 ,-0.66172 
352 ,64.8330 ,1.29224 ,-0.08797 ,-0.86319 
353 ,65.0091 ,1.29411 ,-0.09824 ,-0.96393 
354 ,65.2011 ,1.29599 ,-0.11535 ,-1.13182 
355 ,65.3772 ,1.29775 ,-0.10508 ,-1.03108 
356 ,65.5692 ,1.29966 ,-0.14615 ,-1.43402 
357 ,65.7449 ,1.30142 ,-0.14273 ,-1.40045 
358 ,65.9214 ,1.30322 ,-0.14273 ,-1.40045 
359 ,66.0975 ,1.30496 ,-0.14615 ,-1.43402 
360 ,66.2897 ,1.30687 ,-0.17695 ,-1.73623 
361 ,66.4656 ,1.30867 ,-0.17695 ,-1.73623 
362 ,66.6416 ,1.31043 ,-0.18722 ,-1.83696 
363 ,66.8173 ,1.31212 ,-0.19406 ,-1.90412 
364 ,66.9778 ,1.31388 ,-0.20090 ,-1.97128 
365 ,67.1539 ,1.31549 ,-0.20775 ,-2.03843 
366 ,67.3301 ,1.31727 ,-0.23170 ,-2.27348 
367 ,67.5061 ,1.31906 ,-0.24539 ,-2.40779 
368 ,67.6977 ,1.32090 ,-0.23855 ,-2.34064 
369 ,67.8739 ,1.32267 ,-0.24539 ,-2.40779 
370 ,68.0502 ,1.32448 ,-0.26250 ,-2.57569 
371 ,68.2264 ,1.32626 ,-0.27619 ,-2.71000 
372 ,68.4022 ,1.32799 ,-0.28646 ,-2.81073 
373 ,68.5784 ,1.32976 ,-0.27277 ,-2.67642 
374 ,68.7545 ,1.33154 ,-0.28988 ,-2.84431 
375 ,68.9463 ,1.33342 ,-0.31384 ,-3.07936 
376 ,69.1227 ,1.33519 ,-0.31726 ,-3.11294 
377 ,69.2987 ,1.33697 ,-0.32068 ,-3.14652 
378 ,69.4748 ,1.33869 ,-0.32410 ,-3.18010 
379 ,69.6667 ,1.34053 ,-0.33437 ,-3.28083 
380 ,69.8589 ,1.34242 ,-0.34464 ,-3.38156 
381 ,70.0346 ,1.34435 ,-0.37544 ,-3.68377 
382 ,70.2110 ,1.34608 ,-0.36859 ,-3.61661 
383 ,70.4031 ,1.34786 ,-0.37544 ,-3.68377 
384 ,70.5952 ,1.34987 ,-0.37201 ,-3.65019 
385 ,70.7713 ,1.35169 ,-0.38912 ,-3.81808 
386 ,70.9471 ,1.35343 ,-0.41308 ,-4.05313 
387 ,71.1231 ,1.35518 ,-0.40623 ,-3.98597 
388 ,71.2996 ,1.35691 ,-0.41650 ,-4.08671 
389 ,71.4758 ,1.35869 ,-0.41992 ,-4.12029 
390 ,71.6515 ,1.36050 ,-0.45072 ,-4.42249 
391 ,71.8279 ,1.36225 ,-0.46099 ,-4.52323 
392 ,72.0039 ,1.36401 ,-0.45757 ,-4.48965 
393 ,72.1959 ,1.36592 ,-0.45072 ,-4.42249 
394 ,72.3719 ,1.36765 ,-0.46099 ,-4.52323 
395 ,72.5481 ,1.36942 ,-0.48837 ,-4.79185 
396 ,72.7242 ,1.37122 ,-0.50548 ,-4.95975 
397 ,72.8999 ,1.37293 ,-0.48152 ,-4.72470 
398 ,73.0763 ,1.37469 ,-0.50890 ,-4.99332 
399 ,73.2364 ,1.37643 ,-0.51574 ,-5.06048 
400 ,73.4124 ,1.37802 ,-0.52259 ,-5.12764 
401 ,73.5885 ,1.37987 ,-0.53285 ,-5.22837 
402 ,73.7646 ,1.38162 ,-0.53628 ,-5.26195 
403 ,73.9405 ,1.38341 ,-0.55339 ,-5.42984 
404 ,74.1167 ,1.38514 ,-0.54312 ,-5.32911 
405 ,74.3087 ,1.38695 ,-0.57392 ,-5.63131 
406 ,74.4845 ,1.38876 ,-0.59103 ,-5.79920 
407 ,74.6770 ,1.39067 ,-0.58419 ,-5.73205 
408 ,74.8529 ,1.39248 ,-0.59103 ,-5.79920 
409 ,75.0450 ,1.39431 ,-0.59788 ,-5.86636 
410 ,75.2212 ,1.39616 ,-0.59788 ,-5.86636 
411 ,75.3969 ,1.39790 ,-0.60814 ,-5.96709 
412 ,75.5731 ,1.39965 ,-0.64236 ,-6.30288 
413 ,75.7489 ,1.40143 ,-0.63552 ,-6.23572 
414 ,75.9251 ,1.40317 ,-0.63210 ,-6.20214 
415 ,76.1014 ,1.40494 ,-0.64236 ,-6.30288 
416 ,76.2774 ,1.40670 ,-0.66290 ,-6.50435 
417 ,76.4536 ,1.40845 ,-0.67659 ,-6.63866 
418 ,76.6297 ,1.41021 ,-0.68685 ,-6.73940 
419 ,76.8376 ,1.41224 ,-0.68001 ,-6.67224 
420 ,77.0138 ,1.41406 ,-0.69370 ,-6.80655 
421 ,77.1897 ,1.41584 ,-0.71081 ,-6.97444 
422 ,77.3820 ,1.41769 ,-0.71423 ,-7.00802 
423 ,77.5580 ,1.41951 ,-0.71081 ,-6.97444 
424 ,77.7662 ,1.42147 ,-0.74503 ,-7.31023 
425 ,77.9582 ,1.42351 ,-0.73476 ,-7.20949 
426 ,78.1344 ,1.42530 ,-0.75530 ,-7.41096 
427 ,78.3105 ,1.42702 ,-0.75872 ,-7.44454 
428 ,78.4861 ,1.42884 ,-0.76556 ,-7.51170 
429 ,78.6624 ,1.43058 ,-0.77583 ,-7.61243 
430 ,78.8545 ,1.43247 ,-0.78267 ,-7.67959 
431 ,79.0305 ,1.43424 ,-0.80321 ,-7.88106 
432 ,79.2067 ,1.43600 ,-0.78952 ,-7.74674 
433 ,79.3986 ,1.43791 ,-0.78952 ,-7.74674 
434 ,79.5745 ,1.43964 ,-0.82032 ,-8.04895 
435 ,79.7508 ,1.44139 ,-0.82716 ,-8.11611 
436 ,79.9269 ,1.44318 ,-0.84427 ,-8.28400 
437 ,80.1351 ,1.44512 ,-0.83401 ,-8.18326 
438 ,80.3110 ,1.44706 ,-0.85112 ,-8.35115 
439 ,80.4872 ,1.44875 ,-0.83401 ,-8.18326 
440 ,80.6634 ,1.45055 ,-0.85112 ,-8.35115 
441 ,80.8392 ,1.45228 ,-0.85112 ,-8.35115 
442 ,81.0156 ,1.45406 ,-0.87165 ,-8.55262 
443 ,81.2074 ,1.45592 ,-0.86823 ,-8.51904 
444 ,81.3994 ,1.45789 ,-0.88534 ,-8.68694 
445 ,81.5914 ,1.45977 ,-0.88876 ,-8.72051 
446 ,81.7677 ,1.46167 ,-0.88534 ,-8.68694 
447 ,81.9437 ,1.46344 ,-0.91272 ,-8.95556 
448 ,82.1198 ,1.46508 ,-0.90587 ,-8.88841 
449 ,82.2960 ,1.46688 ,-0.91956 ,-9.02272 
450 ,82.4880 ,1.46876 ,-0.92983 ,-9.12345 
451 ,82.6640 ,1.47057 ,-0.93667 ,-9.19061 
452 ,82.8400 ,1.47226 ,-0.92983 ,-9.12345 
453 ,83.0162 ,1.47406 ,-0.96063 ,-9.42566 
454 ,83.1921 ,1.47580 ,-0.97431 ,-9.55997 
455 ,83.3685 ,1.47761 ,-0.96405 ,-9.45924 
456 ,83.5444 ,1.47938 ,-0.97431 ,-9.55997 
457 ,83.7365 ,1.48123 ,-0.99143 ,-9.72786 
458 ,83.9286 ,1.48311 ,-0.99143 ,-9.72786 
459 ,84.1206 ,1.48509 ,-0.99485 ,-9.76144 
460 ,84.2967 ,1.48688 ,-1.00854 ,-9.89576 
461 ,84.4727 ,1.48865 ,-1.02222 ,-10.03007 
462 ,84.6487 ,1.49032 ,-1.02222 ,-10.03007 
