Data stamp = , 01-04-2022 19:45:48 442

Calibration Values: 
Slope = , 26.54 , g/V 
Offset Voltage at no contact = , -0.501760 , V 

No , Time , Stage Position ,   Mass , Force 
   ,  (s) ,      (mm)      ,   (g)  , (mN)  

1 ,0.0000 ,0.64949 ,4.93235 ,48.39618 
2 ,0.2133 ,0.64956 ,4.92892 ,48.36260 
3 ,0.5175 ,0.65032 ,4.93577 ,48.42975 
4 ,0.6934 ,0.65163 ,4.93577 ,48.42975 
5 ,0.8697 ,0.65299 ,4.92892 ,48.36260 
6 ,1.0776 ,0.65488 ,4.93577 ,48.42975 
7 ,1.2698 ,0.65688 ,4.93577 ,48.42975 
8 ,1.4459 ,0.65867 ,4.93577 ,48.42975 
9 ,1.6540 ,0.66064 ,4.92892 ,48.36260 
10 ,1.8461 ,0.66259 ,4.92208 ,48.29544 
11 ,2.0382 ,0.66457 ,4.90155 ,48.09397 
12 ,2.2143 ,0.66641 ,4.88101 ,47.89250 
13 ,2.3904 ,0.66813 ,4.86390 ,47.72461 
14 ,2.5664 ,0.66986 ,4.85706 ,47.65745 
15 ,2.7422 ,0.67167 ,4.87075 ,47.79177 
16 ,2.9346 ,0.67348 ,4.82968 ,47.38883 
17 ,3.1425 ,0.67552 ,4.82968 ,47.38883 
18 ,3.3187 ,0.67741 ,4.80230 ,47.12020 
19 ,3.5106 ,0.67926 ,4.79204 ,47.01946 
20 ,3.7029 ,0.68128 ,4.78519 ,46.95231 
21 ,3.8789 ,0.68297 ,4.76466 ,46.75084 
22 ,4.0708 ,0.68485 ,4.74413 ,46.54937 
23 ,4.2470 ,0.68667 ,4.74070 ,46.51579 
24 ,4.4228 ,0.68839 ,4.71333 ,46.24716 
25 ,4.5989 ,0.69018 ,4.69279 ,46.04569 
26 ,4.7753 ,0.69195 ,4.66884 ,45.81065 
27 ,4.9513 ,0.69372 ,4.65515 ,45.67633 
28 ,5.1431 ,0.69560 ,4.65515 ,45.67633 
29 ,5.3195 ,0.69738 ,4.61751 ,45.30697 
30 ,5.4956 ,0.69912 ,4.59697 ,45.10550 
31 ,5.6717 ,0.70095 ,4.55591 ,44.70256 
32 ,5.8637 ,0.70282 ,4.57302 ,44.87045 
33 ,6.0399 ,0.70460 ,4.55249 ,44.66898 
34 ,6.2320 ,0.70652 ,4.52169 ,44.36678 
35 ,6.4242 ,0.70843 ,4.51484 ,44.29962 
36 ,6.6002 ,0.71024 ,4.47720 ,43.93026 
37 ,6.7760 ,0.71199 ,4.45666 ,43.72879 
38 ,6.9519 ,0.71368 ,4.44640 ,43.62806 
39 ,7.1283 ,0.71551 ,4.43271 ,43.49374 
40 ,7.3361 ,0.71747 ,4.41560 ,43.32585 
41 ,7.5125 ,0.71930 ,4.39507 ,43.12438 
42 ,7.7044 ,0.72124 ,4.37111 ,42.88933 
43 ,7.8802 ,0.72302 ,4.34373 ,42.62071 
44 ,8.0565 ,0.72468 ,4.33004 ,42.48639 
45 ,8.2327 ,0.72655 ,4.30609 ,42.25135 
46 ,8.4087 ,0.72825 ,4.29582 ,42.15061 
47 ,8.5848 ,0.73008 ,4.29240 ,42.11703 
48 ,8.7609 ,0.73175 ,4.25818 ,41.78125 
49 ,8.9369 ,0.73357 ,4.23765 ,41.57978 
50 ,9.1131 ,0.73531 ,4.22053 ,41.41189 
51 ,9.2887 ,0.73710 ,4.22738 ,41.47905 
52 ,9.4808 ,0.73892 ,4.20000 ,41.21042 
53 ,9.6573 ,0.74072 ,4.17262 ,40.94179 
54 ,9.8333 ,0.74254 ,4.15894 ,40.80748 
55 ,10.0254 ,0.74443 ,4.15551 ,40.77390 
56 ,10.2013 ,0.74615 ,4.12129 ,40.43812 
57 ,10.3937 ,0.74812 ,4.10418 ,40.27023 
58 ,10.5696 ,0.74988 ,4.10760 ,40.30380 
59 ,10.7615 ,0.75173 ,4.09049 ,40.13591 
60 ,10.9376 ,0.75366 ,4.06312 ,39.86729 
61 ,11.1137 ,0.75531 ,4.04600 ,39.69940 
62 ,11.3058 ,0.75717 ,4.00836 ,39.33003 
63 ,11.4816 ,0.75896 ,4.00494 ,39.29646 
64 ,11.6577 ,0.76073 ,3.98098 ,39.06141 
65 ,11.8501 ,0.76256 ,3.98441 ,39.09499 
66 ,12.0260 ,0.76443 ,3.95361 ,38.79278 
67 ,12.2021 ,0.76619 ,3.93650 ,38.62489 
68 ,12.3622 ,0.76793 ,3.89885 ,38.25553 
69 ,12.5383 ,0.76953 ,3.89201 ,38.18837 
70 ,12.7305 ,0.77147 ,3.89201 ,38.18837 
71 ,12.9063 ,0.77322 ,3.86463 ,37.91975 
72 ,13.0823 ,0.77500 ,3.84752 ,37.75185 
73 ,13.2742 ,0.77691 ,3.84067 ,37.68470 
74 ,13.4506 ,0.77866 ,3.82699 ,37.55038 
75 ,13.6428 ,0.78058 ,3.78934 ,37.18102 
76 ,13.8186 ,0.78231 ,3.77223 ,37.01313 
77 ,13.9950 ,0.78415 ,3.76539 ,36.94597 
78 ,14.1710 ,0.78589 ,3.74828 ,36.77808 
79 ,14.3465 ,0.78763 ,3.72432 ,36.54303 
80 ,14.5232 ,0.78935 ,3.71063 ,36.40872 
81 ,14.6997 ,0.79113 ,3.67983 ,36.10652 
82 ,14.8753 ,0.79293 ,3.67641 ,36.07294 
83 ,15.0510 ,0.79463 ,3.66272 ,35.93863 
84 ,15.2274 ,0.79644 ,3.63534 ,35.67000 
85 ,15.4034 ,0.79823 ,3.60797 ,35.40137 
86 ,15.5796 ,0.79997 ,3.59770 ,35.30064 
87 ,15.7559 ,0.80176 ,3.59086 ,35.23348 
88 ,15.9478 ,0.80368 ,3.56348 ,34.96485 
89 ,16.1236 ,0.80542 ,3.55321 ,34.86412 
90 ,16.3158 ,0.80728 ,3.55321 ,34.86412 
91 ,16.5078 ,0.80925 ,3.52926 ,34.62907 
92 ,16.6841 ,0.81095 ,3.50872 ,34.42760 
93 ,16.8602 ,0.81276 ,3.48477 ,34.19255 
94 ,17.0362 ,0.81456 ,3.47450 ,34.09182 
95 ,17.2282 ,0.81642 ,3.44713 ,33.82319 
96 ,17.4204 ,0.81837 ,3.42659 ,33.62172 
97 ,17.5964 ,0.82009 ,3.41975 ,33.55457 
98 ,17.7724 ,0.82186 ,3.41290 ,33.48741 
99 ,17.9482 ,0.82359 ,3.37184 ,33.08447 
100 ,18.1246 ,0.82540 ,3.36499 ,33.01731 
101 ,18.3008 ,0.82713 ,3.35473 ,32.91658 
102 ,18.4766 ,0.82894 ,3.35130 ,32.88300 
103 ,18.6528 ,0.83070 ,3.33419 ,32.71511 
104 ,18.8287 ,0.83242 ,3.30339 ,32.41290 
105 ,19.0050 ,0.83422 ,3.27944 ,32.17786 
106 ,19.1807 ,0.83594 ,3.26575 ,32.04354 
107 ,19.3571 ,0.83772 ,3.26917 ,32.07712 
108 ,19.5492 ,0.83961 ,3.24180 ,31.80849 
109 ,19.7253 ,0.84143 ,3.22126 ,31.60702 
110 ,19.9019 ,0.84317 ,3.21100 ,31.50629 
111 ,20.0774 ,0.84495 ,3.19731 ,31.37198 
112 ,20.2533 ,0.84667 ,3.19388 ,31.33840 
113 ,20.4295 ,0.84847 ,3.17677 ,31.17051 
114 ,20.6056 ,0.85022 ,3.13913 ,30.80115 
115 ,20.7817 ,0.85194 ,3.12544 ,30.66683 
116 ,20.9577 ,0.85371 ,3.13571 ,30.76757 
117 ,21.1658 ,0.85564 ,3.09806 ,30.39821 
118 ,21.3420 ,0.85755 ,3.08095 ,30.23031 
119 ,21.5340 ,0.85952 ,3.06726 ,30.09600 
120 ,21.7097 ,0.86120 ,3.06042 ,30.02884 
121 ,21.8860 ,0.86299 ,3.03647 ,29.79380 
122 ,22.0622 ,0.86471 ,3.04331 ,29.86095 
123 ,22.2544 ,0.86666 ,3.01593 ,29.59233 
124 ,22.4463 ,0.86854 ,2.98855 ,29.32370 
125 ,22.6225 ,0.87032 ,2.99540 ,29.39086 
126 ,22.8144 ,0.87227 ,2.97144 ,29.15581 
127 ,22.9903 ,0.87405 ,2.95433 ,28.98792 
128 ,23.1667 ,0.87580 ,2.93038 ,28.75287 
129 ,23.3588 ,0.87774 ,2.93722 ,28.82003 
130 ,23.5507 ,0.87955 ,2.92011 ,28.65213 
131 ,23.7268 ,0.88140 ,2.89616 ,28.41709 
132 ,23.9028 ,0.88315 ,2.88247 ,28.28277 
133 ,24.0951 ,0.88507 ,2.86536 ,28.11488 
134 ,24.2709 ,0.88684 ,2.84825 ,27.94699 
135 ,24.4472 ,0.88866 ,2.83114 ,27.77910 
136 ,24.6232 ,0.89041 ,2.81745 ,27.64479 
137 ,24.7995 ,0.89211 ,2.81402 ,27.61121 
138 ,24.9754 ,0.89389 ,2.81060 ,27.57763 
139 ,25.1835 ,0.89593 ,2.78322 ,27.30900 
140 ,25.3596 ,0.89775 ,2.78322 ,27.30900 
141 ,25.5352 ,0.89947 ,2.75243 ,27.00680 
142 ,25.6952 ,0.90119 ,2.73189 ,26.80533 
143 ,25.8552 ,0.90280 ,2.72505 ,26.73817 
144 ,26.0317 ,0.90443 ,2.71136 ,26.60386 
145 ,26.2718 ,0.90675 ,2.68056 ,26.30165 
146 ,26.4480 ,0.90861 ,2.66345 ,26.13376 
147 ,26.6241 ,0.91037 ,2.67714 ,26.26807 
148 ,26.8161 ,0.91228 ,2.65318 ,26.03303 
149 ,27.0083 ,0.91418 ,2.61896 ,25.69724 
150 ,27.1842 ,0.91591 ,2.60527 ,25.56293 
151 ,27.3602 ,0.91769 ,2.61212 ,25.63009 
152 ,27.5364 ,0.91946 ,2.59501 ,25.46220 
153 ,27.7124 ,0.92120 ,2.56763 ,25.19357 
154 ,27.9051 ,0.92311 ,2.57105 ,25.22715 
155 ,28.0806 ,0.92488 ,2.54710 ,24.99210 
156 ,28.2567 ,0.92667 ,2.51972 ,24.72347 
157 ,28.4487 ,0.92859 ,2.50603 ,24.58916 
158 ,28.6248 ,0.93037 ,2.50603 ,24.58916 
159 ,28.8008 ,0.93214 ,2.49234 ,24.45485 
160 ,28.9770 ,0.93393 ,2.46496 ,24.18622 
161 ,29.1370 ,0.93556 ,2.44101 ,23.95117 
162 ,29.3130 ,0.93718 ,2.42732 ,23.81686 
163 ,29.4892 ,0.93899 ,2.41363 ,23.68255 
164 ,29.6811 ,0.94094 ,2.41363 ,23.68255 
165 ,29.8733 ,0.94279 ,2.39994 ,23.54823 
166 ,30.0494 ,0.94464 ,2.37599 ,23.31318 
167 ,30.2094 ,0.94629 ,2.37256 ,23.27961 
168 ,30.4015 ,0.94808 ,2.36230 ,23.17887 
169 ,30.5778 ,0.94990 ,2.35888 ,23.14529 
170 ,30.7536 ,0.95162 ,2.31781 ,22.74235 
171 ,30.9298 ,0.95340 ,2.31439 ,22.70877 
172 ,31.1220 ,0.95533 ,2.30070 ,22.57446 
173 ,31.3140 ,0.95724 ,2.27332 ,22.30584 
174 ,31.4900 ,0.95903 ,2.24252 ,22.00363 
175 ,31.6500 ,0.96070 ,2.25279 ,22.10437 
176 ,31.8262 ,0.96235 ,2.24252 ,22.00363 
177 ,32.0022 ,0.96416 ,2.23226 ,21.90290 
178 ,32.1944 ,0.96602 ,2.19461 ,21.53353 
179 ,32.3860 ,0.96788 ,2.19119 ,21.49996 
180 ,32.5624 ,0.96974 ,2.18777 ,21.46638 
181 ,32.7384 ,0.97142 ,2.16723 ,21.26491 
182 ,32.9303 ,0.97333 ,2.15012 ,21.09702 
183 ,33.1225 ,0.97534 ,2.14328 ,21.02986 
184 ,33.2824 ,0.97701 ,2.12617 ,20.86197 
185 ,33.4585 ,0.97868 ,2.10906 ,20.69408 
186 ,33.6348 ,0.98043 ,2.07826 ,20.39187 
187 ,33.8108 ,0.98217 ,2.07484 ,20.35829 
188 ,33.9867 ,0.98395 ,2.07141 ,20.32472 
189 ,34.1791 ,0.98586 ,2.04061 ,20.02251 
190 ,34.3546 ,0.98770 ,2.02693 ,19.88820 
191 ,34.5311 ,0.98937 ,2.00297 ,19.65315 
192 ,34.7231 ,0.99128 ,2.00982 ,19.72031 
193 ,34.8999 ,0.99308 ,1.99270 ,19.55241 
194 ,35.0911 ,0.99502 ,1.98244 ,19.45168 
195 ,35.2833 ,0.99681 ,1.96533 ,19.28379 
196 ,35.4593 ,0.99866 ,1.94137 ,19.04874 
197 ,35.6514 ,1.00060 ,1.92426 ,18.88085 
198 ,35.8275 ,1.00236 ,1.93111 ,18.94801 
199 ,36.0036 ,1.00410 ,1.91057 ,18.74654 
200 ,36.1798 ,1.00586 ,1.88662 ,18.51149 
201 ,36.3560 ,1.00761 ,1.87977 ,18.44433 
202 ,36.5479 ,1.00966 ,1.86951 ,18.34360 
203 ,36.7240 ,1.01130 ,1.85924 ,18.24286 
204 ,36.9160 ,1.01313 ,1.83528 ,18.00781 
205 ,37.1083 ,1.01507 ,1.81817 ,17.83992 
206 ,37.2842 ,1.01697 ,1.81475 ,17.80634 
207 ,37.4604 ,1.01870 ,1.78395 ,17.50414 
208 ,37.6363 ,1.02049 ,1.76684 ,17.33625 
209 ,37.8606 ,1.02252 ,1.75315 ,17.20193 
210 ,38.0366 ,1.02447 ,1.73946 ,17.06762 
211 ,38.2287 ,1.02629 ,1.73946 ,17.06762 
212 ,38.4051 ,1.02813 ,1.72235 ,16.89973 
213 ,38.5807 ,1.02992 ,1.69840 ,16.66468 
214 ,38.7405 ,1.03157 ,1.68813 ,16.56395 
215 ,38.9165 ,1.03320 ,1.66418 ,16.32890 
216 ,39.0927 ,1.03500 ,1.66075 ,16.29532 
217 ,39.2687 ,1.03675 ,1.65391 ,16.22816 
218 ,39.4448 ,1.03848 ,1.64022 ,16.09385 
219 ,39.6209 ,1.04027 ,1.62995 ,15.99311 
220 ,39.7971 ,1.04201 ,1.59916 ,15.69091 
221 ,39.9893 ,1.04389 ,1.60258 ,15.72449 
222 ,40.1655 ,1.04572 ,1.59231 ,15.62375 
223 ,40.3891 ,1.04778 ,1.57520 ,15.45586 
224 ,40.5657 ,1.04973 ,1.55467 ,15.25439 
225 ,40.7417 ,1.05151 ,1.54440 ,15.15366 
226 ,40.9177 ,1.05323 ,1.51360 ,14.85145 
227 ,41.0940 ,1.05499 ,1.51018 ,14.81787 
228 ,41.2860 ,1.05693 ,1.50676 ,14.78430 
229 ,41.4621 ,1.05864 ,1.48280 ,14.54925 
230 ,41.6380 ,1.06049 ,1.46911 ,14.41493 
231 ,41.8138 ,1.06219 ,1.45200 ,14.24704 
232 ,41.9903 ,1.06396 ,1.45200 ,14.24704 
233 ,42.1664 ,1.06571 ,1.43489 ,14.07915 
234 ,42.3424 ,1.06748 ,1.42462 ,13.97842 
235 ,42.5505 ,1.06948 ,1.41094 ,13.84410 
236 ,42.7262 ,1.07133 ,1.40409 ,13.77695 
237 ,42.9030 ,1.07307 ,1.38356 ,13.57548 
238 ,43.0947 ,1.07503 ,1.35960 ,13.34043 
239 ,43.2867 ,1.07689 ,1.36303 ,13.37401 
240 ,43.4789 ,1.07871 ,1.33907 ,13.13896 
241 ,43.6709 ,1.08073 ,1.33223 ,13.07180 
242 ,43.8630 ,1.08267 ,1.30485 ,12.80318 
243 ,44.0389 ,1.08445 ,1.28774 ,12.63528 
244 ,44.2312 ,1.08639 ,1.28774 ,12.63528 
245 ,44.4071 ,1.08812 ,1.27747 ,12.53455 
246 ,44.5993 ,1.09005 ,1.23983 ,12.16519 
247 ,44.7914 ,1.09188 ,1.23641 ,12.13161 
248 ,44.9673 ,1.09371 ,1.23641 ,12.13161 
249 ,45.1434 ,1.09548 ,1.22614 ,12.03088 
250 ,45.3196 ,1.09725 ,1.19534 ,11.72867 
251 ,45.5116 ,1.09908 ,1.20218 ,11.79583 
252 ,45.7039 ,1.10098 ,1.18850 ,11.66151 
253 ,45.8955 ,1.10301 ,1.16454 ,11.42647 
254 ,46.0718 ,1.10477 ,1.16796 ,11.46004 
255 ,46.2639 ,1.10663 ,1.13374 ,11.12426 
256 ,46.4399 ,1.10843 ,1.10636 ,10.85563 
257 ,46.6321 ,1.11029 ,1.13374 ,11.12426 
258 ,46.8082 ,1.11213 ,1.11663 ,10.95637 
259 ,46.9677 ,1.11384 ,1.09952 ,10.78848 
260 ,47.1442 ,1.11544 ,1.07899 ,10.58701 
261 ,47.3204 ,1.11720 ,1.05845 ,10.38554 
262 ,47.5124 ,1.11918 ,1.05845 ,10.38554 
263 ,47.7202 ,1.12111 ,1.03108 ,10.11691 
264 ,47.8966 ,1.12302 ,1.02765 ,10.08333 
265 ,48.0567 ,1.12469 ,1.02081 ,10.01618 
266 ,48.2329 ,1.12631 ,1.01739 ,9.98260 
267 ,48.4089 ,1.12816 ,1.00028 ,9.81471 
268 ,48.6170 ,1.13006 ,0.96263 ,9.44535 
269 ,48.8090 ,1.13213 ,0.95237 ,9.34461 
270 ,48.9849 ,1.13391 ,0.94552 ,9.27745 
271 ,49.1932 ,1.13590 ,0.93183 ,9.14314 
272 ,49.3691 ,1.13771 ,0.92157 ,9.04241 
273 ,49.5612 ,1.13958 ,0.89419 ,8.77378 
274 ,49.7372 ,1.14141 ,0.88392 ,8.67305 
275 ,49.9294 ,1.14331 ,0.88050 ,8.63947 
276 ,50.1054 ,1.14503 ,0.86339 ,8.47158 
277 ,50.2976 ,1.14694 ,0.85312 ,8.37084 
278 ,50.4736 ,1.14873 ,0.84628 ,8.30368 
279 ,50.6658 ,1.15055 ,0.83259 ,8.16937 
280 ,50.8738 ,1.15266 ,0.81548 ,8.00148 
281 ,51.0500 ,1.15453 ,0.80521 ,7.90074 
282 ,51.2260 ,1.15628 ,0.78126 ,7.66570 
283 ,51.4022 ,1.15801 ,0.76072 ,7.46423 
284 ,51.5781 ,1.15979 ,0.75388 ,7.39707 
285 ,51.7542 ,1.16157 ,0.74361 ,7.29633 
286 ,51.9303 ,1.16332 ,0.74361 ,7.29633 
287 ,52.1064 ,1.16511 ,0.72650 ,7.12844 
288 ,52.3141 ,1.16704 ,0.71281 ,6.99413 
289 ,52.5063 ,1.16902 ,0.67859 ,6.65835 
290 ,52.6986 ,1.17087 ,0.67175 ,6.59119 
291 ,52.8902 ,1.17288 ,0.66490 ,6.52403 
292 ,53.0667 ,1.17466 ,0.63410 ,6.22183 
293 ,53.2428 ,1.17645 ,0.62042 ,6.08752 
294 ,53.4188 ,1.17819 ,0.61015 ,5.98678 
295 ,53.5947 ,1.17998 ,0.61015 ,5.98678 
296 ,53.7708 ,1.18174 ,0.60673 ,5.95320 
297 ,53.9470 ,1.18345 ,0.57935 ,5.68458 
298 ,54.1231 ,1.18521 ,0.56566 ,5.55026 
299 ,54.2988 ,1.18705 ,0.54855 ,5.38237 
300 ,54.4752 ,1.18875 ,0.54855 ,5.38237 
301 ,54.6513 ,1.19050 ,0.53828 ,5.28164 
302 ,54.8273 ,1.19230 ,0.51433 ,5.04659 
303 ,55.0036 ,1.19406 ,0.50406 ,4.94585 
304 ,55.1797 ,1.19584 ,0.48011 ,4.71081 
305 ,55.3713 ,1.19773 ,0.48695 ,4.77796 
306 ,55.5637 ,1.19954 ,0.46642 ,4.57649 
307 ,55.7398 ,1.20142 ,0.45957 ,4.50934 
308 ,55.9157 ,1.20318 ,0.44246 ,4.34144 
309 ,56.0920 ,1.20495 ,0.44588 ,4.37502 
310 ,56.2839 ,1.20683 ,0.41509 ,4.07282 
311 ,56.4596 ,1.20858 ,0.40824 ,4.00566 
312 ,56.6362 ,1.21034 ,0.40140 ,3.93850 
313 ,56.8120 ,1.21212 ,0.38086 ,3.73703 
314 ,57.0203 ,1.21416 ,0.36718 ,3.60272 
315 ,57.1964 ,1.21598 ,0.35691 ,3.50199 
316 ,57.3724 ,1.21774 ,0.35691 ,3.50199 
317 ,57.5481 ,1.21948 ,0.31926 ,3.13263 
318 ,57.7246 ,1.22123 ,0.31584 ,3.09905 
319 ,57.9011 ,1.22301 ,0.29873 ,2.93116 
320 ,58.0765 ,1.22476 ,0.31584 ,3.09905 
321 ,58.2687 ,1.22665 ,0.28504 ,2.79684 
322 ,58.4449 ,1.22841 ,0.27135 ,2.66253 
323 ,58.6368 ,1.23029 ,0.26451 ,2.59537 
324 ,58.8131 ,1.23212 ,0.25767 ,2.52822 
325 ,58.9890 ,1.23388 ,0.23371 ,2.29317 
326 ,59.1652 ,1.23563 ,0.20976 ,2.05812 
327 ,59.3412 ,1.23738 ,0.22002 ,2.15885 
328 ,59.5332 ,1.23924 ,0.19949 ,1.95738 
329 ,59.7094 ,1.24107 ,0.18580 ,1.82307 
330 ,59.8855 ,1.24287 ,0.16185 ,1.58802 
331 ,60.0612 ,1.24459 ,0.15500 ,1.52087 
332 ,60.2376 ,1.24637 ,0.16527 ,1.62160 
333 ,60.4297 ,1.24829 ,0.13447 ,1.31940 
334 ,60.6057 ,1.25004 ,0.11393 ,1.11793 
335 ,60.7817 ,1.25179 ,0.10709 ,1.05077 
336 ,60.9900 ,1.25382 ,0.09682 ,0.95004 
337 ,61.1660 ,1.25568 ,0.08314 ,0.81572 
338 ,61.3583 ,1.25761 ,0.07971 ,0.78214 
339 ,61.5501 ,1.25946 ,0.05234 ,0.51352 
340 ,61.7260 ,1.26122 ,0.04549 ,0.44636 
341 ,61.9180 ,1.26313 ,0.04891 ,0.47994 
342 ,62.0942 ,1.26493 ,0.04549 ,0.44636 
343 ,62.2864 ,1.26681 ,0.00785 ,0.07700 
344 ,62.4624 ,1.26861 ,0.00443 ,0.04342 
345 ,62.6545 ,1.27051 ,0.00100 ,0.00984 
346 ,62.8306 ,1.27224 ,-0.01611 ,-0.15805 
347 ,63.0227 ,1.27418 ,-0.03322 ,-0.32594 
348 ,63.1990 ,1.27599 ,-0.02980 ,-0.29236 
349 ,63.3910 ,1.27787 ,-0.06060 ,-0.59457 
350 ,63.5669 ,1.27965 ,-0.05717 ,-0.56099 
351 ,63.7430 ,1.28140 ,-0.07428 ,-0.72888 
352 ,63.9030 ,1.28309 ,-0.07428 ,-0.72888 
353 ,64.0790 ,1.28473 ,-0.09140 ,-0.89677 
354 ,64.2553 ,1.28653 ,-0.09482 ,-0.93035 
355 ,64.4313 ,1.28835 ,-0.11193 ,-1.09824 
356 ,64.6073 ,1.29017 ,-0.13246 ,-1.29971 
357 ,64.7991 ,1.29192 ,-0.11877 ,-1.16540 
358 ,64.9755 ,1.29370 ,-0.14273 ,-1.40045 
359 ,65.1675 ,1.29561 ,-0.15984 ,-1.56834 
360 ,65.3435 ,1.29740 ,-0.16668 ,-1.63549 
361 ,65.5197 ,1.29918 ,-0.16668 ,-1.63549 
362 ,65.7119 ,1.30106 ,-0.18722 ,-1.83696 
363 ,65.8879 ,1.30287 ,-0.20090 ,-1.97128 
364 ,66.0638 ,1.30457 ,-0.20090 ,-1.97128 
365 ,66.2560 ,1.30654 ,-0.19748 ,-1.93770 
366 ,66.4321 ,1.30826 ,-0.24881 ,-2.44137 
367 ,66.6082 ,1.31002 ,-0.22828 ,-2.23990 
368 ,66.7842 ,1.31183 ,-0.23855 ,-2.34064 
369 ,66.9600 ,1.31353 ,-0.23855 ,-2.34064 
370 ,67.1363 ,1.31531 ,-0.25224 ,-2.47495 
371 ,67.3126 ,1.31712 ,-0.27277 ,-2.67642 
372 ,67.4885 ,1.31885 ,-0.28646 ,-2.81073 
373 ,67.6647 ,1.32060 ,-0.29673 ,-2.91147 
374 ,67.8407 ,1.32238 ,-0.28646 ,-2.81073 
375 ,68.0164 ,1.32412 ,-0.29673 ,-2.91147 
376 ,68.1929 ,1.32589 ,-0.33095 ,-3.24725 
377 ,68.3850 ,1.32782 ,-0.32068 ,-3.14652 
378 ,68.5449 ,1.32952 ,-0.33095 ,-3.24725 
379 ,68.7210 ,1.33119 ,-0.33437 ,-3.28083 
380 ,68.8972 ,1.33289 ,-0.34464 ,-3.38156 
381 ,69.0888 ,1.33476 ,-0.36517 ,-3.58303 
382 ,69.2653 ,1.33659 ,-0.37201 ,-3.65019 
383 ,69.4573 ,1.33853 ,-0.37201 ,-3.65019 
384 ,69.6335 ,1.34027 ,-0.39255 ,-3.85166 
385 ,69.8254 ,1.34216 ,-0.40281 ,-3.95240 
386 ,70.0017 ,1.34401 ,-0.38912 ,-3.81808 
387 ,70.1775 ,1.34572 ,-0.39939 ,-3.91882 
388 ,70.3538 ,1.34751 ,-0.42677 ,-4.18744 
389 ,70.5458 ,1.34941 ,-0.44046 ,-4.32176 
390 ,70.7219 ,1.35114 ,-0.44046 ,-4.32176 
391 ,70.9301 ,1.35321 ,-0.46441 ,-4.55681 
392 ,71.1062 ,1.35502 ,-0.47810 ,-4.69112 
393 ,71.2981 ,1.35693 ,-0.46783 ,-4.59038 
394 ,71.4899 ,1.35878 ,-0.49179 ,-4.82543 
395 ,71.6660 ,1.36060 ,-0.48494 ,-4.75828 
396 ,71.8422 ,1.36233 ,-0.48837 ,-4.79185 
397 ,72.0184 ,1.36411 ,-0.50206 ,-4.92617 
398 ,72.1944 ,1.36588 ,-0.51574 ,-5.06048 
399 ,72.3706 ,1.36762 ,-0.53628 ,-5.26195 
400 ,72.5626 ,1.36955 ,-0.51917 ,-5.09406 
401 ,72.7387 ,1.37131 ,-0.54312 ,-5.32911 
402 ,72.9145 ,1.37303 ,-0.55339 ,-5.42984 
403 ,73.0908 ,1.37483 ,-0.57050 ,-5.59773 
404 ,73.2669 ,1.37657 ,-0.57050 ,-5.59773 
405 ,73.4430 ,1.37832 ,-0.56365 ,-5.53058 
406 ,73.6511 ,1.38039 ,-0.59445 ,-5.83278 
407 ,73.8270 ,1.38223 ,-0.59788 ,-5.86636 
408 ,74.0033 ,1.38404 ,-0.58761 ,-5.76562 
409 ,74.1954 ,1.38577 ,-0.60130 ,-5.89994 
410 ,74.3870 ,1.38787 ,-0.61499 ,-6.03425 
411 ,74.5634 ,1.38955 ,-0.61156 ,-6.00067 
412 ,74.7395 ,1.39130 ,-0.62525 ,-6.13499 
413 ,74.9155 ,1.39303 ,-0.64921 ,-6.37003 
414 ,75.0916 ,1.39488 ,-0.65947 ,-6.47077 
415 ,75.2678 ,1.39656 ,-0.64921 ,-6.37003 
416 ,75.4594 ,1.39850 ,-0.66632 ,-6.53793 
417 ,75.6358 ,1.40030 ,-0.67659 ,-6.63866 
418 ,75.8121 ,1.40207 ,-0.68001 ,-6.67224 
419 ,76.0041 ,1.40398 ,-0.66974 ,-6.57150 
420 ,76.1801 ,1.40573 ,-0.68343 ,-6.70582 
421 ,76.3560 ,1.40747 ,-0.71423 ,-7.00802 
422 ,76.5322 ,1.40921 ,-0.72107 ,-7.07518 
423 ,76.7082 ,1.41100 ,-0.71423 ,-7.00802 
424 ,76.9009 ,1.41295 ,-0.71765 ,-7.04160 
425 ,77.0924 ,1.41488 ,-0.75530 ,-7.41096 
426 ,77.2686 ,1.41658 ,-0.74161 ,-7.27665 
427 ,77.4607 ,1.41852 ,-0.76214 ,-7.47812 
428 ,77.6367 ,1.42026 ,-0.76214 ,-7.47812 
429 ,77.8288 ,1.42220 ,-0.76556 ,-7.51170 
430 ,78.0051 ,1.42396 ,-0.77583 ,-7.61243 
431 ,78.1810 ,1.42577 ,-0.76898 ,-7.54527 
432 ,78.3570 ,1.42747 ,-0.79636 ,-7.81390 
433 ,78.5332 ,1.42925 ,-0.81005 ,-7.94821 
434 ,78.7090 ,1.43107 ,-0.81005 ,-7.94821 
435 ,78.8853 ,1.43275 ,-0.80663 ,-7.91464 
436 ,79.0612 ,1.43454 ,-0.82374 ,-8.08253 
437 ,79.2375 ,1.43623 ,-0.84427 ,-8.28400 
438 ,79.4135 ,1.43808 ,-0.85112 ,-8.35115 
439 ,79.5896 ,1.43979 ,-0.85112 ,-8.35115 
440 ,79.7657 ,1.44161 ,-0.84427 ,-8.28400 
441 ,79.9738 ,1.44356 ,-0.86481 ,-8.48547 
442 ,80.1495 ,1.44537 ,-0.87849 ,-8.61978 
443 ,80.3418 ,1.44724 ,-0.87849 ,-8.61978 
444 ,80.5180 ,1.44910 ,-0.89903 ,-8.82125 
445 ,80.6936 ,1.45085 ,-0.89218 ,-8.75409 
446 ,80.8701 ,1.45261 ,-0.90587 ,-8.88841 
447 ,81.0622 ,1.45451 ,-0.91614 ,-8.98914 
448 ,81.2383 ,1.45629 ,-0.92983 ,-9.12345 
449 ,81.4301 ,1.45823 ,-0.93325 ,-9.15703 
450 ,81.6065 ,1.45999 ,-0.92298 ,-9.05630 
451 ,81.7821 ,1.46170 ,-0.92983 ,-9.12345 
452 ,81.9585 ,1.46343 ,-0.96063 ,-9.42566 
453 ,82.1344 ,1.46525 ,-0.96747 ,-9.49282 
454 ,82.3266 ,1.46713 ,-0.95720 ,-9.39208 
455 ,82.5187 ,1.46895 ,-0.95720 ,-9.39208 
456 ,82.6947 ,1.47083 ,-0.98800 ,-9.69429 
457 ,82.8710 ,1.47261 ,-0.99143 ,-9.72786 
458 ,83.0631 ,1.47451 ,-0.98458 ,-9.66071 
459 ,83.2391 ,1.47631 ,-0.99485 ,-9.76144 
460 ,83.4152 ,1.47808 ,-1.02222 ,-10.03007 
461 ,83.6074 ,1.47991 ,-1.02907 ,-10.09723 
462 ,83.7834 ,1.48171 ,-1.01538 ,-9.96291 
