Data stamp = , 03-04-2022 22:28:26 506

Calibration Values: 
Slope = , 26.54 , g/V 
Offset Voltage at no contact = , -0.501760 , V 

No , Time , Stage Position ,   Mass , Force 
   ,  (s) ,      (mm)      ,   (g)  , (mN)  

1 ,0.0000 ,0.59941 ,5.14794 ,50.51161 
2 ,0.2358 ,0.59951 ,5.15479 ,50.57876 
3 ,0.5399 ,0.60037 ,5.16848 ,50.71308 
4 ,0.7320 ,0.60178 ,5.16163 ,50.64592 
5 ,0.9241 ,0.60341 ,5.16848 ,50.71308 
6 ,1.1163 ,0.60532 ,5.15821 ,50.61234 
7 ,1.2921 ,0.60703 ,5.16163 ,50.64592 
8 ,1.4681 ,0.60879 ,5.15821 ,50.61234 
9 ,1.6445 ,0.61061 ,5.15479 ,50.57876 
10 ,1.8207 ,0.61238 ,5.13425 ,50.37729 
11 ,2.0287 ,0.61443 ,5.12056 ,50.24298 
12 ,2.2208 ,0.61633 ,5.08634 ,49.90720 
13 ,2.3971 ,0.61819 ,5.08292 ,49.87362 
14 ,2.5886 ,0.62004 ,5.06239 ,49.67215 
15 ,2.7805 ,0.62185 ,5.06239 ,49.67215 
16 ,2.9568 ,0.62369 ,5.03159 ,49.36995 
17 ,3.1491 ,0.62557 ,5.00079 ,49.06774 
18 ,3.3732 ,0.62773 ,5.00763 ,49.13490 
19 ,3.5491 ,0.62961 ,4.98368 ,48.89985 
20 ,3.7252 ,0.63140 ,4.97341 ,48.79911 
21 ,3.9016 ,0.63322 ,4.95972 ,48.66480 
22 ,4.0774 ,0.63493 ,4.92208 ,48.29544 
23 ,4.2695 ,0.63681 ,4.92892 ,48.36260 
24 ,4.4616 ,0.63876 ,4.90497 ,48.12755 
25 ,4.6377 ,0.64051 ,4.87759 ,47.85892 
26 ,4.8297 ,0.64242 ,4.86048 ,47.69103 
27 ,5.0218 ,0.64433 ,4.85364 ,47.62387 
28 ,5.1979 ,0.64613 ,4.82968 ,47.38883 
29 ,5.3740 ,0.64791 ,4.81941 ,47.28809 
30 ,5.5501 ,0.64965 ,4.79204 ,47.01946 
31 ,5.7258 ,0.65141 ,4.79888 ,47.08662 
32 ,5.9023 ,0.65320 ,4.77835 ,46.88515 
33 ,6.0783 ,0.65494 ,4.74413 ,46.54937 
34 ,6.2543 ,0.65667 ,4.72359 ,46.34790 
35 ,6.4464 ,0.65857 ,4.72702 ,46.38148 
36 ,6.6225 ,0.66035 ,4.71333 ,46.24716 
37 ,6.7983 ,0.66214 ,4.69279 ,46.04569 
38 ,6.9746 ,0.66392 ,4.66542 ,45.77707 
39 ,7.1666 ,0.66583 ,4.66542 ,45.77707 
40 ,7.3587 ,0.66769 ,4.62435 ,45.37413 
41 ,7.5348 ,0.66947 ,4.61751 ,45.30697 
42 ,7.7110 ,0.67126 ,4.60382 ,45.17266 
43 ,7.8870 ,0.67301 ,4.58671 ,45.00477 
44 ,8.0630 ,0.67476 ,4.57986 ,44.93761 
45 ,8.2391 ,0.67652 ,4.56275 ,44.76972 
46 ,8.4152 ,0.67826 ,4.53537 ,44.50109 
47 ,8.6072 ,0.68011 ,4.53537 ,44.50109 
48 ,8.7994 ,0.68205 ,4.52169 ,44.36678 
49 ,8.9594 ,0.68384 ,4.50800 ,44.23247 
50 ,9.1354 ,0.68546 ,4.47035 ,43.86310 
51 ,9.3117 ,0.68727 ,4.46009 ,43.76237 
52 ,9.5356 ,0.68932 ,4.44640 ,43.62806 
53 ,9.7116 ,0.69125 ,4.42244 ,43.39301 
54 ,9.8876 ,0.69297 ,4.42929 ,43.46016 
55 ,10.0639 ,0.69477 ,4.40875 ,43.25870 
56 ,10.2557 ,0.69665 ,4.38822 ,43.05723 
57 ,10.4320 ,0.69849 ,4.36084 ,42.78860 
58 ,10.6081 ,0.70020 ,4.35058 ,42.68786 
59 ,10.8002 ,0.70212 ,4.35400 ,42.72144 
60 ,10.9761 ,0.70391 ,4.33004 ,42.48639 
61 ,11.1680 ,0.70576 ,4.30267 ,42.21777 
62 ,11.3603 ,0.70770 ,4.30267 ,42.21777 
63 ,11.5525 ,0.70958 ,4.25476 ,41.74767 
64 ,11.7447 ,0.71151 ,4.25818 ,41.78125 
65 ,11.9206 ,0.71333 ,4.24449 ,41.64694 
66 ,12.0967 ,0.71521 ,4.21027 ,41.31115 
67 ,12.2723 ,0.71681 ,4.20342 ,41.24400 
68 ,12.4489 ,0.71860 ,4.19316 ,41.14326 
69 ,12.6409 ,0.72054 ,4.18289 ,41.04253 
70 ,12.8170 ,0.72232 ,4.15209 ,40.74032 
71 ,13.0091 ,0.72426 ,4.12814 ,40.50527 
72 ,13.1691 ,0.72595 ,4.11787 ,40.40454 
73 ,13.3451 ,0.72751 ,4.09734 ,40.20307 
74 ,13.5213 ,0.72938 ,4.10076 ,40.23665 
75 ,13.7132 ,0.73126 ,4.05285 ,39.76655 
76 ,13.8894 ,0.73298 ,4.05285 ,39.76655 
77 ,14.0655 ,0.73474 ,4.04943 ,39.73297 
78 ,14.2417 ,0.73649 ,4.03574 ,39.59866 
79 ,14.4337 ,0.73849 ,4.00152 ,39.26288 
80 ,14.6098 ,0.74025 ,3.98441 ,39.09499 
81 ,14.8019 ,0.74207 ,3.99125 ,39.16214 
82 ,14.9937 ,0.74395 ,3.94334 ,38.69205 
83 ,15.1700 ,0.74579 ,3.93650 ,38.62489 
84 ,15.3941 ,0.74793 ,3.91596 ,38.42342 
85 ,15.5861 ,0.74999 ,3.89885 ,38.25553 
86 ,15.7621 ,0.75181 ,3.88858 ,38.15479 
87 ,15.9382 ,0.75348 ,3.88174 ,38.08764 
88 ,16.1142 ,0.75528 ,3.86463 ,37.91975 
89 ,16.2740 ,0.75694 ,3.82356 ,37.51681 
90 ,16.4502 ,0.75861 ,3.82356 ,37.51681 
91 ,16.6425 ,0.76051 ,3.82014 ,37.48323 
92 ,16.8184 ,0.76232 ,3.80987 ,37.38249 
93 ,16.9948 ,0.76409 ,3.77223 ,37.01313 
94 ,17.1707 ,0.76581 ,3.75854 ,36.87882 
95 ,17.3624 ,0.76768 ,3.75170 ,36.81166 
96 ,17.5387 ,0.76952 ,3.74485 ,36.74450 
97 ,17.7150 ,0.77125 ,3.71405 ,36.44230 
98 ,17.9073 ,0.77318 ,3.69010 ,36.20725 
99 ,18.1150 ,0.77516 ,3.66614 ,35.97220 
100 ,18.2910 ,0.77699 ,3.64903 ,35.80431 
101 ,18.4672 ,0.77887 ,3.64903 ,35.80431 
102 ,18.6432 ,0.78055 ,3.63192 ,35.63642 
103 ,18.8192 ,0.78230 ,3.62850 ,35.60284 
104 ,18.9954 ,0.78408 ,3.61481 ,35.46853 
105 ,19.1712 ,0.78578 ,3.58401 ,35.16632 
106 ,19.3473 ,0.78755 ,3.57717 ,35.09917 
107 ,19.5393 ,0.78944 ,3.55663 ,34.89770 
108 ,19.7156 ,0.79123 ,3.54295 ,34.76338 
109 ,19.8916 ,0.79298 ,3.51899 ,34.52834 
110 ,20.0679 ,0.79482 ,3.49504 ,34.29329 
111 ,20.2439 ,0.79658 ,3.48135 ,34.15898 
112 ,20.4200 ,0.79829 ,3.48477 ,34.19255 
113 ,20.6119 ,0.80018 ,3.46081 ,33.95751 
114 ,20.8044 ,0.80202 ,3.44028 ,33.75604 
115 ,20.9802 ,0.80394 ,3.41633 ,33.52099 
116 ,21.1563 ,0.80565 ,3.41975 ,33.55457 
117 ,21.3483 ,0.80744 ,3.38895 ,33.25236 
118 ,21.5405 ,0.80950 ,3.38553 ,33.21878 
119 ,21.7326 ,0.81135 ,3.35473 ,32.91658 
120 ,21.9246 ,0.81330 ,3.35815 ,32.95016 
121 ,22.1009 ,0.81509 ,3.34788 ,32.84942 
122 ,22.2768 ,0.81692 ,3.32051 ,32.58080 
123 ,22.4528 ,0.81859 ,3.29313 ,32.31217 
124 ,22.6606 ,0.82056 ,3.29655 ,32.34575 
125 ,22.8530 ,0.82253 ,3.28286 ,32.21143 
126 ,23.0452 ,0.82454 ,3.24864 ,31.87565 
127 ,23.2209 ,0.82629 ,3.24864 ,31.87565 
128 ,23.4131 ,0.82826 ,3.21784 ,31.57345 
129 ,23.6053 ,0.83015 ,3.20073 ,31.40555 
130 ,23.7812 ,0.83184 ,3.20073 ,31.40555 
131 ,23.9575 ,0.83362 ,3.17677 ,31.17051 
132 ,24.1495 ,0.83551 ,3.14940 ,30.90188 
133 ,24.3253 ,0.83728 ,3.14597 ,30.86830 
134 ,24.5016 ,0.83907 ,3.13913 ,30.80115 
135 ,24.6777 ,0.84085 ,3.11518 ,30.56610 
136 ,24.8377 ,0.84258 ,3.09464 ,30.36463 
137 ,25.0140 ,0.84420 ,3.07411 ,30.16316 
138 ,25.1900 ,0.84597 ,3.06042 ,30.02884 
139 ,25.3821 ,0.84774 ,3.05358 ,29.96169 
140 ,25.5901 ,0.84990 ,3.01935 ,29.62590 
141 ,25.7662 ,0.85169 ,3.01935 ,29.62590 
142 ,25.9424 ,0.85349 ,2.99540 ,29.39086 
143 ,26.1345 ,0.85543 ,2.97829 ,29.22297 
144 ,26.3260 ,0.85736 ,2.96802 ,29.12223 
145 ,26.5022 ,0.85907 ,2.96802 ,29.12223 
146 ,26.6786 ,0.86083 ,2.95091 ,28.95434 
147 ,26.8862 ,0.86276 ,2.91327 ,28.58498 
148 ,27.0788 ,0.86475 ,2.90300 ,28.48424 
149 ,27.2547 ,0.86663 ,2.89958 ,28.45066 
150 ,27.4471 ,0.86860 ,2.87220 ,28.18204 
151 ,27.6229 ,0.87029 ,2.85509 ,28.01415 
152 ,27.8151 ,0.87220 ,2.83114 ,27.77910 
153 ,28.0071 ,0.87404 ,2.82771 ,27.74552 
154 ,28.1831 ,0.87587 ,2.80376 ,27.51047 
155 ,28.3591 ,0.87761 ,2.79691 ,27.44332 
156 ,28.5353 ,0.87943 ,2.76611 ,27.14111 
157 ,28.7113 ,0.88114 ,2.75585 ,27.04038 
158 ,28.8875 ,0.88293 ,2.73189 ,26.80533 
159 ,29.0476 ,0.88463 ,2.72505 ,26.73817 
160 ,29.2235 ,0.88624 ,2.71478 ,26.63744 
161 ,29.4157 ,0.88809 ,2.70794 ,26.57028 
162 ,29.6237 ,0.89019 ,2.67029 ,26.20092 
163 ,29.7999 ,0.89204 ,2.68056 ,26.30165 
164 ,29.9919 ,0.89395 ,2.63607 ,25.86514 
165 ,30.1680 ,0.89573 ,2.61896 ,25.69724 
166 ,30.3438 ,0.89750 ,2.61554 ,25.66367 
167 ,30.5202 ,0.89925 ,2.60527 ,25.56293 
168 ,30.7121 ,0.90110 ,2.57447 ,25.26073 
169 ,30.8883 ,0.90297 ,2.56421 ,25.15999 
170 ,31.0643 ,0.90470 ,2.55052 ,25.02568 
171 ,31.2404 ,0.90644 ,2.54367 ,24.95852 
172 ,31.4646 ,0.90852 ,2.51972 ,24.72347 
173 ,31.6406 ,0.91048 ,2.50945 ,24.62274 
174 ,31.8166 ,0.91220 ,2.49576 ,24.48842 
175 ,32.0089 ,0.91411 ,2.46154 ,24.15264 
176 ,32.1845 ,0.91590 ,2.43759 ,23.91759 
177 ,32.3609 ,0.91763 ,2.44101 ,23.95117 
178 ,32.5368 ,0.91941 ,2.43759 ,23.91759 
179 ,32.7131 ,0.92115 ,2.40336 ,23.58181 
180 ,32.9368 ,0.92329 ,2.39310 ,23.48108 
181 ,33.1132 ,0.92517 ,2.36572 ,23.21245 
182 ,33.2889 ,0.92687 ,2.35545 ,23.11171 
183 ,33.4649 ,0.92873 ,2.36572 ,23.21245 
184 ,33.6410 ,0.93045 ,2.34177 ,22.97740 
185 ,33.8175 ,0.93224 ,2.32123 ,22.77593 
186 ,33.9935 ,0.93402 ,2.28701 ,22.44015 
187 ,34.1696 ,0.93568 ,2.26306 ,22.20510 
188 ,34.3457 ,0.93762 ,2.26990 ,22.27226 
189 ,34.5218 ,0.93922 ,2.25621 ,22.13794 
190 ,34.7139 ,0.94110 ,2.22541 ,21.83574 
191 ,34.9217 ,0.94316 ,2.21515 ,21.73500 
192 ,35.1141 ,0.94506 ,2.21172 ,21.70143 
193 ,35.3062 ,0.94712 ,2.18092 ,21.39922 
194 ,35.4822 ,0.94884 ,2.18092 ,21.39922 
195 ,35.6743 ,0.95082 ,2.15697 ,21.16417 
196 ,35.8663 ,0.95263 ,2.13301 ,20.92912 
197 ,36.0425 ,0.95444 ,2.12617 ,20.86197 
198 ,36.2343 ,0.95640 ,2.09879 ,20.59334 
199 ,36.4103 ,0.95812 ,2.07826 ,20.39187 
200 ,36.6030 ,0.95999 ,2.08852 ,20.49261 
201 ,36.7947 ,0.96206 ,2.05773 ,20.19040 
202 ,36.9703 ,0.96374 ,2.04061 ,20.02251 
203 ,37.1464 ,0.96549 ,2.02693 ,19.88820 
204 ,37.3225 ,0.96722 ,2.02008 ,19.82104 
205 ,37.4987 ,0.96901 ,2.00982 ,19.72031 
206 ,37.6909 ,0.97083 ,1.97217 ,19.35094 
207 ,37.8832 ,0.97286 ,1.96533 ,19.28379 
208 ,38.0590 ,0.97462 ,1.95506 ,19.18305 
209 ,38.2513 ,0.97645 ,1.93795 ,19.01516 
210 ,38.4432 ,0.97843 ,1.92768 ,18.91443 
211 ,38.6354 ,0.98043 ,1.90715 ,18.71296 
212 ,38.8114 ,0.98213 ,1.88662 ,18.51149 
213 ,38.9876 ,0.98389 ,1.87635 ,18.41075 
214 ,39.1796 ,0.98579 ,1.86608 ,18.31002 
215 ,39.3554 ,0.98757 ,1.84897 ,18.14213 
216 ,39.5318 ,0.98936 ,1.83186 ,17.97423 
217 ,39.7239 ,0.99120 ,1.83528 ,18.00781 
218 ,39.9159 ,0.99318 ,1.80449 ,17.70561 
219 ,40.0920 ,0.99488 ,1.78053 ,17.47056 
220 ,40.2837 ,0.99687 ,1.79764 ,17.63845 
221 ,40.4598 ,0.99857 ,1.77369 ,17.40340 
222 ,40.6201 ,1.00032 ,1.74973 ,17.16836 
223 ,40.7963 ,1.00200 ,1.73604 ,17.03404 
224 ,41.0043 ,1.00399 ,1.72920 ,16.96689 
225 ,41.1806 ,1.00579 ,1.71893 ,16.86615 
226 ,41.3726 ,1.00764 ,1.69498 ,16.63110 
227 ,41.5643 ,1.00962 ,1.68813 ,16.56395 
228 ,41.7403 ,1.01140 ,1.66760 ,16.36248 
229 ,41.9166 ,1.01322 ,1.65733 ,16.26174 
230 ,42.1089 ,1.01509 ,1.64364 ,16.12743 
231 ,42.2848 ,1.01685 ,1.62995 ,15.99311 
232 ,42.4770 ,1.01882 ,1.61969 ,15.89238 
233 ,42.6690 ,1.02067 ,1.59231 ,15.62375 
234 ,42.8770 ,1.02269 ,1.57520 ,15.45586 
235 ,43.0532 ,1.02459 ,1.55124 ,15.22081 
236 ,43.2453 ,1.02632 ,1.55809 ,15.28797 
237 ,43.4533 ,1.02852 ,1.53071 ,15.01934 
238 ,43.6453 ,1.03046 ,1.52729 ,14.98577 
239 ,43.8371 ,1.03227 ,1.51018 ,14.81787 
240 ,44.0136 ,1.03415 ,1.48280 ,14.54925 
241 ,44.2214 ,1.03618 ,1.47938 ,14.51567 
242 ,44.3977 ,1.03797 ,1.46911 ,14.41493 
243 ,44.5737 ,1.03969 ,1.43489 ,14.07915 
244 ,44.7658 ,1.04167 ,1.44174 ,14.14631 
245 ,44.9415 ,1.04338 ,1.44174 ,14.14631 
246 ,45.1180 ,1.04520 ,1.41094 ,13.84410 
247 ,45.3101 ,1.04708 ,1.39383 ,13.67621 
248 ,45.4861 ,1.04887 ,1.38014 ,13.54190 
249 ,45.6782 ,1.05074 ,1.36645 ,13.40759 
250 ,45.8541 ,1.05252 ,1.35618 ,13.30685 
251 ,46.0303 ,1.05424 ,1.32880 ,13.03822 
252 ,46.2064 ,1.05604 ,1.33907 ,13.13896 
253 ,46.3821 ,1.05778 ,1.32880 ,13.03822 
254 ,46.5582 ,1.05954 ,1.30827 ,12.83675 
255 ,46.7347 ,1.06129 ,1.27747 ,12.53455 
256 ,46.9105 ,1.06310 ,1.28432 ,12.60171 
257 ,47.0868 ,1.06495 ,1.28089 ,12.56813 
258 ,47.2625 ,1.06662 ,1.27405 ,12.50097 
259 ,47.4390 ,1.06839 ,1.23298 ,12.09803 
260 ,47.6148 ,1.07014 ,1.23641 ,12.13161 
261 ,47.8070 ,1.07203 ,1.22614 ,12.03088 
262 ,47.9830 ,1.07378 ,1.20561 ,11.82941 
263 ,48.1589 ,1.07557 ,1.20218 ,11.79583 
264 ,48.3350 ,1.07727 ,1.19192 ,11.69509 
265 ,48.5111 ,1.07906 ,1.17481 ,11.52720 
266 ,48.6711 ,1.08081 ,1.14401 ,11.22500 
267 ,48.8311 ,1.08240 ,1.13716 ,11.15784 
268 ,49.0073 ,1.08403 ,1.12347 ,11.02353 
269 ,49.1832 ,1.08581 ,1.13716 ,11.15784 
270 ,49.3433 ,1.08753 ,1.10979 ,10.88921 
271 ,49.5195 ,1.08917 ,1.10636 ,10.85563 
272 ,49.6795 ,1.09088 ,1.08241 ,10.62059 
273 ,49.8395 ,1.09248 ,1.06872 ,10.48627 
274 ,49.9997 ,1.09409 ,1.04476 ,10.25123 
275 ,50.1758 ,1.09570 ,1.05161 ,10.31838 
276 ,50.3518 ,1.09750 ,1.03450 ,10.15049 
277 ,50.5278 ,1.09922 ,1.02765 ,10.08333 
278 ,50.7039 ,1.10099 ,1.01739 ,9.98260 
279 ,50.8800 ,1.10273 ,1.00028 ,9.81471 
280 ,51.0560 ,1.10452 ,0.97974 ,9.61324 
281 ,51.2160 ,1.10623 ,0.95921 ,9.41177 
282 ,51.3761 ,1.10784 ,0.95579 ,9.37819 
283 ,51.5523 ,1.10948 ,0.93868 ,9.21030 
284 ,51.7284 ,1.11126 ,0.93868 ,9.21030 
285 ,51.8884 ,1.11298 ,0.93868 ,9.21030 
286 ,52.0485 ,1.11456 ,0.92499 ,9.07598 
287 ,52.2246 ,1.11621 ,0.92841 ,9.10956 
288 ,52.4006 ,1.11797 ,0.90446 ,8.87451 
289 ,52.5767 ,1.11971 ,0.89077 ,8.74020 
290 ,52.7533 ,1.12147 ,0.85997 ,8.43800 
291 ,52.9451 ,1.12335 ,0.87366 ,8.57231 
292 ,53.1212 ,1.12516 ,0.85997 ,8.43800 
293 ,53.2974 ,1.12697 ,0.82917 ,8.13579 
294 ,53.4733 ,1.12869 ,0.81548 ,8.00148 
295 ,53.6654 ,1.13060 ,0.81206 ,7.96790 
296 ,53.8575 ,1.13246 ,0.80863 ,7.93432 
297 ,54.0497 ,1.13446 ,0.77441 ,7.59854 
298 ,54.2417 ,1.13638 ,0.77099 ,7.56496 
299 ,54.4336 ,1.13831 ,0.75730 ,7.43065 
300 ,54.6259 ,1.14019 ,0.75388 ,7.39707 
301 ,54.8179 ,1.14213 ,0.73335 ,7.19560 
302 ,54.9941 ,1.14392 ,0.70939 ,6.96055 
303 ,55.1861 ,1.14577 ,0.71281 ,6.99413 
304 ,55.3622 ,1.14761 ,0.69570 ,6.82624 
305 ,55.5379 ,1.14931 ,0.66490 ,6.52403 
306 ,55.7144 ,1.15113 ,0.65464 ,6.42330 
307 ,55.9224 ,1.15307 ,0.66490 ,6.52403 
308 ,56.1146 ,1.15497 ,0.64437 ,6.32256 
309 ,56.2905 ,1.15686 ,0.62726 ,6.15467 
310 ,56.4667 ,1.15864 ,0.62726 ,6.15467 
311 ,56.6425 ,1.16035 ,0.61015 ,5.98678 
312 ,56.8187 ,1.16215 ,0.59988 ,5.88605 
313 ,56.9947 ,1.16389 ,0.58277 ,5.71815 
314 ,57.1705 ,1.16567 ,0.57251 ,5.61742 
315 ,57.3469 ,1.16743 ,0.56908 ,5.58384 
316 ,57.5230 ,1.16918 ,0.56566 ,5.55026 
317 ,57.6987 ,1.17096 ,0.53486 ,5.24806 
318 ,57.8753 ,1.17272 ,0.51775 ,5.08017 
319 ,58.0514 ,1.17450 ,0.51775 ,5.08017 
320 ,58.2433 ,1.17634 ,0.51775 ,5.08017 
321 ,58.4192 ,1.17813 ,0.50064 ,4.91228 
322 ,58.5952 ,1.17994 ,0.48353 ,4.74438 
323 ,58.7710 ,1.18167 ,0.47326 ,4.64365 
324 ,58.9471 ,1.18342 ,0.45957 ,4.50934 
325 ,59.1233 ,1.18518 ,0.45615 ,4.47576 
326 ,59.2833 ,1.18692 ,0.45273 ,4.44218 
327 ,59.4595 ,1.18856 ,0.44588 ,4.37502 
328 ,59.6838 ,1.19071 ,0.42193 ,4.13997 
329 ,59.8920 ,1.19281 ,0.40824 ,4.00566 
330 ,60.0678 ,1.19457 ,0.38771 ,3.80419 
331 ,60.2441 ,1.19639 ,0.39113 ,3.83777 
332 ,60.4201 ,1.19815 ,0.37402 ,3.66988 
333 ,60.5964 ,1.19992 ,0.35349 ,3.46841 
334 ,60.8042 ,1.20187 ,0.35349 ,3.46841 
335 ,60.9806 ,1.20374 ,0.33638 ,3.30052 
336 ,61.1726 ,1.20565 ,0.31584 ,3.09905 
337 ,61.3486 ,1.20748 ,0.31242 ,3.06547 
338 ,61.5247 ,1.20922 ,0.31584 ,3.09905 
339 ,61.7168 ,1.21104 ,0.28504 ,2.79684 
340 ,61.8930 ,1.21288 ,0.25424 ,2.49464 
341 ,62.0849 ,1.21471 ,0.27135 ,2.66253 
342 ,62.2770 ,1.21672 ,0.26109 ,2.56179 
343 ,62.4531 ,1.21841 ,0.24055 ,2.36032 
344 ,62.6292 ,1.22021 ,0.23371 ,2.29317 
345 ,62.8212 ,1.22212 ,0.22002 ,2.15885 
346 ,62.9971 ,1.22390 ,0.21660 ,2.12528 
347 ,63.1733 ,1.22563 ,0.19264 ,1.89023 
348 ,63.3816 ,1.22760 ,0.19949 ,1.95738 
349 ,63.5733 ,1.22967 ,0.17553 ,1.72234 
350 ,63.7496 ,1.23140 ,0.16527 ,1.62160 
351 ,63.9257 ,1.23315 ,0.17211 ,1.68876 
352 ,64.1175 ,1.23506 ,0.15158 ,1.48729 
353 ,64.2937 ,1.23685 ,0.11393 ,1.11793 
354 ,64.4540 ,1.23857 ,0.11393 ,1.11793 
355 ,64.6299 ,1.24025 ,0.11393 ,1.11793 
356 ,64.8220 ,1.24200 ,0.10709 ,1.05077 
357 ,64.9982 ,1.24388 ,0.08656 ,0.84930 
358 ,65.1899 ,1.24579 ,0.07629 ,0.74857 
359 ,65.3660 ,1.24758 ,0.07971 ,0.78214 
360 ,65.5263 ,1.24930 ,0.06602 ,0.64783 
361 ,65.7022 ,1.25093 ,0.05576 ,0.54710 
362 ,65.8944 ,1.25278 ,0.04891 ,0.47994 
363 ,66.0866 ,1.25481 ,0.02838 ,0.27847 
364 ,66.2787 ,1.25665 ,0.00443 ,0.04342 
365 ,66.4706 ,1.25857 ,0.00100 ,0.00984 
366 ,66.6789 ,1.26060 ,-0.02637 ,-0.25878 
367 ,66.8548 ,1.26249 ,-0.02295 ,-0.22520 
368 ,67.0470 ,1.26424 ,-0.03664 ,-0.35952 
369 ,67.2229 ,1.26619 ,-0.05033 ,-0.49383 
370 ,67.4151 ,1.26804 ,-0.07428 ,-0.72888 
371 ,67.6073 ,1.26990 ,-0.07086 ,-0.69530 
372 ,67.7994 ,1.27192 ,-0.07771 ,-0.76246 
373 ,67.9754 ,1.27369 ,-0.08113 ,-0.79604 
374 ,68.1996 ,1.27574 ,-0.09824 ,-0.96393 
375 ,68.3596 ,1.27762 ,-0.10166 ,-0.99751 
376 ,68.5195 ,1.27921 ,-0.12904 ,-1.26613 
377 ,68.6958 ,1.28089 ,-0.13246 ,-1.29971 
378 ,68.8717 ,1.28259 ,-0.13931 ,-1.36687 
379 ,69.0478 ,1.28437 ,-0.13931 ,-1.36687 
380 ,69.2239 ,1.28618 ,-0.13588 ,-1.33329 
381 ,69.4160 ,1.28809 ,-0.15984 ,-1.56834 
382 ,69.6241 ,1.29000 ,-0.15299 ,-1.50118 
383 ,69.8002 ,1.29190 ,-0.17353 ,-1.70265 
384 ,69.9923 ,1.29381 ,-0.20090 ,-1.97128 
385 ,70.1839 ,1.29565 ,-0.20775 ,-2.03843 
386 ,70.3601 ,1.29750 ,-0.19748 ,-1.93770 
387 ,70.5522 ,1.29937 ,-0.23170 ,-2.27348 
388 ,70.7446 ,1.30123 ,-0.23855 ,-2.34064 
389 ,70.9367 ,1.30327 ,-0.24881 ,-2.44137 
390 ,71.1127 ,1.30507 ,-0.26593 ,-2.60926 
391 ,71.3049 ,1.30695 ,-0.24539 ,-2.40779 
392 ,71.4806 ,1.30867 ,-0.25224 ,-2.47495 
393 ,71.6569 ,1.31047 ,-0.27619 ,-2.71000 
394 ,71.8331 ,1.31225 ,-0.29330 ,-2.87789 
395 ,72.0091 ,1.31399 ,-0.28304 ,-2.77716 
396 ,72.1852 ,1.31578 ,-0.29673 ,-2.91147 
397 ,72.3612 ,1.31748 ,-0.31384 ,-3.07936 
398 ,72.5209 ,1.31925 ,-0.31726 ,-3.11294 
399 ,72.6975 ,1.32091 ,-0.31384 ,-3.07936 
400 ,72.9054 ,1.32285 ,-0.33437 ,-3.28083 
401 ,73.0812 ,1.32469 ,-0.33437 ,-3.28083 
402 ,73.2577 ,1.32645 ,-0.36517 ,-3.58303 
403 ,73.4496 ,1.32837 ,-0.37201 ,-3.65019 
404 ,73.6252 ,1.33011 ,-0.36859 ,-3.61661 
405 ,73.8017 ,1.33189 ,-0.37544 ,-3.68377 
406 ,73.9615 ,1.33361 ,-0.38912 ,-3.81808 
407 ,74.1217 ,1.33519 ,-0.40623 ,-3.98597 
408 ,74.2978 ,1.33688 ,-0.40281 ,-3.95240 
409 ,74.4738 ,1.33856 ,-0.42335 ,-4.15387 
410 ,74.6340 ,1.34031 ,-0.42677 ,-4.18744 
411 ,74.7939 ,1.34191 ,-0.44046 ,-4.32176 
412 ,74.9542 ,1.34353 ,-0.45072 ,-4.42249 
413 ,75.1139 ,1.34512 ,-0.45072 ,-4.42249 
414 ,75.2901 ,1.34675 ,-0.46441 ,-4.55681 
415 ,75.4983 ,1.34882 ,-0.48152 ,-4.72470 
416 ,75.6904 ,1.35072 ,-0.47126 ,-4.62396 
417 ,75.8824 ,1.35268 ,-0.48494 ,-4.75828 
418 ,76.1067 ,1.35475 ,-0.50548 ,-4.95975 
419 ,76.2824 ,1.35674 ,-0.49863 ,-4.89259 
420 ,76.4589 ,1.35846 ,-0.51917 ,-5.09406 
421 ,76.6667 ,1.36038 ,-0.51232 ,-5.02690 
422 ,76.8590 ,1.36248 ,-0.53285 ,-5.22837 
423 ,77.0508 ,1.36443 ,-0.53285 ,-5.22837 
424 ,77.2270 ,1.36611 ,-0.55339 ,-5.42984 
425 ,77.4030 ,1.36787 ,-0.54654 ,-5.36268 
426 ,77.5793 ,1.36965 ,-0.56708 ,-5.56415 
427 ,77.7552 ,1.37139 ,-0.58761 ,-5.76562 
428 ,77.9474 ,1.37324 ,-0.58077 ,-5.69847 
429 ,78.1714 ,1.37547 ,-0.60472 ,-5.93352 
430 ,78.3634 ,1.37742 ,-0.59103 ,-5.79920 
431 ,78.5396 ,1.37929 ,-0.61156 ,-6.00067 
432 ,78.7157 ,1.38101 ,-0.63210 ,-6.20214 
433 ,78.9076 ,1.38294 ,-0.61499 ,-6.03425 
434 ,79.0839 ,1.38471 ,-0.62868 ,-6.16856 
435 ,79.2758 ,1.38654 ,-0.66290 ,-6.50435 
436 ,79.4519 ,1.38834 ,-0.67659 ,-6.63866 
437 ,79.6280 ,1.39016 ,-0.67316 ,-6.60508 
438 ,79.8201 ,1.39207 ,-0.67316 ,-6.60508 
439 ,79.9800 ,1.39377 ,-0.69370 ,-6.80655 
440 ,80.1564 ,1.39545 ,-0.69027 ,-6.77297 
441 ,80.3324 ,1.39715 ,-0.71081 ,-6.97444 
442 ,80.5086 ,1.39893 ,-0.71081 ,-6.97444 
443 ,80.7163 ,1.40097 ,-0.71081 ,-6.97444 
444 ,80.8925 ,1.40281 ,-0.73134 ,-7.17591 
445 ,81.0684 ,1.40449 ,-0.72792 ,-7.14233 
446 ,81.2448 ,1.40631 ,-0.74161 ,-7.27665 
447 ,81.4364 ,1.40820 ,-0.75187 ,-7.37738 
448 ,81.6129 ,1.40995 ,-0.76214 ,-7.47812 
449 ,81.8049 ,1.41188 ,-0.76214 ,-7.47812 
450 ,81.9810 ,1.41365 ,-0.77241 ,-7.57885 
451 ,82.1571 ,1.41537 ,-0.79294 ,-7.78032 
452 ,82.3487 ,1.41730 ,-0.78267 ,-7.67959 
453 ,82.5250 ,1.41909 ,-0.79294 ,-7.78032 
454 ,82.7013 ,1.42085 ,-0.79978 ,-7.84748 
455 ,82.8775 ,1.42263 ,-0.80663 ,-7.91464 
456 ,83.0536 ,1.42443 ,-0.82716 ,-8.11611 
457 ,83.2457 ,1.42626 ,-0.83058 ,-8.14968 
458 ,83.4535 ,1.42836 ,-0.82374 ,-8.08253 
459 ,83.6297 ,1.43014 ,-0.83743 ,-8.21684 
460 ,83.8059 ,1.43189 ,-0.84427 ,-8.28400 
461 ,83.9978 ,1.43374 ,-0.86823 ,-8.51904 
462 ,84.1736 ,1.43556 ,-0.87507 ,-8.58620 
463 ,84.3500 ,1.43734 ,-0.88534 ,-8.68694 
