Data stamp = , 02-04-2022 07:41:19 002

Calibration Values: 
Slope = , 26.54 , g/V 
Offset Voltage at no contact = , -0.501760 , V 

No , Time , Stage Position ,   Mass , Force 
   ,  (s) ,      (mm)      ,   (g)  , (mN)  

1 ,0.0000 ,0.59935 ,5.29510 ,51.95548 
2 ,0.2292 ,0.59942 ,5.27798 ,51.78758 
3 ,0.5655 ,0.60037 ,5.30194 ,52.02263 
4 ,0.7735 ,0.60203 ,5.28483 ,51.85474 
5 ,0.9818 ,0.60391 ,5.30194 ,52.02263 
6 ,1.1735 ,0.60579 ,5.27798 ,51.78758 
7 ,1.3498 ,0.60749 ,5.28825 ,51.88832 
8 ,1.5257 ,0.60932 ,5.29167 ,51.92190 
9 ,1.7020 ,0.61115 ,5.28483 ,51.85474 
10 ,1.8779 ,0.61286 ,5.27456 ,51.75401 
11 ,2.0702 ,0.61480 ,5.25745 ,51.58611 
12 ,2.2622 ,0.61671 ,5.23692 ,51.38464 
13 ,2.4544 ,0.61869 ,5.19927 ,51.01528 
14 ,2.6303 ,0.62042 ,5.19243 ,50.94813 
15 ,2.8064 ,0.62217 ,5.19585 ,50.98170 
16 ,2.9981 ,0.62401 ,5.17532 ,50.78023 
17 ,3.1742 ,0.62583 ,5.16505 ,50.67950 
18 ,3.3663 ,0.62770 ,5.14794 ,50.51161 
19 ,3.5423 ,0.62953 ,5.12399 ,50.27656 
20 ,3.7185 ,0.63131 ,5.11714 ,50.20940 
21 ,3.9590 ,0.63363 ,5.08634 ,49.90720 
22 ,4.1510 ,0.63561 ,5.06923 ,49.73931 
23 ,4.3107 ,0.63732 ,5.05554 ,49.60499 
24 ,4.4872 ,0.63893 ,5.04528 ,49.50426 
25 ,4.6793 ,0.64089 ,5.04185 ,49.47068 
26 ,4.8874 ,0.64287 ,5.01448 ,49.20205 
27 ,5.0635 ,0.64475 ,5.00079 ,49.06774 
28 ,5.2395 ,0.64650 ,4.98026 ,48.86627 
29 ,5.4154 ,0.64816 ,4.95288 ,48.59764 
30 ,5.5917 ,0.65000 ,4.93577 ,48.42975 
31 ,5.7676 ,0.65182 ,4.91866 ,48.26186 
32 ,5.9437 ,0.65352 ,4.91866 ,48.26186 
33 ,6.1198 ,0.65529 ,4.90497 ,48.12755 
34 ,6.3119 ,0.65707 ,4.88444 ,47.92608 
35 ,6.5040 ,0.65911 ,4.87759 ,47.85892 
36 ,6.6800 ,0.66089 ,4.85706 ,47.65745 
37 ,6.8562 ,0.66265 ,4.82626 ,47.35525 
38 ,7.0323 ,0.66440 ,4.80915 ,47.18736 
39 ,7.2243 ,0.66632 ,4.80230 ,47.12020 
40 ,7.4003 ,0.66809 ,4.80230 ,47.12020 
41 ,7.5763 ,0.66986 ,4.78177 ,46.91873 
42 ,7.7685 ,0.67174 ,4.74070 ,46.51579 
43 ,7.9449 ,0.67351 ,4.72702 ,46.38148 
44 ,8.1205 ,0.67533 ,4.72017 ,46.31432 
45 ,8.2963 ,0.67705 ,4.70648 ,46.18001 
46 ,8.4727 ,0.67878 ,4.68937 ,46.01212 
47 ,8.6648 ,0.68072 ,4.66542 ,45.77707 
48 ,8.8569 ,0.68266 ,4.65857 ,45.70991 
49 ,9.0647 ,0.68467 ,4.63119 ,45.44128 
50 ,9.2408 ,0.68648 ,4.63119 ,45.44128 
51 ,9.4331 ,0.68829 ,4.61066 ,45.23981 
52 ,9.6087 ,0.69012 ,4.58671 ,45.00477 
53 ,9.7851 ,0.69195 ,4.57986 ,44.93761 
54 ,9.9774 ,0.69383 ,4.54564 ,44.60183 
55 ,10.1534 ,0.69557 ,4.52511 ,44.40036 
56 ,10.3295 ,0.69738 ,4.51484 ,44.29962 
57 ,10.5055 ,0.69915 ,4.51826 ,44.33320 
58 ,10.6815 ,0.70082 ,4.50457 ,44.19889 
59 ,10.8578 ,0.70267 ,4.47720 ,43.93026 
60 ,11.0498 ,0.70455 ,4.44640 ,43.62806 
61 ,11.2257 ,0.70632 ,4.44640 ,43.62806 
62 ,11.4180 ,0.70830 ,4.42586 ,43.42659 
63 ,11.6097 ,0.71019 ,4.38822 ,43.05723 
64 ,11.7701 ,0.71187 ,4.40533 ,43.22512 
65 ,11.9620 ,0.71371 ,4.38480 ,43.02365 
66 ,12.1382 ,0.71547 ,4.36084 ,42.78860 
67 ,12.3142 ,0.71716 ,4.32662 ,42.45282 
68 ,12.4904 ,0.71894 ,4.31636 ,42.35208 
69 ,12.6821 ,0.72091 ,4.31293 ,42.31850 
70 ,12.8585 ,0.72261 ,4.29240 ,42.11703 
71 ,13.0347 ,0.72441 ,4.25476 ,41.74767 
72 ,13.2105 ,0.72618 ,4.23080 ,41.51262 
73 ,13.3868 ,0.72795 ,4.23765 ,41.57978 
74 ,13.5948 ,0.72996 ,4.22053 ,41.41189 
75 ,13.7706 ,0.73178 ,4.19316 ,41.14326 
76 ,13.9474 ,0.73353 ,4.18289 ,41.04253 
77 ,14.1392 ,0.73538 ,4.16578 ,40.87464 
78 ,14.3149 ,0.73730 ,4.14183 ,40.63959 
79 ,14.4912 ,0.73897 ,4.12814 ,40.50527 
80 ,14.6830 ,0.74089 ,4.12129 ,40.43812 
81 ,14.8590 ,0.74261 ,4.09734 ,40.20307 
82 ,15.0355 ,0.74442 ,4.07680 ,40.00160 
83 ,15.2431 ,0.74634 ,4.06654 ,39.90087 
84 ,15.4195 ,0.74821 ,4.04258 ,39.66582 
85 ,15.6115 ,0.75017 ,4.00836 ,39.33003 
86 ,15.8036 ,0.75201 ,4.01178 ,39.36361 
87 ,15.9637 ,0.75382 ,3.99467 ,39.19572 
88 ,16.1559 ,0.75552 ,3.97414 ,38.99425 
89 ,16.3319 ,0.75739 ,3.94676 ,38.72562 
90 ,16.5240 ,0.75927 ,3.96045 ,38.85994 
91 ,16.7002 ,0.76105 ,3.93992 ,38.65847 
92 ,16.8923 ,0.76297 ,3.89543 ,38.22195 
93 ,17.0683 ,0.76475 ,3.87832 ,38.05406 
94 ,17.2602 ,0.76665 ,3.88858 ,38.15479 
95 ,17.4364 ,0.76844 ,3.85779 ,37.85259 
96 ,17.6124 ,0.77016 ,3.83383 ,37.61754 
97 ,17.7885 ,0.77197 ,3.82356 ,37.51681 
98 ,17.9647 ,0.77369 ,3.80645 ,37.34891 
99 ,18.1566 ,0.77557 ,3.78250 ,37.11387 
100 ,18.3487 ,0.77755 ,3.75854 ,36.87882 
101 ,18.5406 ,0.77936 ,3.76881 ,36.97955 
102 ,18.7168 ,0.78119 ,3.73459 ,36.64377 
103 ,18.8929 ,0.78296 ,3.71748 ,36.47588 
104 ,19.0850 ,0.78484 ,3.70379 ,36.34157 
105 ,19.2611 ,0.78666 ,3.69010 ,36.20725 
106 ,19.4532 ,0.78857 ,3.66272 ,35.93863 
107 ,19.6293 ,0.79029 ,3.64561 ,35.77073 
108 ,19.7894 ,0.79205 ,3.64561 ,35.77073 
109 ,19.9654 ,0.79370 ,3.62508 ,35.56926 
110 ,20.1410 ,0.79546 ,3.61481 ,35.46853 
111 ,20.3176 ,0.79722 ,3.60454 ,35.36779 
112 ,20.4933 ,0.79899 ,3.57032 ,35.03201 
113 ,20.6698 ,0.80074 ,3.55321 ,34.86412 
114 ,20.8456 ,0.80247 ,3.53952 ,34.72981 
115 ,21.0219 ,0.80425 ,3.52241 ,34.56192 
116 ,21.1975 ,0.80600 ,3.51899 ,34.52834 
117 ,21.3740 ,0.80776 ,3.49161 ,34.25971 
118 ,21.5502 ,0.80956 ,3.47108 ,34.05824 
119 ,21.7424 ,0.81139 ,3.47108 ,34.05824 
120 ,21.9183 ,0.81324 ,3.45397 ,33.89035 
121 ,22.0942 ,0.81496 ,3.43001 ,33.65530 
122 ,22.2699 ,0.81674 ,3.40948 ,33.45383 
123 ,22.4466 ,0.81846 ,3.40606 ,33.42025 
124 ,22.6225 ,0.82023 ,3.38895 ,33.25236 
125 ,22.7984 ,0.82200 ,3.38210 ,33.18520 
126 ,22.9745 ,0.82381 ,3.34104 ,32.78227 
127 ,23.1507 ,0.82550 ,3.32393 ,32.61437 
128 ,23.3263 ,0.82727 ,3.32735 ,32.64795 
129 ,23.5029 ,0.82904 ,3.30682 ,32.44648 
130 ,23.6789 ,0.83078 ,3.29997 ,32.37933 
131 ,23.8711 ,0.83272 ,3.25891 ,31.97639 
132 ,24.0470 ,0.83447 ,3.26233 ,32.00996 
133 ,24.2231 ,0.83621 ,3.25206 ,31.90923 
134 ,24.4151 ,0.83812 ,3.22468 ,31.64060 
135 ,24.5911 ,0.83993 ,3.21442 ,31.53987 
136 ,24.7673 ,0.84167 ,3.19046 ,31.30482 
137 ,24.9435 ,0.84349 ,3.18020 ,31.20409 
138 ,25.1195 ,0.84521 ,3.16993 ,31.10335 
139 ,25.3114 ,0.84710 ,3.15282 ,30.93546 
140 ,25.4873 ,0.84885 ,3.12886 ,30.70041 
141 ,25.6637 ,0.85062 ,3.12886 ,30.70041 
142 ,25.8398 ,0.85244 ,3.11175 ,30.53252 
143 ,26.0159 ,0.85417 ,3.09806 ,30.39821 
144 ,26.1918 ,0.85594 ,3.07069 ,30.12958 
145 ,26.3680 ,0.85771 ,3.04673 ,29.89453 
146 ,26.5440 ,0.85943 ,3.05700 ,29.99527 
147 ,26.7201 ,0.86124 ,3.02962 ,29.72664 
148 ,26.8962 ,0.86300 ,3.01935 ,29.62590 
149 ,27.0886 ,0.86486 ,2.99540 ,29.39086 
150 ,27.2641 ,0.86663 ,2.98855 ,29.32370 
151 ,27.4407 ,0.86838 ,2.97829 ,29.22297 
152 ,27.6324 ,0.87032 ,2.94064 ,28.85360 
153 ,27.8244 ,0.87225 ,2.93722 ,28.82003 
154 ,28.0006 ,0.87402 ,2.93380 ,28.78645 
155 ,28.1765 ,0.87579 ,2.91327 ,28.58498 
156 ,28.3687 ,0.87761 ,2.89273 ,28.38351 
157 ,28.5447 ,0.87947 ,2.88247 ,28.28277 
158 ,28.7208 ,0.88122 ,2.86193 ,28.08130 
159 ,28.9289 ,0.88324 ,2.84825 ,27.94699 
160 ,29.1050 ,0.88503 ,2.82771 ,27.74552 
161 ,29.2811 ,0.88678 ,2.81402 ,27.61121 
162 ,29.4731 ,0.88873 ,2.79691 ,27.44332 
163 ,29.6328 ,0.89044 ,2.77296 ,27.20827 
164 ,29.8093 ,0.89205 ,2.75243 ,27.00680 
165 ,30.0014 ,0.89390 ,2.74558 ,26.93964 
166 ,30.1934 ,0.89595 ,2.73189 ,26.80533 
167 ,30.3695 ,0.89768 ,2.71820 ,26.67101 
168 ,30.5457 ,0.89946 ,2.71478 ,26.63744 
169 ,30.7374 ,0.90132 ,2.69425 ,26.43597 
170 ,30.9136 ,0.90312 ,2.67714 ,26.26807 
171 ,31.0898 ,0.90485 ,2.66003 ,26.10018 
172 ,31.2814 ,0.90682 ,2.66687 ,26.16734 
173 ,31.4578 ,0.90852 ,2.64976 ,25.99945 
174 ,31.6500 ,0.91048 ,2.61554 ,25.66367 
175 ,31.8261 ,0.91224 ,2.59843 ,25.49577 
176 ,32.0180 ,0.91408 ,2.59158 ,25.42862 
177 ,32.1942 ,0.91591 ,2.57447 ,25.26073 
178 ,32.3703 ,0.91771 ,2.55736 ,25.09283 
179 ,32.5463 ,0.91946 ,2.53683 ,24.89136 
180 ,32.7225 ,0.92120 ,2.54367 ,24.95852 
181 ,32.9145 ,0.92311 ,2.51630 ,24.68989 
182 ,33.0906 ,0.92491 ,2.49234 ,24.45485 
183 ,33.2666 ,0.92663 ,2.47865 ,24.32053 
184 ,33.4588 ,0.92845 ,2.48550 ,24.38769 
185 ,33.6344 ,0.93036 ,2.47181 ,24.25338 
186 ,33.8109 ,0.93209 ,2.44443 ,23.98475 
187 ,34.0030 ,0.93396 ,2.42390 ,23.78328 
188 ,34.1951 ,0.93590 ,2.42048 ,23.74970 
189 ,34.3872 ,0.93778 ,2.40679 ,23.61539 
190 ,34.5632 ,0.93966 ,2.37599 ,23.31318 
191 ,34.7551 ,0.94151 ,2.36572 ,23.21245 
192 ,34.9310 ,0.94333 ,2.34519 ,23.01098 
193 ,35.1074 ,0.94504 ,2.33150 ,22.87667 
194 ,35.3154 ,0.94703 ,2.31781 ,22.74235 
195 ,35.4915 ,0.94894 ,2.31097 ,22.67520 
196 ,35.6674 ,0.95062 ,2.28701 ,22.44015 
197 ,35.8437 ,0.95241 ,2.26990 ,22.27226 
198 ,36.0196 ,0.95417 ,2.26306 ,22.20510 
199 ,36.1958 ,0.95591 ,2.26990 ,22.27226 
200 ,36.3720 ,0.95763 ,2.22883 ,21.86932 
201 ,36.5482 ,0.95945 ,2.20488 ,21.63427 
202 ,36.7400 ,0.96132 ,2.21515 ,21.73500 
203 ,36.9161 ,0.96314 ,2.19803 ,21.56711 
204 ,37.0922 ,0.96487 ,2.17750 ,21.36564 
205 ,37.2683 ,0.96664 ,2.14670 ,21.06344 
206 ,37.4601 ,0.96855 ,2.14670 ,21.06344 
207 ,37.6525 ,0.97038 ,2.14328 ,21.02986 
208 ,37.8284 ,0.97226 ,2.11248 ,20.72766 
209 ,38.0047 ,0.97397 ,2.10564 ,20.66050 
210 ,38.1803 ,0.97580 ,2.09195 ,20.52619 
211 ,38.3568 ,0.97754 ,2.08168 ,20.42545 
212 ,38.5490 ,0.97945 ,2.05088 ,20.12325 
213 ,38.7248 ,0.98117 ,2.04061 ,20.02251 
214 ,38.9011 ,0.98296 ,2.03377 ,19.95535 
215 ,39.0770 ,0.98474 ,2.01324 ,19.75388 
216 ,39.2528 ,0.98644 ,2.00982 ,19.72031 
217 ,39.4291 ,0.98834 ,1.98928 ,19.51884 
218 ,39.6052 ,0.99000 ,1.95848 ,19.21663 
219 ,39.7974 ,0.99188 ,1.96190 ,19.25021 
220 ,39.9733 ,0.99369 ,1.95848 ,19.21663 
221 ,40.1654 ,0.99557 ,1.92426 ,18.88085 
222 ,40.3418 ,0.99739 ,1.91057 ,18.74654 
223 ,40.5497 ,0.99933 ,1.90373 ,18.67938 
224 ,40.7418 ,1.00134 ,1.87293 ,18.37717 
225 ,40.9014 ,1.00312 ,1.86951 ,18.34360 
226 ,41.0614 ,1.00468 ,1.87635 ,18.41075 
227 ,41.2378 ,1.00631 ,1.85240 ,18.17570 
228 ,41.4299 ,1.00831 ,1.83186 ,17.97423 
229 ,41.6221 ,1.01022 ,1.81475 ,17.80634 
230 ,41.8141 ,1.01205 ,1.80791 ,17.73919 
231 ,41.9902 ,1.01386 ,1.79422 ,17.60487 
232 ,42.1663 ,1.01561 ,1.76342 ,17.30267 
233 ,42.3419 ,1.01737 ,1.75657 ,17.23551 
234 ,42.5183 ,1.01909 ,1.75657 ,17.23551 
235 ,42.6944 ,1.02086 ,1.73946 ,17.06762 
236 ,42.8706 ,1.02265 ,1.72235 ,16.89973 
237 ,43.0626 ,1.02459 ,1.70182 ,16.69826 
238 ,43.2386 ,1.02631 ,1.68471 ,16.53037 
239 ,43.4148 ,1.02809 ,1.68813 ,16.56395 
240 ,43.5908 ,1.02985 ,1.66760 ,16.36248 
241 ,43.7670 ,1.03157 ,1.64364 ,16.12743 
242 ,43.9590 ,1.03357 ,1.64022 ,16.09385 
243 ,44.1351 ,1.03532 ,1.63338 ,16.02669 
244 ,44.3269 ,1.03724 ,1.60258 ,15.72449 
245 ,44.5192 ,1.03909 ,1.59916 ,15.69091 
246 ,44.7112 ,1.04103 ,1.58889 ,15.59018 
247 ,44.8869 ,1.04276 ,1.56151 ,15.32155 
248 ,45.0470 ,1.04454 ,1.54098 ,15.12008 
249 ,45.2070 ,1.04610 ,1.52387 ,14.95219 
250 ,45.3834 ,1.04781 ,1.52387 ,14.95219 
251 ,45.5756 ,1.04973 ,1.53071 ,15.01934 
252 ,45.7517 ,1.05147 ,1.52045 ,14.91861 
253 ,45.9277 ,1.05320 ,1.48622 ,14.58283 
254 ,46.1039 ,1.05494 ,1.46911 ,14.41493 
255 ,46.2959 ,1.05683 ,1.47253 ,14.44851 
256 ,46.4721 ,1.05867 ,1.46569 ,14.38136 
257 ,46.6641 ,1.06052 ,1.43489 ,14.07915 
258 ,46.8560 ,1.06247 ,1.43489 ,14.07915 
259 ,47.0323 ,1.06425 ,1.43147 ,14.04557 
260 ,47.2244 ,1.06616 ,1.39040 ,13.64263 
261 ,47.4005 ,1.06797 ,1.37329 ,13.47474 
262 ,47.5920 ,1.06983 ,1.37671 ,13.50832 
263 ,47.7686 ,1.07162 ,1.35618 ,13.30685 
264 ,47.9605 ,1.07353 ,1.33907 ,13.13896 
265 ,48.1366 ,1.07531 ,1.33223 ,13.07180 
266 ,48.3127 ,1.07703 ,1.33223 ,13.07180 
267 ,48.5049 ,1.07891 ,1.29800 ,12.73602 
268 ,48.6809 ,1.08073 ,1.28432 ,12.60171 
269 ,48.8569 ,1.08245 ,1.28774 ,12.63528 
270 ,49.0327 ,1.08423 ,1.28774 ,12.63528 
271 ,49.2091 ,1.08595 ,1.25694 ,12.33308 
272 ,49.4011 ,1.08782 ,1.23641 ,12.13161 
273 ,49.5934 ,1.08984 ,1.23298 ,12.09803 
274 ,49.7533 ,1.09159 ,1.23298 ,12.09803 
275 ,49.9293 ,1.09320 ,1.20903 ,11.86298 
276 ,50.1055 ,1.09499 ,1.19192 ,11.69509 
277 ,50.2817 ,1.09675 ,1.16796 ,11.46004 
278 ,50.4576 ,1.09850 ,1.16454 ,11.42647 
279 ,50.6337 ,1.10032 ,1.16112 ,11.39289 
280 ,50.8257 ,1.10209 ,1.14058 ,11.19142 
281 ,51.0339 ,1.10419 ,1.14058 ,11.19142 
282 ,51.2101 ,1.10598 ,1.13032 ,11.09068 
283 ,51.4021 ,1.10783 ,1.10636 ,10.85563 
284 ,51.5781 ,1.10971 ,1.08241 ,10.62059 
285 ,51.7541 ,1.11156 ,1.07899 ,10.58701 
286 ,51.9304 ,1.11327 ,1.07556 ,10.55343 
287 ,52.1062 ,1.11497 ,1.05503 ,10.35196 
288 ,52.2983 ,1.11685 ,1.02765 ,10.08333 
289 ,52.4744 ,1.11865 ,1.03108 ,10.11691 
290 ,52.6663 ,1.12050 ,1.00712 ,9.88186 
291 ,52.8424 ,1.12233 ,0.99685 ,9.78113 
292 ,53.0185 ,1.12410 ,0.97632 ,9.57966 
293 ,53.1947 ,1.12585 ,0.98659 ,9.68039 
294 ,53.3708 ,1.12764 ,0.96605 ,9.47892 
295 ,53.5470 ,1.12936 ,0.95921 ,9.41177 
296 ,53.7230 ,1.13115 ,0.93525 ,9.17672 
297 ,53.9148 ,1.13305 ,0.93183 ,9.14314 
298 ,54.0909 ,1.13482 ,0.92157 ,9.04241 
299 ,54.2829 ,1.13672 ,0.89419 ,8.77378 
300 ,54.4594 ,1.13848 ,0.88734 ,8.70662 
301 ,54.6353 ,1.14025 ,0.86681 ,8.50515 
302 ,54.8433 ,1.14218 ,0.83943 ,8.23653 
303 ,55.0191 ,1.14405 ,0.85654 ,8.40442 
304 ,55.1954 ,1.14589 ,0.82575 ,8.10221 
305 ,55.4037 ,1.14788 ,0.81890 ,8.03506 
306 ,55.5796 ,1.14972 ,0.80179 ,7.86717 
307 ,55.7556 ,1.15143 ,0.80179 ,7.86717 
308 ,55.9318 ,1.15322 ,0.79495 ,7.80001 
309 ,56.0919 ,1.15494 ,0.78126 ,7.66570 
310 ,56.2680 ,1.15660 ,0.77099 ,7.56496 
311 ,56.4441 ,1.15833 ,0.75730 ,7.43065 
312 ,56.6202 ,1.16013 ,0.72992 ,7.16202 
313 ,56.7962 ,1.16186 ,0.72308 ,7.09486 
314 ,56.9723 ,1.16364 ,0.71966 ,7.06129 
315 ,57.1484 ,1.16539 ,0.70597 ,6.92697 
316 ,57.3244 ,1.16709 ,0.69228 ,6.79266 
317 ,57.5324 ,1.16909 ,0.67859 ,6.65835 
318 ,57.7245 ,1.17110 ,0.64437 ,6.32256 
319 ,57.9003 ,1.17288 ,0.64437 ,6.32256 
320 ,58.0927 ,1.17478 ,0.64779 ,6.35614 
321 ,58.2686 ,1.17654 ,0.64095 ,6.28899 
322 ,58.4608 ,1.17845 ,0.60330 ,5.91962 
323 ,58.6529 ,1.18033 ,0.61699 ,6.05394 
324 ,58.8450 ,1.18228 ,0.57593 ,5.65100 
325 ,59.0369 ,1.18418 ,0.57251 ,5.61742 
326 ,59.2127 ,1.18600 ,0.56224 ,5.51668 
327 ,59.3892 ,1.18779 ,0.55197 ,5.41595 
328 ,59.5812 ,1.18967 ,0.52802 ,5.18090 
329 ,59.7574 ,1.19145 ,0.51433 ,5.04659 
330 ,59.9494 ,1.19337 ,0.52802 ,5.18090 
331 ,60.1254 ,1.19509 ,0.50064 ,4.91228 
332 ,60.3011 ,1.19686 ,0.47326 ,4.64365 
333 ,60.4777 ,1.19861 ,0.46984 ,4.61007 
334 ,60.6538 ,1.20040 ,0.46300 ,4.54291 
335 ,60.8298 ,1.20221 ,0.44931 ,4.40860 
336 ,61.0377 ,1.20423 ,0.43562 ,4.27429 
337 ,61.2139 ,1.20597 ,0.42877 ,4.20713 
338 ,61.4059 ,1.20792 ,0.41509 ,4.07282 
339 ,61.5820 ,1.20971 ,0.39113 ,3.83777 
340 ,61.7579 ,1.21143 ,0.39113 ,3.83777 
341 ,61.9504 ,1.21327 ,0.38086 ,3.73703 
342 ,62.1261 ,1.21512 ,0.37744 ,3.70346 
343 ,62.3023 ,1.21684 ,0.33980 ,3.33410 
344 ,62.4783 ,1.21860 ,0.32953 ,3.23336 
345 ,62.6545 ,1.22044 ,0.32953 ,3.23336 
346 ,62.8626 ,1.22236 ,0.32269 ,3.16620 
347 ,63.0386 ,1.22430 ,0.30558 ,2.99831 
348 ,63.2147 ,1.22602 ,0.30900 ,3.03189 
349 ,63.4066 ,1.22795 ,0.28162 ,2.76326 
350 ,63.5987 ,1.22983 ,0.25424 ,2.49464 
351 ,63.7910 ,1.23175 ,0.27478 ,2.69611 
352 ,63.9671 ,1.23354 ,0.24740 ,2.42748 
353 ,64.1430 ,1.23528 ,0.22687 ,2.22601 
354 ,64.3191 ,1.23706 ,0.21660 ,2.12528 
355 ,64.4788 ,1.23875 ,0.21318 ,2.09170 
356 ,64.6553 ,1.24047 ,0.19607 ,1.92381 
357 ,64.8475 ,1.24235 ,0.19264 ,1.89023 
358 ,65.0395 ,1.24429 ,0.17896 ,1.75592 
359 ,65.2154 ,1.24602 ,0.16185 ,1.58802 
360 ,65.3915 ,1.24777 ,0.16185 ,1.58802 
361 ,65.5673 ,1.24955 ,0.16185 ,1.58802 
362 ,65.7437 ,1.25127 ,0.11736 ,1.15151 
363 ,65.9037 ,1.25300 ,0.11051 ,1.08435 
364 ,66.0799 ,1.25464 ,0.11051 ,1.08435 
365 ,66.2558 ,1.25649 ,0.09682 ,0.95004 
366 ,66.4321 ,1.25818 ,0.10025 ,0.98361 
367 ,66.6077 ,1.25993 ,0.08314 ,0.81572 
368 ,66.7840 ,1.26170 ,0.05576 ,0.54710 
369 ,66.9923 ,1.26374 ,0.05918 ,0.58067 
370 ,67.1682 ,1.26557 ,0.05234 ,0.51352 
371 ,67.3604 ,1.26749 ,0.03522 ,0.34563 
372 ,67.5363 ,1.26923 ,0.01811 ,0.17773 
373 ,67.7124 ,1.27096 ,0.01811 ,0.17773 
374 ,67.9044 ,1.27278 ,0.00100 ,0.00984 
375 ,68.1127 ,1.27490 ,-0.01953 ,-0.19163 
376 ,68.2886 ,1.27673 ,-0.02295 ,-0.22520 
377 ,68.4648 ,1.27848 ,-0.05033 ,-0.49383 
378 ,68.6405 ,1.28029 ,-0.06744 ,-0.66172 
379 ,68.8170 ,1.28198 ,-0.06744 ,-0.66172 
380 ,68.9931 ,1.28380 ,-0.06402 ,-0.62814 
381 ,69.1851 ,1.28568 ,-0.08797 ,-0.86319 
382 ,69.3613 ,1.28744 ,-0.10508 ,-1.03108 
383 ,69.5532 ,1.28932 ,-0.09140 ,-0.89677 
384 ,69.7450 ,1.29119 ,-0.11535 ,-1.13182 
385 ,69.9214 ,1.29303 ,-0.14273 ,-1.40045 
386 ,70.1133 ,1.29494 ,-0.12904 ,-1.26613 
387 ,70.3055 ,1.29679 ,-0.15299 ,-1.50118 
388 ,70.4978 ,1.29878 ,-0.14957 ,-1.46760 
389 ,70.6898 ,1.30068 ,-0.17353 ,-1.70265 
390 ,70.8658 ,1.30249 ,-0.19406 ,-1.90412 
391 ,71.0578 ,1.30431 ,-0.19406 ,-1.90412 
392 ,71.2338 ,1.30620 ,-0.19406 ,-1.90412 
393 ,71.4259 ,1.30801 ,-0.21117 ,-2.07201 
394 ,71.6022 ,1.30986 ,-0.24197 ,-2.37422 
395 ,71.7621 ,1.31157 ,-0.23513 ,-2.30706 
396 ,71.9222 ,1.31316 ,-0.23513 ,-2.30706 
397 ,72.0982 ,1.31479 ,-0.25566 ,-2.50853 
398 ,72.2743 ,1.31655 ,-0.24881 ,-2.44137 
399 ,72.4508 ,1.31834 ,-0.26250 ,-2.57569 
400 ,72.6427 ,1.32027 ,-0.29330 ,-2.87789 
401 ,72.8347 ,1.32216 ,-0.27961 ,-2.74358 
402 ,72.9946 ,1.32391 ,-0.29330 ,-2.87789 
403 ,73.1866 ,1.32568 ,-0.31384 ,-3.07936 
404 ,73.3629 ,1.32748 ,-0.33779 ,-3.31441 
405 ,73.5546 ,1.32939 ,-0.32752 ,-3.21367 
406 ,73.7148 ,1.33108 ,-0.33779 ,-3.31441 
407 ,73.8911 ,1.33272 ,-0.34121 ,-3.34799 
408 ,74.0671 ,1.33448 ,-0.35148 ,-3.44872 
409 ,74.2431 ,1.33624 ,-0.36517 ,-3.58303 
410 ,74.4191 ,1.33799 ,-0.37886 ,-3.71735 
411 ,74.5954 ,1.33974 ,-0.36517 ,-3.58303 
412 ,74.7875 ,1.34165 ,-0.40623 ,-3.98597 
413 ,74.9791 ,1.34360 ,-0.39597 ,-3.88524 
414 ,75.1557 ,1.34540 ,-0.40623 ,-3.98597 
415 ,75.3472 ,1.34726 ,-0.42335 ,-4.15387 
416 ,75.5238 ,1.34906 ,-0.44046 ,-4.32176 
417 ,75.7159 ,1.35094 ,-0.43019 ,-4.22102 
418 ,75.8919 ,1.35274 ,-0.42677 ,-4.18744 
419 ,76.0677 ,1.35448 ,-0.45757 ,-4.48965 
420 ,76.2443 ,1.35627 ,-0.47468 ,-4.65754 
421 ,76.4681 ,1.35834 ,-0.48152 ,-4.72470 
422 ,76.6443 ,1.36025 ,-0.49179 ,-4.82543 
423 ,76.8199 ,1.36203 ,-0.50548 ,-4.95975 
424 ,76.9963 ,1.36378 ,-0.49179 ,-4.82543 
425 ,77.1720 ,1.36551 ,-0.50206 ,-4.92617 
426 ,77.3484 ,1.36729 ,-0.50890 ,-4.99332 
427 ,77.5405 ,1.36923 ,-0.52943 ,-5.19479 
428 ,77.7166 ,1.37095 ,-0.52943 ,-5.19479 
429 ,77.8927 ,1.37270 ,-0.53628 ,-5.26195 
430 ,78.0846 ,1.37462 ,-0.56365 ,-5.53058 
431 ,78.2607 ,1.37637 ,-0.57050 ,-5.59773 
432 ,78.4370 ,1.37816 ,-0.56023 ,-5.49700 
433 ,78.6131 ,1.37997 ,-0.56023 ,-5.49700 
434 ,78.7891 ,1.38168 ,-0.58419 ,-5.73205 
435 ,78.9652 ,1.38347 ,-0.60130 ,-5.89994 
436 ,79.1412 ,1.38522 ,-0.59103 ,-5.79920 
437 ,79.3168 ,1.38708 ,-0.59788 ,-5.86636 
438 ,79.4933 ,1.38870 ,-0.61841 ,-6.06783 
439 ,79.6695 ,1.39048 ,-0.62868 ,-6.16856 
440 ,79.8614 ,1.39237 ,-0.63210 ,-6.20214 
441 ,80.0535 ,1.39430 ,-0.63894 ,-6.26930 
442 ,80.2296 ,1.39605 ,-0.66974 ,-6.57150 
443 ,80.4057 ,1.39781 ,-0.66632 ,-6.53793 
444 ,80.5818 ,1.39962 ,-0.66290 ,-6.50435 
445 ,80.7578 ,1.40138 ,-0.66974 ,-6.57150 
446 ,80.9502 ,1.40322 ,-0.68001 ,-6.67224 
447 ,81.1261 ,1.40508 ,-0.69370 ,-6.80655 
448 ,81.3022 ,1.40685 ,-0.70739 ,-6.94086 
449 ,81.4943 ,1.40868 ,-0.70739 ,-6.94086 
450 ,81.6862 ,1.41067 ,-0.72792 ,-7.14233 
451 ,81.8624 ,1.41237 ,-0.72107 ,-7.07518 
452 ,82.0544 ,1.41424 ,-0.71423 ,-7.00802 
453 ,82.2306 ,1.41612 ,-0.74503 ,-7.31023 
454 ,82.4063 ,1.41787 ,-0.75530 ,-7.41096 
455 ,82.5826 ,1.41963 ,-0.76898 ,-7.54527 
456 ,82.7748 ,1.42151 ,-0.73818 ,-7.24307 
457 ,82.9510 ,1.42332 ,-0.77583 ,-7.61243 
458 ,83.1270 ,1.42510 ,-0.78610 ,-7.71317 
459 ,83.3190 ,1.42696 ,-0.77925 ,-7.64601 
460 ,83.4951 ,1.42873 ,-0.79294 ,-7.78032 
461 ,83.6712 ,1.43049 ,-0.79978 ,-7.84748 
462 ,83.8471 ,1.43231 ,-0.82716 ,-8.11611 
463 ,84.0233 ,1.43403 ,-0.81347 ,-7.98179 
