Data stamp = , 01-04-2022 19:32:32 119

Calibration Values: 
Slope = , 26.54 , g/V 
Offset Voltage at no contact = , -0.501760 , V 

No , Time , Stage Position ,   Mass , Force 
   ,  (s) ,      (mm)      ,   (g)  , (mN)  

1 ,0.0000 ,0.59946 ,5.44567 ,53.43292 
2 ,0.2007 ,0.59951 ,5.41829 ,53.16429 
3 ,0.5208 ,0.60035 ,5.43198 ,53.29861 
4 ,0.7132 ,0.60175 ,5.44909 ,53.46650 
5 ,0.8900 ,0.60319 ,5.45594 ,53.53366 
6 ,1.0973 ,0.60512 ,5.43540 ,53.33219 
7 ,1.2734 ,0.60698 ,5.44909 ,53.46650 
8 ,1.4655 ,0.60882 ,5.42856 ,53.26503 
9 ,1.6575 ,0.61082 ,5.44225 ,53.39934 
10 ,1.8337 ,0.61261 ,5.44567 ,53.43292 
11 ,2.0415 ,0.61464 ,5.43540 ,53.33219 
12 ,2.2175 ,0.61644 ,5.42856 ,53.26503 
13 ,2.3936 ,0.61819 ,5.43883 ,53.36576 
14 ,2.5698 ,0.61993 ,5.42172 ,53.19787 
15 ,2.7459 ,0.62174 ,5.40460 ,53.02998 
16 ,2.9218 ,0.62344 ,5.38065 ,52.79493 
17 ,3.0981 ,0.62520 ,5.37038 ,52.69420 
18 ,3.2740 ,0.62694 ,5.36696 ,52.66062 
19 ,3.4498 ,0.62885 ,5.32932 ,52.29126 
20 ,3.6263 ,0.63048 ,5.31563 ,52.15694 
21 ,3.8180 ,0.63243 ,5.30878 ,52.08979 
22 ,3.9943 ,0.63421 ,5.30194 ,52.02263 
23 ,4.1705 ,0.63592 ,5.27456 ,51.75401 
24 ,4.3625 ,0.63778 ,5.25403 ,51.55254 
25 ,4.5383 ,0.63959 ,5.25061 ,51.51896 
26 ,4.7145 ,0.64134 ,5.23007 ,51.31749 
27 ,4.8910 ,0.64315 ,5.20954 ,51.11602 
28 ,5.0669 ,0.64490 ,5.18216 ,50.84739 
29 ,5.2430 ,0.64666 ,5.17190 ,50.74666 
30 ,5.4189 ,0.64841 ,5.15479 ,50.57876 
31 ,5.5951 ,0.65016 ,5.14452 ,50.47803 
32 ,5.7711 ,0.65195 ,5.13083 ,50.34372 
33 ,5.9472 ,0.65366 ,5.10688 ,50.10867 
34 ,6.1232 ,0.65543 ,5.09661 ,50.00793 
35 ,6.2989 ,0.65720 ,5.07265 ,49.77289 
36 ,6.4754 ,0.65893 ,5.06581 ,49.70573 
37 ,6.6675 ,0.66087 ,5.03159 ,49.36995 
38 ,6.8434 ,0.66262 ,5.01106 ,49.16848 
39 ,7.0196 ,0.66440 ,5.01790 ,49.23563 
40 ,7.2117 ,0.66628 ,4.97341 ,48.79911 
41 ,7.4037 ,0.66819 ,4.95972 ,48.66480 
42 ,7.5798 ,0.67001 ,4.94261 ,48.49691 
43 ,7.7399 ,0.67170 ,4.94603 ,48.53049 
44 ,7.9320 ,0.67354 ,4.91181 ,48.19471 
45 ,8.1082 ,0.67530 ,4.89128 ,47.99324 
46 ,8.2842 ,0.67706 ,4.87075 ,47.79177 
47 ,8.4763 ,0.67900 ,4.87417 ,47.82534 
48 ,8.6522 ,0.68074 ,4.86048 ,47.69103 
49 ,8.8444 ,0.68256 ,4.81257 ,47.22093 
50 ,9.0365 ,0.68460 ,4.80915 ,47.18736 
51 ,9.2128 ,0.68636 ,4.79204 ,47.01946 
52 ,9.4046 ,0.68824 ,4.77835 ,46.88515 
53 ,9.5968 ,0.69018 ,4.77150 ,46.81800 
54 ,9.7724 ,0.69193 ,4.75439 ,46.65010 
55 ,9.9486 ,0.69368 ,4.71675 ,46.28074 
56 ,10.1247 ,0.69544 ,4.70306 ,46.14643 
57 ,10.3165 ,0.69729 ,4.69964 ,46.11285 
58 ,10.4930 ,0.69910 ,4.68253 ,45.94496 
59 ,10.6692 ,0.70095 ,4.66199 ,45.74349 
60 ,10.8288 ,0.70264 ,4.63462 ,45.47486 
61 ,11.0053 ,0.70425 ,4.61408 ,45.27339 
62 ,11.1974 ,0.70619 ,4.61408 ,45.27339 
63 ,11.3733 ,0.70793 ,4.59355 ,45.07192 
64 ,11.5656 ,0.70977 ,4.57644 ,44.90403 
65 ,11.7417 ,0.71162 ,4.54564 ,44.60183 
66 ,11.9336 ,0.71350 ,4.54564 ,44.60183 
67 ,12.1098 ,0.71527 ,4.52169 ,44.36678 
68 ,12.3019 ,0.71723 ,4.49089 ,44.06457 
69 ,12.4777 ,0.71897 ,4.47035 ,43.86310 
70 ,12.6540 ,0.72075 ,4.48062 ,43.96384 
71 ,12.8301 ,0.72250 ,4.44640 ,43.62806 
72 ,13.0061 ,0.72427 ,4.41902 ,43.35943 
73 ,13.1984 ,0.72615 ,4.41218 ,43.29227 
74 ,13.3903 ,0.72803 ,4.39164 ,43.09080 
75 ,13.5663 ,0.72989 ,4.36769 ,42.85576 
76 ,13.7423 ,0.73161 ,4.35058 ,42.68786 
77 ,13.9344 ,0.73340 ,4.34716 ,42.65429 
78 ,14.1265 ,0.73548 ,4.32320 ,42.41924 
79 ,14.3026 ,0.73722 ,4.29924 ,42.18419 
80 ,14.4950 ,0.73917 ,4.29924 ,42.18419 
81 ,14.6707 ,0.74089 ,4.28213 ,42.01630 
82 ,14.8629 ,0.74286 ,4.24449 ,41.64694 
83 ,15.0546 ,0.74464 ,4.22738 ,41.47905 
84 ,15.2310 ,0.74649 ,4.23765 ,41.57978 
85 ,15.4071 ,0.74825 ,4.20000 ,41.21042 
86 ,15.5991 ,0.75016 ,4.18974 ,41.10968 
87 ,15.7753 ,0.75197 ,4.17262 ,40.94179 
88 ,15.9673 ,0.75380 ,4.13840 ,40.60601 
89 ,16.1268 ,0.75557 ,4.12129 ,40.43812 
90 ,16.3034 ,0.75724 ,4.10418 ,40.27023 
91 ,16.4795 ,0.75896 ,4.09049 ,40.13591 
92 ,16.6555 ,0.76071 ,4.08365 ,40.06876 
93 ,16.8636 ,0.76284 ,4.04943 ,39.73297 
94 ,17.0396 ,0.76456 ,4.01863 ,39.43077 
95 ,17.2158 ,0.76628 ,4.02205 ,39.46435 
96 ,17.3919 ,0.76806 ,4.00836 ,39.33003 
97 ,17.5680 ,0.76982 ,3.96387 ,38.89352 
98 ,17.7441 ,0.77163 ,3.94676 ,38.72562 
99 ,17.9201 ,0.77336 ,3.93992 ,38.65847 
100 ,18.1123 ,0.77527 ,3.92281 ,38.49058 
101 ,18.2883 ,0.77707 ,3.90570 ,38.32268 
102 ,18.4803 ,0.77896 ,3.88174 ,38.08764 
103 ,18.6724 ,0.78089 ,3.86121 ,37.88617 
104 ,18.8645 ,0.78269 ,3.84410 ,37.71828 
105 ,19.0565 ,0.78475 ,3.84067 ,37.68470 
106 ,19.2324 ,0.78651 ,3.82014 ,37.48323 
107 ,19.4247 ,0.78836 ,3.78250 ,37.11387 
108 ,19.6488 ,0.79051 ,3.76196 ,36.91240 
109 ,19.8248 ,0.79237 ,3.73459 ,36.64377 
110 ,20.0008 ,0.79416 ,3.72774 ,36.57661 
111 ,20.1931 ,0.79597 ,3.71405 ,36.44230 
112 ,20.3851 ,0.79804 ,3.68668 ,36.17367 
113 ,20.5613 ,0.79979 ,3.67983 ,36.10652 
114 ,20.7373 ,0.80158 ,3.66614 ,35.97220 
115 ,20.9291 ,0.80346 ,3.63534 ,35.67000 
116 ,21.1053 ,0.80526 ,3.62166 ,35.53569 
117 ,21.2973 ,0.80703 ,3.63192 ,35.63642 
118 ,21.4897 ,0.80906 ,3.60797 ,35.40137 
119 ,21.6818 ,0.81100 ,3.57032 ,35.03201 
120 ,21.8575 ,0.81278 ,3.56690 ,34.99843 
121 ,22.0497 ,0.81467 ,3.54295 ,34.76338 
122 ,22.2257 ,0.81641 ,3.51557 ,34.49476 
123 ,22.4177 ,0.81836 ,3.52584 ,34.59549 
124 ,22.6098 ,0.82021 ,3.48477 ,34.19255 
125 ,22.8020 ,0.82218 ,3.46766 ,34.02466 
126 ,22.9782 ,0.82391 ,3.47450 ,34.09182 
127 ,23.1700 ,0.82587 ,3.44370 ,33.78961 
128 ,23.3464 ,0.82760 ,3.41633 ,33.52099 
129 ,23.5223 ,0.82947 ,3.42317 ,33.58814 
130 ,23.6984 ,0.83111 ,3.41290 ,33.48741 
131 ,23.8744 ,0.83289 ,3.38553 ,33.21878 
132 ,24.0507 ,0.83465 ,3.35815 ,32.95016 
133 ,24.2427 ,0.83662 ,3.34104 ,32.78227 
134 ,24.4348 ,0.83840 ,3.32735 ,32.64795 
135 ,24.6268 ,0.84050 ,3.31024 ,32.48006 
136 ,24.8028 ,0.84222 ,3.28628 ,32.24501 
137 ,24.9790 ,0.84392 ,3.28971 ,32.27859 
138 ,25.1707 ,0.84589 ,3.26233 ,32.00996 
139 ,25.3472 ,0.84757 ,3.23837 ,31.77492 
140 ,25.5230 ,0.84936 ,3.21442 ,31.53987 
141 ,25.6993 ,0.85113 ,3.21100 ,31.50629 
142 ,25.8752 ,0.85293 ,3.20415 ,31.43913 
143 ,26.0514 ,0.85465 ,3.16651 ,31.06977 
144 ,26.2274 ,0.85646 ,3.14255 ,30.83472 
145 ,26.4036 ,0.85819 ,3.13571 ,30.76757 
146 ,26.5795 ,0.85997 ,3.12544 ,30.66683 
147 ,26.7556 ,0.86165 ,3.10491 ,30.46536 
148 ,26.9318 ,0.86349 ,3.08095 ,30.23031 
149 ,27.1399 ,0.86550 ,3.06042 ,30.02884 
150 ,27.3157 ,0.86727 ,3.05700 ,29.99527 
151 ,27.4919 ,0.86905 ,3.05015 ,29.92811 
152 ,27.6678 ,0.87080 ,3.01251 ,29.55875 
153 ,27.8436 ,0.87264 ,3.00909 ,29.52517 
154 ,28.0036 ,0.87427 ,3.01251 ,29.55875 
155 ,28.1637 ,0.87589 ,2.98171 ,29.25654 
156 ,28.3402 ,0.87757 ,2.96118 ,29.05507 
157 ,28.5162 ,0.87926 ,2.95091 ,28.95434 
158 ,28.6924 ,0.88106 ,2.93038 ,28.75287 
159 ,28.8684 ,0.88277 ,2.90300 ,28.48424 
160 ,29.0604 ,0.88471 ,2.89273 ,28.38351 
161 ,29.2365 ,0.88650 ,2.88931 ,28.34993 
162 ,29.3966 ,0.88821 ,2.84825 ,27.94699 
163 ,29.5727 ,0.88981 ,2.84482 ,27.91341 
164 ,29.7648 ,0.89179 ,2.83456 ,27.81268 
165 ,29.9572 ,0.89363 ,2.80376 ,27.51047 
166 ,30.1488 ,0.89562 ,2.77980 ,27.27542 
167 ,30.3250 ,0.89737 ,2.77296 ,27.20827 
168 ,30.5011 ,0.89914 ,2.76611 ,27.14111 
169 ,30.6771 ,0.90089 ,2.74558 ,26.93964 
170 ,30.8529 ,0.90262 ,2.73189 ,26.80533 
171 ,31.0133 ,0.90438 ,2.70109 ,26.50312 
172 ,31.1894 ,0.90606 ,2.69083 ,26.40239 
173 ,31.3816 ,0.90780 ,2.69083 ,26.40239 
174 ,31.5896 ,0.90986 ,2.67372 ,26.23450 
175 ,31.7815 ,0.91185 ,2.64292 ,25.93229 
176 ,31.9416 ,0.91365 ,2.63265 ,25.83156 
177 ,32.1176 ,0.91530 ,2.61554 ,25.66367 
178 ,32.2938 ,0.91702 ,2.58474 ,25.36146 
179 ,32.4858 ,0.91887 ,2.57447 ,25.26073 
180 ,32.6619 ,0.92075 ,2.57447 ,25.26073 
181 ,32.8381 ,0.92247 ,2.55052 ,25.02568 
182 ,33.0141 ,0.92427 ,2.53341 ,24.85779 
183 ,33.1905 ,0.92601 ,2.50261 ,24.55558 
184 ,33.3821 ,0.92792 ,2.52314 ,24.75705 
185 ,33.5583 ,0.92969 ,2.48892 ,24.42127 
186 ,33.7344 ,0.93147 ,2.46154 ,24.15264 
187 ,33.9106 ,0.93326 ,2.44443 ,23.98475 
188 ,34.0865 ,0.93502 ,2.43759 ,23.91759 
189 ,34.2622 ,0.93677 ,2.42390 ,23.78328 
190 ,34.4548 ,0.93855 ,2.41363 ,23.68255 
191 ,34.6308 ,0.94042 ,2.37599 ,23.31318 
192 ,34.8068 ,0.94216 ,2.37599 ,23.31318 
193 ,34.9829 ,0.94402 ,2.36572 ,23.21245 
194 ,35.1589 ,0.94572 ,2.34177 ,22.97740 
195 ,35.3672 ,0.94773 ,2.32465 ,22.80951 
196 ,35.5428 ,0.94954 ,2.31097 ,22.67520 
197 ,35.7187 ,0.95129 ,2.30412 ,22.60804 
198 ,35.8788 ,0.95301 ,2.27332 ,22.30584 
199 ,36.0553 ,0.95468 ,2.24937 ,22.07079 
200 ,36.2633 ,0.95671 ,2.25963 ,22.17152 
201 ,36.4394 ,0.95852 ,2.23568 ,21.93647 
202 ,36.6316 ,0.96031 ,2.20830 ,21.66785 
203 ,36.8074 ,0.96216 ,2.18435 ,21.43280 
204 ,36.9838 ,0.96395 ,2.18435 ,21.43280 
205 ,37.1596 ,0.96566 ,2.17066 ,21.29849 
206 ,37.3519 ,0.96750 ,2.14328 ,21.02986 
207 ,37.5441 ,0.96961 ,2.13301 ,20.92912 
208 ,37.7361 ,0.97142 ,2.10906 ,20.69408 
209 ,37.9282 ,0.97339 ,2.09195 ,20.52619 
210 ,38.1202 ,0.97531 ,2.09195 ,20.52619 
211 ,38.2963 ,0.97704 ,2.06799 ,20.29114 
212 ,38.4884 ,0.97898 ,2.04404 ,20.05609 
213 ,38.6642 ,0.98076 ,2.04404 ,20.05609 
214 ,38.8404 ,0.98248 ,2.02693 ,19.88820 
215 ,39.0165 ,0.98427 ,1.98928 ,19.51884 
216 ,39.2086 ,0.98618 ,1.98244 ,19.45168 
217 ,39.3847 ,0.98793 ,1.97902 ,19.41810 
218 ,39.5769 ,0.98990 ,1.94137 ,19.04874 
219 ,39.7685 ,0.99178 ,1.93453 ,18.98158 
220 ,39.9450 ,0.99354 ,1.92084 ,18.84727 
221 ,40.1211 ,0.99528 ,1.91742 ,18.81369 
222 ,40.2969 ,0.99708 ,1.88662 ,18.51149 
223 ,40.4732 ,0.99878 ,1.86951 ,18.34360 
224 ,40.6332 ,1.00052 ,1.85582 ,18.20928 
225 ,40.8094 ,1.00216 ,1.83871 ,18.04139 
226 ,40.9851 ,1.00396 ,1.83186 ,17.97423 
227 ,41.1614 ,1.00567 ,1.82160 ,17.87350 
228 ,41.3375 ,1.00743 ,1.79764 ,17.63845 
229 ,41.5135 ,1.00931 ,1.78737 ,17.53772 
230 ,41.7053 ,1.01111 ,1.79080 ,17.57129 
231 ,41.8817 ,1.01286 ,1.76684 ,17.33625 
232 ,42.0739 ,1.01481 ,1.73262 ,17.00046 
233 ,42.2498 ,1.01659 ,1.72920 ,16.96689 
234 ,42.4257 ,1.01834 ,1.72235 ,16.89973 
235 ,42.6020 ,1.02013 ,1.70524 ,16.73184 
236 ,42.8100 ,1.02210 ,1.69498 ,16.63110 
237 ,42.9862 ,1.02393 ,1.67102 ,16.39605 
238 ,43.1782 ,1.02589 ,1.65391 ,16.22816 
239 ,43.3544 ,1.02764 ,1.63338 ,16.02669 
240 ,43.5624 ,1.02965 ,1.63338 ,16.02669 
241 ,43.7385 ,1.03145 ,1.60942 ,15.79164 
242 ,43.9305 ,1.03335 ,1.59231 ,15.62375 
243 ,44.1064 ,1.03516 ,1.59231 ,15.62375 
244 ,44.2984 ,1.03705 ,1.56836 ,15.38871 
245 ,44.4749 ,1.03877 ,1.55124 ,15.22081 
246 ,44.6669 ,1.04077 ,1.54098 ,15.12008 
247 ,44.8426 ,1.04255 ,1.53071 ,15.01934 
248 ,45.0189 ,1.04428 ,1.51702 ,14.88503 
249 ,45.2107 ,1.04615 ,1.49991 ,14.71714 
250 ,45.3870 ,1.04794 ,1.48622 ,14.58283 
251 ,45.5630 ,1.04966 ,1.48280 ,14.54925 
252 ,45.7553 ,1.05154 ,1.45885 ,14.31420 
253 ,45.9313 ,1.05346 ,1.42805 ,14.01199 
254 ,46.1075 ,1.05515 ,1.43489 ,14.07915 
255 ,46.2995 ,1.05711 ,1.41778 ,13.91126 
256 ,46.4753 ,1.05880 ,1.38356 ,13.57548 
257 ,46.6514 ,1.06061 ,1.38356 ,13.57548 
258 ,46.8438 ,1.06244 ,1.37671 ,13.50832 
259 ,47.0198 ,1.06426 ,1.36303 ,13.37401 
260 ,47.1959 ,1.06598 ,1.32880 ,13.03822 
261 ,47.3719 ,1.06779 ,1.32880 ,13.03822 
262 ,47.5479 ,1.06951 ,1.33223 ,13.07180 
263 ,47.7238 ,1.07129 ,1.32196 ,12.97107 
264 ,47.9000 ,1.07307 ,1.29458 ,12.70244 
265 ,48.0923 ,1.07495 ,1.28089 ,12.56813 
266 ,48.2683 ,1.07675 ,1.26378 ,12.40024 
267 ,48.4444 ,1.07850 ,1.26036 ,12.36666 
268 ,48.6203 ,1.08024 ,1.22956 ,12.06445 
269 ,48.7965 ,1.08200 ,1.21245 ,11.89656 
270 ,48.9726 ,1.08379 ,1.20218 ,11.79583 
271 ,49.1488 ,1.08554 ,1.20218 ,11.79583 
272 ,49.3407 ,1.08741 ,1.17823 ,11.56078 
273 ,49.5168 ,1.08922 ,1.16454 ,11.42647 
274 ,49.6931 ,1.09100 ,1.14743 ,11.25857 
275 ,49.8684 ,1.09286 ,1.15770 ,11.35931 
276 ,50.0450 ,1.09448 ,1.14058 ,11.19142 
277 ,50.2368 ,1.09640 ,1.09952 ,10.78848 
278 ,50.4132 ,1.09821 ,1.09610 ,10.75490 
279 ,50.5894 ,1.09996 ,1.09267 ,10.72132 
280 ,50.7653 ,1.10169 ,1.09610 ,10.75490 
281 ,50.9573 ,1.10360 ,1.04819 ,10.28480 
282 ,51.1333 ,1.10535 ,1.05161 ,10.31838 
283 ,51.3096 ,1.10716 ,1.04819 ,10.28480 
284 ,51.4855 ,1.10894 ,1.03108 ,10.11691 
285 ,51.6776 ,1.11080 ,1.00028 ,9.81471 
286 ,51.8536 ,1.11257 ,0.99343 ,9.74755 
287 ,52.0298 ,1.11435 ,0.99001 ,9.71397 
288 ,52.2218 ,1.11620 ,0.96263 ,9.44535 
289 ,52.3981 ,1.11803 ,0.95237 ,9.34461 
290 ,52.5902 ,1.11983 ,0.94210 ,9.24388 
291 ,52.7821 ,1.12187 ,0.93868 ,9.21030 
292 ,52.9581 ,1.12356 ,0.90788 ,8.90809 
293 ,53.1504 ,1.12554 ,0.91814 ,9.00883 
294 ,53.3421 ,1.12742 ,0.89077 ,8.74020 
295 ,53.5183 ,1.12920 ,0.86681 ,8.50515 
296 ,53.7103 ,1.13102 ,0.84628 ,8.30368 
297 ,53.8866 ,1.13293 ,0.85997 ,8.43800 
298 ,54.0622 ,1.13466 ,0.84970 ,8.33726 
299 ,54.2389 ,1.13641 ,0.82232 ,8.06864 
300 ,54.4307 ,1.13832 ,0.81548 ,8.00148 
301 ,54.6068 ,1.14004 ,0.81206 ,7.96790 
302 ,54.7826 ,1.14185 ,0.79152 ,7.76643 
303 ,54.9591 ,1.14361 ,0.76415 ,7.49780 
304 ,55.1509 ,1.14558 ,0.76415 ,7.49780 
305 ,55.3430 ,1.14740 ,0.73677 ,7.22918 
306 ,55.5193 ,1.14922 ,0.72650 ,7.12844 
307 ,55.7113 ,1.15109 ,0.72992 ,7.16202 
308 ,55.8874 ,1.15290 ,0.71624 ,7.02771 
309 ,56.0793 ,1.15470 ,0.69570 ,6.82624 
310 ,56.2555 ,1.15654 ,0.67859 ,6.65835 
311 ,56.4316 ,1.15835 ,0.67517 ,6.62477 
312 ,56.6076 ,1.16016 ,0.66490 ,6.52403 
313 ,56.7837 ,1.16186 ,0.65121 ,6.38972 
314 ,56.9598 ,1.16363 ,0.62726 ,6.15467 
315 ,57.1359 ,1.16539 ,0.61357 ,6.02036 
316 ,57.2959 ,1.16709 ,0.60330 ,5.91962 
317 ,57.4878 ,1.16887 ,0.60673 ,5.95320 
318 ,57.6641 ,1.17067 ,0.57593 ,5.65100 
319 ,57.8401 ,1.17241 ,0.56566 ,5.55026 
320 ,58.0482 ,1.17441 ,0.56908 ,5.58384 
321 ,58.2244 ,1.17623 ,0.54171 ,5.31522 
322 ,58.4002 ,1.17808 ,0.53486 ,5.24806 
323 ,58.5925 ,1.17991 ,0.52459 ,5.14732 
324 ,58.7846 ,1.18183 ,0.51433 ,5.04659 
325 ,58.9767 ,1.18381 ,0.48353 ,4.74438 
326 ,59.1529 ,1.18559 ,0.48353 ,4.74438 
327 ,59.3445 ,1.18747 ,0.47326 ,4.64365 
328 ,59.5209 ,1.18925 ,0.45615 ,4.47576 
329 ,59.7129 ,1.19114 ,0.46300 ,4.54291 
330 ,59.9050 ,1.19304 ,0.44246 ,4.34144 
331 ,60.0811 ,1.19483 ,0.41851 ,4.10640 
332 ,60.2571 ,1.19665 ,0.39455 ,3.87135 
333 ,60.4331 ,1.19833 ,0.39455 ,3.87135 
334 ,60.6093 ,1.20009 ,0.39455 ,3.87135 
335 ,60.8012 ,1.20203 ,0.37060 ,3.63630 
336 ,60.9775 ,1.20381 ,0.35349 ,3.46841 
337 ,61.1536 ,1.20554 ,0.35006 ,3.43483 
338 ,61.3296 ,1.20734 ,0.33980 ,3.33410 
339 ,61.5054 ,1.20900 ,0.32953 ,3.23336 
340 ,61.6818 ,1.21082 ,0.32269 ,3.16620 
341 ,61.8575 ,1.21258 ,0.30558 ,2.99831 
342 ,62.0339 ,1.21436 ,0.28847 ,2.83042 
343 ,62.2097 ,1.21611 ,0.28162 ,2.76326 
344 ,62.3859 ,1.21785 ,0.28504 ,2.79684 
345 ,62.5619 ,1.21961 ,0.25424 ,2.49464 
346 ,62.7381 ,1.22139 ,0.24398 ,2.39390 
347 ,62.9142 ,1.22315 ,0.23713 ,2.32675 
348 ,63.1063 ,1.22506 ,0.22344 ,2.19243 
349 ,63.2984 ,1.22697 ,0.20291 ,1.99096 
350 ,63.4902 ,1.22881 ,0.19264 ,1.89023 
351 ,63.6666 ,1.23064 ,0.19264 ,1.89023 
352 ,63.8426 ,1.23245 ,0.16869 ,1.65518 
353 ,64.0186 ,1.23419 ,0.16185 ,1.58802 
354 ,64.1950 ,1.23595 ,0.15842 ,1.55445 
355 ,64.3707 ,1.23767 ,0.15158 ,1.48729 
356 ,64.5470 ,1.23946 ,0.13447 ,1.31940 
357 ,64.7391 ,1.24133 ,0.12420 ,1.21866 
358 ,64.9309 ,1.24330 ,0.12078 ,1.18508 
359 ,65.1071 ,1.24506 ,0.10709 ,1.05077 
360 ,65.2830 ,1.24688 ,0.07971 ,0.78214 
361 ,65.4593 ,1.24857 ,0.06945 ,0.68141 
362 ,65.6510 ,1.25045 ,0.06602 ,0.64783 
363 ,65.8274 ,1.25227 ,0.05576 ,0.54710 
364 ,66.0194 ,1.25418 ,0.03865 ,0.37920 
365 ,66.1958 ,1.25598 ,0.03180 ,0.31205 
366 ,66.3715 ,1.25771 ,0.02154 ,0.21131 
367 ,66.5475 ,1.25949 ,0.01469 ,0.14416 
368 ,66.7395 ,1.26140 ,-0.01269 ,-0.12447 
369 ,66.9157 ,1.26318 ,-0.02295 ,-0.22520 
370 ,67.0918 ,1.26490 ,-0.02295 ,-0.22520 
371 ,67.2676 ,1.26663 ,-0.02980 ,-0.29236 
372 ,67.4439 ,1.26841 ,-0.04348 ,-0.42667 
373 ,67.6199 ,1.27016 ,-0.05375 ,-0.52741 
374 ,67.7959 ,1.27195 ,-0.07086 ,-0.69530 
375 ,67.9722 ,1.27370 ,-0.07086 ,-0.69530 
376 ,68.1804 ,1.27568 ,-0.08113 ,-0.79604 
377 ,68.3722 ,1.27768 ,-0.08455 ,-0.82961 
378 ,68.5645 ,1.27960 ,-0.10851 ,-1.06466 
379 ,68.7404 ,1.28135 ,-0.11877 ,-1.16540 
380 ,68.9166 ,1.28310 ,-0.12904 ,-1.26613 
381 ,69.0927 ,1.28491 ,-0.12219 ,-1.19898 
382 ,69.2685 ,1.28664 ,-0.12562 ,-1.23255 
383 ,69.4448 ,1.28841 ,-0.14615 ,-1.43402 
384 ,69.6208 ,1.29014 ,-0.17011 ,-1.66907 
385 ,69.7971 ,1.29195 ,-0.15984 ,-1.56834 
386 ,69.9730 ,1.29371 ,-0.17353 ,-1.70265 
387 ,70.1492 ,1.29545 ,-0.18037 ,-1.76981 
388 ,70.3252 ,1.29725 ,-0.17695 ,-1.73623 
389 ,70.5011 ,1.29897 ,-0.20090 ,-1.97128 
390 ,70.6773 ,1.30072 ,-0.21117 ,-2.07201 
391 ,70.8694 ,1.30263 ,-0.19748 ,-1.93770 
392 ,71.0455 ,1.30438 ,-0.21802 ,-2.13917 
393 ,71.2377 ,1.30623 ,-0.23513 ,-2.30706 
394 ,71.4137 ,1.30813 ,-0.24197 ,-2.37422 
395 ,71.6059 ,1.31001 ,-0.23855 ,-2.34064 
396 ,71.7819 ,1.31183 ,-0.25224 ,-2.47495 
397 ,71.9579 ,1.31352 ,-0.26250 ,-2.57569 
398 ,72.1500 ,1.31543 ,-0.25908 ,-2.54211 
399 ,72.3261 ,1.31722 ,-0.27277 ,-2.67642 
400 ,72.5021 ,1.31900 ,-0.28646 ,-2.81073 
401 ,72.6780 ,1.32072 ,-0.31041 ,-3.04578 
402 ,72.8703 ,1.32266 ,-0.30015 ,-2.94505 
403 ,73.0460 ,1.32448 ,-0.32752 ,-3.21367 
404 ,73.2224 ,1.32623 ,-0.33779 ,-3.31441 
405 ,73.4302 ,1.32829 ,-0.32752 ,-3.21367 
406 ,73.6066 ,1.33003 ,-0.34464 ,-3.38156 
407 ,73.7986 ,1.33193 ,-0.37886 ,-3.71735 
408 ,73.9748 ,1.33374 ,-0.38228 ,-3.75093 
409 ,74.1506 ,1.33546 ,-0.37544 ,-3.68377 
410 ,74.3749 ,1.33747 ,-0.38570 ,-3.78450 
411 ,74.5667 ,1.33961 ,-0.38912 ,-3.81808 
412 ,74.7591 ,1.34149 ,-0.41308 ,-4.05313 
413 ,74.9350 ,1.34328 ,-0.41992 ,-4.12029 
414 ,75.1273 ,1.34525 ,-0.42335 ,-4.15387 
415 ,75.3192 ,1.34709 ,-0.44730 ,-4.38891 
416 ,75.4956 ,1.34890 ,-0.45072 ,-4.42249 
417 ,75.6713 ,1.35067 ,-0.45757 ,-4.48965 
418 ,75.8636 ,1.35260 ,-0.47126 ,-4.62396 
419 ,76.0397 ,1.35436 ,-0.48152 ,-4.72470 
420 ,76.2314 ,1.35624 ,-0.48494 ,-4.75828 
421 ,76.4078 ,1.35803 ,-0.48152 ,-4.72470 
422 ,76.5838 ,1.35975 ,-0.50890 ,-4.99332 
423 ,76.7600 ,1.36155 ,-0.51574 ,-5.06048 
424 ,76.9361 ,1.36334 ,-0.53285 ,-5.22837 
425 ,77.1281 ,1.36523 ,-0.51917 ,-5.09406 
426 ,77.3038 ,1.36700 ,-0.52259 ,-5.12764 
427 ,77.4803 ,1.36873 ,-0.55681 ,-5.46342 
428 ,77.6724 ,1.37066 ,-0.54312 ,-5.32911 
429 ,77.8805 ,1.37260 ,-0.58077 ,-5.69847 
430 ,78.0566 ,1.37455 ,-0.57392 ,-5.63131 
431 ,78.2325 ,1.37630 ,-0.57392 ,-5.63131 
432 ,78.4244 ,1.37812 ,-0.58419 ,-5.73205 
433 ,78.6167 ,1.38012 ,-0.59788 ,-5.86636 
434 ,78.8087 ,1.38198 ,-0.59445 ,-5.83278 
435 ,78.9848 ,1.38383 ,-0.60472 ,-5.93352 
436 ,79.1768 ,1.38557 ,-0.62868 ,-6.16856 
437 ,79.3529 ,1.38748 ,-0.63210 ,-6.20214 
438 ,79.5448 ,1.38936 ,-0.63210 ,-6.20214 
439 ,79.7212 ,1.39116 ,-0.65605 ,-6.43719 
440 ,79.8973 ,1.39293 ,-0.66632 ,-6.53793 
441 ,80.0732 ,1.39465 ,-0.66632 ,-6.53793 
442 ,80.2493 ,1.39638 ,-0.65947 ,-6.47077 
443 ,80.4255 ,1.39813 ,-0.66290 ,-6.50435 
444 ,80.6173 ,1.40004 ,-0.69027 ,-6.77297 
445 ,80.7935 ,1.40186 ,-0.69370 ,-6.80655 
446 ,80.9698 ,1.40361 ,-0.70054 ,-6.87371 
447 ,81.1618 ,1.40555 ,-0.71765 ,-7.04160 
448 ,81.3378 ,1.40734 ,-0.72450 ,-7.10876 
449 ,81.5137 ,1.40905 ,-0.73476 ,-7.20949 
450 ,81.7059 ,1.41097 ,-0.72792 ,-7.14233 
451 ,81.9141 ,1.41306 ,-0.73818 ,-7.24307 
452 ,82.0901 ,1.41484 ,-0.75530 ,-7.41096 
453 ,82.2661 ,1.41654 ,-0.76214 ,-7.47812 
454 ,82.4582 ,1.41838 ,-0.76556 ,-7.51170 
455 ,82.6343 ,1.42023 ,-0.78952 ,-7.74674 
456 ,82.8105 ,1.42202 ,-0.77925 ,-7.64601 
457 ,83.0185 ,1.42405 ,-0.81347 ,-7.98179 
458 ,83.1945 ,1.42587 ,-0.81005 ,-7.94821 
459 ,83.3707 ,1.42763 ,-0.80321 ,-7.88106 
460 ,83.5466 ,1.42938 ,-0.80321 ,-7.88106 
461 ,83.7227 ,1.43122 ,-0.84427 ,-8.28400 
462 ,83.8988 ,1.43294 ,-0.84769 ,-8.31758 
463 ,84.0750 ,1.43467 ,-0.85112 ,-8.35115 
