Data stamp = , 04-04-2022 09:00:38 769

Calibration Values: 
Slope = , 26.54 , g/V 
Offset Voltage at no contact = , -0.501760 , V 

No , Time , Stage Position ,   Mass , Force 
   ,  (s) ,      (mm)      ,   (g)  , (mN)  

1 ,0.0000 ,0.59949 ,5.16163 ,50.64592 
2 ,0.2092 ,0.59954 ,5.18559 ,50.88097 
3 ,0.5617 ,0.60054 ,5.17874 ,50.81381 
4 ,0.7698 ,0.60217 ,5.17532 ,50.78023 
5 ,0.9619 ,0.60392 ,5.16163 ,50.64592 
6 ,1.1539 ,0.60577 ,5.16505 ,50.67950 
7 ,1.3301 ,0.60748 ,5.16505 ,50.67950 
8 ,1.5221 ,0.60945 ,5.15136 ,50.54519 
9 ,1.7142 ,0.61140 ,5.14452 ,50.47803 
10 ,1.8903 ,0.61324 ,5.12741 ,50.31014 
11 ,2.0824 ,0.61510 ,5.10003 ,50.04151 
12 ,2.2584 ,0.61693 ,5.09319 ,49.97436 
13 ,2.4504 ,0.61876 ,5.08977 ,49.94078 
14 ,2.6265 ,0.62053 ,5.07265 ,49.77289 
15 ,2.8346 ,0.62257 ,5.04870 ,49.53784 
16 ,3.0106 ,0.62440 ,5.04528 ,49.50426 
17 ,3.2187 ,0.62646 ,5.01106 ,49.16848 
18 ,3.3947 ,0.62821 ,5.00763 ,49.13490 
19 ,3.5707 ,0.62997 ,5.00079 ,49.06774 
20 ,3.7469 ,0.63175 ,4.97683 ,48.83269 
21 ,3.9226 ,0.63348 ,4.95630 ,48.63122 
22 ,4.0991 ,0.63525 ,4.94946 ,48.56407 
23 ,4.2754 ,0.63700 ,4.93577 ,48.42975 
24 ,4.4673 ,0.63892 ,4.92550 ,48.32902 
25 ,4.6752 ,0.64096 ,4.90155 ,48.09397 
26 ,4.8515 ,0.64278 ,4.90155 ,48.09397 
27 ,5.0434 ,0.64468 ,4.86732 ,47.75819 
28 ,5.2196 ,0.64644 ,4.83652 ,47.45598 
29 ,5.3957 ,0.64816 ,4.83652 ,47.45598 
30 ,5.5718 ,0.65000 ,4.82626 ,47.35525 
31 ,5.7637 ,0.65188 ,4.79204 ,47.01946 
32 ,5.9398 ,0.65367 ,4.76466 ,46.75084 
33 ,6.1160 ,0.65539 ,4.75439 ,46.65010 
34 ,6.3080 ,0.65731 ,4.73728 ,46.48221 
35 ,6.5161 ,0.65934 ,4.72702 ,46.38148 
36 ,6.6922 ,0.66115 ,4.69964 ,46.11285 
37 ,6.8839 ,0.66301 ,4.68253 ,45.94496 
38 ,7.0764 ,0.66507 ,4.65857 ,45.70991 
39 ,7.2521 ,0.66682 ,4.63462 ,45.47486 
40 ,7.4285 ,0.66854 ,4.63119 ,45.44128 
41 ,7.6044 ,0.67032 ,4.60382 ,45.17266 
42 ,7.7963 ,0.67206 ,4.57644 ,44.90403 
43 ,7.9887 ,0.67405 ,4.56275 ,44.76972 
44 ,8.1809 ,0.67606 ,4.54564 ,44.60183 
45 ,8.3728 ,0.67792 ,4.53537 ,44.50109 
46 ,8.5489 ,0.67977 ,4.50800 ,44.23247 
47 ,8.7248 ,0.68147 ,4.49089 ,44.06457 
48 ,8.9330 ,0.68356 ,4.48062 ,43.96384 
49 ,9.1251 ,0.68550 ,4.46009 ,43.76237 
50 ,9.3172 ,0.68743 ,4.44298 ,43.59448 
51 ,9.4933 ,0.68921 ,4.42929 ,43.46016 
52 ,9.6853 ,0.69109 ,4.39849 ,43.15796 
53 ,9.8614 ,0.69285 ,4.38138 ,42.99007 
54 ,10.0371 ,0.69455 ,4.38138 ,42.99007 
55 ,10.2136 ,0.69638 ,4.36084 ,42.78860 
56 ,10.3892 ,0.69815 ,4.35400 ,42.72144 
57 ,10.5656 ,0.69987 ,4.31978 ,42.38566 
58 ,10.7255 ,0.70159 ,4.29582 ,42.15061 
59 ,10.9018 ,0.70323 ,4.27871 ,41.98272 
60 ,11.0778 ,0.70501 ,4.27529 ,41.94914 
61 ,11.2701 ,0.70694 ,4.26502 ,41.84841 
62 ,11.4461 ,0.70869 ,4.24449 ,41.64694 
63 ,11.6382 ,0.71065 ,4.21027 ,41.31115 
64 ,11.8142 ,0.71240 ,4.21369 ,41.34473 
65 ,12.0062 ,0.71426 ,4.18289 ,41.04253 
66 ,12.1983 ,0.71620 ,4.17605 ,40.97537 
67 ,12.3903 ,0.71812 ,4.16920 ,40.90821 
68 ,12.5666 ,0.71987 ,4.13840 ,40.60601 
69 ,12.7587 ,0.72181 ,4.12129 ,40.43812 
70 ,12.9506 ,0.72372 ,4.11103 ,40.33738 
71 ,13.1103 ,0.72545 ,4.10076 ,40.23665 
72 ,13.2870 ,0.72713 ,4.08365 ,40.06876 
73 ,13.4789 ,0.72901 ,4.04258 ,39.66582 
74 ,13.6550 ,0.73079 ,4.05285 ,39.76655 
75 ,13.8471 ,0.73263 ,4.01520 ,39.39719 
76 ,14.0551 ,0.73465 ,4.01178 ,39.36361 
77 ,14.2312 ,0.73650 ,3.99125 ,39.16214 
78 ,14.4073 ,0.73832 ,3.97414 ,38.99425 
79 ,14.5831 ,0.74012 ,3.95703 ,38.82636 
80 ,14.7593 ,0.74178 ,3.94676 ,38.72562 
81 ,14.9352 ,0.74354 ,3.93650 ,38.62489 
82 ,15.1436 ,0.74550 ,3.91596 ,38.42342 
83 ,15.3355 ,0.74755 ,3.89201 ,38.18837 
84 ,15.5277 ,0.74949 ,3.88174 ,38.08764 
85 ,15.7037 ,0.75127 ,3.86121 ,37.88617 
86 ,15.8958 ,0.75316 ,3.84410 ,37.71828 
87 ,16.0720 ,0.75494 ,3.84067 ,37.68470 
88 ,16.2480 ,0.75668 ,3.82014 ,37.48323 
89 ,16.4242 ,0.75847 ,3.78250 ,37.11387 
90 ,16.6162 ,0.76041 ,3.78250 ,37.11387 
91 ,16.8083 ,0.76224 ,3.75854 ,36.87882 
92 ,17.0001 ,0.76414 ,3.75170 ,36.81166 
93 ,17.1924 ,0.76612 ,3.74143 ,36.71093 
94 ,17.3680 ,0.76791 ,3.73459 ,36.64377 
95 ,17.5446 ,0.76965 ,3.69010 ,36.20725 
96 ,17.7367 ,0.77156 ,3.69010 ,36.20725 
97 ,17.9126 ,0.77335 ,3.67299 ,36.03936 
98 ,18.1208 ,0.77541 ,3.65246 ,35.83789 
99 ,18.2969 ,0.77714 ,3.63534 ,35.67000 
100 ,18.4728 ,0.77890 ,3.61481 ,35.46853 
101 ,18.6485 ,0.78071 ,3.61139 ,35.43495 
102 ,18.8248 ,0.78246 ,3.58059 ,35.13275 
103 ,19.0009 ,0.78419 ,3.55663 ,34.89770 
104 ,19.1772 ,0.78597 ,3.54979 ,34.83054 
105 ,19.3692 ,0.78793 ,3.54637 ,34.79696 
106 ,19.5452 ,0.78960 ,3.52584 ,34.59549 
107 ,19.7214 ,0.79142 ,3.50530 ,34.39402 
108 ,19.8973 ,0.79319 ,3.48477 ,34.19255 
109 ,20.0736 ,0.79495 ,3.49504 ,34.29329 
110 ,20.2496 ,0.79671 ,3.47450 ,34.09182 
111 ,20.4256 ,0.79845 ,3.44713 ,33.82319 
112 ,20.6017 ,0.80021 ,3.43344 ,33.68888 
113 ,20.7777 ,0.80198 ,3.42317 ,33.58814 
114 ,20.9699 ,0.80381 ,3.41290 ,33.48741 
115 ,21.1455 ,0.80569 ,3.38553 ,33.21878 
116 ,21.3217 ,0.80740 ,3.37526 ,33.11805 
117 ,21.4980 ,0.80915 ,3.35130 ,32.88300 
118 ,21.6739 ,0.81093 ,3.36157 ,32.98374 
119 ,21.8501 ,0.81275 ,3.33419 ,32.71511 
120 ,22.0263 ,0.81447 ,3.31024 ,32.48006 
121 ,22.2024 ,0.81620 ,3.29313 ,32.31217 
122 ,22.3945 ,0.81804 ,3.28971 ,32.27859 
123 ,22.5704 ,0.81993 ,3.25891 ,31.97639 
124 ,22.7462 ,0.82164 ,3.25548 ,31.94281 
125 ,22.9384 ,0.82352 ,3.24522 ,31.84207 
126 ,23.0984 ,0.82531 ,3.23495 ,31.74134 
127 ,23.2743 ,0.82696 ,3.22126 ,31.60702 
128 ,23.4504 ,0.82868 ,3.20757 ,31.47271 
129 ,23.6267 ,0.83041 ,3.19046 ,31.30482 
130 ,23.8188 ,0.83238 ,3.18362 ,31.23766 
131 ,23.9947 ,0.83425 ,3.16651 ,31.06977 
132 ,24.1708 ,0.83591 ,3.14940 ,30.90188 
133 ,24.3468 ,0.83763 ,3.12886 ,30.70041 
134 ,24.5228 ,0.83941 ,3.11860 ,30.59968 
135 ,24.7150 ,0.84132 ,3.11860 ,30.59968 
136 ,24.8911 ,0.84309 ,3.10491 ,30.46536 
137 ,25.0674 ,0.84487 ,3.07411 ,30.16316 
138 ,25.2432 ,0.84658 ,3.07069 ,30.12958 
139 ,25.4354 ,0.84844 ,3.06042 ,30.02884 
140 ,25.6114 ,0.85031 ,3.03304 ,29.76022 
141 ,25.7875 ,0.85203 ,3.01593 ,29.59233 
142 ,25.9636 ,0.85385 ,3.01593 ,29.59233 
143 ,26.1395 ,0.85561 ,2.99540 ,29.39086 
144 ,26.3156 ,0.85733 ,2.96802 ,29.12223 
145 ,26.4917 ,0.85908 ,2.96118 ,29.05507 
146 ,26.6677 ,0.86085 ,2.93380 ,28.78645 
147 ,26.8278 ,0.86258 ,2.91327 ,28.58498 
148 ,27.0039 ,0.86423 ,2.89273 ,28.38351 
149 ,27.1800 ,0.86604 ,2.90642 ,28.51782 
150 ,27.3561 ,0.86774 ,2.88931 ,28.34993 
151 ,27.5321 ,0.86948 ,2.88931 ,28.34993 
152 ,27.7083 ,0.87125 ,2.84825 ,27.94699 
153 ,27.8843 ,0.87299 ,2.83114 ,27.77910 
154 ,28.0604 ,0.87478 ,2.82771 ,27.74552 
155 ,28.2205 ,0.87650 ,2.81745 ,27.64479 
156 ,28.3965 ,0.87810 ,2.78322 ,27.30900 
157 ,28.5726 ,0.87988 ,2.79349 ,27.40974 
158 ,28.7487 ,0.88168 ,2.77296 ,27.20827 
159 ,28.9087 ,0.88337 ,2.74900 ,26.97322 
160 ,29.0848 ,0.88503 ,2.73531 ,26.83891 
161 ,29.2609 ,0.88676 ,2.72505 ,26.73817 
162 ,29.4370 ,0.88856 ,2.71478 ,26.63744 
163 ,29.6130 ,0.89028 ,2.71136 ,26.60386 
164 ,29.7891 ,0.89205 ,2.68740 ,26.36881 
165 ,29.9651 ,0.89383 ,2.66345 ,26.13376 
166 ,30.1571 ,0.89570 ,2.66003 ,26.10018 
167 ,30.3493 ,0.89762 ,2.61554 ,25.66367 
168 ,30.5575 ,0.89969 ,2.63607 ,25.86514 
169 ,30.7499 ,0.90159 ,2.59501 ,25.46220 
170 ,30.9257 ,0.90344 ,2.56421 ,25.15999 
171 ,31.1340 ,0.90535 ,2.57789 ,25.29430 
172 ,31.3261 ,0.90740 ,2.54367 ,24.95852 
173 ,31.5341 ,0.90949 ,2.55052 ,25.02568 
174 ,31.7103 ,0.91129 ,2.52998 ,24.82421 
175 ,31.8866 ,0.91304 ,2.50603 ,24.58916 
176 ,32.0622 ,0.91481 ,2.50261 ,24.55558 
177 ,32.2384 ,0.91654 ,2.49918 ,24.52200 
178 ,32.4306 ,0.91842 ,2.46496 ,24.18622 
179 ,32.6227 ,0.92040 ,2.46496 ,24.18622 
180 ,32.7986 ,0.92215 ,2.44443 ,23.98475 
181 ,32.9909 ,0.92393 ,2.42732 ,23.81686 
182 ,33.1989 ,0.92599 ,2.41705 ,23.71612 
183 ,33.3910 ,0.92803 ,2.38625 ,23.41392 
184 ,33.5671 ,0.92983 ,2.36230 ,23.17887 
185 ,33.7752 ,0.93186 ,2.36230 ,23.17887 
186 ,33.9512 ,0.93367 ,2.34177 ,22.97740 
187 ,34.1273 ,0.93542 ,2.32808 ,22.84309 
188 ,34.3032 ,0.93714 ,2.32465 ,22.80951 
189 ,34.5113 ,0.93915 ,2.29728 ,22.54088 
190 ,34.6873 ,0.94100 ,2.28359 ,22.40657 
191 ,34.8632 ,0.94273 ,2.28701 ,22.44015 
192 ,35.0231 ,0.94450 ,2.25963 ,22.17152 
193 ,35.1993 ,0.94613 ,2.25279 ,22.10437 
194 ,35.3916 ,0.94797 ,2.22541 ,21.83574 
195 ,35.5998 ,0.95011 ,2.22541 ,21.83574 
196 ,35.7918 ,0.95206 ,2.18092 ,21.39922 
197 ,35.9679 ,0.95381 ,2.18092 ,21.39922 
198 ,36.1441 ,0.95560 ,2.17750 ,21.36564 
199 ,36.3362 ,0.95741 ,2.13986 ,20.99628 
200 ,36.5439 ,0.95948 ,2.13986 ,20.99628 
201 ,36.7204 ,0.96135 ,2.13301 ,20.92912 
202 ,36.8963 ,0.96311 ,2.10221 ,20.62692 
203 ,37.0726 ,0.96484 ,2.08852 ,20.49261 
204 ,37.2644 ,0.96668 ,2.09195 ,20.52619 
205 ,37.4567 ,0.96860 ,2.07141 ,20.32472 
206 ,37.6322 ,0.97044 ,2.05430 ,20.15682 
207 ,37.8088 ,0.97220 ,2.03377 ,19.95535 
208 ,38.0008 ,0.97413 ,2.02350 ,19.85462 
209 ,38.1770 ,0.97586 ,2.00639 ,19.68673 
210 ,38.3691 ,0.97783 ,1.98928 ,19.51884 
211 ,38.5611 ,0.97971 ,1.98586 ,19.48526 
212 ,38.7532 ,0.98163 ,1.96190 ,19.25021 
213 ,38.9452 ,0.98357 ,1.95506 ,19.18305 
214 ,39.1213 ,0.98534 ,1.93453 ,18.98158 
215 ,39.2975 ,0.98710 ,1.92426 ,18.88085 
216 ,39.5055 ,0.98910 ,1.90715 ,18.71296 
217 ,39.6818 ,0.99098 ,1.88319 ,18.47791 
218 ,39.8737 ,0.99283 ,1.86951 ,18.34360 
219 ,40.0656 ,0.99471 ,1.87977 ,18.44433 
220 ,40.2417 ,0.99650 ,1.85240 ,18.17570 
221 ,40.4178 ,0.99834 ,1.83186 ,17.97423 
222 ,40.5940 ,1.00007 ,1.80106 ,17.67203 
223 ,40.7697 ,1.00184 ,1.79764 ,17.63845 
224 ,40.9461 ,1.00356 ,1.80106 ,17.67203 
225 ,41.1378 ,1.00548 ,1.77026 ,17.36983 
226 ,41.3142 ,1.00726 ,1.76000 ,17.26909 
227 ,41.4905 ,1.00899 ,1.74973 ,17.16836 
228 ,41.6663 ,1.01080 ,1.73604 ,17.03404 
229 ,41.8581 ,1.01259 ,1.71209 ,16.79899 
230 ,42.0505 ,1.01455 ,1.69840 ,16.66468 
231 ,42.2426 ,1.01660 ,1.68471 ,16.53037 
232 ,42.4347 ,1.01838 ,1.67444 ,16.42963 
233 ,42.6268 ,1.02036 ,1.66075 ,16.29532 
234 ,42.8188 ,1.02221 ,1.63680 ,16.06027 
235 ,42.9948 ,1.02404 ,1.61969 ,15.89238 
236 ,43.1709 ,1.02578 ,1.61969 ,15.89238 
237 ,43.3471 ,1.02761 ,1.60942 ,15.79164 
238 ,43.5551 ,1.02957 ,1.59231 ,15.62375 
239 ,43.7312 ,1.03144 ,1.56493 ,15.35513 
240 ,43.9231 ,1.03331 ,1.55809 ,15.28797 
241 ,44.0993 ,1.03513 ,1.54098 ,15.12008 
242 ,44.2912 ,1.03699 ,1.53413 ,15.05292 
243 ,44.4833 ,1.03896 ,1.51702 ,14.88503 
244 ,44.6594 ,1.04070 ,1.49991 ,14.71714 
245 ,44.8675 ,1.04269 ,1.49649 ,14.68356 
246 ,45.0433 ,1.04448 ,1.47596 ,14.48209 
247 ,45.2198 ,1.04626 ,1.45885 ,14.31420 
248 ,45.4118 ,1.04822 ,1.44858 ,14.21346 
249 ,45.5877 ,1.04997 ,1.43831 ,14.11273 
250 ,45.7640 ,1.05176 ,1.41436 ,13.87768 
251 ,45.9400 ,1.05349 ,1.40067 ,13.74337 
252 ,46.1161 ,1.05524 ,1.39040 ,13.64263 
253 ,46.2923 ,1.05700 ,1.38698 ,13.60906 
254 ,46.4846 ,1.05899 ,1.36645 ,13.40759 
255 ,46.6603 ,1.06069 ,1.34249 ,13.17254 
256 ,46.8364 ,1.06249 ,1.33907 ,13.13896 
257 ,47.0126 ,1.06421 ,1.33223 ,13.07180 
258 ,47.2045 ,1.06613 ,1.30485 ,12.80318 
259 ,47.3803 ,1.06789 ,1.29116 ,12.66886 
260 ,47.5568 ,1.06966 ,1.27405 ,12.50097 
261 ,47.7325 ,1.07142 ,1.27405 ,12.50097 
262 ,47.9089 ,1.07318 ,1.28432 ,12.60171 
263 ,48.0850 ,1.07498 ,1.24667 ,12.23235 
264 ,48.2609 ,1.07667 ,1.22272 ,11.99730 
265 ,48.4370 ,1.07847 ,1.20903 ,11.86298 
266 ,48.6131 ,1.08021 ,1.21587 ,11.93014 
267 ,48.8052 ,1.08207 ,1.20903 ,11.86298 
268 ,48.9973 ,1.08409 ,1.17138 ,11.49362 
269 ,49.1731 ,1.08588 ,1.16112 ,11.39289 
270 ,49.3494 ,1.08757 ,1.15085 ,11.29215 
271 ,49.5416 ,1.08949 ,1.12347 ,11.02353 
272 ,49.7177 ,1.09129 ,1.11663 ,10.95637 
273 ,49.9097 ,1.09309 ,1.12347 ,11.02353 
274 ,50.1017 ,1.09502 ,1.09610 ,10.75490 
275 ,50.2774 ,1.09687 ,1.09267 ,10.72132 
276 ,50.4538 ,1.09860 ,1.07214 ,10.51985 
277 ,50.6460 ,1.10059 ,1.05845 ,10.38554 
278 ,50.8219 ,1.10232 ,1.02081 ,10.01618 
279 ,51.0141 ,1.10420 ,1.03108 ,10.11691 
280 ,51.2061 ,1.10612 ,1.00712 ,9.88186 
281 ,51.3820 ,1.10790 ,0.99685 ,9.78113 
282 ,51.5740 ,1.10974 ,0.99001 ,9.71397 
283 ,51.7499 ,1.11166 ,0.98317 ,9.64682 
284 ,51.9264 ,1.11337 ,0.96948 ,9.51250 
285 ,52.1185 ,1.11526 ,0.95921 ,9.41177 
286 ,52.3106 ,1.11720 ,0.94210 ,9.24388 
287 ,52.5022 ,1.11914 ,0.93525 ,9.17672 
288 ,52.6788 ,1.12086 ,0.91130 ,8.94167 
289 ,52.8707 ,1.12280 ,0.89761 ,8.80736 
290 ,53.0466 ,1.12458 ,0.87023 ,8.53873 
291 ,53.2229 ,1.12627 ,0.85312 ,8.37084 
292 ,53.4149 ,1.12819 ,0.87708 ,8.60589 
293 ,53.5910 ,1.13006 ,0.84628 ,8.30368 
294 ,53.7669 ,1.13173 ,0.83943 ,8.23653 
295 ,53.9592 ,1.13366 ,0.81206 ,7.96790 
296 ,54.1353 ,1.13542 ,0.82575 ,8.10221 
297 ,54.3112 ,1.13717 ,0.79495 ,7.80001 
298 ,54.5195 ,1.13918 ,0.78468 ,7.69927 
299 ,54.6953 ,1.14103 ,0.78126 ,7.66570 
300 ,54.9036 ,1.14306 ,0.75388 ,7.39707 
301 ,55.0795 ,1.14487 ,0.74361 ,7.29633 
302 ,55.2716 ,1.14676 ,0.72650 ,7.12844 
303 ,55.4636 ,1.14860 ,0.71281 ,6.99413 
304 ,55.6396 ,1.15046 ,0.70255 ,6.89340 
305 ,55.8160 ,1.15223 ,0.70597 ,6.92697 
306 ,55.9920 ,1.15399 ,0.69228 ,6.79266 
307 ,56.1840 ,1.15578 ,0.66148 ,6.49046 
308 ,56.3600 ,1.15766 ,0.65121 ,6.38972 
309 ,56.5522 ,1.15957 ,0.64095 ,6.28899 
310 ,56.7280 ,1.16135 ,0.62042 ,6.08752 
311 ,56.9041 ,1.16313 ,0.60330 ,5.91962 
312 ,57.0965 ,1.16500 ,0.61699 ,6.05394 
313 ,57.2724 ,1.16676 ,0.58277 ,5.71815 
314 ,57.4644 ,1.16871 ,0.57593 ,5.65100 
315 ,57.6406 ,1.17048 ,0.56908 ,5.58384 
316 ,57.8324 ,1.17234 ,0.54855 ,5.38237 
317 ,58.0089 ,1.17418 ,0.53828 ,5.28164 
318 ,58.1847 ,1.17591 ,0.51091 ,5.01301 
319 ,58.3610 ,1.17766 ,0.53144 ,5.21448 
320 ,58.5370 ,1.17943 ,0.51433 ,5.04659 
321 ,58.7131 ,1.18120 ,0.50064 ,4.91228 
322 ,58.9048 ,1.18307 ,0.48695 ,4.77796 
323 ,59.0813 ,1.18486 ,0.46984 ,4.61007 
324 ,59.2732 ,1.18681 ,0.45273 ,4.44218 
325 ,59.4494 ,1.18853 ,0.43904 ,4.30787 
326 ,59.6255 ,1.19033 ,0.44246 ,4.34144 
327 ,59.8176 ,1.19218 ,0.42193 ,4.13997 
328 ,59.9933 ,1.19397 ,0.41166 ,4.03924 
329 ,60.1694 ,1.19572 ,0.39113 ,3.83777 
330 ,60.3617 ,1.19762 ,0.40824 ,4.00566 
331 ,60.5540 ,1.19944 ,0.37744 ,3.70346 
332 ,60.7460 ,1.20152 ,0.36718 ,3.60272 
333 ,60.9220 ,1.20333 ,0.36375 ,3.56914 
334 ,61.0981 ,1.20502 ,0.35006 ,3.43483 
335 ,61.2738 ,1.20678 ,0.32611 ,3.19978 
336 ,61.4502 ,1.20855 ,0.31584 ,3.09905 
337 ,61.6421 ,1.21041 ,0.31584 ,3.09905 
338 ,61.8344 ,1.21226 ,0.31242 ,3.06547 
339 ,62.0104 ,1.21414 ,0.28162 ,2.76326 
340 ,62.1865 ,1.21589 ,0.27135 ,2.66253 
341 ,62.3787 ,1.21776 ,0.25767 ,2.52822 
342 ,62.5706 ,1.21973 ,0.24398 ,2.39390 
343 ,62.7468 ,1.22146 ,0.24398 ,2.39390 
344 ,62.9388 ,1.22343 ,0.24055 ,2.36032 
345 ,63.1149 ,1.22515 ,0.20976 ,2.05812 
346 ,63.3070 ,1.22704 ,0.20633 ,2.02454 
347 ,63.4990 ,1.22904 ,0.20633 ,2.02454 
348 ,63.6751 ,1.23073 ,0.17553 ,1.72234 
349 ,63.8512 ,1.23264 ,0.18580 ,1.82307 
350 ,64.0272 ,1.23424 ,0.17896 ,1.75592 
351 ,64.2031 ,1.23607 ,0.16527 ,1.62160 
352 ,64.3954 ,1.23796 ,0.14816 ,1.45371 
353 ,64.6036 ,1.24000 ,0.13789 ,1.35298 
354 ,64.7792 ,1.24182 ,0.12762 ,1.25224 
355 ,64.9556 ,1.24356 ,0.11051 ,1.08435 
356 ,65.1315 ,1.24536 ,0.08998 ,0.88288 
357 ,65.3234 ,1.24725 ,0.09682 ,0.95004 
358 ,65.4996 ,1.24901 ,0.08656 ,0.84930 
359 ,65.7078 ,1.25106 ,0.08314 ,0.81572 
360 ,65.8998 ,1.25297 ,0.05234 ,0.51352 
361 ,66.0922 ,1.25496 ,0.05234 ,0.51352 
362 ,66.2679 ,1.25669 ,0.04549 ,0.44636 
363 ,66.4600 ,1.25854 ,0.03865 ,0.37920 
364 ,66.6362 ,1.26041 ,0.00100 ,0.00984 
365 ,66.8441 ,1.26235 ,0.01127 ,0.11058 
366 ,67.0203 ,1.26421 ,-0.00242 ,-0.02373 
367 ,67.1965 ,1.26599 ,-0.01611 ,-0.15805 
368 ,67.3725 ,1.26772 ,-0.01611 ,-0.15805 
369 ,67.5486 ,1.26959 ,-0.02637 ,-0.25878 
370 ,67.7248 ,1.27129 ,-0.02980 ,-0.29236 
371 ,67.9167 ,1.27312 ,-0.05717 ,-0.56099 
372 ,68.0928 ,1.27491 ,-0.06060 ,-0.59457 
373 ,68.2849 ,1.27686 ,-0.06402 ,-0.62814 
374 ,68.4769 ,1.27871 ,-0.09140 ,-0.89677 
375 ,68.6691 ,1.28065 ,-0.08455 ,-0.82961 
376 ,68.8451 ,1.28243 ,-0.10166 ,-0.99751 
377 ,69.0212 ,1.28419 ,-0.11535 ,-1.13182 
378 ,69.1969 ,1.28597 ,-0.13246 ,-1.29971 
379 ,69.3729 ,1.28768 ,-0.13246 ,-1.29971 
380 ,69.5491 ,1.28950 ,-0.12562 ,-1.23255 
381 ,69.7255 ,1.29129 ,-0.14273 ,-1.40045 
382 ,69.9336 ,1.29330 ,-0.15642 ,-1.53476 
383 ,70.1096 ,1.29511 ,-0.15984 ,-1.56834 
384 ,70.2857 ,1.29688 ,-0.18037 ,-1.76981 
385 ,70.4619 ,1.29865 ,-0.20775 ,-2.03843 
386 ,70.6378 ,1.30043 ,-0.20775 ,-2.03843 
387 ,70.8301 ,1.30225 ,-0.20433 ,-2.00485 
388 ,71.0220 ,1.30421 ,-0.22828 ,-2.23990 
389 ,71.2140 ,1.30606 ,-0.24539 ,-2.40779 
390 ,71.3904 ,1.30789 ,-0.23170 ,-2.27348 
391 ,71.5663 ,1.30972 ,-0.23855 ,-2.34064 
392 ,71.7421 ,1.31144 ,-0.26593 ,-2.60926 
393 ,71.9185 ,1.31320 ,-0.26935 ,-2.64284 
394 ,72.1105 ,1.31509 ,-0.26593 ,-2.60926 
395 ,72.2865 ,1.31684 ,-0.28646 ,-2.81073 
396 ,72.4623 ,1.31861 ,-0.30357 ,-2.97863 
397 ,72.6387 ,1.32031 ,-0.31726 ,-3.11294 
398 ,72.8145 ,1.32213 ,-0.31726 ,-3.11294 
399 ,72.9911 ,1.32393 ,-0.31384 ,-3.07936 
400 ,73.1831 ,1.32581 ,-0.34121 ,-3.34799 
401 ,73.3591 ,1.32760 ,-0.34806 ,-3.41514 
402 ,73.5352 ,1.32935 ,-0.34464 ,-3.38156 
403 ,73.7272 ,1.33129 ,-0.35148 ,-3.44872 
404 ,73.9029 ,1.33296 ,-0.38570 ,-3.78450 
405 ,74.0794 ,1.33480 ,-0.38912 ,-3.81808 
406 ,74.2551 ,1.33651 ,-0.38570 ,-3.78450 
407 ,74.4316 ,1.33830 ,-0.38570 ,-3.78450 
408 ,74.6236 ,1.34022 ,-0.40966 ,-4.01955 
409 ,74.7996 ,1.34200 ,-0.42677 ,-4.18744 
410 ,74.9753 ,1.34374 ,-0.41992 ,-4.12029 
411 ,75.1516 ,1.34551 ,-0.43703 ,-4.28818 
412 ,75.3278 ,1.34720 ,-0.42677 ,-4.18744 
413 ,75.5195 ,1.34920 ,-0.46441 ,-4.55681 
414 ,75.6959 ,1.35089 ,-0.44046 ,-4.32176 
415 ,75.8882 ,1.35289 ,-0.46441 ,-4.55681 
416 ,76.0641 ,1.35459 ,-0.48494 ,-4.75828 
417 ,76.2402 ,1.35634 ,-0.48152 ,-4.72470 
418 ,76.4163 ,1.35817 ,-0.47810 ,-4.69112 
419 ,76.6082 ,1.36005 ,-0.48152 ,-4.72470 
420 ,76.7846 ,1.36181 ,-0.51574 ,-5.06048 
421 ,76.9605 ,1.36360 ,-0.50548 ,-4.95975 
422 ,77.1366 ,1.36531 ,-0.50890 ,-4.99332 
423 ,77.3446 ,1.36732 ,-0.52601 ,-5.16121 
424 ,77.5367 ,1.36933 ,-0.52601 ,-5.16121 
425 ,77.6965 ,1.37105 ,-0.53285 ,-5.22837 
426 ,77.8727 ,1.37268 ,-0.52943 ,-5.19479 
427 ,78.0488 ,1.37445 ,-0.56023 ,-5.49700 
428 ,78.2089 ,1.37615 ,-0.57734 ,-5.66489 
429 ,78.3852 ,1.37783 ,-0.58761 ,-5.76562 
430 ,78.5767 ,1.37968 ,-0.58761 ,-5.76562 
431 ,78.7527 ,1.38152 ,-0.58419 ,-5.73205 
432 ,78.9288 ,1.38328 ,-0.59445 ,-5.83278 
433 ,79.1374 ,1.38516 ,-0.61499 ,-6.03425 
434 ,79.3295 ,1.38726 ,-0.61841 ,-6.06783 
435 ,79.5215 ,1.38915 ,-0.64236 ,-6.30288 
436 ,79.6976 ,1.39095 ,-0.63552 ,-6.23572 
437 ,79.8735 ,1.39269 ,-0.63552 ,-6.23572 
438 ,80.0496 ,1.39446 ,-0.65605 ,-6.43719 
439 ,80.2256 ,1.39619 ,-0.66974 ,-6.57150 
440 ,80.4179 ,1.39806 ,-0.66632 ,-6.53793 
441 ,80.6100 ,1.40008 ,-0.68001 ,-6.67224 
442 ,80.7859 ,1.40185 ,-0.70396 ,-6.90729 
443 ,80.9620 ,1.40355 ,-0.71423 ,-7.00802 
444 ,81.1378 ,1.40536 ,-0.70054 ,-6.87371 
445 ,81.3139 ,1.40710 ,-0.70054 ,-6.87371 
446 ,81.4904 ,1.40890 ,-0.71423 ,-7.00802 
447 ,81.6825 ,1.41080 ,-0.74161 ,-7.27665 
448 ,81.8904 ,1.41275 ,-0.75187 ,-7.37738 
449 ,82.0664 ,1.41459 ,-0.75530 ,-7.41096 
450 ,82.2425 ,1.41635 ,-0.76898 ,-7.54527 
451 ,82.4026 ,1.41809 ,-0.75872 ,-7.44454 
452 ,82.5786 ,1.41975 ,-0.76556 ,-7.51170 
453 ,82.7547 ,1.42150 ,-0.76556 ,-7.51170 
454 ,82.9309 ,1.42325 ,-0.78952 ,-7.74674 
455 ,83.1229 ,1.42514 ,-0.79636 ,-7.81390 
456 ,83.3149 ,1.42705 ,-0.78610 ,-7.71317 
457 ,83.4910 ,1.42893 ,-0.83058 ,-8.14968 
458 ,83.6671 ,1.43061 ,-0.81689 ,-8.01537 
459 ,83.8591 ,1.43253 ,-0.81347 ,-7.98179 
460 ,84.0352 ,1.43431 ,-0.83058 ,-8.14968 
461 ,84.2273 ,1.43623 ,-0.85112 ,-8.35115 
462 ,84.4031 ,1.43802 ,-0.86481 ,-8.48547 
463 ,84.5955 ,1.43986 ,-0.85454 ,-8.38473 
