Data stamp = , 04-04-2022 00:48:22 513

Calibration Values: 
Slope = , 26.54 , g/V 
Offset Voltage at no contact = , -0.501760 , V 

No , Time , Stage Position ,   Mass , Force 
   ,  (s) ,      (mm)      ,   (g)  , (mN)  

1 ,0.0000 ,0.59943 ,5.13425 ,50.37729 
2 ,0.2113 ,0.59951 ,5.14794 ,50.51161 
3 ,0.4997 ,0.60025 ,5.13083 ,50.34372 
4 ,0.6917 ,0.60149 ,5.11714 ,50.20940 
5 ,0.8997 ,0.60327 ,5.11372 ,50.17583 
6 ,1.0918 ,0.60515 ,5.13425 ,50.37729 
7 ,1.2680 ,0.60685 ,5.14110 ,50.44445 
8 ,1.4441 ,0.60859 ,5.12399 ,50.27656 
9 ,1.6361 ,0.61056 ,5.13768 ,50.41087 
10 ,1.8122 ,0.61235 ,5.12399 ,50.27656 
11 ,2.0043 ,0.61424 ,5.08977 ,49.94078 
12 ,2.1803 ,0.61604 ,5.09319 ,49.97436 
13 ,2.3560 ,0.61783 ,5.09319 ,49.97436 
14 ,2.5321 ,0.61951 ,5.09319 ,49.97436 
15 ,2.6924 ,0.62122 ,5.09661 ,50.00793 
16 ,2.8686 ,0.62290 ,5.06923 ,49.73931 
17 ,3.0446 ,0.62469 ,5.05554 ,49.60499 
18 ,3.2206 ,0.62643 ,5.04870 ,49.53784 
19 ,3.4287 ,0.62843 ,5.04185 ,49.47068 
20 ,3.6210 ,0.63039 ,5.01790 ,49.23563 
21 ,3.8128 ,0.63226 ,5.01790 ,49.23563 
22 ,3.9890 ,0.63408 ,5.01790 ,49.23563 
23 ,4.1651 ,0.63583 ,5.00079 ,49.06774 
24 ,4.3412 ,0.63755 ,4.96657 ,48.73196 
25 ,4.5173 ,0.63931 ,4.96315 ,48.69838 
26 ,4.7253 ,0.64141 ,4.94946 ,48.56407 
27 ,4.9016 ,0.64322 ,4.93577 ,48.42975 
28 ,5.0936 ,0.64513 ,4.91523 ,48.22828 
29 ,5.2857 ,0.64704 ,4.89812 ,48.06039 
30 ,5.4454 ,0.64876 ,4.86390 ,47.72461 
31 ,5.6217 ,0.65036 ,4.84679 ,47.55672 
32 ,5.8299 ,0.65237 ,4.82626 ,47.35525 
33 ,6.0379 ,0.65449 ,4.79888 ,47.08662 
34 ,6.2140 ,0.65637 ,4.78519 ,46.95231 
35 ,6.4063 ,0.65826 ,4.77493 ,46.85157 
36 ,6.5822 ,0.66003 ,4.74755 ,46.58295 
37 ,6.7582 ,0.66174 ,4.72017 ,46.31432 
38 ,6.9343 ,0.66355 ,4.69622 ,46.07927 
39 ,7.1264 ,0.66543 ,4.69279 ,46.04569 
40 ,7.3024 ,0.66723 ,4.67226 ,45.84422 
41 ,7.4787 ,0.66899 ,4.64146 ,45.54202 
42 ,7.6546 ,0.67074 ,4.62777 ,45.40771 
43 ,7.8468 ,0.67263 ,4.61751 ,45.30697 
44 ,8.0229 ,0.67444 ,4.60382 ,45.17266 
45 ,8.2630 ,0.67660 ,4.57644 ,44.90403 
46 ,8.4547 ,0.67865 ,4.55249 ,44.66898 
47 ,8.6307 ,0.68043 ,4.53537 ,44.50109 
48 ,8.8071 ,0.68221 ,4.52853 ,44.43394 
49 ,8.9831 ,0.68396 ,4.50115 ,44.16531 
50 ,9.1594 ,0.68574 ,4.49089 ,44.06457 
51 ,9.3511 ,0.68766 ,4.47035 ,43.86310 
52 ,9.5275 ,0.68948 ,4.46693 ,43.82953 
53 ,9.7190 ,0.69144 ,4.42929 ,43.46016 
54 ,9.8955 ,0.69310 ,4.40191 ,43.19154 
55 ,10.0718 ,0.69486 ,4.40875 ,43.25870 
56 ,10.2479 ,0.69667 ,4.39507 ,43.12438 
57 ,10.4399 ,0.69855 ,4.35400 ,42.72144 
58 ,10.6160 ,0.70037 ,4.34716 ,42.65429 
59 ,10.7918 ,0.70215 ,4.34716 ,42.65429 
60 ,10.9841 ,0.70403 ,4.32662 ,42.45282 
61 ,11.1599 ,0.70575 ,4.29240 ,42.11703 
62 ,11.3361 ,0.70750 ,4.27529 ,41.94914 
63 ,11.5281 ,0.70933 ,4.26160 ,41.81483 
64 ,11.7044 ,0.71123 ,4.25818 ,41.78125 
65 ,11.8804 ,0.71299 ,4.24107 ,41.61336 
66 ,12.0565 ,0.71474 ,4.21027 ,41.31115 
67 ,12.2326 ,0.71648 ,4.20000 ,41.21042 
68 ,12.4406 ,0.71846 ,4.19316 ,41.14326 
69 ,12.6168 ,0.72035 ,4.16578 ,40.87464 
70 ,12.7928 ,0.72206 ,4.14183 ,40.63959 
71 ,12.9850 ,0.72404 ,4.13498 ,40.57243 
72 ,13.1768 ,0.72595 ,4.10760 ,40.30380 
73 ,13.3531 ,0.72767 ,4.08707 ,40.10233 
74 ,13.5452 ,0.72958 ,4.07680 ,40.00160 
75 ,13.7372 ,0.73156 ,4.04943 ,39.73297 
76 ,13.9290 ,0.73338 ,4.04943 ,39.73297 
77 ,14.1054 ,0.73522 ,4.02547 ,39.49793 
78 ,14.2974 ,0.73713 ,3.99809 ,39.22930 
79 ,14.4736 ,0.73886 ,3.97756 ,39.02783 
80 ,14.6816 ,0.74092 ,3.97414 ,38.99425 
81 ,14.8898 ,0.74287 ,3.94676 ,38.72562 
82 ,15.0497 ,0.74478 ,3.95703 ,38.82636 
83 ,15.2259 ,0.74644 ,3.92281 ,38.49058 
84 ,15.4015 ,0.74821 ,3.91938 ,38.45700 
85 ,15.5940 ,0.74997 ,3.88174 ,38.08764 
86 ,15.7699 ,0.75191 ,3.86463 ,37.91975 
87 ,15.9462 ,0.75361 ,3.85094 ,37.78543 
88 ,16.1542 ,0.75561 ,3.83725 ,37.65112 
89 ,16.3460 ,0.75761 ,3.82014 ,37.48323 
90 ,16.5383 ,0.75943 ,3.79619 ,37.24818 
91 ,16.7145 ,0.76130 ,3.78250 ,37.11387 
92 ,16.8905 ,0.76300 ,3.75854 ,36.87882 
93 ,17.0663 ,0.76479 ,3.75170 ,36.81166 
94 ,17.2427 ,0.76660 ,3.73801 ,36.67735 
95 ,17.4348 ,0.76854 ,3.70379 ,36.34157 
96 ,17.6107 ,0.77029 ,3.69694 ,36.27441 
97 ,17.7867 ,0.77201 ,3.70721 ,36.37514 
98 ,17.9791 ,0.77393 ,3.66957 ,36.00578 
99 ,18.1547 ,0.77570 ,3.64903 ,35.80431 
100 ,18.3311 ,0.77743 ,3.63192 ,35.63642 
101 ,18.5391 ,0.77950 ,3.62166 ,35.53569 
102 ,18.7152 ,0.78129 ,3.59770 ,35.30064 
103 ,18.8915 ,0.78303 ,3.57375 ,35.06559 
104 ,19.0675 ,0.78484 ,3.56006 ,34.93128 
105 ,19.2593 ,0.78667 ,3.56690 ,34.99843 
106 ,19.4356 ,0.78851 ,3.53610 ,34.69623 
107 ,19.6435 ,0.79049 ,3.52584 ,34.59549 
108 ,19.8197 ,0.79230 ,3.50530 ,34.39402 
109 ,19.9957 ,0.79406 ,3.48477 ,34.19255 
110 ,20.1719 ,0.79587 ,3.46424 ,33.99108 
111 ,20.3801 ,0.79791 ,3.45739 ,33.92393 
112 ,20.5721 ,0.79988 ,3.42317 ,33.58814 
113 ,20.7638 ,0.80168 ,3.41633 ,33.52099 
114 ,20.9402 ,0.80355 ,3.41290 ,33.48741 
115 ,21.1322 ,0.80539 ,3.37868 ,33.15163 
116 ,21.2920 ,0.80714 ,3.37184 ,33.08447 
117 ,21.4684 ,0.80887 ,3.36157 ,32.98374 
118 ,21.6764 ,0.81085 ,3.34104 ,32.78227 
119 ,21.8526 ,0.81265 ,3.32051 ,32.58080 
120 ,22.0448 ,0.81460 ,3.30682 ,32.44648 
121 ,22.2528 ,0.81658 ,3.28628 ,32.24501 
122 ,22.4448 ,0.81856 ,3.27602 ,32.14428 
123 ,22.6369 ,0.82047 ,3.24522 ,31.84207 
124 ,22.8130 ,0.82228 ,3.22468 ,31.64060 
125 ,23.0051 ,0.82419 ,3.22468 ,31.64060 
126 ,23.1970 ,0.82608 ,3.20073 ,31.40555 
127 ,23.3732 ,0.82782 ,3.17335 ,31.13693 
128 ,23.5494 ,0.82964 ,3.16651 ,31.06977 
129 ,23.7413 ,0.83155 ,3.16651 ,31.06977 
130 ,23.9176 ,0.83327 ,3.14940 ,30.90188 
131 ,24.0776 ,0.83503 ,3.11860 ,30.59968 
132 ,24.2536 ,0.83668 ,3.10149 ,30.43178 
133 ,24.4457 ,0.83856 ,3.09464 ,30.36463 
134 ,24.6377 ,0.84040 ,3.09122 ,30.33105 
135 ,24.8297 ,0.84244 ,3.06042 ,30.02884 
136 ,25.0057 ,0.84414 ,3.03989 ,29.82737 
137 ,25.1821 ,0.84597 ,3.02620 ,29.69306 
138 ,25.3741 ,0.84780 ,2.99540 ,29.39086 
139 ,25.5498 ,0.84962 ,2.99540 ,29.39086 
140 ,25.7261 ,0.85137 ,2.97487 ,29.18939 
141 ,25.9184 ,0.85327 ,2.96802 ,29.12223 
142 ,26.0945 ,0.85508 ,2.95776 ,29.02150 
143 ,26.2704 ,0.85684 ,2.92353 ,28.68571 
144 ,26.4465 ,0.85857 ,2.90300 ,28.48424 
145 ,26.6227 ,0.86032 ,2.90642 ,28.51782 
146 ,26.7987 ,0.86206 ,2.88589 ,28.31635 
147 ,26.9905 ,0.86401 ,2.85167 ,27.98057 
148 ,27.1667 ,0.86577 ,2.83798 ,27.84625 
149 ,27.3588 ,0.86760 ,2.84482 ,27.91341 
150 ,27.5350 ,0.86942 ,2.81745 ,27.64479 
151 ,27.7111 ,0.87121 ,2.79691 ,27.44332 
152 ,27.8870 ,0.87293 ,2.80034 ,27.47689 
153 ,28.0633 ,0.87474 ,2.78322 ,27.30900 
154 ,28.2553 ,0.87662 ,2.75585 ,27.04038 
155 ,28.4315 ,0.87841 ,2.74216 ,26.90606 
156 ,28.6074 ,0.88017 ,2.72163 ,26.70459 
157 ,28.7835 ,0.88191 ,2.72505 ,26.73817 
158 ,28.9436 ,0.88364 ,2.69767 ,26.46954 
159 ,29.1197 ,0.88532 ,2.67714 ,26.26807 
160 ,29.2954 ,0.88702 ,2.67714 ,26.26807 
161 ,29.5037 ,0.88908 ,2.65660 ,26.06661 
162 ,29.6797 ,0.89090 ,2.64634 ,25.96587 
163 ,29.8559 ,0.89261 ,2.63265 ,25.83156 
164 ,30.0320 ,0.89441 ,2.59501 ,25.46220 
165 ,30.2239 ,0.89634 ,2.58816 ,25.39504 
166 ,30.4160 ,0.89823 ,2.57447 ,25.26073 
167 ,30.5921 ,0.90003 ,2.55394 ,25.05926 
168 ,30.7683 ,0.90176 ,2.54025 ,24.92494 
169 ,30.9444 ,0.90355 ,2.52656 ,24.79063 
170 ,31.1363 ,0.90545 ,2.53683 ,24.89136 
171 ,31.3126 ,0.90720 ,2.50603 ,24.58916 
172 ,31.5046 ,0.90917 ,2.47181 ,24.25338 
173 ,31.6966 ,0.91106 ,2.47523 ,24.28696 
174 ,31.8724 ,0.91279 ,2.46154 ,24.15264 
175 ,32.0648 ,0.91469 ,2.43416 ,23.88402 
176 ,32.2406 ,0.91654 ,2.43074 ,23.85044 
177 ,32.4169 ,0.91819 ,2.42390 ,23.78328 
178 ,32.5930 ,0.92002 ,2.41363 ,23.68255 
179 ,32.7851 ,0.92190 ,2.38625 ,23.41392 
180 ,32.9772 ,0.92380 ,2.38625 ,23.41392 
181 ,33.1690 ,0.92569 ,2.35545 ,23.11171 
182 ,33.3613 ,0.92766 ,2.34177 ,22.97740 
183 ,33.5371 ,0.92951 ,2.33492 ,22.91024 
184 ,33.7134 ,0.93120 ,2.31097 ,22.67520 
185 ,33.8894 ,0.93294 ,2.29043 ,22.47373 
186 ,34.0655 ,0.93470 ,2.28359 ,22.40657 
187 ,34.2414 ,0.93651 ,2.26306 ,22.20510 
188 ,34.4177 ,0.93826 ,2.26990 ,22.27226 
189 ,34.6098 ,0.94015 ,2.24594 ,22.03721 
190 ,34.8019 ,0.94200 ,2.22541 ,21.83574 
191 ,34.9778 ,0.94387 ,2.22883 ,21.86932 
192 ,35.1540 ,0.94576 ,2.20830 ,21.66785 
193 ,35.3301 ,0.94734 ,2.18092 ,21.39922 
194 ,35.5220 ,0.94929 ,2.15355 ,21.13059 
195 ,35.6982 ,0.95108 ,2.15697 ,21.16417 
196 ,35.8742 ,0.95278 ,2.15697 ,21.16417 
197 ,36.0503 ,0.95455 ,2.12959 ,20.89555 
198 ,36.2263 ,0.95636 ,2.11248 ,20.72766 
199 ,36.4185 ,0.95823 ,2.10221 ,20.62692 
200 ,36.5945 ,0.96000 ,2.09537 ,20.55976 
201 ,36.7706 ,0.96180 ,2.08510 ,20.45903 
202 ,36.9466 ,0.96356 ,2.04746 ,20.08967 
203 ,37.1229 ,0.96528 ,2.03377 ,19.95535 
204 ,37.2988 ,0.96712 ,2.04061 ,20.02251 
205 ,37.4906 ,0.96890 ,2.00639 ,19.68673 
206 ,37.6667 ,0.97072 ,1.98928 ,19.51884 
207 ,37.8431 ,0.97250 ,1.96190 ,19.25021 
208 ,38.0192 ,0.97426 ,1.97559 ,19.38452 
209 ,38.2111 ,0.97614 ,1.95164 ,19.14948 
210 ,38.3874 ,0.97798 ,1.95164 ,19.14948 
211 ,38.5795 ,0.97987 ,1.92426 ,18.88085 
212 ,38.7553 ,0.98159 ,1.91399 ,18.78011 
213 ,38.9473 ,0.98346 ,1.89688 ,18.61222 
214 ,39.1236 ,0.98534 ,1.89004 ,18.54507 
215 ,39.2995 ,0.98710 ,1.86608 ,18.31002 
216 ,39.4918 ,0.98895 ,1.86951 ,18.34360 
217 ,39.6996 ,0.99096 ,1.84555 ,18.10855 
218 ,39.8758 ,0.99283 ,1.83186 ,17.97423 
219 ,40.0519 ,0.99456 ,1.81475 ,17.80634 
220 ,40.2280 ,0.99633 ,1.80106 ,17.67203 
221 ,40.4360 ,0.99838 ,1.78053 ,17.47056 
222 ,40.6121 ,1.00016 ,1.77369 ,17.40340 
223 ,40.7882 ,1.00192 ,1.75657 ,17.23551 
224 ,40.9482 ,1.00366 ,1.73946 ,17.06762 
225 ,41.1244 ,1.00538 ,1.72578 ,16.93331 
226 ,41.3325 ,1.00721 ,1.70866 ,16.76542 
227 ,41.5244 ,1.00930 ,1.69155 ,16.59752 
228 ,41.7007 ,1.01106 ,1.68471 ,16.53037 
229 ,41.8768 ,1.01286 ,1.67102 ,16.39605 
230 ,42.0688 ,1.01479 ,1.66418 ,16.32890 
231 ,42.2449 ,1.01651 ,1.64707 ,16.16101 
232 ,42.4529 ,1.01842 ,1.64022 ,16.09385 
233 ,42.6449 ,1.02049 ,1.60942 ,15.79164 
234 ,42.8210 ,1.02230 ,1.60942 ,15.79164 
235 ,43.0131 ,1.02418 ,1.60600 ,15.75807 
236 ,43.1889 ,1.02596 ,1.57862 ,15.48944 
237 ,43.3653 ,1.02766 ,1.56151 ,15.32155 
238 ,43.5730 ,1.02963 ,1.55124 ,15.22081 
239 ,43.7495 ,1.03157 ,1.53413 ,15.05292 
240 ,43.9414 ,1.03342 ,1.51018 ,14.81787 
241 ,44.1174 ,1.03520 ,1.49307 ,14.64998 
242 ,44.2934 ,1.03696 ,1.50676 ,14.78430 
243 ,44.4697 ,1.03874 ,1.49649 ,14.68356 
244 ,44.6614 ,1.04064 ,1.46227 ,14.34778 
245 ,44.8378 ,1.04241 ,1.44174 ,14.14631 
246 ,45.0299 ,1.04431 ,1.45542 ,14.28062 
247 ,45.2059 ,1.04606 ,1.42462 ,13.97842 
248 ,45.3981 ,1.04804 ,1.40409 ,13.77695 
249 ,45.5742 ,1.04980 ,1.40409 ,13.77695 
250 ,45.7662 ,1.05166 ,1.38356 ,13.57548 
251 ,45.9422 ,1.05345 ,1.36645 ,13.40759 
252 ,46.1181 ,1.05517 ,1.34934 ,13.23969 
253 ,46.2945 ,1.05699 ,1.35618 ,13.30685 
254 ,46.4865 ,1.05890 ,1.33565 ,13.10538 
255 ,46.6624 ,1.06059 ,1.31512 ,12.90391 
256 ,46.8386 ,1.06238 ,1.29800 ,12.73602 
257 ,47.0146 ,1.06418 ,1.29116 ,12.66886 
258 ,47.1907 ,1.06591 ,1.29458 ,12.70244 
259 ,47.3669 ,1.06772 ,1.28432 ,12.60171 
260 ,47.5590 ,1.06958 ,1.24667 ,12.23235 
261 ,47.7350 ,1.07139 ,1.23298 ,12.09803 
262 ,47.9111 ,1.07313 ,1.23298 ,12.09803 
263 ,48.0873 ,1.07492 ,1.22614 ,12.03088 
264 ,48.2630 ,1.07671 ,1.19876 ,11.76225 
265 ,48.4394 ,1.07842 ,1.17138 ,11.49362 
266 ,48.6316 ,1.08036 ,1.17823 ,11.56078 
267 ,48.8076 ,1.08215 ,1.18507 ,11.62794 
268 ,48.9833 ,1.08390 ,1.13032 ,11.09068 
269 ,49.1597 ,1.08562 ,1.13716 ,11.15784 
270 ,49.3676 ,1.08754 ,1.11321 ,10.92279 
271 ,49.5598 ,1.08964 ,1.11663 ,10.95637 
272 ,49.7355 ,1.09135 ,1.08925 ,10.68774 
273 ,49.9115 ,1.09312 ,1.07556 ,10.55343 
274 ,50.0876 ,1.09493 ,1.07556 ,10.55343 
275 ,50.2801 ,1.09674 ,1.06187 ,10.41912 
276 ,50.4884 ,1.09888 ,1.05161 ,10.31838 
277 ,50.6641 ,1.10067 ,1.04476 ,10.25123 
278 ,50.8563 ,1.10255 ,1.01739 ,9.98260 
279 ,51.0159 ,1.10432 ,0.99343 ,9.74755 
280 ,51.1925 ,1.10589 ,0.99343 ,9.74755 
281 ,51.3844 ,1.10782 ,0.99343 ,9.74755 
282 ,51.5605 ,1.10964 ,0.96948 ,9.51250 
283 ,51.7367 ,1.11136 ,0.96263 ,9.44535 
284 ,51.9128 ,1.11316 ,0.93183 ,9.14314 
285 ,52.0884 ,1.11488 ,0.93183 ,9.14314 
286 ,52.2647 ,1.11665 ,0.92157 ,9.04241 
287 ,52.4568 ,1.11850 ,0.91130 ,8.94167 
288 ,52.6650 ,1.12055 ,0.89761 ,8.80736 
289 ,52.8408 ,1.12238 ,0.88392 ,8.67305 
290 ,53.0331 ,1.12423 ,0.84970 ,8.33726 
291 ,53.2091 ,1.12609 ,0.86339 ,8.47158 
292 ,53.3853 ,1.12786 ,0.85312 ,8.37084 
293 ,53.5773 ,1.12977 ,0.82917 ,8.13579 
294 ,53.7534 ,1.13154 ,0.80179 ,7.86717 
295 ,53.9293 ,1.13326 ,0.80521 ,7.90074 
296 ,54.1215 ,1.13523 ,0.79152 ,7.76643 
297 ,54.2816 ,1.13694 ,0.77441 ,7.59854 
298 ,54.4737 ,1.13867 ,0.76757 ,7.53138 
299 ,54.6498 ,1.14052 ,0.75730 ,7.43065 
300 ,54.8258 ,1.14224 ,0.74704 ,7.32991 
301 ,55.0339 ,1.14425 ,0.71966 ,7.06129 
302 ,55.2099 ,1.14611 ,0.71281 ,6.99413 
303 ,55.3863 ,1.14785 ,0.71281 ,6.99413 
304 ,55.5942 ,1.14985 ,0.69570 ,6.82624 
305 ,55.7704 ,1.15172 ,0.66490 ,6.52403 
306 ,55.9623 ,1.15352 ,0.67175 ,6.59119 
307 ,56.1384 ,1.15538 ,0.64437 ,6.32256 
308 ,56.3140 ,1.15721 ,0.64437 ,6.32256 
309 ,56.4907 ,1.15887 ,0.63068 ,6.18825 
310 ,56.6826 ,1.16074 ,0.62726 ,6.15467 
311 ,56.8748 ,1.16275 ,0.59304 ,5.81889 
312 ,57.0507 ,1.16447 ,0.58962 ,5.78531 
313 ,57.2428 ,1.16635 ,0.59304 ,5.81889 
314 ,57.4188 ,1.16814 ,0.57251 ,5.61742 
315 ,57.6111 ,1.17001 ,0.55197 ,5.41595 
316 ,57.7872 ,1.17188 ,0.54513 ,5.34879 
317 ,57.9629 ,1.17364 ,0.54171 ,5.31522 
318 ,58.1393 ,1.17539 ,0.53144 ,5.21448 
319 ,58.3148 ,1.17712 ,0.51091 ,5.01301 
320 ,58.4917 ,1.17886 ,0.49380 ,4.84512 
321 ,58.7155 ,1.18097 ,0.46642 ,4.57649 
322 ,58.8915 ,1.18295 ,0.49037 ,4.81154 
323 ,59.0677 ,1.18466 ,0.46642 ,4.57649 
324 ,59.2594 ,1.18663 ,0.46984 ,4.61007 
325 ,59.4354 ,1.18830 ,0.44246 ,4.34144 
326 ,59.6119 ,1.19011 ,0.42877 ,4.20713 
327 ,59.8200 ,1.19211 ,0.41851 ,4.10640 
328 ,60.0121 ,1.19410 ,0.40140 ,3.93850 
329 ,60.2041 ,1.19606 ,0.40482 ,3.97208 
330 ,60.3962 ,1.19789 ,0.38086 ,3.73703 
331 ,60.5722 ,1.19969 ,0.37060 ,3.63630 
332 ,60.7483 ,1.20146 ,0.35006 ,3.43483 
333 ,60.9401 ,1.20334 ,0.34664 ,3.40125 
334 ,61.1165 ,1.20515 ,0.33980 ,3.33410 
335 ,61.2925 ,1.20694 ,0.32611 ,3.19978 
336 ,61.4844 ,1.20877 ,0.32269 ,3.16620 
337 ,61.6606 ,1.21054 ,0.31926 ,3.13263 
338 ,61.8527 ,1.21244 ,0.27820 ,2.72969 
339 ,62.0447 ,1.21442 ,0.27135 ,2.66253 
340 ,62.2207 ,1.21614 ,0.28162 ,2.76326 
341 ,62.3968 ,1.21795 ,0.26109 ,2.56179 
342 ,62.5892 ,1.21987 ,0.24740 ,2.42748 
343 ,62.7812 ,1.22172 ,0.24055 ,2.36032 
344 ,62.9732 ,1.22362 ,0.20633 ,2.02454 
345 ,63.1493 ,1.22548 ,0.19607 ,1.92381 
346 ,63.3254 ,1.22720 ,0.20633 ,2.02454 
347 ,63.5014 ,1.22904 ,0.19949 ,1.95738 
348 ,63.6773 ,1.23076 ,0.18922 ,1.85665 
349 ,63.8536 ,1.23251 ,0.18922 ,1.85665 
350 ,64.0777 ,1.23461 ,0.15500 ,1.52087 
351 ,64.2537 ,1.23649 ,0.14816 ,1.45371 
352 ,64.4459 ,1.23841 ,0.12762 ,1.25224 
353 ,64.6378 ,1.24031 ,0.12078 ,1.18508 
354 ,64.8140 ,1.24209 ,0.10025 ,0.98361 
355 ,64.9902 ,1.24381 ,0.08314 ,0.81572 
356 ,65.1661 ,1.24560 ,0.07971 ,0.78214 
357 ,65.3742 ,1.24761 ,0.08998 ,0.88288 
358 ,65.5662 ,1.24955 ,0.06260 ,0.61425 
359 ,65.7584 ,1.25143 ,0.06602 ,0.64783 
360 ,65.9343 ,1.25325 ,0.03865 ,0.37920 
361 ,66.1102 ,1.25515 ,0.02838 ,0.27847 
362 ,66.2866 ,1.25682 ,0.02496 ,0.24489 
363 ,66.4627 ,1.25854 ,0.00785 ,0.07700 
364 ,66.6708 ,1.26060 ,0.01127 ,0.11058 
365 ,66.8469 ,1.26245 ,-0.02980 ,-0.29236 
366 ,67.0387 ,1.26425 ,-0.01953 ,-0.19163 
367 ,67.2151 ,1.26608 ,-0.02637 ,-0.25878 
368 ,67.3910 ,1.26786 ,-0.04691 ,-0.46025 
369 ,67.5832 ,1.26976 ,-0.04348 ,-0.42667 
370 ,67.7593 ,1.27156 ,-0.06060 ,-0.59457 
371 ,67.9350 ,1.27331 ,-0.05717 ,-0.56099 
372 ,68.1114 ,1.27508 ,-0.07086 ,-0.69530 
373 ,68.3354 ,1.27715 ,-0.09824 ,-0.96393 
374 ,68.5274 ,1.27922 ,-0.11193 ,-1.09824 
375 ,68.7035 ,1.28094 ,-0.11877 ,-1.16540 
376 ,68.8798 ,1.28275 ,-0.11193 ,-1.09824 
377 ,69.0718 ,1.28466 ,-0.12219 ,-1.19898 
378 ,69.2478 ,1.28642 ,-0.15299 ,-1.50118 
379 ,69.4237 ,1.28813 ,-0.15642 ,-1.53476 
380 ,69.5999 ,1.28995 ,-0.16668 ,-1.63549 
381 ,69.7760 ,1.29173 ,-0.16326 ,-1.60191 
382 ,69.9522 ,1.29345 ,-0.16668 ,-1.63549 
383 ,70.1282 ,1.29523 ,-0.19406 ,-1.90412 
384 ,70.3042 ,1.29695 ,-0.20090 ,-1.97128 
385 ,70.4963 ,1.29878 ,-0.20775 ,-2.03843 
386 ,70.6724 ,1.30066 ,-0.20775 ,-2.03843 
387 ,70.8486 ,1.30246 ,-0.22486 ,-2.20632 
388 ,71.0244 ,1.30418 ,-0.23855 ,-2.34064 
389 ,71.2007 ,1.30596 ,-0.24197 ,-2.37422 
390 ,71.3927 ,1.30786 ,-0.24197 ,-2.37422 
391 ,71.5688 ,1.30964 ,-0.25908 ,-2.54211 
392 ,71.7446 ,1.31136 ,-0.28304 ,-2.77716 
393 ,71.9210 ,1.31316 ,-0.29330 ,-2.87789 
394 ,72.0968 ,1.31489 ,-0.29330 ,-2.87789 
395 ,72.3052 ,1.31693 ,-0.31041 ,-3.04578 
396 ,72.4970 ,1.31890 ,-0.31041 ,-3.04578 
397 ,72.6733 ,1.32069 ,-0.31384 ,-3.07936 
398 ,72.8493 ,1.32248 ,-0.32068 ,-3.14652 
399 ,73.0415 ,1.32422 ,-0.33779 ,-3.31441 
400 ,73.2173 ,1.32611 ,-0.35148 ,-3.44872 
401 ,73.4092 ,1.32798 ,-0.34464 ,-3.38156 
402 ,73.5858 ,1.32976 ,-0.37544 ,-3.68377 
403 ,73.7777 ,1.33167 ,-0.38570 ,-3.78450 
404 ,73.9698 ,1.33359 ,-0.38228 ,-3.75093 
405 ,74.1619 ,1.33547 ,-0.39597 ,-3.88524 
406 ,74.3539 ,1.33745 ,-0.39939 ,-3.91882 
407 ,74.5300 ,1.33923 ,-0.39939 ,-3.91882 
408 ,74.7222 ,1.34117 ,-0.44388 ,-4.35534 
409 ,74.8979 ,1.34290 ,-0.43361 ,-4.25460 
410 ,75.0904 ,1.34473 ,-0.44046 ,-4.32176 
411 ,75.2983 ,1.34675 ,-0.44730 ,-4.38891 
412 ,75.4747 ,1.34866 ,-0.46099 ,-4.52323 
413 ,75.6826 ,1.35073 ,-0.46099 ,-4.52323 
414 ,75.8907 ,1.35271 ,-0.48152 ,-4.72470 
415 ,76.0826 ,1.35468 ,-0.48494 ,-4.75828 
416 ,76.2587 ,1.35647 ,-0.49521 ,-4.85901 
417 ,76.4345 ,1.35825 ,-0.50548 ,-4.95975 
418 ,76.6109 ,1.36005 ,-0.49521 ,-4.85901 
419 ,76.8029 ,1.36197 ,-0.51917 ,-5.09406 
420 ,76.9789 ,1.36370 ,-0.53628 ,-5.26195 
421 ,77.1550 ,1.36547 ,-0.54312 ,-5.32911 
422 ,77.3472 ,1.36736 ,-0.55339 ,-5.42984 
423 ,77.5390 ,1.36920 ,-0.55339 ,-5.42984 
424 ,77.7154 ,1.37106 ,-0.55681 ,-5.46342 
425 ,77.9072 ,1.37293 ,-0.57050 ,-5.59773 
426 ,78.0993 ,1.37487 ,-0.59788 ,-5.86636 
427 ,78.2755 ,1.37672 ,-0.58761 ,-5.76562 
428 ,78.4676 ,1.37851 ,-0.59103 ,-5.79920 
429 ,78.6277 ,1.38028 ,-0.60472 ,-5.93352 
430 ,78.8196 ,1.38203 ,-0.61499 ,-6.03425 
431 ,78.9959 ,1.38386 ,-0.60814 ,-5.96709 
432 ,79.1879 ,1.38577 ,-0.61156 ,-6.00067 
433 ,79.3640 ,1.38755 ,-0.63894 ,-6.26930 
434 ,79.5561 ,1.38947 ,-0.65947 ,-6.47077 
435 ,79.7321 ,1.39130 ,-0.65605 ,-6.43719 
436 ,79.9241 ,1.39312 ,-0.65605 ,-6.43719 
437 ,80.1003 ,1.39490 ,-0.66290 ,-6.50435 
438 ,80.2926 ,1.39679 ,-0.66632 ,-6.53793 
439 ,80.4684 ,1.39857 ,-0.67659 ,-6.63866 
440 ,80.6442 ,1.40035 ,-0.69370 ,-6.80655 
441 ,80.8206 ,1.40211 ,-0.71765 ,-7.04160 
442 ,81.0125 ,1.40405 ,-0.70396 ,-6.90729 
443 ,81.2047 ,1.40587 ,-0.71765 ,-7.04160 
444 ,81.3808 ,1.40772 ,-0.74161 ,-7.27665 
445 ,81.5565 ,1.40947 ,-0.74161 ,-7.27665 
446 ,81.7326 ,1.41121 ,-0.73476 ,-7.20949 
447 ,81.8928 ,1.41295 ,-0.74161 ,-7.27665 
448 ,82.0690 ,1.41460 ,-0.74845 ,-7.34380 
449 ,82.2452 ,1.41632 ,-0.75872 ,-7.44454 
450 ,82.4370 ,1.41816 ,-0.77925 ,-7.64601 
451 ,82.6292 ,1.42020 ,-0.77241 ,-7.57885 
452 ,82.8049 ,1.42192 ,-0.78267 ,-7.67959 
453 ,82.9816 ,1.42374 ,-0.79294 ,-7.78032 
454 ,83.1735 ,1.42565 ,-0.81005 ,-7.94821 
455 ,83.3496 ,1.42743 ,-0.82032 ,-8.04895 
456 ,83.5257 ,1.42915 ,-0.82374 ,-8.08253 
457 ,83.7015 ,1.43088 ,-0.83058 ,-8.14968 
458 ,83.8775 ,1.43266 ,-0.86138 ,-8.45189 
459 ,84.0538 ,1.43441 ,-0.84769 ,-8.31758 
460 ,84.2299 ,1.43617 ,-0.84769 ,-8.31758 
461 ,84.4061 ,1.43798 ,-0.84769 ,-8.31758 
462 ,84.5982 ,1.43983 ,-0.88192 ,-8.65336 
463 ,84.8062 ,1.44184 ,-0.87507 ,-8.58620 
