Data stamp = , 02-04-2022 09:06:39 873

Calibration Values: 
Slope = , 26.54 , g/V 
Offset Voltage at no contact = , -0.501760 , V 

No , Time , Stage Position ,   Mass , Force 
   ,  (s) ,      (mm)      ,   (g)  , (mN)  

1 ,0.0000 ,0.64946 ,4.95630 ,48.63122 
2 ,0.2187 ,0.64955 ,4.97341 ,48.79911 
3 ,0.5393 ,0.65039 ,4.97341 ,48.79911 
4 ,0.7474 ,0.65195 ,4.94946 ,48.56407 
5 ,0.9396 ,0.65355 ,4.95630 ,48.63122 
6 ,1.1154 ,0.65538 ,4.97341 ,48.79911 
7 ,1.3078 ,0.65723 ,4.95288 ,48.59764 
8 ,1.4996 ,0.65914 ,4.96657 ,48.73196 
9 ,1.6754 ,0.66097 ,4.96657 ,48.73196 
10 ,1.8518 ,0.66266 ,4.93235 ,48.39618 
11 ,2.0280 ,0.66450 ,4.91866 ,48.26186 
12 ,2.2037 ,0.66621 ,4.89812 ,48.06039 
13 ,2.3801 ,0.66800 ,4.89812 ,48.06039 
14 ,2.5561 ,0.66975 ,4.88786 ,47.95966 
15 ,2.7482 ,0.67161 ,4.84679 ,47.55672 
16 ,2.9404 ,0.67351 ,4.83995 ,47.48956 
17 ,3.1325 ,0.67556 ,4.84337 ,47.52314 
18 ,3.3562 ,0.67762 ,4.81599 ,47.25451 
19 ,3.5325 ,0.67953 ,4.80915 ,47.18736 
20 ,3.7087 ,0.68129 ,4.76808 ,46.78442 
21 ,3.9168 ,0.68327 ,4.76808 ,46.78442 
22 ,4.1248 ,0.68528 ,4.74413 ,46.54937 
23 ,4.3010 ,0.68722 ,4.74413 ,46.54937 
24 ,4.4769 ,0.68896 ,4.72702 ,46.38148 
25 ,4.6530 ,0.69081 ,4.70648 ,46.18001 
26 ,4.8292 ,0.69251 ,4.67568 ,45.87780 
27 ,5.0052 ,0.69425 ,4.67568 ,45.87780 
28 ,5.1809 ,0.69598 ,4.65857 ,45.70991 
29 ,5.3569 ,0.69772 ,4.65857 ,45.70991 
30 ,5.5329 ,0.69948 ,4.63462 ,45.47486 
31 ,5.7095 ,0.70127 ,4.60382 ,45.17266 
32 ,5.9175 ,0.70329 ,4.60382 ,45.17266 
33 ,6.0775 ,0.70506 ,4.57986 ,44.93761 
34 ,6.2537 ,0.70671 ,4.56275 ,44.76972 
35 ,6.4298 ,0.70852 ,4.55249 ,44.66898 
36 ,6.6219 ,0.71040 ,4.51826 ,44.33320 
37 ,6.7979 ,0.71216 ,4.51142 ,44.26604 
38 ,6.9900 ,0.71401 ,4.47720 ,43.93026 
39 ,7.1820 ,0.71600 ,4.46009 ,43.76237 
40 ,7.3580 ,0.71770 ,4.45666 ,43.72879 
41 ,7.5342 ,0.71951 ,4.44640 ,43.62806 
42 ,7.7103 ,0.72126 ,4.41902 ,43.35943 
43 ,7.9024 ,0.72322 ,4.39507 ,43.12438 
44 ,8.0781 ,0.72496 ,4.37111 ,42.88933 
45 ,8.2546 ,0.72669 ,4.37111 ,42.88933 
46 ,8.4302 ,0.72852 ,4.34373 ,42.62071 
47 ,8.6222 ,0.73032 ,4.32662 ,42.45282 
48 ,8.7987 ,0.73213 ,4.31293 ,42.31850 
49 ,8.9908 ,0.73413 ,4.29924 ,42.18419 
50 ,9.1667 ,0.73586 ,4.27871 ,41.98272 
51 ,9.3431 ,0.73760 ,4.25818 ,41.78125 
52 ,9.5510 ,0.73955 ,4.24449 ,41.64694 
53 ,9.7107 ,0.74139 ,4.21027 ,41.31115 
54 ,9.8871 ,0.74297 ,4.18289 ,41.04253 
55 ,10.0792 ,0.74493 ,4.19316 ,41.14326 
56 ,10.2554 ,0.74672 ,4.17947 ,41.00895 
57 ,10.4313 ,0.74850 ,4.15894 ,40.80748 
58 ,10.6073 ,0.75020 ,4.12129 ,40.43812 
59 ,10.7831 ,0.75200 ,4.11445 ,40.37096 
60 ,10.9595 ,0.75373 ,4.10418 ,40.27023 
61 ,11.1355 ,0.75552 ,4.09734 ,40.20307 
62 ,11.3277 ,0.75748 ,4.05627 ,39.80013 
63 ,11.5037 ,0.75920 ,4.02889 ,39.53150 
64 ,11.6798 ,0.76090 ,4.03916 ,39.63224 
65 ,11.8553 ,0.76284 ,4.01520 ,39.39719 
66 ,12.0320 ,0.76449 ,4.00152 ,39.26288 
67 ,12.2080 ,0.76622 ,3.97414 ,38.99425 
68 ,12.3842 ,0.76799 ,3.95018 ,38.75920 
69 ,12.5602 ,0.76976 ,3.93650 ,38.62489 
70 ,12.7362 ,0.77154 ,3.92281 ,38.49058 
71 ,12.9119 ,0.77322 ,3.91596 ,38.42342 
72 ,13.0881 ,0.77500 ,3.88516 ,38.12122 
73 ,13.2806 ,0.77696 ,3.86805 ,37.95332 
74 ,13.4723 ,0.77887 ,3.85779 ,37.85259 
75 ,13.6485 ,0.78059 ,3.83041 ,37.58396 
76 ,13.8245 ,0.78240 ,3.80987 ,37.38249 
77 ,14.0007 ,0.78415 ,3.80303 ,37.31534 
78 ,14.1929 ,0.78596 ,3.78592 ,37.14744 
79 ,14.3850 ,0.78797 ,3.75854 ,36.87882 
80 ,14.5610 ,0.78972 ,3.74143 ,36.71093 
81 ,14.7531 ,0.79163 ,3.73117 ,36.61019 
82 ,14.9454 ,0.79357 ,3.69694 ,36.27441 
83 ,15.1212 ,0.79534 ,3.68668 ,36.17367 
84 ,15.3133 ,0.79721 ,3.67641 ,36.07294 
85 ,15.4893 ,0.79903 ,3.65588 ,35.87147 
86 ,15.6654 ,0.80080 ,3.62166 ,35.53569 
87 ,15.8416 ,0.80252 ,3.62508 ,35.56926 
88 ,16.0495 ,0.80448 ,3.59770 ,35.30064 
89 ,16.2257 ,0.80642 ,3.57717 ,35.09917 
90 ,16.4015 ,0.80817 ,3.56348 ,34.96485 
91 ,16.5777 ,0.80992 ,3.54979 ,34.83054 
92 ,16.7698 ,0.81179 ,3.52584 ,34.59549 
93 ,16.9458 ,0.81361 ,3.50188 ,34.36045 
94 ,17.1216 ,0.81536 ,3.50530 ,34.39402 
95 ,17.2980 ,0.81712 ,3.48135 ,34.15898 
96 ,17.4741 ,0.81891 ,3.47450 ,34.09182 
97 ,17.6500 ,0.82065 ,3.46424 ,33.99108 
98 ,17.8262 ,0.82241 ,3.43001 ,33.65530 
99 ,18.0024 ,0.82413 ,3.41290 ,33.48741 
100 ,18.2101 ,0.82614 ,3.39579 ,33.31952 
101 ,18.3865 ,0.82804 ,3.37868 ,33.15163 
102 ,18.5944 ,0.83002 ,3.37868 ,33.15163 
103 ,18.7706 ,0.83183 ,3.35815 ,32.95016 
104 ,18.9627 ,0.83369 ,3.32735 ,32.64795 
105 ,19.1546 ,0.83565 ,3.33762 ,32.74869 
106 ,19.3308 ,0.83745 ,3.29997 ,32.37933 
107 ,19.5070 ,0.83922 ,3.29655 ,32.34575 
108 ,19.6827 ,0.84091 ,3.27259 ,32.11070 
109 ,19.8591 ,0.84272 ,3.27602 ,32.14428 
110 ,20.0348 ,0.84451 ,3.25206 ,31.90923 
111 ,20.2109 ,0.84620 ,3.23495 ,31.74134 
112 ,20.3709 ,0.84796 ,3.21100 ,31.50629 
113 ,20.5476 ,0.84952 ,3.20073 ,31.40555 
114 ,20.7396 ,0.85156 ,3.19046 ,31.30482 
115 ,20.9314 ,0.85341 ,3.16993 ,31.10335 
116 ,21.1396 ,0.85537 ,3.14940 ,30.90188 
117 ,21.3157 ,0.85725 ,3.14597 ,30.86830 
118 ,21.4918 ,0.85900 ,3.12886 ,30.70041 
119 ,21.6677 ,0.86079 ,3.09806 ,30.39821 
120 ,21.8759 ,0.86274 ,3.09806 ,30.39821 
121 ,22.0677 ,0.86472 ,3.06726 ,30.09600 
122 ,22.2442 ,0.86656 ,3.04331 ,29.86095 
123 ,22.4358 ,0.86847 ,3.04673 ,29.89453 
124 ,22.6122 ,0.87022 ,3.03304 ,29.76022 
125 ,22.7882 ,0.87195 ,3.00224 ,29.45801 
126 ,22.9644 ,0.87372 ,2.97144 ,29.15581 
127 ,23.1565 ,0.87571 ,2.98513 ,29.29012 
128 ,23.3325 ,0.87743 ,2.96802 ,29.12223 
129 ,23.5085 ,0.87931 ,2.93038 ,28.75287 
130 ,23.6847 ,0.88090 ,2.92696 ,28.71929 
131 ,23.8765 ,0.88290 ,2.93380 ,28.78645 
132 ,24.0845 ,0.88488 ,2.90985 ,28.55140 
133 ,24.2608 ,0.88666 ,2.88247 ,28.28277 
134 ,24.4371 ,0.88850 ,2.87905 ,28.24919 
135 ,24.6131 ,0.89025 ,2.87562 ,28.21562 
136 ,24.7891 ,0.89201 ,2.83798 ,27.84625 
137 ,24.9650 ,0.89373 ,2.82087 ,27.67836 
138 ,25.1411 ,0.89552 ,2.80718 ,27.54405 
139 ,25.3173 ,0.89724 ,2.81060 ,27.57763 
140 ,25.5095 ,0.89912 ,2.79007 ,27.37616 
141 ,25.6856 ,0.90097 ,2.76611 ,27.14111 
142 ,25.8773 ,0.90288 ,2.76954 ,27.17469 
143 ,26.0537 ,0.90463 ,2.74558 ,26.93964 
144 ,26.2617 ,0.90657 ,2.73874 ,26.87248 
145 ,26.4381 ,0.90848 ,2.72505 ,26.73817 
146 ,26.6138 ,0.91024 ,2.70794 ,26.57028 
147 ,26.8061 ,0.91205 ,2.68740 ,26.36881 
148 ,26.9819 ,0.91395 ,2.66345 ,26.13376 
149 ,27.1581 ,0.91578 ,2.64976 ,25.99945 
150 ,27.3342 ,0.91743 ,2.64634 ,25.96587 
151 ,27.5103 ,0.91918 ,2.60869 ,25.59651 
152 ,27.6861 ,0.92099 ,2.59843 ,25.49577 
153 ,27.8623 ,0.92269 ,2.59158 ,25.42862 
154 ,28.0546 ,0.92462 ,2.57105 ,25.22715 
155 ,28.2468 ,0.92650 ,2.55736 ,25.09283 
156 ,28.4387 ,0.92846 ,2.55394 ,25.05926 
157 ,28.6147 ,0.93020 ,2.53341 ,24.85779 
158 ,28.7908 ,0.93198 ,2.50603 ,24.58916 
159 ,28.9509 ,0.93370 ,2.49234 ,24.45485 
160 ,29.1431 ,0.93547 ,2.48892 ,24.42127 
161 ,29.3349 ,0.93747 ,2.46496 ,24.18622 
162 ,29.5111 ,0.93919 ,2.45470 ,24.08549 
163 ,29.7030 ,0.94107 ,2.45127 ,24.05191 
164 ,29.8792 ,0.94285 ,2.43074 ,23.85044 
165 ,30.0551 ,0.94466 ,2.41705 ,23.71612 
166 ,30.2314 ,0.94641 ,2.39652 ,23.51465 
167 ,30.4394 ,0.94839 ,2.37941 ,23.34676 
168 ,30.6476 ,0.95050 ,2.35888 ,23.14529 
169 ,30.8236 ,0.95232 ,2.33834 ,22.94382 
170 ,31.0318 ,0.95425 ,2.34177 ,22.97740 
171 ,31.2236 ,0.95632 ,2.30070 ,22.57446 
172 ,31.3997 ,0.95810 ,2.30070 ,22.57446 
173 ,31.5760 ,0.95986 ,2.29385 ,22.50731 
174 ,31.7840 ,0.96188 ,2.26306 ,22.20510 
175 ,31.9601 ,0.96362 ,2.25279 ,22.10437 
176 ,32.1363 ,0.96543 ,2.23568 ,21.93647 
177 ,32.3122 ,0.96718 ,2.22199 ,21.80216 
178 ,32.4884 ,0.96897 ,2.19461 ,21.53353 
179 ,32.6644 ,0.97073 ,2.20146 ,21.60069 
180 ,32.8408 ,0.97247 ,2.19803 ,21.56711 
181 ,33.0166 ,0.97424 ,2.16723 ,21.26491 
182 ,33.1925 ,0.97594 ,2.14670 ,21.06344 
183 ,33.3688 ,0.97774 ,2.13301 ,20.92912 
184 ,33.5607 ,0.97967 ,2.12617 ,20.86197 
185 ,33.7369 ,0.98146 ,2.11590 ,20.76123 
186 ,33.9287 ,0.98331 ,2.08168 ,20.42545 
187 ,34.1050 ,0.98509 ,2.08168 ,20.42545 
188 ,34.2810 ,0.98691 ,2.07826 ,20.39187 
189 ,34.4732 ,0.98884 ,2.04746 ,20.08967 
190 ,34.6652 ,0.99072 ,2.03377 ,19.95535 
191 ,34.8572 ,0.99264 ,2.02350 ,19.85462 
192 ,35.0492 ,0.99456 ,1.99613 ,19.58599 
193 ,35.2254 ,0.99630 ,1.98928 ,19.51884 
194 ,35.4174 ,0.99815 ,1.97559 ,19.38452 
195 ,35.6096 ,1.00010 ,1.95848 ,19.21663 
196 ,35.7856 ,1.00189 ,1.93795 ,19.01516 
197 ,35.9618 ,1.00364 ,1.95164 ,19.14948 
198 ,36.1376 ,1.00544 ,1.92084 ,18.84727 
199 ,36.3300 ,1.00727 ,1.90031 ,18.64580 
200 ,36.5221 ,1.00930 ,1.89346 ,18.57864 
201 ,36.6981 ,1.01103 ,1.88319 ,18.47791 
202 ,36.8742 ,1.01283 ,1.85924 ,18.24286 
203 ,37.0502 ,1.01459 ,1.84213 ,18.07497 
204 ,37.2262 ,1.01628 ,1.82160 ,17.87350 
205 ,37.4021 ,1.01804 ,1.82160 ,17.87350 
206 ,37.6103 ,1.02010 ,1.80106 ,17.67203 
207 ,37.8024 ,1.02197 ,1.80106 ,17.67203 
208 ,37.9786 ,1.02385 ,1.78053 ,17.47056 
209 ,38.1546 ,1.02557 ,1.75657 ,17.23551 
210 ,38.3307 ,1.02730 ,1.73604 ,17.03404 
211 ,38.5227 ,1.02922 ,1.72235 ,16.89973 
212 ,38.6990 ,1.03105 ,1.72235 ,16.89973 
213 ,38.8750 ,1.03282 ,1.69155 ,16.59752 
214 ,39.0511 ,1.03459 ,1.68471 ,16.53037 
215 ,39.2432 ,1.03650 ,1.68813 ,16.56395 
216 ,39.4351 ,1.03842 ,1.66075 ,16.29532 
217 ,39.6109 ,1.04013 ,1.64022 ,16.09385 
218 ,39.7874 ,1.04190 ,1.63338 ,16.02669 
219 ,39.9794 ,1.04381 ,1.61627 ,15.85880 
220 ,40.1555 ,1.04555 ,1.60258 ,15.72449 
221 ,40.3476 ,1.04746 ,1.57520 ,15.45586 
222 ,40.5236 ,1.04928 ,1.57520 ,15.45586 
223 ,40.7158 ,1.05123 ,1.56151 ,15.32155 
224 ,40.8917 ,1.05298 ,1.54098 ,15.12008 
225 ,41.0839 ,1.05489 ,1.53756 ,15.08650 
226 ,41.2599 ,1.05667 ,1.51702 ,14.88503 
227 ,41.4520 ,1.05855 ,1.50333 ,14.75072 
228 ,41.6280 ,1.06031 ,1.49307 ,14.64998 
229 ,41.8042 ,1.06206 ,1.49649 ,14.68356 
230 ,41.9802 ,1.06386 ,1.47253 ,14.44851 
231 ,42.1723 ,1.06571 ,1.44858 ,14.21346 
232 ,42.3483 ,1.06748 ,1.43831 ,14.11273 
233 ,42.5244 ,1.06925 ,1.44174 ,14.14631 
234 ,42.7005 ,1.07101 ,1.42805 ,14.01199 
235 ,42.8927 ,1.07291 ,1.40409 ,13.77695 
236 ,43.0685 ,1.07469 ,1.38014 ,13.54190 
237 ,43.2448 ,1.07649 ,1.38014 ,13.54190 
238 ,43.4208 ,1.07821 ,1.38356 ,13.57548 
239 ,43.5969 ,1.08003 ,1.35618 ,13.30685 
240 ,43.7891 ,1.08191 ,1.33223 ,13.07180 
241 ,43.9647 ,1.08371 ,1.33565 ,13.10538 
242 ,44.1410 ,1.08547 ,1.32880 ,13.03822 
243 ,44.3172 ,1.08722 ,1.31512 ,12.90391 
244 ,44.5093 ,1.08911 ,1.30143 ,12.76960 
245 ,44.7012 ,1.09098 ,1.27747 ,12.53455 
246 ,44.8936 ,1.09292 ,1.25009 ,12.26592 
247 ,45.0696 ,1.09473 ,1.24667 ,12.23235 
248 ,45.2616 ,1.09656 ,1.24667 ,12.23235 
249 ,45.4379 ,1.09843 ,1.23298 ,12.09803 
250 ,45.5975 ,1.10013 ,1.21245 ,11.89656 
251 ,45.7739 ,1.10175 ,1.20218 ,11.79583 
252 ,45.9658 ,1.10368 ,1.19534 ,11.72867 
253 ,46.1578 ,1.10557 ,1.17481 ,11.52720 
254 ,46.3341 ,1.10736 ,1.16112 ,11.39289 
255 ,46.5260 ,1.10932 ,1.17138 ,11.49362 
256 ,46.7022 ,1.11101 ,1.14058 ,11.19142 
257 ,46.8783 ,1.11281 ,1.13032 ,11.09068 
258 ,47.0703 ,1.11472 ,1.12347 ,11.02353 
259 ,47.2624 ,1.11665 ,1.10294 ,10.82206 
260 ,47.4543 ,1.11850 ,1.09267 ,10.72132 
261 ,47.6305 ,1.12029 ,1.07899 ,10.58701 
262 ,47.8065 ,1.12203 ,1.06872 ,10.48627 
263 ,47.9828 ,1.12383 ,1.05503 ,10.35196 
264 ,48.1584 ,1.12563 ,1.03792 ,10.18407 
265 ,48.3349 ,1.12735 ,1.00370 ,9.84829 
266 ,48.5268 ,1.12929 ,1.02423 ,10.04976 
267 ,48.7028 ,1.13103 ,1.01054 ,9.91544 
268 ,48.8790 ,1.13283 ,1.00370 ,9.84829 
269 ,49.0711 ,1.13474 ,0.97632 ,9.57966 
270 ,49.2469 ,1.13643 ,0.98317 ,9.64682 
271 ,49.4232 ,1.13825 ,0.94894 ,9.31103 
272 ,49.5993 ,1.13993 ,0.93868 ,9.21030 
273 ,49.7755 ,1.14178 ,0.91814 ,9.00883 
274 ,49.9673 ,1.14367 ,0.92499 ,9.07598 
275 ,50.1596 ,1.14555 ,0.90446 ,8.87451 
276 ,50.3355 ,1.14739 ,0.88734 ,8.70662 
277 ,50.5114 ,1.14922 ,0.88050 ,8.63947 
278 ,50.7038 ,1.15099 ,0.86681 ,8.50515 
279 ,50.8797 ,1.15284 ,0.85654 ,8.40442 
280 ,51.0719 ,1.15469 ,0.84628 ,8.30368 
281 ,51.2639 ,1.15675 ,0.81890 ,8.03506 
282 ,51.4402 ,1.15841 ,0.81890 ,8.03506 
283 ,51.6161 ,1.16020 ,0.78810 ,7.73285 
284 ,51.7922 ,1.16193 ,0.79495 ,7.80001 
285 ,51.9679 ,1.16367 ,0.78468 ,7.69927 
286 ,52.1444 ,1.16542 ,0.77099 ,7.56496 
287 ,52.3204 ,1.16723 ,0.75046 ,7.36349 
288 ,52.5124 ,1.16902 ,0.74019 ,7.26276 
289 ,52.6883 ,1.17088 ,0.74019 ,7.26276 
290 ,52.8646 ,1.17265 ,0.72308 ,7.09486 
291 ,53.0403 ,1.17443 ,0.69913 ,6.85982 
292 ,53.2166 ,1.17613 ,0.68201 ,6.69193 
293 ,53.4089 ,1.17806 ,0.68201 ,6.69193 
294 ,53.6007 ,1.17991 ,0.67859 ,6.65835 
295 ,53.8249 ,1.18209 ,0.65806 ,6.45688 
296 ,54.0008 ,1.18400 ,0.63068 ,6.18825 
297 ,54.1931 ,1.18591 ,0.61357 ,6.02036 
298 ,54.3848 ,1.18779 ,0.62042 ,6.08752 
299 ,54.5613 ,1.18960 ,0.58619 ,5.75173 
300 ,54.7531 ,1.19152 ,0.58962 ,5.78531 
301 ,54.9774 ,1.19362 ,0.57593 ,5.65100 
302 ,55.1530 ,1.19552 ,0.56566 ,5.55026 
303 ,55.3455 ,1.19740 ,0.53486 ,5.24806 
304 ,55.5215 ,1.19920 ,0.52459 ,5.14732 
305 ,55.6976 ,1.20092 ,0.51433 ,5.04659 
306 ,55.8738 ,1.20275 ,0.50748 ,4.97943 
307 ,56.0498 ,1.20450 ,0.51091 ,5.01301 
308 ,56.2256 ,1.20623 ,0.49037 ,4.81154 
309 ,56.4020 ,1.20801 ,0.47326 ,4.64365 
310 ,56.5941 ,1.20998 ,0.44931 ,4.40860 
311 ,56.7861 ,1.21183 ,0.44931 ,4.40860 
312 ,56.9622 ,1.21356 ,0.43220 ,4.24071 
313 ,57.1542 ,1.21556 ,0.42535 ,4.17355 
314 ,57.3623 ,1.21754 ,0.39797 ,3.90493 
315 ,57.5544 ,1.21952 ,0.40140 ,3.93850 
316 ,57.7466 ,1.22134 ,0.39455 ,3.87135 
317 ,57.9225 ,1.22320 ,0.36718 ,3.60272 
318 ,58.1144 ,1.22510 ,0.36375 ,3.56914 
319 ,58.2904 ,1.22685 ,0.35691 ,3.50199 
320 ,58.4668 ,1.22868 ,0.34322 ,3.36767 
321 ,58.6588 ,1.23056 ,0.31584 ,3.09905 
322 ,58.8349 ,1.23235 ,0.32953 ,3.23336 
323 ,59.0108 ,1.23408 ,0.30558 ,2.99831 
324 ,59.1871 ,1.23582 ,0.27820 ,2.72969 
325 ,59.3947 ,1.23784 ,0.27478 ,2.69611 
326 ,59.5712 ,1.23970 ,0.27135 ,2.66253 
327 ,59.7473 ,1.24141 ,0.24398 ,2.39390 
328 ,59.9233 ,1.24321 ,0.23371 ,2.29317 
329 ,60.0994 ,1.24493 ,0.22344 ,2.19243 
330 ,60.2916 ,1.24692 ,0.22002 ,2.15885 
331 ,60.4835 ,1.24880 ,0.19949 ,1.95738 
332 ,60.6436 ,1.25052 ,0.18922 ,1.85665 
333 ,60.8197 ,1.25214 ,0.17211 ,1.68876 
334 ,60.9958 ,1.25395 ,0.18580 ,1.82307 
335 ,61.1719 ,1.25563 ,0.16869 ,1.65518 
336 ,61.3483 ,1.25746 ,0.13789 ,1.35298 
337 ,61.5399 ,1.25933 ,0.13789 ,1.35298 
338 ,61.7322 ,1.26116 ,0.13105 ,1.28582 
339 ,61.9082 ,1.26309 ,0.11051 ,1.08435 
340 ,62.0842 ,1.26481 ,0.10367 ,1.01719 
341 ,62.2764 ,1.26673 ,0.10025 ,0.98361 
342 ,62.4683 ,1.26863 ,0.07629 ,0.74857 
343 ,62.6284 ,1.27033 ,0.05234 ,0.51352 
344 ,62.8206 ,1.27214 ,0.04891 ,0.47994 
345 ,62.9967 ,1.27395 ,0.04891 ,0.47994 
346 ,63.1887 ,1.27584 ,0.04207 ,0.41278 
347 ,63.3648 ,1.27758 ,0.02496 ,0.24489 
348 ,63.5405 ,1.27936 ,0.00785 ,0.07700 
349 ,63.7170 ,1.28113 ,0.00443 ,0.04342 
350 ,63.9091 ,1.28309 ,-0.01611 ,-0.15805 
351 ,64.0850 ,1.28484 ,-0.02637 ,-0.25878 
352 ,64.2612 ,1.28654 ,-0.02980 ,-0.29236 
353 ,64.4375 ,1.28836 ,-0.03322 ,-0.32594 
354 ,64.6132 ,1.29008 ,-0.04006 ,-0.39310 
355 ,64.8052 ,1.29193 ,-0.07086 ,-0.69530 
356 ,64.9971 ,1.29389 ,-0.06744 ,-0.66172 
357 ,65.1733 ,1.29568 ,-0.08113 ,-0.79604 
358 ,65.3499 ,1.29747 ,-0.10166 ,-0.99751 
359 ,65.5257 ,1.29924 ,-0.11877 ,-1.16540 
360 ,65.7333 ,1.30119 ,-0.11535 ,-1.13182 
361 ,65.9094 ,1.30306 ,-0.13588 ,-1.33329 
362 ,66.0856 ,1.30479 ,-0.14273 ,-1.40045 
363 ,66.2940 ,1.30683 ,-0.15984 ,-1.56834 
364 ,66.5021 ,1.30890 ,-0.16326 ,-1.60191 
365 ,66.7101 ,1.31087 ,-0.18722 ,-1.83696 
366 ,66.9020 ,1.31295 ,-0.19748 ,-1.93770 
367 ,67.0943 ,1.31485 ,-0.20433 ,-2.00485 
368 ,67.2704 ,1.31664 ,-0.21802 ,-2.13917 
369 ,67.4466 ,1.31842 ,-0.22486 ,-2.20632 
370 ,67.6546 ,1.32036 ,-0.21802 ,-2.13917 
371 ,67.8302 ,1.32225 ,-0.23513 ,-2.30706 
372 ,68.0066 ,1.32397 ,-0.26593 ,-2.60926 
373 ,68.1667 ,1.32571 ,-0.25566 ,-2.50853 
374 ,68.3429 ,1.32731 ,-0.26935 ,-2.64284 
375 ,68.5189 ,1.32915 ,-0.27277 ,-2.67642 
376 ,68.7108 ,1.33104 ,-0.29330 ,-2.87789 
377 ,68.8865 ,1.33277 ,-0.31726 ,-3.11294 
378 ,69.0631 ,1.33452 ,-0.30357 ,-2.97863 
379 ,69.2552 ,1.33648 ,-0.30357 ,-2.97863 
380 ,69.4310 ,1.33830 ,-0.33437 ,-3.28083 
381 ,69.6074 ,1.33999 ,-0.32410 ,-3.18010 
382 ,69.7993 ,1.34191 ,-0.34121 ,-3.34799 
383 ,69.9595 ,1.34360 ,-0.35148 ,-3.44872 
384 ,70.1356 ,1.34528 ,-0.36859 ,-3.61661 
385 ,70.3117 ,1.34703 ,-0.37886 ,-3.71735 
386 ,70.4877 ,1.34884 ,-0.39255 ,-3.85166 
387 ,70.6798 ,1.35075 ,-0.38228 ,-3.75093 
388 ,70.8878 ,1.35277 ,-0.40966 ,-4.01955 
389 ,71.0638 ,1.35451 ,-0.41308 ,-4.05313 
390 ,71.2560 ,1.35650 ,-0.41650 ,-4.08671 
391 ,71.4483 ,1.35841 ,-0.42677 ,-4.18744 
392 ,71.6240 ,1.36016 ,-0.44388 ,-4.35534 
393 ,71.8161 ,1.36214 ,-0.43703 ,-4.28818 
394 ,71.9922 ,1.36386 ,-0.44046 ,-4.32176 
395 ,72.2004 ,1.36580 ,-0.46441 ,-4.55681 
396 ,72.3924 ,1.36784 ,-0.46783 ,-4.59038 
397 ,72.5686 ,1.36962 ,-0.47810 ,-4.69112 
398 ,72.7453 ,1.37134 ,-0.49521 ,-4.85901 
399 ,72.9367 ,1.37324 ,-0.49863 ,-4.89259 
400 ,73.1127 ,1.37517 ,-0.50890 ,-4.99332 
401 ,73.2886 ,1.37679 ,-0.52601 ,-5.16121 
402 ,73.4649 ,1.37853 ,-0.51917 ,-5.09406 
403 ,73.6411 ,1.38031 ,-0.51917 ,-5.09406 
404 ,73.8492 ,1.38232 ,-0.54312 ,-5.32911 
405 ,74.0251 ,1.38417 ,-0.55681 ,-5.46342 
406 ,74.2170 ,1.38603 ,-0.54312 ,-5.32911 
407 ,74.4092 ,1.38788 ,-0.57050 ,-5.59773 
408 ,74.5854 ,1.38974 ,-0.56365 ,-5.53058 
409 ,74.7774 ,1.39172 ,-0.57734 ,-5.66489 
410 ,74.9536 ,1.39344 ,-0.59445 ,-5.83278 
411 ,75.1616 ,1.39546 ,-0.59788 ,-5.86636 
412 ,75.3377 ,1.39736 ,-0.61841 ,-6.06783 
413 ,75.5295 ,1.39915 ,-0.61841 ,-6.06783 
414 ,75.7219 ,1.40113 ,-0.61499 ,-6.03425 
415 ,75.9140 ,1.40297 ,-0.63552 ,-6.23572 
416 ,76.1218 ,1.40508 ,-0.65263 ,-6.40361 
417 ,76.2980 ,1.40685 ,-0.65947 ,-6.47077 
418 ,76.4741 ,1.40865 ,-0.66632 ,-6.53793 
419 ,76.6662 ,1.41046 ,-0.68001 ,-6.67224 
420 ,76.8582 ,1.41247 ,-0.67659 ,-6.63866 
421 ,77.0342 ,1.41416 ,-0.69370 ,-6.80655 
422 ,77.2264 ,1.41613 ,-0.69027 ,-6.77297 
423 ,77.4185 ,1.41806 ,-0.69370 ,-6.80655 
424 ,77.6105 ,1.42001 ,-0.72107 ,-7.07518 
425 ,77.7865 ,1.42177 ,-0.71081 ,-6.97444 
426 ,77.9627 ,1.42351 ,-0.72107 ,-7.07518 
427 ,78.1387 ,1.42529 ,-0.74845 ,-7.34380 
428 ,78.3308 ,1.42717 ,-0.75872 ,-7.44454 
429 ,78.5229 ,1.42913 ,-0.76556 ,-7.51170 
430 ,78.7149 ,1.43103 ,-0.76556 ,-7.51170 
431 ,78.8911 ,1.43284 ,-0.77241 ,-7.57885 
432 ,79.0830 ,1.43469 ,-0.77583 ,-7.61243 
433 ,79.2749 ,1.43665 ,-0.78267 ,-7.67959 
434 ,79.4509 ,1.43839 ,-0.80321 ,-7.88106 
435 ,79.6274 ,1.44015 ,-0.80321 ,-7.88106 
436 ,79.8034 ,1.44189 ,-0.79636 ,-7.81390 
437 ,79.9791 ,1.44368 ,-0.80663 ,-7.91464 
438 ,80.1552 ,1.44541 ,-0.82374 ,-8.08253 
439 ,80.3154 ,1.44715 ,-0.84427 ,-8.28400 
440 ,80.4913 ,1.44878 ,-0.84769 ,-8.31758 
441 ,80.6679 ,1.45057 ,-0.85796 ,-8.41831 
442 ,80.8759 ,1.45260 ,-0.86481 ,-8.48547 
443 ,81.0520 ,1.45435 ,-0.86138 ,-8.45189 
444 ,81.2440 ,1.45633 ,-0.86481 ,-8.48547 
445 ,81.4199 ,1.45805 ,-0.87165 ,-8.55262 
446 ,81.6121 ,1.45998 ,-0.89218 ,-8.75409 
447 ,81.7879 ,1.46175 ,-0.90929 ,-8.92198 
448 ,81.9643 ,1.46350 ,-0.88876 ,-8.72051 
449 ,82.1403 ,1.46531 ,-0.89218 ,-8.75409 
450 ,82.3164 ,1.46699 ,-0.91272 ,-8.95556 
451 ,82.4925 ,1.46882 ,-0.92298 ,-9.05630 
452 ,82.6845 ,1.47070 ,-0.91614 ,-8.98914 
453 ,82.8607 ,1.47250 ,-0.92983 ,-9.12345 
454 ,83.0367 ,1.47432 ,-0.94694 ,-9.29135 
455 ,83.2128 ,1.47599 ,-0.96063 ,-9.42566 
456 ,83.3889 ,1.47771 ,-0.97089 ,-9.52639 
457 ,83.5810 ,1.47970 ,-0.96063 ,-9.42566 
458 ,83.7731 ,1.48163 ,-0.97774 ,-9.59355 
459 ,83.9651 ,1.48353 ,-0.97774 ,-9.59355 
460 ,84.1413 ,1.48529 ,-0.98116 ,-9.62713 
461 ,84.3334 ,1.48716 ,-1.01538 ,-9.96291 
462 ,84.5094 ,1.48900 ,-1.02565 ,-10.06365 
