Data stamp = , 19-04-2022 16:45:38 304

Calibration Values: 
Slope = , 26.54 , g/V 
Offset Voltage at no contact = , -0.501760 , V 

No , Time , Stage Position ,   Mass , Force 
   ,  (s) ,      (mm)      ,   (g)  , (mN)  

1 ,0.0000 ,0.59941 ,5.42514 ,53.23145 
2 ,0.2251 ,0.59948 ,5.41487 ,53.13072 
3 ,0.6890 ,0.60089 ,5.40803 ,53.06356 
4 ,0.8811 ,0.60301 ,5.42856 ,53.26503 
5 ,1.0572 ,0.60477 ,5.42514 ,53.23145 
6 ,1.2332 ,0.60647 ,5.42514 ,53.23145 
7 ,1.4093 ,0.60819 ,5.42514 ,53.23145 
8 ,1.5854 ,0.61002 ,5.43883 ,53.36576 
9 ,1.7614 ,0.61178 ,5.41829 ,53.16429 
10 ,1.9214 ,0.61351 ,5.40803 ,53.06356 
11 ,2.0976 ,0.61522 ,5.39776 ,52.96282 
12 ,2.2736 ,0.61690 ,5.36696 ,52.66062 
13 ,2.4497 ,0.61872 ,5.35327 ,52.52631 
14 ,2.6258 ,0.62042 ,5.36012 ,52.59346 
15 ,2.8018 ,0.62220 ,5.33958 ,52.39199 
16 ,2.9780 ,0.62391 ,5.32247 ,52.22410 
17 ,3.1540 ,0.62571 ,5.28825 ,51.88832 
18 ,3.3139 ,0.62748 ,5.27456 ,51.75401 
19 ,3.4741 ,0.62907 ,5.27114 ,51.72043 
20 ,3.6662 ,0.63077 ,5.25403 ,51.55254 
21 ,3.8422 ,0.63259 ,5.24034 ,51.41822 
22 ,4.0183 ,0.63434 ,5.20612 ,51.08244 
23 ,4.1946 ,0.63611 ,5.18559 ,50.88097 
24 ,4.3544 ,0.63784 ,5.17190 ,50.74666 
25 ,4.5305 ,0.63947 ,5.16505 ,50.67950 
26 ,4.7070 ,0.64127 ,5.14452 ,50.47803 
27 ,4.8987 ,0.64322 ,5.13425 ,50.37729 
28 ,5.0752 ,0.64490 ,5.10345 ,50.07509 
29 ,5.2512 ,0.64675 ,5.08634 ,49.90720 
30 ,5.4433 ,0.64852 ,5.08634 ,49.90720 
31 ,5.6191 ,0.65036 ,5.05212 ,49.57142 
32 ,5.7949 ,0.65224 ,5.04528 ,49.50426 
33 ,5.9715 ,0.65385 ,5.02474 ,49.30279 
34 ,6.1796 ,0.65594 ,4.98710 ,48.93343 
35 ,6.3717 ,0.65780 ,4.96999 ,48.76554 
36 ,6.5477 ,0.65965 ,4.96657 ,48.73196 
37 ,6.7234 ,0.66144 ,4.94261 ,48.49691 
38 ,6.8999 ,0.66316 ,4.94261 ,48.49691 
39 ,7.1079 ,0.66516 ,4.91866 ,48.26186 
40 ,7.3158 ,0.66731 ,4.88101 ,47.89250 
41 ,7.5081 ,0.66924 ,4.88101 ,47.89250 
42 ,7.7003 ,0.67115 ,4.86048 ,47.69103 
43 ,7.8762 ,0.67291 ,4.82626 ,47.35525 
44 ,8.0524 ,0.67470 ,4.83310 ,47.42240 
45 ,8.2444 ,0.67660 ,4.81599 ,47.25451 
46 ,8.4204 ,0.67833 ,4.78519 ,46.95231 
47 ,8.5966 ,0.68011 ,4.76124 ,46.71726 
48 ,8.7883 ,0.68199 ,4.76124 ,46.71726 
49 ,8.9648 ,0.68381 ,4.74070 ,46.51579 
50 ,9.1568 ,0.68571 ,4.71675 ,46.28074 
51 ,9.3329 ,0.68749 ,4.69964 ,46.11285 
52 ,9.5248 ,0.68944 ,4.69279 ,46.04569 
53 ,9.7007 ,0.69120 ,4.66542 ,45.77707 
54 ,9.8770 ,0.69289 ,4.64146 ,45.54202 
55 ,10.0532 ,0.69469 ,4.63804 ,45.50844 
56 ,10.2452 ,0.69664 ,4.62435 ,45.37413 
57 ,10.4213 ,0.69842 ,4.61066 ,45.23981 
58 ,10.6134 ,0.70018 ,4.59013 ,45.03835 
59 ,10.8055 ,0.70224 ,4.57644 ,44.90403 
60 ,10.9816 ,0.70403 ,4.53880 ,44.53467 
61 ,11.1576 ,0.70570 ,4.52511 ,44.40036 
62 ,11.3655 ,0.70777 ,4.51484 ,44.29962 
63 ,11.5577 ,0.70971 ,4.48404 ,43.99742 
64 ,11.7338 ,0.71146 ,4.48062 ,43.96384 
65 ,11.9259 ,0.71343 ,4.45666 ,43.72879 
66 ,12.1176 ,0.71524 ,4.43613 ,43.52732 
67 ,12.2941 ,0.71709 ,4.41902 ,43.35943 
68 ,12.4699 ,0.71881 ,4.40533 ,43.22512 
69 ,12.6461 ,0.72060 ,4.40191 ,43.19154 
70 ,12.8223 ,0.72235 ,4.37111 ,42.88933 
71 ,12.9979 ,0.72408 ,4.34373 ,42.62071 
72 ,13.1740 ,0.72588 ,4.31636 ,42.35208 
73 ,13.3663 ,0.72771 ,4.31978 ,42.38566 
74 ,13.5747 ,0.72975 ,4.28213 ,42.01630 
75 ,13.7665 ,0.73174 ,4.29582 ,42.15061 
76 ,13.9585 ,0.73368 ,4.26160 ,41.81483 
77 ,14.1507 ,0.73558 ,4.26502 ,41.84841 
78 ,14.3269 ,0.73748 ,4.23080 ,41.51262 
79 ,14.5030 ,0.73918 ,4.22396 ,41.44547 
80 ,14.6952 ,0.74108 ,4.19658 ,41.17684 
81 ,14.8870 ,0.74300 ,4.18631 ,41.07611 
82 ,15.0632 ,0.74474 ,4.17262 ,40.94179 
83 ,15.2391 ,0.74649 ,4.13840 ,40.60601 
84 ,15.4153 ,0.74825 ,4.13156 ,40.53885 
85 ,15.6074 ,0.75007 ,4.13156 ,40.53885 
86 ,15.7837 ,0.75198 ,4.09734 ,40.20307 
87 ,15.9594 ,0.75373 ,4.07338 ,39.96802 
88 ,16.1357 ,0.75548 ,4.06654 ,39.90087 
89 ,16.3278 ,0.75739 ,4.06654 ,39.90087 
90 ,16.5198 ,0.75923 ,4.02547 ,39.49793 
91 ,16.7118 ,0.76125 ,4.02889 ,39.53150 
92 ,16.9036 ,0.76312 ,3.99809 ,39.22930 
93 ,17.0960 ,0.76507 ,3.97756 ,39.02783 
94 ,17.2722 ,0.76685 ,3.97756 ,39.02783 
95 ,17.4478 ,0.76863 ,3.96045 ,38.85994 
96 ,17.6403 ,0.77043 ,3.93307 ,38.59131 
97 ,17.8323 ,0.77240 ,3.93307 ,38.59131 
98 ,18.0406 ,0.77441 ,3.89201 ,38.18837 
99 ,18.2165 ,0.77629 ,3.87490 ,38.02048 
100 ,18.4085 ,0.77820 ,3.87490 ,38.02048 
101 ,18.5845 ,0.77995 ,3.84752 ,37.75185 
102 ,18.7607 ,0.78169 ,3.83041 ,37.58396 
103 ,18.9368 ,0.78349 ,3.82356 ,37.51681 
104 ,19.1128 ,0.78526 ,3.80645 ,37.34891 
105 ,19.3050 ,0.78708 ,3.79276 ,37.21460 
106 ,19.4970 ,0.78911 ,3.76881 ,36.97955 
107 ,19.6731 ,0.79091 ,3.75512 ,36.84524 
108 ,19.8490 ,0.79256 ,3.74485 ,36.74450 
109 ,20.0253 ,0.79437 ,3.73801 ,36.67735 
110 ,20.2014 ,0.79615 ,3.69694 ,36.27441 
111 ,20.3935 ,0.79807 ,3.69694 ,36.27441 
112 ,20.5694 ,0.79979 ,3.67983 ,36.10652 
113 ,20.7773 ,0.80182 ,3.66614 ,35.97220 
114 ,20.9697 ,0.80370 ,3.64903 ,35.80431 
115 ,21.1618 ,0.80565 ,3.61823 ,35.50211 
116 ,21.3697 ,0.80770 ,3.61823 ,35.50211 
117 ,21.5455 ,0.80958 ,3.59770 ,35.30064 
118 ,21.7215 ,0.81138 ,3.58059 ,35.13275 
119 ,21.8977 ,0.81313 ,3.57032 ,35.03201 
120 ,22.0741 ,0.81485 ,3.53952 ,34.72981 
121 ,22.2662 ,0.81670 ,3.51899 ,34.52834 
122 ,22.4423 ,0.81856 ,3.49846 ,34.32687 
123 ,22.6500 ,0.82052 ,3.50188 ,34.36045 
124 ,22.8101 ,0.82232 ,3.48819 ,34.22613 
125 ,22.9865 ,0.82397 ,3.48135 ,34.15898 
126 ,23.1948 ,0.82600 ,3.46081 ,33.95751 
127 ,23.3864 ,0.82798 ,3.43344 ,33.68888 
128 ,23.5628 ,0.82976 ,3.40948 ,33.45383 
129 ,23.7547 ,0.83155 ,3.39921 ,33.35310 
130 ,23.9144 ,0.83334 ,3.39579 ,33.31952 
131 ,24.0910 ,0.83500 ,3.37526 ,33.11805 
132 ,24.2670 ,0.83678 ,3.35473 ,32.91658 
133 ,24.4431 ,0.83852 ,3.32051 ,32.58080 
134 ,24.6352 ,0.84037 ,3.33419 ,32.71511 
135 ,24.8112 ,0.84220 ,3.31708 ,32.54722 
136 ,24.9869 ,0.84397 ,3.28971 ,32.27859 
137 ,25.1795 ,0.84581 ,3.26233 ,32.00996 
138 ,25.3875 ,0.84792 ,3.25206 ,31.90923 
139 ,25.5634 ,0.84974 ,3.24180 ,31.80849 
140 ,25.7556 ,0.85165 ,3.24180 ,31.80849 
141 ,25.9318 ,0.85338 ,3.21784 ,31.57345 
142 ,26.1075 ,0.85524 ,3.18704 ,31.27124 
143 ,26.2999 ,0.85713 ,3.17677 ,31.17051 
144 ,26.5078 ,0.85911 ,3.16309 ,31.03619 
145 ,26.7319 ,0.86115 ,3.14255 ,30.83472 
146 ,26.9402 ,0.86344 ,3.12544 ,30.66683 
147 ,27.1480 ,0.86542 ,3.08780 ,30.29747 
148 ,27.3243 ,0.86730 ,3.08438 ,30.26389 
149 ,27.5004 ,0.86911 ,3.08438 ,30.26389 
150 ,27.7084 ,0.87106 ,3.06384 ,30.06242 
151 ,27.9168 ,0.87309 ,3.04331 ,29.86095 
152 ,28.0927 ,0.87503 ,3.02620 ,29.69306 
153 ,28.2686 ,0.87679 ,3.01593 ,29.59233 
154 ,28.4607 ,0.87863 ,2.98855 ,29.32370 
155 ,28.6368 ,0.88047 ,2.98855 ,29.32370 
156 ,28.8127 ,0.88224 ,2.97487 ,29.18939 
157 ,28.9890 ,0.88395 ,2.96118 ,29.05507 
158 ,29.1970 ,0.88596 ,2.93380 ,28.78645 
159 ,29.3892 ,0.88794 ,2.92011 ,28.65213 
160 ,29.6129 ,0.89009 ,2.90985 ,28.55140 
161 ,29.7895 ,0.89195 ,2.87905 ,28.24919 
162 ,29.9809 ,0.89388 ,2.86536 ,28.11488 
163 ,30.1893 ,0.89587 ,2.85509 ,28.01415 
164 ,30.3977 ,0.89797 ,2.84482 ,27.91341 
165 ,30.5735 ,0.89982 ,2.83798 ,27.84625 
166 ,30.7818 ,0.90178 ,2.79691 ,27.44332 
167 ,30.9578 ,0.90366 ,2.80034 ,27.47689 
168 ,31.1337 ,0.90545 ,2.77980 ,27.27542 
169 ,31.3258 ,0.90733 ,2.74558 ,26.93964 
170 ,31.5016 ,0.90911 ,2.72163 ,26.70459 
171 ,31.6941 ,0.91099 ,2.73531 ,26.83891 
172 ,31.8863 ,0.91294 ,2.68398 ,26.33523 
173 ,32.0779 ,0.91481 ,2.69767 ,26.46954 
174 ,32.2543 ,0.91663 ,2.67029 ,26.20092 
175 ,32.4303 ,0.91833 ,2.66687 ,26.16734 
176 ,32.6064 ,0.92018 ,2.63607 ,25.86514 
177 ,32.7985 ,0.92211 ,2.62923 ,25.79798 
178 ,32.9745 ,0.92381 ,2.62923 ,25.79798 
179 ,33.1510 ,0.92553 ,2.59158 ,25.42862 
180 ,33.3267 ,0.92736 ,2.57447 ,25.26073 
181 ,33.5188 ,0.92921 ,2.58132 ,25.32788 
182 ,33.7108 ,0.93112 ,2.54025 ,24.92494 
183 ,33.9189 ,0.93321 ,2.54367 ,24.95852 
184 ,34.1110 ,0.93511 ,2.50603 ,24.58916 
185 ,34.3031 ,0.93705 ,2.49918 ,24.52200 
186 ,34.4791 ,0.93884 ,2.48892 ,24.42127 
187 ,34.6549 ,0.94063 ,2.47865 ,24.32053 
188 ,34.8314 ,0.94240 ,2.44785 ,24.01833 
189 ,35.0235 ,0.94420 ,2.45127 ,24.05191 
190 ,35.2314 ,0.94630 ,2.42048 ,23.74970 
191 ,35.4077 ,0.94817 ,2.40336 ,23.58181 
192 ,35.5997 ,0.95006 ,2.40336 ,23.58181 
193 ,35.8077 ,0.95196 ,2.37599 ,23.31318 
194 ,35.9838 ,0.95390 ,2.36230 ,23.17887 
195 ,36.1919 ,0.95589 ,2.33834 ,22.94382 
196 ,36.3678 ,0.95772 ,2.31781 ,22.74235 
197 ,36.5599 ,0.95961 ,2.32123 ,22.77593 
198 ,36.7362 ,0.96140 ,2.31439 ,22.70877 
199 ,36.9281 ,0.96331 ,2.26990 ,22.27226 
200 ,37.1043 ,0.96516 ,2.27674 ,22.33941 
201 ,37.2802 ,0.96683 ,2.25963 ,22.17152 
202 ,37.4564 ,0.96860 ,2.24252 ,22.00363 
203 ,37.6486 ,0.97053 ,2.19461 ,21.53353 
204 ,37.8402 ,0.97241 ,2.21515 ,21.73500 
205 ,38.0326 ,0.97427 ,2.18092 ,21.39922 
206 ,38.2248 ,0.97629 ,2.16381 ,21.23133 
207 ,38.4168 ,0.97814 ,2.15697 ,21.16417 
208 ,38.6087 ,0.98013 ,2.13301 ,20.92912 
209 ,38.8008 ,0.98198 ,2.13644 ,20.96270 
210 ,38.9932 ,0.98391 ,2.09879 ,20.59334 
211 ,39.1851 ,0.98593 ,2.09195 ,20.52619 
212 ,39.3771 ,0.98780 ,2.07826 ,20.39187 
213 ,39.5693 ,0.98964 ,2.04746 ,20.08967 
214 ,39.7613 ,0.99160 ,2.05773 ,20.19040 
215 ,39.9374 ,0.99338 ,2.03035 ,19.92178 
216 ,40.1131 ,0.99516 ,2.01324 ,19.75388 
217 ,40.2896 ,0.99692 ,1.99955 ,19.61957 
218 ,40.4818 ,0.99891 ,1.99955 ,19.61957 
219 ,40.6576 ,1.00060 ,1.97559 ,19.38452 
220 ,40.8338 ,1.00236 ,1.93795 ,19.01516 
221 ,41.0259 ,1.00424 ,1.92768 ,18.91443 
222 ,41.2340 ,1.00633 ,1.90715 ,18.71296 
223 ,41.4261 ,1.00831 ,1.90373 ,18.67938 
224 ,41.6022 ,1.01010 ,1.89688 ,18.61222 
225 ,41.7943 ,1.01192 ,1.87293 ,18.37717 
226 ,41.9702 ,1.01376 ,1.84213 ,18.07497 
227 ,42.1460 ,1.01546 ,1.84897 ,18.14213 
228 ,42.3223 ,1.01724 ,1.83528 ,18.00781 
229 ,42.5143 ,1.01918 ,1.81475 ,17.80634 
230 ,42.6906 ,1.02096 ,1.79764 ,17.63845 
231 ,42.8828 ,1.02281 ,1.80106 ,17.67203 
232 ,43.0747 ,1.02476 ,1.77369 ,17.40340 
233 ,43.2668 ,1.02669 ,1.75315 ,17.20193 
234 ,43.4428 ,1.02842 ,1.76000 ,17.26909 
235 ,43.6188 ,1.03022 ,1.73604 ,17.03404 
236 ,43.8271 ,1.03215 ,1.71209 ,16.79899 
237 ,44.0190 ,1.03417 ,1.70182 ,16.69826 
238 ,44.1953 ,1.03599 ,1.66760 ,16.36248 
239 ,44.4033 ,1.03806 ,1.67102 ,16.39605 
240 ,44.6112 ,1.04005 ,1.65733 ,16.26174 
241 ,44.8035 ,1.04204 ,1.63680 ,16.06027 
242 ,44.9954 ,1.04389 ,1.60258 ,15.72449 
243 ,45.1555 ,1.04567 ,1.60258 ,15.72449 
244 ,45.3315 ,1.04733 ,1.58204 ,15.52302 
245 ,45.5076 ,1.04915 ,1.59231 ,15.62375 
246 ,45.7158 ,1.05113 ,1.54782 ,15.18724 
247 ,45.9077 ,1.05304 ,1.55124 ,15.22081 
248 ,46.0839 ,1.05485 ,1.53756 ,15.08650 
249 ,46.2599 ,1.05658 ,1.52045 ,14.91861 
250 ,46.4357 ,1.05836 ,1.49991 ,14.71714 
251 ,46.6122 ,1.06014 ,1.48622 ,14.58283 
252 ,46.8201 ,1.06212 ,1.46227 ,14.34778 
253 ,46.9965 ,1.06397 ,1.44858 ,14.21346 
254 ,47.1724 ,1.06572 ,1.43147 ,14.04557 
255 ,47.3644 ,1.06762 ,1.44516 ,14.17989 
256 ,47.5401 ,1.06941 ,1.43489 ,14.07915 
257 ,47.7163 ,1.07120 ,1.41094 ,13.84410 
258 ,47.9247 ,1.07317 ,1.40409 ,13.77695 
259 ,48.1005 ,1.07501 ,1.38698 ,13.60906 
260 ,48.2928 ,1.07684 ,1.36303 ,13.37401 
261 ,48.4689 ,1.07865 ,1.34934 ,13.23969 
262 ,48.6448 ,1.08043 ,1.33565 ,13.10538 
263 ,48.8211 ,1.08219 ,1.32880 ,13.03822 
264 ,49.0130 ,1.08414 ,1.29116 ,12.66886 
265 ,49.1891 ,1.08586 ,1.30143 ,12.76960 
266 ,49.3652 ,1.08766 ,1.30485 ,12.80318 
267 ,49.5413 ,1.08946 ,1.28774 ,12.63528 
268 ,49.7172 ,1.09129 ,1.24667 ,12.23235 
269 ,49.9092 ,1.09296 ,1.23641 ,12.13161 
270 ,50.0854 ,1.09489 ,1.23983 ,12.16519 
271 ,50.2617 ,1.09662 ,1.22614 ,12.03088 
272 ,50.4374 ,1.09843 ,1.19192 ,11.69509 
273 ,50.6138 ,1.10016 ,1.18507 ,11.62794 
274 ,50.7898 ,1.10191 ,1.17138 ,11.49362 
275 ,50.9659 ,1.10363 ,1.17823 ,11.56078 
276 ,51.1577 ,1.10548 ,1.14743 ,11.25857 
277 ,51.3342 ,1.10732 ,1.13032 ,11.09068 
278 ,51.5262 ,1.10924 ,1.12347 ,11.02353 
279 ,51.7182 ,1.11112 ,1.09267 ,10.72132 
280 ,51.8943 ,1.11300 ,1.10979 ,10.88921 
281 ,52.0864 ,1.11488 ,1.09267 ,10.72132 
282 ,52.2624 ,1.11662 ,1.08241 ,10.62059 
283 ,52.4545 ,1.11844 ,1.06530 ,10.45270 
284 ,52.6304 ,1.12031 ,1.03792 ,10.18407 
285 ,52.8222 ,1.12220 ,1.03450 ,10.15049 
286 ,52.9986 ,1.12397 ,1.03108 ,10.11691 
287 ,53.1909 ,1.12586 ,1.00370 ,9.84829 
288 ,53.3669 ,1.12770 ,0.99685 ,9.78113 
289 ,53.5589 ,1.12949 ,0.96948 ,9.51250 
290 ,53.7521 ,1.13147 ,0.96605 ,9.47892 
291 ,53.9427 ,1.13342 ,0.96948 ,9.51250 
292 ,54.1189 ,1.13522 ,0.94210 ,9.24388 
293 ,54.2947 ,1.13702 ,0.93183 ,9.14314 
294 ,54.4708 ,1.13870 ,0.91130 ,8.94167 
295 ,54.6631 ,1.14052 ,0.91130 ,8.94167 
296 ,54.8715 ,1.14274 ,0.87708 ,8.60589 
297 ,55.0633 ,1.14462 ,0.88392 ,8.67305 
298 ,55.2393 ,1.14635 ,0.87023 ,8.53873 
299 ,55.4315 ,1.14831 ,0.86339 ,8.47158 
300 ,55.6076 ,1.15007 ,0.85312 ,8.37084 
301 ,55.7839 ,1.15182 ,0.83943 ,8.23653 
302 ,55.9599 ,1.15360 ,0.80863 ,7.93432 
303 ,56.1520 ,1.15548 ,0.80863 ,7.93432 
304 ,56.3280 ,1.15721 ,0.80179 ,7.86717 
305 ,56.5042 ,1.15900 ,0.79837 ,7.83359 
306 ,56.6964 ,1.16093 ,0.76757 ,7.53138 
307 ,56.8564 ,1.16266 ,0.77099 ,7.56496 
308 ,57.0321 ,1.16434 ,0.74019 ,7.26276 
309 ,57.2245 ,1.16618 ,0.73677 ,7.22918 
310 ,57.4006 ,1.16800 ,0.73335 ,7.19560 
311 ,57.5928 ,1.16981 ,0.71966 ,7.06129 
312 ,57.7682 ,1.17166 ,0.71966 ,7.06129 
313 ,57.9447 ,1.17338 ,0.70939 ,6.96055 
314 ,58.1205 ,1.17518 ,0.69570 ,6.82624 
315 ,58.2969 ,1.17705 ,0.68544 ,6.72550 
316 ,58.4889 ,1.17881 ,0.66490 ,6.52403 
317 ,58.6648 ,1.18061 ,0.65806 ,6.45688 
318 ,58.8572 ,1.18249 ,0.62726 ,6.15467 
319 ,59.0333 ,1.18431 ,0.63068 ,6.18825 
320 ,59.2091 ,1.18600 ,0.62042 ,6.08752 
321 ,59.4175 ,1.18805 ,0.59646 ,5.85247 
322 ,59.6095 ,1.19007 ,0.59988 ,5.88605 
323 ,59.7851 ,1.19186 ,0.56908 ,5.58384 
324 ,59.9616 ,1.19358 ,0.57935 ,5.68458 
325 ,60.1377 ,1.19544 ,0.55539 ,5.44953 
326 ,60.3137 ,1.19711 ,0.55539 ,5.44953 
327 ,60.5058 ,1.19893 ,0.54855 ,5.38237 
328 ,60.7138 ,1.20101 ,0.53144 ,5.21448 
329 ,60.9060 ,1.20296 ,0.50748 ,4.97943 
330 ,61.0981 ,1.20489 ,0.48695 ,4.77796 
331 ,61.2900 ,1.20680 ,0.49722 ,4.87870 
332 ,61.4662 ,1.20858 ,0.48695 ,4.77796 
333 ,61.6425 ,1.21037 ,0.47326 ,4.64365 
334 ,61.8339 ,1.21226 ,0.45273 ,4.44218 
335 ,62.0266 ,1.21423 ,0.43562 ,4.27429 
336 ,62.2025 ,1.21598 ,0.42535 ,4.17355 
337 ,62.3784 ,1.21772 ,0.41166 ,4.03924 
338 ,62.5546 ,1.21948 ,0.40482 ,3.97208 
339 ,62.7307 ,1.22124 ,0.40482 ,3.97208 
340 ,62.9228 ,1.22312 ,0.39455 ,3.87135 
341 ,63.1306 ,1.22521 ,0.37402 ,3.66988 
342 ,63.3070 ,1.22701 ,0.35349 ,3.46841 
343 ,63.4990 ,1.22889 ,0.32611 ,3.19978 
344 ,63.6909 ,1.23083 ,0.32953 ,3.23336 
345 ,63.8673 ,1.23264 ,0.32269 ,3.16620 
346 ,64.0753 ,1.23467 ,0.29531 ,2.89758 
347 ,64.2512 ,1.23643 ,0.29531 ,2.89758 
348 ,64.4274 ,1.23821 ,0.28847 ,2.83042 
349 ,64.6035 ,1.23999 ,0.26451 ,2.59537 
350 ,64.7795 ,1.24176 ,0.25767 ,2.52822 
351 ,64.9717 ,1.24363 ,0.26109 ,2.56179 
352 ,65.1637 ,1.24548 ,0.22344 ,2.19243 
353 ,65.3394 ,1.24730 ,0.22344 ,2.19243 
354 ,65.5159 ,1.24913 ,0.21660 ,2.12528 
355 ,65.7237 ,1.25108 ,0.19607 ,1.92381 
356 ,65.9160 ,1.25299 ,0.18922 ,1.85665 
357 ,66.1242 ,1.25513 ,0.16869 ,1.65518 
358 ,66.3163 ,1.25705 ,0.16185 ,1.58802 
359 ,66.5081 ,1.25901 ,0.17211 ,1.68876 
360 ,66.6844 ,1.26077 ,0.15158 ,1.48729 
361 ,66.8605 ,1.26255 ,0.13105 ,1.28582 
362 ,67.0684 ,1.26452 ,0.13447 ,1.31940 
363 ,67.2446 ,1.26640 ,0.11051 ,1.08435 
364 ,67.4368 ,1.26832 ,0.10025 ,0.98361 
365 ,67.6126 ,1.27009 ,0.08998 ,0.88288 
366 ,67.8045 ,1.27198 ,0.07971 ,0.78214 
367 ,67.9809 ,1.27373 ,0.05918 ,0.58067 
368 ,68.1728 ,1.27565 ,0.07629 ,0.74857 
369 ,68.3811 ,1.27761 ,0.03522 ,0.34563 
370 ,68.5730 ,1.27969 ,0.04891 ,0.47994 
371 ,68.7652 ,1.28160 ,0.02154 ,0.21131 
372 ,68.9570 ,1.28344 ,0.01469 ,0.14416 
373 ,69.1335 ,1.28526 ,0.01811 ,0.17773 
374 ,69.3252 ,1.28711 ,0.00100 ,0.00984 
375 ,69.5173 ,1.28908 ,-0.01611 ,-0.15805 
376 ,69.6937 ,1.29087 ,-0.01611 ,-0.15805 
377 ,69.8857 ,1.29284 ,-0.04691 ,-0.46025 
378 ,70.0619 ,1.29451 ,-0.05717 ,-0.56099 
379 ,70.2379 ,1.29628 ,-0.06060 ,-0.59457 
380 ,70.4139 ,1.29808 ,-0.06402 ,-0.62814 
381 ,70.6057 ,1.29997 ,-0.07086 ,-0.69530 
382 ,70.7979 ,1.30189 ,-0.08797 ,-0.86319 
383 ,70.9900 ,1.30378 ,-0.09482 ,-0.93035 
384 ,71.1981 ,1.30580 ,-0.08455 ,-0.82961 
385 ,71.3741 ,1.30766 ,-0.09482 ,-0.93035 
386 ,71.5503 ,1.30938 ,-0.11193 ,-1.09824 
387 ,71.7265 ,1.31116 ,-0.12219 ,-1.19898 
388 ,71.9025 ,1.31295 ,-0.14615 ,-1.43402 
389 ,72.0947 ,1.31480 ,-0.13246 ,-1.29971 
390 ,72.2866 ,1.31670 ,-0.16326 ,-1.60191 
391 ,72.4783 ,1.31868 ,-0.14615 ,-1.43402 
392 ,72.6549 ,1.32047 ,-0.15299 ,-1.50118 
393 ,72.8310 ,1.32224 ,-0.17353 ,-1.70265 
394 ,73.0069 ,1.32396 ,-0.18379 ,-1.80338 
395 ,73.1830 ,1.32578 ,-0.21459 ,-2.10559 
396 ,73.3750 ,1.32763 ,-0.18037 ,-1.76981 
397 ,73.5672 ,1.32957 ,-0.22486 ,-2.20632 
398 ,73.7752 ,1.33159 ,-0.22144 ,-2.17275 
399 ,73.9353 ,1.33334 ,-0.22828 ,-2.23990 
400 ,74.1275 ,1.33508 ,-0.23513 ,-2.30706 
401 ,74.3193 ,1.33716 ,-0.25224 ,-2.47495 
402 ,74.4958 ,1.33885 ,-0.26935 ,-2.64284 
403 ,74.7036 ,1.34089 ,-0.27961 ,-2.74358 
404 ,74.8959 ,1.34282 ,-0.28988 ,-2.84431 
405 ,75.1036 ,1.34480 ,-0.31041 ,-3.04578 
406 ,75.2798 ,1.34667 ,-0.31384 ,-3.07936 
407 ,75.4877 ,1.34873 ,-0.33095 ,-3.24725 
408 ,75.6962 ,1.35083 ,-0.31384 ,-3.07936 
409 ,75.8721 ,1.35264 ,-0.33095 ,-3.24725 
410 ,76.0478 ,1.35435 ,-0.34464 ,-3.38156 
411 ,76.2242 ,1.35610 ,-0.36859 ,-3.61661 
412 ,76.4000 ,1.35786 ,-0.36517 ,-3.58303 
413 ,76.5924 ,1.35980 ,-0.36859 ,-3.61661 
414 ,76.7683 ,1.36158 ,-0.39597 ,-3.88524 
415 ,76.9445 ,1.36335 ,-0.40281 ,-3.95240 
416 ,77.1207 ,1.36509 ,-0.39597 ,-3.88524 
417 ,77.3125 ,1.36703 ,-0.41308 ,-4.05313 
418 ,77.5044 ,1.36888 ,-0.41308 ,-4.05313 
419 ,77.6809 ,1.37071 ,-0.43361 ,-4.25460 
420 ,77.9049 ,1.37281 ,-0.44730 ,-4.38891 
421 ,78.0810 ,1.37472 ,-0.46783 ,-4.59038 
422 ,78.2570 ,1.37644 ,-0.44730 ,-4.38891 
423 ,78.4332 ,1.37824 ,-0.45757 ,-4.48965 
424 ,78.6252 ,1.38006 ,-0.48152 ,-4.72470 
425 ,78.7851 ,1.38188 ,-0.48494 ,-4.75828 
426 ,78.9614 ,1.38347 ,-0.49521 ,-4.85901 
427 ,79.1535 ,1.38535 ,-0.50548 ,-4.95975 
428 ,79.3451 ,1.38729 ,-0.52259 ,-5.12764 
429 ,79.5216 ,1.38908 ,-0.52601 ,-5.16121 
430 ,79.6976 ,1.39081 ,-0.52259 ,-5.12764 
431 ,79.8897 ,1.39275 ,-0.54654 ,-5.36268 
432 ,80.0656 ,1.39453 ,-0.55681 ,-5.46342 
433 ,80.2418 ,1.39631 ,-0.55339 ,-5.42984 
434 ,80.4179 ,1.39803 ,-0.56708 ,-5.56415 
435 ,80.6101 ,1.39988 ,-0.57734 ,-5.66489 
436 ,80.8178 ,1.40202 ,-0.57734 ,-5.66489 
437 ,81.0102 ,1.40390 ,-0.60814 ,-5.96709 
438 ,81.2181 ,1.40605 ,-0.60130 ,-5.89994 
439 ,81.4105 ,1.40793 ,-0.62525 ,-6.13499 
440 ,81.5861 ,1.40978 ,-0.60472 ,-5.93352 
441 ,81.7461 ,1.41144 ,-0.63894 ,-6.26930 
442 ,81.9062 ,1.41306 ,-0.63894 ,-6.26930 
443 ,82.0825 ,1.41472 ,-0.64921 ,-6.37003 
444 ,82.2747 ,1.41664 ,-0.64236 ,-6.30288 
445 ,82.4667 ,1.41849 ,-0.66974 ,-6.57150 
446 ,82.6589 ,1.42048 ,-0.66290 ,-6.50435 
447 ,82.8346 ,1.42227 ,-0.68343 ,-6.70582 
448 ,83.0113 ,1.42394 ,-0.69027 ,-6.77297 
449 ,83.2031 ,1.42585 ,-0.68343 ,-6.70582 
450 ,83.3954 ,1.42776 ,-0.71081 ,-6.97444 
451 ,83.5872 ,1.42966 ,-0.71765 ,-7.04160 
452 ,83.7634 ,1.43151 ,-0.72450 ,-7.10876 
453 ,84.0033 ,1.43374 ,-0.74161 ,-7.27665 
454 ,84.1958 ,1.43579 ,-0.73476 ,-7.20949 
455 ,84.3874 ,1.43767 ,-0.75530 ,-7.41096 
456 ,84.5797 ,1.43960 ,-0.75530 ,-7.41096 
457 ,84.7876 ,1.44162 ,-0.78610 ,-7.71317 
458 ,84.9633 ,1.44348 ,-0.77583 ,-7.61243 
459 ,85.1398 ,1.44523 ,-0.78267 ,-7.67959 
460 ,85.3320 ,1.44713 ,-0.79978 ,-7.84748 
461 ,85.5078 ,1.44897 ,-0.81005 ,-7.94821 
462 ,85.7000 ,1.45088 ,-0.80663 ,-7.91464 
463 ,85.8924 ,1.45279 ,-0.81689 ,-8.01537 
