Data stamp = , 19-04-2022 19:23:56 081

Calibration Values: 
Slope = , 26.54 , g/V 
Offset Voltage at no contact = , -0.501760 , V 

No , Time , Stage Position ,   Mass , Force 
   ,  (s) ,      (mm)      ,   (g)  , (mN)  

1 ,0.0000 ,0.64949 ,5.00079 ,49.06774 
2 ,0.2116 ,0.64957 ,5.00421 ,49.10132 
3 ,0.5320 ,0.65045 ,5.00079 ,49.06774 
4 ,0.7400 ,0.65196 ,4.99052 ,48.96701 
5 ,0.9479 ,0.65371 ,5.01790 ,49.23563 
6 ,1.1395 ,0.65559 ,5.00079 ,49.06774 
7 ,1.3162 ,0.65737 ,5.00079 ,49.06774 
8 ,1.5082 ,0.65933 ,5.01106 ,49.16848 
9 ,1.6842 ,0.66115 ,4.97341 ,48.79911 
10 ,1.8604 ,0.66284 ,4.95288 ,48.59764 
11 ,2.0525 ,0.66478 ,4.96315 ,48.69838 
12 ,2.2445 ,0.66676 ,4.92892 ,48.36260 
13 ,2.4365 ,0.66857 ,4.90497 ,48.12755 
14 ,2.6127 ,0.67040 ,4.89470 ,48.02681 
15 ,2.7888 ,0.67212 ,4.87759 ,47.85892 
16 ,2.9810 ,0.67405 ,4.85706 ,47.65745 
17 ,3.1730 ,0.67601 ,4.85706 ,47.65745 
18 ,3.3329 ,0.67771 ,4.82968 ,47.38883 
19 ,3.5251 ,0.67944 ,4.80573 ,47.15378 
20 ,3.7011 ,0.68123 ,4.77835 ,46.88515 
21 ,3.8769 ,0.68303 ,4.75782 ,46.68368 
22 ,4.0530 ,0.68475 ,4.75439 ,46.65010 
23 ,4.3570 ,0.68721 ,4.73728 ,46.48221 
24 ,4.5496 ,0.68963 ,4.72359 ,46.34790 
25 ,4.7737 ,0.69186 ,4.69622 ,46.07927 
26 ,4.9656 ,0.69388 ,4.64488 ,45.57560 
27 ,5.1577 ,0.69584 ,4.63804 ,45.50844 
28 ,5.3499 ,0.69770 ,4.62777 ,45.40771 
29 ,5.5579 ,0.69971 ,4.60382 ,45.17266 
30 ,5.7501 ,0.70177 ,4.59697 ,45.10550 
31 ,5.9581 ,0.70380 ,4.57302 ,44.87045 
32 ,6.1661 ,0.70585 ,4.53537 ,44.50109 
33 ,6.3423 ,0.70767 ,4.52169 ,44.36678 
34 ,6.5182 ,0.70944 ,4.51484 ,44.29962 
35 ,6.7104 ,0.71135 ,4.48746 ,44.03100 
36 ,6.8865 ,0.71309 ,4.46351 ,43.79595 
37 ,7.0625 ,0.71489 ,4.45666 ,43.72879 
38 ,7.2707 ,0.71688 ,4.42586 ,43.42659 
39 ,7.4627 ,0.71888 ,4.41902 ,43.35943 
40 ,7.6227 ,0.72056 ,4.40875 ,43.25870 
41 ,7.7990 ,0.72222 ,4.39849 ,43.15796 
42 ,8.0067 ,0.72424 ,4.36427 ,42.82218 
43 ,8.1831 ,0.72608 ,4.36084 ,42.78860 
44 ,8.3588 ,0.72779 ,4.34031 ,42.58713 
45 ,8.5670 ,0.72987 ,4.30951 ,42.28492 
46 ,8.7430 ,0.73177 ,4.30609 ,42.25135 
47 ,8.9353 ,0.73359 ,4.30267 ,42.21777 
48 ,9.1112 ,0.73540 ,4.27871 ,41.98272 
49 ,9.2872 ,0.73714 ,4.26502 ,41.84841 
50 ,9.4636 ,0.73885 ,4.22396 ,41.44547 
51 ,9.6713 ,0.74090 ,4.20342 ,41.24400 
52 ,9.8637 ,0.74280 ,4.21711 ,41.37831 
53 ,10.0558 ,0.74481 ,4.19658 ,41.17684 
54 ,10.2319 ,0.74656 ,4.16920 ,40.90821 
55 ,10.4078 ,0.74828 ,4.13840 ,40.60601 
56 ,10.6000 ,0.75016 ,4.14867 ,40.70674 
57 ,10.7758 ,0.75198 ,4.12471 ,40.47170 
58 ,10.9679 ,0.75386 ,4.09734 ,40.20307 
59 ,11.1598 ,0.75587 ,4.08365 ,40.06876 
60 ,11.3363 ,0.75759 ,4.08023 ,40.03518 
61 ,11.5284 ,0.75942 ,4.05285 ,39.76655 
62 ,11.7042 ,0.76128 ,4.02205 ,39.46435 
63 ,11.8800 ,0.76312 ,4.02205 ,39.46435 
64 ,12.0566 ,0.76479 ,4.02205 ,39.46435 
65 ,12.2327 ,0.76657 ,3.98441 ,39.09499 
66 ,12.4244 ,0.76839 ,3.97414 ,38.99425 
67 ,12.6007 ,0.77025 ,3.95703 ,38.82636 
68 ,12.7931 ,0.77214 ,3.93307 ,38.59131 
69 ,12.9686 ,0.77395 ,3.92623 ,38.52415 
70 ,13.1451 ,0.77567 ,3.90227 ,38.28911 
71 ,13.3531 ,0.77768 ,3.87147 ,37.98690 
72 ,13.5613 ,0.77966 ,3.87832 ,38.05406 
73 ,13.7531 ,0.78183 ,3.85436 ,37.81901 
74 ,13.9294 ,0.78355 ,3.83041 ,37.58396 
75 ,14.1054 ,0.78532 ,3.83383 ,37.61754 
76 ,14.2978 ,0.78717 ,3.79961 ,37.28176 
77 ,14.4897 ,0.78906 ,3.78250 ,37.11387 
78 ,14.6977 ,0.79112 ,3.77223 ,37.01313 
79 ,14.8738 ,0.79291 ,3.74143 ,36.71093 
80 ,15.0497 ,0.79469 ,3.72090 ,36.50946 
81 ,15.2420 ,0.79661 ,3.72090 ,36.50946 
82 ,15.4337 ,0.79857 ,3.69352 ,36.24083 
83 ,15.6102 ,0.80033 ,3.67299 ,36.03936 
84 ,15.8022 ,0.80225 ,3.66957 ,36.00578 
85 ,15.9783 ,0.80403 ,3.66272 ,35.93863 
86 ,16.1699 ,0.80581 ,3.62166 ,35.53569 
87 ,16.3466 ,0.80766 ,3.62850 ,35.60284 
88 ,16.5223 ,0.80957 ,3.60454 ,35.36779 
89 ,16.6985 ,0.81119 ,3.58401 ,35.16632 
90 ,16.8745 ,0.81295 ,3.57032 ,35.03201 
91 ,17.0506 ,0.81472 ,3.54979 ,34.83054 
92 ,17.2264 ,0.81646 ,3.53952 ,34.72981 
93 ,17.4188 ,0.81834 ,3.52241 ,34.56192 
94 ,17.6105 ,0.82023 ,3.50872 ,34.42760 
95 ,17.8029 ,0.82219 ,3.49161 ,34.25971 
96 ,17.9949 ,0.82415 ,3.47108 ,34.05824 
97 ,18.1711 ,0.82594 ,3.45397 ,33.89035 
98 ,18.3467 ,0.82772 ,3.45055 ,33.85677 
99 ,18.5392 ,0.82955 ,3.43001 ,33.65530 
100 ,18.7312 ,0.83149 ,3.41290 ,33.48741 
101 ,18.9071 ,0.83321 ,3.40264 ,33.38667 
102 ,19.0834 ,0.83503 ,3.38553 ,33.21878 
103 ,19.2594 ,0.83681 ,3.36842 ,33.05089 
104 ,19.4351 ,0.83855 ,3.34446 ,32.81584 
105 ,19.6275 ,0.84040 ,3.33762 ,32.74869 
106 ,19.8037 ,0.84232 ,3.31366 ,32.51364 
107 ,19.9960 ,0.84411 ,3.28971 ,32.27859 
108 ,20.2039 ,0.84617 ,3.28971 ,32.27859 
109 ,20.3798 ,0.84795 ,3.28286 ,32.21143 
110 ,20.5560 ,0.84973 ,3.24180 ,31.80849 
111 ,20.7323 ,0.85153 ,3.22811 ,31.67418 
112 ,20.9081 ,0.85328 ,3.21442 ,31.53987 
113 ,21.1001 ,0.85524 ,3.21442 ,31.53987 
114 ,21.2761 ,0.85696 ,3.19046 ,31.30482 
115 ,21.4683 ,0.85879 ,3.17677 ,31.17051 
116 ,21.6444 ,0.86072 ,3.14940 ,30.90188 
117 ,21.8206 ,0.86242 ,3.14940 ,30.90188 
118 ,22.0126 ,0.86430 ,3.12886 ,30.70041 
119 ,22.1887 ,0.86609 ,3.10833 ,30.49894 
120 ,22.4128 ,0.86815 ,3.08780 ,30.29747 
121 ,22.6048 ,0.87023 ,3.08780 ,30.29747 
122 ,22.7809 ,0.87197 ,3.06384 ,30.06242 
123 ,22.9730 ,0.87389 ,3.03647 ,29.79380 
124 ,23.1811 ,0.87593 ,3.02620 ,29.69306 
125 ,23.3892 ,0.87802 ,3.01593 ,29.59233 
126 ,23.5813 ,0.88000 ,2.99540 ,29.39086 
127 ,23.7568 ,0.88181 ,2.96802 ,29.12223 
128 ,23.9334 ,0.88350 ,2.95091 ,28.95434 
129 ,24.1254 ,0.88542 ,2.94407 ,28.88718 
130 ,24.3171 ,0.88736 ,2.91669 ,28.61856 
131 ,24.4938 ,0.88912 ,2.89958 ,28.45066 
132 ,24.6697 ,0.89090 ,2.89616 ,28.41709 
133 ,24.8617 ,0.89275 ,2.88589 ,28.31635 
134 ,25.0377 ,0.89453 ,2.85167 ,27.98057 
135 ,25.2136 ,0.89628 ,2.84825 ,27.94699 
136 ,25.4061 ,0.89823 ,2.83456 ,27.81268 
137 ,25.6139 ,0.90027 ,2.80718 ,27.54405 
138 ,25.7903 ,0.90213 ,2.79691 ,27.44332 
139 ,25.9984 ,0.90408 ,2.77638 ,27.24185 
140 ,26.1903 ,0.90609 ,2.76954 ,27.17469 
141 ,26.3662 ,0.90780 ,2.75585 ,27.04038 
142 ,26.5425 ,0.90962 ,2.73531 ,26.83891 
143 ,26.7185 ,0.91135 ,2.71478 ,26.63744 
144 ,26.8946 ,0.91313 ,2.70109 ,26.50312 
145 ,27.1028 ,0.91511 ,2.68398 ,26.33523 
146 ,27.2948 ,0.91715 ,2.68398 ,26.33523 
147 ,27.4709 ,0.91884 ,2.67029 ,26.20092 
148 ,27.6468 ,0.92062 ,2.65660 ,26.06661 
149 ,27.8231 ,0.92241 ,2.62923 ,25.79798 
150 ,28.0147 ,0.92434 ,2.61896 ,25.69724 
151 ,28.1912 ,0.92609 ,2.60527 ,25.56293 
152 ,28.3675 ,0.92785 ,2.58816 ,25.39504 
153 ,28.5593 ,0.92972 ,2.56078 ,25.12641 
154 ,28.7354 ,0.93152 ,2.54710 ,24.99210 
155 ,28.9436 ,0.93343 ,2.54710 ,24.99210 
156 ,29.1353 ,0.93549 ,2.51972 ,24.72347 
157 ,29.3117 ,0.93728 ,2.51287 ,24.65632 
158 ,29.4878 ,0.93907 ,2.50261 ,24.55558 
159 ,29.6799 ,0.94088 ,2.47523 ,24.28696 
160 ,29.8559 ,0.94272 ,2.45127 ,24.05191 
161 ,30.0480 ,0.94464 ,2.46154 ,24.15264 
162 ,30.2721 ,0.94676 ,2.42390 ,23.78328 
163 ,30.4635 ,0.94884 ,2.41705 ,23.71612 
164 ,30.6397 ,0.95059 ,2.38625 ,23.41392 
165 ,30.8159 ,0.95229 ,2.38968 ,23.44750 
166 ,30.9920 ,0.95409 ,2.36914 ,23.24603 
167 ,31.1680 ,0.95585 ,2.35888 ,23.14529 
168 ,31.3604 ,0.95776 ,2.31781 ,22.74235 
169 ,31.5847 ,0.96002 ,2.32123 ,22.77593 
170 ,31.7764 ,0.96194 ,2.29385 ,22.50731 
171 ,31.9528 ,0.96369 ,2.29728 ,22.54088 
172 ,32.1609 ,0.96567 ,2.26306 ,22.20510 
173 ,32.3366 ,0.96753 ,2.25279 ,22.10437 
174 ,32.5291 ,0.96935 ,2.23910 ,21.97005 
175 ,32.7209 ,0.97129 ,2.22883 ,21.86932 
176 ,32.9132 ,0.97322 ,2.22541 ,21.83574 
177 ,33.1213 ,0.97528 ,2.18777 ,21.46638 
178 ,33.3133 ,0.97728 ,2.18092 ,21.39922 
179 ,33.4734 ,0.97897 ,2.17750 ,21.36564 
180 ,33.6494 ,0.98061 ,2.14670 ,21.06344 
181 ,33.8574 ,0.98263 ,2.15355 ,21.13059 
182 ,34.0336 ,0.98451 ,2.12275 ,20.82839 
183 ,34.2256 ,0.98634 ,2.09195 ,20.52619 
184 ,34.4338 ,0.98849 ,2.09195 ,20.52619 
185 ,34.6261 ,0.99037 ,2.05773 ,20.19040 
186 ,34.8019 ,0.99229 ,2.05430 ,20.15682 
187 ,34.9778 ,0.99388 ,2.03719 ,19.98893 
188 ,35.1859 ,0.99588 ,2.01324 ,19.75388 
189 ,35.3618 ,0.99781 ,1.98586 ,19.48526 
190 ,35.5537 ,0.99962 ,1.98586 ,19.48526 
191 ,35.7460 ,1.00150 ,1.96533 ,19.28379 
192 ,35.9383 ,1.00351 ,1.95506 ,19.18305 
193 ,36.1302 ,1.00545 ,1.94137 ,19.04874 
194 ,36.3225 ,1.00727 ,1.93453 ,18.98158 
195 ,36.5143 ,1.00921 ,1.92426 ,18.88085 
196 ,36.6906 ,1.01105 ,1.91399 ,18.78011 
197 ,36.8665 ,1.01275 ,1.88662 ,18.51149 
198 ,37.0586 ,1.01471 ,1.87293 ,18.37717 
199 ,37.2348 ,1.01647 ,1.86608 ,18.31002 
200 ,37.4429 ,1.01850 ,1.83528 ,18.00781 
201 ,37.6030 ,1.02030 ,1.82160 ,17.87350 
202 ,37.7629 ,1.02186 ,1.82160 ,17.87350 
203 ,37.9390 ,1.02347 ,1.80106 ,17.67203 
204 ,38.1152 ,1.02527 ,1.79764 ,17.63845 
205 ,38.3233 ,1.02729 ,1.77369 ,17.40340 
206 ,38.5154 ,1.02924 ,1.74289 ,17.10120 
207 ,38.7073 ,1.03115 ,1.73262 ,17.00046 
208 ,38.8836 ,1.03294 ,1.71551 ,16.83257 
209 ,39.0755 ,1.03488 ,1.71893 ,16.86615 
210 ,39.2676 ,1.03673 ,1.69498 ,16.63110 
211 ,39.4436 ,1.03855 ,1.68129 ,16.49679 
212 ,39.6517 ,1.04053 ,1.68129 ,16.49679 
213 ,39.8593 ,1.04266 ,1.64364 ,16.12743 
214 ,40.0361 ,1.04450 ,1.64364 ,16.12743 
215 ,40.2120 ,1.04625 ,1.62653 ,15.95954 
216 ,40.4041 ,1.04811 ,1.60600 ,15.75807 
217 ,40.5801 ,1.04995 ,1.59231 ,15.62375 
218 ,40.7559 ,1.05177 ,1.56493 ,15.35513 
219 ,40.9323 ,1.05343 ,1.56493 ,15.35513 
220 ,41.1403 ,1.05550 ,1.53756 ,15.08650 
221 ,41.3324 ,1.05744 ,1.52729 ,14.98577 
222 ,41.5243 ,1.05931 ,1.51360 ,14.85145 
223 ,41.7165 ,1.06126 ,1.51018 ,14.81787 
224 ,41.8926 ,1.06304 ,1.49307 ,14.64998 
225 ,42.1009 ,1.06505 ,1.46911 ,14.41493 
226 ,42.3085 ,1.06712 ,1.44858 ,14.21346 
227 ,42.4850 ,1.06896 ,1.43831 ,14.11273 
228 ,42.6770 ,1.07090 ,1.44516 ,14.17989 
229 ,42.8692 ,1.07272 ,1.41778 ,13.91126 
230 ,43.0610 ,1.07473 ,1.41436 ,13.87768 
231 ,43.2372 ,1.07648 ,1.41094 ,13.84410 
232 ,43.4133 ,1.07826 ,1.36987 ,13.44116 
233 ,43.5893 ,1.08005 ,1.35960 ,13.34043 
234 ,43.7493 ,1.08171 ,1.34591 ,13.20612 
235 ,43.9574 ,1.08356 ,1.33223 ,13.07180 
236 ,44.1653 ,1.08569 ,1.31512 ,12.90391 
237 ,44.3737 ,1.08782 ,1.30485 ,12.80318 
238 ,44.5818 ,1.08983 ,1.29800 ,12.73602 
239 ,44.7577 ,1.09172 ,1.29458 ,12.70244 
240 ,44.9498 ,1.09355 ,1.26036 ,12.36666 
241 ,45.1416 ,1.09543 ,1.27063 ,12.46739 
242 ,45.3501 ,1.09748 ,1.22956 ,12.06445 
243 ,45.5422 ,1.09951 ,1.23298 ,12.09803 
244 ,45.7501 ,1.10148 ,1.21245 ,11.89656 
245 ,45.9424 ,1.10356 ,1.20903 ,11.86298 
246 ,46.1343 ,1.10547 ,1.18507 ,11.62794 
247 ,46.3104 ,1.10714 ,1.16454 ,11.42647 
248 ,46.5025 ,1.10898 ,1.16112 ,11.39289 
249 ,46.6786 ,1.11085 ,1.14401 ,11.22500 
250 ,46.8707 ,1.11270 ,1.12005 ,10.98995 
251 ,47.0469 ,1.11458 ,1.10979 ,10.88921 
252 ,47.2387 ,1.11639 ,1.13032 ,11.09068 
253 ,47.4309 ,1.11831 ,1.09267 ,10.72132 
254 ,47.6230 ,1.12031 ,1.08241 ,10.62059 
255 ,47.8146 ,1.12216 ,1.04476 ,10.25123 
256 ,48.0068 ,1.12407 ,1.04476 ,10.25123 
257 ,48.2152 ,1.12618 ,1.04134 ,10.21765 
258 ,48.3912 ,1.12800 ,1.02081 ,10.01618 
259 ,48.5673 ,1.12977 ,1.01054 ,9.91544 
260 ,48.7433 ,1.13165 ,0.99685 ,9.78113 
261 ,48.9355 ,1.13341 ,0.97974 ,9.61324 
262 ,49.1116 ,1.13522 ,0.96948 ,9.51250 
263 ,49.3036 ,1.13707 ,0.96263 ,9.44535 
264 ,49.4797 ,1.13888 ,0.94210 ,9.24388 
265 ,49.6717 ,1.14077 ,0.92841 ,9.10956 
266 ,49.8479 ,1.14255 ,0.92499 ,9.07598 
267 ,50.0397 ,1.14452 ,0.91472 ,8.97525 
268 ,50.2321 ,1.14632 ,0.89419 ,8.77378 
269 ,50.4239 ,1.14834 ,0.89419 ,8.77378 
270 ,50.6163 ,1.15020 ,0.86339 ,8.47158 
271 ,50.8079 ,1.15218 ,0.85997 ,8.43800 
272 ,51.0005 ,1.15396 ,0.85997 ,8.43800 
273 ,51.1922 ,1.15591 ,0.83601 ,8.20295 
274 ,51.3685 ,1.15781 ,0.81890 ,8.03506 
275 ,51.5600 ,1.15973 ,0.80179 ,7.86717 
276 ,51.7362 ,1.16145 ,0.79495 ,7.80001 
277 ,51.9127 ,1.16320 ,0.79152 ,7.76643 
278 ,52.1048 ,1.16508 ,0.77441 ,7.59854 
279 ,52.2965 ,1.16693 ,0.76072 ,7.46423 
280 ,52.4890 ,1.16897 ,0.76415 ,7.49780 
281 ,52.6650 ,1.17078 ,0.72650 ,7.12844 
282 ,52.8410 ,1.17244 ,0.72992 ,7.16202 
283 ,53.0169 ,1.17422 ,0.70939 ,6.96055 
284 ,53.2092 ,1.17612 ,0.71966 ,7.06129 
285 ,53.4014 ,1.17807 ,0.69228 ,6.79266 
286 ,53.5933 ,1.17992 ,0.67859 ,6.65835 
287 ,53.7695 ,1.18173 ,0.66490 ,6.52403 
288 ,53.9616 ,1.18370 ,0.65121 ,6.38972 
289 ,54.1375 ,1.18547 ,0.63068 ,6.18825 
290 ,54.3131 ,1.18719 ,0.62384 ,6.12109 
291 ,54.4892 ,1.18897 ,0.62726 ,6.15467 
292 ,54.6654 ,1.19069 ,0.61699 ,6.05394 
293 ,54.8416 ,1.19251 ,0.59988 ,5.88605 
294 ,55.0338 ,1.19438 ,0.59988 ,5.88605 
295 ,55.2101 ,1.19619 ,0.58619 ,5.75173 
296 ,55.3701 ,1.19786 ,0.56908 ,5.58384 
297 ,55.5620 ,1.19966 ,0.53828 ,5.28164 
298 ,55.7543 ,1.20152 ,0.53486 ,5.24806 
299 ,55.9303 ,1.20334 ,0.53144 ,5.21448 
300 ,56.1225 ,1.20533 ,0.52802 ,5.18090 
301 ,56.3305 ,1.20725 ,0.51775 ,5.08017 
302 ,56.5066 ,1.20912 ,0.51091 ,5.01301 
303 ,56.6828 ,1.21088 ,0.47326 ,4.64365 
304 ,56.8743 ,1.21280 ,0.47668 ,4.67723 
305 ,57.0508 ,1.21460 ,0.47326 ,4.64365 
306 ,57.2429 ,1.21635 ,0.45615 ,4.47576 
307 ,57.4189 ,1.21825 ,0.43220 ,4.24071 
308 ,57.5952 ,1.22002 ,0.43904 ,4.30787 
309 ,57.7871 ,1.22188 ,0.40824 ,4.00566 
310 ,57.9627 ,1.22369 ,0.40482 ,3.97208 
311 ,58.1389 ,1.22548 ,0.38771 ,3.80419 
312 ,58.3313 ,1.22735 ,0.39797 ,3.90493 
313 ,58.5071 ,1.22911 ,0.38429 ,3.77061 
314 ,58.6996 ,1.23101 ,0.35006 ,3.43483 
315 ,58.8755 ,1.23280 ,0.35349 ,3.46841 
316 ,59.0672 ,1.23467 ,0.34664 ,3.40125 
317 ,59.2437 ,1.23647 ,0.33295 ,3.26694 
318 ,59.4357 ,1.23841 ,0.32611 ,3.19978 
319 ,59.6114 ,1.24018 ,0.32269 ,3.16620 
320 ,59.7878 ,1.24195 ,0.29873 ,2.93116 
321 ,59.9639 ,1.24366 ,0.28847 ,2.83042 
322 ,60.1559 ,1.24548 ,0.28162 ,2.76326 
323 ,60.3481 ,1.24743 ,0.26793 ,2.62895 
324 ,60.5402 ,1.24936 ,0.25082 ,2.46106 
325 ,60.7163 ,1.25121 ,0.25767 ,2.52822 
326 ,60.9243 ,1.25325 ,0.22344 ,2.19243 
327 ,61.1163 ,1.25516 ,0.21660 ,2.12528 
328 ,61.3245 ,1.25711 ,0.20976 ,2.05812 
329 ,61.5010 ,1.25908 ,0.18580 ,1.82307 
330 ,61.6929 ,1.26099 ,0.21318 ,2.09170 
331 ,61.8688 ,1.26272 ,0.17896 ,1.75592 
332 ,62.0450 ,1.26447 ,0.16527 ,1.62160 
333 ,62.2525 ,1.26648 ,0.16185 ,1.58802 
334 ,62.4288 ,1.26838 ,0.15158 ,1.48729 
335 ,62.6211 ,1.27025 ,0.12078 ,1.18508 
336 ,62.7973 ,1.27199 ,0.13447 ,1.31940 
337 ,62.9733 ,1.27374 ,0.13447 ,1.31940 
338 ,63.1652 ,1.27562 ,0.09682 ,0.95004 
339 ,63.3410 ,1.27746 ,0.08314 ,0.81572 
340 ,63.5173 ,1.27919 ,0.07629 ,0.74857 
341 ,63.6933 ,1.28102 ,0.08314 ,0.81572 
342 ,63.8692 ,1.28271 ,0.06260 ,0.61425 
343 ,64.0453 ,1.28444 ,0.05234 ,0.51352 
344 ,64.2215 ,1.28621 ,0.04207 ,0.41278 
345 ,64.3975 ,1.28795 ,0.02838 ,0.27847 
346 ,64.5900 ,1.28992 ,0.02838 ,0.27847 
347 ,64.7820 ,1.29185 ,-0.00242 ,-0.02373 
348 ,64.9741 ,1.29367 ,0.01127 ,0.11058 
349 ,65.1822 ,1.29575 ,-0.01611 ,-0.15805 
350 ,65.3742 ,1.29766 ,-0.02637 ,-0.25878 
351 ,65.5662 ,1.29962 ,-0.04348 ,-0.42667 
352 ,65.7425 ,1.30150 ,-0.06060 ,-0.59457 
353 ,65.9344 ,1.30335 ,-0.05717 ,-0.56099 
354 ,66.1265 ,1.30537 ,-0.07428 ,-0.72888 
355 ,66.3026 ,1.30705 ,-0.08113 ,-0.79604 
356 ,66.4788 ,1.30883 ,-0.08455 ,-0.82961 
357 ,66.6709 ,1.31074 ,-0.08797 ,-0.86319 
358 ,66.8469 ,1.31249 ,-0.11193 ,-1.09824 
359 ,67.0391 ,1.31435 ,-0.11193 ,-1.09824 
360 ,67.2311 ,1.31620 ,-0.12904 ,-1.26613 
361 ,67.4231 ,1.31820 ,-0.13588 ,-1.33329 
362 ,67.5989 ,1.32004 ,-0.14957 ,-1.46760 
363 ,67.7752 ,1.32174 ,-0.15299 ,-1.50118 
364 ,67.9672 ,1.32366 ,-0.17011 ,-1.66907 
365 ,68.1434 ,1.32546 ,-0.19064 ,-1.87054 
366 ,68.3354 ,1.32734 ,-0.17695 ,-1.73623 
367 ,68.5115 ,1.32913 ,-0.20090 ,-1.97128 
368 ,68.7033 ,1.33103 ,-0.20775 ,-2.03843 
369 ,68.8794 ,1.33282 ,-0.21117 ,-2.07201 
370 ,69.0718 ,1.33461 ,-0.20775 ,-2.03843 
371 ,69.2799 ,1.33664 ,-0.22828 ,-2.23990 
372 ,69.4716 ,1.33866 ,-0.24881 ,-2.44137 
373 ,69.6640 ,1.34054 ,-0.25224 ,-2.47495 
374 ,69.8235 ,1.34239 ,-0.26250 ,-2.57569 
375 ,70.0004 ,1.34403 ,-0.26250 ,-2.57569 
376 ,70.1923 ,1.34586 ,-0.27619 ,-2.71000 
377 ,70.3682 ,1.34766 ,-0.28304 ,-2.77716 
378 ,70.5603 ,1.34952 ,-0.27961 ,-2.74358 
379 ,70.7364 ,1.35134 ,-0.27961 ,-2.74358 
380 ,70.8961 ,1.35308 ,-0.28988 ,-2.84431 
381 ,71.0726 ,1.35471 ,-0.30357 ,-2.97863 
382 ,71.2642 ,1.35659 ,-0.31726 ,-3.11294 
383 ,71.4406 ,1.35843 ,-0.31726 ,-3.11294 
384 ,71.6166 ,1.36019 ,-0.31726 ,-3.11294 
385 ,71.8088 ,1.36203 ,-0.34121 ,-3.34799 
386 ,71.9849 ,1.36384 ,-0.35832 ,-3.51588 
387 ,72.1771 ,1.36574 ,-0.34464 ,-3.38156 
388 ,72.3691 ,1.36764 ,-0.37544 ,-3.68377 
389 ,72.5452 ,1.36945 ,-0.38912 ,-3.81808 
390 ,72.7212 ,1.37120 ,-0.38570 ,-3.78450 
391 ,72.8969 ,1.37294 ,-0.39255 ,-3.85166 
392 ,73.0733 ,1.37469 ,-0.40966 ,-4.01955 
393 ,73.2654 ,1.37662 ,-0.42335 ,-4.15387 
394 ,73.4416 ,1.37840 ,-0.43019 ,-4.22102 
395 ,73.6172 ,1.38016 ,-0.42677 ,-4.18744 
396 ,73.7939 ,1.38192 ,-0.44730 ,-4.38891 
397 ,73.9858 ,1.38389 ,-0.43703 ,-4.28818 
398 ,74.1778 ,1.38571 ,-0.44730 ,-4.38891 
399 ,74.3699 ,1.38759 ,-0.48152 ,-4.72470 
400 ,74.5460 ,1.38943 ,-0.48837 ,-4.79185 
401 ,74.7376 ,1.39138 ,-0.47810 ,-4.69112 
402 ,74.9136 ,1.39312 ,-0.48837 ,-4.79185 
403 ,75.0899 ,1.39488 ,-0.51574 ,-5.06048 
404 ,75.2659 ,1.39663 ,-0.51917 ,-5.09406 
405 ,75.4424 ,1.39839 ,-0.52943 ,-5.19479 
406 ,75.6184 ,1.40020 ,-0.52259 ,-5.12764 
407 ,75.8105 ,1.40201 ,-0.56023 ,-5.49700 
408 ,75.9705 ,1.40379 ,-0.54997 ,-5.39626 
409 ,76.1623 ,1.40561 ,-0.55681 ,-5.46342 
410 ,76.3383 ,1.40742 ,-0.54997 ,-5.39626 
411 ,76.5149 ,1.40912 ,-0.57050 ,-5.59773 
412 ,76.7067 ,1.41097 ,-0.57734 ,-5.66489 
413 ,76.8829 ,1.41281 ,-0.60472 ,-5.93352 
414 ,77.0589 ,1.41459 ,-0.59103 ,-5.79920 
415 ,77.2508 ,1.41650 ,-0.61499 ,-6.03425 
416 ,77.4431 ,1.41835 ,-0.61499 ,-6.03425 
417 ,77.6353 ,1.42036 ,-0.64921 ,-6.37003 
418 ,77.8111 ,1.42211 ,-0.65263 ,-6.40361 
419 ,78.0036 ,1.42400 ,-0.64236 ,-6.30288 
420 ,78.1954 ,1.42587 ,-0.66632 ,-6.53793 
421 ,78.3710 ,1.42768 ,-0.67659 ,-6.63866 
422 ,78.5476 ,1.42944 ,-0.68001 ,-6.67224 
423 ,78.7397 ,1.43145 ,-0.69027 ,-6.77297 
424 ,78.9158 ,1.43313 ,-0.69027 ,-6.77297 
425 ,79.0921 ,1.43489 ,-0.71423 ,-7.00802 
426 ,79.2680 ,1.43668 ,-0.72792 ,-7.14233 
427 ,79.4437 ,1.43846 ,-0.72450 ,-7.10876 
428 ,79.6361 ,1.44031 ,-0.73134 ,-7.17591 
429 ,79.8122 ,1.44211 ,-0.73818 ,-7.24307 
430 ,80.0042 ,1.44388 ,-0.75530 ,-7.41096 
431 ,80.1965 ,1.44591 ,-0.75872 ,-7.44454 
432 ,80.3562 ,1.44766 ,-0.76556 ,-7.51170 
433 ,80.5639 ,1.44945 ,-0.76556 ,-7.51170 
434 ,80.7405 ,1.45135 ,-0.76898 ,-7.54527 
435 ,80.9326 ,1.45324 ,-0.78952 ,-7.74674 
436 ,81.1087 ,1.45503 ,-0.79978 ,-7.84748 
437 ,81.2847 ,1.45686 ,-0.78952 ,-7.74674 
438 ,81.4769 ,1.45863 ,-0.82032 ,-8.04895 
439 ,81.6529 ,1.46046 ,-0.83743 ,-8.21684 
440 ,81.8450 ,1.46244 ,-0.82032 ,-8.04895 
441 ,82.0368 ,1.46435 ,-0.83743 ,-8.21684 
442 ,82.2292 ,1.46614 ,-0.84085 ,-8.25042 
443 ,82.4052 ,1.46801 ,-0.85796 ,-8.41831 
444 ,82.5976 ,1.46990 ,-0.86481 ,-8.48547 
445 ,82.8053 ,1.47191 ,-0.86481 ,-8.48547 
446 ,83.0134 ,1.47400 ,-0.88876 ,-8.72051 
447 ,83.2054 ,1.47594 ,-0.88192 ,-8.65336 
448 ,83.3816 ,1.47773 ,-0.88534 ,-8.68694 
449 ,83.5577 ,1.47955 ,-0.89903 ,-8.82125 
450 ,83.7334 ,1.48131 ,-0.91614 ,-8.98914 
451 ,83.9099 ,1.48308 ,-0.92298 ,-9.05630 
452 ,84.1021 ,1.48500 ,-0.92298 ,-9.05630 
453 ,84.2940 ,1.48688 ,-0.94351 ,-9.25777 
454 ,84.4697 ,1.48860 ,-0.93325 ,-9.15703 
455 ,84.6461 ,1.49038 ,-0.94009 ,-9.22419 
456 ,84.8218 ,1.49226 ,-0.95720 ,-9.39208 
457 ,84.9985 ,1.49397 ,-0.95720 ,-9.39208 
458 ,85.1905 ,1.49589 ,-0.96405 ,-9.45924 
459 ,85.3664 ,1.49764 ,-0.97431 ,-9.55997 
460 ,85.5423 ,1.49936 ,-0.96405 ,-9.45924 
461 ,85.7186 ,1.50111 ,-0.99827 ,-9.79502 
462 ,85.9262 ,1.50310 ,-0.98116 ,-9.62713 
