Data stamp = , 19-04-2022 15:59:36 504

Calibration Values: 
Slope = , 26.54 , g/V 
Offset Voltage at no contact = , -0.501760 , V 

No , Time , Stage Position ,   Mass , Force 
   ,  (s) ,      (mm)      ,   (g)  , (mN)  

1 ,0.0000 ,0.64943 ,5.01106 ,49.16848 
2 ,0.2045 ,0.64950 ,4.98710 ,48.93343 
3 ,0.7005 ,0.65092 ,5.01448 ,49.20205 
4 ,0.8926 ,0.65310 ,5.00421 ,49.10132 
5 ,1.1005 ,0.65510 ,4.98710 ,48.93343 
6 ,1.2768 ,0.65692 ,4.99052 ,48.96701 
7 ,1.4526 ,0.65874 ,4.98710 ,48.93343 
8 ,1.6452 ,0.66055 ,4.99052 ,48.96701 
9 ,1.8532 ,0.66265 ,4.98710 ,48.93343 
10 ,2.0453 ,0.66453 ,4.97683 ,48.83269 
11 ,2.2374 ,0.66647 ,4.98368 ,48.89985 
12 ,2.4134 ,0.66832 ,4.97341 ,48.79911 
13 ,2.5894 ,0.67011 ,4.95288 ,48.59764 
14 ,2.7814 ,0.67196 ,4.93235 ,48.39618 
15 ,2.9576 ,0.67376 ,4.92550 ,48.32902 
16 ,3.1496 ,0.67561 ,4.89128 ,47.99324 
17 ,3.3256 ,0.67746 ,4.88101 ,47.89250 
18 ,3.5015 ,0.67921 ,4.86390 ,47.72461 
19 ,3.6616 ,0.68090 ,4.86048 ,47.69103 
20 ,3.8540 ,0.68260 ,4.84337 ,47.52314 
21 ,4.0302 ,0.68445 ,4.81599 ,47.25451 
22 ,4.2220 ,0.68635 ,4.81599 ,47.25451 
23 ,4.3982 ,0.68817 ,4.79204 ,47.01946 
24 ,4.5903 ,0.69012 ,4.76466 ,46.75084 
25 ,4.7663 ,0.69179 ,4.74070 ,46.51579 
26 ,4.9584 ,0.69381 ,4.72702 ,46.38148 
27 ,5.1346 ,0.69552 ,4.72702 ,46.38148 
28 ,5.3106 ,0.69725 ,4.69964 ,46.11285 
29 ,5.5186 ,0.69926 ,4.68253 ,45.94496 
30 ,5.6947 ,0.70114 ,4.67226 ,45.84422 
31 ,5.8709 ,0.70294 ,4.63462 ,45.47486 
32 ,6.0628 ,0.70480 ,4.61751 ,45.30697 
33 ,6.2550 ,0.70665 ,4.61066 ,45.23981 
34 ,6.4472 ,0.70855 ,4.57644 ,44.90403 
35 ,6.6389 ,0.71046 ,4.55933 ,44.73614 
36 ,6.8467 ,0.71257 ,4.54906 ,44.63541 
37 ,7.0234 ,0.71444 ,4.52511 ,44.40036 
38 ,7.2155 ,0.71629 ,4.52853 ,44.43394 
39 ,7.3914 ,0.71804 ,4.49773 ,44.13173 
40 ,7.5837 ,0.71993 ,4.47720 ,43.93026 
41 ,7.7594 ,0.72178 ,4.47035 ,43.86310 
42 ,7.9356 ,0.72352 ,4.45324 ,43.69521 
43 ,8.1117 ,0.72524 ,4.42929 ,43.46016 
44 ,8.2877 ,0.72701 ,4.40533 ,43.22512 
45 ,8.4638 ,0.72879 ,4.39507 ,43.12438 
46 ,8.6401 ,0.73061 ,4.38822 ,43.05723 
47 ,8.8481 ,0.73254 ,4.37111 ,42.88933 
48 ,9.0242 ,0.73443 ,4.33004 ,42.48639 
49 ,9.2162 ,0.73633 ,4.32662 ,42.45282 
50 ,9.3922 ,0.73805 ,4.31636 ,42.35208 
51 ,9.5845 ,0.73999 ,4.29240 ,42.11703 
52 ,9.7766 ,0.74188 ,4.28213 ,42.01630 
53 ,9.9686 ,0.74385 ,4.25476 ,41.74767 
54 ,10.1607 ,0.74569 ,4.25133 ,41.71409 
55 ,10.3526 ,0.74760 ,4.21711 ,41.37831 
56 ,10.5288 ,0.74940 ,4.20000 ,41.21042 
57 ,10.7048 ,0.75117 ,4.19316 ,41.14326 
58 ,10.8808 ,0.75299 ,4.16578 ,40.87464 
59 ,11.0726 ,0.75481 ,4.16920 ,40.90821 
60 ,11.2490 ,0.75666 ,4.14183 ,40.63959 
61 ,11.4731 ,0.75872 ,4.12471 ,40.47170 
62 ,11.6653 ,0.76071 ,4.09734 ,40.20307 
63 ,11.8573 ,0.76264 ,4.08023 ,40.03518 
64 ,12.0651 ,0.76472 ,4.05285 ,39.76655 
65 ,12.2415 ,0.76651 ,4.04600 ,39.69940 
66 ,12.4175 ,0.76831 ,4.02889 ,39.53150 
67 ,12.5933 ,0.77003 ,4.02889 ,39.53150 
68 ,12.7697 ,0.77182 ,3.99467 ,39.19572 
69 ,12.9619 ,0.77369 ,3.98098 ,39.06141 
70 ,13.1379 ,0.77557 ,3.96729 ,38.92709 
71 ,13.2977 ,0.77723 ,3.95361 ,38.79278 
72 ,13.4738 ,0.77882 ,3.92965 ,38.55773 
73 ,13.6660 ,0.78075 ,3.90570 ,38.32268 
74 ,13.8581 ,0.78268 ,3.89885 ,38.25553 
75 ,14.0344 ,0.78451 ,3.90227 ,38.28911 
76 ,14.2262 ,0.78632 ,3.86463 ,37.91975 
77 ,14.4183 ,0.78823 ,3.85436 ,37.81901 
78 ,14.6263 ,0.79027 ,3.83041 ,37.58396 
79 ,14.8024 ,0.79214 ,3.81672 ,37.44965 
80 ,15.0105 ,0.79413 ,3.79619 ,37.24818 
81 ,15.2024 ,0.79610 ,3.77565 ,37.04671 
82 ,15.3784 ,0.79792 ,3.77565 ,37.04671 
83 ,15.5708 ,0.79978 ,3.73459 ,36.64377 
84 ,15.7628 ,0.80173 ,3.71748 ,36.47588 
85 ,15.9550 ,0.80364 ,3.71063 ,36.40872 
86 ,16.1471 ,0.80552 ,3.69694 ,36.27441 
87 ,16.3551 ,0.80759 ,3.66272 ,35.93863 
88 ,16.5631 ,0.80960 ,3.66272 ,35.93863 
89 ,16.7712 ,0.81173 ,3.62850 ,35.60284 
90 ,16.9473 ,0.81358 ,3.60454 ,35.36779 
91 ,17.1232 ,0.81534 ,3.60797 ,35.40137 
92 ,17.3312 ,0.81731 ,3.57717 ,35.09917 
93 ,17.5072 ,0.81919 ,3.55321 ,34.86412 
94 ,17.6835 ,0.82095 ,3.55663 ,34.89770 
95 ,17.8916 ,0.82295 ,3.52584 ,34.59549 
96 ,18.0837 ,0.82496 ,3.52926 ,34.62907 
97 ,18.2599 ,0.82673 ,3.49846 ,34.32687 
98 ,18.4520 ,0.82864 ,3.47792 ,34.12540 
99 ,18.6274 ,0.83038 ,3.45397 ,33.89035 
100 ,18.8039 ,0.83221 ,3.43344 ,33.68888 
101 ,18.9961 ,0.83409 ,3.44028 ,33.75604 
102 ,19.1882 ,0.83585 ,3.41633 ,33.52099 
103 ,19.3963 ,0.83801 ,3.39579 ,33.31952 
104 ,19.5884 ,0.83995 ,3.37526 ,33.11805 
105 ,19.7965 ,0.84197 ,3.37184 ,33.08447 
106 ,20.0040 ,0.84416 ,3.35815 ,32.95016 
107 ,20.1804 ,0.84591 ,3.33077 ,32.68153 
108 ,20.3726 ,0.84782 ,3.30339 ,32.41290 
109 ,20.5487 ,0.84964 ,3.29655 ,32.34575 
110 ,20.7405 ,0.85148 ,3.29997 ,32.37933 
111 ,20.9169 ,0.85327 ,3.27259 ,32.11070 
112 ,21.1250 ,0.85525 ,3.25206 ,31.90923 
113 ,21.3169 ,0.85723 ,3.23837 ,31.77492 
114 ,21.4927 ,0.85898 ,3.22468 ,31.64060 
115 ,21.6687 ,0.86076 ,3.17677 ,31.17051 
116 ,21.8448 ,0.86257 ,3.18020 ,31.20409 
117 ,22.0209 ,0.86427 ,3.17677 ,31.17051 
118 ,22.1970 ,0.86607 ,3.15624 ,30.96904 
119 ,22.3570 ,0.86779 ,3.13913 ,30.80115 
120 ,22.5330 ,0.86940 ,3.11860 ,30.59968 
121 ,22.6931 ,0.87115 ,3.10149 ,30.43178 
122 ,22.8692 ,0.87277 ,3.08438 ,30.26389 
123 ,23.0614 ,0.87462 ,3.07069 ,30.12958 
124 ,23.2375 ,0.87647 ,3.06384 ,30.06242 
125 ,23.4134 ,0.87825 ,3.04673 ,29.89453 
126 ,23.5894 ,0.87998 ,3.01935 ,29.62590 
127 ,23.7494 ,0.88170 ,3.01251 ,29.55875 
128 ,23.9258 ,0.88334 ,3.00224 ,29.45801 
129 ,24.1018 ,0.88514 ,2.97487 ,29.18939 
130 ,24.2779 ,0.88684 ,2.97829 ,29.22297 
131 ,24.4539 ,0.88866 ,2.93722 ,28.82003 
132 ,24.6300 ,0.89036 ,2.93380 ,28.78645 
133 ,24.8061 ,0.89214 ,2.91327 ,28.58498 
134 ,24.9823 ,0.89390 ,2.90300 ,28.48424 
135 ,25.1583 ,0.89576 ,2.87905 ,28.24919 
136 ,25.3344 ,0.89746 ,2.86878 ,28.14846 
137 ,25.4944 ,0.89915 ,2.84482 ,27.91341 
138 ,25.6705 ,0.90078 ,2.83798 ,27.84625 
139 ,25.8790 ,0.90288 ,2.81745 ,27.64479 
140 ,26.0866 ,0.90482 ,2.80376 ,27.51047 
141 ,26.2632 ,0.90675 ,2.80718 ,27.54405 
142 ,26.4707 ,0.90880 ,2.77638 ,27.24185 
143 ,26.6474 ,0.91052 ,2.75927 ,27.07395 
144 ,26.8392 ,0.91247 ,2.74900 ,26.97322 
145 ,27.0155 ,0.91421 ,2.71478 ,26.63744 
146 ,27.2074 ,0.91606 ,2.71478 ,26.63744 
147 ,27.3835 ,0.91790 ,2.69083 ,26.40239 
148 ,27.5753 ,0.91981 ,2.67714 ,26.26807 
149 ,27.7515 ,0.92158 ,2.65318 ,26.03303 
150 ,27.9278 ,0.92336 ,2.64976 ,25.99945 
151 ,28.1038 ,0.92510 ,2.64292 ,25.93229 
152 ,28.2798 ,0.92685 ,2.61554 ,25.66367 
153 ,28.4561 ,0.92862 ,2.58474 ,25.36146 
154 ,28.6481 ,0.93049 ,2.59158 ,25.42862 
155 ,28.8403 ,0.93247 ,2.57447 ,25.26073 
156 ,29.0162 ,0.93422 ,2.54710 ,24.99210 
157 ,29.2084 ,0.93610 ,2.55052 ,25.02568 
158 ,29.4004 ,0.93802 ,2.50945 ,24.62274 
159 ,29.5764 ,0.93985 ,2.49576 ,24.48842 
160 ,29.7682 ,0.94173 ,2.48550 ,24.38769 
161 ,29.9447 ,0.94349 ,2.48207 ,24.35411 
162 ,30.1207 ,0.94528 ,2.45812 ,24.11906 
163 ,30.3126 ,0.94713 ,2.43416 ,23.88402 
164 ,30.4887 ,0.94894 ,2.42048 ,23.74970 
165 ,30.6809 ,0.95088 ,2.41021 ,23.64897 
166 ,30.8731 ,0.95276 ,2.38283 ,23.38034 
167 ,31.0651 ,0.95461 ,2.38283 ,23.38034 
168 ,31.2572 ,0.95654 ,2.35888 ,23.14529 
169 ,31.4329 ,0.95845 ,2.34177 ,22.97740 
170 ,31.6088 ,0.96016 ,2.32123 ,22.77593 
171 ,31.7853 ,0.96191 ,2.31781 ,22.74235 
172 ,31.9615 ,0.96369 ,2.30412 ,22.60804 
173 ,32.1375 ,0.96544 ,2.26990 ,22.27226 
174 ,32.3133 ,0.96716 ,2.25963 ,22.17152 
175 ,32.4893 ,0.96894 ,2.24252 ,22.00363 
176 ,32.6651 ,0.97075 ,2.25279 ,22.10437 
177 ,32.8572 ,0.97255 ,2.20830 ,21.66785 
178 ,33.0173 ,0.97436 ,2.19119 ,21.49996 
179 ,33.1937 ,0.97601 ,2.17750 ,21.36564 
180 ,33.4018 ,0.97803 ,2.17750 ,21.36564 
181 ,33.5776 ,0.97986 ,2.15697 ,21.16417 
182 ,33.7696 ,0.98168 ,2.14670 ,21.06344 
183 ,33.9462 ,0.98350 ,2.12617 ,20.86197 
184 ,34.1223 ,0.98523 ,2.11248 ,20.72766 
185 ,34.2983 ,0.98710 ,2.09195 ,20.52619 
186 ,34.4904 ,0.98898 ,2.07826 ,20.39187 
187 ,34.6661 ,0.99076 ,2.07826 ,20.39187 
188 ,34.8424 ,0.99248 ,2.05430 ,20.15682 
189 ,35.0348 ,0.99442 ,2.02350 ,19.85462 
190 ,35.2266 ,0.99631 ,2.02350 ,19.85462 
191 ,35.4027 ,0.99803 ,2.00297 ,19.65315 
192 ,35.6269 ,1.00020 ,1.99955 ,19.61957 
193 ,35.8189 ,1.00219 ,1.95506 ,19.18305 
194 ,35.9950 ,1.00404 ,1.95506 ,19.18305 
195 ,36.2029 ,1.00592 ,1.93453 ,18.98158 
196 ,36.3792 ,1.00784 ,1.91057 ,18.74654 
197 ,36.5713 ,1.00972 ,1.91742 ,18.81369 
198 ,36.7473 ,1.01151 ,1.90031 ,18.64580 
199 ,36.9072 ,1.01323 ,1.87977 ,18.44433 
200 ,37.0993 ,1.01500 ,1.84555 ,18.10855 
201 ,37.2751 ,1.01678 ,1.83871 ,18.04139 
202 ,37.4515 ,1.01857 ,1.83871 ,18.04139 
203 ,37.6276 ,1.02033 ,1.82502 ,17.90708 
204 ,37.8036 ,1.02207 ,1.79764 ,17.63845 
205 ,37.9957 ,1.02396 ,1.80449 ,17.70561 
206 ,38.1719 ,1.02584 ,1.76684 ,17.33625 
207 ,38.3481 ,1.02753 ,1.77026 ,17.36983 
208 ,38.5241 ,1.02928 ,1.74631 ,17.13478 
209 ,38.7162 ,1.03116 ,1.72235 ,16.89973 
210 ,38.9082 ,1.03309 ,1.71893 ,16.86615 
211 ,39.0842 ,1.03489 ,1.70524 ,16.73184 
212 ,39.2764 ,1.03680 ,1.68129 ,16.49679 
213 ,39.4684 ,1.03867 ,1.68471 ,16.53037 
214 ,39.6441 ,1.04051 ,1.64707 ,16.16101 
215 ,39.8205 ,1.04221 ,1.62995 ,15.99311 
216 ,40.0124 ,1.04408 ,1.62311 ,15.92596 
217 ,40.1887 ,1.04596 ,1.61969 ,15.89238 
218 ,40.3807 ,1.04779 ,1.57862 ,15.48944 
219 ,40.5727 ,1.04975 ,1.58204 ,15.52302 
220 ,40.7650 ,1.05166 ,1.56151 ,15.32155 
221 ,40.9569 ,1.05362 ,1.54440 ,15.15366 
222 ,41.1490 ,1.05546 ,1.52729 ,14.98577 
223 ,41.3252 ,1.05724 ,1.52045 ,14.91861 
224 ,41.5015 ,1.05905 ,1.49649 ,14.68356 
225 ,41.6933 ,1.06087 ,1.49649 ,14.68356 
226 ,41.8853 ,1.06278 ,1.48965 ,14.61640 
227 ,42.1096 ,1.06496 ,1.44858 ,14.21346 
228 ,42.3015 ,1.06695 ,1.42462 ,13.97842 
229 ,42.4777 ,1.06881 ,1.41778 ,13.91126 
230 ,42.6696 ,1.07069 ,1.42805 ,14.01199 
231 ,42.8460 ,1.07251 ,1.39725 ,13.70979 
232 ,43.0536 ,1.07447 ,1.37329 ,13.47474 
233 ,43.2296 ,1.07630 ,1.37329 ,13.47474 
234 ,43.4060 ,1.07808 ,1.35276 ,13.27327 
235 ,43.5982 ,1.08005 ,1.33907 ,13.13896 
236 ,43.7902 ,1.08189 ,1.33907 ,13.13896 
237 ,43.9822 ,1.08382 ,1.30485 ,12.80318 
238 ,44.1584 ,1.08560 ,1.29458 ,12.70244 
239 ,44.3340 ,1.08735 ,1.29800 ,12.73602 
240 ,44.5106 ,1.08913 ,1.28089 ,12.56813 
241 ,44.7023 ,1.09102 ,1.25694 ,12.33308 
242 ,44.8787 ,1.09280 ,1.25694 ,12.33308 
243 ,45.0707 ,1.09464 ,1.25009 ,12.26592 
244 ,45.2470 ,1.09646 ,1.21929 ,11.96372 
245 ,45.4389 ,1.09846 ,1.22956 ,12.06445 
246 ,45.6150 ,1.10016 ,1.21245 ,11.89656 
247 ,45.7747 ,1.10185 ,1.18165 ,11.59436 
248 ,45.9672 ,1.10356 ,1.18165 ,11.59436 
249 ,46.1590 ,1.10561 ,1.16796 ,11.46004 
250 ,46.3513 ,1.10745 ,1.15770 ,11.35931 
251 ,46.5272 ,1.10933 ,1.14058 ,11.19142 
252 ,46.7033 ,1.11107 ,1.12005 ,10.98995 
253 ,46.8953 ,1.11296 ,1.09610 ,10.75490 
254 ,47.0715 ,1.11470 ,1.11321 ,10.92279 
255 ,47.2636 ,1.11658 ,1.08583 ,10.65416 
256 ,47.4399 ,1.11843 ,1.06530 ,10.45270 
257 ,47.6158 ,1.12016 ,1.06530 ,10.45270 
258 ,47.8078 ,1.12214 ,1.05503 ,10.35196 
259 ,47.9838 ,1.12378 ,1.02765 ,10.08333 
260 ,48.1601 ,1.12561 ,1.02081 ,10.01618 
261 ,48.3362 ,1.12738 ,1.01396 ,9.94902 
262 ,48.5438 ,1.12939 ,0.99343 ,9.74755 
263 ,48.7522 ,1.13135 ,0.97974 ,9.61324 
264 ,48.9446 ,1.13334 ,0.95237 ,9.34461 
265 ,49.1364 ,1.13541 ,0.96605 ,9.47892 
266 ,49.3121 ,1.13710 ,0.94210 ,9.24388 
267 ,49.4885 ,1.13888 ,0.92499 ,9.07598 
268 ,49.6807 ,1.14074 ,0.92841 ,9.10956 
269 ,49.8726 ,1.14269 ,0.90446 ,8.87451 
270 ,50.0645 ,1.14457 ,0.90103 ,8.84094 
271 ,50.2569 ,1.14657 ,0.88734 ,8.70662 
272 ,50.4489 ,1.14848 ,0.84970 ,8.33726 
273 ,50.6250 ,1.15026 ,0.83943 ,8.23653 
274 ,50.8169 ,1.15207 ,0.84628 ,8.30368 
275 ,51.0091 ,1.15406 ,0.82232 ,8.06864 
276 ,51.1852 ,1.15587 ,0.81548 ,8.00148 
277 ,51.3774 ,1.15774 ,0.80521 ,7.90074 
278 ,51.5854 ,1.15968 ,0.79495 ,7.80001 
279 ,51.7611 ,1.16158 ,0.79495 ,7.80001 
280 ,51.9376 ,1.16338 ,0.77099 ,7.56496 
281 ,52.1292 ,1.16529 ,0.74361 ,7.29633 
282 ,52.3052 ,1.16702 ,0.74704 ,7.32991 
283 ,52.4652 ,1.16877 ,0.75046 ,7.36349 
284 ,52.6420 ,1.17040 ,0.72650 ,7.12844 
285 ,52.8175 ,1.17217 ,0.71624 ,7.02771 
286 ,52.9940 ,1.17392 ,0.71966 ,7.06129 
287 ,53.1860 ,1.17588 ,0.68886 ,6.75908 
288 ,53.3617 ,1.17757 ,0.69570 ,6.82624 
289 ,53.5383 ,1.17935 ,0.67859 ,6.65835 
290 ,53.7298 ,1.18123 ,0.65121 ,6.38972 
291 ,53.9059 ,1.18305 ,0.64095 ,6.28899 
292 ,54.0824 ,1.18479 ,0.64095 ,6.28899 
293 ,54.2744 ,1.18664 ,0.63068 ,6.18825 
294 ,54.4666 ,1.18864 ,0.61357 ,6.02036 
295 ,54.6587 ,1.19053 ,0.61015 ,5.98678 
296 ,54.8346 ,1.19230 ,0.60330 ,5.91962 
297 ,55.0424 ,1.19432 ,0.59646 ,5.85247 
298 ,55.2188 ,1.19616 ,0.57593 ,5.65100 
299 ,55.3948 ,1.19792 ,0.56224 ,5.51668 
300 ,55.5709 ,1.19973 ,0.55197 ,5.41595 
301 ,55.7472 ,1.20146 ,0.54513 ,5.34879 
302 ,55.9231 ,1.20326 ,0.53486 ,5.24806 
303 ,56.0991 ,1.20499 ,0.50748 ,4.97943 
304 ,56.2748 ,1.20673 ,0.50748 ,4.97943 
305 ,56.4510 ,1.20846 ,0.48695 ,4.77796 
306 ,56.6273 ,1.21022 ,0.48695 ,4.77796 
307 ,56.8030 ,1.21199 ,0.48011 ,4.71081 
308 ,56.9796 ,1.21375 ,0.46300 ,4.54291 
309 ,57.1397 ,1.21546 ,0.44246 ,4.34144 
310 ,57.3155 ,1.21707 ,0.43904 ,4.30787 
311 ,57.4913 ,1.21884 ,0.41509 ,4.07282 
312 ,57.6678 ,1.22066 ,0.40824 ,4.00566 
313 ,57.8600 ,1.22257 ,0.41166 ,4.03924 
314 ,58.0519 ,1.22445 ,0.38429 ,3.77061 
315 ,58.2280 ,1.22621 ,0.37744 ,3.70346 
316 ,58.3876 ,1.22796 ,0.37402 ,3.66988 
317 ,58.5641 ,1.22958 ,0.36033 ,3.53557 
318 ,58.7562 ,1.23153 ,0.35006 ,3.43483 
319 ,58.9485 ,1.23340 ,0.34322 ,3.36767 
320 ,59.1405 ,1.23537 ,0.33980 ,3.33410 
321 ,59.3320 ,1.23722 ,0.30900 ,3.03189 
322 ,59.5086 ,1.23904 ,0.29873 ,2.93116 
323 ,59.7005 ,1.24095 ,0.30558 ,2.99831 
324 ,59.8768 ,1.24265 ,0.27478 ,2.69611 
325 ,60.0849 ,1.24477 ,0.27135 ,2.66253 
326 ,60.2767 ,1.24671 ,0.25424 ,2.49464 
327 ,60.4689 ,1.24860 ,0.24055 ,2.36032 
328 ,60.6610 ,1.25061 ,0.23371 ,2.29317 
329 ,60.8373 ,1.25233 ,0.21660 ,2.12528 
330 ,61.0131 ,1.25408 ,0.20976 ,2.05812 
331 ,61.2211 ,1.25612 ,0.20976 ,2.05812 
332 ,61.3968 ,1.25790 ,0.19949 ,1.95738 
333 ,61.5730 ,1.25968 ,0.16527 ,1.62160 
334 ,61.7813 ,1.26172 ,0.17211 ,1.68876 
335 ,61.9572 ,1.26351 ,0.15158 ,1.48729 
336 ,62.1496 ,1.26539 ,0.15158 ,1.48729 
337 ,62.3255 ,1.26723 ,0.14816 ,1.45371 
338 ,62.5014 ,1.26899 ,0.11393 ,1.11793 
339 ,62.6778 ,1.27071 ,0.11736 ,1.15151 
340 ,62.8378 ,1.27245 ,0.10025 ,0.98361 
341 ,63.0139 ,1.27409 ,0.08998 ,0.88288 
342 ,63.2060 ,1.27605 ,0.08998 ,0.88288 
343 ,63.3981 ,1.27793 ,0.07287 ,0.71499 
344 ,63.5741 ,1.27968 ,0.05918 ,0.58067 
345 ,63.7502 ,1.28145 ,0.04891 ,0.47994 
346 ,63.9264 ,1.28322 ,0.05234 ,0.51352 
347 ,64.1021 ,1.28498 ,0.05234 ,0.51352 
348 ,64.3104 ,1.28688 ,0.02838 ,0.27847 
349 ,64.5024 ,1.28899 ,0.02154 ,0.21131 
350 ,64.6781 ,1.29077 ,-0.00242 ,-0.02373 
351 ,64.8542 ,1.29247 ,-0.01269 ,-0.12447 
352 ,65.0303 ,1.29427 ,-0.01269 ,-0.12447 
353 ,65.2063 ,1.29606 ,-0.02295 ,-0.22520 
354 ,65.3824 ,1.29781 ,-0.04348 ,-0.42667 
355 ,65.5590 ,1.29951 ,-0.04691 ,-0.46025 
356 ,65.7348 ,1.30141 ,-0.05717 ,-0.56099 
357 ,65.9110 ,1.30300 ,-0.06744 ,-0.66172 
358 ,66.0871 ,1.30479 ,-0.06744 ,-0.66172 
359 ,66.2792 ,1.30670 ,-0.07428 ,-0.72888 
360 ,66.4554 ,1.30846 ,-0.09824 ,-0.96393 
361 ,66.6474 ,1.31042 ,-0.09482 ,-0.93035 
362 ,66.8231 ,1.31212 ,-0.10166 ,-0.99751 
363 ,67.0155 ,1.31402 ,-0.12562 ,-1.23255 
364 ,67.1915 ,1.31582 ,-0.13588 ,-1.33329 
365 ,67.3674 ,1.31757 ,-0.12904 ,-1.26613 
366 ,67.5439 ,1.31939 ,-0.12904 ,-1.26613 
367 ,67.7197 ,1.32122 ,-0.15299 ,-1.50118 
368 ,67.8957 ,1.32297 ,-0.15299 ,-1.50118 
369 ,68.0719 ,1.32464 ,-0.16326 ,-1.60191 
370 ,68.2640 ,1.32657 ,-0.15984 ,-1.56834 
371 ,68.4403 ,1.32831 ,-0.18379 ,-1.80338 
372 ,68.6480 ,1.33037 ,-0.18722 ,-1.83696 
373 ,68.8240 ,1.33219 ,-0.20090 ,-1.97128 
374 ,69.0163 ,1.33410 ,-0.21802 ,-2.13917 
375 ,69.2084 ,1.33601 ,-0.22486 ,-2.20632 
376 ,69.4004 ,1.33788 ,-0.23513 ,-2.30706 
377 ,69.5765 ,1.33970 ,-0.25224 ,-2.47495 
378 ,69.7685 ,1.34148 ,-0.25566 ,-2.50853 
379 ,69.9446 ,1.34339 ,-0.25224 ,-2.47495 
380 ,70.1368 ,1.34530 ,-0.27961 ,-2.74358 
381 ,70.3448 ,1.34728 ,-0.26935 ,-2.64284 
382 ,70.5209 ,1.34910 ,-0.29330 ,-2.87789 
383 ,70.6969 ,1.35102 ,-0.31384 ,-3.07936 
384 ,70.8728 ,1.35263 ,-0.32068 ,-3.14652 
385 ,71.0807 ,1.35470 ,-0.31041 ,-3.04578 
386 ,71.2572 ,1.35653 ,-0.33779 ,-3.31441 
387 ,71.4331 ,1.35821 ,-0.35148 ,-3.44872 
388 ,71.6091 ,1.35999 ,-0.34806 ,-3.41514 
389 ,71.8013 ,1.36190 ,-0.36175 ,-3.54946 
390 ,71.9933 ,1.36378 ,-0.38570 ,-3.78450 
391 ,72.2014 ,1.36586 ,-0.38570 ,-3.78450 
392 ,72.3774 ,1.36765 ,-0.40281 ,-3.95240 
393 ,72.5535 ,1.36940 ,-0.41308 ,-4.05313 
394 ,72.7453 ,1.37127 ,-0.39939 ,-3.91882 
395 ,72.9381 ,1.37325 ,-0.41650 ,-4.08671 
396 ,73.1458 ,1.37529 ,-0.40966 ,-4.01955 
397 ,73.3218 ,1.37708 ,-0.43019 ,-4.22102 
398 ,73.5140 ,1.37899 ,-0.44730 ,-4.38891 
399 ,73.7057 ,1.38092 ,-0.45414 ,-4.45607 
400 ,73.8822 ,1.38274 ,-0.45072 ,-4.42249 
401 ,74.0584 ,1.38450 ,-0.48494 ,-4.75828 
402 ,74.2503 ,1.38635 ,-0.46783 ,-4.59038 
403 ,74.4426 ,1.38829 ,-0.48837 ,-4.79185 
404 ,74.6344 ,1.39023 ,-0.50548 ,-4.95975 
405 ,74.8266 ,1.39213 ,-0.49521 ,-4.85901 
406 ,75.0348 ,1.39415 ,-0.51917 ,-5.09406 
407 ,75.2108 ,1.39603 ,-0.53285 ,-5.22837 
408 ,75.4029 ,1.39794 ,-0.54654 ,-5.36268 
409 ,75.5790 ,1.39969 ,-0.54312 ,-5.32911 
410 ,75.7711 ,1.40150 ,-0.56708 ,-5.56415 
411 ,75.9630 ,1.40342 ,-0.56365 ,-5.53058 
412 ,76.1392 ,1.40530 ,-0.56708 ,-5.56415 
413 ,76.3153 ,1.40701 ,-0.59103 ,-5.79920 
414 ,76.4911 ,1.40877 ,-0.59445 ,-5.83278 
415 ,76.6835 ,1.41062 ,-0.59788 ,-5.86636 
416 ,76.8755 ,1.41268 ,-0.60814 ,-5.96709 
417 ,77.0516 ,1.41447 ,-0.62183 ,-6.10141 
418 ,77.2436 ,1.41622 ,-0.62868 ,-6.16856 
419 ,77.4196 ,1.41810 ,-0.62868 ,-6.16856 
420 ,77.5959 ,1.41982 ,-0.64579 ,-6.33646 
421 ,77.7877 ,1.42176 ,-0.64236 ,-6.30288 
422 ,77.9800 ,1.42364 ,-0.66974 ,-6.57150 
423 ,78.1558 ,1.42546 ,-0.67659 ,-6.63866 
424 ,78.3322 ,1.42720 ,-0.68685 ,-6.73940 
425 ,78.5238 ,1.42912 ,-0.69027 ,-6.77297 
426 ,78.7002 ,1.43091 ,-0.67659 ,-6.63866 
427 ,78.9244 ,1.43311 ,-0.69027 ,-6.77297 
428 ,79.1165 ,1.43505 ,-0.71765 ,-7.04160 
429 ,79.3085 ,1.43689 ,-0.71423 ,-7.00802 
430 ,79.5005 ,1.43888 ,-0.72107 ,-7.07518 
431 ,79.6764 ,1.44060 ,-0.73134 ,-7.17591 
432 ,79.8525 ,1.44235 ,-0.75530 ,-7.41096 
433 ,80.0449 ,1.44432 ,-0.74503 ,-7.31023 
434 ,80.2369 ,1.44620 ,-0.77583 ,-7.61243 
435 ,80.4129 ,1.44802 ,-0.77583 ,-7.61243 
436 ,80.6050 ,1.44987 ,-0.76898 ,-7.54527 
437 ,80.7970 ,1.45183 ,-0.79294 ,-7.78032 
438 ,80.9731 ,1.45359 ,-0.79636 ,-7.81390 
439 ,81.1494 ,1.45537 ,-0.81005 ,-7.94821 
440 ,81.3412 ,1.45719 ,-0.79978 ,-7.84748 
441 ,81.5174 ,1.45904 ,-0.80663 ,-7.91464 
442 ,81.7252 ,1.46107 ,-0.81005 ,-7.94821 
443 ,81.9497 ,1.46324 ,-0.83058 ,-8.14968 
444 ,82.1416 ,1.46527 ,-0.82716 ,-8.11611 
445 ,82.3177 ,1.46704 ,-0.83401 ,-8.18326 
446 ,82.4933 ,1.46878 ,-0.86823 ,-8.51904 
447 ,82.6698 ,1.47054 ,-0.86138 ,-8.45189 
448 ,82.8774 ,1.47257 ,-0.87165 ,-8.55262 
449 ,83.0540 ,1.47442 ,-0.87165 ,-8.55262 
450 ,83.2459 ,1.47636 ,-0.86823 ,-8.51904 
451 ,83.4216 ,1.47811 ,-0.88192 ,-8.65336 
452 ,83.5980 ,1.47981 ,-0.88534 ,-8.68694 
453 ,83.7578 ,1.48152 ,-0.90929 ,-8.92198 
454 ,83.9340 ,1.48321 ,-0.91614 ,-8.98914 
455 ,84.1263 ,1.48509 ,-0.90929 ,-8.92198 
456 ,84.3184 ,1.48703 ,-0.91956 ,-9.02272 
457 ,84.5102 ,1.48894 ,-0.94351 ,-9.25777 
458 ,84.6864 ,1.49072 ,-0.94351 ,-9.25777 
459 ,84.8625 ,1.49245 ,-0.94694 ,-9.29135 
460 ,85.0390 ,1.49427 ,-0.96747 ,-9.49282 
461 ,85.2149 ,1.49602 ,-0.97089 ,-9.52639 
462 ,85.3910 ,1.49777 ,-0.98800 ,-9.69429 
