Data stamp = , 20-04-2022 04:48:16 807

Calibration Values: 
Slope = , 26.54 , g/V 
Offset Voltage at no contact = , -0.501760 , V 

No , Time , Stage Position ,   Mass , Force 
   ,  (s) ,      (mm)      ,   (g)  , (mN)  

1 ,0.0000 ,0.59935 ,5.31221 ,52.12337 
2 ,0.2189 ,0.59941 ,5.32247 ,52.22410 
3 ,0.6349 ,0.60076 ,5.31563 ,52.15694 
4 ,0.8272 ,0.60251 ,5.29852 ,51.98905 
5 ,1.0357 ,0.60442 ,5.31221 ,52.12337 
6 ,1.2592 ,0.60650 ,5.30878 ,52.08979 
7 ,1.4358 ,0.60841 ,5.29852 ,51.98905 
8 ,1.6278 ,0.61031 ,5.30878 ,52.08979 
9 ,1.8199 ,0.61230 ,5.30194 ,52.02263 
10 ,1.9959 ,0.61414 ,5.28141 ,51.82116 
11 ,2.1721 ,0.61588 ,5.26772 ,51.68685 
12 ,2.3641 ,0.61770 ,5.25745 ,51.58611 
13 ,2.5403 ,0.61949 ,5.24718 ,51.48538 
14 ,2.7483 ,0.62146 ,5.22665 ,51.28391 
15 ,2.9403 ,0.62348 ,5.20954 ,51.11602 
16 ,3.1160 ,0.62525 ,5.17532 ,50.78023 
17 ,3.2924 ,0.62707 ,5.16505 ,50.67950 
18 ,3.4846 ,0.62889 ,5.15479 ,50.57876 
19 ,3.6767 ,0.63083 ,5.14794 ,50.51161 
20 ,3.8686 ,0.63271 ,5.12741 ,50.31014 
21 ,4.0605 ,0.63462 ,5.10688 ,50.10867 
22 ,4.2530 ,0.63659 ,5.07950 ,49.84004 
23 ,4.4447 ,0.63853 ,5.06923 ,49.73931 
24 ,4.6211 ,0.64035 ,5.05897 ,49.63857 
25 ,4.8129 ,0.64223 ,5.01448 ,49.20205 
26 ,4.9892 ,0.64396 ,5.00763 ,49.13490 
27 ,5.1648 ,0.64581 ,5.00421 ,49.10132 
28 ,5.3411 ,0.64753 ,4.99394 ,49.00058 
29 ,5.5653 ,0.64962 ,4.97683 ,48.83269 
30 ,5.7415 ,0.65156 ,4.95972 ,48.66480 
31 ,5.9335 ,0.65350 ,4.92892 ,48.36260 
32 ,6.1096 ,0.65514 ,4.90155 ,48.09397 
33 ,6.2858 ,0.65699 ,4.89812 ,48.06039 
34 ,6.4458 ,0.65865 ,4.88444 ,47.92608 
35 ,6.6378 ,0.66040 ,4.87759 ,47.85892 
36 ,6.8140 ,0.66220 ,4.83652 ,47.45598 
37 ,7.0059 ,0.66419 ,4.82626 ,47.35525 
38 ,7.1979 ,0.66602 ,4.80915 ,47.18736 
39 ,7.3737 ,0.66785 ,4.78861 ,46.98589 
40 ,7.5502 ,0.66959 ,4.76124 ,46.71726 
41 ,7.7262 ,0.67135 ,4.74070 ,46.51579 
42 ,7.9022 ,0.67311 ,4.74413 ,46.54937 
43 ,8.0945 ,0.67502 ,4.72359 ,46.34790 
44 ,8.2865 ,0.67698 ,4.70648 ,46.18001 
45 ,8.4785 ,0.67884 ,4.68937 ,46.01212 
46 ,8.6707 ,0.68081 ,4.66199 ,45.74349 
47 ,8.8629 ,0.68262 ,4.67911 ,45.91138 
48 ,9.0384 ,0.68444 ,4.65515 ,45.67633 
49 ,9.2145 ,0.68620 ,4.62093 ,45.34055 
50 ,9.3745 ,0.68797 ,4.59013 ,45.03835 
51 ,9.5667 ,0.68964 ,4.59355 ,45.07192 
52 ,9.7751 ,0.69181 ,4.55933 ,44.73614 
53 ,9.9833 ,0.69385 ,4.55591 ,44.70256 
54 ,10.2074 ,0.69590 ,4.52853 ,44.43394 
55 ,10.3993 ,0.69805 ,4.53195 ,44.46751 
56 ,10.5755 ,0.69982 ,4.48746 ,44.03100 
57 ,10.7675 ,0.70167 ,4.46351 ,43.79595 
58 ,10.9597 ,0.70359 ,4.46351 ,43.79595 
59 ,11.1357 ,0.70543 ,4.44298 ,43.59448 
60 ,11.3278 ,0.70729 ,4.42586 ,43.42659 
61 ,11.5358 ,0.70928 ,4.41902 ,43.35943 
62 ,11.7120 ,0.71123 ,4.39164 ,43.09080 
63 ,11.9200 ,0.71317 ,4.38138 ,42.99007 
64 ,12.0960 ,0.71509 ,4.35400 ,42.72144 
65 ,12.2722 ,0.71675 ,4.33347 ,42.51997 
66 ,12.4800 ,0.71879 ,4.33004 ,42.48639 
67 ,12.6717 ,0.72075 ,4.29240 ,42.11703 
68 ,12.8643 ,0.72260 ,4.27871 ,41.98272 
69 ,13.0566 ,0.72462 ,4.26502 ,41.84841 
70 ,13.2484 ,0.72649 ,4.23765 ,41.57978 
71 ,13.4246 ,0.72833 ,4.23765 ,41.57978 
72 ,13.6327 ,0.73029 ,4.21369 ,41.34473 
73 ,13.8248 ,0.73225 ,4.20685 ,41.27758 
74 ,14.0167 ,0.73432 ,4.16920 ,40.90821 
75 ,14.1928 ,0.73601 ,4.14867 ,40.70674 
76 ,14.3688 ,0.73773 ,4.12471 ,40.47170 
77 ,14.5771 ,0.73971 ,4.11445 ,40.37096 
78 ,14.7528 ,0.74171 ,4.10076 ,40.23665 
79 ,14.9291 ,0.74332 ,4.08023 ,40.03518 
80 ,15.1212 ,0.74531 ,4.08707 ,40.10233 
81 ,15.2972 ,0.74701 ,4.05627 ,39.80013 
82 ,15.4733 ,0.74882 ,4.03574 ,39.59866 
83 ,15.6333 ,0.75050 ,4.01520 ,39.39719 
84 ,15.8093 ,0.75214 ,3.99467 ,39.19572 
85 ,15.9855 ,0.75399 ,4.00152 ,39.26288 
86 ,16.1616 ,0.75564 ,3.99125 ,39.16214 
87 ,16.3378 ,0.75743 ,3.97072 ,38.96067 
88 ,16.5297 ,0.75931 ,3.94334 ,38.69205 
89 ,16.7058 ,0.76111 ,3.94676 ,38.72562 
90 ,16.8817 ,0.76287 ,3.92965 ,38.55773 
91 ,17.0739 ,0.76477 ,3.89543 ,38.22195 
92 ,17.2661 ,0.76669 ,3.88516 ,38.12122 
93 ,17.4421 ,0.76851 ,3.87490 ,38.02048 
94 ,17.6503 ,0.77045 ,3.84067 ,37.68470 
95 ,17.8420 ,0.77239 ,3.84752 ,37.75185 
96 ,18.0179 ,0.77422 ,3.82699 ,37.55038 
97 ,18.1944 ,0.77603 ,3.79961 ,37.28176 
98 ,18.4026 ,0.77799 ,3.78592 ,37.14744 
99 ,18.6101 ,0.78008 ,3.75854 ,36.87882 
100 ,18.8028 ,0.78207 ,3.75512 ,36.84524 
101 ,18.9945 ,0.78399 ,3.72090 ,36.50946 
102 ,19.1869 ,0.78587 ,3.69694 ,36.27441 
103 ,19.3788 ,0.78777 ,3.69694 ,36.27441 
104 ,19.5551 ,0.78959 ,3.66272 ,35.93863 
105 ,19.7628 ,0.79150 ,3.65930 ,35.90505 
106 ,19.9706 ,0.79368 ,3.62508 ,35.56926 
107 ,20.1469 ,0.79555 ,3.61823 ,35.50211 
108 ,20.3233 ,0.79730 ,3.59770 ,35.30064 
109 ,20.5154 ,0.79924 ,3.57717 ,35.09917 
110 ,20.6914 ,0.80097 ,3.56348 ,34.96485 
111 ,20.8835 ,0.80285 ,3.56348 ,34.96485 
112 ,21.0916 ,0.80488 ,3.53268 ,34.66265 
113 ,21.2675 ,0.80668 ,3.51557 ,34.49476 
114 ,21.4439 ,0.80846 ,3.50530 ,34.39402 
115 ,21.6196 ,0.81027 ,3.48819 ,34.22613 
116 ,21.7958 ,0.81205 ,3.47450 ,34.09182 
117 ,21.9720 ,0.81372 ,3.45397 ,33.89035 
118 ,22.1641 ,0.81563 ,3.44370 ,33.78961 
119 ,22.3721 ,0.81765 ,3.41633 ,33.52099 
120 ,22.5479 ,0.81951 ,3.40264 ,33.38667 
121 ,22.7242 ,0.82127 ,3.39237 ,33.28594 
122 ,22.9163 ,0.82307 ,3.37868 ,33.15163 
123 ,23.0923 ,0.82498 ,3.35130 ,32.88300 
124 ,23.2846 ,0.82684 ,3.35815 ,32.95016 
125 ,23.5087 ,0.82900 ,3.31366 ,32.51364 
126 ,23.7009 ,0.83104 ,3.32735 ,32.64795 
127 ,23.8928 ,0.83296 ,3.28628 ,32.24501 
128 ,24.0848 ,0.83484 ,3.27602 ,32.14428 
129 ,24.2770 ,0.83675 ,3.24522 ,31.84207 
130 ,24.4689 ,0.83863 ,3.25548 ,31.94281 
131 ,24.6450 ,0.84049 ,3.23153 ,31.70776 
132 ,24.8210 ,0.84225 ,3.20415 ,31.43913 
133 ,24.9967 ,0.84397 ,3.16993 ,31.10335 
134 ,25.1891 ,0.84592 ,3.17677 ,31.17051 
135 ,25.3653 ,0.84770 ,3.15966 ,31.00262 
136 ,25.5572 ,0.84951 ,3.12202 ,30.63325 
137 ,25.7654 ,0.85152 ,3.12886 ,30.70041 
138 ,25.9411 ,0.85346 ,3.10491 ,30.46536 
139 ,26.1177 ,0.85521 ,3.08438 ,30.26389 
140 ,26.3254 ,0.85722 ,3.08780 ,30.29747 
141 ,26.5017 ,0.85903 ,3.07069 ,30.12958 
142 ,26.6938 ,0.86096 ,3.03647 ,29.79380 
143 ,26.8859 ,0.86284 ,3.03304 ,29.76022 
144 ,27.0618 ,0.86461 ,3.02620 ,29.69306 
145 ,27.2542 ,0.86655 ,2.98855 ,29.32370 
146 ,27.4461 ,0.86851 ,2.98855 ,29.32370 
147 ,27.6218 ,0.87023 ,2.97487 ,29.18939 
148 ,27.7981 ,0.87200 ,2.95776 ,29.02150 
149 ,27.9743 ,0.87375 ,2.92011 ,28.65213 
150 ,28.1664 ,0.87564 ,2.93380 ,28.78645 
151 ,28.3586 ,0.87754 ,2.89273 ,28.38351 
152 ,28.5505 ,0.87947 ,2.89616 ,28.41709 
153 ,28.7262 ,0.88124 ,2.88589 ,28.31635 
154 ,28.9027 ,0.88305 ,2.86536 ,28.11488 
155 ,29.0788 ,0.88475 ,2.82771 ,27.74552 
156 ,29.2865 ,0.88682 ,2.83114 ,27.77910 
157 ,29.4628 ,0.88867 ,2.81060 ,27.57763 
158 ,29.6390 ,0.89039 ,2.78322 ,27.30900 
159 ,29.8148 ,0.89221 ,2.79007 ,27.37616 
160 ,29.9908 ,0.89392 ,2.75243 ,27.00680 
161 ,30.1671 ,0.89570 ,2.75927 ,27.07395 
162 ,30.3434 ,0.89746 ,2.73531 ,26.83891 
163 ,30.5354 ,0.89927 ,2.72163 ,26.70459 
164 ,30.7276 ,0.90125 ,2.70452 ,26.53670 
165 ,30.9035 ,0.90317 ,2.68398 ,26.33523 
166 ,31.0797 ,0.90479 ,2.67029 ,26.20092 
167 ,31.2559 ,0.90651 ,2.64976 ,25.99945 
168 ,31.4478 ,0.90839 ,2.65318 ,26.03303 
169 ,31.6399 ,0.91037 ,2.62238 ,25.73082 
170 ,31.8321 ,0.91223 ,2.61212 ,25.63009 
171 ,32.0241 ,0.91416 ,2.59843 ,25.49577 
172 ,32.2001 ,0.91600 ,2.58132 ,25.32788 
173 ,32.3757 ,0.91774 ,2.55052 ,25.02568 
174 ,32.5523 ,0.91954 ,2.55736 ,25.09283 
175 ,32.7280 ,0.92123 ,2.54025 ,24.92494 
176 ,32.9043 ,0.92304 ,2.51287 ,24.65632 
177 ,33.0643 ,0.92476 ,2.48892 ,24.42127 
178 ,33.2405 ,0.92639 ,2.49576 ,24.48842 
179 ,33.4326 ,0.92820 ,2.47181 ,24.25338 
180 ,33.6403 ,0.93027 ,2.46839 ,24.21980 
181 ,33.8167 ,0.93221 ,2.45127 ,24.05191 
182 ,34.0087 ,0.93403 ,2.44785 ,24.01833 
183 ,34.2009 ,0.93591 ,2.40679 ,23.61539 
184 ,34.4088 ,0.93801 ,2.39994 ,23.54823 
185 ,34.6010 ,0.93996 ,2.37599 ,23.31318 
186 ,34.7769 ,0.94168 ,2.35203 ,23.07814 
187 ,34.9537 ,0.94352 ,2.35203 ,23.07814 
188 ,35.1449 ,0.94541 ,2.33834 ,22.94382 
189 ,35.3211 ,0.94719 ,2.31439 ,22.70877 
190 ,35.5134 ,0.94907 ,2.30412 ,22.60804 
191 ,35.7055 ,0.95106 ,2.29728 ,22.54088 
192 ,35.8816 ,0.95282 ,2.25963 ,22.17152 
193 ,36.0736 ,0.95473 ,2.24937 ,22.07079 
194 ,36.2496 ,0.95651 ,2.24594 ,22.03721 
195 ,36.4418 ,0.95836 ,2.22199 ,21.80216 
196 ,36.6498 ,0.96034 ,2.23226 ,21.90290 
197 ,36.8259 ,0.96222 ,2.18777 ,21.46638 
198 ,37.0020 ,0.96400 ,2.16039 ,21.19775 
199 ,37.1939 ,0.96588 ,2.16723 ,21.26491 
200 ,37.3859 ,0.96773 ,2.14670 ,21.06344 
201 ,37.5781 ,0.96974 ,2.12959 ,20.89555 
202 ,37.7544 ,0.97152 ,2.12275 ,20.82839 
203 ,37.9301 ,0.97327 ,2.10906 ,20.69408 
204 ,38.1063 ,0.97502 ,2.08852 ,20.49261 
205 ,38.2823 ,0.97678 ,2.05773 ,20.19040 
206 ,38.4583 ,0.97850 ,2.04404 ,20.05609 
207 ,38.6505 ,0.98045 ,2.05430 ,20.15682 
208 ,38.8266 ,0.98222 ,2.04061 ,20.02251 
209 ,39.0027 ,0.98398 ,2.00639 ,19.68673 
210 ,39.2107 ,0.98595 ,1.98586 ,19.48526 
211 ,39.3865 ,0.98783 ,1.99613 ,19.58599 
212 ,39.5630 ,0.98962 ,1.97217 ,19.35094 
213 ,39.7552 ,0.99153 ,1.95164 ,19.14948 
214 ,39.9472 ,0.99337 ,1.94137 ,19.04874 
215 ,40.1712 ,0.99544 ,1.91399 ,18.78011 
216 ,40.3633 ,0.99761 ,1.89346 ,18.57864 
217 ,40.5553 ,0.99940 ,1.89004 ,18.54507 
218 ,40.7315 ,1.00128 ,1.86951 ,18.34360 
219 ,40.9394 ,1.00319 ,1.85240 ,18.17570 
220 ,41.1156 ,1.00510 ,1.83186 ,17.97423 
221 ,41.2916 ,1.00689 ,1.82160 ,17.87350 
222 ,41.4678 ,1.00863 ,1.80791 ,17.73919 
223 ,41.6758 ,1.01064 ,1.79764 ,17.63845 
224 ,41.8519 ,1.01248 ,1.79080 ,17.57129 
225 ,42.0278 ,1.01423 ,1.76684 ,17.33625 
226 ,42.2200 ,1.01606 ,1.74973 ,17.16836 
227 ,42.4280 ,1.01820 ,1.73262 ,17.00046 
228 ,42.6040 ,1.02001 ,1.70866 ,16.76542 
229 ,42.7961 ,1.02186 ,1.70524 ,16.73184 
230 ,43.0044 ,1.02385 ,1.69498 ,16.63110 
231 ,43.1960 ,1.02592 ,1.66418 ,16.32890 
232 ,43.3562 ,1.02765 ,1.67444 ,16.42963 
233 ,43.5326 ,1.02930 ,1.64707 ,16.16101 
234 ,43.7243 ,1.03110 ,1.62653 ,15.95954 
235 ,43.9008 ,1.03300 ,1.60258 ,15.72449 
236 ,44.0765 ,1.03470 ,1.58889 ,15.59018 
237 ,44.2529 ,1.03650 ,1.58889 ,15.59018 
238 ,44.4288 ,1.03822 ,1.57520 ,15.45586 
239 ,44.6370 ,1.04024 ,1.55467 ,15.25439 
240 ,44.7966 ,1.04202 ,1.55809 ,15.28797 
241 ,44.9733 ,1.04368 ,1.53756 ,15.08650 
242 ,45.1653 ,1.04558 ,1.51018 ,14.81787 
243 ,45.3575 ,1.04744 ,1.49991 ,14.71714 
244 ,45.5335 ,1.04931 ,1.49307 ,14.64998 
245 ,45.7254 ,1.05119 ,1.47938 ,14.51567 
246 ,45.9177 ,1.05303 ,1.46911 ,14.41493 
247 ,46.1096 ,1.05499 ,1.44858 ,14.21346 
248 ,46.3017 ,1.05695 ,1.42805 ,14.01199 
249 ,46.4779 ,1.05872 ,1.42805 ,14.01199 
250 ,46.6540 ,1.06049 ,1.41778 ,13.91126 
251 ,46.8459 ,1.06238 ,1.37671 ,13.50832 
252 ,47.0220 ,1.06415 ,1.37671 ,13.50832 
253 ,47.1980 ,1.06595 ,1.36303 ,13.37401 
254 ,47.3742 ,1.06767 ,1.35276 ,13.27327 
255 ,47.5498 ,1.06947 ,1.35618 ,13.30685 
256 ,47.7264 ,1.07119 ,1.32196 ,12.97107 
257 ,47.9342 ,1.07315 ,1.33223 ,13.07180 
258 ,48.1266 ,1.07515 ,1.30485 ,12.80318 
259 ,48.3344 ,1.07718 ,1.29800 ,12.73602 
260 ,48.5267 ,1.07912 ,1.26720 ,12.43381 
261 ,48.7349 ,1.08122 ,1.27063 ,12.46739 
262 ,48.9107 ,1.08301 ,1.25352 ,12.29950 
263 ,49.0865 ,1.08479 ,1.22614 ,12.03088 
264 ,49.2630 ,1.08658 ,1.22614 ,12.03088 
265 ,49.4556 ,1.08843 ,1.21587 ,11.93014 
266 ,49.6631 ,1.09051 ,1.18850 ,11.66151 
267 ,49.8552 ,1.09237 ,1.17481 ,11.52720 
268 ,50.0313 ,1.09426 ,1.19192 ,11.69509 
269 ,50.2233 ,1.09614 ,1.13716 ,11.15784 
270 ,50.4154 ,1.09804 ,1.14401 ,11.22500 
271 ,50.5915 ,1.09989 ,1.13374 ,11.12426 
272 ,50.7836 ,1.10174 ,1.10636 ,10.85563 
273 ,50.9601 ,1.10357 ,1.10294 ,10.82206 
274 ,51.1517 ,1.10540 ,1.07899 ,10.58701 
275 ,51.3438 ,1.10732 ,1.08583 ,10.65416 
276 ,51.5519 ,1.10933 ,1.07556 ,10.55343 
277 ,51.7597 ,1.11142 ,1.04476 ,10.25123 
278 ,51.9678 ,1.11354 ,1.02765 ,10.08333 
279 ,52.1600 ,1.11541 ,1.03450 ,10.15049 
280 ,52.3362 ,1.11723 ,1.02423 ,10.04976 
281 ,52.5122 ,1.11905 ,1.00712 ,9.88186 
282 ,52.6882 ,1.12076 ,0.96948 ,9.51250 
283 ,52.8804 ,1.12268 ,0.98317 ,9.64682 
284 ,53.0563 ,1.12452 ,0.95237 ,9.34461 
285 ,53.2325 ,1.12624 ,0.95921 ,9.41177 
286 ,53.4084 ,1.12794 ,0.92841 ,9.10956 
287 ,53.5846 ,1.12978 ,0.91814 ,9.00883 
288 ,53.7606 ,1.13154 ,0.90788 ,8.90809 
289 ,53.9369 ,1.13328 ,0.90103 ,8.84094 
290 ,54.1287 ,1.13517 ,0.88392 ,8.67305 
291 ,54.3051 ,1.13697 ,0.86681 ,8.50515 
292 ,54.4968 ,1.13888 ,0.86339 ,8.47158 
293 ,54.7051 ,1.14080 ,0.83943 ,8.23653 
294 ,54.8811 ,1.14271 ,0.82575 ,8.10221 
295 ,55.0733 ,1.14456 ,0.82575 ,8.10221 
296 ,55.2495 ,1.14638 ,0.80521 ,7.90074 
297 ,55.4251 ,1.14818 ,0.78126 ,7.66570 
298 ,55.6015 ,1.14991 ,0.78126 ,7.66570 
299 ,55.8097 ,1.15191 ,0.76415 ,7.49780 
300 ,56.0014 ,1.15383 ,0.76415 ,7.49780 
301 ,56.1778 ,1.15567 ,0.75730 ,7.43065 
302 ,56.3539 ,1.15740 ,0.75388 ,7.39707 
303 ,56.5296 ,1.15915 ,0.72650 ,7.12844 
304 ,56.7381 ,1.16112 ,0.71281 ,6.99413 
305 ,56.9302 ,1.16319 ,0.72308 ,7.09486 
306 ,57.1380 ,1.16524 ,0.70597 ,6.92697 
307 ,57.3463 ,1.16731 ,0.67175 ,6.59119 
308 ,57.5224 ,1.16916 ,0.66833 ,6.55761 
309 ,57.7144 ,1.17103 ,0.66833 ,6.55761 
310 ,57.8905 ,1.17281 ,0.63753 ,6.25541 
311 ,58.0827 ,1.17467 ,0.64437 ,6.32256 
312 ,58.2906 ,1.17676 ,0.62042 ,6.08752 
313 ,58.4828 ,1.17864 ,0.61699 ,6.05394 
314 ,58.6745 ,1.18059 ,0.60330 ,5.91962 
315 ,58.8511 ,1.18244 ,0.58962 ,5.78531 
316 ,59.0270 ,1.18419 ,0.57251 ,5.61742 
317 ,59.2190 ,1.18610 ,0.56224 ,5.51668 
318 ,59.4111 ,1.18795 ,0.56224 ,5.51668 
319 ,59.5873 ,1.18974 ,0.53828 ,5.28164 
320 ,59.7629 ,1.19155 ,0.52802 ,5.18090 
321 ,59.9390 ,1.19324 ,0.52117 ,5.11375 
322 ,60.1315 ,1.19506 ,0.51433 ,5.04659 
323 ,60.3394 ,1.19725 ,0.50406 ,4.94585 
324 ,60.5157 ,1.19903 ,0.50064 ,4.91228 
325 ,60.7074 ,1.20089 ,0.46642 ,4.57649 
326 ,60.8677 ,1.20266 ,0.45615 ,4.47576 
327 ,61.0438 ,1.20432 ,0.44246 ,4.34144 
328 ,61.2359 ,1.20619 ,0.43904 ,4.30787 
329 ,61.4276 ,1.20805 ,0.42877 ,4.20713 
330 ,61.6040 ,1.20990 ,0.40140 ,3.93850 
331 ,61.8122 ,1.21190 ,0.40140 ,3.93850 
332 ,61.9878 ,1.21374 ,0.38086 ,3.73703 
333 ,62.1803 ,1.21567 ,0.38086 ,3.73703 
334 ,62.3723 ,1.21754 ,0.37060 ,3.63630 
335 ,62.5483 ,1.21938 ,0.35349 ,3.46841 
336 ,62.7244 ,1.22111 ,0.33295 ,3.26694 
337 ,62.9167 ,1.22301 ,0.35691 ,3.50199 
338 ,63.1086 ,1.22489 ,0.32611 ,3.19978 
339 ,63.3007 ,1.22687 ,0.29531 ,2.89758 
340 ,63.4769 ,1.22862 ,0.30558 ,2.99831 
341 ,63.6530 ,1.23043 ,0.30900 ,3.03189 
342 ,63.8449 ,1.23236 ,0.27820 ,2.72969 
343 ,64.0366 ,1.23413 ,0.27478 ,2.69611 
344 ,64.2132 ,1.23599 ,0.27135 ,2.66253 
345 ,64.4213 ,1.23800 ,0.24398 ,2.39390 
346 ,64.6133 ,1.23991 ,0.22687 ,2.22601 
347 ,64.8214 ,1.24206 ,0.23029 ,2.25959 
348 ,65.0134 ,1.24394 ,0.20976 ,2.05812 
349 ,65.1893 ,1.24576 ,0.19607 ,1.92381 
350 ,65.3815 ,1.24761 ,0.19949 ,1.95738 
351 ,65.5577 ,1.24943 ,0.18580 ,1.82307 
352 ,65.7498 ,1.25131 ,0.15842 ,1.55445 
353 ,65.9419 ,1.25321 ,0.15842 ,1.55445 
354 ,66.1338 ,1.25506 ,0.14131 ,1.38655 
355 ,66.3260 ,1.25707 ,0.12762 ,1.25224 
356 ,66.5179 ,1.25899 ,0.13447 ,1.31940 
357 ,66.7259 ,1.26100 ,0.10709 ,1.05077 
358 ,66.9023 ,1.26287 ,0.10025 ,0.98361 
359 ,67.0941 ,1.26479 ,0.09340 ,0.91646 
360 ,67.2864 ,1.26667 ,0.09340 ,0.91646 
361 ,67.4625 ,1.26848 ,0.06945 ,0.68141 
362 ,67.6383 ,1.27022 ,0.06260 ,0.61425 
363 ,67.8147 ,1.27195 ,0.05234 ,0.51352 
364 ,68.0224 ,1.27393 ,0.03865 ,0.37920 
365 ,68.1987 ,1.27589 ,0.04891 ,0.47994 
366 ,68.3906 ,1.27775 ,0.02154 ,0.21131 
367 ,68.5826 ,1.27968 ,0.01811 ,0.17773 
368 ,68.7749 ,1.28161 ,0.01127 ,0.11058 
369 ,68.9670 ,1.28349 ,-0.01269 ,-0.12447 
370 ,69.1432 ,1.28529 ,-0.01269 ,-0.12447 
371 ,69.3350 ,1.28718 ,-0.01269 ,-0.12447 
372 ,69.5114 ,1.28899 ,-0.02295 ,-0.22520 
373 ,69.7029 ,1.29086 ,-0.05033 ,-0.49383 
374 ,69.8629 ,1.29260 ,-0.05033 ,-0.49383 
375 ,70.0230 ,1.29418 ,-0.05033 ,-0.49383 
376 ,70.1996 ,1.29587 ,-0.06744 ,-0.66172 
377 ,70.3917 ,1.29776 ,-0.07771 ,-0.76246 
378 ,70.5678 ,1.29950 ,-0.09140 ,-0.89677 
379 ,70.7440 ,1.30132 ,-0.09824 ,-0.96393 
380 ,70.9360 ,1.30322 ,-0.09482 ,-0.93035 
381 ,71.1277 ,1.30501 ,-0.11877 ,-1.16540 
382 ,71.3041 ,1.30687 ,-0.13246 ,-1.29971 
383 ,71.4799 ,1.30867 ,-0.13931 ,-1.36687 
384 ,71.6558 ,1.31042 ,-0.13931 ,-1.36687 
385 ,71.8323 ,1.31216 ,-0.15642 ,-1.53476 
386 ,72.0085 ,1.31390 ,-0.16668 ,-1.63549 
387 ,72.2005 ,1.31579 ,-0.17011 ,-1.66907 
388 ,72.3925 ,1.31773 ,-0.18037 ,-1.76981 
389 ,72.5843 ,1.31967 ,-0.19748 ,-1.93770 
390 ,72.7607 ,1.32148 ,-0.19748 ,-1.93770 
391 ,72.9528 ,1.32337 ,-0.20775 ,-2.03843 
392 ,73.1288 ,1.32509 ,-0.23170 ,-2.27348 
393 ,73.3049 ,1.32700 ,-0.21802 ,-2.13917 
394 ,73.4810 ,1.32865 ,-0.24197 ,-2.37422 
395 ,73.6569 ,1.33040 ,-0.24539 ,-2.40779 
396 ,73.8490 ,1.33229 ,-0.27619 ,-2.71000 
397 ,74.0733 ,1.33439 ,-0.28304 ,-2.77716 
398 ,74.2493 ,1.33629 ,-0.28988 ,-2.84431 
399 ,74.4414 ,1.33820 ,-0.28304 ,-2.77716 
400 ,74.6175 ,1.33997 ,-0.28646 ,-2.81073 
401 ,74.7932 ,1.34175 ,-0.28988 ,-2.84431 
402 ,74.9692 ,1.34350 ,-0.32410 ,-3.18010 
403 ,75.1457 ,1.34525 ,-0.33437 ,-3.28083 
404 ,75.3218 ,1.34707 ,-0.34464 ,-3.38156 
405 ,75.5139 ,1.34888 ,-0.35148 ,-3.44872 
406 ,75.7059 ,1.35080 ,-0.36517 ,-3.58303 
407 ,75.8660 ,1.35258 ,-0.36859 ,-3.61661 
408 ,76.0261 ,1.35420 ,-0.36517 ,-3.58303 
409 ,76.2022 ,1.35580 ,-0.38228 ,-3.75093 
410 ,76.3942 ,1.35777 ,-0.38228 ,-3.75093 
411 ,76.5704 ,1.35949 ,-0.40623 ,-3.98597 
412 ,76.7464 ,1.36128 ,-0.43703 ,-4.28818 
413 ,76.9545 ,1.36321 ,-0.40966 ,-4.01955 
414 ,77.1303 ,1.36515 ,-0.41992 ,-4.12029 
415 ,77.3227 ,1.36691 ,-0.45072 ,-4.42249 
416 ,77.4986 ,1.36879 ,-0.44730 ,-4.38891 
417 ,77.7068 ,1.37080 ,-0.45414 ,-4.45607 
418 ,77.8830 ,1.37265 ,-0.48152 ,-4.72470 
419 ,78.0750 ,1.37456 ,-0.46783 ,-4.59038 
420 ,78.2670 ,1.37647 ,-0.49863 ,-4.89259 
421 ,78.4429 ,1.37826 ,-0.49863 ,-4.89259 
422 ,78.6513 ,1.38019 ,-0.51232 ,-5.02690 
423 ,78.8432 ,1.38223 ,-0.51232 ,-5.02690 
424 ,79.0190 ,1.38395 ,-0.51574 ,-5.06048 
425 ,79.1952 ,1.38579 ,-0.52943 ,-5.19479 
426 ,79.3873 ,1.38768 ,-0.55339 ,-5.42984 
427 ,79.5793 ,1.38963 ,-0.55339 ,-5.42984 
428 ,79.8037 ,1.39159 ,-0.58761 ,-5.76562 
429 ,79.9956 ,1.39377 ,-0.57392 ,-5.63131 
430 ,80.1557 ,1.39548 ,-0.59788 ,-5.86636 
431 ,80.3318 ,1.39713 ,-0.58761 ,-5.76562 
432 ,80.5079 ,1.39883 ,-0.60814 ,-5.96709 
433 ,80.6839 ,1.40062 ,-0.60130 ,-5.89994 
434 ,80.8761 ,1.40252 ,-0.61499 ,-6.03425 
435 ,81.0521 ,1.40437 ,-0.62183 ,-6.10141 
436 ,81.2278 ,1.40605 ,-0.65263 ,-6.40361 
437 ,81.4042 ,1.40781 ,-0.62525 ,-6.13499 
438 ,81.6124 ,1.40975 ,-0.65263 ,-6.40361 
439 ,81.7881 ,1.41174 ,-0.65605 ,-6.43719 
440 ,81.9803 ,1.41360 ,-0.66632 ,-6.53793 
441 ,82.1726 ,1.41551 ,-0.67316 ,-6.60508 
442 ,82.3486 ,1.41731 ,-0.68685 ,-6.73940 
443 ,82.5406 ,1.41925 ,-0.68001 ,-6.67224 
444 ,82.7168 ,1.42096 ,-0.68685 ,-6.73940 
445 ,82.8929 ,1.42271 ,-0.70396 ,-6.90729 
446 ,83.0688 ,1.42450 ,-0.71765 ,-7.04160 
447 ,83.2606 ,1.42642 ,-0.70739 ,-6.94086 
448 ,83.4370 ,1.42813 ,-0.72107 ,-7.07518 
449 ,83.6292 ,1.43001 ,-0.74503 ,-7.31023 
450 ,83.8212 ,1.43190 ,-0.73476 ,-7.20949 
451 ,83.9973 ,1.43374 ,-0.74503 ,-7.31023 
452 ,84.1892 ,1.43565 ,-0.75530 ,-7.41096 
453 ,84.3651 ,1.43740 ,-0.78267 ,-7.67959 
454 ,84.5413 ,1.43923 ,-0.78610 ,-7.71317 
455 ,84.7172 ,1.44095 ,-0.77241 ,-7.57885 
456 ,84.9093 ,1.44278 ,-0.77925 ,-7.64601 
457 ,85.0857 ,1.44463 ,-0.79978 ,-7.84748 
458 ,85.2618 ,1.44643 ,-0.79978 ,-7.84748 
459 ,85.4375 ,1.44814 ,-0.79978 ,-7.84748 
460 ,85.6141 ,1.44990 ,-0.81005 ,-7.94821 
461 ,85.8061 ,1.45175 ,-0.81689 ,-8.01537 
462 ,85.9980 ,1.45378 ,-0.83058 ,-8.14968 
463 ,86.1737 ,1.45563 ,-0.87165 ,-8.55262 
