Data stamp = , 19-04-2022 23:48:53 973

Calibration Values: 
Slope = , 26.54 , g/V 
Offset Voltage at no contact = , -0.501760 , V 

No , Time , Stage Position ,   Mass , Force 
   ,  (s) ,      (mm)      ,   (g)  , (mN)  

1 ,0.0000 ,0.59935 ,5.32932 ,52.29126 
2 ,0.2127 ,0.59942 ,5.34301 ,52.42557 
3 ,0.7731 ,0.60114 ,5.35327 ,52.52631 
4 ,0.9812 ,0.60385 ,5.36696 ,52.66062 
5 ,1.1732 ,0.60583 ,5.33958 ,52.39199 
6 ,1.3492 ,0.60761 ,5.35327 ,52.52631 
7 ,1.5413 ,0.60942 ,5.34643 ,52.45915 
8 ,1.7334 ,0.61140 ,5.33274 ,52.32484 
9 ,1.9254 ,0.61334 ,5.32589 ,52.25768 
10 ,2.1015 ,0.61523 ,5.28483 ,51.85474 
11 ,2.2777 ,0.61693 ,5.27114 ,51.72043 
12 ,2.4537 ,0.61869 ,5.25745 ,51.58611 
13 ,2.6300 ,0.62047 ,5.25745 ,51.58611 
14 ,2.8058 ,0.62216 ,5.25061 ,51.51896 
15 ,3.0139 ,0.62418 ,5.20270 ,51.04886 
16 ,3.2060 ,0.62615 ,5.20270 ,51.04886 
17 ,3.3823 ,0.62790 ,5.18559 ,50.88097 
18 ,3.5902 ,0.62996 ,5.15821 ,50.61234 
19 ,3.7824 ,0.63198 ,5.15479 ,50.57876 
20 ,3.9583 ,0.63369 ,5.12399 ,50.27656 
21 ,4.1504 ,0.63557 ,5.10688 ,50.10867 
22 ,4.3425 ,0.63746 ,5.09661 ,50.00793 
23 ,4.5347 ,0.63942 ,5.06923 ,49.73931 
24 ,4.7266 ,0.64132 ,5.06239 ,49.67215 
25 ,4.9188 ,0.64326 ,5.03843 ,49.43710 
26 ,5.1109 ,0.64517 ,5.02132 ,49.26921 
27 ,5.2869 ,0.64699 ,5.00763 ,49.13490 
28 ,5.4628 ,0.64874 ,5.00421 ,49.10132 
29 ,5.6549 ,0.65059 ,4.96315 ,48.69838 
30 ,5.8311 ,0.65249 ,4.95288 ,48.59764 
31 ,6.0231 ,0.65427 ,4.94603 ,48.53049 
32 ,6.1991 ,0.65612 ,4.91523 ,48.22828 
33 ,6.3753 ,0.65791 ,4.90155 ,48.09397 
34 ,6.5675 ,0.65970 ,4.88101 ,47.89250 
35 ,6.7434 ,0.66157 ,4.84679 ,47.55672 
36 ,6.9355 ,0.66339 ,4.83995 ,47.48956 
37 ,7.1115 ,0.66526 ,4.81941 ,47.28809 
38 ,7.2876 ,0.66701 ,4.80915 ,47.18736 
39 ,7.4636 ,0.66877 ,4.79546 ,47.05304 
40 ,7.6558 ,0.67059 ,4.77493 ,46.85157 
41 ,7.8478 ,0.67250 ,4.76124 ,46.71726 
42 ,8.0239 ,0.67435 ,4.75782 ,46.68368 
43 ,8.1999 ,0.67612 ,4.73386 ,46.44863 
44 ,8.3761 ,0.67784 ,4.70306 ,46.14643 
45 ,8.5362 ,0.67957 ,4.68595 ,45.97854 
46 ,8.7123 ,0.68120 ,4.67911 ,45.91138 
47 ,8.9043 ,0.68307 ,4.67568 ,45.87780 
48 ,9.0803 ,0.68496 ,4.64831 ,45.60918 
49 ,9.2724 ,0.68677 ,4.61751 ,45.30697 
50 ,9.4646 ,0.68867 ,4.62093 ,45.34055 
51 ,9.6566 ,0.69060 ,4.59355 ,45.07192 
52 ,9.8487 ,0.69253 ,4.57644 ,44.90403 
53 ,10.0409 ,0.69444 ,4.56275 ,44.76972 
54 ,10.2328 ,0.69633 ,4.53195 ,44.46751 
55 ,10.4089 ,0.69818 ,4.52511 ,44.40036 
56 ,10.6010 ,0.70002 ,4.51826 ,44.33320 
57 ,10.7931 ,0.70194 ,4.48404 ,43.99742 
58 ,10.9851 ,0.70387 ,4.47720 ,43.93026 
59 ,11.1452 ,0.70569 ,4.46009 ,43.76237 
60 ,11.3374 ,0.70741 ,4.43271 ,43.49374 
61 ,11.5134 ,0.70929 ,4.42244 ,43.39301 
62 ,11.7055 ,0.71104 ,4.40875 ,43.25870 
63 ,11.8976 ,0.71298 ,4.39507 ,43.12438 
64 ,12.0897 ,0.71493 ,4.36427 ,42.82218 
65 ,12.2817 ,0.71687 ,4.36769 ,42.85576 
66 ,12.4738 ,0.71875 ,4.33347 ,42.51997 
67 ,12.6659 ,0.72067 ,4.33004 ,42.48639 
68 ,12.8580 ,0.72261 ,4.30609 ,42.25135 
69 ,13.0342 ,0.72443 ,4.28556 ,42.04988 
70 ,13.2261 ,0.72623 ,4.27187 ,41.91556 
71 ,13.4183 ,0.72822 ,4.24791 ,41.68051 
72 ,13.5943 ,0.73009 ,4.23765 ,41.57978 
73 ,13.7704 ,0.73175 ,4.21027 ,41.31115 
74 ,13.9465 ,0.73359 ,4.20685 ,41.27758 
75 ,14.1225 ,0.73529 ,4.18974 ,41.10968 
76 ,14.3145 ,0.73714 ,4.16578 ,40.87464 
77 ,14.4906 ,0.73907 ,4.15894 ,40.80748 
78 ,14.6828 ,0.74083 ,4.15551 ,40.77390 
79 ,14.8748 ,0.74273 ,4.10760 ,40.30380 
80 ,15.0509 ,0.74465 ,4.11787 ,40.40454 
81 ,15.2270 ,0.74636 ,4.08023 ,40.03518 
82 ,15.4030 ,0.74811 ,4.08023 ,40.03518 
83 ,15.5792 ,0.74987 ,4.06654 ,39.90087 
84 ,15.7551 ,0.75163 ,4.03574 ,39.59866 
85 ,15.9313 ,0.75345 ,4.02889 ,39.53150 
86 ,16.1233 ,0.75525 ,4.00494 ,39.29646 
87 ,16.2993 ,0.75707 ,4.00836 ,39.33003 
88 ,16.4914 ,0.75892 ,3.95703 ,38.82636 
89 ,16.6836 ,0.76083 ,3.97414 ,38.99425 
90 ,16.8756 ,0.76274 ,3.94676 ,38.72562 
91 ,17.0677 ,0.76469 ,3.91596 ,38.42342 
92 ,17.2599 ,0.76659 ,3.90912 ,38.35626 
93 ,17.4838 ,0.76876 ,3.89201 ,38.18837 
94 ,17.6762 ,0.77077 ,3.87832 ,38.05406 
95 ,17.8521 ,0.77264 ,3.85779 ,37.85259 
96 ,18.0283 ,0.77438 ,3.83041 ,37.58396 
97 ,18.3324 ,0.77678 ,3.83383 ,37.61754 
98 ,18.5083 ,0.77915 ,3.78934 ,37.18102 
99 ,18.6843 ,0.78094 ,3.78250 ,37.11387 
100 ,18.8764 ,0.78275 ,3.76539 ,36.94597 
101 ,19.0524 ,0.78465 ,3.73801 ,36.67735 
102 ,19.2287 ,0.78640 ,3.72432 ,36.54303 
103 ,19.4048 ,0.78812 ,3.70379 ,36.34157 
104 ,19.5807 ,0.78991 ,3.68668 ,36.17367 
105 ,19.7568 ,0.79158 ,3.69010 ,36.20725 
106 ,19.9488 ,0.79349 ,3.65930 ,35.90505 
107 ,20.1409 ,0.79539 ,3.63877 ,35.70358 
108 ,20.3170 ,0.79725 ,3.65246 ,35.83789 
109 ,20.4931 ,0.79908 ,3.62166 ,35.53569 
110 ,20.6851 ,0.80084 ,3.59770 ,35.30064 
111 ,20.8612 ,0.80276 ,3.59770 ,35.30064 
112 ,21.0532 ,0.80451 ,3.56348 ,34.96485 
113 ,21.2453 ,0.80641 ,3.55321 ,34.86412 
114 ,21.4216 ,0.80826 ,3.53610 ,34.69623 
115 ,21.6136 ,0.81008 ,3.51899 ,34.52834 
116 ,21.8056 ,0.81202 ,3.49846 ,34.32687 
117 ,21.9977 ,0.81394 ,3.50530 ,34.39402 
118 ,22.1737 ,0.81576 ,3.48135 ,34.15898 
119 ,22.3819 ,0.81770 ,3.46081 ,33.95751 
120 ,22.5740 ,0.81973 ,3.43686 ,33.72246 
121 ,22.7500 ,0.82155 ,3.41975 ,33.55457 
122 ,22.9261 ,0.82327 ,3.38210 ,33.18520 
123 ,23.1021 ,0.82515 ,3.40264 ,33.38667 
124 ,23.2783 ,0.82684 ,3.38553 ,33.21878 
125 ,23.4543 ,0.82861 ,3.35815 ,32.95016 
126 ,23.6303 ,0.83034 ,3.33762 ,32.74869 
127 ,23.8224 ,0.83219 ,3.33762 ,32.74869 
128 ,24.0145 ,0.83412 ,3.30682 ,32.44648 
129 ,24.2066 ,0.83604 ,3.28286 ,32.21143 
130 ,24.3826 ,0.83792 ,3.28628 ,32.24501 
131 ,24.5747 ,0.83971 ,3.26233 ,32.00996 
132 ,24.7508 ,0.84159 ,3.24864 ,31.87565 
133 ,24.9269 ,0.84325 ,3.22126 ,31.60702 
134 ,25.1031 ,0.84506 ,3.21100 ,31.50629 
135 ,25.2951 ,0.84693 ,3.21100 ,31.50629 
136 ,25.4871 ,0.84890 ,3.16993 ,31.10335 
137 ,25.6632 ,0.85073 ,3.16651 ,31.06977 
138 ,25.8394 ,0.85242 ,3.15624 ,30.96904 
139 ,26.0313 ,0.85429 ,3.12886 ,30.70041 
140 ,26.2235 ,0.85615 ,3.12544 ,30.66683 
141 ,26.4156 ,0.85818 ,3.11175 ,30.53252 
142 ,26.6078 ,0.86007 ,3.08438 ,30.26389 
143 ,26.7999 ,0.86194 ,3.08095 ,30.23031 
144 ,26.9759 ,0.86385 ,3.04673 ,29.89453 
145 ,27.1520 ,0.86561 ,3.04331 ,29.86095 
146 ,27.3440 ,0.86745 ,3.01935 ,29.62590 
147 ,27.5361 ,0.86934 ,3.00909 ,29.52517 
148 ,27.7122 ,0.87120 ,2.97487 ,29.18939 
149 ,27.8882 ,0.87290 ,2.97829 ,29.22297 
150 ,28.0803 ,0.87480 ,2.96118 ,29.05507 
151 ,28.2724 ,0.87666 ,2.94064 ,28.85360 
152 ,28.4644 ,0.87860 ,2.92696 ,28.71929 
153 ,28.6406 ,0.88044 ,2.91327 ,28.58498 
154 ,28.8325 ,0.88232 ,2.89616 ,28.41709 
155 ,29.0087 ,0.88411 ,2.88589 ,28.31635 
156 ,29.1845 ,0.88586 ,2.85509 ,28.01415 
157 ,29.3607 ,0.88764 ,2.83456 ,27.81268 
158 ,29.5369 ,0.88944 ,2.82771 ,27.74552 
159 ,29.7290 ,0.89125 ,2.81745 ,27.64479 
160 ,29.9210 ,0.89316 ,2.80376 ,27.51047 
161 ,30.1132 ,0.89507 ,2.78322 ,27.30900 
162 ,30.3052 ,0.89697 ,2.76269 ,27.10753 
163 ,30.4812 ,0.89889 ,2.76954 ,27.17469 
164 ,30.6734 ,0.90067 ,2.74900 ,26.97322 
165 ,30.8494 ,0.90250 ,2.72505 ,26.73817 
166 ,31.0253 ,0.90422 ,2.71136 ,26.60386 
167 ,31.2016 ,0.90603 ,2.69425 ,26.43597 
168 ,31.3936 ,0.90787 ,2.68056 ,26.30165 
169 ,31.5857 ,0.90981 ,2.65318 ,26.03303 
170 ,31.7777 ,0.91172 ,2.63607 ,25.86514 
171 ,31.9537 ,0.91361 ,2.62581 ,25.76440 
172 ,32.1458 ,0.91542 ,2.60869 ,25.59651 
173 ,32.3379 ,0.91734 ,2.59501 ,25.46220 
174 ,32.5141 ,0.91912 ,2.59158 ,25.42862 
175 ,32.6900 ,0.92097 ,2.55736 ,25.09283 
176 ,32.8822 ,0.92278 ,2.54025 ,24.92494 
177 ,33.0743 ,0.92466 ,2.56421 ,25.15999 
178 ,33.2662 ,0.92661 ,2.51972 ,24.72347 
179 ,33.4424 ,0.92842 ,2.50261 ,24.55558 
180 ,33.6345 ,0.93029 ,2.49918 ,24.52200 
181 ,33.8106 ,0.93215 ,2.48207 ,24.35411 
182 ,33.9865 ,0.93386 ,2.44785 ,24.01833 
183 ,34.1791 ,0.93568 ,2.43759 ,23.91759 
184 ,34.3710 ,0.93776 ,2.40679 ,23.61539 
185 ,34.5472 ,0.93944 ,2.41705 ,23.71612 
186 ,34.7231 ,0.94122 ,2.38968 ,23.44750 
187 ,34.8991 ,0.94302 ,2.38968 ,23.44750 
188 ,35.0914 ,0.94489 ,2.37941 ,23.34676 
189 ,35.2675 ,0.94667 ,2.34861 ,23.04456 
190 ,35.4435 ,0.94842 ,2.32808 ,22.84309 
191 ,35.6196 ,0.95015 ,2.32808 ,22.84309 
192 ,35.8118 ,0.95212 ,2.31097 ,22.67520 
193 ,35.9874 ,0.95384 ,2.28359 ,22.40657 
194 ,36.1800 ,0.95575 ,2.26990 ,22.27226 
195 ,36.3721 ,0.95773 ,2.25621 ,22.13794 
196 ,36.5801 ,0.95963 ,2.23910 ,21.97005 
197 ,36.7722 ,0.96168 ,2.22883 ,21.86932 
198 ,36.9643 ,0.96362 ,2.19803 ,21.56711 
199 ,37.1403 ,0.96540 ,2.18092 ,21.39922 
200 ,37.3163 ,0.96712 ,2.19803 ,21.56711 
201 ,37.4926 ,0.96891 ,2.17750 ,21.36564 
202 ,37.6844 ,0.97081 ,2.14328 ,21.02986 
203 ,37.8446 ,0.97253 ,2.13986 ,20.99628 
204 ,38.0207 ,0.97417 ,2.10906 ,20.69408 
205 ,38.2127 ,0.97604 ,2.11590 ,20.76123 
206 ,38.3888 ,0.97787 ,2.10906 ,20.69408 
207 ,38.5646 ,0.97958 ,2.06457 ,20.25756 
208 ,38.7730 ,0.98162 ,2.07826 ,20.39187 
209 ,38.9808 ,0.98372 ,2.03377 ,19.95535 
210 ,39.1572 ,0.98551 ,2.02693 ,19.88820 
211 ,39.3490 ,0.98747 ,2.03377 ,19.95535 
212 ,39.5570 ,0.98946 ,2.00982 ,19.72031 
213 ,39.7332 ,0.99134 ,1.99270 ,19.55241 
214 ,39.9415 ,0.99332 ,1.95506 ,19.18305 
215 ,40.1173 ,0.99515 ,1.95848 ,19.21663 
216 ,40.3092 ,0.99700 ,1.93453 ,18.98158 
217 ,40.4856 ,0.99882 ,1.91057 ,18.74654 
218 ,40.6618 ,1.00058 ,1.90373 ,18.67938 
219 ,40.8379 ,1.00230 ,1.88662 ,18.51149 
220 ,41.0300 ,1.00427 ,1.89004 ,18.54507 
221 ,41.2058 ,1.00603 ,1.86608 ,18.31002 
222 ,41.3815 ,1.00791 ,1.85582 ,18.20928 
223 ,41.5582 ,1.00956 ,1.83528 ,18.00781 
224 ,41.7503 ,1.01143 ,1.82502 ,17.90708 
225 ,41.9423 ,1.01335 ,1.78053 ,17.47056 
226 ,42.1504 ,1.01533 ,1.79764 ,17.63845 
227 ,42.3423 ,1.01737 ,1.76684 ,17.33625 
228 ,42.5185 ,1.01923 ,1.77026 ,17.36983 
229 ,42.6945 ,1.02089 ,1.74289 ,17.10120 
230 ,42.8707 ,1.02265 ,1.74631 ,17.13478 
231 ,43.0787 ,1.02469 ,1.70524 ,16.73184 
232 ,43.2708 ,1.02667 ,1.70866 ,16.76542 
233 ,43.4469 ,1.02841 ,1.68471 ,16.53037 
234 ,43.6551 ,1.03048 ,1.67786 ,16.46321 
235 ,43.8470 ,1.03243 ,1.66418 ,16.32890 
236 ,44.0231 ,1.03422 ,1.62653 ,15.95954 
237 ,44.2152 ,1.03610 ,1.61627 ,15.85880 
238 ,44.4073 ,1.03798 ,1.59916 ,15.69091 
239 ,44.5830 ,1.03978 ,1.59916 ,15.69091 
240 ,44.7594 ,1.04157 ,1.58204 ,15.52302 
241 ,44.9515 ,1.04345 ,1.58204 ,15.52302 
242 ,45.1433 ,1.04534 ,1.54782 ,15.18724 
243 ,45.3197 ,1.04712 ,1.53413 ,15.05292 
244 ,45.5116 ,1.04902 ,1.53071 ,15.01934 
245 ,45.6713 ,1.05078 ,1.51702 ,14.88503 
246 ,45.8478 ,1.05246 ,1.51360 ,14.85145 
247 ,46.0555 ,1.05448 ,1.47938 ,14.51567 
248 ,46.2480 ,1.05638 ,1.46911 ,14.41493 
249 ,46.4238 ,1.05819 ,1.44858 ,14.21346 
250 ,46.6001 ,1.05995 ,1.44174 ,14.14631 
251 ,46.7759 ,1.06167 ,1.42805 ,14.01199 
252 ,46.9523 ,1.06346 ,1.42805 ,14.01199 
253 ,47.1444 ,1.06542 ,1.40067 ,13.74337 
254 ,47.3363 ,1.06725 ,1.39383 ,13.67621 
255 ,47.5284 ,1.06922 ,1.38356 ,13.57548 
256 ,47.7207 ,1.07114 ,1.35960 ,13.34043 
257 ,47.9127 ,1.07301 ,1.36987 ,13.44116 
258 ,48.1048 ,1.07495 ,1.33907 ,13.13896 
259 ,48.2968 ,1.07683 ,1.33223 ,13.07180 
260 ,48.5210 ,1.07898 ,1.31512 ,12.90391 
261 ,48.7130 ,1.08104 ,1.30827 ,12.83675 
262 ,48.9046 ,1.08295 ,1.27747 ,12.53455 
263 ,49.0809 ,1.08477 ,1.25694 ,12.33308 
264 ,49.2733 ,1.08668 ,1.25694 ,12.33308 
265 ,49.4492 ,1.08849 ,1.22614 ,12.03088 
266 ,49.6254 ,1.09021 ,1.22956 ,12.06445 
267 ,49.8333 ,1.09225 ,1.23298 ,12.09803 
268 ,49.9935 ,1.09398 ,1.20903 ,11.86298 
269 ,50.1694 ,1.09564 ,1.18850 ,11.66151 
270 ,50.3617 ,1.09754 ,1.17481 ,11.52720 
271 ,50.5698 ,1.09958 ,1.16112 ,11.39289 
272 ,50.7456 ,1.10136 ,1.15427 ,11.32573 
273 ,50.9217 ,1.10315 ,1.14058 ,11.19142 
274 ,51.0977 ,1.10489 ,1.11321 ,10.92279 
275 ,51.2897 ,1.10675 ,1.12347 ,11.02353 
276 ,51.4658 ,1.10859 ,1.10294 ,10.82206 
277 ,51.6423 ,1.11038 ,1.09952 ,10.78848 
278 ,51.8182 ,1.11213 ,1.05845 ,10.38554 
279 ,52.0102 ,1.11404 ,1.06530 ,10.45270 
280 ,52.1860 ,1.11574 ,1.05845 ,10.38554 
281 ,52.3783 ,1.11771 ,1.02081 ,10.01618 
282 ,52.5701 ,1.11965 ,1.02765 ,10.08333 
283 ,52.7466 ,1.12141 ,1.02081 ,10.01618 
284 ,52.9227 ,1.12321 ,0.97974 ,9.61324 
285 ,53.0988 ,1.12488 ,0.97632 ,9.57966 
286 ,53.2750 ,1.12673 ,0.97632 ,9.57966 
287 ,53.4669 ,1.12856 ,0.96605 ,9.47892 
288 ,53.6750 ,1.13054 ,0.93868 ,9.21030 
289 ,53.8671 ,1.13252 ,0.93525 ,9.17672 
290 ,54.0591 ,1.13455 ,0.91472 ,8.97525 
291 ,54.2348 ,1.13627 ,0.89761 ,8.80736 
292 ,54.4112 ,1.13806 ,0.89077 ,8.74020 
293 ,54.5713 ,1.13978 ,0.89761 ,8.80736 
294 ,54.7475 ,1.14138 ,0.88734 ,8.70662 
295 ,54.9235 ,1.14322 ,0.88050 ,8.63947 
296 ,55.1155 ,1.14501 ,0.84628 ,8.30368 
297 ,55.2915 ,1.14685 ,0.83943 ,8.23653 
298 ,55.4837 ,1.14871 ,0.84286 ,8.27011 
299 ,55.6757 ,1.15067 ,0.80179 ,7.86717 
300 ,55.8520 ,1.15247 ,0.79152 ,7.76643 
301 ,56.0600 ,1.15443 ,0.78468 ,7.69927 
302 ,56.2521 ,1.15638 ,0.77784 ,7.63212 
303 ,56.4442 ,1.15826 ,0.77441 ,7.59854 
304 ,56.6199 ,1.16016 ,0.75730 ,7.43065 
305 ,56.8123 ,1.16199 ,0.74019 ,7.26276 
306 ,56.9881 ,1.16380 ,0.73677 ,7.22918 
307 ,57.1804 ,1.16568 ,0.71624 ,7.02771 
308 ,57.3564 ,1.16746 ,0.70255 ,6.89340 
309 ,57.5326 ,1.16934 ,0.67859 ,6.65835 
310 ,57.7246 ,1.17107 ,0.69228 ,6.79266 
311 ,57.9007 ,1.17292 ,0.67517 ,6.62477 
312 ,58.1089 ,1.17483 ,0.66490 ,6.52403 
313 ,58.3009 ,1.17683 ,0.63068 ,6.18825 
314 ,58.4930 ,1.17880 ,0.63410 ,6.22183 
315 ,58.6852 ,1.18072 ,0.62042 ,6.08752 
316 ,58.8931 ,1.18276 ,0.58962 ,5.78531 
317 ,59.0692 ,1.18454 ,0.58277 ,5.71815 
318 ,59.2772 ,1.18664 ,0.57935 ,5.68458 
319 ,59.4533 ,1.18842 ,0.54855 ,5.38237 
320 ,59.6291 ,1.19018 ,0.55197 ,5.41595 
321 ,59.8053 ,1.19192 ,0.54513 ,5.34879 
322 ,59.9976 ,1.19383 ,0.52802 ,5.18090 
323 ,60.1735 ,1.19569 ,0.51091 ,5.01301 
324 ,60.3497 ,1.19741 ,0.49037 ,4.81154 
325 ,60.5256 ,1.19912 ,0.49380 ,4.84512 
326 ,60.7018 ,1.20098 ,0.48011 ,4.71081 
327 ,60.8779 ,1.20264 ,0.48011 ,4.71081 
328 ,61.0541 ,1.20442 ,0.44588 ,4.37502 
329 ,61.2301 ,1.20622 ,0.43220 ,4.24071 
330 ,61.4058 ,1.20795 ,0.43562 ,4.27429 
331 ,61.5982 ,1.20989 ,0.43220 ,4.24071 
332 ,61.7741 ,1.21159 ,0.41509 ,4.07282 
333 ,61.9344 ,1.21334 ,0.38771 ,3.80419 
334 ,62.1104 ,1.21502 ,0.37402 ,3.66988 
335 ,62.3186 ,1.21691 ,0.37744 ,3.70346 
336 ,62.5104 ,1.21891 ,0.36375 ,3.56914 
337 ,62.7026 ,1.22086 ,0.36375 ,3.56914 
338 ,62.8627 ,1.22261 ,0.35349 ,3.46841 
339 ,63.0388 ,1.22430 ,0.33638 ,3.30052 
340 ,63.2149 ,1.22599 ,0.32269 ,3.16620 
341 ,63.3910 ,1.22782 ,0.30900 ,3.03189 
342 ,63.5830 ,1.22978 ,0.30900 ,3.03189 
343 ,63.7592 ,1.23145 ,0.29531 ,2.89758 
344 ,63.9349 ,1.23335 ,0.27135 ,2.66253 
345 ,64.1113 ,1.23497 ,0.27820 ,2.72969 
346 ,64.3034 ,1.23687 ,0.28504 ,2.79684 
347 ,64.4954 ,1.23875 ,0.25767 ,2.52822 
348 ,64.6874 ,1.24069 ,0.26793 ,2.62895 
349 ,64.8636 ,1.24249 ,0.25424 ,2.49464 
350 ,65.0556 ,1.24442 ,0.23713 ,2.32675 
351 ,65.2476 ,1.24633 ,0.23029 ,2.25959 
352 ,65.4397 ,1.24816 ,0.20633 ,2.02454 
353 ,65.6319 ,1.25009 ,0.20976 ,2.05812 
354 ,65.8239 ,1.25206 ,0.19949 ,1.95738 
355 ,66.0156 ,1.25395 ,0.18922 ,1.85665 
356 ,66.1916 ,1.25579 ,0.17211 ,1.68876 
357 ,66.3677 ,1.25756 ,0.14816 ,1.45371 
358 ,66.5438 ,1.25930 ,0.14816 ,1.45371 
359 ,66.7203 ,1.26112 ,0.16185 ,1.58802 
360 ,66.9284 ,1.26318 ,0.11393 ,1.11793 
361 ,67.1202 ,1.26498 ,0.13105 ,1.28582 
362 ,67.2964 ,1.26683 ,0.11051 ,1.08435 
363 ,67.4886 ,1.26874 ,0.07971 ,0.78214 
364 ,67.6648 ,1.27049 ,0.08314 ,0.81572 
365 ,67.8568 ,1.27234 ,0.07287 ,0.71499 
366 ,68.0649 ,1.27444 ,0.07971 ,0.78214 
367 ,68.2410 ,1.27625 ,0.06260 ,0.61425 
368 ,68.4171 ,1.27803 ,0.04549 ,0.44636 
369 ,68.6092 ,1.27994 ,0.02496 ,0.24489 
370 ,68.8172 ,1.28201 ,0.01811 ,0.17773 
371 ,68.9932 ,1.28379 ,0.00785 ,0.07700 
372 ,69.1694 ,1.28549 ,-0.01611 ,-0.15805 
373 ,69.3935 ,1.28762 ,0.00100 ,0.00984 
374 ,69.5855 ,1.28979 ,-0.00926 ,-0.09089 
375 ,69.7617 ,1.29147 ,-0.02295 ,-0.22520 
376 ,69.9537 ,1.29336 ,-0.05033 ,-0.49383 
377 ,70.1457 ,1.29532 ,-0.07086 ,-0.69530 
378 ,70.3215 ,1.29706 ,-0.05375 ,-0.52741 
379 ,70.4818 ,1.29881 ,-0.06744 ,-0.66172 
380 ,70.6901 ,1.30065 ,-0.08113 ,-0.79604 
381 ,70.8658 ,1.30250 ,-0.10851 ,-1.06466 
382 ,71.0581 ,1.30440 ,-0.10166 ,-0.99751 
383 ,71.2342 ,1.30620 ,-0.10166 ,-0.99751 
384 ,71.4098 ,1.30795 ,-0.13246 ,-1.29971 
385 ,71.6024 ,1.30977 ,-0.13588 ,-1.33329 
386 ,71.8105 ,1.31192 ,-0.15984 ,-1.56834 
387 ,71.9864 ,1.31370 ,-0.16668 ,-1.63549 
388 ,72.1787 ,1.31566 ,-0.15642 ,-1.53476 
389 ,72.3546 ,1.31737 ,-0.16668 ,-1.63549 
390 ,72.5464 ,1.31920 ,-0.18722 ,-1.83696 
391 ,72.7228 ,1.32108 ,-0.19748 ,-1.93770 
392 ,72.9147 ,1.32295 ,-0.21117 ,-2.07201 
393 ,73.1230 ,1.32495 ,-0.21802 ,-2.13917 
394 ,73.3146 ,1.32693 ,-0.23170 ,-2.27348 
395 ,73.4911 ,1.32872 ,-0.25224 ,-2.47495 
396 ,73.6511 ,1.33049 ,-0.26935 ,-2.64284 
397 ,73.8272 ,1.33212 ,-0.26250 ,-2.57569 
398 ,74.0194 ,1.33396 ,-0.25908 ,-2.54211 
399 ,74.2114 ,1.33586 ,-0.27277 ,-2.67642 
400 ,74.3874 ,1.33772 ,-0.28988 ,-2.84431 
401 ,74.5794 ,1.33963 ,-0.29673 ,-2.91147 
402 ,74.7557 ,1.34136 ,-0.28988 ,-2.84431 
403 ,74.9477 ,1.34336 ,-0.32752 ,-3.21367 
404 ,75.1559 ,1.34537 ,-0.32752 ,-3.21367 
405 ,75.3479 ,1.34722 ,-0.34464 ,-3.38156 
406 ,75.5239 ,1.34907 ,-0.36175 ,-3.54946 
407 ,75.7157 ,1.35095 ,-0.35148 ,-3.44872 
408 ,75.9080 ,1.35285 ,-0.37201 ,-3.65019 
409 ,76.0842 ,1.35467 ,-0.38228 ,-3.75093 
410 ,76.2922 ,1.35663 ,-0.36859 ,-3.61661 
411 ,76.4683 ,1.35853 ,-0.39255 ,-3.85166 
412 ,76.6604 ,1.36034 ,-0.41308 ,-4.05313 
413 ,76.8525 ,1.36235 ,-0.40623 ,-3.98597 
414 ,77.0445 ,1.36427 ,-0.43361 ,-4.25460 
415 ,77.2207 ,1.36605 ,-0.43019 ,-4.22102 
416 ,77.3962 ,1.36776 ,-0.42677 ,-4.18744 
417 ,77.5723 ,1.36955 ,-0.44730 ,-4.38891 
418 ,77.7483 ,1.37136 ,-0.46441 ,-4.55681 
419 ,77.9244 ,1.37305 ,-0.46441 ,-4.55681 
420 ,78.1005 ,1.37484 ,-0.47468 ,-4.65754 
421 ,78.2929 ,1.37675 ,-0.47810 ,-4.69112 
422 ,78.4851 ,1.37860 ,-0.50890 ,-4.99332 
423 ,78.6772 ,1.38063 ,-0.49521 ,-4.85901 
424 ,78.8693 ,1.38251 ,-0.50548 ,-4.95975 
425 ,79.0613 ,1.38443 ,-0.52601 ,-5.16121 
426 ,79.2372 ,1.38619 ,-0.51574 ,-5.06048 
427 ,79.4134 ,1.38796 ,-0.51574 ,-5.06048 
428 ,79.6056 ,1.38981 ,-0.54997 ,-5.39626 
429 ,79.8137 ,1.39189 ,-0.54997 ,-5.39626 
430 ,79.9896 ,1.39376 ,-0.56023 ,-5.49700 
431 ,80.1658 ,1.39558 ,-0.55339 ,-5.42984 
432 ,80.3580 ,1.39736 ,-0.56708 ,-5.56415 
433 ,80.5339 ,1.39918 ,-0.57050 ,-5.59773 
434 ,80.7099 ,1.40087 ,-0.58077 ,-5.69847 
435 ,80.8860 ,1.40269 ,-0.60814 ,-5.96709 
436 ,81.0623 ,1.40446 ,-0.61499 ,-6.03425 
437 ,81.2543 ,1.40632 ,-0.61156 ,-6.00067 
438 ,81.4622 ,1.40835 ,-0.61841 ,-6.06783 
439 ,81.6381 ,1.41023 ,-0.62868 ,-6.16856 
440 ,81.8143 ,1.41193 ,-0.62868 ,-6.16856 
441 ,82.0066 ,1.41384 ,-0.66290 ,-6.50435 
442 ,82.1982 ,1.41574 ,-0.65605 ,-6.43719 
443 ,82.3747 ,1.41756 ,-0.66290 ,-6.50435 
444 ,82.5824 ,1.41959 ,-0.67659 ,-6.63866 
445 ,82.7750 ,1.42148 ,-0.68343 ,-6.70582 
446 ,82.9830 ,1.42359 ,-0.70054 ,-6.87371 
447 ,83.1590 ,1.42539 ,-0.70396 ,-6.90729 
448 ,83.3510 ,1.42727 ,-0.71765 ,-7.04160 
449 ,83.5429 ,1.42924 ,-0.74845 ,-7.34380 
450 ,83.7191 ,1.43093 ,-0.72450 ,-7.10876 
451 ,83.8953 ,1.43276 ,-0.72792 ,-7.14233 
452 ,84.0714 ,1.43453 ,-0.73818 ,-7.24307 
453 ,84.2475 ,1.43625 ,-0.76898 ,-7.54527 
454 ,84.4395 ,1.43820 ,-0.77925 ,-7.64601 
455 ,84.6316 ,1.44015 ,-0.77241 ,-7.57885 
456 ,84.8397 ,1.44205 ,-0.78267 ,-7.67959 
457 ,85.0317 ,1.44415 ,-0.78952 ,-7.74674 
458 ,85.2078 ,1.44585 ,-0.81689 ,-8.01537 
459 ,85.3836 ,1.44772 ,-0.79978 ,-7.84748 
460 ,85.5759 ,1.44950 ,-0.83058 ,-8.14968 
461 ,85.7679 ,1.45146 ,-0.83058 ,-8.14968 
462 ,85.9601 ,1.45336 ,-0.82374 ,-8.08253 
463 ,86.1362 ,1.45514 ,-0.83743 ,-8.21684 
