Data stamp = , 20-04-2022 13:13:52 643

Calibration Values: 
Slope = , 26.54 , g/V 
Offset Voltage at no contact = , -0.501760 , V 

No , Time , Stage Position ,   Mass , Force 
   ,  (s) ,      (mm)      ,   (g)  , (mN)  

1 ,0.0000 ,0.59938 ,5.36696 ,52.66062 
2 ,0.2308 ,0.59946 ,5.35669 ,52.55988 
3 ,0.5513 ,0.60035 ,5.37038 ,52.69420 
4 ,0.7434 ,0.60187 ,5.36696 ,52.66062 
5 ,0.9351 ,0.60344 ,5.36354 ,52.62704 
6 ,1.1272 ,0.60543 ,5.34643 ,52.45915 
7 ,1.3036 ,0.60714 ,5.35327 ,52.52631 
8 ,1.5117 ,0.60916 ,5.35669 ,52.55988 
9 ,1.7036 ,0.61127 ,5.34643 ,52.45915 
10 ,1.8793 ,0.61292 ,5.31563 ,52.15694 
11 ,2.0559 ,0.61472 ,5.30878 ,52.08979 
12 ,2.2479 ,0.61663 ,5.28483 ,51.85474 
13 ,2.4239 ,0.61840 ,5.24718 ,51.48538 
14 ,2.5998 ,0.62015 ,5.25403 ,51.55254 
15 ,2.8081 ,0.62211 ,5.21296 ,51.14960 
16 ,2.9838 ,0.62399 ,5.20270 ,51.04886 
17 ,3.1602 ,0.62571 ,5.19927 ,51.01528 
18 ,3.3362 ,0.62751 ,5.16505 ,50.67950 
19 ,3.5124 ,0.62924 ,5.15479 ,50.57876 
20 ,3.7200 ,0.63117 ,5.14110 ,50.44445 
21 ,3.8966 ,0.63313 ,5.11714 ,50.20940 
22 ,4.0886 ,0.63501 ,5.07608 ,49.80646 
23 ,4.2648 ,0.63678 ,5.07608 ,49.80646 
24 ,4.4727 ,0.63869 ,5.03843 ,49.43710 
25 ,4.6489 ,0.64063 ,5.03501 ,49.40352 
26 ,4.8570 ,0.64256 ,5.01790 ,49.23563 
27 ,5.0491 ,0.64463 ,4.97683 ,48.83269 
28 ,5.2412 ,0.64647 ,4.97683 ,48.83269 
29 ,5.4493 ,0.64863 ,4.94261 ,48.49691 
30 ,5.6413 ,0.65055 ,4.94261 ,48.49691 
31 ,5.8174 ,0.65227 ,4.92892 ,48.36260 
32 ,6.0254 ,0.65437 ,4.89128 ,47.99324 
33 ,6.2011 ,0.65613 ,4.90155 ,48.09397 
34 ,6.3777 ,0.65794 ,4.87075 ,47.79177 
35 ,6.5854 ,0.65995 ,4.84679 ,47.55672 
36 ,6.7777 ,0.66186 ,4.83310 ,47.42240 
37 ,6.9698 ,0.66381 ,4.80915 ,47.18736 
38 ,7.1459 ,0.66555 ,4.78519 ,46.95231 
39 ,7.3215 ,0.66733 ,4.78177 ,46.91873 
40 ,7.5137 ,0.66916 ,4.74413 ,46.54937 
41 ,7.6900 ,0.67097 ,4.72359 ,46.34790 
42 ,7.8662 ,0.67276 ,4.71333 ,46.24716 
43 ,8.0584 ,0.67472 ,4.70306 ,46.14643 
44 ,8.2504 ,0.67654 ,4.68595 ,45.97854 
45 ,8.4265 ,0.67836 ,4.66199 ,45.74349 
46 ,8.6186 ,0.68030 ,4.65515 ,45.67633 
47 ,8.8106 ,0.68217 ,4.62777 ,45.40771 
48 ,8.9867 ,0.68400 ,4.60382 ,45.17266 
49 ,9.1625 ,0.68578 ,4.60724 ,45.20624 
50 ,9.3390 ,0.68747 ,4.59697 ,45.10550 
51 ,9.5307 ,0.68941 ,4.55249 ,44.66898 
52 ,9.7226 ,0.69130 ,4.54564 ,44.60183 
53 ,9.8991 ,0.69310 ,4.53537 ,44.50109 
54 ,10.1071 ,0.69517 ,4.51484 ,44.29962 
55 ,10.2988 ,0.69699 ,4.49431 ,44.09815 
56 ,10.4909 ,0.69909 ,4.46351 ,43.79595 
57 ,10.6992 ,0.70092 ,4.45666 ,43.72879 
58 ,10.9233 ,0.70318 ,4.42929 ,43.46016 
59 ,11.0994 ,0.70509 ,4.42929 ,43.46016 
60 ,11.2754 ,0.70686 ,4.41218 ,43.29227 
61 ,11.4675 ,0.70877 ,4.37453 ,42.92291 
62 ,11.6597 ,0.71069 ,4.37453 ,42.92291 
63 ,11.8518 ,0.71260 ,4.33689 ,42.55355 
64 ,12.0599 ,0.71461 ,4.33004 ,42.48639 
65 ,12.2358 ,0.71646 ,4.32320 ,42.41924 
66 ,12.4283 ,0.71841 ,4.28213 ,42.01630 
67 ,12.6357 ,0.72037 ,4.28213 ,42.01630 
68 ,12.8123 ,0.72220 ,4.25818 ,41.78125 
69 ,13.0202 ,0.72426 ,4.25476 ,41.74767 
70 ,13.2284 ,0.72620 ,4.21369 ,41.34473 
71 ,13.4042 ,0.72811 ,4.21711 ,41.37831 
72 ,13.6126 ,0.73018 ,4.16920 ,40.90821 
73 ,13.7882 ,0.73200 ,4.18974 ,41.10968 
74 ,13.9807 ,0.73384 ,4.16920 ,40.90821 
75 ,14.1888 ,0.73592 ,4.12129 ,40.43812 
76 ,14.3648 ,0.73771 ,4.10418 ,40.27023 
77 ,14.5889 ,0.73983 ,4.09391 ,40.16949 
78 ,14.7806 ,0.74178 ,4.08023 ,40.03518 
79 ,14.9571 ,0.74367 ,4.08707 ,40.10233 
80 ,15.1651 ,0.74570 ,4.04600 ,39.69940 
81 ,15.3574 ,0.74755 ,4.02889 ,39.53150 
82 ,15.5651 ,0.74968 ,4.01863 ,39.43077 
83 ,15.7571 ,0.75162 ,3.99809 ,39.22930 
84 ,15.9335 ,0.75344 ,3.97756 ,39.02783 
85 ,16.1256 ,0.75539 ,3.96045 ,38.85994 
86 ,16.3175 ,0.75732 ,3.93992 ,38.65847 
87 ,16.5097 ,0.75918 ,3.90912 ,38.35626 
88 ,16.7019 ,0.76112 ,3.91596 ,38.42342 
89 ,16.8935 ,0.76296 ,3.88858 ,38.15479 
90 ,17.0700 ,0.76478 ,3.86121 ,37.88617 
91 ,17.2782 ,0.76681 ,3.85436 ,37.81901 
92 ,17.4540 ,0.76863 ,3.84410 ,37.71828 
93 ,17.6301 ,0.77039 ,3.80987 ,37.38249 
94 ,17.8221 ,0.77230 ,3.80645 ,37.34891 
95 ,17.9819 ,0.77401 ,3.79961 ,37.28176 
96 ,18.1584 ,0.77568 ,3.78250 ,37.11387 
97 ,18.3504 ,0.77759 ,3.74143 ,36.71093 
98 ,18.5586 ,0.77956 ,3.73801 ,36.67735 
99 ,18.7507 ,0.78153 ,3.70721 ,36.37514 
100 ,18.9430 ,0.78349 ,3.71405 ,36.44230 
101 ,19.1347 ,0.78542 ,3.70379 ,36.34157 
102 ,19.3106 ,0.78715 ,3.66957 ,36.00578 
103 ,19.5189 ,0.78921 ,3.65246 ,35.83789 
104 ,19.7267 ,0.79126 ,3.63534 ,35.67000 
105 ,19.9031 ,0.79307 ,3.61823 ,35.50211 
106 ,20.1111 ,0.79513 ,3.59086 ,35.23348 
107 ,20.2873 ,0.79696 ,3.57717 ,35.09917 
108 ,20.4795 ,0.79890 ,3.57032 ,35.03201 
109 ,20.6715 ,0.80074 ,3.54295 ,34.76338 
110 ,20.8797 ,0.80273 ,3.53610 ,34.69623 
111 ,21.1035 ,0.80494 ,3.51899 ,34.52834 
112 ,21.2797 ,0.80684 ,3.50530 ,34.39402 
113 ,21.4557 ,0.80858 ,3.48477 ,34.19255 
114 ,21.6639 ,0.81055 ,3.46766 ,34.02466 
115 ,21.8401 ,0.81247 ,3.45739 ,33.92393 
116 ,22.0159 ,0.81425 ,3.44028 ,33.75604 
117 ,22.1920 ,0.81597 ,3.41290 ,33.48741 
118 ,22.3842 ,0.81786 ,3.39921 ,33.35310 
119 ,22.5603 ,0.81966 ,3.38895 ,33.25236 
120 ,22.7361 ,0.82139 ,3.36842 ,33.05089 
121 ,22.9123 ,0.82315 ,3.34788 ,32.84942 
122 ,23.0886 ,0.82495 ,3.33419 ,32.71511 
123 ,23.2965 ,0.82694 ,3.31024 ,32.48006 
124 ,23.4887 ,0.82881 ,3.29997 ,32.37933 
125 ,23.6807 ,0.83087 ,3.27944 ,32.17786 
126 ,23.8566 ,0.83257 ,3.27259 ,32.11070 
127 ,24.0488 ,0.83451 ,3.24180 ,31.80849 
128 ,24.2250 ,0.83629 ,3.24180 ,31.80849 
129 ,24.4167 ,0.83824 ,3.23495 ,31.74134 
130 ,24.5929 ,0.83997 ,3.19388 ,31.33840 
131 ,24.7692 ,0.84172 ,3.18362 ,31.23766 
132 ,24.9453 ,0.84353 ,3.17335 ,31.13693 
133 ,25.1374 ,0.84541 ,3.14940 ,30.90188 
134 ,25.3132 ,0.84718 ,3.14597 ,30.86830 
135 ,25.5050 ,0.84907 ,3.13913 ,30.80115 
136 ,25.6976 ,0.85092 ,3.12202 ,30.63325 
137 ,25.8735 ,0.85277 ,3.09806 ,30.39821 
138 ,26.0498 ,0.85452 ,3.08095 ,30.23031 
139 ,26.2259 ,0.85626 ,3.06726 ,30.09600 
140 ,26.4018 ,0.85806 ,3.06726 ,30.09600 
141 ,26.5776 ,0.85981 ,3.05358 ,29.96169 
142 ,26.7701 ,0.86165 ,3.01935 ,29.62590 
143 ,26.9462 ,0.86346 ,3.01593 ,29.59233 
144 ,27.1221 ,0.86526 ,3.00909 ,29.52517 
145 ,27.2977 ,0.86701 ,2.98171 ,29.25654 
146 ,27.4743 ,0.86878 ,2.94749 ,28.92076 
147 ,27.6660 ,0.87070 ,2.95091 ,28.95434 
148 ,27.8425 ,0.87243 ,2.93038 ,28.75287 
149 ,28.0503 ,0.87450 ,2.90985 ,28.55140 
150 ,28.2263 ,0.87630 ,2.90642 ,28.51782 
151 ,28.4027 ,0.87802 ,2.90300 ,28.48424 
152 ,28.5789 ,0.87984 ,2.87562 ,28.21562 
153 ,28.7546 ,0.88154 ,2.85851 ,28.04772 
154 ,28.9470 ,0.88347 ,2.84140 ,27.87983 
155 ,29.1389 ,0.88539 ,2.82429 ,27.71194 
156 ,29.3151 ,0.88720 ,2.80376 ,27.51047 
157 ,29.4911 ,0.88893 ,2.77980 ,27.27542 
158 ,29.6832 ,0.89092 ,2.78322 ,27.30900 
159 ,29.8592 ,0.89262 ,2.76954 ,27.17469 
160 ,30.0510 ,0.89452 ,2.74558 ,26.93964 
161 ,30.2431 ,0.89637 ,2.72163 ,26.70459 
162 ,30.4359 ,0.89836 ,2.70452 ,26.53670 
163 ,30.6112 ,0.90020 ,2.70109 ,26.50312 
164 ,30.8032 ,0.90196 ,2.67714 ,26.26807 
165 ,30.9958 ,0.90389 ,2.66687 ,26.16734 
166 ,31.1879 ,0.90593 ,2.65318 ,26.03303 
167 ,31.3799 ,0.90787 ,2.61212 ,25.63009 
168 ,31.5560 ,0.90957 ,2.61554 ,25.66367 
169 ,31.7322 ,0.91135 ,2.58816 ,25.39504 
170 ,31.9239 ,0.91317 ,2.58816 ,25.39504 
171 ,32.1003 ,0.91502 ,2.57105 ,25.22715 
172 ,32.3239 ,0.91701 ,2.56078 ,25.12641 
173 ,32.5165 ,0.91903 ,2.55052 ,25.02568 
174 ,32.7246 ,0.92119 ,2.52656 ,24.79063 
175 ,32.9327 ,0.92332 ,2.50603 ,24.58916 
176 ,33.1085 ,0.92520 ,2.49576 ,24.48842 
177 ,33.2847 ,0.92686 ,2.48207 ,24.35411 
178 ,33.4767 ,0.92871 ,2.44101 ,23.95117 
179 ,33.6528 ,0.93053 ,2.43074 ,23.85044 
180 ,33.8448 ,0.93233 ,2.42732 ,23.81686 
181 ,34.0370 ,0.93431 ,2.38968 ,23.44750 
182 ,34.2289 ,0.93628 ,2.39652 ,23.51465 
183 ,34.4212 ,0.93821 ,2.38968 ,23.44750 
184 ,34.6290 ,0.94012 ,2.35888 ,23.14529 
185 ,34.8050 ,0.94205 ,2.35545 ,23.11171 
186 ,34.9973 ,0.94391 ,2.32808 ,22.84309 
187 ,35.1729 ,0.94576 ,2.31439 ,22.70877 
188 ,35.3495 ,0.94751 ,2.29728 ,22.54088 
189 ,35.5576 ,0.94954 ,2.28017 ,22.37299 
190 ,35.7496 ,0.95146 ,2.28017 ,22.37299 
191 ,35.9420 ,0.95340 ,2.28017 ,22.37299 
192 ,36.1336 ,0.95524 ,2.22883 ,21.86932 
193 ,36.3100 ,0.95722 ,2.22199 ,21.80216 
194 ,36.5019 ,0.95897 ,2.22541 ,21.83574 
195 ,36.6779 ,0.96078 ,2.18435 ,21.43280 
196 ,36.8702 ,0.96269 ,2.17408 ,21.33206 
197 ,37.0782 ,0.96474 ,2.15012 ,21.09702 
198 ,37.2859 ,0.96674 ,2.14328 ,21.02986 
199 ,37.4624 ,0.96860 ,2.12959 ,20.89555 
200 ,37.6704 ,0.97067 ,2.11590 ,20.76123 
201 ,37.8626 ,0.97260 ,2.11590 ,20.76123 
202 ,38.0542 ,0.97448 ,2.06457 ,20.25756 
203 ,38.2307 ,0.97629 ,2.05088 ,20.12325 
204 ,38.4227 ,0.97811 ,2.04404 ,20.05609 
205 ,38.5988 ,0.97999 ,2.02008 ,19.82104 
206 ,38.7909 ,0.98184 ,2.03035 ,19.92178 
207 ,38.9830 ,0.98376 ,1.99955 ,19.61957 
208 ,39.1910 ,0.98585 ,1.97902 ,19.41810 
209 ,39.3673 ,0.98765 ,1.96533 ,19.28379 
210 ,39.5433 ,0.98946 ,1.92426 ,18.88085 
211 ,39.7192 ,0.99121 ,1.92768 ,18.91443 
212 ,39.8952 ,0.99290 ,1.92426 ,18.88085 
213 ,40.0715 ,0.99471 ,1.91057 ,18.74654 
214 ,40.2796 ,0.99672 ,1.89004 ,18.54507 
215 ,40.4717 ,0.99864 ,1.88662 ,18.51149 
216 ,40.6637 ,1.00060 ,1.88662 ,18.51149 
217 ,40.8713 ,1.00264 ,1.85240 ,18.17570 
218 ,41.0472 ,1.00453 ,1.84213 ,18.07497 
219 ,41.2233 ,1.00618 ,1.83186 ,17.97423 
220 ,41.4159 ,1.00805 ,1.80791 ,17.73919 
221 ,41.6237 ,1.01019 ,1.78053 ,17.47056 
222 ,41.8001 ,1.01198 ,1.77026 ,17.36983 
223 ,41.9763 ,1.01372 ,1.76000 ,17.26909 
224 ,42.2003 ,1.01581 ,1.74973 ,17.16836 
225 ,42.3925 ,1.01788 ,1.73262 ,17.00046 
226 ,42.5841 ,1.01987 ,1.72920 ,16.96689 
227 ,42.7606 ,1.02156 ,1.69498 ,16.63110 
228 ,42.9366 ,1.02335 ,1.67786 ,16.46321 
229 ,43.1125 ,1.02508 ,1.67444 ,16.42963 
230 ,43.2887 ,1.02682 ,1.66760 ,16.36248 
231 ,43.4646 ,1.02863 ,1.65391 ,16.22816 
232 ,43.6570 ,1.03052 ,1.63338 ,16.02669 
233 ,43.8487 ,1.03237 ,1.63680 ,16.06027 
234 ,44.0249 ,1.03419 ,1.61969 ,15.89238 
235 ,44.2011 ,1.03597 ,1.59231 ,15.62375 
236 ,44.3772 ,1.03777 ,1.56151 ,15.32155 
237 ,44.5690 ,1.03966 ,1.57862 ,15.48944 
238 ,44.7614 ,1.04161 ,1.55467 ,15.25439 
239 ,44.9536 ,1.04344 ,1.55124 ,15.22081 
240 ,45.1615 ,1.04555 ,1.52045 ,14.91861 
241 ,45.3375 ,1.04734 ,1.51018 ,14.81787 
242 ,45.5137 ,1.04909 ,1.49649 ,14.68356 
243 ,45.6896 ,1.05087 ,1.50333 ,14.75072 
244 ,45.8655 ,1.05260 ,1.47938 ,14.51567 
245 ,46.0419 ,1.05437 ,1.45885 ,14.31420 
246 ,46.2178 ,1.05615 ,1.44858 ,14.21346 
247 ,46.3938 ,1.05785 ,1.43831 ,14.11273 
248 ,46.5700 ,1.05964 ,1.42805 ,14.01199 
249 ,46.7462 ,1.06142 ,1.41436 ,13.87768 
250 ,46.9221 ,1.06316 ,1.39725 ,13.70979 
251 ,47.1304 ,1.06508 ,1.38698 ,13.60906 
252 ,47.3222 ,1.06712 ,1.36987 ,13.44116 
253 ,47.4985 ,1.06894 ,1.35618 ,13.30685 
254 ,47.6904 ,1.07088 ,1.35276 ,13.27327 
255 ,47.8826 ,1.07273 ,1.33565 ,13.10538 
256 ,48.0582 ,1.07452 ,1.31854 ,12.93749 
257 ,48.2352 ,1.07630 ,1.30827 ,12.83675 
258 ,48.4268 ,1.07814 ,1.29800 ,12.73602 
259 ,48.6190 ,1.08005 ,1.27747 ,12.53455 
260 ,48.8271 ,1.08218 ,1.27405 ,12.50097 
261 ,49.0031 ,1.08394 ,1.24667 ,12.23235 
262 ,49.1949 ,1.08594 ,1.24325 ,12.19877 
263 ,49.3709 ,1.08767 ,1.23641 ,12.13161 
264 ,49.5474 ,1.08942 ,1.23983 ,12.16519 
265 ,49.7394 ,1.09129 ,1.18507 ,11.62794 
266 ,49.9316 ,1.09323 ,1.19534 ,11.72867 
267 ,50.1076 ,1.09503 ,1.18165 ,11.59436 
268 ,50.2836 ,1.09681 ,1.16112 ,11.39289 
269 ,50.4754 ,1.09871 ,1.14401 ,11.22500 
270 ,50.6517 ,1.10044 ,1.15427 ,11.32573 
271 ,50.8277 ,1.10222 ,1.13032 ,11.09068 
272 ,51.0040 ,1.10397 ,1.11321 ,10.92279 
273 ,51.2119 ,1.10598 ,1.10979 ,10.88921 
274 ,51.3881 ,1.10782 ,1.10294 ,10.82206 
275 ,51.5962 ,1.10984 ,1.06872 ,10.48627 
276 ,51.7883 ,1.11187 ,1.06872 ,10.48627 
277 ,51.9801 ,1.11376 ,1.05161 ,10.31838 
278 ,52.1565 ,1.11554 ,1.02765 ,10.08333 
279 ,52.3321 ,1.11732 ,1.02423 ,10.04976 
280 ,52.5085 ,1.11907 ,1.01396 ,9.94902 
281 ,52.7007 ,1.12093 ,0.99343 ,9.74755 
282 ,52.8768 ,1.12273 ,0.96948 ,9.51250 
283 ,53.0529 ,1.12448 ,0.97290 ,9.54608 
284 ,53.2449 ,1.12630 ,0.95237 ,9.34461 
285 ,53.4526 ,1.12838 ,0.95921 ,9.41177 
286 ,53.6286 ,1.13023 ,0.93868 ,9.21030 
287 ,53.8212 ,1.13213 ,0.91472 ,8.97525 
288 ,54.0292 ,1.13418 ,0.90788 ,8.90809 
289 ,54.2051 ,1.13600 ,0.90788 ,8.90809 
290 ,54.3974 ,1.13787 ,0.88050 ,8.63947 
291 ,54.5892 ,1.13985 ,0.88050 ,8.63947 
292 ,54.7975 ,1.14179 ,0.85997 ,8.43800 
293 ,54.9897 ,1.14385 ,0.84970 ,8.33726 
294 ,55.1816 ,1.14570 ,0.82232 ,8.06864 
295 ,55.3578 ,1.14750 ,0.80863 ,7.93432 
296 ,55.5655 ,1.14950 ,0.80179 ,7.86717 
297 ,55.7579 ,1.15147 ,0.78468 ,7.69927 
298 ,55.9659 ,1.15350 ,0.77099 ,7.56496 
299 ,56.1422 ,1.15530 ,0.77441 ,7.59854 
300 ,56.3341 ,1.15721 ,0.76757 ,7.53138 
301 ,56.5260 ,1.15912 ,0.75388 ,7.39707 
302 ,56.7179 ,1.16106 ,0.73335 ,7.19560 
303 ,56.8941 ,1.16284 ,0.71966 ,7.06129 
304 ,57.0704 ,1.16465 ,0.72992 ,7.16202 
305 ,57.2463 ,1.16634 ,0.71966 ,7.06129 
306 ,57.4227 ,1.16816 ,0.68886 ,6.75908 
307 ,57.5986 ,1.16994 ,0.66833 ,6.55761 
308 ,57.7743 ,1.17169 ,0.66148 ,6.49046 
309 ,57.9509 ,1.17343 ,0.67517 ,6.62477 
310 ,58.1589 ,1.17540 ,0.63410 ,6.22183 
311 ,58.3509 ,1.17740 ,0.63410 ,6.22183 
312 ,58.5270 ,1.17919 ,0.63410 ,6.22183 
313 ,58.7189 ,1.18112 ,0.59988 ,5.88605 
314 ,58.9107 ,1.18300 ,0.61015 ,5.98678 
315 ,59.0873 ,1.18476 ,0.59304 ,5.81889 
316 ,59.2794 ,1.18668 ,0.56566 ,5.55026 
317 ,59.4554 ,1.18843 ,0.56908 ,5.58384 
318 ,59.6314 ,1.19023 ,0.56224 ,5.51668 
319 ,59.7912 ,1.19192 ,0.55197 ,5.41595 
320 ,59.9832 ,1.19367 ,0.53144 ,5.21448 
321 ,60.1754 ,1.19560 ,0.52117 ,5.11375 
322 ,60.3518 ,1.19744 ,0.50748 ,4.97943 
323 ,60.5436 ,1.19934 ,0.49380 ,4.84512 
324 ,60.7354 ,1.20129 ,0.48353 ,4.74438 
325 ,60.9119 ,1.20296 ,0.48353 ,4.74438 
326 ,61.1041 ,1.20489 ,0.46300 ,4.54291 
327 ,61.2801 ,1.20670 ,0.44246 ,4.34144 
328 ,61.4563 ,1.20847 ,0.43220 ,4.24071 
329 ,61.6482 ,1.21030 ,0.43904 ,4.30787 
330 ,61.8403 ,1.21226 ,0.40140 ,3.93850 
331 ,62.0161 ,1.21407 ,0.39455 ,3.87135 
332 ,62.2083 ,1.21600 ,0.40482 ,3.97208 
333 ,62.4163 ,1.21808 ,0.35691 ,3.50199 
334 ,62.6087 ,1.21989 ,0.37402 ,3.66988 
335 ,62.8005 ,1.22194 ,0.35006 ,3.43483 
336 ,63.0088 ,1.22384 ,0.33980 ,3.33410 
337 ,63.1846 ,1.22583 ,0.32611 ,3.19978 
338 ,63.3609 ,1.22750 ,0.31926 ,3.13263 
339 ,63.5372 ,1.22927 ,0.28504 ,2.79684 
340 ,63.7290 ,1.23110 ,0.30215 ,2.96473 
341 ,63.9212 ,1.23312 ,0.28162 ,2.76326 
342 ,64.1131 ,1.23500 ,0.27478 ,2.69611 
343 ,64.3052 ,1.23684 ,0.26451 ,2.59537 
344 ,64.5133 ,1.23895 ,0.26109 ,2.56179 
345 ,64.6895 ,1.24079 ,0.24055 ,2.36032 
346 ,64.8496 ,1.24248 ,0.22344 ,2.19243 
347 ,65.0419 ,1.24424 ,0.21660 ,2.12528 
348 ,65.2336 ,1.24617 ,0.21318 ,2.09170 
349 ,65.4260 ,1.24812 ,0.20976 ,2.05812 
350 ,65.6336 ,1.25019 ,0.18238 ,1.78949 
351 ,65.8102 ,1.25200 ,0.17896 ,1.75592 
352 ,66.0021 ,1.25394 ,0.15842 ,1.55445 
353 ,66.1784 ,1.25567 ,0.15842 ,1.55445 
354 ,66.3699 ,1.25758 ,0.15158 ,1.48729 
355 ,66.5785 ,1.25952 ,0.12762 ,1.25224 
356 ,66.7707 ,1.26160 ,0.12762 ,1.25224 
357 ,66.9626 ,1.26348 ,0.10367 ,1.01719 
358 ,67.1388 ,1.26528 ,0.08656 ,0.84930 
359 ,67.3143 ,1.26714 ,0.09340 ,0.91646 
360 ,67.4904 ,1.26876 ,0.08998 ,0.88288 
361 ,67.6505 ,1.27048 ,0.06945 ,0.68141 
362 ,67.8265 ,1.27214 ,0.06945 ,0.68141 
363 ,68.0031 ,1.27387 ,0.04891 ,0.47994 
364 ,68.1789 ,1.27570 ,0.03522 ,0.34563 
365 ,68.3551 ,1.27745 ,0.03522 ,0.34563 
366 ,68.5473 ,1.27934 ,0.03180 ,0.31205 
367 ,68.7233 ,1.28109 ,0.01469 ,0.14416 
368 ,68.9153 ,1.28297 ,0.00785 ,0.07700 
369 ,69.1071 ,1.28491 ,-0.01269 ,-0.12447 
370 ,69.2998 ,1.28676 ,-0.00926 ,-0.09089 
371 ,69.5075 ,1.28884 ,-0.02295 ,-0.22520 
372 ,69.6836 ,1.29069 ,-0.04348 ,-0.42667 
373 ,69.8915 ,1.29276 ,-0.03322 ,-0.32594 
374 ,70.0836 ,1.29466 ,-0.07428 ,-0.72888 
375 ,70.2599 ,1.29648 ,-0.08113 ,-0.79604 
376 ,70.4519 ,1.29832 ,-0.06744 ,-0.66172 
377 ,70.6277 ,1.30017 ,-0.07771 ,-0.76246 
378 ,70.8039 ,1.30190 ,-0.10166 ,-0.99751 
379 ,70.9801 ,1.30378 ,-0.11877 ,-1.16540 
380 ,71.1562 ,1.30540 ,-0.12219 ,-1.19898 
381 ,71.3322 ,1.30722 ,-0.11535 ,-1.13182 
382 ,71.5243 ,1.30903 ,-0.14957 ,-1.46760 
383 ,71.7002 ,1.31085 ,-0.14957 ,-1.46760 
384 ,71.8925 ,1.31273 ,-0.15299 ,-1.50118 
385 ,72.1006 ,1.31482 ,-0.17695 ,-1.73623 
386 ,72.2925 ,1.31686 ,-0.16668 ,-1.63549 
387 ,72.4688 ,1.31853 ,-0.17695 ,-1.73623 
388 ,72.6768 ,1.32062 ,-0.20433 ,-2.00485 
389 ,72.8527 ,1.32243 ,-0.21117 ,-2.07201 
390 ,73.0290 ,1.32413 ,-0.21459 ,-2.10559 
391 ,73.2208 ,1.32603 ,-0.23855 ,-2.34064 
392 ,73.4449 ,1.32805 ,-0.23855 ,-2.34064 
393 ,73.6211 ,1.33005 ,-0.25908 ,-2.54211 
394 ,73.7973 ,1.33183 ,-0.27619 ,-2.71000 
395 ,73.9732 ,1.33353 ,-0.27619 ,-2.71000 
396 ,74.1653 ,1.33543 ,-0.28988 ,-2.84431 
397 ,74.3416 ,1.33725 ,-0.30015 ,-2.94505 
398 ,74.5497 ,1.33932 ,-0.30015 ,-2.94505 
399 ,74.7575 ,1.34136 ,-0.31726 ,-3.11294 
400 ,74.9334 ,1.34323 ,-0.32068 ,-3.14652 
401 ,75.1096 ,1.34496 ,-0.32752 ,-3.21367 
402 ,75.3179 ,1.34699 ,-0.35148 ,-3.44872 
403 ,75.5099 ,1.34885 ,-0.34464 ,-3.38156 
404 ,75.7020 ,1.35085 ,-0.36859 ,-3.61661 
405 ,75.8781 ,1.35263 ,-0.37201 ,-3.65019 
406 ,76.0539 ,1.35438 ,-0.36517 ,-3.58303 
407 ,76.2303 ,1.35615 ,-0.37886 ,-3.71735 
408 ,76.4223 ,1.35814 ,-0.39939 ,-3.91882 
409 ,76.5985 ,1.35987 ,-0.41992 ,-4.12029 
410 ,76.7905 ,1.36169 ,-0.40623 ,-3.98597 
411 ,76.9666 ,1.36350 ,-0.43019 ,-4.22102 
412 ,77.1423 ,1.36525 ,-0.43361 ,-4.25460 
413 ,77.3186 ,1.36706 ,-0.44388 ,-4.35534 
414 ,77.4948 ,1.36875 ,-0.44046 ,-4.32176 
415 ,77.6709 ,1.37055 ,-0.44046 ,-4.32176 
416 ,77.8627 ,1.37257 ,-0.47468 ,-4.65754 
417 ,78.0551 ,1.37427 ,-0.48837 ,-4.79185 
418 ,78.2468 ,1.37633 ,-0.49521 ,-4.85901 
419 ,78.4232 ,1.37803 ,-0.49863 ,-4.89259 
420 ,78.6309 ,1.38007 ,-0.50206 ,-4.92617 
421 ,78.8072 ,1.38189 ,-0.50206 ,-4.92617 
422 ,78.9994 ,1.38383 ,-0.52943 ,-5.19479 
423 ,79.2075 ,1.38582 ,-0.53970 ,-5.29553 
424 ,79.3833 ,1.38764 ,-0.53628 ,-5.26195 
425 ,79.5917 ,1.38974 ,-0.55339 ,-5.42984 
426 ,79.7835 ,1.39167 ,-0.57050 ,-5.59773 
427 ,79.9597 ,1.39342 ,-0.57734 ,-5.66489 
428 ,80.1359 ,1.39522 ,-0.58419 ,-5.73205 
429 ,80.3116 ,1.39694 ,-0.59103 ,-5.79920 
430 ,80.4880 ,1.39874 ,-0.59445 ,-5.83278 
431 ,80.6959 ,1.40070 ,-0.60472 ,-5.93352 
432 ,80.9042 ,1.40272 ,-0.62868 ,-6.16856 
433 ,81.1123 ,1.40481 ,-0.61841 ,-6.06783 
434 ,81.2880 ,1.40677 ,-0.63894 ,-6.26930 
435 ,81.4641 ,1.40844 ,-0.64579 ,-6.33646 
436 ,81.6565 ,1.41035 ,-0.65605 ,-6.43719 
437 ,81.8644 ,1.41239 ,-0.65263 ,-6.40361 
438 ,82.0408 ,1.41425 ,-0.67316 ,-6.60508 
439 ,82.2168 ,1.41599 ,-0.67659 ,-6.63866 
440 ,82.4084 ,1.41793 ,-0.67659 ,-6.63866 
441 ,82.5849 ,1.41967 ,-0.68343 ,-6.70582 
442 ,82.7769 ,1.42155 ,-0.70054 ,-6.87371 
443 ,82.9530 ,1.42339 ,-0.70739 ,-6.94086 
444 ,83.1292 ,1.42508 ,-0.70054 ,-6.87371 
445 ,83.3209 ,1.42703 ,-0.74161 ,-7.27665 
446 ,83.5289 ,1.42900 ,-0.73134 ,-7.17591 
447 ,83.7050 ,1.43088 ,-0.74845 ,-7.34380 
448 ,83.8974 ,1.43279 ,-0.75530 ,-7.41096 
449 ,84.0735 ,1.43454 ,-0.74845 ,-7.34380 
450 ,84.2656 ,1.43647 ,-0.77241 ,-7.57885 
451 ,84.4575 ,1.43827 ,-0.76898 ,-7.54527 
452 ,84.6333 ,1.44017 ,-0.78267 ,-7.67959 
453 ,84.8097 ,1.44193 ,-0.79636 ,-7.81390 
454 ,85.0018 ,1.44381 ,-0.81689 ,-8.01537 
455 ,85.1936 ,1.44568 ,-0.81005 ,-7.94821 
456 ,85.3699 ,1.44750 ,-0.81689 ,-8.01537 
457 ,85.5779 ,1.44960 ,-0.83743 ,-8.21684 
458 ,85.7702 ,1.45149 ,-0.83058 ,-8.14968 
459 ,85.9458 ,1.45329 ,-0.84769 ,-8.31758 
460 ,86.1220 ,1.45502 ,-0.86138 ,-8.45189 
461 ,86.2984 ,1.45681 ,-0.87849 ,-8.61978 
462 ,86.4745 ,1.45859 ,-0.86481 ,-8.48547 
463 ,86.6506 ,1.46030 ,-0.86823 ,-8.51904 
