Data stamp = , 19-04-2022 21:55:55 096

Calibration Values: 
Slope = , 26.54 , g/V 
Offset Voltage at no contact = , -0.501760 , V 

No , Time , Stage Position ,   Mass , Force 
   ,  (s) ,      (mm)      ,   (g)  , (mN)  

1 ,0.0000 ,0.64937 ,4.98368 ,48.89985 
2 ,0.2172 ,0.64946 ,4.98026 ,48.86627 
3 ,0.5375 ,0.65032 ,4.95972 ,48.66480 
4 ,0.7457 ,0.65188 ,4.96999 ,48.76554 
5 ,0.9375 ,0.65352 ,4.99052 ,48.96701 
6 ,1.1136 ,0.65538 ,4.96315 ,48.69838 
7 ,1.2898 ,0.65696 ,4.97341 ,48.79911 
8 ,1.4659 ,0.65874 ,4.96999 ,48.76554 
9 ,1.6580 ,0.66070 ,4.97341 ,48.79911 
10 ,1.8660 ,0.66272 ,4.94946 ,48.56407 
11 ,2.0743 ,0.66475 ,4.91866 ,48.26186 
12 ,2.2662 ,0.66676 ,4.89812 ,48.06039 
13 ,2.4743 ,0.66884 ,4.89470 ,48.02681 
14 ,2.6664 ,0.67077 ,4.86048 ,47.69103 
15 ,2.8741 ,0.67285 ,4.85706 ,47.65745 
16 ,3.0664 ,0.67478 ,4.81941 ,47.28809 
17 ,3.2426 ,0.67655 ,4.79546 ,47.05304 
18 ,3.4188 ,0.67833 ,4.80915 ,47.18736 
19 ,3.6107 ,0.68024 ,4.78519 ,46.95231 
20 ,3.7868 ,0.68196 ,4.75097 ,46.61653 
21 ,3.9790 ,0.68381 ,4.72702 ,46.38148 
22 ,4.1710 ,0.68578 ,4.72017 ,46.31432 
23 ,4.3471 ,0.68757 ,4.70648 ,46.18001 
24 ,4.5392 ,0.68956 ,4.70306 ,46.14643 
25 ,4.7149 ,0.69128 ,4.67568 ,45.87780 
26 ,4.9069 ,0.69318 ,4.66199 ,45.74349 
27 ,5.0829 ,0.69493 ,4.64146 ,45.54202 
28 ,5.2751 ,0.69678 ,4.61751 ,45.30697 
29 ,5.4511 ,0.69871 ,4.59355 ,45.07192 
30 ,5.6277 ,0.70046 ,4.57986 ,44.93761 
31 ,5.8195 ,0.70234 ,4.57644 ,44.90403 
32 ,5.9957 ,0.70406 ,4.55249 ,44.66898 
33 ,6.1881 ,0.70600 ,4.54222 ,44.56825 
34 ,6.3796 ,0.70792 ,4.50115 ,44.16531 
35 ,6.5560 ,0.70971 ,4.50457 ,44.19889 
36 ,6.7800 ,0.71177 ,4.46693 ,43.82953 
37 ,6.9882 ,0.71397 ,4.46009 ,43.76237 
38 ,7.1802 ,0.71582 ,4.43613 ,43.52732 
39 ,7.3726 ,0.71786 ,4.43955 ,43.56090 
40 ,7.5642 ,0.71974 ,4.40533 ,43.22512 
41 ,7.7405 ,0.72155 ,4.38480 ,43.02365 
42 ,7.9166 ,0.72328 ,4.36769 ,42.85576 
43 ,8.1084 ,0.72519 ,4.37111 ,42.88933 
44 ,8.2847 ,0.72696 ,4.32662 ,42.45282 
45 ,8.4768 ,0.72889 ,4.32320 ,42.41924 
46 ,8.6847 ,0.73088 ,4.29582 ,42.15061 
47 ,8.8609 ,0.73274 ,4.29240 ,42.11703 
48 ,9.1969 ,0.73608 ,4.26160 ,41.81483 
49 ,9.3727 ,0.73783 ,4.23765 ,41.57978 
50 ,9.5326 ,0.73958 ,4.24107 ,41.61336 
51 ,9.7087 ,0.74120 ,4.22738 ,41.47905 
52 ,9.8851 ,0.74297 ,4.18974 ,41.10968 
53 ,10.0935 ,0.74502 ,4.17605 ,40.97537 
54 ,10.2696 ,0.74685 ,4.16920 ,40.90821 
55 ,10.4616 ,0.74876 ,4.13156 ,40.53885 
56 ,10.6535 ,0.75060 ,4.13156 ,40.53885 
57 ,10.8298 ,0.75240 ,4.10760 ,40.30380 
58 ,11.0218 ,0.75433 ,4.09049 ,40.13591 
59 ,11.2138 ,0.75624 ,4.06654 ,39.90087 
60 ,11.4378 ,0.75832 ,4.04943 ,39.73297 
61 ,11.6299 ,0.76041 ,4.03574 ,39.59866 
62 ,11.8057 ,0.76211 ,4.02889 ,39.53150 
63 ,11.9820 ,0.76391 ,4.01178 ,39.36361 
64 ,12.1740 ,0.76583 ,3.97756 ,39.02783 
65 ,12.3502 ,0.76762 ,3.96387 ,38.89352 
66 ,12.5262 ,0.76934 ,3.94676 ,38.72562 
67 ,12.7024 ,0.77112 ,3.93650 ,38.62489 
68 ,12.8626 ,0.77284 ,3.90570 ,38.32268 
69 ,13.0385 ,0.77446 ,3.89201 ,38.18837 
70 ,13.2144 ,0.77622 ,3.88174 ,38.08764 
71 ,13.3904 ,0.77803 ,3.89201 ,38.18837 
72 ,13.5828 ,0.77995 ,3.87147 ,37.98690 
73 ,13.7747 ,0.78180 ,3.83383 ,37.61754 
74 ,13.9509 ,0.78360 ,3.82356 ,37.51681 
75 ,14.1269 ,0.78540 ,3.82356 ,37.51681 
76 ,14.3190 ,0.78731 ,3.77908 ,37.08029 
77 ,14.4951 ,0.78902 ,3.76881 ,36.97955 
78 ,14.6870 ,0.79087 ,3.75512 ,36.84524 
79 ,14.8633 ,0.79272 ,3.75512 ,36.84524 
80 ,15.0393 ,0.79450 ,3.73117 ,36.61019 
81 ,15.2151 ,0.79625 ,3.70037 ,36.30799 
82 ,15.3913 ,0.79804 ,3.68325 ,36.14010 
83 ,15.5836 ,0.79992 ,3.67983 ,36.10652 
84 ,15.7755 ,0.80177 ,3.64561 ,35.77073 
85 ,15.9517 ,0.80359 ,3.63877 ,35.70358 
86 ,16.1117 ,0.80536 ,3.63534 ,35.67000 
87 ,16.3039 ,0.80709 ,3.63192 ,35.63642 
88 ,16.4797 ,0.80884 ,3.58743 ,35.19990 
89 ,16.6559 ,0.81063 ,3.57375 ,35.06559 
90 ,16.8478 ,0.81262 ,3.56348 ,34.96485 
91 ,17.0561 ,0.81451 ,3.54637 ,34.79696 
92 ,17.2319 ,0.81649 ,3.51899 ,34.52834 
93 ,17.4082 ,0.81827 ,3.53268 ,34.66265 
94 ,17.6001 ,0.82005 ,3.51215 ,34.46118 
95 ,17.7765 ,0.82183 ,3.47450 ,34.09182 
96 ,17.9686 ,0.82380 ,3.45055 ,33.85677 
97 ,18.1603 ,0.82571 ,3.44370 ,33.78961 
98 ,18.3527 ,0.82756 ,3.41633 ,33.52099 
99 ,18.5447 ,0.82952 ,3.40606 ,33.42025 
100 ,18.7207 ,0.83127 ,3.40606 ,33.42025 
101 ,18.8968 ,0.83301 ,3.39579 ,33.31952 
102 ,19.0731 ,0.83482 ,3.36157 ,32.98374 
103 ,19.2806 ,0.83683 ,3.36499 ,33.01731 
104 ,19.4572 ,0.83869 ,3.33762 ,32.74869 
105 ,19.6492 ,0.84059 ,3.29997 ,32.37933 
106 ,19.8250 ,0.84232 ,3.30339 ,32.41290 
107 ,20.0172 ,0.84417 ,3.28286 ,32.21143 
108 ,20.1931 ,0.84610 ,3.24522 ,31.84207 
109 ,20.3691 ,0.84779 ,3.24180 ,31.80849 
110 ,20.5454 ,0.84951 ,3.24180 ,31.80849 
111 ,20.7537 ,0.85161 ,3.21100 ,31.50629 
112 ,20.9297 ,0.85340 ,3.20415 ,31.43913 
113 ,21.1058 ,0.85519 ,3.18362 ,31.23766 
114 ,21.3140 ,0.85713 ,3.17335 ,31.13693 
115 ,21.5219 ,0.85920 ,3.16309 ,31.03619 
116 ,21.6980 ,0.86108 ,3.14597 ,30.86830 
117 ,21.8743 ,0.86277 ,3.12886 ,30.70041 
118 ,22.0662 ,0.86470 ,3.09464 ,30.36463 
119 ,22.2747 ,0.86675 ,3.08438 ,30.26389 
120 ,22.4504 ,0.86857 ,3.08780 ,30.29747 
121 ,22.6264 ,0.87031 ,3.04673 ,29.89453 
122 ,22.8186 ,0.87217 ,3.05015 ,29.92811 
123 ,22.9942 ,0.87401 ,3.03647 ,29.79380 
124 ,23.1867 ,0.87582 ,3.00909 ,29.52517 
125 ,23.3945 ,0.87793 ,2.99198 ,29.35728 
126 ,23.5705 ,0.87982 ,2.96802 ,29.12223 
127 ,23.7470 ,0.88157 ,2.96802 ,29.12223 
128 ,23.9226 ,0.88331 ,2.94064 ,28.85360 
129 ,24.0990 ,0.88506 ,2.94064 ,28.85360 
130 ,24.2913 ,0.88698 ,2.90642 ,28.51782 
131 ,24.4832 ,0.88880 ,2.90985 ,28.55140 
132 ,24.6589 ,0.89068 ,2.89616 ,28.41709 
133 ,24.8514 ,0.89251 ,2.87220 ,28.18204 
134 ,25.0270 ,0.89430 ,2.84482 ,27.91341 
135 ,25.2035 ,0.89611 ,2.82087 ,27.67836 
136 ,25.3954 ,0.89799 ,2.82771 ,27.74552 
137 ,25.5719 ,0.89979 ,2.81060 ,27.57763 
138 ,25.7635 ,0.90166 ,2.78322 ,27.30900 
139 ,25.9399 ,0.90347 ,2.76611 ,27.14111 
140 ,26.1320 ,0.90539 ,2.76269 ,27.10753 
141 ,26.3080 ,0.90717 ,2.75585 ,27.04038 
142 ,26.4839 ,0.90889 ,2.71478 ,26.63744 
143 ,26.6601 ,0.91067 ,2.69767 ,26.46954 
144 ,26.8358 ,0.91239 ,2.71136 ,26.60386 
145 ,27.0120 ,0.91422 ,2.66687 ,26.16734 
146 ,27.2040 ,0.91602 ,2.64634 ,25.96587 
147 ,27.3805 ,0.91787 ,2.64292 ,25.93229 
148 ,27.5565 ,0.91964 ,2.62923 ,25.79798 
149 ,27.7486 ,0.92153 ,2.61554 ,25.66367 
150 ,27.9242 ,0.92333 ,2.60185 ,25.52935 
151 ,28.1007 ,0.92501 ,2.58474 ,25.36146 
152 ,28.2768 ,0.92683 ,2.56421 ,25.15999 
153 ,28.4689 ,0.92867 ,2.55052 ,25.02568 
154 ,28.6610 ,0.93062 ,2.52998 ,24.82421 
155 ,28.8690 ,0.93266 ,2.53341 ,24.85779 
156 ,29.0447 ,0.93450 ,2.50603 ,24.58916 
157 ,29.2212 ,0.93625 ,2.48207 ,24.35411 
158 ,29.4133 ,0.93814 ,2.48550 ,24.38769 
159 ,29.6050 ,0.94005 ,2.46154 ,24.15264 
160 ,29.7814 ,0.94183 ,2.43759 ,23.91759 
161 ,29.9732 ,0.94369 ,2.42390 ,23.78328 
162 ,30.1495 ,0.94552 ,2.42390 ,23.78328 
163 ,30.3255 ,0.94731 ,2.39994 ,23.54823 
164 ,30.5017 ,0.94906 ,2.38625 ,23.41392 
165 ,30.6779 ,0.95087 ,2.36230 ,23.17887 
166 ,30.8699 ,0.95266 ,2.36572 ,23.21245 
167 ,31.0458 ,0.95450 ,2.35888 ,23.14529 
168 ,31.2219 ,0.95639 ,2.31097 ,22.67520 
169 ,31.3980 ,0.95802 ,2.30754 ,22.64162 
170 ,31.5901 ,0.95995 ,2.30412 ,22.60804 
171 ,31.7980 ,0.96186 ,2.27674 ,22.33941 
172 ,31.9742 ,0.96382 ,2.27674 ,22.33941 
173 ,32.1504 ,0.96554 ,2.26306 ,22.20510 
174 ,32.3423 ,0.96742 ,2.22199 ,21.80216 
175 ,32.5185 ,0.96925 ,2.21172 ,21.70143 
176 ,32.6946 ,0.97097 ,2.19119 ,21.49996 
177 ,32.8706 ,0.97273 ,2.18092 ,21.39922 
178 ,33.0467 ,0.97449 ,2.18435 ,21.43280 
179 ,33.2388 ,0.97645 ,2.13986 ,20.99628 
180 ,33.4308 ,0.97827 ,2.13644 ,20.96270 
181 ,33.6386 ,0.98035 ,2.10221 ,20.62692 
182 ,33.8469 ,0.98233 ,2.09195 ,20.52619 
183 ,34.0551 ,0.98443 ,2.08852 ,20.49261 
184 ,34.2470 ,0.98647 ,2.09537 ,20.55976 
185 ,34.4230 ,0.98821 ,2.07484 ,20.35829 
186 ,34.5990 ,0.99000 ,2.04746 ,20.08967 
187 ,34.7913 ,0.99193 ,2.03035 ,19.92178 
188 ,34.9832 ,0.99385 ,2.01666 ,19.78746 
189 ,35.1916 ,0.99586 ,2.01666 ,19.78746 
190 ,35.3834 ,0.99783 ,2.00639 ,19.68673 
191 ,35.5597 ,0.99961 ,1.96533 ,19.28379 
192 ,35.7517 ,1.00157 ,1.96875 ,19.31737 
193 ,35.9117 ,1.00325 ,1.94479 ,19.08232 
194 ,36.0877 ,1.00485 ,1.93453 ,18.98158 
195 ,36.2800 ,1.00684 ,1.91057 ,18.74654 
196 ,36.4723 ,1.00875 ,1.89346 ,18.57864 
197 ,36.6802 ,1.01067 ,1.88662 ,18.51149 
198 ,36.8722 ,1.01274 ,1.86266 ,18.27644 
199 ,37.0482 ,1.01446 ,1.85240 ,18.17570 
200 ,37.2242 ,1.01622 ,1.83528 ,18.00781 
201 ,37.4164 ,1.01812 ,1.81475 ,17.80634 
202 ,37.6081 ,1.02011 ,1.80449 ,17.70561 
203 ,37.7846 ,1.02183 ,1.80449 ,17.70561 
204 ,37.9766 ,1.02369 ,1.76342 ,17.30267 
205 ,38.1688 ,1.02559 ,1.74973 ,17.16836 
206 ,38.3448 ,1.02746 ,1.75657 ,17.23551 
207 ,38.5529 ,1.02944 ,1.71551 ,16.83257 
208 ,38.7451 ,1.03140 ,1.71551 ,16.83257 
209 ,38.9530 ,1.03345 ,1.67444 ,16.42963 
210 ,39.1291 ,1.03527 ,1.66418 ,16.32890 
211 ,39.3052 ,1.03705 ,1.67102 ,16.39605 
212 ,39.4813 ,1.03884 ,1.66760 ,16.36248 
213 ,39.6574 ,1.04061 ,1.64364 ,16.12743 
214 ,39.8495 ,1.04247 ,1.61969 ,15.89238 
215 ,40.0575 ,1.04454 ,1.60942 ,15.79164 
216 ,40.2337 ,1.04635 ,1.58547 ,15.55660 
217 ,40.4258 ,1.04816 ,1.58204 ,15.52302 
218 ,40.6018 ,1.05001 ,1.57862 ,15.48944 
219 ,40.7934 ,1.05192 ,1.54782 ,15.18724 
220 ,40.9701 ,1.05373 ,1.51702 ,14.88503 
221 ,41.1780 ,1.05569 ,1.51702 ,14.88503 
222 ,41.3540 ,1.05759 ,1.50333 ,14.75072 
223 ,41.5301 ,1.05929 ,1.48965 ,14.61640 
224 ,41.7383 ,1.06132 ,1.47938 ,14.51567 
225 ,41.9142 ,1.06316 ,1.45542 ,14.28062 
226 ,42.0904 ,1.06492 ,1.44858 ,14.21346 
227 ,42.2824 ,1.06683 ,1.44516 ,14.17989 
228 ,42.4586 ,1.06862 ,1.43489 ,14.07915 
229 ,42.6506 ,1.07040 ,1.41094 ,13.84410 
230 ,42.8266 ,1.07224 ,1.39040 ,13.64263 
231 ,43.0184 ,1.07418 ,1.39383 ,13.67621 
232 ,43.1946 ,1.07591 ,1.37671 ,13.50832 
233 ,43.4028 ,1.07796 ,1.37329 ,13.47474 
234 ,43.5790 ,1.07979 ,1.35960 ,13.34043 
235 ,43.7550 ,1.08161 ,1.32538 ,13.00465 
236 ,43.9307 ,1.08328 ,1.32196 ,12.97107 
237 ,44.1232 ,1.08517 ,1.29800 ,12.73602 
238 ,44.2992 ,1.08699 ,1.29116 ,12.66886 
239 ,44.4753 ,1.08871 ,1.30143 ,12.76960 
240 ,44.6672 ,1.09059 ,1.26378 ,12.40024 
241 ,44.8595 ,1.09248 ,1.26036 ,12.36666 
242 ,45.0511 ,1.09442 ,1.24325 ,12.19877 
243 ,45.2276 ,1.09629 ,1.22272 ,11.99730 
244 ,45.4195 ,1.09809 ,1.22614 ,12.03088 
245 ,45.6278 ,1.10015 ,1.18850 ,11.66151 
246 ,45.8199 ,1.10216 ,1.19192 ,11.69509 
247 ,45.9958 ,1.10395 ,1.18507 ,11.62794 
248 ,46.1719 ,1.10575 ,1.14743 ,11.25857 
249 ,46.3641 ,1.10757 ,1.15085 ,11.29215 
250 ,46.5401 ,1.10936 ,1.13032 ,11.09068 
251 ,46.7322 ,1.11131 ,1.10979 ,10.88921 
252 ,46.9242 ,1.11318 ,1.10636 ,10.85563 
253 ,47.1002 ,1.11503 ,1.09267 ,10.72132 
254 ,47.2761 ,1.11669 ,1.08241 ,10.62059 
255 ,47.4525 ,1.11850 ,1.06187 ,10.41912 
256 ,47.6606 ,1.12039 ,1.06872 ,10.48627 
257 ,47.8687 ,1.12257 ,1.02765 ,10.08333 
258 ,48.0768 ,1.12464 ,1.03450 ,10.15049 
259 ,48.2528 ,1.12649 ,1.01396 ,9.94902 
260 ,48.4447 ,1.12843 ,0.98659 ,9.68039 
261 ,48.6368 ,1.13033 ,0.97974 ,9.61324 
262 ,48.8130 ,1.13210 ,0.97632 ,9.57966 
263 ,49.0048 ,1.13395 ,0.95579 ,9.37819 
264 ,49.1813 ,1.13579 ,0.93868 ,9.21030 
265 ,49.3733 ,1.13768 ,0.94210 ,9.24388 
266 ,49.5652 ,1.13959 ,0.90788 ,8.90809 
267 ,49.7414 ,1.14137 ,0.89419 ,8.77378 
268 ,49.9174 ,1.14310 ,0.90103 ,8.84094 
269 ,50.0936 ,1.14485 ,0.88734 ,8.70662 
270 ,50.2855 ,1.14673 ,0.85654 ,8.40442 
271 ,50.4618 ,1.14857 ,0.84286 ,8.27011 
272 ,50.6539 ,1.15052 ,0.85997 ,8.43800 
273 ,50.8457 ,1.15249 ,0.83601 ,8.20295 
274 ,51.0059 ,1.15409 ,0.81890 ,8.03506 
275 ,51.1656 ,1.15571 ,0.80521 ,7.90074 
276 ,51.3418 ,1.15739 ,0.78810 ,7.73285 
277 ,51.5022 ,1.15908 ,0.77441 ,7.59854 
278 ,51.6784 ,1.16077 ,0.77099 ,7.56496 
279 ,51.8544 ,1.16249 ,0.77099 ,7.56496 
280 ,52.0464 ,1.16435 ,0.76072 ,7.46423 
281 ,52.2386 ,1.16625 ,0.73335 ,7.19560 
282 ,52.4306 ,1.16829 ,0.73335 ,7.19560 
283 ,52.6227 ,1.17017 ,0.70939 ,6.96055 
284 ,52.8308 ,1.17224 ,0.71966 ,7.06129 
285 ,53.0388 ,1.17421 ,0.68544 ,6.72550 
286 ,53.2148 ,1.17607 ,0.66490 ,6.52403 
287 ,53.3909 ,1.17781 ,0.66490 ,6.52403 
288 ,53.5666 ,1.17961 ,0.65464 ,6.42330 
289 ,53.7432 ,1.18141 ,0.64437 ,6.32256 
290 ,53.9350 ,1.18329 ,0.62042 ,6.08752 
291 ,54.1273 ,1.18524 ,0.63068 ,6.18825 
292 ,54.3195 ,1.18705 ,0.60673 ,5.95320 
293 ,54.5115 ,1.18894 ,0.58962 ,5.78531 
294 ,54.7036 ,1.19107 ,0.57593 ,5.65100 
295 ,54.8954 ,1.19286 ,0.56566 ,5.55026 
296 ,55.0878 ,1.19474 ,0.55539 ,5.44953 
297 ,55.2638 ,1.19662 ,0.54171 ,5.31522 
298 ,55.4721 ,1.19859 ,0.54171 ,5.31522 
299 ,55.6640 ,1.20053 ,0.51775 ,5.08017 
300 ,55.8561 ,1.20245 ,0.50406 ,4.94585 
301 ,56.0642 ,1.20455 ,0.48695 ,4.77796 
302 ,56.2562 ,1.20643 ,0.49722 ,4.87870 
303 ,56.4642 ,1.20858 ,0.46300 ,4.54291 
304 ,56.6403 ,1.21034 ,0.45273 ,4.44218 
305 ,56.7999 ,1.21205 ,0.44588 ,4.37502 
306 ,56.9761 ,1.21369 ,0.43904 ,4.30787 
307 ,57.1687 ,1.21566 ,0.43562 ,4.27429 
308 ,57.3768 ,1.21761 ,0.41851 ,4.10640 
309 ,57.5686 ,1.21958 ,0.41509 ,4.07282 
310 ,57.7447 ,1.22136 ,0.39455 ,3.87135 
311 ,57.9208 ,1.22328 ,0.37744 ,3.70346 
312 ,58.1288 ,1.22509 ,0.38086 ,3.73703 
313 ,58.3211 ,1.22701 ,0.36375 ,3.56914 
314 ,58.5128 ,1.22907 ,0.34322 ,3.36767 
315 ,58.7051 ,1.23091 ,0.33638 ,3.30052 
316 ,58.8809 ,1.23271 ,0.32269 ,3.16620 
317 ,59.0573 ,1.23454 ,0.29531 ,2.89758 
318 ,59.2334 ,1.23626 ,0.29531 ,2.89758 
319 ,59.4095 ,1.23798 ,0.30215 ,2.96473 
320 ,59.5856 ,1.23977 ,0.29189 ,2.86400 
321 ,59.7778 ,1.24174 ,0.26109 ,2.56179 
322 ,59.9533 ,1.24346 ,0.25424 ,2.49464 
323 ,60.1618 ,1.24553 ,0.24055 ,2.36032 
324 ,60.3539 ,1.24746 ,0.22002 ,2.15885 
325 ,60.5458 ,1.24931 ,0.23029 ,2.25959 
326 ,60.7378 ,1.25120 ,0.21660 ,2.12528 
327 ,60.9301 ,1.25312 ,0.20976 ,2.05812 
328 ,61.1221 ,1.25507 ,0.18238 ,1.78949 
329 ,61.3141 ,1.25701 ,0.17553 ,1.72234 
330 ,61.4902 ,1.25880 ,0.16527 ,1.62160 
331 ,61.6660 ,1.26058 ,0.15842 ,1.55445 
332 ,61.8584 ,1.26239 ,0.14473 ,1.42013 
333 ,62.0505 ,1.26433 ,0.13105 ,1.28582 
334 ,62.2421 ,1.26632 ,0.13105 ,1.28582 
335 ,62.4187 ,1.26810 ,0.11051 ,1.08435 
336 ,62.5945 ,1.26987 ,0.08656 ,0.84930 
337 ,62.8028 ,1.27189 ,0.07629 ,0.74857 
338 ,62.9833 ,1.27373 ,0.07971 ,0.78214 
339 ,63.1708 ,1.27564 ,0.06602 ,0.64783 
340 ,63.3631 ,1.27752 ,0.06260 ,0.61425 
341 ,63.5547 ,1.27938 ,0.03865 ,0.37920 
342 ,63.7313 ,1.28124 ,0.03180 ,0.31205 
343 ,63.9231 ,1.28312 ,0.01469 ,0.14416 
344 ,64.1153 ,1.28504 ,-0.00926 ,-0.09089 
345 ,64.2909 ,1.28680 ,0.00100 ,0.00984 
346 ,64.4674 ,1.28858 ,-0.00242 ,-0.02373 
347 ,64.6437 ,1.29036 ,-0.01269 ,-0.12447 
348 ,64.8032 ,1.29207 ,-0.01953 ,-0.19163 
349 ,64.9794 ,1.29367 ,-0.02980 ,-0.29236 
350 ,65.1715 ,1.29553 ,-0.04006 ,-0.39310 
351 ,65.3636 ,1.29750 ,-0.05033 ,-0.49383 
352 ,65.5561 ,1.29938 ,-0.05375 ,-0.52741 
353 ,65.7481 ,1.30136 ,-0.06060 ,-0.59457 
354 ,65.9240 ,1.30322 ,-0.07086 ,-0.69530 
355 ,66.1003 ,1.30488 ,-0.08797 ,-0.86319 
356 ,66.3083 ,1.30689 ,-0.08797 ,-0.86319 
357 ,66.5005 ,1.30884 ,-0.09482 ,-0.93035 
358 ,66.6924 ,1.31082 ,-0.11535 ,-1.13182 
359 ,66.8687 ,1.31262 ,-0.12219 ,-1.19898 
360 ,67.0448 ,1.31435 ,-0.11193 ,-1.09824 
361 ,67.2366 ,1.31628 ,-0.12904 ,-1.26613 
362 ,67.4125 ,1.31798 ,-0.14615 ,-1.43402 
363 ,67.6046 ,1.31992 ,-0.13588 ,-1.33329 
364 ,67.8130 ,1.32193 ,-0.16326 ,-1.60191 
365 ,67.9889 ,1.32380 ,-0.17353 ,-1.70265 
366 ,68.1806 ,1.32565 ,-0.17011 ,-1.66907 
367 ,68.3571 ,1.32745 ,-0.19064 ,-1.87054 
368 ,68.5332 ,1.32923 ,-0.19748 ,-1.93770 
369 ,68.7252 ,1.33110 ,-0.19406 ,-1.90412 
370 ,68.9331 ,1.33318 ,-0.21802 ,-2.13917 
371 ,69.1095 ,1.33503 ,-0.23513 ,-2.30706 
372 ,69.3015 ,1.33691 ,-0.22144 ,-2.17275 
373 ,69.4776 ,1.33869 ,-0.23513 ,-2.30706 
374 ,69.6533 ,1.34037 ,-0.25566 ,-2.50853 
375 ,69.8292 ,1.34216 ,-0.27277 ,-2.67642 
376 ,69.9892 ,1.34391 ,-0.26593 ,-2.60926 
377 ,70.1653 ,1.34554 ,-0.27619 ,-2.71000 
378 ,70.3420 ,1.34729 ,-0.28304 ,-2.77716 
379 ,70.5501 ,1.34935 ,-0.30015 ,-2.94505 
380 ,70.7257 ,1.35111 ,-0.30699 ,-3.01220 
381 ,70.9182 ,1.35298 ,-0.31726 ,-3.11294 
382 ,71.1261 ,1.35509 ,-0.33095 ,-3.24725 
383 ,71.3343 ,1.35709 ,-0.35490 ,-3.48230 
384 ,71.5425 ,1.35930 ,-0.35148 ,-3.44872 
385 ,71.7505 ,1.36123 ,-0.37544 ,-3.68377 
386 ,71.9423 ,1.36324 ,-0.37201 ,-3.65019 
387 ,72.1507 ,1.36526 ,-0.38912 ,-3.81808 
388 ,72.3427 ,1.36725 ,-0.38228 ,-3.75093 
389 ,72.5188 ,1.36904 ,-0.39255 ,-3.85166 
390 ,72.7109 ,1.37095 ,-0.41992 ,-4.12029 
391 ,72.9030 ,1.37294 ,-0.42335 ,-4.15387 
392 ,73.0791 ,1.37464 ,-0.42335 ,-4.15387 
393 ,73.3032 ,1.37679 ,-0.44388 ,-4.35534 
394 ,73.4953 ,1.37876 ,-0.45757 ,-4.48965 
395 ,73.6872 ,1.38073 ,-0.46099 ,-4.52323 
396 ,73.8634 ,1.38249 ,-0.47126 ,-4.62396 
397 ,74.0553 ,1.38434 ,-0.47126 ,-4.62396 
398 ,74.2475 ,1.38625 ,-0.50548 ,-4.95975 
399 ,74.4236 ,1.38821 ,-0.50206 ,-4.92617 
400 ,74.5997 ,1.38988 ,-0.49521 ,-4.85901 
401 ,74.7917 ,1.39169 ,-0.52259 ,-5.12764 
402 ,74.9835 ,1.39370 ,-0.51917 ,-5.09406 
403 ,75.1916 ,1.39576 ,-0.52943 ,-5.19479 
404 ,75.3679 ,1.39756 ,-0.54997 ,-5.39626 
405 ,75.5438 ,1.39924 ,-0.53970 ,-5.29553 
406 ,75.7361 ,1.40119 ,-0.56023 ,-5.49700 
407 ,75.9281 ,1.40309 ,-0.58077 ,-5.69847 
408 ,76.1042 ,1.40485 ,-0.57392 ,-5.63131 
409 ,76.2801 ,1.40667 ,-0.57734 ,-5.66489 
410 ,76.4726 ,1.40860 ,-0.59445 ,-5.83278 
411 ,76.6643 ,1.41052 ,-0.60472 ,-5.93352 
412 ,76.8404 ,1.41226 ,-0.60130 ,-5.89994 
413 ,77.0165 ,1.41398 ,-0.60130 ,-5.89994 
414 ,77.1927 ,1.41577 ,-0.63210 ,-6.20214 
415 ,77.3686 ,1.41758 ,-0.65263 ,-6.40361 
416 ,77.5447 ,1.41927 ,-0.65263 ,-6.40361 
417 ,77.7208 ,1.42103 ,-0.64579 ,-6.33646 
418 ,77.8970 ,1.42285 ,-0.65263 ,-6.40361 
419 ,78.0891 ,1.42472 ,-0.68001 ,-6.67224 
420 ,78.2649 ,1.42657 ,-0.66632 ,-6.53793 
421 ,78.4411 ,1.42827 ,-0.69027 ,-6.77297 
422 ,78.6173 ,1.43001 ,-0.68685 ,-6.73940 
423 ,78.8093 ,1.43196 ,-0.71765 ,-7.04160 
424 ,79.0013 ,1.43384 ,-0.70054 ,-6.87371 
425 ,79.1776 ,1.43563 ,-0.71081 ,-6.97444 
426 ,79.3534 ,1.43744 ,-0.73134 ,-7.17591 
427 ,79.5453 ,1.43926 ,-0.74503 ,-7.31023 
428 ,79.7215 ,1.44106 ,-0.74161 ,-7.27665 
429 ,79.9138 ,1.44295 ,-0.76556 ,-7.51170 
430 ,80.1057 ,1.44480 ,-0.76214 ,-7.47812 
431 ,80.2819 ,1.44670 ,-0.76898 ,-7.54527 
432 ,80.4742 ,1.44855 ,-0.77925 ,-7.64601 
433 ,80.6660 ,1.45050 ,-0.80321 ,-7.88106 
434 ,80.8421 ,1.45225 ,-0.80321 ,-7.88106 
435 ,81.0178 ,1.45401 ,-0.79636 ,-7.81390 
436 ,81.2103 ,1.45592 ,-0.81005 ,-7.94821 
437 ,81.4020 ,1.45788 ,-0.82032 ,-8.04895 
438 ,81.5786 ,1.45967 ,-0.82032 ,-8.04895 
439 ,81.7705 ,1.46148 ,-0.83401 ,-8.18326 
440 ,81.9787 ,1.46346 ,-0.84085 ,-8.25042 
441 ,82.1865 ,1.46563 ,-0.84769 ,-8.31758 
442 ,82.3789 ,1.46750 ,-0.85454 ,-8.38473 
443 ,82.5708 ,1.46949 ,-0.86823 ,-8.51904 
444 ,82.7788 ,1.47153 ,-0.85112 ,-8.35115 
445 ,82.9549 ,1.47333 ,-0.86138 ,-8.45189 
446 ,83.1310 ,1.47518 ,-0.87507 ,-8.58620 
447 ,83.3232 ,1.47697 ,-0.90587 ,-8.88841 
448 ,83.5308 ,1.47900 ,-0.88534 ,-8.68694 
449 ,83.7232 ,1.48098 ,-0.90245 ,-8.85483 
450 ,83.9154 ,1.48302 ,-0.89560 ,-8.78767 
451 ,84.1075 ,1.48480 ,-0.92983 ,-9.12345 
452 ,84.2996 ,1.48682 ,-0.93667 ,-9.19061 
453 ,84.4912 ,1.48878 ,-0.92983 ,-9.12345 
454 ,84.6835 ,1.49061 ,-0.94009 ,-9.22419 
455 ,84.8597 ,1.49244 ,-0.94694 ,-9.29135 
456 ,85.0358 ,1.49416 ,-0.95378 ,-9.35850 
457 ,85.2439 ,1.49618 ,-0.96747 ,-9.49282 
458 ,85.4359 ,1.49812 ,-0.97774 ,-9.59355 
459 ,85.6121 ,1.49996 ,-0.98800 ,-9.69429 
460 ,85.7881 ,1.50171 ,-1.00511 ,-9.86218 
461 ,85.9803 ,1.50360 ,-1.00511 ,-9.86218 
462 ,86.1560 ,1.50536 ,-1.01880 ,-9.99649 
