Data stamp = , 19-04-2022 21:09:27 840

Calibration Values: 
Slope = , 26.54 , g/V 
Offset Voltage at no contact = , -0.501760 , V 

No , Time , Stage Position ,   Mass , Force 
   ,  (s) ,      (mm)      ,   (g)  , (mN)  

1 ,0.0000 ,0.64946 ,4.98368 ,48.89985 
2 ,0.2198 ,0.64956 ,4.99737 ,49.03416 
3 ,0.5240 ,0.65041 ,4.99052 ,48.96701 
4 ,0.7322 ,0.65180 ,4.96999 ,48.76554 
5 ,0.9241 ,0.65345 ,5.00079 ,49.06774 
6 ,1.1160 ,0.65539 ,4.98026 ,48.86627 
7 ,1.3083 ,0.65730 ,4.99052 ,48.96701 
8 ,1.4844 ,0.65906 ,4.99052 ,48.96701 
9 ,1.6925 ,0.66107 ,4.97683 ,48.83269 
10 ,1.8681 ,0.66294 ,4.96315 ,48.69838 
11 ,2.0603 ,0.66476 ,4.93577 ,48.42975 
12 ,2.2522 ,0.66667 ,4.91523 ,48.22828 
13 ,2.4284 ,0.66849 ,4.90155 ,48.09397 
14 ,2.6048 ,0.67026 ,4.90155 ,48.09397 
15 ,2.7807 ,0.67205 ,4.88444 ,47.92608 
16 ,2.9726 ,0.67390 ,4.85021 ,47.59030 
17 ,3.1491 ,0.67575 ,4.83310 ,47.42240 
18 ,3.3570 ,0.67772 ,4.80915 ,47.18736 
19 ,3.5333 ,0.67959 ,4.79888 ,47.08662 
20 ,3.7092 ,0.68136 ,4.78177 ,46.91873 
21 ,3.9013 ,0.68316 ,4.76808 ,46.78442 
22 ,4.0769 ,0.68495 ,4.74413 ,46.54937 
23 ,4.2535 ,0.68681 ,4.71675 ,46.28074 
24 ,4.4453 ,0.68874 ,4.70648 ,46.18001 
25 ,4.6216 ,0.69044 ,4.69622 ,46.07927 
26 ,4.8296 ,0.69243 ,4.66199 ,45.74349 
27 ,5.0058 ,0.69429 ,4.67226 ,45.84422 
28 ,5.1978 ,0.69613 ,4.63119 ,45.44128 
29 ,5.3900 ,0.69811 ,4.63462 ,45.47486 
30 ,5.5979 ,0.70012 ,4.59697 ,45.10550 
31 ,5.7899 ,0.70206 ,4.59697 ,45.10550 
32 ,5.9822 ,0.70393 ,4.58328 ,44.97119 
33 ,6.1898 ,0.70594 ,4.53880 ,44.53467 
34 ,6.3662 ,0.70789 ,4.53537 ,44.50109 
35 ,6.5904 ,0.70999 ,4.51142 ,44.26604 
36 ,6.7823 ,0.71193 ,4.49773 ,44.13173 
37 ,6.9745 ,0.71388 ,4.46351 ,43.79595 
38 ,7.1664 ,0.71588 ,4.47035 ,43.86310 
39 ,7.3587 ,0.71774 ,4.43955 ,43.56090 
40 ,7.5506 ,0.71971 ,4.41902 ,43.35943 
41 ,7.7107 ,0.72143 ,4.42244 ,43.39301 
42 ,7.8867 ,0.72305 ,4.40191 ,43.19154 
43 ,8.0788 ,0.72487 ,4.37453 ,42.92291 
44 ,8.2567 ,0.72674 ,4.35742 ,42.75502 
45 ,8.4309 ,0.72862 ,4.34716 ,42.65429 
46 ,8.6390 ,0.73040 ,4.32320 ,42.41924 
47 ,8.8152 ,0.73232 ,4.30267 ,42.21777 
48 ,8.9914 ,0.73416 ,4.29240 ,42.11703 
49 ,9.1995 ,0.73604 ,4.27529 ,41.94914 
50 ,9.3910 ,0.73800 ,4.26160 ,41.81483 
51 ,9.5836 ,0.73999 ,4.23765 ,41.57978 
52 ,9.7753 ,0.74195 ,4.22738 ,41.47905 
53 ,9.9517 ,0.74367 ,4.22396 ,41.44547 
54 ,10.1434 ,0.74563 ,4.20342 ,41.24400 
55 ,10.3198 ,0.74736 ,4.16578 ,40.87464 
56 ,10.5118 ,0.74930 ,4.15209 ,40.74032 
57 ,10.6879 ,0.75106 ,4.15894 ,40.80748 
58 ,10.8641 ,0.75281 ,4.13840 ,40.60601 
59 ,11.0560 ,0.75474 ,4.10418 ,40.27023 
60 ,11.2478 ,0.75665 ,4.10076 ,40.23665 
61 ,11.4401 ,0.75861 ,4.07338 ,39.96802 
62 ,11.6323 ,0.76048 ,4.04943 ,39.73297 
63 ,11.8080 ,0.76227 ,4.05285 ,39.76655 
64 ,11.9844 ,0.76399 ,4.02547 ,39.49793 
65 ,12.1606 ,0.76579 ,4.02205 ,39.46435 
66 ,12.3365 ,0.76759 ,3.98783 ,39.12856 
67 ,12.5127 ,0.76931 ,3.97756 ,39.02783 
68 ,12.6724 ,0.77103 ,3.96387 ,38.89352 
69 ,12.8488 ,0.77265 ,3.95703 ,38.82636 
70 ,13.0407 ,0.77456 ,3.92965 ,38.55773 
71 ,13.2170 ,0.77638 ,3.90570 ,38.32268 
72 ,13.4090 ,0.77817 ,3.90912 ,38.35626 
73 ,13.5847 ,0.78000 ,3.88516 ,38.12122 
74 ,13.7606 ,0.78186 ,3.85436 ,37.81901 
75 ,13.9207 ,0.78352 ,3.84410 ,37.71828 
76 ,14.0971 ,0.78516 ,3.82356 ,37.51681 
77 ,14.3050 ,0.78718 ,3.82356 ,37.51681 
78 ,14.4972 ,0.78902 ,3.79961 ,37.28176 
79 ,14.6735 ,0.79091 ,3.77565 ,37.04671 
80 ,14.8336 ,0.79259 ,3.78250 ,37.11387 
81 ,15.0098 ,0.79424 ,3.75170 ,36.81166 
82 ,15.1857 ,0.79604 ,3.75170 ,36.81166 
83 ,15.3778 ,0.79798 ,3.71063 ,36.40872 
84 ,15.5538 ,0.79972 ,3.69010 ,36.20725 
85 ,15.7300 ,0.80147 ,3.69352 ,36.24083 
86 ,15.9059 ,0.80336 ,3.67983 ,36.10652 
87 ,16.0980 ,0.80504 ,3.65930 ,35.90505 
88 ,16.2738 ,0.80693 ,3.63877 ,35.70358 
89 ,16.4499 ,0.80871 ,3.63192 ,35.63642 
90 ,16.6258 ,0.81042 ,3.62850 ,35.60284 
91 ,16.8019 ,0.81218 ,3.59086 ,35.23348 
92 ,16.9781 ,0.81396 ,3.56690 ,34.99843 
93 ,17.1700 ,0.81576 ,3.58401 ,35.16632 
94 ,17.3625 ,0.81775 ,3.53952 ,34.72981 
95 ,17.5862 ,0.81998 ,3.51899 ,34.52834 
96 ,17.7627 ,0.82177 ,3.50872 ,34.42760 
97 ,17.9547 ,0.82365 ,3.49846 ,34.32687 
98 ,18.1469 ,0.82557 ,3.49161 ,34.25971 
99 ,18.3228 ,0.82744 ,3.45055 ,33.85677 
100 ,18.5149 ,0.82929 ,3.43686 ,33.72246 
101 ,18.6911 ,0.83110 ,3.44713 ,33.82319 
102 ,18.8833 ,0.83286 ,3.43001 ,33.65530 
103 ,19.0748 ,0.83487 ,3.40606 ,33.42025 
104 ,19.2510 ,0.83667 ,3.38553 ,33.21878 
105 ,19.4433 ,0.83859 ,3.37526 ,33.11805 
106 ,19.6353 ,0.84044 ,3.34446 ,32.81584 
107 ,19.8116 ,0.84229 ,3.33419 ,32.71511 
108 ,20.0037 ,0.84419 ,3.31708 ,32.54722 
109 ,20.1956 ,0.84607 ,3.31024 ,32.48006 
110 ,20.3719 ,0.84785 ,3.29313 ,32.31217 
111 ,20.5638 ,0.84978 ,3.26917 ,32.07712 
112 ,20.7399 ,0.85153 ,3.24522 ,31.84207 
113 ,20.9160 ,0.85333 ,3.23837 ,31.77492 
114 ,21.1081 ,0.85516 ,3.22468 ,31.64060 
115 ,21.2840 ,0.85697 ,3.19731 ,31.37198 
116 ,21.4600 ,0.85872 ,3.19388 ,31.33840 
117 ,21.6522 ,0.86058 ,3.18362 ,31.23766 
118 ,21.8280 ,0.86248 ,3.17677 ,31.17051 
119 ,22.0045 ,0.86416 ,3.14255 ,30.83472 
120 ,22.1961 ,0.86605 ,3.12202 ,30.63325 
121 ,22.3884 ,0.86795 ,3.10491 ,30.46536 
122 ,22.5807 ,0.86991 ,3.08780 ,30.29747 
123 ,22.7888 ,0.87190 ,3.07069 ,30.12958 
124 ,22.9967 ,0.87407 ,3.05700 ,29.99527 
125 ,23.1889 ,0.87599 ,3.02620 ,29.69306 
126 ,23.3807 ,0.87797 ,3.02962 ,29.72664 
127 ,23.5570 ,0.87969 ,2.99882 ,29.42444 
128 ,23.7649 ,0.88165 ,2.96802 ,29.12223 
129 ,23.9571 ,0.88364 ,2.97829 ,29.22297 
130 ,24.1331 ,0.88545 ,2.96460 ,29.08865 
131 ,24.3093 ,0.88721 ,2.95091 ,28.95434 
132 ,24.4853 ,0.88899 ,2.93722 ,28.82003 
133 ,24.6615 ,0.89074 ,2.90300 ,28.48424 
134 ,24.8535 ,0.89261 ,2.89616 ,28.41709 
135 ,25.0454 ,0.89456 ,2.87220 ,28.18204 
136 ,25.2217 ,0.89637 ,2.85851 ,28.04772 
137 ,25.4137 ,0.89829 ,2.84825 ,27.94699 
138 ,25.5900 ,0.90007 ,2.84482 ,27.91341 
139 ,25.7818 ,0.90195 ,2.80034 ,27.47689 
140 ,25.9579 ,0.90370 ,2.80034 ,27.47689 
141 ,26.1336 ,0.90554 ,2.79007 ,27.37616 
142 ,26.3102 ,0.90721 ,2.77980 ,27.27542 
143 ,26.4867 ,0.90898 ,2.76611 ,27.14111 
144 ,26.6943 ,0.91100 ,2.74216 ,26.90606 
145 ,26.8704 ,0.91284 ,2.72847 ,26.77175 
146 ,27.0463 ,0.91456 ,2.70794 ,26.57028 
147 ,27.2223 ,0.91637 ,2.68740 ,26.36881 
148 ,27.4144 ,0.91825 ,2.68398 ,26.33523 
149 ,27.6063 ,0.92011 ,2.64976 ,25.99945 
150 ,27.7829 ,0.92198 ,2.63265 ,25.83156 
151 ,27.9907 ,0.92393 ,2.62923 ,25.79798 
152 ,28.1830 ,0.92594 ,2.60185 ,25.52935 
153 ,28.3748 ,0.92781 ,2.60527 ,25.56293 
154 ,28.5511 ,0.92963 ,2.58132 ,25.32788 
155 ,28.7430 ,0.93161 ,2.55052 ,25.02568 
156 ,28.9193 ,0.93332 ,2.53683 ,24.89136 
157 ,29.0953 ,0.93511 ,2.54025 ,24.92494 
158 ,29.2872 ,0.93702 ,2.51972 ,24.72347 
159 ,29.4635 ,0.93872 ,2.49576 ,24.48842 
160 ,29.6556 ,0.94066 ,2.49576 ,24.48842 
161 ,29.8475 ,0.94253 ,2.45812 ,24.11906 
162 ,30.0396 ,0.94445 ,2.46154 ,24.15264 
163 ,30.2318 ,0.94633 ,2.44101 ,23.95117 
164 ,30.4076 ,0.94818 ,2.42732 ,23.81686 
165 ,30.5838 ,0.94993 ,2.39652 ,23.51465 
166 ,30.7600 ,0.95177 ,2.38968 ,23.44750 
167 ,30.9520 ,0.95355 ,2.37941 ,23.34676 
168 ,31.1441 ,0.95550 ,2.36572 ,23.21245 
169 ,31.3203 ,0.95734 ,2.34177 ,22.97740 
170 ,31.5284 ,0.95928 ,2.34861 ,23.04456 
171 ,31.7204 ,0.96129 ,2.31439 ,22.70877 
172 ,31.9120 ,0.96321 ,2.29728 ,22.54088 
173 ,32.0881 ,0.96499 ,2.28359 ,22.40657 
174 ,32.2481 ,0.96669 ,2.26648 ,22.23868 
175 ,32.4406 ,0.96855 ,2.24594 ,22.03721 
176 ,32.6324 ,0.97040 ,2.24937 ,22.07079 
177 ,32.8088 ,0.97220 ,2.22541 ,21.83574 
178 ,32.9845 ,0.97398 ,2.21172 ,21.70143 
179 ,33.1609 ,0.97575 ,2.18435 ,21.43280 
180 ,33.3529 ,0.97764 ,2.18092 ,21.39922 
181 ,33.5290 ,0.97938 ,2.15697 ,21.16417 
182 ,33.7052 ,0.98115 ,2.13986 ,20.99628 
183 ,33.8970 ,0.98300 ,2.12275 ,20.82839 
184 ,34.1048 ,0.98510 ,2.11248 ,20.72766 
185 ,34.2814 ,0.98695 ,2.10906 ,20.69408 
186 ,34.4574 ,0.98866 ,2.08168 ,20.42545 
187 ,34.6495 ,0.99053 ,2.04746 ,20.08967 
188 ,34.8415 ,0.99245 ,2.04061 ,20.02251 
189 ,35.0176 ,0.99429 ,2.04061 ,20.02251 
190 ,35.1937 ,0.99608 ,2.00639 ,19.68673 
191 ,35.3536 ,0.99774 ,2.00297 ,19.65315 
192 ,35.5299 ,0.99945 ,2.00297 ,19.65315 
193 ,35.7216 ,1.00124 ,1.96533 ,19.28379 
194 ,35.8979 ,1.00306 ,1.96875 ,19.31737 
195 ,36.0741 ,1.00484 ,1.96190 ,19.25021 
196 ,36.2337 ,1.00654 ,1.93453 ,18.98158 
197 ,36.4102 ,1.00822 ,1.92768 ,18.91443 
198 ,36.6019 ,1.01007 ,1.91742 ,18.81369 
199 ,36.7782 ,1.01192 ,1.89004 ,18.54507 
200 ,36.9544 ,1.01358 ,1.89346 ,18.57864 
201 ,37.1466 ,1.01552 ,1.86266 ,18.27644 
202 ,37.3221 ,1.01742 ,1.85240 ,18.17570 
203 ,37.4987 ,1.01906 ,1.83871 ,18.04139 
204 ,37.6904 ,1.02090 ,1.81475 ,17.80634 
205 ,37.8828 ,1.02278 ,1.80106 ,17.67203 
206 ,38.0909 ,1.02491 ,1.77369 ,17.40340 
207 ,38.2989 ,1.02699 ,1.76342 ,17.30267 
208 ,38.4751 ,1.02883 ,1.76000 ,17.26909 
209 ,38.6831 ,1.03087 ,1.73262 ,17.00046 
210 ,38.8593 ,1.03265 ,1.73604 ,17.03404 
211 ,39.0673 ,1.03469 ,1.69840 ,16.66468 
212 ,39.2756 ,1.03672 ,1.69155 ,16.59752 
213 ,39.4671 ,1.03871 ,1.67786 ,16.46321 
214 ,39.6434 ,1.04049 ,1.65733 ,16.26174 
215 ,39.8517 ,1.04243 ,1.65391 ,16.22816 
216 ,40.0436 ,1.04451 ,1.61284 ,15.82522 
217 ,40.2198 ,1.04632 ,1.61627 ,15.85880 
218 ,40.3957 ,1.04808 ,1.60600 ,15.75807 
219 ,40.5717 ,1.04980 ,1.59231 ,15.62375 
220 ,40.7475 ,1.05154 ,1.56836 ,15.38871 
221 ,40.9398 ,1.05336 ,1.55809 ,15.28797 
222 ,41.1479 ,1.05546 ,1.54098 ,15.12008 
223 ,41.3238 ,1.05728 ,1.53071 ,15.01934 
224 ,41.5001 ,1.05907 ,1.53413 ,15.05292 
225 ,41.6923 ,1.06097 ,1.51018 ,14.81787 
226 ,41.8843 ,1.06288 ,1.48280 ,14.54925 
227 ,42.0605 ,1.06466 ,1.48280 ,14.54925 
228 ,42.2685 ,1.06677 ,1.45200 ,14.24704 
229 ,42.4606 ,1.06859 ,1.46227 ,14.34778 
230 ,42.6363 ,1.07043 ,1.43831 ,14.11273 
231 ,42.8128 ,1.07221 ,1.43489 ,14.07915 
232 ,43.0047 ,1.07410 ,1.40409 ,13.77695 
233 ,43.1815 ,1.07591 ,1.40751 ,13.81053 
234 ,43.3730 ,1.07773 ,1.38698 ,13.60906 
235 ,43.5651 ,1.07971 ,1.36303 ,13.37401 
236 ,43.7730 ,1.08167 ,1.34591 ,13.20612 
237 ,43.9489 ,1.08350 ,1.32880 ,13.03822 
238 ,44.1252 ,1.08533 ,1.31512 ,12.90391 
239 ,44.3007 ,1.08707 ,1.30827 ,12.83675 
240 ,44.4935 ,1.08901 ,1.31169 ,12.87033 
241 ,44.6696 ,1.09079 ,1.29116 ,12.66886 
242 ,44.8451 ,1.09261 ,1.28774 ,12.63528 
243 ,45.0216 ,1.09423 ,1.26720 ,12.43381 
244 ,45.1976 ,1.09599 ,1.25694 ,12.33308 
245 ,45.3734 ,1.09780 ,1.24667 ,12.23235 
246 ,45.5499 ,1.09955 ,1.22956 ,12.06445 
247 ,45.7418 ,1.10145 ,1.22614 ,12.03088 
248 ,45.9019 ,1.10319 ,1.21929 ,11.96372 
249 ,46.0780 ,1.10478 ,1.19876 ,11.76225 
250 ,46.2702 ,1.10672 ,1.18165 ,11.59436 
251 ,46.4621 ,1.10857 ,1.15427 ,11.32573 
252 ,46.6543 ,1.11057 ,1.14743 ,11.25857 
253 ,46.8463 ,1.11247 ,1.13716 ,11.15784 
254 ,47.0224 ,1.11433 ,1.13032 ,11.09068 
255 ,47.2145 ,1.11615 ,1.11321 ,10.92279 
256 ,47.3907 ,1.11792 ,1.07899 ,10.58701 
257 ,47.5826 ,1.11990 ,1.08241 ,10.62059 
258 ,47.7426 ,1.12159 ,1.07556 ,10.55343 
259 ,47.9187 ,1.12319 ,1.06872 ,10.48627 
260 ,48.0948 ,1.12494 ,1.04819 ,10.28480 
261 ,48.2709 ,1.12678 ,1.02081 ,10.01618 
262 ,48.4468 ,1.12848 ,1.01396 ,9.94902 
263 ,48.6230 ,1.13031 ,1.01054 ,9.91544 
264 ,48.8149 ,1.13220 ,1.00028 ,9.81471 
265 ,49.0232 ,1.13423 ,0.99685 ,9.78113 
266 ,49.2150 ,1.13615 ,0.97632 ,9.57966 
267 ,49.4233 ,1.13823 ,0.95579 ,9.37819 
268 ,49.5991 ,1.14000 ,0.94210 ,9.24388 
269 ,49.7916 ,1.14195 ,0.93525 ,9.17672 
270 ,49.9837 ,1.14386 ,0.91814 ,9.00883 
271 ,50.1592 ,1.14562 ,0.91472 ,8.97525 
272 ,50.3677 ,1.14759 ,0.90103 ,8.84094 
273 ,50.5599 ,1.14957 ,0.88734 ,8.70662 
274 ,50.7519 ,1.15148 ,0.85312 ,8.37084 
275 ,50.9279 ,1.15326 ,0.84628 ,8.30368 
276 ,51.1041 ,1.15507 ,0.83259 ,8.16937 
277 ,51.2959 ,1.15704 ,0.82232 ,8.06864 
278 ,51.4722 ,1.15879 ,0.81206 ,7.96790 
279 ,51.6483 ,1.16049 ,0.79495 ,7.80001 
280 ,51.8404 ,1.16242 ,0.79837 ,7.83359 
281 ,52.0325 ,1.16432 ,0.76757 ,7.53138 
282 ,52.2084 ,1.16610 ,0.75388 ,7.39707 
283 ,52.3847 ,1.16784 ,0.75388 ,7.39707 
284 ,52.5607 ,1.16966 ,0.74019 ,7.26276 
285 ,52.7527 ,1.17147 ,0.71624 ,7.02771 
286 ,52.9288 ,1.17333 ,0.71281 ,6.99413 
287 ,53.1208 ,1.17523 ,0.72308 ,7.09486 
288 ,53.2964 ,1.17699 ,0.69228 ,6.79266 
289 ,53.6331 ,1.18037 ,0.67175 ,6.59119 
290 ,53.8251 ,1.18227 ,0.65806 ,6.45688 
291 ,54.0172 ,1.18416 ,0.65464 ,6.42330 
292 ,54.2093 ,1.18603 ,0.62042 ,6.08752 
293 ,54.4010 ,1.18801 ,0.63068 ,6.18825 
294 ,54.5775 ,1.18985 ,0.61699 ,6.05394 
295 ,54.7696 ,1.19165 ,0.59646 ,5.85247 
296 ,54.9617 ,1.19358 ,0.59988 ,5.88605 
297 ,55.1698 ,1.19556 ,0.55882 ,5.48311 
298 ,55.3777 ,1.19776 ,0.55882 ,5.48311 
299 ,55.5535 ,1.19952 ,0.55539 ,5.44953 
300 ,55.7299 ,1.20132 ,0.52802 ,5.18090 
301 ,55.9060 ,1.20311 ,0.52459 ,5.14732 
302 ,56.0821 ,1.20482 ,0.52117 ,5.11375 
303 ,56.2582 ,1.20656 ,0.51433 ,5.04659 
304 ,56.4662 ,1.20862 ,0.48011 ,4.71081 
305 ,56.6423 ,1.21056 ,0.48695 ,4.77796 
306 ,56.8343 ,1.21226 ,0.48011 ,4.71081 
307 ,57.0263 ,1.21422 ,0.44931 ,4.40860 
308 ,57.2342 ,1.21629 ,0.43220 ,4.24071 
309 ,57.4107 ,1.21812 ,0.42193 ,4.13997 
310 ,57.6028 ,1.22000 ,0.41851 ,4.10640 
311 ,57.7948 ,1.22197 ,0.40824 ,4.00566 
312 ,57.9708 ,1.22373 ,0.39455 ,3.87135 
313 ,58.1467 ,1.22545 ,0.37060 ,3.63630 
314 ,58.3229 ,1.22722 ,0.37402 ,3.66988 
315 ,58.4989 ,1.22901 ,0.37402 ,3.66988 
316 ,58.6909 ,1.23094 ,0.33980 ,3.33410 
317 ,58.8994 ,1.23290 ,0.34664 ,3.40125 
318 ,59.0755 ,1.23481 ,0.32953 ,3.23336 
319 ,59.2512 ,1.23649 ,0.30558 ,2.99831 
320 ,59.4754 ,1.23872 ,0.29531 ,2.89758 
321 ,59.6514 ,1.24053 ,0.29873 ,2.93116 
322 ,59.8112 ,1.24226 ,0.27478 ,2.69611 
323 ,59.9877 ,1.24389 ,0.26793 ,2.62895 
324 ,60.1797 ,1.24583 ,0.27820 ,2.72969 
325 ,60.3557 ,1.24755 ,0.27135 ,2.66253 
326 ,60.5479 ,1.24939 ,0.23713 ,2.32675 
327 ,60.7401 ,1.25143 ,0.24398 ,2.39390 
328 ,60.9159 ,1.25315 ,0.23029 ,2.25959 
329 ,61.0921 ,1.25491 ,0.21660 ,2.12528 
330 ,61.2683 ,1.25663 ,0.18922 ,1.85665 
331 ,61.4603 ,1.25857 ,0.19949 ,1.95738 
332 ,61.6844 ,1.26068 ,0.17211 ,1.68876 
333 ,61.8606 ,1.26258 ,0.17896 ,1.75592 
334 ,62.0526 ,1.26449 ,0.16869 ,1.65518 
335 ,62.2286 ,1.26627 ,0.14131 ,1.38655 
336 ,62.4207 ,1.26819 ,0.15842 ,1.55445 
337 ,62.6127 ,1.27011 ,0.11736 ,1.15151 
338 ,62.8049 ,1.27195 ,0.12078 ,1.18508 
339 ,62.9965 ,1.27393 ,0.10025 ,0.98361 
340 ,63.1891 ,1.27578 ,0.12078 ,1.18508 
341 ,63.3967 ,1.27787 ,0.08656 ,0.84930 
342 ,63.5732 ,1.27973 ,0.07287 ,0.71499 
343 ,63.7493 ,1.28147 ,0.05576 ,0.54710 
344 ,63.9254 ,1.28326 ,0.04891 ,0.47994 
345 ,64.1169 ,1.28511 ,0.03865 ,0.37920 
346 ,64.2932 ,1.28693 ,0.03865 ,0.37920 
347 ,64.4696 ,1.28865 ,0.02496 ,0.24489 
348 ,64.6455 ,1.29042 ,0.01811 ,0.17773 
349 ,64.8374 ,1.29241 ,-0.00242 ,-0.02373 
350 ,65.0137 ,1.29412 ,-0.00242 ,-0.02373 
351 ,65.2056 ,1.29597 ,-0.01269 ,-0.12447 
352 ,65.3819 ,1.29784 ,-0.01269 ,-0.12447 
353 ,65.5579 ,1.29953 ,-0.01611 ,-0.15805 
354 ,65.7341 ,1.30134 ,-0.03664 ,-0.35952 
355 ,65.9422 ,1.30336 ,-0.04691 ,-0.46025 
356 ,66.1182 ,1.30518 ,-0.06060 ,-0.59457 
357 ,66.3261 ,1.30706 ,-0.08113 ,-0.79604 
358 ,66.5184 ,1.30913 ,-0.08455 ,-0.82961 
359 ,66.6945 ,1.31094 ,-0.10166 ,-0.99751 
360 ,66.9025 ,1.31297 ,-0.10508 ,-1.03108 
361 ,67.0946 ,1.31488 ,-0.13588 ,-1.33329 
362 ,67.2862 ,1.31687 ,-0.13588 ,-1.33329 
363 ,67.4625 ,1.31858 ,-0.12904 ,-1.26613 
364 ,67.6549 ,1.32046 ,-0.15984 ,-1.56834 
365 ,67.8309 ,1.32228 ,-0.15984 ,-1.56834 
366 ,68.0070 ,1.32400 ,-0.17353 ,-1.70265 
367 ,68.1990 ,1.32588 ,-0.17695 ,-1.73623 
368 ,68.3749 ,1.32769 ,-0.19406 ,-1.90412 
369 ,68.5513 ,1.32951 ,-0.21459 ,-2.10559 
370 ,68.7592 ,1.33148 ,-0.20433 ,-2.00485 
371 ,68.9354 ,1.33331 ,-0.22486 ,-2.20632 
372 ,69.1435 ,1.33524 ,-0.23513 ,-2.30706 
373 ,69.3355 ,1.33725 ,-0.22486 ,-2.20632 
374 ,69.5116 ,1.33919 ,-0.26935 ,-2.64284 
375 ,69.6872 ,1.34082 ,-0.26593 ,-2.60926 
376 ,69.8638 ,1.34255 ,-0.26935 ,-2.64284 
377 ,70.0556 ,1.34451 ,-0.29673 ,-2.91147 
378 ,70.2639 ,1.34648 ,-0.29673 ,-2.91147 
379 ,70.4876 ,1.34857 ,-0.30015 ,-2.94505 
380 ,70.6640 ,1.35059 ,-0.30699 ,-3.01220 
381 ,70.8562 ,1.35250 ,-0.32068 ,-3.14652 
382 ,71.0482 ,1.35436 ,-0.33779 ,-3.31441 
383 ,71.2401 ,1.35626 ,-0.33779 ,-3.31441 
384 ,71.4323 ,1.35827 ,-0.36175 ,-3.54946 
385 ,71.6079 ,1.36002 ,-0.37201 ,-3.65019 
386 ,71.8006 ,1.36182 ,-0.38228 ,-3.75093 
387 ,71.9925 ,1.36384 ,-0.39597 ,-3.88524 
388 ,72.1847 ,1.36582 ,-0.38912 ,-3.81808 
389 ,72.3606 ,1.36758 ,-0.39597 ,-3.88524 
390 ,72.5687 ,1.36950 ,-0.42677 ,-4.18744 
391 ,72.7288 ,1.37134 ,-0.41308 ,-4.05313 
392 ,72.9210 ,1.37305 ,-0.42335 ,-4.15387 
393 ,73.1130 ,1.37503 ,-0.44730 ,-4.38891 
394 ,73.3051 ,1.37698 ,-0.45072 ,-4.42249 
395 ,73.4809 ,1.37873 ,-0.44388 ,-4.35534 
396 ,73.6729 ,1.38064 ,-0.48494 ,-4.75828 
397 ,73.8489 ,1.38251 ,-0.47126 ,-4.62396 
398 ,74.0409 ,1.38428 ,-0.47810 ,-4.69112 
399 ,74.2169 ,1.38618 ,-0.48494 ,-4.75828 
400 ,74.3930 ,1.38788 ,-0.50890 ,-4.99332 
401 ,74.5693 ,1.38966 ,-0.52259 ,-5.12764 
402 ,74.7777 ,1.39176 ,-0.51917 ,-5.09406 
403 ,74.9699 ,1.39367 ,-0.52943 ,-5.19479 
404 ,75.1618 ,1.39562 ,-0.54312 ,-5.32911 
405 ,75.3380 ,1.39729 ,-0.55339 ,-5.42984 
406 ,75.5141 ,1.39914 ,-0.55339 ,-5.42984 
407 ,75.6901 ,1.40084 ,-0.57050 ,-5.59773 
408 ,75.8818 ,1.40275 ,-0.55681 ,-5.46342 
409 ,76.0582 ,1.40452 ,-0.58419 ,-5.73205 
410 ,76.2665 ,1.40653 ,-0.59103 ,-5.79920 
411 ,76.4584 ,1.40842 ,-0.59103 ,-5.79920 
412 ,76.6506 ,1.41045 ,-0.62525 ,-6.13499 
413 ,76.8424 ,1.41236 ,-0.60814 ,-5.96709 
414 ,77.0346 ,1.41425 ,-0.63552 ,-6.23572 
415 ,77.2107 ,1.41602 ,-0.63210 ,-6.20214 
416 ,77.3867 ,1.41775 ,-0.64921 ,-6.37003 
417 ,77.5469 ,1.41950 ,-0.64579 ,-6.33646 
418 ,77.7390 ,1.42134 ,-0.64921 ,-6.37003 
419 ,77.9151 ,1.42308 ,-0.66632 ,-6.53793 
420 ,78.1070 ,1.42498 ,-0.66632 ,-6.53793 
421 ,78.2833 ,1.42679 ,-0.67659 ,-6.63866 
422 ,78.4593 ,1.42851 ,-0.68001 ,-6.67224 
423 ,78.6514 ,1.43047 ,-0.70739 ,-6.94086 
424 ,78.8433 ,1.43231 ,-0.68343 ,-6.70582 
425 ,79.0196 ,1.43415 ,-0.70739 ,-6.94086 
426 ,79.2275 ,1.43612 ,-0.71423 ,-7.00802 
427 ,79.4197 ,1.43814 ,-0.71765 ,-7.04160 
428 ,79.6118 ,1.43995 ,-0.72792 ,-7.14233 
429 ,79.8038 ,1.44193 ,-0.72792 ,-7.14233 
430 ,79.9958 ,1.44384 ,-0.73818 ,-7.24307 
431 ,80.1717 ,1.44565 ,-0.75187 ,-7.37738 
432 ,80.3477 ,1.44743 ,-0.75530 ,-7.41096 
433 ,80.5560 ,1.44944 ,-0.76898 ,-7.54527 
434 ,80.7481 ,1.45143 ,-0.76898 ,-7.54527 
435 ,80.9242 ,1.45317 ,-0.76214 ,-7.47812 
436 ,81.1002 ,1.45495 ,-0.78952 ,-7.74674 
437 ,81.2922 ,1.45677 ,-0.79978 ,-7.84748 
438 ,81.4845 ,1.45871 ,-0.79636 ,-7.81390 
439 ,81.6766 ,1.46065 ,-0.83058 ,-8.14968 
440 ,81.8685 ,1.46257 ,-0.80321 ,-7.88106 
441 ,82.0445 ,1.46436 ,-0.82374 ,-8.08253 
442 ,82.2208 ,1.46616 ,-0.82032 ,-8.04895 
443 ,82.3967 ,1.46786 ,-0.85454 ,-8.38473 
444 ,82.5730 ,1.46967 ,-0.86481 ,-8.48547 
445 ,82.7651 ,1.47152 ,-0.86138 ,-8.45189 
446 ,82.9734 ,1.47353 ,-0.88192 ,-8.65336 
447 ,83.1652 ,1.47556 ,-0.87849 ,-8.61978 
448 ,83.3569 ,1.47744 ,-0.89218 ,-8.75409 
449 ,83.5493 ,1.47938 ,-0.89218 ,-8.75409 
450 ,83.7414 ,1.48130 ,-0.90587 ,-8.88841 
451 ,83.9172 ,1.48308 ,-0.91614 ,-8.98914 
452 ,84.1096 ,1.48499 ,-0.92983 ,-9.12345 
453 ,84.3016 ,1.48687 ,-0.93325 ,-9.15703 
454 ,84.4772 ,1.48869 ,-0.95036 ,-9.32492 
455 ,84.6539 ,1.49045 ,-0.95378 ,-9.35850 
456 ,84.8457 ,1.49236 ,-0.94351 ,-9.25777 
457 ,85.0219 ,1.49417 ,-0.96063 ,-9.42566 
458 ,85.2139 ,1.49602 ,-0.98458 ,-9.66071 
459 ,85.3901 ,1.49781 ,-0.98116 ,-9.62713 
460 ,85.5981 ,1.49981 ,-0.98458 ,-9.66071 
461 ,85.7743 ,1.50163 ,-1.01196 ,-9.92933 
462 ,85.9662 ,1.50344 ,-1.01196 ,-9.92933 
