Data stamp = , 19-04-2022 17:45:05 180

Calibration Values: 
Slope = , 26.54 , g/V 
Offset Voltage at no contact = , -0.501760 , V 

No , Time , Stage Position ,   Mass , Force 
   ,  (s) ,      (mm)      ,   (g)  , (mN)  

1 ,0.0000 ,0.59938 ,5.37723 ,52.76135 
2 ,0.2138 ,0.59945 ,5.37381 ,52.72778 
3 ,0.6944 ,0.60088 ,5.37038 ,52.69420 
4 ,0.9027 ,0.60317 ,5.39092 ,52.89567 
5 ,1.0785 ,0.60496 ,5.38749 ,52.86209 
6 ,1.2706 ,0.60677 ,5.36354 ,52.62704 
7 ,1.4464 ,0.60860 ,5.38407 ,52.82851 
8 ,1.6227 ,0.61034 ,5.37723 ,52.76135 
9 ,1.8143 ,0.61229 ,5.33958 ,52.39199 
10 ,2.0067 ,0.61423 ,5.34301 ,52.42557 
11 ,2.2149 ,0.61623 ,5.30536 ,52.05621 
12 ,2.3913 ,0.61806 ,5.29510 ,51.95548 
13 ,2.5666 ,0.61983 ,5.28825 ,51.88832 
14 ,2.7432 ,0.62159 ,5.29167 ,51.92190 
15 ,2.9513 ,0.62356 ,5.25745 ,51.58611 
16 ,3.1274 ,0.62541 ,5.24718 ,51.48538 
17 ,3.3354 ,0.62736 ,5.21639 ,51.18317 
18 ,3.5271 ,0.62949 ,5.22323 ,51.25033 
19 ,3.7196 ,0.63124 ,5.19927 ,51.01528 
20 ,3.9275 ,0.63338 ,5.17532 ,50.78023 
21 ,4.1038 ,0.63516 ,5.16163 ,50.64592 
22 ,4.2798 ,0.63695 ,5.14110 ,50.44445 
23 ,4.4555 ,0.63870 ,5.12399 ,50.27656 
24 ,4.6477 ,0.64057 ,5.11714 ,50.20940 
25 ,4.8397 ,0.64242 ,5.10345 ,50.07509 
26 ,5.0322 ,0.64433 ,5.07608 ,49.80646 
27 ,5.2241 ,0.64632 ,5.05897 ,49.63857 
28 ,5.4322 ,0.64839 ,5.03159 ,49.36995 
29 ,5.6082 ,0.65023 ,5.01448 ,49.20205 
30 ,5.7845 ,0.65202 ,4.99052 ,48.96701 
31 ,5.9763 ,0.65395 ,4.98710 ,48.93343 
32 ,6.1685 ,0.65570 ,4.96657 ,48.73196 
33 ,6.3763 ,0.65784 ,4.93577 ,48.42975 
34 ,6.5527 ,0.65963 ,4.91181 ,48.19471 
35 ,6.7285 ,0.66141 ,4.91523 ,48.22828 
36 ,6.9048 ,0.66317 ,4.90155 ,48.09397 
37 ,7.0809 ,0.66497 ,4.88101 ,47.89250 
38 ,7.2569 ,0.66670 ,4.85021 ,47.59030 
39 ,7.4489 ,0.66858 ,4.84337 ,47.52314 
40 ,7.6412 ,0.67050 ,4.82968 ,47.38883 
41 ,7.8168 ,0.67233 ,4.80915 ,47.18736 
42 ,7.9934 ,0.67406 ,4.78177 ,46.91873 
43 ,8.2016 ,0.67609 ,4.76124 ,46.71726 
44 ,8.4095 ,0.67816 ,4.76124 ,46.71726 
45 ,8.6012 ,0.68008 ,4.74413 ,46.54937 
46 ,8.7777 ,0.68184 ,4.71675 ,46.28074 
47 ,8.9537 ,0.68367 ,4.71333 ,46.24716 
48 ,9.1138 ,0.68534 ,4.69279 ,46.04569 
49 ,9.2899 ,0.68703 ,4.67568 ,45.87780 
50 ,9.4658 ,0.68878 ,4.66199 ,45.74349 
51 ,9.6420 ,0.69053 ,4.64488 ,45.57560 
52 ,9.8181 ,0.69231 ,4.61751 ,45.30697 
53 ,9.9937 ,0.69413 ,4.61066 ,45.23981 
54 ,10.1861 ,0.69585 ,4.59013 ,45.03835 
55 ,10.3783 ,0.69788 ,4.57302 ,44.87045 
56 ,10.5704 ,0.69970 ,4.55591 ,44.70256 
57 ,10.7464 ,0.70162 ,4.55249 ,44.66898 
58 ,10.9226 ,0.70331 ,4.52169 ,44.36678 
59 ,11.1145 ,0.70531 ,4.52169 ,44.36678 
60 ,11.3066 ,0.70713 ,4.50115 ,44.16531 
61 ,11.4828 ,0.70896 ,4.48404 ,43.99742 
62 ,11.6587 ,0.71076 ,4.43955 ,43.56090 
63 ,11.8510 ,0.71254 ,4.44640 ,43.62806 
64 ,12.0591 ,0.71455 ,4.40533 ,43.22512 
65 ,12.2350 ,0.71653 ,4.40533 ,43.22512 
66 ,12.4271 ,0.71828 ,4.38480 ,43.02365 
67 ,12.6033 ,0.72011 ,4.37795 ,42.95649 
68 ,12.8114 ,0.72207 ,4.34716 ,42.65429 
69 ,13.0034 ,0.72420 ,4.32320 ,42.41924 
70 ,13.1790 ,0.72586 ,4.31293 ,42.31850 
71 ,13.3553 ,0.72763 ,4.28556 ,42.04988 
72 ,13.5475 ,0.72955 ,4.28213 ,42.01630 
73 ,13.7397 ,0.73145 ,4.26502 ,41.84841 
74 ,13.9318 ,0.73344 ,4.24107 ,41.61336 
75 ,14.1399 ,0.73542 ,4.22396 ,41.44547 
76 ,14.3155 ,0.73725 ,4.20685 ,41.27758 
77 ,14.4917 ,0.73902 ,4.18631 ,41.07611 
78 ,14.6681 ,0.74073 ,4.19316 ,41.14326 
79 ,14.8598 ,0.74267 ,4.16236 ,40.84106 
80 ,15.0680 ,0.74469 ,4.14525 ,40.67317 
81 ,15.2442 ,0.74659 ,4.11445 ,40.37096 
82 ,15.4204 ,0.74829 ,4.09391 ,40.16949 
83 ,15.6123 ,0.75022 ,4.08707 ,40.10233 
84 ,15.8046 ,0.75207 ,4.07338 ,39.96802 
85 ,15.9966 ,0.75398 ,4.05969 ,39.83371 
86 ,16.2046 ,0.75609 ,4.03916 ,39.63224 
87 ,16.3803 ,0.75787 ,4.01863 ,39.43077 
88 ,16.5567 ,0.75968 ,3.99809 ,39.22930 
89 ,16.7328 ,0.76138 ,3.99467 ,39.19572 
90 ,16.9250 ,0.76326 ,3.96387 ,38.89352 
91 ,17.1168 ,0.76525 ,3.93992 ,38.65847 
92 ,17.2929 ,0.76704 ,3.94334 ,38.69205 
93 ,17.4527 ,0.76873 ,3.92965 ,38.55773 
94 ,17.6289 ,0.77038 ,3.90227 ,38.28911 
95 ,17.8214 ,0.77221 ,3.88858 ,38.15479 
96 ,18.0135 ,0.77415 ,3.87490 ,38.02048 
97 ,18.2055 ,0.77616 ,3.86463 ,37.91975 
98 ,18.3976 ,0.77797 ,3.82699 ,37.55038 
99 ,18.6054 ,0.78004 ,3.82699 ,37.55038 
100 ,18.7976 ,0.78198 ,3.80987 ,37.38249 
101 ,18.9739 ,0.78380 ,3.77565 ,37.04671 
102 ,19.1658 ,0.78571 ,3.77223 ,37.01313 
103 ,19.3420 ,0.78752 ,3.75512 ,36.84524 
104 ,19.5340 ,0.78946 ,3.74485 ,36.74450 
105 ,19.7101 ,0.79113 ,3.73117 ,36.61019 
106 ,19.9022 ,0.79306 ,3.70721 ,36.37514 
107 ,20.0782 ,0.79486 ,3.69694 ,36.27441 
108 ,20.2540 ,0.79664 ,3.65930 ,35.90505 
109 ,20.4461 ,0.79845 ,3.66957 ,36.00578 
110 ,20.6381 ,0.80043 ,3.63192 ,35.63642 
111 ,20.8306 ,0.80228 ,3.63877 ,35.70358 
112 ,21.0384 ,0.80445 ,3.61139 ,35.43495 
113 ,21.2308 ,0.80638 ,3.59086 ,35.23348 
114 ,21.4227 ,0.80820 ,3.57375 ,35.06559 
115 ,21.6149 ,0.81018 ,3.55663 ,34.89770 
116 ,21.7909 ,0.81198 ,3.54295 ,34.76338 
117 ,21.9670 ,0.81370 ,3.53610 ,34.69623 
118 ,22.1751 ,0.81575 ,3.50872 ,34.42760 
119 ,22.3833 ,0.81770 ,3.48819 ,34.22613 
120 ,22.5751 ,0.81980 ,3.47108 ,34.05824 
121 ,22.7514 ,0.82158 ,3.47108 ,34.05824 
122 ,22.9433 ,0.82350 ,3.45397 ,33.89035 
123 ,23.1353 ,0.82543 ,3.41633 ,33.52099 
124 ,23.3115 ,0.82718 ,3.41290 ,33.48741 
125 ,23.5037 ,0.82910 ,3.38895 ,33.25236 
126 ,23.6797 ,0.83087 ,3.37184 ,33.08447 
127 ,23.8876 ,0.83276 ,3.36499 ,33.01731 
128 ,24.0799 ,0.83477 ,3.32735 ,32.64795 
129 ,24.2557 ,0.83664 ,3.31366 ,32.51364 
130 ,24.4320 ,0.83839 ,3.31366 ,32.51364 
131 ,24.6084 ,0.84014 ,3.31024 ,32.48006 
132 ,24.8001 ,0.84204 ,3.26233 ,32.00996 
133 ,24.9758 ,0.84381 ,3.25206 ,31.90923 
134 ,25.1524 ,0.84559 ,3.23837 ,31.77492 
135 ,25.3604 ,0.84757 ,3.21100 ,31.50629 
136 ,25.5363 ,0.84948 ,3.21100 ,31.50629 
137 ,25.7125 ,0.85117 ,3.20415 ,31.43913 
138 ,25.9046 ,0.85305 ,3.18020 ,31.20409 
139 ,26.0803 ,0.85483 ,3.15966 ,31.00262 
140 ,26.2565 ,0.85663 ,3.14255 ,30.83472 
141 ,26.4486 ,0.85853 ,3.13229 ,30.73399 
142 ,26.6566 ,0.86054 ,3.09806 ,30.39821 
143 ,26.8328 ,0.86235 ,3.09464 ,30.36463 
144 ,27.0091 ,0.86413 ,3.09464 ,30.36463 
145 ,27.2011 ,0.86614 ,3.06384 ,30.06242 
146 ,27.3773 ,0.86780 ,3.03989 ,29.82737 
147 ,27.5693 ,0.86980 ,3.03304 ,29.76022 
148 ,27.7614 ,0.87163 ,3.00909 ,29.52517 
149 ,27.9374 ,0.87341 ,2.97829 ,29.22297 
150 ,28.1136 ,0.87517 ,2.98171 ,29.25654 
151 ,28.3053 ,0.87701 ,2.98171 ,29.25654 
152 ,28.5137 ,0.87911 ,2.95776 ,29.02150 
153 ,28.6898 ,0.88098 ,2.94407 ,28.88718 
154 ,28.8655 ,0.88265 ,2.93038 ,28.75287 
155 ,29.0420 ,0.88444 ,2.90985 ,28.55140 
156 ,29.2496 ,0.88649 ,2.90300 ,28.48424 
157 ,29.4262 ,0.88829 ,2.87220 ,28.18204 
158 ,29.6182 ,0.89022 ,2.86536 ,28.11488 
159 ,29.8102 ,0.89216 ,2.84825 ,27.94699 
160 ,29.9863 ,0.89385 ,2.83456 ,27.81268 
161 ,30.1784 ,0.89583 ,2.81060 ,27.57763 
162 ,30.3544 ,0.89758 ,2.78322 ,27.30900 
163 ,30.5465 ,0.89943 ,2.78665 ,27.34258 
164 ,30.7226 ,0.90138 ,2.75927 ,27.07395 
165 ,30.9145 ,0.90316 ,2.73874 ,26.87248 
166 ,31.1069 ,0.90504 ,2.73874 ,26.87248 
167 ,31.2991 ,0.90707 ,2.70794 ,26.57028 
168 ,31.4585 ,0.90877 ,2.69425 ,26.43597 
169 ,31.6350 ,0.91039 ,2.67714 ,26.26807 
170 ,31.8270 ,0.91224 ,2.67372 ,26.23450 
171 ,32.0192 ,0.91421 ,2.64976 ,25.99945 
172 ,32.1953 ,0.91602 ,2.63949 ,25.89871 
173 ,32.3714 ,0.91774 ,2.62238 ,25.73082 
174 ,32.5634 ,0.91963 ,2.61554 ,25.66367 
175 ,32.7396 ,0.92138 ,2.58132 ,25.32788 
176 ,32.9314 ,0.92336 ,2.57447 ,25.26073 
177 ,33.1233 ,0.92520 ,2.57105 ,25.22715 
178 ,33.2995 ,0.92702 ,2.54710 ,24.99210 
179 ,33.4920 ,0.92881 ,2.50945 ,24.62274 
180 ,33.6840 ,0.93084 ,2.51287 ,24.65632 
181 ,33.8600 ,0.93268 ,2.49576 ,24.48842 
182 ,34.0359 ,0.93434 ,2.47523 ,24.28696 
183 ,34.2283 ,0.93629 ,2.46839 ,24.21980 
184 ,34.4203 ,0.93814 ,2.44443 ,23.98475 
185 ,34.6120 ,0.94015 ,2.43074 ,23.85044 
186 ,34.7884 ,0.94190 ,2.42390 ,23.78328 
187 ,34.9963 ,0.94393 ,2.38968 ,23.44750 
188 ,35.1726 ,0.94575 ,2.37941 ,23.34676 
189 ,35.3646 ,0.94762 ,2.37599 ,23.31318 
190 ,35.5567 ,0.94957 ,2.35888 ,23.14529 
191 ,35.7323 ,0.95141 ,2.34861 ,23.04456 
192 ,35.9089 ,0.95311 ,2.32123 ,22.77593 
193 ,36.1170 ,0.95515 ,2.29728 ,22.54088 
194 ,36.3250 ,0.95719 ,2.29728 ,22.54088 
195 ,36.5013 ,0.95903 ,2.26990 ,22.27226 
196 ,36.6931 ,0.96089 ,2.26306 ,22.20510 
197 ,36.8530 ,0.96267 ,2.25279 ,22.10437 
198 ,37.0290 ,0.96432 ,2.24594 ,22.03721 
199 ,37.2051 ,0.96604 ,2.22199 ,21.80216 
200 ,37.3976 ,0.96788 ,2.21857 ,21.76858 
201 ,37.5896 ,0.96986 ,2.19119 ,21.49996 
202 ,37.7814 ,0.97177 ,2.17066 ,21.29849 
203 ,37.9417 ,0.97352 ,2.14670 ,21.06344 
204 ,38.1178 ,0.97519 ,2.13986 ,20.99628 
205 ,38.2939 ,0.97697 ,2.12275 ,20.82839 
206 ,38.4700 ,0.97869 ,2.10564 ,20.66050 
207 ,38.6459 ,0.98044 ,2.10221 ,20.62692 
208 ,38.8382 ,0.98226 ,2.08510 ,20.45903 
209 ,39.0142 ,0.98427 ,2.06799 ,20.29114 
210 ,39.1900 ,0.98595 ,2.05088 ,20.12325 
211 ,39.3662 ,0.98767 ,2.04404 ,20.05609 
212 ,39.5424 ,0.98943 ,2.03719 ,19.98893 
213 ,39.7185 ,0.99121 ,2.00297 ,19.65315 
214 ,39.8945 ,0.99295 ,1.98244 ,19.45168 
215 ,40.0707 ,0.99465 ,1.99613 ,19.58599 
216 ,40.2628 ,0.99659 ,1.96875 ,19.31737 
217 ,40.4548 ,0.99857 ,1.94137 ,19.04874 
218 ,40.6310 ,1.00034 ,1.93453 ,18.98158 
219 ,40.8230 ,1.00217 ,1.91399 ,18.78011 
220 ,41.0469 ,1.00440 ,1.90715 ,18.71296 
221 ,41.2391 ,1.00637 ,1.88319 ,18.47791 
222 ,41.4313 ,1.00828 ,1.85924 ,18.24286 
223 ,41.6233 ,1.01019 ,1.84897 ,18.14213 
224 ,41.7996 ,1.01201 ,1.83186 ,17.97423 
225 ,41.9755 ,1.01374 ,1.81817 ,17.83992 
226 ,42.1512 ,1.01549 ,1.80106 ,17.67203 
227 ,42.3276 ,1.01730 ,1.80106 ,17.67203 
228 ,42.5198 ,1.01918 ,1.75657 ,17.23551 
229 ,42.7278 ,1.02124 ,1.77026 ,17.36983 
230 ,42.9039 ,1.02315 ,1.73604 ,17.03404 
231 ,43.0797 ,1.02479 ,1.73262 ,17.00046 
232 ,43.2556 ,1.02659 ,1.72235 ,16.89973 
233 ,43.4316 ,1.02829 ,1.70182 ,16.69826 
234 ,43.6080 ,1.03007 ,1.69498 ,16.63110 
235 ,43.8002 ,1.03188 ,1.67444 ,16.42963 
236 ,43.9761 ,1.03373 ,1.66075 ,16.29532 
237 ,44.1844 ,1.03574 ,1.65049 ,16.19458 
238 ,44.3763 ,1.03765 ,1.62995 ,15.99311 
239 ,44.5525 ,1.03950 ,1.61627 ,15.85880 
240 ,44.7285 ,1.04121 ,1.61627 ,15.85880 
241 ,44.9047 ,1.04301 ,1.59573 ,15.65733 
242 ,45.0808 ,1.04479 ,1.57862 ,15.48944 
243 ,45.2729 ,1.04661 ,1.56493 ,15.35513 
244 ,45.4326 ,1.04841 ,1.55809 ,15.28797 
245 ,45.6089 ,1.05008 ,1.54098 ,15.12008 
246 ,45.7849 ,1.05186 ,1.51018 ,14.81787 
247 ,45.9611 ,1.05358 ,1.51018 ,14.81787 
248 ,46.1370 ,1.05530 ,1.48965 ,14.61640 
249 ,46.3133 ,1.05717 ,1.48965 ,14.61640 
250 ,46.5053 ,1.05890 ,1.47596 ,14.48209 
251 ,46.6814 ,1.06078 ,1.44516 ,14.17989 
252 ,46.8570 ,1.06251 ,1.43147 ,14.04557 
253 ,47.0656 ,1.06448 ,1.43831 ,14.11273 
254 ,47.2573 ,1.06654 ,1.40067 ,13.74337 
255 ,47.4337 ,1.06829 ,1.39040 ,13.64263 
256 ,47.6097 ,1.07004 ,1.40067 ,13.74337 
257 ,47.8020 ,1.07196 ,1.36645 ,13.40759 
258 ,47.9779 ,1.07378 ,1.34591 ,13.20612 
259 ,48.1540 ,1.07547 ,1.34591 ,13.20612 
260 ,48.3622 ,1.07744 ,1.31854 ,12.93749 
261 ,48.5698 ,1.07958 ,1.33223 ,13.07180 
262 ,48.7462 ,1.08145 ,1.31169 ,12.87033 
263 ,48.9542 ,1.08343 ,1.29800 ,12.73602 
264 ,49.1304 ,1.08528 ,1.27747 ,12.53455 
265 ,49.3061 ,1.08700 ,1.28089 ,12.56813 
266 ,49.4825 ,1.08878 ,1.24667 ,12.23235 
267 ,49.6582 ,1.09060 ,1.24325 ,12.19877 
268 ,49.8506 ,1.09237 ,1.22956 ,12.06445 
269 ,50.0587 ,1.09454 ,1.18850 ,11.66151 
270 ,50.2506 ,1.09637 ,1.20561 ,11.82941 
271 ,50.4429 ,1.09837 ,1.18165 ,11.59436 
272 ,50.6189 ,1.10012 ,1.15427 ,11.32573 
273 ,50.7950 ,1.10196 ,1.16112 ,11.39289 
274 ,50.9710 ,1.10365 ,1.15427 ,11.32573 
275 ,51.1468 ,1.10543 ,1.13374 ,11.12426 
276 ,51.3391 ,1.10735 ,1.10636 ,10.85563 
277 ,51.5152 ,1.10917 ,1.11321 ,10.92279 
278 ,51.6914 ,1.11086 ,1.08583 ,10.65416 
279 ,51.8833 ,1.11277 ,1.07556 ,10.55343 
280 ,52.0756 ,1.11464 ,1.07899 ,10.58701 
281 ,52.2515 ,1.11652 ,1.04819 ,10.28480 
282 ,52.4276 ,1.11824 ,1.05161 ,10.31838 
283 ,52.6037 ,1.11996 ,1.02081 ,10.01618 
284 ,52.7799 ,1.12176 ,0.99343 ,9.74755 
285 ,52.9719 ,1.12362 ,0.99001 ,9.71397 
286 ,53.1640 ,1.12557 ,0.97632 ,9.57966 
287 ,53.3400 ,1.12735 ,0.96948 ,9.51250 
288 ,53.5161 ,1.12910 ,0.95237 ,9.34461 
289 ,53.7242 ,1.13102 ,0.94210 ,9.24388 
290 ,53.9008 ,1.13296 ,0.93183 ,9.14314 
291 ,54.0924 ,1.13484 ,0.92157 ,9.04241 
292 ,54.3005 ,1.13688 ,0.90446 ,8.87451 
293 ,54.4764 ,1.13870 ,0.89419 ,8.77378 
294 ,54.6521 ,1.14052 ,0.88392 ,8.67305 
295 ,54.8442 ,1.14232 ,0.86681 ,8.50515 
296 ,55.0202 ,1.14414 ,0.86339 ,8.47158 
297 ,55.2127 ,1.14602 ,0.84286 ,8.27011 
298 ,55.4207 ,1.14807 ,0.82232 ,8.06864 
299 ,55.5968 ,1.14990 ,0.80863 ,7.93432 
300 ,55.7728 ,1.15167 ,0.81206 ,7.96790 
301 ,55.9490 ,1.15341 ,0.79152 ,7.76643 
302 ,56.1408 ,1.15527 ,0.77441 ,7.59854 
303 ,56.3327 ,1.15724 ,0.76757 ,7.53138 
304 ,56.5089 ,1.15905 ,0.76072 ,7.46423 
305 ,56.6850 ,1.16075 ,0.74361 ,7.29633 
306 ,56.8775 ,1.16268 ,0.72650 ,7.12844 
307 ,57.0696 ,1.16462 ,0.73335 ,7.19560 
308 ,57.2615 ,1.16644 ,0.69913 ,6.85982 
309 ,57.4375 ,1.16829 ,0.69913 ,6.85982 
310 ,57.6298 ,1.17026 ,0.69570 ,6.82624 
311 ,57.8219 ,1.17209 ,0.66833 ,6.55761 
312 ,58.0299 ,1.17409 ,0.65121 ,6.38972 
313 ,58.2057 ,1.17596 ,0.63753 ,6.25541 
314 ,58.3820 ,1.17772 ,0.62384 ,6.12109 
315 ,58.5741 ,1.17963 ,0.62384 ,6.12109 
316 ,58.7661 ,1.18152 ,0.59304 ,5.81889 
317 ,58.9741 ,1.18351 ,0.59646 ,5.85247 
318 ,59.1503 ,1.18549 ,0.58962 ,5.78531 
319 ,59.3420 ,1.18722 ,0.56566 ,5.55026 
320 ,59.5344 ,1.18922 ,0.56908 ,5.58384 
321 ,59.7264 ,1.19116 ,0.54171 ,5.31522 
322 ,59.9027 ,1.19295 ,0.52802 ,5.18090 
323 ,60.0947 ,1.19483 ,0.53486 ,5.24806 
324 ,60.2867 ,1.19673 ,0.51091 ,5.01301 
325 ,60.4624 ,1.19858 ,0.51091 ,5.01301 
326 ,60.6389 ,1.20033 ,0.48353 ,4.74438 
327 ,60.8307 ,1.20227 ,0.48353 ,4.74438 
328 ,61.0230 ,1.20409 ,0.47326 ,4.64365 
329 ,61.2152 ,1.20600 ,0.46300 ,4.54291 
330 ,61.4071 ,1.20799 ,0.43904 ,4.30787 
331 ,61.5832 ,1.20973 ,0.42877 ,4.20713 
332 ,61.7749 ,1.21159 ,0.43562 ,4.27429 
333 ,61.9673 ,1.21355 ,0.41509 ,4.07282 
334 ,62.1436 ,1.21535 ,0.40140 ,3.93850 
335 ,62.3515 ,1.21732 ,0.39113 ,3.83777 
336 ,62.5593 ,1.21935 ,0.37060 ,3.63630 
337 ,62.7354 ,1.22130 ,0.36033 ,3.53557 
338 ,62.9277 ,1.22314 ,0.33638 ,3.30052 
339 ,63.1037 ,1.22494 ,0.32611 ,3.19978 
340 ,63.2957 ,1.22688 ,0.33295 ,3.26694 
341 ,63.4720 ,1.22862 ,0.32611 ,3.19978 
342 ,63.6637 ,1.23056 ,0.29531 ,2.89758 
343 ,63.8402 ,1.23233 ,0.28847 ,2.83042 
344 ,64.0322 ,1.23420 ,0.28162 ,2.76326 
345 ,64.2083 ,1.23599 ,0.27820 ,2.72969 
346 ,64.3845 ,1.23776 ,0.25082 ,2.46106 
347 ,64.5764 ,1.23956 ,0.26109 ,2.56179 
348 ,64.7522 ,1.24143 ,0.23713 ,2.32675 
349 ,64.9606 ,1.24337 ,0.22002 ,2.15885 
350 ,65.1527 ,1.24541 ,0.21660 ,2.12528 
351 ,65.3283 ,1.24720 ,0.19264 ,1.89023 
352 ,65.5048 ,1.24892 ,0.18922 ,1.85665 
353 ,65.6969 ,1.25077 ,0.18580 ,1.82307 
354 ,65.8891 ,1.25275 ,0.15842 ,1.55445 
355 ,66.0812 ,1.25472 ,0.16185 ,1.58802 
356 ,66.2731 ,1.25657 ,0.14131 ,1.38655 
357 ,66.4491 ,1.25840 ,0.13447 ,1.31940 
358 ,66.6413 ,1.26029 ,0.12420 ,1.21866 
359 ,66.8171 ,1.26202 ,0.11736 ,1.15151 
360 ,66.9934 ,1.26383 ,0.11393 ,1.11793 
361 ,67.1855 ,1.26573 ,0.08314 ,0.81572 
362 ,67.3936 ,1.26769 ,0.07971 ,0.78214 
363 ,67.5855 ,1.26972 ,0.05918 ,0.58067 
364 ,67.7617 ,1.27147 ,0.05576 ,0.54710 
365 ,67.9218 ,1.27322 ,0.05576 ,0.54710 
366 ,68.0979 ,1.27488 ,0.04207 ,0.41278 
367 ,68.2899 ,1.27680 ,0.03180 ,0.31205 
368 ,68.4659 ,1.27850 ,0.01469 ,0.14416 
369 ,68.6416 ,1.28030 ,0.01469 ,0.14416 
370 ,68.8182 ,1.28207 ,0.01127 ,0.11058 
371 ,69.0100 ,1.28400 ,-0.02295 ,-0.22520 
372 ,69.2025 ,1.28591 ,-0.02637 ,-0.25878 
373 ,69.3943 ,1.28777 ,-0.03664 ,-0.35952 
374 ,69.5705 ,1.28960 ,-0.04691 ,-0.46025 
375 ,69.7625 ,1.29150 ,-0.06402 ,-0.62814 
376 ,69.9546 ,1.29341 ,-0.06402 ,-0.62814 
377 ,70.1461 ,1.29542 ,-0.07086 ,-0.69530 
378 ,70.3228 ,1.29711 ,-0.09140 ,-0.89677 
379 ,70.5148 ,1.29896 ,-0.09482 ,-0.93035 
380 ,70.6909 ,1.30072 ,-0.12219 ,-1.19898 
381 ,70.8667 ,1.30254 ,-0.13246 ,-1.29971 
382 ,71.0751 ,1.30461 ,-0.12562 ,-1.23255 
383 ,71.2831 ,1.30663 ,-0.14273 ,-1.40045 
384 ,71.4592 ,1.30845 ,-0.14615 ,-1.43402 
385 ,71.6672 ,1.31049 ,-0.15984 ,-1.56834 
386 ,71.8594 ,1.31240 ,-0.15984 ,-1.56834 
387 ,72.0513 ,1.31432 ,-0.19406 ,-1.90412 
388 ,72.2274 ,1.31617 ,-0.20433 ,-2.00485 
389 ,72.4196 ,1.31798 ,-0.19748 ,-1.93770 
390 ,72.6276 ,1.32011 ,-0.21802 ,-2.13917 
391 ,72.8357 ,1.32208 ,-0.22486 ,-2.20632 
392 ,73.0119 ,1.32401 ,-0.22144 ,-2.17275 
393 ,73.2040 ,1.32585 ,-0.23855 ,-2.34064 
394 ,73.3800 ,1.32764 ,-0.25224 ,-2.47495 
395 ,73.5721 ,1.32950 ,-0.25224 ,-2.47495 
396 ,73.7481 ,1.33139 ,-0.27619 ,-2.71000 
397 ,74.0518 ,1.33382 ,-0.26250 ,-2.57569 
398 ,74.2283 ,1.33611 ,-0.30015 ,-2.94505 
399 ,74.4199 ,1.33820 ,-0.29673 ,-2.91147 
400 ,74.5963 ,1.33981 ,-0.29673 ,-2.91147 
401 ,74.7886 ,1.34165 ,-0.32410 ,-3.18010 
402 ,74.9965 ,1.34378 ,-0.30357 ,-2.97863 
403 ,75.2048 ,1.34585 ,-0.32068 ,-3.14652 
404 ,75.3808 ,1.34769 ,-0.32752 ,-3.21367 
405 ,75.5729 ,1.34951 ,-0.35490 ,-3.48230 
406 ,75.7649 ,1.35152 ,-0.35148 ,-3.44872 
407 ,75.9410 ,1.35328 ,-0.34806 ,-3.41514 
408 ,76.1486 ,1.35522 ,-0.37201 ,-3.65019 
409 ,76.3412 ,1.35716 ,-0.38228 ,-3.75093 
410 ,76.5488 ,1.35929 ,-0.40281 ,-3.95240 
411 ,76.7254 ,1.36111 ,-0.39597 ,-3.88524 
412 ,76.9334 ,1.36315 ,-0.40966 ,-4.01955 
413 ,77.1255 ,1.36504 ,-0.40623 ,-3.98597 
414 ,77.3175 ,1.36694 ,-0.42335 ,-4.15387 
415 ,77.5096 ,1.36892 ,-0.44388 ,-4.35534 
416 ,77.6853 ,1.37064 ,-0.44730 ,-4.38891 
417 ,77.8618 ,1.37245 ,-0.44730 ,-4.38891 
418 ,78.0379 ,1.37427 ,-0.46099 ,-4.52323 
419 ,78.2300 ,1.37614 ,-0.46783 ,-4.59038 
420 ,78.4221 ,1.37802 ,-0.47126 ,-4.62396 
421 ,78.6142 ,1.37997 ,-0.50548 ,-4.95975 
422 ,78.8061 ,1.38187 ,-0.50206 ,-4.92617 
423 ,78.9823 ,1.38366 ,-0.50890 ,-4.99332 
424 ,79.1742 ,1.38555 ,-0.53285 ,-5.22837 
425 ,79.3663 ,1.38752 ,-0.53285 ,-5.22837 
426 ,79.5584 ,1.38940 ,-0.52601 ,-5.16121 
427 ,79.7662 ,1.39134 ,-0.56365 ,-5.53058 
428 ,79.9585 ,1.39331 ,-0.54312 ,-5.32911 
429 ,80.1507 ,1.39529 ,-0.57050 ,-5.59773 
430 ,80.3267 ,1.39710 ,-0.57734 ,-5.66489 
431 ,80.5187 ,1.39902 ,-0.57050 ,-5.59773 
432 ,80.6949 ,1.40077 ,-0.60814 ,-5.96709 
433 ,80.8547 ,1.40250 ,-0.61841 ,-6.06783 
434 ,81.0310 ,1.40414 ,-0.61841 ,-6.06783 
435 ,81.2071 ,1.40591 ,-0.62525 ,-6.13499 
436 ,81.4152 ,1.40794 ,-0.61841 ,-6.06783 
437 ,81.5912 ,1.40978 ,-0.63894 ,-6.26930 
438 ,81.7834 ,1.41172 ,-0.63552 ,-6.23572 
439 ,81.9754 ,1.41360 ,-0.65947 ,-6.47077 
440 ,82.1834 ,1.41556 ,-0.65605 ,-6.43719 
441 ,82.3755 ,1.41753 ,-0.67659 ,-6.63866 
442 ,82.5517 ,1.41937 ,-0.69027 ,-6.77297 
443 ,82.7277 ,1.42112 ,-0.69370 ,-6.80655 
444 ,82.9036 ,1.42285 ,-0.69370 ,-6.80655 
445 ,83.0799 ,1.42466 ,-0.69712 ,-6.84013 
446 ,83.2879 ,1.42666 ,-0.71765 ,-7.04160 
447 ,83.4801 ,1.42859 ,-0.71423 ,-7.00802 
448 ,83.6721 ,1.43053 ,-0.73476 ,-7.20949 
449 ,83.8481 ,1.43234 ,-0.75872 ,-7.44454 
450 ,84.0238 ,1.43416 ,-0.74161 ,-7.27665 
451 ,84.2160 ,1.43591 ,-0.76556 ,-7.51170 
452 ,84.4244 ,1.43802 ,-0.77241 ,-7.57885 
453 ,84.6163 ,1.43996 ,-0.77925 ,-7.64601 
454 ,84.8083 ,1.44180 ,-0.78267 ,-7.67959 
455 ,85.0006 ,1.44377 ,-0.78610 ,-7.71317 
456 ,85.1762 ,1.44556 ,-0.81005 ,-7.94821 
457 ,85.3526 ,1.44734 ,-0.82716 ,-8.11611 
458 ,85.5288 ,1.44913 ,-0.81689 ,-8.01537 
459 ,85.7051 ,1.45088 ,-0.82716 ,-8.11611 
460 ,85.8967 ,1.45267 ,-0.85112 ,-8.35115 
461 ,86.0731 ,1.45454 ,-0.85112 ,-8.35115 
462 ,86.2649 ,1.45645 ,-0.85454 ,-8.38473 
463 ,86.4408 ,1.45821 ,-0.85112 ,-8.35115 
