Data stamp = , 19-04-2022 20:36:25 888

Calibration Values: 
Slope = , 26.54 , g/V 
Offset Voltage at no contact = , -0.501760 , V 

No , Time , Stage Position ,   Mass , Force 
   ,  (s) ,      (mm)      ,   (g)  , (mN)  

1 ,0.0000 ,0.64937 ,4.96657 ,48.73196 
2 ,0.2129 ,0.64946 ,4.97683 ,48.83269 
3 ,0.5334 ,0.65029 ,4.97683 ,48.83269 
4 ,0.7256 ,0.65175 ,4.97683 ,48.83269 
5 ,0.9175 ,0.65329 ,4.97341 ,48.79911 
6 ,1.1096 ,0.65517 ,4.97341 ,48.79911 
7 ,1.3018 ,0.65714 ,4.96999 ,48.76554 
8 ,1.4778 ,0.65890 ,4.96999 ,48.76554 
9 ,1.6539 ,0.66068 ,4.96999 ,48.76554 
10 ,1.8778 ,0.66274 ,4.96315 ,48.69838 
11 ,2.0540 ,0.66469 ,4.92892 ,48.36260 
12 ,2.2460 ,0.66660 ,4.91866 ,48.26186 
13 ,2.4383 ,0.66844 ,4.91181 ,48.19471 
14 ,2.6461 ,0.67055 ,4.87417 ,47.82534 
15 ,2.8224 ,0.67236 ,4.84337 ,47.52314 
16 ,3.0304 ,0.67437 ,4.82968 ,47.38883 
17 ,3.2386 ,0.67641 ,4.81257 ,47.22093 
18 ,3.4146 ,0.67832 ,4.81941 ,47.28809 
19 ,3.5906 ,0.68002 ,4.78861 ,46.98589 
20 ,3.7826 ,0.68189 ,4.78177 ,46.91873 
21 ,3.9748 ,0.68389 ,4.75782 ,46.68368 
22 ,4.1508 ,0.68569 ,4.73386 ,46.44863 
23 ,4.3271 ,0.68744 ,4.72359 ,46.34790 
24 ,4.5350 ,0.68944 ,4.70648 ,46.18001 
25 ,4.7272 ,0.69132 ,4.67226 ,45.84422 
26 ,4.9033 ,0.69317 ,4.66542 ,45.77707 
27 ,5.1111 ,0.69523 ,4.65515 ,45.67633 
28 ,5.3035 ,0.69712 ,4.61751 ,45.30697 
29 ,5.4952 ,0.69900 ,4.62093 ,45.34055 
30 ,5.6876 ,0.70089 ,4.58671 ,45.00477 
31 ,5.8796 ,0.70282 ,4.56960 ,44.83688 
32 ,6.0716 ,0.70487 ,4.55249 ,44.66898 
33 ,6.2312 ,0.70655 ,4.54222 ,44.56825 
34 ,6.4077 ,0.70818 ,4.53195 ,44.46751 
35 ,6.5833 ,0.70995 ,4.50800 ,44.23247 
36 ,6.7920 ,0.71186 ,4.48404 ,43.99742 
37 ,6.9839 ,0.71388 ,4.47720 ,43.93026 
38 ,7.1599 ,0.71567 ,4.45324 ,43.69521 
39 ,7.3358 ,0.71745 ,4.43271 ,43.49374 
40 ,7.5442 ,0.71954 ,4.41902 ,43.35943 
41 ,7.7518 ,0.72158 ,4.40875 ,43.25870 
42 ,7.9284 ,0.72340 ,4.39164 ,43.09080 
43 ,8.1043 ,0.72522 ,4.34716 ,42.65429 
44 ,8.2961 ,0.72699 ,4.34716 ,42.65429 
45 ,8.4726 ,0.72884 ,4.32662 ,42.45282 
46 ,8.6807 ,0.73085 ,4.30609 ,42.25135 
47 ,8.8887 ,0.73287 ,4.30609 ,42.25135 
48 ,9.0806 ,0.73480 ,4.27187 ,41.91556 
49 ,9.2728 ,0.73678 ,4.26845 ,41.88198 
50 ,9.4651 ,0.73875 ,4.25476 ,41.74767 
51 ,9.6730 ,0.74079 ,4.24449 ,41.64694 
52 ,9.8492 ,0.74254 ,4.22053 ,41.41189 
53 ,10.0252 ,0.74437 ,4.19658 ,41.17684 
54 ,10.2174 ,0.74618 ,4.15551 ,40.77390 
55 ,10.4094 ,0.74822 ,4.16236 ,40.84106 
56 ,10.5854 ,0.74994 ,4.14867 ,40.70674 
57 ,10.7775 ,0.75188 ,4.12129 ,40.43812 
58 ,10.9536 ,0.75366 ,4.10418 ,40.27023 
59 ,11.1297 ,0.75542 ,4.10076 ,40.23665 
60 ,11.3056 ,0.75714 ,4.07680 ,40.00160 
61 ,11.5136 ,0.75920 ,4.05969 ,39.83371 
62 ,11.6900 ,0.76099 ,4.05969 ,39.83371 
63 ,11.8819 ,0.76302 ,4.01863 ,39.43077 
64 ,12.0581 ,0.76463 ,4.00152 ,39.26288 
65 ,12.2661 ,0.76670 ,3.99809 ,39.22930 
66 ,12.4743 ,0.76876 ,3.98098 ,39.06141 
67 ,12.6503 ,0.77073 ,3.96045 ,38.85994 
68 ,12.8264 ,0.77233 ,3.93650 ,38.62489 
69 ,12.9864 ,0.77409 ,3.92623 ,38.52415 
70 ,13.1785 ,0.77578 ,3.91254 ,38.38984 
71 ,13.3702 ,0.77780 ,3.88858 ,38.15479 
72 ,13.5627 ,0.77968 ,3.85779 ,37.85259 
73 ,13.7545 ,0.78166 ,3.85436 ,37.81901 
74 ,13.9465 ,0.78360 ,3.84410 ,37.71828 
75 ,14.1230 ,0.78529 ,3.82699 ,37.55038 
76 ,14.2989 ,0.78702 ,3.79619 ,37.24818 
77 ,14.4751 ,0.78880 ,3.79619 ,37.24818 
78 ,14.6510 ,0.79059 ,3.78250 ,37.11387 
79 ,14.8432 ,0.79246 ,3.75170 ,36.81166 
80 ,15.0352 ,0.79443 ,3.74485 ,36.74450 
81 ,15.2434 ,0.79647 ,3.71405 ,36.44230 
82 ,15.4355 ,0.79843 ,3.70721 ,36.37514 
83 ,15.6435 ,0.80037 ,3.68668 ,36.17367 
84 ,15.8193 ,0.80227 ,3.66272 ,35.93863 
85 ,15.9955 ,0.80405 ,3.65246 ,35.83789 
86 ,16.1876 ,0.80590 ,3.64219 ,35.73716 
87 ,16.3797 ,0.80789 ,3.61823 ,35.50211 
88 ,16.5879 ,0.80991 ,3.61823 ,35.50211 
89 ,16.7641 ,0.81170 ,3.60112 ,35.33422 
90 ,16.9401 ,0.81349 ,3.58401 ,35.16632 
91 ,17.1323 ,0.81536 ,3.56690 ,34.99843 
92 ,17.3242 ,0.81728 ,3.55321 ,34.86412 
93 ,17.5005 ,0.81909 ,3.51557 ,34.49476 
94 ,17.6763 ,0.82088 ,3.51557 ,34.49476 
95 ,17.8525 ,0.82260 ,3.49504 ,34.29329 
96 ,18.0126 ,0.82431 ,3.48819 ,34.22613 
97 ,18.1884 ,0.82592 ,3.48477 ,34.19255 
98 ,18.3647 ,0.82779 ,3.44370 ,33.78961 
99 ,18.5406 ,0.82951 ,3.43001 ,33.65530 
100 ,18.7329 ,0.83139 ,3.43344 ,33.68888 
101 ,18.9255 ,0.83326 ,3.38895 ,33.25236 
102 ,19.1010 ,0.83508 ,3.39237 ,33.28594 
103 ,19.2932 ,0.83705 ,3.36157 ,32.98374 
104 ,19.4692 ,0.83878 ,3.36157 ,32.98374 
105 ,19.6613 ,0.84069 ,3.33077 ,32.68153 
106 ,19.8374 ,0.84244 ,3.31024 ,32.48006 
107 ,20.0291 ,0.84433 ,3.31366 ,32.51364 
108 ,20.2055 ,0.84617 ,3.30682 ,32.44648 
109 ,20.3977 ,0.84804 ,3.26233 ,32.00996 
110 ,20.5897 ,0.84987 ,3.26575 ,32.04354 
111 ,20.7978 ,0.85188 ,3.24180 ,31.80849 
112 ,20.9738 ,0.85388 ,3.24180 ,31.80849 
113 ,21.1495 ,0.85556 ,3.21442 ,31.53987 
114 ,21.3260 ,0.85738 ,3.21100 ,31.50629 
115 ,21.5341 ,0.85935 ,3.18362 ,31.23766 
116 ,21.7098 ,0.86118 ,3.16309 ,31.03619 
117 ,21.8862 ,0.86290 ,3.15624 ,30.96904 
118 ,22.0623 ,0.86475 ,3.12886 ,30.70041 
119 ,22.2539 ,0.86658 ,3.12202 ,30.63325 
120 ,22.4300 ,0.86832 ,3.11860 ,30.59968 
121 ,22.6065 ,0.87010 ,3.09464 ,30.36463 
122 ,22.7824 ,0.87188 ,3.07069 ,30.12958 
123 ,22.9586 ,0.87359 ,3.05015 ,29.92811 
124 ,23.1507 ,0.87557 ,3.03989 ,29.82737 
125 ,23.3103 ,0.87727 ,3.01935 ,29.62590 
126 ,23.4870 ,0.87896 ,3.02962 ,29.72664 
127 ,23.6789 ,0.88087 ,2.98855 ,29.32370 
128 ,23.8711 ,0.88273 ,2.98855 ,29.32370 
129 ,24.0630 ,0.88463 ,2.97144 ,29.15581 
130 ,24.2711 ,0.88662 ,2.96118 ,29.05507 
131 ,24.4632 ,0.88866 ,2.92353 ,28.68571 
132 ,24.6394 ,0.89044 ,2.90300 ,28.48424 
133 ,24.8473 ,0.89248 ,2.89616 ,28.41709 
134 ,25.0395 ,0.89440 ,2.89273 ,28.38351 
135 ,25.2155 ,0.89624 ,2.87220 ,28.18204 
136 ,25.3935 ,0.89793 ,2.86536 ,28.11488 
137 ,25.5836 ,0.89997 ,2.83798 ,27.84625 
138 ,25.7753 ,0.90175 ,2.81060 ,27.57763 
139 ,25.9518 ,0.90354 ,2.80718 ,27.54405 
140 ,26.1599 ,0.90561 ,2.77296 ,27.20827 
141 ,26.3520 ,0.90752 ,2.77638 ,27.24185 
142 ,26.5437 ,0.90950 ,2.75585 ,27.04038 
143 ,26.7201 ,0.91123 ,2.73189 ,26.80533 
144 ,26.8960 ,0.91300 ,2.70794 ,26.57028 
145 ,27.0883 ,0.91482 ,2.71136 ,26.60386 
146 ,27.3124 ,0.91702 ,2.69425 ,26.43597 
147 ,27.5044 ,0.91899 ,2.67029 ,26.20092 
148 ,27.6645 ,0.92080 ,2.65318 ,26.03303 
149 ,27.8564 ,0.92252 ,2.64976 ,25.99945 
150 ,28.0486 ,0.92444 ,2.62923 ,25.79798 
151 ,28.2245 ,0.92626 ,2.62238 ,25.73082 
152 ,28.4006 ,0.92801 ,2.58816 ,25.39504 
153 ,28.5925 ,0.92989 ,2.58816 ,25.39504 
154 ,28.8009 ,0.93199 ,2.55394 ,25.05926 
155 ,28.9926 ,0.93393 ,2.54710 ,24.99210 
156 ,29.1688 ,0.93572 ,2.54710 ,24.99210 
157 ,29.3449 ,0.93749 ,2.52998 ,24.82421 
158 ,29.5211 ,0.93929 ,2.50603 ,24.58916 
159 ,29.6970 ,0.94106 ,2.47865 ,24.32053 
160 ,29.8894 ,0.94283 ,2.48550 ,24.38769 
161 ,30.0812 ,0.94479 ,2.43759 ,23.91759 
162 ,30.2731 ,0.94671 ,2.44785 ,24.01833 
163 ,30.4496 ,0.94850 ,2.43074 ,23.85044 
164 ,30.6414 ,0.95046 ,2.40336 ,23.58181 
165 ,30.8331 ,0.95229 ,2.39652 ,23.51465 
166 ,31.0258 ,0.95416 ,2.38968 ,23.44750 
167 ,31.2019 ,0.95604 ,2.36914 ,23.24603 
168 ,31.3935 ,0.95793 ,2.33834 ,22.94382 
169 ,31.5700 ,0.95976 ,2.33492 ,22.91024 
170 ,31.7620 ,0.96164 ,2.31439 ,22.70877 
171 ,31.9380 ,0.96342 ,2.30412 ,22.60804 
172 ,32.1142 ,0.96522 ,2.30070 ,22.57446 
173 ,32.2903 ,0.96694 ,2.27332 ,22.30584 
174 ,32.4825 ,0.96882 ,2.24594 ,22.03721 
175 ,32.6743 ,0.97073 ,2.23568 ,21.93647 
176 ,32.8502 ,0.97251 ,2.24252 ,22.00363 
177 ,33.0424 ,0.97446 ,2.21857 ,21.76858 
178 ,33.2342 ,0.97633 ,2.18777 ,21.46638 
179 ,33.4106 ,0.97811 ,2.18092 ,21.39922 
180 ,33.6026 ,0.98003 ,2.16381 ,21.23133 
181 ,33.7946 ,0.98194 ,2.13986 ,20.99628 
182 ,33.9707 ,0.98370 ,2.13644 ,20.96270 
183 ,34.1467 ,0.98556 ,2.10906 ,20.69408 
184 ,34.3228 ,0.98726 ,2.11248 ,20.72766 
185 ,34.4989 ,0.98902 ,2.09537 ,20.55976 
186 ,34.6913 ,0.99090 ,2.07141 ,20.32472 
187 ,34.8833 ,0.99286 ,2.07141 ,20.32472 
188 ,35.0590 ,0.99462 ,2.03719 ,19.98893 
189 ,35.2354 ,0.99633 ,2.02008 ,19.82104 
190 ,35.4435 ,0.99837 ,2.01666 ,19.78746 
191 ,35.6195 ,1.00020 ,1.99270 ,19.55241 
192 ,35.7956 ,1.00192 ,1.95848 ,19.21663 
193 ,35.9718 ,1.00367 ,1.97217 ,19.35094 
194 ,36.1635 ,1.00566 ,1.96190 ,19.25021 
195 ,36.3399 ,1.00745 ,1.94137 ,19.04874 
196 ,36.5319 ,1.00924 ,1.92426 ,18.88085 
197 ,36.7079 ,1.01109 ,1.90715 ,18.71296 
198 ,36.9001 ,1.01302 ,1.89346 ,18.57864 
199 ,37.0760 ,1.01479 ,1.87293 ,18.37717 
200 ,37.2523 ,1.01651 ,1.85924 ,18.24286 
201 ,37.4443 ,1.01831 ,1.86608 ,18.31002 
202 ,37.6204 ,1.02020 ,1.83186 ,17.97423 
203 ,37.7965 ,1.02195 ,1.81133 ,17.77276 
204 ,37.9727 ,1.02371 ,1.79764 ,17.63845 
205 ,38.1647 ,1.02559 ,1.79422 ,17.60487 
206 ,38.3567 ,1.02752 ,1.76684 ,17.33625 
207 ,38.5489 ,1.02952 ,1.76684 ,17.33625 
208 ,38.7567 ,1.03150 ,1.74631 ,17.13478 
209 ,38.9330 ,1.03331 ,1.72235 ,16.89973 
210 ,39.1252 ,1.03526 ,1.72235 ,16.89973 
211 ,39.3012 ,1.03701 ,1.68813 ,16.56395 
212 ,39.4929 ,1.03890 ,1.68471 ,16.53037 
213 ,39.6852 ,1.04080 ,1.67786 ,16.46321 
214 ,39.8615 ,1.04263 ,1.65733 ,16.26174 
215 ,40.0534 ,1.04447 ,1.64707 ,16.16101 
216 ,40.2295 ,1.04628 ,1.62995 ,15.99311 
217 ,40.4050 ,1.04804 ,1.62653 ,15.95954 
218 ,40.7576 ,1.05144 ,1.58889 ,15.59018 
219 ,40.9493 ,1.05345 ,1.58889 ,15.59018 
220 ,41.1259 ,1.05523 ,1.56493 ,15.35513 
221 ,41.3338 ,1.05728 ,1.54440 ,15.15366 
222 ,41.5096 ,1.05910 ,1.53413 ,15.05292 
223 ,41.6859 ,1.06084 ,1.52729 ,14.98577 
224 ,41.8783 ,1.06275 ,1.49307 ,14.64998 
225 ,42.0702 ,1.06461 ,1.48622 ,14.58283 
226 ,42.2623 ,1.06657 ,1.48622 ,14.58283 
227 ,42.4384 ,1.06840 ,1.44174 ,14.14631 
228 ,42.6300 ,1.07021 ,1.45885 ,14.31420 
229 ,42.8066 ,1.07203 ,1.45200 ,14.24704 
230 ,42.9987 ,1.07393 ,1.41436 ,13.87768 
231 ,43.1907 ,1.07584 ,1.41778 ,13.91126 
232 ,43.3826 ,1.07775 ,1.39383 ,13.67621 
233 ,43.5746 ,1.07973 ,1.36987 ,13.44116 
234 ,43.7508 ,1.08159 ,1.36645 ,13.40759 
235 ,43.9268 ,1.08327 ,1.36645 ,13.40759 
236 ,44.1031 ,1.08498 ,1.33907 ,13.13896 
237 ,44.2949 ,1.08691 ,1.32196 ,12.97107 
238 ,44.4713 ,1.08871 ,1.29458 ,12.70244 
239 ,44.6634 ,1.09057 ,1.31854 ,12.93749 
240 ,44.8394 ,1.09239 ,1.29458 ,12.70244 
241 ,45.0314 ,1.09429 ,1.27405 ,12.50097 
242 ,45.2234 ,1.09620 ,1.26036 ,12.36666 
243 ,45.3996 ,1.09793 ,1.24325 ,12.19877 
244 ,45.5912 ,1.09996 ,1.23983 ,12.16519 
245 ,45.7673 ,1.10159 ,1.24325 ,12.19877 
246 ,45.9436 ,1.10340 ,1.22956 ,12.06445 
247 ,46.1519 ,1.10544 ,1.20218 ,11.79583 
248 ,46.3438 ,1.10735 ,1.17481 ,11.52720 
249 ,46.5521 ,1.10951 ,1.16796 ,11.46004 
250 ,46.7439 ,1.11134 ,1.14401 ,11.22500 
251 ,46.9360 ,1.11331 ,1.12005 ,10.98995 
252 ,47.1282 ,1.11522 ,1.12347 ,11.02353 
253 ,47.3203 ,1.11710 ,1.09610 ,10.75490 
254 ,47.4961 ,1.11894 ,1.08925 ,10.68774 
255 ,47.6724 ,1.12067 ,1.07556 ,10.55343 
256 ,47.8644 ,1.12260 ,1.08241 ,10.62059 
257 ,48.0402 ,1.12436 ,1.04819 ,10.28480 
258 ,48.2166 ,1.12612 ,1.03450 ,10.15049 
259 ,48.3927 ,1.12790 ,1.03450 ,10.15049 
260 ,48.6165 ,1.12993 ,1.03792 ,10.18407 
261 ,48.7928 ,1.13195 ,1.01396 ,9.94902 
262 ,48.9688 ,1.13366 ,0.99343 ,9.74755 
263 ,49.1448 ,1.13538 ,1.00712 ,9.88186 
264 ,49.3370 ,1.13730 ,0.95921 ,9.41177 
265 ,49.5294 ,1.13914 ,0.95579 ,9.37819 
266 ,49.7373 ,1.14121 ,0.93525 ,9.17672 
267 ,49.9295 ,1.14315 ,0.92841 ,9.10956 
268 ,50.1210 ,1.14523 ,0.90446 ,8.87451 
269 ,50.2975 ,1.14689 ,0.90446 ,8.87451 
270 ,50.4735 ,1.14871 ,0.87708 ,8.60589 
271 ,50.6497 ,1.15041 ,0.88392 ,8.67305 
272 ,50.8417 ,1.15233 ,0.85654 ,8.40442 
273 ,51.0180 ,1.15415 ,0.85654 ,8.40442 
274 ,51.2099 ,1.15609 ,0.84628 ,8.30368 
275 ,51.4020 ,1.15794 ,0.84628 ,8.30368 
276 ,51.5941 ,1.15981 ,0.81206 ,7.96790 
277 ,51.7703 ,1.16169 ,0.81206 ,7.96790 
278 ,51.9462 ,1.16335 ,0.81548 ,8.00148 
279 ,52.1222 ,1.16517 ,0.78468 ,7.69927 
280 ,52.2823 ,1.16685 ,0.77784 ,7.63212 
281 ,52.4742 ,1.16858 ,0.75730 ,7.43065 
282 ,52.6506 ,1.17043 ,0.75046 ,7.36349 
283 ,52.8426 ,1.17234 ,0.73335 ,7.19560 
284 ,53.0346 ,1.17428 ,0.72308 ,7.09486 
285 ,53.2107 ,1.17604 ,0.70939 ,6.96055 
286 ,53.3867 ,1.17785 ,0.70939 ,6.96055 
287 ,53.5789 ,1.17964 ,0.68201 ,6.69193 
288 ,53.7550 ,1.18151 ,0.67175 ,6.59119 
289 ,53.9790 ,1.18358 ,0.66148 ,6.49046 
290 ,54.1711 ,1.18558 ,0.65464 ,6.42330 
291 ,54.3469 ,1.18735 ,0.64095 ,6.28899 
292 ,54.5390 ,1.18923 ,0.63410 ,6.22183 
293 ,54.7314 ,1.19125 ,0.61699 ,6.05394 
294 ,54.9234 ,1.19311 ,0.60330 ,5.91962 
295 ,55.0993 ,1.19493 ,0.58277 ,5.71815 
296 ,55.2914 ,1.19678 ,0.57935 ,5.68458 
297 ,55.4835 ,1.19874 ,0.56908 ,5.58384 
298 ,55.6597 ,1.20052 ,0.55197 ,5.41595 
299 ,55.8518 ,1.20244 ,0.54171 ,5.31522 
300 ,56.0280 ,1.20423 ,0.53486 ,5.24806 
301 ,56.2039 ,1.20597 ,0.53144 ,5.21448 
302 ,56.3959 ,1.20780 ,0.50064 ,4.91228 
303 ,56.5720 ,1.20964 ,0.49380 ,4.84512 
304 ,56.7480 ,1.21136 ,0.49380 ,4.84512 
305 ,56.9243 ,1.21321 ,0.49037 ,4.81154 
306 ,57.1164 ,1.21512 ,0.45273 ,4.44218 
307 ,57.3083 ,1.21700 ,0.44246 ,4.34144 
308 ,57.4843 ,1.21875 ,0.44931 ,4.40860 
309 ,57.6443 ,1.22046 ,0.41851 ,4.10640 
310 ,57.8207 ,1.22215 ,0.42193 ,4.13997 
311 ,57.9966 ,1.22391 ,0.39797 ,3.90493 
312 ,58.1726 ,1.22566 ,0.38086 ,3.73703 
313 ,58.3807 ,1.22760 ,0.39113 ,3.83777 
314 ,58.5886 ,1.22978 ,0.37402 ,3.66988 
315 ,58.7807 ,1.23172 ,0.36033 ,3.53557 
316 ,58.9729 ,1.23363 ,0.32953 ,3.23336 
317 ,59.1490 ,1.23541 ,0.33980 ,3.33410 
318 ,59.3410 ,1.23735 ,0.31584 ,3.09905 
319 ,59.5172 ,1.23908 ,0.30215 ,2.96473 
320 ,59.7088 ,1.24101 ,0.29189 ,2.86400 
321 ,59.9008 ,1.24284 ,0.28847 ,2.83042 
322 ,60.0931 ,1.24481 ,0.28504 ,2.79684 
323 ,60.3015 ,1.24688 ,0.25424 ,2.49464 
324 ,60.5096 ,1.24895 ,0.26793 ,2.62895 
325 ,60.6858 ,1.25074 ,0.25424 ,2.49464 
326 ,60.8617 ,1.25249 ,0.23713 ,2.32675 
327 ,61.0379 ,1.25429 ,0.22002 ,2.15885 
328 ,61.2139 ,1.25603 ,0.19607 ,1.92381 
329 ,61.3898 ,1.25781 ,0.19264 ,1.89023 
330 ,61.5821 ,1.25972 ,0.18922 ,1.85665 
331 ,61.7739 ,1.26163 ,0.16869 ,1.65518 
332 ,61.9504 ,1.26341 ,0.16185 ,1.58802 
333 ,62.1423 ,1.26530 ,0.16527 ,1.62160 
334 ,62.3345 ,1.26727 ,0.12762 ,1.25224 
335 ,62.5423 ,1.26915 ,0.13789 ,1.35298 
336 ,62.7346 ,1.27116 ,0.12078 ,1.18508 
337 ,62.9103 ,1.27306 ,0.12420 ,1.21866 
338 ,63.0863 ,1.27475 ,0.09340 ,0.91646 
339 ,63.2628 ,1.27654 ,0.09682 ,0.95004 
340 ,63.4390 ,1.27825 ,0.07629 ,0.74857 
341 ,63.6311 ,1.28022 ,0.06260 ,0.61425 
342 ,63.8232 ,1.28205 ,0.05234 ,0.51352 
343 ,64.0148 ,1.28402 ,0.04207 ,0.41278 
344 ,64.2071 ,1.28589 ,0.04891 ,0.47994 
345 ,64.4158 ,1.28790 ,0.00100 ,0.00984 
346 ,64.6230 ,1.29007 ,0.02496 ,0.24489 
347 ,64.8155 ,1.29199 ,0.00443 ,0.04342 
348 ,65.0077 ,1.29400 ,0.00100 ,0.00984 
349 ,65.1835 ,1.29577 ,-0.02637 ,-0.25878 
350 ,65.3597 ,1.29752 ,-0.03322 ,-0.32594 
351 ,65.5519 ,1.29940 ,-0.05375 ,-0.52741 
352 ,65.7278 ,1.30116 ,-0.05375 ,-0.52741 
353 ,65.9040 ,1.30291 ,-0.05033 ,-0.49383 
354 ,66.0959 ,1.30475 ,-0.08113 ,-0.79604 
355 ,66.2721 ,1.30661 ,-0.08455 ,-0.82961 
356 ,66.4642 ,1.30848 ,-0.08113 ,-0.79604 
357 ,66.6403 ,1.31028 ,-0.09824 ,-0.96393 
358 ,66.8324 ,1.31216 ,-0.10851 ,-1.06466 
359 ,67.0247 ,1.31412 ,-0.11193 ,-1.09824 
360 ,67.2164 ,1.31603 ,-0.13246 ,-1.29971 
361 ,67.4084 ,1.31788 ,-0.13588 ,-1.33329 
362 ,67.6168 ,1.32008 ,-0.15299 ,-1.50118 
363 ,67.8088 ,1.32200 ,-0.14957 ,-1.46760 
364 ,67.9846 ,1.32377 ,-0.17353 ,-1.70265 
365 ,68.1608 ,1.32552 ,-0.17011 ,-1.66907 
366 ,68.3529 ,1.32732 ,-0.20433 ,-2.00485 
367 ,68.5451 ,1.32928 ,-0.18722 ,-1.83696 
368 ,68.7692 ,1.33142 ,-0.21802 ,-2.13917 
369 ,68.9451 ,1.33336 ,-0.19064 ,-1.87054 
370 ,69.1209 ,1.33518 ,-0.23513 ,-2.30706 
371 ,69.2973 ,1.33687 ,-0.23170 ,-2.27348 
372 ,69.4733 ,1.33858 ,-0.25224 ,-2.47495 
373 ,69.6815 ,1.34066 ,-0.25566 ,-2.50853 
374 ,69.8575 ,1.34242 ,-0.26250 ,-2.57569 
375 ,70.0817 ,1.34445 ,-0.26593 ,-2.60926 
376 ,70.2735 ,1.34659 ,-0.28304 ,-2.77716 
377 ,70.4655 ,1.34846 ,-0.30357 ,-2.97863 
378 ,70.6577 ,1.35038 ,-0.29330 ,-2.87789 
379 ,70.8500 ,1.35238 ,-0.33095 ,-3.24725 
380 ,71.0260 ,1.35410 ,-0.31384 ,-3.07936 
381 ,71.2183 ,1.35605 ,-0.33095 ,-3.24725 
382 ,71.4263 ,1.35811 ,-0.32752 ,-3.21367 
383 ,71.6024 ,1.35993 ,-0.34464 ,-3.38156 
384 ,71.7944 ,1.36169 ,-0.35832 ,-3.51588 
385 ,71.9705 ,1.36359 ,-0.37544 ,-3.68377 
386 ,72.1622 ,1.36545 ,-0.39255 ,-3.85166 
387 ,72.3387 ,1.36726 ,-0.38228 ,-3.75093 
388 ,72.5147 ,1.36902 ,-0.39939 ,-3.91882 
389 ,72.7064 ,1.37086 ,-0.40281 ,-3.95240 
390 ,72.8829 ,1.37268 ,-0.40966 ,-4.01955 
391 ,73.0747 ,1.37455 ,-0.43019 ,-4.22102 
392 ,73.2669 ,1.37643 ,-0.45072 ,-4.42249 
393 ,73.4590 ,1.37832 ,-0.44730 ,-4.38891 
394 ,73.6351 ,1.38017 ,-0.45757 ,-4.48965 
395 ,73.8432 ,1.38223 ,-0.46099 ,-4.52323 
396 ,74.0352 ,1.38412 ,-0.46783 ,-4.59038 
397 ,74.2114 ,1.38598 ,-0.49863 ,-4.89259 
398 ,74.4195 ,1.38797 ,-0.48494 ,-4.75828 
399 ,74.6275 ,1.39004 ,-0.50548 ,-4.95975 
400 ,74.7871 ,1.39186 ,-0.51232 ,-5.02690 
401 ,74.9637 ,1.39345 ,-0.51574 ,-5.06048 
402 ,75.1715 ,1.39551 ,-0.53628 ,-5.26195 
403 ,75.3478 ,1.39734 ,-0.55339 ,-5.42984 
404 ,75.5400 ,1.39927 ,-0.53628 ,-5.26195 
405 ,75.7321 ,1.40112 ,-0.56365 ,-5.53058 
406 ,75.9241 ,1.40309 ,-0.56708 ,-5.56415 
407 ,76.1161 ,1.40503 ,-0.57734 ,-5.66489 
408 ,76.2922 ,1.40675 ,-0.59788 ,-5.86636 
409 ,76.4842 ,1.40860 ,-0.60472 ,-5.93352 
410 ,76.6605 ,1.41045 ,-0.59788 ,-5.86636 
411 ,76.8363 ,1.41224 ,-0.61156 ,-6.00067 
412 ,77.0126 ,1.41398 ,-0.62868 ,-6.16856 
413 ,77.2046 ,1.41587 ,-0.62868 ,-6.16856 
414 ,77.4127 ,1.41782 ,-0.65605 ,-6.43719 
415 ,77.5887 ,1.41973 ,-0.65947 ,-6.47077 
416 ,77.7805 ,1.42166 ,-0.66632 ,-6.53793 
417 ,77.9568 ,1.42338 ,-0.66974 ,-6.57150 
418 ,78.1490 ,1.42536 ,-0.69370 ,-6.80655 
419 ,78.3411 ,1.42727 ,-0.68343 ,-6.70582 
420 ,78.5493 ,1.42922 ,-0.68685 ,-6.73940 
421 ,78.7412 ,1.43119 ,-0.70739 ,-6.94086 
422 ,78.9175 ,1.43304 ,-0.71423 ,-7.00802 
423 ,79.0928 ,1.43476 ,-0.73476 ,-7.20949 
424 ,79.2695 ,1.43652 ,-0.74161 ,-7.27665 
425 ,79.4775 ,1.43851 ,-0.73818 ,-7.24307 
426 ,79.6537 ,1.44036 ,-0.76214 ,-7.47812 
427 ,79.8458 ,1.44225 ,-0.75187 ,-7.37738 
428 ,80.0376 ,1.44413 ,-0.77241 ,-7.57885 
429 ,80.2457 ,1.44620 ,-0.77583 ,-7.61243 
430 ,80.4380 ,1.44826 ,-0.78952 ,-7.74674 
431 ,80.6301 ,1.45015 ,-0.79978 ,-7.84748 
432 ,80.8062 ,1.45186 ,-0.79978 ,-7.84748 
433 ,80.9983 ,1.45380 ,-0.80663 ,-7.91464 
434 ,81.1738 ,1.45563 ,-0.83058 ,-8.14968 
435 ,81.3504 ,1.45734 ,-0.83401 ,-8.18326 
436 ,81.5425 ,1.45926 ,-0.83401 ,-8.18326 
437 ,81.7185 ,1.46107 ,-0.82374 ,-8.08253 
438 ,81.8944 ,1.46274 ,-0.85454 ,-8.38473 
439 ,82.0707 ,1.46457 ,-0.86823 ,-8.51904 
440 ,82.2624 ,1.46639 ,-0.85454 ,-8.38473 
441 ,82.4386 ,1.46823 ,-0.87507 ,-8.58620 
442 ,82.6469 ,1.47027 ,-0.89560 ,-8.78767 
443 ,82.8231 ,1.47207 ,-0.89218 ,-8.75409 
444 ,83.0148 ,1.47391 ,-0.90929 ,-8.92198 
445 ,83.1907 ,1.47575 ,-0.91272 ,-8.95556 
446 ,83.3667 ,1.47745 ,-0.92640 ,-9.08988 
447 ,83.5432 ,1.47929 ,-0.92983 ,-9.12345 
448 ,83.7353 ,1.48120 ,-0.93325 ,-9.15703 
449 ,83.9114 ,1.48298 ,-0.95720 ,-9.39208 
450 ,84.1034 ,1.48478 ,-0.94351 ,-9.25777 
451 ,84.2636 ,1.48656 ,-0.95378 ,-9.35850 
452 ,84.4551 ,1.48832 ,-0.96063 ,-9.42566 
453 ,84.6317 ,1.49013 ,-0.97774 ,-9.59355 
454 ,84.8237 ,1.49203 ,-0.97431 ,-9.55997 
455 ,84.9998 ,1.49378 ,-0.97089 ,-9.52639 
456 ,85.1760 ,1.49555 ,-0.99827 ,-9.79502 
457 ,85.3676 ,1.49743 ,-1.00169 ,-9.82860 
458 ,85.5438 ,1.49926 ,-1.00169 ,-9.82860 
459 ,85.7362 ,1.50109 ,-0.99485 ,-9.76144 
460 ,85.9123 ,1.50294 ,-1.02565 ,-10.06365 
461 ,86.1041 ,1.50477 ,-1.02222 ,-10.03007 
462 ,86.2803 ,1.50668 ,-1.02565 ,-10.06365 
