Data stamp = , 20-04-2022 00:48:47 768

Calibration Values: 
Slope = , 26.54 , g/V 
Offset Voltage at no contact = , -0.501760 , V 

No , Time , Stage Position ,   Mass , Force 
   ,  (s) ,      (mm)      ,   (g)  , (mN)  

1 ,0.0000 ,0.59946 ,5.28141 ,51.82116 
2 ,0.2151 ,0.59952 ,5.29510 ,51.95548 
3 ,0.6152 ,0.60083 ,5.27798 ,51.78758 
4 ,0.8237 ,0.60257 ,5.27114 ,51.72043 
5 ,1.0159 ,0.60440 ,5.29510 ,51.95548 
6 ,1.2079 ,0.60621 ,5.28141 ,51.82116 
7 ,1.3840 ,0.60792 ,5.27798 ,51.78758 
8 ,1.5601 ,0.60975 ,5.28483 ,51.85474 
9 ,1.7518 ,0.61163 ,5.27456 ,51.75401 
10 ,1.9284 ,0.61351 ,5.28141 ,51.82116 
11 ,2.1363 ,0.61553 ,5.26772 ,51.68685 
12 ,2.3123 ,0.61733 ,5.26772 ,51.68685 
13 ,2.4880 ,0.61911 ,5.25745 ,51.58611 
14 ,2.6647 ,0.62088 ,5.23692 ,51.38464 
15 ,2.8404 ,0.62264 ,5.24718 ,51.48538 
16 ,3.0167 ,0.62437 ,5.23350 ,51.35107 
17 ,3.2086 ,0.62624 ,5.20270 ,51.04886 
18 ,3.4005 ,0.62810 ,5.19927 ,51.01528 
19 ,3.5926 ,0.63007 ,5.18559 ,50.88097 
20 ,3.7849 ,0.63204 ,5.15821 ,50.61234 
21 ,3.9607 ,0.63380 ,5.16163 ,50.64592 
22 ,4.1531 ,0.63571 ,5.16163 ,50.64592 
23 ,4.3449 ,0.63753 ,5.12741 ,50.31014 
24 ,4.5210 ,0.63940 ,5.11372 ,50.17583 
25 ,4.7133 ,0.64125 ,5.08292 ,49.87362 
26 ,4.9052 ,0.64316 ,5.06239 ,49.67215 
27 ,5.0975 ,0.64516 ,5.06239 ,49.67215 
28 ,5.2894 ,0.64720 ,5.02474 ,49.30279 
29 ,5.4656 ,0.64885 ,5.00763 ,49.13490 
30 ,5.6416 ,0.65061 ,4.99737 ,49.03416 
31 ,5.8337 ,0.65255 ,4.99394 ,49.00058 
32 ,6.0095 ,0.65424 ,4.95630 ,48.63122 
33 ,6.1859 ,0.65603 ,4.93919 ,48.46333 
34 ,6.3619 ,0.65782 ,4.92550 ,48.32902 
35 ,6.5380 ,0.65968 ,4.92208 ,48.29544 
36 ,6.7302 ,0.66142 ,4.90497 ,48.12755 
37 ,6.9221 ,0.66342 ,4.87075 ,47.79177 
38 ,7.0978 ,0.66520 ,4.86732 ,47.75819 
39 ,7.2743 ,0.66688 ,4.86390 ,47.72461 
40 ,7.4824 ,0.66895 ,4.82968 ,47.38883 
41 ,7.6585 ,0.67080 ,4.81257 ,47.22093 
42 ,7.8346 ,0.67255 ,4.80230 ,47.12020 
43 ,8.0106 ,0.67427 ,4.77835 ,46.88515 
44 ,8.1704 ,0.67600 ,4.74755 ,46.58295 
45 ,8.3467 ,0.67765 ,4.73728 ,46.48221 
46 ,8.5229 ,0.67943 ,4.71333 ,46.24716 
47 ,8.7150 ,0.68136 ,4.72359 ,46.34790 
48 ,8.9071 ,0.68314 ,4.67911 ,45.91138 
49 ,9.0992 ,0.68517 ,4.67911 ,45.91138 
50 ,9.2750 ,0.68696 ,4.66884 ,45.81065 
51 ,9.4669 ,0.68884 ,4.63462 ,45.47486 
52 ,9.6754 ,0.69090 ,4.63462 ,45.47486 
53 ,9.8515 ,0.69267 ,4.60724 ,45.20624 
54 ,10.0435 ,0.69458 ,4.57986 ,44.93761 
55 ,10.2196 ,0.69633 ,4.57644 ,44.90403 
56 ,10.4115 ,0.69818 ,4.55249 ,44.66898 
57 ,10.5877 ,0.70017 ,4.53195 ,44.46751 
58 ,10.7637 ,0.70175 ,4.50800 ,44.23247 
59 ,10.9719 ,0.70387 ,4.49089 ,44.06457 
60 ,11.1640 ,0.70578 ,4.46351 ,43.79595 
61 ,11.3557 ,0.70772 ,4.46351 ,43.79595 
62 ,11.5322 ,0.70955 ,4.45666 ,43.72879 
63 ,11.7401 ,0.71152 ,4.43613 ,43.52732 
64 ,11.9322 ,0.71343 ,4.40191 ,43.19154 
65 ,12.1080 ,0.71522 ,4.38822 ,43.05723 
66 ,12.2680 ,0.71691 ,4.36427 ,42.82218 
67 ,12.4442 ,0.71860 ,4.33689 ,42.55355 
68 ,12.6526 ,0.72066 ,4.34031 ,42.58713 
69 ,12.8769 ,0.72276 ,4.32320 ,42.41924 
70 ,13.0847 ,0.72490 ,4.29240 ,42.11703 
71 ,13.2610 ,0.72675 ,4.27871 ,41.98272 
72 ,13.4530 ,0.72868 ,4.26160 ,41.81483 
73 ,13.6290 ,0.73050 ,4.23080 ,41.51262 
74 ,13.8210 ,0.73231 ,4.23422 ,41.54620 
75 ,13.9969 ,0.73417 ,4.22053 ,41.41189 
76 ,14.1733 ,0.73589 ,4.21369 ,41.34473 
77 ,14.3493 ,0.73765 ,4.18631 ,41.07611 
78 ,14.5416 ,0.73953 ,4.15894 ,40.80748 
79 ,14.7335 ,0.74141 ,4.14525 ,40.67317 
80 ,14.9096 ,0.74324 ,4.12814 ,40.50527 
81 ,15.1016 ,0.74507 ,4.12129 ,40.43812 
82 ,15.2939 ,0.74704 ,4.10418 ,40.27023 
83 ,15.4852 ,0.74894 ,4.06996 ,39.93444 
84 ,15.6776 ,0.75086 ,4.06654 ,39.90087 
85 ,15.8540 ,0.75271 ,4.05627 ,39.80013 
86 ,16.0461 ,0.75453 ,4.03916 ,39.63224 
87 ,16.2383 ,0.75654 ,4.01520 ,39.39719 
88 ,16.4143 ,0.75834 ,4.00494 ,39.29646 
89 ,16.6064 ,0.76013 ,3.98441 ,39.09499 
90 ,16.7983 ,0.76204 ,3.96729 ,38.92709 
91 ,16.9745 ,0.76386 ,3.95703 ,38.82636 
92 ,17.1663 ,0.76579 ,3.92623 ,38.52415 
93 ,17.3746 ,0.76780 ,3.91596 ,38.42342 
94 ,17.5826 ,0.76982 ,3.88516 ,38.12122 
95 ,17.7904 ,0.77198 ,3.87147 ,37.98690 
96 ,17.9667 ,0.77386 ,3.85094 ,37.78543 
97 ,18.1589 ,0.77573 ,3.85094 ,37.78543 
98 ,18.3507 ,0.77759 ,3.82014 ,37.48323 
99 ,18.5270 ,0.77943 ,3.79276 ,37.21460 
100 ,18.7031 ,0.78115 ,3.78592 ,37.14744 
101 ,18.8948 ,0.78309 ,3.78250 ,37.11387 
102 ,19.0711 ,0.78485 ,3.76539 ,36.94597 
103 ,19.2794 ,0.78685 ,3.75512 ,36.84524 
104 ,19.4710 ,0.78879 ,3.71748 ,36.47588 
105 ,19.6476 ,0.79061 ,3.70379 ,36.34157 
106 ,19.8396 ,0.79244 ,3.70037 ,36.30799 
107 ,20.0156 ,0.79428 ,3.69352 ,36.24083 
108 ,20.1919 ,0.79603 ,3.67641 ,36.07294 
109 ,20.3677 ,0.79785 ,3.63192 ,35.63642 
110 ,20.5597 ,0.79972 ,3.63534 ,35.67000 
111 ,20.7515 ,0.80158 ,3.61481 ,35.46853 
112 ,20.9280 ,0.80345 ,3.58059 ,35.13275 
113 ,21.1201 ,0.80540 ,3.58401 ,35.16632 
114 ,21.2962 ,0.80711 ,3.57032 ,35.03201 
115 ,21.4721 ,0.80890 ,3.55321 ,34.86412 
116 ,21.6644 ,0.81072 ,3.52926 ,34.62907 
117 ,21.8399 ,0.81259 ,3.51899 ,34.52834 
118 ,22.0165 ,0.81429 ,3.50872 ,34.42760 
119 ,22.2082 ,0.81614 ,3.46766 ,34.02466 
120 ,22.3847 ,0.81797 ,3.45739 ,33.92393 
121 ,22.5766 ,0.81980 ,3.46081 ,33.95751 
122 ,22.7688 ,0.82184 ,3.41975 ,33.55457 
123 ,22.9606 ,0.82371 ,3.43001 ,33.65530 
124 ,23.1365 ,0.82550 ,3.40948 ,33.45383 
125 ,23.3130 ,0.82729 ,3.38895 ,33.25236 
126 ,23.4891 ,0.82900 ,3.36499 ,33.01731 
127 ,23.6653 ,0.83079 ,3.33762 ,32.74869 
128 ,23.8573 ,0.83273 ,3.34788 ,32.84942 
129 ,24.0493 ,0.83463 ,3.31366 ,32.51364 
130 ,24.2411 ,0.83646 ,3.31708 ,32.54722 
131 ,24.4171 ,0.83830 ,3.29655 ,32.34575 
132 ,24.6096 ,0.84018 ,3.25891 ,31.97639 
133 ,24.8014 ,0.84215 ,3.25206 ,31.90923 
134 ,24.9777 ,0.84391 ,3.24180 ,31.80849 
135 ,25.1696 ,0.84576 ,3.20757 ,31.47271 
136 ,25.3298 ,0.84754 ,3.18704 ,31.27124 
137 ,25.5059 ,0.84920 ,3.18020 ,31.20409 
138 ,25.6819 ,0.85092 ,3.18020 ,31.20409 
139 ,25.8577 ,0.85268 ,3.17335 ,31.13693 
140 ,26.0341 ,0.85448 ,3.16309 ,31.03619 
141 ,26.2261 ,0.85637 ,3.12202 ,30.63325 
142 ,26.3857 ,0.85808 ,3.11860 ,30.59968 
143 ,26.5622 ,0.85975 ,3.10149 ,30.43178 
144 ,26.7541 ,0.86165 ,3.09464 ,30.36463 
145 ,26.9465 ,0.86359 ,3.04331 ,29.86095 
146 ,27.1385 ,0.86544 ,3.06042 ,30.02884 
147 ,27.3146 ,0.86723 ,3.03304 ,29.76022 
148 ,27.6504 ,0.86980 ,3.01935 ,29.62590 
149 ,27.8267 ,0.87238 ,2.98513 ,29.29012 
150 ,28.0188 ,0.87436 ,2.97487 ,29.18939 
151 ,28.1949 ,0.87606 ,2.97829 ,29.22297 
152 ,28.3707 ,0.87778 ,2.94749 ,28.92076 
153 ,28.5470 ,0.87961 ,2.91327 ,28.58498 
154 ,28.7071 ,0.88128 ,2.91327 ,28.58498 
155 ,28.8832 ,0.88289 ,2.89273 ,28.38351 
156 ,29.0755 ,0.88485 ,2.89616 ,28.41709 
157 ,29.2515 ,0.88662 ,2.86536 ,28.11488 
158 ,29.4433 ,0.88845 ,2.85509 ,28.01415 
159 ,29.6195 ,0.89029 ,2.83798 ,27.84625 
160 ,29.7956 ,0.89207 ,2.82771 ,27.74552 
161 ,29.9876 ,0.89388 ,2.79007 ,27.37616 
162 ,30.1797 ,0.89596 ,2.79349 ,27.40974 
163 ,30.3557 ,0.89765 ,2.77980 ,27.27542 
164 ,30.5318 ,0.89941 ,2.74558 ,26.93964 
165 ,30.7079 ,0.90113 ,2.72847 ,26.77175 
166 ,30.8838 ,0.90296 ,2.71136 ,26.60386 
167 ,31.0762 ,0.90482 ,2.71136 ,26.60386 
168 ,31.2682 ,0.90675 ,2.68740 ,26.36881 
169 ,31.4440 ,0.90851 ,2.67714 ,26.26807 
170 ,31.6523 ,0.91046 ,2.65660 ,26.06661 
171 ,31.8284 ,0.91243 ,2.63949 ,25.89871 
172 ,32.0202 ,0.91424 ,2.62581 ,25.76440 
173 ,32.1965 ,0.91603 ,2.61896 ,25.69724 
174 ,32.3727 ,0.91784 ,2.60869 ,25.59651 
175 ,32.5645 ,0.91973 ,2.58816 ,25.39504 
176 ,32.7564 ,0.92158 ,2.57447 ,25.26073 
177 ,32.9328 ,0.92343 ,2.54710 ,24.99210 
178 ,33.1247 ,0.92526 ,2.52656 ,24.79063 
179 ,33.3005 ,0.92712 ,2.51287 ,24.65632 
180 ,33.4771 ,0.92883 ,2.50603 ,24.58916 
181 ,33.6850 ,0.93087 ,2.49918 ,24.52200 
182 ,33.8608 ,0.93273 ,2.48207 ,24.35411 
183 ,34.0530 ,0.93453 ,2.45470 ,24.08549 
184 ,34.2451 ,0.93655 ,2.43416 ,23.88402 
185 ,34.4213 ,0.93829 ,2.42732 ,23.81686 
186 ,34.6133 ,0.94018 ,2.41705 ,23.71612 
187 ,34.7893 ,0.94195 ,2.37941 ,23.34676 
188 ,34.9652 ,0.94372 ,2.36230 ,23.17887 
189 ,35.1416 ,0.94550 ,2.36230 ,23.17887 
190 ,35.3177 ,0.94722 ,2.34519 ,23.01098 
191 ,35.4937 ,0.94900 ,2.33492 ,22.91024 
192 ,35.7018 ,0.95101 ,2.32465 ,22.80951 
193 ,35.8941 ,0.95288 ,2.29728 ,22.54088 
194 ,36.0701 ,0.95482 ,2.28359 ,22.40657 
195 ,36.2462 ,0.95652 ,2.26306 ,22.20510 
196 ,36.4384 ,0.95840 ,2.25621 ,22.13794 
197 ,36.6304 ,0.96030 ,2.24937 ,22.07079 
198 ,36.8220 ,0.96222 ,2.22541 ,21.83574 
199 ,37.0145 ,0.96411 ,2.21515 ,21.73500 
200 ,37.2066 ,0.96614 ,2.17750 ,21.36564 
201 ,37.4148 ,0.96815 ,2.17066 ,21.29849 
202 ,37.6067 ,0.97005 ,2.14328 ,21.02986 
203 ,37.7826 ,0.97188 ,2.13644 ,20.96270 
204 ,37.9748 ,0.97378 ,2.13644 ,20.96270 
205 ,38.1666 ,0.97572 ,2.08510 ,20.45903 
206 ,38.3589 ,0.97757 ,2.09879 ,20.59334 
207 ,38.5509 ,0.97957 ,2.06457 ,20.25756 
208 ,38.7591 ,0.98155 ,2.05430 ,20.15682 
209 ,38.9509 ,0.98353 ,2.03719 ,19.98893 
210 ,39.1433 ,0.98545 ,2.02350 ,19.85462 
211 ,39.3193 ,0.98726 ,2.01666 ,19.78746 
212 ,39.5110 ,0.98921 ,2.00297 ,19.65315 
213 ,39.6875 ,0.99092 ,1.96875 ,19.31737 
214 ,39.8796 ,0.99284 ,1.96533 ,19.28379 
215 ,40.0557 ,0.99465 ,1.96190 ,19.25021 
216 ,40.2476 ,0.99652 ,1.92426 ,18.88085 
217 ,40.4237 ,0.99831 ,1.90715 ,18.71296 
218 ,40.6315 ,1.00026 ,1.90373 ,18.67938 
219 ,40.8079 ,1.00210 ,1.87293 ,18.37717 
220 ,40.9839 ,1.00385 ,1.86608 ,18.31002 
221 ,41.1602 ,1.00567 ,1.87635 ,18.41075 
222 ,41.3519 ,1.00759 ,1.83186 ,17.97423 
223 ,41.5440 ,1.00949 ,1.83186 ,17.97423 
224 ,41.7360 ,1.01143 ,1.80449 ,17.70561 
225 ,41.9118 ,1.01316 ,1.80106 ,17.67203 
226 ,42.0880 ,1.01494 ,1.77711 ,17.43698 
227 ,42.2646 ,1.01670 ,1.78395 ,17.50414 
228 ,42.4562 ,1.01873 ,1.75315 ,17.20193 
229 ,42.6327 ,1.02038 ,1.73262 ,17.00046 
230 ,42.8407 ,1.02237 ,1.73262 ,17.00046 
231 ,43.0329 ,1.02431 ,1.71551 ,16.83257 
232 ,43.2251 ,1.02619 ,1.68471 ,16.53037 
233 ,43.4010 ,1.02812 ,1.68471 ,16.53037 
234 ,43.5931 ,1.02997 ,1.65733 ,16.26174 
235 ,43.7690 ,1.03169 ,1.65049 ,16.19458 
236 ,43.9454 ,1.03351 ,1.63680 ,16.06027 
237 ,44.1375 ,1.03542 ,1.63338 ,16.02669 
238 ,44.3455 ,1.03743 ,1.61969 ,15.89238 
239 ,44.5376 ,1.03935 ,1.58889 ,15.59018 
240 ,44.7296 ,1.04129 ,1.56836 ,15.38871 
241 ,44.9057 ,1.04310 ,1.55809 ,15.28797 
242 ,45.0817 ,1.04482 ,1.55809 ,15.28797 
243 ,45.2574 ,1.04663 ,1.54098 ,15.12008 
244 ,45.4341 ,1.04838 ,1.51702 ,14.88503 
245 ,45.6099 ,1.05020 ,1.51360 ,14.85145 
246 ,45.7860 ,1.05186 ,1.48622 ,14.58283 
247 ,45.9941 ,1.05391 ,1.46569 ,14.38136 
248 ,46.1701 ,1.05575 ,1.46569 ,14.38136 
249 ,46.3782 ,1.05770 ,1.45542 ,14.28062 
250 ,46.6021 ,1.05996 ,1.44174 ,14.14631 
251 ,46.7783 ,1.06176 ,1.43489 ,14.07915 
252 ,46.9546 ,1.06356 ,1.42120 ,13.94484 
253 ,47.1307 ,1.06537 ,1.41094 ,13.84410 
254 ,47.3226 ,1.06718 ,1.39383 ,13.67621 
255 ,47.5146 ,1.06907 ,1.36303 ,13.37401 
256 ,47.6907 ,1.07092 ,1.35276 ,13.27327 
257 ,47.8668 ,1.07270 ,1.35276 ,13.27327 
258 ,48.0589 ,1.07454 ,1.33907 ,13.13896 
259 ,48.2511 ,1.07649 ,1.31854 ,12.93749 
260 ,48.4433 ,1.07837 ,1.31512 ,12.90391 
261 ,48.6192 ,1.08021 ,1.30485 ,12.80318 
262 ,48.7952 ,1.08199 ,1.27747 ,12.53455 
263 ,48.9710 ,1.08377 ,1.26036 ,12.36666 
264 ,49.1795 ,1.08581 ,1.25352 ,12.29950 
265 ,49.3555 ,1.08763 ,1.22956 ,12.06445 
266 ,49.5476 ,1.08951 ,1.23298 ,12.09803 
267 ,49.7236 ,1.09124 ,1.22272 ,11.99730 
268 ,49.9154 ,1.09308 ,1.20561 ,11.82941 
269 ,50.0917 ,1.09493 ,1.17481 ,11.52720 
270 ,50.2998 ,1.09694 ,1.18165 ,11.59436 
271 ,50.4760 ,1.09878 ,1.15770 ,11.35931 
272 ,50.6677 ,1.10069 ,1.15085 ,11.29215 
273 ,50.8442 ,1.10244 ,1.14401 ,11.22500 
274 ,51.0199 ,1.10424 ,1.11663 ,10.95637 
275 ,51.1962 ,1.10598 ,1.10979 ,10.88921 
276 ,51.3724 ,1.10773 ,1.08925 ,10.68774 
277 ,51.5639 ,1.10959 ,1.09952 ,10.78848 
278 ,51.7566 ,1.11161 ,1.06872 ,10.48627 
279 ,51.9486 ,1.11346 ,1.06530 ,10.45270 
280 ,52.1407 ,1.11534 ,1.03792 ,10.18407 
281 ,52.3168 ,1.11717 ,1.01739 ,9.98260 
282 ,52.5089 ,1.11901 ,1.02423 ,10.04976 
283 ,52.7170 ,1.12101 ,1.01054 ,9.91544 
284 ,52.9090 ,1.12306 ,0.99343 ,9.74755 
285 ,53.1009 ,1.12494 ,0.96948 ,9.51250 
286 ,53.2932 ,1.12689 ,0.94552 ,9.27745 
287 ,53.4693 ,1.12872 ,0.96263 ,9.44535 
288 ,53.6612 ,1.13060 ,0.95921 ,9.41177 
289 ,53.8374 ,1.13239 ,0.92499 ,9.07598 
290 ,54.0294 ,1.13434 ,0.92499 ,9.07598 
291 ,54.2052 ,1.13605 ,0.90788 ,8.90809 
292 ,54.3815 ,1.13780 ,0.90446 ,8.87451 
293 ,54.5732 ,1.13977 ,0.88050 ,8.63947 
294 ,54.7497 ,1.14148 ,0.85997 ,8.43800 
295 ,54.9414 ,1.14337 ,0.85997 ,8.43800 
296 ,55.1180 ,1.14517 ,0.85312 ,8.37084 
297 ,55.3094 ,1.14705 ,0.84628 ,8.30368 
298 ,55.4861 ,1.14890 ,0.82232 ,8.06864 
299 ,55.6940 ,1.15083 ,0.80179 ,7.86717 
300 ,55.8704 ,1.15269 ,0.79837 ,7.83359 
301 ,56.0783 ,1.15476 ,0.77441 ,7.59854 
302 ,56.2864 ,1.15669 ,0.77099 ,7.56496 
303 ,56.4786 ,1.15874 ,0.74704 ,7.32991 
304 ,56.6706 ,1.16068 ,0.72308 ,7.09486 
305 ,56.8626 ,1.16255 ,0.74019 ,7.26276 
306 ,57.0548 ,1.16444 ,0.71624 ,7.02771 
307 ,57.2468 ,1.16635 ,0.71281 ,6.99413 
308 ,57.4226 ,1.16826 ,0.69913 ,6.85982 
309 ,57.6146 ,1.17011 ,0.68201 ,6.69193 
310 ,57.8071 ,1.17202 ,0.67517 ,6.62477 
311 ,57.9987 ,1.17393 ,0.65464 ,6.42330 
312 ,58.1752 ,1.17577 ,0.64095 ,6.28899 
313 ,58.3670 ,1.17766 ,0.63068 ,6.18825 
314 ,58.5753 ,1.17956 ,0.61357 ,6.02036 
315 ,58.7511 ,1.18148 ,0.60673 ,5.95320 
316 ,58.9275 ,1.18326 ,0.58962 ,5.78531 
317 ,59.1036 ,1.18499 ,0.59988 ,5.88605 
318 ,59.3116 ,1.18703 ,0.56908 ,5.58384 
319 ,59.4877 ,1.18886 ,0.56566 ,5.55026 
320 ,59.6797 ,1.19071 ,0.53144 ,5.21448 
321 ,59.8717 ,1.19269 ,0.54513 ,5.34879 
322 ,60.0800 ,1.19474 ,0.51433 ,5.04659 
323 ,60.2879 ,1.19678 ,0.51775 ,5.08017 
324 ,60.4640 ,1.19856 ,0.51433 ,5.04659 
325 ,60.6557 ,1.20046 ,0.48011 ,4.71081 
326 ,60.8323 ,1.20229 ,0.48011 ,4.71081 
327 ,61.0084 ,1.20410 ,0.47326 ,4.64365 
328 ,61.2164 ,1.20594 ,0.45273 ,4.44218 
329 ,61.3923 ,1.20788 ,0.44931 ,4.40860 
330 ,61.5685 ,1.20971 ,0.44246 ,4.34144 
331 ,61.7446 ,1.21139 ,0.44246 ,4.34144 
332 ,61.9207 ,1.21318 ,0.42193 ,4.13997 
333 ,62.1128 ,1.21502 ,0.42193 ,4.13997 
334 ,62.3049 ,1.21691 ,0.40824 ,4.00566 
335 ,62.4808 ,1.21878 ,0.39113 ,3.83777 
336 ,62.6570 ,1.22054 ,0.37060 ,3.63630 
337 ,62.8171 ,1.22223 ,0.36375 ,3.56914 
338 ,62.9931 ,1.22385 ,0.36033 ,3.53557 
339 ,63.1692 ,1.22564 ,0.34322 ,3.36767 
340 ,63.3611 ,1.22754 ,0.33295 ,3.26694 
341 ,63.5375 ,1.22936 ,0.30900 ,3.03189 
342 ,63.7454 ,1.23146 ,0.32611 ,3.19978 
343 ,63.9214 ,1.23322 ,0.28162 ,2.76326 
344 ,64.0977 ,1.23493 ,0.27135 ,2.66253 
345 ,64.2737 ,1.23674 ,0.26793 ,2.62895 
346 ,64.4498 ,1.23846 ,0.27135 ,2.66253 
347 ,64.6418 ,1.24031 ,0.24740 ,2.42748 
348 ,64.8338 ,1.24222 ,0.23713 ,2.32675 
349 ,65.0421 ,1.24432 ,0.23371 ,2.29317 
350 ,65.2340 ,1.24633 ,0.20291 ,1.99096 
351 ,65.4102 ,1.24805 ,0.21660 ,2.12528 
352 ,65.5862 ,1.24980 ,0.20633 ,2.02454 
353 ,65.7622 ,1.25159 ,0.20291 ,1.99096 
354 ,65.9540 ,1.25350 ,0.17211 ,1.68876 
355 ,66.1465 ,1.25538 ,0.17553 ,1.72234 
356 ,66.3546 ,1.25739 ,0.15158 ,1.48729 
357 ,66.5466 ,1.25937 ,0.14816 ,1.45371 
358 ,66.7545 ,1.26149 ,0.12420 ,1.21866 
359 ,66.9467 ,1.26344 ,0.13789 ,1.35298 
360 ,67.1390 ,1.26528 ,0.08998 ,0.88288 
361 ,67.3307 ,1.26729 ,0.08998 ,0.88288 
362 ,67.5071 ,1.26904 ,0.10025 ,0.98361 
363 ,67.6991 ,1.27084 ,0.05918 ,0.58067 
364 ,67.8752 ,1.27271 ,0.05234 ,0.51352 
365 ,68.0511 ,1.27450 ,0.06945 ,0.68141 
366 ,68.2436 ,1.27634 ,0.04549 ,0.44636 
367 ,68.4515 ,1.27839 ,0.01811 ,0.17773 
368 ,68.6275 ,1.28024 ,0.03522 ,0.34563 
369 ,68.8196 ,1.28210 ,0.00443 ,0.04342 
370 ,69.0116 ,1.28398 ,0.00785 ,0.07700 
371 ,69.1873 ,1.28590 ,-0.00242 ,-0.02373 
372 ,69.3637 ,1.28759 ,-0.01269 ,-0.12447 
373 ,69.5557 ,1.28946 ,-0.04691 ,-0.46025 
374 ,69.7800 ,1.29173 ,-0.06402 ,-0.62814 
375 ,69.9559 ,1.29352 ,-0.06402 ,-0.62814 
376 ,70.1482 ,1.29533 ,-0.04691 ,-0.46025 
377 ,70.3400 ,1.29736 ,-0.07086 ,-0.69530 
378 ,70.5319 ,1.29927 ,-0.07771 ,-0.76246 
379 ,70.7083 ,1.30099 ,-0.08455 ,-0.82961 
380 ,70.8844 ,1.30281 ,-0.10166 ,-0.99751 
381 ,71.0764 ,1.30469 ,-0.11877 ,-1.16540 
382 ,71.2682 ,1.30658 ,-0.11535 ,-1.13182 
383 ,71.4447 ,1.30843 ,-0.12904 ,-1.26613 
384 ,71.6527 ,1.31040 ,-0.13931 ,-1.36687 
385 ,71.8448 ,1.31228 ,-0.15642 ,-1.53476 
386 ,72.0208 ,1.31415 ,-0.16668 ,-1.63549 
387 ,72.1964 ,1.31597 ,-0.16326 ,-1.60191 
388 ,72.3566 ,1.31760 ,-0.18379 ,-1.80338 
389 ,72.5487 ,1.31934 ,-0.18379 ,-1.80338 
390 ,72.7570 ,1.32152 ,-0.22828 ,-2.23990 
391 ,72.9332 ,1.32327 ,-0.22144 ,-2.17275 
392 ,73.1253 ,1.32505 ,-0.21459 ,-2.10559 
393 ,73.3170 ,1.32705 ,-0.24881 ,-2.44137 
394 ,73.4934 ,1.32884 ,-0.24197 ,-2.37422 
395 ,73.6855 ,1.33079 ,-0.24197 ,-2.37422 
396 ,73.8615 ,1.33263 ,-0.26935 ,-2.64284 
397 ,74.0375 ,1.33433 ,-0.27619 ,-2.71000 
398 ,74.2296 ,1.33619 ,-0.27277 ,-2.67642 
399 ,74.4058 ,1.33798 ,-0.27277 ,-2.67642 
400 ,74.6138 ,1.34002 ,-0.31041 ,-3.04578 
401 ,74.8058 ,1.34190 ,-0.30699 ,-3.01220 
402 ,74.9817 ,1.34374 ,-0.32410 ,-3.18010 
403 ,75.1579 ,1.34553 ,-0.34806 ,-3.41514 
404 ,75.3500 ,1.34741 ,-0.32410 ,-3.18010 
405 ,75.5578 ,1.34932 ,-0.34121 ,-3.34799 
406 ,75.7663 ,1.35158 ,-0.34806 ,-3.41514 
407 ,75.9583 ,1.35350 ,-0.36517 ,-3.58303 
408 ,76.1341 ,1.35531 ,-0.37544 ,-3.68377 
409 ,76.3105 ,1.35698 ,-0.36859 ,-3.61661 
410 ,76.4864 ,1.35876 ,-0.37544 ,-3.68377 
411 ,76.6622 ,1.36050 ,-0.39255 ,-3.85166 
412 ,76.8387 ,1.36229 ,-0.40966 ,-4.01955 
413 ,77.0148 ,1.36407 ,-0.40281 ,-3.95240 
414 ,77.1906 ,1.36589 ,-0.41650 ,-4.08671 
415 ,77.3666 ,1.36762 ,-0.41650 ,-4.08671 
416 ,77.5430 ,1.36933 ,-0.42677 ,-4.18744 
417 ,77.7348 ,1.37124 ,-0.44046 ,-4.32176 
418 ,77.9111 ,1.37300 ,-0.42335 ,-4.15387 
419 ,78.1031 ,1.37485 ,-0.45757 ,-4.48965 
420 ,78.3113 ,1.37695 ,-0.45414 ,-4.45607 
421 ,78.4873 ,1.37879 ,-0.46099 ,-4.52323 
422 ,78.6633 ,1.38054 ,-0.47468 ,-4.65754 
423 ,78.8714 ,1.38254 ,-0.48152 ,-4.72470 
424 ,79.0476 ,1.38447 ,-0.51917 ,-5.09406 
425 ,79.2234 ,1.38616 ,-0.49179 ,-4.82543 
426 ,79.4156 ,1.38806 ,-0.51232 ,-5.02690 
427 ,79.6235 ,1.39009 ,-0.53970 ,-5.29553 
428 ,79.7997 ,1.39189 ,-0.56365 ,-5.53058 
429 ,79.9917 ,1.39380 ,-0.54997 ,-5.39626 
430 ,80.2001 ,1.39581 ,-0.57050 ,-5.59773 
431 ,80.3921 ,1.39772 ,-0.54997 ,-5.39626 
432 ,80.5841 ,1.39973 ,-0.58419 ,-5.73205 
433 ,80.7764 ,1.40166 ,-0.57734 ,-5.66489 
434 ,80.9683 ,1.40357 ,-0.58419 ,-5.73205 
435 ,81.1443 ,1.40530 ,-0.60472 ,-5.93352 
436 ,81.3525 ,1.40734 ,-0.60814 ,-5.96709 
437 ,81.5444 ,1.40927 ,-0.63894 ,-6.26930 
438 ,81.7207 ,1.41106 ,-0.63552 ,-6.23572 
439 ,81.9125 ,1.41294 ,-0.63552 ,-6.23572 
440 ,82.1047 ,1.41492 ,-0.65263 ,-6.40361 
441 ,82.2966 ,1.41688 ,-0.66632 ,-6.53793 
442 ,82.4890 ,1.41873 ,-0.65947 ,-6.47077 
443 ,82.6648 ,1.42052 ,-0.67316 ,-6.60508 
444 ,82.8409 ,1.42228 ,-0.69712 ,-6.84013 
445 ,83.0330 ,1.42416 ,-0.67659 ,-6.63866 
446 ,83.2250 ,1.42604 ,-0.72107 ,-7.07518 
447 ,83.4333 ,1.42817 ,-0.72107 ,-7.07518 
448 ,83.6254 ,1.43010 ,-0.71765 ,-7.04160 
449 ,83.8332 ,1.43218 ,-0.71423 ,-7.00802 
450 ,84.0095 ,1.43400 ,-0.73134 ,-7.17591 
451 ,84.1695 ,1.43569 ,-0.74845 ,-7.34380 
452 ,84.3456 ,1.43733 ,-0.75530 ,-7.41096 
453 ,84.5213 ,1.43906 ,-0.77241 ,-7.57885 
454 ,84.6977 ,1.44082 ,-0.78952 ,-7.74674 
455 ,84.8900 ,1.44275 ,-0.76898 ,-7.54527 
456 ,85.0819 ,1.44467 ,-0.79636 ,-7.81390 
457 ,85.2580 ,1.44645 ,-0.79294 ,-7.78032 
458 ,85.4345 ,1.44826 ,-0.79294 ,-7.78032 
459 ,85.6260 ,1.45012 ,-0.81005 ,-7.94821 
460 ,85.8022 ,1.45187 ,-0.82032 ,-8.04895 
461 ,85.9784 ,1.45365 ,-0.83401 ,-8.18326 
462 ,86.1702 ,1.45552 ,-0.83058 ,-8.14968 
463 ,86.3622 ,1.45745 ,-0.84769 ,-8.31758 
