Data stamp = , 19-04-2022 19:30:28 861

Calibration Values: 
Slope = , 26.54 , g/V 
Offset Voltage at no contact = , -0.501760 , V 

No , Time , Stage Position ,   Mass , Force 
   ,  (s) ,      (mm)      ,   (g)  , (mN)  

1 ,0.0000 ,0.64940 ,5.01106 ,49.16848 
2 ,0.2161 ,0.64949 ,4.99737 ,49.03416 
3 ,0.5362 ,0.65033 ,5.00421 ,49.10132 
4 ,0.7439 ,0.65185 ,4.98710 ,48.93343 
5 ,0.9364 ,0.65348 ,5.00763 ,49.13490 
6 ,1.1124 ,0.65524 ,5.01106 ,49.16848 
7 ,1.2884 ,0.65699 ,4.99394 ,49.00058 
8 ,1.4643 ,0.65873 ,4.99394 ,49.00058 
9 ,1.6564 ,0.66070 ,5.00079 ,49.06774 
10 ,1.8487 ,0.66262 ,4.96999 ,48.76554 
11 ,2.0405 ,0.66447 ,4.95288 ,48.59764 
12 ,2.2169 ,0.66629 ,4.94261 ,48.49691 
13 ,2.4090 ,0.66814 ,4.91181 ,48.19471 
14 ,2.6170 ,0.67023 ,4.90155 ,48.09397 
15 ,2.8091 ,0.67215 ,4.86390 ,47.72461 
16 ,3.0168 ,0.67421 ,4.87075 ,47.79177 
17 ,3.1930 ,0.67606 ,4.85021 ,47.59030 
18 ,3.3852 ,0.67798 ,4.81941 ,47.28809 
19 ,3.5612 ,0.67975 ,4.79546 ,47.05304 
20 ,3.7536 ,0.68163 ,4.78861 ,46.98589 
21 ,3.9456 ,0.68351 ,4.76466 ,46.75084 
22 ,4.1212 ,0.68547 ,4.75097 ,46.61653 
23 ,4.2977 ,0.68712 ,4.72359 ,46.34790 
24 ,4.4896 ,0.68897 ,4.71675 ,46.28074 
25 ,4.6659 ,0.69078 ,4.67568 ,45.87780 
26 ,4.8579 ,0.69263 ,4.68937 ,46.01212 
27 ,5.0499 ,0.69454 ,4.65515 ,45.67633 
28 ,5.2259 ,0.69638 ,4.62777 ,45.40771 
29 ,5.4020 ,0.69814 ,4.62435 ,45.37413 
30 ,5.5782 ,0.69992 ,4.62093 ,45.34055 
31 ,5.7542 ,0.70167 ,4.61066 ,45.23981 
32 ,5.9463 ,0.70353 ,4.56617 ,44.80330 
33 ,6.1384 ,0.70540 ,4.57644 ,44.90403 
34 ,6.3303 ,0.70744 ,4.54222 ,44.56825 
35 ,6.5225 ,0.70932 ,4.51826 ,44.33320 
36 ,6.6987 ,0.71111 ,4.51484 ,44.29962 
37 ,6.9070 ,0.71309 ,4.47035 ,43.86310 
38 ,7.0988 ,0.71508 ,4.48062 ,43.96384 
39 ,7.2907 ,0.71697 ,4.43955 ,43.56090 
40 ,7.4828 ,0.71897 ,4.41560 ,43.32585 
41 ,7.6590 ,0.72073 ,4.41902 ,43.35943 
42 ,7.8510 ,0.72254 ,4.39164 ,43.09080 
43 ,8.0272 ,0.72438 ,4.38480 ,43.02365 
44 ,8.2029 ,0.72613 ,4.35058 ,42.68786 
45 ,8.3792 ,0.72792 ,4.36084 ,42.78860 
46 ,8.5715 ,0.72983 ,4.34031 ,42.58713 
47 ,8.7635 ,0.73175 ,4.30267 ,42.21777 
48 ,8.9715 ,0.73376 ,4.29240 ,42.11703 
49 ,9.1635 ,0.73569 ,4.27529 ,41.94914 
50 ,9.3557 ,0.73757 ,4.26845 ,41.88198 
51 ,9.5476 ,0.73958 ,4.23422 ,41.54620 
52 ,9.7399 ,0.74150 ,4.22396 ,41.44547 
53 ,9.9160 ,0.74325 ,4.20685 ,41.27758 
54 ,10.1080 ,0.74507 ,4.20000 ,41.21042 
55 ,10.3001 ,0.74704 ,4.17947 ,41.00895 
56 ,10.4919 ,0.74905 ,4.14183 ,40.63959 
57 ,10.6683 ,0.75085 ,4.12471 ,40.47170 
58 ,10.8604 ,0.75270 ,4.12814 ,40.50527 
59 ,11.0525 ,0.75456 ,4.10076 ,40.23665 
60 ,11.2286 ,0.75643 ,4.06996 ,39.93444 
61 ,11.4202 ,0.75829 ,4.06996 ,39.93444 
62 ,11.5967 ,0.76003 ,4.05285 ,39.76655 
63 ,11.7887 ,0.76194 ,4.02889 ,39.53150 
64 ,12.0128 ,0.76407 ,4.00494 ,39.29646 
65 ,12.2048 ,0.76612 ,3.99125 ,39.16214 
66 ,12.3966 ,0.76804 ,3.99125 ,39.16214 
67 ,12.5886 ,0.76995 ,3.95361 ,38.79278 
68 ,12.7647 ,0.77178 ,3.93307 ,38.59131 
69 ,12.9408 ,0.77348 ,3.93307 ,38.59131 
70 ,13.1168 ,0.77527 ,3.91596 ,38.42342 
71 ,13.3093 ,0.77714 ,3.87832 ,38.05406 
72 ,13.5175 ,0.77922 ,3.88516 ,38.12122 
73 ,13.6936 ,0.78105 ,3.87147 ,37.98690 
74 ,13.9015 ,0.78301 ,3.85436 ,37.81901 
75 ,14.0938 ,0.78497 ,3.81672 ,37.44965 
76 ,14.3015 ,0.78705 ,3.81672 ,37.44965 
77 ,14.4938 ,0.78892 ,3.80645 ,37.34891 
78 ,14.6699 ,0.79080 ,3.76196 ,36.91240 
79 ,14.8457 ,0.79255 ,3.75512 ,36.84524 
80 ,15.0382 ,0.79441 ,3.74143 ,36.71093 
81 ,15.2302 ,0.79644 ,3.72432 ,36.54303 
82 ,15.4221 ,0.79832 ,3.69010 ,36.20725 
83 ,15.5984 ,0.80005 ,3.69010 ,36.20725 
84 ,15.7904 ,0.80201 ,3.67299 ,36.03936 
85 ,15.9822 ,0.80383 ,3.65588 ,35.87147 
86 ,16.1902 ,0.80588 ,3.62850 ,35.60284 
87 ,16.3665 ,0.80775 ,3.62166 ,35.53569 
88 ,16.5428 ,0.80948 ,3.60454 ,35.36779 
89 ,16.7189 ,0.81128 ,3.60454 ,35.36779 
90 ,16.9110 ,0.81319 ,3.56348 ,34.96485 
91 ,17.1028 ,0.81505 ,3.56348 ,34.96485 
92 ,17.3109 ,0.81712 ,3.52926 ,34.62907 
93 ,17.5030 ,0.81913 ,3.52584 ,34.59549 
94 ,17.6792 ,0.82088 ,3.51215 ,34.46118 
95 ,17.8873 ,0.82286 ,3.49161 ,34.25971 
96 ,18.0630 ,0.82469 ,3.47450 ,34.09182 
97 ,18.2555 ,0.82655 ,3.45739 ,33.92393 
98 ,18.4470 ,0.82856 ,3.42659 ,33.62172 
99 ,18.6391 ,0.83038 ,3.42317 ,33.58814 
100 ,18.8152 ,0.83225 ,3.41633 ,33.52099 
101 ,19.0077 ,0.83404 ,3.38895 ,33.25236 
102 ,19.2157 ,0.83620 ,3.37868 ,33.15163 
103 ,19.4238 ,0.83818 ,3.34788 ,32.84942 
104 ,19.6000 ,0.84005 ,3.34104 ,32.78227 
105 ,19.8080 ,0.84197 ,3.32735 ,32.64795 
106 ,19.9995 ,0.84400 ,3.31024 ,32.48006 
107 ,20.1918 ,0.84595 ,3.27944 ,32.17786 
108 ,20.3683 ,0.84777 ,3.25548 ,31.94281 
109 ,20.5761 ,0.84978 ,3.24180 ,31.80849 
110 ,20.7524 ,0.85158 ,3.22811 ,31.67418 
111 ,20.9444 ,0.85341 ,3.23495 ,31.74134 
112 ,21.1205 ,0.85526 ,3.22126 ,31.60702 
113 ,21.2961 ,0.85700 ,3.20415 ,31.43913 
114 ,21.4727 ,0.85876 ,3.16993 ,31.10335 
115 ,21.6809 ,0.86085 ,3.16309 ,31.03619 
116 ,21.8728 ,0.86268 ,3.13571 ,30.76757 
117 ,22.0489 ,0.86455 ,3.12544 ,30.66683 
118 ,22.2248 ,0.86631 ,3.12202 ,30.63325 
119 ,22.4009 ,0.86805 ,3.10491 ,30.46536 
120 ,22.5770 ,0.86984 ,3.08780 ,30.29747 
121 ,22.7690 ,0.87175 ,3.06726 ,30.09600 
122 ,22.9454 ,0.87345 ,3.06042 ,30.02884 
123 ,23.1376 ,0.87547 ,3.01935 ,29.62590 
124 ,23.3452 ,0.87746 ,3.02620 ,29.69306 
125 ,23.5212 ,0.87923 ,2.99882 ,29.42444 
126 ,23.7136 ,0.88121 ,2.97829 ,29.22297 
127 ,23.8898 ,0.88296 ,2.96460 ,29.08865 
128 ,24.0817 ,0.88494 ,2.93038 ,28.75287 
129 ,24.2579 ,0.88663 ,2.92011 ,28.65213 
130 ,24.4494 ,0.88850 ,2.92011 ,28.65213 
131 ,24.6415 ,0.89039 ,2.89958 ,28.45066 
132 ,24.8178 ,0.89226 ,2.89273 ,28.38351 
133 ,25.0262 ,0.89431 ,2.87562 ,28.21562 
134 ,25.2341 ,0.89632 ,2.85509 ,28.01415 
135 ,25.4264 ,0.89834 ,2.83798 ,27.84625 
136 ,25.6184 ,0.90017 ,2.82087 ,27.67836 
137 ,25.8105 ,0.90214 ,2.80376 ,27.51047 
138 ,26.0022 ,0.90403 ,2.80034 ,27.47689 
139 ,26.1947 ,0.90591 ,2.76611 ,27.14111 
140 ,26.4188 ,0.90807 ,2.74900 ,26.97322 
141 ,26.5946 ,0.90995 ,2.73874 ,26.87248 
142 ,26.7867 ,0.91191 ,2.72163 ,26.70459 
143 ,26.9788 ,0.91384 ,2.70109 ,26.50312 
144 ,27.1551 ,0.91555 ,2.67029 ,26.20092 
145 ,27.3628 ,0.91763 ,2.68056 ,26.30165 
146 ,27.5393 ,0.91946 ,2.67372 ,26.23450 
147 ,27.7311 ,0.92136 ,2.64634 ,25.96587 
148 ,27.9233 ,0.92329 ,2.64292 ,25.93229 
149 ,28.0994 ,0.92502 ,2.60869 ,25.59651 
150 ,28.2594 ,0.92673 ,2.59501 ,25.46220 
151 ,28.4352 ,0.92838 ,2.58474 ,25.36146 
152 ,28.6117 ,0.93011 ,2.56421 ,25.15999 
153 ,28.7874 ,0.93208 ,2.57789 ,25.29430 
154 ,28.9639 ,0.93365 ,2.56078 ,25.12641 
155 ,29.1716 ,0.93569 ,2.51972 ,24.72347 
156 ,29.3640 ,0.93766 ,2.51287 ,24.65632 
157 ,29.5560 ,0.93953 ,2.47523 ,24.28696 
158 ,29.7319 ,0.94136 ,2.46839 ,24.21980 
159 ,29.9082 ,0.94311 ,2.46496 ,24.18622 
160 ,30.1003 ,0.94499 ,2.43416 ,23.88402 
161 ,30.2922 ,0.94690 ,2.42390 ,23.78328 
162 ,30.4845 ,0.94883 ,2.42048 ,23.74970 
163 ,30.7083 ,0.95095 ,2.39652 ,23.51465 
164 ,30.9002 ,0.95301 ,2.37599 ,23.31318 
165 ,31.0922 ,0.95484 ,2.35545 ,23.11171 
166 ,31.2683 ,0.95670 ,2.36572 ,23.21245 
167 ,31.4284 ,0.95840 ,2.33492 ,22.91024 
168 ,31.5884 ,0.96000 ,2.32123 ,22.77593 
169 ,31.7645 ,0.96170 ,2.32123 ,22.77593 
170 ,31.9406 ,0.96340 ,2.28359 ,22.40657 
171 ,32.1331 ,0.96530 ,2.26990 ,22.27226 
172 ,32.3414 ,0.96738 ,2.24594 ,22.03721 
173 ,32.5331 ,0.96938 ,2.23226 ,21.90290 
174 ,32.7094 ,0.97111 ,2.24252 ,22.00363 
175 ,32.8854 ,0.97287 ,2.22199 ,21.80216 
176 ,33.0775 ,0.97477 ,2.18777 ,21.46638 
177 ,33.2533 ,0.97652 ,2.18435 ,21.43280 
178 ,33.4456 ,0.97846 ,2.18092 ,21.39922 
179 ,33.6216 ,0.98022 ,2.16039 ,21.19775 
180 ,33.8133 ,0.98213 ,2.12959 ,20.89555 
181 ,33.9897 ,0.98391 ,2.13301 ,20.92912 
182 ,34.1498 ,0.98564 ,2.12617 ,20.86197 
183 ,34.3260 ,0.98729 ,2.10564 ,20.66050 
184 ,34.5181 ,0.98914 ,2.08510 ,20.45903 
185 ,34.7101 ,0.99105 ,2.07484 ,20.35829 
186 ,34.9342 ,0.99312 ,2.04746 ,20.08967 
187 ,35.1264 ,0.99528 ,2.04061 ,20.02251 
188 ,35.3183 ,0.99714 ,2.00297 ,19.65315 
189 ,35.4945 ,0.99894 ,1.99613 ,19.58599 
190 ,35.6865 ,1.00076 ,1.98586 ,19.48526 
191 ,35.8623 ,1.00264 ,1.97217 ,19.35094 
192 ,36.0546 ,1.00445 ,1.95506 ,19.18305 
193 ,36.2305 ,1.00631 ,1.94479 ,19.08232 
194 ,36.4227 ,1.00816 ,1.91742 ,18.81369 
195 ,36.5988 ,1.00998 ,1.91057 ,18.74654 
196 ,36.7747 ,1.01176 ,1.86951 ,18.34360 
197 ,36.9511 ,1.01350 ,1.86951 ,18.34360 
198 ,37.1272 ,1.01530 ,1.87635 ,18.41075 
199 ,37.3188 ,1.01713 ,1.84213 ,18.07497 
200 ,37.4953 ,1.01896 ,1.82844 ,17.94066 
201 ,37.6711 ,1.02070 ,1.83871 ,18.04139 
202 ,37.8474 ,1.02248 ,1.82160 ,17.87350 
203 ,38.0230 ,1.02422 ,1.79764 ,17.63845 
204 ,38.1995 ,1.02597 ,1.78395 ,17.50414 
205 ,38.3913 ,1.02794 ,1.77026 ,17.36983 
206 ,38.5677 ,1.02970 ,1.75315 ,17.20193 
207 ,38.7597 ,1.03159 ,1.73946 ,17.06762 
208 ,38.9357 ,1.03336 ,1.71209 ,16.79899 
209 ,39.1438 ,1.03533 ,1.70866 ,16.76542 
210 ,39.3200 ,1.03720 ,1.69498 ,16.63110 
211 ,39.4960 ,1.03896 ,1.67102 ,16.39605 
212 ,39.6719 ,1.04068 ,1.67444 ,16.42963 
213 ,39.8640 ,1.04263 ,1.64364 ,16.12743 
214 ,40.0564 ,1.04457 ,1.63680 ,16.06027 
215 ,40.2324 ,1.04635 ,1.63338 ,16.02669 
216 ,40.4243 ,1.04823 ,1.61627 ,15.85880 
217 ,40.5842 ,1.04992 ,1.58204 ,15.52302 
218 ,40.7603 ,1.05158 ,1.57862 ,15.48944 
219 ,40.9371 ,1.05335 ,1.56151 ,15.32155 
220 ,41.1285 ,1.05529 ,1.56151 ,15.32155 
221 ,41.3047 ,1.05701 ,1.54440 ,15.15366 
222 ,41.4807 ,1.05875 ,1.51702 ,14.88503 
223 ,41.6569 ,1.06058 ,1.49991 ,14.71714 
224 ,41.8490 ,1.06251 ,1.49307 ,14.64998 
225 ,42.0250 ,1.06425 ,1.48965 ,14.61640 
226 ,42.2171 ,1.06611 ,1.46911 ,14.41493 
227 ,42.3930 ,1.06789 ,1.46911 ,14.41493 
228 ,42.5693 ,1.06970 ,1.44858 ,14.21346 
229 ,42.7612 ,1.07155 ,1.42805 ,14.01199 
230 ,42.9377 ,1.07339 ,1.40067 ,13.74337 
231 ,43.1134 ,1.07514 ,1.40751 ,13.81053 
232 ,43.3053 ,1.07705 ,1.39040 ,13.64263 
233 ,43.4977 ,1.07885 ,1.37671 ,13.50832 
234 ,43.6894 ,1.08087 ,1.37671 ,13.50832 
235 ,43.8661 ,1.08269 ,1.36303 ,13.37401 
236 ,44.0739 ,1.08463 ,1.32880 ,13.03822 
237 ,44.2660 ,1.08656 ,1.31854 ,12.93749 
238 ,44.4739 ,1.08871 ,1.31169 ,12.87033 
239 ,44.6502 ,1.09049 ,1.30827 ,12.83675 
240 ,44.8423 ,1.09242 ,1.27063 ,12.46739 
241 ,45.0341 ,1.09420 ,1.26036 ,12.36666 
242 ,45.2422 ,1.09632 ,1.25694 ,12.33308 
243 ,45.4185 ,1.09815 ,1.23641 ,12.13161 
244 ,45.5946 ,1.09992 ,1.21929 ,11.96372 
245 ,45.7865 ,1.10177 ,1.19534 ,11.72867 
246 ,45.9950 ,1.10385 ,1.19876 ,11.76225 
247 ,46.1868 ,1.10572 ,1.19534 ,11.72867 
248 ,46.3784 ,1.10771 ,1.19876 ,11.76225 
249 ,46.5546 ,1.10948 ,1.13716 ,11.15784 
250 ,46.7310 ,1.11131 ,1.14058 ,11.19142 
251 ,46.9227 ,1.11318 ,1.14401 ,11.22500 
252 ,47.0991 ,1.11493 ,1.10294 ,10.82206 
253 ,47.2911 ,1.11679 ,1.09267 ,10.72132 
254 ,47.4993 ,1.11891 ,1.08583 ,10.65416 
255 ,47.6751 ,1.12074 ,1.07556 ,10.55343 
256 ,47.8515 ,1.12249 ,1.04819 ,10.28480 
257 ,48.0593 ,1.12445 ,1.04134 ,10.21765 
258 ,48.2357 ,1.12633 ,1.04476 ,10.25123 
259 ,48.4439 ,1.12825 ,1.02081 ,10.01618 
260 ,48.6358 ,1.13025 ,1.00712 ,9.88186 
261 ,48.8277 ,1.13217 ,1.00028 ,9.81471 
262 ,48.9878 ,1.13395 ,0.97974 ,9.61324 
263 ,49.1638 ,1.13560 ,0.97290 ,9.54608 
264 ,49.3560 ,1.13746 ,0.97632 ,9.57966 
265 ,49.5320 ,1.13931 ,0.95579 ,9.37819 
266 ,49.7401 ,1.14128 ,0.92157 ,9.04241 
267 ,49.9163 ,1.14310 ,0.91472 ,8.97525 
268 ,50.0918 ,1.14492 ,0.91814 ,9.00883 
269 ,50.2684 ,1.14666 ,0.91472 ,8.97525 
270 ,50.4605 ,1.14858 ,0.87708 ,8.60589 
271 ,50.6363 ,1.15033 ,0.87708 ,8.60589 
272 ,50.8126 ,1.15204 ,0.88050 ,8.63947 
273 ,50.9884 ,1.15383 ,0.86339 ,8.47158 
274 ,51.1962 ,1.15583 ,0.83943 ,8.23653 
275 ,51.3729 ,1.15766 ,0.83259 ,8.16937 
276 ,51.5969 ,1.15965 ,0.81548 ,8.00148 
277 ,51.7730 ,1.16170 ,0.80863 ,7.93432 
278 ,51.9652 ,1.16364 ,0.79495 ,7.80001 
279 ,52.1570 ,1.16552 ,0.77099 ,7.56496 
280 ,52.3171 ,1.16723 ,0.78126 ,7.66570 
281 ,52.4932 ,1.16886 ,0.75388 ,7.39707 
282 ,52.6852 ,1.17069 ,0.73677 ,7.22918 
283 ,52.8615 ,1.17256 ,0.72308 ,7.09486 
284 ,53.0534 ,1.17450 ,0.72992 ,7.16202 
285 ,53.2296 ,1.17623 ,0.69913 ,6.85982 
286 ,53.4216 ,1.17808 ,0.67859 ,6.65835 
287 ,53.6138 ,1.18005 ,0.69570 ,6.82624 
288 ,53.7898 ,1.18184 ,0.68544 ,6.72550 
289 ,53.9659 ,1.18362 ,0.66490 ,6.52403 
290 ,54.1580 ,1.18543 ,0.65464 ,6.42330 
291 ,54.3498 ,1.18738 ,0.64095 ,6.28899 
292 ,54.5420 ,1.18929 ,0.60673 ,5.95320 
293 ,54.7660 ,1.19146 ,0.60673 ,5.95320 
294 ,54.9583 ,1.19353 ,0.58962 ,5.78531 
295 ,55.1503 ,1.19540 ,0.59646 ,5.85247 
296 ,55.3264 ,1.19719 ,0.56908 ,5.58384 
297 ,55.5184 ,1.19918 ,0.56224 ,5.51668 
298 ,55.6945 ,1.20091 ,0.54171 ,5.31522 
299 ,55.8865 ,1.20275 ,0.54171 ,5.31522 
300 ,56.0785 ,1.20466 ,0.52117 ,5.11375 
301 ,56.2548 ,1.20643 ,0.52459 ,5.14732 
302 ,56.4466 ,1.20834 ,0.49037 ,4.81154 
303 ,56.6390 ,1.21025 ,0.48695 ,4.77796 
304 ,56.8150 ,1.21212 ,0.48353 ,4.74438 
305 ,57.0071 ,1.21398 ,0.46984 ,4.61007 
306 ,57.1831 ,1.21581 ,0.44246 ,4.34144 
307 ,57.3592 ,1.21757 ,0.44931 ,4.40860 
308 ,57.5355 ,1.21932 ,0.42877 ,4.20713 
309 ,57.7272 ,1.22117 ,0.40824 ,4.00566 
310 ,57.9195 ,1.22309 ,0.40482 ,3.97208 
311 ,58.1276 ,1.22503 ,0.39455 ,3.87135 
312 ,58.3196 ,1.22716 ,0.37744 ,3.70346 
313 ,58.4954 ,1.22889 ,0.36375 ,3.56914 
314 ,58.6877 ,1.23073 ,0.33295 ,3.26694 
315 ,58.8636 ,1.23254 ,0.32953 ,3.23336 
316 ,59.0395 ,1.23436 ,0.33638 ,3.30052 
317 ,59.3761 ,1.23765 ,0.33295 ,3.26694 
318 ,59.5682 ,1.23959 ,0.30215 ,2.96473 
319 ,59.7602 ,1.24147 ,0.29531 ,2.89758 
320 ,59.9519 ,1.24341 ,0.29189 ,2.86400 
321 ,60.1123 ,1.24513 ,0.26793 ,2.62895 
322 ,60.2884 ,1.24681 ,0.27478 ,2.69611 
323 ,60.4964 ,1.24878 ,0.25082 ,2.46106 
324 ,60.6885 ,1.25073 ,0.23713 ,2.32675 
325 ,60.8807 ,1.25264 ,0.23371 ,2.29317 
326 ,61.0887 ,1.25477 ,0.20633 ,2.02454 
327 ,61.2648 ,1.25654 ,0.19949 ,1.95738 
328 ,61.4569 ,1.25842 ,0.18238 ,1.78949 
329 ,61.6489 ,1.26039 ,0.19607 ,1.92381 
330 ,61.8247 ,1.26217 ,0.15842 ,1.55445 
331 ,62.0171 ,1.26405 ,0.18922 ,1.85665 
332 ,62.2252 ,1.26615 ,0.14131 ,1.38655 
333 ,62.4333 ,1.26809 ,0.14131 ,1.38655 
334 ,62.6254 ,1.27020 ,0.12420 ,1.21866 
335 ,62.8174 ,1.27202 ,0.13447 ,1.31940 
336 ,62.9775 ,1.27377 ,0.12762 ,1.25224 
337 ,63.1536 ,1.27546 ,0.11051 ,1.08435 
338 ,63.3297 ,1.27718 ,0.09340 ,0.91646 
339 ,63.5380 ,1.27922 ,0.08998 ,0.88288 
340 ,63.7136 ,1.28108 ,0.09340 ,0.91646 
341 ,63.9377 ,1.28313 ,0.06260 ,0.61425 
342 ,64.1140 ,1.28507 ,0.05918 ,0.58067 
343 ,64.3218 ,1.28705 ,0.04891 ,0.47994 
344 ,64.5141 ,1.28893 ,0.04207 ,0.41278 
345 ,64.7220 ,1.29107 ,0.02838 ,0.27847 
346 ,64.9142 ,1.29306 ,0.02154 ,0.21131 
347 ,65.0898 ,1.29479 ,-0.00242 ,-0.02373 
348 ,65.2663 ,1.29658 ,-0.01953 ,-0.19163 
349 ,65.4743 ,1.29864 ,-0.00926 ,-0.09089 
350 ,65.6667 ,1.30059 ,-0.04006 ,-0.39310 
351 ,65.8588 ,1.30243 ,-0.05033 ,-0.49383 
352 ,66.0507 ,1.30441 ,-0.06744 ,-0.66172 
353 ,66.2266 ,1.30615 ,-0.08113 ,-0.79604 
354 ,66.3868 ,1.30789 ,-0.06744 ,-0.66172 
355 ,66.5628 ,1.30950 ,-0.08113 ,-0.79604 
356 ,66.7390 ,1.31126 ,-0.08113 ,-0.79604 
357 ,66.9309 ,1.31311 ,-0.11535 ,-1.13182 
358 ,67.1072 ,1.31493 ,-0.10851 ,-1.06466 
359 ,67.2993 ,1.31689 ,-0.10851 ,-1.06466 
360 ,67.4913 ,1.31877 ,-0.14273 ,-1.40045 
361 ,67.6674 ,1.32055 ,-0.15299 ,-1.50118 
362 ,67.8434 ,1.32229 ,-0.14615 ,-1.43402 
363 ,68.0196 ,1.32410 ,-0.14615 ,-1.43402 
364 ,68.2274 ,1.32611 ,-0.17695 ,-1.73623 
365 ,68.4198 ,1.32810 ,-0.17011 ,-1.66907 
366 ,68.6118 ,1.32998 ,-0.19406 ,-1.90412 
367 ,68.7877 ,1.33177 ,-0.21459 ,-2.10559 
368 ,68.9639 ,1.33349 ,-0.20433 ,-2.00485 
369 ,69.1402 ,1.33531 ,-0.21117 ,-2.07201 
370 ,69.3317 ,1.33718 ,-0.23513 ,-2.30706 
371 ,69.5082 ,1.33900 ,-0.25566 ,-2.50853 
372 ,69.6840 ,1.34075 ,-0.24197 ,-2.37422 
373 ,69.8764 ,1.34263 ,-0.25908 ,-2.54211 
374 ,70.0682 ,1.34451 ,-0.26935 ,-2.64284 
375 ,70.2765 ,1.34662 ,-0.28988 ,-2.84431 
376 ,70.4682 ,1.34847 ,-0.29673 ,-2.91147 
377 ,70.6447 ,1.35027 ,-0.30699 ,-3.01220 
378 ,70.8206 ,1.35207 ,-0.31041 ,-3.04578 
379 ,71.0123 ,1.35395 ,-0.32752 ,-3.21367 
380 ,71.1887 ,1.35576 ,-0.34121 ,-3.34799 
381 ,71.3806 ,1.35768 ,-0.32068 ,-3.14652 
382 ,71.5728 ,1.35956 ,-0.35490 ,-3.48230 
383 ,71.7491 ,1.36140 ,-0.35832 ,-3.51588 
384 ,71.9250 ,1.36316 ,-0.36517 ,-3.58303 
385 ,72.1172 ,1.36503 ,-0.36517 ,-3.58303 
386 ,72.3093 ,1.36691 ,-0.38912 ,-3.81808 
387 ,72.5013 ,1.36888 ,-0.38912 ,-3.81808 
388 ,72.6933 ,1.37073 ,-0.41992 ,-4.12029 
389 ,72.9014 ,1.37280 ,-0.39939 ,-3.91882 
390 ,73.0776 ,1.37464 ,-0.42677 ,-4.18744 
391 ,73.2697 ,1.37650 ,-0.43361 ,-4.25460 
392 ,73.4615 ,1.37845 ,-0.44046 ,-4.32176 
393 ,73.6372 ,1.38039 ,-0.46099 ,-4.52323 
394 ,73.8139 ,1.38201 ,-0.47126 ,-4.62396 
395 ,73.9900 ,1.38373 ,-0.48837 ,-4.79185 
396 ,74.1660 ,1.38551 ,-0.47468 ,-4.65754 
397 ,74.3580 ,1.38742 ,-0.48837 ,-4.79185 
398 ,74.5662 ,1.38943 ,-0.49863 ,-4.89259 
399 ,74.7580 ,1.39140 ,-0.49863 ,-4.89259 
400 ,74.9342 ,1.39320 ,-0.51917 ,-5.09406 
401 ,75.1104 ,1.39495 ,-0.53628 ,-5.26195 
402 ,75.3023 ,1.39685 ,-0.52943 ,-5.19479 
403 ,75.4784 ,1.39860 ,-0.53628 ,-5.26195 
404 ,75.6545 ,1.40036 ,-0.55681 ,-5.46342 
405 ,75.8306 ,1.40213 ,-0.56708 ,-5.56415 
406 ,76.0227 ,1.40409 ,-0.56365 ,-5.53058 
407 ,76.2308 ,1.40603 ,-0.57050 ,-5.59773 
408 ,76.4228 ,1.40801 ,-0.57734 ,-5.66489 
409 ,76.5990 ,1.40981 ,-0.58761 ,-5.76562 
410 ,76.7749 ,1.41163 ,-0.60472 ,-5.93352 
411 ,76.9510 ,1.41344 ,-0.60472 ,-5.93352 
412 ,77.1592 ,1.41542 ,-0.61499 ,-6.03425 
413 ,77.3512 ,1.41744 ,-0.61156 ,-6.00067 
414 ,77.5273 ,1.41912 ,-0.62183 ,-6.10141 
415 ,77.7031 ,1.42085 ,-0.61499 ,-6.03425 
416 ,77.8792 ,1.42260 ,-0.63894 ,-6.26930 
417 ,78.0557 ,1.42441 ,-0.64579 ,-6.33646 
418 ,78.2476 ,1.42634 ,-0.64236 ,-6.30288 
419 ,78.4237 ,1.42804 ,-0.64921 ,-6.37003 
420 ,78.6157 ,1.42998 ,-0.67659 ,-6.63866 
421 ,78.8239 ,1.43200 ,-0.66290 ,-6.50435 
422 ,78.9995 ,1.43391 ,-0.68685 ,-6.73940 
423 ,79.1761 ,1.43562 ,-0.69712 ,-6.84013 
424 ,79.3996 ,1.43770 ,-0.68343 ,-6.70582 
425 ,79.5762 ,1.43961 ,-0.71423 ,-7.00802 
426 ,79.7683 ,1.44151 ,-0.70396 ,-6.90729 
427 ,79.9443 ,1.44329 ,-0.71423 ,-7.00802 
428 ,80.1201 ,1.44501 ,-0.73134 ,-7.17591 
429 ,80.2966 ,1.44681 ,-0.74845 ,-7.34380 
430 ,80.4724 ,1.44856 ,-0.76214 ,-7.47812 
431 ,80.6647 ,1.45046 ,-0.75187 ,-7.37738 
432 ,80.8566 ,1.45241 ,-0.76898 ,-7.54527 
433 ,81.0329 ,1.45417 ,-0.77925 ,-7.64601 
434 ,81.2248 ,1.45603 ,-0.77241 ,-7.57885 
435 ,81.4169 ,1.45796 ,-0.80321 ,-7.88106 
436 ,81.5929 ,1.45973 ,-0.80321 ,-7.88106 
437 ,81.7686 ,1.46151 ,-0.80663 ,-7.91464 
438 ,81.9454 ,1.46327 ,-0.80663 ,-7.91464 
439 ,82.1370 ,1.46516 ,-0.83743 ,-8.21684 
440 ,82.3294 ,1.46706 ,-0.83058 ,-8.14968 
441 ,82.5375 ,1.46913 ,-0.84427 ,-8.28400 
442 ,82.7136 ,1.47101 ,-0.84769 ,-8.31758 
443 ,82.9057 ,1.47280 ,-0.84769 ,-8.31758 
444 ,83.0976 ,1.47480 ,-0.87849 ,-8.61978 
445 ,83.2573 ,1.47652 ,-0.87165 ,-8.55262 
446 ,83.4339 ,1.47814 ,-0.89218 ,-8.75409 
447 ,83.6260 ,1.48010 ,-0.89218 ,-8.75409 
448 ,83.8342 ,1.48214 ,-0.91272 ,-8.95556 
449 ,84.0260 ,1.48400 ,-0.90587 ,-8.88841 
450 ,84.2181 ,1.48599 ,-0.91956 ,-9.02272 
451 ,84.3942 ,1.48780 ,-0.92298 ,-9.05630 
452 ,84.5703 ,1.48951 ,-0.94351 ,-9.25777 
453 ,84.7463 ,1.49131 ,-0.94694 ,-9.29135 
454 ,84.9379 ,1.49321 ,-0.96063 ,-9.42566 
455 ,85.1139 ,1.49496 ,-0.96747 ,-9.49282 
456 ,85.2902 ,1.49671 ,-0.96063 ,-9.42566 
457 ,85.4982 ,1.49878 ,-0.98116 ,-9.62713 
458 ,85.6907 ,1.50067 ,-0.98116 ,-9.62713 
459 ,85.8827 ,1.50258 ,-1.00511 ,-9.86218 
460 ,86.0588 ,1.50440 ,-1.01196 ,-9.92933 
461 ,86.2509 ,1.50633 ,-1.00854 ,-9.89576 
462 ,86.4428 ,1.50822 ,-1.03249 ,-10.13080 
