Data stamp = , 20-04-2022 03:01:50 124

Calibration Values: 
Slope = , 26.54 , g/V 
Offset Voltage at no contact = , -0.501760 , V 

No , Time , Stage Position ,   Mass , Force 
   ,  (s) ,      (mm)      ,   (g)  , (mN)  

1 ,0.0000 ,0.59949 ,5.26772 ,51.68685 
2 ,0.2279 ,0.59958 ,5.28483 ,51.85474 
3 ,0.5781 ,0.60059 ,5.29167 ,51.92190 
4 ,0.7863 ,0.60219 ,5.27798 ,51.78758 
5 ,0.9786 ,0.60401 ,5.28141 ,51.82116 
6 ,1.1547 ,0.60582 ,5.27798 ,51.78758 
7 ,1.3789 ,0.60783 ,5.27114 ,51.72043 
8 ,1.5549 ,0.60987 ,5.28141 ,51.82116 
9 ,1.7309 ,0.61155 ,5.29852 ,51.98905 
10 ,1.9071 ,0.61335 ,5.28141 ,51.82116 
11 ,2.0991 ,0.61521 ,5.25745 ,51.58611 
12 ,2.2751 ,0.61703 ,5.25403 ,51.55254 
13 ,2.4513 ,0.61875 ,5.25403 ,51.55254 
14 ,2.6430 ,0.62064 ,5.22665 ,51.28391 
15 ,2.8194 ,0.62241 ,5.22323 ,51.25033 
16 ,3.0273 ,0.62446 ,5.20954 ,51.11602 
17 ,3.2194 ,0.62643 ,5.18901 ,50.91455 
18 ,3.4115 ,0.62835 ,5.20270 ,51.04886 
19 ,3.5877 ,0.63016 ,5.18559 ,50.88097 
20 ,3.7794 ,0.63198 ,5.16163 ,50.64592 
21 ,3.9560 ,0.63382 ,5.14110 ,50.44445 
22 ,4.1639 ,0.63580 ,5.15136 ,50.54519 
23 ,4.3400 ,0.63765 ,5.11030 ,50.14225 
24 ,4.5321 ,0.63949 ,5.10345 ,50.07509 
25 ,4.7240 ,0.64146 ,5.08977 ,49.94078 
26 ,4.9002 ,0.64319 ,5.05212 ,49.57142 
27 ,5.0603 ,0.64492 ,5.05212 ,49.57142 
28 ,5.2365 ,0.64657 ,5.03159 ,49.36995 
29 ,5.4285 ,0.64847 ,5.00763 ,49.13490 
30 ,5.6365 ,0.65054 ,5.00079 ,49.06774 
31 ,5.8124 ,0.65233 ,4.98026 ,48.86627 
32 ,5.9884 ,0.65424 ,4.95288 ,48.59764 
33 ,6.1807 ,0.65600 ,4.94261 ,48.49691 
34 ,6.3569 ,0.65781 ,4.92550 ,48.32902 
35 ,6.5650 ,0.65981 ,4.90155 ,48.09397 
36 ,6.7410 ,0.66166 ,4.87417 ,47.82534 
37 ,6.9329 ,0.66352 ,4.86390 ,47.72461 
38 ,7.1092 ,0.66532 ,4.86048 ,47.69103 
39 ,7.3012 ,0.66723 ,4.82968 ,47.38883 
40 ,7.4931 ,0.66906 ,4.81599 ,47.25451 
41 ,7.7013 ,0.67110 ,4.78861 ,46.98589 
42 ,7.8934 ,0.67308 ,4.78519 ,46.95231 
43 ,8.0855 ,0.67507 ,4.74070 ,46.51579 
44 ,8.2616 ,0.67682 ,4.73386 ,46.44863 
45 ,8.4536 ,0.67868 ,4.71675 ,46.28074 
46 ,8.6294 ,0.68063 ,4.69964 ,46.11285 
47 ,8.8055 ,0.68231 ,4.67568 ,45.87780 
48 ,9.0139 ,0.68416 ,4.66884 ,45.81065 
49 ,9.2055 ,0.68630 ,4.64488 ,45.57560 
50 ,9.4139 ,0.68830 ,4.64488 ,45.57560 
51 ,9.6059 ,0.69021 ,4.60382 ,45.17266 
52 ,9.7657 ,0.69202 ,4.58671 ,45.00477 
53 ,9.9418 ,0.69359 ,4.58328 ,44.97119 
54 ,10.1179 ,0.69536 ,4.55933 ,44.73614 
55 ,10.2943 ,0.69718 ,4.55591 ,44.70256 
56 ,10.5023 ,0.69915 ,4.51826 ,44.33320 
57 ,10.6944 ,0.70106 ,4.52511 ,44.40036 
58 ,10.8705 ,0.70289 ,4.50115 ,44.16531 
59 ,11.0467 ,0.70470 ,4.46009 ,43.76237 
60 ,11.2223 ,0.70651 ,4.46693 ,43.82953 
61 ,11.3987 ,0.70821 ,4.42929 ,43.46016 
62 ,11.6070 ,0.71016 ,4.44298 ,43.59448 
63 ,11.7991 ,0.71218 ,4.41560 ,43.32585 
64 ,11.9910 ,0.71413 ,4.39164 ,43.09080 
65 ,12.1831 ,0.71597 ,4.35742 ,42.75502 
66 ,12.3592 ,0.71779 ,4.35400 ,42.72144 
67 ,12.5352 ,0.71952 ,4.35058 ,42.68786 
68 ,12.7111 ,0.72139 ,4.31636 ,42.35208 
69 ,12.9035 ,0.72321 ,4.28898 ,42.08345 
70 ,13.0956 ,0.72510 ,4.28556 ,42.04988 
71 ,13.2874 ,0.72712 ,4.26502 ,41.84841 
72 ,13.4796 ,0.72891 ,4.25133 ,41.71409 
73 ,13.6716 ,0.73089 ,4.23422 ,41.54620 
74 ,13.8476 ,0.73270 ,4.19316 ,41.14326 
75 ,14.0396 ,0.73461 ,4.20342 ,41.24400 
76 ,14.2317 ,0.73646 ,4.17262 ,40.94179 
77 ,14.4081 ,0.73832 ,4.14867 ,40.70674 
78 ,14.5998 ,0.74022 ,4.14183 ,40.63959 
79 ,14.8083 ,0.74222 ,4.11103 ,40.33738 
80 ,15.0002 ,0.74414 ,4.10760 ,40.30380 
81 ,15.1922 ,0.74606 ,4.09049 ,40.13591 
82 ,15.3684 ,0.74789 ,4.06654 ,39.90087 
83 ,15.5600 ,0.74975 ,4.05627 ,39.80013 
84 ,15.7365 ,0.75155 ,4.05285 ,39.76655 
85 ,15.9124 ,0.75335 ,4.02889 ,39.53150 
86 ,16.1207 ,0.75539 ,4.00494 ,39.29646 
87 ,16.3288 ,0.75745 ,3.96729 ,38.92709 
88 ,16.5049 ,0.75926 ,3.97756 ,39.02783 
89 ,16.7127 ,0.76115 ,3.94676 ,38.72562 
90 ,16.8890 ,0.76307 ,3.93307 ,38.59131 
91 ,17.0651 ,0.76482 ,3.90912 ,38.35626 
92 ,17.2572 ,0.76679 ,3.90912 ,38.35626 
93 ,17.4493 ,0.76860 ,3.86463 ,37.91975 
94 ,17.6250 ,0.77046 ,3.85436 ,37.81901 
95 ,17.8013 ,0.77217 ,3.84752 ,37.75185 
96 ,17.9773 ,0.77399 ,3.84410 ,37.71828 
97 ,18.1536 ,0.77574 ,3.83041 ,37.58396 
98 ,18.3295 ,0.77746 ,3.79961 ,37.28176 
99 ,18.5215 ,0.77944 ,3.80645 ,37.34891 
100 ,18.6977 ,0.78116 ,3.78250 ,37.11387 
101 ,18.8898 ,0.78307 ,3.74828 ,36.77808 
102 ,19.0978 ,0.78508 ,3.74485 ,36.74450 
103 ,19.2899 ,0.78702 ,3.70379 ,36.34157 
104 ,19.4661 ,0.78881 ,3.68325 ,36.14010 
105 ,19.6581 ,0.79074 ,3.68325 ,36.14010 
106 ,19.8177 ,0.79246 ,3.67641 ,36.07294 
107 ,19.9940 ,0.79416 ,3.67299 ,36.03936 
108 ,20.1864 ,0.79606 ,3.63192 ,35.63642 
109 ,20.3623 ,0.79781 ,3.61823 ,35.50211 
110 ,20.5541 ,0.79963 ,3.60112 ,35.33422 
111 ,20.7305 ,0.80147 ,3.58743 ,35.19990 
112 ,20.9223 ,0.80339 ,3.57717 ,35.09917 
113 ,21.0987 ,0.80517 ,3.56006 ,34.93128 
114 ,21.2906 ,0.80699 ,3.53268 ,34.66265 
115 ,21.4669 ,0.80886 ,3.51899 ,34.52834 
116 ,21.6590 ,0.81072 ,3.50530 ,34.39402 
117 ,21.8671 ,0.81270 ,3.47792 ,34.12540 
118 ,22.0588 ,0.81474 ,3.48819 ,34.22613 
119 ,22.2511 ,0.81665 ,3.45397 ,33.89035 
120 ,22.4273 ,0.81843 ,3.43001 ,33.65530 
121 ,22.6193 ,0.82036 ,3.43001 ,33.65530 
122 ,22.7955 ,0.82208 ,3.40948 ,33.45383 
123 ,22.9870 ,0.82403 ,3.37868 ,33.15163 
124 ,23.1636 ,0.82578 ,3.36499 ,33.01731 
125 ,23.3556 ,0.82775 ,3.36842 ,33.05089 
126 ,23.5318 ,0.82952 ,3.33762 ,32.74869 
127 ,23.7237 ,0.83133 ,3.33077 ,32.68153 
128 ,23.9159 ,0.83326 ,3.31708 ,32.54722 
129 ,24.0914 ,0.83514 ,3.28628 ,32.24501 
130 ,24.3000 ,0.83696 ,3.26575 ,32.04354 
131 ,24.4762 ,0.83893 ,3.26575 ,32.04354 
132 ,24.6680 ,0.84086 ,3.24180 ,31.80849 
133 ,24.8442 ,0.84260 ,3.23837 ,31.77492 
134 ,25.0201 ,0.84436 ,3.22126 ,31.60702 
135 ,25.1964 ,0.84611 ,3.21100 ,31.50629 
136 ,25.3723 ,0.84790 ,3.18020 ,31.20409 
137 ,25.5645 ,0.84971 ,3.18362 ,31.23766 
138 ,25.7566 ,0.85162 ,3.16309 ,31.03619 
139 ,25.9487 ,0.85360 ,3.14255 ,30.83472 
140 ,26.1247 ,0.85544 ,3.12886 ,30.70041 
141 ,26.3008 ,0.85714 ,3.11860 ,30.59968 
142 ,26.4928 ,0.85904 ,3.09122 ,30.33105 
143 ,26.6851 ,0.86105 ,3.07411 ,30.16316 
144 ,26.8772 ,0.86287 ,3.04673 ,29.89453 
145 ,27.0530 ,0.86468 ,3.02278 ,29.65948 
146 ,27.2291 ,0.86647 ,3.02278 ,29.65948 
147 ,27.4373 ,0.86854 ,3.01935 ,29.62590 
148 ,27.6293 ,0.87048 ,2.98855 ,29.32370 
149 ,27.8213 ,0.87229 ,2.97829 ,29.22297 
150 ,28.0292 ,0.87431 ,2.95776 ,29.02150 
151 ,28.2056 ,0.87618 ,2.94064 ,28.85360 
152 ,28.3975 ,0.87802 ,2.93038 ,28.75287 
153 ,28.5737 ,0.87985 ,2.90642 ,28.51782 
154 ,28.7979 ,0.88194 ,2.90300 ,28.48424 
155 ,28.9898 ,0.88396 ,2.87905 ,28.24919 
156 ,29.1660 ,0.88582 ,2.85509 ,28.01415 
157 ,29.3417 ,0.88753 ,2.86193 ,28.08130 
158 ,29.5498 ,0.88953 ,2.81745 ,27.64479 
159 ,29.7420 ,0.89154 ,2.81060 ,27.57763 
160 ,29.9183 ,0.89335 ,2.80718 ,27.54405 
161 ,30.1099 ,0.89520 ,2.77980 ,27.27542 
162 ,30.2865 ,0.89698 ,2.77296 ,27.20827 
163 ,30.4620 ,0.89874 ,2.75585 ,27.04038 
164 ,30.6386 ,0.90051 ,2.74216 ,26.90606 
165 ,30.8304 ,0.90246 ,2.70452 ,26.53670 
166 ,31.0068 ,0.90425 ,2.70452 ,26.53670 
167 ,31.1826 ,0.90602 ,2.67714 ,26.26807 
168 ,31.3749 ,0.90787 ,2.66003 ,26.10018 
169 ,31.5665 ,0.90975 ,2.66345 ,26.13376 
170 ,31.7429 ,0.91154 ,2.64976 ,25.99945 
171 ,31.9669 ,0.91364 ,2.60869 ,25.59651 
172 ,32.1270 ,0.91552 ,2.61554 ,25.66367 
173 ,32.3030 ,0.91714 ,2.59501 ,25.46220 
174 ,32.4954 ,0.91905 ,2.56763 ,25.19357 
175 ,32.6874 ,0.92094 ,2.56763 ,25.19357 
176 ,32.8634 ,0.92271 ,2.55394 ,25.05926 
177 ,33.0396 ,0.92448 ,2.54025 ,24.92494 
178 ,33.2314 ,0.92648 ,2.50261 ,24.55558 
179 ,33.4236 ,0.92833 ,2.51630 ,24.68989 
180 ,33.6318 ,0.93037 ,2.48207 ,24.35411 
181 ,33.8237 ,0.93230 ,2.47181 ,24.25338 
182 ,34.0156 ,0.93434 ,2.44101 ,23.95117 
183 ,34.1920 ,0.93600 ,2.42390 ,23.78328 
184 ,34.3841 ,0.93788 ,2.42048 ,23.74970 
185 ,34.5601 ,0.93974 ,2.39652 ,23.51465 
186 ,34.7363 ,0.94141 ,2.36914 ,23.24603 
187 ,34.9283 ,0.94336 ,2.37941 ,23.34676 
188 ,35.1362 ,0.94543 ,2.33834 ,22.94382 
189 ,35.3284 ,0.94738 ,2.34519 ,23.01098 
190 ,35.5045 ,0.94915 ,2.32123 ,22.77593 
191 ,35.7127 ,0.95120 ,2.30754 ,22.64162 
192 ,35.8886 ,0.95307 ,2.30070 ,22.57446 
193 ,36.0647 ,0.95471 ,2.28701 ,22.44015 
194 ,36.2403 ,0.95651 ,2.25963 ,22.17152 
195 ,36.4328 ,0.95842 ,2.23568 ,21.93647 
196 ,36.6250 ,0.96027 ,2.22541 ,21.83574 
197 ,36.8329 ,0.96238 ,2.20146 ,21.60069 
198 ,37.0090 ,0.96422 ,2.19461 ,21.53353 
199 ,37.1852 ,0.96597 ,2.18435 ,21.43280 
200 ,37.3611 ,0.96770 ,2.17408 ,21.33206 
201 ,37.5530 ,0.96961 ,2.14328 ,21.02986 
202 ,37.7293 ,0.97137 ,2.13301 ,20.92912 
203 ,37.9054 ,0.97312 ,2.12959 ,20.89555 
204 ,38.0816 ,0.97489 ,2.10564 ,20.66050 
205 ,38.2736 ,0.97681 ,2.09195 ,20.52619 
206 ,38.4498 ,0.97857 ,2.07826 ,20.39187 
207 ,38.6416 ,0.98050 ,2.06457 ,20.25756 
208 ,38.8179 ,0.98229 ,2.04061 ,20.02251 
209 ,39.0099 ,0.98414 ,2.04404 ,20.05609 
210 ,39.1860 ,0.98598 ,2.02693 ,19.88820 
211 ,39.5864 ,0.98894 ,1.99955 ,19.61957 
212 ,39.7942 ,0.99198 ,1.96533 ,19.28379 
213 ,39.9705 ,0.99381 ,1.95506 ,19.18305 
214 ,40.1625 ,0.99564 ,1.93453 ,18.98158 
215 ,40.3386 ,0.99751 ,1.91399 ,18.78011 
216 ,40.5467 ,0.99955 ,1.92768 ,18.91443 
217 ,40.7388 ,1.00143 ,1.88319 ,18.47791 
218 ,40.9307 ,1.00337 ,1.89004 ,18.54507 
219 ,41.1069 ,1.00516 ,1.87977 ,18.44433 
220 ,41.2989 ,1.00700 ,1.83871 ,18.04139 
221 ,41.4909 ,1.00901 ,1.84213 ,18.07497 
222 ,41.6672 ,1.01077 ,1.82160 ,17.87350 
223 ,41.8592 ,1.01270 ,1.80106 ,17.67203 
224 ,42.0514 ,1.01458 ,1.78737 ,17.53772 
225 ,42.2431 ,1.01641 ,1.77026 ,17.36983 
226 ,42.4515 ,1.01851 ,1.76000 ,17.26909 
227 ,42.6596 ,1.02052 ,1.73604 ,17.03404 
228 ,42.8517 ,1.02252 ,1.72578 ,16.93331 
229 ,43.0277 ,1.02438 ,1.71551 ,16.83257 
230 ,43.2359 ,1.02635 ,1.68813 ,16.56395 
231 ,43.4119 ,1.02828 ,1.67444 ,16.42963 
232 ,43.6039 ,1.03005 ,1.66075 ,16.29532 
233 ,43.7961 ,1.03201 ,1.64022 ,16.09385 
234 ,43.9882 ,1.03399 ,1.64022 ,16.09385 
235 ,44.1636 ,1.03577 ,1.62995 ,15.99311 
236 ,44.3397 ,1.03749 ,1.59573 ,15.65733 
237 ,44.5157 ,1.03931 ,1.58889 ,15.59018 
238 ,44.6922 ,1.04104 ,1.56836 ,15.38871 
239 ,44.9000 ,1.04306 ,1.55124 ,15.22081 
240 ,45.0762 ,1.04497 ,1.54440 ,15.15366 
241 ,45.2522 ,1.04666 ,1.52387 ,14.95219 
242 ,45.4281 ,1.04842 ,1.52045 ,14.91861 
243 ,45.6203 ,1.05021 ,1.49991 ,14.71714 
244 ,45.7963 ,1.05205 ,1.48280 ,14.54925 
245 ,45.9888 ,1.05396 ,1.49991 ,14.71714 
246 ,46.1970 ,1.05607 ,1.46227 ,14.34778 
247 ,46.3890 ,1.05798 ,1.45885 ,14.31420 
248 ,46.5487 ,1.05966 ,1.45200 ,14.24704 
249 ,46.7250 ,1.06136 ,1.44516 ,14.17989 
250 ,46.9170 ,1.06324 ,1.39725 ,13.70979 
251 ,47.0931 ,1.06509 ,1.41094 ,13.84410 
252 ,47.2855 ,1.06693 ,1.37671 ,13.50832 
253 ,47.4936 ,1.06894 ,1.38014 ,13.54190 
254 ,47.6691 ,1.07075 ,1.37329 ,13.47474 
255 ,47.8457 ,1.07251 ,1.35960 ,13.34043 
256 ,48.0216 ,1.07431 ,1.33565 ,13.10538 
257 ,48.2137 ,1.07610 ,1.32880 ,13.03822 
258 ,48.3899 ,1.07796 ,1.31512 ,12.90391 
259 ,48.5980 ,1.07990 ,1.29116 ,12.66886 
260 ,48.7576 ,1.08175 ,1.27747 ,12.53455 
261 ,48.9340 ,1.08339 ,1.27405 ,12.50097 
262 ,49.1263 ,1.08528 ,1.26036 ,12.36666 
263 ,49.3181 ,1.08723 ,1.22956 ,12.06445 
264 ,49.5104 ,1.08907 ,1.24325 ,12.19877 
265 ,49.7023 ,1.09107 ,1.21587 ,11.93014 
266 ,49.8784 ,1.09285 ,1.18850 ,11.66151 
267 ,50.0546 ,1.09465 ,1.19534 ,11.72867 
268 ,50.2466 ,1.09649 ,1.18850 ,11.66151 
269 ,50.4226 ,1.09827 ,1.15085 ,11.29215 
270 ,50.6148 ,1.10016 ,1.15770 ,11.35931 
271 ,50.8385 ,1.10236 ,1.13032 ,11.09068 
272 ,51.0151 ,1.10420 ,1.12347 ,11.02353 
273 ,51.2070 ,1.10610 ,1.09952 ,10.78848 
274 ,51.3991 ,1.10799 ,1.08241 ,10.62059 
275 ,51.5912 ,1.10991 ,1.07556 ,10.55343 
276 ,51.7992 ,1.11195 ,1.06872 ,10.48627 
277 ,51.9753 ,1.11381 ,1.05845 ,10.38554 
278 ,52.1513 ,1.11560 ,1.04476 ,10.25123 
279 ,52.3433 ,1.11745 ,1.02423 ,10.04976 
280 ,52.5195 ,1.11923 ,1.00028 ,9.81471 
281 ,52.7117 ,1.12111 ,1.01054 ,9.91544 
282 ,52.9036 ,1.12305 ,0.97290 ,9.54608 
283 ,53.0797 ,1.12490 ,0.97632 ,9.57966 
284 ,53.2558 ,1.12660 ,0.97632 ,9.57966 
285 ,53.4639 ,1.12860 ,0.94552 ,9.27745 
286 ,53.6399 ,1.13051 ,0.94552 ,9.27745 
287 ,53.8161 ,1.13220 ,0.92499 ,9.07598 
288 ,54.0080 ,1.13410 ,0.91130 ,8.94167 
289 ,54.2162 ,1.13616 ,0.90103 ,8.84094 
290 ,54.4403 ,1.13828 ,0.89419 ,8.77378 
291 ,54.6322 ,1.14039 ,0.88050 ,8.63947 
292 ,54.8084 ,1.14213 ,0.86681 ,8.50515 
293 ,54.9844 ,1.14386 ,0.84286 ,8.27011 
294 ,55.1600 ,1.14562 ,0.83943 ,8.23653 
295 ,55.3367 ,1.14745 ,0.83943 ,8.23653 
296 ,55.5123 ,1.14920 ,0.83259 ,8.16937 
297 ,55.6889 ,1.15094 ,0.80521 ,7.90074 
298 ,55.8808 ,1.15284 ,0.78126 ,7.66570 
299 ,56.0729 ,1.15468 ,0.79495 ,7.80001 
300 ,56.2805 ,1.15683 ,0.77099 ,7.56496 
301 ,56.4570 ,1.15860 ,0.76415 ,7.49780 
302 ,56.6331 ,1.16035 ,0.76415 ,7.49780 
303 ,56.8252 ,1.16228 ,0.72992 ,7.16202 
304 ,57.0171 ,1.16419 ,0.72308 ,7.09486 
305 ,57.2252 ,1.16619 ,0.70597 ,6.92697 
306 ,57.4174 ,1.16814 ,0.68544 ,6.72550 
307 ,57.6254 ,1.17018 ,0.67517 ,6.62477 
308 ,57.8014 ,1.17199 ,0.68201 ,6.69193 
309 ,57.9778 ,1.17383 ,0.66490 ,6.52403 
310 ,58.1698 ,1.17569 ,0.63410 ,6.22183 
311 ,58.3615 ,1.17757 ,0.62726 ,6.15467 
312 ,58.5379 ,1.17941 ,0.62042 ,6.08752 
313 ,58.7300 ,1.18133 ,0.61015 ,5.98678 
314 ,58.9219 ,1.18323 ,0.59646 ,5.85247 
315 ,59.0979 ,1.18504 ,0.58619 ,5.75173 
316 ,59.2903 ,1.18693 ,0.57935 ,5.68458 
317 ,59.4819 ,1.18877 ,0.56908 ,5.58384 
318 ,59.6584 ,1.19063 ,0.54855 ,5.38237 
319 ,59.8665 ,1.19269 ,0.53486 ,5.24806 
320 ,60.0585 ,1.19454 ,0.54513 ,5.34879 
321 ,60.2346 ,1.19630 ,0.52117 ,5.11375 
322 ,60.4106 ,1.19814 ,0.50748 ,4.97943 
323 ,60.6025 ,1.20001 ,0.48695 ,4.77796 
324 ,60.7789 ,1.20181 ,0.50064 ,4.91228 
325 ,60.9705 ,1.20368 ,0.46642 ,4.57649 
326 ,61.1470 ,1.20553 ,0.44931 ,4.40860 
327 ,61.3390 ,1.20734 ,0.45273 ,4.44218 
328 ,61.5149 ,1.20920 ,0.44246 ,4.34144 
329 ,61.6908 ,1.21088 ,0.42193 ,4.13997 
330 ,61.8672 ,1.21270 ,0.40140 ,3.93850 
331 ,62.0432 ,1.21442 ,0.39797 ,3.90493 
332 ,62.2353 ,1.21627 ,0.38086 ,3.73703 
333 ,62.4111 ,1.21812 ,0.38086 ,3.73703 
334 ,62.5877 ,1.21989 ,0.35691 ,3.50199 
335 ,62.7797 ,1.22181 ,0.35691 ,3.50199 
336 ,62.9554 ,1.22360 ,0.34664 ,3.40125 
337 ,63.1317 ,1.22532 ,0.33295 ,3.26694 
338 ,63.3072 ,1.22707 ,0.31242 ,3.06547 
339 ,63.4839 ,1.22889 ,0.29873 ,2.93116 
340 ,63.6759 ,1.23076 ,0.31242 ,3.06547 
341 ,63.8358 ,1.23247 ,0.28162 ,2.76326 
342 ,64.0282 ,1.23421 ,0.27135 ,2.66253 
343 ,64.2201 ,1.23624 ,0.26793 ,2.62895 
344 ,64.3802 ,1.23793 ,0.26451 ,2.59537 
345 ,64.5561 ,1.23952 ,0.26109 ,2.56179 
346 ,64.7323 ,1.24133 ,0.22687 ,2.22601 
347 ,64.9404 ,1.24338 ,0.23713 ,2.32675 
348 ,65.1325 ,1.24532 ,0.21318 ,2.09170 
349 ,65.3088 ,1.24711 ,0.17553 ,1.72234 
350 ,65.5168 ,1.24913 ,0.18580 ,1.82307 
351 ,65.7090 ,1.25101 ,0.17896 ,1.75592 
352 ,65.9005 ,1.25292 ,0.18580 ,1.82307 
353 ,66.0771 ,1.25477 ,0.16869 ,1.65518 
354 ,66.2529 ,1.25647 ,0.14131 ,1.38655 
355 ,66.4773 ,1.25876 ,0.14473 ,1.42013 
356 ,66.6692 ,1.26070 ,0.12762 ,1.25224 
357 ,66.8614 ,1.26255 ,0.12762 ,1.25224 
358 ,67.0694 ,1.26463 ,0.10025 ,0.98361 
359 ,67.2616 ,1.26654 ,0.10367 ,1.01719 
360 ,67.4535 ,1.26850 ,0.08998 ,0.88288 
361 ,67.6295 ,1.27027 ,0.07971 ,0.78214 
362 ,67.8058 ,1.27205 ,0.07971 ,0.78214 
363 ,67.9979 ,1.27399 ,0.07287 ,0.71499 
364 ,68.1897 ,1.27581 ,0.04207 ,0.41278 
365 ,68.3822 ,1.27780 ,0.04549 ,0.44636 
366 ,68.5581 ,1.27960 ,0.04891 ,0.47994 
367 ,68.7502 ,1.28142 ,0.01469 ,0.14416 
368 ,68.9582 ,1.28349 ,0.02154 ,0.21131 
369 ,69.1498 ,1.28554 ,0.01811 ,0.17773 
370 ,69.3259 ,1.28730 ,-0.01611 ,-0.15805 
371 ,69.5020 ,1.28899 ,-0.00926 ,-0.09089 
372 ,69.6785 ,1.29077 ,-0.00926 ,-0.09089 
373 ,69.8701 ,1.29260 ,-0.04006 ,-0.39310 
374 ,70.0302 ,1.29438 ,-0.02637 ,-0.25878 
375 ,70.2063 ,1.29603 ,-0.06060 ,-0.59457 
376 ,70.3831 ,1.29781 ,-0.04691 ,-0.46025 
377 ,70.6229 ,1.29998 ,-0.07771 ,-0.76246 
378 ,70.7991 ,1.30202 ,-0.07771 ,-0.76246 
379 ,70.9911 ,1.30384 ,-0.11877 ,-1.16540 
380 ,71.1830 ,1.30577 ,-0.10166 ,-0.99751 
381 ,71.3592 ,1.30757 ,-0.11193 ,-1.09824 
382 ,71.5513 ,1.30948 ,-0.13588 ,-1.33329 
383 ,71.7431 ,1.31132 ,-0.12904 ,-1.26613 
384 ,71.9194 ,1.31319 ,-0.14615 ,-1.43402 
385 ,72.1275 ,1.31508 ,-0.16668 ,-1.63549 
386 ,72.3192 ,1.31716 ,-0.16326 ,-1.60191 
387 ,72.5278 ,1.31907 ,-0.18379 ,-1.80338 
388 ,72.7197 ,1.32117 ,-0.18379 ,-1.80338 
389 ,72.8956 ,1.32294 ,-0.20090 ,-1.97128 
390 ,73.0880 ,1.32486 ,-0.20775 ,-2.03843 
391 ,73.2798 ,1.32673 ,-0.22486 ,-2.20632 
392 ,73.4878 ,1.32877 ,-0.22828 ,-2.23990 
393 ,73.6961 ,1.33084 ,-0.22828 ,-2.23990 
394 ,73.8884 ,1.33289 ,-0.25224 ,-2.47495 
395 ,74.0802 ,1.33470 ,-0.27961 ,-2.74358 
396 ,74.2564 ,1.33654 ,-0.27619 ,-2.71000 
397 ,74.4806 ,1.33863 ,-0.29330 ,-2.87789 
398 ,74.6723 ,1.34065 ,-0.31726 ,-3.11294 
399 ,74.8486 ,1.34242 ,-0.30699 ,-3.01220 
400 ,75.0245 ,1.34422 ,-0.31384 ,-3.07936 
401 ,75.2003 ,1.34595 ,-0.31384 ,-3.07936 
402 ,75.3927 ,1.34776 ,-0.33437 ,-3.28083 
403 ,75.5846 ,1.34984 ,-0.32410 ,-3.18010 
404 ,75.7611 ,1.35155 ,-0.34806 ,-3.41514 
405 ,75.9687 ,1.35360 ,-0.35148 ,-3.44872 
406 ,76.1612 ,1.35556 ,-0.35832 ,-3.51588 
407 ,76.3530 ,1.35742 ,-0.37886 ,-3.71735 
408 ,76.5452 ,1.35943 ,-0.37201 ,-3.65019 
409 ,76.7210 ,1.36115 ,-0.39255 ,-3.85166 
410 ,76.8974 ,1.36295 ,-0.40966 ,-4.01955 
411 ,77.0896 ,1.36481 ,-0.41992 ,-4.12029 
412 ,77.2976 ,1.36688 ,-0.43703 ,-4.28818 
413 ,77.5053 ,1.36894 ,-0.43019 ,-4.22102 
414 ,77.6821 ,1.37079 ,-0.44046 ,-4.32176 
415 ,77.8576 ,1.37260 ,-0.46441 ,-4.55681 
416 ,78.0338 ,1.37426 ,-0.48152 ,-4.72470 
417 ,78.2098 ,1.37618 ,-0.46441 ,-4.55681 
418 ,78.3860 ,1.37781 ,-0.47126 ,-4.62396 
419 ,78.5782 ,1.37968 ,-0.49179 ,-4.82543 
420 ,78.7863 ,1.38166 ,-0.49179 ,-4.82543 
421 ,78.9942 ,1.38382 ,-0.51574 ,-5.06048 
422 ,79.1859 ,1.38583 ,-0.50548 ,-4.95975 
423 ,79.3624 ,1.38755 ,-0.53285 ,-5.22837 
424 ,79.5703 ,1.38956 ,-0.52259 ,-5.12764 
425 ,79.7465 ,1.39143 ,-0.54654 ,-5.36268 
426 ,79.9222 ,1.39313 ,-0.56023 ,-5.49700 
427 ,80.0987 ,1.39495 ,-0.56023 ,-5.49700 
428 ,80.2907 ,1.39682 ,-0.56365 ,-5.53058 
429 ,80.4828 ,1.39866 ,-0.56708 ,-5.56415 
430 ,80.6909 ,1.40067 ,-0.59103 ,-5.79920 
431 ,80.8990 ,1.40275 ,-0.59445 ,-5.83278 
432 ,81.1070 ,1.40494 ,-0.59788 ,-5.86636 
433 ,81.2989 ,1.40689 ,-0.62183 ,-6.10141 
434 ,81.4751 ,1.40871 ,-0.62525 ,-6.13499 
435 ,81.6514 ,1.41043 ,-0.61499 ,-6.03425 
436 ,81.8433 ,1.41230 ,-0.63894 ,-6.26930 
437 ,82.0192 ,1.41412 ,-0.64921 ,-6.37003 
438 ,82.2116 ,1.41597 ,-0.62868 ,-6.16856 
439 ,82.4035 ,1.41794 ,-0.64921 ,-6.37003 
440 ,82.5958 ,1.41978 ,-0.67316 ,-6.60508 
441 ,82.7718 ,1.42166 ,-0.67316 ,-6.60508 
442 ,82.9479 ,1.42342 ,-0.66290 ,-6.50435 
443 ,83.1396 ,1.42531 ,-0.69027 ,-6.77297 
444 ,83.3320 ,1.42722 ,-0.70054 ,-6.87371 
445 ,83.5401 ,1.42929 ,-0.71423 ,-7.00802 
446 ,83.7161 ,1.43109 ,-0.72792 ,-7.14233 
447 ,83.8923 ,1.43286 ,-0.72450 ,-7.10876 
448 ,84.0844 ,1.43470 ,-0.72107 ,-7.07518 
449 ,84.2763 ,1.43674 ,-0.72792 ,-7.14233 
450 ,84.4522 ,1.43840 ,-0.74503 ,-7.31023 
451 ,84.6766 ,1.44049 ,-0.77241 ,-7.57885 
452 ,84.8846 ,1.44267 ,-0.77583 ,-7.61243 
453 ,85.0608 ,1.44451 ,-0.78610 ,-7.71317 
454 ,85.2525 ,1.44645 ,-0.78952 ,-7.74674 
455 ,85.4288 ,1.44826 ,-0.79294 ,-7.78032 
456 ,85.6208 ,1.45015 ,-0.80663 ,-7.91464 
457 ,85.8130 ,1.45202 ,-0.82032 ,-8.04895 
458 ,86.0050 ,1.45393 ,-0.84085 ,-8.25042 
459 ,86.2132 ,1.45591 ,-0.82716 ,-8.11611 
460 ,86.3888 ,1.45786 ,-0.84427 ,-8.28400 
461 ,86.5654 ,1.45964 ,-0.85112 ,-8.35115 
462 ,86.7574 ,1.46154 ,-0.85454 ,-8.38473 
463 ,86.9495 ,1.46337 ,-0.86823 ,-8.51904 
