Data stamp = , 19-04-2022 16:52:15 639

Calibration Values: 
Slope = , 26.54 , g/V 
Offset Voltage at no contact = , -0.501760 , V 

No , Time , Stage Position ,   Mass , Force 
   ,  (s) ,      (mm)      ,   (g)  , (mN)  

1 ,0.0000 ,0.64943 ,5.01448 ,49.20205 
2 ,0.2151 ,0.64952 ,5.01448 ,49.20205 
3 ,0.5996 ,0.65055 ,4.99737 ,49.03416 
4 ,0.8076 ,0.65240 ,4.99052 ,48.96701 
5 ,0.9999 ,0.65417 ,4.99737 ,49.03416 
6 ,1.1754 ,0.65597 ,4.99052 ,48.96701 
7 ,1.3680 ,0.65781 ,4.98710 ,48.93343 
8 ,1.5600 ,0.65975 ,5.00763 ,49.13490 
9 ,1.7356 ,0.66153 ,4.99737 ,49.03416 
10 ,1.9120 ,0.66329 ,4.98368 ,48.89985 
11 ,2.0882 ,0.66517 ,4.97683 ,48.83269 
12 ,2.2639 ,0.66683 ,4.94946 ,48.56407 
13 ,2.4562 ,0.66870 ,4.94603 ,48.53049 
14 ,2.6645 ,0.67074 ,4.90839 ,48.16113 
15 ,2.8565 ,0.67269 ,4.90497 ,48.12755 
16 ,3.0487 ,0.67464 ,4.87417 ,47.82534 
17 ,3.2247 ,0.67648 ,4.86732 ,47.75819 
18 ,3.4005 ,0.67824 ,4.84679 ,47.55672 
19 ,3.5767 ,0.67994 ,4.82968 ,47.38883 
20 ,3.7850 ,0.68202 ,4.81257 ,47.22093 
21 ,3.9767 ,0.68389 ,4.78177 ,46.91873 
22 ,4.1531 ,0.68568 ,4.76808 ,46.78442 
23 ,4.3450 ,0.68756 ,4.76808 ,46.78442 
24 ,4.5213 ,0.68938 ,4.74755 ,46.58295 
25 ,4.7130 ,0.69130 ,4.73044 ,46.41506 
26 ,4.8889 ,0.69302 ,4.69622 ,46.07927 
27 ,5.0815 ,0.69490 ,4.70306 ,46.14643 
28 ,5.2896 ,0.69699 ,4.66199 ,45.74349 
29 ,5.4814 ,0.69897 ,4.66199 ,45.74349 
30 ,5.6738 ,0.70085 ,4.62777 ,45.40771 
31 ,5.8657 ,0.70279 ,4.62777 ,45.40771 
32 ,6.0419 ,0.70463 ,4.60382 ,45.17266 
33 ,6.2180 ,0.70636 ,4.58671 ,45.00477 
34 ,6.4102 ,0.70820 ,4.56275 ,44.76972 
35 ,6.6018 ,0.71016 ,4.53880 ,44.53467 
36 ,6.7782 ,0.71193 ,4.53537 ,44.50109 
37 ,6.9704 ,0.71381 ,4.50457 ,44.19889 
38 ,7.1625 ,0.71575 ,4.49773 ,44.13173 
39 ,7.3385 ,0.71758 ,4.48746 ,44.03100 
40 ,7.5145 ,0.71932 ,4.45666 ,43.72879 
41 ,7.6906 ,0.72107 ,4.43955 ,43.56090 
42 ,7.8507 ,0.72279 ,4.42244 ,43.39301 
43 ,8.0588 ,0.72470 ,4.40875 ,43.25870 
44 ,8.2344 ,0.72648 ,4.38138 ,42.99007 
45 ,8.4108 ,0.72827 ,4.35400 ,42.72144 
46 ,8.6190 ,0.73026 ,4.35058 ,42.68786 
47 ,8.8109 ,0.73225 ,4.34716 ,42.65429 
48 ,8.9868 ,0.73403 ,4.33004 ,42.48639 
49 ,9.1632 ,0.73580 ,4.31978 ,42.38566 
50 ,9.3392 ,0.73758 ,4.29240 ,42.11703 
51 ,9.5313 ,0.73949 ,4.27529 ,41.94914 
52 ,9.7234 ,0.74134 ,4.26502 ,41.84841 
53 ,9.9152 ,0.74322 ,4.22396 ,41.44547 
54 ,10.0911 ,0.74507 ,4.21369 ,41.34473 
55 ,10.2676 ,0.74679 ,4.20685 ,41.27758 
56 ,10.4437 ,0.74859 ,4.19658 ,41.17684 
57 ,10.6355 ,0.75047 ,4.16578 ,40.87464 
58 ,10.8434 ,0.75243 ,4.16236 ,40.84106 
59 ,11.0357 ,0.75450 ,4.13840 ,40.60601 
60 ,11.2440 ,0.75653 ,4.12129 ,40.43812 
61 ,11.4360 ,0.75844 ,4.09049 ,40.13591 
62 ,11.6441 ,0.76051 ,4.08707 ,40.10233 
63 ,11.8201 ,0.76235 ,4.06312 ,39.86729 
64 ,11.9802 ,0.76405 ,4.03916 ,39.63224 
65 ,12.1560 ,0.76571 ,4.03232 ,39.56508 
66 ,12.3324 ,0.76745 ,4.01863 ,39.43077 
67 ,12.5405 ,0.76950 ,3.99809 ,39.22930 
68 ,12.7162 ,0.77132 ,3.98098 ,39.06141 
69 ,12.9085 ,0.77315 ,3.97072 ,38.96067 
70 ,13.0846 ,0.77497 ,3.95361 ,38.79278 
71 ,13.2609 ,0.77678 ,3.93307 ,38.59131 
72 ,13.4367 ,0.77851 ,3.92281 ,38.49058 
73 ,13.6124 ,0.78027 ,3.88516 ,38.12122 
74 ,13.7890 ,0.78202 ,3.89201 ,38.18837 
75 ,13.9649 ,0.78383 ,3.86805 ,37.95332 
76 ,14.1411 ,0.78554 ,3.86121 ,37.88617 
77 ,14.3331 ,0.78747 ,3.82356 ,37.51681 
78 ,14.5093 ,0.78927 ,3.81672 ,37.44965 
79 ,14.6853 ,0.79099 ,3.81330 ,37.41607 
80 ,14.8774 ,0.79281 ,3.79276 ,37.21460 
81 ,15.0534 ,0.79464 ,3.76539 ,36.94597 
82 ,15.2455 ,0.79653 ,3.76196 ,36.91240 
83 ,15.4376 ,0.79845 ,3.73117 ,36.61019 
84 ,15.6137 ,0.80024 ,3.71748 ,36.47588 
85 ,15.8055 ,0.80211 ,3.70721 ,36.37514 
86 ,15.9819 ,0.80393 ,3.70379 ,36.34157 
87 ,16.1737 ,0.80588 ,3.67641 ,36.07294 
88 ,16.3660 ,0.80770 ,3.65930 ,35.90505 
89 ,16.5737 ,0.80979 ,3.64219 ,35.73716 
90 ,16.7663 ,0.81167 ,3.63192 ,35.63642 
91 ,16.9581 ,0.81372 ,3.60112 ,35.33422 
92 ,17.1503 ,0.81553 ,3.59428 ,35.26706 
93 ,17.3100 ,0.81732 ,3.58059 ,35.13275 
94 ,17.4864 ,0.81897 ,3.55663 ,34.89770 
95 ,17.6785 ,0.82084 ,3.53610 ,34.69623 
96 ,17.8544 ,0.82267 ,3.51557 ,34.49476 
97 ,18.0465 ,0.82457 ,3.52584 ,34.59549 
98 ,18.2387 ,0.82655 ,3.49161 ,34.25971 
99 ,18.4147 ,0.82824 ,3.46766 ,34.02466 
100 ,18.5909 ,0.83003 ,3.46766 ,34.02466 
101 ,18.7671 ,0.83178 ,3.46081 ,33.95751 
102 ,18.9591 ,0.83374 ,3.43001 ,33.65530 
103 ,19.1352 ,0.83546 ,3.40264 ,33.38667 
104 ,19.3431 ,0.83754 ,3.40264 ,33.38667 
105 ,19.5194 ,0.83930 ,3.37184 ,33.08447 
106 ,19.7269 ,0.84132 ,3.37868 ,33.15163 
107 ,19.9029 ,0.84314 ,3.35473 ,32.91658 
108 ,20.0790 ,0.84495 ,3.33077 ,32.68153 
109 ,20.2553 ,0.84667 ,3.31024 ,32.48006 
110 ,20.4795 ,0.84882 ,3.30339 ,32.41290 
111 ,20.6719 ,0.85079 ,3.28286 ,32.21143 
112 ,20.8799 ,0.85285 ,3.25891 ,31.97639 
113 ,21.0717 ,0.85477 ,3.26233 ,32.00996 
114 ,21.2479 ,0.85658 ,3.25548 ,31.94281 
115 ,21.4241 ,0.85835 ,3.22126 ,31.60702 
116 ,21.5997 ,0.86025 ,3.19388 ,31.33840 
117 ,21.7762 ,0.86184 ,3.18704 ,31.27124 
118 ,21.9844 ,0.86378 ,3.17677 ,31.17051 
119 ,22.1764 ,0.86585 ,3.16651 ,31.06977 
120 ,22.3686 ,0.86783 ,3.14597 ,30.86830 
121 ,22.5605 ,0.86967 ,3.11518 ,30.56610 
122 ,22.7206 ,0.87143 ,3.08780 ,30.29747 
123 ,22.8962 ,0.87300 ,3.09122 ,30.33105 
124 ,23.0729 ,0.87480 ,3.08095 ,30.23031 
125 ,23.2644 ,0.87675 ,3.06726 ,30.09600 
126 ,23.4410 ,0.87851 ,3.04331 ,29.86095 
127 ,23.6488 ,0.88054 ,3.03989 ,29.82737 
128 ,23.8249 ,0.88233 ,3.02278 ,29.65948 
129 ,24.0011 ,0.88410 ,2.99540 ,29.39086 
130 ,24.1771 ,0.88596 ,2.98171 ,29.25654 
131 ,24.3530 ,0.88761 ,2.96118 ,29.05507 
132 ,24.5452 ,0.88946 ,2.95776 ,29.02150 
133 ,24.7214 ,0.89131 ,2.93380 ,28.78645 
134 ,24.8815 ,0.89304 ,2.93038 ,28.75287 
135 ,25.0577 ,0.89468 ,2.89273 ,28.38351 
136 ,25.2497 ,0.89651 ,2.89616 ,28.41709 
137 ,25.4253 ,0.89832 ,2.87562 ,28.21562 
138 ,25.6019 ,0.90011 ,2.85509 ,28.01415 
139 ,25.8099 ,0.90223 ,2.85167 ,27.98057 
140 ,26.0019 ,0.90411 ,2.82087 ,27.67836 
141 ,26.1941 ,0.90599 ,2.81060 ,27.57763 
142 ,26.3861 ,0.90785 ,2.79007 ,27.37616 
143 ,26.5623 ,0.90973 ,2.79007 ,27.37616 
144 ,26.7543 ,0.91153 ,2.76954 ,27.17469 
145 ,26.9460 ,0.91352 ,2.75243 ,27.00680 
146 ,27.1220 ,0.91529 ,2.73189 ,26.80533 
147 ,27.3301 ,0.91731 ,2.71478 ,26.63744 
148 ,27.5062 ,0.91911 ,2.70794 ,26.57028 
149 ,27.6826 ,0.92091 ,2.69083 ,26.40239 
150 ,27.8588 ,0.92268 ,2.64976 ,25.99945 
151 ,28.0503 ,0.92453 ,2.66003 ,26.10018 
152 ,28.2266 ,0.92635 ,2.63607 ,25.86514 
153 ,28.4349 ,0.92836 ,2.62238 ,25.73082 
154 ,28.6429 ,0.93037 ,2.59843 ,25.49577 
155 ,28.8192 ,0.93228 ,2.56421 ,25.15999 
156 ,28.9951 ,0.93410 ,2.57105 ,25.22715 
157 ,29.1712 ,0.93584 ,2.54710 ,24.99210 
158 ,29.3473 ,0.93757 ,2.54710 ,24.99210 
159 ,29.5394 ,0.93941 ,2.51630 ,24.68989 
160 ,29.7314 ,0.94136 ,2.51287 ,24.65632 
161 ,29.9075 ,0.94318 ,2.50261 ,24.55558 
162 ,30.0836 ,0.94492 ,2.46839 ,24.21980 
163 ,30.2752 ,0.94681 ,2.45812 ,24.11906 
164 ,30.4677 ,0.94866 ,2.44785 ,24.01833 
165 ,30.6438 ,0.95052 ,2.42048 ,23.74970 
166 ,30.8356 ,0.95238 ,2.42048 ,23.74970 
167 ,31.0120 ,0.95420 ,2.39652 ,23.51465 
168 ,31.2039 ,0.95608 ,2.38283 ,23.38034 
169 ,31.3961 ,0.95799 ,2.36230 ,23.17887 
170 ,31.5883 ,0.95996 ,2.35203 ,23.07814 
171 ,31.7642 ,0.96177 ,2.31439 ,22.70877 
172 ,31.9404 ,0.96358 ,2.31439 ,22.70877 
173 ,32.1161 ,0.96524 ,2.28701 ,22.44015 
174 ,32.3083 ,0.96704 ,2.29385 ,22.50731 
175 ,32.5004 ,0.96909 ,2.25963 ,22.17152 
176 ,32.7087 ,0.97101 ,2.25279 ,22.10437 
177 ,32.9006 ,0.97306 ,2.22541 ,21.83574 
178 ,33.1089 ,0.97499 ,2.21857 ,21.76858 
179 ,33.2845 ,0.97691 ,2.21172 ,21.70143 
180 ,33.4611 ,0.97868 ,2.18092 ,21.39922 
181 ,33.6689 ,0.98063 ,2.17066 ,21.29849 
182 ,33.8611 ,0.98270 ,2.15355 ,21.13059 
183 ,34.0371 ,0.98439 ,2.12959 ,20.89555 
184 ,34.2132 ,0.98620 ,2.11248 ,20.72766 
185 ,34.3894 ,0.98796 ,2.12275 ,20.82839 
186 ,34.5814 ,0.98984 ,2.08510 ,20.45903 
187 ,34.7734 ,0.99184 ,2.07826 ,20.39187 
188 ,34.9654 ,0.99369 ,2.07141 ,20.32472 
189 ,35.1417 ,0.99547 ,2.05773 ,20.19040 
190 ,35.3337 ,0.99738 ,2.03377 ,19.95535 
191 ,35.5096 ,0.99915 ,2.02008 ,19.82104 
192 ,35.7180 ,1.00118 ,2.00297 ,19.65315 
193 ,35.9259 ,1.00331 ,1.98928 ,19.51884 
194 ,36.1021 ,1.00507 ,1.96875 ,19.31737 
195 ,36.3101 ,1.00714 ,1.96875 ,19.31737 
196 ,36.5023 ,1.00908 ,1.92768 ,18.91443 
197 ,36.6943 ,1.01093 ,1.93111 ,18.94801 
198 ,36.8703 ,1.01275 ,1.92426 ,18.88085 
199 ,37.0464 ,1.01456 ,1.91399 ,18.78011 
200 ,37.2386 ,1.01643 ,1.87635 ,18.41075 
201 ,37.4466 ,1.01842 ,1.85924 ,18.24286 
202 ,37.6227 ,1.02027 ,1.84897 ,18.14213 
203 ,37.8148 ,1.02211 ,1.82844 ,17.94066 
204 ,38.0068 ,1.02406 ,1.82844 ,17.94066 
205 ,38.2149 ,1.02613 ,1.80791 ,17.73919 
206 ,38.3911 ,1.02793 ,1.78737 ,17.53772 
207 ,38.5832 ,1.02988 ,1.77026 ,17.36983 
208 ,38.7751 ,1.03173 ,1.74973 ,17.16836 
209 ,38.9674 ,1.03360 ,1.75315 ,17.20193 
210 ,39.1593 ,1.03565 ,1.71551 ,16.83257 
211 ,39.3354 ,1.03740 ,1.69840 ,16.66468 
212 ,39.5275 ,1.03922 ,1.70182 ,16.69826 
213 ,39.7037 ,1.04109 ,1.68129 ,16.49679 
214 ,39.8956 ,1.04294 ,1.67786 ,16.46321 
215 ,40.1037 ,1.04508 ,1.63680 ,16.06027 
216 ,40.2798 ,1.04682 ,1.62995 ,15.99311 
217 ,40.4558 ,1.04858 ,1.61627 ,15.85880 
218 ,40.6480 ,1.05043 ,1.59916 ,15.69091 
219 ,40.8398 ,1.05241 ,1.57862 ,15.48944 
220 ,41.0158 ,1.05415 ,1.56493 ,15.35513 
221 ,41.2081 ,1.05604 ,1.56836 ,15.38871 
222 ,41.3842 ,1.05792 ,1.54098 ,15.12008 
223 ,41.5605 ,1.05964 ,1.51702 ,14.88503 
224 ,41.7681 ,1.06160 ,1.51018 ,14.81787 
225 ,41.9442 ,1.06346 ,1.51360 ,14.85145 
226 ,42.1206 ,1.06530 ,1.47596 ,14.48209 
227 ,42.3287 ,1.06721 ,1.46911 ,14.41493 
228 ,42.5207 ,1.06913 ,1.43489 ,14.07915 
229 ,42.7128 ,1.07116 ,1.43147 ,14.04557 
230 ,42.8889 ,1.07292 ,1.43147 ,14.04557 
231 ,43.0645 ,1.07463 ,1.41094 ,13.84410 
232 ,43.2411 ,1.07645 ,1.39040 ,13.64263 
233 ,43.4172 ,1.07824 ,1.36987 ,13.44116 
234 ,43.6093 ,1.08006 ,1.36987 ,13.44116 
235 ,43.8169 ,1.08216 ,1.35960 ,13.34043 
236 ,43.9773 ,1.08391 ,1.33565 ,13.10538 
237 ,44.1534 ,1.08554 ,1.34249 ,13.17254 
238 ,44.3289 ,1.08731 ,1.31169 ,12.87033 
239 ,44.4890 ,1.08903 ,1.30827 ,12.83675 
240 ,44.6657 ,1.09063 ,1.29800 ,12.73602 
241 ,44.8416 ,1.09239 ,1.28089 ,12.56813 
242 ,45.0178 ,1.09417 ,1.25694 ,12.33308 
243 ,45.2098 ,1.09610 ,1.26378 ,12.40024 
244 ,45.3858 ,1.09782 ,1.22956 ,12.06445 
245 ,45.5620 ,1.09964 ,1.22614 ,12.03088 
246 ,45.7381 ,1.10137 ,1.20218 ,11.79583 
247 ,45.9460 ,1.10338 ,1.20218 ,11.79583 
248 ,46.1223 ,1.10524 ,1.18165 ,11.59436 
249 ,46.2980 ,1.10712 ,1.16796 ,11.46004 
250 ,46.4902 ,1.10885 ,1.17138 ,11.49362 
251 ,46.6824 ,1.11083 ,1.14058 ,11.19142 
252 ,46.8587 ,1.11263 ,1.12347 ,11.02353 
253 ,47.2905 ,1.11567 ,1.11663 ,10.95637 
254 ,47.4828 ,1.11886 ,1.08241 ,10.62059 
255 ,47.6749 ,1.12077 ,1.07899 ,10.58701 
256 ,47.8666 ,1.12262 ,1.05845 ,10.38554 
257 ,48.0431 ,1.12442 ,1.03450 ,10.15049 
258 ,48.2349 ,1.12636 ,1.02765 ,10.08333 
259 ,48.4268 ,1.12816 ,1.02765 ,10.08333 
260 ,48.6034 ,1.13004 ,1.00712 ,9.88186 
261 ,48.7954 ,1.13187 ,0.99685 ,9.78113 
262 ,49.0031 ,1.13392 ,0.96605 ,9.47892 
263 ,49.1796 ,1.13579 ,0.95237 ,9.34461 
264 ,49.3556 ,1.13758 ,0.95237 ,9.34461 
265 ,49.5637 ,1.13958 ,0.92841 ,9.10956 
266 ,49.7398 ,1.14140 ,0.89761 ,8.80736 
267 ,49.9159 ,1.14313 ,0.91130 ,8.94167 
268 ,50.1080 ,1.14507 ,0.90103 ,8.84094 
269 ,50.3002 ,1.14699 ,0.87366 ,8.57231 
270 ,50.4922 ,1.14887 ,0.87708 ,8.60589 
271 ,50.6682 ,1.15073 ,0.86339 ,8.47158 
272 ,50.8601 ,1.15262 ,0.83601 ,8.20295 
273 ,51.0362 ,1.15430 ,0.83259 ,8.16937 
274 ,51.2123 ,1.15616 ,0.83601 ,8.20295 
275 ,51.3885 ,1.15790 ,0.81548 ,8.00148 
276 ,51.5805 ,1.15978 ,0.79837 ,7.83359 
277 ,51.7564 ,1.16157 ,0.78810 ,7.73285 
278 ,51.9488 ,1.16345 ,0.77099 ,7.56496 
279 ,52.1408 ,1.16530 ,0.75388 ,7.39707 
280 ,52.3329 ,1.16730 ,0.75730 ,7.43065 
281 ,52.5250 ,1.16924 ,0.73677 ,7.22918 
282 ,52.7166 ,1.17112 ,0.72992 ,7.16202 
283 ,52.8931 ,1.17295 ,0.71281 ,6.99413 
284 ,53.0850 ,1.17483 ,0.70255 ,6.89340 
285 ,53.2614 ,1.17661 ,0.67859 ,6.65835 
286 ,53.4533 ,1.17851 ,0.67859 ,6.65835 
287 ,53.6452 ,1.18036 ,0.64779 ,6.35614 
288 ,53.8208 ,1.18230 ,0.63753 ,6.25541 
289 ,53.9815 ,1.18387 ,0.62726 ,6.15467 
290 ,54.1575 ,1.18552 ,0.62042 ,6.08752 
291 ,54.3337 ,1.18734 ,0.62384 ,6.12109 
292 ,54.5255 ,1.18921 ,0.59646 ,5.85247 
293 ,54.7178 ,1.19114 ,0.58619 ,5.75173 
294 ,54.9095 ,1.19304 ,0.59304 ,5.81889 
295 ,55.0859 ,1.19485 ,0.57593 ,5.65100 
296 ,55.2620 ,1.19661 ,0.54855 ,5.38237 
297 ,55.4541 ,1.19855 ,0.54855 ,5.38237 
298 ,55.6461 ,1.20037 ,0.53144 ,5.21448 
299 ,55.8222 ,1.20221 ,0.51091 ,5.01301 
300 ,56.0303 ,1.20412 ,0.50064 ,4.91228 
301 ,56.2224 ,1.20620 ,0.49722 ,4.87870 
302 ,56.4144 ,1.20805 ,0.49722 ,4.87870 
303 ,56.6066 ,1.20993 ,0.47668 ,4.67723 
304 ,56.7826 ,1.21183 ,0.46642 ,4.57649 
305 ,56.9742 ,1.21359 ,0.45957 ,4.50934 
306 ,57.1671 ,1.21560 ,0.44588 ,4.37502 
307 ,57.3586 ,1.21757 ,0.42535 ,4.17355 
308 ,57.5350 ,1.21932 ,0.41166 ,4.03924 
309 ,57.7431 ,1.22134 ,0.40482 ,3.97208 
310 ,57.9351 ,1.22327 ,0.39797 ,3.90493 
311 ,58.1271 ,1.22528 ,0.37402 ,3.66988 
312 ,58.3031 ,1.22697 ,0.38086 ,3.73703 
313 ,58.4793 ,1.22871 ,0.36033 ,3.53557 
314 ,58.6713 ,1.23067 ,0.36375 ,3.56914 
315 ,58.8633 ,1.23260 ,0.33295 ,3.26694 
316 ,59.0396 ,1.23432 ,0.31584 ,3.09905 
317 ,59.2155 ,1.23611 ,0.31242 ,3.06547 
318 ,59.4076 ,1.23800 ,0.31926 ,3.13263 
319 ,59.5837 ,1.23975 ,0.28162 ,2.76326 
320 ,59.7596 ,1.24158 ,0.27478 ,2.69611 
321 ,59.9357 ,1.24332 ,0.26793 ,2.62895 
322 ,60.1440 ,1.24532 ,0.25082 ,2.46106 
323 ,60.3359 ,1.24723 ,0.23029 ,2.25959 
324 ,60.5442 ,1.24931 ,0.22344 ,2.19243 
325 ,60.7204 ,1.25118 ,0.20291 ,1.99096 
326 ,60.9123 ,1.25310 ,0.22344 ,2.19243 
327 ,61.0882 ,1.25484 ,0.20291 ,1.99096 
328 ,61.2641 ,1.25660 ,0.19264 ,1.89023 
329 ,61.4405 ,1.25838 ,0.16527 ,1.62160 
330 ,61.6487 ,1.26038 ,0.16869 ,1.65518 
331 ,61.8564 ,1.26237 ,0.16527 ,1.62160 
332 ,62.0648 ,1.26458 ,0.13789 ,1.35298 
333 ,62.2730 ,1.26667 ,0.13789 ,1.35298 
334 ,62.4489 ,1.26845 ,0.12078 ,1.18508 
335 ,62.6247 ,1.27019 ,0.10367 ,1.01719 
336 ,62.8009 ,1.27199 ,0.08656 ,0.84930 
337 ,62.9769 ,1.27380 ,0.09340 ,0.91646 
338 ,63.1532 ,1.27548 ,0.07629 ,0.74857 
339 ,63.3453 ,1.27736 ,0.05234 ,0.51352 
340 ,63.5053 ,1.27911 ,0.05234 ,0.51352 
341 ,63.6975 ,1.28086 ,0.03180 ,0.31205 
342 ,63.8896 ,1.28274 ,0.02496 ,0.24489 
343 ,64.1137 ,1.28492 ,0.01469 ,0.14416 
344 ,64.2898 ,1.28689 ,0.01469 ,0.14416 
345 ,64.4815 ,1.28877 ,-0.02295 ,-0.22520 
346 ,64.6580 ,1.29052 ,-0.02637 ,-0.25878 
347 ,64.8500 ,1.29240 ,-0.02295 ,-0.22520 
348 ,65.0420 ,1.29432 ,-0.04348 ,-0.42667 
349 ,65.2499 ,1.29628 ,-0.03664 ,-0.35952 
350 ,65.4422 ,1.29832 ,-0.07428 ,-0.72888 
351 ,65.6342 ,1.30026 ,-0.08113 ,-0.79604 
352 ,65.8260 ,1.30217 ,-0.09140 ,-0.89677 
353 ,66.0024 ,1.30396 ,-0.09482 ,-0.93035 
354 ,66.1946 ,1.30578 ,-0.09824 ,-0.96393 
355 ,66.4027 ,1.30798 ,-0.12219 ,-1.19898 
356 ,66.5942 ,1.30979 ,-0.11193 ,-1.09824 
357 ,66.7707 ,1.31164 ,-0.13246 ,-1.29971 
358 ,66.9627 ,1.31353 ,-0.16326 ,-1.60191 
359 ,67.1388 ,1.31531 ,-0.16668 ,-1.63549 
360 ,67.3149 ,1.31706 ,-0.15984 ,-1.56834 
361 ,67.5070 ,1.31896 ,-0.16326 ,-1.60191 
362 ,67.6827 ,1.32084 ,-0.19064 ,-1.87054 
363 ,67.8752 ,1.32262 ,-0.18722 ,-1.83696 
364 ,68.0671 ,1.32463 ,-0.22486 ,-2.20632 
365 ,68.2593 ,1.32651 ,-0.21117 ,-2.07201 
366 ,68.4513 ,1.32839 ,-0.21459 ,-2.10559 
367 ,68.6274 ,1.33017 ,-0.23513 ,-2.30706 
368 ,68.8030 ,1.33193 ,-0.25224 ,-2.47495 
369 ,68.9793 ,1.33375 ,-0.27277 ,-2.67642 
370 ,69.1714 ,1.33559 ,-0.26935 ,-2.64284 
371 ,69.3477 ,1.33737 ,-0.26593 ,-2.60926 
372 ,69.5398 ,1.33933 ,-0.29673 ,-2.91147 
373 ,69.7479 ,1.34126 ,-0.28646 ,-2.81073 
374 ,69.9238 ,1.34323 ,-0.31384 ,-3.07936 
375 ,70.1320 ,1.34508 ,-0.32752 ,-3.21367 
376 ,70.3240 ,1.34710 ,-0.32752 ,-3.21367 
377 ,70.5002 ,1.34894 ,-0.33779 ,-3.31441 
378 ,70.6921 ,1.35075 ,-0.33779 ,-3.31441 
379 ,70.8684 ,1.35258 ,-0.34464 ,-3.38156 
380 ,71.0601 ,1.35449 ,-0.35148 ,-3.44872 
381 ,71.2364 ,1.35627 ,-0.35832 ,-3.51588 
382 ,71.4123 ,1.35805 ,-0.36859 ,-3.61661 
383 ,71.5725 ,1.35975 ,-0.36859 ,-3.61661 
384 ,71.7487 ,1.36142 ,-0.37886 ,-3.71735 
385 ,71.9247 ,1.36316 ,-0.38570 ,-3.78450 
386 ,72.1168 ,1.36500 ,-0.41308 ,-4.05313 
387 ,72.3090 ,1.36703 ,-0.39255 ,-3.85166 
388 ,72.4850 ,1.36876 ,-0.42335 ,-4.15387 
389 ,72.6771 ,1.37067 ,-0.43703 ,-4.28818 
390 ,72.8531 ,1.37243 ,-0.44388 ,-4.35534 
391 ,73.0288 ,1.37423 ,-0.42677 ,-4.18744 
392 ,73.2212 ,1.37599 ,-0.45414 ,-4.45607 
393 ,73.4132 ,1.37805 ,-0.47126 ,-4.62396 
394 ,73.6054 ,1.37996 ,-0.47810 ,-4.69112 
395 ,73.7973 ,1.38188 ,-0.49521 ,-4.85901 
396 ,73.9743 ,1.38364 ,-0.49521 ,-4.85901 
397 ,74.1657 ,1.38555 ,-0.49521 ,-4.85901 
398 ,74.3417 ,1.38736 ,-0.52259 ,-5.12764 
399 ,74.5018 ,1.38904 ,-0.53285 ,-5.22837 
400 ,74.6780 ,1.39070 ,-0.54312 ,-5.32911 
401 ,74.8540 ,1.39251 ,-0.54312 ,-5.32911 
402 ,75.0297 ,1.39417 ,-0.53970 ,-5.29553 
403 ,75.1897 ,1.39589 ,-0.55339 ,-5.42984 
404 ,75.3659 ,1.39761 ,-0.54997 ,-5.39626 
405 ,75.5422 ,1.39927 ,-0.57392 ,-5.63131 
406 ,75.7342 ,1.40125 ,-0.58761 ,-5.76562 
407 ,75.9263 ,1.40312 ,-0.59445 ,-5.83278 
408 ,76.1021 ,1.40497 ,-0.61156 ,-6.00067 
409 ,76.2782 ,1.40666 ,-0.62525 ,-6.13499 
410 ,76.4542 ,1.40842 ,-0.62183 ,-6.10141 
411 ,76.6307 ,1.41023 ,-0.62183 ,-6.10141 
412 ,76.8228 ,1.41211 ,-0.63894 ,-6.26930 
413 ,77.0148 ,1.41392 ,-0.64579 ,-6.33646 
414 ,77.1910 ,1.41581 ,-0.64579 ,-6.33646 
415 ,77.3669 ,1.41769 ,-0.65947 ,-6.47077 
416 ,77.5431 ,1.41934 ,-0.66290 ,-6.50435 
417 ,77.7349 ,1.42126 ,-0.67659 ,-6.63866 
418 ,77.9112 ,1.42301 ,-0.68001 ,-6.67224 
419 ,78.1033 ,1.42491 ,-0.69027 ,-6.77297 
420 ,78.2793 ,1.42668 ,-0.70054 ,-6.87371 
421 ,78.4714 ,1.42858 ,-0.71423 ,-7.00802 
422 ,78.6475 ,1.43037 ,-0.70054 ,-6.87371 
423 ,78.8235 ,1.43219 ,-0.74503 ,-7.31023 
424 ,79.0155 ,1.43396 ,-0.74845 ,-7.34380 
425 ,79.1752 ,1.43574 ,-0.74161 ,-7.27665 
426 ,79.3514 ,1.43740 ,-0.75530 ,-7.41096 
427 ,79.5273 ,1.43918 ,-0.75872 ,-7.44454 
428 ,79.7035 ,1.44095 ,-0.78267 ,-7.67959 
429 ,79.8796 ,1.44267 ,-0.78610 ,-7.71317 
430 ,80.0717 ,1.44453 ,-0.77925 ,-7.64601 
431 ,80.2637 ,1.44646 ,-0.79636 ,-7.81390 
432 ,80.4396 ,1.44833 ,-0.81689 ,-8.01537 
433 ,80.6158 ,1.45006 ,-0.82374 ,-8.08253 
434 ,80.8080 ,1.45187 ,-0.82716 ,-8.11611 
435 ,81.0806 ,1.45448 ,-0.84769 ,-8.31758 
436 ,81.2723 ,1.45656 ,-0.84769 ,-8.31758 
437 ,81.4486 ,1.45842 ,-0.84769 ,-8.31758 
438 ,81.6402 ,1.46024 ,-0.87165 ,-8.55262 
439 ,81.8168 ,1.46206 ,-0.88876 ,-8.72051 
440 ,82.0090 ,1.46391 ,-0.86823 ,-8.51904 
441 ,82.1850 ,1.46575 ,-0.89560 ,-8.78767 
442 ,82.3610 ,1.46747 ,-0.89560 ,-8.78767 
443 ,82.5371 ,1.46925 ,-0.90929 ,-8.92198 
444 ,82.7129 ,1.47101 ,-0.91614 ,-8.98914 
445 ,82.9053 ,1.47290 ,-0.91272 ,-8.95556 
446 ,83.0810 ,1.47474 ,-0.92983 ,-9.12345 
447 ,83.2575 ,1.47649 ,-0.95036 ,-9.32492 
448 ,83.4495 ,1.47841 ,-0.93667 ,-9.19061 
449 ,83.6577 ,1.48041 ,-0.96405 ,-9.45924 
450 ,83.8331 ,1.48228 ,-0.95378 ,-9.35850 
451 ,84.0099 ,1.48398 ,-0.96405 ,-9.45924 
452 ,84.2019 ,1.48588 ,-0.97431 ,-9.55997 
453 ,84.3940 ,1.48777 ,-0.99143 ,-9.72786 
454 ,84.6020 ,1.48981 ,-0.99485 ,-9.76144 
455 ,84.7781 ,1.49162 ,-1.00854 ,-9.89576 
456 ,84.9700 ,1.49363 ,-1.00169 ,-9.82860 
457 ,85.1619 ,1.49545 ,-1.02565 ,-10.06365 
458 ,85.3383 ,1.49727 ,-1.02907 ,-10.09723 
459 ,85.5302 ,1.49913 ,-1.02222 ,-10.03007 
460 ,85.7224 ,1.50102 ,-1.03934 ,-10.19796 
461 ,85.9147 ,1.50296 ,-1.03249 ,-10.13080 
462 ,86.1063 ,1.50488 ,-1.03591 ,-10.16438 
