Data stamp = , 20-04-2022 08:41:03 330

Calibration Values: 
Slope = , 26.54 , g/V 
Offset Voltage at no contact = , -0.501760 , V 

No , Time , Stage Position ,   Mass , Force 
   ,  (s) ,      (mm)      ,   (g)  , (mN)  

1 ,0.0000 ,0.59935 ,5.37381 ,52.72778 
2 ,0.2322 ,0.59943 ,5.38407 ,52.82851 
3 ,0.6165 ,0.60054 ,5.38407 ,52.82851 
4 ,0.8084 ,0.60235 ,5.37038 ,52.69420 
5 ,0.9847 ,0.60397 ,5.38407 ,52.82851 
6 ,1.1771 ,0.60583 ,5.38407 ,52.82851 
7 ,1.3692 ,0.60770 ,5.37038 ,52.69420 
8 ,1.5451 ,0.60949 ,5.38065 ,52.79493 
9 ,1.7373 ,0.61146 ,5.35669 ,52.55988 
10 ,1.9133 ,0.61319 ,5.32589 ,52.25768 
11 ,2.1215 ,0.61516 ,5.33274 ,52.32484 
12 ,2.3294 ,0.61738 ,5.29167 ,51.92190 
13 ,2.5058 ,0.61920 ,5.27798 ,51.78758 
14 ,2.7137 ,0.62117 ,5.24376 ,51.45180 
15 ,2.8895 ,0.62305 ,5.22665 ,51.28391 
16 ,3.0661 ,0.62480 ,5.22323 ,51.25033 
17 ,3.2741 ,0.62681 ,5.17874 ,50.81381 
18 ,3.4822 ,0.62880 ,5.18901 ,50.91455 
19 ,3.6744 ,0.63077 ,5.13768 ,50.41087 
20 ,3.8663 ,0.63274 ,5.14452 ,50.47803 
21 ,4.0424 ,0.63458 ,5.12741 ,50.31014 
22 ,4.2184 ,0.63628 ,5.10345 ,50.07509 
23 ,4.3942 ,0.63800 ,5.07265 ,49.77289 
24 ,4.5705 ,0.63979 ,5.06581 ,49.70573 
25 ,4.7304 ,0.64151 ,5.04528 ,49.50426 
26 ,4.9226 ,0.64334 ,5.03843 ,49.43710 
27 ,5.1148 ,0.64516 ,4.99052 ,48.96701 
28 ,5.2748 ,0.64695 ,4.98368 ,48.89985 
29 ,5.4510 ,0.64861 ,4.96657 ,48.73196 
30 ,5.6271 ,0.65035 ,4.96657 ,48.73196 
31 ,5.8351 ,0.65240 ,4.91866 ,48.26186 
32 ,6.0112 ,0.65418 ,4.91866 ,48.26186 
33 ,6.2032 ,0.65609 ,4.91523 ,48.22828 
34 ,6.3794 ,0.65793 ,4.88786 ,47.95966 
35 ,6.5714 ,0.65972 ,4.87417 ,47.82534 
36 ,6.7475 ,0.66151 ,4.84337 ,47.52314 
37 ,6.9234 ,0.66336 ,4.83652 ,47.45598 
38 ,7.1316 ,0.66532 ,4.81257 ,47.22093 
39 ,7.3238 ,0.66724 ,4.79204 ,47.01946 
40 ,7.5156 ,0.66930 ,4.77835 ,46.88515 
41 ,7.6920 ,0.67103 ,4.75097 ,46.61653 
42 ,7.9000 ,0.67291 ,4.72702 ,46.38148 
43 ,8.0761 ,0.67489 ,4.71675 ,46.28074 
44 ,8.2678 ,0.67674 ,4.71333 ,46.24716 
45 ,8.4443 ,0.67854 ,4.68937 ,46.01212 
46 ,8.6362 ,0.68042 ,4.65857 ,45.70991 
47 ,8.8124 ,0.68215 ,4.64146 ,45.54202 
48 ,9.0044 ,0.68406 ,4.62435 ,45.37413 
49 ,9.1966 ,0.68601 ,4.61066 ,45.23981 
50 ,9.3721 ,0.68784 ,4.59697 ,45.10550 
51 ,9.5487 ,0.68958 ,4.57986 ,44.93761 
52 ,9.7405 ,0.69139 ,4.56960 ,44.83688 
53 ,9.9322 ,0.69334 ,4.54564 ,44.60183 
54 ,10.1087 ,0.69517 ,4.53537 ,44.50109 
55 ,10.3010 ,0.69712 ,4.51142 ,44.26604 
56 ,10.4929 ,0.69900 ,4.47378 ,43.89668 
57 ,10.6692 ,0.70076 ,4.47720 ,43.93026 
58 ,10.8613 ,0.70270 ,4.46009 ,43.76237 
59 ,11.0534 ,0.70455 ,4.43613 ,43.52732 
60 ,11.2294 ,0.70638 ,4.41218 ,43.29227 
61 ,11.4214 ,0.70828 ,4.41218 ,43.29227 
62 ,11.5815 ,0.70999 ,4.39164 ,43.09080 
63 ,11.7735 ,0.71172 ,4.37111 ,42.88933 
64 ,11.9497 ,0.71355 ,4.35400 ,42.72144 
65 ,12.1418 ,0.71547 ,4.33689 ,42.55355 
66 ,12.3336 ,0.71739 ,4.31293 ,42.31850 
67 ,12.5099 ,0.71913 ,4.29924 ,42.18419 
68 ,12.6859 ,0.72088 ,4.29924 ,42.18419 
69 ,12.8780 ,0.72280 ,4.26845 ,41.88198 
70 ,13.0701 ,0.72471 ,4.24791 ,41.68051 
71 ,13.2782 ,0.72680 ,4.24107 ,41.61336 
72 ,13.4541 ,0.72860 ,4.19658 ,41.17684 
73 ,13.6620 ,0.73051 ,4.20000 ,41.21042 
74 ,13.8385 ,0.73248 ,4.18289 ,41.04253 
75 ,14.0145 ,0.73429 ,4.16236 ,40.84106 
76 ,14.1906 ,0.73601 ,4.15209 ,40.74032 
77 ,14.3826 ,0.73784 ,4.11445 ,40.37096 
78 ,14.5589 ,0.73965 ,4.12471 ,40.47170 
79 ,14.7343 ,0.74140 ,4.08365 ,40.06876 
80 ,14.9268 ,0.74322 ,4.07338 ,39.96802 
81 ,15.1347 ,0.74535 ,4.05969 ,39.83371 
82 ,15.3111 ,0.74716 ,4.03916 ,39.63224 
83 ,15.5030 ,0.74907 ,4.03574 ,39.59866 
84 ,15.6793 ,0.75085 ,4.01178 ,39.36361 
85 ,15.8710 ,0.75283 ,3.99809 ,39.22930 
86 ,16.0636 ,0.75464 ,3.97414 ,38.99425 
87 ,16.2394 ,0.75644 ,3.95361 ,38.79278 
88 ,16.3994 ,0.75815 ,3.93650 ,38.62489 
89 ,16.5754 ,0.75978 ,3.92623 ,38.52415 
90 ,16.7512 ,0.76162 ,3.91938 ,38.45700 
91 ,16.9272 ,0.76334 ,3.90912 ,38.35626 
92 ,17.1033 ,0.76507 ,3.89885 ,38.25553 
93 ,17.2959 ,0.76691 ,3.86463 ,37.91975 
94 ,17.5198 ,0.76914 ,3.85779 ,37.85259 
95 ,17.7120 ,0.77115 ,3.82356 ,37.51681 
96 ,17.8882 ,0.77294 ,3.83041 ,37.58396 
97 ,18.0803 ,0.77481 ,3.79276 ,37.21460 
98 ,18.2723 ,0.77670 ,3.76539 ,36.94597 
99 ,18.4643 ,0.77860 ,3.76539 ,36.94597 
100 ,18.6406 ,0.78045 ,3.73459 ,36.64377 
101 ,18.8165 ,0.78226 ,3.71748 ,36.47588 
102 ,19.0242 ,0.78417 ,3.71748 ,36.47588 
103 ,19.2007 ,0.78606 ,3.69010 ,36.20725 
104 ,19.3765 ,0.78781 ,3.66957 ,36.00578 
105 ,19.5846 ,0.78972 ,3.67299 ,36.03936 
106 ,19.7608 ,0.79161 ,3.64219 ,35.73716 
107 ,19.9368 ,0.79336 ,3.62850 ,35.60284 
108 ,20.1130 ,0.79516 ,3.60112 ,35.33422 
109 ,20.2891 ,0.79689 ,3.61481 ,35.46853 
110 ,20.4652 ,0.79868 ,3.59086 ,35.23348 
111 ,20.6734 ,0.80072 ,3.57375 ,35.06559 
112 ,20.8812 ,0.80276 ,3.53952 ,34.72981 
113 ,21.0575 ,0.80460 ,3.51899 ,34.52834 
114 ,21.2334 ,0.80641 ,3.52926 ,34.62907 
115 ,21.4254 ,0.80817 ,3.49846 ,34.32687 
116 ,21.6017 ,0.81004 ,3.48819 ,34.22613 
117 ,21.7938 ,0.81193 ,3.47450 ,34.09182 
118 ,21.9697 ,0.81374 ,3.45397 ,33.89035 
119 ,22.1461 ,0.81549 ,3.44713 ,33.82319 
120 ,22.3380 ,0.81731 ,3.41290 ,33.48741 
121 ,22.5300 ,0.81937 ,3.40606 ,33.42025 
122 ,22.7061 ,0.82111 ,3.38210 ,33.18520 
123 ,22.8821 ,0.82279 ,3.36499 ,33.01731 
124 ,23.0582 ,0.82460 ,3.35130 ,32.88300 
125 ,23.2342 ,0.82633 ,3.35130 ,32.88300 
126 ,23.4101 ,0.82813 ,3.33419 ,32.71511 
127 ,23.5864 ,0.82990 ,3.32735 ,32.64795 
128 ,23.7628 ,0.83162 ,3.28971 ,32.27859 
129 ,23.9548 ,0.83352 ,3.28628 ,32.24501 
130 ,24.1468 ,0.83550 ,3.28286 ,32.21143 
131 ,24.3385 ,0.83735 ,3.23495 ,31.74134 
132 ,24.5150 ,0.83919 ,3.23495 ,31.74134 
133 ,24.7069 ,0.84102 ,3.22811 ,31.67418 
134 ,24.8831 ,0.84283 ,3.19046 ,31.30482 
135 ,25.0752 ,0.84470 ,3.19731 ,31.37198 
136 ,25.2674 ,0.84667 ,3.16309 ,31.03619 
137 ,25.4429 ,0.84843 ,3.15282 ,30.93546 
138 ,25.6194 ,0.85022 ,3.12202 ,30.63325 
139 ,25.8112 ,0.85206 ,3.12202 ,30.63325 
140 ,25.9716 ,0.85382 ,3.10833 ,30.49894 
141 ,26.1639 ,0.85567 ,3.09122 ,30.33105 
142 ,26.3556 ,0.85747 ,3.08095 ,30.23031 
143 ,26.5313 ,0.85942 ,3.07069 ,30.12958 
144 ,26.7076 ,0.86107 ,3.05358 ,29.96169 
145 ,26.9000 ,0.86300 ,3.01935 ,29.62590 
146 ,27.0918 ,0.86487 ,3.02278 ,29.65948 
147 ,27.3001 ,0.86682 ,2.97829 ,29.22297 
148 ,27.4920 ,0.86888 ,2.98855 ,29.32370 
149 ,27.7002 ,0.87099 ,2.94407 ,28.88718 
150 ,27.8922 ,0.87293 ,2.95433 ,28.98792 
151 ,28.0683 ,0.87468 ,2.94749 ,28.92076 
152 ,28.2443 ,0.87641 ,2.90985 ,28.55140 
153 ,28.4364 ,0.87828 ,2.89273 ,28.38351 
154 ,28.6442 ,0.88042 ,2.87220 ,28.18204 
155 ,28.8207 ,0.88221 ,2.85167 ,27.98057 
156 ,29.0286 ,0.88418 ,2.84482 ,27.91341 
157 ,29.2046 ,0.88603 ,2.82429 ,27.71194 
158 ,29.3807 ,0.88783 ,2.80376 ,27.51047 
159 ,29.5730 ,0.88974 ,2.79691 ,27.44332 
160 ,29.7648 ,0.89156 ,2.78665 ,27.34258 
161 ,29.9412 ,0.89338 ,2.76269 ,27.10753 
162 ,30.1331 ,0.89533 ,2.76611 ,27.14111 
163 ,30.3414 ,0.89726 ,2.73874 ,26.87248 
164 ,30.5494 ,0.89931 ,2.71136 ,26.60386 
165 ,30.7416 ,0.90135 ,2.69425 ,26.43597 
166 ,30.9652 ,0.90364 ,2.68056 ,26.30165 
167 ,31.1417 ,0.90540 ,2.66003 ,26.10018 
168 ,31.3495 ,0.90742 ,2.64634 ,25.96587 
169 ,31.5419 ,0.90931 ,2.61212 ,25.63009 
170 ,31.7179 ,0.91116 ,2.62238 ,25.73082 
171 ,31.8936 ,0.91298 ,2.59158 ,25.42862 
172 ,32.0860 ,0.91476 ,2.59501 ,25.46220 
173 ,32.2782 ,0.91677 ,2.56421 ,25.15999 
174 ,32.4542 ,0.91855 ,2.56078 ,25.12641 
175 ,32.6303 ,0.92029 ,2.55736 ,25.09283 
176 ,32.8064 ,0.92211 ,2.52656 ,24.79063 
177 ,32.9981 ,0.92392 ,2.52656 ,24.79063 
178 ,33.1906 ,0.92582 ,2.50261 ,24.55558 
179 ,33.3826 ,0.92779 ,2.46839 ,24.21980 
180 ,33.5589 ,0.92959 ,2.45812 ,24.11906 
181 ,33.7508 ,0.93142 ,2.45127 ,24.05191 
182 ,33.9423 ,0.93342 ,2.42048 ,23.74970 
183 ,34.1347 ,0.93527 ,2.42048 ,23.74970 
184 ,34.3268 ,0.93712 ,2.40336 ,23.58181 
185 ,34.5190 ,0.93919 ,2.37256 ,23.27961 
186 ,34.6949 ,0.94095 ,2.37941 ,23.34676 
187 ,34.8873 ,0.94276 ,2.34519 ,23.01098 
188 ,35.0793 ,0.94477 ,2.33150 ,22.87667 
189 ,35.2550 ,0.94652 ,2.33492 ,22.91024 
190 ,35.4310 ,0.94829 ,2.30754 ,22.64162 
191 ,35.6230 ,0.95011 ,2.29043 ,22.47373 
192 ,35.7991 ,0.95196 ,2.27332 ,22.30584 
193 ,35.9915 ,0.95384 ,2.26306 ,22.20510 
194 ,36.1995 ,0.95594 ,2.24937 ,22.07079 
195 ,36.4079 ,0.95795 ,2.21857 ,21.76858 
196 ,36.6000 ,0.96000 ,2.22199 ,21.80216 
197 ,36.7921 ,0.96190 ,2.20146 ,21.60069 
198 ,36.9998 ,0.96378 ,2.18092 ,21.39922 
199 ,37.1922 ,0.96586 ,2.18777 ,21.46638 
200 ,37.4002 ,0.96793 ,2.14670 ,21.06344 
201 ,37.5923 ,0.96981 ,2.12959 ,20.89555 
202 ,37.7686 ,0.97165 ,2.10906 ,20.69408 
203 ,37.9604 ,0.97356 ,2.08168 ,20.42545 
204 ,38.1366 ,0.97535 ,2.08168 ,20.42545 
205 ,38.3123 ,0.97713 ,2.07484 ,20.35829 
206 ,38.4887 ,0.97884 ,2.05430 ,20.15682 
207 ,38.6807 ,0.98073 ,2.04746 ,20.08967 
208 ,38.8569 ,0.98254 ,2.02693 ,19.88820 
209 ,39.0329 ,0.98426 ,2.02008 ,19.82104 
210 ,39.2091 ,0.98605 ,2.00297 ,19.65315 
211 ,39.4010 ,0.98795 ,1.98244 ,19.45168 
212 ,39.5772 ,0.98971 ,1.97217 ,19.35094 
213 ,39.7693 ,0.99158 ,1.94479 ,19.08232 
214 ,39.9452 ,0.99341 ,1.93111 ,18.94801 
215 ,40.1697 ,0.99548 ,1.93453 ,18.98158 
216 ,40.3775 ,0.99768 ,1.91742 ,18.81369 
217 ,40.5372 ,0.99943 ,1.90031 ,18.64580 
218 ,40.7136 ,1.00106 ,1.88319 ,18.47791 
219 ,40.9217 ,1.00312 ,1.84897 ,18.14213 
220 ,41.0818 ,1.00488 ,1.84897 ,18.14213 
221 ,41.2581 ,1.00652 ,1.82844 ,17.94066 
222 ,41.4340 ,1.00828 ,1.82502 ,17.90708 
223 ,41.6418 ,1.01029 ,1.81133 ,17.77276 
224 ,41.8181 ,1.01210 ,1.80106 ,17.67203 
225 ,42.0102 ,1.01399 ,1.76684 ,17.33625 
226 ,42.1863 ,1.01580 ,1.75315 ,17.20193 
227 ,42.3784 ,1.01775 ,1.75315 ,17.20193 
228 ,42.5706 ,1.01956 ,1.71893 ,16.86615 
229 ,42.7465 ,1.02138 ,1.70866 ,16.76542 
230 ,42.9383 ,1.02331 ,1.70182 ,16.69826 
231 ,43.1306 ,1.02514 ,1.69155 ,16.59752 
232 ,43.3388 ,1.02727 ,1.68471 ,16.53037 
233 ,43.5308 ,1.02914 ,1.67102 ,16.39605 
234 ,43.7226 ,1.03113 ,1.63338 ,16.02669 
235 ,43.9151 ,1.03301 ,1.62995 ,15.99311 
236 ,44.1231 ,1.03517 ,1.61627 ,15.85880 
237 ,44.2993 ,1.03696 ,1.59231 ,15.62375 
238 ,44.5233 ,1.03908 ,1.58547 ,15.55660 
239 ,44.7311 ,1.04113 ,1.56493 ,15.35513 
240 ,44.9234 ,1.04314 ,1.54098 ,15.12008 
241 ,45.1151 ,1.04510 ,1.55809 ,15.28797 
242 ,45.2915 ,1.04683 ,1.52729 ,14.98577 
243 ,45.4677 ,1.04862 ,1.51018 ,14.81787 
244 ,45.6435 ,1.05037 ,1.49649 ,14.68356 
245 ,45.8198 ,1.05215 ,1.48280 ,14.54925 
246 ,46.0118 ,1.05397 ,1.47938 ,14.51567 
247 ,46.2040 ,1.05591 ,1.45200 ,14.24704 
248 ,46.3800 ,1.05778 ,1.45200 ,14.24704 
249 ,46.5720 ,1.05950 ,1.45200 ,14.24704 
250 ,46.7643 ,1.06149 ,1.42462 ,13.97842 
251 ,46.9399 ,1.06333 ,1.40751 ,13.81053 
252 ,47.1322 ,1.06521 ,1.39725 ,13.70979 
253 ,47.3244 ,1.06716 ,1.37671 ,13.50832 
254 ,47.5324 ,1.06910 ,1.35618 ,13.30685 
255 ,47.7243 ,1.07116 ,1.35276 ,13.27327 
256 ,47.9006 ,1.07292 ,1.34934 ,13.23969 
257 ,48.0764 ,1.07467 ,1.32196 ,12.97107 
258 ,48.2529 ,1.07643 ,1.32196 ,12.97107 
259 ,48.4448 ,1.07829 ,1.30143 ,12.76960 
260 ,48.6210 ,1.08012 ,1.29800 ,12.73602 
261 ,48.8131 ,1.08200 ,1.27063 ,12.46739 
262 ,49.0051 ,1.08394 ,1.26720 ,12.43381 
263 ,49.1811 ,1.08585 ,1.25352 ,12.29950 
264 ,49.3733 ,1.08760 ,1.24325 ,12.19877 
265 ,49.5815 ,1.08954 ,1.22614 ,12.03088 
266 ,49.7894 ,1.09175 ,1.20561 ,11.82941 
267 ,49.9655 ,1.09355 ,1.18850 ,11.66151 
268 ,50.1416 ,1.09530 ,1.18507 ,11.62794 
269 ,50.3334 ,1.09718 ,1.17823 ,11.56078 
270 ,50.5095 ,1.09904 ,1.15085 ,11.29215 
271 ,50.7019 ,1.10095 ,1.13716 ,11.15784 
272 ,50.8939 ,1.10286 ,1.13716 ,11.15784 
273 ,51.0701 ,1.10459 ,1.12690 ,11.05710 
274 ,51.2617 ,1.10653 ,1.10294 ,10.82206 
275 ,51.4543 ,1.10844 ,1.10636 ,10.85563 
276 ,51.6622 ,1.11045 ,1.09267 ,10.72132 
277 ,51.8383 ,1.11233 ,1.06872 ,10.48627 
278 ,52.0305 ,1.11423 ,1.05503 ,10.35196 
279 ,52.2225 ,1.11612 ,1.05503 ,10.35196 
280 ,52.4306 ,1.11813 ,1.02423 ,10.04976 
281 ,52.6067 ,1.11996 ,1.01054 ,9.91544 
282 ,52.7828 ,1.12175 ,0.99343 ,9.74755 
283 ,52.9747 ,1.12360 ,0.99343 ,9.74755 
284 ,53.1668 ,1.12552 ,0.96948 ,9.51250 
285 ,53.3429 ,1.12729 ,0.96605 ,9.47892 
286 ,53.5029 ,1.12905 ,0.95921 ,9.41177 
287 ,53.7110 ,1.13086 ,0.93868 ,9.21030 
288 ,53.9028 ,1.13286 ,0.92841 ,9.10956 
289 ,54.0788 ,1.13469 ,0.91130 ,8.94167 
290 ,54.2713 ,1.13649 ,0.90788 ,8.90809 
291 ,54.4631 ,1.13847 ,0.89761 ,8.80736 
292 ,54.6395 ,1.14029 ,0.87366 ,8.57231 
293 ,54.8316 ,1.14221 ,0.87366 ,8.57231 
294 ,55.0236 ,1.14408 ,0.85654 ,8.40442 
295 ,55.2157 ,1.14597 ,0.83601 ,8.20295 
296 ,55.3918 ,1.14783 ,0.83259 ,8.16937 
297 ,55.5835 ,1.14965 ,0.82575 ,8.10221 
298 ,55.7601 ,1.15151 ,0.82575 ,8.10221 
299 ,55.9359 ,1.15338 ,0.79837 ,7.83359 
300 ,56.1279 ,1.15508 ,0.79152 ,7.76643 
301 ,56.3361 ,1.15710 ,0.79152 ,7.76643 
302 ,56.5440 ,1.15917 ,0.75730 ,7.43065 
303 ,56.7199 ,1.16106 ,0.75388 ,7.39707 
304 ,56.8799 ,1.16279 ,0.76072 ,7.46423 
305 ,57.0562 ,1.16446 ,0.74704 ,7.32991 
306 ,57.2486 ,1.16631 ,0.69228 ,6.79266 
307 ,57.4406 ,1.16825 ,0.71966 ,7.06129 
308 ,57.6325 ,1.17018 ,0.69570 ,6.82624 
309 ,57.8087 ,1.17196 ,0.67175 ,6.59119 
310 ,58.0168 ,1.17399 ,0.68886 ,6.75908 
311 ,58.1928 ,1.17582 ,0.66490 ,6.52403 
312 ,58.3851 ,1.17763 ,0.65121 ,6.38972 
313 ,58.5770 ,1.17961 ,0.64437 ,6.32256 
314 ,58.7527 ,1.18138 ,0.62042 ,6.08752 
315 ,58.9451 ,1.18324 ,0.62042 ,6.08752 
316 ,59.1370 ,1.18520 ,0.59304 ,5.81889 
317 ,59.3132 ,1.18709 ,0.58962 ,5.78531 
318 ,59.5211 ,1.18890 ,0.57251 ,5.61742 
319 ,59.7294 ,1.19116 ,0.56224 ,5.51668 
320 ,59.9052 ,1.19297 ,0.56224 ,5.51668 
321 ,60.0815 ,1.19469 ,0.54855 ,5.38237 
322 ,60.2578 ,1.19648 ,0.54171 ,5.31522 
323 ,60.4338 ,1.19821 ,0.52117 ,5.11375 
324 ,60.6417 ,1.20018 ,0.52117 ,5.11375 
325 ,60.8179 ,1.20205 ,0.50064 ,4.91228 
326 ,60.9940 ,1.20380 ,0.48695 ,4.77796 
327 ,61.1700 ,1.20556 ,0.46300 ,4.54291 
328 ,61.3459 ,1.20731 ,0.45615 ,4.47576 
329 ,61.5382 ,1.20919 ,0.46300 ,4.54291 
330 ,61.7301 ,1.21116 ,0.44246 ,4.34144 
331 ,61.9063 ,1.21292 ,0.42193 ,4.13997 
332 ,62.1143 ,1.21493 ,0.43220 ,4.24071 
333 ,62.2904 ,1.21675 ,0.40482 ,3.97208 
334 ,62.4666 ,1.21852 ,0.38771 ,3.80419 
335 ,62.6586 ,1.22046 ,0.39113 ,3.83777 
336 ,62.8508 ,1.22225 ,0.37744 ,3.70346 
337 ,63.0424 ,1.22425 ,0.36718 ,3.60272 
338 ,63.2188 ,1.22607 ,0.35691 ,3.50199 
339 ,63.4269 ,1.22805 ,0.33980 ,3.33410 
340 ,63.6030 ,1.22991 ,0.31584 ,3.09905 
341 ,63.7946 ,1.23177 ,0.31584 ,3.09905 
342 ,63.9710 ,1.23357 ,0.28162 ,2.76326 
343 ,64.1787 ,1.23561 ,0.30558 ,2.99831 
344 ,64.3550 ,1.23742 ,0.28504 ,2.79684 
345 ,64.5311 ,1.23921 ,0.27135 ,2.66253 
346 ,64.7234 ,1.24104 ,0.27135 ,2.66253 
347 ,64.8993 ,1.24289 ,0.25767 ,2.52822 
348 ,65.1076 ,1.24483 ,0.23371 ,2.29317 
349 ,65.2836 ,1.24666 ,0.21660 ,2.12528 
350 ,65.4598 ,1.24844 ,0.22687 ,2.22601 
351 ,65.6358 ,1.25025 ,0.21318 ,2.09170 
352 ,65.8279 ,1.25210 ,0.19264 ,1.89023 
353 ,66.0039 ,1.25388 ,0.19949 ,1.95738 
354 ,66.1800 ,1.25564 ,0.17896 ,1.75592 
355 ,66.3400 ,1.25735 ,0.18238 ,1.78949 
356 ,66.5160 ,1.25898 ,0.16869 ,1.65518 
357 ,66.6923 ,1.26076 ,0.13789 ,1.35298 
358 ,66.8840 ,1.26267 ,0.13447 ,1.31940 
359 ,67.0601 ,1.26446 ,0.14131 ,1.38655 
360 ,67.2524 ,1.26632 ,0.10709 ,1.05077 
361 ,67.4445 ,1.26819 ,0.10025 ,0.98361 
362 ,67.6364 ,1.27017 ,0.09682 ,0.95004 
363 ,67.8287 ,1.27213 ,0.06260 ,0.61425 
364 ,68.0207 ,1.27393 ,0.06945 ,0.68141 
365 ,68.2129 ,1.27594 ,0.05576 ,0.54710 
366 ,68.4206 ,1.27797 ,0.06602 ,0.64783 
367 ,68.5971 ,1.27987 ,0.05234 ,0.51352 
368 ,68.7728 ,1.28167 ,0.02154 ,0.21131 
369 ,68.9491 ,1.28332 ,0.01469 ,0.14416 
370 ,69.1573 ,1.28535 ,0.00443 ,0.04342 
371 ,69.3653 ,1.28733 ,-0.00584 ,-0.05731 
372 ,69.5410 ,1.28924 ,-0.00584 ,-0.05731 
373 ,69.7175 ,1.29104 ,-0.00926 ,-0.09089 
374 ,69.9095 ,1.29294 ,-0.04006 ,-0.39310 
375 ,70.1016 ,1.29479 ,-0.03322 ,-0.32594 
376 ,70.2777 ,1.29658 ,-0.04006 ,-0.39310 
377 ,70.4538 ,1.29836 ,-0.07086 ,-0.69530 
378 ,70.6293 ,1.30014 ,-0.08113 ,-0.79604 
379 ,70.8059 ,1.30189 ,-0.09140 ,-0.89677 
380 ,71.0139 ,1.30390 ,-0.09482 ,-0.93035 
381 ,71.1901 ,1.30572 ,-0.11193 ,-1.09824 
382 ,71.3821 ,1.30766 ,-0.09824 ,-0.96393 
383 ,71.5741 ,1.30956 ,-0.12219 ,-1.19898 
384 ,71.7503 ,1.31132 ,-0.13246 ,-1.29971 
385 ,71.9586 ,1.31339 ,-0.13588 ,-1.33329 
386 ,72.1503 ,1.31531 ,-0.15642 ,-1.53476 
387 ,72.3264 ,1.31705 ,-0.17353 ,-1.70265 
388 ,72.5026 ,1.31884 ,-0.17695 ,-1.73623 
389 ,72.6787 ,1.32063 ,-0.17353 ,-1.70265 
390 ,72.8868 ,1.32266 ,-0.19406 ,-1.90412 
391 ,73.0628 ,1.32454 ,-0.19064 ,-1.87054 
392 ,73.2708 ,1.32638 ,-0.22828 ,-2.23990 
393 ,73.4469 ,1.32826 ,-0.22144 ,-2.17275 
394 ,73.6391 ,1.33021 ,-0.22828 ,-2.23990 
395 ,73.8307 ,1.33213 ,-0.24539 ,-2.40779 
396 ,74.0072 ,1.33393 ,-0.25224 ,-2.47495 
397 ,74.1992 ,1.33584 ,-0.24881 ,-2.44137 
398 ,74.3751 ,1.33756 ,-0.26593 ,-2.60926 
399 ,74.5514 ,1.33932 ,-0.28988 ,-2.84431 
400 ,74.7272 ,1.34113 ,-0.30699 ,-3.01220 
401 ,74.9191 ,1.34301 ,-0.28988 ,-2.84431 
402 ,75.0956 ,1.34481 ,-0.30699 ,-3.01220 
403 ,75.2877 ,1.34672 ,-0.33095 ,-3.24725 
404 ,75.4637 ,1.34847 ,-0.33437 ,-3.28083 
405 ,75.6399 ,1.35021 ,-0.33095 ,-3.24725 
406 ,75.8159 ,1.35193 ,-0.33779 ,-3.31441 
407 ,75.9915 ,1.35387 ,-0.36859 ,-3.61661 
408 ,76.1681 ,1.35548 ,-0.37544 ,-3.68377 
409 ,76.3760 ,1.35747 ,-0.38570 ,-3.78450 
410 ,76.5682 ,1.35951 ,-0.40281 ,-3.95240 
411 ,76.7443 ,1.36123 ,-0.40281 ,-3.95240 
412 ,76.9363 ,1.36315 ,-0.39939 ,-3.91882 
413 ,77.1124 ,1.36490 ,-0.40966 ,-4.01955 
414 ,77.2880 ,1.36669 ,-0.43019 ,-4.22102 
415 ,77.4640 ,1.36841 ,-0.42335 ,-4.15387 
416 ,77.6403 ,1.37023 ,-0.43361 ,-4.25460 
417 ,77.8488 ,1.37226 ,-0.45072 ,-4.42249 
418 ,78.0406 ,1.37421 ,-0.44730 ,-4.38891 
419 ,78.2324 ,1.37606 ,-0.48494 ,-4.75828 
420 ,78.4088 ,1.37784 ,-0.48494 ,-4.75828 
421 ,78.5850 ,1.37966 ,-0.49179 ,-4.82543 
422 ,78.7770 ,1.38147 ,-0.48494 ,-4.75828 
423 ,78.9694 ,1.38338 ,-0.51232 ,-5.02690 
424 ,79.1609 ,1.38535 ,-0.52943 ,-5.19479 
425 ,79.3374 ,1.38717 ,-0.51574 ,-5.06048 
426 ,79.5133 ,1.38893 ,-0.52259 ,-5.12764 
427 ,79.6895 ,1.39071 ,-0.54312 ,-5.32911 
428 ,79.8813 ,1.39255 ,-0.54654 ,-5.36268 
429 ,80.0577 ,1.39439 ,-0.56023 ,-5.49700 
430 ,80.2493 ,1.39629 ,-0.57734 ,-5.66489 
431 ,80.4258 ,1.39809 ,-0.57734 ,-5.66489 
432 ,80.6179 ,1.39990 ,-0.58761 ,-5.76562 
433 ,80.8100 ,1.40180 ,-0.60472 ,-5.93352 
434 ,81.0021 ,1.40380 ,-0.59788 ,-5.86636 
435 ,81.2102 ,1.40573 ,-0.62525 ,-6.13499 
436 ,81.4021 ,1.40785 ,-0.62183 ,-6.10141 
437 ,81.5783 ,1.40959 ,-0.62183 ,-6.10141 
438 ,81.7863 ,1.41158 ,-0.63552 ,-6.23572 
439 ,81.9624 ,1.41341 ,-0.63552 ,-6.23572 
440 ,82.1383 ,1.41517 ,-0.64236 ,-6.30288 
441 ,82.3305 ,1.41701 ,-0.66974 ,-6.57150 
442 ,82.5066 ,1.41887 ,-0.67659 ,-6.63866 
443 ,82.7308 ,1.42091 ,-0.68343 ,-6.70582 
444 ,82.9067 ,1.42287 ,-0.69712 ,-6.84013 
445 ,83.1148 ,1.42486 ,-0.70739 ,-6.94086 
446 ,83.2909 ,1.42670 ,-0.71081 ,-6.97444 
447 ,83.4666 ,1.42840 ,-0.71765 ,-7.04160 
448 ,83.6431 ,1.43021 ,-0.71423 ,-7.00802 
449 ,83.8349 ,1.43219 ,-0.74503 ,-7.31023 
450 ,84.0113 ,1.43393 ,-0.73818 ,-7.24307 
451 ,84.2030 ,1.43579 ,-0.73134 ,-7.17591 
452 ,84.3949 ,1.43769 ,-0.75530 ,-7.41096 
453 ,84.5710 ,1.43947 ,-0.77241 ,-7.57885 
454 ,84.7476 ,1.44125 ,-0.78267 ,-7.67959 
455 ,84.9397 ,1.44314 ,-0.77241 ,-7.57885 
456 ,85.1474 ,1.44515 ,-0.78267 ,-7.67959 
457 ,85.3398 ,1.44715 ,-0.79294 ,-7.78032 
458 ,85.5158 ,1.44891 ,-0.81689 ,-8.01537 
459 ,85.6919 ,1.45071 ,-0.81689 ,-8.01537 
460 ,85.8841 ,1.45259 ,-0.82032 ,-8.04895 
461 ,86.0760 ,1.45442 ,-0.85112 ,-8.35115 
462 ,86.2522 ,1.45626 ,-0.85112 ,-8.35115 
463 ,86.4442 ,1.45817 ,-0.83743 ,-8.21684 
