Data stamp = , 19-04-2022 21:42:38 554

Calibration Values: 
Slope = , 26.54 , g/V 
Offset Voltage at no contact = , -0.501760 , V 

No , Time , Stage Position ,   Mass , Force 
   ,  (s) ,      (mm)      ,   (g)  , (mN)  

1 ,0.0000 ,0.59943 ,5.38407 ,52.82851 
2 ,0.2099 ,0.59951 ,5.38749 ,52.86209 
3 ,0.4502 ,0.60012 ,5.37723 ,52.76135 
4 ,0.6580 ,0.60131 ,5.37723 ,52.76135 
5 ,0.8503 ,0.60279 ,5.39092 ,52.89567 
6 ,1.0261 ,0.60446 ,5.38749 ,52.86209 
7 ,1.2026 ,0.60620 ,5.39092 ,52.89567 
8 ,1.3786 ,0.60793 ,5.38065 ,52.79493 
9 ,1.5706 ,0.60980 ,5.38749 ,52.86209 
10 ,1.7468 ,0.61166 ,5.39434 ,52.92925 
11 ,1.9385 ,0.61362 ,5.36354 ,52.62704 
12 ,2.1147 ,0.61535 ,5.34985 ,52.49273 
13 ,2.2909 ,0.61713 ,5.34301 ,52.42557 
14 ,2.4831 ,0.61907 ,5.31563 ,52.15694 
15 ,2.6751 ,0.62086 ,5.29852 ,51.98905 
16 ,2.8511 ,0.62278 ,5.29510 ,51.95548 
17 ,3.0272 ,0.62458 ,5.26087 ,51.61969 
18 ,3.2031 ,0.62631 ,5.23350 ,51.35107 
19 ,3.3794 ,0.62802 ,5.23007 ,51.31749 
20 ,3.5714 ,0.62981 ,5.21296 ,51.14960 
21 ,3.7796 ,0.63192 ,5.18901 ,50.91455 
22 ,3.9716 ,0.63392 ,5.17190 ,50.74666 
23 ,4.1475 ,0.63568 ,5.18216 ,50.84739 
24 ,4.3235 ,0.63755 ,5.15479 ,50.57876 
25 ,4.4999 ,0.63920 ,5.12741 ,50.31014 
26 ,4.6918 ,0.64105 ,5.12399 ,50.27656 
27 ,4.9001 ,0.64309 ,5.11030 ,50.14225 
28 ,5.0919 ,0.64503 ,5.07950 ,49.84004 
29 ,5.2840 ,0.64704 ,5.07608 ,49.80646 
30 ,5.4759 ,0.64895 ,5.02474 ,49.30279 
31 ,5.6685 ,0.65087 ,5.02817 ,49.33637 
32 ,5.8601 ,0.65274 ,4.99737 ,49.03416 
33 ,6.0525 ,0.65459 ,4.98026 ,48.86627 
34 ,6.2445 ,0.65659 ,4.96657 ,48.73196 
35 ,6.4367 ,0.65845 ,4.94946 ,48.56407 
36 ,6.6127 ,0.66033 ,4.91523 ,48.22828 
37 ,6.8048 ,0.66223 ,4.92208 ,48.29544 
38 ,6.9809 ,0.66399 ,4.89128 ,47.99324 
39 ,7.1731 ,0.66583 ,4.86732 ,47.75819 
40 ,7.3650 ,0.66778 ,4.87759 ,47.85892 
41 ,7.5251 ,0.66954 ,4.84679 ,47.55672 
42 ,7.7011 ,0.67120 ,4.83995 ,47.48956 
43 ,7.8770 ,0.67292 ,4.81257 ,47.22093 
44 ,8.0534 ,0.67476 ,4.79204 ,47.01946 
45 ,8.2454 ,0.67657 ,4.78177 ,46.91873 
46 ,8.4374 ,0.67857 ,4.75782 ,46.68368 
47 ,8.6136 ,0.68034 ,4.74755 ,46.58295 
48 ,8.8055 ,0.68221 ,4.74413 ,46.54937 
49 ,8.9816 ,0.68397 ,4.70990 ,46.21359 
50 ,9.1578 ,0.68577 ,4.69622 ,46.07927 
51 ,9.3335 ,0.68753 ,4.67568 ,45.87780 
52 ,9.5259 ,0.68945 ,4.66884 ,45.81065 
53 ,9.7339 ,0.69142 ,4.63462 ,45.47486 
54 ,9.9417 ,0.69362 ,4.62093 ,45.34055 
55 ,10.1179 ,0.69533 ,4.60040 ,45.13908 
56 ,10.2943 ,0.69712 ,4.57986 ,44.93761 
57 ,10.4861 ,0.69906 ,4.57644 ,44.90403 
58 ,10.6622 ,0.70082 ,4.56960 ,44.83688 
59 ,10.8382 ,0.70256 ,4.53880 ,44.53467 
60 ,11.0146 ,0.70432 ,4.51484 ,44.29962 
61 ,11.1904 ,0.70608 ,4.49773 ,44.13173 
62 ,11.3670 ,0.70785 ,4.49089 ,44.06457 
63 ,11.5589 ,0.70973 ,4.46693 ,43.82953 
64 ,11.7504 ,0.71161 ,4.45666 ,43.72879 
65 ,11.9430 ,0.71347 ,4.43613 ,43.52732 
66 ,12.1348 ,0.71549 ,4.40875 ,43.25870 
67 ,12.3111 ,0.71732 ,4.39164 ,43.09080 
68 ,12.5188 ,0.71929 ,4.37111 ,42.88933 
69 ,12.7112 ,0.72124 ,4.34373 ,42.62071 
70 ,12.8873 ,0.72315 ,4.33347 ,42.51997 
71 ,13.0792 ,0.72490 ,4.32320 ,42.41924 
72 ,13.2554 ,0.72675 ,4.31293 ,42.31850 
73 ,13.4316 ,0.72850 ,4.28213 ,42.01630 
74 ,13.6557 ,0.73054 ,4.27187 ,41.91556 
75 ,13.8314 ,0.73254 ,4.24791 ,41.68051 
76 ,14.0076 ,0.73424 ,4.24107 ,41.61336 
77 ,14.1998 ,0.73612 ,4.22396 ,41.44547 
78 ,14.3921 ,0.73799 ,4.20000 ,41.21042 
79 ,14.5840 ,0.73997 ,4.20000 ,41.21042 
80 ,14.7600 ,0.74174 ,4.17605 ,40.97537 
81 ,14.9358 ,0.74351 ,4.15209 ,40.74032 
82 ,15.1122 ,0.74531 ,4.13156 ,40.53885 
83 ,15.3200 ,0.74729 ,4.13498 ,40.57243 
84 ,15.5122 ,0.74929 ,4.09049 ,40.13591 
85 ,15.7206 ,0.75130 ,4.09049 ,40.13591 
86 ,15.9124 ,0.75324 ,4.05285 ,39.76655 
87 ,16.1045 ,0.75517 ,4.05627 ,39.80013 
88 ,16.2962 ,0.75708 ,4.01520 ,39.39719 
89 ,16.4728 ,0.75889 ,4.01178 ,39.36361 
90 ,16.6489 ,0.76064 ,3.99125 ,39.16214 
91 ,16.8411 ,0.76249 ,3.98783 ,39.12856 
92 ,17.0166 ,0.76439 ,3.94676 ,38.72562 
93 ,17.1931 ,0.76609 ,3.95018 ,38.75920 
94 ,17.4012 ,0.76809 ,3.93307 ,38.59131 
95 ,17.5774 ,0.76994 ,3.91938 ,38.45700 
96 ,17.7694 ,0.77183 ,3.90570 ,38.32268 
97 ,17.9615 ,0.77379 ,3.89201 ,38.18837 
98 ,18.1371 ,0.77551 ,3.87490 ,38.02048 
99 ,18.3136 ,0.77729 ,3.84752 ,37.75185 
100 ,18.5215 ,0.77927 ,3.82014 ,37.48323 
101 ,18.6976 ,0.78113 ,3.82014 ,37.48323 
102 ,18.8898 ,0.78301 ,3.78934 ,37.18102 
103 ,19.0819 ,0.78492 ,3.79276 ,37.21460 
104 ,19.2734 ,0.78680 ,3.75170 ,36.81166 
105 ,19.4655 ,0.78870 ,3.73801 ,36.67735 
106 ,19.6576 ,0.79062 ,3.72432 ,36.54303 
107 ,19.8340 ,0.79247 ,3.71063 ,36.40872 
108 ,20.0262 ,0.79446 ,3.70037 ,36.30799 
109 ,20.2024 ,0.79618 ,3.67983 ,36.10652 
110 ,20.3945 ,0.79807 ,3.65930 ,35.90505 
111 ,20.5864 ,0.79999 ,3.63192 ,35.63642 
112 ,20.7627 ,0.80177 ,3.63192 ,35.63642 
113 ,20.9383 ,0.80354 ,3.61823 ,35.50211 
114 ,21.1307 ,0.80536 ,3.60112 ,35.33422 
115 ,21.3382 ,0.80741 ,3.57032 ,35.03201 
116 ,21.5303 ,0.80944 ,3.55663 ,34.89770 
117 ,21.7064 ,0.81116 ,3.54637 ,34.79696 
118 ,21.8825 ,0.81294 ,3.51899 ,34.52834 
119 ,22.0748 ,0.81486 ,3.50872 ,34.42760 
120 ,22.2832 ,0.81687 ,3.48135 ,34.15898 
121 ,22.4913 ,0.81894 ,3.48819 ,34.22613 
122 ,22.6993 ,0.82104 ,3.44028 ,33.75604 
123 ,22.8753 ,0.82285 ,3.44028 ,33.75604 
124 ,23.0515 ,0.82463 ,3.41633 ,33.52099 
125 ,23.2274 ,0.82642 ,3.39921 ,33.35310 
126 ,23.4195 ,0.82829 ,3.39237 ,33.28594 
127 ,23.5957 ,0.83006 ,3.38553 ,33.21878 
128 ,23.7717 ,0.83178 ,3.36157 ,32.98374 
129 ,23.9479 ,0.83359 ,3.34446 ,32.81584 
130 ,24.1238 ,0.83538 ,3.32051 ,32.58080 
131 ,24.3320 ,0.83741 ,3.30339 ,32.41290 
132 ,24.5398 ,0.83949 ,3.30339 ,32.41290 
133 ,24.7162 ,0.84139 ,3.27259 ,32.11070 
134 ,24.9078 ,0.84314 ,3.25548 ,31.94281 
135 ,25.0843 ,0.84496 ,3.23495 ,31.74134 
136 ,25.2763 ,0.84685 ,3.23837 ,31.77492 
137 ,25.4524 ,0.84865 ,3.22468 ,31.64060 
138 ,25.6281 ,0.85038 ,3.19046 ,31.30482 
139 ,25.8045 ,0.85217 ,3.17677 ,31.17051 
140 ,25.9967 ,0.85407 ,3.17335 ,31.13693 
141 ,26.1887 ,0.85592 ,3.15624 ,30.96904 
142 ,26.3969 ,0.85808 ,3.13229 ,30.73399 
143 ,26.5889 ,0.85993 ,3.12202 ,30.63325 
144 ,26.7650 ,0.86185 ,3.10491 ,30.46536 
145 ,26.9411 ,0.86354 ,3.06384 ,30.06242 
146 ,27.1169 ,0.86534 ,3.07753 ,30.19674 
147 ,27.2931 ,0.86706 ,3.06726 ,30.09600 
148 ,27.4694 ,0.86885 ,3.03647 ,29.79380 
149 ,27.6615 ,0.87076 ,3.01593 ,29.59233 
150 ,27.8371 ,0.87252 ,3.01935 ,29.62590 
151 ,28.0135 ,0.87424 ,3.01935 ,29.62590 
152 ,28.1895 ,0.87599 ,2.97144 ,29.15581 
153 ,28.3814 ,0.87783 ,2.96802 ,29.12223 
154 ,28.5737 ,0.87985 ,2.95433 ,28.98792 
155 ,28.7497 ,0.88160 ,2.94064 ,28.85360 
156 ,28.9258 ,0.88334 ,2.91327 ,28.58498 
157 ,29.1019 ,0.88517 ,2.90642 ,28.51782 
158 ,29.2941 ,0.88701 ,2.88931 ,28.34993 
159 ,29.4859 ,0.88895 ,2.86536 ,28.11488 
160 ,29.6624 ,0.89077 ,2.85851 ,28.04772 
161 ,29.8543 ,0.89256 ,2.83798 ,27.84625 
162 ,30.0464 ,0.89450 ,2.81060 ,27.57763 
163 ,30.2383 ,0.89641 ,2.82429 ,27.71194 
164 ,30.4303 ,0.89839 ,2.80034 ,27.47689 
165 ,30.6066 ,0.90013 ,2.76954 ,27.17469 
166 ,30.7827 ,0.90195 ,2.75585 ,27.04038 
167 ,30.9743 ,0.90377 ,2.74900 ,26.97322 
168 ,31.1509 ,0.90558 ,2.73874 ,26.87248 
169 ,31.3426 ,0.90752 ,2.70794 ,26.57028 
170 ,31.5185 ,0.90934 ,2.70109 ,26.50312 
171 ,31.7109 ,0.91109 ,2.68740 ,26.36881 
172 ,31.8871 ,0.91295 ,2.67372 ,26.23450 
173 ,32.0787 ,0.91482 ,2.65660 ,26.06661 
174 ,32.2552 ,0.91661 ,2.64292 ,25.93229 
175 ,32.4472 ,0.91849 ,2.62238 ,25.73082 
176 ,32.6234 ,0.92032 ,2.59843 ,25.49577 
177 ,32.8312 ,0.92234 ,2.58816 ,25.39504 
178 ,33.0072 ,0.92412 ,2.57447 ,25.26073 
179 ,33.1836 ,0.92593 ,2.55052 ,25.02568 
180 ,33.3752 ,0.92785 ,2.55052 ,25.02568 
181 ,33.5518 ,0.92960 ,2.54025 ,24.92494 
182 ,33.7276 ,0.93148 ,2.50261 ,24.55558 
183 ,33.9035 ,0.93313 ,2.50261 ,24.55558 
184 ,34.0797 ,0.93489 ,2.47181 ,24.25338 
185 ,34.2560 ,0.93660 ,2.48892 ,24.42127 
186 ,34.4320 ,0.93842 ,2.45812 ,24.11906 
187 ,34.6078 ,0.94017 ,2.44785 ,24.01833 
188 ,34.7842 ,0.94189 ,2.41363 ,23.68255 
189 ,34.9606 ,0.94375 ,2.40336 ,23.58181 
190 ,35.1524 ,0.94553 ,2.39652 ,23.51465 
191 ,35.3283 ,0.94735 ,2.38968 ,23.44750 
192 ,35.5045 ,0.94912 ,2.36230 ,23.17887 
193 ,35.6965 ,0.95098 ,2.35888 ,23.14529 
194 ,35.8728 ,0.95282 ,2.33150 ,22.87667 
195 ,36.0647 ,0.95466 ,2.30754 ,22.64162 
196 ,36.2249 ,0.95642 ,2.28359 ,22.40657 
197 ,36.3845 ,0.95804 ,2.27674 ,22.33941 
198 ,36.5609 ,0.95971 ,2.26990 ,22.27226 
199 ,36.7688 ,0.96175 ,2.26648 ,22.23868 
200 ,36.9452 ,0.96350 ,2.24937 ,22.07079 
201 ,37.1368 ,0.96549 ,2.23226 ,21.90290 
202 ,37.3132 ,0.96718 ,2.20488 ,21.63427 
203 ,37.4893 ,0.96900 ,2.20488 ,21.63427 
204 ,37.6815 ,0.97092 ,2.18435 ,21.43280 
205 ,37.8735 ,0.97273 ,2.17750 ,21.36564 
206 ,38.0495 ,0.97457 ,2.17408 ,21.33206 
207 ,38.2256 ,0.97631 ,2.15012 ,21.09702 
208 ,38.4172 ,0.97822 ,2.10564 ,20.66050 
209 ,38.5938 ,0.98005 ,2.09195 ,20.52619 
210 ,38.7858 ,0.98191 ,2.09537 ,20.55976 
211 ,38.9777 ,0.98375 ,2.07141 ,20.32472 
212 ,39.1377 ,0.98558 ,2.05773 ,20.19040 
213 ,39.3140 ,0.98717 ,2.04404 ,20.05609 
214 ,39.5060 ,0.98910 ,2.04061 ,20.02251 
215 ,39.6978 ,0.99104 ,2.00297 ,19.65315 
216 ,39.8901 ,0.99290 ,2.00982 ,19.72031 
217 ,40.0663 ,0.99471 ,1.99613 ,19.58599 
218 ,40.2424 ,0.99644 ,1.96875 ,19.31737 
219 ,40.4184 ,0.99822 ,1.94479 ,19.08232 
220 ,40.5941 ,0.99997 ,1.93111 ,18.94801 
221 ,40.7708 ,1.00182 ,1.94137 ,19.04874 
222 ,40.9627 ,1.00370 ,1.91742 ,18.81369 
223 ,41.1383 ,1.00544 ,1.89688 ,18.61222 
224 ,41.3148 ,1.00720 ,1.88319 ,18.47791 
225 ,41.4909 ,1.00905 ,1.88319 ,18.47791 
226 ,41.6670 ,1.01073 ,1.85924 ,18.24286 
227 ,41.8751 ,1.01277 ,1.83871 ,18.04139 
228 ,42.0828 ,1.01484 ,1.81475 ,17.80634 
229 ,42.2431 ,1.01659 ,1.80449 ,17.70561 
230 ,42.4192 ,1.01822 ,1.79764 ,17.63845 
231 ,42.5953 ,1.02004 ,1.75657 ,17.23551 
232 ,42.7712 ,1.02178 ,1.77369 ,17.40340 
233 ,42.9637 ,1.02364 ,1.74973 ,17.16836 
234 ,43.1555 ,1.02568 ,1.73946 ,17.06762 
235 ,43.3313 ,1.02739 ,1.71893 ,16.86615 
236 ,43.5076 ,1.02914 ,1.71551 ,16.83257 
237 ,43.6997 ,1.03103 ,1.68471 ,16.53037 
238 ,43.8914 ,1.03290 ,1.68129 ,16.49679 
239 ,44.0838 ,1.03476 ,1.67102 ,16.39605 
240 ,44.2921 ,1.03691 ,1.64707 ,16.16101 
241 ,44.4841 ,1.03887 ,1.63680 ,16.06027 
242 ,44.6602 ,1.04068 ,1.62653 ,15.95954 
243 ,44.8520 ,1.04259 ,1.59573 ,15.65733 
244 ,45.0283 ,1.04431 ,1.59916 ,15.69091 
245 ,45.2361 ,1.04634 ,1.54782 ,15.18724 
246 ,45.4124 ,1.04814 ,1.55124 ,15.22081 
247 ,45.5885 ,1.04991 ,1.54098 ,15.12008 
248 ,45.7804 ,1.05186 ,1.53071 ,15.01934 
249 ,45.9726 ,1.05378 ,1.49991 ,14.71714 
250 ,46.1488 ,1.05550 ,1.49991 ,14.71714 
251 ,46.3409 ,1.05746 ,1.50333 ,14.75072 
252 ,46.5488 ,1.05944 ,1.47938 ,14.51567 
253 ,46.7410 ,1.06135 ,1.46227 ,14.34778 
254 ,46.9331 ,1.06332 ,1.44516 ,14.17989 
255 ,47.1087 ,1.06512 ,1.43147 ,14.04557 
256 ,47.2853 ,1.06692 ,1.43147 ,14.04557 
257 ,47.4614 ,1.06868 ,1.41778 ,13.91126 
258 ,47.6533 ,1.07055 ,1.39383 ,13.67621 
259 ,47.8294 ,1.07231 ,1.36987 ,13.44116 
260 ,48.0216 ,1.07425 ,1.37329 ,13.47474 
261 ,48.1976 ,1.07597 ,1.35618 ,13.30685 
262 ,48.3737 ,1.07776 ,1.32880 ,13.03822 
263 ,48.5498 ,1.07955 ,1.31169 ,12.87033 
264 ,48.7420 ,1.08140 ,1.32196 ,12.97107 
265 ,48.9339 ,1.08333 ,1.29458 ,12.70244 
266 ,49.1258 ,1.08527 ,1.28432 ,12.60171 
267 ,49.3020 ,1.08709 ,1.26378 ,12.40024 
268 ,49.4939 ,1.08891 ,1.25352 ,12.29950 
269 ,49.6541 ,1.09067 ,1.24325 ,12.19877 
270 ,49.8303 ,1.09235 ,1.21929 ,11.96372 
271 ,50.0062 ,1.09407 ,1.21929 ,11.96372 
272 ,50.1825 ,1.09586 ,1.21587 ,11.93014 
273 ,50.3425 ,1.09758 ,1.20218 ,11.79583 
274 ,50.5185 ,1.09916 ,1.18507 ,11.62794 
275 ,50.7107 ,1.10117 ,1.16454 ,11.42647 
276 ,50.8867 ,1.10289 ,1.15085 ,11.29215 
277 ,51.0629 ,1.10465 ,1.15085 ,11.29215 
278 ,51.2388 ,1.10639 ,1.14743 ,11.25857 
279 ,51.4145 ,1.10814 ,1.12005 ,10.98995 
280 ,51.6071 ,1.11009 ,1.09610 ,10.75490 
281 ,51.7987 ,1.11198 ,1.11321 ,10.92279 
282 ,51.9752 ,1.11378 ,1.08241 ,10.62059 
283 ,52.1669 ,1.11561 ,1.06872 ,10.48627 
284 ,52.3434 ,1.11746 ,1.05503 ,10.35196 
285 ,52.5351 ,1.11934 ,1.05503 ,10.35196 
286 ,52.7116 ,1.12115 ,1.02423 ,10.04976 
287 ,52.9036 ,1.12303 ,1.01054 ,9.91544 
288 ,53.1117 ,1.12501 ,1.01396 ,9.94902 
289 ,53.3037 ,1.12708 ,0.98317 ,9.64682 
290 ,53.4954 ,1.12898 ,0.98659 ,9.68039 
291 ,53.6720 ,1.13077 ,0.95579 ,9.37819 
292 ,53.8639 ,1.13265 ,0.94894 ,9.31103 
293 ,54.0400 ,1.13442 ,0.95237 ,9.34461 
294 ,54.2321 ,1.13635 ,0.93183 ,9.14314 
295 ,54.4076 ,1.13807 ,0.91130 ,8.94167 
296 ,54.5999 ,1.13994 ,0.91814 ,9.00883 
297 ,54.7924 ,1.14188 ,0.88392 ,8.67305 
298 ,54.9845 ,1.14379 ,0.88050 ,8.63947 
299 ,55.1923 ,1.14590 ,0.87366 ,8.57231 
300 ,55.3846 ,1.14785 ,0.83943 ,8.23653 
301 ,55.5767 ,1.14969 ,0.85997 ,8.43800 
302 ,55.7686 ,1.15163 ,0.82917 ,8.13579 
303 ,55.9611 ,1.15363 ,0.82232 ,8.06864 
304 ,56.1529 ,1.15549 ,0.81206 ,7.96790 
305 ,56.3288 ,1.15727 ,0.78468 ,7.69927 
306 ,56.5050 ,1.15906 ,0.78126 ,7.66570 
307 ,56.6810 ,1.16080 ,0.77099 ,7.56496 
308 ,56.8732 ,1.16266 ,0.77441 ,7.59854 
309 ,57.0812 ,1.16475 ,0.74704 ,7.32991 
310 ,57.2733 ,1.16672 ,0.73335 ,7.19560 
311 ,57.4654 ,1.16858 ,0.70939 ,6.96055 
312 ,57.6413 ,1.17037 ,0.70255 ,6.89340 
313 ,57.8171 ,1.17218 ,0.69570 ,6.82624 
314 ,57.9937 ,1.17396 ,0.69228 ,6.79266 
315 ,58.1855 ,1.17585 ,0.66833 ,6.55761 
316 ,58.3775 ,1.17772 ,0.65806 ,6.45688 
317 ,58.5698 ,1.17961 ,0.66148 ,6.49046 
318 ,58.7457 ,1.18147 ,0.61357 ,6.02036 
319 ,58.9218 ,1.18320 ,0.62042 ,6.08752 
320 ,59.0980 ,1.18496 ,0.61699 ,6.05394 
321 ,59.2740 ,1.18680 ,0.58962 ,5.78531 
322 ,59.4502 ,1.18851 ,0.59304 ,5.81889 
323 ,59.6423 ,1.19033 ,0.57251 ,5.61742 
324 ,59.8344 ,1.19224 ,0.56908 ,5.58384 
325 ,60.0264 ,1.19418 ,0.53828 ,5.28164 
326 ,60.2025 ,1.19603 ,0.53486 ,5.24806 
327 ,60.3947 ,1.19794 ,0.53486 ,5.24806 
328 ,60.6027 ,1.19998 ,0.51091 ,5.01301 
329 ,60.7787 ,1.20177 ,0.51433 ,5.04659 
330 ,60.9547 ,1.20349 ,0.49037 ,4.81154 
331 ,61.1307 ,1.20528 ,0.49380 ,4.84512 
332 ,61.3230 ,1.20709 ,0.48353 ,4.74438 
333 ,61.5149 ,1.20907 ,0.47326 ,4.64365 
334 ,61.6912 ,1.21092 ,0.45273 ,4.44218 
335 ,61.8832 ,1.21280 ,0.41851 ,4.10640 
336 ,62.0749 ,1.21471 ,0.42193 ,4.13997 
337 ,62.2352 ,1.21649 ,0.42535 ,4.17355 
338 ,62.4114 ,1.21811 ,0.40482 ,3.97208 
339 ,62.6032 ,1.22002 ,0.37744 ,3.70346 
340 ,62.7796 ,1.22175 ,0.37402 ,3.66988 
341 ,62.9556 ,1.22359 ,0.36718 ,3.60272 
342 ,63.1474 ,1.22540 ,0.36033 ,3.53557 
343 ,63.3238 ,1.22722 ,0.33638 ,3.30052 
344 ,63.4999 ,1.22900 ,0.32953 ,3.23336 
345 ,63.6920 ,1.23080 ,0.31926 ,3.13263 
346 ,63.8681 ,1.23271 ,0.31242 ,3.06547 
347 ,64.0442 ,1.23443 ,0.29531 ,2.89758 
348 ,64.2360 ,1.23623 ,0.29873 ,2.93116 
349 ,64.4123 ,1.23814 ,0.28504 ,2.79684 
350 ,64.6204 ,1.24015 ,0.25767 ,2.52822 
351 ,64.7965 ,1.24190 ,0.24398 ,2.39390 
352 ,64.9725 ,1.24367 ,0.25082 ,2.46106 
353 ,65.1485 ,1.24539 ,0.24398 ,2.39390 
354 ,65.3243 ,1.24723 ,0.22344 ,2.19243 
355 ,65.5009 ,1.24902 ,0.19949 ,1.95738 
356 ,65.6767 ,1.25079 ,0.20976 ,2.05812 
357 ,65.8529 ,1.25249 ,0.18580 ,1.82307 
358 ,66.0289 ,1.25424 ,0.19607 ,1.92381 
359 ,66.2211 ,1.25611 ,0.16869 ,1.65518 
360 ,66.3968 ,1.25790 ,0.14816 ,1.45371 
361 ,66.5893 ,1.25988 ,0.16185 ,1.58802 
362 ,66.7814 ,1.26184 ,0.13789 ,1.35298 
363 ,66.9737 ,1.26361 ,0.14816 ,1.45371 
364 ,67.1656 ,1.26558 ,0.12078 ,1.18508 
365 ,67.3416 ,1.26734 ,0.11393 ,1.11793 
366 ,67.5337 ,1.26927 ,0.11736 ,1.15151 
367 ,67.7256 ,1.27122 ,0.10709 ,1.05077 
368 ,67.9019 ,1.27300 ,0.08314 ,0.81572 
369 ,68.0939 ,1.27485 ,0.08656 ,0.84930 
370 ,68.2860 ,1.27680 ,0.07629 ,0.74857 
371 ,68.4779 ,1.27868 ,0.06602 ,0.64783 
372 ,68.6541 ,1.28049 ,0.05234 ,0.51352 
373 ,68.8623 ,1.28249 ,0.04549 ,0.44636 
374 ,69.0383 ,1.28440 ,0.03180 ,0.31205 
375 ,69.2464 ,1.28629 ,0.02496 ,0.24489 
376 ,69.4223 ,1.28820 ,0.00100 ,0.00984 
377 ,69.6140 ,1.29010 ,0.00100 ,0.00984 
378 ,69.7906 ,1.29188 ,-0.00584 ,-0.05731 
379 ,69.9670 ,1.29360 ,-0.01953 ,-0.19163 
380 ,70.1748 ,1.29556 ,-0.04348 ,-0.42667 
381 ,70.3666 ,1.29756 ,-0.04348 ,-0.42667 
382 ,70.5430 ,1.29935 ,-0.05717 ,-0.56099 
383 ,70.7187 ,1.30125 ,-0.06402 ,-0.62814 
384 ,70.8950 ,1.30288 ,-0.07771 ,-0.76246 
385 ,71.0711 ,1.30466 ,-0.08797 ,-0.86319 
386 ,71.2472 ,1.30641 ,-0.09140 ,-0.89677 
387 ,71.4551 ,1.30833 ,-0.11535 ,-1.13182 
388 ,71.6474 ,1.31039 ,-0.09824 ,-0.96393 
389 ,71.8393 ,1.31224 ,-0.13588 ,-1.33329 
390 ,72.0474 ,1.31435 ,-0.11877 ,-1.16540 
391 ,72.2394 ,1.31625 ,-0.15642 ,-1.53476 
392 ,72.4156 ,1.31804 ,-0.17353 ,-1.70265 
393 ,72.6076 ,1.31998 ,-0.16326 ,-1.60191 
394 ,72.7835 ,1.32173 ,-0.17353 ,-1.70265 
395 ,72.9601 ,1.32358 ,-0.18722 ,-1.83696 
396 ,73.1520 ,1.32543 ,-0.20090 ,-1.97128 
397 ,73.3279 ,1.32728 ,-0.20433 ,-2.00485 
398 ,73.5202 ,1.32912 ,-0.20775 ,-2.03843 
399 ,73.7122 ,1.33100 ,-0.23170 ,-2.27348 
400 ,73.9044 ,1.33296 ,-0.22486 ,-2.20632 
401 ,74.0965 ,1.33486 ,-0.25908 ,-2.54211 
402 ,74.2885 ,1.33675 ,-0.25224 ,-2.47495 
403 ,74.4646 ,1.33862 ,-0.26250 ,-2.57569 
404 ,74.6407 ,1.34031 ,-0.26935 ,-2.64284 
405 ,74.8486 ,1.34237 ,-0.27961 ,-2.74358 
406 ,75.0247 ,1.34417 ,-0.28988 ,-2.84431 
407 ,75.2167 ,1.34602 ,-0.32068 ,-3.14652 
408 ,75.3929 ,1.34785 ,-0.32410 ,-3.18010 
409 ,75.5690 ,1.34961 ,-0.33437 ,-3.28083 
410 ,75.7452 ,1.35137 ,-0.32752 ,-3.21367 
411 ,75.9210 ,1.35318 ,-0.32410 ,-3.18010 
412 ,76.1128 ,1.35500 ,-0.35490 ,-3.48230 
413 ,76.2891 ,1.35680 ,-0.36517 ,-3.58303 
414 ,76.4656 ,1.35857 ,-0.35832 ,-3.51588 
415 ,76.6737 ,1.36051 ,-0.38228 ,-3.75093 
416 ,76.8654 ,1.36251 ,-0.36859 ,-3.61661 
417 ,77.0413 ,1.36432 ,-0.38912 ,-3.81808 
418 ,77.2173 ,1.36607 ,-0.40281 ,-3.95240 
419 ,77.3938 ,1.36784 ,-0.43019 ,-4.22102 
420 ,77.5538 ,1.36956 ,-0.42677 ,-4.18744 
421 ,77.7298 ,1.37122 ,-0.43361 ,-4.25460 
422 ,77.9060 ,1.37297 ,-0.43703 ,-4.28818 
423 ,78.0980 ,1.37487 ,-0.46099 ,-4.52323 
424 ,78.2900 ,1.37672 ,-0.46441 ,-4.55681 
425 ,78.4657 ,1.37856 ,-0.46099 ,-4.52323 
426 ,78.6422 ,1.38033 ,-0.46441 ,-4.55681 
427 ,78.8181 ,1.38207 ,-0.46783 ,-4.59038 
428 ,78.9945 ,1.38385 ,-0.48494 ,-4.75828 
429 ,79.1860 ,1.38576 ,-0.49521 ,-4.85901 
430 ,79.3626 ,1.38756 ,-0.51232 ,-5.02690 
431 ,79.5702 ,1.38952 ,-0.51917 ,-5.09406 
432 ,79.7468 ,1.39135 ,-0.51917 ,-5.09406 
433 ,79.9223 ,1.39319 ,-0.54312 ,-5.32911 
434 ,80.0823 ,1.39485 ,-0.54312 ,-5.32911 
435 ,80.2584 ,1.39653 ,-0.53628 ,-5.26195 
436 ,80.4508 ,1.39831 ,-0.56023 ,-5.49700 
437 ,80.6591 ,1.40043 ,-0.56708 ,-5.56415 
438 ,80.8511 ,1.40240 ,-0.57392 ,-5.63131 
439 ,81.0433 ,1.40434 ,-0.58419 ,-5.73205 
440 ,81.2191 ,1.40615 ,-0.60130 ,-5.89994 
441 ,81.3949 ,1.40782 ,-0.59445 ,-5.83278 
442 ,81.5870 ,1.40968 ,-0.60130 ,-5.89994 
443 ,81.7635 ,1.41156 ,-0.61841 ,-6.06783 
444 ,81.9556 ,1.41346 ,-0.61841 ,-6.06783 
445 ,82.1475 ,1.41536 ,-0.63552 ,-6.23572 
446 ,82.3397 ,1.41723 ,-0.63894 ,-6.26930 
447 ,82.5156 ,1.41906 ,-0.64236 ,-6.30288 
448 ,82.6918 ,1.42077 ,-0.65947 ,-6.47077 
449 ,82.8678 ,1.42260 ,-0.67316 ,-6.60508 
450 ,83.0597 ,1.42447 ,-0.65605 ,-6.43719 
451 ,83.2355 ,1.42632 ,-0.69027 ,-6.77297 
452 ,83.4117 ,1.42803 ,-0.69027 ,-6.77297 
453 ,83.6040 ,1.42986 ,-0.69370 ,-6.80655 
454 ,83.8282 ,1.43203 ,-0.69712 ,-6.84013 
455 ,84.0204 ,1.43409 ,-0.70739 ,-6.94086 
456 ,84.2122 ,1.43604 ,-0.71423 ,-7.00802 
457 ,84.4047 ,1.43797 ,-0.73818 ,-7.24307 
458 ,84.5962 ,1.43977 ,-0.73476 ,-7.20949 
459 ,84.7729 ,1.44165 ,-0.74161 ,-7.27665 
460 ,84.9647 ,1.44356 ,-0.76898 ,-7.54527 
461 ,85.1409 ,1.44531 ,-0.74161 ,-7.27665 
462 ,85.3169 ,1.44711 ,-0.76556 ,-7.51170 
463 ,85.4931 ,1.44880 ,-0.76556 ,-7.51170 
