Data stamp = , 20-04-2022 10:40:49 886

Calibration Values: 
Slope = , 26.54 , g/V 
Offset Voltage at no contact = , -0.501760 , V 

No , Time , Stage Position ,   Mass , Force 
   ,  (s) ,      (mm)      ,   (g)  , (mN)  

1 ,0.0000 ,0.59949 ,5.32247 ,52.22410 
2 ,0.2198 ,0.59954 ,5.34643 ,52.45915 
3 ,0.6682 ,0.60102 ,5.35327 ,52.52631 
4 ,0.8765 ,0.60301 ,5.34643 ,52.45915 
5 ,1.0682 ,0.60489 ,5.34301 ,52.42557 
6 ,1.2446 ,0.60666 ,5.33616 ,52.35841 
7 ,1.4207 ,0.60840 ,5.35327 ,52.52631 
8 ,1.6128 ,0.61029 ,5.32589 ,52.25768 
9 ,1.8045 ,0.61233 ,5.29510 ,51.95548 
10 ,1.9806 ,0.61405 ,5.30536 ,52.05621 
11 ,2.1731 ,0.61592 ,5.26087 ,51.61969 
12 ,2.3653 ,0.61789 ,5.25745 ,51.58611 
13 ,2.5412 ,0.61968 ,5.23692 ,51.38464 
14 ,2.7334 ,0.62163 ,5.21639 ,51.18317 
15 ,2.9255 ,0.62340 ,5.21296 ,51.14960 
16 ,3.1171 ,0.62541 ,5.17190 ,50.74666 
17 ,3.3095 ,0.62727 ,5.15136 ,50.54519 
18 ,3.4857 ,0.62911 ,5.14110 ,50.44445 
19 ,3.6777 ,0.63099 ,5.11714 ,50.20940 
20 ,3.8696 ,0.63297 ,5.09319 ,49.97436 
21 ,4.0458 ,0.63475 ,5.08634 ,49.90720 
22 ,4.2055 ,0.63641 ,5.05897 ,49.63857 
23 ,4.3982 ,0.63810 ,5.04528 ,49.50426 
24 ,4.5901 ,0.64009 ,5.01790 ,49.23563 
25 ,4.7820 ,0.64200 ,4.99394 ,49.00058 
26 ,4.9743 ,0.64389 ,4.97341 ,48.79911 
27 ,5.1664 ,0.64587 ,4.96657 ,48.73196 
28 ,5.3424 ,0.64771 ,4.93919 ,48.46333 
29 ,5.5186 ,0.64943 ,4.93235 ,48.39618 
30 ,5.7103 ,0.65125 ,4.91866 ,48.26186 
31 ,5.8867 ,0.65312 ,4.90155 ,48.09397 
32 ,6.0786 ,0.65492 ,4.86390 ,47.72461 
33 ,6.2542 ,0.65679 ,4.84337 ,47.52314 
34 ,6.4467 ,0.65871 ,4.83995 ,47.48956 
35 ,6.6705 ,0.66080 ,4.82626 ,47.35525 
36 ,6.8468 ,0.66266 ,4.80915 ,47.18736 
37 ,7.0232 ,0.66449 ,4.78861 ,46.98589 
38 ,7.2151 ,0.66635 ,4.76466 ,46.75084 
39 ,7.3910 ,0.66813 ,4.74070 ,46.51579 
40 ,7.5833 ,0.66998 ,4.73044 ,46.41506 
41 ,7.7917 ,0.67211 ,4.72017 ,46.31432 
42 ,7.9835 ,0.67399 ,4.69964 ,46.11285 
43 ,8.1912 ,0.67609 ,4.67568 ,45.87780 
44 ,8.3676 ,0.67788 ,4.65515 ,45.67633 
45 ,8.5274 ,0.67961 ,4.64831 ,45.60918 
46 ,8.7039 ,0.68128 ,4.64831 ,45.60918 
47 ,8.8796 ,0.68298 ,4.62093 ,45.34055 
48 ,9.0718 ,0.68486 ,4.59355 ,45.07192 
49 ,9.2639 ,0.68680 ,4.58671 ,45.00477 
50 ,9.4562 ,0.68878 ,4.55249 ,44.66898 
51 ,9.6482 ,0.69079 ,4.54222 ,44.56825 
52 ,9.8399 ,0.69257 ,4.51142 ,44.26604 
53 ,10.0159 ,0.69434 ,4.50457 ,44.19889 
54 ,10.1921 ,0.69613 ,4.48062 ,43.96384 
55 ,10.3681 ,0.69788 ,4.47035 ,43.86310 
56 ,10.5445 ,0.69970 ,4.46693 ,43.82953 
57 ,10.7525 ,0.70173 ,4.44298 ,43.59448 
58 ,10.9605 ,0.70374 ,4.42929 ,43.46016 
59 ,11.1527 ,0.70575 ,4.38822 ,43.05723 
60 ,11.3289 ,0.70750 ,4.38480 ,43.02365 
61 ,11.5530 ,0.70965 ,4.35742 ,42.75502 
62 ,11.7290 ,0.71148 ,4.33689 ,42.55355 
63 ,11.8888 ,0.71323 ,4.34031 ,42.58713 
64 ,12.0652 ,0.71487 ,4.33004 ,42.48639 
65 ,12.2569 ,0.71672 ,4.28556 ,42.04988 
66 ,12.4654 ,0.71874 ,4.28898 ,42.08345 
67 ,12.6736 ,0.72092 ,4.26160 ,41.81483 
68 ,12.8496 ,0.72267 ,4.25476 ,41.74767 
69 ,13.0254 ,0.72446 ,4.23765 ,41.57978 
70 ,13.2178 ,0.72633 ,4.21369 ,41.34473 
71 ,13.3936 ,0.72817 ,4.18289 ,41.04253 
72 ,13.5695 ,0.72989 ,4.18631 ,41.07611 
73 ,13.7618 ,0.73182 ,4.16578 ,40.87464 
74 ,13.9380 ,0.73356 ,4.14867 ,40.70674 
75 ,14.1297 ,0.73547 ,4.13840 ,40.60601 
76 ,14.3060 ,0.73723 ,4.12129 ,40.43812 
77 ,14.4822 ,0.73904 ,4.10076 ,40.23665 
78 ,14.6583 ,0.74074 ,4.08023 ,40.03518 
79 ,14.8343 ,0.74251 ,4.05627 ,39.80013 
80 ,15.0264 ,0.74442 ,4.04600 ,39.69940 
81 ,15.2182 ,0.74634 ,4.03574 ,39.59866 
82 ,15.4106 ,0.74818 ,4.00836 ,39.33003 
83 ,15.6185 ,0.75032 ,3.99125 ,39.16214 
84 ,15.8105 ,0.75229 ,3.98783 ,39.12856 
85 ,15.9865 ,0.75410 ,3.96387 ,38.89352 
86 ,16.1791 ,0.75592 ,3.93307 ,38.59131 
87 ,16.3710 ,0.75790 ,3.93650 ,38.62489 
88 ,16.5631 ,0.75975 ,3.91254 ,38.38984 
89 ,16.7712 ,0.76175 ,3.91596 ,38.42342 
90 ,16.9788 ,0.76388 ,3.87490 ,38.02048 
91 ,17.1549 ,0.76573 ,3.85094 ,37.78543 
92 ,17.3310 ,0.76752 ,3.84067 ,37.68470 
93 ,17.5070 ,0.76924 ,3.83383 ,37.61754 
94 ,17.6830 ,0.77100 ,3.83041 ,37.58396 
95 ,17.8593 ,0.77275 ,3.79619 ,37.24818 
96 ,18.0352 ,0.77452 ,3.76539 ,36.94597 
97 ,18.2112 ,0.77629 ,3.78592 ,37.14744 
98 ,18.3873 ,0.77804 ,3.75854 ,36.87882 
99 ,18.5635 ,0.77979 ,3.74828 ,36.77808 
100 ,18.7396 ,0.78156 ,3.72090 ,36.50946 
101 ,18.9156 ,0.78333 ,3.70037 ,36.30799 
102 ,19.0917 ,0.78510 ,3.69352 ,36.24083 
103 ,19.2678 ,0.78685 ,3.67983 ,36.10652 
104 ,19.4437 ,0.78861 ,3.66272 ,35.93863 
105 ,19.6198 ,0.79033 ,3.64903 ,35.80431 
106 ,19.7960 ,0.79214 ,3.62850 ,35.60284 
107 ,19.9720 ,0.79390 ,3.61481 ,35.46853 
108 ,20.1481 ,0.79561 ,3.60454 ,35.36779 
109 ,20.3242 ,0.79744 ,3.59428 ,35.26706 
110 ,20.5163 ,0.79943 ,3.54979 ,34.83054 
111 ,20.6923 ,0.80112 ,3.54295 ,34.76338 
112 ,20.8685 ,0.80282 ,3.53952 ,34.72981 
113 ,21.0444 ,0.80461 ,3.52584 ,34.59549 
114 ,21.2045 ,0.80633 ,3.50872 ,34.42760 
115 ,21.3805 ,0.80798 ,3.49161 ,34.25971 
116 ,21.5569 ,0.80976 ,3.46766 ,34.02466 
117 ,21.7652 ,0.81179 ,3.46766 ,34.02466 
118 ,21.9572 ,0.81368 ,3.43001 ,33.65530 
119 ,22.1493 ,0.81562 ,3.43686 ,33.72246 
120 ,22.3253 ,0.81744 ,3.42317 ,33.58814 
121 ,22.4854 ,0.81913 ,3.38553 ,33.21878 
122 ,22.6615 ,0.82079 ,3.37868 ,33.15163 
123 ,22.8533 ,0.82269 ,3.35473 ,32.91658 
124 ,23.0297 ,0.82439 ,3.34788 ,32.84942 
125 ,23.2378 ,0.82649 ,3.31024 ,32.48006 
126 ,23.4457 ,0.82858 ,3.32051 ,32.58080 
127 ,23.6380 ,0.83052 ,3.29313 ,32.31217 
128 ,23.8459 ,0.83254 ,3.28628 ,32.24501 
129 ,24.0219 ,0.83435 ,3.25206 ,31.90923 
130 ,24.1980 ,0.83619 ,3.25548 ,31.94281 
131 ,24.3742 ,0.83792 ,3.22811 ,31.67418 
132 ,24.5499 ,0.83964 ,3.21442 ,31.53987 
133 ,24.7265 ,0.84145 ,3.20073 ,31.40555 
134 ,24.9185 ,0.84336 ,3.18362 ,31.23766 
135 ,25.0947 ,0.84515 ,3.14597 ,30.86830 
136 ,25.2867 ,0.84700 ,3.15624 ,30.96904 
137 ,25.4948 ,0.84900 ,3.12544 ,30.66683 
138 ,25.6864 ,0.85105 ,3.13571 ,30.76757 
139 ,25.8629 ,0.85276 ,3.09806 ,30.39821 
140 ,26.0547 ,0.85473 ,3.06726 ,30.09600 
141 ,26.2307 ,0.85642 ,3.07411 ,30.16316 
142 ,26.4070 ,0.85825 ,3.05700 ,29.99527 
143 ,26.5994 ,0.86009 ,3.02620 ,29.69306 
144 ,26.7753 ,0.86190 ,3.01935 ,29.62590 
145 ,26.9513 ,0.86372 ,3.00567 ,29.49159 
146 ,27.1434 ,0.86561 ,3.00909 ,29.52517 
147 ,27.3357 ,0.86746 ,2.97144 ,29.15581 
148 ,27.5116 ,0.86926 ,2.95776 ,29.02150 
149 ,27.7035 ,0.87112 ,2.93722 ,28.82003 
150 ,27.8958 ,0.87305 ,2.92353 ,28.68571 
151 ,28.0875 ,0.87507 ,2.91327 ,28.58498 
152 ,28.2636 ,0.87675 ,2.89273 ,28.38351 
153 ,28.4399 ,0.87853 ,2.88247 ,28.28277 
154 ,28.6160 ,0.88033 ,2.85851 ,28.04772 
155 ,28.8077 ,0.88220 ,2.85167 ,27.98057 
156 ,28.9996 ,0.88407 ,2.81745 ,27.64479 
157 ,29.1757 ,0.88592 ,2.81745 ,27.64479 
158 ,29.3521 ,0.88772 ,2.78322 ,27.30900 
159 ,29.5764 ,0.88990 ,2.77638 ,27.24185 
160 ,29.7524 ,0.89172 ,2.75927 ,27.07395 
161 ,29.9441 ,0.89354 ,2.75927 ,27.07395 
162 ,30.1205 ,0.89532 ,2.73531 ,26.83891 
163 ,30.2968 ,0.89713 ,2.72163 ,26.70459 
164 ,30.4888 ,0.89901 ,2.72505 ,26.73817 
165 ,30.6807 ,0.90094 ,2.69083 ,26.40239 
166 ,30.8569 ,0.90271 ,2.67372 ,26.23450 
167 ,31.0327 ,0.90446 ,2.64634 ,25.96587 
168 ,31.2089 ,0.90621 ,2.64976 ,25.99945 
169 ,31.3852 ,0.90803 ,2.63607 ,25.86514 
170 ,31.5932 ,0.90998 ,2.61554 ,25.66367 
171 ,31.7693 ,0.91183 ,2.59843 ,25.49577 
172 ,31.9774 ,0.91383 ,2.56763 ,25.19357 
173 ,32.1694 ,0.91581 ,2.57789 ,25.29430 
174 ,32.3455 ,0.91769 ,2.55052 ,25.02568 
175 ,32.5216 ,0.91934 ,2.53683 ,24.89136 
176 ,32.7135 ,0.92126 ,2.51287 ,24.65632 
177 ,32.9058 ,0.92308 ,2.50945 ,24.62274 
178 ,33.0976 ,0.92515 ,2.48207 ,24.35411 
179 ,33.2739 ,0.92686 ,2.46154 ,24.15264 
180 ,33.4817 ,0.92893 ,2.45812 ,24.11906 
181 ,33.6741 ,0.93088 ,2.42732 ,23.81686 
182 ,33.8658 ,0.93272 ,2.42390 ,23.78328 
183 ,34.0580 ,0.93469 ,2.39994 ,23.54823 
184 ,34.2500 ,0.93658 ,2.38283 ,23.38034 
185 ,34.4424 ,0.93851 ,2.37256 ,23.27961 
186 ,34.6343 ,0.94042 ,2.36572 ,23.21245 
187 ,34.8104 ,0.94224 ,2.34519 ,23.01098 
188 ,35.0025 ,0.94409 ,2.31781 ,22.74235 
189 ,35.1788 ,0.94590 ,2.29385 ,22.50731 
190 ,35.3705 ,0.94779 ,2.30070 ,22.57446 
191 ,35.5627 ,0.94979 ,2.29385 ,22.50731 
192 ,35.7389 ,0.95151 ,2.25963 ,22.17152 
193 ,35.9151 ,0.95330 ,2.26306 ,22.20510 
194 ,36.1071 ,0.95521 ,2.24937 ,22.07079 
195 ,36.2831 ,0.95699 ,2.22883 ,21.86932 
196 ,36.4749 ,0.95881 ,2.18777 ,21.46638 
197 ,36.6672 ,0.96076 ,2.20146 ,21.60069 
198 ,36.8434 ,0.96258 ,2.17066 ,21.29849 
199 ,37.0675 ,0.96467 ,2.15697 ,21.16417 
200 ,37.2595 ,0.96662 ,2.15355 ,21.13059 
201 ,37.4353 ,0.96844 ,2.11248 ,20.72766 
202 ,37.6278 ,0.97030 ,2.11590 ,20.76123 
203 ,37.8197 ,0.97232 ,2.08510 ,20.45903 
204 ,37.9958 ,0.97407 ,2.06457 ,20.25756 
205 ,38.1559 ,0.97579 ,2.07141 ,20.32472 
206 ,38.3320 ,0.97745 ,2.05773 ,20.19040 
207 ,38.5077 ,0.97917 ,2.04404 ,20.05609 
208 ,38.6841 ,0.98098 ,2.02693 ,19.88820 
209 ,38.8920 ,0.98299 ,1.98928 ,19.51884 
210 ,39.0684 ,0.98478 ,1.98928 ,19.51884 
211 ,39.2443 ,0.98659 ,1.98586 ,19.48526 
212 ,39.4204 ,0.98837 ,1.95164 ,19.14948 
213 ,39.6121 ,0.99022 ,1.94137 ,19.04874 
214 ,39.8047 ,0.99204 ,1.94137 ,19.04874 
215 ,39.9966 ,0.99401 ,1.90715 ,18.71296 
216 ,40.1727 ,0.99580 ,1.90373 ,18.67938 
217 ,40.3648 ,0.99773 ,1.87635 ,18.41075 
218 ,40.5407 ,0.99952 ,1.86951 ,18.34360 
219 ,40.7166 ,1.00127 ,1.83871 ,18.04139 
220 ,40.8930 ,1.00302 ,1.84213 ,18.07497 
221 ,41.0691 ,1.00478 ,1.82844 ,17.94066 
222 ,41.2453 ,1.00654 ,1.82844 ,17.94066 
223 ,41.4374 ,1.00845 ,1.79764 ,17.63845 
224 ,41.6133 ,1.01036 ,1.79080 ,17.57129 
225 ,41.7888 ,1.01198 ,1.76342 ,17.30267 
226 ,41.9652 ,1.01376 ,1.76684 ,17.33625 
227 ,42.1575 ,1.01563 ,1.71893 ,16.86615 
228 ,42.3495 ,1.01755 ,1.72578 ,16.93331 
229 ,42.5258 ,1.01934 ,1.71551 ,16.83257 
230 ,42.7177 ,1.02128 ,1.68471 ,16.53037 
231 ,42.8939 ,1.02300 ,1.69498 ,16.63110 
232 ,43.0859 ,1.02497 ,1.69155 ,16.59752 
233 ,43.2619 ,1.02670 ,1.65049 ,16.19458 
234 ,43.4542 ,1.02852 ,1.62653 ,15.95954 
235 ,43.6463 ,1.03048 ,1.62653 ,15.95954 
236 ,43.8380 ,1.03240 ,1.60258 ,15.72449 
237 ,44.0142 ,1.03433 ,1.60600 ,15.75807 
238 ,44.2064 ,1.03615 ,1.58547 ,15.55660 
239 ,44.3987 ,1.03806 ,1.57178 ,15.42228 
240 ,44.5747 ,1.03985 ,1.54440 ,15.15366 
241 ,44.7827 ,1.04179 ,1.55467 ,15.25439 
242 ,44.9745 ,1.04374 ,1.54098 ,15.12008 
243 ,45.1668 ,1.04567 ,1.53756 ,15.08650 
244 ,45.3749 ,1.04775 ,1.50333 ,14.75072 
245 ,45.5671 ,1.04975 ,1.50333 ,14.75072 
246 ,45.7592 ,1.05163 ,1.45885 ,14.31420 
247 ,45.9510 ,1.05359 ,1.46227 ,14.34778 
248 ,46.1271 ,1.05530 ,1.45885 ,14.31420 
249 ,46.3033 ,1.05714 ,1.44174 ,14.14631 
250 ,46.5115 ,1.05903 ,1.41778 ,13.91126 
251 ,46.7035 ,1.06098 ,1.39725 ,13.70979 
252 ,46.8796 ,1.06285 ,1.39040 ,13.64263 
253 ,47.0716 ,1.06472 ,1.38698 ,13.60906 
254 ,47.2635 ,1.06676 ,1.37329 ,13.47474 
255 ,47.4558 ,1.06864 ,1.34934 ,13.23969 
256 ,47.6478 ,1.07059 ,1.34591 ,13.20612 
257 ,47.8397 ,1.07241 ,1.32880 ,13.03822 
258 ,48.0320 ,1.07444 ,1.30827 ,12.83675 
259 ,48.2077 ,1.07626 ,1.30143 ,12.76960 
260 ,48.3842 ,1.07792 ,1.29116 ,12.66886 
261 ,48.5603 ,1.07966 ,1.26720 ,12.43381 
262 ,48.7363 ,1.08148 ,1.25694 ,12.33308 
263 ,48.9282 ,1.08333 ,1.25352 ,12.29950 
264 ,49.1364 ,1.08541 ,1.22956 ,12.06445 
265 ,49.3121 ,1.08718 ,1.22272 ,11.99730 
266 ,49.4887 ,1.08898 ,1.22272 ,11.99730 
267 ,49.6963 ,1.09098 ,1.18507 ,11.62794 
268 ,49.8727 ,1.09274 ,1.18507 ,11.62794 
269 ,50.0489 ,1.09457 ,1.17823 ,11.56078 
270 ,50.2570 ,1.09658 ,1.16112 ,11.39289 
271 ,50.4326 ,1.09837 ,1.15770 ,11.35931 
272 ,50.6091 ,1.10019 ,1.13374 ,11.12426 
273 ,50.8169 ,1.10220 ,1.11321 ,10.92279 
274 ,50.9934 ,1.10395 ,1.11321 ,10.92279 
275 ,51.1854 ,1.10589 ,1.09952 ,10.78848 
276 ,51.3935 ,1.10790 ,1.07556 ,10.55343 
277 ,51.5695 ,1.10972 ,1.07214 ,10.51985 
278 ,51.7457 ,1.11155 ,1.06187 ,10.41912 
279 ,51.9214 ,1.11324 ,1.03792 ,10.18407 
280 ,52.0978 ,1.11504 ,1.02423 ,10.04976 
281 ,52.2736 ,1.11682 ,1.02423 ,10.04976 
282 ,52.4817 ,1.11872 ,1.01054 ,9.91544 
283 ,52.6737 ,1.12070 ,0.99343 ,9.74755 
284 ,52.8657 ,1.12268 ,0.98317 ,9.64682 
285 ,53.0421 ,1.12449 ,0.96948 ,9.51250 
286 ,53.2343 ,1.12638 ,0.94552 ,9.27745 
287 ,53.4264 ,1.12828 ,0.94894 ,9.31103 
288 ,53.6180 ,1.13020 ,0.92157 ,9.04241 
289 ,53.7945 ,1.13204 ,0.90788 ,8.90809 
290 ,53.9866 ,1.13395 ,0.90788 ,8.90809 
291 ,54.1786 ,1.13576 ,0.88392 ,8.67305 
292 ,54.3545 ,1.13762 ,0.87366 ,8.57231 
293 ,54.5468 ,1.13949 ,0.87023 ,8.53873 
294 ,54.7390 ,1.14146 ,0.84286 ,8.27011 
295 ,54.9308 ,1.14332 ,0.85997 ,8.43800 
296 ,55.1231 ,1.14525 ,0.81890 ,8.03506 
297 ,55.2988 ,1.14707 ,0.81890 ,8.03506 
298 ,55.4907 ,1.14893 ,0.81548 ,8.00148 
299 ,55.6832 ,1.15080 ,0.80179 ,7.86717 
300 ,55.8749 ,1.15275 ,0.77784 ,7.63212 
301 ,56.0675 ,1.15468 ,0.77099 ,7.56496 
302 ,56.2433 ,1.15651 ,0.76415 ,7.49780 
303 ,56.4355 ,1.15836 ,0.74019 ,7.26276 
304 ,56.6115 ,1.16019 ,0.74019 ,7.26276 
305 ,56.8035 ,1.16196 ,0.74019 ,7.26276 
306 ,56.9959 ,1.16399 ,0.70597 ,6.92697 
307 ,57.2039 ,1.16604 ,0.68886 ,6.75908 
308 ,57.3794 ,1.16781 ,0.67859 ,6.65835 
309 ,57.5563 ,1.16962 ,0.66833 ,6.55761 
310 ,57.7642 ,1.17150 ,0.66148 ,6.49046 
311 ,57.9562 ,1.17352 ,0.64095 ,6.28899 
312 ,58.1323 ,1.17534 ,0.64779 ,6.35614 
313 ,58.3085 ,1.17709 ,0.62384 ,6.12109 
314 ,58.4845 ,1.17890 ,0.62384 ,6.12109 
315 ,58.6926 ,1.18087 ,0.60330 ,5.91962 
316 ,58.8846 ,1.18279 ,0.58619 ,5.75173 
317 ,59.0764 ,1.18473 ,0.57935 ,5.68458 
318 ,59.2689 ,1.18667 ,0.57251 ,5.61742 
319 ,59.4448 ,1.18849 ,0.55197 ,5.41595 
320 ,59.6370 ,1.19036 ,0.53486 ,5.24806 
321 ,59.8291 ,1.19225 ,0.53486 ,5.24806 
322 ,60.0208 ,1.19420 ,0.51433 ,5.04659 
323 ,60.2131 ,1.19608 ,0.51433 ,5.04659 
324 ,60.4211 ,1.19817 ,0.49037 ,4.81154 
325 ,60.5972 ,1.19996 ,0.48011 ,4.71081 
326 ,60.7732 ,1.20175 ,0.49380 ,4.84512 
327 ,60.9494 ,1.20355 ,0.45273 ,4.44218 
328 ,61.1253 ,1.20528 ,0.45615 ,4.47576 
329 ,61.3177 ,1.20716 ,0.44588 ,4.37502 
330 ,61.5097 ,1.20916 ,0.41509 ,4.07282 
331 ,61.6857 ,1.21088 ,0.41851 ,4.10640 
332 ,61.8618 ,1.21261 ,0.40482 ,3.97208 
333 ,62.0378 ,1.21441 ,0.39455 ,3.87135 
334 ,62.2138 ,1.21614 ,0.39455 ,3.87135 
335 ,62.4060 ,1.21809 ,0.36718 ,3.60272 
336 ,62.5983 ,1.21996 ,0.37402 ,3.66988 
337 ,62.7743 ,1.22180 ,0.35691 ,3.50199 
338 ,62.9659 ,1.22366 ,0.33980 ,3.33410 
339 ,63.1586 ,1.22553 ,0.32953 ,3.23336 
340 ,63.3342 ,1.22736 ,0.30215 ,2.96473 
341 ,63.5266 ,1.22922 ,0.32269 ,3.16620 
342 ,63.7187 ,1.23130 ,0.29873 ,2.93116 
343 ,63.8950 ,1.23299 ,0.27820 ,2.72969 
344 ,64.0867 ,1.23484 ,0.26793 ,2.62895 
345 ,64.2630 ,1.23666 ,0.24398 ,2.39390 
346 ,64.4545 ,1.23856 ,0.25082 ,2.46106 
347 ,64.6309 ,1.24034 ,0.25082 ,2.46106 
348 ,64.8231 ,1.24222 ,0.20976 ,2.05812 
349 ,64.9992 ,1.24399 ,0.21318 ,2.09170 
350 ,65.2233 ,1.24599 ,0.22002 ,2.15885 
351 ,65.4153 ,1.24818 ,0.18922 ,1.85665 
352 ,65.6075 ,1.25003 ,0.18580 ,1.82307 
353 ,65.8155 ,1.25214 ,0.17553 ,1.72234 
354 ,65.9912 ,1.25395 ,0.15842 ,1.55445 
355 ,66.1677 ,1.25567 ,0.16185 ,1.58802 
356 ,66.3597 ,1.25761 ,0.13447 ,1.31940 
357 ,66.5516 ,1.25956 ,0.13105 ,1.28582 
358 ,66.7436 ,1.26143 ,0.12078 ,1.18508 
359 ,66.9198 ,1.26321 ,0.10367 ,1.01719 
360 ,67.1121 ,1.26504 ,0.11393 ,1.11793 
361 ,67.3040 ,1.26695 ,0.08314 ,0.81572 
362 ,67.4801 ,1.26877 ,0.06945 ,0.68141 
363 ,67.6718 ,1.27060 ,0.06945 ,0.68141 
364 ,67.8643 ,1.27252 ,0.06260 ,0.61425 
365 ,68.0243 ,1.27434 ,0.04207 ,0.41278 
366 ,68.2005 ,1.27596 ,0.03865 ,0.37920 
367 ,68.3761 ,1.27784 ,0.04207 ,0.41278 
368 ,68.5521 ,1.27953 ,0.02496 ,0.24489 
369 ,68.7283 ,1.28125 ,0.02496 ,0.24489 
370 ,68.9202 ,1.28316 ,0.00100 ,0.00984 
371 ,69.0964 ,1.28494 ,-0.01953 ,-0.19163 
372 ,69.2887 ,1.28682 ,-0.00926 ,-0.09089 
373 ,69.4971 ,1.28890 ,-0.02637 ,-0.25878 
374 ,69.7052 ,1.29100 ,-0.05033 ,-0.49383 
375 ,69.8967 ,1.29288 ,-0.04348 ,-0.42667 
376 ,70.0729 ,1.29470 ,-0.06060 ,-0.59457 
377 ,70.2490 ,1.29644 ,-0.05033 ,-0.49383 
378 ,70.4089 ,1.29819 ,-0.07086 ,-0.69530 
379 ,70.5850 ,1.29983 ,-0.08113 ,-0.79604 
380 ,70.7616 ,1.30158 ,-0.10508 ,-1.03108 
381 ,70.9373 ,1.30339 ,-0.09482 ,-0.93035 
382 ,71.1297 ,1.30518 ,-0.11877 ,-1.16540 
383 ,71.3378 ,1.30731 ,-0.12904 ,-1.26613 
384 ,71.5140 ,1.30912 ,-0.13588 ,-1.33329 
385 ,71.7055 ,1.31106 ,-0.13588 ,-1.33329 
386 ,71.8821 ,1.31282 ,-0.17353 ,-1.70265 
387 ,72.0738 ,1.31470 ,-0.16668 ,-1.63549 
388 ,72.2500 ,1.31646 ,-0.17011 ,-1.66907 
389 ,72.4262 ,1.31821 ,-0.18379 ,-1.80338 
390 ,72.6022 ,1.31995 ,-0.20090 ,-1.97128 
391 ,72.7785 ,1.32176 ,-0.20775 ,-2.03843 
392 ,72.9702 ,1.32364 ,-0.21117 ,-2.07201 
393 ,73.1461 ,1.32549 ,-0.21802 ,-2.13917 
394 ,73.3227 ,1.32721 ,-0.23855 ,-2.34064 
395 ,73.4988 ,1.32894 ,-0.26593 ,-2.60926 
396 ,73.6906 ,1.33081 ,-0.24539 ,-2.40779 
397 ,73.8669 ,1.33264 ,-0.26593 ,-2.60926 
398 ,74.0430 ,1.33439 ,-0.27619 ,-2.71000 
399 ,74.2190 ,1.33624 ,-0.28304 ,-2.77716 
400 ,74.3951 ,1.33793 ,-0.29673 ,-2.91147 
401 ,74.5872 ,1.33983 ,-0.30699 ,-3.01220 
402 ,74.7632 ,1.34164 ,-0.31384 ,-3.07936 
403 ,74.9391 ,1.34337 ,-0.33095 ,-3.24725 
404 ,75.1474 ,1.34540 ,-0.33779 ,-3.31441 
405 ,75.3392 ,1.34732 ,-0.34464 ,-3.38156 
406 ,75.5316 ,1.34920 ,-0.34121 ,-3.34799 
407 ,75.7398 ,1.35131 ,-0.36175 ,-3.54946 
408 ,75.9316 ,1.35324 ,-0.36517 ,-3.58303 
409 ,76.1078 ,1.35503 ,-0.37544 ,-3.68377 
410 ,76.2996 ,1.35687 ,-0.39597 ,-3.88524 
411 ,76.4761 ,1.35872 ,-0.39939 ,-3.91882 
412 ,76.6840 ,1.36073 ,-0.41650 ,-4.08671 
413 ,76.8601 ,1.36252 ,-0.43019 ,-4.22102 
414 ,77.0362 ,1.36443 ,-0.41992 ,-4.12029 
415 ,77.2120 ,1.36604 ,-0.42677 ,-4.18744 
416 ,77.3880 ,1.36783 ,-0.44046 ,-4.32176 
417 ,77.5644 ,1.36962 ,-0.44388 ,-4.35534 
418 ,77.7562 ,1.37139 ,-0.47126 ,-4.62396 
419 ,77.9482 ,1.37341 ,-0.46783 ,-4.59038 
420 ,78.1243 ,1.37520 ,-0.47468 ,-4.65754 
421 ,78.3008 ,1.37694 ,-0.50206 ,-4.92617 
422 ,78.4929 ,1.37888 ,-0.48837 ,-4.79185 
423 ,78.6690 ,1.38066 ,-0.50206 ,-4.92617 
424 ,78.8609 ,1.38248 ,-0.52259 ,-5.12764 
425 ,79.0210 ,1.38427 ,-0.51574 ,-5.06048 
426 ,79.1973 ,1.38592 ,-0.52943 ,-5.19479 
427 ,79.3895 ,1.38778 ,-0.53970 ,-5.29553 
428 ,79.5653 ,1.38966 ,-0.56023 ,-5.49700 
429 ,79.7414 ,1.39138 ,-0.55681 ,-5.46342 
430 ,79.9336 ,1.39323 ,-0.56023 ,-5.49700 
431 ,80.1415 ,1.39529 ,-0.58761 ,-5.76562 
432 ,80.3176 ,1.39715 ,-0.58419 ,-5.73205 
433 ,80.4938 ,1.39889 ,-0.58761 ,-5.76562 
434 ,80.7019 ,1.40086 ,-0.62868 ,-6.16856 
435 ,80.8935 ,1.40281 ,-0.61156 ,-6.00067 
436 ,81.0700 ,1.40466 ,-0.60814 ,-5.96709 
437 ,81.2460 ,1.40641 ,-0.62525 ,-6.13499 
438 ,81.5658 ,1.40887 ,-0.65605 ,-6.43719 
439 ,81.7583 ,1.41147 ,-0.65947 ,-6.47077 
440 ,81.9824 ,1.41360 ,-0.68001 ,-6.67224 
441 ,82.1744 ,1.41559 ,-0.65605 ,-6.43719 
442 ,82.3666 ,1.41756 ,-0.68685 ,-6.73940 
443 ,82.5586 ,1.41946 ,-0.68685 ,-6.73940 
444 ,82.7506 ,1.42134 ,-0.70054 ,-6.87371 
445 ,82.9268 ,1.42320 ,-0.70739 ,-6.94086 
446 ,83.1027 ,1.42498 ,-0.71423 ,-7.00802 
447 ,83.2786 ,1.42671 ,-0.73476 ,-7.20949 
448 ,83.4869 ,1.42874 ,-0.73134 ,-7.17591 
449 ,83.6789 ,1.43063 ,-0.74503 ,-7.31023 
450 ,83.8551 ,1.43247 ,-0.75187 ,-7.37738 
451 ,84.0310 ,1.43425 ,-0.74503 ,-7.31023 
452 ,84.2233 ,1.43616 ,-0.75872 ,-7.44454 
453 ,84.4312 ,1.43817 ,-0.77925 ,-7.64601 
454 ,84.6073 ,1.43998 ,-0.77925 ,-7.64601 
455 ,84.7832 ,1.44173 ,-0.79978 ,-7.84748 
456 ,84.9595 ,1.44349 ,-0.81347 ,-7.98179 
457 ,85.1516 ,1.44537 ,-0.80321 ,-7.88106 
458 ,85.3278 ,1.44722 ,-0.81347 ,-7.98179 
459 ,85.5358 ,1.44928 ,-0.81689 ,-8.01537 
460 ,85.7438 ,1.45122 ,-0.85112 ,-8.35115 
461 ,85.9196 ,1.45313 ,-0.85112 ,-8.35115 
462 ,86.0960 ,1.45490 ,-0.85112 ,-8.35115 
463 ,86.2878 ,1.45678 ,-0.84769 ,-8.31758 
