Data stamp = , 20-04-2022 13:47:08 342

Calibration Values: 
Slope = , 26.54 , g/V 
Offset Voltage at no contact = , -0.501760 , V 

No , Time , Stage Position ,   Mass , Force 
   ,  (s) ,      (mm)      ,   (g)  , (mN)  

1 ,0.0000 ,0.59935 ,5.32247 ,52.22410 
2 ,0.2147 ,0.59942 ,5.30194 ,52.02263 
3 ,0.5672 ,0.60040 ,5.32589 ,52.25768 
4 ,0.7754 ,0.60203 ,5.32247 ,52.22410 
5 ,0.9672 ,0.60378 ,5.32589 ,52.25768 
6 ,1.1595 ,0.60575 ,5.31905 ,52.19052 
7 ,1.3514 ,0.60757 ,5.30536 ,52.05621 
8 ,1.5278 ,0.60935 ,5.31221 ,52.12337 
9 ,1.7193 ,0.61140 ,5.29167 ,51.92190 
10 ,1.8959 ,0.61309 ,5.26430 ,51.65327 
11 ,2.1040 ,0.61509 ,5.27456 ,51.75401 
12 ,2.3118 ,0.61720 ,5.24718 ,51.48538 
13 ,2.4876 ,0.61908 ,5.23007 ,51.31749 
14 ,2.6642 ,0.62082 ,5.20612 ,51.08244 
15 ,2.8723 ,0.62278 ,5.18901 ,50.91455 
16 ,3.0804 ,0.62487 ,5.16163 ,50.64592 
17 ,3.2720 ,0.62676 ,5.14452 ,50.47803 
18 ,3.4485 ,0.62864 ,5.14110 ,50.44445 
19 ,3.6081 ,0.63033 ,5.11714 ,50.20940 
20 ,3.7846 ,0.63197 ,5.10688 ,50.10867 
21 ,3.9607 ,0.63373 ,5.07950 ,49.84004 
22 ,4.1526 ,0.63560 ,5.06923 ,49.73931 
23 ,4.3288 ,0.63742 ,5.05897 ,49.63857 
24 ,4.4888 ,0.63912 ,5.05212 ,49.57142 
25 ,4.6805 ,0.64087 ,5.01448 ,49.20205 
26 ,4.8567 ,0.64268 ,4.99394 ,49.00058 
27 ,5.0651 ,0.64463 ,4.98710 ,48.93343 
28 ,5.2412 ,0.64650 ,4.97341 ,48.79911 
29 ,5.4330 ,0.64845 ,4.94261 ,48.49691 
30 ,5.6094 ,0.65024 ,4.92892 ,48.36260 
31 ,5.8012 ,0.65210 ,4.90839 ,48.16113 
32 ,5.9935 ,0.65402 ,4.88444 ,47.92608 
33 ,6.2016 ,0.65602 ,4.88444 ,47.92608 
34 ,6.3935 ,0.65798 ,4.85364 ,47.62387 
35 ,6.5856 ,0.65998 ,4.83995 ,47.48956 
36 ,6.7616 ,0.66176 ,4.81941 ,47.28809 
37 ,6.9539 ,0.66364 ,4.80230 ,47.12020 
38 ,7.1457 ,0.66561 ,4.79204 ,47.01946 
39 ,7.3380 ,0.66743 ,4.76124 ,46.71726 
40 ,7.5301 ,0.66947 ,4.75097 ,46.61653 
41 ,7.7063 ,0.67116 ,4.75097 ,46.61653 
42 ,7.8978 ,0.67314 ,4.71675 ,46.28074 
43 ,8.0743 ,0.67483 ,4.69964 ,46.11285 
44 ,8.2505 ,0.67661 ,4.68253 ,45.94496 
45 ,8.4585 ,0.67870 ,4.65857 ,45.70991 
46 ,8.6506 ,0.68058 ,4.64488 ,45.57560 
47 ,8.8427 ,0.68254 ,4.63804 ,45.50844 
48 ,9.0187 ,0.68431 ,4.61066 ,45.23981 
49 ,9.2107 ,0.68616 ,4.61066 ,45.23981 
50 ,9.4025 ,0.68813 ,4.59355 ,45.07192 
51 ,9.5789 ,0.68988 ,4.56960 ,44.83688 
52 ,9.7550 ,0.69167 ,4.53880 ,44.53467 
53 ,9.9471 ,0.69359 ,4.54906 ,44.63541 
54 ,10.1231 ,0.69534 ,4.53537 ,44.50109 
55 ,10.3151 ,0.69727 ,4.47720 ,43.93026 
56 ,10.4912 ,0.69897 ,4.48062 ,43.96384 
57 ,10.6674 ,0.70079 ,4.47035 ,43.86310 
58 ,10.8754 ,0.70273 ,4.43613 ,43.52732 
59 ,11.0672 ,0.70464 ,4.42929 ,43.46016 
60 ,11.2597 ,0.70667 ,4.41218 ,43.29227 
61 ,11.4676 ,0.70871 ,4.39507 ,43.12438 
62 ,11.6597 ,0.71069 ,4.37453 ,42.92291 
63 ,11.8358 ,0.71244 ,4.34373 ,42.62071 
64 ,12.0117 ,0.71419 ,4.35400 ,42.72144 
65 ,12.2035 ,0.71613 ,4.32320 ,42.41924 
66 ,12.3801 ,0.71786 ,4.29924 ,42.18419 
67 ,12.5717 ,0.71977 ,4.29240 ,42.11703 
68 ,12.7483 ,0.72158 ,4.27529 ,41.94914 
69 ,12.9401 ,0.72340 ,4.24107 ,41.61336 
70 ,13.1165 ,0.72525 ,4.22053 ,41.41189 
71 ,13.2760 ,0.72696 ,4.21711 ,41.37831 
72 ,13.4524 ,0.72859 ,4.20685 ,41.27758 
73 ,13.6287 ,0.73032 ,4.18974 ,41.10968 
74 ,13.8207 ,0.73225 ,4.15551 ,40.77390 
75 ,14.0126 ,0.73421 ,4.14525 ,40.67317 
76 ,14.1884 ,0.73599 ,4.13498 ,40.57243 
77 ,14.3487 ,0.73768 ,4.13498 ,40.57243 
78 ,14.5248 ,0.73935 ,4.11103 ,40.33738 
79 ,14.7010 ,0.74108 ,4.09049 ,40.13591 
80 ,14.8928 ,0.74296 ,4.05969 ,39.83371 
81 ,15.0690 ,0.74477 ,4.06312 ,39.86729 
82 ,15.2451 ,0.74655 ,4.03916 ,39.63224 
83 ,15.4374 ,0.74840 ,4.00836 ,39.33003 
84 ,15.6295 ,0.75035 ,3.99809 ,39.22930 
85 ,15.8049 ,0.75216 ,3.99467 ,39.19572 
86 ,15.9971 ,0.75399 ,3.95703 ,38.82636 
87 ,16.1570 ,0.75579 ,3.93650 ,38.62489 
88 ,16.3496 ,0.75751 ,3.93307 ,38.59131 
89 ,16.5417 ,0.75946 ,3.92623 ,38.52415 
90 ,16.7338 ,0.76135 ,3.91254 ,38.38984 
91 ,16.9420 ,0.76334 ,3.87147 ,37.98690 
92 ,17.1499 ,0.76551 ,3.87832 ,38.05406 
93 ,17.3262 ,0.76734 ,3.85779 ,37.85259 
94 ,17.5176 ,0.76930 ,3.83725 ,37.65112 
95 ,17.6943 ,0.77103 ,3.80987 ,37.38249 
96 ,17.9024 ,0.77304 ,3.79961 ,37.28176 
97 ,18.0942 ,0.77501 ,3.76881 ,36.97955 
98 ,18.2861 ,0.77685 ,3.76881 ,36.97955 
99 ,18.4945 ,0.77895 ,3.75170 ,36.81166 
100 ,18.6864 ,0.78091 ,3.73117 ,36.61019 
101 ,18.8787 ,0.78282 ,3.69010 ,36.20725 
102 ,19.0547 ,0.78463 ,3.68325 ,36.14010 
103 ,19.2309 ,0.78634 ,3.69010 ,36.20725 
104 ,19.4230 ,0.78822 ,3.65930 ,35.90505 
105 ,19.5989 ,0.79004 ,3.64219 ,35.73716 
106 ,19.7750 ,0.79182 ,3.63192 ,35.63642 
107 ,19.9512 ,0.79360 ,3.62508 ,35.56926 
108 ,20.1273 ,0.79534 ,3.60112 ,35.33422 
109 ,20.3028 ,0.79712 ,3.59428 ,35.26706 
110 ,20.4789 ,0.79884 ,3.57717 ,35.09917 
111 ,20.6549 ,0.80064 ,3.54637 ,34.79696 
112 ,20.8309 ,0.80234 ,3.51899 ,34.52834 
113 ,21.0071 ,0.80416 ,3.51215 ,34.46118 
114 ,21.1833 ,0.80587 ,3.52241 ,34.56192 
115 ,21.3755 ,0.80776 ,3.48477 ,34.19255 
116 ,21.5674 ,0.80973 ,3.49504 ,34.29329 
117 ,21.7438 ,0.81148 ,3.46766 ,34.02466 
118 ,21.9197 ,0.81326 ,3.44713 ,33.82319 
119 ,22.1120 ,0.81511 ,3.40948 ,33.45383 
120 ,22.3042 ,0.81702 ,3.41975 ,33.55457 
121 ,22.5283 ,0.81906 ,3.40264 ,33.38667 
122 ,22.7204 ,0.82119 ,3.35473 ,32.91658 
123 ,22.9120 ,0.82310 ,3.36499 ,33.01731 
124 ,23.0885 ,0.82496 ,3.34788 ,32.84942 
125 ,23.2966 ,0.82693 ,3.31708 ,32.54722 
126 ,23.4725 ,0.82878 ,3.31366 ,32.51364 
127 ,23.6647 ,0.83065 ,3.29313 ,32.31217 
128 ,23.8569 ,0.83254 ,3.26575 ,32.04354 
129 ,24.0648 ,0.83468 ,3.27944 ,32.17786 
130 ,24.2567 ,0.83659 ,3.22468 ,31.64060 
131 ,24.4488 ,0.83844 ,3.22126 ,31.60702 
132 ,24.6252 ,0.84028 ,3.22468 ,31.64060 
133 ,24.8492 ,0.84238 ,3.19388 ,31.33840 
134 ,25.0409 ,0.84445 ,3.17677 ,31.17051 
135 ,25.2174 ,0.84626 ,3.13913 ,30.80115 
136 ,25.4093 ,0.84814 ,3.15624 ,30.96904 
137 ,25.5851 ,0.84993 ,3.14255 ,30.83472 
138 ,25.7616 ,0.85166 ,3.11518 ,30.56610 
139 ,25.9697 ,0.85371 ,3.10491 ,30.46536 
140 ,26.1612 ,0.85560 ,3.07411 ,30.16316 
141 ,26.3378 ,0.85744 ,3.05015 ,29.92811 
142 ,26.5299 ,0.85927 ,3.06042 ,30.02884 
143 ,26.7218 ,0.86123 ,3.01251 ,29.55875 
144 ,26.9139 ,0.86308 ,3.00567 ,29.49159 
145 ,27.0901 ,0.86490 ,3.00224 ,29.45801 
146 ,27.2664 ,0.86666 ,2.99198 ,29.35728 
147 ,27.4903 ,0.86889 ,2.97144 ,29.15581 
148 ,27.6984 ,0.87088 ,2.94064 ,28.85360 
149 ,27.8743 ,0.87277 ,2.92011 ,28.65213 
150 ,28.0505 ,0.87453 ,2.91669 ,28.61856 
151 ,28.2425 ,0.87646 ,2.88589 ,28.31635 
152 ,28.4187 ,0.87831 ,2.87220 ,28.18204 
153 ,28.6104 ,0.88009 ,2.86193 ,28.08130 
154 ,28.7865 ,0.88191 ,2.86536 ,28.11488 
155 ,28.9627 ,0.88363 ,2.83456 ,27.81268 
156 ,29.1387 ,0.88544 ,2.79691 ,27.44332 
157 ,29.3310 ,0.88732 ,2.81402 ,27.61121 
158 ,29.5228 ,0.88927 ,2.78665 ,27.34258 
159 ,29.6991 ,0.89102 ,2.76269 ,27.10753 
160 ,29.8751 ,0.89280 ,2.75585 ,27.04038 
161 ,30.0672 ,0.89463 ,2.75243 ,27.00680 
162 ,30.2433 ,0.89648 ,2.72847 ,26.77175 
163 ,30.4190 ,0.89823 ,2.71478 ,26.63744 
164 ,30.6112 ,0.90010 ,2.70109 ,26.50312 
165 ,30.8033 ,0.90204 ,2.67714 ,26.26807 
166 ,30.9796 ,0.90380 ,2.65318 ,26.03303 
167 ,31.1715 ,0.90567 ,2.65660 ,26.06661 
168 ,31.3636 ,0.90763 ,2.62923 ,25.79798 
169 ,31.5394 ,0.90943 ,2.61212 ,25.63009 
170 ,31.7319 ,0.91125 ,2.61896 ,25.69724 
171 ,31.9239 ,0.91323 ,2.57447 ,25.26073 
172 ,32.1000 ,0.91498 ,2.57105 ,25.22715 
173 ,32.2921 ,0.91689 ,2.57105 ,25.22715 
174 ,32.4681 ,0.91870 ,2.54710 ,24.99210 
175 ,32.6284 ,0.92040 ,2.52998 ,24.82421 
176 ,32.8205 ,0.92217 ,2.52314 ,24.75705 
177 ,33.0123 ,0.92413 ,2.49234 ,24.45485 
178 ,33.1885 ,0.92590 ,2.47865 ,24.32053 
179 ,33.3485 ,0.92762 ,2.47865 ,24.32053 
180 ,33.5248 ,0.92925 ,2.45470 ,24.08549 
181 ,33.7003 ,0.93107 ,2.43074 ,23.85044 
182 ,33.8926 ,0.93288 ,2.42390 ,23.78328 
183 ,34.0849 ,0.93488 ,2.41705 ,23.71612 
184 ,34.2609 ,0.93663 ,2.37941 ,23.34676 
185 ,34.4370 ,0.93839 ,2.35888 ,23.14529 
186 ,34.6127 ,0.94009 ,2.36230 ,23.17887 
187 ,34.7887 ,0.94189 ,2.35545 ,23.11171 
188 ,34.9650 ,0.94368 ,2.34519 ,23.01098 
189 ,35.1733 ,0.94568 ,2.32123 ,22.77593 
190 ,35.3653 ,0.94759 ,2.29043 ,22.47373 
191 ,35.5414 ,0.94942 ,2.27332 ,22.30584 
192 ,35.7174 ,0.95122 ,2.25963 ,22.17152 
193 ,35.9093 ,0.95307 ,2.26648 ,22.23868 
194 ,36.0857 ,0.95489 ,2.24937 ,22.07079 
195 ,36.2778 ,0.95675 ,2.20830 ,21.66785 
196 ,36.4698 ,0.95862 ,2.21857 ,21.76858 
197 ,36.6459 ,0.96049 ,2.18435 ,21.43280 
198 ,36.8219 ,0.96221 ,2.17750 ,21.36564 
199 ,37.0141 ,0.96404 ,2.17408 ,21.33206 
200 ,37.2222 ,0.96616 ,2.12275 ,20.82839 
201 ,37.4142 ,0.96820 ,2.12275 ,20.82839 
202 ,37.6060 ,0.96996 ,2.10221 ,20.62692 
203 ,37.7822 ,0.97180 ,2.08852 ,20.49261 
204 ,37.9585 ,0.97359 ,2.07141 ,20.32472 
205 ,38.1665 ,0.97564 ,2.06457 ,20.25756 
206 ,38.3747 ,0.97768 ,2.05088 ,20.12325 
207 ,38.5827 ,0.97984 ,2.03719 ,19.98893 
208 ,38.7747 ,0.98168 ,2.02008 ,19.82104 
209 ,38.9508 ,0.98346 ,1.99955 ,19.61957 
210 ,39.1266 ,0.98535 ,1.97217 ,19.35094 
211 ,39.3027 ,0.98703 ,1.96875 ,19.31737 
212 ,39.4951 ,0.98885 ,1.93795 ,19.01516 
213 ,39.6711 ,0.99067 ,1.94822 ,19.11590 
214 ,39.8474 ,0.99248 ,1.92426 ,18.88085 
215 ,40.0231 ,0.99421 ,1.92084 ,18.84727 
216 ,40.1989 ,0.99598 ,1.89688 ,18.61222 
217 ,40.3916 ,0.99778 ,1.89004 ,18.54507 
218 ,40.5835 ,0.99980 ,1.86951 ,18.34360 
219 ,40.7757 ,1.00168 ,1.84213 ,18.07497 
220 ,40.9515 ,1.00345 ,1.82502 ,17.90708 
221 ,41.1277 ,1.00526 ,1.83528 ,18.00781 
222 ,41.2873 ,1.00695 ,1.80106 ,17.67203 
223 ,41.4799 ,1.00873 ,1.78395 ,17.50414 
224 ,41.6714 ,1.01064 ,1.77711 ,17.43698 
225 ,41.8474 ,1.01246 ,1.78053 ,17.47056 
226 ,42.0240 ,1.01421 ,1.76000 ,17.26909 
227 ,42.2322 ,1.01630 ,1.74289 ,17.10120 
228 ,42.4240 ,1.01820 ,1.73946 ,17.06762 
229 ,42.6164 ,1.02013 ,1.69840 ,16.66468 
230 ,42.7924 ,1.02188 ,1.69155 ,16.59752 
231 ,43.0005 ,1.02390 ,1.66760 ,16.36248 
232 ,43.1925 ,1.02583 ,1.67786 ,16.46321 
233 ,43.3685 ,1.02765 ,1.66760 ,16.36248 
234 ,43.5606 ,1.02953 ,1.62995 ,15.99311 
235 ,43.7688 ,1.03166 ,1.60600 ,15.75807 
236 ,43.9770 ,1.03361 ,1.59916 ,15.69091 
237 ,44.1690 ,1.03570 ,1.58889 ,15.59018 
238 ,44.3771 ,1.03762 ,1.55809 ,15.28797 
239 ,44.5690 ,1.03965 ,1.56151 ,15.32155 
240 ,44.7452 ,1.04141 ,1.54098 ,15.12008 
241 ,44.9533 ,1.04339 ,1.53756 ,15.08650 
242 ,45.1455 ,1.04534 ,1.51018 ,14.81787 
243 ,45.3371 ,1.04728 ,1.48965 ,14.61640 
244 ,45.5135 ,1.04911 ,1.47253 ,14.44851 
245 ,45.6895 ,1.05087 ,1.46569 ,14.38136 
246 ,45.8815 ,1.05273 ,1.45200 ,14.24704 
247 ,46.0578 ,1.05453 ,1.42120 ,13.94484 
248 ,46.2498 ,1.05648 ,1.44174 ,14.14631 
249 ,46.4415 ,1.05839 ,1.41094 ,13.84410 
250 ,46.6175 ,1.06010 ,1.40751 ,13.81053 
251 ,46.7939 ,1.06195 ,1.38698 ,13.60906 
252 ,46.9860 ,1.06378 ,1.39383 ,13.67621 
253 ,47.1940 ,1.06578 ,1.35960 ,13.34043 
254 ,47.3702 ,1.06765 ,1.34591 ,13.20612 
255 ,47.5464 ,1.06942 ,1.35276 ,13.27327 
256 ,47.7540 ,1.07143 ,1.31854 ,12.93749 
257 ,47.9309 ,1.07326 ,1.32196 ,12.97107 
258 ,48.1223 ,1.07511 ,1.29116 ,12.66886 
259 ,48.2986 ,1.07697 ,1.27747 ,12.53455 
260 ,48.4907 ,1.07878 ,1.29116 ,12.66886 
261 ,48.6668 ,1.08063 ,1.27747 ,12.53455 
262 ,48.8586 ,1.08247 ,1.23298 ,12.09803 
263 ,49.0350 ,1.08430 ,1.23641 ,12.13161 
264 ,49.2269 ,1.08617 ,1.21587 ,11.93014 
265 ,49.4194 ,1.08817 ,1.20218 ,11.79583 
266 ,49.5951 ,1.08990 ,1.18850 ,11.66151 
267 ,49.7873 ,1.09171 ,1.20218 ,11.79583 
268 ,49.9793 ,1.09366 ,1.16454 ,11.42647 
269 ,50.1554 ,1.09548 ,1.14743 ,11.25857 
270 ,50.3314 ,1.09729 ,1.14401 ,11.22500 
271 ,50.5397 ,1.09929 ,1.10636 ,10.85563 
272 ,50.7316 ,1.10115 ,1.12005 ,10.98995 
273 ,50.9077 ,1.10303 ,1.11663 ,10.95637 
274 ,51.0998 ,1.10487 ,1.08241 ,10.62059 
275 ,51.2917 ,1.10688 ,1.07556 ,10.55343 
276 ,51.4836 ,1.10869 ,1.07214 ,10.51985 
277 ,51.6758 ,1.11067 ,1.04819 ,10.28480 
278 ,51.8356 ,1.11241 ,1.02081 ,10.01618 
279 ,51.9958 ,1.11400 ,1.04134 ,10.21765 
280 ,52.1881 ,1.11572 ,1.01054 ,9.91544 
281 ,52.3964 ,1.11784 ,0.99685 ,9.78113 
282 ,52.5724 ,1.11965 ,0.99001 ,9.71397 
283 ,52.7484 ,1.12152 ,0.99001 ,9.71397 
284 ,52.9246 ,1.12318 ,0.96263 ,9.44535 
285 ,53.1163 ,1.12500 ,0.94552 ,9.27745 
286 ,53.3088 ,1.12698 ,0.94894 ,9.31103 
287 ,53.5169 ,1.12898 ,0.91472 ,8.97525 
288 ,53.7090 ,1.13096 ,0.91814 ,9.00883 
289 ,53.9010 ,1.13287 ,0.88734 ,8.70662 
290 ,54.0771 ,1.13471 ,0.87023 ,8.53873 
291 ,54.2691 ,1.13653 ,0.88050 ,8.63947 
292 ,54.4292 ,1.13832 ,0.85654 ,8.40442 
293 ,54.6214 ,1.14011 ,0.84286 ,8.27011 
294 ,54.8133 ,1.14198 ,0.83943 ,8.23653 
295 ,54.9894 ,1.14385 ,0.82917 ,8.13579 
296 ,55.1655 ,1.14560 ,0.81890 ,8.03506 
297 ,55.3415 ,1.14734 ,0.79495 ,7.80001 
298 ,55.5177 ,1.14914 ,0.78126 ,7.66570 
299 ,55.7098 ,1.15094 ,0.77784 ,7.63212 
300 ,55.8853 ,1.15278 ,0.78810 ,7.73285 
301 ,56.0776 ,1.15465 ,0.75046 ,7.36349 
302 ,56.2860 ,1.15667 ,0.74704 ,7.32991 
303 ,56.4781 ,1.15865 ,0.71281 ,6.99413 
304 ,56.6701 ,1.16067 ,0.70939 ,6.96055 
305 ,56.8461 ,1.16237 ,0.72308 ,7.09486 
306 ,57.0220 ,1.16412 ,0.68886 ,6.75908 
307 ,57.2143 ,1.16603 ,0.68201 ,6.69193 
308 ,57.4060 ,1.16790 ,0.67517 ,6.62477 
309 ,57.5985 ,1.16983 ,0.65121 ,6.38972 
310 ,57.7903 ,1.17177 ,0.65806 ,6.45688 
311 ,57.9666 ,1.17354 ,0.64095 ,6.28899 
312 ,58.1427 ,1.17533 ,0.63753 ,6.25541 
313 ,58.3188 ,1.17720 ,0.61015 ,5.98678 
314 ,58.4944 ,1.17884 ,0.58619 ,5.75173 
315 ,58.6705 ,1.18061 ,0.57935 ,5.68458 
316 ,58.8469 ,1.18237 ,0.58962 ,5.78531 
317 ,59.0229 ,1.18412 ,0.57251 ,5.61742 
318 ,59.1992 ,1.18590 ,0.55539 ,5.44953 
319 ,59.3753 ,1.18769 ,0.53144 ,5.21448 
320 ,59.5670 ,1.18956 ,0.54855 ,5.38237 
321 ,59.7594 ,1.19146 ,0.52459 ,5.14732 
322 ,59.9515 ,1.19346 ,0.50748 ,4.97943 
323 ,60.1434 ,1.19524 ,0.48695 ,4.77796 
324 ,60.3195 ,1.19711 ,0.46642 ,4.57649 
325 ,60.4956 ,1.19883 ,0.47668 ,4.67723 
326 ,60.6712 ,1.20060 ,0.46642 ,4.57649 
327 ,60.8478 ,1.20244 ,0.46984 ,4.61007 
328 ,61.0398 ,1.20435 ,0.44588 ,4.37502 
329 ,61.2159 ,1.20608 ,0.43562 ,4.27429 
330 ,61.3920 ,1.20780 ,0.42193 ,4.13997 
331 ,61.6160 ,1.20993 ,0.42193 ,4.13997 
332 ,61.7916 ,1.21181 ,0.40140 ,3.93850 
333 ,61.9680 ,1.21360 ,0.40140 ,3.93850 
334 ,62.1762 ,1.21560 ,0.36718 ,3.60272 
335 ,62.3683 ,1.21754 ,0.38429 ,3.77061 
336 ,62.5605 ,1.21949 ,0.33980 ,3.33410 
337 ,62.7524 ,1.22133 ,0.33295 ,3.26694 
338 ,62.9285 ,1.22331 ,0.35006 ,3.43483 
339 ,63.1046 ,1.22496 ,0.33295 ,3.26694 
340 ,63.2807 ,1.22669 ,0.30215 ,2.96473 
341 ,63.4725 ,1.22868 ,0.29531 ,2.89758 
342 ,63.6489 ,1.23040 ,0.29531 ,2.89758 
343 ,63.8251 ,1.23213 ,0.27820 ,2.72969 
344 ,64.0171 ,1.23407 ,0.26451 ,2.59537 
345 ,64.2092 ,1.23598 ,0.26109 ,2.56179 
346 ,64.3852 ,1.23773 ,0.25424 ,2.49464 
347 ,64.5773 ,1.23961 ,0.22344 ,2.19243 
348 ,64.7373 ,1.24139 ,0.20976 ,2.05812 
349 ,64.9295 ,1.24309 ,0.23029 ,2.25959 
350 ,65.1054 ,1.24493 ,0.20633 ,2.02454 
351 ,65.2976 ,1.24688 ,0.17553 ,1.72234 
352 ,65.4897 ,1.24872 ,0.17896 ,1.75592 
353 ,65.6818 ,1.25067 ,0.16869 ,1.65518 
354 ,65.8897 ,1.25262 ,0.16185 ,1.58802 
355 ,66.0654 ,1.25452 ,0.15500 ,1.52087 
356 ,66.2418 ,1.25631 ,0.12762 ,1.25224 
357 ,66.4180 ,1.25816 ,0.12078 ,1.18508 
358 ,66.5938 ,1.25982 ,0.10709 ,1.05077 
359 ,66.7701 ,1.26153 ,0.10025 ,0.98361 
360 ,66.9621 ,1.26350 ,0.08998 ,0.88288 
361 ,67.1381 ,1.26525 ,0.07287 ,0.71499 
362 ,67.3305 ,1.26718 ,0.07629 ,0.74857 
363 ,67.5224 ,1.26911 ,0.05918 ,0.58067 
364 ,67.7145 ,1.27105 ,0.04891 ,0.47994 
365 ,67.8905 ,1.27274 ,0.04549 ,0.44636 
366 ,68.0667 ,1.27456 ,0.03865 ,0.37920 
367 ,68.2584 ,1.27638 ,0.00785 ,0.07700 
368 ,68.4510 ,1.27832 ,0.03522 ,0.34563 
369 ,68.6428 ,1.28030 ,-0.01269 ,-0.12447 
370 ,68.8511 ,1.28223 ,-0.00242 ,-0.02373 
371 ,69.0431 ,1.28422 ,-0.02637 ,-0.25878 
372 ,69.2192 ,1.28607 ,-0.03322 ,-0.32594 
373 ,69.4112 ,1.28793 ,-0.03322 ,-0.32594 
374 ,69.6031 ,1.28981 ,-0.03664 ,-0.35952 
375 ,69.7952 ,1.29173 ,-0.05717 ,-0.56099 
376 ,70.0033 ,1.29380 ,-0.07428 ,-0.72888 
377 ,70.1796 ,1.29567 ,-0.08797 ,-0.86319 
378 ,70.3714 ,1.29752 ,-0.09140 ,-0.89677 
379 ,70.5636 ,1.29947 ,-0.10851 ,-1.06466 
380 ,70.7716 ,1.30154 ,-0.11193 ,-1.09824 
381 ,70.9479 ,1.30336 ,-0.10851 ,-1.06466 
382 ,71.1399 ,1.30521 ,-0.12562 ,-1.23255 
383 ,71.3160 ,1.30702 ,-0.14615 ,-1.43402 
384 ,71.4917 ,1.30881 ,-0.14957 ,-1.46760 
385 ,71.6842 ,1.31062 ,-0.17011 ,-1.66907 
386 ,71.9083 ,1.31276 ,-0.18379 ,-1.80338 
387 ,72.1004 ,1.31480 ,-0.20433 ,-2.00485 
388 ,72.2922 ,1.31677 ,-0.19406 ,-1.90412 
389 ,72.4685 ,1.31849 ,-0.19064 ,-1.87054 
390 ,72.6604 ,1.32041 ,-0.22144 ,-2.17275 
391 ,72.8367 ,1.32221 ,-0.23513 ,-2.30706 
392 ,73.0289 ,1.32404 ,-0.22828 ,-2.23990 
393 ,73.2047 ,1.32597 ,-0.25908 ,-2.54211 
394 ,73.3809 ,1.32766 ,-0.25566 ,-2.50853 
395 ,73.5727 ,1.32951 ,-0.26250 ,-2.57569 
396 ,73.7490 ,1.33132 ,-0.27277 ,-2.67642 
397 ,73.9246 ,1.33312 ,-0.26250 ,-2.57569 
398 ,74.1009 ,1.33483 ,-0.28988 ,-2.84431 
399 ,74.3090 ,1.33690 ,-0.28988 ,-2.84431 
400 ,74.4853 ,1.33872 ,-0.29330 ,-2.87789 
401 ,74.6615 ,1.34046 ,-0.30015 ,-2.94505 
402 ,74.8695 ,1.34248 ,-0.31384 ,-3.07936 
403 ,75.0773 ,1.34457 ,-0.34121 ,-3.34799 
404 ,75.2536 ,1.34636 ,-0.34464 ,-3.38156 
405 ,75.4615 ,1.34843 ,-0.35832 ,-3.51588 
406 ,75.6697 ,1.35047 ,-0.36175 ,-3.54946 
407 ,75.8456 ,1.35232 ,-0.37544 ,-3.68377 
408 ,76.0221 ,1.35408 ,-0.38570 ,-3.78450 
409 ,76.2139 ,1.35602 ,-0.38912 ,-3.81808 
410 ,76.4059 ,1.35780 ,-0.41650 ,-4.08671 
411 ,76.6460 ,1.36005 ,-0.39939 ,-3.91882 
412 ,76.8540 ,1.36223 ,-0.42335 ,-4.15387 
413 ,77.0464 ,1.36420 ,-0.43361 ,-4.25460 
414 ,77.2541 ,1.36630 ,-0.45414 ,-4.45607 
415 ,77.4464 ,1.36821 ,-0.44730 ,-4.38891 
416 ,77.6227 ,1.37010 ,-0.45757 ,-4.48965 
417 ,77.7982 ,1.37179 ,-0.48837 ,-4.79185 
418 ,77.9903 ,1.37367 ,-0.47810 ,-4.69112 
419 ,78.1665 ,1.37551 ,-0.47810 ,-4.69112 
420 ,78.3428 ,1.37724 ,-0.49521 ,-4.85901 
421 ,78.5348 ,1.37911 ,-0.51232 ,-5.02690 
422 ,78.7108 ,1.38090 ,-0.50890 ,-4.99332 
423 ,78.9030 ,1.38286 ,-0.52943 ,-5.19479 
424 ,79.0951 ,1.38477 ,-0.53970 ,-5.29553 
425 ,79.2712 ,1.38651 ,-0.54312 ,-5.32911 
426 ,79.4473 ,1.38834 ,-0.55339 ,-5.42984 
427 ,79.6394 ,1.39025 ,-0.56708 ,-5.56415 
428 ,79.8316 ,1.39204 ,-0.56023 ,-5.49700 
429 ,80.0235 ,1.39405 ,-0.57734 ,-5.66489 
430 ,80.2155 ,1.39590 ,-0.59103 ,-5.79920 
431 ,80.4237 ,1.39801 ,-0.60130 ,-5.89994 
432 ,80.5996 ,1.39984 ,-0.59788 ,-5.86636 
433 ,80.7756 ,1.40164 ,-0.62868 ,-6.16856 
434 ,80.9678 ,1.40345 ,-0.62868 ,-6.16856 
435 ,81.1438 ,1.40530 ,-0.62525 ,-6.13499 
436 ,81.3201 ,1.40708 ,-0.64579 ,-6.33646 
437 ,81.4961 ,1.40880 ,-0.65947 ,-6.47077 
438 ,81.6721 ,1.41051 ,-0.65263 ,-6.40361 
439 ,81.8644 ,1.41234 ,-0.65263 ,-6.40361 
440 ,82.0401 ,1.41427 ,-0.68001 ,-6.67224 
441 ,82.2160 ,1.41597 ,-0.69370 ,-6.80655 
442 ,82.4082 ,1.41787 ,-0.67316 ,-6.60508 
443 ,82.6004 ,1.41982 ,-0.69712 ,-6.84013 
444 ,82.7766 ,1.42157 ,-0.71081 ,-6.97444 
445 ,82.9688 ,1.42346 ,-0.70396 ,-6.90729 
446 ,83.1447 ,1.42529 ,-0.70739 ,-6.94086 
447 ,83.3205 ,1.42702 ,-0.73134 ,-7.17591 
448 ,83.5129 ,1.42886 ,-0.74161 ,-7.27665 
449 ,83.6890 ,1.43072 ,-0.73818 ,-7.24307 
450 ,83.8650 ,1.43249 ,-0.75530 ,-7.41096 
451 ,84.0732 ,1.43448 ,-0.76214 ,-7.47812 
452 ,84.2653 ,1.43651 ,-0.76556 ,-7.51170 
453 ,84.4408 ,1.43824 ,-0.78267 ,-7.67959 
454 ,84.6175 ,1.43998 ,-0.79978 ,-7.84748 
455 ,84.8094 ,1.44187 ,-0.80321 ,-7.88106 
456 ,84.9695 ,1.44361 ,-0.80663 ,-7.91464 
457 ,85.1457 ,1.44527 ,-0.80321 ,-7.88106 
458 ,85.3377 ,1.44722 ,-0.82716 ,-8.11611 
459 ,85.5132 ,1.44887 ,-0.82716 ,-8.11611 
460 ,85.6899 ,1.45071 ,-0.82032 ,-8.04895 
461 ,85.8819 ,1.45260 ,-0.84769 ,-8.31758 
462 ,86.0740 ,1.45451 ,-0.85112 ,-8.35115 
463 ,86.2660 ,1.45646 ,-0.85112 ,-8.35115 
