Data stamp = , 20-04-2022 05:54:45 764

Calibration Values: 
Slope = , 26.54 , g/V 
Offset Voltage at no contact = , -0.501760 , V 

No , Time , Stage Position ,   Mass , Force 
   ,  (s) ,      (mm)      ,   (g)  , (mN)  

1 ,0.0000 ,0.59941 ,5.33616 ,52.35841 
2 ,0.2049 ,0.59946 ,5.30878 ,52.08979 
3 ,0.7812 ,0.60146 ,5.30878 ,52.08979 
4 ,0.9574 ,0.60381 ,5.32932 ,52.29126 
5 ,1.1495 ,0.60563 ,5.32589 ,52.25768 
6 ,1.3256 ,0.60738 ,5.30194 ,52.02263 
7 ,1.5175 ,0.60924 ,5.33958 ,52.39199 
8 ,1.6937 ,0.61112 ,5.31905 ,52.19052 
9 ,1.8698 ,0.61289 ,5.31563 ,52.15694 
10 ,2.0459 ,0.61464 ,5.28141 ,51.82116 
11 ,2.2380 ,0.61650 ,5.28483 ,51.85474 
12 ,2.4300 ,0.61843 ,5.25061 ,51.51896 
13 ,2.6220 ,0.62041 ,5.24718 ,51.48538 
14 ,2.8146 ,0.62230 ,5.23007 ,51.31749 
15 ,3.0224 ,0.62434 ,5.24034 ,51.41822 
16 ,3.2307 ,0.62634 ,5.21296 ,51.14960 
17 ,3.4227 ,0.62841 ,5.18559 ,50.88097 
18 ,3.5989 ,0.63017 ,5.17532 ,50.78023 
19 ,3.7910 ,0.63203 ,5.15821 ,50.61234 
20 ,3.9671 ,0.63389 ,5.12741 ,50.31014 
21 ,4.1591 ,0.63580 ,5.12056 ,50.24298 
22 ,4.3509 ,0.63767 ,5.09319 ,49.97436 
23 ,4.5271 ,0.63946 ,5.07265 ,49.77289 
24 ,4.7033 ,0.64118 ,5.06239 ,49.67215 
25 ,4.8953 ,0.64303 ,5.04870 ,49.53784 
26 ,5.0875 ,0.64501 ,5.01790 ,49.23563 
27 ,5.2795 ,0.64691 ,5.01448 ,49.20205 
28 ,5.4557 ,0.64873 ,4.99737 ,49.03416 
29 ,5.6476 ,0.65059 ,4.96657 ,48.73196 
30 ,5.8236 ,0.65239 ,4.93577 ,48.42975 
31 ,6.0001 ,0.65418 ,4.93577 ,48.42975 
32 ,6.1760 ,0.65594 ,4.93235 ,48.39618 
33 ,6.3681 ,0.65781 ,4.89128 ,47.99324 
34 ,6.5761 ,0.65988 ,4.89470 ,48.02681 
35 ,6.7520 ,0.66167 ,4.86732 ,47.75819 
36 ,6.9282 ,0.66357 ,4.82968 ,47.38883 
37 ,7.1204 ,0.66533 ,4.83995 ,47.48956 
38 ,7.2966 ,0.66714 ,4.81941 ,47.28809 
39 ,7.5046 ,0.66912 ,4.78861 ,46.98589 
40 ,7.7124 ,0.67122 ,4.77150 ,46.81800 
41 ,7.8883 ,0.67301 ,4.73728 ,46.48221 
42 ,8.0646 ,0.67478 ,4.73386 ,46.44863 
43 ,8.2404 ,0.67655 ,4.71333 ,46.24716 
44 ,8.4168 ,0.67829 ,4.71675 ,46.28074 
45 ,8.5929 ,0.68008 ,4.69279 ,46.04569 
46 ,8.7687 ,0.68189 ,4.65857 ,45.70991 
47 ,8.9447 ,0.68356 ,4.64488 ,45.57560 
48 ,9.1370 ,0.68552 ,4.65173 ,45.64275 
49 ,9.3291 ,0.68747 ,4.62093 ,45.34055 
50 ,9.5055 ,0.68921 ,4.61066 ,45.23981 
51 ,9.6974 ,0.69107 ,4.59013 ,45.03835 
52 ,9.8734 ,0.69291 ,4.56960 ,44.83688 
53 ,10.0491 ,0.69476 ,4.55591 ,44.70256 
54 ,10.2255 ,0.69639 ,4.54564 ,44.60183 
55 ,10.4177 ,0.69832 ,4.53537 ,44.50109 
56 ,10.5938 ,0.70011 ,4.51484 ,44.29962 
57 ,10.7858 ,0.70196 ,4.48404 ,43.99742 
58 ,10.9619 ,0.70378 ,4.46693 ,43.82953 
59 ,11.1376 ,0.70553 ,4.46009 ,43.76237 
60 ,11.3140 ,0.70732 ,4.43955 ,43.56090 
61 ,11.5061 ,0.70914 ,4.40875 ,43.25870 
62 ,11.6980 ,0.71113 ,4.40875 ,43.25870 
63 ,11.8902 ,0.71302 ,4.37111 ,42.88933 
64 ,12.0663 ,0.71476 ,4.37111 ,42.88933 
65 ,12.2260 ,0.71653 ,4.34716 ,42.65429 
66 ,12.4027 ,0.71815 ,4.32320 ,42.41924 
67 ,12.5941 ,0.72006 ,4.31978 ,42.38566 
68 ,12.7705 ,0.72183 ,4.29924 ,42.18419 
69 ,12.9467 ,0.72360 ,4.27529 ,41.94914 
70 ,13.1222 ,0.72534 ,4.25133 ,41.71409 
71 ,13.2983 ,0.72719 ,4.24791 ,41.68051 
72 ,13.4583 ,0.72885 ,4.24107 ,41.61336 
73 ,13.6347 ,0.73047 ,4.24107 ,41.61336 
74 ,13.8429 ,0.73258 ,4.20000 ,41.21042 
75 ,14.0507 ,0.73459 ,4.18631 ,41.07611 
76 ,14.2267 ,0.73640 ,4.16578 ,40.87464 
77 ,14.4030 ,0.73818 ,4.14525 ,40.67317 
78 ,14.5790 ,0.73993 ,4.12814 ,40.50527 
79 ,14.7554 ,0.74168 ,4.12814 ,40.50527 
80 ,14.9473 ,0.74356 ,4.10076 ,40.23665 
81 ,15.1395 ,0.74551 ,4.09391 ,40.16949 
82 ,15.3314 ,0.74738 ,4.07338 ,39.96802 
83 ,15.5236 ,0.74934 ,4.04258 ,39.66582 
84 ,15.7155 ,0.75120 ,4.02205 ,39.46435 
85 ,15.8916 ,0.75310 ,4.03232 ,39.56508 
86 ,16.0838 ,0.75494 ,3.99467 ,39.19572 
87 ,16.2761 ,0.75688 ,3.98098 ,39.06141 
88 ,16.4517 ,0.75872 ,3.95361 ,38.79278 
89 ,16.6441 ,0.76051 ,3.93992 ,38.65847 
90 ,16.8358 ,0.76246 ,3.95018 ,38.75920 
91 ,17.0121 ,0.76423 ,3.92281 ,38.49058 
92 ,17.1884 ,0.76603 ,3.89201 ,38.18837 
93 ,17.3806 ,0.76786 ,3.89201 ,38.18837 
94 ,17.5881 ,0.76992 ,3.84752 ,37.75185 
95 ,17.7642 ,0.77179 ,3.83725 ,37.65112 
96 ,17.9407 ,0.77352 ,3.83725 ,37.65112 
97 ,18.1326 ,0.77535 ,3.81330 ,37.41607 
98 ,18.3088 ,0.77720 ,3.79961 ,37.28176 
99 ,18.4849 ,0.77898 ,3.78250 ,37.11387 
100 ,18.6765 ,0.78090 ,3.77908 ,37.08029 
101 ,18.8531 ,0.78269 ,3.75854 ,36.87882 
102 ,19.0451 ,0.78460 ,3.73117 ,36.61019 
103 ,19.2373 ,0.78644 ,3.72774 ,36.57661 
104 ,19.4451 ,0.78841 ,3.71405 ,36.44230 
105 ,19.6212 ,0.79030 ,3.67299 ,36.03936 
106 ,19.7974 ,0.79209 ,3.67983 ,36.10652 
107 ,19.9732 ,0.79384 ,3.67299 ,36.03936 
108 ,20.1496 ,0.79559 ,3.63534 ,35.67000 
109 ,20.3413 ,0.79747 ,3.61481 ,35.46853 
110 ,20.5177 ,0.79932 ,3.60112 ,35.33422 
111 ,20.6939 ,0.80109 ,3.59086 ,35.23348 
112 ,20.8859 ,0.80292 ,3.56006 ,34.93128 
113 ,21.0618 ,0.80472 ,3.55321 ,34.86412 
114 ,21.2380 ,0.80648 ,3.55321 ,34.86412 
115 ,21.4141 ,0.80826 ,3.52584 ,34.59549 
116 ,21.6062 ,0.81007 ,3.49846 ,34.32687 
117 ,21.7983 ,0.81202 ,3.50188 ,34.36045 
118 ,21.9744 ,0.81386 ,3.47450 ,34.09182 
119 ,22.1663 ,0.81576 ,3.45055 ,33.85677 
120 ,22.3421 ,0.81748 ,3.43686 ,33.72246 
121 ,22.5185 ,0.81929 ,3.44028 ,33.75604 
122 ,22.6947 ,0.82110 ,3.43344 ,33.68888 
123 ,22.8867 ,0.82295 ,3.37526 ,33.11805 
124 ,23.0629 ,0.82476 ,3.36157 ,32.98374 
125 ,23.2709 ,0.82674 ,3.34446 ,32.81584 
126 ,23.4468 ,0.82862 ,3.34104 ,32.78227 
127 ,23.6231 ,0.83030 ,3.32735 ,32.64795 
128 ,23.8149 ,0.83215 ,3.32051 ,32.58080 
129 ,23.9909 ,0.83403 ,3.29313 ,32.31217 
130 ,24.1832 ,0.83586 ,3.28286 ,32.21143 
131 ,24.3754 ,0.83777 ,3.26575 ,32.04354 
132 ,24.5674 ,0.83973 ,3.24864 ,31.87565 
133 ,24.7755 ,0.84169 ,3.22126 ,31.60702 
134 ,24.9515 ,0.84359 ,3.21100 ,31.50629 
135 ,25.1597 ,0.84562 ,3.19731 ,31.37198 
136 ,25.3356 ,0.84747 ,3.19731 ,31.37198 
137 ,25.5439 ,0.84945 ,3.14940 ,30.90188 
138 ,25.7516 ,0.85155 ,3.13229 ,30.73399 
139 ,25.9280 ,0.85338 ,3.11860 ,30.59968 
140 ,26.1042 ,0.85509 ,3.10149 ,30.43178 
141 ,26.2802 ,0.85693 ,3.09464 ,30.36463 
142 ,26.4563 ,0.85866 ,3.09464 ,30.36463 
143 ,26.6484 ,0.86057 ,3.06384 ,30.06242 
144 ,26.8402 ,0.86244 ,3.05358 ,29.96169 
145 ,27.0165 ,0.86424 ,3.03989 ,29.82737 
146 ,27.2086 ,0.86612 ,3.01593 ,29.59233 
147 ,27.4008 ,0.86808 ,2.98855 ,29.32370 
148 ,27.6087 ,0.87012 ,2.96802 ,29.12223 
149 ,27.8009 ,0.87203 ,2.97144 ,29.15581 
150 ,27.9929 ,0.87402 ,2.95091 ,28.95434 
151 ,28.1849 ,0.87593 ,2.92696 ,28.71929 
152 ,28.3604 ,0.87765 ,2.92353 ,28.68571 
153 ,28.5531 ,0.87962 ,2.89616 ,28.41709 
154 ,28.7452 ,0.88156 ,2.87562 ,28.21562 
155 ,28.9373 ,0.88342 ,2.88247 ,28.28277 
156 ,29.1453 ,0.88548 ,2.84825 ,27.94699 
157 ,29.3214 ,0.88729 ,2.83798 ,27.84625 
158 ,29.5134 ,0.88923 ,2.82429 ,27.71194 
159 ,29.7212 ,0.89122 ,2.81060 ,27.57763 
160 ,29.8979 ,0.89306 ,2.79349 ,27.40974 
161 ,30.1058 ,0.89501 ,2.75927 ,27.07395 
162 ,30.2977 ,0.89705 ,2.75243 ,27.00680 
163 ,30.4575 ,0.89876 ,2.73874 ,26.87248 
164 ,30.6499 ,0.90054 ,2.70794 ,26.57028 
165 ,30.8418 ,0.90246 ,2.70794 ,26.57028 
166 ,31.0339 ,0.90444 ,2.69767 ,26.46954 
167 ,31.2263 ,0.90629 ,2.66687 ,26.16734 
168 ,31.4177 ,0.90819 ,2.67372 ,26.23450 
169 ,31.6099 ,0.91014 ,2.62238 ,25.73082 
170 ,31.7864 ,0.91193 ,2.61212 ,25.63009 
171 ,31.9785 ,0.91384 ,2.61896 ,25.69724 
172 ,32.1545 ,0.91558 ,2.59158 ,25.42862 
173 ,32.3305 ,0.91734 ,2.57789 ,25.29430 
174 ,32.5067 ,0.91915 ,2.56421 ,25.15999 
175 ,32.6984 ,0.92104 ,2.55736 ,25.09283 
176 ,32.8588 ,0.92273 ,2.53683 ,24.89136 
177 ,33.0509 ,0.92447 ,2.51287 ,24.65632 
178 ,33.2270 ,0.92638 ,2.49234 ,24.45485 
179 ,33.4031 ,0.92807 ,2.49576 ,24.48842 
180 ,33.5792 ,0.92985 ,2.49576 ,24.48842 
181 ,33.7871 ,0.93176 ,2.43759 ,23.91759 
182 ,33.9633 ,0.93367 ,2.44443 ,23.98475 
183 ,34.1554 ,0.93553 ,2.43759 ,23.91759 
184 ,34.3475 ,0.93756 ,2.40679 ,23.61539 
185 ,34.5394 ,0.93942 ,2.39994 ,23.54823 
186 ,34.7156 ,0.94125 ,2.38625 ,23.41392 
187 ,34.9077 ,0.94311 ,2.36230 ,23.17887 
188 ,35.0998 ,0.94506 ,2.35203 ,23.07814 
189 ,35.2756 ,0.94684 ,2.33834 ,22.94382 
190 ,35.4679 ,0.94869 ,2.30070 ,22.57446 
191 ,35.6439 ,0.95055 ,2.30754 ,22.64162 
192 ,35.8516 ,0.95248 ,2.28701 ,22.44015 
193 ,36.0439 ,0.95444 ,2.26306 ,22.20510 
194 ,36.2362 ,0.95646 ,2.25621 ,22.13794 
195 ,36.4284 ,0.95828 ,2.24594 ,22.03721 
196 ,36.6203 ,0.96019 ,2.22541 ,21.83574 
197 ,36.8283 ,0.96225 ,2.20146 ,21.60069 
198 ,37.0046 ,0.96409 ,2.19461 ,21.53353 
199 ,37.1806 ,0.96583 ,2.18777 ,21.46638 
200 ,37.3726 ,0.96769 ,2.15355 ,21.13059 
201 ,37.5647 ,0.96964 ,2.14328 ,21.02986 
202 ,37.7568 ,0.97164 ,2.13644 ,20.96270 
203 ,37.9649 ,0.97350 ,2.09879 ,20.59334 
204 ,38.1728 ,0.97572 ,2.07826 ,20.39187 
205 ,38.3810 ,0.97779 ,2.08852 ,20.49261 
206 ,38.5571 ,0.97961 ,2.06115 ,20.22398 
207 ,38.7331 ,0.98134 ,2.04404 ,20.05609 
208 ,38.9093 ,0.98315 ,2.02350 ,19.85462 
209 ,39.1010 ,0.98506 ,2.00982 ,19.72031 
210 ,39.2774 ,0.98685 ,2.01324 ,19.75388 
211 ,39.4695 ,0.98873 ,1.98928 ,19.51884 
212 ,39.6612 ,0.99058 ,1.98244 ,19.45168 
213 ,39.8375 ,0.99242 ,1.96533 ,19.28379 
214 ,40.0135 ,0.99417 ,1.94479 ,19.08232 
215 ,40.2054 ,0.99596 ,1.92426 ,18.88085 
216 ,40.3818 ,0.99784 ,1.92084 ,18.84727 
217 ,40.5900 ,0.99988 ,1.88662 ,18.51149 
218 ,40.7979 ,1.00197 ,1.87635 ,18.41075 
219 ,40.9902 ,1.00386 ,1.85582 ,18.20928 
220 ,41.1819 ,1.00579 ,1.84555 ,18.10855 
221 ,41.3743 ,1.00771 ,1.82160 ,17.87350 
222 ,41.5500 ,1.00961 ,1.82160 ,17.87350 
223 ,41.7265 ,1.01131 ,1.79764 ,17.63845 
224 ,41.9185 ,1.01323 ,1.78395 ,17.50414 
225 ,42.0947 ,1.01503 ,1.78053 ,17.47056 
226 ,42.3027 ,1.01695 ,1.75657 ,17.23551 
227 ,42.4949 ,1.01895 ,1.74631 ,17.13478 
228 ,42.6709 ,1.02074 ,1.72578 ,16.93331 
229 ,42.8628 ,1.02261 ,1.71209 ,16.79899 
230 ,43.0550 ,1.02450 ,1.69155 ,16.59752 
231 ,43.2470 ,1.02651 ,1.68129 ,16.49679 
232 ,43.4548 ,1.02839 ,1.68471 ,16.53037 
233 ,43.6473 ,1.03040 ,1.64707 ,16.16101 
234 ,43.8392 ,1.03242 ,1.64707 ,16.16101 
235 ,44.0155 ,1.03418 ,1.61627 ,15.85880 
236 ,44.2235 ,1.03615 ,1.59231 ,15.62375 
237 ,44.4312 ,1.03828 ,1.58204 ,15.52302 
238 ,44.6074 ,1.04002 ,1.57862 ,15.48944 
239 ,44.7996 ,1.04196 ,1.56151 ,15.32155 
240 ,44.9758 ,1.04380 ,1.54782 ,15.18724 
241 ,45.1678 ,1.04565 ,1.54782 ,15.18724 
242 ,45.3759 ,1.04769 ,1.51702 ,14.88503 
243 ,45.5516 ,1.04956 ,1.51018 ,14.81787 
244 ,45.7281 ,1.05134 ,1.48280 ,14.54925 
245 ,45.9202 ,1.05323 ,1.48622 ,14.58283 
246 ,46.1282 ,1.05521 ,1.46227 ,14.34778 
247 ,46.3044 ,1.05708 ,1.46569 ,14.38136 
248 ,46.4963 ,1.05891 ,1.45200 ,14.24704 
249 ,46.6880 ,1.06081 ,1.43147 ,14.04557 
250 ,46.8484 ,1.06259 ,1.41436 ,13.87768 
251 ,47.0246 ,1.06426 ,1.41094 ,13.84410 
252 ,47.2165 ,1.06610 ,1.39383 ,13.67621 
253 ,47.3765 ,1.06788 ,1.36645 ,13.40759 
254 ,47.5527 ,1.06955 ,1.36303 ,13.37401 
255 ,47.7284 ,1.07135 ,1.37329 ,13.47474 
256 ,47.9051 ,1.07308 ,1.34934 ,13.23969 
257 ,48.0970 ,1.07495 ,1.32880 ,13.03822 
258 ,48.2731 ,1.07670 ,1.31169 ,12.87033 
259 ,48.4652 ,1.07862 ,1.31169 ,12.87033 
260 ,48.6572 ,1.08041 ,1.30143 ,12.76960 
261 ,48.8490 ,1.08251 ,1.26378 ,12.40024 
262 ,49.0410 ,1.08435 ,1.26720 ,12.43381 
263 ,49.2332 ,1.08636 ,1.25009 ,12.26592 
264 ,49.4252 ,1.08820 ,1.26378 ,12.40024 
265 ,49.6175 ,1.09014 ,1.21587 ,11.93014 
266 ,49.7936 ,1.09194 ,1.20903 ,11.86298 
267 ,49.9697 ,1.09372 ,1.18850 ,11.66151 
268 ,50.1617 ,1.09566 ,1.18850 ,11.66151 
269 ,50.3538 ,1.09751 ,1.16454 ,11.42647 
270 ,50.5300 ,1.09930 ,1.15427 ,11.32573 
271 ,50.7218 ,1.10118 ,1.16454 ,11.42647 
272 ,50.8976 ,1.10301 ,1.13716 ,11.15784 
273 ,51.0742 ,1.10477 ,1.12005 ,10.98995 
274 ,51.2821 ,1.10678 ,1.10636 ,10.85563 
275 ,51.4584 ,1.10860 ,1.08925 ,10.68774 
276 ,51.6502 ,1.11050 ,1.07899 ,10.58701 
277 ,51.8265 ,1.11223 ,1.07214 ,10.51985 
278 ,52.0181 ,1.11410 ,1.04476 ,10.25123 
279 ,52.1945 ,1.11595 ,1.03108 ,10.11691 
280 ,52.3706 ,1.11767 ,1.02423 ,10.04976 
281 ,52.5627 ,1.11953 ,1.01396 ,9.94902 
282 ,52.7547 ,1.12144 ,0.99343 ,9.74755 
283 ,52.9149 ,1.12324 ,0.97974 ,9.61324 
284 ,53.0908 ,1.12490 ,0.96605 ,9.47892 
285 ,53.2671 ,1.12663 ,0.96948 ,9.51250 
286 ,53.4430 ,1.12843 ,0.95921 ,9.41177 
287 ,53.6193 ,1.13019 ,0.95237 ,9.34461 
288 ,53.8110 ,1.13211 ,0.92841 ,9.10956 
289 ,54.0035 ,1.13401 ,0.92499 ,9.07598 
290 ,54.2275 ,1.13612 ,0.91472 ,8.97525 
291 ,54.4195 ,1.13823 ,0.89077 ,8.74020 
292 ,54.5960 ,1.13994 ,0.88392 ,8.67305 
293 ,54.7876 ,1.14178 ,0.87708 ,8.60589 
294 ,54.9637 ,1.14363 ,0.86681 ,8.50515 
295 ,55.1399 ,1.14538 ,0.85997 ,8.43800 
296 ,55.3321 ,1.14729 ,0.82917 ,8.13579 
297 ,55.5401 ,1.14934 ,0.82575 ,8.10221 
298 ,55.7481 ,1.15144 ,0.80179 ,7.86717 
299 ,55.9242 ,1.15329 ,0.78810 ,7.73285 
300 ,56.1004 ,1.15498 ,0.79495 ,7.80001 
301 ,56.2919 ,1.15695 ,0.76757 ,7.53138 
302 ,56.4685 ,1.15864 ,0.76415 ,7.49780 
303 ,56.6765 ,1.16067 ,0.76415 ,7.49780 
304 ,56.8521 ,1.16255 ,0.75388 ,7.39707 
305 ,57.0287 ,1.16427 ,0.73335 ,7.19560 
306 ,57.2207 ,1.16612 ,0.72992 ,7.16202 
307 ,57.4126 ,1.16806 ,0.69570 ,6.82624 
308 ,57.5888 ,1.16982 ,0.70255 ,6.89340 
309 ,57.7649 ,1.17166 ,0.69228 ,6.79266 
310 ,57.9411 ,1.17333 ,0.68201 ,6.69193 
311 ,58.1649 ,1.17549 ,0.67517 ,6.62477 
312 ,58.3412 ,1.17736 ,0.65121 ,6.38972 
313 ,58.5172 ,1.17913 ,0.63753 ,6.25541 
314 ,58.7093 ,1.18098 ,0.63410 ,6.22183 
315 ,58.9016 ,1.18297 ,0.62042 ,6.08752 
316 ,59.0934 ,1.18492 ,0.59988 ,5.88605 
317 ,59.2855 ,1.18671 ,0.60330 ,5.91962 
318 ,59.4615 ,1.18856 ,0.58962 ,5.78531 
319 ,59.6537 ,1.19042 ,0.57251 ,5.61742 
320 ,59.8453 ,1.19241 ,0.57593 ,5.65100 
321 ,60.0218 ,1.19416 ,0.56908 ,5.58384 
322 ,60.2139 ,1.19604 ,0.52802 ,5.18090 
323 ,60.4219 ,1.19811 ,0.53144 ,5.21448 
324 ,60.5977 ,1.19993 ,0.51433 ,5.04659 
325 ,60.7741 ,1.20173 ,0.50406 ,4.94585 
326 ,60.9663 ,1.20349 ,0.50748 ,4.97943 
327 ,61.1584 ,1.20547 ,0.48353 ,4.74438 
328 ,61.3505 ,1.20745 ,0.48353 ,4.74438 
329 ,61.5586 ,1.20945 ,0.44588 ,4.37502 
330 ,61.7507 ,1.21139 ,0.45273 ,4.44218 
331 ,61.9427 ,1.21334 ,0.43904 ,4.30787 
332 ,62.1187 ,1.21511 ,0.40824 ,4.00566 
333 ,62.2950 ,1.21690 ,0.40140 ,3.93850 
334 ,62.4870 ,1.21878 ,0.40482 ,3.97208 
335 ,62.6791 ,1.22076 ,0.38086 ,3.73703 
336 ,62.8872 ,1.22277 ,0.38429 ,3.77061 
337 ,63.0792 ,1.22474 ,0.37060 ,3.63630 
338 ,63.2552 ,1.22652 ,0.35349 ,3.46841 
339 ,63.4314 ,1.22825 ,0.32611 ,3.19978 
340 ,63.6234 ,1.23012 ,0.32953 ,3.23336 
341 ,63.8311 ,1.23212 ,0.30900 ,3.03189 
342 ,64.0078 ,1.23401 ,0.30215 ,2.96473 
343 ,64.1837 ,1.23582 ,0.29531 ,2.89758 
344 ,64.3757 ,1.23765 ,0.26793 ,2.62895 
345 ,64.5517 ,1.23945 ,0.25767 ,2.52822 
346 ,64.7599 ,1.24150 ,0.25424 ,2.49464 
347 ,64.9679 ,1.24347 ,0.25424 ,2.49464 
348 ,65.1600 ,1.24563 ,0.23371 ,2.29317 
349 ,65.3362 ,1.24733 ,0.22687 ,2.22601 
350 ,65.5443 ,1.24924 ,0.21318 ,2.09170 
351 ,65.7363 ,1.25131 ,0.21318 ,2.09170 
352 ,65.9123 ,1.25306 ,0.19264 ,1.89023 
353 ,66.1041 ,1.25491 ,0.20291 ,1.99096 
354 ,66.2801 ,1.25682 ,0.16869 ,1.65518 
355 ,66.4566 ,1.25848 ,0.14816 ,1.45371 
356 ,66.6643 ,1.26051 ,0.15158 ,1.48729 
357 ,66.8568 ,1.26243 ,0.13105 ,1.28582 
358 ,67.0324 ,1.26427 ,0.12078 ,1.18508 
359 ,67.2090 ,1.26605 ,0.12420 ,1.21866 
360 ,67.4167 ,1.26806 ,0.09682 ,0.95004 
361 ,67.6090 ,1.26995 ,0.11393 ,1.11793 
362 ,67.7851 ,1.27179 ,0.09340 ,0.91646 
363 ,67.9612 ,1.27354 ,0.07629 ,0.74857 
364 ,68.1368 ,1.27530 ,0.06260 ,0.61425 
365 ,68.3132 ,1.27704 ,0.03865 ,0.37920 
366 ,68.4893 ,1.27880 ,0.04891 ,0.47994 
367 ,68.6655 ,1.28056 ,0.03865 ,0.37920 
368 ,68.8412 ,1.28233 ,0.02496 ,0.24489 
369 ,69.0175 ,1.28408 ,0.01469 ,0.14416 
370 ,69.1773 ,1.28583 ,-0.00242 ,-0.02373 
371 ,69.3536 ,1.28744 ,-0.01611 ,-0.15805 
372 ,69.5458 ,1.28940 ,-0.00926 ,-0.09089 
373 ,69.7377 ,1.29131 ,-0.02980 ,-0.29236 
374 ,69.9139 ,1.29304 ,-0.02980 ,-0.29236 
375 ,70.1060 ,1.29501 ,-0.01953 ,-0.19163 
376 ,70.2816 ,1.29673 ,-0.03322 ,-0.32594 
377 ,70.4897 ,1.29867 ,-0.06060 ,-0.59457 
378 ,70.6821 ,1.30062 ,-0.05375 ,-0.52741 
379 ,70.8743 ,1.30254 ,-0.07771 ,-0.76246 
380 ,71.0664 ,1.30459 ,-0.07771 ,-0.76246 
381 ,71.2423 ,1.30629 ,-0.07771 ,-0.76246 
382 ,71.4184 ,1.30817 ,-0.10166 ,-0.99751 
383 ,71.5946 ,1.30991 ,-0.12904 ,-1.26613 
384 ,71.7866 ,1.31179 ,-0.11877 ,-1.16540 
385 ,71.9626 ,1.31352 ,-0.12904 ,-1.26613 
386 ,72.1548 ,1.31537 ,-0.14273 ,-1.40045 
387 ,72.3467 ,1.31734 ,-0.14957 ,-1.46760 
388 ,72.5229 ,1.31909 ,-0.14615 ,-1.43402 
389 ,72.7150 ,1.32104 ,-0.17353 ,-1.70265 
390 ,72.9072 ,1.32288 ,-0.18379 ,-1.80338 
391 ,73.0992 ,1.32492 ,-0.19748 ,-1.93770 
392 ,73.2912 ,1.32681 ,-0.20090 ,-1.97128 
393 ,73.4990 ,1.32882 ,-0.22144 ,-2.17275 
394 ,73.6748 ,1.33066 ,-0.24881 ,-2.44137 
395 ,73.8509 ,1.33241 ,-0.24539 ,-2.40779 
396 ,74.0269 ,1.33417 ,-0.22828 ,-2.23990 
397 ,74.2191 ,1.33604 ,-0.24539 ,-2.40779 
398 ,74.3954 ,1.33785 ,-0.27277 ,-2.67642 
399 ,74.5712 ,1.33958 ,-0.27277 ,-2.67642 
400 ,74.7476 ,1.34137 ,-0.27961 ,-2.74358 
401 ,74.9239 ,1.34320 ,-0.27277 ,-2.67642 
402 ,75.1477 ,1.34521 ,-0.29673 ,-2.91147 
403 ,75.3240 ,1.34718 ,-0.29330 ,-2.87789 
404 ,75.5000 ,1.34895 ,-0.32752 ,-3.21367 
405 ,75.6761 ,1.35066 ,-0.32410 ,-3.18010 
406 ,75.8520 ,1.35241 ,-0.33779 ,-3.31441 
407 ,76.0283 ,1.35420 ,-0.33437 ,-3.28083 
408 ,76.2203 ,1.35607 ,-0.34806 ,-3.41514 
409 ,76.3967 ,1.35787 ,-0.36859 ,-3.61661 
410 ,76.5886 ,1.35968 ,-0.38228 ,-3.75093 
411 ,76.7805 ,1.36161 ,-0.38228 ,-3.75093 
412 ,76.9886 ,1.36366 ,-0.39255 ,-3.85166 
413 ,77.1646 ,1.36548 ,-0.39255 ,-3.85166 
414 ,77.3404 ,1.36732 ,-0.41650 ,-4.08671 
415 ,77.5169 ,1.36908 ,-0.43703 ,-4.28818 
416 ,77.7407 ,1.37114 ,-0.43703 ,-4.28818 
417 ,77.9329 ,1.37318 ,-0.45757 ,-4.48965 
418 ,78.1251 ,1.37513 ,-0.44730 ,-4.38891 
419 ,78.3172 ,1.37695 ,-0.47810 ,-4.69112 
420 ,78.4928 ,1.37885 ,-0.47810 ,-4.69112 
421 ,78.6533 ,1.38054 ,-0.47468 ,-4.65754 
422 ,78.8292 ,1.38217 ,-0.48837 ,-4.79185 
423 ,79.0213 ,1.38407 ,-0.50206 ,-4.92617 
424 ,79.2135 ,1.38600 ,-0.52601 ,-5.16121 
425 ,79.4058 ,1.38786 ,-0.50206 ,-4.92617 
426 ,79.6137 ,1.39004 ,-0.52943 ,-5.19479 
427 ,79.8058 ,1.39195 ,-0.53285 ,-5.22837 
428 ,79.9817 ,1.39366 ,-0.53285 ,-5.22837 
429 ,80.1576 ,1.39545 ,-0.54654 ,-5.36268 
430 ,80.3340 ,1.39720 ,-0.57050 ,-5.59773 
431 ,80.5258 ,1.39905 ,-0.56023 ,-5.49700 
432 ,80.7342 ,1.40113 ,-0.58761 ,-5.76562 
433 ,80.9260 ,1.40315 ,-0.56708 ,-5.56415 
434 ,81.1183 ,1.40513 ,-0.61156 ,-6.00067 
435 ,81.3102 ,1.40696 ,-0.61156 ,-6.00067 
436 ,81.4865 ,1.40877 ,-0.60472 ,-5.93352 
437 ,81.6784 ,1.41061 ,-0.63894 ,-6.26930 
438 ,81.8547 ,1.41242 ,-0.63894 ,-6.26930 
439 ,82.0463 ,1.41428 ,-0.63210 ,-6.20214 
440 ,82.2228 ,1.41606 ,-0.63552 ,-6.23572 
441 ,82.3986 ,1.41787 ,-0.65605 ,-6.43719 
442 ,82.5747 ,1.41957 ,-0.68001 ,-6.67224 
443 ,82.7827 ,1.42164 ,-0.66974 ,-6.57150 
444 ,82.9591 ,1.42345 ,-0.68343 ,-6.70582 
445 ,83.1508 ,1.42537 ,-0.69027 ,-6.77297 
446 ,83.3275 ,1.42717 ,-0.66974 ,-6.57150 
447 ,83.5354 ,1.42912 ,-0.71423 ,-7.00802 
448 ,83.7274 ,1.43112 ,-0.70054 ,-6.87371 
449 ,83.9035 ,1.43288 ,-0.70396 ,-6.90729 
450 ,84.0796 ,1.43467 ,-0.71423 ,-7.00802 
451 ,84.2392 ,1.43641 ,-0.74503 ,-7.31023 
452 ,84.4315 ,1.43813 ,-0.73818 ,-7.24307 
453 ,84.6238 ,1.44012 ,-0.73818 ,-7.24307 
454 ,84.8313 ,1.44213 ,-0.75530 ,-7.41096 
455 ,85.0082 ,1.44394 ,-0.77925 ,-7.64601 
456 ,85.2160 ,1.44591 ,-0.78267 ,-7.67959 
457 ,85.3919 ,1.44782 ,-0.78267 ,-7.67959 
458 ,85.5678 ,1.44954 ,-0.79636 ,-7.81390 
459 ,85.7603 ,1.45146 ,-0.81347 ,-7.98179 
460 ,85.9519 ,1.45329 ,-0.81347 ,-7.98179 
461 ,86.1278 ,1.45515 ,-0.82032 ,-8.04895 
462 ,86.3041 ,1.45690 ,-0.81347 ,-7.98179 
463 ,86.4799 ,1.45861 ,-0.83743 ,-8.21684 
