Data stamp = , 19-04-2022 21:49:17 469

Calibration Values: 
Slope = , 26.54 , g/V 
Offset Voltage at no contact = , -0.501760 , V 

No , Time , Stage Position ,   Mass , Force 
   ,  (s) ,      (mm)      ,   (g)  , (mN)  

1 ,0.0000 ,0.59949 ,5.33616 ,52.35841 
2 ,0.2136 ,0.59957 ,5.34301 ,52.42557 
3 ,0.5339 ,0.60040 ,5.34985 ,52.49273 
4 ,0.7262 ,0.60178 ,5.35669 ,52.55988 
5 ,0.9341 ,0.60359 ,5.34985 ,52.49273 
6 ,1.1424 ,0.60560 ,5.36354 ,52.62704 
7 ,1.3506 ,0.60760 ,5.34985 ,52.49273 
8 ,1.5426 ,0.60961 ,5.35669 ,52.55988 
9 ,1.7508 ,0.61168 ,5.33958 ,52.39199 
10 ,1.9267 ,0.61353 ,5.31563 ,52.15694 
11 ,2.1189 ,0.61532 ,5.32589 ,52.25768 
12 ,2.3269 ,0.61744 ,5.29167 ,51.92190 
13 ,2.5191 ,0.61943 ,5.28483 ,51.85474 
14 ,2.7106 ,0.62134 ,5.25745 ,51.58611 
15 ,2.8872 ,0.62312 ,5.23350 ,51.35107 
16 ,3.0631 ,0.62488 ,5.23350 ,51.35107 
17 ,3.2389 ,0.62659 ,5.23350 ,51.35107 
18 ,3.4155 ,0.62840 ,5.19243 ,50.94813 
19 ,3.5914 ,0.63022 ,5.18216 ,50.84739 
20 ,3.7671 ,0.63188 ,5.15821 ,50.61234 
21 ,3.9434 ,0.63367 ,5.14110 ,50.44445 
22 ,4.1677 ,0.63574 ,5.11372 ,50.17583 
23 ,4.3597 ,0.63788 ,5.09319 ,49.97436 
24 ,4.5357 ,0.63958 ,5.09661 ,50.00793 
25 ,4.7277 ,0.64137 ,5.06239 ,49.67215 
26 ,4.9040 ,0.64325 ,5.05554 ,49.60499 
27 ,5.1119 ,0.64529 ,5.03843 ,49.43710 
28 ,5.2879 ,0.64714 ,5.00421 ,49.10132 
29 ,5.4641 ,0.64889 ,5.01790 ,49.23563 
30 ,5.6563 ,0.65077 ,4.97341 ,48.79911 
31 ,5.8481 ,0.65261 ,4.95630 ,48.63122 
32 ,6.0404 ,0.65460 ,4.95288 ,48.59764 
33 ,6.2484 ,0.65663 ,4.94261 ,48.49691 
34 ,6.4405 ,0.65852 ,4.90839 ,48.16113 
35 ,6.6167 ,0.66042 ,4.90839 ,48.16113 
36 ,6.8245 ,0.66239 ,4.87759 ,47.85892 
37 ,7.0006 ,0.66432 ,4.86048 ,47.69103 
38 ,7.1768 ,0.66599 ,4.85706 ,47.65745 
39 ,7.3369 ,0.66769 ,4.81941 ,47.28809 
40 ,7.5131 ,0.66934 ,4.81257 ,47.22093 
41 ,7.6891 ,0.67112 ,4.79204 ,47.01946 
42 ,7.8814 ,0.67301 ,4.78861 ,46.98589 
43 ,8.0892 ,0.67505 ,4.75097 ,46.61653 
44 ,8.2970 ,0.67705 ,4.74413 ,46.54937 
45 ,8.4735 ,0.67897 ,4.72702 ,46.38148 
46 ,8.6811 ,0.68091 ,4.69622 ,46.07927 
47 ,8.8576 ,0.68276 ,4.69622 ,46.07927 
48 ,9.0654 ,0.68470 ,4.65857 ,45.70991 
49 ,9.2418 ,0.68663 ,4.65515 ,45.67633 
50 ,9.4497 ,0.68861 ,4.63119 ,45.44128 
51 ,9.6579 ,0.69075 ,4.61751 ,45.30697 
52 ,9.8499 ,0.69263 ,4.59013 ,45.03835 
53 ,10.0259 ,0.69448 ,4.56960 ,44.83688 
54 ,10.2339 ,0.69648 ,4.54906 ,44.63541 
55 ,10.4102 ,0.69832 ,4.53880 ,44.53467 
56 ,10.5862 ,0.70003 ,4.51484 ,44.29962 
57 ,10.7941 ,0.70209 ,4.49773 ,44.13173 
58 ,10.9704 ,0.70393 ,4.48404 ,43.99742 
59 ,11.1625 ,0.70576 ,4.47720 ,43.93026 
60 ,11.3385 ,0.70759 ,4.45324 ,43.69521 
61 ,11.5306 ,0.70952 ,4.41902 ,43.35943 
62 ,11.7227 ,0.71145 ,4.40191 ,43.19154 
63 ,11.8987 ,0.71318 ,4.40533 ,43.22512 
64 ,12.0748 ,0.71495 ,4.38822 ,43.05723 
65 ,12.2509 ,0.71674 ,4.36084 ,42.78860 
66 ,12.4266 ,0.71844 ,4.35058 ,42.68786 
67 ,12.6029 ,0.72019 ,4.33347 ,42.51997 
68 ,12.7950 ,0.72203 ,4.31978 ,42.38566 
69 ,12.9868 ,0.72401 ,4.29582 ,42.15061 
70 ,13.1632 ,0.72582 ,4.27871 ,41.98272 
71 ,13.3550 ,0.72763 ,4.26502 ,41.84841 
72 ,13.5313 ,0.72949 ,4.24449 ,41.64694 
73 ,13.7233 ,0.73134 ,4.23080 ,41.51262 
74 ,13.8996 ,0.73317 ,4.21711 ,41.37831 
75 ,14.0915 ,0.73506 ,4.19316 ,41.14326 
76 ,14.2679 ,0.73690 ,4.16920 ,40.90821 
77 ,14.4594 ,0.73870 ,4.17262 ,40.94179 
78 ,14.6360 ,0.74057 ,4.14525 ,40.67317 
79 ,14.8440 ,0.74251 ,4.11787 ,40.40454 
80 ,15.0199 ,0.74437 ,4.12129 ,40.43812 
81 ,15.2122 ,0.74627 ,4.09734 ,40.20307 
82 ,15.4202 ,0.74822 ,4.07338 ,39.96802 
83 ,15.5961 ,0.75013 ,4.07338 ,39.96802 
84 ,15.7721 ,0.75191 ,4.04258 ,39.66582 
85 ,15.9485 ,0.75367 ,4.01520 ,39.39719 
86 ,16.1566 ,0.75570 ,4.00836 ,39.33003 
87 ,16.3485 ,0.75768 ,3.99467 ,39.19572 
88 ,16.5247 ,0.75943 ,3.96387 ,38.89352 
89 ,16.7006 ,0.76116 ,3.95703 ,38.82636 
90 ,16.8770 ,0.76299 ,3.94676 ,38.72562 
91 ,17.0688 ,0.76485 ,3.92281 ,38.49058 
92 ,17.2450 ,0.76660 ,3.90227 ,38.28911 
93 ,17.4370 ,0.76853 ,3.89543 ,38.22195 
94 ,17.6448 ,0.77043 ,3.87832 ,38.05406 
95 ,17.8212 ,0.77237 ,3.85436 ,37.81901 
96 ,17.9973 ,0.77415 ,3.83725 ,37.65112 
97 ,18.1896 ,0.77603 ,3.81330 ,37.41607 
98 ,18.3816 ,0.77794 ,3.80987 ,37.38249 
99 ,18.5575 ,0.77975 ,3.79276 ,37.21460 
100 ,18.7170 ,0.78147 ,3.76881 ,36.97955 
101 ,18.8935 ,0.78309 ,3.76196 ,36.91240 
102 ,19.0857 ,0.78497 ,3.73459 ,36.64377 
103 ,19.2780 ,0.78692 ,3.72774 ,36.57661 
104 ,19.4539 ,0.78874 ,3.71748 ,36.47588 
105 ,19.6617 ,0.79072 ,3.70037 ,36.30799 
106 ,19.8382 ,0.79253 ,3.67983 ,36.10652 
107 ,20.0300 ,0.79446 ,3.64903 ,35.80431 
108 ,20.2219 ,0.79631 ,3.65246 ,35.83789 
109 ,20.4143 ,0.79827 ,3.63534 ,35.67000 
110 ,20.5904 ,0.80005 ,3.59770 ,35.30064 
111 ,20.7821 ,0.80189 ,3.59086 ,35.23348 
112 ,20.9587 ,0.80373 ,3.58059 ,35.13275 
113 ,21.1665 ,0.80577 ,3.54979 ,34.83054 
114 ,21.3587 ,0.80779 ,3.53610 ,34.69623 
115 ,21.5349 ,0.80948 ,3.52584 ,34.59549 
116 ,21.7104 ,0.81132 ,3.49504 ,34.29329 
117 ,21.8865 ,0.81302 ,3.49504 ,34.29329 
118 ,22.0629 ,0.81482 ,3.48135 ,34.15898 
119 ,22.2551 ,0.81667 ,3.46081 ,33.95751 
120 ,22.4470 ,0.81853 ,3.43686 ,33.72246 
121 ,22.6391 ,0.82050 ,3.42659 ,33.62172 
122 ,22.8153 ,0.82229 ,3.41975 ,33.55457 
123 ,23.0230 ,0.82435 ,3.37868 ,33.15163 
124 ,23.1995 ,0.82614 ,3.37868 ,33.15163 
125 ,23.3755 ,0.82795 ,3.36842 ,33.05089 
126 ,23.5517 ,0.82967 ,3.33762 ,32.74869 
127 ,23.7435 ,0.83149 ,3.32393 ,32.61437 
128 ,23.9359 ,0.83342 ,3.29655 ,32.34575 
129 ,24.1119 ,0.83530 ,3.28628 ,32.24501 
130 ,24.2878 ,0.83705 ,3.27602 ,32.14428 
131 ,24.4800 ,0.83888 ,3.27259 ,32.11070 
132 ,24.6561 ,0.84069 ,3.24864 ,31.87565 
133 ,24.8320 ,0.84248 ,3.23153 ,31.70776 
134 ,25.0241 ,0.84441 ,3.20757 ,31.47271 
135 ,25.2002 ,0.84613 ,3.20073 ,31.40555 
136 ,25.3765 ,0.84790 ,3.19388 ,31.33840 
137 ,25.5682 ,0.84977 ,3.15282 ,30.93546 
138 ,25.7445 ,0.85162 ,3.14255 ,30.83472 
139 ,25.9202 ,0.85333 ,3.12886 ,30.70041 
140 ,26.0968 ,0.85506 ,3.13229 ,30.73399 
141 ,26.2887 ,0.85696 ,3.09806 ,30.39821 
142 ,26.4649 ,0.85876 ,3.08438 ,30.26389 
143 ,26.6729 ,0.86075 ,3.07411 ,30.16316 
144 ,26.8329 ,0.86258 ,3.04673 ,29.89453 
145 ,27.0250 ,0.86432 ,3.02962 ,29.72664 
146 ,27.2168 ,0.86624 ,3.03304 ,29.76022 
147 ,27.3931 ,0.86806 ,2.99882 ,29.42444 
148 ,27.5854 ,0.86987 ,2.97487 ,29.18939 
149 ,27.7614 ,0.87176 ,2.96460 ,29.08865 
150 ,27.9530 ,0.87357 ,2.95091 ,28.95434 
151 ,28.1295 ,0.87547 ,2.93380 ,28.78645 
152 ,28.3212 ,0.87732 ,2.93380 ,28.78645 
153 ,28.4974 ,0.87911 ,2.90642 ,28.51782 
154 ,28.6898 ,0.88103 ,2.89273 ,28.38351 
155 ,28.8979 ,0.88297 ,2.88589 ,28.31635 
156 ,29.0899 ,0.88500 ,2.84482 ,27.91341 
157 ,29.2659 ,0.88678 ,2.83798 ,27.84625 
158 ,29.4255 ,0.88848 ,2.82429 ,27.71194 
159 ,29.6182 ,0.89020 ,2.82771 ,27.74552 
160 ,29.8100 ,0.89224 ,2.79007 ,27.37616 
161 ,30.0022 ,0.89406 ,2.77980 ,27.27542 
162 ,30.1941 ,0.89605 ,2.76611 ,27.14111 
163 ,30.3864 ,0.89796 ,2.75243 ,27.00680 
164 ,30.5624 ,0.89972 ,2.72505 ,26.73817 
165 ,30.7540 ,0.90161 ,2.71136 ,26.60386 
166 ,30.9305 ,0.90341 ,2.68056 ,26.30165 
167 ,31.1066 ,0.90517 ,2.67714 ,26.26807 
168 ,31.2829 ,0.90692 ,2.66345 ,26.13376 
169 ,31.4749 ,0.90887 ,2.66687 ,26.16734 
170 ,31.6511 ,0.91061 ,2.64292 ,25.93229 
171 ,31.8429 ,0.91244 ,2.61554 ,25.66367 
172 ,32.0190 ,0.91427 ,2.62238 ,25.73082 
173 ,32.1791 ,0.91600 ,2.60527 ,25.56293 
174 ,32.3873 ,0.91800 ,2.57105 ,25.22715 
175 ,32.5628 ,0.91970 ,2.55394 ,25.05926 
176 ,32.7394 ,0.92151 ,2.53683 ,24.89136 
177 ,32.9475 ,0.92351 ,2.52656 ,24.79063 
178 ,33.1232 ,0.92534 ,2.50945 ,24.62274 
179 ,33.3157 ,0.92728 ,2.50603 ,24.58916 
180 ,33.5072 ,0.92918 ,2.47523 ,24.28696 
181 ,33.6833 ,0.93094 ,2.45812 ,24.11906 
182 ,33.8592 ,0.93275 ,2.46154 ,24.15264 
183 ,34.0353 ,0.93447 ,2.44443 ,23.98475 
184 ,34.1953 ,0.93620 ,2.42390 ,23.78328 
185 ,34.3880 ,0.93794 ,2.39994 ,23.54823 
186 ,34.5961 ,0.94002 ,2.37941 ,23.34676 
187 ,34.7876 ,0.94190 ,2.36572 ,23.21245 
188 ,34.9641 ,0.94372 ,2.34519 ,23.01098 
189 ,35.1400 ,0.94556 ,2.34861 ,23.04456 
190 ,35.3003 ,0.94718 ,2.33834 ,22.94382 
191 ,35.4766 ,0.94887 ,2.32123 ,22.77593 
192 ,35.6683 ,0.95081 ,2.30412 ,22.60804 
193 ,35.8442 ,0.95250 ,2.28017 ,22.37299 
194 ,36.0206 ,0.95436 ,2.27674 ,22.33941 
195 ,36.2127 ,0.95620 ,2.26306 ,22.20510 
196 ,36.3888 ,0.95801 ,2.24252 ,22.00363 
197 ,36.5812 ,0.95984 ,2.21515 ,21.73500 
198 ,36.7890 ,0.96190 ,2.18435 ,21.43280 
199 ,36.9490 ,0.96369 ,2.19461 ,21.53353 
200 ,37.1250 ,0.96535 ,2.18092 ,21.39922 
201 ,37.3169 ,0.96729 ,2.16723 ,21.26491 
202 ,37.4930 ,0.96904 ,2.15697 ,21.16417 
203 ,37.6855 ,0.97098 ,2.13301 ,20.92912 
204 ,37.8614 ,0.97270 ,2.11590 ,20.76123 
205 ,38.0695 ,0.97468 ,2.10564 ,20.66050 
206 ,38.2614 ,0.97671 ,2.08852 ,20.49261 
207 ,38.4536 ,0.97852 ,2.06799 ,20.29114 
208 ,38.6296 ,0.98043 ,2.05430 ,20.15682 
209 ,38.8058 ,0.98214 ,2.03719 ,19.98893 
210 ,38.9978 ,0.98401 ,2.04746 ,20.08967 
211 ,39.1739 ,0.98586 ,2.01324 ,19.75388 
212 ,39.3661 ,0.98777 ,1.99270 ,19.55241 
213 ,39.5577 ,0.98959 ,1.98928 ,19.51884 
214 ,39.7342 ,0.99143 ,1.98244 ,19.45168 
215 ,39.9422 ,0.99351 ,1.94479 ,19.08232 
216 ,40.1179 ,0.99536 ,1.93795 ,19.01516 
217 ,40.2944 ,0.99704 ,1.93453 ,18.98158 
218 ,40.4700 ,0.99879 ,1.91057 ,18.74654 
219 ,40.6301 ,1.00051 ,1.89346 ,18.57864 
220 ,40.8061 ,1.00211 ,1.88319 ,18.47791 
221 ,40.9823 ,1.00388 ,1.85240 ,18.17570 
222 ,41.1583 ,1.00566 ,1.85582 ,18.20928 
223 ,41.3504 ,1.00751 ,1.83186 ,17.97423 
224 ,41.5266 ,1.00933 ,1.81133 ,17.77276 
225 ,41.7025 ,1.01108 ,1.79080 ,17.57129 
226 ,41.8787 ,1.01283 ,1.79422 ,17.60487 
227 ,42.0548 ,1.01465 ,1.78737 ,17.53772 
228 ,42.2308 ,1.01637 ,1.77026 ,17.36983 
229 ,42.4227 ,1.01822 ,1.73946 ,17.06762 
230 ,42.5988 ,1.02006 ,1.74631 ,17.13478 
231 ,42.7748 ,1.02182 ,1.73262 ,17.00046 
232 ,42.9511 ,1.02354 ,1.70524 ,16.73184 
233 ,43.1271 ,1.02530 ,1.69498 ,16.63110 
234 ,43.2872 ,1.02705 ,1.66760 ,16.36248 
235 ,43.4632 ,1.02873 ,1.65391 ,16.22816 
236 ,43.6394 ,1.03045 ,1.64364 ,16.12743 
237 ,43.8155 ,1.03218 ,1.65049 ,16.19458 
238 ,43.9914 ,1.03399 ,1.64364 ,16.12743 
239 ,44.1835 ,1.03581 ,1.60258 ,15.72449 
240 ,44.3596 ,1.03768 ,1.59573 ,15.65733 
241 ,44.5515 ,1.03957 ,1.57520 ,15.45586 
242 ,44.7279 ,1.04131 ,1.56493 ,15.35513 
243 ,44.9038 ,1.04309 ,1.54440 ,15.15366 
244 ,45.0801 ,1.04486 ,1.54098 ,15.12008 
245 ,45.2885 ,1.04690 ,1.52045 ,14.91861 
246 ,45.4645 ,1.04876 ,1.48965 ,14.61640 
247 ,45.6567 ,1.05059 ,1.50333 ,14.75072 
248 ,45.8488 ,1.05247 ,1.48622 ,14.58283 
249 ,46.0568 ,1.05447 ,1.45885 ,14.31420 
250 ,46.2328 ,1.05635 ,1.46911 ,14.41493 
251 ,46.4409 ,1.05843 ,1.42462 ,13.97842 
252 ,46.6170 ,1.06020 ,1.42805 ,14.01199 
253 ,46.7928 ,1.06196 ,1.41778 ,13.91126 
254 ,46.9692 ,1.06372 ,1.39383 ,13.67621 
255 ,47.1771 ,1.06571 ,1.39040 ,13.64263 
256 ,47.3693 ,1.06775 ,1.36645 ,13.40759 
257 ,47.5452 ,1.06953 ,1.35276 ,13.27327 
258 ,47.7216 ,1.07125 ,1.33565 ,13.10538 
259 ,47.9295 ,1.07332 ,1.32196 ,12.97107 
260 ,48.1057 ,1.07515 ,1.31854 ,12.93749 
261 ,48.2977 ,1.07697 ,1.30143 ,12.76960 
262 ,48.4737 ,1.07880 ,1.30143 ,12.76960 
263 ,48.6499 ,1.08053 ,1.28089 ,12.56813 
264 ,48.8579 ,1.08257 ,1.27063 ,12.46739 
265 ,49.0334 ,1.08436 ,1.26378 ,12.40024 
266 ,49.2421 ,1.08632 ,1.22614 ,12.03088 
267 ,49.4340 ,1.08831 ,1.21929 ,11.96372 
268 ,49.6262 ,1.09027 ,1.19534 ,11.72867 
269 ,49.8183 ,1.09218 ,1.21245 ,11.89656 
270 ,49.9944 ,1.09403 ,1.19876 ,11.76225 
271 ,50.1866 ,1.09594 ,1.16112 ,11.39289 
272 ,50.3626 ,1.09767 ,1.14743 ,11.25857 
273 ,50.5386 ,1.09941 ,1.14743 ,11.25857 
274 ,50.7148 ,1.10117 ,1.13032 ,11.09068 
275 ,50.8904 ,1.10298 ,1.12005 ,10.98995 
276 ,51.0668 ,1.10471 ,1.09952 ,10.78848 
277 ,51.2427 ,1.10646 ,1.10294 ,10.82206 
278 ,51.4188 ,1.10824 ,1.08583 ,10.65416 
279 ,51.5951 ,1.11003 ,1.07899 ,10.58701 
280 ,51.7869 ,1.11195 ,1.05503 ,10.35196 
281 ,51.9791 ,1.11376 ,1.05503 ,10.35196 
282 ,52.1713 ,1.11567 ,1.05503 ,10.35196 
283 ,52.3474 ,1.11749 ,1.00370 ,9.84829 
284 ,52.5395 ,1.11937 ,1.01739 ,9.98260 
285 ,52.7476 ,1.12143 ,0.97632 ,9.57966 
286 ,52.9235 ,1.12329 ,0.98317 ,9.64682 
287 ,53.0997 ,1.12501 ,0.98317 ,9.64682 
288 ,53.2917 ,1.12695 ,0.94894 ,9.31103 
289 ,53.4840 ,1.12888 ,0.93525 ,9.17672 
290 ,53.6759 ,1.13077 ,0.94210 ,9.24388 
291 ,53.8680 ,1.13256 ,0.91814 ,9.00883 
292 ,54.0597 ,1.13461 ,0.90788 ,8.90809 
293 ,54.2361 ,1.13640 ,0.89761 ,8.80736 
294 ,54.4118 ,1.13812 ,0.88050 ,8.63947 
295 ,54.5882 ,1.13988 ,0.86681 ,8.50515 
296 ,54.7643 ,1.14172 ,0.84628 ,8.30368 
297 ,54.9565 ,1.14360 ,0.84628 ,8.30368 
298 ,55.1321 ,1.14541 ,0.81890 ,8.03506 
299 ,55.3087 ,1.14710 ,0.81548 ,8.00148 
300 ,55.5007 ,1.14904 ,0.81890 ,8.03506 
301 ,55.6766 ,1.15080 ,0.80863 ,7.93432 
302 ,55.8849 ,1.15280 ,0.77784 ,7.63212 
303 ,56.0771 ,1.15475 ,0.77784 ,7.63212 
304 ,56.2529 ,1.15651 ,0.76415 ,7.49780 
305 ,56.4290 ,1.15832 ,0.75388 ,7.39707 
306 ,56.6050 ,1.16005 ,0.72992 ,7.16202 
307 ,56.7814 ,1.16183 ,0.71624 ,7.02771 
308 ,56.9891 ,1.16383 ,0.69228 ,6.79266 
309 ,57.1655 ,1.16564 ,0.69570 ,6.82624 
310 ,57.3734 ,1.16769 ,0.68886 ,6.75908 
311 ,57.5655 ,1.16967 ,0.66148 ,6.49046 
312 ,57.7415 ,1.17142 ,0.65806 ,6.45688 
313 ,57.9176 ,1.17317 ,0.66148 ,6.49046 
314 ,58.0777 ,1.17489 ,0.63410 ,6.22183 
315 ,58.2538 ,1.17654 ,0.62726 ,6.15467 
316 ,58.4616 ,1.17858 ,0.61699 ,6.05394 
317 ,58.6380 ,1.18039 ,0.61015 ,5.98678 
318 ,58.8299 ,1.18225 ,0.58962 ,5.78531 
319 ,59.0061 ,1.18409 ,0.57935 ,5.68458 
320 ,59.1823 ,1.18584 ,0.55539 ,5.44953 
321 ,59.3580 ,1.18762 ,0.55539 ,5.44953 
322 ,59.5504 ,1.18945 ,0.53144 ,5.21448 
323 ,59.7423 ,1.19141 ,0.52117 ,5.11375 
324 ,59.9184 ,1.19316 ,0.53144 ,5.21448 
325 ,60.1107 ,1.19511 ,0.50064 ,4.91228 
326 ,60.2868 ,1.19690 ,0.49037 ,4.81154 
327 ,60.4625 ,1.19866 ,0.46984 ,4.61007 
328 ,60.6549 ,1.20049 ,0.47668 ,4.67723 
329 ,60.8308 ,1.20247 ,0.44931 ,4.40860 
330 ,60.9909 ,1.20400 ,0.44246 ,4.34144 
331 ,61.1670 ,1.20566 ,0.42877 ,4.20713 
332 ,61.3591 ,1.20760 ,0.43562 ,4.27429 
333 ,61.5191 ,1.20929 ,0.43220 ,4.24071 
334 ,61.7111 ,1.21104 ,0.41166 ,4.03924 
335 ,61.9034 ,1.21304 ,0.39113 ,3.83777 
336 ,62.1112 ,1.21505 ,0.37744 ,3.70346 
337 ,62.2874 ,1.21686 ,0.36033 ,3.53557 
338 ,62.4636 ,1.21860 ,0.34322 ,3.36767 
339 ,62.6231 ,1.22034 ,0.34664 ,3.40125 
340 ,62.7997 ,1.22197 ,0.33980 ,3.33410 
341 ,62.9758 ,1.22373 ,0.35006 ,3.43483 
342 ,63.1514 ,1.22550 ,0.32269 ,3.16620 
343 ,63.3280 ,1.22728 ,0.29873 ,2.93116 
344 ,63.5198 ,1.22916 ,0.29873 ,2.93116 
345 ,63.6957 ,1.23096 ,0.28847 ,2.83042 
346 ,63.8721 ,1.23274 ,0.28504 ,2.79684 
347 ,64.0803 ,1.23472 ,0.27135 ,2.66253 
348 ,64.2722 ,1.23662 ,0.25424 ,2.49464 
349 ,64.4640 ,1.23862 ,0.23713 ,2.32675 
350 ,64.6405 ,1.24037 ,0.23713 ,2.32675 
351 ,64.8323 ,1.24222 ,0.22344 ,2.19243 
352 ,65.0085 ,1.24404 ,0.20633 ,2.02454 
353 ,65.1848 ,1.24586 ,0.18238 ,1.78949 
354 ,65.3768 ,1.24776 ,0.19949 ,1.95738 
355 ,65.5689 ,1.24961 ,0.19264 ,1.89023 
356 ,65.7611 ,1.25153 ,0.17896 ,1.75592 
357 ,65.9530 ,1.25345 ,0.17553 ,1.72234 
358 ,66.1451 ,1.25542 ,0.14131 ,1.38655 
359 ,66.3531 ,1.25748 ,0.14816 ,1.45371 
360 ,66.5293 ,1.25928 ,0.13789 ,1.35298 
361 ,66.7211 ,1.26119 ,0.12762 ,1.25224 
362 ,66.8972 ,1.26293 ,0.13789 ,1.35298 
363 ,67.0894 ,1.26479 ,0.11393 ,1.11793 
364 ,67.2655 ,1.26663 ,0.10025 ,0.98361 
365 ,67.4416 ,1.26838 ,0.08314 ,0.81572 
366 ,67.6334 ,1.27022 ,0.08998 ,0.88288 
367 ,67.8257 ,1.27224 ,0.06260 ,0.61425 
368 ,68.0335 ,1.27422 ,0.06602 ,0.64783 
369 ,68.2096 ,1.27608 ,0.05576 ,0.54710 
370 ,68.3860 ,1.27784 ,0.03865 ,0.37920 
371 ,68.5782 ,1.27970 ,0.03865 ,0.37920 
372 ,68.7701 ,1.28163 ,0.02154 ,0.21131 
373 ,68.9782 ,1.28368 ,0.02496 ,0.24489 
374 ,69.1542 ,1.28552 ,0.00785 ,0.07700 
375 ,69.3622 ,1.28753 ,-0.00584 ,-0.05731 
376 ,69.5544 ,1.28949 ,-0.02295 ,-0.22520 
377 ,69.7465 ,1.29135 ,-0.03664 ,-0.35952 
378 ,69.9224 ,1.29319 ,-0.05375 ,-0.52741 
379 ,70.0983 ,1.29494 ,-0.04691 ,-0.46025 
380 ,70.2907 ,1.29680 ,-0.05717 ,-0.56099 
381 ,70.4669 ,1.29865 ,-0.08797 ,-0.86319 
382 ,70.6589 ,1.30055 ,-0.08113 ,-0.79604 
383 ,70.8349 ,1.30228 ,-0.09140 ,-0.89677 
384 ,71.0111 ,1.30406 ,-0.09824 ,-0.96393 
385 ,71.2026 ,1.30593 ,-0.11877 ,-1.16540 
386 ,71.3792 ,1.30778 ,-0.12219 ,-1.19898 
387 ,71.5713 ,1.30966 ,-0.12904 ,-1.26613 
388 ,71.7473 ,1.31142 ,-0.15299 ,-1.50118 
389 ,71.9554 ,1.31339 ,-0.15642 ,-1.53476 
390 ,72.1314 ,1.31530 ,-0.15299 ,-1.50118 
391 ,72.3235 ,1.31714 ,-0.17695 ,-1.73623 
392 ,72.4997 ,1.31894 ,-0.19064 ,-1.87054 
393 ,72.6919 ,1.32081 ,-0.20090 ,-1.97128 
394 ,72.8679 ,1.32266 ,-0.20090 ,-1.97128 
395 ,73.0598 ,1.32450 ,-0.22486 ,-2.20632 
396 ,73.2360 ,1.32635 ,-0.21802 ,-2.13917 
397 ,73.4278 ,1.32829 ,-0.24881 ,-2.44137 
398 ,73.6200 ,1.33014 ,-0.26935 ,-2.64284 
399 ,73.7959 ,1.33194 ,-0.24881 ,-2.44137 
400 ,73.9883 ,1.33382 ,-0.25908 ,-2.54211 
401 ,74.1804 ,1.33570 ,-0.27277 ,-2.67642 
402 ,74.3565 ,1.33756 ,-0.28988 ,-2.84431 
403 ,74.5480 ,1.33939 ,-0.28646 ,-2.81073 
404 ,74.7246 ,1.34114 ,-0.31384 ,-3.07936 
405 ,74.9007 ,1.34296 ,-0.32410 ,-3.18010 
406 ,75.0928 ,1.34489 ,-0.31041 ,-3.04578 
407 ,75.2849 ,1.34672 ,-0.34806 ,-3.41514 
408 ,75.4605 ,1.34853 ,-0.34464 ,-3.38156 
409 ,75.6690 ,1.35050 ,-0.34806 ,-3.41514 
410 ,75.8610 ,1.35254 ,-0.37201 ,-3.65019 
411 ,76.0368 ,1.35432 ,-0.37886 ,-3.71735 
412 ,76.2292 ,1.35608 ,-0.36517 ,-3.58303 
413 ,76.4211 ,1.35814 ,-0.38570 ,-3.78450 
414 ,76.6292 ,1.36018 ,-0.39255 ,-3.85166 
415 ,76.8375 ,1.36222 ,-0.40966 ,-4.01955 
416 ,77.0135 ,1.36411 ,-0.41992 ,-4.12029 
417 ,77.2057 ,1.36590 ,-0.43703 ,-4.28818 
418 ,77.3973 ,1.36797 ,-0.43019 ,-4.22102 
419 ,77.5738 ,1.36967 ,-0.43361 ,-4.25460 
420 ,77.7979 ,1.37172 ,-0.47126 ,-4.62396 
421 ,77.9900 ,1.37383 ,-0.46441 ,-4.55681 
422 ,78.1661 ,1.37564 ,-0.47126 ,-4.62396 
423 ,78.3581 ,1.37749 ,-0.49521 ,-4.85901 
424 ,78.5500 ,1.37939 ,-0.48152 ,-4.72470 
425 ,78.7419 ,1.38124 ,-0.50548 ,-4.95975 
426 ,78.9184 ,1.38310 ,-0.53285 ,-5.22837 
427 ,79.1105 ,1.38500 ,-0.52601 ,-5.16121 
428 ,79.2865 ,1.38681 ,-0.53970 ,-5.29553 
429 ,79.4623 ,1.38854 ,-0.54654 ,-5.36268 
430 ,79.6869 ,1.39063 ,-0.54997 ,-5.39626 
431 ,79.8787 ,1.39267 ,-0.56708 ,-5.56415 
432 ,80.0707 ,1.39459 ,-0.57050 ,-5.59773 
433 ,80.2470 ,1.39643 ,-0.58077 ,-5.69847 
434 ,80.4390 ,1.39828 ,-0.59788 ,-5.86636 
435 ,80.6151 ,1.40010 ,-0.58077 ,-5.69847 
436 ,80.8072 ,1.40196 ,-0.60472 ,-5.93352 
437 ,80.9993 ,1.40385 ,-0.62183 ,-6.10141 
438 ,81.1914 ,1.40580 ,-0.62868 ,-6.16856 
439 ,81.3991 ,1.40787 ,-0.63894 ,-6.26930 
440 ,81.5754 ,1.40968 ,-0.64236 ,-6.30288 
441 ,81.7513 ,1.41141 ,-0.65263 ,-6.40361 
442 ,81.9272 ,1.41332 ,-0.65263 ,-6.40361 
443 ,82.1036 ,1.41494 ,-0.65263 ,-6.40361 
444 ,82.2799 ,1.41672 ,-0.67659 ,-6.63866 
445 ,82.4717 ,1.41861 ,-0.66974 ,-6.57150 
446 ,82.6479 ,1.42039 ,-0.67659 ,-6.63866 
447 ,82.8400 ,1.42228 ,-0.71081 ,-6.97444 
448 ,83.0317 ,1.42413 ,-0.70396 ,-6.90729 
449 ,83.1918 ,1.42594 ,-0.70739 ,-6.94086 
450 ,83.3683 ,1.42762 ,-0.70739 ,-6.94086 
451 ,83.5603 ,1.42945 ,-0.73818 ,-7.24307 
452 ,83.7520 ,1.43136 ,-0.74161 ,-7.27665 
453 ,83.9600 ,1.43345 ,-0.75187 ,-7.37738 
454 ,84.1361 ,1.43527 ,-0.76214 ,-7.47812 
455 ,84.3120 ,1.43699 ,-0.75872 ,-7.44454 
456 ,84.4883 ,1.43880 ,-0.75872 ,-7.44454 
457 ,84.6808 ,1.44071 ,-0.78610 ,-7.71317 
458 ,84.8726 ,1.44266 ,-0.77583 ,-7.61243 
459 ,85.0535 ,1.44437 ,-0.76898 ,-7.54527 
460 ,85.2567 ,1.44646 ,-0.81347 ,-7.98179 
461 ,85.4649 ,1.44848 ,-0.80321 ,-7.88106 
462 ,85.6411 ,1.45028 ,-0.81347 ,-7.98179 
463 ,85.8492 ,1.45229 ,-0.80663 ,-7.91464 
