Data stamp = , 19-04-2022 15:27:03 961

Calibration Values: 
Slope = , 26.54 , g/V 
Offset Voltage at no contact = , -0.501760 , V 

No , Time , Stage Position ,   Mass , Force 
   ,  (s) ,      (mm)      ,   (g)  , (mN)  

1 ,0.0000 ,0.64943 ,5.05212 ,49.57142 
2 ,0.2316 ,0.64953 ,5.05212 ,49.57142 
3 ,0.7121 ,0.65105 ,5.04185 ,49.47068 
4 ,0.9203 ,0.65335 ,5.04185 ,49.47068 
5 ,1.1283 ,0.65539 ,5.04185 ,49.47068 
6 ,1.3204 ,0.65733 ,5.04185 ,49.47068 
7 ,1.5125 ,0.65925 ,5.05554 ,49.60499 
8 ,1.7041 ,0.66118 ,5.02817 ,49.33637 
9 ,1.8804 ,0.66297 ,5.00421 ,49.10132 
10 ,2.0565 ,0.66484 ,4.99394 ,49.00058 
11 ,2.2648 ,0.66689 ,4.95288 ,48.59764 
12 ,2.4407 ,0.66870 ,4.95288 ,48.59764 
13 ,2.6169 ,0.67036 ,4.92892 ,48.36260 
14 ,2.7928 ,0.67217 ,4.89470 ,48.02681 
15 ,2.9688 ,0.67389 ,4.87417 ,47.82534 
16 ,3.1451 ,0.67564 ,4.85706 ,47.65745 
17 ,3.3368 ,0.67750 ,4.85706 ,47.65745 
18 ,3.5133 ,0.67931 ,4.83310 ,47.42240 
19 ,3.7052 ,0.68116 ,4.81257 ,47.22093 
20 ,3.8814 ,0.68304 ,4.78519 ,46.95231 
21 ,4.0574 ,0.68475 ,4.78177 ,46.91873 
22 ,4.2330 ,0.68652 ,4.76808 ,46.78442 
23 ,4.4096 ,0.68827 ,4.73044 ,46.41506 
24 ,4.6017 ,0.69014 ,4.72702 ,46.38148 
25 ,4.7937 ,0.69205 ,4.71675 ,46.28074 
26 ,4.9694 ,0.69387 ,4.68937 ,46.01212 
27 ,5.1298 ,0.69559 ,4.65857 ,45.70991 
28 ,5.3060 ,0.69724 ,4.64831 ,45.60918 
29 ,5.4981 ,0.69916 ,4.64146 ,45.54202 
30 ,5.6901 ,0.70098 ,4.60040 ,45.13908 
31 ,5.8823 ,0.70295 ,4.60724 ,45.20624 
32 ,6.0582 ,0.70486 ,4.58671 ,45.00477 
33 ,6.2502 ,0.70665 ,4.55933 ,44.73614 
34 ,6.4423 ,0.70852 ,4.54222 ,44.56825 
35 ,6.6185 ,0.71038 ,4.53195 ,44.46751 
36 ,6.7944 ,0.71219 ,4.49431 ,44.09815 
37 ,6.9704 ,0.71384 ,4.48404 ,43.99742 
38 ,7.1624 ,0.71578 ,4.47035 ,43.86310 
39 ,7.3547 ,0.71767 ,4.46693 ,43.82953 
40 ,7.5627 ,0.71968 ,4.43613 ,43.52732 
41 ,7.7547 ,0.72171 ,4.41560 ,43.32585 
42 ,7.9308 ,0.72349 ,4.40533 ,43.22512 
43 ,8.1231 ,0.72548 ,4.39849 ,43.15796 
44 ,8.2990 ,0.72715 ,4.37111 ,42.88933 
45 ,8.4748 ,0.72901 ,4.33004 ,42.48639 
46 ,8.6509 ,0.73075 ,4.32320 ,42.41924 
47 ,8.8269 ,0.73249 ,4.31293 ,42.31850 
48 ,9.0030 ,0.73427 ,4.31636 ,42.35208 
49 ,9.1791 ,0.73595 ,4.29582 ,42.15061 
50 ,9.3711 ,0.73780 ,4.25476 ,41.74767 
51 ,9.5637 ,0.73977 ,4.25818 ,41.78125 
52 ,9.7556 ,0.74175 ,4.23765 ,41.57978 
53 ,9.9318 ,0.74348 ,4.21369 ,41.34473 
54 ,10.1075 ,0.74528 ,4.20685 ,41.27758 
55 ,10.2998 ,0.74714 ,4.18289 ,41.04253 
56 ,10.4760 ,0.74891 ,4.16920 ,40.90821 
57 ,10.6682 ,0.75076 ,4.13840 ,40.60601 
58 ,10.8603 ,0.75277 ,4.13498 ,40.57243 
59 ,11.0359 ,0.75452 ,4.10418 ,40.27023 
60 ,11.2122 ,0.75625 ,4.08365 ,40.06876 
61 ,11.3722 ,0.75802 ,4.06312 ,39.86729 
62 ,11.5484 ,0.75962 ,4.05627 ,39.80013 
63 ,11.7243 ,0.76153 ,4.05969 ,39.83371 
64 ,11.9004 ,0.76313 ,4.04943 ,39.73297 
65 ,12.0765 ,0.76493 ,4.02205 ,39.46435 
66 ,12.2848 ,0.76697 ,4.01520 ,39.39719 
67 ,12.4929 ,0.76904 ,3.98098 ,39.06141 
68 ,12.6850 ,0.77093 ,3.97414 ,38.99425 
69 ,12.8609 ,0.77278 ,3.96045 ,38.85994 
70 ,13.0531 ,0.77466 ,3.92623 ,38.52415 
71 ,13.2292 ,0.77644 ,3.90227 ,38.28911 
72 ,13.4211 ,0.77831 ,3.91596 ,38.42342 
73 ,13.6135 ,0.78024 ,3.87832 ,38.05406 
74 ,13.8053 ,0.78220 ,3.86463 ,37.91975 
75 ,13.9971 ,0.78408 ,3.83725 ,37.65112 
76 ,14.1575 ,0.78587 ,3.82699 ,37.55038 
77 ,14.3496 ,0.78765 ,3.80303 ,37.31534 
78 ,14.5414 ,0.78962 ,3.76881 ,36.97955 
79 ,14.7179 ,0.79134 ,3.79276 ,37.21460 
80 ,14.9100 ,0.79323 ,3.75170 ,36.81166 
81 ,15.1020 ,0.79510 ,3.74828 ,36.77808 
82 ,15.2941 ,0.79709 ,3.72774 ,36.57661 
83 ,15.4702 ,0.79883 ,3.70379 ,36.34157 
84 ,15.6459 ,0.80074 ,3.70379 ,36.34157 
85 ,15.8222 ,0.80237 ,3.69010 ,36.20725 
86 ,16.0142 ,0.80425 ,3.65246 ,35.83789 
87 ,16.2064 ,0.80617 ,3.66272 ,35.93863 
88 ,16.3984 ,0.80804 ,3.62850 ,35.60284 
89 ,16.5905 ,0.80995 ,3.61481 ,35.46853 
90 ,16.7663 ,0.81186 ,3.60454 ,35.36779 
91 ,16.9587 ,0.81368 ,3.57375 ,35.06559 
92 ,17.1345 ,0.81553 ,3.56690 ,34.99843 
93 ,17.3109 ,0.81719 ,3.53952 ,34.72981 
94 ,17.5188 ,0.81925 ,3.52241 ,34.56192 
95 ,17.7106 ,0.82125 ,3.51557 ,34.49476 
96 ,17.9031 ,0.82307 ,3.50530 ,34.39402 
97 ,18.0953 ,0.82506 ,3.47450 ,34.09182 
98 ,18.2873 ,0.82697 ,3.44713 ,33.82319 
99 ,18.4791 ,0.82882 ,3.43686 ,33.72246 
100 ,18.6712 ,0.83079 ,3.43686 ,33.72246 
101 ,18.8473 ,0.83266 ,3.43344 ,33.68888 
102 ,19.0234 ,0.83433 ,3.40606 ,33.42025 
103 ,19.2154 ,0.83621 ,3.37526 ,33.11805 
104 ,19.4076 ,0.83814 ,3.37526 ,33.11805 
105 ,19.5836 ,0.84000 ,3.33762 ,32.74869 
106 ,19.7598 ,0.84172 ,3.34446 ,32.81584 
107 ,19.9676 ,0.84365 ,3.32051 ,32.58080 
108 ,20.1438 ,0.84569 ,3.30339 ,32.41290 
109 ,20.3201 ,0.84734 ,3.28628 ,32.24501 
110 ,20.5121 ,0.84923 ,3.26575 ,32.04354 
111 ,20.7200 ,0.85117 ,3.23837 ,31.77492 
112 ,20.8963 ,0.85309 ,3.23153 ,31.70776 
113 ,21.0884 ,0.85497 ,3.23495 ,31.74134 
114 ,21.2804 ,0.85693 ,3.21784 ,31.57345 
115 ,21.4726 ,0.85876 ,3.18704 ,31.27124 
116 ,21.6486 ,0.86061 ,3.17677 ,31.17051 
117 ,21.8405 ,0.86254 ,3.15282 ,30.93546 
118 ,22.0165 ,0.86436 ,3.13571 ,30.76757 
119 ,22.1925 ,0.86601 ,3.11175 ,30.53252 
120 ,22.3848 ,0.86796 ,3.12202 ,30.63325 
121 ,22.5608 ,0.86974 ,3.10491 ,30.46536 
122 ,22.7530 ,0.87157 ,3.07411 ,30.16316 
123 ,22.9449 ,0.87348 ,3.08095 ,30.23031 
124 ,23.1370 ,0.87544 ,3.03647 ,29.79380 
125 ,23.3132 ,0.87723 ,3.01251 ,29.55875 
126 ,23.4893 ,0.87908 ,3.02278 ,29.65948 
127 ,23.6653 ,0.88076 ,3.00909 ,29.52517 
128 ,23.8572 ,0.88264 ,2.96802 ,29.12223 
129 ,24.0332 ,0.88442 ,2.95433 ,28.98792 
130 ,24.2095 ,0.88616 ,2.94407 ,28.88718 
131 ,24.4176 ,0.88810 ,2.93380 ,28.78645 
132 ,24.6097 ,0.89014 ,2.93038 ,28.75287 
133 ,24.7856 ,0.89200 ,2.91327 ,28.58498 
134 ,24.9774 ,0.89389 ,2.88589 ,28.31635 
135 ,25.1540 ,0.89562 ,2.86878 ,28.14846 
136 ,25.3300 ,0.89748 ,2.87905 ,28.24919 
137 ,25.5221 ,0.89931 ,2.83798 ,27.84625 
138 ,25.7141 ,0.90115 ,2.82087 ,27.67836 
139 ,25.9224 ,0.90316 ,2.81060 ,27.57763 
140 ,26.1140 ,0.90520 ,2.80034 ,27.47689 
141 ,26.3063 ,0.90721 ,2.77296 ,27.20827 
142 ,26.4824 ,0.90895 ,2.76269 ,27.10753 
143 ,26.6744 ,0.91087 ,2.73531 ,26.83891 
144 ,26.8665 ,0.91268 ,2.74216 ,26.90606 
145 ,27.0426 ,0.91463 ,2.70452 ,26.53670 
146 ,27.2346 ,0.91642 ,2.69083 ,26.40239 
147 ,27.4106 ,0.91829 ,2.69425 ,26.43597 
148 ,27.6026 ,0.92007 ,2.67029 ,26.20092 
149 ,27.7948 ,0.92204 ,2.63949 ,25.89871 
150 ,27.9710 ,0.92380 ,2.63607 ,25.86514 
151 ,28.1310 ,0.92552 ,2.62238 ,25.73082 
152 ,28.3071 ,0.92718 ,2.61896 ,25.69724 
153 ,28.4993 ,0.92909 ,2.59501 ,25.46220 
154 ,28.6915 ,0.93093 ,2.58132 ,25.32788 
155 ,28.8833 ,0.93292 ,2.56763 ,25.19357 
156 ,29.0595 ,0.93467 ,2.54710 ,24.99210 
157 ,29.2516 ,0.93660 ,2.54025 ,24.92494 
158 ,29.4434 ,0.93853 ,2.51972 ,24.72347 
159 ,29.6356 ,0.94037 ,2.49234 ,24.45485 
160 ,29.8436 ,0.94244 ,2.47523 ,24.28696 
161 ,30.0359 ,0.94438 ,2.45812 ,24.11906 
162 ,30.2278 ,0.94636 ,2.43759 ,23.91759 
163 ,30.4201 ,0.94821 ,2.42390 ,23.78328 
164 ,30.6120 ,0.95027 ,2.42048 ,23.74970 
165 ,30.7882 ,0.95197 ,2.40679 ,23.61539 
166 ,30.9799 ,0.95387 ,2.37941 ,23.34676 
167 ,31.1562 ,0.95563 ,2.35545 ,23.11171 
168 ,31.3484 ,0.95759 ,2.35203 ,23.07814 
169 ,31.5405 ,0.95939 ,2.33492 ,22.91024 
170 ,31.7164 ,0.96133 ,2.31439 ,22.70877 
171 ,31.9086 ,0.96314 ,2.31439 ,22.70877 
172 ,32.1003 ,0.96512 ,2.27674 ,22.33941 
173 ,32.2928 ,0.96697 ,2.26648 ,22.23868 
174 ,32.4849 ,0.96895 ,2.26648 ,22.23868 
175 ,32.6605 ,0.97067 ,2.23568 ,21.93647 
176 ,32.8370 ,0.97245 ,2.22199 ,21.80216 
177 ,33.0127 ,0.97419 ,2.20830 ,21.66785 
178 ,33.1892 ,0.97594 ,2.20146 ,21.60069 
179 ,33.3652 ,0.97773 ,2.19461 ,21.53353 
180 ,33.5572 ,0.97964 ,2.15697 ,21.16417 
181 ,33.7490 ,0.98150 ,2.16039 ,21.19775 
182 ,33.9415 ,0.98343 ,2.13301 ,20.92912 
183 ,34.1333 ,0.98547 ,2.11590 ,20.76123 
184 ,34.3254 ,0.98729 ,2.11248 ,20.72766 
185 ,34.5337 ,0.98924 ,2.08510 ,20.45903 
186 ,34.7417 ,0.99136 ,2.07141 ,20.32472 
187 ,34.9337 ,0.99335 ,2.05088 ,20.12325 
188 ,35.1415 ,0.99544 ,2.02350 ,19.85462 
189 ,35.3178 ,0.99722 ,2.00982 ,19.72031 
190 ,35.5259 ,0.99930 ,2.00639 ,19.68673 
191 ,35.7180 ,1.00117 ,1.98586 ,19.48526 
192 ,35.9098 ,1.00318 ,1.97559 ,19.38452 
193 ,36.0862 ,1.00497 ,1.96875 ,19.31737 
194 ,36.2945 ,1.00694 ,1.93795 ,19.01516 
195 ,36.4862 ,1.00886 ,1.93795 ,19.01516 
196 ,36.6784 ,1.01084 ,1.90715 ,18.71296 
197 ,36.8544 ,1.01268 ,1.90373 ,18.67938 
198 ,37.0141 ,1.01434 ,1.88662 ,18.51149 
199 ,37.1906 ,1.01596 ,1.88319 ,18.47791 
200 ,37.3666 ,1.01787 ,1.85582 ,18.20928 
201 ,37.5428 ,1.01947 ,1.84555 ,18.10855 
202 ,37.7188 ,1.02119 ,1.81817 ,17.83992 
203 ,37.8951 ,1.02301 ,1.80449 ,17.70561 
204 ,38.0867 ,1.02491 ,1.81133 ,17.77276 
205 ,38.2792 ,1.02680 ,1.78053 ,17.47056 
206 ,38.4712 ,1.02870 ,1.78053 ,17.47056 
207 ,38.6634 ,1.03061 ,1.74631 ,17.13478 
208 ,38.8554 ,1.03252 ,1.74289 ,17.10120 
209 ,39.0472 ,1.03450 ,1.73262 ,17.00046 
210 ,39.2395 ,1.03647 ,1.70524 ,16.73184 
211 ,39.4154 ,1.03832 ,1.67444 ,16.42963 
212 ,39.5917 ,1.03995 ,1.67786 ,16.46321 
213 ,39.7998 ,1.04195 ,1.65733 ,16.26174 
214 ,39.9757 ,1.04380 ,1.63338 ,16.02669 
215 ,40.1676 ,1.04571 ,1.64364 ,16.12743 
216 ,40.3598 ,1.04755 ,1.60942 ,15.79164 
217 ,40.5521 ,1.04956 ,1.59916 ,15.69091 
218 ,40.7279 ,1.05138 ,1.57520 ,15.45586 
219 ,40.9041 ,1.05307 ,1.57862 ,15.48944 
220 ,41.0965 ,1.05501 ,1.56836 ,15.38871 
221 ,41.3040 ,1.05706 ,1.54440 ,15.15366 
222 ,41.4805 ,1.05886 ,1.53756 ,15.08650 
223 ,41.6725 ,1.06066 ,1.51702 ,14.88503 
224 ,41.8646 ,1.06262 ,1.50333 ,14.75072 
225 ,42.0407 ,1.06445 ,1.49649 ,14.68356 
226 ,42.2326 ,1.06636 ,1.47253 ,14.44851 
227 ,42.3928 ,1.06808 ,1.46569 ,14.38136 
228 ,42.5690 ,1.06973 ,1.45885 ,14.31420 
229 ,42.7611 ,1.07165 ,1.43489 ,14.07915 
230 ,42.9532 ,1.07348 ,1.43147 ,14.04557 
231 ,43.1291 ,1.07538 ,1.39725 ,13.70979 
232 ,43.3053 ,1.07710 ,1.39725 ,13.70979 
233 ,43.4970 ,1.07904 ,1.38698 ,13.60906 
234 ,43.6732 ,1.08079 ,1.34934 ,13.23969 
235 ,43.8653 ,1.08261 ,1.34934 ,13.23969 
236 ,44.0735 ,1.08471 ,1.32880 ,13.03822 
237 ,44.2816 ,1.08683 ,1.30485 ,12.80318 
238 ,44.4572 ,1.08874 ,1.30143 ,12.76960 
239 ,44.6497 ,1.09044 ,1.29458 ,12.70244 
240 ,44.8417 ,1.09239 ,1.28774 ,12.63528 
241 ,45.0178 ,1.09427 ,1.25694 ,12.33308 
242 ,45.1941 ,1.09597 ,1.23641 ,12.13161 
243 ,45.3699 ,1.09773 ,1.23641 ,12.13161 
244 ,45.5617 ,1.09973 ,1.20561 ,11.82941 
245 ,45.7382 ,1.10140 ,1.21245 ,11.89656 
246 ,45.9463 ,1.10337 ,1.20218 ,11.79583 
247 ,46.1380 ,1.10541 ,1.17481 ,11.52720 
248 ,46.3304 ,1.10726 ,1.17823 ,11.56078 
249 ,46.5063 ,1.10905 ,1.17138 ,11.49362 
250 ,46.6986 ,1.11096 ,1.14743 ,11.25857 
251 ,46.8904 ,1.11292 ,1.13032 ,11.09068 
252 ,47.0507 ,1.11465 ,1.12005 ,10.98995 
253 ,47.2268 ,1.11627 ,1.12005 ,10.98995 
254 ,47.4190 ,1.11824 ,1.09267 ,10.72132 
255 ,47.5950 ,1.12003 ,1.08925 ,10.68774 
256 ,47.7709 ,1.12171 ,1.06872 ,10.48627 
257 ,47.9470 ,1.12359 ,1.06872 ,10.48627 
258 ,48.1231 ,1.12522 ,1.04476 ,10.25123 
259 ,48.2993 ,1.12703 ,1.03450 ,10.15049 
260 ,48.5073 ,1.12901 ,1.02081 ,10.01618 
261 ,48.6990 ,1.13096 ,1.00712 ,9.88186 
262 ,48.8754 ,1.13277 ,0.99343 ,9.74755 
263 ,49.0515 ,1.13469 ,1.00370 ,9.84829 
264 ,49.2273 ,1.13637 ,0.98317 ,9.64682 
265 ,49.3872 ,1.13802 ,0.97290 ,9.54608 
266 ,49.5633 ,1.13971 ,0.95237 ,9.34461 
267 ,49.7399 ,1.14141 ,0.94552 ,9.27745 
268 ,49.9318 ,1.14338 ,0.94552 ,9.27745 
269 ,50.1078 ,1.14507 ,0.92157 ,9.04241 
270 ,50.3004 ,1.14697 ,0.91130 ,8.94167 
271 ,50.5078 ,1.14901 ,0.90446 ,8.87451 
272 ,50.6841 ,1.15084 ,0.90446 ,8.87451 
273 ,50.8600 ,1.15261 ,0.88050 ,8.63947 
274 ,51.0362 ,1.15434 ,0.85312 ,8.37084 
275 ,51.2124 ,1.15612 ,0.84628 ,8.30368 
276 ,51.3885 ,1.15790 ,0.85654 ,8.40442 
277 ,51.5644 ,1.15965 ,0.83601 ,8.20295 
278 ,51.7406 ,1.16141 ,0.81548 ,8.00148 
279 ,51.9163 ,1.16314 ,0.78810 ,7.73285 
280 ,52.0928 ,1.16498 ,0.80521 ,7.90074 
281 ,52.2849 ,1.16685 ,0.79152 ,7.76643 
282 ,52.4769 ,1.16870 ,0.76415 ,7.49780 
283 ,52.6690 ,1.17062 ,0.77099 ,7.56496 
284 ,52.8450 ,1.17246 ,0.75730 ,7.43065 
285 ,53.0367 ,1.17441 ,0.73677 ,7.22918 
286 ,53.2131 ,1.17613 ,0.71624 ,7.02771 
287 ,53.4051 ,1.17803 ,0.71281 ,6.99413 
288 ,53.5974 ,1.17991 ,0.69570 ,6.82624 
289 ,53.7735 ,1.18170 ,0.67859 ,6.65835 
290 ,53.9654 ,1.18358 ,0.66833 ,6.55761 
291 ,54.1250 ,1.18540 ,0.66833 ,6.55761 
292 ,54.3014 ,1.18700 ,0.65806 ,6.45688 
293 ,54.4938 ,1.18893 ,0.62726 ,6.15467 
294 ,54.6857 ,1.19076 ,0.63410 ,6.22183 
295 ,54.8619 ,1.19266 ,0.61357 ,6.02036 
296 ,55.0535 ,1.19450 ,0.59988 ,5.88605 
297 ,55.2298 ,1.19629 ,0.58619 ,5.75173 
298 ,55.4221 ,1.19818 ,0.58277 ,5.71815 
299 ,55.6140 ,1.20002 ,0.54855 ,5.38237 
300 ,55.8062 ,1.20199 ,0.56224 ,5.51668 
301 ,55.9819 ,1.20393 ,0.54171 ,5.31522 
302 ,56.1579 ,1.20559 ,0.52459 ,5.14732 
303 ,56.3180 ,1.20726 ,0.51091 ,5.01301 
304 ,56.4945 ,1.20896 ,0.50064 ,4.91228 
305 ,56.6865 ,1.21084 ,0.49037 ,4.81154 
306 ,56.8787 ,1.21273 ,0.47326 ,4.64365 
307 ,57.0547 ,1.21458 ,0.48011 ,4.71081 
308 ,57.2307 ,1.21627 ,0.46300 ,4.54291 
309 ,57.4064 ,1.21802 ,0.46300 ,4.54291 
310 ,57.5991 ,1.21986 ,0.45273 ,4.44218 
311 ,57.7910 ,1.22191 ,0.41851 ,4.10640 
312 ,57.9671 ,1.22366 ,0.41509 ,4.07282 
313 ,58.1592 ,1.22556 ,0.38771 ,3.80419 
314 ,58.3669 ,1.22758 ,0.40140 ,3.93850 
315 ,58.5435 ,1.22939 ,0.37744 ,3.70346 
316 ,58.7514 ,1.23142 ,0.36375 ,3.56914 
317 ,58.9436 ,1.23338 ,0.34664 ,3.40125 
318 ,59.1353 ,1.23534 ,0.34664 ,3.40125 
319 ,59.3117 ,1.23707 ,0.31584 ,3.09905 
320 ,59.4877 ,1.23895 ,0.33295 ,3.26694 
321 ,59.6640 ,1.24061 ,0.31584 ,3.09905 
322 ,59.8557 ,1.24242 ,0.29531 ,2.89758 
323 ,60.0480 ,1.24440 ,0.28847 ,2.83042 
324 ,60.2401 ,1.24630 ,0.27820 ,2.72969 
325 ,60.4161 ,1.24815 ,0.26109 ,2.56179 
326 ,60.6082 ,1.25001 ,0.25424 ,2.49464 
327 ,60.8003 ,1.25194 ,0.24055 ,2.36032 
328 ,60.9763 ,1.25378 ,0.22344 ,2.19243 
329 ,61.1684 ,1.25564 ,0.22687 ,2.22601 
330 ,61.3606 ,1.25758 ,0.22687 ,2.22601 
331 ,61.5525 ,1.25942 ,0.19949 ,1.95738 
332 ,61.7444 ,1.26135 ,0.19607 ,1.92381 
333 ,61.9367 ,1.26326 ,0.18238 ,1.78949 
334 ,62.1287 ,1.26517 ,0.17896 ,1.75592 
335 ,62.2886 ,1.26698 ,0.16869 ,1.65518 
336 ,62.4648 ,1.26858 ,0.16185 ,1.58802 
337 ,62.6407 ,1.27036 ,0.13789 ,1.35298 
338 ,62.8329 ,1.27226 ,0.12078 ,1.18508 
339 ,63.0252 ,1.27421 ,0.12420 ,1.21866 
340 ,63.2173 ,1.27605 ,0.09340 ,0.91646 
341 ,63.4094 ,1.27803 ,0.09682 ,0.95004 
342 ,63.6173 ,1.28007 ,0.07629 ,0.74857 
343 ,63.7931 ,1.28189 ,0.06945 ,0.68141 
344 ,63.9698 ,1.28361 ,0.06602 ,0.64783 
345 ,64.1776 ,1.28564 ,0.05234 ,0.51352 
346 ,64.3696 ,1.28758 ,0.04891 ,0.47994 
347 ,64.5618 ,1.28949 ,0.03865 ,0.37920 
348 ,64.7538 ,1.29141 ,0.00443 ,0.04342 
349 ,64.9459 ,1.29336 ,0.01469 ,0.14416 
350 ,65.1216 ,1.29529 ,-0.00242 ,-0.02373 
351 ,65.2982 ,1.29690 ,-0.01269 ,-0.12447 
352 ,65.4740 ,1.29883 ,-0.03664 ,-0.35952 
353 ,65.6502 ,1.30048 ,-0.04006 ,-0.39310 
354 ,65.8422 ,1.30230 ,-0.04006 ,-0.39310 
355 ,66.0341 ,1.30429 ,-0.06744 ,-0.66172 
356 ,66.2262 ,1.30617 ,-0.07428 ,-0.72888 
357 ,66.4025 ,1.30794 ,-0.07086 ,-0.69530 
358 ,66.5785 ,1.30970 ,-0.08455 ,-0.82961 
359 ,66.7706 ,1.31157 ,-0.11193 ,-1.09824 
360 ,66.9304 ,1.31335 ,-0.10508 ,-1.03108 
361 ,67.1067 ,1.31502 ,-0.12219 ,-1.19898 
362 ,67.2989 ,1.31692 ,-0.11877 ,-1.16540 
363 ,67.4909 ,1.31878 ,-0.13588 ,-1.33329 
364 ,67.6669 ,1.32062 ,-0.16326 ,-1.60191 
365 ,67.8589 ,1.32256 ,-0.15299 ,-1.50118 
366 ,68.0348 ,1.32439 ,-0.17011 ,-1.66907 
367 ,68.2112 ,1.32610 ,-0.17353 ,-1.70265 
368 ,68.4033 ,1.32795 ,-0.19064 ,-1.87054 
369 ,68.5953 ,1.32982 ,-0.20433 ,-2.00485 
370 ,68.7714 ,1.33165 ,-0.20775 ,-2.03843 
371 ,68.9793 ,1.33368 ,-0.21459 ,-2.10559 
372 ,69.1393 ,1.33547 ,-0.22486 ,-2.20632 
373 ,69.3155 ,1.33707 ,-0.23513 ,-2.30706 
374 ,69.5077 ,1.33893 ,-0.24539 ,-2.40779 
375 ,69.6996 ,1.34085 ,-0.26250 ,-2.57569 
376 ,69.8758 ,1.34270 ,-0.26250 ,-2.57569 
377 ,70.0520 ,1.34451 ,-0.28304 ,-2.77716 
378 ,70.2281 ,1.34617 ,-0.29673 ,-2.91147 
379 ,70.4039 ,1.34798 ,-0.29330 ,-2.87789 
380 ,70.5802 ,1.34970 ,-0.30357 ,-2.97863 
381 ,70.7563 ,1.35149 ,-0.32068 ,-3.14652 
382 ,70.9484 ,1.35333 ,-0.32410 ,-3.18010 
383 ,71.1401 ,1.35534 ,-0.33437 ,-3.28083 
384 ,71.3164 ,1.35720 ,-0.35832 ,-3.51588 
385 ,71.5085 ,1.35891 ,-0.35832 ,-3.51588 
386 ,71.7005 ,1.36085 ,-0.35148 ,-3.44872 
387 ,71.8927 ,1.36286 ,-0.37886 ,-3.71735 
388 ,72.0689 ,1.36458 ,-0.38228 ,-3.75093 
389 ,72.2608 ,1.36650 ,-0.38570 ,-3.78450 
390 ,72.4369 ,1.36835 ,-0.41650 ,-4.08671 
391 ,72.6289 ,1.37015 ,-0.42677 ,-4.18744 
392 ,72.8210 ,1.37206 ,-0.41308 ,-4.05313 
393 ,73.0130 ,1.37397 ,-0.44730 ,-4.38891 
394 ,73.2053 ,1.37593 ,-0.45072 ,-4.42249 
395 ,73.3809 ,1.37787 ,-0.45072 ,-4.42249 
396 ,73.5574 ,1.37949 ,-0.45757 ,-4.48965 
397 ,73.7496 ,1.38146 ,-0.48152 ,-4.72470 
398 ,73.9418 ,1.38331 ,-0.47810 ,-4.69112 
399 ,74.1334 ,1.38520 ,-0.50206 ,-4.92617 
400 ,74.3259 ,1.38717 ,-0.49863 ,-4.89259 
401 ,74.5176 ,1.38915 ,-0.50890 ,-4.99332 
402 ,74.6940 ,1.39084 ,-0.51232 ,-5.02690 
403 ,74.8861 ,1.39280 ,-0.52601 ,-5.16121 
404 ,75.0459 ,1.39450 ,-0.52259 ,-5.12764 
405 ,75.2219 ,1.39613 ,-0.53970 ,-5.29553 
406 ,75.3984 ,1.39785 ,-0.52943 ,-5.19479 
407 ,75.5739 ,1.39963 ,-0.53970 ,-5.29553 
408 ,75.7504 ,1.40138 ,-0.56708 ,-5.56415 
409 ,75.9423 ,1.40333 ,-0.57050 ,-5.59773 
410 ,76.1342 ,1.40526 ,-0.57392 ,-5.63131 
411 ,76.3107 ,1.40701 ,-0.59103 ,-5.79920 
412 ,76.4865 ,1.40882 ,-0.61499 ,-6.03425 
413 ,76.6628 ,1.41058 ,-0.59788 ,-5.86636 
414 ,76.8548 ,1.41239 ,-0.61841 ,-6.06783 
415 ,77.0309 ,1.41435 ,-0.62868 ,-6.16856 
416 ,77.4470 ,1.41724 ,-0.62525 ,-6.13499 
417 ,77.6387 ,1.42029 ,-0.63552 ,-6.23572 
418 ,77.8152 ,1.42204 ,-0.65263 ,-6.40361 
419 ,78.0069 ,1.42397 ,-0.66632 ,-6.53793 
420 ,78.1833 ,1.42572 ,-0.66290 ,-6.50435 
421 ,78.3594 ,1.42750 ,-0.67659 ,-6.63866 
422 ,78.5352 ,1.42924 ,-0.69027 ,-6.77297 
423 ,78.7112 ,1.43101 ,-0.70396 ,-6.90729 
424 ,78.8876 ,1.43276 ,-0.71765 ,-7.04160 
425 ,79.0637 ,1.43456 ,-0.72450 ,-7.10876 
426 ,79.2718 ,1.43655 ,-0.73476 ,-7.20949 
427 ,79.4638 ,1.43853 ,-0.73134 ,-7.17591 
428 ,79.6396 ,1.44034 ,-0.75530 ,-7.41096 
429 ,79.7996 ,1.44202 ,-0.74503 ,-7.31023 
430 ,79.9759 ,1.44364 ,-0.75530 ,-7.41096 
431 ,80.1518 ,1.44539 ,-0.77241 ,-7.57885 
432 ,80.3441 ,1.44737 ,-0.78952 ,-7.74674 
433 ,80.5361 ,1.44922 ,-0.77583 ,-7.61243 
434 ,80.7125 ,1.45103 ,-0.80663 ,-7.91464 
435 ,80.8884 ,1.45282 ,-0.81005 ,-7.94821 
436 ,81.0484 ,1.45448 ,-0.82032 ,-8.04895 
437 ,81.2244 ,1.45611 ,-0.83401 ,-8.18326 
438 ,81.4165 ,1.45796 ,-0.82716 ,-8.11611 
439 ,81.5927 ,1.45984 ,-0.84085 ,-8.25042 
440 ,81.7848 ,1.46177 ,-0.85112 ,-8.35115 
441 ,81.9608 ,1.46356 ,-0.84769 ,-8.31758 
442 ,82.1208 ,1.46524 ,-0.85796 ,-8.41831 
443 ,82.2970 ,1.46684 ,-0.86138 ,-8.45189 
444 ,82.5051 ,1.46882 ,-0.88192 ,-8.65336 
445 ,82.6972 ,1.47079 ,-0.88192 ,-8.65336 
446 ,82.8893 ,1.47271 ,-0.91272 ,-8.95556 
447 ,83.0651 ,1.47459 ,-0.90587 ,-8.88841 
448 ,83.2573 ,1.47637 ,-0.91272 ,-8.95556 
449 ,83.4495 ,1.47831 ,-0.93667 ,-9.19061 
450 ,83.6255 ,1.48013 ,-0.94009 ,-9.22419 
451 ,83.8175 ,1.48204 ,-0.91956 ,-9.02272 
452 ,84.0092 ,1.48403 ,-0.95036 ,-9.32492 
453 ,84.1857 ,1.48572 ,-0.97431 ,-9.55997 
454 ,84.3779 ,1.48767 ,-0.96405 ,-9.45924 
455 ,84.5860 ,1.48959 ,-0.98458 ,-9.66071 
456 ,84.7780 ,1.49158 ,-0.98116 ,-9.62713 
457 ,84.9700 ,1.49348 ,-1.00854 ,-9.89576 
458 ,85.1461 ,1.49538 ,-0.99827 ,-9.79502 
459 ,85.3222 ,1.49710 ,-1.00854 ,-9.89576 
460 ,85.5143 ,1.49901 ,-1.01880 ,-9.99649 
461 ,85.7221 ,1.50090 ,-1.01880 ,-9.99649 
462 ,85.8984 ,1.50284 ,-1.03249 ,-10.13080 
