Data stamp = , 20-04-2022 07:07:55 926

Calibration Values: 
Slope = , 26.54 , g/V 
Offset Voltage at no contact = , -0.501760 , V 

No , Time , Stage Position ,   Mass , Force 
   ,  (s) ,      (mm)      ,   (g)  , (mN)  

1 ,0.0000 ,0.59941 ,5.37038 ,52.69420 
2 ,0.2176 ,0.59951 ,5.35327 ,52.52631 
3 ,0.7140 ,0.60098 ,5.37723 ,52.76135 
4 ,0.9222 ,0.60338 ,5.36696 ,52.66062 
5 ,1.1143 ,0.60528 ,5.36696 ,52.66062 
6 ,1.3059 ,0.60719 ,5.37723 ,52.76135 
7 ,1.4981 ,0.60900 ,5.36354 ,52.62704 
8 ,1.6745 ,0.61092 ,5.33616 ,52.35841 
9 ,1.8666 ,0.61274 ,5.32589 ,52.25768 
10 ,2.0588 ,0.61477 ,5.30878 ,52.08979 
11 ,2.2506 ,0.61666 ,5.29167 ,51.92190 
12 ,2.4261 ,0.61847 ,5.26772 ,51.68685 
13 ,2.6028 ,0.62019 ,5.24034 ,51.41822 
14 ,2.7948 ,0.62213 ,5.23007 ,51.31749 
15 ,2.9709 ,0.62383 ,5.22323 ,51.25033 
16 ,3.1470 ,0.62563 ,5.18901 ,50.91455 
17 ,3.3230 ,0.62736 ,5.17532 ,50.78023 
18 ,3.4992 ,0.62923 ,5.16163 ,50.64592 
19 ,3.6751 ,0.63087 ,5.13425 ,50.37729 
20 ,3.8514 ,0.63268 ,5.12741 ,50.31014 
21 ,4.0589 ,0.63471 ,5.08634 ,49.90720 
22 ,4.2191 ,0.63644 ,5.08977 ,49.94078 
23 ,4.3954 ,0.63810 ,5.05897 ,49.63857 
24 ,4.5717 ,0.63985 ,5.06239 ,49.67215 
25 ,4.7478 ,0.64166 ,5.04870 ,49.53784 
26 ,4.9398 ,0.64348 ,5.01106 ,49.16848 
27 ,5.1158 ,0.64532 ,4.98710 ,48.93343 
28 ,5.2919 ,0.64705 ,5.00079 ,49.06774 
29 ,5.4840 ,0.64895 ,4.96315 ,48.69838 
30 ,5.6761 ,0.65090 ,4.93919 ,48.46333 
31 ,5.8518 ,0.65264 ,4.94261 ,48.49691 
32 ,6.0444 ,0.65449 ,4.91866 ,48.26186 
33 ,6.2203 ,0.65640 ,4.90155 ,48.09397 
34 ,6.3961 ,0.65809 ,4.87759 ,47.85892 
35 ,6.5725 ,0.65985 ,4.87759 ,47.85892 
36 ,6.7486 ,0.66164 ,4.85021 ,47.59030 
37 ,6.9245 ,0.66344 ,4.83310 ,47.42240 
38 ,7.1167 ,0.66526 ,4.80230 ,47.12020 
39 ,7.2764 ,0.66702 ,4.79888 ,47.08662 
40 ,7.4524 ,0.66862 ,4.79546 ,47.05304 
41 ,7.6285 ,0.67040 ,4.76808 ,46.78442 
42 ,7.8046 ,0.67218 ,4.75439 ,46.65010 
43 ,7.9806 ,0.67392 ,4.72017 ,46.31432 
44 ,8.1567 ,0.67569 ,4.70648 ,46.18001 
45 ,8.3167 ,0.67744 ,4.69964 ,46.11285 
46 ,8.4767 ,0.67900 ,4.69622 ,46.07927 
47 ,8.6688 ,0.68075 ,4.67568 ,45.87780 
48 ,8.8448 ,0.68259 ,4.66199 ,45.74349 
49 ,9.0210 ,0.68429 ,4.63462 ,45.47486 
50 ,9.1969 ,0.68617 ,4.62777 ,45.40771 
51 ,9.3571 ,0.68782 ,4.61066 ,45.23981 
52 ,9.5172 ,0.68942 ,4.58671 ,45.00477 
53 ,9.6773 ,0.69103 ,4.57302 ,44.87045 
54 ,9.8535 ,0.69269 ,4.55249 ,44.66898 
55 ,10.0455 ,0.69453 ,4.54564 ,44.60183 
56 ,10.2216 ,0.69632 ,4.51484 ,44.29962 
57 ,10.3976 ,0.69810 ,4.51142 ,44.26604 
58 ,10.5575 ,0.69982 ,4.49089 ,44.06457 
59 ,10.7498 ,0.70154 ,4.47720 ,43.93026 
60 ,10.9098 ,0.70336 ,4.46009 ,43.76237 
61 ,11.0860 ,0.70498 ,4.45324 ,43.69521 
62 ,11.2460 ,0.70671 ,4.42244 ,43.39301 
63 ,11.4220 ,0.70830 ,4.40533 ,43.22512 
64 ,11.5982 ,0.71008 ,4.39507 ,43.12438 
65 ,11.7903 ,0.71203 ,4.38480 ,43.02365 
66 ,11.9668 ,0.71382 ,4.37795 ,42.95649 
67 ,12.1425 ,0.71553 ,4.33347 ,42.51997 
68 ,12.3663 ,0.71761 ,4.31978 ,42.38566 
69 ,12.5429 ,0.71954 ,4.29582 ,42.15061 
70 ,12.7350 ,0.72153 ,4.28898 ,42.08345 
71 ,12.9429 ,0.72337 ,4.26845 ,41.88198 
72 ,13.1187 ,0.72532 ,4.24791 ,41.68051 
73 ,13.3111 ,0.72715 ,4.23765 ,41.57978 
74 ,13.4870 ,0.72894 ,4.21711 ,41.37831 
75 ,13.6634 ,0.73077 ,4.19658 ,41.17684 
76 ,13.8555 ,0.73260 ,4.18289 ,41.04253 
77 ,14.0315 ,0.73442 ,4.18974 ,41.10968 
78 ,14.2234 ,0.73631 ,4.14183 ,40.63959 
79 ,14.3997 ,0.73814 ,4.13156 ,40.53885 
80 ,14.6078 ,0.74016 ,4.11445 ,40.37096 
81 ,14.7838 ,0.74193 ,4.10418 ,40.27023 
82 ,14.9600 ,0.74369 ,4.09391 ,40.16949 
83 ,15.1520 ,0.74561 ,4.08023 ,40.03518 
84 ,15.3280 ,0.74745 ,4.03574 ,39.59866 
85 ,15.5039 ,0.74917 ,4.02205 ,39.46435 
86 ,15.6960 ,0.75103 ,4.01178 ,39.36361 
87 ,15.8728 ,0.75284 ,4.01520 ,39.39719 
88 ,16.0804 ,0.75487 ,3.99809 ,39.22930 
89 ,16.2885 ,0.75685 ,3.98441 ,39.09499 
90 ,16.4806 ,0.75893 ,3.94334 ,38.69205 
91 ,16.7044 ,0.76100 ,3.91938 ,38.45700 
92 ,16.8806 ,0.76290 ,3.90227 ,38.28911 
93 ,17.0568 ,0.76466 ,3.89885 ,38.25553 
94 ,17.2487 ,0.76654 ,3.86805 ,37.95332 
95 ,17.4246 ,0.76829 ,3.85436 ,37.81901 
96 ,17.6006 ,0.77014 ,3.83383 ,37.61754 
97 ,17.7931 ,0.77204 ,3.84410 ,37.71828 
98 ,17.9850 ,0.77399 ,3.80645 ,37.34891 
99 ,18.1774 ,0.77586 ,3.79619 ,37.24818 
100 ,18.3530 ,0.77765 ,3.78592 ,37.14744 
101 ,18.5288 ,0.77947 ,3.74485 ,36.74450 
102 ,18.7054 ,0.78115 ,3.73117 ,36.61019 
103 ,18.8815 ,0.78293 ,3.73459 ,36.64377 
104 ,19.0734 ,0.78482 ,3.73117 ,36.61019 
105 ,19.2657 ,0.78670 ,3.70379 ,36.34157 
106 ,19.4578 ,0.78867 ,3.69352 ,36.24083 
107 ,19.6497 ,0.79053 ,3.65246 ,35.83789 
108 ,19.8419 ,0.79255 ,3.65588 ,35.87147 
109 ,20.0180 ,0.79428 ,3.64903 ,35.80431 
110 ,20.2101 ,0.79619 ,3.61139 ,35.43495 
111 ,20.4020 ,0.79810 ,3.60112 ,35.33422 
112 ,20.5783 ,0.79989 ,3.59086 ,35.23348 
113 ,20.7703 ,0.80180 ,3.57032 ,35.03201 
114 ,20.9624 ,0.80370 ,3.54979 ,34.83054 
115 ,21.1545 ,0.80555 ,3.53268 ,34.66265 
116 ,21.3782 ,0.80770 ,3.51215 ,34.46118 
117 ,21.5547 ,0.80961 ,3.51215 ,34.46118 
118 ,21.7624 ,0.81167 ,3.47450 ,34.09182 
119 ,21.9388 ,0.81351 ,3.46766 ,34.02466 
120 ,22.1149 ,0.81525 ,3.45397 ,33.89035 
121 ,22.3070 ,0.81714 ,3.42659 ,33.62172 
122 ,22.4831 ,0.81896 ,3.40606 ,33.42025 
123 ,22.6751 ,0.82085 ,3.40606 ,33.42025 
124 ,22.8512 ,0.82256 ,3.37868 ,33.15163 
125 ,23.0433 ,0.82445 ,3.37184 ,33.08447 
126 ,23.2354 ,0.82642 ,3.36499 ,33.01731 
127 ,23.4113 ,0.82826 ,3.31708 ,32.54722 
128 ,23.5875 ,0.82995 ,3.31024 ,32.48006 
129 ,23.7791 ,0.83186 ,3.30682 ,32.44648 
130 ,23.9555 ,0.83363 ,3.29997 ,32.37933 
131 ,24.1635 ,0.83562 ,3.27602 ,32.14428 
132 ,24.3398 ,0.83748 ,3.24522 ,31.84207 
133 ,24.5477 ,0.83949 ,3.22468 ,31.64060 
134 ,24.7239 ,0.84132 ,3.22126 ,31.60702 
135 ,24.9155 ,0.84317 ,3.21100 ,31.50629 
136 ,25.0921 ,0.84496 ,3.18362 ,31.23766 
137 ,25.2683 ,0.84675 ,3.16993 ,31.10335 
138 ,25.4281 ,0.84847 ,3.14940 ,30.90188 
139 ,25.6043 ,0.85009 ,3.14255 ,30.83472 
140 ,25.7803 ,0.85193 ,3.13571 ,30.76757 
141 ,25.9562 ,0.85369 ,3.12886 ,30.70041 
142 ,26.1486 ,0.85554 ,3.09464 ,30.36463 
143 ,26.3405 ,0.85738 ,3.09806 ,30.39821 
144 ,26.5167 ,0.85923 ,3.07753 ,30.19674 
145 ,26.7568 ,0.86137 ,3.06726 ,30.09600 
146 ,26.9489 ,0.86351 ,3.02620 ,29.69306 
147 ,27.1409 ,0.86538 ,3.01935 ,29.62590 
148 ,27.3171 ,0.86725 ,3.01593 ,29.59233 
149 ,27.5411 ,0.86933 ,2.97829 ,29.22297 
150 ,27.7493 ,0.87150 ,2.95091 ,28.95434 
151 ,27.9412 ,0.87343 ,2.95091 ,28.95434 
152 ,28.1170 ,0.87522 ,2.93380 ,28.78645 
153 ,28.3094 ,0.87713 ,2.90642 ,28.51782 
154 ,28.5011 ,0.87905 ,2.91327 ,28.58498 
155 ,28.6776 ,0.88082 ,2.91669 ,28.61856 
156 ,28.8375 ,0.88256 ,2.86536 ,28.11488 
157 ,29.0136 ,0.88420 ,2.86536 ,28.11488 
158 ,29.1897 ,0.88596 ,2.83456 ,27.81268 
159 ,29.3979 ,0.88794 ,2.82771 ,27.74552 
160 ,29.6060 ,0.89007 ,2.80718 ,27.54405 
161 ,29.7979 ,0.89198 ,2.79349 ,27.40974 
162 ,29.9742 ,0.89382 ,2.77296 ,27.20827 
163 ,30.1661 ,0.89574 ,2.75585 ,27.04038 
164 ,30.3417 ,0.89753 ,2.75243 ,27.00680 
165 ,30.5020 ,0.89920 ,2.74558 ,26.93964 
166 ,30.6942 ,0.90092 ,2.71136 ,26.60386 
167 ,30.8863 ,0.90282 ,2.69425 ,26.43597 
168 ,31.0784 ,0.90476 ,2.69767 ,26.46954 
169 ,31.2547 ,0.90654 ,2.67372 ,26.23450 
170 ,31.4307 ,0.90835 ,2.65318 ,26.03303 
171 ,31.6068 ,0.91011 ,2.64292 ,25.93229 
172 ,31.8148 ,0.91208 ,2.63607 ,25.86514 
173 ,31.9909 ,0.91393 ,2.60527 ,25.56293 
174 ,32.1831 ,0.91587 ,2.59501 ,25.46220 
175 ,32.3912 ,0.91779 ,2.57447 ,25.26073 
176 ,32.5668 ,0.91969 ,2.56078 ,25.12641 
177 ,32.7432 ,0.92144 ,2.55052 ,25.02568 
178 ,32.9194 ,0.92323 ,2.54367 ,24.95852 
179 ,33.0953 ,0.92502 ,2.52998 ,24.82421 
180 ,33.2715 ,0.92674 ,2.50261 ,24.55558 
181 ,33.4476 ,0.92852 ,2.48550 ,24.38769 
182 ,33.6073 ,0.93020 ,2.47865 ,24.32053 
183 ,33.7835 ,0.93186 ,2.46154 ,24.15264 
184 ,33.9758 ,0.93381 ,2.45812 ,24.11906 
185 ,34.1519 ,0.93555 ,2.42732 ,23.81686 
186 ,34.3600 ,0.93759 ,2.41705 ,23.71612 
187 ,34.5678 ,0.93956 ,2.39310 ,23.48108 
188 ,34.7602 ,0.94157 ,2.40336 ,23.58181 
189 ,34.9521 ,0.94352 ,2.35545 ,23.11171 
190 ,35.1283 ,0.94531 ,2.34861 ,23.04456 
191 ,35.3202 ,0.94718 ,2.34861 ,23.04456 
192 ,35.4963 ,0.94903 ,2.33492 ,22.91024 
193 ,35.6880 ,0.95092 ,2.29385 ,22.50731 
194 ,35.8646 ,0.95264 ,2.30070 ,22.57446 
195 ,36.0567 ,0.95460 ,2.27674 ,22.33941 
196 ,36.2648 ,0.95664 ,2.26990 ,22.27226 
197 ,36.4568 ,0.95856 ,2.24252 ,22.00363 
198 ,36.6327 ,0.96031 ,2.21857 ,21.76858 
199 ,36.8089 ,0.96209 ,2.19461 ,21.53353 
200 ,36.9850 ,0.96385 ,2.20488 ,21.63427 
201 ,37.1611 ,0.96562 ,2.20488 ,21.63427 
202 ,37.3372 ,0.96741 ,2.17066 ,21.29849 
203 ,37.5452 ,0.96941 ,2.16723 ,21.26491 
204 ,37.7213 ,0.97127 ,2.13986 ,20.99628 
205 ,37.8973 ,0.97301 ,2.11932 ,20.79481 
206 ,38.0894 ,0.97489 ,2.10221 ,20.62692 
207 ,38.2656 ,0.97666 ,2.09879 ,20.59334 
208 ,38.4577 ,0.97853 ,2.06799 ,20.29114 
209 ,38.6497 ,0.98047 ,2.05773 ,20.19040 
210 ,38.8415 ,0.98235 ,2.05430 ,20.15682 
211 ,39.0179 ,0.98421 ,2.05088 ,20.12325 
212 ,39.2254 ,0.98626 ,2.00639 ,19.68673 
213 ,39.4175 ,0.98815 ,1.99270 ,19.55241 
214 ,39.5939 ,0.98994 ,1.97217 ,19.35094 
215 ,39.8181 ,0.99220 ,1.96533 ,19.28379 
216 ,39.9780 ,0.99388 ,1.95164 ,19.14948 
217 ,40.1543 ,0.99558 ,1.93795 ,19.01516 
218 ,40.3464 ,0.99749 ,1.92768 ,18.91443 
219 ,40.5385 ,0.99933 ,1.90031 ,18.64580 
220 ,40.7305 ,1.00128 ,1.88319 ,18.47791 
221 ,40.9225 ,1.00316 ,1.87293 ,18.37717 
222 ,41.1147 ,1.00515 ,1.84897 ,18.14213 
223 ,41.3389 ,1.00727 ,1.84213 ,18.07497 
224 ,41.5148 ,1.00912 ,1.82160 ,17.87350 
225 ,41.6911 ,1.01093 ,1.80106 ,17.67203 
226 ,41.8831 ,1.01278 ,1.79764 ,17.63845 
227 ,42.0908 ,1.01484 ,1.77711 ,17.43698 
228 ,42.2674 ,1.01669 ,1.77026 ,17.36983 
229 ,42.4593 ,1.01853 ,1.74289 ,17.10120 
230 ,42.6354 ,1.02035 ,1.72578 ,16.93331 
231 ,42.8430 ,1.02232 ,1.71551 ,16.83257 
232 ,43.0195 ,1.02417 ,1.70524 ,16.73184 
233 ,43.2114 ,1.02612 ,1.68129 ,16.49679 
234 ,43.4035 ,1.02804 ,1.67444 ,16.42963 
235 ,43.5798 ,1.02981 ,1.65733 ,16.26174 
236 ,43.7717 ,1.03172 ,1.63338 ,16.02669 
237 ,43.9637 ,1.03360 ,1.64022 ,16.09385 
238 ,44.1400 ,1.03537 ,1.62653 ,15.95954 
239 ,44.3156 ,1.03714 ,1.60258 ,15.72449 
240 ,44.4920 ,1.03895 ,1.58204 ,15.52302 
241 ,44.6843 ,1.04086 ,1.57520 ,15.45586 
242 ,44.8920 ,1.04284 ,1.56836 ,15.38871 
243 ,45.0843 ,1.04475 ,1.55809 ,15.28797 
244 ,45.2600 ,1.04663 ,1.55124 ,15.22081 
245 ,45.4522 ,1.04843 ,1.52045 ,14.91861 
246 ,45.6286 ,1.05026 ,1.51360 ,14.85145 
247 ,45.8207 ,1.05215 ,1.49307 ,14.64998 
248 ,45.9967 ,1.05396 ,1.47938 ,14.51567 
249 ,46.1725 ,1.05572 ,1.45885 ,14.31420 
250 ,46.3486 ,1.05744 ,1.46227 ,14.34778 
251 ,46.5407 ,1.05934 ,1.43831 ,14.11273 
252 ,46.7491 ,1.06144 ,1.44858 ,14.21346 
253 ,46.9409 ,1.06342 ,1.41778 ,13.91126 
254 ,47.1172 ,1.06515 ,1.40067 ,13.74337 
255 ,47.3090 ,1.06705 ,1.40067 ,13.74337 
256 ,47.5012 ,1.06900 ,1.39040 ,13.64263 
257 ,47.6932 ,1.07087 ,1.34591 ,13.20612 
258 ,47.8855 ,1.07283 ,1.35960 ,13.34043 
259 ,48.0614 ,1.07464 ,1.32880 ,13.03822 
260 ,48.2377 ,1.07635 ,1.32538 ,13.00465 
261 ,48.4137 ,1.07814 ,1.29458 ,12.70244 
262 ,48.6216 ,1.08008 ,1.31854 ,12.93749 
263 ,48.8138 ,1.08216 ,1.27405 ,12.50097 
264 ,49.0060 ,1.08403 ,1.28432 ,12.60171 
265 ,49.1981 ,1.08588 ,1.25009 ,12.26592 
266 ,49.3745 ,1.08776 ,1.23983 ,12.16519 
267 ,49.5660 ,1.08958 ,1.23983 ,12.16519 
268 ,49.7583 ,1.09152 ,1.20903 ,11.86298 
269 ,49.9663 ,1.09360 ,1.20903 ,11.86298 
270 ,50.1424 ,1.09537 ,1.19534 ,11.72867 
271 ,50.3505 ,1.09742 ,1.17138 ,11.49362 
272 ,50.5421 ,1.09932 ,1.16112 ,11.39289 
273 ,50.7023 ,1.10113 ,1.15085 ,11.29215 
274 ,50.8786 ,1.10271 ,1.13716 ,11.15784 
275 ,51.0548 ,1.10455 ,1.12347 ,11.02353 
276 ,51.2627 ,1.10650 ,1.10979 ,10.88921 
277 ,51.4386 ,1.10834 ,1.11321 ,10.92279 
278 ,51.6310 ,1.11023 ,1.08925 ,10.68774 
279 ,51.8230 ,1.11214 ,1.08583 ,10.65416 
280 ,52.0151 ,1.11416 ,1.05845 ,10.38554 
281 ,52.1913 ,1.11588 ,1.04476 ,10.25123 
282 ,52.3831 ,1.11777 ,1.04134 ,10.21765 
283 ,52.5750 ,1.11965 ,1.03792 ,10.18407 
284 ,52.7513 ,1.12143 ,1.02081 ,10.01618 
285 ,52.9273 ,1.12324 ,0.98659 ,9.68039 
286 ,53.1197 ,1.12517 ,0.99685 ,9.78113 
287 ,53.3114 ,1.12708 ,0.96263 ,9.44535 
288 ,53.4877 ,1.12882 ,0.96605 ,9.47892 
289 ,53.6796 ,1.13068 ,0.94552 ,9.27745 
290 ,53.8556 ,1.13249 ,0.92841 ,9.10956 
291 ,54.0481 ,1.13439 ,0.93868 ,9.21030 
292 ,54.2400 ,1.13641 ,0.91814 ,9.00883 
293 ,54.4162 ,1.13812 ,0.89077 ,8.74020 
294 ,54.6240 ,1.14011 ,0.88392 ,8.67305 
295 ,54.8164 ,1.14208 ,0.87708 ,8.60589 
296 ,54.9923 ,1.14386 ,0.85654 ,8.40442 
297 ,55.1686 ,1.14561 ,0.85997 ,8.43800 
298 ,55.3285 ,1.14739 ,0.85312 ,8.37084 
299 ,55.5206 ,1.14915 ,0.84286 ,8.27011 
300 ,55.7126 ,1.15106 ,0.80521 ,7.90074 
301 ,55.8887 ,1.15288 ,0.82232 ,8.06864 
302 ,56.0647 ,1.15465 ,0.81548 ,8.00148 
303 ,56.2409 ,1.15634 ,0.78126 ,7.66570 
304 ,56.4168 ,1.15813 ,0.77441 ,7.59854 
305 ,56.6246 ,1.16010 ,0.76757 ,7.53138 
306 ,56.8011 ,1.16193 ,0.75046 ,7.36349 
307 ,56.9932 ,1.16387 ,0.72308 ,7.09486 
308 ,57.1693 ,1.16564 ,0.73335 ,7.19560 
309 ,57.3781 ,1.16760 ,0.71281 ,6.99413 
310 ,57.5852 ,1.16973 ,0.71966 ,7.06129 
311 ,57.7775 ,1.17171 ,0.67859 ,6.65835 
312 ,57.9536 ,1.17351 ,0.67175 ,6.59119 
313 ,58.1452 ,1.17536 ,0.67517 ,6.62477 
314 ,58.3218 ,1.17721 ,0.66833 ,6.55761 
315 ,58.5135 ,1.17908 ,0.63410 ,6.22183 
316 ,58.6899 ,1.18084 ,0.64095 ,6.28899 
317 ,58.8816 ,1.18282 ,0.61699 ,6.05394 
318 ,59.0739 ,1.18454 ,0.61015 ,5.98678 
319 ,59.2337 ,1.18639 ,0.59988 ,5.88605 
320 ,59.4102 ,1.18805 ,0.59304 ,5.81889 
321 ,59.6022 ,1.19002 ,0.56566 ,5.55026 
322 ,59.7782 ,1.19173 ,0.56224 ,5.51668 
323 ,59.9706 ,1.19364 ,0.55539 ,5.44953 
324 ,60.1624 ,1.19547 ,0.55539 ,5.44953 
325 ,60.3546 ,1.19747 ,0.52117 ,5.11375 
326 ,60.5466 ,1.19926 ,0.52802 ,5.18090 
327 ,60.7388 ,1.20133 ,0.50064 ,4.91228 
328 ,60.9469 ,1.20331 ,0.50064 ,4.91228 
329 ,61.1389 ,1.20528 ,0.47326 ,4.64365 
330 ,61.3149 ,1.20707 ,0.46300 ,4.54291 
331 ,61.5069 ,1.20890 ,0.46300 ,4.54291 
332 ,61.6990 ,1.21088 ,0.44246 ,4.34144 
333 ,61.8592 ,1.21264 ,0.42877 ,4.20713 
334 ,62.0353 ,1.21435 ,0.40482 ,3.97208 
335 ,62.2112 ,1.21605 ,0.41166 ,4.03924 
336 ,62.4030 ,1.21792 ,0.41509 ,4.07282 
337 ,62.5796 ,1.21971 ,0.40482 ,3.97208 
338 ,62.7712 ,1.22164 ,0.38771 ,3.80419 
339 ,62.9636 ,1.22346 ,0.38771 ,3.80419 
340 ,63.1558 ,1.22545 ,0.34664 ,3.40125 
341 ,63.3479 ,1.22742 ,0.36033 ,3.53557 
342 ,63.5236 ,1.22920 ,0.32611 ,3.19978 
343 ,63.6998 ,1.23092 ,0.32269 ,3.16620 
344 ,63.8919 ,1.23277 ,0.31926 ,3.13263 
345 ,64.0677 ,1.23468 ,0.31584 ,3.09905 
346 ,64.2277 ,1.23631 ,0.29873 ,2.93116 
347 ,64.3878 ,1.23790 ,0.29189 ,2.86400 
348 ,64.5639 ,1.23958 ,0.28162 ,2.76326 
349 ,64.7564 ,1.24142 ,0.24398 ,2.39390 
350 ,64.9645 ,1.24351 ,0.24055 ,2.36032 
351 ,65.1566 ,1.24544 ,0.23029 ,2.25959 
352 ,65.3647 ,1.24743 ,0.23029 ,2.25959 
353 ,65.5407 ,1.24934 ,0.21318 ,2.09170 
354 ,65.7166 ,1.25112 ,0.21318 ,2.09170 
355 ,65.8928 ,1.25283 ,0.18238 ,1.78949 
356 ,66.0850 ,1.25466 ,0.19264 ,1.89023 
357 ,66.2771 ,1.25662 ,0.16185 ,1.58802 
358 ,66.4685 ,1.25858 ,0.17553 ,1.72234 
359 ,66.6612 ,1.26051 ,0.16185 ,1.58802 
360 ,66.8530 ,1.26249 ,0.13789 ,1.35298 
361 ,67.0452 ,1.26436 ,0.14473 ,1.42013 
362 ,67.2213 ,1.26609 ,0.11736 ,1.15151 
363 ,67.4295 ,1.26816 ,0.12420 ,1.21866 
364 ,67.6215 ,1.27000 ,0.10367 ,1.01719 
365 ,67.7972 ,1.27198 ,0.08656 ,0.84930 
366 ,67.9735 ,1.27361 ,0.06260 ,0.61425 
367 ,68.1656 ,1.27551 ,0.06945 ,0.68141 
368 ,68.3417 ,1.27734 ,0.05918 ,0.58067 
369 ,68.5496 ,1.27927 ,0.06602 ,0.64783 
370 ,68.7259 ,1.28112 ,0.05234 ,0.51352 
371 ,68.9019 ,1.28293 ,0.02496 ,0.24489 
372 ,69.0780 ,1.28468 ,0.00785 ,0.07700 
373 ,69.2542 ,1.28648 ,-0.00242 ,-0.02373 
374 ,69.4463 ,1.28829 ,0.00785 ,0.07700 
375 ,69.6223 ,1.29013 ,-0.01269 ,-0.12447 
376 ,69.7985 ,1.29190 ,-0.01953 ,-0.19163 
377 ,69.9903 ,1.29373 ,-0.01611 ,-0.15805 
378 ,70.1667 ,1.29556 ,-0.03322 ,-0.32594 
379 ,70.3422 ,1.29731 ,-0.05033 ,-0.49383 
380 ,70.5185 ,1.29905 ,-0.06744 ,-0.66172 
381 ,70.7106 ,1.30093 ,-0.07428 ,-0.72888 
382 ,70.9190 ,1.30301 ,-0.09482 ,-0.93035 
383 ,71.1107 ,1.30496 ,-0.07771 ,-0.76246 
384 ,71.3031 ,1.30683 ,-0.09824 ,-0.96393 
385 ,71.5109 ,1.30883 ,-0.11535 ,-1.13182 
386 ,71.6872 ,1.31078 ,-0.11535 ,-1.13182 
387 ,71.8793 ,1.31262 ,-0.14273 ,-1.40045 
388 ,72.0552 ,1.31441 ,-0.14273 ,-1.40045 
389 ,72.2634 ,1.31636 ,-0.13588 ,-1.33329 
390 ,72.4715 ,1.31852 ,-0.15642 ,-1.53476 
391 ,72.6477 ,1.32036 ,-0.15642 ,-1.53476 
392 ,72.8396 ,1.32224 ,-0.18722 ,-1.83696 
393 ,73.0157 ,1.32406 ,-0.19406 ,-1.90412 
394 ,73.1916 ,1.32584 ,-0.18722 ,-1.83696 
395 ,73.3679 ,1.32756 ,-0.20433 ,-2.00485 
396 ,73.5435 ,1.32929 ,-0.21459 ,-2.10559 
397 ,73.7201 ,1.33108 ,-0.22486 ,-2.20632 
398 ,73.9438 ,1.33324 ,-0.23855 ,-2.34064 
399 ,74.1202 ,1.33511 ,-0.24539 ,-2.40779 
400 ,74.3279 ,1.33709 ,-0.25224 ,-2.47495 
401 ,74.5042 ,1.33888 ,-0.26250 ,-2.57569 
402 ,74.6962 ,1.34076 ,-0.28304 ,-2.77716 
403 ,74.8886 ,1.34279 ,-0.26935 ,-2.64284 
404 ,75.0805 ,1.34462 ,-0.30699 ,-3.01220 
405 ,75.2723 ,1.34661 ,-0.31041 ,-3.04578 
406 ,75.4646 ,1.34850 ,-0.30357 ,-2.97863 
407 ,75.6569 ,1.35047 ,-0.33095 ,-3.24725 
408 ,75.8489 ,1.35238 ,-0.33779 ,-3.31441 
409 ,76.0411 ,1.35422 ,-0.35832 ,-3.51588 
410 ,76.2489 ,1.35631 ,-0.34464 ,-3.38156 
411 ,76.4413 ,1.35822 ,-0.37201 ,-3.65019 
412 ,76.6491 ,1.36031 ,-0.36859 ,-3.61661 
413 ,76.8415 ,1.36223 ,-0.39255 ,-3.85166 
414 ,77.0333 ,1.36414 ,-0.39255 ,-3.85166 
415 ,77.2254 ,1.36602 ,-0.40623 ,-3.98597 
416 ,77.4172 ,1.36792 ,-0.40281 ,-3.95240 
417 ,77.5935 ,1.36977 ,-0.43361 ,-4.25460 
418 ,77.7856 ,1.37165 ,-0.41992 ,-4.12029 
419 ,77.9780 ,1.37354 ,-0.43703 ,-4.28818 
420 ,78.1539 ,1.37545 ,-0.45414 ,-4.45607 
421 ,78.3461 ,1.37727 ,-0.45757 ,-4.48965 
422 ,78.5376 ,1.37923 ,-0.45414 ,-4.45607 
423 ,78.7142 ,1.38099 ,-0.49179 ,-4.82543 
424 ,78.9059 ,1.38293 ,-0.47810 ,-4.69112 
425 ,79.0820 ,1.38465 ,-0.48837 ,-4.79185 
426 ,79.2585 ,1.38641 ,-0.49863 ,-4.89259 
427 ,79.4504 ,1.38831 ,-0.51232 ,-5.02690 
428 ,79.6265 ,1.39011 ,-0.51574 ,-5.06048 
429 ,79.8024 ,1.39183 ,-0.51917 ,-5.09406 
430 ,79.9788 ,1.39366 ,-0.54312 ,-5.32911 
431 ,80.1708 ,1.39554 ,-0.56023 ,-5.49700 
432 ,80.3469 ,1.39733 ,-0.55339 ,-5.42984 
433 ,80.5227 ,1.39906 ,-0.56023 ,-5.49700 
434 ,80.6990 ,1.40083 ,-0.57050 ,-5.59773 
435 ,80.8909 ,1.40266 ,-0.59445 ,-5.83278 
436 ,81.0831 ,1.40468 ,-0.59103 ,-5.79920 
437 ,81.2591 ,1.40659 ,-0.61156 ,-6.00067 
438 ,81.4351 ,1.40816 ,-0.61156 ,-6.00067 
439 ,81.6273 ,1.41001 ,-0.63552 ,-6.23572 
440 ,81.8195 ,1.41207 ,-0.63210 ,-6.20214 
441 ,82.0114 ,1.41402 ,-0.62868 ,-6.16856 
442 ,82.1876 ,1.41570 ,-0.62868 ,-6.16856 
443 ,82.3635 ,1.41750 ,-0.64921 ,-6.37003 
444 ,82.5395 ,1.41924 ,-0.66632 ,-6.53793 
445 ,82.7154 ,1.42102 ,-0.68343 ,-6.70582 
446 ,82.8919 ,1.42282 ,-0.66974 ,-6.57150 
447 ,83.0680 ,1.42459 ,-0.68001 ,-6.67224 
448 ,83.2439 ,1.42626 ,-0.68343 ,-6.70582 
449 ,83.4362 ,1.42810 ,-0.72107 ,-7.07518 
450 ,83.6284 ,1.43007 ,-0.70054 ,-6.87371 
451 ,83.8043 ,1.43187 ,-0.70396 ,-6.90729 
452 ,84.0125 ,1.43394 ,-0.73476 ,-7.20949 
453 ,84.2045 ,1.43581 ,-0.72792 ,-7.14233 
454 ,84.4124 ,1.43782 ,-0.74503 ,-7.31023 
455 ,84.5886 ,1.43982 ,-0.73818 ,-7.24307 
456 ,84.7808 ,1.44160 ,-0.76556 ,-7.51170 
457 ,84.9724 ,1.44352 ,-0.76556 ,-7.51170 
458 ,85.1484 ,1.44533 ,-0.78610 ,-7.71317 
459 ,85.3248 ,1.44711 ,-0.77241 ,-7.57885 
460 ,85.5167 ,1.44894 ,-0.79294 ,-7.78032 
461 ,85.7090 ,1.45085 ,-0.79294 ,-7.78032 
462 ,85.9009 ,1.45276 ,-0.79636 ,-7.81390 
463 ,86.0771 ,1.45455 ,-0.81347 ,-7.98179 
