Data stamp = , 20-04-2022 00:55:26 640

Calibration Values: 
Slope = , 26.54 , g/V 
Offset Voltage at no contact = , -0.501760 , V 

No , Time , Stage Position ,   Mass , Force 
   ,  (s) ,      (mm)      ,   (g)  , (mN)  

1 ,0.0000 ,0.59941 ,5.29167 ,51.92190 
2 ,0.2339 ,0.59951 ,5.30878 ,52.08979 
3 ,0.6824 ,0.60088 ,5.31905 ,52.19052 
4 ,0.8746 ,0.60301 ,5.30194 ,52.02263 
5 ,1.0825 ,0.60494 ,5.31905 ,52.19052 
6 ,1.2746 ,0.60682 ,5.31221 ,52.12337 
7 ,1.4503 ,0.60859 ,5.30878 ,52.08979 
8 ,1.6266 ,0.61042 ,5.30536 ,52.05621 
9 ,1.8189 ,0.61229 ,5.30194 ,52.02263 
10 ,1.9951 ,0.61408 ,5.27798 ,51.78758 
11 ,2.1871 ,0.61599 ,5.28825 ,51.88832 
12 ,2.3789 ,0.61799 ,5.27456 ,51.75401 
13 ,2.5548 ,0.61968 ,5.24718 ,51.48538 
14 ,2.7313 ,0.62149 ,5.23692 ,51.38464 
15 ,2.9234 ,0.62338 ,5.24034 ,51.41822 
16 ,3.0993 ,0.62520 ,5.20954 ,51.11602 
17 ,3.2917 ,0.62708 ,5.18559 ,50.88097 
18 ,3.4837 ,0.62894 ,5.18559 ,50.88097 
19 ,3.6917 ,0.63093 ,5.17874 ,50.81381 
20 ,3.8999 ,0.63310 ,5.14110 ,50.44445 
21 ,4.1078 ,0.63514 ,5.16505 ,50.67950 
22 ,4.2840 ,0.63701 ,5.14110 ,50.44445 
23 ,4.4760 ,0.63896 ,5.10345 ,50.07509 
24 ,4.6517 ,0.64067 ,5.07950 ,49.84004 
25 ,4.8282 ,0.64246 ,5.07265 ,49.77289 
26 ,5.0203 ,0.64439 ,5.05897 ,49.63857 
27 ,5.2283 ,0.64631 ,5.02817 ,49.33637 
28 ,5.4044 ,0.64822 ,5.03843 ,49.43710 
29 ,5.5806 ,0.64992 ,5.01106 ,49.16848 
30 ,5.7560 ,0.65167 ,4.99394 ,49.00058 
31 ,5.9321 ,0.65347 ,4.97341 ,48.79911 
32 ,6.1081 ,0.65527 ,4.97683 ,48.83269 
33 ,6.2845 ,0.65701 ,4.95630 ,48.63122 
34 ,6.4929 ,0.65902 ,4.92892 ,48.36260 
35 ,6.6690 ,0.66089 ,4.91181 ,48.19471 
36 ,6.8610 ,0.66279 ,4.90497 ,48.12755 
37 ,7.0531 ,0.66476 ,4.88444 ,47.92608 
38 ,7.2291 ,0.66642 ,4.85706 ,47.65745 
39 ,7.4049 ,0.66817 ,4.85021 ,47.59030 
40 ,7.5812 ,0.66998 ,4.81941 ,47.28809 
41 ,7.7413 ,0.67169 ,4.79546 ,47.05304 
42 ,7.9170 ,0.67330 ,4.79204 ,47.01946 
43 ,8.0936 ,0.67507 ,4.76808 ,46.78442 
44 ,8.2697 ,0.67687 ,4.76124 ,46.71726 
45 ,8.4617 ,0.67871 ,4.74413 ,46.54937 
46 ,8.6378 ,0.68047 ,4.71675 ,46.28074 
47 ,8.8297 ,0.68238 ,4.70990 ,46.21359 
48 ,9.0219 ,0.68440 ,4.67568 ,45.87780 
49 ,9.1978 ,0.68613 ,4.66199 ,45.74349 
50 ,9.3902 ,0.68798 ,4.65857 ,45.70991 
51 ,9.5821 ,0.68990 ,4.64146 ,45.54202 
52 ,9.7583 ,0.69170 ,4.61408 ,45.27339 
53 ,9.9504 ,0.69362 ,4.62777 ,45.40771 
54 ,10.1263 ,0.69541 ,4.58671 ,45.00477 
55 ,10.3344 ,0.69744 ,4.56275 ,44.76972 
56 ,10.5106 ,0.69926 ,4.53880 ,44.53467 
57 ,10.7026 ,0.70110 ,4.53537 ,44.50109 
58 ,10.9108 ,0.70307 ,4.49773 ,44.13173 
59 ,11.1025 ,0.70515 ,4.51142 ,44.26604 
60 ,11.2629 ,0.70689 ,4.47720 ,43.93026 
61 ,11.4549 ,0.70863 ,4.46009 ,43.76237 
62 ,11.6311 ,0.71043 ,4.44298 ,43.59448 
63 ,11.8072 ,0.71223 ,4.42586 ,43.42659 
64 ,11.9832 ,0.71403 ,4.39164 ,43.09080 
65 ,12.1591 ,0.71573 ,4.38138 ,42.99007 
66 ,12.3351 ,0.71755 ,4.38822 ,43.05723 
67 ,12.5273 ,0.71936 ,4.37111 ,42.88933 
68 ,12.7196 ,0.72124 ,4.33689 ,42.55355 
69 ,12.9275 ,0.72334 ,4.33347 ,42.51997 
70 ,13.1035 ,0.72516 ,4.31978 ,42.38566 
71 ,13.2953 ,0.72720 ,4.28556 ,42.04988 
72 ,13.4719 ,0.72885 ,4.27187 ,41.91556 
73 ,13.6640 ,0.73079 ,4.25476 ,41.74767 
74 ,13.8558 ,0.73261 ,4.22738 ,41.47905 
75 ,14.0320 ,0.73446 ,4.20685 ,41.27758 
76 ,14.2077 ,0.73620 ,4.20685 ,41.27758 
77 ,14.3842 ,0.73795 ,4.20000 ,41.21042 
78 ,14.5762 ,0.73986 ,4.16578 ,40.87464 
79 ,14.7680 ,0.74182 ,4.16578 ,40.87464 
80 ,14.9444 ,0.74353 ,4.15209 ,40.74032 
81 ,15.1524 ,0.74557 ,4.11445 ,40.37096 
82 ,15.3285 ,0.74743 ,4.11787 ,40.40454 
83 ,15.5043 ,0.74914 ,4.09391 ,40.16949 
84 ,15.6806 ,0.75096 ,4.06312 ,39.86729 
85 ,15.8564 ,0.75265 ,4.03574 ,39.59866 
86 ,16.0327 ,0.75445 ,4.02889 ,39.53150 
87 ,16.1929 ,0.75614 ,4.03232 ,39.56508 
88 ,16.3690 ,0.75781 ,4.01863 ,39.43077 
89 ,16.5445 ,0.75961 ,3.98441 ,39.09499 
90 ,16.7211 ,0.76131 ,3.97756 ,39.02783 
91 ,16.9128 ,0.76316 ,3.96387 ,38.89352 
92 ,17.1050 ,0.76511 ,3.95361 ,38.79278 
93 ,17.2970 ,0.76710 ,3.91596 ,38.42342 
94 ,17.4734 ,0.76883 ,3.90570 ,38.32268 
95 ,17.6654 ,0.77074 ,3.89885 ,38.25553 
96 ,17.8575 ,0.77264 ,3.86805 ,37.95332 
97 ,18.0496 ,0.77459 ,3.85779 ,37.85259 
98 ,18.2575 ,0.77660 ,3.84067 ,37.68470 
99 ,18.4338 ,0.77845 ,3.81330 ,37.41607 
100 ,18.6255 ,0.78036 ,3.81330 ,37.41607 
101 ,18.8019 ,0.78215 ,3.79961 ,37.28176 
102 ,18.9939 ,0.78402 ,3.75854 ,36.87882 
103 ,19.1694 ,0.78583 ,3.74828 ,36.77808 
104 ,19.3781 ,0.78778 ,3.73117 ,36.61019 
105 ,19.5862 ,0.78988 ,3.71748 ,36.47588 
106 ,19.7621 ,0.79169 ,3.70037 ,36.30799 
107 ,19.9381 ,0.79351 ,3.67299 ,36.03936 
108 ,20.1144 ,0.79523 ,3.65588 ,35.87147 
109 ,20.3063 ,0.79712 ,3.66614 ,35.97220 
110 ,20.4985 ,0.79903 ,3.61823 ,35.50211 
111 ,20.6746 ,0.80085 ,3.60797 ,35.40137 
112 ,20.8505 ,0.80269 ,3.61481 ,35.46853 
113 ,21.0266 ,0.80434 ,3.60112 ,35.33422 
114 ,21.2188 ,0.80631 ,3.57717 ,35.09917 
115 ,21.3952 ,0.80803 ,3.54979 ,34.83054 
116 ,21.5870 ,0.80988 ,3.54637 ,34.79696 
117 ,21.7630 ,0.81171 ,3.54295 ,34.76338 
118 ,21.9387 ,0.81351 ,3.49846 ,34.32687 
119 ,22.1151 ,0.81527 ,3.49504 ,34.29329 
120 ,22.2912 ,0.81703 ,3.48477 ,34.19255 
121 ,22.4832 ,0.81893 ,3.46081 ,33.95751 
122 ,22.6753 ,0.82079 ,3.43686 ,33.72246 
123 ,22.8670 ,0.82273 ,3.44028 ,33.75604 
124 ,23.0595 ,0.82457 ,3.42317 ,33.58814 
125 ,23.2676 ,0.82673 ,3.40606 ,33.42025 
126 ,23.4755 ,0.82881 ,3.37526 ,33.11805 
127 ,23.6517 ,0.83060 ,3.36499 ,33.01731 
128 ,23.8596 ,0.83251 ,3.32393 ,32.61437 
129 ,24.0514 ,0.83458 ,3.32393 ,32.61437 
130 ,24.2279 ,0.83639 ,3.32393 ,32.61437 
131 ,24.4042 ,0.83814 ,3.29997 ,32.37933 
132 ,24.5960 ,0.83996 ,3.27259 ,32.11070 
133 ,24.7723 ,0.84180 ,3.26575 ,32.04354 
134 ,24.9642 ,0.84365 ,3.25206 ,31.90923 
135 ,25.1403 ,0.84547 ,3.21784 ,31.57345 
136 ,25.3484 ,0.84748 ,3.21100 ,31.50629 
137 ,25.5565 ,0.84948 ,3.20757 ,31.47271 
138 ,25.7326 ,0.85142 ,3.17677 ,31.17051 
139 ,25.9087 ,0.85330 ,3.14940 ,30.90188 
140 ,26.0848 ,0.85490 ,3.13913 ,30.80115 
141 ,26.2768 ,0.85674 ,3.13913 ,30.80115 
142 ,26.4689 ,0.85875 ,3.12886 ,30.70041 
143 ,26.6449 ,0.86047 ,3.08438 ,30.26389 
144 ,26.8370 ,0.86245 ,3.06726 ,30.09600 
145 ,27.0130 ,0.86423 ,3.06726 ,30.09600 
146 ,27.1890 ,0.86596 ,3.04331 ,29.86095 
147 ,27.3813 ,0.86784 ,3.02278 ,29.65948 
148 ,27.5733 ,0.86983 ,3.00909 ,29.52517 
149 ,27.7654 ,0.87163 ,2.99540 ,29.39086 
150 ,27.9413 ,0.87347 ,2.99198 ,29.35728 
151 ,28.1337 ,0.87541 ,2.96802 ,29.12223 
152 ,28.3094 ,0.87716 ,2.96118 ,29.05507 
153 ,28.4858 ,0.87892 ,2.95091 ,28.95434 
154 ,28.6778 ,0.88074 ,2.90642 ,28.51782 
155 ,28.8539 ,0.88261 ,2.90985 ,28.55140 
156 ,29.0460 ,0.88447 ,2.88931 ,28.34993 
157 ,29.2540 ,0.88654 ,2.87220 ,28.18204 
158 ,29.4461 ,0.88847 ,2.86536 ,28.11488 
159 ,29.6381 ,0.89049 ,2.82771 ,27.74552 
160 ,29.8303 ,0.89237 ,2.82771 ,27.74552 
161 ,30.0062 ,0.89412 ,2.81060 ,27.57763 
162 ,30.1984 ,0.89602 ,2.79691 ,27.44332 
163 ,30.3908 ,0.89791 ,2.77980 ,27.27542 
164 ,30.5826 ,0.89981 ,2.75243 ,27.00680 
165 ,30.7907 ,0.90186 ,2.75927 ,27.07395 
166 ,30.9664 ,0.90371 ,2.74558 ,26.93964 
167 ,31.1428 ,0.90549 ,2.70794 ,26.57028 
168 ,31.3830 ,0.90777 ,2.69083 ,26.40239 
169 ,31.5905 ,0.90988 ,2.68056 ,26.30165 
170 ,31.7670 ,0.91173 ,2.67372 ,26.23450 
171 ,31.9431 ,0.91346 ,2.63949 ,25.89871 
172 ,32.1350 ,0.91536 ,2.63607 ,25.86514 
173 ,32.3272 ,0.91733 ,2.62581 ,25.76440 
174 ,32.5354 ,0.91927 ,2.58474 ,25.36146 
175 ,32.7114 ,0.92122 ,2.59843 ,25.49577 
176 ,32.9036 ,0.92301 ,2.54710 ,24.99210 
177 ,33.0957 ,0.92494 ,2.55736 ,25.09283 
178 ,33.2713 ,0.92679 ,2.53341 ,24.85779 
179 ,33.4473 ,0.92851 ,2.53683 ,24.89136 
180 ,33.6235 ,0.93023 ,2.49576 ,24.48842 
181 ,33.8157 ,0.93212 ,2.48892 ,24.42127 
182 ,34.0241 ,0.93422 ,2.46154 ,24.15264 
183 ,34.2002 ,0.93604 ,2.43416 ,23.88402 
184 ,34.3760 ,0.93778 ,2.42732 ,23.81686 
185 ,34.5523 ,0.93961 ,2.42732 ,23.81686 
186 ,34.7439 ,0.94139 ,2.40679 ,23.61539 
187 ,34.9204 ,0.94324 ,2.38968 ,23.44750 
188 ,35.0961 ,0.94508 ,2.39994 ,23.54823 
189 ,35.3044 ,0.94693 ,2.36230 ,23.17887 
190 ,35.4962 ,0.94893 ,2.33150 ,22.87667 
191 ,35.6886 ,0.95087 ,2.32808 ,22.84309 
192 ,35.8642 ,0.95267 ,2.31097 ,22.67520 
193 ,36.0404 ,0.95445 ,2.28017 ,22.37299 
194 ,36.2008 ,0.95616 ,2.27332 ,22.30584 
195 ,36.3770 ,0.95777 ,2.25279 ,22.10437 
196 ,36.5530 ,0.95957 ,2.24594 ,22.03721 
197 ,36.7292 ,0.96135 ,2.24252 ,22.00363 
198 ,36.9207 ,0.96331 ,2.21515 ,21.73500 
199 ,37.0972 ,0.96503 ,2.19803 ,21.56711 
200 ,37.2891 ,0.96696 ,2.19119 ,21.49996 
201 ,37.4653 ,0.96868 ,2.17750 ,21.36564 
202 ,37.6735 ,0.97069 ,2.15697 ,21.16417 
203 ,37.8495 ,0.97254 ,2.15697 ,21.16417 
204 ,38.0092 ,0.97423 ,2.12959 ,20.89555 
205 ,38.1856 ,0.97589 ,2.10564 ,20.66050 
206 ,38.3618 ,0.97766 ,2.10221 ,20.62692 
207 ,38.5375 ,0.97943 ,2.07484 ,20.35829 
208 ,38.7299 ,0.98137 ,2.08168 ,20.42545 
209 ,38.9056 ,0.98312 ,2.06457 ,20.25756 
210 ,39.0980 ,0.98506 ,2.03719 ,19.98893 
211 ,39.2740 ,0.98675 ,2.02693 ,19.88820 
212 ,39.4501 ,0.98853 ,2.01324 ,19.75388 
213 ,39.6262 ,0.99034 ,2.00982 ,19.72031 
214 ,39.8184 ,0.99214 ,1.97559 ,19.38452 
215 ,39.9943 ,0.99398 ,1.97217 ,19.35094 
216 ,40.1704 ,0.99571 ,1.96533 ,19.28379 
217 ,40.3304 ,0.99741 ,1.94822 ,19.11590 
218 ,40.5065 ,0.99905 ,1.93453 ,18.98158 
219 ,40.6828 ,1.00086 ,1.91057 ,18.74654 
220 ,40.8904 ,1.00290 ,1.91057 ,18.74654 
221 ,41.0667 ,1.00465 ,1.87635 ,18.41075 
222 ,41.2588 ,1.00660 ,1.86266 ,18.27644 
223 ,41.4509 ,1.00853 ,1.85924 ,18.24286 
224 ,41.6430 ,1.01047 ,1.82160 ,17.87350 
225 ,41.8190 ,1.01220 ,1.80791 ,17.73919 
226 ,42.0110 ,1.01407 ,1.81133 ,17.77276 
227 ,42.2033 ,1.01606 ,1.79422 ,17.60487 
228 ,42.4114 ,1.01810 ,1.78395 ,17.50414 
229 ,42.6035 ,1.02006 ,1.74631 ,17.13478 
230 ,42.7953 ,1.02195 ,1.74289 ,17.10120 
231 ,42.9716 ,1.02373 ,1.74631 ,17.13478 
232 ,43.1634 ,1.02564 ,1.70866 ,16.76542 
233 ,43.3393 ,1.02743 ,1.69155 ,16.59752 
234 ,43.5317 ,1.02933 ,1.68129 ,16.49679 
235 ,43.7399 ,1.03137 ,1.66418 ,16.32890 
236 ,43.9478 ,1.03335 ,1.65391 ,16.22816 
237 ,44.1556 ,1.03549 ,1.63680 ,16.06027 
238 ,44.3481 ,1.03739 ,1.61969 ,15.89238 
239 ,44.5562 ,1.03947 ,1.58547 ,15.55660 
240 ,44.7640 ,1.04154 ,1.58204 ,15.52302 
241 ,44.9402 ,1.04341 ,1.56151 ,15.32155 
242 ,45.1324 ,1.04530 ,1.56836 ,15.38871 
243 ,45.3086 ,1.04708 ,1.55467 ,15.25439 
244 ,45.4842 ,1.04890 ,1.51018 ,14.81787 
245 ,45.6606 ,1.05065 ,1.51018 ,14.81787 
246 ,45.8526 ,1.05252 ,1.51360 ,14.85145 
247 ,46.0447 ,1.05445 ,1.49307 ,14.64998 
248 ,46.2367 ,1.05631 ,1.46911 ,14.41493 
249 ,46.4290 ,1.05819 ,1.46569 ,14.38136 
250 ,46.6367 ,1.06028 ,1.45200 ,14.24704 
251 ,46.8132 ,1.06212 ,1.43831 ,14.11273 
252 ,47.0047 ,1.06394 ,1.40751 ,13.81053 
253 ,47.1812 ,1.06582 ,1.40067 ,13.74337 
254 ,47.3573 ,1.06759 ,1.37671 ,13.50832 
255 ,47.5334 ,1.06932 ,1.38698 ,13.60906 
256 ,47.7095 ,1.07106 ,1.37671 ,13.50832 
257 ,47.9016 ,1.07302 ,1.35618 ,13.30685 
258 ,48.0934 ,1.07493 ,1.34934 ,13.23969 
259 ,48.2698 ,1.07665 ,1.33907 ,13.13896 
260 ,48.4458 ,1.07847 ,1.31512 ,12.90391 
261 ,48.6218 ,1.08022 ,1.29800 ,12.73602 
262 ,48.7979 ,1.08193 ,1.28432 ,12.60171 
263 ,48.9741 ,1.08374 ,1.27405 ,12.50097 
264 ,49.1822 ,1.08578 ,1.26378 ,12.40024 
265 ,49.3743 ,1.08773 ,1.25009 ,12.26592 
266 ,49.5658 ,1.08970 ,1.22272 ,11.99730 
267 ,49.7420 ,1.09140 ,1.22272 ,11.99730 
268 ,49.9343 ,1.09324 ,1.21587 ,11.93014 
269 ,50.1264 ,1.09527 ,1.20903 ,11.86298 
270 ,50.3505 ,1.09735 ,1.18165 ,11.59436 
271 ,50.5266 ,1.09919 ,1.16454 ,11.42647 
272 ,50.7027 ,1.10099 ,1.14743 ,11.25857 
273 ,50.8944 ,1.10290 ,1.13032 ,11.09068 
274 ,51.0709 ,1.10473 ,1.14058 ,11.19142 
275 ,51.2628 ,1.10655 ,1.10294 ,10.82206 
276 ,51.4551 ,1.10852 ,1.09952 ,10.78848 
277 ,51.6628 ,1.11051 ,1.08241 ,10.62059 
278 ,51.8708 ,1.11264 ,1.06187 ,10.41912 
279 ,52.0471 ,1.11446 ,1.06872 ,10.48627 
280 ,52.2389 ,1.11641 ,1.04819 ,10.28480 
281 ,52.4312 ,1.11816 ,1.03792 ,10.18407 
282 ,52.6075 ,1.12004 ,1.02765 ,10.08333 
283 ,52.7994 ,1.12192 ,1.01054 ,9.91544 
284 ,52.9915 ,1.12388 ,0.99343 ,9.74755 
285 ,53.1676 ,1.12560 ,0.97974 ,9.61324 
286 ,53.3439 ,1.12739 ,0.96263 ,9.44535 
287 ,53.5519 ,1.12931 ,0.96948 ,9.51250 
288 ,53.7439 ,1.13133 ,0.93183 ,9.14314 
289 ,53.9200 ,1.13318 ,0.93183 ,9.14314 
290 ,54.0959 ,1.13491 ,0.90788 ,8.90809 
291 ,54.2882 ,1.13686 ,0.90446 ,8.87451 
292 ,54.4802 ,1.13872 ,0.87708 ,8.60589 
293 ,54.6563 ,1.14048 ,0.88392 ,8.67305 
294 ,54.8644 ,1.14253 ,0.86681 ,8.50515 
295 ,55.0405 ,1.14440 ,0.83601 ,8.20295 
296 ,55.2321 ,1.14627 ,0.84628 ,8.30368 
297 ,55.4087 ,1.14803 ,0.83259 ,8.16937 
298 ,55.6008 ,1.14987 ,0.80179 ,7.86717 
299 ,55.7928 ,1.15182 ,0.80863 ,7.93432 
300 ,55.9689 ,1.15367 ,0.78810 ,7.73285 
301 ,56.1446 ,1.15543 ,0.76757 ,7.53138 
302 ,56.3211 ,1.15715 ,0.76415 ,7.49780 
303 ,56.5449 ,1.15931 ,0.74019 ,7.26276 
304 ,56.7372 ,1.16125 ,0.74704 ,7.32991 
305 ,56.9133 ,1.16309 ,0.73677 ,7.22918 
306 ,57.1051 ,1.16494 ,0.70939 ,6.96055 
307 ,57.2971 ,1.16693 ,0.70939 ,6.96055 
308 ,57.4733 ,1.16867 ,0.70255 ,6.89340 
309 ,57.6654 ,1.17055 ,0.67175 ,6.59119 
310 ,57.8577 ,1.17244 ,0.67517 ,6.62477 
311 ,58.0497 ,1.17440 ,0.65464 ,6.42330 
312 ,58.2414 ,1.17641 ,0.62042 ,6.08752 
313 ,58.4018 ,1.17807 ,0.62726 ,6.15467 
314 ,58.6097 ,1.17985 ,0.60330 ,5.91962 
315 ,58.7860 ,1.18182 ,0.60673 ,5.95320 
316 ,58.9778 ,1.18368 ,0.59646 ,5.85247 
317 ,59.1701 ,1.18561 ,0.58277 ,5.71815 
318 ,59.3457 ,1.18737 ,0.57251 ,5.61742 
319 ,59.5222 ,1.18915 ,0.54513 ,5.34879 
320 ,59.7144 ,1.19109 ,0.56566 ,5.55026 
321 ,59.8905 ,1.19286 ,0.54171 ,5.31522 
322 ,60.0664 ,1.19466 ,0.53144 ,5.21448 
323 ,60.2584 ,1.19651 ,0.53486 ,5.24806 
324 ,60.4343 ,1.19827 ,0.52802 ,5.18090 
325 ,60.6107 ,1.20006 ,0.53144 ,5.21448 
326 ,60.8188 ,1.20206 ,0.50406 ,4.94585 
327 ,61.0109 ,1.20394 ,0.49380 ,4.84512 
328 ,61.2029 ,1.20597 ,0.46642 ,4.57649 
329 ,61.4107 ,1.20799 ,0.44588 ,4.37502 
330 ,61.6031 ,1.20996 ,0.42877 ,4.20713 
331 ,61.7792 ,1.21172 ,0.44588 ,4.37502 
332 ,61.9711 ,1.21359 ,0.42193 ,4.13997 
333 ,62.1471 ,1.21538 ,0.41166 ,4.03924 
334 ,62.3233 ,1.21722 ,0.40482 ,3.97208 
335 ,62.4994 ,1.21892 ,0.39455 ,3.87135 
336 ,62.6756 ,1.22064 ,0.38771 ,3.80419 
337 ,62.8678 ,1.22254 ,0.36033 ,3.53557 
338 ,63.0436 ,1.22443 ,0.37060 ,3.63630 
339 ,63.2195 ,1.22614 ,0.34322 ,3.36767 
340 ,63.4119 ,1.22803 ,0.33980 ,3.33410 
341 ,63.6036 ,1.22999 ,0.32611 ,3.19978 
342 ,63.8121 ,1.23198 ,0.30215 ,2.96473 
343 ,63.9881 ,1.23378 ,0.28847 ,2.83042 
344 ,64.1802 ,1.23573 ,0.29189 ,2.86400 
345 ,64.3721 ,1.23752 ,0.28162 ,2.76326 
346 ,64.5645 ,1.23952 ,0.25424 ,2.49464 
347 ,64.7559 ,1.24140 ,0.26109 ,2.56179 
348 ,64.9325 ,1.24324 ,0.25424 ,2.49464 
349 ,65.1086 ,1.24502 ,0.22344 ,2.19243 
350 ,65.3006 ,1.24691 ,0.21660 ,2.12528 
351 ,65.4766 ,1.24866 ,0.22002 ,2.15885 
352 ,65.6688 ,1.25052 ,0.19607 ,1.92381 
353 ,65.8447 ,1.25235 ,0.18580 ,1.82307 
354 ,66.0211 ,1.25414 ,0.17553 ,1.72234 
355 ,66.1970 ,1.25590 ,0.17211 ,1.68876 
356 ,66.3726 ,1.25761 ,0.16185 ,1.58802 
357 ,66.5488 ,1.25940 ,0.14473 ,1.42013 
358 ,66.7409 ,1.26127 ,0.15158 ,1.48729 
359 ,66.9171 ,1.26310 ,0.14131 ,1.38655 
360 ,67.0933 ,1.26485 ,0.12762 ,1.25224 
361 ,67.2854 ,1.26679 ,0.11051 ,1.08435 
362 ,67.4614 ,1.26851 ,0.09682 ,0.95004 
363 ,67.6375 ,1.27029 ,0.08656 ,0.84930 
364 ,67.8136 ,1.27202 ,0.07287 ,0.71499 
365 ,67.9898 ,1.27380 ,0.05918 ,0.58067 
366 ,68.1656 ,1.27554 ,0.02838 ,0.27847 
367 ,68.3579 ,1.27753 ,0.04891 ,0.47994 
368 ,68.5340 ,1.27927 ,0.04549 ,0.44636 
369 ,68.7100 ,1.28097 ,0.01469 ,0.14416 
370 ,68.8862 ,1.28277 ,0.00100 ,0.00984 
371 ,69.0782 ,1.28460 ,0.01469 ,0.14416 
372 ,69.3022 ,1.28679 ,-0.01611 ,-0.15805 
373 ,69.4622 ,1.28865 ,-0.01953 ,-0.19163 
374 ,69.6384 ,1.29030 ,-0.02980 ,-0.29236 
375 ,69.8305 ,1.29221 ,-0.04006 ,-0.39310 
376 ,70.0065 ,1.29392 ,-0.07428 ,-0.72888 
377 ,70.1823 ,1.29569 ,-0.06402 ,-0.62814 
378 ,70.3908 ,1.29771 ,-0.06744 ,-0.66172 
379 ,70.5829 ,1.29975 ,-0.08455 ,-0.82961 
380 ,70.7750 ,1.30158 ,-0.08797 ,-0.86319 
381 ,70.9831 ,1.30368 ,-0.10508 ,-1.03108 
382 ,71.1748 ,1.30558 ,-0.12219 ,-1.19898 
383 ,71.3671 ,1.30744 ,-0.12219 ,-1.19898 
384 ,71.5432 ,1.30934 ,-0.13246 ,-1.29971 
385 ,71.7514 ,1.31126 ,-0.13931 ,-1.36687 
386 ,71.9274 ,1.31317 ,-0.14957 ,-1.46760 
387 ,72.1032 ,1.31496 ,-0.16668 ,-1.63549 
388 ,72.2951 ,1.31690 ,-0.18037 ,-1.76981 
389 ,72.4716 ,1.31858 ,-0.19064 ,-1.87054 
390 ,72.6476 ,1.32037 ,-0.20090 ,-1.97128 
391 ,72.8237 ,1.32212 ,-0.21117 ,-2.07201 
392 ,72.9998 ,1.32390 ,-0.20433 ,-2.00485 
393 ,73.1754 ,1.32562 ,-0.21459 ,-2.10559 
394 ,73.3519 ,1.32738 ,-0.22828 ,-2.23990 
395 ,73.5281 ,1.32920 ,-0.24197 ,-2.37422 
396 ,73.7202 ,1.33104 ,-0.25908 ,-2.54211 
397 ,73.9122 ,1.33295 ,-0.25566 ,-2.50853 
398 ,74.0881 ,1.33476 ,-0.27619 ,-2.71000 
399 ,74.2641 ,1.33651 ,-0.27277 ,-2.67642 
400 ,74.4725 ,1.33858 ,-0.28646 ,-2.81073 
401 ,74.6642 ,1.34051 ,-0.29330 ,-2.87789 
402 ,74.8563 ,1.34235 ,-0.30015 ,-2.94505 
403 ,75.0483 ,1.34430 ,-0.29330 ,-2.87789 
404 ,75.2244 ,1.34610 ,-0.32068 ,-3.14652 
405 ,75.4005 ,1.34787 ,-0.31384 ,-3.07936 
406 ,75.5766 ,1.34970 ,-0.32410 ,-3.18010 
407 ,75.7529 ,1.35140 ,-0.32752 ,-3.21367 
408 ,75.9290 ,1.35320 ,-0.35832 ,-3.51588 
409 ,76.1046 ,1.35494 ,-0.35832 ,-3.51588 
410 ,76.2812 ,1.35668 ,-0.36517 ,-3.58303 
411 ,76.4572 ,1.35843 ,-0.36175 ,-3.54946 
412 ,76.6653 ,1.36044 ,-0.38228 ,-3.75093 
413 ,76.8573 ,1.36248 ,-0.38228 ,-3.75093 
414 ,77.0335 ,1.36421 ,-0.39597 ,-3.88524 
415 ,77.2096 ,1.36596 ,-0.40966 ,-4.01955 
416 ,77.4016 ,1.36789 ,-0.41650 ,-4.08671 
417 ,77.5774 ,1.36961 ,-0.41308 ,-4.05313 
418 ,77.7538 ,1.37143 ,-0.43019 ,-4.22102 
419 ,77.9457 ,1.37332 ,-0.45757 ,-4.48965 
420 ,78.1220 ,1.37509 ,-0.46099 ,-4.52323 
421 ,78.3142 ,1.37694 ,-0.46783 ,-4.59038 
422 ,78.5228 ,1.37901 ,-0.47468 ,-4.65754 
423 ,78.6981 ,1.38087 ,-0.48152 ,-4.72470 
424 ,78.8743 ,1.38259 ,-0.49521 ,-4.85901 
425 ,79.0662 ,1.38452 ,-0.51917 ,-5.09406 
426 ,79.2582 ,1.38643 ,-0.50206 ,-4.92617 
427 ,79.4502 ,1.38835 ,-0.52259 ,-5.12764 
428 ,79.6424 ,1.39023 ,-0.51574 ,-5.06048 
429 ,79.8024 ,1.39198 ,-0.52259 ,-5.12764 
430 ,79.9785 ,1.39366 ,-0.54997 ,-5.39626 
431 ,80.1545 ,1.39539 ,-0.54997 ,-5.39626 
432 ,80.3467 ,1.39729 ,-0.56708 ,-5.56415 
433 ,80.5229 ,1.39904 ,-0.56365 ,-5.53058 
434 ,80.7149 ,1.40099 ,-0.58761 ,-5.76562 
435 ,80.9069 ,1.40300 ,-0.59788 ,-5.86636 
436 ,81.0991 ,1.40485 ,-0.59103 ,-5.79920 
437 ,81.2911 ,1.40677 ,-0.60814 ,-5.96709 
438 ,81.4833 ,1.40864 ,-0.61156 ,-6.00067 
439 ,81.6593 ,1.41046 ,-0.61841 ,-6.06783 
440 ,81.8349 ,1.41217 ,-0.63894 ,-6.26930 
441 ,82.0115 ,1.41396 ,-0.63552 ,-6.23572 
442 ,82.2354 ,1.41615 ,-0.64921 ,-6.37003 
443 ,82.4117 ,1.41798 ,-0.65947 ,-6.47077 
444 ,82.6038 ,1.41986 ,-0.66974 ,-6.57150 
445 ,82.8119 ,1.42180 ,-0.66974 ,-6.57150 
446 ,83.0039 ,1.42380 ,-0.68685 ,-6.73940 
447 ,83.1800 ,1.42566 ,-0.68343 ,-6.70582 
448 ,83.3720 ,1.42753 ,-0.71081 ,-6.97444 
449 ,83.5482 ,1.42934 ,-0.72792 ,-7.14233 
450 ,83.7402 ,1.43119 ,-0.71765 ,-7.04160 
451 ,83.9161 ,1.43300 ,-0.73134 ,-7.17591 
452 ,84.1082 ,1.43496 ,-0.75187 ,-7.37738 
453 ,84.2844 ,1.43673 ,-0.75187 ,-7.37738 
454 ,84.4602 ,1.43848 ,-0.75187 ,-7.37738 
455 ,84.6685 ,1.44047 ,-0.76556 ,-7.51170 
456 ,84.8443 ,1.44228 ,-0.76214 ,-7.47812 
457 ,85.0202 ,1.44407 ,-0.77583 ,-7.61243 
458 ,85.1968 ,1.44584 ,-0.78267 ,-7.67959 
459 ,85.3888 ,1.44778 ,-0.81689 ,-8.01537 
460 ,85.5809 ,1.44960 ,-0.79294 ,-7.78032 
461 ,85.7889 ,1.45158 ,-0.82032 ,-8.04895 
462 ,85.9649 ,1.45352 ,-0.83058 ,-8.14968 
463 ,86.1408 ,1.45521 ,-0.81689 ,-8.01537 
