Point No.,Normal Force [N],Gap [mm],Time [s]
1.0,5.028968,10.9161,1066
2.0,4.998006,10.9161,1066
3.0,4.978621,10.9161,1067
4.0,4.963574,10.9161,1067
5.0,4.952914,10.9160,1068
6.0,4.946789,10.9160,1068
7.0,4.941760,10.9160,1069
8.0,4.937524,10.9160,1069
9.0,4.933193,10.9160,1070
10.0,4.929629,10.9160,1070
11.0,4.924728,10.9160,1071
12.0,4.921618,10.9160,1071
13.0,4.918188,10.9160,1072
14.0,4.914863,10.9160,1072
15.0,4.912702,10.9160,1073
16.0,4.910142,10.9160,1073
17.0,4.906789,10.9160,1074
18.0,4.905067,10.9160,1074
19.0,4.903898,10.9160,1075
20.0,4.902564,10.9160,1075
21.0,4.900682,10.9160,1076
22.0,4.898431,10.9160,1076
23.0,4.897592,10.9160,1077
24.0,4.896320,10.9160,1077
25.0,4.894654,10.9160,1078
26.0,4.894445,10.9160,1078
27.0,4.892749,10.9160,1079
28.0,4.893019,10.9160,1079
29.0,4.891360,10.9160,1080
30.0,4.890180,10.9160,1080
31.0,4.889079,10.9160,1081
32.0,4.889248,10.9160,1081
33.0,4.888213,10.9160,1082
34.0,4.886992,10.9160,1082
35.0,4.886752,10.9160,1083
36.0,4.886270,10.9160,1083
37.0,4.884301,10.9160,1084
38.0,4.883735,10.9160,1084
39.0,4.883293,10.9160,1085
40.0,4.882931,10.9160,1085
