Data stamp = , 06-04-2022 19:04:37 492

Calibration Values: 
Slope = , 26.54 , g/V 
Offset Voltage at no contact = , -0.501760 , V 

No , Time , Stage Position ,   Mass , Force 
   ,  (s) ,      (mm)      ,   (g)  , (mN)  

1 ,0.0000 ,0.49933 ,5.22665 ,51.28391 
2 ,0.2289 ,0.49943 ,5.21981 ,51.21675 
3 ,0.5493 ,0.50032 ,5.23350 ,51.35107 
4 ,0.7574 ,0.50182 ,5.23007 ,51.31749 
5 ,0.9335 ,0.50347 ,5.21639 ,51.18317 
6 ,1.1096 ,0.50517 ,5.22323 ,51.25033 
7 ,1.3013 ,0.50701 ,5.23692 ,51.38464 
8 ,1.4777 ,0.50883 ,5.23692 ,51.38464 
9 ,1.6535 ,0.51065 ,5.22323 ,51.25033 
10 ,1.8301 ,0.51236 ,5.20270 ,51.04886 
11 ,2.0376 ,0.51439 ,5.19243 ,50.94813 
12 ,2.2138 ,0.51618 ,5.17874 ,50.81381 
13 ,2.4057 ,0.51803 ,5.15821 ,50.61234 
14 ,2.5823 ,0.51990 ,5.18216 ,50.84739 
15 ,2.7903 ,0.52194 ,5.15136 ,50.54519 
16 ,2.9662 ,0.52376 ,5.12741 ,50.31014 
17 ,3.1583 ,0.52565 ,5.11372 ,50.17583 
18 ,3.3346 ,0.52742 ,5.09661 ,50.00793 
19 ,3.4943 ,0.52912 ,5.07950 ,49.84004 
20 ,3.6865 ,0.53087 ,5.08977 ,49.94078 
21 ,3.8626 ,0.53265 ,5.07265 ,49.77289 
22 ,4.0389 ,0.53447 ,5.04870 ,49.53784 
23 ,4.2306 ,0.53641 ,5.01790 ,49.23563 
24 ,4.4067 ,0.53814 ,5.02817 ,49.33637 
25 ,4.5830 ,0.53985 ,5.01448 ,49.20205 
26 ,4.7749 ,0.54177 ,4.99737 ,49.03416 
27 ,4.9509 ,0.54360 ,4.96315 ,48.69838 
28 ,5.1431 ,0.54546 ,4.96315 ,48.69838 
29 ,5.3193 ,0.54727 ,4.96315 ,48.69838 
30 ,5.4952 ,0.54900 ,4.92550 ,48.32902 
31 ,5.7034 ,0.55103 ,4.92208 ,48.29544 
32 ,5.8955 ,0.55294 ,4.89470 ,48.02681 
33 ,6.0875 ,0.55495 ,4.86732 ,47.75819 
34 ,6.2796 ,0.55682 ,4.88101 ,47.89250 
35 ,6.4718 ,0.55878 ,4.84337 ,47.52314 
36 ,6.6797 ,0.56072 ,4.82968 ,47.38883 
37 ,6.8558 ,0.56262 ,4.81941 ,47.28809 
38 ,7.0319 ,0.56435 ,4.79204 ,47.01946 
39 ,7.2081 ,0.56614 ,4.77493 ,46.85157 
40 ,7.3841 ,0.56792 ,4.77150 ,46.81800 
41 ,7.5761 ,0.56974 ,4.73728 ,46.48221 
42 ,7.7521 ,0.57154 ,4.73728 ,46.48221 
43 ,7.9284 ,0.57334 ,4.71675 ,46.28074 
44 ,8.1364 ,0.57530 ,4.70306 ,46.14643 
45 ,8.3444 ,0.57734 ,4.69964 ,46.11285 
46 ,8.5365 ,0.57933 ,4.67226 ,45.84422 
47 ,8.7283 ,0.58140 ,4.66884 ,45.81065 
48 ,8.9046 ,0.58314 ,4.63804 ,45.50844 
49 ,9.0963 ,0.58495 ,4.63804 ,45.50844 
50 ,9.2727 ,0.58674 ,4.63119 ,45.44128 
51 ,9.4488 ,0.58853 ,4.60040 ,45.13908 
52 ,9.6249 ,0.59028 ,4.57986 ,44.93761 
53 ,9.8169 ,0.59222 ,4.56960 ,44.83688 
54 ,9.9928 ,0.59397 ,4.55591 ,44.70256 
55 ,10.1850 ,0.59583 ,4.53880 ,44.53467 
56 ,10.3611 ,0.59767 ,4.52511 ,44.40036 
57 ,10.5530 ,0.59958 ,4.51484 ,44.29962 
58 ,10.7293 ,0.60136 ,4.48404 ,43.99742 
59 ,10.8889 ,0.60305 ,4.48062 ,43.96384 
60 ,11.0655 ,0.60467 ,4.45666 ,43.72879 
61 ,11.2735 ,0.60675 ,4.44982 ,43.66163 
62 ,11.4496 ,0.60853 ,4.43613 ,43.52732 
63 ,11.6258 ,0.61034 ,4.41218 ,43.29227 
64 ,11.8177 ,0.61216 ,4.42244 ,43.39301 
65 ,11.9938 ,0.61392 ,4.40875 ,43.25870 
66 ,12.2020 ,0.61601 ,4.38138 ,42.99007 
67 ,12.3938 ,0.61797 ,4.36427 ,42.82218 
68 ,12.5696 ,0.61969 ,4.34031 ,42.58713 
69 ,12.7458 ,0.62150 ,4.32662 ,42.45282 
70 ,12.9057 ,0.62325 ,4.30951 ,42.28492 
71 ,13.0982 ,0.62490 ,4.28898 ,42.08345 
72 ,13.3063 ,0.62704 ,4.27187 ,41.91556 
73 ,13.4823 ,0.62888 ,4.26160 ,41.81483 
74 ,13.6747 ,0.63071 ,4.26502 ,41.84841 
75 ,13.8821 ,0.63283 ,4.21711 ,41.37831 
76 ,14.0582 ,0.63462 ,4.20685 ,41.27758 
77 ,14.2343 ,0.63640 ,4.20342 ,41.24400 
78 ,14.4103 ,0.63818 ,4.17947 ,41.00895 
79 ,14.5864 ,0.63990 ,4.17605 ,40.97537 
80 ,14.7785 ,0.64178 ,4.16236 ,40.84106 
81 ,14.9548 ,0.64357 ,4.14525 ,40.67317 
82 ,15.1629 ,0.64568 ,4.11445 ,40.37096 
83 ,15.3873 ,0.64788 ,4.09734 ,40.20307 
84 ,15.5790 ,0.64985 ,4.08707 ,40.10233 
85 ,15.7553 ,0.65156 ,4.08707 ,40.10233 
86 ,15.9316 ,0.65331 ,4.07338 ,39.96802 
87 ,16.1075 ,0.65511 ,4.05285 ,39.76655 
88 ,16.2832 ,0.65691 ,4.02205 ,39.46435 
89 ,16.4597 ,0.65864 ,4.01520 ,39.39719 
90 ,16.6358 ,0.66043 ,4.00836 ,39.33003 
91 ,16.8117 ,0.66214 ,3.99809 ,39.22930 
92 ,17.0199 ,0.66419 ,3.96729 ,38.92709 
93 ,17.1960 ,0.66596 ,3.97072 ,38.96067 
94 ,17.3880 ,0.66790 ,3.95018 ,38.75920 
95 ,17.5801 ,0.66979 ,3.93992 ,38.65847 
96 ,17.7562 ,0.67161 ,3.89201 ,38.18837 
97 ,17.9324 ,0.67335 ,3.91254 ,38.38984 
98 ,18.1082 ,0.67513 ,3.89885 ,38.25553 
99 ,18.2842 ,0.67687 ,3.86463 ,37.91975 
100 ,18.4765 ,0.67871 ,3.85436 ,37.81901 
101 ,18.6684 ,0.68074 ,3.84067 ,37.68470 
102 ,18.8766 ,0.68269 ,3.81672 ,37.44965 
103 ,19.0528 ,0.68456 ,3.81672 ,37.44965 
104 ,19.2608 ,0.68647 ,3.78592 ,37.14744 
105 ,19.4366 ,0.68840 ,3.77223 ,37.01313 
106 ,19.6129 ,0.69012 ,3.76539 ,36.94597 
107 ,19.8207 ,0.69218 ,3.74485 ,36.74450 
108 ,19.9966 ,0.69402 ,3.72774 ,36.57661 
109 ,20.1892 ,0.69576 ,3.71748 ,36.47588 
110 ,20.3810 ,0.69776 ,3.70037 ,36.30799 
111 ,20.5570 ,0.69960 ,3.68325 ,36.14010 
112 ,20.7493 ,0.70148 ,3.67641 ,36.07294 
113 ,20.9255 ,0.70331 ,3.67641 ,36.07294 
114 ,21.1175 ,0.70518 ,3.63877 ,35.70358 
115 ,21.2934 ,0.70699 ,3.62166 ,35.53569 
116 ,21.4852 ,0.70884 ,3.61139 ,35.43495 
117 ,21.6618 ,0.71062 ,3.61139 ,35.43495 
118 ,21.8537 ,0.71257 ,3.57717 ,35.09917 
119 ,22.0299 ,0.71432 ,3.57717 ,35.09917 
120 ,22.2380 ,0.71635 ,3.54637 ,34.79696 
121 ,22.4297 ,0.71827 ,3.54295 ,34.76338 
122 ,22.5896 ,0.72002 ,3.52926 ,34.62907 
123 ,22.7498 ,0.72161 ,3.52241 ,34.56192 
124 ,22.9263 ,0.72327 ,3.51899 ,34.52834 
125 ,23.1182 ,0.72516 ,3.47792 ,34.12540 
126 ,23.2941 ,0.72693 ,3.46424 ,33.99108 
127 ,23.4703 ,0.72869 ,3.45739 ,33.92393 
128 ,23.6461 ,0.73044 ,3.44713 ,33.82319 
129 ,23.8225 ,0.73222 ,3.43001 ,33.65530 
130 ,23.9987 ,0.73400 ,3.40948 ,33.45383 
131 ,24.1908 ,0.73591 ,3.41290 ,33.48741 
132 ,24.3668 ,0.73768 ,3.39237 ,33.28594 
133 ,24.5589 ,0.73959 ,3.37184 ,33.08447 
134 ,24.7352 ,0.74133 ,3.35130 ,32.88300 
135 ,24.9272 ,0.74327 ,3.35473 ,32.91658 
136 ,25.1190 ,0.74518 ,3.31366 ,32.51364 
137 ,25.2952 ,0.74692 ,3.29313 ,32.31217 
138 ,25.5031 ,0.74898 ,3.28971 ,32.27859 
139 ,25.6794 ,0.75077 ,3.28628 ,32.24501 
140 ,25.8874 ,0.75286 ,3.27944 ,32.17786 
141 ,26.0794 ,0.75482 ,3.25548 ,31.94281 
142 ,26.2716 ,0.75670 ,3.22811 ,31.67418 
143 ,26.4475 ,0.75845 ,3.23495 ,31.74134 
144 ,26.6236 ,0.76022 ,3.22126 ,31.60702 
145 ,26.7997 ,0.76198 ,3.19046 ,31.30482 
146 ,26.9916 ,0.76386 ,3.18020 ,31.20409 
147 ,27.1838 ,0.76573 ,3.16993 ,31.10335 
148 ,27.3601 ,0.76759 ,3.15282 ,30.93546 
149 ,27.5684 ,0.76956 ,3.12886 ,30.70041 
150 ,27.7602 ,0.77159 ,3.10833 ,30.49894 
151 ,27.9522 ,0.77348 ,3.11518 ,30.56610 
152 ,28.1285 ,0.77527 ,3.09122 ,30.33105 
153 ,28.3525 ,0.77737 ,3.07753 ,30.19674 
154 ,28.5284 ,0.77927 ,3.06726 ,30.09600 
155 ,28.7042 ,0.78110 ,3.03989 ,29.82737 
156 ,28.8807 ,0.78278 ,3.03304 ,29.76022 
157 ,29.0726 ,0.78466 ,3.00224 ,29.45801 
158 ,29.2647 ,0.78653 ,3.00909 ,29.52517 
159 ,29.4407 ,0.78845 ,2.98171 ,29.25654 
160 ,29.6169 ,0.79013 ,2.96460 ,29.08865 
161 ,29.8090 ,0.79193 ,2.96118 ,29.05507 
162 ,30.0008 ,0.79393 ,2.95433 ,28.98792 
163 ,30.1772 ,0.79577 ,2.94407 ,28.88718 
164 ,30.3692 ,0.79766 ,2.92011 ,28.65213 
165 ,30.5454 ,0.79944 ,2.91669 ,28.61856 
166 ,30.7215 ,0.80117 ,2.89958 ,28.45066 
167 ,30.9133 ,0.80301 ,2.86878 ,28.14846 
168 ,31.0891 ,0.80491 ,2.85509 ,28.01415 
169 ,31.2977 ,0.80680 ,2.85167 ,27.98057 
170 ,31.4896 ,0.80884 ,2.82771 ,27.74552 
171 ,31.6818 ,0.81077 ,2.83456 ,27.81268 
172 ,31.8579 ,0.81256 ,2.79349 ,27.40974 
173 ,32.0339 ,0.81432 ,2.79007 ,27.37616 
174 ,32.2100 ,0.81604 ,2.78322 ,27.30900 
175 ,32.3862 ,0.81785 ,2.76954 ,27.17469 
176 ,32.5621 ,0.81955 ,2.76269 ,27.10753 
177 ,32.7543 ,0.82148 ,2.72847 ,26.77175 
178 ,32.9464 ,0.82337 ,2.70794 ,26.57028 
179 ,33.1225 ,0.82524 ,2.71136 ,26.60386 
180 ,33.2985 ,0.82697 ,2.68740 ,26.36881 
181 ,33.4905 ,0.82887 ,2.66345 ,26.13376 
182 ,33.6827 ,0.83075 ,2.67714 ,26.26807 
183 ,33.8586 ,0.83257 ,2.66687 ,26.16734 
184 ,34.0508 ,0.83448 ,2.63265 ,25.83156 
185 ,34.2426 ,0.83633 ,2.63265 ,25.83156 
186 ,34.4190 ,0.83817 ,2.61896 ,25.69724 
187 ,34.6430 ,0.84024 ,2.59501 ,25.46220 
188 ,34.8351 ,0.84228 ,2.57447 ,25.26073 
189 ,35.0272 ,0.84414 ,2.55052 ,25.02568 
190 ,35.2192 ,0.84608 ,2.55394 ,25.05926 
191 ,35.4271 ,0.84817 ,2.52314 ,24.75705 
192 ,35.6192 ,0.85018 ,2.51972 ,24.72347 
193 ,35.7952 ,0.85193 ,2.50945 ,24.62274 
194 ,35.9715 ,0.85365 ,2.48892 ,24.42127 
195 ,36.1475 ,0.85543 ,2.48207 ,24.35411 
196 ,36.3553 ,0.85735 ,2.44785 ,24.01833 
197 ,36.5319 ,0.85927 ,2.44101 ,23.95117 
198 ,36.7558 ,0.86136 ,2.41705 ,23.71612 
199 ,36.9320 ,0.86328 ,2.41705 ,23.71612 
200 ,37.1238 ,0.86519 ,2.39994 ,23.54823 
201 ,37.2998 ,0.86691 ,2.39310 ,23.48108 
202 ,37.4760 ,0.86876 ,2.34519 ,23.01098 
203 ,37.6523 ,0.87047 ,2.34861 ,23.04456 
204 ,37.8442 ,0.87242 ,2.33834 ,22.94382 
205 ,38.0204 ,0.87417 ,2.33150 ,22.87667 
206 ,38.1964 ,0.87596 ,2.32808 ,22.84309 
207 ,38.3725 ,0.87762 ,2.27674 ,22.33941 
208 ,38.5486 ,0.87939 ,2.26990 ,22.27226 
209 ,38.7085 ,0.88114 ,2.27674 ,22.33941 
210 ,38.8847 ,0.88281 ,2.25621 ,22.13794 
211 ,39.0768 ,0.88465 ,2.24937 ,22.07079 
212 ,39.2688 ,0.88663 ,2.21515 ,21.73500 
213 ,39.4450 ,0.88835 ,2.21172 ,21.70143 
214 ,39.6210 ,0.89013 ,2.20146 ,21.60069 
215 ,39.7971 ,0.89192 ,2.20830 ,21.66785 
216 ,39.9732 ,0.89363 ,2.16723 ,21.26491 
217 ,40.1652 ,0.89561 ,2.15012 ,21.09702 
218 ,40.3574 ,0.89752 ,2.16381 ,21.23133 
219 ,40.5654 ,0.89947 ,2.12275 ,20.82839 
220 ,40.7574 ,0.90148 ,2.12959 ,20.89555 
221 ,40.9656 ,0.90350 ,2.09195 ,20.52619 
222 ,41.1576 ,0.90554 ,2.09195 ,20.52619 
223 ,41.3336 ,0.90724 ,2.07484 ,20.35829 
224 ,41.5097 ,0.90899 ,2.05773 ,20.19040 
225 ,41.6855 ,0.91080 ,2.04061 ,20.02251 
226 ,41.8778 ,0.91260 ,2.03035 ,19.92178 
227 ,42.0860 ,0.91469 ,2.02008 ,19.82104 
228 ,42.2622 ,0.91655 ,1.99955 ,19.61957 
229 ,42.4541 ,0.91846 ,1.98928 ,19.51884 
230 ,42.6462 ,0.92027 ,1.96875 ,19.31737 
231 ,42.8223 ,0.92217 ,1.95848 ,19.21663 
232 ,42.9983 ,0.92389 ,1.97217 ,19.35094 
233 ,43.1744 ,0.92566 ,1.94822 ,19.11590 
234 ,43.3503 ,0.92743 ,1.92084 ,18.84727 
235 ,43.5266 ,0.92921 ,1.91057 ,18.74654 
236 ,43.7026 ,0.93096 ,1.88319 ,18.47791 
237 ,43.8947 ,0.93284 ,1.89004 ,18.54507 
238 ,44.0709 ,0.93463 ,1.87635 ,18.41075 
239 ,44.2629 ,0.93654 ,1.83528 ,18.00781 
240 ,44.4548 ,0.93837 ,1.84213 ,18.07497 
241 ,44.6630 ,0.94050 ,1.80791 ,17.73919 
242 ,44.8389 ,0.94231 ,1.79764 ,17.63845 
243 ,45.0153 ,0.94410 ,1.79764 ,17.63845 
244 ,45.2234 ,0.94606 ,1.77369 ,17.40340 
245 ,45.4315 ,0.94817 ,1.77369 ,17.40340 
246 ,45.6076 ,0.95003 ,1.74289 ,17.10120 
247 ,45.7997 ,0.95186 ,1.73946 ,17.06762 
248 ,45.9756 ,0.95364 ,1.72920 ,16.96689 
249 ,46.1518 ,0.95544 ,1.72578 ,16.93331 
250 ,46.3280 ,0.95721 ,1.70182 ,16.69826 
251 ,46.5039 ,0.95890 ,1.67786 ,16.46321 
252 ,46.6799 ,0.96069 ,1.67444 ,16.42963 
253 ,46.8560 ,0.96247 ,1.66760 ,16.36248 
254 ,47.0322 ,0.96422 ,1.65049 ,16.19458 
255 ,47.2082 ,0.96601 ,1.62653 ,15.95954 
256 ,47.4002 ,0.96785 ,1.61284 ,15.82522 
257 ,47.5764 ,0.96968 ,1.60600 ,15.75807 
258 ,47.7685 ,0.97156 ,1.60258 ,15.72449 
259 ,47.9604 ,0.97343 ,1.57862 ,15.48944 
260 ,48.1206 ,0.97521 ,1.57520 ,15.45586 
261 ,48.3126 ,0.97696 ,1.56836 ,15.38871 
262 ,48.4887 ,0.97885 ,1.55124 ,15.22081 
263 ,48.6647 ,0.98054 ,1.52729 ,14.98577 
264 ,48.8409 ,0.98229 ,1.49991 ,14.71714 
265 ,49.0330 ,0.98427 ,1.48622 ,14.58283 
266 ,49.2250 ,0.98602 ,1.50333 ,14.75072 
267 ,49.4172 ,0.98799 ,1.47938 ,14.51567 
268 ,49.5931 ,0.98987 ,1.46569 ,14.38136 
269 ,49.7692 ,0.99159 ,1.45200 ,14.24704 
270 ,49.9451 ,0.99332 ,1.43489 ,14.07915 
271 ,50.1210 ,0.99507 ,1.41436 ,13.87768 
272 ,50.2973 ,0.99690 ,1.40409 ,13.77695 
273 ,50.4892 ,0.99879 ,1.40751 ,13.81053 
274 ,50.6655 ,1.00058 ,1.38014 ,13.54190 
275 ,50.8576 ,1.00243 ,1.36645 ,13.40759 
276 ,51.0336 ,1.00420 ,1.37671 ,13.50832 
277 ,51.2095 ,1.00602 ,1.35276 ,13.27327 
278 ,51.4019 ,1.00786 ,1.32538 ,13.00465 
279 ,51.5938 ,1.00984 ,1.33565 ,13.10538 
280 ,51.7701 ,1.01160 ,1.30827 ,12.83675 
281 ,51.9782 ,1.01356 ,1.27747 ,12.53455 
282 ,52.1857 ,1.01568 ,1.27747 ,12.53455 
283 ,52.3620 ,1.01751 ,1.26036 ,12.36666 
284 ,52.5538 ,1.01940 ,1.25009 ,12.26592 
285 ,52.7305 ,1.02116 ,1.25009 ,12.26592 
286 ,52.9060 ,1.02304 ,1.21929 ,11.96372 
287 ,53.0821 ,1.02476 ,1.22272 ,11.99730 
288 ,53.2581 ,1.02647 ,1.19876 ,11.76225 
289 ,53.4504 ,1.02833 ,1.20561 ,11.82941 
290 ,53.6588 ,1.03048 ,1.16796 ,11.46004 
291 ,53.8509 ,1.03242 ,1.18165 ,11.59436 
292 ,54.0588 ,1.03438 ,1.14058 ,11.19142 
293 ,54.2350 ,1.03622 ,1.14058 ,11.19142 
294 ,54.4427 ,1.03822 ,1.12347 ,11.02353 
295 ,54.6351 ,1.04016 ,1.12347 ,11.02353 
296 ,54.8271 ,1.04218 ,1.10636 ,10.85563 
297 ,55.0033 ,1.04392 ,1.08925 ,10.68774 
298 ,55.1952 ,1.04581 ,1.07899 ,10.58701 
299 ,55.3715 ,1.04757 ,1.06187 ,10.41912 
300 ,55.5631 ,1.04953 ,1.04819 ,10.28480 
301 ,55.7556 ,1.05136 ,1.04476 ,10.25123 
302 ,55.9477 ,1.05336 ,1.03108 ,10.11691 
303 ,56.1398 ,1.05518 ,1.00712 ,9.88186 
304 ,56.3320 ,1.05717 ,1.00370 ,9.84829 
305 ,56.5079 ,1.05899 ,0.97290 ,9.54608 
306 ,56.6679 ,1.06063 ,0.96263 ,9.44535 
307 ,56.8439 ,1.06228 ,0.95921 ,9.41177 
308 ,57.0198 ,1.06413 ,0.95237 ,9.34461 
309 ,57.1958 ,1.06582 ,0.93525 ,9.17672 
310 ,57.3718 ,1.06756 ,0.93183 ,9.14314 
311 ,57.5483 ,1.06937 ,0.92499 ,9.07598 
312 ,57.7404 ,1.07127 ,0.89077 ,8.74020 
313 ,57.9325 ,1.07323 ,0.90103 ,8.84094 
314 ,58.1086 ,1.07495 ,0.89077 ,8.74020 
315 ,58.3006 ,1.07687 ,0.86339 ,8.47158 
316 ,58.4927 ,1.07878 ,0.86339 ,8.47158 
317 ,58.6689 ,1.08059 ,0.85312 ,8.37084 
318 ,58.8609 ,1.08241 ,0.81890 ,8.03506 
319 ,59.0690 ,1.08454 ,0.81890 ,8.03506 
320 ,59.2450 ,1.08635 ,0.80179 ,7.86717 
321 ,59.4212 ,1.08805 ,0.78810 ,7.73285 
322 ,59.6132 ,1.08993 ,0.80521 ,7.90074 
323 ,59.8048 ,1.09197 ,0.77099 ,7.56496 
324 ,59.9814 ,1.09365 ,0.76415 ,7.49780 
325 ,60.1574 ,1.09540 ,0.74019 ,7.26276 
326 ,60.3491 ,1.09728 ,0.74704 ,7.32991 
327 ,60.5256 ,1.09914 ,0.74361 ,7.29633 
328 ,60.7014 ,1.10088 ,0.71624 ,7.02771 
329 ,60.8933 ,1.10282 ,0.68886 ,6.75908 
330 ,61.0698 ,1.10458 ,0.69913 ,6.85982 
331 ,61.2618 ,1.10642 ,0.68201 ,6.69193 
332 ,61.4380 ,1.10825 ,0.66148 ,6.49046 
333 ,61.6140 ,1.10997 ,0.64437 ,6.32256 
334 ,61.7902 ,1.11177 ,0.65464 ,6.42330 
335 ,61.9822 ,1.11365 ,0.65121 ,6.38972 
336 ,62.1581 ,1.11544 ,0.62726 ,6.15467 
337 ,62.3345 ,1.11717 ,0.61357 ,6.02036 
338 ,62.5424 ,1.11918 ,0.59646 ,5.85247 
339 ,62.7185 ,1.12101 ,0.59304 ,5.81889 
340 ,62.9103 ,1.12289 ,0.57935 ,5.68458 
341 ,63.1023 ,1.12478 ,0.57935 ,5.68458 
342 ,63.2786 ,1.12671 ,0.54513 ,5.34879 
343 ,63.4549 ,1.12838 ,0.53486 ,5.24806 
344 ,63.6626 ,1.13048 ,0.52802 ,5.18090 
345 ,63.8391 ,1.13220 ,0.52459 ,5.14732 
346 ,64.0148 ,1.13402 ,0.50406 ,4.94585 
347 ,64.2069 ,1.13583 ,0.51433 ,5.04659 
348 ,64.4150 ,1.13790 ,0.49380 ,4.84512 
349 ,64.6073 ,1.13982 ,0.50748 ,4.97943 
350 ,64.7992 ,1.14185 ,0.47326 ,4.64365 
351 ,64.9751 ,1.14358 ,0.45273 ,4.44218 
352 ,65.1514 ,1.14541 ,0.44931 ,4.40860 
353 ,65.3276 ,1.14711 ,0.43904 ,4.30787 
354 ,65.5032 ,1.14899 ,0.43220 ,4.24071 
355 ,65.6796 ,1.15061 ,0.41851 ,4.10640 
356 ,65.8557 ,1.15236 ,0.39797 ,3.90493 
357 ,66.0479 ,1.15431 ,0.39797 ,3.90493 
358 ,66.2398 ,1.15612 ,0.38771 ,3.80419 
359 ,66.4160 ,1.15794 ,0.36375 ,3.56914 
360 ,66.6080 ,1.15995 ,0.36718 ,3.60272 
361 ,66.7841 ,1.16169 ,0.36718 ,3.60272 
362 ,66.9602 ,1.16345 ,0.36033 ,3.53557 
363 ,67.1523 ,1.16536 ,0.32611 ,3.19978 
364 ,67.3283 ,1.16714 ,0.32611 ,3.19978 
365 ,67.5204 ,1.16900 ,0.30900 ,3.03189 
366 ,67.7287 ,1.17100 ,0.31584 ,3.09905 
367 ,67.9044 ,1.17287 ,0.30215 ,2.96473 
368 ,68.0965 ,1.17473 ,0.27820 ,2.72969 
369 ,68.2726 ,1.17651 ,0.26109 ,2.56179 
370 ,68.4647 ,1.17839 ,0.27135 ,2.66253 
371 ,68.6569 ,1.18043 ,0.25082 ,2.46106 
372 ,68.8488 ,1.18221 ,0.23713 ,2.32675 
373 ,69.0251 ,1.18413 ,0.23029 ,2.25959 
374 ,69.2169 ,1.18595 ,0.23029 ,2.25959 
375 ,69.3931 ,1.18770 ,0.19607 ,1.92381 
376 ,69.5850 ,1.18961 ,0.22687 ,2.22601 
377 ,69.7772 ,1.19151 ,0.19949 ,1.95738 
378 ,69.9530 ,1.19332 ,0.17211 ,1.68876 
379 ,70.1295 ,1.19511 ,0.15500 ,1.52087 
380 ,70.3374 ,1.19715 ,0.16185 ,1.58802 
381 ,70.5137 ,1.19890 ,0.14473 ,1.42013 
382 ,70.7056 ,1.20091 ,0.14816 ,1.45371 
383 ,70.8977 ,1.20275 ,0.13447 ,1.31940 
384 ,71.0736 ,1.20455 ,0.12762 ,1.25224 
385 ,71.2659 ,1.20648 ,0.11393 ,1.11793 
386 ,71.4577 ,1.20828 ,0.10025 ,0.98361 
387 ,71.6500 ,1.21028 ,0.08998 ,0.88288 
388 ,71.8420 ,1.21223 ,0.08998 ,0.88288 
389 ,72.0179 ,1.21401 ,0.08314 ,0.81572 
390 ,72.2102 ,1.21585 ,0.06602 ,0.64783 
391 ,72.3699 ,1.21760 ,0.05918 ,0.58067 
392 ,72.5462 ,1.21933 ,0.04549 ,0.44636 
393 ,72.7540 ,1.22123 ,0.04891 ,0.47994 
394 ,72.9464 ,1.22317 ,0.02154 ,0.21131 
395 ,73.1381 ,1.22525 ,0.01811 ,0.17773 
396 ,73.2983 ,1.22690 ,0.01469 ,0.14416 
397 ,73.4582 ,1.22850 ,-0.01611 ,-0.15805 
398 ,73.6348 ,1.23018 ,-0.01611 ,-0.15805 
399 ,73.8427 ,1.23214 ,-0.02980 ,-0.29236 
400 ,74.0350 ,1.23411 ,-0.02980 ,-0.29236 
401 ,74.2270 ,1.23602 ,-0.05033 ,-0.49383 
402 ,74.4028 ,1.23779 ,-0.05717 ,-0.56099 
403 ,74.5791 ,1.23955 ,-0.05375 ,-0.52741 
404 ,74.7548 ,1.24139 ,-0.05717 ,-0.56099 
405 ,74.9309 ,1.24309 ,-0.07771 ,-0.76246 
406 ,75.1071 ,1.24491 ,-0.09824 ,-0.96393 
407 ,75.2991 ,1.24676 ,-0.07771 ,-0.76246 
408 ,75.4754 ,1.24851 ,-0.09140 ,-0.89677 
409 ,75.6676 ,1.25047 ,-0.12904 ,-1.26613 
410 ,75.8432 ,1.25219 ,-0.12219 ,-1.19898 
411 ,76.0198 ,1.25398 ,-0.12904 ,-1.26613 
412 ,76.1959 ,1.25574 ,-0.13246 ,-1.29971 
413 ,76.3720 ,1.25752 ,-0.14957 ,-1.46760 
414 ,76.5639 ,1.25942 ,-0.15642 ,-1.53476 
415 ,76.7402 ,1.26122 ,-0.16668 ,-1.63549 
416 ,76.9320 ,1.26313 ,-0.18379 ,-1.80338 
417 ,77.1084 ,1.26487 ,-0.20433 ,-2.00485 
418 ,77.3159 ,1.26678 ,-0.19064 ,-1.87054 
419 ,77.4925 ,1.26872 ,-0.21117 ,-2.07201 
420 ,77.6844 ,1.27061 ,-0.21117 ,-2.07201 
421 ,77.8602 ,1.27239 ,-0.23170 ,-2.27348 
422 ,78.0202 ,1.27411 ,-0.21802 ,-2.13917 
423 ,78.1967 ,1.27574 ,-0.22828 ,-2.23990 
424 ,78.4047 ,1.27782 ,-0.25908 ,-2.54211 
425 ,78.5968 ,1.27978 ,-0.25908 ,-2.54211 
426 ,78.7730 ,1.28151 ,-0.26250 ,-2.57569 
427 ,78.9648 ,1.28348 ,-0.27961 ,-2.74358 
428 ,79.1572 ,1.28537 ,-0.27961 ,-2.74358 
429 ,79.3491 ,1.28728 ,-0.31384 ,-3.07936 
430 ,79.5252 ,1.28905 ,-0.31726 ,-3.11294 
431 ,79.7010 ,1.29075 ,-0.32068 ,-3.14652 
432 ,79.8773 ,1.29258 ,-0.32752 ,-3.21367 
433 ,80.0531 ,1.29430 ,-0.32752 ,-3.21367 
434 ,80.2455 ,1.29619 ,-0.34806 ,-3.41514 
435 ,80.4378 ,1.29806 ,-0.34121 ,-3.34799 
436 ,80.6135 ,1.29989 ,-0.35148 ,-3.44872 
437 ,80.8219 ,1.30193 ,-0.36517 ,-3.58303 
438 ,80.9979 ,1.30377 ,-0.36859 ,-3.61661 
439 ,81.1896 ,1.30565 ,-0.37544 ,-3.68377 
440 ,81.3660 ,1.30744 ,-0.39939 ,-3.91882 
441 ,81.5580 ,1.30937 ,-0.40281 ,-3.95240 
442 ,81.7343 ,1.31113 ,-0.40966 ,-4.01955 
443 ,81.9261 ,1.31304 ,-0.42677 ,-4.18744 
444 ,82.1021 ,1.31479 ,-0.43703 ,-4.28818 
445 ,82.2942 ,1.31674 ,-0.45072 ,-4.42249 
446 ,82.4701 ,1.31853 ,-0.45072 ,-4.42249 
447 ,82.6462 ,1.32020 ,-0.45757 ,-4.48965 
448 ,82.8223 ,1.32194 ,-0.46441 ,-4.55681 
449 ,82.9987 ,1.32377 ,-0.47810 ,-4.69112 
450 ,83.1908 ,1.32569 ,-0.47810 ,-4.69112 
451 ,83.3668 ,1.32744 ,-0.48152 ,-4.72470 
452 ,83.5589 ,1.32933 ,-0.51232 ,-5.02690 
453 ,83.7351 ,1.33114 ,-0.50890 ,-4.99332 
454 ,83.9272 ,1.33296 ,-0.53285 ,-5.22837 
455 ,84.1030 ,1.33483 ,-0.53628 ,-5.26195 
456 ,84.2790 ,1.33656 ,-0.54654 ,-5.36268 
457 ,84.4552 ,1.33831 ,-0.53285 ,-5.22837 
458 ,84.6471 ,1.34022 ,-0.55681 ,-5.46342 
459 ,84.8231 ,1.34197 ,-0.56023 ,-5.49700 
460 ,85.0154 ,1.34390 ,-0.54997 ,-5.39626 
461 ,85.2236 ,1.34594 ,-0.59788 ,-5.86636 
462 ,85.4153 ,1.34782 ,-0.58761 ,-5.76562 
463 ,85.5918 ,1.34967 ,-0.58419 ,-5.73205 
464 ,85.7838 ,1.35156 ,-0.60130 ,-5.89994 
