Data stamp = , 07-04-2022 03:21:29 413

Calibration Values: 
Slope = , 26.54 , g/V 
Offset Voltage at no contact = , -0.501760 , V 

No , Time , Stage Position ,   Mass , Force 
   ,  (s) ,      (mm)      ,   (g)  , (mN)  

1 ,0.0000 ,0.49942 ,5.25403 ,51.55254 
2 ,0.2124 ,0.49949 ,5.24718 ,51.48538 
3 ,0.5487 ,0.50036 ,5.24376 ,51.45180 
4 ,0.7571 ,0.50187 ,5.22665 ,51.28391 
5 ,0.9650 ,0.50373 ,5.22665 ,51.28391 
6 ,1.1731 ,0.50576 ,5.24034 ,51.41822 
7 ,1.3493 ,0.50761 ,5.24376 ,51.45180 
8 ,1.5254 ,0.50939 ,5.21981 ,51.21675 
9 ,1.7334 ,0.51144 ,5.21981 ,51.21675 
10 ,1.9415 ,0.51351 ,5.19585 ,50.98170 
11 ,2.1171 ,0.51539 ,5.18901 ,50.91455 
12 ,2.2935 ,0.51705 ,5.17190 ,50.74666 
13 ,2.4697 ,0.51882 ,5.15136 ,50.54519 
14 ,2.6458 ,0.52061 ,5.12399 ,50.27656 
15 ,2.8378 ,0.52249 ,5.12399 ,50.27656 
16 ,3.0137 ,0.52430 ,5.10688 ,50.10867 
17 ,3.2061 ,0.52624 ,5.07950 ,49.84004 
18 ,3.3980 ,0.52817 ,5.05897 ,49.63857 
19 ,3.5742 ,0.52992 ,5.05554 ,49.60499 
20 ,3.7660 ,0.53175 ,5.03501 ,49.40352 
21 ,3.9423 ,0.53357 ,5.00079 ,49.06774 
22 ,4.1504 ,0.53551 ,5.00421 ,49.10132 
23 ,4.3422 ,0.53759 ,4.97341 ,48.79911 
24 ,4.5185 ,0.53934 ,4.96315 ,48.69838 
25 ,4.7107 ,0.54125 ,4.95972 ,48.66480 
26 ,4.9026 ,0.54316 ,4.92550 ,48.32902 
27 ,5.0947 ,0.54504 ,4.90839 ,48.16113 
28 ,5.2868 ,0.54695 ,4.89128 ,47.99324 
29 ,5.4950 ,0.54905 ,4.88786 ,47.95966 
30 ,5.7030 ,0.55116 ,4.84679 ,47.55672 
31 ,5.8790 ,0.55294 ,4.83995 ,47.48956 
32 ,6.0712 ,0.55485 ,4.84337 ,47.52314 
33 ,6.2636 ,0.55683 ,4.80915 ,47.18736 
34 ,6.4394 ,0.55852 ,4.77835 ,46.88515 
35 ,6.6154 ,0.56028 ,4.79204 ,47.01946 
36 ,6.7915 ,0.56203 ,4.77150 ,46.81800 
37 ,6.9673 ,0.56381 ,4.74413 ,46.54937 
38 ,7.1437 ,0.56556 ,4.73386 ,46.44863 
39 ,7.3358 ,0.56753 ,4.72017 ,46.31432 
40 ,7.5278 ,0.56941 ,4.70648 ,46.18001 
41 ,7.7039 ,0.57113 ,4.67911 ,45.91138 
42 ,7.9120 ,0.57320 ,4.67226 ,45.84422 
43 ,8.0880 ,0.57509 ,4.65173 ,45.64275 
44 ,8.2640 ,0.57674 ,4.62435 ,45.37413 
45 ,8.4403 ,0.57853 ,4.60724 ,45.20624 
46 ,8.6321 ,0.58046 ,4.61066 ,45.23981 
47 ,8.8244 ,0.58237 ,4.58671 ,45.00477 
48 ,9.0005 ,0.58414 ,4.56275 ,44.76972 
49 ,9.1763 ,0.58591 ,4.54906 ,44.63541 
50 ,9.3845 ,0.58786 ,4.56275 ,44.76972 
51 ,9.5606 ,0.58977 ,4.52511 ,44.40036 
52 ,9.7688 ,0.59183 ,4.51826 ,44.33320 
53 ,9.9606 ,0.59371 ,4.49431 ,44.09815 
54 ,10.1364 ,0.59557 ,4.49431 ,44.09815 
55 ,10.3128 ,0.59728 ,4.47720 ,43.93026 
56 ,10.5050 ,0.59916 ,4.45324 ,43.69521 
57 ,10.6811 ,0.60089 ,4.42244 ,43.39301 
58 ,10.8731 ,0.60287 ,4.43271 ,43.49374 
59 ,11.0492 ,0.60459 ,4.42244 ,43.39301 
60 ,11.2409 ,0.60656 ,4.37111 ,42.88933 
61 ,11.4333 ,0.60844 ,4.35742 ,42.75502 
62 ,11.6094 ,0.61016 ,4.36427 ,42.82218 
63 ,11.7856 ,0.61197 ,4.34031 ,42.58713 
64 ,11.9776 ,0.61391 ,4.30951 ,42.28492 
65 ,12.1536 ,0.61567 ,4.31978 ,42.38566 
66 ,12.3293 ,0.61736 ,4.30609 ,42.25135 
67 ,12.5059 ,0.61920 ,4.28556 ,42.04988 
68 ,12.7139 ,0.62124 ,4.27187 ,41.91556 
69 ,12.9059 ,0.62321 ,4.26160 ,41.81483 
70 ,13.0817 ,0.62493 ,4.24107 ,41.61336 
71 ,13.2741 ,0.62675 ,4.21711 ,41.37831 
72 ,13.4498 ,0.62867 ,4.20000 ,41.21042 
73 ,13.6263 ,0.63038 ,4.18631 ,41.07611 
74 ,13.8024 ,0.63216 ,4.16236 ,40.84106 
75 ,13.9945 ,0.63408 ,4.15551 ,40.77390 
76 ,14.1864 ,0.63592 ,4.14867 ,40.70674 
77 ,14.3787 ,0.63791 ,4.10418 ,40.27023 
78 ,14.5705 ,0.63977 ,4.12129 ,40.43812 
79 ,14.7788 ,0.64188 ,4.09049 ,40.13591 
80 ,14.9706 ,0.64374 ,4.09391 ,40.16949 
81 ,15.1470 ,0.64558 ,4.06996 ,39.93444 
82 ,15.3229 ,0.64734 ,4.04943 ,39.73297 
83 ,15.5309 ,0.64940 ,4.04943 ,39.73297 
84 ,15.7072 ,0.65116 ,4.02889 ,39.53150 
85 ,15.8832 ,0.65294 ,4.00836 ,39.33003 
86 ,16.0592 ,0.65472 ,3.98098 ,39.06141 
87 ,16.2355 ,0.65644 ,3.96729 ,38.92709 
88 ,16.4115 ,0.65822 ,3.95018 ,38.75920 
89 ,16.5870 ,0.65998 ,3.95703 ,38.82636 
90 ,16.7795 ,0.66188 ,3.92281 ,38.49058 
91 ,16.9556 ,0.66370 ,3.90570 ,38.32268 
92 ,17.1318 ,0.66539 ,3.91938 ,38.45700 
93 ,17.3239 ,0.66734 ,3.89201 ,38.18837 
94 ,17.4999 ,0.66912 ,3.87147 ,37.98690 
95 ,17.6918 ,0.67096 ,3.87147 ,37.98690 
96 ,17.8679 ,0.67276 ,3.84410 ,37.71828 
97 ,18.0440 ,0.67451 ,3.83041 ,37.58396 
98 ,18.2203 ,0.67631 ,3.82014 ,37.48323 
99 ,18.4123 ,0.67814 ,3.79276 ,37.21460 
100 ,18.6043 ,0.68012 ,3.78934 ,37.18102 
101 ,18.7804 ,0.68186 ,3.75170 ,36.81166 
102 ,18.9566 ,0.68364 ,3.74828 ,36.77808 
103 ,19.1486 ,0.68555 ,3.74485 ,36.74450 
104 ,19.3246 ,0.68731 ,3.72090 ,36.50946 
105 ,19.5166 ,0.68923 ,3.69694 ,36.27441 
106 ,19.7249 ,0.69125 ,3.70037 ,36.30799 
107 ,19.9170 ,0.69318 ,3.66957 ,36.00578 
108 ,20.0929 ,0.69502 ,3.65588 ,35.87147 
109 ,20.2689 ,0.69676 ,3.65246 ,35.83789 
110 ,20.4612 ,0.69866 ,3.63192 ,35.63642 
111 ,20.6692 ,0.70066 ,3.61823 ,35.50211 
112 ,20.8449 ,0.70253 ,3.61481 ,35.46853 
113 ,21.0215 ,0.70429 ,3.58401 ,35.16632 
114 ,21.2135 ,0.70622 ,3.56348 ,34.96485 
115 ,21.4057 ,0.70811 ,3.57032 ,35.03201 
116 ,21.5817 ,0.70990 ,3.54979 ,34.83054 
117 ,21.8058 ,0.71197 ,3.52926 ,34.62907 
118 ,21.9818 ,0.71403 ,3.50188 ,34.36045 
119 ,22.1738 ,0.71578 ,3.49846 ,34.32687 
120 ,22.3500 ,0.71758 ,3.48819 ,34.22613 
121 ,22.5421 ,0.71949 ,3.48477 ,34.19255 
122 ,22.9262 ,0.72228 ,3.45739 ,33.92393 
123 ,23.1184 ,0.72518 ,3.41975 ,33.55457 
124 ,23.2943 ,0.72706 ,3.39921 ,33.35310 
125 ,23.4865 ,0.72895 ,3.40948 ,33.45383 
126 ,23.6620 ,0.73070 ,3.39579 ,33.31952 
127 ,23.8382 ,0.73245 ,3.37184 ,33.08447 
128 ,23.9982 ,0.73419 ,3.35130 ,32.88300 
129 ,24.1904 ,0.73591 ,3.35130 ,32.88300 
130 ,24.4149 ,0.73815 ,3.32393 ,32.61437 
131 ,24.6226 ,0.74023 ,3.31024 ,32.48006 
132 ,24.7990 ,0.74204 ,3.29997 ,32.37933 
133 ,24.9909 ,0.74392 ,3.29313 ,32.31217 
134 ,25.1671 ,0.74573 ,3.27259 ,32.11070 
135 ,25.3751 ,0.74765 ,3.24864 ,31.87565 
136 ,25.5514 ,0.74958 ,3.23153 ,31.70776 
137 ,25.7752 ,0.75184 ,3.21100 ,31.50629 
138 ,25.9516 ,0.75360 ,3.20415 ,31.43913 
139 ,26.1432 ,0.75542 ,3.19731 ,31.37198 
140 ,26.3196 ,0.75724 ,3.18704 ,31.27124 
141 ,26.5276 ,0.75931 ,3.14940 ,30.90188 
142 ,26.7037 ,0.76111 ,3.15624 ,30.96904 
143 ,26.8956 ,0.76293 ,3.13229 ,30.73399 
144 ,27.0719 ,0.76477 ,3.11860 ,30.59968 
145 ,27.2478 ,0.76653 ,3.10833 ,30.49894 
146 ,27.4240 ,0.76829 ,3.09464 ,30.36463 
147 ,27.6002 ,0.77006 ,3.08438 ,30.26389 
148 ,27.8083 ,0.77208 ,3.08438 ,30.26389 
149 ,28.0003 ,0.77399 ,3.04673 ,29.89453 
150 ,28.1764 ,0.77584 ,3.03304 ,29.76022 
151 ,28.3524 ,0.77761 ,3.01935 ,29.62590 
152 ,28.5445 ,0.77940 ,3.00567 ,29.49159 
153 ,28.7524 ,0.78153 ,2.98513 ,29.29012 
154 ,28.9286 ,0.78348 ,2.98855 ,29.32370 
155 ,29.1048 ,0.78510 ,2.97487 ,29.18939 
156 ,29.3127 ,0.78711 ,2.94064 ,28.85360 
157 ,29.5210 ,0.78916 ,2.94064 ,28.85360 
158 ,29.7450 ,0.79138 ,2.92696 ,28.71929 
159 ,29.9212 ,0.79325 ,2.91669 ,28.61856 
160 ,30.1131 ,0.79518 ,2.88247 ,28.28277 
161 ,30.3052 ,0.79709 ,2.87905 ,28.24919 
162 ,30.4810 ,0.79880 ,2.86878 ,28.14846 
163 ,30.6570 ,0.80065 ,2.85509 ,28.01415 
164 ,30.8170 ,0.80233 ,2.82087 ,27.67836 
165 ,30.9935 ,0.80394 ,2.81402 ,27.61121 
166 ,31.1854 ,0.80591 ,2.81060 ,27.57763 
167 ,31.3620 ,0.80766 ,2.81060 ,27.57763 
168 ,31.5377 ,0.80950 ,2.77638 ,27.24185 
169 ,31.6977 ,0.81112 ,2.76611 ,27.14111 
170 ,31.8736 ,0.81278 ,2.75243 ,27.00680 
171 ,32.0659 ,0.81460 ,2.76269 ,27.10753 
172 ,32.2420 ,0.81646 ,2.74558 ,26.93964 
173 ,32.4340 ,0.81837 ,2.71136 ,26.60386 
174 ,32.6101 ,0.82009 ,2.70109 ,26.50312 
175 ,32.7860 ,0.82190 ,2.69767 ,26.46954 
176 ,32.9626 ,0.82365 ,2.68740 ,26.36881 
177 ,33.1544 ,0.82552 ,2.64976 ,25.99945 
178 ,33.3624 ,0.82750 ,2.65318 ,26.03303 
179 ,33.5545 ,0.82963 ,2.62581 ,25.76440 
180 ,33.7466 ,0.83143 ,2.63265 ,25.83156 
181 ,33.9225 ,0.83323 ,2.62238 ,25.73082 
182 ,34.0986 ,0.83499 ,2.60869 ,25.59651 
183 ,34.2907 ,0.83699 ,2.56078 ,25.12641 
184 ,34.4823 ,0.83879 ,2.57447 ,25.26073 
185 ,34.6586 ,0.84063 ,2.55394 ,25.05926 
186 ,34.8350 ,0.84244 ,2.54025 ,24.92494 
187 ,35.0269 ,0.84430 ,2.52314 ,24.75705 
188 ,35.2191 ,0.84620 ,2.52314 ,24.75705 
189 ,35.3951 ,0.84796 ,2.49234 ,24.45485 
190 ,35.6032 ,0.84989 ,2.49234 ,24.45485 
191 ,35.7630 ,0.85178 ,2.48550 ,24.38769 
192 ,35.9394 ,0.85338 ,2.46839 ,24.21980 
193 ,36.1155 ,0.85521 ,2.45470 ,24.08549 
194 ,36.3076 ,0.85704 ,2.42390 ,23.78328 
195 ,36.4996 ,0.85904 ,2.44101 ,23.95117 
196 ,36.6758 ,0.86080 ,2.40679 ,23.61539 
197 ,36.8677 ,0.86273 ,2.39994 ,23.54823 
198 ,37.0438 ,0.86449 ,2.38625 ,23.41392 
199 ,37.2199 ,0.86621 ,2.37256 ,23.27961 
200 ,37.3960 ,0.86797 ,2.36230 ,23.17887 
201 ,37.5722 ,0.86978 ,2.33492 ,22.91024 
202 ,37.7804 ,0.87178 ,2.33150 ,22.87667 
203 ,37.9563 ,0.87359 ,2.32465 ,22.80951 
204 ,38.1483 ,0.87551 ,2.29385 ,22.50731 
205 ,38.3564 ,0.87748 ,2.29728 ,22.54088 
206 ,38.5487 ,0.87937 ,2.26990 ,22.27226 
207 ,38.7246 ,0.88133 ,2.24594 ,22.03721 
208 ,38.9323 ,0.88340 ,2.24594 ,22.03721 
209 ,39.1085 ,0.88510 ,2.21857 ,21.76858 
210 ,39.3168 ,0.88708 ,2.22541 ,21.83574 
211 ,39.4929 ,0.88896 ,2.19803 ,21.56711 
212 ,39.6688 ,0.89074 ,2.18092 ,21.39922 
213 ,39.8451 ,0.89245 ,2.17066 ,21.29849 
214 ,40.0530 ,0.89447 ,2.15012 ,21.09702 
215 ,40.2453 ,0.89646 ,2.13986 ,20.99628 
216 ,40.4372 ,0.89835 ,2.13301 ,20.92912 
217 ,40.6131 ,0.90017 ,2.12617 ,20.86197 
218 ,40.8373 ,0.90226 ,2.11932 ,20.79481 
219 ,41.0292 ,0.90431 ,2.06799 ,20.29114 
220 ,41.2056 ,0.90609 ,2.05773 ,20.19040 
221 ,41.4136 ,0.90807 ,2.05088 ,20.12325 
222 ,41.5895 ,0.90991 ,2.03719 ,19.98893 
223 ,41.7978 ,0.91201 ,2.03377 ,19.95535 
224 ,41.9738 ,0.91370 ,2.02008 ,19.82104 
225 ,42.1500 ,0.91546 ,1.98586 ,19.48526 
226 ,42.3261 ,0.91730 ,1.99613 ,19.58599 
227 ,42.5182 ,0.91909 ,1.98586 ,19.48526 
228 ,42.7263 ,0.92118 ,1.95506 ,19.18305 
229 ,42.9020 ,0.92303 ,1.94479 ,19.08232 
230 ,43.0783 ,0.92479 ,1.94822 ,19.11590 
231 ,43.2545 ,0.92657 ,1.93453 ,18.98158 
232 ,43.4466 ,0.92849 ,1.89004 ,18.54507 
233 ,43.6383 ,0.93026 ,1.88319 ,18.47791 
234 ,43.8308 ,0.93230 ,1.87977 ,18.44433 
235 ,44.0388 ,0.93434 ,1.87635 ,18.41075 
236 ,44.2304 ,0.93628 ,1.85924 ,18.24286 
237 ,44.4070 ,0.93807 ,1.83186 ,17.97423 
238 ,44.5828 ,0.93985 ,1.82502 ,17.90708 
239 ,44.7750 ,0.94170 ,1.82844 ,17.94066 
240 ,44.9674 ,0.94369 ,1.79080 ,17.57129 
241 ,45.1594 ,0.94559 ,1.79422 ,17.60487 
242 ,45.3514 ,0.94747 ,1.77369 ,17.40340 
243 ,45.5434 ,0.94942 ,1.75315 ,17.20193 
244 ,45.7354 ,0.95126 ,1.75315 ,17.20193 
245 ,45.9117 ,0.95307 ,1.72920 ,16.96689 
246 ,46.0876 ,0.95492 ,1.71551 ,16.83257 
247 ,46.2796 ,0.95681 ,1.71209 ,16.79899 
248 ,46.4558 ,0.95856 ,1.70866 ,16.76542 
249 ,46.6638 ,0.96057 ,1.67102 ,16.39605 
250 ,46.8399 ,0.96240 ,1.65391 ,16.22816 
251 ,47.0319 ,0.96435 ,1.63680 ,16.06027 
252 ,47.2239 ,0.96618 ,1.62653 ,15.95954 
253 ,47.3996 ,0.96798 ,1.62311 ,15.92596 
254 ,47.5760 ,0.96973 ,1.62653 ,15.95954 
255 ,47.7682 ,0.97167 ,1.59573 ,15.65733 
256 ,47.9443 ,0.97344 ,1.58204 ,15.52302 
257 ,48.1364 ,0.97528 ,1.57862 ,15.48944 
258 ,48.3285 ,0.97729 ,1.56836 ,15.38871 
259 ,48.5044 ,0.97901 ,1.54782 ,15.18724 
260 ,48.6805 ,0.98077 ,1.53413 ,15.05292 
261 ,48.8567 ,0.98255 ,1.52387 ,14.95219 
262 ,49.0326 ,0.98426 ,1.51360 ,14.85145 
263 ,49.2088 ,0.98605 ,1.48965 ,14.61640 
264 ,49.4008 ,0.98798 ,1.47596 ,14.48209 
265 ,49.5931 ,0.98983 ,1.48622 ,14.58283 
266 ,49.8011 ,0.99195 ,1.44516 ,14.17989 
267 ,50.0092 ,0.99389 ,1.45200 ,14.24704 
268 ,50.1851 ,0.99585 ,1.43147 ,14.04557 
269 ,50.3614 ,0.99757 ,1.41094 ,13.84410 
270 ,50.5689 ,0.99962 ,1.40751 ,13.81053 
271 ,50.7455 ,1.00144 ,1.38698 ,13.60906 
272 ,50.9376 ,1.00340 ,1.38014 ,13.54190 
273 ,51.1457 ,1.00529 ,1.36303 ,13.37401 
274 ,51.3056 ,1.00717 ,1.35618 ,13.30685 
275 ,51.4818 ,1.00883 ,1.32538 ,13.00465 
276 ,51.6578 ,1.01063 ,1.34591 ,13.20612 
277 ,51.8338 ,1.01226 ,1.31854 ,12.93749 
278 ,52.0099 ,1.01404 ,1.32538 ,13.00465 
279 ,52.1861 ,1.01584 ,1.30143 ,12.76960 
280 ,52.3621 ,1.01753 ,1.27747 ,12.53455 
281 ,52.5541 ,1.01949 ,1.28774 ,12.63528 
282 ,52.7303 ,1.02122 ,1.27405 ,12.50097 
283 ,52.9064 ,1.02304 ,1.26036 ,12.36666 
284 ,53.0983 ,1.02494 ,1.22956 ,12.06445 
285 ,53.2745 ,1.02667 ,1.22956 ,12.06445 
286 ,53.4507 ,1.02847 ,1.21245 ,11.89656 
287 ,53.6266 ,1.03026 ,1.20903 ,11.86298 
288 ,53.8024 ,1.03195 ,1.18165 ,11.59436 
289 ,53.9949 ,1.03384 ,1.18165 ,11.59436 
290 ,54.1709 ,1.03567 ,1.16112 ,11.39289 
291 ,54.3466 ,1.03744 ,1.14743 ,11.25857 
292 ,54.5228 ,1.03922 ,1.13716 ,11.15784 
293 ,54.6990 ,1.04096 ,1.13032 ,11.09068 
294 ,54.8751 ,1.04265 ,1.12690 ,11.05710 
295 ,55.0673 ,1.04463 ,1.10979 ,10.88921 
296 ,55.2431 ,1.04638 ,1.08925 ,10.68774 
297 ,55.4194 ,1.04816 ,1.07214 ,10.51985 
298 ,55.5955 ,1.04989 ,1.07214 ,10.51985 
299 ,55.7876 ,1.05171 ,1.05503 ,10.35196 
300 ,55.9797 ,1.05377 ,1.03450 ,10.15049 
301 ,56.1717 ,1.05569 ,1.03792 ,10.18407 
302 ,56.3477 ,1.05743 ,1.03108 ,10.11691 
303 ,56.5238 ,1.05918 ,1.01054 ,9.91544 
304 ,56.7158 ,1.06109 ,0.98317 ,9.64682 
305 ,56.9076 ,1.06300 ,0.99001 ,9.71397 
306 ,57.0840 ,1.06476 ,0.97632 ,9.57966 
307 ,57.2603 ,1.06655 ,0.94210 ,9.24388 
308 ,57.4520 ,1.06846 ,0.94894 ,9.31103 
309 ,57.6282 ,1.07021 ,0.95579 ,9.37819 
310 ,57.8042 ,1.07205 ,0.93183 ,9.14314 
311 ,57.9801 ,1.07375 ,0.90446 ,8.87451 
312 ,58.1564 ,1.07553 ,0.89077 ,8.74020 
313 ,58.3322 ,1.07727 ,0.90103 ,8.84094 
314 ,58.5087 ,1.07901 ,0.89761 ,8.80736 
315 ,58.6686 ,1.08076 ,0.87023 ,8.53873 
316 ,58.8448 ,1.08237 ,0.86681 ,8.50515 
317 ,59.0365 ,1.08423 ,0.85312 ,8.37084 
318 ,59.2128 ,1.08611 ,0.84628 ,8.30368 
319 ,59.3891 ,1.08782 ,0.83601 ,8.20295 
320 ,59.5650 ,1.08961 ,0.81890 ,8.03506 
321 ,59.7409 ,1.09135 ,0.80863 ,7.93432 
322 ,59.9332 ,1.09321 ,0.79837 ,7.83359 
323 ,60.1091 ,1.09502 ,0.79152 ,7.76643 
324 ,60.2853 ,1.09681 ,0.78468 ,7.69927 
325 ,60.4774 ,1.09869 ,0.74704 ,7.32991 
326 ,60.6695 ,1.10053 ,0.73677 ,7.22918 
327 ,60.8617 ,1.10257 ,0.73677 ,7.22918 
328 ,61.0535 ,1.10446 ,0.70939 ,6.96055 
329 ,61.2457 ,1.10631 ,0.71281 ,6.99413 
330 ,61.4217 ,1.10814 ,0.70597 ,6.92697 
331 ,61.6140 ,1.11002 ,0.68544 ,6.72550 
332 ,61.7900 ,1.11184 ,0.67517 ,6.62477 
333 ,61.9821 ,1.11367 ,0.66833 ,6.55761 
334 ,62.1582 ,1.11553 ,0.64779 ,6.35614 
335 ,62.3337 ,1.11725 ,0.63410 ,6.22183 
336 ,62.5103 ,1.11902 ,0.63753 ,6.25541 
337 ,62.7023 ,1.12095 ,0.61357 ,6.02036 
338 ,62.8783 ,1.12271 ,0.61357 ,6.02036 
339 ,63.0544 ,1.12448 ,0.58619 ,5.75173 
340 ,63.2304 ,1.12624 ,0.59646 ,5.85247 
341 ,63.4226 ,1.12813 ,0.57935 ,5.68458 
342 ,63.6144 ,1.13010 ,0.55882 ,5.48311 
343 ,63.7908 ,1.13182 ,0.55882 ,5.48311 
344 ,63.9669 ,1.13363 ,0.54855 ,5.38237 
345 ,64.1588 ,1.13551 ,0.52117 ,5.11375 
346 ,64.3346 ,1.13723 ,0.50748 ,4.97943 
347 ,64.5110 ,1.13904 ,0.52802 ,5.18090 
348 ,64.6870 ,1.14090 ,0.51433 ,5.04659 
349 ,64.8633 ,1.14253 ,0.49722 ,4.87870 
350 ,65.0712 ,1.14457 ,0.47668 ,4.67723 
351 ,65.2473 ,1.14640 ,0.46984 ,4.61007 
352 ,65.4230 ,1.14819 ,0.44246 ,4.34144 
353 ,65.5995 ,1.14991 ,0.44246 ,4.34144 
354 ,65.8075 ,1.15196 ,0.45273 ,4.44218 
355 ,65.9996 ,1.15380 ,0.43562 ,4.27429 
356 ,66.1757 ,1.15570 ,0.39797 ,3.90493 
357 ,66.3516 ,1.15746 ,0.41166 ,4.03924 
358 ,66.5436 ,1.15931 ,0.40140 ,3.93850 
359 ,66.7200 ,1.16107 ,0.37402 ,3.66988 
360 ,66.9116 ,1.16297 ,0.36375 ,3.56914 
361 ,67.0877 ,1.16478 ,0.36718 ,3.60272 
362 ,67.2801 ,1.16660 ,0.35006 ,3.43483 
363 ,67.4721 ,1.16857 ,0.34322 ,3.36767 
364 ,67.6483 ,1.17050 ,0.33980 ,3.33410 
365 ,67.8562 ,1.17244 ,0.30558 ,2.99831 
366 ,68.0323 ,1.17421 ,0.28847 ,2.83042 
367 ,68.2244 ,1.17607 ,0.28847 ,2.83042 
368 ,68.4005 ,1.17788 ,0.28847 ,2.83042 
369 ,68.5766 ,1.17966 ,0.26451 ,2.59537 
370 ,68.7689 ,1.18155 ,0.27478 ,2.69611 
371 ,68.9768 ,1.18358 ,0.25767 ,2.52822 
372 ,69.1529 ,1.18544 ,0.23029 ,2.25959 
373 ,69.3288 ,1.18719 ,0.22002 ,2.15885 
374 ,69.5051 ,1.18893 ,0.22344 ,2.19243 
375 ,69.6806 ,1.19069 ,0.21318 ,2.09170 
376 ,69.8572 ,1.19251 ,0.19264 ,1.89023 
377 ,70.0332 ,1.19423 ,0.17553 ,1.72234 
378 ,70.2094 ,1.19600 ,0.17211 ,1.68876 
379 ,70.4014 ,1.19791 ,0.18238 ,1.78949 
380 ,70.5776 ,1.19969 ,0.15842 ,1.55445 
381 ,70.7696 ,1.20155 ,0.14816 ,1.45371 
382 ,70.9453 ,1.20336 ,0.14473 ,1.42013 
383 ,71.1216 ,1.20508 ,0.12762 ,1.25224 
384 ,71.3136 ,1.20699 ,0.10709 ,1.05077 
385 ,71.5059 ,1.20891 ,0.11051 ,1.08435 
386 ,71.6978 ,1.21084 ,0.09340 ,0.91646 
387 ,71.8580 ,1.21257 ,0.06945 ,0.68141 
388 ,72.0340 ,1.21426 ,0.05918 ,0.58067 
389 ,72.2102 ,1.21598 ,0.05576 ,0.54710 
390 ,72.3863 ,1.21776 ,0.06260 ,0.61425 
391 ,72.5783 ,1.21958 ,0.03865 ,0.37920 
392 ,72.7705 ,1.22158 ,0.02154 ,0.21131 
393 ,72.9304 ,1.22330 ,0.02838 ,0.27847 
394 ,73.1225 ,1.22503 ,0.01811 ,0.17773 
395 ,73.2985 ,1.22688 ,-0.00242 ,-0.02373 
396 ,73.4905 ,1.22875 ,-0.00926 ,-0.09089 
397 ,73.6662 ,1.23056 ,-0.01953 ,-0.19163 
398 ,73.8746 ,1.23251 ,-0.01269 ,-0.12447 
399 ,74.0670 ,1.23449 ,-0.03664 ,-0.35952 
400 ,74.2430 ,1.23634 ,-0.02980 ,-0.29236 
401 ,74.4511 ,1.23831 ,-0.06060 ,-0.59457 
402 ,74.6271 ,1.24019 ,-0.07771 ,-0.76246 
403 ,74.8191 ,1.24207 ,-0.06744 ,-0.66172 
404 ,74.9789 ,1.24375 ,-0.10166 ,-0.99751 
405 ,75.1553 ,1.24545 ,-0.09140 ,-0.89677 
406 ,75.3313 ,1.24719 ,-0.12219 ,-1.19898 
407 ,75.5075 ,1.24899 ,-0.11877 ,-1.16540 
408 ,75.6994 ,1.25089 ,-0.11877 ,-1.16540 
409 ,75.9077 ,1.25287 ,-0.13246 ,-1.29971 
410 ,76.0677 ,1.25469 ,-0.13588 ,-1.33329 
411 ,76.2434 ,1.25630 ,-0.14957 ,-1.46760 
412 ,76.4199 ,1.25803 ,-0.15299 ,-1.50118 
413 ,76.6116 ,1.25991 ,-0.18722 ,-1.83696 
414 ,76.7718 ,1.26172 ,-0.19406 ,-1.90412 
415 ,76.9641 ,1.26345 ,-0.18379 ,-1.80338 
416 ,77.1402 ,1.26530 ,-0.20090 ,-1.97128 
417 ,77.3164 ,1.26702 ,-0.20775 ,-2.03843 
418 ,77.5080 ,1.26888 ,-0.23170 ,-2.27348 
419 ,77.6843 ,1.27067 ,-0.22486 ,-2.20632 
420 ,77.8605 ,1.27245 ,-0.23170 ,-2.27348 
421 ,78.0525 ,1.27438 ,-0.25908 ,-2.54211 
422 ,78.2286 ,1.27612 ,-0.25224 ,-2.47495 
423 ,78.4208 ,1.27803 ,-0.26593 ,-2.60926 
424 ,78.5968 ,1.27981 ,-0.26250 ,-2.57569 
425 ,78.7727 ,1.28157 ,-0.29673 ,-2.91147 
426 ,78.9489 ,1.28335 ,-0.30015 ,-2.94505 
427 ,79.1249 ,1.28505 ,-0.30015 ,-2.94505 
428 ,79.3010 ,1.28683 ,-0.30357 ,-2.97863 
429 ,79.5092 ,1.28895 ,-0.32068 ,-3.14652 
430 ,79.7011 ,1.29078 ,-0.33095 ,-3.24725 
431 ,79.8774 ,1.29263 ,-0.33095 ,-3.24725 
432 ,80.0531 ,1.29438 ,-0.35490 ,-3.48230 
433 ,80.2291 ,1.29616 ,-0.36859 ,-3.61661 
434 ,80.4054 ,1.29794 ,-0.37201 ,-3.65019 
435 ,80.6137 ,1.29989 ,-0.37544 ,-3.68377 
436 ,80.8057 ,1.30180 ,-0.39255 ,-3.85166 
437 ,80.9978 ,1.30374 ,-0.39255 ,-3.85166 
438 ,81.1899 ,1.30577 ,-0.41308 ,-4.05313 
439 ,81.3978 ,1.30768 ,-0.40966 ,-4.01955 
440 ,81.5737 ,1.30956 ,-0.42335 ,-4.15387 
441 ,81.7498 ,1.31133 ,-0.44388 ,-4.35534 
442 ,81.9422 ,1.31327 ,-0.43019 ,-4.22102 
443 ,82.1338 ,1.31511 ,-0.45414 ,-4.45607 
444 ,82.3100 ,1.31693 ,-0.45757 ,-4.48965 
445 ,82.5021 ,1.31890 ,-0.47468 ,-4.65754 
446 ,82.6940 ,1.32079 ,-0.46783 ,-4.59038 
447 ,82.8706 ,1.32259 ,-0.49521 ,-4.85901 
448 ,83.0465 ,1.32431 ,-0.50206 ,-4.92617 
449 ,83.2226 ,1.32604 ,-0.50548 ,-4.95975 
450 ,83.4146 ,1.32794 ,-0.50890 ,-4.99332 
451 ,83.6068 ,1.32987 ,-0.52259 ,-5.12764 
452 ,83.7989 ,1.33186 ,-0.51232 ,-5.02690 
453 ,84.0069 ,1.33388 ,-0.53970 ,-5.29553 
454 ,84.1826 ,1.33566 ,-0.54654 ,-5.36268 
455 ,84.3586 ,1.33742 ,-0.56023 ,-5.49700 
456 ,84.5186 ,1.33913 ,-0.54654 ,-5.36268 
457 ,84.6947 ,1.34078 ,-0.57392 ,-5.63131 
458 ,84.8713 ,1.34258 ,-0.58761 ,-5.76562 
459 ,85.0633 ,1.34448 ,-0.58761 ,-5.76562 
460 ,85.2395 ,1.34623 ,-0.59103 ,-5.79920 
461 ,85.4474 ,1.34825 ,-0.61156 ,-6.00067 
462 ,85.6232 ,1.35003 ,-0.61499 ,-6.03425 
463 ,85.7997 ,1.35182 ,-0.61156 ,-6.00067 
