Data stamp = , 07-04-2022 20:15:56 738

Calibration Values: 
Slope = , 26.54 , g/V 
Offset Voltage at no contact = , -0.501760 , V 

No , Time , Stage Position ,   Mass , Force 
   ,  (s) ,      (mm)      ,   (g)  , (mN)  

1 ,0.0000 ,0.49936 ,5.21296 ,51.14960 
2 ,0.2267 ,0.49946 ,5.20612 ,51.08244 
3 ,0.5313 ,0.50032 ,5.21639 ,51.18317 
4 ,0.7393 ,0.50178 ,5.21639 ,51.18317 
5 ,0.9312 ,0.50338 ,5.19585 ,50.98170 
6 ,1.1232 ,0.50535 ,5.21296 ,51.14960 
7 ,1.3155 ,0.50721 ,5.20270 ,51.04886 
8 ,1.5236 ,0.50930 ,5.21981 ,51.21675 
9 ,1.7157 ,0.51125 ,5.18216 ,50.84739 
10 ,1.9076 ,0.51322 ,5.17532 ,50.78023 
11 ,2.0833 ,0.51506 ,5.17874 ,50.81381 
12 ,2.2599 ,0.51673 ,5.16163 ,50.64592 
13 ,2.4359 ,0.51855 ,5.15136 ,50.54519 
14 ,2.6120 ,0.52026 ,5.12741 ,50.31014 
15 ,2.7881 ,0.52198 ,5.13083 ,50.34372 
16 ,2.9961 ,0.52404 ,5.11030 ,50.14225 
17 ,3.1720 ,0.52584 ,5.07950 ,49.84004 
18 ,3.3479 ,0.52762 ,5.07265 ,49.77289 
19 ,3.5242 ,0.52937 ,5.06923 ,49.73931 
20 ,3.7164 ,0.53135 ,5.03159 ,49.36995 
21 ,3.8924 ,0.53307 ,5.01448 ,49.20205 
22 ,4.0842 ,0.53498 ,5.01790 ,49.23563 
23 ,4.2446 ,0.53669 ,5.00763 ,49.13490 
24 ,4.4207 ,0.53836 ,4.99394 ,49.00058 
25 ,4.5968 ,0.54005 ,4.95630 ,48.63122 
26 ,4.7731 ,0.54185 ,4.94261 ,48.49691 
27 ,4.9649 ,0.54378 ,4.95288 ,48.59764 
28 ,5.1409 ,0.54550 ,4.92892 ,48.36260 
29 ,5.3170 ,0.54725 ,4.90155 ,48.09397 
30 ,5.5252 ,0.54935 ,4.89470 ,48.02681 
31 ,5.7013 ,0.55115 ,4.87759 ,47.85892 
32 ,5.8933 ,0.55295 ,4.86048 ,47.69103 
33 ,6.1013 ,0.55505 ,4.83310 ,47.42240 
34 ,6.2773 ,0.55684 ,4.81257 ,47.22093 
35 ,6.4535 ,0.55865 ,4.79888 ,47.08662 
36 ,6.6616 ,0.56074 ,4.77835 ,46.88515 
37 ,6.8375 ,0.56250 ,4.77150 ,46.81800 
38 ,7.0134 ,0.56422 ,4.74755 ,46.58295 
39 ,7.1898 ,0.56598 ,4.74070 ,46.51579 
40 ,7.3656 ,0.56783 ,4.72702 ,46.38148 
41 ,7.5420 ,0.56955 ,4.72702 ,46.38148 
42 ,7.7181 ,0.57133 ,4.69622 ,46.07927 
43 ,7.9102 ,0.57327 ,4.67911 ,45.91138 
44 ,8.1022 ,0.57509 ,4.66884 ,45.81065 
45 ,8.2781 ,0.57686 ,4.63804 ,45.50844 
46 ,8.4543 ,0.57861 ,4.62435 ,45.37413 
47 ,8.6304 ,0.58038 ,4.62777 ,45.40771 
48 ,8.8063 ,0.58216 ,4.62435 ,45.37413 
49 ,8.9826 ,0.58394 ,4.59697 ,45.10550 
50 ,9.1587 ,0.58572 ,4.57986 ,44.93761 
51 ,9.3828 ,0.58780 ,4.57644 ,44.90403 
52 ,9.5909 ,0.58995 ,4.54906 ,44.63541 
53 ,9.7668 ,0.59177 ,4.54906 ,44.63541 
54 ,9.9430 ,0.59355 ,4.52511 ,44.40036 
55 ,10.1511 ,0.59557 ,4.50115 ,44.16531 
56 ,10.3270 ,0.59736 ,4.48746 ,44.03100 
57 ,10.5029 ,0.59911 ,4.46693 ,43.82953 
58 ,10.6951 ,0.60098 ,4.44298 ,43.59448 
59 ,10.8710 ,0.60283 ,4.43955 ,43.56090 
60 ,11.0635 ,0.60464 ,4.43271 ,43.49374 
61 ,11.2554 ,0.60671 ,4.39164 ,43.09080 
62 ,11.4475 ,0.60853 ,4.39164 ,43.09080 
63 ,11.6233 ,0.61032 ,4.37111 ,42.88933 
64 ,11.7998 ,0.61207 ,4.33689 ,42.55355 
65 ,11.9918 ,0.61394 ,4.34031 ,42.58713 
66 ,12.1839 ,0.61592 ,4.30609 ,42.25135 
67 ,12.3601 ,0.61767 ,4.28898 ,42.08345 
68 ,12.5361 ,0.61946 ,4.28213 ,42.01630 
69 ,12.7279 ,0.62128 ,4.27871 ,41.98272 
70 ,12.9042 ,0.62312 ,4.25476 ,41.74767 
71 ,13.0963 ,0.62504 ,4.24449 ,41.64694 
72 ,13.2723 ,0.62681 ,4.22738 ,41.47905 
73 ,13.4645 ,0.62875 ,4.20000 ,41.21042 
74 ,13.6402 ,0.63052 ,4.18289 ,41.04253 
75 ,13.8486 ,0.63248 ,4.18974 ,41.10968 
76 ,14.0562 ,0.63459 ,4.16236 ,40.84106 
77 ,14.2322 ,0.63647 ,4.15551 ,40.77390 
78 ,14.3923 ,0.63812 ,4.14525 ,40.67317 
79 ,14.5689 ,0.63984 ,4.12129 ,40.43812 
80 ,14.7766 ,0.64192 ,4.10418 ,40.27023 
81 ,14.9526 ,0.64360 ,4.10418 ,40.27023 
82 ,15.1127 ,0.64529 ,4.07680 ,40.00160 
83 ,15.2887 ,0.64695 ,4.06654 ,39.90087 
84 ,15.4488 ,0.64869 ,4.03574 ,39.59866 
85 ,15.6249 ,0.65030 ,4.02889 ,39.53150 
86 ,15.8010 ,0.65208 ,4.01178 ,39.36361 
87 ,15.9771 ,0.65379 ,4.00152 ,39.26288 
88 ,16.1694 ,0.65567 ,3.98783 ,39.12856 
89 ,16.3616 ,0.65774 ,3.95018 ,38.75920 
90 ,16.5377 ,0.65944 ,3.95703 ,38.82636 
91 ,16.7138 ,0.66121 ,3.95361 ,38.79278 
92 ,16.9215 ,0.66323 ,3.91596 ,38.42342 
93 ,17.0976 ,0.66505 ,3.91254 ,38.38984 
94 ,17.2901 ,0.66693 ,3.89885 ,38.25553 
95 ,17.4819 ,0.66887 ,3.86805 ,37.95332 
96 ,17.6739 ,0.67081 ,3.86121 ,37.88617 
97 ,17.8501 ,0.67260 ,3.85094 ,37.78543 
98 ,18.0259 ,0.67428 ,3.83041 ,37.58396 
99 ,18.2022 ,0.67613 ,3.81330 ,37.41607 
100 ,18.3944 ,0.67801 ,3.79276 ,37.21460 
101 ,18.5705 ,0.67979 ,3.79619 ,37.24818 
102 ,18.7466 ,0.68152 ,3.77223 ,37.01313 
103 ,18.9386 ,0.68339 ,3.75512 ,36.84524 
104 ,19.1305 ,0.68539 ,3.74828 ,36.77808 
105 ,19.3067 ,0.68718 ,3.71405 ,36.44230 
106 ,19.4828 ,0.68893 ,3.70379 ,36.34157 
107 ,19.6750 ,0.69084 ,3.70721 ,36.37514 
108 ,19.8510 ,0.69260 ,3.67641 ,36.07294 
109 ,20.0272 ,0.69431 ,3.65246 ,35.83789 
110 ,20.2032 ,0.69613 ,3.64561 ,35.77073 
111 ,20.3953 ,0.69797 ,3.64903 ,35.80431 
112 ,20.5714 ,0.69977 ,3.63534 ,35.67000 
113 ,20.7474 ,0.70158 ,3.61139 ,35.43495 
114 ,20.9237 ,0.70329 ,3.59086 ,35.23348 
115 ,21.1316 ,0.70524 ,3.57032 ,35.03201 
116 ,21.3237 ,0.70725 ,3.54637 ,34.79696 
117 ,21.5157 ,0.70922 ,3.55321 ,34.86412 
118 ,21.6918 ,0.71095 ,3.54637 ,34.79696 
119 ,21.8680 ,0.71274 ,3.51557 ,34.49476 
120 ,22.0598 ,0.71461 ,3.51557 ,34.49476 
121 ,22.2677 ,0.71665 ,3.51215 ,34.46118 
122 ,22.4439 ,0.71850 ,3.47450 ,34.09182 
123 ,22.6519 ,0.72041 ,3.44370 ,33.78961 
124 ,22.8280 ,0.72234 ,3.44028 ,33.75604 
125 ,23.0363 ,0.72436 ,3.44370 ,33.78961 
126 ,23.2280 ,0.72623 ,3.41975 ,33.55457 
127 ,23.4044 ,0.72806 ,3.38895 ,33.25236 
128 ,23.5961 ,0.72997 ,3.38895 ,33.25236 
129 ,23.7728 ,0.73175 ,3.36842 ,33.05089 
130 ,23.9487 ,0.73359 ,3.35130 ,32.88300 
131 ,24.1247 ,0.73532 ,3.33762 ,32.74869 
132 ,24.3327 ,0.73726 ,3.32393 ,32.61437 
133 ,24.5088 ,0.73916 ,3.31024 ,32.48006 
134 ,24.6849 ,0.74089 ,3.28971 ,32.27859 
135 ,24.8931 ,0.74287 ,3.28628 ,32.24501 
136 ,25.0691 ,0.74475 ,3.25891 ,31.97639 
137 ,25.2611 ,0.74660 ,3.24864 ,31.87565 
138 ,25.4369 ,0.74840 ,3.23837 ,31.77492 
139 ,25.6293 ,0.75026 ,3.23495 ,31.74134 
140 ,25.8214 ,0.75230 ,3.22126 ,31.60702 
141 ,25.9973 ,0.75404 ,3.21784 ,31.57345 
142 ,26.2055 ,0.75603 ,3.16651 ,31.06977 
143 ,26.3816 ,0.75786 ,3.15624 ,30.96904 
144 ,26.5417 ,0.75958 ,3.16309 ,31.03619 
145 ,26.7178 ,0.76124 ,3.15282 ,30.93546 
146 ,26.8939 ,0.76299 ,3.14597 ,30.86830 
147 ,27.0857 ,0.76493 ,3.10833 ,30.49894 
148 ,27.2620 ,0.76666 ,3.09464 ,30.36463 
149 ,27.4539 ,0.76858 ,3.08780 ,30.29747 
150 ,27.6302 ,0.77036 ,3.06726 ,30.09600 
151 ,27.8222 ,0.77230 ,3.04673 ,29.89453 
152 ,28.0143 ,0.77417 ,3.05015 ,29.92811 
153 ,28.2222 ,0.77612 ,3.01251 ,29.55875 
154 ,28.3981 ,0.77800 ,3.02278 ,29.65948 
155 ,28.5904 ,0.77981 ,3.00909 ,29.52517 
156 ,28.7669 ,0.78173 ,2.97487 ,29.18939 
157 ,28.9748 ,0.78376 ,2.95776 ,29.02150 
158 ,29.1506 ,0.78556 ,2.96802 ,29.12223 
159 ,29.3429 ,0.78736 ,2.93380 ,28.78645 
160 ,29.5351 ,0.78934 ,2.92696 ,28.71929 
161 ,29.7267 ,0.79123 ,2.90300 ,28.48424 
162 ,29.9031 ,0.79301 ,2.89616 ,28.41709 
163 ,30.1111 ,0.79513 ,2.86878 ,28.14846 
164 ,30.2872 ,0.79689 ,2.85851 ,28.04772 
165 ,30.4634 ,0.79870 ,2.84140 ,27.87983 
166 ,30.6391 ,0.80040 ,2.82771 ,27.74552 
167 ,30.8155 ,0.80218 ,2.83456 ,27.81268 
168 ,31.0072 ,0.80408 ,2.79691 ,27.44332 
169 ,31.1836 ,0.80582 ,2.78665 ,27.34258 
170 ,31.3757 ,0.80770 ,2.78322 ,27.30900 
171 ,31.5518 ,0.80957 ,2.76269 ,27.10753 
172 ,31.7438 ,0.81141 ,2.75243 ,27.00680 
173 ,31.9360 ,0.81332 ,2.74900 ,26.97322 
174 ,32.1441 ,0.81542 ,2.71820 ,26.67101 
175 ,32.3201 ,0.81721 ,2.71478 ,26.63744 
176 ,32.5282 ,0.81920 ,2.70452 ,26.53670 
177 ,32.7203 ,0.82114 ,2.69083 ,26.40239 
178 ,32.9120 ,0.82310 ,2.67029 ,26.20092 
179 ,33.0879 ,0.82489 ,2.63949 ,25.89871 
180 ,33.2640 ,0.82664 ,2.62923 ,25.79798 
181 ,33.4402 ,0.82842 ,2.62581 ,25.76440 
182 ,33.6161 ,0.83012 ,2.62581 ,25.76440 
183 ,33.7922 ,0.83191 ,2.60527 ,25.56293 
184 ,33.9682 ,0.83374 ,2.58816 ,25.39504 
185 ,34.1447 ,0.83547 ,2.58132 ,25.32788 
186 ,34.3529 ,0.83754 ,2.55052 ,25.02568 
187 ,34.5290 ,0.83928 ,2.54367 ,24.95852 
188 ,34.7210 ,0.84117 ,2.50945 ,24.62274 
189 ,34.8972 ,0.84295 ,2.52656 ,24.79063 
190 ,35.0892 ,0.84483 ,2.48892 ,24.42127 
191 ,35.2653 ,0.84668 ,2.49576 ,24.48842 
192 ,35.4573 ,0.84859 ,2.49234 ,24.45485 
193 ,35.6494 ,0.85043 ,2.45470 ,24.08549 
194 ,35.8255 ,0.85226 ,2.43074 ,23.85044 
195 ,36.0014 ,0.85401 ,2.44101 ,23.95117 
196 ,36.1934 ,0.85591 ,2.42048 ,23.74970 
197 ,36.3857 ,0.85779 ,2.41363 ,23.68255 
198 ,36.5617 ,0.85962 ,2.39994 ,23.54823 
199 ,36.7539 ,0.86153 ,2.38625 ,23.41392 
200 ,36.9300 ,0.86332 ,2.36230 ,23.17887 
201 ,37.1216 ,0.86528 ,2.36230 ,23.17887 
202 ,37.2980 ,0.86694 ,2.33834 ,22.94382 
203 ,37.4741 ,0.86876 ,2.34177 ,22.97740 
204 ,37.6503 ,0.87053 ,2.29728 ,22.54088 
205 ,37.8422 ,0.87238 ,2.31439 ,22.70877 
206 ,38.0184 ,0.87418 ,2.30070 ,22.57446 
207 ,38.1944 ,0.87595 ,2.29385 ,22.50731 
208 ,38.3706 ,0.87767 ,2.25621 ,22.13794 
209 ,38.5787 ,0.87971 ,2.25621 ,22.13794 
210 ,38.7547 ,0.88156 ,2.23568 ,21.93647 
211 ,38.9466 ,0.88345 ,2.20830 ,21.66785 
212 ,39.1228 ,0.88520 ,2.21172 ,21.70143 
213 ,39.2827 ,0.88692 ,2.19803 ,21.56711 
214 ,39.4750 ,0.88872 ,2.18092 ,21.39922 
215 ,39.6511 ,0.89055 ,2.16039 ,21.19775 
216 ,39.8432 ,0.89232 ,2.16723 ,21.26491 
217 ,40.0352 ,0.89434 ,2.14328 ,21.02986 
218 ,40.2272 ,0.89629 ,2.15012 ,21.09702 
219 ,40.4193 ,0.89812 ,2.13301 ,20.92912 
220 ,40.6273 ,0.90022 ,2.09537 ,20.55976 
221 ,40.8034 ,0.90204 ,2.09879 ,20.59334 
222 ,40.9958 ,0.90395 ,2.08852 ,20.49261 
223 ,41.1718 ,0.90571 ,2.05773 ,20.19040 
224 ,41.3632 ,0.90766 ,2.06799 ,20.29114 
225 ,41.5397 ,0.90933 ,2.04404 ,20.05609 
226 ,41.7160 ,0.91115 ,2.02693 ,19.88820 
227 ,41.9079 ,0.91295 ,2.01324 ,19.75388 
228 ,42.0840 ,0.91481 ,2.00982 ,19.72031 
229 ,42.2601 ,0.91655 ,1.99955 ,19.61957 
230 ,42.4522 ,0.91842 ,1.96190 ,19.25021 
231 ,42.6283 ,0.92026 ,1.95506 ,19.18305 
232 ,42.8044 ,0.92201 ,1.95848 ,19.21663 
233 ,43.0124 ,0.92408 ,1.93453 ,18.98158 
234 ,43.1884 ,0.92584 ,1.91742 ,18.81369 
235 ,43.3805 ,0.92769 ,1.91399 ,18.78011 
236 ,43.5563 ,0.92950 ,1.90715 ,18.71296 
237 ,43.7327 ,0.93128 ,1.88662 ,18.51149 
238 ,43.9088 ,0.93305 ,1.85924 ,18.24286 
239 ,44.1009 ,0.93501 ,1.86266 ,18.27644 
240 ,44.2929 ,0.93687 ,1.84897 ,18.14213 
241 ,44.4849 ,0.93875 ,1.83871 ,18.04139 
242 ,44.6612 ,0.94059 ,1.82844 ,17.94066 
243 ,44.8692 ,0.94263 ,1.80449 ,17.70561 
244 ,45.0613 ,0.94450 ,1.79422 ,17.60487 
245 ,45.2373 ,0.94638 ,1.77711 ,17.43698 
246 ,45.4134 ,0.94813 ,1.76000 ,17.26909 
247 ,45.6050 ,0.94996 ,1.76000 ,17.26909 
248 ,45.7816 ,0.95180 ,1.73946 ,17.06762 
249 ,45.9735 ,0.95364 ,1.71551 ,16.83257 
250 ,46.1496 ,0.95546 ,1.71893 ,16.86615 
251 ,46.3417 ,0.95740 ,1.71893 ,16.86615 
252 ,46.5178 ,0.95909 ,1.70182 ,16.69826 
253 ,46.6939 ,0.96086 ,1.68813 ,16.56395 
254 ,46.8699 ,0.96267 ,1.66075 ,16.29532 
255 ,47.0458 ,0.96445 ,1.65049 ,16.19458 
256 ,47.2218 ,0.96617 ,1.65733 ,16.26174 
257 ,47.4142 ,0.96811 ,1.61969 ,15.89238 
258 ,47.6061 ,0.96995 ,1.61627 ,15.85880 
259 ,47.7821 ,0.97175 ,1.61627 ,15.85880 
260 ,47.9583 ,0.97350 ,1.59231 ,15.62375 
261 ,48.1665 ,0.97547 ,1.58889 ,15.59018 
262 ,48.3586 ,0.97752 ,1.56151 ,15.32155 
263 ,48.5507 ,0.97948 ,1.54440 ,15.15366 
264 ,48.7428 ,0.98130 ,1.54440 ,15.15366 
265 ,48.9348 ,0.98325 ,1.49649 ,14.68356 
266 ,49.1108 ,0.98509 ,1.49991 ,14.71714 
267 ,49.2867 ,0.98681 ,1.50676 ,14.78430 
268 ,49.4629 ,0.98859 ,1.49307 ,14.64998 
269 ,49.6553 ,0.99051 ,1.47938 ,14.51567 
270 ,49.8469 ,0.99242 ,1.46569 ,14.38136 
271 ,50.0392 ,0.99427 ,1.46227 ,14.34778 
272 ,50.2469 ,0.99634 ,1.44858 ,14.21346 
273 ,50.4235 ,0.99816 ,1.44174 ,14.14631 
274 ,50.6152 ,1.00015 ,1.40751 ,13.81053 
275 ,50.7916 ,1.00187 ,1.40409 ,13.77695 
276 ,50.9834 ,1.00369 ,1.39383 ,13.67621 
277 ,51.1596 ,1.00549 ,1.38698 ,13.60906 
278 ,51.3358 ,1.00729 ,1.36303 ,13.37401 
279 ,51.5275 ,1.00924 ,1.34591 ,13.20612 
280 ,51.7040 ,1.01096 ,1.35276 ,13.27327 
281 ,51.8960 ,1.01284 ,1.32196 ,12.97107 
282 ,52.0719 ,1.01468 ,1.30827 ,12.83675 
283 ,52.2644 ,1.01653 ,1.31854 ,12.93749 
284 ,52.4563 ,1.01850 ,1.28432 ,12.60171 
285 ,52.6482 ,1.02038 ,1.28432 ,12.60171 
286 ,52.8243 ,1.02220 ,1.28089 ,12.56813 
287 ,53.0166 ,1.02406 ,1.25352 ,12.29950 
288 ,53.2084 ,1.02599 ,1.23983 ,12.16519 
289 ,53.3846 ,1.02781 ,1.24325 ,12.19877 
290 ,53.5763 ,1.02962 ,1.21587 ,11.93014 
291 ,53.7528 ,1.03148 ,1.19534 ,11.72867 
292 ,53.9609 ,1.03345 ,1.19876 ,11.76225 
293 ,54.1525 ,1.03537 ,1.17481 ,11.52720 
294 ,54.3290 ,1.03724 ,1.17138 ,11.49362 
295 ,54.5369 ,1.03924 ,1.14401 ,11.22500 
296 ,54.7132 ,1.04106 ,1.13032 ,11.09068 
297 ,54.9212 ,1.04310 ,1.13032 ,11.09068 
298 ,55.0973 ,1.04486 ,1.11321 ,10.92279 
299 ,55.2731 ,1.04666 ,1.09267 ,10.72132 
300 ,55.4495 ,1.04846 ,1.08925 ,10.68774 
301 ,55.6254 ,1.05023 ,1.06872 ,10.48627 
302 ,55.7855 ,1.05187 ,1.07214 ,10.51985 
303 ,55.9617 ,1.05354 ,1.06872 ,10.48627 
304 ,56.1377 ,1.05529 ,1.05503 ,10.35196 
305 ,56.3297 ,1.05725 ,1.04134 ,10.21765 
306 ,56.5060 ,1.05906 ,1.02423 ,10.04976 
307 ,56.6820 ,1.06074 ,1.02423 ,10.04976 
308 ,56.8580 ,1.06251 ,1.01396 ,9.94902 
309 ,57.0661 ,1.06458 ,1.01054 ,9.91544 
310 ,57.2421 ,1.06633 ,0.98659 ,9.68039 
311 ,57.4183 ,1.06805 ,0.97290 ,9.54608 
312 ,57.6103 ,1.07004 ,0.95579 ,9.37819 
313 ,57.7865 ,1.07178 ,0.94894 ,9.31103 
314 ,57.9784 ,1.07369 ,0.92157 ,9.04241 
315 ,58.1866 ,1.07572 ,0.93183 ,9.14314 
316 ,58.3624 ,1.07751 ,0.92157 ,9.04241 
317 ,58.5548 ,1.07939 ,0.91472 ,8.97525 
318 ,58.7465 ,1.08143 ,0.87366 ,8.57231 
319 ,58.9230 ,1.08315 ,0.87708 ,8.60589 
320 ,59.0988 ,1.08495 ,0.86339 ,8.47158 
321 ,59.2907 ,1.08681 ,0.84628 ,8.30368 
322 ,59.4508 ,1.08853 ,0.84970 ,8.33726 
323 ,59.6272 ,1.09018 ,0.83601 ,8.20295 
324 ,59.8191 ,1.09207 ,0.80521 ,7.90074 
325 ,59.9954 ,1.09385 ,0.80179 ,7.86717 
326 ,60.1714 ,1.09563 ,0.79837 ,7.83359 
327 ,60.3475 ,1.09735 ,0.78810 ,7.73285 
328 ,60.5234 ,1.09917 ,0.78810 ,7.73285 
329 ,60.6997 ,1.10086 ,0.76757 ,7.53138 
330 ,60.8757 ,1.10271 ,0.76072 ,7.46423 
331 ,61.0674 ,1.10455 ,0.74704 ,7.32991 
332 ,61.2435 ,1.10634 ,0.75046 ,7.36349 
333 ,61.4197 ,1.10812 ,0.73335 ,7.19560 
334 ,61.5961 ,1.10987 ,0.70255 ,6.89340 
335 ,61.7879 ,1.11166 ,0.70255 ,6.89340 
336 ,61.9961 ,1.11379 ,0.66833 ,6.55761 
337 ,62.1722 ,1.11561 ,0.66833 ,6.55761 
338 ,62.3484 ,1.11735 ,0.68201 ,6.69193 
339 ,62.5403 ,1.11920 ,0.65121 ,6.38972 
340 ,62.7164 ,1.12105 ,0.64437 ,6.32256 
341 ,62.9245 ,1.12308 ,0.63753 ,6.25541 
342 ,63.0843 ,1.12487 ,0.62384 ,6.12109 
343 ,63.2603 ,1.12647 ,0.63410 ,6.22183 
344 ,63.4365 ,1.12824 ,0.59646 ,5.85247 
345 ,63.6131 ,1.13006 ,0.58277 ,5.71815 
346 ,63.8049 ,1.13200 ,0.57593 ,5.65100 
347 ,63.9967 ,1.13382 ,0.57251 ,5.61742 
348 ,64.1732 ,1.13561 ,0.54513 ,5.34879 
349 ,64.3811 ,1.13762 ,0.54171 ,5.31522 
350 ,64.5572 ,1.13944 ,0.52802 ,5.18090 
351 ,64.7651 ,1.14153 ,0.52802 ,5.18090 
352 ,64.9415 ,1.14334 ,0.51775 ,5.08017 
353 ,65.1174 ,1.14504 ,0.51091 ,5.01301 
354 ,65.3256 ,1.14710 ,0.51091 ,5.01301 
355 ,65.5017 ,1.14892 ,0.49380 ,4.84512 
356 ,65.7097 ,1.15086 ,0.49380 ,4.84512 
357 ,65.8855 ,1.15271 ,0.46642 ,4.57649 
358 ,66.0779 ,1.15466 ,0.45273 ,4.44218 
359 ,66.2538 ,1.15641 ,0.43562 ,4.27429 
360 ,66.4138 ,1.15812 ,0.43220 ,4.24071 
361 ,66.5901 ,1.15979 ,0.42877 ,4.20713 
362 ,66.7822 ,1.16163 ,0.42193 ,4.13997 
363 ,66.9744 ,1.16355 ,0.38429 ,3.77061 
364 ,67.1500 ,1.16542 ,0.38771 ,3.80419 
365 ,67.3423 ,1.16730 ,0.37744 ,3.70346 
366 ,67.5184 ,1.16909 ,0.36375 ,3.56914 
367 ,67.6943 ,1.17084 ,0.35006 ,3.43483 
368 ,67.9023 ,1.17287 ,0.35349 ,3.46841 
369 ,68.0788 ,1.17472 ,0.34664 ,3.40125 
370 ,68.2866 ,1.17668 ,0.33295 ,3.26694 
371 ,68.4629 ,1.17846 ,0.31926 ,3.13263 
372 ,68.6551 ,1.18040 ,0.29873 ,2.93116 
373 ,68.8631 ,1.18237 ,0.29189 ,2.86400 
374 ,69.0549 ,1.18440 ,0.27478 ,2.69611 
375 ,69.2472 ,1.18633 ,0.27135 ,2.66253 
376 ,69.4234 ,1.18810 ,0.27478 ,2.69611 
377 ,69.6153 ,1.19004 ,0.24055 ,2.36032 
378 ,69.7914 ,1.19176 ,0.23371 ,2.29317 
379 ,69.9674 ,1.19355 ,0.24398 ,2.39390 
380 ,70.1436 ,1.19530 ,0.22687 ,2.22601 
381 ,70.3357 ,1.19729 ,0.22344 ,2.19243 
382 ,70.5115 ,1.19899 ,0.19949 ,1.95738 
383 ,70.6874 ,1.20072 ,0.18580 ,1.82307 
384 ,70.8637 ,1.20253 ,0.18922 ,1.85665 
385 ,71.0560 ,1.20442 ,0.16185 ,1.58802 
386 ,71.2480 ,1.20630 ,0.17211 ,1.68876 
387 ,71.4242 ,1.20814 ,0.15158 ,1.48729 
388 ,71.6162 ,1.21005 ,0.12762 ,1.25224 
389 ,71.7923 ,1.21180 ,0.11736 ,1.15151 
390 ,71.9844 ,1.21372 ,0.13105 ,1.28582 
391 ,72.1601 ,1.21549 ,0.10025 ,0.98361 
392 ,72.3526 ,1.21735 ,0.10367 ,1.01719 
393 ,72.5446 ,1.21932 ,0.10025 ,0.98361 
394 ,72.7207 ,1.22107 ,0.07629 ,0.74857 
395 ,72.9128 ,1.22301 ,0.04891 ,0.47994 
396 ,73.1209 ,1.22508 ,0.06945 ,0.68141 
397 ,73.2966 ,1.22681 ,0.04207 ,0.41278 
398 ,73.4730 ,1.22857 ,0.03180 ,0.31205 
399 ,73.6489 ,1.23034 ,0.02496 ,0.24489 
400 ,73.8411 ,1.23214 ,0.02838 ,0.27847 
401 ,74.0331 ,1.23407 ,-0.00584 ,-0.05731 
402 ,74.2092 ,1.23592 ,0.00100 ,0.00984 
403 ,74.3853 ,1.23765 ,0.01127 ,0.11058 
404 ,74.5769 ,1.23961 ,-0.02637 ,-0.25878 
405 ,74.7530 ,1.24140 ,-0.03664 ,-0.35952 
406 ,74.9130 ,1.24312 ,-0.02295 ,-0.22520 
407 ,75.0896 ,1.24478 ,-0.03322 ,-0.32594 
408 ,75.2817 ,1.24668 ,-0.03664 ,-0.35952 
409 ,75.4576 ,1.24841 ,-0.06744 ,-0.66172 
410 ,75.6498 ,1.25026 ,-0.06402 ,-0.62814 
411 ,75.8259 ,1.25206 ,-0.08455 ,-0.82961 
412 ,76.0020 ,1.25388 ,-0.08455 ,-0.82961 
413 ,76.1781 ,1.25560 ,-0.10851 ,-1.06466 
414 ,76.3541 ,1.25746 ,-0.10508 ,-1.03108 
415 ,76.5463 ,1.25928 ,-0.11877 ,-1.16540 
416 ,76.7542 ,1.26131 ,-0.12904 ,-1.26613 
417 ,76.9304 ,1.26319 ,-0.14615 ,-1.43402 
418 ,77.1384 ,1.26516 ,-0.15299 ,-1.50118 
419 ,77.3144 ,1.26704 ,-0.14273 ,-1.40045 
420 ,77.4742 ,1.26870 ,-0.16668 ,-1.63549 
421 ,77.6506 ,1.27035 ,-0.18722 ,-1.83696 
422 ,77.8428 ,1.27217 ,-0.17695 ,-1.73623 
423 ,78.0507 ,1.27425 ,-0.18379 ,-1.80338 
424 ,78.2267 ,1.27610 ,-0.20090 ,-1.97128 
425 ,78.4350 ,1.27807 ,-0.21802 ,-2.13917 
426 ,78.6110 ,1.27997 ,-0.23513 ,-2.30706 
427 ,78.8029 ,1.28186 ,-0.22144 ,-2.17275 
428 ,78.9792 ,1.28364 ,-0.24881 ,-2.44137 
429 ,79.1551 ,1.28539 ,-0.26250 ,-2.57569 
430 ,79.3471 ,1.28730 ,-0.24881 ,-2.44137 
431 ,79.5232 ,1.28903 ,-0.24881 ,-2.44137 
432 ,79.6993 ,1.29078 ,-0.27619 ,-2.71000 
433 ,79.9075 ,1.29287 ,-0.28988 ,-2.84431 
434 ,80.1155 ,1.29495 ,-0.30699 ,-3.01220 
435 ,80.2916 ,1.29676 ,-0.30015 ,-2.94505 
436 ,80.4676 ,1.29852 ,-0.30699 ,-3.01220 
437 ,80.6435 ,1.30029 ,-0.32752 ,-3.21367 
438 ,80.8200 ,1.30208 ,-0.33095 ,-3.24725 
439 ,81.0279 ,1.30403 ,-0.33095 ,-3.24725 
440 ,81.2041 ,1.30585 ,-0.35148 ,-3.44872 
441 ,81.3802 ,1.30766 ,-0.36175 ,-3.54946 
442 ,81.5723 ,1.30957 ,-0.37201 ,-3.65019 
443 ,81.7479 ,1.31132 ,-0.37201 ,-3.65019 
444 ,81.9244 ,1.31308 ,-0.36859 ,-3.61661 
445 ,82.1325 ,1.31514 ,-0.39255 ,-3.85166 
446 ,82.3245 ,1.31702 ,-0.39255 ,-3.85166 
447 ,82.5007 ,1.31883 ,-0.41308 ,-4.05313 
448 ,82.6927 ,1.32076 ,-0.43361 ,-4.25460 
449 ,82.8527 ,1.32246 ,-0.41650 ,-4.08671 
450 ,83.0286 ,1.32412 ,-0.44046 ,-4.32176 
451 ,83.2050 ,1.32588 ,-0.44388 ,-4.35534 
452 ,83.3968 ,1.32782 ,-0.45757 ,-4.48965 
453 ,83.5891 ,1.32964 ,-0.46099 ,-4.52323 
454 ,83.7811 ,1.33158 ,-0.47810 ,-4.69112 
455 ,83.9570 ,1.33334 ,-0.48837 ,-4.79185 
456 ,84.1492 ,1.33535 ,-0.49179 ,-4.82543 
457 ,84.3410 ,1.33726 ,-0.50890 ,-4.99332 
458 ,84.5174 ,1.33895 ,-0.51917 ,-5.09406 
459 ,84.7414 ,1.34107 ,-0.50206 ,-4.92617 
460 ,84.9332 ,1.34306 ,-0.51574 ,-5.06048 
461 ,85.1097 ,1.34495 ,-0.53628 ,-5.26195 
462 ,85.2856 ,1.34668 ,-0.52943 ,-5.19479 
463 ,85.4619 ,1.34844 ,-0.54654 ,-5.36268 
464 ,85.6378 ,1.35018 ,-0.55681 ,-5.46342 
