Data stamp = , 07-04-2022 02:26:16 613

Calibration Values: 
Slope = , 26.54 , g/V 
Offset Voltage at no contact = , -0.501760 , V 

No , Time , Stage Position ,   Mass , Force 
   ,  (s) ,      (mm)      ,   (g)  , (mN)  

1 ,0.0000 ,0.49933 ,5.21981 ,51.21675 
2 ,0.2067 ,0.49942 ,5.19585 ,50.98170 
3 ,0.5265 ,0.50020 ,5.21639 ,51.18317 
4 ,0.7026 ,0.50155 ,5.20270 ,51.04886 
5 ,0.8788 ,0.50294 ,5.21639 ,51.18317 
6 ,1.0710 ,0.50469 ,5.21296 ,51.14960 
7 ,1.2627 ,0.50657 ,5.22323 ,51.25033 
8 ,1.4391 ,0.50844 ,5.20954 ,51.11602 
9 ,1.6313 ,0.51035 ,5.19243 ,50.94813 
10 ,1.8234 ,0.51226 ,5.19927 ,51.01528 
11 ,2.0312 ,0.51440 ,5.18559 ,50.88097 
12 ,2.2073 ,0.51618 ,5.15479 ,50.57876 
13 ,2.3835 ,0.51793 ,5.15136 ,50.54519 
14 ,2.5594 ,0.51963 ,5.15821 ,50.61234 
15 ,2.7674 ,0.52173 ,5.11372 ,50.17583 
16 ,2.9436 ,0.52357 ,5.10688 ,50.10867 
17 ,3.1678 ,0.52574 ,5.07608 ,49.80646 
18 ,3.3756 ,0.52781 ,5.07608 ,49.80646 
19 ,3.5520 ,0.52965 ,5.06239 ,49.67215 
20 ,3.7440 ,0.53151 ,5.03843 ,49.43710 
21 ,3.9361 ,0.53344 ,5.02474 ,49.30279 
22 ,4.1118 ,0.53520 ,5.00421 ,49.10132 
23 ,4.2882 ,0.53693 ,4.98026 ,48.86627 
24 ,4.4803 ,0.53890 ,4.99052 ,48.96701 
25 ,4.6564 ,0.54067 ,4.97683 ,48.83269 
26 ,4.8325 ,0.54243 ,4.95972 ,48.66480 
27 ,5.0087 ,0.54416 ,4.93235 ,48.39618 
28 ,5.1846 ,0.54594 ,4.91523 ,48.22828 
29 ,5.3608 ,0.54773 ,4.90155 ,48.09397 
30 ,5.5366 ,0.54944 ,4.90839 ,48.16113 
31 ,5.7127 ,0.55119 ,4.88101 ,47.89250 
32 ,5.8889 ,0.55295 ,4.85021 ,47.59030 
33 ,6.0651 ,0.55469 ,4.83652 ,47.45598 
34 ,6.2571 ,0.55666 ,4.84337 ,47.52314 
35 ,6.4493 ,0.55859 ,4.80915 ,47.18736 
36 ,6.6413 ,0.56049 ,4.80915 ,47.18736 
37 ,6.8335 ,0.56238 ,4.77493 ,46.85157 
38 ,7.0415 ,0.56438 ,4.76124 ,46.71726 
39 ,7.2336 ,0.56645 ,4.74413 ,46.54937 
40 ,7.4256 ,0.56824 ,4.73044 ,46.41506 
41 ,7.6173 ,0.57018 ,4.71333 ,46.24716 
42 ,7.7938 ,0.57202 ,4.71333 ,46.24716 
43 ,7.9859 ,0.57390 ,4.68595 ,45.97854 
44 ,8.1779 ,0.57581 ,4.66542 ,45.77707 
45 ,8.3536 ,0.57761 ,4.67226 ,45.84422 
46 ,8.5301 ,0.57933 ,4.64488 ,45.57560 
47 ,8.7216 ,0.58136 ,4.63119 ,45.44128 
48 ,8.8816 ,0.58302 ,4.61751 ,45.30697 
49 ,9.0577 ,0.58465 ,4.61751 ,45.30697 
50 ,9.2502 ,0.58646 ,4.59355 ,45.07192 
51 ,9.4744 ,0.58878 ,4.56617 ,44.80330 
52 ,9.6665 ,0.59075 ,4.53880 ,44.53467 
53 ,9.8425 ,0.59255 ,4.54222 ,44.56825 
54 ,10.0187 ,0.59426 ,4.52853 ,44.43394 
55 ,10.1948 ,0.59602 ,4.51826 ,44.33320 
56 ,10.3706 ,0.59789 ,4.47035 ,43.86310 
57 ,10.5470 ,0.59952 ,4.46009 ,43.76237 
58 ,10.7390 ,0.60148 ,4.45324 ,43.69521 
59 ,10.9311 ,0.60340 ,4.44640 ,43.62806 
60 ,11.1070 ,0.60515 ,4.41902 ,43.35943 
61 ,11.2832 ,0.60690 ,4.40875 ,43.25870 
62 ,11.4592 ,0.60862 ,4.38822 ,43.05723 
63 ,11.6354 ,0.61042 ,4.39507 ,43.12438 
64 ,11.8114 ,0.61220 ,4.37795 ,42.95649 
65 ,12.0191 ,0.61420 ,4.34031 ,42.58713 
66 ,12.1955 ,0.61598 ,4.34031 ,42.58713 
67 ,12.3877 ,0.61786 ,4.32662 ,42.45282 
68 ,12.5637 ,0.61971 ,4.29582 ,42.15061 
69 ,12.7558 ,0.62160 ,4.29924 ,42.18419 
70 ,12.9316 ,0.62340 ,4.27529 ,41.94914 
71 ,13.1080 ,0.62510 ,4.24791 ,41.68051 
72 ,13.3001 ,0.62706 ,4.23080 ,41.51262 
73 ,13.4758 ,0.62883 ,4.23080 ,41.51262 
74 ,13.6521 ,0.63055 ,4.23080 ,41.51262 
75 ,13.8279 ,0.63233 ,4.19658 ,41.17684 
76 ,14.0041 ,0.63410 ,4.17947 ,41.00895 
77 ,14.1800 ,0.63589 ,4.16578 ,40.87464 
78 ,14.3562 ,0.63758 ,4.14525 ,40.67317 
79 ,14.5323 ,0.63934 ,4.14183 ,40.63959 
80 ,14.7083 ,0.64112 ,4.13156 ,40.53885 
81 ,14.8846 ,0.64293 ,4.09734 ,40.20307 
82 ,15.0447 ,0.64460 ,4.09049 ,40.13591 
83 ,15.2209 ,0.64628 ,4.05627 ,39.80013 
84 ,15.4132 ,0.64819 ,4.06312 ,39.86729 
85 ,15.6210 ,0.65010 ,4.03916 ,39.63224 
86 ,15.8133 ,0.65215 ,4.03574 ,39.59866 
87 ,15.9891 ,0.65396 ,4.02205 ,39.46435 
88 ,16.1648 ,0.65565 ,3.99467 ,39.19572 
89 ,16.3414 ,0.65747 ,3.98098 ,39.06141 
90 ,16.5335 ,0.65941 ,3.97072 ,38.96067 
91 ,16.7094 ,0.66113 ,3.96387 ,38.89352 
92 ,16.9019 ,0.66306 ,3.92965 ,38.55773 
93 ,17.0936 ,0.66498 ,3.93650 ,38.62489 
94 ,17.2857 ,0.66679 ,3.90912 ,38.35626 
95 ,17.4618 ,0.66865 ,3.89201 ,38.18837 
96 ,17.6698 ,0.67069 ,3.89201 ,38.18837 
97 ,17.8459 ,0.67250 ,3.87490 ,38.02048 
98 ,18.0215 ,0.67429 ,3.84410 ,37.71828 
99 ,18.1981 ,0.67597 ,3.83041 ,37.58396 
100 ,18.3740 ,0.67788 ,3.82014 ,37.48323 
101 ,18.5661 ,0.67967 ,3.79276 ,37.21460 
102 ,18.7422 ,0.68144 ,3.79276 ,37.21460 
103 ,18.9183 ,0.68320 ,3.76881 ,36.97955 
104 ,19.1262 ,0.68518 ,3.76196 ,36.91240 
105 ,19.3028 ,0.68706 ,3.73801 ,36.67735 
106 ,19.4946 ,0.68890 ,3.71748 ,36.47588 
107 ,19.7027 ,0.69095 ,3.71748 ,36.47588 
108 ,19.8947 ,0.69289 ,3.71405 ,36.44230 
109 ,20.0868 ,0.69488 ,3.66272 ,35.93863 
110 ,20.2629 ,0.69665 ,3.66614 ,35.97220 
111 ,20.4226 ,0.69836 ,3.63534 ,35.67000 
112 ,20.5991 ,0.70002 ,3.63534 ,35.67000 
113 ,20.7751 ,0.70177 ,3.62166 ,35.53569 
114 ,20.9672 ,0.70366 ,3.60454 ,35.36779 
115 ,21.1593 ,0.70565 ,3.58401 ,35.16632 
116 ,21.3514 ,0.70741 ,3.57375 ,35.06559 
117 ,21.5433 ,0.70945 ,3.57032 ,35.03201 
118 ,21.7193 ,0.71121 ,3.53268 ,34.66265 
119 ,21.8954 ,0.71299 ,3.52926 ,34.62907 
120 ,22.0875 ,0.71486 ,3.52584 ,34.59549 
121 ,22.2798 ,0.71672 ,3.47792 ,34.12540 
122 ,22.4719 ,0.71863 ,3.49161 ,34.25971 
123 ,22.6639 ,0.72059 ,3.47450 ,34.09182 
124 ,22.8720 ,0.72266 ,3.47108 ,34.05824 
125 ,23.0638 ,0.72461 ,3.44028 ,33.75604 
126 ,23.2400 ,0.72636 ,3.42317 ,33.58814 
127 ,23.4323 ,0.72825 ,3.40948 ,33.45383 
128 ,23.6403 ,0.73032 ,3.38210 ,33.18520 
129 ,23.8323 ,0.73236 ,3.37868 ,33.15163 
130 ,24.0079 ,0.73408 ,3.36499 ,33.01731 
131 ,24.2005 ,0.73601 ,3.34446 ,32.81584 
132 ,24.3766 ,0.73777 ,3.32393 ,32.61437 
133 ,24.5685 ,0.73965 ,3.32393 ,32.61437 
134 ,24.7607 ,0.74159 ,3.30339 ,32.41290 
135 ,24.9367 ,0.74335 ,3.28286 ,32.21143 
136 ,25.1288 ,0.74526 ,3.29655 ,32.34575 
137 ,25.3208 ,0.74719 ,3.26575 ,32.04354 
138 ,25.5132 ,0.74911 ,3.24180 ,31.80849 
139 ,25.6889 ,0.75089 ,3.23153 ,31.70776 
140 ,25.8812 ,0.75273 ,3.20415 ,31.43913 
141 ,26.0891 ,0.75481 ,3.21100 ,31.50629 
142 ,26.2653 ,0.75668 ,3.19731 ,31.37198 
143 ,26.4413 ,0.75840 ,3.18362 ,31.23766 
144 ,26.6175 ,0.76016 ,3.14940 ,30.90188 
145 ,26.7933 ,0.76192 ,3.14597 ,30.86830 
146 ,26.9857 ,0.76379 ,3.14255 ,30.83472 
147 ,27.2098 ,0.76603 ,3.11860 ,30.59968 
148 ,27.4020 ,0.76803 ,3.11175 ,30.53252 
149 ,27.5778 ,0.76978 ,3.08095 ,30.23031 
150 ,27.7540 ,0.77156 ,3.07069 ,30.12958 
151 ,27.9459 ,0.77341 ,3.07069 ,30.12958 
152 ,28.1221 ,0.77517 ,3.04331 ,29.86095 
153 ,28.3143 ,0.77710 ,3.04331 ,29.86095 
154 ,28.5061 ,0.77905 ,3.03647 ,29.79380 
155 ,28.6824 ,0.78083 ,3.01935 ,29.62590 
156 ,28.8744 ,0.78272 ,2.98855 ,29.32370 
157 ,29.0665 ,0.78460 ,2.99540 ,29.39086 
158 ,29.2425 ,0.78653 ,2.96802 ,29.12223 
159 ,29.4347 ,0.78826 ,2.94064 ,28.85360 
160 ,29.6109 ,0.79014 ,2.92353 ,28.68571 
161 ,29.8187 ,0.79209 ,2.93380 ,28.78645 
162 ,29.9945 ,0.79400 ,2.90300 ,28.48424 
163 ,30.1869 ,0.79584 ,2.89958 ,28.45066 
164 ,30.3790 ,0.79785 ,2.87905 ,28.24919 
165 ,30.5552 ,0.79954 ,2.87220 ,28.18204 
166 ,30.7470 ,0.80144 ,2.85851 ,28.04772 
167 ,30.9393 ,0.80327 ,2.84482 ,27.91341 
168 ,31.1311 ,0.80530 ,2.81060 ,27.57763 
169 ,31.3075 ,0.80705 ,2.80718 ,27.54405 
170 ,31.4994 ,0.80900 ,2.79007 ,27.37616 
171 ,31.6917 ,0.81078 ,2.77296 ,27.20827 
172 ,31.8677 ,0.81269 ,2.76269 ,27.10753 
173 ,32.0757 ,0.81469 ,2.73874 ,26.87248 
174 ,32.2518 ,0.81651 ,2.73531 ,26.83891 
175 ,32.4440 ,0.81846 ,2.72505 ,26.73817 
176 ,32.6519 ,0.82040 ,2.70109 ,26.50312 
177 ,32.8280 ,0.82227 ,2.69083 ,26.40239 
178 ,33.0200 ,0.82422 ,2.68740 ,26.36881 
179 ,33.2118 ,0.82610 ,2.65660 ,26.06661 
180 ,33.4043 ,0.82796 ,2.63607 ,25.86514 
181 ,33.6125 ,0.83002 ,2.62923 ,25.79798 
182 ,33.7883 ,0.83186 ,2.61896 ,25.69724 
183 ,33.9643 ,0.83374 ,2.61554 ,25.66367 
184 ,34.1564 ,0.83554 ,2.59843 ,25.49577 
185 ,34.3486 ,0.83742 ,2.57447 ,25.26073 
186 ,34.5248 ,0.83922 ,2.56763 ,25.19357 
187 ,34.7170 ,0.84105 ,2.54710 ,24.99210 
188 ,34.8928 ,0.84293 ,2.53341 ,24.85779 
189 ,35.1011 ,0.84490 ,2.54367 ,24.95852 
190 ,35.2770 ,0.84677 ,2.52656 ,24.79063 
191 ,35.4853 ,0.84872 ,2.50603 ,24.58916 
192 ,35.6613 ,0.85060 ,2.48892 ,24.42127 
193 ,35.8370 ,0.85234 ,2.46839 ,24.21980 
194 ,36.0292 ,0.85422 ,2.44101 ,23.95117 
195 ,36.2375 ,0.85627 ,2.43074 ,23.85044 
196 ,36.4133 ,0.85806 ,2.41705 ,23.71612 
197 ,36.5897 ,0.85981 ,2.41021 ,23.64897 
198 ,36.7658 ,0.86162 ,2.40336 ,23.58181 
199 ,36.9579 ,0.86349 ,2.38283 ,23.38034 
200 ,37.1340 ,0.86531 ,2.37256 ,23.27961 
201 ,37.3260 ,0.86713 ,2.36572 ,23.21245 
202 ,37.5020 ,0.86913 ,2.34519 ,23.01098 
203 ,37.6780 ,0.87071 ,2.34519 ,23.01098 
204 ,37.8541 ,0.87251 ,2.31097 ,22.67520 
205 ,38.0303 ,0.87431 ,2.29728 ,22.54088 
206 ,38.2061 ,0.87602 ,2.28017 ,22.37299 
207 ,38.3823 ,0.87775 ,2.30070 ,22.57446 
208 ,38.5423 ,0.87950 ,2.27332 ,22.30584 
209 ,38.7186 ,0.88112 ,2.26648 ,22.23868 
210 ,38.8946 ,0.88289 ,2.24594 ,22.03721 
211 ,39.0865 ,0.88478 ,2.22541 ,21.83574 
212 ,39.2788 ,0.88670 ,2.21515 ,21.73500 
213 ,39.4869 ,0.88880 ,2.19461 ,21.53353 
214 ,39.6949 ,0.89074 ,2.18092 ,21.39922 
215 ,39.9191 ,0.89300 ,2.17750 ,21.36564 
216 ,40.1111 ,0.89504 ,2.13986 ,20.99628 
217 ,40.2870 ,0.89679 ,2.12959 ,20.89555 
218 ,40.4793 ,0.89866 ,2.12959 ,20.89555 
219 ,40.6550 ,0.90055 ,2.09537 ,20.55976 
220 ,40.8311 ,0.90229 ,2.10564 ,20.66050 
221 ,41.0235 ,0.90414 ,2.08852 ,20.49261 
222 ,41.2156 ,0.90597 ,2.08510 ,20.45903 
223 ,41.4079 ,0.90806 ,2.04404 ,20.05609 
224 ,41.5837 ,0.90978 ,2.03377 ,19.95535 
225 ,41.7595 ,0.91154 ,2.04404 ,20.05609 
226 ,41.9356 ,0.91333 ,2.02350 ,19.85462 
227 ,42.0956 ,0.91501 ,1.99613 ,19.58599 
228 ,42.2720 ,0.91666 ,1.98928 ,19.51884 
229 ,42.4640 ,0.91860 ,1.97902 ,19.41810 
230 ,42.6562 ,0.92043 ,1.96533 ,19.28379 
231 ,42.8642 ,0.92250 ,1.94479 ,19.08232 
232 ,43.0402 ,0.92431 ,1.94137 ,19.04874 
233 ,43.2321 ,0.92623 ,1.93453 ,18.98158 
234 ,43.4081 ,0.92801 ,1.90715 ,18.71296 
235 ,43.5683 ,0.92970 ,1.88662 ,18.51149 
236 ,43.7442 ,0.93135 ,1.86608 ,18.31002 
237 ,43.9206 ,0.93310 ,1.87977 ,18.44433 
238 ,44.0967 ,0.93489 ,1.86608 ,18.31002 
239 ,44.3046 ,0.93684 ,1.84555 ,18.10855 
240 ,44.4809 ,0.93874 ,1.83186 ,17.97423 
241 ,44.6568 ,0.94049 ,1.83528 ,18.00781 
242 ,44.8331 ,0.94228 ,1.80106 ,17.67203 
243 ,45.0411 ,0.94423 ,1.78395 ,17.50414 
244 ,45.2653 ,0.94652 ,1.77711 ,17.43698 
245 ,45.4734 ,0.94856 ,1.75315 ,17.20193 
246 ,45.6493 ,0.95047 ,1.75315 ,17.20193 
247 ,45.8255 ,0.95216 ,1.72578 ,16.93331 
248 ,46.0014 ,0.95396 ,1.71893 ,16.86615 
249 ,46.1773 ,0.95568 ,1.70524 ,16.73184 
250 ,46.3537 ,0.95748 ,1.71209 ,16.79899 
251 ,46.5456 ,0.95935 ,1.66760 ,16.36248 
252 ,46.7218 ,0.96110 ,1.67102 ,16.39605 
253 ,46.8979 ,0.96293 ,1.67102 ,16.39605 
254 ,47.1058 ,0.96493 ,1.63338 ,16.02669 
255 ,47.2977 ,0.96684 ,1.64707 ,16.16101 
256 ,47.4741 ,0.96862 ,1.62995 ,15.99311 
257 ,47.6822 ,0.97069 ,1.60942 ,15.79164 
258 ,47.8583 ,0.97254 ,1.57862 ,15.48944 
259 ,48.0502 ,0.97436 ,1.57862 ,15.48944 
260 ,48.2424 ,0.97633 ,1.56493 ,15.35513 
261 ,48.4344 ,0.97819 ,1.55124 ,15.22081 
262 ,48.6266 ,0.98015 ,1.53071 ,15.01934 
263 ,48.8186 ,0.98203 ,1.53071 ,15.01934 
264 ,48.9948 ,0.98385 ,1.51702 ,14.88503 
265 ,49.1865 ,0.98576 ,1.48965 ,14.61640 
266 ,49.3628 ,0.98751 ,1.47938 ,14.51567 
267 ,49.5389 ,0.98930 ,1.47938 ,14.51567 
268 ,49.7151 ,0.99107 ,1.47253 ,14.44851 
269 ,49.9070 ,0.99303 ,1.44858 ,14.21346 
270 ,50.0831 ,0.99472 ,1.41778 ,13.91126 
271 ,50.2590 ,0.99644 ,1.42120 ,13.94484 
272 ,50.4354 ,0.99825 ,1.41778 ,13.91126 
273 ,50.6115 ,1.00003 ,1.40751 ,13.81053 
274 ,50.8037 ,1.00195 ,1.36987 ,13.44116 
275 ,51.0115 ,1.00389 ,1.37671 ,13.50832 
276 ,51.2036 ,1.00583 ,1.35960 ,13.34043 
277 ,51.4119 ,1.00800 ,1.35276 ,13.27327 
278 ,51.5876 ,1.00982 ,1.33565 ,13.10538 
279 ,51.7799 ,1.01165 ,1.32196 ,12.97107 
280 ,51.9557 ,1.01348 ,1.31512 ,12.90391 
281 ,52.1479 ,1.01538 ,1.29116 ,12.66886 
282 ,52.3077 ,1.01707 ,1.27747 ,12.53455 
283 ,52.4842 ,1.01874 ,1.26378 ,12.40024 
284 ,52.6598 ,1.02055 ,1.27063 ,12.46739 
285 ,52.8522 ,1.02242 ,1.25009 ,12.26592 
286 ,53.0604 ,1.02444 ,1.22272 ,11.99730 
287 ,53.2524 ,1.02638 ,1.22614 ,12.03088 
288 ,53.4121 ,1.02815 ,1.21929 ,11.96372 
289 ,53.5886 ,1.02982 ,1.20903 ,11.86298 
290 ,53.7805 ,1.03163 ,1.16796 ,11.46004 
291 ,53.9567 ,1.03345 ,1.14743 ,11.25857 
292 ,54.1328 ,1.03521 ,1.16454 ,11.42647 
293 ,54.3088 ,1.03695 ,1.16796 ,11.46004 
294 ,54.4846 ,1.03870 ,1.14058 ,11.19142 
295 ,54.6608 ,1.04049 ,1.12005 ,10.98995 
296 ,54.8532 ,1.04244 ,1.10979 ,10.88921 
297 ,55.0289 ,1.04421 ,1.10979 ,10.88921 
298 ,55.2212 ,1.04597 ,1.08925 ,10.68774 
299 ,55.4135 ,1.04804 ,1.07556 ,10.55343 
300 ,55.6054 ,1.04991 ,1.06187 ,10.41912 
301 ,55.7973 ,1.05176 ,1.04819 ,10.28480 
302 ,55.9734 ,1.05358 ,1.03108 ,10.11691 
303 ,56.1336 ,1.05531 ,1.03792 ,10.18407 
304 ,56.3093 ,1.05702 ,1.02081 ,10.01618 
305 ,56.4857 ,1.05871 ,1.00712 ,9.88186 
306 ,56.6457 ,1.06047 ,0.98659 ,9.68039 
307 ,56.8377 ,1.06228 ,0.97290 ,9.54608 
308 ,57.0141 ,1.06406 ,0.97290 ,9.54608 
309 ,57.1900 ,1.06581 ,0.96605 ,9.47892 
310 ,57.3821 ,1.06770 ,0.93868 ,9.21030 
311 ,57.5741 ,1.06958 ,0.91814 ,9.00883 
312 ,57.7500 ,1.07139 ,0.92157 ,9.04241 
313 ,57.9263 ,1.07315 ,0.92841 ,9.10956 
314 ,58.1182 ,1.07501 ,0.89761 ,8.80736 
315 ,58.3104 ,1.07696 ,0.89761 ,8.80736 
316 ,58.4865 ,1.07871 ,0.88050 ,8.63947 
317 ,58.6624 ,1.08049 ,0.86339 ,8.47158 
318 ,58.8547 ,1.08244 ,0.83601 ,8.20295 
319 ,59.0628 ,1.08445 ,0.83259 ,8.16937 
320 ,59.2708 ,1.08643 ,0.82232 ,8.06864 
321 ,59.4629 ,1.08849 ,0.80521 ,7.90074 
322 ,59.6389 ,1.09027 ,0.78810 ,7.73285 
323 ,59.8150 ,1.09199 ,0.78126 ,7.66570 
324 ,59.9912 ,1.09376 ,0.77441 ,7.59854 
325 ,60.1831 ,1.09563 ,0.76415 ,7.49780 
326 ,60.3751 ,1.09763 ,0.74361 ,7.29633 
327 ,60.5673 ,1.09952 ,0.75388 ,7.39707 
328 ,60.7434 ,1.10130 ,0.73335 ,7.19560 
329 ,60.9354 ,1.10321 ,0.70939 ,6.96055 
330 ,61.1117 ,1.10499 ,0.70939 ,6.96055 
331 ,61.3035 ,1.10691 ,0.69570 ,6.82624 
332 ,61.4956 ,1.10875 ,0.68544 ,6.72550 
333 ,61.6878 ,1.11072 ,0.68886 ,6.75908 
334 ,61.8637 ,1.11252 ,0.67175 ,6.59119 
335 ,62.0400 ,1.11432 ,0.66833 ,6.55761 
336 ,62.2320 ,1.11618 ,0.63410 ,6.22183 
337 ,62.4082 ,1.11795 ,0.64779 ,6.35614 
338 ,62.6160 ,1.11997 ,0.61357 ,6.02036 
339 ,62.8083 ,1.12184 ,0.60673 ,5.95320 
340 ,63.0001 ,1.12389 ,0.60330 ,5.91962 
341 ,63.1764 ,1.12560 ,0.57593 ,5.65100 
342 ,63.3684 ,1.12755 ,0.58962 ,5.78531 
343 ,63.5605 ,1.12937 ,0.55197 ,5.41595 
344 ,63.7367 ,1.13121 ,0.54513 ,5.34879 
345 ,63.9287 ,1.13310 ,0.55882 ,5.48311 
346 ,64.1045 ,1.13501 ,0.53486 ,5.24806 
347 ,64.2808 ,1.13669 ,0.52117 ,5.11375 
348 ,64.4730 ,1.13853 ,0.51091 ,5.01301 
349 ,64.6809 ,1.14049 ,0.49722 ,4.87870 
350 ,64.8732 ,1.14246 ,0.48353 ,4.74438 
351 ,65.0648 ,1.14447 ,0.46300 ,4.54291 
352 ,65.2573 ,1.14634 ,0.46642 ,4.57649 
353 ,65.4492 ,1.14834 ,0.45957 ,4.50934 
354 ,65.6255 ,1.15010 ,0.44931 ,4.40860 
355 ,65.8174 ,1.15195 ,0.42193 ,4.13997 
356 ,65.9937 ,1.15379 ,0.41166 ,4.03924 
357 ,66.1697 ,1.15556 ,0.41166 ,4.03924 
358 ,66.3457 ,1.15730 ,0.41851 ,4.10640 
359 ,66.5377 ,1.15921 ,0.39113 ,3.83777 
360 ,66.7140 ,1.16096 ,0.37402 ,3.66988 
361 ,66.9058 ,1.16291 ,0.37060 ,3.63630 
362 ,67.0820 ,1.16469 ,0.37060 ,3.63630 
363 ,67.2420 ,1.16637 ,0.34664 ,3.40125 
364 ,67.4179 ,1.16803 ,0.33295 ,3.26694 
365 ,67.6101 ,1.16989 ,0.32953 ,3.23336 
366 ,67.7858 ,1.17170 ,0.32611 ,3.19978 
367 ,67.9624 ,1.17348 ,0.31242 ,3.06547 
368 ,68.1543 ,1.17536 ,0.28847 ,2.83042 
369 ,68.3305 ,1.17717 ,0.27820 ,2.72969 
370 ,68.5064 ,1.17889 ,0.27820 ,2.72969 
371 ,68.6827 ,1.18068 ,0.27820 ,2.72969 
372 ,68.8743 ,1.18257 ,0.23713 ,2.32675 
373 ,69.0507 ,1.18432 ,0.23713 ,2.32675 
374 ,69.2264 ,1.18606 ,0.22687 ,2.22601 
375 ,69.4025 ,1.18786 ,0.23371 ,2.29317 
376 ,69.5625 ,1.18961 ,0.22002 ,2.15885 
377 ,69.7390 ,1.19129 ,0.20633 ,2.02454 
378 ,69.9632 ,1.19334 ,0.19607 ,1.92381 
379 ,70.1553 ,1.19540 ,0.17896 ,1.75592 
380 ,70.3309 ,1.19716 ,0.16527 ,1.62160 
381 ,70.5075 ,1.19890 ,0.14816 ,1.45371 
382 ,70.6992 ,1.20082 ,0.16527 ,1.62160 
383 ,70.8916 ,1.20264 ,0.13789 ,1.35298 
384 ,71.0996 ,1.20474 ,0.13447 ,1.31940 
385 ,71.2756 ,1.20659 ,0.11736 ,1.15151 
386 ,71.4513 ,1.20833 ,0.09340 ,0.91646 
387 ,71.6276 ,1.21015 ,0.09682 ,0.95004 
388 ,71.8199 ,1.21197 ,0.10025 ,0.98361 
389 ,71.9959 ,1.21378 ,0.07629 ,0.74857 
390 ,72.2040 ,1.21582 ,0.06945 ,0.68141 
391 ,72.3960 ,1.21776 ,0.04891 ,0.47994 
392 ,72.5721 ,1.21955 ,0.02838 ,0.27847 
393 ,72.7481 ,1.22129 ,0.03522 ,0.34563 
394 ,72.9403 ,1.22318 ,0.03865 ,0.37920 
395 ,73.1164 ,1.22496 ,0.01811 ,0.17773 
396 ,73.2924 ,1.22675 ,-0.00584 ,-0.05731 
397 ,73.4686 ,1.22847 ,-0.00242 ,-0.02373 
398 ,73.6446 ,1.23032 ,0.00100 ,0.00984 
399 ,73.8046 ,1.23196 ,-0.01269 ,-0.12447 
400 ,73.9965 ,1.23369 ,-0.03322 ,-0.32594 
401 ,74.1888 ,1.23561 ,-0.04348 ,-0.42667 
402 ,74.3967 ,1.23773 ,-0.05033 ,-0.49383 
403 ,74.6049 ,1.23983 ,-0.05717 ,-0.56099 
404 ,74.7811 ,1.24165 ,-0.07428 ,-0.72888 
405 ,74.9732 ,1.24356 ,-0.08455 ,-0.82961 
406 ,75.1491 ,1.24529 ,-0.11193 ,-1.09824 
407 ,75.3253 ,1.24704 ,-0.10166 ,-0.99751 
408 ,75.5173 ,1.24899 ,-0.09824 ,-0.96393 
409 ,75.6930 ,1.25071 ,-0.11877 ,-1.16540 
410 ,75.8694 ,1.25249 ,-0.14273 ,-1.40045 
411 ,76.0776 ,1.25442 ,-0.12904 ,-1.26613 
412 ,76.2695 ,1.25647 ,-0.15299 ,-1.50118 
413 ,76.4457 ,1.25831 ,-0.15299 ,-1.50118 
414 ,76.6377 ,1.26010 ,-0.17353 ,-1.70265 
415 ,76.8138 ,1.26208 ,-0.18379 ,-1.80338 
416 ,76.9899 ,1.26370 ,-0.18722 ,-1.83696 
417 ,77.1822 ,1.26554 ,-0.21459 ,-2.10559 
418 ,77.3901 ,1.26768 ,-0.21459 ,-2.10559 
419 ,77.5821 ,1.26962 ,-0.20775 ,-2.03843 
420 ,77.7583 ,1.27140 ,-0.22486 ,-2.20632 
421 ,77.9504 ,1.27328 ,-0.24539 ,-2.40779 
422 ,78.1259 ,1.27517 ,-0.24539 ,-2.40779 
423 ,78.3027 ,1.27682 ,-0.24539 ,-2.40779 
424 ,78.4944 ,1.27879 ,-0.26250 ,-2.57569 
425 ,78.6706 ,1.28054 ,-0.26593 ,-2.60926 
426 ,78.8465 ,1.28224 ,-0.28646 ,-2.81073 
427 ,79.0388 ,1.28421 ,-0.28304 ,-2.77716 
428 ,79.2308 ,1.28612 ,-0.30699 ,-3.01220 
429 ,79.4230 ,1.28788 ,-0.31041 ,-3.04578 
430 ,79.6310 ,1.29001 ,-0.30699 ,-3.01220 
431 ,79.8069 ,1.29188 ,-0.33437 ,-3.28083 
432 ,79.9830 ,1.29360 ,-0.33779 ,-3.31441 
433 ,80.1594 ,1.29540 ,-0.33095 ,-3.24725 
434 ,80.3514 ,1.29734 ,-0.36175 ,-3.54946 
435 ,80.5594 ,1.29931 ,-0.34806 ,-3.41514 
436 ,80.7672 ,1.30139 ,-0.38228 ,-3.75093 
437 ,80.9595 ,1.30326 ,-0.38570 ,-3.78450 
438 ,81.1516 ,1.30527 ,-0.36859 ,-3.61661 
439 ,81.3274 ,1.30705 ,-0.41992 ,-4.12029 
440 ,81.5037 ,1.30883 ,-0.41308 ,-4.05313 
441 ,81.6797 ,1.31062 ,-0.40623 ,-3.98597 
442 ,81.8559 ,1.31235 ,-0.42335 ,-4.15387 
443 ,82.0319 ,1.31410 ,-0.43019 ,-4.22102 
444 ,82.2081 ,1.31591 ,-0.42677 ,-4.18744 
445 ,82.4001 ,1.31782 ,-0.45072 ,-4.42249 
446 ,82.5923 ,1.31973 ,-0.45414 ,-4.45607 
447 ,82.7682 ,1.32146 ,-0.48494 ,-4.75828 
448 ,82.9444 ,1.32323 ,-0.47468 ,-4.65754 
449 ,83.1521 ,1.32521 ,-0.48152 ,-4.72470 
450 ,83.3285 ,1.32708 ,-0.48152 ,-4.72470 
451 ,83.5206 ,1.32897 ,-0.49863 ,-4.89259 
452 ,83.7128 ,1.33085 ,-0.50548 ,-4.95975 
453 ,83.8884 ,1.33269 ,-0.51917 ,-5.09406 
454 ,84.0809 ,1.33457 ,-0.52601 ,-5.16121 
455 ,84.3048 ,1.33680 ,-0.53970 ,-5.29553 
456 ,84.4969 ,1.33871 ,-0.53970 ,-5.29553 
457 ,84.6731 ,1.34047 ,-0.53970 ,-5.29553 
458 ,84.8492 ,1.34234 ,-0.56023 ,-5.49700 
459 ,85.0413 ,1.34410 ,-0.58077 ,-5.69847 
460 ,85.2333 ,1.34613 ,-0.57050 ,-5.59773 
461 ,85.4254 ,1.34801 ,-0.59445 ,-5.83278 
462 ,85.6175 ,1.34997 ,-0.59788 ,-5.86636 
463 ,85.7935 ,1.35172 ,-0.60130 ,-5.89994 
464 ,85.9856 ,1.35356 ,-0.62868 ,-6.16856 
