Data stamp = , 07-04-2022 08:52:40 168

Calibration Values: 
Slope = , 26.54 , g/V 
Offset Voltage at no contact = , -0.501760 , V 

No , Time , Stage Position ,   Mass , Force 
   ,  (s) ,      (mm)      ,   (g)  , (mN)  

1 ,0.0000 ,0.49939 ,5.20270 ,51.04886 
2 ,0.2107 ,0.49946 ,5.20612 ,51.08244 
3 ,0.5313 ,0.50028 ,5.18216 ,50.84739 
4 ,0.7392 ,0.50179 ,5.18901 ,50.91455 
5 ,0.9155 ,0.50332 ,5.19243 ,50.94813 
6 ,1.0913 ,0.50504 ,5.21296 ,51.14960 
7 ,1.2675 ,0.50676 ,5.21296 ,51.14960 
8 ,1.4436 ,0.50856 ,5.19243 ,50.94813 
9 ,1.6197 ,0.51032 ,5.18901 ,50.91455 
10 ,1.8117 ,0.51226 ,5.19585 ,50.98170 
11 ,1.9881 ,0.51402 ,5.18216 ,50.84739 
12 ,2.1641 ,0.51579 ,5.16163 ,50.64592 
13 ,2.3559 ,0.51774 ,5.15479 ,50.57876 
14 ,2.5482 ,0.51953 ,5.14452 ,50.47803 
15 ,2.7401 ,0.52154 ,5.12741 ,50.31014 
16 ,2.9162 ,0.52328 ,5.11714 ,50.20940 
17 ,3.0925 ,0.52507 ,5.10688 ,50.10867 
18 ,3.2840 ,0.52696 ,5.06923 ,49.73931 
19 ,3.4766 ,0.52882 ,5.05897 ,49.63857 
20 ,3.7007 ,0.53103 ,5.05212 ,49.57142 
21 ,3.9087 ,0.53306 ,5.02132 ,49.26921 
22 ,4.0847 ,0.53498 ,5.00763 ,49.13490 
23 ,4.2768 ,0.53691 ,5.01106 ,49.16848 
24 ,4.4529 ,0.53860 ,4.98026 ,48.86627 
25 ,4.6288 ,0.54043 ,4.96657 ,48.73196 
26 ,4.8208 ,0.54234 ,4.93235 ,48.39618 
27 ,4.9970 ,0.54413 ,4.93235 ,48.39618 
28 ,5.1891 ,0.54607 ,4.90839 ,48.16113 
29 ,5.3650 ,0.54776 ,4.88786 ,47.95966 
30 ,5.5414 ,0.54956 ,4.87759 ,47.85892 
31 ,5.7173 ,0.55132 ,4.86732 ,47.75819 
32 ,5.8935 ,0.55306 ,4.85706 ,47.65745 
33 ,6.0696 ,0.55485 ,4.83995 ,47.48956 
34 ,6.2616 ,0.55676 ,4.81257 ,47.22093 
35 ,6.4378 ,0.55852 ,4.80230 ,47.12020 
36 ,6.6297 ,0.56049 ,4.77150 ,46.81800 
37 ,6.8218 ,0.56235 ,4.75439 ,46.65010 
38 ,6.9980 ,0.56413 ,4.75439 ,46.65010 
39 ,7.1741 ,0.56587 ,4.74070 ,46.51579 
40 ,7.3661 ,0.56775 ,4.71675 ,46.28074 
41 ,7.5422 ,0.56957 ,4.69279 ,46.04569 
42 ,7.7503 ,0.57157 ,4.67568 ,45.87780 
43 ,7.9264 ,0.57339 ,4.65857 ,45.70991 
44 ,8.1026 ,0.57518 ,4.64488 ,45.57560 
45 ,8.3106 ,0.57710 ,4.65515 ,45.67633 
46 ,8.4865 ,0.57901 ,4.61751 ,45.30697 
47 ,8.6623 ,0.58073 ,4.60040 ,45.13908 
48 ,8.8385 ,0.58251 ,4.61066 ,45.23981 
49 ,9.0468 ,0.58454 ,4.56617 ,44.80330 
50 ,9.2227 ,0.58636 ,4.56275 ,44.76972 
51 ,9.3989 ,0.58812 ,4.54906 ,44.63541 
52 ,9.5748 ,0.58983 ,4.55933 ,44.73614 
53 ,9.7510 ,0.59159 ,4.51484 ,44.29962 
54 ,9.9272 ,0.59336 ,4.49431 ,44.09815 
55 ,10.1192 ,0.59522 ,4.48746 ,44.03100 
56 ,10.2953 ,0.59704 ,4.48746 ,44.03100 
57 ,10.4714 ,0.59882 ,4.46009 ,43.76237 
58 ,10.6475 ,0.60059 ,4.45324 ,43.69521 
59 ,10.8234 ,0.60245 ,4.43613 ,43.52732 
60 ,10.9996 ,0.60411 ,4.41902 ,43.35943 
61 ,11.1914 ,0.60601 ,4.39164 ,43.09080 
62 ,11.3678 ,0.60780 ,4.37795 ,42.95649 
63 ,11.5598 ,0.60962 ,4.38138 ,42.99007 
64 ,11.7358 ,0.61149 ,4.37111 ,42.88933 
65 ,11.9277 ,0.61330 ,4.33004 ,42.48639 
66 ,12.1201 ,0.61534 ,4.31636 ,42.35208 
67 ,12.3119 ,0.61730 ,4.29924 ,42.18419 
68 ,12.4883 ,0.61902 ,4.27187 ,41.91556 
69 ,12.6801 ,0.62083 ,4.27871 ,41.98272 
70 ,12.8881 ,0.62286 ,4.25818 ,41.78125 
71 ,13.0643 ,0.62474 ,4.23080 ,41.51262 
72 ,13.2565 ,0.62672 ,4.22738 ,41.47905 
73 ,13.4482 ,0.62859 ,4.20685 ,41.27758 
74 ,13.6405 ,0.63051 ,4.19658 ,41.17684 
75 ,13.8166 ,0.63224 ,4.17947 ,41.00895 
76 ,13.9928 ,0.63399 ,4.15894 ,40.80748 
77 ,14.1687 ,0.63582 ,4.13156 ,40.53885 
78 ,14.3609 ,0.63770 ,4.13498 ,40.57243 
79 ,14.5371 ,0.63943 ,4.11787 ,40.40454 
80 ,14.7292 ,0.64132 ,4.08707 ,40.10233 
81 ,14.9211 ,0.64334 ,4.08707 ,40.10233 
82 ,15.0812 ,0.64504 ,4.06654 ,39.90087 
83 ,15.2733 ,0.64676 ,4.05969 ,39.83371 
84 ,15.4494 ,0.64855 ,4.01520 ,39.39719 
85 ,15.6254 ,0.65033 ,4.01520 ,39.39719 
86 ,15.8014 ,0.65211 ,4.02547 ,39.49793 
87 ,15.9777 ,0.65392 ,3.99809 ,39.22930 
88 ,16.1696 ,0.65577 ,3.97414 ,38.99425 
89 ,16.3456 ,0.65756 ,3.95018 ,38.75920 
90 ,16.5218 ,0.65943 ,3.94676 ,38.72562 
91 ,16.6979 ,0.66103 ,3.94676 ,38.72562 
92 ,16.8900 ,0.66295 ,3.91596 ,38.42342 
93 ,17.0657 ,0.66470 ,3.89885 ,38.25553 
94 ,17.2420 ,0.66651 ,3.89201 ,38.18837 
95 ,17.4341 ,0.66835 ,3.87147 ,37.98690 
96 ,17.6261 ,0.67029 ,3.86121 ,37.88617 
97 ,17.8023 ,0.67211 ,3.85094 ,37.78543 
98 ,17.9785 ,0.67386 ,3.82699 ,37.55038 
99 ,18.1542 ,0.67564 ,3.81672 ,37.44965 
100 ,18.3306 ,0.67740 ,3.80303 ,37.31534 
101 ,18.5387 ,0.67947 ,3.79619 ,37.24818 
102 ,18.7146 ,0.68120 ,3.76881 ,36.97955 
103 ,18.8908 ,0.68297 ,3.74828 ,36.77808 
104 ,19.0669 ,0.68479 ,3.71748 ,36.47588 
105 ,19.2427 ,0.68657 ,3.73459 ,36.64377 
106 ,19.4348 ,0.68837 ,3.69010 ,36.20725 
107 ,19.6429 ,0.69049 ,3.69694 ,36.27441 
108 ,19.8348 ,0.69237 ,3.66957 ,36.00578 
109 ,20.0109 ,0.69416 ,3.65246 ,35.83789 
110 ,20.1873 ,0.69597 ,3.64561 ,35.77073 
111 ,20.3954 ,0.69795 ,3.62850 ,35.60284 
112 ,20.5715 ,0.69980 ,3.60454 ,35.36779 
113 ,20.7475 ,0.70157 ,3.59770 ,35.30064 
114 ,20.9235 ,0.70331 ,3.59428 ,35.26706 
115 ,21.0997 ,0.70508 ,3.58401 ,35.16632 
116 ,21.2754 ,0.70681 ,3.57717 ,35.09917 
117 ,21.4677 ,0.70868 ,3.54979 ,34.83054 
118 ,21.6439 ,0.71051 ,3.54979 ,34.83054 
119 ,21.8360 ,0.71241 ,3.50872 ,34.42760 
120 ,22.0281 ,0.71426 ,3.51215 ,34.46118 
121 ,22.2042 ,0.71616 ,3.50530 ,34.39402 
122 ,22.3961 ,0.71802 ,3.47108 ,34.05824 
123 ,22.5722 ,0.71984 ,3.45055 ,33.85677 
124 ,22.7644 ,0.72165 ,3.45055 ,33.85677 
125 ,22.9405 ,0.72347 ,3.43344 ,33.68888 
126 ,23.1486 ,0.72538 ,3.42317 ,33.58814 
127 ,23.3245 ,0.72734 ,3.40948 ,33.45383 
128 ,23.5164 ,0.72920 ,3.37184 ,33.08447 
129 ,23.7087 ,0.73112 ,3.36842 ,33.05089 
130 ,23.8846 ,0.73290 ,3.36499 ,33.01731 
131 ,24.0609 ,0.73470 ,3.35473 ,32.91658 
132 ,24.2688 ,0.73669 ,3.32735 ,32.64795 
133 ,24.4450 ,0.73853 ,3.31366 ,32.51364 
134 ,24.6370 ,0.74042 ,3.31708 ,32.54722 
135 ,24.8132 ,0.74214 ,3.27944 ,32.17786 
136 ,25.0049 ,0.74411 ,3.28628 ,32.24501 
137 ,25.1814 ,0.74586 ,3.26917 ,32.07712 
138 ,25.3574 ,0.74761 ,3.23495 ,31.74134 
139 ,25.5495 ,0.74955 ,3.21442 ,31.53987 
140 ,25.7415 ,0.75152 ,3.22811 ,31.67418 
141 ,25.9177 ,0.75322 ,3.19046 ,31.30482 
142 ,26.0938 ,0.75501 ,3.16993 ,31.10335 
143 ,26.2697 ,0.75678 ,3.16309 ,31.03619 
144 ,26.4778 ,0.75867 ,3.14255 ,30.83472 
145 ,26.6379 ,0.76054 ,3.14255 ,30.83472 
146 ,26.8140 ,0.76216 ,3.12544 ,30.66683 
147 ,27.0060 ,0.76408 ,3.12544 ,30.66683 
148 ,27.1981 ,0.76590 ,3.11175 ,30.53252 
149 ,27.3740 ,0.76778 ,3.07411 ,30.16316 
150 ,27.5664 ,0.76960 ,3.06726 ,30.09600 
151 ,27.7584 ,0.77163 ,3.06042 ,30.02884 
152 ,27.9506 ,0.77348 ,3.03647 ,29.79380 
153 ,28.1584 ,0.77558 ,3.00909 ,29.52517 
154 ,28.3345 ,0.77733 ,2.99540 ,29.39086 
155 ,28.5264 ,0.77921 ,3.00567 ,29.49159 
156 ,28.7025 ,0.78106 ,2.99540 ,29.39086 
157 ,28.8626 ,0.78275 ,2.97144 ,29.15581 
158 ,29.0389 ,0.78438 ,2.97144 ,29.15581 
159 ,29.2469 ,0.78638 ,2.95433 ,28.98792 
160 ,29.4231 ,0.78822 ,2.93380 ,28.78645 
161 ,29.5991 ,0.79004 ,2.90642 ,28.51782 
162 ,29.7751 ,0.79176 ,2.89616 ,28.41709 
163 ,29.9672 ,0.79370 ,2.90642 ,28.51782 
164 ,30.1433 ,0.79545 ,2.88247 ,28.28277 
165 ,30.3034 ,0.79720 ,2.86536 ,28.11488 
166 ,30.4795 ,0.79886 ,2.84825 ,27.94699 
167 ,30.6716 ,0.80074 ,2.83798 ,27.84625 
168 ,30.8475 ,0.80252 ,2.81745 ,27.64479 
169 ,31.0236 ,0.80425 ,2.81060 ,27.57763 
170 ,31.1996 ,0.80596 ,2.79007 ,27.37616 
171 ,31.3758 ,0.80781 ,2.76954 ,27.17469 
172 ,31.5520 ,0.80956 ,2.75585 ,27.04038 
173 ,31.7280 ,0.81129 ,2.74900 ,26.97322 
174 ,31.9201 ,0.81319 ,2.73189 ,26.80533 
175 ,32.0801 ,0.81496 ,2.71820 ,26.67101 
176 ,32.2559 ,0.81658 ,2.69083 ,26.40239 
177 ,32.4323 ,0.81836 ,2.69083 ,26.40239 
178 ,32.6239 ,0.82027 ,2.69083 ,26.40239 
179 ,32.8006 ,0.82206 ,2.67029 ,26.20092 
180 ,32.9924 ,0.82396 ,2.64976 ,25.99945 
181 ,33.1843 ,0.82585 ,2.66003 ,26.10018 
182 ,33.3606 ,0.82766 ,2.62238 ,25.73082 
183 ,33.5526 ,0.82958 ,2.60869 ,25.59651 
184 ,33.7289 ,0.83130 ,2.61554 ,25.66367 
185 ,33.9207 ,0.83315 ,2.58474 ,25.36146 
186 ,34.0969 ,0.83500 ,2.56763 ,25.19357 
187 ,34.2890 ,0.83691 ,2.56763 ,25.19357 
188 ,34.4646 ,0.83863 ,2.55736 ,25.09283 
189 ,34.6572 ,0.84051 ,2.51972 ,24.72347 
190 ,34.8494 ,0.84255 ,2.52998 ,24.82421 
191 ,35.0254 ,0.84426 ,2.51630 ,24.68989 
192 ,35.2171 ,0.84615 ,2.48550 ,24.38769 
193 ,35.4095 ,0.84806 ,2.48550 ,24.38769 
194 ,35.6016 ,0.85008 ,2.45470 ,24.08549 
195 ,35.7936 ,0.85193 ,2.45470 ,24.08549 
196 ,35.9698 ,0.85372 ,2.44785 ,24.01833 
197 ,36.1459 ,0.85553 ,2.43074 ,23.85044 
198 ,36.3539 ,0.85736 ,2.39994 ,23.54823 
199 ,36.5300 ,0.85930 ,2.41363 ,23.68255 
200 ,36.7221 ,0.86117 ,2.37256 ,23.27961 
201 ,36.9139 ,0.86315 ,2.35545 ,23.11171 
202 ,37.0900 ,0.86491 ,2.36230 ,23.17887 
203 ,37.2661 ,0.86668 ,2.34861 ,23.04456 
204 ,37.4423 ,0.86846 ,2.32465 ,22.80951 
205 ,37.6341 ,0.87029 ,2.30754 ,22.64162 
206 ,37.8105 ,0.87207 ,2.30412 ,22.60804 
207 ,38.0028 ,0.87401 ,2.28359 ,22.40657 
208 ,38.1946 ,0.87593 ,2.25963 ,22.17152 
209 ,38.3706 ,0.87770 ,2.27332 ,22.30584 
210 ,38.5468 ,0.87950 ,2.25279 ,22.10437 
211 ,38.7389 ,0.88138 ,2.22199 ,21.80216 
212 ,38.9148 ,0.88315 ,2.20488 ,21.63427 
213 ,39.0909 ,0.88488 ,2.20830 ,21.66785 
214 ,39.2668 ,0.88665 ,2.20146 ,21.60069 
215 ,39.4590 ,0.88851 ,2.17408 ,21.33206 
216 ,39.6352 ,0.89038 ,2.15355 ,21.13059 
217 ,39.8271 ,0.89218 ,2.15012 ,21.09702 
218 ,40.0034 ,0.89398 ,2.13986 ,20.99628 
219 ,40.1955 ,0.89595 ,2.11590 ,20.76123 
220 ,40.3876 ,0.89790 ,2.11248 ,20.72766 
221 ,40.5953 ,0.89988 ,2.08510 ,20.45903 
222 ,40.7717 ,0.90170 ,2.08852 ,20.49261 
223 ,40.9637 ,0.90360 ,2.06457 ,20.25756 
224 ,41.1398 ,0.90538 ,2.05088 ,20.12325 
225 ,41.3157 ,0.90715 ,2.03035 ,19.92178 
226 ,41.4920 ,0.90892 ,2.04061 ,20.02251 
227 ,41.6840 ,0.91081 ,2.02350 ,19.85462 
228 ,41.8761 ,0.91268 ,2.00639 ,19.68673 
229 ,42.0524 ,0.91449 ,1.99955 ,19.61957 
230 ,42.2445 ,0.91641 ,1.98586 ,19.48526 
231 ,42.4364 ,0.91826 ,1.95164 ,19.14948 
232 ,42.6124 ,0.92010 ,1.96190 ,19.25021 
233 ,42.7883 ,0.92188 ,1.93453 ,18.98158 
234 ,42.9806 ,0.92378 ,1.91399 ,18.78011 
235 ,43.1566 ,0.92556 ,1.90031 ,18.64580 
236 ,43.3487 ,0.92744 ,1.90715 ,18.71296 
237 ,43.5247 ,0.92918 ,1.89688 ,18.61222 
238 ,43.7006 ,0.93098 ,1.86608 ,18.31002 
239 ,43.8770 ,0.93279 ,1.84897 ,18.14213 
240 ,44.0691 ,0.93467 ,1.85924 ,18.24286 
241 ,44.2453 ,0.93645 ,1.84555 ,18.10855 
242 ,44.4372 ,0.93839 ,1.81133 ,17.77276 
243 ,44.6132 ,0.94015 ,1.81817 ,17.83992 
244 ,44.8214 ,0.94203 ,1.79080 ,17.57129 
245 ,44.9974 ,0.94400 ,1.77026 ,17.36983 
246 ,45.1735 ,0.94571 ,1.77369 ,17.40340 
247 ,45.3655 ,0.94756 ,1.76000 ,17.26909 
248 ,45.5576 ,0.94952 ,1.72920 ,16.96689 
249 ,45.7498 ,0.95151 ,1.73262 ,17.00046 
250 ,45.9096 ,0.95317 ,1.71209 ,16.79899 
251 ,46.0859 ,0.95490 ,1.70182 ,16.69826 
252 ,46.2778 ,0.95670 ,1.69840 ,16.66468 
253 ,46.4701 ,0.95861 ,1.68129 ,16.49679 
254 ,46.6462 ,0.96047 ,1.66760 ,16.36248 
255 ,46.8221 ,0.96219 ,1.64707 ,16.16101 
256 ,47.0142 ,0.96407 ,1.64364 ,16.12743 
257 ,47.1903 ,0.96586 ,1.63338 ,16.02669 
258 ,47.3662 ,0.96758 ,1.61627 ,15.85880 
259 ,47.5424 ,0.96942 ,1.58889 ,15.59018 
260 ,47.7186 ,0.97115 ,1.59231 ,15.62375 
261 ,47.9107 ,0.97301 ,1.57862 ,15.48944 
262 ,48.1186 ,0.97505 ,1.54782 ,15.18724 
263 ,48.3107 ,0.97709 ,1.56151 ,15.32155 
264 ,48.4708 ,0.97878 ,1.53413 ,15.05292 
265 ,48.6470 ,0.98041 ,1.52045 ,14.91861 
266 ,48.8389 ,0.98233 ,1.50676 ,14.78430 
267 ,49.0147 ,0.98410 ,1.50333 ,14.75072 
268 ,49.1910 ,0.98589 ,1.50333 ,14.75072 
269 ,49.3673 ,0.98761 ,1.47596 ,14.48209 
270 ,49.5433 ,0.98937 ,1.45885 ,14.31420 
271 ,49.7193 ,0.99117 ,1.43831 ,14.11273 
272 ,49.8953 ,0.99289 ,1.45200 ,14.24704 
273 ,50.0715 ,0.99471 ,1.43489 ,14.07915 
274 ,50.2636 ,0.99652 ,1.40751 ,13.81053 
275 ,50.4716 ,0.99857 ,1.39040 ,13.64263 
276 ,50.6638 ,1.00058 ,1.39040 ,13.64263 
277 ,50.8558 ,1.00242 ,1.38698 ,13.60906 
278 ,51.0318 ,1.00427 ,1.37671 ,13.50832 
279 ,51.2077 ,1.00605 ,1.35276 ,13.27327 
280 ,51.3837 ,1.00775 ,1.31854 ,12.93749 
281 ,51.5761 ,1.00969 ,1.34249 ,13.17254 
282 ,51.7682 ,1.01157 ,1.31512 ,12.90391 
283 ,51.9762 ,1.01354 ,1.31854 ,12.93749 
284 ,52.1526 ,1.01545 ,1.30485 ,12.80318 
285 ,52.3283 ,1.01724 ,1.28089 ,12.56813 
286 ,52.5041 ,1.01904 ,1.27063 ,12.46739 
287 ,52.6806 ,1.02076 ,1.25009 ,12.26592 
288 ,52.8727 ,1.02264 ,1.25009 ,12.26592 
289 ,53.0487 ,1.02444 ,1.22614 ,12.03088 
290 ,53.2406 ,1.02637 ,1.20218 ,11.79583 
291 ,53.4324 ,1.02833 ,1.20903 ,11.86298 
292 ,53.5925 ,1.03000 ,1.18850 ,11.66151 
293 ,53.7686 ,1.03163 ,1.16796 ,11.46004 
294 ,53.9610 ,1.03342 ,1.16796 ,11.46004 
295 ,54.1534 ,1.03549 ,1.16112 ,11.39289 
296 ,54.3293 ,1.03727 ,1.16112 ,11.39289 
297 ,54.5214 ,1.03908 ,1.14401 ,11.22500 
298 ,54.7295 ,1.04113 ,1.12347 ,11.02353 
299 ,54.9216 ,1.04310 ,1.10294 ,10.82206 
300 ,55.0976 ,1.04494 ,1.08925 ,10.68774 
301 ,55.2737 ,1.04669 ,1.09610 ,10.75490 
302 ,55.4653 ,1.04854 ,1.04819 ,10.28480 
303 ,55.6418 ,1.05036 ,1.04476 ,10.25123 
304 ,55.8179 ,1.05215 ,1.06187 ,10.41912 
305 ,56.0101 ,1.05394 ,1.02765 ,10.08333 
306 ,56.2020 ,1.05596 ,1.01396 ,9.94902 
307 ,56.3942 ,1.05788 ,1.01396 ,9.94902 
308 ,56.5702 ,1.05960 ,0.99685 ,9.78113 
309 ,56.7465 ,1.06141 ,0.98659 ,9.68039 
310 ,56.9223 ,1.06314 ,0.96263 ,9.44535 
311 ,57.0983 ,1.06493 ,0.96263 ,9.44535 
312 ,57.2903 ,1.06684 ,0.96605 ,9.47892 
313 ,57.4661 ,1.06855 ,0.92841 ,9.10956 
314 ,57.6426 ,1.07037 ,0.92841 ,9.10956 
315 ,57.8345 ,1.07221 ,0.92499 ,9.07598 
316 ,58.0267 ,1.07410 ,0.91130 ,8.94167 
317 ,58.2187 ,1.07603 ,0.90788 ,8.90809 
318 ,58.3944 ,1.07785 ,0.89761 ,8.80736 
319 ,58.5710 ,1.07964 ,0.87708 ,8.60589 
320 ,58.7472 ,1.08145 ,0.86681 ,8.50515 
321 ,58.9232 ,1.08317 ,0.83259 ,8.16937 
322 ,59.0987 ,1.08493 ,0.82917 ,8.13579 
323 ,59.2752 ,1.08672 ,0.84286 ,8.27011 
324 ,59.4674 ,1.08856 ,0.80179 ,7.86717 
325 ,59.6436 ,1.09040 ,0.79495 ,7.80001 
326 ,59.8354 ,1.09219 ,0.79495 ,7.80001 
327 ,60.0437 ,1.09435 ,0.78126 ,7.66570 
328 ,60.2197 ,1.09611 ,0.75730 ,7.43065 
329 ,60.4118 ,1.09804 ,0.75730 ,7.43065 
330 ,60.6199 ,1.09999 ,0.72992 ,7.16202 
331 ,60.7958 ,1.10187 ,0.73677 ,7.22918 
332 ,60.9720 ,1.10363 ,0.73677 ,7.22918 
333 ,61.1482 ,1.10543 ,0.69913 ,6.85982 
334 ,61.3240 ,1.10714 ,0.69913 ,6.85982 
335 ,61.5002 ,1.10891 ,0.69228 ,6.79266 
336 ,61.6762 ,1.11070 ,0.69228 ,6.79266 
337 ,61.8843 ,1.11268 ,0.66490 ,6.52403 
338 ,62.0604 ,1.11451 ,0.65806 ,6.45688 
339 ,62.2366 ,1.11628 ,0.66148 ,6.49046 
340 ,62.4445 ,1.11824 ,0.62384 ,6.12109 
341 ,62.6366 ,1.12023 ,0.62726 ,6.15467 
342 ,62.8447 ,1.12227 ,0.59304 ,5.81889 
343 ,63.0367 ,1.12423 ,0.61015 ,5.98678 
344 ,63.2130 ,1.12609 ,0.59646 ,5.85247 
345 ,63.4050 ,1.12790 ,0.57593 ,5.65100 
346 ,63.5971 ,1.12981 ,0.56908 ,5.58384 
347 ,63.7730 ,1.13163 ,0.56566 ,5.55026 
348 ,63.9492 ,1.13338 ,0.54171 ,5.31522 
349 ,64.1255 ,1.13516 ,0.52117 ,5.11375 
350 ,64.3175 ,1.13707 ,0.52802 ,5.18090 
351 ,64.5096 ,1.13902 ,0.51433 ,5.04659 
352 ,64.7014 ,1.14084 ,0.49380 ,4.84512 
353 ,64.8776 ,1.14264 ,0.49722 ,4.87870 
354 ,65.0373 ,1.14439 ,0.48695 ,4.77796 
355 ,65.2297 ,1.14608 ,0.48011 ,4.71081 
356 ,65.4378 ,1.14816 ,0.47668 ,4.67723 
357 ,65.6140 ,1.15006 ,0.45273 ,4.44218 
358 ,65.8219 ,1.15208 ,0.42877 ,4.20713 
359 ,65.9981 ,1.15389 ,0.42877 ,4.20713 
360 ,66.1582 ,1.15561 ,0.42535 ,4.17355 
361 ,66.3501 ,1.15737 ,0.40140 ,3.93850 
362 ,66.5264 ,1.15912 ,0.37744 ,3.70346 
363 ,66.7343 ,1.16113 ,0.39113 ,3.83777 
364 ,66.9105 ,1.16301 ,0.36718 ,3.60272 
365 ,67.0865 ,1.16478 ,0.35006 ,3.43483 
366 ,67.2787 ,1.16667 ,0.35349 ,3.46841 
367 ,67.4550 ,1.16842 ,0.33638 ,3.30052 
368 ,67.6306 ,1.17017 ,0.30900 ,3.03189 
369 ,67.8228 ,1.17211 ,0.30900 ,3.03189 
370 ,67.9987 ,1.17389 ,0.30900 ,3.03189 
371 ,68.1907 ,1.17578 ,0.28162 ,2.76326 
372 ,68.3672 ,1.17756 ,0.28162 ,2.76326 
373 ,68.5593 ,1.17945 ,0.29189 ,2.86400 
374 ,68.7353 ,1.18125 ,0.27820 ,2.72969 
375 ,68.9433 ,1.18330 ,0.27135 ,2.66253 
376 ,69.1194 ,1.18505 ,0.25424 ,2.49464 
377 ,69.2950 ,1.18680 ,0.24055 ,2.36032 
378 ,69.4711 ,1.18855 ,0.22002 ,2.15885 
379 ,69.6637 ,1.19047 ,0.20291 ,1.99096 
380 ,69.8560 ,1.19241 ,0.22002 ,2.15885 
381 ,70.0318 ,1.19420 ,0.19949 ,1.95738 
382 ,70.2236 ,1.19606 ,0.18580 ,1.82307 
383 ,70.3999 ,1.19785 ,0.17211 ,1.68876 
384 ,70.5760 ,1.19961 ,0.17896 ,1.75592 
385 ,70.7522 ,1.20139 ,0.15842 ,1.55445 
386 ,70.9282 ,1.20320 ,0.13105 ,1.28582 
387 ,71.1042 ,1.20490 ,0.12078 ,1.18508 
388 ,71.2803 ,1.20670 ,0.12762 ,1.25224 
389 ,71.4561 ,1.20845 ,0.13105 ,1.28582 
390 ,71.6486 ,1.21034 ,0.08998 ,0.88288 
391 ,71.8244 ,1.21212 ,0.08314 ,0.81572 
392 ,72.0007 ,1.21388 ,0.07287 ,0.71499 
393 ,72.1928 ,1.21573 ,0.06602 ,0.64783 
394 ,72.4008 ,1.21786 ,0.06260 ,0.61425 
395 ,72.5768 ,1.21965 ,0.05576 ,0.54710 
396 ,72.7689 ,1.22159 ,0.03865 ,0.37920 
397 ,72.9611 ,1.22344 ,0.02496 ,0.24489 
398 ,73.1371 ,1.22528 ,0.03180 ,0.31205 
399 ,73.3292 ,1.22710 ,0.00785 ,0.07700 
400 ,73.5209 ,1.22900 ,0.01469 ,0.14416 
401 ,73.6975 ,1.23088 ,0.00100 ,0.00984 
402 ,73.9054 ,1.23280 ,-0.02637 ,-0.25878 
403 ,74.0976 ,1.23478 ,-0.01953 ,-0.19163 
404 ,74.2736 ,1.23663 ,-0.03322 ,-0.32594 
405 ,74.4652 ,1.23846 ,-0.05717 ,-0.56099 
406 ,74.6417 ,1.24025 ,-0.06402 ,-0.62814 
407 ,74.8177 ,1.24201 ,-0.06060 ,-0.59457 
408 ,74.9939 ,1.24379 ,-0.07771 ,-0.76246 
409 ,75.1858 ,1.24570 ,-0.08797 ,-0.86319 
410 ,75.3780 ,1.24764 ,-0.08455 ,-0.82961 
411 ,75.5539 ,1.24939 ,-0.10851 ,-1.06466 
412 ,75.7301 ,1.25117 ,-0.12562 ,-1.23255 
413 ,75.9221 ,1.25302 ,-0.12562 ,-1.23255 
414 ,76.0984 ,1.25485 ,-0.12219 ,-1.19898 
415 ,76.2744 ,1.25662 ,-0.13246 ,-1.29971 
416 ,76.4505 ,1.25850 ,-0.17011 ,-1.66907 
417 ,76.6263 ,1.26010 ,-0.18379 ,-1.80338 
418 ,76.8025 ,1.26197 ,-0.15299 ,-1.50118 
419 ,76.9948 ,1.26377 ,-0.16668 ,-1.63549 
420 ,77.1706 ,1.26557 ,-0.19406 ,-1.90412 
421 ,77.3469 ,1.26729 ,-0.20433 ,-2.00485 
422 ,77.5386 ,1.26918 ,-0.19064 ,-1.87054 
423 ,77.7148 ,1.27100 ,-0.20433 ,-2.00485 
424 ,77.8910 ,1.27275 ,-0.21459 ,-2.10559 
425 ,78.0830 ,1.27475 ,-0.23513 ,-2.30706 
426 ,78.2591 ,1.27644 ,-0.23513 ,-2.30706 
427 ,78.4512 ,1.27829 ,-0.26935 ,-2.64284 
428 ,78.6274 ,1.28008 ,-0.27619 ,-2.71000 
429 ,78.8190 ,1.28204 ,-0.27277 ,-2.67642 
430 ,78.9953 ,1.28379 ,-0.25908 ,-2.54211 
431 ,79.1875 ,1.28571 ,-0.30015 ,-2.94505 
432 ,79.3636 ,1.28744 ,-0.30699 ,-3.01220 
433 ,79.5554 ,1.28932 ,-0.31384 ,-3.07936 
434 ,79.7634 ,1.29141 ,-0.31041 ,-3.04578 
435 ,79.9394 ,1.29320 ,-0.31384 ,-3.07936 
436 ,80.1157 ,1.29495 ,-0.32068 ,-3.14652 
437 ,80.3080 ,1.29695 ,-0.35490 ,-3.48230 
438 ,80.5000 ,1.29887 ,-0.34806 ,-3.41514 
439 ,80.6922 ,1.30078 ,-0.36859 ,-3.61661 
440 ,80.8841 ,1.30271 ,-0.38570 ,-3.78450 
441 ,81.0763 ,1.30450 ,-0.37544 ,-3.68377 
442 ,81.2842 ,1.30664 ,-0.38228 ,-3.75093 
443 ,81.4765 ,1.30862 ,-0.38912 ,-3.81808 
444 ,81.6686 ,1.31043 ,-0.42335 ,-4.15387 
445 ,81.8607 ,1.31241 ,-0.39939 ,-3.91882 
446 ,82.0688 ,1.31437 ,-0.43703 ,-4.28818 
447 ,82.2607 ,1.31636 ,-0.43361 ,-4.25460 
448 ,82.4365 ,1.31820 ,-0.42335 ,-4.15387 
449 ,82.6129 ,1.32009 ,-0.47126 ,-4.62396 
450 ,82.8210 ,1.32189 ,-0.45757 ,-4.48965 
451 ,83.0287 ,1.32406 ,-0.48494 ,-4.75828 
452 ,83.2052 ,1.32588 ,-0.48494 ,-4.75828 
453 ,83.3972 ,1.32778 ,-0.48152 ,-4.72470 
454 ,83.5893 ,1.32967 ,-0.52259 ,-5.12764 
455 ,83.7653 ,1.33146 ,-0.52943 ,-5.19479 
456 ,83.9575 ,1.33343 ,-0.50206 ,-4.92617 
457 ,84.1331 ,1.33512 ,-0.53285 ,-5.22837 
458 ,84.3095 ,1.33696 ,-0.54654 ,-5.36268 
459 ,84.4695 ,1.33862 ,-0.53970 ,-5.29553 
460 ,84.6457 ,1.34028 ,-0.56023 ,-5.49700 
461 ,84.8215 ,1.34203 ,-0.55339 ,-5.42984 
462 ,84.9979 ,1.34378 ,-0.55681 ,-5.46342 
463 ,85.1898 ,1.34572 ,-0.59103 ,-5.79920 
464 ,85.3821 ,1.34764 ,-0.59103 ,-5.79920 
