Data stamp = , 06-04-2022 21:01:54 948

Calibration Values: 
Slope = , 26.54 , g/V 
Offset Voltage at no contact = , -0.501760 , V 

No , Time , Stage Position ,   Mass , Force 
   ,  (s) ,      (mm)      ,   (g)  , (mN)  

1 ,0.0000 ,0.49945 ,5.20954 ,51.11602 
2 ,0.2315 ,0.49953 ,5.21296 ,51.14960 
3 ,0.4720 ,0.50022 ,5.21639 ,51.18317 
4 ,0.6800 ,0.50146 ,5.21639 ,51.18317 
5 ,0.8717 ,0.50294 ,5.21639 ,51.18317 
6 ,1.0480 ,0.50466 ,5.21639 ,51.18317 
7 ,1.2241 ,0.50638 ,5.22323 ,51.25033 
8 ,1.4164 ,0.50829 ,5.22665 ,51.28391 
9 ,1.6081 ,0.51032 ,5.21296 ,51.14960 
10 ,1.8005 ,0.51216 ,5.21981 ,51.21675 
11 ,1.9925 ,0.51421 ,5.18559 ,50.88097 
12 ,2.1685 ,0.51589 ,5.16848 ,50.71308 
13 ,2.3445 ,0.51765 ,5.17190 ,50.74666 
14 ,2.5206 ,0.51940 ,5.16505 ,50.67950 
15 ,2.7284 ,0.52137 ,5.15136 ,50.54519 
16 ,2.9049 ,0.52328 ,5.13768 ,50.41087 
17 ,3.0970 ,0.52508 ,5.11372 ,50.17583 
18 ,3.2891 ,0.52702 ,5.10345 ,50.07509 
19 ,3.4651 ,0.52883 ,5.08292 ,49.87362 
20 ,3.6413 ,0.53061 ,5.07950 ,49.84004 
21 ,3.8333 ,0.53252 ,5.04528 ,49.50426 
22 ,4.0250 ,0.53434 ,5.04528 ,49.50426 
23 ,4.2014 ,0.53621 ,5.04185 ,49.47068 
24 ,4.3615 ,0.53791 ,5.02817 ,49.33637 
25 ,4.5376 ,0.53953 ,5.00079 ,49.06774 
26 ,4.7134 ,0.54141 ,4.98026 ,48.86627 
27 ,4.8895 ,0.54306 ,4.95288 ,48.59764 
28 ,5.0495 ,0.54482 ,4.96315 ,48.69838 
29 ,5.2096 ,0.54641 ,4.94603 ,48.53049 
30 ,5.3861 ,0.54804 ,4.94261 ,48.49691 
31 ,5.5781 ,0.54986 ,4.91181 ,48.19471 
32 ,5.7701 ,0.55183 ,4.89812 ,48.06039 
33 ,5.9621 ,0.55377 ,4.86732 ,47.75819 
34 ,6.1383 ,0.55558 ,4.87759 ,47.85892 
35 ,6.3143 ,0.55731 ,4.84337 ,47.52314 
36 ,6.4907 ,0.55907 ,4.82968 ,47.38883 
37 ,6.6825 ,0.56095 ,4.83310 ,47.42240 
38 ,6.8585 ,0.56279 ,4.80573 ,47.15378 
39 ,7.0342 ,0.56456 ,4.80230 ,47.12020 
40 ,7.2107 ,0.56626 ,4.78519 ,46.95231 
41 ,7.4025 ,0.56816 ,4.77493 ,46.85157 
42 ,7.5787 ,0.56998 ,4.75097 ,46.61653 
43 ,7.7548 ,0.57174 ,4.72017 ,46.31432 
44 ,7.9470 ,0.57364 ,4.74070 ,46.51579 
45 ,8.1229 ,0.57549 ,4.70648 ,46.18001 
46 ,8.3150 ,0.57728 ,4.68937 ,46.01212 
47 ,8.5071 ,0.57920 ,4.68595 ,45.97854 
48 ,8.6993 ,0.58119 ,4.66542 ,45.77707 
49 ,8.9073 ,0.58308 ,4.66199 ,45.74349 
50 ,9.0829 ,0.58498 ,4.63462 ,45.47486 
51 ,9.2595 ,0.58677 ,4.61066 ,45.23981 
52 ,9.4354 ,0.58850 ,4.59697 ,45.10550 
53 ,9.6273 ,0.59031 ,4.57986 ,44.93761 
54 ,9.8035 ,0.59218 ,4.57302 ,44.87045 
55 ,9.9953 ,0.59410 ,4.54906 ,44.63541 
56 ,10.1878 ,0.59602 ,4.55933 ,44.73614 
57 ,10.3639 ,0.59782 ,4.52853 ,44.43394 
58 ,10.5401 ,0.59958 ,4.50457 ,44.19889 
59 ,10.7639 ,0.60165 ,4.50115 ,44.16531 
60 ,10.9402 ,0.60353 ,4.46351 ,43.79595 
61 ,11.1162 ,0.60534 ,4.46351 ,43.79595 
62 ,11.3083 ,0.60717 ,4.45666 ,43.72879 
63 ,11.5004 ,0.60914 ,4.42244 ,43.39301 
64 ,11.6765 ,0.61098 ,4.40533 ,43.22512 
65 ,11.8686 ,0.61287 ,4.41902 ,43.35943 
66 ,12.0608 ,0.61470 ,4.37795 ,42.95649 
67 ,12.2364 ,0.61655 ,4.36769 ,42.85576 
68 ,12.4126 ,0.61830 ,4.34716 ,42.65429 
69 ,12.6210 ,0.62034 ,4.32320 ,42.41924 
70 ,12.7967 ,0.62207 ,4.31978 ,42.38566 
71 ,12.9891 ,0.62401 ,4.33004 ,42.48639 
72 ,13.1811 ,0.62599 ,4.28556 ,42.04988 
73 ,13.3732 ,0.62786 ,4.27871 ,41.98272 
74 ,13.5493 ,0.62966 ,4.27871 ,41.98272 
75 ,13.7414 ,0.63156 ,4.24449 ,41.64694 
76 ,13.9174 ,0.63329 ,4.22396 ,41.44547 
77 ,14.0937 ,0.63507 ,4.21369 ,41.34473 
78 ,14.2697 ,0.63688 ,4.20685 ,41.27758 
79 ,14.4617 ,0.63872 ,4.17605 ,40.97537 
80 ,14.6539 ,0.64067 ,4.17262 ,40.94179 
81 ,14.8298 ,0.64246 ,4.16920 ,40.90821 
82 ,15.0059 ,0.64418 ,4.15551 ,40.77390 
83 ,15.1821 ,0.64597 ,4.11787 ,40.40454 
84 ,15.3740 ,0.64777 ,4.10076 ,40.23665 
85 ,15.5501 ,0.64969 ,4.09049 ,40.13591 
86 ,15.7423 ,0.65153 ,4.07680 ,40.00160 
87 ,15.9183 ,0.65335 ,4.04943 ,39.73297 
88 ,16.0942 ,0.65520 ,4.06654 ,39.90087 
89 ,16.3025 ,0.65702 ,4.01520 ,39.39719 
90 ,16.4942 ,0.65905 ,4.01863 ,39.43077 
91 ,16.6703 ,0.66084 ,4.01863 ,39.43077 
92 ,16.8467 ,0.66256 ,3.99467 ,39.19572 
93 ,17.0228 ,0.66435 ,3.96729 ,38.92709 
94 ,17.2148 ,0.66634 ,3.96729 ,38.92709 
95 ,17.4069 ,0.66816 ,3.96387 ,38.89352 
96 ,17.5990 ,0.67014 ,3.94334 ,38.69205 
97 ,17.7750 ,0.67192 ,3.91596 ,38.42342 
98 ,17.9671 ,0.67374 ,3.91254 ,38.38984 
99 ,18.1433 ,0.67555 ,3.88858 ,38.15479 
100 ,18.3513 ,0.67759 ,3.88516 ,38.12122 
101 ,18.5274 ,0.67938 ,3.86805 ,37.95332 
102 ,18.7034 ,0.68115 ,3.83383 ,37.61754 
103 ,18.8956 ,0.68298 ,3.82356 ,37.51681 
104 ,19.0715 ,0.68483 ,3.83383 ,37.61754 
105 ,19.2477 ,0.68664 ,3.82014 ,37.48323 
106 ,19.4237 ,0.68840 ,3.79619 ,37.24818 
107 ,19.5999 ,0.69012 ,3.77565 ,37.04671 
108 ,19.7757 ,0.69187 ,3.77223 ,37.01313 
109 ,19.9840 ,0.69393 ,3.72774 ,36.57661 
110 ,20.1598 ,0.69569 ,3.72090 ,36.50946 
111 ,20.3521 ,0.69762 ,3.73459 ,36.64377 
112 ,20.5121 ,0.69934 ,3.70037 ,36.30799 
113 ,20.6882 ,0.70101 ,3.70037 ,36.30799 
114 ,20.8643 ,0.70273 ,3.66957 ,36.00578 
115 ,21.0564 ,0.70476 ,3.66957 ,36.00578 
116 ,21.2485 ,0.70654 ,3.64219 ,35.73716 
117 ,21.4407 ,0.70850 ,3.63534 ,35.67000 
118 ,21.6327 ,0.71037 ,3.62166 ,35.53569 
119 ,21.8407 ,0.71247 ,3.60797 ,35.40137 
120 ,22.0167 ,0.71425 ,3.60112 ,35.33422 
121 ,22.2088 ,0.71621 ,3.57032 ,35.03201 
122 ,22.3847 ,0.71796 ,3.54979 ,34.83054 
123 ,22.5611 ,0.71971 ,3.53268 ,34.66265 
124 ,22.7690 ,0.72175 ,3.53268 ,34.66265 
125 ,22.9291 ,0.72350 ,3.50188 ,34.36045 
126 ,23.1049 ,0.72518 ,3.49161 ,34.25971 
127 ,23.2812 ,0.72694 ,3.48477 ,34.19255 
128 ,23.4574 ,0.72865 ,3.47108 ,34.05824 
129 ,23.6332 ,0.73044 ,3.47108 ,34.05824 
130 ,23.8575 ,0.73252 ,3.44713 ,33.82319 
131 ,24.0337 ,0.73445 ,3.42659 ,33.62172 
132 ,24.2256 ,0.73640 ,3.40606 ,33.42025 
133 ,24.4014 ,0.73814 ,3.39579 ,33.31952 
134 ,24.5777 ,0.73990 ,3.39921 ,33.35310 
135 ,24.7697 ,0.74179 ,3.36842 ,33.05089 
136 ,24.9617 ,0.74372 ,3.35130 ,32.88300 
137 ,25.1537 ,0.74563 ,3.34104 ,32.78227 
138 ,25.3622 ,0.74770 ,3.33419 ,32.71511 
139 ,25.5381 ,0.74949 ,3.31366 ,32.51364 
140 ,25.7141 ,0.75122 ,3.29997 ,32.37933 
141 ,25.8904 ,0.75302 ,3.28286 ,32.21143 
142 ,26.0822 ,0.75498 ,3.25891 ,31.97639 
143 ,26.2744 ,0.75681 ,3.25206 ,31.90923 
144 ,26.4505 ,0.75860 ,3.24180 ,31.80849 
145 ,26.6267 ,0.76039 ,3.20415 ,31.43913 
146 ,26.8188 ,0.76226 ,3.21784 ,31.57345 
147 ,27.0109 ,0.76423 ,3.19388 ,31.33840 
148 ,27.1870 ,0.76599 ,3.16993 ,31.10335 
149 ,27.3630 ,0.76771 ,3.14255 ,30.83472 
150 ,27.5550 ,0.76953 ,3.16309 ,31.03619 
151 ,27.7310 ,0.77137 ,3.12886 ,30.70041 
152 ,27.9073 ,0.77313 ,3.11518 ,30.56610 
153 ,28.0992 ,0.77506 ,3.12202 ,30.63325 
154 ,28.2753 ,0.77683 ,3.11175 ,30.53252 
155 ,28.4514 ,0.77858 ,3.08780 ,30.29747 
156 ,28.6273 ,0.78030 ,3.05358 ,29.96169 
157 ,28.8195 ,0.78227 ,3.07411 ,30.16316 
158 ,28.9955 ,0.78402 ,3.03304 ,29.76022 
159 ,29.1718 ,0.78580 ,3.02620 ,29.69306 
160 ,29.3476 ,0.78759 ,3.00224 ,29.45801 
161 ,29.5238 ,0.78932 ,3.00567 ,29.49159 
162 ,29.7159 ,0.79121 ,2.98513 ,29.29012 
163 ,29.8921 ,0.79300 ,2.97144 ,29.15581 
164 ,30.1001 ,0.79507 ,2.96118 ,29.05507 
165 ,30.2923 ,0.79698 ,2.93038 ,28.75287 
166 ,30.4843 ,0.79892 ,2.92353 ,28.68571 
167 ,30.6604 ,0.80074 ,2.91327 ,28.58498 
168 ,30.8364 ,0.80249 ,2.90300 ,28.48424 
169 ,31.0125 ,0.80421 ,2.88589 ,28.31635 
170 ,31.2206 ,0.80625 ,2.87905 ,28.24919 
171 ,31.4125 ,0.80823 ,2.86536 ,28.11488 
172 ,31.6047 ,0.81004 ,2.84825 ,27.94699 
173 ,31.7968 ,0.81203 ,2.83114 ,27.77910 
174 ,31.9888 ,0.81399 ,2.80034 ,27.47689 
175 ,32.1650 ,0.81574 ,2.79691 ,27.44332 
176 ,32.3729 ,0.81767 ,2.77980 ,27.27542 
177 ,32.5649 ,0.81970 ,2.77980 ,27.27542 
178 ,32.7412 ,0.82143 ,2.76269 ,27.10753 
179 ,32.9172 ,0.82327 ,2.75243 ,27.00680 
180 ,33.0933 ,0.82503 ,2.72847 ,26.77175 
181 ,33.2692 ,0.82681 ,2.70109 ,26.50312 
182 ,33.4453 ,0.82853 ,2.69425 ,26.43597 
183 ,33.6214 ,0.83024 ,2.70794 ,26.57028 
184 ,33.7976 ,0.83207 ,2.69425 ,26.43597 
185 ,33.9735 ,0.83377 ,2.65660 ,26.06661 
186 ,34.1817 ,0.83582 ,2.64976 ,25.99945 
187 ,34.4057 ,0.83799 ,2.63949 ,25.89871 
188 ,34.5978 ,0.84006 ,2.62238 ,25.73082 
189 ,34.7901 ,0.84194 ,2.59501 ,25.46220 
190 ,34.9821 ,0.84392 ,2.60185 ,25.52935 
191 ,35.1582 ,0.84564 ,2.58132 ,25.32788 
192 ,35.3503 ,0.84758 ,2.56421 ,25.15999 
193 ,35.5264 ,0.84935 ,2.52998 ,24.82421 
194 ,35.7181 ,0.85127 ,2.54025 ,24.92494 
195 ,35.9105 ,0.85309 ,2.51287 ,24.65632 
196 ,36.0865 ,0.85491 ,2.49918 ,24.52200 
197 ,36.2627 ,0.85669 ,2.49576 ,24.48842 
198 ,36.4387 ,0.85849 ,2.49576 ,24.48842 
199 ,36.6148 ,0.86019 ,2.46496 ,24.18622 
200 ,36.8065 ,0.86214 ,2.45127 ,24.05191 
201 ,36.9825 ,0.86391 ,2.44443 ,23.98475 
202 ,37.1589 ,0.86567 ,2.42390 ,23.78328 
203 ,37.3511 ,0.86758 ,2.40336 ,23.58181 
204 ,37.5432 ,0.86951 ,2.40336 ,23.58181 
205 ,37.7352 ,0.87140 ,2.36914 ,23.24603 
206 ,37.9111 ,0.87328 ,2.37256 ,23.27961 
207 ,38.0873 ,0.87494 ,2.34861 ,23.04456 
208 ,38.2634 ,0.87668 ,2.34861 ,23.04456 
209 ,38.4395 ,0.87848 ,2.33834 ,22.94382 
210 ,38.6155 ,0.88023 ,2.31781 ,22.74235 
211 ,38.8075 ,0.88204 ,2.29728 ,22.54088 
212 ,38.9835 ,0.88389 ,2.29385 ,22.50731 
213 ,39.1598 ,0.88567 ,2.27332 ,22.30584 
214 ,39.3519 ,0.88749 ,2.26648 ,22.23868 
215 ,39.5600 ,0.88959 ,2.24252 ,22.00363 
216 ,39.7360 ,0.89147 ,2.21857 ,21.76858 
217 ,39.9121 ,0.89319 ,2.21172 ,21.70143 
218 ,40.1200 ,0.89520 ,2.20830 ,21.66785 
219 ,40.3121 ,0.89715 ,2.18092 ,21.39922 
220 ,40.4886 ,0.89893 ,2.17066 ,21.29849 
221 ,40.6805 ,0.90083 ,2.15697 ,21.16417 
222 ,40.8726 ,0.90277 ,2.11932 ,20.79481 
223 ,41.0482 ,0.90460 ,2.13986 ,20.99628 
224 ,41.2245 ,0.90626 ,2.13644 ,20.96270 
225 ,41.4168 ,0.90817 ,2.09879 ,20.59334 
226 ,41.6089 ,0.91003 ,2.07826 ,20.39187 
227 ,41.8012 ,0.91199 ,2.07826 ,20.39187 
228 ,41.9770 ,0.91384 ,2.06115 ,20.22398 
229 ,42.1849 ,0.91584 ,2.06799 ,20.29114 
230 ,42.3771 ,0.91771 ,2.04061 ,20.02251 
231 ,42.5852 ,0.91972 ,2.02008 ,19.82104 
232 ,42.7934 ,0.92190 ,1.99613 ,19.58599 
233 ,42.9854 ,0.92384 ,1.99613 ,19.58599 
234 ,43.1772 ,0.92577 ,1.97902 ,19.41810 
235 ,43.3695 ,0.92762 ,1.95848 ,19.21663 
236 ,43.5612 ,0.92960 ,1.93111 ,18.94801 
237 ,43.7376 ,0.93138 ,1.93111 ,18.94801 
238 ,43.9298 ,0.93330 ,1.91399 ,18.78011 
239 ,44.1056 ,0.93512 ,1.92084 ,18.84727 
240 ,44.2820 ,0.93684 ,1.89346 ,18.57864 
241 ,44.5059 ,0.93891 ,1.88319 ,18.47791 
242 ,44.6820 ,0.94090 ,1.85582 ,18.20928 
243 ,44.8580 ,0.94262 ,1.84213 ,18.07497 
244 ,45.0340 ,0.94435 ,1.81475 ,17.80634 
245 ,45.2260 ,0.94623 ,1.82502 ,17.90708 
246 ,45.4184 ,0.94823 ,1.80449 ,17.70561 
247 ,45.6262 ,0.95028 ,1.79080 ,17.57129 
248 ,45.8181 ,0.95222 ,1.77711 ,17.43698 
249 ,45.9945 ,0.95394 ,1.76342 ,17.30267 
250 ,46.1866 ,0.95585 ,1.75657 ,17.23551 
251 ,46.3786 ,0.95782 ,1.72235 ,16.89973 
252 ,46.5548 ,0.95954 ,1.71893 ,16.86615 
253 ,46.7469 ,0.96154 ,1.71551 ,16.83257 
254 ,46.9229 ,0.96321 ,1.69840 ,16.66468 
255 ,47.0990 ,0.96503 ,1.68129 ,16.49679 
256 ,47.3231 ,0.96710 ,1.66760 ,16.36248 
257 ,47.5151 ,0.96909 ,1.65049 ,16.19458 
258 ,47.6915 ,0.97095 ,1.63338 ,16.02669 
259 ,47.8993 ,0.97295 ,1.61284 ,15.82522 
260 ,48.0753 ,0.97471 ,1.59916 ,15.69091 
261 ,48.2516 ,0.97652 ,1.60258 ,15.72449 
262 ,48.4275 ,0.97831 ,1.58547 ,15.55660 
263 ,48.6038 ,0.98006 ,1.57862 ,15.48944 
264 ,48.7958 ,0.98196 ,1.55467 ,15.25439 
265 ,49.0038 ,0.98389 ,1.54098 ,15.12008 
266 ,49.1961 ,0.98595 ,1.52387 ,14.95219 
267 ,49.3880 ,0.98792 ,1.51702 ,14.88503 
268 ,49.5640 ,0.98961 ,1.49991 ,14.71714 
269 ,49.7402 ,0.99141 ,1.47938 ,14.51567 
270 ,49.9323 ,0.99330 ,1.47938 ,14.51567 
271 ,50.1243 ,0.99515 ,1.48280 ,14.54925 
272 ,50.3004 ,0.99701 ,1.44516 ,14.17989 
273 ,50.4926 ,0.99892 ,1.44858 ,14.21346 
274 ,50.6844 ,1.00079 ,1.42120 ,13.94484 
275 ,50.8607 ,1.00259 ,1.39040 ,13.64263 
276 ,51.0365 ,1.00437 ,1.40067 ,13.74337 
277 ,51.2285 ,1.00630 ,1.38698 ,13.60906 
278 ,51.4046 ,1.00806 ,1.37671 ,13.50832 
279 ,51.5970 ,1.00994 ,1.35960 ,13.34043 
280 ,51.7888 ,1.01185 ,1.35276 ,13.27327 
281 ,51.9651 ,1.01370 ,1.32880 ,13.03822 
282 ,52.1570 ,1.01557 ,1.31512 ,12.90391 
283 ,52.3332 ,1.01733 ,1.30827 ,12.83675 
284 ,52.5251 ,1.01924 ,1.29800 ,12.73602 
285 ,52.7170 ,1.02112 ,1.28774 ,12.63528 
286 ,52.8932 ,1.02297 ,1.26378 ,12.40024 
287 ,53.0851 ,1.02481 ,1.26720 ,12.43381 
288 ,53.2611 ,1.02659 ,1.23641 ,12.13161 
289 ,53.4375 ,1.02839 ,1.22956 ,12.06445 
290 ,53.6457 ,1.03046 ,1.21929 ,11.96372 
291 ,53.8215 ,1.03221 ,1.19192 ,11.69509 
292 ,53.9979 ,1.03395 ,1.19534 ,11.72867 
293 ,54.1739 ,1.03572 ,1.18165 ,11.59436 
294 ,54.3660 ,1.03769 ,1.17823 ,11.56078 
295 ,54.5421 ,1.03938 ,1.15427 ,11.32573 
296 ,54.7180 ,1.04119 ,1.13716 ,11.15784 
297 ,54.8778 ,1.04290 ,1.13716 ,11.15784 
298 ,55.0542 ,1.04451 ,1.12005 ,10.98995 
299 ,55.2463 ,1.04644 ,1.11663 ,10.95637 
300 ,55.4544 ,1.04851 ,1.08583 ,10.65416 
301 ,55.6304 ,1.05029 ,1.08925 ,10.68774 
302 ,55.8226 ,1.05218 ,1.06530 ,10.45270 
303 ,55.9986 ,1.05393 ,1.04476 ,10.25123 
304 ,56.1907 ,1.05582 ,1.04476 ,10.25123 
305 ,56.3668 ,1.05766 ,1.03792 ,10.18407 
306 ,56.5429 ,1.05941 ,1.00370 ,9.84829 
307 ,56.7351 ,1.06136 ,1.01396 ,9.94902 
308 ,56.9110 ,1.06313 ,1.01396 ,9.94902 
309 ,57.1031 ,1.06511 ,0.98317 ,9.64682 
310 ,57.2953 ,1.06690 ,0.97632 ,9.57966 
311 ,57.4713 ,1.06871 ,0.95921 ,9.41177 
312 ,57.6634 ,1.07062 ,0.94552 ,9.27745 
313 ,57.8395 ,1.07238 ,0.91130 ,8.94167 
314 ,58.0152 ,1.07412 ,0.92841 ,9.10956 
315 ,58.2076 ,1.07594 ,0.92157 ,9.04241 
316 ,58.4153 ,1.07804 ,0.90103 ,8.84094 
317 ,58.5920 ,1.07990 ,0.89077 ,8.74020 
318 ,58.7679 ,1.08168 ,0.88050 ,8.63947 
319 ,58.9438 ,1.08345 ,0.86339 ,8.47158 
320 ,59.1198 ,1.08517 ,0.82575 ,8.10221 
321 ,59.2961 ,1.08691 ,0.84286 ,8.27011 
322 ,59.4884 ,1.08884 ,0.81548 ,8.00148 
323 ,59.6802 ,1.09079 ,0.80521 ,7.90074 
324 ,59.8722 ,1.09264 ,0.81206 ,7.96790 
325 ,60.0641 ,1.09452 ,0.80521 ,7.90074 
326 ,60.2404 ,1.09634 ,0.76072 ,7.46423 
327 ,60.4163 ,1.09812 ,0.76757 ,7.53138 
328 ,60.5927 ,1.09990 ,0.76072 ,7.46423 
329 ,60.7846 ,1.10185 ,0.75046 ,7.36349 
330 ,60.9768 ,1.10372 ,0.73677 ,7.22918 
331 ,61.1527 ,1.10553 ,0.72308 ,7.09486 
332 ,61.3287 ,1.10729 ,0.71624 ,7.02771 
333 ,61.5206 ,1.10914 ,0.69913 ,6.85982 
334 ,61.6969 ,1.11088 ,0.68544 ,6.72550 
335 ,61.8731 ,1.11268 ,0.68886 ,6.75908 
336 ,62.0651 ,1.11453 ,0.66148 ,6.49046 
337 ,62.2411 ,1.11639 ,0.64437 ,6.32256 
338 ,62.4174 ,1.11818 ,0.63410 ,6.22183 
339 ,62.6093 ,1.12009 ,0.64437 ,6.32256 
340 ,62.8015 ,1.12203 ,0.60673 ,5.95320 
341 ,62.9773 ,1.12373 ,0.60673 ,5.95320 
342 ,63.1695 ,1.12564 ,0.59988 ,5.88605 
343 ,63.3453 ,1.12742 ,0.57593 ,5.65100 
344 ,63.5217 ,1.12923 ,0.55539 ,5.44953 
345 ,63.7137 ,1.13106 ,0.56224 ,5.51668 
346 ,63.8900 ,1.13283 ,0.55197 ,5.41595 
347 ,64.0820 ,1.13477 ,0.52459 ,5.14732 
348 ,64.2741 ,1.13670 ,0.53828 ,5.28164 
349 ,64.4661 ,1.13854 ,0.50406 ,4.94585 
350 ,64.6423 ,1.14038 ,0.48695 ,4.77796 
351 ,64.8183 ,1.14216 ,0.47326 ,4.64365 
352 ,64.9941 ,1.14389 ,0.49037 ,4.81154 
353 ,65.1701 ,1.14564 ,0.48011 ,4.71081 
354 ,65.3462 ,1.14743 ,0.46300 ,4.54291 
355 ,65.5224 ,1.14915 ,0.44588 ,4.37502 
356 ,65.6985 ,1.15094 ,0.42877 ,4.20713 
357 ,65.8746 ,1.15271 ,0.42877 ,4.20713 
358 ,66.0666 ,1.15452 ,0.41509 ,4.07282 
359 ,66.2588 ,1.15648 ,0.39797 ,3.90493 
360 ,66.4349 ,1.15826 ,0.40482 ,3.97208 
361 ,66.6110 ,1.16004 ,0.39797 ,3.90493 
362 ,66.7872 ,1.16186 ,0.36375 ,3.56914 
363 ,66.9631 ,1.16361 ,0.36033 ,3.53557 
364 ,67.1390 ,1.16529 ,0.35691 ,3.50199 
365 ,67.3152 ,1.16709 ,0.33980 ,3.33410 
366 ,67.5074 ,1.16903 ,0.32611 ,3.19978 
367 ,67.6834 ,1.17083 ,0.30900 ,3.03189 
368 ,67.8754 ,1.17263 ,0.32269 ,3.16620 
369 ,68.0515 ,1.17441 ,0.30558 ,2.99831 
370 ,68.2435 ,1.17642 ,0.30215 ,2.96473 
371 ,68.4199 ,1.17811 ,0.27820 ,2.72969 
372 ,68.6115 ,1.18004 ,0.26793 ,2.62895 
373 ,68.7880 ,1.18183 ,0.26451 ,2.59537 
374 ,68.9962 ,1.18380 ,0.25082 ,2.46106 
375 ,69.1878 ,1.18577 ,0.24055 ,2.36032 
376 ,69.3642 ,1.18756 ,0.22002 ,2.15885 
377 ,69.5400 ,1.18934 ,0.20976 ,2.05812 
378 ,69.7159 ,1.19116 ,0.19264 ,1.89023 
379 ,69.8925 ,1.19285 ,0.19607 ,1.92381 
380 ,70.0685 ,1.19464 ,0.16527 ,1.62160 
381 ,70.2765 ,1.19674 ,0.18238 ,1.78949 
382 ,70.4686 ,1.19855 ,0.14816 ,1.45371 
383 ,70.6606 ,1.20047 ,0.14473 ,1.42013 
384 ,70.8207 ,1.20225 ,0.14131 ,1.38655 
385 ,70.9971 ,1.20387 ,0.13789 ,1.35298 
386 ,71.1889 ,1.20575 ,0.10367 ,1.01719 
387 ,71.3648 ,1.20756 ,0.10025 ,0.98361 
388 ,71.5410 ,1.20933 ,0.08314 ,0.81572 
389 ,71.7331 ,1.21120 ,0.09682 ,0.95004 
390 ,71.9091 ,1.21315 ,0.06602 ,0.64783 
391 ,72.1011 ,1.21489 ,0.06945 ,0.68141 
392 ,72.2772 ,1.21669 ,0.06945 ,0.68141 
393 ,72.4694 ,1.21858 ,0.04549 ,0.44636 
394 ,72.6454 ,1.22034 ,0.02496 ,0.24489 
395 ,72.8376 ,1.22229 ,0.03180 ,0.31205 
396 ,73.0295 ,1.22420 ,0.01127 ,0.11058 
397 ,73.2377 ,1.22623 ,0.00785 ,0.07700 
398 ,73.4297 ,1.22824 ,-0.00926 ,-0.09089 
399 ,73.6060 ,1.23002 ,-0.02295 ,-0.22520 
400 ,73.7979 ,1.23180 ,-0.00926 ,-0.09089 
401 ,73.9899 ,1.23385 ,-0.04006 ,-0.39310 
402 ,74.1660 ,1.23556 ,-0.05033 ,-0.49383 
403 ,74.3582 ,1.23747 ,-0.05033 ,-0.49383 
404 ,74.5342 ,1.23927 ,-0.05033 ,-0.49383 
405 ,74.7264 ,1.24121 ,-0.08113 ,-0.79604 
406 ,74.9184 ,1.24312 ,-0.07086 ,-0.69530 
407 ,75.1103 ,1.24500 ,-0.09140 ,-0.89677 
408 ,75.3025 ,1.24690 ,-0.09482 ,-0.93035 
409 ,75.4784 ,1.24870 ,-0.09824 ,-0.96393 
410 ,75.6707 ,1.25061 ,-0.12562 ,-1.23255 
411 ,75.8949 ,1.25274 ,-0.12219 ,-1.19898 
412 ,76.0708 ,1.25468 ,-0.14957 ,-1.46760 
413 ,76.2470 ,1.25634 ,-0.14615 ,-1.43402 
414 ,76.4227 ,1.25815 ,-0.16326 ,-1.60191 
415 ,76.5991 ,1.25991 ,-0.15984 ,-1.56834 
416 ,76.7913 ,1.26184 ,-0.20090 ,-1.97128 
417 ,76.9672 ,1.26358 ,-0.19748 ,-1.93770 
418 ,77.1273 ,1.26528 ,-0.21117 ,-2.07201 
419 ,77.3034 ,1.26692 ,-0.20090 ,-1.97128 
420 ,77.4956 ,1.26879 ,-0.22144 ,-2.17275 
421 ,77.6713 ,1.27073 ,-0.24197 ,-2.37422 
422 ,77.8476 ,1.27237 ,-0.23855 ,-2.34064 
423 ,78.0394 ,1.27431 ,-0.23513 ,-2.30706 
424 ,78.1996 ,1.27600 ,-0.24539 ,-2.40779 
425 ,78.3757 ,1.27762 ,-0.24539 ,-2.40779 
426 ,78.5518 ,1.27940 ,-0.27277 ,-2.67642 
427 ,78.7279 ,1.28116 ,-0.27619 ,-2.71000 
428 ,78.9040 ,1.28297 ,-0.30357 ,-2.97863 
429 ,79.0960 ,1.28484 ,-0.28646 ,-2.81073 
430 ,79.4323 ,1.28814 ,-0.31041 ,-3.04578 
431 ,79.6243 ,1.29011 ,-0.32410 ,-3.18010 
432 ,79.8164 ,1.29199 ,-0.34121 ,-3.34799 
433 ,80.0085 ,1.29390 ,-0.34806 ,-3.41514 
434 ,80.2005 ,1.29591 ,-0.34806 ,-3.41514 
435 ,80.3766 ,1.29765 ,-0.34464 ,-3.38156 
436 ,80.5687 ,1.29960 ,-0.37544 ,-3.68377 
437 ,80.7608 ,1.30145 ,-0.36175 ,-3.54946 
438 ,80.9529 ,1.30342 ,-0.38912 ,-3.81808 
439 ,81.1286 ,1.30521 ,-0.39939 ,-3.91882 
440 ,81.3047 ,1.30693 ,-0.40623 ,-3.98597 
441 ,81.4810 ,1.30871 ,-0.41308 ,-4.05313 
442 ,81.6572 ,1.31049 ,-0.40623 ,-3.98597 
443 ,81.8652 ,1.31243 ,-0.43703 ,-4.28818 
444 ,82.0413 ,1.31429 ,-0.44046 ,-4.32176 
445 ,82.2013 ,1.31600 ,-0.43703 ,-4.28818 
446 ,82.3771 ,1.31762 ,-0.45072 ,-4.42249 
447 ,82.5696 ,1.31954 ,-0.46783 ,-4.59038 
448 ,82.7616 ,1.32142 ,-0.45757 ,-4.48965 
449 ,82.9372 ,1.32326 ,-0.47468 ,-4.65754 
450 ,83.1132 ,1.32499 ,-0.48494 ,-4.75828 
451 ,83.3053 ,1.32686 ,-0.50548 ,-4.95975 
452 ,83.4814 ,1.32866 ,-0.50890 ,-4.99332 
453 ,83.6415 ,1.33041 ,-0.49863 ,-4.89259 
454 ,83.8501 ,1.33222 ,-0.52943 ,-5.19479 
455 ,84.0582 ,1.33438 ,-0.52943 ,-5.19479 
456 ,84.2343 ,1.33621 ,-0.53285 ,-5.22837 
457 ,84.4102 ,1.33798 ,-0.55681 ,-5.46342 
458 ,84.5702 ,1.33968 ,-0.55339 ,-5.42984 
459 ,84.7463 ,1.34133 ,-0.55339 ,-5.42984 
460 ,84.9222 ,1.34308 ,-0.56023 ,-5.49700 
461 ,85.0985 ,1.34483 ,-0.57050 ,-5.59773 
462 ,85.2906 ,1.34678 ,-0.58761 ,-5.76562 
463 ,85.4667 ,1.34849 ,-0.60472 ,-5.93352 
464 ,85.6747 ,1.35051 ,-0.60130 ,-5.89994 
