Data stamp = , 07-04-2022 18:25:28 516

Calibration Values: 
Slope = , 26.54 , g/V 
Offset Voltage at no contact = , -0.501760 , V 

No , Time , Stage Position ,   Mass , Force 
   ,  (s) ,      (mm)      ,   (g)  , (mN)  

1 ,0.0000 ,0.49939 ,5.22323 ,51.25033 
2 ,0.2014 ,0.49948 ,5.23350 ,51.35107 
3 ,0.6820 ,0.50079 ,5.22323 ,51.25033 
4 ,0.8900 ,0.50305 ,5.21639 ,51.18317 
5 ,1.0661 ,0.50487 ,5.20954 ,51.11602 
6 ,1.2581 ,0.50668 ,5.24034 ,51.41822 
7 ,1.4503 ,0.50860 ,5.21981 ,51.21675 
8 ,1.6261 ,0.51044 ,5.21296 ,51.14960 
9 ,1.8342 ,0.51240 ,5.20612 ,51.08244 
10 ,2.0263 ,0.51440 ,5.18216 ,50.84739 
11 ,2.2187 ,0.51635 ,5.18216 ,50.84739 
12 ,2.4105 ,0.51823 ,5.14452 ,50.47803 
13 ,2.6028 ,0.52022 ,5.14110 ,50.44445 
14 ,2.7627 ,0.52192 ,5.14110 ,50.44445 
15 ,2.9389 ,0.52355 ,5.13083 ,50.34372 
16 ,3.1148 ,0.52530 ,5.10345 ,50.07509 
17 ,3.3070 ,0.52720 ,5.07265 ,49.77289 
18 ,3.4992 ,0.52905 ,5.05897 ,49.63857 
19 ,3.6752 ,0.53093 ,5.05554 ,49.60499 
20 ,3.8671 ,0.53285 ,5.02474 ,49.30279 
21 ,4.0593 ,0.53473 ,5.01790 ,49.23563 
22 ,4.2354 ,0.53647 ,5.00763 ,49.13490 
23 ,4.4433 ,0.53846 ,4.97683 ,48.83269 
24 ,4.6193 ,0.54035 ,4.96315 ,48.69838 
25 ,4.8114 ,0.54227 ,4.94603 ,48.53049 
26 ,5.0038 ,0.54413 ,4.91866 ,48.26186 
27 ,5.2118 ,0.54628 ,4.89812 ,48.06039 
28 ,5.4036 ,0.54813 ,4.88786 ,47.95966 
29 ,5.5800 ,0.54992 ,4.88786 ,47.95966 
30 ,5.7720 ,0.55183 ,4.84679 ,47.55672 
31 ,5.9638 ,0.55370 ,4.82284 ,47.32167 
32 ,6.1402 ,0.55552 ,4.82968 ,47.38883 
33 ,6.3325 ,0.55744 ,4.79888 ,47.08662 
34 ,6.5403 ,0.55954 ,4.79546 ,47.05304 
35 ,6.7163 ,0.56128 ,4.76808 ,46.78442 
36 ,6.8764 ,0.56302 ,4.75782 ,46.68368 
37 ,7.0522 ,0.56466 ,4.72702 ,46.38148 
38 ,7.2284 ,0.56646 ,4.70648 ,46.18001 
39 ,7.4206 ,0.56832 ,4.71675 ,46.28074 
40 ,7.6127 ,0.57024 ,4.67911 ,45.91138 
41 ,7.8047 ,0.57219 ,4.65173 ,45.64275 
42 ,7.9967 ,0.57413 ,4.66542 ,45.77707 
43 ,8.1889 ,0.57594 ,4.63804 ,45.50844 
44 ,8.3810 ,0.57785 ,4.61751 ,45.30697 
45 ,8.5569 ,0.57971 ,4.62093 ,45.34055 
46 ,8.7493 ,0.58167 ,4.57644 ,44.90403 
47 ,8.9412 ,0.58349 ,4.58671 ,45.00477 
48 ,9.1333 ,0.58544 ,4.56617 ,44.80330 
49 ,9.3254 ,0.58735 ,4.54222 ,44.56825 
50 ,9.5336 ,0.58932 ,4.52511 ,44.40036 
51 ,9.7096 ,0.59123 ,4.51826 ,44.33320 
52 ,9.8856 ,0.59301 ,4.49773 ,44.13173 
53 ,10.0617 ,0.59477 ,4.50115 ,44.16531 
54 ,10.2539 ,0.59664 ,4.47035 ,43.86310 
55 ,10.4619 ,0.59872 ,4.47035 ,43.86310 
56 ,10.6377 ,0.60051 ,4.44982 ,43.66163 
57 ,10.8301 ,0.60242 ,4.42244 ,43.39301 
58 ,11.0222 ,0.60439 ,4.41560 ,43.32585 
59 ,11.1980 ,0.60614 ,4.41560 ,43.32585 
60 ,11.3742 ,0.60789 ,4.38138 ,42.99007 
61 ,11.5822 ,0.60994 ,4.37111 ,42.88933 
62 ,11.7743 ,0.61191 ,4.35058 ,42.68786 
63 ,11.9665 ,0.61369 ,4.33347 ,42.51997 
64 ,12.1584 ,0.61564 ,4.33347 ,42.51997 
65 ,12.3344 ,0.61746 ,4.31293 ,42.31850 
66 ,12.5107 ,0.61923 ,4.28898 ,42.08345 
67 ,12.6867 ,0.62105 ,4.26502 ,41.84841 
68 ,12.8629 ,0.62276 ,4.26502 ,41.84841 
69 ,13.0548 ,0.62464 ,4.24449 ,41.64694 
70 ,13.2309 ,0.62640 ,4.22396 ,41.44547 
71 ,13.4550 ,0.62854 ,4.21027 ,41.31115 
72 ,13.6466 ,0.63049 ,4.18631 ,41.07611 
73 ,13.8392 ,0.63248 ,4.19316 ,41.14326 
74 ,14.0151 ,0.63431 ,4.16578 ,40.87464 
75 ,14.1913 ,0.63602 ,4.14183 ,40.63959 
76 ,14.3673 ,0.63781 ,4.11103 ,40.33738 
77 ,14.5593 ,0.63962 ,4.14183 ,40.63959 
78 ,14.7513 ,0.64165 ,4.09391 ,40.16949 
79 ,14.9282 ,0.64345 ,4.07338 ,39.96802 
80 ,15.1197 ,0.64520 ,4.06996 ,39.93444 
81 ,15.3117 ,0.64721 ,4.05627 ,39.80013 
82 ,15.4875 ,0.64901 ,4.04258 ,39.66582 
83 ,15.6638 ,0.65076 ,4.02205 ,39.46435 
84 ,15.8560 ,0.65266 ,4.01863 ,39.43077 
85 ,16.0322 ,0.65444 ,4.00836 ,39.33003 
86 ,16.2081 ,0.65619 ,3.97414 ,38.99425 
87 ,16.4004 ,0.65800 ,3.97414 ,38.99425 
88 ,16.5923 ,0.66003 ,3.96045 ,38.85994 
89 ,16.7685 ,0.66177 ,3.93307 ,38.59131 
90 ,16.9765 ,0.66381 ,3.93307 ,38.59131 
91 ,17.1525 ,0.66565 ,3.91254 ,38.38984 
92 ,17.3444 ,0.66749 ,3.89885 ,38.25553 
93 ,17.5367 ,0.66946 ,3.90227 ,38.28911 
94 ,17.7128 ,0.67120 ,3.86121 ,37.88617 
95 ,17.8889 ,0.67298 ,3.84410 ,37.71828 
96 ,18.0649 ,0.67476 ,3.82356 ,37.51681 
97 ,18.2408 ,0.67650 ,3.82014 ,37.48323 
98 ,18.4337 ,0.67843 ,3.80645 ,37.34891 
99 ,18.6250 ,0.68031 ,3.79619 ,37.24818 
100 ,18.8013 ,0.68211 ,3.76881 ,36.97955 
101 ,18.9933 ,0.68407 ,3.77223 ,37.01313 
102 ,19.1852 ,0.68588 ,3.74828 ,36.77808 
103 ,19.3774 ,0.68781 ,3.74828 ,36.77808 
104 ,19.5533 ,0.68967 ,3.72432 ,36.54303 
105 ,19.7292 ,0.69141 ,3.71405 ,36.44230 
106 ,19.9057 ,0.69314 ,3.68668 ,36.17367 
107 ,20.0978 ,0.69502 ,3.69010 ,36.20725 
108 ,20.2738 ,0.69681 ,3.67299 ,36.03936 
109 ,20.4499 ,0.69859 ,3.65246 ,35.83789 
110 ,20.6260 ,0.70034 ,3.64561 ,35.77073 
111 ,20.8017 ,0.70209 ,3.63877 ,35.70358 
112 ,20.9782 ,0.70387 ,3.60797 ,35.40137 
113 ,21.1703 ,0.70582 ,3.59428 ,35.26706 
114 ,21.3622 ,0.70767 ,3.58059 ,35.13275 
115 ,21.5383 ,0.70951 ,3.58059 ,35.13275 
116 ,21.7306 ,0.71139 ,3.54637 ,34.79696 
117 ,21.9224 ,0.71337 ,3.53610 ,34.69623 
118 ,22.0982 ,0.71506 ,3.53952 ,34.72981 
119 ,22.2746 ,0.71683 ,3.51215 ,34.46118 
120 ,22.4825 ,0.71888 ,3.48819 ,34.22613 
121 ,22.6582 ,0.72070 ,3.49161 ,34.25971 
122 ,22.8507 ,0.72260 ,3.45397 ,33.89035 
123 ,23.0590 ,0.72459 ,3.46081 ,33.95751 
124 ,23.2507 ,0.72658 ,3.43686 ,33.72246 
125 ,23.4270 ,0.72836 ,3.40264 ,33.38667 
126 ,23.6033 ,0.73013 ,3.40948 ,33.45383 
127 ,23.7794 ,0.73184 ,3.40264 ,33.38667 
128 ,23.9549 ,0.73365 ,3.39237 ,33.28594 
129 ,24.1315 ,0.73541 ,3.35815 ,32.95016 
130 ,24.3395 ,0.73741 ,3.35815 ,32.95016 
131 ,24.5317 ,0.73937 ,3.32393 ,32.61437 
132 ,24.7077 ,0.74118 ,3.30682 ,32.44648 
133 ,24.8836 ,0.74287 ,3.30682 ,32.44648 
134 ,25.0593 ,0.74467 ,3.30339 ,32.41290 
135 ,25.2356 ,0.74647 ,3.28628 ,32.24501 
136 ,25.4115 ,0.74825 ,3.24864 ,31.87565 
137 ,25.5875 ,0.74994 ,3.24180 ,31.80849 
138 ,25.7636 ,0.75181 ,3.24864 ,31.87565 
139 ,25.9396 ,0.75348 ,3.22811 ,31.67418 
140 ,26.1319 ,0.75532 ,3.21784 ,31.57345 
141 ,26.3083 ,0.75720 ,3.19046 ,31.30482 
142 ,26.5163 ,0.75923 ,3.19046 ,31.30482 
143 ,26.6924 ,0.76096 ,3.16651 ,31.06977 
144 ,26.8685 ,0.76280 ,3.15282 ,30.93546 
145 ,27.0444 ,0.76453 ,3.14940 ,30.90188 
146 ,27.2203 ,0.76630 ,3.13229 ,30.73399 
147 ,27.3968 ,0.76802 ,3.13571 ,30.76757 
148 ,27.5729 ,0.76979 ,3.10833 ,30.49894 
149 ,27.7810 ,0.77183 ,3.10833 ,30.49894 
150 ,27.9730 ,0.77374 ,3.06042 ,30.02884 
151 ,28.1489 ,0.77559 ,3.06042 ,30.02884 
152 ,28.3411 ,0.77745 ,3.02962 ,29.72664 
153 ,28.5172 ,0.77922 ,3.04673 ,29.89453 
154 ,28.6929 ,0.78106 ,3.00224 ,29.45801 
155 ,28.8695 ,0.78277 ,2.99540 ,29.39086 
156 ,29.0774 ,0.78473 ,2.99540 ,29.39086 
157 ,29.2695 ,0.78672 ,2.95776 ,29.02150 
158 ,29.4613 ,0.78867 ,2.95433 ,28.98792 
159 ,29.6697 ,0.79061 ,2.93722 ,28.82003 
160 ,29.8618 ,0.79259 ,2.94407 ,28.88718 
161 ,30.0379 ,0.79447 ,2.92353 ,28.68571 
162 ,30.2457 ,0.79636 ,2.89958 ,28.45066 
163 ,30.4217 ,0.79833 ,2.88931 ,28.34993 
164 ,30.5979 ,0.80004 ,2.89616 ,28.41709 
165 ,30.7901 ,0.80199 ,2.85167 ,27.98057 
166 ,30.9662 ,0.80370 ,2.84140 ,27.87983 
167 ,31.1743 ,0.80571 ,2.81745 ,27.64479 
168 ,31.3660 ,0.80769 ,2.81402 ,27.61121 
169 ,31.5421 ,0.80942 ,2.81060 ,27.57763 
170 ,31.7181 ,0.81123 ,2.79691 ,27.44332 
171 ,31.9106 ,0.81301 ,2.78322 ,27.30900 
172 ,32.1186 ,0.81515 ,2.76611 ,27.14111 
173 ,32.2945 ,0.81705 ,2.74900 ,26.97322 
174 ,32.4868 ,0.81890 ,2.73189 ,26.80533 
175 ,32.6789 ,0.82078 ,2.72163 ,26.70459 
176 ,32.8868 ,0.82282 ,2.69425 ,26.43597 
177 ,33.0630 ,0.82470 ,2.68056 ,26.30165 
178 ,33.2390 ,0.82645 ,2.68740 ,26.36881 
179 ,33.4148 ,0.82821 ,2.66687 ,26.16734 
180 ,33.5910 ,0.82999 ,2.65318 ,26.03303 
181 ,33.7673 ,0.83170 ,2.63607 ,25.86514 
182 ,33.9753 ,0.83372 ,2.62238 ,25.73082 
183 ,34.1514 ,0.83553 ,2.60185 ,25.52935 
184 ,34.3275 ,0.83732 ,2.57789 ,25.29430 
185 ,34.5036 ,0.83907 ,2.57447 ,25.26073 
186 ,34.7116 ,0.84098 ,2.55052 ,25.02568 
187 ,34.8878 ,0.84289 ,2.53683 ,24.89136 
188 ,35.0957 ,0.84493 ,2.53683 ,24.89136 
189 ,35.2879 ,0.84683 ,2.50603 ,24.58916 
190 ,35.4636 ,0.84865 ,2.50261 ,24.55558 
191 ,35.6401 ,0.85043 ,2.49918 ,24.52200 
192 ,35.8323 ,0.85229 ,2.46496 ,24.18622 
193 ,36.0082 ,0.85414 ,2.46496 ,24.18622 
194 ,36.1842 ,0.85588 ,2.45127 ,24.05191 
195 ,36.3761 ,0.85780 ,2.46154 ,24.15264 
196 ,36.5682 ,0.85975 ,2.41705 ,23.71612 
197 ,36.7604 ,0.86159 ,2.42048 ,23.74970 
198 ,36.9525 ,0.86353 ,2.39310 ,23.48108 
199 ,37.1603 ,0.86558 ,2.38968 ,23.44750 
200 ,37.3368 ,0.86735 ,2.37256 ,23.27961 
201 ,37.5287 ,0.86927 ,2.35203 ,23.07814 
202 ,37.7044 ,0.87109 ,2.34177 ,22.97740 
203 ,37.8805 ,0.87292 ,2.32465 ,22.80951 
204 ,38.0571 ,0.87464 ,2.31781 ,22.74235 
205 ,38.2491 ,0.87647 ,2.29728 ,22.54088 
206 ,38.4253 ,0.87828 ,2.29043 ,22.47373 
207 ,38.6013 ,0.88006 ,2.27674 ,22.33941 
208 ,38.7774 ,0.88181 ,2.27674 ,22.33941 
209 ,38.9529 ,0.88354 ,2.26306 ,22.20510 
210 ,39.1296 ,0.88533 ,2.22541 ,21.83574 
211 ,39.3055 ,0.88711 ,2.21857 ,21.76858 
212 ,39.4817 ,0.88883 ,2.21172 ,21.70143 
213 ,39.6738 ,0.89077 ,2.20146 ,21.60069 
214 ,39.8657 ,0.89269 ,2.16381 ,21.23133 
215 ,40.0418 ,0.89441 ,2.16381 ,21.23133 
216 ,40.2179 ,0.89622 ,2.16723 ,21.26491 
217 ,40.4100 ,0.89810 ,2.12959 ,20.89555 
218 ,40.6020 ,0.89998 ,2.13986 ,20.99628 
219 ,40.8102 ,0.90208 ,2.10906 ,20.69408 
220 ,41.0178 ,0.90411 ,2.10564 ,20.66050 
221 ,41.1942 ,0.90600 ,2.09879 ,20.59334 
222 ,41.3861 ,0.90784 ,2.06457 ,20.25756 
223 ,41.5622 ,0.90965 ,2.07484 ,20.35829 
224 ,41.7543 ,0.91154 ,2.04404 ,20.05609 
225 ,41.9311 ,0.91333 ,2.02693 ,19.88820 
226 ,42.1066 ,0.91513 ,2.00297 ,19.65315 
227 ,42.2985 ,0.91692 ,2.01324 ,19.75388 
228 ,42.4907 ,0.91886 ,1.98928 ,19.51884 
229 ,42.6669 ,0.92072 ,1.97559 ,19.38452 
230 ,42.8430 ,0.92246 ,1.95506 ,19.18305 
231 ,43.0191 ,0.92421 ,1.95506 ,19.18305 
232 ,43.2107 ,0.92601 ,1.93453 ,18.98158 
233 ,43.3872 ,0.92789 ,1.91742 ,18.81369 
234 ,43.5793 ,0.92973 ,1.92768 ,18.91443 
235 ,43.7553 ,0.93157 ,1.91399 ,18.78011 
236 ,43.9320 ,0.93330 ,1.88662 ,18.51149 
237 ,44.1393 ,0.93530 ,1.86951 ,18.34360 
238 ,44.3152 ,0.93715 ,1.86608 ,18.31002 
239 ,44.4914 ,0.93893 ,1.84213 ,18.07497 
240 ,44.6836 ,0.94082 ,1.83528 ,18.00781 
241 ,44.8596 ,0.94263 ,1.82502 ,17.90708 
242 ,45.0519 ,0.94454 ,1.80791 ,17.73919 
243 ,45.2438 ,0.94636 ,1.79080 ,17.57129 
244 ,45.4365 ,0.94834 ,1.79422 ,17.60487 
245 ,45.6279 ,0.95030 ,1.75315 ,17.20193 
246 ,45.8038 ,0.95203 ,1.74973 ,17.16836 
247 ,45.9803 ,0.95378 ,1.77026 ,17.36983 
248 ,46.1563 ,0.95554 ,1.74631 ,17.13478 
249 ,46.3482 ,0.95750 ,1.71209 ,16.79899 
250 ,46.5405 ,0.95933 ,1.70866 ,16.76542 
251 ,46.7323 ,0.96126 ,1.69498 ,16.63110 
252 ,46.9087 ,0.96311 ,1.67786 ,16.46321 
253 ,47.1008 ,0.96503 ,1.67102 ,16.39605 
254 ,47.2928 ,0.96686 ,1.64364 ,16.12743 
255 ,47.4686 ,0.96863 ,1.62995 ,15.99311 
256 ,47.6605 ,0.97056 ,1.62995 ,15.99311 
257 ,47.8525 ,0.97244 ,1.60942 ,15.79164 
258 ,48.0286 ,0.97427 ,1.59573 ,15.65733 
259 ,48.2052 ,0.97604 ,1.58889 ,15.59018 
260 ,48.4299 ,0.97827 ,1.55124 ,15.22081 
261 ,48.6214 ,0.98018 ,1.55467 ,15.25439 
262 ,48.7975 ,0.98190 ,1.56151 ,15.32155 
263 ,49.0054 ,0.98392 ,1.52387 ,14.95219 
264 ,49.1654 ,0.98575 ,1.53071 ,15.01934 
265 ,49.3417 ,0.98741 ,1.51018 ,14.81787 
266 ,49.5174 ,0.98918 ,1.50676 ,14.78430 
267 ,49.6938 ,0.99088 ,1.48280 ,14.54925 
268 ,49.8857 ,0.99283 ,1.47596 ,14.48209 
269 ,50.0780 ,0.99477 ,1.47596 ,14.48209 
270 ,50.2699 ,0.99665 ,1.43489 ,14.07915 
271 ,50.4622 ,0.99857 ,1.44174 ,14.14631 
272 ,50.6381 ,1.00041 ,1.43147 ,14.04557 
273 ,50.8303 ,1.00226 ,1.39725 ,13.70979 
274 ,51.0064 ,1.00407 ,1.38698 ,13.60906 
275 ,51.2144 ,1.00603 ,1.38014 ,13.54190 
276 ,51.3905 ,1.00789 ,1.36303 ,13.37401 
277 ,51.5666 ,1.00966 ,1.35960 ,13.34043 
278 ,51.7424 ,1.01141 ,1.35276 ,13.27327 
279 ,51.9352 ,1.01323 ,1.35276 ,13.27327 
280 ,52.1268 ,1.01530 ,1.33223 ,13.07180 
281 ,52.3028 ,1.01697 ,1.30827 ,12.83675 
282 ,52.4789 ,1.01874 ,1.29458 ,12.70244 
283 ,52.6547 ,1.02054 ,1.28774 ,12.63528 
284 ,52.8308 ,1.02234 ,1.28432 ,12.60171 
285 ,53.0072 ,1.02406 ,1.26720 ,12.43381 
286 ,53.1831 ,1.02577 ,1.25352 ,12.29950 
287 ,53.3590 ,1.02755 ,1.25009 ,12.26592 
288 ,53.5511 ,1.02944 ,1.22272 ,11.99730 
289 ,53.7275 ,1.03126 ,1.20561 ,11.82941 
290 ,53.9195 ,1.03309 ,1.20561 ,11.82941 
291 ,54.0956 ,1.03488 ,1.20903 ,11.86298 
292 ,54.3198 ,1.03699 ,1.18165 ,11.59436 
293 ,54.5116 ,1.03902 ,1.15770 ,11.35931 
294 ,54.7035 ,1.04099 ,1.15427 ,11.32573 
295 ,54.8799 ,1.04279 ,1.16454 ,11.42647 
296 ,55.0721 ,1.04466 ,1.12005 ,10.98995 
297 ,55.2480 ,1.04648 ,1.09952 ,10.78848 
298 ,55.4241 ,1.04822 ,1.10979 ,10.88921 
299 ,55.6322 ,1.05013 ,1.08241 ,10.62059 
300 ,55.7923 ,1.05199 ,1.07899 ,10.58701 
301 ,55.9841 ,1.05371 ,1.07899 ,10.58701 
302 ,56.1604 ,1.05559 ,1.06530 ,10.45270 
303 ,56.3525 ,1.05750 ,1.04476 ,10.25123 
304 ,56.5603 ,1.05938 ,1.03450 ,10.15049 
305 ,56.7366 ,1.06128 ,1.01739 ,9.98260 
306 ,56.9128 ,1.06307 ,1.00712 ,9.88186 
307 ,57.1047 ,1.06496 ,0.99001 ,9.71397 
308 ,57.2809 ,1.06677 ,0.99685 ,9.78113 
309 ,57.4729 ,1.06859 ,0.97974 ,9.61324 
310 ,57.6491 ,1.07047 ,0.95921 ,9.41177 
311 ,57.8411 ,1.07237 ,0.95921 ,9.41177 
312 ,58.0173 ,1.07409 ,0.93868 ,9.21030 
313 ,58.2252 ,1.07616 ,0.93183 ,9.14314 
314 ,58.4173 ,1.07804 ,0.91130 ,8.94167 
315 ,58.5935 ,1.07987 ,0.89761 ,8.80736 
316 ,59.0417 ,1.08312 ,0.88734 ,8.70662 
317 ,59.2334 ,1.08626 ,0.84628 ,8.30368 
318 ,59.4097 ,1.08801 ,0.83601 ,8.20295 
319 ,59.5859 ,1.08984 ,0.82575 ,8.10221 
320 ,59.7940 ,1.09180 ,0.83943 ,8.23653 
321 ,59.9860 ,1.09378 ,0.81890 ,8.03506 
322 ,60.1781 ,1.09566 ,0.81206 ,7.96790 
323 ,60.3697 ,1.09757 ,0.77441 ,7.59854 
324 ,60.5459 ,1.09939 ,0.76415 ,7.49780 
325 ,60.7219 ,1.10115 ,0.75730 ,7.43065 
326 ,60.9139 ,1.10298 ,0.75730 ,7.43065 
327 ,61.0900 ,1.10484 ,0.74019 ,7.26276 
328 ,61.2661 ,1.10659 ,0.72992 ,7.16202 
329 ,61.4420 ,1.10841 ,0.71281 ,6.99413 
330 ,61.6182 ,1.11012 ,0.72992 ,7.16202 
331 ,61.8266 ,1.11209 ,0.70255 ,6.89340 
332 ,62.0188 ,1.11414 ,0.70939 ,6.96055 
333 ,62.2265 ,1.11605 ,0.67517 ,6.62477 
334 ,62.4189 ,1.11806 ,0.66490 ,6.52403 
335 ,62.5949 ,1.11985 ,0.64779 ,6.35614 
336 ,62.7714 ,1.12165 ,0.63753 ,6.25541 
337 ,62.9629 ,1.12354 ,0.63410 ,6.22183 
338 ,63.1393 ,1.12535 ,0.63410 ,6.22183 
339 ,63.3312 ,1.12720 ,0.59304 ,5.81889 
340 ,63.5073 ,1.12902 ,0.58277 ,5.71815 
341 ,63.6834 ,1.13076 ,0.58619 ,5.75173 
342 ,63.8754 ,1.13265 ,0.56908 ,5.58384 
343 ,64.0516 ,1.13442 ,0.55197 ,5.41595 
344 ,64.2436 ,1.13637 ,0.54855 ,5.38237 
345 ,64.4357 ,1.13821 ,0.52459 ,5.14732 
346 ,64.6118 ,1.14001 ,0.52117 ,5.11375 
347 ,64.8038 ,1.14186 ,0.52459 ,5.14732 
348 ,64.9795 ,1.14372 ,0.51775 ,5.08017 
349 ,65.1561 ,1.14545 ,0.50748 ,4.97943 
350 ,65.3481 ,1.14732 ,0.49037 ,4.81154 
351 ,65.5401 ,1.14921 ,0.47668 ,4.67723 
352 ,65.7324 ,1.15122 ,0.44931 ,4.40860 
353 ,65.9403 ,1.15325 ,0.45957 ,4.50934 
354 ,66.1165 ,1.15505 ,0.44931 ,4.40860 
355 ,66.3085 ,1.15701 ,0.41166 ,4.03924 
356 ,66.5007 ,1.15883 ,0.42535 ,4.17355 
357 ,66.6927 ,1.16080 ,0.39797 ,3.90493 
358 ,66.8686 ,1.16262 ,0.38429 ,3.77061 
359 ,67.0608 ,1.16456 ,0.40140 ,3.93850 
360 ,67.2688 ,1.16645 ,0.36033 ,3.53557 
361 ,67.4610 ,1.16849 ,0.37402 ,3.66988 
362 ,67.6371 ,1.17030 ,0.36718 ,3.60272 
363 ,67.8292 ,1.17212 ,0.35691 ,3.50199 
364 ,68.0210 ,1.17409 ,0.34322 ,3.36767 
365 ,68.1972 ,1.17587 ,0.31242 ,3.06547 
366 ,68.3734 ,1.17762 ,0.31242 ,3.06547 
367 ,68.5655 ,1.17950 ,0.30900 ,3.03189 
368 ,68.7733 ,1.18151 ,0.28847 ,2.83042 
369 ,68.9495 ,1.18346 ,0.27478 ,2.69611 
370 ,69.1416 ,1.18530 ,0.28504 ,2.79684 
371 ,69.3177 ,1.18705 ,0.25767 ,2.52822 
372 ,69.4939 ,1.18888 ,0.24740 ,2.42748 
373 ,69.6860 ,1.19075 ,0.25082 ,2.46106 
374 ,69.8937 ,1.19270 ,0.21660 ,2.12528 
375 ,70.0701 ,1.19460 ,0.20976 ,2.05812 
376 ,70.2463 ,1.19641 ,0.20633 ,2.02454 
377 ,70.4222 ,1.19817 ,0.20633 ,2.02454 
378 ,70.6142 ,1.20001 ,0.17896 ,1.75592 
379 ,70.7903 ,1.20178 ,0.16869 ,1.65518 
380 ,70.9661 ,1.20356 ,0.17553 ,1.72234 
381 ,71.1426 ,1.20537 ,0.15842 ,1.55445 
382 ,71.3186 ,1.20709 ,0.15500 ,1.52087 
383 ,71.4944 ,1.20882 ,0.14131 ,1.38655 
384 ,71.6868 ,1.21072 ,0.13447 ,1.31940 
385 ,71.8625 ,1.21253 ,0.12762 ,1.25224 
386 ,72.0385 ,1.21442 ,0.09682 ,0.95004 
387 ,72.2149 ,1.21605 ,0.08998 ,0.88288 
388 ,72.3910 ,1.21780 ,0.08314 ,0.81572 
389 ,72.5671 ,1.21958 ,0.07287 ,0.71499 
390 ,72.7591 ,1.22150 ,0.07629 ,0.74857 
391 ,72.9509 ,1.22340 ,0.05234 ,0.51352 
392 ,73.1268 ,1.22515 ,0.05234 ,0.51352 
393 ,73.3031 ,1.22691 ,0.04549 ,0.44636 
394 ,73.4794 ,1.22869 ,0.05234 ,0.51352 
395 ,73.6715 ,1.23048 ,0.02154 ,0.21131 
396 ,73.8795 ,1.23258 ,0.01811 ,0.17773 
397 ,74.0877 ,1.23470 ,-0.00242 ,-0.02373 
398 ,74.2637 ,1.23650 ,0.01127 ,0.11058 
399 ,74.4558 ,1.23840 ,-0.01269 ,-0.12447 
400 ,74.6319 ,1.24018 ,-0.03664 ,-0.35952 
401 ,74.8079 ,1.24195 ,-0.04006 ,-0.39310 
402 ,75.0001 ,1.24372 ,-0.04006 ,-0.39310 
403 ,75.2077 ,1.24588 ,-0.05375 ,-0.52741 
404 ,75.3843 ,1.24771 ,-0.06402 ,-0.62814 
405 ,75.5763 ,1.24964 ,-0.06744 ,-0.66172 
406 ,75.7522 ,1.25143 ,-0.08113 ,-0.79604 
407 ,75.9444 ,1.25328 ,-0.07428 ,-0.72888 
408 ,76.1365 ,1.25517 ,-0.10851 ,-1.06466 
409 ,76.3122 ,1.25700 ,-0.12562 ,-1.23255 
410 ,76.4886 ,1.25879 ,-0.12562 ,-1.23255 
411 ,76.6808 ,1.26068 ,-0.12219 ,-1.19898 
412 ,76.8567 ,1.26249 ,-0.13588 ,-1.33329 
413 ,77.0489 ,1.26427 ,-0.14957 ,-1.46760 
414 ,77.2409 ,1.26622 ,-0.15299 ,-1.50118 
415 ,77.4330 ,1.26816 ,-0.18722 ,-1.83696 
416 ,77.6252 ,1.27009 ,-0.16668 ,-1.63549 
417 ,77.8173 ,1.27199 ,-0.18722 ,-1.83696 
418 ,77.9933 ,1.27382 ,-0.21459 ,-2.10559 
419 ,78.1853 ,1.27570 ,-0.20775 ,-2.03843 
420 ,78.3613 ,1.27747 ,-0.21459 ,-2.10559 
421 ,78.5533 ,1.27937 ,-0.22144 ,-2.17275 
422 ,78.7611 ,1.28142 ,-0.22828 ,-2.23990 
423 ,78.9382 ,1.28325 ,-0.24539 ,-2.40779 
424 ,79.1297 ,1.28523 ,-0.25224 ,-2.47495 
425 ,79.3058 ,1.28691 ,-0.27277 ,-2.67642 
426 ,79.4816 ,1.28868 ,-0.26250 ,-2.57569 
427 ,79.6740 ,1.29056 ,-0.27961 ,-2.74358 
428 ,79.8660 ,1.29252 ,-0.30699 ,-3.01220 
429 ,80.0582 ,1.29447 ,-0.28988 ,-2.84431 
430 ,80.2343 ,1.29620 ,-0.31041 ,-3.04578 
431 ,80.4103 ,1.29801 ,-0.33437 ,-3.28083 
432 ,80.6023 ,1.29985 ,-0.32410 ,-3.18010 
433 ,80.7784 ,1.30161 ,-0.33779 ,-3.31441 
434 ,80.9544 ,1.30336 ,-0.34464 ,-3.38156 
435 ,81.1465 ,1.30524 ,-0.36175 ,-3.54946 
436 ,81.3388 ,1.30714 ,-0.34806 ,-3.41514 
437 ,81.5305 ,1.30910 ,-0.38228 ,-3.75093 
438 ,81.7068 ,1.31091 ,-0.40623 ,-3.98597 
439 ,81.8988 ,1.31288 ,-0.37886 ,-3.71735 
440 ,82.0749 ,1.31461 ,-0.39255 ,-3.85166 
441 ,82.2830 ,1.31668 ,-0.40623 ,-3.98597 
442 ,82.4751 ,1.31856 ,-0.41308 ,-4.05313 
443 ,82.6668 ,1.32047 ,-0.43361 ,-4.25460 
444 ,82.8434 ,1.32227 ,-0.42677 ,-4.18744 
445 ,83.0354 ,1.32419 ,-0.44046 ,-4.32176 
446 ,83.2275 ,1.32607 ,-0.44730 ,-4.38891 
447 ,83.4031 ,1.32786 ,-0.46099 ,-4.52323 
448 ,83.5796 ,1.32960 ,-0.46783 ,-4.59038 
449 ,83.7716 ,1.33161 ,-0.48494 ,-4.75828 
450 ,83.9477 ,1.33333 ,-0.47810 ,-4.69112 
451 ,84.1556 ,1.33538 ,-0.50206 ,-4.92617 
452 ,84.3320 ,1.33718 ,-0.51232 ,-5.02690 
453 ,84.5400 ,1.33920 ,-0.51574 ,-5.06048 
454 ,84.7320 ,1.34108 ,-0.53628 ,-5.26195 
455 ,84.9081 ,1.34296 ,-0.54654 ,-5.36268 
456 ,85.0840 ,1.34470 ,-0.53628 ,-5.26195 
457 ,85.2762 ,1.34662 ,-0.52601 ,-5.16121 
458 ,85.4523 ,1.34849 ,-0.55681 ,-5.46342 
459 ,85.6441 ,1.35025 ,-0.55681 ,-5.46342 
460 ,85.8202 ,1.35203 ,-0.57392 ,-5.63131 
461 ,86.0126 ,1.35389 ,-0.57050 ,-5.59773 
462 ,86.2045 ,1.35589 ,-0.58419 ,-5.73205 
463 ,86.3808 ,1.35767 ,-0.60130 ,-5.89994 
464 ,86.5729 ,1.35954 ,-0.61841 ,-6.06783 
