Data stamp = , 07-04-2022 11:17:37 635

Calibration Values: 
Slope = , 26.54 , g/V 
Offset Voltage at no contact = , -0.501760 , V 

No , Time , Stage Position ,   Mass , Force 
   ,  (s) ,      (mm)      ,   (g)  , (mN)  

1 ,0.0000 ,0.49939 ,5.12741 ,50.31014 
2 ,0.2039 ,0.49948 ,5.11714 ,50.20940 
3 ,0.4279 ,0.50003 ,5.12399 ,50.27656 
4 ,0.6197 ,0.50103 ,5.13083 ,50.34372 
5 ,0.7961 ,0.50229 ,5.13768 ,50.41087 
6 ,0.9723 ,0.50392 ,5.13425 ,50.37729 
7 ,1.1639 ,0.50579 ,5.11372 ,50.17583 
8 ,1.3400 ,0.50754 ,5.13425 ,50.37729 
9 ,1.5163 ,0.50928 ,5.14110 ,50.44445 
10 ,1.6924 ,0.51106 ,5.13083 ,50.34372 
11 ,1.9006 ,0.51305 ,5.12399 ,50.27656 
12 ,2.0927 ,0.51506 ,5.10003 ,50.04151 
13 ,2.2846 ,0.51701 ,5.07950 ,49.84004 
14 ,2.4769 ,0.51883 ,5.07265 ,49.77289 
15 ,2.6686 ,0.52084 ,5.06239 ,49.67215 
16 ,2.8450 ,0.52261 ,5.02474 ,49.30279 
17 ,3.0370 ,0.52457 ,5.02474 ,49.30279 
18 ,3.2131 ,0.52632 ,5.01448 ,49.20205 
19 ,3.3892 ,0.52801 ,4.98368 ,48.89985 
20 ,3.5813 ,0.52998 ,4.98026 ,48.86627 
21 ,3.7735 ,0.53188 ,4.96999 ,48.76554 
22 ,3.9493 ,0.53361 ,4.93577 ,48.42975 
23 ,4.1254 ,0.53539 ,4.91866 ,48.26186 
24 ,4.3016 ,0.53721 ,4.91181 ,48.19471 
25 ,4.4937 ,0.53912 ,4.90155 ,48.09397 
26 ,4.6857 ,0.54103 ,4.86048 ,47.69103 
27 ,4.8615 ,0.54278 ,4.85021 ,47.59030 
28 ,5.0378 ,0.54451 ,4.85364 ,47.62387 
29 ,5.2620 ,0.54661 ,4.83652 ,47.45598 
30 ,5.4703 ,0.54874 ,4.81599 ,47.25451 
31 ,5.6460 ,0.55065 ,4.79888 ,47.08662 
32 ,5.8223 ,0.55240 ,4.78519 ,46.95231 
33 ,5.9979 ,0.55412 ,4.76808 ,46.78442 
34 ,6.1904 ,0.55600 ,4.73386 ,46.44863 
35 ,6.3664 ,0.55788 ,4.73386 ,46.44863 
36 ,6.5425 ,0.55960 ,4.71333 ,46.24716 
37 ,6.7344 ,0.56149 ,4.71675 ,46.28074 
38 ,6.9107 ,0.56321 ,4.68937 ,46.01212 
39 ,7.1027 ,0.56517 ,4.66542 ,45.77707 
40 ,7.2949 ,0.56709 ,4.65857 ,45.70991 
41 ,7.4709 ,0.56888 ,4.64146 ,45.54202 
42 ,7.6470 ,0.57060 ,4.59697 ,45.10550 
43 ,7.8389 ,0.57254 ,4.61408 ,45.27339 
44 ,8.0149 ,0.57429 ,4.59697 ,45.10550 
45 ,8.1907 ,0.57604 ,4.58671 ,45.00477 
46 ,8.3667 ,0.57789 ,4.55933 ,44.73614 
47 ,8.5428 ,0.57954 ,4.53537 ,44.50109 
48 ,8.7191 ,0.58136 ,4.53880 ,44.53467 
49 ,8.9274 ,0.58336 ,4.52511 ,44.40036 
50 ,9.1192 ,0.58537 ,4.50457 ,44.19889 
51 ,9.2956 ,0.58707 ,4.49089 ,44.06457 
52 ,9.4717 ,0.58882 ,4.47378 ,43.89668 
53 ,9.6478 ,0.59066 ,4.44982 ,43.66163 
54 ,9.8717 ,0.59264 ,4.43955 ,43.56090 
55 ,10.0641 ,0.59476 ,4.41902 ,43.35943 
56 ,10.2399 ,0.59658 ,4.41902 ,43.35943 
57 ,10.4321 ,0.59843 ,4.38480 ,43.02365 
58 ,10.6080 ,0.60022 ,4.37111 ,42.88933 
59 ,10.8002 ,0.60209 ,4.36769 ,42.85576 
60 ,10.9763 ,0.60389 ,4.35742 ,42.75502 
61 ,11.1524 ,0.60567 ,4.35058 ,42.68786 
62 ,11.3445 ,0.60752 ,4.30951 ,42.28492 
63 ,11.5364 ,0.60954 ,4.31636 ,42.35208 
64 ,11.7606 ,0.61156 ,4.29582 ,42.15061 
65 ,11.9687 ,0.61372 ,4.27187 ,41.91556 
66 ,12.1606 ,0.61576 ,4.26160 ,41.81483 
67 ,12.3367 ,0.61745 ,4.25133 ,41.71409 
68 ,12.5287 ,0.61933 ,4.23422 ,41.54620 
69 ,12.7207 ,0.62133 ,4.20000 ,41.21042 
70 ,12.8970 ,0.62312 ,4.19658 ,41.17684 
71 ,13.0888 ,0.62499 ,4.16920 ,40.90821 
72 ,13.2651 ,0.62678 ,4.15551 ,40.77390 
73 ,13.4412 ,0.62854 ,4.13840 ,40.60601 
74 ,13.6333 ,0.63033 ,4.13840 ,40.60601 
75 ,13.8093 ,0.63219 ,4.12129 ,40.43812 
76 ,13.9855 ,0.63401 ,4.09734 ,40.20307 
77 ,14.1773 ,0.63584 ,4.09049 ,40.13591 
78 ,14.3535 ,0.63762 ,4.08365 ,40.06876 
79 ,14.5296 ,0.63944 ,4.05969 ,39.83371 
80 ,14.7219 ,0.64132 ,4.04943 ,39.73297 
81 ,14.9296 ,0.64334 ,4.01863 ,39.43077 
82 ,15.1058 ,0.64514 ,4.00152 ,39.26288 
83 ,15.2821 ,0.64697 ,3.99809 ,39.22930 
84 ,15.4578 ,0.64869 ,3.98783 ,39.12856 
85 ,15.6342 ,0.65048 ,3.98441 ,39.09499 
86 ,15.8262 ,0.65239 ,3.94676 ,38.72562 
87 ,16.0023 ,0.65417 ,3.94676 ,38.72562 
88 ,16.1943 ,0.65603 ,3.92965 ,38.55773 
89 ,16.3703 ,0.65782 ,3.92281 ,38.49058 
90 ,16.5301 ,0.65953 ,3.88516 ,38.12122 
91 ,16.7065 ,0.66118 ,3.88174 ,38.08764 
92 ,16.8985 ,0.66309 ,3.87832 ,38.05406 
93 ,17.0746 ,0.66484 ,3.87147 ,37.98690 
94 ,17.2508 ,0.66661 ,3.84752 ,37.75185 
95 ,17.4269 ,0.66832 ,3.82356 ,37.51681 
96 ,17.6026 ,0.67008 ,3.80987 ,37.38249 
97 ,17.7951 ,0.67195 ,3.82014 ,37.48323 
98 ,17.9866 ,0.67397 ,3.78592 ,37.14744 
99 ,18.1633 ,0.67574 ,3.77908 ,37.08029 
100 ,18.3712 ,0.67773 ,3.74143 ,36.71093 
101 ,18.5472 ,0.67959 ,3.73117 ,36.61019 
102 ,18.7392 ,0.68141 ,3.73801 ,36.67735 
103 ,18.9313 ,0.68340 ,3.71748 ,36.47588 
104 ,19.1232 ,0.68533 ,3.69352 ,36.24083 
105 ,19.2996 ,0.68706 ,3.67299 ,36.03936 
106 ,19.5075 ,0.68915 ,3.64903 ,35.80431 
107 ,19.6835 ,0.69097 ,3.64903 ,35.80431 
108 ,19.8757 ,0.69282 ,3.65246 ,35.83789 
109 ,20.0519 ,0.69463 ,3.62850 ,35.60284 
110 ,20.2280 ,0.69639 ,3.60454 ,35.36779 
111 ,20.4200 ,0.69830 ,3.58059 ,35.13275 
112 ,20.5961 ,0.70003 ,3.58401 ,35.16632 
113 ,20.7720 ,0.70180 ,3.56006 ,34.93128 
114 ,20.9803 ,0.70381 ,3.54979 ,34.83054 
115 ,21.1724 ,0.70585 ,3.53268 ,34.66265 
116 ,21.3644 ,0.70775 ,3.50188 ,34.36045 
117 ,21.5404 ,0.70955 ,3.49504 ,34.29329 
118 ,21.7324 ,0.71143 ,3.49161 ,34.25971 
119 ,21.9085 ,0.71312 ,3.45739 ,33.92393 
120 ,22.0847 ,0.71493 ,3.45739 ,33.92393 
121 ,22.2604 ,0.71672 ,3.43344 ,33.68888 
122 ,22.4365 ,0.71840 ,3.43344 ,33.68888 
123 ,22.6125 ,0.72018 ,3.41633 ,33.52099 
124 ,22.8048 ,0.72215 ,3.40606 ,33.42025 
125 ,22.9968 ,0.72403 ,3.40264 ,33.38667 
126 ,23.2210 ,0.72618 ,3.36157 ,32.98374 
127 ,23.3969 ,0.72802 ,3.36499 ,33.01731 
128 ,23.5732 ,0.72981 ,3.34788 ,32.84942 
129 ,23.7493 ,0.73155 ,3.33419 ,32.71511 
130 ,23.9254 ,0.73335 ,3.31024 ,32.48006 
131 ,24.1175 ,0.73519 ,3.30339 ,32.41290 
132 ,24.3094 ,0.73717 ,3.29313 ,32.31217 
133 ,24.5016 ,0.73902 ,3.27259 ,32.11070 
134 ,24.6938 ,0.74104 ,3.26233 ,32.00996 
135 ,24.8857 ,0.74296 ,3.23495 ,31.74134 
136 ,25.0778 ,0.74481 ,3.23495 ,31.74134 
137 ,25.2702 ,0.74678 ,3.21784 ,31.57345 
138 ,25.4460 ,0.74856 ,3.19388 ,31.33840 
139 ,25.6220 ,0.75028 ,3.18362 ,31.23766 
140 ,25.7980 ,0.75206 ,3.17335 ,31.13693 
141 ,25.9744 ,0.75385 ,3.15966 ,31.00262 
142 ,26.1502 ,0.75555 ,3.14940 ,30.90188 
143 ,26.3265 ,0.75732 ,3.11175 ,30.53252 
144 ,26.5343 ,0.75931 ,3.11518 ,30.56610 
145 ,26.7262 ,0.76134 ,3.08438 ,30.26389 
146 ,26.9025 ,0.76309 ,3.07411 ,30.16316 
147 ,27.0785 ,0.76482 ,3.08095 ,30.23031 
148 ,27.2546 ,0.76663 ,3.06384 ,30.06242 
149 ,27.4307 ,0.76834 ,3.04331 ,29.86095 
150 ,27.6066 ,0.77014 ,3.01935 ,29.62590 
151 ,27.7989 ,0.77205 ,3.02278 ,29.65948 
152 ,27.9752 ,0.77383 ,3.00909 ,29.52517 
153 ,28.1349 ,0.77554 ,2.99882 ,29.42444 
154 ,28.3432 ,0.77733 ,2.96460 ,29.08865 
155 ,28.5191 ,0.77928 ,2.95776 ,29.02150 
156 ,28.7113 ,0.78110 ,2.94407 ,28.88718 
157 ,28.9034 ,0.78303 ,2.93722 ,28.82003 
158 ,29.0954 ,0.78495 ,2.92353 ,28.68571 
159 ,29.2551 ,0.78672 ,2.91327 ,28.58498 
160 ,29.4316 ,0.78838 ,2.90300 ,28.48424 
161 ,29.6237 ,0.79021 ,2.87562 ,28.21562 
162 ,29.7996 ,0.79211 ,2.86536 ,28.11488 
163 ,29.9762 ,0.79380 ,2.85851 ,28.04772 
164 ,30.1677 ,0.79572 ,2.84482 ,27.91341 
165 ,30.3436 ,0.79760 ,2.82087 ,27.67836 
166 ,30.5199 ,0.79931 ,2.79349 ,27.40974 
167 ,30.6958 ,0.80097 ,2.81402 ,27.61121 
168 ,30.8723 ,0.80282 ,2.77638 ,27.24185 
169 ,31.0801 ,0.80476 ,2.77980 ,27.27542 
170 ,31.2724 ,0.80677 ,2.74900 ,26.97322 
171 ,31.4480 ,0.80851 ,2.74558 ,26.93964 
172 ,31.6243 ,0.81030 ,2.71478 ,26.63744 
173 ,31.8004 ,0.81202 ,2.71478 ,26.63744 
174 ,31.9765 ,0.81381 ,2.70109 ,26.50312 
175 ,32.1527 ,0.81556 ,2.69425 ,26.43597 
176 ,32.3287 ,0.81740 ,2.66687 ,26.16734 
177 ,32.5048 ,0.81907 ,2.64634 ,25.96587 
178 ,32.6809 ,0.82084 ,2.63265 ,25.83156 
179 ,32.8572 ,0.82262 ,2.64292 ,25.93229 
180 ,33.0487 ,0.82450 ,2.61554 ,25.66367 
181 ,33.2252 ,0.82630 ,2.59843 ,25.49577 
182 ,33.4010 ,0.82807 ,2.58474 ,25.36146 
183 ,33.5932 ,0.82998 ,2.58816 ,25.39504 
184 ,33.7850 ,0.83187 ,2.55052 ,25.02568 
185 ,33.9615 ,0.83369 ,2.55394 ,25.05926 
186 ,34.1374 ,0.83541 ,2.55052 ,25.02568 
187 ,34.3294 ,0.83732 ,2.51972 ,24.72347 
188 ,34.5056 ,0.83910 ,2.49918 ,24.52200 
189 ,34.6976 ,0.84107 ,2.48550 ,24.38769 
190 ,34.9057 ,0.84309 ,2.47181 ,24.25338 
191 ,35.0819 ,0.84480 ,2.46496 ,24.18622 
192 ,35.3058 ,0.84696 ,2.43759 ,23.91759 
193 ,35.4820 ,0.84884 ,2.44101 ,23.95117 
194 ,35.6576 ,0.85062 ,2.43074 ,23.85044 
195 ,35.8342 ,0.85239 ,2.43416 ,23.88402 
196 ,36.0103 ,0.85414 ,2.40679 ,23.61539 
197 ,36.2182 ,0.85618 ,2.39994 ,23.54823 
198 ,36.4104 ,0.85802 ,2.37256 ,23.27961 
199 ,36.5865 ,0.85987 ,2.36572 ,23.21245 
200 ,36.7625 ,0.86171 ,2.35203 ,23.07814 
201 ,36.9386 ,0.86341 ,2.34177 ,22.97740 
202 ,37.1306 ,0.86531 ,2.33150 ,22.87667 
203 ,37.3068 ,0.86709 ,2.31781 ,22.74235 
204 ,37.4826 ,0.86889 ,2.29043 ,22.47373 
205 ,37.6751 ,0.87066 ,2.28017 ,22.37299 
206 ,37.8509 ,0.87255 ,2.28017 ,22.37299 
207 ,38.0270 ,0.87433 ,2.24937 ,22.07079 
208 ,38.2351 ,0.87633 ,2.23568 ,21.93647 
209 ,38.4112 ,0.87809 ,2.22199 ,21.80216 
210 ,38.5871 ,0.87994 ,2.21172 ,21.70143 
211 ,38.7790 ,0.88181 ,2.21172 ,21.70143 
212 ,38.9555 ,0.88357 ,2.19803 ,21.56711 
213 ,39.1794 ,0.88567 ,2.15697 ,21.16417 
214 ,39.3557 ,0.88752 ,2.17066 ,21.29849 
215 ,39.5316 ,0.88939 ,2.13986 ,20.99628 
216 ,39.7236 ,0.89122 ,2.13301 ,20.92912 
217 ,39.8994 ,0.89304 ,2.12959 ,20.89555 
218 ,40.0761 ,0.89479 ,2.11932 ,20.79481 
219 ,40.2678 ,0.89660 ,2.11248 ,20.72766 
220 ,40.4441 ,0.89848 ,2.08510 ,20.45903 
221 ,40.6521 ,0.90048 ,2.06799 ,20.29114 
222 ,40.8281 ,0.90227 ,2.05430 ,20.15682 
223 ,41.0042 ,0.90401 ,2.04746 ,20.08967 
224 ,41.1804 ,0.90583 ,2.04061 ,20.02251 
225 ,41.3724 ,0.90771 ,2.01666 ,19.78746 
226 ,41.5484 ,0.90949 ,2.00297 ,19.65315 
227 ,41.7405 ,0.91131 ,2.00297 ,19.65315 
228 ,41.9166 ,0.91316 ,1.98928 ,19.51884 
229 ,42.1244 ,0.91514 ,1.96533 ,19.28379 
230 ,42.3168 ,0.91712 ,1.96533 ,19.28379 
231 ,42.4930 ,0.91895 ,1.95164 ,19.14948 
232 ,42.6848 ,0.92088 ,1.93453 ,18.98158 
233 ,42.8930 ,0.92279 ,1.92426 ,18.88085 
234 ,43.0688 ,0.92467 ,1.89688 ,18.61222 
235 ,43.2453 ,0.92648 ,1.88662 ,18.51149 
236 ,43.4532 ,0.92845 ,1.86608 ,18.31002 
237 ,43.6294 ,0.93026 ,1.86266 ,18.27644 
238 ,43.8214 ,0.93214 ,1.86951 ,18.34360 
239 ,44.0295 ,0.93424 ,1.83186 ,17.97423 
240 ,44.2055 ,0.93610 ,1.83186 ,17.97423 
241 ,44.3977 ,0.93789 ,1.80791 ,17.73919 
242 ,44.5895 ,0.93989 ,1.79422 ,17.60487 
243 ,44.7818 ,0.94170 ,1.77369 ,17.40340 
244 ,44.9739 ,0.94362 ,1.79764 ,17.63845 
245 ,45.1338 ,0.94546 ,1.73946 ,17.06762 
246 ,45.3262 ,0.94719 ,1.73262 ,17.00046 
247 ,45.5182 ,0.94922 ,1.74973 ,17.16836 
248 ,45.6943 ,0.95095 ,1.72578 ,16.93331 
249 ,45.8864 ,0.95283 ,1.70866 ,16.76542 
250 ,46.0623 ,0.95468 ,1.69840 ,16.66468 
251 ,46.2382 ,0.95638 ,1.69155 ,16.59752 
252 ,46.4146 ,0.95817 ,1.67102 ,16.39605 
253 ,46.6067 ,0.96003 ,1.64707 ,16.16101 
254 ,46.7986 ,0.96199 ,1.65733 ,16.26174 
255 ,46.9751 ,0.96375 ,1.64022 ,16.09385 
256 ,47.1509 ,0.96549 ,1.61284 ,15.82522 
257 ,47.3266 ,0.96731 ,1.60258 ,15.72449 
258 ,47.5027 ,0.96904 ,1.60600 ,15.75807 
259 ,47.6950 ,0.97092 ,1.59231 ,15.62375 
260 ,47.8872 ,0.97285 ,1.56151 ,15.32155 
261 ,48.0789 ,0.97471 ,1.55809 ,15.28797 
262 ,48.2554 ,0.97652 ,1.54440 ,15.15366 
263 ,48.4473 ,0.97837 ,1.52387 ,14.95219 
264 ,48.6235 ,0.98022 ,1.53413 ,15.05292 
265 ,48.8154 ,0.98210 ,1.52387 ,14.95219 
266 ,48.9916 ,0.98386 ,1.49307 ,14.64998 
267 ,49.1675 ,0.98569 ,1.46911 ,14.41493 
268 ,49.3757 ,0.98773 ,1.47596 ,14.48209 
269 ,49.5354 ,0.98945 ,1.45542 ,14.28062 
270 ,49.7119 ,0.99104 ,1.44174 ,14.14631 
271 ,49.8875 ,0.99290 ,1.42462 ,13.97842 
272 ,50.0641 ,0.99461 ,1.42462 ,13.97842 
273 ,50.2401 ,0.99640 ,1.41094 ,13.84410 
274 ,50.4322 ,0.99822 ,1.39383 ,13.67621 
275 ,50.6081 ,1.00003 ,1.38014 ,13.54190 
276 ,50.8004 ,1.00198 ,1.38014 ,13.54190 
277 ,51.0083 ,1.00408 ,1.35960 ,13.34043 
278 ,51.1845 ,1.00579 ,1.36303 ,13.37401 
279 ,51.3762 ,1.00775 ,1.33907 ,13.13896 
280 ,51.5522 ,1.00947 ,1.33223 ,13.07180 
281 ,51.7286 ,1.01122 ,1.31512 ,12.90391 
282 ,51.9685 ,1.01344 ,1.29116 ,12.66886 
283 ,52.1609 ,1.01551 ,1.29800 ,12.73602 
284 ,52.3530 ,1.01743 ,1.26036 ,12.36666 
285 ,52.5450 ,1.01947 ,1.27063 ,12.46739 
286 ,52.7048 ,1.02111 ,1.24325 ,12.19877 
287 ,52.8652 ,1.02271 ,1.25694 ,12.33308 
288 ,53.0571 ,1.02447 ,1.22956 ,12.06445 
289 ,53.2334 ,1.02631 ,1.21245 ,11.89656 
290 ,53.4413 ,1.02831 ,1.21587 ,11.93014 
291 ,53.6175 ,1.03010 ,1.20903 ,11.86298 
292 ,53.8093 ,1.03208 ,1.17481 ,11.52720 
293 ,54.0016 ,1.03393 ,1.17138 ,11.49362 
294 ,54.1933 ,1.03580 ,1.14743 ,11.25857 
295 ,54.3698 ,1.03768 ,1.13032 ,11.09068 
296 ,54.5778 ,1.03972 ,1.13374 ,11.12426 
297 ,54.7535 ,1.04148 ,1.10979 ,10.88921 
298 ,54.9299 ,1.04327 ,1.09267 ,10.72132 
299 ,55.1218 ,1.04520 ,1.09610 ,10.75490 
300 ,55.2981 ,1.04695 ,1.08241 ,10.62059 
301 ,55.4743 ,1.04865 ,1.06187 ,10.41912 
302 ,55.6502 ,1.05043 ,1.05161 ,10.31838 
303 ,55.8419 ,1.05238 ,1.04476 ,10.25123 
304 ,56.0345 ,1.05416 ,1.04134 ,10.21765 
305 ,56.2426 ,1.05622 ,1.02765 ,10.08333 
306 ,56.4186 ,1.05813 ,1.01739 ,9.98260 
307 ,56.5948 ,1.05992 ,1.00028 ,9.81471 
308 ,56.7867 ,1.06183 ,0.97632 ,9.57966 
309 ,56.9630 ,1.06359 ,0.97290 ,9.54608 
310 ,57.1549 ,1.06546 ,0.96605 ,9.47892 
311 ,57.3468 ,1.06741 ,0.95921 ,9.41177 
312 ,57.5228 ,1.06922 ,0.94552 ,9.27745 
313 ,57.6990 ,1.07092 ,0.94210 ,9.24388 
314 ,57.8912 ,1.07285 ,0.91130 ,8.94167 
315 ,58.0672 ,1.07461 ,0.90103 ,8.84094 
316 ,58.2594 ,1.07643 ,0.89761 ,8.80736 
317 ,58.4355 ,1.07830 ,0.88734 ,8.70662 
318 ,58.6274 ,1.08021 ,0.87708 ,8.60589 
319 ,58.8036 ,1.08199 ,0.87023 ,8.53873 
320 ,58.9955 ,1.08387 ,0.85312 ,8.37084 
321 ,59.1876 ,1.08581 ,0.82575 ,8.10221 
322 ,59.4114 ,1.08802 ,0.82232 ,8.06864 
323 ,59.5715 ,1.08979 ,0.80863 ,7.93432 
324 ,59.7316 ,1.09139 ,0.79837 ,7.83359 
325 ,59.9240 ,1.09315 ,0.79152 ,7.76643 
326 ,60.1158 ,1.09506 ,0.78126 ,7.66570 
327 ,60.3082 ,1.09693 ,0.78126 ,7.66570 
328 ,60.5163 ,1.09904 ,0.76072 ,7.46423 
329 ,60.7083 ,1.10092 ,0.74019 ,7.26276 
330 ,60.8845 ,1.10279 ,0.74361 ,7.29633 
331 ,61.0925 ,1.10477 ,0.72308 ,7.09486 
332 ,61.2686 ,1.10659 ,0.69570 ,6.82624 
333 ,61.4768 ,1.10866 ,0.71281 ,6.99413 
334 ,61.6528 ,1.11048 ,0.68201 ,6.69193 
335 ,61.8448 ,1.11235 ,0.67517 ,6.62477 
336 ,62.0210 ,1.11417 ,0.68201 ,6.69193 
337 ,62.1970 ,1.11596 ,0.66490 ,6.52403 
338 ,62.3730 ,1.11771 ,0.64779 ,6.35614 
339 ,62.5812 ,1.11962 ,0.64095 ,6.28899 
340 ,62.7732 ,1.12166 ,0.60673 ,5.95320 
341 ,62.9493 ,1.12337 ,0.59646 ,5.85247 
342 ,63.1574 ,1.12545 ,0.60673 ,5.95320 
343 ,63.3334 ,1.12735 ,0.56908 ,5.58384 
344 ,63.5092 ,1.12902 ,0.56908 ,5.58384 
345 ,63.6857 ,1.13077 ,0.56908 ,5.58384 
346 ,63.8618 ,1.13256 ,0.56224 ,5.51668 
347 ,64.0375 ,1.13430 ,0.54855 ,5.38237 
348 ,64.2139 ,1.13606 ,0.53144 ,5.21448 
349 ,64.4058 ,1.13794 ,0.52117 ,5.11375 
350 ,64.5819 ,1.13972 ,0.52459 ,5.14732 
351 ,64.7579 ,1.14156 ,0.51091 ,5.01301 
352 ,64.9340 ,1.14326 ,0.48011 ,4.71081 
353 ,65.1103 ,1.14503 ,0.47326 ,4.64365 
354 ,65.3024 ,1.14698 ,0.49380 ,4.84512 
355 ,65.4942 ,1.14889 ,0.45957 ,4.50934 
356 ,65.6704 ,1.15067 ,0.43562 ,4.27429 
357 ,65.8626 ,1.15255 ,0.43904 ,4.30787 
358 ,66.0386 ,1.15430 ,0.42877 ,4.20713 
359 ,66.2143 ,1.15606 ,0.40824 ,4.00566 
360 ,66.4067 ,1.15797 ,0.39797 ,3.90493 
361 ,66.5826 ,1.15973 ,0.40140 ,3.93850 
362 ,66.7588 ,1.16153 ,0.38429 ,3.77061 
363 ,66.9349 ,1.16326 ,0.37060 ,3.63630 
364 ,67.1109 ,1.16502 ,0.36718 ,3.60272 
365 ,67.2871 ,1.16679 ,0.34322 ,3.36767 
366 ,67.4632 ,1.16858 ,0.35006 ,3.43483 
367 ,67.6713 ,1.17055 ,0.31926 ,3.13263 
368 ,67.8632 ,1.17255 ,0.32953 ,3.23336 
369 ,68.0391 ,1.17431 ,0.31584 ,3.09905 
370 ,68.2155 ,1.17610 ,0.30215 ,2.96473 
371 ,68.3915 ,1.17782 ,0.28504 ,2.79684 
372 ,68.5832 ,1.17967 ,0.27135 ,2.66253 
373 ,68.7592 ,1.18152 ,0.27478 ,2.69611 
374 ,68.9353 ,1.18324 ,0.26793 ,2.62895 
375 ,69.1113 ,1.18499 ,0.24398 ,2.39390 
376 ,69.3198 ,1.18712 ,0.24055 ,2.36032 
377 ,69.5120 ,1.18906 ,0.22002 ,2.15885 
378 ,69.6877 ,1.19076 ,0.20633 ,2.02454 
379 ,69.8641 ,1.19254 ,0.19949 ,1.95738 
380 ,70.0720 ,1.19454 ,0.19607 ,1.92381 
381 ,70.2480 ,1.19638 ,0.16185 ,1.58802 
382 ,70.4243 ,1.19817 ,0.15842 ,1.55445 
383 ,70.6003 ,1.19989 ,0.17553 ,1.72234 
384 ,70.7766 ,1.20168 ,0.16527 ,1.62160 
385 ,70.9524 ,1.20337 ,0.14816 ,1.45371 
386 ,71.1284 ,1.20521 ,0.12762 ,1.25224 
387 ,71.3047 ,1.20693 ,0.12078 ,1.18508 
388 ,71.5128 ,1.20884 ,0.09682 ,0.95004 
389 ,71.6887 ,1.21078 ,0.09682 ,0.95004 
390 ,71.8648 ,1.21254 ,0.09340 ,0.91646 
391 ,72.0568 ,1.21442 ,0.08998 ,0.88288 
392 ,72.2331 ,1.21621 ,0.06260 ,0.61425 
393 ,72.4253 ,1.21814 ,0.05918 ,0.58067 
394 ,72.6331 ,1.22009 ,0.06260 ,0.61425 
395 ,72.8089 ,1.22197 ,0.03180 ,0.31205 
396 ,72.9854 ,1.22376 ,0.03180 ,0.31205 
397 ,73.1771 ,1.22562 ,0.02496 ,0.24489 
398 ,73.3535 ,1.22742 ,0.01811 ,0.17773 
399 ,73.5453 ,1.22929 ,-0.00926 ,-0.09089 
400 ,73.7537 ,1.23137 ,-0.01611 ,-0.15805 
401 ,73.9454 ,1.23325 ,-0.02295 ,-0.22520 
402 ,74.1218 ,1.23510 ,-0.01611 ,-0.15805 
403 ,74.2978 ,1.23684 ,-0.02980 ,-0.29236 
404 ,74.4742 ,1.23867 ,-0.02980 ,-0.29236 
405 ,74.6500 ,1.24042 ,-0.05375 ,-0.52741 
406 ,74.8422 ,1.24230 ,-0.06744 ,-0.66172 
407 ,75.0502 ,1.24424 ,-0.06744 ,-0.66172 
408 ,75.2423 ,1.24627 ,-0.08113 ,-0.79604 
409 ,75.4502 ,1.24827 ,-0.09824 ,-0.96393 
410 ,75.6264 ,1.25016 ,-0.11877 ,-1.16540 
411 ,75.8025 ,1.25194 ,-0.11535 ,-1.13182 
412 ,75.9788 ,1.25367 ,-0.10851 ,-1.06466 
413 ,76.1704 ,1.25561 ,-0.13931 ,-1.36687 
414 ,76.3468 ,1.25730 ,-0.14615 ,-1.43402 
415 ,76.5227 ,1.25912 ,-0.15984 ,-1.56834 
416 ,76.6989 ,1.26089 ,-0.15984 ,-1.56834 
417 ,76.8912 ,1.26281 ,-0.17353 ,-1.70265 
418 ,77.0667 ,1.26460 ,-0.17353 ,-1.70265 
419 ,77.2432 ,1.26632 ,-0.19748 ,-1.93770 
420 ,77.4675 ,1.26842 ,-0.20433 ,-2.00485 
421 ,77.6752 ,1.27048 ,-0.20090 ,-1.97128 
422 ,77.8514 ,1.27233 ,-0.23513 ,-2.30706 
423 ,78.0273 ,1.27414 ,-0.24197 ,-2.37422 
424 ,78.2035 ,1.27590 ,-0.24881 ,-2.44137 
425 ,78.3795 ,1.27764 ,-0.22828 ,-2.23990 
426 ,78.5715 ,1.27960 ,-0.25566 ,-2.50853 
427 ,78.7474 ,1.28131 ,-0.27619 ,-2.71000 
428 ,78.9397 ,1.28314 ,-0.27961 ,-2.74358 
429 ,79.1477 ,1.28529 ,-0.30015 ,-2.94505 
430 ,79.3238 ,1.28711 ,-0.30015 ,-2.94505 
431 ,79.5001 ,1.28893 ,-0.29673 ,-2.91147 
432 ,79.6762 ,1.29062 ,-0.30015 ,-2.94505 
433 ,79.8683 ,1.29252 ,-0.32410 ,-3.18010 
434 ,80.0443 ,1.29432 ,-0.33095 ,-3.24725 
435 ,80.2364 ,1.29622 ,-0.33779 ,-3.31441 
436 ,80.4444 ,1.29813 ,-0.35148 ,-3.44872 
437 ,80.6365 ,1.30023 ,-0.35832 ,-3.51588 
438 ,80.8126 ,1.30195 ,-0.36859 ,-3.61661 
439 ,80.9885 ,1.30380 ,-0.39255 ,-3.85166 
440 ,81.1807 ,1.30568 ,-0.38228 ,-3.75093 
441 ,81.3726 ,1.30756 ,-0.39939 ,-3.91882 
442 ,81.5489 ,1.30934 ,-0.41992 ,-4.12029 
443 ,81.7249 ,1.31110 ,-0.41992 ,-4.12029 
444 ,81.9011 ,1.31291 ,-0.41650 ,-4.08671 
445 ,82.0770 ,1.31466 ,-0.41308 ,-4.05313 
446 ,82.2528 ,1.31636 ,-0.41992 ,-4.12029 
447 ,82.4128 ,1.31807 ,-0.44730 ,-4.38891 
448 ,82.5728 ,1.31973 ,-0.44730 ,-4.38891 
449 ,82.7493 ,1.32138 ,-0.46099 ,-4.52323 
450 ,82.9415 ,1.32330 ,-0.46099 ,-4.52323 
451 ,83.1334 ,1.32517 ,-0.47468 ,-4.65754 
452 ,83.3417 ,1.32718 ,-0.47468 ,-4.65754 
453 ,83.5176 ,1.32901 ,-0.48837 ,-4.79185 
454 ,83.6937 ,1.33081 ,-0.49863 ,-4.89259 
455 ,83.9018 ,1.33280 ,-0.49521 ,-4.85901 
456 ,84.0940 ,1.33464 ,-0.50890 ,-4.99332 
457 ,84.3020 ,1.33680 ,-0.51574 ,-5.06048 
458 ,84.5098 ,1.33894 ,-0.54997 ,-5.39626 
459 ,84.6862 ,1.34070 ,-0.54997 ,-5.39626 
460 ,84.8942 ,1.34276 ,-0.55681 ,-5.46342 
461 ,85.0705 ,1.34460 ,-0.55681 ,-5.46342 
462 ,85.2625 ,1.34640 ,-0.54997 ,-5.39626 
463 ,85.4705 ,1.34840 ,-0.57392 ,-5.63131 
464 ,85.6784 ,1.35044 ,-0.58419 ,-5.73205 
