Data stamp = , 07-04-2022 21:18:01 510

Calibration Values: 
Slope = , 26.54 , g/V 
Offset Voltage at no contact = , -0.501760 , V 

No , Time , Stage Position ,   Mass , Force 
   ,  (s) ,      (mm)      ,   (g)  , (mN)  

1 ,0.0000 ,0.49933 ,5.21639 ,51.18317 
2 ,0.2049 ,0.49942 ,5.21981 ,51.21675 
3 ,0.7172 ,0.50087 ,5.20270 ,51.04886 
4 ,0.9252 ,0.50329 ,5.21981 ,51.21675 
5 ,1.1174 ,0.50523 ,5.20954 ,51.11602 
6 ,1.3093 ,0.50710 ,5.19927 ,51.01528 
7 ,1.4853 ,0.50896 ,5.21639 ,51.18317 
8 ,1.6614 ,0.51073 ,5.20612 ,51.08244 
9 ,1.8375 ,0.51255 ,5.18559 ,50.88097 
10 ,2.0137 ,0.51425 ,5.17532 ,50.78023 
11 ,2.2057 ,0.51615 ,5.16848 ,50.71308 
12 ,2.3978 ,0.51800 ,5.14452 ,50.47803 
13 ,2.6060 ,0.52013 ,5.13425 ,50.37729 
14 ,2.7978 ,0.52204 ,5.11372 ,50.17583 
15 ,2.9742 ,0.52383 ,5.09319 ,49.97436 
16 ,3.1662 ,0.52576 ,5.10003 ,50.04151 
17 ,3.3423 ,0.52755 ,5.09319 ,49.97436 
18 ,3.5181 ,0.52933 ,5.06923 ,49.73931 
19 ,3.6943 ,0.53103 ,5.03159 ,49.36995 
20 ,3.8865 ,0.53293 ,5.04185 ,49.47068 
21 ,4.0786 ,0.53488 ,5.01106 ,49.16848 
22 ,4.2546 ,0.53663 ,4.99052 ,48.96701 
23 ,4.4308 ,0.53844 ,4.97683 ,48.83269 
24 ,4.6068 ,0.54014 ,4.97341 ,48.79911 
25 ,4.7986 ,0.54201 ,4.94603 ,48.53049 
26 ,4.9749 ,0.54384 ,4.92550 ,48.32902 
27 ,5.1510 ,0.54561 ,4.90497 ,48.12755 
28 ,5.3430 ,0.54755 ,4.93235 ,48.39618 
29 ,5.5351 ,0.54943 ,4.87075 ,47.79177 
30 ,5.7110 ,0.55119 ,4.87075 ,47.79177 
31 ,5.9032 ,0.55310 ,4.86048 ,47.69103 
32 ,6.0953 ,0.55501 ,4.82626 ,47.35525 
33 ,6.2713 ,0.55680 ,4.81257 ,47.22093 
34 ,6.4634 ,0.55868 ,4.81599 ,47.25451 
35 ,6.6555 ,0.56063 ,4.77493 ,46.85157 
36 ,6.8475 ,0.56254 ,4.77835 ,46.88515 
37 ,7.0398 ,0.56445 ,4.75439 ,46.65010 
38 ,7.2318 ,0.56642 ,4.72702 ,46.38148 
39 ,7.4239 ,0.56832 ,4.74070 ,46.51579 
40 ,7.5999 ,0.57008 ,4.71675 ,46.28074 
41 ,7.7918 ,0.57200 ,4.68595 ,45.97854 
42 ,7.9682 ,0.57378 ,4.67568 ,45.87780 
43 ,8.1602 ,0.57569 ,4.66542 ,45.77707 
44 ,8.3522 ,0.57759 ,4.63462 ,45.47486 
45 ,8.5282 ,0.57932 ,4.62777 ,45.40771 
46 ,8.7044 ,0.58116 ,4.63462 ,45.47486 
47 ,8.8804 ,0.58288 ,4.60724 ,45.20624 
48 ,9.0726 ,0.58474 ,4.59355 ,45.07192 
49 ,9.2485 ,0.58661 ,4.57986 ,44.93761 
50 ,9.4250 ,0.58834 ,4.54906 ,44.63541 
51 ,9.6328 ,0.59028 ,4.54222 ,44.56825 
52 ,9.8248 ,0.59234 ,4.52853 ,44.43394 
53 ,10.0169 ,0.59423 ,4.51142 ,44.26604 
54 ,10.2090 ,0.59608 ,4.49089 ,44.06457 
55 ,10.4010 ,0.59808 ,4.47378 ,43.89668 
56 ,10.5930 ,0.59994 ,4.44982 ,43.66163 
57 ,10.7692 ,0.60175 ,4.43613 ,43.52732 
58 ,10.9453 ,0.60354 ,4.43271 ,43.49374 
59 ,11.1374 ,0.60543 ,4.42244 ,43.39301 
60 ,11.3294 ,0.60732 ,4.39849 ,43.15796 
61 ,11.5215 ,0.60917 ,4.38138 ,42.99007 
62 ,11.7136 ,0.61118 ,4.35742 ,42.75502 
63 ,11.8896 ,0.61298 ,4.33689 ,42.55355 
64 ,12.0658 ,0.61478 ,4.33004 ,42.48639 
65 ,12.2418 ,0.61649 ,4.33004 ,42.48639 
66 ,12.4342 ,0.61838 ,4.29924 ,42.18419 
67 ,12.6261 ,0.62034 ,4.29582 ,42.15061 
68 ,12.8179 ,0.62230 ,4.27871 ,41.98272 
69 ,13.0102 ,0.62413 ,4.24449 ,41.64694 
70 ,13.2022 ,0.62611 ,4.24449 ,41.64694 
71 ,13.3942 ,0.62797 ,4.21027 ,41.31115 
72 ,13.5704 ,0.62975 ,4.19658 ,41.17684 
73 ,13.7623 ,0.63169 ,4.20342 ,41.24400 
74 ,13.9383 ,0.63353 ,4.16236 ,40.84106 
75 ,14.1146 ,0.63520 ,4.14183 ,40.63959 
76 ,14.3066 ,0.63711 ,4.14525 ,40.67317 
77 ,14.4987 ,0.63902 ,4.12814 ,40.50527 
78 ,14.6908 ,0.64096 ,4.10418 ,40.27023 
79 ,14.8829 ,0.64287 ,4.10076 ,40.23665 
80 ,15.0590 ,0.64462 ,4.09049 ,40.13591 
81 ,15.2510 ,0.64643 ,4.05627 ,39.80013 
82 ,15.4432 ,0.64847 ,4.06654 ,39.90087 
83 ,15.6353 ,0.65041 ,4.03232 ,39.56508 
84 ,15.8113 ,0.65221 ,4.00152 ,39.26288 
85 ,16.0033 ,0.65408 ,4.01178 ,39.36361 
86 ,16.1954 ,0.65596 ,3.97072 ,38.96067 
87 ,16.4034 ,0.65804 ,3.97414 ,38.99425 
88 ,16.5794 ,0.65986 ,3.96045 ,38.85994 
89 ,16.7716 ,0.66174 ,3.93307 ,38.59131 
90 ,16.9476 ,0.66355 ,3.93307 ,38.59131 
91 ,17.1398 ,0.66536 ,3.90912 ,38.35626 
92 ,17.3320 ,0.66733 ,3.89885 ,38.25553 
93 ,17.5399 ,0.66941 ,3.87490 ,38.02048 
94 ,17.7321 ,0.67136 ,3.85094 ,37.78543 
95 ,17.9241 ,0.67332 ,3.85436 ,37.81901 
96 ,18.1162 ,0.67517 ,3.83041 ,37.58396 
97 ,18.2923 ,0.67698 ,3.80303 ,37.31534 
98 ,18.4844 ,0.67884 ,3.80987 ,37.38249 
99 ,18.6764 ,0.68078 ,3.77565 ,37.04671 
100 ,18.8523 ,0.68259 ,3.75854 ,36.87882 
101 ,19.0286 ,0.68438 ,3.76881 ,36.97955 
102 ,19.2207 ,0.68623 ,3.75512 ,36.84524 
103 ,19.3967 ,0.68801 ,3.73801 ,36.67735 
104 ,19.5888 ,0.68989 ,3.72090 ,36.50946 
105 ,19.7810 ,0.69180 ,3.70721 ,36.37514 
106 ,19.9730 ,0.69372 ,3.67299 ,36.03936 
107 ,20.1808 ,0.69575 ,3.68668 ,36.17367 
108 ,20.3568 ,0.69766 ,3.65588 ,35.87147 
109 ,20.5329 ,0.69942 ,3.62850 ,35.60284 
110 ,20.6929 ,0.70110 ,3.62508 ,35.56926 
111 ,20.8691 ,0.70278 ,3.62166 ,35.53569 
112 ,21.0454 ,0.70450 ,3.61481 ,35.46853 
113 ,21.2533 ,0.70651 ,3.57032 ,35.03201 
114 ,21.4297 ,0.70836 ,3.55663 ,34.89770 
115 ,21.6217 ,0.71024 ,3.56006 ,34.93128 
116 ,21.8139 ,0.71215 ,3.53610 ,34.69623 
117 ,21.9899 ,0.71395 ,3.51557 ,34.49476 
118 ,22.1660 ,0.71567 ,3.51557 ,34.49476 
119 ,22.3582 ,0.71757 ,3.49846 ,34.32687 
120 ,22.5342 ,0.71938 ,3.46766 ,34.02466 
121 ,22.7264 ,0.72124 ,3.47108 ,34.05824 
122 ,22.9023 ,0.72308 ,3.45739 ,33.92393 
123 ,23.0782 ,0.72477 ,3.44370 ,33.78961 
124 ,23.2703 ,0.72672 ,3.40264 ,33.38667 
125 ,23.4626 ,0.72863 ,3.40948 ,33.45383 
126 ,23.6545 ,0.73050 ,3.37526 ,33.11805 
127 ,23.8468 ,0.73245 ,3.38210 ,33.18520 
128 ,24.0386 ,0.73439 ,3.36157 ,32.98374 
129 ,24.2308 ,0.73628 ,3.35815 ,32.95016 
130 ,24.4067 ,0.73816 ,3.34104 ,32.78227 
131 ,24.5828 ,0.73987 ,3.32051 ,32.58080 
132 ,24.7751 ,0.74174 ,3.29997 ,32.37933 
133 ,24.9513 ,0.74357 ,3.28971 ,32.27859 
134 ,25.1274 ,0.74538 ,3.27944 ,32.17786 
135 ,25.3191 ,0.74716 ,3.27259 ,32.11070 
136 ,25.4951 ,0.74904 ,3.24522 ,31.84207 
137 ,25.6714 ,0.75069 ,3.22468 ,31.64060 
138 ,25.8473 ,0.75248 ,3.22468 ,31.64060 
139 ,26.0236 ,0.75427 ,3.21442 ,31.53987 
140 ,26.1995 ,0.75603 ,3.20073 ,31.40555 
141 ,26.3759 ,0.75784 ,3.18020 ,31.20409 
142 ,26.5676 ,0.75966 ,3.16993 ,31.10335 
143 ,26.7438 ,0.76147 ,3.17677 ,31.17051 
144 ,26.9361 ,0.76334 ,3.11518 ,30.56610 
145 ,27.1279 ,0.76526 ,3.13229 ,30.73399 
146 ,27.3043 ,0.76705 ,3.11860 ,30.59968 
147 ,27.4962 ,0.76890 ,3.09122 ,30.33105 
148 ,27.6724 ,0.77074 ,3.08438 ,30.26389 
149 ,27.8485 ,0.77246 ,3.07069 ,30.12958 
150 ,28.0405 ,0.77440 ,3.03989 ,29.82737 
151 ,28.2165 ,0.77616 ,3.04673 ,29.89453 
152 ,28.4087 ,0.77799 ,3.02962 ,29.72664 
153 ,28.6009 ,0.77995 ,3.00909 ,29.52517 
154 ,28.7768 ,0.78175 ,2.99540 ,29.39086 
155 ,28.9851 ,0.78382 ,2.99198 ,29.35728 
156 ,29.1770 ,0.78577 ,2.95433 ,28.98792 
157 ,29.3692 ,0.78759 ,2.95433 ,28.98792 
158 ,29.5770 ,0.78970 ,2.92011 ,28.65213 
159 ,29.7528 ,0.79151 ,2.90985 ,28.55140 
160 ,29.9296 ,0.79332 ,2.91669 ,28.61856 
161 ,30.1215 ,0.79526 ,2.89958 ,28.45066 
162 ,30.2975 ,0.79696 ,2.86193 ,28.08130 
163 ,30.4735 ,0.79871 ,2.85509 ,28.01415 
164 ,30.6495 ,0.80050 ,2.83456 ,27.81268 
165 ,30.8257 ,0.80227 ,2.84482 ,27.91341 
166 ,31.0018 ,0.80402 ,2.83114 ,27.77910 
167 ,31.1940 ,0.80591 ,2.80034 ,27.47689 
168 ,31.3858 ,0.80778 ,2.81060 ,27.57763 
169 ,31.5618 ,0.80958 ,2.78665 ,27.34258 
170 ,31.7380 ,0.81139 ,2.76954 ,27.17469 
171 ,31.9141 ,0.81311 ,2.74558 ,26.93964 
172 ,32.0902 ,0.81493 ,2.73531 ,26.83891 
173 ,32.2663 ,0.81667 ,2.74558 ,26.93964 
174 ,32.4584 ,0.81849 ,2.72163 ,26.70459 
175 ,32.6346 ,0.82034 ,2.68740 ,26.36881 
176 ,32.8426 ,0.82231 ,2.69425 ,26.43597 
177 ,33.0348 ,0.82428 ,2.66687 ,26.16734 
178 ,33.2268 ,0.82623 ,2.65660 ,26.06661 
179 ,33.4029 ,0.82804 ,2.64976 ,25.99945 
180 ,33.5788 ,0.82986 ,2.61896 ,25.69724 
181 ,33.7710 ,0.83164 ,2.62238 ,25.73082 
182 ,33.9466 ,0.83346 ,2.60527 ,25.56293 
183 ,34.1232 ,0.83528 ,2.59843 ,25.49577 
184 ,34.3152 ,0.83713 ,2.56421 ,25.15999 
185 ,34.5072 ,0.83897 ,2.58474 ,25.36146 
186 ,34.7154 ,0.84111 ,2.54025 ,24.92494 
187 ,34.9074 ,0.84296 ,2.55394 ,25.05926 
188 ,35.0833 ,0.84487 ,2.50945 ,24.62274 
189 ,35.2756 ,0.84661 ,2.49918 ,24.52200 
190 ,35.4517 ,0.84850 ,2.49234 ,24.45485 
191 ,35.6437 ,0.85043 ,2.49576 ,24.48842 
192 ,35.8197 ,0.85215 ,2.45470 ,24.08549 
193 ,35.9958 ,0.85392 ,2.44101 ,23.95117 
194 ,36.1559 ,0.85564 ,2.44101 ,23.95117 
195 ,36.3320 ,0.85731 ,2.42732 ,23.81686 
196 ,36.5079 ,0.85907 ,2.42048 ,23.74970 
197 ,36.6842 ,0.86076 ,2.40679 ,23.61539 
198 ,36.8762 ,0.86268 ,2.40336 ,23.58181 
199 ,37.0522 ,0.86446 ,2.36572 ,23.21245 
200 ,37.2281 ,0.86628 ,2.36230 ,23.17887 
201 ,37.4044 ,0.86803 ,2.37256 ,23.27961 
202 ,37.5806 ,0.86977 ,2.33834 ,22.94382 
203 ,37.7884 ,0.87178 ,2.32123 ,22.77593 
204 ,37.9648 ,0.87356 ,2.30412 ,22.60804 
205 ,38.1568 ,0.87555 ,2.29728 ,22.54088 
206 ,38.3489 ,0.87739 ,2.28359 ,22.40657 
207 ,38.5569 ,0.87939 ,2.26990 ,22.27226 
208 ,38.7331 ,0.88131 ,2.25621 ,22.13794 
209 ,38.9088 ,0.88300 ,2.24937 ,22.07079 
210 ,39.0850 ,0.88479 ,2.24252 ,22.00363 
211 ,39.2768 ,0.88668 ,2.19461 ,21.53353 
212 ,39.4530 ,0.88850 ,2.19461 ,21.53353 
213 ,39.6450 ,0.89039 ,2.20146 ,21.60069 
214 ,39.8210 ,0.89218 ,2.16723 ,21.26491 
215 ,39.9970 ,0.89390 ,2.16039 ,21.19775 
216 ,40.1733 ,0.89573 ,2.13644 ,20.96270 
217 ,40.3652 ,0.89768 ,2.12617 ,20.86197 
218 ,40.5418 ,0.89937 ,2.12617 ,20.86197 
219 ,40.7338 ,0.90131 ,2.10564 ,20.66050 
220 ,40.9098 ,0.90306 ,2.09537 ,20.55976 
221 ,41.0860 ,0.90481 ,2.09879 ,20.59334 
222 ,41.2781 ,0.90666 ,2.06115 ,20.22398 
223 ,41.4539 ,0.90852 ,2.05088 ,20.12325 
224 ,41.6299 ,0.91030 ,2.05088 ,20.12325 
225 ,41.8062 ,0.91199 ,2.04746 ,20.08967 
226 ,41.9981 ,0.91390 ,2.02008 ,19.82104 
227 ,42.1741 ,0.91567 ,1.99955 ,19.61957 
228 ,42.3504 ,0.91744 ,1.99955 ,19.61957 
229 ,42.5423 ,0.91937 ,1.99270 ,19.55241 
230 ,42.7185 ,0.92112 ,1.97217 ,19.35094 
231 ,42.9106 ,0.92300 ,1.96190 ,19.25021 
232 ,43.1027 ,0.92495 ,1.93111 ,18.94801 
233 ,43.2786 ,0.92673 ,1.92768 ,18.91443 
234 ,43.4548 ,0.92854 ,1.91057 ,18.74654 
235 ,43.6310 ,0.93026 ,1.89346 ,18.57864 
236 ,43.8405 ,0.93231 ,1.89004 ,18.54507 
237 ,44.0311 ,0.93429 ,1.86951 ,18.34360 
238 ,44.2394 ,0.93630 ,1.84897 ,18.14213 
239 ,44.4155 ,0.93811 ,1.83871 ,18.04139 
240 ,44.6068 ,0.93995 ,1.84897 ,18.14213 
241 ,44.7834 ,0.94176 ,1.82844 ,17.94066 
242 ,44.9591 ,0.94355 ,1.81133 ,17.77276 
243 ,45.1355 ,0.94528 ,1.78053 ,17.47056 
244 ,45.3116 ,0.94700 ,1.78395 ,17.50414 
245 ,45.5037 ,0.94884 ,1.78395 ,17.50414 
246 ,45.6958 ,0.95091 ,1.75657 ,17.23551 
247 ,45.8714 ,0.95267 ,1.75315 ,17.20193 
248 ,46.0479 ,0.95439 ,1.74973 ,17.16836 
249 ,46.2400 ,0.95638 ,1.71893 ,16.86615 
250 ,46.4318 ,0.95826 ,1.70182 ,16.69826 
251 ,46.6081 ,0.95998 ,1.70524 ,16.73184 
252 ,46.7838 ,0.96178 ,1.67786 ,16.46321 
253 ,46.9600 ,0.96360 ,1.67102 ,16.39605 
254 ,47.1523 ,0.96546 ,1.66418 ,16.32890 
255 ,47.3285 ,0.96719 ,1.66075 ,16.29532 
256 ,47.5205 ,0.96910 ,1.62653 ,15.95954 
257 ,47.6965 ,0.97089 ,1.60600 ,15.75807 
258 ,47.8724 ,0.97267 ,1.59231 ,15.62375 
259 ,48.0644 ,0.97452 ,1.58889 ,15.59018 
260 ,48.2564 ,0.97640 ,1.57520 ,15.45586 
261 ,48.4325 ,0.97824 ,1.55809 ,15.28797 
262 ,48.6249 ,0.98012 ,1.56151 ,15.32155 
263 ,48.8328 ,0.98213 ,1.53071 ,15.01934 
264 ,49.0252 ,0.98414 ,1.53071 ,15.01934 
265 ,49.2013 ,0.98598 ,1.51702 ,14.88503 
266 ,49.3934 ,0.98780 ,1.51702 ,14.88503 
267 ,49.5693 ,0.98961 ,1.49307 ,14.64998 
268 ,49.7454 ,0.99139 ,1.47938 ,14.51567 
269 ,49.9051 ,0.99309 ,1.44858 ,14.21346 
270 ,50.0816 ,0.99472 ,1.46227 ,14.34778 
271 ,50.2732 ,0.99662 ,1.43831 ,14.11273 
272 ,50.4655 ,0.99850 ,1.43489 ,14.07915 
273 ,50.6416 ,1.00038 ,1.41778 ,13.91126 
274 ,50.8178 ,1.00206 ,1.40067 ,13.74337 
275 ,51.0099 ,1.00394 ,1.40409 ,13.77695 
276 ,51.1861 ,1.00577 ,1.38014 ,13.54190 
277 ,51.3780 ,1.00762 ,1.36303 ,13.37401 
278 ,51.5542 ,1.00943 ,1.35276 ,13.27327 
279 ,51.7782 ,1.01154 ,1.33223 ,13.07180 
280 ,51.9545 ,1.01347 ,1.33223 ,13.07180 
281 ,52.1306 ,1.01523 ,1.32880 ,13.03822 
282 ,52.3226 ,1.01718 ,1.31169 ,12.87033 
283 ,52.5147 ,1.01902 ,1.28774 ,12.63528 
284 ,52.7067 ,1.02093 ,1.27405 ,12.50097 
285 ,52.8822 ,1.02269 ,1.27405 ,12.50097 
286 ,53.0746 ,1.02460 ,1.27063 ,12.46739 
287 ,53.2670 ,1.02653 ,1.25694 ,12.33308 
288 ,53.4589 ,1.02847 ,1.22272 ,11.99730 
289 ,53.6511 ,1.03040 ,1.22272 ,11.99730 
290 ,53.8432 ,1.03226 ,1.19534 ,11.72867 
291 ,54.0192 ,1.03409 ,1.18165 ,11.59436 
292 ,54.1950 ,1.03593 ,1.19192 ,11.69509 
293 ,54.3714 ,1.03763 ,1.16454 ,11.42647 
294 ,54.5634 ,1.03947 ,1.14743 ,11.25857 
295 ,54.7715 ,1.04145 ,1.15085 ,11.29215 
296 ,54.9636 ,1.04349 ,1.12005 ,10.98995 
297 ,55.1398 ,1.04530 ,1.10979 ,10.88921 
298 ,55.3476 ,1.04731 ,1.09952 ,10.78848 
299 ,55.5238 ,1.04912 ,1.10636 ,10.85563 
300 ,55.6997 ,1.05087 ,1.06187 ,10.41912 
301 ,55.8757 ,1.05262 ,1.07214 ,10.51985 
302 ,56.0519 ,1.05441 ,1.07214 ,10.51985 
303 ,56.2601 ,1.05648 ,1.02765 ,10.08333 
304 ,56.4521 ,1.05838 ,1.05503 ,10.35196 
305 ,56.6443 ,1.06033 ,1.02081 ,10.01618 
306 ,56.8363 ,1.06224 ,1.01396 ,9.94902 
307 ,57.0125 ,1.06400 ,0.99685 ,9.78113 
308 ,57.2204 ,1.06600 ,0.97632 ,9.57966 
309 ,57.3962 ,1.06781 ,0.97632 ,9.57966 
310 ,57.5726 ,1.06964 ,0.96948 ,9.51250 
311 ,57.7487 ,1.07136 ,0.95579 ,9.37819 
312 ,57.9407 ,1.07327 ,0.94552 ,9.27745 
313 ,58.1169 ,1.07505 ,0.93183 ,9.14314 
314 ,58.3087 ,1.07690 ,0.92841 ,9.10956 
315 ,58.4846 ,1.07881 ,0.89761 ,8.80736 
316 ,58.6608 ,1.08047 ,0.89077 ,8.74020 
317 ,58.8372 ,1.08224 ,0.88734 ,8.70662 
318 ,59.0133 ,1.08403 ,0.87708 ,8.60589 
319 ,59.1893 ,1.08578 ,0.88392 ,8.67305 
320 ,59.3655 ,1.08757 ,0.85654 ,8.40442 
321 ,59.5573 ,1.08945 ,0.84628 ,8.30368 
322 ,59.7335 ,1.09121 ,0.83259 ,8.16937 
323 ,59.9096 ,1.09296 ,0.83259 ,8.16937 
324 ,60.1017 ,1.09492 ,0.80179 ,7.86717 
325 ,60.2937 ,1.09681 ,0.80179 ,7.86717 
326 ,60.4860 ,1.09869 ,0.79495 ,7.80001 
327 ,60.6617 ,1.10057 ,0.76415 ,7.49780 
328 ,60.8539 ,1.10241 ,0.77099 ,7.56496 
329 ,61.0301 ,1.10417 ,0.76757 ,7.53138 
330 ,61.2383 ,1.10614 ,0.74019 ,7.26276 
331 ,61.4302 ,1.10821 ,0.72992 ,7.16202 
332 ,61.6060 ,1.10993 ,0.71966 ,7.06129 
333 ,61.7824 ,1.11171 ,0.70939 ,6.96055 
334 ,61.9743 ,1.11360 ,0.69913 ,6.85982 
335 ,62.1665 ,1.11551 ,0.67859 ,6.65835 
336 ,62.3425 ,1.11730 ,0.67517 ,6.62477 
337 ,62.5185 ,1.11910 ,0.64779 ,6.35614 
338 ,62.6944 ,1.12077 ,0.65806 ,6.45688 
339 ,62.8708 ,1.12260 ,0.64095 ,6.28899 
340 ,63.0789 ,1.12466 ,0.62042 ,6.08752 
341 ,63.2709 ,1.12653 ,0.62384 ,6.12109 
342 ,63.4470 ,1.12834 ,0.60673 ,5.95320 
343 ,63.6550 ,1.13035 ,0.60673 ,5.95320 
344 ,63.8311 ,1.13217 ,0.60330 ,5.91962 
345 ,64.0072 ,1.13393 ,0.56908 ,5.58384 
346 ,64.1994 ,1.13577 ,0.55882 ,5.48311 
347 ,64.3754 ,1.13762 ,0.54513 ,5.34879 
348 ,64.5672 ,1.13962 ,0.53486 ,5.24806 
349 ,64.7436 ,1.14127 ,0.51433 ,5.04659 
350 ,64.9676 ,1.14338 ,0.50406 ,4.94585 
351 ,65.1597 ,1.14542 ,0.49722 ,4.87870 
352 ,65.3838 ,1.14755 ,0.49380 ,4.84512 
353 ,65.5598 ,1.14947 ,0.46642 ,4.57649 
354 ,65.7362 ,1.15122 ,0.47326 ,4.64365 
355 ,65.9116 ,1.15299 ,0.45615 ,4.47576 
356 ,66.0878 ,1.15475 ,0.44931 ,4.40860 
357 ,66.2797 ,1.15667 ,0.43904 ,4.30787 
358 ,66.4559 ,1.15841 ,0.43904 ,4.30787 
359 ,66.6642 ,1.16043 ,0.41166 ,4.03924 
360 ,66.8722 ,1.16258 ,0.42535 ,4.17355 
361 ,67.0643 ,1.16446 ,0.39113 ,3.83777 
362 ,67.2563 ,1.16639 ,0.39113 ,3.83777 
363 ,67.4328 ,1.16820 ,0.38086 ,3.73703 
364 ,67.6085 ,1.16992 ,0.37060 ,3.63630 
365 ,67.8008 ,1.17183 ,0.34322 ,3.36767 
366 ,68.0086 ,1.17378 ,0.34322 ,3.36767 
367 ,68.2009 ,1.17581 ,0.31926 ,3.13263 
368 ,68.3768 ,1.17763 ,0.31242 ,3.06547 
369 ,68.5528 ,1.17937 ,0.32611 ,3.19978 
370 ,68.7450 ,1.18125 ,0.28847 ,2.83042 
371 ,68.9209 ,1.18301 ,0.27135 ,2.66253 
372 ,69.1128 ,1.18491 ,0.29189 ,2.86400 
373 ,69.2892 ,1.18671 ,0.27820 ,2.72969 
374 ,69.4814 ,1.18864 ,0.24055 ,2.36032 
375 ,69.6573 ,1.19040 ,0.24740 ,2.42748 
376 ,69.8335 ,1.19218 ,0.24055 ,2.36032 
377 ,70.0095 ,1.19391 ,0.23371 ,2.29317 
378 ,70.1852 ,1.19569 ,0.21660 ,2.12528 
379 ,70.3616 ,1.19748 ,0.19607 ,1.92381 
380 ,70.5698 ,1.19951 ,0.19607 ,1.92381 
381 ,70.7457 ,1.20132 ,0.19607 ,1.92381 
382 ,70.9216 ,1.20307 ,0.16869 ,1.65518 
383 ,71.1138 ,1.20489 ,0.17553 ,1.72234 
384 ,71.3060 ,1.20684 ,0.16185 ,1.58802 
385 ,71.4979 ,1.20871 ,0.13789 ,1.35298 
386 ,71.6902 ,1.21069 ,0.14816 ,1.45371 
387 ,71.8662 ,1.21251 ,0.12078 ,1.18508 
388 ,72.0423 ,1.21429 ,0.11051 ,1.08435 
389 ,72.2184 ,1.21598 ,0.11051 ,1.08435 
390 ,72.3945 ,1.21785 ,0.09340 ,0.91646 
391 ,72.5707 ,1.21954 ,0.08314 ,0.81572 
392 ,72.7785 ,1.22156 ,0.08998 ,0.88288 
393 ,72.9548 ,1.22339 ,0.06602 ,0.64783 
394 ,73.1469 ,1.22519 ,0.04891 ,0.47994 
395 ,73.3229 ,1.22706 ,0.05234 ,0.51352 
396 ,73.4989 ,1.22881 ,0.02838 ,0.27847 
397 ,73.6751 ,1.23061 ,0.04207 ,0.41278 
398 ,73.8828 ,1.23254 ,0.02496 ,0.24489 
399 ,74.0592 ,1.23440 ,0.00443 ,0.04342 
400 ,74.2512 ,1.23628 ,0.01811 ,0.17773 
401 ,74.4274 ,1.23809 ,-0.00242 ,-0.02373 
402 ,74.6195 ,1.24000 ,-0.02980 ,-0.29236 
403 ,74.8274 ,1.24209 ,-0.04006 ,-0.39310 
404 ,75.0197 ,1.24392 ,-0.04691 ,-0.46025 
405 ,75.2117 ,1.24596 ,-0.03322 ,-0.32594 
406 ,75.3875 ,1.24768 ,-0.05375 ,-0.52741 
407 ,75.5639 ,1.24950 ,-0.08113 ,-0.79604 
408 ,75.7238 ,1.25115 ,-0.08797 ,-0.86319 
409 ,75.9000 ,1.25280 ,-0.08797 ,-0.86319 
410 ,76.0919 ,1.25477 ,-0.07771 ,-0.76246 
411 ,76.2679 ,1.25652 ,-0.10166 ,-0.99751 
412 ,76.4599 ,1.25841 ,-0.11535 ,-1.13182 
413 ,76.6362 ,1.26017 ,-0.12562 ,-1.23255 
414 ,76.8123 ,1.26197 ,-0.11877 ,-1.16540 
415 ,77.0204 ,1.26399 ,-0.14957 ,-1.46760 
416 ,77.2125 ,1.26583 ,-0.15299 ,-1.50118 
417 ,77.3885 ,1.26771 ,-0.15642 ,-1.53476 
418 ,77.5645 ,1.26947 ,-0.17695 ,-1.73623 
419 ,77.7404 ,1.27116 ,-0.17695 ,-1.73623 
420 ,77.9328 ,1.27306 ,-0.18722 ,-1.83696 
421 ,78.1570 ,1.27524 ,-0.18722 ,-1.83696 
422 ,78.3488 ,1.27730 ,-0.20775 ,-2.03843 
423 ,78.5250 ,1.27902 ,-0.21459 ,-2.10559 
424 ,78.7009 ,1.28083 ,-0.23513 ,-2.30706 
425 ,78.8931 ,1.28271 ,-0.23513 ,-2.30706 
426 ,79.0691 ,1.28454 ,-0.23513 ,-2.30706 
427 ,79.2450 ,1.28629 ,-0.25224 ,-2.47495 
428 ,79.4374 ,1.28822 ,-0.26250 ,-2.57569 
429 ,79.6133 ,1.28995 ,-0.26250 ,-2.57569 
430 ,79.8051 ,1.29182 ,-0.28646 ,-2.81073 
431 ,79.9815 ,1.29361 ,-0.30015 ,-2.94505 
432 ,80.1577 ,1.29539 ,-0.31041 ,-3.04578 
433 ,80.3338 ,1.29717 ,-0.30357 ,-2.97863 
434 ,80.5418 ,1.29911 ,-0.32752 ,-3.21367 
435 ,80.7497 ,1.30125 ,-0.31384 ,-3.07936 
436 ,80.9258 ,1.30307 ,-0.34464 ,-3.38156 
437 ,81.1020 ,1.30482 ,-0.34464 ,-3.38156 
438 ,81.2780 ,1.30660 ,-0.35148 ,-3.44872 
439 ,81.4701 ,1.30848 ,-0.36517 ,-3.58303 
440 ,81.6621 ,1.31044 ,-0.37886 ,-3.71735 
441 ,81.8383 ,1.31216 ,-0.38912 ,-3.81808 
442 ,82.0304 ,1.31403 ,-0.37544 ,-3.68377 
443 ,82.2060 ,1.31585 ,-0.38912 ,-3.81808 
444 ,82.3825 ,1.31759 ,-0.40623 ,-3.98597 
445 ,82.5746 ,1.31954 ,-0.40623 ,-3.98597 
446 ,82.7506 ,1.32132 ,-0.40966 ,-4.01955 
447 ,82.9265 ,1.32305 ,-0.42335 ,-4.15387 
448 ,83.1187 ,1.32492 ,-0.43019 ,-4.22102 
449 ,83.3109 ,1.32694 ,-0.44388 ,-4.35534 
450 ,83.5189 ,1.32882 ,-0.43361 ,-4.25460 
451 ,83.6950 ,1.33076 ,-0.46783 ,-4.59038 
452 ,83.8711 ,1.33253 ,-0.45072 ,-4.42249 
453 ,84.0308 ,1.33420 ,-0.48152 ,-4.72470 
454 ,84.2072 ,1.33591 ,-0.49863 ,-4.89259 
455 ,84.3833 ,1.33766 ,-0.50206 ,-4.92617 
456 ,84.5594 ,1.33942 ,-0.51232 ,-5.02690 
457 ,84.7514 ,1.34126 ,-0.49179 ,-4.82543 
458 ,84.9275 ,1.34309 ,-0.52259 ,-5.12764 
459 ,85.1032 ,1.34493 ,-0.54997 ,-5.39626 
460 ,85.2957 ,1.34667 ,-0.52943 ,-5.19479 
461 ,85.5038 ,1.34869 ,-0.55339 ,-5.42984 
462 ,85.6959 ,1.35075 ,-0.55339 ,-5.42984 
463 ,85.8714 ,1.35250 ,-0.55339 ,-5.42984 
464 ,86.0638 ,1.35442 ,-0.57392 ,-5.63131 
