Data stamp = , 06-04-2022 17:00:25 861

Calibration Values: 
Slope = , 26.54 , g/V 
Offset Voltage at no contact = , -0.501760 , V 

No , Time , Stage Position ,   Mass , Force 
   ,  (s) ,      (mm)      ,   (g)  , (mN)  

1 ,0.0000 ,0.49945 ,5.15136 ,50.54519 
2 ,0.2181 ,0.49953 ,5.14794 ,50.51161 
3 ,0.4583 ,0.50017 ,5.16848 ,50.71308 
4 ,0.6506 ,0.50131 ,5.16163 ,50.64592 
5 ,0.8426 ,0.50271 ,5.15479 ,50.57876 
6 ,1.0186 ,0.50437 ,5.13768 ,50.41087 
7 ,1.1949 ,0.50612 ,5.15136 ,50.54519 
8 ,1.3707 ,0.50781 ,5.16505 ,50.67950 
9 ,1.5630 ,0.50977 ,5.14452 ,50.47803 
10 ,1.7550 ,0.51176 ,5.13768 ,50.41087 
11 ,1.9311 ,0.51354 ,5.12741 ,50.31014 
12 ,2.1070 ,0.51529 ,5.12399 ,50.27656 
13 ,2.2992 ,0.51721 ,5.08634 ,49.90720 
14 ,2.4750 ,0.51893 ,5.07608 ,49.80646 
15 ,2.6512 ,0.52077 ,5.06581 ,49.70573 
16 ,2.8435 ,0.52264 ,5.05212 ,49.57142 
17 ,3.0513 ,0.52471 ,5.04528 ,49.50426 
18 ,3.2275 ,0.52650 ,5.03159 ,49.36995 
19 ,3.4035 ,0.52829 ,5.02132 ,49.26921 
20 ,3.5958 ,0.53016 ,4.98026 ,48.86627 
21 ,3.7876 ,0.53214 ,5.00079 ,49.06774 
22 ,3.9799 ,0.53389 ,4.96999 ,48.76554 
23 ,4.1719 ,0.53596 ,4.95972 ,48.66480 
24 ,4.3477 ,0.53768 ,4.94946 ,48.56407 
25 ,4.5241 ,0.53946 ,4.93919 ,48.46333 
26 ,4.7003 ,0.54121 ,4.91523 ,48.22828 
27 ,4.8925 ,0.54314 ,4.91181 ,48.19471 
28 ,5.0843 ,0.54499 ,4.89128 ,47.99324 
29 ,5.2604 ,0.54682 ,4.87759 ,47.85892 
30 ,5.4683 ,0.54881 ,4.87759 ,47.85892 
31 ,5.6444 ,0.55064 ,4.85364 ,47.62387 
32 ,5.8364 ,0.55252 ,4.82284 ,47.32167 
33 ,6.0447 ,0.55459 ,4.81257 ,47.22093 
34 ,6.2367 ,0.55652 ,4.79888 ,47.08662 
35 ,6.4288 ,0.55845 ,4.78861 ,46.98589 
36 ,6.6049 ,0.56023 ,4.77150 ,46.81800 
37 ,6.7809 ,0.56200 ,4.76124 ,46.71726 
38 ,6.9570 ,0.56375 ,4.73386 ,46.44863 
39 ,7.1651 ,0.56576 ,4.73386 ,46.44863 
40 ,7.3413 ,0.56760 ,4.71675 ,46.28074 
41 ,7.5170 ,0.56938 ,4.69964 ,46.11285 
42 ,7.6935 ,0.57113 ,4.67226 ,45.84422 
43 ,7.8534 ,0.57286 ,4.66884 ,45.81065 
44 ,8.0295 ,0.57448 ,4.65857 ,45.70991 
45 ,8.2056 ,0.57622 ,4.65857 ,45.70991 
46 ,8.3817 ,0.57799 ,4.64488 ,45.57560 
47 ,8.5899 ,0.58006 ,4.63119 ,45.44128 
48 ,8.7659 ,0.58186 ,4.61066 ,45.23981 
49 ,8.9419 ,0.58361 ,4.60040 ,45.13908 
50 ,9.1498 ,0.58554 ,4.57644 ,44.90403 
51 ,9.3259 ,0.58745 ,4.57302 ,44.87045 
52 ,9.5022 ,0.58923 ,4.55933 ,44.73614 
53 ,9.6942 ,0.59114 ,4.52511 ,44.40036 
54 ,9.8702 ,0.59286 ,4.51484 ,44.29962 
55 ,10.0625 ,0.59471 ,4.49431 ,44.09815 
56 ,10.2864 ,0.59693 ,4.48404 ,43.99742 
57 ,10.4784 ,0.59885 ,4.47035 ,43.86310 
58 ,10.6707 ,0.60088 ,4.45324 ,43.69521 
59 ,10.8628 ,0.60274 ,4.43271 ,43.49374 
60 ,11.0224 ,0.60454 ,4.41902 ,43.35943 
61 ,11.1827 ,0.60610 ,4.40191 ,43.19154 
62 ,11.3589 ,0.60779 ,4.39164 ,43.09080 
63 ,11.5347 ,0.60949 ,4.36769 ,42.85576 
64 ,11.7431 ,0.61156 ,4.36769 ,42.85576 
65 ,11.9190 ,0.61338 ,4.35400 ,42.72144 
66 ,12.1113 ,0.61528 ,4.33004 ,42.48639 
67 ,12.3031 ,0.61717 ,4.33347 ,42.51997 
68 ,12.4793 ,0.61899 ,4.30267 ,42.21777 
69 ,12.6555 ,0.62074 ,4.28213 ,42.01630 
70 ,12.8635 ,0.62276 ,4.29240 ,42.11703 
71 ,13.0396 ,0.62455 ,4.27187 ,41.91556 
72 ,13.2156 ,0.62637 ,4.23765 ,41.57978 
73 ,13.4235 ,0.62843 ,4.22053 ,41.41189 
74 ,13.6159 ,0.63031 ,4.20685 ,41.27758 
75 ,13.8236 ,0.63226 ,4.20685 ,41.27758 
76 ,14.0001 ,0.63420 ,4.18631 ,41.07611 
77 ,14.1761 ,0.63592 ,4.16920 ,40.90821 
78 ,14.3682 ,0.63784 ,4.15209 ,40.74032 
79 ,14.5602 ,0.63966 ,4.12129 ,40.43812 
80 ,14.7361 ,0.64153 ,4.12129 ,40.43812 
81 ,14.9124 ,0.64332 ,4.09391 ,40.16949 
82 ,15.1045 ,0.64522 ,4.09391 ,40.16949 
83 ,15.2964 ,0.64711 ,4.06996 ,39.93444 
84 ,15.5046 ,0.64922 ,4.06996 ,39.93444 
85 ,15.6968 ,0.65112 ,4.04600 ,39.69940 
86 ,15.8888 ,0.65303 ,4.03916 ,39.63224 
87 ,16.0649 ,0.65481 ,4.00836 ,39.33003 
88 ,16.2566 ,0.65672 ,3.99125 ,39.16214 
89 ,16.4330 ,0.65854 ,3.98098 ,39.06141 
90 ,16.6250 ,0.66048 ,3.97756 ,39.02783 
91 ,16.8171 ,0.66236 ,3.95361 ,38.79278 
92 ,17.0093 ,0.66418 ,3.92623 ,38.52415 
93 ,17.1853 ,0.66602 ,3.93307 ,38.59131 
94 ,17.3614 ,0.66774 ,3.92281 ,38.49058 
95 ,17.5696 ,0.66973 ,3.88858 ,38.15479 
96 ,17.7936 ,0.67188 ,3.87147 ,37.98690 
97 ,17.9856 ,0.67396 ,3.86121 ,37.88617 
98 ,18.1617 ,0.67575 ,3.86121 ,37.88617 
99 ,18.3375 ,0.67752 ,3.84752 ,37.75185 
100 ,18.5139 ,0.67926 ,3.83041 ,37.58396 
101 ,18.7059 ,0.68120 ,3.80645 ,37.34891 
102 ,18.8819 ,0.68300 ,3.78592 ,37.14744 
103 ,19.0741 ,0.68483 ,3.76539 ,36.94597 
104 ,19.2341 ,0.68663 ,3.75854 ,36.87882 
105 ,19.4260 ,0.68839 ,3.75170 ,36.81166 
106 ,19.6023 ,0.69020 ,3.73459 ,36.64377 
107 ,19.7946 ,0.69209 ,3.71405 ,36.44230 
108 ,20.0023 ,0.69399 ,3.70037 ,36.30799 
109 ,20.2106 ,0.69616 ,3.66957 ,36.00578 
110 ,20.4025 ,0.69810 ,3.67983 ,36.10652 
111 ,20.5787 ,0.69996 ,3.64219 ,35.73716 
112 ,20.7707 ,0.70184 ,3.63192 ,35.63642 
113 ,20.9469 ,0.70364 ,3.60797 ,35.40137 
114 ,21.1230 ,0.70540 ,3.60112 ,35.33422 
115 ,21.3150 ,0.70728 ,3.60454 ,35.36779 
116 ,21.4912 ,0.70909 ,3.56348 ,34.96485 
117 ,21.6672 ,0.71086 ,3.56690 ,34.99843 
118 ,21.8594 ,0.71272 ,3.56690 ,34.99843 
119 ,22.0354 ,0.71451 ,3.55663 ,34.89770 
120 ,22.2272 ,0.71642 ,3.51899 ,34.52834 
121 ,22.4355 ,0.71846 ,3.50872 ,34.42760 
122 ,22.6114 ,0.72025 ,3.48477 ,34.19255 
123 ,22.8036 ,0.72212 ,3.48477 ,34.19255 
124 ,22.9797 ,0.72388 ,3.47108 ,34.05824 
125 ,23.1559 ,0.72569 ,3.46424 ,33.99108 
126 ,23.3479 ,0.72750 ,3.42659 ,33.62172 
127 ,23.5400 ,0.72954 ,3.43344 ,33.68888 
128 ,23.7156 ,0.73128 ,3.41975 ,33.55457 
129 ,23.8922 ,0.73306 ,3.39921 ,33.35310 
130 ,24.1002 ,0.73505 ,3.38895 ,33.25236 
131 ,24.2759 ,0.73684 ,3.36842 ,33.05089 
132 ,24.4518 ,0.73865 ,3.35130 ,32.88300 
133 ,24.6119 ,0.74038 ,3.33762 ,32.74869 
134 ,24.7883 ,0.74204 ,3.30339 ,32.41290 
135 ,24.9806 ,0.74386 ,3.31366 ,32.51364 
136 ,25.1727 ,0.74580 ,3.29655 ,32.34575 
137 ,25.3646 ,0.74768 ,3.28628 ,32.24501 
138 ,25.5567 ,0.74964 ,3.27602 ,32.14428 
139 ,25.7329 ,0.75146 ,3.25891 ,31.97639 
140 ,25.9089 ,0.75324 ,3.23153 ,31.70776 
141 ,26.0850 ,0.75496 ,3.21442 ,31.53987 
142 ,26.2770 ,0.75687 ,3.21784 ,31.57345 
143 ,26.4693 ,0.75873 ,3.20073 ,31.40555 
144 ,26.6454 ,0.76060 ,3.18704 ,31.27124 
145 ,26.8372 ,0.76243 ,3.17677 ,31.17051 
146 ,27.0133 ,0.76423 ,3.16309 ,31.03619 
147 ,27.2055 ,0.76616 ,3.13913 ,30.80115 
148 ,27.3815 ,0.76797 ,3.12544 ,30.66683 
149 ,27.5576 ,0.76966 ,3.12202 ,30.63325 
150 ,27.7335 ,0.77141 ,3.10149 ,30.43178 
151 ,27.9097 ,0.77315 ,3.08438 ,30.26389 
152 ,28.0858 ,0.77492 ,3.07069 ,30.12958 
153 ,28.2620 ,0.77676 ,3.05358 ,29.96169 
154 ,28.4858 ,0.77886 ,3.02962 ,29.72664 
155 ,28.6621 ,0.78078 ,3.02278 ,29.65948 
156 ,28.8382 ,0.78252 ,3.01935 ,29.62590 
157 ,29.0301 ,0.78438 ,2.99540 ,29.39086 
158 ,29.2221 ,0.78632 ,2.98171 ,29.25654 
159 ,29.4141 ,0.78823 ,2.98513 ,29.29012 
160 ,29.5904 ,0.79000 ,2.95433 ,28.98792 
161 ,29.7826 ,0.79196 ,2.93380 ,28.78645 
162 ,29.9586 ,0.79367 ,2.92696 ,28.71929 
163 ,30.1343 ,0.79558 ,2.90985 ,28.55140 
164 ,30.3108 ,0.79722 ,2.89958 ,28.45066 
165 ,30.5027 ,0.79913 ,2.87562 ,28.21562 
166 ,30.6789 ,0.80091 ,2.88247 ,28.28277 
167 ,30.8710 ,0.80279 ,2.86193 ,28.08130 
168 ,31.0470 ,0.80459 ,2.85167 ,27.98057 
169 ,31.2227 ,0.80632 ,2.82771 ,27.74552 
170 ,31.3831 ,0.80803 ,2.81745 ,27.64479 
171 ,31.5911 ,0.80991 ,2.81745 ,27.64479 
172 ,31.7673 ,0.81176 ,2.80718 ,27.54405 
173 ,31.9434 ,0.81355 ,2.76954 ,27.17469 
174 ,32.1194 ,0.81530 ,2.75927 ,27.07395 
175 ,32.2956 ,0.81708 ,2.75585 ,27.04038 
176 ,32.4716 ,0.81883 ,2.74216 ,26.90606 
177 ,32.6477 ,0.82055 ,2.72505 ,26.73817 
178 ,32.8237 ,0.82235 ,2.70109 ,26.50312 
179 ,33.0157 ,0.82423 ,2.71136 ,26.60386 
180 ,33.1921 ,0.82603 ,2.70109 ,26.50312 
181 ,33.3841 ,0.82788 ,2.66345 ,26.13376 
182 ,33.5601 ,0.82971 ,2.64976 ,25.99945 
183 ,33.7363 ,0.83146 ,2.65660 ,26.06661 
184 ,33.9279 ,0.83334 ,2.62581 ,25.76440 
185 ,34.1040 ,0.83508 ,2.61896 ,25.69724 
186 ,34.2801 ,0.83690 ,2.59158 ,25.42862 
187 ,34.4724 ,0.83881 ,2.60527 ,25.56293 
188 ,34.6646 ,0.84075 ,2.57105 ,25.22715 
189 ,34.8564 ,0.84264 ,2.56421 ,25.15999 
190 ,35.0327 ,0.84441 ,2.55394 ,25.05926 
191 ,35.2087 ,0.84614 ,2.53341 ,24.85779 
192 ,35.3847 ,0.84792 ,2.51630 ,24.68989 
193 ,35.5610 ,0.84971 ,2.50945 ,24.62274 
194 ,35.7530 ,0.85162 ,2.49576 ,24.48842 
195 ,35.9290 ,0.85334 ,2.49576 ,24.48842 
196 ,36.1052 ,0.85513 ,2.46154 ,24.15264 
197 ,36.2974 ,0.85704 ,2.44785 ,24.01833 
198 ,36.4891 ,0.85889 ,2.44101 ,23.95117 
199 ,36.6654 ,0.86072 ,2.43416 ,23.88402 
200 ,36.8894 ,0.86286 ,2.41705 ,23.71612 
201 ,37.0655 ,0.86470 ,2.38968 ,23.44750 
202 ,37.2417 ,0.86644 ,2.37599 ,23.31318 
203 ,37.4175 ,0.86828 ,2.35888 ,23.14529 
204 ,37.5934 ,0.87006 ,2.36572 ,23.21245 
205 ,37.7697 ,0.87178 ,2.35888 ,23.14529 
206 ,37.9460 ,0.87354 ,2.32465 ,22.80951 
207 ,38.1380 ,0.87542 ,2.30754 ,22.64162 
208 ,38.3460 ,0.87746 ,2.30070 ,22.57446 
209 ,38.5220 ,0.87929 ,2.28017 ,22.37299 
210 ,38.6983 ,0.88102 ,2.26648 ,22.23868 
211 ,38.8903 ,0.88300 ,2.26306 ,22.20510 
212 ,39.0665 ,0.88472 ,2.26648 ,22.23868 
213 ,39.2425 ,0.88649 ,2.24252 ,22.00363 
214 ,39.4186 ,0.88826 ,2.21172 ,21.70143 
215 ,39.6105 ,0.89010 ,2.21857 ,21.76858 
216 ,39.7865 ,0.89191 ,2.19803 ,21.56711 
217 ,39.9787 ,0.89383 ,2.16039 ,21.19775 
218 ,40.1549 ,0.89564 ,2.16723 ,21.26491 
219 ,40.3468 ,0.89749 ,2.14328 ,21.02986 
220 ,40.5230 ,0.89930 ,2.12617 ,20.86197 
221 ,40.7150 ,0.90113 ,2.11932 ,20.79481 
222 ,40.9070 ,0.90307 ,2.11590 ,20.76123 
223 ,41.0992 ,0.90507 ,2.08852 ,20.49261 
224 ,41.2754 ,0.90679 ,2.07484 ,20.35829 
225 ,41.4674 ,0.90867 ,2.06799 ,20.29114 
226 ,41.6755 ,0.91080 ,2.04746 ,20.08967 
227 ,41.8511 ,0.91263 ,2.03035 ,19.92178 
228 ,42.0272 ,0.91428 ,2.02350 ,19.85462 
229 ,42.2037 ,0.91610 ,2.00982 ,19.72031 
230 ,42.3958 ,0.91801 ,1.98928 ,19.51884 
231 ,42.5718 ,0.91979 ,1.97559 ,19.38452 
232 ,42.7479 ,0.92154 ,1.97559 ,19.38452 
233 ,42.9237 ,0.92338 ,1.95164 ,19.14948 
234 ,43.1001 ,0.92510 ,1.95164 ,19.14948 
235 ,43.2761 ,0.92680 ,1.91742 ,18.81369 
236 ,43.4842 ,0.92883 ,1.91742 ,18.81369 
237 ,43.6759 ,0.93080 ,1.89688 ,18.61222 
238 ,43.8524 ,0.93257 ,1.87293 ,18.37717 
239 ,44.0282 ,0.93444 ,1.86951 ,18.34360 
240 ,44.2044 ,0.93607 ,1.86951 ,18.34360 
241 ,44.3803 ,0.93786 ,1.86266 ,18.27644 
242 ,44.5564 ,0.93964 ,1.82844 ,17.94066 
243 ,44.7484 ,0.94149 ,1.81133 ,17.77276 
244 ,44.9408 ,0.94332 ,1.81817 ,17.83992 
245 ,45.1488 ,0.94546 ,1.79080 ,17.57129 
246 ,45.3409 ,0.94748 ,1.78395 ,17.50414 
247 ,45.5330 ,0.94928 ,1.77026 ,17.36983 
248 ,45.7250 ,0.95130 ,1.74631 ,17.13478 
249 ,45.9012 ,0.95305 ,1.74631 ,17.13478 
250 ,46.0928 ,0.95506 ,1.72578 ,16.93331 
251 ,46.2690 ,0.95675 ,1.70524 ,16.73184 
252 ,46.4773 ,0.95875 ,1.70524 ,16.73184 
253 ,46.6693 ,0.96065 ,1.68129 ,16.49679 
254 ,46.8454 ,0.96248 ,1.65391 ,16.22816 
255 ,47.0213 ,0.96426 ,1.66418 ,16.32890 
256 ,47.2135 ,0.96617 ,1.64022 ,16.09385 
257 ,47.3895 ,0.96796 ,1.62995 ,15.99311 
258 ,47.5818 ,0.96978 ,1.62653 ,15.95954 
259 ,47.7739 ,0.97165 ,1.61284 ,15.82522 
260 ,47.9819 ,0.97372 ,1.59573 ,15.65733 
261 ,48.1736 ,0.97569 ,1.56151 ,15.32155 
262 ,48.3500 ,0.97755 ,1.55809 ,15.28797 
263 ,48.5260 ,0.97924 ,1.54782 ,15.18724 
264 ,48.7182 ,0.98117 ,1.53413 ,15.05292 
265 ,48.9104 ,0.98315 ,1.51360 ,14.85145 
266 ,49.0864 ,0.98490 ,1.49991 ,14.71714 
267 ,49.2624 ,0.98674 ,1.50333 ,14.75072 
268 ,49.4545 ,0.98844 ,1.48965 ,14.61640 
269 ,49.6625 ,0.99060 ,1.47596 ,14.48209 
270 ,49.8386 ,0.99238 ,1.45542 ,14.28062 
271 ,50.0307 ,0.99436 ,1.43831 ,14.11273 
272 ,50.2067 ,0.99609 ,1.43489 ,14.07915 
273 ,50.3988 ,0.99805 ,1.42805 ,14.01199 
274 ,50.5909 ,0.99994 ,1.40067 ,13.74337 
275 ,50.7666 ,1.00169 ,1.38014 ,13.54190 
276 ,50.9430 ,1.00344 ,1.37329 ,13.47474 
277 ,51.1191 ,1.00517 ,1.37329 ,13.47474 
278 ,51.2950 ,1.00695 ,1.37329 ,13.47474 
279 ,51.4714 ,1.00877 ,1.34934 ,13.23969 
280 ,51.6792 ,1.01071 ,1.32538 ,13.00465 
281 ,51.8554 ,1.01259 ,1.33223 ,13.07180 
282 ,52.0314 ,1.01434 ,1.30485 ,12.80318 
283 ,52.2071 ,1.01612 ,1.28432 ,12.60171 
284 ,52.3832 ,1.01783 ,1.27747 ,12.53455 
285 ,52.5597 ,1.01963 ,1.27747 ,12.53455 
286 ,52.7518 ,1.02160 ,1.26378 ,12.40024 
287 ,52.9279 ,1.02329 ,1.24325 ,12.19877 
288 ,53.1199 ,1.02524 ,1.23298 ,12.09803 
289 ,53.2960 ,1.02695 ,1.23298 ,12.09803 
290 ,53.4718 ,1.02874 ,1.20903 ,11.86298 
291 ,53.6642 ,1.03058 ,1.19192 ,11.69509 
292 ,53.8560 ,1.03256 ,1.19192 ,11.69509 
293 ,54.0324 ,1.03434 ,1.17481 ,11.52720 
294 ,54.2243 ,1.03623 ,1.13716 ,11.15784 
295 ,54.4164 ,1.03814 ,1.15770 ,11.35931 
296 ,54.6244 ,1.04018 ,1.12347 ,11.02353 
297 ,54.8167 ,1.04209 ,1.13032 ,11.09068 
298 ,54.9928 ,1.04395 ,1.11663 ,10.95637 
299 ,55.1849 ,1.04580 ,1.08583 ,10.65416 
300 ,55.3609 ,1.04760 ,1.07556 ,10.55343 
301 ,55.5369 ,1.04937 ,1.07899 ,10.58701 
302 ,55.7291 ,1.05125 ,1.06187 ,10.41912 
303 ,55.9208 ,1.05322 ,1.04819 ,10.28480 
304 ,56.0974 ,1.05494 ,1.04134 ,10.21765 
305 ,56.2890 ,1.05693 ,1.02081 ,10.01618 
306 ,56.4654 ,1.05865 ,1.00712 ,9.88186 
307 ,56.6412 ,1.06040 ,0.98317 ,9.64682 
308 ,56.8175 ,1.06216 ,0.99685 ,9.78113 
309 ,57.0255 ,1.06419 ,0.96263 ,9.44535 
310 ,57.2018 ,1.06601 ,0.95921 ,9.41177 
311 ,57.3778 ,1.06776 ,0.95579 ,9.37819 
312 ,57.5860 ,1.06983 ,0.93868 ,9.21030 
313 ,57.7459 ,1.07158 ,0.91130 ,8.94167 
314 ,57.9221 ,1.07317 ,0.91130 ,8.94167 
315 ,58.0981 ,1.07496 ,0.90103 ,8.84094 
316 ,58.2902 ,1.07686 ,0.89761 ,8.80736 
317 ,58.4664 ,1.07864 ,0.88392 ,8.67305 
318 ,58.6584 ,1.08050 ,0.86681 ,8.50515 
319 ,58.8345 ,1.08237 ,0.86339 ,8.47158 
320 ,59.0264 ,1.08422 ,0.85654 ,8.40442 
321 ,59.2186 ,1.08608 ,0.83259 ,8.16937 
322 ,59.3946 ,1.08798 ,0.81548 ,8.00148 
323 ,59.5866 ,1.08986 ,0.81890 ,8.03506 
324 ,59.7626 ,1.09161 ,0.79495 ,7.80001 
325 ,59.9389 ,1.09336 ,0.79152 ,7.76643 
326 ,60.1468 ,1.09537 ,0.77441 ,7.59854 
327 ,60.3230 ,1.09725 ,0.76072 ,7.46423 
328 ,60.4991 ,1.09895 ,0.74704 ,7.32991 
329 ,60.6751 ,1.10073 ,0.75046 ,7.36349 
330 ,60.8671 ,1.10257 ,0.74361 ,7.29633 
331 ,61.0593 ,1.10451 ,0.71281 ,6.99413 
332 ,61.2514 ,1.10653 ,0.71281 ,6.99413 
333 ,61.4273 ,1.10821 ,0.71281 ,6.99413 
334 ,61.6195 ,1.11013 ,0.67859 ,6.65835 
335 ,61.8117 ,1.11200 ,0.68886 ,6.75908 
336 ,61.9873 ,1.11386 ,0.67517 ,6.62477 
337 ,62.1798 ,1.11569 ,0.64779 ,6.35614 
338 ,62.3557 ,1.11752 ,0.63410 ,6.22183 
339 ,62.5318 ,1.11927 ,0.64437 ,6.32256 
340 ,62.7079 ,1.12108 ,0.63410 ,6.22183 
341 ,62.9003 ,1.12299 ,0.61015 ,5.98678 
342 ,63.0919 ,1.12490 ,0.60330 ,5.91962 
343 ,63.2680 ,1.12663 ,0.59988 ,5.88605 
344 ,63.4443 ,1.12840 ,0.58619 ,5.75173 
345 ,63.6201 ,1.13020 ,0.55882 ,5.48311 
346 ,63.7965 ,1.13197 ,0.54171 ,5.31522 
347 ,63.9884 ,1.13386 ,0.54855 ,5.38237 
348 ,64.1645 ,1.13560 ,0.53486 ,5.24806 
349 ,64.3404 ,1.13739 ,0.53144 ,5.21448 
350 ,64.5328 ,1.13925 ,0.52117 ,5.11375 
351 ,64.7407 ,1.14137 ,0.49037 ,4.81154 
352 ,64.9169 ,1.14313 ,0.48695 ,4.77796 
353 ,65.0931 ,1.14491 ,0.46984 ,4.61007 
354 ,65.2850 ,1.14676 ,0.46642 ,4.57649 
355 ,65.4768 ,1.14874 ,0.43904 ,4.30787 
356 ,65.6531 ,1.15054 ,0.44931 ,4.40860 
357 ,65.8454 ,1.15239 ,0.44931 ,4.40860 
358 ,66.0373 ,1.15433 ,0.40824 ,4.00566 
359 ,66.2290 ,1.15625 ,0.42193 ,4.13997 
360 ,66.4056 ,1.15804 ,0.40824 ,4.00566 
361 ,66.5975 ,1.15994 ,0.38086 ,3.73703 
362 ,66.7737 ,1.16172 ,0.36718 ,3.60272 
363 ,66.9654 ,1.16355 ,0.37402 ,3.66988 
364 ,67.1418 ,1.16536 ,0.35691 ,3.50199 
365 ,67.3178 ,1.16712 ,0.35006 ,3.43483 
366 ,67.5099 ,1.16905 ,0.32269 ,3.16620 
367 ,67.6859 ,1.17080 ,0.33980 ,3.33410 
368 ,67.8619 ,1.17257 ,0.32269 ,3.16620 
369 ,68.0541 ,1.17444 ,0.29531 ,2.89758 
370 ,68.2303 ,1.17620 ,0.29873 ,2.93116 
371 ,68.4061 ,1.17807 ,0.28162 ,2.76326 
372 ,68.5982 ,1.17986 ,0.26109 ,2.56179 
373 ,68.7744 ,1.18168 ,0.26451 ,2.59537 
374 ,68.9505 ,1.18345 ,0.25767 ,2.52822 
375 ,69.1267 ,1.18523 ,0.26109 ,2.56179 
376 ,69.3504 ,1.18734 ,0.24398 ,2.39390 
377 ,69.5267 ,1.18921 ,0.22687 ,2.22601 
378 ,69.7188 ,1.19114 ,0.20976 ,2.05812 
379 ,69.8949 ,1.19292 ,0.19607 ,1.92381 
380 ,70.0710 ,1.19467 ,0.19949 ,1.95738 
381 ,70.2470 ,1.19641 ,0.18238 ,1.78949 
382 ,70.4547 ,1.19845 ,0.15842 ,1.55445 
383 ,70.6314 ,1.20024 ,0.14131 ,1.38655 
384 ,70.8073 ,1.20199 ,0.15842 ,1.55445 
385 ,70.9997 ,1.20396 ,0.14473 ,1.42013 
386 ,71.1755 ,1.20570 ,0.13105 ,1.28582 
387 ,71.3513 ,1.20748 ,0.11051 ,1.08435 
388 ,71.5271 ,1.20920 ,0.11051 ,1.08435 
389 ,71.7036 ,1.21098 ,0.10025 ,0.98361 
390 ,71.8798 ,1.21273 ,0.09340 ,0.91646 
391 ,72.0718 ,1.21461 ,0.07971 ,0.78214 
392 ,72.2479 ,1.21646 ,0.06260 ,0.61425 
393 ,72.4239 ,1.21821 ,0.05576 ,0.54710 
394 ,72.6160 ,1.22009 ,0.04207 ,0.41278 
395 ,72.7922 ,1.22188 ,0.02838 ,0.27847 
396 ,72.9842 ,1.22371 ,0.04891 ,0.47994 
397 ,73.1602 ,1.22554 ,0.03865 ,0.37920 
398 ,73.3533 ,1.22747 ,-0.00242 ,-0.02373 
399 ,73.5445 ,1.22939 ,-0.00242 ,-0.02373 
400 ,73.7526 ,1.23143 ,-0.01953 ,-0.19163 
401 ,73.9285 ,1.23321 ,-0.04348 ,-0.42667 
402 ,74.1206 ,1.23516 ,-0.02295 ,-0.22520 
403 ,74.2966 ,1.23688 ,-0.03322 ,-0.32594 
404 ,74.4887 ,1.23879 ,-0.06402 ,-0.62814 
405 ,74.6645 ,1.24057 ,-0.06402 ,-0.62814 
406 ,74.8245 ,1.24230 ,-0.06060 ,-0.59457 
407 ,75.0169 ,1.24404 ,-0.08455 ,-0.82961 
408 ,75.2089 ,1.24595 ,-0.10166 ,-0.99751 
409 ,75.4012 ,1.24793 ,-0.09140 ,-0.89677 
410 ,75.5773 ,1.24968 ,-0.10508 ,-1.03108 
411 ,75.7689 ,1.25156 ,-0.13931 ,-1.36687 
412 ,75.9454 ,1.25338 ,-0.12904 ,-1.26613 
413 ,76.1375 ,1.25528 ,-0.12219 ,-1.19898 
414 ,76.3135 ,1.25710 ,-0.14615 ,-1.43402 
415 ,76.5057 ,1.25889 ,-0.18037 ,-1.76981 
416 ,76.6818 ,1.26077 ,-0.16668 ,-1.63549 
417 ,76.8738 ,1.26259 ,-0.18722 ,-1.83696 
418 ,77.0498 ,1.26440 ,-0.20090 ,-1.97128 
419 ,77.2257 ,1.26618 ,-0.19406 ,-1.90412 
420 ,77.4179 ,1.26804 ,-0.19406 ,-1.90412 
421 ,77.6101 ,1.27000 ,-0.22486 ,-2.20632 
422 ,77.7862 ,1.27178 ,-0.23513 ,-2.30706 
423 ,77.9623 ,1.27354 ,-0.23513 ,-2.30706 
424 ,78.1543 ,1.27546 ,-0.22828 ,-2.23990 
425 ,78.3305 ,1.27727 ,-0.25224 ,-2.47495 
426 ,78.5224 ,1.27912 ,-0.26935 ,-2.64284 
427 ,78.6985 ,1.28087 ,-0.26250 ,-2.57569 
428 ,78.8746 ,1.28269 ,-0.27961 ,-2.74358 
429 ,79.0507 ,1.28441 ,-0.28646 ,-2.81073 
430 ,79.2268 ,1.28619 ,-0.31384 ,-3.07936 
431 ,79.4508 ,1.28835 ,-0.30015 ,-2.94505 
432 ,79.6268 ,1.29016 ,-0.33437 ,-3.28083 
433 ,79.8190 ,1.29198 ,-0.33095 ,-3.24725 
434 ,79.9787 ,1.29384 ,-0.32410 ,-3.18010 
435 ,80.1551 ,1.29548 ,-0.34806 ,-3.41514 
436 ,80.3313 ,1.29722 ,-0.34464 ,-3.38156 
437 ,80.5073 ,1.29899 ,-0.36859 ,-3.61661 
438 ,80.6992 ,1.30088 ,-0.36859 ,-3.61661 
439 ,80.8755 ,1.30268 ,-0.36175 ,-3.54946 
440 ,81.0671 ,1.30454 ,-0.38228 ,-3.75093 
441 ,81.2436 ,1.30635 ,-0.39597 ,-3.88524 
442 ,81.4192 ,1.30823 ,-0.40281 ,-3.95240 
443 ,81.5963 ,1.30986 ,-0.39939 ,-3.91882 
444 ,81.7875 ,1.31168 ,-0.43703 ,-4.28818 
445 ,81.9640 ,1.31353 ,-0.44730 ,-4.38891 
446 ,82.1396 ,1.31531 ,-0.44046 ,-4.32176 
447 ,82.3162 ,1.31706 ,-0.44730 ,-4.38891 
448 ,82.5081 ,1.31893 ,-0.47126 ,-4.62396 
449 ,82.7002 ,1.32090 ,-0.46099 ,-4.52323 
450 ,82.8760 ,1.32264 ,-0.46783 ,-4.59038 
451 ,83.1004 ,1.32476 ,-0.49521 ,-4.85901 
452 ,83.2764 ,1.32667 ,-0.48152 ,-4.72470 
453 ,83.4525 ,1.32843 ,-0.49863 ,-4.89259 
454 ,83.6287 ,1.33021 ,-0.50206 ,-4.92617 
455 ,83.8207 ,1.33203 ,-0.51917 ,-5.09406 
456 ,83.9969 ,1.33391 ,-0.53628 ,-5.26195 
457 ,84.1728 ,1.33563 ,-0.51574 ,-5.06048 
458 ,84.3328 ,1.33735 ,-0.53285 ,-5.22837 
459 ,84.4928 ,1.33894 ,-0.54654 ,-5.36268 
460 ,84.6845 ,1.34072 ,-0.55339 ,-5.42984 
461 ,84.8606 ,1.34255 ,-0.55681 ,-5.46342 
462 ,85.0206 ,1.34425 ,-0.58419 ,-5.73205 
463 ,85.1971 ,1.34586 ,-0.58077 ,-5.69847 
464 ,85.3891 ,1.34787 ,-0.59103 ,-5.79920 
