Data stamp = , 07-04-2022 14:17:04 112

Calibration Values: 
Slope = , 26.54 , g/V 
Offset Voltage at no contact = , -0.501760 , V 

No , Time , Stage Position ,   Mass , Force 
   ,  (s) ,      (mm)      ,   (g)  , (mN)  

1 ,0.0000 ,0.49930 ,5.17874 ,50.81381 
2 ,0.2199 ,0.49940 ,5.17190 ,50.74666 
3 ,0.5405 ,0.50029 ,5.18216 ,50.84739 
4 ,0.7484 ,0.50175 ,5.18901 ,50.91455 
5 ,0.9406 ,0.50344 ,5.17190 ,50.74666 
6 ,1.1328 ,0.50532 ,5.18901 ,50.91455 
7 ,1.3250 ,0.50720 ,5.19243 ,50.94813 
8 ,1.5009 ,0.50905 ,5.16163 ,50.64592 
9 ,1.6930 ,0.51086 ,5.17532 ,50.78023 
10 ,1.8688 ,0.51278 ,5.16163 ,50.64592 
11 ,2.0451 ,0.51453 ,5.15479 ,50.57876 
12 ,2.2372 ,0.51643 ,5.13425 ,50.37729 
13 ,2.4294 ,0.51828 ,5.12056 ,50.24298 
14 ,2.6214 ,0.52020 ,5.09319 ,49.97436 
15 ,2.8135 ,0.52210 ,5.07265 ,49.77289 
16 ,3.0053 ,0.52404 ,5.07608 ,49.80646 
17 ,3.1973 ,0.52599 ,5.05554 ,49.60499 
18 ,3.3738 ,0.52778 ,5.05212 ,49.57142 
19 ,3.5656 ,0.52972 ,5.03843 ,49.43710 
20 ,3.7417 ,0.53150 ,5.00421 ,49.10132 
21 ,3.9178 ,0.53319 ,4.98026 ,48.86627 
22 ,4.0938 ,0.53500 ,4.97341 ,48.79911 
23 ,4.3020 ,0.53696 ,4.97341 ,48.79911 
24 ,4.4778 ,0.53879 ,4.93919 ,48.46333 
25 ,4.6703 ,0.54064 ,4.91181 ,48.19471 
26 ,4.8782 ,0.54275 ,4.90497 ,48.12755 
27 ,5.0543 ,0.54466 ,4.90497 ,48.12755 
28 ,5.2302 ,0.54635 ,4.87759 ,47.85892 
29 ,5.4065 ,0.54814 ,4.86390 ,47.72461 
30 ,5.5826 ,0.54983 ,4.86390 ,47.72461 
31 ,5.7748 ,0.55180 ,4.81941 ,47.28809 
32 ,5.9672 ,0.55370 ,4.82284 ,47.32167 
33 ,6.1589 ,0.55559 ,4.79204 ,47.01946 
34 ,6.3507 ,0.55760 ,4.78177 ,46.91873 
35 ,6.5430 ,0.55950 ,4.77150 ,46.81800 
36 ,6.7191 ,0.56123 ,4.74755 ,46.58295 
37 ,6.9270 ,0.56326 ,4.74413 ,46.54937 
38 ,7.1189 ,0.56525 ,4.71333 ,46.24716 
39 ,7.2953 ,0.56697 ,4.69964 ,46.11285 
40 ,7.4873 ,0.56885 ,4.68937 ,46.01212 
41 ,7.6634 ,0.57068 ,4.67226 ,45.84422 
42 ,7.8395 ,0.57243 ,4.65515 ,45.67633 
43 ,8.0152 ,0.57420 ,4.62435 ,45.37413 
44 ,8.2073 ,0.57604 ,4.61408 ,45.27339 
45 ,8.3834 ,0.57792 ,4.60724 ,45.20624 
46 ,8.5753 ,0.57970 ,4.59013 ,45.03835 
47 ,8.7513 ,0.58155 ,4.57644 ,44.90403 
48 ,8.9276 ,0.58334 ,4.56275 ,44.76972 
49 ,9.1359 ,0.58531 ,4.53195 ,44.46751 
50 ,9.3117 ,0.58716 ,4.51484 ,44.29962 
51 ,9.4880 ,0.58885 ,4.51826 ,44.33320 
52 ,9.6642 ,0.59067 ,4.51484 ,44.29962 
53 ,9.8402 ,0.59245 ,4.49431 ,44.09815 
54 ,9.9999 ,0.59416 ,4.47035 ,43.86310 
55 ,10.1600 ,0.59576 ,4.46009 ,43.76237 
56 ,10.3199 ,0.59734 ,4.43955 ,43.56090 
57 ,10.5121 ,0.59907 ,4.42586 ,43.42659 
58 ,10.6722 ,0.60083 ,4.41902 ,43.35943 
59 ,10.8487 ,0.60254 ,4.38480 ,43.02365 
60 ,11.0406 ,0.60445 ,4.40191 ,43.19154 
61 ,11.2168 ,0.60621 ,4.38480 ,43.02365 
62 ,11.4086 ,0.60811 ,4.36427 ,42.82218 
63 ,11.6010 ,0.61003 ,4.35058 ,42.68786 
64 ,11.8089 ,0.61206 ,4.33689 ,42.55355 
65 ,12.0011 ,0.61392 ,4.31636 ,42.35208 
66 ,12.1770 ,0.61582 ,4.29924 ,42.18419 
67 ,12.3532 ,0.61755 ,4.28213 ,42.01630 
68 ,12.5129 ,0.61929 ,4.26845 ,41.88198 
69 ,12.6895 ,0.62092 ,4.26502 ,41.84841 
70 ,12.8815 ,0.62278 ,4.25476 ,41.74767 
71 ,13.0736 ,0.62474 ,4.20685 ,41.27758 
72 ,13.2656 ,0.62668 ,4.21027 ,41.31115 
73 ,13.4577 ,0.62848 ,4.19316 ,41.14326 
74 ,13.6337 ,0.63032 ,4.16920 ,40.90821 
75 ,13.8098 ,0.63207 ,4.16236 ,40.84106 
76 ,13.9858 ,0.63386 ,4.14867 ,40.70674 
77 ,14.1780 ,0.63579 ,4.12814 ,40.50527 
78 ,14.3541 ,0.63767 ,4.11103 ,40.33738 
79 ,14.5460 ,0.63942 ,4.10418 ,40.27023 
80 ,14.7222 ,0.64124 ,4.09391 ,40.16949 
81 ,14.9140 ,0.64310 ,4.05285 ,39.76655 
82 ,15.0904 ,0.64491 ,4.04258 ,39.66582 
83 ,15.2662 ,0.64663 ,4.04258 ,39.66582 
84 ,15.4745 ,0.64880 ,4.02205 ,39.46435 
85 ,15.6663 ,0.65065 ,3.99467 ,39.19572 
86 ,15.8427 ,0.65247 ,3.97756 ,39.02783 
87 ,16.0346 ,0.65437 ,3.97756 ,39.02783 
88 ,16.2268 ,0.65624 ,3.97072 ,38.96067 
89 ,16.4027 ,0.65806 ,3.96729 ,38.92709 
90 ,16.5951 ,0.65991 ,3.92965 ,38.55773 
91 ,16.7706 ,0.66176 ,3.92965 ,38.55773 
92 ,16.9470 ,0.66348 ,3.88858 ,38.15479 
93 ,17.1391 ,0.66536 ,3.89201 ,38.18837 
94 ,17.3149 ,0.66714 ,3.88174 ,38.08764 
95 ,17.4913 ,0.66892 ,3.85094 ,37.78543 
96 ,17.6834 ,0.67085 ,3.84067 ,37.68470 
97 ,17.8751 ,0.67266 ,3.82014 ,37.48323 
98 ,18.0516 ,0.67451 ,3.80987 ,37.38249 
99 ,18.2595 ,0.67657 ,3.80987 ,37.38249 
100 ,18.4518 ,0.67839 ,3.79961 ,37.28176 
101 ,18.6438 ,0.68042 ,3.75854 ,36.87882 
102 ,18.8356 ,0.68228 ,3.75512 ,36.84524 
103 ,19.0118 ,0.68410 ,3.74143 ,36.71093 
104 ,19.1879 ,0.68584 ,3.73117 ,36.61019 
105 ,19.3640 ,0.68762 ,3.71405 ,36.44230 
106 ,19.5560 ,0.68953 ,3.69694 ,36.27441 
107 ,19.7322 ,0.69129 ,3.69352 ,36.24083 
108 ,19.9240 ,0.69314 ,3.66957 ,36.00578 
109 ,20.1003 ,0.69499 ,3.65588 ,35.87147 
110 ,20.3084 ,0.69703 ,3.63192 ,35.63642 
111 ,20.4846 ,0.69885 ,3.61481 ,35.46853 
112 ,20.6927 ,0.70085 ,3.60454 ,35.36779 
113 ,20.8848 ,0.70278 ,3.58743 ,35.19990 
114 ,21.0605 ,0.70466 ,3.57717 ,35.09917 
115 ,21.2367 ,0.70638 ,3.57032 ,35.03201 
116 ,21.4129 ,0.70812 ,3.56348 ,34.96485 
117 ,21.5890 ,0.70989 ,3.52584 ,34.59549 
118 ,21.7649 ,0.71164 ,3.50872 ,34.42760 
119 ,21.9410 ,0.71339 ,3.50188 ,34.36045 
120 ,22.1170 ,0.71511 ,3.49846 ,34.32687 
121 ,22.2933 ,0.71691 ,3.47792 ,34.12540 
122 ,22.5013 ,0.71884 ,3.46424 ,33.99108 
123 ,22.6774 ,0.72075 ,3.45055 ,33.85677 
124 ,22.8695 ,0.72257 ,3.44028 ,33.75604 
125 ,23.0455 ,0.72446 ,3.39921 ,33.35310 
126 ,23.2217 ,0.72620 ,3.39579 ,33.31952 
127 ,23.4298 ,0.72819 ,3.38553 ,33.21878 
128 ,23.6056 ,0.73010 ,3.37526 ,33.11805 
129 ,23.7820 ,0.73178 ,3.35473 ,32.91658 
130 ,23.9579 ,0.73359 ,3.35473 ,32.91658 
131 ,24.1340 ,0.73528 ,3.34446 ,32.81584 
132 ,24.3101 ,0.73713 ,3.33762 ,32.74869 
133 ,24.5022 ,0.73900 ,3.28286 ,32.21143 
134 ,24.6943 ,0.74088 ,3.29655 ,32.34575 
135 ,24.8705 ,0.74271 ,3.28286 ,32.21143 
136 ,25.0626 ,0.74461 ,3.25548 ,31.94281 
137 ,25.2382 ,0.74637 ,3.24522 ,31.84207 
138 ,25.4145 ,0.74815 ,3.23495 ,31.74134 
139 ,25.6066 ,0.75001 ,3.21100 ,31.50629 
140 ,25.7827 ,0.75182 ,3.18704 ,31.27124 
141 ,25.9589 ,0.75354 ,3.20757 ,31.47271 
142 ,26.1349 ,0.75533 ,3.19046 ,31.30482 
143 ,26.3106 ,0.75707 ,3.17677 ,31.17051 
144 ,26.5029 ,0.75901 ,3.14597 ,30.86830 
145 ,26.6951 ,0.76093 ,3.14255 ,30.83472 
146 ,26.9032 ,0.76302 ,3.12886 ,30.70041 
147 ,27.0793 ,0.76479 ,3.11518 ,30.56610 
148 ,27.2712 ,0.76659 ,3.10491 ,30.46536 
149 ,27.4311 ,0.76837 ,3.08438 ,30.26389 
150 ,27.6074 ,0.77000 ,3.07411 ,30.16316 
151 ,27.7836 ,0.77182 ,3.06384 ,30.06242 
152 ,27.9754 ,0.77364 ,3.05700 ,29.99527 
153 ,28.1517 ,0.77549 ,3.03304 ,29.76022 
154 ,28.3276 ,0.77724 ,3.01935 ,29.62590 
155 ,28.5198 ,0.77912 ,2.99540 ,29.39086 
156 ,28.7118 ,0.78096 ,2.98171 ,29.25654 
157 ,28.8880 ,0.78284 ,2.97829 ,29.22297 
158 ,29.0960 ,0.78488 ,2.96460 ,29.08865 
159 ,29.2721 ,0.78666 ,2.94407 ,28.88718 
160 ,29.4483 ,0.78839 ,2.92011 ,28.65213 
161 ,29.6404 ,0.79029 ,2.90300 ,28.48424 
162 ,29.8484 ,0.79237 ,2.89958 ,28.45066 
163 ,30.0244 ,0.79419 ,2.86536 ,28.11488 
164 ,30.2161 ,0.79600 ,2.86536 ,28.11488 
165 ,30.4082 ,0.79800 ,2.86193 ,28.08130 
166 ,30.5843 ,0.79980 ,2.84825 ,27.94699 
167 ,30.7610 ,0.80157 ,2.82087 ,27.67836 
168 ,30.9529 ,0.80349 ,2.82087 ,27.67836 
169 ,31.1449 ,0.80534 ,2.80034 ,27.47689 
170 ,31.3689 ,0.80744 ,2.80034 ,27.47689 
171 ,31.5451 ,0.80937 ,2.77296 ,27.20827 
172 ,31.7372 ,0.81125 ,2.76954 ,27.17469 
173 ,31.9293 ,0.81320 ,2.75243 ,27.00680 
174 ,32.1053 ,0.81501 ,2.74216 ,26.90606 
175 ,32.2814 ,0.81680 ,2.70452 ,26.53670 
176 ,32.4573 ,0.81853 ,2.69767 ,26.46954 
177 ,32.6333 ,0.82027 ,2.69083 ,26.40239 
178 ,32.7935 ,0.82197 ,2.69083 ,26.40239 
179 ,32.9856 ,0.82375 ,2.65660 ,26.06661 
180 ,33.1618 ,0.82556 ,2.63949 ,25.89871 
181 ,33.3699 ,0.82754 ,2.64976 ,25.99945 
182 ,33.5778 ,0.82963 ,2.61554 ,25.66367 
183 ,33.7538 ,0.83146 ,2.61896 ,25.69724 
184 ,33.9460 ,0.83331 ,2.58816 ,25.39504 
185 ,34.1222 ,0.83518 ,2.57789 ,25.29430 
186 ,34.3141 ,0.83706 ,2.57105 ,25.22715 
187 ,34.4903 ,0.83885 ,2.57105 ,25.22715 
188 ,34.6823 ,0.84078 ,2.53341 ,24.85779 
189 ,34.8741 ,0.84263 ,2.52656 ,24.79063 
190 ,35.0505 ,0.84442 ,2.53341 ,24.85779 
191 ,35.2267 ,0.84617 ,2.51972 ,24.72347 
192 ,35.4027 ,0.84798 ,2.49576 ,24.48842 
193 ,35.5787 ,0.84973 ,2.48207 ,24.35411 
194 ,35.7708 ,0.85166 ,2.47865 ,24.32053 
195 ,35.9467 ,0.85336 ,2.46496 ,24.18622 
196 ,36.1391 ,0.85535 ,2.43759 ,23.91759 
197 ,36.2990 ,0.85706 ,2.42048 ,23.74970 
198 ,36.4750 ,0.85873 ,2.43074 ,23.85044 
199 ,36.6673 ,0.86050 ,2.41363 ,23.68255 
200 ,36.8593 ,0.86255 ,2.38625 ,23.41392 
201 ,37.0353 ,0.86429 ,2.36230 ,23.17887 
202 ,37.2274 ,0.86618 ,2.36914 ,23.24603 
203 ,37.4035 ,0.86795 ,2.35545 ,23.11171 
204 ,37.5796 ,0.86975 ,2.33492 ,22.91024 
205 ,37.7552 ,0.87147 ,2.32123 ,22.77593 
206 ,37.9318 ,0.87321 ,2.32123 ,22.77593 
207 ,38.1075 ,0.87500 ,2.31781 ,22.74235 
208 ,38.2838 ,0.87678 ,2.29385 ,22.50731 
209 ,38.4758 ,0.87860 ,2.27674 ,22.33941 
210 ,38.6682 ,0.88060 ,2.26990 ,22.27226 
211 ,38.8600 ,0.88255 ,2.23910 ,21.97005 
212 ,39.0359 ,0.88424 ,2.23568 ,21.93647 
213 ,39.2122 ,0.88605 ,2.22199 ,21.80216 
214 ,39.4203 ,0.88813 ,2.20488 ,21.63427 
215 ,39.6123 ,0.89004 ,2.19119 ,21.49996 
216 ,39.7884 ,0.89179 ,2.18777 ,21.46638 
217 ,39.9802 ,0.89372 ,2.17066 ,21.29849 
218 ,40.1401 ,0.89542 ,2.15012 ,21.09702 
219 ,40.3166 ,0.89711 ,2.13644 ,20.96270 
220 ,40.5086 ,0.89901 ,2.14670 ,21.06344 
221 ,40.6848 ,0.90073 ,2.12959 ,20.89555 
222 ,40.8767 ,0.90266 ,2.08852 ,20.49261 
223 ,41.0528 ,0.90447 ,2.09195 ,20.52619 
224 ,41.2449 ,0.90631 ,2.09537 ,20.55976 
225 ,41.4370 ,0.90820 ,2.05430 ,20.15682 
226 ,41.6292 ,0.91011 ,2.06457 ,20.25756 
227 ,41.8372 ,0.91218 ,2.03719 ,19.98893 
228 ,42.0293 ,0.91418 ,2.01666 ,19.78746 
229 ,42.2053 ,0.91591 ,2.02693 ,19.88820 
230 ,42.4135 ,0.91806 ,1.98586 ,19.48526 
231 ,42.6054 ,0.91992 ,1.99613 ,19.58599 
232 ,42.7977 ,0.92188 ,1.95848 ,19.21663 
233 ,42.9898 ,0.92381 ,1.95506 ,19.18305 
234 ,43.1660 ,0.92561 ,1.94137 ,19.04874 
235 ,43.3577 ,0.92752 ,1.92768 ,18.91443 
236 ,43.5339 ,0.92919 ,1.91057 ,18.74654 
237 ,43.7099 ,0.93101 ,1.89004 ,18.54507 
238 ,43.9181 ,0.93301 ,1.88319 ,18.47791 
239 ,44.0940 ,0.93489 ,1.85924 ,18.24286 
240 ,44.2862 ,0.93676 ,1.87977 ,18.44433 
241 ,44.4944 ,0.93875 ,1.83871 ,18.04139 
242 ,44.6702 ,0.94062 ,1.83186 ,17.97423 
243 ,44.8465 ,0.94232 ,1.82844 ,17.94066 
244 ,45.0386 ,0.94419 ,1.80449 ,17.70561 
245 ,45.2146 ,0.94604 ,1.79422 ,17.60487 
246 ,45.4066 ,0.94797 ,1.77711 ,17.43698 
247 ,45.5989 ,0.94992 ,1.78395 ,17.50414 
248 ,45.8065 ,0.95192 ,1.77026 ,17.36983 
249 ,45.9829 ,0.95369 ,1.76342 ,17.30267 
250 ,46.1592 ,0.95554 ,1.74631 ,17.13478 
251 ,46.3510 ,0.95741 ,1.70182 ,16.69826 
252 ,46.5269 ,0.95916 ,1.71551 ,16.83257 
253 ,46.7032 ,0.96094 ,1.70182 ,16.69826 
254 ,46.8952 ,0.96285 ,1.68471 ,16.53037 
255 ,47.0714 ,0.96461 ,1.66075 ,16.29532 
256 ,47.2635 ,0.96655 ,1.67444 ,16.42963 
257 ,47.4555 ,0.96844 ,1.64022 ,16.09385 
258 ,47.6317 ,0.97019 ,1.62995 ,15.99311 
259 ,47.8076 ,0.97193 ,1.61627 ,15.85880 
260 ,47.9997 ,0.97387 ,1.61969 ,15.89238 
261 ,48.1758 ,0.97562 ,1.59573 ,15.65733 
262 ,48.3680 ,0.97748 ,1.59916 ,15.69091 
263 ,48.5602 ,0.97949 ,1.57862 ,15.48944 
264 ,48.7521 ,0.98139 ,1.54782 ,15.18724 
265 ,48.9120 ,0.98315 ,1.52729 ,14.98577 
266 ,49.0883 ,0.98478 ,1.51702 ,14.88503 
267 ,49.2803 ,0.98662 ,1.50676 ,14.78430 
268 ,49.4727 ,0.98863 ,1.50676 ,14.78430 
269 ,49.6646 ,0.99054 ,1.49991 ,14.71714 
270 ,49.8565 ,0.99238 ,1.48280 ,14.54925 
271 ,50.0486 ,0.99440 ,1.45542 ,14.28062 
272 ,50.2567 ,0.99627 ,1.45200 ,14.24704 
273 ,50.4327 ,0.99822 ,1.43489 ,14.07915 
274 ,50.6089 ,0.99993 ,1.41436 ,13.87768 
275 ,50.7847 ,1.00172 ,1.41436 ,13.87768 
276 ,50.9609 ,1.00347 ,1.41094 ,13.84410 
277 ,51.1528 ,1.00541 ,1.38356 ,13.57548 
278 ,51.3129 ,1.00713 ,1.38356 ,13.57548 
279 ,51.5051 ,1.00891 ,1.38014 ,13.54190 
280 ,51.7131 ,1.01093 ,1.34249 ,13.17254 
281 ,51.8892 ,1.01271 ,1.35618 ,13.30685 
282 ,52.0652 ,1.01452 ,1.33565 ,13.10538 
283 ,52.2575 ,1.01634 ,1.31854 ,12.93749 
284 ,52.4491 ,1.01831 ,1.29458 ,12.70244 
285 ,52.6255 ,1.02010 ,1.28432 ,12.60171 
286 ,52.8016 ,1.02188 ,1.29458 ,12.70244 
287 ,52.9619 ,1.02358 ,1.28774 ,12.63528 
288 ,53.1378 ,1.02520 ,1.26720 ,12.43381 
289 ,53.3138 ,1.02698 ,1.26036 ,12.36666 
290 ,53.5058 ,1.02898 ,1.24325 ,12.19877 
291 ,53.6819 ,1.03068 ,1.22614 ,12.03088 
292 ,53.8580 ,1.03245 ,1.21587 ,11.93014 
293 ,54.0342 ,1.03415 ,1.20218 ,11.79583 
294 ,54.2262 ,1.03605 ,1.18165 ,11.59436 
295 ,54.4020 ,1.03790 ,1.17138 ,11.49362 
296 ,54.5784 ,1.03967 ,1.17823 ,11.56078 
297 ,54.7866 ,1.04172 ,1.15085 ,11.29215 
298 ,54.9630 ,1.04351 ,1.13374 ,11.12426 
299 ,55.1548 ,1.04539 ,1.13374 ,11.12426 
300 ,55.3628 ,1.04744 ,1.13032 ,11.09068 
301 ,55.5388 ,1.04928 ,1.11321 ,10.92279 
302 ,55.7144 ,1.05099 ,1.09952 ,10.78848 
303 ,55.9066 ,1.05287 ,1.09610 ,10.75490 
304 ,56.0827 ,1.05463 ,1.06530 ,10.45270 
305 ,56.2750 ,1.05655 ,1.05161 ,10.31838 
306 ,56.4831 ,1.05864 ,1.03792 ,10.18407 
307 ,56.6593 ,1.06046 ,1.03450 ,10.15049 
308 ,56.8352 ,1.06218 ,1.03450 ,10.15049 
309 ,57.0114 ,1.06397 ,1.02081 ,10.01618 
310 ,57.2035 ,1.06585 ,0.99685 ,9.78113 
311 ,57.3796 ,1.06763 ,1.00028 ,9.81471 
312 ,57.5716 ,1.06950 ,0.97290 ,9.54608 
313 ,57.7477 ,1.07133 ,0.95921 ,9.41177 
314 ,57.9397 ,1.07327 ,0.95921 ,9.41177 
315 ,58.1158 ,1.07496 ,0.94552 ,9.27745 
316 ,58.2919 ,1.07686 ,0.92157 ,9.04241 
317 ,58.4519 ,1.07849 ,0.91472 ,8.97525 
318 ,58.6281 ,1.08009 ,0.91472 ,8.97525 
319 ,58.8042 ,1.08189 ,0.88734 ,8.70662 
320 ,59.0123 ,1.08390 ,0.88392 ,8.67305 
321 ,59.2203 ,1.08588 ,0.87366 ,8.57231 
322 ,59.4124 ,1.08795 ,0.86681 ,8.50515 
323 ,59.6204 ,1.08993 ,0.83601 ,8.20295 
324 ,59.7965 ,1.09181 ,0.84628 ,8.30368 
325 ,59.9887 ,1.09368 ,0.81890 ,8.03506 
326 ,60.1648 ,1.09548 ,0.80863 ,7.93432 
327 ,60.3404 ,1.09736 ,0.80179 ,7.86717 
328 ,60.5167 ,1.09903 ,0.79152 ,7.76643 
329 ,60.6929 ,1.10076 ,0.79495 ,7.80001 
330 ,60.8849 ,1.10261 ,0.77099 ,7.56496 
331 ,61.0611 ,1.10446 ,0.75388 ,7.39707 
332 ,61.2531 ,1.10630 ,0.76072 ,7.46423 
333 ,61.4612 ,1.10838 ,0.72650 ,7.12844 
334 ,61.6372 ,1.11018 ,0.73677 ,7.22918 
335 ,61.8134 ,1.11197 ,0.72992 ,7.16202 
336 ,62.0052 ,1.11386 ,0.69913 ,6.85982 
337 ,62.1815 ,1.11570 ,0.68201 ,6.69193 
338 ,62.3732 ,1.11754 ,0.69570 ,6.82624 
339 ,62.5496 ,1.11930 ,0.67517 ,6.62477 
340 ,62.7256 ,1.12111 ,0.66148 ,6.49046 
341 ,62.9178 ,1.12293 ,0.64779 ,6.35614 
342 ,63.1097 ,1.12484 ,0.64779 ,6.35614 
343 ,63.3019 ,1.12691 ,0.62726 ,6.15467 
344 ,63.4779 ,1.12861 ,0.61699 ,6.05394 
345 ,63.6701 ,1.13050 ,0.59304 ,5.81889 
346 ,63.8780 ,1.13256 ,0.59988 ,5.88605 
347 ,64.0863 ,1.13459 ,0.58619 ,5.75173 
348 ,64.2783 ,1.13654 ,0.57251 ,5.61742 
349 ,64.4862 ,1.13861 ,0.55539 ,5.44953 
350 ,64.6783 ,1.14060 ,0.52459 ,5.14732 
351 ,64.8545 ,1.14237 ,0.54171 ,5.31522 
352 ,65.0306 ,1.14412 ,0.52802 ,5.18090 
353 ,65.2067 ,1.14589 ,0.51433 ,5.04659 
354 ,65.3988 ,1.14778 ,0.49380 ,4.84512 
355 ,65.5749 ,1.14956 ,0.49380 ,4.84512 
356 ,65.7508 ,1.15132 ,0.49037 ,4.81154 
357 ,65.9430 ,1.15323 ,0.45615 ,4.47576 
358 ,66.1191 ,1.15497 ,0.44931 ,4.40860 
359 ,66.3111 ,1.15691 ,0.44588 ,4.37502 
360 ,66.4873 ,1.15870 ,0.43562 ,4.27429 
361 ,66.6634 ,1.16051 ,0.41509 ,4.07282 
362 ,66.8716 ,1.16236 ,0.41166 ,4.03924 
363 ,67.0634 ,1.16447 ,0.39797 ,3.90493 
364 ,67.2396 ,1.16621 ,0.38086 ,3.73703 
365 ,67.4154 ,1.16795 ,0.38086 ,3.73703 
366 ,67.5917 ,1.16970 ,0.36718 ,3.60272 
367 ,67.7674 ,1.17147 ,0.37402 ,3.66988 
368 ,67.9599 ,1.17329 ,0.35006 ,3.43483 
369 ,68.1515 ,1.17533 ,0.34664 ,3.40125 
370 ,68.3280 ,1.17706 ,0.33980 ,3.33410 
371 ,68.5198 ,1.17899 ,0.31584 ,3.09905 
372 ,68.7281 ,1.18100 ,0.32611 ,3.19978 
373 ,68.9039 ,1.18286 ,0.28847 ,2.83042 
374 ,69.0800 ,1.18461 ,0.27820 ,2.72969 
375 ,69.2878 ,1.18655 ,0.27135 ,2.66253 
376 ,69.4803 ,1.18858 ,0.26451 ,2.59537 
377 ,69.6724 ,1.19052 ,0.25082 ,2.46106 
378 ,69.8487 ,1.19225 ,0.25424 ,2.49464 
379 ,70.0406 ,1.19418 ,0.22687 ,2.22601 
380 ,70.2168 ,1.19595 ,0.21660 ,2.12528 
381 ,70.4243 ,1.19791 ,0.20976 ,2.05812 
382 ,70.6004 ,1.19983 ,0.19264 ,1.89023 
383 ,70.7605 ,1.20152 ,0.17896 ,1.75592 
384 ,70.9204 ,1.20311 ,0.17553 ,1.72234 
385 ,71.0970 ,1.20480 ,0.17211 ,1.68876 
386 ,71.3051 ,1.20678 ,0.16527 ,1.62160 
387 ,71.4970 ,1.20874 ,0.13447 ,1.31940 
388 ,71.6894 ,1.21065 ,0.15500 ,1.52087 
389 ,71.8814 ,1.21253 ,0.13105 ,1.28582 
390 ,72.0571 ,1.21436 ,0.10025 ,0.98361 
391 ,72.2335 ,1.21611 ,0.10025 ,0.98361 
392 ,72.4257 ,1.21802 ,0.11051 ,1.08435 
393 ,72.6176 ,1.21995 ,0.08998 ,0.88288 
394 ,72.8097 ,1.22191 ,0.10025 ,0.98361 
395 ,72.9857 ,1.22363 ,0.08314 ,0.81572 
396 ,73.1616 ,1.22537 ,0.05234 ,0.51352 
397 ,73.3380 ,1.22719 ,0.05234 ,0.51352 
398 ,73.5137 ,1.22897 ,0.03865 ,0.37920 
399 ,73.6901 ,1.23070 ,0.03180 ,0.31205 
400 ,73.8820 ,1.23255 ,0.01811 ,0.17773 
401 ,74.0578 ,1.23432 ,0.01811 ,0.17773 
402 ,74.2342 ,1.23608 ,-0.01269 ,-0.12447 
403 ,74.4104 ,1.23789 ,0.01127 ,0.11058 
404 ,74.6345 ,1.23997 ,-0.01269 ,-0.12447 
405 ,74.8105 ,1.24184 ,-0.02295 ,-0.22520 
406 ,74.9864 ,1.24362 ,-0.02980 ,-0.29236 
407 ,75.1786 ,1.24545 ,-0.02980 ,-0.29236 
408 ,75.3546 ,1.24729 ,-0.06060 ,-0.59457 
409 ,75.5308 ,1.24905 ,-0.05717 ,-0.56099 
410 ,75.7068 ,1.25082 ,-0.06744 ,-0.66172 
411 ,75.8990 ,1.25281 ,-0.07086 ,-0.69530 
412 ,76.0911 ,1.25459 ,-0.08455 ,-0.82961 
413 ,76.2827 ,1.25653 ,-0.10508 ,-1.03108 
414 ,76.4592 ,1.25840 ,-0.09140 ,-0.89677 
415 ,76.6512 ,1.26029 ,-0.12562 ,-1.23255 
416 ,76.8273 ,1.26202 ,-0.12562 ,-1.23255 
417 ,77.0193 ,1.26398 ,-0.14273 ,-1.40045 
418 ,77.2115 ,1.26580 ,-0.16326 ,-1.60191 
419 ,77.4354 ,1.26794 ,-0.15642 ,-1.53476 
420 ,77.6277 ,1.27000 ,-0.18722 ,-1.83696 
421 ,77.8039 ,1.27182 ,-0.17011 ,-1.66907 
422 ,77.9957 ,1.27373 ,-0.19748 ,-1.93770 
423 ,78.1879 ,1.27568 ,-0.21117 ,-2.07201 
424 ,78.3797 ,1.27756 ,-0.19748 ,-1.93770 
425 ,78.5719 ,1.27943 ,-0.21459 ,-2.10559 
426 ,78.7641 ,1.28135 ,-0.23170 ,-2.27348 
427 ,78.9400 ,1.28316 ,-0.23855 ,-2.34064 
428 ,79.1484 ,1.28507 ,-0.23513 ,-2.30706 
429 ,79.3402 ,1.28712 ,-0.24881 ,-2.44137 
430 ,79.5160 ,1.28896 ,-0.25224 ,-2.47495 
431 ,79.6924 ,1.29065 ,-0.27619 ,-2.71000 
432 ,79.8688 ,1.29249 ,-0.27277 ,-2.67642 
433 ,80.0445 ,1.29421 ,-0.28646 ,-2.81073 
434 ,80.2368 ,1.29607 ,-0.30015 ,-2.94505 
435 ,80.4448 ,1.29808 ,-0.30015 ,-2.94505 
436 ,80.6210 ,1.29997 ,-0.30357 ,-2.97863 
437 ,80.8129 ,1.30193 ,-0.32410 ,-3.18010 
438 ,80.9891 ,1.30368 ,-0.34806 ,-3.41514 
439 ,81.1811 ,1.30546 ,-0.34806 ,-3.41514 
440 ,81.3731 ,1.30743 ,-0.36517 ,-3.58303 
441 ,81.5651 ,1.30932 ,-0.35148 ,-3.44872 
442 ,81.7574 ,1.31132 ,-0.37544 ,-3.68377 
443 ,81.9494 ,1.31327 ,-0.39255 ,-3.85166 
444 ,82.1416 ,1.31515 ,-0.37886 ,-3.71735 
445 ,82.3177 ,1.31692 ,-0.38912 ,-3.81808 
446 ,82.5255 ,1.31881 ,-0.39255 ,-3.85166 
447 ,82.7014 ,1.32075 ,-0.38912 ,-3.81808 
448 ,82.8778 ,1.32253 ,-0.41650 ,-4.08671 
449 ,83.0539 ,1.32428 ,-0.44046 ,-4.32176 
450 ,83.2299 ,1.32603 ,-0.44388 ,-4.35534 
451 ,83.4061 ,1.32780 ,-0.43361 ,-4.25460 
452 ,83.5983 ,1.32966 ,-0.45414 ,-4.45607 
453 ,83.7737 ,1.33152 ,-0.46099 ,-4.52323 
454 ,83.9500 ,1.33324 ,-0.48494 ,-4.75828 
455 ,84.1584 ,1.33525 ,-0.48152 ,-4.72470 
456 ,84.3342 ,1.33713 ,-0.49863 ,-4.89259 
457 ,84.5105 ,1.33882 ,-0.50890 ,-4.99332 
458 ,84.7184 ,1.34086 ,-0.51232 ,-5.02690 
459 ,84.8945 ,1.34270 ,-0.50548 ,-4.95975 
460 ,85.0867 ,1.34462 ,-0.53285 ,-5.22837 
461 ,85.2788 ,1.34645 ,-0.52259 ,-5.12764 
462 ,85.4709 ,1.34838 ,-0.54312 ,-5.32911 
463 ,85.6470 ,1.35018 ,-0.56365 ,-5.53058 
464 ,85.8548 ,1.35213 ,-0.54654 ,-5.36268 
