Data stamp = , 07-04-2022 06:07:06 256

Calibration Values: 
Slope = , 26.54 , g/V 
Offset Voltage at no contact = , -0.501760 , V 

No , Time , Stage Position ,   Mass , Force 
   ,  (s) ,      (mm)      ,   (g)  , (mN)  

1 ,0.0000 ,0.49939 ,5.19585 ,50.98170 
2 ,0.3007 ,0.49959 ,5.20270 ,51.04886 
3 ,0.7969 ,0.50143 ,5.19585 ,50.98170 
4 ,1.0370 ,0.50446 ,5.18901 ,50.91455 
5 ,1.2452 ,0.50652 ,5.19243 ,50.94813 
6 ,1.4372 ,0.50848 ,5.21296 ,51.14960 
7 ,1.6288 ,0.51036 ,5.19243 ,50.94813 
8 ,1.8049 ,0.51220 ,5.17874 ,50.81381 
9 ,1.9813 ,0.51402 ,5.16163 ,50.64592 
10 ,2.2052 ,0.51622 ,5.15136 ,50.54519 
11 ,2.3971 ,0.51806 ,5.15479 ,50.57876 
12 ,2.5736 ,0.51991 ,5.13768 ,50.41087 
13 ,2.7817 ,0.52185 ,5.10003 ,50.04151 
14 ,2.9577 ,0.52380 ,5.11030 ,50.14225 
15 ,3.1338 ,0.52548 ,5.09661 ,50.00793 
16 ,3.3094 ,0.52726 ,5.07608 ,49.80646 
17 ,3.4856 ,0.52905 ,5.05897 ,49.63857 
18 ,3.6619 ,0.53083 ,5.04870 ,49.53784 
19 ,3.8860 ,0.53294 ,5.03159 ,49.36995 
20 ,4.1098 ,0.53526 ,5.00763 ,49.13490 
21 ,4.2862 ,0.53702 ,4.99052 ,48.96701 
22 ,4.5260 ,0.53944 ,4.96999 ,48.76554 
23 ,4.7021 ,0.54123 ,4.95288 ,48.59764 
24 ,4.8785 ,0.54297 ,4.92892 ,48.36260 
25 ,5.1022 ,0.54513 ,4.91181 ,48.19471 
26 ,5.2622 ,0.54690 ,4.89470 ,48.02681 
27 ,5.4710 ,0.54884 ,4.88101 ,47.89250 
28 ,5.6944 ,0.55106 ,4.85706 ,47.65745 
29 ,5.8705 ,0.55288 ,4.84679 ,47.55672 
30 ,6.0468 ,0.55463 ,4.82284 ,47.32167 
31 ,6.3027 ,0.55701 ,4.81257 ,47.22093 
32 ,6.4947 ,0.55906 ,4.79888 ,47.08662 
33 ,6.6873 ,0.56097 ,4.77493 ,46.85157 
34 ,6.8950 ,0.56304 ,4.76808 ,46.78442 
35 ,7.0712 ,0.56486 ,4.72702 ,46.38148 
36 ,7.2472 ,0.56661 ,4.73728 ,46.48221 
37 ,7.4393 ,0.56843 ,4.70648 ,46.18001 
38 ,7.6155 ,0.57025 ,4.68937 ,46.01212 
39 ,7.8075 ,0.57215 ,4.66542 ,45.77707 
40 ,7.9834 ,0.57397 ,4.65857 ,45.70991 
41 ,8.1754 ,0.57581 ,4.64146 ,45.54202 
42 ,8.3515 ,0.57763 ,4.63804 ,45.50844 
43 ,8.5276 ,0.57939 ,4.62777 ,45.40771 
44 ,8.7038 ,0.58116 ,4.60040 ,45.13908 
45 ,8.8799 ,0.58292 ,4.57986 ,44.93761 
46 ,9.0559 ,0.58465 ,4.55591 ,44.70256 
47 ,9.2319 ,0.58651 ,4.54222 ,44.56825 
48 ,9.4081 ,0.58817 ,4.55249 ,44.66898 
49 ,9.5842 ,0.58996 ,4.52853 ,44.43394 
50 ,9.7602 ,0.59172 ,4.50457 ,44.19889 
51 ,9.9364 ,0.59347 ,4.49089 ,44.06457 
52 ,10.1123 ,0.59527 ,4.47378 ,43.89668 
53 ,10.3043 ,0.59712 ,4.47378 ,43.89668 
54 ,10.4808 ,0.59894 ,4.43613 ,43.52732 
55 ,10.6565 ,0.60064 ,4.42244 ,43.39301 
56 ,10.8326 ,0.60245 ,4.41902 ,43.35943 
57 ,11.0567 ,0.60468 ,4.40533 ,43.22512 
58 ,11.2327 ,0.60650 ,4.40533 ,43.22512 
59 ,11.4250 ,0.60831 ,4.36084 ,42.78860 
60 ,11.6809 ,0.61082 ,4.34373 ,42.62071 
61 ,11.8730 ,0.61280 ,4.33347 ,42.51997 
62 ,12.0496 ,0.61465 ,4.33689 ,42.55355 
63 ,12.2732 ,0.61690 ,4.29240 ,42.11703 
64 ,12.4493 ,0.61865 ,4.27529 ,41.94914 
65 ,12.6420 ,0.62047 ,4.27529 ,41.94914 
66 ,12.8655 ,0.62277 ,4.23765 ,41.57978 
67 ,13.0415 ,0.62455 ,4.22396 ,41.44547 
68 ,13.2176 ,0.62625 ,4.20000 ,41.21042 
69 ,13.3937 ,0.62809 ,4.19658 ,41.17684 
70 ,13.5858 ,0.62990 ,4.19316 ,41.14326 
71 ,13.7942 ,0.63189 ,4.16578 ,40.87464 
72 ,13.9859 ,0.63398 ,4.15894 ,40.80748 
73 ,14.1781 ,0.63582 ,4.13156 ,40.53885 
74 ,14.3541 ,0.63764 ,4.11787 ,40.40454 
75 ,14.5301 ,0.63940 ,4.11445 ,40.37096 
76 ,14.7063 ,0.64114 ,4.09734 ,40.20307 
77 ,14.8822 ,0.64293 ,4.06996 ,39.93444 
78 ,15.0423 ,0.64466 ,4.03916 ,39.63224 
79 ,15.2184 ,0.64629 ,4.04943 ,39.73297 
80 ,15.3945 ,0.64801 ,4.02547 ,39.49793 
81 ,15.5706 ,0.64987 ,4.02547 ,39.49793 
82 ,15.7466 ,0.65159 ,4.01178 ,39.36361 
83 ,15.9229 ,0.65333 ,3.99809 ,39.22930 
84 ,16.0828 ,0.65507 ,3.98098 ,39.06141 
85 ,16.2428 ,0.65664 ,3.95018 ,38.75920 
86 ,16.4188 ,0.65832 ,3.93307 ,38.59131 
87 ,16.5950 ,0.66004 ,3.93650 ,38.62489 
88 ,16.7869 ,0.66191 ,3.93307 ,38.59131 
89 ,16.9794 ,0.66383 ,3.90570 ,38.32268 
90 ,17.1713 ,0.66578 ,3.89543 ,38.22195 
91 ,17.3476 ,0.66758 ,3.89201 ,38.18837 
92 ,17.5396 ,0.66948 ,3.85094 ,37.78543 
93 ,17.7157 ,0.67132 ,3.84410 ,37.71828 
94 ,17.8920 ,0.67304 ,3.83041 ,37.58396 
95 ,18.1000 ,0.67507 ,3.80645 ,37.34891 
96 ,18.2921 ,0.67696 ,3.80303 ,37.31534 
97 ,18.4682 ,0.67883 ,3.78250 ,37.11387 
98 ,18.6442 ,0.68052 ,3.76539 ,36.94597 
99 ,18.8361 ,0.68246 ,3.74485 ,36.74450 
100 ,19.0283 ,0.68431 ,3.74143 ,36.71093 
101 ,19.2204 ,0.68625 ,3.71063 ,36.40872 
102 ,19.4125 ,0.68826 ,3.70721 ,36.37514 
103 ,19.5886 ,0.68999 ,3.68668 ,36.17367 
104 ,19.7804 ,0.69195 ,3.68325 ,36.14010 
105 ,19.9565 ,0.69371 ,3.65588 ,35.87147 
106 ,20.1486 ,0.69547 ,3.64903 ,35.80431 
107 ,20.3405 ,0.69751 ,3.62508 ,35.56926 
108 ,20.5169 ,0.69931 ,3.61139 ,35.43495 
109 ,20.6928 ,0.70107 ,3.59086 ,35.23348 
110 ,20.8847 ,0.70294 ,3.58743 ,35.19990 
111 ,21.0770 ,0.70480 ,3.57717 ,35.09917 
112 ,21.2533 ,0.70659 ,3.55321 ,34.86412 
113 ,21.4453 ,0.70853 ,3.55321 ,34.86412 
114 ,21.6373 ,0.71044 ,3.52241 ,34.56192 
115 ,21.8134 ,0.71222 ,3.51215 ,34.46118 
116 ,21.9736 ,0.71394 ,3.50530 ,34.39402 
117 ,22.1335 ,0.71554 ,3.49161 ,34.25971 
118 ,22.3256 ,0.71729 ,3.47450 ,34.09182 
119 ,22.5017 ,0.71910 ,3.45739 ,33.92393 
120 ,22.6775 ,0.72083 ,3.41975 ,33.55457 
121 ,22.8539 ,0.72260 ,3.42317 ,33.58814 
122 ,23.0459 ,0.72459 ,3.40264 ,33.38667 
123 ,23.2221 ,0.72629 ,3.40948 ,33.45383 
124 ,23.4297 ,0.72831 ,3.38210 ,33.18520 
125 ,23.6062 ,0.73015 ,3.38553 ,33.21878 
126 ,23.7978 ,0.73196 ,3.35473 ,32.91658 
127 ,23.9746 ,0.73385 ,3.32735 ,32.64795 
128 ,24.1503 ,0.73557 ,3.33077 ,32.68153 
129 ,24.3425 ,0.73744 ,3.31024 ,32.48006 
130 ,24.5185 ,0.73926 ,3.29655 ,32.34575 
131 ,24.6945 ,0.74105 ,3.26575 ,32.04354 
132 ,24.8706 ,0.74280 ,3.26917 ,32.07712 
133 ,25.0468 ,0.74455 ,3.26917 ,32.07712 
134 ,25.2388 ,0.74639 ,3.23153 ,31.70776 
135 ,25.4470 ,0.74847 ,3.23495 ,31.74134 
136 ,25.6228 ,0.75034 ,3.22468 ,31.64060 
137 ,25.7990 ,0.75206 ,3.19388 ,31.33840 
138 ,25.9752 ,0.75383 ,3.17335 ,31.13693 
139 ,26.1670 ,0.75568 ,3.17677 ,31.17051 
140 ,26.3592 ,0.75761 ,3.14940 ,30.90188 
141 ,26.5513 ,0.75959 ,3.14597 ,30.86830 
142 ,26.7274 ,0.76138 ,3.14597 ,30.86830 
143 ,26.9031 ,0.76313 ,3.09806 ,30.39821 
144 ,27.0955 ,0.76498 ,3.09464 ,30.36463 
145 ,27.2871 ,0.76685 ,3.08438 ,30.26389 
146 ,27.4637 ,0.76872 ,3.08095 ,30.23031 
147 ,27.6555 ,0.77061 ,3.03989 ,29.82737 
148 ,27.8319 ,0.77242 ,3.03304 ,29.76022 
149 ,28.0239 ,0.77422 ,3.02620 ,29.69306 
150 ,28.2000 ,0.77606 ,2.99882 ,29.42444 
151 ,28.3761 ,0.77785 ,3.01593 ,29.59233 
152 ,28.5522 ,0.77959 ,2.97829 ,29.22297 
153 ,28.7282 ,0.78135 ,2.99198 ,29.35728 
154 ,28.9362 ,0.78338 ,2.93722 ,28.82003 
155 ,29.1122 ,0.78520 ,2.93380 ,28.78645 
156 ,29.3045 ,0.78707 ,2.93038 ,28.75287 
157 ,29.4964 ,0.78911 ,2.92011 ,28.65213 
158 ,29.6885 ,0.79091 ,2.91327 ,28.58498 
159 ,29.8806 ,0.79278 ,2.87562 ,28.21562 
160 ,30.0568 ,0.79459 ,2.85851 ,28.04772 
161 ,30.2327 ,0.79642 ,2.85167 ,27.98057 
162 ,30.4088 ,0.79816 ,2.85509 ,28.01415 
163 ,30.6010 ,0.79998 ,2.83456 ,27.81268 
164 ,30.7932 ,0.80201 ,2.80376 ,27.51047 
165 ,30.9690 ,0.80375 ,2.79691 ,27.44332 
166 ,31.1612 ,0.80556 ,2.79007 ,27.37616 
167 ,31.3373 ,0.80744 ,2.76954 ,27.17469 
168 ,31.5290 ,0.80937 ,2.76954 ,27.17469 
169 ,31.7056 ,0.81113 ,2.76269 ,27.10753 
170 ,31.8814 ,0.81286 ,2.73874 ,26.87248 
171 ,32.0737 ,0.81469 ,2.71136 ,26.60386 
172 ,32.2656 ,0.81670 ,2.71478 ,26.63744 
173 ,32.4257 ,0.81840 ,2.69425 ,26.43597 
174 ,32.6014 ,0.82002 ,2.69083 ,26.40239 
175 ,32.7779 ,0.82181 ,2.65318 ,26.03303 
176 ,32.9698 ,0.82368 ,2.65318 ,26.03303 
177 ,33.1461 ,0.82552 ,2.65660 ,26.06661 
178 ,33.3220 ,0.82729 ,2.62923 ,25.79798 
179 ,33.4979 ,0.82897 ,2.61212 ,25.63009 
180 ,33.6740 ,0.83076 ,2.60185 ,25.52935 
181 ,33.8663 ,0.83264 ,2.58816 ,25.39504 
182 ,34.0424 ,0.83447 ,2.57447 ,25.26073 
183 ,34.2342 ,0.83639 ,2.55052 ,25.02568 
184 ,34.4106 ,0.83815 ,2.56078 ,25.12641 
185 ,34.5865 ,0.83996 ,2.52998 ,24.82421 
186 ,34.7623 ,0.84165 ,2.52656 ,24.79063 
187 ,34.9387 ,0.84341 ,2.50603 ,24.58916 
188 ,35.2749 ,0.84674 ,2.50945 ,24.62274 
189 ,35.4348 ,0.84849 ,2.47523 ,24.28696 
190 ,35.6111 ,0.85015 ,2.46154 ,24.15264 
191 ,35.8188 ,0.85219 ,2.43759 ,23.91759 
192 ,35.9953 ,0.85400 ,2.43074 ,23.85044 
193 ,36.1872 ,0.85588 ,2.42048 ,23.74970 
194 ,36.3634 ,0.85766 ,2.40679 ,23.61539 
195 ,36.5391 ,0.85939 ,2.40336 ,23.58181 
196 ,36.7155 ,0.86115 ,2.38283 ,23.38034 
197 ,36.9073 ,0.86305 ,2.36914 ,23.24603 
198 ,37.0996 ,0.86496 ,2.35203 ,23.07814 
199 ,37.2914 ,0.86687 ,2.34177 ,22.97740 
200 ,37.4838 ,0.86883 ,2.32123 ,22.77593 
201 ,37.6598 ,0.87067 ,2.31781 ,22.74235 
202 ,37.8357 ,0.87241 ,2.28701 ,22.44015 
203 ,37.9955 ,0.87411 ,2.29385 ,22.50731 
204 ,38.1879 ,0.87583 ,2.26990 ,22.27226 
205 ,38.3639 ,0.87767 ,2.26306 ,22.20510 
206 ,38.5402 ,0.87943 ,2.23910 ,21.97005 
207 ,38.7164 ,0.88119 ,2.23910 ,21.97005 
208 ,38.8923 ,0.88299 ,2.21515 ,21.73500 
209 ,39.0682 ,0.88468 ,2.21857 ,21.76858 
210 ,39.2444 ,0.88647 ,2.19803 ,21.56711 
211 ,39.4205 ,0.88826 ,2.18092 ,21.39922 
212 ,39.6126 ,0.89010 ,2.17750 ,21.36564 
213 ,39.8048 ,0.89202 ,2.16039 ,21.19775 
214 ,39.9810 ,0.89383 ,2.12959 ,20.89555 
215 ,40.1569 ,0.89552 ,2.12617 ,20.86197 
216 ,40.3489 ,0.89739 ,2.11932 ,20.79481 
217 ,40.5252 ,0.89927 ,2.09879 ,20.59334 
218 ,40.7171 ,0.90125 ,2.10564 ,20.66050 
219 ,40.8933 ,0.90296 ,2.07141 ,20.32472 
220 ,41.0853 ,0.90487 ,2.07141 ,20.32472 
221 ,41.2616 ,0.90664 ,2.04404 ,20.05609 
222 ,41.4536 ,0.90854 ,2.04061 ,20.02251 
223 ,41.6457 ,0.91040 ,2.02008 ,19.82104 
224 ,41.8373 ,0.91236 ,1.99955 ,19.61957 
225 ,42.0138 ,0.91416 ,1.99270 ,19.55241 
226 ,42.2055 ,0.91600 ,1.97559 ,19.38452 
227 ,42.3820 ,0.91790 ,1.96533 ,19.28379 
228 ,42.5741 ,0.91975 ,1.96190 ,19.25021 
229 ,42.7821 ,0.92166 ,1.93795 ,19.01516 
230 ,42.9581 ,0.92358 ,1.91399 ,18.78011 
231 ,43.1342 ,0.92534 ,1.92084 ,18.84727 
232 ,43.3263 ,0.92725 ,1.90373 ,18.67938 
233 ,43.5024 ,0.92903 ,1.88319 ,18.47791 
234 ,43.6785 ,0.93081 ,1.87293 ,18.37717 
235 ,43.8544 ,0.93253 ,1.85240 ,18.17570 
236 ,44.0304 ,0.93426 ,1.86951 ,18.34360 
237 ,44.2066 ,0.93606 ,1.83528 ,18.00781 
238 ,44.3826 ,0.93785 ,1.81475 ,17.80634 
239 ,44.5587 ,0.93956 ,1.79764 ,17.63845 
240 ,44.7348 ,0.94133 ,1.80106 ,17.67203 
241 ,44.9109 ,0.94307 ,1.79080 ,17.57129 
242 ,45.1030 ,0.94493 ,1.78053 ,17.47056 
243 ,45.2951 ,0.94696 ,1.75315 ,17.20193 
244 ,45.4551 ,0.94864 ,1.76342 ,17.30267 
245 ,45.6310 ,0.95028 ,1.75657 ,17.23551 
246 ,45.8233 ,0.95222 ,1.72235 ,16.89973 
247 ,46.0313 ,0.95422 ,1.71551 ,16.83257 
248 ,46.2235 ,0.95610 ,1.69155 ,16.59752 
249 ,46.4155 ,0.95811 ,1.69155 ,16.59752 
250 ,46.6076 ,0.96000 ,1.67786 ,16.46321 
251 ,46.8315 ,0.96218 ,1.66418 ,16.32890 
252 ,47.0078 ,0.96406 ,1.64022 ,16.09385 
253 ,47.2158 ,0.96610 ,1.63680 ,16.06027 
254 ,47.4078 ,0.96799 ,1.62311 ,15.92596 
255 ,47.5997 ,0.96995 ,1.60258 ,15.72449 
256 ,47.7757 ,0.97174 ,1.58889 ,15.59018 
257 ,47.9522 ,0.97352 ,1.58204 ,15.52302 
258 ,48.1601 ,0.97554 ,1.55809 ,15.28797 
259 ,48.3362 ,0.97735 ,1.54440 ,15.15366 
260 ,48.5122 ,0.97908 ,1.54440 ,15.15366 
261 ,48.6883 ,0.98080 ,1.52387 ,14.95219 
262 ,48.8800 ,0.98270 ,1.51702 ,14.88503 
263 ,49.0726 ,0.98459 ,1.49307 ,14.64998 
264 ,49.2645 ,0.98665 ,1.47596 ,14.48209 
265 ,49.4407 ,0.98835 ,1.44858 ,14.21346 
266 ,49.6167 ,0.99019 ,1.46569 ,14.38136 
267 ,49.8086 ,0.99206 ,1.44858 ,14.21346 
268 ,50.0009 ,0.99394 ,1.41778 ,13.91126 
269 ,50.1771 ,0.99574 ,1.41778 ,13.91126 
270 ,50.3531 ,0.99754 ,1.42462 ,13.97842 
271 ,50.5290 ,0.99931 ,1.38356 ,13.57548 
272 ,50.7052 ,1.00102 ,1.37671 ,13.50832 
273 ,50.8972 ,1.00287 ,1.38014 ,13.54190 
274 ,51.1053 ,1.00497 ,1.35276 ,13.27327 
275 ,51.2816 ,1.00684 ,1.34934 ,13.23969 
276 ,51.4738 ,1.00875 ,1.34249 ,13.17254 
277 ,51.6495 ,1.01048 ,1.31512 ,12.90391 
278 ,51.8253 ,1.01220 ,1.31854 ,12.93749 
279 ,52.0016 ,1.01395 ,1.29116 ,12.66886 
280 ,52.1938 ,1.01590 ,1.29458 ,12.70244 
281 ,52.3698 ,1.01765 ,1.28089 ,12.56813 
282 ,52.5459 ,1.01941 ,1.26378 ,12.40024 
283 ,52.7219 ,1.02118 ,1.23298 ,12.09803 
284 ,52.9139 ,1.02310 ,1.26036 ,12.36666 
285 ,53.0901 ,1.02484 ,1.23983 ,12.16519 
286 ,53.2663 ,1.02663 ,1.20561 ,11.82941 
287 ,53.4583 ,1.02847 ,1.21245 ,11.89656 
288 ,53.6179 ,1.03027 ,1.19534 ,11.72867 
289 ,53.7941 ,1.03188 ,1.18850 ,11.66151 
290 ,53.9702 ,1.03367 ,1.17138 ,11.49362 
291 ,54.1466 ,1.03542 ,1.15427 ,11.32573 
292 ,54.3547 ,1.03746 ,1.15770 ,11.35931 
293 ,54.5308 ,1.03931 ,1.14401 ,11.22500 
294 ,54.7069 ,1.04107 ,1.12005 ,10.98995 
295 ,54.8989 ,1.04288 ,1.11321 ,10.92279 
296 ,55.0747 ,1.04476 ,1.10636 ,10.85563 
297 ,55.2670 ,1.04658 ,1.08241 ,10.62059 
298 ,55.4429 ,1.04838 ,1.06530 ,10.45270 
299 ,55.6349 ,1.05027 ,1.07214 ,10.51985 
300 ,55.8111 ,1.05211 ,1.04819 ,10.28480 
301 ,55.9873 ,1.05389 ,1.04476 ,10.25123 
302 ,56.1635 ,1.05558 ,1.01396 ,9.94902 
303 ,56.3716 ,1.05760 ,1.01396 ,9.94902 
304 ,56.5475 ,1.05942 ,1.01396 ,9.94902 
305 ,56.7237 ,1.06116 ,0.98659 ,9.68039 
306 ,56.8994 ,1.06298 ,0.95579 ,9.37819 
307 ,57.0759 ,1.06472 ,0.99001 ,9.71397 
308 ,57.2677 ,1.06661 ,0.94894 ,9.31103 
309 ,57.4599 ,1.06852 ,0.94894 ,9.31103 
310 ,57.6359 ,1.07034 ,0.93868 ,9.21030 
311 ,57.8122 ,1.07208 ,0.93868 ,9.21030 
312 ,58.0042 ,1.07391 ,0.90788 ,8.90809 
313 ,58.1801 ,1.07573 ,0.89077 ,8.74020 
314 ,58.3564 ,1.07750 ,0.88734 ,8.70662 
315 ,58.5646 ,1.07952 ,0.88734 ,8.70662 
316 ,58.7404 ,1.08130 ,0.87023 ,8.53873 
317 ,58.9163 ,1.08310 ,0.85997 ,8.43800 
318 ,59.0927 ,1.08489 ,0.85312 ,8.37084 
319 ,59.2846 ,1.08677 ,0.83601 ,8.20295 
320 ,59.4608 ,1.08856 ,0.82575 ,8.10221 
321 ,59.6528 ,1.09038 ,0.81206 ,7.96790 
322 ,59.8285 ,1.09232 ,0.79837 ,7.83359 
323 ,60.0049 ,1.09398 ,0.78468 ,7.69927 
324 ,60.1810 ,1.09576 ,0.78468 ,7.69927 
325 ,60.3571 ,1.09748 ,0.77784 ,7.63212 
326 ,60.5332 ,1.09926 ,0.75730 ,7.43065 
327 ,60.7092 ,1.10101 ,0.72650 ,7.12844 
328 ,60.9012 ,1.10292 ,0.74019 ,7.26276 
329 ,61.0934 ,1.10484 ,0.72308 ,7.09486 
330 ,61.2694 ,1.10663 ,0.69570 ,6.82624 
331 ,61.4294 ,1.10831 ,0.69228 ,6.79266 
332 ,61.6054 ,1.11000 ,0.67859 ,6.65835 
333 ,61.7973 ,1.11188 ,0.67859 ,6.65835 
334 ,61.9895 ,1.11373 ,0.66490 ,6.52403 
335 ,62.1659 ,1.11561 ,0.64779 ,6.35614 
336 ,62.3738 ,1.11761 ,0.63410 ,6.22183 
337 ,62.5500 ,1.11939 ,0.63068 ,6.18825 
338 ,62.7581 ,1.12144 ,0.63068 ,6.18825 
339 ,62.9502 ,1.12331 ,0.60330 ,5.91962 
340 ,63.1421 ,1.12525 ,0.60673 ,5.95320 
341 ,63.3182 ,1.12711 ,0.59646 ,5.85247 
342 ,63.5101 ,1.12898 ,0.57251 ,5.61742 
343 ,63.7025 ,1.13083 ,0.56566 ,5.55026 
344 ,63.8944 ,1.13287 ,0.56224 ,5.51668 
345 ,64.0707 ,1.13466 ,0.54513 ,5.34879 
346 ,64.2467 ,1.13640 ,0.54171 ,5.31522 
347 ,64.4228 ,1.13813 ,0.53144 ,5.21448 
348 ,64.6148 ,1.14007 ,0.52802 ,5.18090 
349 ,64.7908 ,1.14179 ,0.48695 ,4.77796 
350 ,64.9832 ,1.14361 ,0.49037 ,4.81154 
351 ,65.1910 ,1.14574 ,0.45615 ,4.47576 
352 ,65.3833 ,1.14775 ,0.47326 ,4.64365 
353 ,65.5592 ,1.14955 ,0.47326 ,4.64365 
354 ,65.7673 ,1.15151 ,0.45273 ,4.44218 
355 ,65.9756 ,1.15363 ,0.42877 ,4.20713 
356 ,66.1515 ,1.15545 ,0.43562 ,4.27429 
357 ,66.3275 ,1.15720 ,0.40482 ,3.97208 
358 ,66.5035 ,1.15898 ,0.40140 ,3.93850 
359 ,66.6796 ,1.16068 ,0.39455 ,3.87135 
360 ,66.8716 ,1.16259 ,0.38086 ,3.73703 
361 ,67.0480 ,1.16438 ,0.36718 ,3.60272 
362 ,67.2399 ,1.16629 ,0.37060 ,3.63630 
363 ,67.4319 ,1.16814 ,0.35006 ,3.43483 
364 ,67.6239 ,1.17014 ,0.34664 ,3.40125 
365 ,67.8161 ,1.17212 ,0.34322 ,3.36767 
366 ,67.9922 ,1.17384 ,0.31242 ,3.06547 
367 ,68.1840 ,1.17571 ,0.31584 ,3.09905 
368 ,68.3603 ,1.17747 ,0.30215 ,2.96473 
369 ,68.5361 ,1.17932 ,0.27478 ,2.69611 
370 ,68.7119 ,1.18104 ,0.29189 ,2.86400 
371 ,68.8880 ,1.18281 ,0.26793 ,2.62895 
372 ,69.0807 ,1.18458 ,0.27478 ,2.69611 
373 ,69.3206 ,1.18693 ,0.26793 ,2.62895 
374 ,69.4967 ,1.18887 ,0.24055 ,2.36032 
375 ,69.6728 ,1.19063 ,0.21660 ,2.12528 
376 ,69.8489 ,1.19238 ,0.21318 ,2.09170 
377 ,70.0407 ,1.19431 ,0.20633 ,2.02454 
378 ,70.2170 ,1.19614 ,0.18922 ,1.85665 
379 ,70.3930 ,1.19785 ,0.17896 ,1.75592 
380 ,70.5853 ,1.19973 ,0.18922 ,1.85665 
381 ,70.7612 ,1.20154 ,0.17553 ,1.72234 
382 ,70.9372 ,1.20324 ,0.14473 ,1.42013 
383 ,71.1134 ,1.20505 ,0.15500 ,1.52087 
384 ,71.2895 ,1.20677 ,0.12420 ,1.21866 
385 ,71.4975 ,1.20874 ,0.11736 ,1.15151 
386 ,71.6736 ,1.21063 ,0.11736 ,1.15151 
387 ,71.8496 ,1.21235 ,0.09340 ,0.91646 
388 ,72.0414 ,1.21423 ,0.08998 ,0.88288 
389 ,72.2178 ,1.21605 ,0.08998 ,0.88288 
390 ,72.4099 ,1.21796 ,0.08314 ,0.81572 
391 ,72.5860 ,1.21977 ,0.06260 ,0.61425 
392 ,72.7782 ,1.22161 ,0.04891 ,0.47994 
393 ,72.9859 ,1.22357 ,0.05234 ,0.51352 
394 ,73.1779 ,1.22557 ,0.04207 ,0.41278 
395 ,73.3703 ,1.22748 ,0.01811 ,0.17773 
396 ,73.5622 ,1.22943 ,0.02154 ,0.21131 
397 ,73.7384 ,1.23128 ,0.00443 ,0.04342 
398 ,73.9304 ,1.23311 ,-0.00926 ,-0.09089 
399 ,74.1226 ,1.23513 ,-0.00584 ,-0.05731 
400 ,74.3306 ,1.23713 ,-0.02980 ,-0.29236 
401 ,74.5227 ,1.23911 ,-0.02980 ,-0.29236 
402 ,74.6985 ,1.24085 ,-0.05033 ,-0.49383 
403 ,74.8748 ,1.24264 ,-0.06744 ,-0.66172 
404 ,75.0509 ,1.24434 ,-0.07086 ,-0.69530 
405 ,75.2268 ,1.24615 ,-0.08113 ,-0.79604 
406 ,75.4191 ,1.24808 ,-0.08455 ,-0.82961 
407 ,75.6271 ,1.25009 ,-0.08455 ,-0.82961 
408 ,75.8032 ,1.25194 ,-0.08797 ,-0.86319 
409 ,75.9795 ,1.25367 ,-0.11193 ,-1.09824 
410 ,76.1715 ,1.25554 ,-0.12904 ,-1.26613 
411 ,76.3635 ,1.25745 ,-0.12219 ,-1.19898 
412 ,76.5396 ,1.25926 ,-0.13931 ,-1.36687 
413 ,76.7156 ,1.26106 ,-0.14615 ,-1.43402 
414 ,76.9077 ,1.26291 ,-0.15642 ,-1.53476 
415 ,77.0996 ,1.26477 ,-0.18037 ,-1.76981 
416 ,77.2918 ,1.26676 ,-0.18037 ,-1.76981 
417 ,77.4676 ,1.26851 ,-0.18722 ,-1.83696 
418 ,77.6440 ,1.27030 ,-0.19064 ,-1.87054 
419 ,77.8357 ,1.27218 ,-0.20775 ,-2.03843 
420 ,78.0120 ,1.27393 ,-0.22144 ,-2.17275 
421 ,78.1879 ,1.27580 ,-0.22144 ,-2.17275 
422 ,78.3643 ,1.27752 ,-0.22828 ,-2.23990 
423 ,78.5565 ,1.27934 ,-0.25224 ,-2.47495 
424 ,78.7645 ,1.28147 ,-0.24539 ,-2.40779 
425 ,78.9565 ,1.28344 ,-0.27277 ,-2.67642 
426 ,79.1326 ,1.28523 ,-0.28988 ,-2.84431 
427 ,79.3085 ,1.28693 ,-0.26935 ,-2.64284 
428 ,79.5006 ,1.28881 ,-0.28988 ,-2.84431 
429 ,79.6929 ,1.29071 ,-0.30357 ,-2.97863 
430 ,79.8849 ,1.29268 ,-0.30699 ,-3.01220 
431 ,80.0610 ,1.29443 ,-0.31041 ,-3.04578 
432 ,80.2690 ,1.29650 ,-0.32068 ,-3.14652 
433 ,80.4613 ,1.29843 ,-0.33095 ,-3.24725 
434 ,80.6369 ,1.30021 ,-0.35490 ,-3.48230 
435 ,80.8133 ,1.30196 ,-0.35490 ,-3.48230 
436 ,81.0055 ,1.30386 ,-0.35148 ,-3.44872 
437 ,81.1975 ,1.30584 ,-0.37886 ,-3.71735 
438 ,81.4056 ,1.30775 ,-0.39255 ,-3.85166 
439 ,81.5976 ,1.30983 ,-0.39597 ,-3.88524 
440 ,81.7737 ,1.31157 ,-0.40623 ,-3.98597 
441 ,81.9977 ,1.31364 ,-0.40966 ,-4.01955 
442 ,82.1740 ,1.31559 ,-0.42677 ,-4.18744 
443 ,82.3821 ,1.31759 ,-0.42677 ,-4.18744 
444 ,82.5580 ,1.31945 ,-0.43019 ,-4.22102 
445 ,82.7337 ,1.32119 ,-0.44730 ,-4.38891 
446 ,82.9102 ,1.32295 ,-0.44046 ,-4.32176 
447 ,83.0863 ,1.32470 ,-0.44388 ,-4.35534 
448 ,83.2784 ,1.32657 ,-0.47126 ,-4.62396 
449 ,83.4544 ,1.32839 ,-0.49179 ,-4.82543 
450 ,83.6304 ,1.33011 ,-0.48837 ,-4.79185 
451 ,83.8062 ,1.33197 ,-0.48152 ,-4.72470 
452 ,83.9985 ,1.33374 ,-0.51232 ,-5.02690 
453 ,84.1908 ,1.33576 ,-0.51232 ,-5.02690 
454 ,84.3827 ,1.33764 ,-0.51232 ,-5.02690 
455 ,84.5589 ,1.33941 ,-0.53628 ,-5.26195 
456 ,84.7509 ,1.34130 ,-0.51917 ,-5.09406 
457 ,84.9430 ,1.34327 ,-0.54654 ,-5.36268 
458 ,85.1189 ,1.34503 ,-0.55681 ,-5.46342 
459 ,85.3112 ,1.34700 ,-0.56365 ,-5.53058 
460 ,85.5032 ,1.34885 ,-0.56708 ,-5.56415 
461 ,85.6794 ,1.35062 ,-0.58077 ,-5.69847 
462 ,85.8873 ,1.35263 ,-0.59445 ,-5.83278 
463 ,86.0635 ,1.35448 ,-0.58761 ,-5.76562 
464 ,86.2716 ,1.35652 ,-0.59788 ,-5.86636 
