Data stamp = , 07-04-2022 02:53:52 897

Calibration Values: 
Slope = , 26.54 , g/V 
Offset Voltage at no contact = , -0.501760 , V 

No , Time , Stage Position ,   Mass , Force 
   ,  (s) ,      (mm)      ,   (g)  , (mN)  

1 ,0.0000 ,0.49939 ,5.17532 ,50.78023 
2 ,0.2071 ,0.49948 ,5.18901 ,50.91455 
3 ,0.5117 ,0.50026 ,5.17874 ,50.81381 
4 ,0.7037 ,0.50155 ,5.19585 ,50.98170 
5 ,0.8959 ,0.50315 ,5.17874 ,50.81381 
6 ,1.0878 ,0.50506 ,5.17190 ,50.74666 
7 ,1.2639 ,0.50685 ,5.18559 ,50.88097 
8 ,1.4401 ,0.50856 ,5.19243 ,50.94813 
9 ,1.6322 ,0.51041 ,5.16848 ,50.71308 
10 ,1.8241 ,0.51233 ,5.17532 ,50.78023 
11 ,2.0323 ,0.51442 ,5.16505 ,50.67950 
12 ,2.2080 ,0.51627 ,5.13768 ,50.41087 
13 ,2.4004 ,0.51807 ,5.12741 ,50.31014 
14 ,2.6244 ,0.52036 ,5.14452 ,50.47803 
15 ,2.8006 ,0.52215 ,5.12056 ,50.24298 
16 ,3.0086 ,0.52414 ,5.09319 ,49.97436 
17 ,3.1845 ,0.52602 ,5.10003 ,50.04151 
18 ,3.3607 ,0.52777 ,5.10003 ,50.04151 
19 ,3.5367 ,0.52949 ,5.06239 ,49.67215 
20 ,3.7129 ,0.53131 ,5.05212 ,49.57142 
21 ,3.9050 ,0.53317 ,5.04528 ,49.50426 
22 ,4.1131 ,0.53516 ,5.00421 ,49.10132 
23 ,4.3053 ,0.53714 ,5.01448 ,49.20205 
24 ,4.5133 ,0.53925 ,4.95630 ,48.63122 
25 ,4.7212 ,0.54122 ,4.95630 ,48.63122 
26 ,4.8974 ,0.54311 ,4.95972 ,48.66480 
27 ,5.0895 ,0.54497 ,4.93577 ,48.42975 
28 ,5.3137 ,0.54711 ,4.91523 ,48.22828 
29 ,5.4733 ,0.54903 ,4.89128 ,47.99324 
30 ,5.6497 ,0.55064 ,4.88101 ,47.89250 
31 ,5.8255 ,0.55236 ,4.86732 ,47.75819 
32 ,6.0019 ,0.55418 ,4.86048 ,47.69103 
33 ,6.1936 ,0.55606 ,4.82968 ,47.38883 
34 ,6.3700 ,0.55781 ,4.80915 ,47.18736 
35 ,6.5459 ,0.55960 ,4.80915 ,47.18736 
36 ,6.7381 ,0.56149 ,4.79546 ,47.05304 
37 ,6.9139 ,0.56329 ,4.76808 ,46.78442 
38 ,7.1059 ,0.56514 ,4.77150 ,46.81800 
39 ,7.2820 ,0.56693 ,4.74413 ,46.54937 
40 ,7.4585 ,0.56868 ,4.73728 ,46.48221 
41 ,7.6505 ,0.57069 ,4.70648 ,46.18001 
42 ,7.8267 ,0.57246 ,4.68595 ,45.97854 
43 ,8.0188 ,0.57434 ,4.67911 ,45.91138 
44 ,8.1948 ,0.57608 ,4.65857 ,45.70991 
45 ,8.3709 ,0.57786 ,4.64488 ,45.57560 
46 ,8.5625 ,0.57976 ,4.64831 ,45.60918 
47 ,8.7390 ,0.58154 ,4.63119 ,45.44128 
48 ,8.9469 ,0.58352 ,4.60724 ,45.20624 
49 ,9.1233 ,0.58535 ,4.59697 ,45.10550 
50 ,9.3153 ,0.58723 ,4.57644 ,44.90403 
51 ,9.5233 ,0.58930 ,4.56617 ,44.80330 
52 ,9.6992 ,0.59111 ,4.56960 ,44.83688 
53 ,9.8754 ,0.59292 ,4.52853 ,44.43394 
54 ,10.0515 ,0.59461 ,4.51142 ,44.26604 
55 ,10.2434 ,0.59653 ,4.49089 ,44.06457 
56 ,10.4356 ,0.59847 ,4.48404 ,43.99742 
57 ,10.6119 ,0.60025 ,4.45666 ,43.72879 
58 ,10.8038 ,0.60204 ,4.46009 ,43.76237 
59 ,10.9799 ,0.60389 ,4.44640 ,43.62806 
60 ,11.1720 ,0.60575 ,4.42929 ,43.46016 
61 ,11.3481 ,0.60763 ,4.40533 ,43.22512 
62 ,11.5242 ,0.60935 ,4.39164 ,43.09080 
63 ,11.7004 ,0.61118 ,4.38138 ,42.99007 
64 ,11.8922 ,0.61295 ,4.37111 ,42.88933 
65 ,12.1005 ,0.61502 ,4.35400 ,42.72144 
66 ,12.3085 ,0.61714 ,4.31636 ,42.35208 
67 ,12.5006 ,0.61917 ,4.31636 ,42.35208 
68 ,12.7086 ,0.62108 ,4.28556 ,42.04988 
69 ,12.8847 ,0.62292 ,4.27529 ,41.94914 
70 ,13.0608 ,0.62469 ,4.27529 ,41.94914 
71 ,13.2530 ,0.62659 ,4.25133 ,41.71409 
72 ,13.4449 ,0.62856 ,4.23080 ,41.51262 
73 ,13.6371 ,0.63045 ,4.23080 ,41.51262 
74 ,13.8130 ,0.63227 ,4.21711 ,41.37831 
75 ,13.9732 ,0.63396 ,4.18974 ,41.10968 
76 ,14.1654 ,0.63574 ,4.16920 ,40.90821 
77 ,14.3575 ,0.63761 ,4.16920 ,40.90821 
78 ,14.5655 ,0.63966 ,4.13156 ,40.53885 
79 ,14.7575 ,0.64163 ,4.13498 ,40.57243 
80 ,14.9334 ,0.64341 ,4.11103 ,40.33738 
81 ,15.1097 ,0.64522 ,4.09734 ,40.20307 
82 ,15.3018 ,0.64715 ,4.08365 ,40.06876 
83 ,15.4775 ,0.64889 ,4.06312 ,39.86729 
84 ,15.6540 ,0.65065 ,4.05969 ,39.83371 
85 ,15.8301 ,0.65245 ,4.04943 ,39.73297 
86 ,16.0221 ,0.65433 ,4.00836 ,39.33003 
87 ,16.1980 ,0.65606 ,4.00494 ,39.29646 
88 ,16.3743 ,0.65787 ,4.00836 ,39.33003 
89 ,16.5823 ,0.65982 ,3.96729 ,38.92709 
90 ,16.7584 ,0.66169 ,3.96387 ,38.89352 
91 ,16.9345 ,0.66349 ,3.94676 ,38.72562 
92 ,17.1264 ,0.66533 ,3.93307 ,38.59131 
93 ,17.3189 ,0.66725 ,3.91938 ,38.45700 
94 ,17.4947 ,0.66902 ,3.90227 ,38.28911 
95 ,17.6709 ,0.67083 ,3.89201 ,38.18837 
96 ,17.8629 ,0.67271 ,3.85779 ,37.85259 
97 ,18.0550 ,0.67464 ,3.85094 ,37.78543 
98 ,18.2468 ,0.67650 ,3.84067 ,37.68470 
99 ,18.4391 ,0.67845 ,3.81330 ,37.41607 
100 ,18.6152 ,0.68027 ,3.82699 ,37.55038 
101 ,18.7912 ,0.68201 ,3.79961 ,37.28176 
102 ,18.9673 ,0.68375 ,3.78934 ,37.18102 
103 ,19.1591 ,0.68572 ,3.77565 ,37.04671 
104 ,19.3356 ,0.68744 ,3.74143 ,36.71093 
105 ,19.5277 ,0.68938 ,3.73117 ,36.61019 
106 ,19.7036 ,0.69114 ,3.71748 ,36.47588 
107 ,19.8797 ,0.69292 ,3.70037 ,36.30799 
108 ,20.0878 ,0.69486 ,3.70037 ,36.30799 
109 ,20.2639 ,0.69671 ,3.67641 ,36.07294 
110 ,20.4401 ,0.69848 ,3.64903 ,35.80431 
111 ,20.6479 ,0.70055 ,3.63877 ,35.70358 
112 ,20.8243 ,0.70235 ,3.61823 ,35.50211 
113 ,21.0003 ,0.70406 ,3.61481 ,35.46853 
114 ,21.1761 ,0.70582 ,3.59086 ,35.23348 
115 ,21.3522 ,0.70760 ,3.60797 ,35.40137 
116 ,21.5286 ,0.70935 ,3.59086 ,35.23348 
117 ,21.7046 ,0.71116 ,3.56690 ,34.99843 
118 ,21.8805 ,0.71282 ,3.51899 ,34.52834 
119 ,22.0562 ,0.71461 ,3.52241 ,34.56192 
120 ,22.2328 ,0.71639 ,3.52926 ,34.62907 
121 ,22.4245 ,0.71825 ,3.49161 ,34.25971 
122 ,22.6165 ,0.72018 ,3.49161 ,34.25971 
123 ,22.7929 ,0.72197 ,3.46766 ,34.02466 
124 ,22.9851 ,0.72390 ,3.44713 ,33.82319 
125 ,23.1770 ,0.72579 ,3.43344 ,33.68888 
126 ,23.3851 ,0.72785 ,3.41975 ,33.55457 
127 ,23.5770 ,0.72983 ,3.39237 ,33.28594 
128 ,23.8011 ,0.73200 ,3.39237 ,33.28594 
129 ,23.9773 ,0.73386 ,3.35473 ,32.91658 
130 ,24.1537 ,0.73564 ,3.36157 ,32.98374 
131 ,24.3296 ,0.73742 ,3.35130 ,32.88300 
132 ,24.5376 ,0.73937 ,3.32735 ,32.64795 
133 ,24.7137 ,0.74118 ,3.32051 ,32.58080 
134 ,24.8899 ,0.74299 ,3.30682 ,32.44648 
135 ,25.0659 ,0.74472 ,3.29997 ,32.37933 
136 ,25.2579 ,0.74662 ,3.26575 ,32.04354 
137 ,25.4339 ,0.74840 ,3.25548 ,31.94281 
138 ,25.6100 ,0.75016 ,3.25891 ,31.97639 
139 ,25.7862 ,0.75192 ,3.24522 ,31.84207 
140 ,25.9624 ,0.75372 ,3.22468 ,31.64060 
141 ,26.1544 ,0.75561 ,3.19388 ,31.33840 
142 ,26.3144 ,0.75732 ,3.19388 ,31.33840 
143 ,26.5066 ,0.75908 ,3.18704 ,31.27124 
144 ,26.6825 ,0.76086 ,3.17677 ,31.17051 
145 ,26.8587 ,0.76261 ,3.14597 ,30.86830 
146 ,27.0345 ,0.76443 ,3.11860 ,30.59968 
147 ,27.2587 ,0.76648 ,3.11860 ,30.59968 
148 ,27.4348 ,0.76839 ,3.10491 ,30.46536 
149 ,27.6109 ,0.77016 ,3.08780 ,30.29747 
150 ,27.7869 ,0.77189 ,3.08438 ,30.26389 
151 ,27.9791 ,0.77379 ,3.05358 ,29.96169 
152 ,28.1711 ,0.77571 ,3.05358 ,29.96169 
153 ,28.3468 ,0.77749 ,3.04331 ,29.86095 
154 ,28.5390 ,0.77938 ,3.01935 ,29.62590 
155 ,28.7154 ,0.78121 ,2.99198 ,29.35728 
156 ,28.9074 ,0.78304 ,3.00224 ,29.45801 
157 ,29.1156 ,0.78521 ,2.97487 ,29.18939 
158 ,29.3077 ,0.78711 ,2.96802 ,29.12223 
159 ,29.4994 ,0.78908 ,2.96118 ,29.05507 
160 ,29.6759 ,0.79080 ,2.94064 ,28.85360 
161 ,29.8517 ,0.79265 ,2.91669 ,28.61856 
162 ,30.0280 ,0.79431 ,2.90642 ,28.51782 
163 ,30.2041 ,0.79610 ,2.90300 ,28.48424 
164 ,30.3961 ,0.79803 ,2.86536 ,28.11488 
165 ,30.5722 ,0.79976 ,2.85167 ,27.98057 
166 ,30.7481 ,0.80152 ,2.86193 ,28.08130 
167 ,30.9243 ,0.80338 ,2.83798 ,27.84625 
168 ,31.1004 ,0.80505 ,2.84140 ,27.87983 
169 ,31.2764 ,0.80677 ,2.81402 ,27.61121 
170 ,31.4686 ,0.80867 ,2.79349 ,27.40974 
171 ,31.6605 ,0.81068 ,2.79007 ,27.37616 
172 ,31.8365 ,0.81246 ,2.75585 ,27.04038 
173 ,32.0128 ,0.81422 ,2.75927 ,27.07395 
174 ,32.2048 ,0.81614 ,2.73531 ,26.83891 
175 ,32.3810 ,0.81788 ,2.73531 ,26.83891 
176 ,32.5730 ,0.81973 ,2.71136 ,26.60386 
177 ,32.7490 ,0.82154 ,2.68056 ,26.30165 
178 ,32.9252 ,0.82330 ,2.70794 ,26.57028 
179 ,33.1013 ,0.82505 ,2.68056 ,26.30165 
180 ,33.2933 ,0.82699 ,2.64976 ,25.99945 
181 ,33.5013 ,0.82894 ,2.65318 ,26.03303 
182 ,33.6770 ,0.83076 ,2.64634 ,25.96587 
183 ,33.8536 ,0.83256 ,2.60869 ,25.59651 
184 ,34.0294 ,0.83436 ,2.59158 ,25.42862 
185 ,34.2376 ,0.83624 ,2.59501 ,25.46220 
186 ,34.4302 ,0.83831 ,2.56078 ,25.12641 
187 ,34.6057 ,0.84009 ,2.55394 ,25.05926 
188 ,34.8141 ,0.84202 ,2.55394 ,25.05926 
189 ,35.0059 ,0.84403 ,2.52314 ,24.75705 
190 ,35.1821 ,0.84582 ,2.51972 ,24.72347 
191 ,35.3581 ,0.84766 ,2.50603 ,24.58916 
192 ,35.5500 ,0.84952 ,2.47865 ,24.32053 
193 ,35.7261 ,0.85130 ,2.48550 ,24.38769 
194 ,35.9183 ,0.85317 ,2.46154 ,24.15264 
195 ,36.1105 ,0.85512 ,2.44101 ,23.95117 
196 ,36.2865 ,0.85694 ,2.44101 ,23.95117 
197 ,36.4627 ,0.85865 ,2.41363 ,23.68255 
198 ,36.6546 ,0.86053 ,2.41363 ,23.68255 
199 ,36.8308 ,0.86229 ,2.38283 ,23.38034 
200 ,37.0227 ,0.86418 ,2.38625 ,23.41392 
201 ,37.1987 ,0.86595 ,2.37941 ,23.34676 
202 ,37.3910 ,0.86784 ,2.34519 ,23.01098 
203 ,37.5830 ,0.86985 ,2.33150 ,22.87667 
204 ,37.7591 ,0.87157 ,2.33492 ,22.91024 
205 ,37.9352 ,0.87340 ,2.31781 ,22.74235 
206 ,38.1113 ,0.87515 ,2.30070 ,22.57446 
207 ,38.2870 ,0.87689 ,2.26990 ,22.27226 
208 ,38.4634 ,0.87866 ,2.25621 ,22.13794 
209 ,38.6715 ,0.88068 ,2.24252 ,22.00363 
210 ,38.8475 ,0.88245 ,2.22883 ,21.86932 
211 ,39.0235 ,0.88420 ,2.23568 ,21.93647 
212 ,39.2158 ,0.88612 ,2.20488 ,21.63427 
213 ,39.4242 ,0.88825 ,2.19803 ,21.56711 
214 ,39.5998 ,0.88998 ,2.18777 ,21.46638 
215 ,39.7918 ,0.89182 ,2.17750 ,21.36564 
216 ,40.0001 ,0.89395 ,2.16381 ,21.23133 
217 ,40.1761 ,0.89580 ,2.14670 ,21.06344 
218 ,40.3681 ,0.89768 ,2.12275 ,20.82839 
219 ,40.5441 ,0.89943 ,2.10906 ,20.69408 
220 ,40.7364 ,0.90135 ,2.10906 ,20.69408 
221 ,40.9124 ,0.90317 ,2.08510 ,20.45903 
222 ,41.0886 ,0.90487 ,2.06115 ,20.22398 
223 ,41.2964 ,0.90691 ,2.06115 ,20.22398 
224 ,41.4723 ,0.90873 ,2.05430 ,20.15682 
225 ,41.6487 ,0.91049 ,2.02008 ,19.82104 
226 ,41.8249 ,0.91230 ,2.01666 ,19.78746 
227 ,42.0009 ,0.91402 ,2.00297 ,19.65315 
228 ,42.1770 ,0.91583 ,1.98928 ,19.51884 
229 ,42.3530 ,0.91752 ,1.98586 ,19.48526 
230 ,42.5288 ,0.91932 ,1.96875 ,19.31737 
231 ,42.7051 ,0.92110 ,1.95164 ,19.14948 
232 ,42.9132 ,0.92307 ,1.93453 ,18.98158 
233 ,43.0893 ,0.92492 ,1.91742 ,18.81369 
234 ,43.2814 ,0.92671 ,1.92084 ,18.84727 
235 ,43.4735 ,0.92870 ,1.90031 ,18.64580 
236 ,43.6492 ,0.93062 ,1.87293 ,18.37717 
237 ,43.8255 ,0.93224 ,1.85582 ,18.20928 
238 ,44.0016 ,0.93400 ,1.84897 ,18.14213 
239 ,44.1777 ,0.93575 ,1.84555 ,18.10855 
240 ,44.3698 ,0.93763 ,1.82160 ,17.87350 
241 ,44.5457 ,0.93945 ,1.81817 ,17.83992 
242 ,44.7379 ,0.94132 ,1.81133 ,17.77276 
243 ,44.9140 ,0.94311 ,1.79422 ,17.60487 
244 ,45.0901 ,0.94492 ,1.77026 ,17.36983 
245 ,45.2818 ,0.94683 ,1.75657 ,17.23551 
246 ,45.4581 ,0.94858 ,1.75657 ,17.23551 
247 ,45.6503 ,0.95050 ,1.73604 ,17.03404 
248 ,45.8423 ,0.95241 ,1.72235 ,16.89973 
249 ,46.0343 ,0.95432 ,1.71893 ,16.86615 
250 ,46.2105 ,0.95610 ,1.69840 ,16.66468 
251 ,46.4186 ,0.95808 ,1.67444 ,16.42963 
252 ,46.5946 ,0.95996 ,1.68471 ,16.53037 
253 ,46.7543 ,0.96164 ,1.66075 ,16.29532 
254 ,46.9304 ,0.96334 ,1.64707 ,16.16101 
255 ,47.0903 ,0.96502 ,1.62995 ,15.99311 
256 ,47.2830 ,0.96668 ,1.61969 ,15.89238 
257 ,47.4910 ,0.96881 ,1.60258 ,15.72449 
258 ,47.6831 ,0.97081 ,1.58547 ,15.55660 
259 ,47.8591 ,0.97255 ,1.59231 ,15.62375 
260 ,48.0514 ,0.97449 ,1.57178 ,15.42228 
261 ,48.2434 ,0.97643 ,1.53756 ,15.08650 
262 ,48.4195 ,0.97812 ,1.54098 ,15.12008 
263 ,48.6114 ,0.98012 ,1.53413 ,15.05292 
264 ,48.8036 ,0.98196 ,1.52729 ,14.98577 
265 ,48.9957 ,0.98385 ,1.51018 ,14.81787 
266 ,49.1719 ,0.98570 ,1.51360 ,14.85145 
267 ,49.3476 ,0.98747 ,1.48280 ,14.54925 
268 ,49.5240 ,0.98921 ,1.44858 ,14.21346 
269 ,49.7001 ,0.99101 ,1.44858 ,14.21346 
270 ,49.8760 ,0.99281 ,1.44516 ,14.17989 
271 ,50.0518 ,0.99451 ,1.44516 ,14.17989 
272 ,50.2281 ,0.99627 ,1.44174 ,14.14631 
273 ,50.4202 ,0.99809 ,1.40067 ,13.74337 
274 ,50.6124 ,0.99996 ,1.40409 ,13.77695 
275 ,50.8045 ,1.00204 ,1.38014 ,13.54190 
276 ,50.9964 ,1.00385 ,1.37671 ,13.50832 
277 ,51.1726 ,1.00567 ,1.36645 ,13.40759 
278 ,51.3645 ,1.00758 ,1.34249 ,13.17254 
279 ,51.5408 ,1.00940 ,1.31854 ,12.93749 
280 ,51.7328 ,1.01127 ,1.32196 ,12.97107 
281 ,51.9090 ,1.01306 ,1.31169 ,12.87033 
282 ,52.0850 ,1.01482 ,1.28774 ,12.63528 
283 ,52.2449 ,1.01654 ,1.27747 ,12.53455 
284 ,52.4371 ,1.01828 ,1.28089 ,12.56813 
285 ,52.6133 ,1.02013 ,1.27063 ,12.46739 
286 ,52.8209 ,1.02215 ,1.25009 ,12.26592 
287 ,52.9974 ,1.02390 ,1.23641 ,12.13161 
288 ,53.2051 ,1.02596 ,1.20218 ,11.79583 
289 ,53.3816 ,1.02778 ,1.20903 ,11.86298 
290 ,53.5574 ,1.02956 ,1.18850 ,11.66151 
291 ,53.7657 ,1.03163 ,1.18507 ,11.62794 
292 ,53.9574 ,1.03352 ,1.15770 ,11.35931 
293 ,54.1339 ,1.03527 ,1.16454 ,11.42647 
294 ,54.3094 ,1.03707 ,1.15427 ,11.32573 
295 ,54.4860 ,1.03881 ,1.14058 ,11.19142 
296 ,54.6936 ,1.04078 ,1.11663 ,10.95637 
297 ,54.8701 ,1.04265 ,1.11321 ,10.92279 
298 ,55.0460 ,1.04438 ,1.07899 ,10.58701 
299 ,55.2382 ,1.04631 ,1.07899 ,10.58701 
300 ,55.4304 ,1.04822 ,1.07214 ,10.51985 
301 ,55.6063 ,1.05002 ,1.07214 ,10.51985 
302 ,55.7985 ,1.05189 ,1.03792 ,10.18407 
303 ,55.9746 ,1.05370 ,1.02081 ,10.01618 
304 ,56.1827 ,1.05569 ,1.02423 ,10.04976 
305 ,56.3583 ,1.05757 ,0.99343 ,9.74755 
306 ,56.5508 ,1.05937 ,1.00028 ,9.81471 
307 ,56.7427 ,1.06141 ,0.98317 ,9.64682 
308 ,56.9190 ,1.06310 ,0.96605 ,9.47892 
309 ,57.1269 ,1.06504 ,0.96948 ,9.51250 
310 ,57.3031 ,1.06697 ,0.93525 ,9.17672 
311 ,57.4789 ,1.06868 ,0.93525 ,9.17672 
312 ,57.6553 ,1.07053 ,0.92499 ,9.07598 
313 ,57.8473 ,1.07241 ,0.92499 ,9.07598 
314 ,58.0394 ,1.07428 ,0.89077 ,8.74020 
315 ,58.2156 ,1.07610 ,0.88392 ,8.67305 
316 ,58.4076 ,1.07798 ,0.88050 ,8.63947 
317 ,58.5836 ,1.07976 ,0.85654 ,8.40442 
318 ,58.7598 ,1.08152 ,0.84628 ,8.30368 
319 ,58.9358 ,1.08330 ,0.83259 ,8.16937 
320 ,59.1118 ,1.08505 ,0.83943 ,8.23653 
321 ,59.2877 ,1.08680 ,0.82575 ,8.10221 
322 ,59.4799 ,1.08862 ,0.80863 ,7.93432 
323 ,59.6880 ,1.09075 ,0.80521 ,7.90074 
324 ,59.8962 ,1.09272 ,0.77784 ,7.63212 
325 ,60.0723 ,1.09468 ,0.77441 ,7.59854 
326 ,60.2644 ,1.09655 ,0.77099 ,7.56496 
327 ,60.4405 ,1.09836 ,0.74019 ,7.26276 
328 ,60.6325 ,1.10028 ,0.74704 ,7.32991 
329 ,60.8404 ,1.10216 ,0.71966 ,7.06129 
330 ,61.0327 ,1.10427 ,0.71281 ,6.99413 
331 ,61.2408 ,1.10615 ,0.68544 ,6.72550 
332 ,61.4328 ,1.10825 ,0.68886 ,6.75908 
333 ,61.6088 ,1.10999 ,0.68201 ,6.69193 
334 ,61.7846 ,1.11181 ,0.68201 ,6.69193 
335 ,61.9611 ,1.11357 ,0.66833 ,6.55761 
336 ,62.1530 ,1.11547 ,0.63753 ,6.25541 
337 ,62.3292 ,1.11720 ,0.65121 ,6.38972 
338 ,62.5050 ,1.11895 ,0.62726 ,6.15467 
339 ,62.6813 ,1.12073 ,0.61015 ,5.98678 
340 ,62.8735 ,1.12268 ,0.58962 ,5.78531 
341 ,63.0655 ,1.12452 ,0.60673 ,5.95320 
342 ,63.2416 ,1.12634 ,0.58277 ,5.71815 
343 ,63.4497 ,1.12824 ,0.58277 ,5.71815 
344 ,63.6259 ,1.13019 ,0.56908 ,5.58384 
345 ,63.8018 ,1.13191 ,0.55197 ,5.41595 
346 ,63.9935 ,1.13383 ,0.53486 ,5.24806 
347 ,64.1699 ,1.13558 ,0.52459 ,5.14732 
348 ,64.3461 ,1.13742 ,0.53144 ,5.21448 
349 ,64.5380 ,1.13921 ,0.50406 ,4.94585 
350 ,64.7143 ,1.14103 ,0.49722 ,4.87870 
351 ,64.9059 ,1.14294 ,0.49380 ,4.84512 
352 ,65.0824 ,1.14475 ,0.47326 ,4.64365 
353 ,65.2905 ,1.14682 ,0.45957 ,4.50934 
354 ,65.4664 ,1.14854 ,0.45273 ,4.44218 
355 ,65.6423 ,1.15030 ,0.44246 ,4.34144 
356 ,65.8023 ,1.15205 ,0.42535 ,4.17355 
357 ,65.9784 ,1.15370 ,0.42193 ,4.13997 
358 ,66.1547 ,1.15543 ,0.40140 ,3.93850 
359 ,66.3469 ,1.15737 ,0.40140 ,3.93850 
360 ,66.5389 ,1.15919 ,0.38086 ,3.73703 
361 ,66.7149 ,1.16106 ,0.36718 ,3.60272 
362 ,66.8910 ,1.16282 ,0.35349 ,3.46841 
363 ,67.0667 ,1.16463 ,0.36375 ,3.56914 
364 ,67.2427 ,1.16632 ,0.35349 ,3.46841 
365 ,67.4193 ,1.16809 ,0.33295 ,3.26694 
366 ,67.6114 ,1.17004 ,0.32611 ,3.19978 
367 ,67.8195 ,1.17202 ,0.33295 ,3.26694 
368 ,68.0114 ,1.17394 ,0.29873 ,2.93116 
369 ,68.1874 ,1.17574 ,0.29531 ,2.89758 
370 ,68.3634 ,1.17753 ,0.28847 ,2.83042 
371 ,68.5396 ,1.17925 ,0.27478 ,2.69611 
372 ,68.7318 ,1.18109 ,0.26109 ,2.56179 
373 ,68.9244 ,1.18308 ,0.26109 ,2.56179 
374 ,69.1158 ,1.18501 ,0.23029 ,2.25959 
375 ,69.3080 ,1.18693 ,0.22002 ,2.15885 
376 ,69.4999 ,1.18881 ,0.21660 ,2.12528 
377 ,69.6922 ,1.19084 ,0.19607 ,1.92381 
378 ,69.8679 ,1.19265 ,0.19949 ,1.95738 
379 ,70.0444 ,1.19434 ,0.20291 ,1.99096 
380 ,70.2363 ,1.19620 ,0.15842 ,1.55445 
381 ,70.4291 ,1.19813 ,0.16869 ,1.65518 
382 ,70.6366 ,1.20018 ,0.16869 ,1.65518 
383 ,70.8128 ,1.20203 ,0.13789 ,1.35298 
384 ,71.0047 ,1.20391 ,0.13105 ,1.28582 
385 ,71.1808 ,1.20572 ,0.12420 ,1.21866 
386 ,71.3565 ,1.20740 ,0.11736 ,1.15151 
387 ,71.5333 ,1.20917 ,0.08998 ,0.88288 
388 ,71.7252 ,1.21110 ,0.08314 ,0.81572 
389 ,71.9172 ,1.21307 ,0.07971 ,0.78214 
390 ,72.1089 ,1.21487 ,0.06260 ,0.61425 
391 ,72.2852 ,1.21671 ,0.05918 ,0.58067 
392 ,72.4451 ,1.21844 ,0.05234 ,0.51352 
393 ,72.6215 ,1.22009 ,0.04549 ,0.44636 
394 ,72.8135 ,1.22200 ,0.02154 ,0.21131 
395 ,72.9894 ,1.22381 ,0.00443 ,0.04342 
396 ,73.1656 ,1.22550 ,-0.00926 ,-0.09089 
397 ,73.3416 ,1.22728 ,0.01469 ,0.14416 
398 ,73.5016 ,1.22901 ,0.00443 ,0.04342 
399 ,73.6778 ,1.23064 ,-0.01611 ,-0.15805 
400 ,73.8539 ,1.23241 ,-0.01953 ,-0.19163 
401 ,74.0301 ,1.23417 ,-0.04691 ,-0.46025 
402 ,74.2221 ,1.23605 ,-0.02637 ,-0.25878 
403 ,74.4141 ,1.23800 ,-0.07086 ,-0.69530 
404 ,74.5741 ,1.23972 ,-0.07428 ,-0.72888 
405 ,74.7823 ,1.24160 ,-0.07086 ,-0.69530 
406 ,74.9584 ,1.24348 ,-0.07086 ,-0.69530 
407 ,75.1504 ,1.24535 ,-0.08797 ,-0.86319 
408 ,75.3426 ,1.24726 ,-0.10166 ,-0.99751 
409 ,75.5185 ,1.24905 ,-0.09824 ,-0.96393 
410 ,75.6944 ,1.25087 ,-0.13588 ,-1.33329 
411 ,75.8708 ,1.25262 ,-0.13246 ,-1.29971 
412 ,76.0467 ,1.25440 ,-0.13931 ,-1.36687 
413 ,76.2229 ,1.25612 ,-0.14273 ,-1.40045 
414 ,76.3988 ,1.25784 ,-0.14957 ,-1.46760 
415 ,76.5751 ,1.25961 ,-0.15984 ,-1.56834 
416 ,76.7831 ,1.26160 ,-0.18037 ,-1.76981 
417 ,76.9912 ,1.26363 ,-0.18379 ,-1.80338 
418 ,77.1672 ,1.26557 ,-0.21117 ,-2.07201 
419 ,77.3434 ,1.26736 ,-0.20433 ,-2.00485 
420 ,77.5355 ,1.26920 ,-0.20775 ,-2.03843 
421 ,77.7110 ,1.27097 ,-0.22144 ,-2.17275 
422 ,77.9036 ,1.27278 ,-0.23855 ,-2.34064 
423 ,78.1115 ,1.27488 ,-0.25224 ,-2.47495 
424 ,78.2873 ,1.27673 ,-0.26250 ,-2.57569 
425 ,78.4638 ,1.27845 ,-0.26593 ,-2.60926 
426 ,78.6558 ,1.28040 ,-0.26935 ,-2.64284 
427 ,78.8319 ,1.28217 ,-0.27961 ,-2.74358 
428 ,79.0078 ,1.28393 ,-0.30015 ,-2.94505 
429 ,79.1999 ,1.28575 ,-0.30699 ,-3.01220 
430 ,79.3922 ,1.28765 ,-0.30015 ,-2.94505 
431 ,79.5842 ,1.28969 ,-0.32068 ,-3.14652 
432 ,79.7763 ,1.29155 ,-0.31726 ,-3.11294 
433 ,79.9683 ,1.29345 ,-0.34464 ,-3.38156 
434 ,80.1604 ,1.29542 ,-0.35148 ,-3.44872 
435 ,80.3366 ,1.29720 ,-0.34121 ,-3.34799 
436 ,80.5286 ,1.29909 ,-0.37201 ,-3.65019 
437 ,80.7042 ,1.30090 ,-0.37886 ,-3.71735 
438 ,80.8805 ,1.30266 ,-0.37544 ,-3.68377 
439 ,81.0726 ,1.30459 ,-0.38228 ,-3.75093 
440 ,81.2646 ,1.30652 ,-0.40281 ,-3.95240 
441 ,81.4569 ,1.30832 ,-0.41992 ,-4.12029 
442 ,81.6651 ,1.31044 ,-0.43361 ,-4.25460 
443 ,81.8409 ,1.31228 ,-0.43361 ,-4.25460 
444 ,82.0008 ,1.31399 ,-0.43361 ,-4.25460 
445 ,82.1771 ,1.31558 ,-0.43361 ,-4.25460 
446 ,82.3534 ,1.31738 ,-0.44730 ,-4.38891 
447 ,82.5293 ,1.31918 ,-0.45414 ,-4.45607 
448 ,82.7055 ,1.32088 ,-0.47810 ,-4.69112 
449 ,82.8815 ,1.32266 ,-0.48494 ,-4.75828 
450 ,83.0412 ,1.32435 ,-0.48494 ,-4.75828 
451 ,83.2176 ,1.32606 ,-0.50206 ,-4.92617 
452 ,83.4096 ,1.32788 ,-0.49521 ,-4.85901 
453 ,83.6176 ,1.32993 ,-0.50548 ,-4.95975 
454 ,83.8100 ,1.33191 ,-0.52259 ,-5.12764 
455 ,84.0180 ,1.33393 ,-0.52943 ,-5.19479 
456 ,84.2102 ,1.33585 ,-0.54312 ,-5.32911 
457 ,84.4022 ,1.33788 ,-0.55681 ,-5.46342 
458 ,84.5782 ,1.33958 ,-0.57050 ,-5.59773 
459 ,84.7542 ,1.34137 ,-0.56023 ,-5.49700 
460 ,84.9304 ,1.34314 ,-0.56708 ,-5.56415 
461 ,85.1065 ,1.34487 ,-0.57392 ,-5.63131 
462 ,85.2826 ,1.34668 ,-0.59788 ,-5.86636 
463 ,85.4907 ,1.34866 ,-0.59788 ,-5.86636 
464 ,85.6827 ,1.35064 ,-0.62183 ,-6.10141 
