Data stamp = , 06-04-2022 22:31:38 602

Calibration Values: 
Slope = , 26.54 , g/V 
Offset Voltage at no contact = , -0.501760 , V 

No , Time , Stage Position ,   Mass , Force 
   ,  (s) ,      (mm)      ,   (g)  , (mN)  

1 ,0.0000 ,0.49933 ,5.19927 ,51.01528 
2 ,0.2175 ,0.49942 ,5.19927 ,51.01528 
3 ,0.5216 ,0.50022 ,5.20612 ,51.08244 
4 ,0.7140 ,0.50153 ,5.20270 ,51.04886 
5 ,0.9060 ,0.50318 ,5.21639 ,51.18317 
6 ,1.0978 ,0.50498 ,5.21296 ,51.14960 
7 ,1.2743 ,0.50676 ,5.20612 ,51.08244 
8 ,1.4666 ,0.50864 ,5.21981 ,51.21675 
9 ,1.6423 ,0.51051 ,5.21296 ,51.14960 
10 ,1.8343 ,0.51232 ,5.19927 ,51.01528 
11 ,2.0425 ,0.51436 ,5.20270 ,51.04886 
12 ,2.2184 ,0.51624 ,5.17874 ,50.81381 
13 ,2.4107 ,0.51815 ,5.18901 ,50.91455 
14 ,2.6185 ,0.52023 ,5.16505 ,50.67950 
15 ,2.7949 ,0.52205 ,5.15479 ,50.57876 
16 ,2.9713 ,0.52382 ,5.12399 ,50.27656 
17 ,3.1631 ,0.52564 ,5.12741 ,50.31014 
18 ,3.3389 ,0.52747 ,5.12399 ,50.27656 
19 ,3.5469 ,0.52950 ,5.08977 ,49.94078 
20 ,3.7228 ,0.53131 ,5.06923 ,49.73931 
21 ,3.8992 ,0.53310 ,5.06581 ,49.70573 
22 ,4.1070 ,0.53505 ,5.03501 ,49.40352 
23 ,4.2835 ,0.53689 ,5.03501 ,49.40352 
24 ,4.4915 ,0.53896 ,5.00763 ,49.13490 
25 ,4.6678 ,0.54072 ,4.98026 ,48.86627 
26 ,4.8436 ,0.54246 ,4.97341 ,48.79911 
27 ,5.0197 ,0.54428 ,4.97683 ,48.83269 
28 ,5.1958 ,0.54600 ,4.93919 ,48.46333 
29 ,5.3880 ,0.54791 ,4.92208 ,48.29544 
30 ,5.5640 ,0.54967 ,4.91181 ,48.19471 
31 ,5.7558 ,0.55151 ,4.88786 ,47.95966 
32 ,5.9320 ,0.55339 ,4.86732 ,47.75819 
33 ,6.1240 ,0.55530 ,4.86048 ,47.69103 
34 ,6.3002 ,0.55703 ,4.85364 ,47.62387 
35 ,6.4762 ,0.55881 ,4.82626 ,47.35525 
36 ,6.6524 ,0.56056 ,4.80573 ,47.15378 
37 ,6.8285 ,0.56238 ,4.78519 ,46.95231 
38 ,7.0045 ,0.56409 ,4.77150 ,46.81800 
39 ,7.1964 ,0.56606 ,4.77493 ,46.85157 
40 ,7.3887 ,0.56789 ,4.74755 ,46.58295 
41 ,7.5647 ,0.56966 ,4.73044 ,46.41506 
42 ,7.7407 ,0.57148 ,4.73728 ,46.48221 
43 ,7.9166 ,0.57320 ,4.71675 ,46.28074 
44 ,8.0926 ,0.57498 ,4.70306 ,46.14643 
45 ,8.2690 ,0.57673 ,4.66884 ,45.81065 
46 ,8.4450 ,0.57847 ,4.65857 ,45.70991 
47 ,8.6532 ,0.58052 ,4.63119 ,45.44128 
48 ,8.8293 ,0.58235 ,4.62093 ,45.34055 
49 ,9.0050 ,0.58413 ,4.60040 ,45.13908 
50 ,9.1814 ,0.58588 ,4.59013 ,45.03835 
51 ,9.3575 ,0.58763 ,4.58671 ,45.00477 
52 ,9.5333 ,0.58933 ,4.57986 ,44.93761 
53 ,9.7097 ,0.59118 ,4.55591 ,44.70256 
54 ,9.8858 ,0.59295 ,4.53537 ,44.50109 
55 ,10.0615 ,0.59471 ,4.54564 ,44.60183 
56 ,10.2538 ,0.59656 ,4.52169 ,44.36678 
57 ,10.4300 ,0.59839 ,4.49773 ,44.13173 
58 ,10.6061 ,0.60016 ,4.46693 ,43.82953 
59 ,10.7981 ,0.60201 ,4.47720 ,43.93026 
60 ,10.9741 ,0.60376 ,4.46693 ,43.82953 
61 ,11.1499 ,0.60553 ,4.43271 ,43.49374 
62 ,11.3263 ,0.60731 ,4.40875 ,43.25870 
63 ,11.5184 ,0.60920 ,4.41560 ,43.32585 
64 ,11.6944 ,0.61101 ,4.40191 ,43.19154 
65 ,11.9027 ,0.61302 ,4.37795 ,42.95649 
66 ,12.0944 ,0.61496 ,4.36769 ,42.85576 
67 ,12.2706 ,0.61679 ,4.33004 ,42.48639 
68 ,12.4467 ,0.61846 ,4.31636 ,42.35208 
69 ,12.6229 ,0.62029 ,4.30267 ,42.21777 
70 ,12.8148 ,0.62216 ,4.30609 ,42.25135 
71 ,13.0069 ,0.62407 ,4.27529 ,41.94914 
72 ,13.1831 ,0.62587 ,4.26502 ,41.84841 
73 ,13.3912 ,0.62792 ,4.24449 ,41.64694 
74 ,13.5830 ,0.62984 ,4.22396 ,41.44547 
75 ,13.7751 ,0.63170 ,4.21369 ,41.34473 
76 ,13.9513 ,0.63363 ,4.19658 ,41.17684 
77 ,14.1274 ,0.63528 ,4.18631 ,41.07611 
78 ,14.3032 ,0.63708 ,4.15209 ,40.74032 
79 ,14.4796 ,0.63886 ,4.14525 ,40.67317 
80 ,14.6716 ,0.64076 ,4.13156 ,40.53885 
81 ,14.8478 ,0.64251 ,4.12129 ,40.43812 
82 ,15.0558 ,0.64450 ,4.10760 ,40.30380 
83 ,15.2478 ,0.64650 ,4.09734 ,40.20307 
84 ,15.4076 ,0.64822 ,4.06996 ,39.93444 
85 ,15.5840 ,0.64985 ,4.05285 ,39.76655 
86 ,15.7760 ,0.65169 ,4.02889 ,39.53150 
87 ,15.9521 ,0.65352 ,4.03574 ,39.59866 
88 ,16.1119 ,0.65523 ,4.01520 ,39.39719 
89 ,16.2884 ,0.65694 ,4.00494 ,39.29646 
90 ,16.4640 ,0.65865 ,3.98441 ,39.09499 
91 ,16.6565 ,0.66049 ,3.96045 ,38.85994 
92 ,16.8644 ,0.66265 ,3.93992 ,38.65847 
93 ,17.0407 ,0.66441 ,3.92623 ,38.52415 
94 ,17.2327 ,0.66638 ,3.92623 ,38.52415 
95 ,17.4408 ,0.66829 ,3.92281 ,38.49058 
96 ,17.6168 ,0.67016 ,3.87832 ,38.05406 
97 ,17.8250 ,0.67217 ,3.87147 ,37.98690 
98 ,18.0170 ,0.67425 ,3.86121 ,37.88617 
99 ,18.1932 ,0.67596 ,3.84752 ,37.75185 
100 ,18.3851 ,0.67784 ,3.83041 ,37.58396 
101 ,18.5449 ,0.67957 ,3.81330 ,37.41607 
102 ,18.7214 ,0.68123 ,3.79961 ,37.28176 
103 ,18.9135 ,0.68316 ,3.78934 ,37.18102 
104 ,19.0892 ,0.68493 ,3.78592 ,37.14744 
105 ,19.2815 ,0.68680 ,3.75170 ,36.81166 
106 ,19.4576 ,0.68858 ,3.73117 ,36.61019 
107 ,19.6174 ,0.69030 ,3.73117 ,36.61019 
108 ,19.7938 ,0.69199 ,3.70037 ,36.30799 
109 ,20.0018 ,0.69396 ,3.69694 ,36.27441 
110 ,20.1778 ,0.69578 ,3.67641 ,36.07294 
111 ,20.3539 ,0.69756 ,3.66614 ,35.97220 
112 ,20.5301 ,0.69934 ,3.66272 ,35.93863 
113 ,20.7058 ,0.70104 ,3.64219 ,35.73716 
114 ,20.8983 ,0.70289 ,3.62508 ,35.56926 
115 ,21.0745 ,0.70477 ,3.60797 ,35.40137 
116 ,21.2660 ,0.70667 ,3.60454 ,35.36779 
117 ,21.4260 ,0.70840 ,3.59770 ,35.30064 
118 ,21.6022 ,0.71000 ,3.58743 ,35.19990 
119 ,21.7782 ,0.71183 ,3.54637 ,34.79696 
120 ,21.9706 ,0.71368 ,3.56348 ,34.96485 
121 ,22.1463 ,0.71557 ,3.53268 ,34.66265 
122 ,22.3227 ,0.71720 ,3.50530 ,34.39402 
123 ,22.5147 ,0.71914 ,3.49161 ,34.25971 
124 ,22.6910 ,0.72091 ,3.49504 ,34.29329 
125 ,22.8667 ,0.72269 ,3.49161 ,34.25971 
126 ,23.0591 ,0.72451 ,3.45397 ,33.89035 
127 ,23.2350 ,0.72633 ,3.43001 ,33.65530 
128 ,23.4112 ,0.72808 ,3.43686 ,33.72246 
129 ,23.5872 ,0.72990 ,3.43344 ,33.68888 
130 ,23.7634 ,0.73162 ,3.42659 ,33.62172 
131 ,23.9391 ,0.73338 ,3.38553 ,33.21878 
132 ,24.1154 ,0.73513 ,3.35815 ,32.95016 
133 ,24.3076 ,0.73713 ,3.36499 ,33.01731 
134 ,24.4997 ,0.73900 ,3.34446 ,32.81584 
135 ,24.6918 ,0.74085 ,3.33762 ,32.74869 
136 ,24.8838 ,0.74279 ,3.32051 ,32.58080 
137 ,25.0596 ,0.74456 ,3.29655 ,32.34575 
138 ,25.2358 ,0.74633 ,3.27602 ,32.14428 
139 ,25.4120 ,0.74812 ,3.26917 ,32.07712 
140 ,25.6040 ,0.75006 ,3.24522 ,31.84207 
141 ,25.7801 ,0.75179 ,3.23837 ,31.77492 
142 ,25.9563 ,0.75357 ,3.23153 ,31.70776 
143 ,26.1323 ,0.75538 ,3.22468 ,31.64060 
144 ,26.3084 ,0.75703 ,3.20415 ,31.43913 
145 ,26.4844 ,0.75885 ,3.19731 ,31.37198 
146 ,26.6765 ,0.76077 ,3.16651 ,31.06977 
147 ,26.8527 ,0.76248 ,3.16309 ,31.03619 
148 ,27.0608 ,0.76442 ,3.15624 ,30.96904 
149 ,27.2689 ,0.76659 ,3.14255 ,30.83472 
150 ,27.4608 ,0.76855 ,3.10833 ,30.49894 
151 ,27.6369 ,0.77036 ,3.09806 ,30.39821 
152 ,27.8131 ,0.77210 ,3.08780 ,30.29747 
153 ,28.0371 ,0.77424 ,3.07753 ,30.19674 
154 ,28.2128 ,0.77609 ,3.05358 ,29.96169 
155 ,28.3893 ,0.77785 ,3.03304 ,29.76022 
156 ,28.5813 ,0.77978 ,3.03989 ,29.82737 
157 ,28.7738 ,0.78172 ,3.00224 ,29.45801 
158 ,28.9655 ,0.78358 ,3.01593 ,29.59233 
159 ,29.1576 ,0.78552 ,2.96460 ,29.08865 
160 ,29.3334 ,0.78734 ,2.97829 ,29.22297 
161 ,29.5097 ,0.78908 ,2.95091 ,28.95434 
162 ,29.6857 ,0.79080 ,2.95091 ,28.95434 
163 ,29.8618 ,0.79259 ,2.93722 ,28.82003 
164 ,30.0378 ,0.79431 ,2.90642 ,28.51782 
165 ,30.2140 ,0.79610 ,2.89958 ,28.45066 
166 ,30.3900 ,0.79788 ,2.87562 ,28.21562 
167 ,30.5821 ,0.79975 ,2.87562 ,28.21562 
168 ,30.7583 ,0.80148 ,2.86193 ,28.08130 
169 ,30.9503 ,0.80340 ,2.85167 ,27.98057 
170 ,31.1421 ,0.80539 ,2.83114 ,27.77910 
171 ,31.3180 ,0.80709 ,2.81745 ,27.64479 
172 ,31.4945 ,0.80893 ,2.80376 ,27.51047 
173 ,31.6864 ,0.81077 ,2.79349 ,27.40974 
174 ,31.8627 ,0.81260 ,2.79007 ,27.37616 
175 ,32.0387 ,0.81437 ,2.76269 ,27.10753 
176 ,32.2145 ,0.81609 ,2.74558 ,26.93964 
177 ,32.3909 ,0.81788 ,2.73189 ,26.80533 
178 ,32.5830 ,0.81976 ,2.72847 ,26.77175 
179 ,32.7746 ,0.82167 ,2.70452 ,26.53670 
180 ,32.9512 ,0.82349 ,2.66345 ,26.13376 
181 ,33.1431 ,0.82544 ,2.67714 ,26.26807 
182 ,33.3193 ,0.82716 ,2.66003 ,26.10018 
183 ,33.5110 ,0.82901 ,2.64634 ,25.96587 
184 ,33.7031 ,0.83091 ,2.64292 ,25.93229 
185 ,33.8794 ,0.83276 ,2.62923 ,25.79798 
186 ,34.0556 ,0.83451 ,2.61896 ,25.69724 
187 ,34.2477 ,0.83642 ,2.58816 ,25.39504 
188 ,34.4398 ,0.83836 ,2.59501 ,25.46220 
189 ,34.6318 ,0.84024 ,2.54710 ,24.99210 
190 ,34.8080 ,0.84202 ,2.54710 ,24.99210 
191 ,34.9840 ,0.84378 ,2.54710 ,24.99210 
192 ,35.1759 ,0.84573 ,2.54367 ,24.95852 
193 ,35.3522 ,0.84744 ,2.50261 ,24.55558 
194 ,35.5441 ,0.84932 ,2.49918 ,24.52200 
195 ,35.7203 ,0.85115 ,2.48892 ,24.42127 
196 ,35.9124 ,0.85308 ,2.47181 ,24.25338 
197 ,36.0885 ,0.85487 ,2.43759 ,23.91759 
198 ,36.2804 ,0.85675 ,2.44443 ,23.98475 
199 ,36.4566 ,0.85853 ,2.43759 ,23.91759 
200 ,36.6323 ,0.86032 ,2.42048 ,23.74970 
201 ,36.8088 ,0.86203 ,2.37941 ,23.34676 
202 ,36.9847 ,0.86379 ,2.38625 ,23.41392 
203 ,37.1767 ,0.86569 ,2.37941 ,23.34676 
204 ,37.3530 ,0.86745 ,2.35545 ,23.11171 
205 ,37.5291 ,0.86924 ,2.33150 ,22.87667 
206 ,37.7049 ,0.87101 ,2.32808 ,22.84309 
207 ,37.8812 ,0.87274 ,2.32123 ,22.77593 
208 ,38.1051 ,0.87488 ,2.29385 ,22.50731 
209 ,38.2814 ,0.87676 ,2.30412 ,22.60804 
210 ,38.4733 ,0.87866 ,2.27674 ,22.33941 
211 ,38.6494 ,0.88044 ,2.26990 ,22.27226 
212 ,38.8253 ,0.88214 ,2.24252 ,22.00363 
213 ,39.0015 ,0.88395 ,2.22541 ,21.83574 
214 ,39.1776 ,0.88574 ,2.23910 ,21.97005 
215 ,39.3537 ,0.88743 ,2.21172 ,21.70143 
216 ,39.5297 ,0.88924 ,2.18777 ,21.46638 
217 ,39.7057 ,0.89099 ,2.17408 ,21.33206 
218 ,39.8817 ,0.89278 ,2.17408 ,21.33206 
219 ,40.0740 ,0.89463 ,2.16381 ,21.23133 
220 ,40.2663 ,0.89657 ,2.12959 ,20.89555 
221 ,40.4422 ,0.89836 ,2.12275 ,20.82839 
222 ,40.6182 ,0.90010 ,2.12959 ,20.89555 
223 ,40.8263 ,0.90207 ,2.10221 ,20.62692 
224 ,41.0343 ,0.90419 ,2.09537 ,20.55976 
225 ,41.2264 ,0.90610 ,2.08168 ,20.42545 
226 ,41.4024 ,0.90796 ,2.05088 ,20.12325 
227 ,41.5786 ,0.90972 ,2.05430 ,20.15682 
228 ,41.7546 ,0.91145 ,2.04746 ,20.08967 
229 ,41.9307 ,0.91325 ,2.02693 ,19.88820 
230 ,42.1388 ,0.91523 ,2.01324 ,19.75388 
231 ,42.3146 ,0.91704 ,2.00297 ,19.65315 
232 ,42.4910 ,0.91883 ,1.99270 ,19.55241 
233 ,42.6669 ,0.92061 ,1.96875 ,19.31737 
234 ,42.8752 ,0.92263 ,1.97217 ,19.35094 
235 ,43.0512 ,0.92444 ,1.95848 ,19.21663 
236 ,43.2433 ,0.92638 ,1.92426 ,18.88085 
237 ,43.4513 ,0.92836 ,1.91399 ,18.78011 
238 ,43.6274 ,0.93021 ,1.89688 ,18.61222 
239 ,43.8035 ,0.93193 ,1.87635 ,18.41075 
240 ,43.9955 ,0.93391 ,1.88319 ,18.47791 
241 ,44.1713 ,0.93559 ,1.87977 ,18.44433 
242 ,44.3475 ,0.93737 ,1.84213 ,18.07497 
243 ,44.5558 ,0.93941 ,1.83871 ,18.04139 
244 ,44.7478 ,0.94130 ,1.80791 ,17.73919 
245 ,44.9559 ,0.94327 ,1.82160 ,17.87350 
246 ,45.1319 ,0.94524 ,1.79764 ,17.63845 
247 ,45.3239 ,0.94712 ,1.77369 ,17.40340 
248 ,45.5322 ,0.94916 ,1.76000 ,17.26909 
249 ,45.7239 ,0.95111 ,1.73946 ,17.06762 
250 ,45.9003 ,0.95289 ,1.73946 ,17.06762 
251 ,46.0764 ,0.95470 ,1.71209 ,16.79899 
252 ,46.2523 ,0.95645 ,1.72578 ,16.93331 
253 ,46.4447 ,0.95830 ,1.68471 ,16.53037 
254 ,46.6686 ,0.96043 ,1.67786 ,16.46321 
255 ,46.8447 ,0.96237 ,1.67786 ,16.46321 
256 ,47.0208 ,0.96411 ,1.64022 ,16.09385 
257 ,47.2130 ,0.96605 ,1.66075 ,16.29532 
258 ,47.3884 ,0.96777 ,1.63680 ,16.06027 
259 ,47.5485 ,0.96954 ,1.61969 ,15.89238 
260 ,47.7087 ,0.97113 ,1.61969 ,15.89238 
261 ,47.8846 ,0.97274 ,1.60258 ,15.72449 
262 ,48.0446 ,0.97448 ,1.57520 ,15.45586 
263 ,48.2210 ,0.97608 ,1.56493 ,15.35513 
264 ,48.4290 ,0.97805 ,1.57178 ,15.42228 
265 ,48.6215 ,0.98000 ,1.54782 ,15.18724 
266 ,48.8295 ,0.98214 ,1.54782 ,15.18724 
267 ,49.0056 ,0.98392 ,1.52045 ,14.91861 
268 ,49.1816 ,0.98577 ,1.50676 ,14.78430 
269 ,49.3575 ,0.98745 ,1.49307 ,14.64998 
270 ,49.5333 ,0.98920 ,1.49649 ,14.68356 
271 ,49.7098 ,0.99101 ,1.48965 ,14.61640 
272 ,49.9018 ,0.99289 ,1.45200 ,14.24704 
273 ,50.0780 ,0.99471 ,1.45542 ,14.28062 
274 ,50.2700 ,0.99656 ,1.45200 ,14.24704 
275 ,50.4462 ,0.99837 ,1.42805 ,14.01199 
276 ,50.6222 ,1.00009 ,1.40751 ,13.81053 
277 ,50.7822 ,1.00182 ,1.38356 ,13.57548 
278 ,50.9583 ,1.00343 ,1.37671 ,13.50832 
279 ,51.1342 ,1.00519 ,1.36645 ,13.40759 
280 ,51.3264 ,1.00704 ,1.37671 ,13.50832 
281 ,51.5025 ,1.00892 ,1.34934 ,13.23969 
282 ,51.6624 ,1.01064 ,1.34591 ,13.20612 
283 ,51.8387 ,1.01229 ,1.32538 ,13.00465 
284 ,52.0146 ,1.01401 ,1.30485 ,12.80318 
285 ,52.1908 ,1.01577 ,1.31512 ,12.90391 
286 ,52.3669 ,1.01756 ,1.30143 ,12.76960 
287 ,52.5428 ,1.01928 ,1.29116 ,12.66886 
288 ,52.7347 ,1.02111 ,1.26378 ,12.40024 
289 ,52.9109 ,1.02300 ,1.26378 ,12.40024 
290 ,53.1031 ,1.02487 ,1.24325 ,12.19877 
291 ,53.2791 ,1.02664 ,1.22956 ,12.06445 
292 ,53.4549 ,1.02838 ,1.21929 ,11.96372 
293 ,53.6308 ,1.03017 ,1.22956 ,12.06445 
294 ,53.8071 ,1.03195 ,1.19876 ,11.76225 
295 ,54.0316 ,1.03408 ,1.17481 ,11.52720 
296 ,54.2396 ,1.03618 ,1.16112 ,11.39289 
297 ,54.4155 ,1.03801 ,1.14743 ,11.25857 
298 ,54.6238 ,1.04007 ,1.14058 ,11.19142 
299 ,54.8156 ,1.04198 ,1.12347 ,11.02353 
300 ,55.0079 ,1.04392 ,1.13032 ,11.09068 
301 ,55.1839 ,1.04567 ,1.10294 ,10.82206 
302 ,55.3601 ,1.04743 ,1.09267 ,10.72132 
303 ,55.5522 ,1.04935 ,1.07556 ,10.55343 
304 ,55.7440 ,1.05126 ,1.07556 ,10.55343 
305 ,55.9199 ,1.05308 ,1.05503 ,10.35196 
306 ,56.0964 ,1.05489 ,1.04134 ,10.21765 
307 ,56.2882 ,1.05679 ,1.03450 ,10.15049 
308 ,56.4804 ,1.05874 ,1.02423 ,10.04976 
309 ,56.6566 ,1.06046 ,1.00028 ,9.81471 
310 ,56.8326 ,1.06218 ,0.98317 ,9.64682 
311 ,57.0084 ,1.06396 ,0.98659 ,9.68039 
312 ,57.1848 ,1.06568 ,0.98317 ,9.64682 
313 ,57.3769 ,1.06765 ,0.95579 ,9.37819 
314 ,57.5530 ,1.06938 ,0.93525 ,9.17672 
315 ,57.7291 ,1.07114 ,0.95921 ,9.41177 
316 ,57.9212 ,1.07308 ,0.93183 ,9.14314 
317 ,58.1132 ,1.07498 ,0.90103 ,8.84094 
318 ,58.2894 ,1.07677 ,0.90446 ,8.87451 
319 ,58.4814 ,1.07866 ,0.90103 ,8.84094 
320 ,58.6735 ,1.08050 ,0.88392 ,8.67305 
321 ,58.8494 ,1.08238 ,0.86339 ,8.47158 
322 ,59.0255 ,1.08412 ,0.86681 ,8.50515 
323 ,59.2017 ,1.08585 ,0.85654 ,8.40442 
324 ,59.3776 ,1.08766 ,0.83601 ,8.20295 
325 ,59.5539 ,1.08939 ,0.81890 ,8.03506 
326 ,59.7458 ,1.09126 ,0.82917 ,8.13579 
327 ,59.9221 ,1.09306 ,0.81206 ,7.96790 
328 ,60.1457 ,1.09513 ,0.78810 ,7.73285 
329 ,60.3382 ,1.09715 ,0.79837 ,7.83359 
330 ,60.5142 ,1.09901 ,0.75730 ,7.43065 
331 ,60.7063 ,1.10088 ,0.77099 ,7.56496 
332 ,60.8824 ,1.10268 ,0.76072 ,7.46423 
333 ,61.0743 ,1.10457 ,0.71624 ,7.02771 
334 ,61.2505 ,1.10634 ,0.71624 ,7.02771 
335 ,61.4266 ,1.10809 ,0.71281 ,6.99413 
336 ,61.6186 ,1.11003 ,0.70255 ,6.89340 
337 ,61.7946 ,1.11174 ,0.67517 ,6.62477 
338 ,61.9869 ,1.11365 ,0.67175 ,6.59119 
339 ,62.1947 ,1.11573 ,0.67517 ,6.62477 
340 ,62.3710 ,1.11752 ,0.64779 ,6.35614 
341 ,62.5470 ,1.11932 ,0.63068 ,6.18825 
342 ,62.7391 ,1.12118 ,0.63410 ,6.22183 
343 ,62.9150 ,1.12302 ,0.63068 ,6.18825 
344 ,63.1073 ,1.12494 ,0.59304 ,5.81889 
345 ,63.3149 ,1.12681 ,0.59646 ,5.85247 
346 ,63.4915 ,1.12873 ,0.57593 ,5.65100 
347 ,63.6996 ,1.13076 ,0.57935 ,5.68458 
348 ,63.8755 ,1.13264 ,0.57593 ,5.65100 
349 ,64.0515 ,1.13434 ,0.54513 ,5.34879 
350 ,64.2438 ,1.13627 ,0.54855 ,5.38237 
351 ,64.4194 ,1.13806 ,0.52802 ,5.18090 
352 ,64.5959 ,1.13977 ,0.52117 ,5.11375 
353 ,64.7878 ,1.14175 ,0.48695 ,4.77796 
354 ,64.9800 ,1.14360 ,0.49722 ,4.87870 
355 ,65.1720 ,1.14552 ,0.47668 ,4.67723 
356 ,65.3482 ,1.14732 ,0.46984 ,4.61007 
357 ,65.5238 ,1.14906 ,0.46300 ,4.54291 
358 ,65.7003 ,1.15078 ,0.46642 ,4.57649 
359 ,65.8766 ,1.15258 ,0.45273 ,4.44218 
360 ,66.0684 ,1.15447 ,0.41509 ,4.07282 
361 ,66.2444 ,1.15628 ,0.41166 ,4.03924 
362 ,66.4203 ,1.15804 ,0.40140 ,3.93850 
363 ,66.6127 ,1.15994 ,0.40482 ,3.97208 
364 ,66.7889 ,1.16172 ,0.38086 ,3.73703 
365 ,66.9809 ,1.16364 ,0.36375 ,3.56914 
366 ,67.1566 ,1.16540 ,0.37402 ,3.66988 
367 ,67.3329 ,1.16712 ,0.35349 ,3.46841 
368 ,67.5090 ,1.16893 ,0.32953 ,3.23336 
369 ,67.6852 ,1.17064 ,0.31926 ,3.13263 
370 ,67.8771 ,1.17250 ,0.33980 ,3.33410 
371 ,68.0533 ,1.17434 ,0.31242 ,3.06547 
372 ,68.2454 ,1.17623 ,0.29189 ,2.86400 
373 ,68.4375 ,1.17810 ,0.31242 ,3.06547 
374 ,68.6134 ,1.17996 ,0.29531 ,2.89758 
375 ,68.8217 ,1.18186 ,0.25767 ,2.52822 
376 ,69.0140 ,1.18393 ,0.26109 ,2.56179 
377 ,69.2058 ,1.18585 ,0.24740 ,2.42748 
378 ,69.3818 ,1.18763 ,0.22687 ,2.22601 
379 ,69.5580 ,1.18935 ,0.22687 ,2.22601 
380 ,69.7336 ,1.19114 ,0.21660 ,2.12528 
381 ,69.9101 ,1.19292 ,0.19949 ,1.95738 
382 ,70.0861 ,1.19469 ,0.18238 ,1.78949 
383 ,70.2783 ,1.19652 ,0.19264 ,1.89023 
384 ,70.4703 ,1.19848 ,0.16185 ,1.58802 
385 ,70.6463 ,1.20027 ,0.15158 ,1.48729 
386 ,70.8225 ,1.20200 ,0.13789 ,1.35298 
387 ,70.9987 ,1.20378 ,0.14131 ,1.38655 
388 ,71.1905 ,1.20572 ,0.14131 ,1.38655 
389 ,71.3664 ,1.20742 ,0.11051 ,1.08435 
390 ,71.5426 ,1.20922 ,0.10025 ,0.98361 
391 ,71.7188 ,1.21101 ,0.08998 ,0.88288 
392 ,71.9110 ,1.21295 ,0.09340 ,0.91646 
393 ,72.0869 ,1.21467 ,0.07971 ,0.78214 
394 ,72.2629 ,1.21646 ,0.06260 ,0.61425 
395 ,72.4392 ,1.21818 ,0.05576 ,0.54710 
396 ,72.6311 ,1.22009 ,0.04891 ,0.47994 
397 ,72.8233 ,1.22204 ,0.03180 ,0.31205 
398 ,73.0153 ,1.22394 ,0.03180 ,0.31205 
399 ,73.2073 ,1.22586 ,0.01127 ,0.11058 
400 ,73.3833 ,1.22767 ,0.00100 ,0.00984 
401 ,73.5596 ,1.22938 ,-0.02637 ,-0.25878 
402 ,73.7517 ,1.23124 ,-0.00926 ,-0.09089 
403 ,73.9435 ,1.23317 ,-0.02295 ,-0.22520 
404 ,74.1198 ,1.23497 ,-0.04006 ,-0.39310 
405 ,74.3280 ,1.23700 ,-0.03322 ,-0.32594 
406 ,74.5041 ,1.23885 ,-0.05033 ,-0.49383 
407 ,74.7120 ,1.24072 ,-0.06060 ,-0.59457 
408 ,74.8881 ,1.24267 ,-0.06060 ,-0.59457 
409 ,75.0644 ,1.24439 ,-0.09824 ,-0.96393 
410 ,75.2564 ,1.24634 ,-0.09824 ,-0.96393 
411 ,75.4644 ,1.24843 ,-0.08797 ,-0.86319 
412 ,75.6406 ,1.25020 ,-0.11535 ,-1.13182 
413 ,75.8165 ,1.25195 ,-0.11877 ,-1.16540 
414 ,76.0086 ,1.25391 ,-0.12562 ,-1.23255 
415 ,76.1846 ,1.25560 ,-0.14273 ,-1.40045 
416 ,76.3607 ,1.25735 ,-0.15642 ,-1.53476 
417 ,76.5369 ,1.25917 ,-0.16668 ,-1.63549 
418 ,76.7129 ,1.26095 ,-0.14957 ,-1.46760 
419 ,76.8891 ,1.26270 ,-0.15984 ,-1.56834 
420 ,77.0651 ,1.26444 ,-0.17011 ,-1.66907 
421 ,77.2411 ,1.26627 ,-0.19748 ,-1.93770 
422 ,77.4331 ,1.26807 ,-0.18722 ,-1.83696 
423 ,77.6093 ,1.26987 ,-0.19064 ,-1.87054 
424 ,77.7854 ,1.27163 ,-0.21802 ,-2.13917 
425 ,77.9614 ,1.27341 ,-0.23855 ,-2.34064 
426 ,78.1376 ,1.27517 ,-0.24539 ,-2.40779 
427 ,78.3456 ,1.27710 ,-0.24197 ,-2.37422 
428 ,78.5218 ,1.27901 ,-0.25908 ,-2.54211 
429 ,78.6977 ,1.28080 ,-0.26593 ,-2.60926 
430 ,78.9058 ,1.28282 ,-0.27961 ,-2.74358 
431 ,79.0980 ,1.28473 ,-0.28304 ,-2.77716 
432 ,79.2895 ,1.28666 ,-0.28646 ,-2.81073 
433 ,79.4662 ,1.28845 ,-0.30357 ,-2.97863 
434 ,79.6423 ,1.29023 ,-0.30699 ,-3.01220 
435 ,79.8341 ,1.29212 ,-0.34121 ,-3.34799 
436 ,80.0264 ,1.29400 ,-0.32752 ,-3.21367 
437 ,80.2024 ,1.29583 ,-0.34121 ,-3.34799 
438 ,80.3945 ,1.29769 ,-0.35148 ,-3.44872 
439 ,80.5707 ,1.29947 ,-0.34806 ,-3.41514 
440 ,80.7466 ,1.30126 ,-0.34806 ,-3.41514 
441 ,80.9387 ,1.30313 ,-0.38912 ,-3.81808 
442 ,81.1147 ,1.30498 ,-0.40281 ,-3.95240 
443 ,81.2905 ,1.30668 ,-0.38912 ,-3.81808 
444 ,81.4505 ,1.30838 ,-0.40281 ,-3.95240 
445 ,81.6105 ,1.30998 ,-0.40966 ,-4.01955 
446 ,81.7712 ,1.31158 ,-0.40623 ,-3.98597 
447 ,81.9471 ,1.31323 ,-0.42335 ,-4.15387 
448 ,82.1391 ,1.31515 ,-0.43703 ,-4.28818 
449 ,82.3151 ,1.31689 ,-0.45414 ,-4.45607 
450 ,82.4912 ,1.31881 ,-0.45072 ,-4.42249 
451 ,82.6675 ,1.32041 ,-0.46099 ,-4.52323 
452 ,82.8435 ,1.32219 ,-0.44730 ,-4.38891 
453 ,83.0355 ,1.32410 ,-0.49521 ,-4.85901 
454 ,83.2117 ,1.32585 ,-0.48837 ,-4.79185 
455 ,83.4038 ,1.32773 ,-0.50206 ,-4.92617 
456 ,83.6118 ,1.32973 ,-0.51917 ,-5.09406 
457 ,83.8036 ,1.33175 ,-0.49179 ,-4.82543 
458 ,83.9800 ,1.33356 ,-0.52943 ,-5.19479 
459 ,84.1559 ,1.33531 ,-0.55339 ,-5.42984 
460 ,84.3319 ,1.33710 ,-0.54312 ,-5.32911 
461 ,84.5241 ,1.33897 ,-0.53285 ,-5.22837 
462 ,84.7163 ,1.34094 ,-0.55681 ,-5.46342 
463 ,84.9083 ,1.34285 ,-0.56023 ,-5.49700 
464 ,85.0844 ,1.34460 ,-0.56023 ,-5.49700 
