Data stamp = , 07-04-2022 09:06:28 648

Calibration Values: 
Slope = , 26.54 , g/V 
Offset Voltage at no contact = , -0.501760 , V 

No , Time , Stage Position ,   Mass , Force 
   ,  (s) ,      (mm)      ,   (g)  , (mN)  

1 ,0.0000 ,0.49936 ,5.24034 ,51.41822 
2 ,0.2128 ,0.49945 ,5.24376 ,51.45180 
3 ,0.5331 ,0.50032 ,5.25403 ,51.55254 
4 ,0.7412 ,0.50184 ,5.25061 ,51.51896 
5 ,0.9332 ,0.50340 ,5.24718 ,51.48538 
6 ,1.0933 ,0.50519 ,5.24376 ,51.45180 
7 ,1.2694 ,0.50673 ,5.25061 ,51.51896 
8 ,1.4617 ,0.50861 ,5.26087 ,51.61969 
9 ,1.6539 ,0.51064 ,5.23007 ,51.31749 
10 ,1.8460 ,0.51264 ,5.23007 ,51.31749 
11 ,2.0380 ,0.51449 ,5.18559 ,50.88097 
12 ,2.2461 ,0.51657 ,5.18901 ,50.91455 
13 ,2.4218 ,0.51835 ,5.17532 ,50.78023 
14 ,2.5981 ,0.52009 ,5.13425 ,50.37729 
15 ,2.7744 ,0.52191 ,5.12741 ,50.31014 
16 ,2.9664 ,0.52382 ,5.12056 ,50.24298 
17 ,3.1425 ,0.52555 ,5.09661 ,50.00793 
18 ,3.3346 ,0.52752 ,5.07608 ,49.80646 
19 ,3.5267 ,0.52936 ,5.05897 ,49.63857 
20 ,3.7026 ,0.53119 ,5.05554 ,49.60499 
21 ,3.8788 ,0.53291 ,5.01790 ,49.23563 
22 ,4.0869 ,0.53494 ,5.02817 ,49.33637 
23 ,4.2789 ,0.53685 ,4.99052 ,48.96701 
24 ,4.4711 ,0.53876 ,4.98368 ,48.89985 
25 ,4.6467 ,0.54067 ,4.95630 ,48.63122 
26 ,4.8232 ,0.54236 ,4.94603 ,48.53049 
27 ,5.0153 ,0.54425 ,4.92550 ,48.32902 
28 ,5.2072 ,0.54616 ,4.91866 ,48.26186 
29 ,5.3993 ,0.54808 ,4.88101 ,47.89250 
30 ,5.5753 ,0.54988 ,4.86732 ,47.75819 
31 ,5.7512 ,0.55166 ,4.84679 ,47.55672 
32 ,5.9275 ,0.55339 ,4.85021 ,47.59030 
33 ,6.1354 ,0.55543 ,4.82968 ,47.38883 
34 ,6.3278 ,0.55734 ,4.81599 ,47.25451 
35 ,6.5037 ,0.55919 ,4.80915 ,47.18736 
36 ,6.6796 ,0.56091 ,4.77493 ,46.85157 
37 ,6.8558 ,0.56267 ,4.75097 ,46.61653 
38 ,7.0321 ,0.56442 ,4.73728 ,46.48221 
39 ,7.2081 ,0.56617 ,4.74070 ,46.51579 
40 ,7.4003 ,0.56804 ,4.73386 ,46.44863 
41 ,7.5923 ,0.57006 ,4.70306 ,46.14643 
42 ,7.7684 ,0.57180 ,4.69964 ,46.11285 
43 ,7.9442 ,0.57368 ,4.66542 ,45.77707 
44 ,8.1205 ,0.57530 ,4.65173 ,45.64275 
45 ,8.3125 ,0.57712 ,4.64831 ,45.60918 
46 ,8.4883 ,0.57897 ,4.64146 ,45.54202 
47 ,8.6648 ,0.58075 ,4.63462 ,45.47486 
48 ,8.8564 ,0.58269 ,4.58328 ,44.97119 
49 ,9.0328 ,0.58444 ,4.56960 ,44.83688 
50 ,9.2088 ,0.58619 ,4.56960 ,44.83688 
51 ,9.3849 ,0.58793 ,4.55933 ,44.73614 
52 ,9.5612 ,0.58976 ,4.54906 ,44.63541 
53 ,9.7529 ,0.59164 ,4.51826 ,44.33320 
54 ,9.9289 ,0.59336 ,4.52169 ,44.36678 
55 ,10.1051 ,0.59512 ,4.50457 ,44.19889 
56 ,10.2813 ,0.59694 ,4.48062 ,43.96384 
57 ,10.4574 ,0.59871 ,4.46351 ,43.79595 
58 ,10.6334 ,0.60043 ,4.44298 ,43.59448 
59 ,10.8256 ,0.60236 ,4.44982 ,43.66163 
60 ,11.2412 ,0.60538 ,4.42244 ,43.39301 
61 ,11.4172 ,0.60827 ,4.37453 ,42.92291 
62 ,11.5936 ,0.61006 ,4.35058 ,42.68786 
63 ,11.8019 ,0.61206 ,4.34031 ,42.58713 
64 ,11.9940 ,0.61407 ,4.33004 ,42.48639 
65 ,12.1700 ,0.61580 ,4.31978 ,42.38566 
66 ,12.3462 ,0.61755 ,4.31978 ,42.38566 
67 ,12.5222 ,0.61933 ,4.28898 ,42.08345 
68 ,12.6982 ,0.62114 ,4.27871 ,41.98272 
69 ,12.8744 ,0.62284 ,4.25133 ,41.71409 
70 ,13.0663 ,0.62468 ,4.25476 ,41.74767 
71 ,13.2423 ,0.62652 ,4.22396 ,41.44547 
72 ,13.4184 ,0.62826 ,4.20342 ,41.24400 
73 ,13.5946 ,0.63009 ,4.19316 ,41.14326 
74 ,13.7707 ,0.63184 ,4.18631 ,41.07611 
75 ,13.9628 ,0.63376 ,4.16920 ,40.90821 
76 ,14.1386 ,0.63547 ,4.14867 ,40.70674 
77 ,14.3149 ,0.63735 ,4.14867 ,40.70674 
78 ,14.5230 ,0.63915 ,4.12814 ,40.50527 
79 ,14.6989 ,0.64108 ,4.10076 ,40.23665 
80 ,14.8753 ,0.64286 ,4.08023 ,40.03518 
81 ,15.0673 ,0.64479 ,4.08707 ,40.10233 
82 ,15.2434 ,0.64650 ,4.06654 ,39.90087 
83 ,15.4354 ,0.64839 ,4.03574 ,39.59866 
84 ,15.6435 ,0.65048 ,4.02205 ,39.46435 
85 ,15.8194 ,0.65231 ,4.00836 ,39.33003 
86 ,15.9956 ,0.65402 ,3.98783 ,39.12856 
87 ,16.1556 ,0.65574 ,3.98441 ,39.09499 
88 ,16.3315 ,0.65740 ,3.97414 ,38.99425 
89 ,16.5077 ,0.65921 ,3.95703 ,38.82636 
90 ,16.6997 ,0.66106 ,3.92965 ,38.55773 
91 ,16.8760 ,0.66284 ,3.90912 ,38.35626 
92 ,17.0681 ,0.66478 ,3.91938 ,38.45700 
93 ,17.2437 ,0.66653 ,3.89543 ,38.22195 
94 ,17.4358 ,0.66830 ,3.87832 ,38.05406 
95 ,17.6119 ,0.67018 ,3.85779 ,37.85259 
96 ,17.7721 ,0.67195 ,3.85094 ,37.78543 
97 ,17.9483 ,0.67355 ,3.85094 ,37.78543 
98 ,18.1406 ,0.67539 ,3.82014 ,37.48323 
99 ,18.3484 ,0.67749 ,3.79619 ,37.24818 
100 ,18.5083 ,0.67929 ,3.78934 ,37.18102 
101 ,18.6846 ,0.68093 ,3.78934 ,37.18102 
102 ,18.8604 ,0.68266 ,3.75854 ,36.87882 
103 ,19.0369 ,0.68441 ,3.73459 ,36.64377 
104 ,19.2288 ,0.68628 ,3.74143 ,36.71093 
105 ,19.4209 ,0.68823 ,3.72090 ,36.50946 
106 ,19.5970 ,0.69001 ,3.68668 ,36.17367 
107 ,19.7732 ,0.69181 ,3.68325 ,36.14010 
108 ,19.9651 ,0.69371 ,3.68668 ,36.17367 
109 ,20.1413 ,0.69544 ,3.64903 ,35.80431 
110 ,20.3494 ,0.69748 ,3.64561 ,35.77073 
111 ,20.5255 ,0.69932 ,3.64219 ,35.73716 
112 ,20.7013 ,0.70120 ,3.59086 ,35.23348 
113 ,20.8776 ,0.70289 ,3.59770 ,35.30064 
114 ,21.0696 ,0.70473 ,3.58059 ,35.13275 
115 ,21.2457 ,0.70655 ,3.57717 ,35.09917 
116 ,21.4377 ,0.70840 ,3.55663 ,34.89770 
117 ,21.6140 ,0.71025 ,3.54295 ,34.76338 
118 ,21.7895 ,0.71197 ,3.52584 ,34.59549 
119 ,21.9660 ,0.71371 ,3.51557 ,34.49476 
120 ,22.1742 ,0.71576 ,3.49161 ,34.25971 
121 ,22.3666 ,0.71772 ,3.48135 ,34.15898 
122 ,22.5741 ,0.71970 ,3.46766 ,34.02466 
123 ,22.7500 ,0.72152 ,3.46424 ,33.99108 
124 ,22.9261 ,0.72330 ,3.44370 ,33.78961 
125 ,23.1024 ,0.72506 ,3.43001 ,33.65530 
126 ,23.2786 ,0.72682 ,3.39579 ,33.31952 
127 ,23.4866 ,0.72885 ,3.38895 ,33.25236 
128 ,23.6625 ,0.73070 ,3.38553 ,33.21878 
129 ,23.8383 ,0.73249 ,3.34788 ,32.84942 
130 ,24.0150 ,0.73424 ,3.34446 ,32.81584 
131 ,24.1910 ,0.73599 ,3.32393 ,32.61437 
132 ,24.3677 ,0.73773 ,3.32735 ,32.64795 
133 ,24.5751 ,0.73974 ,3.31024 ,32.48006 
134 ,24.7673 ,0.74174 ,3.29313 ,32.31217 
135 ,24.9749 ,0.74372 ,3.25891 ,31.97639 
136 ,25.1672 ,0.74571 ,3.27602 ,32.14428 
137 ,25.3435 ,0.74749 ,3.25206 ,31.90923 
138 ,25.5356 ,0.74942 ,3.22811 ,31.67418 
139 ,25.7276 ,0.75128 ,3.21100 ,31.50629 
140 ,25.9353 ,0.75343 ,3.18704 ,31.27124 
141 ,26.1438 ,0.75532 ,3.19046 ,31.30482 
142 ,26.3359 ,0.75743 ,3.16309 ,31.03619 
143 ,26.5277 ,0.75926 ,3.16651 ,31.06977 
144 ,26.7199 ,0.76124 ,3.13913 ,30.80115 
145 ,26.8959 ,0.76303 ,3.13229 ,30.73399 
146 ,27.0879 ,0.76494 ,3.11860 ,30.59968 
147 ,27.2641 ,0.76665 ,3.11860 ,30.59968 
148 ,27.4403 ,0.76844 ,3.10149 ,30.43178 
149 ,27.6162 ,0.77025 ,3.07753 ,30.19674 
150 ,27.7924 ,0.77199 ,3.04673 ,29.89453 
151 ,27.9685 ,0.77370 ,3.03989 ,29.82737 
152 ,28.1605 ,0.77559 ,3.02620 ,29.69306 
153 ,28.3366 ,0.77737 ,3.02278 ,29.65948 
154 ,28.5126 ,0.77921 ,3.00567 ,29.49159 
155 ,28.6887 ,0.78093 ,2.99540 ,29.39086 
156 ,28.8807 ,0.78281 ,2.98855 ,29.32370 
157 ,29.0569 ,0.78460 ,2.95433 ,28.98792 
158 ,29.2325 ,0.78640 ,2.94407 ,28.88718 
159 ,29.4090 ,0.78813 ,2.93722 ,28.82003 
160 ,29.6011 ,0.79005 ,2.92353 ,28.68571 
161 ,29.7932 ,0.79189 ,2.90642 ,28.51782 
162 ,29.9853 ,0.79381 ,2.90985 ,28.55140 
163 ,30.1613 ,0.79567 ,2.88589 ,28.31635 
164 ,30.3373 ,0.79737 ,2.84825 ,27.94699 
165 ,30.5134 ,0.79915 ,2.83798 ,27.84625 
166 ,30.7052 ,0.80110 ,2.84482 ,27.91341 
167 ,30.8814 ,0.80285 ,2.83798 ,27.84625 
168 ,31.0737 ,0.80476 ,2.79691 ,27.44332 
169 ,31.2657 ,0.80661 ,2.79691 ,27.44332 
170 ,31.4414 ,0.80845 ,2.80034 ,27.47689 
171 ,31.6175 ,0.81017 ,2.76611 ,27.14111 
172 ,31.7936 ,0.81190 ,2.74558 ,26.93964 
173 ,31.9699 ,0.81368 ,2.73531 ,26.83891 
174 ,32.1460 ,0.81547 ,2.73189 ,26.80533 
175 ,32.3222 ,0.81718 ,2.71478 ,26.63744 
176 ,32.4979 ,0.81902 ,2.69425 ,26.43597 
177 ,32.6743 ,0.82079 ,2.69425 ,26.43597 
178 ,32.8504 ,0.82253 ,2.66345 ,26.13376 
179 ,33.0264 ,0.82432 ,2.67029 ,26.20092 
180 ,33.2026 ,0.82606 ,2.65660 ,26.06661 
181 ,33.3946 ,0.82796 ,2.62923 ,25.79798 
182 ,33.5866 ,0.82996 ,2.62581 ,25.76440 
183 ,33.7786 ,0.83177 ,2.59843 ,25.49577 
184 ,33.9548 ,0.83361 ,2.58474 ,25.36146 
185 ,34.1310 ,0.83534 ,2.56763 ,25.19357 
186 ,34.3068 ,0.83707 ,2.57789 ,25.29430 
187 ,34.4830 ,0.83887 ,2.56763 ,25.19357 
188 ,34.6909 ,0.84081 ,2.53683 ,24.89136 
189 ,34.8831 ,0.84285 ,2.52656 ,24.79063 
190 ,35.0751 ,0.84464 ,2.51630 ,24.68989 
191 ,35.2833 ,0.84680 ,2.50945 ,24.62274 
192 ,35.4592 ,0.84860 ,2.48207 ,24.35411 
193 ,35.6350 ,0.85045 ,2.46154 ,24.15264 
194 ,35.8115 ,0.85213 ,2.43759 ,23.91759 
195 ,36.0036 ,0.85392 ,2.43759 ,23.91759 
196 ,36.1797 ,0.85580 ,2.43759 ,23.91759 
197 ,36.3558 ,0.85755 ,2.41705 ,23.71612 
198 ,36.5317 ,0.85935 ,2.40336 ,23.58181 
199 ,36.7075 ,0.86104 ,2.39310 ,23.48108 
200 ,36.8840 ,0.86284 ,2.38283 ,23.38034 
201 ,37.0760 ,0.86474 ,2.35545 ,23.11171 
202 ,37.2841 ,0.86668 ,2.34177 ,22.97740 
203 ,37.4762 ,0.86873 ,2.33150 ,22.87667 
204 ,37.6521 ,0.87054 ,2.30070 ,22.57446 
205 ,37.8280 ,0.87222 ,2.29043 ,22.47373 
206 ,38.0043 ,0.87401 ,2.30070 ,22.57446 
207 ,38.1805 ,0.87579 ,2.28359 ,22.40657 
208 ,38.3725 ,0.87773 ,2.24937 ,22.07079 
209 ,38.5645 ,0.87950 ,2.24937 ,22.07079 
210 ,38.7564 ,0.88159 ,2.23568 ,21.93647 
211 ,38.9326 ,0.88335 ,2.21172 ,21.70143 
212 ,39.1249 ,0.88525 ,2.21515 ,21.73500 
213 ,39.3169 ,0.88708 ,2.18777 ,21.46638 
214 ,39.4931 ,0.88892 ,2.18777 ,21.46638 
215 ,39.6690 ,0.89074 ,2.15697 ,21.16417 
216 ,39.8449 ,0.89239 ,2.16381 ,21.23133 
217 ,40.0212 ,0.89423 ,2.15012 ,21.09702 
218 ,40.2293 ,0.89621 ,2.13301 ,20.92912 
219 ,40.4213 ,0.89816 ,2.12617 ,20.86197 
220 ,40.5972 ,0.89991 ,2.10221 ,20.62692 
221 ,40.7736 ,0.90172 ,2.07141 ,20.32472 
222 ,40.9491 ,0.90348 ,2.05088 ,20.12325 
223 ,41.1418 ,0.90533 ,2.07141 ,20.32472 
224 ,41.3338 ,0.90727 ,2.04746 ,20.08967 
225 ,41.5260 ,0.90921 ,2.03719 ,19.98893 
226 ,41.7178 ,0.91106 ,2.02693 ,19.88820 
227 ,41.9100 ,0.91306 ,1.99955 ,19.61957 
228 ,42.1181 ,0.91502 ,1.98244 ,19.45168 
229 ,42.3103 ,0.91707 ,1.96875 ,19.31737 
230 ,42.5022 ,0.91900 ,1.97217 ,19.35094 
231 ,42.6781 ,0.92081 ,1.94822 ,19.11590 
232 ,42.8544 ,0.92252 ,1.93795 ,19.01516 
233 ,43.0463 ,0.92434 ,1.91057 ,18.74654 
234 ,43.2385 ,0.92634 ,1.92426 ,18.88085 
235 ,43.4146 ,0.92813 ,1.89688 ,18.61222 
236 ,43.6068 ,0.93010 ,1.89004 ,18.54507 
237 ,43.7827 ,0.93179 ,1.87293 ,18.37717 
238 ,43.9586 ,0.93361 ,1.86266 ,18.27644 
239 ,44.1505 ,0.93544 ,1.83528 ,18.00781 
240 ,44.3269 ,0.93722 ,1.82844 ,17.94066 
241 ,44.5031 ,0.93909 ,1.80791 ,17.73919 
242 ,44.6631 ,0.94072 ,1.81133 ,17.77276 
243 ,44.8392 ,0.94235 ,1.80791 ,17.73919 
244 ,45.0313 ,0.94419 ,1.78395 ,17.50414 
245 ,45.2070 ,0.94606 ,1.76684 ,17.33625 
246 ,45.3835 ,0.94782 ,1.76000 ,17.26909 
247 ,45.5754 ,0.94974 ,1.73946 ,17.06762 
248 ,45.7516 ,0.95152 ,1.71209 ,16.79899 
249 ,45.9436 ,0.95339 ,1.73262 ,17.00046 
250 ,46.1197 ,0.95514 ,1.70524 ,16.73184 
251 ,46.3114 ,0.95712 ,1.68471 ,16.53037 
252 ,46.4877 ,0.95882 ,1.66760 ,16.36248 
253 ,46.6640 ,0.96065 ,1.67444 ,16.42963 
254 ,46.8400 ,0.96234 ,1.66075 ,16.29532 
255 ,47.0479 ,0.96436 ,1.64022 ,16.09385 
256 ,47.2402 ,0.96635 ,1.63680 ,16.06027 
257 ,47.4162 ,0.96820 ,1.60600 ,15.75807 
258 ,47.5923 ,0.96987 ,1.59916 ,15.69091 
259 ,47.7685 ,0.97162 ,1.58204 ,15.52302 
260 ,47.9604 ,0.97347 ,1.58547 ,15.55660 
261 ,48.1366 ,0.97534 ,1.56493 ,15.35513 
262 ,48.3123 ,0.97709 ,1.53413 ,15.05292 
263 ,48.4727 ,0.97881 ,1.53071 ,15.01934 
264 ,48.6488 ,0.98041 ,1.51360 ,14.85145 
265 ,48.8247 ,0.98222 ,1.51360 ,14.85145 
266 ,49.0011 ,0.98395 ,1.50676 ,14.78430 
267 ,49.1770 ,0.98575 ,1.48965 ,14.61640 
268 ,49.3530 ,0.98747 ,1.47596 ,14.48209 
269 ,49.5291 ,0.98926 ,1.45885 ,14.31420 
270 ,49.7050 ,0.99099 ,1.46569 ,14.38136 
271 ,49.8814 ,0.99273 ,1.45200 ,14.24704 
272 ,50.0734 ,0.99456 ,1.43147 ,14.04557 
273 ,50.2656 ,0.99656 ,1.42462 ,13.97842 
274 ,50.4575 ,0.99847 ,1.41436 ,13.87768 
275 ,50.6654 ,1.00052 ,1.40409 ,13.77695 
276 ,50.8417 ,1.00238 ,1.38698 ,13.60906 
277 ,51.0336 ,1.00430 ,1.35618 ,13.30685 
278 ,51.2097 ,1.00603 ,1.33907 ,13.13896 
279 ,51.3859 ,1.00778 ,1.35276 ,13.27327 
280 ,51.5778 ,1.00966 ,1.32880 ,13.03822 
281 ,51.7701 ,1.01159 ,1.31512 ,12.90391 
282 ,51.9622 ,1.01360 ,1.31512 ,12.90391 
283 ,52.1542 ,1.01544 ,1.29116 ,12.66886 
284 ,52.3301 ,1.01723 ,1.26378 ,12.40024 
285 ,52.5224 ,1.01911 ,1.28089 ,12.56813 
286 ,52.7144 ,1.02100 ,1.25352 ,12.29950 
287 ,52.8904 ,1.02281 ,1.25352 ,12.29950 
288 ,53.1147 ,1.02494 ,1.21929 ,11.96372 
289 ,53.2907 ,1.02683 ,1.19534 ,11.72867 
290 ,53.4827 ,1.02871 ,1.21245 ,11.89656 
291 ,53.6589 ,1.03052 ,1.20218 ,11.79583 
292 ,53.8349 ,1.03228 ,1.18850 ,11.66151 
293 ,54.0270 ,1.03417 ,1.17481 ,11.52720 
294 ,54.2031 ,1.03599 ,1.14743 ,11.25857 
295 ,54.3790 ,1.03771 ,1.15427 ,11.32573 
296 ,54.5712 ,1.03957 ,1.13716 ,11.15784 
297 ,54.7473 ,1.04139 ,1.13032 ,11.09068 
298 ,54.9393 ,1.04338 ,1.12005 ,10.98995 
299 ,55.1314 ,1.04517 ,1.09267 ,10.72132 
300 ,55.3235 ,1.04717 ,1.08925 ,10.68774 
301 ,55.5156 ,1.04908 ,1.06872 ,10.48627 
302 ,55.7075 ,1.05097 ,1.05503 ,10.35196 
303 ,55.8834 ,1.05272 ,1.06530 ,10.45270 
304 ,56.0599 ,1.05451 ,1.03792 ,10.18407 
305 ,56.2519 ,1.05633 ,1.03450 ,10.15049 
306 ,56.4280 ,1.05817 ,1.02423 ,10.04976 
307 ,56.6361 ,1.06023 ,0.98659 ,9.68039 
308 ,56.8280 ,1.06219 ,0.97632 ,9.57966 
309 ,57.0362 ,1.06422 ,0.96605 ,9.47892 
310 ,57.2123 ,1.06606 ,0.95237 ,9.34461 
311 ,57.3884 ,1.06778 ,0.94552 ,9.27745 
312 ,57.5804 ,1.06963 ,0.95921 ,9.41177 
313 ,57.7566 ,1.07151 ,0.92499 ,9.07598 
314 ,57.9485 ,1.07332 ,0.92499 ,9.07598 
315 ,58.1248 ,1.07514 ,0.91472 ,8.97525 
316 ,58.3008 ,1.07690 ,0.91130 ,8.94167 
317 ,58.5089 ,1.07881 ,0.89419 ,8.77378 
318 ,58.6851 ,1.08078 ,0.87708 ,8.60589 
319 ,58.8771 ,1.08261 ,0.86681 ,8.50515 
320 ,59.0688 ,1.08460 ,0.85654 ,8.40442 
321 ,59.2452 ,1.08636 ,0.84286 ,8.27011 
322 ,59.4213 ,1.08815 ,0.83943 ,8.23653 
323 ,59.6133 ,1.09008 ,0.80179 ,7.86717 
324 ,59.7890 ,1.09175 ,0.80863 ,7.93432 
325 ,59.9815 ,1.09374 ,0.80521 ,7.90074 
326 ,60.1573 ,1.09548 ,0.78468 ,7.69927 
327 ,60.3333 ,1.09725 ,0.75730 ,7.43065 
328 ,60.5096 ,1.09908 ,0.77441 ,7.59854 
329 ,60.6857 ,1.10078 ,0.77099 ,7.56496 
330 ,60.8623 ,1.10255 ,0.74361 ,7.29633 
331 ,61.0380 ,1.10427 ,0.73335 ,7.19560 
332 ,61.2298 ,1.10620 ,0.70939 ,6.96055 
333 ,61.4060 ,1.10799 ,0.70939 ,6.96055 
334 ,61.5981 ,1.10987 ,0.69570 ,6.82624 
335 ,61.7742 ,1.11174 ,0.67859 ,6.65835 
336 ,61.9503 ,1.11343 ,0.66833 ,6.55761 
337 ,62.1424 ,1.11525 ,0.65806 ,6.45688 
338 ,62.3341 ,1.11730 ,0.64095 ,6.28899 
339 ,62.5104 ,1.11894 ,0.63410 ,6.22183 
340 ,62.6864 ,1.12077 ,0.64095 ,6.28899 
341 ,62.8625 ,1.12254 ,0.62726 ,6.15467 
342 ,63.0384 ,1.12426 ,0.60330 ,5.91962 
343 ,63.2148 ,1.12611 ,0.58962 ,5.78531 
344 ,63.3908 ,1.12784 ,0.58277 ,5.71815 
345 ,63.5829 ,1.12971 ,0.58277 ,5.71815 
346 ,63.7590 ,1.13150 ,0.56224 ,5.51668 
347 ,63.9511 ,1.13332 ,0.54513 ,5.34879 
348 ,64.1431 ,1.13533 ,0.56224 ,5.51668 
349 ,64.3190 ,1.13705 ,0.53828 ,5.28164 
350 ,64.5113 ,1.13893 ,0.52459 ,5.14732 
351 ,64.7193 ,1.14100 ,0.51091 ,5.01301 
352 ,64.8951 ,1.14286 ,0.50406 ,4.94585 
353 ,65.0718 ,1.14462 ,0.48353 ,4.74438 
354 ,65.2792 ,1.14660 ,0.46984 ,4.61007 
355 ,65.4557 ,1.14845 ,0.46642 ,4.57649 
356 ,65.6317 ,1.15023 ,0.45273 ,4.44218 
357 ,65.8080 ,1.15195 ,0.43904 ,4.30787 
358 ,65.9999 ,1.15387 ,0.43904 ,4.30787 
359 ,66.1761 ,1.15567 ,0.42193 ,4.13997 
360 ,66.3681 ,1.15747 ,0.43220 ,4.24071 
361 ,66.5441 ,1.15944 ,0.40824 ,4.00566 
362 ,66.7202 ,1.16106 ,0.40824 ,4.00566 
363 ,66.9123 ,1.16300 ,0.37744 ,3.70346 
364 ,67.0884 ,1.16476 ,0.37060 ,3.63630 
365 ,67.2801 ,1.16661 ,0.36375 ,3.56914 
366 ,67.4565 ,1.16845 ,0.34322 ,3.36767 
367 ,67.6166 ,1.17014 ,0.33295 ,3.26694 
368 ,67.7927 ,1.17179 ,0.32611 ,3.19978 
369 ,67.9848 ,1.17374 ,0.33295 ,3.26694 
370 ,68.1770 ,1.17562 ,0.30558 ,2.99831 
371 ,68.3530 ,1.17743 ,0.29189 ,2.86400 
372 ,68.5289 ,1.17919 ,0.28504 ,2.79684 
373 ,68.7048 ,1.18091 ,0.29531 ,2.89758 
374 ,68.8970 ,1.18279 ,0.27478 ,2.69611 
375 ,69.0734 ,1.18460 ,0.26793 ,2.62895 
376 ,69.2653 ,1.18655 ,0.25767 ,2.52822 
377 ,69.4412 ,1.18829 ,0.24740 ,2.42748 
378 ,69.6174 ,1.19007 ,0.23371 ,2.29317 
379 ,69.7935 ,1.19180 ,0.21318 ,2.09170 
380 ,69.9856 ,1.19372 ,0.20633 ,2.02454 
381 ,70.1617 ,1.19547 ,0.20633 ,2.02454 
382 ,70.3377 ,1.19724 ,0.19607 ,1.92381 
383 ,70.5139 ,1.19900 ,0.17553 ,1.72234 
384 ,70.7056 ,1.20092 ,0.18922 ,1.85665 
385 ,70.8820 ,1.20270 ,0.17211 ,1.68876 
386 ,71.0739 ,1.20458 ,0.15158 ,1.48729 
387 ,71.2501 ,1.20636 ,0.13447 ,1.31940 
388 ,71.4422 ,1.20820 ,0.15500 ,1.52087 
389 ,71.6178 ,1.21009 ,0.11393 ,1.11793 
390 ,71.7938 ,1.21180 ,0.12078 ,1.18508 
391 ,71.9539 ,1.21355 ,0.09682 ,0.95004 
392 ,72.1303 ,1.21522 ,0.07971 ,0.78214 
393 ,72.3385 ,1.21720 ,0.08656 ,0.84930 
394 ,72.5144 ,1.21901 ,0.06602 ,0.64783 
395 ,72.7065 ,1.22085 ,0.05918 ,0.58067 
396 ,72.8824 ,1.22276 ,0.06602 ,0.64783 
397 ,73.0588 ,1.22441 ,0.05234 ,0.51352 
398 ,73.2349 ,1.22620 ,0.04549 ,0.44636 
399 ,73.4109 ,1.22792 ,0.02496 ,0.24489 
400 ,73.5869 ,1.22971 ,0.01811 ,0.17773 
401 ,73.7631 ,1.23150 ,0.02154 ,0.21131 
402 ,73.9548 ,1.23343 ,-0.00242 ,-0.02373 
403 ,74.1152 ,1.23509 ,-0.01953 ,-0.19163 
404 ,74.2753 ,1.23674 ,-0.01953 ,-0.19163 
405 ,74.4512 ,1.23841 ,-0.03664 ,-0.35952 
406 ,74.6436 ,1.24025 ,-0.02295 ,-0.22520 
407 ,74.8354 ,1.24214 ,-0.05033 ,-0.49383 
408 ,75.0113 ,1.24389 ,-0.05375 ,-0.52741 
409 ,75.1876 ,1.24570 ,-0.07086 ,-0.69530 
410 ,75.3798 ,1.24762 ,-0.07771 ,-0.76246 
411 ,75.5717 ,1.24948 ,-0.10166 ,-0.99751 
412 ,75.7480 ,1.25133 ,-0.10166 ,-0.99751 
413 ,75.9398 ,1.25322 ,-0.08797 ,-0.86319 
414 ,76.1321 ,1.25515 ,-0.12904 ,-1.26613 
415 ,76.3242 ,1.25704 ,-0.12219 ,-1.19898 
416 ,76.5000 ,1.25892 ,-0.13588 ,-1.33329 
417 ,76.6764 ,1.26061 ,-0.12904 ,-1.26613 
418 ,76.8690 ,1.26246 ,-0.14273 ,-1.40045 
419 ,77.0605 ,1.26447 ,-0.15642 ,-1.53476 
420 ,77.2525 ,1.26625 ,-0.15642 ,-1.53476 
421 ,77.4448 ,1.26822 ,-0.18379 ,-1.80338 
422 ,77.6366 ,1.27014 ,-0.19748 ,-1.93770 
423 ,77.8128 ,1.27198 ,-0.19748 ,-1.93770 
424 ,78.0208 ,1.27393 ,-0.19064 ,-1.87054 
425 ,78.1969 ,1.27580 ,-0.20433 ,-2.00485 
426 ,78.3730 ,1.27756 ,-0.22828 ,-2.23990 
427 ,78.5491 ,1.27936 ,-0.23855 ,-2.34064 
428 ,78.7411 ,1.28118 ,-0.24197 ,-2.37422 
429 ,78.9173 ,1.28300 ,-0.25224 ,-2.47495 
430 ,79.1094 ,1.28486 ,-0.26593 ,-2.60926 
431 ,79.2853 ,1.28680 ,-0.25908 ,-2.54211 
432 ,79.4614 ,1.28849 ,-0.26935 ,-2.64284 
433 ,79.6536 ,1.29027 ,-0.28988 ,-2.84431 
434 ,79.8456 ,1.29227 ,-0.28988 ,-2.84431 
435 ,80.0372 ,1.29419 ,-0.30699 ,-3.01220 
436 ,80.2298 ,1.29609 ,-0.32752 ,-3.21367 
437 ,80.4216 ,1.29806 ,-0.32410 ,-3.18010 
438 ,80.6139 ,1.29999 ,-0.35148 ,-3.44872 
439 ,80.7901 ,1.30170 ,-0.34464 ,-3.38156 
440 ,80.9820 ,1.30357 ,-0.34806 ,-3.41514 
441 ,81.1741 ,1.30555 ,-0.37544 ,-3.68377 
442 ,81.3499 ,1.30733 ,-0.37201 ,-3.65019 
443 ,81.5263 ,1.30909 ,-0.37886 ,-3.71735 
444 ,81.7183 ,1.31100 ,-0.37886 ,-3.71735 
445 ,81.8944 ,1.31279 ,-0.40966 ,-4.01955 
446 ,82.0866 ,1.31469 ,-0.39939 ,-3.91882 
447 ,82.2786 ,1.31664 ,-0.41308 ,-4.05313 
448 ,82.4544 ,1.31842 ,-0.42677 ,-4.18744 
449 ,82.6308 ,1.32014 ,-0.43361 ,-4.25460 
450 ,82.8068 ,1.32193 ,-0.44046 ,-4.32176 
451 ,82.9828 ,1.32362 ,-0.43361 ,-4.25460 
452 ,83.1750 ,1.32547 ,-0.45757 ,-4.48965 
453 ,83.3831 ,1.32754 ,-0.45414 ,-4.45607 
454 ,83.5589 ,1.32944 ,-0.46783 ,-4.59038 
455 ,83.7351 ,1.33116 ,-0.48494 ,-4.75828 
456 ,83.9113 ,1.33292 ,-0.49863 ,-4.89259 
457 ,84.0872 ,1.33468 ,-0.49521 ,-4.85901 
458 ,84.2793 ,1.33665 ,-0.49521 ,-4.85901 
459 ,84.4715 ,1.33840 ,-0.51917 ,-5.09406 
460 ,84.6794 ,1.34056 ,-0.52943 ,-5.19479 
461 ,84.8716 ,1.34254 ,-0.53970 ,-5.29553 
462 ,85.0477 ,1.34427 ,-0.55339 ,-5.42984 
463 ,85.2557 ,1.34634 ,-0.56708 ,-5.56415 
464 ,85.4319 ,1.34814 ,-0.57050 ,-5.59773 
