Data stamp = , 06-04-2022 16:46:37 702

Calibration Values: 
Slope = , 26.54 , g/V 
Offset Voltage at no contact = , -0.501760 , V 

No , Time , Stage Position ,   Mass , Force 
   ,  (s) ,      (mm)      ,   (g)  , (mN)  

1 ,0.0000 ,0.49945 ,5.14452 ,50.47803 
2 ,0.2397 ,0.49955 ,5.13083 ,50.34372 
3 ,0.4801 ,0.50023 ,5.14452 ,50.47803 
4 ,0.6882 ,0.50147 ,5.15479 ,50.57876 
5 ,0.8643 ,0.50293 ,5.13768 ,50.41087 
6 ,1.0401 ,0.50459 ,5.13425 ,50.37729 
7 ,1.2323 ,0.50643 ,5.15821 ,50.61234 
8 ,1.4085 ,0.50825 ,5.15821 ,50.61234 
9 ,1.6006 ,0.51025 ,5.14110 ,50.44445 
10 ,1.8087 ,0.51217 ,5.14110 ,50.44445 
11 ,2.0003 ,0.51414 ,5.15821 ,50.61234 
12 ,2.1769 ,0.51600 ,5.13768 ,50.41087 
13 ,2.3689 ,0.51790 ,5.12056 ,50.24298 
14 ,2.5610 ,0.51976 ,5.13425 ,50.37729 
15 ,2.7371 ,0.52153 ,5.13768 ,50.41087 
16 ,2.9451 ,0.52354 ,5.11714 ,50.20940 
17 ,3.1212 ,0.52538 ,5.11714 ,50.20940 
18 ,3.2969 ,0.52723 ,5.11714 ,50.20940 
19 ,3.4735 ,0.52890 ,5.10688 ,50.10867 
20 ,3.6495 ,0.53068 ,5.10003 ,50.04151 
21 ,3.8255 ,0.53246 ,5.06581 ,49.70573 
22 ,4.0175 ,0.53434 ,5.06923 ,49.73931 
23 ,4.2097 ,0.53634 ,5.04528 ,49.50426 
24 ,4.4016 ,0.53814 ,5.02474 ,49.30279 
25 ,4.5777 ,0.53994 ,5.01106 ,49.16848 
26 ,4.7539 ,0.54169 ,5.01790 ,49.23563 
27 ,4.9458 ,0.54358 ,4.98026 ,48.86627 
28 ,5.1377 ,0.54555 ,4.97683 ,48.83269 
29 ,5.3141 ,0.54737 ,4.95972 ,48.66480 
30 ,5.4902 ,0.54925 ,4.92550 ,48.32902 
31 ,5.6658 ,0.55091 ,4.92208 ,48.29544 
32 ,5.8258 ,0.55256 ,4.89470 ,48.02681 
33 ,5.9860 ,0.55419 ,4.88101 ,47.89250 
34 ,6.1625 ,0.55582 ,4.88101 ,47.89250 
35 ,6.3547 ,0.55766 ,4.86390 ,47.72461 
36 ,6.5465 ,0.55969 ,4.83310 ,47.42240 
37 ,6.7227 ,0.56139 ,4.82626 ,47.35525 
38 ,6.9147 ,0.56326 ,4.81599 ,47.25451 
39 ,7.1070 ,0.56521 ,4.78861 ,46.98589 
40 ,7.2987 ,0.56711 ,4.78861 ,46.98589 
41 ,7.4910 ,0.56906 ,4.76124 ,46.71726 
42 ,7.6672 ,0.57087 ,4.74755 ,46.58295 
43 ,7.8432 ,0.57266 ,4.72017 ,46.31432 
44 ,8.0351 ,0.57455 ,4.72702 ,46.38148 
45 ,8.2114 ,0.57629 ,4.72017 ,46.31432 
46 ,8.3871 ,0.57805 ,4.68937 ,46.01212 
47 ,8.5635 ,0.57983 ,4.67226 ,45.84422 
48 ,8.7397 ,0.58156 ,4.67568 ,45.87780 
49 ,8.9157 ,0.58336 ,4.65515 ,45.67633 
50 ,9.1237 ,0.58537 ,4.62093 ,45.34055 
51 ,9.2997 ,0.58725 ,4.63804 ,45.50844 
52 ,9.4756 ,0.58893 ,4.62093 ,45.34055 
53 ,9.6520 ,0.59069 ,4.60724 ,45.20624 
54 ,9.8440 ,0.59264 ,4.56960 ,44.83688 
55 ,10.0360 ,0.59451 ,4.55933 ,44.73614 
56 ,10.2118 ,0.59626 ,4.55933 ,44.73614 
57 ,10.3879 ,0.59805 ,4.53537 ,44.50109 
58 ,10.5799 ,0.59993 ,4.51142 ,44.26604 
59 ,10.7563 ,0.60168 ,4.49773 ,44.13173 
60 ,10.9643 ,0.60378 ,4.48746 ,44.03100 
61 ,11.1404 ,0.60556 ,4.45666 ,43.72879 
62 ,11.3166 ,0.60736 ,4.44982 ,43.66163 
63 ,11.5246 ,0.60929 ,4.43613 ,43.52732 
64 ,11.7167 ,0.61133 ,4.41902 ,43.35943 
65 ,11.9247 ,0.61330 ,4.41218 ,43.29227 
66 ,12.1327 ,0.61542 ,4.39849 ,43.15796 
67 ,12.3088 ,0.61729 ,4.37453 ,42.92291 
68 ,12.4850 ,0.61899 ,4.36084 ,42.78860 
69 ,12.6609 ,0.62076 ,4.33004 ,42.48639 
70 ,12.8370 ,0.62261 ,4.34373 ,42.62071 
71 ,13.0293 ,0.62445 ,4.32320 ,42.41924 
72 ,13.2052 ,0.62624 ,4.29924 ,42.18419 
73 ,13.3974 ,0.62810 ,4.26845 ,41.88198 
74 ,13.5734 ,0.62984 ,4.26845 ,41.88198 
75 ,13.7492 ,0.63165 ,4.26160 ,41.81483 
76 ,13.9257 ,0.63341 ,4.23080 ,41.51262 
77 ,14.1178 ,0.63535 ,4.21711 ,41.37831 
78 ,14.2938 ,0.63710 ,4.20685 ,41.27758 
79 ,14.4698 ,0.63885 ,4.21027 ,41.31115 
80 ,14.6457 ,0.64057 ,4.17605 ,40.97537 
81 ,14.8216 ,0.64233 ,4.15209 ,40.74032 
82 ,15.0140 ,0.64421 ,4.14183 ,40.63959 
83 ,15.2218 ,0.64629 ,4.12129 ,40.43812 
84 ,15.3981 ,0.64813 ,4.10760 ,40.30380 
85 ,15.5902 ,0.65019 ,4.09049 ,40.13591 
86 ,15.7665 ,0.65183 ,4.09391 ,40.16949 
87 ,15.9904 ,0.65389 ,4.07338 ,39.96802 
88 ,16.1666 ,0.65583 ,4.05969 ,39.83371 
89 ,16.3426 ,0.65758 ,4.02889 ,39.53150 
90 ,16.5187 ,0.65934 ,4.01863 ,39.43077 
91 ,16.6947 ,0.66103 ,4.01863 ,39.43077 
92 ,16.8869 ,0.66298 ,3.99467 ,39.19572 
93 ,17.0789 ,0.66492 ,3.96387 ,38.89352 
94 ,17.2549 ,0.66667 ,3.96045 ,38.85994 
95 ,17.4310 ,0.66841 ,3.96729 ,38.92709 
96 ,17.6071 ,0.67024 ,3.95018 ,38.75920 
97 ,17.7992 ,0.67215 ,3.91254 ,38.38984 
98 ,17.9753 ,0.67393 ,3.91596 ,38.42342 
99 ,18.1513 ,0.67572 ,3.89885 ,38.25553 
100 ,18.3434 ,0.67754 ,3.86805 ,37.95332 
101 ,18.5192 ,0.67932 ,3.85094 ,37.78543 
102 ,18.6955 ,0.68107 ,3.84752 ,37.75185 
103 ,18.8714 ,0.68282 ,3.85094 ,37.78543 
104 ,19.0477 ,0.68460 ,3.83041 ,37.58396 
105 ,19.2398 ,0.68644 ,3.80303 ,37.31534 
106 ,19.4158 ,0.68832 ,3.78250 ,37.11387 
107 ,19.5916 ,0.69001 ,3.77908 ,37.08029 
108 ,19.7840 ,0.69187 ,3.77908 ,37.08029 
109 ,19.9600 ,0.69374 ,3.74485 ,36.74450 
110 ,20.1358 ,0.69547 ,3.73117 ,36.61019 
111 ,20.3122 ,0.69725 ,3.71405 ,36.44230 
112 ,20.5044 ,0.69912 ,3.70037 ,36.30799 
113 ,20.6803 ,0.70092 ,3.68668 ,36.17367 
114 ,20.8565 ,0.70267 ,3.67641 ,36.07294 
115 ,21.0486 ,0.70464 ,3.67641 ,36.07294 
116 ,21.2243 ,0.70636 ,3.64561 ,35.77073 
117 ,21.4007 ,0.70815 ,3.62850 ,35.60284 
118 ,21.5927 ,0.71005 ,3.63534 ,35.67000 
119 ,21.8008 ,0.71206 ,3.59770 ,35.30064 
120 ,21.9768 ,0.71388 ,3.58059 ,35.13275 
121 ,22.1526 ,0.71560 ,3.58059 ,35.13275 
122 ,22.3286 ,0.71739 ,3.58059 ,35.13275 
123 ,22.4886 ,0.71911 ,3.55321 ,34.86412 
124 ,22.6651 ,0.72079 ,3.54637 ,34.79696 
125 ,22.8411 ,0.72251 ,3.51899 ,34.52834 
126 ,23.0332 ,0.72445 ,3.49846 ,34.32687 
127 ,23.2414 ,0.72645 ,3.47792 ,34.12540 
128 ,23.4014 ,0.72825 ,3.46766 ,34.02466 
129 ,23.5776 ,0.72991 ,3.45055 ,33.85677 
130 ,23.7536 ,0.73165 ,3.44370 ,33.78961 
131 ,23.9298 ,0.73341 ,3.43344 ,33.68888 
132 ,24.1217 ,0.73528 ,3.41290 ,33.48741 
133 ,24.2975 ,0.73712 ,3.39579 ,33.31952 
134 ,24.4735 ,0.73885 ,3.39579 ,33.31952 
135 ,24.6499 ,0.74057 ,3.39579 ,33.31952 
136 ,24.8260 ,0.74236 ,3.36499 ,33.01731 
137 ,25.0021 ,0.74413 ,3.35130 ,32.88300 
138 ,25.1780 ,0.74589 ,3.33077 ,32.68153 
139 ,25.3543 ,0.74762 ,3.31708 ,32.54722 
140 ,25.5302 ,0.74940 ,3.31024 ,32.48006 
141 ,25.6900 ,0.75114 ,3.29997 ,32.37933 
142 ,25.8665 ,0.75275 ,3.28971 ,32.27859 
143 ,26.0426 ,0.75459 ,3.26575 ,32.04354 
144 ,26.2344 ,0.75635 ,3.24522 ,31.84207 
145 ,26.4109 ,0.75822 ,3.23837 ,31.77492 
146 ,26.5867 ,0.76012 ,3.22468 ,31.64060 
147 ,26.7629 ,0.76172 ,3.20757 ,31.47271 
148 ,26.9390 ,0.76351 ,3.19731 ,31.37198 
149 ,27.1471 ,0.76544 ,3.18704 ,31.27124 
150 ,27.3070 ,0.76732 ,3.17677 ,31.17051 
151 ,27.4831 ,0.76892 ,3.15966 ,31.00262 
152 ,27.6755 ,0.77087 ,3.12886 ,30.70041 
153 ,27.8676 ,0.77278 ,3.13229 ,30.73399 
154 ,28.0436 ,0.77452 ,3.11175 ,30.53252 
155 ,28.2354 ,0.77643 ,3.08780 ,30.29747 
156 ,28.4117 ,0.77823 ,3.07753 ,30.19674 
157 ,28.6036 ,0.78005 ,3.05700 ,29.99527 
158 ,28.7797 ,0.78191 ,3.04331 ,29.86095 
159 ,28.9720 ,0.78384 ,3.01935 ,29.62590 
160 ,29.1480 ,0.78561 ,3.03304 ,29.76022 
161 ,29.3399 ,0.78742 ,3.00224 ,29.45801 
162 ,29.5162 ,0.78924 ,2.99540 ,29.39086 
163 ,29.7077 ,0.79112 ,2.98513 ,29.29012 
164 ,29.8843 ,0.79291 ,2.97487 ,29.18939 
165 ,30.0603 ,0.79470 ,2.95091 ,28.95434 
166 ,30.2362 ,0.79655 ,2.92353 ,28.68571 
167 ,30.4284 ,0.79827 ,2.91327 ,28.58498 
168 ,30.6367 ,0.80043 ,2.89958 ,28.45066 
169 ,30.8126 ,0.80222 ,2.89616 ,28.41709 
170 ,30.9887 ,0.80399 ,2.88247 ,28.28277 
171 ,31.1648 ,0.80572 ,2.87220 ,28.18204 
172 ,31.3408 ,0.80744 ,2.85509 ,28.01415 
173 ,31.5170 ,0.80926 ,2.83456 ,27.81268 
174 ,31.7090 ,0.81116 ,2.83456 ,27.81268 
175 ,31.8691 ,0.81286 ,2.82087 ,27.67836 
176 ,32.0452 ,0.81453 ,2.80718 ,27.54405 
177 ,32.2531 ,0.81655 ,2.77638 ,27.24185 
178 ,32.4294 ,0.81837 ,2.77296 ,27.20827 
179 ,32.6373 ,0.82037 ,2.74900 ,26.97322 
180 ,32.8135 ,0.82219 ,2.73189 ,26.80533 
181 ,32.9896 ,0.82404 ,2.72847 ,26.77175 
182 ,33.1816 ,0.82582 ,2.71478 ,26.63744 
183 ,33.3577 ,0.82766 ,2.69767 ,26.46954 
184 ,33.5338 ,0.82939 ,2.69083 ,26.40239 
185 ,33.7258 ,0.83132 ,2.68056 ,26.30165 
186 ,33.9016 ,0.83308 ,2.67714 ,26.26807 
187 ,34.0782 ,0.83489 ,2.64634 ,25.96587 
188 ,34.2703 ,0.83680 ,2.62581 ,25.76440 
189 ,34.4783 ,0.83871 ,2.61896 ,25.69724 
190 ,34.6704 ,0.84081 ,2.58474 ,25.36146 
191 ,34.8623 ,0.84273 ,2.59501 ,25.46220 
192 ,35.0383 ,0.84442 ,2.57789 ,25.29430 
193 ,35.2146 ,0.84617 ,2.55052 ,25.02568 
194 ,35.4225 ,0.84820 ,2.54710 ,24.99210 
195 ,35.6146 ,0.85010 ,2.52998 ,24.82421 
196 ,35.7907 ,0.85199 ,2.49918 ,24.52200 
197 ,35.9668 ,0.85375 ,2.50261 ,24.55558 
198 ,36.1429 ,0.85547 ,2.50261 ,24.55558 
199 ,36.4629 ,0.85802 ,2.46154 ,24.15264 
200 ,36.6392 ,0.86042 ,2.45812 ,24.11906 
201 ,36.8153 ,0.86228 ,2.43416 ,23.88402 
202 ,37.0073 ,0.86411 ,2.43074 ,23.85044 
203 ,37.1995 ,0.86599 ,2.41021 ,23.64897 
204 ,37.3914 ,0.86802 ,2.38968 ,23.44750 
205 ,37.5678 ,0.86978 ,2.36914 ,23.24603 
206 ,37.7436 ,0.87149 ,2.36914 ,23.24603 
207 ,37.9353 ,0.87340 ,2.35545 ,23.11171 
208 ,38.1115 ,0.87515 ,2.32465 ,22.80951 
209 ,38.3037 ,0.87708 ,2.31781 ,22.74235 
210 ,38.4798 ,0.87898 ,2.31439 ,22.70877 
211 ,38.6560 ,0.88063 ,2.30412 ,22.60804 
212 ,38.8480 ,0.88249 ,2.28017 ,22.37299 
213 ,39.0398 ,0.88440 ,2.27674 ,22.33941 
214 ,39.2158 ,0.88618 ,2.26306 ,22.20510 
215 ,39.3922 ,0.88796 ,2.23910 ,21.97005 
216 ,39.6003 ,0.89000 ,2.23568 ,21.93647 
217 ,39.7766 ,0.89181 ,2.22883 ,21.86932 
218 ,39.9686 ,0.89369 ,2.20146 ,21.60069 
219 ,40.1444 ,0.89555 ,2.18777 ,21.46638 
220 ,40.3043 ,0.89718 ,2.18435 ,21.43280 
221 ,40.4805 ,0.89886 ,2.18092 ,21.39922 
222 ,40.6728 ,0.90077 ,2.14328 ,21.02986 
223 ,40.8488 ,0.90255 ,2.12959 ,20.89555 
224 ,41.0249 ,0.90433 ,2.12275 ,20.82839 
225 ,41.2009 ,0.90606 ,2.12617 ,20.86197 
226 ,41.3766 ,0.90777 ,2.10221 ,20.62692 
227 ,41.5529 ,0.90957 ,2.06799 ,20.29114 
228 ,41.7451 ,0.91144 ,2.07484 ,20.35829 
229 ,41.9213 ,0.91325 ,2.05773 ,20.19040 
230 ,42.1132 ,0.91513 ,2.03719 ,19.98893 
231 ,42.3049 ,0.91711 ,2.01324 ,19.75388 
232 ,42.4815 ,0.91889 ,2.00982 ,19.72031 
233 ,42.6577 ,0.92061 ,2.02350 ,19.85462 
234 ,42.8335 ,0.92241 ,1.99270 ,19.55241 
235 ,43.0257 ,0.92421 ,1.98244 ,19.45168 
236 ,43.2174 ,0.92623 ,1.97217 ,19.35094 
237 ,43.3939 ,0.92800 ,1.95506 ,19.18305 
238 ,43.6015 ,0.92996 ,1.94479 ,19.08232 
239 ,43.7782 ,0.93183 ,1.93111 ,18.94801 
240 ,43.9701 ,0.93378 ,1.89688 ,18.61222 
241 ,44.1462 ,0.93555 ,1.87977 ,18.44433 
242 ,44.3541 ,0.93747 ,1.89346 ,18.57864 
243 ,44.5140 ,0.93931 ,1.85582 ,18.20928 
244 ,44.6903 ,0.94095 ,1.85240 ,18.17570 
245 ,44.8665 ,0.94270 ,1.82160 ,17.87350 
246 ,45.0425 ,0.94442 ,1.83186 ,17.97423 
247 ,45.2185 ,0.94620 ,1.83528 ,18.00781 
248 ,45.3786 ,0.94794 ,1.81475 ,17.80634 
249 ,45.5547 ,0.94961 ,1.80106 ,17.67203 
250 ,45.7147 ,0.95129 ,1.77369 ,17.40340 
251 ,45.9067 ,0.95311 ,1.75657 ,17.23551 
252 ,46.0828 ,0.95484 ,1.74289 ,17.10120 
253 ,46.2588 ,0.95662 ,1.73604 ,17.03404 
254 ,46.4351 ,0.95837 ,1.72578 ,16.93331 
255 ,46.6269 ,0.96025 ,1.71551 ,16.83257 
256 ,46.8032 ,0.96203 ,1.68813 ,16.56395 
257 ,46.9953 ,0.96390 ,1.68471 ,16.53037 
258 ,47.1720 ,0.96572 ,1.66418 ,16.32890 
259 ,47.3475 ,0.96751 ,1.64707 ,16.16101 
260 ,47.5235 ,0.96926 ,1.65391 ,16.22816 
261 ,47.6997 ,0.97101 ,1.63680 ,16.06027 
262 ,47.8917 ,0.97286 ,1.61627 ,15.85880 
263 ,48.0997 ,0.97494 ,1.61969 ,15.89238 
264 ,48.2762 ,0.97678 ,1.59916 ,15.69091 
265 ,48.5000 ,0.97898 ,1.58204 ,15.52302 
266 ,48.6761 ,0.98080 ,1.57520 ,15.45586 
267 ,48.8359 ,0.98248 ,1.55467 ,15.25439 
268 ,49.0118 ,0.98411 ,1.53756 ,15.08650 
269 ,49.1882 ,0.98592 ,1.52729 ,14.98577 
270 ,49.3962 ,0.98790 ,1.52045 ,14.91861 
271 ,49.5721 ,0.98977 ,1.50333 ,14.75072 
272 ,49.7484 ,0.99152 ,1.47596 ,14.48209 
273 ,49.9085 ,0.99322 ,1.46911 ,14.41493 
274 ,50.0846 ,0.99485 ,1.45885 ,14.31420 
275 ,50.2606 ,0.99660 ,1.45542 ,14.28062 
276 ,50.4367 ,0.99843 ,1.45200 ,14.24704 
277 ,50.6289 ,1.00031 ,1.41094 ,13.84410 
278 ,50.8369 ,1.00227 ,1.42120 ,13.94484 
279 ,51.0289 ,1.00427 ,1.38356 ,13.57548 
280 ,51.2210 ,1.00622 ,1.38356 ,13.57548 
281 ,51.4130 ,1.00806 ,1.37671 ,13.50832 
282 ,51.6053 ,1.01000 ,1.35618 ,13.30685 
283 ,51.7813 ,1.01189 ,1.35618 ,13.30685 
284 ,51.9570 ,1.01356 ,1.33907 ,13.13896 
285 ,52.1333 ,1.01533 ,1.32880 ,13.03822 
286 ,52.3255 ,1.01726 ,1.29458 ,12.70244 
287 ,52.5017 ,1.01901 ,1.28774 ,12.63528 
288 ,52.6777 ,1.02076 ,1.29800 ,12.73602 
289 ,52.8697 ,1.02268 ,1.27405 ,12.50097 
290 ,53.0454 ,1.02459 ,1.25009 ,12.26592 
291 ,53.2215 ,1.02621 ,1.24325 ,12.19877 
292 ,53.3979 ,1.02799 ,1.24667 ,12.23235 
293 ,53.6059 ,1.02995 ,1.23298 ,12.09803 
294 ,53.7981 ,1.03195 ,1.22614 ,12.03088 
295 ,53.9900 ,1.03383 ,1.19192 ,11.69509 
296 ,54.1501 ,1.03558 ,1.16796 ,11.46004 
297 ,54.3289 ,1.03721 ,1.17138 ,11.49362 
298 ,54.5184 ,1.03921 ,1.17138 ,11.49362 
299 ,54.7104 ,1.04106 ,1.15770 ,11.35931 
300 ,54.8866 ,1.04285 ,1.13374 ,11.12426 
301 ,55.0788 ,1.04481 ,1.12690 ,11.05710 
302 ,55.2547 ,1.04654 ,1.11663 ,10.95637 
303 ,55.4467 ,1.04843 ,1.09610 ,10.75490 
304 ,55.6226 ,1.05021 ,1.07214 ,10.51985 
305 ,55.7990 ,1.05199 ,1.07899 ,10.58701 
306 ,55.9910 ,1.05391 ,1.07214 ,10.51985 
307 ,56.1671 ,1.05569 ,1.04476 ,10.25123 
308 ,56.3429 ,1.05740 ,1.03108 ,10.11691 
309 ,56.5353 ,1.05937 ,1.03450 ,10.15049 
310 ,56.7111 ,1.06110 ,1.01739 ,9.98260 
311 ,56.8873 ,1.06288 ,1.01396 ,9.94902 
312 ,57.0635 ,1.06461 ,0.98317 ,9.64682 
313 ,57.2553 ,1.06651 ,0.97974 ,9.61324 
314 ,57.4476 ,1.06837 ,0.97632 ,9.57966 
315 ,57.6396 ,1.07039 ,0.94552 ,9.27745 
316 ,57.8157 ,1.07211 ,0.93183 ,9.14314 
317 ,57.9917 ,1.07388 ,0.94210 ,9.24388 
318 ,58.1839 ,1.07579 ,0.90788 ,8.90809 
319 ,58.3596 ,1.07754 ,0.91130 ,8.94167 
320 ,58.5361 ,1.07933 ,0.90788 ,8.90809 
321 ,58.7119 ,1.08108 ,0.90103 ,8.84094 
322 ,58.8883 ,1.08288 ,0.87366 ,8.57231 
323 ,59.0803 ,1.08477 ,0.87023 ,8.53873 
324 ,59.2564 ,1.08656 ,0.84628 ,8.30368 
325 ,59.4321 ,1.08834 ,0.82917 ,8.13579 
326 ,59.6085 ,1.09008 ,0.82917 ,8.13579 
327 ,59.8165 ,1.09197 ,0.81890 ,8.03506 
328 ,60.0085 ,1.09407 ,0.80521 ,7.90074 
329 ,60.1845 ,1.09579 ,0.79837 ,7.83359 
330 ,60.3768 ,1.09769 ,0.78468 ,7.69927 
331 ,60.5528 ,1.09945 ,0.78810 ,7.73285 
332 ,60.7289 ,1.10126 ,0.76757 ,7.53138 
333 ,60.9051 ,1.10299 ,0.74361 ,7.29633 
334 ,61.0972 ,1.10499 ,0.73335 ,7.19560 
335 ,61.3052 ,1.10693 ,0.71966 ,7.06129 
336 ,61.4813 ,1.10879 ,0.69913 ,6.85982 
337 ,61.6733 ,1.11063 ,0.71281 ,6.99413 
338 ,61.8653 ,1.11263 ,0.68886 ,6.75908 
339 ,62.0414 ,1.11435 ,0.66148 ,6.49046 
340 ,62.2176 ,1.11614 ,0.65806 ,6.45688 
341 ,62.3933 ,1.11789 ,0.67175 ,6.59119 
342 ,62.5854 ,1.11971 ,0.65806 ,6.45688 
343 ,62.7617 ,1.12159 ,0.63068 ,6.18825 
344 ,62.9537 ,1.12341 ,0.62726 ,6.15467 
345 ,63.1300 ,1.12526 ,0.62042 ,6.08752 
346 ,63.3376 ,1.12719 ,0.60673 ,5.95320 
347 ,63.5300 ,1.12924 ,0.59988 ,5.88605 
348 ,63.7061 ,1.13098 ,0.57251 ,5.61742 
349 ,63.8821 ,1.13275 ,0.55882 ,5.48311 
350 ,64.0582 ,1.13453 ,0.55197 ,5.41595 
351 ,64.2504 ,1.13644 ,0.56908 ,5.58384 
352 ,64.4263 ,1.13823 ,0.54171 ,5.31522 
353 ,64.6344 ,1.14023 ,0.53144 ,5.21448 
354 ,64.8104 ,1.14205 ,0.52117 ,5.11375 
355 ,65.0027 ,1.14396 ,0.48695 ,4.77796 
356 ,65.1946 ,1.14581 ,0.50406 ,4.94585 
357 ,65.3869 ,1.14783 ,0.49037 ,4.81154 
358 ,65.5629 ,1.14955 ,0.45957 ,4.50934 
359 ,65.7390 ,1.15131 ,0.44588 ,4.37502 
360 ,65.9311 ,1.15319 ,0.45957 ,4.50934 
361 ,66.1227 ,1.15520 ,0.42877 ,4.20713 
362 ,66.2987 ,1.15692 ,0.40824 ,4.00566 
363 ,66.4751 ,1.15874 ,0.40824 ,4.00566 
364 ,66.6675 ,1.16059 ,0.40140 ,3.93850 
365 ,66.8430 ,1.16252 ,0.37060 ,3.63630 
366 ,67.0196 ,1.16415 ,0.37060 ,3.63630 
367 ,67.2116 ,1.16606 ,0.38429 ,3.77061 
368 ,67.4196 ,1.16798 ,0.34664 ,3.40125 
369 ,67.6117 ,1.17008 ,0.34664 ,3.40125 
370 ,67.8034 ,1.17193 ,0.32953 ,3.23336 
371 ,67.9797 ,1.17371 ,0.29873 ,2.93116 
372 ,68.1560 ,1.17550 ,0.30215 ,2.96473 
373 ,68.3641 ,1.17753 ,0.30900 ,3.03189 
374 ,68.5562 ,1.17951 ,0.27135 ,2.66253 
375 ,68.7483 ,1.18138 ,0.27478 ,2.69611 
376 ,68.9241 ,1.18321 ,0.26793 ,2.62895 
377 ,69.1164 ,1.18502 ,0.25424 ,2.49464 
378 ,69.3421 ,1.18721 ,0.24398 ,2.39390 
379 ,69.5326 ,1.18929 ,0.23029 ,2.25959 
380 ,69.7246 ,1.19116 ,0.21318 ,2.09170 
381 ,69.8845 ,1.19289 ,0.19949 ,1.95738 
382 ,70.0764 ,1.19469 ,0.19264 ,1.89023 
383 ,70.2529 ,1.19646 ,0.18922 ,1.85665 
384 ,70.4285 ,1.19824 ,0.19264 ,1.89023 
385 ,70.6209 ,1.20002 ,0.17211 ,1.68876 
386 ,70.8131 ,1.20197 ,0.15158 ,1.48729 
387 ,71.0050 ,1.20401 ,0.15842 ,1.55445 
388 ,71.1812 ,1.20575 ,0.12420 ,1.21866 
389 ,71.3572 ,1.20750 ,0.12420 ,1.21866 
390 ,71.5333 ,1.20926 ,0.10709 ,1.05077 
391 ,71.7254 ,1.21113 ,0.11393 ,1.11793 
392 ,71.9015 ,1.21298 ,0.09682 ,0.95004 
393 ,72.0935 ,1.21489 ,0.07629 ,0.74857 
394 ,72.2696 ,1.21662 ,0.07971 ,0.78214 
395 ,72.4457 ,1.21839 ,0.08656 ,0.84930 
396 ,72.6375 ,1.22031 ,0.04891 ,0.47994 
397 ,72.8135 ,1.22203 ,0.03180 ,0.31205 
398 ,72.9899 ,1.22381 ,0.04549 ,0.44636 
399 ,73.1662 ,1.22562 ,0.04207 ,0.41278 
400 ,73.3741 ,1.22752 ,0.01127 ,0.11058 
401 ,73.5502 ,1.22943 ,0.00785 ,0.07700 
402 ,73.7420 ,1.23131 ,0.00100 ,0.00984 
403 ,73.9183 ,1.23309 ,-0.01953 ,-0.19163 
404 ,74.0940 ,1.23481 ,-0.02295 ,-0.22520 
405 ,74.2705 ,1.23663 ,-0.02637 ,-0.25878 
406 ,74.4465 ,1.23835 ,-0.03322 ,-0.32594 
407 ,74.6384 ,1.24028 ,-0.06060 ,-0.59457 
408 ,74.8146 ,1.24201 ,-0.06402 ,-0.62814 
409 ,74.9908 ,1.24389 ,-0.07428 ,-0.72888 
410 ,75.1667 ,1.24560 ,-0.06744 ,-0.66172 
411 ,75.3428 ,1.24733 ,-0.08113 ,-0.79604 
412 ,75.5350 ,1.24930 ,-0.10851 ,-1.06466 
413 ,75.7270 ,1.25114 ,-0.11193 ,-1.09824 
414 ,75.9031 ,1.25290 ,-0.11877 ,-1.16540 
415 ,76.1272 ,1.25504 ,-0.10851 ,-1.06466 
416 ,76.3192 ,1.25708 ,-0.14273 ,-1.40045 
417 ,76.4793 ,1.25880 ,-0.15984 ,-1.56834 
418 ,76.6552 ,1.26047 ,-0.17353 ,-1.70265 
419 ,76.8474 ,1.26232 ,-0.15984 ,-1.56834 
420 ,77.0395 ,1.26417 ,-0.17695 ,-1.73623 
421 ,77.2157 ,1.26606 ,-0.19748 ,-1.93770 
422 ,77.3917 ,1.26781 ,-0.20433 ,-2.00485 
423 ,77.5837 ,1.26965 ,-0.19748 ,-1.93770 
424 ,77.7760 ,1.27166 ,-0.23170 ,-2.27348 
425 ,77.9837 ,1.27360 ,-0.22486 ,-2.20632 
426 ,78.1601 ,1.27549 ,-0.23513 ,-2.30706 
427 ,78.3519 ,1.27737 ,-0.24197 ,-2.37422 
428 ,78.5438 ,1.27936 ,-0.23855 ,-2.34064 
429 ,78.7363 ,1.28116 ,-0.26250 ,-2.57569 
430 ,78.9440 ,1.28325 ,-0.26935 ,-2.64284 
431 ,79.1363 ,1.28524 ,-0.29673 ,-2.91147 
432 ,79.3123 ,1.28699 ,-0.30015 ,-2.94505 
433 ,79.5046 ,1.28895 ,-0.28646 ,-2.81073 
434 ,79.6805 ,1.29069 ,-0.30015 ,-2.94505 
435 ,79.8566 ,1.29241 ,-0.32410 ,-3.18010 
436 ,80.0326 ,1.29418 ,-0.33095 ,-3.24725 
437 ,80.2087 ,1.29600 ,-0.33095 ,-3.24725 
438 ,80.3849 ,1.29772 ,-0.32068 ,-3.14652 
439 ,80.5771 ,1.29964 ,-0.37201 ,-3.65019 
440 ,80.7529 ,1.30139 ,-0.36859 ,-3.61661 
441 ,80.9451 ,1.30329 ,-0.36517 ,-3.58303 
442 ,81.1210 ,1.30510 ,-0.37201 ,-3.65019 
443 ,81.2973 ,1.30684 ,-0.39597 ,-3.88524 
444 ,81.5054 ,1.30886 ,-0.36859 ,-3.61661 
445 ,81.6811 ,1.31071 ,-0.40281 ,-3.95240 
446 ,81.8576 ,1.31243 ,-0.40966 ,-4.01955 
447 ,82.0495 ,1.31437 ,-0.43019 ,-4.22102 
448 ,82.2253 ,1.31609 ,-0.42677 ,-4.18744 
449 ,82.4014 ,1.31786 ,-0.43019 ,-4.22102 
450 ,82.5778 ,1.31966 ,-0.43703 ,-4.28818 
451 ,82.7697 ,1.32158 ,-0.46441 ,-4.55681 
452 ,82.9459 ,1.32337 ,-0.46441 ,-4.55681 
453 ,83.1382 ,1.32528 ,-0.47810 ,-4.69112 
454 ,83.3301 ,1.32715 ,-0.49521 ,-4.85901 
455 ,83.5220 ,1.32907 ,-0.48494 ,-4.75828 
456 ,83.6980 ,1.33084 ,-0.50548 ,-4.95975 
457 ,83.8579 ,1.33257 ,-0.52259 ,-5.12764 
458 ,84.0343 ,1.33422 ,-0.53285 ,-5.22837 
459 ,84.2103 ,1.33608 ,-0.52601 ,-5.16121 
460 ,84.3862 ,1.33774 ,-0.53285 ,-5.22837 
461 ,84.5785 ,1.33964 ,-0.54312 ,-5.32911 
462 ,84.7547 ,1.34136 ,-0.55339 ,-5.42984 
463 ,84.9143 ,1.34315 ,-0.57050 ,-5.59773 
464 ,85.0908 ,1.34476 ,-0.58077 ,-5.69847 
