Data stamp = , 07-04-2022 06:20:53 981

Calibration Values: 
Slope = , 26.54 , g/V 
Offset Voltage at no contact = , -0.501760 , V 

No , Time , Stage Position ,   Mass , Force 
   ,  (s) ,      (mm)      ,   (g)  , (mN)  

1 ,0.0000 ,0.49939 ,5.29167 ,51.92190 
2 ,0.2138 ,0.49948 ,5.26430 ,51.65327 
3 ,0.5499 ,0.50039 ,5.27114 ,51.72043 
4 ,0.7421 ,0.50182 ,5.25403 ,51.55254 
5 ,0.9180 ,0.50335 ,5.25403 ,51.55254 
6 ,1.1265 ,0.50522 ,5.27456 ,51.75401 
7 ,1.3506 ,0.50758 ,5.28141 ,51.82116 
8 ,1.5589 ,0.50963 ,5.26772 ,51.68685 
9 ,1.7669 ,0.51178 ,5.24034 ,51.41822 
10 ,1.9430 ,0.51356 ,5.20612 ,51.08244 
11 ,2.1512 ,0.51564 ,5.20954 ,51.11602 
12 ,2.3272 ,0.51751 ,5.20270 ,51.04886 
13 ,2.5028 ,0.51924 ,5.17874 ,50.81381 
14 ,2.6952 ,0.52106 ,5.14794 ,50.51161 
15 ,2.8872 ,0.52309 ,5.14110 ,50.44445 
16 ,3.0795 ,0.52487 ,5.12056 ,50.24298 
17 ,3.2713 ,0.52692 ,5.11372 ,50.17583 
18 ,3.4637 ,0.52882 ,5.08977 ,49.94078 
19 ,3.6555 ,0.53062 ,5.07950 ,49.84004 
20 ,3.8636 ,0.53275 ,5.04528 ,49.50426 
21 ,4.0395 ,0.53451 ,5.02817 ,49.33637 
22 ,4.2320 ,0.53641 ,5.04185 ,49.47068 
23 ,4.4399 ,0.53851 ,5.00079 ,49.06774 
24 ,4.6157 ,0.54045 ,5.00763 ,49.13490 
25 ,4.7920 ,0.54207 ,4.98368 ,48.89985 
26 ,4.9841 ,0.54392 ,4.95288 ,48.59764 
27 ,5.1762 ,0.54581 ,4.93577 ,48.42975 
28 ,5.3684 ,0.54778 ,4.91866 ,48.26186 
29 ,5.5444 ,0.54964 ,4.90839 ,48.16113 
30 ,5.7205 ,0.55134 ,4.88444 ,47.92608 
31 ,5.8802 ,0.55306 ,4.86048 ,47.69103 
32 ,6.0403 ,0.55467 ,4.86048 ,47.69103 
33 ,6.2164 ,0.55631 ,4.84337 ,47.52314 
34 ,6.3927 ,0.55810 ,4.82626 ,47.35525 
35 ,6.5849 ,0.55998 ,4.82968 ,47.38883 
36 ,6.7607 ,0.56183 ,4.80230 ,47.12020 
37 ,6.9370 ,0.56351 ,4.77493 ,46.85157 
38 ,7.1131 ,0.56527 ,4.76466 ,46.75084 
39 ,7.3050 ,0.56714 ,4.74413 ,46.54937 
40 ,7.4973 ,0.56903 ,4.74070 ,46.51579 
41 ,7.6732 ,0.57094 ,4.72359 ,46.34790 
42 ,7.8493 ,0.57260 ,4.70990 ,46.21359 
43 ,8.0253 ,0.57441 ,4.70306 ,46.14643 
44 ,8.2175 ,0.57623 ,4.67568 ,45.87780 
45 ,8.3936 ,0.57811 ,4.65173 ,45.64275 
46 ,8.5697 ,0.57984 ,4.65173 ,45.64275 
47 ,8.7618 ,0.58171 ,4.62435 ,45.37413 
48 ,8.9538 ,0.58377 ,4.62093 ,45.34055 
49 ,9.1459 ,0.58562 ,4.61066 ,45.23981 
50 ,9.3221 ,0.58735 ,4.57986 ,44.93761 
51 ,9.5142 ,0.58923 ,4.56617 ,44.80330 
52 ,9.7063 ,0.59126 ,4.55933 ,44.73614 
53 ,9.9138 ,0.59311 ,4.53195 ,44.46751 
54 ,10.0903 ,0.59499 ,4.53195 ,44.46751 
55 ,10.2664 ,0.59683 ,4.50457 ,44.19889 
56 ,10.4584 ,0.59873 ,4.46693 ,43.82953 
57 ,10.6347 ,0.60048 ,4.46351 ,43.79595 
58 ,10.8105 ,0.60229 ,4.47378 ,43.89668 
59 ,10.9704 ,0.60394 ,4.45324 ,43.69521 
60 ,11.1468 ,0.60559 ,4.43955 ,43.56090 
61 ,11.3228 ,0.60738 ,4.41218 ,43.29227 
62 ,11.5309 ,0.60942 ,4.40533 ,43.22512 
63 ,11.7229 ,0.61139 ,4.38822 ,43.05723 
64 ,11.8994 ,0.61314 ,4.36084 ,42.78860 
65 ,12.0750 ,0.61490 ,4.35058 ,42.68786 
66 ,12.2673 ,0.61679 ,4.34373 ,42.62071 
67 ,12.4594 ,0.61878 ,4.31293 ,42.31850 
68 ,12.6835 ,0.62076 ,4.28556 ,42.04988 
69 ,12.9073 ,0.62305 ,4.27871 ,41.98272 
70 ,13.0991 ,0.62510 ,4.26845 ,41.88198 
71 ,13.2756 ,0.62692 ,4.24107 ,41.61336 
72 ,13.4676 ,0.62876 ,4.23422 ,41.54620 
73 ,13.6596 ,0.63058 ,4.22396 ,41.44547 
74 ,13.8518 ,0.63261 ,4.19316 ,41.14326 
75 ,14.0598 ,0.63468 ,4.18974 ,41.10968 
76 ,14.2360 ,0.63646 ,4.15551 ,40.77390 
77 ,14.4280 ,0.63831 ,4.16236 ,40.84106 
78 ,14.6041 ,0.64017 ,4.14525 ,40.67317 
79 ,14.7802 ,0.64192 ,4.12471 ,40.47170 
80 ,14.9723 ,0.64385 ,4.10418 ,40.27023 
81 ,15.1484 ,0.64560 ,4.10418 ,40.27023 
82 ,15.3405 ,0.64753 ,4.06654 ,39.90087 
83 ,15.5326 ,0.64947 ,4.05969 ,39.83371 
84 ,15.7242 ,0.65129 ,4.03232 ,39.56508 
85 ,15.9165 ,0.65322 ,4.01178 ,39.36361 
86 ,16.0927 ,0.65507 ,4.00494 ,39.29646 
87 ,16.2684 ,0.65676 ,3.99809 ,39.22930 
88 ,16.4447 ,0.65855 ,3.99125 ,39.16214 
89 ,16.6530 ,0.66064 ,3.96045 ,38.85994 
90 ,16.8450 ,0.66247 ,3.97756 ,39.02783 
91 ,17.0372 ,0.66447 ,3.92965 ,38.55773 
92 ,17.2131 ,0.66634 ,3.92623 ,38.52415 
93 ,17.3892 ,0.66798 ,3.90570 ,38.32268 
94 ,17.5814 ,0.66979 ,3.91254 ,38.38984 
95 ,17.7574 ,0.67170 ,3.88858 ,38.15479 
96 ,17.9334 ,0.67342 ,3.86121 ,37.88617 
97 ,18.1254 ,0.67534 ,3.85094 ,37.78543 
98 ,18.3332 ,0.67740 ,3.84410 ,37.71828 
99 ,18.5097 ,0.67918 ,3.82699 ,37.55038 
100 ,18.7178 ,0.68122 ,3.79619 ,37.24818 
101 ,18.8939 ,0.68305 ,3.78250 ,37.11387 
102 ,19.0699 ,0.68477 ,3.75854 ,36.87882 
103 ,19.2460 ,0.68654 ,3.77908 ,37.08029 
104 ,19.4220 ,0.68835 ,3.76196 ,36.91240 
105 ,19.6141 ,0.69020 ,3.72774 ,36.57661 
106 ,19.8065 ,0.69219 ,3.71748 ,36.47588 
107 ,19.9821 ,0.69394 ,3.71405 ,36.44230 
108 ,20.1584 ,0.69569 ,3.69352 ,36.24083 
109 ,20.3344 ,0.69741 ,3.67299 ,36.03936 
110 ,20.5102 ,0.69920 ,3.64561 ,35.77073 
111 ,20.6866 ,0.70092 ,3.64219 ,35.73716 
112 ,20.8947 ,0.70298 ,3.63192 ,35.63642 
113 ,21.0707 ,0.70483 ,3.61823 ,35.50211 
114 ,21.2467 ,0.70652 ,3.60454 ,35.36779 
115 ,21.4228 ,0.70831 ,3.60112 ,35.33422 
116 ,21.5986 ,0.71008 ,3.58059 ,35.13275 
117 ,21.7748 ,0.71184 ,3.55663 ,34.89770 
118 ,21.9512 ,0.71359 ,3.53610 ,34.69623 
119 ,22.1910 ,0.71575 ,3.52584 ,34.59549 
120 ,22.3831 ,0.71785 ,3.53610 ,34.69623 
121 ,22.5752 ,0.71974 ,3.51215 ,34.46118 
122 ,22.7514 ,0.72159 ,3.48135 ,34.15898 
123 ,22.9435 ,0.72350 ,3.46424 ,33.99108 
124 ,23.1355 ,0.72535 ,3.45739 ,33.92393 
125 ,23.3116 ,0.72719 ,3.43686 ,33.72246 
126 ,23.4879 ,0.72889 ,3.43344 ,33.68888 
127 ,23.6957 ,0.73092 ,3.41290 ,33.48741 
128 ,23.8719 ,0.73289 ,3.39921 ,33.35310 
129 ,24.0800 ,0.73475 ,3.38895 ,33.25236 
130 ,24.2561 ,0.73662 ,3.37526 ,33.11805 
131 ,24.4322 ,0.73844 ,3.35815 ,32.95016 
132 ,24.6242 ,0.74034 ,3.34446 ,32.81584 
133 ,24.8159 ,0.74219 ,3.32393 ,32.61437 
134 ,24.9924 ,0.74404 ,3.31708 ,32.54722 
135 ,25.1685 ,0.74574 ,3.28971 ,32.27859 
136 ,25.3606 ,0.74758 ,3.28971 ,32.27859 
137 ,25.5845 ,0.74980 ,3.26575 ,32.04354 
138 ,25.7765 ,0.75181 ,3.23837 ,31.77492 
139 ,25.9528 ,0.75357 ,3.22811 ,31.67418 
140 ,26.1288 ,0.75533 ,3.22811 ,31.67418 
141 ,26.3048 ,0.75711 ,3.20757 ,31.47271 
142 ,26.4970 ,0.75899 ,3.19731 ,31.37198 
143 ,26.6732 ,0.76077 ,3.16651 ,31.06977 
144 ,26.8489 ,0.76261 ,3.15966 ,31.00262 
145 ,27.0253 ,0.76431 ,3.15624 ,30.96904 
146 ,27.2010 ,0.76622 ,3.14255 ,30.83472 
147 ,27.3769 ,0.76787 ,3.13571 ,30.76757 
148 ,27.5530 ,0.76959 ,3.11860 ,30.59968 
149 ,27.7295 ,0.77138 ,3.08780 ,30.29747 
150 ,27.9695 ,0.77360 ,3.08438 ,30.26389 
151 ,28.1456 ,0.77557 ,3.05358 ,29.96169 
152 ,28.3377 ,0.77749 ,3.07069 ,30.12958 
153 ,28.5139 ,0.77921 ,3.05358 ,29.96169 
154 ,28.6899 ,0.78099 ,3.02278 ,29.65948 
155 ,28.8659 ,0.78271 ,3.00567 ,29.49159 
156 ,29.0579 ,0.78457 ,3.00909 ,29.52517 
157 ,29.2342 ,0.78648 ,2.99198 ,29.35728 
158 ,29.4263 ,0.78830 ,2.96802 ,29.12223 
159 ,29.6184 ,0.79023 ,2.96118 ,29.05507 
160 ,29.7943 ,0.79201 ,2.95433 ,28.98792 
161 ,30.0026 ,0.79402 ,2.93380 ,28.78645 
162 ,30.1941 ,0.79602 ,2.92011 ,28.65213 
163 ,30.3705 ,0.79776 ,2.88589 ,28.31635 
164 ,30.5306 ,0.79947 ,2.87562 ,28.21562 
165 ,30.7071 ,0.80113 ,2.87905 ,28.24919 
166 ,30.8828 ,0.80287 ,2.87562 ,28.21562 
167 ,31.0583 ,0.80467 ,2.85167 ,27.98057 
168 ,31.2509 ,0.80652 ,2.82429 ,27.71194 
169 ,31.4269 ,0.80833 ,2.82087 ,27.67836 
170 ,31.6033 ,0.81010 ,2.81060 ,27.57763 
171 ,31.8111 ,0.81211 ,2.77980 ,27.27542 
172 ,31.9874 ,0.81397 ,2.77296 ,27.20827 
173 ,32.1794 ,0.81575 ,2.77638 ,27.24185 
174 ,32.3875 ,0.81783 ,2.73874 ,26.87248 
175 ,32.5795 ,0.81976 ,2.75243 ,27.00680 
176 ,32.7716 ,0.82177 ,2.73531 ,26.83891 
177 ,32.9476 ,0.82356 ,2.70109 ,26.50312 
178 ,33.1237 ,0.82528 ,2.68398 ,26.33523 
179 ,33.2996 ,0.82708 ,2.68398 ,26.33523 
180 ,33.4759 ,0.82882 ,2.66687 ,26.16734 
181 ,33.6680 ,0.83078 ,2.65318 ,26.03303 
182 ,33.8601 ,0.83263 ,2.63949 ,25.89871 
183 ,34.0678 ,0.83460 ,2.62238 ,25.73082 
184 ,34.2603 ,0.83658 ,2.62238 ,25.73082 
185 ,34.4522 ,0.83847 ,2.60527 ,25.56293 
186 ,34.6284 ,0.84030 ,2.57789 ,25.29430 
187 ,34.8361 ,0.84232 ,2.57789 ,25.29430 
188 ,35.0124 ,0.84414 ,2.56421 ,25.15999 
189 ,35.1886 ,0.84595 ,2.54710 ,24.99210 
190 ,35.3806 ,0.84782 ,2.53683 ,24.89136 
191 ,35.5567 ,0.84955 ,2.51630 ,24.68989 
192 ,35.7488 ,0.85153 ,2.50603 ,24.58916 
193 ,35.9249 ,0.85327 ,2.47523 ,24.28696 
194 ,36.1328 ,0.85531 ,2.46839 ,24.21980 
195 ,36.3091 ,0.85714 ,2.45127 ,24.05191 
196 ,36.4848 ,0.85884 ,2.43416 ,23.88402 
197 ,36.6612 ,0.86064 ,2.42732 ,23.81686 
198 ,36.8531 ,0.86260 ,2.42732 ,23.81686 
199 ,37.0450 ,0.86453 ,2.39994 ,23.54823 
200 ,37.2534 ,0.86652 ,2.39652 ,23.51465 
201 ,37.4454 ,0.86847 ,2.36572 ,23.21245 
202 ,37.6211 ,0.87023 ,2.34861 ,23.04456 
203 ,37.7978 ,0.87200 ,2.36572 ,23.21245 
204 ,37.9894 ,0.87395 ,2.34861 ,23.04456 
205 ,38.1659 ,0.87570 ,2.31097 ,22.67520 
206 ,38.3579 ,0.87751 ,2.30070 ,22.57446 
207 ,38.5339 ,0.87936 ,2.30412 ,22.60804 
208 ,38.7096 ,0.88111 ,2.28701 ,22.44015 
209 ,38.8860 ,0.88283 ,2.25279 ,22.10437 
210 ,39.0782 ,0.88477 ,2.23226 ,21.90290 
211 ,39.2542 ,0.88654 ,2.24937 ,22.07079 
212 ,39.4304 ,0.88831 ,2.22541 ,21.83574 
213 ,39.6064 ,0.89013 ,2.21172 ,21.70143 
214 ,39.7820 ,0.89183 ,2.18092 ,21.39922 
215 ,39.9581 ,0.89360 ,2.17066 ,21.29849 
216 ,40.1343 ,0.89532 ,2.17066 ,21.29849 
217 ,40.3265 ,0.89733 ,2.13301 ,20.92912 
218 ,40.5187 ,0.89922 ,2.13301 ,20.92912 
219 ,40.6944 ,0.90094 ,2.13301 ,20.92912 
220 ,40.8709 ,0.90274 ,2.11932 ,20.79481 
221 ,41.0629 ,0.90468 ,2.09879 ,20.59334 
222 ,41.2549 ,0.90650 ,2.09537 ,20.55976 
223 ,41.4311 ,0.90833 ,2.08168 ,20.42545 
224 ,41.6230 ,0.91024 ,2.04746 ,20.08967 
225 ,41.7991 ,0.91205 ,2.02350 ,19.85462 
226 ,41.9752 ,0.91374 ,2.02008 ,19.82104 
227 ,42.1673 ,0.91567 ,2.02008 ,19.82104 
228 ,42.3435 ,0.91743 ,1.98244 ,19.45168 
229 ,42.5196 ,0.91922 ,1.98586 ,19.48526 
230 ,42.6956 ,0.92100 ,1.97902 ,19.41810 
231 ,42.8874 ,0.92288 ,1.97217 ,19.35094 
232 ,43.0796 ,0.92476 ,1.94822 ,19.11590 
233 ,43.2719 ,0.92674 ,1.94137 ,19.04874 
234 ,43.4639 ,0.92859 ,1.91742 ,18.81369 
235 ,43.6559 ,0.93050 ,1.89004 ,18.54507 
236 ,43.8317 ,0.93230 ,1.90373 ,18.67938 
237 ,44.0080 ,0.93407 ,1.89688 ,18.61222 
238 ,44.1840 ,0.93584 ,1.86266 ,18.27644 
239 ,44.3603 ,0.93762 ,1.84897 ,18.14213 
240 ,44.5363 ,0.93934 ,1.83871 ,18.04139 
241 ,44.7444 ,0.94135 ,1.82844 ,17.94066 
242 ,44.9204 ,0.94316 ,1.80449 ,17.70561 
243 ,45.0805 ,0.94489 ,1.78737 ,17.53772 
244 ,45.2566 ,0.94655 ,1.77711 ,17.43698 
245 ,45.4326 ,0.94832 ,1.77369 ,17.40340 
246 ,45.6246 ,0.95025 ,1.77369 ,17.40340 
247 ,45.8166 ,0.95206 ,1.73604 ,17.03404 
248 ,45.9929 ,0.95391 ,1.74631 ,17.13478 
249 ,46.1689 ,0.95568 ,1.72578 ,16.93331 
250 ,46.3447 ,0.95744 ,1.71209 ,16.79899 
251 ,46.5211 ,0.95920 ,1.69155 ,16.59752 
252 ,46.7133 ,0.96113 ,1.68813 ,16.56395 
253 ,46.8890 ,0.96292 ,1.68129 ,16.49679 
254 ,47.0653 ,0.96461 ,1.66418 ,16.32890 
255 ,47.2414 ,0.96639 ,1.65049 ,16.19458 
256 ,47.4495 ,0.96847 ,1.64364 ,16.12743 
257 ,47.6255 ,0.97021 ,1.62653 ,15.95954 
258 ,47.8017 ,0.97200 ,1.60942 ,15.79164 
259 ,47.9777 ,0.97372 ,1.59231 ,15.62375 
260 ,48.1538 ,0.97557 ,1.57520 ,15.45586 
261 ,48.3458 ,0.97739 ,1.57862 ,15.48944 
262 ,48.5219 ,0.97917 ,1.55467 ,15.25439 
263 ,48.7138 ,0.98108 ,1.54440 ,15.15366 
264 ,48.8901 ,0.98289 ,1.53756 ,15.08650 
265 ,49.0660 ,0.98464 ,1.53071 ,15.01934 
266 ,49.2581 ,0.98655 ,1.50333 ,14.75072 
267 ,49.4661 ,0.98851 ,1.48965 ,14.61640 
268 ,49.6583 ,0.99051 ,1.46227 ,14.34778 
269 ,49.8344 ,0.99233 ,1.45542 ,14.28062 
270 ,50.0266 ,0.99417 ,1.45885 ,14.31420 
271 ,50.2184 ,0.99614 ,1.43147 ,14.04557 
272 ,50.3783 ,0.99786 ,1.42805 ,14.01199 
273 ,50.5548 ,0.99948 ,1.40751 ,13.81053 
274 ,50.7306 ,1.00127 ,1.40409 ,13.77695 
275 ,50.9070 ,1.00309 ,1.40067 ,13.74337 
276 ,51.0831 ,1.00480 ,1.38698 ,13.60906 
277 ,51.2591 ,1.00656 ,1.35960 ,13.34043 
278 ,51.4348 ,1.00829 ,1.34934 ,13.23969 
279 ,51.6113 ,1.01012 ,1.33565 ,13.10538 
280 ,51.8192 ,1.01207 ,1.33907 ,13.13896 
281 ,51.9954 ,1.01389 ,1.31169 ,12.87033 
282 ,52.1714 ,1.01567 ,1.31169 ,12.87033 
283 ,52.3475 ,1.01748 ,1.29458 ,12.70244 
284 ,52.5231 ,1.01930 ,1.26720 ,12.43381 
285 ,52.6998 ,1.02095 ,1.28089 ,12.56813 
286 ,52.9079 ,1.02294 ,1.25694 ,12.33308 
287 ,53.0999 ,1.02498 ,1.24325 ,12.19877 
288 ,53.2919 ,1.02683 ,1.23298 ,12.09803 
289 ,53.4838 ,1.02882 ,1.22956 ,12.06445 
290 ,53.6600 ,1.03056 ,1.21245 ,11.89656 
291 ,53.8360 ,1.03230 ,1.19876 ,11.76225 
292 ,54.0282 ,1.03425 ,1.18850 ,11.66151 
293 ,54.2044 ,1.03602 ,1.18507 ,11.62794 
294 ,54.3804 ,1.03777 ,1.17481 ,11.52720 
295 ,54.5881 ,1.03972 ,1.14058 ,11.19142 
296 ,54.7645 ,1.04161 ,1.14401 ,11.22500 
297 ,54.9724 ,1.04362 ,1.11321 ,10.92279 
298 ,55.1486 ,1.04539 ,1.10294 ,10.82206 
299 ,55.3247 ,1.04718 ,1.10979 ,10.88921 
300 ,55.5328 ,1.04924 ,1.05845 ,10.38554 
301 ,55.7089 ,1.05101 ,1.07214 ,10.51985 
302 ,55.8849 ,1.05276 ,1.06872 ,10.48627 
303 ,56.0929 ,1.05482 ,1.03792 ,10.18407 
304 ,56.2691 ,1.05664 ,1.02423 ,10.04976 
305 ,56.4452 ,1.05842 ,1.02423 ,10.04976 
306 ,56.6532 ,1.06040 ,1.01054 ,9.91544 
307 ,56.8294 ,1.06224 ,0.99343 ,9.74755 
308 ,57.0374 ,1.06422 ,0.98317 ,9.64682 
309 ,57.2134 ,1.06611 ,0.97290 ,9.54608 
310 ,57.3895 ,1.06797 ,0.96948 ,9.51250 
311 ,57.5656 ,1.06958 ,0.95579 ,9.37819 
312 ,57.7575 ,1.07148 ,0.95921 ,9.41177 
313 ,57.9338 ,1.07330 ,0.94552 ,9.27745 
314 ,58.1254 ,1.07518 ,0.91130 ,8.94167 
315 ,58.3180 ,1.07705 ,0.91814 ,9.00883 
316 ,58.5101 ,1.07891 ,0.89761 ,8.80736 
317 ,58.7023 ,1.08100 ,0.88050 ,8.63947 
318 ,58.8941 ,1.08279 ,0.85997 ,8.43800 
319 ,59.0703 ,1.08463 ,0.84970 ,8.33726 
320 ,59.2463 ,1.08643 ,0.82575 ,8.10221 
321 ,59.4384 ,1.08830 ,0.85312 ,8.37084 
322 ,59.6304 ,1.09015 ,0.81548 ,8.00148 
323 ,59.8225 ,1.09219 ,0.82232 ,8.06864 
324 ,59.9985 ,1.09394 ,0.80863 ,7.93432 
325 ,60.1906 ,1.09586 ,0.78126 ,7.66570 
326 ,60.3667 ,1.09760 ,0.77441 ,7.59854 
327 ,60.5589 ,1.09954 ,0.79152 ,7.76643 
328 ,60.7348 ,1.10126 ,0.76415 ,7.49780 
329 ,60.9109 ,1.10306 ,0.73335 ,7.19560 
330 ,61.0869 ,1.10483 ,0.72650 ,7.12844 
331 ,61.4231 ,1.10812 ,0.72650 ,7.12844 
332 ,61.6148 ,1.11018 ,0.69570 ,6.82624 
333 ,61.7913 ,1.11185 ,0.68886 ,6.75908 
334 ,61.9834 ,1.11376 ,0.67859 ,6.65835 
335 ,62.1754 ,1.11564 ,0.67517 ,6.62477 
336 ,62.3835 ,1.11771 ,0.67175 ,6.59119 
337 ,62.5596 ,1.11951 ,0.66148 ,6.49046 
338 ,62.7677 ,1.12153 ,0.62726 ,6.15467 
339 ,62.9439 ,1.12337 ,0.62384 ,6.12109 
340 ,63.1356 ,1.12526 ,0.61699 ,6.05394 
341 ,63.3118 ,1.12706 ,0.60330 ,5.91962 
342 ,63.4879 ,1.12880 ,0.58962 ,5.78531 
343 ,63.6639 ,1.13058 ,0.56566 ,5.55026 
344 ,63.8400 ,1.13232 ,0.56566 ,5.55026 
345 ,64.0161 ,1.13411 ,0.57593 ,5.65100 
346 ,64.2241 ,1.13608 ,0.54513 ,5.34879 
347 ,64.4163 ,1.13799 ,0.54513 ,5.34879 
348 ,64.6086 ,1.13994 ,0.51433 ,5.04659 
349 ,64.7843 ,1.14176 ,0.50406 ,4.94585 
350 ,64.9926 ,1.14379 ,0.50406 ,4.94585 
351 ,65.1683 ,1.14558 ,0.48011 ,4.71081 
352 ,65.3446 ,1.14737 ,0.48695 ,4.77796 
353 ,65.5209 ,1.14915 ,0.48011 ,4.71081 
354 ,65.6968 ,1.15093 ,0.47326 ,4.64365 
355 ,65.8886 ,1.15281 ,0.45957 ,4.50934 
356 ,66.0647 ,1.15452 ,0.43904 ,4.30787 
357 ,66.2247 ,1.15625 ,0.43562 ,4.27429 
358 ,66.4170 ,1.15801 ,0.44246 ,4.34144 
359 ,66.6094 ,1.15995 ,0.40482 ,3.97208 
360 ,66.7854 ,1.16177 ,0.39113 ,3.83777 
361 ,66.9935 ,1.16379 ,0.38771 ,3.80419 
362 ,67.1853 ,1.16567 ,0.37402 ,3.66988 
363 ,67.3615 ,1.16749 ,0.36375 ,3.56914 
364 ,67.5376 ,1.16931 ,0.36718 ,3.60272 
365 ,67.7134 ,1.17102 ,0.35691 ,3.50199 
366 ,67.8898 ,1.17279 ,0.33295 ,3.26694 
367 ,68.0659 ,1.17460 ,0.31584 ,3.09905 
368 ,68.2419 ,1.17632 ,0.30900 ,3.03189 
369 ,68.4015 ,1.17803 ,0.31926 ,3.13263 
370 ,68.5620 ,1.17963 ,0.30558 ,2.99831 
371 ,68.7378 ,1.18131 ,0.30215 ,2.96473 
372 ,68.9141 ,1.18303 ,0.29189 ,2.86400 
373 ,69.0904 ,1.18479 ,0.26451 ,2.59537 
374 ,69.2662 ,1.18657 ,0.25082 ,2.46106 
375 ,69.4580 ,1.18849 ,0.25767 ,2.52822 
376 ,69.6343 ,1.19025 ,0.26109 ,2.56179 
377 ,69.8265 ,1.19216 ,0.22687 ,2.22601 
378 ,70.0186 ,1.19407 ,0.23713 ,2.32675 
379 ,70.2107 ,1.19600 ,0.21660 ,2.12528 
380 ,70.3868 ,1.19775 ,0.19949 ,1.95738 
381 ,70.5789 ,1.19963 ,0.19607 ,1.92381 
382 ,70.7549 ,1.20142 ,0.18580 ,1.82307 
383 ,70.9311 ,1.20320 ,0.16869 ,1.65518 
384 ,71.1071 ,1.20499 ,0.17553 ,1.72234 
385 ,71.2831 ,1.20674 ,0.14473 ,1.42013 
386 ,71.4593 ,1.20850 ,0.15158 ,1.48729 
387 ,71.6352 ,1.21024 ,0.14473 ,1.42013 
388 ,71.8115 ,1.21200 ,0.12762 ,1.25224 
389 ,72.0193 ,1.21404 ,0.11393 ,1.11793 
390 ,72.2115 ,1.21597 ,0.10025 ,0.98361 
391 ,72.4039 ,1.21793 ,0.08656 ,0.84930 
392 ,72.5956 ,1.21984 ,0.08656 ,0.84930 
393 ,72.7879 ,1.22171 ,0.07629 ,0.74857 
394 ,72.9957 ,1.22378 ,0.06945 ,0.68141 
395 ,73.1717 ,1.22562 ,0.07629 ,0.74857 
396 ,73.3482 ,1.22742 ,0.03865 ,0.37920 
397 ,73.5561 ,1.22938 ,0.04207 ,0.41278 
398 ,73.7319 ,1.23118 ,0.02496 ,0.24489 
399 ,73.9080 ,1.23295 ,0.01469 ,0.14416 
400 ,74.0843 ,1.23468 ,0.00100 ,0.00984 
401 ,74.2604 ,1.23652 ,-0.01953 ,-0.19163 
402 ,74.4525 ,1.23841 ,-0.00926 ,-0.09089 
403 ,74.6285 ,1.24021 ,-0.01269 ,-0.12447 
404 ,74.8204 ,1.24211 ,-0.02637 ,-0.25878 
405 ,75.0124 ,1.24392 ,-0.03322 ,-0.32594 
406 ,75.1888 ,1.24579 ,-0.06060 ,-0.59457 
407 ,75.3807 ,1.24770 ,-0.07771 ,-0.76246 
408 ,75.5569 ,1.24940 ,-0.07771 ,-0.76246 
409 ,75.7330 ,1.25124 ,-0.08455 ,-0.82961 
410 ,75.9092 ,1.25296 ,-0.09482 ,-0.93035 
411 ,76.1014 ,1.25493 ,-0.11535 ,-1.13182 
412 ,76.3252 ,1.25707 ,-0.12562 ,-1.23255 
413 ,76.5174 ,1.25898 ,-0.13246 ,-1.29971 
414 ,76.7094 ,1.26092 ,-0.12904 ,-1.26613 
415 ,76.8852 ,1.26271 ,-0.15299 ,-1.50118 
416 ,77.0616 ,1.26459 ,-0.14273 ,-1.40045 
417 ,77.2536 ,1.26638 ,-0.15642 ,-1.53476 
418 ,77.4297 ,1.26819 ,-0.17353 ,-1.70265 
419 ,77.6057 ,1.26997 ,-0.19064 ,-1.87054 
420 ,77.7818 ,1.27167 ,-0.19406 ,-1.90412 
421 ,77.9735 ,1.27360 ,-0.18379 ,-1.80338 
422 ,78.1499 ,1.27538 ,-0.19064 ,-1.87054 
423 ,78.3420 ,1.27730 ,-0.21459 ,-2.10559 
424 ,78.5179 ,1.27903 ,-0.22828 ,-2.23990 
425 ,78.7103 ,1.28097 ,-0.22828 ,-2.23990 
426 ,78.8862 ,1.28275 ,-0.24881 ,-2.44137 
427 ,79.0784 ,1.28463 ,-0.25224 ,-2.47495 
428 ,79.2543 ,1.28637 ,-0.25908 ,-2.54211 
429 ,79.4625 ,1.28844 ,-0.27619 ,-2.71000 
430 ,79.6385 ,1.29024 ,-0.28988 ,-2.84431 
431 ,79.8306 ,1.29214 ,-0.27961 ,-2.74358 
432 ,80.0068 ,1.29390 ,-0.30015 ,-2.94505 
433 ,80.1827 ,1.29567 ,-0.31384 ,-3.07936 
434 ,80.3748 ,1.29757 ,-0.30699 ,-3.01220 
435 ,80.5511 ,1.29934 ,-0.31726 ,-3.11294 
436 ,80.7272 ,1.30116 ,-0.32752 ,-3.21367 
437 ,80.9190 ,1.30307 ,-0.35148 ,-3.44872 
438 ,81.0952 ,1.30482 ,-0.36175 ,-3.54946 
439 ,81.2874 ,1.30664 ,-0.36517 ,-3.58303 
440 ,81.4794 ,1.30865 ,-0.38570 ,-3.78450 
441 ,81.6875 ,1.31055 ,-0.39597 ,-3.88524 
442 ,81.8636 ,1.31247 ,-0.38912 ,-3.81808 
443 ,82.0556 ,1.31432 ,-0.40281 ,-3.95240 
444 ,82.2313 ,1.31613 ,-0.38570 ,-3.78450 
445 ,82.4080 ,1.31792 ,-0.42335 ,-4.15387 
446 ,82.5998 ,1.31985 ,-0.44730 ,-4.38891 
447 ,82.7757 ,1.32160 ,-0.43703 ,-4.28818 
448 ,82.9680 ,1.32353 ,-0.43019 ,-4.22102 
449 ,83.1439 ,1.32527 ,-0.45414 ,-4.45607 
450 ,83.3201 ,1.32700 ,-0.47126 ,-4.62396 
451 ,83.4963 ,1.32882 ,-0.47468 ,-4.65754 
452 ,83.6882 ,1.33066 ,-0.47126 ,-4.62396 
453 ,83.8642 ,1.33248 ,-0.49179 ,-4.82543 
454 ,84.0402 ,1.33425 ,-0.50548 ,-4.95975 
455 ,84.2162 ,1.33597 ,-0.50206 ,-4.92617 
456 ,84.3926 ,1.33773 ,-0.51574 ,-5.06048 
457 ,84.5687 ,1.33955 ,-0.50890 ,-4.99332 
458 ,84.7447 ,1.34129 ,-0.52259 ,-5.12764 
459 ,84.9209 ,1.34305 ,-0.54997 ,-5.39626 
460 ,85.0967 ,1.34481 ,-0.54997 ,-5.39626 
461 ,85.2890 ,1.34672 ,-0.54312 ,-5.32911 
462 ,85.4649 ,1.34846 ,-0.54654 ,-5.36268 
463 ,85.6571 ,1.35031 ,-0.57734 ,-5.66489 
464 ,85.8332 ,1.35217 ,-0.58077 ,-5.69847 
