Data stamp = , 07-04-2022 10:01:42 298

Calibration Values: 
Slope = , 26.54 , g/V 
Offset Voltage at no contact = , -0.501760 , V 

No , Time , Stage Position ,   Mass , Force 
   ,  (s) ,      (mm)      ,   (g)  , (mN)  

1 ,0.0000 ,0.49945 ,5.20954 ,51.11602 
2 ,0.2159 ,0.49952 ,5.21296 ,51.14960 
3 ,0.5364 ,0.50039 ,5.20612 ,51.08244 
4 ,0.7444 ,0.50187 ,5.23692 ,51.38464 
5 ,0.9204 ,0.50347 ,5.21296 ,51.14960 
6 ,1.1128 ,0.50529 ,5.20954 ,51.11602 
7 ,1.3046 ,0.50726 ,5.21296 ,51.14960 
8 ,1.4807 ,0.50898 ,5.21639 ,51.18317 
9 ,1.6727 ,0.51092 ,5.20612 ,51.08244 
10 ,1.8487 ,0.51272 ,5.20612 ,51.08244 
11 ,2.0406 ,0.51459 ,5.16163 ,50.64592 
12 ,2.2169 ,0.51641 ,5.14794 ,50.51161 
13 ,2.4092 ,0.51834 ,5.14452 ,50.47803 
14 ,2.5851 ,0.52009 ,5.13768 ,50.41087 
15 ,2.7773 ,0.52194 ,5.10688 ,50.10867 
16 ,2.9693 ,0.52383 ,5.08977 ,49.94078 
17 ,3.1454 ,0.52578 ,5.06581 ,49.70573 
18 ,3.3222 ,0.52743 ,5.04528 ,49.50426 
19 ,3.5136 ,0.52937 ,5.04528 ,49.50426 
20 ,3.6893 ,0.53116 ,5.04185 ,49.47068 
21 ,3.8658 ,0.53287 ,5.00763 ,49.13490 
22 ,4.0418 ,0.53459 ,4.97683 ,48.83269 
23 ,4.2336 ,0.53663 ,4.98368 ,48.89985 
24 ,4.4099 ,0.53832 ,4.96315 ,48.69838 
25 ,4.6021 ,0.54014 ,4.92550 ,48.32902 
26 ,4.8102 ,0.54218 ,4.93577 ,48.42975 
27 ,5.0182 ,0.54434 ,4.90497 ,48.12755 
28 ,5.1943 ,0.54619 ,4.87759 ,47.85892 
29 ,5.3864 ,0.54801 ,4.86048 ,47.69103 
30 ,5.5945 ,0.55011 ,4.84679 ,47.55672 
31 ,5.7705 ,0.55195 ,4.84337 ,47.52314 
32 ,5.9464 ,0.55373 ,4.79204 ,47.01946 
33 ,6.1227 ,0.55543 ,4.78861 ,46.98589 
34 ,6.3466 ,0.55753 ,4.77150 ,46.81800 
35 ,6.5549 ,0.55963 ,4.76808 ,46.78442 
36 ,6.7469 ,0.56167 ,4.75439 ,46.65010 
37 ,6.9390 ,0.56358 ,4.73044 ,46.41506 
38 ,7.1311 ,0.56547 ,4.72017 ,46.31432 
39 ,7.3072 ,0.56722 ,4.68937 ,46.01212 
40 ,7.4832 ,0.56904 ,4.66884 ,45.81065 
41 ,7.6752 ,0.57094 ,4.66884 ,45.81065 
42 ,7.8675 ,0.57278 ,4.65515 ,45.67633 
43 ,8.0596 ,0.57486 ,4.62435 ,45.37413 
44 ,8.2677 ,0.57673 ,4.61066 ,45.23981 
45 ,8.4434 ,0.57866 ,4.58328 ,44.97119 
46 ,8.6198 ,0.58037 ,4.57986 ,44.93761 
47 ,8.8117 ,0.58234 ,4.56960 ,44.83688 
48 ,8.9879 ,0.58406 ,4.56617 ,44.80330 
49 ,9.1798 ,0.58597 ,4.52511 ,44.40036 
50 ,9.3559 ,0.58779 ,4.53195 ,44.46751 
51 ,9.5316 ,0.58951 ,4.51484 ,44.29962 
52 ,9.7082 ,0.59124 ,4.48404 ,43.99742 
53 ,9.9003 ,0.59315 ,4.47378 ,43.89668 
54 ,10.0920 ,0.59512 ,4.46009 ,43.76237 
55 ,10.2520 ,0.59684 ,4.44982 ,43.66163 
56 ,10.4284 ,0.59844 ,4.42929 ,43.46016 
57 ,10.6045 ,0.60024 ,4.39507 ,43.12438 
58 ,10.7806 ,0.60199 ,4.39164 ,43.09080 
59 ,10.9727 ,0.60391 ,4.39849 ,43.15796 
60 ,11.1649 ,0.60572 ,4.36769 ,42.85576 
61 ,11.3407 ,0.60763 ,4.35058 ,42.68786 
62 ,11.5168 ,0.60936 ,4.34031 ,42.58713 
63 ,11.6926 ,0.61112 ,4.33004 ,42.48639 
64 ,11.8689 ,0.61289 ,4.29924 ,42.18419 
65 ,12.0452 ,0.61461 ,4.27187 ,41.91556 
66 ,12.2211 ,0.61641 ,4.26502 ,41.84841 
67 ,12.4132 ,0.61824 ,4.26502 ,41.84841 
68 ,12.6054 ,0.62018 ,4.25476 ,41.74767 
69 ,12.7974 ,0.62211 ,4.24449 ,41.64694 
70 ,12.9894 ,0.62401 ,4.21027 ,41.31115 
71 ,13.1493 ,0.62580 ,4.18289 ,41.04253 
72 ,13.3256 ,0.62742 ,4.17947 ,41.00895 
73 ,13.5018 ,0.62918 ,4.17262 ,40.94179 
74 ,13.6938 ,0.63111 ,4.15551 ,40.77390 
75 ,13.8536 ,0.63283 ,4.14525 ,40.67317 
76 ,14.0298 ,0.63447 ,4.13840 ,40.60601 
77 ,14.2060 ,0.63625 ,4.10076 ,40.23665 
78 ,14.3820 ,0.63803 ,4.08365 ,40.06876 
79 ,14.5581 ,0.63971 ,4.10076 ,40.23665 
80 ,14.7342 ,0.64153 ,4.07680 ,40.00160 
81 ,14.8943 ,0.64322 ,4.06654 ,39.90087 
82 ,15.0704 ,0.64484 ,4.03916 ,39.63224 
83 ,15.2624 ,0.64678 ,4.03916 ,39.63224 
84 ,15.4383 ,0.64860 ,4.00494 ,39.29646 
85 ,15.6305 ,0.65052 ,3.98783 ,39.12856 
86 ,15.8067 ,0.65224 ,3.98098 ,39.06141 
87 ,16.0148 ,0.65427 ,3.98441 ,39.09499 
88 ,16.2068 ,0.65622 ,3.94334 ,38.69205 
89 ,16.3828 ,0.65798 ,3.94334 ,38.69205 
90 ,16.5586 ,0.65972 ,3.92965 ,38.55773 
91 ,16.7350 ,0.66151 ,3.91938 ,38.45700 
92 ,16.9111 ,0.66328 ,3.88516 ,38.12122 
93 ,17.0871 ,0.66511 ,3.88174 ,38.08764 
94 ,17.2632 ,0.66682 ,3.86805 ,37.95332 
95 ,17.4392 ,0.66855 ,3.85094 ,37.78543 
96 ,17.6470 ,0.67058 ,3.82699 ,37.55038 
97 ,17.8231 ,0.67236 ,3.83383 ,37.61754 
98 ,17.9831 ,0.67411 ,3.82014 ,37.48323 
99 ,18.1593 ,0.67572 ,3.79619 ,37.24818 
100 ,18.3351 ,0.67753 ,3.79276 ,37.21460 
101 ,18.5278 ,0.67941 ,3.76196 ,36.91240 
102 ,18.7356 ,0.68147 ,3.74143 ,36.71093 
103 ,18.9278 ,0.68339 ,3.72432 ,36.54303 
104 ,19.1035 ,0.68515 ,3.71405 ,36.44230 
105 ,19.2798 ,0.68696 ,3.71405 ,36.44230 
106 ,19.4561 ,0.68872 ,3.70037 ,36.30799 
107 ,19.6641 ,0.69066 ,3.66957 ,36.00578 
108 ,19.8402 ,0.69251 ,3.67299 ,36.03936 
109 ,20.0483 ,0.69455 ,3.64219 ,35.73716 
110 ,20.2243 ,0.69636 ,3.62508 ,35.56926 
111 ,20.4005 ,0.69813 ,3.62508 ,35.56926 
112 ,20.5765 ,0.69990 ,3.60454 ,35.36779 
113 ,20.7525 ,0.70162 ,3.58059 ,35.13275 
114 ,20.9447 ,0.70347 ,3.56348 ,34.96485 
115 ,21.1526 ,0.70559 ,3.53268 ,34.66265 
116 ,21.3603 ,0.70766 ,3.54637 ,34.79696 
117 ,21.5528 ,0.70961 ,3.52241 ,34.56192 
118 ,21.7290 ,0.71145 ,3.49846 ,34.32687 
119 ,21.9369 ,0.71339 ,3.47792 ,34.12540 
120 ,22.1132 ,0.71530 ,3.48135 ,34.15898 
121 ,22.2888 ,0.71709 ,3.47450 ,34.09182 
122 ,22.4653 ,0.71879 ,3.46081 ,33.95751 
123 ,22.6574 ,0.72064 ,3.43001 ,33.65530 
124 ,22.8494 ,0.72257 ,3.41633 ,33.52099 
125 ,23.0255 ,0.72441 ,3.40948 ,33.45383 
126 ,23.2015 ,0.72617 ,3.41633 ,33.52099 
127 ,23.3775 ,0.72787 ,3.37868 ,33.15163 
128 ,23.5537 ,0.72968 ,3.35815 ,32.95016 
129 ,23.7298 ,0.73142 ,3.35815 ,32.95016 
130 ,23.9219 ,0.73327 ,3.34788 ,32.84942 
131 ,24.1299 ,0.73526 ,3.31708 ,32.54722 
132 ,24.3219 ,0.73741 ,3.32051 ,32.58080 
133 ,24.5301 ,0.73935 ,3.29997 ,32.37933 
134 ,24.7222 ,0.74136 ,3.29655 ,32.34575 
135 ,24.9142 ,0.74328 ,3.25548 ,31.94281 
136 ,25.0903 ,0.74499 ,3.25206 ,31.90923 
137 ,25.2664 ,0.74676 ,3.24522 ,31.84207 
138 ,25.4581 ,0.74866 ,3.22811 ,31.67418 
139 ,25.6346 ,0.75048 ,3.21442 ,31.53987 
140 ,25.8266 ,0.75240 ,3.19046 ,31.30482 
141 ,26.0347 ,0.75442 ,3.18704 ,31.27124 
142 ,26.2107 ,0.75618 ,3.15624 ,30.96904 
143 ,26.3863 ,0.75797 ,3.15282 ,30.93546 
144 ,26.5623 ,0.75975 ,3.14597 ,30.86830 
145 ,26.7225 ,0.76149 ,3.13229 ,30.73399 
146 ,26.8992 ,0.76310 ,3.11175 ,30.53252 
147 ,27.0911 ,0.76503 ,3.10833 ,30.49894 
148 ,27.2671 ,0.76678 ,3.08095 ,30.23031 
149 ,27.6672 ,0.76966 ,3.08780 ,30.29747 
150 ,27.8430 ,0.77252 ,3.06042 ,30.02884 
151 ,28.0195 ,0.77431 ,3.02962 ,29.72664 
152 ,28.1954 ,0.77609 ,3.01251 ,29.55875 
153 ,28.3716 ,0.77788 ,3.00224 ,29.45801 
154 ,28.5635 ,0.77976 ,2.98855 ,29.32370 
155 ,28.7397 ,0.78147 ,2.97487 ,29.18939 
156 ,28.9158 ,0.78326 ,2.95091 ,28.95434 
157 ,29.0918 ,0.78501 ,2.94407 ,28.88718 
158 ,29.2841 ,0.78698 ,2.95091 ,28.95434 
159 ,29.4760 ,0.78879 ,2.90985 ,28.55140 
160 ,29.6521 ,0.79068 ,2.91327 ,28.58498 
161 ,29.8442 ,0.79252 ,2.90300 ,28.48424 
162 ,30.0200 ,0.79427 ,2.88247 ,28.28277 
163 ,30.2123 ,0.79619 ,2.86193 ,28.08130 
164 ,30.3883 ,0.79797 ,2.86193 ,28.08130 
165 ,30.5805 ,0.79980 ,2.85509 ,28.01415 
166 ,30.7723 ,0.80185 ,2.82087 ,27.67836 
167 ,30.9487 ,0.80362 ,2.80718 ,27.54405 
168 ,31.1567 ,0.80561 ,2.80034 ,27.47689 
169 ,31.3168 ,0.80735 ,2.79349 ,27.40974 
170 ,31.4929 ,0.80900 ,2.77638 ,27.24185 
171 ,31.6850 ,0.81091 ,2.76269 ,27.10753 
172 ,31.8607 ,0.81278 ,2.73874 ,26.87248 
173 ,32.0532 ,0.81458 ,2.72163 ,26.70459 
174 ,32.2291 ,0.81639 ,2.71478 ,26.63744 
175 ,32.4056 ,0.81817 ,2.71820 ,26.67101 
176 ,32.5974 ,0.82001 ,2.68056 ,26.30165 
177 ,32.7735 ,0.82184 ,2.67029 ,26.20092 
178 ,32.9655 ,0.82383 ,2.66003 ,26.10018 
179 ,33.1417 ,0.82549 ,2.66687 ,26.16734 
180 ,33.3176 ,0.82728 ,2.62581 ,25.76440 
181 ,33.4936 ,0.82904 ,2.60527 ,25.56293 
182 ,33.6855 ,0.83100 ,2.62238 ,25.73082 
183 ,33.8618 ,0.83270 ,2.60527 ,25.56293 
184 ,34.0377 ,0.83442 ,2.59158 ,25.42862 
185 ,34.2141 ,0.83626 ,2.57789 ,25.29430 
186 ,34.3901 ,0.83801 ,2.56421 ,25.15999 
187 ,34.5822 ,0.83995 ,2.54710 ,24.99210 
188 ,34.7743 ,0.84181 ,2.54025 ,24.92494 
189 ,34.9503 ,0.84359 ,2.52656 ,24.79063 
190 ,35.1584 ,0.84560 ,2.50261 ,24.55558 
191 ,35.3344 ,0.84745 ,2.49234 ,24.45485 
192 ,35.5106 ,0.84917 ,2.48207 ,24.35411 
193 ,35.6866 ,0.85098 ,2.48207 ,24.35411 
194 ,35.8786 ,0.85279 ,2.44785 ,24.01833 
195 ,36.0547 ,0.85465 ,2.44785 ,24.01833 
196 ,36.2469 ,0.85652 ,2.43416 ,23.88402 
197 ,36.4550 ,0.85857 ,2.41705 ,23.71612 
198 ,36.6469 ,0.86053 ,2.41363 ,23.68255 
199 ,36.8231 ,0.86230 ,2.37599 ,23.31318 
200 ,36.9993 ,0.86407 ,2.35888 ,23.14529 
201 ,37.1912 ,0.86598 ,2.36572 ,23.21245 
202 ,37.3673 ,0.86774 ,2.34861 ,23.04456 
203 ,37.5435 ,0.86955 ,2.33150 ,22.87667 
204 ,37.7353 ,0.87140 ,2.31781 ,22.74235 
205 ,37.9274 ,0.87334 ,2.30412 ,22.60804 
206 ,38.1194 ,0.87520 ,2.28359 ,22.40657 
207 ,38.2797 ,0.87697 ,2.26990 ,22.27226 
208 ,38.4556 ,0.87864 ,2.26306 ,22.20510 
209 ,38.6478 ,0.88055 ,2.24937 ,22.07079 
210 ,38.8239 ,0.88232 ,2.24252 ,22.00363 
211 ,39.0160 ,0.88412 ,2.21172 ,21.70143 
212 ,39.2081 ,0.88618 ,2.22883 ,21.86932 
213 ,39.3841 ,0.88793 ,2.19803 ,21.56711 
214 ,39.5601 ,0.88965 ,2.16723 ,21.26491 
215 ,39.7363 ,0.89146 ,2.17750 ,21.36564 
216 ,39.9123 ,0.89320 ,2.16381 ,21.23133 
217 ,40.1045 ,0.89504 ,2.14670 ,21.06344 
218 ,40.2802 ,0.89692 ,2.12617 ,20.86197 
219 ,40.4564 ,0.89861 ,2.11932 ,20.79481 
220 ,40.6486 ,0.90057 ,2.11248 ,20.72766 
221 ,40.8245 ,0.90234 ,2.09537 ,20.55976 
222 ,41.0007 ,0.90406 ,2.07141 ,20.32472 
223 ,41.1929 ,0.90586 ,2.08168 ,20.42545 
224 ,41.4008 ,0.90800 ,2.06457 ,20.25756 
225 ,41.5770 ,0.90984 ,2.04404 ,20.05609 
226 ,41.7531 ,0.91158 ,2.03719 ,19.98893 
227 ,41.9452 ,0.91351 ,2.01324 ,19.75388 
228 ,42.1213 ,0.91524 ,1.99613 ,19.58599 
229 ,42.2975 ,0.91704 ,1.98586 ,19.48526 
230 ,42.5050 ,0.91909 ,1.97559 ,19.38452 
231 ,42.6815 ,0.92085 ,1.96190 ,19.25021 
232 ,42.8734 ,0.92271 ,1.95848 ,19.21663 
233 ,43.0497 ,0.92459 ,1.96533 ,19.28379 
234 ,43.2417 ,0.92642 ,1.92084 ,18.84727 
235 ,43.4179 ,0.92826 ,1.92084 ,18.84727 
236 ,43.6097 ,0.93007 ,1.90373 ,18.67938 
237 ,43.7859 ,0.93190 ,1.89004 ,18.54507 
238 ,43.9621 ,0.93367 ,1.87293 ,18.37717 
239 ,44.1701 ,0.93568 ,1.85924 ,18.24286 
240 ,44.3457 ,0.93750 ,1.85924 ,18.24286 
241 ,44.5222 ,0.93931 ,1.84213 ,18.07497 
242 ,44.7144 ,0.94122 ,1.83186 ,17.97423 
243 ,44.9064 ,0.94316 ,1.80106 ,17.67203 
244 ,45.0823 ,0.94489 ,1.79422 ,17.60487 
245 ,45.2586 ,0.94668 ,1.79080 ,17.57129 
246 ,45.4346 ,0.94839 ,1.78053 ,17.47056 
247 ,45.6108 ,0.95018 ,1.77369 ,17.40340 
248 ,45.8029 ,0.95203 ,1.74973 ,17.16836 
249 ,45.9949 ,0.95400 ,1.74289 ,17.10120 
250 ,46.1709 ,0.95579 ,1.71893 ,16.86615 
251 ,46.3468 ,0.95748 ,1.69840 ,16.66468 
252 ,46.5391 ,0.95944 ,1.70182 ,16.69826 
253 ,46.7149 ,0.96121 ,1.70524 ,16.73184 
254 ,46.8909 ,0.96299 ,1.67444 ,16.42963 
255 ,47.0674 ,0.96471 ,1.65733 ,16.26174 
256 ,47.2594 ,0.96664 ,1.64022 ,16.09385 
257 ,47.4355 ,0.96841 ,1.63338 ,16.02669 
258 ,47.6115 ,0.97013 ,1.62653 ,15.95954 
259 ,47.7873 ,0.97191 ,1.59573 ,15.65733 
260 ,47.9638 ,0.97366 ,1.58547 ,15.55660 
261 ,48.1400 ,0.97543 ,1.58204 ,15.52302 
262 ,48.3159 ,0.97723 ,1.58204 ,15.52302 
263 ,48.4919 ,0.97907 ,1.54782 ,15.18724 
264 ,48.6840 ,0.98085 ,1.55124 ,15.22081 
265 ,48.8598 ,0.98263 ,1.54782 ,15.18724 
266 ,49.0361 ,0.98452 ,1.52045 ,14.91861 
267 ,49.2123 ,0.98621 ,1.52045 ,14.91861 
268 ,49.4044 ,0.98802 ,1.49991 ,14.71714 
269 ,49.5961 ,0.99006 ,1.49649 ,14.68356 
270 ,49.7726 ,0.99176 ,1.46911 ,14.41493 
271 ,49.9483 ,0.99351 ,1.46569 ,14.38136 
272 ,50.1249 ,0.99529 ,1.45200 ,14.24704 
273 ,50.3168 ,0.99722 ,1.44858 ,14.21346 
274 ,50.4927 ,0.99897 ,1.42805 ,14.01199 
275 ,50.6690 ,1.00074 ,1.41094 ,13.84410 
276 ,50.8609 ,1.00257 ,1.41436 ,13.87768 
277 ,51.0367 ,1.00445 ,1.38356 ,13.57548 
278 ,51.2132 ,1.00619 ,1.38014 ,13.54190 
279 ,51.3891 ,1.00791 ,1.36303 ,13.37401 
280 ,51.5813 ,1.00988 ,1.36303 ,13.37401 
281 ,51.7573 ,1.01162 ,1.35618 ,13.30685 
282 ,51.9334 ,1.01337 ,1.33907 ,13.13896 
283 ,52.1253 ,1.01523 ,1.31512 ,12.90391 
284 ,52.3012 ,1.01702 ,1.30143 ,12.76960 
285 ,52.4776 ,1.01880 ,1.30485 ,12.80318 
286 ,52.6537 ,1.02055 ,1.28774 ,12.63528 
287 ,52.8295 ,1.02230 ,1.26036 ,12.36666 
288 ,53.0061 ,1.02409 ,1.23641 ,12.13161 
289 ,53.1977 ,1.02603 ,1.23983 ,12.16519 
290 ,53.3741 ,1.02777 ,1.22614 ,12.03088 
291 ,53.5501 ,1.02956 ,1.21245 ,11.89656 
292 ,53.7423 ,1.03135 ,1.20903 ,11.86298 
293 ,53.9342 ,1.03331 ,1.18850 ,11.66151 
294 ,54.1104 ,1.03516 ,1.18507 ,11.62794 
295 ,54.2862 ,1.03699 ,1.19534 ,11.72867 
296 ,54.4784 ,1.03879 ,1.17481 ,11.52720 
297 ,54.6705 ,1.04067 ,1.13374 ,11.12426 
298 ,54.8627 ,1.04260 ,1.14401 ,11.22500 
299 ,55.0546 ,1.04448 ,1.12690 ,11.05710 
300 ,55.2307 ,1.04635 ,1.10636 ,10.85563 
301 ,55.4230 ,1.04823 ,1.09952 ,10.78848 
302 ,55.6311 ,1.05014 ,1.08241 ,10.62059 
303 ,55.8073 ,1.05209 ,1.07899 ,10.58701 
304 ,55.9992 ,1.05399 ,1.06872 ,10.48627 
305 ,56.1752 ,1.05588 ,1.04476 ,10.25123 
306 ,56.3510 ,1.05752 ,1.03108 ,10.11691 
307 ,56.5274 ,1.05926 ,1.03108 ,10.11691 
308 ,56.7194 ,1.06117 ,1.02423 ,10.04976 
309 ,56.9274 ,1.06310 ,1.00028 ,9.81471 
310 ,57.1035 ,1.06504 ,1.01396 ,9.94902 
311 ,57.2797 ,1.06677 ,0.98659 ,9.68039 
312 ,57.4554 ,1.06853 ,0.96948 ,9.51250 
313 ,57.6319 ,1.07031 ,0.96263 ,9.44535 
314 ,57.8237 ,1.07227 ,0.95579 ,9.37819 
315 ,58.0001 ,1.07404 ,0.94552 ,9.27745 
316 ,58.1760 ,1.07578 ,0.95237 ,9.34461 
317 ,58.3680 ,1.07766 ,0.91130 ,8.94167 
318 ,58.5761 ,1.07960 ,0.91814 ,9.00883 
319 ,58.7524 ,1.08156 ,0.87708 ,8.60589 
320 ,58.9443 ,1.08340 ,0.89419 ,8.77378 
321 ,59.1526 ,1.08540 ,0.86681 ,8.50515 
322 ,59.3445 ,1.08741 ,0.85997 ,8.43800 
323 ,59.5206 ,1.08917 ,0.85312 ,8.37084 
324 ,59.6968 ,1.09098 ,0.83943 ,8.23653 
325 ,59.8885 ,1.09289 ,0.82575 ,8.10221 
326 ,60.0649 ,1.09465 ,0.81890 ,8.03506 
327 ,60.2569 ,1.09662 ,0.79495 ,7.80001 
328 ,60.4325 ,1.09831 ,0.78810 ,7.73285 
329 ,60.6249 ,1.10025 ,0.77784 ,7.63212 
330 ,60.8173 ,1.10215 ,0.75388 ,7.39707 
331 ,61.0093 ,1.10401 ,0.75730 ,7.43065 
332 ,61.2015 ,1.10601 ,0.75046 ,7.36349 
333 ,61.4096 ,1.10800 ,0.75730 ,7.43065 
334 ,61.5855 ,1.10989 ,0.71966 ,7.06129 
335 ,61.7452 ,1.11155 ,0.71624 ,7.02771 
336 ,61.9217 ,1.11322 ,0.70597 ,6.92697 
337 ,62.1137 ,1.11510 ,0.68886 ,6.75908 
338 ,62.2898 ,1.11687 ,0.68544 ,6.72550 
339 ,62.4819 ,1.11883 ,0.67175 ,6.59119 
340 ,62.6580 ,1.12053 ,0.64779 ,6.35614 
341 ,62.8339 ,1.12232 ,0.64437 ,6.32256 
342 ,63.0097 ,1.12410 ,0.63753 ,6.25541 
343 ,63.1862 ,1.12585 ,0.63410 ,6.22183 
344 ,63.3783 ,1.12773 ,0.61015 ,5.98678 
345 ,63.5703 ,1.12961 ,0.60673 ,5.95320 
346 ,63.7783 ,1.13169 ,0.58619 ,5.75173 
347 ,63.9544 ,1.13348 ,0.56908 ,5.58384 
348 ,64.1626 ,1.13545 ,0.57251 ,5.61742 
349 ,64.3545 ,1.13754 ,0.56224 ,5.51668 
350 ,64.5147 ,1.13923 ,0.54513 ,5.34879 
351 ,64.6907 ,1.14084 ,0.53828 ,5.28164 
352 ,64.8829 ,1.14268 ,0.53486 ,5.24806 
353 ,65.0750 ,1.14466 ,0.50748 ,4.97943 
354 ,65.2830 ,1.14672 ,0.50064 ,4.91228 
355 ,65.4751 ,1.14874 ,0.49380 ,4.84512 
356 ,65.6512 ,1.15052 ,0.48695 ,4.77796 
357 ,65.8272 ,1.15226 ,0.49037 ,4.81154 
358 ,66.0030 ,1.15402 ,0.45957 ,4.50934 
359 ,66.1794 ,1.15577 ,0.44588 ,4.37502 
360 ,66.3875 ,1.15781 ,0.43562 ,4.27429 
361 ,66.5955 ,1.15991 ,0.42535 ,4.17355 
362 ,66.7875 ,1.16185 ,0.42877 ,4.20713 
363 ,66.9637 ,1.16361 ,0.40482 ,3.97208 
364 ,67.1558 ,1.16546 ,0.39797 ,3.90493 
365 ,67.3477 ,1.16752 ,0.37060 ,3.63630 
366 ,67.5239 ,1.16921 ,0.36718 ,3.60272 
367 ,67.7159 ,1.17113 ,0.36375 ,3.56914 
368 ,67.8921 ,1.17282 ,0.35349 ,3.46841 
369 ,68.0680 ,1.17473 ,0.32611 ,3.19978 
370 ,68.2440 ,1.17641 ,0.33980 ,3.33410 
371 ,68.4363 ,1.17830 ,0.32611 ,3.19978 
372 ,68.6279 ,1.18024 ,0.32269 ,3.16620 
373 ,68.8045 ,1.18200 ,0.29531 ,2.89758 
374 ,68.9803 ,1.18375 ,0.28162 ,2.76326 
375 ,69.1563 ,1.18553 ,0.27820 ,2.72969 
376 ,69.3486 ,1.18737 ,0.27478 ,2.69611 
377 ,69.5248 ,1.18922 ,0.26451 ,2.59537 
378 ,69.7327 ,1.19125 ,0.24740 ,2.42748 
379 ,69.9248 ,1.19316 ,0.21318 ,2.09170 
380 ,70.1010 ,1.19496 ,0.22002 ,2.15885 
381 ,70.2929 ,1.19687 ,0.21660 ,2.12528 
382 ,70.4691 ,1.19864 ,0.20291 ,1.99096 
383 ,70.6612 ,1.20060 ,0.17896 ,1.75592 
384 ,70.8532 ,1.20248 ,0.18238 ,1.78949 
385 ,71.0292 ,1.20419 ,0.18238 ,1.78949 
386 ,71.2535 ,1.20632 ,0.16185 ,1.58802 
387 ,71.4294 ,1.20824 ,0.14816 ,1.45371 
388 ,71.6055 ,1.20999 ,0.14131 ,1.38655 
389 ,71.7817 ,1.21178 ,0.12078 ,1.18508 
390 ,71.9738 ,1.21365 ,0.13789 ,1.35298 
391 ,72.1658 ,1.21562 ,0.09682 ,0.95004 
392 ,72.3736 ,1.21761 ,0.11051 ,1.08435 
393 ,72.5660 ,1.21951 ,0.09682 ,0.95004 
394 ,72.7741 ,1.22161 ,0.07629 ,0.74857 
395 ,72.9501 ,1.22349 ,0.07287 ,0.71499 
396 ,73.1262 ,1.22521 ,0.05918 ,0.58067 
397 ,73.3023 ,1.22697 ,0.03865 ,0.37920 
398 ,73.4620 ,1.22868 ,0.02838 ,0.27847 
399 ,73.6383 ,1.23032 ,0.02496 ,0.24489 
400 ,73.8305 ,1.23222 ,0.01127 ,0.11058 
401 ,74.0066 ,1.23403 ,-0.00242 ,-0.02373 
402 ,74.1827 ,1.23580 ,-0.01953 ,-0.19163 
403 ,74.3747 ,1.23770 ,-0.01611 ,-0.15805 
404 ,74.5507 ,1.23946 ,-0.01269 ,-0.12447 
405 ,74.7268 ,1.24118 ,-0.05033 ,-0.49383 
406 ,74.9030 ,1.24295 ,-0.05375 ,-0.52741 
407 ,75.0951 ,1.24488 ,-0.04691 ,-0.46025 
408 ,75.2710 ,1.24672 ,-0.07086 ,-0.69530 
409 ,75.4471 ,1.24837 ,-0.06744 ,-0.66172 
410 ,75.6232 ,1.25019 ,-0.08455 ,-0.82961 
411 ,75.7995 ,1.25198 ,-0.09482 ,-0.93035 
412 ,75.9915 ,1.25378 ,-0.09482 ,-0.93035 
413 ,76.1673 ,1.25561 ,-0.10508 ,-1.03108 
414 ,76.3591 ,1.25745 ,-0.12219 ,-1.19898 
415 ,76.5355 ,1.25927 ,-0.11877 ,-1.16540 
416 ,76.7116 ,1.26108 ,-0.12904 ,-1.26613 
417 ,76.8876 ,1.26281 ,-0.13931 ,-1.36687 
418 ,77.0960 ,1.26477 ,-0.13931 ,-1.36687 
419 ,77.2879 ,1.26681 ,-0.17011 ,-1.66907 
420 ,77.4798 ,1.26873 ,-0.16668 ,-1.63549 
421 ,77.6559 ,1.27046 ,-0.17695 ,-1.73623 
422 ,77.8478 ,1.27232 ,-0.19748 ,-1.93770 
423 ,78.0239 ,1.27415 ,-0.20433 ,-2.00485 
424 ,78.2005 ,1.27594 ,-0.22486 ,-2.20632 
425 ,78.3924 ,1.27782 ,-0.21459 ,-2.10559 
426 ,78.5682 ,1.27968 ,-0.23170 ,-2.27348 
427 ,78.7601 ,1.28140 ,-0.24197 ,-2.37422 
428 ,78.9526 ,1.28335 ,-0.24197 ,-2.37422 
429 ,79.1287 ,1.28519 ,-0.25908 ,-2.54211 
430 ,79.3526 ,1.28728 ,-0.25224 ,-2.47495 
431 ,79.5287 ,1.28919 ,-0.28646 ,-2.81073 
432 ,79.7528 ,1.29125 ,-0.28304 ,-2.77716 
433 ,79.9289 ,1.29316 ,-0.31041 ,-3.04578 
434 ,80.1368 ,1.29523 ,-0.29673 ,-2.91147 
435 ,80.3137 ,1.29698 ,-0.32752 ,-3.21367 
436 ,80.4891 ,1.29881 ,-0.32752 ,-3.21367 
437 ,80.6812 ,1.30064 ,-0.33095 ,-3.24725 
438 ,80.8731 ,1.30260 ,-0.33437 ,-3.28083 
439 ,81.0654 ,1.30451 ,-0.35832 ,-3.51588 
440 ,81.2736 ,1.30652 ,-0.35832 ,-3.51588 
441 ,81.4651 ,1.30855 ,-0.38570 ,-3.78450 
442 ,81.6575 ,1.31046 ,-0.37886 ,-3.71735 
443 ,81.8337 ,1.31235 ,-0.38912 ,-3.81808 
444 ,82.0097 ,1.31394 ,-0.39255 ,-3.85166 
445 ,82.1860 ,1.31576 ,-0.40623 ,-3.98597 
446 ,82.3780 ,1.31759 ,-0.40966 ,-4.01955 
447 ,82.5541 ,1.31945 ,-0.40966 ,-4.01955 
448 ,82.7622 ,1.32142 ,-0.42677 ,-4.18744 
449 ,82.9542 ,1.32345 ,-0.43361 ,-4.25460 
450 ,83.1304 ,1.32524 ,-0.44388 ,-4.35534 
451 ,83.3382 ,1.32725 ,-0.44046 ,-4.32176 
452 ,83.5306 ,1.32916 ,-0.47468 ,-4.65754 
453 ,83.7226 ,1.33104 ,-0.49179 ,-4.82543 
454 ,83.8986 ,1.33291 ,-0.48152 ,-4.72470 
455 ,84.0743 ,1.33463 ,-0.49179 ,-4.82543 
456 ,84.2508 ,1.33645 ,-0.49521 ,-4.85901 
457 ,84.4426 ,1.33834 ,-0.50206 ,-4.92617 
458 ,84.6348 ,1.34024 ,-0.51917 ,-5.09406 
459 ,84.8268 ,1.34207 ,-0.52601 ,-5.16121 
460 ,85.0191 ,1.34410 ,-0.53970 ,-5.29553 
461 ,85.1951 ,1.34581 ,-0.53970 ,-5.29553 
462 ,85.3712 ,1.34761 ,-0.56023 ,-5.49700 
463 ,85.5474 ,1.34936 ,-0.56708 ,-5.56415 
464 ,85.7393 ,1.35124 ,-0.56023 ,-5.49700 
