Data stamp = , 07-04-2022 10:08:36 376

Calibration Values: 
Slope = , 26.54 , g/V 
Offset Voltage at no contact = , -0.501760 , V 

No , Time , Stage Position ,   Mass , Force 
   ,  (s) ,      (mm)      ,   (g)  , (mN)  

1 ,0.0000 ,0.49936 ,5.24718 ,51.48538 
2 ,0.2139 ,0.49945 ,5.26430 ,51.65327 
3 ,0.5183 ,0.50026 ,5.25403 ,51.55254 
4 ,0.7264 ,0.50165 ,5.23692 ,51.38464 
5 ,0.9342 ,0.50343 ,5.24376 ,51.45180 
6 ,1.1265 ,0.50545 ,5.24718 ,51.48538 
7 ,1.3027 ,0.50710 ,5.25745 ,51.58611 
8 ,1.4788 ,0.50891 ,5.25061 ,51.51896 
9 ,1.6705 ,0.51080 ,5.21981 ,51.21675 
10 ,1.8630 ,0.51267 ,5.19927 ,51.01528 
11 ,2.0709 ,0.51477 ,5.18901 ,50.91455 
12 ,2.2469 ,0.51660 ,5.17190 ,50.74666 
13 ,2.4230 ,0.51834 ,5.17190 ,50.74666 
14 ,2.6151 ,0.52019 ,5.15821 ,50.61234 
15 ,2.7908 ,0.52208 ,5.12056 ,50.24298 
16 ,2.9671 ,0.52385 ,5.11030 ,50.14225 
17 ,3.1272 ,0.52552 ,5.11714 ,50.20940 
18 ,3.3034 ,0.52724 ,5.08634 ,49.90720 
19 ,3.4955 ,0.52899 ,5.07608 ,49.80646 
20 ,3.7034 ,0.53105 ,5.04528 ,49.50426 
21 ,3.8795 ,0.53293 ,5.04870 ,49.53784 
22 ,4.0557 ,0.53465 ,5.01790 ,49.23563 
23 ,4.2479 ,0.53664 ,4.98710 ,48.93343 
24 ,4.4236 ,0.53838 ,4.98710 ,48.93343 
25 ,4.5999 ,0.54011 ,4.96999 ,48.76554 
26 ,4.7760 ,0.54185 ,4.95972 ,48.66480 
27 ,4.9521 ,0.54370 ,4.93577 ,48.42975 
28 ,5.1280 ,0.54534 ,4.90839 ,48.16113 
29 ,5.3041 ,0.54711 ,4.90497 ,48.12755 
30 ,5.4959 ,0.54899 ,4.89812 ,48.06039 
31 ,5.6721 ,0.55081 ,4.86048 ,47.69103 
32 ,5.8484 ,0.55265 ,4.86390 ,47.72461 
33 ,6.0244 ,0.55434 ,4.83652 ,47.45598 
34 ,6.2005 ,0.55615 ,4.82968 ,47.38883 
35 ,6.3765 ,0.55785 ,4.80573 ,47.15378 
36 ,6.5528 ,0.55964 ,4.79204 ,47.01946 
37 ,6.7288 ,0.56141 ,4.76808 ,46.78442 
38 ,6.9209 ,0.56332 ,4.76808 ,46.78442 
39 ,7.1127 ,0.56520 ,4.73044 ,46.41506 
40 ,7.2890 ,0.56706 ,4.72017 ,46.31432 
41 ,7.4971 ,0.56900 ,4.70648 ,46.18001 
42 ,7.6733 ,0.57085 ,4.69279 ,46.04569 
43 ,7.8813 ,0.57283 ,4.67911 ,45.91138 
44 ,8.0572 ,0.57470 ,4.67911 ,45.91138 
45 ,8.2335 ,0.57641 ,4.65173 ,45.64275 
46 ,8.4255 ,0.57847 ,4.64146 ,45.54202 
47 ,8.6017 ,0.58012 ,4.62777 ,45.40771 
48 ,8.7777 ,0.58194 ,4.62093 ,45.34055 
49 ,8.9535 ,0.58365 ,4.59697 ,45.10550 
50 ,9.1455 ,0.58551 ,4.57302 ,44.87045 
51 ,9.3216 ,0.58738 ,4.55933 ,44.73614 
52 ,9.4980 ,0.58910 ,4.55933 ,44.73614 
53 ,9.6742 ,0.59088 ,4.54564 ,44.60183 
54 ,9.8661 ,0.59274 ,4.51142 ,44.26604 
55 ,10.0422 ,0.59452 ,4.50115 ,44.16531 
56 ,10.2179 ,0.59639 ,4.48404 ,43.99742 
57 ,10.4104 ,0.59808 ,4.48746 ,44.03100 
58 ,10.5864 ,0.60000 ,4.44982 ,43.66163 
59 ,10.7626 ,0.60172 ,4.44982 ,43.66163 
60 ,10.9545 ,0.60356 ,4.42586 ,43.42659 
61 ,11.1467 ,0.60556 ,4.41218 ,43.29227 
62 ,11.3223 ,0.60738 ,4.39849 ,43.15796 
63 ,11.4989 ,0.60910 ,4.38822 ,43.05723 
64 ,11.7069 ,0.61107 ,4.35400 ,42.72144 
65 ,11.8830 ,0.61293 ,4.35058 ,42.68786 
66 ,12.0750 ,0.61480 ,4.32320 ,42.41924 
67 ,12.2671 ,0.61666 ,4.29924 ,42.18419 
68 ,12.4592 ,0.61869 ,4.30951 ,42.28492 
69 ,12.6352 ,0.62044 ,4.27871 ,41.98272 
70 ,12.8271 ,0.62235 ,4.26502 ,41.84841 
71 ,13.0033 ,0.62408 ,4.26502 ,41.84841 
72 ,13.1954 ,0.62596 ,4.23080 ,41.51262 
73 ,13.3876 ,0.62796 ,4.22053 ,41.41189 
74 ,13.5794 ,0.62982 ,4.21711 ,41.37831 
75 ,13.7557 ,0.63166 ,4.20000 ,41.21042 
76 ,13.9317 ,0.63338 ,4.16920 ,40.90821 
77 ,14.1235 ,0.63526 ,4.16578 ,40.87464 
78 ,14.2999 ,0.63707 ,4.15551 ,40.77390 
79 ,14.4757 ,0.63880 ,4.12129 ,40.43812 
80 ,14.6518 ,0.64061 ,4.11103 ,40.33738 
81 ,14.8440 ,0.64245 ,4.11445 ,40.37096 
82 ,15.0362 ,0.64443 ,4.09049 ,40.13591 
83 ,15.2283 ,0.64641 ,4.07338 ,39.96802 
84 ,15.4364 ,0.64839 ,4.05285 ,39.76655 
85 ,15.6124 ,0.65019 ,4.02889 ,39.53150 
86 ,15.7885 ,0.65196 ,4.02205 ,39.46435 
87 ,15.9644 ,0.65371 ,4.01863 ,39.43077 
88 ,16.1407 ,0.65548 ,4.00152 ,39.26288 
89 ,16.3329 ,0.65739 ,3.98783 ,39.12856 
90 ,16.5087 ,0.65922 ,3.95703 ,38.82636 
91 ,16.7008 ,0.66109 ,3.95361 ,38.79278 
92 ,16.8769 ,0.66284 ,3.95018 ,38.75920 
93 ,17.0530 ,0.66460 ,3.90912 ,38.35626 
94 ,17.2451 ,0.66650 ,3.90227 ,38.28911 
95 ,17.4371 ,0.66838 ,3.88858 ,38.15479 
96 ,17.6293 ,0.67039 ,3.85779 ,37.85259 
97 ,17.8052 ,0.67211 ,3.86121 ,37.88617 
98 ,17.9813 ,0.67387 ,3.84752 ,37.75185 
99 ,18.1575 ,0.67565 ,3.83041 ,37.58396 
100 ,18.3495 ,0.67759 ,3.79276 ,37.21460 
101 ,18.5255 ,0.67931 ,3.79619 ,37.24818 
102 ,18.7335 ,0.68132 ,3.77908 ,37.08029 
103 ,18.9257 ,0.68330 ,3.75512 ,36.84524 
104 ,19.1339 ,0.68547 ,3.75512 ,36.84524 
105 ,19.3259 ,0.68733 ,3.72774 ,36.57661 
106 ,19.5020 ,0.68909 ,3.72090 ,36.50946 
107 ,19.6781 ,0.69091 ,3.71063 ,36.40872 
108 ,19.8536 ,0.69272 ,3.67983 ,36.10652 
109 ,20.0301 ,0.69434 ,3.65930 ,35.90505 
110 ,20.2063 ,0.69616 ,3.64219 ,35.73716 
111 ,20.3824 ,0.69789 ,3.64219 ,35.73716 
112 ,20.5904 ,0.69979 ,3.64903 ,35.80431 
113 ,20.7985 ,0.70189 ,3.60797 ,35.40137 
114 ,20.9905 ,0.70394 ,3.59086 ,35.23348 
115 ,21.1506 ,0.70569 ,3.58059 ,35.13275 
116 ,21.3266 ,0.70728 ,3.57717 ,35.09917 
117 ,21.5187 ,0.70923 ,3.56690 ,34.99843 
118 ,21.6947 ,0.71101 ,3.54295 ,34.76338 
119 ,21.8710 ,0.71276 ,3.52241 ,34.56192 
120 ,22.0630 ,0.71467 ,3.51899 ,34.52834 
121 ,22.2552 ,0.71653 ,3.51557 ,34.49476 
122 ,22.4472 ,0.71844 ,3.48477 ,34.19255 
123 ,22.6393 ,0.72044 ,3.47792 ,34.12540 
124 ,22.8472 ,0.72236 ,3.45739 ,33.92393 
125 ,23.0231 ,0.72426 ,3.44028 ,33.75604 
126 ,23.1995 ,0.72605 ,3.43344 ,33.68888 
127 ,23.4076 ,0.72805 ,3.41290 ,33.48741 
128 ,23.5991 ,0.73000 ,3.40948 ,33.45383 
129 ,23.7593 ,0.73172 ,3.39237 ,33.28594 
130 ,23.9357 ,0.73341 ,3.37184 ,33.08447 
131 ,24.1276 ,0.73532 ,3.34104 ,32.78227 
132 ,24.3038 ,0.73709 ,3.34788 ,32.84942 
133 ,24.4801 ,0.73885 ,3.33077 ,32.68153 
134 ,24.6720 ,0.74077 ,3.31366 ,32.51364 
135 ,24.8482 ,0.74257 ,3.29313 ,32.31217 
136 ,25.0402 ,0.74443 ,3.29655 ,32.34575 
137 ,25.2004 ,0.74615 ,3.26917 ,32.07712 
138 ,25.3763 ,0.74777 ,3.27259 ,32.11070 
139 ,25.5524 ,0.74959 ,3.23837 ,31.77492 
140 ,25.7286 ,0.75130 ,3.22811 ,31.67418 
141 ,25.9046 ,0.75312 ,3.22468 ,31.64060 
142 ,26.0808 ,0.75487 ,3.22126 ,31.60702 
143 ,26.2727 ,0.75676 ,3.18704 ,31.27124 
144 ,26.4488 ,0.75854 ,3.16993 ,31.10335 
145 ,26.6247 ,0.76026 ,3.16309 ,31.03619 
146 ,26.8011 ,0.76204 ,3.15966 ,31.00262 
147 ,26.9930 ,0.76402 ,3.13571 ,30.76757 
148 ,27.1692 ,0.76571 ,3.11860 ,30.59968 
149 ,27.3288 ,0.76743 ,3.11518 ,30.56610 
150 ,27.5053 ,0.76912 ,3.10491 ,30.46536 
151 ,27.6813 ,0.77087 ,3.09122 ,30.33105 
152 ,27.8734 ,0.77271 ,3.06726 ,30.09600 
153 ,28.0495 ,0.77456 ,3.05015 ,29.92811 
154 ,28.2255 ,0.77625 ,3.03647 ,29.79380 
155 ,28.4016 ,0.77801 ,3.04673 ,29.89453 
156 ,28.5778 ,0.77985 ,3.02962 ,29.72664 
157 ,28.7537 ,0.78159 ,3.00567 ,29.49159 
158 ,28.9297 ,0.78331 ,2.98171 ,29.25654 
159 ,29.1060 ,0.78507 ,2.98513 ,29.29012 
160 ,29.3139 ,0.78702 ,2.95776 ,29.02150 
161 ,29.4901 ,0.78887 ,2.93722 ,28.82003 
162 ,29.6662 ,0.79072 ,2.92011 ,28.65213 
163 ,29.8423 ,0.79243 ,2.93038 ,28.75287 
164 ,30.0340 ,0.79432 ,2.89273 ,28.38351 
165 ,30.2103 ,0.79612 ,2.88589 ,28.31635 
166 ,30.3865 ,0.79787 ,2.87220 ,28.18204 
167 ,30.5783 ,0.79973 ,2.86878 ,28.14846 
168 ,30.7702 ,0.80171 ,2.84140 ,27.87983 
169 ,30.9467 ,0.80351 ,2.83114 ,27.77910 
170 ,31.1388 ,0.80546 ,2.83114 ,27.77910 
171 ,31.3308 ,0.80724 ,2.81060 ,27.57763 
172 ,31.5067 ,0.80910 ,2.78665 ,27.34258 
173 ,31.6831 ,0.81082 ,2.79007 ,27.37616 
174 ,31.8910 ,0.81286 ,2.77296 ,27.20827 
175 ,32.0832 ,0.81480 ,2.76269 ,27.10753 
176 ,32.2912 ,0.81689 ,2.74216 ,26.90606 
177 ,32.4673 ,0.81867 ,2.72163 ,26.70459 
178 ,32.6434 ,0.82043 ,2.71478 ,26.63744 
179 ,32.8355 ,0.82232 ,2.69767 ,26.46954 
180 ,33.0114 ,0.82420 ,2.69425 ,26.43597 
181 ,33.1877 ,0.82588 ,2.67029 ,26.20092 
182 ,33.3637 ,0.82772 ,2.67029 ,26.20092 
183 ,33.5398 ,0.82939 ,2.65318 ,26.03303 
184 ,33.7318 ,0.83139 ,2.63949 ,25.89871 
185 ,33.9237 ,0.83328 ,2.63607 ,25.86514 
186 ,34.0999 ,0.83498 ,2.62238 ,25.73082 
187 ,34.3080 ,0.83700 ,2.60185 ,25.52935 
188 ,34.4842 ,0.83882 ,2.58474 ,25.36146 
189 ,34.6759 ,0.84072 ,2.55736 ,25.09283 
190 ,34.8524 ,0.84263 ,2.56421 ,25.15999 
191 ,35.0442 ,0.84445 ,2.55052 ,25.02568 
192 ,35.2525 ,0.84639 ,2.52998 ,24.82421 
193 ,35.4445 ,0.84846 ,2.51630 ,24.68989 
194 ,35.6364 ,0.85034 ,2.50945 ,24.62274 
195 ,35.8121 ,0.85217 ,2.49576 ,24.48842 
196 ,35.9882 ,0.85388 ,2.47181 ,24.25338 
197 ,36.1648 ,0.85563 ,2.45812 ,24.11906 
198 ,36.3725 ,0.85773 ,2.44101 ,23.95117 
199 ,36.5490 ,0.85948 ,2.42732 ,23.81686 
200 ,36.7566 ,0.86142 ,2.41363 ,23.68255 
201 ,36.9331 ,0.86331 ,2.40679 ,23.61539 
202 ,37.1408 ,0.86531 ,2.39310 ,23.48108 
203 ,37.3172 ,0.86717 ,2.37941 ,23.34676 
204 ,37.5092 ,0.86905 ,2.36914 ,23.24603 
205 ,37.7014 ,0.87105 ,2.35545 ,23.11171 
206 ,37.8930 ,0.87292 ,2.32123 ,22.77593 
207 ,38.0696 ,0.87471 ,2.31097 ,22.67520 
208 ,38.2616 ,0.87659 ,2.31097 ,22.67520 
209 ,38.4377 ,0.87838 ,2.29043 ,22.47373 
210 ,38.6297 ,0.88031 ,2.27674 ,22.33941 
211 ,38.8058 ,0.88203 ,2.27674 ,22.33941 
212 ,38.9979 ,0.88399 ,2.25621 ,22.13794 
213 ,39.1741 ,0.88576 ,2.22883 ,21.86932 
214 ,39.3819 ,0.88774 ,2.23568 ,21.93647 
215 ,39.5583 ,0.88958 ,2.21857 ,21.76858 
216 ,39.7503 ,0.89151 ,2.20146 ,21.60069 
217 ,39.9423 ,0.89338 ,2.20146 ,21.60069 
218 ,40.1340 ,0.89523 ,2.16723 ,21.26491 
219 ,40.3265 ,0.89729 ,2.17066 ,21.29849 
220 ,40.5184 ,0.89920 ,2.14670 ,21.06344 
221 ,40.6944 ,0.90092 ,2.11590 ,20.76123 
222 ,40.8706 ,0.90268 ,2.10564 ,20.66050 
223 ,41.0464 ,0.90443 ,2.11932 ,20.79481 
224 ,41.2228 ,0.90622 ,2.10221 ,20.62692 
225 ,41.4149 ,0.90812 ,2.07141 ,20.32472 
226 ,41.6229 ,0.91023 ,2.08510 ,20.45903 
227 ,41.7991 ,0.91196 ,2.04061 ,20.02251 
228 ,42.0070 ,0.91395 ,2.04404 ,20.05609 
229 ,42.1668 ,0.91574 ,2.04404 ,20.05609 
230 ,42.3433 ,0.91736 ,2.02693 ,19.88820 
231 ,42.5350 ,0.91928 ,1.99270 ,19.55241 
232 ,42.7274 ,0.92122 ,2.00297 ,19.65315 
233 ,42.9192 ,0.92310 ,1.97217 ,19.35094 
234 ,43.0954 ,0.92489 ,1.96190 ,19.25021 
235 ,43.2715 ,0.92676 ,1.95164 ,19.14948 
236 ,43.4636 ,0.92855 ,1.93795 ,19.01516 
237 ,43.6557 ,0.93052 ,1.90373 ,18.67938 
238 ,43.8319 ,0.93231 ,1.89004 ,18.54507 
239 ,44.0239 ,0.93422 ,1.90031 ,18.64580 
240 ,44.2000 ,0.93598 ,1.88319 ,18.47791 
241 ,44.4082 ,0.93804 ,1.87635 ,18.41075 
242 ,44.6001 ,0.93999 ,1.85582 ,18.20928 
243 ,44.7761 ,0.94168 ,1.82844 ,17.94066 
244 ,44.9522 ,0.94348 ,1.82502 ,17.90708 
245 ,45.1282 ,0.94537 ,1.84555 ,18.10855 
246 ,45.3039 ,0.94708 ,1.79422 ,17.60487 
247 ,45.4965 ,0.94887 ,1.79080 ,17.57129 
248 ,45.6885 ,0.95089 ,1.77711 ,17.43698 
249 ,45.8648 ,0.95261 ,1.76342 ,17.30267 
250 ,46.0407 ,0.95436 ,1.76000 ,17.26909 
251 ,46.2167 ,0.95611 ,1.73604 ,17.03404 
252 ,46.4086 ,0.95798 ,1.73946 ,17.06762 
253 ,46.5848 ,0.95984 ,1.71893 ,16.86615 
254 ,46.7610 ,0.96156 ,1.69498 ,16.63110 
255 ,46.9369 ,0.96333 ,1.68471 ,16.53037 
256 ,47.1131 ,0.96511 ,1.66418 ,16.32890 
257 ,47.3049 ,0.96696 ,1.67102 ,16.39605 
258 ,47.4810 ,0.96878 ,1.65733 ,16.26174 
259 ,47.6573 ,0.97054 ,1.63680 ,16.06027 
260 ,47.8336 ,0.97228 ,1.61969 ,15.89238 
261 ,48.0255 ,0.97414 ,1.61284 ,15.82522 
262 ,48.2012 ,0.97599 ,1.60942 ,15.79164 
263 ,48.3933 ,0.97787 ,1.57862 ,15.48944 
264 ,48.5693 ,0.97964 ,1.56151 ,15.32155 
265 ,48.7614 ,0.98150 ,1.55124 ,15.22081 
266 ,48.9375 ,0.98328 ,1.54782 ,15.18724 
267 ,49.1299 ,0.98518 ,1.55124 ,15.22081 
268 ,49.3220 ,0.98720 ,1.51702 ,14.88503 
269 ,49.5141 ,0.98908 ,1.50333 ,14.75072 
270 ,49.6902 ,0.99082 ,1.49307 ,14.64998 
271 ,49.8661 ,0.99260 ,1.48622 ,14.58283 
272 ,50.0585 ,0.99451 ,1.47253 ,14.44851 
273 ,50.2343 ,0.99627 ,1.44858 ,14.21346 
274 ,50.4105 ,0.99806 ,1.44858 ,14.21346 
275 ,50.6025 ,0.99991 ,1.43489 ,14.07915 
276 ,50.7945 ,1.00188 ,1.41778 ,13.91126 
277 ,50.9867 ,1.00379 ,1.41778 ,13.91126 
278 ,51.1630 ,1.00555 ,1.39725 ,13.70979 
279 ,51.3389 ,1.00735 ,1.38698 ,13.60906 
280 ,51.5309 ,1.00921 ,1.38356 ,13.57548 
281 ,51.7071 ,1.01102 ,1.36987 ,13.44116 
282 ,51.8831 ,1.01278 ,1.35618 ,13.30685 
283 ,52.0750 ,1.01468 ,1.32538 ,13.00465 
284 ,52.2512 ,1.01647 ,1.31512 ,12.90391 
285 ,52.4274 ,1.01820 ,1.31854 ,12.93749 
286 ,52.6034 ,1.01998 ,1.31854 ,12.93749 
287 ,52.7795 ,1.02178 ,1.28432 ,12.60171 
288 ,52.9714 ,1.02363 ,1.28089 ,12.56813 
289 ,53.1634 ,1.02555 ,1.26720 ,12.43381 
290 ,53.3556 ,1.02737 ,1.24667 ,12.23235 
291 ,53.5478 ,1.02944 ,1.24325 ,12.19877 
292 ,53.7236 ,1.03118 ,1.23983 ,12.16519 
293 ,53.8996 ,1.03296 ,1.21587 ,11.93014 
294 ,54.0918 ,1.03478 ,1.20561 ,11.82941 
295 ,54.2841 ,1.03680 ,1.19534 ,11.72867 
296 ,54.4921 ,1.03879 ,1.18850 ,11.66151 
297 ,54.6522 ,1.04056 ,1.18165 ,11.59436 
298 ,54.8442 ,1.04230 ,1.16112 ,11.39289 
299 ,55.0204 ,1.04411 ,1.13716 ,11.15784 
300 ,55.2125 ,1.04604 ,1.12347 ,11.02353 
301 ,55.4206 ,1.04803 ,1.11321 ,10.92279 
302 ,55.5966 ,1.04992 ,1.09267 ,10.72132 
303 ,55.7887 ,1.05182 ,1.10979 ,10.88921 
304 ,55.9647 ,1.05357 ,1.08583 ,10.65416 
305 ,56.1246 ,1.05529 ,1.07214 ,10.51985 
306 ,56.3009 ,1.05695 ,1.06187 ,10.41912 
307 ,56.4770 ,1.05865 ,1.03792 ,10.18407 
308 ,56.6691 ,1.06050 ,1.03108 ,10.11691 
309 ,56.8612 ,1.06254 ,1.03108 ,10.11691 
310 ,57.0371 ,1.06431 ,1.00370 ,9.84829 
311 ,57.2131 ,1.06604 ,0.98659 ,9.68039 
312 ,57.4052 ,1.06798 ,1.00028 ,9.81471 
313 ,57.5811 ,1.06974 ,0.98317 ,9.64682 
314 ,57.7574 ,1.07149 ,0.95579 ,9.37819 
315 ,57.9334 ,1.07321 ,0.94552 ,9.27745 
316 ,58.1252 ,1.07517 ,0.95579 ,9.37819 
317 ,58.3176 ,1.07706 ,0.91814 ,9.00883 
318 ,58.5097 ,1.07900 ,0.91814 ,9.00883 
319 ,58.6856 ,1.08076 ,0.91472 ,8.97525 
320 ,58.8618 ,1.08250 ,0.89077 ,8.74020 
321 ,59.0379 ,1.08429 ,0.88050 ,8.63947 
322 ,59.2138 ,1.08604 ,0.87366 ,8.57231 
323 ,59.4061 ,1.08801 ,0.87023 ,8.53873 
324 ,59.5980 ,1.08995 ,0.83943 ,8.23653 
325 ,59.7902 ,1.09177 ,0.84286 ,8.27011 
326 ,59.9663 ,1.09352 ,0.83943 ,8.23653 
327 ,60.1742 ,1.09557 ,0.80863 ,7.93432 
328 ,60.3505 ,1.09744 ,0.79837 ,7.83359 
329 ,60.5585 ,1.09936 ,0.79495 ,7.80001 
330 ,60.7666 ,1.10153 ,0.78810 ,7.73285 
331 ,60.9746 ,1.10362 ,0.75730 ,7.43065 
332 ,61.1667 ,1.10548 ,0.75388 ,7.39707 
333 ,61.3745 ,1.10757 ,0.76072 ,7.46423 
334 ,61.5669 ,1.10954 ,0.74361 ,7.29633 
335 ,61.7591 ,1.11152 ,0.69913 ,6.85982 
336 ,61.9509 ,1.11335 ,0.70255 ,6.89340 
337 ,62.1592 ,1.11538 ,0.70939 ,6.96055 
338 ,62.3509 ,1.11744 ,0.68201 ,6.69193 
339 ,62.5271 ,1.11924 ,0.67859 ,6.65835 
340 ,62.7033 ,1.12089 ,0.67175 ,6.59119 
341 ,62.8954 ,1.12283 ,0.63410 ,6.22183 
342 ,63.0716 ,1.12465 ,0.62726 ,6.15467 
343 ,63.2635 ,1.12646 ,0.64095 ,6.28899 
344 ,63.4397 ,1.12831 ,0.63068 ,6.18825 
345 ,63.6156 ,1.13003 ,0.60673 ,5.95320 
346 ,63.7917 ,1.13179 ,0.59988 ,5.88605 
347 ,63.9677 ,1.13354 ,0.58962 ,5.78531 
348 ,64.1435 ,1.13530 ,0.57935 ,5.68458 
349 ,64.3360 ,1.13721 ,0.56566 ,5.55026 
350 ,64.5278 ,1.13918 ,0.55882 ,5.48311 
351 ,64.7040 ,1.14100 ,0.53828 ,5.28164 
352 ,64.8801 ,1.14278 ,0.53486 ,5.24806 
353 ,65.0562 ,1.14449 ,0.51775 ,5.08017 
354 ,65.2323 ,1.14622 ,0.51091 ,5.01301 
355 ,65.4242 ,1.14816 ,0.51775 ,5.08017 
356 ,65.6004 ,1.14987 ,0.51091 ,5.01301 
357 ,65.7766 ,1.15164 ,0.48011 ,4.71081 
358 ,65.9687 ,1.15347 ,0.46300 ,4.54291 
359 ,66.1607 ,1.15542 ,0.45273 ,4.44218 
360 ,66.3367 ,1.15721 ,0.45615 ,4.47576 
361 ,66.5288 ,1.15911 ,0.43562 ,4.27429 
362 ,66.7046 ,1.16097 ,0.42535 ,4.17355 
363 ,66.8812 ,1.16269 ,0.42535 ,4.17355 
364 ,67.0890 ,1.16469 ,0.38771 ,3.80419 
365 ,67.2651 ,1.16648 ,0.39797 ,3.90493 
366 ,67.4573 ,1.16844 ,0.37060 ,3.63630 
367 ,67.6494 ,1.17029 ,0.36033 ,3.53557 
368 ,67.8091 ,1.17209 ,0.36033 ,3.53557 
369 ,67.9851 ,1.17371 ,0.35691 ,3.50199 
370 ,68.1775 ,1.17561 ,0.35006 ,3.43483 
371 ,68.3536 ,1.17738 ,0.31926 ,3.13263 
372 ,68.5456 ,1.17932 ,0.31584 ,3.09905 
373 ,68.7217 ,1.18107 ,0.32269 ,3.16620 
374 ,68.8978 ,1.18286 ,0.30900 ,3.03189 
375 ,69.0737 ,1.18463 ,0.28162 ,2.76326 
376 ,69.2500 ,1.18639 ,0.26793 ,2.62895 
377 ,69.4421 ,1.18823 ,0.27478 ,2.69611 
378 ,69.6338 ,1.19011 ,0.23371 ,2.29317 
379 ,69.8103 ,1.19197 ,0.23371 ,2.29317 
380 ,70.0024 ,1.19391 ,0.22687 ,2.22601 
381 ,70.2102 ,1.19591 ,0.20976 ,2.05812 
382 ,70.4024 ,1.19786 ,0.21660 ,2.12528 
383 ,70.5786 ,1.19969 ,0.19949 ,1.95738 
384 ,70.7703 ,1.20145 ,0.17553 ,1.72234 
385 ,70.9463 ,1.20334 ,0.16527 ,1.62160 
386 ,71.1225 ,1.20512 ,0.17211 ,1.68876 
387 ,71.3147 ,1.20700 ,0.15158 ,1.48729 
388 ,71.5068 ,1.20879 ,0.14131 ,1.38655 
389 ,71.6829 ,1.21070 ,0.13105 ,1.28582 
390 ,71.8749 ,1.21254 ,0.12762 ,1.25224 
391 ,72.0510 ,1.21439 ,0.10709 ,1.05077 
392 ,72.2271 ,1.21613 ,0.08314 ,0.81572 
393 ,72.4033 ,1.21788 ,0.11051 ,1.08435 
394 ,72.5794 ,1.21968 ,0.09340 ,0.91646 
395 ,72.7714 ,1.22156 ,0.06945 ,0.68141 
396 ,72.9475 ,1.22336 ,0.05576 ,0.54710 
397 ,73.1232 ,1.22506 ,0.07287 ,0.71499 
398 ,73.2996 ,1.22684 ,0.04891 ,0.47994 
399 ,73.4756 ,1.22862 ,0.04207 ,0.41278 
400 ,73.6518 ,1.23041 ,0.03180 ,0.31205 
401 ,73.8597 ,1.23231 ,0.02154 ,0.21131 
402 ,74.0360 ,1.23424 ,0.02496 ,0.24489 
403 ,74.2121 ,1.23596 ,-0.00584 ,-0.05731 
404 ,74.4040 ,1.23789 ,-0.02637 ,-0.25878 
405 ,74.5801 ,1.23970 ,-0.03322 ,-0.32594 
406 ,74.7562 ,1.24144 ,-0.02637 ,-0.25878 
407 ,74.9480 ,1.24330 ,-0.04691 ,-0.46025 
408 ,75.1404 ,1.24510 ,-0.06060 ,-0.59457 
409 ,75.3323 ,1.24708 ,-0.06744 ,-0.66172 
410 ,75.5245 ,1.24907 ,-0.06402 ,-0.62814 
411 ,75.7164 ,1.25093 ,-0.08455 ,-0.82961 
412 ,75.8927 ,1.25280 ,-0.07771 ,-0.76246 
413 ,76.0846 ,1.25459 ,-0.11877 ,-1.16540 
414 ,76.2606 ,1.25644 ,-0.10851 ,-1.06466 
415 ,76.4688 ,1.25835 ,-0.10851 ,-1.06466 
416 ,76.6449 ,1.26030 ,-0.14615 ,-1.43402 
417 ,76.8211 ,1.26205 ,-0.13588 ,-1.33329 
418 ,76.9971 ,1.26388 ,-0.14615 ,-1.43402 
419 ,77.1731 ,1.26558 ,-0.15299 ,-1.50118 
420 ,77.3488 ,1.26732 ,-0.17353 ,-1.70265 
421 ,77.5253 ,1.26905 ,-0.17011 ,-1.66907 
422 ,77.7011 ,1.27081 ,-0.18722 ,-1.83696 
423 ,77.8774 ,1.27256 ,-0.18722 ,-1.83696 
424 ,78.0536 ,1.27436 ,-0.18722 ,-1.83696 
425 ,78.2616 ,1.27640 ,-0.20433 ,-2.00485 
426 ,78.4375 ,1.27819 ,-0.21802 ,-2.13917 
427 ,78.6298 ,1.27998 ,-0.21459 ,-2.10559 
428 ,78.8058 ,1.28192 ,-0.24539 ,-2.40779 
429 ,78.9819 ,1.28364 ,-0.24197 ,-2.37422 
430 ,79.1580 ,1.28540 ,-0.24197 ,-2.37422 
431 ,79.3501 ,1.28728 ,-0.27277 ,-2.67642 
432 ,79.5261 ,1.28914 ,-0.25908 ,-2.54211 
433 ,79.7022 ,1.29083 ,-0.27961 ,-2.74358 
434 ,79.8783 ,1.29258 ,-0.26935 ,-2.64284 
435 ,80.0544 ,1.29440 ,-0.29330 ,-2.87789 
436 ,80.2304 ,1.29613 ,-0.30357 ,-2.97863 
437 ,80.4065 ,1.29784 ,-0.31726 ,-3.11294 
438 ,80.5826 ,1.29975 ,-0.32068 ,-3.14652 
439 ,80.7746 ,1.30148 ,-0.32410 ,-3.18010 
440 ,80.9507 ,1.30333 ,-0.34121 ,-3.34799 
441 ,81.1267 ,1.30508 ,-0.35832 ,-3.51588 
442 ,81.3029 ,1.30684 ,-0.35832 ,-3.51588 
443 ,81.4949 ,1.30883 ,-0.37886 ,-3.71735 
444 ,81.6711 ,1.31059 ,-0.37544 ,-3.68377 
445 ,81.8634 ,1.31244 ,-0.40281 ,-3.95240 
446 ,82.0707 ,1.31448 ,-0.39939 ,-3.91882 
447 ,82.2632 ,1.31638 ,-0.39939 ,-3.91882 
448 ,82.4395 ,1.31821 ,-0.39939 ,-3.91882 
449 ,82.6312 ,1.32006 ,-0.41992 ,-4.12029 
450 ,82.8075 ,1.32190 ,-0.42335 ,-4.15387 
451 ,82.9836 ,1.32361 ,-0.43361 ,-4.25460 
452 ,83.1599 ,1.32541 ,-0.43019 ,-4.22102 
453 ,83.3358 ,1.32724 ,-0.44730 ,-4.38891 
454 ,83.5115 ,1.32891 ,-0.45414 ,-4.45607 
455 ,83.6874 ,1.33072 ,-0.46441 ,-4.55681 
456 ,83.8640 ,1.33242 ,-0.48494 ,-4.75828 
457 ,84.0400 ,1.33422 ,-0.49179 ,-4.82543 
458 ,84.2157 ,1.33597 ,-0.48152 ,-4.72470 
459 ,84.3921 ,1.33770 ,-0.48494 ,-4.75828 
460 ,84.5682 ,1.33951 ,-0.50206 ,-4.92617 
461 ,84.7603 ,1.34137 ,-0.52259 ,-5.12764 
462 ,84.9364 ,1.34317 ,-0.51232 ,-5.02690 
463 ,85.1285 ,1.34511 ,-0.53628 ,-5.26195 
464 ,85.3045 ,1.34683 ,-0.55339 ,-5.42984 
