Data stamp = , 07-04-2022 14:10:09 587

Calibration Values: 
Slope = , 26.54 , g/V 
Offset Voltage at no contact = , -0.501760 , V 

No , Time , Stage Position ,   Mass , Force 
   ,  (s) ,      (mm)      ,   (g)  , (mN)  

1 ,0.0000 ,0.49933 ,5.18901 ,50.91455 
2 ,0.2005 ,0.49942 ,5.18216 ,50.84739 
3 ,0.4888 ,0.50012 ,5.19927 ,51.01528 
4 ,0.6964 ,0.50146 ,5.20270 ,51.04886 
5 ,0.8884 ,0.50297 ,5.19243 ,50.94813 
6 ,1.0483 ,0.50469 ,5.20270 ,51.04886 
7 ,1.2249 ,0.50633 ,5.17874 ,50.81381 
8 ,1.4329 ,0.50835 ,5.19927 ,51.01528 
9 ,1.6092 ,0.51022 ,5.17190 ,50.74666 
10 ,1.8007 ,0.51217 ,5.16848 ,50.71308 
11 ,1.9773 ,0.51393 ,5.14110 ,50.44445 
12 ,2.1691 ,0.51580 ,5.13425 ,50.37729 
13 ,2.3615 ,0.51769 ,5.11714 ,50.20940 
14 ,2.5373 ,0.51952 ,5.11372 ,50.17583 
15 ,2.7296 ,0.52143 ,5.11714 ,50.20940 
16 ,2.9375 ,0.52336 ,5.08634 ,49.90720 
17 ,3.1298 ,0.52538 ,5.06581 ,49.70573 
18 ,3.3219 ,0.52731 ,5.03159 ,49.36995 
19 ,3.5140 ,0.52925 ,5.03501 ,49.40352 
20 ,3.6898 ,0.53102 ,5.01790 ,49.23563 
21 ,3.8979 ,0.53300 ,4.98368 ,48.89985 
22 ,4.0902 ,0.53503 ,4.99737 ,49.03416 
23 ,4.2822 ,0.53693 ,4.95288 ,48.59764 
24 ,4.4580 ,0.53870 ,4.94261 ,48.49691 
25 ,4.6342 ,0.54040 ,4.93919 ,48.46333 
26 ,4.8262 ,0.54234 ,4.90839 ,48.16113 
27 ,5.0022 ,0.54422 ,4.88786 ,47.95966 
28 ,5.1784 ,0.54593 ,4.85706 ,47.65745 
29 ,5.3547 ,0.54769 ,4.87075 ,47.79177 
30 ,5.5467 ,0.54948 ,4.84679 ,47.55672 
31 ,5.7387 ,0.55151 ,4.83652 ,47.45598 
32 ,5.9309 ,0.55333 ,4.82284 ,47.32167 
33 ,6.1070 ,0.55518 ,4.79204 ,47.01946 
34 ,6.2830 ,0.55689 ,4.77150 ,46.81800 
35 ,6.4594 ,0.55870 ,4.75782 ,46.68368 
36 ,6.6351 ,0.56049 ,4.76124 ,46.71726 
37 ,6.8113 ,0.56221 ,4.74755 ,46.58295 
38 ,6.9873 ,0.56400 ,4.72359 ,46.34790 
39 ,7.1790 ,0.56587 ,4.69279 ,46.04569 
40 ,7.3713 ,0.56767 ,4.69964 ,46.11285 
41 ,7.5636 ,0.56964 ,4.66542 ,45.77707 
42 ,7.7397 ,0.57151 ,4.64146 ,45.54202 
43 ,7.9318 ,0.57337 ,4.64488 ,45.57560 
44 ,8.1239 ,0.57533 ,4.61066 ,45.23981 
45 ,8.3156 ,0.57716 ,4.62435 ,45.37413 
46 ,8.5239 ,0.57929 ,4.58328 ,44.97119 
47 ,8.6998 ,0.58108 ,4.56960 ,44.83688 
48 ,8.8919 ,0.58293 ,4.56275 ,44.76972 
49 ,9.0682 ,0.58474 ,4.53195 ,44.46751 
50 ,9.2924 ,0.58687 ,4.53880 ,44.53467 
51 ,9.4843 ,0.58894 ,4.51142 ,44.26604 
52 ,9.6605 ,0.59072 ,4.49431 ,44.09815 
53 ,9.8523 ,0.59260 ,4.50115 ,44.16531 
54 ,10.0285 ,0.59438 ,4.47378 ,43.89668 
55 ,10.2205 ,0.59629 ,4.44640 ,43.62806 
56 ,10.4127 ,0.59818 ,4.44298 ,43.59448 
57 ,10.5889 ,0.59994 ,4.41902 ,43.35943 
58 ,10.7808 ,0.60184 ,4.41902 ,43.35943 
59 ,10.9569 ,0.60359 ,4.39507 ,43.12438 
60 ,11.1330 ,0.60540 ,4.39507 ,43.12438 
61 ,11.3093 ,0.60717 ,4.38138 ,42.99007 
62 ,11.5174 ,0.60919 ,4.35058 ,42.68786 
63 ,11.7094 ,0.61121 ,4.34031 ,42.58713 
64 ,11.8850 ,0.61293 ,4.31636 ,42.35208 
65 ,12.0615 ,0.61470 ,4.28213 ,42.01630 
66 ,12.2535 ,0.61662 ,4.28898 ,42.08345 
67 ,12.4615 ,0.61862 ,4.26845 ,41.88198 
68 ,12.6376 ,0.62042 ,4.26160 ,41.81483 
69 ,12.8139 ,0.62219 ,4.24791 ,41.68051 
70 ,12.9897 ,0.62397 ,4.24107 ,41.61336 
71 ,13.1659 ,0.62569 ,4.21027 ,41.31115 
72 ,13.3419 ,0.62748 ,4.18974 ,41.10968 
73 ,13.5339 ,0.62945 ,4.18631 ,41.07611 
74 ,13.7099 ,0.63117 ,4.17947 ,41.00895 
75 ,13.8861 ,0.63293 ,4.14183 ,40.63959 
76 ,14.0782 ,0.63474 ,4.13498 ,40.57243 
77 ,14.2542 ,0.63656 ,4.13156 ,40.53885 
78 ,14.4304 ,0.63838 ,4.11103 ,40.33738 
79 ,14.6063 ,0.64016 ,4.09391 ,40.16949 
80 ,14.7824 ,0.64188 ,4.06654 ,39.90087 
81 ,14.9587 ,0.64361 ,4.07338 ,39.96802 
82 ,15.1345 ,0.64541 ,4.06312 ,39.86729 
83 ,15.3107 ,0.64721 ,4.01520 ,39.39719 
84 ,15.5028 ,0.64899 ,4.03232 ,39.56508 
85 ,15.6947 ,0.65092 ,4.01863 ,39.43077 
86 ,15.8870 ,0.65285 ,3.98783 ,39.12856 
87 ,16.0789 ,0.65478 ,3.97756 ,39.02783 
88 ,16.2549 ,0.65656 ,3.96729 ,38.92709 
89 ,16.4308 ,0.65836 ,3.94676 ,38.72562 
90 ,16.6072 ,0.66011 ,3.92623 ,38.52415 
91 ,16.7832 ,0.66183 ,3.91254 ,38.38984 
92 ,16.9751 ,0.66379 ,3.90570 ,38.32268 
93 ,17.1673 ,0.66561 ,3.89543 ,38.22195 
94 ,17.3435 ,0.66744 ,3.87147 ,37.98690 
95 ,17.5196 ,0.66928 ,3.85094 ,37.78543 
96 ,17.6955 ,0.67102 ,3.84752 ,37.75185 
97 ,17.9037 ,0.67288 ,3.85094 ,37.78543 
98 ,18.0797 ,0.67485 ,3.81330 ,37.41607 
99 ,18.2559 ,0.67664 ,3.80645 ,37.34891 
100 ,18.4480 ,0.67848 ,3.79619 ,37.24818 
101 ,18.6400 ,0.68043 ,3.76196 ,36.91240 
102 ,18.7997 ,0.68214 ,3.75854 ,36.87882 
103 ,18.9762 ,0.68386 ,3.74828 ,36.77808 
104 ,19.1841 ,0.68581 ,3.72090 ,36.50946 
105 ,19.3763 ,0.68775 ,3.72432 ,36.54303 
106 ,19.5684 ,0.68964 ,3.69010 ,36.20725 
107 ,19.7444 ,0.69151 ,3.67299 ,36.03936 
108 ,19.9206 ,0.69321 ,3.65246 ,35.83789 
109 ,20.0966 ,0.69496 ,3.66957 ,36.00578 
110 ,20.2566 ,0.69671 ,3.66614 ,35.97220 
111 ,20.4487 ,0.69850 ,3.62508 ,35.56926 
112 ,20.6248 ,0.70024 ,3.61823 ,35.50211 
113 ,20.8171 ,0.70210 ,3.59770 ,35.30064 
114 ,20.9929 ,0.70396 ,3.58059 ,35.13275 
115 ,21.1690 ,0.70572 ,3.56348 ,34.96485 
116 ,21.3612 ,0.70756 ,3.55321 ,34.86412 
117 ,21.5373 ,0.70945 ,3.52584 ,34.59549 
118 ,21.7133 ,0.71117 ,3.52926 ,34.62907 
119 ,21.9054 ,0.71302 ,3.53268 ,34.66265 
120 ,22.0814 ,0.71481 ,3.49504 ,34.29329 
121 ,22.2574 ,0.71658 ,3.48477 ,34.19255 
122 ,22.4334 ,0.71834 ,3.48819 ,34.22613 
123 ,22.6095 ,0.72011 ,3.47792 ,34.12540 
124 ,22.7857 ,0.72184 ,3.44370 ,33.78961 
125 ,22.9617 ,0.72366 ,3.41975 ,33.55457 
126 ,23.1375 ,0.72538 ,3.42317 ,33.58814 
127 ,23.3299 ,0.72720 ,3.42317 ,33.58814 
128 ,23.5221 ,0.72924 ,3.37868 ,33.15163 
129 ,23.7142 ,0.73111 ,3.38210 ,33.18520 
130 ,23.8899 ,0.73292 ,3.37526 ,33.11805 
131 ,24.0662 ,0.73468 ,3.36157 ,32.98374 
132 ,24.2583 ,0.73661 ,3.33077 ,32.68153 
133 ,24.4343 ,0.73837 ,3.33419 ,32.71511 
134 ,24.6424 ,0.74038 ,3.28971 ,32.27859 
135 ,24.8343 ,0.74225 ,3.28286 ,32.21143 
136 ,25.0267 ,0.74426 ,3.28628 ,32.24501 
137 ,25.2185 ,0.74621 ,3.26233 ,32.00996 
138 ,25.4268 ,0.74822 ,3.23837 ,31.77492 
139 ,25.6190 ,0.75025 ,3.21442 ,31.53987 
140 ,25.8110 ,0.75214 ,3.22811 ,31.67418 
141 ,25.9870 ,0.75386 ,3.19731 ,31.37198 
142 ,26.1631 ,0.75567 ,3.16993 ,31.10335 
143 ,26.3388 ,0.75738 ,3.16993 ,31.10335 
144 ,26.5151 ,0.75915 ,3.17335 ,31.13693 
145 ,26.6914 ,0.76092 ,3.15966 ,31.00262 
146 ,26.8675 ,0.76264 ,3.13229 ,30.73399 
147 ,27.0436 ,0.76446 ,3.12202 ,30.63325 
148 ,27.2355 ,0.76637 ,3.11518 ,30.56610 
149 ,27.4113 ,0.76815 ,3.11518 ,30.56610 
150 ,27.5877 ,0.76992 ,3.07411 ,30.16316 
151 ,27.7636 ,0.77164 ,3.06384 ,30.06242 
152 ,27.9399 ,0.77336 ,3.06384 ,30.06242 
153 ,28.1319 ,0.77532 ,3.04673 ,29.89453 
154 ,28.3080 ,0.77710 ,3.05015 ,29.92811 
155 ,28.4837 ,0.77879 ,3.02278 ,29.65948 
156 ,28.6601 ,0.78064 ,2.99198 ,29.35728 
157 ,28.8523 ,0.78253 ,3.00567 ,29.49159 
158 ,29.0283 ,0.78431 ,2.97829 ,29.22297 
159 ,29.2205 ,0.78613 ,2.95776 ,29.02150 
160 ,29.4127 ,0.78813 ,2.95776 ,29.02150 
161 ,29.5885 ,0.78991 ,2.93380 ,28.78645 
162 ,29.7806 ,0.79166 ,2.92353 ,28.68571 
163 ,29.9727 ,0.79368 ,2.91327 ,28.58498 
164 ,30.1489 ,0.79549 ,2.88931 ,28.34993 
165 ,30.3247 ,0.79724 ,2.87220 ,28.18204 
166 ,30.5170 ,0.79918 ,2.87562 ,28.21562 
167 ,30.7250 ,0.80117 ,2.83456 ,27.81268 
168 ,30.9012 ,0.80301 ,2.82087 ,27.67836 
169 ,31.0770 ,0.80476 ,2.81060 ,27.57763 
170 ,31.2533 ,0.80651 ,2.81402 ,27.61121 
171 ,31.4452 ,0.80845 ,2.79349 ,27.40974 
172 ,31.6211 ,0.81028 ,2.78322 ,27.30900 
173 ,31.7975 ,0.81198 ,2.75585 ,27.04038 
174 ,31.9897 ,0.81386 ,2.75927 ,27.07395 
175 ,32.1656 ,0.81566 ,2.74216 ,26.90606 
176 ,32.3578 ,0.81751 ,2.72505 ,26.73817 
177 ,32.5499 ,0.81950 ,2.72847 ,26.77175 
178 ,32.7096 ,0.82120 ,2.70794 ,26.57028 
179 ,32.8858 ,0.82288 ,2.69083 ,26.40239 
180 ,33.0781 ,0.82479 ,2.68398 ,26.33523 
181 ,33.2861 ,0.82684 ,2.64634 ,25.96587 
182 ,33.4781 ,0.82866 ,2.64292 ,25.93229 
183 ,33.6541 ,0.83052 ,2.63265 ,25.83156 
184 ,33.8302 ,0.83226 ,2.62923 ,25.79798 
185 ,34.0225 ,0.83409 ,2.61554 ,25.66367 
186 ,34.2144 ,0.83611 ,2.60185 ,25.52935 
187 ,34.3907 ,0.83789 ,2.59158 ,25.42862 
188 ,34.5665 ,0.83965 ,2.57789 ,25.29430 
189 ,34.7428 ,0.84143 ,2.55052 ,25.02568 
190 ,34.9347 ,0.84330 ,2.54710 ,24.99210 
191 ,35.1269 ,0.84524 ,2.53683 ,24.89136 
192 ,35.3189 ,0.84707 ,2.50261 ,24.55558 
193 ,35.5111 ,0.84911 ,2.51287 ,24.65632 
194 ,35.6871 ,0.85088 ,2.48207 ,24.35411 
195 ,35.8629 ,0.85261 ,2.47865 ,24.32053 
196 ,36.2473 ,0.85545 ,2.45470 ,24.08549 
197 ,36.4392 ,0.85833 ,2.42390 ,23.78328 
198 ,36.6153 ,0.86013 ,2.40679 ,23.61539 
199 ,36.7915 ,0.86194 ,2.41021 ,23.64897 
200 ,36.9835 ,0.86376 ,2.37941 ,23.34676 
201 ,37.1596 ,0.86556 ,2.36230 ,23.17887 
202 ,37.3356 ,0.86730 ,2.36572 ,23.21245 
203 ,37.5120 ,0.86908 ,2.36914 ,23.24603 
204 ,37.7039 ,0.87095 ,2.32808 ,22.84309 
205 ,37.8800 ,0.87278 ,2.31097 ,22.67520 
206 ,38.0560 ,0.87459 ,2.32123 ,22.77593 
207 ,38.2319 ,0.87625 ,2.30754 ,22.64162 
208 ,38.4081 ,0.87803 ,2.29043 ,22.47373 
209 ,38.5842 ,0.87978 ,2.28017 ,22.37299 
210 ,38.7603 ,0.88162 ,2.25621 ,22.13794 
211 ,38.9360 ,0.88329 ,2.23568 ,21.93647 
212 ,39.1123 ,0.88509 ,2.23568 ,21.93647 
213 ,39.2885 ,0.88684 ,2.22883 ,21.86932 
214 ,39.4644 ,0.88858 ,2.21857 ,21.76858 
215 ,39.6406 ,0.89036 ,2.19119 ,21.49996 
216 ,39.8168 ,0.89216 ,2.18435 ,21.43280 
217 ,40.0088 ,0.89405 ,2.19461 ,21.53353 
218 ,40.1848 ,0.89580 ,2.16381 ,21.23133 
219 ,40.3605 ,0.89756 ,2.14328 ,21.02986 
220 ,40.5370 ,0.89934 ,2.12617 ,20.86197 
221 ,40.7129 ,0.90109 ,2.12275 ,20.82839 
222 ,40.9050 ,0.90291 ,2.13301 ,20.92912 
223 ,41.0812 ,0.90478 ,2.08510 ,20.45903 
224 ,41.2732 ,0.90663 ,2.09195 ,20.52619 
225 ,41.4493 ,0.90844 ,2.08510 ,20.45903 
226 ,41.6254 ,0.91019 ,2.06799 ,20.29114 
227 ,41.8014 ,0.91196 ,2.04746 ,20.08967 
228 ,41.9775 ,0.91371 ,2.02693 ,19.88820 
229 ,42.1697 ,0.91559 ,2.02008 ,19.82104 
230 ,42.3617 ,0.91756 ,2.00982 ,19.72031 
231 ,42.5536 ,0.91944 ,1.99955 ,19.61957 
232 ,42.7298 ,0.92123 ,1.99270 ,19.55241 
233 ,42.9059 ,0.92303 ,1.97559 ,19.38452 
234 ,43.0821 ,0.92479 ,1.94822 ,19.11590 
235 ,43.2899 ,0.92680 ,1.96190 ,19.25021 
236 ,43.4822 ,0.92870 ,1.92426 ,18.88085 
237 ,43.6583 ,0.93056 ,1.91399 ,18.78011 
238 ,43.8504 ,0.93247 ,1.91742 ,18.81369 
239 ,44.0264 ,0.93419 ,1.89688 ,18.61222 
240 ,44.2344 ,0.93622 ,1.86951 ,18.34360 
241 ,44.4106 ,0.93804 ,1.87977 ,18.44433 
242 ,44.5864 ,0.93983 ,1.86266 ,18.27644 
243 ,44.7786 ,0.94171 ,1.83528 ,18.00781 
244 ,44.9548 ,0.94346 ,1.81817 ,17.83992 
245 ,45.1309 ,0.94527 ,1.81817 ,17.83992 
246 ,45.3229 ,0.94706 ,1.81133 ,17.77276 
247 ,45.5148 ,0.94909 ,1.76684 ,17.33625 
248 ,45.6907 ,0.95089 ,1.76000 ,17.26909 
249 ,45.8672 ,0.95261 ,1.78395 ,17.50414 
250 ,46.0593 ,0.95455 ,1.74973 ,17.16836 
251 ,46.2352 ,0.95629 ,1.71893 ,16.86615 
252 ,46.4274 ,0.95818 ,1.72920 ,16.96689 
253 ,46.6035 ,0.96000 ,1.69498 ,16.63110 
254 ,46.7955 ,0.96186 ,1.69155 ,16.59752 
255 ,46.9716 ,0.96369 ,1.68813 ,16.56395 
256 ,47.1795 ,0.96569 ,1.66760 ,16.36248 
257 ,47.3558 ,0.96744 ,1.65049 ,16.19458 
258 ,47.5636 ,0.96941 ,1.63680 ,16.06027 
259 ,47.7558 ,0.97140 ,1.61627 ,15.85880 
260 ,47.9476 ,0.97343 ,1.62995 ,15.99311 
261 ,48.1239 ,0.97513 ,1.61284 ,15.82522 
262 ,48.3000 ,0.97693 ,1.59231 ,15.62375 
263 ,48.4762 ,0.97866 ,1.57520 ,15.45586 
264 ,48.6518 ,0.98044 ,1.56836 ,15.38871 
265 ,48.8280 ,0.98219 ,1.57178 ,15.42228 
266 ,49.0043 ,0.98398 ,1.54782 ,15.18724 
267 ,49.1802 ,0.98575 ,1.52045 ,14.91861 
268 ,49.3722 ,0.98758 ,1.52045 ,14.91861 
269 ,49.5484 ,0.98942 ,1.51702 ,14.88503 
270 ,49.7406 ,0.99134 ,1.48280 ,14.54925 
271 ,49.9327 ,0.99325 ,1.47253 ,14.44851 
272 ,50.1248 ,0.99513 ,1.47938 ,14.51567 
273 ,50.3005 ,0.99692 ,1.46227 ,14.34778 
274 ,50.4606 ,0.99862 ,1.43147 ,14.04557 
275 ,50.6366 ,1.00029 ,1.42805 ,14.01199 
276 ,50.8129 ,1.00204 ,1.40409 ,13.77695 
277 ,50.9729 ,1.00376 ,1.41436 ,13.87768 
278 ,51.1491 ,1.00541 ,1.40067 ,13.74337 
279 ,51.3252 ,1.00716 ,1.40067 ,13.74337 
280 ,51.5013 ,1.00893 ,1.38356 ,13.57548 
281 ,51.6774 ,1.01068 ,1.34249 ,13.17254 
282 ,51.8535 ,1.01242 ,1.35618 ,13.30685 
283 ,52.0293 ,1.01420 ,1.33907 ,13.13896 
284 ,52.2055 ,1.01595 ,1.33907 ,13.13896 
285 ,52.3816 ,1.01777 ,1.33565 ,13.10538 
286 ,52.5739 ,1.01963 ,1.31169 ,12.87033 
287 ,52.7660 ,1.02156 ,1.29800 ,12.73602 
288 ,52.9420 ,1.02331 ,1.28774 ,12.63528 
289 ,53.1182 ,1.02513 ,1.26036 ,12.36666 
290 ,53.3104 ,1.02701 ,1.26720 ,12.43381 
291 ,53.4863 ,1.02877 ,1.26378 ,12.40024 
292 ,53.6783 ,1.03071 ,1.23298 ,12.09803 
293 ,53.8542 ,1.03243 ,1.20903 ,11.86298 
294 ,54.0463 ,1.03440 ,1.21245 ,11.89656 
295 ,54.2384 ,1.03632 ,1.18850 ,11.66151 
296 ,54.4305 ,1.03822 ,1.17823 ,11.56078 
297 ,54.6225 ,1.04004 ,1.17823 ,11.56078 
298 ,54.8147 ,1.04196 ,1.15770 ,11.35931 
299 ,54.9906 ,1.04384 ,1.14743 ,11.25857 
300 ,55.1828 ,1.04565 ,1.14058 ,11.19142 
301 ,55.3749 ,1.04765 ,1.10979 ,10.88921 
302 ,55.5511 ,1.04941 ,1.09952 ,10.78848 
303 ,55.7431 ,1.05134 ,1.11321 ,10.92279 
304 ,55.9510 ,1.05330 ,1.09267 ,10.72132 
305 ,56.1113 ,1.05511 ,1.08925 ,10.68774 
306 ,56.2874 ,1.05673 ,1.07899 ,10.58701 
307 ,56.4792 ,1.05868 ,1.05161 ,10.31838 
308 ,56.6552 ,1.06043 ,1.03792 ,10.18407 
309 ,56.8315 ,1.06218 ,1.02765 ,10.08333 
310 ,56.9916 ,1.06391 ,1.03792 ,10.18407 
311 ,57.1672 ,1.06555 ,1.01396 ,9.94902 
312 ,57.3597 ,1.06737 ,1.00028 ,9.81471 
313 ,57.5517 ,1.06944 ,0.96948 ,9.51250 
314 ,57.7438 ,1.07127 ,0.99343 ,9.74755 
315 ,57.9202 ,1.07310 ,0.96605 ,9.47892 
316 ,58.0958 ,1.07490 ,0.95579 ,9.37819 
317 ,58.2721 ,1.07661 ,0.93868 ,9.21030 
318 ,58.4481 ,1.07837 ,0.92841 ,9.10956 
319 ,58.6402 ,1.08030 ,0.91814 ,9.00883 
320 ,58.8321 ,1.08213 ,0.90103 ,8.84094 
321 ,59.0084 ,1.08397 ,0.90103 ,8.84094 
322 ,59.1839 ,1.08575 ,0.90103 ,8.84094 
323 ,59.3604 ,1.08753 ,0.89077 ,8.74020 
324 ,59.5526 ,1.08945 ,0.84970 ,8.33726 
325 ,59.7444 ,1.09132 ,0.87023 ,8.53873 
326 ,59.9207 ,1.09308 ,0.84970 ,8.33726 
327 ,60.1129 ,1.09500 ,0.81890 ,8.03506 
328 ,60.3045 ,1.09690 ,0.82232 ,8.06864 
329 ,60.4810 ,1.09869 ,0.82917 ,8.13579 
330 ,60.6891 ,1.10072 ,0.79837 ,7.83359 
331 ,60.8650 ,1.10255 ,0.79837 ,7.83359 
332 ,61.0570 ,1.10449 ,0.78126 ,7.66570 
333 ,61.2328 ,1.10618 ,0.75388 ,7.39707 
334 ,61.4088 ,1.10793 ,0.74704 ,7.32991 
335 ,61.5688 ,1.10970 ,0.75388 ,7.39707 
336 ,61.7454 ,1.11136 ,0.74704 ,7.32991 
337 ,61.9534 ,1.11341 ,0.71281 ,6.99413 
338 ,62.1455 ,1.11528 ,0.71624 ,7.02771 
339 ,62.3376 ,1.11716 ,0.72308 ,7.09486 
340 ,62.5457 ,1.11924 ,0.69228 ,6.79266 
341 ,62.7216 ,1.12108 ,0.68544 ,6.72550 
342 ,62.8980 ,1.12286 ,0.67175 ,6.59119 
343 ,63.0739 ,1.12466 ,0.65121 ,6.38972 
344 ,63.2499 ,1.12638 ,0.64095 ,6.28899 
345 ,63.4100 ,1.12806 ,0.63410 ,6.22183 
346 ,63.5699 ,1.12968 ,0.64095 ,6.28899 
347 ,63.7462 ,1.13134 ,0.61699 ,6.05394 
348 ,63.9223 ,1.13309 ,0.61699 ,6.05394 
349 ,64.0983 ,1.13487 ,0.59304 ,5.81889 
350 ,64.2742 ,1.13659 ,0.57593 ,5.65100 
351 ,64.4505 ,1.13835 ,0.56908 ,5.58384 
352 ,64.6264 ,1.14009 ,0.55882 ,5.48311 
353 ,64.8346 ,1.14207 ,0.54171 ,5.31522 
354 ,65.0265 ,1.14406 ,0.54855 ,5.38237 
355 ,65.2029 ,1.14590 ,0.53144 ,5.21448 
356 ,65.3946 ,1.14780 ,0.51433 ,5.04659 
357 ,65.5868 ,1.14968 ,0.50748 ,4.97943 
358 ,65.7790 ,1.15157 ,0.49722 ,4.87870 
359 ,65.9868 ,1.15366 ,0.48011 ,4.71081 
360 ,66.1470 ,1.15542 ,0.48695 ,4.77796 
361 ,66.3233 ,1.15710 ,0.45957 ,4.50934 
362 ,66.5313 ,1.15914 ,0.44246 ,4.34144 
363 ,66.7073 ,1.16094 ,0.44588 ,4.37502 
364 ,66.8835 ,1.16269 ,0.44588 ,4.37502 
365 ,67.0597 ,1.16447 ,0.43562 ,4.27429 
366 ,67.2677 ,1.16641 ,0.41851 ,4.10640 
367 ,67.4598 ,1.16836 ,0.40824 ,4.00566 
368 ,67.6679 ,1.17043 ,0.39797 ,3.90493 
369 ,67.8436 ,1.17227 ,0.37060 ,3.63630 
370 ,68.0360 ,1.17418 ,0.36718 ,3.60272 
371 ,68.2281 ,1.17615 ,0.35349 ,3.46841 
372 ,68.4038 ,1.17788 ,0.33980 ,3.33410 
373 ,68.5800 ,1.17961 ,0.34664 ,3.40125 
374 ,68.7561 ,1.18141 ,0.31926 ,3.13263 
375 ,68.9484 ,1.18330 ,0.31242 ,3.06547 
376 ,69.1563 ,1.18533 ,0.29531 ,2.89758 
377 ,69.3325 ,1.18722 ,0.29189 ,2.86400 
378 ,69.5086 ,1.18894 ,0.28162 ,2.76326 
379 ,69.7007 ,1.19078 ,0.28162 ,2.76326 
380 ,69.8763 ,1.19265 ,0.26793 ,2.62895 
381 ,70.0527 ,1.19437 ,0.25082 ,2.46106 
382 ,70.2609 ,1.19641 ,0.24398 ,2.39390 
383 ,70.4532 ,1.19837 ,0.21660 ,2.12528 
384 ,70.6610 ,1.20038 ,0.22344 ,2.19243 
385 ,70.8371 ,1.20216 ,0.20291 ,1.99096 
386 ,71.0451 ,1.20420 ,0.20976 ,2.05812 
387 ,71.2373 ,1.20614 ,0.18580 ,1.82307 
388 ,71.4294 ,1.20805 ,0.17896 ,1.75592 
389 ,71.6375 ,1.21014 ,0.16869 ,1.65518 
390 ,71.8296 ,1.21207 ,0.15842 ,1.55445 
391 ,71.9892 ,1.21388 ,0.14816 ,1.45371 
392 ,72.1658 ,1.21551 ,0.13105 ,1.28582 
393 ,72.3578 ,1.21741 ,0.13447 ,1.31940 
394 ,72.5659 ,1.21944 ,0.12078 ,1.18508 
395 ,72.7577 ,1.22136 ,0.10025 ,0.98361 
396 ,72.9501 ,1.22337 ,0.09340 ,0.91646 
397 ,73.1417 ,1.22515 ,0.08314 ,0.81572 
398 ,73.3181 ,1.22703 ,0.08314 ,0.81572 
399 ,73.4939 ,1.22875 ,0.06260 ,0.61425 
400 ,73.6703 ,1.23054 ,0.04891 ,0.47994 
401 ,73.8462 ,1.23226 ,0.05234 ,0.51352 
402 ,74.0385 ,1.23421 ,0.04207 ,0.41278 
403 ,74.2465 ,1.23620 ,0.02496 ,0.24489 
404 ,74.4544 ,1.23831 ,0.00443 ,0.04342 
405 ,74.6466 ,1.24025 ,0.01127 ,0.11058 
406 ,74.8388 ,1.24214 ,0.00100 ,0.00984 
407 ,75.0308 ,1.24408 ,-0.01953 ,-0.19163 
408 ,75.2229 ,1.24598 ,-0.01611 ,-0.15805 
409 ,75.3989 ,1.24778 ,-0.03322 ,-0.32594 
410 ,75.5910 ,1.24968 ,-0.06060 ,-0.59457 
411 ,75.7672 ,1.25150 ,-0.06402 ,-0.62814 
412 ,75.9592 ,1.25343 ,-0.06060 ,-0.59457 
413 ,76.1350 ,1.25513 ,-0.09140 ,-0.89677 
414 ,76.2953 ,1.25688 ,-0.09140 ,-0.89677 
415 ,76.4715 ,1.25851 ,-0.09482 ,-0.93035 
416 ,76.6475 ,1.26026 ,-0.09482 ,-0.93035 
417 ,76.8396 ,1.26224 ,-0.10851 ,-1.06466 
418 ,77.0312 ,1.26415 ,-0.11877 ,-1.16540 
419 ,77.2078 ,1.26592 ,-0.12219 ,-1.19898 
420 ,77.3837 ,1.26769 ,-0.14273 ,-1.40045 
421 ,77.5599 ,1.26940 ,-0.15299 ,-1.50118 
422 ,77.7359 ,1.27119 ,-0.15642 ,-1.53476 
423 ,77.9120 ,1.27304 ,-0.15984 ,-1.56834 
424 ,78.1040 ,1.27481 ,-0.16326 ,-1.60191 
425 ,78.3121 ,1.27689 ,-0.19748 ,-1.93770 
426 ,78.4880 ,1.27870 ,-0.21802 ,-2.13917 
427 ,78.6804 ,1.28054 ,-0.20090 ,-1.97128 
428 ,78.8562 ,1.28242 ,-0.20433 ,-2.00485 
429 ,79.0325 ,1.28412 ,-0.22144 ,-2.17275 
430 ,79.2405 ,1.28618 ,-0.22144 ,-2.17275 
431 ,79.4323 ,1.28812 ,-0.24881 ,-2.44137 
432 ,79.6246 ,1.28998 ,-0.25908 ,-2.54211 
433 ,79.8168 ,1.29201 ,-0.25566 ,-2.50853 
434 ,79.9929 ,1.29373 ,-0.27277 ,-2.67642 
435 ,80.1846 ,1.29565 ,-0.26250 ,-2.57569 
436 ,80.3611 ,1.29741 ,-0.27961 ,-2.74358 
437 ,80.5530 ,1.29931 ,-0.30699 ,-3.01220 
438 ,80.7293 ,1.30112 ,-0.31384 ,-3.07936 
439 ,80.9213 ,1.30297 ,-0.31041 ,-3.04578 
440 ,81.0974 ,1.30473 ,-0.33095 ,-3.24725 
441 ,81.2895 ,1.30661 ,-0.34464 ,-3.38156 
442 ,81.4815 ,1.30864 ,-0.33437 ,-3.28083 
443 ,81.6575 ,1.31043 ,-0.35832 ,-3.51588 
444 ,81.8497 ,1.31227 ,-0.36517 ,-3.58303 
445 ,82.0254 ,1.31405 ,-0.36517 ,-3.58303 
446 ,82.2018 ,1.31579 ,-0.36859 ,-3.61661 
447 ,82.3778 ,1.31756 ,-0.36517 ,-3.58303 
448 ,82.5859 ,1.31957 ,-0.37886 ,-3.71735 
449 ,82.7780 ,1.32149 ,-0.39597 ,-3.88524 
450 ,82.9861 ,1.32356 ,-0.41308 ,-4.05313 
451 ,83.1781 ,1.32559 ,-0.40623 ,-3.98597 
452 ,83.3701 ,1.32738 ,-0.43703 ,-4.28818 
453 ,83.5461 ,1.32925 ,-0.44046 ,-4.32176 
454 ,83.7382 ,1.33119 ,-0.44388 ,-4.35534 
455 ,83.9303 ,1.33298 ,-0.45414 ,-4.45607 
456 ,84.1066 ,1.33483 ,-0.46783 ,-4.59038 
457 ,84.2987 ,1.33671 ,-0.47468 ,-4.65754 
458 ,84.4906 ,1.33874 ,-0.47810 ,-4.69112 
459 ,84.6828 ,1.34053 ,-0.48152 ,-4.72470 
460 ,84.8589 ,1.34241 ,-0.49179 ,-4.82543 
461 ,85.0510 ,1.34429 ,-0.50890 ,-4.99332 
462 ,85.2430 ,1.34618 ,-0.51917 ,-5.09406 
463 ,85.4194 ,1.34799 ,-0.51574 ,-5.06048 
464 ,85.6113 ,1.34987 ,-0.54312 ,-5.32911 
