Data stamp = , 06-04-2022 19:18:25 206

Calibration Values: 
Slope = , 26.54 , g/V 
Offset Voltage at no contact = , -0.501760 , V 

No , Time , Stage Position ,   Mass , Force 
   ,  (s) ,      (mm)      ,   (g)  , (mN)  

1 ,0.0000 ,0.49936 ,5.22665 ,51.28391 
2 ,0.2159 ,0.49945 ,5.22323 ,51.25033 
3 ,0.5361 ,0.50028 ,5.20612 ,51.08244 
4 ,0.7283 ,0.50171 ,5.20954 ,51.11602 
5 ,0.9202 ,0.50329 ,5.23692 ,51.38464 
6 ,1.0965 ,0.50506 ,5.23007 ,51.31749 
7 ,1.2726 ,0.50675 ,5.21981 ,51.21675 
8 ,1.4647 ,0.50864 ,5.22323 ,51.25033 
9 ,1.6407 ,0.51052 ,5.21981 ,51.21675 
10 ,1.8168 ,0.51224 ,5.20954 ,51.11602 
11 ,1.9929 ,0.51409 ,5.17874 ,50.81381 
12 ,2.1690 ,0.51580 ,5.15821 ,50.61234 
13 ,2.3451 ,0.51758 ,5.15479 ,50.57876 
14 ,2.5370 ,0.51946 ,5.16163 ,50.64592 
15 ,2.7133 ,0.52128 ,5.15136 ,50.54519 
16 ,2.8893 ,0.52303 ,5.12056 ,50.24298 
17 ,3.0813 ,0.52485 ,5.11372 ,50.17583 
18 ,3.2574 ,0.52666 ,5.11714 ,50.20940 
19 ,3.4335 ,0.52842 ,5.08634 ,49.90720 
20 ,3.6255 ,0.53035 ,5.08292 ,49.87362 
21 ,3.8016 ,0.53214 ,5.07950 ,49.84004 
22 ,3.9777 ,0.53387 ,5.05554 ,49.60499 
23 ,4.1537 ,0.53562 ,5.02817 ,49.33637 
24 ,4.3298 ,0.53737 ,5.01106 ,49.16848 
25 ,4.5060 ,0.53912 ,5.00421 ,49.10132 
26 ,4.7142 ,0.54122 ,4.98026 ,48.86627 
27 ,4.9062 ,0.54314 ,4.98026 ,48.86627 
28 ,5.0821 ,0.54492 ,4.96657 ,48.73196 
29 ,5.2583 ,0.54664 ,4.92892 ,48.36260 
30 ,5.4342 ,0.54841 ,4.91181 ,48.19471 
31 ,5.6103 ,0.55018 ,4.90839 ,48.16113 
32 ,5.7865 ,0.55196 ,4.89470 ,48.02681 
33 ,5.9946 ,0.55396 ,4.87417 ,47.82534 
34 ,6.1867 ,0.55587 ,4.87759 ,47.85892 
35 ,6.3627 ,0.55775 ,4.85706 ,47.65745 
36 ,6.5387 ,0.55947 ,4.83652 ,47.45598 
37 ,6.7147 ,0.56119 ,4.81599 ,47.25451 
38 ,6.8909 ,0.56301 ,4.79546 ,47.05304 
39 ,7.0826 ,0.56489 ,4.78861 ,46.98589 
40 ,7.2591 ,0.56665 ,4.77835 ,46.88515 
41 ,7.4351 ,0.56842 ,4.74413 ,46.54937 
42 ,7.6432 ,0.57050 ,4.75097 ,46.61653 
43 ,7.8353 ,0.57243 ,4.72359 ,46.34790 
44 ,8.0116 ,0.57416 ,4.70990 ,46.21359 
45 ,8.1876 ,0.57595 ,4.69622 ,46.07927 
46 ,8.3796 ,0.57778 ,4.67568 ,45.87780 
47 ,8.5877 ,0.57987 ,4.67568 ,45.87780 
48 ,8.7636 ,0.58170 ,4.65173 ,45.64275 
49 ,8.9398 ,0.58345 ,4.63804 ,45.50844 
50 ,9.1480 ,0.58551 ,4.62777 ,45.40771 
51 ,9.3560 ,0.58757 ,4.58328 ,44.97119 
52 ,9.5481 ,0.58945 ,4.57644 ,44.90403 
53 ,9.7401 ,0.59148 ,4.55933 ,44.73614 
54 ,9.9318 ,0.59340 ,4.53880 ,44.53467 
55 ,10.1083 ,0.59513 ,4.54906 ,44.63541 
56 ,10.2844 ,0.59691 ,4.52511 ,44.40036 
57 ,10.5084 ,0.59898 ,4.51484 ,44.29962 
58 ,10.6844 ,0.60085 ,4.49773 ,44.13173 
59 ,10.8607 ,0.60270 ,4.47378 ,43.89668 
60 ,11.0363 ,0.60446 ,4.46351 ,43.79595 
61 ,11.2125 ,0.60624 ,4.44298 ,43.59448 
62 ,11.3887 ,0.60793 ,4.43271 ,43.49374 
63 ,11.5810 ,0.60987 ,4.43271 ,43.49374 
64 ,11.7570 ,0.61163 ,4.38138 ,42.99007 
65 ,11.9491 ,0.61356 ,4.40533 ,43.22512 
66 ,12.1411 ,0.61541 ,4.36769 ,42.85576 
67 ,12.3489 ,0.61748 ,4.36427 ,42.82218 
68 ,12.5251 ,0.61926 ,4.36084 ,42.78860 
69 ,12.7014 ,0.62109 ,4.31293 ,42.31850 
70 ,12.8934 ,0.62300 ,4.30267 ,42.21777 
71 ,13.0692 ,0.62472 ,4.29924 ,42.18419 
72 ,13.2457 ,0.62655 ,4.28213 ,42.01630 
73 ,13.4534 ,0.62856 ,4.25818 ,41.78125 
74 ,13.6298 ,0.63038 ,4.24449 ,41.64694 
75 ,13.8218 ,0.63221 ,4.21711 ,41.37831 
76 ,13.9979 ,0.63410 ,4.20342 ,41.24400 
77 ,14.1899 ,0.63589 ,4.20000 ,41.21042 
78 ,14.3659 ,0.63767 ,4.20000 ,41.21042 
79 ,14.5420 ,0.63946 ,4.16236 ,40.84106 
80 ,14.7183 ,0.64125 ,4.15209 ,40.74032 
81 ,14.9102 ,0.64309 ,4.14183 ,40.63959 
82 ,15.0862 ,0.64490 ,4.13498 ,40.57243 
83 ,15.2623 ,0.64666 ,4.11787 ,40.40454 
84 ,15.4544 ,0.64855 ,4.07680 ,40.00160 
85 ,15.6302 ,0.65039 ,4.07338 ,39.96802 
86 ,15.8067 ,0.65210 ,4.06996 ,39.93444 
87 ,15.9987 ,0.65405 ,4.02889 ,39.53150 
88 ,16.1747 ,0.65574 ,4.03916 ,39.63224 
89 ,16.3508 ,0.65749 ,4.01863 ,39.43077 
90 ,16.5268 ,0.65928 ,4.01863 ,39.43077 
91 ,16.7190 ,0.66110 ,3.98441 ,39.09499 
92 ,16.8951 ,0.66304 ,3.96729 ,38.92709 
93 ,17.0872 ,0.66497 ,3.96729 ,38.92709 
94 ,17.2791 ,0.66676 ,3.93650 ,38.62489 
95 ,17.4553 ,0.66855 ,3.91254 ,38.38984 
96 ,17.6313 ,0.67034 ,3.92623 ,38.52415 
97 ,17.8072 ,0.67212 ,3.90227 ,38.28911 
98 ,17.9994 ,0.67397 ,3.87147 ,37.98690 
99 ,18.1756 ,0.67575 ,3.86121 ,37.88617 
100 ,18.3833 ,0.67778 ,3.84067 ,37.68470 
101 ,18.5598 ,0.67961 ,3.83725 ,37.65112 
102 ,18.7516 ,0.68151 ,3.83383 ,37.61754 
103 ,18.9279 ,0.68332 ,3.81672 ,37.44965 
104 ,19.1197 ,0.68524 ,3.79276 ,37.21460 
105 ,19.2960 ,0.68702 ,3.77223 ,37.01313 
106 ,19.4721 ,0.68870 ,3.77565 ,37.04671 
107 ,19.6641 ,0.69066 ,3.74485 ,36.74450 
108 ,19.8403 ,0.69243 ,3.71748 ,36.47588 
109 ,20.0324 ,0.69434 ,3.72774 ,36.57661 
110 ,20.2240 ,0.69625 ,3.69694 ,36.27441 
111 ,20.4005 ,0.69804 ,3.66957 ,36.00578 
112 ,20.5926 ,0.69993 ,3.69010 ,36.20725 
113 ,20.7841 ,0.70178 ,3.65246 ,35.83789 
114 ,20.9607 ,0.70359 ,3.62850 ,35.60284 
115 ,21.1844 ,0.70570 ,3.61139 ,35.43495 
116 ,21.3768 ,0.70775 ,3.59770 ,35.30064 
117 ,21.5525 ,0.70958 ,3.59428 ,35.26706 
118 ,21.7287 ,0.71132 ,3.58743 ,35.19990 
119 ,21.9211 ,0.71323 ,3.56006 ,34.93128 
120 ,22.0972 ,0.71503 ,3.53610 ,34.69623 
121 ,22.3211 ,0.71709 ,3.53268 ,34.66265 
122 ,22.4972 ,0.71901 ,3.50872 ,34.42760 
123 ,22.7213 ,0.72105 ,3.49161 ,34.25971 
124 ,22.9131 ,0.72311 ,3.49846 ,34.32687 
125 ,23.1055 ,0.72497 ,3.47792 ,34.12540 
126 ,23.2976 ,0.72700 ,3.45397 ,33.89035 
127 ,23.4896 ,0.72889 ,3.45055 ,33.85677 
128 ,23.6656 ,0.73063 ,3.43344 ,33.68888 
129 ,23.8578 ,0.73252 ,3.40948 ,33.45383 
130 ,24.0658 ,0.73454 ,3.40606 ,33.42025 
131 ,24.2420 ,0.73642 ,3.37184 ,33.08447 
132 ,24.4181 ,0.73822 ,3.36157 ,32.98374 
133 ,24.6099 ,0.74010 ,3.36499 ,33.01731 
134 ,24.8022 ,0.74198 ,3.34104 ,32.78227 
135 ,24.9783 ,0.74378 ,3.32051 ,32.58080 
136 ,25.1862 ,0.74586 ,3.32051 ,32.58080 
137 ,25.3463 ,0.74757 ,3.28971 ,32.27859 
138 ,25.5224 ,0.74920 ,3.27944 ,32.17786 
139 ,25.7303 ,0.75128 ,3.26917 ,32.07712 
140 ,25.9067 ,0.75310 ,3.24864 ,31.87565 
141 ,26.1144 ,0.75507 ,3.24864 ,31.87565 
142 ,26.2907 ,0.75688 ,3.23495 ,31.74134 
143 ,26.4667 ,0.75872 ,3.20415 ,31.43913 
144 ,26.6428 ,0.76042 ,3.19046 ,31.30482 
145 ,26.8188 ,0.76220 ,3.16651 ,31.06977 
146 ,27.0113 ,0.76409 ,3.18020 ,31.20409 
147 ,27.1871 ,0.76589 ,3.14940 ,30.90188 
148 ,27.3793 ,0.76765 ,3.12886 ,30.70041 
149 ,27.5712 ,0.76971 ,3.14255 ,30.83472 
150 ,27.7475 ,0.77141 ,3.10149 ,30.43178 
151 ,27.9391 ,0.77341 ,3.11175 ,30.53252 
152 ,28.1156 ,0.77516 ,3.07411 ,30.16316 
153 ,28.3076 ,0.77710 ,3.07411 ,30.16316 
154 ,28.4837 ,0.77880 ,3.03989 ,29.82737 
155 ,28.6598 ,0.78059 ,3.03304 ,29.76022 
156 ,28.8356 ,0.78236 ,3.02962 ,29.72664 
157 ,29.0116 ,0.78412 ,3.01935 ,29.62590 
158 ,29.1880 ,0.78591 ,2.99882 ,29.42444 
159 ,29.3961 ,0.78791 ,2.98171 ,29.25654 
160 ,29.6040 ,0.78989 ,2.95433 ,28.98792 
161 ,29.7801 ,0.79179 ,2.95776 ,29.02150 
162 ,29.9564 ,0.79351 ,2.95433 ,28.98792 
163 ,30.1319 ,0.79530 ,2.94407 ,28.88718 
164 ,30.3082 ,0.79711 ,2.91327 ,28.58498 
165 ,30.4845 ,0.79881 ,2.89616 ,28.41709 
166 ,30.6764 ,0.80069 ,2.88589 ,28.31635 
167 ,30.8525 ,0.80249 ,2.87905 ,28.24919 
168 ,31.0286 ,0.80425 ,2.85851 ,28.04772 
169 ,31.2045 ,0.80601 ,2.83798 ,27.84625 
170 ,31.3808 ,0.80778 ,2.83798 ,27.84625 
171 ,31.5564 ,0.80954 ,2.81745 ,27.64479 
172 ,31.7325 ,0.81135 ,2.79349 ,27.40974 
173 ,31.9086 ,0.81308 ,2.79349 ,27.40974 
174 ,32.0848 ,0.81482 ,2.77296 ,27.20827 
175 ,32.2927 ,0.81692 ,2.76611 ,27.14111 
176 ,32.4691 ,0.81867 ,2.74216 ,26.90606 
177 ,32.6615 ,0.82052 ,2.73189 ,26.80533 
178 ,32.8532 ,0.82253 ,2.72847 ,26.77175 
179 ,33.0291 ,0.82428 ,2.69425 ,26.43597 
180 ,33.2057 ,0.82604 ,2.68398 ,26.33523 
181 ,33.4132 ,0.82802 ,2.68398 ,26.33523 
182 ,33.6218 ,0.83008 ,2.66003 ,26.10018 
183 ,33.8137 ,0.83209 ,2.65318 ,26.03303 
184 ,34.0060 ,0.83393 ,2.63265 ,25.83156 
185 ,34.1980 ,0.83586 ,2.62923 ,25.79798 
186 ,34.4059 ,0.83793 ,2.60869 ,25.59651 
187 ,34.5982 ,0.83992 ,2.60185 ,25.52935 
188 ,34.7898 ,0.84183 ,2.55394 ,25.05926 
189 ,34.9659 ,0.84362 ,2.54367 ,24.95852 
190 ,35.1422 ,0.84537 ,2.54025 ,24.92494 
191 ,35.3343 ,0.84731 ,2.53683 ,24.89136 
192 ,35.5422 ,0.84932 ,2.51630 ,24.68989 
193 ,35.7185 ,0.85115 ,2.51630 ,24.68989 
194 ,35.9108 ,0.85309 ,2.48892 ,24.42127 
195 ,36.0867 ,0.85480 ,2.45812 ,24.11906 
196 ,36.2628 ,0.85659 ,2.45127 ,24.05191 
197 ,36.4389 ,0.85835 ,2.45812 ,24.11906 
198 ,36.6306 ,0.86023 ,2.42390 ,23.78328 
199 ,36.8070 ,0.86203 ,2.39994 ,23.54823 
200 ,36.9830 ,0.86376 ,2.39994 ,23.54823 
201 ,37.1592 ,0.86554 ,2.39310 ,23.48108 
202 ,37.3353 ,0.86730 ,2.38625 ,23.41392 
203 ,37.5269 ,0.86926 ,2.34861 ,23.04456 
204 ,37.7194 ,0.87112 ,2.36914 ,23.24603 
205 ,37.9114 ,0.87311 ,2.32465 ,22.80951 
206 ,38.1034 ,0.87500 ,2.31439 ,22.70877 
207 ,38.2796 ,0.87672 ,2.31097 ,22.67520 
208 ,38.4558 ,0.87847 ,2.29043 ,22.47373 
209 ,38.6317 ,0.88031 ,2.28359 ,22.40657 
210 ,38.8236 ,0.88219 ,2.25279 ,22.10437 
211 ,39.0000 ,0.88396 ,2.25621 ,22.13794 
212 ,39.1919 ,0.88582 ,2.21857 ,21.76858 
213 ,39.3841 ,0.88775 ,2.22541 ,21.83574 
214 ,39.5921 ,0.88985 ,2.18777 ,21.46638 
215 ,39.7679 ,0.89165 ,2.18092 ,21.39922 
216 ,39.9442 ,0.89341 ,2.17066 ,21.29849 
217 ,40.1041 ,0.89511 ,2.16723 ,21.26491 
218 ,40.2800 ,0.89675 ,2.15012 ,21.09702 
219 ,40.4561 ,0.89851 ,2.15012 ,21.09702 
220 ,40.6321 ,0.90026 ,2.13644 ,20.96270 
221 ,40.8084 ,0.90204 ,2.11590 ,20.76123 
222 ,41.0168 ,0.90399 ,2.11248 ,20.72766 
223 ,41.2089 ,0.90606 ,2.07826 ,20.39187 
224 ,41.4010 ,0.90793 ,2.08510 ,20.45903 
225 ,41.5930 ,0.90985 ,2.05773 ,20.19040 
226 ,41.8012 ,0.91182 ,2.05088 ,20.12325 
227 ,41.9930 ,0.91379 ,2.00639 ,19.68673 
228 ,42.1692 ,0.91562 ,1.99613 ,19.58599 
229 ,42.3452 ,0.91734 ,1.99955 ,19.61957 
230 ,42.5214 ,0.91918 ,1.98928 ,19.51884 
231 ,42.7132 ,0.92099 ,1.96533 ,19.28379 
232 ,42.8896 ,0.92281 ,1.94479 ,19.08232 
233 ,43.0975 ,0.92475 ,1.93453 ,18.98158 
234 ,43.2734 ,0.92664 ,1.93453 ,18.98158 
235 ,43.4497 ,0.92842 ,1.90031 ,18.64580 
236 ,43.6578 ,0.93045 ,1.89004 ,18.54507 
237 ,43.8335 ,0.93225 ,1.87293 ,18.37717 
238 ,44.0098 ,0.93403 ,1.85582 ,18.20928 
239 ,44.1860 ,0.93581 ,1.86266 ,18.27644 
240 ,44.3941 ,0.93779 ,1.83186 ,17.97423 
241 ,44.5860 ,0.93972 ,1.84555 ,18.10855 
242 ,44.7623 ,0.94157 ,1.82160 ,17.87350 
243 ,44.9379 ,0.94333 ,1.80449 ,17.70561 
244 ,45.1140 ,0.94505 ,1.78053 ,17.47056 
245 ,45.2905 ,0.94684 ,1.77711 ,17.43698 
246 ,45.4665 ,0.94862 ,1.76000 ,17.26909 
247 ,45.6426 ,0.95031 ,1.76684 ,17.33625 
248 ,45.8508 ,0.95241 ,1.73604 ,17.03404 
249 ,46.0429 ,0.95438 ,1.72920 ,16.96689 
250 ,46.2189 ,0.95617 ,1.69155 ,16.59752 
251 ,46.3948 ,0.95786 ,1.68471 ,16.53037 
252 ,46.5872 ,0.95973 ,1.69840 ,16.66468 
253 ,46.7791 ,0.96171 ,1.66760 ,16.36248 
254 ,46.9390 ,0.96344 ,1.65733 ,16.26174 
255 ,47.1153 ,0.96503 ,1.64364 ,16.12743 
256 ,47.2912 ,0.96684 ,1.62311 ,15.92596 
257 ,47.4675 ,0.96856 ,1.61969 ,15.89238 
258 ,47.6434 ,0.97035 ,1.61284 ,15.82522 
259 ,47.8196 ,0.97206 ,1.58889 ,15.59018 
260 ,47.9796 ,0.97381 ,1.56493 ,15.35513 
261 ,48.1557 ,0.97544 ,1.55124 ,15.22081 
262 ,48.3478 ,0.97738 ,1.55809 ,15.28797 
263 ,48.5238 ,0.97908 ,1.54098 ,15.12008 
264 ,48.6999 ,0.98091 ,1.53756 ,15.08650 
265 ,48.8761 ,0.98268 ,1.50676 ,14.78430 
266 ,49.0841 ,0.98471 ,1.51702 ,14.88503 
267 ,49.2761 ,0.98656 ,1.50333 ,14.75072 
268 ,49.4522 ,0.98841 ,1.46227 ,14.34778 
269 ,49.6443 ,0.99034 ,1.46569 ,14.38136 
270 ,49.8204 ,0.99213 ,1.44858 ,14.21346 
271 ,50.0126 ,0.99402 ,1.42805 ,14.01199 
272 ,50.1885 ,0.99582 ,1.42805 ,14.01199 
273 ,50.3645 ,0.99755 ,1.42462 ,13.97842 
274 ,50.5405 ,0.99930 ,1.39725 ,13.70979 
275 ,50.7327 ,1.00127 ,1.37671 ,13.50832 
276 ,50.9088 ,1.00302 ,1.37329 ,13.47474 
277 ,51.0849 ,1.00474 ,1.36987 ,13.44116 
278 ,51.2770 ,1.00659 ,1.32196 ,12.97107 
279 ,51.4530 ,1.00842 ,1.32196 ,12.97107 
280 ,51.6292 ,1.01020 ,1.31854 ,12.93749 
281 ,51.8373 ,1.01230 ,1.29800 ,12.73602 
282 ,52.0130 ,1.01414 ,1.29116 ,12.66886 
283 ,52.1893 ,1.01580 ,1.28774 ,12.63528 
284 ,52.3655 ,1.01752 ,1.27063 ,12.46739 
285 ,52.5412 ,1.01931 ,1.26378 ,12.40024 
286 ,52.7176 ,1.02111 ,1.23983 ,12.16519 
287 ,52.9099 ,1.02301 ,1.23298 ,12.09803 
288 ,53.1014 ,1.02484 ,1.21245 ,11.89656 
289 ,53.2777 ,1.02663 ,1.18850 ,11.66151 
290 ,53.4538 ,1.02842 ,1.18507 ,11.62794 
291 ,53.6296 ,1.03032 ,1.18507 ,11.62794 
292 ,53.8060 ,1.03199 ,1.16454 ,11.42647 
293 ,53.9822 ,1.03374 ,1.16454 ,11.42647 
294 ,54.1582 ,1.03543 ,1.14058 ,11.19142 
295 ,54.3339 ,1.03723 ,1.12690 ,11.05710 
296 ,54.5103 ,1.03898 ,1.13032 ,11.09068 
297 ,54.7021 ,1.04088 ,1.09610 ,10.75490 
298 ,54.8944 ,1.04276 ,1.08925 ,10.68774 
299 ,55.0865 ,1.04473 ,1.07556 ,10.55343 
300 ,55.2626 ,1.04654 ,1.06530 ,10.45270 
301 ,55.4867 ,1.04854 ,1.05503 ,10.35196 
302 ,55.6627 ,1.05053 ,1.03450 ,10.15049 
303 ,55.8387 ,1.05228 ,1.01396 ,9.94902 
304 ,56.0309 ,1.05415 ,1.02765 ,10.08333 
305 ,56.2071 ,1.05600 ,1.01396 ,9.94902 
306 ,56.3991 ,1.05779 ,0.97974 ,9.61324 
307 ,56.5913 ,1.05975 ,0.97974 ,9.61324 
308 ,56.7673 ,1.06158 ,0.97632 ,9.57966 
309 ,56.9430 ,1.06336 ,0.94894 ,9.31103 
310 ,57.1354 ,1.06515 ,0.93525 ,9.17672 
311 ,57.3116 ,1.06700 ,0.93525 ,9.17672 
312 ,57.4875 ,1.06878 ,0.93183 ,9.14314 
313 ,57.6634 ,1.07057 ,0.91472 ,8.97525 
314 ,57.8397 ,1.07228 ,0.88734 ,8.70662 
315 ,58.0158 ,1.07404 ,0.86339 ,8.47158 
316 ,58.2078 ,1.07595 ,0.89077 ,8.74020 
317 ,58.3837 ,1.07767 ,0.85654 ,8.40442 
318 ,58.5600 ,1.07947 ,0.83943 ,8.23653 
319 ,58.7520 ,1.08140 ,0.83943 ,8.23653 
320 ,58.9278 ,1.08317 ,0.83259 ,8.16937 
321 ,59.1041 ,1.08495 ,0.81206 ,7.96790 
322 ,59.2962 ,1.08677 ,0.80863 ,7.93432 
323 ,59.4722 ,1.08858 ,0.79837 ,7.83359 
324 ,59.6482 ,1.09037 ,0.77784 ,7.63212 
325 ,59.8243 ,1.09213 ,0.76757 ,7.53138 
326 ,60.0164 ,1.09397 ,0.76072 ,7.46423 
327 ,60.2086 ,1.09595 ,0.74019 ,7.26276 
328 ,60.4006 ,1.09786 ,0.71966 ,7.06129 
329 ,60.5767 ,1.09967 ,0.71624 ,7.02771 
330 ,60.7528 ,1.10134 ,0.70939 ,6.96055 
331 ,60.9448 ,1.10330 ,0.68886 ,6.75908 
332 ,61.1205 ,1.10503 ,0.67175 ,6.59119 
333 ,61.2971 ,1.10680 ,0.67517 ,6.62477 
334 ,61.5052 ,1.10885 ,0.64437 ,6.32256 
335 ,61.6972 ,1.11080 ,0.65121 ,6.38972 
336 ,61.8733 ,1.11260 ,0.65464 ,6.42330 
337 ,62.0493 ,1.11435 ,0.64095 ,6.28899 
338 ,62.2093 ,1.11608 ,0.60673 ,5.95320 
339 ,62.3854 ,1.11767 ,0.60673 ,5.95320 
340 ,62.5616 ,1.11943 ,0.59304 ,5.81889 
341 ,62.7534 ,1.12134 ,0.59988 ,5.88605 
342 ,62.9294 ,1.12316 ,0.58277 ,5.71815 
343 ,63.1058 ,1.12493 ,0.56908 ,5.58384 
344 ,63.2818 ,1.12672 ,0.56224 ,5.51668 
345 ,63.4579 ,1.12843 ,0.53486 ,5.24806 
346 ,63.6339 ,1.13016 ,0.54855 ,5.38237 
347 ,63.8103 ,1.13195 ,0.54171 ,5.31522 
348 ,63.9861 ,1.13375 ,0.50064 ,4.91228 
349 ,64.1782 ,1.13563 ,0.50748 ,4.97943 
350 ,64.3381 ,1.13736 ,0.50064 ,4.91228 
351 ,64.5146 ,1.13896 ,0.50064 ,4.91228 
352 ,64.6904 ,1.14077 ,0.48011 ,4.71081 
353 ,64.8665 ,1.14248 ,0.45957 ,4.50934 
354 ,65.0584 ,1.14430 ,0.43220 ,4.24071 
355 ,65.2506 ,1.14632 ,0.43562 ,4.27429 
356 ,65.4266 ,1.14815 ,0.43220 ,4.24071 
357 ,65.6189 ,1.15004 ,0.41166 ,4.03924 
358 ,65.8108 ,1.15192 ,0.41509 ,4.07282 
359 ,66.0030 ,1.15386 ,0.38429 ,3.77061 
360 ,66.1950 ,1.15575 ,0.39113 ,3.83777 
361 ,66.3708 ,1.15755 ,0.36033 ,3.53557 
362 ,66.5631 ,1.15938 ,0.35349 ,3.46841 
363 ,66.7391 ,1.16135 ,0.35006 ,3.43483 
364 ,66.9155 ,1.16298 ,0.35691 ,3.50199 
365 ,67.1073 ,1.16483 ,0.33980 ,3.33410 
366 ,67.2834 ,1.16664 ,0.31242 ,3.06547 
367 ,67.4592 ,1.16857 ,0.31926 ,3.13263 
368 ,67.6356 ,1.17024 ,0.30900 ,3.03189 
369 ,67.8277 ,1.17214 ,0.27478 ,2.69611 
370 ,68.0196 ,1.17402 ,0.27478 ,2.69611 
371 ,68.1958 ,1.17578 ,0.28162 ,2.76326 
372 ,68.4037 ,1.17778 ,0.25767 ,2.52822 
373 ,68.5798 ,1.17961 ,0.25424 ,2.49464 
374 ,68.7560 ,1.18136 ,0.24398 ,2.39390 
375 ,68.9320 ,1.18313 ,0.22002 ,2.15885 
376 ,69.1081 ,1.18492 ,0.21660 ,2.12528 
377 ,69.2841 ,1.18667 ,0.19607 ,1.92381 
378 ,69.4763 ,1.18862 ,0.20633 ,2.02454 
379 ,69.6682 ,1.19049 ,0.17896 ,1.75592 
380 ,69.8605 ,1.19247 ,0.15500 ,1.52087 
381 ,70.0844 ,1.19458 ,0.16185 ,1.58802 
382 ,70.2764 ,1.19654 ,0.15500 ,1.52087 
383 ,70.4526 ,1.19834 ,0.14816 ,1.45371 
384 ,70.6284 ,1.20014 ,0.11736 ,1.15151 
385 ,70.8049 ,1.20192 ,0.11051 ,1.08435 
386 ,71.0289 ,1.20394 ,0.10025 ,0.98361 
387 ,71.2207 ,1.20604 ,0.08656 ,0.84930 
388 ,71.3972 ,1.20779 ,0.09682 ,0.95004 
389 ,71.5728 ,1.20957 ,0.07287 ,0.71499 
390 ,71.7491 ,1.21129 ,0.05234 ,0.51352 
391 ,71.9253 ,1.21304 ,0.05234 ,0.51352 
392 ,72.1013 ,1.21483 ,0.05234 ,0.51352 
393 ,72.2775 ,1.21665 ,0.04891 ,0.47994 
394 ,72.4535 ,1.21836 ,0.03522 ,0.34563 
395 ,72.6454 ,1.22021 ,0.01469 ,0.14416 
396 ,72.8212 ,1.22200 ,0.01127 ,0.11058 
397 ,72.9973 ,1.22379 ,0.01127 ,0.11058 
398 ,73.1893 ,1.22562 ,-0.02295 ,-0.22520 
399 ,73.3654 ,1.22750 ,-0.01611 ,-0.15805 
400 ,73.5415 ,1.22922 ,-0.02980 ,-0.29236 
401 ,73.7177 ,1.23095 ,-0.02980 ,-0.29236 
402 ,73.8940 ,1.23277 ,-0.02295 ,-0.22520 
403 ,74.0701 ,1.23449 ,-0.06402 ,-0.62814 
404 ,74.2782 ,1.23643 ,-0.06402 ,-0.62814 
405 ,74.4702 ,1.23851 ,-0.08455 ,-0.82961 
406 ,74.6463 ,1.24028 ,-0.09482 ,-0.93035 
407 ,74.8225 ,1.24204 ,-0.09824 ,-0.96393 
408 ,75.0303 ,1.24407 ,-0.11193 ,-1.09824 
409 ,75.2226 ,1.24599 ,-0.10508 ,-1.03108 
410 ,75.3987 ,1.24780 ,-0.10166 ,-0.99751 
411 ,75.5744 ,1.24953 ,-0.12562 ,-1.23255 
412 ,75.7508 ,1.25130 ,-0.14615 ,-1.43402 
413 ,75.9268 ,1.25303 ,-0.14615 ,-1.43402 
414 ,76.1189 ,1.25496 ,-0.14615 ,-1.43402 
415 ,76.3107 ,1.25688 ,-0.17353 ,-1.70265 
416 ,76.5028 ,1.25876 ,-0.15984 ,-1.56834 
417 ,76.6950 ,1.26070 ,-0.19406 ,-1.90412 
418 ,76.8870 ,1.26268 ,-0.19064 ,-1.87054 
419 ,77.0631 ,1.26450 ,-0.20090 ,-1.97128 
420 ,77.2394 ,1.26619 ,-0.20090 ,-1.97128 
421 ,77.4315 ,1.26804 ,-0.23170 ,-2.27348 
422 ,77.6237 ,1.27003 ,-0.21117 ,-2.07201 
423 ,77.8158 ,1.27197 ,-0.23513 ,-2.30706 
424 ,78.0235 ,1.27395 ,-0.24197 ,-2.37422 
425 ,78.2318 ,1.27603 ,-0.26250 ,-2.57569 
426 ,78.4240 ,1.27803 ,-0.26593 ,-2.60926 
427 ,78.5999 ,1.27981 ,-0.26250 ,-2.57569 
428 ,78.7920 ,1.28164 ,-0.29673 ,-2.91147 
429 ,78.9677 ,1.28351 ,-0.29673 ,-2.91147 
430 ,79.1598 ,1.28530 ,-0.28304 ,-2.77716 
431 ,79.3361 ,1.28721 ,-0.30015 ,-2.94505 
432 ,79.5284 ,1.28909 ,-0.31041 ,-3.04578 
433 ,79.7206 ,1.29103 ,-0.32068 ,-3.14652 
434 ,79.9284 ,1.29300 ,-0.33095 ,-3.24725 
435 ,80.1205 ,1.29494 ,-0.33779 ,-3.31441 
436 ,80.2965 ,1.29676 ,-0.34806 ,-3.41514 
437 ,80.4723 ,1.29854 ,-0.37201 ,-3.65019 
438 ,80.6488 ,1.30029 ,-0.36859 ,-3.61661 
439 ,80.8247 ,1.30203 ,-0.36859 ,-3.61661 
440 ,81.0009 ,1.30387 ,-0.37886 ,-3.71735 
441 ,81.1771 ,1.30552 ,-0.38228 ,-3.75093 
442 ,81.3530 ,1.30737 ,-0.39255 ,-3.85166 
443 ,81.5289 ,1.30909 ,-0.41308 ,-4.05313 
444 ,81.7051 ,1.31082 ,-0.40281 ,-3.95240 
445 ,81.8970 ,1.31270 ,-0.41992 ,-4.12029 
446 ,82.0894 ,1.31463 ,-0.43703 ,-4.28818 
447 ,82.2814 ,1.31655 ,-0.44388 ,-4.35534 
448 ,82.4574 ,1.31836 ,-0.44046 ,-4.32176 
449 ,82.6496 ,1.32024 ,-0.45757 ,-4.48965 
450 ,82.8415 ,1.32218 ,-0.46441 ,-4.55681 
451 ,83.0179 ,1.32397 ,-0.47810 ,-4.69112 
452 ,83.2099 ,1.32584 ,-0.47126 ,-4.62396 
453 ,83.4016 ,1.32775 ,-0.47810 ,-4.69112 
454 ,83.5777 ,1.32958 ,-0.49863 ,-4.89259 
455 ,83.7699 ,1.33146 ,-0.50890 ,-4.99332 
456 ,83.9461 ,1.33323 ,-0.51574 ,-5.06048 
457 ,84.1381 ,1.33509 ,-0.53970 ,-5.29553 
458 ,84.3141 ,1.33691 ,-0.53970 ,-5.29553 
459 ,84.4904 ,1.33868 ,-0.54997 ,-5.39626 
460 ,84.6664 ,1.34041 ,-0.53970 ,-5.29553 
461 ,84.8425 ,1.34218 ,-0.54654 ,-5.36268 
462 ,85.0343 ,1.34407 ,-0.57050 ,-5.59773 
463 ,85.2104 ,1.34588 ,-0.58077 ,-5.69847 
464 ,85.4025 ,1.34777 ,-0.56708 ,-5.56415 
