Data stamp = , 07-04-2022 14:23:58 444

Calibration Values: 
Slope = , 26.54 , g/V 
Offset Voltage at no contact = , -0.501760 , V 

No , Time , Stage Position ,   Mass , Force 
   ,  (s) ,      (mm)      ,   (g)  , (mN)  

1 ,0.0000 ,0.49939 ,5.15821 ,50.61234 
2 ,0.2040 ,0.49946 ,5.14110 ,50.44445 
3 ,0.5080 ,0.50026 ,5.15479 ,50.57876 
4 ,0.7006 ,0.50157 ,5.17190 ,50.74666 
5 ,0.9084 ,0.50325 ,5.13425 ,50.37729 
6 ,1.0845 ,0.50496 ,5.15136 ,50.54519 
7 ,1.2607 ,0.50666 ,5.15821 ,50.61234 
8 ,1.4365 ,0.50850 ,5.15479 ,50.57876 
9 ,1.6126 ,0.51026 ,5.14452 ,50.47803 
10 ,1.7727 ,0.51202 ,5.14110 ,50.44445 
11 ,1.9493 ,0.51367 ,5.12399 ,50.27656 
12 ,2.1413 ,0.51561 ,5.13083 ,50.34372 
13 ,2.3172 ,0.51734 ,5.12741 ,50.31014 
14 ,2.4935 ,0.51909 ,5.09319 ,49.97436 
15 ,2.6852 ,0.52097 ,5.08977 ,49.94078 
16 ,2.8775 ,0.52284 ,5.08977 ,49.94078 
17 ,3.0534 ,0.52472 ,5.06239 ,49.67215 
18 ,3.2457 ,0.52661 ,5.05554 ,49.60499 
19 ,3.4217 ,0.52841 ,5.05212 ,49.57142 
20 ,3.6137 ,0.53030 ,5.03501 ,49.40352 
21 ,3.8059 ,0.53210 ,5.00079 ,49.06774 
22 ,3.9819 ,0.53398 ,4.98368 ,48.89985 
23 ,4.1579 ,0.53572 ,4.99052 ,48.96701 
24 ,4.3339 ,0.53750 ,4.96999 ,48.76554 
25 ,4.5258 ,0.53934 ,4.93919 ,48.46333 
26 ,4.7180 ,0.54134 ,4.93577 ,48.42975 
27 ,4.8941 ,0.54311 ,4.91523 ,48.22828 
28 ,5.0704 ,0.54492 ,4.88786 ,47.95966 
29 ,5.2466 ,0.54669 ,4.88444 ,47.92608 
30 ,5.4223 ,0.54839 ,4.87417 ,47.82534 
31 ,5.6146 ,0.55026 ,4.85364 ,47.62387 
32 ,5.8065 ,0.55220 ,4.83310 ,47.42240 
33 ,5.9988 ,0.55412 ,4.82968 ,47.38883 
34 ,6.1748 ,0.55591 ,4.81257 ,47.22093 
35 ,6.3509 ,0.55766 ,4.77835 ,46.88515 
36 ,6.5265 ,0.55940 ,4.75782 ,46.68368 
37 ,6.6871 ,0.56114 ,4.75782 ,46.68368 
38 ,6.8793 ,0.56295 ,4.74070 ,46.51579 
39 ,7.0552 ,0.56470 ,4.73386 ,46.44863 
40 ,7.2311 ,0.56649 ,4.70306 ,46.14643 
41 ,7.4075 ,0.56824 ,4.67911 ,45.91138 
42 ,7.5831 ,0.56999 ,4.67911 ,45.91138 
43 ,7.7755 ,0.57181 ,4.67226 ,45.84422 
44 ,7.9516 ,0.57365 ,4.63804 ,45.50844 
45 ,8.1277 ,0.57540 ,4.63119 ,45.44128 
46 ,8.3199 ,0.57728 ,4.63119 ,45.44128 
47 ,8.4962 ,0.57910 ,4.62777 ,45.40771 
48 ,8.7035 ,0.58119 ,4.59697 ,45.10550 
49 ,8.8800 ,0.58295 ,4.58328 ,44.97119 
50 ,9.0561 ,0.58471 ,4.56275 ,44.76972 
51 ,9.2322 ,0.58649 ,4.55933 ,44.73614 
52 ,9.4081 ,0.58826 ,4.52169 ,44.36678 
53 ,9.5682 ,0.58992 ,4.51826 ,44.33320 
54 ,9.7440 ,0.59158 ,4.50800 ,44.23247 
55 ,9.9202 ,0.59334 ,4.50800 ,44.23247 
56 ,10.1284 ,0.59528 ,4.45666 ,43.72879 
57 ,10.3044 ,0.59718 ,4.44982 ,43.66163 
58 ,10.4965 ,0.59901 ,4.45324 ,43.69521 
59 ,10.6725 ,0.60080 ,4.43613 ,43.52732 
60 ,10.8328 ,0.60257 ,4.40875 ,43.25870 
61 ,10.9928 ,0.60417 ,4.40191 ,43.19154 
62 ,11.1687 ,0.60580 ,4.36769 ,42.85576 
63 ,11.3610 ,0.60777 ,4.37795 ,42.95649 
64 ,11.5531 ,0.60959 ,4.35400 ,42.72144 
65 ,11.7452 ,0.61158 ,4.34716 ,42.65429 
66 ,11.9210 ,0.61346 ,4.32320 ,42.41924 
67 ,12.0973 ,0.61507 ,4.31636 ,42.35208 
68 ,12.2736 ,0.61684 ,4.28898 ,42.08345 
69 ,12.4655 ,0.61876 ,4.27529 ,41.94914 
70 ,12.6734 ,0.62076 ,4.25818 ,41.78125 
71 ,12.8498 ,0.62265 ,4.24107 ,41.61336 
72 ,13.0420 ,0.62453 ,4.24791 ,41.68051 
73 ,13.2500 ,0.62653 ,4.21711 ,41.37831 
74 ,13.4257 ,0.62841 ,4.17947 ,41.00895 
75 ,13.6019 ,0.63016 ,4.18631 ,41.07611 
76 ,13.7938 ,0.63198 ,4.15894 ,40.80748 
77 ,13.9697 ,0.63385 ,4.15551 ,40.77390 
78 ,14.1462 ,0.63561 ,4.12814 ,40.50527 
79 ,14.3540 ,0.63761 ,4.12129 ,40.43812 
80 ,14.5462 ,0.63950 ,4.11445 ,40.37096 
81 ,14.7224 ,0.64134 ,4.09391 ,40.16949 
82 ,14.9304 ,0.64325 ,4.06996 ,39.93444 
83 ,15.1225 ,0.64533 ,4.06312 ,39.86729 
84 ,15.2985 ,0.64714 ,4.04600 ,39.69940 
85 ,15.4745 ,0.64883 ,4.02889 ,39.53150 
86 ,15.6506 ,0.65057 ,4.00152 ,39.26288 
87 ,15.8266 ,0.65239 ,4.00836 ,39.33003 
88 ,16.0189 ,0.65433 ,3.99125 ,39.16214 
89 ,16.2110 ,0.65619 ,3.96045 ,38.85994 
90 ,16.4031 ,0.65814 ,3.96729 ,38.92709 
91 ,16.5790 ,0.65992 ,3.93307 ,38.59131 
92 ,16.7551 ,0.66163 ,3.91596 ,38.42342 
93 ,16.9632 ,0.66370 ,3.90912 ,38.35626 
94 ,17.1549 ,0.66565 ,3.90227 ,38.28911 
95 ,17.3314 ,0.66743 ,3.87147 ,37.98690 
96 ,17.5394 ,0.66943 ,3.87490 ,38.02048 
97 ,17.7155 ,0.67125 ,3.85779 ,37.85259 
98 ,17.9235 ,0.67327 ,3.84067 ,37.68470 
99 ,18.1157 ,0.67515 ,3.83041 ,37.58396 
100 ,18.2919 ,0.67702 ,3.79619 ,37.24818 
101 ,18.4837 ,0.67891 ,3.79619 ,37.24818 
102 ,18.6436 ,0.68063 ,3.79961 ,37.28176 
103 ,18.8198 ,0.68233 ,3.77223 ,37.01313 
104 ,18.9959 ,0.68410 ,3.76196 ,36.91240 
105 ,19.1719 ,0.68584 ,3.72432 ,36.54303 
106 ,19.3477 ,0.68759 ,3.70721 ,36.37514 
107 ,19.5238 ,0.68931 ,3.70379 ,36.34157 
108 ,19.6999 ,0.69110 ,3.70037 ,36.30799 
109 ,19.8925 ,0.69289 ,3.67299 ,36.03936 
110 ,20.0844 ,0.69492 ,3.65588 ,35.87147 
111 ,20.2605 ,0.69670 ,3.63877 ,35.70358 
112 ,20.4206 ,0.69843 ,3.62166 ,35.53569 
113 ,20.6127 ,0.70011 ,3.60797 ,35.40137 
114 ,20.7889 ,0.70196 ,3.59770 ,35.30064 
115 ,20.9809 ,0.70390 ,3.60797 ,35.40137 
116 ,21.1728 ,0.70569 ,3.59086 ,35.23348 
117 ,21.3492 ,0.70759 ,3.54637 ,34.79696 
118 ,21.5414 ,0.70948 ,3.54637 ,34.79696 
119 ,21.7650 ,0.71171 ,3.53610 ,34.69623 
120 ,21.9572 ,0.71355 ,3.51215 ,34.46118 
121 ,22.1495 ,0.71549 ,3.50188 ,34.36045 
122 ,22.3254 ,0.71735 ,3.48819 ,34.22613 
123 ,22.5015 ,0.71904 ,3.48135 ,34.15898 
124 ,22.6776 ,0.72082 ,3.47108 ,34.05824 
125 ,22.8697 ,0.72269 ,3.42659 ,33.62172 
126 ,23.0777 ,0.72476 ,3.42317 ,33.58814 
127 ,23.2537 ,0.72661 ,3.40948 ,33.45383 
128 ,23.4620 ,0.72862 ,3.40948 ,33.45383 
129 ,23.6379 ,0.73047 ,3.37184 ,33.08447 
130 ,23.8296 ,0.73236 ,3.35815 ,32.95016 
131 ,24.0061 ,0.73414 ,3.35815 ,32.95016 
132 ,24.2138 ,0.73607 ,3.32735 ,32.64795 
133 ,24.3903 ,0.73795 ,3.31708 ,32.54722 
134 ,24.5660 ,0.73988 ,3.31708 ,32.54722 
135 ,24.7424 ,0.74153 ,3.29655 ,32.34575 
136 ,24.9507 ,0.74353 ,3.25891 ,31.97639 
137 ,25.1266 ,0.74534 ,3.26917 ,32.07712 
138 ,25.3026 ,0.74711 ,3.26233 ,32.00996 
139 ,25.4945 ,0.74894 ,3.23837 ,31.77492 
140 ,25.6704 ,0.75076 ,3.20757 ,31.47271 
141 ,25.8469 ,0.75252 ,3.21784 ,31.57345 
142 ,26.0229 ,0.75431 ,3.20757 ,31.47271 
143 ,26.2149 ,0.75617 ,3.16651 ,31.06977 
144 ,26.4071 ,0.75815 ,3.16309 ,31.03619 
145 ,26.5828 ,0.75993 ,3.14597 ,30.86830 
146 ,26.7590 ,0.76173 ,3.13229 ,30.73399 
147 ,26.9351 ,0.76344 ,3.12544 ,30.66683 
148 ,27.1113 ,0.76519 ,3.10149 ,30.43178 
149 ,27.3192 ,0.76721 ,3.10491 ,30.46536 
150 ,27.4955 ,0.76901 ,3.09122 ,30.33105 
151 ,27.6714 ,0.77090 ,3.05015 ,29.92811 
152 ,27.8316 ,0.77249 ,3.05700 ,29.99527 
153 ,28.0077 ,0.77412 ,3.05358 ,29.96169 
154 ,28.1840 ,0.77590 ,3.02962 ,29.72664 
155 ,28.3598 ,0.77768 ,3.01935 ,29.62590 
156 ,28.5520 ,0.77959 ,3.00224 ,29.45801 
157 ,28.7439 ,0.78145 ,2.99540 ,29.39086 
158 ,28.9199 ,0.78323 ,2.97829 ,29.22297 
159 ,29.1282 ,0.78533 ,2.95776 ,29.02150 
160 ,29.3203 ,0.78718 ,2.95433 ,28.98792 
161 ,29.5122 ,0.78911 ,2.92353 ,28.68571 
162 ,29.7045 ,0.79103 ,2.92696 ,28.71929 
163 ,29.8803 ,0.79288 ,2.89273 ,28.38351 
164 ,30.0885 ,0.79488 ,2.87220 ,28.18204 
165 ,30.2646 ,0.79676 ,2.86536 ,28.11488 
166 ,30.4407 ,0.79857 ,2.86193 ,28.08130 
167 ,30.6007 ,0.80015 ,2.83798 ,27.84625 
168 ,30.7767 ,0.80185 ,2.82771 ,27.74552 
169 ,30.9528 ,0.80359 ,2.81402 ,27.61121 
170 ,31.1449 ,0.80546 ,2.81402 ,27.61121 
171 ,31.3531 ,0.80750 ,2.78665 ,27.34258 
172 ,31.5448 ,0.80940 ,2.76611 ,27.14111 
173 ,31.7213 ,0.81126 ,2.76611 ,27.14111 
174 ,31.9133 ,0.81313 ,2.72847 ,26.77175 
175 ,32.0894 ,0.81493 ,2.72505 ,26.73817 
176 ,32.2652 ,0.81670 ,2.70794 ,26.57028 
177 ,32.4418 ,0.81846 ,2.70794 ,26.57028 
178 ,32.6176 ,0.82023 ,2.69425 ,26.43597 
179 ,32.7777 ,0.82193 ,2.67372 ,26.23450 
180 ,32.9539 ,0.82361 ,2.65318 ,26.03303 
181 ,33.1458 ,0.82557 ,2.66003 ,26.10018 
182 ,33.3222 ,0.82728 ,2.63949 ,25.89871 
183 ,33.5140 ,0.82909 ,2.60527 ,25.56293 
184 ,33.6900 ,0.83094 ,2.60527 ,25.56293 
185 ,33.8660 ,0.83272 ,2.60185 ,25.52935 
186 ,34.0424 ,0.83447 ,2.58816 ,25.39504 
187 ,34.2182 ,0.83624 ,2.58132 ,25.32788 
188 ,34.3942 ,0.83798 ,2.55736 ,25.09283 
189 ,34.5704 ,0.83976 ,2.53341 ,24.85779 
190 ,34.7624 ,0.84169 ,2.52998 ,24.82421 
191 ,34.9389 ,0.84344 ,2.53341 ,24.85779 
192 ,35.1144 ,0.84518 ,2.51972 ,24.72347 
193 ,35.2907 ,0.84693 ,2.48207 ,24.35411 
194 ,35.4669 ,0.84873 ,2.47865 ,24.32053 
195 ,35.6429 ,0.85047 ,2.46839 ,24.21980 
196 ,35.8190 ,0.85223 ,2.46839 ,24.21980 
197 ,36.0270 ,0.85420 ,2.43759 ,23.91759 
198 ,36.1866 ,0.85601 ,2.42390 ,23.78328 
199 ,36.3631 ,0.85767 ,2.41705 ,23.71612 
200 ,36.5550 ,0.85961 ,2.42048 ,23.74970 
201 ,36.7474 ,0.86147 ,2.38283 ,23.38034 
202 ,36.9233 ,0.86335 ,2.38968 ,23.44750 
203 ,37.1154 ,0.86516 ,2.38283 ,23.38034 
204 ,37.3074 ,0.86711 ,2.33150 ,22.87667 
205 ,37.4835 ,0.86883 ,2.33150 ,22.87667 
206 ,37.6916 ,0.87090 ,2.31439 ,22.70877 
207 ,37.8998 ,0.87292 ,2.30070 ,22.57446 
208 ,38.0917 ,0.87490 ,2.27332 ,22.30584 
209 ,38.2678 ,0.87669 ,2.26306 ,22.20510 
210 ,38.4436 ,0.87844 ,2.26648 ,22.23868 
211 ,38.6359 ,0.88036 ,2.25279 ,22.10437 
212 ,38.8281 ,0.88229 ,2.22199 ,21.80216 
213 ,39.0043 ,0.88407 ,2.22199 ,21.80216 
214 ,39.1961 ,0.88590 ,2.20830 ,21.66785 
215 ,39.3724 ,0.88775 ,2.19803 ,21.56711 
216 ,39.5804 ,0.88965 ,2.19803 ,21.56711 
217 ,39.7565 ,0.89156 ,2.17408 ,21.33206 
218 ,39.9325 ,0.89334 ,2.14328 ,21.02986 
219 ,40.1246 ,0.89527 ,2.13644 ,20.96270 
220 ,40.3167 ,0.89711 ,2.13301 ,20.92912 
221 ,40.4927 ,0.89892 ,2.11932 ,20.79481 
222 ,40.6688 ,0.90068 ,2.08168 ,20.42545 
223 ,40.8608 ,0.90256 ,2.09195 ,20.52619 
224 ,41.0368 ,0.90443 ,2.08510 ,20.45903 
225 ,41.2130 ,0.90615 ,2.05773 ,20.19040 
226 ,41.3890 ,0.90785 ,2.04061 ,20.02251 
227 ,41.5649 ,0.90966 ,2.03719 ,19.98893 
228 ,41.7573 ,0.91163 ,2.02693 ,19.88820 
229 ,41.9493 ,0.91351 ,1.99613 ,19.58599 
230 ,42.1414 ,0.91536 ,1.99613 ,19.58599 
231 ,42.3174 ,0.91725 ,1.99613 ,19.58599 
232 ,42.5095 ,0.91908 ,1.97217 ,19.35094 
233 ,42.7012 ,0.92102 ,1.96533 ,19.28379 
234 ,42.8775 ,0.92279 ,1.94822 ,19.11590 
235 ,43.0858 ,0.92476 ,1.93453 ,18.98158 
236 ,43.2618 ,0.92664 ,1.91742 ,18.81369 
237 ,43.4381 ,0.92843 ,1.92768 ,18.91443 
238 ,43.6456 ,0.93037 ,1.89004 ,18.54507 
239 ,43.8220 ,0.93218 ,1.88319 ,18.47791 
240 ,43.9981 ,0.93399 ,1.87635 ,18.41075 
241 ,44.1740 ,0.93574 ,1.86266 ,18.27644 
242 ,44.3662 ,0.93760 ,1.84555 ,18.10855 
243 ,44.5583 ,0.93957 ,1.83871 ,18.04139 
244 ,44.7505 ,0.94141 ,1.81817 ,17.83992 
245 ,44.9266 ,0.94329 ,1.78737 ,17.53772 
246 ,45.1345 ,0.94528 ,1.80106 ,17.67203 
247 ,45.3106 ,0.94711 ,1.78053 ,17.47056 
248 ,45.4867 ,0.94891 ,1.76000 ,17.26909 
249 ,45.7106 ,0.95088 ,1.75657 ,17.23551 
250 ,45.8705 ,0.95279 ,1.74289 ,17.10120 
251 ,46.0471 ,0.95444 ,1.72235 ,16.89973 
252 ,46.2229 ,0.95638 ,1.71893 ,16.86615 
253 ,46.3991 ,0.95801 ,1.70524 ,16.73184 
254 ,46.5910 ,0.95983 ,1.67786 ,16.46321 
255 ,46.7509 ,0.96162 ,1.67102 ,16.39605 
256 ,46.9270 ,0.96323 ,1.63680 ,16.06027 
257 ,47.1034 ,0.96505 ,1.63338 ,16.02669 
258 ,47.3115 ,0.96706 ,1.62995 ,15.99311 
259 ,47.4875 ,0.96888 ,1.60258 ,15.72449 
260 ,47.6634 ,0.97063 ,1.61284 ,15.82522 
261 ,47.8398 ,0.97238 ,1.60942 ,15.79164 
262 ,48.0155 ,0.97411 ,1.59573 ,15.65733 
263 ,48.2079 ,0.97596 ,1.55809 ,15.28797 
264 ,48.3999 ,0.97799 ,1.56151 ,15.32155 
265 ,48.5759 ,0.97974 ,1.55809 ,15.28797 
266 ,48.7518 ,0.98152 ,1.54098 ,15.12008 
267 ,48.9281 ,0.98325 ,1.51018 ,14.81787 
268 ,49.1201 ,0.98512 ,1.52045 ,14.91861 
269 ,49.2958 ,0.98691 ,1.51018 ,14.81787 
270 ,49.4723 ,0.98869 ,1.48965 ,14.61640 
271 ,49.6484 ,0.99053 ,1.46569 ,14.38136 
272 ,49.8405 ,0.99233 ,1.47253 ,14.44851 
273 ,50.0324 ,0.99427 ,1.44858 ,14.21346 
274 ,50.2246 ,0.99618 ,1.43489 ,14.07915 
275 ,50.4169 ,0.99809 ,1.44516 ,14.17989 
276 ,50.5928 ,0.99991 ,1.42120 ,13.94484 
277 ,50.7688 ,1.00169 ,1.40067 ,13.74337 
278 ,50.9606 ,1.00357 ,1.39040 ,13.64263 
279 ,51.1369 ,1.00538 ,1.39040 ,13.64263 
280 ,51.3130 ,1.00716 ,1.38014 ,13.54190 
281 ,51.5049 ,1.00902 ,1.34249 ,13.17254 
282 ,51.6808 ,1.01076 ,1.34249 ,13.17254 
283 ,51.8572 ,1.01255 ,1.34591 ,13.20612 
284 ,52.0495 ,1.01446 ,1.31169 ,12.87033 
285 ,52.2252 ,1.01627 ,1.30143 ,12.76960 
286 ,52.4173 ,1.01809 ,1.30143 ,12.76960 
287 ,52.5935 ,1.01988 ,1.29800 ,12.73602 
288 ,52.7857 ,1.02176 ,1.25009 ,12.26592 
289 ,52.9615 ,1.02358 ,1.26036 ,12.36666 
290 ,53.1375 ,1.02536 ,1.24667 ,12.23235 
291 ,53.3294 ,1.02720 ,1.21245 ,11.89656 
292 ,53.5057 ,1.02903 ,1.20218 ,11.79583 
293 ,53.6815 ,1.03083 ,1.20561 ,11.82941 
294 ,53.8580 ,1.03255 ,1.20561 ,11.82941 
295 ,54.0341 ,1.03430 ,1.20218 ,11.79583 
296 ,54.2259 ,1.03615 ,1.16112 ,11.39289 
297 ,54.4018 ,1.03795 ,1.15085 ,11.29215 
298 ,54.5783 ,1.03979 ,1.16796 ,11.46004 
299 ,54.7702 ,1.04164 ,1.14058 ,11.19142 
300 ,54.9467 ,1.04345 ,1.10979 ,10.88921 
301 ,55.1384 ,1.04532 ,1.12690 ,11.05710 
302 ,55.3146 ,1.04709 ,1.11321 ,10.92279 
303 ,55.5065 ,1.04902 ,1.07556 ,10.55343 
304 ,55.6827 ,1.05077 ,1.06530 ,10.45270 
305 ,55.8747 ,1.05265 ,1.07214 ,10.51985 
306 ,56.0666 ,1.05460 ,1.04819 ,10.28480 
307 ,56.2427 ,1.05638 ,1.02765 ,10.08333 
308 ,56.4348 ,1.05832 ,1.03792 ,10.18407 
309 ,56.6109 ,1.06002 ,1.02423 ,10.04976 
310 ,56.7710 ,1.06177 ,1.00028 ,9.81471 
311 ,56.9474 ,1.06343 ,0.97974 ,9.61324 
312 ,57.1233 ,1.06517 ,0.96263 ,9.44535 
313 ,57.3153 ,1.06705 ,0.97290 ,9.54608 
314 ,57.4914 ,1.06885 ,0.98317 ,9.64682 
315 ,57.6830 ,1.07078 ,0.93868 ,9.21030 
316 ,57.8595 ,1.07259 ,0.94210 ,9.24388 
317 ,58.0518 ,1.07445 ,0.92499 ,9.07598 
318 ,58.2436 ,1.07638 ,0.91814 ,9.00883 
319 ,58.4198 ,1.07817 ,0.90103 ,8.84094 
320 ,58.6115 ,1.08008 ,0.90103 ,8.84094 
321 ,58.7878 ,1.08180 ,0.87023 ,8.53873 
322 ,58.9800 ,1.08378 ,0.87366 ,8.57231 
323 ,59.1881 ,1.08575 ,0.83601 ,8.20295 
324 ,59.3802 ,1.08774 ,0.84628 ,8.30368 
325 ,59.5562 ,1.08955 ,0.83601 ,8.20295 
326 ,59.7483 ,1.09136 ,0.80863 ,7.93432 
327 ,59.9242 ,1.09317 ,0.80179 ,7.86717 
328 ,60.1000 ,1.09495 ,0.80521 ,7.90074 
329 ,60.2764 ,1.09671 ,0.79495 ,7.80001 
330 ,60.4524 ,1.09844 ,0.77784 ,7.63212 
331 ,60.6285 ,1.10024 ,0.75046 ,7.36349 
332 ,60.8206 ,1.10204 ,0.75046 ,7.36349 
333 ,60.9968 ,1.10392 ,0.75730 ,7.43065 
334 ,61.1727 ,1.10575 ,0.72650 ,7.12844 
335 ,61.3488 ,1.10744 ,0.72650 ,7.12844 
336 ,61.5406 ,1.10929 ,0.71281 ,6.99413 
337 ,61.7167 ,1.11108 ,0.70597 ,6.92697 
338 ,61.8930 ,1.11289 ,0.70597 ,6.92697 
339 ,62.0851 ,1.11477 ,0.67859 ,6.65835 
340 ,62.2772 ,1.11671 ,0.67517 ,6.62477 
341 ,62.4533 ,1.11844 ,0.66490 ,6.52403 
342 ,62.6290 ,1.12022 ,0.63753 ,6.25541 
343 ,62.8052 ,1.12194 ,0.63068 ,6.18825 
344 ,62.9976 ,1.12394 ,0.63753 ,6.25541 
345 ,63.1895 ,1.12583 ,0.61015 ,5.98678 
346 ,63.3816 ,1.12773 ,0.59646 ,5.85247 
347 ,63.5577 ,1.12946 ,0.60673 ,5.95320 
348 ,63.8775 ,1.13197 ,0.58619 ,5.75173 
349 ,64.0698 ,1.13461 ,0.53828 ,5.28164 
350 ,64.2619 ,1.13656 ,0.54171 ,5.31522 
351 ,64.4539 ,1.13839 ,0.54855 ,5.38237 
352 ,64.6301 ,1.14023 ,0.54513 ,5.34879 
353 ,64.7902 ,1.14195 ,0.52117 ,5.11375 
354 ,64.9659 ,1.14355 ,0.49380 ,4.84512 
355 ,65.1425 ,1.14533 ,0.49037 ,4.81154 
356 ,65.3343 ,1.14718 ,0.49037 ,4.81154 
357 ,65.5267 ,1.14909 ,0.48695 ,4.77796 
358 ,65.7026 ,1.15096 ,0.45957 ,4.50934 
359 ,65.8784 ,1.15271 ,0.45615 ,4.47576 
360 ,66.0705 ,1.15459 ,0.44246 ,4.34144 
361 ,66.2468 ,1.15644 ,0.42535 ,4.17355 
362 ,66.4389 ,1.15820 ,0.44246 ,4.34144 
363 ,66.6309 ,1.16019 ,0.42193 ,4.13997 
364 ,66.7910 ,1.16195 ,0.40482 ,3.97208 
365 ,66.9670 ,1.16360 ,0.38429 ,3.77061 
366 ,67.1427 ,1.16532 ,0.37402 ,3.66988 
367 ,67.3193 ,1.16711 ,0.37402 ,3.66988 
368 ,67.4953 ,1.16886 ,0.37744 ,3.70346 
369 ,67.6715 ,1.17065 ,0.34664 ,3.40125 
370 ,67.8478 ,1.17243 ,0.34664 ,3.40125 
371 ,68.0232 ,1.17413 ,0.32269 ,3.16620 
372 ,68.1993 ,1.17590 ,0.32611 ,3.19978 
373 ,68.3758 ,1.17771 ,0.32269 ,3.16620 
374 ,68.5517 ,1.17943 ,0.31584 ,3.09905 
375 ,68.7278 ,1.18122 ,0.29189 ,2.86400 
376 ,68.9039 ,1.18291 ,0.27135 ,2.66253 
377 ,69.0799 ,1.18470 ,0.28504 ,2.79684 
378 ,69.2558 ,1.18648 ,0.27135 ,2.66253 
379 ,69.4484 ,1.18837 ,0.24740 ,2.42748 
380 ,69.6403 ,1.19033 ,0.24055 ,2.36032 
381 ,69.8162 ,1.19208 ,0.24398 ,2.39390 
382 ,70.0084 ,1.19400 ,0.21318 ,2.09170 
383 ,70.1844 ,1.19576 ,0.19949 ,1.95738 
384 ,70.3764 ,1.19767 ,0.20633 ,2.02454 
385 ,70.5526 ,1.19942 ,0.20976 ,2.05812 
386 ,70.7446 ,1.20138 ,0.18580 ,1.82307 
387 ,70.9207 ,1.20313 ,0.17553 ,1.72234 
388 ,71.0968 ,1.20480 ,0.17896 ,1.75592 
389 ,71.2727 ,1.20664 ,0.16869 ,1.65518 
390 ,71.4490 ,1.20840 ,0.14816 ,1.45371 
391 ,71.6249 ,1.21012 ,0.13105 ,1.28582 
392 ,71.8011 ,1.21187 ,0.12420 ,1.21866 
393 ,71.9769 ,1.21369 ,0.12420 ,1.21866 
394 ,72.1533 ,1.21543 ,0.12078 ,1.18508 
395 ,72.3613 ,1.21747 ,0.09340 ,0.91646 
396 ,72.5373 ,1.21933 ,0.08656 ,0.84930 
397 ,72.7130 ,1.22101 ,0.08656 ,0.84930 
398 ,72.8896 ,1.22279 ,0.05918 ,0.58067 
399 ,73.0817 ,1.22467 ,0.05576 ,0.54710 
400 ,73.2578 ,1.22650 ,0.04891 ,0.47994 
401 ,73.4499 ,1.22841 ,0.03180 ,0.31205 
402 ,73.6258 ,1.23013 ,0.01811 ,0.17773 
403 ,73.8017 ,1.23191 ,0.01811 ,0.17773 
404 ,73.9938 ,1.23375 ,0.01811 ,0.17773 
405 ,74.1860 ,1.23563 ,0.00443 ,0.04342 
406 ,74.3778 ,1.23763 ,-0.00584 ,-0.05731 
407 ,74.5541 ,1.23940 ,-0.01611 ,-0.15805 
408 ,74.7461 ,1.24128 ,-0.03322 ,-0.32594 
409 ,74.9384 ,1.24327 ,-0.02980 ,-0.29236 
410 ,75.1463 ,1.24525 ,-0.04691 ,-0.46025 
411 ,75.3225 ,1.24711 ,-0.06060 ,-0.59457 
412 ,75.4985 ,1.24889 ,-0.06402 ,-0.62814 
413 ,75.6906 ,1.25077 ,-0.08113 ,-0.79604 
414 ,75.8667 ,1.25257 ,-0.09140 ,-0.89677 
415 ,76.0589 ,1.25443 ,-0.10851 ,-1.06466 
416 ,76.2668 ,1.25638 ,-0.09824 ,-0.96393 
417 ,76.4589 ,1.25840 ,-0.10851 ,-1.06466 
418 ,76.6351 ,1.26023 ,-0.11877 ,-1.16540 
419 ,76.8111 ,1.26208 ,-0.15642 ,-1.53476 
420 ,76.9871 ,1.26373 ,-0.15984 ,-1.56834 
421 ,77.1631 ,1.26557 ,-0.14615 ,-1.43402 
422 ,77.3552 ,1.26740 ,-0.14957 ,-1.46760 
423 ,77.5475 ,1.26924 ,-0.15984 ,-1.56834 
424 ,77.7394 ,1.27129 ,-0.17353 ,-1.70265 
425 ,77.9317 ,1.27315 ,-0.19064 ,-1.87054 
426 ,78.1558 ,1.27536 ,-0.20090 ,-1.97128 
427 ,78.3317 ,1.27720 ,-0.21459 ,-2.10559 
428 ,78.5079 ,1.27898 ,-0.22144 ,-2.17275 
429 ,78.6998 ,1.28075 ,-0.24539 ,-2.40779 
430 ,78.8919 ,1.28275 ,-0.23170 ,-2.27348 
431 ,79.0681 ,1.28457 ,-0.25908 ,-2.54211 
432 ,79.2437 ,1.28635 ,-0.27277 ,-2.67642 
433 ,79.4204 ,1.28806 ,-0.25908 ,-2.54211 
434 ,79.5962 ,1.28985 ,-0.26593 ,-2.60926 
435 ,79.7718 ,1.29153 ,-0.27619 ,-2.71000 
436 ,79.9479 ,1.29336 ,-0.30015 ,-2.94505 
437 ,80.1239 ,1.29508 ,-0.30699 ,-3.01220 
438 ,80.3166 ,1.29692 ,-0.29673 ,-2.91147 
439 ,80.5404 ,1.29929 ,-0.31726 ,-3.11294 
440 ,80.7487 ,1.30122 ,-0.33437 ,-3.28083 
441 ,80.9245 ,1.30311 ,-0.33437 ,-3.28083 
442 ,81.1009 ,1.30488 ,-0.36517 ,-3.58303 
443 ,81.3088 ,1.30684 ,-0.36517 ,-3.58303 
444 ,81.4850 ,1.30868 ,-0.38228 ,-3.75093 
445 ,81.6929 ,1.31066 ,-0.37544 ,-3.68377 
446 ,81.8852 ,1.31272 ,-0.39939 ,-3.91882 
447 ,82.0770 ,1.31464 ,-0.38228 ,-3.75093 
448 ,82.2533 ,1.31635 ,-0.39597 ,-3.88524 
449 ,82.4294 ,1.31813 ,-0.43019 ,-4.22102 
450 ,82.6053 ,1.31995 ,-0.40966 ,-4.01955 
451 ,82.7973 ,1.32177 ,-0.42677 ,-4.18744 
452 ,83.0056 ,1.32380 ,-0.44046 ,-4.32176 
453 ,83.1977 ,1.32585 ,-0.43361 ,-4.25460 
454 ,83.3896 ,1.32773 ,-0.45414 ,-4.45607 
455 ,83.5658 ,1.32952 ,-0.47468 ,-4.65754 
456 ,83.7737 ,1.33154 ,-0.47468 ,-4.65754 
457 ,83.9504 ,1.33333 ,-0.48837 ,-4.79185 
458 ,84.1417 ,1.33524 ,-0.47810 ,-4.69112 
459 ,84.3502 ,1.33716 ,-0.49179 ,-4.82543 
460 ,84.5583 ,1.33932 ,-0.50206 ,-4.92617 
461 ,84.7502 ,1.34136 ,-0.53628 ,-5.26195 
462 ,84.9260 ,1.34308 ,-0.52601 ,-5.16121 
463 ,85.1024 ,1.34487 ,-0.52943 ,-5.19479 
464 ,85.2625 ,1.34658 ,-0.51917 ,-5.09406 
