Data stamp = , 07-04-2022 01:31:03 911

Calibration Values: 
Slope = , 26.54 , g/V 
Offset Voltage at no contact = , -0.501760 , V 

No , Time , Stage Position ,   Mass , Force 
   ,  (s) ,      (mm)      ,   (g)  , (mN)  

1 ,0.0000 ,0.49942 ,5.19927 ,51.01528 
2 ,0.2168 ,0.49949 ,5.22323 ,51.25033 
3 ,0.5215 ,0.50032 ,5.20270 ,51.04886 
4 ,0.7294 ,0.50175 ,5.19243 ,50.94813 
5 ,0.9215 ,0.50340 ,5.22323 ,51.25033 
6 ,1.1136 ,0.50531 ,5.20270 ,51.04886 
7 ,1.3377 ,0.50733 ,5.19927 ,51.01528 
8 ,1.5138 ,0.50927 ,5.19927 ,51.01528 
9 ,1.6898 ,0.51108 ,5.19585 ,50.98170 
10 ,1.8655 ,0.51286 ,5.18216 ,50.84739 
11 ,2.0580 ,0.51466 ,5.18216 ,50.84739 
12 ,2.2660 ,0.51678 ,5.15479 ,50.57876 
13 ,2.4423 ,0.51860 ,5.16163 ,50.64592 
14 ,2.6342 ,0.52051 ,5.12056 ,50.24298 
15 ,2.8102 ,0.52227 ,5.11030 ,50.14225 
16 ,2.9859 ,0.52399 ,5.09661 ,50.00793 
17 ,3.1782 ,0.52593 ,5.08977 ,49.94078 
18 ,3.3705 ,0.52788 ,5.05897 ,49.63857 
19 ,3.5464 ,0.52962 ,5.05554 ,49.60499 
20 ,3.7387 ,0.53153 ,5.03501 ,49.40352 
21 ,3.9304 ,0.53338 ,5.01448 ,49.20205 
22 ,4.1068 ,0.53527 ,4.98710 ,48.93343 
23 ,4.3145 ,0.53723 ,4.98368 ,48.89985 
24 ,4.4905 ,0.53906 ,4.96657 ,48.73196 
25 ,4.6670 ,0.54080 ,4.95630 ,48.63122 
26 ,4.8591 ,0.54278 ,4.94261 ,48.49691 
27 ,5.0512 ,0.54459 ,4.91523 ,48.22828 
28 ,5.2274 ,0.54648 ,4.89812 ,48.06039 
29 ,5.4034 ,0.54823 ,4.88786 ,47.95966 
30 ,5.5953 ,0.55002 ,4.87759 ,47.85892 
31 ,5.8035 ,0.55218 ,4.85364 ,47.62387 
32 ,5.9954 ,0.55410 ,4.86048 ,47.69103 
33 ,6.1717 ,0.55590 ,4.83652 ,47.45598 
34 ,6.3638 ,0.55782 ,4.81257 ,47.22093 
35 ,6.5558 ,0.55975 ,4.80915 ,47.18736 
36 ,6.7317 ,0.56149 ,4.77835 ,46.88515 
37 ,6.9080 ,0.56329 ,4.76466 ,46.75084 
38 ,7.1159 ,0.56517 ,4.76124 ,46.71726 
39 ,7.3082 ,0.56716 ,4.72359 ,46.34790 
40 ,7.4842 ,0.56900 ,4.70990 ,46.21359 
41 ,7.6762 ,0.57087 ,4.71333 ,46.24716 
42 ,7.8524 ,0.57269 ,4.67568 ,45.87780 
43 ,8.0284 ,0.57448 ,4.65515 ,45.67633 
44 ,8.2040 ,0.57614 ,4.65173 ,45.64275 
45 ,8.3803 ,0.57796 ,4.64488 ,45.57560 
46 ,8.5885 ,0.57996 ,4.62435 ,45.37413 
47 ,8.8287 ,0.58228 ,4.60040 ,45.13908 
48 ,9.0046 ,0.58419 ,4.57986 ,44.93761 
49 ,9.1808 ,0.58598 ,4.56960 ,44.83688 
50 ,9.3728 ,0.58786 ,4.56960 ,44.83688 
51 ,9.5649 ,0.58977 ,4.54222 ,44.56825 
52 ,9.7409 ,0.59153 ,4.52511 ,44.40036 
53 ,9.9331 ,0.59347 ,4.52853 ,44.43394 
54 ,10.1091 ,0.59519 ,4.49773 ,44.13173 
55 ,10.2853 ,0.59700 ,4.47035 ,43.86310 
56 ,10.4614 ,0.59878 ,4.44982 ,43.66163 
57 ,10.6374 ,0.60056 ,4.46351 ,43.79595 
58 ,10.8135 ,0.60228 ,4.44640 ,43.62806 
59 ,11.0056 ,0.60420 ,4.41218 ,43.29227 
60 ,11.1977 ,0.60611 ,4.41560 ,43.32585 
61 ,11.3737 ,0.60792 ,4.39849 ,43.15796 
62 ,11.5659 ,0.60981 ,4.37111 ,42.88933 
63 ,11.7739 ,0.61182 ,4.36427 ,42.82218 
64 ,11.9499 ,0.61367 ,4.34716 ,42.65429 
65 ,12.1261 ,0.61537 ,4.32662 ,42.45282 
66 ,12.3022 ,0.61716 ,4.29924 ,42.18419 
67 ,12.4938 ,0.61901 ,4.31293 ,42.31850 
68 ,12.6703 ,0.62088 ,4.28898 ,42.08345 
69 ,12.8623 ,0.62277 ,4.26160 ,41.81483 
70 ,13.0381 ,0.62452 ,4.26160 ,41.81483 
71 ,13.2142 ,0.62625 ,4.24791 ,41.68051 
72 ,13.3906 ,0.62802 ,4.23080 ,41.51262 
73 ,13.5823 ,0.62985 ,4.21027 ,41.31115 
74 ,13.7584 ,0.63172 ,4.19316 ,41.14326 
75 ,13.9347 ,0.63350 ,4.18974 ,41.10968 
76 ,14.1109 ,0.63522 ,4.16236 ,40.84106 
77 ,14.2869 ,0.63698 ,4.14183 ,40.63959 
78 ,14.4630 ,0.63885 ,4.13840 ,40.60601 
79 ,14.6387 ,0.64055 ,4.13498 ,40.57243 
80 ,14.8148 ,0.64226 ,4.12471 ,40.47170 
81 ,14.9913 ,0.64402 ,4.09391 ,40.16949 
82 ,15.1832 ,0.64596 ,4.06996 ,39.93444 
83 ,15.3754 ,0.64781 ,4.07338 ,39.96802 
84 ,15.5516 ,0.64963 ,4.05285 ,39.76655 
85 ,15.7276 ,0.65144 ,4.02889 ,39.53150 
86 ,15.9035 ,0.65313 ,4.01178 ,39.36361 
87 ,16.0958 ,0.65505 ,4.01520 ,39.39719 
88 ,16.2877 ,0.65692 ,3.97414 ,38.99425 
89 ,16.4639 ,0.65877 ,3.96387 ,38.89352 
90 ,16.6559 ,0.66068 ,3.96729 ,38.92709 
91 ,16.8321 ,0.66240 ,3.96387 ,38.89352 
92 ,17.0242 ,0.66438 ,3.91254 ,38.38984 
93 ,17.2159 ,0.66628 ,3.91938 ,38.45700 
94 ,17.3924 ,0.66801 ,3.90227 ,38.28911 
95 ,17.5843 ,0.66991 ,3.87147 ,37.98690 
96 ,17.7763 ,0.67189 ,3.87147 ,37.98690 
97 ,17.9685 ,0.67376 ,3.84410 ,37.71828 
98 ,18.1444 ,0.67558 ,3.82699 ,37.55038 
99 ,18.3209 ,0.67733 ,3.81672 ,37.44965 
100 ,18.5287 ,0.67932 ,3.79961 ,37.28176 
101 ,18.7048 ,0.68116 ,3.78934 ,37.18102 
102 ,18.8806 ,0.68304 ,3.78250 ,37.11387 
103 ,19.0567 ,0.68467 ,3.76539 ,36.94597 
104 ,19.2331 ,0.68647 ,3.76881 ,36.97955 
105 ,19.4249 ,0.68836 ,3.72774 ,36.57661 
106 ,19.6171 ,0.69024 ,3.71063 ,36.40872 
107 ,19.7933 ,0.69203 ,3.71063 ,36.40872 
108 ,19.9853 ,0.69403 ,3.68668 ,36.17367 
109 ,20.1613 ,0.69569 ,3.67299 ,36.03936 
110 ,20.3536 ,0.69767 ,3.66272 ,35.93863 
111 ,20.5455 ,0.69951 ,3.63877 ,35.70358 
112 ,20.7217 ,0.70145 ,3.63192 ,35.63642 
113 ,20.8976 ,0.70308 ,3.62850 ,35.60284 
114 ,21.0737 ,0.70482 ,3.60454 ,35.36779 
115 ,21.2499 ,0.70662 ,3.59086 ,35.23348 
116 ,21.4419 ,0.70850 ,3.56690 ,34.99843 
117 ,21.6501 ,0.71053 ,3.56348 ,34.96485 
118 ,21.8261 ,0.71238 ,3.53610 ,34.69623 
119 ,22.0178 ,0.71428 ,3.53268 ,34.66265 
120 ,22.1943 ,0.71604 ,3.51557 ,34.49476 
121 ,22.3863 ,0.71795 ,3.49161 ,34.25971 
122 ,22.5945 ,0.71996 ,3.49161 ,34.25971 
123 ,22.7702 ,0.72181 ,3.48819 ,34.22613 
124 ,22.9466 ,0.72353 ,3.44713 ,33.82319 
125 ,23.1225 ,0.72538 ,3.45055 ,33.85677 
126 ,23.2988 ,0.72710 ,3.42659 ,33.62172 
127 ,23.5067 ,0.72907 ,3.40606 ,33.42025 
128 ,23.6828 ,0.73095 ,3.40264 ,33.38667 
129 ,23.8589 ,0.73267 ,3.37184 ,33.08447 
130 ,24.0348 ,0.73446 ,3.37868 ,33.15163 
131 ,24.2431 ,0.73647 ,3.33762 ,32.74869 
132 ,24.4352 ,0.73840 ,3.35473 ,32.91658 
133 ,24.6113 ,0.74023 ,3.34104 ,32.78227 
134 ,24.8032 ,0.74204 ,3.30682 ,32.44648 
135 ,24.9955 ,0.74405 ,3.30682 ,32.44648 
136 ,25.1714 ,0.74580 ,3.28971 ,32.27859 
137 ,25.3315 ,0.74755 ,3.27602 ,32.14428 
138 ,25.5235 ,0.74929 ,3.23837 ,31.77492 
139 ,25.6998 ,0.75111 ,3.21784 ,31.57345 
140 ,25.8757 ,0.75284 ,3.21784 ,31.57345 
141 ,26.0519 ,0.75464 ,3.22126 ,31.60702 
142 ,26.2281 ,0.75641 ,3.19731 ,31.37198 
143 ,26.4201 ,0.75831 ,3.17335 ,31.13693 
144 ,26.6120 ,0.76022 ,3.17335 ,31.13693 
145 ,26.7882 ,0.76192 ,3.15282 ,30.93546 
146 ,26.9642 ,0.76372 ,3.14597 ,30.86830 
147 ,27.1405 ,0.76551 ,3.11518 ,30.56610 
148 ,27.3160 ,0.76724 ,3.11175 ,30.53252 
149 ,27.4922 ,0.76905 ,3.09806 ,30.39821 
150 ,27.6682 ,0.77078 ,3.09122 ,30.33105 
151 ,27.8444 ,0.77248 ,3.06042 ,30.02884 
152 ,28.0207 ,0.77431 ,3.05015 ,29.92811 
153 ,28.1806 ,0.77602 ,3.03989 ,29.82737 
154 ,28.3569 ,0.77768 ,3.02962 ,29.72664 
155 ,28.5328 ,0.77949 ,3.02620 ,29.69306 
156 ,28.7410 ,0.78148 ,2.98171 ,29.25654 
157 ,28.9331 ,0.78331 ,2.97829 ,29.22297 
158 ,29.1249 ,0.78526 ,2.96118 ,29.05507 
159 ,29.3173 ,0.78720 ,2.95433 ,28.98792 
160 ,29.4929 ,0.78898 ,2.94749 ,28.92076 
161 ,29.6690 ,0.79078 ,2.93722 ,28.82003 
162 ,29.8614 ,0.79268 ,2.91669 ,28.61856 
163 ,30.0375 ,0.79447 ,2.88589 ,28.31635 
164 ,30.2136 ,0.79623 ,2.89273 ,28.38351 
165 ,30.3897 ,0.79801 ,2.88931 ,28.34993 
166 ,30.5654 ,0.79975 ,2.86193 ,28.08130 
167 ,30.7418 ,0.80147 ,2.84482 ,27.91341 
168 ,30.9337 ,0.80333 ,2.83456 ,27.81268 
169 ,31.1099 ,0.80514 ,2.82429 ,27.71194 
170 ,31.2859 ,0.80690 ,2.81745 ,27.64479 
171 ,31.4781 ,0.80874 ,2.79007 ,27.37616 
172 ,31.6538 ,0.81065 ,2.78322 ,27.30900 
173 ,31.8303 ,0.81237 ,2.78322 ,27.30900 
174 ,32.0224 ,0.81419 ,2.76954 ,27.17469 
175 ,32.1984 ,0.81603 ,2.73189 ,26.80533 
176 ,32.3743 ,0.81781 ,2.72505 ,26.73817 
177 ,32.5505 ,0.81957 ,2.71478 ,26.63744 
178 ,32.7105 ,0.82125 ,2.70794 ,26.57028 
179 ,32.8706 ,0.82286 ,2.69767 ,26.46954 
180 ,33.0467 ,0.82454 ,2.67714 ,26.26807 
181 ,33.2227 ,0.82630 ,2.65660 ,26.06661 
182 ,33.3989 ,0.82807 ,2.64976 ,25.99945 
183 ,33.5747 ,0.82983 ,2.63265 ,25.83156 
184 ,33.7667 ,0.83159 ,2.63949 ,25.89871 
185 ,33.9432 ,0.83350 ,2.61212 ,25.63009 
186 ,34.1348 ,0.83537 ,2.60185 ,25.52935 
187 ,34.3113 ,0.83716 ,2.59501 ,25.46220 
188 ,34.4874 ,0.83897 ,2.57789 ,25.29430 
189 ,34.6795 ,0.84089 ,2.56078 ,25.12641 
190 ,34.8714 ,0.84274 ,2.54025 ,24.92494 
191 ,35.0476 ,0.84452 ,2.52998 ,24.82421 
192 ,35.2237 ,0.84632 ,2.51972 ,24.72347 
193 ,35.3998 ,0.84805 ,2.49576 ,24.48842 
194 ,35.6076 ,0.85008 ,2.49576 ,24.48842 
195 ,35.7837 ,0.85193 ,2.47181 ,24.25338 
196 ,35.9756 ,0.85382 ,2.44785 ,24.01833 
197 ,36.1681 ,0.85575 ,2.44785 ,24.01833 
198 ,36.3440 ,0.85751 ,2.43074 ,23.85044 
199 ,36.5203 ,0.85927 ,2.41021 ,23.64897 
200 ,36.6963 ,0.86101 ,2.39310 ,23.48108 
201 ,36.8723 ,0.86279 ,2.39310 ,23.48108 
202 ,37.0485 ,0.86452 ,2.38625 ,23.41392 
203 ,37.2405 ,0.86646 ,2.35888 ,23.14529 
204 ,37.4486 ,0.86854 ,2.35203 ,23.07814 
205 ,37.6249 ,0.87028 ,2.33834 ,22.94382 
206 ,37.8167 ,0.87222 ,2.29728 ,22.54088 
207 ,37.9926 ,0.87398 ,2.31439 ,22.70877 
208 ,38.1848 ,0.87587 ,2.28359 ,22.40657 
209 ,38.3770 ,0.87778 ,2.25963 ,22.17152 
210 ,38.5850 ,0.87981 ,2.25621 ,22.13794 
211 ,38.7611 ,0.88165 ,2.23226 ,21.90290 
212 ,38.9532 ,0.88357 ,2.23226 ,21.90290 
213 ,39.1453 ,0.88544 ,2.21515 ,21.73500 
214 ,39.3373 ,0.88739 ,2.18092 ,21.39922 
215 ,39.5135 ,0.88915 ,2.17750 ,21.36564 
216 ,39.7055 ,0.89105 ,2.18777 ,21.46638 
217 ,39.8976 ,0.89303 ,2.15012 ,21.09702 
218 ,40.0898 ,0.89485 ,2.13986 ,20.99628 
219 ,40.2978 ,0.89686 ,2.12617 ,20.86197 
220 ,40.5218 ,0.89914 ,2.09537 ,20.55976 
221 ,40.6979 ,0.90096 ,2.08510 ,20.45903 
222 ,40.9060 ,0.90303 ,2.09195 ,20.52619 
223 ,41.0981 ,0.90504 ,2.06457 ,20.25756 
224 ,41.2740 ,0.90675 ,2.05088 ,20.12325 
225 ,41.4661 ,0.90867 ,2.02350 ,19.85462 
226 ,41.6423 ,0.91046 ,2.01324 ,19.75388 
227 ,41.8504 ,0.91244 ,2.01324 ,19.75388 
228 ,42.0264 ,0.91427 ,1.99613 ,19.58599 
229 ,42.2021 ,0.91610 ,1.96533 ,19.28379 
230 ,42.3785 ,0.91779 ,1.97902 ,19.41810 
231 ,42.5866 ,0.91983 ,1.96875 ,19.31737 
232 ,42.7788 ,0.92171 ,1.94479 ,19.08232 
233 ,42.9707 ,0.92376 ,1.92084 ,18.84727 
234 ,43.1469 ,0.92550 ,1.90715 ,18.71296 
235 ,43.3546 ,0.92749 ,1.88319 ,18.47791 
236 ,43.5470 ,0.92948 ,1.88662 ,18.51149 
237 ,43.7230 ,0.93125 ,1.87977 ,18.44433 
238 ,43.8992 ,0.93303 ,1.85582 ,18.20928 
239 ,44.1071 ,0.93502 ,1.83528 ,18.00781 
240 ,44.2994 ,0.93703 ,1.83186 ,17.97423 
241 ,44.4751 ,0.93883 ,1.82502 ,17.90708 
242 ,44.6673 ,0.94063 ,1.81817 ,17.83992 
243 ,44.8433 ,0.94244 ,1.81475 ,17.80634 
244 ,45.0357 ,0.94434 ,1.77026 ,17.36983 
245 ,45.2117 ,0.94617 ,1.76000 ,17.26909 
246 ,45.3877 ,0.94785 ,1.75657 ,17.23551 
247 ,45.5638 ,0.94966 ,1.74631 ,17.13478 
248 ,45.7558 ,0.95158 ,1.72578 ,16.93331 
249 ,45.9319 ,0.95333 ,1.70182 ,16.69826 
250 ,46.1242 ,0.95524 ,1.70866 ,16.76542 
251 ,46.3001 ,0.95703 ,1.70182 ,16.69826 
252 ,46.4762 ,0.95872 ,1.67444 ,16.42963 
253 ,46.6683 ,0.96065 ,1.66760 ,16.36248 
254 ,46.8764 ,0.96279 ,1.64022 ,16.09385 
255 ,47.0524 ,0.96455 ,1.62311 ,15.92596 
256 ,47.2444 ,0.96648 ,1.61969 ,15.89238 
257 ,47.4365 ,0.96834 ,1.60258 ,15.72449 
258 ,47.6126 ,0.97013 ,1.57520 ,15.45586 
259 ,47.7886 ,0.97190 ,1.57520 ,15.45586 
260 ,47.9647 ,0.97362 ,1.57178 ,15.42228 
261 ,48.1409 ,0.97543 ,1.56493 ,15.35513 
262 ,48.3327 ,0.97728 ,1.52045 ,14.91861 
263 ,48.5091 ,0.97908 ,1.53071 ,15.01934 
264 ,48.7009 ,0.98094 ,1.52045 ,14.91861 
265 ,48.8932 ,0.98287 ,1.49649 ,14.68356 
266 ,49.0851 ,0.98475 ,1.49649 ,14.68356 
267 ,49.2613 ,0.98661 ,1.49307 ,14.64998 
268 ,49.4532 ,0.98854 ,1.45542 ,14.28062 
269 ,49.6295 ,0.99029 ,1.44516 ,14.17989 
270 ,49.7893 ,0.99201 ,1.43147 ,14.04557 
271 ,49.9654 ,0.99363 ,1.42805 ,14.01199 
272 ,50.1416 ,0.99541 ,1.42805 ,14.01199 
273 ,50.3336 ,0.99732 ,1.39725 ,13.70979 
274 ,50.5098 ,0.99908 ,1.37329 ,13.47474 
275 ,50.7013 ,1.00093 ,1.39040 ,13.64263 
276 ,50.8939 ,1.00290 ,1.35960 ,13.34043 
277 ,51.0698 ,1.00481 ,1.34934 ,13.23969 
278 ,51.2460 ,1.00644 ,1.33565 ,13.10538 
279 ,51.4541 ,1.00847 ,1.31512 ,12.90391 
280 ,51.6301 ,1.01028 ,1.30485 ,12.80318 
281 ,51.8059 ,1.01202 ,1.30827 ,12.83675 
282 ,51.9984 ,1.01389 ,1.29458 ,12.70244 
283 ,52.1901 ,1.01597 ,1.28089 ,12.56813 
284 ,52.3664 ,1.01761 ,1.25352 ,12.29950 
285 ,52.5425 ,1.01940 ,1.26036 ,12.36666 
286 ,52.7187 ,1.02121 ,1.25694 ,12.33308 
287 ,52.8944 ,1.02291 ,1.24325 ,12.19877 
288 ,53.0708 ,1.02472 ,1.21587 ,11.93014 
289 ,53.2948 ,1.02678 ,1.19534 ,11.72867 
290 ,53.4709 ,1.02867 ,1.18850 ,11.66151 
291 ,53.6469 ,1.03042 ,1.18507 ,11.62794 
292 ,53.8231 ,1.03221 ,1.16454 ,11.42647 
293 ,53.9986 ,1.03411 ,1.16454 ,11.42647 
294 ,54.1750 ,1.03571 ,1.15770 ,11.35931 
295 ,54.3513 ,1.03750 ,1.13716 ,11.15784 
296 ,54.5433 ,1.03947 ,1.13716 ,11.15784 
297 ,54.7193 ,1.04118 ,1.12005 ,10.98995 
298 ,54.8950 ,1.04291 ,1.09610 ,10.75490 
299 ,55.0710 ,1.04469 ,1.10979 ,10.88921 
300 ,55.2311 ,1.04641 ,1.07899 ,10.58701 
301 ,55.3913 ,1.04801 ,1.06187 ,10.41912 
302 ,55.5998 ,1.04994 ,1.05845 ,10.38554 
303 ,55.7915 ,1.05189 ,1.05161 ,10.31838 
304 ,55.9676 ,1.05359 ,1.02423 ,10.04976 
305 ,56.1436 ,1.05537 ,1.01739 ,9.98260 
306 ,56.3197 ,1.05718 ,1.01054 ,9.91544 
307 ,56.5121 ,1.05897 ,1.01396 ,9.94902 
308 ,56.6882 ,1.06085 ,0.96605 ,9.47892 
309 ,56.8802 ,1.06279 ,0.96948 ,9.51250 
310 ,57.0564 ,1.06453 ,0.97632 ,9.57966 
311 ,57.2485 ,1.06636 ,0.94210 ,9.24388 
312 ,57.4245 ,1.06823 ,0.91814 ,9.00883 
313 ,57.6005 ,1.06999 ,0.92841 ,9.10956 
314 ,57.7927 ,1.07190 ,0.92841 ,9.10956 
315 ,58.0009 ,1.07390 ,0.91814 ,9.00883 
316 ,58.1925 ,1.07587 ,0.89077 ,8.74020 
317 ,58.3849 ,1.07770 ,0.87023 ,8.53873 
318 ,58.5769 ,1.07979 ,0.87023 ,8.53873 
319 ,58.7529 ,1.08149 ,0.84628 ,8.30368 
320 ,58.9449 ,1.08343 ,0.83259 ,8.16937 
321 ,59.1371 ,1.08527 ,0.83943 ,8.23653 
322 ,59.3133 ,1.08709 ,0.83601 ,8.20295 
323 ,59.5053 ,1.08893 ,0.78810 ,7.73285 
324 ,59.6971 ,1.09082 ,0.78126 ,7.66570 
325 ,59.8735 ,1.09274 ,0.77099 ,7.56496 
326 ,60.0658 ,1.09461 ,0.75730 ,7.43065 
327 ,60.2416 ,1.09634 ,0.75730 ,7.43065 
328 ,60.4017 ,1.09809 ,0.75730 ,7.43065 
329 ,60.5779 ,1.09971 ,0.75046 ,7.36349 
330 ,60.7697 ,1.10158 ,0.72650 ,7.12844 
331 ,60.9460 ,1.10343 ,0.70939 ,6.96055 
332 ,61.1381 ,1.10537 ,0.70597 ,6.92697 
333 ,61.3301 ,1.10723 ,0.69228 ,6.79266 
334 ,61.5223 ,1.10913 ,0.67517 ,6.62477 
335 ,61.7304 ,1.11115 ,0.68544 ,6.72550 
336 ,61.9064 ,1.11303 ,0.64779 ,6.35614 
337 ,62.0825 ,1.11474 ,0.64095 ,6.28899 
338 ,62.2746 ,1.11663 ,0.64779 ,6.35614 
339 ,62.4503 ,1.11848 ,0.63068 ,6.18825 
340 ,62.6267 ,1.12023 ,0.62042 ,6.08752 
341 ,62.8189 ,1.12214 ,0.61015 ,5.98678 
342 ,63.0268 ,1.12415 ,0.57935 ,5.68458 
343 ,63.2026 ,1.12595 ,0.57593 ,5.65100 
344 ,63.3790 ,1.12774 ,0.56908 ,5.58384 
345 ,63.5551 ,1.12943 ,0.56566 ,5.55026 
346 ,63.7311 ,1.13124 ,0.55539 ,5.44953 
347 ,63.9073 ,1.13303 ,0.53828 ,5.28164 
348 ,64.0993 ,1.13497 ,0.53828 ,5.28164 
349 ,64.2753 ,1.13672 ,0.52802 ,5.18090 
350 ,64.4674 ,1.13863 ,0.51433 ,5.04659 
351 ,64.6435 ,1.14035 ,0.49037 ,4.81154 
352 ,64.8353 ,1.14217 ,0.48011 ,4.71081 
353 ,65.0117 ,1.14406 ,0.48353 ,4.74438 
354 ,65.2039 ,1.14593 ,0.45957 ,4.50934 
355 ,65.3958 ,1.14790 ,0.46300 ,4.54291 
356 ,65.5880 ,1.14985 ,0.44588 ,4.37502 
357 ,65.7797 ,1.15166 ,0.42535 ,4.17355 
358 ,65.9560 ,1.15347 ,0.42535 ,4.17355 
359 ,66.1480 ,1.15538 ,0.41509 ,4.07282 
360 ,66.3241 ,1.15717 ,0.39455 ,3.87135 
361 ,66.5004 ,1.15893 ,0.39113 ,3.83777 
362 ,66.6763 ,1.16071 ,0.37060 ,3.63630 
363 ,66.8682 ,1.16256 ,0.36718 ,3.60272 
364 ,67.0605 ,1.16457 ,0.35006 ,3.43483 
365 ,67.2524 ,1.16638 ,0.34322 ,3.36767 
366 ,67.4448 ,1.16832 ,0.33980 ,3.33410 
367 ,67.6365 ,1.17021 ,0.32611 ,3.19978 
368 ,67.8288 ,1.17224 ,0.32611 ,3.19978 
369 ,68.0046 ,1.17394 ,0.30215 ,2.96473 
370 ,68.1807 ,1.17578 ,0.27135 ,2.66253 
371 ,68.3569 ,1.17754 ,0.26793 ,2.62895 
372 ,68.5491 ,1.17941 ,0.27135 ,2.66253 
373 ,68.7247 ,1.18117 ,0.25424 ,2.49464 
374 ,68.9012 ,1.18294 ,0.24398 ,2.39390 
375 ,69.0931 ,1.18482 ,0.23029 ,2.25959 
376 ,69.2694 ,1.18658 ,0.22687 ,2.22601 
377 ,69.4774 ,1.18862 ,0.20976 ,2.05812 
378 ,69.6535 ,1.19047 ,0.19949 ,1.95738 
379 ,69.8297 ,1.19224 ,0.19607 ,1.92381 
380 ,70.0217 ,1.19410 ,0.16185 ,1.58802 
381 ,70.2136 ,1.19611 ,0.17553 ,1.72234 
382 ,70.3899 ,1.19783 ,0.17553 ,1.72234 
383 ,70.5817 ,1.19967 ,0.14816 ,1.45371 
384 ,70.7579 ,1.20151 ,0.13105 ,1.28582 
385 ,70.9337 ,1.20323 ,0.14473 ,1.42013 
386 ,71.1098 ,1.20502 ,0.13105 ,1.28582 
387 ,71.2861 ,1.20681 ,0.11736 ,1.15151 
388 ,71.4781 ,1.20863 ,0.09682 ,0.95004 
389 ,71.6543 ,1.21046 ,0.08998 ,0.88288 
390 ,71.8303 ,1.21226 ,0.08656 ,0.84930 
391 ,72.0221 ,1.21416 ,0.06602 ,0.64783 
392 ,72.1985 ,1.21589 ,0.05234 ,0.51352 
393 ,72.3906 ,1.21779 ,0.06602 ,0.64783 
394 ,72.5825 ,1.21974 ,0.04549 ,0.44636 
395 ,72.7586 ,1.22148 ,0.03865 ,0.37920 
396 ,72.9346 ,1.22322 ,0.01811 ,0.17773 
397 ,73.1106 ,1.22497 ,0.02496 ,0.24489 
398 ,73.2868 ,1.22677 ,0.02496 ,0.24489 
399 ,73.4629 ,1.22850 ,-0.00584 ,-0.05731 
400 ,73.6391 ,1.23031 ,-0.01953 ,-0.19163 
401 ,73.8311 ,1.23214 ,0.00100 ,0.00984 
402 ,74.0072 ,1.23397 ,-0.01953 ,-0.19163 
403 ,74.1830 ,1.23573 ,-0.03664 ,-0.35952 
404 ,74.3753 ,1.23768 ,-0.06402 ,-0.62814 
405 ,74.5510 ,1.23940 ,-0.05375 ,-0.52741 
406 ,74.7273 ,1.24117 ,-0.05717 ,-0.56099 
407 ,74.9195 ,1.24312 ,-0.08455 ,-0.82961 
408 ,75.1277 ,1.24507 ,-0.09140 ,-0.89677 
409 ,75.3197 ,1.24703 ,-0.11193 ,-1.09824 
410 ,75.5117 ,1.24901 ,-0.13246 ,-1.29971 
411 ,75.6879 ,1.25077 ,-0.11535 ,-1.13182 
412 ,75.8799 ,1.25271 ,-0.12904 ,-1.26613 
413 ,76.0719 ,1.25459 ,-0.15299 ,-1.50118 
414 ,76.2476 ,1.25638 ,-0.14957 ,-1.46760 
415 ,76.4242 ,1.25815 ,-0.14273 ,-1.40045 
416 ,76.6483 ,1.26022 ,-0.17353 ,-1.70265 
417 ,76.8242 ,1.26216 ,-0.16326 ,-1.60191 
418 ,77.0163 ,1.26396 ,-0.20775 ,-2.03843 
419 ,77.1925 ,1.26580 ,-0.21117 ,-2.07201 
420 ,77.3846 ,1.26778 ,-0.20433 ,-2.00485 
421 ,77.5606 ,1.26947 ,-0.20433 ,-2.00485 
422 ,77.7381 ,1.27124 ,-0.23513 ,-2.30706 
423 ,77.9444 ,1.27325 ,-0.23170 ,-2.27348 
424 ,78.1208 ,1.27510 ,-0.23855 ,-2.34064 
425 ,78.2969 ,1.27682 ,-0.25908 ,-2.54211 
426 ,78.4730 ,1.27857 ,-0.27277 ,-2.67642 
427 ,78.6650 ,1.28056 ,-0.27619 ,-2.71000 
428 ,78.8413 ,1.28231 ,-0.28646 ,-2.81073 
429 ,79.0332 ,1.28415 ,-0.31041 ,-3.04578 
430 ,79.2090 ,1.28596 ,-0.30015 ,-2.94505 
431 ,79.3852 ,1.28768 ,-0.30015 ,-2.94505 
432 ,79.5614 ,1.28949 ,-0.30357 ,-2.97863 
433 ,79.7537 ,1.29138 ,-0.32752 ,-3.21367 
434 ,79.9456 ,1.29323 ,-0.32752 ,-3.21367 
435 ,80.1378 ,1.29523 ,-0.35490 ,-3.48230 
436 ,80.3138 ,1.29705 ,-0.35832 ,-3.51588 
437 ,80.5056 ,1.29893 ,-0.36517 ,-3.58303 
438 ,80.6980 ,1.30077 ,-0.37886 ,-3.71735 
439 ,81.0499 ,1.30354 ,-0.36859 ,-3.61661 
440 ,81.2262 ,1.30615 ,-0.38912 ,-3.81808 
441 ,81.4183 ,1.30811 ,-0.38570 ,-3.78450 
442 ,81.6100 ,1.30989 ,-0.41650 ,-4.08671 
443 ,81.7864 ,1.31173 ,-0.43019 ,-4.22102 
444 ,81.9784 ,1.31368 ,-0.41308 ,-4.05313 
445 ,82.1544 ,1.31543 ,-0.44046 ,-4.32176 
446 ,82.3305 ,1.31718 ,-0.46099 ,-4.52323 
447 ,82.5067 ,1.31897 ,-0.46783 ,-4.59038 
448 ,82.6823 ,1.32074 ,-0.46099 ,-4.52323 
449 ,82.8588 ,1.32247 ,-0.46441 ,-4.55681 
450 ,83.0507 ,1.32439 ,-0.49179 ,-4.82543 
451 ,83.2269 ,1.32611 ,-0.49521 ,-4.85901 
452 ,83.4189 ,1.32810 ,-0.49179 ,-4.82543 
453 ,83.6113 ,1.32995 ,-0.51917 ,-5.09406 
454 ,83.7872 ,1.33177 ,-0.50890 ,-4.99332 
455 ,83.9633 ,1.33347 ,-0.51232 ,-5.02690 
456 ,84.1553 ,1.33543 ,-0.52943 ,-5.19479 
457 ,84.3475 ,1.33725 ,-0.55339 ,-5.42984 
458 ,84.5396 ,1.33928 ,-0.53970 ,-5.29553 
459 ,84.7156 ,1.34102 ,-0.54997 ,-5.39626 
460 ,84.9077 ,1.34285 ,-0.57392 ,-5.63131 
461 ,85.1156 ,1.34496 ,-0.57734 ,-5.66489 
462 ,85.3078 ,1.34684 ,-0.58419 ,-5.73205 
463 ,85.4838 ,1.34868 ,-0.59788 ,-5.86636 
464 ,85.6599 ,1.35047 ,-0.59445 ,-5.83278 
