Data stamp = , 07-04-2022 20:29:45 024

Calibration Values: 
Slope = , 26.54 , g/V 
Offset Voltage at no contact = , -0.501760 , V 

No , Time , Stage Position ,   Mass , Force 
   ,  (s) ,      (mm)      ,   (g)  , (mN)  

1 ,0.0000 ,0.49933 ,5.24376 ,51.45180 
2 ,0.2169 ,0.49943 ,5.23692 ,51.38464 
3 ,0.4733 ,0.50007 ,5.23350 ,51.35107 
4 ,0.6815 ,0.50128 ,5.24034 ,51.41822 
5 ,0.8733 ,0.50286 ,5.24376 ,51.45180 
6 ,1.0497 ,0.50456 ,5.23350 ,51.35107 
7 ,1.2256 ,0.50631 ,5.25061 ,51.51896 
8 ,1.4017 ,0.50800 ,5.21296 ,51.14960 
9 ,1.5939 ,0.51000 ,5.21981 ,51.21675 
10 ,1.7700 ,0.51178 ,5.20612 ,51.08244 
11 ,1.9617 ,0.51374 ,5.18901 ,50.91455 
12 ,2.1380 ,0.51544 ,5.16163 ,50.64592 
13 ,2.3302 ,0.51730 ,5.15479 ,50.57876 
14 ,2.4901 ,0.51906 ,5.15136 ,50.54519 
15 ,2.6663 ,0.52074 ,5.13768 ,50.41087 
16 ,2.8422 ,0.52245 ,5.10688 ,50.10867 
17 ,3.0183 ,0.52421 ,5.08634 ,49.90720 
18 ,3.2103 ,0.52618 ,5.07608 ,49.80646 
19 ,3.4187 ,0.52820 ,5.05212 ,49.57142 
20 ,3.5946 ,0.53001 ,5.04185 ,49.47068 
21 ,3.7867 ,0.53191 ,5.02474 ,49.30279 
22 ,3.9629 ,0.53365 ,5.00763 ,49.13490 
23 ,4.1546 ,0.53561 ,5.00079 ,49.06774 
24 ,4.3310 ,0.53736 ,4.97341 ,48.79911 
25 ,4.5390 ,0.53937 ,4.95972 ,48.66480 
26 ,4.7151 ,0.54121 ,4.94603 ,48.53049 
27 ,4.8913 ,0.54291 ,4.93235 ,48.39618 
28 ,5.0834 ,0.54495 ,4.91866 ,48.26186 
29 ,5.2594 ,0.54670 ,4.90155 ,48.09397 
30 ,5.4354 ,0.54848 ,4.88786 ,47.95966 
31 ,5.6116 ,0.55018 ,4.87417 ,47.82534 
32 ,5.8197 ,0.55225 ,4.83652 ,47.45598 
33 ,6.0115 ,0.55409 ,4.82968 ,47.38883 
34 ,6.1878 ,0.55591 ,4.81599 ,47.25451 
35 ,6.3637 ,0.55770 ,4.80230 ,47.12020 
36 ,6.5719 ,0.55975 ,4.77150 ,46.81800 
37 ,6.7478 ,0.56155 ,4.77150 ,46.81800 
38 ,6.9242 ,0.56327 ,4.74755 ,46.58295 
39 ,7.1158 ,0.56517 ,4.72359 ,46.34790 
40 ,7.2920 ,0.56697 ,4.70990 ,46.21359 
41 ,7.4844 ,0.56888 ,4.70990 ,46.21359 
42 ,7.6765 ,0.57082 ,4.67226 ,45.84422 
43 ,7.8525 ,0.57259 ,4.64488 ,45.57560 
44 ,8.0604 ,0.57460 ,4.63119 ,45.44128 
45 ,8.2367 ,0.57642 ,4.61066 ,45.23981 
46 ,8.4283 ,0.57824 ,4.60724 ,45.20624 
47 ,8.6048 ,0.58005 ,4.60382 ,45.17266 
48 ,8.7969 ,0.58199 ,4.58328 ,44.97119 
49 ,8.9728 ,0.58374 ,4.56617 ,44.80330 
50 ,9.1489 ,0.58554 ,4.56960 ,44.83688 
51 ,9.3408 ,0.58745 ,4.53880 ,44.53467 
52 ,9.5172 ,0.58926 ,4.51826 ,44.33320 
53 ,9.6932 ,0.59094 ,4.49431 ,44.09815 
54 ,9.8694 ,0.59274 ,4.49089 ,44.06457 
55 ,10.0774 ,0.59476 ,4.45324 ,43.69521 
56 ,10.2536 ,0.59655 ,4.44640 ,43.62806 
57 ,10.4294 ,0.59831 ,4.44640 ,43.62806 
58 ,10.6053 ,0.60006 ,4.43613 ,43.52732 
59 ,10.7818 ,0.60184 ,4.42586 ,43.42659 
60 ,10.9738 ,0.60376 ,4.38822 ,43.05723 
61 ,11.1497 ,0.60561 ,4.39849 ,43.15796 
62 ,11.3259 ,0.60729 ,4.37795 ,42.95649 
63 ,11.4859 ,0.60898 ,4.35400 ,42.72144 
64 ,11.6620 ,0.61066 ,4.34716 ,42.65429 
65 ,11.8543 ,0.61247 ,4.31978 ,42.38566 
66 ,12.0463 ,0.61449 ,4.31636 ,42.35208 
67 ,12.2384 ,0.61636 ,4.27871 ,41.98272 
68 ,12.4145 ,0.61822 ,4.27871 ,41.98272 
69 ,12.6222 ,0.62010 ,4.25818 ,41.78125 
70 ,12.7987 ,0.62203 ,4.26160 ,41.81483 
71 ,12.9908 ,0.62391 ,4.23765 ,41.57978 
72 ,13.1668 ,0.62566 ,4.23422 ,41.54620 
73 ,13.3586 ,0.62752 ,4.18289 ,41.04253 
74 ,13.5349 ,0.62942 ,4.17947 ,41.00895 
75 ,13.7105 ,0.63109 ,4.17262 ,40.94179 
76 ,13.8872 ,0.63290 ,4.16578 ,40.87464 
77 ,14.0789 ,0.63479 ,4.14183 ,40.63959 
78 ,14.2552 ,0.63660 ,4.12471 ,40.47170 
79 ,14.4307 ,0.63832 ,4.09734 ,40.20307 
80 ,14.6234 ,0.64017 ,4.10076 ,40.23665 
81 ,14.8150 ,0.64217 ,4.08365 ,40.06876 
82 ,14.9911 ,0.64388 ,4.06996 ,39.93444 
83 ,15.1673 ,0.64567 ,4.07338 ,39.96802 
84 ,15.3436 ,0.64749 ,4.03916 ,39.63224 
85 ,15.5357 ,0.64940 ,4.01520 ,39.39719 
86 ,15.7275 ,0.65125 ,4.02547 ,39.49793 
87 ,15.9040 ,0.65306 ,4.00494 ,39.29646 
88 ,16.0960 ,0.65498 ,3.96729 ,38.92709 
89 ,16.2882 ,0.65688 ,3.97756 ,39.02783 
90 ,16.4642 ,0.65868 ,3.95018 ,38.75920 
91 ,16.6722 ,0.66059 ,3.93650 ,38.62489 
92 ,16.8641 ,0.66255 ,3.92965 ,38.55773 
93 ,17.0564 ,0.66454 ,3.89201 ,38.18837 
94 ,17.2644 ,0.66655 ,3.90227 ,38.28911 
95 ,17.4565 ,0.66844 ,3.86805 ,37.95332 
96 ,17.6326 ,0.67032 ,3.84410 ,37.71828 
97 ,17.8245 ,0.67222 ,3.84752 ,37.75185 
98 ,18.0006 ,0.67403 ,3.83383 ,37.61754 
99 ,18.1768 ,0.67575 ,3.80303 ,37.31534 
100 ,18.3528 ,0.67760 ,3.79276 ,37.21460 
101 ,18.5290 ,0.67929 ,3.77908 ,37.08029 
102 ,18.7370 ,0.68125 ,3.76196 ,36.91240 
103 ,18.9132 ,0.68308 ,3.74143 ,36.71093 
104 ,19.0891 ,0.68486 ,3.72090 ,36.50946 
105 ,19.2653 ,0.68664 ,3.72090 ,36.50946 
106 ,19.4573 ,0.68849 ,3.70037 ,36.30799 
107 ,19.6334 ,0.69039 ,3.67983 ,36.10652 
108 ,19.8255 ,0.69224 ,3.66957 ,36.00578 
109 ,20.0337 ,0.69416 ,3.65588 ,35.87147 
110 ,20.2256 ,0.69625 ,3.65588 ,35.87147 
111 ,20.4333 ,0.69824 ,3.63877 ,35.70358 
112 ,20.6258 ,0.70028 ,3.61139 ,35.43495 
113 ,20.8179 ,0.70218 ,3.60454 ,35.36779 
114 ,20.9939 ,0.70388 ,3.57375 ,35.06559 
115 ,21.1697 ,0.70569 ,3.56690 ,34.99843 
116 ,21.3459 ,0.70745 ,3.54295 ,34.76338 
117 ,21.5382 ,0.70933 ,3.53610 ,34.69623 
118 ,21.7142 ,0.71116 ,3.51557 ,34.49476 
119 ,21.8904 ,0.71288 ,3.50188 ,34.36045 
120 ,22.0825 ,0.71476 ,3.50872 ,34.42760 
121 ,22.2901 ,0.71686 ,3.46766 ,34.02466 
122 ,22.4667 ,0.71866 ,3.46424 ,33.99108 
123 ,22.6586 ,0.72057 ,3.45397 ,33.89035 
124 ,22.8348 ,0.72234 ,3.42659 ,33.62172 
125 ,23.0107 ,0.72408 ,3.40948 ,33.45383 
126 ,23.2190 ,0.72601 ,3.40948 ,33.45383 
127 ,23.3949 ,0.72795 ,3.38895 ,33.25236 
128 ,23.6031 ,0.72996 ,3.39237 ,33.28594 
129 ,23.7952 ,0.73193 ,3.35815 ,32.95016 
130 ,23.9711 ,0.73366 ,3.33077 ,32.68153 
131 ,24.1473 ,0.73544 ,3.32051 ,32.58080 
132 ,24.3233 ,0.73722 ,3.31024 ,32.48006 
133 ,24.5154 ,0.73911 ,3.30682 ,32.44648 
134 ,24.7076 ,0.74108 ,3.28286 ,32.21143 
135 ,24.8995 ,0.74295 ,3.28971 ,32.27859 
136 ,25.0757 ,0.74474 ,3.25206 ,31.90923 
137 ,25.2517 ,0.74649 ,3.23495 ,31.74134 
138 ,25.4274 ,0.74825 ,3.21442 ,31.53987 
139 ,25.6039 ,0.75003 ,3.21784 ,31.57345 
140 ,25.7960 ,0.75185 ,3.19046 ,31.30482 
141 ,25.9880 ,0.75380 ,3.19046 ,31.30482 
142 ,26.1639 ,0.75561 ,3.17677 ,31.17051 
143 ,26.3561 ,0.75749 ,3.15282 ,30.93546 
144 ,26.5158 ,0.75926 ,3.13571 ,30.76757 
145 ,26.6923 ,0.76093 ,3.12886 ,30.70041 
146 ,26.8847 ,0.76286 ,3.10833 ,30.49894 
147 ,27.0604 ,0.76458 ,3.10491 ,30.46536 
148 ,27.2527 ,0.76640 ,3.09806 ,30.39821 
149 ,27.4286 ,0.76825 ,3.07069 ,30.12958 
150 ,27.6044 ,0.76998 ,3.05700 ,29.99527 
151 ,27.7969 ,0.77194 ,3.05700 ,29.99527 
152 ,27.9889 ,0.77385 ,3.02962 ,29.72664 
153 ,28.1645 ,0.77562 ,3.01251 ,29.55875 
154 ,28.3406 ,0.77743 ,3.00567 ,29.49159 
155 ,28.5331 ,0.77918 ,2.99198 ,29.35728 
156 ,28.7250 ,0.78121 ,2.97829 ,29.22297 
157 ,28.9172 ,0.78313 ,2.96118 ,29.05507 
158 ,29.1252 ,0.78517 ,2.95433 ,28.98792 
159 ,29.3014 ,0.78696 ,2.94064 ,28.85360 
160 ,29.5094 ,0.78895 ,2.90300 ,28.48424 
161 ,29.6852 ,0.79081 ,2.90642 ,28.51782 
162 ,29.8617 ,0.79258 ,2.89273 ,28.38351 
163 ,30.0537 ,0.79447 ,2.86536 ,28.11488 
164 ,30.2458 ,0.79631 ,2.85167 ,27.98057 
165 ,30.4379 ,0.79836 ,2.84825 ,27.94699 
166 ,30.6619 ,0.80046 ,2.84140 ,27.87983 
167 ,30.8380 ,0.80231 ,2.83114 ,27.77910 
168 ,31.0460 ,0.80431 ,2.79007 ,27.37616 
169 ,31.2222 ,0.80615 ,2.79691 ,27.44332 
170 ,31.4142 ,0.80814 ,2.76611 ,27.14111 
171 ,31.6063 ,0.81002 ,2.75243 ,27.00680 
172 ,31.7823 ,0.81181 ,2.75585 ,27.04038 
173 ,31.9745 ,0.81359 ,2.72163 ,26.70459 
174 ,32.1663 ,0.81553 ,2.71478 ,26.63744 
175 ,32.3426 ,0.81737 ,2.70452 ,26.53670 
176 ,32.5185 ,0.81918 ,2.69083 ,26.40239 
177 ,32.7102 ,0.82100 ,2.66345 ,26.13376 
178 ,32.8864 ,0.82282 ,2.64292 ,25.93229 
179 ,33.0625 ,0.82460 ,2.65318 ,26.03303 
180 ,33.3030 ,0.82690 ,2.63949 ,25.89871 
181 ,33.4950 ,0.82890 ,2.60527 ,25.56293 
182 ,33.7031 ,0.83082 ,2.59501 ,25.46220 
183 ,33.8952 ,0.83288 ,2.58816 ,25.39504 
184 ,34.0710 ,0.83468 ,2.58132 ,25.32788 
185 ,34.2634 ,0.83648 ,2.56078 ,25.12641 
186 ,34.4554 ,0.83849 ,2.53683 ,24.89136 
187 ,34.6313 ,0.84027 ,2.52998 ,24.82421 
188 ,34.8236 ,0.84212 ,2.52314 ,24.75705 
189 ,34.9993 ,0.84392 ,2.51287 ,24.65632 
190 ,35.1758 ,0.84569 ,2.49576 ,24.48842 
191 ,35.3679 ,0.84760 ,2.46839 ,24.21980 
192 ,35.5436 ,0.84942 ,2.46496 ,24.18622 
193 ,35.7360 ,0.85127 ,2.44785 ,24.01833 
194 ,35.9121 ,0.85306 ,2.43074 ,23.85044 
195 ,36.0878 ,0.85487 ,2.44101 ,23.95117 
196 ,36.2643 ,0.85659 ,2.39994 ,23.54823 
197 ,36.4562 ,0.85847 ,2.41363 ,23.68255 
198 ,36.6323 ,0.86028 ,2.38283 ,23.38034 
199 ,36.8084 ,0.86207 ,2.36914 ,23.24603 
200 ,36.9846 ,0.86376 ,2.35888 ,23.14529 
201 ,37.1603 ,0.86554 ,2.35888 ,23.14529 
202 ,37.3365 ,0.86726 ,2.34861 ,23.04456 
203 ,37.5287 ,0.86924 ,2.30412 ,22.60804 
204 ,37.7046 ,0.87098 ,2.29385 ,22.50731 
205 ,37.8808 ,0.87274 ,2.29728 ,22.54088 
206 ,38.0730 ,0.87464 ,2.26648 ,22.23868 
207 ,38.2486 ,0.87641 ,2.25963 ,22.17152 
208 ,38.4250 ,0.87821 ,2.24937 ,22.07079 
209 ,38.6172 ,0.88009 ,2.24252 ,22.00363 
210 ,38.8253 ,0.88204 ,2.21172 ,21.70143 
211 ,39.0013 ,0.88398 ,2.21515 ,21.73500 
212 ,39.1933 ,0.88584 ,2.18435 ,21.43280 
213 ,39.3854 ,0.88777 ,2.17750 ,21.36564 
214 ,39.5610 ,0.88952 ,2.18435 ,21.43280 
215 ,39.7376 ,0.89127 ,2.16723 ,21.26491 
216 ,39.9135 ,0.89306 ,2.14670 ,21.06344 
217 ,40.1057 ,0.89500 ,2.12617 ,20.86197 
218 ,40.2976 ,0.89688 ,2.12617 ,20.86197 
219 ,40.4738 ,0.89864 ,2.09537 ,20.55976 
220 ,40.6499 ,0.90042 ,2.08852 ,20.49261 
221 ,40.8581 ,0.90243 ,2.08168 ,20.42545 
222 ,41.0497 ,0.90441 ,2.06115 ,20.22398 
223 ,41.2261 ,0.90618 ,2.05088 ,20.12325 
224 ,41.4019 ,0.90793 ,2.04404 ,20.05609 
225 ,41.5782 ,0.90972 ,2.02693 ,19.88820 
226 ,41.7703 ,0.91166 ,2.00297 ,19.65315 
227 ,41.9625 ,0.91346 ,1.99955 ,19.61957 
228 ,42.1545 ,0.91535 ,1.99270 ,19.55241 
229 ,42.3305 ,0.91721 ,1.96190 ,19.25021 
230 ,42.5387 ,0.91919 ,1.95848 ,19.21663 
231 ,42.7148 ,0.92106 ,1.94137 ,19.04874 
232 ,42.8912 ,0.92278 ,1.92768 ,18.91443 
233 ,43.0829 ,0.92476 ,1.93111 ,18.94801 
234 ,43.2751 ,0.92654 ,1.91742 ,18.81369 
235 ,43.4671 ,0.92858 ,1.89346 ,18.57864 
236 ,43.6432 ,0.93036 ,1.87977 ,18.44433 
237 ,43.8191 ,0.93208 ,1.88662 ,18.51149 
238 ,43.9953 ,0.93386 ,1.85582 ,18.20928 
239 ,44.1871 ,0.93574 ,1.83186 ,17.97423 
240 ,44.3635 ,0.93749 ,1.83528 ,18.00781 
241 ,44.5554 ,0.93944 ,1.81817 ,17.83992 
242 ,44.7315 ,0.94120 ,1.79764 ,17.63845 
243 ,44.9395 ,0.94321 ,1.78737 ,17.53772 
244 ,45.1158 ,0.94506 ,1.76684 ,17.33625 
245 ,45.3395 ,0.94713 ,1.77369 ,17.40340 
246 ,45.5159 ,0.94907 ,1.76342 ,17.30267 
247 ,45.7078 ,0.95098 ,1.72920 ,16.96689 
248 ,45.8841 ,0.95270 ,1.73604 ,17.03404 
249 ,46.0761 ,0.95460 ,1.70524 ,16.73184 
250 ,46.2683 ,0.95654 ,1.70182 ,16.69826 
251 ,46.4442 ,0.95833 ,1.70524 ,16.73184 
252 ,46.6363 ,0.96011 ,1.67444 ,16.42963 
253 ,46.7962 ,0.96199 ,1.65733 ,16.26174 
254 ,46.9724 ,0.96362 ,1.64364 ,16.12743 
255 ,47.1806 ,0.96553 ,1.64022 ,16.09385 
256 ,47.3726 ,0.96755 ,1.60258 ,15.72449 
257 ,47.5484 ,0.96945 ,1.61627 ,15.85880 
258 ,47.7408 ,0.97121 ,1.59916 ,15.69091 
259 ,47.9487 ,0.97331 ,1.57178 ,15.42228 
260 ,48.1406 ,0.97528 ,1.57178 ,15.42228 
261 ,48.3169 ,0.97700 ,1.55124 ,15.22081 
262 ,48.5091 ,0.97892 ,1.54440 ,15.15366 
263 ,48.7009 ,0.98079 ,1.54098 ,15.12008 
264 ,48.8768 ,0.98267 ,1.53071 ,15.01934 
265 ,49.0533 ,0.98445 ,1.52045 ,14.91861 
266 ,49.2613 ,0.98647 ,1.51018 ,14.81787 
267 ,49.4534 ,0.98831 ,1.49991 ,14.71714 
268 ,49.6295 ,0.99018 ,1.45542 ,14.28062 
269 ,49.8056 ,0.99195 ,1.45542 ,14.28062 
270 ,49.9975 ,0.99382 ,1.43489 ,14.07915 
271 ,50.2055 ,0.99576 ,1.43831 ,14.11273 
272 ,50.3654 ,0.99762 ,1.42805 ,14.01199 
273 ,50.5577 ,0.99942 ,1.40409 ,13.77695 
274 ,50.7660 ,1.00143 ,1.40409 ,13.77695 
275 ,50.9578 ,1.00347 ,1.39040 ,13.64263 
276 ,51.1501 ,1.00535 ,1.36645 ,13.40759 
277 ,51.3419 ,1.00732 ,1.35276 ,13.27327 
278 ,51.5343 ,1.00914 ,1.34249 ,13.17254 
279 ,51.7423 ,1.01124 ,1.32538 ,13.00465 
280 ,51.9184 ,1.01309 ,1.32538 ,13.00465 
281 ,52.1101 ,1.01494 ,1.28774 ,12.63528 
282 ,52.2863 ,1.01672 ,1.30143 ,12.76960 
283 ,52.4627 ,1.01848 ,1.27747 ,12.53455 
284 ,52.6386 ,1.02027 ,1.27405 ,12.50097 
285 ,52.8148 ,1.02198 ,1.25694 ,12.33308 
286 ,53.0068 ,1.02389 ,1.22956 ,12.06445 
287 ,53.1989 ,1.02577 ,1.22956 ,12.06445 
288 ,53.3750 ,1.02762 ,1.22272 ,11.99730 
289 ,53.5670 ,1.02950 ,1.20218 ,11.79583 
290 ,53.7590 ,1.03140 ,1.19192 ,11.69509 
291 ,53.9353 ,1.03323 ,1.17481 ,11.52720 
292 ,54.1273 ,1.03508 ,1.18165 ,11.59436 
293 ,54.3194 ,1.03698 ,1.16112 ,11.39289 
294 ,54.5433 ,1.03916 ,1.14401 ,11.22500 
295 ,54.7196 ,1.04104 ,1.13374 ,11.12426 
296 ,54.9117 ,1.04295 ,1.13374 ,11.12426 
297 ,55.1037 ,1.04481 ,1.09267 ,10.72132 
298 ,55.2797 ,1.04667 ,1.10636 ,10.85563 
299 ,55.4559 ,1.04842 ,1.08583 ,10.65416 
300 ,55.6314 ,1.05020 ,1.07556 ,10.55343 
301 ,55.8080 ,1.05195 ,1.05503 ,10.35196 
302 ,55.9999 ,1.05387 ,1.06187 ,10.41912 
303 ,56.1921 ,1.05575 ,1.02765 ,10.08333 
304 ,56.3682 ,1.05750 ,1.02423 ,10.04976 
305 ,56.5763 ,1.05951 ,1.01739 ,9.98260 
306 ,56.7683 ,1.06148 ,0.99001 ,9.71397 
307 ,56.9443 ,1.06333 ,0.99685 ,9.78113 
308 ,57.1202 ,1.06504 ,0.99343 ,9.74755 
309 ,57.2963 ,1.06677 ,0.95921 ,9.41177 
310 ,57.4727 ,1.06861 ,0.94894 ,9.31103 
311 ,57.6647 ,1.07050 ,0.95579 ,9.37819 
312 ,57.8408 ,1.07225 ,0.94552 ,9.27745 
313 ,58.0329 ,1.07410 ,0.92157 ,9.04241 
314 ,58.2249 ,1.07604 ,0.91472 ,8.97525 
315 ,58.4008 ,1.07782 ,0.91814 ,9.00883 
316 ,58.5932 ,1.07973 ,0.88392 ,8.67305 
317 ,58.7852 ,1.08171 ,0.88734 ,8.70662 
318 ,58.9612 ,1.08342 ,0.87023 ,8.53873 
319 ,59.1694 ,1.08550 ,0.85997 ,8.43800 
320 ,59.3455 ,1.08732 ,0.85997 ,8.43800 
321 ,59.5372 ,1.08919 ,0.82575 ,8.10221 
322 ,59.7137 ,1.09094 ,0.81206 ,7.96790 
323 ,59.8899 ,1.09274 ,0.79837 ,7.83359 
324 ,60.0819 ,1.09464 ,0.80179 ,7.86717 
325 ,60.2578 ,1.09642 ,0.78810 ,7.73285 
326 ,60.4497 ,1.09830 ,0.78468 ,7.69927 
327 ,60.6257 ,1.10008 ,0.77441 ,7.59854 
328 ,60.8020 ,1.10184 ,0.76415 ,7.49780 
329 ,60.9942 ,1.10381 ,0.74704 ,7.32991 
330 ,61.1865 ,1.10566 ,0.74704 ,7.32991 
331 ,61.3942 ,1.10766 ,0.71281 ,6.99413 
332 ,61.5704 ,1.10951 ,0.71624 ,7.02771 
333 ,61.7624 ,1.11152 ,0.67859 ,6.65835 
334 ,61.9543 ,1.11338 ,0.67517 ,6.62477 
335 ,62.1306 ,1.11516 ,0.65806 ,6.45688 
336 ,62.3065 ,1.11688 ,0.68201 ,6.69193 
337 ,62.4983 ,1.11878 ,0.64779 ,6.35614 
338 ,62.8507 ,1.12226 ,0.62384 ,6.12109 
339 ,63.0428 ,1.12421 ,0.63753 ,6.25541 
340 ,63.2350 ,1.12608 ,0.59304 ,5.81889 
341 ,63.4111 ,1.12794 ,0.58619 ,5.75173 
342 ,63.5872 ,1.12969 ,0.59304 ,5.81889 
343 ,63.7628 ,1.13149 ,0.58619 ,5.75173 
344 ,63.9392 ,1.13321 ,0.55882 ,5.48311 
345 ,64.1310 ,1.13514 ,0.54171 ,5.31522 
346 ,64.3074 ,1.13688 ,0.56566 ,5.55026 
347 ,64.4835 ,1.13867 ,0.54171 ,5.31522 
348 ,64.6597 ,1.14042 ,0.53828 ,5.28164 
349 ,64.8353 ,1.14217 ,0.50748 ,4.97943 
350 ,65.0116 ,1.14392 ,0.49380 ,4.84512 
351 ,65.2355 ,1.14603 ,0.48695 ,4.77796 
352 ,65.4278 ,1.14801 ,0.46642 ,4.57649 
353 ,65.6198 ,1.14988 ,0.47668 ,4.67723 
354 ,65.8282 ,1.15205 ,0.46984 ,4.61007 
355 ,66.0041 ,1.15387 ,0.44246 ,4.34144 
356 ,66.1961 ,1.15574 ,0.43562 ,4.27429 
357 ,66.3723 ,1.15750 ,0.41166 ,4.03924 
358 ,66.5643 ,1.15937 ,0.42193 ,4.13997 
359 ,66.7403 ,1.16118 ,0.41509 ,4.07282 
360 ,66.9166 ,1.16300 ,0.38771 ,3.80419 
361 ,67.1248 ,1.16505 ,0.39455 ,3.87135 
362 ,67.3165 ,1.16701 ,0.37402 ,3.66988 
363 ,67.4930 ,1.16876 ,0.35006 ,3.43483 
364 ,67.6689 ,1.17049 ,0.36033 ,3.53557 
365 ,67.8451 ,1.17228 ,0.35691 ,3.50199 
366 ,68.0207 ,1.17412 ,0.32953 ,3.23336 
367 ,68.1971 ,1.17580 ,0.30900 ,3.03189 
368 ,68.3732 ,1.17750 ,0.30215 ,2.96473 
369 ,68.5491 ,1.17935 ,0.29531 ,2.89758 
370 ,68.7254 ,1.18107 ,0.28847 ,2.83042 
371 ,68.9175 ,1.18294 ,0.27478 ,2.69611 
372 ,69.1095 ,1.18488 ,0.25082 ,2.46106 
373 ,69.3016 ,1.18680 ,0.27135 ,2.66253 
374 ,69.4938 ,1.18865 ,0.24055 ,2.36032 
375 ,69.6858 ,1.19058 ,0.23713 ,2.32675 
376 ,69.8618 ,1.19248 ,0.21318 ,2.09170 
377 ,70.0537 ,1.19435 ,0.20976 ,2.05812 
378 ,70.2300 ,1.19610 ,0.20291 ,1.99096 
379 ,70.4059 ,1.19786 ,0.19607 ,1.92381 
380 ,70.5821 ,1.19964 ,0.17896 ,1.75592 
381 ,70.7578 ,1.20138 ,0.16527 ,1.62160 
382 ,70.9342 ,1.20314 ,0.16527 ,1.62160 
383 ,71.1101 ,1.20487 ,0.15842 ,1.55445 
384 ,71.2864 ,1.20680 ,0.14473 ,1.42013 
385 ,71.4784 ,1.20855 ,0.12420 ,1.21866 
386 ,71.6546 ,1.21033 ,0.11051 ,1.08435 
387 ,71.8306 ,1.21210 ,0.11393 ,1.11793 
388 ,72.0226 ,1.21394 ,0.11393 ,1.11793 
389 ,72.1989 ,1.21581 ,0.07971 ,0.78214 
390 ,72.3911 ,1.21761 ,0.07971 ,0.78214 
391 ,72.5670 ,1.21945 ,0.08998 ,0.88288 
392 ,72.7747 ,1.22145 ,0.04207 ,0.41278 
393 ,72.9831 ,1.22352 ,0.04891 ,0.47994 
394 ,73.1590 ,1.22534 ,0.03180 ,0.31205 
395 ,73.3348 ,1.22712 ,0.02838 ,0.27847 
396 ,73.5111 ,1.22888 ,0.02154 ,0.21131 
397 ,73.6876 ,1.23066 ,0.01811 ,0.17773 
398 ,73.8636 ,1.23242 ,0.01811 ,0.17773 
399 ,74.0396 ,1.23417 ,-0.01269 ,-0.12447 
400 ,74.2316 ,1.23607 ,-0.04006 ,-0.39310 
401 ,74.4077 ,1.23780 ,-0.02637 ,-0.25878 
402 ,74.5840 ,1.23964 ,-0.02637 ,-0.25878 
403 ,74.7755 ,1.24159 ,-0.03322 ,-0.32594 
404 ,74.9356 ,1.24325 ,-0.06060 ,-0.59457 
405 ,75.0957 ,1.24487 ,-0.06744 ,-0.66172 
406 ,75.2720 ,1.24652 ,-0.08455 ,-0.82961 
407 ,75.4638 ,1.24841 ,-0.07086 ,-0.69530 
408 ,75.6563 ,1.25023 ,-0.09824 ,-0.96393 
409 ,75.8482 ,1.25233 ,-0.09824 ,-0.96393 
410 ,76.0403 ,1.25414 ,-0.10851 ,-1.06466 
411 ,76.2164 ,1.25593 ,-0.12562 ,-1.23255 
412 ,76.4086 ,1.25789 ,-0.12562 ,-1.23255 
413 ,76.6002 ,1.25969 ,-0.14957 ,-1.46760 
414 ,76.7767 ,1.26149 ,-0.15299 ,-1.50118 
415 ,76.9527 ,1.26334 ,-0.17353 ,-1.70265 
416 ,77.1447 ,1.26520 ,-0.15642 ,-1.53476 
417 ,77.3369 ,1.26711 ,-0.18379 ,-1.80338 
418 ,77.5289 ,1.26898 ,-0.18037 ,-1.76981 
419 ,77.7051 ,1.27083 ,-0.19406 ,-1.90412 
420 ,77.8972 ,1.27275 ,-0.20775 ,-2.03843 
421 ,78.0894 ,1.27466 ,-0.21459 ,-2.10559 
422 ,78.2654 ,1.27643 ,-0.21802 ,-2.13917 
423 ,78.4414 ,1.27815 ,-0.21802 ,-2.13917 
424 ,78.6173 ,1.27997 ,-0.23855 ,-2.34064 
425 ,78.8095 ,1.28177 ,-0.24881 ,-2.44137 
426 ,79.0017 ,1.28367 ,-0.24197 ,-2.37422 
427 ,79.2098 ,1.28581 ,-0.26250 ,-2.57569 
428 ,79.4016 ,1.28771 ,-0.27277 ,-2.67642 
429 ,79.5940 ,1.28973 ,-0.29330 ,-2.87789 
430 ,79.7857 ,1.29155 ,-0.28646 ,-2.81073 
431 ,79.9621 ,1.29339 ,-0.30015 ,-2.94505 
432 ,80.1541 ,1.29521 ,-0.31041 ,-3.04578 
433 ,80.3302 ,1.29711 ,-0.32068 ,-3.14652 
434 ,80.5062 ,1.29881 ,-0.31726 ,-3.11294 
435 ,80.6825 ,1.30062 ,-0.33095 ,-3.24725 
436 ,80.9065 ,1.30266 ,-0.34806 ,-3.41514 
437 ,81.1145 ,1.30480 ,-0.36517 ,-3.58303 
438 ,81.2906 ,1.30663 ,-0.37886 ,-3.71735 
439 ,81.4827 ,1.30859 ,-0.36859 ,-3.61661 
440 ,81.6588 ,1.31036 ,-0.39255 ,-3.85166 
441 ,81.8504 ,1.31221 ,-0.39939 ,-3.91882 
442 ,82.0270 ,1.31402 ,-0.39939 ,-3.91882 
443 ,82.2190 ,1.31598 ,-0.41308 ,-4.05313 
444 ,82.3951 ,1.31770 ,-0.41308 ,-4.05313 
445 ,82.6031 ,1.31969 ,-0.43019 ,-4.22102 
446 ,82.7788 ,1.32157 ,-0.44388 ,-4.35534 
447 ,82.9550 ,1.32326 ,-0.46783 ,-4.59038 
448 ,83.1312 ,1.32503 ,-0.45072 ,-4.42249 
449 ,83.3074 ,1.32684 ,-0.45414 ,-4.45607 
450 ,83.4834 ,1.32861 ,-0.45414 ,-4.45607 
451 ,83.6596 ,1.33037 ,-0.45757 ,-4.48965 
452 ,83.8514 ,1.33226 ,-0.48837 ,-4.79185 
453 ,84.0597 ,1.33426 ,-0.49863 ,-4.89259 
454 ,84.2517 ,1.33623 ,-0.50890 ,-4.99332 
455 ,84.4279 ,1.33802 ,-0.50548 ,-4.95975 
456 ,84.6196 ,1.33992 ,-0.53628 ,-5.26195 
457 ,84.7961 ,1.34168 ,-0.54312 ,-5.32911 
458 ,84.9880 ,1.34358 ,-0.52601 ,-5.16121 
459 ,85.1962 ,1.34562 ,-0.54997 ,-5.39626 
460 ,85.4043 ,1.34770 ,-0.55681 ,-5.46342 
461 ,85.5964 ,1.34965 ,-0.58419 ,-5.73205 
462 ,85.7722 ,1.35143 ,-0.57392 ,-5.63131 
463 ,85.9646 ,1.35328 ,-0.58419 ,-5.73205 
464 ,86.1565 ,1.35526 ,-0.61156 ,-6.00067 
