Data stamp = , 06-04-2022 16:05:13 805

Calibration Values: 
Slope = , 26.54 , g/V 
Offset Voltage at no contact = , -0.501760 , V 

No , Time , Stage Position ,   Mass , Force 
   ,  (s) ,      (mm)      ,   (g)  , (mN)  

1 ,0.0000 ,0.49939 ,5.23007 ,51.31749 
2 ,0.2065 ,0.49948 ,5.22323 ,51.25033 
3 ,0.6871 ,0.50080 ,5.25061 ,51.51896 
4 ,0.9109 ,0.50315 ,5.23007 ,51.31749 
5 ,1.1030 ,0.50513 ,5.23350 ,51.35107 
6 ,1.2952 ,0.50701 ,5.25403 ,51.55254 
7 ,1.4714 ,0.50880 ,5.22665 ,51.28391 
8 ,1.6794 ,0.51089 ,5.22665 ,51.28391 
9 ,1.8715 ,0.51281 ,5.19585 ,50.98170 
10 ,2.0637 ,0.51474 ,5.19243 ,50.94813 
11 ,2.2716 ,0.51672 ,5.17190 ,50.74666 
12 ,2.4477 ,0.51861 ,5.16163 ,50.64592 
13 ,2.6236 ,0.52041 ,5.15479 ,50.57876 
14 ,2.8160 ,0.52224 ,5.14452 ,50.47803 
15 ,2.9919 ,0.52402 ,5.13768 ,50.41087 
16 ,3.1680 ,0.52581 ,5.11030 ,50.14225 
17 ,3.3443 ,0.52756 ,5.09661 ,50.00793 
18 ,3.5361 ,0.52940 ,5.08634 ,49.90720 
19 ,3.7281 ,0.53142 ,5.05897 ,49.63857 
20 ,3.9203 ,0.53331 ,5.05554 ,49.60499 
21 ,4.0964 ,0.53513 ,5.05897 ,49.63857 
22 ,4.2725 ,0.53683 ,5.02132 ,49.26921 
23 ,4.4645 ,0.53871 ,4.99737 ,49.03416 
24 ,4.6409 ,0.54055 ,5.00079 ,49.06774 
25 ,4.8324 ,0.54244 ,4.96999 ,48.76554 
26 ,5.0088 ,0.54421 ,4.95972 ,48.66480 
27 ,5.2003 ,0.54612 ,4.94603 ,48.53049 
28 ,5.3924 ,0.54795 ,4.92550 ,48.32902 
29 ,5.5686 ,0.54991 ,4.90839 ,48.16113 
30 ,5.7452 ,0.55161 ,4.88444 ,47.92608 
31 ,5.9369 ,0.55351 ,4.89470 ,48.02681 
32 ,6.1132 ,0.55521 ,4.88101 ,47.89250 
33 ,6.3051 ,0.55709 ,4.85706 ,47.65745 
34 ,6.4975 ,0.55899 ,4.85021 ,47.59030 
35 ,6.6896 ,0.56094 ,4.81941 ,47.28809 
36 ,6.8976 ,0.56302 ,4.82284 ,47.32167 
37 ,7.0736 ,0.56485 ,4.79204 ,47.01946 
38 ,7.2497 ,0.56664 ,4.78177 ,46.91873 
39 ,7.4256 ,0.56832 ,4.75782 ,46.68368 
40 ,7.6020 ,0.57014 ,4.74413 ,46.54937 
41 ,7.7778 ,0.57192 ,4.74070 ,46.51579 
42 ,7.9699 ,0.57384 ,4.72017 ,46.31432 
43 ,8.1620 ,0.57571 ,4.69964 ,46.11285 
44 ,8.3542 ,0.57766 ,4.70306 ,46.14643 
45 ,8.5619 ,0.57958 ,4.66884 ,45.81065 
46 ,8.7543 ,0.58164 ,4.68253 ,45.94496 
47 ,8.9300 ,0.58353 ,4.64146 ,45.54202 
48 ,9.1059 ,0.58514 ,4.64831 ,45.60918 
49 ,9.2821 ,0.58690 ,4.61751 ,45.30697 
50 ,9.4586 ,0.58872 ,4.61066 ,45.23981 
51 ,9.6667 ,0.59081 ,4.59697 ,45.10550 
52 ,9.8587 ,0.59266 ,4.58671 ,45.00477 
53 ,10.0347 ,0.59446 ,4.56960 ,44.83688 
54 ,10.2109 ,0.59618 ,4.56617 ,44.80330 
55 ,10.4026 ,0.59809 ,4.52169 ,44.36678 
56 ,10.5790 ,0.59992 ,4.52169 ,44.36678 
57 ,10.7551 ,0.60168 ,4.51142 ,44.26604 
58 ,10.9311 ,0.60341 ,4.49431 ,44.09815 
59 ,11.1072 ,0.60516 ,4.47720 ,43.93026 
60 ,11.2829 ,0.60688 ,4.46009 ,43.76237 
61 ,11.4594 ,0.60868 ,4.43271 ,43.49374 
62 ,11.6355 ,0.61040 ,4.44640 ,43.62806 
63 ,11.8115 ,0.61222 ,4.42244 ,43.39301 
64 ,11.9876 ,0.61398 ,4.41902 ,43.35943 
65 ,12.1798 ,0.61593 ,4.37111 ,42.88933 
66 ,12.3716 ,0.61786 ,4.38138 ,42.99007 
67 ,12.5478 ,0.61956 ,4.36427 ,42.82218 
68 ,12.7239 ,0.62133 ,4.34031 ,42.58713 
69 ,12.9317 ,0.62335 ,4.34031 ,42.58713 
70 ,13.1081 ,0.62519 ,4.31978 ,42.38566 
71 ,13.2998 ,0.62708 ,4.29924 ,42.18419 
72 ,13.4922 ,0.62895 ,4.28556 ,42.04988 
73 ,13.6842 ,0.63093 ,4.28213 ,42.01630 
74 ,13.8763 ,0.63286 ,4.24449 ,41.64694 
75 ,14.0524 ,0.63461 ,4.23080 ,41.51262 
76 ,14.2285 ,0.63635 ,4.23765 ,41.57978 
77 ,14.3883 ,0.63806 ,4.19658 ,41.17684 
78 ,14.5647 ,0.63972 ,4.19316 ,41.14326 
79 ,14.7726 ,0.64175 ,4.18974 ,41.10968 
80 ,14.9489 ,0.64358 ,4.16920 ,40.90821 
81 ,15.1412 ,0.64546 ,4.14525 ,40.67317 
82 ,15.3490 ,0.64746 ,4.13840 ,40.60601 
83 ,15.5248 ,0.64946 ,4.11103 ,40.33738 
84 ,15.7172 ,0.65119 ,4.09049 ,40.13591 
85 ,15.9088 ,0.65315 ,4.09734 ,40.20307 
86 ,16.1010 ,0.65504 ,4.07338 ,39.96802 
87 ,16.3091 ,0.65698 ,4.04258 ,39.66582 
88 ,16.5009 ,0.65909 ,4.04258 ,39.66582 
89 ,16.6930 ,0.66091 ,4.01178 ,39.36361 
90 ,16.8854 ,0.66284 ,4.01520 ,39.39719 
91 ,17.0772 ,0.66494 ,3.98441 ,39.09499 
92 ,17.2696 ,0.66674 ,3.97756 ,39.02783 
93 ,17.4777 ,0.66884 ,3.94334 ,38.69205 
94 ,17.6539 ,0.67059 ,3.95018 ,38.75920 
95 ,17.8458 ,0.67253 ,3.92623 ,38.52415 
96 ,18.0220 ,0.67428 ,3.92281 ,38.49058 
97 ,18.2299 ,0.67626 ,3.89885 ,38.25553 
98 ,18.4222 ,0.67830 ,3.88516 ,38.12122 
99 ,18.6300 ,0.68033 ,3.86121 ,37.88617 
100 ,18.8062 ,0.68215 ,3.85094 ,37.78543 
101 ,18.9982 ,0.68391 ,3.84752 ,37.75185 
102 ,19.1746 ,0.68581 ,3.82356 ,37.51681 
103 ,19.3664 ,0.68769 ,3.83041 ,37.58396 
104 ,19.5428 ,0.68954 ,3.80987 ,37.38249 
105 ,19.7185 ,0.69128 ,3.78934 ,37.18102 
106 ,19.8948 ,0.69307 ,3.76881 ,36.97955 
107 ,20.1029 ,0.69505 ,3.73117 ,36.61019 
108 ,20.2789 ,0.69686 ,3.74143 ,36.71093 
109 ,20.4711 ,0.69865 ,3.72090 ,36.50946 
110 ,20.6474 ,0.70049 ,3.71063 ,36.40872 
111 ,20.8712 ,0.70261 ,3.68325 ,36.14010 
112 ,21.0477 ,0.70451 ,3.66272 ,35.93863 
113 ,21.2235 ,0.70630 ,3.64903 ,35.80431 
114 ,21.4155 ,0.70817 ,3.63534 ,35.67000 
115 ,21.5915 ,0.70998 ,3.62166 ,35.53569 
116 ,21.7677 ,0.71168 ,3.61139 ,35.43495 
117 ,21.9438 ,0.71349 ,3.60454 ,35.36779 
118 ,22.1358 ,0.71538 ,3.59428 ,35.26706 
119 ,22.3119 ,0.71718 ,3.57375 ,35.06559 
120 ,22.4879 ,0.71894 ,3.54295 ,34.76338 
121 ,22.6640 ,0.72072 ,3.54295 ,34.76338 
122 ,22.8560 ,0.72264 ,3.53610 ,34.69623 
123 ,23.0483 ,0.72445 ,3.50530 ,34.39402 
124 ,23.2401 ,0.72643 ,3.51557 ,34.49476 
125 ,23.4160 ,0.72822 ,3.50188 ,34.36045 
126 ,23.6403 ,0.73037 ,3.46424 ,33.99108 
127 ,23.8324 ,0.73241 ,3.45055 ,33.85677 
128 ,24.0081 ,0.73414 ,3.42317 ,33.58814 
129 ,24.1846 ,0.73588 ,3.42317 ,33.58814 
130 ,24.3607 ,0.73764 ,3.40606 ,33.42025 
131 ,24.5689 ,0.73967 ,3.37868 ,33.15163 
132 ,24.7450 ,0.74149 ,3.36157 ,32.98374 
133 ,24.9369 ,0.74343 ,3.36842 ,33.05089 
134 ,25.1126 ,0.74513 ,3.36157 ,32.98374 
135 ,25.3050 ,0.74701 ,3.33077 ,32.68153 
136 ,25.4811 ,0.74885 ,3.31366 ,32.51364 
137 ,25.6732 ,0.75076 ,3.31366 ,32.51364 
138 ,25.8652 ,0.75267 ,3.27602 ,32.14428 
139 ,26.0415 ,0.75447 ,3.27259 ,32.11070 
140 ,26.2495 ,0.75635 ,3.26233 ,32.00996 
141 ,26.4571 ,0.75864 ,3.24864 ,31.87565 
142 ,26.6496 ,0.76047 ,3.22126 ,31.60702 
143 ,26.8257 ,0.76230 ,3.20757 ,31.47271 
144 ,27.0018 ,0.76402 ,3.19731 ,31.37198 
145 ,27.1773 ,0.76580 ,3.19731 ,31.37198 
146 ,27.3538 ,0.76755 ,3.17677 ,31.17051 
147 ,27.5297 ,0.76934 ,3.16993 ,31.10335 
148 ,27.7061 ,0.77105 ,3.13229 ,30.73399 
149 ,27.8979 ,0.77296 ,3.13229 ,30.73399 
150 ,28.0742 ,0.77478 ,3.12202 ,30.63325 
151 ,28.2501 ,0.77654 ,3.10491 ,30.46536 
152 ,28.4263 ,0.77829 ,3.08438 ,30.26389 
153 ,28.6184 ,0.78022 ,3.08438 ,30.26389 
154 ,28.8105 ,0.78212 ,3.06384 ,30.06242 
155 ,29.0026 ,0.78405 ,3.04331 ,29.86095 
156 ,29.1945 ,0.78599 ,3.04331 ,29.86095 
157 ,29.3706 ,0.78771 ,3.01593 ,29.59233 
158 ,29.5466 ,0.78944 ,3.01251 ,29.55875 
159 ,29.7228 ,0.79123 ,2.98513 ,29.29012 
160 ,29.9307 ,0.79327 ,2.97829 ,29.22297 
161 ,30.1070 ,0.79508 ,2.95091 ,28.95434 
162 ,30.2830 ,0.79685 ,2.93380 ,28.78645 
163 ,30.4752 ,0.79873 ,2.93722 ,28.82003 
164 ,30.6673 ,0.80074 ,2.91327 ,28.58498 
165 ,30.8434 ,0.80253 ,2.90642 ,28.51782 
166 ,31.0194 ,0.80421 ,2.88589 ,28.31635 
167 ,31.2116 ,0.80616 ,2.87905 ,28.24919 
168 ,31.4032 ,0.80800 ,2.85167 ,27.98057 
169 ,31.5797 ,0.80985 ,2.84825 ,27.94699 
170 ,31.7718 ,0.81171 ,2.84825 ,27.94699 
171 ,31.9480 ,0.81351 ,2.82429 ,27.71194 
172 ,32.1237 ,0.81527 ,2.80376 ,27.51047 
173 ,32.3158 ,0.81709 ,2.77980 ,27.27542 
174 ,32.4918 ,0.81897 ,2.76954 ,27.17469 
175 ,32.6681 ,0.82069 ,2.78322 ,27.30900 
176 ,32.8602 ,0.82264 ,2.74900 ,26.97322 
177 ,33.0521 ,0.82450 ,2.73874 ,26.87248 
178 ,33.2284 ,0.82627 ,2.72847 ,26.77175 
179 ,33.4204 ,0.82823 ,2.68740 ,26.36881 
180 ,33.5962 ,0.82998 ,2.68398 ,26.33523 
181 ,33.7723 ,0.83170 ,2.67372 ,26.23450 
182 ,33.9489 ,0.83350 ,2.66687 ,26.16734 
183 ,34.1410 ,0.83544 ,2.63949 ,25.89871 
184 ,34.3166 ,0.83721 ,2.62581 ,25.76440 
185 ,34.4930 ,0.83891 ,2.61896 ,25.69724 
186 ,34.7010 ,0.84095 ,2.59501 ,25.46220 
187 ,34.8771 ,0.84280 ,2.59843 ,25.49577 
188 ,35.0532 ,0.84451 ,2.57789 ,25.29430 
189 ,35.2454 ,0.84646 ,2.57447 ,25.26073 
190 ,35.4212 ,0.84820 ,2.54367 ,24.95852 
191 ,35.8057 ,0.85099 ,2.51972 ,24.72347 
192 ,35.9972 ,0.85401 ,2.50603 ,24.58916 
193 ,36.1736 ,0.85573 ,2.48892 ,24.42127 
194 ,36.3656 ,0.85763 ,2.48207 ,24.35411 
195 ,36.5578 ,0.85958 ,2.45470 ,24.08549 
196 ,36.7335 ,0.86137 ,2.43759 ,23.91759 
197 ,36.9099 ,0.86309 ,2.43074 ,23.85044 
198 ,37.0860 ,0.86484 ,2.43074 ,23.85044 
199 ,37.2781 ,0.86672 ,2.40336 ,23.58181 
200 ,37.4702 ,0.86866 ,2.40336 ,23.58181 
201 ,37.6462 ,0.87048 ,2.38968 ,23.44750 
202 ,37.8221 ,0.87216 ,2.38283 ,23.38034 
203 ,37.9822 ,0.87392 ,2.36914 ,23.24603 
204 ,38.1743 ,0.87570 ,2.34177 ,22.97740 
205 ,38.3665 ,0.87759 ,2.34177 ,22.97740 
206 ,38.5585 ,0.87956 ,2.30412 ,22.60804 
207 ,38.7345 ,0.88140 ,2.28701 ,22.44015 
208 ,38.9106 ,0.88306 ,2.28017 ,22.37299 
209 ,39.1024 ,0.88491 ,2.26648 ,22.23868 
210 ,39.2949 ,0.88681 ,2.27332 ,22.30584 
211 ,39.4870 ,0.88879 ,2.24252 ,22.00363 
212 ,39.6629 ,0.89063 ,2.23568 ,21.93647 
213 ,39.8546 ,0.89251 ,2.21172 ,21.70143 
214 ,40.0312 ,0.89428 ,2.20488 ,21.63427 
215 ,40.2391 ,0.89632 ,2.19803 ,21.56711 
216 ,40.4152 ,0.89816 ,2.17750 ,21.36564 
217 ,40.5913 ,0.89990 ,2.15012 ,21.09702 
218 ,40.7995 ,0.90186 ,2.15012 ,21.09702 
219 ,40.9752 ,0.90377 ,2.13301 ,20.92912 
220 ,41.1517 ,0.90552 ,2.11590 ,20.76123 
221 ,41.3438 ,0.90739 ,2.10906 ,20.69408 
222 ,41.5195 ,0.90921 ,2.09537 ,20.55976 
223 ,41.6958 ,0.91093 ,2.09537 ,20.55976 
224 ,41.8876 ,0.91287 ,2.06115 ,20.22398 
225 ,42.0635 ,0.91459 ,2.04746 ,20.08967 
226 ,42.2402 ,0.91638 ,2.03719 ,19.98893 
227 ,42.4161 ,0.91817 ,2.03035 ,19.92178 
228 ,42.6078 ,0.92005 ,1.99613 ,19.58599 
229 ,42.7842 ,0.92179 ,1.99613 ,19.58599 
230 ,42.9762 ,0.92376 ,1.99955 ,19.61957 
231 ,43.1522 ,0.92552 ,1.95848 ,19.21663 
232 ,43.3283 ,0.92725 ,1.95506 ,19.18305 
233 ,43.5046 ,0.92908 ,1.93111 ,18.94801 
234 ,43.6964 ,0.93085 ,1.92426 ,18.88085 
235 ,43.8726 ,0.93270 ,1.91399 ,18.78011 
236 ,44.0490 ,0.93444 ,1.90031 ,18.64580 
237 ,44.2247 ,0.93619 ,1.87977 ,18.44433 
238 ,44.4005 ,0.93797 ,1.85924 ,18.24286 
239 ,44.5770 ,0.93974 ,1.86608 ,18.31002 
240 ,44.7691 ,0.94160 ,1.84555 ,18.10855 
241 ,44.9453 ,0.94340 ,1.84213 ,18.07497 
242 ,45.1371 ,0.94533 ,1.83186 ,17.97423 
243 ,45.2973 ,0.94706 ,1.82844 ,17.94066 
244 ,45.4893 ,0.94884 ,1.79080 ,17.57129 
245 ,45.6654 ,0.95062 ,1.77711 ,17.43698 
246 ,45.8418 ,0.95237 ,1.77369 ,17.40340 
247 ,46.0172 ,0.95420 ,1.76000 ,17.26909 
248 ,46.1773 ,0.95587 ,1.74973 ,17.16836 
249 ,46.3533 ,0.95747 ,1.74289 ,17.10120 
250 ,46.5297 ,0.95923 ,1.71551 ,16.83257 
251 ,46.7218 ,0.96116 ,1.69840 ,16.66468 
252 ,46.8978 ,0.96296 ,1.68471 ,16.53037 
253 ,47.0739 ,0.96468 ,1.69498 ,16.63110 
254 ,47.2503 ,0.96646 ,1.67102 ,16.39605 
255 ,47.4422 ,0.96830 ,1.64364 ,16.12743 
256 ,47.6663 ,0.97046 ,1.65733 ,16.26174 
257 ,47.8583 ,0.97254 ,1.61627 ,15.85880 
258 ,48.0343 ,0.97432 ,1.61627 ,15.85880 
259 ,48.2265 ,0.97621 ,1.58204 ,15.52302 
260 ,48.4021 ,0.97801 ,1.57862 ,15.48944 
261 ,48.5944 ,0.97978 ,1.57862 ,15.48944 
262 ,48.7866 ,0.98177 ,1.56151 ,15.32155 
263 ,48.9628 ,0.98357 ,1.53756 ,15.08650 
264 ,49.1548 ,0.98554 ,1.53756 ,15.08650 
265 ,49.3307 ,0.98726 ,1.53071 ,15.01934 
266 ,49.5067 ,0.98904 ,1.50676 ,14.78430 
267 ,49.6830 ,0.99079 ,1.48965 ,14.61640 
268 ,49.8589 ,0.99255 ,1.47938 ,14.51567 
269 ,50.0350 ,0.99430 ,1.47938 ,14.51567 
270 ,50.2272 ,0.99620 ,1.46227 ,14.34778 
271 ,50.4194 ,0.99803 ,1.44516 ,14.17989 
272 ,50.6274 ,1.00007 ,1.44516 ,14.17989 
273 ,50.8196 ,1.00210 ,1.41778 ,13.91126 
274 ,51.0115 ,1.00405 ,1.41778 ,13.91126 
275 ,51.1877 ,1.00580 ,1.40751 ,13.81053 
276 ,51.3637 ,1.00755 ,1.38014 ,13.54190 
277 ,51.5400 ,1.00934 ,1.34934 ,13.23969 
278 ,51.7318 ,1.01121 ,1.36303 ,13.37401 
279 ,51.9080 ,1.01303 ,1.35618 ,13.30685 
280 ,52.1000 ,1.01493 ,1.31854 ,12.93749 
281 ,52.2601 ,1.01665 ,1.31169 ,12.87033 
282 ,52.4363 ,1.01832 ,1.28774 ,12.63528 
283 ,52.6279 ,1.02023 ,1.30827 ,12.83675 
284 ,52.8044 ,1.02201 ,1.29116 ,12.66886 
285 ,53.0122 ,1.02399 ,1.27747 ,12.53455 
286 ,53.1885 ,1.02584 ,1.26378 ,12.40024 
287 ,53.3807 ,1.02777 ,1.23641 ,12.13161 
288 ,53.5407 ,1.02944 ,1.21929 ,11.96372 
289 ,53.7004 ,1.03106 ,1.20903 ,11.86298 
290 ,53.8768 ,1.03275 ,1.19534 ,11.72867 
291 ,54.0848 ,1.03472 ,1.20218 ,11.79583 
292 ,54.2610 ,1.03653 ,1.17481 ,11.52720 
293 ,54.4689 ,1.03855 ,1.17823 ,11.56078 
294 ,54.6451 ,1.04039 ,1.15085 ,11.29215 
295 ,54.8211 ,1.04209 ,1.14743 ,11.25857 
296 ,54.9971 ,1.04386 ,1.11663 ,10.95637 
297 ,55.2052 ,1.04587 ,1.12347 ,11.02353 
298 ,55.3814 ,1.04772 ,1.10636 ,10.85563 
299 ,55.5731 ,1.04963 ,1.07899 ,10.58701 
300 ,55.7496 ,1.05136 ,1.09267 ,10.72132 
301 ,55.9416 ,1.05340 ,1.06187 ,10.41912 
302 ,56.1336 ,1.05526 ,1.03792 ,10.18407 
303 ,56.3256 ,1.05714 ,1.06187 ,10.41912 
304 ,56.5013 ,1.05893 ,1.04819 ,10.28480 
305 ,56.7096 ,1.06087 ,1.01396 ,9.94902 
306 ,56.8856 ,1.06291 ,1.02081 ,10.01618 
307 ,57.0621 ,1.06453 ,1.00712 ,9.88186 
308 ,57.2537 ,1.06646 ,0.97290 ,9.54608 
309 ,57.4301 ,1.06820 ,0.96948 ,9.51250 
310 ,57.6222 ,1.07009 ,0.96605 ,9.47892 
311 ,57.7984 ,1.07192 ,0.95237 ,9.34461 
312 ,57.9901 ,1.07380 ,0.93183 ,9.14314 
313 ,58.1660 ,1.07559 ,0.92499 ,9.07598 
314 ,58.3423 ,1.07728 ,0.93525 ,9.17672 
315 ,58.5185 ,1.07909 ,0.91130 ,8.94167 
316 ,58.6947 ,1.08088 ,0.89077 ,8.74020 
317 ,58.8867 ,1.08272 ,0.88050 ,8.63947 
318 ,59.0626 ,1.08449 ,0.87708 ,8.60589 
319 ,59.2391 ,1.08632 ,0.85997 ,8.43800 
320 ,59.4150 ,1.08807 ,0.83943 ,8.23653 
321 ,59.6072 ,1.08996 ,0.83601 ,8.20295 
322 ,59.7831 ,1.09174 ,0.83601 ,8.20295 
323 ,60.0073 ,1.09382 ,0.80863 ,7.93432 
324 ,60.1993 ,1.09586 ,0.80521 ,7.90074 
325 ,60.3914 ,1.09783 ,0.76757 ,7.53138 
326 ,60.5834 ,1.09973 ,0.77099 ,7.56496 
327 ,60.7596 ,1.10149 ,0.76415 ,7.49780 
328 ,60.9516 ,1.10346 ,0.75046 ,7.36349 
329 ,61.1273 ,1.10513 ,0.72308 ,7.09486 
330 ,61.3037 ,1.10698 ,0.71281 ,6.99413 
331 ,61.4957 ,1.10882 ,0.71966 ,7.06129 
332 ,61.6720 ,1.11064 ,0.70255 ,6.89340 
333 ,61.8482 ,1.11239 ,0.68201 ,6.69193 
334 ,62.0401 ,1.11432 ,0.68201 ,6.69193 
335 ,62.2158 ,1.11604 ,0.67175 ,6.59119 
336 ,62.3921 ,1.11787 ,0.66490 ,6.52403 
337 ,62.5841 ,1.11971 ,0.64779 ,6.35614 
338 ,62.7764 ,1.12157 ,0.64437 ,6.32256 
339 ,62.9684 ,1.12353 ,0.62726 ,6.15467 
340 ,63.1605 ,1.12554 ,0.62042 ,6.08752 
341 ,63.3362 ,1.12727 ,0.61357 ,6.02036 
342 ,63.5125 ,1.12902 ,0.59646 ,5.85247 
343 ,63.6889 ,1.13076 ,0.57251 ,5.61742 
344 ,63.8805 ,1.13270 ,0.56908 ,5.58384 
345 ,64.0570 ,1.13452 ,0.56224 ,5.51668 
346 ,64.2491 ,1.13640 ,0.53486 ,5.24806 
347 ,64.4251 ,1.13813 ,0.51775 ,5.08017 
348 ,64.6010 ,1.13990 ,0.52802 ,5.18090 
349 ,64.8093 ,1.14194 ,0.50406 ,4.94585 
350 ,64.9854 ,1.14379 ,0.49380 ,4.84512 
351 ,65.1774 ,1.14568 ,0.49380 ,4.84512 
352 ,65.3695 ,1.14755 ,0.46642 ,4.57649 
353 ,65.5615 ,1.14940 ,0.45957 ,4.50934 
354 ,65.7377 ,1.15128 ,0.46642 ,4.57649 
355 ,65.9296 ,1.15316 ,0.44588 ,4.37502 
356 ,66.1378 ,1.15516 ,0.42193 ,4.13997 
357 ,66.3137 ,1.15701 ,0.43562 ,4.27429 
358 ,66.5056 ,1.15893 ,0.39797 ,3.90493 
359 ,66.6979 ,1.16074 ,0.38771 ,3.80419 
360 ,66.8901 ,1.16275 ,0.40482 ,3.97208 
361 ,67.0662 ,1.16454 ,0.36375 ,3.56914 
362 ,67.2580 ,1.16644 ,0.35691 ,3.50199 
363 ,67.4343 ,1.16820 ,0.36033 ,3.53557 
364 ,67.6103 ,1.17002 ,0.33638 ,3.30052 
365 ,67.7864 ,1.17176 ,0.32611 ,3.19978 
366 ,67.9625 ,1.17349 ,0.30558 ,2.99831 
367 ,68.1387 ,1.17527 ,0.30900 ,3.03189 
368 ,68.3306 ,1.17717 ,0.31242 ,3.06547 
369 ,68.5222 ,1.17910 ,0.27478 ,2.69611 
370 ,68.6988 ,1.18091 ,0.29531 ,2.89758 
371 ,68.8749 ,1.18260 ,0.26793 ,2.62895 
372 ,69.0670 ,1.18453 ,0.26109 ,2.56179 
373 ,69.2592 ,1.18642 ,0.24740 ,2.42748 
374 ,69.4509 ,1.18835 ,0.24398 ,2.39390 
375 ,69.6267 ,1.19012 ,0.23713 ,2.32675 
376 ,69.8027 ,1.19193 ,0.22687 ,2.22601 
377 ,69.9953 ,1.19371 ,0.19607 ,1.92381 
378 ,70.2033 ,1.19585 ,0.18580 ,1.82307 
379 ,70.3796 ,1.19766 ,0.17896 ,1.75592 
380 ,70.5556 ,1.19945 ,0.15842 ,1.55445 
381 ,70.7314 ,1.20114 ,0.15842 ,1.55445 
382 ,70.9078 ,1.20296 ,0.16185 ,1.58802 
383 ,71.0997 ,1.20486 ,0.14131 ,1.38655 
384 ,71.2759 ,1.20659 ,0.12078 ,1.18508 
385 ,71.4519 ,1.20840 ,0.12420 ,1.21866 
386 ,71.6441 ,1.21024 ,0.10709 ,1.05077 
387 ,71.8521 ,1.21234 ,0.10367 ,1.01719 
388 ,72.0283 ,1.21417 ,0.09682 ,0.95004 
389 ,72.2203 ,1.21601 ,0.07971 ,0.78214 
390 ,72.3965 ,1.21789 ,0.06945 ,0.68141 
391 ,72.6045 ,1.21981 ,0.06260 ,0.61425 
392 ,72.7966 ,1.22184 ,0.04207 ,0.41278 
393 ,72.9886 ,1.22372 ,0.04891 ,0.47994 
394 ,73.1808 ,1.22564 ,0.01811 ,0.17773 
395 ,73.3568 ,1.22747 ,0.02154 ,0.21131 
396 ,73.5489 ,1.22932 ,0.01811 ,0.17773 
397 ,73.7410 ,1.23126 ,-0.00242 ,-0.02373 
398 ,73.9327 ,1.23314 ,-0.01953 ,-0.19163 
399 ,74.1090 ,1.23494 ,-0.01953 ,-0.19163 
400 ,74.2852 ,1.23669 ,-0.01269 ,-0.12447 
401 ,74.4931 ,1.23862 ,-0.05375 ,-0.52741 
402 ,74.6694 ,1.24053 ,-0.05375 ,-0.52741 
403 ,74.8614 ,1.24248 ,-0.05033 ,-0.49383 
404 ,75.0214 ,1.24416 ,-0.07086 ,-0.69530 
405 ,75.1975 ,1.24583 ,-0.09140 ,-0.89677 
406 ,75.3735 ,1.24755 ,-0.10508 ,-1.03108 
407 ,75.5494 ,1.24937 ,-0.09824 ,-0.96393 
408 ,75.7256 ,1.25109 ,-0.09482 ,-0.93035 
409 ,75.9177 ,1.25302 ,-0.12562 ,-1.23255 
410 ,76.0778 ,1.25477 ,-0.12904 ,-1.26613 
411 ,76.2539 ,1.25635 ,-0.14273 ,-1.40045 
412 ,76.4301 ,1.25815 ,-0.15642 ,-1.53476 
413 ,76.6061 ,1.25993 ,-0.16668 ,-1.63549 
414 ,76.7821 ,1.26163 ,-0.15299 ,-1.50118 
415 ,76.9582 ,1.26344 ,-0.17011 ,-1.66907 
416 ,77.1338 ,1.26517 ,-0.17695 ,-1.73623 
417 ,77.3100 ,1.26701 ,-0.18379 ,-1.80338 
418 ,77.4701 ,1.26866 ,-0.19064 ,-1.87054 
419 ,77.6462 ,1.27030 ,-0.22144 ,-2.17275 
420 ,77.8223 ,1.27201 ,-0.20090 ,-1.97128 
421 ,77.9983 ,1.27380 ,-0.21117 ,-2.07201 
422 ,78.1743 ,1.27559 ,-0.22828 ,-2.23990 
423 ,78.3665 ,1.27742 ,-0.24197 ,-2.37422 
424 ,78.5746 ,1.27957 ,-0.25224 ,-2.47495 
425 ,78.7671 ,1.28148 ,-0.26593 ,-2.60926 
426 ,78.9592 ,1.28344 ,-0.27961 ,-2.74358 
427 ,79.1351 ,1.28521 ,-0.26935 ,-2.64284 
428 ,79.3272 ,1.28714 ,-0.30357 ,-2.97863 
429 ,79.5194 ,1.28900 ,-0.29330 ,-2.87789 
430 ,79.7115 ,1.29090 ,-0.31726 ,-3.11294 
431 ,79.9193 ,1.29295 ,-0.31726 ,-3.11294 
432 ,80.0957 ,1.29475 ,-0.32752 ,-3.21367 
433 ,80.2873 ,1.29670 ,-0.35148 ,-3.44872 
434 ,80.4638 ,1.29845 ,-0.34464 ,-3.38156 
435 ,80.6719 ,1.30048 ,-0.35490 ,-3.48230 
436 ,80.8640 ,1.30246 ,-0.35148 ,-3.44872 
437 ,81.0560 ,1.30438 ,-0.35832 ,-3.51588 
438 ,81.2481 ,1.30623 ,-0.38570 ,-3.78450 
439 ,81.4080 ,1.30803 ,-0.38912 ,-3.81808 
440 ,81.5842 ,1.30966 ,-0.41308 ,-4.05313 
441 ,81.7603 ,1.31145 ,-0.40966 ,-4.01955 
442 ,81.9366 ,1.31319 ,-0.40966 ,-4.01955 
443 ,82.1446 ,1.31520 ,-0.41992 ,-4.12029 
444 ,82.3526 ,1.31718 ,-0.43703 ,-4.28818 
445 ,82.5444 ,1.31920 ,-0.45414 ,-4.45607 
446 ,82.7525 ,1.32116 ,-0.45757 ,-4.48965 
447 ,82.9447 ,1.32324 ,-0.46441 ,-4.55681 
448 ,83.1368 ,1.32508 ,-0.46441 ,-4.55681 
449 ,83.3287 ,1.32712 ,-0.48837 ,-4.79185 
450 ,83.5051 ,1.32885 ,-0.50206 ,-4.92617 
451 ,83.6811 ,1.33073 ,-0.49179 ,-4.82543 
452 ,83.8730 ,1.33254 ,-0.50890 ,-4.99332 
453 ,84.0652 ,1.33436 ,-0.52943 ,-5.19479 
454 ,84.2573 ,1.33637 ,-0.51574 ,-5.06048 
455 ,84.4333 ,1.33814 ,-0.52943 ,-5.19479 
456 ,84.6092 ,1.33990 ,-0.54312 ,-5.32911 
457 ,84.8015 ,1.34177 ,-0.54312 ,-5.32911 
458 ,84.9774 ,1.34359 ,-0.55681 ,-5.46342 
459 ,85.1697 ,1.34547 ,-0.58761 ,-5.76562 
460 ,85.3458 ,1.34728 ,-0.58761 ,-5.76562 
461 ,85.5374 ,1.34916 ,-0.57734 ,-5.66489 
462 ,85.7299 ,1.35104 ,-0.58077 ,-5.69847 
463 ,85.9219 ,1.35302 ,-0.60814 ,-5.96709 
