Data stamp = , 07-04-2022 02:40:04 432

Calibration Values: 
Slope = , 26.54 , g/V 
Offset Voltage at no contact = , -0.501760 , V 

No , Time , Stage Position ,   Mass , Force 
   ,  (s) ,      (mm)      ,   (g)  , (mN)  

1 ,0.0000 ,0.49939 ,5.21296 ,51.14960 
2 ,0.2859 ,0.49959 ,5.24376 ,51.45180 
3 ,0.5904 ,0.50058 ,5.24034 ,51.41822 
4 ,0.7985 ,0.50224 ,5.21981 ,51.21675 
5 ,0.9906 ,0.50396 ,5.21981 ,51.21675 
6 ,1.1665 ,0.50582 ,5.23692 ,51.38464 
7 ,1.3427 ,0.50754 ,5.23692 ,51.38464 
8 ,1.5188 ,0.50933 ,5.21296 ,51.14960 
9 ,1.6949 ,0.51111 ,5.19585 ,50.98170 
10 ,1.8710 ,0.51293 ,5.18559 ,50.88097 
11 ,2.0471 ,0.51465 ,5.17190 ,50.74666 
12 ,2.2231 ,0.51640 ,5.17874 ,50.81381 
13 ,2.3992 ,0.51813 ,5.13768 ,50.41087 
14 ,2.5751 ,0.51990 ,5.12056 ,50.24298 
15 ,2.7513 ,0.52176 ,5.13083 ,50.34372 
16 ,2.9275 ,0.52348 ,5.10688 ,50.10867 
17 ,3.1354 ,0.52543 ,5.06923 ,49.73931 
18 ,3.3114 ,0.52727 ,5.06239 ,49.67215 
19 ,3.4875 ,0.52903 ,5.05554 ,49.60499 
20 ,3.6639 ,0.53080 ,5.05554 ,49.60499 
21 ,3.8557 ,0.53275 ,5.02132 ,49.26921 
22 ,4.0319 ,0.53449 ,5.00421 ,49.10132 
23 ,4.2398 ,0.53640 ,4.99394 ,49.00058 
24 ,4.4321 ,0.53841 ,4.96657 ,48.73196 
25 ,4.6240 ,0.54043 ,4.96999 ,48.76554 
26 ,4.8483 ,0.54244 ,4.93919 ,48.46333 
27 ,5.0403 ,0.54450 ,4.91181 ,48.19471 
28 ,5.2163 ,0.54639 ,4.91523 ,48.22828 
29 ,5.4081 ,0.54820 ,4.90155 ,48.09397 
30 ,5.5844 ,0.54997 ,4.89128 ,47.99324 
31 ,5.7764 ,0.55189 ,4.85021 ,47.59030 
32 ,5.9526 ,0.55364 ,4.83310 ,47.42240 
33 ,6.1447 ,0.55558 ,4.82626 ,47.35525 
34 ,6.3206 ,0.55737 ,4.81941 ,47.28809 
35 ,6.4808 ,0.55907 ,4.79204 ,47.01946 
36 ,6.6568 ,0.56074 ,4.79888 ,47.08662 
37 ,6.8330 ,0.56247 ,4.76466 ,46.75084 
38 ,7.0091 ,0.56422 ,4.74413 ,46.54937 
39 ,7.1850 ,0.56600 ,4.73044 ,46.41506 
40 ,7.3615 ,0.56773 ,4.73386 ,46.44863 
41 ,7.5211 ,0.56950 ,4.72017 ,46.31432 
42 ,7.6972 ,0.57111 ,4.70648 ,46.18001 
43 ,7.8890 ,0.57299 ,4.66884 ,45.81065 
44 ,8.0654 ,0.57483 ,4.65857 ,45.70991 
45 ,8.2416 ,0.57654 ,4.65515 ,45.67633 
46 ,8.4174 ,0.57831 ,4.64831 ,45.60918 
47 ,8.5937 ,0.58003 ,4.63119 ,45.44128 
48 ,8.7700 ,0.58186 ,4.60040 ,45.13908 
49 ,8.9458 ,0.58362 ,4.58671 ,45.00477 
50 ,9.1381 ,0.58540 ,4.57986 ,44.93761 
51 ,9.3301 ,0.58738 ,4.57644 ,44.90403 
52 ,9.5220 ,0.58930 ,4.55591 ,44.70256 
53 ,9.6983 ,0.59108 ,4.54906 ,44.63541 
54 ,9.9062 ,0.59318 ,4.50800 ,44.23247 
55 ,10.0824 ,0.59493 ,4.49773 ,44.13173 
56 ,10.2904 ,0.59691 ,4.47035 ,43.86310 
57 ,10.4667 ,0.59878 ,4.46693 ,43.82953 
58 ,10.6423 ,0.60054 ,4.44982 ,43.66163 
59 ,10.8186 ,0.60236 ,4.43613 ,43.52732 
60 ,11.0109 ,0.60424 ,4.40533 ,43.22512 
61 ,11.2025 ,0.60614 ,4.40533 ,43.22512 
62 ,11.3789 ,0.60792 ,4.39849 ,43.15796 
63 ,11.5709 ,0.60981 ,4.36427 ,42.82218 
64 ,11.7306 ,0.61158 ,4.35400 ,42.72144 
65 ,11.9068 ,0.61322 ,4.33689 ,42.55355 
66 ,12.0832 ,0.61496 ,4.33004 ,42.48639 
67 ,12.2594 ,0.61674 ,4.32320 ,42.41924 
68 ,12.4354 ,0.61846 ,4.31293 ,42.31850 
69 ,12.6273 ,0.62039 ,4.27871 ,41.98272 
70 ,12.8035 ,0.62210 ,4.25818 ,41.78125 
71 ,12.9796 ,0.62391 ,4.25818 ,41.78125 
72 ,13.1711 ,0.62580 ,4.22396 ,41.44547 
73 ,13.3474 ,0.62759 ,4.23422 ,41.54620 
74 ,13.5234 ,0.62933 ,4.18974 ,41.10968 
75 ,13.6994 ,0.63117 ,4.20342 ,41.24400 
76 ,13.8914 ,0.63313 ,4.17605 ,40.97537 
77 ,14.0839 ,0.63490 ,4.14525 ,40.67317 
78 ,14.2917 ,0.63701 ,4.14867 ,40.70674 
79 ,14.4683 ,0.63882 ,4.12814 ,40.50527 
80 ,14.6602 ,0.64073 ,4.11103 ,40.33738 
81 ,14.8363 ,0.64252 ,4.10760 ,40.30380 
82 ,15.0124 ,0.64421 ,4.10076 ,40.23665 
83 ,15.1884 ,0.64597 ,4.06312 ,39.86729 
84 ,15.3643 ,0.64774 ,4.04600 ,39.69940 
85 ,15.5244 ,0.64944 ,4.04600 ,39.69940 
86 ,15.7167 ,0.65116 ,4.02889 ,39.53150 
87 ,15.9245 ,0.65323 ,4.01520 ,39.39719 
88 ,16.1008 ,0.65511 ,3.98441 ,39.09499 
89 ,16.3087 ,0.65711 ,3.98783 ,39.12856 
90 ,16.4849 ,0.65895 ,3.94676 ,38.72562 
91 ,16.6611 ,0.66074 ,3.93992 ,38.65847 
92 ,16.8530 ,0.66262 ,3.95018 ,38.75920 
93 ,17.0287 ,0.66440 ,3.92965 ,38.55773 
94 ,17.2051 ,0.66618 ,3.90912 ,38.35626 
95 ,17.3811 ,0.66793 ,3.88174 ,38.08764 
96 ,17.5573 ,0.66967 ,3.87490 ,38.02048 
97 ,17.7334 ,0.67144 ,3.88516 ,38.12122 
98 ,17.9252 ,0.67335 ,3.83041 ,37.58396 
99 ,18.1012 ,0.67507 ,3.83383 ,37.61754 
100 ,18.2777 ,0.67692 ,3.82014 ,37.48323 
101 ,18.4858 ,0.67894 ,3.79619 ,37.24818 
102 ,18.6615 ,0.68074 ,3.77565 ,37.04671 
103 ,18.8378 ,0.68247 ,3.77223 ,37.01313 
104 ,19.0136 ,0.68416 ,3.77223 ,37.01313 
105 ,19.1899 ,0.68604 ,3.74143 ,36.71093 
106 ,19.3660 ,0.68773 ,3.73117 ,36.61019 
107 ,19.5422 ,0.68950 ,3.71063 ,36.40872 
108 ,19.7501 ,0.69157 ,3.69352 ,36.24083 
109 ,19.9424 ,0.69348 ,3.67983 ,36.10652 
110 ,20.1344 ,0.69533 ,3.67983 ,36.10652 
111 ,20.3266 ,0.69729 ,3.66272 ,35.93863 
112 ,20.5186 ,0.69932 ,3.64219 ,35.73716 
113 ,20.6947 ,0.70106 ,3.62850 ,35.60284 
114 ,20.8869 ,0.70288 ,3.61481 ,35.46853 
115 ,21.0789 ,0.70482 ,3.60112 ,35.33422 
116 ,21.2705 ,0.70678 ,3.56006 ,34.93128 
117 ,21.4470 ,0.70861 ,3.57375 ,35.06559 
118 ,21.6389 ,0.71049 ,3.53952 ,34.72981 
119 ,21.8151 ,0.71222 ,3.53268 ,34.66265 
120 ,21.9910 ,0.71414 ,3.52584 ,34.59549 
121 ,22.1674 ,0.71573 ,3.51899 ,34.52834 
122 ,22.3429 ,0.71757 ,3.48819 ,34.22613 
123 ,22.5192 ,0.71927 ,3.47108 ,34.05824 
124 ,22.6954 ,0.72101 ,3.46081 ,33.95751 
125 ,22.9034 ,0.72309 ,3.44713 ,33.82319 
126 ,23.0796 ,0.72489 ,3.42659 ,33.62172 
127 ,23.2718 ,0.72668 ,3.40948 ,33.45383 
128 ,23.4638 ,0.72866 ,3.39237 ,33.28594 
129 ,23.6556 ,0.73057 ,3.38553 ,33.21878 
130 ,23.8478 ,0.73249 ,3.39237 ,33.28594 
131 ,24.0399 ,0.73448 ,3.34446 ,32.81584 
132 ,24.2161 ,0.73621 ,3.34446 ,32.81584 
133 ,24.4079 ,0.73805 ,3.33077 ,32.68153 
134 ,24.6003 ,0.73999 ,3.32735 ,32.64795 
135 ,24.7922 ,0.74198 ,3.30682 ,32.44648 
136 ,24.9683 ,0.74372 ,3.30682 ,32.44648 
137 ,25.1444 ,0.74551 ,3.28628 ,32.24501 
138 ,25.3366 ,0.74743 ,3.24864 ,31.87565 
139 ,25.5122 ,0.74923 ,3.24180 ,31.80849 
140 ,25.7049 ,0.75102 ,3.24522 ,31.84207 
141 ,25.8968 ,0.75310 ,3.20415 ,31.43913 
142 ,26.0725 ,0.75477 ,3.20415 ,31.43913 
143 ,26.2488 ,0.75660 ,3.19388 ,31.33840 
144 ,26.4411 ,0.75851 ,3.18362 ,31.23766 
145 ,26.6329 ,0.76036 ,3.17677 ,31.17051 
146 ,26.8093 ,0.76217 ,3.14940 ,30.90188 
147 ,26.9852 ,0.76393 ,3.14940 ,30.90188 
148 ,27.1615 ,0.76570 ,3.12886 ,30.70041 
149 ,27.3374 ,0.76745 ,3.11175 ,30.53252 
150 ,27.5295 ,0.76933 ,3.10491 ,30.46536 
151 ,27.6894 ,0.77108 ,3.09464 ,30.36463 
152 ,27.8657 ,0.77271 ,3.08438 ,30.26389 
153 ,28.0413 ,0.77450 ,3.07069 ,30.12958 
154 ,28.2333 ,0.77634 ,3.05015 ,29.92811 
155 ,28.4093 ,0.77815 ,3.01935 ,29.62590 
156 ,28.5857 ,0.77991 ,3.03647 ,29.79380 
157 ,28.7938 ,0.78199 ,2.99540 ,29.39086 
158 ,28.9860 ,0.78390 ,2.99882 ,29.42444 
159 ,29.1624 ,0.78571 ,2.97829 ,29.22297 
160 ,29.3378 ,0.78743 ,2.97144 ,29.15581 
161 ,29.5139 ,0.78916 ,2.94064 ,28.85360 
162 ,29.6902 ,0.79097 ,2.92353 ,28.68571 
163 ,29.8825 ,0.79288 ,2.92353 ,28.68571 
164 ,30.0904 ,0.79491 ,2.92011 ,28.65213 
165 ,30.2666 ,0.79671 ,2.89958 ,28.45066 
166 ,30.4585 ,0.79862 ,2.86536 ,28.11488 
167 ,30.6346 ,0.80037 ,2.85167 ,27.98057 
168 ,30.8104 ,0.80218 ,2.84140 ,27.87983 
169 ,30.9709 ,0.80390 ,2.83456 ,27.81268 
170 ,31.1470 ,0.80553 ,2.82087 ,27.67836 
171 ,31.3546 ,0.80741 ,2.80718 ,27.54405 
172 ,31.5311 ,0.80935 ,2.79349 ,27.40974 
173 ,31.7232 ,0.81122 ,2.78665 ,27.34258 
174 ,31.9312 ,0.81329 ,2.76269 ,27.10753 
175 ,32.1074 ,0.81509 ,2.74900 ,26.97322 
176 ,32.2834 ,0.81692 ,2.73531 ,26.83891 
177 ,32.4597 ,0.81868 ,2.72847 ,26.77175 
178 ,32.6514 ,0.82056 ,2.69083 ,26.40239 
179 ,32.8436 ,0.82244 ,2.70794 ,26.57028 
180 ,33.0197 ,0.82423 ,2.69083 ,26.40239 
181 ,33.2117 ,0.82611 ,2.64976 ,25.99945 
182 ,33.3879 ,0.82795 ,2.65318 ,26.03303 
183 ,33.5797 ,0.82986 ,2.63949 ,25.89871 
184 ,33.7560 ,0.83161 ,2.62238 ,25.73082 
185 ,33.9320 ,0.83342 ,2.60869 ,25.59651 
186 ,34.1081 ,0.83514 ,2.58474 ,25.36146 
187 ,34.3160 ,0.83705 ,2.57105 ,25.22715 
188 ,34.4923 ,0.83895 ,2.56421 ,25.15999 
189 ,34.6842 ,0.84081 ,2.54367 ,24.95852 
190 ,34.8604 ,0.84266 ,2.55736 ,25.09283 
191 ,35.0521 ,0.84445 ,2.53341 ,24.85779 
192 ,35.2286 ,0.84636 ,2.51287 ,24.65632 
193 ,35.4207 ,0.84825 ,2.50945 ,24.62274 
194 ,35.5967 ,0.85005 ,2.49234 ,24.45485 
195 ,35.8046 ,0.85201 ,2.47181 ,24.25338 
196 ,35.9810 ,0.85384 ,2.46839 ,24.21980 
197 ,36.1569 ,0.85563 ,2.46496 ,24.18622 
198 ,36.3331 ,0.85739 ,2.43416 ,23.88402 
199 ,36.5092 ,0.85914 ,2.41021 ,23.64897 
200 ,36.7014 ,0.86105 ,2.41363 ,23.68255 
201 ,36.8934 ,0.86295 ,2.37599 ,23.31318 
202 ,37.0855 ,0.86483 ,2.36914 ,23.24603 
203 ,37.3096 ,0.86695 ,2.35203 ,23.07814 
204 ,37.5015 ,0.86907 ,2.35888 ,23.14529 
205 ,37.6776 ,0.87077 ,2.34177 ,22.97740 
206 ,37.8539 ,0.87257 ,2.32465 ,22.80951 
207 ,38.0619 ,0.87461 ,2.30412 ,22.60804 
208 ,38.2698 ,0.87663 ,2.28359 ,22.40657 
209 ,38.4460 ,0.87844 ,2.25963 ,22.17152 
210 ,38.6381 ,0.88044 ,2.26648 ,22.23868 
211 ,38.8140 ,0.88216 ,2.24252 ,22.00363 
212 ,39.0063 ,0.88402 ,2.22199 ,21.80216 
213 ,39.1822 ,0.88584 ,2.20146 ,21.60069 
214 ,39.3582 ,0.88764 ,2.21857 ,21.76858 
215 ,39.5343 ,0.88939 ,2.21172 ,21.70143 
216 ,39.7265 ,0.89119 ,2.19119 ,21.49996 
217 ,39.9025 ,0.89306 ,2.15697 ,21.16417 
218 ,40.0786 ,0.89482 ,2.15355 ,21.13059 
219 ,40.2548 ,0.89654 ,2.16039 ,21.19775 
220 ,40.4308 ,0.89832 ,2.12617 ,20.86197 
221 ,40.6386 ,0.90036 ,2.12959 ,20.89555 
222 ,40.8149 ,0.90214 ,2.11590 ,20.76123 
223 ,40.9911 ,0.90393 ,2.08510 ,20.45903 
224 ,41.1832 ,0.90577 ,2.07484 ,20.35829 
225 ,41.3908 ,0.90778 ,2.05773 ,20.19040 
226 ,41.5674 ,0.90973 ,2.05773 ,20.19040 
227 ,41.7754 ,0.91170 ,2.03719 ,19.98893 
228 ,41.9515 ,0.91352 ,2.04061 ,20.02251 
229 ,42.1596 ,0.91542 ,2.01666 ,19.78746 
230 ,42.3355 ,0.91736 ,2.00297 ,19.65315 
231 ,42.4951 ,0.91908 ,1.98244 ,19.45168 
232 ,42.6877 ,0.92078 ,1.97559 ,19.38452 
233 ,42.8637 ,0.92260 ,1.94479 ,19.08232 
234 ,43.0398 ,0.92440 ,1.93111 ,18.94801 
235 ,43.2158 ,0.92610 ,1.92768 ,18.91443 
236 ,43.3921 ,0.92794 ,1.91742 ,18.81369 
237 ,43.5840 ,0.92973 ,1.87635 ,18.41075 
238 ,43.7601 ,0.93158 ,1.87293 ,18.37717 
239 ,43.9522 ,0.93352 ,1.87977 ,18.44433 
240 ,44.1284 ,0.93533 ,1.86608 ,18.31002 
241 ,44.3364 ,0.93730 ,1.85924 ,18.24286 
242 ,44.5284 ,0.93922 ,1.82502 ,17.90708 
243 ,44.7044 ,0.94101 ,1.82160 ,17.87350 
244 ,44.8806 ,0.94281 ,1.79764 ,17.63845 
245 ,45.0728 ,0.94474 ,1.79422 ,17.60487 
246 ,45.2648 ,0.94664 ,1.77369 ,17.40340 
247 ,45.4409 ,0.94843 ,1.76000 ,17.26909 
248 ,45.6326 ,0.95027 ,1.76000 ,17.26909 
249 ,45.8090 ,0.95210 ,1.75315 ,17.20193 
250 ,45.9849 ,0.95380 ,1.72235 ,16.89973 
251 ,46.1612 ,0.95563 ,1.70866 ,16.76542 
252 ,46.3534 ,0.95745 ,1.70182 ,16.69826 
253 ,46.5773 ,0.95965 ,1.67444 ,16.42963 
254 ,46.7532 ,0.96151 ,1.67786 ,16.46321 
255 ,46.9296 ,0.96327 ,1.66760 ,16.36248 
256 ,47.1055 ,0.96505 ,1.64707 ,16.16101 
257 ,47.2977 ,0.96688 ,1.63338 ,16.02669 
258 ,47.4896 ,0.96881 ,1.63680 ,16.06027 
259 ,47.6818 ,0.97076 ,1.59916 ,15.69091 
260 ,47.8577 ,0.97257 ,1.58889 ,15.59018 
261 ,48.0336 ,0.97429 ,1.57862 ,15.48944 
262 ,48.2100 ,0.97610 ,1.57862 ,15.48944 
263 ,48.4341 ,0.97819 ,1.56151 ,15.32155 
264 ,48.6260 ,0.98024 ,1.53756 ,15.08650 
265 ,48.8183 ,0.98206 ,1.52045 ,14.91861 
266 ,49.0262 ,0.98419 ,1.52729 ,14.98577 
267 ,49.2183 ,0.98614 ,1.48280 ,14.54925 
268 ,49.3943 ,0.98792 ,1.48622 ,14.58283 
269 ,49.5862 ,0.98991 ,1.48280 ,14.54925 
270 ,49.7625 ,0.99159 ,1.46227 ,14.34778 
271 ,49.9224 ,0.99334 ,1.42805 ,14.01199 
272 ,50.1146 ,0.99513 ,1.43147 ,14.04557 
273 ,50.3068 ,0.99704 ,1.42805 ,14.01199 
274 ,50.4829 ,0.99879 ,1.41436 ,13.87768 
275 ,50.6749 ,1.00066 ,1.39383 ,13.67621 
276 ,50.8511 ,1.00243 ,1.38014 ,13.54190 
277 ,51.0432 ,1.00434 ,1.36303 ,13.37401 
278 ,51.2352 ,1.00628 ,1.35276 ,13.27327 
279 ,51.3950 ,1.00805 ,1.33565 ,13.10538 
280 ,51.5715 ,1.00968 ,1.34591 ,13.20612 
281 ,51.7636 ,1.01156 ,1.32196 ,12.97107 
282 ,51.9394 ,1.01337 ,1.31169 ,12.87033 
283 ,52.0995 ,1.01506 ,1.28774 ,12.63528 
284 ,52.2754 ,1.01669 ,1.28089 ,12.56813 
285 ,52.4518 ,1.01848 ,1.26036 ,12.36666 
286 ,52.6279 ,1.02030 ,1.28432 ,12.60171 
287 ,52.8038 ,1.02202 ,1.25694 ,12.33308 
288 ,52.9960 ,1.02393 ,1.23641 ,12.13161 
289 ,53.1880 ,1.02584 ,1.23641 ,12.13161 
290 ,53.3803 ,1.02777 ,1.20903 ,11.86298 
291 ,53.5722 ,1.02962 ,1.18507 ,11.62794 
292 ,53.7483 ,1.03147 ,1.19192 ,11.69509 
293 ,53.9244 ,1.03323 ,1.19192 ,11.69509 
294 ,54.1163 ,1.03511 ,1.16454 ,11.42647 
295 ,54.3086 ,1.03709 ,1.14743 ,11.25857 
296 ,54.5007 ,1.03900 ,1.14058 ,11.19142 
297 ,54.6927 ,1.04083 ,1.11321 ,10.92279 
298 ,54.8691 ,1.04268 ,1.10636 ,10.85563 
299 ,55.0449 ,1.04443 ,1.10636 ,10.85563 
300 ,55.2206 ,1.04620 ,1.10294 ,10.82206 
301 ,55.3966 ,1.04794 ,1.07556 ,10.55343 
302 ,55.5728 ,1.04964 ,1.06872 ,10.48627 
303 ,55.7488 ,1.05144 ,1.05845 ,10.38554 
304 ,55.9251 ,1.05320 ,1.04476 ,10.25123 
305 ,56.1013 ,1.05496 ,1.03792 ,10.18407 
306 ,56.2932 ,1.05693 ,1.01739 ,9.98260 
307 ,56.4854 ,1.05883 ,1.00370 ,9.84829 
308 ,56.6618 ,1.06056 ,0.99001 ,9.71397 
309 ,56.8376 ,1.06235 ,0.98659 ,9.68039 
310 ,57.0296 ,1.06425 ,0.95921 ,9.41177 
311 ,57.2056 ,1.06600 ,0.96948 ,9.51250 
312 ,57.3974 ,1.06792 ,0.94894 ,9.31103 
313 ,57.5738 ,1.06971 ,0.92841 ,9.10956 
314 ,57.7659 ,1.07164 ,0.92499 ,9.07598 
315 ,57.9416 ,1.07333 ,0.92499 ,9.07598 
316 ,58.1180 ,1.07508 ,0.90788 ,8.90809 
317 ,58.2942 ,1.07689 ,0.89077 ,8.74020 
318 ,58.4700 ,1.07877 ,0.87023 ,8.53873 
319 ,58.6622 ,1.08044 ,0.85997 ,8.43800 
320 ,58.8706 ,1.08254 ,0.85312 ,8.37084 
321 ,59.0463 ,1.08439 ,0.83259 ,8.16937 
322 ,59.2226 ,1.08616 ,0.84628 ,8.30368 
323 ,59.3986 ,1.08795 ,0.82232 ,8.06864 
324 ,59.5907 ,1.08983 ,0.80521 ,7.90074 
325 ,59.7667 ,1.09159 ,0.80179 ,7.86717 
326 ,59.9429 ,1.09334 ,0.79495 ,7.80001 
327 ,60.1349 ,1.09525 ,0.79152 ,7.76643 
328 ,60.3269 ,1.09716 ,0.76757 ,7.53138 
329 ,60.5031 ,1.09897 ,0.76415 ,7.49780 
330 ,60.6951 ,1.10082 ,0.73677 ,7.22918 
331 ,60.8713 ,1.10274 ,0.73677 ,7.22918 
332 ,61.0472 ,1.10438 ,0.71624 ,7.02771 
333 ,61.2236 ,1.10617 ,0.71624 ,7.02771 
334 ,61.4152 ,1.10806 ,0.70255 ,6.89340 
335 ,61.6234 ,1.11003 ,0.69913 ,6.85982 
336 ,61.8317 ,1.11209 ,0.68886 ,6.75908 
337 ,62.0237 ,1.11417 ,0.65806 ,6.45688 
338 ,62.1999 ,1.11593 ,0.65464 ,6.42330 
339 ,62.4079 ,1.11799 ,0.63753 ,6.25541 
340 ,62.5840 ,1.11975 ,0.62384 ,6.12109 
341 ,62.7920 ,1.12178 ,0.61357 ,6.02036 
342 ,62.9683 ,1.12360 ,0.59646 ,5.85247 
343 ,63.1438 ,1.12542 ,0.59304 ,5.81889 
344 ,63.3202 ,1.12714 ,0.59988 ,5.88605 
345 ,63.5282 ,1.12910 ,0.57593 ,5.65100 
346 ,63.7043 ,1.13093 ,0.55882 ,5.48311 
347 ,63.8964 ,1.13291 ,0.55882 ,5.48311 
348 ,64.0882 ,1.13481 ,0.53486 ,5.24806 
349 ,64.2646 ,1.13656 ,0.52459 ,5.14732 
350 ,64.4407 ,1.13834 ,0.51775 ,5.08017 
351 ,64.6329 ,1.14023 ,0.51091 ,5.01301 
352 ,64.8405 ,1.14221 ,0.49722 ,4.87870 
353 ,65.0169 ,1.14412 ,0.48695 ,4.77796 
354 ,65.1930 ,1.14583 ,0.48695 ,4.77796 
355 ,65.3851 ,1.14775 ,0.45615 ,4.47576 
356 ,65.5612 ,1.14956 ,0.45273 ,4.44218 
357 ,65.7692 ,1.15161 ,0.44588 ,4.37502 
358 ,65.9453 ,1.15338 ,0.42535 ,4.17355 
359 ,66.1213 ,1.15511 ,0.41851 ,4.10640 
360 ,66.3134 ,1.15705 ,0.42193 ,4.13997 
361 ,66.4896 ,1.15884 ,0.40482 ,3.97208 
362 ,66.6816 ,1.16072 ,0.37744 ,3.70346 
363 ,66.8735 ,1.16259 ,0.37402 ,3.66988 
364 ,67.0656 ,1.16459 ,0.36375 ,3.56914 
365 ,67.2419 ,1.16632 ,0.35006 ,3.43483 
366 ,67.4180 ,1.16811 ,0.33295 ,3.26694 
367 ,67.6100 ,1.16991 ,0.34322 ,3.36767 
368 ,67.8020 ,1.17192 ,0.30900 ,3.03189 
369 ,67.9940 ,1.17374 ,0.31926 ,3.13263 
370 ,68.1863 ,1.17577 ,0.29189 ,2.86400 
371 ,68.4100 ,1.17784 ,0.30558 ,2.99831 
372 ,68.6023 ,1.17988 ,0.26793 ,2.62895 
373 ,68.7785 ,1.18168 ,0.26451 ,2.59537 
374 ,68.9707 ,1.18361 ,0.26109 ,2.56179 
375 ,69.1466 ,1.18537 ,0.23713 ,2.32675 
376 ,69.3226 ,1.18711 ,0.23029 ,2.25959 
377 ,69.5144 ,1.18897 ,0.22687 ,2.22601 
378 ,69.6904 ,1.19079 ,0.23713 ,2.32675 
379 ,69.8667 ,1.19259 ,0.21660 ,2.12528 
380 ,70.0431 ,1.19432 ,0.18580 ,1.82307 
381 ,70.2350 ,1.19619 ,0.17553 ,1.72234 
382 ,70.4271 ,1.19818 ,0.17896 ,1.75592 
383 ,70.6031 ,1.19993 ,0.15158 ,1.48729 
384 ,70.7952 ,1.20181 ,0.15842 ,1.55445 
385 ,71.0033 ,1.20388 ,0.13789 ,1.35298 
386 ,71.1795 ,1.20575 ,0.11736 ,1.15151 
387 ,71.3872 ,1.20769 ,0.12420 ,1.21866 
388 ,71.5956 ,1.20977 ,0.11051 ,1.08435 
389 ,71.7717 ,1.21162 ,0.10367 ,1.01719 
390 ,71.9478 ,1.21340 ,0.09682 ,0.95004 
391 ,72.1398 ,1.21530 ,0.06602 ,0.64783 
392 ,72.3153 ,1.21702 ,0.04891 ,0.47994 
393 ,72.4919 ,1.21882 ,0.05234 ,0.51352 
394 ,72.6838 ,1.22069 ,0.04891 ,0.47994 
395 ,72.8603 ,1.22253 ,0.03522 ,0.34563 
396 ,73.0522 ,1.22439 ,0.03865 ,0.37920 
397 ,73.2442 ,1.22626 ,0.00785 ,0.07700 
398 ,73.4201 ,1.22811 ,0.00443 ,0.04342 
399 ,73.5964 ,1.22983 ,-0.01269 ,-0.12447 
400 ,73.7884 ,1.23177 ,-0.01269 ,-0.12447 
401 ,73.9806 ,1.23357 ,-0.00926 ,-0.09089 
402 ,74.1726 ,1.23558 ,-0.03322 ,-0.32594 
403 ,74.3645 ,1.23748 ,-0.03322 ,-0.32594 
404 ,74.5408 ,1.23927 ,-0.04691 ,-0.46025 
405 ,74.7329 ,1.24112 ,-0.06744 ,-0.66172 
406 ,74.9089 ,1.24300 ,-0.06744 ,-0.66172 
407 ,75.0849 ,1.24471 ,-0.08113 ,-0.79604 
408 ,75.2609 ,1.24650 ,-0.08113 ,-0.79604 
409 ,75.4690 ,1.24841 ,-0.09482 ,-0.93035 
410 ,75.6451 ,1.25031 ,-0.09824 ,-0.96393 
411 ,75.8213 ,1.25211 ,-0.10851 ,-1.06466 
412 ,75.9973 ,1.25388 ,-0.13246 ,-1.29971 
413 ,76.1733 ,1.25558 ,-0.14273 ,-1.40045 
414 ,76.3656 ,1.25749 ,-0.14273 ,-1.40045 
415 ,76.5572 ,1.25943 ,-0.17011 ,-1.66907 
416 ,76.7335 ,1.26119 ,-0.18379 ,-1.80338 
417 ,76.9098 ,1.26297 ,-0.17695 ,-1.73623 
418 ,77.0856 ,1.26477 ,-0.19748 ,-1.93770 
419 ,77.2778 ,1.26669 ,-0.20090 ,-1.97128 
420 ,77.4701 ,1.26857 ,-0.21802 ,-2.13917 
421 ,77.6780 ,1.27061 ,-0.21802 ,-2.13917 
422 ,77.8540 ,1.27240 ,-0.23513 ,-2.30706 
423 ,78.0462 ,1.27424 ,-0.22828 ,-2.23990 
424 ,78.2542 ,1.27637 ,-0.24881 ,-2.44137 
425 ,78.4303 ,1.27816 ,-0.26593 ,-2.60926 
426 ,78.6064 ,1.27991 ,-0.26250 ,-2.57569 
427 ,78.7985 ,1.28186 ,-0.26593 ,-2.60926 
428 ,78.9905 ,1.28379 ,-0.30357 ,-2.97863 
429 ,79.1668 ,1.28555 ,-0.28304 ,-2.77716 
430 ,79.3428 ,1.28736 ,-0.29673 ,-2.91147 
431 ,79.5348 ,1.28916 ,-0.31041 ,-3.04578 
432 ,79.7106 ,1.29096 ,-0.33095 ,-3.24725 
433 ,79.8868 ,1.29275 ,-0.32752 ,-3.21367 
434 ,80.0791 ,1.29466 ,-0.33779 ,-3.31441 
435 ,80.2710 ,1.29654 ,-0.35148 ,-3.44872 
436 ,80.4471 ,1.29827 ,-0.36175 ,-3.54946 
437 ,80.6233 ,1.30010 ,-0.35832 ,-3.51588 
438 ,80.7829 ,1.30180 ,-0.36859 ,-3.61661 
439 ,80.9594 ,1.30351 ,-0.37886 ,-3.71735 
440 ,81.1354 ,1.30518 ,-0.39939 ,-3.91882 
441 ,81.3114 ,1.30699 ,-0.40623 ,-3.98597 
442 ,81.4877 ,1.30872 ,-0.41650 ,-4.08671 
443 ,81.6639 ,1.31052 ,-0.42677 ,-4.18744 
444 ,81.8393 ,1.31233 ,-0.44046 ,-4.32176 
445 ,82.0318 ,1.31406 ,-0.41992 ,-4.12029 
446 ,82.2238 ,1.31609 ,-0.45414 ,-4.45607 
447 ,82.4000 ,1.31788 ,-0.45072 ,-4.42249 
448 ,82.5759 ,1.31961 ,-0.45757 ,-4.48965 
449 ,82.7520 ,1.32143 ,-0.47468 ,-4.65754 
450 ,82.9278 ,1.32308 ,-0.47468 ,-4.65754 
451 ,83.1043 ,1.32490 ,-0.49521 ,-4.85901 
452 ,83.3283 ,1.32708 ,-0.50206 ,-4.92617 
453 ,83.5042 ,1.32885 ,-0.50890 ,-4.99332 
454 ,83.6804 ,1.33069 ,-0.50890 ,-4.99332 
455 ,83.8884 ,1.33263 ,-0.52259 ,-5.12764 
456 ,84.0645 ,1.33447 ,-0.53628 ,-5.26195 
457 ,84.2407 ,1.33623 ,-0.52259 ,-5.12764 
458 ,84.4486 ,1.33831 ,-0.55339 ,-5.42984 
459 ,84.6248 ,1.34009 ,-0.55681 ,-5.46342 
460 ,84.8169 ,1.34194 ,-0.56708 ,-5.56415 
461 ,84.9929 ,1.34378 ,-0.57734 ,-5.66489 
462 ,85.1692 ,1.34554 ,-0.59445 ,-5.83278 
463 ,85.3611 ,1.34747 ,-0.58077 ,-5.69847 
464 ,85.5370 ,1.34919 ,-0.59445 ,-5.83278 
