Data stamp = , 07-04-2022 21:45:37 435

Calibration Values: 
Slope = , 26.54 , g/V 
Offset Voltage at no contact = , -0.501760 , V 

No , Time , Stage Position ,   Mass , Force 
   ,  (s) ,      (mm)      ,   (g)  , (mN)  

1 ,0.0000 ,0.49930 ,5.23007 ,51.31749 
2 ,0.2299 ,0.49939 ,5.23350 ,51.35107 
3 ,0.6785 ,0.50074 ,5.21981 ,51.21675 
4 ,0.8862 ,0.50286 ,5.22665 ,51.28391 
5 ,1.0783 ,0.50478 ,5.21639 ,51.18317 
6 ,1.2547 ,0.50652 ,5.22323 ,51.25033 
7 ,1.4468 ,0.50840 ,5.21639 ,51.18317 
8 ,1.6228 ,0.51028 ,5.21296 ,51.14960 
9 ,1.8149 ,0.51217 ,5.19243 ,50.94813 
10 ,2.0228 ,0.51427 ,5.17874 ,50.81381 
11 ,2.1990 ,0.51612 ,5.17532 ,50.78023 
12 ,2.3750 ,0.51781 ,5.15821 ,50.61234 
13 ,2.5673 ,0.51969 ,5.14452 ,50.47803 
14 ,2.7433 ,0.52150 ,5.13083 ,50.34372 
15 ,2.9355 ,0.52336 ,5.11714 ,50.20940 
16 ,3.1275 ,0.52526 ,5.10003 ,50.04151 
17 ,3.3355 ,0.52736 ,5.08634 ,49.90720 
18 ,3.5116 ,0.52914 ,5.06239 ,49.67215 
19 ,3.7197 ,0.53113 ,5.04528 ,49.50426 
20 ,3.8954 ,0.53298 ,5.01448 ,49.20205 
21 ,4.0715 ,0.53472 ,5.01790 ,49.23563 
22 ,4.2480 ,0.53656 ,4.98368 ,48.89985 
23 ,4.4241 ,0.53828 ,4.96999 ,48.76554 
24 ,4.5999 ,0.54000 ,4.94603 ,48.53049 
25 ,4.7922 ,0.54185 ,4.94946 ,48.56407 
26 ,4.9999 ,0.54399 ,4.92208 ,48.29544 
27 ,5.1759 ,0.54574 ,4.90497 ,48.12755 
28 ,5.3524 ,0.54753 ,4.90155 ,48.09397 
29 ,5.5604 ,0.54957 ,4.87417 ,47.82534 
30 ,5.7366 ,0.55136 ,4.86732 ,47.75819 
31 ,5.9126 ,0.55316 ,4.84337 ,47.52314 
32 ,6.1048 ,0.55505 ,4.82284 ,47.32167 
33 ,6.2804 ,0.55695 ,4.80230 ,47.12020 
34 ,6.4567 ,0.55856 ,4.79546 ,47.05304 
35 ,6.6329 ,0.56037 ,4.78861 ,46.98589 
36 ,6.8249 ,0.56228 ,4.77150 ,46.81800 
37 ,7.0011 ,0.56400 ,4.74413 ,46.54937 
38 ,7.1932 ,0.56595 ,4.72702 ,46.38148 
39 ,7.4011 ,0.56795 ,4.70648 ,46.18001 
40 ,7.5933 ,0.56998 ,4.70990 ,46.21359 
41 ,7.8012 ,0.57197 ,4.67568 ,45.87780 
42 ,7.9775 ,0.57380 ,4.66199 ,45.74349 
43 ,8.1694 ,0.57569 ,4.66199 ,45.74349 
44 ,8.3612 ,0.57753 ,4.63119 ,45.44128 
45 ,8.5378 ,0.57941 ,4.61066 ,45.23981 
46 ,8.7137 ,0.58117 ,4.60724 ,45.20624 
47 ,8.8897 ,0.58289 ,4.60382 ,45.17266 
48 ,9.0816 ,0.58474 ,4.55933 ,44.73614 
49 ,9.2579 ,0.58658 ,4.56275 ,44.76972 
50 ,9.4338 ,0.58833 ,4.54906 ,44.63541 
51 ,9.6262 ,0.59021 ,4.54564 ,44.60183 
52 ,9.8181 ,0.59226 ,4.53537 ,44.50109 
53 ,9.9943 ,0.59390 ,4.49773 ,44.13173 
54 ,10.2024 ,0.59595 ,4.47720 ,43.93026 
55 ,10.3945 ,0.59798 ,4.46351 ,43.79595 
56 ,10.5865 ,0.59974 ,4.46351 ,43.79595 
57 ,10.7787 ,0.60175 ,4.43271 ,43.49374 
58 ,10.9547 ,0.60357 ,4.40875 ,43.25870 
59 ,11.1468 ,0.60550 ,4.40191 ,43.19154 
60 ,11.3391 ,0.60733 ,4.38822 ,43.05723 
61 ,11.5148 ,0.60919 ,4.37795 ,42.95649 
62 ,11.6907 ,0.61099 ,4.35400 ,42.72144 
63 ,11.8671 ,0.61267 ,4.35742 ,42.75502 
64 ,12.0593 ,0.61455 ,4.32320 ,42.41924 
65 ,12.2354 ,0.61637 ,4.31293 ,42.31850 
66 ,12.4432 ,0.61827 ,4.28898 ,42.08345 
67 ,12.6350 ,0.62036 ,4.27529 ,41.94914 
68 ,12.8114 ,0.62211 ,4.27187 ,41.91556 
69 ,12.9876 ,0.62385 ,4.25476 ,41.74767 
70 ,13.1636 ,0.62566 ,4.23080 ,41.51262 
71 ,13.3557 ,0.62757 ,4.21711 ,41.37831 
72 ,13.5317 ,0.62927 ,4.22738 ,41.47905 
73 ,13.7237 ,0.63124 ,4.18289 ,41.04253 
74 ,13.8999 ,0.63296 ,4.15894 ,40.80748 
75 ,14.0760 ,0.63475 ,4.15551 ,40.77390 
76 ,14.2678 ,0.63659 ,4.13840 ,40.60601 
77 ,14.4600 ,0.63857 ,4.11445 ,40.37096 
78 ,14.6361 ,0.64036 ,4.11787 ,40.40454 
79 ,14.8121 ,0.64211 ,4.11103 ,40.33738 
80 ,14.9884 ,0.64385 ,4.09049 ,40.13591 
81 ,15.1965 ,0.64583 ,4.05285 ,39.76655 
82 ,15.4046 ,0.64790 ,4.04943 ,39.73297 
83 ,15.5967 ,0.64987 ,4.03232 ,39.56508 
84 ,15.7887 ,0.65183 ,4.01520 ,39.39719 
85 ,15.9647 ,0.65363 ,4.00152 ,39.26288 
86 ,16.1406 ,0.65536 ,3.97072 ,38.96067 
87 ,16.3330 ,0.65724 ,3.98098 ,39.06141 
88 ,16.5090 ,0.65909 ,3.96045 ,38.85994 
89 ,16.7165 ,0.66105 ,3.93650 ,38.62489 
90 ,16.8927 ,0.66288 ,3.90570 ,38.32268 
91 ,17.0687 ,0.66470 ,3.89543 ,38.22195 
92 ,17.2450 ,0.66647 ,3.88516 ,38.12122 
93 ,17.4532 ,0.66854 ,3.87490 ,38.02048 
94 ,17.6455 ,0.67045 ,3.86463 ,37.91975 
95 ,17.8375 ,0.67227 ,3.83725 ,37.65112 
96 ,18.0137 ,0.67409 ,3.83383 ,37.61754 
97 ,18.1896 ,0.67582 ,3.82014 ,37.48323 
98 ,18.3979 ,0.67791 ,3.78934 ,37.18102 
99 ,18.5737 ,0.67976 ,3.77565 ,37.04671 
100 ,18.7500 ,0.68147 ,3.77565 ,37.04671 
101 ,18.9259 ,0.68326 ,3.76539 ,36.94597 
102 ,19.1017 ,0.68496 ,3.74143 ,36.71093 
103 ,19.3262 ,0.68712 ,3.72774 ,36.57661 
104 ,19.5182 ,0.68915 ,3.69694 ,36.27441 
105 ,19.6944 ,0.69087 ,3.69694 ,36.27441 
106 ,19.8863 ,0.69279 ,3.66614 ,35.97220 
107 ,20.0622 ,0.69453 ,3.66272 ,35.93863 
108 ,20.2388 ,0.69635 ,3.63534 ,35.67000 
109 ,20.4306 ,0.69818 ,3.63877 ,35.70358 
110 ,20.6226 ,0.70009 ,3.60797 ,35.40137 
111 ,20.7987 ,0.70192 ,3.60112 ,35.33422 
112 ,20.9748 ,0.70371 ,3.58059 ,35.13275 
113 ,21.1509 ,0.70544 ,3.59086 ,35.23348 
114 ,21.3265 ,0.70724 ,3.57375 ,35.06559 
115 ,21.4868 ,0.70891 ,3.53952 ,34.72981 
116 ,21.6629 ,0.71059 ,3.53268 ,34.66265 
117 ,21.8393 ,0.71234 ,3.51215 ,34.46118 
118 ,22.0151 ,0.71413 ,3.50188 ,34.36045 
119 ,22.1908 ,0.71600 ,3.50188 ,34.36045 
120 ,22.3670 ,0.71763 ,3.48819 ,34.22613 
121 ,22.5430 ,0.71938 ,3.46766 ,34.02466 
122 ,22.7190 ,0.72111 ,3.44028 ,33.75604 
123 ,22.8956 ,0.72295 ,3.42317 ,33.58814 
124 ,23.0872 ,0.72483 ,3.42659 ,33.62172 
125 ,23.2633 ,0.72658 ,3.40606 ,33.42025 
126 ,23.4398 ,0.72836 ,3.38210 ,33.18520 
127 ,23.6156 ,0.73022 ,3.38895 ,33.25236 
128 ,23.7915 ,0.73184 ,3.37526 ,33.11805 
129 ,23.9679 ,0.73365 ,3.35815 ,32.95016 
130 ,24.1440 ,0.73542 ,3.33762 ,32.74869 
131 ,24.3358 ,0.73732 ,3.31708 ,32.54722 
132 ,24.5282 ,0.73916 ,3.31708 ,32.54722 
133 ,24.7202 ,0.74114 ,3.28286 ,32.21143 
134 ,24.8960 ,0.74287 ,3.28628 ,32.24501 
135 ,25.0883 ,0.74484 ,3.28286 ,32.21143 
136 ,25.2645 ,0.74659 ,3.25206 ,31.90923 
137 ,25.4565 ,0.74850 ,3.22468 ,31.64060 
138 ,25.6325 ,0.75025 ,3.22468 ,31.64060 
139 ,25.8088 ,0.75200 ,3.21442 ,31.53987 
140 ,25.9848 ,0.75383 ,3.19046 ,31.30482 
141 ,26.1768 ,0.75567 ,3.18362 ,31.23766 
142 ,26.3527 ,0.75748 ,3.16993 ,31.10335 
143 ,26.5289 ,0.75924 ,3.15624 ,30.96904 
144 ,26.7208 ,0.76111 ,3.13571 ,30.76757 
145 ,26.8972 ,0.76293 ,3.11860 ,30.59968 
146 ,27.0732 ,0.76466 ,3.11175 ,30.53252 
147 ,27.2653 ,0.76654 ,3.08780 ,30.29747 
148 ,27.4573 ,0.76844 ,3.07411 ,30.16316 
149 ,27.6335 ,0.77029 ,3.06726 ,30.09600 
150 ,27.8256 ,0.77223 ,3.05700 ,29.99527 
151 ,28.0014 ,0.77392 ,3.04331 ,29.86095 
152 ,28.2093 ,0.77603 ,3.03304 ,29.76022 
153 ,28.4017 ,0.77784 ,3.00224 ,29.45801 
154 ,28.5775 ,0.77970 ,2.99540 ,29.39086 
155 ,28.7538 ,0.78145 ,2.98171 ,29.25654 
156 ,28.9300 ,0.78323 ,2.97829 ,29.22297 
157 ,29.1217 ,0.78513 ,2.95433 ,28.98792 
158 ,29.2981 ,0.78686 ,2.93038 ,28.75287 
159 ,29.4742 ,0.78863 ,2.92353 ,28.68571 
160 ,29.6658 ,0.79059 ,2.92353 ,28.68571 
161 ,29.8423 ,0.79231 ,2.89616 ,28.41709 
162 ,30.0185 ,0.79409 ,2.87562 ,28.21562 
163 ,30.2102 ,0.79594 ,2.87562 ,28.21562 
164 ,30.3864 ,0.79782 ,2.85167 ,27.98057 
165 ,30.5626 ,0.79953 ,2.84825 ,27.94699 
166 ,30.7384 ,0.80134 ,2.82087 ,27.67836 
167 ,30.9146 ,0.80308 ,2.81745 ,27.64479 
168 ,31.0905 ,0.80482 ,2.81060 ,27.57763 
169 ,31.2670 ,0.80655 ,2.79691 ,27.44332 
170 ,31.4750 ,0.80861 ,2.78665 ,27.34258 
171 ,31.6510 ,0.81043 ,2.76269 ,27.10753 
172 ,31.8272 ,0.81221 ,2.75243 ,27.00680 
173 ,32.0033 ,0.81391 ,2.73874 ,26.87248 
174 ,32.1793 ,0.81572 ,2.71136 ,26.60386 
175 ,32.3554 ,0.81747 ,2.70794 ,26.57028 
176 ,32.5476 ,0.81939 ,2.69767 ,26.46954 
177 ,32.7236 ,0.82117 ,2.67029 ,26.20092 
178 ,32.8995 ,0.82289 ,2.66345 ,26.13376 
179 ,33.1078 ,0.82490 ,2.65660 ,26.06661 
180 ,33.2836 ,0.82677 ,2.64634 ,25.96587 
181 ,33.4598 ,0.82850 ,2.61554 ,25.66367 
182 ,33.6358 ,0.83024 ,2.60869 ,25.59651 
183 ,33.8120 ,0.83200 ,2.59843 ,25.49577 
184 ,33.9881 ,0.83377 ,2.59158 ,25.42862 
185 ,34.1642 ,0.83562 ,2.55052 ,25.02568 
186 ,34.3563 ,0.83750 ,2.54367 ,24.95852 
187 ,34.5484 ,0.83935 ,2.54710 ,24.99210 
188 ,34.7405 ,0.84129 ,2.52314 ,24.75705 
189 ,34.9161 ,0.84309 ,2.50603 ,24.58916 
190 ,35.0925 ,0.84480 ,2.49576 ,24.48842 
191 ,35.2848 ,0.84680 ,2.49918 ,24.52200 
192 ,35.4765 ,0.84865 ,2.45127 ,24.05191 
193 ,35.6529 ,0.85045 ,2.44443 ,23.98475 
194 ,35.8289 ,0.85222 ,2.45812 ,24.11906 
195 ,36.0206 ,0.85408 ,2.44101 ,23.95117 
196 ,36.1971 ,0.85585 ,2.41021 ,23.64897 
197 ,36.3891 ,0.85780 ,2.41705 ,23.71612 
198 ,36.5653 ,0.85958 ,2.41363 ,23.68255 
199 ,36.7569 ,0.86140 ,2.38625 ,23.41392 
200 ,36.9330 ,0.86322 ,2.36914 ,23.24603 
201 ,37.1090 ,0.86500 ,2.36230 ,23.17887 
202 ,37.3014 ,0.86691 ,2.35203 ,23.07814 
203 ,37.4935 ,0.86881 ,2.32808 ,22.84309 
204 ,37.6698 ,0.87060 ,2.32808 ,22.84309 
205 ,37.8617 ,0.87251 ,2.29043 ,22.47373 
206 ,38.0539 ,0.87434 ,2.28017 ,22.37299 
207 ,38.2458 ,0.87634 ,2.28701 ,22.44015 
208 ,38.4381 ,0.87821 ,2.25621 ,22.13794 
209 ,38.6140 ,0.88006 ,2.23910 ,21.97005 
210 ,38.7898 ,0.88176 ,2.23568 ,21.93647 
211 ,38.9982 ,0.88382 ,2.22199 ,21.80216 
212 ,39.1743 ,0.88565 ,2.19119 ,21.49996 
213 ,39.3502 ,0.88737 ,2.18777 ,21.46638 
214 ,39.5424 ,0.88930 ,2.18435 ,21.43280 
215 ,39.7184 ,0.89109 ,2.15697 ,21.16417 
216 ,39.9105 ,0.89290 ,2.17750 ,21.36564 
217 ,40.0864 ,0.89481 ,2.13986 ,20.99628 
218 ,40.2623 ,0.89650 ,2.12617 ,20.86197 
219 ,40.4389 ,0.89828 ,2.10906 ,20.69408 
220 ,40.6307 ,0.90020 ,2.11248 ,20.72766 
221 ,40.8229 ,0.90213 ,2.09195 ,20.52619 
222 ,40.9989 ,0.90389 ,2.06799 ,20.29114 
223 ,41.1750 ,0.90561 ,2.06115 ,20.22398 
224 ,41.3508 ,0.90745 ,2.05088 ,20.12325 
225 ,41.5273 ,0.90917 ,2.04061 ,20.02251 
226 ,41.7352 ,0.91115 ,2.02693 ,19.88820 
227 ,41.9111 ,0.91301 ,2.01324 ,19.75388 
228 ,42.1035 ,0.91491 ,2.00982 ,19.72031 
229 ,42.2794 ,0.91673 ,1.96875 ,19.31737 
230 ,42.4715 ,0.91858 ,1.96190 ,19.25021 
231 ,42.6477 ,0.92036 ,1.95848 ,19.21663 
232 ,42.8237 ,0.92217 ,1.95506 ,19.18305 
233 ,42.9998 ,0.92383 ,1.93453 ,18.98158 
234 ,43.1759 ,0.92558 ,1.91057 ,18.74654 
235 ,43.3841 ,0.92765 ,1.90715 ,18.71296 
236 ,43.5761 ,0.92963 ,1.87293 ,18.37717 
237 ,43.7521 ,0.93136 ,1.88319 ,18.47791 
238 ,43.9602 ,0.93346 ,1.86608 ,18.31002 
239 ,44.1364 ,0.93523 ,1.84897 ,18.14213 
240 ,44.3124 ,0.93696 ,1.84213 ,18.07497 
241 ,44.4882 ,0.93880 ,1.83186 ,17.97423 
242 ,44.6646 ,0.94052 ,1.82844 ,17.94066 
243 ,44.8405 ,0.94227 ,1.79422 ,17.60487 
244 ,45.0167 ,0.94404 ,1.78053 ,17.47056 
245 ,45.1928 ,0.94585 ,1.77369 ,17.40340 
246 ,45.3848 ,0.94770 ,1.77711 ,17.43698 
247 ,45.5608 ,0.94945 ,1.74631 ,17.13478 
248 ,45.7372 ,0.95124 ,1.72920 ,16.96689 
249 ,45.9131 ,0.95304 ,1.71893 ,16.86615 
250 ,46.2973 ,0.95671 ,1.70524 ,16.73184 
251 ,46.4890 ,0.95875 ,1.69840 ,16.66468 
252 ,46.6651 ,0.96050 ,1.68813 ,16.56395 
253 ,46.8414 ,0.96225 ,1.66418 ,16.32890 
254 ,47.0336 ,0.96416 ,1.64364 ,16.12743 
255 ,47.2098 ,0.96594 ,1.63338 ,16.02669 
256 ,47.3857 ,0.96772 ,1.64022 ,16.09385 
257 ,47.5616 ,0.96944 ,1.60942 ,15.79164 
258 ,47.7375 ,0.97120 ,1.59916 ,15.69091 
259 ,47.9139 ,0.97302 ,1.59231 ,15.62375 
260 ,48.0898 ,0.97473 ,1.58547 ,15.55660 
261 ,48.2660 ,0.97649 ,1.57862 ,15.48944 
262 ,48.4581 ,0.97840 ,1.56151 ,15.32155 
263 ,48.6342 ,0.98022 ,1.54440 ,15.15366 
264 ,48.8098 ,0.98190 ,1.53756 ,15.08650 
265 ,48.9700 ,0.98365 ,1.52387 ,14.95219 
266 ,49.1464 ,0.98528 ,1.51702 ,14.88503 
267 ,49.3225 ,0.98706 ,1.49991 ,14.71714 
268 ,49.4984 ,0.98884 ,1.47596 ,14.48209 
269 ,49.6746 ,0.99064 ,1.47253 ,14.44851 
270 ,49.8504 ,0.99239 ,1.47596 ,14.48209 
271 ,50.0268 ,0.99417 ,1.44858 ,14.21346 
272 ,50.2348 ,0.99612 ,1.43489 ,14.07915 
273 ,50.4109 ,0.99790 ,1.42462 ,13.97842 
274 ,50.6189 ,0.99987 ,1.40409 ,13.77695 
275 ,50.7951 ,1.00182 ,1.38356 ,13.57548 
276 ,50.9711 ,1.00350 ,1.39383 ,13.67621 
277 ,51.1473 ,1.00529 ,1.38356 ,13.57548 
278 ,51.3234 ,1.00711 ,1.36645 ,13.40759 
279 ,51.5155 ,1.00902 ,1.34249 ,13.17254 
280 ,51.7071 ,1.01087 ,1.35276 ,13.27327 
281 ,51.8832 ,1.01268 ,1.32538 ,13.00465 
282 ,52.0591 ,1.01447 ,1.32196 ,12.97107 
283 ,52.2353 ,1.01619 ,1.28774 ,12.63528 
284 ,52.3954 ,1.01791 ,1.28774 ,12.63528 
285 ,52.5555 ,1.01950 ,1.26720 ,12.43381 
286 ,52.7315 ,1.02111 ,1.26036 ,12.36666 
287 ,52.8916 ,1.02287 ,1.25694 ,12.33308 
288 ,53.0678 ,1.02449 ,1.25694 ,12.33308 
289 ,53.2441 ,1.02631 ,1.24325 ,12.19877 
290 ,53.4363 ,1.02807 ,1.21245 ,11.89656 
291 ,53.6443 ,1.03023 ,1.21587 ,11.93014 
292 ,53.8202 ,1.03202 ,1.19876 ,11.76225 
293 ,53.9965 ,1.03383 ,1.17138 ,11.49362 
294 ,54.1886 ,1.03564 ,1.17823 ,11.56078 
295 ,54.3965 ,1.03775 ,1.14058 ,11.19142 
296 ,54.5726 ,1.03959 ,1.14743 ,11.25857 
297 ,54.7648 ,1.04139 ,1.14058 ,11.19142 
298 ,54.9408 ,1.04323 ,1.12690 ,11.05710 
299 ,55.1485 ,1.04529 ,1.10636 ,10.85563 
300 ,55.3411 ,1.04717 ,1.08583 ,10.65416 
301 ,55.5329 ,1.04918 ,1.08583 ,10.65416 
302 ,55.7092 ,1.05088 ,1.08583 ,10.65416 
303 ,55.9008 ,1.05282 ,1.06187 ,10.41912 
304 ,56.0773 ,1.05459 ,1.04134 ,10.21765 
305 ,56.2851 ,1.05655 ,1.05503 ,10.35196 
306 ,56.4614 ,1.05843 ,1.03450 ,10.15049 
307 ,56.6376 ,1.06021 ,1.01739 ,9.98260 
308 ,56.8293 ,1.06206 ,1.01054 ,9.91544 
309 ,57.0057 ,1.06390 ,1.00028 ,9.81471 
310 ,57.1816 ,1.06560 ,0.98659 ,9.68039 
311 ,57.3577 ,1.06735 ,0.96948 ,9.51250 
312 ,57.5338 ,1.06918 ,0.95921 ,9.41177 
313 ,57.7099 ,1.07090 ,0.95579 ,9.37819 
314 ,57.9018 ,1.07278 ,0.95237 ,9.34461 
315 ,58.0780 ,1.07458 ,0.91814 ,9.00883 
316 ,58.2700 ,1.07655 ,0.91814 ,9.00883 
317 ,58.4461 ,1.07826 ,0.91814 ,9.00883 
318 ,58.6383 ,1.08018 ,0.89419 ,8.77378 
319 ,58.8304 ,1.08206 ,0.89761 ,8.80736 
320 ,59.0064 ,1.08391 ,0.88392 ,8.67305 
321 ,59.1985 ,1.08576 ,0.85654 ,8.40442 
322 ,59.3902 ,1.08764 ,0.84970 ,8.33726 
323 ,59.5668 ,1.08951 ,0.84628 ,8.30368 
324 ,59.7748 ,1.09153 ,0.81890 ,8.03506 
325 ,59.9504 ,1.09330 ,0.80179 ,7.86717 
326 ,60.1269 ,1.09508 ,0.80179 ,7.86717 
327 ,60.3509 ,1.09716 ,0.78126 ,7.66570 
328 ,60.5590 ,1.09933 ,0.77441 ,7.59854 
329 ,60.7671 ,1.10145 ,0.77441 ,7.59854 
330 ,60.9432 ,1.10325 ,0.76757 ,7.53138 
331 ,61.1354 ,1.10510 ,0.73335 ,7.19560 
332 ,61.3274 ,1.10710 ,0.72992 ,7.16202 
333 ,61.5190 ,1.10900 ,0.72308 ,7.09486 
334 ,61.6954 ,1.11076 ,0.71624 ,7.02771 
335 ,61.8874 ,1.11265 ,0.69913 ,6.85982 
336 ,62.0636 ,1.11448 ,0.70939 ,6.96055 
337 ,62.2394 ,1.11627 ,0.67175 ,6.59119 
338 ,62.4157 ,1.11797 ,0.65464 ,6.42330 
339 ,62.6074 ,1.11993 ,0.66490 ,6.52403 
340 ,62.7839 ,1.12165 ,0.64779 ,6.35614 
341 ,62.9758 ,1.12356 ,0.62726 ,6.15467 
342 ,63.1519 ,1.12534 ,0.61357 ,6.02036 
343 ,63.3281 ,1.12713 ,0.61015 ,5.98678 
344 ,63.5358 ,1.12908 ,0.59988 ,5.88605 
345 ,63.6957 ,1.13084 ,0.58619 ,5.75173 
346 ,63.8559 ,1.13246 ,0.57251 ,5.61742 
347 ,64.0321 ,1.13412 ,0.56224 ,5.51668 
348 ,64.2405 ,1.13611 ,0.56224 ,5.51668 
349 ,64.4325 ,1.13813 ,0.53486 ,5.24806 
350 ,64.6086 ,1.13982 ,0.53144 ,5.21448 
351 ,64.7846 ,1.14165 ,0.53828 ,5.28164 
352 ,64.9605 ,1.14338 ,0.51433 ,5.04659 
353 ,65.1369 ,1.14514 ,0.51091 ,5.01301 
354 ,65.3126 ,1.14695 ,0.48695 ,4.77796 
355 ,65.5050 ,1.14883 ,0.48695 ,4.77796 
356 ,65.6968 ,1.15075 ,0.45957 ,4.50934 
357 ,65.8890 ,1.15269 ,0.46642 ,4.57649 
358 ,66.0968 ,1.15469 ,0.44931 ,4.40860 
359 ,66.2732 ,1.15653 ,0.44246 ,4.34144 
360 ,66.4491 ,1.15831 ,0.42877 ,4.20713 
361 ,66.6413 ,1.16016 ,0.43562 ,4.27429 
362 ,66.8171 ,1.16196 ,0.40140 ,3.93850 
363 ,66.9964 ,1.16373 ,0.38429 ,3.77061 
364 ,67.2016 ,1.16580 ,0.38771 ,3.80419 
365 ,67.3937 ,1.16760 ,0.38086 ,3.73703 
366 ,67.5857 ,1.16957 ,0.35349 ,3.46841 
367 ,67.7619 ,1.17139 ,0.37744 ,3.70346 
368 ,67.9376 ,1.17316 ,0.35006 ,3.43483 
369 ,68.1140 ,1.17486 ,0.33295 ,3.26694 
370 ,68.3060 ,1.17677 ,0.32611 ,3.19978 
371 ,68.4822 ,1.17855 ,0.33295 ,3.26694 
372 ,68.6901 ,1.18052 ,0.30900 ,3.03189 
373 ,68.8663 ,1.18243 ,0.30558 ,2.99831 
374 ,69.0424 ,1.18421 ,0.29189 ,2.86400 
375 ,69.2346 ,1.18601 ,0.26109 ,2.56179 
376 ,69.4104 ,1.18786 ,0.24398 ,2.39390 
377 ,69.5866 ,1.18969 ,0.25424 ,2.49464 
378 ,69.7948 ,1.19158 ,0.24055 ,2.36032 
379 ,69.9864 ,1.19358 ,0.23371 ,2.29317 
380 ,70.1627 ,1.19541 ,0.22344 ,2.19243 
381 ,70.3550 ,1.19734 ,0.19607 ,1.92381 
382 ,70.5790 ,1.19939 ,0.19264 ,1.89023 
383 ,70.7552 ,1.20133 ,0.18580 ,1.82307 
384 ,70.9472 ,1.20324 ,0.17553 ,1.72234 
385 ,71.1231 ,1.20498 ,0.17553 ,1.72234 
386 ,71.2993 ,1.20671 ,0.15500 ,1.52087 
387 ,71.4754 ,1.20852 ,0.15842 ,1.55445 
388 ,71.6516 ,1.21027 ,0.13789 ,1.35298 
389 ,71.8436 ,1.21216 ,0.13789 ,1.35298 
390 ,72.0358 ,1.21411 ,0.12078 ,1.18508 
391 ,72.2118 ,1.21594 ,0.10709 ,1.05077 
392 ,72.4038 ,1.21769 ,0.09340 ,0.91646 
393 ,72.5798 ,1.21958 ,0.08998 ,0.88288 
394 ,72.7721 ,1.22148 ,0.06602 ,0.64783 
395 ,72.9481 ,1.22321 ,0.05576 ,0.54710 
396 ,73.1242 ,1.22502 ,0.06260 ,0.61425 
397 ,73.3162 ,1.22684 ,0.04891 ,0.47994 
398 ,73.4923 ,1.22868 ,0.03522 ,0.34563 
399 ,73.6685 ,1.23041 ,0.02496 ,0.24489 
400 ,73.8603 ,1.23228 ,0.02496 ,0.24489 
401 ,74.0368 ,1.23410 ,0.01469 ,0.14416 
402 ,74.2286 ,1.23601 ,0.00443 ,0.04342 
403 ,74.4048 ,1.23781 ,-0.01953 ,-0.19163 
404 ,74.6128 ,1.23983 ,-0.02980 ,-0.29236 
405 ,74.8049 ,1.24171 ,-0.02295 ,-0.22520 
406 ,74.9971 ,1.24363 ,-0.05033 ,-0.49383 
407 ,75.2050 ,1.24571 ,-0.06744 ,-0.66172 
408 ,75.3808 ,1.24752 ,-0.05717 ,-0.56099 
409 ,75.5571 ,1.24931 ,-0.07086 ,-0.69530 
410 ,75.7331 ,1.25106 ,-0.08455 ,-0.82961 
411 ,75.9254 ,1.25286 ,-0.09140 ,-0.89677 
412 ,76.1333 ,1.25498 ,-0.10508 ,-1.03108 
413 ,76.3095 ,1.25682 ,-0.13588 ,-1.33329 
414 ,76.5175 ,1.25889 ,-0.10508 ,-1.03108 
415 ,76.7257 ,1.26095 ,-0.12562 ,-1.23255 
416 ,76.9179 ,1.26286 ,-0.13246 ,-1.29971 
417 ,77.1258 ,1.26495 ,-0.13588 ,-1.33329 
418 ,77.2855 ,1.26670 ,-0.14273 ,-1.40045 
419 ,77.4614 ,1.26834 ,-0.15642 ,-1.53476 
420 ,77.6377 ,1.27009 ,-0.17353 ,-1.70265 
421 ,77.8142 ,1.27189 ,-0.17695 ,-1.73623 
422 ,78.0062 ,1.27376 ,-0.20090 ,-1.97128 
423 ,78.1823 ,1.27555 ,-0.20433 ,-2.00485 
424 ,78.3744 ,1.27747 ,-0.21117 ,-2.07201 
425 ,78.5664 ,1.27940 ,-0.22486 ,-2.20632 
426 ,78.7426 ,1.28115 ,-0.21459 ,-2.10559 
427 ,78.9347 ,1.28307 ,-0.23855 ,-2.34064 
428 ,79.1266 ,1.28501 ,-0.26250 ,-2.57569 
429 ,79.3026 ,1.28676 ,-0.23513 ,-2.30706 
430 ,79.4788 ,1.28852 ,-0.26935 ,-2.64284 
431 ,79.6548 ,1.29032 ,-0.26250 ,-2.57569 
432 ,79.8311 ,1.29202 ,-0.27961 ,-2.74358 
433 ,80.0069 ,1.29380 ,-0.30357 ,-2.97863 
434 ,80.1830 ,1.29552 ,-0.28646 ,-2.81073 
435 ,80.3590 ,1.29731 ,-0.30699 ,-3.01220 
436 ,80.5511 ,1.29922 ,-0.32752 ,-3.21367 
437 ,80.7272 ,1.30097 ,-0.32410 ,-3.18010 
438 ,80.9193 ,1.30289 ,-0.32752 ,-3.21367 
439 ,81.0955 ,1.30467 ,-0.33437 ,-3.28083 
440 ,81.2875 ,1.30657 ,-0.34464 ,-3.38156 
441 ,81.4637 ,1.30838 ,-0.36175 ,-3.54946 
442 ,81.6556 ,1.31028 ,-0.36175 ,-3.54946 
443 ,81.8476 ,1.31214 ,-0.37544 ,-3.68377 
444 ,82.0397 ,1.31409 ,-0.37544 ,-3.68377 
445 ,82.2159 ,1.31591 ,-0.39255 ,-3.85166 
446 ,82.4076 ,1.31779 ,-0.40623 ,-3.98597 
447 ,82.5677 ,1.31950 ,-0.40623 ,-3.98597 
448 ,82.7437 ,1.32116 ,-0.41650 ,-4.08671 
449 ,82.9364 ,1.32302 ,-0.42335 ,-4.15387 
450 ,83.1283 ,1.32503 ,-0.44388 ,-4.35534 
451 ,83.3203 ,1.32684 ,-0.44730 ,-4.38891 
452 ,83.4965 ,1.32864 ,-0.44730 ,-4.38891 
453 ,83.6883 ,1.33070 ,-0.46099 ,-4.52323 
454 ,83.8482 ,1.33232 ,-0.47126 ,-4.62396 
455 ,84.0248 ,1.33396 ,-0.49179 ,-4.82543 
456 ,84.2166 ,1.33582 ,-0.47810 ,-4.69112 
457 ,84.3928 ,1.33761 ,-0.50206 ,-4.92617 
458 ,84.5688 ,1.33938 ,-0.50206 ,-4.92617 
459 ,84.7450 ,1.34111 ,-0.51232 ,-5.02690 
460 ,84.9370 ,1.34305 ,-0.52259 ,-5.12764 
461 ,85.1131 ,1.34486 ,-0.54312 ,-5.32911 
462 ,85.3052 ,1.34665 ,-0.56023 ,-5.49700 
463 ,85.4972 ,1.34869 ,-0.54312 ,-5.32911 
464 ,85.6734 ,1.35041 ,-0.55681 ,-5.46342 
