Data stamp = , 06-04-2022 23:26:50 835

Calibration Values: 
Slope = , 26.54 , g/V 
Offset Voltage at no contact = , -0.501760 , V 

No , Time , Stage Position ,   Mass , Force 
   ,  (s) ,      (mm)      ,   (g)  , (mN)  

1 ,0.0000 ,0.49942 ,5.24034 ,51.41822 
2 ,0.2035 ,0.49949 ,5.22323 ,51.25033 
3 ,0.5239 ,0.50031 ,5.24034 ,51.41822 
4 ,0.7320 ,0.50176 ,5.24376 ,51.45180 
5 ,0.9241 ,0.50340 ,5.21296 ,51.14960 
6 ,1.1001 ,0.50517 ,5.23007 ,51.31749 
7 ,1.2922 ,0.50707 ,5.22323 ,51.25033 
8 ,1.4684 ,0.50886 ,5.23350 ,51.35107 
9 ,1.6602 ,0.51077 ,5.23007 ,51.31749 
10 ,1.8681 ,0.51272 ,5.19927 ,51.01528 
11 ,2.0603 ,0.51474 ,5.20270 ,51.04886 
12 ,2.2521 ,0.51663 ,5.19585 ,50.98170 
13 ,2.4447 ,0.51864 ,5.15479 ,50.57876 
14 ,2.6207 ,0.52038 ,5.15479 ,50.57876 
15 ,2.7967 ,0.52217 ,5.14794 ,50.51161 
16 ,2.9729 ,0.52396 ,5.14452 ,50.47803 
17 ,3.1489 ,0.52564 ,5.10003 ,50.04151 
18 ,3.3250 ,0.52747 ,5.09319 ,49.97436 
19 ,3.5010 ,0.52917 ,5.07608 ,49.80646 
20 ,3.6772 ,0.53097 ,5.07265 ,49.77289 
21 ,3.8693 ,0.53285 ,5.03843 ,49.43710 
22 ,4.0612 ,0.53488 ,5.04185 ,49.47068 
23 ,4.2534 ,0.53666 ,5.02817 ,49.33637 
24 ,4.4292 ,0.53852 ,4.99052 ,48.96701 
25 ,4.6055 ,0.54021 ,4.98026 ,48.86627 
26 ,4.7814 ,0.54199 ,4.96315 ,48.69838 
27 ,4.9577 ,0.54376 ,4.94603 ,48.53049 
28 ,5.1496 ,0.54561 ,4.93919 ,48.46333 
29 ,5.3418 ,0.54757 ,4.92208 ,48.29544 
30 ,5.5339 ,0.54943 ,4.89812 ,48.06039 
31 ,5.7097 ,0.55126 ,4.89812 ,48.06039 
32 ,5.8863 ,0.55306 ,4.86048 ,47.69103 
33 ,6.0621 ,0.55485 ,4.84337 ,47.52314 
34 ,6.2540 ,0.55674 ,4.85021 ,47.59030 
35 ,6.4463 ,0.55852 ,4.82968 ,47.38883 
36 ,6.6381 ,0.56055 ,4.81257 ,47.22093 
37 ,6.8303 ,0.56249 ,4.79888 ,47.08662 
38 ,7.0064 ,0.56418 ,4.76124 ,46.71726 
39 ,7.1823 ,0.56598 ,4.75782 ,46.68368 
40 ,7.3581 ,0.56770 ,4.74413 ,46.54937 
41 ,7.5182 ,0.56951 ,4.74070 ,46.51579 
42 ,7.6944 ,0.57110 ,4.73044 ,46.41506 
43 ,7.8708 ,0.57291 ,4.69622 ,46.07927 
44 ,8.0630 ,0.57483 ,4.67911 ,45.91138 
45 ,8.2386 ,0.57654 ,4.66542 ,45.77707 
46 ,8.4311 ,0.57839 ,4.66542 ,45.77707 
47 ,8.6391 ,0.58049 ,4.65173 ,45.64275 
48 ,8.8152 ,0.58229 ,4.62777 ,45.40771 
49 ,9.0070 ,0.58419 ,4.60724 ,45.20624 
50 ,9.1832 ,0.58601 ,4.58671 ,45.00477 
51 ,9.3592 ,0.58772 ,4.56617 ,44.80330 
52 ,9.5191 ,0.58945 ,4.56275 ,44.76972 
53 ,9.6954 ,0.59114 ,4.56960 ,44.83688 
54 ,9.8876 ,0.59302 ,4.53195 ,44.46751 
55 ,10.0638 ,0.59476 ,4.52169 ,44.36678 
56 ,10.2718 ,0.59678 ,4.50800 ,44.23247 
57 ,10.4638 ,0.59881 ,4.47720 ,43.93026 
58 ,10.6398 ,0.60056 ,4.47720 ,43.93026 
59 ,10.8161 ,0.60232 ,4.45324 ,43.69521 
60 ,10.9920 ,0.60408 ,4.45324 ,43.69521 
61 ,11.1841 ,0.60601 ,4.42244 ,43.39301 
62 ,11.3764 ,0.60792 ,4.42244 ,43.39301 
63 ,11.5845 ,0.60997 ,4.40191 ,43.19154 
64 ,11.7765 ,0.61190 ,4.38822 ,43.05723 
65 ,11.9526 ,0.61366 ,4.37453 ,42.92291 
66 ,12.1445 ,0.61551 ,4.34031 ,42.58713 
67 ,12.3206 ,0.61735 ,4.32320 ,42.41924 
68 ,12.5123 ,0.61924 ,4.32320 ,42.41924 
69 ,12.6889 ,0.62105 ,4.31636 ,42.35208 
70 ,12.8647 ,0.62284 ,4.28898 ,42.08345 
71 ,13.0409 ,0.62456 ,4.26160 ,41.81483 
72 ,13.2331 ,0.62644 ,4.27529 ,41.94914 
73 ,13.4090 ,0.62824 ,4.25476 ,41.74767 
74 ,13.5850 ,0.63015 ,4.21711 ,41.37831 
75 ,13.7612 ,0.63178 ,4.21711 ,41.37831 
76 ,13.9531 ,0.63361 ,4.21369 ,41.34473 
77 ,14.1453 ,0.63560 ,4.19316 ,41.14326 
78 ,14.3054 ,0.63730 ,4.17262 ,40.94179 
79 ,14.4816 ,0.63896 ,4.14867 ,40.70674 
80 ,14.6575 ,0.64073 ,4.13840 ,40.60601 
81 ,14.8336 ,0.64243 ,4.13156 ,40.53885 
82 ,15.0096 ,0.64423 ,4.12129 ,40.43812 
83 ,15.1858 ,0.64613 ,4.09391 ,40.16949 
84 ,15.3618 ,0.64774 ,4.08707 ,40.10233 
85 ,15.5539 ,0.64960 ,4.07680 ,40.00160 
86 ,15.7299 ,0.65141 ,4.06312 ,39.86729 
87 ,15.9222 ,0.65338 ,4.03574 ,39.59866 
88 ,16.0982 ,0.65514 ,4.00494 ,39.29646 
89 ,16.2900 ,0.65702 ,4.01520 ,39.39719 
90 ,16.4663 ,0.65882 ,4.00152 ,39.26288 
91 ,16.6582 ,0.66067 ,3.97414 ,38.99425 
92 ,16.8505 ,0.66256 ,3.97072 ,38.96067 
93 ,17.0264 ,0.66453 ,3.95018 ,38.75920 
94 ,17.2026 ,0.66618 ,3.93992 ,38.65847 
95 ,17.3787 ,0.66793 ,3.92965 ,38.55773 
96 ,17.5548 ,0.66970 ,3.89543 ,38.22195 
97 ,17.7307 ,0.67145 ,3.90570 ,38.32268 
98 ,17.9229 ,0.67335 ,3.87147 ,37.98690 
99 ,18.0990 ,0.67515 ,3.85094 ,37.78543 
100 ,18.2910 ,0.67702 ,3.84410 ,37.71828 
101 ,18.4833 ,0.67894 ,3.84067 ,37.68470 
102 ,18.6912 ,0.68087 ,3.82356 ,37.51681 
103 ,18.8832 ,0.68295 ,3.81330 ,37.41607 
104 ,19.0594 ,0.68466 ,3.77908 ,37.08029 
105 ,19.2514 ,0.68668 ,3.77908 ,37.08029 
106 ,19.4436 ,0.68843 ,3.76196 ,36.91240 
107 ,19.6195 ,0.69030 ,3.74143 ,36.71093 
108 ,19.7957 ,0.69211 ,3.72432 ,36.54303 
109 ,19.9879 ,0.69400 ,3.71748 ,36.47588 
110 ,20.1797 ,0.69591 ,3.71063 ,36.40872 
111 ,20.3558 ,0.69767 ,3.67641 ,36.07294 
112 ,20.5479 ,0.69955 ,3.68668 ,36.17367 
113 ,20.7241 ,0.70136 ,3.65588 ,35.87147 
114 ,20.9320 ,0.70337 ,3.62850 ,35.60284 
115 ,21.1083 ,0.70521 ,3.61481 ,35.46853 
116 ,21.2843 ,0.70702 ,3.60797 ,35.40137 
117 ,21.4603 ,0.70872 ,3.61139 ,35.43495 
118 ,21.6682 ,0.71068 ,3.58401 ,35.16632 
119 ,21.8444 ,0.71253 ,3.58401 ,35.16632 
120 ,22.0202 ,0.71430 ,3.56006 ,34.93128 
121 ,22.1961 ,0.71611 ,3.53610 ,34.69623 
122 ,22.3727 ,0.71785 ,3.51215 ,34.46118 
123 ,22.5489 ,0.71960 ,3.51557 ,34.49476 
124 ,22.7408 ,0.72146 ,3.49846 ,34.32687 
125 ,22.9170 ,0.72324 ,3.46766 ,34.02466 
126 ,23.1085 ,0.72519 ,3.47108 ,34.05824 
127 ,23.2851 ,0.72693 ,3.46081 ,33.95751 
128 ,23.4610 ,0.72878 ,3.44370 ,33.78961 
129 ,23.6532 ,0.73060 ,3.41290 ,33.48741 
130 ,23.8294 ,0.73242 ,3.40264 ,33.38667 
131 ,24.0215 ,0.73435 ,3.40264 ,33.38667 
132 ,24.2295 ,0.73627 ,3.39237 ,33.28594 
133 ,24.4056 ,0.73816 ,3.35815 ,32.95016 
134 ,24.6294 ,0.74026 ,3.35130 ,32.88300 
135 ,24.8056 ,0.74216 ,3.34104 ,32.78227 
136 ,24.9816 ,0.74394 ,3.32735 ,32.64795 
137 ,25.1738 ,0.74570 ,3.31708 ,32.54722 
138 ,25.3659 ,0.74773 ,3.28971 ,32.27859 
139 ,25.5579 ,0.74969 ,3.27602 ,32.14428 
140 ,25.7660 ,0.75165 ,3.27259 ,32.11070 
141 ,25.9418 ,0.75350 ,3.25891 ,31.97639 
142 ,26.1182 ,0.75529 ,3.24522 ,31.84207 
143 ,26.2779 ,0.75701 ,3.21442 ,31.53987 
144 ,26.4544 ,0.75864 ,3.19046 ,31.30482 
145 ,26.6464 ,0.76058 ,3.18362 ,31.23766 
146 ,26.8224 ,0.76236 ,3.19731 ,31.37198 
147 ,26.9983 ,0.76407 ,3.18020 ,31.20409 
148 ,27.1745 ,0.76586 ,3.14597 ,30.86830 
149 ,27.3504 ,0.76762 ,3.13913 ,30.80115 
150 ,27.5425 ,0.76947 ,3.13913 ,30.80115 
151 ,27.7189 ,0.77127 ,3.12202 ,30.63325 
152 ,27.9108 ,0.77319 ,3.09464 ,30.36463 
153 ,28.0872 ,0.77492 ,3.07753 ,30.19674 
154 ,28.2790 ,0.77682 ,3.06384 ,30.06242 
155 ,28.4551 ,0.77866 ,3.05015 ,29.92811 
156 ,28.6310 ,0.78038 ,3.02278 ,29.65948 
157 ,28.8233 ,0.78236 ,3.02620 ,29.69306 
158 ,28.9992 ,0.78405 ,3.02278 ,29.65948 
159 ,29.1912 ,0.78603 ,2.98855 ,29.32370 
160 ,29.3674 ,0.78777 ,2.98171 ,29.25654 
161 ,29.5595 ,0.78957 ,2.98855 ,29.32370 
162 ,29.7515 ,0.79154 ,2.94407 ,28.88718 
163 ,29.9437 ,0.79339 ,2.93722 ,28.82003 
164 ,30.1197 ,0.79529 ,2.93722 ,28.82003 
165 ,30.2959 ,0.79705 ,2.90985 ,28.55140 
166 ,30.4720 ,0.79887 ,2.90642 ,28.51782 
167 ,30.6480 ,0.80062 ,2.88931 ,28.34993 
168 ,30.8400 ,0.80241 ,2.88589 ,28.31635 
169 ,31.0162 ,0.80425 ,2.87562 ,28.21562 
170 ,31.1920 ,0.80603 ,2.85167 ,27.98057 
171 ,31.3845 ,0.80789 ,2.82771 ,27.74552 
172 ,31.5603 ,0.80970 ,2.81745 ,27.64479 
173 ,31.7525 ,0.81152 ,2.80034 ,27.47689 
174 ,31.9285 ,0.81336 ,2.77638 ,27.24185 
175 ,32.1042 ,0.81512 ,2.77296 ,27.20827 
176 ,32.2967 ,0.81695 ,2.76954 ,27.17469 
177 ,32.4727 ,0.81881 ,2.74900 ,26.97322 
178 ,32.6645 ,0.82075 ,2.73531 ,26.83891 
179 ,32.8410 ,0.82254 ,2.70794 ,26.57028 
180 ,33.0331 ,0.82429 ,2.72163 ,26.70459 
181 ,33.2251 ,0.82636 ,2.67714 ,26.26807 
182 ,33.4012 ,0.82810 ,2.68056 ,26.30165 
183 ,33.5770 ,0.82984 ,2.67714 ,26.26807 
184 ,33.7693 ,0.83171 ,2.64976 ,25.99945 
185 ,33.9454 ,0.83352 ,2.63949 ,25.89871 
186 ,34.1215 ,0.83533 ,2.62581 ,25.76440 
187 ,34.3136 ,0.83718 ,2.61212 ,25.63009 
188 ,34.4896 ,0.83895 ,2.59158 ,25.42862 
189 ,34.6658 ,0.84072 ,2.57105 ,25.22715 
190 ,34.8574 ,0.84257 ,2.57105 ,25.22715 
191 ,35.0334 ,0.84441 ,2.57105 ,25.22715 
192 ,35.2094 ,0.84615 ,2.54025 ,24.92494 
193 ,35.3855 ,0.84793 ,2.51630 ,24.68989 
194 ,35.5456 ,0.84967 ,2.50945 ,24.62274 
195 ,35.7220 ,0.85134 ,2.49234 ,24.45485 
196 ,35.9141 ,0.85321 ,2.49576 ,24.48842 
197 ,36.0901 ,0.85490 ,2.47865 ,24.32053 
198 ,36.2663 ,0.85671 ,2.45812 ,24.11906 
199 ,36.4424 ,0.85847 ,2.44785 ,24.01833 
200 ,36.6344 ,0.86041 ,2.45127 ,24.05191 
201 ,36.8105 ,0.86213 ,2.41705 ,23.71612 
202 ,36.9863 ,0.86392 ,2.40679 ,23.61539 
203 ,37.1628 ,0.86564 ,2.37599 ,23.31318 
204 ,37.3706 ,0.86761 ,2.35888 ,23.14529 
205 ,37.5469 ,0.86952 ,2.35545 ,23.11171 
206 ,37.7229 ,0.87134 ,2.35203 ,23.07814 
207 ,37.8988 ,0.87306 ,2.33150 ,22.87667 
208 ,38.0910 ,0.87490 ,2.32808 ,22.84309 
209 ,38.2829 ,0.87682 ,2.30412 ,22.60804 
210 ,38.4753 ,0.87879 ,2.30070 ,22.57446 
211 ,38.6512 ,0.88061 ,2.29385 ,22.50731 
212 ,38.8274 ,0.88233 ,2.25621 ,22.13794 
213 ,39.0190 ,0.88420 ,2.24594 ,22.03721 
214 ,39.1952 ,0.88603 ,2.24252 ,22.00363 
215 ,39.3877 ,0.88794 ,2.23226 ,21.90290 
216 ,39.5955 ,0.88997 ,2.21172 ,21.70143 
217 ,39.8035 ,0.89200 ,2.20146 ,21.60069 
218 ,39.9796 ,0.89383 ,2.17066 ,21.29849 
219 ,40.1557 ,0.89558 ,2.17750 ,21.36564 
220 ,40.3319 ,0.89739 ,2.17066 ,21.29849 
221 ,40.5080 ,0.89915 ,2.15697 ,21.16417 
222 ,40.7000 ,0.90103 ,2.12959 ,20.89555 
223 ,40.8922 ,0.90300 ,2.12617 ,20.86197 
224 ,41.0843 ,0.90481 ,2.10906 ,20.69408 
225 ,41.3079 ,0.90702 ,2.09879 ,20.59334 
226 ,41.5004 ,0.90895 ,2.06115 ,20.22398 
227 ,41.7244 ,0.91110 ,2.05773 ,20.19040 
228 ,41.9326 ,0.91325 ,2.05088 ,20.12325 
229 ,42.1246 ,0.91529 ,2.00639 ,19.68673 
230 ,42.2846 ,0.91702 ,1.99613 ,19.58599 
231 ,42.4608 ,0.91864 ,1.98928 ,19.51884 
232 ,42.6369 ,0.92043 ,1.98586 ,19.48526 
233 ,42.8290 ,0.92234 ,1.98586 ,19.48526 
234 ,43.0051 ,0.92408 ,1.96190 ,19.25021 
235 ,43.2131 ,0.92603 ,1.95164 ,19.14948 
236 ,43.4052 ,0.92803 ,1.93453 ,18.98158 
237 ,43.5972 ,0.93001 ,1.91057 ,18.74654 
238 ,43.7570 ,0.93173 ,1.91057 ,18.74654 
239 ,43.9335 ,0.93333 ,1.90031 ,18.64580 
240 ,44.1093 ,0.93515 ,1.89004 ,18.54507 
241 ,44.2883 ,0.93690 ,1.87293 ,18.37717 
242 ,44.4776 ,0.93883 ,1.84213 ,18.07497 
243 ,44.6538 ,0.94059 ,1.84213 ,18.07497 
244 ,44.8456 ,0.94244 ,1.81475 ,17.80634 
245 ,45.0379 ,0.94439 ,1.81133 ,17.77276 
246 ,45.2296 ,0.94626 ,1.79422 ,17.60487 
247 ,45.4058 ,0.94810 ,1.80106 ,17.67203 
248 ,45.5979 ,0.94999 ,1.76684 ,17.33625 
249 ,45.7899 ,0.95192 ,1.77711 ,17.43698 
250 ,45.9662 ,0.95368 ,1.74631 ,17.13478 
251 ,46.1583 ,0.95563 ,1.72235 ,16.89973 
252 ,46.3344 ,0.95740 ,1.71209 ,16.79899 
253 ,46.5101 ,0.95907 ,1.71893 ,16.86615 
254 ,46.6867 ,0.96089 ,1.69498 ,16.63110 
255 ,46.8786 ,0.96285 ,1.66760 ,16.36248 
256 ,47.0548 ,0.96454 ,1.67444 ,16.42963 
257 ,47.2468 ,0.96648 ,1.67444 ,16.42963 
258 ,47.4710 ,0.96866 ,1.65391 ,16.22816 
259 ,47.6469 ,0.97048 ,1.64364 ,16.12743 
260 ,47.8389 ,0.97242 ,1.60600 ,15.75807 
261 ,48.0150 ,0.97411 ,1.59573 ,15.65733 
262 ,48.1912 ,0.97591 ,1.59916 ,15.69091 
263 ,48.3832 ,0.97779 ,1.57178 ,15.42228 
264 ,48.5592 ,0.97959 ,1.56151 ,15.32155 
265 ,48.7354 ,0.98136 ,1.53756 ,15.08650 
266 ,48.9434 ,0.98331 ,1.54782 ,15.18724 
267 ,49.1195 ,0.98521 ,1.52387 ,14.95219 
268 ,49.2956 ,0.98698 ,1.51702 ,14.88503 
269 ,49.4714 ,0.98869 ,1.49991 ,14.71714 
270 ,49.6634 ,0.99054 ,1.50333 ,14.75072 
271 ,49.8398 ,0.99241 ,1.46911 ,14.41493 
272 ,50.0479 ,0.99442 ,1.45885 ,14.31420 
273 ,50.2239 ,0.99624 ,1.45200 ,14.24704 
274 ,50.3841 ,0.99796 ,1.44516 ,14.17989 
275 ,50.5761 ,0.99974 ,1.41436 ,13.87768 
276 ,50.7518 ,1.00155 ,1.40409 ,13.77695 
277 ,50.9282 ,1.00328 ,1.40067 ,13.74337 
278 ,51.1203 ,1.00522 ,1.39040 ,13.64263 
279 ,51.2963 ,1.00695 ,1.36303 ,13.37401 
280 ,51.4724 ,1.00867 ,1.35960 ,13.34043 
281 ,51.6485 ,1.01051 ,1.36303 ,13.37401 
282 ,51.8401 ,1.01239 ,1.32196 ,12.97107 
283 ,52.0167 ,1.01412 ,1.31854 ,12.93749 
284 ,52.2088 ,1.01611 ,1.31169 ,12.87033 
285 ,52.4328 ,1.01807 ,1.28774 ,12.63528 
286 ,52.6090 ,1.02009 ,1.29800 ,12.73602 
287 ,52.7852 ,1.02186 ,1.28432 ,12.60171 
288 ,52.9610 ,1.02374 ,1.26378 ,12.40024 
289 ,53.1372 ,1.02535 ,1.24667 ,12.23235 
290 ,53.3290 ,1.02715 ,1.22272 ,11.99730 
291 ,53.5054 ,1.02905 ,1.21587 ,11.93014 
292 ,53.6972 ,1.03090 ,1.20218 ,11.79583 
293 ,53.8894 ,1.03285 ,1.20218 ,11.79583 
294 ,54.0817 ,1.03486 ,1.19534 ,11.72867 
295 ,54.2738 ,1.03672 ,1.15770 ,11.35931 
296 ,54.4658 ,1.03860 ,1.16454 ,11.42647 
297 ,54.6578 ,1.04062 ,1.12005 ,10.98995 
298 ,54.8340 ,1.04233 ,1.13032 ,11.09068 
299 ,55.0256 ,1.04424 ,1.12347 ,11.02353 
300 ,55.2021 ,1.04600 ,1.11663 ,10.95637 
301 ,55.3785 ,1.04781 ,1.10294 ,10.82206 
302 ,55.5543 ,1.04954 ,1.07214 ,10.51985 
303 ,55.7302 ,1.05129 ,1.06187 ,10.41912 
304 ,55.9064 ,1.05306 ,1.06187 ,10.41912 
305 ,56.0981 ,1.05494 ,1.04819 ,10.28480 
306 ,56.2746 ,1.05673 ,1.01396 ,9.94902 
307 ,56.4827 ,1.05880 ,1.03792 ,10.18407 
308 ,56.6588 ,1.06058 ,1.01054 ,9.91544 
309 ,56.8508 ,1.06241 ,0.99685 ,9.78113 
310 ,57.0588 ,1.06447 ,0.97974 ,9.61324 
311 ,57.2350 ,1.06630 ,0.97632 ,9.57966 
312 ,57.4107 ,1.06814 ,0.94894 ,9.31103 
313 ,57.5869 ,1.06986 ,0.94552 ,9.27745 
314 ,57.7632 ,1.07162 ,0.93868 ,9.21030 
315 ,57.9393 ,1.07336 ,0.92499 ,9.07598 
316 ,58.1313 ,1.07522 ,0.90103 ,8.84094 
317 ,58.3074 ,1.07705 ,0.89761 ,8.80736 
318 ,58.4992 ,1.07896 ,0.89077 ,8.74020 
319 ,58.6755 ,1.08073 ,0.88050 ,8.63947 
320 ,58.8516 ,1.08248 ,0.85654 ,8.40442 
321 ,59.0278 ,1.08428 ,0.84970 ,8.33726 
322 ,59.2354 ,1.08629 ,0.84628 ,8.30368 
323 ,59.4118 ,1.08807 ,0.83601 ,8.20295 
324 ,59.6040 ,1.08997 ,0.82917 ,8.13579 
325 ,59.7797 ,1.09181 ,0.81206 ,7.96790 
326 ,59.9560 ,1.09352 ,0.80521 ,7.90074 
327 ,60.1321 ,1.09525 ,0.78126 ,7.66570 
328 ,60.3079 ,1.09701 ,0.77099 ,7.56496 
329 ,60.4844 ,1.09887 ,0.76072 ,7.46423 
330 ,60.6762 ,1.10078 ,0.75046 ,7.36349 
331 ,60.8525 ,1.10252 ,0.73335 ,7.19560 
332 ,61.0284 ,1.10423 ,0.72308 ,7.09486 
333 ,61.2046 ,1.10607 ,0.71966 ,7.06129 
334 ,61.3963 ,1.10790 ,0.70939 ,6.96055 
335 ,61.5727 ,1.10965 ,0.69570 ,6.82624 
336 ,61.7487 ,1.11144 ,0.67517 ,6.62477 
337 ,61.9250 ,1.11322 ,0.67175 ,6.59119 
338 ,62.1171 ,1.11513 ,0.67517 ,6.62477 
339 ,62.3092 ,1.11698 ,0.65121 ,6.38972 
340 ,62.5172 ,1.11908 ,0.64095 ,6.28899 
341 ,62.6932 ,1.12086 ,0.61357 ,6.02036 
342 ,62.8854 ,1.12273 ,0.60330 ,5.91962 
343 ,63.0775 ,1.12472 ,0.62384 ,6.12109 
344 ,63.2535 ,1.12653 ,0.59988 ,5.88605 
345 ,63.4293 ,1.12825 ,0.57251 ,5.61742 
346 ,63.6057 ,1.12998 ,0.55197 ,5.41595 
347 ,63.7976 ,1.13195 ,0.57251 ,5.61742 
348 ,63.9739 ,1.13375 ,0.55539 ,5.44953 
349 ,64.1657 ,1.13555 ,0.54171 ,5.31522 
350 ,64.3419 ,1.13739 ,0.52117 ,5.11375 
351 ,64.5179 ,1.13915 ,0.52459 ,5.14732 
352 ,64.6941 ,1.14090 ,0.51433 ,5.04659 
353 ,64.9181 ,1.14299 ,0.51091 ,5.01301 
354 ,65.0943 ,1.14494 ,0.49722 ,4.87870 
355 ,65.3023 ,1.14691 ,0.45273 ,4.44218 
356 ,65.5264 ,1.14922 ,0.44588 ,4.37502 
357 ,65.7023 ,1.15097 ,0.43562 ,4.27429 
358 ,65.8945 ,1.15284 ,0.44588 ,4.37502 
359 ,66.0705 ,1.15466 ,0.43562 ,4.27429 
360 ,66.2788 ,1.15670 ,0.41851 ,4.10640 
361 ,66.4868 ,1.15876 ,0.39113 ,3.83777 
362 ,66.6626 ,1.16058 ,0.38429 ,3.77061 
363 ,66.8549 ,1.16240 ,0.37060 ,3.63630 
364 ,67.0310 ,1.16425 ,0.37060 ,3.63630 
365 ,67.2389 ,1.16626 ,0.37744 ,3.70346 
366 ,67.4153 ,1.16809 ,0.35006 ,3.43483 
367 ,67.5915 ,1.16991 ,0.33638 ,3.30052 
368 ,67.7990 ,1.17186 ,0.34322 ,3.36767 
369 ,67.9750 ,1.17371 ,0.33295 ,3.26694 
370 ,68.1350 ,1.17539 ,0.30215 ,2.96473 
371 ,68.3275 ,1.17712 ,0.28504 ,2.79684 
372 ,68.5518 ,1.17944 ,0.26793 ,2.62895 
373 ,68.7437 ,1.18139 ,0.26451 ,2.59537 
374 ,68.9196 ,1.18307 ,0.26109 ,2.56179 
375 ,69.0955 ,1.18499 ,0.26451 ,2.59537 
376 ,69.2555 ,1.18661 ,0.24740 ,2.42748 
377 ,69.4157 ,1.18819 ,0.24398 ,2.39390 
378 ,69.5919 ,1.18985 ,0.23713 ,2.32675 
379 ,69.7682 ,1.19161 ,0.21318 ,2.09170 
380 ,69.9600 ,1.19345 ,0.19949 ,1.95738 
381 ,70.1522 ,1.19540 ,0.18922 ,1.85665 
382 ,70.3283 ,1.19724 ,0.17896 ,1.75592 
383 ,70.5203 ,1.19916 ,0.15500 ,1.52087 
384 ,70.6962 ,1.20089 ,0.16185 ,1.58802 
385 ,70.8725 ,1.20263 ,0.15500 ,1.52087 
386 ,71.0646 ,1.20447 ,0.14131 ,1.38655 
387 ,71.2727 ,1.20659 ,0.13789 ,1.35298 
388 ,71.4487 ,1.20840 ,0.11051 ,1.08435 
389 ,71.6407 ,1.21030 ,0.10709 ,1.05077 
390 ,71.8169 ,1.21205 ,0.09682 ,0.95004 
391 ,71.9927 ,1.21384 ,0.09340 ,0.91646 
392 ,72.1691 ,1.21559 ,0.09340 ,0.91646 
393 ,72.3452 ,1.21739 ,0.07287 ,0.71499 
394 ,72.5533 ,1.21938 ,0.06260 ,0.61425 
395 ,72.7293 ,1.22126 ,0.05918 ,0.58067 
396 ,72.9375 ,1.22318 ,0.03522 ,0.34563 
397 ,73.1134 ,1.22506 ,0.03180 ,0.31205 
398 ,73.2895 ,1.22680 ,0.02154 ,0.21131 
399 ,73.4817 ,1.22868 ,0.00785 ,0.07700 
400 ,73.6737 ,1.23064 ,0.00785 ,0.07700 
401 ,73.8658 ,1.23242 ,-0.00926 ,-0.09089 
402 ,74.0578 ,1.23449 ,-0.01611 ,-0.15805 
403 ,74.2340 ,1.23623 ,-0.02295 ,-0.22520 
404 ,74.4099 ,1.23798 ,-0.04006 ,-0.39310 
405 ,74.5861 ,1.23977 ,-0.04691 ,-0.46025 
406 ,74.7622 ,1.24155 ,-0.07086 ,-0.69530 
407 ,74.9700 ,1.24353 ,-0.07086 ,-0.69530 
408 ,75.1460 ,1.24538 ,-0.07086 ,-0.69530 
409 ,75.3221 ,1.24719 ,-0.09824 ,-0.96393 
410 ,75.5144 ,1.24908 ,-0.09824 ,-0.96393 
411 ,75.6905 ,1.25080 ,-0.09824 ,-0.96393 
412 ,75.8827 ,1.25265 ,-0.10851 ,-1.06466 
413 ,76.0586 ,1.25449 ,-0.13588 ,-1.33329 
414 ,76.2346 ,1.25627 ,-0.12904 ,-1.26613 
415 ,76.4269 ,1.25816 ,-0.13246 ,-1.29971 
416 ,76.6350 ,1.26017 ,-0.14957 ,-1.46760 
417 ,76.8109 ,1.26204 ,-0.17011 ,-1.66907 
418 ,77.0031 ,1.26391 ,-0.18722 ,-1.83696 
419 ,77.1952 ,1.26583 ,-0.19064 ,-1.87054 
420 ,77.3712 ,1.26764 ,-0.20090 ,-1.97128 
421 ,77.5472 ,1.26934 ,-0.20090 ,-1.97128 
422 ,77.7233 ,1.27116 ,-0.20775 ,-2.03843 
423 ,77.8989 ,1.27287 ,-0.22486 ,-2.20632 
424 ,78.0755 ,1.27468 ,-0.24197 ,-2.37422 
425 ,78.2675 ,1.27656 ,-0.22828 ,-2.23990 
426 ,78.4436 ,1.27831 ,-0.24539 ,-2.40779 
427 ,78.6197 ,1.28005 ,-0.27619 ,-2.71000 
428 ,78.7955 ,1.28186 ,-0.27619 ,-2.71000 
429 ,78.9719 ,1.28361 ,-0.26935 ,-2.64284 
430 ,79.1798 ,1.28556 ,-0.29330 ,-2.87789 
431 ,79.3559 ,1.28743 ,-0.29673 ,-2.91147 
432 ,79.5319 ,1.28916 ,-0.31041 ,-3.04578 
433 ,79.7080 ,1.29100 ,-0.30699 ,-3.01220 
434 ,79.9000 ,1.29276 ,-0.30357 ,-2.97863 
435 ,80.0763 ,1.29466 ,-0.33095 ,-3.24725 
436 ,80.2683 ,1.29654 ,-0.33095 ,-3.24725 
437 ,80.6685 ,1.29945 ,-0.34464 ,-3.38156 
438 ,80.8765 ,1.30263 ,-0.37544 ,-3.68377 
439 ,81.0526 ,1.30438 ,-0.38228 ,-3.75093 
440 ,81.2290 ,1.30617 ,-0.38912 ,-3.81808 
441 ,81.4047 ,1.30795 ,-0.39597 ,-3.88524 
442 ,81.5805 ,1.30970 ,-0.40623 ,-3.98597 
443 ,81.7569 ,1.31149 ,-0.41992 ,-4.12029 
444 ,81.9489 ,1.31336 ,-0.41308 ,-4.05313 
445 ,82.1251 ,1.31517 ,-0.43361 ,-4.25460 
446 ,82.3172 ,1.31697 ,-0.45757 ,-4.48965 
447 ,82.4932 ,1.31885 ,-0.44730 ,-4.38891 
448 ,82.6853 ,1.32072 ,-0.45414 ,-4.45607 
449 ,82.8613 ,1.32246 ,-0.47126 ,-4.62396 
450 ,83.0373 ,1.32422 ,-0.48837 ,-4.79185 
451 ,83.2294 ,1.32617 ,-0.47126 ,-4.62396 
452 ,83.4055 ,1.32791 ,-0.48152 ,-4.72470 
453 ,83.5816 ,1.32968 ,-0.49521 ,-4.85901 
454 ,83.7577 ,1.33143 ,-0.51574 ,-5.06048 
455 ,83.9337 ,1.33321 ,-0.52943 ,-5.19479 
456 ,84.1098 ,1.33493 ,-0.51574 ,-5.06048 
457 ,84.2859 ,1.33672 ,-0.52601 ,-5.16121 
458 ,84.4621 ,1.33855 ,-0.53628 ,-5.26195 
459 ,84.6380 ,1.34025 ,-0.55339 ,-5.42984 
460 ,84.7978 ,1.34193 ,-0.57050 ,-5.59773 
461 ,84.9740 ,1.34363 ,-0.57050 ,-5.59773 
462 ,85.1502 ,1.34537 ,-0.58419 ,-5.73205 
463 ,85.3264 ,1.34710 ,-0.58077 ,-5.69847 
464 ,85.5025 ,1.34892 ,-0.57734 ,-5.66489 
