Data stamp = , 07-04-2022 13:14:56 297

Calibration Values: 
Slope = , 26.54 , g/V 
Offset Voltage at no contact = , -0.501760 , V 

No , Time , Stage Position ,   Mass , Force 
   ,  (s) ,      (mm)      ,   (g)  , (mN)  

1 ,0.0000 ,0.49936 ,5.20954 ,51.11602 
2 ,0.2019 ,0.49943 ,5.20270 ,51.04886 
3 ,0.5223 ,0.50022 ,5.17874 ,50.81381 
4 ,0.7304 ,0.50172 ,5.17532 ,50.78023 
5 ,0.9386 ,0.50344 ,5.19243 ,50.94813 
6 ,1.1306 ,0.50542 ,5.18901 ,50.91455 
7 ,1.3069 ,0.50708 ,5.20954 ,51.11602 
8 ,1.4988 ,0.50908 ,5.18559 ,50.88097 
9 ,1.6747 ,0.51084 ,5.18559 ,50.88097 
10 ,1.8508 ,0.51268 ,5.17532 ,50.78023 
11 ,2.0431 ,0.51462 ,5.17874 ,50.81381 
12 ,2.2350 ,0.51646 ,5.16163 ,50.64592 
13 ,2.4112 ,0.51826 ,5.14794 ,50.51161 
14 ,2.6193 ,0.52013 ,5.12741 ,50.31014 
15 ,2.8112 ,0.52221 ,5.11714 ,50.20940 
16 ,2.9875 ,0.52401 ,5.13083 ,50.34372 
17 ,3.1635 ,0.52578 ,5.11372 ,50.17583 
18 ,3.3397 ,0.52762 ,5.07608 ,49.80646 
19 ,3.5313 ,0.52937 ,5.08634 ,49.90720 
20 ,3.7074 ,0.53129 ,5.05554 ,49.60499 
21 ,3.8834 ,0.53296 ,5.05554 ,49.60499 
22 ,4.0596 ,0.53470 ,5.02817 ,49.33637 
23 ,4.2198 ,0.53645 ,4.99737 ,49.03416 
24 ,4.3959 ,0.53804 ,4.98368 ,48.89985 
25 ,4.6041 ,0.54008 ,4.98368 ,48.89985 
26 ,4.7963 ,0.54212 ,4.95288 ,48.59764 
27 ,4.9882 ,0.54392 ,4.94946 ,48.56407 
28 ,5.1644 ,0.54572 ,4.93577 ,48.42975 
29 ,5.3565 ,0.54775 ,4.89812 ,48.06039 
30 ,5.5486 ,0.54951 ,4.90839 ,48.16113 
31 ,5.7246 ,0.55138 ,4.88101 ,47.89250 
32 ,5.9167 ,0.55324 ,4.86390 ,47.72461 
33 ,6.0928 ,0.55504 ,4.83995 ,47.48956 
34 ,6.2846 ,0.55698 ,4.84679 ,47.55672 
35 ,6.4610 ,0.55872 ,4.81257 ,47.22093 
36 ,6.6527 ,0.56063 ,4.79204 ,47.01946 
37 ,6.8292 ,0.56243 ,4.79546 ,47.05304 
38 ,7.0208 ,0.56432 ,4.75782 ,46.68368 
39 ,7.2130 ,0.56625 ,4.74413 ,46.54937 
40 ,7.4057 ,0.56816 ,4.74070 ,46.51579 
41 ,7.5975 ,0.57011 ,4.71675 ,46.28074 
42 ,7.7894 ,0.57192 ,4.70306 ,46.14643 
43 ,7.9815 ,0.57391 ,4.68253 ,45.94496 
44 ,8.1575 ,0.57568 ,4.66199 ,45.74349 
45 ,8.3336 ,0.57741 ,4.66199 ,45.74349 
46 ,8.5254 ,0.57938 ,4.65857 ,45.70991 
47 ,8.7020 ,0.58114 ,4.62435 ,45.37413 
48 ,8.8936 ,0.58310 ,4.61408 ,45.27339 
49 ,9.0700 ,0.58482 ,4.60382 ,45.17266 
50 ,9.2457 ,0.58659 ,4.59697 ,45.10550 
51 ,9.4381 ,0.58843 ,4.56275 ,44.76972 
52 ,9.6142 ,0.59022 ,4.55249 ,44.66898 
53 ,9.8223 ,0.59216 ,4.52511 ,44.40036 
54 ,10.0144 ,0.59427 ,4.51826 ,44.33320 
55 ,10.1901 ,0.59599 ,4.50800 ,44.23247 
56 ,10.3665 ,0.59782 ,4.49773 ,44.13173 
57 ,10.5585 ,0.59967 ,4.46009 ,43.76237 
58 ,10.7346 ,0.60143 ,4.44640 ,43.62806 
59 ,10.9267 ,0.60334 ,4.44640 ,43.62806 
60 ,11.1348 ,0.60541 ,4.42244 ,43.39301 
61 ,11.3110 ,0.60725 ,4.40875 ,43.25870 
62 ,11.5350 ,0.60932 ,4.39164 ,43.09080 
63 ,11.7109 ,0.61121 ,4.37795 ,42.95649 
64 ,11.8871 ,0.61298 ,4.37453 ,42.92291 
65 ,12.0631 ,0.61471 ,4.34716 ,42.65429 
66 ,12.2708 ,0.61659 ,4.33004 ,42.48639 
67 ,12.4634 ,0.61867 ,4.32320 ,42.41924 
68 ,12.6554 ,0.62066 ,4.29240 ,42.11703 
69 ,12.8473 ,0.62258 ,4.29924 ,42.18419 
70 ,13.0233 ,0.62427 ,4.27187 ,41.91556 
71 ,13.1997 ,0.62609 ,4.24449 ,41.64694 
72 ,13.3913 ,0.62793 ,4.24791 ,41.68051 
73 ,13.5677 ,0.62978 ,4.22738 ,41.47905 
74 ,13.7598 ,0.63169 ,4.20342 ,41.24400 
75 ,13.9194 ,0.63340 ,4.18631 ,41.07611 
76 ,14.0799 ,0.63503 ,4.16920 ,40.90821 
77 ,14.2720 ,0.63678 ,4.16236 ,40.84106 
78 ,14.4318 ,0.63851 ,4.15894 ,40.80748 
79 ,14.6081 ,0.64020 ,4.13156 ,40.53885 
80 ,14.8002 ,0.64207 ,4.10076 ,40.23665 
81 ,14.9764 ,0.64382 ,4.09391 ,40.16949 
82 ,15.1686 ,0.64571 ,4.09734 ,40.20307 
83 ,15.3445 ,0.64752 ,4.07338 ,39.96802 
84 ,15.5202 ,0.64940 ,4.03916 ,39.63224 
85 ,15.6969 ,0.65109 ,4.03574 ,39.59866 
86 ,15.8887 ,0.65303 ,4.03232 ,39.56508 
87 ,16.0647 ,0.65472 ,4.02205 ,39.46435 
88 ,16.2406 ,0.65648 ,3.98441 ,39.09499 
89 ,16.4170 ,0.65822 ,3.96387 ,38.89352 
90 ,16.6089 ,0.66013 ,3.97072 ,38.96067 
91 ,16.8011 ,0.66201 ,3.96387 ,38.89352 
92 ,16.9931 ,0.66402 ,3.92965 ,38.55773 
93 ,17.2171 ,0.66607 ,3.91938 ,38.45700 
94 ,17.4099 ,0.66806 ,3.90227 ,38.28911 
95 ,17.5854 ,0.66992 ,3.89885 ,38.25553 
96 ,17.7772 ,0.67177 ,3.86463 ,37.91975 
97 ,17.9696 ,0.67373 ,3.85779 ,37.85259 
98 ,18.1457 ,0.67552 ,3.84067 ,37.68470 
99 ,18.3216 ,0.67727 ,3.82014 ,37.48323 
100 ,18.5137 ,0.67916 ,3.82014 ,37.48323 
101 ,18.6896 ,0.68103 ,3.78592 ,37.14744 
102 ,18.8660 ,0.68273 ,3.79619 ,37.24818 
103 ,19.0738 ,0.68473 ,3.77565 ,37.04671 
104 ,19.2502 ,0.68658 ,3.75512 ,36.84524 
105 ,19.4263 ,0.68836 ,3.74485 ,36.74450 
106 ,19.6343 ,0.69025 ,3.73117 ,36.61019 
107 ,19.8103 ,0.69231 ,3.71405 ,36.44230 
108 ,19.9704 ,0.69387 ,3.67983 ,36.10652 
109 ,20.1624 ,0.69565 ,3.67641 ,36.07294 
110 ,20.3546 ,0.69759 ,3.64219 ,35.73716 
111 ,20.5307 ,0.69936 ,3.65588 ,35.87147 
112 ,20.7067 ,0.70113 ,3.63192 ,35.63642 
113 ,20.8828 ,0.70286 ,3.61823 ,35.50211 
114 ,21.0589 ,0.70467 ,3.58743 ,35.19990 
115 ,21.2350 ,0.70638 ,3.60112 ,35.33422 
116 ,21.4117 ,0.70821 ,3.58743 ,35.19990 
117 ,21.5871 ,0.70992 ,3.58059 ,35.13275 
118 ,21.7793 ,0.71172 ,3.54637 ,34.79696 
119 ,21.9714 ,0.71378 ,3.54637 ,34.79696 
120 ,22.1634 ,0.71562 ,3.51899 ,34.52834 
121 ,22.3394 ,0.71758 ,3.49161 ,34.25971 
122 ,22.5155 ,0.71917 ,3.49846 ,34.32687 
123 ,22.6917 ,0.72097 ,3.48477 ,34.19255 
124 ,22.8998 ,0.72296 ,3.45055 ,33.85677 
125 ,23.0755 ,0.72483 ,3.42659 ,33.62172 
126 ,23.2515 ,0.72666 ,3.43344 ,33.68888 
127 ,23.4279 ,0.72836 ,3.41975 ,33.55457 
128 ,23.6197 ,0.73015 ,3.39921 ,33.35310 
129 ,23.8119 ,0.73216 ,3.38553 ,33.21878 
130 ,23.9878 ,0.73397 ,3.36842 ,33.05089 
131 ,24.1642 ,0.73572 ,3.36499 ,33.01731 
132 ,24.3723 ,0.73776 ,3.34446 ,32.81584 
133 ,24.5643 ,0.73968 ,3.32393 ,32.61437 
134 ,24.7404 ,0.74143 ,3.30682 ,32.44648 
135 ,24.9324 ,0.74328 ,3.29997 ,32.37933 
136 ,25.1086 ,0.74513 ,3.29655 ,32.34575 
137 ,25.2845 ,0.74685 ,3.26233 ,32.00996 
138 ,25.4605 ,0.74864 ,3.25206 ,31.90923 
139 ,25.6368 ,0.75044 ,3.23495 ,31.74134 
140 ,25.8288 ,0.75236 ,3.23495 ,31.74134 
141 ,26.0044 ,0.75405 ,3.21784 ,31.57345 
142 ,26.1808 ,0.75593 ,3.20073 ,31.40555 
143 ,26.3570 ,0.75761 ,3.17677 ,31.17051 
144 ,26.5331 ,0.75939 ,3.18704 ,31.27124 
145 ,26.7249 ,0.76125 ,3.15624 ,30.96904 
146 ,26.9018 ,0.76305 ,3.13229 ,30.73399 
147 ,27.0773 ,0.76484 ,3.12886 ,30.70041 
148 ,27.2851 ,0.76681 ,3.11518 ,30.56610 
149 ,27.4775 ,0.76873 ,3.10833 ,30.49894 
150 ,27.6532 ,0.77057 ,3.09806 ,30.39821 
151 ,27.8296 ,0.77233 ,3.08438 ,30.26389 
152 ,28.0057 ,0.77408 ,3.05015 ,29.92811 
153 ,28.1819 ,0.77586 ,3.02962 ,29.72664 
154 ,28.3739 ,0.77771 ,3.03647 ,29.79380 
155 ,28.5821 ,0.77981 ,3.01593 ,29.59233 
156 ,28.7742 ,0.78173 ,3.00909 ,29.52517 
157 ,28.9502 ,0.78354 ,2.99882 ,29.42444 
158 ,29.1423 ,0.78537 ,2.96118 ,29.05507 
159 ,29.3179 ,0.78723 ,2.95776 ,29.02150 
160 ,29.5102 ,0.78899 ,2.95776 ,29.02150 
161 ,29.7024 ,0.79102 ,2.91669 ,28.61856 
162 ,29.8786 ,0.79281 ,2.92353 ,28.68571 
163 ,30.0706 ,0.79473 ,2.91669 ,28.61856 
164 ,30.2466 ,0.79648 ,2.89273 ,28.38351 
165 ,30.4225 ,0.79822 ,2.85509 ,28.01415 
166 ,30.6148 ,0.80005 ,2.86536 ,28.11488 
167 ,30.8070 ,0.80211 ,2.85851 ,28.04772 
168 ,31.0149 ,0.80403 ,2.84140 ,27.87983 
169 ,31.1912 ,0.80591 ,2.82087 ,27.67836 
170 ,31.3830 ,0.80785 ,2.80376 ,27.51047 
171 ,31.5752 ,0.80980 ,2.80376 ,27.51047 
172 ,31.7671 ,0.81164 ,2.77296 ,27.20827 
173 ,31.9434 ,0.81342 ,2.75585 ,27.04038 
174 ,32.1353 ,0.81530 ,2.76269 ,27.10753 
175 ,32.3270 ,0.81730 ,2.73874 ,26.87248 
176 ,32.5032 ,0.81906 ,2.71820 ,26.67101 
177 ,32.6796 ,0.82084 ,2.69425 ,26.43597 
178 ,32.8717 ,0.82273 ,2.69767 ,26.46954 
179 ,33.0479 ,0.82451 ,2.68740 ,26.36881 
180 ,33.2239 ,0.82630 ,2.66345 ,26.13376 
181 ,33.4005 ,0.82805 ,2.64292 ,25.93229 
182 ,33.5757 ,0.82982 ,2.65318 ,26.03303 
183 ,33.7682 ,0.83167 ,2.62923 ,25.79798 
184 ,33.9601 ,0.83361 ,2.62923 ,25.79798 
185 ,34.1362 ,0.83533 ,2.60869 ,25.59651 
186 ,34.3124 ,0.83715 ,2.60185 ,25.52935 
187 ,34.5044 ,0.83904 ,2.57105 ,25.22715 
188 ,34.6800 ,0.84082 ,2.56078 ,25.12641 
189 ,34.8565 ,0.84264 ,2.56078 ,25.12641 
190 ,35.0486 ,0.84448 ,2.53341 ,24.85779 
191 ,35.2246 ,0.84623 ,2.51287 ,24.65632 
192 ,35.4168 ,0.84809 ,2.51287 ,24.65632 
193 ,35.5927 ,0.84994 ,2.50603 ,24.58916 
194 ,35.7689 ,0.85169 ,2.47523 ,24.28696 
195 ,35.9449 ,0.85341 ,2.46154 ,24.15264 
196 ,36.1208 ,0.85524 ,2.45812 ,24.11906 
197 ,36.2968 ,0.85698 ,2.45127 ,24.05191 
198 ,36.4732 ,0.85870 ,2.43074 ,23.85044 
199 ,36.6493 ,0.86048 ,2.41363 ,23.68255 
200 ,36.8089 ,0.86219 ,2.39652 ,23.51465 
201 ,37.0015 ,0.86395 ,2.37941 ,23.34676 
202 ,37.1935 ,0.86593 ,2.39310 ,23.48108 
203 ,37.3855 ,0.86776 ,2.35545 ,23.11171 
204 ,37.5776 ,0.86980 ,2.35545 ,23.11171 
205 ,37.7698 ,0.87156 ,2.34519 ,23.01098 
206 ,37.9618 ,0.87366 ,2.33834 ,22.94382 
207 ,38.1378 ,0.87550 ,2.30412 ,22.60804 
208 ,38.3296 ,0.87732 ,2.30070 ,22.57446 
209 ,38.5061 ,0.87907 ,2.27674 ,22.33941 
210 ,38.6820 ,0.88084 ,2.26990 ,22.27226 
211 ,38.8582 ,0.88262 ,2.26648 ,22.23868 
212 ,39.0502 ,0.88452 ,2.23910 ,21.97005 
213 ,39.2424 ,0.88643 ,2.21857 ,21.76858 
214 ,39.4342 ,0.88825 ,2.21515 ,21.73500 
215 ,39.6426 ,0.89028 ,2.18777 ,21.46638 
216 ,39.8344 ,0.89226 ,2.18777 ,21.46638 
217 ,40.0267 ,0.89424 ,2.17066 ,21.29849 
218 ,40.2026 ,0.89599 ,2.17066 ,21.29849 
219 ,40.3786 ,0.89777 ,2.16039 ,21.19775 
220 ,40.5707 ,0.89966 ,2.12617 ,20.86197 
221 ,40.7629 ,0.90161 ,2.12275 ,20.82839 
222 ,40.9390 ,0.90339 ,2.10906 ,20.69408 
223 ,41.1310 ,0.90529 ,2.08852 ,20.49261 
224 ,41.3231 ,0.90723 ,2.07484 ,20.35829 
225 ,41.5151 ,0.90906 ,2.08510 ,20.45903 
226 ,41.7232 ,0.91106 ,2.04061 ,20.02251 
227 ,41.8992 ,0.91297 ,2.05088 ,20.12325 
228 ,42.0590 ,0.91469 ,2.04404 ,20.05609 
229 ,42.2354 ,0.91632 ,2.03719 ,19.98893 
230 ,42.4276 ,0.91822 ,2.00639 ,19.68673 
231 ,42.6197 ,0.92013 ,2.00639 ,19.68673 
232 ,42.7956 ,0.92193 ,1.98244 ,19.45168 
233 ,42.9879 ,0.92383 ,1.96875 ,19.31737 
234 ,43.1797 ,0.92577 ,1.95506 ,19.18305 
235 ,43.3396 ,0.92749 ,1.94479 ,19.08232 
236 ,43.5160 ,0.92913 ,1.94137 ,19.04874 
237 ,43.7080 ,0.93094 ,1.90715 ,18.71296 
238 ,43.8843 ,0.93282 ,1.89688 ,18.61222 
239 ,44.0601 ,0.93456 ,1.88662 ,18.51149 
240 ,44.2199 ,0.93626 ,1.88662 ,18.51149 
241 ,44.3963 ,0.93791 ,1.87293 ,18.37717 
242 ,44.5885 ,0.93986 ,1.83871 ,18.04139 
243 ,44.7805 ,0.94176 ,1.83528 ,18.00781 
244 ,44.9566 ,0.94349 ,1.85240 ,18.17570 
245 ,45.1488 ,0.94543 ,1.81133 ,17.77276 
246 ,45.3245 ,0.94718 ,1.79764 ,17.63845 
247 ,45.5166 ,0.94901 ,1.78737 ,17.53772 
248 ,45.7090 ,0.95092 ,1.77369 ,17.40340 
249 ,45.9011 ,0.95299 ,1.75657 ,17.23551 
250 ,46.0932 ,0.95477 ,1.75315 ,17.20193 
251 ,46.2851 ,0.95683 ,1.73946 ,17.06762 
252 ,46.4613 ,0.95859 ,1.71551 ,16.83257 
253 ,46.6693 ,0.96060 ,1.69840 ,16.66468 
254 ,46.8610 ,0.96253 ,1.68813 ,16.56395 
255 ,47.0370 ,0.96436 ,1.68471 ,16.53037 
256 ,47.2133 ,0.96613 ,1.67786 ,16.46321 
257 ,47.4377 ,0.96834 ,1.65391 ,16.22816 
258 ,47.6136 ,0.97009 ,1.65049 ,16.19458 
259 ,47.7897 ,0.97185 ,1.62653 ,15.95954 
260 ,47.9819 ,0.97369 ,1.60942 ,15.79164 
261 ,48.1579 ,0.97554 ,1.61969 ,15.89238 
262 ,48.3338 ,0.97728 ,1.59573 ,15.65733 
263 ,48.5261 ,0.97916 ,1.56151 ,15.32155 
264 ,48.7020 ,0.98098 ,1.56493 ,15.35513 
265 ,48.8782 ,0.98273 ,1.55809 ,15.28797 
266 ,49.0543 ,0.98452 ,1.54782 ,15.18724 
267 ,49.2305 ,0.98627 ,1.51702 ,14.88503 
268 ,49.4071 ,0.98800 ,1.51018 ,14.81787 
269 ,49.5826 ,0.98978 ,1.49991 ,14.71714 
270 ,49.7587 ,0.99153 ,1.50676 ,14.78430 
271 ,49.9507 ,0.99337 ,1.47938 ,14.51567 
272 ,50.1589 ,0.99541 ,1.46569 ,14.38136 
273 ,50.3509 ,0.99743 ,1.44858 ,14.21346 
274 ,50.5268 ,0.99924 ,1.43831 ,14.11273 
275 ,50.7192 ,1.00105 ,1.44174 ,14.14631 
276 ,50.9431 ,1.00322 ,1.41778 ,13.91126 
277 ,51.1352 ,1.00529 ,1.40409 ,13.77695 
278 ,51.3272 ,1.00713 ,1.38698 ,13.60906 
279 ,51.5193 ,1.00910 ,1.38356 ,13.57548 
280 ,51.6794 ,1.01084 ,1.37671 ,13.50832 
281 ,51.8555 ,1.01246 ,1.35960 ,13.34043 
282 ,52.0316 ,1.01430 ,1.33907 ,13.13896 
283 ,52.2236 ,1.01612 ,1.33223 ,13.07180 
284 ,52.3997 ,1.01794 ,1.32538 ,13.00465 
285 ,52.5757 ,1.01966 ,1.30143 ,12.76960 
286 ,52.7358 ,1.02138 ,1.29800 ,12.73602 
287 ,52.9124 ,1.02304 ,1.26378 ,12.40024 
288 ,53.0877 ,1.02482 ,1.25694 ,12.33308 
289 ,53.2642 ,1.02657 ,1.25009 ,12.26592 
290 ,53.4561 ,1.02847 ,1.26036 ,12.36666 
291 ,53.6322 ,1.03024 ,1.22614 ,12.03088 
292 ,53.8082 ,1.03199 ,1.21587 ,11.93014 
293 ,53.9842 ,1.03376 ,1.19534 ,11.72867 
294 ,54.1604 ,1.03552 ,1.20561 ,11.82941 
295 ,54.3525 ,1.03744 ,1.18507 ,11.62794 
296 ,54.5446 ,1.03940 ,1.16796 ,11.46004 
297 ,54.7367 ,1.04121 ,1.17481 ,11.52720 
298 ,54.9124 ,1.04304 ,1.15427 ,11.32573 
299 ,55.0888 ,1.04481 ,1.14058 ,11.19142 
300 ,55.2649 ,1.04655 ,1.12005 ,10.98995 
301 ,55.4729 ,1.04861 ,1.12347 ,11.02353 
302 ,55.6491 ,1.05039 ,1.10294 ,10.82206 
303 ,55.8412 ,1.05236 ,1.09267 ,10.72132 
304 ,56.0172 ,1.05408 ,1.08241 ,10.62059 
305 ,56.2094 ,1.05603 ,1.06187 ,10.41912 
306 ,56.4014 ,1.05789 ,1.05845 ,10.38554 
307 ,56.5775 ,1.05972 ,1.05845 ,10.38554 
308 ,56.7536 ,1.06145 ,1.03450 ,10.15049 
309 ,56.9453 ,1.06336 ,1.03108 ,10.11691 
310 ,57.1216 ,1.06512 ,1.00028 ,9.81471 
311 ,57.3293 ,1.06714 ,0.98317 ,9.64682 
312 ,57.5060 ,1.06902 ,0.98317 ,9.64682 
313 ,57.6980 ,1.07087 ,0.99685 ,9.78113 
314 ,57.8740 ,1.07266 ,0.97974 ,9.61324 
315 ,58.0501 ,1.07448 ,0.94552 ,9.27745 
316 ,58.2259 ,1.07611 ,0.93868 ,9.21030 
317 ,58.4023 ,1.07794 ,0.92157 ,9.04241 
318 ,58.6099 ,1.07993 ,0.90446 ,8.87451 
319 ,58.7864 ,1.08178 ,0.90446 ,8.87451 
320 ,58.9785 ,1.08372 ,0.90446 ,8.87451 
321 ,59.1541 ,1.08544 ,0.89419 ,8.77378 
322 ,59.3305 ,1.08718 ,0.86681 ,8.50515 
323 ,59.5223 ,1.08914 ,0.86339 ,8.47158 
324 ,59.6989 ,1.09092 ,0.86339 ,8.47158 
325 ,59.8907 ,1.09282 ,0.83601 ,8.20295 
326 ,60.0669 ,1.09464 ,0.81548 ,8.00148 
327 ,60.2428 ,1.09637 ,0.82575 ,8.10221 
328 ,60.4350 ,1.09828 ,0.81890 ,8.03506 
329 ,60.6271 ,1.10015 ,0.78810 ,7.73285 
330 ,60.8032 ,1.10194 ,0.77784 ,7.63212 
331 ,60.9791 ,1.10371 ,0.77784 ,7.63212 
332 ,61.1552 ,1.10543 ,0.76757 ,7.53138 
333 ,61.3475 ,1.10732 ,0.75046 ,7.36349 
334 ,61.5395 ,1.10930 ,0.74704 ,7.32991 
335 ,61.7156 ,1.11108 ,0.72308 ,7.09486 
336 ,61.9077 ,1.11290 ,0.70939 ,6.96055 
337 ,62.0997 ,1.11481 ,0.69570 ,6.82624 
338 ,62.2754 ,1.11663 ,0.70597 ,6.92697 
339 ,62.4519 ,1.11844 ,0.68201 ,6.69193 
340 ,62.6439 ,1.12031 ,0.66833 ,6.55761 
341 ,62.8202 ,1.12208 ,0.67517 ,6.62477 
342 ,63.0121 ,1.12395 ,0.64095 ,6.28899 
343 ,63.2043 ,1.12599 ,0.63068 ,6.18825 
344 ,63.3801 ,1.12768 ,0.64095 ,6.28899 
345 ,63.5559 ,1.12945 ,0.62726 ,6.15467 
346 ,63.7320 ,1.13119 ,0.59304 ,5.81889 
347 ,63.8921 ,1.13291 ,0.58277 ,5.71815 
348 ,64.0684 ,1.13462 ,0.57251 ,5.61742 
349 ,64.2766 ,1.13665 ,0.56566 ,5.55026 
350 ,64.4526 ,1.13845 ,0.56566 ,5.55026 
351 ,64.6286 ,1.14020 ,0.53486 ,5.24806 
352 ,64.8209 ,1.14213 ,0.54171 ,5.31522 
353 ,65.0289 ,1.14404 ,0.50406 ,4.94585 
354 ,65.2369 ,1.14621 ,0.50406 ,4.94585 
355 ,65.4137 ,1.14801 ,0.51433 ,5.04659 
356 ,65.6054 ,1.14987 ,0.50406 ,4.94585 
357 ,65.8134 ,1.15196 ,0.46984 ,4.61007 
358 ,65.9894 ,1.15380 ,0.46300 ,4.54291 
359 ,66.1813 ,1.15565 ,0.46300 ,4.54291 
360 ,66.3574 ,1.15743 ,0.46984 ,4.61007 
361 ,66.5333 ,1.15917 ,0.42877 ,4.20713 
362 ,66.7096 ,1.16097 ,0.42535 ,4.17355 
363 ,66.8855 ,1.16271 ,0.40482 ,3.97208 
364 ,67.0617 ,1.16447 ,0.42877 ,4.20713 
365 ,67.2376 ,1.16623 ,0.40482 ,3.97208 
366 ,67.4138 ,1.16804 ,0.37744 ,3.70346 
367 ,67.5895 ,1.16976 ,0.37402 ,3.66988 
368 ,67.7659 ,1.17158 ,0.36375 ,3.56914 
369 ,67.9901 ,1.17367 ,0.34664 ,3.40125 
370 ,68.1661 ,1.17552 ,0.33638 ,3.30052 
371 ,68.3582 ,1.17747 ,0.35349 ,3.46841 
372 ,68.5344 ,1.17919 ,0.31584 ,3.09905 
373 ,68.7102 ,1.18097 ,0.30215 ,2.96473 
374 ,68.8865 ,1.18270 ,0.29873 ,2.93116 
375 ,69.0624 ,1.18451 ,0.29189 ,2.86400 
376 ,69.2386 ,1.18622 ,0.29531 ,2.89758 
377 ,69.4307 ,1.18814 ,0.26109 ,2.56179 
378 ,69.6228 ,1.19007 ,0.27478 ,2.69611 
379 ,69.8147 ,1.19197 ,0.24398 ,2.39390 
380 ,70.0229 ,1.19407 ,0.24740 ,2.42748 
381 ,70.2148 ,1.19595 ,0.22002 ,2.15885 
382 ,70.3911 ,1.19780 ,0.21660 ,2.12528 
383 ,70.5671 ,1.19957 ,0.21318 ,2.09170 
384 ,70.7431 ,1.20126 ,0.20291 ,1.99096 
385 ,70.9352 ,1.20321 ,0.19264 ,1.89023 
386 ,71.1273 ,1.20515 ,0.17553 ,1.72234 
387 ,71.3035 ,1.20691 ,0.17896 ,1.75592 
388 ,71.4953 ,1.20882 ,0.16185 ,1.58802 
389 ,71.6877 ,1.21069 ,0.15158 ,1.48729 
390 ,71.8794 ,1.21267 ,0.13789 ,1.35298 
391 ,72.0558 ,1.21439 ,0.13447 ,1.31940 
392 ,72.2475 ,1.21627 ,0.12078 ,1.18508 
393 ,72.4236 ,1.21809 ,0.10709 ,1.05077 
394 ,72.6000 ,1.21987 ,0.11393 ,1.11793 
395 ,72.7921 ,1.22175 ,0.07971 ,0.78214 
396 ,72.9521 ,1.22346 ,0.07629 ,0.74857 
397 ,73.1283 ,1.22512 ,0.06945 ,0.68141 
398 ,73.3362 ,1.22715 ,0.05576 ,0.54710 
399 ,73.5125 ,1.22898 ,0.05234 ,0.51352 
400 ,73.6884 ,1.23075 ,0.03865 ,0.37920 
401 ,73.8645 ,1.23248 ,0.03522 ,0.34563 
402 ,74.0727 ,1.23452 ,0.00785 ,0.07700 
403 ,74.2644 ,1.23644 ,0.01469 ,0.14416 
404 ,74.4567 ,1.23838 ,0.01127 ,0.11058 
405 ,74.6488 ,1.24022 ,-0.01611 ,-0.15805 
406 ,74.8249 ,1.24206 ,-0.01611 ,-0.15805 
407 ,75.0167 ,1.24392 ,-0.04006 ,-0.39310 
408 ,75.2092 ,1.24592 ,-0.04006 ,-0.39310 
409 ,75.4011 ,1.24789 ,-0.03322 ,-0.32594 
410 ,75.5933 ,1.24974 ,-0.06060 ,-0.59457 
411 ,75.7853 ,1.25171 ,-0.06060 ,-0.59457 
412 ,75.9774 ,1.25364 ,-0.07086 ,-0.69530 
413 ,76.1533 ,1.25538 ,-0.09140 ,-0.89677 
414 ,76.3455 ,1.25729 ,-0.10166 ,-0.99751 
415 ,76.5214 ,1.25911 ,-0.08797 ,-0.86319 
416 ,76.7140 ,1.26100 ,-0.12219 ,-1.19898 
417 ,76.9218 ,1.26297 ,-0.11877 ,-1.16540 
418 ,77.1137 ,1.26491 ,-0.13931 ,-1.36687 
419 ,77.2897 ,1.26673 ,-0.14615 ,-1.43402 
420 ,77.4820 ,1.26863 ,-0.14273 ,-1.40045 
421 ,77.6737 ,1.27048 ,-0.17011 ,-1.66907 
422 ,77.8498 ,1.27230 ,-0.18037 ,-1.76981 
423 ,78.0419 ,1.27417 ,-0.17011 ,-1.66907 
424 ,78.2179 ,1.27602 ,-0.19748 ,-1.93770 
425 ,78.4100 ,1.27788 ,-0.19406 ,-1.90412 
426 ,78.5860 ,1.27968 ,-0.20090 ,-1.97128 
427 ,78.7620 ,1.28151 ,-0.21459 ,-2.10559 
428 ,78.9383 ,1.28325 ,-0.19748 ,-1.93770 
429 ,79.1627 ,1.28539 ,-0.23170 ,-2.27348 
430 ,79.3546 ,1.28736 ,-0.24881 ,-2.44137 
431 ,79.5469 ,1.28922 ,-0.24539 ,-2.40779 
432 ,79.7551 ,1.29129 ,-0.27619 ,-2.71000 
433 ,79.9471 ,1.29325 ,-0.26250 ,-2.57569 
434 ,80.1391 ,1.29521 ,-0.28304 ,-2.77716 
435 ,80.3152 ,1.29695 ,-0.30357 ,-2.97863 
436 ,80.4912 ,1.29880 ,-0.30015 ,-2.94505 
437 ,80.6833 ,1.30064 ,-0.29330 ,-2.87789 
438 ,80.8591 ,1.30243 ,-0.31384 ,-3.07936 
439 ,81.0355 ,1.30422 ,-0.32068 ,-3.14652 
440 ,81.2276 ,1.30610 ,-0.33095 ,-3.24725 
441 ,81.4195 ,1.30794 ,-0.34121 ,-3.34799 
442 ,81.6117 ,1.30992 ,-0.35490 ,-3.48230 
443 ,81.8038 ,1.31186 ,-0.35490 ,-3.48230 
444 ,81.9959 ,1.31368 ,-0.35832 ,-3.51588 
445 ,82.1719 ,1.31556 ,-0.39255 ,-3.85166 
446 ,82.3640 ,1.31737 ,-0.39597 ,-3.88524 
447 ,82.5401 ,1.31922 ,-0.38912 ,-3.81808 
448 ,82.7321 ,1.32110 ,-0.41308 ,-4.05313 
449 ,82.9402 ,1.32318 ,-0.42335 ,-4.15387 
450 ,83.1317 ,1.32511 ,-0.42677 ,-4.18744 
451 ,83.3242 ,1.32702 ,-0.41992 ,-4.12029 
452 ,83.5323 ,1.32910 ,-0.44388 ,-4.35534 
453 ,83.7087 ,1.33095 ,-0.45414 ,-4.45607 
454 ,83.9011 ,1.33288 ,-0.45414 ,-4.45607 
455 ,84.0927 ,1.33468 ,-0.48494 ,-4.75828 
456 ,84.2846 ,1.33662 ,-0.49179 ,-4.82543 
457 ,84.4607 ,1.33850 ,-0.48152 ,-4.72470 
458 ,84.6370 ,1.34021 ,-0.48837 ,-4.79185 
459 ,84.8289 ,1.34206 ,-0.49863 ,-4.89259 
460 ,85.0049 ,1.34384 ,-0.50548 ,-4.95975 
461 ,85.1810 ,1.34563 ,-0.50548 ,-4.95975 
462 ,85.3571 ,1.34739 ,-0.53285 ,-5.22837 
463 ,85.5493 ,1.34930 ,-0.53285 ,-5.22837 
464 ,85.7412 ,1.35124 ,-0.53970 ,-5.29553 
