Data stamp = , 07-04-2022 11:10:43 486

Calibration Values: 
Slope = , 26.54 , g/V 
Offset Voltage at no contact = , -0.501760 , V 

No , Time , Stage Position ,   Mass , Force 
   ,  (s) ,      (mm)      ,   (g)  , (mN)  

1 ,0.0000 ,0.49936 ,5.19243 ,50.94813 
2 ,0.2206 ,0.49943 ,5.20612 ,51.08244 
3 ,0.4447 ,0.50004 ,5.18559 ,50.88097 
4 ,0.6208 ,0.50098 ,5.18901 ,50.91455 
5 ,0.8290 ,0.50240 ,5.18216 ,50.84739 
6 ,1.0210 ,0.50430 ,5.19243 ,50.94813 
7 ,1.1971 ,0.50602 ,5.19585 ,50.98170 
8 ,1.3731 ,0.50777 ,5.19585 ,50.98170 
9 ,1.5492 ,0.50952 ,5.17532 ,50.78023 
10 ,1.7253 ,0.51135 ,5.16505 ,50.67950 
11 ,1.9014 ,0.51309 ,5.18216 ,50.84739 
12 ,2.1095 ,0.51504 ,5.14110 ,50.44445 
13 ,2.2855 ,0.51697 ,5.15479 ,50.57876 
14 ,2.4776 ,0.51882 ,5.13768 ,50.41087 
15 ,2.6698 ,0.52076 ,5.13768 ,50.41087 
16 ,2.8616 ,0.52269 ,5.11372 ,50.17583 
17 ,3.0382 ,0.52446 ,5.11030 ,50.14225 
18 ,3.2301 ,0.52631 ,5.06581 ,49.70573 
19 ,3.4062 ,0.52816 ,5.07265 ,49.77289 
20 ,3.5661 ,0.52984 ,5.05897 ,49.63857 
21 ,3.7423 ,0.53151 ,5.03843 ,49.43710 
22 ,3.9344 ,0.53347 ,5.01106 ,49.16848 
23 ,4.1425 ,0.53542 ,5.01106 ,49.16848 
24 ,4.3187 ,0.53723 ,4.99052 ,48.96701 
25 ,4.5107 ,0.53912 ,4.97683 ,48.83269 
26 ,4.7024 ,0.54104 ,4.94261 ,48.49691 
27 ,4.8788 ,0.54285 ,4.94261 ,48.49691 
28 ,5.0548 ,0.54464 ,4.91523 ,48.22828 
29 ,5.2309 ,0.54638 ,4.88101 ,47.89250 
30 ,5.4071 ,0.54814 ,4.87417 ,47.82534 
31 ,5.5829 ,0.54991 ,4.85706 ,47.65745 
32 ,5.7588 ,0.55170 ,4.85706 ,47.65745 
33 ,5.9353 ,0.55346 ,4.85706 ,47.65745 
34 ,6.1274 ,0.55536 ,4.79888 ,47.08662 
35 ,6.3355 ,0.55728 ,4.79204 ,47.01946 
36 ,6.5116 ,0.55921 ,4.78861 ,46.98589 
37 ,6.7035 ,0.56110 ,4.77835 ,46.88515 
38 ,6.8796 ,0.56282 ,4.75439 ,46.65010 
39 ,7.0396 ,0.56457 ,4.73386 ,46.44863 
40 ,7.2157 ,0.56626 ,4.73728 ,46.48221 
41 ,7.3917 ,0.56797 ,4.69964 ,46.11285 
42 ,7.5679 ,0.56977 ,4.67568 ,45.87780 
43 ,7.7439 ,0.57149 ,4.65857 ,45.70991 
44 ,7.9199 ,0.57333 ,4.66542 ,45.77707 
45 ,8.0960 ,0.57505 ,4.65173 ,45.64275 
46 ,8.2879 ,0.57692 ,4.62435 ,45.37413 
47 ,8.4643 ,0.57871 ,4.59697 ,45.10550 
48 ,8.6403 ,0.58053 ,4.60382 ,45.17266 
49 ,8.8324 ,0.58231 ,4.60382 ,45.17266 
50 ,9.0244 ,0.58431 ,4.55591 ,44.70256 
51 ,9.2005 ,0.58608 ,4.54906 ,44.63541 
52 ,9.3926 ,0.58791 ,4.53880 ,44.53467 
53 ,9.5847 ,0.58986 ,4.52169 ,44.36678 
54 ,9.7607 ,0.59164 ,4.51142 ,44.26604 
55 ,9.9528 ,0.59347 ,4.49773 ,44.13173 
56 ,10.1289 ,0.59538 ,4.46009 ,43.76237 
57 ,10.3529 ,0.59744 ,4.44640 ,43.62806 
58 ,10.5292 ,0.59933 ,4.43955 ,43.56090 
59 ,10.7212 ,0.60129 ,4.41902 ,43.35943 
60 ,10.9134 ,0.60309 ,4.40191 ,43.19154 
61 ,11.1050 ,0.60512 ,4.38822 ,43.05723 
62 ,11.2652 ,0.60684 ,4.37453 ,42.92291 
63 ,11.4414 ,0.60846 ,4.36769 ,42.85576 
64 ,11.6175 ,0.61022 ,4.35742 ,42.75502 
65 ,11.7936 ,0.61198 ,4.34373 ,42.62071 
66 ,12.0016 ,0.61391 ,4.32320 ,42.41924 
67 ,12.1613 ,0.61582 ,4.30951 ,42.28492 
68 ,12.3376 ,0.61741 ,4.30609 ,42.25135 
69 ,12.5139 ,0.61918 ,4.28556 ,42.04988 
70 ,12.7060 ,0.62111 ,4.26160 ,41.81483 
71 ,12.8819 ,0.62286 ,4.24107 ,41.61336 
72 ,13.0581 ,0.62464 ,4.23765 ,41.57978 
73 ,13.2501 ,0.62652 ,4.22053 ,41.41189 
74 ,13.4263 ,0.62832 ,4.20342 ,41.24400 
75 ,13.6185 ,0.63019 ,4.19658 ,41.17684 
76 ,13.7944 ,0.63203 ,4.18631 ,41.07611 
77 ,13.9862 ,0.63393 ,4.15551 ,40.77390 
78 ,14.1626 ,0.63574 ,4.12814 ,40.50527 
79 ,14.3544 ,0.63764 ,4.13498 ,40.57243 
80 ,14.5466 ,0.63952 ,4.09391 ,40.16949 
81 ,14.7223 ,0.64130 ,4.09391 ,40.16949 
82 ,14.8985 ,0.64300 ,4.08707 ,40.10233 
83 ,15.0749 ,0.64479 ,4.08365 ,40.06876 
84 ,15.2510 ,0.64659 ,4.05627 ,39.80013 
85 ,15.4270 ,0.64834 ,4.05969 ,39.83371 
86 ,15.6352 ,0.65038 ,4.03232 ,39.56508 
87 ,15.8272 ,0.65233 ,4.00152 ,39.26288 
88 ,16.0033 ,0.65402 ,3.98783 ,39.12856 
89 ,16.1954 ,0.65602 ,3.98441 ,39.09499 
90 ,16.3711 ,0.65784 ,3.94334 ,38.69205 
91 ,16.5792 ,0.65975 ,3.96045 ,38.85994 
92 ,16.7392 ,0.66151 ,3.93650 ,38.62489 
93 ,16.9316 ,0.66328 ,3.92965 ,38.55773 
94 ,17.1237 ,0.66529 ,3.88858 ,38.15479 
95 ,17.2995 ,0.66698 ,3.89201 ,38.18837 
96 ,17.4759 ,0.66877 ,3.88174 ,38.08764 
97 ,17.6518 ,0.67056 ,3.86121 ,37.88617 
98 ,17.8276 ,0.67230 ,3.84067 ,37.68470 
99 ,18.0041 ,0.67409 ,3.83041 ,37.58396 
100 ,18.1638 ,0.67578 ,3.81672 ,37.44965 
101 ,18.3402 ,0.67740 ,3.80303 ,37.31534 
102 ,18.5160 ,0.67918 ,3.79619 ,37.24818 
103 ,18.6921 ,0.68093 ,3.77908 ,37.08029 
104 ,18.9002 ,0.68294 ,3.75854 ,36.87882 
105 ,19.0766 ,0.68480 ,3.74143 ,36.71093 
106 ,19.3004 ,0.68689 ,3.73117 ,36.61019 
107 ,19.4767 ,0.68886 ,3.72090 ,36.50946 
108 ,19.6848 ,0.69087 ,3.67641 ,36.07294 
109 ,19.8927 ,0.69286 ,3.67641 ,36.07294 
110 ,20.0689 ,0.69469 ,3.65588 ,35.87147 
111 ,20.2609 ,0.69668 ,3.64903 ,35.80431 
112 ,20.4530 ,0.69843 ,3.64219 ,35.73716 
113 ,20.6288 ,0.70028 ,3.61823 ,35.50211 
114 ,20.8052 ,0.70209 ,3.58743 ,35.19990 
115 ,20.9972 ,0.70387 ,3.58401 ,35.16632 
116 ,21.1732 ,0.70576 ,3.58743 ,35.19990 
117 ,21.3495 ,0.70748 ,3.55663 ,34.89770 
118 ,21.5416 ,0.70944 ,3.53610 ,34.69623 
119 ,21.7172 ,0.71127 ,3.53268 ,34.66265 
120 ,21.8935 ,0.71296 ,3.52241 ,34.56192 
121 ,22.0854 ,0.71489 ,3.49846 ,34.32687 
122 ,22.2619 ,0.71667 ,3.48135 ,34.15898 
123 ,22.4538 ,0.71850 ,3.47792 ,34.12540 
124 ,22.6461 ,0.72038 ,3.46424 ,33.99108 
125 ,22.8380 ,0.72247 ,3.44370 ,33.78961 
126 ,23.0302 ,0.72423 ,3.43001 ,33.65530 
127 ,23.2220 ,0.72615 ,3.40264 ,33.38667 
128 ,23.4143 ,0.72819 ,3.40948 ,33.45383 
129 ,23.5904 ,0.72991 ,3.38553 ,33.21878 
130 ,23.7824 ,0.73174 ,3.36842 ,33.05089 
131 ,23.9744 ,0.73368 ,3.35815 ,32.95016 
132 ,24.1666 ,0.73573 ,3.33077 ,32.68153 
133 ,24.3586 ,0.73752 ,3.33419 ,32.71511 
134 ,24.5347 ,0.73930 ,3.33077 ,32.68153 
135 ,24.7108 ,0.74109 ,3.31708 ,32.54722 
136 ,24.9025 ,0.74300 ,3.27944 ,32.17786 
137 ,25.0790 ,0.74480 ,3.26917 ,32.07712 
138 ,25.2550 ,0.74655 ,3.26575 ,32.04354 
139 ,25.4311 ,0.74831 ,3.26233 ,32.00996 
140 ,25.6233 ,0.75023 ,3.21442 ,31.53987 
141 ,25.7992 ,0.75206 ,3.23153 ,31.70776 
142 ,25.9753 ,0.75373 ,3.20757 ,31.47271 
143 ,26.1514 ,0.75552 ,3.19046 ,31.30482 
144 ,26.3274 ,0.75727 ,3.18020 ,31.20409 
145 ,26.5197 ,0.75918 ,3.16309 ,31.03619 
146 ,26.6954 ,0.76095 ,3.15966 ,31.00262 
147 ,26.9038 ,0.76296 ,3.13571 ,30.76757 
148 ,27.0956 ,0.76485 ,3.13571 ,30.76757 
149 ,27.2719 ,0.76669 ,3.11175 ,30.53252 
150 ,27.4798 ,0.76867 ,3.08095 ,30.23031 
151 ,27.6878 ,0.77074 ,3.07069 ,30.12958 
152 ,27.8639 ,0.77266 ,3.06384 ,30.06242 
153 ,28.0560 ,0.77453 ,3.05700 ,29.99527 
154 ,28.2322 ,0.77631 ,3.05358 ,29.96169 
155 ,28.4085 ,0.77807 ,3.02278 ,29.65948 
156 ,28.5846 ,0.77987 ,2.98513 ,29.29012 
157 ,28.7605 ,0.78159 ,2.99198 ,29.35728 
158 ,28.9366 ,0.78333 ,2.98513 ,29.29012 
159 ,29.0964 ,0.78508 ,2.98855 ,29.32370 
160 ,29.2727 ,0.78672 ,2.96460 ,29.08865 
161 ,29.4649 ,0.78867 ,2.93722 ,28.82003 
162 ,29.6569 ,0.79052 ,2.93038 ,28.75287 
163 ,29.8329 ,0.79228 ,2.92696 ,28.71929 
164 ,30.0090 ,0.79405 ,2.91327 ,28.58498 
165 ,30.1848 ,0.79581 ,2.88589 ,28.31635 
166 ,30.3611 ,0.79762 ,2.86878 ,28.14846 
167 ,30.5531 ,0.79948 ,2.87562 ,28.21562 
168 ,30.7293 ,0.80125 ,2.86878 ,28.14846 
169 ,30.9056 ,0.80306 ,2.83798 ,27.84625 
170 ,31.1136 ,0.80507 ,2.83114 ,27.77910 
171 ,31.2891 ,0.80686 ,2.82429 ,27.71194 
172 ,31.4657 ,0.80864 ,2.78665 ,27.34258 
173 ,31.6577 ,0.81055 ,2.78665 ,27.34258 
174 ,31.8336 ,0.81235 ,2.78665 ,27.34258 
175 ,32.0099 ,0.81410 ,2.76269 ,27.10753 
176 ,32.2177 ,0.81611 ,2.74900 ,26.97322 
177 ,32.3779 ,0.81785 ,2.72505 ,26.73817 
178 ,32.5542 ,0.81953 ,2.72847 ,26.77175 
179 ,32.7298 ,0.82125 ,2.71820 ,26.67101 
180 ,32.9064 ,0.82305 ,2.68740 ,26.36881 
181 ,33.0821 ,0.82474 ,2.67714 ,26.26807 
182 ,33.2582 ,0.82658 ,2.67372 ,26.23450 
183 ,33.4505 ,0.82843 ,2.66687 ,26.16734 
184 ,33.6425 ,0.83036 ,2.63607 ,25.86514 
185 ,33.8189 ,0.83216 ,2.61896 ,25.69724 
186 ,33.9947 ,0.83391 ,2.61212 ,25.63009 
187 ,34.1706 ,0.83565 ,2.60185 ,25.52935 
188 ,34.3469 ,0.83744 ,2.58474 ,25.36146 
189 ,34.5229 ,0.83920 ,2.57447 ,25.26073 
190 ,34.7152 ,0.84111 ,2.58132 ,25.32788 
191 ,34.9072 ,0.84298 ,2.55052 ,25.02568 
192 ,35.0832 ,0.84484 ,2.54367 ,24.95852 
193 ,35.2593 ,0.84658 ,2.51972 ,24.72347 
194 ,35.4354 ,0.84836 ,2.51287 ,24.65632 
195 ,35.6275 ,0.85022 ,2.50945 ,24.62274 
196 ,35.8355 ,0.85235 ,2.48207 ,24.35411 
197 ,36.0116 ,0.85407 ,2.46496 ,24.18622 
198 ,36.1877 ,0.85586 ,2.46154 ,24.15264 
199 ,36.3636 ,0.85757 ,2.43416 ,23.88402 
200 ,36.5556 ,0.85952 ,2.42732 ,23.81686 
201 ,36.7316 ,0.86127 ,2.43759 ,23.91759 
202 ,36.9239 ,0.86316 ,2.40679 ,23.61539 
203 ,37.0997 ,0.86502 ,2.39310 ,23.48108 
204 ,37.2921 ,0.86679 ,2.38283 ,23.38034 
205 ,37.4842 ,0.86872 ,2.34861 ,23.04456 
206 ,37.6762 ,0.87077 ,2.35888 ,23.14529 
207 ,37.8520 ,0.87243 ,2.33150 ,22.87667 
208 ,38.0286 ,0.87424 ,2.32808 ,22.84309 
209 ,38.2041 ,0.87601 ,2.32123 ,22.77593 
210 ,38.3803 ,0.87780 ,2.29728 ,22.54088 
211 ,38.5887 ,0.87980 ,2.27674 ,22.33941 
212 ,38.7806 ,0.88175 ,2.26306 ,22.20510 
213 ,38.9727 ,0.88359 ,2.26306 ,22.20510 
214 ,39.1489 ,0.88541 ,2.25621 ,22.13794 
215 ,39.3245 ,0.88720 ,2.22199 ,21.80216 
216 ,39.5010 ,0.88895 ,2.20488 ,21.63427 
217 ,39.6771 ,0.89073 ,2.21172 ,21.70143 
218 ,39.8531 ,0.89249 ,2.19119 ,21.49996 
219 ,40.0453 ,0.89436 ,2.17408 ,21.33206 
220 ,40.2374 ,0.89627 ,2.16381 ,21.23133 
221 ,40.4295 ,0.89825 ,2.15012 ,21.09702 
222 ,40.6214 ,0.90016 ,2.13644 ,20.96270 
223 ,40.7972 ,0.90191 ,2.11590 ,20.76123 
224 ,40.9736 ,0.90367 ,2.09537 ,20.55976 
225 ,41.1657 ,0.90561 ,2.08852 ,20.49261 
226 ,41.3417 ,0.90730 ,2.07826 ,20.39187 
227 ,41.5178 ,0.90909 ,2.06799 ,20.29114 
228 ,41.6938 ,0.91090 ,2.07141 ,20.32472 
229 ,41.8699 ,0.91260 ,2.05088 ,20.12325 
230 ,42.0620 ,0.91450 ,2.02693 ,19.88820 
231 ,42.2541 ,0.91641 ,2.02693 ,19.88820 
232 ,42.4302 ,0.91820 ,2.01324 ,19.75388 
233 ,42.6064 ,0.91999 ,1.98928 ,19.51884 
234 ,42.7824 ,0.92182 ,1.96875 ,19.31737 
235 ,42.9581 ,0.92359 ,1.98586 ,19.48526 
236 ,43.1341 ,0.92531 ,1.96190 ,19.25021 
237 ,43.3103 ,0.92701 ,1.94479 ,19.08232 
238 ,43.4865 ,0.92877 ,1.94137 ,19.04874 
239 ,43.6943 ,0.93078 ,1.93111 ,18.94801 
240 ,43.8707 ,0.93263 ,1.91399 ,18.78011 
241 ,44.0467 ,0.93450 ,1.88662 ,18.51149 
242 ,44.2230 ,0.93614 ,1.87293 ,18.37717 
243 ,44.3991 ,0.93795 ,1.87977 ,18.44433 
244 ,44.5751 ,0.93973 ,1.85924 ,18.24286 
245 ,44.7509 ,0.94139 ,1.84555 ,18.10855 
246 ,44.9432 ,0.94330 ,1.83528 ,18.00781 
247 ,45.1032 ,0.94508 ,1.82160 ,17.87350 
248 ,45.2794 ,0.94670 ,1.79422 ,17.60487 
249 ,45.4554 ,0.94848 ,1.78737 ,17.53772 
250 ,45.6312 ,0.95024 ,1.80106 ,17.67203 
251 ,45.8076 ,0.95199 ,1.78053 ,17.47056 
252 ,45.9994 ,0.95388 ,1.73604 ,17.03404 
253 ,46.1756 ,0.95569 ,1.74289 ,17.10120 
254 ,46.3517 ,0.95742 ,1.73262 ,17.00046 
255 ,46.5438 ,0.95933 ,1.71893 ,16.86615 
256 ,46.7358 ,0.96123 ,1.71893 ,16.86615 
257 ,46.9116 ,0.96299 ,1.70524 ,16.73184 
258 ,47.0880 ,0.96481 ,1.69155 ,16.59752 
259 ,47.2641 ,0.96658 ,1.66075 ,16.29532 
260 ,47.4402 ,0.96827 ,1.64707 ,16.16101 
261 ,47.6322 ,0.97015 ,1.64364 ,16.12743 
262 ,47.8244 ,0.97216 ,1.62311 ,15.92596 
263 ,48.0166 ,0.97407 ,1.61627 ,15.85880 
264 ,48.2086 ,0.97599 ,1.61969 ,15.89238 
265 ,48.4006 ,0.97786 ,1.57520 ,15.45586 
266 ,48.5926 ,0.97986 ,1.58547 ,15.55660 
267 ,48.7688 ,0.98161 ,1.55809 ,15.28797 
268 ,48.9608 ,0.98346 ,1.53413 ,15.05292 
269 ,49.1528 ,0.98541 ,1.53413 ,15.05292 
270 ,49.3285 ,0.98720 ,1.53071 ,15.01934 
271 ,49.5051 ,0.98895 ,1.51360 ,14.85145 
272 ,49.6971 ,0.99089 ,1.48965 ,14.61640 
273 ,49.8892 ,0.99274 ,1.49307 ,14.64998 
274 ,50.0971 ,0.99483 ,1.47253 ,14.44851 
275 ,50.2732 ,0.99657 ,1.46569 ,14.38136 
276 ,50.4494 ,0.99840 ,1.45200 ,14.24704 
277 ,50.6254 ,1.00015 ,1.43489 ,14.07915 
278 ,50.8335 ,1.00213 ,1.43147 ,14.04557 
279 ,51.0095 ,1.00402 ,1.41778 ,13.91126 
280 ,51.2014 ,1.00592 ,1.38356 ,13.57548 
281 ,51.3776 ,1.00767 ,1.38014 ,13.54190 
282 ,51.5859 ,1.00962 ,1.38356 ,13.57548 
283 ,51.7777 ,1.01170 ,1.35276 ,13.27327 
284 ,51.9540 ,1.01339 ,1.35276 ,13.27327 
285 ,52.1298 ,1.01520 ,1.34249 ,13.17254 
286 ,52.3062 ,1.01697 ,1.33223 ,13.07180 
287 ,52.4818 ,1.01872 ,1.31169 ,12.87033 
288 ,52.6583 ,1.02052 ,1.28774 ,12.63528 
289 ,52.8501 ,1.02240 ,1.29116 ,12.66886 
290 ,53.0426 ,1.02425 ,1.26036 ,12.36666 
291 ,53.2346 ,1.02619 ,1.25694 ,12.33308 
292 ,53.4266 ,1.02812 ,1.24325 ,12.19877 
293 ,53.5863 ,1.02988 ,1.21929 ,11.96372 
294 ,53.7465 ,1.03148 ,1.21245 ,11.89656 
295 ,53.9228 ,1.03310 ,1.20903 ,11.86298 
296 ,54.1148 ,1.03495 ,1.20561 ,11.82941 
297 ,54.2910 ,1.03685 ,1.19534 ,11.72867 
298 ,54.4668 ,1.03863 ,1.16796 ,11.46004 
299 ,54.6428 ,1.04032 ,1.16454 ,11.42647 
300 ,54.8352 ,1.04215 ,1.14743 ,11.25857 
301 ,55.0111 ,1.04400 ,1.14058 ,11.19142 
302 ,55.1874 ,1.04577 ,1.13374 ,11.12426 
303 ,55.3632 ,1.04752 ,1.12005 ,10.98995 
304 ,55.5556 ,1.04938 ,1.10294 ,10.82206 
305 ,55.7313 ,1.05123 ,1.09610 ,10.75490 
306 ,55.9081 ,1.05298 ,1.09267 ,10.72132 
307 ,56.1317 ,1.05507 ,1.06872 ,10.48627 
308 ,56.3077 ,1.05701 ,1.05845 ,10.38554 
309 ,56.4838 ,1.05868 ,1.04476 ,10.25123 
310 ,56.6600 ,1.06047 ,1.02423 ,10.04976 
311 ,56.8679 ,1.06249 ,1.03108 ,10.11691 
312 ,57.0441 ,1.06435 ,1.00370 ,9.84829 
313 ,57.2361 ,1.06625 ,0.98659 ,9.68039 
314 ,57.4120 ,1.06799 ,0.99001 ,9.71397 
315 ,57.6044 ,1.06988 ,0.97632 ,9.57966 
316 ,57.7802 ,1.07170 ,0.94552 ,9.27745 
317 ,57.9885 ,1.07369 ,0.95579 ,9.37819 
318 ,58.1801 ,1.07565 ,0.92841 ,9.10956 
319 ,58.3561 ,1.07743 ,0.91472 ,8.97525 
320 ,58.5322 ,1.07919 ,0.91130 ,8.94167 
321 ,58.6922 ,1.08094 ,0.91130 ,8.94167 
322 ,58.8682 ,1.08254 ,0.89761 ,8.80736 
323 ,59.0447 ,1.08435 ,0.88050 ,8.63947 
324 ,59.2364 ,1.08620 ,0.85654 ,8.40442 
325 ,59.4125 ,1.08799 ,0.85654 ,8.40442 
326 ,59.5885 ,1.08973 ,0.85312 ,8.37084 
327 ,59.7648 ,1.09155 ,0.84628 ,8.30368 
328 ,59.9730 ,1.09363 ,0.82232 ,8.06864 
329 ,60.1653 ,1.09550 ,0.81890 ,8.03506 
330 ,60.3572 ,1.09747 ,0.79837 ,7.83359 
331 ,60.5334 ,1.09920 ,0.79152 ,7.76643 
332 ,60.7255 ,1.10113 ,0.77784 ,7.63212 
333 ,60.9177 ,1.10298 ,0.75730 ,7.43065 
334 ,61.0773 ,1.10475 ,0.75730 ,7.43065 
335 ,61.2538 ,1.10643 ,0.74019 ,7.26276 
336 ,61.4453 ,1.10830 ,0.74019 ,7.26276 
337 ,61.6219 ,1.11007 ,0.72650 ,7.12844 
338 ,61.8298 ,1.11209 ,0.70939 ,6.96055 
339 ,62.0060 ,1.11397 ,0.70597 ,6.92697 
340 ,62.1817 ,1.11566 ,0.68201 ,6.69193 
341 ,62.3582 ,1.11745 ,0.66490 ,6.52403 
342 ,62.5341 ,1.11914 ,0.65464 ,6.42330 
343 ,62.7264 ,1.12111 ,0.67517 ,6.62477 
344 ,62.9025 ,1.12286 ,0.63068 ,6.18825 
345 ,63.0785 ,1.12466 ,0.62042 ,6.08752 
346 ,63.2542 ,1.12643 ,0.61699 ,6.05394 
347 ,63.4307 ,1.12815 ,0.61357 ,6.02036 
348 ,63.6227 ,1.13009 ,0.59988 ,5.88605 
349 ,63.7988 ,1.13184 ,0.57935 ,5.68458 
350 ,64.0069 ,1.13391 ,0.58962 ,5.78531 
351 ,64.1990 ,1.13577 ,0.56224 ,5.51668 
352 ,64.3910 ,1.13770 ,0.55882 ,5.48311 
353 ,64.5832 ,1.13971 ,0.54171 ,5.31522 
354 ,64.7591 ,1.14144 ,0.52459 ,5.14732 
355 ,64.9353 ,1.14323 ,0.50748 ,4.97943 
356 ,65.1112 ,1.14498 ,0.51433 ,5.04659 
357 ,65.2872 ,1.14676 ,0.51091 ,5.01301 
358 ,65.4636 ,1.14847 ,0.49380 ,4.84512 
359 ,65.6553 ,1.15041 ,0.48353 ,4.74438 
360 ,65.8636 ,1.15245 ,0.46984 ,4.61007 
361 ,66.0556 ,1.15428 ,0.44931 ,4.40860 
362 ,66.2478 ,1.15629 ,0.44588 ,4.37502 
363 ,66.4393 ,1.15819 ,0.44246 ,4.34144 
364 ,66.6159 ,1.16001 ,0.42535 ,4.17355 
365 ,66.7920 ,1.16174 ,0.41166 ,4.03924 
366 ,66.9679 ,1.16355 ,0.41851 ,4.10640 
367 ,67.1442 ,1.16533 ,0.40140 ,3.93850 
368 ,67.3363 ,1.16712 ,0.38086 ,3.73703 
369 ,67.5119 ,1.16895 ,0.36718 ,3.60272 
370 ,67.6883 ,1.17071 ,0.36033 ,3.53557 
371 ,67.8803 ,1.17262 ,0.34322 ,3.36767 
372 ,68.0566 ,1.17441 ,0.32953 ,3.23336 
373 ,68.2646 ,1.17638 ,0.32953 ,3.23336 
374 ,68.4407 ,1.17823 ,0.31584 ,3.09905 
375 ,68.6488 ,1.18024 ,0.31926 ,3.13263 
376 ,68.8249 ,1.18211 ,0.30215 ,2.96473 
377 ,69.0170 ,1.18402 ,0.27135 ,2.66253 
378 ,69.1931 ,1.18574 ,0.28162 ,2.76326 
379 ,69.3691 ,1.18756 ,0.28162 ,2.76326 
380 ,69.5610 ,1.18937 ,0.24055 ,2.36032 
381 ,69.7372 ,1.19122 ,0.23371 ,2.29317 
382 ,69.9292 ,1.19311 ,0.25082 ,2.46106 
383 ,70.1053 ,1.19489 ,0.23713 ,2.32675 
384 ,70.2815 ,1.19664 ,0.20633 ,2.02454 
385 ,70.4895 ,1.19868 ,0.20633 ,2.02454 
386 ,70.6653 ,1.20046 ,0.20291 ,1.99096 
387 ,70.8416 ,1.20229 ,0.18238 ,1.78949 
388 ,71.0337 ,1.20417 ,0.17211 ,1.68876 
389 ,71.2417 ,1.20621 ,0.14131 ,1.38655 
390 ,71.4181 ,1.20802 ,0.14816 ,1.45371 
391 ,71.6098 ,1.20987 ,0.14131 ,1.38655 
392 ,71.7860 ,1.21168 ,0.12762 ,1.25224 
393 ,71.9621 ,1.21343 ,0.11051 ,1.08435 
394 ,72.1542 ,1.21535 ,0.10709 ,1.05077 
395 ,72.3462 ,1.21723 ,0.09340 ,0.91646 
396 ,72.5223 ,1.21898 ,0.07971 ,0.78214 
397 ,72.7144 ,1.22089 ,0.07629 ,0.74857 
398 ,72.8903 ,1.22269 ,0.07971 ,0.78214 
399 ,73.0665 ,1.22445 ,0.05576 ,0.54710 
400 ,73.2425 ,1.22621 ,0.04207 ,0.41278 
401 ,73.4189 ,1.22801 ,0.03180 ,0.31205 
402 ,73.6108 ,1.22987 ,0.02496 ,0.24489 
403 ,73.8028 ,1.23180 ,0.01811 ,0.17773 
404 ,73.9950 ,1.23372 ,0.00100 ,0.00984 
405 ,74.1866 ,1.23567 ,-0.00242 ,-0.02373 
406 ,74.3631 ,1.23745 ,-0.02637 ,-0.25878 
407 ,74.5550 ,1.23939 ,-0.02637 ,-0.25878 
408 ,74.7472 ,1.24127 ,-0.02980 ,-0.29236 
409 ,74.9230 ,1.24302 ,-0.05375 ,-0.52741 
410 ,75.0994 ,1.24480 ,-0.05717 ,-0.56099 
411 ,75.2755 ,1.24656 ,-0.06744 ,-0.66172 
412 ,75.4352 ,1.24827 ,-0.07428 ,-0.72888 
413 ,75.5952 ,1.24988 ,-0.08113 ,-0.79604 
414 ,75.7715 ,1.25152 ,-0.07428 ,-0.72888 
415 ,75.9634 ,1.25348 ,-0.08455 ,-0.82961 
416 ,76.1401 ,1.25519 ,-0.11193 ,-1.09824 
417 ,76.3161 ,1.25697 ,-0.13588 ,-1.33329 
418 ,76.4916 ,1.25880 ,-0.12904 ,-1.26613 
419 ,76.6517 ,1.26048 ,-0.13588 ,-1.33329 
420 ,76.8280 ,1.26210 ,-0.14273 ,-1.40045 
421 ,77.0202 ,1.26399 ,-0.15642 ,-1.53476 
422 ,77.1962 ,1.26574 ,-0.16326 ,-1.60191 
423 ,77.3884 ,1.26772 ,-0.15984 ,-1.56834 
424 ,77.5645 ,1.26947 ,-0.18037 ,-1.76981 
425 ,77.7403 ,1.27122 ,-0.20433 ,-2.00485 
426 ,77.9325 ,1.27301 ,-0.22486 ,-2.20632 
427 ,78.1243 ,1.27506 ,-0.21117 ,-2.07201 
428 ,78.3007 ,1.27680 ,-0.21802 ,-2.13917 
429 ,78.4927 ,1.27871 ,-0.21802 ,-2.13917 
430 ,78.6849 ,1.28052 ,-0.23855 ,-2.34064 
431 ,78.8769 ,1.28258 ,-0.25224 ,-2.47495 
432 ,79.0529 ,1.28437 ,-0.26593 ,-2.60926 
433 ,79.2291 ,1.28603 ,-0.25908 ,-2.54211 
434 ,79.4052 ,1.28782 ,-0.27961 ,-2.74358 
435 ,79.5811 ,1.28954 ,-0.30015 ,-2.94505 
436 ,79.7571 ,1.29134 ,-0.28988 ,-2.84431 
437 ,79.9333 ,1.29317 ,-0.29673 ,-2.91147 
438 ,80.1255 ,1.29505 ,-0.30015 ,-2.94505 
439 ,80.3014 ,1.29686 ,-0.31041 ,-3.04578 
440 ,80.4934 ,1.29862 ,-0.33095 ,-3.24725 
441 ,80.6856 ,1.30064 ,-0.32410 ,-3.18010 
442 ,80.8778 ,1.30254 ,-0.36859 ,-3.61661 
443 ,81.0698 ,1.30456 ,-0.34806 ,-3.41514 
444 ,81.2455 ,1.30622 ,-0.35148 ,-3.44872 
445 ,81.4222 ,1.30800 ,-0.37201 ,-3.65019 
446 ,81.6301 ,1.31005 ,-0.37886 ,-3.71735 
447 ,81.8061 ,1.31187 ,-0.36859 ,-3.61661 
448 ,81.9821 ,1.31361 ,-0.40281 ,-3.95240 
449 ,82.1583 ,1.31534 ,-0.41308 ,-4.05313 
450 ,82.3344 ,1.31715 ,-0.41992 ,-4.12029 
451 ,82.5264 ,1.31897 ,-0.42335 ,-4.15387 
452 ,82.7025 ,1.32081 ,-0.44046 ,-4.32176 
453 ,82.8786 ,1.32257 ,-0.44388 ,-4.35534 
454 ,83.0705 ,1.32445 ,-0.45072 ,-4.42249 
455 ,83.2467 ,1.32626 ,-0.44730 ,-4.38891 
456 ,83.4384 ,1.32815 ,-0.47126 ,-4.62396 
457 ,83.6308 ,1.33002 ,-0.46441 ,-4.55681 
458 ,83.8225 ,1.33190 ,-0.48494 ,-4.75828 
459 ,84.0150 ,1.33394 ,-0.50206 ,-4.92617 
460 ,84.1910 ,1.33568 ,-0.49863 ,-4.89259 
461 ,84.3832 ,1.33758 ,-0.50206 ,-4.92617 
462 ,84.5592 ,1.33935 ,-0.52601 ,-5.16121 
463 ,84.7354 ,1.34113 ,-0.53970 ,-5.29553 
464 ,84.9273 ,1.34304 ,-0.52943 ,-5.19479 
