Data stamp = , 06-04-2022 18:37:01 868

Calibration Values: 
Slope = , 26.54 , g/V 
Offset Voltage at no contact = , -0.501760 , V 

No , Time , Stage Position ,   Mass , Force 
   ,  (s) ,      (mm)      ,   (g)  , (mN)  

1 ,0.0000 ,0.49930 ,5.21639 ,51.18317 
2 ,0.2155 ,0.49939 ,5.22665 ,51.28391 
3 ,0.5356 ,0.50025 ,5.21639 ,51.18317 
4 ,0.7438 ,0.50169 ,5.20612 ,51.08244 
5 ,0.9358 ,0.50345 ,5.23007 ,51.31749 
6 ,1.1120 ,0.50519 ,5.21296 ,51.14960 
7 ,1.3041 ,0.50703 ,5.22665 ,51.28391 
8 ,1.4960 ,0.50899 ,5.23350 ,51.35107 
9 ,1.6720 ,0.51079 ,5.21639 ,51.18317 
10 ,1.8801 ,0.51271 ,5.19585 ,50.98170 
11 ,2.0563 ,0.51477 ,5.18216 ,50.84739 
12 ,2.2325 ,0.51641 ,5.15821 ,50.61234 
13 ,2.4246 ,0.51820 ,5.14452 ,50.47803 
14 ,2.6165 ,0.52032 ,5.13083 ,50.34372 
15 ,2.8086 ,0.52214 ,5.11714 ,50.20940 
16 ,3.0005 ,0.52402 ,5.11372 ,50.17583 
17 ,3.1768 ,0.52578 ,5.08977 ,49.94078 
18 ,3.3528 ,0.52761 ,5.07608 ,49.80646 
19 ,3.5446 ,0.52941 ,5.04528 ,49.50426 
20 ,3.7210 ,0.53131 ,5.03843 ,49.43710 
21 ,3.9128 ,0.53320 ,5.01448 ,49.20205 
22 ,4.0890 ,0.53492 ,4.98710 ,48.93343 
23 ,4.2652 ,0.53669 ,4.99052 ,48.96701 
24 ,4.4413 ,0.53851 ,4.98710 ,48.93343 
25 ,4.6331 ,0.54039 ,4.94603 ,48.53049 
26 ,4.8255 ,0.54227 ,4.92892 ,48.36260 
27 ,5.0013 ,0.54411 ,4.91866 ,48.26186 
28 ,5.1776 ,0.54583 ,4.92550 ,48.32902 
29 ,5.3697 ,0.54778 ,4.86732 ,47.75819 
30 ,5.5457 ,0.54954 ,4.87417 ,47.82534 
31 ,5.7374 ,0.55144 ,4.86732 ,47.75819 
32 ,5.9138 ,0.55322 ,4.85364 ,47.62387 
33 ,6.0899 ,0.55495 ,4.81599 ,47.25451 
34 ,6.2661 ,0.55671 ,4.80915 ,47.18736 
35 ,6.4581 ,0.55858 ,4.79546 ,47.05304 
36 ,6.6341 ,0.56040 ,4.77150 ,46.81800 
37 ,6.8098 ,0.56215 ,4.75439 ,46.65010 
38 ,6.9863 ,0.56391 ,4.74413 ,46.54937 
39 ,7.1624 ,0.56563 ,4.73386 ,46.44863 
40 ,7.3382 ,0.56743 ,4.72359 ,46.34790 
41 ,7.5145 ,0.56920 ,4.70648 ,46.18001 
42 ,7.6906 ,0.57094 ,4.67911 ,45.91138 
43 ,7.8823 ,0.57285 ,4.67911 ,45.91138 
44 ,8.0584 ,0.57461 ,4.65857 ,45.70991 
45 ,8.2345 ,0.57638 ,4.63804 ,45.50844 
46 ,8.4108 ,0.57813 ,4.61066 ,45.23981 
47 ,8.6030 ,0.57993 ,4.60724 ,45.20624 
48 ,8.8110 ,0.58209 ,4.58671 ,45.00477 
49 ,8.9871 ,0.58390 ,4.56617 ,44.80330 
50 ,9.1632 ,0.58566 ,4.56617 ,44.80330 
51 ,9.3394 ,0.58745 ,4.56617 ,44.80330 
52 ,9.5312 ,0.58938 ,4.52853 ,44.43394 
53 ,9.6913 ,0.59110 ,4.51826 ,44.33320 
54 ,9.8673 ,0.59273 ,4.50800 ,44.23247 
55 ,10.0435 ,0.59445 ,4.49089 ,44.06457 
56 ,10.2196 ,0.59618 ,4.48062 ,43.96384 
57 ,10.4116 ,0.59817 ,4.44298 ,43.59448 
58 ,10.5875 ,0.59992 ,4.44640 ,43.62806 
59 ,10.7798 ,0.60177 ,4.42929 ,43.46016 
60 ,10.9719 ,0.60376 ,4.40533 ,43.22512 
61 ,11.1479 ,0.60548 ,4.39507 ,43.12438 
62 ,11.3402 ,0.60742 ,4.39164 ,43.09080 
63 ,11.5320 ,0.60930 ,4.35742 ,42.75502 
64 ,11.6921 ,0.61109 ,4.34031 ,42.58713 
65 ,11.8682 ,0.61283 ,4.35058 ,42.68786 
66 ,12.0440 ,0.61452 ,4.32662 ,42.45282 
67 ,12.2201 ,0.61624 ,4.31293 ,42.31850 
68 ,12.4126 ,0.61815 ,4.28556 ,42.04988 
69 ,12.6202 ,0.62022 ,4.28898 ,42.08345 
70 ,12.7967 ,0.62200 ,4.26160 ,41.81483 
71 ,12.9885 ,0.62392 ,4.22396 ,41.44547 
72 ,13.1645 ,0.62566 ,4.22396 ,41.44547 
73 ,13.3409 ,0.62745 ,4.21369 ,41.34473 
74 ,13.5329 ,0.62937 ,4.18631 ,41.07611 
75 ,13.7090 ,0.63109 ,4.17605 ,40.97537 
76 ,13.8848 ,0.63291 ,4.17605 ,40.97537 
77 ,14.0771 ,0.63481 ,4.15551 ,40.77390 
78 ,14.2530 ,0.63660 ,4.14183 ,40.63959 
79 ,14.4289 ,0.63834 ,4.10418 ,40.27023 
80 ,14.6054 ,0.64009 ,4.11103 ,40.33738 
81 ,14.7976 ,0.64198 ,4.08365 ,40.06876 
82 ,14.9735 ,0.64377 ,4.06312 ,39.86729 
83 ,15.1656 ,0.64574 ,4.06996 ,39.93444 
84 ,15.3417 ,0.64742 ,4.04943 ,39.73297 
85 ,15.5338 ,0.64925 ,4.02889 ,39.53150 
86 ,15.7097 ,0.65115 ,4.00152 ,39.26288 
87 ,15.8857 ,0.65290 ,3.99809 ,39.22930 
88 ,16.0778 ,0.65479 ,3.98441 ,39.09499 
89 ,16.2540 ,0.65659 ,3.97756 ,39.02783 
90 ,16.4618 ,0.65855 ,3.96729 ,38.92709 
91 ,16.6703 ,0.66072 ,3.92965 ,38.55773 
92 ,16.8622 ,0.66259 ,3.92623 ,38.52415 
93 ,17.0544 ,0.66460 ,3.88516 ,38.12122 
94 ,17.2306 ,0.66638 ,3.89201 ,38.18837 
95 ,17.4225 ,0.66823 ,3.87832 ,38.05406 
96 ,17.5985 ,0.66998 ,3.87147 ,37.98690 
97 ,17.7907 ,0.67182 ,3.84752 ,37.75185 
98 ,17.9827 ,0.67383 ,3.83383 ,37.61754 
99 ,18.1587 ,0.67562 ,3.82014 ,37.48323 
100 ,18.3348 ,0.67736 ,3.79276 ,37.21460 
101 ,18.5109 ,0.67910 ,3.77223 ,37.01313 
102 ,18.6866 ,0.68091 ,3.76539 ,36.94597 
103 ,18.8631 ,0.68265 ,3.76196 ,36.91240 
104 ,19.0552 ,0.68453 ,3.72090 ,36.50946 
105 ,19.2471 ,0.68648 ,3.72090 ,36.50946 
106 ,19.4234 ,0.68826 ,3.70721 ,36.37514 
107 ,19.6154 ,0.69015 ,3.69352 ,36.24083 
108 ,19.7916 ,0.69195 ,3.67641 ,36.07294 
109 ,19.9835 ,0.69380 ,3.66957 ,36.00578 
110 ,20.1596 ,0.69557 ,3.64561 ,35.77073 
111 ,20.3517 ,0.69743 ,3.63534 ,35.67000 
112 ,20.5276 ,0.69929 ,3.62166 ,35.53569 
113 ,20.7195 ,0.70113 ,3.60797 ,35.40137 
114 ,20.9118 ,0.70314 ,3.56690 ,34.99843 
115 ,21.0877 ,0.70487 ,3.57717 ,35.09917 
116 ,21.2801 ,0.70675 ,3.55663 ,34.89770 
117 ,21.4560 ,0.70855 ,3.54295 ,34.76338 
118 ,21.6321 ,0.71033 ,3.52241 ,34.56192 
119 ,21.8242 ,0.71225 ,3.52241 ,34.56192 
120 ,22.0324 ,0.71426 ,3.49161 ,34.25971 
121 ,22.2083 ,0.71614 ,3.47450 ,34.09182 
122 ,22.3845 ,0.71785 ,3.46424 ,33.99108 
123 ,22.5605 ,0.71960 ,3.46081 ,33.95751 
124 ,22.7363 ,0.72136 ,3.43344 ,33.68888 
125 ,22.9127 ,0.72315 ,3.40948 ,33.45383 
126 ,23.1048 ,0.72502 ,3.41975 ,33.55457 
127 ,23.2807 ,0.72684 ,3.40264 ,33.38667 
128 ,23.4728 ,0.72871 ,3.37184 ,33.08447 
129 ,23.6650 ,0.73054 ,3.36842 ,33.05089 
130 ,23.8410 ,0.73241 ,3.35815 ,32.95016 
131 ,24.0171 ,0.73413 ,3.32735 ,32.64795 
132 ,24.1929 ,0.73591 ,3.30682 ,32.44648 
133 ,24.3692 ,0.73765 ,3.29997 ,32.37933 
134 ,24.5611 ,0.73959 ,3.29655 ,32.34575 
135 ,24.7535 ,0.74143 ,3.26917 ,32.07712 
136 ,24.9454 ,0.74341 ,3.26233 ,32.00996 
137 ,25.1216 ,0.74523 ,3.24180 ,31.80849 
138 ,25.2977 ,0.74697 ,3.22811 ,31.67418 
139 ,25.4737 ,0.74876 ,3.20757 ,31.47271 
140 ,25.6813 ,0.75066 ,3.21442 ,31.53987 
141 ,25.8579 ,0.75255 ,3.18704 ,31.27124 
142 ,26.0499 ,0.75449 ,3.16651 ,31.06977 
143 ,26.2421 ,0.75638 ,3.15624 ,30.96904 
144 ,26.4180 ,0.75818 ,3.14597 ,30.86830 
145 ,26.6102 ,0.76009 ,3.13229 ,30.73399 
146 ,26.7863 ,0.76185 ,3.10833 ,30.49894 
147 ,26.9619 ,0.76373 ,3.08438 ,30.26389 
148 ,27.1383 ,0.76539 ,3.08095 ,30.23031 
149 ,27.3306 ,0.76730 ,3.07069 ,30.12958 
150 ,27.5066 ,0.76901 ,3.06726 ,30.09600 
151 ,27.6985 ,0.77089 ,3.04331 ,29.86095 
152 ,27.8747 ,0.77269 ,3.03647 ,29.79380 
153 ,28.0665 ,0.77459 ,3.03304 ,29.76022 
154 ,28.2429 ,0.77640 ,3.01251 ,29.55875 
155 ,28.4346 ,0.77826 ,2.97487 ,29.18939 
156 ,28.6111 ,0.78004 ,2.97829 ,29.22297 
157 ,28.8030 ,0.78192 ,2.96118 ,29.05507 
158 ,28.9952 ,0.78383 ,2.95433 ,28.98792 
159 ,29.1870 ,0.78574 ,2.94064 ,28.85360 
160 ,29.3792 ,0.78771 ,2.90985 ,28.55140 
161 ,29.5553 ,0.78949 ,2.89273 ,28.38351 
162 ,29.7474 ,0.79137 ,2.90300 ,28.48424 
163 ,29.9234 ,0.79320 ,2.88589 ,28.31635 
164 ,30.0996 ,0.79494 ,2.86878 ,28.14846 
165 ,30.2918 ,0.79682 ,2.84482 ,27.91341 
166 ,30.4998 ,0.79892 ,2.81402 ,27.61121 
167 ,30.6759 ,0.80077 ,2.82087 ,27.67836 
168 ,30.8520 ,0.80253 ,2.79691 ,27.44332 
169 ,31.0440 ,0.80438 ,2.79349 ,27.40974 
170 ,31.2038 ,0.80607 ,2.77638 ,27.24185 
171 ,31.3801 ,0.80781 ,2.77638 ,27.24185 
172 ,31.5562 ,0.80953 ,2.75585 ,27.04038 
173 ,31.7483 ,0.81139 ,2.74558 ,26.93964 
174 ,31.9563 ,0.81351 ,2.71478 ,26.63744 
175 ,32.1327 ,0.81530 ,2.70452 ,26.53670 
176 ,32.3081 ,0.81706 ,2.70452 ,26.53670 
177 ,32.5006 ,0.81890 ,2.70109 ,26.50312 
178 ,32.6926 ,0.82091 ,2.67714 ,26.26807 
179 ,32.8686 ,0.82262 ,2.66345 ,26.13376 
180 ,33.0604 ,0.82448 ,2.62923 ,25.79798 
181 ,33.2369 ,0.82632 ,2.61896 ,25.69724 
182 ,33.4129 ,0.82810 ,2.60527 ,25.56293 
183 ,33.5889 ,0.82983 ,2.61896 ,25.69724 
184 ,33.7650 ,0.83154 ,2.59158 ,25.42862 
185 ,33.9572 ,0.83349 ,2.57105 ,25.22715 
186 ,34.1493 ,0.83535 ,2.54367 ,24.95852 
187 ,34.3416 ,0.83728 ,2.54025 ,24.92494 
188 ,34.5492 ,0.83935 ,2.53683 ,24.89136 
189 ,34.7416 ,0.84130 ,2.51630 ,24.68989 
190 ,34.9335 ,0.84320 ,2.49918 ,24.52200 
191 ,35.1252 ,0.84519 ,2.50261 ,24.55558 
192 ,35.3173 ,0.84704 ,2.46496 ,24.18622 
193 ,35.4933 ,0.84885 ,2.45812 ,24.11906 
194 ,35.6696 ,0.85062 ,2.45812 ,24.11906 
195 ,35.8940 ,0.85279 ,2.42048 ,23.74970 
196 ,36.0700 ,0.85467 ,2.42390 ,23.78328 
197 ,36.2460 ,0.85639 ,2.39310 ,23.48108 
198 ,36.4222 ,0.85819 ,2.39994 ,23.54823 
199 ,36.6142 ,0.86002 ,2.38625 ,23.41392 
200 ,36.7903 ,0.86188 ,2.36914 ,23.24603 
201 ,36.9825 ,0.86369 ,2.37256 ,23.27961 
202 ,37.1745 ,0.86567 ,2.33150 ,22.87667 
203 ,37.3666 ,0.86762 ,2.32808 ,22.84309 
204 ,37.5743 ,0.86955 ,2.31097 ,22.67520 
205 ,37.7507 ,0.87146 ,2.30412 ,22.60804 
206 ,37.9267 ,0.87324 ,2.28701 ,22.44015 
207 ,38.1029 ,0.87493 ,2.26306 ,22.20510 
208 ,38.2789 ,0.87671 ,2.24252 ,22.00363 
209 ,38.4709 ,0.87864 ,2.24252 ,22.00363 
210 ,38.6627 ,0.88055 ,2.22541 ,21.83574 
211 ,38.8390 ,0.88230 ,2.20488 ,21.63427 
212 ,39.0152 ,0.88417 ,2.20146 ,21.60069 
213 ,39.1912 ,0.88582 ,2.19119 ,21.49996 
214 ,39.3672 ,0.88756 ,2.18777 ,21.46638 
215 ,39.5435 ,0.88936 ,2.15697 ,21.16417 
216 ,39.7353 ,0.89122 ,2.14328 ,21.02986 
217 ,39.9117 ,0.89309 ,2.13644 ,20.96270 
218 ,40.0876 ,0.89479 ,2.11590 ,20.76123 
219 ,40.2958 ,0.89685 ,2.10221 ,20.62692 
220 ,40.4878 ,0.89873 ,2.08168 ,20.42545 
221 ,40.6639 ,0.90068 ,2.05430 ,20.15682 
222 ,40.8236 ,0.90229 ,2.05773 ,20.19040 
223 ,41.0000 ,0.90395 ,2.03377 ,19.95535 
224 ,41.1922 ,0.90587 ,2.02693 ,19.88820 
225 ,41.3681 ,0.90761 ,2.02350 ,19.85462 
226 ,41.5601 ,0.90953 ,2.00639 ,19.68673 
227 ,41.7365 ,0.91129 ,1.98586 ,19.48526 
228 ,41.9279 ,0.91317 ,1.98244 ,19.45168 
229 ,42.1044 ,0.91495 ,1.96875 ,19.31737 
230 ,42.2805 ,0.91676 ,1.93795 ,19.01516 
231 ,42.4723 ,0.91865 ,1.94822 ,19.11590 
232 ,42.6487 ,0.92040 ,1.93111 ,18.94801 
233 ,42.8568 ,0.92243 ,1.91057 ,18.74654 
234 ,43.0328 ,0.92429 ,1.89346 ,18.57864 
235 ,43.2088 ,0.92596 ,1.88319 ,18.47791 
236 ,43.3849 ,0.92776 ,1.85582 ,18.20928 
237 ,43.5609 ,0.92950 ,1.84213 ,18.07497 
238 ,43.7531 ,0.93145 ,1.85582 ,18.20928 
239 ,43.9292 ,0.93321 ,1.82844 ,17.94066 
240 ,44.1213 ,0.93515 ,1.80791 ,17.73919 
241 ,44.2973 ,0.93695 ,1.81133 ,17.77276 
242 ,44.4735 ,0.93865 ,1.79764 ,17.63845 
243 ,44.6656 ,0.94050 ,1.76684 ,17.33625 
244 ,44.8418 ,0.94238 ,1.76684 ,17.33625 
245 ,45.0336 ,0.94415 ,1.74973 ,17.16836 
246 ,45.2097 ,0.94604 ,1.72920 ,16.96689 
247 ,45.4017 ,0.94780 ,1.71893 ,16.86615 
248 ,45.5779 ,0.94969 ,1.71209 ,16.79899 
249 ,45.7700 ,0.95161 ,1.70182 ,16.69826 
250 ,45.9461 ,0.95336 ,1.67786 ,16.46321 
251 ,46.1219 ,0.95517 ,1.65049 ,16.19458 
252 ,46.2982 ,0.95689 ,1.66075 ,16.29532 
253 ,46.5063 ,0.95891 ,1.64022 ,16.09385 
254 ,46.6824 ,0.96073 ,1.63338 ,16.02669 
255 ,46.8744 ,0.96267 ,1.61969 ,15.89238 
256 ,47.0667 ,0.96455 ,1.59573 ,15.65733 
257 ,47.2430 ,0.96633 ,1.58204 ,15.52302 
258 ,47.4187 ,0.96805 ,1.58547 ,15.55660 
259 ,47.5949 ,0.96983 ,1.57520 ,15.45586 
260 ,47.7869 ,0.97169 ,1.54098 ,15.12008 
261 ,47.9630 ,0.97350 ,1.53413 ,15.05292 
262 ,48.1393 ,0.97525 ,1.53413 ,15.05292 
263 ,48.3311 ,0.97715 ,1.52387 ,14.95219 
264 ,48.5069 ,0.97901 ,1.49991 ,14.71714 
265 ,48.6830 ,0.98072 ,1.47938 ,14.51567 
266 ,48.8593 ,0.98245 ,1.48622 ,14.58283 
267 ,49.0356 ,0.98423 ,1.47596 ,14.48209 
268 ,49.2116 ,0.98605 ,1.46569 ,14.38136 
269 ,49.3876 ,0.98776 ,1.43831 ,14.11273 
270 ,49.5636 ,0.98953 ,1.43489 ,14.07915 
271 ,49.7396 ,0.99128 ,1.41436 ,13.87768 
272 ,49.9320 ,0.99311 ,1.41436 ,13.87768 
273 ,50.1239 ,0.99512 ,1.38698 ,13.60906 
274 ,50.2999 ,0.99688 ,1.36987 ,13.44116 
275 ,50.4920 ,0.99875 ,1.38014 ,13.54190 
276 ,50.6681 ,1.00057 ,1.34249 ,13.17254 
277 ,50.8602 ,1.00239 ,1.34591 ,13.20612 
278 ,51.0521 ,1.00436 ,1.32196 ,12.97107 
279 ,51.2283 ,1.00618 ,1.30485 ,12.80318 
280 ,51.4040 ,1.00789 ,1.29458 ,12.70244 
281 ,51.5803 ,1.00966 ,1.28432 ,12.60171 
282 ,51.7886 ,1.01168 ,1.27747 ,12.53455 
283 ,51.9643 ,1.01356 ,1.26378 ,12.40024 
284 ,52.1566 ,1.01546 ,1.26720 ,12.43381 
285 ,52.3485 ,1.01724 ,1.24667 ,12.23235 
286 ,52.5245 ,1.01915 ,1.21587 ,11.93014 
287 ,52.7009 ,1.02090 ,1.21587 ,11.93014 
288 ,52.8930 ,1.02278 ,1.21245 ,11.89656 
289 ,53.0691 ,1.02462 ,1.18850 ,11.66151 
290 ,53.2772 ,1.02659 ,1.18165 ,11.59436 
291 ,53.4692 ,1.02848 ,1.16454 ,11.42647 
292 ,53.6613 ,1.03048 ,1.15770 ,11.35931 
293 ,53.8377 ,1.03226 ,1.15085 ,11.29215 
294 ,54.0135 ,1.03402 ,1.13716 ,11.15784 
295 ,54.1910 ,1.03580 ,1.11663 ,10.95637 
296 ,54.3816 ,1.03771 ,1.11321 ,10.92279 
297 ,54.5737 ,1.03965 ,1.10294 ,10.82206 
298 ,54.7495 ,1.04139 ,1.06872 ,10.48627 
299 ,54.9420 ,1.04327 ,1.07556 ,10.55343 
300 ,55.1178 ,1.04507 ,1.05845 ,10.38554 
301 ,55.3099 ,1.04688 ,1.02765 ,10.08333 
302 ,55.4860 ,1.04871 ,1.02081 ,10.01618 
303 ,55.6938 ,1.05064 ,1.01739 ,9.98260 
304 ,55.8701 ,1.05260 ,1.00370 ,9.84829 
305 ,56.0782 ,1.05454 ,0.99001 ,9.71397 
306 ,56.2543 ,1.05642 ,0.97632 ,9.57966 
307 ,56.4305 ,1.05817 ,0.96263 ,9.44535 
308 ,56.6224 ,1.05998 ,0.94552 ,9.27745 
309 ,56.8145 ,1.06193 ,0.93183 ,9.14314 
310 ,56.9904 ,1.06372 ,0.91814 ,9.00883 
311 ,57.1824 ,1.06569 ,0.90788 ,8.90809 
312 ,57.3747 ,1.06760 ,0.91472 ,8.97525 
313 ,57.5668 ,1.06955 ,0.89419 ,8.77378 
314 ,57.7431 ,1.07129 ,0.89419 ,8.77378 
315 ,57.9348 ,1.07320 ,0.87708 ,8.60589 
316 ,58.1107 ,1.07496 ,0.86339 ,8.47158 
317 ,58.2868 ,1.07668 ,0.84286 ,8.27011 
318 ,58.4633 ,1.07852 ,0.83601 ,8.20295 
319 ,58.6553 ,1.08038 ,0.83601 ,8.20295 
320 ,58.8315 ,1.08221 ,0.79837 ,7.83359 
321 ,59.0394 ,1.08417 ,0.81206 ,7.96790 
322 ,59.2316 ,1.08619 ,0.78468 ,7.69927 
323 ,59.4074 ,1.08795 ,0.76415 ,7.49780 
324 ,59.5996 ,1.08986 ,0.78126 ,7.66570 
325 ,59.7757 ,1.09162 ,0.77099 ,7.56496 
326 ,59.9515 ,1.09336 ,0.74019 ,7.26276 
327 ,60.1439 ,1.09516 ,0.73335 ,7.19560 
328 ,60.3362 ,1.09715 ,0.71281 ,6.99413 
329 ,60.5277 ,1.09908 ,0.69570 ,6.82624 
330 ,60.7040 ,1.10085 ,0.69570 ,6.82624 
331 ,60.8801 ,1.10267 ,0.69913 ,6.85982 
332 ,61.0562 ,1.10438 ,0.66148 ,6.49046 
333 ,61.2321 ,1.10618 ,0.66490 ,6.52403 
334 ,61.4083 ,1.10789 ,0.65806 ,6.45688 
335 ,61.5844 ,1.10967 ,0.65121 ,6.38972 
336 ,61.7605 ,1.11142 ,0.64779 ,6.35614 
337 ,61.9525 ,1.11338 ,0.62042 ,6.08752 
338 ,62.1284 ,1.11509 ,0.61699 ,6.05394 
339 ,62.3207 ,1.11693 ,0.59988 ,5.88605 
340 ,62.4969 ,1.11878 ,0.58962 ,5.78531 
341 ,62.6889 ,1.12069 ,0.58277 ,5.71815 
342 ,62.8808 ,1.12258 ,0.58277 ,5.71815 
343 ,63.0571 ,1.12437 ,0.54513 ,5.34879 
344 ,63.2332 ,1.12627 ,0.56224 ,5.51668 
345 ,63.4252 ,1.12806 ,0.53828 ,5.28164 
346 ,63.6173 ,1.12996 ,0.52459 ,5.14732 
347 ,63.8093 ,1.13185 ,0.51091 ,5.01301 
348 ,64.0014 ,1.13382 ,0.50748 ,4.97943 
349 ,64.1772 ,1.13560 ,0.49722 ,4.87870 
350 ,64.3696 ,1.13746 ,0.47668 ,4.67723 
351 ,64.5776 ,1.13953 ,0.46300 ,4.54291 
352 ,64.7537 ,1.14135 ,0.45273 ,4.44218 
353 ,64.9457 ,1.14329 ,0.45273 ,4.44218 
354 ,65.1377 ,1.14509 ,0.44931 ,4.40860 
355 ,65.3460 ,1.14726 ,0.44246 ,4.34144 
356 ,65.5381 ,1.14920 ,0.41166 ,4.03924 
357 ,65.7300 ,1.15109 ,0.40482 ,3.97208 
358 ,65.9063 ,1.15285 ,0.39797 ,3.90493 
359 ,66.0822 ,1.15468 ,0.39797 ,3.90493 
360 ,66.2581 ,1.15640 ,0.37402 ,3.66988 
361 ,66.4344 ,1.15817 ,0.34664 ,3.40125 
362 ,66.6104 ,1.15992 ,0.35691 ,3.50199 
363 ,66.8024 ,1.16175 ,0.34322 ,3.36767 
364 ,66.9786 ,1.16360 ,0.33295 ,3.26694 
365 ,67.1707 ,1.16556 ,0.30558 ,2.99831 
366 ,67.3627 ,1.16746 ,0.32269 ,3.16620 
367 ,67.5387 ,1.16916 ,0.28847 ,2.83042 
368 ,67.7150 ,1.17097 ,0.29189 ,2.86400 
369 ,67.9391 ,1.17304 ,0.27820 ,2.72969 
370 ,68.1151 ,1.17498 ,0.26109 ,2.56179 
371 ,68.2912 ,1.17670 ,0.26793 ,2.62895 
372 ,68.4671 ,1.17846 ,0.26451 ,2.59537 
373 ,68.6592 ,1.18037 ,0.22344 ,2.19243 
374 ,68.8670 ,1.18243 ,0.22687 ,2.22601 
375 ,69.0435 ,1.18426 ,0.23029 ,2.25959 
376 ,69.2354 ,1.18619 ,0.20633 ,2.02454 
377 ,69.4117 ,1.18788 ,0.20291 ,1.99096 
378 ,69.5873 ,1.18969 ,0.18922 ,1.85665 
379 ,69.7638 ,1.19146 ,0.18922 ,1.85665 
380 ,69.9559 ,1.19336 ,0.16185 ,1.58802 
381 ,70.1480 ,1.19523 ,0.15842 ,1.55445 
382 ,70.3404 ,1.19721 ,0.13789 ,1.35298 
383 ,70.5320 ,1.19907 ,0.11051 ,1.08435 
384 ,70.6921 ,1.20082 ,0.13105 ,1.28582 
385 ,70.8681 ,1.20248 ,0.12420 ,1.21866 
386 ,71.0444 ,1.20425 ,0.10367 ,1.01719 
387 ,71.2365 ,1.20611 ,0.08656 ,0.84930 
388 ,71.4445 ,1.20811 ,0.08998 ,0.88288 
389 ,71.6366 ,1.21018 ,0.05576 ,0.54710 
390 ,71.8444 ,1.21207 ,0.07287 ,0.71499 
391 ,72.0365 ,1.21419 ,0.04207 ,0.41278 
392 ,72.2124 ,1.21594 ,0.04549 ,0.44636 
393 ,72.3887 ,1.21766 ,0.03522 ,0.34563 
394 ,72.5649 ,1.21946 ,0.02838 ,0.27847 
395 ,72.7889 ,1.22158 ,0.01469 ,0.14416 
396 ,72.9811 ,1.22356 ,-0.01269 ,-0.12447 
397 ,73.1731 ,1.22556 ,-0.00926 ,-0.09089 
398 ,73.3653 ,1.22744 ,-0.02295 ,-0.22520 
399 ,73.5573 ,1.22930 ,-0.03664 ,-0.35952 
400 ,73.7335 ,1.23111 ,-0.03664 ,-0.35952 
401 ,73.9255 ,1.23312 ,-0.07428 ,-0.72888 
402 ,74.1176 ,1.23496 ,-0.05033 ,-0.49383 
403 ,74.2937 ,1.23672 ,-0.06402 ,-0.62814 
404 ,74.4855 ,1.23860 ,-0.07771 ,-0.76246 
405 ,74.6618 ,1.24042 ,-0.09824 ,-0.96393 
406 ,74.8536 ,1.24223 ,-0.09482 ,-0.93035 
407 ,75.0460 ,1.24418 ,-0.11535 ,-1.13182 
408 ,75.2376 ,1.24617 ,-0.11877 ,-1.16540 
409 ,75.4302 ,1.24800 ,-0.13588 ,-1.33329 
410 ,75.6222 ,1.25003 ,-0.13931 ,-1.36687 
411 ,75.7983 ,1.25179 ,-0.16326 ,-1.60191 
412 ,75.9738 ,1.25363 ,-0.13931 ,-1.36687 
413 ,76.1505 ,1.25532 ,-0.15642 ,-1.53476 
414 ,76.3265 ,1.25705 ,-0.17353 ,-1.70265 
415 ,76.5026 ,1.25879 ,-0.19064 ,-1.87054 
416 ,76.6785 ,1.26055 ,-0.20090 ,-1.97128 
417 ,76.8703 ,1.26253 ,-0.20433 ,-2.00485 
418 ,77.0466 ,1.26423 ,-0.21117 ,-2.07201 
419 ,77.2229 ,1.26600 ,-0.21459 ,-2.10559 
420 ,77.4150 ,1.26788 ,-0.21117 ,-2.07201 
421 ,77.6392 ,1.26994 ,-0.23513 ,-2.30706 
422 ,77.8309 ,1.27211 ,-0.24197 ,-2.37422 
423 ,78.0072 ,1.27383 ,-0.25224 ,-2.47495 
424 ,78.1992 ,1.27576 ,-0.28304 ,-2.77716 
425 ,78.4073 ,1.27788 ,-0.26935 ,-2.64284 
426 ,78.5834 ,1.27957 ,-0.28988 ,-2.84431 
427 ,78.7598 ,1.28141 ,-0.31041 ,-3.04578 
428 ,78.9516 ,1.28332 ,-0.29673 ,-2.91147 
429 ,79.1592 ,1.28517 ,-0.31384 ,-3.07936 
430 ,79.3357 ,1.28714 ,-0.31041 ,-3.04578 
431 ,79.5118 ,1.28884 ,-0.31384 ,-3.07936 
432 ,79.6877 ,1.29064 ,-0.33437 ,-3.28083 
433 ,79.8797 ,1.29256 ,-0.35148 ,-3.44872 
434 ,80.0560 ,1.29431 ,-0.34806 ,-3.41514 
435 ,80.2318 ,1.29609 ,-0.34806 ,-3.41514 
436 ,80.4243 ,1.29797 ,-0.37201 ,-3.65019 
437 ,80.6158 ,1.29988 ,-0.37201 ,-3.65019 
438 ,80.7923 ,1.30167 ,-0.37544 ,-3.68377 
439 ,80.9844 ,1.30349 ,-0.40623 ,-3.98597 
440 ,81.1926 ,1.30559 ,-0.39597 ,-3.88524 
441 ,81.4005 ,1.30773 ,-0.41308 ,-4.05313 
442 ,81.5926 ,1.30972 ,-0.41308 ,-4.05313 
443 ,81.7687 ,1.31144 ,-0.43019 ,-4.22102 
444 ,81.9447 ,1.31319 ,-0.45414 ,-4.45607 
445 ,82.1369 ,1.31508 ,-0.44046 ,-4.32176 
446 ,82.3289 ,1.31696 ,-0.44388 ,-4.35534 
447 ,82.5212 ,1.31899 ,-0.48837 ,-4.79185 
448 ,82.7133 ,1.32090 ,-0.47126 ,-4.62396 
449 ,82.9053 ,1.32270 ,-0.48837 ,-4.79185 
450 ,83.0975 ,1.32473 ,-0.48152 ,-4.72470 
451 ,83.2895 ,1.32662 ,-0.50548 ,-4.95975 
452 ,83.4651 ,1.32846 ,-0.51574 ,-5.06048 
453 ,83.6574 ,1.33025 ,-0.52943 ,-5.19479 
454 ,83.8337 ,1.33210 ,-0.50890 ,-4.99332 
455 ,84.0095 ,1.33388 ,-0.54654 ,-5.36268 
456 ,84.2017 ,1.33578 ,-0.54997 ,-5.39626 
457 ,84.5216 ,1.33898 ,-0.57050 ,-5.59773 
458 ,84.7140 ,1.34086 ,-0.56708 ,-5.56415 
459 ,84.9060 ,1.34273 ,-0.58761 ,-5.76562 
460 ,85.0983 ,1.34471 ,-0.57392 ,-5.63131 
461 ,85.2903 ,1.34667 ,-0.60814 ,-5.96709 
462 ,85.4662 ,1.34841 ,-0.62183 ,-6.10141 
463 ,85.6425 ,1.35018 ,-0.60130 ,-5.89994 
464 ,85.8183 ,1.35190 ,-0.60814 ,-5.96709 
