Data stamp = , 06-04-2022 14:21:44 447

Calibration Values: 
Slope = , 26.54 , g/V 
Offset Voltage at no contact = , -0.501760 , V 

No , Time , Stage Position ,   Mass , Force 
   ,  (s) ,      (mm)      ,   (g)  , (mN)  

1 ,0.0000 ,0.49936 ,5.27456 ,51.75401 
2 ,0.2078 ,0.49943 ,5.27456 ,51.75401 
3 ,0.5600 ,0.50038 ,5.29167 ,51.92190 
4 ,0.7520 ,0.50184 ,5.29510 ,51.95548 
5 ,0.9440 ,0.50350 ,5.27114 ,51.72043 
6 ,1.1202 ,0.50529 ,5.30194 ,52.02263 
7 ,1.2963 ,0.50704 ,5.28483 ,51.85474 
8 ,1.4722 ,0.50889 ,5.27114 ,51.72043 
9 ,1.6483 ,0.51061 ,5.26087 ,51.61969 
10 ,1.8244 ,0.51232 ,5.26087 ,51.61969 
11 ,2.0006 ,0.51417 ,5.24034 ,51.41822 
12 ,2.1765 ,0.51592 ,5.23692 ,51.38464 
13 ,2.3525 ,0.51765 ,5.21639 ,51.18317 
14 ,2.5287 ,0.51943 ,5.19243 ,50.94813 
15 ,2.7047 ,0.52121 ,5.21296 ,51.14960 
16 ,2.8807 ,0.52294 ,5.19243 ,50.94813 
17 ,3.0407 ,0.52466 ,5.17532 ,50.78023 
18 ,3.2169 ,0.52627 ,5.16848 ,50.71308 
19 ,3.3930 ,0.52807 ,5.13425 ,50.37729 
20 ,3.5691 ,0.52979 ,5.12056 ,50.24298 
21 ,3.7452 ,0.53156 ,5.10003 ,50.04151 
22 ,3.9212 ,0.53332 ,5.09319 ,49.97436 
23 ,4.0812 ,0.53505 ,5.08977 ,49.94078 
24 ,4.2413 ,0.53666 ,5.07265 ,49.77289 
25 ,4.4175 ,0.53829 ,5.05554 ,49.60499 
26 ,4.5936 ,0.54005 ,5.04185 ,49.47068 
27 ,4.7695 ,0.54182 ,5.02817 ,49.33637 
28 ,4.9457 ,0.54357 ,5.00079 ,49.06774 
29 ,5.1216 ,0.54532 ,4.99394 ,49.00058 
30 ,5.2817 ,0.54708 ,4.99394 ,49.00058 
31 ,5.4418 ,0.54865 ,4.97341 ,48.79911 
32 ,5.6177 ,0.55033 ,4.96999 ,48.76554 
33 ,5.7779 ,0.55202 ,4.94603 ,48.53049 
34 ,5.9539 ,0.55365 ,4.93577 ,48.42975 
35 ,6.1301 ,0.55539 ,4.90497 ,48.12755 
36 ,6.3061 ,0.55721 ,4.89812 ,48.06039 
37 ,6.4822 ,0.55896 ,4.88444 ,47.92608 
38 ,6.6422 ,0.56065 ,4.88444 ,47.92608 
39 ,6.8344 ,0.56240 ,4.86048 ,47.69103 
40 ,7.0105 ,0.56421 ,4.84337 ,47.52314 
41 ,7.1865 ,0.56597 ,4.81257 ,47.22093 
42 ,7.3625 ,0.56772 ,4.80573 ,47.15378 
43 ,7.5227 ,0.56945 ,4.80573 ,47.15378 
44 ,7.6987 ,0.57106 ,4.79546 ,47.05304 
45 ,7.8748 ,0.57291 ,4.75439 ,46.65010 
46 ,8.0508 ,0.57466 ,4.76124 ,46.71726 
47 ,8.2268 ,0.57636 ,4.74070 ,46.51579 
48 ,8.4031 ,0.57811 ,4.72359 ,46.34790 
49 ,8.5790 ,0.57990 ,4.72359 ,46.34790 
50 ,8.7553 ,0.58164 ,4.71333 ,46.24716 
51 ,8.9311 ,0.58347 ,4.65857 ,45.70991 
52 ,9.0914 ,0.58512 ,4.65857 ,45.70991 
53 ,9.2513 ,0.58672 ,4.64488 ,45.57560 
54 ,9.4274 ,0.58837 ,4.63462 ,45.47486 
55 ,9.6037 ,0.59011 ,4.61751 ,45.30697 
56 ,9.7796 ,0.59190 ,4.62777 ,45.40771 
57 ,9.9557 ,0.59371 ,4.59355 ,45.07192 
58 ,10.1318 ,0.59541 ,4.59355 ,45.07192 
59 ,10.3078 ,0.59722 ,4.56960 ,44.83688 
60 ,10.4838 ,0.59898 ,4.54906 ,44.63541 
61 ,10.6599 ,0.60066 ,4.52853 ,44.43394 
62 ,10.8358 ,0.60247 ,4.52169 ,44.36678 
63 ,11.0121 ,0.60422 ,4.51826 ,44.33320 
64 ,11.1882 ,0.60595 ,4.48404 ,43.99742 
65 ,11.3642 ,0.60774 ,4.47035 ,43.86310 
66 ,11.5404 ,0.60949 ,4.45666 ,43.72879 
67 ,11.7162 ,0.61127 ,4.44298 ,43.59448 
68 ,11.8925 ,0.61303 ,4.43613 ,43.52732 
69 ,12.0525 ,0.61472 ,4.41902 ,43.35943 
70 ,12.2125 ,0.61633 ,4.38822 ,43.05723 
71 ,12.3886 ,0.61797 ,4.39164 ,43.09080 
72 ,12.5647 ,0.61972 ,4.36427 ,42.82218 
73 ,12.7407 ,0.62149 ,4.36084 ,42.78860 
74 ,12.9168 ,0.62324 ,4.35058 ,42.68786 
75 ,13.0929 ,0.62499 ,4.35058 ,42.68786 
76 ,13.2689 ,0.62681 ,4.33004 ,42.48639 
77 ,13.4451 ,0.62853 ,4.28898 ,42.08345 
78 ,13.6212 ,0.63029 ,4.28213 ,42.01630 
79 ,13.7811 ,0.63204 ,4.27187 ,41.91556 
80 ,13.9413 ,0.63363 ,4.26160 ,41.81483 
81 ,14.1173 ,0.63526 ,4.23080 ,41.51262 
82 ,14.2933 ,0.63701 ,4.23765 ,41.57978 
83 ,14.4535 ,0.63874 ,4.20685 ,41.27758 
84 ,14.6296 ,0.64039 ,4.21369 ,41.34473 
85 ,14.8057 ,0.64213 ,4.18974 ,41.10968 
86 ,14.9818 ,0.64388 ,4.16236 ,40.84106 
87 ,15.1739 ,0.64578 ,4.16578 ,40.87464 
88 ,15.3499 ,0.64761 ,4.14867 ,40.70674 
89 ,15.5258 ,0.64931 ,4.13156 ,40.53885 
90 ,15.6859 ,0.65105 ,4.12129 ,40.43812 
91 ,15.8621 ,0.65269 ,4.09049 ,40.13591 
92 ,16.0381 ,0.65444 ,4.07680 ,40.00160 
93 ,16.2142 ,0.65619 ,4.08365 ,40.06876 
94 ,16.3905 ,0.65801 ,4.06312 ,39.86729 
95 ,16.5505 ,0.65972 ,4.04258 ,39.66582 
96 ,16.7265 ,0.66129 ,4.03574 ,39.59866 
97 ,16.8867 ,0.66307 ,4.00152 ,39.26288 
98 ,17.0627 ,0.66469 ,4.00152 ,39.26288 
99 ,17.2388 ,0.66650 ,3.98783 ,39.12856 
100 ,17.4149 ,0.66819 ,3.97756 ,39.02783 
101 ,17.5909 ,0.67002 ,3.97414 ,38.99425 
102 ,17.7509 ,0.67170 ,3.94334 ,38.69205 
103 ,17.9110 ,0.67333 ,3.92965 ,38.55773 
104 ,18.0711 ,0.67492 ,3.91254 ,38.38984 
105 ,18.2471 ,0.67651 ,3.91596 ,38.42342 
106 ,18.4072 ,0.67826 ,3.88174 ,38.08764 
107 ,18.5833 ,0.67989 ,3.87147 ,37.98690 
108 ,18.7593 ,0.68167 ,3.86121 ,37.88617 
109 ,18.9353 ,0.68346 ,3.86121 ,37.88617 
110 ,19.1114 ,0.68524 ,3.82699 ,37.55038 
111 ,19.2715 ,0.68690 ,3.82699 ,37.55038 
112 ,19.4476 ,0.68856 ,3.82014 ,37.48323 
113 ,19.6237 ,0.69028 ,3.79276 ,37.21460 
114 ,19.7999 ,0.69209 ,3.76881 ,36.97955 
115 ,19.9759 ,0.69381 ,3.76539 ,36.94597 
116 ,20.1518 ,0.69557 ,3.75854 ,36.87882 
117 ,20.3119 ,0.69732 ,3.75854 ,36.87882 
118 ,20.4719 ,0.69888 ,3.73117 ,36.61019 
119 ,20.6320 ,0.70050 ,3.72090 ,36.50946 
120 ,20.7922 ,0.70210 ,3.70721 ,36.37514 
121 ,20.9522 ,0.70371 ,3.69352 ,36.24083 
122 ,21.1122 ,0.70528 ,3.67641 ,36.07294 
123 ,21.2722 ,0.70693 ,3.65930 ,35.90505 
124 ,21.4324 ,0.70850 ,3.65246 ,35.83789 
125 ,21.6085 ,0.71014 ,3.63877 ,35.70358 
126 ,21.8006 ,0.71205 ,3.61481 ,35.46853 
127 ,21.9606 ,0.71381 ,3.59770 ,35.30064 
128 ,22.1366 ,0.71541 ,3.58401 ,35.16632 
129 ,22.3125 ,0.71726 ,3.56690 ,34.99843 
130 ,22.4728 ,0.71890 ,3.56690 ,34.99843 
131 ,22.6489 ,0.72051 ,3.56006 ,34.93128 
132 ,22.8249 ,0.72228 ,3.53952 ,34.72981 
133 ,23.0013 ,0.72406 ,3.51215 ,34.46118 
134 ,23.1611 ,0.72579 ,3.49161 ,34.25971 
135 ,23.3372 ,0.72739 ,3.48819 ,34.22613 
136 ,23.5133 ,0.72916 ,3.47792 ,34.12540 
137 ,23.7053 ,0.73104 ,3.46766 ,34.02466 
138 ,23.8813 ,0.73287 ,3.44713 ,33.82319 
139 ,24.0414 ,0.73459 ,3.43344 ,33.68888 
140 ,24.2175 ,0.73621 ,3.41290 ,33.48741 
141 ,24.3937 ,0.73800 ,3.41290 ,33.48741 
142 ,24.5697 ,0.73977 ,3.39921 ,33.35310 
143 ,24.7456 ,0.74146 ,3.38895 ,33.25236 
144 ,24.9218 ,0.74324 ,3.37868 ,33.15163 
145 ,25.0980 ,0.74499 ,3.35473 ,32.91658 
146 ,25.2738 ,0.74678 ,3.33762 ,32.74869 
147 ,25.4500 ,0.74856 ,3.32051 ,32.58080 
148 ,25.6260 ,0.75035 ,3.32051 ,32.58080 
149 ,25.8023 ,0.75206 ,3.29313 ,32.31217 
150 ,25.9782 ,0.75385 ,3.27944 ,32.17786 
151 ,26.1542 ,0.75558 ,3.26575 ,32.04354 
152 ,26.3303 ,0.75733 ,3.25891 ,31.97639 
153 ,26.4905 ,0.75908 ,3.25206 ,31.90923 
154 ,26.6664 ,0.76065 ,3.23153 ,31.70776 
155 ,26.8425 ,0.76252 ,3.20757 ,31.47271 
156 ,27.0187 ,0.76418 ,3.19731 ,31.37198 
157 ,27.2107 ,0.76614 ,3.19046 ,31.30482 
158 ,27.3866 ,0.76791 ,3.18704 ,31.27124 
159 ,27.5628 ,0.76963 ,3.16309 ,31.03619 
160 ,27.7227 ,0.77137 ,3.13913 ,30.80115 
161 ,27.8990 ,0.77300 ,3.13571 ,30.76757 
162 ,28.0750 ,0.77476 ,3.10491 ,30.46536 
163 ,28.2511 ,0.77654 ,3.10149 ,30.43178 
164 ,28.4112 ,0.77826 ,3.09464 ,30.36463 
165 ,28.5711 ,0.77987 ,3.08438 ,30.26389 
166 ,28.7312 ,0.78148 ,3.07411 ,30.16316 
167 ,28.8913 ,0.78304 ,3.06042 ,30.02884 
168 ,29.0835 ,0.78481 ,3.05358 ,29.96169 
169 ,29.2755 ,0.78669 ,3.01593 ,29.59233 
170 ,29.4516 ,0.78852 ,2.99882 ,29.42444 
171 ,29.6276 ,0.79029 ,2.99198 ,29.35728 
172 ,29.8037 ,0.79204 ,2.99198 ,29.35728 
173 ,29.9957 ,0.79390 ,2.95776 ,29.02150 
174 ,30.1718 ,0.79574 ,2.95776 ,29.02150 
175 ,30.3479 ,0.79747 ,2.93722 ,28.82003 
176 ,30.5239 ,0.79927 ,2.93722 ,28.82003 
177 ,30.7159 ,0.80110 ,2.90642 ,28.51782 
178 ,30.8921 ,0.80297 ,2.88931 ,28.34993 
179 ,31.0682 ,0.80472 ,2.88247 ,28.28277 
180 ,31.2444 ,0.80644 ,2.88247 ,28.28277 
181 ,31.4203 ,0.80823 ,2.86193 ,28.08130 
182 ,31.5965 ,0.80995 ,2.84482 ,27.91341 
183 ,31.7724 ,0.81177 ,2.82087 ,27.67836 
184 ,31.9326 ,0.81346 ,2.82087 ,27.67836 
185 ,32.1084 ,0.81511 ,2.79691 ,27.44332 
186 ,32.2846 ,0.81686 ,2.80376 ,27.51047 
187 ,32.4608 ,0.81862 ,2.79007 ,27.37616 
188 ,32.6527 ,0.82043 ,2.76954 ,27.17469 
189 ,32.8128 ,0.82227 ,2.74900 ,26.97322 
190 ,32.9889 ,0.82393 ,2.73874 ,26.87248 
191 ,33.1651 ,0.82568 ,2.72163 ,26.70459 
192 ,33.3411 ,0.82743 ,2.72163 ,26.70459 
193 ,33.5011 ,0.82913 ,2.70794 ,26.57028 
194 ,33.6614 ,0.83075 ,2.67029 ,26.20092 
195 ,33.8372 ,0.83235 ,2.67029 ,26.20092 
196 ,34.0135 ,0.83412 ,2.65318 ,26.03303 
197 ,34.1894 ,0.83591 ,2.64292 ,25.93229 
198 ,34.3655 ,0.83770 ,2.62581 ,25.76440 
199 ,34.5416 ,0.83942 ,2.62923 ,25.79798 
200 ,34.7176 ,0.84120 ,2.60527 ,25.56293 
201 ,34.8777 ,0.84290 ,2.58816 ,25.39504 
202 ,35.0537 ,0.84452 ,2.56421 ,25.15999 
203 ,35.2299 ,0.84630 ,2.56078 ,25.12641 
204 ,35.4220 ,0.84818 ,2.56763 ,25.19357 
205 ,35.6141 ,0.85008 ,2.53341 ,24.85779 
206 ,35.7902 ,0.85193 ,2.53341 ,24.85779 
207 ,35.9663 ,0.85362 ,2.51287 ,24.65632 
208 ,36.1423 ,0.85543 ,2.50945 ,24.62274 
209 ,36.3185 ,0.85719 ,2.51287 ,24.65632 
210 ,36.4783 ,0.85892 ,2.46496 ,24.18622 
211 ,36.6545 ,0.86053 ,2.45812 ,24.11906 
212 ,36.8306 ,0.86230 ,2.43759 ,23.91759 
213 ,37.0065 ,0.86408 ,2.42732 ,23.81686 
214 ,37.1826 ,0.86580 ,2.42390 ,23.78328 
215 ,37.3427 ,0.86755 ,2.41363 ,23.68255 
216 ,37.5188 ,0.86917 ,2.40679 ,23.61539 
217 ,37.6949 ,0.87095 ,2.38283 ,23.38034 
218 ,37.8710 ,0.87268 ,2.35888 ,23.14529 
219 ,38.0470 ,0.87449 ,2.34177 ,22.97740 
220 ,38.2233 ,0.87621 ,2.34177 ,22.97740 
221 ,38.3992 ,0.87799 ,2.33492 ,22.91024 
222 ,38.5758 ,0.87974 ,2.31439 ,22.70877 
223 ,38.7512 ,0.88162 ,2.28701 ,22.44015 
224 ,38.9274 ,0.88322 ,2.28359 ,22.40657 
225 ,39.0874 ,0.88497 ,2.26990 ,22.27226 
226 ,39.2636 ,0.88660 ,2.26648 ,22.23868 
227 ,39.4397 ,0.88837 ,2.24937 ,22.07079 
228 ,39.6156 ,0.89010 ,2.24937 ,22.07079 
229 ,39.7918 ,0.89197 ,2.21857 ,21.76858 
230 ,39.9517 ,0.89363 ,2.20146 ,21.60069 
231 ,40.1118 ,0.89520 ,2.17750 ,21.36564 
232 ,40.2880 ,0.89682 ,2.17750 ,21.36564 
233 ,40.4641 ,0.89861 ,2.16381 ,21.23133 
234 ,40.6401 ,0.90039 ,2.15697 ,21.16417 
235 ,40.8001 ,0.90211 ,2.15012 ,21.09702 
236 ,40.9762 ,0.90368 ,2.13301 ,20.92912 
237 ,41.1523 ,0.90549 ,2.10906 ,20.69408 
238 ,41.3284 ,0.90728 ,2.09537 ,20.55976 
239 ,41.5045 ,0.90900 ,2.08852 ,20.49261 
240 ,41.6804 ,0.91081 ,2.08168 ,20.42545 
241 ,41.8566 ,0.91250 ,2.07826 ,20.39187 
242 ,42.0328 ,0.91428 ,2.05430 ,20.15682 
243 ,42.2087 ,0.91606 ,2.03035 ,19.92178 
244 ,42.3848 ,0.91781 ,2.01666 ,19.78746 
245 ,42.5609 ,0.91957 ,2.02693 ,19.88820 
246 ,42.7369 ,0.92131 ,2.01324 ,19.75388 
247 ,42.9130 ,0.92308 ,1.98928 ,19.51884 
248 ,43.0892 ,0.92488 ,1.97559 ,19.38452 
249 ,43.2652 ,0.92661 ,1.95848 ,19.21663 
250 ,43.4413 ,0.92839 ,1.94479 ,19.08232 
251 ,43.6173 ,0.93011 ,1.94137 ,19.04874 
252 ,43.7935 ,0.93192 ,1.92768 ,18.91443 
253 ,43.9534 ,0.93364 ,1.90373 ,18.67938 
254 ,44.1296 ,0.93526 ,1.90031 ,18.64580 
255 ,44.3056 ,0.93705 ,1.87977 ,18.44433 
256 ,44.4817 ,0.93877 ,1.88319 ,18.47791 
257 ,44.6576 ,0.94058 ,1.87977 ,18.44433 
258 ,44.8338 ,0.94228 ,1.84213 ,18.07497 
259 ,45.0100 ,0.94407 ,1.82844 ,17.94066 
260 ,45.1859 ,0.94578 ,1.81133 ,17.77276 
261 ,45.3619 ,0.94757 ,1.81133 ,17.77276 
262 ,45.5221 ,0.94929 ,1.79764 ,17.63845 
263 ,45.6821 ,0.95095 ,1.78737 ,17.53772 
264 ,45.8582 ,0.95256 ,1.77711 ,17.43698 
265 ,46.0343 ,0.95428 ,1.76684 ,17.33625 
266 ,46.2104 ,0.95604 ,1.73604 ,17.03404 
267 ,46.3864 ,0.95780 ,1.72920 ,16.96689 
268 ,46.5625 ,0.95955 ,1.71551 ,16.83257 
269 ,46.7387 ,0.96132 ,1.71551 ,16.83257 
270 ,46.9146 ,0.96311 ,1.70182 ,16.69826 
271 ,47.0746 ,0.96481 ,1.67444 ,16.42963 
272 ,47.2508 ,0.96645 ,1.66075 ,16.29532 
273 ,47.4269 ,0.96824 ,1.65049 ,16.19458 
274 ,47.6031 ,0.97003 ,1.64022 ,16.09385 
275 ,47.7791 ,0.97177 ,1.63338 ,16.02669 
276 ,47.9550 ,0.97347 ,1.62995 ,15.99311 
277 ,48.1310 ,0.97528 ,1.60942 ,15.79164 
278 ,48.3071 ,0.97697 ,1.58204 ,15.52302 
279 ,48.4671 ,0.97876 ,1.57862 ,15.48944 
280 ,48.6434 ,0.98038 ,1.56836 ,15.38871 
281 ,48.8195 ,0.98213 ,1.55467 ,15.25439 
282 ,48.9955 ,0.98391 ,1.55467 ,15.25439 
283 ,49.1716 ,0.98569 ,1.54440 ,15.15366 
284 ,49.3316 ,0.98738 ,1.50333 ,14.75072 
285 ,49.5076 ,0.98900 ,1.49991 ,14.71714 
286 ,49.6677 ,0.99073 ,1.47938 ,14.51567 
287 ,49.8438 ,0.99238 ,1.46569 ,14.38136 
288 ,50.0198 ,0.99417 ,1.46569 ,14.38136 
289 ,50.1959 ,0.99592 ,1.47938 ,14.51567 
290 ,50.3720 ,0.99764 ,1.45542 ,14.28062 
291 ,50.5321 ,0.99940 ,1.42805 ,14.01199 
292 ,50.7082 ,1.00101 ,1.42805 ,14.01199 
293 ,50.8842 ,1.00278 ,1.40751 ,13.81053 
294 ,51.0762 ,1.00471 ,1.40409 ,13.77695 
295 ,51.2524 ,1.00644 ,1.39383 ,13.67621 
296 ,51.4124 ,1.00821 ,1.37329 ,13.47474 
297 ,51.5885 ,1.00984 ,1.37329 ,13.47474 
298 ,51.7645 ,1.01159 ,1.33907 ,13.13896 
299 ,51.9407 ,1.01334 ,1.33223 ,13.07180 
300 ,52.1168 ,1.01506 ,1.34591 ,13.20612 
301 ,52.2929 ,1.01685 ,1.32538 ,13.00465 
302 ,52.4528 ,1.01860 ,1.30143 ,12.76960 
303 ,52.6290 ,1.02025 ,1.29800 ,12.73602 
304 ,52.8051 ,1.02197 ,1.27063 ,12.46739 
305 ,52.9812 ,1.02371 ,1.27405 ,12.50097 
306 ,53.1571 ,1.02554 ,1.25009 ,12.26592 
307 ,53.3333 ,1.02724 ,1.24667 ,12.23235 
308 ,53.5092 ,1.02903 ,1.23641 ,12.13161 
309 ,53.6854 ,1.03087 ,1.22272 ,11.99730 
310 ,53.8616 ,1.03258 ,1.20561 ,11.82941 
311 ,54.0375 ,1.03441 ,1.19534 ,11.72867 
312 ,54.2136 ,1.03612 ,1.18850 ,11.66151 
313 ,54.3897 ,1.03784 ,1.17481 ,11.52720 
314 ,54.5497 ,1.03956 ,1.14401 ,11.22500 
315 ,54.7258 ,1.04115 ,1.15085 ,11.29215 
316 ,54.8858 ,1.04293 ,1.13032 ,11.09068 
317 ,55.0620 ,1.04456 ,1.10979 ,10.88921 
318 ,55.2381 ,1.04628 ,1.11321 ,10.92279 
319 ,55.4141 ,1.04807 ,1.10636 ,10.85563 
320 ,55.5902 ,1.04985 ,1.09610 ,10.75490 
321 ,55.7501 ,1.05154 ,1.07214 ,10.51985 
322 ,55.9263 ,1.05316 ,1.06187 ,10.41912 
323 ,56.1023 ,1.05492 ,1.05161 ,10.31838 
324 ,56.2944 ,1.05680 ,1.04134 ,10.21765 
325 ,56.4706 ,1.05862 ,1.03792 ,10.18407 
326 ,56.6627 ,1.06050 ,1.00712 ,9.88186 
327 ,56.8548 ,1.06251 ,1.02423 ,10.04976 
328 ,57.0469 ,1.06432 ,0.98659 ,9.68039 
329 ,57.2230 ,1.06617 ,0.95921 ,9.41177 
330 ,57.3991 ,1.06795 ,0.94894 ,9.31103 
331 ,57.5911 ,1.06988 ,0.94894 ,9.31103 
332 ,57.7833 ,1.07177 ,0.94210 ,9.24388 
333 ,57.9913 ,1.07372 ,0.93868 ,9.21030 
334 ,58.1673 ,1.07562 ,0.92157 ,9.04241 
335 ,58.3754 ,1.07761 ,0.91472 ,8.97525 
336 ,58.5673 ,1.07951 ,0.88392 ,8.67305 
337 ,58.7435 ,1.08135 ,0.87366 ,8.57231 
338 ,58.9356 ,1.08328 ,0.86681 ,8.50515 
339 ,59.1117 ,1.08502 ,0.85997 ,8.43800 
340 ,59.3198 ,1.08699 ,0.83601 ,8.20295 
341 ,59.5118 ,1.08906 ,0.84286 ,8.27011 
342 ,59.7041 ,1.09085 ,0.81206 ,7.96790 
343 ,59.8960 ,1.09286 ,0.80179 ,7.86717 
344 ,60.0881 ,1.09471 ,0.79152 ,7.76643 
345 ,60.2802 ,1.09675 ,0.77099 ,7.56496 
346 ,60.4562 ,1.09843 ,0.75046 ,7.36349 
347 ,60.6323 ,1.10022 ,0.77099 ,7.56496 
348 ,60.8404 ,1.10228 ,0.74361 ,7.29633 
349 ,61.0485 ,1.10433 ,0.72992 ,7.16202 
350 ,61.2406 ,1.10624 ,0.71281 ,6.99413 
351 ,61.4164 ,1.10805 ,0.70597 ,6.92697 
352 ,61.5927 ,1.10986 ,0.70255 ,6.89340 
353 ,61.7687 ,1.11158 ,0.70255 ,6.89340 
354 ,61.9449 ,1.11332 ,0.66833 ,6.55761 
355 ,62.1529 ,1.11539 ,0.67175 ,6.59119 
356 ,62.3290 ,1.11716 ,0.64779 ,6.35614 
357 ,62.5053 ,1.11889 ,0.64437 ,6.32256 
358 ,62.6812 ,1.12074 ,0.60673 ,5.95320 
359 ,62.8733 ,1.12262 ,0.62042 ,6.08752 
360 ,63.0496 ,1.12439 ,0.61015 ,5.98678 
361 ,63.2255 ,1.12614 ,0.58277 ,5.71815 
362 ,63.4017 ,1.12792 ,0.57593 ,5.65100 
363 ,63.5778 ,1.12962 ,0.56908 ,5.58384 
364 ,63.7699 ,1.13162 ,0.56908 ,5.58384 
365 ,63.9456 ,1.13332 ,0.56224 ,5.51668 
366 ,64.1220 ,1.13513 ,0.54855 ,5.38237 
367 ,64.2980 ,1.13685 ,0.51775 ,5.08017 
368 ,64.4901 ,1.13880 ,0.52459 ,5.14732 
369 ,64.6822 ,1.14058 ,0.50064 ,4.91228 
370 ,64.8581 ,1.14248 ,0.48353 ,4.74438 
371 ,65.0505 ,1.14427 ,0.47326 ,4.64365 
372 ,65.2584 ,1.14646 ,0.46642 ,4.57649 
373 ,65.4345 ,1.14822 ,0.45615 ,4.47576 
374 ,65.6135 ,1.15001 ,0.44588 ,4.37502 
375 ,65.8029 ,1.15192 ,0.43220 ,4.24071 
376 ,65.9946 ,1.15383 ,0.41509 ,4.07282 
377 ,66.1708 ,1.15559 ,0.41509 ,4.07282 
378 ,66.3630 ,1.15740 ,0.41166 ,4.03924 
379 ,66.5390 ,1.15925 ,0.37060 ,3.63630 
380 ,66.7310 ,1.16121 ,0.37744 ,3.70346 
381 ,66.9070 ,1.16291 ,0.37402 ,3.66988 
382 ,67.0832 ,1.16469 ,0.36033 ,3.53557 
383 ,67.2594 ,1.16642 ,0.33980 ,3.33410 
384 ,67.4353 ,1.16827 ,0.35006 ,3.43483 
385 ,67.6116 ,1.17002 ,0.33295 ,3.26694 
386 ,67.8033 ,1.17193 ,0.32953 ,3.23336 
387 ,67.9797 ,1.17367 ,0.31242 ,3.06547 
388 ,68.1556 ,1.17542 ,0.27820 ,2.72969 
389 ,68.3318 ,1.17724 ,0.26793 ,2.62895 
390 ,68.5078 ,1.17899 ,0.27820 ,2.72969 
391 ,68.6836 ,1.18069 ,0.27820 ,2.72969 
392 ,68.8600 ,1.18246 ,0.24398 ,2.39390 
393 ,69.0520 ,1.18429 ,0.25424 ,2.49464 
394 ,69.2442 ,1.18633 ,0.24055 ,2.36032 
395 ,69.4363 ,1.18820 ,0.20633 ,2.02454 
396 ,69.6443 ,1.19014 ,0.21318 ,2.09170 
397 ,69.8363 ,1.19222 ,0.18922 ,1.85665 
398 ,70.0124 ,1.19399 ,0.18238 ,1.78949 
399 ,70.1882 ,1.19572 ,0.18922 ,1.85665 
400 ,70.3646 ,1.19753 ,0.17896 ,1.75592 
401 ,70.5726 ,1.19955 ,0.15500 ,1.52087 
402 ,70.7488 ,1.20133 ,0.14131 ,1.38655 
403 ,70.9408 ,1.20330 ,0.13789 ,1.35298 
404 ,71.1168 ,1.20505 ,0.12420 ,1.21866 
405 ,71.3091 ,1.20693 ,0.10709 ,1.05077 
406 ,71.5011 ,1.20887 ,0.09682 ,0.95004 
407 ,71.6768 ,1.21075 ,0.08314 ,0.81572 
408 ,71.8531 ,1.21237 ,0.07287 ,0.71499 
409 ,72.0291 ,1.21413 ,0.06945 ,0.68141 
410 ,72.2053 ,1.21588 ,0.06945 ,0.68141 
411 ,72.3815 ,1.21769 ,0.05576 ,0.54710 
412 ,72.5573 ,1.21945 ,0.03180 ,0.31205 
413 ,72.7656 ,1.22150 ,0.03865 ,0.37920 
414 ,72.9417 ,1.22333 ,0.02496 ,0.24489 
415 ,73.1333 ,1.22516 ,0.00443 ,0.04342 
416 ,73.3098 ,1.22697 ,-0.00926 ,-0.09089 
417 ,73.4857 ,1.22869 ,-0.00926 ,-0.09089 
418 ,73.6778 ,1.23059 ,-0.01953 ,-0.19163 
419 ,73.8700 ,1.23260 ,-0.02637 ,-0.25878 
420 ,74.0621 ,1.23438 ,-0.05375 ,-0.52741 
421 ,74.2702 ,1.23647 ,-0.05375 ,-0.52741 
422 ,74.4458 ,1.23832 ,-0.05717 ,-0.56099 
423 ,74.6223 ,1.24007 ,-0.05375 ,-0.52741 
424 ,74.9424 ,1.24328 ,-0.06744 ,-0.66172 
425 ,75.1344 ,1.24519 ,-0.10508 ,-1.03108 
426 ,75.3267 ,1.24713 ,-0.10851 ,-1.06466 
427 ,75.4862 ,1.24885 ,-0.10166 ,-0.99751 
428 ,75.6784 ,1.25055 ,-0.12562 ,-1.23255 
429 ,75.8548 ,1.25239 ,-0.14273 ,-1.40045 
430 ,76.0628 ,1.25442 ,-0.12562 ,-1.23255 
431 ,76.2388 ,1.25621 ,-0.15642 ,-1.53476 
432 ,76.4151 ,1.25803 ,-0.15984 ,-1.56834 
433 ,76.6071 ,1.25988 ,-0.17011 ,-1.66907 
434 ,76.7831 ,1.26165 ,-0.17695 ,-1.73623 
435 ,76.9592 ,1.26341 ,-0.18722 ,-1.83696 
436 ,77.1514 ,1.26529 ,-0.20433 ,-2.00485 
437 ,77.3274 ,1.26716 ,-0.22144 ,-2.17275 
438 ,77.5032 ,1.26886 ,-0.21802 ,-2.13917 
439 ,77.6795 ,1.27065 ,-0.23170 ,-2.27348 
440 ,77.8558 ,1.27239 ,-0.23170 ,-2.27348 
441 ,78.0477 ,1.27433 ,-0.25566 ,-2.50853 
442 ,78.2398 ,1.27627 ,-0.25908 ,-2.54211 
443 ,78.4158 ,1.27797 ,-0.25566 ,-2.50853 
444 ,78.5918 ,1.27972 ,-0.28304 ,-2.77716 
445 ,78.7520 ,1.28148 ,-0.30357 ,-2.97863 
446 ,78.9280 ,1.28307 ,-0.30015 ,-2.94505 
447 ,79.1040 ,1.28484 ,-0.30357 ,-2.97863 
448 ,79.2963 ,1.28677 ,-0.31041 ,-3.04578 
449 ,79.4721 ,1.28860 ,-0.33095 ,-3.24725 
450 ,79.6644 ,1.29043 ,-0.32068 ,-3.14652 
451 ,79.8564 ,1.29239 ,-0.32410 ,-3.18010 
452 ,80.0325 ,1.29415 ,-0.34806 ,-3.41514 
453 ,80.2087 ,1.29590 ,-0.35832 ,-3.51588 
454 ,80.4327 ,1.29803 ,-0.37201 ,-3.65019 
455 ,80.6088 ,1.29991 ,-0.38912 ,-3.81808 
456 ,80.8007 ,1.30177 ,-0.37201 ,-3.65019 
457 ,80.9930 ,1.30375 ,-0.38570 ,-3.78450 
458 ,81.1685 ,1.30550 ,-0.39939 ,-3.91882 
459 ,81.3451 ,1.30727 ,-0.41308 ,-4.05313 
460 ,81.5211 ,1.30902 ,-0.41650 ,-4.08671 
461 ,81.6971 ,1.31078 ,-0.41308 ,-4.05313 
462 ,81.8888 ,1.31273 ,-0.44046 ,-4.32176 
463 ,82.0654 ,1.31450 ,-0.45414 ,-4.45607 
464 ,82.2734 ,1.31646 ,-0.45757 ,-4.48965 
