Data stamp = , 07-04-2022 18:18:34 143

Calibration Values: 
Slope = , 26.54 , g/V 
Offset Voltage at no contact = , -0.501760 , V 

No , Time , Stage Position ,   Mass , Force 
   ,  (s) ,      (mm)      ,   (g)  , (mN)  

1 ,0.0000 ,0.49933 ,5.20612 ,51.08244 
2 ,0.2615 ,0.49946 ,5.22323 ,51.25033 
3 ,0.7418 ,0.50103 ,5.20612 ,51.08244 
4 ,0.9661 ,0.50360 ,5.20954 ,51.11602 
5 ,1.1739 ,0.50576 ,5.19243 ,50.94813 
6 ,1.3662 ,0.50761 ,5.21639 ,51.18317 
7 ,1.5581 ,0.50953 ,5.20270 ,51.04886 
8 ,1.7184 ,0.51135 ,5.18216 ,50.84739 
9 ,1.9104 ,0.51315 ,5.18216 ,50.84739 
10 ,2.0866 ,0.51491 ,5.15821 ,50.61234 
11 ,2.2786 ,0.51679 ,5.13768 ,50.41087 
12 ,2.4868 ,0.51888 ,5.13083 ,50.34372 
13 ,2.6626 ,0.52073 ,5.11714 ,50.20940 
14 ,2.8549 ,0.52250 ,5.06923 ,49.73931 
15 ,3.0308 ,0.52438 ,5.06239 ,49.67215 
16 ,3.2230 ,0.52624 ,5.05897 ,49.63857 
17 ,3.4311 ,0.52833 ,5.02817 ,49.33637 
18 ,3.6231 ,0.53024 ,5.02474 ,49.30279 
19 ,3.7990 ,0.53201 ,4.99394 ,49.00058 
20 ,3.9754 ,0.53377 ,4.97683 ,48.83269 
21 ,4.1673 ,0.53575 ,4.97683 ,48.83269 
22 ,4.3435 ,0.53752 ,4.96315 ,48.69838 
23 ,4.5355 ,0.53938 ,4.91866 ,48.26186 
24 ,4.7117 ,0.54113 ,4.91523 ,48.22828 
25 ,4.8876 ,0.54300 ,4.91181 ,48.19471 
26 ,5.0638 ,0.54472 ,4.89812 ,48.06039 
27 ,5.2398 ,0.54641 ,4.86732 ,47.75819 
28 ,5.4481 ,0.54848 ,4.87075 ,47.79177 
29 ,5.6240 ,0.55031 ,4.83310 ,47.42240 
30 ,5.7998 ,0.55205 ,4.82626 ,47.35525 
31 ,5.9922 ,0.55389 ,4.78519 ,46.95231 
32 ,6.2162 ,0.55607 ,4.77835 ,46.88515 
33 ,6.3923 ,0.55798 ,4.76124 ,46.71726 
34 ,6.5682 ,0.55976 ,4.74413 ,46.54937 
35 ,6.7604 ,0.56154 ,4.73728 ,46.48221 
36 ,6.9362 ,0.56345 ,4.70648 ,46.18001 
37 ,7.1127 ,0.56517 ,4.68253 ,45.94496 
38 ,7.3206 ,0.56716 ,4.68937 ,46.01212 
39 ,7.4968 ,0.56899 ,4.67226 ,45.84422 
40 ,7.6888 ,0.57088 ,4.64831 ,45.60918 
41 ,7.8649 ,0.57269 ,4.64488 ,45.57560 
42 ,8.0245 ,0.57438 ,4.63462 ,45.47486 
43 ,8.2010 ,0.57600 ,4.61751 ,45.30697 
44 ,8.3931 ,0.57791 ,4.60040 ,45.13908 
45 ,8.5853 ,0.57984 ,4.56960 ,44.83688 
46 ,8.7774 ,0.58175 ,4.55933 ,44.73614 
47 ,8.9533 ,0.58358 ,4.54906 ,44.63541 
48 ,9.1454 ,0.58556 ,4.53880 ,44.53467 
49 ,9.3217 ,0.58722 ,4.52853 ,44.43394 
50 ,9.4976 ,0.58900 ,4.51826 ,44.33320 
51 ,9.6736 ,0.59081 ,4.48062 ,43.96384 
52 ,9.8657 ,0.59269 ,4.46693 ,43.82953 
53 ,10.0415 ,0.59441 ,4.47378 ,43.89668 
54 ,10.2179 ,0.59614 ,4.44982 ,43.66163 
55 ,10.4257 ,0.59814 ,4.44298 ,43.59448 
56 ,10.6018 ,0.60005 ,4.40875 ,43.25870 
57 ,10.7937 ,0.60187 ,4.40191 ,43.19154 
58 ,10.9538 ,0.60371 ,4.37453 ,42.92291 
59 ,11.1298 ,0.60529 ,4.35742 ,42.75502 
60 ,11.3063 ,0.60713 ,4.35400 ,42.72144 
61 ,11.5304 ,0.60932 ,4.33004 ,42.48639 
62 ,11.7226 ,0.61124 ,4.32662 ,42.45282 
63 ,11.9147 ,0.61315 ,4.29924 ,42.18419 
64 ,12.0747 ,0.61487 ,4.28556 ,42.04988 
65 ,12.2825 ,0.61666 ,4.27871 ,41.98272 
66 ,12.4589 ,0.61862 ,4.28213 ,42.01630 
67 ,12.6510 ,0.62053 ,4.23080 ,41.51262 
68 ,12.8271 ,0.62229 ,4.22738 ,41.47905 
69 ,13.0194 ,0.62414 ,4.23422 ,41.54620 
70 ,13.1953 ,0.62599 ,4.21027 ,41.31115 
71 ,13.3712 ,0.62774 ,4.18631 ,41.07611 
72 ,13.5474 ,0.62949 ,4.16920 ,40.90821 
73 ,13.7392 ,0.63134 ,4.17605 ,40.97537 
74 ,13.9315 ,0.63328 ,4.13498 ,40.57243 
75 ,14.1231 ,0.63525 ,4.14867 ,40.70674 
76 ,14.2995 ,0.63697 ,4.12129 ,40.43812 
77 ,14.4917 ,0.63886 ,4.08707 ,40.10233 
78 ,14.6834 ,0.64081 ,4.08707 ,40.10233 
79 ,14.8759 ,0.64262 ,4.08365 ,40.06876 
80 ,15.0677 ,0.64472 ,4.04600 ,39.69940 
81 ,15.2598 ,0.64653 ,4.04600 ,39.69940 
82 ,15.4357 ,0.64835 ,4.04600 ,39.69940 
83 ,15.6121 ,0.65011 ,4.01178 ,39.36361 
84 ,15.8041 ,0.65195 ,4.01863 ,39.43077 
85 ,15.9801 ,0.65377 ,3.98098 ,39.06141 
86 ,16.1724 ,0.65564 ,3.96729 ,38.92709 
87 ,16.3644 ,0.65759 ,3.95018 ,38.75920 
88 ,16.5564 ,0.65953 ,3.94676 ,38.72562 
89 ,16.7325 ,0.66126 ,3.92281 ,38.49058 
90 ,16.9247 ,0.66313 ,3.90570 ,38.32268 
91 ,17.1169 ,0.66511 ,3.88516 ,38.12122 
92 ,17.2929 ,0.66692 ,3.88516 ,38.12122 
93 ,17.4848 ,0.66881 ,3.85094 ,37.78543 
94 ,17.6770 ,0.67065 ,3.86121 ,37.88617 
95 ,17.8530 ,0.67253 ,3.84067 ,37.68470 
96 ,18.0291 ,0.67425 ,3.82699 ,37.55038 
97 ,18.2051 ,0.67601 ,3.78934 ,37.18102 
98 ,18.3813 ,0.67782 ,3.79961 ,37.28176 
99 ,18.5730 ,0.67973 ,3.77908 ,37.08029 
100 ,18.7494 ,0.68147 ,3.76881 ,36.97955 
101 ,18.9414 ,0.68340 ,3.75170 ,36.81166 
102 ,19.1177 ,0.68514 ,3.75170 ,36.81166 
103 ,19.3255 ,0.68722 ,3.70379 ,36.34157 
104 ,19.5016 ,0.68900 ,3.70379 ,36.34157 
105 ,19.6935 ,0.69093 ,3.68668 ,36.17367 
106 ,19.8699 ,0.69272 ,3.69010 ,36.20725 
107 ,20.0459 ,0.69447 ,3.65930 ,35.90505 
108 ,20.2219 ,0.69617 ,3.64219 ,35.73716 
109 ,20.4142 ,0.69802 ,3.63877 ,35.70358 
110 ,20.6222 ,0.70012 ,3.61823 ,35.50211 
111 ,20.7977 ,0.70194 ,3.60454 ,35.36779 
112 ,20.9745 ,0.70371 ,3.59428 ,35.26706 
113 ,21.1662 ,0.70566 ,3.55663 ,34.89770 
114 ,21.3424 ,0.70738 ,3.55321 ,34.86412 
115 ,21.5185 ,0.70916 ,3.55321 ,34.86412 
116 ,21.6946 ,0.71095 ,3.53610 ,34.69623 
117 ,21.8866 ,0.71273 ,3.50872 ,34.42760 
118 ,22.0627 ,0.71454 ,3.50530 ,34.39402 
119 ,22.2386 ,0.71635 ,3.50188 ,34.36045 
120 ,22.4305 ,0.71825 ,3.46766 ,34.02466 
121 ,22.6070 ,0.72002 ,3.46081 ,33.95751 
122 ,22.7988 ,0.72199 ,3.45055 ,33.85677 
123 ,22.9589 ,0.72368 ,3.44370 ,33.78961 
124 ,23.1351 ,0.72531 ,3.44370 ,33.78961 
125 ,23.3113 ,0.72703 ,3.39579 ,33.31952 
126 ,23.4874 ,0.72888 ,3.38553 ,33.21878 
127 ,23.6955 ,0.73088 ,3.38553 ,33.21878 
128 ,23.9035 ,0.73284 ,3.37868 ,33.15163 
129 ,24.0957 ,0.73486 ,3.36499 ,33.01731 
130 ,24.2877 ,0.73691 ,3.33077 ,32.68153 
131 ,24.4637 ,0.73862 ,3.30682 ,32.44648 
132 ,24.6397 ,0.74034 ,3.30339 ,32.41290 
133 ,24.8161 ,0.74211 ,3.29655 ,32.34575 
134 ,25.0077 ,0.74402 ,3.28628 ,32.24501 
135 ,25.2161 ,0.74596 ,3.26917 ,32.07712 
136 ,25.4241 ,0.74815 ,3.23495 ,31.74134 
137 ,25.6001 ,0.74993 ,3.23495 ,31.74134 
138 ,25.7759 ,0.75171 ,3.23495 ,31.74134 
139 ,25.9359 ,0.75345 ,3.21442 ,31.53987 
140 ,26.1120 ,0.75506 ,3.21100 ,31.50629 
141 ,26.2885 ,0.75682 ,3.18704 ,31.27124 
142 ,26.4805 ,0.75877 ,3.16993 ,31.10335 
143 ,26.6726 ,0.76060 ,3.15624 ,30.96904 
144 ,26.8648 ,0.76248 ,3.14255 ,30.83472 
145 ,27.0403 ,0.76436 ,3.11518 ,30.56610 
146 ,27.2168 ,0.76606 ,3.11860 ,30.59968 
147 ,27.3929 ,0.76784 ,3.10833 ,30.49894 
148 ,27.5686 ,0.76966 ,3.08780 ,30.29747 
149 ,27.7450 ,0.77137 ,3.05700 ,29.99527 
150 ,27.9212 ,0.77316 ,3.05015 ,29.92811 
151 ,28.1131 ,0.77501 ,3.05015 ,29.92811 
152 ,28.2892 ,0.77682 ,3.02620 ,29.69306 
153 ,28.4651 ,0.77861 ,3.00567 ,29.49159 
154 ,28.6574 ,0.78039 ,3.00224 ,29.45801 
155 ,28.8494 ,0.78239 ,2.99198 ,29.35728 
156 ,29.0415 ,0.78433 ,2.97487 ,29.18939 
157 ,29.2493 ,0.78637 ,2.95776 ,29.02150 
158 ,29.4257 ,0.78819 ,2.94064 ,28.85360 
159 ,29.6178 ,0.79017 ,2.93038 ,28.75287 
160 ,29.8099 ,0.79202 ,2.90985 ,28.55140 
161 ,30.0019 ,0.79384 ,2.89958 ,28.45066 
162 ,30.1780 ,0.79571 ,2.88931 ,28.34993 
163 ,30.3537 ,0.79749 ,2.88247 ,28.28277 
164 ,30.5300 ,0.79925 ,2.86878 ,28.14846 
165 ,30.7062 ,0.80096 ,2.85851 ,28.04772 
166 ,30.9145 ,0.80294 ,2.83114 ,27.77910 
167 ,31.1063 ,0.80502 ,2.81402 ,27.61121 
168 ,31.2821 ,0.80674 ,2.81060 ,27.57763 
169 ,31.4585 ,0.80848 ,2.80376 ,27.51047 
170 ,31.6345 ,0.81026 ,2.78322 ,27.30900 
171 ,31.8106 ,0.81206 ,2.76611 ,27.14111 
172 ,31.9868 ,0.81378 ,2.75585 ,27.04038 
173 ,32.1789 ,0.81568 ,2.73531 ,26.83891 
174 ,32.3709 ,0.81763 ,2.73874 ,26.87248 
175 ,32.5470 ,0.81948 ,2.71478 ,26.63744 
176 ,32.7391 ,0.82129 ,2.69767 ,26.46954 
177 ,32.9311 ,0.82318 ,2.70109 ,26.50312 
178 ,33.1073 ,0.82502 ,2.68398 ,26.33523 
179 ,33.2995 ,0.82689 ,2.66345 ,26.13376 
180 ,33.4755 ,0.82869 ,2.65318 ,26.03303 
181 ,33.6834 ,0.83072 ,2.62581 ,25.76440 
182 ,33.8915 ,0.83276 ,2.61212 ,25.63009 
183 ,34.0675 ,0.83460 ,2.59501 ,25.46220 
184 ,34.2436 ,0.83640 ,2.58132 ,25.32788 
185 ,34.4200 ,0.83811 ,2.57105 ,25.22715 
186 ,34.5955 ,0.83989 ,2.55394 ,25.05926 
187 ,34.7719 ,0.84169 ,2.55052 ,25.02568 
188 ,34.9639 ,0.84356 ,2.51630 ,24.68989 
189 ,35.1398 ,0.84543 ,2.52314 ,24.75705 
190 ,35.3163 ,0.84707 ,2.52998 ,24.82421 
191 ,35.5081 ,0.84903 ,2.49918 ,24.52200 
192 ,35.6840 ,0.85075 ,2.47181 ,24.25338 
193 ,35.8764 ,0.85258 ,2.45812 ,24.11906 
194 ,36.0845 ,0.85467 ,2.44101 ,23.95117 
195 ,36.2605 ,0.85658 ,2.44101 ,23.95117 
196 ,36.4526 ,0.85844 ,2.42732 ,23.81686 
197 ,36.6287 ,0.86021 ,2.42048 ,23.74970 
198 ,36.8047 ,0.86197 ,2.39652 ,23.51465 
199 ,36.9965 ,0.86382 ,2.38283 ,23.38034 
200 ,37.1729 ,0.86561 ,2.37599 ,23.31318 
201 ,37.3809 ,0.86765 ,2.36230 ,23.17887 
202 ,37.5729 ,0.86959 ,2.35888 ,23.14529 
203 ,37.7492 ,0.87140 ,2.34519 ,23.01098 
204 ,37.9252 ,0.87325 ,2.31097 ,22.67520 
205 ,38.1174 ,0.87506 ,2.29043 ,22.47373 
206 ,38.2934 ,0.87688 ,2.28359 ,22.40657 
207 ,38.4692 ,0.87857 ,2.29043 ,22.47373 
208 ,38.6452 ,0.88036 ,2.25621 ,22.13794 
209 ,38.8371 ,0.88226 ,2.23910 ,21.97005 
210 ,39.0292 ,0.88411 ,2.24937 ,22.07079 
211 ,39.2054 ,0.88599 ,2.21857 ,21.76858 
212 ,39.4141 ,0.88803 ,2.21515 ,21.73500 
213 ,39.6218 ,0.89004 ,2.19119 ,21.49996 
214 ,39.8140 ,0.89194 ,2.16723 ,21.26491 
215 ,40.0060 ,0.89395 ,2.18092 ,21.39922 
216 ,40.1822 ,0.89568 ,2.14670 ,21.06344 
217 ,40.3580 ,0.89752 ,2.13301 ,20.92912 
218 ,40.5501 ,0.89938 ,2.11248 ,20.72766 
219 ,40.7424 ,0.90131 ,2.10221 ,20.62692 
220 ,40.9342 ,0.90322 ,2.10906 ,20.69408 
221 ,41.1105 ,0.90504 ,2.09537 ,20.55976 
222 ,41.2865 ,0.90677 ,2.08852 ,20.49261 
223 ,41.4626 ,0.90854 ,2.06115 ,20.22398 
224 ,41.6387 ,0.91030 ,2.04404 ,20.05609 
225 ,41.8468 ,0.91228 ,2.02693 ,19.88820 
226 ,42.0226 ,0.91415 ,2.01666 ,19.78746 
227 ,42.2149 ,0.91593 ,1.99955 ,19.61957 
228 ,42.4233 ,0.91806 ,1.98928 ,19.51884 
229 ,42.5991 ,0.91988 ,1.97217 ,19.35094 
230 ,42.7910 ,0.92170 ,1.97217 ,19.35094 
231 ,43.0153 ,0.92387 ,1.96190 ,19.25021 
232 ,43.2072 ,0.92590 ,1.93795 ,19.01516 
233 ,43.3993 ,0.92789 ,1.91057 ,18.74654 
234 ,43.5594 ,0.92957 ,1.91742 ,18.81369 
235 ,43.7515 ,0.93133 ,1.91057 ,18.74654 
236 ,43.9275 ,0.93316 ,1.90031 ,18.64580 
237 ,44.1195 ,0.93508 ,1.86608 ,18.31002 
238 ,44.2958 ,0.93684 ,1.84897 ,18.14213 
239 ,44.5039 ,0.93893 ,1.83186 ,17.97423 
240 ,44.6797 ,0.94075 ,1.82844 ,17.94066 
241 ,44.8559 ,0.94243 ,1.81133 ,17.77276 
242 ,45.0321 ,0.94416 ,1.82160 ,17.87350 
243 ,45.2239 ,0.94603 ,1.80106 ,17.67203 
244 ,45.3841 ,0.94783 ,1.78053 ,17.47056 
245 ,45.5598 ,0.94945 ,1.77026 ,17.36983 
246 ,45.7364 ,0.95124 ,1.74631 ,17.13478 
247 ,45.9282 ,0.95311 ,1.75315 ,17.20193 
248 ,46.1205 ,0.95509 ,1.72920 ,16.96689 
249 ,46.3123 ,0.95694 ,1.71551 ,16.83257 
250 ,46.4883 ,0.95877 ,1.72235 ,16.89973 
251 ,46.6806 ,0.96062 ,1.68813 ,16.56395 
252 ,46.8564 ,0.96241 ,1.67102 ,16.39605 
253 ,47.0328 ,0.96425 ,1.67102 ,16.39605 
254 ,47.2251 ,0.96617 ,1.66075 ,16.29532 
255 ,47.4166 ,0.96802 ,1.62995 ,15.99311 
256 ,47.6092 ,0.96999 ,1.64022 ,16.09385 
257 ,47.8174 ,0.97199 ,1.62653 ,15.95954 
258 ,47.9933 ,0.97384 ,1.60258 ,15.72449 
259 ,48.1853 ,0.97572 ,1.59916 ,15.69091 
260 ,48.3611 ,0.97744 ,1.57862 ,15.48944 
261 ,48.5375 ,0.97920 ,1.57178 ,15.42228 
262 ,48.7296 ,0.98115 ,1.55809 ,15.28797 
263 ,48.9217 ,0.98305 ,1.53071 ,15.01934 
264 ,49.1136 ,0.98490 ,1.52045 ,14.91861 
265 ,49.2897 ,0.98677 ,1.52045 ,14.91861 
266 ,49.4659 ,0.98854 ,1.51360 ,14.85145 
267 ,49.6580 ,0.99042 ,1.47253 ,14.44851 
268 ,49.8660 ,0.99245 ,1.48622 ,14.58283 
269 ,50.0740 ,0.99455 ,1.45542 ,14.28062 
270 ,50.2500 ,0.99633 ,1.46911 ,14.41493 
271 ,50.4262 ,0.99815 ,1.45542 ,14.28062 
272 ,50.6020 ,0.99988 ,1.43489 ,14.07915 
273 ,50.7944 ,1.00178 ,1.41094 ,13.84410 
274 ,50.9704 ,1.00351 ,1.40409 ,13.77695 
275 ,51.1786 ,1.00558 ,1.36987 ,13.44116 
276 ,51.3544 ,1.00743 ,1.36645 ,13.40759 
277 ,51.5788 ,1.00942 ,1.38014 ,13.54190 
278 ,51.7709 ,1.01157 ,1.35960 ,13.34043 
279 ,51.9786 ,1.01357 ,1.33565 ,13.10538 
280 ,52.1709 ,1.01545 ,1.29800 ,12.73602 
281 ,52.3791 ,1.01759 ,1.29800 ,12.73602 
282 ,52.5551 ,1.01937 ,1.28432 ,12.60171 
283 ,52.7470 ,1.02127 ,1.29116 ,12.66886 
284 ,52.9234 ,1.02309 ,1.28089 ,12.56813 
285 ,53.0995 ,1.02485 ,1.25694 ,12.33308 
286 ,53.2913 ,1.02666 ,1.25352 ,12.29950 
287 ,53.4675 ,1.02854 ,1.23983 ,12.16519 
288 ,53.6435 ,1.03029 ,1.24325 ,12.19877 
289 ,53.8195 ,1.03204 ,1.20561 ,11.82941 
290 ,53.9957 ,1.03383 ,1.18850 ,11.66151 
291 ,54.1718 ,1.03558 ,1.17481 ,11.52720 
292 ,54.3636 ,1.03747 ,1.18165 ,11.59436 
293 ,54.5397 ,1.03924 ,1.17481 ,11.52720 
294 ,54.7481 ,1.04122 ,1.14401 ,11.22500 
295 ,54.9398 ,1.04319 ,1.15085 ,11.29215 
296 ,55.1161 ,1.04505 ,1.13032 ,11.09068 
297 ,55.2922 ,1.04680 ,1.11321 ,10.92279 
298 ,55.4840 ,1.04870 ,1.12690 ,11.05710 
299 ,55.6603 ,1.05042 ,1.10294 ,10.82206 
300 ,55.8682 ,1.05250 ,1.08925 ,10.68774 
301 ,56.0604 ,1.05437 ,1.07556 ,10.55343 
302 ,56.2526 ,1.05638 ,1.04134 ,10.21765 
303 ,56.4288 ,1.05811 ,1.04476 ,10.25123 
304 ,56.6368 ,1.06015 ,1.03108 ,10.11691 
305 ,56.8289 ,1.06205 ,1.02081 ,10.01618 
306 ,57.0049 ,1.06400 ,1.02081 ,10.01618 
307 ,57.1810 ,1.06563 ,1.00370 ,9.84829 
308 ,57.3570 ,1.06743 ,0.99001 ,9.71397 
309 ,57.5492 ,1.06928 ,0.98317 ,9.64682 
310 ,57.7252 ,1.07111 ,0.96605 ,9.47892 
311 ,57.9170 ,1.07291 ,0.94210 ,9.24388 
312 ,58.0929 ,1.07476 ,0.93183 ,9.14314 
313 ,58.2691 ,1.07649 ,0.92157 ,9.04241 
314 ,58.4452 ,1.07826 ,0.92157 ,9.04241 
315 ,58.6214 ,1.08006 ,0.90788 ,8.90809 
316 ,58.7972 ,1.08177 ,0.90446 ,8.87451 
317 ,58.9733 ,1.08350 ,0.88734 ,8.70662 
318 ,59.1494 ,1.08531 ,0.85312 ,8.37084 
319 ,59.3259 ,1.08710 ,0.86681 ,8.50515 
320 ,59.5181 ,1.08903 ,0.85997 ,8.43800 
321 ,59.7101 ,1.09092 ,0.84628 ,8.30368 
322 ,59.9022 ,1.09288 ,0.83259 ,8.16937 
323 ,60.0942 ,1.09473 ,0.79837 ,7.83359 
324 ,60.3023 ,1.09678 ,0.79837 ,7.83359 
325 ,60.5264 ,1.09897 ,0.78468 ,7.69927 
326 ,60.7025 ,1.10080 ,0.77441 ,7.59854 
327 ,60.8784 ,1.10260 ,0.76757 ,7.53138 
328 ,61.0545 ,1.10436 ,0.75388 ,7.39707 
329 ,61.2466 ,1.10620 ,0.73677 ,7.22918 
330 ,61.4066 ,1.10798 ,0.74019 ,7.26276 
331 ,61.5665 ,1.10961 ,0.72992 ,7.16202 
332 ,61.7428 ,1.11126 ,0.72308 ,7.09486 
333 ,61.9190 ,1.11300 ,0.70939 ,6.96055 
334 ,62.0949 ,1.11474 ,0.67175 ,6.59119 
335 ,62.2547 ,1.11647 ,0.65464 ,6.42330 
336 ,62.4471 ,1.11822 ,0.67517 ,6.62477 
337 ,62.6553 ,1.12032 ,0.65464 ,6.42330 
338 ,62.8474 ,1.12226 ,0.63410 ,6.22183 
339 ,63.0393 ,1.12418 ,0.64095 ,6.28899 
340 ,63.2315 ,1.12609 ,0.60330 ,5.91962 
341 ,63.4075 ,1.12796 ,0.62042 ,6.08752 
342 ,63.5836 ,1.12959 ,0.59646 ,5.85247 
343 ,63.7757 ,1.13149 ,0.57935 ,5.68458 
344 ,63.9518 ,1.13335 ,0.56224 ,5.51668 
345 ,64.1439 ,1.13520 ,0.55539 ,5.44953 
346 ,64.3359 ,1.13719 ,0.55197 ,5.41595 
347 ,64.5117 ,1.13895 ,0.53144 ,5.21448 
348 ,64.7037 ,1.14081 ,0.53486 ,5.24806 
349 ,64.8961 ,1.14269 ,0.50748 ,4.97943 
350 ,65.0721 ,1.14453 ,0.51091 ,5.01301 
351 ,65.2642 ,1.14646 ,0.49037 ,4.81154 
352 ,65.4400 ,1.14819 ,0.49380 ,4.84512 
353 ,65.6164 ,1.14997 ,0.46984 ,4.61007 
354 ,65.8084 ,1.15188 ,0.46642 ,4.57649 
355 ,65.9844 ,1.15358 ,0.46300 ,4.54291 
356 ,66.1606 ,1.15535 ,0.43220 ,4.24071 
357 ,66.3684 ,1.15731 ,0.43904 ,4.30787 
358 ,66.5447 ,1.15924 ,0.43220 ,4.24071 
359 ,66.7209 ,1.16097 ,0.43220 ,4.24071 
360 ,66.8970 ,1.16277 ,0.39455 ,3.87135 
361 ,67.0890 ,1.16469 ,0.38771 ,3.80419 
362 ,67.2650 ,1.16644 ,0.38086 ,3.73703 
363 ,67.4412 ,1.16817 ,0.37744 ,3.70346 
364 ,67.6172 ,1.16997 ,0.36718 ,3.60272 
365 ,67.7934 ,1.17169 ,0.32953 ,3.23336 
366 ,67.9854 ,1.17354 ,0.33980 ,3.33410 
367 ,68.1614 ,1.17540 ,0.35006 ,3.43483 
368 ,68.3375 ,1.17720 ,0.33295 ,3.26694 
369 ,68.5135 ,1.17896 ,0.30215 ,2.96473 
370 ,68.6895 ,1.18066 ,0.29531 ,2.89758 
371 ,68.8657 ,1.18246 ,0.28504 ,2.79684 
372 ,69.0418 ,1.18416 ,0.28847 ,2.83042 
373 ,69.2338 ,1.18613 ,0.26109 ,2.56179 
374 ,69.4099 ,1.18789 ,0.24398 ,2.39390 
375 ,69.6020 ,1.18974 ,0.24740 ,2.42748 
376 ,69.7940 ,1.19176 ,0.23371 ,2.29317 
377 ,69.9858 ,1.19362 ,0.21660 ,2.12528 
378 ,70.1620 ,1.19540 ,0.23371 ,2.29317 
379 ,70.3544 ,1.19727 ,0.19607 ,1.92381 
380 ,70.5621 ,1.19923 ,0.19607 ,1.92381 
381 ,70.7381 ,1.20116 ,0.18580 ,1.82307 
382 ,70.9304 ,1.20301 ,0.16185 ,1.58802 
383 ,71.1228 ,1.20498 ,0.16869 ,1.65518 
384 ,71.2986 ,1.20675 ,0.15842 ,1.55445 
385 ,71.4748 ,1.20853 ,0.13789 ,1.35298 
386 ,71.6509 ,1.21024 ,0.12420 ,1.21866 
387 ,71.8425 ,1.21216 ,0.13789 ,1.35298 
388 ,72.0196 ,1.21395 ,0.13789 ,1.35298 
389 ,72.1949 ,1.21575 ,0.08998 ,0.88288 
390 ,72.3708 ,1.21751 ,0.07287 ,0.71499 
391 ,72.5469 ,1.21926 ,0.08314 ,0.81572 
392 ,72.7391 ,1.22111 ,0.06602 ,0.64783 
393 ,72.9149 ,1.22292 ,0.06260 ,0.61425 
394 ,73.0912 ,1.22465 ,0.03865 ,0.37920 
395 ,73.2675 ,1.22646 ,0.03180 ,0.31205 
396 ,73.4274 ,1.22817 ,0.03180 ,0.31205 
397 ,73.6036 ,1.22980 ,0.03522 ,0.34563 
398 ,73.7956 ,1.23172 ,0.01127 ,0.11058 
399 ,73.9714 ,1.23349 ,0.00100 ,0.00984 
400 ,74.1479 ,1.23525 ,-0.00926 ,-0.09089 
401 ,74.3558 ,1.23732 ,-0.01953 ,-0.19163 
402 ,74.5481 ,1.23921 ,-0.03322 ,-0.32594 
403 ,74.7401 ,1.24111 ,-0.03322 ,-0.32594 
404 ,74.9322 ,1.24305 ,-0.05033 ,-0.49383 
405 ,75.1082 ,1.24490 ,-0.03664 ,-0.35952 
406 ,75.2843 ,1.24663 ,-0.06402 ,-0.62814 
407 ,75.4765 ,1.24847 ,-0.08797 ,-0.86319 
408 ,75.6846 ,1.25058 ,-0.09482 ,-0.93035 
409 ,75.8922 ,1.25261 ,-0.10508 ,-1.03108 
410 ,76.0689 ,1.25443 ,-0.12219 ,-1.19898 
411 ,76.2606 ,1.25628 ,-0.10508 ,-1.03108 
412 ,76.4365 ,1.25819 ,-0.12562 ,-1.23255 
413 ,76.6130 ,1.25991 ,-0.14273 ,-1.40045 
414 ,76.8047 ,1.26173 ,-0.14273 ,-1.40045 
415 ,76.9808 ,1.26356 ,-0.15299 ,-1.50118 
416 ,77.1727 ,1.26542 ,-0.18379 ,-1.80338 
417 ,77.3493 ,1.26724 ,-0.18037 ,-1.76981 
418 ,77.5571 ,1.26931 ,-0.19406 ,-1.90412 
419 ,77.7493 ,1.27116 ,-0.19748 ,-1.93770 
420 ,77.9254 ,1.27301 ,-0.20090 ,-1.97128 
421 ,78.1335 ,1.27501 ,-0.22828 ,-2.23990 
422 ,78.3255 ,1.27695 ,-0.21802 ,-2.13917 
423 ,78.5176 ,1.27890 ,-0.22144 ,-2.17275 
424 ,78.6937 ,1.28068 ,-0.25566 ,-2.50853 
425 ,78.8698 ,1.28243 ,-0.25566 ,-2.50853 
426 ,79.0617 ,1.28435 ,-0.24539 ,-2.40779 
427 ,79.2379 ,1.28612 ,-0.27277 ,-2.67642 
428 ,79.4138 ,1.28791 ,-0.28304 ,-2.77716 
429 ,79.6060 ,1.28978 ,-0.28304 ,-2.77716 
430 ,79.7981 ,1.29167 ,-0.30015 ,-2.94505 
431 ,79.9742 ,1.29349 ,-0.31384 ,-3.07936 
432 ,80.1662 ,1.29536 ,-0.30357 ,-2.97863 
433 ,80.3422 ,1.29714 ,-0.31726 ,-3.11294 
434 ,80.5345 ,1.29908 ,-0.34121 ,-3.34799 
435 ,80.7265 ,1.30101 ,-0.34121 ,-3.34799 
436 ,80.9187 ,1.30282 ,-0.34121 ,-3.34799 
437 ,81.1267 ,1.30495 ,-0.35490 ,-3.48230 
438 ,81.3027 ,1.30674 ,-0.35490 ,-3.48230 
439 ,81.4948 ,1.30861 ,-0.40281 ,-3.95240 
440 ,81.6708 ,1.31042 ,-0.39255 ,-3.85166 
441 ,81.8470 ,1.31218 ,-0.40281 ,-3.95240 
442 ,82.0390 ,1.31407 ,-0.41308 ,-4.05313 
443 ,82.2152 ,1.31591 ,-0.41650 ,-4.08671 
444 ,82.4072 ,1.31779 ,-0.42677 ,-4.18744 
445 ,82.5672 ,1.31950 ,-0.43361 ,-4.25460 
446 ,82.7434 ,1.32116 ,-0.42335 ,-4.15387 
447 ,82.9513 ,1.32310 ,-0.44730 ,-4.38891 
448 ,83.1275 ,1.32501 ,-0.44388 ,-4.35534 
449 ,83.3196 ,1.32693 ,-0.46783 ,-4.59038 
450 ,83.4956 ,1.32865 ,-0.47468 ,-4.65754 
451 ,83.6877 ,1.33059 ,-0.48152 ,-4.72470 
452 ,83.8796 ,1.33254 ,-0.49521 ,-4.85901 
453 ,84.0559 ,1.33432 ,-0.49863 ,-4.89259 
454 ,84.2640 ,1.33620 ,-0.51232 ,-5.02690 
455 ,84.4399 ,1.33811 ,-0.50548 ,-4.95975 
456 ,84.6158 ,1.33989 ,-0.53970 ,-5.29553 
457 ,84.7922 ,1.34168 ,-0.54654 ,-5.36268 
458 ,85.0000 ,1.34366 ,-0.54312 ,-5.32911 
459 ,85.1764 ,1.34550 ,-0.56708 ,-5.56415 
460 ,85.3683 ,1.34739 ,-0.56365 ,-5.53058 
461 ,85.5442 ,1.34917 ,-0.55681 ,-5.46342 
462 ,85.7202 ,1.35089 ,-0.56023 ,-5.49700 
463 ,85.8964 ,1.35267 ,-0.58077 ,-5.69847 
464 ,86.0563 ,1.35440 ,-0.59788 ,-5.86636 
