Data stamp = , 06-04-2022 17:14:13 697

Calibration Values: 
Slope = , 26.54 , g/V 
Offset Voltage at no contact = , -0.501760 , V 

No , Time , Stage Position ,   Mass , Force 
   ,  (s) ,      (mm)      ,   (g)  , (mN)  

1 ,0.0000 ,0.49933 ,5.20954 ,51.11602 
2 ,0.2298 ,0.49943 ,5.21296 ,51.14960 
3 ,0.5180 ,0.50023 ,5.21296 ,51.14960 
4 ,0.7102 ,0.50156 ,5.23350 ,51.35107 
5 ,0.8862 ,0.50302 ,5.21981 ,51.21675 
6 ,1.0622 ,0.50466 ,5.20954 ,51.11602 
7 ,1.2544 ,0.50656 ,5.22665 ,51.28391 
8 ,1.4465 ,0.50844 ,5.20954 ,51.11602 
9 ,1.6386 ,0.51038 ,5.19585 ,50.98170 
10 ,1.8144 ,0.51223 ,5.18559 ,50.88097 
11 ,2.0391 ,0.51431 ,5.15479 ,50.57876 
12 ,2.2308 ,0.51632 ,5.15136 ,50.54519 
13 ,2.4069 ,0.51815 ,5.13083 ,50.34372 
14 ,2.5986 ,0.51995 ,5.10688 ,50.10867 
15 ,2.7749 ,0.52179 ,5.09661 ,50.00793 
16 ,2.9668 ,0.52374 ,5.07608 ,49.80646 
17 ,3.1432 ,0.52546 ,5.05897 ,49.63857 
18 ,3.3192 ,0.52727 ,5.03843 ,49.43710 
19 ,3.4953 ,0.52898 ,5.04528 ,49.50426 
20 ,3.6712 ,0.53075 ,5.02474 ,49.30279 
21 ,3.8634 ,0.53263 ,4.99737 ,49.03416 
22 ,4.0397 ,0.53444 ,4.98026 ,48.86627 
23 ,4.2316 ,0.53640 ,4.99052 ,48.96701 
24 ,4.4077 ,0.53813 ,4.96999 ,48.76554 
25 ,4.5997 ,0.53998 ,4.94261 ,48.49691 
26 ,4.7759 ,0.54180 ,4.92550 ,48.32902 
27 ,4.9679 ,0.54373 ,4.92208 ,48.29544 
28 ,5.1600 ,0.54564 ,4.89470 ,48.02681 
29 ,5.3361 ,0.54741 ,4.88444 ,47.92608 
30 ,5.5121 ,0.54916 ,4.88444 ,47.92608 
31 ,5.6883 ,0.55094 ,4.86390 ,47.72461 
32 ,5.8805 ,0.55281 ,4.83310 ,47.42240 
33 ,6.0720 ,0.55477 ,4.82284 ,47.32167 
34 ,6.2645 ,0.55664 ,4.79546 ,47.05304 
35 ,6.4564 ,0.55862 ,4.78861 ,46.98589 
36 ,6.6327 ,0.56043 ,4.77835 ,46.88515 
37 ,6.8245 ,0.56231 ,4.76808 ,46.78442 
38 ,7.0007 ,0.56400 ,4.73386 ,46.44863 
39 ,7.1768 ,0.56579 ,4.72702 ,46.38148 
40 ,7.3530 ,0.56753 ,4.73386 ,46.44863 
41 ,7.5452 ,0.56948 ,4.70648 ,46.18001 
42 ,7.7210 ,0.57123 ,4.67568 ,45.87780 
43 ,7.8971 ,0.57301 ,4.66884 ,45.81065 
44 ,8.0569 ,0.57473 ,4.66884 ,45.81065 
45 ,8.2330 ,0.57639 ,4.65857 ,45.70991 
46 ,8.4090 ,0.57811 ,4.65515 ,45.67633 
47 ,8.5850 ,0.57989 ,4.62093 ,45.34055 
48 ,8.7611 ,0.58159 ,4.60724 ,45.20624 
49 ,8.9373 ,0.58339 ,4.59013 ,45.03835 
50 ,9.0973 ,0.58511 ,4.61066 ,45.23981 
51 ,9.2574 ,0.58672 ,4.57302 ,44.87045 
52 ,9.4338 ,0.58837 ,4.54906 ,44.63541 
53 ,9.6258 ,0.59031 ,4.55249 ,44.66898 
54 ,9.8018 ,0.59204 ,4.51826 ,44.33320 
55 ,9.9779 ,0.59384 ,4.51826 ,44.33320 
56 ,10.1541 ,0.59554 ,4.51484 ,44.29962 
57 ,10.3461 ,0.59747 ,4.49089 ,44.06457 
58 ,10.5222 ,0.59922 ,4.46351 ,43.79595 
59 ,10.6979 ,0.60096 ,4.46009 ,43.76237 
60 ,10.8743 ,0.60279 ,4.44982 ,43.66163 
61 ,11.0503 ,0.60451 ,4.46009 ,43.76237 
62 ,11.2424 ,0.60633 ,4.42586 ,43.42659 
63 ,11.4183 ,0.60821 ,4.39849 ,43.15796 
64 ,11.6106 ,0.61009 ,4.40533 ,43.22512 
65 ,11.7865 ,0.61193 ,4.40533 ,43.22512 
66 ,11.9788 ,0.61381 ,4.36084 ,42.78860 
67 ,12.1709 ,0.61564 ,4.36084 ,42.78860 
68 ,12.3629 ,0.61764 ,4.32320 ,42.41924 
69 ,12.5549 ,0.61958 ,4.32320 ,42.41924 
70 ,12.7308 ,0.62136 ,4.32662 ,42.45282 
71 ,12.9071 ,0.62312 ,4.29924 ,42.18419 
72 ,13.0990 ,0.62496 ,4.27871 ,41.98272 
73 ,13.2913 ,0.62688 ,4.27871 ,41.98272 
74 ,13.4833 ,0.62888 ,4.24107 ,41.61336 
75 ,13.6755 ,0.63077 ,4.23765 ,41.57978 
76 ,13.8674 ,0.63277 ,4.22738 ,41.47905 
77 ,14.0437 ,0.63446 ,4.20000 ,41.21042 
78 ,14.2192 ,0.63618 ,4.17947 ,41.00895 
79 ,14.3957 ,0.63797 ,4.17605 ,40.97537 
80 ,14.5715 ,0.63978 ,4.16920 ,40.90821 
81 ,14.7478 ,0.64148 ,4.15209 ,40.74032 
82 ,14.9239 ,0.64320 ,4.12129 ,40.43812 
83 ,15.1160 ,0.64513 ,4.11787 ,40.40454 
84 ,15.2920 ,0.64694 ,4.11445 ,40.37096 
85 ,15.4682 ,0.64869 ,4.10760 ,40.30380 
86 ,15.6762 ,0.65076 ,4.09049 ,40.13591 
87 ,15.8522 ,0.65253 ,4.06654 ,39.90087 
88 ,16.0445 ,0.65437 ,4.02889 ,39.53150 
89 ,16.2205 ,0.65621 ,4.01520 ,39.39719 
90 ,16.4124 ,0.65804 ,4.03232 ,39.56508 
91 ,16.6044 ,0.66000 ,3.99125 ,39.16214 
92 ,16.7807 ,0.66180 ,3.96729 ,38.92709 
93 ,16.9726 ,0.66373 ,3.98783 ,39.12856 
94 ,17.1488 ,0.66549 ,3.96387 ,38.89352 
95 ,17.3249 ,0.66725 ,3.94676 ,38.72562 
96 ,17.5009 ,0.66899 ,3.92281 ,38.49058 
97 ,17.6929 ,0.67087 ,3.92281 ,38.49058 
98 ,17.8852 ,0.67282 ,3.89885 ,38.25553 
99 ,18.0768 ,0.67478 ,3.87147 ,37.98690 
100 ,18.2534 ,0.67655 ,3.88516 ,38.12122 
101 ,18.4290 ,0.67833 ,3.86805 ,37.95332 
102 ,18.6055 ,0.68004 ,3.83041 ,37.58396 
103 ,18.8135 ,0.68205 ,3.83725 ,37.65112 
104 ,18.9895 ,0.68391 ,3.82014 ,37.48323 
105 ,19.1812 ,0.68579 ,3.79276 ,37.21460 
106 ,19.3577 ,0.68756 ,3.77565 ,37.04671 
107 ,19.5496 ,0.68947 ,3.78250 ,37.11387 
108 ,19.7259 ,0.69126 ,3.76196 ,36.91240 
109 ,19.9178 ,0.69313 ,3.74143 ,36.71093 
110 ,20.1099 ,0.69508 ,3.73459 ,36.64377 
111 ,20.2861 ,0.69686 ,3.70721 ,36.37514 
112 ,20.4780 ,0.69878 ,3.68668 ,36.17367 
113 ,20.6543 ,0.70053 ,3.69694 ,36.27441 
114 ,20.8299 ,0.70229 ,3.68325 ,36.14010 
115 ,21.0063 ,0.70407 ,3.66272 ,35.93863 
116 ,21.1824 ,0.70579 ,3.62850 ,35.60284 
117 ,21.3745 ,0.70776 ,3.63534 ,35.67000 
118 ,21.5506 ,0.70949 ,3.62850 ,35.60284 
119 ,21.7588 ,0.71140 ,3.59428 ,35.26706 
120 ,21.9508 ,0.71346 ,3.59086 ,35.23348 
121 ,22.1269 ,0.71530 ,3.57375 ,35.06559 
122 ,22.3189 ,0.71710 ,3.56690 ,34.99843 
123 ,22.4951 ,0.71897 ,3.54637 ,34.79696 
124 ,22.6708 ,0.72067 ,3.52926 ,34.62907 
125 ,22.8471 ,0.72244 ,3.51899 ,34.52834 
126 ,23.0232 ,0.72416 ,3.49161 ,34.25971 
127 ,23.2152 ,0.72613 ,3.49161 ,34.25971 
128 ,23.3913 ,0.72787 ,3.48477 ,34.19255 
129 ,23.5834 ,0.72980 ,3.45055 ,33.85677 
130 ,23.7595 ,0.73153 ,3.43001 ,33.65530 
131 ,23.9356 ,0.73334 ,3.43686 ,33.72246 
132 ,24.1115 ,0.73509 ,3.42317 ,33.58814 
133 ,24.2878 ,0.73690 ,3.39237 ,33.28594 
134 ,24.4798 ,0.73875 ,3.37184 ,33.08447 
135 ,24.6559 ,0.74054 ,3.37184 ,33.08447 
136 ,24.8315 ,0.74230 ,3.35473 ,32.91658 
137 ,25.0239 ,0.74420 ,3.33077 ,32.68153 
138 ,25.1999 ,0.74599 ,3.30682 ,32.44648 
139 ,25.3761 ,0.74774 ,3.32051 ,32.58080 
140 ,25.5523 ,0.74950 ,3.29997 ,32.37933 
141 ,25.7440 ,0.75144 ,3.27944 ,32.17786 
142 ,25.9204 ,0.75316 ,3.25891 ,31.97639 
143 ,26.1123 ,0.75513 ,3.26917 ,32.07712 
144 ,26.2885 ,0.75682 ,3.25206 ,31.90923 
145 ,26.4804 ,0.75876 ,3.21442 ,31.53987 
146 ,26.6567 ,0.76055 ,3.21100 ,31.50629 
147 ,26.8487 ,0.76242 ,3.20757 ,31.47271 
148 ,27.0407 ,0.76437 ,3.16309 ,31.03619 
149 ,27.2328 ,0.76627 ,3.18020 ,31.20409 
150 ,27.4247 ,0.76807 ,3.14940 ,30.90188 
151 ,27.6010 ,0.76997 ,3.13913 ,30.80115 
152 ,27.7930 ,0.77186 ,3.12886 ,30.70041 
153 ,27.9690 ,0.77363 ,3.12202 ,30.63325 
154 ,28.1453 ,0.77541 ,3.09464 ,30.36463 
155 ,28.3374 ,0.77720 ,3.07411 ,30.16316 
156 ,28.5457 ,0.77941 ,3.06042 ,30.02884 
157 ,28.7215 ,0.78116 ,3.04673 ,29.89453 
158 ,28.9136 ,0.78306 ,3.05358 ,29.96169 
159 ,29.0896 ,0.78498 ,3.02962 ,29.72664 
160 ,29.2658 ,0.78663 ,3.00224 ,29.45801 
161 ,29.4416 ,0.78832 ,2.99540 ,29.39086 
162 ,29.6176 ,0.79016 ,2.97829 ,29.22297 
163 ,29.7940 ,0.79185 ,2.98513 ,29.29012 
164 ,29.9698 ,0.79368 ,2.96460 ,29.08865 
165 ,30.1459 ,0.79542 ,2.95091 ,28.95434 
166 ,30.3222 ,0.79718 ,2.92011 ,28.65213 
167 ,30.4982 ,0.79897 ,2.90985 ,28.55140 
168 ,30.6744 ,0.80068 ,2.90642 ,28.51782 
169 ,30.8664 ,0.80252 ,2.87562 ,28.21562 
170 ,31.0586 ,0.80448 ,2.88247 ,28.28277 
171 ,31.2345 ,0.80633 ,2.85851 ,28.04772 
172 ,31.4265 ,0.80819 ,2.84825 ,27.94699 
173 ,31.6185 ,0.81002 ,2.83114 ,27.77910 
174 ,31.7948 ,0.81192 ,2.82429 ,27.71194 
175 ,32.0029 ,0.81393 ,2.79691 ,27.44332 
176 ,32.1945 ,0.81591 ,2.79691 ,27.44332 
177 ,32.3710 ,0.81769 ,2.79007 ,27.37616 
178 ,32.5630 ,0.81954 ,2.74558 ,26.93964 
179 ,32.7393 ,0.82133 ,2.73874 ,26.87248 
180 ,32.9313 ,0.82327 ,2.75243 ,27.00680 
181 ,33.1073 ,0.82503 ,2.72847 ,26.77175 
182 ,33.2831 ,0.82677 ,2.69083 ,26.40239 
183 ,33.4754 ,0.82861 ,2.69767 ,26.46954 
184 ,33.6676 ,0.83065 ,2.68398 ,26.33523 
185 ,33.8593 ,0.83253 ,2.66345 ,26.13376 
186 ,34.0356 ,0.83429 ,2.65660 ,26.06661 
187 ,34.2117 ,0.83602 ,2.63949 ,25.89871 
188 ,34.3874 ,0.83782 ,2.63949 ,25.89871 
189 ,34.5639 ,0.83957 ,2.60869 ,25.59651 
190 ,34.7881 ,0.84164 ,2.58474 ,25.36146 
191 ,34.9640 ,0.84362 ,2.57789 ,25.29430 
192 ,35.1403 ,0.84534 ,2.55394 ,25.05926 
193 ,35.3322 ,0.84731 ,2.56763 ,25.19357 
194 ,35.5083 ,0.84900 ,2.54025 ,24.92494 
195 ,35.7003 ,0.85091 ,2.52998 ,24.82421 
196 ,35.8763 ,0.85270 ,2.50945 ,24.62274 
197 ,36.0685 ,0.85462 ,2.51287 ,24.65632 
198 ,36.2443 ,0.85633 ,2.49234 ,24.45485 
199 ,36.4203 ,0.85809 ,2.46839 ,24.21980 
200 ,36.5803 ,0.85984 ,2.46154 ,24.15264 
201 ,36.7564 ,0.86147 ,2.45470 ,24.08549 
202 ,36.9325 ,0.86319 ,2.44443 ,23.98475 
203 ,37.0925 ,0.86496 ,2.42732 ,23.81686 
204 ,37.2686 ,0.86659 ,2.41705 ,23.71612 
205 ,37.4286 ,0.86831 ,2.39310 ,23.48108 
206 ,37.6049 ,0.87000 ,2.37941 ,23.34676 
207 ,37.7813 ,0.87178 ,2.35545 ,23.11171 
208 ,37.9734 ,0.87363 ,2.35888 ,23.14529 
209 ,38.1653 ,0.87551 ,2.33834 ,22.94382 
210 ,38.3575 ,0.87748 ,2.32808 ,22.84309 
211 ,38.5175 ,0.87921 ,2.32808 ,22.84309 
212 ,38.6933 ,0.88087 ,2.29728 ,22.54088 
213 ,38.8696 ,0.88262 ,2.28701 ,22.44015 
214 ,39.0618 ,0.88458 ,2.26648 ,22.23868 
215 ,39.2539 ,0.88647 ,2.25279 ,22.10437 
216 ,39.4298 ,0.88822 ,2.25279 ,22.10437 
217 ,39.6219 ,0.89009 ,2.21857 ,21.76858 
218 ,39.8298 ,0.89214 ,2.21857 ,21.76858 
219 ,40.0220 ,0.89404 ,2.19803 ,21.56711 
220 ,40.1982 ,0.89592 ,2.17066 ,21.29849 
221 ,40.3743 ,0.89769 ,2.18092 ,21.39922 
222 ,40.5504 ,0.89943 ,2.15355 ,21.13059 
223 ,40.7265 ,0.90119 ,2.14328 ,21.02986 
224 ,40.9186 ,0.90310 ,2.11932 ,20.79481 
225 ,41.1107 ,0.90501 ,2.12959 ,20.89555 
226 ,41.3346 ,0.90704 ,2.09537 ,20.55976 
227 ,41.5108 ,0.90900 ,2.09879 ,20.59334 
228 ,41.6870 ,0.91081 ,2.07141 ,20.32472 
229 ,41.8626 ,0.91255 ,2.05088 ,20.12325 
230 ,42.0551 ,0.91443 ,2.07484 ,20.35829 
231 ,42.2472 ,0.91637 ,2.03035 ,19.92178 
232 ,42.4393 ,0.91829 ,2.02008 ,19.82104 
233 ,42.6154 ,0.92005 ,2.00639 ,19.68673 
234 ,42.8073 ,0.92193 ,1.98928 ,19.51884 
235 ,42.9669 ,0.92368 ,1.97217 ,19.35094 
236 ,43.1430 ,0.92530 ,1.96533 ,19.28379 
237 ,43.3191 ,0.92708 ,1.94479 ,19.08232 
238 ,43.4952 ,0.92886 ,1.94822 ,19.11590 
239 ,43.6876 ,0.93068 ,1.94479 ,19.08232 
240 ,43.9119 ,0.93288 ,1.90031 ,18.64580 
241 ,44.1038 ,0.93495 ,1.89688 ,18.61222 
242 ,44.3119 ,0.93693 ,1.88662 ,18.51149 
243 ,44.4877 ,0.93878 ,1.85924 ,18.24286 
244 ,44.6640 ,0.94058 ,1.85582 ,18.20928 
245 ,44.8722 ,0.94254 ,1.83871 ,18.04139 
246 ,45.0640 ,0.94447 ,1.82160 ,17.87350 
247 ,45.2405 ,0.94633 ,1.80449 ,17.70561 
248 ,45.4323 ,0.94821 ,1.80791 ,17.73919 
249 ,45.6085 ,0.95002 ,1.79422 ,17.60487 
250 ,45.7844 ,0.95178 ,1.77026 ,17.36983 
251 ,45.9607 ,0.95350 ,1.75315 ,17.20193 
252 ,46.1522 ,0.95543 ,1.75657 ,17.23551 
253 ,46.3284 ,0.95713 ,1.73946 ,17.06762 
254 ,46.4885 ,0.95887 ,1.72578 ,16.93331 
255 ,46.6650 ,0.96049 ,1.70524 ,16.73184 
256 ,46.8413 ,0.96235 ,1.68813 ,16.56395 
257 ,47.0331 ,0.96425 ,1.69498 ,16.63110 
258 ,47.2252 ,0.96617 ,1.67102 ,16.39605 
259 ,47.4012 ,0.96788 ,1.64364 ,16.12743 
260 ,47.5773 ,0.96967 ,1.63680 ,16.06027 
261 ,47.7694 ,0.97156 ,1.64707 ,16.16101 
262 ,47.9457 ,0.97333 ,1.61284 ,15.82522 
263 ,48.1536 ,0.97529 ,1.60258 ,15.72449 
264 ,48.3457 ,0.97734 ,1.59231 ,15.62375 
265 ,48.5213 ,0.97905 ,1.56836 ,15.38871 
266 ,48.6978 ,0.98085 ,1.56836 ,15.38871 
267 ,48.8738 ,0.98264 ,1.55124 ,15.22081 
268 ,49.0500 ,0.98440 ,1.55467 ,15.25439 
269 ,49.2419 ,0.98627 ,1.51360 ,14.85145 
270 ,49.4342 ,0.98819 ,1.52387 ,14.95219 
271 ,49.6418 ,0.99021 ,1.50333 ,14.75072 
272 ,49.8183 ,0.99206 ,1.48622 ,14.58283 
273 ,50.0103 ,0.99395 ,1.47938 ,14.51567 
274 ,50.2021 ,0.99582 ,1.45885 ,14.31420 
275 ,50.3782 ,0.99764 ,1.44174 ,14.14631 
276 ,50.5705 ,0.99949 ,1.45200 ,14.24704 
277 ,50.7626 ,1.00138 ,1.42805 ,14.01199 
278 ,50.9544 ,1.00335 ,1.40409 ,13.77695 
279 ,51.1468 ,1.00526 ,1.38356 ,13.57548 
280 ,51.3388 ,1.00720 ,1.39725 ,13.70979 
281 ,51.4988 ,1.00896 ,1.37671 ,13.50832 
282 ,51.6749 ,1.01063 ,1.36645 ,13.40759 
283 ,51.8831 ,1.01255 ,1.33907 ,13.13896 
284 ,52.0752 ,1.01465 ,1.32880 ,13.03822 
285 ,52.2673 ,1.01656 ,1.31512 ,12.90391 
286 ,52.4590 ,1.01837 ,1.30485 ,12.80318 
287 ,52.6353 ,1.02030 ,1.29800 ,12.73602 
288 ,52.8274 ,1.02210 ,1.28774 ,12.63528 
289 ,53.0034 ,1.02387 ,1.26720 ,12.43381 
290 ,53.2276 ,1.02589 ,1.24667 ,12.23235 
291 ,53.4196 ,1.02797 ,1.24325 ,12.19877 
292 ,53.6116 ,1.02991 ,1.24325 ,12.19877 
293 ,53.8038 ,1.03185 ,1.20903 ,11.86298 
294 ,53.9799 ,1.03363 ,1.19534 ,11.72867 
295 ,54.1560 ,1.03543 ,1.19534 ,11.72867 
296 ,54.3483 ,1.03728 ,1.17823 ,11.56078 
297 ,54.5082 ,1.03906 ,1.15427 ,11.32573 
298 ,54.6841 ,1.04072 ,1.15770 ,11.35931 
299 ,54.8762 ,1.04263 ,1.14401 ,11.22500 
300 ,55.0522 ,1.04432 ,1.14401 ,11.22500 
301 ,55.2283 ,1.04613 ,1.11663 ,10.95637 
302 ,55.4045 ,1.04792 ,1.10636 ,10.85563 
303 ,55.5966 ,1.04973 ,1.08925 ,10.68774 
304 ,55.7884 ,1.05167 ,1.08583 ,10.65416 
305 ,55.9643 ,1.05354 ,1.07214 ,10.51985 
306 ,56.1409 ,1.05524 ,1.05161 ,10.31838 
307 ,56.3168 ,1.05703 ,1.05161 ,10.31838 
308 ,56.4923 ,1.05874 ,1.04476 ,10.25123 
309 ,56.6848 ,1.06063 ,1.02765 ,10.08333 
310 ,56.8771 ,1.06259 ,1.01054 ,9.91544 
311 ,57.0692 ,1.06447 ,0.99685 ,9.78113 
312 ,57.2773 ,1.06662 ,0.98659 ,9.68039 
313 ,57.4533 ,1.06836 ,0.98317 ,9.64682 
314 ,57.6292 ,1.07018 ,0.96948 ,9.51250 
315 ,57.8214 ,1.07199 ,0.94894 ,9.31103 
316 ,57.9974 ,1.07381 ,0.92841 ,9.10956 
317 ,58.1734 ,1.07555 ,0.92841 ,9.10956 
318 ,58.3497 ,1.07732 ,0.92841 ,9.10956 
319 ,58.5257 ,1.07912 ,0.91130 ,8.94167 
320 ,58.7177 ,1.08103 ,0.90103 ,8.84094 
321 ,58.8777 ,1.08272 ,0.88392 ,8.67305 
322 ,59.0539 ,1.08435 ,0.87708 ,8.60589 
323 ,59.2299 ,1.08617 ,0.87023 ,8.53873 
324 ,59.4219 ,1.08805 ,0.82575 ,8.10221 
325 ,59.6301 ,1.09002 ,0.83601 ,8.20295 
326 ,59.8061 ,1.09193 ,0.81890 ,8.03506 
327 ,59.9822 ,1.09360 ,0.79495 ,7.80001 
328 ,60.1583 ,1.09550 ,0.82232 ,8.06864 
329 ,60.3504 ,1.09726 ,0.80863 ,7.93432 
330 ,60.5426 ,1.09932 ,0.76757 ,7.53138 
331 ,60.7345 ,1.10118 ,0.78126 ,7.66570 
332 ,60.9103 ,1.10292 ,0.75730 ,7.43065 
333 ,61.0868 ,1.10473 ,0.75388 ,7.39707 
334 ,61.2786 ,1.10661 ,0.72992 ,7.16202 
335 ,61.4708 ,1.10849 ,0.72308 ,7.09486 
336 ,61.6629 ,1.11038 ,0.72650 ,7.12844 
337 ,61.8391 ,1.11220 ,0.69228 ,6.79266 
338 ,62.0149 ,1.11401 ,0.68886 ,6.75908 
339 ,62.2073 ,1.11590 ,0.67517 ,6.62477 
340 ,62.3991 ,1.11783 ,0.65121 ,6.38972 
341 ,62.5912 ,1.11971 ,0.64437 ,6.32256 
342 ,62.7833 ,1.12165 ,0.63410 ,6.22183 
343 ,62.9594 ,1.12341 ,0.61699 ,6.05394 
344 ,63.1355 ,1.12519 ,0.62726 ,6.15467 
345 ,63.3112 ,1.12692 ,0.61015 ,5.98678 
346 ,63.4877 ,1.12869 ,0.59646 ,5.85247 
347 ,63.6638 ,1.13045 ,0.57935 ,5.68458 
348 ,63.8398 ,1.13220 ,0.57251 ,5.61742 
349 ,64.0159 ,1.13401 ,0.57251 ,5.61742 
350 ,64.1917 ,1.13570 ,0.56224 ,5.51668 
351 ,64.3679 ,1.13748 ,0.53828 ,5.28164 
352 ,64.5442 ,1.13930 ,0.52459 ,5.14732 
353 ,64.7200 ,1.14109 ,0.53486 ,5.24806 
354 ,64.9123 ,1.14294 ,0.51091 ,5.01301 
355 ,65.0882 ,1.14469 ,0.50406 ,4.94585 
356 ,65.2484 ,1.14640 ,0.48353 ,4.74438 
357 ,65.4244 ,1.14803 ,0.48011 ,4.71081 
358 ,65.5845 ,1.14976 ,0.45957 ,4.50934 
359 ,65.7607 ,1.15144 ,0.44931 ,4.40860 
360 ,65.9687 ,1.15345 ,0.44931 ,4.40860 
361 ,66.1929 ,1.15556 ,0.44246 ,4.34144 
362 ,66.3850 ,1.15768 ,0.41851 ,4.10640 
363 ,66.5929 ,1.15972 ,0.38771 ,3.80419 
364 ,66.7690 ,1.16150 ,0.39455 ,3.87135 
365 ,66.9771 ,1.16360 ,0.38771 ,3.80419 
366 ,67.1532 ,1.16532 ,0.37744 ,3.70346 
367 ,67.3450 ,1.16723 ,0.35349 ,3.46841 
368 ,67.5212 ,1.16902 ,0.33295 ,3.26694 
369 ,67.7456 ,1.17115 ,0.33295 ,3.26694 
370 ,67.9375 ,1.17319 ,0.31926 ,3.13263 
371 ,68.1136 ,1.17498 ,0.31584 ,3.09905 
372 ,68.2897 ,1.17670 ,0.31584 ,3.09905 
373 ,68.5136 ,1.17878 ,0.28847 ,2.83042 
374 ,68.7059 ,1.18081 ,0.27135 ,2.66253 
375 ,68.8979 ,1.18279 ,0.28162 ,2.76326 
376 ,69.0739 ,1.18451 ,0.27135 ,2.66253 
377 ,69.2501 ,1.18629 ,0.25767 ,2.52822 
378 ,69.4419 ,1.18820 ,0.24398 ,2.39390 
379 ,69.6181 ,1.19002 ,0.21660 ,2.12528 
380 ,69.8102 ,1.19186 ,0.22687 ,2.22601 
381 ,69.9864 ,1.19365 ,0.20291 ,1.99096 
382 ,70.1785 ,1.19562 ,0.20976 ,2.05812 
383 ,70.3866 ,1.19750 ,0.17896 ,1.75592 
384 ,70.5623 ,1.19939 ,0.16185 ,1.58802 
385 ,70.7386 ,1.20119 ,0.15842 ,1.55445 
386 ,70.9148 ,1.20294 ,0.16869 ,1.65518 
387 ,71.0909 ,1.20471 ,0.16527 ,1.62160 
388 ,71.2826 ,1.20662 ,0.12078 ,1.18508 
389 ,71.4590 ,1.20839 ,0.12420 ,1.21866 
390 ,71.6506 ,1.21037 ,0.11393 ,1.11793 
391 ,71.8268 ,1.21203 ,0.10709 ,1.05077 
392 ,72.0031 ,1.21382 ,0.09682 ,0.95004 
393 ,72.1952 ,1.21575 ,0.09340 ,0.91646 
394 ,72.3711 ,1.21750 ,0.07971 ,0.78214 
395 ,72.5476 ,1.21930 ,0.06602 ,0.64783 
396 ,72.7235 ,1.22099 ,0.06260 ,0.61425 
397 ,72.9156 ,1.22287 ,0.05234 ,0.51352 
398 ,73.0913 ,1.22474 ,0.04549 ,0.44636 
399 ,73.2678 ,1.22646 ,0.02838 ,0.27847 
400 ,73.4598 ,1.22838 ,0.00443 ,0.04342 
401 ,73.6359 ,1.23015 ,0.01811 ,0.17773 
402 ,73.8280 ,1.23204 ,0.00785 ,0.07700 
403 ,74.0039 ,1.23384 ,-0.01953 ,-0.19163 
404 ,74.1802 ,1.23556 ,-0.02980 ,-0.29236 
405 ,74.3561 ,1.23736 ,-0.01953 ,-0.19163 
406 ,74.5642 ,1.23932 ,-0.04348 ,-0.42667 
407 ,74.7402 ,1.24118 ,-0.06744 ,-0.66172 
408 ,74.9323 ,1.24309 ,-0.05375 ,-0.52741 
409 ,75.1565 ,1.24520 ,-0.06402 ,-0.62814 
410 ,75.3487 ,1.24714 ,-0.07771 ,-0.76246 
411 ,75.5408 ,1.24913 ,-0.10166 ,-0.99751 
412 ,75.7168 ,1.25093 ,-0.10166 ,-0.99751 
413 ,75.8768 ,1.25268 ,-0.10851 ,-1.06466 
414 ,76.0528 ,1.25424 ,-0.11193 ,-1.09824 
415 ,76.2288 ,1.25614 ,-0.12562 ,-1.23255 
416 ,76.4050 ,1.25781 ,-0.14957 ,-1.46760 
417 ,76.5811 ,1.25959 ,-0.16326 ,-1.60191 
418 ,76.7571 ,1.26135 ,-0.15984 ,-1.56834 
419 ,76.9331 ,1.26305 ,-0.15299 ,-1.50118 
420 ,77.1090 ,1.26488 ,-0.16668 ,-1.63549 
421 ,77.3012 ,1.26669 ,-0.18722 ,-1.83696 
422 ,77.4774 ,1.26854 ,-0.19406 ,-1.90412 
423 ,77.6374 ,1.27025 ,-0.20090 ,-1.97128 
424 ,77.8292 ,1.27202 ,-0.21802 ,-2.13917 
425 ,77.9895 ,1.27374 ,-0.22828 ,-2.23990 
426 ,78.1656 ,1.27542 ,-0.24197 ,-2.37422 
427 ,78.3417 ,1.27718 ,-0.24539 ,-2.40779 
428 ,78.5178 ,1.27898 ,-0.24197 ,-2.37422 
429 ,78.7099 ,1.28077 ,-0.26593 ,-2.60926 
430 ,78.8860 ,1.28265 ,-0.26593 ,-2.60926 
431 ,79.0779 ,1.28454 ,-0.26250 ,-2.57569 
432 ,79.2541 ,1.28634 ,-0.27961 ,-2.74358 
433 ,79.4302 ,1.28809 ,-0.30015 ,-2.94505 
434 ,79.6219 ,1.28994 ,-0.30357 ,-2.97863 
435 ,79.7982 ,1.29172 ,-0.31726 ,-3.11294 
436 ,79.9904 ,1.29367 ,-0.31726 ,-3.11294 
437 ,80.1823 ,1.29553 ,-0.34806 ,-3.41514 
438 ,80.3745 ,1.29750 ,-0.33095 ,-3.24725 
439 ,80.5826 ,1.29943 ,-0.34806 ,-3.41514 
440 ,80.7587 ,1.30135 ,-0.36175 ,-3.54946 
441 ,80.9506 ,1.30319 ,-0.36175 ,-3.54946 
442 ,81.1104 ,1.30496 ,-0.37886 ,-3.71735 
443 ,81.2867 ,1.30663 ,-0.38228 ,-3.75093 
444 ,81.4627 ,1.30836 ,-0.40281 ,-3.95240 
445 ,81.6708 ,1.31033 ,-0.40281 ,-3.95240 
446 ,81.8470 ,1.31227 ,-0.41992 ,-4.12029 
447 ,82.0072 ,1.31391 ,-0.42677 ,-4.18744 
448 ,82.1829 ,1.31555 ,-0.43703 ,-4.28818 
449 ,82.3593 ,1.31737 ,-0.43703 ,-4.28818 
450 ,82.5512 ,1.31919 ,-0.44388 ,-4.35534 
451 ,82.7430 ,1.32116 ,-0.46441 ,-4.55681 
452 ,82.9196 ,1.32291 ,-0.46783 ,-4.59038 
453 ,83.1114 ,1.32485 ,-0.47468 ,-4.65754 
454 ,83.2876 ,1.32675 ,-0.49521 ,-4.85901 
455 ,83.4637 ,1.32840 ,-0.49179 ,-4.82543 
456 ,83.6878 ,1.33037 ,-0.49863 ,-4.89259 
457 ,83.8798 ,1.33264 ,-0.51574 ,-5.06048 
458 ,84.0558 ,1.33429 ,-0.50890 ,-4.99332 
459 ,84.2319 ,1.33605 ,-0.50548 ,-4.95975 
460 ,84.4238 ,1.33804 ,-0.54997 ,-5.39626 
461 ,84.6163 ,1.33980 ,-0.52943 ,-5.19479 
462 ,84.8082 ,1.34175 ,-0.54312 ,-5.32911 
463 ,84.9844 ,1.34360 ,-0.56023 ,-5.49700 
464 ,85.1763 ,1.34541 ,-0.57734 ,-5.66489 
