Data stamp = , 07-04-2022 10:15:30 469

Calibration Values: 
Slope = , 26.54 , g/V 
Offset Voltage at no contact = , -0.501760 , V 

No , Time , Stage Position ,   Mass , Force 
   ,  (s) ,      (mm)      ,   (g)  , (mN)  

1 ,0.0000 ,0.49930 ,5.22323 ,51.25033 
2 ,0.2195 ,0.49939 ,5.23007 ,51.31749 
3 ,0.5399 ,0.50028 ,5.20612 ,51.08244 
4 ,0.7481 ,0.50173 ,5.20954 ,51.11602 
5 ,0.9558 ,0.50356 ,5.21981 ,51.21675 
6 ,1.1322 ,0.50536 ,5.20612 ,51.08244 
7 ,1.3242 ,0.50724 ,5.23007 ,51.31749 
8 ,1.5002 ,0.50902 ,5.23007 ,51.31749 
9 ,1.6763 ,0.51079 ,5.21639 ,51.18317 
10 ,1.8526 ,0.51261 ,5.19927 ,51.01528 
11 ,2.0443 ,0.51446 ,5.19243 ,50.94813 
12 ,2.2206 ,0.51628 ,5.18559 ,50.88097 
13 ,2.4128 ,0.51825 ,5.15136 ,50.54519 
14 ,2.5885 ,0.51994 ,5.14110 ,50.44445 
15 ,2.7649 ,0.52175 ,5.13083 ,50.34372 
16 ,2.9409 ,0.52345 ,5.13768 ,50.41087 
17 ,3.1167 ,0.52526 ,5.12056 ,50.24298 
18 ,3.2932 ,0.52704 ,5.08977 ,49.94078 
19 ,3.5012 ,0.52902 ,5.08634 ,49.90720 
20 ,3.6932 ,0.53096 ,5.05897 ,49.63857 
21 ,3.8855 ,0.53284 ,5.02817 ,49.33637 
22 ,4.0775 ,0.53481 ,5.01790 ,49.23563 
23 ,4.2536 ,0.53661 ,5.00763 ,49.13490 
24 ,4.4293 ,0.53830 ,4.97683 ,48.83269 
25 ,4.6055 ,0.54008 ,4.96315 ,48.69838 
26 ,4.7816 ,0.54185 ,4.96657 ,48.73196 
27 ,4.9898 ,0.54387 ,4.94946 ,48.56407 
28 ,5.1655 ,0.54572 ,4.91181 ,48.19471 
29 ,5.3418 ,0.54747 ,4.91866 ,48.26186 
30 ,5.5180 ,0.54927 ,4.89812 ,48.06039 
31 ,5.7101 ,0.55113 ,4.86732 ,47.75819 
32 ,5.8863 ,0.55292 ,4.83995 ,47.48956 
33 ,6.0784 ,0.55486 ,4.84337 ,47.52314 
34 ,6.2544 ,0.55664 ,4.83995 ,47.48956 
35 ,6.4302 ,0.55832 ,4.79204 ,47.01946 
36 ,6.6065 ,0.56011 ,4.77835 ,46.88515 
37 ,6.7827 ,0.56192 ,4.78519 ,46.95231 
38 ,6.9748 ,0.56370 ,4.77150 ,46.81800 
39 ,7.1668 ,0.56566 ,4.73386 ,46.44863 
40 ,7.3429 ,0.56748 ,4.71675 ,46.28074 
41 ,7.5349 ,0.56941 ,4.73044 ,46.41506 
42 ,7.7430 ,0.57139 ,4.68937 ,46.01212 
43 ,7.9191 ,0.57329 ,4.68253 ,45.94496 
44 ,8.0954 ,0.57503 ,4.67226 ,45.84422 
45 ,8.2712 ,0.57674 ,4.65857 ,45.70991 
46 ,8.4470 ,0.57850 ,4.62435 ,45.37413 
47 ,8.6232 ,0.58030 ,4.62093 ,45.34055 
48 ,8.8155 ,0.58222 ,4.62435 ,45.37413 
49 ,8.9916 ,0.58394 ,4.59013 ,45.03835 
50 ,9.2155 ,0.58607 ,4.56960 ,44.83688 
51 ,9.3917 ,0.58798 ,4.56960 ,44.83688 
52 ,9.5678 ,0.58970 ,4.54564 ,44.60183 
53 ,9.7439 ,0.59148 ,4.53195 ,44.46751 
54 ,9.9199 ,0.59324 ,4.51484 ,44.29962 
55 ,10.1121 ,0.59508 ,4.50800 ,44.23247 
56 ,10.3042 ,0.59710 ,4.47035 ,43.86310 
57 ,10.4965 ,0.59891 ,4.47378 ,43.89668 
58 ,10.7202 ,0.60118 ,4.43955 ,43.56090 
59 ,10.9122 ,0.60318 ,4.44982 ,43.66163 
60 ,11.1045 ,0.60506 ,4.40533 ,43.22512 
61 ,11.3125 ,0.60716 ,4.40875 ,43.25870 
62 ,11.5045 ,0.60898 ,4.37453 ,42.92291 
63 ,11.6806 ,0.61086 ,4.36427 ,42.82218 
64 ,11.8568 ,0.61260 ,4.35400 ,42.72144 
65 ,12.0329 ,0.61436 ,4.34716 ,42.65429 
66 ,12.2409 ,0.61637 ,4.31978 ,42.38566 
67 ,12.4166 ,0.61821 ,4.29240 ,42.11703 
68 ,12.5930 ,0.62000 ,4.28898 ,42.08345 
69 ,12.7849 ,0.62190 ,4.27187 ,41.91556 
70 ,12.9611 ,0.62359 ,4.24791 ,41.68051 
71 ,13.1692 ,0.62564 ,4.24107 ,41.61336 
72 ,13.3454 ,0.62749 ,4.22053 ,41.41189 
73 ,13.5535 ,0.62950 ,4.22738 ,41.47905 
74 ,13.7772 ,0.63170 ,4.20000 ,41.21042 
75 ,13.9537 ,0.63360 ,4.18289 ,41.04253 
76 ,14.1457 ,0.63548 ,4.16236 ,40.84106 
77 ,14.3378 ,0.63739 ,4.14183 ,40.63959 
78 ,14.5297 ,0.63928 ,4.13840 ,40.60601 
79 ,14.7060 ,0.64109 ,4.11787 ,40.40454 
80 ,14.8980 ,0.64297 ,4.09391 ,40.16949 
81 ,15.0741 ,0.64474 ,4.08707 ,40.10233 
82 ,15.2661 ,0.64664 ,4.06312 ,39.86729 
83 ,15.4419 ,0.64847 ,4.04600 ,39.69940 
84 ,15.6184 ,0.65023 ,4.02547 ,39.49793 
85 ,15.8265 ,0.65226 ,4.01863 ,39.43077 
86 ,16.0025 ,0.65405 ,4.00836 ,39.33003 
87 ,16.2106 ,0.65605 ,3.99809 ,39.22930 
88 ,16.3868 ,0.65793 ,3.98441 ,39.09499 
89 ,16.5629 ,0.65968 ,3.95703 ,38.82636 
90 ,16.7386 ,0.66141 ,3.93992 ,38.65847 
91 ,16.9304 ,0.66332 ,3.93992 ,38.65847 
92 ,17.1227 ,0.66518 ,3.91254 ,38.38984 
93 ,17.3151 ,0.66715 ,3.89543 ,38.22195 
94 ,17.4911 ,0.66903 ,3.89543 ,38.22195 
95 ,17.6673 ,0.67069 ,3.87832 ,38.05406 
96 ,17.8593 ,0.67255 ,3.84410 ,37.71828 
97 ,18.0511 ,0.67448 ,3.84752 ,37.75185 
98 ,18.2275 ,0.67629 ,3.83725 ,37.65112 
99 ,18.4036 ,0.67806 ,3.81672 ,37.44965 
100 ,18.5958 ,0.67994 ,3.79961 ,37.28176 
101 ,18.7718 ,0.68179 ,3.76881 ,36.97955 
102 ,18.9479 ,0.68351 ,3.77565 ,37.04671 
103 ,19.1235 ,0.68527 ,3.75512 ,36.84524 
104 ,19.2999 ,0.68700 ,3.74143 ,36.71093 
105 ,19.5080 ,0.68905 ,3.72090 ,36.50946 
106 ,19.6841 ,0.69090 ,3.71748 ,36.47588 
107 ,19.8601 ,0.69263 ,3.69010 ,36.20725 
108 ,20.0363 ,0.69435 ,3.67299 ,36.03936 
109 ,20.1961 ,0.69604 ,3.64219 ,35.73716 
110 ,20.3720 ,0.69773 ,3.63192 ,35.63642 
111 ,20.5482 ,0.69945 ,3.63534 ,35.67000 
112 ,20.7247 ,0.70124 ,3.62166 ,35.53569 
113 ,20.9167 ,0.70317 ,3.59428 ,35.26706 
114 ,21.1088 ,0.70501 ,3.58059 ,35.13275 
115 ,21.2845 ,0.70687 ,3.58743 ,35.19990 
116 ,21.4609 ,0.70859 ,3.55663 ,34.89770 
117 ,21.6530 ,0.71056 ,3.53952 ,34.72981 
118 ,21.8291 ,0.71228 ,3.53952 ,34.72981 
119 ,22.0371 ,0.71433 ,3.50872 ,34.42760 
120 ,22.2132 ,0.71613 ,3.50188 ,34.36045 
121 ,22.3893 ,0.71788 ,3.48477 ,34.19255 
122 ,22.5655 ,0.71965 ,3.48819 ,34.22613 
123 ,22.7415 ,0.72146 ,3.47108 ,34.05824 
124 ,22.9334 ,0.72333 ,3.44028 ,33.75604 
125 ,23.1097 ,0.72508 ,3.43344 ,33.68888 
126 ,23.3015 ,0.72693 ,3.41633 ,33.52099 
127 ,23.4777 ,0.72875 ,3.40606 ,33.42025 
128 ,23.6538 ,0.73054 ,3.37868 ,33.15163 
129 ,23.8298 ,0.73235 ,3.35473 ,32.91658 
130 ,24.0060 ,0.73407 ,3.36499 ,33.01731 
131 ,24.1980 ,0.73595 ,3.34104 ,32.78227 
132 ,24.3742 ,0.73776 ,3.32735 ,32.64795 
133 ,24.5662 ,0.73964 ,3.32393 ,32.61437 
134 ,24.7582 ,0.74155 ,3.30339 ,32.41290 
135 ,24.9342 ,0.74331 ,3.27944 ,32.17786 
136 ,25.1264 ,0.74526 ,3.27602 ,32.14428 
137 ,25.3186 ,0.74710 ,3.25891 ,31.97639 
138 ,25.4942 ,0.74891 ,3.23495 ,31.74134 
139 ,25.6705 ,0.75073 ,3.23837 ,31.77492 
140 ,25.8468 ,0.75245 ,3.21784 ,31.57345 
141 ,26.0388 ,0.75437 ,3.21442 ,31.53987 
142 ,26.2309 ,0.75627 ,3.17677 ,31.17051 
143 ,26.4232 ,0.75819 ,3.18362 ,31.23766 
144 ,26.6309 ,0.76029 ,3.15966 ,31.00262 
145 ,26.8070 ,0.76204 ,3.13571 ,30.76757 
146 ,26.9832 ,0.76380 ,3.13913 ,30.80115 
147 ,27.1591 ,0.76555 ,3.11860 ,30.59968 
148 ,27.3348 ,0.76734 ,3.10833 ,30.49894 
149 ,27.5271 ,0.76918 ,3.09806 ,30.39821 
150 ,27.7030 ,0.77100 ,3.07411 ,30.16316 
151 ,27.8952 ,0.77287 ,3.06042 ,30.02884 
152 ,28.0872 ,0.77482 ,3.03989 ,29.82737 
153 ,28.2632 ,0.77663 ,3.02962 ,29.72664 
154 ,28.4392 ,0.77835 ,3.02278 ,29.65948 
155 ,28.6317 ,0.78019 ,3.00224 ,29.45801 
156 ,28.8556 ,0.78250 ,2.99540 ,29.39086 
157 ,29.0479 ,0.78440 ,2.95433 ,28.98792 
158 ,29.2241 ,0.78622 ,2.96802 ,29.12223 
159 ,29.4157 ,0.78812 ,2.96802 ,29.12223 
160 ,29.5758 ,0.78982 ,2.93038 ,28.75287 
161 ,29.7359 ,0.79144 ,2.92011 ,28.65213 
162 ,29.9283 ,0.79313 ,2.92011 ,28.65213 
163 ,30.1205 ,0.79521 ,2.90985 ,28.55140 
164 ,30.3120 ,0.79712 ,2.88247 ,28.28277 
165 ,30.4883 ,0.79881 ,2.86536 ,28.11488 
166 ,30.6646 ,0.80061 ,2.84482 ,27.91341 
167 ,30.8243 ,0.80233 ,2.85167 ,27.98057 
168 ,31.0007 ,0.80394 ,2.82429 ,27.71194 
169 ,31.1930 ,0.80591 ,2.81745 ,27.64479 
170 ,31.3847 ,0.80784 ,2.79691 ,27.44332 
171 ,31.5449 ,0.80951 ,2.78665 ,27.34258 
172 ,31.7368 ,0.81123 ,2.77980 ,27.27542 
173 ,31.9448 ,0.81333 ,2.75243 ,27.00680 
174 ,32.1211 ,0.81514 ,2.75243 ,27.00680 
175 ,32.3133 ,0.81699 ,2.73189 ,26.80533 
176 ,32.5053 ,0.81894 ,2.70794 ,26.57028 
177 ,32.6815 ,0.82082 ,2.69425 ,26.43597 
178 ,32.8734 ,0.82269 ,2.69425 ,26.43597 
179 ,33.0495 ,0.82439 ,2.67372 ,26.23450 
180 ,33.2257 ,0.82624 ,2.66003 ,26.10018 
181 ,33.4177 ,0.82814 ,2.66345 ,26.13376 
182 ,33.5940 ,0.82992 ,2.64976 ,25.99945 
183 ,33.8018 ,0.83180 ,2.62581 ,25.76440 
184 ,33.9779 ,0.83374 ,2.61212 ,25.63009 
185 ,34.1378 ,0.83544 ,2.60527 ,25.56293 
186 ,34.3461 ,0.83725 ,2.56763 ,25.19357 
187 ,34.5223 ,0.83922 ,2.55394 ,25.05926 
188 ,34.6983 ,0.84102 ,2.56078 ,25.12641 
189 ,34.8900 ,0.84288 ,2.54710 ,24.99210 
190 ,35.0667 ,0.84461 ,2.52314 ,24.75705 
191 ,35.2583 ,0.84649 ,2.51287 ,24.65632 
192 ,35.4666 ,0.84863 ,2.49234 ,24.45485 
193 ,35.6585 ,0.85053 ,2.47181 ,24.25338 
194 ,35.8347 ,0.85234 ,2.48207 ,24.35411 
195 ,36.0107 ,0.85408 ,2.45812 ,24.11906 
196 ,36.2028 ,0.85595 ,2.43416 ,23.88402 
197 ,36.3789 ,0.85771 ,2.42390 ,23.78328 
198 ,36.5869 ,0.85977 ,2.40679 ,23.61539 
199 ,36.7631 ,0.86155 ,2.39994 ,23.54823 
200 ,36.9388 ,0.86334 ,2.37599 ,23.31318 
201 ,37.1153 ,0.86510 ,2.37941 ,23.34676 
202 ,37.2912 ,0.86693 ,2.36914 ,23.24603 
203 ,37.4674 ,0.86862 ,2.37256 ,23.27961 
204 ,37.6431 ,0.87041 ,2.34177 ,22.97740 
205 ,37.8355 ,0.87222 ,2.31439 ,22.70877 
206 ,38.0116 ,0.87407 ,2.31781 ,22.74235 
207 ,38.2037 ,0.87590 ,2.28359 ,22.40657 
208 ,38.3797 ,0.87777 ,2.28359 ,22.40657 
209 ,38.5558 ,0.87962 ,2.28359 ,22.40657 
210 ,38.7318 ,0.88122 ,2.26306 ,22.20510 
211 ,38.9238 ,0.88322 ,2.23568 ,21.93647 
212 ,39.1318 ,0.88512 ,2.23568 ,21.93647 
213 ,39.3398 ,0.88727 ,2.21515 ,21.73500 
214 ,39.5158 ,0.88909 ,2.19803 ,21.56711 
215 ,39.6921 ,0.89084 ,2.19803 ,21.56711 
216 ,39.8683 ,0.89259 ,2.19461 ,21.53353 
217 ,40.0604 ,0.89453 ,2.14328 ,21.02986 
218 ,40.2525 ,0.89637 ,2.16039 ,21.19775 
219 ,40.4445 ,0.89834 ,2.13986 ,20.99628 
220 ,40.6206 ,0.90008 ,2.11590 ,20.76123 
221 ,40.8288 ,0.90217 ,2.11248 ,20.72766 
222 ,41.0207 ,0.90414 ,2.09879 ,20.59334 
223 ,41.2129 ,0.90606 ,2.08510 ,20.45903 
224 ,41.4049 ,0.90801 ,2.07484 ,20.35829 
225 ,41.5969 ,0.90982 ,2.04061 ,20.02251 
226 ,41.7888 ,0.91176 ,2.04746 ,20.08967 
227 ,41.9648 ,0.91358 ,2.04061 ,20.02251 
228 ,42.1411 ,0.91529 ,2.02350 ,19.85462 
229 ,42.3173 ,0.91709 ,2.00639 ,19.68673 
230 ,42.5089 ,0.91893 ,2.00639 ,19.68673 
231 ,42.6854 ,0.92080 ,1.98928 ,19.51884 
232 ,42.8775 ,0.92268 ,1.96190 ,19.25021 
233 ,43.0693 ,0.92450 ,1.95506 ,19.18305 
234 ,43.2616 ,0.92642 ,1.94479 ,19.08232 
235 ,43.4537 ,0.92845 ,1.91742 ,18.81369 
236 ,43.6297 ,0.93015 ,1.91399 ,18.78011 
237 ,43.8059 ,0.93202 ,1.90715 ,18.71296 
238 ,44.0139 ,0.93399 ,1.88319 ,18.47791 
239 ,44.1900 ,0.93579 ,1.86951 ,18.34360 
240 ,44.3658 ,0.93759 ,1.86608 ,18.31002 
241 ,44.5582 ,0.93945 ,1.84555 ,18.10855 
242 ,44.7503 ,0.94138 ,1.82160 ,17.87350 
243 ,44.9744 ,0.94348 ,1.80791 ,17.73919 
244 ,45.1339 ,0.94539 ,1.80106 ,17.67203 
245 ,45.3100 ,0.94708 ,1.79422 ,17.60487 
246 ,45.4861 ,0.94875 ,1.78053 ,17.47056 
247 ,45.6625 ,0.95052 ,1.78053 ,17.47056 
248 ,45.8865 ,0.95272 ,1.76000 ,17.26909 
249 ,46.0949 ,0.95470 ,1.72235 ,16.89973 
250 ,46.2708 ,0.95664 ,1.72578 ,16.93331 
251 ,46.4629 ,0.95853 ,1.71209 ,16.79899 
252 ,46.6389 ,0.96028 ,1.68471 ,16.53037 
253 ,46.8147 ,0.96206 ,1.68813 ,16.56395 
254 ,46.9913 ,0.96385 ,1.67102 ,16.39605 
255 ,47.1828 ,0.96575 ,1.66418 ,16.32890 
256 ,47.3591 ,0.96745 ,1.66418 ,16.32890 
257 ,47.5673 ,0.96949 ,1.64707 ,16.16101 
258 ,47.7435 ,0.97133 ,1.61284 ,15.82522 
259 ,47.9190 ,0.97308 ,1.61627 ,15.85880 
260 ,48.0954 ,0.97483 ,1.58204 ,15.52302 
261 ,48.2716 ,0.97659 ,1.56836 ,15.38871 
262 ,48.4795 ,0.97860 ,1.57520 ,15.45586 
263 ,48.6558 ,0.98044 ,1.54440 ,15.15366 
264 ,48.8478 ,0.98233 ,1.54440 ,15.15366 
265 ,49.0240 ,0.98411 ,1.52729 ,14.98577 
266 ,49.2161 ,0.98607 ,1.51702 ,14.88503 
267 ,49.4242 ,0.98805 ,1.51360 ,14.85145 
268 ,49.6002 ,0.98991 ,1.49307 ,14.64998 
269 ,49.7763 ,0.99165 ,1.49307 ,14.64998 
270 ,49.9680 ,0.99357 ,1.44174 ,14.14631 
271 ,50.1442 ,0.99532 ,1.45542 ,14.28062 
272 ,50.3363 ,0.99727 ,1.44858 ,14.21346 
273 ,50.5126 ,0.99905 ,1.42120 ,13.94484 
274 ,50.7206 ,1.00098 ,1.41778 ,13.91126 
275 ,50.8969 ,1.00287 ,1.40409 ,13.77695 
276 ,51.0727 ,1.00462 ,1.38014 ,13.54190 
277 ,51.2488 ,1.00635 ,1.37329 ,13.47474 
278 ,51.4408 ,1.00826 ,1.36303 ,13.37401 
279 ,51.6170 ,1.01001 ,1.36987 ,13.44116 
280 ,51.7932 ,1.01186 ,1.33223 ,13.07180 
281 ,51.9852 ,1.01373 ,1.33565 ,13.10538 
282 ,52.1772 ,1.01557 ,1.32880 ,13.03822 
283 ,52.3690 ,1.01755 ,1.30827 ,12.83675 
284 ,52.5773 ,1.01949 ,1.29800 ,12.73602 
285 ,52.7694 ,1.02156 ,1.27405 ,12.50097 
286 ,52.9616 ,1.02345 ,1.28089 ,12.56813 
287 ,53.1533 ,1.02532 ,1.24667 ,12.23235 
288 ,53.3457 ,1.02724 ,1.25009 ,12.26592 
289 ,53.5374 ,1.02927 ,1.24325 ,12.19877 
290 ,53.7139 ,1.03099 ,1.22272 ,11.99730 
291 ,53.9060 ,1.03293 ,1.18507 ,11.62794 
292 ,54.0817 ,1.03472 ,1.18850 ,11.66151 
293 ,54.2577 ,1.03647 ,1.18850 ,11.66151 
294 ,54.4340 ,1.03817 ,1.18165 ,11.59436 
295 ,54.6101 ,1.04000 ,1.16454 ,11.42647 
296 ,54.7863 ,1.04177 ,1.13716 ,11.15784 
297 ,54.9622 ,1.04351 ,1.14743 ,11.25857 
298 ,55.1545 ,1.04542 ,1.12690 ,11.05710 
299 ,55.3460 ,1.04736 ,1.09952 ,10.78848 
300 ,55.5226 ,1.04906 ,1.10979 ,10.88921 
301 ,55.6982 ,1.05084 ,1.09267 ,10.72132 
302 ,55.8907 ,1.05273 ,1.06187 ,10.41912 
303 ,56.0827 ,1.05457 ,1.06187 ,10.41912 
304 ,56.2590 ,1.05647 ,1.05503 ,10.35196 
305 ,56.4349 ,1.05823 ,1.04476 ,10.25123 
306 ,56.6110 ,1.05993 ,1.02765 ,10.08333 
307 ,56.8031 ,1.06190 ,1.00712 ,9.88186 
308 ,56.9952 ,1.06377 ,1.01054 ,9.91544 
309 ,57.1713 ,1.06553 ,1.00028 ,9.81471 
310 ,57.3473 ,1.06740 ,0.97290 ,9.54608 
311 ,57.5233 ,1.06909 ,0.96263 ,9.44535 
312 ,57.7315 ,1.07117 ,0.95921 ,9.41177 
313 ,57.9235 ,1.07299 ,0.94894 ,9.31103 
314 ,58.0998 ,1.07482 ,0.93868 ,9.21030 
315 ,58.2757 ,1.07664 ,0.93183 ,9.14314 
316 ,58.4518 ,1.07839 ,0.93183 ,9.14314 
317 ,58.6279 ,1.08011 ,0.90103 ,8.84094 
318 ,58.8038 ,1.08191 ,0.88050 ,8.63947 
319 ,58.9957 ,1.08384 ,0.89419 ,8.77378 
320 ,59.1721 ,1.08559 ,0.88392 ,8.67305 
321 ,59.3643 ,1.08754 ,0.84970 ,8.33726 
322 ,59.5560 ,1.08949 ,0.84628 ,8.30368 
323 ,59.7319 ,1.09120 ,0.85997 ,8.43800 
324 ,59.9081 ,1.09290 ,0.82575 ,8.10221 
325 ,60.1002 ,1.09476 ,0.80521 ,7.90074 
326 ,60.2761 ,1.09658 ,0.80521 ,7.90074 
327 ,60.4362 ,1.09836 ,0.80179 ,7.86717 
328 ,60.6124 ,1.09996 ,0.79495 ,7.80001 
329 ,60.8047 ,1.10181 ,0.74704 ,7.32991 
330 ,61.0129 ,1.10392 ,0.76415 ,7.49780 
331 ,61.2210 ,1.10592 ,0.75046 ,7.36349 
332 ,61.3971 ,1.10780 ,0.72992 ,7.16202 
333 ,61.5731 ,1.10958 ,0.72992 ,7.16202 
334 ,61.7808 ,1.11162 ,0.70255 ,6.89340 
335 ,61.9569 ,1.11337 ,0.69570 ,6.82624 
336 ,62.1329 ,1.11516 ,0.68544 ,6.72550 
337 ,62.3249 ,1.11701 ,0.67859 ,6.65835 
338 ,62.5010 ,1.11885 ,0.66833 ,6.55761 
339 ,62.6935 ,1.12070 ,0.65806 ,6.45688 
340 ,62.9016 ,1.12284 ,0.63068 ,6.18825 
341 ,63.1096 ,1.12487 ,0.62726 ,6.15467 
342 ,63.3018 ,1.12676 ,0.59988 ,5.88605 
343 ,63.5098 ,1.12888 ,0.59988 ,5.88605 
344 ,63.7339 ,1.13103 ,0.60330 ,5.91962 
345 ,63.9259 ,1.13316 ,0.56224 ,5.51668 
346 ,64.1180 ,1.13497 ,0.54855 ,5.38237 
347 ,64.2944 ,1.13678 ,0.55539 ,5.44953 
348 ,64.4701 ,1.13857 ,0.54855 ,5.38237 
349 ,64.6463 ,1.14030 ,0.53486 ,5.24806 
350 ,64.8701 ,1.14248 ,0.52459 ,5.14732 
351 ,65.0783 ,1.14453 ,0.50406 ,4.94585 
352 ,65.2705 ,1.14650 ,0.50748 ,4.97943 
353 ,65.4627 ,1.14836 ,0.48695 ,4.77796 
354 ,65.6548 ,1.15039 ,0.46300 ,4.54291 
355 ,65.8308 ,1.15220 ,0.47668 ,4.67723 
356 ,66.0063 ,1.15389 ,0.45273 ,4.44218 
357 ,66.1829 ,1.15562 ,0.42877 ,4.20713 
358 ,66.3589 ,1.15737 ,0.42193 ,4.13997 
359 ,66.5511 ,1.15930 ,0.42535 ,4.17355 
360 ,66.7433 ,1.16122 ,0.41166 ,4.03924 
361 ,66.9353 ,1.16319 ,0.39113 ,3.83777 
362 ,67.0952 ,1.16489 ,0.39113 ,3.83777 
363 ,67.2713 ,1.16653 ,0.39455 ,3.87135 
364 ,67.4633 ,1.16836 ,0.36033 ,3.53557 
365 ,67.6394 ,1.17020 ,0.36033 ,3.53557 
366 ,67.8477 ,1.17212 ,0.34322 ,3.36767 
367 ,68.0393 ,1.17419 ,0.32611 ,3.19978 
368 ,68.2158 ,1.17597 ,0.30558 ,2.99831 
369 ,68.4078 ,1.17791 ,0.32953 ,3.23336 
370 ,68.6000 ,1.17972 ,0.29189 ,2.86400 
371 ,68.7921 ,1.18179 ,0.28162 ,2.76326 
372 ,68.9840 ,1.18364 ,0.29189 ,2.86400 
373 ,69.1438 ,1.18534 ,0.26793 ,2.62895 
374 ,69.3203 ,1.18706 ,0.26451 ,2.59537 
375 ,69.5123 ,1.18896 ,0.25082 ,2.46106 
376 ,69.7044 ,1.19088 ,0.25767 ,2.52822 
377 ,69.8966 ,1.19276 ,0.22344 ,2.19243 
378 ,70.0725 ,1.19451 ,0.20633 ,2.02454 
379 ,70.2644 ,1.19638 ,0.21660 ,2.12528 
380 ,70.4406 ,1.19821 ,0.19949 ,1.95738 
381 ,70.6327 ,1.20014 ,0.17553 ,1.72234 
382 ,70.8087 ,1.20187 ,0.17896 ,1.75592 
383 ,70.9848 ,1.20366 ,0.17553 ,1.72234 
384 ,71.1606 ,1.20544 ,0.16869 ,1.65518 
385 ,71.3369 ,1.20724 ,0.13447 ,1.31940 
386 ,71.5130 ,1.20894 ,0.12762 ,1.25224 
387 ,71.7052 ,1.21089 ,0.13447 ,1.31940 
388 ,71.8972 ,1.21276 ,0.11393 ,1.11793 
389 ,72.0734 ,1.21449 ,0.10367 ,1.01719 
390 ,72.2653 ,1.21648 ,0.11393 ,1.11793 
391 ,72.4413 ,1.21823 ,0.09682 ,0.95004 
392 ,72.6334 ,1.22013 ,0.06945 ,0.68141 
393 ,72.8256 ,1.22201 ,0.08314 ,0.81572 
394 ,73.0177 ,1.22397 ,0.06260 ,0.61425 
395 ,73.2098 ,1.22583 ,0.04891 ,0.47994 
396 ,73.3856 ,1.22768 ,0.03865 ,0.37920 
397 ,73.5779 ,1.22954 ,0.01127 ,0.11058 
398 ,73.7700 ,1.23149 ,0.00443 ,0.04342 
399 ,73.9621 ,1.23333 ,0.01127 ,0.11058 
400 ,74.1862 ,1.23541 ,-0.01953 ,-0.19163 
401 ,74.3782 ,1.23752 ,-0.01269 ,-0.12447 
402 ,74.5862 ,1.23961 ,-0.01611 ,-0.15805 
403 ,74.7623 ,1.24146 ,-0.02637 ,-0.25878 
404 ,74.9384 ,1.24316 ,-0.04348 ,-0.42667 
405 ,75.1145 ,1.24496 ,-0.05375 ,-0.52741 
406 ,75.3064 ,1.24688 ,-0.07771 ,-0.76246 
407 ,75.4826 ,1.24860 ,-0.06060 ,-0.59457 
408 ,75.6748 ,1.25052 ,-0.09482 ,-0.93035 
409 ,75.8666 ,1.25243 ,-0.09140 ,-0.89677 
410 ,76.0429 ,1.25421 ,-0.09824 ,-0.96393 
411 ,76.2508 ,1.25619 ,-0.12562 ,-1.23255 
412 ,76.4431 ,1.25810 ,-0.12219 ,-1.19898 
413 ,76.6350 ,1.26020 ,-0.14273 ,-1.40045 
414 ,76.8111 ,1.26191 ,-0.13588 ,-1.33329 
415 ,77.0193 ,1.26385 ,-0.14615 ,-1.43402 
416 ,77.1955 ,1.26577 ,-0.15299 ,-1.50118 
417 ,77.3874 ,1.26762 ,-0.15642 ,-1.53476 
418 ,77.5793 ,1.26957 ,-0.17695 ,-1.73623 
419 ,77.7715 ,1.27138 ,-0.17695 ,-1.73623 
420 ,77.9635 ,1.27344 ,-0.20090 ,-1.97128 
421 ,78.1395 ,1.27514 ,-0.20433 ,-2.00485 
422 ,78.3315 ,1.27708 ,-0.22486 ,-2.20632 
423 ,78.5239 ,1.27905 ,-0.22486 ,-2.20632 
424 ,78.6997 ,1.28077 ,-0.21459 ,-2.10559 
425 ,78.8758 ,1.28255 ,-0.24197 ,-2.37422 
426 ,79.0520 ,1.28428 ,-0.25908 ,-2.54211 
427 ,79.2761 ,1.28640 ,-0.24881 ,-2.44137 
428 ,79.4681 ,1.28844 ,-0.27961 ,-2.74358 
429 ,79.6439 ,1.29024 ,-0.27961 ,-2.74358 
430 ,79.8362 ,1.29208 ,-0.28304 ,-2.77716 
431 ,80.0122 ,1.29392 ,-0.29673 ,-2.91147 
432 ,80.1885 ,1.29565 ,-0.31041 ,-3.04578 
433 ,80.3645 ,1.29744 ,-0.32410 ,-3.18010 
434 ,80.5565 ,1.29931 ,-0.32410 ,-3.18010 
435 ,80.7486 ,1.30113 ,-0.33095 ,-3.24725 
436 ,80.9086 ,1.30294 ,-0.36175 ,-3.54946 
437 ,81.0848 ,1.30463 ,-0.35832 ,-3.51588 
438 ,81.2608 ,1.30638 ,-0.34806 ,-3.41514 
439 ,81.4530 ,1.30830 ,-0.35832 ,-3.51588 
440 ,81.6451 ,1.31018 ,-0.37544 ,-3.68377 
441 ,81.8371 ,1.31214 ,-0.36859 ,-3.61661 
442 ,82.0132 ,1.31394 ,-0.39939 ,-3.91882 
443 ,82.2052 ,1.31578 ,-0.40623 ,-3.98597 
444 ,82.3814 ,1.31757 ,-0.40281 ,-3.95240 
445 ,82.5734 ,1.31951 ,-0.40966 ,-4.01955 
446 ,82.7655 ,1.32139 ,-0.43361 ,-4.25460 
447 ,82.9412 ,1.32320 ,-0.43703 ,-4.28818 
448 ,83.1176 ,1.32496 ,-0.44388 ,-4.35534 
449 ,83.3093 ,1.32686 ,-0.47126 ,-4.62396 
450 ,83.4854 ,1.32859 ,-0.45757 ,-4.48965 
451 ,83.6615 ,1.33040 ,-0.48494 ,-4.75828 
452 ,83.8380 ,1.33213 ,-0.47468 ,-4.65754 
453 ,84.0456 ,1.33414 ,-0.49521 ,-4.85901 
454 ,84.2221 ,1.33592 ,-0.49863 ,-4.89259 
455 ,84.4143 ,1.33783 ,-0.50890 ,-4.99332 
456 ,84.5903 ,1.33968 ,-0.49863 ,-4.89259 
457 ,84.7823 ,1.34156 ,-0.52601 ,-5.16121 
458 ,84.9585 ,1.34331 ,-0.51917 ,-5.09406 
459 ,85.1343 ,1.34509 ,-0.52259 ,-5.12764 
460 ,85.3103 ,1.34688 ,-0.53970 ,-5.29553 
461 ,85.5027 ,1.34868 ,-0.55339 ,-5.42984 
462 ,85.7106 ,1.35082 ,-0.56023 ,-5.49700 
463 ,85.9029 ,1.35273 ,-0.58077 ,-5.69847 
464 ,86.1106 ,1.35478 ,-0.57050 ,-5.59773 
