Data stamp = , 07-04-2022 06:48:29 906

Calibration Values: 
Slope = , 26.54 , g/V 
Offset Voltage at no contact = , -0.501760 , V 

No , Time , Stage Position ,   Mass , Force 
   ,  (s) ,      (mm)      ,   (g)  , (mN)  

1 ,0.0000 ,0.49939 ,5.23350 ,51.35107 
2 ,0.2248 ,0.49949 ,5.23350 ,51.35107 
3 ,0.5452 ,0.50036 ,5.24376 ,51.45180 
4 ,0.7533 ,0.50191 ,5.25403 ,51.55254 
5 ,0.9611 ,0.50369 ,5.23692 ,51.38464 
6 ,1.1371 ,0.50554 ,5.23007 ,51.31749 
7 ,1.3291 ,0.50730 ,5.23007 ,51.31749 
8 ,1.5059 ,0.50918 ,5.21639 ,51.18317 
9 ,1.7296 ,0.51143 ,5.20270 ,51.04886 
10 ,1.9219 ,0.51334 ,5.20612 ,51.08244 
11 ,2.1141 ,0.51522 ,5.17532 ,50.78023 
12 ,2.2900 ,0.51700 ,5.16848 ,50.71308 
13 ,2.4661 ,0.51874 ,5.13425 ,50.37729 
14 ,2.6420 ,0.52054 ,5.14110 ,50.44445 
15 ,2.8340 ,0.52245 ,5.10688 ,50.10867 
16 ,3.0262 ,0.52425 ,5.09661 ,50.00793 
17 ,3.2024 ,0.52616 ,5.08292 ,49.87362 
18 ,3.3784 ,0.52797 ,5.07608 ,49.80646 
19 ,3.5544 ,0.52966 ,5.06581 ,49.70573 
20 ,3.7307 ,0.53141 ,5.04185 ,49.47068 
21 ,3.9226 ,0.53329 ,5.03501 ,49.40352 
22 ,4.1149 ,0.53521 ,5.00079 ,49.06774 
23 ,4.2904 ,0.53702 ,4.98710 ,48.93343 
24 ,4.4504 ,0.53876 ,4.96315 ,48.69838 
25 ,4.6265 ,0.54036 ,4.95972 ,48.66480 
26 ,4.8031 ,0.54218 ,4.93577 ,48.42975 
27 ,5.0113 ,0.54419 ,4.92550 ,48.32902 
28 ,5.2034 ,0.54620 ,4.89470 ,48.02681 
29 ,5.3794 ,0.54795 ,4.88786 ,47.95966 
30 ,5.5714 ,0.54976 ,4.86732 ,47.75819 
31 ,5.7795 ,0.55190 ,4.85706 ,47.65745 
32 ,5.9556 ,0.55370 ,4.85021 ,47.59030 
33 ,6.1477 ,0.55559 ,4.81257 ,47.22093 
34 ,6.3235 ,0.55733 ,4.79204 ,47.01946 
35 ,6.4994 ,0.55915 ,4.77835 ,46.88515 
36 ,6.6756 ,0.56091 ,4.77835 ,46.88515 
37 ,6.8679 ,0.56288 ,4.74070 ,46.51579 
38 ,7.0438 ,0.56454 ,4.72702 ,46.38148 
39 ,7.2198 ,0.56632 ,4.72017 ,46.31432 
40 ,7.3961 ,0.56807 ,4.71675 ,46.28074 
41 ,7.5878 ,0.56990 ,4.69964 ,46.11285 
42 ,7.7642 ,0.57171 ,4.66884 ,45.81065 
43 ,7.9562 ,0.57369 ,4.66884 ,45.81065 
44 ,8.1324 ,0.57546 ,4.66199 ,45.74349 
45 ,8.3244 ,0.57725 ,4.62093 ,45.34055 
46 ,8.5006 ,0.57909 ,4.61408 ,45.27339 
47 ,8.6923 ,0.58094 ,4.60040 ,45.13908 
48 ,8.8686 ,0.58276 ,4.57986 ,44.93761 
49 ,9.0287 ,0.58449 ,4.56275 ,44.76972 
50 ,9.2050 ,0.58616 ,4.54222 ,44.56825 
51 ,9.3809 ,0.58795 ,4.52511 ,44.40036 
52 ,9.5570 ,0.58973 ,4.52511 ,44.40036 
53 ,9.7329 ,0.59145 ,4.51142 ,44.26604 
54 ,9.9091 ,0.59315 ,4.48746 ,44.03100 
55 ,10.1011 ,0.59508 ,4.46351 ,43.79595 
56 ,10.2773 ,0.59687 ,4.45666 ,43.72879 
57 ,10.4533 ,0.59865 ,4.44982 ,43.66163 
58 ,10.6454 ,0.60048 ,4.42244 ,43.39301 
59 ,10.8376 ,0.60247 ,4.39849 ,43.15796 
60 ,11.0297 ,0.60443 ,4.39849 ,43.15796 
61 ,11.2215 ,0.60631 ,4.37111 ,42.88933 
62 ,11.3979 ,0.60811 ,4.36084 ,42.78860 
63 ,11.6058 ,0.61010 ,4.34373 ,42.62071 
64 ,11.7817 ,0.61190 ,4.31636 ,42.35208 
65 ,11.9581 ,0.61369 ,4.29240 ,42.11703 
66 ,12.1501 ,0.61561 ,4.29582 ,42.15061 
67 ,12.3102 ,0.61733 ,4.28213 ,42.01630 
68 ,12.4863 ,0.61898 ,4.27187 ,41.91556 
69 ,12.6784 ,0.62090 ,4.24449 ,41.64694 
70 ,12.8540 ,0.62264 ,4.23765 ,41.57978 
71 ,13.0465 ,0.62449 ,4.23080 ,41.51262 
72 ,13.2384 ,0.62647 ,4.19316 ,41.14326 
73 ,13.4148 ,0.62824 ,4.19658 ,41.17684 
74 ,13.6066 ,0.63019 ,4.17262 ,40.94179 
75 ,13.7828 ,0.63191 ,4.15209 ,40.74032 
76 ,13.9588 ,0.63369 ,4.13840 ,40.60601 
77 ,14.1350 ,0.63541 ,4.12471 ,40.47170 
78 ,14.3112 ,0.63723 ,4.11103 ,40.33738 
79 ,14.5190 ,0.63915 ,4.08023 ,40.03518 
80 ,14.6952 ,0.64102 ,4.07680 ,40.00160 
81 ,14.8712 ,0.64280 ,4.05969 ,39.83371 
82 ,15.0471 ,0.64455 ,4.04600 ,39.69940 
83 ,15.2234 ,0.64629 ,4.01863 ,39.43077 
84 ,15.4155 ,0.64820 ,4.00836 ,39.33003 
85 ,15.6074 ,0.65010 ,4.00152 ,39.26288 
86 ,15.7835 ,0.65189 ,3.99125 ,39.16214 
87 ,15.9597 ,0.65368 ,3.94676 ,38.72562 
88 ,16.1196 ,0.65539 ,3.93992 ,38.65847 
89 ,16.3278 ,0.65720 ,3.92623 ,38.52415 
90 ,16.5198 ,0.65930 ,3.90912 ,38.35626 
91 ,16.6958 ,0.66102 ,3.89543 ,38.22195 
92 ,16.9039 ,0.66297 ,3.87832 ,38.05406 
93 ,17.0958 ,0.66495 ,3.86463 ,37.91975 
94 ,17.2882 ,0.66690 ,3.87147 ,37.98690 
95 ,17.4800 ,0.66881 ,3.83041 ,37.58396 
96 ,17.6563 ,0.67061 ,3.81672 ,37.44965 
97 ,17.8323 ,0.67236 ,3.80987 ,37.38249 
98 ,18.0088 ,0.67418 ,3.80303 ,37.31534 
99 ,18.1841 ,0.67596 ,3.76539 ,36.94597 
100 ,18.3606 ,0.67766 ,3.75854 ,36.87882 
101 ,18.5367 ,0.67944 ,3.74485 ,36.74450 
102 ,18.7127 ,0.68120 ,3.73117 ,36.61019 
103 ,18.8886 ,0.68297 ,3.72774 ,36.57661 
104 ,19.0649 ,0.68466 ,3.71748 ,36.47588 
105 ,19.2566 ,0.68665 ,3.66957 ,36.00578 
106 ,19.4331 ,0.68840 ,3.67299 ,36.03936 
107 ,19.6091 ,0.69015 ,3.66957 ,36.00578 
108 ,19.7848 ,0.69193 ,3.66272 ,35.93863 
109 ,19.9610 ,0.69368 ,3.64561 ,35.77073 
110 ,20.1532 ,0.69560 ,3.60797 ,35.40137 
111 ,20.3455 ,0.69753 ,3.61481 ,35.46853 
112 ,20.5534 ,0.69951 ,3.59086 ,35.23348 
113 ,20.7297 ,0.70138 ,3.57375 ,35.06559 
114 ,20.9057 ,0.70315 ,3.57032 ,35.03201 
115 ,21.0978 ,0.70506 ,3.54295 ,34.76338 
116 ,21.2898 ,0.70694 ,3.52926 ,34.62907 
117 ,21.4497 ,0.70868 ,3.53610 ,34.69623 
118 ,21.6580 ,0.71062 ,3.50530 ,34.39402 
119 ,21.8337 ,0.71238 ,3.48477 ,34.19255 
120 ,22.0104 ,0.71416 ,3.47108 ,34.05824 
121 ,22.2021 ,0.71598 ,3.45739 ,33.92393 
122 ,22.3782 ,0.71786 ,3.45055 ,33.85677 
123 ,22.5543 ,0.71958 ,3.42659 ,33.62172 
124 ,22.7464 ,0.72158 ,3.43001 ,33.65530 
125 ,22.9223 ,0.72331 ,3.39237 ,33.28594 
126 ,23.0986 ,0.72503 ,3.38895 ,33.25236 
127 ,23.2907 ,0.72690 ,3.37184 ,33.08447 
128 ,23.4665 ,0.72873 ,3.35815 ,32.95016 
129 ,23.6588 ,0.73059 ,3.34104 ,32.78227 
130 ,23.8507 ,0.73258 ,3.32051 ,32.58080 
131 ,24.0269 ,0.73433 ,3.33419 ,32.71511 
132 ,24.2351 ,0.73636 ,3.29655 ,32.34575 
133 ,24.4270 ,0.73822 ,3.29997 ,32.37933 
134 ,24.6191 ,0.74028 ,3.27259 ,32.11070 
135 ,24.7950 ,0.74203 ,3.24864 ,31.87565 
136 ,24.9873 ,0.74391 ,3.23495 ,31.74134 
137 ,25.1631 ,0.74566 ,3.24522 ,31.84207 
138 ,25.3555 ,0.74762 ,3.21784 ,31.57345 
139 ,25.5314 ,0.74946 ,3.20757 ,31.47271 
140 ,25.7077 ,0.75111 ,3.18362 ,31.23766 
141 ,25.8997 ,0.75310 ,3.18020 ,31.20409 
142 ,26.0758 ,0.75484 ,3.16309 ,31.03619 
143 ,26.2518 ,0.75656 ,3.14255 ,30.83472 
144 ,26.4280 ,0.75835 ,3.13229 ,30.73399 
145 ,26.6039 ,0.76013 ,3.12202 ,30.63325 
146 ,26.7961 ,0.76200 ,3.11518 ,30.56610 
147 ,26.9881 ,0.76391 ,3.09122 ,30.33105 
148 ,27.1482 ,0.76563 ,3.08780 ,30.29747 
149 ,27.3403 ,0.76737 ,3.07411 ,30.16316 
150 ,27.5322 ,0.76937 ,3.03647 ,29.79380 
151 ,27.7081 ,0.77112 ,3.02620 ,29.69306 
152 ,27.8843 ,0.77287 ,3.02962 ,29.72664 
153 ,28.0767 ,0.77484 ,3.02620 ,29.69306 
154 ,28.2685 ,0.77673 ,3.00567 ,29.49159 
155 ,28.4768 ,0.77877 ,2.97487 ,29.18939 
156 ,28.6687 ,0.78070 ,2.96118 ,29.05507 
157 ,28.8289 ,0.78246 ,2.95091 ,28.95434 
158 ,29.0050 ,0.78403 ,2.94407 ,28.88718 
159 ,29.2292 ,0.78615 ,2.94407 ,28.88718 
160 ,29.4209 ,0.78817 ,2.92696 ,28.71929 
161 ,29.5972 ,0.79000 ,2.90985 ,28.55140 
162 ,29.7732 ,0.79172 ,2.88589 ,28.31635 
163 ,29.9491 ,0.79351 ,2.85851 ,28.04772 
164 ,30.1251 ,0.79527 ,2.85851 ,28.04772 
165 ,30.3171 ,0.79720 ,2.85167 ,27.98057 
166 ,30.4936 ,0.79900 ,2.82429 ,27.71194 
167 ,30.6857 ,0.80087 ,2.81060 ,27.57763 
168 ,30.8618 ,0.80269 ,2.81402 ,27.61121 
169 ,31.0538 ,0.80454 ,2.79691 ,27.44332 
170 ,31.2460 ,0.80652 ,2.78322 ,27.30900 
171 ,31.4219 ,0.80824 ,2.76269 ,27.10753 
172 ,31.5981 ,0.81002 ,2.76611 ,27.14111 
173 ,31.7743 ,0.81177 ,2.73874 ,26.87248 
174 ,31.9500 ,0.81353 ,2.71478 ,26.63744 
175 ,32.1423 ,0.81544 ,2.71136 ,26.60386 
176 ,32.3183 ,0.81732 ,2.69083 ,26.40239 
177 ,32.4944 ,0.81894 ,2.69083 ,26.40239 
178 ,32.6709 ,0.82068 ,2.67372 ,26.23450 
179 ,32.8466 ,0.82254 ,2.65660 ,26.06661 
180 ,33.0384 ,0.82442 ,2.65318 ,26.03303 
181 ,33.2307 ,0.82629 ,2.62581 ,25.76440 
182 ,33.4548 ,0.82853 ,2.60527 ,25.56293 
183 ,33.6309 ,0.83036 ,2.59843 ,25.49577 
184 ,33.8231 ,0.83216 ,2.59501 ,25.46220 
185 ,33.9991 ,0.83404 ,2.59158 ,25.42862 
186 ,34.1588 ,0.83569 ,2.56421 ,25.15999 
187 ,34.3352 ,0.83737 ,2.55736 ,25.09283 
188 ,34.5116 ,0.83909 ,2.52998 ,24.82421 
189 ,34.7034 ,0.84098 ,2.50261 ,24.55558 
190 ,34.8955 ,0.84290 ,2.50945 ,24.62274 
191 ,35.0717 ,0.84473 ,2.48892 ,24.42127 
192 ,35.2476 ,0.84655 ,2.47865 ,24.32053 
193 ,35.4395 ,0.84837 ,2.47523 ,24.28696 
194 ,35.6156 ,0.85012 ,2.46839 ,24.21980 
195 ,35.7921 ,0.85188 ,2.44785 ,24.01833 
196 ,35.9679 ,0.85373 ,2.42048 ,23.74970 
197 ,36.1441 ,0.85544 ,2.41021 ,23.64897 
198 ,36.3200 ,0.85720 ,2.38968 ,23.44750 
199 ,36.4962 ,0.85892 ,2.39994 ,23.54823 
200 ,36.6720 ,0.86070 ,2.38283 ,23.38034 
201 ,36.8483 ,0.86249 ,2.36230 ,23.17887 
202 ,37.0404 ,0.86442 ,2.34861 ,23.04456 
203 ,37.2326 ,0.86625 ,2.33492 ,22.91024 
204 ,37.4242 ,0.86825 ,2.30412 ,22.60804 
205 ,37.6005 ,0.87004 ,2.30754 ,22.64162 
206 ,37.7767 ,0.87175 ,2.29385 ,22.50731 
207 ,37.9688 ,0.87359 ,2.27674 ,22.33941 
208 ,38.1448 ,0.87548 ,2.26306 ,22.20510 
209 ,38.3207 ,0.87719 ,2.24937 ,22.07079 
210 ,38.4971 ,0.87895 ,2.23910 ,21.97005 
211 ,38.7047 ,0.88098 ,2.20830 ,21.66785 
212 ,38.8811 ,0.88275 ,2.19803 ,21.56711 
213 ,39.0572 ,0.88453 ,2.20146 ,21.60069 
214 ,39.2491 ,0.88643 ,2.17408 ,21.33206 
215 ,39.4409 ,0.88838 ,2.16381 ,21.23133 
216 ,39.6174 ,0.89016 ,2.15697 ,21.16417 
217 ,39.7935 ,0.89189 ,2.14670 ,21.06344 
218 ,39.9696 ,0.89369 ,2.14670 ,21.06344 
219 ,40.1617 ,0.89552 ,2.10564 ,20.66050 
220 ,40.3537 ,0.89752 ,2.10906 ,20.69408 
221 ,40.5297 ,0.89933 ,2.10221 ,20.62692 
222 ,40.7059 ,0.90097 ,2.07141 ,20.32472 
223 ,40.8820 ,0.90281 ,2.06115 ,20.22398 
224 ,41.0740 ,0.90466 ,2.06115 ,20.22398 
225 ,41.2662 ,0.90663 ,2.04061 ,20.02251 
226 ,41.4419 ,0.90838 ,2.01324 ,19.75388 
227 ,41.6501 ,0.91045 ,2.02350 ,19.85462 
228 ,41.8422 ,0.91236 ,1.99270 ,19.55241 
229 ,42.0184 ,0.91412 ,1.98244 ,19.45168 
230 ,42.2105 ,0.91602 ,1.98244 ,19.45168 
231 ,42.3865 ,0.91790 ,1.96190 ,19.25021 
232 ,42.5944 ,0.91986 ,1.95164 ,19.14948 
233 ,42.7867 ,0.92174 ,1.93453 ,18.98158 
234 ,42.9788 ,0.92368 ,1.91742 ,18.81369 
235 ,43.1706 ,0.92566 ,1.92084 ,18.84727 
236 ,43.3628 ,0.92754 ,1.88319 ,18.47791 
237 ,43.5710 ,0.92961 ,1.88662 ,18.51149 
238 ,43.7630 ,0.93155 ,1.86266 ,18.27644 
239 ,43.9551 ,0.93348 ,1.84897 ,18.14213 
240 ,44.1314 ,0.93527 ,1.85240 ,18.17570 
241 ,44.3233 ,0.93719 ,1.81817 ,17.83992 
242 ,44.5157 ,0.93909 ,1.80106 ,17.67203 
243 ,44.6915 ,0.94088 ,1.79080 ,17.57129 
244 ,44.9157 ,0.94299 ,1.77026 ,17.36983 
245 ,45.1236 ,0.94514 ,1.76342 ,17.30267 
246 ,45.2993 ,0.94699 ,1.74289 ,17.10120 
247 ,45.4759 ,0.94874 ,1.73604 ,17.03404 
248 ,45.6839 ,0.95073 ,1.72235 ,16.89973 
249 ,45.8600 ,0.95261 ,1.70182 ,16.69826 
250 ,46.0360 ,0.95428 ,1.68813 ,16.56395 
251 ,46.2439 ,0.95633 ,1.69155 ,16.59752 
252 ,46.4363 ,0.95830 ,1.66075 ,16.29532 
253 ,46.6283 ,0.96024 ,1.66075 ,16.29532 
254 ,46.8204 ,0.96210 ,1.62311 ,15.92596 
255 ,47.0285 ,0.96419 ,1.63338 ,16.02669 
256 ,47.2365 ,0.96623 ,1.61969 ,15.89238 
257 ,47.4126 ,0.96815 ,1.60600 ,15.75807 
258 ,47.5885 ,0.96986 ,1.59916 ,15.69091 
259 ,47.7646 ,0.97161 ,1.58889 ,15.59018 
260 ,47.9725 ,0.97365 ,1.55809 ,15.28797 
261 ,48.1488 ,0.97544 ,1.56493 ,15.35513 
262 ,48.3248 ,0.97717 ,1.54098 ,15.12008 
263 ,48.5171 ,0.97905 ,1.52045 ,14.91861 
264 ,48.6930 ,0.98083 ,1.51360 ,14.85145 
265 ,48.8692 ,0.98263 ,1.49991 ,14.71714 
266 ,49.0452 ,0.98445 ,1.47938 ,14.51567 
267 ,49.2214 ,0.98614 ,1.46911 ,14.41493 
268 ,49.4133 ,0.98798 ,1.44858 ,14.21346 
269 ,49.5894 ,0.98983 ,1.44858 ,14.21346 
270 ,49.7655 ,0.99165 ,1.45200 ,14.24704 
271 ,49.9417 ,0.99334 ,1.42462 ,13.97842 
272 ,50.1176 ,0.99520 ,1.40067 ,13.74337 
273 ,50.2938 ,0.99691 ,1.39040 ,13.64263 
274 ,50.4699 ,0.99866 ,1.38356 ,13.57548 
275 ,50.6618 ,1.00055 ,1.38698 ,13.60906 
276 ,50.8378 ,1.00232 ,1.35960 ,13.34043 
277 ,51.0460 ,1.00442 ,1.36987 ,13.44116 
278 ,51.2541 ,1.00644 ,1.33223 ,13.07180 
279 ,51.4783 ,1.00864 ,1.30827 ,12.83675 
280 ,51.6543 ,1.01048 ,1.30485 ,12.80318 
281 ,51.8302 ,1.01224 ,1.29458 ,12.70244 
282 ,52.0064 ,1.01402 ,1.29458 ,12.70244 
283 ,52.1821 ,1.01571 ,1.28089 ,12.56813 
284 ,52.3587 ,1.01755 ,1.26036 ,12.36666 
285 ,52.5507 ,1.01941 ,1.24325 ,12.19877 
286 ,52.7268 ,1.02116 ,1.24325 ,12.19877 
287 ,52.9188 ,1.02315 ,1.22614 ,12.03088 
288 ,53.0949 ,1.02485 ,1.20903 ,11.86298 
289 ,53.2866 ,1.02675 ,1.21929 ,11.96372 
290 ,53.4630 ,1.02855 ,1.19192 ,11.69509 
291 ,53.6552 ,1.03048 ,1.16796 ,11.46004 
292 ,53.8313 ,1.03223 ,1.16112 ,11.39289 
293 ,54.0076 ,1.03403 ,1.15770 ,11.35931 
294 ,54.1994 ,1.03591 ,1.14401 ,11.22500 
295 ,54.3755 ,1.03769 ,1.12005 ,10.98995 
296 ,54.5516 ,1.03943 ,1.10294 ,10.82206 
297 ,54.7276 ,1.04119 ,1.10979 ,10.88921 
298 ,54.8876 ,1.04291 ,1.09610 ,10.75490 
299 ,55.0637 ,1.04454 ,1.09610 ,10.75490 
300 ,55.2558 ,1.04648 ,1.06530 ,10.45270 
301 ,55.4316 ,1.04820 ,1.04819 ,10.28480 
302 ,55.6081 ,1.05001 ,1.03792 ,10.18407 
303 ,55.7841 ,1.05173 ,1.04134 ,10.21765 
304 ,55.9602 ,1.05355 ,1.03450 ,10.15049 
305 ,56.1362 ,1.05531 ,1.01396 ,9.94902 
306 ,56.3125 ,1.05703 ,0.99685 ,9.78113 
307 ,56.4882 ,1.05891 ,1.00712 ,9.88186 
308 ,56.6643 ,1.06052 ,0.98659 ,9.68039 
309 ,56.8402 ,1.06233 ,0.98317 ,9.64682 
310 ,57.0168 ,1.06410 ,0.96263 ,9.44535 
311 ,57.2247 ,1.06598 ,0.95921 ,9.41177 
312 ,57.4166 ,1.06802 ,0.92841 ,9.10956 
313 ,57.6248 ,1.07008 ,0.93183 ,9.14314 
314 ,57.8168 ,1.07211 ,0.91472 ,8.97525 
315 ,57.9926 ,1.07387 ,0.89761 ,8.80736 
316 ,58.1690 ,1.07563 ,0.89419 ,8.77378 
317 ,58.3611 ,1.07745 ,0.88392 ,8.67305 
318 ,58.5368 ,1.07931 ,0.88050 ,8.63947 
319 ,58.7133 ,1.08105 ,0.86339 ,8.47158 
320 ,58.9212 ,1.08305 ,0.86339 ,8.47158 
321 ,59.0973 ,1.08487 ,0.84286 ,8.27011 
322 ,59.2734 ,1.08661 ,0.81206 ,7.96790 
323 ,59.4975 ,1.08878 ,0.81890 ,8.03506 
324 ,59.6575 ,1.09062 ,0.79495 ,7.80001 
325 ,59.8336 ,1.09222 ,0.78468 ,7.69927 
326 ,60.0258 ,1.09406 ,0.78126 ,7.66570 
327 ,60.2178 ,1.09613 ,0.78468 ,7.69927 
328 ,60.4098 ,1.09796 ,0.74704 ,7.32991 
329 ,60.5859 ,1.09977 ,0.74361 ,7.29633 
330 ,60.7618 ,1.10152 ,0.73677 ,7.22918 
331 ,60.9541 ,1.10341 ,0.73677 ,7.22918 
332 ,61.1303 ,1.10524 ,0.71966 ,7.06129 
333 ,61.3221 ,1.10712 ,0.70255 ,6.89340 
334 ,61.5144 ,1.10903 ,0.70255 ,6.89340 
335 ,61.6905 ,1.11083 ,0.67175 ,6.59119 
336 ,61.8826 ,1.11265 ,0.68201 ,6.69193 
337 ,62.0907 ,1.11472 ,0.64095 ,6.28899 
338 ,62.2825 ,1.11678 ,0.65121 ,6.38972 
339 ,62.4588 ,1.11846 ,0.64095 ,6.28899 
340 ,62.6348 ,1.12028 ,0.64095 ,6.28899 
341 ,62.8105 ,1.12204 ,0.60673 ,5.95320 
342 ,62.9870 ,1.12379 ,0.59304 ,5.81889 
343 ,63.1789 ,1.12576 ,0.58277 ,5.71815 
344 ,63.3550 ,1.12742 ,0.59646 ,5.85247 
345 ,63.5311 ,1.12920 ,0.56908 ,5.58384 
346 ,63.7075 ,1.13096 ,0.56224 ,5.51668 
347 ,63.8993 ,1.13286 ,0.54513 ,5.34879 
348 ,64.0754 ,1.13462 ,0.54855 ,5.38237 
349 ,64.2513 ,1.13638 ,0.53828 ,5.28164 
350 ,64.4436 ,1.13823 ,0.51091 ,5.01301 
351 ,64.6196 ,1.14016 ,0.50748 ,4.97943 
352 ,64.7954 ,1.14185 ,0.50748 ,4.97943 
353 ,64.9713 ,1.14358 ,0.48353 ,4.74438 
354 ,65.1473 ,1.14533 ,0.46984 ,4.61007 
355 ,65.3239 ,1.14715 ,0.44931 ,4.40860 
356 ,65.5319 ,1.14918 ,0.45615 ,4.47576 
357 ,65.7239 ,1.15110 ,0.43562 ,4.27429 
358 ,65.9322 ,1.15306 ,0.42535 ,4.17355 
359 ,66.1241 ,1.15504 ,0.40824 ,4.00566 
360 ,66.3162 ,1.15708 ,0.40824 ,4.00566 
361 ,66.5086 ,1.15893 ,0.39797 ,3.90493 
362 ,66.6846 ,1.16070 ,0.38086 ,3.73703 
363 ,66.8605 ,1.16258 ,0.39113 ,3.83777 
364 ,67.0204 ,1.16419 ,0.38086 ,3.73703 
365 ,67.1968 ,1.16588 ,0.36375 ,3.56914 
366 ,67.4050 ,1.16791 ,0.33980 ,3.33410 
367 ,67.5808 ,1.16970 ,0.33295 ,3.26694 
368 ,67.7570 ,1.17144 ,0.32611 ,3.19978 
369 ,67.9331 ,1.17320 ,0.33295 ,3.26694 
370 ,68.1089 ,1.17497 ,0.31584 ,3.09905 
371 ,68.3013 ,1.17680 ,0.29531 ,2.89758 
372 ,68.4932 ,1.17878 ,0.29531 ,2.89758 
373 ,68.6693 ,1.18056 ,0.27478 ,2.69611 
374 ,68.8452 ,1.18234 ,0.26793 ,2.62895 
375 ,69.0373 ,1.18413 ,0.25424 ,2.49464 
376 ,69.2453 ,1.18626 ,0.26109 ,2.56179 
377 ,69.4375 ,1.18820 ,0.25082 ,2.46106 
378 ,69.6297 ,1.19014 ,0.22344 ,2.19243 
379 ,69.8058 ,1.19193 ,0.19607 ,1.92381 
380 ,69.9655 ,1.19365 ,0.18580 ,1.82307 
381 ,70.1420 ,1.19527 ,0.18580 ,1.82307 
382 ,70.3179 ,1.19708 ,0.17896 ,1.75592 
383 ,70.5261 ,1.19901 ,0.17553 ,1.72234 
384 ,70.7179 ,1.20100 ,0.17553 ,1.72234 
385 ,70.8942 ,1.20280 ,0.17211 ,1.68876 
386 ,71.1022 ,1.20479 ,0.13789 ,1.35298 
387 ,71.2781 ,1.20664 ,0.12762 ,1.25224 
388 ,71.4545 ,1.20843 ,0.14473 ,1.42013 
389 ,71.6464 ,1.21033 ,0.10709 ,1.05077 
390 ,71.8225 ,1.21209 ,0.08998 ,0.88288 
391 ,72.0149 ,1.21398 ,0.10367 ,1.01719 
392 ,72.2068 ,1.21582 ,0.10025 ,0.98361 
393 ,72.3988 ,1.21783 ,0.07971 ,0.78214 
394 ,72.5749 ,1.21958 ,0.06260 ,0.61425 
395 ,72.7510 ,1.22139 ,0.05234 ,0.51352 
396 ,72.9270 ,1.22311 ,0.03180 ,0.31205 
397 ,73.1191 ,1.22502 ,0.04891 ,0.47994 
398 ,73.3114 ,1.22697 ,0.02838 ,0.27847 
399 ,73.4872 ,1.22884 ,0.01469 ,0.14416 
400 ,73.6632 ,1.23045 ,-0.00926 ,-0.09089 
401 ,73.8875 ,1.23248 ,0.01127 ,0.11058 
402 ,74.0794 ,1.23464 ,-0.01953 ,-0.19163 
403 ,74.2395 ,1.23634 ,-0.01953 ,-0.19163 
404 ,74.4317 ,1.23809 ,-0.04006 ,-0.39310 
405 ,74.6235 ,1.24009 ,-0.06060 ,-0.59457 
406 ,74.8160 ,1.24206 ,-0.06060 ,-0.59457 
407 ,75.0236 ,1.24391 ,-0.08113 ,-0.79604 
408 ,75.2000 ,1.24580 ,-0.09140 ,-0.89677 
409 ,75.3759 ,1.24765 ,-0.08113 ,-0.79604 
410 ,75.5518 ,1.24933 ,-0.08113 ,-0.79604 
411 ,75.7441 ,1.25121 ,-0.10851 ,-1.06466 
412 ,75.9363 ,1.25316 ,-0.10851 ,-1.06466 
413 ,76.1122 ,1.25496 ,-0.11535 ,-1.13182 
414 ,76.2886 ,1.25670 ,-0.12219 ,-1.19898 
415 ,76.4805 ,1.25867 ,-0.14273 ,-1.40045 
416 ,76.6566 ,1.26051 ,-0.14615 ,-1.43402 
417 ,76.8323 ,1.26214 ,-0.14615 ,-1.43402 
418 ,77.0091 ,1.26393 ,-0.15984 ,-1.56834 
419 ,77.2008 ,1.26580 ,-0.18722 ,-1.83696 
420 ,77.3931 ,1.26772 ,-0.18379 ,-1.80338 
421 ,77.5691 ,1.26953 ,-0.19064 ,-1.87054 
422 ,77.7611 ,1.27143 ,-0.21459 ,-2.10559 
423 ,77.9373 ,1.27322 ,-0.20775 ,-2.03843 
424 ,78.1293 ,1.27516 ,-0.22144 ,-2.17275 
425 ,78.3212 ,1.27708 ,-0.24197 ,-2.37422 
426 ,78.5296 ,1.27911 ,-0.23855 ,-2.34064 
427 ,78.7373 ,1.28113 ,-0.24197 ,-2.37422 
428 ,78.9137 ,1.28303 ,-0.26250 ,-2.57569 
429 ,79.1215 ,1.28495 ,-0.27961 ,-2.74358 
430 ,79.2977 ,1.28680 ,-0.29330 ,-2.87789 
431 ,79.4737 ,1.28854 ,-0.28646 ,-2.81073 
432 ,79.6660 ,1.29051 ,-0.29673 ,-2.91147 
433 ,79.8580 ,1.29244 ,-0.30357 ,-2.97863 
434 ,80.0340 ,1.29413 ,-0.31384 ,-3.07936 
435 ,80.2419 ,1.29609 ,-0.33437 ,-3.28083 
436 ,80.4183 ,1.29804 ,-0.33779 ,-3.31441 
437 ,80.6104 ,1.29988 ,-0.33095 ,-3.24725 
438 ,80.7865 ,1.30170 ,-0.35832 ,-3.51588 
439 ,80.9785 ,1.30355 ,-0.36859 ,-3.61661 
440 ,81.1705 ,1.30553 ,-0.36859 ,-3.61661 
441 ,81.3786 ,1.30744 ,-0.38570 ,-3.78450 
442 ,81.5548 ,1.30934 ,-0.39255 ,-3.85166 
443 ,81.7627 ,1.31139 ,-0.40281 ,-3.95240 
444 ,81.9544 ,1.31326 ,-0.41650 ,-4.08671 
445 ,82.1309 ,1.31517 ,-0.41308 ,-4.05313 
446 ,82.3230 ,1.31703 ,-0.43361 ,-4.25460 
447 ,82.4992 ,1.31883 ,-0.44388 ,-4.35534 
448 ,82.6911 ,1.32066 ,-0.44046 ,-4.32176 
449 ,82.8833 ,1.32259 ,-0.43361 ,-4.25460 
450 ,83.0752 ,1.32460 ,-0.46099 ,-4.52323 
451 ,83.2514 ,1.32639 ,-0.46441 ,-4.55681 
452 ,83.4274 ,1.32813 ,-0.47126 ,-4.62396 
453 ,83.6035 ,1.32987 ,-0.48152 ,-4.72470 
454 ,83.7797 ,1.33161 ,-0.49179 ,-4.82543 
455 ,83.9557 ,1.33340 ,-0.51232 ,-5.02690 
456 ,84.1317 ,1.33511 ,-0.50890 ,-4.99332 
457 ,84.3235 ,1.33699 ,-0.52259 ,-5.12764 
458 ,84.6439 ,1.34028 ,-0.52943 ,-5.19479 
459 ,84.8359 ,1.34222 ,-0.55339 ,-5.42984 
460 ,85.0121 ,1.34395 ,-0.55339 ,-5.42984 
461 ,85.1881 ,1.34582 ,-0.54312 ,-5.32911 
462 ,85.3643 ,1.34742 ,-0.55339 ,-5.42984 
463 ,85.5564 ,1.34936 ,-0.58077 ,-5.69847 
464 ,85.7484 ,1.35130 ,-0.58077 ,-5.69847 
