Data stamp = , 07-04-2022 23:15:20 373

Calibration Values: 
Slope = , 26.54 , g/V 
Offset Voltage at no contact = , -0.501760 , V 

No , Time , Stage Position ,   Mass , Force 
   ,  (s) ,      (mm)      ,   (g)  , (mN)  

1 ,0.0000 ,0.49936 ,5.21639 ,51.18317 
2 ,0.2001 ,0.49943 ,5.19927 ,51.01528 
3 ,0.5207 ,0.50023 ,5.21981 ,51.21675 
4 ,0.7448 ,0.50175 ,5.21296 ,51.14960 
5 ,0.9367 ,0.50347 ,5.21296 ,51.14960 
6 ,1.1124 ,0.50526 ,5.22665 ,51.28391 
7 ,1.2890 ,0.50691 ,5.20612 ,51.08244 
8 ,1.4649 ,0.50879 ,5.20270 ,51.04886 
9 ,1.6412 ,0.51049 ,5.20954 ,51.11602 
10 ,1.8011 ,0.51223 ,5.20612 ,51.08244 
11 ,1.9612 ,0.51386 ,5.19243 ,50.94813 
12 ,2.1369 ,0.51551 ,5.17532 ,50.78023 
13 ,2.3133 ,0.51724 ,5.17190 ,50.74666 
14 ,2.4894 ,0.51905 ,5.16505 ,50.67950 
15 ,2.6655 ,0.52077 ,5.12741 ,50.31014 
16 ,2.8416 ,0.52253 ,5.12056 ,50.24298 
17 ,3.0336 ,0.52444 ,5.11714 ,50.20940 
18 ,3.2257 ,0.52628 ,5.10003 ,50.04151 
19 ,3.4017 ,0.52817 ,5.06923 ,49.73931 
20 ,3.6098 ,0.53016 ,5.05897 ,49.63857 
21 ,3.7858 ,0.53202 ,5.04185 ,49.47068 
22 ,3.9781 ,0.53389 ,5.02132 ,49.26921 
23 ,4.1539 ,0.53567 ,5.01790 ,49.23563 
24 ,4.3459 ,0.53755 ,4.98368 ,48.89985 
25 ,4.5222 ,0.53934 ,4.97341 ,48.79911 
26 ,4.7144 ,0.54126 ,4.98026 ,48.86627 
27 ,4.9064 ,0.54314 ,4.94603 ,48.53049 
28 ,5.1141 ,0.54517 ,4.93235 ,48.39618 
29 ,5.3223 ,0.54722 ,4.91523 ,48.22828 
30 ,5.4986 ,0.54913 ,4.89128 ,47.99324 
31 ,5.6905 ,0.55101 ,4.89470 ,48.02681 
32 ,5.8670 ,0.55281 ,4.86048 ,47.69103 
33 ,6.0429 ,0.55457 ,4.85364 ,47.62387 
34 ,6.2350 ,0.55657 ,4.83310 ,47.42240 
35 ,6.4111 ,0.55821 ,4.83310 ,47.42240 
36 ,6.5871 ,0.55998 ,4.79888 ,47.08662 
37 ,6.7792 ,0.56192 ,4.78861 ,46.98589 
38 ,6.9551 ,0.56367 ,4.78519 ,46.95231 
39 ,7.1312 ,0.56542 ,4.75439 ,46.65010 
40 ,7.2914 ,0.56712 ,4.74070 ,46.51579 
41 ,7.4675 ,0.56881 ,4.73386 ,46.44863 
42 ,7.6434 ,0.57056 ,4.70306 ,46.14643 
43 ,7.8517 ,0.57253 ,4.69279 ,46.04569 
44 ,8.0438 ,0.57455 ,4.66884 ,45.81065 
45 ,8.2356 ,0.57638 ,4.67568 ,45.87780 
46 ,8.4117 ,0.57821 ,4.65857 ,45.70991 
47 ,8.6037 ,0.58014 ,4.63119 ,45.44128 
48 ,8.7798 ,0.58193 ,4.62435 ,45.37413 
49 ,8.9722 ,0.58377 ,4.61408 ,45.27339 
50 ,9.1482 ,0.58562 ,4.58671 ,45.00477 
51 ,9.3243 ,0.58738 ,4.57302 ,44.87045 
52 ,9.5163 ,0.58922 ,4.56275 ,44.76972 
53 ,9.6923 ,0.59116 ,4.53880 ,44.53467 
54 ,9.8524 ,0.59274 ,4.53195 ,44.46751 
55 ,10.0285 ,0.59444 ,4.52169 ,44.36678 
56 ,10.2366 ,0.59636 ,4.50800 ,44.23247 
57 ,10.4124 ,0.59821 ,4.48062 ,43.96384 
58 ,10.5888 ,0.60002 ,4.46009 ,43.76237 
59 ,10.7967 ,0.60199 ,4.44982 ,43.66163 
60 ,10.9730 ,0.60381 ,4.44982 ,43.66163 
61 ,11.1652 ,0.60570 ,4.41560 ,43.32585 
62 ,11.3411 ,0.60755 ,4.39164 ,43.09080 
63 ,11.5328 ,0.60942 ,4.39507 ,43.12438 
64 ,11.7091 ,0.61121 ,4.36769 ,42.85576 
65 ,11.8852 ,0.61293 ,4.35400 ,42.72144 
66 ,12.0934 ,0.61499 ,4.35400 ,42.72144 
67 ,12.2691 ,0.61681 ,4.33347 ,42.51997 
68 ,12.4616 ,0.61873 ,4.29582 ,42.15061 
69 ,12.6534 ,0.62060 ,4.30951 ,42.28492 
70 ,12.8455 ,0.62255 ,4.26845 ,41.88198 
71 ,13.0376 ,0.62443 ,4.26502 ,41.84841 
72 ,13.2138 ,0.62624 ,4.24107 ,41.61336 
73 ,13.4057 ,0.62812 ,4.22396 ,41.44547 
74 ,13.5980 ,0.62998 ,4.21369 ,41.34473 
75 ,13.7739 ,0.63184 ,4.18974 ,41.10968 
76 ,13.9821 ,0.63383 ,4.16578 ,40.87464 
77 ,14.1581 ,0.63576 ,4.15209 ,40.74032 
78 ,14.3501 ,0.63749 ,4.14525 ,40.67317 
79 ,14.5583 ,0.63959 ,4.13498 ,40.57243 
80 ,14.7341 ,0.64140 ,4.11787 ,40.40454 
81 ,14.9105 ,0.64320 ,4.10760 ,40.30380 
82 ,15.0866 ,0.64498 ,4.09049 ,40.13591 
83 ,15.2786 ,0.64689 ,4.06312 ,39.86729 
84 ,15.4546 ,0.64860 ,4.05627 ,39.80013 
85 ,15.6307 ,0.65039 ,4.04258 ,39.66582 
86 ,15.8065 ,0.65215 ,4.01863 ,39.43077 
87 ,15.9831 ,0.65387 ,4.01178 ,39.36361 
88 ,16.1910 ,0.65594 ,3.99467 ,39.19572 
89 ,16.3670 ,0.65788 ,3.96729 ,38.92709 
90 ,16.5431 ,0.65949 ,3.95361 ,38.79278 
91 ,16.7190 ,0.66123 ,3.93650 ,38.62489 
92 ,16.9109 ,0.66314 ,3.93307 ,38.59131 
93 ,17.0710 ,0.66489 ,3.91596 ,38.42342 
94 ,17.2469 ,0.66655 ,3.92623 ,38.52415 
95 ,17.4231 ,0.66827 ,3.89543 ,38.22195 
96 ,17.5994 ,0.67008 ,3.86463 ,37.91975 
97 ,17.8076 ,0.67209 ,3.86463 ,37.91975 
98 ,17.9837 ,0.67389 ,3.84410 ,37.71828 
99 ,18.1594 ,0.67566 ,3.82014 ,37.48323 
100 ,18.3358 ,0.67741 ,3.80645 ,37.34891 
101 ,18.5281 ,0.67928 ,3.79961 ,37.28176 
102 ,18.7361 ,0.68138 ,3.77223 ,37.01313 
103 ,18.9281 ,0.68333 ,3.77908 ,37.08029 
104 ,19.1203 ,0.68526 ,3.74485 ,36.74450 
105 ,19.3280 ,0.68728 ,3.74143 ,36.71093 
106 ,19.5363 ,0.68929 ,3.71063 ,36.40872 
107 ,19.7284 ,0.69125 ,3.69352 ,36.24083 
108 ,19.9042 ,0.69310 ,3.69352 ,36.24083 
109 ,20.0806 ,0.69483 ,3.67983 ,36.10652 
110 ,20.2567 ,0.69661 ,3.65588 ,35.87147 
111 ,20.4487 ,0.69855 ,3.65588 ,35.87147 
112 ,20.6249 ,0.70028 ,3.62508 ,35.56926 
113 ,20.8168 ,0.70224 ,3.60112 ,35.33422 
114 ,21.0090 ,0.70415 ,3.60797 ,35.40137 
115 ,21.1690 ,0.70585 ,3.59770 ,35.30064 
116 ,21.3771 ,0.70767 ,3.56348 ,34.96485 
117 ,21.5528 ,0.70961 ,3.54979 ,34.83054 
118 ,21.7292 ,0.71136 ,3.55321 ,34.86412 
119 ,21.9052 ,0.71308 ,3.53268 ,34.66265 
120 ,22.0814 ,0.71486 ,3.51215 ,34.46118 
121 ,22.2575 ,0.71665 ,3.49161 ,34.25971 
122 ,22.4495 ,0.71862 ,3.49161 ,34.25971 
123 ,22.6734 ,0.72063 ,3.47108 ,34.05824 
124 ,22.8496 ,0.72257 ,3.46424 ,33.99108 
125 ,23.0418 ,0.72445 ,3.42659 ,33.62172 
126 ,23.2016 ,0.72615 ,3.41633 ,33.52099 
127 ,23.3938 ,0.72790 ,3.40264 ,33.38667 
128 ,23.5703 ,0.72977 ,3.39579 ,33.31952 
129 ,23.7460 ,0.73158 ,3.38895 ,33.25236 
130 ,23.9221 ,0.73328 ,3.36499 ,33.01731 
131 ,24.1143 ,0.73513 ,3.34788 ,32.84942 
132 ,24.2902 ,0.73694 ,3.35130 ,32.88300 
133 ,24.4664 ,0.73867 ,3.34104 ,32.78227 
134 ,24.6426 ,0.74047 ,3.31708 ,32.54722 
135 ,24.8345 ,0.74229 ,3.29313 ,32.31217 
136 ,25.0267 ,0.74429 ,3.28286 ,32.21143 
137 ,25.2346 ,0.74630 ,3.26233 ,32.00996 
138 ,25.4108 ,0.74818 ,3.24864 ,31.87565 
139 ,25.5869 ,0.74990 ,3.24522 ,31.84207 
140 ,25.7790 ,0.75184 ,3.21784 ,31.57345 
141 ,25.9550 ,0.75359 ,3.20073 ,31.40555 
142 ,26.1311 ,0.75539 ,3.20757 ,31.47271 
143 ,26.3071 ,0.75716 ,3.18362 ,31.23766 
144 ,26.4832 ,0.75886 ,3.16651 ,31.06977 
145 ,26.6593 ,0.76065 ,3.14940 ,30.90188 
146 ,26.8515 ,0.76242 ,3.14255 ,30.83472 
147 ,27.0437 ,0.76443 ,3.11860 ,30.59968 
148 ,27.2517 ,0.76651 ,3.12202 ,30.63325 
149 ,27.4275 ,0.76832 ,3.11860 ,30.59968 
150 ,27.6037 ,0.77009 ,3.09122 ,30.33105 
151 ,27.7958 ,0.77192 ,3.07069 ,30.12958 
152 ,27.9720 ,0.77379 ,3.05015 ,29.92811 
153 ,28.1640 ,0.77558 ,3.06726 ,30.09600 
154 ,28.3395 ,0.77746 ,3.02962 ,29.72664 
155 ,28.5321 ,0.77928 ,3.01935 ,29.62590 
156 ,28.7082 ,0.78112 ,3.00567 ,29.49159 
157 ,28.9002 ,0.78297 ,2.99198 ,29.35728 
158 ,29.0764 ,0.78475 ,2.95776 ,29.02150 
159 ,29.2685 ,0.78664 ,2.97144 ,29.15581 
160 ,29.4606 ,0.78855 ,2.94749 ,28.92076 
161 ,29.6205 ,0.79036 ,2.92011 ,28.65213 
162 ,29.7965 ,0.79198 ,2.90985 ,28.55140 
163 ,29.9726 ,0.79374 ,2.89273 ,28.38351 
164 ,30.1488 ,0.79552 ,2.90300 ,28.48424 
165 ,30.3408 ,0.79743 ,2.89273 ,28.38351 
166 ,30.5167 ,0.79919 ,2.85509 ,28.01415 
167 ,30.6929 ,0.80091 ,2.84140 ,27.87983 
168 ,30.8850 ,0.80287 ,2.85167 ,27.98057 
169 ,31.0772 ,0.80479 ,2.81745 ,27.64479 
170 ,31.2533 ,0.80655 ,2.80376 ,27.51047 
171 ,31.4451 ,0.80842 ,2.79691 ,27.44332 
172 ,31.6371 ,0.81043 ,2.77296 ,27.20827 
173 ,31.8133 ,0.81221 ,2.76954 ,27.17469 
174 ,31.9895 ,0.81390 ,2.76611 ,27.14111 
175 ,32.1815 ,0.81594 ,2.73189 ,26.80533 
176 ,32.3738 ,0.81760 ,2.71478 ,26.63744 
177 ,32.5497 ,0.81954 ,2.72163 ,26.70459 
178 ,32.7415 ,0.82135 ,2.69425 ,26.43597 
179 ,32.9178 ,0.82318 ,2.68056 ,26.30165 
180 ,33.1097 ,0.82511 ,2.67029 ,26.20092 
181 ,33.2860 ,0.82686 ,2.66345 ,26.13376 
182 ,33.5100 ,0.82891 ,2.64292 ,25.93229 
183 ,33.7182 ,0.83107 ,2.60869 ,25.59651 
184 ,33.8938 ,0.83288 ,2.60185 ,25.52935 
185 ,34.0864 ,0.83476 ,2.60527 ,25.56293 
186 ,34.2783 ,0.83672 ,2.55736 ,25.09283 
187 ,34.4544 ,0.83853 ,2.55394 ,25.05926 
188 ,34.6305 ,0.84034 ,2.54367 ,24.95852 
189 ,34.8067 ,0.84213 ,2.55394 ,25.05926 
190 ,34.9987 ,0.84401 ,2.52314 ,24.75705 
191 ,35.1747 ,0.84575 ,2.50261 ,24.55558 
192 ,35.3509 ,0.84753 ,2.50261 ,24.55558 
193 ,35.5590 ,0.84954 ,2.48207 ,24.35411 
194 ,35.7510 ,0.85143 ,2.46839 ,24.21980 
195 ,35.9427 ,0.85349 ,2.44785 ,24.01833 
196 ,36.1191 ,0.85519 ,2.45470 ,24.08549 
197 ,36.2950 ,0.85693 ,2.42732 ,23.81686 
198 ,36.4713 ,0.85882 ,2.44443 ,23.98475 
199 ,36.6634 ,0.86057 ,2.40679 ,23.61539 
200 ,36.8395 ,0.86241 ,2.39310 ,23.48108 
201 ,37.0311 ,0.86423 ,2.39652 ,23.51465 
202 ,37.2077 ,0.86609 ,2.37599 ,23.31318 
203 ,37.3837 ,0.86787 ,2.35203 ,23.07814 
204 ,37.5595 ,0.86958 ,2.34519 ,23.01098 
205 ,37.7357 ,0.87133 ,2.32465 ,22.80951 
206 ,37.9118 ,0.87315 ,2.31097 ,22.67520 
207 ,38.0875 ,0.87485 ,2.31439 ,22.70877 
208 ,38.2638 ,0.87662 ,2.30412 ,22.60804 
209 ,38.4401 ,0.87838 ,2.28017 ,22.37299 
210 ,38.6321 ,0.88032 ,2.26990 ,22.27226 
211 ,38.8083 ,0.88208 ,2.26306 ,22.20510 
212 ,39.0003 ,0.88395 ,2.22883 ,21.86932 
213 ,39.1923 ,0.88589 ,2.21857 ,21.76858 
214 ,39.3686 ,0.88765 ,2.22541 ,21.83574 
215 ,39.5441 ,0.88940 ,2.20488 ,21.63427 
216 ,39.7203 ,0.89118 ,2.19461 ,21.53353 
217 ,39.8965 ,0.89299 ,2.17408 ,21.33206 
218 ,40.1046 ,0.89501 ,2.16723 ,21.26491 
219 ,40.2808 ,0.89679 ,2.15355 ,21.13059 
220 ,40.4725 ,0.89871 ,2.12617 ,20.86197 
221 ,40.6490 ,0.90052 ,2.11932 ,20.79481 
222 ,40.8248 ,0.90226 ,2.10906 ,20.69408 
223 ,41.0012 ,0.90399 ,2.10564 ,20.66050 
224 ,41.1930 ,0.90583 ,2.07484 ,20.35829 
225 ,41.3695 ,0.90766 ,2.06457 ,20.25756 
226 ,41.5614 ,0.90962 ,2.06457 ,20.25756 
227 ,41.7535 ,0.91141 ,2.03719 ,19.98893 
228 ,41.9614 ,0.91352 ,2.02350 ,19.85462 
229 ,42.1374 ,0.91533 ,1.99613 ,19.58599 
230 ,42.3131 ,0.91707 ,1.99613 ,19.58599 
231 ,42.4897 ,0.91887 ,1.98928 ,19.51884 
232 ,42.6975 ,0.92093 ,1.97217 ,19.35094 
233 ,42.8740 ,0.92272 ,1.95506 ,19.18305 
234 ,43.0499 ,0.92450 ,1.93453 ,18.98158 
235 ,43.2579 ,0.92651 ,1.93453 ,18.98158 
236 ,43.4340 ,0.92827 ,1.91057 ,18.74654 
237 ,43.6102 ,0.93008 ,1.89688 ,18.61222 
238 ,43.8022 ,0.93202 ,1.91742 ,18.81369 
239 ,44.0104 ,0.93397 ,1.86951 ,18.34360 
240 ,44.2023 ,0.93600 ,1.88319 ,18.47791 
241 ,44.3780 ,0.93772 ,1.85924 ,18.24286 
242 ,44.5545 ,0.93960 ,1.83528 ,18.00781 
243 ,44.7466 ,0.94141 ,1.83528 ,18.00781 
244 ,44.9387 ,0.94337 ,1.82502 ,17.90708 
245 ,45.1308 ,0.94523 ,1.81133 ,17.77276 
246 ,45.3388 ,0.94728 ,1.78395 ,17.50414 
247 ,45.5308 ,0.94928 ,1.78737 ,17.53772 
248 ,45.7068 ,0.95104 ,1.75657 ,17.23551 
249 ,45.8830 ,0.95276 ,1.75657 ,17.23551 
250 ,46.0591 ,0.95458 ,1.73262 ,17.00046 
251 ,46.2350 ,0.95629 ,1.71551 ,16.83257 
252 ,46.4112 ,0.95815 ,1.72578 ,16.93331 
253 ,46.6031 ,0.95999 ,1.70866 ,16.76542 
254 ,46.7794 ,0.96171 ,1.67786 ,16.46321 
255 ,46.9714 ,0.96374 ,1.67786 ,16.46321 
256 ,47.1476 ,0.96540 ,1.66760 ,16.36248 
257 ,47.3396 ,0.96731 ,1.64022 ,16.09385 
258 ,47.5157 ,0.96909 ,1.63338 ,16.02669 
259 ,47.7238 ,0.97111 ,1.64022 ,16.09385 
260 ,47.9159 ,0.97314 ,1.60600 ,15.75807 
261 ,48.1079 ,0.97497 ,1.61284 ,15.82522 
262 ,48.2839 ,0.97677 ,1.58889 ,15.59018 
263 ,48.4921 ,0.97875 ,1.56493 ,15.35513 
264 ,48.6678 ,0.98061 ,1.56836 ,15.38871 
265 ,48.8604 ,0.98249 ,1.54440 ,15.15366 
266 ,49.0522 ,0.98455 ,1.54782 ,15.18724 
267 ,49.2284 ,0.98626 ,1.52729 ,14.98577 
268 ,49.4205 ,0.98815 ,1.50676 ,14.78430 
269 ,49.5965 ,0.98997 ,1.48622 ,14.58283 
270 ,49.7886 ,0.99184 ,1.48280 ,14.54925 
271 ,49.9647 ,0.99363 ,1.47253 ,14.44851 
272 ,50.1408 ,0.99534 ,1.45885 ,14.31420 
273 ,50.3164 ,0.99717 ,1.44174 ,14.14631 
274 ,50.4927 ,0.99882 ,1.42462 ,13.97842 
275 ,50.6688 ,1.00061 ,1.42462 ,13.97842 
276 ,50.8450 ,1.00235 ,1.41094 ,13.84410 
277 ,51.0372 ,1.00426 ,1.39725 ,13.70979 
278 ,51.2132 ,1.00609 ,1.38356 ,13.57548 
279 ,51.4052 ,1.00799 ,1.36303 ,13.37401 
280 ,51.5814 ,1.00975 ,1.35960 ,13.34043 
281 ,51.7737 ,1.01169 ,1.34249 ,13.17254 
282 ,51.9655 ,1.01361 ,1.33565 ,13.10538 
283 ,52.1416 ,1.01536 ,1.32880 ,13.03822 
284 ,52.3336 ,1.01723 ,1.29800 ,12.73602 
285 ,52.5097 ,1.01904 ,1.30827 ,12.83675 
286 ,52.6855 ,1.02083 ,1.29458 ,12.70244 
287 ,52.8620 ,1.02255 ,1.28089 ,12.56813 
288 ,53.0537 ,1.02441 ,1.26036 ,12.36666 
289 ,53.2460 ,1.02637 ,1.25009 ,12.26592 
290 ,53.4381 ,1.02820 ,1.25009 ,12.26592 
291 ,53.6141 ,1.03008 ,1.21587 ,11.93014 
292 ,53.7903 ,1.03186 ,1.20903 ,11.86298 
293 ,53.9660 ,1.03361 ,1.19876 ,11.76225 
294 ,54.1585 ,1.03545 ,1.18507 ,11.62794 
295 ,54.3503 ,1.03746 ,1.17481 ,11.52720 
296 ,54.5266 ,1.03918 ,1.17138 ,11.49362 
297 ,54.7185 ,1.04107 ,1.14401 ,11.22500 
298 ,54.8948 ,1.04288 ,1.12690 ,11.05710 
299 ,55.0704 ,1.04470 ,1.14058 ,11.19142 
300 ,55.2470 ,1.04636 ,1.12347 ,11.02353 
301 ,55.4547 ,1.04836 ,1.08583 ,10.65416 
302 ,55.6471 ,1.05027 ,1.07899 ,10.58701 
303 ,55.8392 ,1.05224 ,1.08583 ,10.65416 
304 ,56.0152 ,1.05406 ,1.06530 ,10.45270 
305 ,56.2233 ,1.05609 ,1.06530 ,10.45270 
306 ,56.4314 ,1.05820 ,1.03108 ,10.11691 
307 ,56.6074 ,1.05999 ,1.03450 ,10.15049 
308 ,56.7836 ,1.06170 ,1.04134 ,10.21765 
309 ,56.9595 ,1.06353 ,1.02765 ,10.08333 
310 ,57.1355 ,1.06530 ,0.99343 ,9.74755 
311 ,57.3278 ,1.06725 ,0.97974 ,9.61324 
312 ,57.5199 ,1.06913 ,0.97632 ,9.57966 
313 ,57.7119 ,1.07100 ,0.95921 ,9.41177 
314 ,57.8879 ,1.07279 ,0.94552 ,9.27745 
315 ,58.0641 ,1.07455 ,0.94894 ,9.31103 
316 ,58.2718 ,1.07652 ,0.90788 ,8.90809 
317 ,58.4483 ,1.07840 ,0.91130 ,8.94167 
318 ,58.6403 ,1.08030 ,0.90446 ,8.87451 
319 ,58.8164 ,1.08210 ,0.88392 ,8.67305 
320 ,59.0085 ,1.08401 ,0.89419 ,8.77378 
321 ,59.2164 ,1.08595 ,0.86339 ,8.47158 
322 ,59.3925 ,1.08782 ,0.83601 ,8.20295 
323 ,59.5687 ,1.08958 ,0.84628 ,8.30368 
324 ,59.7446 ,1.09135 ,0.83943 ,8.23653 
325 ,59.9368 ,1.09320 ,0.81206 ,7.96790 
326 ,60.1128 ,1.09500 ,0.80179 ,7.86717 
327 ,60.2891 ,1.09684 ,0.80521 ,7.90074 
328 ,60.4650 ,1.09860 ,0.78468 ,7.69927 
329 ,60.6735 ,1.10050 ,0.76757 ,7.53138 
330 ,60.8492 ,1.10244 ,0.76072 ,7.46423 
331 ,61.0413 ,1.10435 ,0.76757 ,7.53138 
332 ,61.2335 ,1.10621 ,0.72992 ,7.16202 
333 ,61.3933 ,1.10796 ,0.73335 ,7.19560 
334 ,61.5695 ,1.10955 ,0.70939 ,6.96055 
335 ,61.7616 ,1.11144 ,0.70939 ,6.96055 
336 ,61.9536 ,1.11344 ,0.69570 ,6.82624 
337 ,62.1298 ,1.11521 ,0.69228 ,6.79266 
338 ,62.3379 ,1.11723 ,0.67175 ,6.59119 
339 ,62.5136 ,1.11910 ,0.67517 ,6.62477 
340 ,62.6901 ,1.12083 ,0.65121 ,6.38972 
341 ,62.8980 ,1.12280 ,0.64095 ,6.28899 
342 ,63.0743 ,1.12464 ,0.63068 ,6.18825 
343 ,63.2979 ,1.12671 ,0.61699 ,6.05394 
344 ,63.4903 ,1.12867 ,0.61015 ,5.98678 
345 ,63.6822 ,1.13068 ,0.61357 ,6.02036 
346 ,63.8745 ,1.13261 ,0.58277 ,5.71815 
347 ,64.0505 ,1.13439 ,0.57593 ,5.65100 
348 ,64.2265 ,1.13612 ,0.55882 ,5.48311 
349 ,64.4023 ,1.13793 ,0.56566 ,5.55026 
350 ,64.5787 ,1.13971 ,0.55197 ,5.41595 
351 ,64.7545 ,1.14154 ,0.53144 ,5.21448 
352 ,64.9466 ,1.14335 ,0.54171 ,5.31522 
353 ,65.1229 ,1.14511 ,0.52117 ,5.11375 
354 ,65.2989 ,1.14688 ,0.50064 ,4.91228 
355 ,65.4910 ,1.14885 ,0.49722 ,4.87870 
356 ,65.6511 ,1.15054 ,0.48011 ,4.71081 
357 ,65.8273 ,1.15213 ,0.47326 ,4.64365 
358 ,66.0033 ,1.15387 ,0.48353 ,4.74438 
359 ,66.1795 ,1.15567 ,0.44588 ,4.37502 
360 ,66.3554 ,1.15756 ,0.43562 ,4.27429 
361 ,66.5474 ,1.15925 ,0.41851 ,4.10640 
362 ,66.7398 ,1.16125 ,0.43220 ,4.24071 
363 ,66.9317 ,1.16314 ,0.40482 ,3.97208 
364 ,67.1077 ,1.16500 ,0.40482 ,3.97208 
365 ,67.2837 ,1.16669 ,0.39797 ,3.90493 
366 ,67.4597 ,1.16851 ,0.37402 ,3.66988 
367 ,67.6520 ,1.17040 ,0.36375 ,3.56914 
368 ,67.8438 ,1.17228 ,0.36033 ,3.53557 
369 ,68.0200 ,1.17409 ,0.35006 ,3.43483 
370 ,68.1961 ,1.17587 ,0.33638 ,3.30052 
371 ,68.3720 ,1.17760 ,0.30900 ,3.03189 
372 ,68.5479 ,1.17941 ,0.32953 ,3.23336 
373 ,68.7240 ,1.18112 ,0.30900 ,3.03189 
374 ,68.9002 ,1.18288 ,0.31242 ,3.06547 
375 ,69.0922 ,1.18470 ,0.27478 ,2.69611 
376 ,69.2683 ,1.18654 ,0.26451 ,2.59537 
377 ,69.4444 ,1.18829 ,0.27820 ,2.72969 
378 ,69.6204 ,1.19005 ,0.26451 ,2.59537 
379 ,69.7969 ,1.19184 ,0.24398 ,2.39390 
380 ,69.9885 ,1.19365 ,0.24398 ,2.39390 
381 ,70.1650 ,1.19559 ,0.23371 ,2.29317 
382 ,70.3571 ,1.19740 ,0.20633 ,2.02454 
383 ,70.5490 ,1.19935 ,0.19264 ,1.89023 
384 ,70.7412 ,1.20127 ,0.19607 ,1.92381 
385 ,70.9171 ,1.20304 ,0.18580 ,1.82307 
386 ,71.0930 ,1.20474 ,0.17896 ,1.75592 
387 ,71.2694 ,1.20658 ,0.16869 ,1.65518 
388 ,71.4455 ,1.20834 ,0.17896 ,1.75592 
389 ,71.6376 ,1.21025 ,0.14816 ,1.45371 
390 ,71.8137 ,1.21197 ,0.13447 ,1.31940 
391 ,71.9897 ,1.21377 ,0.12078 ,1.18508 
392 ,72.1658 ,1.21551 ,0.14473 ,1.42013 
393 ,72.3420 ,1.21729 ,0.11736 ,1.15151 
394 ,72.5180 ,1.21907 ,0.10025 ,0.98361 
395 ,72.7101 ,1.22097 ,0.08998 ,0.88288 
396 ,72.8862 ,1.22274 ,0.08314 ,0.81572 
397 ,73.0782 ,1.22464 ,0.07629 ,0.74857 
398 ,73.2703 ,1.22656 ,0.05234 ,0.51352 
399 ,73.4623 ,1.22847 ,0.04207 ,0.41278 
400 ,73.6543 ,1.23035 ,0.02838 ,0.27847 
401 ,73.8624 ,1.23245 ,0.02838 ,0.27847 
402 ,74.0387 ,1.23421 ,0.04207 ,0.41278 
403 ,74.2303 ,1.23615 ,0.01127 ,0.11058 
404 ,74.4065 ,1.23798 ,-0.00242 ,-0.02373 
405 ,74.5988 ,1.23984 ,-0.00926 ,-0.09089 
406 ,74.7749 ,1.24159 ,-0.02295 ,-0.22520 
407 ,74.9830 ,1.24351 ,-0.02637 ,-0.25878 
408 ,75.1750 ,1.24561 ,-0.04348 ,-0.42667 
409 ,75.3507 ,1.24741 ,-0.05375 ,-0.52741 
410 ,75.5271 ,1.24911 ,-0.05717 ,-0.56099 
411 ,75.7351 ,1.25115 ,-0.07428 ,-0.72888 
412 ,75.9113 ,1.25299 ,-0.08113 ,-0.79604 
413 ,76.1035 ,1.25487 ,-0.07428 ,-0.72888 
414 ,76.2954 ,1.25679 ,-0.09140 ,-0.89677 
415 ,76.7115 ,1.25972 ,-0.11193 ,-1.09824 
416 ,76.9037 ,1.26293 ,-0.12562 ,-1.23255 
417 ,77.0638 ,1.26458 ,-0.12562 ,-1.23255 
418 ,77.2398 ,1.26627 ,-0.14615 ,-1.43402 
419 ,77.4160 ,1.26800 ,-0.15299 ,-1.50118 
420 ,77.5915 ,1.26975 ,-0.17011 ,-1.66907 
421 ,77.7676 ,1.27151 ,-0.17353 ,-1.70265 
422 ,77.9437 ,1.27325 ,-0.16326 ,-1.60191 
423 ,78.1362 ,1.27513 ,-0.18379 ,-1.80338 
424 ,78.3443 ,1.27729 ,-0.19064 ,-1.87054 
425 ,78.5522 ,1.27918 ,-0.21459 ,-2.10559 
426 ,78.7285 ,1.28115 ,-0.23170 ,-2.27348 
427 ,78.9206 ,1.28298 ,-0.21802 ,-2.13917 
428 ,79.0966 ,1.28475 ,-0.23855 ,-2.34064 
429 ,79.2888 ,1.28664 ,-0.23855 ,-2.34064 
430 ,79.4809 ,1.28864 ,-0.24197 ,-2.37422 
431 ,79.6729 ,1.29052 ,-0.27619 ,-2.71000 
432 ,79.8490 ,1.29233 ,-0.29673 ,-2.91147 
433 ,80.0249 ,1.29412 ,-0.27619 ,-2.71000 
434 ,80.2011 ,1.29585 ,-0.27277 ,-2.67642 
435 ,80.4093 ,1.29794 ,-0.31041 ,-3.04578 
436 ,80.6173 ,1.29997 ,-0.30699 ,-3.01220 
437 ,80.8094 ,1.30190 ,-0.33779 ,-3.31441 
438 ,81.0175 ,1.30383 ,-0.33779 ,-3.31441 
439 ,81.1934 ,1.30585 ,-0.34121 ,-3.34799 
440 ,81.3533 ,1.30746 ,-0.35832 ,-3.51588 
441 ,81.5297 ,1.30910 ,-0.35490 ,-3.48230 
442 ,81.7214 ,1.31095 ,-0.34806 ,-3.41514 
443 ,81.8978 ,1.31282 ,-0.36175 ,-3.54946 
444 ,82.0898 ,1.31472 ,-0.38570 ,-3.78450 
445 ,82.2820 ,1.31662 ,-0.39255 ,-3.85166 
446 ,82.4741 ,1.31846 ,-0.40623 ,-3.98597 
447 ,82.6661 ,1.32041 ,-0.39939 ,-3.91882 
448 ,82.8422 ,1.32235 ,-0.40281 ,-3.95240 
449 ,83.0181 ,1.32400 ,-0.43019 ,-4.22102 
450 ,83.1941 ,1.32575 ,-0.43361 ,-4.25460 
451 ,83.3706 ,1.32753 ,-0.44046 ,-4.32176 
452 ,83.5621 ,1.32948 ,-0.44730 ,-4.38891 
453 ,83.7386 ,1.33120 ,-0.45072 ,-4.42249 
454 ,83.9306 ,1.33308 ,-0.47810 ,-4.69112 
455 ,84.1227 ,1.33500 ,-0.46783 ,-4.59038 
456 ,84.3468 ,1.33716 ,-0.49179 ,-4.82543 
457 ,84.5548 ,1.33926 ,-0.48837 ,-4.79185 
458 ,84.7310 ,1.34111 ,-0.50548 ,-4.95975 
459 ,84.9067 ,1.34289 ,-0.52259 ,-5.12764 
460 ,85.0828 ,1.34462 ,-0.52943 ,-5.19479 
461 ,85.2592 ,1.34643 ,-0.52259 ,-5.12764 
462 ,85.4351 ,1.34821 ,-0.53970 ,-5.29553 
463 ,85.6112 ,1.34994 ,-0.55339 ,-5.42984 
464 ,85.7874 ,1.35174 ,-0.56365 ,-5.53058 
