Point No.,Normal Force [N],Gap [mm],Time [s]
1.0,6.000308,10.8448,1329
2.0,5.980449,10.8475,1329
3.0,5.885548,10.8568,1329
4.0,5.733407,10.8680,1329
5.0,5.564621,10.8812,1330
6.0,5.400498,10.8936,1330
7.0,5.258685,10.9060,1330
8.0,5.105865,10.9184,1330
9.0,4.968988,10.9300,1330
10.0,4.823752,10.9433,1330
11.0,4.695369,10.9557,1330
12.0,4.561112,10.9681,1330
13.0,4.437318,10.9803,1330
14.0,4.311473,10.9924,1330
15.0,4.195508,11.0040,1330
16.0,4.077107,11.0178,1330
17.0,3.981578,11.0296,1330
18.0,3.875999,11.0422,1330
19.0,3.774037,11.0551,1330
20.0,3.664715,11.0670,1330
21.0,3.566098,11.0786,1330
22.0,3.510674,11.0855,1330
23.0,3.369129,11.1043,1330
24.0,3.276252,11.1159,1330
25.0,3.174613,11.1292,1330
26.0,3.085125,11.1408,1330
27.0,2.989931,11.1541,1330
28.0,2.901601,11.1657,1330
29.0,2.806189,11.1789,1330
30.0,2.721528,11.1897,1330
31.0,2.628303,11.2030,1330
32.0,2.544506,11.2146,1330
33.0,2.456007,11.2279,1330
34.0,2.374351,11.2395,1330
35.0,2.285513,11.2529,1330
36.0,2.214711,11.2644,1330
37.0,2.133832,11.2777,1330
38.0,2.050547,11.2893,1330
39.0,1.959395,11.3027,1330
40.0,1.874756,11.3142,1330
41.0,1.782948,11.3275,1330
42.0,1.699846,11.3391,1330
43.0,1.606000,11.3524,1330
44.0,1.525712,11.3640,1330
45.0,1.433121,11.3778,1331
46.0,1.352060,11.3889,1331
47.0,1.261640,11.4022,1331
48.0,1.183557,11.4138,1331
49.0,1.100627,11.4271,1331
50.0,1.020803,11.4387,1331
51.0,0.934786,11.4521,1331
52.0,0.858957,11.4636,1331
53.0,0.777643,11.4769,1331
54.0,0.702879,11.4885,1331
55.0,0.623426,11.5018,1331
56.0,0.544033,11.5134,1331
57.0,0.462707,11.5268,1331
58.0,0.392709,11.5387,1331
59.0,0.328982,11.5518,1331
60.0,0.267275,11.5633,1331
61.0,0.200260,11.5771,1331
62.0,0.140130,11.5882,1331
63.0,0.072252,11.6015,1331
64.0,0.012359,11.6134,1331
65.0,-0.050765,11.6264,1331
66.0,-0.109520,11.6381,1331
67.0,-0.172584,11.6515,1331
68.0,-0.222960,11.6630,1331
69.0,-0.287032,11.6763,1331
70.0,-0.329949,11.6879,1331
71.0,-0.391455,11.7012,1331
72.0,-0.450086,11.7132,1331
73.0,-0.510100,11.7262,1331
74.0,-0.562255,11.7378,1331
75.0,-0.611843,11.7511,1331
76.0,-0.661238,11.7627,1331
77.0,-0.713338,11.7766,1331
78.0,-0.757252,11.7877,1331
79.0,-0.806145,11.8010,1331
80.0,-0.851274,11.8126,1331
81.0,-0.888674,11.8259,1331
82.0,-0.930066,11.8376,1331
83.0,-0.978899,11.8509,1331
84.0,-1.021839,11.8625,1331
85.0,-1.067151,11.8758,1332
86.0,-1.104580,11.8875,1332
87.0,-1.140591,11.9008,1332
88.0,-1.173443,11.9124,1332
89.0,-1.207847,11.9257,1332
90.0,-1.233558,11.9374,1332
91.0,-1.268908,11.9507,1332
92.0,-1.300256,11.9624,1332
93.0,-1.328498,11.9757,1332
94.0,-1.342135,11.9873,1332
95.0,-1.367059,12.0007,1332
96.0,-1.387508,12.0120,1332
97.0,-1.412939,12.0255,1332
98.0,-1.437766,12.0377,1332
99.0,-1.468769,12.0491,1332
100.0,-1.498741,12.0624,1332
101.0,-1.518719,12.0755,1332
102.0,-1.545777,12.0874,1332
103.0,-1.569555,12.0999,1332
104.0,-1.583541,12.1128,1332
105.0,-1.576241,12.1241,1332
106.0,-1.560907,12.1369,1332
107.0,-1.580824,12.1500,1332
108.0,-1.603289,12.1624,1332
109.0,-1.618978,12.1737,1332
110.0,-1.631647,12.1869,1332
111.0,-1.647877,12.1999,1332
112.0,-1.644457,12.2128,1332
113.0,-1.641764,12.2249,1332
114.0,-1.656716,12.2376,1332
115.0,-1.665868,12.2482,1332
116.0,-1.649579,12.2615,1332
117.0,-1.656867,12.2737,1332
118.0,-1.679060,12.2865,1332
119.0,-1.698650,12.2983,1332
120.0,-1.721609,12.3118,1332
121.0,-1.741012,12.3231,1332
122.0,-1.759738,12.3368,1332
123.0,-1.777002,12.3481,1332
124.0,-1.793549,12.3614,1332
125.0,-1.798885,12.3736,1333
126.0,-1.778506,12.3868,1333
127.0,-1.754981,12.3982,1333
128.0,-1.744726,12.4118,1333
129.0,-1.756331,12.4237,1333
130.0,-1.774032,12.4368,1333
131.0,-1.771576,12.4482,1333
132.0,-1.774184,12.4618,1333
133.0,-1.769365,12.4737,1333
134.0,-1.772789,12.4868,1333
135.0,-1.770181,12.4982,1333
136.0,-1.781878,12.5118,1333
137.0,-1.777827,12.5237,1333
138.0,-1.786249,12.5368,1333
139.0,-1.798652,12.5487,1333
140.0,-1.790610,12.5618,1333
141.0,-1.801097,12.5736,1333
142.0,-1.803867,12.5871,1333
143.0,-1.801394,12.5987,1333
144.0,-1.817175,12.6117,1333
145.0,-1.829417,12.6237,1333
146.0,-1.825051,12.6370,1333
147.0,-1.826290,12.6487,1333
148.0,-1.812257,12.6621,1333
149.0,-1.794936,12.6737,1333
150.0,-1.801107,12.6871,1333
151.0,-1.812159,12.6987,1333
152.0,-1.828840,12.7120,1333
153.0,-1.838335,12.7237,1333
154.0,-1.854970,12.7370,1333
155.0,-1.840413,12.7482,1333
156.0,-1.844558,12.7617,1333
157.0,-1.854199,12.7736,1333
158.0,-1.828697,12.7867,1333
159.0,-1.831408,12.7982,1333
160.0,-1.823766,12.8117,1333
161.0,-1.821313,12.8236,1333
162.0,-1.829640,12.8367,1333
163.0,-1.837904,12.8482,1333
164.0,-1.845661,12.8617,1333
165.0,-1.854189,12.8736,1334
166.0,-1.864765,12.8867,1334
167.0,-1.840586,12.8982,1334
168.0,-1.845928,12.9117,1334
169.0,-1.816036,12.9236,1334
170.0,-1.814503,12.9367,1334
171.0,-1.779629,12.9481,1334
172.0,-1.775901,12.9615,1334
173.0,-1.775594,12.9736,1334
174.0,-1.745423,12.9865,1334
175.0,-1.737526,12.9982,1334
176.0,-1.713880,13.0118,1334
177.0,-1.694977,13.0232,1334
178.0,-1.627408,13.0369,1334
179.0,-1.580265,13.0482,1334
180.0,-1.527091,13.0608,1334
181.0,-1.506442,13.0738,1334
182.0,-1.507314,13.0866,1334
183.0,-1.453638,13.0984,1334
184.0,-1.381422,13.1111,1334
185.0,-1.346633,13.1234,1334
186.0,-1.325800,13.1367,1334
187.0,-1.299559,13.1484,1334
188.0,-1.301531,13.1609,1334
189.0,-1.304178,13.1739,1334
190.0,-1.296397,13.1867,1334
191.0,-1.242029,13.1978,1334
192.0,-1.223676,13.2112,1334
193.0,-1.174575,13.2235,1334
194.0,-1.087350,13.2369,1334
195.0,-1.065134,13.2477,1334
196.0,-1.060071,13.2610,1334
197.0,-0.987663,13.2741,1334
198.0,-0.982260,13.2869,1334
199.0,-0.979289,13.2980,1334
200.0,-0.883209,13.3114,1334
201.0,-0.838168,13.3228,1334
202.0,-0.800108,13.3366,1334
203.0,-0.794691,13.3479,1334
204.0,-0.794120,13.3612,1334
205.0,-0.768171,13.3733,1335
206.0,-0.729461,13.3862,1335
207.0,-0.676209,13.3981,1335
208.0,-0.644961,13.4115,1335
209.0,-0.618933,13.4230,1335
210.0,-0.604020,13.4367,1335
211.0,-0.563799,13.4480,1335
212.0,-0.507180,13.4614,1335
213.0,-0.468404,13.4735,1335
214.0,-0.464378,13.4864,1335
215.0,-0.463069,13.4983,1335
216.0,-0.459097,13.5116,1335
217.0,-0.403919,13.5231,1335
218.0,-0.354601,13.5369,1335
219.0,-0.308610,13.5482,1335
220.0,-0.297053,13.5617,1335
221.0,-0.297474,13.5736,1335
222.0,-0.296888,13.5869,1335
223.0,-0.297649,13.5984,1335
224.0,-0.247724,13.6117,1335
225.0,-0.174559,13.6236,1335
226.0,-0.163269,13.6370,1335
227.0,-0.124873,13.6485,1335
228.0,-0.109266,13.6618,1335
229.0,-0.107995,13.6737,1335
230.0,-0.064816,13.6870,1335
231.0,-0.059693,13.6985,1335
232.0,-0.035000,13.7119,1335
233.0,-0.004041,13.7237,1335
234.0,-0.002876,13.7371,1335
235.0,-0.000258,13.7485,1335
236.0,-0.002160,13.7619,1335
237.0,-0.002365,13.7737,1335
238.0,-0.000225,13.7871,1335
239.0,-0.001646,13.7985,1335
240.0,-0.001234,13.8119,1335
241.0,-0.000256,13.8233,1335
242.0,-0.001409,13.8371,1335
243.0,-0.001069,13.8485,1335
244.0,-0.001259,13.8617,1335
245.0,-0.001507,13.8737,1336
246.0,-0.000054,13.8867,1336
247.0,0.000812,13.8985,1336
248.0,-0.000686,13.9119,1336
249.0,-0.000065,13.9233,1336
250.0,-0.001813,13.9371,1336
251.0,-0.001072,13.9483,1336
252.0,-0.000377,13.9617,1336
253.0,-0.001656,13.9737,1336
254.0,-0.000886,13.9867,1336
255.0,-0.000364,13.9985,1336
256.0,-0.000934,14.0119,1336
257.0,-0.000158,14.0233,1336
258.0,-0.001270,14.0367,1336
259.0,-0.001704,14.0483,1336
260.0,-0.000535,14.0617,1336
261.0,-0.000298,14.0733,1336
262.0,0.000097,14.0867,1336
263.0,-0.000188,14.0983,1336
264.0,0.000070,14.1117,1336
265.0,0.000492,14.1233,1336
266.0,-0.000219,14.1367,1336
267.0,0.000773,14.1479,1336
268.0,-0.000601,14.1608,1336
269.0,0.000122,14.1733,1336
270.0,0.001528,14.1865,1336
271.0,0.000138,14.1975,1336
272.0,-0.000404,14.2117,1336
273.0,0.001544,14.2233,1336
274.0,-0.000025,14.2358,1336
275.0,-0.000675,14.2475,1336
276.0,0.000485,14.2617,1336
277.0,-0.001333,14.2731,1336
278.0,-0.000593,14.2858,1336
279.0,0.000994,14.2975,1336
280.0,0.000577,14.3112,1336
281.0,-0.000245,14.3225,1336
282.0,-0.001531,14.3367,1336
283.0,-0.001215,14.3475,1336
284.0,-0.001408,14.3608,1336
285.0,-0.001457,14.3725,1337
286.0,-0.001199,14.3858,1337
287.0,0.000268,14.3975,1337
288.0,0.000305,14.4109,1337
289.0,0.000115,14.4225,1337
290.0,-0.001524,14.4358,1337
291.0,-0.000683,14.4475,1337
292.0,0.001413,14.4608,1337
293.0,-0.000873,14.4728,1337
294.0,0.000003,14.4858,1337
295.0,-0.001767,14.4975,1337
296.0,0.000136,14.5109,1337
297.0,-0.000206,14.5225,1337
298.0,-0.000761,14.5364,1337
299.0,-0.000164,14.5475,1337
300.0,0.000404,14.5608,1337
301.0,-0.002213,14.5728,1337
302.0,0.001599,14.5858,1337
303.0,0.000581,14.5978,1337
304.0,0.000295,14.6109,1337
305.0,-0.000706,14.6225,1337
306.0,-0.002484,14.6358,1337
307.0,0.000666,14.6475,1337
308.0,0.000419,14.6608,1337
309.0,-0.001086,14.6728,1337
310.0,-0.000354,14.6858,1337
311.0,-0.001637,14.6975,1337
312.0,-0.001295,14.7108,1337
313.0,0.000610,14.7225,1337
314.0,0.000142,14.7358,1337
315.0,-0.000567,14.7475,1337
316.0,0.001870,14.7608,1337
317.0,-0.001239,14.7725,1337
318.0,-0.000032,14.7858,1337
319.0,0.000140,14.7978,1337
320.0,-0.000772,14.8108,1337
321.0,0.000606,14.8225,1337
322.0,-0.000857,14.8358,1337
323.0,-0.000483,14.8475,1337
324.0,0.000638,14.8608,1337
325.0,-0.001819,14.8725,1338
326.0,-0.000637,14.8857,1338
327.0,-0.000906,14.8975,1338
328.0,-0.000463,14.9103,1338
329.0,0.001593,14.9225,1338
330.0,-0.000998,14.9358,1338
331.0,-0.000637,14.9475,1338
332.0,0.000542,14.9608,1338
333.0,0.000066,14.9722,1338
334.0,0.001061,14.9857,1338
335.0,-0.000063,14.9972,1338
