Point No.,Normal Force [N],Gap [mm],Time [s]
1.0,3.997099,11.0417,4192
2.0,3.991450,11.0433,4192
3.0,3.933639,11.0536,4192
4.0,3.815459,11.0656,4192
5.0,3.683799,11.0788,4193
6.0,3.558101,11.0907,4193
7.0,3.447052,11.1037,4193
8.0,3.330827,11.1161,4193
9.0,3.225867,11.1286,4193
10.0,3.115165,11.1410,4193
11.0,3.017787,11.1530,4193
12.0,2.912824,11.1659,4193
13.0,2.816496,11.1783,4193
14.0,2.715602,11.1902,4193
15.0,2.621951,11.2032,4193
16.0,2.524063,11.2156,4193
17.0,2.434075,11.2273,4193
18.0,2.337434,11.2405,4193
19.0,2.258527,11.2526,4193
20.0,2.172517,11.2654,4193
21.0,2.091928,11.2771,4193
22.0,2.042757,11.2837,4193
23.0,1.914574,11.3028,4193
24.0,1.825775,11.3142,4193
25.0,1.734136,11.3269,4193
26.0,1.649701,11.3385,4193
27.0,1.557536,11.3522,4193
28.0,1.471856,11.3634,4193
29.0,1.379812,11.3766,4193
30.0,1.299656,11.3887,4193
31.0,1.213943,11.4024,4193
32.0,1.133146,11.4129,4193
33.0,1.051363,11.4271,4193
34.0,0.969440,11.4381,4193
35.0,0.884824,11.4508,4193
36.0,0.809127,11.4630,4193
37.0,0.724290,11.4763,4193
38.0,0.648398,11.4879,4193
39.0,0.560904,11.5012,4193
40.0,0.480829,11.5125,4193
41.0,0.405808,11.5261,4193
42.0,0.340626,11.5377,4193
43.0,0.276328,11.5510,4193
44.0,0.213704,11.5626,4193
45.0,0.142982,11.5759,4194
46.0,0.081814,11.5875,4194
47.0,0.017157,11.6008,4194
48.0,-0.047337,11.6125,4194
49.0,-0.106781,11.6258,4194
50.0,-0.161156,11.6374,4194
51.0,-0.218428,11.6507,4194
52.0,-0.276991,11.6623,4194
53.0,-0.338576,11.6762,4194
54.0,-0.393571,11.6873,4194
55.0,-0.452609,11.7006,4194
56.0,-0.507884,11.7119,4194
57.0,-0.564717,11.7255,4194
58.0,-0.620324,11.7371,4194
59.0,-0.675345,11.7504,4194
60.0,-0.725768,11.7621,4194
61.0,-0.781883,11.7754,4194
62.0,-0.829648,11.7870,4194
63.0,-0.882275,11.8003,4194
64.0,-0.930757,11.8116,4194
65.0,-0.981919,11.8253,4194
66.0,-1.028202,11.8369,4194
67.0,-1.074830,11.8497,4194
68.0,-1.116929,11.8618,4194
69.0,-1.154438,11.8752,4194
70.0,-1.190192,11.8865,4194
71.0,-1.221888,11.9001,4194
72.0,-1.255369,11.9114,4194
73.0,-1.295817,11.9244,4194
74.0,-1.334016,11.9364,4194
75.0,-1.374205,11.9495,4194
76.0,-1.409884,11.9614,4194
77.0,-1.440882,11.9749,4194
78.0,-1.466806,11.9860,4194
79.0,-1.499906,11.9993,4194
80.0,-1.533393,12.0113,4194
81.0,-1.566095,12.0243,4194
82.0,-1.596610,12.0359,4194
83.0,-1.630445,12.0492,4194
84.0,-1.662220,12.0609,4194
85.0,-1.693308,12.0742,4195
86.0,-1.721943,12.0859,4195
87.0,-1.753556,12.0992,4195
88.0,-1.785179,12.1108,4195
89.0,-1.817321,12.1241,4195
90.0,-1.841050,12.1358,4195
91.0,-1.848516,12.1491,4195
92.0,-1.864563,12.1608,4195
93.0,-1.893286,12.1746,4195
94.0,-1.918921,12.1857,4195
95.0,-1.940150,12.1991,4195
96.0,-1.959914,12.2107,4195
97.0,-1.987751,12.2239,4195
98.0,-2.012012,12.2365,4195
99.0,-2.016417,12.2485,4195
100.0,-2.042101,12.2615,4195
101.0,-2.066994,12.2732,4195
102.0,-2.094368,12.2865,4195
103.0,-2.116507,12.2990,4195
104.0,-2.141039,12.3112,4195
105.0,-2.152160,12.3231,4195
106.0,-2.158750,12.3364,4195
107.0,-2.138065,12.3484,4195
108.0,-2.146696,12.3614,4195
109.0,-2.160270,12.3722,4195
110.0,-2.160397,12.3856,4195
111.0,-2.147602,12.3981,4195
112.0,-2.164024,12.4106,4195
113.0,-2.181564,12.4238,4195
114.0,-2.184844,12.4364,4195
115.0,-2.193985,12.4484,4195
116.0,-2.196229,12.4606,4195
117.0,-2.212878,12.4722,4195
118.0,-2.231238,12.4856,4195
119.0,-2.237831,12.4972,4195
120.0,-2.247399,12.5105,4195
121.0,-2.260006,12.5222,4195
122.0,-2.262764,12.5355,4195
123.0,-2.281172,12.5472,4195
124.0,-2.300982,12.5605,4195
125.0,-2.318908,12.5721,4196
126.0,-2.334138,12.5852,4196
127.0,-2.343779,12.5972,4196
128.0,-2.325720,12.6102,4196
129.0,-2.332551,12.6222,4196
130.0,-2.290463,12.6355,4196
131.0,-2.292382,12.6472,4196
132.0,-2.294866,12.6605,4196
133.0,-2.288170,12.6721,4196
134.0,-2.299702,12.6855,4196
135.0,-2.282023,12.6972,4196
136.0,-2.292857,12.7102,4196
137.0,-2.300225,12.7222,4196
138.0,-2.256544,12.7355,4196
139.0,-2.231682,12.7467,4196
140.0,-2.221588,12.7606,4196
141.0,-2.231651,12.7721,4196
142.0,-2.214194,12.7853,4196
143.0,-2.154031,12.7973,4196
144.0,-2.150719,12.8103,4196
145.0,-2.126414,12.8223,4196
146.0,-2.130141,12.8356,4196
147.0,-2.117630,12.8467,4196
148.0,-2.129557,12.8600,4196
149.0,-2.143026,12.8723,4196
150.0,-2.153355,12.8850,4196
151.0,-2.165389,12.8966,4196
152.0,-2.178457,12.9103,4196
153.0,-2.190009,12.9217,4196
154.0,-2.202584,12.9349,4196
155.0,-2.185833,12.9466,4196
156.0,-2.183314,12.9603,4196
157.0,-2.192496,12.9716,4196
158.0,-2.197538,12.9850,4196
159.0,-2.208813,12.9966,4196
160.0,-2.200613,13.0100,4196
161.0,-2.157393,13.0216,4196
162.0,-2.099694,13.0350,4196
163.0,-2.105524,13.0467,4196
164.0,-2.115167,13.0600,4196
165.0,-2.124277,13.0716,4197
166.0,-2.133258,13.0847,4197
167.0,-2.130453,13.0967,4197
168.0,-2.121604,13.1100,4197
169.0,-2.122762,13.1217,4197
170.0,-2.120124,13.1350,4197
171.0,-2.052460,13.1461,4197
172.0,-2.027460,13.1601,4197
173.0,-2.012163,13.1716,4197
174.0,-1.973726,13.1845,4197
175.0,-1.944510,13.1961,4197
176.0,-1.909542,13.2101,4197
177.0,-1.871281,13.2213,4197
178.0,-1.867401,13.2345,4197
179.0,-1.861888,13.2458,4197
180.0,-1.830623,13.2599,4197
181.0,-1.775785,13.2712,4197
182.0,-1.742040,13.2849,4197
183.0,-1.742652,13.2963,4197
184.0,-1.743857,13.3096,4197
185.0,-1.675460,13.3213,4197
186.0,-1.587058,13.3345,4197
187.0,-1.575393,13.3465,4197
188.0,-1.533902,13.3597,4197
189.0,-1.491345,13.3714,4197
190.0,-1.407583,13.3844,4197
191.0,-1.392103,13.3971,4197
192.0,-1.387124,13.4098,4197
193.0,-1.354333,13.4207,4197
194.0,-1.356361,13.4348,4197
195.0,-1.359351,13.4465,4197
196.0,-1.359288,13.4596,4197
197.0,-1.362100,13.4715,4197
198.0,-1.312923,13.4849,4197
199.0,-1.207299,13.4957,4197
200.0,-1.166854,13.5095,4197
201.0,-1.110033,13.5216,4197
202.0,-0.992799,13.5350,4197
203.0,-0.941763,13.5467,4197
204.0,-0.838431,13.5593,4197
205.0,-0.723020,13.5714,4198
206.0,-0.650578,13.5848,4198
207.0,-0.606901,13.5961,4198
208.0,-0.604470,13.6101,4198
209.0,-0.604827,13.6213,4198
210.0,-0.604555,13.6344,4198
211.0,-0.560765,13.6468,4198
212.0,-0.485050,13.6595,4198
213.0,-0.399915,13.6712,4198
214.0,-0.324791,13.6848,4198
215.0,-0.266852,13.6969,4198
216.0,-0.188053,13.7097,4198
217.0,-0.164374,13.7214,4198
218.0,-0.093583,13.7347,4198
219.0,-0.061466,13.7466,4198
220.0,-0.013774,13.7598,4198
221.0,-0.009538,13.7715,4198
222.0,-0.008433,13.7848,4198
223.0,-0.008415,13.7965,4198
224.0,-0.008957,13.8098,4198
225.0,-0.009234,13.8215,4198
226.0,-0.009316,13.8348,4198
227.0,-0.007906,13.8465,4198
228.0,-0.007526,13.8598,4198
229.0,-0.008103,13.8715,4198
230.0,-0.009634,13.8846,4198
231.0,-0.009076,13.8965,4198
232.0,-0.007392,13.9092,4198
233.0,-0.009042,13.9210,4198
234.0,-0.010073,13.9344,4198
235.0,-0.010219,13.9462,4198
236.0,-0.009461,13.9596,4198
237.0,-0.009641,13.9708,4198
238.0,-0.009223,13.9842,4198
239.0,-0.009126,13.9958,4198
240.0,-0.008304,14.0092,4198
241.0,-0.009970,14.0208,4198
242.0,-0.007889,14.0342,4198
243.0,-0.006824,14.0458,4198
244.0,-0.009190,14.0592,4198
245.0,-0.009511,14.0708,4199
246.0,-0.010864,14.0842,4199
247.0,-0.009045,14.0958,4199
248.0,-0.007197,14.1092,4199
249.0,-0.010019,14.1208,4199
250.0,-0.009947,14.1342,4199
251.0,-0.008206,14.1458,4199
252.0,-0.007360,14.1592,4199
253.0,-0.011369,14.1708,4199
254.0,-0.007593,14.1842,4199
255.0,-0.010394,14.1958,4199
256.0,-0.008226,14.2092,4199
257.0,-0.006148,14.2208,4199
258.0,-0.010245,14.2337,4199
259.0,-0.009094,14.2454,4199
260.0,-0.007738,14.2592,4199
261.0,-0.009162,14.2708,4199
262.0,-0.008966,14.2835,4199
263.0,-0.010424,14.2956,4199
264.0,-0.009514,14.3085,4199
265.0,-0.007484,14.3200,4199
266.0,-0.010806,14.3342,4199
267.0,-0.008526,14.3452,4199
268.0,-0.009136,14.3590,4199
269.0,-0.008673,14.3706,4199
270.0,-0.009786,14.3840,4199
271.0,-0.007978,14.3956,4199
272.0,-0.008325,14.4083,4199
273.0,-0.008027,14.4204,4199
274.0,-0.008526,14.4342,4199
275.0,-0.009149,14.4452,4199
276.0,-0.006963,14.4590,4199
277.0,-0.009012,14.4697,4199
278.0,-0.010118,14.4833,4199
279.0,-0.007662,14.4947,4199
280.0,-0.007133,14.5085,4199
281.0,-0.008472,14.5204,4199
282.0,-0.010607,14.5333,4199
283.0,-0.007017,14.5452,4199
284.0,-0.008977,14.5590,4199
285.0,-0.008237,14.5697,4200
286.0,-0.010902,14.5832,4200
287.0,-0.008357,14.5956,4200
288.0,-0.008300,14.6077,4200
289.0,-0.007643,14.6200,4200
290.0,-0.008271,14.6333,4200
291.0,-0.008299,14.6444,4200
292.0,-0.007953,14.6577,4200
293.0,-0.008485,14.6694,4200
294.0,-0.008661,14.6827,4200
295.0,-0.007109,14.6950,4200
296.0,-0.008753,14.7077,4200
297.0,-0.008419,14.7194,4200
298.0,-0.009882,14.7327,4200
299.0,-0.008316,14.7450,4200
300.0,-0.008978,14.7577,4200
301.0,-0.008427,14.7694,4200
302.0,-0.007005,14.7827,4200
303.0,-0.009691,14.7944,4200
304.0,-0.008578,14.8077,4200
305.0,-0.007562,14.8200,4200
306.0,-0.008529,14.8327,4200
307.0,-0.006734,14.8444,4200
308.0,-0.006642,14.8577,4200
309.0,-0.006672,14.8694,4200
310.0,-0.009318,14.8827,4200
311.0,-0.008927,14.8944,4200
312.0,-0.010224,14.9077,4200
313.0,-0.007906,14.9194,4200
314.0,-0.009375,14.9327,4200
315.0,-0.008847,14.9444,4200
316.0,-0.009983,14.9577,4200
317.0,-0.009582,14.9691,4200
318.0,-0.009649,14.9821,4200
319.0,-0.009535,14.9941,4200
