Data stamp = , 05-04-2022 01:53:46 084

Calibration Values: 
Slope = , 26.54 , g/V 
Offset Voltage at no contact = , -0.501760 , V 

No , Time , Stage Position ,   Mass , Force 
   ,  (s) ,      (mm)      ,   (g)  , (mN)  

1 ,0.0000 ,0.59943 ,5.01448 ,49.20205 
2 ,0.2115 ,0.59948 ,5.03501 ,49.40352 
3 ,0.5800 ,0.60056 ,5.04185 ,49.47068 
4 ,0.7879 ,0.60225 ,5.03501 ,49.40352 
5 ,0.9802 ,0.60397 ,5.01790 ,49.23563 
6 ,1.1720 ,0.60586 ,5.03843 ,49.43710 
7 ,1.3479 ,0.60755 ,5.03501 ,49.40352 
8 ,1.5239 ,0.60940 ,5.03501 ,49.40352 
9 ,1.7004 ,0.61114 ,5.01448 ,49.20205 
10 ,1.9243 ,0.61331 ,4.99052 ,48.96701 
11 ,2.1005 ,0.61523 ,4.98026 ,48.86627 
12 ,2.2765 ,0.61697 ,4.97683 ,48.83269 
13 ,2.4847 ,0.61899 ,4.94946 ,48.56407 
14 ,2.6607 ,0.62079 ,4.93235 ,48.39618 
15 ,2.8528 ,0.62267 ,4.93235 ,48.39618 
16 ,3.0289 ,0.62448 ,4.91523 ,48.22828 
17 ,3.2047 ,0.62624 ,4.89128 ,47.99324 
18 ,3.3810 ,0.62800 ,4.85706 ,47.65745 
19 ,3.5731 ,0.62984 ,4.87417 ,47.82534 
20 ,3.7651 ,0.63176 ,4.83652 ,47.45598 
21 ,3.9573 ,0.63379 ,4.81599 ,47.25451 
22 ,4.1334 ,0.63551 ,4.81257 ,47.22093 
23 ,4.3254 ,0.63739 ,4.78519 ,46.95231 
24 ,4.5175 ,0.63939 ,4.76466 ,46.75084 
25 ,4.6932 ,0.64106 ,4.75097 ,46.61653 
26 ,4.8697 ,0.64293 ,4.74413 ,46.54937 
27 ,5.0616 ,0.64484 ,4.70306 ,46.14643 
28 ,5.2536 ,0.64670 ,4.70648 ,46.18001 
29 ,5.4295 ,0.64845 ,4.68937 ,46.01212 
30 ,5.6221 ,0.65030 ,4.66199 ,45.74349 
31 ,5.8141 ,0.65236 ,4.64831 ,45.60918 
32 ,5.9901 ,0.65408 ,4.64146 ,45.54202 
33 ,6.1821 ,0.65596 ,4.60040 ,45.13908 
34 ,6.3582 ,0.65772 ,4.57986 ,44.93761 
35 ,6.5344 ,0.65953 ,4.56960 ,44.83688 
36 ,6.7106 ,0.66129 ,4.56960 ,44.83688 
37 ,6.9023 ,0.66319 ,4.52511 ,44.40036 
38 ,7.0947 ,0.66507 ,4.53195 ,44.46751 
39 ,7.2707 ,0.66689 ,4.52511 ,44.40036 
40 ,7.4466 ,0.66868 ,4.48746 ,44.03100 
41 ,7.6388 ,0.67056 ,4.46351 ,43.79595 
42 ,7.8147 ,0.67234 ,4.44640 ,43.62806 
43 ,8.0070 ,0.67424 ,4.43271 ,43.49374 
44 ,8.1992 ,0.67616 ,4.39849 ,43.15796 
45 ,8.3753 ,0.67792 ,4.39849 ,43.15796 
46 ,8.5832 ,0.67995 ,4.37453 ,42.92291 
47 ,8.7592 ,0.68176 ,4.34031 ,42.58713 
48 ,8.9350 ,0.68348 ,4.34373 ,42.62071 
49 ,9.1275 ,0.68537 ,4.33689 ,42.55355 
50 ,9.3196 ,0.68740 ,4.29924 ,42.18419 
51 ,9.4956 ,0.68915 ,4.28556 ,42.04988 
52 ,9.6875 ,0.69101 ,4.27187 ,41.91556 
53 ,9.8957 ,0.69305 ,4.26845 ,41.88198 
54 ,10.0717 ,0.69489 ,4.22396 ,41.44547 
55 ,10.2480 ,0.69662 ,4.22738 ,41.47905 
56 ,10.4240 ,0.69839 ,4.20342 ,41.24400 
57 ,10.6000 ,0.70017 ,4.17262 ,40.94179 
58 ,10.7763 ,0.70193 ,4.17262 ,40.94179 
59 ,10.9684 ,0.70377 ,4.15551 ,40.77390 
60 ,11.1443 ,0.70560 ,4.14183 ,40.63959 
61 ,11.3365 ,0.70756 ,4.12471 ,40.47170 
62 ,11.5126 ,0.70931 ,4.10760 ,40.30380 
63 ,11.7046 ,0.71126 ,4.08023 ,40.03518 
64 ,11.8807 ,0.71298 ,4.05969 ,39.83371 
65 ,12.0567 ,0.71471 ,4.04600 ,39.69940 
66 ,12.2328 ,0.71649 ,4.03574 ,39.59866 
67 ,12.4247 ,0.71840 ,4.02547 ,39.49793 
68 ,12.6011 ,0.72018 ,3.99125 ,39.16214 
69 ,12.7928 ,0.72201 ,4.00152 ,39.26288 
70 ,12.9691 ,0.72384 ,3.97414 ,38.99425 
71 ,13.1449 ,0.72556 ,3.95361 ,38.79278 
72 ,13.3371 ,0.72750 ,3.93307 ,38.59131 
73 ,13.5293 ,0.72940 ,3.92281 ,38.49058 
74 ,13.7055 ,0.73120 ,3.89543 ,38.22195 
75 ,13.8810 ,0.73306 ,3.87490 ,38.02048 
76 ,14.0411 ,0.73468 ,3.86121 ,37.88617 
77 ,14.2176 ,0.73634 ,3.84067 ,37.68470 
78 ,14.4098 ,0.73825 ,3.84410 ,37.71828 
79 ,14.6017 ,0.74013 ,3.81672 ,37.44965 
80 ,14.7778 ,0.74188 ,3.80645 ,37.34891 
81 ,14.9700 ,0.74373 ,3.78592 ,37.14744 
82 ,15.1460 ,0.74558 ,3.76539 ,36.94597 
83 ,15.3542 ,0.74752 ,3.75170 ,36.81166 
84 ,15.5298 ,0.74942 ,3.74143 ,36.71093 
85 ,15.7059 ,0.75125 ,3.72432 ,36.54303 
86 ,15.8819 ,0.75300 ,3.70379 ,36.34157 
87 ,16.0583 ,0.75475 ,3.67641 ,36.07294 
88 ,16.2821 ,0.75694 ,3.65930 ,35.90505 
89 ,16.4744 ,0.75886 ,3.64903 ,35.80431 
90 ,16.6823 ,0.76098 ,3.62508 ,35.56926 
91 ,16.8744 ,0.76286 ,3.61139 ,35.43495 
92 ,17.0987 ,0.76516 ,3.58059 ,35.13275 
93 ,17.2907 ,0.76704 ,3.58059 ,35.13275 
94 ,17.5470 ,0.76934 ,3.55321 ,34.86412 
95 ,17.7391 ,0.77157 ,3.53268 ,34.66265 
96 ,17.9308 ,0.77348 ,3.53268 ,34.66265 
97 ,18.1233 ,0.77526 ,3.52584 ,34.59549 
98 ,18.3474 ,0.77761 ,3.49161 ,34.25971 
99 ,18.5229 ,0.77943 ,3.45397 ,33.89035 
100 ,18.7155 ,0.78125 ,3.44370 ,33.78961 
101 ,18.9876 ,0.78377 ,3.41290 ,33.48741 
102 ,19.1633 ,0.78574 ,3.41633 ,33.52099 
103 ,19.3396 ,0.78755 ,3.38553 ,33.21878 
104 ,19.5799 ,0.78976 ,3.37526 ,33.11805 
105 ,19.7716 ,0.79179 ,3.35130 ,32.88300 
106 ,19.9640 ,0.79371 ,3.33077 ,32.68153 
107 ,20.1560 ,0.79562 ,3.32051 ,32.58080 
108 ,20.3638 ,0.79773 ,3.29655 ,32.34575 
109 ,20.5561 ,0.79962 ,3.29655 ,32.34575 
110 ,20.7643 ,0.80170 ,3.27259 ,32.11070 
111 ,20.9720 ,0.80380 ,3.24522 ,31.84207 
112 ,21.1485 ,0.80562 ,3.22811 ,31.67418 
113 ,21.3565 ,0.80762 ,3.20073 ,31.40555 
114 ,21.5323 ,0.80941 ,3.19388 ,31.33840 
115 ,21.7405 ,0.81142 ,3.16651 ,31.06977 
116 ,21.9327 ,0.81349 ,3.14940 ,30.90188 
117 ,22.1565 ,0.81555 ,3.15282 ,30.93546 
118 ,22.3330 ,0.81744 ,3.12202 ,30.63325 
119 ,22.5247 ,0.81944 ,3.10149 ,30.43178 
120 ,22.7006 ,0.82120 ,3.08438 ,30.26389 
121 ,22.8769 ,0.82291 ,3.07411 ,30.16316 
122 ,23.0694 ,0.82480 ,3.06726 ,30.09600 
123 ,23.2609 ,0.82671 ,3.05015 ,29.92811 
124 ,23.4374 ,0.82855 ,3.02278 ,29.65948 
125 ,23.6616 ,0.83072 ,3.00909 ,29.52517 
126 ,23.8853 ,0.83280 ,3.00567 ,29.49159 
127 ,24.0614 ,0.83473 ,2.98513 ,29.29012 
128 ,24.2699 ,0.83683 ,2.96118 ,29.05507 
129 ,24.4616 ,0.83872 ,2.94064 ,28.85360 
130 ,24.6534 ,0.84057 ,2.91669 ,28.61856 
131 ,24.8299 ,0.84244 ,2.91327 ,28.58498 
132 ,25.0538 ,0.84462 ,2.87905 ,28.24919 
133 ,25.2299 ,0.84639 ,2.85851 ,28.04772 
134 ,25.4222 ,0.84824 ,2.84825 ,27.94699 
135 ,25.5980 ,0.85010 ,2.83456 ,27.81268 
136 ,26.1101 ,0.85519 ,2.79691 ,27.44332 
137 ,26.2702 ,0.85696 ,2.78322 ,27.30900 
138 ,26.4302 ,0.85853 ,2.77296 ,27.20827 
139 ,26.6064 ,0.86016 ,2.75927 ,27.07395 
140 ,26.7825 ,0.86191 ,2.74216 ,26.90606 
141 ,26.9586 ,0.86373 ,2.72163 ,26.70459 
142 ,27.1345 ,0.86544 ,2.69083 ,26.40239 
143 ,27.3266 ,0.86729 ,2.69083 ,26.40239 
144 ,27.5027 ,0.86916 ,2.68056 ,26.30165 
145 ,27.6788 ,0.87090 ,2.66345 ,26.13376 
146 ,27.8550 ,0.87267 ,2.62581 ,25.76440 
147 ,28.0309 ,0.87448 ,2.62581 ,25.76440 
148 ,28.2230 ,0.87624 ,2.61554 ,25.66367 
149 ,28.4154 ,0.87816 ,2.58132 ,25.32788 
150 ,28.6712 ,0.88061 ,2.57789 ,25.29430 
151 ,28.8472 ,0.88258 ,2.54710 ,24.99210 
152 ,29.0235 ,0.88430 ,2.55394 ,25.05926 
153 ,29.1995 ,0.88615 ,2.52314 ,24.75705 
154 ,29.3754 ,0.88783 ,2.50603 ,24.58916 
155 ,29.5515 ,0.88958 ,2.47865 ,24.32053 
156 ,29.7437 ,0.89148 ,2.48892 ,24.42127 
157 ,29.9197 ,0.89338 ,2.44785 ,24.01833 
158 ,30.0957 ,0.89506 ,2.44785 ,24.01833 
159 ,30.2720 ,0.89676 ,2.42390 ,23.78328 
160 ,30.4479 ,0.89858 ,2.41021 ,23.64897 
161 ,30.6241 ,0.90030 ,2.40679 ,23.61539 
162 ,30.8002 ,0.90210 ,2.40336 ,23.58181 
163 ,30.9923 ,0.90393 ,2.37599 ,23.31318 
164 ,31.1522 ,0.90573 ,2.35888 ,23.14529 
165 ,31.3444 ,0.90746 ,2.34861 ,23.04456 
166 ,31.5205 ,0.90927 ,2.33492 ,22.91024 
167 ,31.7125 ,0.91115 ,2.29728 ,22.54088 
168 ,31.8725 ,0.91293 ,2.28701 ,22.44015 
169 ,32.0326 ,0.91450 ,2.28359 ,22.40657 
170 ,32.2087 ,0.91615 ,2.25279 ,22.10437 
171 ,32.3846 ,0.91794 ,2.24252 ,22.00363 
172 ,32.5447 ,0.91963 ,2.25279 ,22.10437 
173 ,32.7208 ,0.92125 ,2.23568 ,21.93647 
174 ,32.8969 ,0.92306 ,2.21172 ,21.70143 
175 ,33.0729 ,0.92479 ,2.19119 ,21.49996 
176 ,33.2491 ,0.92655 ,2.18092 ,21.39922 
177 ,33.4251 ,0.92829 ,2.17066 ,21.29849 
178 ,33.6011 ,0.93008 ,2.15697 ,21.16417 
179 ,33.7773 ,0.93186 ,2.14670 ,21.06344 
180 ,33.9533 ,0.93359 ,2.10906 ,20.69408 
181 ,34.1293 ,0.93537 ,2.09537 ,20.55976 
182 ,34.3057 ,0.93715 ,2.09537 ,20.55976 
183 ,34.4976 ,0.93907 ,2.07484 ,20.35829 
184 ,34.6897 ,0.94091 ,2.06457 ,20.25756 
185 ,34.8658 ,0.94275 ,2.03035 ,19.92178 
186 ,35.0418 ,0.94448 ,2.03719 ,19.98893 
187 ,35.2180 ,0.94625 ,2.02350 ,19.85462 
188 ,35.4101 ,0.94813 ,1.98586 ,19.48526 
189 ,35.6021 ,0.95001 ,1.98928 ,19.51884 
190 ,35.7621 ,0.95181 ,1.98244 ,19.45168 
191 ,35.9382 ,0.95343 ,1.96875 ,19.31737 
192 ,36.1142 ,0.95518 ,1.93795 ,19.01516 
193 ,36.2903 ,0.95697 ,1.91742 ,18.81369 
194 ,36.4824 ,0.95884 ,1.92426 ,18.88085 
195 ,36.6585 ,0.96066 ,1.90373 ,18.67938 
196 ,36.8186 ,0.96237 ,1.88319 ,18.47791 
197 ,36.9946 ,0.96404 ,1.86951 ,18.34360 
198 ,37.1706 ,0.96575 ,1.83871 ,18.04139 
199 ,37.3627 ,0.96761 ,1.84555 ,18.10855 
200 ,37.5387 ,0.96945 ,1.83528 ,18.00781 
201 ,37.7149 ,0.97124 ,1.80449 ,17.70561 
202 ,37.8749 ,0.97293 ,1.78395 ,17.50414 
203 ,38.0509 ,0.97457 ,1.78053 ,17.47056 
204 ,38.2110 ,0.97629 ,1.75315 ,17.20193 
205 ,38.3871 ,0.97790 ,1.73946 ,17.06762 
206 ,38.5633 ,0.97970 ,1.73262 ,17.00046 
207 ,38.7553 ,0.98153 ,1.71209 ,16.79899 
208 ,38.9314 ,0.98335 ,1.69840 ,16.66468 
209 ,39.1074 ,0.98512 ,1.67786 ,16.46321 
210 ,39.2835 ,0.98687 ,1.68471 ,16.53037 
211 ,39.4596 ,0.98865 ,1.66760 ,16.36248 
212 ,39.6197 ,0.99035 ,1.65391 ,16.22816 
213 ,39.7798 ,0.99198 ,1.64022 ,16.09385 
214 ,39.9558 ,0.99357 ,1.61969 ,15.89238 
215 ,40.1318 ,0.99534 ,1.58889 ,15.59018 
216 ,40.2919 ,0.99707 ,1.58204 ,15.52302 
217 ,40.4519 ,0.99867 ,1.57520 ,15.45586 
218 ,40.6281 ,1.00035 ,1.55467 ,15.25439 
219 ,40.8042 ,1.00204 ,1.53413 ,15.05292 
220 ,40.9803 ,1.00382 ,1.52729 ,14.98577 
221 ,41.1564 ,1.00561 ,1.53071 ,15.01934 
222 ,41.3327 ,1.00742 ,1.49307 ,14.64998 
223 ,41.5408 ,1.00946 ,1.48622 ,14.58283 
224 ,41.7170 ,1.01122 ,1.49307 ,14.64998 
225 ,41.9091 ,1.01306 ,1.45542 ,14.28062 
226 ,42.1170 ,1.01517 ,1.45885 ,14.31420 
227 ,42.3087 ,1.01716 ,1.42462 ,13.97842 
228 ,42.4851 ,1.01890 ,1.40409 ,13.77695 
229 ,42.6934 ,1.02093 ,1.39383 ,13.67621 
230 ,42.9014 ,1.02303 ,1.38698 ,13.60906 
231 ,43.0775 ,1.02478 ,1.36987 ,13.44116 
232 ,43.2852 ,1.02685 ,1.33565 ,13.10538 
233 ,43.4613 ,1.02868 ,1.33907 ,13.13896 
234 ,43.6376 ,1.03046 ,1.32880 ,13.03822 
235 ,43.8299 ,1.03231 ,1.28774 ,12.63528 
236 ,44.0055 ,1.03414 ,1.29800 ,12.73602 
237 ,44.1820 ,1.03586 ,1.27747 ,12.53455 
238 ,44.3901 ,1.03787 ,1.24667 ,12.23235 
239 ,44.5659 ,1.03966 ,1.24325 ,12.19877 
240 ,44.7417 ,1.04144 ,1.22956 ,12.06445 
241 ,44.9184 ,1.04323 ,1.22614 ,12.03088 
242 ,45.1264 ,1.04533 ,1.19876 ,11.76225 
243 ,45.3341 ,1.04731 ,1.18850 ,11.66151 
244 ,45.5582 ,1.04951 ,1.16454 ,11.42647 
245 ,45.7507 ,1.05157 ,1.14058 ,11.19142 
246 ,45.9585 ,1.05354 ,1.14743 ,11.25857 
247 ,46.1827 ,1.05582 ,1.10636 ,10.85563 
248 ,46.3745 ,1.05784 ,1.08583 ,10.65416 
249 ,46.5507 ,1.05956 ,1.08583 ,10.65416 
250 ,46.7591 ,1.06163 ,1.07214 ,10.51985 
251 ,46.9506 ,1.06352 ,1.05845 ,10.38554 
252 ,47.1431 ,1.06542 ,1.03450 ,10.15049 
253 ,47.3512 ,1.06753 ,1.03108 ,10.11691 
254 ,47.5110 ,1.06923 ,1.00370 ,9.84829 
255 ,47.7030 ,1.07100 ,1.00028 ,9.81471 
256 ,47.8952 ,1.07292 ,0.99343 ,9.74755 
257 ,48.0875 ,1.07487 ,0.97632 ,9.57966 
258 ,48.2633 ,1.07659 ,0.94210 ,9.24388 
259 ,48.4398 ,1.07840 ,0.94894 ,9.31103 
260 ,48.6477 ,1.08044 ,0.92499 ,9.07598 
261 ,48.8234 ,1.08235 ,0.91472 ,8.97525 
262 ,48.9999 ,1.08401 ,0.91130 ,8.94167 
263 ,49.1917 ,1.08594 ,0.89761 ,8.80736 
264 ,49.3676 ,1.08770 ,0.88392 ,8.67305 
265 ,49.5437 ,1.08945 ,0.84628 ,8.30368 
266 ,49.7201 ,1.09124 ,0.83943 ,8.23653 
267 ,49.9279 ,1.09318 ,0.83601 ,8.20295 
268 ,50.1364 ,1.09525 ,0.82232 ,8.06864 
269 ,50.3441 ,1.09745 ,0.79837 ,7.83359 
270 ,50.5204 ,1.09924 ,0.78126 ,7.66570 
271 ,50.7284 ,1.10129 ,0.78126 ,7.66570 
272 ,50.9048 ,1.10303 ,0.75388 ,7.39707 
273 ,51.1124 ,1.10508 ,0.74361 ,7.29633 
274 ,51.2884 ,1.10688 ,0.74019 ,7.26276 
275 ,51.4808 ,1.10872 ,0.69570 ,6.82624 
276 ,51.7365 ,1.11127 ,0.69570 ,6.82624 
277 ,51.9286 ,1.11322 ,0.67517 ,6.62477 
278 ,52.1212 ,1.11512 ,0.65464 ,6.42330 
279 ,52.3289 ,1.11727 ,0.64437 ,6.32256 
280 ,52.5048 ,1.11904 ,0.62726 ,6.15467 
281 ,52.6974 ,1.12088 ,0.61015 ,5.98678 
282 ,52.9210 ,1.12324 ,0.61699 ,6.05394 
283 ,53.0971 ,1.12499 ,0.59304 ,5.81889 
284 ,53.2896 ,1.12687 ,0.57593 ,5.65100 
285 ,53.5453 ,1.12930 ,0.55882 ,5.48311 
286 ,53.7375 ,1.13131 ,0.54855 ,5.38237 
287 ,53.9615 ,1.13363 ,0.51775 ,5.08017 
288 ,54.1375 ,1.13538 ,0.52459 ,5.14732 
289 ,54.3136 ,1.13711 ,0.51775 ,5.08017 
290 ,54.4900 ,1.13895 ,0.50064 ,4.91228 
291 ,54.7624 ,1.14143 ,0.47326 ,4.64365 
292 ,54.9704 ,1.14367 ,0.45615 ,4.47576 
293 ,55.1464 ,1.14542 ,0.43904 ,4.30787 
294 ,55.3222 ,1.14724 ,0.41851 ,4.10640 
295 ,55.5142 ,1.14908 ,0.42877 ,4.20713 
296 ,55.6906 ,1.15096 ,0.39797 ,3.90493 
297 ,55.8825 ,1.15277 ,0.39113 ,3.83777 
298 ,56.0744 ,1.15466 ,0.39797 ,3.90493 
299 ,56.2505 ,1.15651 ,0.38429 ,3.77061 
300 ,56.4107 ,1.15823 ,0.36033 ,3.53557 
301 ,56.5707 ,1.15979 ,0.33980 ,3.33410 
302 ,56.7467 ,1.16145 ,0.33295 ,3.26694 
303 ,56.9229 ,1.16320 ,0.32269 ,3.16620 
304 ,57.0989 ,1.16495 ,0.31926 ,3.13263 
305 ,57.2589 ,1.16667 ,0.31242 ,3.06547 
306 ,57.4190 ,1.16830 ,0.30215 ,2.96473 
307 ,57.5791 ,1.16986 ,0.29189 ,2.86400 
308 ,57.7552 ,1.17148 ,0.28162 ,2.76326 
309 ,57.9314 ,1.17327 ,0.28162 ,2.76326 
310 ,58.1073 ,1.17510 ,0.26793 ,2.62895 
311 ,58.2833 ,1.17679 ,0.24055 ,2.36032 
312 ,58.4595 ,1.17857 ,0.21660 ,2.12528 
313 ,58.6356 ,1.18030 ,0.22344 ,2.19243 
314 ,58.8115 ,1.18215 ,0.19607 ,1.92381 
315 ,58.9876 ,1.18384 ,0.19949 ,1.95738 
316 ,59.1637 ,1.18565 ,0.18238 ,1.78949 
317 ,59.3401 ,1.18751 ,0.17553 ,1.72234 
318 ,59.4997 ,1.18909 ,0.17211 ,1.68876 
319 ,59.6597 ,1.19069 ,0.15158 ,1.48729 
320 ,59.8362 ,1.19240 ,0.13789 ,1.35298 
321 ,60.0440 ,1.19437 ,0.12078 ,1.18508 
322 ,60.2200 ,1.19622 ,0.12078 ,1.18508 
323 ,60.4123 ,1.19807 ,0.08998 ,0.88288 
324 ,60.6043 ,1.20001 ,0.07629 ,0.74857 
325 ,60.7962 ,1.20187 ,0.07629 ,0.74857 
326 ,60.9724 ,1.20371 ,0.06945 ,0.68141 
327 ,61.2287 ,1.20611 ,0.04207 ,0.41278 
328 ,61.4044 ,1.20814 ,0.02496 ,0.24489 
329 ,61.5808 ,1.20980 ,0.00785 ,0.07700 
330 ,61.8369 ,1.21216 ,0.00443 ,0.04342 
331 ,62.0286 ,1.21433 ,-0.01611 ,-0.15805 
332 ,62.2213 ,1.21608 ,-0.02295 ,-0.22520 
333 ,62.4448 ,1.21844 ,-0.02637 ,-0.25878 
334 ,62.6210 ,1.22016 ,-0.06060 ,-0.59457 
335 ,62.8134 ,1.22200 ,-0.07086 ,-0.69530 
336 ,63.0213 ,1.22426 ,-0.08113 ,-0.79604 
337 ,63.2132 ,1.22601 ,-0.08455 ,-0.82961 
338 ,63.4057 ,1.22790 ,-0.09482 ,-0.93035 
339 ,63.6134 ,1.23009 ,-0.10166 ,-0.99751 
340 ,63.8055 ,1.23193 ,-0.14273 ,-1.40045 
341 ,63.9981 ,1.23382 ,-0.13931 ,-1.36687 
342 ,64.2538 ,1.23631 ,-0.14615 ,-1.43402 
343 ,64.4298 ,1.23831 ,-0.17695 ,-1.73623 
344 ,64.6059 ,1.24003 ,-0.15984 ,-1.56834 
345 ,64.7820 ,1.24175 ,-0.18037 ,-1.76981 
346 ,64.9421 ,1.24347 ,-0.19748 ,-1.93770 
347 ,65.1181 ,1.24513 ,-0.21802 ,-2.13917 
348 ,65.2941 ,1.24687 ,-0.20775 ,-2.03843 
349 ,65.4703 ,1.24862 ,-0.21117 ,-2.07201 
350 ,65.6464 ,1.25036 ,-0.23855 ,-2.34064 
351 ,65.8225 ,1.25214 ,-0.25908 ,-2.54211 
352 ,65.9985 ,1.25392 ,-0.26250 ,-2.57569 
353 ,66.1745 ,1.25564 ,-0.26935 ,-2.64284 
354 ,66.3506 ,1.25745 ,-0.27277 ,-2.67642 
355 ,66.5108 ,1.25917 ,-0.28304 ,-2.77716 
356 ,66.6708 ,1.26079 ,-0.30699 ,-3.01220 
357 ,66.8308 ,1.26236 ,-0.31041 ,-3.04578 
358 ,67.0069 ,1.26402 ,-0.31726 ,-3.11294 
359 ,67.1830 ,1.26576 ,-0.33095 ,-3.24725 
360 ,67.3590 ,1.26756 ,-0.34464 ,-3.38156 
361 ,67.5351 ,1.26928 ,-0.35490 ,-3.48230 
362 ,67.7111 ,1.27105 ,-0.34464 ,-3.38156 
363 ,67.8871 ,1.27283 ,-0.35832 ,-3.51588 
364 ,68.0633 ,1.27456 ,-0.38228 ,-3.75093 
365 ,68.3355 ,1.27710 ,-0.38912 ,-3.81808 
366 ,68.5114 ,1.27912 ,-0.40966 ,-4.01955 
367 ,68.6876 ,1.28081 ,-0.40623 ,-3.98597 
368 ,68.8959 ,1.28297 ,-0.42335 ,-4.15387 
369 ,69.1196 ,1.28511 ,-0.45072 ,-4.42249 
370 ,69.2960 ,1.28688 ,-0.45072 ,-4.42249 
371 ,69.5678 ,1.28943 ,-0.46783 ,-4.59038 
372 ,69.7439 ,1.29135 ,-0.47126 ,-4.62396 
373 ,69.9363 ,1.29319 ,-0.49179 ,-4.82543 
374 ,70.1442 ,1.29532 ,-0.50890 ,-4.99332 
375 ,70.3203 ,1.29711 ,-0.52259 ,-5.12764 
376 ,70.4963 ,1.29886 ,-0.51917 ,-5.09406 
377 ,70.6724 ,1.30068 ,-0.50890 ,-4.99332 
378 ,70.8489 ,1.30246 ,-0.52601 ,-5.16121 
379 ,71.0409 ,1.30432 ,-0.55681 ,-5.46342 
380 ,71.2010 ,1.30603 ,-0.55339 ,-5.42984 
381 ,71.3927 ,1.30781 ,-0.54312 ,-5.32911 
382 ,71.5689 ,1.30964 ,-0.55339 ,-5.42984 
383 ,71.7453 ,1.31139 ,-0.57734 ,-5.66489 
384 ,71.9370 ,1.31330 ,-0.59445 ,-5.83278 
385 ,72.1132 ,1.31508 ,-0.58761 ,-5.76562 
386 ,72.2890 ,1.31680 ,-0.59788 ,-5.86636 
387 ,72.4653 ,1.31855 ,-0.60814 ,-5.96709 
388 ,72.6413 ,1.32030 ,-0.62868 ,-6.16856 
389 ,72.8175 ,1.32211 ,-0.64236 ,-6.30288 
390 ,72.9935 ,1.32383 ,-0.62525 ,-6.13499 
391 ,73.1696 ,1.32560 ,-0.64236 ,-6.30288 
392 ,73.3457 ,1.32734 ,-0.65263 ,-6.40361 
393 ,73.5217 ,1.32912 ,-0.68001 ,-6.67224 
394 ,73.6978 ,1.33089 ,-0.67316 ,-6.60508 
395 ,73.8738 ,1.33263 ,-0.68685 ,-6.73940 
396 ,74.0498 ,1.33442 ,-0.69712 ,-6.84013 
397 ,74.2419 ,1.33624 ,-0.70739 ,-6.94086 
398 ,74.4182 ,1.33809 ,-0.71765 ,-7.04160 
399 ,74.5941 ,1.33981 ,-0.72450 ,-7.10876 
400 ,74.7862 ,1.34168 ,-0.74845 ,-7.34380 
401 ,74.9625 ,1.34353 ,-0.75530 ,-7.41096 
402 ,75.1383 ,1.34531 ,-0.76556 ,-7.51170 
403 ,75.3308 ,1.34713 ,-0.75530 ,-7.41096 
404 ,75.5388 ,1.34925 ,-0.77583 ,-7.61243 
405 ,75.7152 ,1.35104 ,-0.77241 ,-7.57885 
406 ,75.8911 ,1.35280 ,-0.77925 ,-7.64601 
407 ,76.0671 ,1.35458 ,-0.78952 ,-7.74674 
408 ,76.2433 ,1.35633 ,-0.82032 ,-8.04895 
409 ,76.4350 ,1.35828 ,-0.81347 ,-7.98179 
410 ,76.6115 ,1.36006 ,-0.82374 ,-8.08253 
411 ,76.8033 ,1.36188 ,-0.84769 ,-8.31758 
412 ,76.9636 ,1.36365 ,-0.86138 ,-8.45189 
413 ,77.1557 ,1.36547 ,-0.84427 ,-8.28400 
414 ,77.3318 ,1.36727 ,-0.85796 ,-8.41831 
415 ,77.5397 ,1.36924 ,-0.87849 ,-8.61978 
416 ,77.7158 ,1.37102 ,-0.87507 ,-8.58620 
417 ,77.9239 ,1.37306 ,-0.91614 ,-8.98914 
418 ,78.1001 ,1.37488 ,-0.92298 ,-9.05630 
419 ,78.2760 ,1.37672 ,-0.91956 ,-9.02272 
420 ,78.4681 ,1.37859 ,-0.91614 ,-8.98914 
421 ,78.6442 ,1.38031 ,-0.94351 ,-9.25777 
422 ,78.8204 ,1.38208 ,-0.95036 ,-9.32492 
423 ,78.9963 ,1.38389 ,-0.95036 ,-9.32492 
424 ,79.1723 ,1.38561 ,-0.94351 ,-9.25777 
425 ,79.3645 ,1.38759 ,-0.96747 ,-9.49282 
426 ,79.5404 ,1.38930 ,-0.99143 ,-9.72786 
427 ,79.7327 ,1.39116 ,-0.98116 ,-9.62713 
428 ,79.9403 ,1.39319 ,-1.00854 ,-9.89576 
429 ,80.1170 ,1.39507 ,-0.99143 ,-9.72786 
430 ,80.3090 ,1.39689 ,-1.00854 ,-9.89576 
431 ,80.5010 ,1.39890 ,-1.02907 ,-10.09723 
432 ,80.6768 ,1.40067 ,-1.02907 ,-10.09723 
433 ,80.8533 ,1.40245 ,-1.03934 ,-10.19796 
434 ,81.0292 ,1.40414 ,-1.04276 ,-10.23154 
435 ,81.2053 ,1.40594 ,-1.07356 ,-10.53374 
436 ,81.3814 ,1.40774 ,-1.07698 ,-10.56732 
437 ,81.5412 ,1.40941 ,-1.07698 ,-10.56732 
438 ,81.7173 ,1.41107 ,-1.10436 ,-10.83595 
439 ,81.9097 ,1.41294 ,-1.10093 ,-10.80237 
440 ,82.1017 ,1.41491 ,-1.11462 ,-10.93668 
441 ,82.2777 ,1.41664 ,-1.11462 ,-10.93668 
442 ,82.4539 ,1.41842 ,-1.12831 ,-11.07100 
443 ,82.6297 ,1.42020 ,-1.12489 ,-11.03742 
444 ,82.8219 ,1.42209 ,-1.14884 ,-11.27247 
445 ,82.9980 ,1.42380 ,-1.15569 ,-11.33962 
446 ,83.1742 ,1.42565 ,-1.14884 ,-11.27247 
447 ,83.3502 ,1.42737 ,-1.14542 ,-11.23889 
448 ,83.5263 ,1.42915 ,-1.15911 ,-11.37320 
449 ,83.7024 ,1.43093 ,-1.18307 ,-11.60825 
450 ,83.8941 ,1.43284 ,-1.17964 ,-11.57467 
451 ,84.0704 ,1.43456 ,-1.19333 ,-11.70898 
452 ,84.2625 ,1.43649 ,-1.21044 ,-11.87688 
453 ,84.4386 ,1.43826 ,-1.21387 ,-11.91045 
454 ,84.6147 ,1.44007 ,-1.21729 ,-11.94403 
455 ,84.8064 ,1.44190 ,-1.22413 ,-12.01119 
456 ,84.9825 ,1.44368 ,-1.25151 ,-12.27981 
457 ,85.1589 ,1.44541 ,-1.24124 ,-12.17908 
458 ,85.3349 ,1.44722 ,-1.24809 ,-12.24624 
459 ,85.5271 ,1.44916 ,-1.25493 ,-12.31339 
460 ,85.7030 ,1.45089 ,-1.27204 ,-12.48128 
461 ,85.8952 ,1.45282 ,-1.27204 ,-12.48128 
