Data stamp = , 05-04-2022 00:47:17 022

Calibration Values: 
Slope = , 26.54 , g/V 
Offset Voltage at no contact = , -0.501760 , V 

No , Time , Stage Position ,   Mass , Force 
   ,  (s) ,      (mm)      ,   (g)  , (mN)  

1 ,0.0000 ,0.59949 ,5.00421 ,49.10132 
2 ,0.2296 ,0.59958 ,5.00763 ,49.13490 
3 ,0.5980 ,0.60064 ,5.01448 ,49.20205 
4 ,0.7741 ,0.60219 ,4.99394 ,49.00058 
5 ,0.9662 ,0.60385 ,5.00763 ,49.13490 
6 ,1.1583 ,0.60576 ,4.99737 ,49.03416 
7 ,1.3344 ,0.60749 ,5.00079 ,49.06774 
8 ,1.5103 ,0.60933 ,5.00763 ,49.13490 
9 ,1.7025 ,0.61120 ,5.01106 ,49.16848 
10 ,1.8945 ,0.61314 ,5.00079 ,49.06774 
11 ,2.0865 ,0.61504 ,5.00079 ,49.06774 
12 ,2.2627 ,0.61687 ,4.99737 ,49.03416 
13 ,2.4548 ,0.61879 ,4.96999 ,48.76554 
14 ,2.6466 ,0.62064 ,4.97683 ,48.83269 
15 ,2.8231 ,0.62248 ,4.96315 ,48.69838 
16 ,3.0149 ,0.62437 ,4.93577 ,48.42975 
17 ,3.2070 ,0.62631 ,4.92892 ,48.36260 
18 ,3.3832 ,0.62802 ,4.92208 ,48.29544 
19 ,3.5913 ,0.63009 ,4.90155 ,48.09397 
20 ,3.7674 ,0.63191 ,4.87759 ,47.85892 
21 ,3.9433 ,0.63367 ,4.88444 ,47.92608 
22 ,4.1194 ,0.63542 ,4.85021 ,47.59030 
23 ,4.3116 ,0.63727 ,4.82968 ,47.38883 
24 ,4.5036 ,0.63920 ,4.80230 ,47.12020 
25 ,4.6957 ,0.64121 ,4.78177 ,46.91873 
26 ,4.8718 ,0.64291 ,4.75439 ,46.65010 
27 ,5.0480 ,0.64474 ,4.73728 ,46.48221 
28 ,5.2399 ,0.64657 ,4.71333 ,46.24716 
29 ,5.4160 ,0.64838 ,4.68937 ,46.01212 
30 ,5.5920 ,0.65013 ,4.65515 ,45.67633 
31 ,5.7683 ,0.65195 ,4.63462 ,45.47486 
32 ,5.9443 ,0.65368 ,4.63804 ,45.50844 
33 ,6.1524 ,0.65568 ,4.59697 ,45.10550 
34 ,6.4404 ,0.65806 ,4.57644 ,44.90403 
35 ,6.6166 ,0.66040 ,4.55249 ,44.66898 
36 ,6.8087 ,0.66231 ,4.52853 ,44.43394 
37 ,7.0167 ,0.66427 ,4.51142 ,44.26604 
38 ,7.2409 ,0.66651 ,4.48746 ,44.03100 
39 ,7.4008 ,0.66833 ,4.46351 ,43.79595 
40 ,7.5767 ,0.66998 ,4.44982 ,43.66163 
41 ,7.7529 ,0.67176 ,4.42244 ,43.39301 
42 ,7.9449 ,0.67361 ,4.41902 ,43.35943 
43 ,8.1211 ,0.67543 ,4.40875 ,43.25870 
44 ,8.3132 ,0.67733 ,4.36427 ,42.82218 
45 ,8.4893 ,0.67909 ,4.36084 ,42.78860 
46 ,8.6970 ,0.68112 ,4.33347 ,42.51997 
47 ,8.8733 ,0.68291 ,4.31293 ,42.31850 
48 ,9.0815 ,0.68498 ,4.29240 ,42.11703 
49 ,9.2576 ,0.68680 ,4.28213 ,42.01630 
50 ,9.4339 ,0.68853 ,4.25818 ,41.78125 
51 ,9.6418 ,0.69055 ,4.25476 ,41.74767 
52 ,9.8179 ,0.69238 ,4.23080 ,41.51262 
53 ,10.0099 ,0.69431 ,4.20685 ,41.27758 
54 ,10.1700 ,0.69598 ,4.21369 ,41.34473 
55 ,10.3621 ,0.69779 ,4.19316 ,41.14326 
56 ,10.5382 ,0.69960 ,4.18631 ,41.07611 
57 ,10.7141 ,0.70132 ,4.14867 ,40.70674 
58 ,10.8901 ,0.70308 ,4.13156 ,40.53885 
59 ,11.0983 ,0.70503 ,4.10076 ,40.23665 
60 ,11.2743 ,0.70694 ,4.09734 ,40.20307 
61 ,11.4823 ,0.70893 ,4.09049 ,40.13591 
62 ,11.6585 ,0.71078 ,4.07338 ,39.96802 
63 ,11.8347 ,0.71250 ,4.04600 ,39.69940 
64 ,12.0266 ,0.71448 ,4.02547 ,39.49793 
65 ,12.1864 ,0.71616 ,4.01863 ,39.43077 
66 ,12.3628 ,0.71780 ,4.00494 ,39.29646 
67 ,12.5389 ,0.71955 ,3.98441 ,39.09499 
68 ,12.7149 ,0.72140 ,3.96729 ,38.92709 
69 ,12.8911 ,0.72309 ,3.93992 ,38.65847 
70 ,13.0829 ,0.72500 ,3.93992 ,38.65847 
71 ,13.2588 ,0.72677 ,3.91596 ,38.42342 
72 ,13.4352 ,0.72853 ,3.88858 ,38.15479 
73 ,13.6272 ,0.73037 ,3.87832 ,38.05406 
74 ,13.8032 ,0.73219 ,3.87147 ,37.98690 
75 ,13.9953 ,0.73403 ,3.86121 ,37.88617 
76 ,14.1876 ,0.73607 ,3.83041 ,37.58396 
77 ,14.3635 ,0.73784 ,3.81330 ,37.41607 
78 ,14.5398 ,0.73955 ,3.80645 ,37.34891 
79 ,14.7317 ,0.74143 ,3.76539 ,36.94597 
80 ,14.9077 ,0.74325 ,3.77223 ,37.01313 
81 ,15.0838 ,0.74497 ,3.76196 ,36.91240 
82 ,15.2598 ,0.74678 ,3.74828 ,36.77808 
83 ,15.4360 ,0.74853 ,3.72432 ,36.54303 
84 ,15.6121 ,0.75034 ,3.69352 ,36.24083 
85 ,15.7881 ,0.75207 ,3.67299 ,36.03936 
86 ,15.9803 ,0.75394 ,3.67983 ,36.10652 
87 ,16.1565 ,0.75570 ,3.65246 ,35.83789 
88 ,16.3486 ,0.75768 ,3.62508 ,35.56926 
89 ,16.5245 ,0.75947 ,3.62850 ,35.60284 
90 ,16.7165 ,0.76130 ,3.59428 ,35.26706 
91 ,16.8925 ,0.76307 ,3.57032 ,35.03201 
92 ,17.1007 ,0.76511 ,3.57375 ,35.06559 
93 ,17.2769 ,0.76692 ,3.56006 ,34.93128 
94 ,17.4686 ,0.76886 ,3.52584 ,34.59549 
95 ,17.6449 ,0.77062 ,3.51215 ,34.46118 
96 ,17.8371 ,0.77255 ,3.51557 ,34.49476 
97 ,18.0129 ,0.77424 ,3.47108 ,34.05824 
98 ,18.1892 ,0.77608 ,3.46081 ,33.95751 
99 ,18.3492 ,0.77777 ,3.44370 ,33.78961 
100 ,18.5250 ,0.77944 ,3.42659 ,33.62172 
101 ,18.7015 ,0.78118 ,3.43001 ,33.65530 
102 ,18.8935 ,0.78309 ,3.40264 ,33.38667 
103 ,19.0696 ,0.78486 ,3.36842 ,33.05089 
104 ,19.2617 ,0.78673 ,3.38210 ,33.18520 
105 ,19.4377 ,0.78852 ,3.36499 ,33.01731 
106 ,19.6135 ,0.79023 ,3.33077 ,32.68153 
107 ,19.7898 ,0.79209 ,3.31708 ,32.54722 
108 ,19.9977 ,0.79397 ,3.31366 ,32.51364 
109 ,20.1900 ,0.79602 ,3.27259 ,32.11070 
110 ,20.3663 ,0.79781 ,3.27259 ,32.11070 
111 ,20.5581 ,0.79978 ,3.25206 ,31.90923 
112 ,20.7342 ,0.80148 ,3.23837 ,31.77492 
113 ,20.9264 ,0.80343 ,3.21784 ,31.57345 
114 ,21.1184 ,0.80537 ,3.21100 ,31.50629 
115 ,21.3102 ,0.80718 ,3.17677 ,31.17051 
116 ,21.5028 ,0.80915 ,3.18020 ,31.20409 
117 ,21.6944 ,0.81110 ,3.14940 ,30.90188 
118 ,21.8708 ,0.81286 ,3.13571 ,30.76757 
119 ,22.0628 ,0.81476 ,3.11860 ,30.59968 
120 ,22.2392 ,0.81655 ,3.11518 ,30.56610 
121 ,22.4151 ,0.81834 ,3.10149 ,30.43178 
122 ,22.5911 ,0.82004 ,3.07069 ,30.12958 
123 ,22.7669 ,0.82183 ,3.04673 ,29.89453 
124 ,22.9589 ,0.82364 ,3.03989 ,29.82737 
125 ,23.1355 ,0.82550 ,3.03989 ,29.82737 
126 ,23.3115 ,0.82727 ,2.99882 ,29.42444 
127 ,23.5195 ,0.82919 ,2.99540 ,29.39086 
128 ,23.6956 ,0.83110 ,2.98171 ,29.25654 
129 ,23.8876 ,0.83301 ,2.94749 ,28.92076 
130 ,24.0635 ,0.83476 ,2.95433 ,28.98792 
131 ,24.2396 ,0.83658 ,2.93038 ,28.75287 
132 ,24.4156 ,0.83833 ,2.92696 ,28.71929 
133 ,24.6080 ,0.84019 ,2.88247 ,28.28277 
134 ,24.7839 ,0.84199 ,2.88247 ,28.28277 
135 ,24.9760 ,0.84388 ,2.86193 ,28.08130 
136 ,25.1520 ,0.84563 ,2.83798 ,27.84625 
137 ,25.3285 ,0.84744 ,2.82087 ,27.67836 
138 ,25.5201 ,0.84927 ,2.82087 ,27.67836 
139 ,25.6964 ,0.85108 ,2.81060 ,27.57763 
140 ,25.8885 ,0.85292 ,2.78322 ,27.30900 
141 ,26.0645 ,0.85478 ,2.76269 ,27.10753 
142 ,26.2566 ,0.85672 ,2.75243 ,27.00680 
143 ,26.4323 ,0.85846 ,2.72847 ,26.77175 
144 ,26.6088 ,0.86022 ,2.70452 ,26.53670 
145 ,26.8009 ,0.86209 ,2.71478 ,26.63744 
146 ,26.9769 ,0.86394 ,2.69083 ,26.40239 
147 ,27.1690 ,0.86582 ,2.65660 ,26.06661 
148 ,27.3610 ,0.86771 ,2.66345 ,26.13376 
149 ,27.5373 ,0.86946 ,2.64634 ,25.96587 
150 ,27.7292 ,0.87144 ,2.61896 ,25.69724 
151 ,27.9052 ,0.87313 ,2.60869 ,25.59651 
152 ,28.0811 ,0.87496 ,2.59843 ,25.49577 
153 ,28.2572 ,0.87671 ,2.58132 ,25.32788 
154 ,28.4654 ,0.87872 ,2.56763 ,25.19357 
155 ,28.6415 ,0.88052 ,2.54367 ,24.95852 
156 ,28.8178 ,0.88232 ,2.54025 ,24.92494 
157 ,29.0097 ,0.88415 ,2.49918 ,24.52200 
158 ,29.1695 ,0.88592 ,2.49918 ,24.52200 
159 ,29.3459 ,0.88762 ,2.48207 ,24.35411 
160 ,29.5381 ,0.88947 ,2.46839 ,24.21980 
161 ,29.7301 ,0.89143 ,2.44101 ,23.95117 
162 ,29.9221 ,0.89334 ,2.44443 ,23.98475 
163 ,30.0982 ,0.89510 ,2.43759 ,23.91759 
164 ,30.2582 ,0.89682 ,2.40336 ,23.58181 
165 ,30.4343 ,0.89845 ,2.39652 ,23.51465 
166 ,30.6103 ,0.90023 ,2.37599 ,23.31318 
167 ,30.7865 ,0.90199 ,2.36230 ,23.17887 
168 ,30.9624 ,0.90373 ,2.35545 ,23.11171 
169 ,31.1547 ,0.90559 ,2.34519 ,23.01098 
170 ,31.3306 ,0.90745 ,2.31439 ,22.70877 
171 ,31.5069 ,0.90914 ,2.29385 ,22.50731 
172 ,31.6989 ,0.91102 ,2.29385 ,22.50731 
173 ,31.8746 ,0.91287 ,2.27674 ,22.33941 
174 ,32.0505 ,0.91459 ,2.25279 ,22.10437 
175 ,32.2266 ,0.91645 ,2.24594 ,22.03721 
176 ,32.4027 ,0.91811 ,2.22541 ,21.83574 
177 ,32.5951 ,0.91997 ,2.19803 ,21.56711 
178 ,32.8193 ,0.92222 ,2.19461 ,21.53353 
179 ,33.0113 ,0.92425 ,2.17750 ,21.36564 
180 ,33.1875 ,0.92600 ,2.14670 ,21.06344 
181 ,33.3795 ,0.92785 ,2.15355 ,21.13059 
182 ,33.5557 ,0.92969 ,2.13301 ,20.92912 
183 ,33.7477 ,0.93148 ,2.11248 ,20.72766 
184 ,33.9558 ,0.93362 ,2.08510 ,20.45903 
185 ,34.1319 ,0.93539 ,2.06799 ,20.29114 
186 ,34.3238 ,0.93738 ,2.07141 ,20.32472 
187 ,34.4996 ,0.93906 ,2.06457 ,20.25756 
188 ,34.6761 ,0.94088 ,2.04404 ,20.05609 
189 ,34.8520 ,0.94260 ,2.01666 ,19.78746 
190 ,35.0282 ,0.94438 ,2.00639 ,19.68673 
191 ,35.2041 ,0.94611 ,1.99955 ,19.61957 
192 ,35.3804 ,0.94791 ,1.98586 ,19.48526 
193 ,35.5722 ,0.94985 ,1.95164 ,19.14948 
194 ,35.7645 ,0.95168 ,1.95164 ,19.14948 
195 ,35.9565 ,0.95365 ,1.92426 ,18.88085 
196 ,36.1486 ,0.95556 ,1.90031 ,18.64580 
197 ,36.3244 ,0.95737 ,1.90373 ,18.67938 
198 ,36.5008 ,0.95907 ,1.89004 ,18.54507 
199 ,36.6768 ,0.96086 ,1.87635 ,18.41075 
200 ,36.8527 ,0.96263 ,1.85240 ,18.17570 
201 ,37.0449 ,0.96452 ,1.83528 ,18.00781 
202 ,37.2211 ,0.96632 ,1.83186 ,17.97423 
203 ,37.4452 ,0.96839 ,1.81133 ,17.77276 
204 ,37.6213 ,0.97030 ,1.80106 ,17.67203 
205 ,37.7973 ,0.97209 ,1.77711 ,17.43698 
206 ,37.9894 ,0.97398 ,1.75315 ,17.20193 
207 ,38.1654 ,0.97575 ,1.74631 ,17.13478 
208 ,38.3416 ,0.97748 ,1.73262 ,17.00046 
209 ,38.5337 ,0.97942 ,1.69840 ,16.66468 
210 ,38.7096 ,0.98124 ,1.68129 ,16.49679 
211 ,38.9018 ,0.98308 ,1.69155 ,16.59752 
212 ,39.0935 ,0.98500 ,1.66760 ,16.36248 
213 ,39.2700 ,0.98679 ,1.64364 ,16.12743 
214 ,39.4458 ,0.98854 ,1.63338 ,16.02669 
215 ,39.6221 ,0.99031 ,1.62653 ,15.95954 
216 ,39.8138 ,0.99220 ,1.59916 ,15.69091 
217 ,39.9903 ,0.99399 ,1.58547 ,15.55660 
218 ,40.1663 ,0.99577 ,1.57178 ,15.42228 
219 ,40.3585 ,0.99762 ,1.56836 ,15.38871 
220 ,40.5345 ,0.99942 ,1.54440 ,15.15366 
221 ,40.7266 ,1.00130 ,1.53756 ,15.08650 
222 ,40.9185 ,1.00334 ,1.51702 ,14.88503 
223 ,41.0945 ,1.00497 ,1.51702 ,14.88503 
224 ,41.2707 ,1.00679 ,1.48965 ,14.61640 
225 ,41.4468 ,1.00853 ,1.46911 ,14.41493 
226 ,41.6230 ,1.01033 ,1.46569 ,14.38136 
227 ,41.8150 ,1.01213 ,1.46569 ,14.38136 
228 ,41.9910 ,1.01411 ,1.43147 ,14.04557 
229 ,42.1829 ,1.01584 ,1.43489 ,14.07915 
230 ,42.3589 ,1.01767 ,1.41778 ,13.91126 
231 ,42.5352 ,1.01939 ,1.38698 ,13.60906 
232 ,42.7113 ,1.02118 ,1.36303 ,13.37401 
233 ,42.8870 ,1.02299 ,1.34591 ,13.20612 
234 ,43.0631 ,1.02469 ,1.34934 ,13.23969 
235 ,43.2396 ,1.02644 ,1.33223 ,13.07180 
236 ,43.4318 ,1.02838 ,1.31169 ,12.87033 
237 ,43.6077 ,1.03013 ,1.29800 ,12.73602 
238 ,43.8154 ,1.03211 ,1.30485 ,12.80318 
239 ,43.9919 ,1.03398 ,1.27063 ,12.46739 
240 ,44.1839 ,1.03583 ,1.26036 ,12.36666 
241 ,44.3600 ,1.03765 ,1.25694 ,12.33308 
242 ,44.5358 ,1.03941 ,1.22956 ,12.06445 
243 ,44.7121 ,1.04116 ,1.21929 ,11.96372 
244 ,44.8881 ,1.04293 ,1.20218 ,11.79583 
245 ,45.0642 ,1.04469 ,1.19534 ,11.72867 
246 ,45.2562 ,1.04660 ,1.17138 ,11.49362 
247 ,45.4484 ,1.04854 ,1.14743 ,11.25857 
248 ,45.6244 ,1.05036 ,1.15427 ,11.32573 
249 ,45.8005 ,1.05206 ,1.15085 ,11.29215 
250 ,45.9766 ,1.05383 ,1.12690 ,11.05710 
251 ,46.1522 ,1.05553 ,1.10636 ,10.85563 
252 ,46.3283 ,1.05738 ,1.08925 ,10.68774 
253 ,46.4883 ,1.05909 ,1.07556 ,10.55343 
254 ,46.6810 ,1.06077 ,1.07899 ,10.58701 
255 ,46.8727 ,1.06285 ,1.04476 ,10.25123 
256 ,47.0491 ,1.06453 ,1.02765 ,10.08333 
257 ,47.2409 ,1.06649 ,1.03108 ,10.11691 
258 ,47.4173 ,1.06826 ,1.02423 ,10.04976 
259 ,47.6253 ,1.07024 ,0.99343 ,9.74755 
260 ,47.8014 ,1.07206 ,0.99001 ,9.71397 
261 ,47.9931 ,1.07394 ,0.95921 ,9.41177 
262 ,48.1695 ,1.07573 ,0.94210 ,9.24388 
263 ,48.3616 ,1.07760 ,0.94552 ,9.27745 
264 ,48.5377 ,1.07941 ,0.93525 ,9.17672 
265 ,48.7133 ,1.08116 ,0.90446 ,8.87451 
266 ,48.8899 ,1.08295 ,0.88734 ,8.70662 
267 ,49.0658 ,1.08471 ,0.87708 ,8.60589 
268 ,49.2419 ,1.08648 ,0.88050 ,8.63947 
269 ,49.4180 ,1.08823 ,0.86339 ,8.47158 
270 ,49.5940 ,1.08996 ,0.84286 ,8.27011 
271 ,49.7702 ,1.09174 ,0.83943 ,8.23653 
272 ,49.9463 ,1.09349 ,0.81890 ,8.03506 
273 ,50.1383 ,1.09540 ,0.81206 ,7.96790 
274 ,50.3142 ,1.09716 ,0.79152 ,7.76643 
275 ,50.4904 ,1.09891 ,0.76757 ,7.53138 
276 ,50.6664 ,1.10066 ,0.76072 ,7.46423 
277 ,50.8425 ,1.10244 ,0.75730 ,7.43065 
278 ,51.0346 ,1.10429 ,0.75730 ,7.43065 
279 ,51.2267 ,1.10626 ,0.72992 ,7.16202 
280 ,51.3867 ,1.10799 ,0.71281 ,6.99413 
281 ,51.5629 ,1.10964 ,0.71281 ,6.99413 
282 ,51.7389 ,1.11142 ,0.68886 ,6.75908 
283 ,51.9150 ,1.11314 ,0.68544 ,6.72550 
284 ,52.1070 ,1.11503 ,0.66833 ,6.55761 
285 ,52.2993 ,1.11698 ,0.66833 ,6.55761 
286 ,52.4913 ,1.11891 ,0.63410 ,6.22183 
287 ,52.6671 ,1.12069 ,0.62384 ,6.12109 
288 ,52.8434 ,1.12246 ,0.61699 ,6.05394 
289 ,53.0357 ,1.12442 ,0.60330 ,5.91962 
290 ,53.2116 ,1.12621 ,0.57593 ,5.65100 
291 ,53.4358 ,1.12822 ,0.56566 ,5.55026 
292 ,53.6113 ,1.13016 ,0.56224 ,5.51668 
293 ,53.7878 ,1.13197 ,0.53828 ,5.28164 
294 ,53.9798 ,1.13383 ,0.53828 ,5.28164 
295 ,54.1560 ,1.13557 ,0.53144 ,5.21448 
296 ,54.3476 ,1.13755 ,0.50748 ,4.97943 
297 ,54.5239 ,1.13921 ,0.48353 ,4.74438 
298 ,54.6997 ,1.14106 ,0.48695 ,4.77796 
299 ,54.8762 ,1.14281 ,0.47668 ,4.67723 
300 ,55.0520 ,1.14453 ,0.45615 ,4.47576 
301 ,55.2442 ,1.14638 ,0.44588 ,4.37502 
302 ,55.4205 ,1.14822 ,0.43562 ,4.27429 
303 ,55.6124 ,1.15016 ,0.41851 ,4.10640 
304 ,55.7885 ,1.15191 ,0.39113 ,3.83777 
305 ,55.9645 ,1.15363 ,0.38771 ,3.80419 
306 ,56.1408 ,1.15536 ,0.38086 ,3.73703 
307 ,56.3166 ,1.15730 ,0.36718 ,3.60272 
308 ,56.4930 ,1.15893 ,0.36033 ,3.53557 
309 ,56.6848 ,1.16084 ,0.33638 ,3.30052 
310 ,56.8609 ,1.16263 ,0.32269 ,3.16620 
311 ,57.0372 ,1.16441 ,0.33295 ,3.26694 
312 ,57.2130 ,1.16613 ,0.32269 ,3.16620 
313 ,57.3890 ,1.16794 ,0.29531 ,2.89758 
314 ,57.5652 ,1.16963 ,0.27820 ,2.72969 
315 ,57.7735 ,1.17173 ,0.26109 ,2.56179 
316 ,57.9494 ,1.17352 ,0.26109 ,2.56179 
317 ,58.1734 ,1.17562 ,0.22687 ,2.22601 
318 ,58.3655 ,1.17763 ,0.21318 ,2.09170 
319 ,58.5417 ,1.17945 ,0.21318 ,2.09170 
320 ,58.7335 ,1.18133 ,0.20633 ,2.02454 
321 ,58.9255 ,1.18319 ,0.18922 ,1.85665 
322 ,59.1019 ,1.18501 ,0.16869 ,1.65518 
323 ,59.3099 ,1.18708 ,0.15842 ,1.55445 
324 ,59.4860 ,1.18883 ,0.13447 ,1.31940 
325 ,59.6624 ,1.19065 ,0.13105 ,1.28582 
326 ,59.8380 ,1.19240 ,0.12078 ,1.18508 
327 ,60.0140 ,1.19412 ,0.11393 ,1.11793 
328 ,60.1904 ,1.19591 ,0.08314 ,0.81572 
329 ,60.3664 ,1.19766 ,0.06945 ,0.68141 
330 ,60.5426 ,1.19941 ,0.07287 ,0.71499 
331 ,60.7663 ,1.20142 ,0.06260 ,0.61425 
332 ,60.9587 ,1.20350 ,0.06602 ,0.64783 
333 ,61.1507 ,1.20544 ,0.03180 ,0.31205 
334 ,61.3588 ,1.20756 ,0.03180 ,0.31205 
335 ,61.5508 ,1.20945 ,0.00785 ,0.07700 
336 ,61.7269 ,1.21129 ,-0.00926 ,-0.09089 
337 ,61.9029 ,1.21301 ,-0.02295 ,-0.22520 
338 ,62.0950 ,1.21486 ,-0.01953 ,-0.19163 
339 ,62.2873 ,1.21684 ,-0.04691 ,-0.46025 
340 ,62.4794 ,1.21879 ,-0.04348 ,-0.42667 
341 ,62.6874 ,1.22075 ,-0.06060 ,-0.59457 
342 ,62.8795 ,1.22282 ,-0.07428 ,-0.72888 
343 ,63.0876 ,1.22476 ,-0.08455 ,-0.82961 
344 ,63.2796 ,1.22680 ,-0.09140 ,-0.89677 
345 ,63.4717 ,1.22869 ,-0.11535 ,-1.13182 
346 ,63.6634 ,1.23059 ,-0.12904 ,-1.26613 
347 ,63.8400 ,1.23239 ,-0.13246 ,-1.29971 
348 ,64.0159 ,1.23411 ,-0.11877 ,-1.16540 
349 ,64.1920 ,1.23596 ,-0.16668 ,-1.63549 
350 ,64.3681 ,1.23767 ,-0.15299 ,-1.50118 
351 ,64.5763 ,1.23974 ,-0.17695 ,-1.73623 
352 ,64.7679 ,1.24169 ,-0.18379 ,-1.80338 
353 ,64.9442 ,1.24340 ,-0.20775 ,-2.03843 
354 ,65.1365 ,1.24529 ,-0.20433 ,-2.00485 
355 ,65.3121 ,1.24711 ,-0.21117 ,-2.07201 
356 ,65.4886 ,1.24888 ,-0.23170 ,-2.27348 
357 ,65.6806 ,1.25079 ,-0.23855 ,-2.34064 
358 ,65.8567 ,1.25257 ,-0.23855 ,-2.34064 
359 ,66.0487 ,1.25442 ,-0.24539 ,-2.40779 
360 ,66.2249 ,1.25619 ,-0.26935 ,-2.64284 
361 ,66.4326 ,1.25825 ,-0.26935 ,-2.64284 
362 ,66.6090 ,1.26007 ,-0.27277 ,-2.67642 
363 ,66.8010 ,1.26201 ,-0.29330 ,-2.87789 
364 ,66.9772 ,1.26374 ,-0.28988 ,-2.84431 
365 ,67.1531 ,1.26551 ,-0.30357 ,-2.97863 
366 ,67.3293 ,1.26726 ,-0.32410 ,-3.18010 
367 ,67.5211 ,1.26924 ,-0.34121 ,-3.34799 
368 ,67.6974 ,1.27099 ,-0.33779 ,-3.31441 
369 ,67.8735 ,1.27272 ,-0.34121 ,-3.34799 
370 ,68.0500 ,1.27449 ,-0.35490 ,-3.48230 
371 ,68.2417 ,1.27628 ,-0.37544 ,-3.68377 
372 ,68.4175 ,1.27819 ,-0.37886 ,-3.71735 
373 ,68.6098 ,1.28000 ,-0.38570 ,-3.78450 
374 ,68.8015 ,1.28199 ,-0.41650 ,-4.08671 
375 ,68.9779 ,1.28376 ,-0.41992 ,-4.12029 
376 ,69.1538 ,1.28548 ,-0.41308 ,-4.05313 
377 ,69.3300 ,1.28730 ,-0.42677 ,-4.18744 
378 ,69.5061 ,1.28903 ,-0.44388 ,-4.35534 
379 ,69.6823 ,1.29080 ,-0.45414 ,-4.45607 
380 ,69.8743 ,1.29266 ,-0.46441 ,-4.55681 
381 ,70.0663 ,1.29459 ,-0.47126 ,-4.62396 
382 ,70.2424 ,1.29639 ,-0.49863 ,-4.89259 
383 ,70.4345 ,1.29825 ,-0.49521 ,-4.85901 
384 ,70.6101 ,1.30005 ,-0.50548 ,-4.95975 
385 ,70.7865 ,1.30177 ,-0.51574 ,-5.06048 
386 ,70.9946 ,1.30386 ,-0.53970 ,-5.29553 
387 ,71.1868 ,1.30574 ,-0.52601 ,-5.16121 
388 ,71.3627 ,1.30757 ,-0.54997 ,-5.39626 
389 ,71.5549 ,1.30942 ,-0.56023 ,-5.49700 
390 ,71.7470 ,1.31144 ,-0.57050 ,-5.59773 
391 ,71.9228 ,1.31317 ,-0.59103 ,-5.79920 
392 ,72.1153 ,1.31507 ,-0.58419 ,-5.73205 
393 ,72.2911 ,1.31689 ,-0.58761 ,-5.76562 
394 ,72.4673 ,1.31864 ,-0.60814 ,-5.96709 
395 ,72.6432 ,1.32037 ,-0.62525 ,-6.13499 
396 ,72.8515 ,1.32240 ,-0.62183 ,-6.10141 
397 ,73.0431 ,1.32438 ,-0.64921 ,-6.37003 
398 ,73.2196 ,1.32613 ,-0.66632 ,-6.53793 
399 ,73.3957 ,1.32788 ,-0.65263 ,-6.40361 
400 ,73.5717 ,1.32967 ,-0.65605 ,-6.43719 
401 ,73.7477 ,1.33143 ,-0.66974 ,-6.57150 
402 ,73.9238 ,1.33318 ,-0.68685 ,-6.73940 
403 ,74.1160 ,1.33516 ,-0.70054 ,-6.87371 
404 ,74.3079 ,1.33696 ,-0.71423 ,-7.00802 
405 ,74.4842 ,1.33877 ,-0.72792 ,-7.14233 
406 ,74.6763 ,1.34066 ,-0.73134 ,-7.17591 
407 ,74.9003 ,1.34280 ,-0.74845 ,-7.34380 
408 ,75.0763 ,1.34473 ,-0.75530 ,-7.41096 
409 ,75.2524 ,1.34648 ,-0.74845 ,-7.34380 
410 ,75.4444 ,1.34836 ,-0.77925 ,-7.64601 
411 ,75.6207 ,1.35015 ,-0.79636 ,-7.81390 
412 ,75.7966 ,1.35188 ,-0.79978 ,-7.84748 
413 ,75.9727 ,1.35363 ,-0.79978 ,-7.84748 
414 ,76.1488 ,1.35541 ,-0.80663 ,-7.91464 
415 ,76.3249 ,1.35720 ,-0.82716 ,-8.11611 
416 ,76.5165 ,1.35913 ,-0.84085 ,-8.25042 
417 ,76.6930 ,1.36086 ,-0.83058 ,-8.14968 
418 ,76.9010 ,1.36289 ,-0.86138 ,-8.45189 
419 ,77.0772 ,1.36474 ,-0.87849 ,-8.61978 
420 ,77.3169 ,1.36685 ,-0.88192 ,-8.65336 
421 ,77.4933 ,1.36885 ,-0.87849 ,-8.61978 
422 ,77.7014 ,1.37088 ,-0.89560 ,-8.78767 
423 ,77.8776 ,1.37268 ,-0.90587 ,-8.88841 
424 ,78.0694 ,1.37458 ,-0.91956 ,-9.02272 
425 ,78.2457 ,1.37636 ,-0.91956 ,-9.02272 
426 ,78.4216 ,1.37812 ,-0.93667 ,-9.19061 
427 ,78.5979 ,1.37994 ,-0.95036 ,-9.32492 
428 ,78.7738 ,1.38170 ,-0.94009 ,-9.22419 
429 ,78.9500 ,1.38342 ,-0.95720 ,-9.39208 
430 ,79.1261 ,1.38520 ,-0.95378 ,-9.35850 
431 ,79.3180 ,1.38700 ,-0.98458 ,-9.66071 
432 ,79.5101 ,1.38905 ,-0.97774 ,-9.59355 
433 ,79.7023 ,1.39087 ,-1.00511 ,-9.86218 
434 ,79.8943 ,1.39283 ,-0.99827 ,-9.79502 
435 ,80.0865 ,1.39481 ,-1.00511 ,-9.86218 
436 ,80.2784 ,1.39667 ,-1.02565 ,-10.06365 
437 ,80.4706 ,1.39864 ,-1.00511 ,-9.86218 
438 ,80.6786 ,1.40068 ,-1.03591 ,-10.16438 
439 ,80.8544 ,1.40245 ,-1.04276 ,-10.23154 
440 ,81.0468 ,1.40430 ,-1.04276 ,-10.23154 
441 ,81.2223 ,1.40615 ,-1.04960 ,-10.29869 
442 ,81.3988 ,1.40796 ,-1.05645 ,-10.36585 
443 ,81.5910 ,1.40982 ,-1.04618 ,-10.26512 
444 ,81.7829 ,1.41175 ,-1.06329 ,-10.43301 
445 ,81.9592 ,1.41349 ,-1.08382 ,-10.63448 
446 ,82.1513 ,1.41546 ,-1.07356 ,-10.53374 
447 ,82.3272 ,1.41723 ,-1.08382 ,-10.63448 
448 ,82.5032 ,1.41892 ,-1.08725 ,-10.66806 
449 ,82.6793 ,1.42069 ,-1.11462 ,-10.93668 
450 ,82.8556 ,1.42247 ,-1.10778 ,-10.86953 
451 ,83.0316 ,1.42431 ,-1.11805 ,-10.97026 
452 ,83.2077 ,1.42600 ,-1.10778 ,-10.86953 
453 ,83.3836 ,1.42771 ,-1.13173 ,-11.10457 
454 ,83.5597 ,1.42950 ,-1.15569 ,-11.33962 
455 ,83.7361 ,1.43126 ,-1.16253 ,-11.40678 
456 ,83.9120 ,1.43300 ,-1.15227 ,-11.30604 
457 ,84.1039 ,1.43488 ,-1.16596 ,-11.44036 
458 ,84.2801 ,1.43671 ,-1.18649 ,-11.64183 
459 ,84.4721 ,1.43862 ,-1.18991 ,-11.67541 
460 ,84.6803 ,1.44063 ,-1.20360 ,-11.80972 
461 ,84.8564 ,1.44250 ,-1.20702 ,-11.84330 
