Data stamp = , 04-04-2022 16:15:05 145

Calibration Values: 
Slope = , 26.54 , g/V 
Offset Voltage at no contact = , -0.501760 , V 

No , Time , Stage Position ,   Mass , Force 
   ,  (s) ,      (mm)      ,   (g)  , (mN)  

1 ,0.0000 ,0.59946 ,5.17874 ,50.81381 
2 ,0.2118 ,0.59954 ,5.15821 ,50.61234 
3 ,0.4521 ,0.60013 ,5.15136 ,50.54519 
4 ,0.6780 ,0.60148 ,5.16505 ,50.67950 
5 ,0.8679 ,0.60296 ,5.15821 ,50.61234 
6 ,1.0601 ,0.60486 ,5.17532 ,50.78023 
7 ,1.2523 ,0.60672 ,5.17532 ,50.78023 
8 ,1.4443 ,0.60859 ,5.16848 ,50.71308 
9 ,1.6364 ,0.61054 ,5.16848 ,50.71308 
10 ,1.8282 ,0.61254 ,5.12741 ,50.31014 
11 ,2.0214 ,0.61443 ,5.14110 ,50.44445 
12 ,2.2123 ,0.61636 ,5.11372 ,50.17583 
13 ,2.4046 ,0.61827 ,5.11030 ,50.14225 
14 ,2.5969 ,0.62020 ,5.08977 ,49.94078 
15 ,2.7887 ,0.62206 ,5.05897 ,49.63857 
16 ,2.9646 ,0.62389 ,5.04528 ,49.50426 
17 ,3.1730 ,0.62582 ,5.03501 ,49.40352 
18 ,3.3809 ,0.62802 ,5.02817 ,49.33637 
19 ,3.5570 ,0.62977 ,5.00079 ,49.06774 
20 ,3.7331 ,0.63156 ,4.98368 ,48.89985 
21 ,3.9097 ,0.63331 ,4.97341 ,48.79911 
22 ,4.0855 ,0.63519 ,4.96999 ,48.76554 
23 ,4.2612 ,0.63682 ,4.94261 ,48.49691 
24 ,4.4532 ,0.63870 ,4.92208 ,48.29544 
25 ,4.6294 ,0.64054 ,4.88786 ,47.95966 
26 ,4.8053 ,0.64233 ,4.88444 ,47.92608 
27 ,4.9814 ,0.64404 ,4.87075 ,47.79177 
28 ,5.1579 ,0.64581 ,4.84679 ,47.55672 
29 ,5.3339 ,0.64753 ,4.82284 ,47.32167 
30 ,5.5101 ,0.64934 ,4.79546 ,47.05304 
31 ,5.7023 ,0.65121 ,4.79204 ,47.01946 
32 ,5.8944 ,0.65317 ,4.76124 ,46.71726 
33 ,6.1022 ,0.65517 ,4.75097 ,46.61653 
34 ,6.2782 ,0.65704 ,4.73044 ,46.41506 
35 ,6.4702 ,0.65893 ,4.70306 ,46.14643 
36 ,6.6626 ,0.66078 ,4.69279 ,46.04569 
37 ,6.8382 ,0.66260 ,4.68253 ,45.94496 
38 ,7.0146 ,0.66440 ,4.64146 ,45.54202 
39 ,7.2065 ,0.66625 ,4.61751 ,45.30697 
40 ,7.3988 ,0.66813 ,4.59697 ,45.10550 
41 ,7.5749 ,0.67002 ,4.59013 ,45.03835 
42 ,7.7510 ,0.67179 ,4.56960 ,44.83688 
43 ,7.9267 ,0.67351 ,4.53880 ,44.53467 
44 ,8.1191 ,0.67539 ,4.53537 ,44.50109 
45 ,8.2948 ,0.67718 ,4.51484 ,44.29962 
46 ,8.4712 ,0.67890 ,4.50457 ,44.19889 
47 ,8.6633 ,0.68074 ,4.49773 ,44.13173 
48 ,8.8394 ,0.68257 ,4.48062 ,43.96384 
49 ,9.0152 ,0.68435 ,4.46009 ,43.76237 
50 ,9.1915 ,0.68613 ,4.42586 ,43.42659 
51 ,9.3674 ,0.68794 ,4.41902 ,43.35943 
52 ,9.5434 ,0.68969 ,4.40875 ,43.25870 
53 ,9.7357 ,0.69149 ,4.37795 ,42.95649 
54 ,9.9114 ,0.69333 ,4.36084 ,42.78860 
55 ,10.1041 ,0.69520 ,4.36427 ,42.82218 
56 ,10.3118 ,0.69729 ,4.33004 ,42.48639 
57 ,10.4721 ,0.69903 ,4.33347 ,42.51997 
58 ,10.6481 ,0.70068 ,4.30267 ,42.21777 
59 ,10.8243 ,0.70245 ,4.30951 ,42.28492 
60 ,11.0002 ,0.70420 ,4.27871 ,41.98272 
61 ,11.1763 ,0.70594 ,4.25818 ,41.78125 
62 ,11.3525 ,0.70775 ,4.24449 ,41.64694 
63 ,11.5444 ,0.70960 ,4.23765 ,41.57978 
64 ,11.7365 ,0.71152 ,4.19658 ,41.17684 
65 ,11.9288 ,0.71344 ,4.19316 ,41.14326 
66 ,12.1044 ,0.71525 ,4.18974 ,41.10968 
67 ,12.2970 ,0.71713 ,4.14183 ,40.63959 
68 ,12.5049 ,0.71911 ,4.15894 ,40.80748 
69 ,12.6972 ,0.72118 ,4.11445 ,40.37096 
70 ,12.8891 ,0.72306 ,4.11445 ,40.37096 
71 ,13.0651 ,0.72481 ,4.09734 ,40.20307 
72 ,13.2573 ,0.72671 ,4.06654 ,39.90087 
73 ,13.4331 ,0.72854 ,4.03574 ,39.59866 
74 ,13.6250 ,0.73037 ,4.04943 ,39.73297 
75 ,13.8174 ,0.73223 ,4.01863 ,39.43077 
76 ,14.0095 ,0.73424 ,4.00836 ,39.33003 
77 ,14.2017 ,0.73611 ,3.99809 ,39.22930 
78 ,14.3938 ,0.73814 ,3.96387 ,38.89352 
79 ,14.5695 ,0.73986 ,3.96387 ,38.89352 
80 ,14.7778 ,0.74181 ,3.93307 ,38.59131 
81 ,15.0016 ,0.74394 ,3.92623 ,38.52415 
82 ,15.1939 ,0.74606 ,3.90570 ,38.32268 
83 ,15.3699 ,0.74789 ,3.88174 ,38.08764 
84 ,15.5460 ,0.74961 ,3.87490 ,38.02048 
85 ,15.7219 ,0.75140 ,3.85779 ,37.85259 
86 ,15.8983 ,0.75322 ,3.84067 ,37.68470 
87 ,16.0740 ,0.75494 ,3.80645 ,37.34891 
88 ,16.2990 ,0.75708 ,3.78934 ,37.18102 
89 ,16.4742 ,0.75892 ,3.76881 ,36.97955 
90 ,16.6502 ,0.76064 ,3.76881 ,36.97955 
91 ,16.8262 ,0.76251 ,3.75170 ,36.81166 
92 ,17.0184 ,0.76428 ,3.73801 ,36.67735 
93 ,17.2104 ,0.76621 ,3.70721 ,36.37514 
94 ,17.4026 ,0.76815 ,3.70721 ,36.37514 
95 ,17.5786 ,0.76992 ,3.67299 ,36.03936 
96 ,17.7549 ,0.77175 ,3.66272 ,35.93863 
97 ,17.9467 ,0.77361 ,3.65588 ,35.87147 
98 ,18.1228 ,0.77541 ,3.62508 ,35.56926 
99 ,18.3151 ,0.77730 ,3.61481 ,35.46853 
100 ,18.5232 ,0.77934 ,3.57375 ,35.06559 
101 ,18.7152 ,0.78132 ,3.57032 ,35.03201 
102 ,18.8915 ,0.78319 ,3.56006 ,34.93128 
103 ,19.0674 ,0.78486 ,3.54295 ,34.76338 
104 ,19.2595 ,0.78679 ,3.51557 ,34.49476 
105 ,19.4514 ,0.78868 ,3.50872 ,34.42760 
106 ,19.6275 ,0.79046 ,3.49846 ,34.32687 
107 ,19.8037 ,0.79217 ,3.48135 ,34.15898 
108 ,19.9795 ,0.79396 ,3.44028 ,33.75604 
109 ,20.1876 ,0.79597 ,3.44713 ,33.82319 
110 ,20.3637 ,0.79781 ,3.41290 ,33.48741 
111 ,20.5397 ,0.79962 ,3.38895 ,33.25236 
112 ,20.7159 ,0.80131 ,3.38210 ,33.18520 
113 ,20.8920 ,0.80311 ,3.35473 ,32.91658 
114 ,21.0519 ,0.80480 ,3.36157 ,32.98374 
115 ,21.2441 ,0.80652 ,3.34446 ,32.81584 
116 ,21.4201 ,0.80835 ,3.31708 ,32.54722 
117 ,21.5961 ,0.81014 ,3.29313 ,32.31217 
118 ,21.7721 ,0.81189 ,3.28628 ,32.24501 
119 ,21.9483 ,0.81368 ,3.25206 ,31.90923 
120 ,22.1083 ,0.81539 ,3.24864 ,31.87565 
121 ,22.2845 ,0.81697 ,3.22811 ,31.67418 
122 ,22.4764 ,0.81885 ,3.22126 ,31.60702 
123 ,22.7028 ,0.82103 ,3.21442 ,31.53987 
124 ,22.9412 ,0.82329 ,3.17677 ,31.17051 
125 ,23.1328 ,0.82556 ,3.14597 ,30.86830 
126 ,23.3571 ,0.82773 ,3.11175 ,30.53252 
127 ,23.5652 ,0.82973 ,3.10149 ,30.43178 
128 ,23.7733 ,0.83180 ,3.10149 ,30.43178 
129 ,23.9972 ,0.83398 ,3.05358 ,29.96169 
130 ,24.1736 ,0.83589 ,3.04673 ,29.89453 
131 ,24.3655 ,0.83777 ,3.01935 ,29.62590 
132 ,24.5417 ,0.83957 ,2.98513 ,29.29012 
133 ,24.7178 ,0.84133 ,2.97487 ,29.18939 
134 ,24.9099 ,0.84324 ,2.97487 ,29.18939 
135 ,25.0858 ,0.84497 ,2.94749 ,28.92076 
136 ,25.2941 ,0.84700 ,2.94749 ,28.92076 
137 ,25.4860 ,0.84894 ,2.89958 ,28.45066 
138 ,25.6622 ,0.85076 ,2.89273 ,28.38351 
139 ,25.8381 ,0.85257 ,2.87220 ,28.18204 
140 ,26.0304 ,0.85445 ,2.87220 ,28.18204 
141 ,26.2224 ,0.85636 ,2.84140 ,27.87983 
142 ,26.3988 ,0.85815 ,2.82087 ,27.67836 
143 ,26.5905 ,0.86003 ,2.81402 ,27.61121 
144 ,26.7666 ,0.86182 ,2.81060 ,27.57763 
145 ,26.9427 ,0.86357 ,2.77980 ,27.27542 
146 ,27.1347 ,0.86547 ,2.76611 ,27.14111 
147 ,27.3110 ,0.86723 ,2.74216 ,26.90606 
148 ,27.4869 ,0.86905 ,2.72505 ,26.73817 
149 ,27.6951 ,0.87098 ,2.70452 ,26.53670 
150 ,27.8868 ,0.87297 ,2.69083 ,26.40239 
151 ,28.0630 ,0.87474 ,2.66345 ,26.13376 
152 ,28.2393 ,0.87659 ,2.67372 ,26.23450 
153 ,28.4153 ,0.87825 ,2.64634 ,25.96587 
154 ,28.6071 ,0.88023 ,2.62581 ,25.76440 
155 ,28.7833 ,0.88200 ,2.60185 ,25.52935 
156 ,28.9755 ,0.88389 ,2.59843 ,25.49577 
157 ,29.1516 ,0.88561 ,2.58474 ,25.36146 
158 ,29.3113 ,0.88735 ,2.54710 ,24.99210 
159 ,29.5039 ,0.88915 ,2.54710 ,24.99210 
160 ,29.6955 ,0.89109 ,2.51972 ,24.72347 
161 ,29.8719 ,0.89286 ,2.52656 ,24.79063 
162 ,30.0316 ,0.89456 ,2.49234 ,24.45485 
163 ,30.2081 ,0.89615 ,2.47523 ,24.28696 
164 ,30.4158 ,0.89823 ,2.46154 ,24.15264 
165 ,30.5923 ,0.90008 ,2.45470 ,24.08549 
166 ,30.7842 ,0.90199 ,2.41021 ,23.64897 
167 ,30.9604 ,0.90373 ,2.40336 ,23.58181 
168 ,31.1522 ,0.90551 ,2.40679 ,23.61539 
169 ,31.3604 ,0.90758 ,2.36230 ,23.17887 
170 ,31.5525 ,0.90962 ,2.35545 ,23.11171 
171 ,31.7288 ,0.91140 ,2.33492 ,22.91024 
172 ,31.9205 ,0.91330 ,2.30754 ,22.64162 
173 ,32.0970 ,0.91508 ,2.31781 ,22.74235 
174 ,32.2729 ,0.91686 ,2.31097 ,22.67520 
175 ,32.4649 ,0.91871 ,2.26990 ,22.27226 
176 ,32.6411 ,0.92048 ,2.25963 ,22.17152 
177 ,32.8331 ,0.92244 ,2.25963 ,22.17152 
178 ,33.0090 ,0.92418 ,2.24937 ,22.07079 
179 ,33.1852 ,0.92591 ,2.21172 ,21.70143 
180 ,33.3613 ,0.92773 ,2.20830 ,21.66785 
181 ,33.5535 ,0.92963 ,2.18435 ,21.43280 
182 ,33.7295 ,0.93144 ,2.17066 ,21.29849 
183 ,33.9214 ,0.93332 ,2.16039 ,21.19775 
184 ,34.1136 ,0.93518 ,2.14670 ,21.06344 
185 ,34.3057 ,0.93718 ,2.11590 ,20.76123 
186 ,34.4818 ,0.93891 ,2.11590 ,20.76123 
187 ,34.6578 ,0.94068 ,2.11248 ,20.72766 
188 ,34.8498 ,0.94266 ,2.06115 ,20.22398 
189 ,35.0256 ,0.94435 ,2.05773 ,20.19040 
190 ,35.2020 ,0.94611 ,2.03035 ,19.92178 
191 ,35.3779 ,0.94785 ,2.03719 ,19.98893 
192 ,35.5859 ,0.94987 ,2.02693 ,19.88820 
193 ,35.7619 ,0.95171 ,2.00639 ,19.68673 
194 ,35.9380 ,0.95347 ,1.98928 ,19.51884 
195 ,36.1139 ,0.95527 ,1.99955 ,19.61957 
196 ,36.2902 ,0.95702 ,1.95164 ,19.14948 
197 ,36.4661 ,0.95871 ,1.93453 ,18.98158 
198 ,36.6423 ,0.96050 ,1.91742 ,18.81369 
199 ,36.8342 ,0.96238 ,1.92084 ,18.84727 
200 ,37.0103 ,0.96420 ,1.89346 ,18.57864 
201 ,37.2136 ,0.96608 ,1.88319 ,18.47791 
202 ,37.3945 ,0.96806 ,1.88319 ,18.47791 
203 ,37.5869 ,0.96993 ,1.85582 ,18.20928 
204 ,37.7949 ,0.97193 ,1.83186 ,17.97423 
205 ,37.9871 ,0.97394 ,1.81133 ,17.77276 
206 ,38.1633 ,0.97567 ,1.79422 ,17.60487 
207 ,38.3393 ,0.97750 ,1.78053 ,17.47056 
208 ,38.5311 ,0.97933 ,1.78053 ,17.47056 
209 ,38.7071 ,0.98114 ,1.74973 ,17.16836 
210 ,38.8991 ,0.98306 ,1.74631 ,17.13478 
211 ,39.0754 ,0.98486 ,1.72920 ,16.96689 
212 ,39.2513 ,0.98661 ,1.72235 ,16.89973 
213 ,39.4433 ,0.98846 ,1.69840 ,16.66468 
214 ,39.6357 ,0.99037 ,1.69498 ,16.63110 
215 ,39.8274 ,0.99235 ,1.65049 ,16.19458 
216 ,40.0195 ,0.99421 ,1.65733 ,16.26174 
217 ,40.2118 ,0.99615 ,1.64022 ,16.09385 
218 ,40.4037 ,0.99811 ,1.62311 ,15.92596 
219 ,40.5960 ,0.99994 ,1.62653 ,15.95954 
220 ,40.7879 ,1.00191 ,1.58204 ,15.52302 
221 ,40.9639 ,1.00375 ,1.56836 ,15.38871 
222 ,41.1562 ,1.00557 ,1.56493 ,15.35513 
223 ,41.3482 ,1.00758 ,1.53756 ,15.08650 
224 ,41.5242 ,1.00928 ,1.53413 ,15.05292 
225 ,41.7165 ,1.01122 ,1.53071 ,15.01934 
226 ,41.9086 ,1.01318 ,1.49307 ,14.64998 
227 ,42.1164 ,1.01516 ,1.49307 ,14.64998 
228 ,42.2929 ,1.01701 ,1.46911 ,14.41493 
229 ,42.4847 ,1.01893 ,1.44858 ,14.21346 
230 ,42.6766 ,1.02081 ,1.45200 ,14.24704 
231 ,42.8686 ,1.02272 ,1.43831 ,14.11273 
232 ,43.0447 ,1.02452 ,1.40751 ,13.81053 
233 ,43.2209 ,1.02631 ,1.40067 ,13.74337 
234 ,43.4294 ,1.02838 ,1.35960 ,13.34043 
235 ,43.6211 ,1.03024 ,1.35960 ,13.34043 
236 ,43.7976 ,1.03208 ,1.35960 ,13.34043 
237 ,44.0052 ,1.03402 ,1.33223 ,13.07180 
238 ,44.1811 ,1.03589 ,1.31169 ,12.87033 
239 ,44.3574 ,1.03759 ,1.30485 ,12.80318 
240 ,44.5333 ,1.03943 ,1.30485 ,12.80318 
241 ,44.7255 ,1.04123 ,1.26720 ,12.43381 
242 ,44.9015 ,1.04309 ,1.25352 ,12.29950 
243 ,45.1228 ,1.04504 ,1.25352 ,12.29950 
244 ,45.3175 ,1.04724 ,1.22614 ,12.03088 
245 ,45.5102 ,1.04906 ,1.21245 ,11.89656 
246 ,45.7179 ,1.05122 ,1.19876 ,11.76225 
247 ,45.9102 ,1.05313 ,1.17138 ,11.49362 
248 ,46.1184 ,1.05521 ,1.16796 ,11.46004 
249 ,46.3104 ,1.05715 ,1.14401 ,11.22500 
250 ,46.5186 ,1.05922 ,1.14401 ,11.22500 
251 ,46.7108 ,1.06112 ,1.10636 ,10.85563 
252 ,46.8867 ,1.06298 ,1.11663 ,10.95637 
253 ,47.0628 ,1.06473 ,1.08583 ,10.65416 
254 ,47.2545 ,1.06655 ,1.09267 ,10.72132 
255 ,47.4308 ,1.06840 ,1.07214 ,10.51985 
256 ,47.6388 ,1.07036 ,1.03108 ,10.11691 
257 ,47.8310 ,1.07232 ,1.02423 ,10.04976 
258 ,48.0230 ,1.07432 ,1.01396 ,9.94902 
259 ,48.1993 ,1.07614 ,1.00712 ,9.88186 
260 ,48.3752 ,1.07780 ,0.99343 ,9.74755 
261 ,48.5675 ,1.07966 ,0.95921 ,9.41177 
262 ,48.7593 ,1.08152 ,0.94210 ,9.24388 
263 ,48.9512 ,1.08355 ,0.93525 ,9.17672 
264 ,49.1278 ,1.08537 ,0.91814 ,9.00883 
265 ,49.3198 ,1.08726 ,0.92157 ,9.04241 
266 ,49.4957 ,1.08903 ,0.91130 ,8.94167 
267 ,49.6879 ,1.09095 ,0.88392 ,8.67305 
268 ,49.8799 ,1.09285 ,0.87023 ,8.53873 
269 ,50.0560 ,1.09465 ,0.86339 ,8.47158 
270 ,50.2318 ,1.09634 ,0.84286 ,8.27011 
271 ,50.4400 ,1.09828 ,0.83259 ,8.16937 
272 ,50.6163 ,1.10024 ,0.82575 ,8.10221 
273 ,50.8239 ,1.10223 ,0.80521 ,7.90074 
274 ,51.0002 ,1.10401 ,0.78468 ,7.69927 
275 ,51.1601 ,1.10575 ,0.79152 ,7.76643 
276 ,51.3365 ,1.10742 ,0.75730 ,7.43065 
277 ,51.5287 ,1.10933 ,0.74019 ,7.26276 
278 ,51.7207 ,1.11121 ,0.72308 ,7.09486 
279 ,51.9127 ,1.11305 ,0.72992 ,7.16202 
280 ,52.0889 ,1.11494 ,0.70255 ,6.89340 
281 ,52.2809 ,1.11690 ,0.69570 ,6.82624 
282 ,52.4729 ,1.11875 ,0.67859 ,6.65835 
283 ,52.6651 ,1.12069 ,0.65121 ,6.38972 
284 ,52.8731 ,1.12270 ,0.65464 ,6.42330 
285 ,53.0649 ,1.12462 ,0.62384 ,6.12109 
286 ,53.2409 ,1.12650 ,0.63068 ,6.18825 
287 ,53.4330 ,1.12829 ,0.60673 ,5.95320 
288 ,53.6250 ,1.13028 ,0.59304 ,5.81889 
289 ,53.8012 ,1.13210 ,0.59646 ,5.85247 
290 ,53.9939 ,1.13389 ,0.57593 ,5.65100 
291 ,54.1697 ,1.13570 ,0.54513 ,5.34879 
292 ,54.3457 ,1.13743 ,0.52802 ,5.18090 
293 ,54.5379 ,1.13937 ,0.53144 ,5.21448 
294 ,54.7295 ,1.14132 ,0.51091 ,5.01301 
295 ,54.9058 ,1.14306 ,0.49037 ,4.81154 
296 ,55.0819 ,1.14482 ,0.46642 ,4.57649 
297 ,55.2579 ,1.14662 ,0.47326 ,4.64365 
298 ,55.4339 ,1.14835 ,0.47668 ,4.67723 
299 ,55.6264 ,1.15026 ,0.45273 ,4.44218 
300 ,55.8183 ,1.15220 ,0.44246 ,4.34144 
301 ,55.9942 ,1.15396 ,0.38429 ,3.77061 
302 ,56.1702 ,1.15574 ,0.41509 ,4.07282 
303 ,56.3624 ,1.15759 ,0.38771 ,3.80419 
304 ,56.5547 ,1.15949 ,0.39797 ,3.90493 
305 ,56.7467 ,1.16145 ,0.36375 ,3.56914 
306 ,56.9227 ,1.16326 ,0.35349 ,3.46841 
307 ,57.1148 ,1.16514 ,0.35349 ,3.46841 
308 ,57.3078 ,1.16705 ,0.32611 ,3.19978 
309 ,57.4826 ,1.16896 ,0.31242 ,3.06547 
310 ,57.6750 ,1.17068 ,0.29531 ,2.89758 
311 ,57.8672 ,1.17269 ,0.29189 ,2.86400 
312 ,58.0431 ,1.17441 ,0.27135 ,2.66253 
313 ,58.2191 ,1.17617 ,0.27478 ,2.69611 
314 ,58.4116 ,1.17813 ,0.26109 ,2.56179 
315 ,58.6031 ,1.18008 ,0.24740 ,2.42748 
316 ,58.8277 ,1.18214 ,0.22002 ,2.15885 
317 ,59.0195 ,1.18425 ,0.22002 ,2.15885 
318 ,59.2118 ,1.18607 ,0.19607 ,1.92381 
319 ,59.3878 ,1.18791 ,0.18580 ,1.82307 
320 ,59.5798 ,1.18977 ,0.17553 ,1.72234 
321 ,59.7721 ,1.19171 ,0.16527 ,1.62160 
322 ,59.9962 ,1.19384 ,0.15158 ,1.48729 
323 ,60.1558 ,1.19568 ,0.13789 ,1.35298 
324 ,60.3323 ,1.19735 ,0.13105 ,1.28582 
325 ,60.5243 ,1.19926 ,0.10367 ,1.01719 
326 ,60.7002 ,1.20098 ,0.10709 ,1.05077 
327 ,60.8764 ,1.20278 ,0.09340 ,0.91646 
328 ,61.0683 ,1.20467 ,0.06945 ,0.68141 
329 ,61.2444 ,1.20645 ,0.05234 ,0.51352 
330 ,61.4205 ,1.20817 ,0.04891 ,0.47994 
331 ,61.6288 ,1.21018 ,0.04549 ,0.44636 
332 ,61.8369 ,1.21237 ,0.02838 ,0.27847 
333 ,62.0289 ,1.21429 ,0.00785 ,0.07700 
334 ,62.2212 ,1.21617 ,0.00100 ,0.00984 
335 ,62.4131 ,1.21815 ,-0.00926 ,-0.09089 
336 ,62.6054 ,1.22006 ,-0.04006 ,-0.39310 
337 ,62.7971 ,1.22199 ,-0.02980 ,-0.29236 
338 ,62.9894 ,1.22384 ,-0.03664 ,-0.35952 
339 ,63.1651 ,1.22569 ,-0.04006 ,-0.39310 
340 ,63.3416 ,1.22744 ,-0.06402 ,-0.62814 
341 ,63.5496 ,1.22945 ,-0.06402 ,-0.62814 
342 ,63.7418 ,1.23140 ,-0.06402 ,-0.62814 
343 ,63.9178 ,1.23315 ,-0.07771 ,-0.76246 
344 ,64.0936 ,1.23491 ,-0.07771 ,-0.76246 
345 ,64.2860 ,1.23685 ,-0.10508 ,-1.03108 
346 ,64.4616 ,1.23862 ,-0.12219 ,-1.19898 
347 ,64.6541 ,1.24044 ,-0.11535 ,-1.13182 
348 ,64.8621 ,1.24249 ,-0.14273 ,-1.40045 
349 ,65.0703 ,1.24459 ,-0.15299 ,-1.50118 
350 ,65.2463 ,1.24647 ,-0.14957 ,-1.46760 
351 ,65.4220 ,1.24821 ,-0.18037 ,-1.76981 
352 ,65.6145 ,1.25012 ,-0.19064 ,-1.87054 
353 ,65.8066 ,1.25207 ,-0.20090 ,-1.97128 
354 ,65.9982 ,1.25396 ,-0.20775 ,-2.03843 
355 ,66.1906 ,1.25579 ,-0.21459 ,-2.10559 
356 ,66.3668 ,1.25767 ,-0.21459 ,-2.10559 
357 ,66.5428 ,1.25946 ,-0.23170 ,-2.27348 
358 ,66.7350 ,1.26138 ,-0.23855 ,-2.34064 
359 ,66.9430 ,1.26331 ,-0.25566 ,-2.50853 
360 ,67.1348 ,1.26529 ,-0.24881 ,-2.44137 
361 ,67.3600 ,1.26734 ,-0.29330 ,-2.87789 
362 ,67.5672 ,1.26960 ,-0.29330 ,-2.87789 
363 ,67.7591 ,1.27159 ,-0.28646 ,-2.81073 
364 ,67.9514 ,1.27344 ,-0.30015 ,-2.94505 
365 ,68.1272 ,1.27527 ,-0.32068 ,-3.14652 
366 ,68.3034 ,1.27701 ,-0.33095 ,-3.24725 
367 ,68.4953 ,1.27890 ,-0.33779 ,-3.31441 
368 ,68.6872 ,1.28077 ,-0.37201 ,-3.65019 
369 ,68.8634 ,1.28259 ,-0.37201 ,-3.65019 
370 ,69.0557 ,1.28446 ,-0.35832 ,-3.51588 
371 ,69.2475 ,1.28642 ,-0.39597 ,-3.88524 
372 ,69.4237 ,1.28822 ,-0.38912 ,-3.81808 
373 ,69.6157 ,1.29008 ,-0.39597 ,-3.88524 
374 ,69.8080 ,1.29207 ,-0.42677 ,-4.18744 
375 ,70.0001 ,1.29390 ,-0.42677 ,-4.18744 
376 ,70.1924 ,1.29591 ,-0.43361 ,-4.25460 
377 ,70.3842 ,1.29776 ,-0.45414 ,-4.45607 
378 ,70.5765 ,1.29975 ,-0.45757 ,-4.48965 
379 ,70.7524 ,1.30148 ,-0.47126 ,-4.62396 
380 ,70.9447 ,1.30340 ,-0.49179 ,-4.82543 
381 ,71.1527 ,1.30540 ,-0.49179 ,-4.82543 
382 ,71.3444 ,1.30737 ,-0.50890 ,-4.99332 
383 ,71.5209 ,1.30919 ,-0.51917 ,-5.09406 
384 ,71.7130 ,1.31110 ,-0.52943 ,-5.19479 
385 ,71.9050 ,1.31292 ,-0.54312 ,-5.32911 
386 ,72.0970 ,1.31493 ,-0.53970 ,-5.29553 
387 ,72.2728 ,1.31668 ,-0.54997 ,-5.39626 
388 ,72.4967 ,1.31867 ,-0.56023 ,-5.49700 
389 ,72.6888 ,1.32075 ,-0.57734 ,-5.66489 
390 ,72.8809 ,1.32272 ,-0.57734 ,-5.66489 
391 ,73.0571 ,1.32454 ,-0.59445 ,-5.83278 
392 ,73.2494 ,1.32646 ,-0.61156 ,-6.00067 
393 ,73.4253 ,1.32821 ,-0.61841 ,-6.06783 
394 ,73.6177 ,1.33009 ,-0.61156 ,-6.00067 
395 ,73.8097 ,1.33203 ,-0.64579 ,-6.33646 
396 ,74.0017 ,1.33398 ,-0.64579 ,-6.33646 
397 ,74.1779 ,1.33573 ,-0.64921 ,-6.37003 
398 ,74.3698 ,1.33758 ,-0.68685 ,-6.73940 
399 ,74.5457 ,1.33941 ,-0.67316 ,-6.60508 
400 ,74.7221 ,1.34117 ,-0.68343 ,-6.70582 
401 ,74.9137 ,1.34306 ,-0.67316 ,-6.60508 
402 ,75.1060 ,1.34497 ,-0.71081 ,-6.97444 
403 ,75.2821 ,1.34678 ,-0.69370 ,-6.80655 
404 ,75.5380 ,1.34914 ,-0.70739 ,-6.94086 
405 ,75.7623 ,1.35149 ,-0.71423 ,-7.00802 
406 ,76.0345 ,1.35410 ,-0.74845 ,-7.34380 
407 ,76.2263 ,1.35620 ,-0.75187 ,-7.37738 
408 ,76.4188 ,1.35803 ,-0.75530 ,-7.41096 
409 ,76.6108 ,1.36006 ,-0.76214 ,-7.47812 
410 ,76.8026 ,1.36195 ,-0.76556 ,-7.51170 
411 ,76.9946 ,1.36388 ,-0.77241 ,-7.57885 
412 ,77.1711 ,1.36561 ,-0.79294 ,-7.78032 
413 ,77.3471 ,1.36739 ,-0.80321 ,-7.88106 
414 ,77.5390 ,1.36932 ,-0.80321 ,-7.88106 
415 ,77.7154 ,1.37111 ,-0.80321 ,-7.88106 
416 ,77.9076 ,1.37303 ,-0.83401 ,-8.18326 
417 ,78.1153 ,1.37503 ,-0.84085 ,-8.25042 
418 ,78.2913 ,1.37682 ,-0.84769 ,-8.31758 
419 ,78.4836 ,1.37873 ,-0.85112 ,-8.35115 
420 ,78.6597 ,1.38052 ,-0.84427 ,-8.28400 
421 ,78.8834 ,1.38261 ,-0.87165 ,-8.55262 
422 ,79.0916 ,1.38478 ,-0.89560 ,-8.78767 
423 ,79.2998 ,1.38681 ,-0.89903 ,-8.82125 
424 ,79.5080 ,1.38898 ,-0.90587 ,-8.88841 
425 ,79.7320 ,1.39114 ,-0.91956 ,-9.02272 
426 ,79.9238 ,1.39316 ,-0.92983 ,-9.12345 
427 ,80.1002 ,1.39494 ,-0.93325 ,-9.15703 
428 ,80.2760 ,1.39663 ,-0.93667 ,-9.19061 
429 ,80.4524 ,1.39842 ,-0.95036 ,-9.32492 
430 ,80.6286 ,1.40017 ,-0.97774 ,-9.59355 
431 ,80.8048 ,1.40198 ,-0.98800 ,-9.69429 
432 ,80.9963 ,1.40392 ,-0.96063 ,-9.42566 
433 ,81.1884 ,1.40571 ,-0.97431 ,-9.55997 
434 ,81.3808 ,1.40774 ,-0.98458 ,-9.66071 
435 ,81.5727 ,1.40965 ,-0.99143 ,-9.72786 
436 ,81.7650 ,1.41161 ,-1.02222 ,-10.03007 
437 ,81.9411 ,1.41346 ,-1.00854 ,-9.89576 
438 ,82.1172 ,1.41514 ,-1.02907 ,-10.09723 
439 ,82.3091 ,1.41689 ,-1.02907 ,-10.09723 
440 ,82.5014 ,1.41892 ,-1.04276 ,-10.23154 
441 ,82.7095 ,1.42081 ,-1.06329 ,-10.43301 
442 ,82.8853 ,1.42278 ,-1.06329 ,-10.43301 
443 ,83.0616 ,1.42453 ,-1.07014 ,-10.50016 
444 ,83.2216 ,1.42622 ,-1.06329 ,-10.43301 
445 ,83.3979 ,1.42792 ,-1.08040 ,-10.60090 
446 ,83.5737 ,1.42964 ,-1.09751 ,-10.76879 
447 ,83.7499 ,1.43142 ,-1.11120 ,-10.90310 
448 ,83.9579 ,1.43348 ,-1.09751 ,-10.76879 
449 ,84.1499 ,1.43539 ,-1.12489 ,-11.03742 
450 ,84.3581 ,1.43733 ,-1.13858 ,-11.17173 
451 ,84.5501 ,1.43938 ,-1.15227 ,-11.30604 
452 ,84.7262 ,1.44116 ,-1.15911 ,-11.37320 
453 ,84.9025 ,1.44294 ,-1.15569 ,-11.33962 
454 ,85.0942 ,1.44482 ,-1.17622 ,-11.54109 
455 ,85.2861 ,1.44673 ,-1.17964 ,-11.57467 
456 ,85.4625 ,1.44850 ,-1.18307 ,-11.60825 
457 ,85.6382 ,1.45037 ,-1.16253 ,-11.40678 
458 ,85.8143 ,1.45203 ,-1.17964 ,-11.57467 
459 ,85.9904 ,1.45378 ,-1.21044 ,-11.87688 
460 ,86.1503 ,1.45550 ,-1.21044 ,-11.87688 
461 ,86.3425 ,1.45724 ,-1.22755 ,-12.04477 
