Data stamp = , 04-04-2022 23:20:49 373

Calibration Values: 
Slope = , 26.54 , g/V 
Offset Voltage at no contact = , -0.501760 , V 

No , Time , Stage Position ,   Mass , Force 
   ,  (s) ,      (mm)      ,   (g)  , (mN)  

1 ,0.0000 ,0.59943 ,5.00079 ,49.06774 
2 ,0.2303 ,0.59954 ,5.01106 ,49.16848 
3 ,0.5508 ,0.60041 ,4.98710 ,48.93343 
4 ,0.7589 ,0.60200 ,4.99737 ,49.03416 
5 ,0.9667 ,0.60381 ,4.99394 ,49.00058 
6 ,1.1430 ,0.60560 ,5.00079 ,49.06774 
7 ,1.3188 ,0.60729 ,5.00079 ,49.06774 
8 ,1.4949 ,0.60914 ,5.00079 ,49.06774 
9 ,1.6711 ,0.61091 ,4.99052 ,48.96701 
10 ,1.8632 ,0.61284 ,4.98368 ,48.89985 
11 ,2.0713 ,0.61477 ,4.98368 ,48.89985 
12 ,2.2635 ,0.61678 ,4.95288 ,48.59764 
13 ,2.4556 ,0.61876 ,4.94603 ,48.53049 
14 ,2.6312 ,0.62050 ,4.95288 ,48.59764 
15 ,2.7912 ,0.62222 ,4.93235 ,48.39618 
16 ,2.9677 ,0.62385 ,4.92892 ,48.36260 
17 ,3.1598 ,0.62583 ,4.90497 ,48.12755 
18 ,3.3355 ,0.62758 ,4.89128 ,47.99324 
19 ,3.5119 ,0.62929 ,4.88786 ,47.95966 
20 ,3.6719 ,0.63102 ,4.87759 ,47.85892 
21 ,3.8317 ,0.63262 ,4.85021 ,47.59030 
22 ,4.0082 ,0.63431 ,4.84679 ,47.55672 
23 ,4.2161 ,0.63630 ,4.83652 ,47.45598 
24 ,4.3923 ,0.63809 ,4.81941 ,47.28809 
25 ,4.5844 ,0.64000 ,4.78861 ,46.98589 
26 ,4.7606 ,0.64181 ,4.76466 ,46.75084 
27 ,4.9362 ,0.64350 ,4.75097 ,46.61653 
28 ,5.1126 ,0.64526 ,4.75097 ,46.61653 
29 ,5.3047 ,0.64715 ,4.71675 ,46.28074 
30 ,5.4967 ,0.64908 ,4.70306 ,46.14643 
31 ,5.6728 ,0.65097 ,4.66884 ,45.81065 
32 ,5.8491 ,0.65269 ,4.66542 ,45.77707 
33 ,6.0249 ,0.65443 ,4.63462 ,45.47486 
34 ,6.2012 ,0.65621 ,4.60724 ,45.20624 
35 ,6.3771 ,0.65798 ,4.60382 ,45.17266 
36 ,6.5693 ,0.65981 ,4.58671 ,45.00477 
37 ,6.7614 ,0.66176 ,4.55249 ,44.66898 
38 ,6.9374 ,0.66360 ,4.53195 ,44.46751 
39 ,7.1454 ,0.66558 ,4.52853 ,44.43394 
40 ,7.3213 ,0.66740 ,4.48404 ,43.99742 
41 ,7.4973 ,0.66915 ,4.47720 ,43.93026 
42 ,7.6896 ,0.67100 ,4.48404 ,43.99742 
43 ,7.8656 ,0.67281 ,4.44982 ,43.66163 
44 ,8.0414 ,0.67460 ,4.42586 ,43.42659 
45 ,8.2177 ,0.67641 ,4.40533 ,43.22512 
46 ,8.3939 ,0.67811 ,4.38138 ,42.99007 
47 ,8.5700 ,0.67991 ,4.38138 ,42.99007 
48 ,8.7621 ,0.68177 ,4.35400 ,42.72144 
49 ,8.9861 ,0.68387 ,4.33004 ,42.48639 
50 ,9.1622 ,0.68574 ,4.31293 ,42.31850 
51 ,9.3381 ,0.68751 ,4.30267 ,42.21777 
52 ,9.5145 ,0.68926 ,4.28898 ,42.08345 
53 ,9.7064 ,0.69119 ,4.27871 ,41.98272 
54 ,9.8824 ,0.69299 ,4.25476 ,41.74767 
55 ,10.0586 ,0.69471 ,4.23422 ,41.54620 
56 ,10.2346 ,0.69646 ,4.22053 ,41.41189 
57 ,10.4108 ,0.69827 ,4.21369 ,41.34473 
58 ,10.5865 ,0.70012 ,4.18974 ,41.10968 
59 ,10.7625 ,0.70177 ,4.18974 ,41.10968 
60 ,10.9226 ,0.70350 ,4.14867 ,40.70674 
61 ,11.0991 ,0.70512 ,4.14183 ,40.63959 
62 ,11.2751 ,0.70693 ,4.11787 ,40.40454 
63 ,11.4511 ,0.70866 ,4.11103 ,40.33738 
64 ,11.6270 ,0.71043 ,4.11103 ,40.33738 
65 ,11.8034 ,0.71223 ,4.10076 ,40.23665 
66 ,11.9950 ,0.71407 ,4.06312 ,39.86729 
67 ,12.1716 ,0.71589 ,4.05627 ,39.80013 
68 ,12.3636 ,0.71780 ,4.03574 ,39.59866 
69 ,12.5558 ,0.71973 ,3.99809 ,39.22930 
70 ,12.7318 ,0.72146 ,3.99467 ,39.19572 
71 ,12.9238 ,0.72330 ,3.97414 ,38.99425 
72 ,13.0996 ,0.72510 ,3.95361 ,38.79278 
73 ,13.2918 ,0.72706 ,3.95018 ,38.75920 
74 ,13.4677 ,0.72887 ,3.94334 ,38.69205 
75 ,13.6443 ,0.73059 ,3.91596 ,38.42342 
76 ,13.8362 ,0.73241 ,3.89885 ,38.25553 
77 ,14.0284 ,0.73438 ,3.89201 ,38.18837 
78 ,14.2044 ,0.73620 ,3.87147 ,37.98690 
79 ,14.4285 ,0.73830 ,3.83725 ,37.65112 
80 ,14.6046 ,0.74016 ,3.83725 ,37.65112 
81 ,14.8127 ,0.74227 ,3.79619 ,37.24818 
82 ,14.9888 ,0.74405 ,3.79961 ,37.28176 
83 ,15.1806 ,0.74590 ,3.76196 ,36.91240 
84 ,15.3570 ,0.74773 ,3.74485 ,36.74450 
85 ,15.5329 ,0.74946 ,3.73117 ,36.61019 
86 ,15.7092 ,0.75124 ,3.73801 ,36.67735 
87 ,15.8849 ,0.75303 ,3.72432 ,36.54303 
88 ,16.0613 ,0.75477 ,3.68668 ,36.17367 
89 ,16.2534 ,0.75663 ,3.67299 ,36.03936 
90 ,16.4293 ,0.75845 ,3.65588 ,35.87147 
91 ,16.5889 ,0.76014 ,3.66272 ,35.93863 
92 ,16.7653 ,0.76176 ,3.63534 ,35.67000 
93 ,16.9578 ,0.76372 ,3.61139 ,35.43495 
94 ,17.1497 ,0.76565 ,3.60112 ,35.33422 
95 ,17.3418 ,0.76758 ,3.58059 ,35.13275 
96 ,17.5177 ,0.76937 ,3.56348 ,34.96485 
97 ,17.6938 ,0.77111 ,3.55321 ,34.86412 
98 ,17.8700 ,0.77284 ,3.53268 ,34.66265 
99 ,18.0622 ,0.77476 ,3.52584 ,34.59549 
100 ,18.2543 ,0.77667 ,3.47792 ,34.12540 
101 ,18.4302 ,0.77845 ,3.48135 ,34.15898 
102 ,18.6219 ,0.78035 ,3.45739 ,33.92393 
103 ,18.7984 ,0.78215 ,3.44028 ,33.75604 
104 ,19.0064 ,0.78414 ,3.44370 ,33.78961 
105 ,19.1825 ,0.78596 ,3.42659 ,33.62172 
106 ,19.3585 ,0.78771 ,3.40606 ,33.42025 
107 ,19.5347 ,0.78946 ,3.38210 ,33.18520 
108 ,19.7106 ,0.79119 ,3.35473 ,32.91658 
109 ,19.8867 ,0.79295 ,3.35130 ,32.88300 
110 ,20.0790 ,0.79492 ,3.32393 ,32.61437 
111 ,20.2710 ,0.79689 ,3.31024 ,32.48006 
112 ,20.4470 ,0.79864 ,3.30339 ,32.41290 
113 ,20.6232 ,0.80036 ,3.28971 ,32.27859 
114 ,20.7832 ,0.80209 ,3.27944 ,32.17786 
115 ,20.9751 ,0.80384 ,3.23495 ,31.74134 
116 ,21.1515 ,0.80562 ,3.22126 ,31.60702 
117 ,21.3594 ,0.80753 ,3.20415 ,31.43913 
118 ,21.5353 ,0.80950 ,3.19731 ,31.37198 
119 ,21.7274 ,0.81133 ,3.17677 ,31.17051 
120 ,21.9037 ,0.81321 ,3.16651 ,31.06977 
121 ,22.0797 ,0.81493 ,3.15282 ,30.93546 
122 ,22.2719 ,0.81689 ,3.12886 ,30.70041 
123 ,22.4480 ,0.81865 ,3.11518 ,30.56610 
124 ,22.6241 ,0.82039 ,3.10833 ,30.49894 
125 ,22.8001 ,0.82213 ,3.09464 ,30.36463 
126 ,22.9761 ,0.82387 ,3.07069 ,30.12958 
127 ,23.1842 ,0.82595 ,3.06384 ,30.06242 
128 ,23.3763 ,0.82789 ,3.02620 ,29.69306 
129 ,23.5526 ,0.82966 ,3.01251 ,29.55875 
130 ,23.7605 ,0.83156 ,3.00567 ,29.49159 
131 ,23.9361 ,0.83347 ,2.98855 ,29.32370 
132 ,24.1126 ,0.83522 ,2.96460 ,29.08865 
133 ,24.3047 ,0.83715 ,2.96460 ,29.08865 
134 ,24.4805 ,0.83898 ,2.94064 ,28.85360 
135 ,24.6886 ,0.84089 ,2.90985 ,28.55140 
136 ,24.8649 ,0.84273 ,2.90642 ,28.51782 
137 ,25.0569 ,0.84458 ,2.87562 ,28.21562 
138 ,25.2332 ,0.84648 ,2.85851 ,28.04772 
139 ,25.4091 ,0.84824 ,2.85851 ,28.04772 
140 ,25.6011 ,0.85005 ,2.84482 ,27.91341 
141 ,25.7773 ,0.85191 ,2.83456 ,27.81268 
142 ,25.9691 ,0.85373 ,2.80034 ,27.47689 
143 ,26.1614 ,0.85576 ,2.80034 ,27.47689 
144 ,26.3693 ,0.85770 ,2.76954 ,27.17469 
145 ,26.5455 ,0.85955 ,2.75585 ,27.04038 
146 ,26.7215 ,0.86137 ,2.74900 ,26.97322 
147 ,26.9138 ,0.86315 ,2.70794 ,26.57028 
148 ,27.1053 ,0.86506 ,2.71136 ,26.60386 
149 ,27.2818 ,0.86690 ,2.70109 ,26.50312 
150 ,27.4739 ,0.86873 ,2.66345 ,26.13376 
151 ,27.6501 ,0.87063 ,2.64976 ,25.99945 
152 ,27.8261 ,0.87238 ,2.64976 ,25.99945 
153 ,28.0181 ,0.87430 ,2.63607 ,25.86514 
154 ,28.1942 ,0.87606 ,2.62238 ,25.73082 
155 ,28.3702 ,0.87774 ,2.58816 ,25.39504 
156 ,28.5461 ,0.87952 ,2.58816 ,25.39504 
157 ,28.7223 ,0.88134 ,2.58132 ,25.32788 
158 ,28.8985 ,0.88310 ,2.55394 ,25.05926 
159 ,29.0744 ,0.88487 ,2.54025 ,24.92494 
160 ,29.2666 ,0.88673 ,2.51630 ,24.68989 
161 ,29.4583 ,0.88866 ,2.50945 ,24.62274 
162 ,29.6504 ,0.89046 ,2.47523 ,24.28696 
163 ,29.8427 ,0.89252 ,2.48892 ,24.42127 
164 ,30.0348 ,0.89444 ,2.46839 ,24.21980 
165 ,30.2108 ,0.89621 ,2.42732 ,23.81686 
166 ,30.3871 ,0.89797 ,2.41363 ,23.68255 
167 ,30.5949 ,0.90003 ,2.39652 ,23.51465 
168 ,30.7711 ,0.90178 ,2.38968 ,23.44750 
169 ,30.9632 ,0.90370 ,2.38625 ,23.41392 
170 ,31.1393 ,0.90551 ,2.37256 ,23.27961 
171 ,31.3149 ,0.90721 ,2.35545 ,23.11171 
172 ,31.4914 ,0.90896 ,2.31781 ,22.74235 
173 ,31.6834 ,0.91091 ,2.32465 ,22.80951 
174 ,31.8751 ,0.91291 ,2.29043 ,22.47373 
175 ,32.0513 ,0.91462 ,2.27674 ,22.33941 
176 ,32.2113 ,0.91632 ,2.26306 ,22.20510 
177 ,32.3875 ,0.91797 ,2.24594 ,22.03721 
178 ,32.5638 ,0.91972 ,2.24252 ,22.00363 
179 ,32.7559 ,0.92161 ,2.23568 ,21.93647 
180 ,32.9799 ,0.92373 ,2.20488 ,21.63427 
181 ,33.1560 ,0.92562 ,2.19461 ,21.53353 
182 ,33.3321 ,0.92738 ,2.16723 ,21.26491 
183 ,33.4920 ,0.92910 ,2.15697 ,21.16417 
184 ,33.6682 ,0.93074 ,2.14328 ,21.02986 
185 ,33.8444 ,0.93252 ,2.14670 ,21.06344 
186 ,34.0362 ,0.93437 ,2.11248 ,20.72766 
187 ,34.2126 ,0.93619 ,2.09195 ,20.52619 
188 ,34.3886 ,0.93798 ,2.07826 ,20.39187 
189 ,34.5647 ,0.93970 ,2.07484 ,20.35829 
190 ,34.7728 ,0.94167 ,2.05430 ,20.15682 
191 ,34.9488 ,0.94356 ,2.03719 ,19.98893 
192 ,35.1248 ,0.94530 ,2.02350 ,19.85462 
193 ,35.3010 ,0.94708 ,2.02350 ,19.85462 
194 ,35.4771 ,0.94887 ,2.00982 ,19.72031 
195 ,35.6527 ,0.95066 ,1.97559 ,19.38452 
196 ,35.8449 ,0.95251 ,1.97217 ,19.35094 
197 ,36.0211 ,0.95426 ,1.96533 ,19.28379 
198 ,36.1974 ,0.95601 ,1.94822 ,19.11590 
199 ,36.3732 ,0.95783 ,1.92768 ,18.91443 
200 ,36.5652 ,0.95970 ,1.90031 ,18.64580 
201 ,36.7416 ,0.96146 ,1.89688 ,18.61222 
202 ,36.9497 ,0.96355 ,1.88662 ,18.51149 
203 ,37.1256 ,0.96530 ,1.84897 ,18.14213 
204 ,37.3178 ,0.96722 ,1.86608 ,18.31002 
205 ,37.4938 ,0.96898 ,1.83528 ,18.00781 
206 ,37.6855 ,0.97092 ,1.81133 ,17.77276 
207 ,37.8623 ,0.97267 ,1.80106 ,17.67203 
208 ,38.0381 ,0.97443 ,1.78737 ,17.53772 
209 ,38.2302 ,0.97637 ,1.77711 ,17.43698 
210 ,38.4223 ,0.97827 ,1.76000 ,17.26909 
211 ,38.5983 ,0.98008 ,1.76000 ,17.26909 
212 ,38.7744 ,0.98177 ,1.73604 ,17.03404 
213 ,38.9664 ,0.98360 ,1.70182 ,16.69826 
214 ,39.1745 ,0.98576 ,1.68813 ,16.56395 
215 ,39.3508 ,0.98760 ,1.67444 ,16.42963 
216 ,39.5427 ,0.98946 ,1.66418 ,16.32890 
217 ,39.7188 ,0.99121 ,1.65733 ,16.26174 
218 ,39.8949 ,0.99299 ,1.63680 ,16.06027 
219 ,40.0710 ,0.99475 ,1.62311 ,15.92596 
220 ,40.2629 ,0.99666 ,1.60942 ,15.79164 
221 ,40.4391 ,0.99845 ,1.60600 ,15.75807 
222 ,40.6150 ,1.00017 ,1.58547 ,15.55660 
223 ,40.8229 ,1.00208 ,1.55809 ,15.28797 
224 ,40.9993 ,1.00407 ,1.55124 ,15.22081 
225 ,41.1913 ,1.00596 ,1.53413 ,15.05292 
226 ,41.3673 ,1.00771 ,1.50333 ,14.75072 
227 ,41.5436 ,1.00949 ,1.49991 ,14.71714 
228 ,41.7352 ,1.01138 ,1.48965 ,14.61640 
229 ,41.8951 ,1.01310 ,1.47253 ,14.44851 
230 ,42.0718 ,1.01477 ,1.46227 ,14.34778 
231 ,42.2638 ,1.01666 ,1.45200 ,14.24704 
232 ,42.4558 ,1.01855 ,1.43489 ,14.07915 
233 ,42.6479 ,1.02051 ,1.40409 ,13.77695 
234 ,42.8241 ,1.02229 ,1.39383 ,13.67621 
235 ,43.0001 ,1.02404 ,1.38356 ,13.57548 
236 ,43.1762 ,1.02577 ,1.38356 ,13.57548 
237 ,43.3521 ,1.02759 ,1.36645 ,13.40759 
238 ,43.5284 ,1.02930 ,1.32880 ,13.03822 
239 ,43.7203 ,1.03125 ,1.32880 ,13.03822 
240 ,43.8965 ,1.03297 ,1.32196 ,12.97107 
241 ,44.0725 ,1.03475 ,1.30827 ,12.83675 
242 ,44.2486 ,1.03653 ,1.28432 ,12.60171 
243 ,44.4248 ,1.03829 ,1.26036 ,12.36666 
244 ,44.6168 ,1.04011 ,1.27747 ,12.53455 
245 ,44.7929 ,1.04196 ,1.24667 ,12.23235 
246 ,44.9690 ,1.04376 ,1.22272 ,11.99730 
247 ,45.1449 ,1.04546 ,1.20561 ,11.82941 
248 ,45.3371 ,1.04739 ,1.21929 ,11.96372 
249 ,45.5131 ,1.04913 ,1.20903 ,11.86298 
250 ,45.6891 ,1.05093 ,1.16112 ,11.39289 
251 ,45.8652 ,1.05268 ,1.15085 ,11.29215 
252 ,46.0574 ,1.05460 ,1.14743 ,11.25857 
253 ,46.2333 ,1.05635 ,1.13716 ,11.15784 
254 ,46.3934 ,1.05807 ,1.10979 ,10.88921 
255 ,46.5695 ,1.05972 ,1.10294 ,10.82206 
256 ,46.7454 ,1.06144 ,1.08241 ,10.62059 
257 ,46.9217 ,1.06323 ,1.07214 ,10.51985 
258 ,47.0978 ,1.06508 ,1.06872 ,10.48627 
259 ,47.2739 ,1.06674 ,1.07214 ,10.51985 
260 ,47.4498 ,1.06855 ,1.04476 ,10.25123 
261 ,47.6420 ,1.07031 ,1.00712 ,9.88186 
262 ,47.8342 ,1.07234 ,1.02081 ,10.01618 
263 ,48.0261 ,1.07419 ,0.99001 ,9.71397 
264 ,48.2179 ,1.07611 ,0.99343 ,9.74755 
265 ,48.4103 ,1.07802 ,0.97974 ,9.61324 
266 ,48.6023 ,1.08005 ,0.94894 ,9.31103 
267 ,48.7785 ,1.08177 ,0.94552 ,9.27745 
268 ,48.9706 ,1.08362 ,0.93868 ,9.21030 
269 ,49.1625 ,1.08557 ,0.91814 ,9.00883 
270 ,49.3226 ,1.08734 ,0.90788 ,8.90809 
271 ,49.4986 ,1.08897 ,0.90446 ,8.87451 
272 ,49.6746 ,1.09072 ,0.89077 ,8.74020 
273 ,49.8668 ,1.09258 ,0.85654 ,8.40442 
274 ,50.0591 ,1.09461 ,0.84970 ,8.33726 
275 ,50.2350 ,1.09634 ,0.84286 ,8.27011 
276 ,50.4111 ,1.09808 ,0.81890 ,8.03506 
277 ,50.6033 ,1.10003 ,0.80179 ,7.86717 
278 ,50.8114 ,1.10207 ,0.79495 ,7.80001 
279 ,51.0354 ,1.10420 ,0.78468 ,7.69927 
280 ,51.2116 ,1.10614 ,0.76757 ,7.53138 
281 ,51.3873 ,1.10790 ,0.74019 ,7.26276 
282 ,51.5637 ,1.10965 ,0.72992 ,7.16202 
283 ,51.7557 ,1.11158 ,0.72650 ,7.12844 
284 ,51.9319 ,1.11331 ,0.70939 ,6.96055 
285 ,52.1238 ,1.11522 ,0.68544 ,6.72550 
286 ,52.3001 ,1.11698 ,0.68201 ,6.69193 
287 ,52.4916 ,1.11895 ,0.66148 ,6.49046 
288 ,52.6678 ,1.12066 ,0.65464 ,6.42330 
289 ,52.8440 ,1.12241 ,0.64095 ,6.28899 
290 ,53.0203 ,1.12418 ,0.62042 ,6.08752 
291 ,53.1962 ,1.12590 ,0.61699 ,6.05394 
292 ,53.3723 ,1.12771 ,0.61357 ,6.02036 
293 ,53.5481 ,1.12947 ,0.59646 ,5.85247 
294 ,53.8525 ,1.13188 ,0.57935 ,5.68458 
295 ,54.0609 ,1.13445 ,0.54855 ,5.38237 
296 ,54.2530 ,1.13647 ,0.54171 ,5.31522 
297 ,54.4289 ,1.13831 ,0.53144 ,5.21448 
298 ,54.6209 ,1.14026 ,0.52117 ,5.11375 
299 ,54.7969 ,1.14194 ,0.51091 ,5.01301 
300 ,54.9730 ,1.14370 ,0.50406 ,4.94585 
301 ,55.1490 ,1.14546 ,0.47668 ,4.67723 
302 ,55.3413 ,1.14727 ,0.45615 ,4.47576 
303 ,55.5493 ,1.14946 ,0.45273 ,4.44218 
304 ,55.7250 ,1.15121 ,0.42877 ,4.20713 
305 ,55.9015 ,1.15299 ,0.40824 ,4.00566 
306 ,56.1097 ,1.15500 ,0.41509 ,4.07282 
307 ,56.2856 ,1.15682 ,0.39455 ,3.87135 
308 ,56.4617 ,1.15864 ,0.38086 ,3.73703 
309 ,56.6539 ,1.16054 ,0.38429 ,3.77061 
310 ,56.8619 ,1.16250 ,0.37402 ,3.66988 
311 ,57.0539 ,1.16453 ,0.36033 ,3.53557 
312 ,57.2459 ,1.16635 ,0.35006 ,3.43483 
313 ,57.4222 ,1.16823 ,0.31926 ,3.13263 
314 ,57.6140 ,1.17007 ,0.31584 ,3.09905 
315 ,57.7902 ,1.17189 ,0.30558 ,2.99831 
316 ,57.9663 ,1.17365 ,0.28847 ,2.83042 
317 ,58.1424 ,1.17540 ,0.27135 ,2.66253 
318 ,58.3185 ,1.17721 ,0.24398 ,2.39390 
319 ,58.4943 ,1.17892 ,0.24740 ,2.42748 
320 ,58.6706 ,1.18071 ,0.24740 ,2.42748 
321 ,58.8307 ,1.18238 ,0.22344 ,2.19243 
322 ,59.0067 ,1.18400 ,0.22344 ,2.19243 
323 ,59.1829 ,1.18579 ,0.19607 ,1.92381 
324 ,59.3589 ,1.18753 ,0.18238 ,1.78949 
325 ,59.5350 ,1.18929 ,0.17896 ,1.75592 
326 ,59.7107 ,1.19117 ,0.16527 ,1.62160 
327 ,59.8711 ,1.19281 ,0.15158 ,1.48729 
328 ,60.0634 ,1.19447 ,0.14473 ,1.42013 
329 ,60.2393 ,1.19641 ,0.11393 ,1.11793 
330 ,60.4152 ,1.19815 ,0.11736 ,1.15151 
331 ,60.5913 ,1.19989 ,0.11736 ,1.15151 
332 ,60.7675 ,1.20165 ,0.09340 ,0.91646 
333 ,60.9432 ,1.20339 ,0.08314 ,0.81572 
334 ,61.1192 ,1.20522 ,0.06945 ,0.68141 
335 ,61.2953 ,1.20689 ,0.04891 ,0.47994 
336 ,61.4714 ,1.20872 ,0.05576 ,0.54710 
337 ,61.6474 ,1.21044 ,0.05234 ,0.51352 
338 ,61.8236 ,1.21219 ,0.02154 ,0.21131 
339 ,62.0156 ,1.21417 ,0.00443 ,0.04342 
340 ,62.1920 ,1.21588 ,-0.00242 ,-0.02373 
341 ,62.3682 ,1.21764 ,-0.00584 ,-0.05731 
342 ,62.5442 ,1.21936 ,-0.02980 ,-0.29236 
343 ,62.7360 ,1.22126 ,-0.03322 ,-0.32594 
344 ,62.9125 ,1.22305 ,-0.04006 ,-0.39310 
345 ,63.1204 ,1.22509 ,-0.07086 ,-0.69530 
346 ,63.2965 ,1.22691 ,-0.08797 ,-0.86319 
347 ,63.4884 ,1.22876 ,-0.06402 ,-0.62814 
348 ,63.6645 ,1.23060 ,-0.09824 ,-0.96393 
349 ,63.8569 ,1.23249 ,-0.10166 ,-0.99751 
350 ,64.0329 ,1.23430 ,-0.11535 ,-1.13182 
351 ,64.2090 ,1.23605 ,-0.11193 ,-1.09824 
352 ,64.4166 ,1.23805 ,-0.13931 ,-1.36687 
353 ,64.5930 ,1.23983 ,-0.14957 ,-1.46760 
354 ,64.7692 ,1.24165 ,-0.14615 ,-1.43402 
355 ,64.9450 ,1.24344 ,-0.15642 ,-1.53476 
356 ,65.1373 ,1.24523 ,-0.19064 ,-1.87054 
357 ,65.3292 ,1.24719 ,-0.18379 ,-1.80338 
358 ,65.5214 ,1.24920 ,-0.20775 ,-2.03843 
359 ,65.6972 ,1.25092 ,-0.21459 ,-2.10559 
360 ,65.8895 ,1.25278 ,-0.21117 ,-2.07201 
361 ,66.0815 ,1.25471 ,-0.23513 ,-2.30706 
362 ,66.2412 ,1.25649 ,-0.25566 ,-2.50853 
363 ,66.4176 ,1.25813 ,-0.27277 ,-2.67642 
364 ,66.5938 ,1.25987 ,-0.27961 ,-2.74358 
365 ,66.7700 ,1.26168 ,-0.27619 ,-2.71000 
366 ,66.9781 ,1.26364 ,-0.28646 ,-2.81073 
367 ,67.1701 ,1.26567 ,-0.30699 ,-3.01220 
368 ,67.3460 ,1.26743 ,-0.30015 ,-2.94505 
369 ,67.5221 ,1.26915 ,-0.32410 ,-3.18010 
370 ,67.6983 ,1.27089 ,-0.35148 ,-3.44872 
371 ,67.8902 ,1.27284 ,-0.33779 ,-3.31441 
372 ,68.0664 ,1.27459 ,-0.34121 ,-3.34799 
373 ,68.2587 ,1.27650 ,-0.36517 ,-3.58303 
374 ,68.4342 ,1.27826 ,-0.37886 ,-3.71735 
375 ,68.6106 ,1.28004 ,-0.37544 ,-3.68377 
376 ,68.7866 ,1.28175 ,-0.37886 ,-3.71735 
377 ,68.9788 ,1.28365 ,-0.40966 ,-4.01955 
378 ,69.1707 ,1.28558 ,-0.39939 ,-3.91882 
379 ,69.3469 ,1.28742 ,-0.41992 ,-4.12029 
380 ,69.5227 ,1.28915 ,-0.42335 ,-4.15387 
381 ,69.7151 ,1.29102 ,-0.45072 ,-4.42249 
382 ,69.8910 ,1.29285 ,-0.45757 ,-4.48965 
383 ,70.0672 ,1.29460 ,-0.44730 ,-4.38891 
384 ,70.2592 ,1.29651 ,-0.46783 ,-4.59038 
385 ,70.4352 ,1.29827 ,-0.49179 ,-4.82543 
386 ,70.6112 ,1.30002 ,-0.49179 ,-4.82543 
387 ,70.7872 ,1.30176 ,-0.49179 ,-4.82543 
388 ,70.9639 ,1.30355 ,-0.48494 ,-4.75828 
389 ,71.1562 ,1.30549 ,-0.51917 ,-5.09406 
390 ,71.3478 ,1.30740 ,-0.51232 ,-5.02690 
391 ,71.5238 ,1.30919 ,-0.51917 ,-5.09406 
392 ,71.7315 ,1.31109 ,-0.54654 ,-5.36268 
393 ,71.9077 ,1.31292 ,-0.53970 ,-5.29553 
394 ,72.0842 ,1.31479 ,-0.54997 ,-5.39626 
395 ,72.2759 ,1.31670 ,-0.57050 ,-5.59773 
396 ,72.4525 ,1.31845 ,-0.58419 ,-5.73205 
397 ,72.6440 ,1.32025 ,-0.58077 ,-5.69847 
398 ,72.8364 ,1.32216 ,-0.57734 ,-5.66489 
399 ,73.0285 ,1.32419 ,-0.59103 ,-5.79920 
400 ,73.2045 ,1.32592 ,-0.60472 ,-5.93352 
401 ,73.3806 ,1.32772 ,-0.61499 ,-6.03425 
402 ,73.5567 ,1.32945 ,-0.62868 ,-6.16856 
403 ,73.7328 ,1.33135 ,-0.63210 ,-6.20214 
404 ,73.9086 ,1.33295 ,-0.64579 ,-6.33646 
405 ,74.1010 ,1.33482 ,-0.64236 ,-6.30288 
406 ,74.3251 ,1.33703 ,-0.67659 ,-6.63866 
407 ,74.5006 ,1.33895 ,-0.69370 ,-6.80655 
408 ,74.6771 ,1.34065 ,-0.69370 ,-6.80655 
409 ,74.8851 ,1.34276 ,-0.68343 ,-6.70582 
410 ,75.0771 ,1.34470 ,-0.71081 ,-6.97444 
411 ,75.2533 ,1.34646 ,-0.72792 ,-7.14233 
412 ,75.4293 ,1.34822 ,-0.72792 ,-7.14233 
413 ,75.6056 ,1.34993 ,-0.72792 ,-7.14233 
414 ,75.7816 ,1.35174 ,-0.73818 ,-7.24307 
415 ,75.9579 ,1.35350 ,-0.74845 ,-7.34380 
416 ,76.1496 ,1.35543 ,-0.77241 ,-7.57885 
417 ,76.3257 ,1.35713 ,-0.76898 ,-7.54527 
418 ,76.5017 ,1.35892 ,-0.77583 ,-7.61243 
419 ,76.6939 ,1.36083 ,-0.79978 ,-7.84748 
420 ,76.8857 ,1.36271 ,-0.79636 ,-7.81390 
421 ,77.0624 ,1.36453 ,-0.80321 ,-7.88106 
422 ,77.2544 ,1.36647 ,-0.83401 ,-8.18326 
423 ,77.4301 ,1.36821 ,-0.84085 ,-8.25042 
424 ,77.6224 ,1.37013 ,-0.83401 ,-8.18326 
425 ,77.7823 ,1.37184 ,-0.84769 ,-8.31758 
426 ,77.9421 ,1.37347 ,-0.85796 ,-8.41831 
427 ,78.1186 ,1.37512 ,-0.87165 ,-8.55262 
428 ,78.2946 ,1.37687 ,-0.88192 ,-8.65336 
429 ,78.4866 ,1.37873 ,-0.87165 ,-8.55262 
430 ,78.6625 ,1.38052 ,-0.87849 ,-8.61978 
431 ,78.8387 ,1.38227 ,-0.90245 ,-8.85483 
432 ,79.0145 ,1.38404 ,-0.91956 ,-9.02272 
433 ,79.1910 ,1.38579 ,-0.91614 ,-8.98914 
434 ,79.3831 ,1.38771 ,-0.92640 ,-9.08988 
435 ,79.5591 ,1.38944 ,-0.94351 ,-9.25777 
436 ,79.7351 ,1.39125 ,-0.95720 ,-9.39208 
437 ,79.9114 ,1.39300 ,-0.96405 ,-9.45924 
438 ,80.0710 ,1.39476 ,-0.95720 ,-9.39208 
439 ,80.2475 ,1.39638 ,-0.97089 ,-9.52639 
440 ,80.4396 ,1.39826 ,-0.98458 ,-9.66071 
441 ,80.6317 ,1.40020 ,-0.99143 ,-9.72786 
442 ,80.8237 ,1.40204 ,-0.99827 ,-9.79502 
443 ,81.0158 ,1.40406 ,-1.01196 ,-9.92933 
444 ,81.1918 ,1.40589 ,-1.00511 ,-9.86218 
445 ,81.3679 ,1.40753 ,-1.02907 ,-10.09723 
446 ,81.5599 ,1.40940 ,-1.01538 ,-9.96291 
447 ,81.7521 ,1.41144 ,-1.04618 ,-10.26512 
448 ,81.9439 ,1.41330 ,-1.03934 ,-10.19796 
449 ,82.1202 ,1.41513 ,-1.05302 ,-10.33227 
450 ,82.3121 ,1.41696 ,-1.08382 ,-10.63448 
451 ,82.5043 ,1.41892 ,-1.07014 ,-10.50016 
452 ,82.6803 ,1.42068 ,-1.09751 ,-10.76879 
453 ,82.8724 ,1.42259 ,-1.10778 ,-10.86953 
454 ,83.0486 ,1.42435 ,-1.09409 ,-10.73521 
455 ,83.2403 ,1.42623 ,-1.12147 ,-11.00384 
456 ,83.4168 ,1.42804 ,-1.13858 ,-11.17173 
457 ,83.6089 ,1.42988 ,-1.12489 ,-11.03742 
458 ,83.8169 ,1.43189 ,-1.15227 ,-11.30604 
459 ,83.9930 ,1.43381 ,-1.16596 ,-11.44036 
460 ,84.1691 ,1.43556 ,-1.15911 ,-11.37320 
461 ,84.3449 ,1.43731 ,-1.15569 ,-11.33962 
462 ,84.5211 ,1.43907 ,-1.18307 ,-11.60825 
