Data stamp = , 05-04-2022 09:39:31 777

Calibration Values: 
Slope = , 26.54 , g/V 
Offset Voltage at no contact = , -0.501760 , V 

No , Time , Stage Position ,   Mass , Force 
   ,  (s) ,      (mm)      ,   (g)  , (mN)  

1 ,0.0000 ,0.59949 ,5.00079 ,49.06774 
2 ,0.2228 ,0.59955 ,5.01790 ,49.23563 
3 ,0.5752 ,0.60064 ,5.01790 ,49.23563 
4 ,0.7674 ,0.60213 ,4.99737 ,49.03416 
5 ,0.9595 ,0.60384 ,5.01106 ,49.16848 
6 ,1.1356 ,0.60559 ,5.01790 ,49.23563 
7 ,1.3118 ,0.60731 ,5.01448 ,49.20205 
8 ,1.4879 ,0.60905 ,5.00079 ,49.06774 
9 ,1.6796 ,0.61092 ,4.99394 ,49.00058 
10 ,1.8720 ,0.61290 ,4.96657 ,48.73196 
11 ,2.0642 ,0.61494 ,4.95972 ,48.66480 
12 ,2.2561 ,0.61682 ,4.94603 ,48.53049 
13 ,2.4322 ,0.61860 ,4.91523 ,48.22828 
14 ,2.6080 ,0.62034 ,4.89812 ,48.06039 
15 ,2.7680 ,0.62206 ,4.89470 ,48.02681 
16 ,2.9603 ,0.62379 ,4.88786 ,47.95966 
17 ,3.1522 ,0.62566 ,4.85706 ,47.65745 
18 ,3.3286 ,0.62757 ,4.82626 ,47.35525 
19 ,3.5045 ,0.62930 ,4.81257 ,47.22093 
20 ,3.6804 ,0.63102 ,4.81257 ,47.22093 
21 ,3.8568 ,0.63283 ,4.78861 ,46.98589 
22 ,4.0485 ,0.63469 ,4.75439 ,46.65010 
23 ,4.2245 ,0.63647 ,4.75439 ,46.65010 
24 ,4.3847 ,0.63819 ,4.74413 ,46.54937 
25 ,4.5607 ,0.63981 ,4.72359 ,46.34790 
26 ,4.7368 ,0.64157 ,4.70648 ,46.18001 
27 ,4.9288 ,0.64344 ,4.67568 ,45.87780 
28 ,5.1049 ,0.64525 ,4.65173 ,45.64275 
29 ,5.2810 ,0.64705 ,4.64831 ,45.60918 
30 ,5.4571 ,0.64877 ,4.62777 ,45.40771 
31 ,5.6331 ,0.65055 ,4.61408 ,45.27339 
32 ,5.8092 ,0.65229 ,4.58671 ,45.00477 
33 ,5.9853 ,0.65412 ,4.56960 ,44.83688 
34 ,6.1613 ,0.65581 ,4.54564 ,44.60183 
35 ,6.3374 ,0.65759 ,4.54906 ,44.63541 
36 ,6.5134 ,0.65935 ,4.52511 ,44.40036 
37 ,6.6735 ,0.66107 ,4.48404 ,43.99742 
38 ,6.8335 ,0.66266 ,4.47720 ,43.93026 
39 ,6.9937 ,0.66428 ,4.46351 ,43.79595 
40 ,7.1537 ,0.66588 ,4.44640 ,43.62806 
41 ,7.3136 ,0.66747 ,4.44982 ,43.66163 
42 ,7.4738 ,0.66906 ,4.41218 ,43.29227 
43 ,7.6339 ,0.67069 ,4.40875 ,43.25870 
44 ,7.7942 ,0.67227 ,4.40191 ,43.19154 
45 ,7.9539 ,0.67387 ,4.37111 ,42.88933 
46 ,8.1300 ,0.67549 ,4.36769 ,42.85576 
47 ,8.3064 ,0.67728 ,4.34716 ,42.65429 
48 ,8.4985 ,0.67921 ,4.33004 ,42.48639 
49 ,8.6746 ,0.68096 ,4.31636 ,42.35208 
50 ,8.8507 ,0.68272 ,4.30609 ,42.25135 
51 ,9.0266 ,0.68447 ,4.28556 ,42.04988 
52 ,9.2187 ,0.68635 ,4.28213 ,42.01630 
53 ,9.4270 ,0.68843 ,4.24449 ,41.64694 
54 ,9.6032 ,0.69028 ,4.23765 ,41.57978 
55 ,9.7951 ,0.69215 ,4.22396 ,41.44547 
56 ,9.9711 ,0.69390 ,4.20685 ,41.27758 
57 ,10.1469 ,0.69565 ,4.18289 ,41.04253 
58 ,10.3234 ,0.69738 ,4.17262 ,40.94179 
59 ,10.5315 ,0.69948 ,4.15894 ,40.80748 
60 ,10.7075 ,0.70130 ,4.13498 ,40.57243 
61 ,10.8833 ,0.70302 ,4.12129 ,40.43812 
62 ,11.0595 ,0.70480 ,4.11445 ,40.37096 
63 ,11.2515 ,0.70675 ,4.08365 ,40.06876 
64 ,11.4278 ,0.70847 ,4.06996 ,39.93444 
65 ,11.6038 ,0.71025 ,4.06312 ,39.86729 
66 ,11.8119 ,0.71222 ,4.04258 ,39.66582 
67 ,12.0039 ,0.71422 ,4.01178 ,39.36361 
68 ,12.1800 ,0.71600 ,4.00836 ,39.33003 
69 ,12.3722 ,0.71783 ,3.99809 ,39.22930 
70 ,12.5802 ,0.71993 ,3.94676 ,38.72562 
71 ,12.7722 ,0.72193 ,3.97414 ,38.99425 
72 ,12.9482 ,0.72369 ,3.93307 ,38.59131 
73 ,13.1244 ,0.72547 ,3.91596 ,38.42342 
74 ,13.3001 ,0.72719 ,3.90227 ,38.28911 
75 ,13.4764 ,0.72897 ,3.90912 ,38.35626 
76 ,13.6687 ,0.73086 ,3.86121 ,37.88617 
77 ,13.8768 ,0.73284 ,3.85436 ,37.81901 
78 ,14.0687 ,0.73489 ,3.82699 ,37.55038 
79 ,14.2448 ,0.73663 ,3.81330 ,37.41607 
80 ,14.4207 ,0.73837 ,3.80645 ,37.34891 
81 ,14.5971 ,0.74013 ,3.78934 ,37.18102 
82 ,14.7732 ,0.74195 ,3.76881 ,36.97955 
83 ,14.9811 ,0.74383 ,3.75854 ,36.87882 
84 ,15.1573 ,0.74576 ,3.74143 ,36.71093 
85 ,15.3492 ,0.74762 ,3.71405 ,36.44230 
86 ,15.5414 ,0.74966 ,3.71063 ,36.40872 
87 ,15.7334 ,0.75157 ,3.69010 ,36.20725 
88 ,15.9096 ,0.75328 ,3.65930 ,35.90505 
89 ,16.1017 ,0.75519 ,3.66272 ,35.93863 
90 ,16.2943 ,0.75716 ,3.64219 ,35.73716 
91 ,16.4694 ,0.75888 ,3.60797 ,35.40137 
92 ,16.6617 ,0.76073 ,3.59428 ,35.26706 
93 ,16.8538 ,0.76274 ,3.59086 ,35.23348 
94 ,17.0298 ,0.76449 ,3.56348 ,34.96485 
95 ,17.2221 ,0.76640 ,3.54295 ,34.76338 
96 ,17.4139 ,0.76828 ,3.54637 ,34.79696 
97 ,17.6222 ,0.77036 ,3.51557 ,34.49476 
98 ,17.7983 ,0.77214 ,3.48477 ,34.19255 
99 ,17.9743 ,0.77389 ,3.49161 ,34.25971 
100 ,18.1663 ,0.77580 ,3.46424 ,33.99108 
101 ,18.3424 ,0.77758 ,3.44713 ,33.82319 
102 ,18.5185 ,0.77937 ,3.43001 ,33.65530 
103 ,18.6946 ,0.78110 ,3.43001 ,33.65530 
104 ,18.8868 ,0.78300 ,3.39579 ,33.31952 
105 ,19.0628 ,0.78485 ,3.38895 ,33.25236 
106 ,19.2387 ,0.78654 ,3.37184 ,33.08447 
107 ,19.4150 ,0.78832 ,3.36499 ,33.01731 
108 ,19.6070 ,0.79021 ,3.33419 ,32.71511 
109 ,19.7670 ,0.79195 ,3.31366 ,32.51364 
110 ,19.9588 ,0.79368 ,3.31366 ,32.51364 
111 ,20.1513 ,0.79559 ,3.29655 ,32.34575 
112 ,20.3274 ,0.79747 ,3.28286 ,32.21143 
113 ,20.5193 ,0.79940 ,3.24180 ,31.80849 
114 ,20.6955 ,0.80123 ,3.24522 ,31.84207 
115 ,20.8715 ,0.80292 ,3.22468 ,31.64060 
116 ,21.0636 ,0.80485 ,3.20415 ,31.43913 
117 ,21.2556 ,0.80670 ,3.20073 ,31.40555 
118 ,21.4317 ,0.80845 ,3.18362 ,31.23766 
119 ,21.6078 ,0.81023 ,3.16651 ,31.06977 
120 ,21.7998 ,0.81212 ,3.13913 ,30.80115 
121 ,21.9761 ,0.81394 ,3.12544 ,30.66683 
122 ,22.1680 ,0.81581 ,3.11175 ,30.53252 
123 ,22.3442 ,0.81763 ,3.08780 ,30.29747 
124 ,22.5199 ,0.81941 ,3.06384 ,30.06242 
125 ,22.6962 ,0.82113 ,3.06726 ,30.09600 
126 ,22.8719 ,0.82288 ,3.06726 ,30.09600 
127 ,23.0483 ,0.82464 ,3.04673 ,29.89453 
128 ,23.2242 ,0.82648 ,3.01593 ,29.59233 
129 ,23.4006 ,0.82815 ,2.99540 ,29.39086 
130 ,23.5766 ,0.82995 ,2.98513 ,29.29012 
131 ,23.7847 ,0.83187 ,2.97144 ,29.15581 
132 ,23.9767 ,0.83397 ,2.96118 ,29.05507 
133 ,24.1529 ,0.83565 ,2.95091 ,28.95434 
134 ,24.3447 ,0.83751 ,2.91669 ,28.61856 
135 ,24.5211 ,0.83933 ,2.89273 ,28.38351 
136 ,24.7131 ,0.84130 ,2.91327 ,28.58498 
137 ,24.9051 ,0.84321 ,2.87220 ,28.18204 
138 ,25.0812 ,0.84496 ,2.85851 ,28.04772 
139 ,25.2734 ,0.84683 ,2.84825 ,27.94699 
140 ,25.4492 ,0.84868 ,2.83798 ,27.84625 
141 ,25.6414 ,0.85050 ,2.79007 ,27.37616 
142 ,25.8172 ,0.85231 ,2.79007 ,27.37616 
143 ,25.9934 ,0.85411 ,2.77980 ,27.27542 
144 ,26.1857 ,0.85604 ,2.77638 ,27.24185 
145 ,26.3777 ,0.85793 ,2.73531 ,26.83891 
146 ,26.5538 ,0.85965 ,2.72847 ,26.77175 
147 ,26.7298 ,0.86150 ,2.71478 ,26.63744 
148 ,26.9218 ,0.86331 ,2.68398 ,26.33523 
149 ,27.1138 ,0.86521 ,2.68056 ,26.30165 
150 ,27.3062 ,0.86716 ,2.66345 ,26.13376 
151 ,27.4820 ,0.86897 ,2.64976 ,25.99945 
152 ,27.6582 ,0.87073 ,2.61896 ,25.69724 
153 ,27.8500 ,0.87267 ,2.62923 ,25.79798 
154 ,28.0265 ,0.87436 ,2.59843 ,25.49577 
155 ,28.2182 ,0.87627 ,2.57447 ,25.26073 
156 ,28.3944 ,0.87806 ,2.56421 ,25.15999 
157 ,28.5547 ,0.87980 ,2.54710 ,24.99210 
158 ,28.7467 ,0.88153 ,2.53683 ,24.89136 
159 ,28.9229 ,0.88335 ,2.51972 ,24.72347 
160 ,29.1309 ,0.88541 ,2.50945 ,24.62274 
161 ,29.3230 ,0.88729 ,2.47865 ,24.32053 
162 ,29.4990 ,0.88914 ,2.46154 ,24.15264 
163 ,29.6748 ,0.89092 ,2.44101 ,23.95117 
164 ,29.8513 ,0.89264 ,2.43759 ,23.91759 
165 ,30.0753 ,0.89476 ,2.41363 ,23.68255 
166 ,30.2515 ,0.89663 ,2.40679 ,23.61539 
167 ,30.4274 ,0.89845 ,2.37941 ,23.34676 
168 ,30.6354 ,0.90049 ,2.35888 ,23.14529 
169 ,30.8115 ,0.90221 ,2.35545 ,23.11171 
170 ,30.9876 ,0.90401 ,2.35203 ,23.07814 
171 ,31.1638 ,0.90573 ,2.33492 ,22.91024 
172 ,31.3396 ,0.90753 ,2.30412 ,22.60804 
173 ,31.5159 ,0.90931 ,2.28701 ,22.44015 
174 ,31.7081 ,0.91121 ,2.28701 ,22.44015 
175 ,31.8841 ,0.91298 ,2.25621 ,22.13794 
176 ,32.0600 ,0.91472 ,2.24594 ,22.03721 
177 ,32.2361 ,0.91653 ,2.21857 ,21.76858 
178 ,32.4119 ,0.91823 ,2.20830 ,21.66785 
179 ,32.6044 ,0.92005 ,2.21172 ,21.70143 
180 ,32.7969 ,0.92209 ,2.16381 ,21.23133 
181 ,33.0044 ,0.92412 ,2.17408 ,21.33206 
182 ,33.1804 ,0.92587 ,2.14670 ,21.06344 
183 ,33.3566 ,0.92766 ,2.13301 ,20.92912 
184 ,33.5485 ,0.92956 ,2.13301 ,20.92912 
185 ,33.7247 ,0.93135 ,2.11248 ,20.72766 
186 ,33.9007 ,0.93311 ,2.09195 ,20.52619 
187 ,34.0769 ,0.93492 ,2.07484 ,20.35829 
188 ,34.2688 ,0.93679 ,2.05773 ,20.19040 
189 ,34.4611 ,0.93864 ,2.05773 ,20.19040 
190 ,34.6368 ,0.94052 ,2.02008 ,19.82104 
191 ,34.8291 ,0.94240 ,2.02008 ,19.82104 
192 ,35.0053 ,0.94419 ,2.00639 ,19.68673 
193 ,35.1972 ,0.94607 ,1.96190 ,19.25021 
194 ,35.3734 ,0.94786 ,1.95506 ,19.18305 
195 ,35.5652 ,0.94977 ,1.96190 ,19.25021 
196 ,35.7414 ,0.95159 ,1.92084 ,18.84727 
197 ,35.9176 ,0.95330 ,1.91399 ,18.78011 
198 ,36.0937 ,0.95508 ,1.90373 ,18.67938 
199 ,36.2696 ,0.95678 ,1.88319 ,18.47791 
200 ,36.4460 ,0.95856 ,1.87977 ,18.44433 
201 ,36.6218 ,0.96037 ,1.86266 ,18.27644 
202 ,36.8139 ,0.96225 ,1.82844 ,17.94066 
203 ,37.0057 ,0.96419 ,1.81817 ,17.83992 
204 ,37.1822 ,0.96594 ,1.80791 ,17.73919 
205 ,37.3582 ,0.96772 ,1.80106 ,17.67203 
206 ,37.5338 ,0.96946 ,1.77026 ,17.36983 
207 ,37.7101 ,0.97118 ,1.75657 ,17.23551 
208 ,37.9025 ,0.97305 ,1.74631 ,17.13478 
209 ,38.1265 ,0.97524 ,1.73604 ,17.03404 
210 ,38.3025 ,0.97713 ,1.72235 ,16.89973 
211 ,38.4785 ,0.97888 ,1.68813 ,16.56395 
212 ,38.6544 ,0.98061 ,1.67786 ,16.46321 
213 ,38.8468 ,0.98264 ,1.68129 ,16.49679 
214 ,39.0227 ,0.98429 ,1.65391 ,16.22816 
215 ,39.1992 ,0.98607 ,1.62995 ,15.99311 
216 ,39.3909 ,0.98793 ,1.61284 ,15.82522 
217 ,39.5831 ,0.98999 ,1.61284 ,15.82522 
218 ,39.7751 ,0.99188 ,1.58204 ,15.52302 
219 ,39.9673 ,0.99372 ,1.57862 ,15.48944 
220 ,40.1431 ,0.99554 ,1.55809 ,15.28797 
221 ,40.3192 ,0.99725 ,1.54782 ,15.18724 
222 ,40.4956 ,0.99905 ,1.52729 ,14.98577 
223 ,40.6876 ,1.00090 ,1.52387 ,14.95219 
224 ,40.8636 ,1.00277 ,1.49991 ,14.71714 
225 ,41.0557 ,1.00459 ,1.46227 ,14.34778 
226 ,41.2638 ,1.00669 ,1.47938 ,14.51567 
227 ,41.4397 ,1.00848 ,1.43831 ,14.11273 
228 ,41.6159 ,1.01023 ,1.42805 ,14.01199 
229 ,41.8078 ,1.01214 ,1.41094 ,13.84410 
230 ,41.9837 ,1.01392 ,1.41778 ,13.91126 
231 ,42.1600 ,1.01568 ,1.40067 ,13.74337 
232 ,42.3521 ,1.01759 ,1.36303 ,13.37401 
233 ,42.5283 ,1.01934 ,1.35618 ,13.30685 
234 ,42.7203 ,1.02122 ,1.34249 ,13.17254 
235 ,42.9284 ,1.02332 ,1.33223 ,13.07180 
236 ,43.1044 ,1.02510 ,1.32196 ,12.97107 
237 ,43.2803 ,1.02688 ,1.31169 ,12.87033 
238 ,43.4885 ,1.02890 ,1.26720 ,12.43381 
239 ,43.6646 ,1.03087 ,1.28432 ,12.60171 
240 ,43.8408 ,1.03249 ,1.26378 ,12.40024 
241 ,44.0327 ,1.03433 ,1.23983 ,12.16519 
242 ,44.2249 ,1.03635 ,1.22956 ,12.06445 
243 ,44.4170 ,1.03825 ,1.22614 ,12.03088 
244 ,44.5933 ,1.04004 ,1.19534 ,11.72867 
245 ,44.7852 ,1.04193 ,1.19192 ,11.69509 
246 ,44.9613 ,1.04370 ,1.18507 ,11.62794 
247 ,45.1531 ,1.04552 ,1.15427 ,11.32573 
248 ,45.3293 ,1.04739 ,1.14401 ,11.22500 
249 ,45.5215 ,1.04928 ,1.13374 ,11.12426 
250 ,45.6976 ,1.05112 ,1.10979 ,10.88921 
251 ,45.8737 ,1.05279 ,1.09952 ,10.78848 
252 ,46.0657 ,1.05470 ,1.08583 ,10.65416 
253 ,46.2577 ,1.05666 ,1.07214 ,10.51985 
254 ,46.4339 ,1.05838 ,1.05845 ,10.38554 
255 ,46.6097 ,1.06015 ,1.04476 ,10.25123 
256 ,46.8021 ,1.06209 ,1.03792 ,10.18407 
257 ,46.9938 ,1.06406 ,1.00370 ,9.84829 
258 ,47.1702 ,1.06582 ,1.00028 ,9.81471 
259 ,47.3783 ,1.06779 ,0.99343 ,9.74755 
260 ,47.6024 ,1.06995 ,0.96948 ,9.51250 
261 ,47.7950 ,1.07202 ,0.95579 ,9.37819 
262 ,47.9865 ,1.07391 ,0.94552 ,9.27745 
263 ,48.1626 ,1.07572 ,0.93525 ,9.17672 
264 ,48.3546 ,1.07757 ,0.90446 ,8.87451 
265 ,48.5308 ,1.07936 ,0.89077 ,8.74020 
266 ,48.7228 ,1.08132 ,0.88734 ,8.70662 
267 ,48.9148 ,1.08323 ,0.89077 ,8.74020 
268 ,49.1229 ,1.08516 ,0.84970 ,8.33726 
269 ,49.2989 ,1.08702 ,0.85312 ,8.37084 
270 ,49.4750 ,1.08878 ,0.83943 ,8.23653 
271 ,49.6511 ,1.09056 ,0.81548 ,8.00148 
272 ,49.8431 ,1.09250 ,0.80521 ,7.90074 
273 ,50.0353 ,1.09441 ,0.80521 ,7.90074 
274 ,50.2111 ,1.09614 ,0.76072 ,7.46423 
275 ,50.3874 ,1.09798 ,0.76415 ,7.49780 
276 ,50.5633 ,1.09967 ,0.74361 ,7.29633 
277 ,50.7396 ,1.10139 ,0.74019 ,7.26276 
278 ,50.9153 ,1.10318 ,0.73677 ,7.22918 
279 ,51.0917 ,1.10499 ,0.71281 ,6.99413 
280 ,51.2838 ,1.10682 ,0.69570 ,6.82624 
281 ,51.4597 ,1.10868 ,0.67175 ,6.59119 
282 ,51.6520 ,1.11050 ,0.66833 ,6.55761 
283 ,51.8601 ,1.11258 ,0.66148 ,6.49046 
284 ,52.0522 ,1.11449 ,0.63753 ,6.25541 
285 ,52.2602 ,1.11649 ,0.63068 ,6.18825 
286 ,52.4363 ,1.11843 ,0.62726 ,6.15467 
287 ,52.6124 ,1.12018 ,0.59988 ,5.88605 
288 ,52.7880 ,1.12187 ,0.57593 ,5.65100 
289 ,52.9641 ,1.12373 ,0.57593 ,5.65100 
290 ,53.1241 ,1.12542 ,0.55539 ,5.44953 
291 ,53.3009 ,1.12707 ,0.54171 ,5.31522 
292 ,53.5090 ,1.12914 ,0.52802 ,5.18090 
293 ,53.6847 ,1.13099 ,0.52802 ,5.18090 
294 ,53.8608 ,1.13265 ,0.50406 ,4.94585 
295 ,54.0527 ,1.13449 ,0.50064 ,4.91228 
296 ,54.2290 ,1.13640 ,0.48011 ,4.71081 
297 ,54.4051 ,1.13810 ,0.46642 ,4.57649 
298 ,54.5973 ,1.14000 ,0.46984 ,4.61007 
299 ,54.7733 ,1.14181 ,0.46984 ,4.61007 
300 ,54.9654 ,1.14367 ,0.43562 ,4.27429 
301 ,55.1416 ,1.14551 ,0.41851 ,4.10640 
302 ,55.3333 ,1.14740 ,0.42877 ,4.20713 
303 ,55.5096 ,1.14912 ,0.40482 ,3.97208 
304 ,55.7014 ,1.15102 ,0.38429 ,3.77061 
305 ,55.8778 ,1.15282 ,0.38429 ,3.77061 
306 ,56.0859 ,1.15485 ,0.36375 ,3.56914 
307 ,56.2940 ,1.15692 ,0.35349 ,3.46841 
308 ,56.4699 ,1.15870 ,0.32953 ,3.23336 
309 ,56.6461 ,1.16048 ,0.30900 ,3.03189 
310 ,56.8381 ,1.16239 ,0.31584 ,3.09905 
311 ,57.0140 ,1.16418 ,0.31584 ,3.09905 
312 ,57.1902 ,1.16599 ,0.28162 ,2.76326 
313 ,57.3822 ,1.16788 ,0.27135 ,2.66253 
314 ,57.5581 ,1.16963 ,0.27135 ,2.66253 
315 ,57.7346 ,1.17141 ,0.26451 ,2.59537 
316 ,57.8945 ,1.17311 ,0.25767 ,2.52822 
317 ,58.0705 ,1.17470 ,0.24055 ,2.36032 
318 ,58.2628 ,1.17667 ,0.22344 ,2.19243 
319 ,58.4388 ,1.17839 ,0.19607 ,1.92381 
320 ,58.6470 ,1.18047 ,0.17553 ,1.72234 
321 ,58.8231 ,1.18228 ,0.16185 ,1.58802 
322 ,59.0151 ,1.18413 ,0.17211 ,1.68876 
323 ,59.2069 ,1.18607 ,0.14816 ,1.45371 
324 ,59.3831 ,1.18786 ,0.12420 ,1.21866 
325 ,59.5750 ,1.18980 ,0.13789 ,1.35298 
326 ,59.7513 ,1.19152 ,0.12078 ,1.18508 
327 ,59.9275 ,1.19329 ,0.10025 ,0.98361 
328 ,60.1195 ,1.19512 ,0.08656 ,0.84930 
329 ,60.3116 ,1.19716 ,0.08998 ,0.88288 
330 ,60.4878 ,1.19888 ,0.06945 ,0.68141 
331 ,60.6798 ,1.20081 ,0.06945 ,0.68141 
332 ,60.8559 ,1.20259 ,0.05918 ,0.58067 
333 ,61.0474 ,1.20448 ,0.02496 ,0.24489 
334 ,61.2240 ,1.20623 ,0.01469 ,0.14416 
335 ,61.4159 ,1.20812 ,0.01469 ,0.14416 
336 ,61.5924 ,1.20998 ,-0.00242 ,-0.02373 
337 ,61.8007 ,1.21194 ,-0.01953 ,-0.19163 
338 ,61.9764 ,1.21381 ,-0.02980 ,-0.29236 
339 ,62.1361 ,1.21551 ,-0.02980 ,-0.29236 
340 ,62.3124 ,1.21707 ,-0.02980 ,-0.29236 
341 ,62.4886 ,1.21892 ,-0.06402 ,-0.62814 
342 ,62.6806 ,1.22079 ,-0.08113 ,-0.79604 
343 ,62.8567 ,1.22260 ,-0.08113 ,-0.79604 
344 ,63.0488 ,1.22452 ,-0.09824 ,-0.96393 
345 ,63.2248 ,1.22626 ,-0.10166 ,-0.99751 
346 ,63.4010 ,1.22801 ,-0.12562 ,-1.23255 
347 ,63.5930 ,1.22999 ,-0.12904 ,-1.26613 
348 ,63.7692 ,1.23166 ,-0.12904 ,-1.26613 
349 ,63.9450 ,1.23344 ,-0.15642 ,-1.53476 
350 ,64.1210 ,1.23521 ,-0.16668 ,-1.63549 
351 ,64.3291 ,1.23725 ,-0.18379 ,-1.80338 
352 ,64.5051 ,1.23904 ,-0.19064 ,-1.87054 
353 ,64.6815 ,1.24077 ,-0.19406 ,-1.90412 
354 ,64.8575 ,1.24258 ,-0.21117 ,-2.07201 
355 ,65.0336 ,1.24434 ,-0.21459 ,-2.10559 
356 ,65.2097 ,1.24608 ,-0.21459 ,-2.10559 
357 ,65.3858 ,1.24787 ,-0.22828 ,-2.23990 
358 ,65.5778 ,1.24978 ,-0.23855 ,-2.34064 
359 ,65.7375 ,1.25149 ,-0.24539 ,-2.40779 
360 ,65.9140 ,1.25315 ,-0.26250 ,-2.57569 
361 ,66.1058 ,1.25501 ,-0.28646 ,-2.81073 
362 ,66.2981 ,1.25689 ,-0.29330 ,-2.87789 
363 ,66.4902 ,1.25883 ,-0.28988 ,-2.84431 
364 ,66.6984 ,1.26095 ,-0.31384 ,-3.07936 
365 ,66.8744 ,1.26275 ,-0.32068 ,-3.14652 
366 ,67.0825 ,1.26475 ,-0.33437 ,-3.28083 
367 ,67.2905 ,1.26672 ,-0.33095 ,-3.24725 
368 ,67.4987 ,1.26885 ,-0.35148 ,-3.44872 
369 ,67.7067 ,1.27099 ,-0.36859 ,-3.61661 
370 ,67.8828 ,1.27284 ,-0.37886 ,-3.71735 
371 ,68.0588 ,1.27457 ,-0.38570 ,-3.78450 
372 ,68.2350 ,1.27635 ,-0.39255 ,-3.85166 
373 ,68.4109 ,1.27813 ,-0.41308 ,-4.05313 
374 ,68.6031 ,1.27992 ,-0.43703 ,-4.28818 
375 ,68.7952 ,1.28195 ,-0.43019 ,-4.22102 
376 ,68.9872 ,1.28387 ,-0.43019 ,-4.22102 
377 ,69.1633 ,1.28558 ,-0.45072 ,-4.42249 
378 ,69.3394 ,1.28742 ,-0.47810 ,-4.69112 
379 ,69.5310 ,1.28919 ,-0.47810 ,-4.69112 
380 ,69.7076 ,1.29109 ,-0.46441 ,-4.55681 
381 ,69.9157 ,1.29295 ,-0.50206 ,-4.92617 
382 ,70.1077 ,1.29505 ,-0.49863 ,-4.89259 
383 ,70.2837 ,1.29683 ,-0.51917 ,-5.09406 
384 ,70.4599 ,1.29858 ,-0.52943 ,-5.19479 
385 ,70.6360 ,1.30039 ,-0.51917 ,-5.09406 
386 ,70.8119 ,1.30206 ,-0.52943 ,-5.19479 
387 ,70.9881 ,1.30390 ,-0.55339 ,-5.42984 
388 ,71.1639 ,1.30558 ,-0.54997 ,-5.39626 
389 ,71.3400 ,1.30734 ,-0.58077 ,-5.69847 
390 ,71.5161 ,1.30915 ,-0.59445 ,-5.83278 
391 ,71.7084 ,1.31109 ,-0.57392 ,-5.63131 
392 ,71.9164 ,1.31311 ,-0.60814 ,-5.96709 
393 ,72.0925 ,1.31492 ,-0.61156 ,-6.00067 
394 ,72.2685 ,1.31664 ,-0.61156 ,-6.00067 
395 ,72.4447 ,1.31842 ,-0.62525 ,-6.13499 
396 ,72.6206 ,1.32024 ,-0.64236 ,-6.30288 
397 ,72.8129 ,1.32212 ,-0.64921 ,-6.37003 
398 ,73.0050 ,1.32403 ,-0.65605 ,-6.43719 
399 ,73.1810 ,1.32582 ,-0.65947 ,-6.47077 
400 ,73.3570 ,1.32760 ,-0.68001 ,-6.67224 
401 ,73.5331 ,1.32931 ,-0.68685 ,-6.73940 
402 ,73.7250 ,1.33123 ,-0.68343 ,-6.70582 
403 ,73.9173 ,1.33315 ,-0.70396 ,-6.90729 
404 ,74.1089 ,1.33509 ,-0.70396 ,-6.90729 
405 ,74.2854 ,1.33683 ,-0.70739 ,-6.94086 
406 ,74.4935 ,1.33875 ,-0.72450 ,-7.10876 
407 ,74.6856 ,1.34079 ,-0.73818 ,-7.24307 
408 ,74.8451 ,1.34255 ,-0.75872 ,-7.44454 
409 ,75.0218 ,1.34416 ,-0.76556 ,-7.51170 
410 ,75.2138 ,1.34614 ,-0.75187 ,-7.37738 
411 ,75.3899 ,1.34789 ,-0.75187 ,-7.37738 
412 ,75.5819 ,1.34978 ,-0.77241 ,-7.57885 
413 ,75.7580 ,1.35150 ,-0.77925 ,-7.64601 
414 ,75.9340 ,1.35327 ,-0.79978 ,-7.84748 
415 ,76.1262 ,1.35522 ,-0.79636 ,-7.81390 
416 ,76.3028 ,1.35700 ,-0.81005 ,-7.94821 
417 ,76.4781 ,1.35873 ,-0.81347 ,-7.98179 
418 ,76.6543 ,1.36051 ,-0.83401 ,-8.18326 
419 ,76.8304 ,1.36228 ,-0.82716 ,-8.11611 
420 ,77.0064 ,1.36410 ,-0.84427 ,-8.28400 
421 ,77.1825 ,1.36580 ,-0.85454 ,-8.38473 
422 ,77.3585 ,1.36749 ,-0.86823 ,-8.51904 
423 ,77.5345 ,1.36929 ,-0.87849 ,-8.61978 
424 ,77.7107 ,1.37104 ,-0.87849 ,-8.61978 
425 ,77.9029 ,1.37300 ,-0.87165 ,-8.55262 
426 ,78.0949 ,1.37487 ,-0.89903 ,-8.82125 
427 ,78.2870 ,1.37681 ,-0.91272 ,-8.95556 
428 ,78.4631 ,1.37859 ,-0.91614 ,-8.98914 
429 ,78.6552 ,1.38044 ,-0.92640 ,-9.08988 
430 ,78.8313 ,1.38221 ,-0.91956 ,-9.02272 
431 ,79.0234 ,1.38426 ,-0.93325 ,-9.15703 
432 ,79.2313 ,1.38616 ,-0.96063 ,-9.42566 
433 ,79.4236 ,1.38823 ,-0.95036 ,-9.32492 
434 ,79.6156 ,1.39006 ,-0.97431 ,-9.55997 
435 ,79.8237 ,1.39210 ,-0.98800 ,-9.69429 
436 ,80.0157 ,1.39411 ,-1.00511 ,-9.86218 
437 ,80.1758 ,1.39577 ,-1.00511 ,-9.86218 
438 ,80.3519 ,1.39743 ,-1.02222 ,-10.03007 
439 ,80.5279 ,1.39922 ,-1.01196 ,-9.92933 
440 ,80.7039 ,1.40099 ,-1.01880 ,-9.99649 
441 ,80.8962 ,1.40285 ,-1.03934 ,-10.19796 
442 ,81.1038 ,1.40491 ,-1.03934 ,-10.19796 
443 ,81.2801 ,1.40670 ,-1.05645 ,-10.36585 
444 ,81.4723 ,1.40868 ,-1.05302 ,-10.33227 
445 ,81.6641 ,1.41056 ,-1.05645 ,-10.36585 
446 ,81.8405 ,1.41237 ,-1.05987 ,-10.39943 
447 ,82.0326 ,1.41431 ,-1.09409 ,-10.73521 
448 ,82.2085 ,1.41607 ,-1.09067 ,-10.70163 
449 ,82.3848 ,1.41775 ,-1.09409 ,-10.73521 
450 ,82.5608 ,1.41954 ,-1.10436 ,-10.83595 
451 ,82.7529 ,1.42148 ,-1.13173 ,-11.10457 
452 ,82.9290 ,1.42329 ,-1.12489 ,-11.03742 
453 ,83.1210 ,1.42507 ,-1.13858 ,-11.17173 
454 ,83.2972 ,1.42690 ,-1.14884 ,-11.27247 
455 ,83.4732 ,1.42870 ,-1.16253 ,-11.40678 
456 ,83.6652 ,1.43059 ,-1.15569 ,-11.33962 
457 ,83.8574 ,1.43246 ,-1.18307 ,-11.60825 
458 ,84.0494 ,1.43442 ,-1.17622 ,-11.54109 
459 ,84.2415 ,1.43635 ,-1.18991 ,-11.67541 
460 ,84.4176 ,1.43807 ,-1.20360 ,-11.80972 
461 ,84.5936 ,1.43986 ,-1.21387 ,-11.91045 
