Data stamp = , 04-04-2022 20:54:32 217

Calibration Values: 
Slope = , 26.54 , g/V 
Offset Voltage at no contact = , -0.501760 , V 

No , Time , Stage Position ,   Mass , Force 
   ,  (s) ,      (mm)      ,   (g)  , (mN)  

1 ,0.0000 ,0.59955 ,4.97341 ,48.79911 
2 ,0.2025 ,0.59961 ,4.97683 ,48.83269 
3 ,0.6191 ,0.60080 ,4.97341 ,48.79911 
4 ,0.8110 ,0.60261 ,4.97341 ,48.79911 
5 ,1.0032 ,0.60430 ,4.97683 ,48.83269 
6 ,1.1793 ,0.60608 ,4.98710 ,48.93343 
7 ,1.3553 ,0.60786 ,4.97683 ,48.83269 
8 ,1.5314 ,0.60964 ,4.96657 ,48.73196 
9 ,1.7074 ,0.61139 ,4.95630 ,48.63122 
10 ,1.8836 ,0.61316 ,4.96315 ,48.69838 
11 ,2.0916 ,0.61523 ,4.92892 ,48.36260 
12 ,2.2998 ,0.61723 ,4.92892 ,48.36260 
13 ,2.4757 ,0.61913 ,4.89812 ,48.06039 
14 ,2.6679 ,0.62099 ,4.90839 ,48.16113 
15 ,2.8439 ,0.62273 ,4.88444 ,47.92608 
16 ,3.0200 ,0.62449 ,4.88444 ,47.92608 
17 ,3.2118 ,0.62644 ,4.85021 ,47.59030 
18 ,3.3882 ,0.62819 ,4.83310 ,47.42240 
19 ,3.5801 ,0.63013 ,4.84337 ,47.52314 
20 ,3.7563 ,0.63187 ,4.81941 ,47.28809 
21 ,3.9324 ,0.63369 ,4.79888 ,47.08662 
22 ,4.1081 ,0.63541 ,4.78519 ,46.95231 
23 ,4.2845 ,0.63716 ,4.76808 ,46.78442 
24 ,4.4766 ,0.63907 ,4.75782 ,46.68368 
25 ,4.6527 ,0.64084 ,4.73728 ,46.48221 
26 ,4.8284 ,0.64262 ,4.69964 ,46.11285 
27 ,5.0047 ,0.64431 ,4.69622 ,46.07927 
28 ,5.1808 ,0.64611 ,4.68937 ,46.01212 
29 ,5.3730 ,0.64804 ,4.65173 ,45.64275 
30 ,5.5811 ,0.65013 ,4.65173 ,45.64275 
31 ,5.7730 ,0.65205 ,4.62093 ,45.34055 
32 ,5.9489 ,0.65380 ,4.59697 ,45.10550 
33 ,6.1251 ,0.65552 ,4.58328 ,44.97119 
34 ,6.3010 ,0.65730 ,4.57986 ,44.93761 
35 ,6.4773 ,0.65906 ,4.56275 ,44.76972 
36 ,6.6533 ,0.66084 ,4.54906 ,44.63541 
37 ,6.8457 ,0.66274 ,4.51826 ,44.33320 
38 ,7.0213 ,0.66453 ,4.50800 ,44.23247 
39 ,7.1974 ,0.66625 ,4.49773 ,44.13173 
40 ,7.3897 ,0.66811 ,4.44640 ,43.62806 
41 ,7.5656 ,0.66995 ,4.43955 ,43.56090 
42 ,7.7898 ,0.67206 ,4.41902 ,43.35943 
43 ,7.9657 ,0.67396 ,4.39849 ,43.15796 
44 ,8.1420 ,0.67568 ,4.39164 ,43.09080 
45 ,8.3181 ,0.67743 ,4.38138 ,42.99007 
46 ,8.4941 ,0.67921 ,4.36427 ,42.82218 
47 ,8.6863 ,0.68120 ,4.33347 ,42.51997 
48 ,8.8625 ,0.68292 ,4.32662 ,42.45282 
49 ,9.0387 ,0.68470 ,4.32320 ,42.41924 
50 ,9.2305 ,0.68654 ,4.29240 ,42.11703 
51 ,9.4065 ,0.68840 ,4.27529 ,41.94914 
52 ,9.5827 ,0.69014 ,4.26502 ,41.84841 
53 ,9.7746 ,0.69196 ,4.24449 ,41.64694 
54 ,9.9989 ,0.69415 ,4.23080 ,41.51262 
55 ,10.1906 ,0.69617 ,4.20685 ,41.27758 
56 ,10.3831 ,0.69808 ,4.19658 ,41.17684 
57 ,10.5750 ,0.69999 ,4.17605 ,40.97537 
58 ,10.7511 ,0.70177 ,4.17947 ,41.00895 
59 ,10.9268 ,0.70358 ,4.14183 ,40.63959 
60 ,11.1032 ,0.70534 ,4.13840 ,40.60601 
61 ,11.2791 ,0.70705 ,4.12471 ,40.47170 
62 ,11.4394 ,0.70879 ,4.12129 ,40.43812 
63 ,11.6152 ,0.71041 ,4.10076 ,40.23665 
64 ,11.7917 ,0.71218 ,4.09049 ,40.13591 
65 ,11.9676 ,0.71395 ,4.06312 ,39.86729 
66 ,12.1439 ,0.71572 ,4.04600 ,39.69940 
67 ,12.3196 ,0.71757 ,4.04943 ,39.73297 
68 ,12.5119 ,0.71930 ,4.02547 ,39.49793 
69 ,12.6880 ,0.72118 ,3.99809 ,39.22930 
70 ,12.8640 ,0.72296 ,3.97414 ,38.99425 
71 ,13.0404 ,0.72468 ,3.96729 ,38.92709 
72 ,13.2160 ,0.72640 ,3.96045 ,38.85994 
73 ,13.3918 ,0.72818 ,3.93307 ,38.59131 
74 ,13.5684 ,0.72999 ,3.91938 ,38.45700 
75 ,13.7442 ,0.73169 ,3.89543 ,38.22195 
76 ,13.9205 ,0.73344 ,3.88174 ,38.08764 
77 ,14.0965 ,0.73525 ,3.87147 ,37.98690 
78 ,14.2887 ,0.73720 ,3.85779 ,37.85259 
79 ,14.4644 ,0.73892 ,3.84410 ,37.71828 
80 ,14.6409 ,0.74070 ,3.81330 ,37.41607 
81 ,14.8329 ,0.74261 ,3.81672 ,37.44965 
82 ,15.0089 ,0.74437 ,3.78934 ,37.18102 
83 ,15.1848 ,0.74611 ,3.77223 ,37.01313 
84 ,15.3612 ,0.74787 ,3.74485 ,36.74450 
85 ,15.5529 ,0.74974 ,3.75170 ,36.81166 
86 ,15.7292 ,0.75160 ,3.74143 ,36.71093 
87 ,15.9053 ,0.75331 ,3.70721 ,36.37514 
88 ,16.0814 ,0.75507 ,3.69694 ,36.27441 
89 ,16.2575 ,0.75681 ,3.67983 ,36.10652 
90 ,16.4335 ,0.75864 ,3.66957 ,36.00578 
91 ,16.6256 ,0.76048 ,3.63877 ,35.70358 
92 ,16.8018 ,0.76229 ,3.62166 ,35.53569 
93 ,16.9779 ,0.76407 ,3.60112 ,35.33422 
94 ,17.1699 ,0.76590 ,3.60112 ,35.33422 
95 ,17.3461 ,0.76769 ,3.58059 ,35.13275 
96 ,17.5382 ,0.76966 ,3.56690 ,34.99843 
97 ,17.7141 ,0.77137 ,3.57032 ,35.03201 
98 ,17.8897 ,0.77315 ,3.54295 ,34.76338 
99 ,18.0663 ,0.77490 ,3.51557 ,34.49476 
100 ,18.2583 ,0.77676 ,3.50188 ,34.36045 
101 ,18.4343 ,0.77866 ,3.47450 ,34.09182 
102 ,18.6264 ,0.78045 ,3.48135 ,34.15898 
103 ,18.8024 ,0.78233 ,3.43686 ,33.72246 
104 ,18.9786 ,0.78405 ,3.43344 ,33.68888 
105 ,19.1704 ,0.78597 ,3.42317 ,33.58814 
106 ,19.3467 ,0.78771 ,3.40264 ,33.38667 
107 ,19.5390 ,0.78951 ,3.37526 ,33.11805 
108 ,19.7308 ,0.79155 ,3.37526 ,33.11805 
109 ,19.9231 ,0.79342 ,3.33762 ,32.74869 
110 ,20.1151 ,0.79539 ,3.33077 ,32.68153 
111 ,20.3072 ,0.79731 ,3.30339 ,32.41290 
112 ,20.4991 ,0.79928 ,3.26917 ,32.07712 
113 ,20.6753 ,0.80096 ,3.28628 ,32.24501 
114 ,20.8514 ,0.80275 ,3.27602 ,32.14428 
115 ,21.0275 ,0.80456 ,3.26233 ,32.00996 
116 ,21.2195 ,0.80644 ,3.22811 ,31.67418 
117 ,21.3956 ,0.80819 ,3.22126 ,31.60702 
118 ,21.5877 ,0.81004 ,3.20415 ,31.43913 
119 ,21.7638 ,0.81187 ,3.17677 ,31.17051 
120 ,21.9559 ,0.81380 ,3.17335 ,31.13693 
121 ,22.1316 ,0.81559 ,3.15624 ,30.96904 
122 ,22.3080 ,0.81734 ,3.14597 ,30.86830 
123 ,22.4839 ,0.81909 ,3.12544 ,30.66683 
124 ,22.6599 ,0.82085 ,3.09806 ,30.39821 
125 ,22.8363 ,0.82262 ,3.08780 ,30.29747 
126 ,23.0121 ,0.82436 ,3.08438 ,30.26389 
127 ,23.2042 ,0.82629 ,3.05015 ,29.92811 
128 ,23.3805 ,0.82805 ,3.03304 ,29.76022 
129 ,23.5724 ,0.82990 ,3.03304 ,29.76022 
130 ,23.7487 ,0.83168 ,3.01593 ,29.59233 
131 ,23.9246 ,0.83356 ,2.99882 ,29.42444 
132 ,24.1006 ,0.83527 ,2.97144 ,29.15581 
133 ,24.2768 ,0.83703 ,2.95091 ,28.95434 
134 ,24.4529 ,0.83875 ,2.95433 ,28.98792 
135 ,24.6449 ,0.84063 ,2.92696 ,28.71929 
136 ,24.8208 ,0.84248 ,2.90985 ,28.55140 
137 ,24.9970 ,0.84420 ,2.88247 ,28.28277 
138 ,25.1730 ,0.84595 ,2.89616 ,28.41709 
139 ,25.3651 ,0.84787 ,2.87562 ,28.21562 
140 ,25.5412 ,0.84965 ,2.84482 ,27.91341 
141 ,25.7335 ,0.85156 ,2.84482 ,27.91341 
142 ,25.9095 ,0.85334 ,2.82087 ,27.67836 
143 ,26.0853 ,0.85509 ,2.80718 ,27.54405 
144 ,26.2616 ,0.85687 ,2.79349 ,27.40974 
145 ,26.4534 ,0.85879 ,2.77296 ,27.20827 
146 ,26.6298 ,0.86048 ,2.76954 ,27.17469 
147 ,26.8218 ,0.86242 ,2.73189 ,26.80533 
148 ,26.9977 ,0.86417 ,2.71820 ,26.67101 
149 ,27.1739 ,0.86593 ,2.71478 ,26.63744 
150 ,27.3662 ,0.86787 ,2.70452 ,26.53670 
151 ,27.5582 ,0.86983 ,2.67029 ,26.20092 
152 ,27.7338 ,0.87159 ,2.66345 ,26.13376 
153 ,27.8939 ,0.87327 ,2.66345 ,26.13376 
154 ,28.0703 ,0.87491 ,2.63949 ,25.89871 
155 ,28.2621 ,0.87685 ,2.61554 ,25.66367 
156 ,28.4387 ,0.87861 ,2.59158 ,25.42862 
157 ,28.6146 ,0.88036 ,2.57105 ,25.22715 
158 ,28.7907 ,0.88213 ,2.56763 ,25.19357 
159 ,28.9668 ,0.88386 ,2.57447 ,25.26073 
160 ,29.1430 ,0.88565 ,2.54710 ,24.99210 
161 ,29.3348 ,0.88758 ,2.50945 ,24.62274 
162 ,29.5110 ,0.88933 ,2.51630 ,24.68989 
163 ,29.6711 ,0.89103 ,2.50261 ,24.55558 
164 ,29.8469 ,0.89269 ,2.48892 ,24.42127 
165 ,30.0233 ,0.89443 ,2.46154 ,24.15264 
166 ,30.1994 ,0.89624 ,2.44101 ,23.95117 
167 ,30.3914 ,0.89812 ,2.43074 ,23.85044 
168 ,30.5674 ,0.89985 ,2.42732 ,23.81686 
169 ,30.7437 ,0.90164 ,2.40336 ,23.58181 
170 ,30.9196 ,0.90339 ,2.38625 ,23.41392 
171 ,31.0956 ,0.90519 ,2.36572 ,23.21245 
172 ,31.2718 ,0.90694 ,2.34861 ,23.04456 
173 ,31.4799 ,0.90903 ,2.34861 ,23.04456 
174 ,31.6717 ,0.91094 ,2.32123 ,22.77593 
175 ,31.8480 ,0.91265 ,2.31439 ,22.70877 
176 ,32.0401 ,0.91451 ,2.30412 ,22.60804 
177 ,32.2321 ,0.91648 ,2.28017 ,22.37299 
178 ,32.4082 ,0.91829 ,2.26648 ,22.23868 
179 ,32.6002 ,0.92020 ,2.25279 ,22.10437 
180 ,32.7923 ,0.92215 ,2.23226 ,21.90290 
181 ,32.9684 ,0.92387 ,2.22883 ,21.86932 
182 ,33.1444 ,0.92565 ,2.20830 ,21.66785 
183 ,33.3204 ,0.92740 ,2.17408 ,21.33206 
184 ,33.4964 ,0.92915 ,2.16039 ,21.19775 
185 ,33.6725 ,0.93091 ,2.13644 ,20.96270 
186 ,33.8808 ,0.93303 ,2.13986 ,20.99628 
187 ,34.0727 ,0.93489 ,2.12275 ,20.82839 
188 ,34.2489 ,0.93665 ,2.09537 ,20.55976 
189 ,34.4250 ,0.93843 ,2.09537 ,20.55976 
190 ,34.6007 ,0.94028 ,2.07141 ,20.32472 
191 ,34.7932 ,0.94205 ,2.05088 ,20.12325 
192 ,34.9852 ,0.94403 ,2.05430 ,20.15682 
193 ,35.1614 ,0.94582 ,2.04061 ,20.02251 
194 ,35.3534 ,0.94772 ,2.00639 ,19.68673 
195 ,35.5294 ,0.94961 ,2.00639 ,19.68673 
196 ,35.6895 ,0.95122 ,1.97902 ,19.41810 
197 ,35.8656 ,0.95283 ,1.97902 ,19.41810 
198 ,36.0418 ,0.95463 ,1.97217 ,19.35094 
199 ,36.2335 ,0.95656 ,1.94137 ,19.04874 
200 ,36.4097 ,0.95830 ,1.93111 ,18.94801 
201 ,36.6018 ,0.96016 ,1.90715 ,18.71296 
202 ,36.7778 ,0.96196 ,1.88662 ,18.51149 
203 ,36.9540 ,0.96371 ,1.86951 ,18.34360 
204 ,37.1301 ,0.96549 ,1.86266 ,18.27644 
205 ,37.3062 ,0.96726 ,1.87293 ,18.37717 
206 ,37.4982 ,0.96919 ,1.83186 ,17.97423 
207 ,37.6742 ,0.97094 ,1.81475 ,17.80634 
208 ,37.8504 ,0.97264 ,1.80106 ,17.67203 
209 ,38.0265 ,0.97445 ,1.79422 ,17.60487 
210 ,38.2025 ,0.97621 ,1.77711 ,17.43698 
211 ,38.3789 ,0.97793 ,1.75657 ,17.23551 
212 ,38.5707 ,0.97990 ,1.73946 ,17.06762 
213 ,38.7303 ,0.98161 ,1.73946 ,17.06762 
214 ,38.9063 ,0.98322 ,1.72235 ,16.89973 
215 ,39.0825 ,0.98499 ,1.70866 ,16.76542 
216 ,39.2589 ,0.98681 ,1.69155 ,16.59752 
217 ,39.4670 ,0.98886 ,1.67444 ,16.42963 
218 ,39.6750 ,0.99074 ,1.63338 ,16.02669 
219 ,39.8511 ,0.99270 ,1.62653 ,15.95954 
220 ,40.0274 ,0.99446 ,1.62653 ,15.95954 
221 ,40.2512 ,0.99655 ,1.60600 ,15.75807 
222 ,40.4276 ,0.99844 ,1.59231 ,15.62375 
223 ,40.6195 ,1.00041 ,1.58547 ,15.55660 
224 ,40.8116 ,1.00224 ,1.54782 ,15.18724 
225 ,40.9713 ,1.00399 ,1.55467 ,15.25439 
226 ,41.1479 ,1.00568 ,1.54098 ,15.12008 
227 ,41.3238 ,1.00745 ,1.51702 ,14.88503 
228 ,41.4999 ,1.00914 ,1.49991 ,14.71714 
229 ,41.6760 ,1.01090 ,1.47938 ,14.51567 
230 ,41.8680 ,1.01284 ,1.46911 ,14.41493 
231 ,42.0438 ,1.01462 ,1.47938 ,14.51567 
232 ,42.2363 ,1.01648 ,1.46227 ,14.34778 
233 ,42.4452 ,1.01854 ,1.42805 ,14.01199 
234 ,42.6204 ,1.02039 ,1.43147 ,14.04557 
235 ,42.7965 ,1.02214 ,1.38698 ,13.60906 
236 ,42.9882 ,1.02405 ,1.38356 ,13.57548 
237 ,43.1645 ,1.02576 ,1.37671 ,13.50832 
238 ,43.3405 ,1.02756 ,1.36303 ,13.37401 
239 ,43.5167 ,1.02934 ,1.34591 ,13.20612 
240 ,43.7088 ,1.03122 ,1.32880 ,13.03822 
241 ,43.9009 ,1.03314 ,1.31854 ,12.93749 
242 ,44.0769 ,1.03495 ,1.29116 ,12.66886 
243 ,44.2530 ,1.03677 ,1.28432 ,12.60171 
244 ,44.4453 ,1.03855 ,1.28432 ,12.60171 
245 ,44.6212 ,1.04035 ,1.27063 ,12.46739 
246 ,44.8134 ,1.04230 ,1.22956 ,12.06445 
247 ,44.9894 ,1.04405 ,1.21929 ,11.96372 
248 ,45.1654 ,1.04583 ,1.21929 ,11.96372 
249 ,45.3416 ,1.04756 ,1.20561 ,11.82941 
250 ,45.5176 ,1.04932 ,1.18507 ,11.62794 
251 ,45.6938 ,1.05109 ,1.17138 ,11.49362 
252 ,45.8697 ,1.05285 ,1.14743 ,11.25857 
253 ,46.0457 ,1.05457 ,1.14743 ,11.25857 
254 ,46.2219 ,1.05638 ,1.12347 ,11.02353 
255 ,46.4139 ,1.05821 ,1.09952 ,10.78848 
256 ,46.5901 ,1.06008 ,1.09952 ,10.78848 
257 ,46.7659 ,1.06186 ,1.09610 ,10.75490 
258 ,46.9423 ,1.06355 ,1.07899 ,10.58701 
259 ,47.1182 ,1.06534 ,1.05845 ,10.38554 
260 ,47.2942 ,1.06709 ,1.03450 ,10.15049 
261 ,47.4704 ,1.06887 ,1.02765 ,10.08333 
262 ,47.6625 ,1.07076 ,1.02423 ,10.04976 
263 ,47.8544 ,1.07270 ,0.99001 ,9.71397 
264 ,48.0468 ,1.07455 ,1.00028 ,9.81471 
265 ,48.2227 ,1.07638 ,0.98317 ,9.64682 
266 ,48.3984 ,1.07817 ,0.97974 ,9.61324 
267 ,48.5749 ,1.07990 ,0.94210 ,9.24388 
268 ,48.7669 ,1.08183 ,0.93868 ,9.21030 
269 ,48.9427 ,1.08359 ,0.93525 ,9.17672 
270 ,49.1189 ,1.08531 ,0.91130 ,8.94167 
271 ,49.3112 ,1.08721 ,0.88734 ,8.70662 
272 ,49.4868 ,1.08906 ,0.87366 ,8.57231 
273 ,49.6632 ,1.09076 ,0.88050 ,8.63947 
274 ,49.8553 ,1.09270 ,0.85312 ,8.37084 
275 ,50.0315 ,1.09442 ,0.82917 ,8.13579 
276 ,50.2234 ,1.09634 ,0.83601 ,8.20295 
277 ,50.3991 ,1.09814 ,0.81548 ,8.00148 
278 ,50.5753 ,1.09984 ,0.79837 ,7.83359 
279 ,50.7516 ,1.10166 ,0.77441 ,7.59854 
280 ,50.9277 ,1.10338 ,0.77784 ,7.63212 
281 ,51.1359 ,1.10547 ,0.74019 ,7.26276 
282 ,51.3280 ,1.10733 ,0.74704 ,7.32991 
283 ,51.5038 ,1.10921 ,0.73677 ,7.22918 
284 ,51.6801 ,1.11091 ,0.72650 ,7.12844 
285 ,51.8559 ,1.11265 ,0.69913 ,6.85982 
286 ,52.0323 ,1.11445 ,0.67859 ,6.65835 
287 ,52.2082 ,1.11628 ,0.66490 ,6.52403 
288 ,52.3841 ,1.11793 ,0.67175 ,6.59119 
289 ,52.5604 ,1.11972 ,0.65464 ,6.42330 
290 ,52.7365 ,1.12153 ,0.63068 ,6.18825 
291 ,52.9127 ,1.12322 ,0.61699 ,6.05394 
292 ,53.0886 ,1.12503 ,0.60673 ,5.95320 
293 ,53.2647 ,1.12673 ,0.59646 ,5.85247 
294 ,53.4408 ,1.12857 ,0.59988 ,5.88605 
295 ,53.6169 ,1.13023 ,0.57251 ,5.61742 
296 ,53.7931 ,1.13204 ,0.55539 ,5.44953 
297 ,53.9691 ,1.13383 ,0.53486 ,5.24806 
298 ,54.1608 ,1.13574 ,0.54513 ,5.34879 
299 ,54.3373 ,1.13751 ,0.51775 ,5.08017 
300 ,54.5291 ,1.13943 ,0.50406 ,4.94585 
301 ,54.7214 ,1.14130 ,0.51433 ,5.04659 
302 ,54.8813 ,1.14307 ,0.49037 ,4.81154 
303 ,55.0575 ,1.14471 ,0.47668 ,4.67723 
304 ,55.2336 ,1.14643 ,0.45615 ,4.47576 
305 ,55.4256 ,1.14836 ,0.45957 ,4.50934 
306 ,55.6016 ,1.15016 ,0.44246 ,4.34144 
307 ,55.7777 ,1.15192 ,0.41166 ,4.03924 
308 ,55.9698 ,1.15379 ,0.40482 ,3.97208 
309 ,56.1460 ,1.15556 ,0.40140 ,3.93850 
310 ,56.3220 ,1.15745 ,0.39113 ,3.83777 
311 ,56.4977 ,1.15909 ,0.37060 ,3.63630 
312 ,56.6901 ,1.16099 ,0.34322 ,3.36767 
313 ,56.8659 ,1.16277 ,0.35349 ,3.46841 
314 ,57.0425 ,1.16453 ,0.33295 ,3.26694 
315 ,57.2342 ,1.16650 ,0.31242 ,3.06547 
316 ,57.4105 ,1.16825 ,0.28847 ,2.83042 
317 ,57.6184 ,1.17023 ,0.29189 ,2.86400 
318 ,57.7944 ,1.17205 ,0.27820 ,2.72969 
319 ,57.9703 ,1.17384 ,0.25424 ,2.49464 
320 ,58.1469 ,1.17561 ,0.25082 ,2.46106 
321 ,58.3388 ,1.17752 ,0.24398 ,2.39390 
322 ,58.5148 ,1.17926 ,0.22344 ,2.19243 
323 ,58.6910 ,1.18103 ,0.21318 ,2.09170 
324 ,58.8990 ,1.18304 ,0.20291 ,1.99096 
325 ,59.0910 ,1.18495 ,0.18238 ,1.78949 
326 ,59.2671 ,1.18683 ,0.17211 ,1.68876 
327 ,59.4593 ,1.18868 ,0.16869 ,1.65518 
328 ,59.6353 ,1.19049 ,0.15500 ,1.52087 
329 ,59.8274 ,1.19230 ,0.13789 ,1.35298 
330 ,60.0034 ,1.19415 ,0.12762 ,1.25224 
331 ,60.2115 ,1.19606 ,0.09340 ,0.91646 
332 ,60.3876 ,1.19798 ,0.08998 ,0.88288 
333 ,60.5638 ,1.19971 ,0.10025 ,0.98361 
334 ,60.7557 ,1.20162 ,0.07287 ,0.71499 
335 ,60.9319 ,1.20343 ,0.05918 ,0.58067 
336 ,61.1239 ,1.20527 ,0.06602 ,0.64783 
337 ,61.2999 ,1.20719 ,0.04549 ,0.44636 
338 ,61.4759 ,1.20882 ,0.02496 ,0.24489 
339 ,61.6679 ,1.21081 ,0.01127 ,0.11058 
340 ,61.8442 ,1.21257 ,0.00785 ,0.07700 
341 ,62.0203 ,1.21433 ,0.00100 ,0.00984 
342 ,62.1963 ,1.21602 ,-0.01611 ,-0.15805 
343 ,62.3724 ,1.21779 ,-0.02295 ,-0.22520 
344 ,62.5805 ,1.21976 ,-0.02980 ,-0.29236 
345 ,62.7727 ,1.22180 ,-0.06744 ,-0.66172 
346 ,62.9645 ,1.22365 ,-0.07428 ,-0.72888 
347 ,63.1407 ,1.22548 ,-0.06402 ,-0.62814 
348 ,63.3004 ,1.22720 ,-0.07428 ,-0.72888 
349 ,63.4769 ,1.22887 ,-0.09140 ,-0.89677 
350 ,63.6690 ,1.23076 ,-0.10851 ,-1.06466 
351 ,63.8448 ,1.23252 ,-0.12219 ,-1.19898 
352 ,64.0211 ,1.23430 ,-0.12219 ,-1.19898 
353 ,64.1972 ,1.23609 ,-0.12904 ,-1.26613 
354 ,64.3887 ,1.23796 ,-0.15984 ,-1.56834 
355 ,64.5494 ,1.23965 ,-0.14957 ,-1.46760 
356 ,64.7253 ,1.24130 ,-0.15299 ,-1.50118 
357 ,64.9013 ,1.24311 ,-0.17011 ,-1.66907 
358 ,65.0774 ,1.24487 ,-0.18722 ,-1.83696 
359 ,65.2696 ,1.24676 ,-0.21117 ,-2.07201 
360 ,65.4454 ,1.24848 ,-0.20433 ,-2.00485 
361 ,65.6217 ,1.25028 ,-0.22144 ,-2.17275 
362 ,65.8136 ,1.25219 ,-0.23170 ,-2.27348 
363 ,65.9900 ,1.25399 ,-0.25566 ,-2.50853 
364 ,66.1659 ,1.25576 ,-0.25224 ,-2.47495 
365 ,66.3421 ,1.25752 ,-0.24539 ,-2.40779 
366 ,66.5341 ,1.25943 ,-0.27961 ,-2.74358 
367 ,66.7103 ,1.26115 ,-0.28646 ,-2.81073 
368 ,66.9342 ,1.26329 ,-0.27277 ,-2.67642 
369 ,67.1104 ,1.26520 ,-0.30357 ,-2.97863 
370 ,67.3024 ,1.26704 ,-0.31726 ,-3.11294 
371 ,67.4785 ,1.26886 ,-0.31384 ,-3.07936 
372 ,67.6542 ,1.27057 ,-0.33779 ,-3.31441 
373 ,67.8467 ,1.27249 ,-0.33095 ,-3.24725 
374 ,68.0228 ,1.27434 ,-0.34464 ,-3.38156 
375 ,68.1989 ,1.27609 ,-0.34806 ,-3.41514 
376 ,68.3748 ,1.27780 ,-0.37201 ,-3.65019 
377 ,68.5509 ,1.27957 ,-0.39597 ,-3.88524 
378 ,68.7271 ,1.28137 ,-0.38912 ,-3.81808 
379 ,68.9029 ,1.28309 ,-0.39255 ,-3.85166 
380 ,69.0951 ,1.28494 ,-0.39597 ,-3.88524 
381 ,69.2873 ,1.28692 ,-0.43019 ,-4.22102 
382 ,69.4633 ,1.28865 ,-0.41992 ,-4.12029 
383 ,69.6551 ,1.29052 ,-0.44730 ,-4.38891 
384 ,69.8314 ,1.29237 ,-0.44730 ,-4.38891 
385 ,70.0077 ,1.29411 ,-0.45757 ,-4.48965 
386 ,70.1836 ,1.29591 ,-0.45757 ,-4.48965 
387 ,70.3755 ,1.29778 ,-0.47468 ,-4.65754 
388 ,70.5678 ,1.29975 ,-0.49179 ,-4.82543 
389 ,70.7434 ,1.30151 ,-0.49863 ,-4.89259 
390 ,70.9200 ,1.30323 ,-0.49521 ,-4.85901 
391 ,71.1279 ,1.30524 ,-0.50890 ,-4.99332 
392 ,71.3040 ,1.30708 ,-0.51574 ,-5.06048 
393 ,71.4801 ,1.30883 ,-0.52601 ,-5.16121 
394 ,71.6563 ,1.31062 ,-0.53285 ,-5.22837 
395 ,71.8483 ,1.31253 ,-0.56023 ,-5.49700 
396 ,72.0404 ,1.31441 ,-0.55681 ,-5.46342 
397 ,72.2165 ,1.31622 ,-0.57392 ,-5.63131 
398 ,72.3925 ,1.31801 ,-0.58077 ,-5.69847 
399 ,72.5687 ,1.31974 ,-0.60130 ,-5.89994 
400 ,72.7606 ,1.32167 ,-0.60130 ,-5.89994 
401 ,72.9367 ,1.32343 ,-0.61499 ,-6.03425 
402 ,73.1129 ,1.32520 ,-0.61841 ,-6.06783 
403 ,73.3047 ,1.32710 ,-0.63210 ,-6.20214 
404 ,73.4808 ,1.32887 ,-0.62868 ,-6.16856 
405 ,73.6570 ,1.33066 ,-0.63894 ,-6.26930 
406 ,73.8329 ,1.33244 ,-0.65605 ,-6.43719 
407 ,74.0092 ,1.33413 ,-0.68001 ,-6.67224 
408 ,74.2011 ,1.33611 ,-0.68343 ,-6.70582 
409 ,74.3774 ,1.33780 ,-0.68001 ,-6.67224 
410 ,74.5533 ,1.33957 ,-0.69712 ,-6.84013 
411 ,74.7295 ,1.34135 ,-0.71081 ,-6.97444 
412 ,74.9053 ,1.34312 ,-0.72450 ,-7.10876 
413 ,75.0975 ,1.34500 ,-0.72107 ,-7.07518 
414 ,75.2896 ,1.34696 ,-0.75530 ,-7.41096 
415 ,75.4656 ,1.34871 ,-0.74503 ,-7.31023 
416 ,75.6577 ,1.35057 ,-0.76214 ,-7.47812 
417 ,75.8499 ,1.35245 ,-0.76556 ,-7.51170 
418 ,76.0255 ,1.35427 ,-0.77583 ,-7.61243 
419 ,76.2020 ,1.35604 ,-0.76898 ,-7.54527 
420 ,76.3782 ,1.35784 ,-0.78267 ,-7.67959 
421 ,76.5703 ,1.35975 ,-0.81689 ,-8.01537 
422 ,76.7464 ,1.36155 ,-0.81689 ,-8.01537 
423 ,76.9222 ,1.36324 ,-0.81347 ,-7.98179 
424 ,77.0981 ,1.36499 ,-0.82032 ,-8.04895 
425 ,77.2744 ,1.36678 ,-0.85112 ,-8.35115 
426 ,77.4666 ,1.36870 ,-0.84085 ,-8.25042 
427 ,77.6586 ,1.37058 ,-0.85112 ,-8.35115 
428 ,77.8508 ,1.37252 ,-0.88192 ,-8.65336 
429 ,78.0269 ,1.37433 ,-0.88534 ,-8.68694 
430 ,78.2028 ,1.37608 ,-0.87507 ,-8.58620 
431 ,78.3789 ,1.37775 ,-0.88876 ,-8.72051 
432 ,78.5547 ,1.37955 ,-0.91272 ,-8.95556 
433 ,78.7310 ,1.38133 ,-0.91956 ,-9.02272 
434 ,78.8911 ,1.38305 ,-0.91956 ,-9.02272 
435 ,79.0673 ,1.38471 ,-0.93325 ,-9.15703 
436 ,79.2430 ,1.38650 ,-0.93667 ,-9.19061 
437 ,79.4194 ,1.38823 ,-0.94009 ,-9.22419 
438 ,79.5954 ,1.38997 ,-0.94009 ,-9.22419 
439 ,79.7876 ,1.39191 ,-0.95720 ,-9.39208 
440 ,79.9796 ,1.39385 ,-0.96747 ,-9.49282 
441 ,80.1554 ,1.39557 ,-0.98458 ,-9.66071 
442 ,80.3317 ,1.39745 ,-0.98800 ,-9.69429 
443 ,80.5236 ,1.39918 ,-0.99143 ,-9.72786 
444 ,80.6999 ,1.40105 ,-0.99143 ,-9.72786 
445 ,80.8759 ,1.40280 ,-1.02222 ,-10.03007 
446 ,81.0841 ,1.40485 ,-1.02222 ,-10.03007 
447 ,81.2601 ,1.40663 ,-1.02565 ,-10.06365 
448 ,81.4363 ,1.40838 ,-1.03591 ,-10.16438 
449 ,81.6123 ,1.41014 ,-1.06329 ,-10.43301 
450 ,81.7883 ,1.41185 ,-1.05302 ,-10.33227 
451 ,81.9643 ,1.41361 ,-1.05987 ,-10.39943 
452 ,82.1566 ,1.41559 ,-1.08040 ,-10.60090 
453 ,82.3483 ,1.41752 ,-1.08725 ,-10.66806 
454 ,82.5247 ,1.41925 ,-1.10436 ,-10.83595 
455 ,82.7166 ,1.42115 ,-1.09751 ,-10.76879 
456 ,82.8927 ,1.42295 ,-1.12489 ,-11.03742 
457 ,83.1007 ,1.42489 ,-1.10436 ,-10.83595 
458 ,83.2768 ,1.42674 ,-1.11805 ,-10.97026 
459 ,83.4526 ,1.42855 ,-1.15227 ,-11.30604 
460 ,83.6290 ,1.43033 ,-1.15569 ,-11.33962 
461 ,83.8050 ,1.43201 ,-1.15227 ,-11.30604 
462 ,83.9813 ,1.43383 ,-1.14884 ,-11.27247 
