Data stamp = , 05-04-2022 00:33:59 246

Calibration Values: 
Slope = , 26.54 , g/V 
Offset Voltage at no contact = , -0.501760 , V 

No , Time , Stage Position ,   Mass , Force 
   ,  (s) ,      (mm)      ,   (g)  , (mN)  

1 ,0.0000 ,0.59949 ,4.99052 ,48.96701 
2 ,0.2193 ,0.59959 ,4.98368 ,48.89985 
3 ,0.5396 ,0.60044 ,4.97683 ,48.83269 
4 ,0.7316 ,0.60187 ,4.96315 ,48.69838 
5 ,0.9076 ,0.60337 ,4.96999 ,48.76554 
6 ,1.0840 ,0.60510 ,4.98368 ,48.89985 
7 ,1.2759 ,0.60694 ,4.99394 ,49.00058 
8 ,1.4523 ,0.60872 ,4.98026 ,48.86627 
9 ,1.6602 ,0.61082 ,4.98368 ,48.89985 
10 ,1.8363 ,0.61264 ,4.96999 ,48.76554 
11 ,2.0283 ,0.61452 ,4.93919 ,48.46333 
12 ,2.2206 ,0.61646 ,4.93577 ,48.42975 
13 ,2.4285 ,0.61837 ,4.92208 ,48.29544 
14 ,2.6047 ,0.62042 ,4.91523 ,48.22828 
15 ,2.7967 ,0.62217 ,4.89812 ,48.06039 
16 ,2.9734 ,0.62399 ,4.86048 ,47.69103 
17 ,3.1648 ,0.62590 ,4.86732 ,47.75819 
18 ,3.3410 ,0.62764 ,4.85021 ,47.59030 
19 ,3.5330 ,0.62950 ,4.82626 ,47.35525 
20 ,3.7090 ,0.63135 ,4.79546 ,47.05304 
21 ,3.8851 ,0.63313 ,4.78519 ,46.95231 
22 ,4.0612 ,0.63488 ,4.77150 ,46.81800 
23 ,4.2373 ,0.63659 ,4.76124 ,46.71726 
24 ,4.4134 ,0.63841 ,4.73386 ,46.44863 
25 ,4.5894 ,0.64016 ,4.72017 ,46.31432 
26 ,4.7657 ,0.64189 ,4.70306 ,46.14643 
27 ,4.9574 ,0.64377 ,4.68937 ,46.01212 
28 ,5.1336 ,0.64560 ,4.67226 ,45.84422 
29 ,5.3259 ,0.64750 ,4.66199 ,45.74349 
30 ,5.5177 ,0.64933 ,4.63119 ,45.44128 
31 ,5.6935 ,0.65122 ,4.61751 ,45.30697 
32 ,5.8701 ,0.65297 ,4.59013 ,45.03835 
33 ,6.0622 ,0.65489 ,4.58328 ,44.97119 
34 ,6.2221 ,0.65660 ,4.56617 ,44.80330 
35 ,6.3821 ,0.65817 ,4.55249 ,44.66898 
36 ,6.5744 ,0.65998 ,4.52511 ,44.40036 
37 ,6.7504 ,0.66174 ,4.50457 ,44.19889 
38 ,6.9425 ,0.66364 ,4.49431 ,44.09815 
39 ,7.1342 ,0.66561 ,4.45324 ,43.69521 
40 ,7.3105 ,0.66731 ,4.42929 ,43.46016 
41 ,7.5187 ,0.66938 ,4.43271 ,43.49374 
42 ,7.7108 ,0.67134 ,4.39849 ,43.15796 
43 ,7.8868 ,0.67308 ,4.37111 ,42.88933 
44 ,8.0789 ,0.67492 ,4.37795 ,42.95649 
45 ,8.2551 ,0.67682 ,4.35400 ,42.72144 
46 ,8.4307 ,0.67855 ,4.34373 ,42.62071 
47 ,8.6068 ,0.68034 ,4.31978 ,42.38566 
48 ,8.7832 ,0.68205 ,4.31293 ,42.31850 
49 ,8.9750 ,0.68396 ,4.28556 ,42.04988 
50 ,9.1514 ,0.68579 ,4.27187 ,41.91556 
51 ,9.3433 ,0.68762 ,4.27871 ,41.98272 
52 ,9.5190 ,0.68942 ,4.25476 ,41.74767 
53 ,9.6955 ,0.69117 ,4.23080 ,41.51262 
54 ,9.8718 ,0.69297 ,4.21369 ,41.34473 
55 ,10.0636 ,0.69483 ,4.20342 ,41.24400 
56 ,10.2398 ,0.69660 ,4.18974 ,41.10968 
57 ,10.4319 ,0.69855 ,4.15551 ,40.77390 
58 ,10.6239 ,0.70043 ,4.14525 ,40.67317 
59 ,10.7999 ,0.70225 ,4.14525 ,40.67317 
60 ,10.9761 ,0.70397 ,4.11445 ,40.37096 
61 ,11.1682 ,0.70587 ,4.09391 ,40.16949 
62 ,11.3442 ,0.70767 ,4.08023 ,40.03518 
63 ,11.5202 ,0.70945 ,4.06996 ,39.93444 
64 ,11.6961 ,0.71132 ,4.03916 ,39.63224 
65 ,11.9045 ,0.71311 ,4.03232 ,39.56508 
66 ,12.0966 ,0.71521 ,4.02547 ,39.49793 
67 ,12.2723 ,0.71693 ,3.98441 ,39.09499 
68 ,12.4483 ,0.71869 ,3.97756 ,39.02783 
69 ,12.6247 ,0.72044 ,3.97756 ,39.02783 
70 ,12.8167 ,0.72247 ,3.94334 ,38.69205 
71 ,12.9929 ,0.72417 ,3.93307 ,38.59131 
72 ,13.1686 ,0.72589 ,3.90912 ,38.35626 
73 ,13.3451 ,0.72764 ,3.90227 ,38.28911 
74 ,13.5370 ,0.72959 ,3.90227 ,38.28911 
75 ,13.7289 ,0.73142 ,3.86463 ,37.91975 
76 ,13.9213 ,0.73338 ,3.84067 ,37.68470 
77 ,14.1134 ,0.73528 ,3.80987 ,37.38249 
78 ,14.2894 ,0.73714 ,3.80645 ,37.34891 
79 ,14.4660 ,0.73888 ,3.79961 ,37.28176 
80 ,14.6416 ,0.74066 ,3.78592 ,37.14744 
81 ,14.8174 ,0.74233 ,3.77223 ,37.01313 
82 ,15.0099 ,0.74423 ,3.74828 ,36.77808 
83 ,15.2178 ,0.74637 ,3.74485 ,36.74450 
84 ,15.3940 ,0.74815 ,3.70721 ,36.37514 
85 ,15.5860 ,0.75009 ,3.70037 ,36.30799 
86 ,15.7461 ,0.75179 ,3.69694 ,36.27441 
87 ,15.9220 ,0.75353 ,3.66614 ,35.97220 
88 ,16.0981 ,0.75517 ,3.64561 ,35.77073 
89 ,16.2743 ,0.75697 ,3.63534 ,35.67000 
90 ,16.4503 ,0.75872 ,3.61139 ,35.43495 
91 ,16.6265 ,0.76048 ,3.60797 ,35.40137 
92 ,16.8186 ,0.76233 ,3.58743 ,35.19990 
93 ,16.9784 ,0.76411 ,3.56348 ,34.96485 
94 ,17.1547 ,0.76574 ,3.54979 ,34.83054 
95 ,17.3466 ,0.76768 ,3.55321 ,34.86412 
96 ,17.5229 ,0.76947 ,3.52926 ,34.62907 
97 ,17.7149 ,0.77135 ,3.50530 ,34.39402 
98 ,17.9070 ,0.77325 ,3.48819 ,34.22613 
99 ,18.1151 ,0.77527 ,3.48135 ,34.15898 
100 ,18.3068 ,0.77726 ,3.46424 ,33.99108 
101 ,18.4832 ,0.77903 ,3.45055 ,33.85677 
102 ,18.6752 ,0.78096 ,3.41290 ,33.48741 
103 ,18.8514 ,0.78274 ,3.40264 ,33.38667 
104 ,19.0433 ,0.78466 ,3.40264 ,33.38667 
105 ,19.2195 ,0.78645 ,3.38210 ,33.18520 
106 ,19.4114 ,0.78830 ,3.35130 ,32.88300 
107 ,19.5877 ,0.79005 ,3.33762 ,32.74869 
108 ,19.7954 ,0.79209 ,3.31366 ,32.51364 
109 ,19.9723 ,0.79387 ,3.29997 ,32.37933 
110 ,20.1475 ,0.79569 ,3.28628 ,32.24501 
111 ,20.3400 ,0.79752 ,3.28628 ,32.24501 
112 ,20.5319 ,0.79954 ,3.24522 ,31.84207 
113 ,20.7080 ,0.80122 ,3.23495 ,31.74134 
114 ,20.9321 ,0.80336 ,3.23153 ,31.70776 
115 ,21.1081 ,0.80526 ,3.20073 ,31.40555 
116 ,21.2682 ,0.80695 ,3.20073 ,31.40555 
117 ,21.4443 ,0.80861 ,3.18362 ,31.23766 
118 ,21.6205 ,0.81037 ,3.16651 ,31.06977 
119 ,21.7965 ,0.81215 ,3.13913 ,30.80115 
120 ,21.9886 ,0.81402 ,3.12544 ,30.66683 
121 ,22.1806 ,0.81601 ,3.12886 ,30.70041 
122 ,22.3565 ,0.81773 ,3.08780 ,30.29747 
123 ,22.5489 ,0.81960 ,3.07411 ,30.16316 
124 ,22.7248 ,0.82143 ,3.07069 ,30.12958 
125 ,22.9006 ,0.82318 ,3.06042 ,30.02884 
126 ,23.0772 ,0.82496 ,3.02962 ,29.72664 
127 ,23.2692 ,0.82689 ,3.02620 ,29.69306 
128 ,23.4613 ,0.82872 ,3.00567 ,29.49159 
129 ,23.6532 ,0.83072 ,2.98171 ,29.25654 
130 ,23.8294 ,0.83248 ,2.96118 ,29.05507 
131 ,24.0213 ,0.83432 ,2.96118 ,29.05507 
132 ,24.1976 ,0.83617 ,2.94749 ,28.92076 
133 ,24.3732 ,0.83792 ,2.90985 ,28.55140 
134 ,24.5492 ,0.83970 ,2.88247 ,28.28277 
135 ,24.7251 ,0.84148 ,2.88589 ,28.31635 
136 ,24.9014 ,0.84314 ,2.87905 ,28.24919 
137 ,25.0937 ,0.84503 ,2.84482 ,27.91341 
138 ,25.3019 ,0.84716 ,2.83456 ,27.81268 
139 ,25.4777 ,0.84894 ,2.81402 ,27.61121 
140 ,25.6540 ,0.85072 ,2.80034 ,27.47689 
141 ,25.8302 ,0.85248 ,2.79007 ,27.37616 
142 ,26.0222 ,0.85433 ,2.78322 ,27.30900 
143 ,26.1983 ,0.85615 ,2.76269 ,27.10753 
144 ,26.3743 ,0.85790 ,2.73531 ,26.83891 
145 ,26.5504 ,0.85967 ,2.71136 ,26.60386 
146 ,26.7263 ,0.86140 ,2.71478 ,26.63744 
147 ,26.9024 ,0.86318 ,2.70452 ,26.53670 
148 ,27.0945 ,0.86506 ,2.66345 ,26.13376 
149 ,27.2864 ,0.86704 ,2.66003 ,26.10018 
150 ,27.4634 ,0.86881 ,2.65660 ,26.06661 
151 ,27.6549 ,0.87070 ,2.63265 ,25.83156 
152 ,27.8627 ,0.87271 ,2.61896 ,25.69724 
153 ,28.0550 ,0.87471 ,2.58474 ,25.36146 
154 ,28.2312 ,0.87647 ,2.56078 ,25.12641 
155 ,28.4391 ,0.87847 ,2.56421 ,25.15999 
156 ,28.6149 ,0.88031 ,2.54025 ,24.92494 
157 ,28.7914 ,0.88210 ,2.52314 ,24.75705 
158 ,28.9994 ,0.88410 ,2.50261 ,24.55558 
159 ,29.2075 ,0.88616 ,2.49234 ,24.45485 
160 ,29.3836 ,0.88802 ,2.48550 ,24.38769 
161 ,29.5597 ,0.88978 ,2.47865 ,24.32053 
162 ,29.7355 ,0.89148 ,2.44443 ,23.98475 
163 ,29.9119 ,0.89323 ,2.42732 ,23.81686 
164 ,30.1039 ,0.89523 ,2.41363 ,23.68255 
165 ,30.2960 ,0.89713 ,2.39652 ,23.51465 
166 ,30.4878 ,0.89902 ,2.38283 ,23.38034 
167 ,30.6642 ,0.90077 ,2.37256 ,23.27961 
168 ,30.8562 ,0.90264 ,2.33834 ,22.94382 
169 ,31.0483 ,0.90463 ,2.33150 ,22.87667 
170 ,31.2401 ,0.90650 ,2.31781 ,22.74235 
171 ,31.4164 ,0.90828 ,2.29043 ,22.47373 
172 ,31.5925 ,0.91007 ,2.28359 ,22.40657 
173 ,31.7522 ,0.91179 ,2.26306 ,22.20510 
174 ,31.9126 ,0.91339 ,2.24594 ,22.03721 
175 ,32.0887 ,0.91501 ,2.23568 ,21.93647 
176 ,32.2809 ,0.91689 ,2.23910 ,21.97005 
177 ,32.4569 ,0.91871 ,2.21172 ,21.70143 
178 ,32.6490 ,0.92056 ,2.18435 ,21.43280 
179 ,32.8247 ,0.92246 ,2.18092 ,21.39922 
180 ,33.0012 ,0.92416 ,2.17066 ,21.29849 
181 ,33.1932 ,0.92606 ,2.14328 ,21.02986 
182 ,33.3693 ,0.92781 ,2.12617 ,20.86197 
183 ,33.5614 ,0.92977 ,2.11932 ,20.79481 
184 ,33.7535 ,0.93170 ,2.08168 ,20.42545 
185 ,33.9290 ,0.93346 ,2.07826 ,20.39187 
186 ,34.1057 ,0.93520 ,2.07484 ,20.35829 
187 ,34.2976 ,0.93712 ,2.06115 ,20.22398 
188 ,34.4743 ,0.93887 ,2.03377 ,19.95535 
189 ,34.6499 ,0.94063 ,2.02350 ,19.85462 
190 ,34.8415 ,0.94257 ,2.01666 ,19.78746 
191 ,35.0178 ,0.94425 ,1.99955 ,19.61957 
192 ,35.1939 ,0.94606 ,1.96533 ,19.28379 
193 ,35.3702 ,0.94786 ,1.95506 ,19.18305 
194 ,35.5621 ,0.94977 ,1.94479 ,19.08232 
195 ,35.7382 ,0.95151 ,1.92768 ,18.91443 
196 ,35.9303 ,0.95339 ,1.91057 ,18.74654 
197 ,36.1063 ,0.95527 ,1.90373 ,18.67938 
198 ,36.2823 ,0.95697 ,1.89004 ,18.54507 
199 ,36.4586 ,0.95868 ,1.87635 ,18.41075 
200 ,36.6506 ,0.96056 ,1.84213 ,18.07497 
201 ,36.8426 ,0.96256 ,1.83871 ,18.04139 
202 ,37.0187 ,0.96430 ,1.83528 ,18.00781 
203 ,37.1948 ,0.96607 ,1.80449 ,17.70561 
204 ,37.4029 ,0.96814 ,1.79764 ,17.63845 
205 ,37.5950 ,0.97002 ,1.77369 ,17.40340 
206 ,37.8030 ,0.97209 ,1.77026 ,17.36983 
207 ,37.9790 ,0.97388 ,1.74631 ,17.13478 
208 ,38.1548 ,0.97569 ,1.72235 ,16.89973 
209 ,38.3313 ,0.97747 ,1.69840 ,16.66468 
210 ,38.5073 ,0.97916 ,1.69155 ,16.59752 
211 ,38.6991 ,0.98111 ,1.69155 ,16.59752 
212 ,38.8755 ,0.98287 ,1.65733 ,16.26174 
213 ,39.0676 ,0.98474 ,1.65391 ,16.22816 
214 ,39.2757 ,0.98682 ,1.62995 ,15.99311 
215 ,39.4678 ,0.98879 ,1.61627 ,15.85880 
216 ,39.6439 ,0.99058 ,1.60258 ,15.72449 
217 ,39.8359 ,0.99248 ,1.59573 ,15.65733 
218 ,40.0440 ,0.99452 ,1.57178 ,15.42228 
219 ,40.2358 ,0.99641 ,1.55467 ,15.25439 
220 ,40.4281 ,0.99835 ,1.53071 ,15.01934 
221 ,40.6357 ,1.00042 ,1.52387 ,14.95219 
222 ,40.8123 ,1.00222 ,1.51360 ,14.85145 
223 ,41.0365 ,1.00437 ,1.50333 ,14.75072 
224 ,41.2285 ,1.00640 ,1.46911 ,14.41493 
225 ,41.4041 ,1.00813 ,1.45542 ,14.28062 
226 ,41.5806 ,1.00994 ,1.45200 ,14.24704 
227 ,41.7566 ,1.01166 ,1.43831 ,14.11273 
228 ,41.9488 ,1.01364 ,1.41778 ,13.91126 
229 ,42.1409 ,1.01551 ,1.41436 ,13.87768 
230 ,42.3329 ,1.01743 ,1.39040 ,13.64263 
231 ,42.4929 ,1.01915 ,1.36303 ,13.37401 
232 ,42.6851 ,1.02092 ,1.36303 ,13.37401 
233 ,42.8613 ,1.02275 ,1.35276 ,13.27327 
234 ,43.0372 ,1.02447 ,1.34591 ,13.20612 
235 ,43.2132 ,1.02625 ,1.32538 ,13.00465 
236 ,43.3894 ,1.02796 ,1.29458 ,12.70244 
237 ,43.5655 ,1.02978 ,1.28432 ,12.60171 
238 ,43.7414 ,1.03154 ,1.29116 ,12.66886 
239 ,43.9012 ,1.03323 ,1.27405 ,12.50097 
240 ,44.0934 ,1.03495 ,1.23983 ,12.16519 
241 ,44.2700 ,1.03677 ,1.21587 ,11.93014 
242 ,44.4458 ,1.03857 ,1.21587 ,11.93014 
243 ,44.6219 ,1.04032 ,1.21245 ,11.89656 
244 ,44.7979 ,1.04205 ,1.20561 ,11.82941 
245 ,44.9745 ,1.04384 ,1.19534 ,11.72867 
246 ,45.1501 ,1.04562 ,1.15427 ,11.32573 
247 ,45.3262 ,1.04736 ,1.15427 ,11.32573 
248 ,45.5023 ,1.04912 ,1.14743 ,11.25857 
249 ,45.6943 ,1.05101 ,1.13032 ,11.09068 
250 ,45.8863 ,1.05295 ,1.10636 ,10.85563 
251 ,46.0782 ,1.05482 ,1.09952 ,10.78848 
252 ,46.2547 ,1.05667 ,1.09267 ,10.72132 
253 ,46.4466 ,1.05852 ,1.07214 ,10.51985 
254 ,46.6227 ,1.06031 ,1.04819 ,10.28480 
255 ,46.7987 ,1.06209 ,1.04476 ,10.25123 
256 ,46.9749 ,1.06397 ,1.02423 ,10.04976 
257 ,47.1668 ,1.06575 ,1.00712 ,9.88186 
258 ,47.3431 ,1.06756 ,1.00370 ,9.84829 
259 ,47.5191 ,1.06932 ,0.99685 ,9.78113 
260 ,47.6948 ,1.07103 ,0.97974 ,9.61324 
261 ,47.8714 ,1.07283 ,0.96263 ,9.44535 
262 ,48.0472 ,1.07454 ,0.94552 ,9.27745 
263 ,48.2231 ,1.07633 ,0.93525 ,9.17672 
264 ,48.4155 ,1.07818 ,0.92841 ,9.10956 
265 ,48.5915 ,1.08003 ,0.90788 ,8.90809 
266 ,48.7673 ,1.08174 ,0.89419 ,8.77378 
267 ,48.9433 ,1.08352 ,0.87366 ,8.57231 
268 ,49.1197 ,1.08530 ,0.88392 ,8.67305 
269 ,49.2956 ,1.08702 ,0.87708 ,8.60589 
270 ,49.4723 ,1.08884 ,0.84628 ,8.30368 
271 ,49.6640 ,1.09072 ,0.83601 ,8.20295 
272 ,49.8397 ,1.09244 ,0.82917 ,8.13579 
273 ,50.0163 ,1.09425 ,0.81890 ,8.03506 
274 ,50.2239 ,1.09626 ,0.78810 ,7.73285 
275 ,50.4004 ,1.09804 ,0.77784 ,7.63212 
276 ,50.5760 ,1.09983 ,0.78126 ,7.66570 
277 ,50.7525 ,1.10161 ,0.75730 ,7.43065 
278 ,50.9442 ,1.10350 ,0.71966 ,7.06129 
279 ,51.1206 ,1.10526 ,0.72650 ,7.12844 
280 ,51.2965 ,1.10698 ,0.72650 ,7.12844 
281 ,51.4888 ,1.10888 ,0.68886 ,6.75908 
282 ,51.6648 ,1.11075 ,0.66833 ,6.55761 
283 ,51.8409 ,1.11249 ,0.67517 ,6.62477 
284 ,52.0329 ,1.11449 ,0.64095 ,6.28899 
285 ,52.2088 ,1.11612 ,0.63753 ,6.25541 
286 ,52.3852 ,1.11793 ,0.61357 ,6.02036 
287 ,52.5771 ,1.11978 ,0.61699 ,6.05394 
288 ,52.7694 ,1.12179 ,0.59988 ,5.88605 
289 ,52.9453 ,1.12363 ,0.58277 ,5.71815 
290 ,53.1211 ,1.12528 ,0.56908 ,5.58384 
291 ,53.3134 ,1.12714 ,0.56566 ,5.55026 
292 ,53.4895 ,1.12899 ,0.53486 ,5.24806 
293 ,53.6658 ,1.13074 ,0.52802 ,5.18090 
294 ,53.8418 ,1.13246 ,0.52117 ,5.11375 
295 ,54.0177 ,1.13428 ,0.50406 ,4.94585 
296 ,54.1939 ,1.13602 ,0.50748 ,4.97943 
297 ,54.3858 ,1.13797 ,0.49037 ,4.81154 
298 ,54.5621 ,1.13971 ,0.46642 ,4.57649 
299 ,54.7379 ,1.14144 ,0.45957 ,4.50934 
300 ,54.9140 ,1.14323 ,0.44931 ,4.40860 
301 ,55.1063 ,1.14510 ,0.40824 ,4.00566 
302 ,55.2982 ,1.14704 ,0.41851 ,4.10640 
303 ,55.4903 ,1.14901 ,0.39797 ,3.90493 
304 ,55.6822 ,1.15090 ,0.36375 ,3.56914 
305 ,55.8585 ,1.15262 ,0.36375 ,3.56914 
306 ,56.2265 ,1.15535 ,0.36033 ,3.53557 
307 ,56.4188 ,1.15820 ,0.32611 ,3.19978 
308 ,56.6110 ,1.16020 ,0.32269 ,3.16620 
309 ,56.8030 ,1.16199 ,0.30900 ,3.03189 
310 ,56.9949 ,1.16399 ,0.28504 ,2.79684 
311 ,57.1712 ,1.16580 ,0.28847 ,2.83042 
312 ,57.3472 ,1.16750 ,0.25767 ,2.52822 
313 ,57.5392 ,1.16943 ,0.25767 ,2.52822 
314 ,57.7149 ,1.17134 ,0.23371 ,2.29317 
315 ,57.8749 ,1.17292 ,0.22687 ,2.22601 
316 ,58.0510 ,1.17453 ,0.22002 ,2.15885 
317 ,58.2434 ,1.17636 ,0.20291 ,1.99096 
318 ,58.4515 ,1.17848 ,0.18922 ,1.85665 
319 ,58.6276 ,1.18033 ,0.18580 ,1.82307 
320 ,58.8198 ,1.18217 ,0.17896 ,1.75592 
321 ,59.0119 ,1.18416 ,0.16527 ,1.62160 
322 ,59.2520 ,1.18642 ,0.14816 ,1.45371 
323 ,59.4436 ,1.18845 ,0.14816 ,1.45371 
324 ,59.6200 ,1.19025 ,0.12078 ,1.18508 
325 ,59.7963 ,1.19199 ,0.11393 ,1.11793 
326 ,59.9882 ,1.19391 ,0.08998 ,0.88288 
327 ,60.1642 ,1.19571 ,0.07287 ,0.71499 
328 ,60.3400 ,1.19744 ,0.07971 ,0.78214 
329 ,60.5001 ,1.19915 ,0.06945 ,0.68141 
330 ,60.6762 ,1.20079 ,0.05918 ,0.58067 
331 ,60.8521 ,1.20257 ,0.04207 ,0.41278 
332 ,61.0285 ,1.20433 ,0.02838 ,0.27847 
333 ,61.2208 ,1.20617 ,0.01127 ,0.11058 
334 ,61.3966 ,1.20799 ,0.00443 ,0.04342 
335 ,61.5726 ,1.20971 ,0.00443 ,0.04342 
336 ,61.7489 ,1.21158 ,-0.01269 ,-0.12447 
337 ,61.9410 ,1.21342 ,-0.04006 ,-0.39310 
338 ,62.1329 ,1.21524 ,-0.04691 ,-0.46025 
339 ,62.3412 ,1.21737 ,-0.05033 ,-0.49383 
340 ,62.5171 ,1.21920 ,-0.07086 ,-0.69530 
341 ,62.6931 ,1.22102 ,-0.08797 ,-0.86319 
342 ,62.8854 ,1.22277 ,-0.08455 ,-0.82961 
343 ,63.0775 ,1.22478 ,-0.10508 ,-1.03108 
344 ,63.2535 ,1.22653 ,-0.10166 ,-0.99751 
345 ,63.4295 ,1.22830 ,-0.11193 ,-1.09824 
346 ,63.6217 ,1.23010 ,-0.13588 ,-1.33329 
347 ,63.7976 ,1.23197 ,-0.14273 ,-1.40045 
348 ,63.9899 ,1.23388 ,-0.15642 ,-1.53476 
349 ,64.1818 ,1.23580 ,-0.18379 ,-1.80338 
350 ,64.3742 ,1.23774 ,-0.17695 ,-1.73623 
351 ,64.5660 ,1.23964 ,-0.20775 ,-2.03843 
352 ,64.7418 ,1.24158 ,-0.21117 ,-2.07201 
353 ,64.9179 ,1.24322 ,-0.22828 ,-2.23990 
354 ,65.1104 ,1.24504 ,-0.22486 ,-2.20632 
355 ,65.2863 ,1.24690 ,-0.22828 ,-2.23990 
356 ,65.4623 ,1.24864 ,-0.26250 ,-2.57569 
357 ,65.6386 ,1.25036 ,-0.25908 ,-2.54211 
358 ,65.8143 ,1.25217 ,-0.25566 ,-2.50853 
359 ,66.0067 ,1.25398 ,-0.27619 ,-2.71000 
360 ,66.1989 ,1.25596 ,-0.28646 ,-2.81073 
361 ,66.3750 ,1.25775 ,-0.29673 ,-2.91147 
362 ,66.5672 ,1.25966 ,-0.31041 ,-3.04578 
363 ,66.7431 ,1.26144 ,-0.31384 ,-3.07936 
364 ,66.9186 ,1.26321 ,-0.34464 ,-3.38156 
365 ,67.0951 ,1.26497 ,-0.34121 ,-3.34799 
366 ,67.2871 ,1.26685 ,-0.35832 ,-3.51588 
367 ,67.4634 ,1.26864 ,-0.36517 ,-3.58303 
368 ,67.6552 ,1.27049 ,-0.37201 ,-3.65019 
369 ,67.8474 ,1.27248 ,-0.38228 ,-3.75093 
370 ,68.0234 ,1.27422 ,-0.40281 ,-3.95240 
371 ,68.1995 ,1.27602 ,-0.41992 ,-4.12029 
372 ,68.3756 ,1.27775 ,-0.40623 ,-3.98597 
373 ,68.5515 ,1.27953 ,-0.40623 ,-3.98597 
374 ,68.7439 ,1.28141 ,-0.44730 ,-4.38891 
375 ,68.9199 ,1.28325 ,-0.46099 ,-4.52323 
376 ,69.0959 ,1.28495 ,-0.45414 ,-4.45607 
377 ,69.2877 ,1.28685 ,-0.46099 ,-4.52323 
378 ,69.4642 ,1.28864 ,-0.48152 ,-4.72470 
379 ,69.6722 ,1.29062 ,-0.49521 ,-4.85901 
380 ,69.8644 ,1.29268 ,-0.51232 ,-5.02690 
381 ,70.0404 ,1.29444 ,-0.52259 ,-5.12764 
382 ,70.2485 ,1.29641 ,-0.51917 ,-5.09406 
383 ,70.4405 ,1.29839 ,-0.53628 ,-5.26195 
384 ,70.6165 ,1.30015 ,-0.53970 ,-5.29553 
385 ,70.7926 ,1.30192 ,-0.52943 ,-5.19479 
386 ,70.9527 ,1.30364 ,-0.53970 ,-5.29553 
387 ,71.1285 ,1.30527 ,-0.56708 ,-5.56415 
388 ,71.3049 ,1.30706 ,-0.56365 ,-5.53058 
389 ,71.4968 ,1.30894 ,-0.58761 ,-5.76562 
390 ,71.6889 ,1.31084 ,-0.59103 ,-5.79920 
391 ,71.8650 ,1.31267 ,-0.60814 ,-5.96709 
392 ,72.0412 ,1.31437 ,-0.63552 ,-6.23572 
393 ,72.2169 ,1.31613 ,-0.63552 ,-6.23572 
394 ,72.4094 ,1.31798 ,-0.63552 ,-6.23572 
395 ,72.5854 ,1.31988 ,-0.65263 ,-6.40361 
396 ,72.7615 ,1.32161 ,-0.67316 ,-6.60508 
397 ,72.9375 ,1.32339 ,-0.66974 ,-6.57150 
398 ,73.1136 ,1.32508 ,-0.67659 ,-6.63866 
399 ,73.2896 ,1.32692 ,-0.66974 ,-6.57150 
400 ,73.4818 ,1.32877 ,-0.69712 ,-6.84013 
401 ,73.6577 ,1.33059 ,-0.71765 ,-7.04160 
402 ,73.8500 ,1.33240 ,-0.71765 ,-7.04160 
403 ,74.0260 ,1.33423 ,-0.72107 ,-7.07518 
404 ,74.2179 ,1.33613 ,-0.75187 ,-7.37738 
405 ,74.3937 ,1.33791 ,-0.74845 ,-7.34380 
406 ,74.5702 ,1.33968 ,-0.75530 ,-7.41096 
407 ,74.7462 ,1.34140 ,-0.74845 ,-7.34380 
408 ,74.9223 ,1.34320 ,-0.77583 ,-7.61243 
409 ,75.0984 ,1.34495 ,-0.79636 ,-7.81390 
410 ,75.2905 ,1.34691 ,-0.78610 ,-7.71317 
411 ,75.4825 ,1.34878 ,-0.81005 ,-7.94821 
412 ,75.6586 ,1.35053 ,-0.83058 ,-8.14968 
413 ,75.8508 ,1.35242 ,-0.82032 ,-8.04895 
414 ,76.0268 ,1.35423 ,-0.83058 ,-8.14968 
415 ,76.2349 ,1.35618 ,-0.85112 ,-8.35115 
416 ,76.4110 ,1.35811 ,-0.84085 ,-8.25042 
417 ,76.5867 ,1.35991 ,-0.87507 ,-8.58620 
418 ,76.7630 ,1.36171 ,-0.88534 ,-8.68694 
419 ,76.9390 ,1.36332 ,-0.88534 ,-8.68694 
420 ,77.1312 ,1.36523 ,-0.88534 ,-8.68694 
421 ,77.3072 ,1.36707 ,-0.89560 ,-8.78767 
422 ,77.4833 ,1.36881 ,-0.90245 ,-8.85483 
423 ,77.6913 ,1.37079 ,-0.91614 ,-8.98914 
424 ,77.8835 ,1.37283 ,-0.92298 ,-9.05630 
425 ,78.0594 ,1.37459 ,-0.93325 ,-9.15703 
426 ,78.2357 ,1.37631 ,-0.94351 ,-9.25777 
427 ,78.4275 ,1.37815 ,-0.93667 ,-9.19061 
428 ,78.6035 ,1.37997 ,-0.96747 ,-9.49282 
429 ,78.7795 ,1.38179 ,-0.95720 ,-9.39208 
430 ,78.9559 ,1.38347 ,-0.98458 ,-9.66071 
431 ,79.1480 ,1.38545 ,-0.96405 ,-9.45924 
432 ,79.3242 ,1.38721 ,-0.95720 ,-9.39208 
433 ,79.5161 ,1.38920 ,-0.98458 ,-9.66071 
434 ,79.6918 ,1.39084 ,-0.99143 ,-9.72786 
435 ,79.8684 ,1.39264 ,-0.98116 ,-9.62713 
436 ,80.0444 ,1.39439 ,-0.99485 ,-9.76144 
437 ,80.2366 ,1.39632 ,-1.01538 ,-9.96291 
438 ,80.4285 ,1.39825 ,-1.02907 ,-10.09723 
439 ,80.6207 ,1.40007 ,-1.01880 ,-9.99649 
440 ,80.7968 ,1.40191 ,-1.03934 ,-10.19796 
441 ,80.9728 ,1.40366 ,-1.04618 ,-10.26512 
442 ,81.1487 ,1.40546 ,-1.05987 ,-10.39943 
443 ,81.3409 ,1.40739 ,-1.07014 ,-10.50016 
444 ,81.5170 ,1.40909 ,-1.08725 ,-10.66806 
445 ,81.7091 ,1.41102 ,-1.08725 ,-10.66806 
446 ,81.8852 ,1.41278 ,-1.08040 ,-10.60090 
447 ,82.0932 ,1.41486 ,-1.10093 ,-10.80237 
448 ,82.2853 ,1.41679 ,-1.10436 ,-10.83595 
449 ,82.4615 ,1.41858 ,-1.12489 ,-11.03742 
450 ,82.6535 ,1.42052 ,-1.13858 ,-11.17173 
451 ,82.8453 ,1.42234 ,-1.13516 ,-11.13815 
452 ,83.0216 ,1.42418 ,-1.15227 ,-11.30604 
453 ,83.1817 ,1.42588 ,-1.17964 ,-11.57467 
454 ,83.3578 ,1.42750 ,-1.17964 ,-11.57467 
455 ,83.5820 ,1.42950 ,-1.18649 ,-11.64183 
456 ,83.7899 ,1.43183 ,-1.18991 ,-11.67541 
457 ,83.9661 ,1.43358 ,-1.19333 ,-11.70898 
458 ,84.1581 ,1.43556 ,-1.21387 ,-11.91045 
459 ,84.3822 ,1.43760 ,-1.20360 ,-11.80972 
460 ,84.5579 ,1.43956 ,-1.22755 ,-12.04477 
461 ,84.7342 ,1.44125 ,-1.24124 ,-12.17908 
