Data stamp = , 04-04-2022 16:41:32 495

Calibration Values: 
Slope = , 26.54 , g/V 
Offset Voltage at no contact = , -0.501760 , V 

No , Time , Stage Position ,   Mass , Force 
   ,  (s) ,      (mm)      ,   (g)  , (mN)  

1 ,0.0000 ,0.59946 ,5.16848 ,50.71308 
2 ,0.2141 ,0.59955 ,5.16848 ,50.71308 
3 ,0.6302 ,0.60075 ,5.15479 ,50.57876 
4 ,0.8226 ,0.60250 ,5.14794 ,50.51161 
5 ,0.9986 ,0.60423 ,5.15479 ,50.57876 
6 ,1.1905 ,0.60610 ,5.17874 ,50.81381 
7 ,1.3828 ,0.60796 ,5.15479 ,50.57876 
8 ,1.5747 ,0.60990 ,5.15821 ,50.61234 
9 ,1.7666 ,0.61181 ,5.14794 ,50.51161 
10 ,1.9430 ,0.61365 ,5.11714 ,50.20940 
11 ,2.1508 ,0.61573 ,5.14110 ,50.44445 
12 ,2.3432 ,0.61765 ,5.11372 ,50.17583 
13 ,2.5351 ,0.61961 ,5.11372 ,50.17583 
14 ,2.7272 ,0.62144 ,5.07608 ,49.80646 
15 ,2.9030 ,0.62327 ,5.05554 ,49.60499 
16 ,3.0795 ,0.62499 ,5.06239 ,49.67215 
17 ,3.2714 ,0.62703 ,5.07265 ,49.77289 
18 ,3.4475 ,0.62870 ,5.03159 ,49.36995 
19 ,3.6240 ,0.63045 ,5.03501 ,49.40352 
20 ,3.7997 ,0.63226 ,4.99737 ,49.03416 
21 ,4.0077 ,0.63420 ,5.00421 ,49.10132 
22 ,4.1994 ,0.63624 ,4.96999 ,48.76554 
23 ,4.4075 ,0.63819 ,4.93577 ,48.42975 
24 ,4.5998 ,0.64020 ,4.93919 ,48.46333 
25 ,4.8079 ,0.64226 ,4.90839 ,48.16113 
26 ,5.0320 ,0.64449 ,4.89812 ,48.06039 
27 ,5.2403 ,0.64659 ,4.88101 ,47.89250 
28 ,5.4804 ,0.64898 ,4.84679 ,47.55672 
29 ,5.6724 ,0.65093 ,4.83652 ,47.45598 
30 ,5.8486 ,0.65271 ,4.80915 ,47.18736 
31 ,6.0248 ,0.65449 ,4.79204 ,47.01946 
32 ,6.2166 ,0.65640 ,4.77835 ,46.88515 
33 ,6.3928 ,0.65817 ,4.76124 ,46.71726 
34 ,6.5528 ,0.65985 ,4.73728 ,46.48221 
35 ,6.7446 ,0.66166 ,4.72359 ,46.34790 
36 ,6.9209 ,0.66346 ,4.69622 ,46.07927 
37 ,7.0968 ,0.66524 ,4.66199 ,45.74349 
38 ,7.2728 ,0.66692 ,4.68595 ,45.97854 
39 ,7.4651 ,0.66881 ,4.65173 ,45.64275 
40 ,7.6413 ,0.67064 ,4.61751 ,45.30697 
41 ,7.8177 ,0.67244 ,4.59697 ,45.10550 
42 ,8.0259 ,0.67435 ,4.59013 ,45.03835 
43 ,8.2339 ,0.67654 ,4.59013 ,45.03835 
44 ,8.4251 ,0.67851 ,4.54564 ,44.60183 
45 ,8.6172 ,0.68042 ,4.53880 ,44.53467 
46 ,8.8092 ,0.68227 ,4.53537 ,44.50109 
47 ,8.9852 ,0.68403 ,4.49089 ,44.06457 
48 ,9.1454 ,0.68574 ,4.49773 ,44.13173 
49 ,9.3216 ,0.68743 ,4.47035 ,43.86310 
50 ,9.5775 ,0.68993 ,4.46693 ,43.82953 
51 ,9.7539 ,0.69177 ,4.43271 ,43.49374 
52 ,9.9304 ,0.69355 ,4.41218 ,43.29227 
53 ,10.1219 ,0.69539 ,4.41560 ,43.32585 
54 ,10.3142 ,0.69729 ,4.39164 ,43.09080 
55 ,10.4901 ,0.69909 ,4.36084 ,42.78860 
56 ,10.6660 ,0.70087 ,4.35058 ,42.68786 
57 ,10.8422 ,0.70266 ,4.34716 ,42.65429 
58 ,11.0343 ,0.70454 ,4.32320 ,42.41924 
59 ,11.2264 ,0.70649 ,4.30609 ,42.25135 
60 ,11.4185 ,0.70837 ,4.29582 ,42.15061 
61 ,11.5945 ,0.71019 ,4.27871 ,41.98272 
62 ,11.7706 ,0.71186 ,4.24107 ,41.61336 
63 ,11.9467 ,0.71368 ,4.23765 ,41.57978 
64 ,12.1388 ,0.71560 ,4.23422 ,41.54620 
65 ,12.3308 ,0.71748 ,4.18974 ,41.10968 
66 ,12.5243 ,0.71942 ,4.18631 ,41.07611 
67 ,12.7469 ,0.72149 ,4.17262 ,40.94179 
68 ,12.9232 ,0.72344 ,4.14867 ,40.70674 
69 ,13.1469 ,0.72564 ,4.12471 ,40.47170 
70 ,13.3230 ,0.72745 ,4.10760 ,40.30380 
71 ,13.5313 ,0.72935 ,4.10760 ,40.30380 
72 ,13.7552 ,0.73172 ,4.05969 ,39.83371 
73 ,13.9315 ,0.73353 ,4.04943 ,39.73297 
74 ,14.1397 ,0.73557 ,4.04600 ,39.69940 
75 ,14.3319 ,0.73749 ,4.01863 ,39.43077 
76 ,14.5399 ,0.73958 ,4.00836 ,39.33003 
77 ,14.7161 ,0.74136 ,3.97414 ,38.99425 
78 ,14.8921 ,0.74312 ,3.96387 ,38.89352 
79 ,15.0842 ,0.74499 ,3.96387 ,38.89352 
80 ,15.2602 ,0.74678 ,3.94676 ,38.72562 
81 ,15.4361 ,0.74851 ,3.91938 ,38.45700 
82 ,15.6123 ,0.75036 ,3.91596 ,38.42342 
83 ,15.7885 ,0.75204 ,3.88174 ,38.08764 
84 ,15.9806 ,0.75395 ,3.88516 ,38.12122 
85 ,16.1724 ,0.75589 ,3.83041 ,37.58396 
86 ,16.3488 ,0.75765 ,3.80645 ,37.34891 
87 ,16.5407 ,0.75959 ,3.84410 ,37.71828 
88 ,16.7168 ,0.76146 ,3.78592 ,37.14744 
89 ,16.8925 ,0.76310 ,3.77565 ,37.04671 
90 ,17.0845 ,0.76503 ,3.75512 ,36.84524 
91 ,17.2782 ,0.76692 ,3.76196 ,36.91240 
92 ,17.4692 ,0.76876 ,3.73117 ,36.61019 
93 ,17.7412 ,0.77147 ,3.70037 ,36.30799 
94 ,17.9494 ,0.77357 ,3.70037 ,36.30799 
95 ,18.1252 ,0.77542 ,3.68668 ,36.17367 
96 ,18.3013 ,0.77717 ,3.65930 ,35.90505 
97 ,18.4934 ,0.77905 ,3.63877 ,35.70358 
98 ,18.7017 ,0.78110 ,3.63192 ,35.63642 
99 ,18.8938 ,0.78312 ,3.60112 ,35.33422 
100 ,19.0694 ,0.78488 ,3.57032 ,35.03201 
101 ,19.2614 ,0.78672 ,3.58059 ,35.13275 
102 ,19.4374 ,0.78851 ,3.55321 ,34.86412 
103 ,19.6300 ,0.79033 ,3.51899 ,34.52834 
104 ,19.8701 ,0.79278 ,3.51899 ,34.52834 
105 ,20.0781 ,0.79492 ,3.49504 ,34.29329 
106 ,20.2542 ,0.79669 ,3.46424 ,33.99108 
107 ,20.4308 ,0.79848 ,3.45055 ,33.85677 
108 ,20.6064 ,0.80020 ,3.43686 ,33.72246 
109 ,20.7984 ,0.80209 ,3.45739 ,33.92393 
110 ,20.9745 ,0.80391 ,3.38895 ,33.25236 
111 ,21.1508 ,0.80566 ,3.40606 ,33.42025 
112 ,21.3585 ,0.80766 ,3.37868 ,33.15163 
113 ,21.5508 ,0.80972 ,3.35815 ,32.95016 
114 ,21.7429 ,0.81157 ,3.34446 ,32.81584 
115 ,21.9350 ,0.81349 ,3.31366 ,32.51364 
116 ,22.1109 ,0.81533 ,3.30682 ,32.44648 
117 ,22.2867 ,0.81697 ,3.28628 ,32.24501 
118 ,22.4631 ,0.81881 ,3.26233 ,32.00996 
119 ,22.6549 ,0.82068 ,3.24180 ,31.80849 
120 ,22.8472 ,0.82260 ,3.23153 ,31.70776 
121 ,23.0236 ,0.82439 ,3.21100 ,31.50629 
122 ,23.1994 ,0.82617 ,3.19388 ,31.33840 
123 ,23.3755 ,0.82788 ,3.16309 ,31.03619 
124 ,23.5515 ,0.82967 ,3.14255 ,30.83472 
125 ,23.7275 ,0.83139 ,3.14255 ,30.83472 
126 ,23.9037 ,0.83317 ,3.11518 ,30.56610 
127 ,24.0958 ,0.83514 ,3.08780 ,30.29747 
128 ,24.2718 ,0.83688 ,3.05015 ,29.92811 
129 ,24.4639 ,0.83875 ,3.06384 ,30.06242 
130 ,24.6400 ,0.84059 ,3.04331 ,29.86095 
131 ,24.8160 ,0.84229 ,3.01251 ,29.55875 
132 ,25.0080 ,0.84426 ,2.97829 ,29.22297 
133 ,25.1842 ,0.84597 ,2.95091 ,28.95434 
134 ,25.3443 ,0.84771 ,2.96118 ,29.05507 
135 ,25.5360 ,0.84946 ,2.95091 ,28.95434 
136 ,25.8082 ,0.85200 ,2.94064 ,28.85360 
137 ,26.0006 ,0.85410 ,2.88931 ,28.34993 
138 ,26.1764 ,0.85592 ,2.89273 ,28.38351 
139 ,26.3687 ,0.85784 ,2.88589 ,28.31635 
140 ,26.5443 ,0.85954 ,2.86536 ,28.11488 
141 ,26.7209 ,0.86134 ,2.83456 ,27.81268 
142 ,26.9125 ,0.86325 ,2.83114 ,27.77910 
143 ,27.0890 ,0.86500 ,2.82087 ,27.67836 
144 ,27.2969 ,0.86707 ,2.79007 ,27.37616 
145 ,27.4728 ,0.86886 ,2.76954 ,27.17469 
146 ,27.6490 ,0.87058 ,2.76611 ,27.14111 
147 ,27.8572 ,0.87271 ,2.72847 ,26.77175 
148 ,28.0493 ,0.87455 ,2.73189 ,26.80533 
149 ,28.2254 ,0.87638 ,2.71820 ,26.67101 
150 ,28.4013 ,0.87813 ,2.68398 ,26.33523 
151 ,28.5935 ,0.88006 ,2.69083 ,26.40239 
152 ,28.7696 ,0.88185 ,2.66687 ,26.16734 
153 ,28.9453 ,0.88370 ,2.64292 ,25.93229 
154 ,29.1056 ,0.88530 ,2.61212 ,25.63009 
155 ,29.2817 ,0.88697 ,2.61212 ,25.63009 
156 ,29.4898 ,0.88895 ,2.60869 ,25.59651 
157 ,29.6660 ,0.89076 ,2.56763 ,25.19357 
158 ,29.8737 ,0.89283 ,2.56078 ,25.12641 
159 ,30.0660 ,0.89478 ,2.54367 ,24.95852 
160 ,30.2742 ,0.89679 ,2.52998 ,24.82421 
161 ,30.4663 ,0.89876 ,2.51287 ,24.65632 
162 ,30.6581 ,0.90067 ,2.47181 ,24.25338 
163 ,30.8182 ,0.90239 ,2.46839 ,24.21980 
164 ,30.9944 ,0.90408 ,2.45127 ,24.05191 
165 ,31.1862 ,0.90600 ,2.44443 ,23.98475 
166 ,31.3622 ,0.90774 ,2.42390 ,23.78328 
167 ,31.5551 ,0.90968 ,2.40336 ,23.58181 
168 ,31.7463 ,0.91158 ,2.37599 ,23.31318 
169 ,31.9388 ,0.91352 ,2.38283 ,23.38034 
170 ,32.1144 ,0.91523 ,2.35545 ,23.11171 
171 ,32.2746 ,0.91696 ,2.34861 ,23.04456 
172 ,32.4507 ,0.91857 ,2.32123 ,22.77593 
173 ,32.6107 ,0.92034 ,2.32123 ,22.77593 
174 ,32.7867 ,0.92199 ,2.30070 ,22.57446 
175 ,32.9628 ,0.92373 ,2.28701 ,22.44015 
176 ,33.1390 ,0.92559 ,2.27332 ,22.30584 
177 ,33.2993 ,0.92720 ,2.26648 ,22.23868 
178 ,33.4913 ,0.92897 ,2.24937 ,22.07079 
179 ,33.6835 ,0.93091 ,2.21515 ,21.73500 
180 ,33.8756 ,0.93288 ,2.20488 ,21.63427 
181 ,34.0516 ,0.93461 ,2.21172 ,21.70143 
182 ,34.2275 ,0.93636 ,2.18435 ,21.43280 
183 ,34.4035 ,0.93810 ,2.15697 ,21.16417 
184 ,34.5799 ,0.93995 ,2.12959 ,20.89555 
185 ,34.7557 ,0.94161 ,2.12617 ,20.86197 
186 ,34.9321 ,0.94339 ,2.12617 ,20.86197 
187 ,35.1078 ,0.94514 ,2.10221 ,20.62692 
188 ,35.3157 ,0.94718 ,2.10564 ,20.66050 
189 ,35.4758 ,0.94899 ,2.06457 ,20.25756 
190 ,35.6520 ,0.95068 ,2.05430 ,20.15682 
191 ,35.8282 ,0.95240 ,2.04746 ,20.08967 
192 ,36.0042 ,0.95413 ,2.02350 ,19.85462 
193 ,36.1965 ,0.95595 ,2.00639 ,19.68673 
194 ,36.3724 ,0.95789 ,2.00639 ,19.68673 
195 ,36.5807 ,0.95980 ,2.00297 ,19.65315 
196 ,36.7567 ,0.96165 ,1.97559 ,19.38452 
197 ,36.9324 ,0.96343 ,1.95848 ,19.21663 
198 ,37.1086 ,0.96519 ,1.94137 ,19.04874 
199 ,37.3008 ,0.96706 ,1.91057 ,18.74654 
200 ,37.4930 ,0.96900 ,1.91057 ,18.74654 
201 ,37.7167 ,0.97124 ,1.89346 ,18.57864 
202 ,37.9087 ,0.97312 ,1.87293 ,18.37717 
203 ,38.1008 ,0.97508 ,1.87293 ,18.37717 
204 ,38.3253 ,0.97729 ,1.83186 ,17.97423 
205 ,38.5492 ,0.97951 ,1.82502 ,17.90708 
206 ,38.7573 ,0.98165 ,1.80106 ,17.67203 
207 ,38.9333 ,0.98350 ,1.78737 ,17.53772 
208 ,39.1095 ,0.98519 ,1.77711 ,17.43698 
209 ,39.2854 ,0.98706 ,1.74973 ,17.16836 
210 ,39.4455 ,0.98869 ,1.73946 ,17.06762 
211 ,39.6379 ,0.99042 ,1.72578 ,16.93331 
212 ,39.8136 ,0.99230 ,1.71893 ,16.86615 
213 ,40.0059 ,0.99410 ,1.69840 ,16.66468 
214 ,40.1821 ,0.99589 ,1.67444 ,16.42963 
215 ,40.3579 ,0.99773 ,1.64707 ,16.16101 
216 ,40.5499 ,0.99959 ,1.66075 ,16.29532 
217 ,40.7421 ,1.00149 ,1.65391 ,16.22816 
218 ,40.9182 ,1.00340 ,1.65049 ,16.19458 
219 ,41.0942 ,1.00510 ,1.61284 ,15.82522 
220 ,41.2703 ,1.00684 ,1.60942 ,15.79164 
221 ,41.4623 ,1.00873 ,1.57520 ,15.45586 
222 ,41.6382 ,1.01045 ,1.55809 ,15.28797 
223 ,41.8305 ,1.01227 ,1.53756 ,15.08650 
224 ,42.0227 ,1.01425 ,1.53756 ,15.08650 
225 ,42.2146 ,1.01622 ,1.50676 ,14.78430 
226 ,42.3906 ,1.01799 ,1.50333 ,14.75072 
227 ,42.5667 ,1.01979 ,1.45885 ,14.31420 
228 ,42.7429 ,1.02150 ,1.45885 ,14.31420 
229 ,42.9189 ,1.02329 ,1.44516 ,14.17989 
230 ,43.0950 ,1.02504 ,1.45200 ,14.24704 
231 ,43.3030 ,1.02695 ,1.42462 ,13.97842 
232 ,43.4632 ,1.02880 ,1.41094 ,13.84410 
233 ,43.6391 ,1.03042 ,1.40067 ,13.74337 
234 ,43.8152 ,1.03221 ,1.39383 ,13.67621 
235 ,43.9754 ,1.03392 ,1.39040 ,13.64263 
236 ,44.1514 ,1.03559 ,1.38356 ,13.57548 
237 ,44.3274 ,1.03744 ,1.32196 ,12.97107 
238 ,44.5035 ,1.03912 ,1.32538 ,13.00465 
239 ,44.6956 ,1.04097 ,1.29116 ,12.66886 
240 ,44.9035 ,1.04298 ,1.30143 ,12.76960 
241 ,45.0956 ,1.04502 ,1.27405 ,12.50097 
242 ,45.2556 ,1.04674 ,1.28089 ,12.56813 
243 ,45.4320 ,1.04832 ,1.26378 ,12.40024 
244 ,45.6078 ,1.05020 ,1.23641 ,12.13161 
245 ,45.7840 ,1.05198 ,1.22272 ,11.99730 
246 ,45.9439 ,1.05362 ,1.20561 ,11.82941 
247 ,46.1361 ,1.05533 ,1.22956 ,12.06445 
248 ,46.3121 ,1.05721 ,1.18850 ,11.66151 
249 ,46.5203 ,1.05916 ,1.17138 ,11.49362 
250 ,46.7122 ,1.06123 ,1.13374 ,11.12426 
251 ,46.9234 ,1.06317 ,1.14058 ,11.19142 
252 ,47.1607 ,1.06553 ,1.12005 ,10.98995 
253 ,47.4008 ,1.06799 ,1.12690 ,11.05710 
254 ,47.6253 ,1.07023 ,1.07899 ,10.58701 
255 ,47.8171 ,1.07228 ,1.09610 ,10.75490 
256 ,47.9932 ,1.07397 ,1.07214 ,10.51985 
257 ,48.1694 ,1.07585 ,1.03450 ,10.15049 
258 ,48.3455 ,1.07748 ,1.01739 ,9.98260 
259 ,48.5376 ,1.07938 ,1.00370 ,9.84829 
260 ,48.7298 ,1.08130 ,0.97632 ,9.57966 
261 ,48.9377 ,1.08337 ,1.01054 ,9.91544 
262 ,49.1299 ,1.08535 ,0.94552 ,9.27745 
263 ,49.3218 ,1.08726 ,0.94210 ,9.24388 
264 ,49.4979 ,1.08900 ,0.95921 ,9.41177 
265 ,49.6739 ,1.09081 ,0.92841 ,9.10956 
266 ,49.8658 ,1.09274 ,0.89419 ,8.77378 
267 ,50.0580 ,1.09460 ,0.91472 ,8.97525 
268 ,50.2498 ,1.09658 ,0.89761 ,8.80736 
269 ,50.4265 ,1.09831 ,0.87023 ,8.53873 
270 ,50.6183 ,1.10027 ,0.85997 ,8.43800 
271 ,50.7942 ,1.10196 ,0.85654 ,8.40442 
272 ,50.9704 ,1.10381 ,0.83601 ,8.20295 
273 ,51.1625 ,1.10561 ,0.82575 ,8.10221 
274 ,51.3544 ,1.10752 ,0.79837 ,7.83359 
275 ,51.5465 ,1.10948 ,0.77441 ,7.59854 
276 ,51.7063 ,1.11124 ,0.77441 ,7.59854 
277 ,51.8827 ,1.11287 ,0.78468 ,7.69927 
278 ,52.0748 ,1.11480 ,0.75730 ,7.43065 
279 ,52.2668 ,1.11666 ,0.73335 ,7.19560 
280 ,52.4747 ,1.11875 ,0.72650 ,7.12844 
281 ,52.6670 ,1.12064 ,0.69228 ,6.79266 
282 ,52.8592 ,1.12265 ,0.66833 ,6.55761 
283 ,53.0352 ,1.12443 ,0.69228 ,6.79266 
284 ,53.2112 ,1.12617 ,0.66833 ,6.55761 
285 ,53.4031 ,1.12802 ,0.66148 ,6.49046 
286 ,53.5793 ,1.12982 ,0.65464 ,6.42330 
287 ,53.7716 ,1.13173 ,0.62726 ,6.15467 
288 ,53.9636 ,1.13369 ,0.61357 ,6.02036 
289 ,54.1396 ,1.13549 ,0.58962 ,5.78531 
290 ,54.3321 ,1.13735 ,0.57593 ,5.65100 
291 ,54.5078 ,1.13911 ,0.57251 ,5.61742 
292 ,54.6838 ,1.14080 ,0.54855 ,5.38237 
293 ,54.8597 ,1.14259 ,0.59304 ,5.81889 
294 ,55.0519 ,1.14455 ,0.55539 ,5.44953 
295 ,55.2601 ,1.14660 ,0.51433 ,5.04659 
296 ,55.4361 ,1.14836 ,0.52459 ,5.14732 
297 ,55.6121 ,1.15027 ,0.48353 ,4.74438 
298 ,55.7883 ,1.15189 ,0.48353 ,4.74438 
299 ,55.9803 ,1.15382 ,0.48695 ,4.77796 
300 ,56.1726 ,1.15562 ,0.47668 ,4.67723 
301 ,56.3486 ,1.15761 ,0.44931 ,4.40860 
302 ,56.5246 ,1.15921 ,0.43904 ,4.30787 
303 ,56.7004 ,1.16099 ,0.42877 ,4.20713 
304 ,56.8926 ,1.16293 ,0.42877 ,4.20713 
305 ,57.0689 ,1.16472 ,0.40140 ,3.93850 
306 ,57.2448 ,1.16645 ,0.37744 ,3.70346 
307 ,57.4207 ,1.16826 ,0.39797 ,3.90493 
308 ,57.5971 ,1.16997 ,0.40140 ,3.93850 
309 ,57.7891 ,1.17189 ,0.36033 ,3.53557 
310 ,57.9809 ,1.17386 ,0.34664 ,3.40125 
311 ,58.1569 ,1.17564 ,0.33295 ,3.26694 
312 ,58.3330 ,1.17743 ,0.30215 ,2.96473 
313 ,58.5090 ,1.17912 ,0.30215 ,2.96473 
314 ,58.6852 ,1.18085 ,0.29189 ,2.86400 
315 ,58.8772 ,1.18276 ,0.29531 ,2.89758 
316 ,59.0534 ,1.18456 ,0.27478 ,2.69611 
317 ,59.2295 ,1.18632 ,0.25767 ,2.52822 
318 ,59.4218 ,1.18823 ,0.24740 ,2.42748 
319 ,59.6134 ,1.19009 ,0.23371 ,2.29317 
320 ,59.7895 ,1.19197 ,0.22344 ,2.19243 
321 ,59.9654 ,1.19367 ,0.21660 ,2.12528 
322 ,60.1576 ,1.19553 ,0.19264 ,1.89023 
323 ,60.3819 ,1.19763 ,0.18580 ,1.82307 
324 ,60.6223 ,1.20011 ,0.16527 ,1.62160 
325 ,60.8303 ,1.20224 ,0.16185 ,1.58802 
326 ,61.0061 ,1.20403 ,0.12762 ,1.25224 
327 ,61.2142 ,1.20608 ,0.12420 ,1.21866 
328 ,61.4066 ,1.20804 ,0.10367 ,1.01719 
329 ,61.6304 ,1.21018 ,0.10025 ,0.98361 
330 ,61.8226 ,1.21223 ,0.08656 ,0.84930 
331 ,62.0144 ,1.21428 ,0.06602 ,0.64783 
332 ,62.1908 ,1.21592 ,0.05576 ,0.54710 
333 ,62.3830 ,1.21780 ,0.05234 ,0.51352 
334 ,62.5909 ,1.21984 ,0.02496 ,0.24489 
335 ,62.7829 ,1.22181 ,0.00443 ,0.04342 
336 ,62.9750 ,1.22373 ,0.01469 ,0.14416 
337 ,63.1671 ,1.22564 ,-0.00926 ,-0.09089 
338 ,63.3592 ,1.22758 ,-0.00584 ,-0.05731 
339 ,63.5514 ,1.22951 ,-0.03664 ,-0.35952 
340 ,63.7434 ,1.23140 ,-0.04348 ,-0.42667 
341 ,63.9195 ,1.23319 ,-0.03664 ,-0.35952 
342 ,64.0952 ,1.23491 ,-0.04006 ,-0.39310 
343 ,64.2716 ,1.23669 ,-0.08113 ,-0.79604 
344 ,64.4637 ,1.23865 ,-0.06402 ,-0.62814 
345 ,64.6558 ,1.24051 ,-0.08113 ,-0.79604 
346 ,64.8320 ,1.24227 ,-0.09140 ,-0.89677 
347 ,65.0240 ,1.24420 ,-0.10166 ,-0.99751 
348 ,65.2159 ,1.24606 ,-0.13246 ,-1.29971 
349 ,65.3920 ,1.24790 ,-0.13246 ,-1.29971 
350 ,65.5679 ,1.24962 ,-0.13931 ,-1.36687 
351 ,65.7438 ,1.25147 ,-0.16326 ,-1.60191 
352 ,65.9200 ,1.25324 ,-0.17353 ,-1.70265 
353 ,66.0961 ,1.25497 ,-0.17011 ,-1.66907 
354 ,66.2720 ,1.25669 ,-0.18037 ,-1.76981 
355 ,66.4483 ,1.25847 ,-0.20090 ,-1.97128 
356 ,66.6243 ,1.26025 ,-0.19406 ,-1.90412 
357 ,66.8004 ,1.26195 ,-0.19064 ,-1.87054 
358 ,66.9764 ,1.26388 ,-0.22828 ,-2.23990 
359 ,67.1525 ,1.26548 ,-0.22144 ,-2.17275 
360 ,67.3604 ,1.26756 ,-0.23170 ,-2.27348 
361 ,67.5367 ,1.26933 ,-0.25224 ,-2.47495 
362 ,67.7287 ,1.27127 ,-0.28646 ,-2.81073 
363 ,67.9208 ,1.27318 ,-0.27277 ,-2.67642 
364 ,68.1289 ,1.27533 ,-0.27961 ,-2.74358 
365 ,68.3048 ,1.27702 ,-0.29330 ,-2.87789 
366 ,68.4975 ,1.27893 ,-0.30357 ,-2.97863 
367 ,68.7529 ,1.28132 ,-0.30357 ,-2.97863 
368 ,68.9450 ,1.28341 ,-0.33437 ,-3.28083 
369 ,69.1211 ,1.28519 ,-0.34806 ,-3.41514 
370 ,69.2971 ,1.28692 ,-0.33437 ,-3.28083 
371 ,69.4572 ,1.28867 ,-0.36517 ,-3.58303 
372 ,69.6334 ,1.29033 ,-0.38570 ,-3.78450 
373 ,69.8094 ,1.29204 ,-0.38912 ,-3.81808 
374 ,69.9695 ,1.29377 ,-0.39255 ,-3.85166 
375 ,70.1296 ,1.29537 ,-0.38912 ,-3.81808 
376 ,70.2896 ,1.29696 ,-0.39939 ,-3.91882 
377 ,70.4819 ,1.29870 ,-0.41308 ,-4.05313 
378 ,70.6741 ,1.30068 ,-0.43703 ,-4.28818 
379 ,70.8822 ,1.30266 ,-0.43361 ,-4.25460 
380 ,71.0739 ,1.30467 ,-0.45072 ,-4.42249 
381 ,71.2503 ,1.30649 ,-0.46441 ,-4.55681 
382 ,71.4743 ,1.30859 ,-0.46783 ,-4.59038 
383 ,71.6984 ,1.31090 ,-0.49521 ,-4.85901 
384 ,71.8905 ,1.31288 ,-0.50206 ,-4.92617 
385 ,72.0828 ,1.31477 ,-0.50206 ,-4.92617 
386 ,72.2588 ,1.31651 ,-0.52601 ,-5.16121 
387 ,72.4345 ,1.31837 ,-0.52601 ,-5.16121 
388 ,72.6271 ,1.32018 ,-0.52259 ,-5.12764 
389 ,72.8188 ,1.32212 ,-0.53285 ,-5.22837 
390 ,73.0111 ,1.32410 ,-0.55339 ,-5.42984 
391 ,73.2031 ,1.32597 ,-0.55681 ,-5.46342 
392 ,73.3632 ,1.32772 ,-0.58419 ,-5.73205 
393 ,73.5393 ,1.32931 ,-0.58419 ,-5.73205 
394 ,73.7152 ,1.33108 ,-0.61156 ,-6.00067 
395 ,73.9071 ,1.33299 ,-0.60814 ,-5.96709 
396 ,74.0836 ,1.33479 ,-0.59103 ,-5.79920 
397 ,74.2757 ,1.33671 ,-0.64236 ,-6.30288 
398 ,74.4517 ,1.33852 ,-0.65263 ,-6.40361 
399 ,74.6277 ,1.34022 ,-0.63894 ,-6.26930 
400 ,74.8035 ,1.34197 ,-0.64921 ,-6.37003 
401 ,74.9799 ,1.34375 ,-0.66632 ,-6.53793 
402 ,75.1716 ,1.34563 ,-0.66974 ,-6.57150 
403 ,75.3480 ,1.34742 ,-0.67316 ,-6.60508 
404 ,75.5402 ,1.34932 ,-0.68685 ,-6.73940 
405 ,75.7482 ,1.35139 ,-0.70396 ,-6.90729 
406 ,75.9238 ,1.35317 ,-0.69370 ,-6.80655 
407 ,76.1003 ,1.35491 ,-0.71765 ,-7.04160 
408 ,76.3080 ,1.35693 ,-0.73134 ,-7.17591 
409 ,76.4844 ,1.35886 ,-0.74161 ,-7.27665 
410 ,76.6603 ,1.36057 ,-0.75187 ,-7.37738 
411 ,76.8685 ,1.36258 ,-0.74161 ,-7.27665 
412 ,77.0446 ,1.36437 ,-0.76556 ,-7.51170 
413 ,77.2365 ,1.36628 ,-0.80321 ,-7.88106 
414 ,77.4127 ,1.36809 ,-0.77583 ,-7.61243 
415 ,77.5887 ,1.36975 ,-0.77241 ,-7.57885 
416 ,77.7650 ,1.37159 ,-0.81689 ,-8.01537 
417 ,77.9571 ,1.37345 ,-0.81005 ,-7.94821 
418 ,78.1491 ,1.37538 ,-0.80663 ,-7.91464 
419 ,78.3251 ,1.37723 ,-0.83058 ,-8.14968 
420 ,78.5013 ,1.37895 ,-0.84427 ,-8.28400 
421 ,78.6774 ,1.38076 ,-0.85112 ,-8.35115 
422 ,78.8691 ,1.38258 ,-0.82716 ,-8.11611 
423 ,79.0452 ,1.38437 ,-0.83743 ,-8.21684 
424 ,79.2214 ,1.38621 ,-0.87165 ,-8.55262 
425 ,79.4133 ,1.38807 ,-0.89218 ,-8.75409 
426 ,79.6213 ,1.39010 ,-0.88876 ,-8.72051 
427 ,79.8133 ,1.39210 ,-0.90929 ,-8.92198 
428 ,79.9895 ,1.39382 ,-0.91272 ,-8.95556 
429 ,80.1656 ,1.39560 ,-0.90929 ,-8.92198 
430 ,80.3582 ,1.39749 ,-0.91614 ,-8.98914 
431 ,80.5500 ,1.39953 ,-0.94351 ,-9.25777 
432 ,80.7262 ,1.40116 ,-0.94694 ,-9.29135 
433 ,80.9023 ,1.40291 ,-0.95378 ,-9.35850 
434 ,81.0784 ,1.40472 ,-0.97774 ,-9.59355 
435 ,81.2701 ,1.40663 ,-0.97431 ,-9.55997 
436 ,81.4465 ,1.40836 ,-0.97431 ,-9.55997 
437 ,81.6226 ,1.41016 ,-0.98458 ,-9.66071 
438 ,81.7986 ,1.41189 ,-0.99485 ,-9.76144 
439 ,82.0068 ,1.41390 ,-1.01538 ,-9.96291 
440 ,82.1829 ,1.41581 ,-1.01880 ,-9.99649 
441 ,82.3587 ,1.41760 ,-1.01880 ,-9.99649 
442 ,82.5350 ,1.41924 ,-1.03249 ,-10.13080 
443 ,82.7111 ,1.42103 ,-1.01538 ,-9.96291 
444 ,82.9032 ,1.42298 ,-1.05302 ,-10.33227 
445 ,83.0791 ,1.42470 ,-1.05645 ,-10.36585 
446 ,83.2712 ,1.42648 ,-1.05645 ,-10.36585 
447 ,83.4470 ,1.42840 ,-1.07014 ,-10.50016 
448 ,83.6231 ,1.43020 ,-1.07356 ,-10.53374 
449 ,83.7991 ,1.43195 ,-1.10778 ,-10.86953 
450 ,83.9915 ,1.43371 ,-1.10436 ,-10.83595 
451 ,84.1996 ,1.43574 ,-1.11462 ,-10.93668 
452 ,84.3756 ,1.43767 ,-1.11805 ,-10.97026 
453 ,84.5518 ,1.43942 ,-1.13516 ,-11.13815 
454 ,84.7438 ,1.44129 ,-1.14884 ,-11.27247 
455 ,84.9197 ,1.44308 ,-1.15569 ,-11.33962 
456 ,85.0960 ,1.44480 ,-1.16253 ,-11.40678 
457 ,85.2881 ,1.44677 ,-1.15569 ,-11.33962 
458 ,85.4800 ,1.44866 ,-1.17964 ,-11.57467 
459 ,85.6561 ,1.45047 ,-1.17622 ,-11.54109 
460 ,85.8325 ,1.45224 ,-1.17622 ,-11.54109 
461 ,86.0405 ,1.45423 ,-1.20702 ,-11.84330 
