Data stamp = , 05-04-2022 08:19:42 525

Calibration Values: 
Slope = , 26.54 , g/V 
Offset Voltage at no contact = , -0.501760 , V 

No , Time , Stage Position ,   Mass , Force 
   ,  (s) ,      (mm)      ,   (g)  , (mN)  

1 ,0.0000 ,0.59943 ,4.94261 ,48.49691 
2 ,0.2026 ,0.59951 ,4.95288 ,48.59764 
3 ,0.5233 ,0.60028 ,4.95288 ,48.59764 
4 ,0.6992 ,0.60164 ,4.93919 ,48.46333 
5 ,0.8915 ,0.60309 ,4.95288 ,48.59764 
6 ,1.0996 ,0.60510 ,4.93577 ,48.42975 
7 ,1.2916 ,0.60707 ,4.95972 ,48.66480 
8 ,1.4676 ,0.60882 ,4.95630 ,48.63122 
9 ,1.6598 ,0.61072 ,4.93235 ,48.39618 
10 ,1.8354 ,0.61255 ,4.91181 ,48.19471 
11 ,2.0278 ,0.61443 ,4.91181 ,48.19471 
12 ,2.2038 ,0.61637 ,4.89128 ,47.99324 
13 ,2.3800 ,0.61802 ,4.88444 ,47.92608 
14 ,2.5556 ,0.61971 ,4.87075 ,47.79177 
15 ,2.7317 ,0.62150 ,4.87417 ,47.82534 
16 ,2.8917 ,0.62327 ,4.85364 ,47.62387 
17 ,3.0683 ,0.62493 ,4.83652 ,47.45598 
18 ,3.2762 ,0.62698 ,4.81599 ,47.25451 
19 ,3.4685 ,0.62891 ,4.81599 ,47.25451 
20 ,3.6445 ,0.63064 ,4.80230 ,47.12020 
21 ,3.8366 ,0.63258 ,4.78177 ,46.91873 
22 ,4.0284 ,0.63446 ,4.78861 ,46.98589 
23 ,4.2043 ,0.63625 ,4.76808 ,46.78442 
24 ,4.3807 ,0.63800 ,4.74413 ,46.54937 
25 ,4.5567 ,0.63969 ,4.73386 ,46.44863 
26 ,4.7489 ,0.64162 ,4.72017 ,46.31432 
27 ,4.9250 ,0.64342 ,4.69279 ,46.04569 
28 ,5.1010 ,0.64517 ,4.66199 ,45.74349 
29 ,5.2770 ,0.64695 ,4.66542 ,45.77707 
30 ,5.4693 ,0.64887 ,4.65515 ,45.67633 
31 ,5.6454 ,0.65068 ,4.63462 ,45.47486 
32 ,5.8214 ,0.65243 ,4.61066 ,45.23981 
33 ,5.9973 ,0.65418 ,4.59355 ,45.07192 
34 ,6.1735 ,0.65603 ,4.59013 ,45.03835 
35 ,6.3654 ,0.65778 ,4.55933 ,44.73614 
36 ,6.5576 ,0.65962 ,4.53537 ,44.50109 
37 ,6.7337 ,0.66153 ,4.52853 ,44.43394 
38 ,6.9259 ,0.66346 ,4.50115 ,44.16531 
39 ,7.1019 ,0.66524 ,4.49431 ,44.09815 
40 ,7.2779 ,0.66689 ,4.47035 ,43.86310 
41 ,7.4858 ,0.66903 ,4.44982 ,43.66163 
42 ,7.6622 ,0.67081 ,4.42586 ,43.42659 
43 ,7.8702 ,0.67281 ,4.41902 ,43.35943 
44 ,8.0622 ,0.67483 ,4.38822 ,43.05723 
45 ,8.2219 ,0.67650 ,4.37111 ,42.88933 
46 ,8.3984 ,0.67814 ,4.36084 ,42.78860 
47 ,8.5904 ,0.68007 ,4.35400 ,42.72144 
48 ,8.7985 ,0.68205 ,4.33004 ,42.48639 
49 ,8.9746 ,0.68391 ,4.32320 ,42.41924 
50 ,9.1668 ,0.68577 ,4.29924 ,42.18419 
51 ,9.3428 ,0.68762 ,4.28213 ,42.01630 
52 ,9.5349 ,0.68945 ,4.27529 ,41.94914 
53 ,9.7109 ,0.69130 ,4.25476 ,41.74767 
54 ,9.8870 ,0.69299 ,4.24791 ,41.68051 
55 ,10.0631 ,0.69479 ,4.21369 ,41.34473 
56 ,10.2555 ,0.69662 ,4.20685 ,41.27758 
57 ,10.4312 ,0.69858 ,4.18974 ,41.10968 
58 ,10.6231 ,0.70034 ,4.15209 ,40.74032 
59 ,10.7995 ,0.70218 ,4.13840 ,40.60601 
60 ,10.9753 ,0.70390 ,4.14183 ,40.63959 
61 ,11.1516 ,0.70570 ,4.13498 ,40.57243 
62 ,11.3277 ,0.70738 ,4.10076 ,40.23665 
63 ,11.5037 ,0.70920 ,4.08707 ,40.10233 
64 ,11.7118 ,0.71120 ,4.06996 ,39.93444 
65 ,11.8876 ,0.71302 ,4.05969 ,39.83371 
66 ,12.0799 ,0.71496 ,4.02205 ,39.46435 
67 ,12.2557 ,0.71671 ,4.01520 ,39.39719 
68 ,12.4317 ,0.71852 ,4.00494 ,39.29646 
69 ,12.6082 ,0.72028 ,3.99467 ,39.19572 
70 ,12.8002 ,0.72206 ,3.95361 ,38.79278 
71 ,12.9763 ,0.72391 ,3.94676 ,38.72562 
72 ,13.1523 ,0.72570 ,3.93650 ,38.62489 
73 ,13.3123 ,0.72738 ,3.92281 ,38.49058 
74 ,13.4884 ,0.72901 ,3.90227 ,38.28911 
75 ,13.6645 ,0.73080 ,3.87832 ,38.05406 
76 ,13.8726 ,0.73287 ,3.88858 ,38.15479 
77 ,14.0487 ,0.73462 ,3.85779 ,37.85259 
78 ,14.2247 ,0.73642 ,3.83383 ,37.61754 
79 ,14.4008 ,0.73816 ,3.80987 ,37.38249 
80 ,14.5923 ,0.74015 ,3.81330 ,37.41607 
81 ,14.7690 ,0.74179 ,3.79276 ,37.21460 
82 ,14.9609 ,0.74366 ,3.76196 ,36.91240 
83 ,15.1371 ,0.74548 ,3.75512 ,36.84524 
84 ,15.3132 ,0.74727 ,3.73801 ,36.67735 
85 ,15.5052 ,0.74920 ,3.71748 ,36.47588 
86 ,15.6813 ,0.75095 ,3.69694 ,36.27441 
87 ,15.8574 ,0.75274 ,3.67983 ,36.10652 
88 ,16.0494 ,0.75464 ,3.67641 ,36.07294 
89 ,16.2254 ,0.75643 ,3.64903 ,35.80431 
90 ,16.4014 ,0.75821 ,3.62508 ,35.56926 
91 ,16.5937 ,0.76009 ,3.61823 ,35.50211 
92 ,16.7855 ,0.76191 ,3.59770 ,35.30064 
93 ,16.9778 ,0.76389 ,3.58401 ,35.16632 
94 ,17.1538 ,0.76567 ,3.58401 ,35.16632 
95 ,17.3297 ,0.76742 ,3.55321 ,34.86412 
96 ,17.5057 ,0.76915 ,3.51557 ,34.49476 
97 ,17.6822 ,0.77093 ,3.51215 ,34.46118 
98 ,17.8579 ,0.77275 ,3.50188 ,34.36045 
99 ,18.0342 ,0.77446 ,3.48819 ,34.22613 
100 ,18.2262 ,0.77641 ,3.47450 ,34.09182 
101 ,18.4024 ,0.77817 ,3.43344 ,33.68888 
102 ,18.5785 ,0.77988 ,3.43001 ,33.65530 
103 ,18.7546 ,0.78169 ,3.43001 ,33.65530 
104 ,18.9306 ,0.78344 ,3.41975 ,33.55457 
105 ,19.1228 ,0.78527 ,3.37868 ,33.15163 
106 ,19.2988 ,0.78714 ,3.37526 ,33.11805 
107 ,19.4746 ,0.78886 ,3.36842 ,33.05089 
108 ,19.6510 ,0.79067 ,3.34788 ,32.84942 
109 ,19.8429 ,0.79249 ,3.33077 ,32.68153 
110 ,20.0351 ,0.79451 ,3.30682 ,32.44648 
111 ,20.2432 ,0.79645 ,3.29997 ,32.37933 
112 ,20.4352 ,0.79852 ,3.26917 ,32.07712 
113 ,20.6273 ,0.80033 ,3.25206 ,31.90923 
114 ,20.8195 ,0.80230 ,3.23153 ,31.70776 
115 ,21.0113 ,0.80421 ,3.24180 ,31.80849 
116 ,21.1875 ,0.80596 ,3.20415 ,31.43913 
117 ,21.3636 ,0.80775 ,3.17677 ,31.17051 
118 ,21.5398 ,0.80954 ,3.16651 ,31.06977 
119 ,21.7158 ,0.81129 ,3.15624 ,30.96904 
120 ,21.8919 ,0.81305 ,3.14940 ,30.90188 
121 ,22.0838 ,0.81502 ,3.11518 ,30.56610 
122 ,22.2597 ,0.81674 ,3.10149 ,30.43178 
123 ,22.4361 ,0.81852 ,3.08095 ,30.23031 
124 ,22.6443 ,0.82046 ,3.07411 ,30.16316 
125 ,22.8524 ,0.82248 ,3.05700 ,29.99527 
126 ,23.0440 ,0.82452 ,3.02962 ,29.72664 
127 ,23.2204 ,0.82636 ,3.00909 ,29.52517 
128 ,23.4125 ,0.82824 ,3.01593 ,29.59233 
129 ,23.5885 ,0.82999 ,3.00567 ,29.49159 
130 ,23.7648 ,0.83175 ,2.97487 ,29.18939 
131 ,23.9407 ,0.83352 ,2.95091 ,28.95434 
132 ,24.1164 ,0.83525 ,2.94749 ,28.92076 
133 ,24.2929 ,0.83705 ,2.94064 ,28.85360 
134 ,24.5008 ,0.83910 ,2.90985 ,28.55140 
135 ,24.6769 ,0.84088 ,2.89273 ,28.38351 
136 ,24.8532 ,0.84263 ,2.87905 ,28.24919 
137 ,25.0292 ,0.84445 ,2.87562 ,28.21562 
138 ,25.2052 ,0.84620 ,2.84825 ,27.94699 
139 ,25.3653 ,0.84786 ,2.81402 ,27.61121 
140 ,25.5573 ,0.84964 ,2.79691 ,27.44332 
141 ,25.7335 ,0.85148 ,2.80376 ,27.51047 
142 ,25.9255 ,0.85334 ,2.77638 ,27.24185 
143 ,26.1016 ,0.85512 ,2.75927 ,27.07395 
144 ,26.2774 ,0.85685 ,2.74900 ,26.97322 
145 ,26.4697 ,0.85868 ,2.74900 ,26.97322 
146 ,26.6459 ,0.86054 ,2.70794 ,26.57028 
147 ,26.8378 ,0.86239 ,2.68398 ,26.33523 
148 ,27.0140 ,0.86426 ,2.68056 ,26.30165 
149 ,27.2058 ,0.86617 ,2.67029 ,26.20092 
150 ,27.3820 ,0.86789 ,2.63607 ,25.86514 
151 ,27.5581 ,0.86968 ,2.64292 ,25.93229 
152 ,27.7343 ,0.87143 ,2.63607 ,25.86514 
153 ,27.9263 ,0.87337 ,2.59843 ,25.49577 
154 ,28.1025 ,0.87515 ,2.57447 ,25.26073 
155 ,28.3104 ,0.87716 ,2.57105 ,25.22715 
156 ,28.4864 ,0.87894 ,2.55394 ,25.05926 
157 ,28.6946 ,0.88103 ,2.52314 ,24.75705 
158 ,28.8707 ,0.88283 ,2.52656 ,24.79063 
159 ,29.0628 ,0.88466 ,2.48550 ,24.38769 
160 ,29.2388 ,0.88643 ,2.48550 ,24.38769 
161 ,29.4305 ,0.88832 ,2.48207 ,24.35411 
162 ,29.6069 ,0.89013 ,2.45470 ,24.08549 
163 ,29.7991 ,0.89201 ,2.42390 ,23.78328 
164 ,29.9750 ,0.89386 ,2.43416 ,23.88402 
165 ,30.1672 ,0.89573 ,2.40336 ,23.58181 
166 ,30.3432 ,0.89758 ,2.40336 ,23.58181 
167 ,30.5033 ,0.89924 ,2.36914 ,23.24603 
168 ,30.6791 ,0.90083 ,2.36230 ,23.17887 
169 ,30.8556 ,0.90258 ,2.35545 ,23.11171 
170 ,31.0631 ,0.90468 ,2.32465 ,22.80951 
171 ,31.2393 ,0.90645 ,2.31097 ,22.67520 
172 ,31.4157 ,0.90825 ,2.30754 ,22.64162 
173 ,31.5917 ,0.91013 ,2.29728 ,22.54088 
174 ,31.7678 ,0.91174 ,2.27332 ,22.30584 
175 ,31.9600 ,0.91373 ,2.23910 ,21.97005 
176 ,32.1520 ,0.91558 ,2.25621 ,22.13794 
177 ,32.3280 ,0.91730 ,2.23226 ,21.90290 
178 ,32.5202 ,0.91930 ,2.20488 ,21.63427 
179 ,32.6962 ,0.92100 ,2.19119 ,21.49996 
180 ,32.8724 ,0.92281 ,2.18092 ,21.39922 
181 ,33.0645 ,0.92466 ,2.15697 ,21.16417 
182 ,33.2563 ,0.92663 ,2.13986 ,20.99628 
183 ,33.4484 ,0.92846 ,2.13986 ,20.99628 
184 ,33.6245 ,0.93029 ,2.11932 ,20.79481 
185 ,33.8007 ,0.93215 ,2.10221 ,20.62692 
186 ,33.9928 ,0.93399 ,2.08510 ,20.45903 
187 ,34.1847 ,0.93585 ,2.06457 ,20.25756 
188 ,34.3610 ,0.93772 ,2.04404 ,20.05609 
189 ,34.5690 ,0.93969 ,2.03719 ,19.98893 
190 ,34.7768 ,0.94174 ,2.00639 ,19.68673 
191 ,34.9534 ,0.94361 ,1.99270 ,19.55241 
192 ,35.1292 ,0.94541 ,1.99270 ,19.55241 
193 ,35.3051 ,0.94716 ,1.95506 ,19.18305 
194 ,35.4814 ,0.94887 ,1.94822 ,19.11590 
195 ,35.6733 ,0.95078 ,1.92768 ,18.91443 
196 ,35.8654 ,0.95270 ,1.92768 ,18.91443 
197 ,36.0415 ,0.95452 ,1.91057 ,18.74654 
198 ,36.2175 ,0.95624 ,1.87293 ,18.37717 
199 ,36.3937 ,0.95801 ,1.87977 ,18.44433 
200 ,36.5854 ,0.95992 ,1.87635 ,18.41075 
201 ,36.7619 ,0.96170 ,1.83871 ,18.04139 
202 ,36.9379 ,0.96347 ,1.83186 ,17.97423 
203 ,37.1300 ,0.96531 ,1.81133 ,17.77276 
204 ,37.3058 ,0.96713 ,1.80449 ,17.70561 
205 ,37.4981 ,0.96904 ,1.74631 ,17.13478 
206 ,37.6902 ,0.97097 ,1.76342 ,17.30267 
207 ,37.8659 ,0.97269 ,1.75657 ,17.23551 
208 ,38.0424 ,0.97451 ,1.73262 ,17.00046 
209 ,38.2342 ,0.97639 ,1.70524 ,16.73184 
210 ,38.4101 ,0.97811 ,1.70524 ,16.73184 
211 ,38.5864 ,0.97994 ,1.69498 ,16.63110 
212 ,38.7785 ,0.98178 ,1.65391 ,16.22816 
213 ,38.9703 ,0.98378 ,1.64364 ,16.12743 
214 ,39.1469 ,0.98558 ,1.65391 ,16.22816 
215 ,39.3388 ,0.98747 ,1.61627 ,15.85880 
216 ,39.5148 ,0.98917 ,1.60942 ,15.79164 
217 ,39.6910 ,0.99098 ,1.60258 ,15.72449 
218 ,39.8670 ,0.99280 ,1.58889 ,15.59018 
219 ,40.0428 ,0.99453 ,1.55809 ,15.28797 
220 ,40.2192 ,0.99624 ,1.55467 ,15.25439 
221 ,40.3953 ,0.99793 ,1.53071 ,15.01934 
222 ,40.6350 ,1.00016 ,1.51360 ,14.85145 
223 ,40.8115 ,1.00211 ,1.49991 ,14.71714 
224 ,40.9873 ,1.00394 ,1.48280 ,14.54925 
225 ,41.1635 ,1.00567 ,1.47938 ,14.51567 
226 ,41.3397 ,1.00748 ,1.45542 ,14.28062 
227 ,41.5153 ,1.00921 ,1.42805 ,14.01199 
228 ,41.6917 ,1.01096 ,1.42120 ,13.94484 
229 ,41.8678 ,1.01270 ,1.41778 ,13.91126 
230 ,42.0600 ,1.01465 ,1.39383 ,13.67621 
231 ,42.2519 ,1.01663 ,1.39040 ,13.64263 
232 ,42.4280 ,1.01832 ,1.36987 ,13.44116 
233 ,42.6200 ,1.02023 ,1.34934 ,13.23969 
234 ,42.7961 ,1.02201 ,1.33223 ,13.07180 
235 ,42.9723 ,1.02377 ,1.31854 ,12.93749 
236 ,43.1643 ,1.02570 ,1.31854 ,12.93749 
237 ,43.3564 ,1.02759 ,1.28089 ,12.56813 
238 ,43.5484 ,1.02952 ,1.29116 ,12.66886 
239 ,43.7246 ,1.03128 ,1.29116 ,12.66886 
240 ,43.9165 ,1.03316 ,1.25694 ,12.33308 
241 ,44.1247 ,1.03527 ,1.23641 ,12.13161 
242 ,44.3008 ,1.03701 ,1.22272 ,11.99730 
243 ,44.4766 ,1.03877 ,1.20218 ,11.79583 
244 ,44.6530 ,1.04053 ,1.18165 ,11.59436 
245 ,44.8288 ,1.04236 ,1.17481 ,11.52720 
246 ,45.0050 ,1.04408 ,1.17823 ,11.56078 
247 ,45.1812 ,1.04585 ,1.15085 ,11.29215 
248 ,45.3732 ,1.04768 ,1.14401 ,11.22500 
249 ,45.5493 ,1.04951 ,1.14058 ,11.19142 
250 ,45.7252 ,1.05128 ,1.12347 ,11.02353 
251 ,45.9015 ,1.05306 ,1.10294 ,10.82206 
252 ,46.0935 ,1.05494 ,1.08241 ,10.62059 
253 ,46.2695 ,1.05677 ,1.06187 ,10.41912 
254 ,46.4616 ,1.05864 ,1.05845 ,10.38554 
255 ,46.6378 ,1.06044 ,1.02765 ,10.08333 
256 ,46.8136 ,1.06221 ,1.00028 ,9.81471 
257 ,47.0378 ,1.06425 ,1.00712 ,9.88186 
258 ,47.2140 ,1.06616 ,0.99343 ,9.74755 
259 ,47.3900 ,1.06795 ,0.97632 ,9.57966 
260 ,47.5822 ,1.06986 ,0.97632 ,9.57966 
261 ,47.7743 ,1.07177 ,0.94894 ,9.31103 
262 ,47.9507 ,1.07355 ,0.93183 ,9.14314 
263 ,48.1425 ,1.07541 ,0.91472 ,8.97525 
264 ,48.3342 ,1.07729 ,0.90103 ,8.84094 
265 ,48.5103 ,1.07913 ,0.89077 ,8.74020 
266 ,48.7027 ,1.08103 ,0.87366 ,8.57231 
267 ,48.8948 ,1.08293 ,0.86339 ,8.47158 
268 ,49.0867 ,1.08483 ,0.86339 ,8.47158 
269 ,49.2629 ,1.08667 ,0.83943 ,8.23653 
270 ,49.4552 ,1.08855 ,0.82232 ,8.06864 
271 ,49.6308 ,1.09032 ,0.79495 ,7.80001 
272 ,49.8070 ,1.09209 ,0.79495 ,7.80001 
273 ,49.9828 ,1.09394 ,0.77784 ,7.63212 
274 ,50.1592 ,1.09560 ,0.76415 ,7.49780 
275 ,50.3352 ,1.09735 ,0.72650 ,7.12844 
276 ,50.5273 ,1.09919 ,0.74361 ,7.29633 
277 ,50.7034 ,1.10111 ,0.71966 ,7.06129 
278 ,50.8795 ,1.10280 ,0.71281 ,6.99413 
279 ,51.0395 ,1.10451 ,0.67517 ,6.62477 
280 ,51.2157 ,1.10617 ,0.68544 ,6.72550 
281 ,51.3917 ,1.10792 ,0.66490 ,6.52403 
282 ,51.5997 ,1.10983 ,0.64779 ,6.35614 
283 ,51.7598 ,1.11172 ,0.64095 ,6.28899 
284 ,51.9360 ,1.11331 ,0.63068 ,6.18825 
285 ,52.1121 ,1.11515 ,0.61699 ,6.05394 
286 ,52.3039 ,1.11695 ,0.62042 ,6.08752 
287 ,52.5123 ,1.11897 ,0.59304 ,5.81889 
288 ,52.7202 ,1.12112 ,0.57935 ,5.68458 
289 ,52.9122 ,1.12306 ,0.55882 ,5.48311 
290 ,53.1045 ,1.12497 ,0.55197 ,5.41595 
291 ,53.3127 ,1.12708 ,0.53486 ,5.24806 
292 ,53.5046 ,1.12902 ,0.52459 ,5.14732 
293 ,53.6807 ,1.13080 ,0.51775 ,5.08017 
294 ,53.8727 ,1.13273 ,0.48695 ,4.77796 
295 ,54.0488 ,1.13452 ,0.47326 ,4.64365 
296 ,54.2248 ,1.13624 ,0.48695 ,4.77796 
297 ,54.4010 ,1.13802 ,0.46984 ,4.61007 
298 ,54.5770 ,1.13974 ,0.44588 ,4.37502 
299 ,54.7533 ,1.14157 ,0.42535 ,4.17355 
300 ,54.9451 ,1.14347 ,0.42877 ,4.20713 
301 ,55.1214 ,1.14520 ,0.39797 ,3.90493 
302 ,55.3294 ,1.14724 ,0.38429 ,3.77061 
303 ,55.5055 ,1.14904 ,0.37402 ,3.66988 
304 ,55.6976 ,1.15094 ,0.36375 ,3.56914 
305 ,55.8737 ,1.15274 ,0.34664 ,3.40125 
306 ,56.0818 ,1.15473 ,0.33295 ,3.26694 
307 ,56.2898 ,1.15685 ,0.32953 ,3.23336 
308 ,56.4656 ,1.15873 ,0.30900 ,3.03189 
309 ,56.6420 ,1.16042 ,0.30900 ,3.03189 
310 ,56.8179 ,1.16223 ,0.28162 ,2.76326 
311 ,57.0098 ,1.16408 ,0.27135 ,2.66253 
312 ,57.1861 ,1.16583 ,0.27478 ,2.69611 
313 ,57.3623 ,1.16763 ,0.25767 ,2.52822 
314 ,57.5543 ,1.16948 ,0.23371 ,2.29317 
315 ,57.7305 ,1.17128 ,0.22344 ,2.19243 
316 ,57.9061 ,1.17301 ,0.22002 ,2.15885 
317 ,58.0821 ,1.17478 ,0.20976 ,2.05812 
318 ,58.2587 ,1.17652 ,0.18580 ,1.82307 
319 ,58.4346 ,1.17830 ,0.16527 ,1.62160 
320 ,58.6266 ,1.18021 ,0.17553 ,1.72234 
321 ,58.8025 ,1.18199 ,0.16185 ,1.58802 
322 ,58.9787 ,1.18371 ,0.14473 ,1.42013 
323 ,59.1550 ,1.18550 ,0.13105 ,1.28582 
324 ,59.3311 ,1.18727 ,0.14473 ,1.42013 
325 ,59.5231 ,1.18918 ,0.14131 ,1.38655 
326 ,59.6992 ,1.19097 ,0.12762 ,1.25224 
327 ,59.8753 ,1.19275 ,0.09340 ,0.91646 
328 ,60.0513 ,1.19451 ,0.07971 ,0.78214 
329 ,60.2274 ,1.19633 ,0.08656 ,0.84930 
330 ,60.4032 ,1.19799 ,0.08314 ,0.81572 
331 ,60.5635 ,1.19969 ,0.05918 ,0.58067 
332 ,60.7395 ,1.20139 ,0.03180 ,0.31205 
333 ,60.9158 ,1.20315 ,0.01811 ,0.17773 
334 ,61.0918 ,1.20489 ,0.02154 ,0.21131 
335 ,61.2517 ,1.20659 ,0.01811 ,0.17773 
336 ,61.4279 ,1.20820 ,0.01127 ,0.11058 
337 ,61.6199 ,1.21014 ,-0.02295 ,-0.22520 
338 ,61.7959 ,1.21190 ,-0.02637 ,-0.25878 
339 ,61.9882 ,1.21384 ,-0.01953 ,-0.19163 
340 ,62.1645 ,1.21563 ,-0.03664 ,-0.35952 
341 ,62.3561 ,1.21744 ,-0.07086 ,-0.69530 
342 ,62.5325 ,1.21929 ,-0.08797 ,-0.86319 
343 ,62.7243 ,1.22124 ,-0.07086 ,-0.69530 
344 ,62.9006 ,1.22299 ,-0.09824 ,-0.96393 
345 ,63.0762 ,1.22470 ,-0.10508 ,-1.03108 
346 ,63.2361 ,1.22643 ,-0.12562 ,-1.23255 
347 ,63.4122 ,1.22808 ,-0.13246 ,-1.29971 
348 ,63.5887 ,1.22989 ,-0.12562 ,-1.23255 
349 ,63.8129 ,1.23207 ,-0.17011 ,-1.66907 
350 ,63.9889 ,1.23385 ,-0.16668 ,-1.63549 
351 ,64.1651 ,1.23558 ,-0.16668 ,-1.63549 
352 ,64.3572 ,1.23745 ,-0.18722 ,-1.83696 
353 ,64.5492 ,1.23949 ,-0.20433 ,-2.00485 
354 ,64.7412 ,1.24136 ,-0.20775 ,-2.03843 
355 ,64.9173 ,1.24311 ,-0.22144 ,-2.17275 
356 ,65.1094 ,1.24503 ,-0.22828 ,-2.23990 
357 ,65.3012 ,1.24694 ,-0.22144 ,-2.17275 
358 ,65.4772 ,1.24873 ,-0.24881 ,-2.44137 
359 ,65.6537 ,1.25051 ,-0.26935 ,-2.64284 
360 ,65.8456 ,1.25239 ,-0.25908 ,-2.54211 
361 ,66.0216 ,1.25415 ,-0.27277 ,-2.67642 
362 ,66.1975 ,1.25589 ,-0.31384 ,-3.07936 
363 ,66.3739 ,1.25768 ,-0.30699 ,-3.01220 
364 ,66.5656 ,1.25953 ,-0.30357 ,-2.97863 
365 ,66.7421 ,1.26140 ,-0.31041 ,-3.04578 
366 ,66.9180 ,1.26318 ,-0.32752 ,-3.21367 
367 ,67.1101 ,1.26503 ,-0.33779 ,-3.31441 
368 ,67.2860 ,1.26679 ,-0.33095 ,-3.24725 
369 ,67.4784 ,1.26876 ,-0.35832 ,-3.51588 
370 ,67.6703 ,1.27065 ,-0.36859 ,-3.61661 
371 ,67.8466 ,1.27240 ,-0.36859 ,-3.61661 
372 ,68.0224 ,1.27420 ,-0.36517 ,-3.58303 
373 ,68.1985 ,1.27590 ,-0.41308 ,-4.05313 
374 ,68.3747 ,1.27771 ,-0.40281 ,-3.95240 
375 ,68.5667 ,1.27963 ,-0.40623 ,-3.98597 
376 ,68.7428 ,1.28150 ,-0.44046 ,-4.32176 
377 ,68.9188 ,1.28316 ,-0.44388 ,-4.35534 
378 ,69.0949 ,1.28484 ,-0.45414 ,-4.45607 
379 ,69.2868 ,1.28680 ,-0.45757 ,-4.48965 
380 ,69.4631 ,1.28855 ,-0.47126 ,-4.62396 
381 ,69.6391 ,1.29032 ,-0.47810 ,-4.69112 
382 ,69.8152 ,1.29204 ,-0.49179 ,-4.82543 
383 ,70.0074 ,1.29397 ,-0.48837 ,-4.79185 
384 ,70.2314 ,1.29612 ,-0.51232 ,-5.02690 
385 ,70.4070 ,1.29800 ,-0.51232 ,-5.02690 
386 ,70.5995 ,1.29983 ,-0.53628 ,-5.26195 
387 ,70.7754 ,1.30173 ,-0.54312 ,-5.32911 
388 ,70.9678 ,1.30358 ,-0.53628 ,-5.26195 
389 ,71.1598 ,1.30547 ,-0.56023 ,-5.49700 
390 ,71.3360 ,1.30730 ,-0.57392 ,-5.63131 
391 ,71.5278 ,1.30915 ,-0.57392 ,-5.63131 
392 ,71.7041 ,1.31101 ,-0.58419 ,-5.73205 
393 ,71.8638 ,1.31270 ,-0.60472 ,-5.93352 
394 ,72.0240 ,1.31429 ,-0.60814 ,-5.96709 
395 ,72.2159 ,1.31610 ,-0.62183 ,-6.10141 
396 ,72.3925 ,1.31783 ,-0.62183 ,-6.10141 
397 ,72.6002 ,1.31983 ,-0.62868 ,-6.16856 
398 ,72.7924 ,1.32183 ,-0.63210 ,-6.20214 
399 ,72.9526 ,1.32356 ,-0.64579 ,-6.33646 
400 ,73.1284 ,1.32517 ,-0.65605 ,-6.43719 
401 ,73.3047 ,1.32694 ,-0.66632 ,-6.53793 
402 ,73.4807 ,1.32875 ,-0.69027 ,-6.77297 
403 ,73.6569 ,1.33056 ,-0.70054 ,-6.87371 
404 ,73.8328 ,1.33226 ,-0.71423 ,-7.00802 
405 ,74.0089 ,1.33413 ,-0.70054 ,-6.87371 
406 ,74.1850 ,1.33573 ,-0.70739 ,-6.94086 
407 ,74.3612 ,1.33756 ,-0.73818 ,-7.24307 
408 ,74.5372 ,1.33929 ,-0.75187 ,-7.37738 
409 ,74.7293 ,1.34113 ,-0.74161 ,-7.27665 
410 ,74.9055 ,1.34298 ,-0.74503 ,-7.31023 
411 ,75.0974 ,1.34480 ,-0.76556 ,-7.51170 
412 ,75.2894 ,1.34685 ,-0.76898 ,-7.54527 
413 ,75.4652 ,1.34863 ,-0.79978 ,-7.84748 
414 ,75.6417 ,1.35028 ,-0.79636 ,-7.81390 
415 ,75.8335 ,1.35225 ,-0.81689 ,-8.01537 
416 ,76.0099 ,1.35404 ,-0.81347 ,-7.98179 
417 ,76.2018 ,1.35588 ,-0.82374 ,-8.08253 
418 ,76.3938 ,1.35783 ,-0.84427 ,-8.28400 
419 ,76.5700 ,1.35961 ,-0.82716 ,-8.11611 
420 ,76.7458 ,1.36140 ,-0.84427 ,-8.28400 
421 ,76.9382 ,1.36318 ,-0.84427 ,-8.28400 
422 ,77.1300 ,1.36515 ,-0.85796 ,-8.41831 
423 ,77.3220 ,1.36709 ,-0.88192 ,-8.65336 
424 ,77.5141 ,1.36899 ,-0.88876 ,-8.72051 
425 ,77.6902 ,1.37080 ,-0.88876 ,-8.72051 
426 ,77.8663 ,1.37258 ,-0.90245 ,-8.85483 
427 ,78.0586 ,1.37450 ,-0.92298 ,-9.05630 
428 ,78.2504 ,1.37634 ,-0.92298 ,-9.05630 
429 ,78.4268 ,1.37813 ,-0.91272 ,-8.95556 
430 ,78.6029 ,1.37994 ,-0.94351 ,-9.25777 
431 ,78.7950 ,1.38191 ,-0.94351 ,-9.25777 
432 ,78.9867 ,1.38369 ,-0.96405 ,-9.45924 
433 ,79.1631 ,1.38552 ,-0.95720 ,-9.39208 
434 ,79.3553 ,1.38739 ,-0.98458 ,-9.66071 
435 ,79.5473 ,1.38937 ,-0.97089 ,-9.52639 
436 ,79.7234 ,1.39114 ,-0.98458 ,-9.66071 
437 ,79.8995 ,1.39288 ,-1.00854 ,-9.89576 
438 ,80.0754 ,1.39466 ,-1.00511 ,-9.86218 
439 ,80.2675 ,1.39648 ,-0.99485 ,-9.76144 
440 ,80.4436 ,1.39834 ,-0.99485 ,-9.76144 
441 ,80.6356 ,1.40020 ,-1.01538 ,-9.96291 
442 ,80.8436 ,1.40217 ,-1.00169 ,-9.82860 
443 ,81.0356 ,1.40414 ,-1.02907 ,-10.09723 
444 ,81.2119 ,1.40599 ,-1.03249 ,-10.13080 
445 ,81.4037 ,1.40785 ,-1.03591 ,-10.16438 
446 ,81.5960 ,1.40982 ,-1.04276 ,-10.23154 
447 ,81.8042 ,1.41186 ,-1.05302 ,-10.33227 
448 ,81.9959 ,1.41386 ,-1.06671 ,-10.46659 
449 ,82.1724 ,1.41561 ,-1.07014 ,-10.50016 
450 ,82.3803 ,1.41759 ,-1.07698 ,-10.56732 
451 ,82.5725 ,1.41959 ,-1.10093 ,-10.80237 
452 ,82.7805 ,1.42160 ,-1.10093 ,-10.80237 
453 ,82.9567 ,1.42346 ,-1.12831 ,-11.07100 
454 ,83.1644 ,1.42552 ,-1.09751 ,-10.76879 
455 ,83.3408 ,1.42730 ,-1.14200 ,-11.20531 
456 ,83.5166 ,1.42905 ,-1.15227 ,-11.30604 
457 ,83.6928 ,1.43081 ,-1.15227 ,-11.30604 
458 ,83.8849 ,1.43273 ,-1.13516 ,-11.13815 
459 ,84.0610 ,1.43448 ,-1.16253 ,-11.40678 
460 ,84.2371 ,1.43626 ,-1.18307 ,-11.60825 
461 ,84.4291 ,1.43819 ,-1.17280 ,-11.50751 
