Data stamp = , 04-04-2022 18:48:10 211

Calibration Values: 
Slope = , 26.54 , g/V 
Offset Voltage at no contact = , -0.501760 , V 

No , Time , Stage Position ,   Mass , Force 
   ,  (s) ,      (mm)      ,   (g)  , (mN)  

1 ,0.0000 ,0.59952 ,5.10345 ,50.07509 
2 ,0.2345 ,0.59962 ,5.11714 ,50.20940 
3 ,0.5391 ,0.60050 ,5.10688 ,50.10867 
4 ,0.7631 ,0.60201 ,5.09319 ,49.97436 
5 ,0.9552 ,0.60384 ,5.11030 ,50.14225 
6 ,1.1313 ,0.60557 ,5.11030 ,50.14225 
7 ,1.3233 ,0.60736 ,5.11714 ,50.20940 
8 ,1.4995 ,0.60924 ,5.11714 ,50.20940 
9 ,1.6915 ,0.61115 ,5.08977 ,49.94078 
10 ,1.8675 ,0.61292 ,5.07608 ,49.80646 
11 ,2.0436 ,0.61477 ,5.07608 ,49.80646 
12 ,2.2197 ,0.61644 ,5.05897 ,49.63857 
13 ,2.3958 ,0.61816 ,5.03501 ,49.40352 
14 ,2.5720 ,0.62000 ,5.00421 ,49.10132 
15 ,2.7640 ,0.62187 ,5.01448 ,49.20205 
16 ,2.9400 ,0.62366 ,4.99394 ,49.00058 
17 ,3.1159 ,0.62545 ,4.97683 ,48.83269 
18 ,3.2922 ,0.62719 ,4.95288 ,48.59764 
19 ,3.4522 ,0.62894 ,4.93577 ,48.42975 
20 ,3.6281 ,0.63051 ,4.91523 ,48.22828 
21 ,3.8044 ,0.63229 ,4.91866 ,48.26186 
22 ,3.9806 ,0.63402 ,4.90497 ,48.12755 
23 ,4.1725 ,0.63590 ,4.89128 ,47.99324 
24 ,4.3486 ,0.63777 ,4.85364 ,47.62387 
25 ,4.5247 ,0.63944 ,4.84679 ,47.55672 
26 ,4.7004 ,0.64127 ,4.83652 ,47.45598 
27 ,4.8768 ,0.64300 ,4.80573 ,47.15378 
28 ,5.0851 ,0.64507 ,4.80915 ,47.18736 
29 ,5.2609 ,0.64689 ,4.79204 ,47.01946 
30 ,5.4530 ,0.64871 ,4.75097 ,46.61653 
31 ,5.6449 ,0.65065 ,4.75782 ,46.68368 
32 ,5.8371 ,0.65255 ,4.72359 ,46.34790 
33 ,6.0135 ,0.65438 ,4.70306 ,46.14643 
34 ,6.2214 ,0.65637 ,4.69279 ,46.04569 
35 ,6.4134 ,0.65838 ,4.66542 ,45.77707 
36 ,6.5895 ,0.66013 ,4.63804 ,45.50844 
37 ,6.7658 ,0.66188 ,4.64488 ,45.57560 
38 ,6.9577 ,0.66381 ,4.62777 ,45.40771 
39 ,7.1339 ,0.66556 ,4.60382 ,45.17266 
40 ,7.3096 ,0.66736 ,4.59355 ,45.07192 
41 ,7.4858 ,0.66905 ,4.57644 ,44.90403 
42 ,7.6620 ,0.67084 ,4.56960 ,44.83688 
43 ,7.8541 ,0.67272 ,4.53537 ,44.50109 
44 ,8.0301 ,0.67459 ,4.50457 ,44.19889 
45 ,8.2063 ,0.67631 ,4.50457 ,44.19889 
46 ,8.3822 ,0.67807 ,4.50800 ,44.23247 
47 ,8.5583 ,0.67977 ,4.48062 ,43.96384 
48 ,8.7344 ,0.68152 ,4.46351 ,43.79595 
49 ,8.9106 ,0.68329 ,4.43613 ,43.52732 
50 ,9.0864 ,0.68510 ,4.42929 ,43.46016 
51 ,9.2945 ,0.68703 ,4.39849 ,43.15796 
52 ,9.4708 ,0.68894 ,4.38480 ,43.02365 
53 ,9.6465 ,0.69066 ,4.36769 ,42.85576 
54 ,9.8229 ,0.69246 ,4.36769 ,42.85576 
55 ,10.0310 ,0.69444 ,4.33347 ,42.51997 
56 ,10.2071 ,0.69630 ,4.31978 ,42.38566 
57 ,10.3831 ,0.69805 ,4.32320 ,42.41924 
58 ,10.5592 ,0.69977 ,4.29924 ,42.18419 
59 ,10.7351 ,0.70158 ,4.27529 ,41.94914 
60 ,10.9274 ,0.70342 ,4.25133 ,41.71409 
61 ,11.1194 ,0.70538 ,4.24107 ,41.61336 
62 ,11.2955 ,0.70715 ,4.22738 ,41.47905 
63 ,11.4716 ,0.70896 ,4.21369 ,41.34473 
64 ,11.6636 ,0.71084 ,4.19658 ,41.17684 
65 ,11.8394 ,0.71258 ,4.17947 ,41.00895 
66 ,12.0157 ,0.71439 ,4.15894 ,40.80748 
67 ,12.2237 ,0.71642 ,4.14867 ,40.70674 
68 ,12.4158 ,0.71830 ,4.12129 ,40.43812 
69 ,12.5921 ,0.72015 ,4.10076 ,40.23665 
70 ,12.7839 ,0.72200 ,4.09391 ,40.16949 
71 ,12.9762 ,0.72404 ,4.06996 ,39.93444 
72 ,13.1521 ,0.72575 ,4.04600 ,39.69940 
73 ,13.3283 ,0.72750 ,4.02547 ,39.49793 
74 ,13.5045 ,0.72929 ,4.03574 ,39.59866 
75 ,13.6960 ,0.73118 ,3.98783 ,39.12856 
76 ,13.9046 ,0.73314 ,3.98441 ,39.09499 
77 ,14.0966 ,0.73513 ,3.95703 ,38.82636 
78 ,14.3047 ,0.73713 ,3.96387 ,38.89352 
79 ,14.4808 ,0.73904 ,3.93650 ,38.62489 
80 ,14.6568 ,0.74082 ,3.91254 ,38.38984 
81 ,14.8490 ,0.74265 ,3.90912 ,38.35626 
82 ,15.0410 ,0.74459 ,3.88858 ,38.15479 
83 ,15.2330 ,0.74655 ,3.84410 ,37.71828 
84 ,15.4251 ,0.74847 ,3.85436 ,37.81901 
85 ,15.6013 ,0.75025 ,3.83041 ,37.58396 
86 ,15.7773 ,0.75203 ,3.82014 ,37.48323 
87 ,15.9535 ,0.75378 ,3.78934 ,37.18102 
88 ,16.1294 ,0.75551 ,3.78592 ,37.14744 
89 ,16.3056 ,0.75724 ,3.76881 ,36.97955 
90 ,16.4816 ,0.75904 ,3.75512 ,36.84524 
91 ,16.6575 ,0.76073 ,3.72774 ,36.57661 
92 ,17.0257 ,0.76350 ,3.71063 ,36.40872 
93 ,17.2179 ,0.76635 ,3.67299 ,36.03936 
94 ,17.4099 ,0.76832 ,3.65930 ,35.90505 
95 ,17.6020 ,0.77022 ,3.64561 ,35.77073 
96 ,17.7781 ,0.77202 ,3.62166 ,35.53569 
97 ,17.9700 ,0.77386 ,3.61139 ,35.43495 
98 ,18.1460 ,0.77565 ,3.59086 ,35.23348 
99 ,18.3225 ,0.77745 ,3.58059 ,35.13275 
100 ,18.5148 ,0.77931 ,3.55663 ,34.89770 
101 ,18.7067 ,0.78126 ,3.55321 ,34.86412 
102 ,18.8827 ,0.78304 ,3.53268 ,34.66265 
103 ,19.0587 ,0.78485 ,3.51899 ,34.52834 
104 ,19.2343 ,0.78656 ,3.48135 ,34.15898 
105 ,19.4111 ,0.78826 ,3.48135 ,34.15898 
106 ,19.5867 ,0.79004 ,3.48135 ,34.15898 
107 ,19.7630 ,0.79179 ,3.44370 ,33.78961 
108 ,19.9391 ,0.79360 ,3.41975 ,33.55457 
109 ,20.1312 ,0.79553 ,3.40606 ,33.42025 
110 ,20.3072 ,0.79727 ,3.39579 ,33.31952 
111 ,20.4832 ,0.79903 ,3.38553 ,33.21878 
112 ,20.6754 ,0.80085 ,3.35130 ,32.88300 
113 ,20.8514 ,0.80268 ,3.33419 ,32.71511 
114 ,21.0275 ,0.80451 ,3.33077 ,32.68153 
115 ,21.2196 ,0.80635 ,3.29313 ,32.31217 
116 ,21.3957 ,0.80816 ,3.26917 ,32.07712 
117 ,21.5717 ,0.80991 ,3.27944 ,32.17786 
118 ,21.7799 ,0.81190 ,3.24522 ,31.84207 
119 ,21.9558 ,0.81375 ,3.22126 ,31.60702 
120 ,22.1799 ,0.81581 ,3.20415 ,31.43913 
121 ,22.3556 ,0.81773 ,3.17335 ,31.13693 
122 ,22.5320 ,0.81953 ,3.17677 ,31.17051 
123 ,22.7240 ,0.82142 ,3.16309 ,31.03619 
124 ,22.9163 ,0.82330 ,3.13571 ,30.76757 
125 ,23.0923 ,0.82512 ,3.11175 ,30.53252 
126 ,23.2684 ,0.82683 ,3.12202 ,30.63325 
127 ,23.4442 ,0.82859 ,3.08438 ,30.26389 
128 ,23.6203 ,0.83037 ,3.07069 ,30.12958 
129 ,23.7964 ,0.83215 ,3.04331 ,29.86095 
130 ,23.9886 ,0.83403 ,3.04673 ,29.89453 
131 ,24.1809 ,0.83598 ,3.02278 ,29.65948 
132 ,24.3567 ,0.83776 ,2.99540 ,29.39086 
133 ,24.5486 ,0.83967 ,2.99882 ,29.42444 
134 ,24.7248 ,0.84140 ,2.98513 ,29.29012 
135 ,24.9170 ,0.84334 ,2.94749 ,28.92076 
136 ,25.1091 ,0.84518 ,2.93380 ,28.78645 
137 ,25.3172 ,0.84726 ,2.90985 ,28.55140 
138 ,25.4933 ,0.84914 ,2.89273 ,28.38351 
139 ,25.6695 ,0.85089 ,2.88589 ,28.31635 
140 ,25.8614 ,0.85280 ,2.83798 ,27.84625 
141 ,26.0536 ,0.85465 ,2.84140 ,27.87983 
142 ,26.2456 ,0.85662 ,2.81402 ,27.61121 
143 ,26.4377 ,0.85857 ,2.78665 ,27.34258 
144 ,26.6136 ,0.86031 ,2.77296 ,27.20827 
145 ,26.7899 ,0.86210 ,2.76269 ,27.10753 
146 ,26.9819 ,0.86400 ,2.73189 ,26.80533 
147 ,27.1580 ,0.86572 ,2.71136 ,26.60386 
148 ,27.3341 ,0.86752 ,2.69425 ,26.43597 
149 ,27.5104 ,0.86927 ,2.69767 ,26.46954 
150 ,27.7019 ,0.87121 ,2.67372 ,26.23450 
151 ,27.8782 ,0.87290 ,2.64634 ,25.96587 
152 ,28.0544 ,0.87466 ,2.63265 ,25.83156 
153 ,28.2303 ,0.87646 ,2.62923 ,25.79798 
154 ,28.4065 ,0.87824 ,2.60869 ,25.59651 
155 ,28.5984 ,0.88007 ,2.59158 ,25.42862 
156 ,28.7905 ,0.88205 ,2.58474 ,25.36146 
157 ,28.9667 ,0.88380 ,2.55394 ,25.05926 
158 ,29.1588 ,0.88568 ,2.52656 ,24.79063 
159 ,29.3349 ,0.88752 ,2.52656 ,24.79063 
160 ,29.5266 ,0.88939 ,2.51630 ,24.68989 
161 ,29.7030 ,0.89118 ,2.48550 ,24.38769 
162 ,29.8631 ,0.89290 ,2.46496 ,24.18622 
163 ,30.0390 ,0.89452 ,2.45812 ,24.11906 
164 ,30.2310 ,0.89647 ,2.44785 ,24.01833 
165 ,30.4071 ,0.89819 ,2.43759 ,23.91759 
166 ,30.5993 ,0.90004 ,2.41363 ,23.68255 
167 ,30.7756 ,0.90189 ,2.39310 ,23.48108 
168 ,30.9674 ,0.90374 ,2.37941 ,23.34676 
169 ,31.1597 ,0.90565 ,2.36230 ,23.17887 
170 ,31.3517 ,0.90766 ,2.36230 ,23.17887 
171 ,31.5278 ,0.90941 ,2.33492 ,22.91024 
172 ,31.7198 ,0.91123 ,2.30412 ,22.60804 
173 ,31.8958 ,0.91310 ,2.29385 ,22.50731 
174 ,32.0879 ,0.91498 ,2.28359 ,22.40657 
175 ,32.2641 ,0.91679 ,2.25279 ,22.10437 
176 ,32.4400 ,0.91852 ,2.23568 ,21.93647 
177 ,32.6321 ,0.92033 ,2.23568 ,21.93647 
178 ,32.8242 ,0.92239 ,2.20830 ,21.66785 
179 ,33.0163 ,0.92434 ,2.19803 ,21.56711 
180 ,33.1925 ,0.92604 ,2.18092 ,21.39922 
181 ,33.3685 ,0.92782 ,2.17066 ,21.29849 
182 ,33.5606 ,0.92960 ,2.15012 ,21.09702 
183 ,33.7528 ,0.93167 ,2.13301 ,20.92912 
184 ,33.9448 ,0.93361 ,2.09879 ,20.59334 
185 ,34.1209 ,0.93536 ,2.09879 ,20.59334 
186 ,34.3290 ,0.93735 ,2.08510 ,20.45903 
187 ,34.5051 ,0.93921 ,2.06115 ,20.22398 
188 ,34.6971 ,0.94101 ,2.05088 ,20.12325 
189 ,34.8732 ,0.94283 ,2.04061 ,20.02251 
190 ,35.0654 ,0.94477 ,2.01324 ,19.75388 
191 ,35.2574 ,0.94665 ,2.01324 ,19.75388 
192 ,35.4492 ,0.94864 ,1.99613 ,19.58599 
193 ,35.6254 ,0.95037 ,1.95506 ,19.18305 
194 ,35.8016 ,0.95219 ,1.95164 ,19.14948 
195 ,36.0096 ,0.95417 ,1.94137 ,19.04874 
196 ,36.2016 ,0.95610 ,1.92084 ,18.84727 
197 ,36.3776 ,0.95788 ,1.90373 ,18.67938 
198 ,36.5539 ,0.95964 ,1.89346 ,18.57864 
199 ,36.7459 ,0.96156 ,1.86266 ,18.27644 
200 ,36.9219 ,0.96336 ,1.85582 ,18.20928 
201 ,37.0978 ,0.96506 ,1.83871 ,18.04139 
202 ,37.2740 ,0.96687 ,1.83871 ,18.04139 
203 ,37.4501 ,0.96862 ,1.82160 ,17.87350 
204 ,37.6261 ,0.97048 ,1.79422 ,17.60487 
205 ,37.8023 ,0.97222 ,1.80106 ,17.67203 
206 ,37.9784 ,0.97392 ,1.77026 ,17.36983 
207 ,38.1705 ,0.97570 ,1.76342 ,17.30267 
208 ,38.3625 ,0.97771 ,1.73946 ,17.06762 
209 ,38.5387 ,0.97946 ,1.72920 ,16.96689 
210 ,38.7304 ,0.98145 ,1.70866 ,16.76542 
211 ,38.9068 ,0.98321 ,1.68129 ,16.49679 
212 ,39.0829 ,0.98493 ,1.67786 ,16.46321 
213 ,39.2751 ,0.98684 ,1.66760 ,16.36248 
214 ,39.4669 ,0.98870 ,1.63680 ,16.06027 
215 ,39.6591 ,0.99067 ,1.64022 ,16.09385 
216 ,39.8352 ,0.99246 ,1.62311 ,15.92596 
217 ,40.0114 ,0.99421 ,1.59573 ,15.65733 
218 ,40.1872 ,0.99596 ,1.57862 ,15.48944 
219 ,40.3791 ,0.99790 ,1.59231 ,15.62375 
220 ,40.5554 ,0.99968 ,1.57520 ,15.45586 
221 ,40.7315 ,1.00146 ,1.54098 ,15.12008 
222 ,40.9076 ,1.00319 ,1.52045 ,14.91861 
223 ,41.0998 ,1.00497 ,1.49649 ,14.68356 
224 ,41.2918 ,1.00695 ,1.49649 ,14.68356 
225 ,41.4516 ,1.00875 ,1.47938 ,14.51567 
226 ,41.6280 ,1.01041 ,1.46569 ,14.38136 
227 ,41.8199 ,1.01229 ,1.45200 ,14.24704 
228 ,42.0281 ,1.01427 ,1.44516 ,14.17989 
229 ,42.2202 ,1.01631 ,1.43147 ,14.04557 
230 ,42.3962 ,1.01807 ,1.41094 ,13.84410 
231 ,42.5723 ,1.01991 ,1.39383 ,13.67621 
232 ,42.7483 ,1.02162 ,1.37329 ,13.47474 
233 ,42.9245 ,1.02334 ,1.36645 ,13.40759 
234 ,43.1166 ,1.02530 ,1.36987 ,13.44116 
235 ,43.3086 ,1.02717 ,1.32538 ,13.00465 
236 ,43.4847 ,1.02896 ,1.31854 ,12.93749 
237 ,43.6604 ,1.03070 ,1.30485 ,12.80318 
238 ,43.8529 ,1.03261 ,1.29116 ,12.66886 
239 ,44.0445 ,1.03451 ,1.27063 ,12.46739 
240 ,44.2208 ,1.03632 ,1.26720 ,12.43381 
241 ,44.4132 ,1.03817 ,1.23983 ,12.16519 
242 ,44.6049 ,1.04010 ,1.22614 ,12.03088 
243 ,44.7811 ,1.04189 ,1.20903 ,11.86298 
244 ,44.9734 ,1.04377 ,1.19192 ,11.69509 
245 ,45.1494 ,1.04559 ,1.19192 ,11.69509 
246 ,45.3255 ,1.04739 ,1.16454 ,11.42647 
247 ,45.5015 ,1.04913 ,1.17481 ,11.52720 
248 ,45.6773 ,1.05084 ,1.16454 ,11.42647 
249 ,45.8538 ,1.05262 ,1.12690 ,11.05710 
250 ,46.0618 ,1.05463 ,1.12690 ,11.05710 
251 ,46.2379 ,1.05642 ,1.10979 ,10.88921 
252 ,46.4300 ,1.05836 ,1.08241 ,10.62059 
253 ,46.6221 ,1.06031 ,1.07899 ,10.58701 
254 ,46.7819 ,1.06202 ,1.07214 ,10.51985 
255 ,46.9583 ,1.06370 ,1.06187 ,10.41912 
256 ,47.1503 ,1.06558 ,1.02081 ,10.01618 
257 ,47.3263 ,1.06734 ,1.02081 ,10.01618 
258 ,47.5023 ,1.06916 ,1.01739 ,9.98260 
259 ,47.6785 ,1.07090 ,1.00028 ,9.81471 
260 ,47.8542 ,1.07257 ,0.98659 ,9.68039 
261 ,48.0303 ,1.07438 ,0.95921 ,9.41177 
262 ,48.2066 ,1.07613 ,0.95921 ,9.41177 
263 ,48.3827 ,1.07789 ,0.95579 ,9.37819 
264 ,48.5588 ,1.07964 ,0.94210 ,9.24388 
265 ,48.7510 ,1.08164 ,0.90103 ,8.84094 
266 ,48.9429 ,1.08342 ,0.89761 ,8.80736 
267 ,49.1189 ,1.08525 ,0.90446 ,8.87451 
268 ,49.2950 ,1.08700 ,0.87708 ,8.60589 
269 ,49.4869 ,1.08893 ,0.85312 ,8.37084 
270 ,49.6629 ,1.09066 ,0.85654 ,8.40442 
271 ,49.8389 ,1.09245 ,0.83943 ,8.23653 
272 ,50.0154 ,1.09422 ,0.82232 ,8.06864 
273 ,50.2074 ,1.09618 ,0.81548 ,8.00148 
274 ,50.3836 ,1.09792 ,0.79837 ,7.83359 
275 ,50.5595 ,1.09968 ,0.79837 ,7.83359 
276 ,50.7516 ,1.10158 ,0.75046 ,7.36349 
277 ,50.9277 ,1.10331 ,0.74361 ,7.29633 
278 ,51.1038 ,1.10512 ,0.74704 ,7.32991 
279 ,51.2959 ,1.10703 ,0.72992 ,7.16202 
280 ,51.5040 ,1.10898 ,0.72308 ,7.09486 
281 ,51.6801 ,1.11091 ,0.71281 ,6.99413 
282 ,51.8559 ,1.11267 ,0.69570 ,6.82624 
283 ,52.0480 ,1.11452 ,0.67859 ,6.65835 
284 ,52.2402 ,1.11641 ,0.66490 ,6.52403 
285 ,52.4320 ,1.11838 ,0.64437 ,6.32256 
286 ,52.6084 ,1.12015 ,0.63410 ,6.22183 
287 ,52.8164 ,1.12211 ,0.60330 ,5.91962 
288 ,52.9926 ,1.12394 ,0.58962 ,5.78531 
289 ,53.1844 ,1.12589 ,0.59988 ,5.88605 
290 ,53.3607 ,1.12768 ,0.58277 ,5.71815 
291 ,53.5367 ,1.12940 ,0.56224 ,5.51668 
292 ,53.7129 ,1.13119 ,0.54171 ,5.31522 
293 ,53.9050 ,1.13307 ,0.54855 ,5.38237 
294 ,54.0809 ,1.13490 ,0.54855 ,5.38237 
295 ,54.2569 ,1.13660 ,0.52459 ,5.14732 
296 ,54.4489 ,1.13848 ,0.49722 ,4.87870 
297 ,54.6251 ,1.14030 ,0.49380 ,4.84512 
298 ,54.8330 ,1.14226 ,0.46984 ,4.61007 
299 ,55.0093 ,1.14415 ,0.45273 ,4.44218 
300 ,55.1854 ,1.14593 ,0.44931 ,4.40860 
301 ,55.3616 ,1.14771 ,0.44246 ,4.34144 
302 ,55.5375 ,1.14941 ,0.41509 ,4.07282 
303 ,55.7136 ,1.15118 ,0.39113 ,3.83777 
304 ,55.8898 ,1.15293 ,0.38429 ,3.77061 
305 ,56.0659 ,1.15472 ,0.39113 ,3.83777 
306 ,56.2576 ,1.15667 ,0.36718 ,3.60272 
307 ,56.4338 ,1.15839 ,0.35006 ,3.43483 
308 ,56.6259 ,1.16030 ,0.35349 ,3.46841 
309 ,56.8180 ,1.16215 ,0.32953 ,3.23336 
310 ,57.0103 ,1.16415 ,0.31242 ,3.06547 
311 ,57.1862 ,1.16588 ,0.30558 ,2.99831 
312 ,57.3620 ,1.16763 ,0.30215 ,2.96473 
313 ,57.5383 ,1.16943 ,0.27820 ,2.72969 
314 ,57.7306 ,1.17138 ,0.26793 ,2.62895 
315 ,57.9065 ,1.17313 ,0.25767 ,2.52822 
316 ,58.0987 ,1.17501 ,0.24055 ,2.36032 
317 ,58.2747 ,1.17679 ,0.21660 ,2.12528 
318 ,58.4344 ,1.17852 ,0.21318 ,2.09170 
319 ,58.6110 ,1.18015 ,0.19949 ,1.95738 
320 ,58.8030 ,1.18205 ,0.19949 ,1.95738 
321 ,58.9625 ,1.18377 ,0.17896 ,1.75592 
322 ,59.1386 ,1.18547 ,0.17211 ,1.68876 
323 ,59.3147 ,1.18716 ,0.14816 ,1.45371 
324 ,59.4908 ,1.18893 ,0.15500 ,1.52087 
325 ,59.6674 ,1.19078 ,0.14473 ,1.42013 
326 ,59.8593 ,1.19266 ,0.11393 ,1.11793 
327 ,60.0353 ,1.19438 ,0.09340 ,0.91646 
328 ,60.2117 ,1.19616 ,0.09682 ,0.95004 
329 ,60.4036 ,1.19811 ,0.08998 ,0.88288 
330 ,60.5795 ,1.19982 ,0.06945 ,0.68141 
331 ,60.7717 ,1.20171 ,0.05918 ,0.58067 
332 ,60.9638 ,1.20366 ,0.05918 ,0.58067 
333 ,61.1399 ,1.20546 ,0.04891 ,0.47994 
334 ,61.3320 ,1.20737 ,0.02496 ,0.24489 
335 ,61.5240 ,1.20923 ,0.01469 ,0.14416 
336 ,61.6841 ,1.21095 ,0.00100 ,0.00984 
337 ,61.8761 ,1.21276 ,-0.01611 ,-0.15805 
338 ,62.0522 ,1.21449 ,-0.01269 ,-0.12447 
339 ,62.2281 ,1.21626 ,-0.03322 ,-0.32594 
340 ,62.4204 ,1.21824 ,-0.03664 ,-0.35952 
341 ,62.6126 ,1.22011 ,-0.04348 ,-0.42667 
342 ,62.8045 ,1.22207 ,-0.05033 ,-0.49383 
343 ,62.9966 ,1.22398 ,-0.08455 ,-0.82961 
344 ,63.1726 ,1.22579 ,-0.09482 ,-0.93035 
345 ,63.3486 ,1.22751 ,-0.08113 ,-0.79604 
346 ,63.5407 ,1.22945 ,-0.11535 ,-1.13182 
347 ,63.7167 ,1.23120 ,-0.12562 ,-1.23255 
348 ,63.8929 ,1.23292 ,-0.11535 ,-1.13182 
349 ,64.0849 ,1.23481 ,-0.12219 ,-1.19898 
350 ,64.2611 ,1.23663 ,-0.14273 ,-1.40045 
351 ,64.4371 ,1.23840 ,-0.15984 ,-1.56834 
352 ,64.6293 ,1.24019 ,-0.14957 ,-1.46760 
353 ,64.8212 ,1.24222 ,-0.16668 ,-1.63549 
354 ,64.9973 ,1.24395 ,-0.18379 ,-1.80338 
355 ,65.1736 ,1.24573 ,-0.19406 ,-1.90412 
356 ,65.3495 ,1.24754 ,-0.18722 ,-1.83696 
357 ,65.5255 ,1.24924 ,-0.20090 ,-1.97128 
358 ,65.7017 ,1.25101 ,-0.22486 ,-2.20632 
359 ,65.8774 ,1.25274 ,-0.25224 ,-2.47495 
360 ,66.0537 ,1.25450 ,-0.22486 ,-2.20632 
361 ,66.2299 ,1.25628 ,-0.23855 ,-2.34064 
362 ,66.4062 ,1.25810 ,-0.25566 ,-2.50853 
363 ,66.5821 ,1.25985 ,-0.28304 ,-2.77716 
364 ,66.7581 ,1.26162 ,-0.28304 ,-2.77716 
365 ,66.9341 ,1.26334 ,-0.28304 ,-2.77716 
366 ,67.1104 ,1.26511 ,-0.28988 ,-2.84431 
367 ,67.2862 ,1.26685 ,-0.31041 ,-3.04578 
368 ,67.4624 ,1.26863 ,-0.32410 ,-3.18010 
369 ,67.6385 ,1.27033 ,-0.33095 ,-3.24725 
370 ,67.8149 ,1.27211 ,-0.33437 ,-3.28083 
371 ,67.9906 ,1.27389 ,-0.34464 ,-3.38156 
372 ,68.1667 ,1.27562 ,-0.36175 ,-3.54946 
373 ,68.3587 ,1.27762 ,-0.37544 ,-3.68377 
374 ,68.5830 ,1.27969 ,-0.38570 ,-3.78450 
375 ,68.7589 ,1.28160 ,-0.39939 ,-3.91882 
376 ,68.9350 ,1.28335 ,-0.40281 ,-3.95240 
377 ,69.0951 ,1.28504 ,-0.40623 ,-3.98597 
378 ,69.2871 ,1.28682 ,-0.43361 ,-4.25460 
379 ,69.4634 ,1.28865 ,-0.44046 ,-4.32176 
380 ,69.6394 ,1.29043 ,-0.45757 ,-4.48965 
381 ,69.8156 ,1.29215 ,-0.45414 ,-4.45607 
382 ,70.0074 ,1.29403 ,-0.46099 ,-4.52323 
383 ,70.1836 ,1.29584 ,-0.47810 ,-4.69112 
384 ,70.3597 ,1.29763 ,-0.48494 ,-4.75828 
385 ,70.5358 ,1.29937 ,-0.48494 ,-4.75828 
386 ,70.7278 ,1.30117 ,-0.52259 ,-5.12764 
387 ,70.9040 ,1.30301 ,-0.51574 ,-5.06048 
388 ,71.0960 ,1.30488 ,-0.50890 ,-4.99332 
389 ,71.2881 ,1.30682 ,-0.53285 ,-5.22837 
390 ,71.4961 ,1.30893 ,-0.54654 ,-5.36268 
391 ,71.6722 ,1.31072 ,-0.54312 ,-5.32911 
392 ,71.8802 ,1.31260 ,-0.55681 ,-5.46342 
393 ,72.0724 ,1.31458 ,-0.56708 ,-5.56415 
394 ,72.2323 ,1.31644 ,-0.58419 ,-5.73205 
395 ,72.4087 ,1.31811 ,-0.58761 ,-5.76562 
396 ,72.6003 ,1.32001 ,-0.61499 ,-6.03425 
397 ,72.7765 ,1.32176 ,-0.59788 ,-5.86636 
398 ,72.9527 ,1.32350 ,-0.62183 ,-6.10141 
399 ,73.1288 ,1.32533 ,-0.63210 ,-6.20214 
400 ,73.3208 ,1.32716 ,-0.64579 ,-6.33646 
401 ,73.5130 ,1.32898 ,-0.64921 ,-6.37003 
402 ,73.6891 ,1.33094 ,-0.65263 ,-6.40361 
403 ,73.8651 ,1.33261 ,-0.68343 ,-6.70582 
404 ,74.0412 ,1.33438 ,-0.69370 ,-6.80655 
405 ,74.2174 ,1.33614 ,-0.68001 ,-6.67224 
406 ,74.3933 ,1.33804 ,-0.70054 ,-6.87371 
407 ,74.5854 ,1.33976 ,-0.70054 ,-6.87371 
408 ,74.7615 ,1.34161 ,-0.71765 ,-7.04160 
409 ,74.9372 ,1.34339 ,-0.71423 ,-7.00802 
410 ,75.1296 ,1.34528 ,-0.74503 ,-7.31023 
411 ,75.3057 ,1.34704 ,-0.75530 ,-7.41096 
412 ,75.4975 ,1.34892 ,-0.74503 ,-7.31023 
413 ,75.6897 ,1.35091 ,-0.76214 ,-7.47812 
414 ,75.8657 ,1.35263 ,-0.77583 ,-7.61243 
415 ,76.0417 ,1.35443 ,-0.78952 ,-7.74674 
416 ,76.2180 ,1.35620 ,-0.78610 ,-7.71317 
417 ,76.4098 ,1.35805 ,-0.79294 ,-7.78032 
418 ,76.5858 ,1.35983 ,-0.81005 ,-7.94821 
419 ,76.7622 ,1.36161 ,-0.81005 ,-7.94821 
420 ,76.9384 ,1.36340 ,-0.81347 ,-7.98179 
421 ,77.1304 ,1.36529 ,-0.82032 ,-8.04895 
422 ,77.3225 ,1.36710 ,-0.81347 ,-7.98179 
423 ,77.4982 ,1.36899 ,-0.83058 ,-8.14968 
424 ,77.6907 ,1.37079 ,-0.83401 ,-8.18326 
425 ,77.8826 ,1.37280 ,-0.85112 ,-8.35115 
426 ,78.0748 ,1.37466 ,-0.84427 ,-8.28400 
427 ,78.2667 ,1.37660 ,-0.87165 ,-8.55262 
428 ,78.4589 ,1.37857 ,-0.87507 ,-8.58620 
429 ,78.6347 ,1.38028 ,-0.87849 ,-8.61978 
430 ,78.8110 ,1.38205 ,-0.89218 ,-8.75409 
431 ,78.9871 ,1.38382 ,-0.89560 ,-8.78767 
432 ,79.1792 ,1.38567 ,-0.88534 ,-8.68694 
433 ,79.3553 ,1.38752 ,-0.90587 ,-8.88841 
434 ,79.5311 ,1.38927 ,-0.92983 ,-9.12345 
435 ,79.7071 ,1.39105 ,-0.93325 ,-9.15703 
436 ,79.8995 ,1.39294 ,-0.92640 ,-9.08988 
437 ,80.0916 ,1.39474 ,-0.95036 ,-9.32492 
438 ,80.2996 ,1.39676 ,-0.94694 ,-9.29135 
439 ,80.4918 ,1.39887 ,-0.97774 ,-9.59355 
440 ,80.6834 ,1.40071 ,-0.97774 ,-9.59355 
441 ,80.8599 ,1.40256 ,-0.97774 ,-9.59355 
442 ,81.0519 ,1.40447 ,-0.99827 ,-9.79502 
443 ,81.2277 ,1.40624 ,-1.02565 ,-10.06365 
444 ,81.4041 ,1.40797 ,-1.01538 ,-9.96291 
445 ,81.5962 ,1.40988 ,-1.02565 ,-10.06365 
446 ,81.7723 ,1.41167 ,-1.03934 ,-10.19796 
447 ,81.9484 ,1.41344 ,-1.04276 ,-10.23154 
448 ,82.1405 ,1.41524 ,-1.04960 ,-10.29869 
449 ,82.3325 ,1.41725 ,-1.06329 ,-10.43301 
450 ,82.5086 ,1.41908 ,-1.09409 ,-10.73521 
451 ,82.6847 ,1.42077 ,-1.07014 ,-10.50016 
452 ,82.8927 ,1.42281 ,-1.10093 ,-10.80237 
453 ,83.0849 ,1.42475 ,-1.10778 ,-10.86953 
454 ,83.2610 ,1.42658 ,-1.10436 ,-10.83595 
455 ,83.4689 ,1.42849 ,-1.13173 ,-11.10457 
456 ,83.6451 ,1.43037 ,-1.11462 ,-10.93668 
457 ,83.8209 ,1.43219 ,-1.12489 ,-11.03742 
458 ,84.0133 ,1.43406 ,-1.14200 ,-11.20531 
459 ,84.2055 ,1.43598 ,-1.16596 ,-11.44036 
460 ,84.3814 ,1.43779 ,-1.14542 ,-11.23889 
461 ,84.5734 ,1.43964 ,-1.17964 ,-11.57467 
