Data stamp = , 04-04-2022 18:21:34 187

Calibration Values: 
Slope = , 26.54 , g/V 
Offset Voltage at no contact = , -0.501760 , V 

No , Time , Stage Position ,   Mass , Force 
   ,  (s) ,      (mm)      ,   (g)  , (mN)  

1 ,0.0000 ,0.59952 ,5.14110 ,50.44445 
2 ,0.2038 ,0.59958 ,5.14794 ,50.51161 
3 ,0.5722 ,0.60063 ,5.14794 ,50.51161 
4 ,0.7645 ,0.60216 ,5.14452 ,50.47803 
5 ,0.9725 ,0.60392 ,5.13768 ,50.41087 
6 ,1.1805 ,0.60589 ,5.14110 ,50.44445 
7 ,1.3725 ,0.60792 ,5.14794 ,50.51161 
8 ,1.5649 ,0.60978 ,5.15136 ,50.54519 
9 ,1.7408 ,0.61179 ,5.11714 ,50.20940 
10 ,1.9170 ,0.61346 ,5.12056 ,50.24298 
11 ,2.0933 ,0.61526 ,5.12056 ,50.24298 
12 ,2.2691 ,0.61698 ,5.10688 ,50.10867 
13 ,2.4612 ,0.61885 ,5.08634 ,49.90720 
14 ,2.6373 ,0.62070 ,5.07950 ,49.84004 
15 ,2.8292 ,0.62255 ,5.08977 ,49.94078 
16 ,3.0211 ,0.62450 ,5.05212 ,49.57142 
17 ,3.2135 ,0.62630 ,5.03501 ,49.40352 
18 ,3.4055 ,0.62840 ,5.01790 ,49.23563 
19 ,3.5974 ,0.63017 ,5.02474 ,49.30279 
20 ,3.7734 ,0.63198 ,5.00421 ,49.10132 
21 ,3.9497 ,0.63377 ,4.98710 ,48.93343 
22 ,4.1416 ,0.63560 ,4.96657 ,48.73196 
23 ,4.3180 ,0.63745 ,4.93577 ,48.42975 
24 ,4.4940 ,0.63924 ,4.92550 ,48.32902 
25 ,4.6700 ,0.64093 ,4.90839 ,48.16113 
26 ,4.8458 ,0.64272 ,4.89812 ,48.06039 
27 ,5.0222 ,0.64449 ,4.87075 ,47.79177 
28 ,5.1981 ,0.64628 ,4.84337 ,47.52314 
29 ,5.3743 ,0.64804 ,4.82968 ,47.38883 
30 ,5.5663 ,0.64991 ,4.81941 ,47.28809 
31 ,5.7425 ,0.65172 ,4.77835 ,46.88515 
32 ,5.9184 ,0.65344 ,4.76808 ,46.78442 
33 ,6.1104 ,0.65524 ,4.78177 ,46.91873 
34 ,6.2866 ,0.65717 ,4.73386 ,46.44863 
35 ,6.4464 ,0.65884 ,4.71675 ,46.28074 
36 ,6.6384 ,0.66059 ,4.69964 ,46.11285 
37 ,6.8304 ,0.66253 ,4.69622 ,46.07927 
38 ,6.9908 ,0.66428 ,4.67568 ,45.87780 
39 ,7.1669 ,0.66591 ,4.65857 ,45.70991 
40 ,7.3432 ,0.66766 ,4.63119 ,45.44128 
41 ,7.5192 ,0.66947 ,4.61408 ,45.27339 
42 ,7.7113 ,0.67139 ,4.60040 ,45.13908 
43 ,7.9034 ,0.67335 ,4.57986 ,44.93761 
44 ,8.0793 ,0.67502 ,4.55249 ,44.66898 
45 ,8.2556 ,0.67682 ,4.55591 ,44.70256 
46 ,8.4316 ,0.67852 ,4.53537 ,44.50109 
47 ,8.6075 ,0.68034 ,4.50800 ,44.23247 
48 ,8.7835 ,0.68208 ,4.49431 ,44.09815 
49 ,8.9759 ,0.68387 ,4.48062 ,43.96384 
50 ,9.1679 ,0.68588 ,4.45666 ,43.72879 
51 ,9.3440 ,0.68773 ,4.43955 ,43.56090 
52 ,9.5199 ,0.68944 ,4.42586 ,43.42659 
53 ,9.6962 ,0.69123 ,4.42929 ,43.46016 
54 ,9.9041 ,0.69321 ,4.39164 ,43.09080 
55 ,10.1119 ,0.69527 ,4.39507 ,43.12438 
56 ,10.3044 ,0.69719 ,4.38138 ,42.99007 
57 ,10.5285 ,0.69942 ,4.34716 ,42.65429 
58 ,10.7046 ,0.70133 ,4.33004 ,42.48639 
59 ,10.9125 ,0.70331 ,4.29924 ,42.18419 
60 ,11.0886 ,0.70518 ,4.29240 ,42.11703 
61 ,11.2647 ,0.70690 ,4.26502 ,41.84841 
62 ,11.5048 ,0.70906 ,4.25818 ,41.78125 
63 ,11.6809 ,0.71105 ,4.23422 ,41.54620 
64 ,11.9051 ,0.71311 ,4.22738 ,41.47905 
65 ,12.0810 ,0.71512 ,4.18289 ,41.04253 
66 ,12.2731 ,0.71696 ,4.18631 ,41.07611 
67 ,12.4491 ,0.71874 ,4.15551 ,40.77390 
68 ,12.6413 ,0.72067 ,4.14183 ,40.63959 
69 ,12.8331 ,0.72260 ,4.12471 ,40.47170 
70 ,13.0093 ,0.72430 ,4.10418 ,40.27023 
71 ,13.2014 ,0.72623 ,4.09734 ,40.20307 
72 ,13.3774 ,0.72799 ,4.08365 ,40.06876 
73 ,13.5695 ,0.72993 ,4.05969 ,39.83371 
74 ,13.7454 ,0.73169 ,4.03574 ,39.59866 
75 ,13.9219 ,0.73349 ,4.02547 ,39.49793 
76 ,14.0979 ,0.73528 ,4.00836 ,39.33003 
77 ,14.2902 ,0.73710 ,3.98098 ,39.06141 
78 ,14.4820 ,0.73897 ,3.97756 ,39.02783 
79 ,14.6580 ,0.74080 ,3.96729 ,38.92709 
80 ,14.8342 ,0.74258 ,3.96387 ,38.89352 
81 ,15.0260 ,0.74443 ,3.92281 ,38.49058 
82 ,15.2023 ,0.74624 ,3.91254 ,38.38984 
83 ,15.3941 ,0.74812 ,3.88516 ,38.12122 
84 ,15.5703 ,0.74994 ,3.87490 ,38.02048 
85 ,15.7625 ,0.75189 ,3.85779 ,37.85259 
86 ,15.9386 ,0.75360 ,3.85094 ,37.78543 
87 ,16.1146 ,0.75538 ,3.83383 ,37.61754 
88 ,16.2908 ,0.75717 ,3.79961 ,37.28176 
89 ,16.4985 ,0.75914 ,3.80645 ,37.34891 
90 ,16.6909 ,0.76106 ,3.77565 ,37.04671 
91 ,16.8993 ,0.76316 ,3.75854 ,36.87882 
92 ,17.0751 ,0.76500 ,3.72774 ,36.57661 
93 ,17.2507 ,0.76672 ,3.71063 ,36.40872 
94 ,17.4272 ,0.76850 ,3.69010 ,36.20725 
95 ,17.6031 ,0.77026 ,3.67983 ,36.10652 
96 ,17.7790 ,0.77199 ,3.66957 ,36.00578 
97 ,17.9554 ,0.77377 ,3.65588 ,35.87147 
98 ,18.1633 ,0.77578 ,3.64561 ,35.77073 
99 ,18.3555 ,0.77778 ,3.61139 ,35.43495 
100 ,18.5476 ,0.77970 ,3.58401 ,35.16632 
101 ,18.7233 ,0.78150 ,3.57375 ,35.06559 
102 ,18.9155 ,0.78329 ,3.57032 ,35.03201 
103 ,19.1077 ,0.78527 ,3.52926 ,34.62907 
104 ,19.3000 ,0.78726 ,3.53952 ,34.72981 
105 ,19.4919 ,0.78911 ,3.50188 ,34.36045 
106 ,19.6679 ,0.79090 ,3.49504 ,34.29329 
107 ,19.8442 ,0.79274 ,3.48819 ,34.22613 
108 ,20.0201 ,0.79437 ,3.48819 ,34.22613 
109 ,20.1962 ,0.79616 ,3.46081 ,33.95751 
110 ,20.3724 ,0.79797 ,3.43001 ,33.65530 
111 ,20.5484 ,0.79972 ,3.40948 ,33.45383 
112 ,20.7241 ,0.80145 ,3.38553 ,33.21878 
113 ,20.9008 ,0.80329 ,3.38210 ,33.18520 
114 ,21.0766 ,0.80511 ,3.35473 ,32.91658 
115 ,21.2526 ,0.80677 ,3.34788 ,32.84942 
116 ,21.4287 ,0.80854 ,3.32735 ,32.64795 
117 ,21.6049 ,0.81034 ,3.32393 ,32.61437 
118 ,21.7809 ,0.81206 ,3.30339 ,32.41290 
119 ,21.9888 ,0.81399 ,3.28628 ,32.24501 
120 ,22.1966 ,0.81613 ,3.25548 ,31.94281 
121 ,22.3727 ,0.81794 ,3.22811 ,31.67418 
122 ,22.5490 ,0.81970 ,3.21100 ,31.50629 
123 ,22.7574 ,0.82173 ,3.20415 ,31.43913 
124 ,22.9334 ,0.82350 ,3.18704 ,31.27124 
125 ,23.1094 ,0.82528 ,3.15282 ,30.93546 
126 ,23.3015 ,0.82719 ,3.16309 ,31.03619 
127 ,23.4774 ,0.82898 ,3.14255 ,30.83472 
128 ,23.6695 ,0.83089 ,3.10149 ,30.43178 
129 ,23.8619 ,0.83273 ,3.10149 ,30.43178 
130 ,24.0377 ,0.83457 ,3.09806 ,30.39821 
131 ,24.2461 ,0.83652 ,3.05358 ,29.96169 
132 ,24.4220 ,0.83842 ,3.05358 ,29.96169 
133 ,24.5979 ,0.84018 ,3.02962 ,29.72664 
134 ,24.7741 ,0.84193 ,3.00224 ,29.45801 
135 ,24.9501 ,0.84368 ,2.97829 ,29.22297 
136 ,25.1424 ,0.84557 ,2.95433 ,28.98792 
137 ,25.3183 ,0.84736 ,2.95776 ,29.02150 
138 ,25.4947 ,0.84916 ,2.91669 ,28.61856 
139 ,25.6702 ,0.85092 ,2.88931 ,28.34993 
140 ,25.8462 ,0.85264 ,2.87220 ,28.18204 
141 ,26.0062 ,0.85438 ,2.88589 ,28.31635 
142 ,26.1828 ,0.85605 ,2.85509 ,28.01415 
143 ,26.3749 ,0.85796 ,2.83114 ,27.77910 
144 ,26.5669 ,0.85983 ,2.80376 ,27.51047 
145 ,26.7430 ,0.86165 ,2.80034 ,27.47689 
146 ,26.9194 ,0.86337 ,2.77980 ,27.27542 
147 ,27.0950 ,0.86513 ,2.76269 ,27.10753 
148 ,27.2871 ,0.86706 ,2.73531 ,26.83891 
149 ,27.4953 ,0.86904 ,2.73874 ,26.87248 
150 ,27.6871 ,0.87104 ,2.71136 ,26.60386 
151 ,27.8793 ,0.87287 ,2.69767 ,26.46954 
152 ,28.0715 ,0.87490 ,2.66345 ,26.13376 
153 ,28.2475 ,0.87665 ,2.64634 ,25.96587 
154 ,28.4233 ,0.87844 ,2.64976 ,25.99945 
155 ,28.5998 ,0.88020 ,2.63265 ,25.83156 
156 ,28.7916 ,0.88210 ,2.60185 ,25.52935 
157 ,28.9838 ,0.88401 ,2.58816 ,25.39504 
158 ,29.1599 ,0.88577 ,2.57789 ,25.29430 
159 ,29.3520 ,0.88764 ,2.53683 ,24.89136 
160 ,29.5440 ,0.88963 ,2.54367 ,24.95852 
161 ,29.7200 ,0.89135 ,2.54025 ,24.92494 
162 ,29.9122 ,0.89318 ,2.50261 ,24.55558 
163 ,30.0882 ,0.89506 ,2.48550 ,24.38769 
164 ,30.2961 ,0.89701 ,2.48207 ,24.35411 
165 ,30.5045 ,0.89905 ,2.45812 ,24.11906 
166 ,30.6803 ,0.90102 ,2.44101 ,23.95117 
167 ,30.8566 ,0.90272 ,2.41705 ,23.71612 
168 ,31.0487 ,0.90468 ,2.39652 ,23.51465 
169 ,31.2408 ,0.90664 ,2.39994 ,23.54823 
170 ,31.4328 ,0.90849 ,2.36914 ,23.24603 
171 ,31.6089 ,0.91027 ,2.34177 ,22.97740 
172 ,31.8330 ,0.91237 ,2.35203 ,23.07814 
173 ,32.0088 ,0.91421 ,2.30754 ,22.64162 
174 ,32.1852 ,0.91604 ,2.29385 ,22.50731 
175 ,32.3612 ,0.91779 ,2.28701 ,22.44015 
176 ,32.5693 ,0.91975 ,2.26990 ,22.27226 
177 ,32.7613 ,0.92177 ,2.25621 ,22.13794 
178 ,32.9374 ,0.92354 ,2.24252 ,22.00363 
179 ,33.1135 ,0.92527 ,2.22883 ,21.86932 
180 ,33.2895 ,0.92706 ,2.19803 ,21.56711 
181 ,33.4815 ,0.92899 ,2.19119 ,21.49996 
182 ,33.6738 ,0.93080 ,2.16723 ,21.26491 
183 ,33.8658 ,0.93284 ,2.16381 ,21.23133 
184 ,34.0419 ,0.93464 ,2.14670 ,21.06344 
185 ,34.2499 ,0.93657 ,2.12617 ,20.86197 
186 ,34.4261 ,0.93843 ,2.09537 ,20.55976 
187 ,34.6020 ,0.94017 ,2.09537 ,20.55976 
188 ,34.7942 ,0.94200 ,2.06799 ,20.29114 
189 ,34.9702 ,0.94388 ,2.06115 ,20.22398 
190 ,35.1624 ,0.94575 ,2.06115 ,20.22398 
191 ,35.3383 ,0.94754 ,2.04404 ,20.05609 
192 ,35.5145 ,0.94932 ,2.02008 ,19.82104 
193 ,35.6904 ,0.95110 ,2.00639 ,19.68673 
194 ,35.8666 ,0.95286 ,1.99955 ,19.61957 
195 ,36.0584 ,0.95476 ,1.97902 ,19.41810 
196 ,36.2347 ,0.95649 ,1.96533 ,19.28379 
197 ,36.4108 ,0.95823 ,1.92768 ,18.91443 
198 ,36.6026 ,0.96012 ,1.93111 ,18.94801 
199 ,36.7790 ,0.96191 ,1.93453 ,18.98158 
200 ,36.9709 ,0.96379 ,1.89004 ,18.54507 
201 ,37.1471 ,0.96562 ,1.87293 ,18.37717 
202 ,37.3229 ,0.96735 ,1.85924 ,18.24286 
203 ,37.4989 ,0.96911 ,1.85240 ,18.17570 
204 ,37.6752 ,0.97089 ,1.83528 ,18.00781 
205 ,37.8350 ,0.97258 ,1.82160 ,17.87350 
206 ,38.0275 ,0.97438 ,1.80106 ,17.67203 
207 ,38.2036 ,0.97618 ,1.80449 ,17.70561 
208 ,38.3793 ,0.97793 ,1.78395 ,17.50414 
209 ,38.5556 ,0.97967 ,1.77369 ,17.40340 
210 ,38.7318 ,0.98143 ,1.74973 ,17.16836 
211 ,38.9238 ,0.98338 ,1.72920 ,16.96689 
212 ,39.1158 ,0.98519 ,1.72235 ,16.89973 
213 ,39.3081 ,0.98725 ,1.69155 ,16.59752 
214 ,39.4841 ,0.98900 ,1.68129 ,16.49679 
215 ,39.6761 ,0.99080 ,1.66075 ,16.29532 
216 ,39.8679 ,0.99277 ,1.65733 ,16.26174 
217 ,40.0443 ,0.99459 ,1.64022 ,16.09385 
218 ,40.2363 ,0.99649 ,1.63338 ,16.02669 
219 ,40.4122 ,0.99825 ,1.60600 ,15.75807 
220 ,40.6045 ,1.00017 ,1.59573 ,15.65733 
221 ,40.7803 ,1.00200 ,1.58889 ,15.59018 
222 ,40.9563 ,1.00370 ,1.57178 ,15.42228 
223 ,41.1327 ,1.00545 ,1.55124 ,15.22081 
224 ,41.3087 ,1.00723 ,1.52045 ,14.91861 
225 ,41.4849 ,1.00895 ,1.53756 ,15.08650 
226 ,41.6771 ,1.01086 ,1.51702 ,14.88503 
227 ,41.8687 ,1.01275 ,1.49307 ,14.64998 
228 ,42.0451 ,1.01456 ,1.48622 ,14.58283 
229 ,42.2212 ,1.01632 ,1.47596 ,14.48209 
230 ,42.4289 ,1.01832 ,1.45200 ,14.24704 
231 ,42.6054 ,1.02014 ,1.43831 ,14.11273 
232 ,42.7814 ,1.02195 ,1.43147 ,14.04557 
233 ,42.9896 ,1.02390 ,1.39725 ,13.70979 
234 ,43.1976 ,1.02605 ,1.39725 ,13.70979 
235 ,43.3896 ,1.02796 ,1.37329 ,13.47474 
236 ,43.5816 ,1.02994 ,1.35276 ,13.27327 
237 ,43.7579 ,1.03170 ,1.35618 ,13.30685 
238 ,43.9496 ,1.03363 ,1.31169 ,12.87033 
239 ,44.1257 ,1.03539 ,1.30485 ,12.80318 
240 ,44.3181 ,1.03726 ,1.29116 ,12.66886 
241 ,44.5262 ,1.03935 ,1.28089 ,12.56813 
242 ,44.7181 ,1.04123 ,1.26720 ,12.43381 
243 ,44.9102 ,1.04311 ,1.24325 ,12.19877 
244 ,45.0863 ,1.04504 ,1.23298 ,12.09803 
245 ,45.2464 ,1.04669 ,1.22614 ,12.03088 
246 ,45.4224 ,1.04835 ,1.21587 ,11.93014 
247 ,45.5987 ,1.05013 ,1.20561 ,11.82941 
248 ,45.7906 ,1.05199 ,1.17823 ,11.56078 
249 ,45.9668 ,1.05380 ,1.15770 ,11.35931 
250 ,46.1748 ,1.05569 ,1.15427 ,11.32573 
251 ,46.3669 ,1.05776 ,1.13716 ,11.15784 
252 ,46.5588 ,1.05969 ,1.11321 ,10.92279 
253 ,46.7510 ,1.06151 ,1.10294 ,10.82206 
254 ,46.9431 ,1.06355 ,1.09952 ,10.78848 
255 ,47.1192 ,1.06533 ,1.08583 ,10.65416 
256 ,47.3109 ,1.06714 ,1.05503 ,10.35196 
257 ,47.4874 ,1.06903 ,1.04476 ,10.25123 
258 ,47.6634 ,1.07076 ,1.04134 ,10.21765 
259 ,47.8393 ,1.07247 ,1.02765 ,10.08333 
260 ,48.0154 ,1.07425 ,0.99685 ,9.78113 
261 ,48.1916 ,1.07606 ,0.97632 ,9.57966 
262 ,48.3833 ,1.07788 ,0.98659 ,9.68039 
263 ,48.5597 ,1.07970 ,0.98659 ,9.68039 
264 ,48.7679 ,1.08177 ,0.96263 ,9.44535 
265 ,48.9599 ,1.08368 ,0.94552 ,9.27745 
266 ,49.1360 ,1.08549 ,0.92499 ,9.07598 
267 ,49.3119 ,1.08725 ,0.89761 ,8.80736 
268 ,49.5042 ,1.08917 ,0.91130 ,8.94167 
269 ,49.6961 ,1.09107 ,0.87366 ,8.57231 
270 ,49.8723 ,1.09285 ,0.85997 ,8.43800 
271 ,50.0483 ,1.09461 ,0.84628 ,8.30368 
272 ,50.2403 ,1.09642 ,0.84970 ,8.33726 
273 ,50.4163 ,1.09830 ,0.82575 ,8.10221 
274 ,50.6085 ,1.10015 ,0.81206 ,7.96790 
275 ,50.8005 ,1.10204 ,0.80521 ,7.90074 
276 ,50.9767 ,1.10384 ,0.77441 ,7.59854 
277 ,51.1848 ,1.10595 ,0.78126 ,7.66570 
278 ,51.3769 ,1.10779 ,0.75046 ,7.36349 
279 ,51.5689 ,1.10970 ,0.74704 ,7.32991 
280 ,51.7451 ,1.11156 ,0.74019 ,7.26276 
281 ,51.9530 ,1.11357 ,0.71624 ,7.02771 
282 ,52.1291 ,1.11542 ,0.69913 ,6.85982 
283 ,52.3052 ,1.11714 ,0.69913 ,6.85982 
284 ,52.4813 ,1.11891 ,0.67859 ,6.65835 
285 ,52.6571 ,1.12066 ,0.66833 ,6.55761 
286 ,52.8331 ,1.12245 ,0.64437 ,6.32256 
287 ,53.0255 ,1.12430 ,0.64437 ,6.32256 
288 ,53.2015 ,1.12608 ,0.61357 ,6.02036 
289 ,53.3776 ,1.12786 ,0.61015 ,5.98678 
290 ,53.5537 ,1.12958 ,0.58277 ,5.71815 
291 ,53.7134 ,1.13134 ,0.59304 ,5.81889 
292 ,53.8897 ,1.13299 ,0.58277 ,5.71815 
293 ,54.0819 ,1.13479 ,0.56908 ,5.58384 
294 ,54.2740 ,1.13672 ,0.53828 ,5.28164 
295 ,54.4660 ,1.13879 ,0.54513 ,5.34879 
296 ,54.6420 ,1.14051 ,0.53486 ,5.24806 
297 ,54.8022 ,1.14220 ,0.50064 ,4.91228 
298 ,54.9783 ,1.14385 ,0.49380 ,4.84512 
299 ,55.1543 ,1.14564 ,0.47326 ,4.64365 
300 ,55.3303 ,1.14743 ,0.47326 ,4.64365 
301 ,55.5065 ,1.14914 ,0.47326 ,4.64365 
302 ,55.6826 ,1.15094 ,0.44931 ,4.40860 
303 ,55.8585 ,1.15266 ,0.42193 ,4.13997 
304 ,56.0507 ,1.15449 ,0.41509 ,4.07282 
305 ,56.2267 ,1.15638 ,0.41166 ,4.03924 
306 ,56.4187 ,1.15828 ,0.39113 ,3.83777 
307 ,56.5948 ,1.16005 ,0.36375 ,3.56914 
308 ,56.7711 ,1.16182 ,0.37060 ,3.63630 
309 ,56.9470 ,1.16357 ,0.35349 ,3.46841 
310 ,57.1232 ,1.16527 ,0.34664 ,3.40125 
311 ,57.2989 ,1.16704 ,0.32269 ,3.16620 
312 ,57.4753 ,1.16883 ,0.32269 ,3.16620 
313 ,57.6673 ,1.17072 ,0.33295 ,3.26694 
314 ,57.8435 ,1.17252 ,0.30215 ,2.96473 
315 ,58.0351 ,1.17450 ,0.29873 ,2.93116 
316 ,58.2277 ,1.17628 ,0.28504 ,2.79684 
317 ,58.4196 ,1.17823 ,0.25424 ,2.49464 
318 ,58.6117 ,1.18015 ,0.24740 ,2.42748 
319 ,58.8039 ,1.18199 ,0.24055 ,2.36032 
320 ,58.9958 ,1.18393 ,0.23029 ,2.25959 
321 ,59.1880 ,1.18595 ,0.21660 ,2.12528 
322 ,59.3802 ,1.18781 ,0.20291 ,1.99096 
323 ,59.5558 ,1.18966 ,0.19264 ,1.89023 
324 ,59.7161 ,1.19130 ,0.18580 ,1.82307 
325 ,59.8924 ,1.19302 ,0.18238 ,1.78949 
326 ,60.0840 ,1.19493 ,0.17211 ,1.68876 
327 ,60.2925 ,1.19692 ,0.15500 ,1.52087 
328 ,60.4844 ,1.19890 ,0.13105 ,1.28582 
329 ,60.6605 ,1.20063 ,0.11736 ,1.15151 
330 ,60.8365 ,1.20245 ,0.10025 ,0.98361 
331 ,61.0128 ,1.20419 ,0.10367 ,1.01719 
332 ,61.2047 ,1.20601 ,0.08656 ,0.84930 
333 ,61.4127 ,1.20812 ,0.07629 ,0.74857 
334 ,61.6048 ,1.21009 ,0.06260 ,0.61425 
335 ,61.7970 ,1.21203 ,0.04207 ,0.41278 
336 ,61.9728 ,1.21378 ,0.03522 ,0.34563 
337 ,62.1488 ,1.21550 ,0.04207 ,0.41278 
338 ,62.3253 ,1.21732 ,0.01811 ,0.17773 
339 ,62.5174 ,1.21919 ,0.00443 ,0.04342 
340 ,62.6935 ,1.22102 ,-0.00242 ,-0.02373 
341 ,62.8853 ,1.22293 ,-0.01611 ,-0.15805 
342 ,63.0612 ,1.22464 ,-0.01953 ,-0.19163 
343 ,63.2376 ,1.22640 ,-0.05033 ,-0.49383 
344 ,63.4137 ,1.22817 ,-0.04006 ,-0.39310 
345 ,63.6058 ,1.23003 ,-0.05717 ,-0.56099 
346 ,63.7978 ,1.23203 ,-0.07428 ,-0.72888 
347 ,63.9739 ,1.23373 ,-0.08113 ,-0.79604 
348 ,64.1499 ,1.23551 ,-0.08113 ,-0.79604 
349 ,64.3257 ,1.23728 ,-0.10508 ,-1.03108 
350 ,64.5181 ,1.23918 ,-0.11535 ,-1.13182 
351 ,64.7099 ,1.24112 ,-0.12904 ,-1.26613 
352 ,64.8863 ,1.24290 ,-0.13931 ,-1.36687 
353 ,65.0623 ,1.24469 ,-0.15984 ,-1.56834 
354 ,65.2703 ,1.24672 ,-0.15984 ,-1.56834 
355 ,65.4465 ,1.24851 ,-0.16668 ,-1.63549 
356 ,65.6385 ,1.25042 ,-0.18722 ,-1.83696 
357 ,65.8146 ,1.25214 ,-0.18722 ,-1.83696 
358 ,65.9902 ,1.25398 ,-0.18722 ,-1.83696 
359 ,66.1667 ,1.25567 ,-0.20775 ,-2.03843 
360 ,66.3585 ,1.25768 ,-0.21802 ,-2.13917 
361 ,66.5350 ,1.25940 ,-0.23170 ,-2.27348 
362 ,66.7110 ,1.26118 ,-0.23170 ,-2.27348 
363 ,66.8868 ,1.26287 ,-0.26250 ,-2.57569 
364 ,67.0791 ,1.26478 ,-0.26250 ,-2.57569 
365 ,67.2710 ,1.26667 ,-0.27619 ,-2.71000 
366 ,67.4634 ,1.26869 ,-0.28988 ,-2.84431 
367 ,67.6554 ,1.27058 ,-0.29330 ,-2.87789 
368 ,67.8474 ,1.27259 ,-0.31726 ,-3.11294 
369 ,68.0075 ,1.27418 ,-0.33779 ,-3.31441 
370 ,68.1835 ,1.27587 ,-0.34806 ,-3.41514 
371 ,68.3757 ,1.27778 ,-0.33095 ,-3.24725 
372 ,68.5357 ,1.27949 ,-0.34806 ,-3.41514 
373 ,68.7118 ,1.28113 ,-0.36175 ,-3.54946 
374 ,68.8880 ,1.28290 ,-0.37886 ,-3.71735 
375 ,69.0649 ,1.28470 ,-0.39255 ,-3.85166 
376 ,69.2399 ,1.28650 ,-0.37886 ,-3.71735 
377 ,69.4161 ,1.28820 ,-0.38570 ,-3.78450 
378 ,69.5761 ,1.28992 ,-0.39255 ,-3.85166 
379 ,69.7524 ,1.29150 ,-0.41308 ,-4.05313 
380 ,69.9444 ,1.29339 ,-0.44388 ,-4.35534 
381 ,70.1365 ,1.29534 ,-0.43361 ,-4.25460 
382 ,70.3444 ,1.29743 ,-0.45414 ,-4.45607 
383 ,70.5206 ,1.29922 ,-0.46099 ,-4.52323 
384 ,70.6968 ,1.30099 ,-0.46441 ,-4.55681 
385 ,70.9207 ,1.30308 ,-0.47126 ,-4.62396 
386 ,71.1128 ,1.30518 ,-0.48837 ,-4.79185 
387 ,71.3051 ,1.30698 ,-0.51574 ,-5.06048 
388 ,71.4808 ,1.30884 ,-0.51917 ,-5.09406 
389 ,71.6566 ,1.31059 ,-0.51574 ,-5.06048 
390 ,71.8331 ,1.31237 ,-0.52259 ,-5.12764 
391 ,72.0250 ,1.31431 ,-0.53628 ,-5.26195 
392 ,72.2013 ,1.31601 ,-0.55681 ,-5.46342 
393 ,72.3772 ,1.31781 ,-0.56023 ,-5.49700 
394 ,72.5690 ,1.31969 ,-0.58419 ,-5.73205 
395 ,72.7450 ,1.32146 ,-0.59788 ,-5.86636 
396 ,72.9215 ,1.32321 ,-0.59445 ,-5.83278 
397 ,73.0976 ,1.32499 ,-0.59788 ,-5.86636 
398 ,73.2736 ,1.32677 ,-0.60472 ,-5.93352 
399 ,73.4496 ,1.32847 ,-0.62868 ,-6.16856 
400 ,73.6418 ,1.33041 ,-0.62525 ,-6.13499 
401 ,73.8338 ,1.33234 ,-0.62525 ,-6.13499 
402 ,74.0098 ,1.33409 ,-0.65947 ,-6.47077 
403 ,74.2020 ,1.33591 ,-0.66974 ,-6.57150 
404 ,74.3782 ,1.33776 ,-0.65947 ,-6.47077 
405 ,74.5542 ,1.33957 ,-0.68343 ,-6.70582 
406 ,74.7301 ,1.34135 ,-0.68685 ,-6.73940 
407 ,74.9062 ,1.34305 ,-0.70396 ,-6.90729 
408 ,75.0823 ,1.34481 ,-0.69712 ,-6.84013 
409 ,75.2584 ,1.34659 ,-0.70396 ,-6.90729 
410 ,75.4345 ,1.34839 ,-0.70739 ,-6.94086 
411 ,75.6265 ,1.35027 ,-0.74503 ,-7.31023 
412 ,75.8028 ,1.35201 ,-0.73818 ,-7.24307 
413 ,75.9944 ,1.35389 ,-0.74161 ,-7.27665 
414 ,76.1868 ,1.35583 ,-0.75530 ,-7.41096 
415 ,76.3790 ,1.35774 ,-0.74845 ,-7.34380 
416 ,76.5710 ,1.35962 ,-0.77583 ,-7.61243 
417 ,76.7789 ,1.36165 ,-0.77241 ,-7.57885 
418 ,76.9706 ,1.36372 ,-0.79294 ,-7.78032 
419 ,77.1472 ,1.36547 ,-0.81347 ,-7.98179 
420 ,77.3390 ,1.36735 ,-0.79978 ,-7.84748 
421 ,77.5314 ,1.36924 ,-0.82032 ,-8.04895 
422 ,77.7075 ,1.37111 ,-0.83401 ,-8.18326 
423 ,77.8996 ,1.37303 ,-0.82032 ,-8.04895 
424 ,78.0755 ,1.37472 ,-0.84085 ,-8.25042 
425 ,78.2515 ,1.37646 ,-0.85796 ,-8.41831 
426 ,78.4277 ,1.37825 ,-0.87507 ,-8.58620 
427 ,78.6200 ,1.38019 ,-0.86138 ,-8.45189 
428 ,78.7960 ,1.38197 ,-0.87507 ,-8.58620 
429 ,78.9719 ,1.38373 ,-0.89903 ,-8.82125 
430 ,79.1476 ,1.38551 ,-0.88876 ,-8.72051 
431 ,79.3241 ,1.38723 ,-0.92640 ,-9.08988 
432 ,79.5163 ,1.38912 ,-0.90587 ,-8.88841 
433 ,79.6924 ,1.39097 ,-0.93325 ,-9.15703 
434 ,79.8682 ,1.39268 ,-0.94351 ,-9.25777 
435 ,80.0603 ,1.39453 ,-0.93667 ,-9.19061 
436 ,80.2525 ,1.39653 ,-0.96747 ,-9.49282 
437 ,80.4287 ,1.39826 ,-0.97089 ,-9.52639 
438 ,80.6206 ,1.40017 ,-0.96747 ,-9.49282 
439 ,80.8127 ,1.40207 ,-0.98458 ,-9.66071 
440 ,81.0046 ,1.40395 ,-1.00854 ,-9.89576 
441 ,81.1805 ,1.40574 ,-1.00511 ,-9.86218 
442 ,81.3569 ,1.40755 ,-1.00511 ,-9.86218 
443 ,81.5330 ,1.40930 ,-1.01196 ,-9.92933 
444 ,81.7411 ,1.41129 ,-1.03591 ,-10.16438 
445 ,81.9491 ,1.41344 ,-1.04618 ,-10.26512 
446 ,82.1253 ,1.41523 ,-1.05302 ,-10.33227 
447 ,82.2852 ,1.41695 ,-1.05302 ,-10.33227 
448 ,82.4612 ,1.41862 ,-1.05645 ,-10.36585 
449 ,82.6531 ,1.42050 ,-1.07014 ,-10.50016 
450 ,82.8290 ,1.42222 ,-1.09751 ,-10.76879 
451 ,83.0053 ,1.42403 ,-1.08725 ,-10.66806 
452 ,83.2135 ,1.42607 ,-1.08725 ,-10.66806 
453 ,83.4057 ,1.42801 ,-1.10778 ,-10.86953 
454 ,83.5817 ,1.42979 ,-1.11462 ,-10.93668 
455 ,83.7739 ,1.43161 ,-1.11120 ,-10.90310 
456 ,83.9660 ,1.43365 ,-1.13516 ,-11.13815 
457 ,84.1581 ,1.43556 ,-1.13516 ,-11.13815 
458 ,84.3340 ,1.43733 ,-1.13516 ,-11.13815 
459 ,84.5263 ,1.43918 ,-1.16596 ,-11.44036 
460 ,84.7183 ,1.44114 ,-1.15569 ,-11.33962 
461 ,84.9105 ,1.44292 ,-1.18307 ,-11.60825 
462 ,85.1027 ,1.44489 ,-1.18307 ,-11.60825 
