Data stamp = , 04-04-2022 17:35:00 809

Calibration Values: 
Slope = , 26.54 , g/V 
Offset Voltage at no contact = , -0.501760 , V 

No , Time , Stage Position ,   Mass , Force 
   ,  (s) ,      (mm)      ,   (g)  , (mN)  

1 ,0.0000 ,0.59946 ,5.11372 ,50.17583 
2 ,0.2385 ,0.59958 ,5.11714 ,50.20940 
3 ,0.4785 ,0.60027 ,5.11714 ,50.20940 
4 ,0.6546 ,0.60134 ,5.11030 ,50.14225 
5 ,0.8469 ,0.60279 ,5.10688 ,50.10867 
6 ,1.0391 ,0.60462 ,5.10003 ,50.04151 
7 ,1.2151 ,0.60631 ,5.12741 ,50.31014 
8 ,1.3914 ,0.60808 ,5.10688 ,50.10867 
9 ,1.5834 ,0.61002 ,5.09661 ,50.00793 
10 ,1.7595 ,0.61179 ,5.09661 ,50.00793 
11 ,1.9513 ,0.61367 ,5.07950 ,49.84004 
12 ,2.1277 ,0.61551 ,5.06923 ,49.73931 
13 ,2.3196 ,0.61736 ,5.06581 ,49.70573 
14 ,2.4958 ,0.61917 ,5.06581 ,49.70573 
15 ,2.6718 ,0.62095 ,5.04185 ,49.47068 
16 ,2.8639 ,0.62280 ,5.02474 ,49.30279 
17 ,3.0401 ,0.62462 ,5.02474 ,49.30279 
18 ,3.2322 ,0.62655 ,5.00421 ,49.10132 
19 ,3.4241 ,0.62847 ,4.98710 ,48.93343 
20 ,3.6002 ,0.63025 ,4.99394 ,49.00058 
21 ,3.7763 ,0.63201 ,4.96999 ,48.76554 
22 ,3.9684 ,0.63392 ,4.93919 ,48.46333 
23 ,4.1444 ,0.63570 ,4.92892 ,48.36260 
24 ,4.3204 ,0.63743 ,4.92892 ,48.36260 
25 ,4.5123 ,0.63928 ,4.90155 ,48.09397 
26 ,4.6884 ,0.64105 ,4.89128 ,47.99324 
27 ,4.8645 ,0.64287 ,4.87075 ,47.79177 
28 ,5.0569 ,0.64476 ,4.86048 ,47.69103 
29 ,5.2489 ,0.64675 ,4.83995 ,47.48956 
30 ,5.4249 ,0.64848 ,4.81257 ,47.22093 
31 ,5.6330 ,0.65049 ,4.79888 ,47.08662 
32 ,5.8090 ,0.65229 ,4.78177 ,46.91873 
33 ,5.9851 ,0.65403 ,4.76124 ,46.71726 
34 ,6.1613 ,0.65580 ,4.74755 ,46.58295 
35 ,6.3373 ,0.65762 ,4.73728 ,46.48221 
36 ,6.5134 ,0.65935 ,4.72359 ,46.34790 
37 ,6.7053 ,0.66118 ,4.69964 ,46.11285 
38 ,6.8815 ,0.66303 ,4.67568 ,45.87780 
39 ,7.0738 ,0.66489 ,4.65515 ,45.67633 
40 ,7.2657 ,0.66686 ,4.62777 ,45.40771 
41 ,7.4417 ,0.66860 ,4.63119 ,45.44128 
42 ,7.6178 ,0.67034 ,4.61408 ,45.27339 
43 ,7.7940 ,0.67212 ,4.59013 ,45.03835 
44 ,7.9859 ,0.67405 ,4.55933 ,44.73614 
45 ,8.1782 ,0.67590 ,4.55933 ,44.73614 
46 ,8.3380 ,0.67772 ,4.54906 ,44.63541 
47 ,8.5139 ,0.67932 ,4.53537 ,44.50109 
48 ,8.6903 ,0.68110 ,4.49773 ,44.13173 
49 ,8.8663 ,0.68281 ,4.48746 ,44.03100 
50 ,9.0425 ,0.68460 ,4.48062 ,43.96384 
51 ,9.2342 ,0.68655 ,4.46009 ,43.76237 
52 ,9.4107 ,0.68829 ,4.42244 ,43.39301 
53 ,9.5867 ,0.69008 ,4.41902 ,43.35943 
54 ,9.7627 ,0.69179 ,4.41218 ,43.29227 
55 ,9.9389 ,0.69356 ,4.40875 ,43.25870 
56 ,10.1308 ,0.69553 ,4.37453 ,42.92291 
57 ,10.3229 ,0.69741 ,4.37111 ,42.88933 
58 ,10.4992 ,0.69920 ,4.35742 ,42.75502 
59 ,10.6751 ,0.70095 ,4.33004 ,42.48639 
60 ,10.8672 ,0.70282 ,4.31978 ,42.38566 
61 ,11.0430 ,0.70463 ,4.28556 ,42.04988 
62 ,11.2353 ,0.70648 ,4.28556 ,42.04988 
63 ,11.4275 ,0.70850 ,4.25818 ,41.78125 
64 ,11.6194 ,0.71035 ,4.25133 ,41.71409 
65 ,11.7956 ,0.71213 ,4.23080 ,41.51262 
66 ,11.9716 ,0.71397 ,4.21369 ,41.34473 
67 ,12.1473 ,0.71565 ,4.18631 ,41.07611 
68 ,12.3238 ,0.71741 ,4.18631 ,41.07611 
69 ,12.5158 ,0.71926 ,4.14867 ,40.70674 
70 ,12.6919 ,0.72111 ,4.12814 ,40.50527 
71 ,12.8840 ,0.72299 ,4.14183 ,40.63959 
72 ,13.0601 ,0.72481 ,4.13498 ,40.57243 
73 ,13.2522 ,0.72672 ,4.09049 ,40.13591 
74 ,13.4443 ,0.72868 ,4.08365 ,40.06876 
75 ,13.6203 ,0.73043 ,4.08365 ,40.06876 
76 ,13.8284 ,0.73245 ,4.03574 ,39.59866 
77 ,14.0045 ,0.73423 ,4.04943 ,39.73297 
78 ,14.1962 ,0.73614 ,4.01863 ,39.43077 
79 ,14.3726 ,0.73790 ,3.99125 ,39.16214 
80 ,14.5486 ,0.73967 ,3.96387 ,38.89352 
81 ,14.7246 ,0.74143 ,3.97414 ,38.99425 
82 ,14.9010 ,0.74319 ,3.95018 ,38.75920 
83 ,15.0928 ,0.74510 ,3.91254 ,38.38984 
84 ,15.2689 ,0.74685 ,3.91254 ,38.38984 
85 ,15.4607 ,0.74879 ,3.91254 ,38.38984 
86 ,15.6372 ,0.75054 ,3.88174 ,38.08764 
87 ,15.8132 ,0.75235 ,3.85436 ,37.81901 
88 ,16.0213 ,0.75439 ,3.84410 ,37.71828 
89 ,16.1973 ,0.75617 ,3.83383 ,37.61754 
90 ,16.3731 ,0.75793 ,3.80645 ,37.34891 
91 ,16.5496 ,0.75965 ,3.79619 ,37.24818 
92 ,16.7573 ,0.76172 ,3.77223 ,37.01313 
93 ,16.9335 ,0.76350 ,3.75512 ,36.84524 
94 ,17.1097 ,0.76525 ,3.74143 ,36.71093 
95 ,17.2857 ,0.76701 ,3.74143 ,36.71093 
96 ,17.4614 ,0.76882 ,3.72774 ,36.57661 
97 ,17.6377 ,0.77049 ,3.69352 ,36.24083 
98 ,17.8141 ,0.77229 ,3.67299 ,36.03936 
99 ,18.0060 ,0.77420 ,3.67983 ,36.10652 
100 ,18.1822 ,0.77602 ,3.65246 ,35.83789 
101 ,18.3743 ,0.77794 ,3.62166 ,35.53569 
102 ,18.5500 ,0.77968 ,3.61481 ,35.46853 
103 ,18.7264 ,0.78141 ,3.61139 ,35.43495 
104 ,18.9182 ,0.78335 ,3.58059 ,35.13275 
105 ,19.0945 ,0.78508 ,3.56006 ,34.93128 
106 ,19.2867 ,0.78692 ,3.55321 ,34.86412 
107 ,19.4626 ,0.78883 ,3.53268 ,34.66265 
108 ,19.6388 ,0.79052 ,3.49846 ,34.32687 
109 ,19.8147 ,0.79236 ,3.51215 ,34.46118 
110 ,19.9909 ,0.79406 ,3.48819 ,34.22613 
111 ,20.1670 ,0.79584 ,3.47792 ,34.12540 
112 ,20.3430 ,0.79768 ,3.44370 ,33.78961 
113 ,20.5191 ,0.79932 ,3.43001 ,33.65530 
114 ,20.6951 ,0.80110 ,3.42317 ,33.58814 
115 ,20.8710 ,0.80287 ,3.40948 ,33.45383 
116 ,21.0313 ,0.80459 ,3.39921 ,33.35310 
117 ,21.2233 ,0.80629 ,3.37184 ,33.08447 
118 ,21.3996 ,0.80814 ,3.35130 ,32.88300 
119 ,21.6076 ,0.81014 ,3.34788 ,32.84942 
120 ,21.7997 ,0.81216 ,3.30339 ,32.41290 
121 ,21.9917 ,0.81412 ,3.29313 ,32.31217 
122 ,22.1679 ,0.81579 ,3.28628 ,32.24501 
123 ,22.3436 ,0.81759 ,3.25891 ,31.97639 
124 ,22.5200 ,0.81935 ,3.22811 ,31.67418 
125 ,22.6956 ,0.82110 ,3.22468 ,31.64060 
126 ,22.8721 ,0.82288 ,3.21100 ,31.50629 
127 ,23.0642 ,0.82479 ,3.18020 ,31.20409 
128 ,23.2561 ,0.82670 ,3.15966 ,31.00262 
129 ,23.4324 ,0.82847 ,3.14597 ,30.86830 
130 ,23.6082 ,0.83034 ,3.11518 ,30.56610 
131 ,23.7842 ,0.83199 ,3.09464 ,30.36463 
132 ,23.9604 ,0.83375 ,3.08095 ,30.23031 
133 ,24.1527 ,0.83565 ,3.08095 ,30.23031 
134 ,24.3284 ,0.83745 ,3.06042 ,30.02884 
135 ,24.5050 ,0.83917 ,3.02620 ,29.69306 
136 ,24.6968 ,0.84104 ,2.99882 ,29.42444 
137 ,24.8725 ,0.84290 ,2.99882 ,29.42444 
138 ,25.0490 ,0.84464 ,2.98513 ,29.29012 
139 ,25.2412 ,0.84658 ,2.94749 ,28.92076 
140 ,25.4172 ,0.84833 ,2.94064 ,28.85360 
141 ,25.5933 ,0.85009 ,2.93722 ,28.82003 
142 ,25.7852 ,0.85191 ,2.91669 ,28.61856 
143 ,25.9610 ,0.85381 ,2.89958 ,28.45066 
144 ,26.1374 ,0.85550 ,2.88589 ,28.31635 
145 ,26.3295 ,0.85732 ,2.85851 ,28.04772 
146 ,26.5057 ,0.85917 ,2.84140 ,27.87983 
147 ,26.6976 ,0.86108 ,2.83114 ,27.77910 
148 ,26.8898 ,0.86305 ,2.81060 ,27.57763 
149 ,27.0495 ,0.86474 ,2.79691 ,27.44332 
150 ,27.2260 ,0.86637 ,2.78322 ,27.30900 
151 ,27.4017 ,0.86818 ,2.75243 ,27.00680 
152 ,27.5777 ,0.86994 ,2.74216 ,26.90606 
153 ,27.7539 ,0.87166 ,2.72505 ,26.73817 
154 ,27.9137 ,0.87341 ,2.72505 ,26.73817 
155 ,28.0898 ,0.87501 ,2.69767 ,26.46954 
156 ,28.2500 ,0.87675 ,2.68056 ,26.30165 
157 ,28.4263 ,0.87840 ,2.66345 ,26.13376 
158 ,28.6185 ,0.88035 ,2.64634 ,25.96587 
159 ,28.8264 ,0.88233 ,2.63265 ,25.83156 
160 ,29.0026 ,0.88415 ,2.59843 ,25.49577 
161 ,29.1786 ,0.88590 ,2.58816 ,25.39504 
162 ,29.3544 ,0.88765 ,2.58474 ,25.36146 
163 ,29.5308 ,0.88944 ,2.55394 ,25.05926 
164 ,29.7071 ,0.89122 ,2.53683 ,24.89136 
165 ,29.8831 ,0.89297 ,2.51972 ,24.72347 
166 ,30.0750 ,0.89487 ,2.51630 ,24.68989 
167 ,30.2828 ,0.89689 ,2.48550 ,24.38769 
168 ,30.4751 ,0.89880 ,2.47523 ,24.28696 
169 ,30.6514 ,0.90064 ,2.46496 ,24.18622 
170 ,30.8433 ,0.90256 ,2.44443 ,23.98475 
171 ,31.0191 ,0.90433 ,2.43759 ,23.91759 
172 ,31.1953 ,0.90606 ,2.41021 ,23.64897 
173 ,31.3557 ,0.90775 ,2.37599 ,23.31318 
174 ,31.5316 ,0.90954 ,2.36914 ,23.24603 
175 ,31.7078 ,0.91118 ,2.35545 ,23.11171 
176 ,31.8999 ,0.91313 ,2.34519 ,23.01098 
177 ,32.0757 ,0.91484 ,2.33150 ,22.87667 
178 ,32.2519 ,0.91664 ,2.31439 ,22.70877 
179 ,32.4120 ,0.91832 ,2.28017 ,22.37299 
180 ,32.5880 ,0.91997 ,2.26990 ,22.27226 
181 ,32.7642 ,0.92171 ,2.26306 ,22.20510 
182 ,32.9399 ,0.92352 ,2.25963 ,22.17152 
183 ,33.1158 ,0.92526 ,2.24937 ,22.07079 
184 ,33.2920 ,0.92703 ,2.20488 ,21.63427 
185 ,33.4685 ,0.92881 ,2.18777 ,21.46638 
186 ,33.6606 ,0.93075 ,2.19461 ,21.53353 
187 ,33.8365 ,0.93252 ,2.17066 ,21.29849 
188 ,34.0284 ,0.93431 ,2.15012 ,21.09702 
189 ,34.2046 ,0.93613 ,2.14328 ,21.02986 
190 ,34.3969 ,0.93800 ,2.13301 ,20.92912 
191 ,34.5729 ,0.93983 ,2.10221 ,20.62692 
192 ,34.7648 ,0.94173 ,2.09537 ,20.55976 
193 ,34.9408 ,0.94351 ,2.08852 ,20.49261 
194 ,35.1170 ,0.94527 ,2.07484 ,20.35829 
195 ,35.2932 ,0.94706 ,2.05088 ,20.12325 
196 ,35.4693 ,0.94883 ,2.02350 ,19.85462 
197 ,35.6614 ,0.95069 ,2.02008 ,19.82104 
198 ,35.8533 ,0.95267 ,1.99270 ,19.55241 
199 ,36.0295 ,0.95441 ,1.98928 ,19.51884 
200 ,36.2055 ,0.95620 ,1.96190 ,19.25021 
201 ,36.3817 ,0.95791 ,1.97217 ,19.35094 
202 ,36.5574 ,0.95965 ,1.94822 ,19.11590 
203 ,36.7338 ,0.96140 ,1.92084 ,18.84727 
204 ,36.9417 ,0.96350 ,1.93111 ,18.94801 
205 ,37.1338 ,0.96541 ,1.89346 ,18.57864 
206 ,37.3102 ,0.96720 ,1.86608 ,18.31002 
207 ,37.4862 ,0.96898 ,1.87293 ,18.37717 
208 ,37.6618 ,0.97069 ,1.86266 ,18.27644 
209 ,37.8381 ,0.97248 ,1.83186 ,17.97423 
210 ,38.0143 ,0.97422 ,1.81133 ,17.77276 
211 ,38.1903 ,0.97598 ,1.81133 ,17.77276 
212 ,38.3663 ,0.97776 ,1.78395 ,17.50414 
213 ,38.5424 ,0.97954 ,1.78395 ,17.50414 
214 ,38.7343 ,0.98139 ,1.74631 ,17.13478 
215 ,38.9265 ,0.98330 ,1.75657 ,17.23551 
216 ,39.1027 ,0.98512 ,1.74631 ,17.13478 
217 ,39.2789 ,0.98690 ,1.71551 ,16.83257 
218 ,39.4870 ,0.98889 ,1.70524 ,16.73184 
219 ,39.6788 ,0.99079 ,1.67102 ,16.39605 
220 ,39.8550 ,0.99260 ,1.66760 ,16.36248 
221 ,40.0471 ,0.99452 ,1.65391 ,16.22816 
222 ,40.2231 ,0.99630 ,1.63680 ,16.06027 
223 ,40.3992 ,0.99806 ,1.62311 ,15.92596 
224 ,40.6074 ,1.00000 ,1.60942 ,15.79164 
225 ,40.7992 ,1.00207 ,1.58547 ,15.55660 
226 ,40.9754 ,1.00383 ,1.57178 ,15.42228 
227 ,41.1997 ,1.00593 ,1.55124 ,15.22081 
228 ,41.3756 ,1.00781 ,1.53413 ,15.05292 
229 ,41.5517 ,1.00956 ,1.52045 ,14.91861 
230 ,41.7435 ,1.01151 ,1.51360 ,14.85145 
231 ,41.9199 ,1.01329 ,1.48965 ,14.61640 
232 ,42.1119 ,1.01514 ,1.48965 ,14.61640 
233 ,42.2880 ,1.01698 ,1.47938 ,14.51567 
234 ,42.4799 ,1.01877 ,1.42805 ,14.01199 
235 ,42.6562 ,1.02064 ,1.43147 ,14.04557 
236 ,42.8482 ,1.02246 ,1.42462 ,13.97842 
237 ,43.0400 ,1.02447 ,1.40409 ,13.77695 
238 ,43.2163 ,1.02622 ,1.37671 ,13.50832 
239 ,43.3925 ,1.02799 ,1.37671 ,13.50832 
240 ,43.5686 ,1.02978 ,1.37329 ,13.47474 
241 ,43.7607 ,1.03163 ,1.35618 ,13.30685 
242 ,43.9365 ,1.03344 ,1.32538 ,13.00465 
243 ,44.1128 ,1.03527 ,1.32880 ,13.03822 
244 ,44.3047 ,1.03707 ,1.30827 ,12.83675 
245 ,44.6731 ,1.03988 ,1.27747 ,12.53455 
246 ,44.8492 ,1.04259 ,1.26378 ,12.40024 
247 ,45.0568 ,1.04453 ,1.25009 ,12.26592 
248 ,45.2333 ,1.04642 ,1.22272 ,11.99730 
249 ,45.4250 ,1.04827 ,1.21245 ,11.89656 
250 ,45.6010 ,1.05004 ,1.19534 ,11.72867 
251 ,45.7611 ,1.05177 ,1.16112 ,11.39289 
252 ,45.9371 ,1.05338 ,1.15427 ,11.32573 
253 ,46.1131 ,1.05517 ,1.15427 ,11.32573 
254 ,46.2891 ,1.05699 ,1.13032 ,11.09068 
255 ,46.4652 ,1.05870 ,1.12005 ,10.98995 
256 ,46.6413 ,1.06050 ,1.10636 ,10.85563 
257 ,46.8014 ,1.06218 ,1.08925 ,10.68774 
258 ,46.9614 ,1.06378 ,1.07214 ,10.51985 
259 ,47.1376 ,1.06540 ,1.06187 ,10.41912 
260 ,47.3136 ,1.06719 ,1.06530 ,10.45270 
261 ,47.4737 ,1.06891 ,1.04476 ,10.25123 
262 ,47.6498 ,1.07055 ,1.04476 ,10.25123 
263 ,47.8258 ,1.07231 ,1.02423 ,10.04976 
264 ,48.0019 ,1.07409 ,1.01396 ,9.94902 
265 ,48.1780 ,1.07584 ,0.97974 ,9.61324 
266 ,48.3380 ,1.07756 ,0.96948 ,9.51250 
267 ,48.5143 ,1.07915 ,0.96948 ,9.51250 
268 ,48.6902 ,1.08095 ,0.96605 ,9.47892 
269 ,48.8503 ,1.08266 ,0.94552 ,9.27745 
270 ,49.0104 ,1.08428 ,0.93183 ,9.14314 
271 ,49.1704 ,1.08585 ,0.90788 ,8.90809 
272 ,49.3465 ,1.08748 ,0.91814 ,9.00883 
273 ,49.5067 ,1.08926 ,0.89419 ,8.77378 
274 ,49.6827 ,1.09083 ,0.86681 ,8.50515 
275 ,49.8588 ,1.09263 ,0.85312 ,8.37084 
276 ,50.0352 ,1.09444 ,0.85654 ,8.40442 
277 ,50.2431 ,1.09640 ,0.83259 ,8.16937 
278 ,50.4191 ,1.09821 ,0.81206 ,7.96790 
279 ,50.5954 ,1.09996 ,0.81890 ,8.03506 
280 ,50.7714 ,1.10178 ,0.80179 ,7.86717 
281 ,50.9474 ,1.10354 ,0.78810 ,7.73285 
282 ,51.1397 ,1.10534 ,0.77441 ,7.59854 
283 ,51.3154 ,1.10719 ,0.76415 ,7.49780 
284 ,51.4914 ,1.10894 ,0.74019 ,7.26276 
285 ,51.6679 ,1.11070 ,0.72992 ,7.16202 
286 ,51.8438 ,1.11247 ,0.70939 ,6.96055 
287 ,52.0199 ,1.11420 ,0.69228 ,6.79266 
288 ,52.1958 ,1.11598 ,0.69570 ,6.82624 
289 ,52.3881 ,1.11792 ,0.67859 ,6.65835 
290 ,52.5802 ,1.11975 ,0.66148 ,6.49046 
291 ,52.7723 ,1.12176 ,0.65806 ,6.45688 
292 ,52.9483 ,1.12354 ,0.64095 ,6.28899 
293 ,53.1243 ,1.12523 ,0.61015 ,5.98678 
294 ,53.3006 ,1.12708 ,0.60673 ,5.95320 
295 ,53.5086 ,1.12904 ,0.59646 ,5.85247 
296 ,53.6847 ,1.13082 ,0.57251 ,5.61742 
297 ,53.8927 ,1.13289 ,0.56566 ,5.55026 
298 ,54.0524 ,1.13466 ,0.55197 ,5.41595 
299 ,54.2286 ,1.13633 ,0.53828 ,5.28164 
300 ,54.4045 ,1.13805 ,0.52117 ,5.11375 
301 ,54.5806 ,1.13984 ,0.50064 ,4.91228 
302 ,54.7567 ,1.14159 ,0.50064 ,4.91228 
303 ,54.9329 ,1.14332 ,0.49722 ,4.87870 
304 ,55.1409 ,1.14532 ,0.48011 ,4.71081 
305 ,55.3173 ,1.14715 ,0.47326 ,4.64365 
306 ,55.4934 ,1.14896 ,0.45957 ,4.50934 
307 ,55.6695 ,1.15071 ,0.43904 ,4.30787 
308 ,55.8615 ,1.15266 ,0.42535 ,4.17355 
309 ,56.0537 ,1.15452 ,0.42193 ,4.13997 
310 ,56.2297 ,1.15634 ,0.40140 ,3.93850 
311 ,56.4056 ,1.15812 ,0.39113 ,3.83777 
312 ,56.5819 ,1.15986 ,0.37744 ,3.70346 
313 ,56.7736 ,1.16176 ,0.37060 ,3.63630 
314 ,56.9501 ,1.16352 ,0.35691 ,3.50199 
315 ,57.1418 ,1.16542 ,0.33295 ,3.26694 
316 ,57.3181 ,1.16718 ,0.33295 ,3.26694 
317 ,57.5102 ,1.16912 ,0.30558 ,2.99831 
318 ,57.6862 ,1.17085 ,0.29873 ,2.93116 
319 ,57.8620 ,1.17262 ,0.29531 ,2.89758 
320 ,58.0382 ,1.17444 ,0.28504 ,2.79684 
321 ,58.2306 ,1.17628 ,0.26451 ,2.59537 
322 ,58.4065 ,1.17804 ,0.25424 ,2.49464 
323 ,58.5828 ,1.17982 ,0.24398 ,2.39390 
324 ,58.7746 ,1.18176 ,0.24398 ,2.39390 
325 ,58.9506 ,1.18349 ,0.23029 ,2.25959 
326 ,59.1585 ,1.18552 ,0.21318 ,2.09170 
327 ,59.3346 ,1.18734 ,0.20633 ,2.02454 
328 ,59.5269 ,1.18923 ,0.16869 ,1.65518 
329 ,59.7030 ,1.19116 ,0.17896 ,1.75592 
330 ,59.8792 ,1.19281 ,0.16869 ,1.65518 
331 ,60.0552 ,1.19453 ,0.15842 ,1.55445 
332 ,60.2311 ,1.19632 ,0.14131 ,1.38655 
333 ,60.4075 ,1.19808 ,0.10709 ,1.05077 
334 ,60.5835 ,1.19986 ,0.11393 ,1.11793 
335 ,60.7596 ,1.20159 ,0.11051 ,1.08435 
336 ,60.9356 ,1.20331 ,0.08998 ,0.88288 
337 ,61.1118 ,1.20511 ,0.07287 ,0.71499 
338 ,61.2878 ,1.20687 ,0.04891 ,0.47994 
339 ,61.4640 ,1.20863 ,0.05576 ,0.54710 
340 ,61.6560 ,1.21056 ,0.05576 ,0.54710 
341 ,61.8321 ,1.21231 ,0.02496 ,0.24489 
342 ,62.0240 ,1.21422 ,0.02496 ,0.24489 
343 ,62.2001 ,1.21600 ,0.01127 ,0.11058 
344 ,62.3919 ,1.21792 ,-0.01269 ,-0.12447 
345 ,62.5684 ,1.21968 ,-0.02980 ,-0.29236 
346 ,62.7443 ,1.22143 ,-0.02295 ,-0.22520 
347 ,62.9203 ,1.22320 ,-0.03322 ,-0.32594 
348 ,63.0966 ,1.22497 ,-0.04006 ,-0.39310 
349 ,63.3045 ,1.22694 ,-0.05717 ,-0.56099 
350 ,63.4967 ,1.22894 ,-0.08455 ,-0.82961 
351 ,63.6727 ,1.23072 ,-0.09824 ,-0.96393 
352 ,63.8645 ,1.23263 ,-0.09140 ,-0.89677 
353 ,64.0408 ,1.23438 ,-0.08797 ,-0.86319 
354 ,64.2327 ,1.23631 ,-0.12562 ,-1.23255 
355 ,64.4094 ,1.23811 ,-0.13931 ,-1.36687 
356 ,64.6012 ,1.24004 ,-0.13588 ,-1.33329 
357 ,64.7772 ,1.24176 ,-0.14957 ,-1.46760 
358 ,64.9694 ,1.24367 ,-0.16326 ,-1.60191 
359 ,65.1615 ,1.24557 ,-0.15984 ,-1.56834 
360 ,65.3369 ,1.24741 ,-0.19064 ,-1.87054 
361 ,65.5137 ,1.24914 ,-0.20775 ,-2.03843 
362 ,65.7056 ,1.25101 ,-0.20090 ,-1.97128 
363 ,65.8817 ,1.25281 ,-0.21117 ,-2.07201 
364 ,66.0898 ,1.25481 ,-0.23170 ,-2.27348 
365 ,66.2658 ,1.25668 ,-0.23855 ,-2.34064 
366 ,66.4420 ,1.25844 ,-0.22828 ,-2.23990 
367 ,66.6341 ,1.26033 ,-0.26935 ,-2.64284 
368 ,66.8260 ,1.26226 ,-0.27277 ,-2.67642 
369 ,67.0021 ,1.26398 ,-0.27619 ,-2.71000 
370 ,67.1779 ,1.26579 ,-0.28646 ,-2.81073 
371 ,67.3542 ,1.26759 ,-0.29673 ,-2.91147 
372 ,67.5303 ,1.26927 ,-0.31726 ,-3.11294 
373 ,67.7224 ,1.27122 ,-0.31041 ,-3.04578 
374 ,67.9304 ,1.27318 ,-0.33437 ,-3.28083 
375 ,68.1066 ,1.27503 ,-0.34464 ,-3.38156 
376 ,68.2825 ,1.27679 ,-0.34121 ,-3.34799 
377 ,68.4585 ,1.27857 ,-0.36175 ,-3.54946 
378 ,68.6509 ,1.28048 ,-0.37886 ,-3.71735 
379 ,68.8590 ,1.28250 ,-0.38912 ,-3.81808 
380 ,69.0509 ,1.28449 ,-0.38912 ,-3.81808 
381 ,69.2270 ,1.28619 ,-0.39255 ,-3.85166 
382 ,69.4191 ,1.28814 ,-0.41992 ,-4.12029 
383 ,69.6113 ,1.29005 ,-0.42335 ,-4.15387 
384 ,69.8033 ,1.29193 ,-0.42335 ,-4.15387 
385 ,69.9793 ,1.29378 ,-0.41650 ,-4.08671 
386 ,70.1554 ,1.29549 ,-0.45072 ,-4.42249 
387 ,70.3315 ,1.29728 ,-0.44388 ,-4.35534 
388 ,70.5076 ,1.29902 ,-0.45072 ,-4.42249 
389 ,70.6836 ,1.30081 ,-0.44730 ,-4.38891 
390 ,70.8756 ,1.30269 ,-0.48152 ,-4.72470 
391 ,71.0678 ,1.30453 ,-0.47810 ,-4.69112 
392 ,71.2599 ,1.30652 ,-0.49521 ,-4.85901 
393 ,71.4196 ,1.30826 ,-0.50548 ,-4.95975 
394 ,71.5959 ,1.30989 ,-0.51232 ,-5.02690 
395 ,71.7721 ,1.31167 ,-0.52259 ,-5.12764 
396 ,71.9798 ,1.31371 ,-0.54654 ,-5.36268 
397 ,72.1398 ,1.31550 ,-0.54997 ,-5.39626 
398 ,72.3160 ,1.31711 ,-0.55339 ,-5.42984 
399 ,72.4921 ,1.31885 ,-0.57392 ,-5.63131 
400 ,72.6842 ,1.32075 ,-0.55681 ,-5.46342 
401 ,72.8607 ,1.32257 ,-0.57392 ,-5.63131 
402 ,73.0528 ,1.32445 ,-0.58419 ,-5.73205 
403 ,73.2127 ,1.32622 ,-0.59445 ,-5.83278 
404 ,73.3888 ,1.32786 ,-0.59445 ,-5.83278 
405 ,73.5967 ,1.32983 ,-0.60814 ,-5.96709 
406 ,73.7726 ,1.33164 ,-0.63210 ,-6.20214 
407 ,73.9491 ,1.33342 ,-0.61499 ,-6.03425 
408 ,74.1249 ,1.33521 ,-0.62868 ,-6.16856 
409 ,74.3168 ,1.33706 ,-0.64579 ,-6.33646 
410 ,74.4931 ,1.33884 ,-0.65605 ,-6.43719 
411 ,74.6693 ,1.34065 ,-0.65947 ,-6.47077 
412 ,74.8454 ,1.34248 ,-0.68685 ,-6.73940 
413 ,75.0214 ,1.34416 ,-0.68685 ,-6.73940 
414 ,75.1976 ,1.34594 ,-0.70396 ,-6.90729 
415 ,75.3897 ,1.34780 ,-0.70739 ,-6.94086 
416 ,75.5977 ,1.34977 ,-0.71081 ,-6.97444 
417 ,75.7898 ,1.35187 ,-0.72792 ,-7.14233 
418 ,75.9497 ,1.35359 ,-0.73476 ,-7.20949 
419 ,76.1418 ,1.35528 ,-0.76898 ,-7.54527 
420 ,76.3179 ,1.35712 ,-0.75187 ,-7.37738 
421 ,76.5101 ,1.35904 ,-0.76214 ,-7.47812 
422 ,76.6861 ,1.36080 ,-0.76556 ,-7.51170 
423 ,76.8622 ,1.36255 ,-0.77925 ,-7.64601 
424 ,77.0384 ,1.36433 ,-0.78952 ,-7.74674 
425 ,77.2142 ,1.36621 ,-0.79636 ,-7.81390 
426 ,77.4225 ,1.36800 ,-0.82374 ,-8.08253 
427 ,77.5984 ,1.36988 ,-0.84085 ,-8.25042 
428 ,77.8066 ,1.37188 ,-0.83058 ,-8.14968 
429 ,77.9983 ,1.37391 ,-0.85454 ,-8.38473 
430 ,78.1746 ,1.37566 ,-0.85454 ,-8.38473 
431 ,78.3508 ,1.37739 ,-0.86138 ,-8.45189 
432 ,78.5429 ,1.37933 ,-0.87507 ,-8.58620 
433 ,78.7349 ,1.38121 ,-0.87165 ,-8.55262 
434 ,78.9271 ,1.38313 ,-0.88534 ,-8.68694 
435 ,79.1351 ,1.38520 ,-0.89560 ,-8.78767 
436 ,79.3432 ,1.38720 ,-0.92298 ,-9.05630 
437 ,79.5349 ,1.38923 ,-0.91614 ,-8.98914 
438 ,79.7274 ,1.39108 ,-0.91614 ,-8.98914 
439 ,79.9194 ,1.39313 ,-0.95036 ,-9.32492 
440 ,80.1113 ,1.39503 ,-0.93325 ,-9.15703 
441 ,80.2875 ,1.39679 ,-0.95378 ,-9.35850 
442 ,80.4797 ,1.39869 ,-0.98116 ,-9.62713 
443 ,80.6557 ,1.40052 ,-0.99143 ,-9.72786 
444 ,80.8319 ,1.40223 ,-0.98116 ,-9.62713 
445 ,81.0238 ,1.40417 ,-1.00854 ,-9.89576 
446 ,81.2000 ,1.40593 ,-1.00169 ,-9.82860 
447 ,81.3921 ,1.40782 ,-1.00169 ,-9.82860 
448 ,81.5841 ,1.40975 ,-1.02222 ,-10.03007 
449 ,81.7603 ,1.41150 ,-1.03249 ,-10.13080 
450 ,81.9362 ,1.41335 ,-1.04618 ,-10.26512 
451 ,82.1280 ,1.41520 ,-1.03934 ,-10.19796 
452 ,82.3044 ,1.41696 ,-1.04960 ,-10.29869 
453 ,82.4966 ,1.41883 ,-1.05302 ,-10.33227 
454 ,82.6727 ,1.42065 ,-1.05987 ,-10.39943 
455 ,82.8326 ,1.42236 ,-1.07698 ,-10.56732 
456 ,83.0086 ,1.42402 ,-1.06671 ,-10.46659 
457 ,83.1846 ,1.42575 ,-1.10778 ,-10.86953 
458 ,83.3609 ,1.42749 ,-1.11120 ,-10.90310 
459 ,83.5530 ,1.42947 ,-1.11462 ,-10.93668 
460 ,83.7450 ,1.43132 ,-1.12489 ,-11.03742 
461 ,83.9211 ,1.43311 ,-1.14200 ,-11.20531 
462 ,84.1291 ,1.43508 ,-1.12831 ,-11.07100 
