Data stamp = , 05-04-2022 07:26:29 954

Calibration Values: 
Slope = , 26.54 , g/V 
Offset Voltage at no contact = , -0.501760 , V 

No , Time , Stage Position ,   Mass , Force 
   ,  (s) ,      (mm)      ,   (g)  , (mN)  

1 ,0.0000 ,0.59943 ,4.95288 ,48.59764 
2 ,0.2222 ,0.59952 ,4.96999 ,48.76554 
3 ,0.5425 ,0.60038 ,4.95288 ,48.59764 
4 ,0.7505 ,0.60193 ,4.95288 ,48.59764 
5 ,0.9424 ,0.60357 ,4.95630 ,48.63122 
6 ,1.1347 ,0.60554 ,4.95972 ,48.66480 
7 ,1.3427 ,0.60754 ,4.96657 ,48.73196 
8 ,1.5188 ,0.60932 ,4.94946 ,48.56407 
9 ,1.6949 ,0.61115 ,4.92550 ,48.32902 
10 ,1.8711 ,0.61290 ,4.90497 ,48.12755 
11 ,2.0472 ,0.61471 ,4.90839 ,48.16113 
12 ,2.2392 ,0.61660 ,4.88786 ,47.95966 
13 ,2.4312 ,0.61850 ,4.86390 ,47.72461 
14 ,2.6074 ,0.62026 ,4.86390 ,47.72461 
15 ,2.7834 ,0.62207 ,4.86048 ,47.69103 
16 ,2.9755 ,0.62388 ,4.81941 ,47.28809 
17 ,3.1676 ,0.62583 ,4.81941 ,47.28809 
18 ,3.3436 ,0.62764 ,4.81257 ,47.22093 
19 ,3.5197 ,0.62939 ,4.78177 ,46.91873 
20 ,3.6958 ,0.63117 ,4.76124 ,46.71726 
21 ,3.8718 ,0.63290 ,4.73728 ,46.48221 
22 ,4.0479 ,0.63468 ,4.73728 ,46.48221 
23 ,4.2240 ,0.63646 ,4.73044 ,46.41506 
24 ,4.4002 ,0.63816 ,4.71675 ,46.28074 
25 ,4.5761 ,0.64000 ,4.69279 ,46.04569 
26 ,4.7684 ,0.64188 ,4.68595 ,45.97854 
27 ,4.9606 ,0.64373 ,4.65857 ,45.70991 
28 ,5.1366 ,0.64558 ,4.64831 ,45.60918 
29 ,5.3286 ,0.64746 ,4.62777 ,45.40771 
30 ,5.5207 ,0.64933 ,4.60382 ,45.17266 
31 ,5.6967 ,0.65121 ,4.58328 ,44.97119 
32 ,5.8887 ,0.65303 ,4.58671 ,45.00477 
33 ,6.0649 ,0.65484 ,4.57302 ,44.87045 
34 ,6.2409 ,0.65657 ,4.53195 ,44.46751 
35 ,6.4170 ,0.65832 ,4.51484 ,44.29962 
36 ,6.6090 ,0.66023 ,4.49089 ,44.06457 
37 ,6.7853 ,0.66205 ,4.49089 ,44.06457 
38 ,6.9617 ,0.66384 ,4.48062 ,43.96384 
39 ,7.1535 ,0.66577 ,4.44298 ,43.59448 
40 ,7.3452 ,0.66760 ,4.43613 ,43.52732 
41 ,7.5213 ,0.66938 ,4.41902 ,43.35943 
42 ,7.7133 ,0.67131 ,4.38480 ,43.02365 
43 ,7.8894 ,0.67306 ,4.37453 ,42.92291 
44 ,8.0816 ,0.67499 ,4.36427 ,42.82218 
45 ,8.2577 ,0.67676 ,4.33689 ,42.55355 
46 ,8.4336 ,0.67849 ,4.31978 ,42.38566 
47 ,8.6099 ,0.68023 ,4.29924 ,42.18419 
48 ,8.8342 ,0.68238 ,4.28213 ,42.01630 
49 ,9.0101 ,0.68431 ,4.26160 ,41.81483 
50 ,9.2023 ,0.68620 ,4.26160 ,41.81483 
51 ,9.3784 ,0.68800 ,4.23422 ,41.54620 
52 ,9.5543 ,0.68974 ,4.22053 ,41.41189 
53 ,9.7302 ,0.69146 ,4.21027 ,41.31115 
54 ,9.9066 ,0.69321 ,4.20000 ,41.21042 
55 ,10.0985 ,0.69515 ,4.17262 ,40.94179 
56 ,10.2747 ,0.69692 ,4.14867 ,40.70674 
57 ,10.4506 ,0.69864 ,4.14867 ,40.70674 
58 ,10.6267 ,0.70043 ,4.14183 ,40.63959 
59 ,10.8190 ,0.70231 ,4.10076 ,40.23665 
60 ,11.0108 ,0.70419 ,4.10076 ,40.23665 
61 ,11.2031 ,0.70608 ,4.09391 ,40.16949 
62 ,11.3949 ,0.70814 ,4.05285 ,39.76655 
63 ,11.5870 ,0.71002 ,4.05627 ,39.80013 
64 ,11.7791 ,0.71196 ,4.02547 ,39.49793 
65 ,11.9553 ,0.71374 ,4.00494 ,39.29646 
66 ,12.1314 ,0.71550 ,3.99467 ,39.19572 
67 ,12.3075 ,0.71725 ,3.98783 ,39.12856 
68 ,12.4836 ,0.71897 ,3.96729 ,38.92709 
69 ,12.6597 ,0.72075 ,3.94334 ,38.69205 
70 ,12.8678 ,0.72273 ,3.92281 ,38.49058 
71 ,13.0597 ,0.72471 ,3.90570 ,38.32268 
72 ,13.2359 ,0.72650 ,3.88516 ,38.12122 
73 ,13.4441 ,0.72852 ,3.89543 ,38.22195 
74 ,13.6200 ,0.73035 ,3.84752 ,37.75185 
75 ,13.7961 ,0.73217 ,3.84410 ,37.71828 
76 ,13.9723 ,0.73389 ,3.82356 ,37.51681 
77 ,14.1483 ,0.73566 ,3.80987 ,37.38249 
78 ,14.3244 ,0.73741 ,3.79619 ,37.24818 
79 ,14.5164 ,0.73927 ,3.76881 ,36.97955 
80 ,14.7246 ,0.74128 ,3.76196 ,36.91240 
81 ,14.9005 ,0.74319 ,3.73801 ,36.67735 
82 ,15.0928 ,0.74504 ,3.72432 ,36.54303 
83 ,15.2689 ,0.74685 ,3.71063 ,36.40872 
84 ,15.4608 ,0.74875 ,3.69694 ,36.27441 
85 ,15.6368 ,0.75052 ,3.66614 ,35.97220 
86 ,15.8290 ,0.75240 ,3.65930 ,35.90505 
87 ,16.0048 ,0.75424 ,3.64903 ,35.80431 
88 ,16.1970 ,0.75615 ,3.61823 ,35.50211 
89 ,16.3730 ,0.75793 ,3.59770 ,35.30064 
90 ,16.5655 ,0.75978 ,3.60454 ,35.36779 
91 ,16.7573 ,0.76173 ,3.57032 ,35.03201 
92 ,16.9331 ,0.76342 ,3.54979 ,34.83054 
93 ,17.1095 ,0.76525 ,3.53268 ,34.66265 
94 ,17.2855 ,0.76701 ,3.54295 ,34.76338 
95 ,17.4456 ,0.76872 ,3.51557 ,34.49476 
96 ,17.6217 ,0.77033 ,3.49846 ,34.32687 
97 ,17.7976 ,0.77211 ,3.47792 ,34.12540 
98 ,17.9739 ,0.77389 ,3.46766 ,34.02466 
99 ,18.1660 ,0.77576 ,3.46766 ,34.02466 
100 ,18.3582 ,0.77775 ,3.43001 ,33.65530 
101 ,18.5340 ,0.77952 ,3.39921 ,33.35310 
102 ,18.7099 ,0.78125 ,3.41290 ,33.48741 
103 ,18.8861 ,0.78303 ,3.38895 ,33.25236 
104 ,19.0622 ,0.78482 ,3.37184 ,33.08447 
105 ,19.2383 ,0.78660 ,3.36842 ,33.05089 
106 ,19.4145 ,0.78823 ,3.33077 ,32.68153 
107 ,19.6225 ,0.79033 ,3.31708 ,32.54722 
108 ,19.7984 ,0.79211 ,3.29655 ,32.34575 
109 ,19.9746 ,0.79386 ,3.28286 ,32.21143 
110 ,20.1502 ,0.79565 ,3.27259 ,32.11070 
111 ,20.3428 ,0.79749 ,3.25891 ,31.97639 
112 ,20.5509 ,0.79957 ,3.23837 ,31.77492 
113 ,20.7430 ,0.80147 ,3.20757 ,31.47271 
114 ,20.9191 ,0.80336 ,3.18362 ,31.23766 
115 ,21.1272 ,0.80527 ,3.19046 ,31.30482 
116 ,21.3031 ,0.80715 ,3.15966 ,31.00262 
117 ,21.4792 ,0.80899 ,3.15624 ,30.96904 
118 ,21.6552 ,0.81068 ,3.12544 ,30.66683 
119 ,21.8315 ,0.81243 ,3.12886 ,30.70041 
120 ,22.0075 ,0.81422 ,3.11175 ,30.53252 
121 ,22.1994 ,0.81613 ,3.07411 ,30.16316 
122 ,22.3756 ,0.81791 ,3.07069 ,30.12958 
123 ,22.5517 ,0.81967 ,3.05358 ,29.96169 
124 ,22.7437 ,0.82146 ,3.05358 ,29.96169 
125 ,22.9199 ,0.82333 ,3.01251 ,29.55875 
126 ,23.1118 ,0.82517 ,3.01935 ,29.62590 
127 ,23.2880 ,0.82700 ,3.01251 ,29.55875 
128 ,23.4800 ,0.82891 ,2.97487 ,29.18939 
129 ,23.6563 ,0.83072 ,2.94749 ,28.92076 
130 ,23.8161 ,0.83242 ,2.96460 ,29.08865 
131 ,24.0083 ,0.83417 ,2.94749 ,28.92076 
132 ,24.2003 ,0.83611 ,2.89958 ,28.45066 
133 ,24.3765 ,0.83788 ,2.89273 ,28.38351 
134 ,24.5685 ,0.83977 ,2.88247 ,28.28277 
135 ,24.7764 ,0.84181 ,2.85167 ,27.98057 
136 ,24.9527 ,0.84366 ,2.86878 ,28.14846 
137 ,25.1448 ,0.84562 ,2.82771 ,27.74552 
138 ,25.3208 ,0.84735 ,2.80376 ,27.51047 
139 ,25.4964 ,0.84922 ,2.80718 ,27.54405 
140 ,25.6729 ,0.85085 ,2.79349 ,27.40974 
141 ,25.8651 ,0.85271 ,2.76269 ,27.10753 
142 ,26.0568 ,0.85464 ,2.75927 ,27.07395 
143 ,26.2332 ,0.85646 ,2.73874 ,26.87248 
144 ,26.4247 ,0.85838 ,2.71478 ,26.63744 
145 ,26.6012 ,0.86016 ,2.70109 ,26.50312 
146 ,26.7930 ,0.86201 ,2.69083 ,26.40239 
147 ,26.9691 ,0.86376 ,2.67714 ,26.26807 
148 ,27.1455 ,0.86556 ,2.65660 ,26.06661 
149 ,27.3376 ,0.86748 ,2.63607 ,25.86514 
150 ,27.5137 ,0.86920 ,2.61896 ,25.69724 
151 ,27.7058 ,0.87106 ,2.61212 ,25.63009 
152 ,27.8978 ,0.87309 ,2.57789 ,25.29430 
153 ,28.0738 ,0.87485 ,2.57789 ,25.29430 
154 ,28.2499 ,0.87662 ,2.58132 ,25.32788 
155 ,28.4421 ,0.87853 ,2.55394 ,25.05926 
156 ,28.6178 ,0.88042 ,2.54025 ,24.92494 
157 ,28.7939 ,0.88207 ,2.51287 ,24.65632 
158 ,28.9863 ,0.88393 ,2.49234 ,24.45485 
159 ,29.1625 ,0.88576 ,2.47181 ,24.25338 
160 ,29.3545 ,0.88764 ,2.46839 ,24.21980 
161 ,29.5303 ,0.88937 ,2.46839 ,24.21980 
162 ,29.7061 ,0.89128 ,2.42732 ,23.81686 
163 ,29.8823 ,0.89290 ,2.42048 ,23.74970 
164 ,30.0583 ,0.89469 ,2.40679 ,23.61539 
165 ,30.2344 ,0.89643 ,2.38625 ,23.41392 
166 ,30.3945 ,0.89813 ,2.37941 ,23.34676 
167 ,30.5709 ,0.89978 ,2.37599 ,23.31318 
168 ,30.7627 ,0.90170 ,2.33492 ,22.91024 
169 ,30.9391 ,0.90348 ,2.32808 ,22.84309 
170 ,31.1151 ,0.90539 ,2.31781 ,22.74235 
171 ,31.2913 ,0.90698 ,2.31439 ,22.70877 
172 ,31.4834 ,0.90893 ,2.28359 ,22.40657 
173 ,31.6754 ,0.91078 ,2.26648 ,22.23868 
174 ,31.8673 ,0.91271 ,2.25963 ,22.17152 
175 ,32.0436 ,0.91453 ,2.22541 ,21.83574 
176 ,32.2354 ,0.91648 ,2.20830 ,21.66785 
177 ,32.4116 ,0.91817 ,2.22199 ,21.80216 
178 ,32.6035 ,0.92013 ,2.19803 ,21.56711 
179 ,32.7795 ,0.92186 ,2.14670 ,21.06344 
180 ,32.9558 ,0.92367 ,2.15697 ,21.16417 
181 ,33.1320 ,0.92539 ,2.15012 ,21.09702 
182 ,33.3080 ,0.92718 ,2.14670 ,21.06344 
183 ,33.4841 ,0.92893 ,2.12275 ,20.82839 
184 ,33.6600 ,0.93066 ,2.09195 ,20.52619 
185 ,33.8362 ,0.93243 ,2.08510 ,20.45903 
186 ,34.0284 ,0.93431 ,2.06799 ,20.29114 
187 ,34.2044 ,0.93612 ,2.05773 ,20.19040 
188 ,34.3803 ,0.93792 ,2.03377 ,19.95535 
189 ,34.5565 ,0.93972 ,2.03719 ,19.98893 
190 ,34.7327 ,0.94142 ,2.02350 ,19.85462 
191 ,34.9245 ,0.94334 ,2.00639 ,19.68673 
192 ,35.1006 ,0.94505 ,1.98244 ,19.45168 
193 ,35.2767 ,0.94684 ,1.95848 ,19.21663 
194 ,35.4526 ,0.94861 ,1.95848 ,19.21663 
195 ,35.6290 ,0.95034 ,1.95506 ,19.18305 
196 ,35.8050 ,0.95215 ,1.92426 ,18.88085 
197 ,35.9809 ,0.95387 ,1.88662 ,18.51149 
198 ,36.1732 ,0.95579 ,1.89004 ,18.54507 
199 ,36.3653 ,0.95776 ,1.87635 ,18.41075 
200 ,36.5413 ,0.95945 ,1.85240 ,18.17570 
201 ,36.7174 ,0.96130 ,1.83528 ,18.00781 
202 ,36.8935 ,0.96305 ,1.82844 ,17.94066 
203 ,37.0852 ,0.96496 ,1.81817 ,17.83992 
204 ,37.2616 ,0.96668 ,1.79080 ,17.57129 
205 ,37.4540 ,0.96863 ,1.77711 ,17.43698 
206 ,37.6458 ,0.97048 ,1.76342 ,17.30267 
207 ,37.8219 ,0.97232 ,1.73604 ,17.03404 
208 ,38.0296 ,0.97427 ,1.73262 ,17.00046 
209 ,38.2060 ,0.97610 ,1.72578 ,16.93331 
210 ,38.3818 ,0.97785 ,1.68813 ,16.56395 
211 ,38.5583 ,0.97967 ,1.67102 ,16.39605 
212 ,38.7342 ,0.98142 ,1.65733 ,16.26174 
213 ,38.9100 ,0.98314 ,1.66418 ,16.32890 
214 ,39.0863 ,0.98491 ,1.65391 ,16.22816 
215 ,39.2460 ,0.98662 ,1.62311 ,15.92596 
216 ,39.4224 ,0.98825 ,1.60258 ,15.72449 
217 ,39.5985 ,0.99007 ,1.59573 ,15.65733 
218 ,39.7747 ,0.99187 ,1.58204 ,15.52302 
219 ,39.9667 ,0.99367 ,1.55809 ,15.28797 
220 ,40.1428 ,0.99550 ,1.55124 ,15.22081 
221 ,40.3186 ,0.99729 ,1.55467 ,15.25439 
222 ,40.4950 ,0.99901 ,1.53413 ,15.05292 
223 ,40.6708 ,1.00074 ,1.52387 ,14.95219 
224 ,40.8791 ,1.00278 ,1.49649 ,14.68356 
225 ,41.0551 ,1.00464 ,1.48280 ,14.54925 
226 ,41.2311 ,1.00631 ,1.47596 ,14.48209 
227 ,41.3913 ,1.00809 ,1.45885 ,14.31420 
228 ,41.5674 ,1.00974 ,1.44516 ,14.17989 
229 ,41.7595 ,1.01165 ,1.42805 ,14.01199 
230 ,41.9835 ,1.01374 ,1.40751 ,13.81053 
231 ,42.1597 ,1.01567 ,1.38356 ,13.57548 
232 ,42.3517 ,1.01749 ,1.37671 ,13.50832 
233 ,42.5438 ,1.01944 ,1.35960 ,13.34043 
234 ,42.7358 ,1.02143 ,1.35618 ,13.30685 
235 ,42.9439 ,1.02341 ,1.31854 ,12.93749 
236 ,43.1356 ,1.02536 ,1.33223 ,13.07180 
237 ,43.3121 ,1.02713 ,1.31169 ,12.87033 
238 ,43.4876 ,1.02892 ,1.30485 ,12.80318 
239 ,43.6641 ,1.03070 ,1.27747 ,12.53455 
240 ,43.8400 ,1.03247 ,1.25694 ,12.33308 
241 ,44.0324 ,1.03431 ,1.25694 ,12.33308 
242 ,44.2243 ,1.03629 ,1.23298 ,12.09803 
243 ,44.4002 ,1.03801 ,1.21245 ,11.89656 
244 ,44.5763 ,1.03976 ,1.19534 ,11.72867 
245 ,44.7687 ,1.04173 ,1.18850 ,11.66151 
246 ,44.9606 ,1.04357 ,1.16796 ,11.46004 
247 ,45.1368 ,1.04542 ,1.15427 ,11.32573 
248 ,45.3128 ,1.04718 ,1.16454 ,11.42647 
249 ,45.4888 ,1.04890 ,1.13716 ,11.15784 
250 ,45.6649 ,1.05069 ,1.11321 ,10.92279 
251 ,45.8571 ,1.05265 ,1.11321 ,10.92279 
252 ,46.0331 ,1.05431 ,1.10294 ,10.82206 
253 ,46.2092 ,1.05610 ,1.07556 ,10.55343 
254 ,46.3852 ,1.05788 ,1.05845 ,10.38554 
255 ,46.5773 ,1.05977 ,1.06187 ,10.41912 
256 ,46.7534 ,1.06160 ,1.05503 ,10.35196 
257 ,46.9455 ,1.06339 ,1.02081 ,10.01618 
258 ,47.1376 ,1.06539 ,1.03108 ,10.11691 
259 ,47.3295 ,1.06734 ,1.01054 ,9.91544 
260 ,47.5056 ,1.06909 ,0.98317 ,9.64682 
261 ,47.6816 ,1.07084 ,0.95921 ,9.41177 
262 ,47.8737 ,1.07276 ,0.96605 ,9.47892 
263 ,48.0661 ,1.07461 ,0.93868 ,9.21030 
264 ,48.2420 ,1.07648 ,0.92841 ,9.10956 
265 ,48.4339 ,1.07826 ,0.92841 ,9.10956 
266 ,48.6261 ,1.08028 ,0.90446 ,8.87451 
267 ,48.8017 ,1.08203 ,0.88392 ,8.67305 
268 ,48.9784 ,1.08378 ,0.88392 ,8.67305 
269 ,49.1702 ,1.08568 ,0.85997 ,8.43800 
270 ,49.3463 ,1.08750 ,0.85654 ,8.40442 
271 ,49.5225 ,1.08925 ,0.81548 ,8.00148 
272 ,49.6985 ,1.09102 ,0.82232 ,8.06864 
273 ,49.8741 ,1.09276 ,0.81548 ,8.00148 
274 ,50.0502 ,1.09455 ,0.81548 ,8.00148 
275 ,50.2262 ,1.09632 ,0.78126 ,7.66570 
276 ,50.4026 ,1.09802 ,0.75046 ,7.36349 
277 ,50.6269 ,1.10024 ,0.74019 ,7.26276 
278 ,50.8031 ,1.10203 ,0.72992 ,7.16202 
279 ,50.9791 ,1.10378 ,0.72650 ,7.12844 
280 ,51.1710 ,1.10567 ,0.70597 ,6.92697 
281 ,51.3473 ,1.10747 ,0.68201 ,6.69193 
282 ,51.5394 ,1.10940 ,0.68201 ,6.69193 
283 ,51.7475 ,1.11139 ,0.65121 ,6.38972 
284 ,51.9392 ,1.11337 ,0.65806 ,6.45688 
285 ,52.1155 ,1.11521 ,0.65121 ,6.38972 
286 ,52.3237 ,1.11719 ,0.62384 ,6.12109 
287 ,52.4997 ,1.11899 ,0.61357 ,6.02036 
288 ,52.6758 ,1.12076 ,0.62726 ,6.15467 
289 ,52.8520 ,1.12251 ,0.58962 ,5.78531 
290 ,53.0597 ,1.12459 ,0.56566 ,5.55026 
291 ,53.2361 ,1.12637 ,0.57251 ,5.61742 
292 ,53.4118 ,1.12810 ,0.54855 ,5.38237 
293 ,53.5882 ,1.12987 ,0.53144 ,5.21448 
294 ,53.7643 ,1.13169 ,0.52117 ,5.11375 
295 ,53.9403 ,1.13340 ,0.52117 ,5.11375 
296 ,54.1164 ,1.13523 ,0.50406 ,4.94585 
297 ,54.2921 ,1.13689 ,0.49380 ,4.84512 
298 ,54.4846 ,1.13880 ,0.46984 ,4.61007 
299 ,54.6605 ,1.14058 ,0.46642 ,4.57649 
300 ,54.8367 ,1.14233 ,0.45957 ,4.50934 
301 ,55.0131 ,1.14406 ,0.44931 ,4.40860 
302 ,55.1887 ,1.14587 ,0.40482 ,3.97208 
303 ,55.3650 ,1.14769 ,0.39455 ,3.87135 
304 ,55.5570 ,1.14955 ,0.40482 ,3.97208 
305 ,55.7331 ,1.15129 ,0.39113 ,3.83777 
306 ,55.9411 ,1.15328 ,0.37060 ,3.63630 
307 ,56.1332 ,1.15524 ,0.34664 ,3.40125 
308 ,56.3094 ,1.15704 ,0.34322 ,3.36767 
309 ,56.4851 ,1.15895 ,0.33638 ,3.30052 
310 ,56.6452 ,1.16058 ,0.29873 ,2.93116 
311 ,56.8215 ,1.16223 ,0.29531 ,2.89758 
312 ,56.9976 ,1.16408 ,0.30215 ,2.96473 
313 ,57.1898 ,1.16583 ,0.27820 ,2.72969 
314 ,57.3818 ,1.16775 ,0.26451 ,2.59537 
315 ,57.5738 ,1.16978 ,0.27135 ,2.66253 
316 ,57.7662 ,1.17158 ,0.22687 ,2.22601 
317 ,57.9581 ,1.17352 ,0.24740 ,2.42748 
318 ,58.1500 ,1.17542 ,0.20976 ,2.05812 
319 ,58.3259 ,1.17724 ,0.18922 ,1.85665 
320 ,58.5024 ,1.17900 ,0.19264 ,1.89023 
321 ,58.6784 ,1.18078 ,0.17896 ,1.75592 
322 ,58.8866 ,1.18273 ,0.16869 ,1.65518 
323 ,59.0626 ,1.18461 ,0.14816 ,1.45371 
324 ,59.2385 ,1.18635 ,0.16527 ,1.62160 
325 ,59.4304 ,1.18817 ,0.14131 ,1.38655 
326 ,59.7828 ,1.19090 ,0.12078 ,1.18508 
327 ,59.9590 ,1.19358 ,0.10025 ,0.98361 
328 ,60.1510 ,1.19543 ,0.10709 ,1.05077 
329 ,60.3431 ,1.19740 ,0.06602 ,0.64783 
330 ,60.5191 ,1.19915 ,0.06260 ,0.61425 
331 ,60.7110 ,1.20106 ,0.04207 ,0.41278 
332 ,60.8874 ,1.20285 ,0.02496 ,0.24489 
333 ,61.0793 ,1.20473 ,0.02496 ,0.24489 
334 ,61.2716 ,1.20664 ,0.01127 ,0.11058 
335 ,61.4635 ,1.20862 ,-0.00584 ,-0.05731 
336 ,61.6395 ,1.21035 ,-0.01953 ,-0.19163 
337 ,61.8316 ,1.21231 ,-0.02980 ,-0.29236 
338 ,62.0077 ,1.21401 ,-0.05033 ,-0.49383 
339 ,62.1838 ,1.21582 ,-0.06402 ,-0.62814 
340 ,62.3759 ,1.21773 ,-0.04691 ,-0.46025 
341 ,62.5516 ,1.21949 ,-0.06402 ,-0.62814 
342 ,62.7279 ,1.22126 ,-0.08455 ,-0.82961 
343 ,62.9042 ,1.22301 ,-0.10166 ,-0.99751 
344 ,63.0800 ,1.22486 ,-0.10166 ,-0.99751 
345 ,63.2562 ,1.22655 ,-0.10166 ,-0.99751 
346 ,63.4323 ,1.22825 ,-0.12219 ,-1.19898 
347 ,63.6081 ,1.23003 ,-0.14273 ,-1.40045 
348 ,63.7843 ,1.23182 ,-0.15642 ,-1.53476 
349 ,63.9765 ,1.23369 ,-0.13931 ,-1.36687 
350 ,64.1525 ,1.23547 ,-0.17011 ,-1.66907 
351 ,64.3447 ,1.23744 ,-0.18037 ,-1.76981 
352 ,64.5208 ,1.23918 ,-0.18379 ,-1.80338 
353 ,64.7125 ,1.24109 ,-0.18722 ,-1.83696 
354 ,64.9050 ,1.24299 ,-0.23513 ,-2.30706 
355 ,65.1290 ,1.24509 ,-0.23170 ,-2.27348 
356 ,65.3051 ,1.24700 ,-0.24197 ,-2.37422 
357 ,65.4651 ,1.24872 ,-0.24539 ,-2.40779 
358 ,65.6412 ,1.25035 ,-0.25566 ,-2.50853 
359 ,65.8333 ,1.25230 ,-0.26250 ,-2.57569 
360 ,66.0095 ,1.25402 ,-0.28304 ,-2.77716 
361 ,66.1851 ,1.25582 ,-0.30699 ,-3.01220 
362 ,66.3617 ,1.25758 ,-0.30015 ,-2.94505 
363 ,66.5376 ,1.25933 ,-0.31041 ,-3.04578 
364 ,66.7297 ,1.26122 ,-0.33095 ,-3.24725 
365 ,66.9054 ,1.26297 ,-0.33437 ,-3.28083 
366 ,67.0818 ,1.26475 ,-0.32752 ,-3.21367 
367 ,67.2580 ,1.26651 ,-0.33779 ,-3.31441 
368 ,67.4340 ,1.26832 ,-0.35148 ,-3.44872 
369 ,67.6100 ,1.27004 ,-0.37201 ,-3.65019 
370 ,67.8021 ,1.27189 ,-0.38912 ,-3.81808 
371 ,67.9782 ,1.27373 ,-0.38228 ,-3.75093 
372 ,68.1703 ,1.27562 ,-0.41308 ,-4.05313 
373 ,68.3463 ,1.27743 ,-0.41992 ,-4.12029 
374 ,68.5061 ,1.27911 ,-0.41308 ,-4.05313 
375 ,68.6825 ,1.28074 ,-0.42335 ,-4.15387 
376 ,68.8743 ,1.28269 ,-0.44046 ,-4.32176 
377 ,69.0507 ,1.28440 ,-0.45757 ,-4.48965 
378 ,69.2267 ,1.28621 ,-0.47126 ,-4.62396 
379 ,69.4189 ,1.28813 ,-0.46099 ,-4.52323 
380 ,69.5947 ,1.28992 ,-0.47810 ,-4.69112 
381 ,69.7709 ,1.29167 ,-0.50548 ,-4.95975 
382 ,69.9471 ,1.29345 ,-0.51232 ,-5.02690 
383 ,70.1391 ,1.29532 ,-0.51574 ,-5.06048 
384 ,70.3311 ,1.29724 ,-0.52601 ,-5.16121 
385 ,70.5073 ,1.29899 ,-0.54654 ,-5.36268 
386 ,70.7154 ,1.30100 ,-0.53970 ,-5.29553 
387 ,70.8914 ,1.30289 ,-0.55339 ,-5.42984 
388 ,71.0831 ,1.30476 ,-0.54997 ,-5.39626 
389 ,71.2595 ,1.30654 ,-0.55339 ,-5.42984 
390 ,71.4515 ,1.30836 ,-0.54997 ,-5.39626 
391 ,71.6277 ,1.31024 ,-0.58761 ,-5.76562 
392 ,71.8197 ,1.31212 ,-0.57392 ,-5.63131 
393 ,71.9958 ,1.31390 ,-0.58761 ,-5.76562 
394 ,72.1719 ,1.31565 ,-0.59445 ,-5.83278 
395 ,72.3478 ,1.31738 ,-0.61841 ,-6.06783 
396 ,72.5559 ,1.31945 ,-0.60472 ,-5.93352 
397 ,72.7320 ,1.32126 ,-0.63210 ,-6.20214 
398 ,72.9243 ,1.32317 ,-0.61841 ,-6.06783 
399 ,73.1161 ,1.32499 ,-0.63210 ,-6.20214 
400 ,73.3080 ,1.32694 ,-0.66974 ,-6.57150 
401 ,73.4681 ,1.32871 ,-0.65263 ,-6.40361 
402 ,73.6442 ,1.33036 ,-0.66290 ,-6.50435 
403 ,73.8042 ,1.33210 ,-0.67659 ,-6.63866 
404 ,73.9801 ,1.33369 ,-0.67316 ,-6.60508 
405 ,74.1565 ,1.33550 ,-0.69712 ,-6.84013 
406 ,74.3325 ,1.33723 ,-0.69712 ,-6.84013 
407 ,74.5086 ,1.33900 ,-0.72107 ,-7.07518 
408 ,74.6685 ,1.34070 ,-0.71765 ,-7.04160 
409 ,74.8447 ,1.34234 ,-0.73134 ,-7.17591 
410 ,75.0047 ,1.34410 ,-0.73818 ,-7.24307 
411 ,75.1807 ,1.34567 ,-0.73476 ,-7.20949 
412 ,75.3569 ,1.34745 ,-0.74845 ,-7.34380 
413 ,75.5329 ,1.34923 ,-0.76556 ,-7.51170 
414 ,75.7090 ,1.35099 ,-0.78952 ,-7.74674 
415 ,75.8693 ,1.35271 ,-0.77583 ,-7.61243 
416 ,76.0452 ,1.35435 ,-0.77925 ,-7.64601 
417 ,76.2053 ,1.35607 ,-0.77925 ,-7.64601 
418 ,76.3812 ,1.35770 ,-0.78952 ,-7.74674 
419 ,76.5574 ,1.35954 ,-0.80321 ,-7.88106 
420 ,76.7335 ,1.36124 ,-0.82032 ,-8.04895 
421 ,76.9096 ,1.36296 ,-0.84085 ,-8.25042 
422 ,77.0696 ,1.36472 ,-0.85112 ,-8.35115 
423 ,77.2457 ,1.36634 ,-0.85796 ,-8.41831 
424 ,77.4218 ,1.36813 ,-0.86138 ,-8.45189 
425 ,77.5977 ,1.36993 ,-0.88534 ,-8.68694 
426 ,77.7741 ,1.37165 ,-0.87507 ,-8.58620 
427 ,77.9824 ,1.37360 ,-0.89560 ,-8.78767 
428 ,78.1583 ,1.37552 ,-0.88192 ,-8.65336 
429 ,78.3345 ,1.37729 ,-0.89903 ,-8.82125 
430 ,78.5101 ,1.37907 ,-0.92298 ,-9.05630 
431 ,78.6866 ,1.38079 ,-0.90929 ,-8.92198 
432 ,78.8628 ,1.38259 ,-0.91956 ,-9.02272 
433 ,79.0389 ,1.38428 ,-0.94009 ,-9.22419 
434 ,79.2149 ,1.38605 ,-0.95036 ,-9.32492 
435 ,79.3906 ,1.38780 ,-0.97089 ,-9.52639 
436 ,79.5667 ,1.38955 ,-0.95720 ,-9.39208 
437 ,79.7431 ,1.39130 ,-0.95378 ,-9.35850 
438 ,79.9192 ,1.39312 ,-0.96405 ,-9.45924 
439 ,80.1273 ,1.39507 ,-0.99827 ,-9.79502 
440 ,80.3195 ,1.39708 ,-0.99827 ,-9.79502 
441 ,80.5111 ,1.39892 ,-1.01538 ,-9.96291 
442 ,80.7033 ,1.40090 ,-1.01196 ,-9.92933 
443 ,80.8956 ,1.40285 ,-1.02565 ,-10.06365 
444 ,81.0716 ,1.40462 ,-1.04960 ,-10.29869 
445 ,81.2637 ,1.40645 ,-1.03934 ,-10.19796 
446 ,81.4396 ,1.40833 ,-1.04618 ,-10.26512 
447 ,81.6477 ,1.41033 ,-1.07014 ,-10.50016 
448 ,81.8240 ,1.41215 ,-1.05987 ,-10.39943 
449 ,82.0320 ,1.41414 ,-1.08382 ,-10.63448 
450 ,82.2081 ,1.41600 ,-1.09067 ,-10.70163 
451 ,82.4000 ,1.41787 ,-1.08382 ,-10.63448 
452 ,82.5763 ,1.41966 ,-1.12147 ,-11.00384 
453 ,82.7682 ,1.42155 ,-1.11120 ,-10.90310 
454 ,82.9443 ,1.42335 ,-1.12147 ,-11.00384 
455 ,83.1204 ,1.42508 ,-1.11805 ,-10.97026 
456 ,83.3125 ,1.42695 ,-1.15911 ,-11.37320 
457 ,83.5045 ,1.42890 ,-1.13173 ,-11.10457 
458 ,83.6968 ,1.43085 ,-1.16253 ,-11.40678 
459 ,83.8887 ,1.43276 ,-1.17622 ,-11.54109 
460 ,84.0808 ,1.43472 ,-1.15569 ,-11.33962 
461 ,84.2569 ,1.43649 ,-1.18307 ,-11.60825 
