Data stamp = , 05-04-2022 11:59:12 587

Calibration Values: 
Slope = , 26.54 , g/V 
Offset Voltage at no contact = , -0.501760 , V 

No , Time , Stage Position ,   Mass , Force 
   ,  (s) ,      (mm)      ,   (g)  , (mN)  

1 ,0.0000 ,0.59941 ,4.97341 ,48.79911 
2 ,0.2312 ,0.59951 ,4.96657 ,48.73196 
3 ,0.5195 ,0.60029 ,4.96315 ,48.69838 
4 ,0.7274 ,0.60174 ,4.96315 ,48.69838 
5 ,0.9038 ,0.60322 ,4.97683 ,48.83269 
6 ,1.0802 ,0.60494 ,4.98368 ,48.89985 
7 ,1.2717 ,0.60677 ,4.96999 ,48.76554 
8 ,1.4639 ,0.60870 ,4.97683 ,48.83269 
9 ,1.6561 ,0.61072 ,4.97683 ,48.83269 
10 ,1.8320 ,0.61247 ,4.94603 ,48.53049 
11 ,2.0243 ,0.61436 ,4.94603 ,48.53049 
12 ,2.2162 ,0.61640 ,4.93577 ,48.42975 
13 ,2.3925 ,0.61806 ,4.92550 ,48.32902 
14 ,2.5845 ,0.61993 ,4.91866 ,48.26186 
15 ,2.7607 ,0.62174 ,4.89812 ,48.06039 
16 ,2.9686 ,0.62382 ,4.87075 ,47.79177 
17 ,3.1608 ,0.62569 ,4.86390 ,47.72461 
18 ,3.3687 ,0.62775 ,4.83310 ,47.42240 
19 ,3.5609 ,0.62971 ,4.82968 ,47.38883 
20 ,3.7367 ,0.63153 ,4.81257 ,47.22093 
21 ,3.9132 ,0.63325 ,4.78177 ,46.91873 
22 ,4.1051 ,0.63507 ,4.76466 ,46.75084 
23 ,4.2969 ,0.63708 ,4.74755 ,46.58295 
24 ,4.4734 ,0.63891 ,4.73728 ,46.48221 
25 ,4.6494 ,0.64060 ,4.69622 ,46.07927 
26 ,4.8254 ,0.64242 ,4.68595 ,45.97854 
27 ,5.0175 ,0.64433 ,4.68595 ,45.97854 
28 ,5.2097 ,0.64616 ,4.65173 ,45.64275 
29 ,5.3852 ,0.64803 ,4.64831 ,45.60918 
30 ,5.5615 ,0.64972 ,4.62777 ,45.40771 
31 ,5.7378 ,0.65159 ,4.60040 ,45.13908 
32 ,5.9139 ,0.65332 ,4.60040 ,45.13908 
33 ,6.0897 ,0.65504 ,4.57644 ,44.90403 
34 ,6.2820 ,0.65689 ,4.54564 ,44.60183 
35 ,6.4577 ,0.65876 ,4.54222 ,44.56825 
36 ,6.6180 ,0.66042 ,4.52853 ,44.43394 
37 ,6.7942 ,0.66207 ,4.50115 ,44.16531 
38 ,6.9864 ,0.66402 ,4.47378 ,43.89668 
39 ,7.1943 ,0.66600 ,4.47378 ,43.89668 
40 ,7.3705 ,0.66784 ,4.44640 ,43.62806 
41 ,7.5464 ,0.66957 ,4.41560 ,43.32585 
42 ,7.7225 ,0.67141 ,4.40191 ,43.19154 
43 ,7.9145 ,0.67323 ,4.39507 ,43.12438 
44 ,8.0905 ,0.67502 ,4.37795 ,42.95649 
45 ,8.2668 ,0.67680 ,4.35058 ,42.68786 
46 ,8.4427 ,0.67855 ,4.32662 ,42.45282 
47 ,8.6349 ,0.68053 ,4.30951 ,42.28492 
48 ,8.8268 ,0.68240 ,4.29924 ,42.18419 
49 ,9.0030 ,0.68412 ,4.28898 ,42.08345 
50 ,9.1951 ,0.68607 ,4.27871 ,41.98272 
51 ,9.3710 ,0.68784 ,4.26845 ,41.88198 
52 ,9.5629 ,0.68977 ,4.23080 ,41.51262 
53 ,9.7394 ,0.69152 ,4.21369 ,41.34473 
54 ,9.9312 ,0.69340 ,4.22053 ,41.41189 
55 ,10.1075 ,0.69521 ,4.19658 ,41.17684 
56 ,10.2835 ,0.69690 ,4.16578 ,40.87464 
57 ,10.4596 ,0.69869 ,4.14867 ,40.70674 
58 ,10.6195 ,0.70041 ,4.15894 ,40.80748 
59 ,10.7957 ,0.70208 ,4.13156 ,40.53885 
60 ,10.9716 ,0.70385 ,4.12814 ,40.50527 
61 ,11.1479 ,0.70562 ,4.10076 ,40.23665 
62 ,11.3399 ,0.70751 ,4.07338 ,39.96802 
63 ,11.5320 ,0.70935 ,4.05627 ,39.80013 
64 ,11.7080 ,0.71119 ,4.04943 ,39.73297 
65 ,11.9002 ,0.71311 ,4.01863 ,39.43077 
66 ,12.0922 ,0.71503 ,4.02205 ,39.46435 
67 ,12.2845 ,0.71687 ,4.00152 ,39.26288 
68 ,12.4763 ,0.71891 ,3.97414 ,38.99425 
69 ,12.6524 ,0.72057 ,3.97072 ,38.96067 
70 ,12.8284 ,0.72238 ,3.95703 ,38.82636 
71 ,13.0042 ,0.72417 ,3.91938 ,38.45700 
72 ,13.1809 ,0.72591 ,3.90570 ,38.32268 
73 ,13.3567 ,0.72766 ,3.89201 ,38.18837 
74 ,13.5488 ,0.72957 ,3.87147 ,37.98690 
75 ,13.7249 ,0.73136 ,3.86121 ,37.88617 
76 ,13.9010 ,0.73305 ,3.83725 ,37.65112 
77 ,14.0772 ,0.73490 ,3.82014 ,37.48323 
78 ,14.2531 ,0.73669 ,3.80987 ,37.38249 
79 ,14.4289 ,0.73843 ,3.80987 ,37.38249 
80 ,14.6053 ,0.74012 ,3.78592 ,37.14744 
81 ,14.7974 ,0.74200 ,3.75512 ,36.84524 
82 ,14.9893 ,0.74392 ,3.75170 ,36.81166 
83 ,15.1654 ,0.74574 ,3.74485 ,36.74450 
84 ,15.3411 ,0.74751 ,3.71748 ,36.47588 
85 ,15.5176 ,0.74927 ,3.68668 ,36.17367 
86 ,15.7254 ,0.75130 ,3.69010 ,36.20725 
87 ,15.9018 ,0.75313 ,3.66272 ,35.93863 
88 ,16.1097 ,0.75516 ,3.64903 ,35.80431 
89 ,16.3019 ,0.75711 ,3.63877 ,35.70358 
90 ,16.4939 ,0.75896 ,3.61481 ,35.46853 
91 ,16.6862 ,0.76096 ,3.60454 ,35.36779 
92 ,16.8780 ,0.76288 ,3.57717 ,35.09917 
93 ,17.0378 ,0.76459 ,3.56006 ,34.93128 
94 ,17.2301 ,0.76631 ,3.54295 ,34.76338 
95 ,17.4222 ,0.76825 ,3.52926 ,34.62907 
96 ,17.5984 ,0.77010 ,3.51215 ,34.46118 
97 ,17.7904 ,0.77195 ,3.50872 ,34.42760 
98 ,17.9824 ,0.77390 ,3.48819 ,34.22613 
99 ,18.1585 ,0.77567 ,3.46081 ,33.95751 
100 ,18.3346 ,0.77740 ,3.44370 ,33.78961 
101 ,18.5108 ,0.77921 ,3.42659 ,33.62172 
102 ,18.6869 ,0.78096 ,3.41975 ,33.55457 
103 ,18.8791 ,0.78285 ,3.39579 ,33.31952 
104 ,19.0710 ,0.78485 ,3.38210 ,33.18520 
105 ,19.2309 ,0.78650 ,3.37184 ,33.08447 
106 ,19.4391 ,0.78832 ,3.35130 ,32.88300 
107 ,19.6153 ,0.79017 ,3.32393 ,32.61437 
108 ,19.7913 ,0.79201 ,3.32051 ,32.58080 
109 ,19.9668 ,0.79381 ,3.30682 ,32.44648 
110 ,20.1429 ,0.79553 ,3.29655 ,32.34575 
111 ,20.3189 ,0.79727 ,3.27602 ,32.14428 
112 ,20.4954 ,0.79902 ,3.25548 ,31.94281 
113 ,20.7196 ,0.80123 ,3.22811 ,31.67418 
114 ,20.9114 ,0.80320 ,3.21100 ,31.50629 
115 ,21.0877 ,0.80495 ,3.21100 ,31.50629 
116 ,21.2635 ,0.80676 ,3.20415 ,31.43913 
117 ,21.4399 ,0.80848 ,3.19388 ,31.33840 
118 ,21.6159 ,0.81023 ,3.16651 ,31.06977 
119 ,21.7920 ,0.81202 ,3.13913 ,30.80115 
120 ,21.9844 ,0.81386 ,3.12886 ,30.70041 
121 ,22.1603 ,0.81568 ,3.11175 ,30.53252 
122 ,22.3360 ,0.81746 ,3.09464 ,30.36463 
123 ,22.5283 ,0.81938 ,3.08095 ,30.23031 
124 ,22.7204 ,0.82125 ,3.06726 ,30.09600 
125 ,22.8966 ,0.82304 ,3.05358 ,29.96169 
126 ,23.0885 ,0.82495 ,3.03304 ,29.76022 
127 ,23.2647 ,0.82670 ,3.01935 ,29.62590 
128 ,23.4404 ,0.82847 ,3.01251 ,29.55875 
129 ,23.6326 ,0.83030 ,2.98855 ,29.32370 
130 ,23.8246 ,0.83232 ,2.97487 ,29.18939 
131 ,24.0009 ,0.83410 ,2.95776 ,29.02150 
132 ,24.1771 ,0.83584 ,2.93380 ,28.78645 
133 ,24.3530 ,0.83753 ,2.90985 ,28.55140 
134 ,24.5292 ,0.83933 ,2.89958 ,28.45066 
135 ,24.7052 ,0.84111 ,2.89958 ,28.45066 
136 ,24.8815 ,0.84288 ,2.88247 ,28.28277 
137 ,25.0730 ,0.84481 ,2.84825 ,27.94699 
138 ,25.2495 ,0.84652 ,2.83114 ,27.77910 
139 ,25.4575 ,0.84859 ,2.80718 ,27.54405 
140 ,25.6332 ,0.85035 ,2.80376 ,27.51047 
141 ,25.8097 ,0.85216 ,2.78665 ,27.34258 
142 ,25.9861 ,0.85392 ,2.77638 ,27.24185 
143 ,26.1779 ,0.85573 ,2.76269 ,27.10753 
144 ,26.3700 ,0.85774 ,2.73874 ,26.87248 
145 ,26.5618 ,0.85967 ,2.73531 ,26.83891 
146 ,26.7541 ,0.86155 ,2.72163 ,26.70459 
147 ,26.9462 ,0.86356 ,2.68740 ,26.36881 
148 ,27.1221 ,0.86528 ,2.67029 ,26.20092 
149 ,27.2982 ,0.86706 ,2.66345 ,26.13376 
150 ,27.4904 ,0.86894 ,2.63265 ,25.83156 
151 ,27.6661 ,0.87082 ,2.63607 ,25.86514 
152 ,27.8424 ,0.87243 ,2.60527 ,25.56293 
153 ,28.0346 ,0.87439 ,2.59501 ,25.46220 
154 ,28.2106 ,0.87615 ,2.56763 ,25.19357 
155 ,28.3868 ,0.87793 ,2.56078 ,25.12641 
156 ,28.6108 ,0.87998 ,2.54367 ,24.95852 
157 ,28.7869 ,0.88198 ,2.53683 ,24.89136 
158 ,28.9629 ,0.88363 ,2.51287 ,24.65632 
159 ,29.1390 ,0.88542 ,2.51630 ,24.68989 
160 ,29.3151 ,0.88716 ,2.48207 ,24.35411 
161 ,29.4912 ,0.88893 ,2.46154 ,24.15264 
162 ,29.6994 ,0.89099 ,2.45812 ,24.11906 
163 ,29.8913 ,0.89294 ,2.43074 ,23.85044 
164 ,30.0834 ,0.89484 ,2.42048 ,23.74970 
165 ,30.2596 ,0.89664 ,2.40679 ,23.61539 
166 ,30.4356 ,0.89844 ,2.39652 ,23.51465 
167 ,30.6276 ,0.90022 ,2.37941 ,23.34676 
168 ,30.8034 ,0.90204 ,2.34519 ,23.01098 
169 ,30.9958 ,0.90396 ,2.35203 ,23.07814 
170 ,31.1879 ,0.90590 ,2.31439 ,22.70877 
171 ,31.3640 ,0.90765 ,2.30412 ,22.60804 
172 ,31.5560 ,0.90953 ,2.30754 ,22.64162 
173 ,31.7480 ,0.91147 ,2.25621 ,22.13794 
174 ,31.9399 ,0.91336 ,2.26648 ,22.23868 
175 ,32.1163 ,0.91520 ,2.25279 ,22.10437 
176 ,32.3082 ,0.91711 ,2.21857 ,21.76858 
177 ,32.5165 ,0.91915 ,2.22199 ,21.80216 
178 ,32.6923 ,0.92094 ,2.19461 ,21.53353 
179 ,32.8686 ,0.92271 ,2.17408 ,21.33206 
180 ,33.0446 ,0.92444 ,2.15012 ,21.09702 
181 ,33.2204 ,0.92635 ,2.15012 ,21.09702 
182 ,33.3966 ,0.92801 ,2.13986 ,20.99628 
183 ,33.5725 ,0.92975 ,2.12959 ,20.89555 
184 ,33.7649 ,0.93160 ,2.09537 ,20.55976 
185 ,33.9412 ,0.93346 ,2.07826 ,20.39187 
186 ,34.1331 ,0.93526 ,2.07141 ,20.32472 
187 ,34.3252 ,0.93725 ,2.04061 ,20.02251 
188 ,34.5013 ,0.93906 ,2.03377 ,19.95535 
189 ,34.6931 ,0.94091 ,2.02008 ,19.82104 
190 ,34.8853 ,0.94282 ,1.98928 ,19.51884 
191 ,35.0611 ,0.94460 ,1.98586 ,19.48526 
192 ,35.2376 ,0.94642 ,1.98244 ,19.45168 
193 ,35.4294 ,0.94830 ,1.96190 ,19.25021 
194 ,35.6056 ,0.95003 ,1.93111 ,18.94801 
195 ,35.7816 ,0.95183 ,1.92768 ,18.91443 
196 ,35.9738 ,0.95368 ,1.93453 ,18.98158 
197 ,36.1498 ,0.95557 ,1.88662 ,18.51149 
198 ,36.3260 ,0.95728 ,1.88319 ,18.47791 
199 ,36.5019 ,0.95903 ,1.86266 ,18.27644 
200 ,36.7102 ,0.96107 ,1.84897 ,18.14213 
201 ,36.9022 ,0.96308 ,1.82502 ,17.90708 
202 ,37.0782 ,0.96480 ,1.81475 ,17.80634 
203 ,37.2864 ,0.96671 ,1.79080 ,17.57129 
204 ,37.4944 ,0.96894 ,1.78737 ,17.53772 
205 ,37.6703 ,0.97070 ,1.78053 ,17.47056 
206 ,37.8466 ,0.97247 ,1.74631 ,17.13478 
207 ,38.0225 ,0.97424 ,1.73604 ,17.03404 
208 ,38.1985 ,0.97599 ,1.73262 ,17.00046 
209 ,38.3909 ,0.97790 ,1.70866 ,16.76542 
210 ,38.5830 ,0.97983 ,1.67786 ,16.46321 
211 ,38.7749 ,0.98171 ,1.68813 ,16.56395 
212 ,38.9510 ,0.98350 ,1.67444 ,16.42963 
213 ,39.1272 ,0.98531 ,1.63338 ,16.02669 
214 ,39.3187 ,0.98719 ,1.62311 ,15.92596 
215 ,39.4951 ,0.98892 ,1.62995 ,15.99311 
216 ,39.6872 ,0.99090 ,1.60258 ,15.72449 
217 ,39.8633 ,0.99268 ,1.58204 ,15.52302 
218 ,40.0391 ,0.99437 ,1.56151 ,15.32155 
219 ,40.2155 ,0.99614 ,1.56836 ,15.38871 
220 ,40.3915 ,0.99789 ,1.54782 ,15.18724 
221 ,40.5836 ,0.99971 ,1.53071 ,15.01934 
222 ,40.7597 ,1.00157 ,1.49991 ,14.71714 
223 ,40.9359 ,1.00340 ,1.50333 ,14.75072 
224 ,41.1117 ,1.00510 ,1.49307 ,14.64998 
225 ,41.2880 ,1.00688 ,1.47253 ,14.44851 
226 ,41.4799 ,1.00882 ,1.44516 ,14.17989 
227 ,41.6561 ,1.01060 ,1.44516 ,14.17989 
228 ,41.8481 ,1.01246 ,1.43489 ,14.07915 
229 ,42.0403 ,1.01439 ,1.39725 ,13.70979 
230 ,42.2323 ,1.01631 ,1.40067 ,13.74337 
231 ,42.4243 ,1.01818 ,1.36303 ,13.37401 
232 ,42.6164 ,1.02014 ,1.36645 ,13.40759 
233 ,42.8083 ,1.02207 ,1.34591 ,13.20612 
234 ,43.0006 ,1.02396 ,1.32538 ,13.00465 
235 ,43.1926 ,1.02584 ,1.32538 ,13.00465 
236 ,43.3688 ,1.02766 ,1.32196 ,12.97107 
237 ,43.5608 ,1.02959 ,1.27747 ,12.53455 
238 ,43.7368 ,1.03134 ,1.27405 ,12.50097 
239 ,43.9289 ,1.03323 ,1.25009 ,12.26592 
240 ,44.1051 ,1.03501 ,1.23641 ,12.13161 
241 ,44.2811 ,1.03680 ,1.22272 ,11.99730 
242 ,44.4572 ,1.03858 ,1.20903 ,11.86298 
243 ,44.6331 ,1.04037 ,1.19534 ,11.72867 
244 ,44.8093 ,1.04209 ,1.19876 ,11.76225 
245 ,44.9853 ,1.04383 ,1.18165 ,11.59436 
246 ,45.1614 ,1.04558 ,1.15085 ,11.29215 
247 ,45.3375 ,1.04737 ,1.15085 ,11.29215 
248 ,45.5296 ,1.04925 ,1.14743 ,11.25857 
249 ,45.7376 ,1.05126 ,1.12005 ,10.98995 
250 ,45.9298 ,1.05324 ,1.10979 ,10.88921 
251 ,46.1219 ,1.05517 ,1.07214 ,10.51985 
252 ,46.2979 ,1.05699 ,1.07556 ,10.55343 
253 ,46.5060 ,1.05899 ,1.06187 ,10.41912 
254 ,46.6817 ,1.06081 ,1.04476 ,10.25123 
255 ,46.8580 ,1.06257 ,1.02081 ,10.01618 
256 ,47.0821 ,1.06464 ,1.03450 ,10.15049 
257 ,47.2579 ,1.06655 ,0.99001 ,9.71397 
258 ,47.4340 ,1.06832 ,0.98317 ,9.64682 
259 ,47.6101 ,1.07005 ,0.97974 ,9.61324 
260 ,47.7861 ,1.07181 ,0.97290 ,9.54608 
261 ,47.9626 ,1.07358 ,0.94210 ,9.24388 
262 ,48.1384 ,1.07537 ,0.92499 ,9.07598 
263 ,48.3467 ,1.07743 ,0.92841 ,9.10956 
264 ,48.5225 ,1.07916 ,0.90788 ,8.90809 
265 ,48.6988 ,1.08095 ,0.88392 ,8.67305 
266 ,48.9067 ,1.08304 ,0.88734 ,8.70662 
267 ,49.0988 ,1.08495 ,0.85997 ,8.43800 
268 ,49.2910 ,1.08686 ,0.85312 ,8.37084 
269 ,49.4832 ,1.08871 ,0.84286 ,8.27011 
270 ,49.6751 ,1.09076 ,0.81206 ,7.96790 
271 ,49.8510 ,1.09244 ,0.81548 ,8.00148 
272 ,50.0273 ,1.09426 ,0.79837 ,7.83359 
273 ,50.2192 ,1.09617 ,0.77784 ,7.63212 
274 ,50.3955 ,1.09786 ,0.77784 ,7.63212 
275 ,50.6035 ,1.09990 ,0.76072 ,7.46423 
276 ,50.7796 ,1.10175 ,0.74019 ,7.26276 
277 ,50.9552 ,1.10353 ,0.73335 ,7.19560 
278 ,51.1318 ,1.10526 ,0.71624 ,7.02771 
279 ,51.3398 ,1.10729 ,0.69228 ,6.79266 
280 ,51.5158 ,1.10908 ,0.68544 ,6.72550 
281 ,51.7079 ,1.11104 ,0.67517 ,6.62477 
282 ,51.8840 ,1.11281 ,0.65806 ,6.45688 
283 ,52.0602 ,1.11453 ,0.63753 ,6.25541 
284 ,52.2362 ,1.11646 ,0.63410 ,6.22183 
285 ,52.4122 ,1.11806 ,0.62384 ,6.12109 
286 ,52.5882 ,1.11987 ,0.62726 ,6.15467 
287 ,52.7805 ,1.12176 ,0.57935 ,5.68458 
288 ,52.9565 ,1.12354 ,0.57251 ,5.61742 
289 ,53.1323 ,1.12523 ,0.56566 ,5.55026 
290 ,53.3086 ,1.12703 ,0.56224 ,5.51668 
291 ,53.4846 ,1.12883 ,0.55539 ,5.44953 
292 ,53.6607 ,1.13052 ,0.51775 ,5.08017 
293 ,53.8368 ,1.13229 ,0.51433 ,5.04659 
294 ,54.0288 ,1.13420 ,0.52459 ,5.14732 
295 ,54.2371 ,1.13621 ,0.49037 ,4.81154 
296 ,54.4289 ,1.13822 ,0.49037 ,4.81154 
297 ,54.6052 ,1.14000 ,0.46984 ,4.61007 
298 ,54.7973 ,1.14185 ,0.45273 ,4.44218 
299 ,54.9734 ,1.14373 ,0.43220 ,4.24071 
300 ,55.1650 ,1.14555 ,0.42193 ,4.13997 
301 ,55.3415 ,1.14737 ,0.40482 ,3.97208 
302 ,55.5174 ,1.14914 ,0.39455 ,3.87135 
303 ,55.6934 ,1.15089 ,0.38429 ,3.77061 
304 ,55.8698 ,1.15262 ,0.39455 ,3.87135 
305 ,56.0457 ,1.15440 ,0.38086 ,3.73703 
306 ,56.2216 ,1.15615 ,0.34322 ,3.36767 
307 ,56.4139 ,1.15801 ,0.33980 ,3.33410 
308 ,56.6217 ,1.16011 ,0.31926 ,3.13263 
309 ,56.7981 ,1.16193 ,0.30558 ,2.99831 
310 ,57.0059 ,1.16393 ,0.29531 ,2.89758 
311 ,57.1822 ,1.16580 ,0.27820 ,2.72969 
312 ,57.3582 ,1.16763 ,0.25767 ,2.52822 
313 ,57.5344 ,1.16925 ,0.24740 ,2.42748 
314 ,57.7104 ,1.17104 ,0.23713 ,2.32675 
315 ,57.8865 ,1.17281 ,0.24398 ,2.39390 
316 ,58.0787 ,1.17470 ,0.20976 ,2.05812 
317 ,58.2545 ,1.17650 ,0.18580 ,1.82307 
318 ,58.4306 ,1.17819 ,0.19607 ,1.92381 
319 ,58.6067 ,1.17999 ,0.19264 ,1.89023 
320 ,58.7828 ,1.18174 ,0.17553 ,1.72234 
321 ,58.9751 ,1.18362 ,0.15842 ,1.55445 
322 ,59.1830 ,1.18568 ,0.15158 ,1.48729 
323 ,59.3751 ,1.18760 ,0.12078 ,1.18508 
324 ,59.5832 ,1.18972 ,0.10709 ,1.05077 
325 ,59.7912 ,1.19176 ,0.10367 ,1.01719 
326 ,59.9832 ,1.19362 ,0.09682 ,0.95004 
327 ,60.1594 ,1.19552 ,0.06602 ,0.64783 
328 ,60.3354 ,1.19727 ,0.03865 ,0.37920 
329 ,60.5271 ,1.19925 ,0.06945 ,0.68141 
330 ,60.7035 ,1.20092 ,0.04891 ,0.47994 
331 ,60.8957 ,1.20291 ,0.02154 ,0.21131 
332 ,61.0879 ,1.20480 ,0.02496 ,0.24489 
333 ,61.2636 ,1.20656 ,0.01127 ,0.11058 
334 ,61.4560 ,1.20843 ,-0.01953 ,-0.19163 
335 ,61.6318 ,1.21030 ,-0.00926 ,-0.09089 
336 ,61.8240 ,1.21206 ,-0.02637 ,-0.25878 
337 ,62.0320 ,1.21420 ,-0.04691 ,-0.46025 
338 ,62.2082 ,1.21602 ,-0.06744 ,-0.66172 
339 ,62.4000 ,1.21783 ,-0.08455 ,-0.82961 
340 ,62.5920 ,1.21981 ,-0.09482 ,-0.93035 
341 ,62.7683 ,1.22159 ,-0.08455 ,-0.82961 
342 ,62.9605 ,1.22353 ,-0.11193 ,-1.09824 
343 ,63.1525 ,1.22535 ,-0.11193 ,-1.09824 
344 ,63.3443 ,1.22741 ,-0.11535 ,-1.13182 
345 ,63.5206 ,1.22910 ,-0.13931 ,-1.36687 
346 ,63.6963 ,1.23085 ,-0.15642 ,-1.53476 
347 ,63.8727 ,1.23264 ,-0.15984 ,-1.56834 
348 ,64.0490 ,1.23438 ,-0.15984 ,-1.56834 
349 ,64.2249 ,1.23615 ,-0.17353 ,-1.70265 
350 ,64.4170 ,1.23809 ,-0.20433 ,-2.00485 
351 ,64.6412 ,1.24015 ,-0.21459 ,-2.10559 
352 ,64.8332 ,1.24214 ,-0.22144 ,-2.17275 
353 ,65.0253 ,1.24418 ,-0.23855 ,-2.34064 
354 ,65.2014 ,1.24592 ,-0.24539 ,-2.40779 
355 ,65.3775 ,1.24768 ,-0.25566 ,-2.50853 
356 ,65.5533 ,1.24940 ,-0.27277 ,-2.67642 
357 ,65.7297 ,1.25118 ,-0.26250 ,-2.57569 
358 ,65.9058 ,1.25299 ,-0.28304 ,-2.77716 
359 ,66.1134 ,1.25496 ,-0.28988 ,-2.84431 
360 ,66.2899 ,1.25679 ,-0.29673 ,-2.91147 
361 ,66.4980 ,1.25877 ,-0.32068 ,-3.14652 
362 ,66.6740 ,1.26067 ,-0.32752 ,-3.21367 
363 ,66.8498 ,1.26236 ,-0.33779 ,-3.31441 
364 ,67.0261 ,1.26421 ,-0.33779 ,-3.31441 
365 ,67.2183 ,1.26608 ,-0.36517 ,-3.58303 
366 ,67.3939 ,1.26787 ,-0.37201 ,-3.65019 
367 ,67.5705 ,1.26956 ,-0.37201 ,-3.65019 
368 ,67.7465 ,1.27140 ,-0.36859 ,-3.61661 
369 ,67.9222 ,1.27313 ,-0.39597 ,-3.88524 
370 ,68.0987 ,1.27491 ,-0.40281 ,-3.95240 
371 ,68.2908 ,1.27680 ,-0.42335 ,-4.15387 
372 ,68.4829 ,1.27864 ,-0.43361 ,-4.25460 
373 ,68.6750 ,1.28067 ,-0.44046 ,-4.32176 
374 ,68.8831 ,1.28269 ,-0.45414 ,-4.45607 
375 ,69.0752 ,1.28468 ,-0.46783 ,-4.59038 
376 ,69.2671 ,1.28658 ,-0.45757 ,-4.48965 
377 ,69.4593 ,1.28845 ,-0.49179 ,-4.82543 
378 ,69.6351 ,1.29026 ,-0.49863 ,-4.89259 
379 ,69.8111 ,1.29205 ,-0.48837 ,-4.79185 
380 ,70.0030 ,1.29389 ,-0.50890 ,-4.99332 
381 ,70.1795 ,1.29567 ,-0.51574 ,-5.06048 
382 ,70.3715 ,1.29762 ,-0.53285 ,-5.22837 
383 ,70.5635 ,1.29945 ,-0.54312 ,-5.32911 
384 ,70.7556 ,1.30141 ,-0.55339 ,-5.42984 
385 ,70.9316 ,1.30319 ,-0.56708 ,-5.56415 
386 ,71.1074 ,1.30496 ,-0.55681 ,-5.46342 
387 ,71.2838 ,1.30676 ,-0.56708 ,-5.56415 
388 ,71.4757 ,1.30868 ,-0.59788 ,-5.86636 
389 ,71.6360 ,1.31033 ,-0.59788 ,-5.86636 
390 ,71.8121 ,1.31200 ,-0.59788 ,-5.86636 
391 ,71.9883 ,1.31378 ,-0.60814 ,-5.96709 
392 ,72.1642 ,1.31555 ,-0.60472 ,-5.93352 
393 ,72.3403 ,1.31730 ,-0.61499 ,-6.03425 
394 ,72.5323 ,1.31912 ,-0.62183 ,-6.10141 
395 ,72.7245 ,1.32113 ,-0.63210 ,-6.20214 
396 ,72.9166 ,1.32299 ,-0.65947 ,-6.47077 
397 ,73.0926 ,1.32480 ,-0.66632 ,-6.53793 
398 ,73.2684 ,1.32658 ,-0.66974 ,-6.57150 
399 ,73.4448 ,1.32833 ,-0.66632 ,-6.53793 
400 ,73.6369 ,1.33027 ,-0.70054 ,-6.87371 
401 ,73.8126 ,1.33199 ,-0.70054 ,-6.87371 
402 ,73.9890 ,1.33378 ,-0.68685 ,-6.73940 
403 ,74.1810 ,1.33568 ,-0.71081 ,-6.97444 
404 ,74.3569 ,1.33742 ,-0.73818 ,-7.24307 
405 ,74.5331 ,1.33923 ,-0.74503 ,-7.31023 
406 ,74.7092 ,1.34094 ,-0.73818 ,-7.24307 
407 ,74.8854 ,1.34270 ,-0.73818 ,-7.24307 
408 ,75.0776 ,1.34467 ,-0.77241 ,-7.57885 
409 ,75.2535 ,1.34637 ,-0.78267 ,-7.67959 
410 ,75.4612 ,1.34844 ,-0.78267 ,-7.67959 
411 ,75.6371 ,1.35022 ,-0.79636 ,-7.81390 
412 ,75.8297 ,1.35213 ,-0.80321 ,-7.88106 
413 ,76.0217 ,1.35404 ,-0.80663 ,-7.91464 
414 ,76.1976 ,1.35585 ,-0.83058 ,-8.14968 
415 ,76.3740 ,1.35757 ,-0.83058 ,-8.14968 
416 ,76.5660 ,1.35955 ,-0.83743 ,-8.21684 
417 ,76.7581 ,1.36142 ,-0.85796 ,-8.41831 
418 ,76.9501 ,1.36327 ,-0.85112 ,-8.35115 
419 ,77.1261 ,1.36512 ,-0.86481 ,-8.48547 
420 ,77.3023 ,1.36690 ,-0.86823 ,-8.51904 
421 ,77.4941 ,1.36872 ,-0.89218 ,-8.75409 
422 ,77.6706 ,1.37057 ,-0.89560 ,-8.78767 
423 ,77.8463 ,1.37229 ,-0.88192 ,-8.65336 
424 ,78.0225 ,1.37407 ,-0.90929 ,-8.92198 
425 ,78.2146 ,1.37598 ,-0.92983 ,-9.12345 
426 ,78.3909 ,1.37777 ,-0.91956 ,-9.02272 
427 ,78.5826 ,1.37961 ,-0.93325 ,-9.15703 
428 ,78.7590 ,1.38143 ,-0.95378 ,-9.35850 
429 ,78.9511 ,1.38337 ,-0.95378 ,-9.35850 
430 ,79.1272 ,1.38513 ,-0.95036 ,-9.32492 
431 ,79.3512 ,1.38720 ,-0.97431 ,-9.55997 
432 ,79.5274 ,1.38915 ,-0.97431 ,-9.55997 
433 ,79.7193 ,1.39100 ,-1.00511 ,-9.86218 
434 ,79.9115 ,1.39290 ,-0.98800 ,-9.69429 
435 ,80.1034 ,1.39485 ,-1.00854 ,-9.89576 
436 ,80.2798 ,1.39662 ,-1.03249 ,-10.13080 
437 ,80.4711 ,1.39847 ,-1.01880 ,-9.99649 
438 ,80.6312 ,1.40030 ,-1.03249 ,-10.13080 
439 ,80.7912 ,1.40189 ,-1.03934 ,-10.19796 
440 ,80.9675 ,1.40350 ,-1.03934 ,-10.19796 
441 ,81.1757 ,1.40561 ,-1.06671 ,-10.46659 
442 ,81.3681 ,1.40749 ,-1.07014 ,-10.50016 
443 ,81.5441 ,1.40933 ,-1.07698 ,-10.56732 
444 ,81.7199 ,1.41110 ,-1.08040 ,-10.60090 
445 ,81.9124 ,1.41291 ,-1.10093 ,-10.80237 
446 ,82.1039 ,1.41488 ,-1.10436 ,-10.83595 
447 ,82.2804 ,1.41664 ,-1.13173 ,-11.10457 
448 ,82.4722 ,1.41858 ,-1.10436 ,-10.83595 
449 ,82.6644 ,1.42049 ,-1.13173 ,-11.10457 
450 ,82.8243 ,1.42217 ,-1.14884 ,-11.27247 
451 ,83.0007 ,1.42384 ,-1.16253 ,-11.40678 
452 ,83.1926 ,1.42578 ,-1.14542 ,-11.23889 
453 ,83.3689 ,1.42752 ,-1.17622 ,-11.54109 
454 ,83.5449 ,1.42929 ,-1.16938 ,-11.47394 
455 ,83.7209 ,1.43104 ,-1.18307 ,-11.60825 
456 ,83.8967 ,1.43278 ,-1.20360 ,-11.80972 
457 ,84.0730 ,1.43456 ,-1.19676 ,-11.74256 
458 ,84.2809 ,1.43658 ,-1.21387 ,-11.91045 
459 ,84.4573 ,1.43837 ,-1.22071 ,-11.97761 
460 ,84.6813 ,1.44049 ,-1.21729 ,-11.94403 
461 ,84.8571 ,1.44238 ,-1.23440 ,-12.11192 
