Data stamp = , 04-04-2022 16:35:12 743

Calibration Values: 
Slope = , 26.54 , g/V 
Offset Voltage at no contact = , -0.501760 , V 

No , Time , Stage Position ,   Mass , Force 
   ,  (s) ,      (mm)      ,   (g)  , (mN)  

1 ,0.0000 ,0.59952 ,5.12741 ,50.31014 
2 ,0.2349 ,0.59961 ,5.12741 ,50.31014 
3 ,0.8109 ,0.60156 ,5.14110 ,50.44445 
4 ,0.9870 ,0.60414 ,5.14110 ,50.44445 
5 ,1.1791 ,0.60596 ,5.13425 ,50.37729 
6 ,1.3712 ,0.60784 ,5.15479 ,50.57876 
7 ,1.5634 ,0.60987 ,5.13083 ,50.34372 
8 ,1.7554 ,0.61179 ,5.13768 ,50.41087 
9 ,1.9640 ,0.61378 ,5.12056 ,50.24298 
10 ,2.2036 ,0.61631 ,5.11030 ,50.14225 
11 ,2.3962 ,0.61822 ,5.07608 ,49.80646 
12 ,2.5879 ,0.62022 ,5.07265 ,49.77289 
13 ,2.7639 ,0.62194 ,5.07265 ,49.77289 
14 ,2.9564 ,0.62379 ,5.04870 ,49.53784 
15 ,3.1324 ,0.62561 ,5.03843 ,49.43710 
16 ,3.3084 ,0.62736 ,5.02474 ,49.30279 
17 ,3.4845 ,0.62912 ,5.00763 ,49.13490 
18 ,3.6607 ,0.63092 ,4.97683 ,48.83269 
19 ,3.8529 ,0.63286 ,4.99052 ,48.96701 
20 ,4.0449 ,0.63475 ,4.95630 ,48.63122 
21 ,4.2528 ,0.63679 ,4.95630 ,48.63122 
22 ,4.4451 ,0.63873 ,4.93577 ,48.42975 
23 ,4.6370 ,0.64063 ,4.90497 ,48.12755 
24 ,4.8129 ,0.64236 ,4.91181 ,48.19471 
25 ,5.0051 ,0.64433 ,4.87075 ,47.79177 
26 ,5.1971 ,0.64615 ,4.85364 ,47.62387 
27 ,5.3892 ,0.64815 ,4.85021 ,47.59030 
28 ,5.5812 ,0.65006 ,4.81257 ,47.22093 
29 ,5.7575 ,0.65191 ,4.79888 ,47.08662 
30 ,5.9493 ,0.65374 ,4.80573 ,47.15378 
31 ,6.1253 ,0.65551 ,4.76466 ,46.75084 
32 ,6.3014 ,0.65730 ,4.74755 ,46.58295 
33 ,6.4776 ,0.65909 ,4.73728 ,46.48221 
34 ,6.7020 ,0.66109 ,4.71675 ,46.28074 
35 ,7.0060 ,0.66386 ,4.69622 ,46.07927 
36 ,7.2777 ,0.66674 ,4.63804 ,45.50844 
37 ,7.5019 ,0.66916 ,4.62435 ,45.37413 
38 ,7.7103 ,0.67135 ,4.61066 ,45.23981 
39 ,7.8861 ,0.67311 ,4.59697 ,45.10550 
40 ,8.0625 ,0.67495 ,4.56275 ,44.76972 
41 ,8.2382 ,0.67661 ,4.55249 ,44.66898 
42 ,8.4146 ,0.67840 ,4.55249 ,44.66898 
43 ,8.5904 ,0.68015 ,4.53195 ,44.46751 
44 ,8.7987 ,0.68227 ,4.49773 ,44.13173 
45 ,8.9907 ,0.68416 ,4.50457 ,44.19889 
46 ,9.1828 ,0.68604 ,4.46693 ,43.82953 
47 ,9.3589 ,0.68794 ,4.44982 ,43.66163 
48 ,9.5510 ,0.68977 ,4.44640 ,43.62806 
49 ,9.7427 ,0.69165 ,4.41560 ,43.32585 
50 ,9.9348 ,0.69368 ,4.39507 ,43.12438 
51 ,10.1108 ,0.69537 ,4.40191 ,43.19154 
52 ,10.3031 ,0.69734 ,4.36769 ,42.85576 
53 ,10.5112 ,0.69931 ,4.34031 ,42.58713 
54 ,10.7035 ,0.70129 ,4.32662 ,42.45282 
55 ,10.8956 ,0.70321 ,4.31636 ,42.35208 
56 ,11.0877 ,0.70515 ,4.29924 ,42.18419 
57 ,11.2795 ,0.70706 ,4.26845 ,41.88198 
58 ,11.4557 ,0.70877 ,4.27529 ,41.94914 
59 ,11.6477 ,0.71065 ,4.24449 ,41.64694 
60 ,11.8399 ,0.71267 ,4.23422 ,41.54620 
61 ,12.0159 ,0.71439 ,4.22738 ,41.47905 
62 ,12.1920 ,0.71617 ,4.20000 ,41.21042 
63 ,12.3679 ,0.71799 ,4.18974 ,41.10968 
64 ,12.5442 ,0.71980 ,4.17262 ,40.94179 
65 ,12.7203 ,0.72148 ,4.14183 ,40.63959 
66 ,12.8960 ,0.72318 ,4.14183 ,40.63959 
67 ,13.0725 ,0.72494 ,4.13156 ,40.53885 
68 ,13.2483 ,0.72671 ,4.10418 ,40.27023 
69 ,13.4403 ,0.72868 ,4.09391 ,40.16949 
70 ,13.6325 ,0.73053 ,4.06996 ,39.93444 
71 ,13.8084 ,0.73235 ,4.05285 ,39.76655 
72 ,14.0007 ,0.73427 ,4.02889 ,39.53150 
73 ,14.1765 ,0.73599 ,4.03232 ,39.56508 
74 ,14.3688 ,0.73787 ,4.00836 ,39.33003 
75 ,14.5613 ,0.73986 ,3.97756 ,39.02783 
76 ,14.7537 ,0.74181 ,3.98441 ,39.09499 
77 ,14.9452 ,0.74357 ,3.95361 ,38.79278 
78 ,15.1372 ,0.74560 ,3.92965 ,38.55773 
79 ,15.3133 ,0.74738 ,3.92965 ,38.55773 
80 ,15.4894 ,0.74911 ,3.89543 ,38.22195 
81 ,15.6812 ,0.75103 ,3.88516 ,38.12122 
82 ,15.8734 ,0.75300 ,3.87490 ,38.02048 
83 ,16.0658 ,0.75493 ,3.85094 ,37.78543 
84 ,16.2413 ,0.75678 ,3.83725 ,37.65112 
85 ,16.4174 ,0.75850 ,3.82014 ,37.48323 
86 ,16.6098 ,0.76029 ,3.81330 ,37.41607 
87 ,16.8017 ,0.76226 ,3.76881 ,36.97955 
88 ,16.9940 ,0.76414 ,3.76881 ,36.97955 
89 ,17.1696 ,0.76603 ,3.74143 ,36.71093 
90 ,17.3460 ,0.76767 ,3.73117 ,36.61019 
91 ,17.5378 ,0.76957 ,3.70721 ,36.37514 
92 ,17.7301 ,0.77143 ,3.70379 ,36.34157 
93 ,17.9221 ,0.77350 ,3.67299 ,36.03936 
94 ,18.0981 ,0.77527 ,3.66272 ,35.93863 
95 ,18.2741 ,0.77695 ,3.64903 ,35.80431 
96 ,18.4503 ,0.77876 ,3.63534 ,35.67000 
97 ,18.6265 ,0.78049 ,3.62166 ,35.53569 
98 ,18.8183 ,0.78242 ,3.59428 ,35.26706 
99 ,18.9944 ,0.78421 ,3.58401 ,35.16632 
100 ,19.1705 ,0.78593 ,3.57717 ,35.09917 
101 ,19.3466 ,0.78768 ,3.53268 ,34.66265 
102 ,19.5226 ,0.78943 ,3.51899 ,34.52834 
103 ,19.6991 ,0.79122 ,3.51557 ,34.49476 
104 ,19.8912 ,0.79317 ,3.50188 ,34.36045 
105 ,20.0831 ,0.79511 ,3.47108 ,34.05824 
106 ,20.2756 ,0.79692 ,3.47450 ,34.09182 
107 ,20.4674 ,0.79890 ,3.44028 ,33.75604 
108 ,20.6592 ,0.80074 ,3.43001 ,33.65530 
109 ,20.8515 ,0.80272 ,3.40606 ,33.42025 
110 ,21.0435 ,0.80464 ,3.38553 ,33.21878 
111 ,21.2356 ,0.80663 ,3.36157 ,32.98374 
112 ,21.4117 ,0.80833 ,3.34788 ,32.84942 
113 ,21.6039 ,0.81024 ,3.32735 ,32.64795 
114 ,21.7961 ,0.81212 ,3.32051 ,32.58080 
115 ,22.0039 ,0.81421 ,3.29313 ,32.31217 
116 ,22.1797 ,0.81601 ,3.29313 ,32.31217 
117 ,22.3719 ,0.81791 ,3.24180 ,31.80849 
118 ,22.5804 ,0.81989 ,3.22811 ,31.67418 
119 ,22.7723 ,0.82194 ,3.20757 ,31.47271 
120 ,22.9642 ,0.82377 ,3.17677 ,31.17051 
121 ,23.1565 ,0.82572 ,3.17677 ,31.17051 
122 ,23.3323 ,0.82753 ,3.15966 ,31.00262 
123 ,23.5245 ,0.82947 ,3.12202 ,30.63325 
124 ,23.7324 ,0.83151 ,3.10833 ,30.49894 
125 ,23.9406 ,0.83350 ,3.08438 ,30.26389 
126 ,24.1330 ,0.83554 ,3.07069 ,30.12958 
127 ,24.3090 ,0.83728 ,3.06042 ,30.02884 
128 ,24.5009 ,0.83922 ,3.03989 ,29.82737 
129 ,24.6767 ,0.84100 ,3.04331 ,29.86095 
130 ,24.8688 ,0.84286 ,3.00567 ,29.49159 
131 ,25.0453 ,0.84468 ,2.99540 ,29.39086 
132 ,25.2369 ,0.84655 ,2.97487 ,29.18939 
133 ,25.4133 ,0.84839 ,2.97144 ,29.15581 
134 ,25.6372 ,0.85045 ,2.94749 ,28.92076 
135 ,25.8136 ,0.85239 ,2.91669 ,28.61856 
136 ,26.0055 ,0.85429 ,2.88589 ,28.31635 
137 ,26.1978 ,0.85617 ,2.89616 ,28.41709 
138 ,26.3896 ,0.85812 ,2.86536 ,28.11488 
139 ,26.5977 ,0.86013 ,2.85851 ,28.04772 
140 ,26.7738 ,0.86194 ,2.83456 ,27.81268 
141 ,26.9496 ,0.86372 ,2.80376 ,27.51047 
142 ,27.1421 ,0.86558 ,2.80034 ,27.47689 
143 ,27.3339 ,0.86751 ,2.77638 ,27.24185 
144 ,27.5102 ,0.86932 ,2.75243 ,27.00680 
145 ,27.6860 ,0.87104 ,2.74216 ,26.90606 
146 ,27.8783 ,0.87287 ,2.73189 ,26.80533 
147 ,28.0540 ,0.87477 ,2.71136 ,26.60386 
148 ,28.2305 ,0.87650 ,2.69083 ,26.40239 
149 ,28.4225 ,0.87840 ,2.67714 ,26.26807 
150 ,28.6148 ,0.88032 ,2.64634 ,25.96587 
151 ,28.7908 ,0.88213 ,2.64292 ,25.93229 
152 ,28.9670 ,0.88386 ,2.61554 ,25.66367 
153 ,29.1429 ,0.88573 ,2.61896 ,25.69724 
154 ,29.3187 ,0.88743 ,2.59501 ,25.46220 
155 ,29.4947 ,0.88914 ,2.57105 ,25.22715 
156 ,29.6712 ,0.89087 ,2.54025 ,24.92494 
157 ,29.8472 ,0.89268 ,2.51972 ,24.72347 
158 ,30.0391 ,0.89450 ,2.52314 ,24.75705 
159 ,30.2472 ,0.89656 ,2.49918 ,24.52200 
160 ,30.4394 ,0.89854 ,2.49576 ,24.48842 
161 ,30.6155 ,0.90038 ,2.47181 ,24.25338 
162 ,30.7916 ,0.90215 ,2.44785 ,24.01833 
163 ,30.9835 ,0.90408 ,2.44101 ,23.95117 
164 ,31.1755 ,0.90590 ,2.41705 ,23.71612 
165 ,31.3517 ,0.90769 ,2.39310 ,23.48108 
166 ,31.5439 ,0.90959 ,2.39994 ,23.54823 
167 ,31.7199 ,0.91138 ,2.37599 ,23.31318 
168 ,31.8960 ,0.91310 ,2.35203 ,23.07814 
169 ,32.0722 ,0.91491 ,2.33492 ,22.91024 
170 ,32.2639 ,0.91679 ,2.31439 ,22.70877 
171 ,32.4403 ,0.91857 ,2.30070 ,22.57446 
172 ,32.6324 ,0.92049 ,2.27332 ,22.30584 
173 ,32.8085 ,0.92227 ,2.26648 ,22.23868 
174 ,33.0006 ,0.92415 ,2.26648 ,22.23868 
175 ,33.1926 ,0.92607 ,2.22199 ,21.80216 
176 ,33.3523 ,0.92781 ,2.21515 ,21.73500 
177 ,33.5286 ,0.92944 ,2.20146 ,21.60069 
178 ,33.7047 ,0.93119 ,2.20488 ,21.63427 
179 ,33.8810 ,0.93295 ,2.20146 ,21.60069 
180 ,34.0729 ,0.93488 ,2.16723 ,21.26491 
181 ,34.2486 ,0.93660 ,2.15012 ,21.09702 
182 ,34.4247 ,0.93842 ,2.12959 ,20.89555 
183 ,34.6008 ,0.94018 ,2.12959 ,20.89555 
184 ,34.7932 ,0.94206 ,2.09879 ,20.59334 
185 ,34.9850 ,0.94402 ,2.09879 ,20.59334 
186 ,35.1771 ,0.94590 ,2.06799 ,20.29114 
187 ,35.3692 ,0.94780 ,2.06457 ,20.25756 
188 ,35.5616 ,0.94979 ,2.05088 ,20.12325 
189 ,35.7532 ,0.95167 ,2.02008 ,19.82104 
190 ,35.9293 ,0.95345 ,1.99613 ,19.58599 
191 ,36.1055 ,0.95521 ,1.98928 ,19.51884 
192 ,36.2816 ,0.95705 ,1.98928 ,19.51884 
193 ,36.4575 ,0.95877 ,1.96190 ,19.25021 
194 ,36.6337 ,0.96049 ,1.96190 ,19.25021 
195 ,36.8739 ,0.96285 ,1.92426 ,18.88085 
196 ,37.0662 ,0.96483 ,1.91399 ,18.78011 
197 ,37.2580 ,0.96675 ,1.91742 ,18.81369 
198 ,37.4503 ,0.96865 ,1.88662 ,18.51149 
199 ,37.6262 ,0.97041 ,1.87293 ,18.37717 
200 ,37.8183 ,0.97226 ,1.84213 ,18.07497 
201 ,38.0105 ,0.97423 ,1.83528 ,18.00781 
202 ,38.2025 ,0.97613 ,1.82160 ,17.87350 
203 ,38.3948 ,0.97805 ,1.79422 ,17.60487 
204 ,38.6026 ,0.98002 ,1.78053 ,17.47056 
205 ,38.8105 ,0.98212 ,1.77711 ,17.43698 
206 ,39.0187 ,0.98421 ,1.75315 ,17.20193 
207 ,39.2107 ,0.98621 ,1.72578 ,16.93331 
208 ,39.4028 ,0.98818 ,1.71893 ,16.86615 
209 ,39.5951 ,0.99009 ,1.69840 ,16.66468 
210 ,39.7871 ,0.99198 ,1.69498 ,16.63110 
211 ,39.9790 ,0.99394 ,1.68471 ,16.53037 
212 ,40.1713 ,0.99576 ,1.65049 ,16.19458 
213 ,40.3793 ,0.99786 ,1.62995 ,15.99311 
214 ,40.5556 ,0.99972 ,1.61284 ,15.82522 
215 ,40.7476 ,1.00163 ,1.60942 ,15.79164 
216 ,40.9394 ,1.00354 ,1.61284 ,15.82522 
217 ,41.1159 ,1.00535 ,1.57520 ,15.45586 
218 ,41.3078 ,1.00714 ,1.57520 ,15.45586 
219 ,41.4840 ,1.00898 ,1.55809 ,15.28797 
220 ,41.6758 ,1.01089 ,1.53071 ,15.01934 
221 ,41.8521 ,1.01268 ,1.52045 ,14.91861 
222 ,42.0761 ,1.01482 ,1.49307 ,14.64998 
223 ,42.2843 ,1.01698 ,1.48965 ,14.61640 
224 ,42.4765 ,1.01883 ,1.46569 ,14.38136 
225 ,42.6685 ,1.02074 ,1.44858 ,14.21346 
226 ,42.8603 ,1.02271 ,1.45542 ,14.28062 
227 ,43.0363 ,1.02452 ,1.43489 ,14.07915 
228 ,43.4046 ,1.02737 ,1.41436 ,13.87768 
229 ,43.6929 ,1.03089 ,1.37671 ,13.50832 
230 ,43.8852 ,1.03291 ,1.35276 ,13.27327 
231 ,44.0612 ,1.03473 ,1.35276 ,13.27327 
232 ,44.2368 ,1.03653 ,1.32880 ,13.03822 
233 ,44.4292 ,1.03833 ,1.30143 ,12.76960 
234 ,44.6213 ,1.04030 ,1.31854 ,12.93749 
235 ,44.8134 ,1.04224 ,1.26720 ,12.43381 
236 ,44.9895 ,1.04406 ,1.27747 ,12.53455 
237 ,45.1816 ,1.04593 ,1.26378 ,12.40024 
238 ,45.3737 ,1.04787 ,1.23641 ,12.13161 
239 ,45.5660 ,1.04983 ,1.24325 ,12.19877 
240 ,45.7414 ,1.05154 ,1.20903 ,11.86298 
241 ,45.9178 ,1.05330 ,1.20218 ,11.79583 
242 ,46.1101 ,1.05523 ,1.18165 ,11.59436 
243 ,46.3020 ,1.05714 ,1.15770 ,11.35931 
244 ,46.4779 ,1.05886 ,1.15085 ,11.29215 
245 ,46.6542 ,1.06068 ,1.13032 ,11.09068 
246 ,46.8459 ,1.06256 ,1.14058 ,11.19142 
247 ,47.0060 ,1.06428 ,1.11321 ,10.92279 
248 ,47.1821 ,1.06591 ,1.09952 ,10.78848 
249 ,47.3587 ,1.06776 ,1.08925 ,10.68774 
250 ,47.5824 ,1.06974 ,1.06530 ,10.45270 
251 ,47.7747 ,1.07189 ,1.04476 ,10.25123 
252 ,47.9668 ,1.07375 ,1.05161 ,10.31838 
253 ,48.1428 ,1.07550 ,1.02765 ,10.08333 
254 ,48.3349 ,1.07748 ,0.99685 ,9.78113 
255 ,48.5106 ,1.07917 ,0.99685 ,9.78113 
256 ,48.7030 ,1.08111 ,0.98317 ,9.64682 
257 ,48.9885 ,1.08336 ,0.96605 ,9.47892 
258 ,49.3750 ,1.08710 ,0.93525 ,9.17672 
259 ,49.6150 ,1.09016 ,0.92499 ,9.07598 
260 ,49.7911 ,1.09207 ,0.90103 ,8.84094 
261 ,49.9837 ,1.09395 ,0.89419 ,8.77378 
262 ,50.1753 ,1.09589 ,0.86339 ,8.47158 
263 ,50.3513 ,1.09766 ,0.86681 ,8.50515 
264 ,50.5274 ,1.09939 ,0.85312 ,8.37084 
265 ,50.6875 ,1.10108 ,0.83943 ,8.23653 
266 ,50.8636 ,1.10274 ,0.83259 ,8.16937 
267 ,51.0395 ,1.10448 ,0.80179 ,7.86717 
268 ,51.2317 ,1.10642 ,0.79495 ,7.80001 
269 ,51.4078 ,1.10815 ,0.78810 ,7.73285 
270 ,51.5838 ,1.10994 ,0.78810 ,7.73285 
271 ,51.7600 ,1.11169 ,0.76072 ,7.46423 
272 ,51.9360 ,1.11346 ,0.74019 ,7.26276 
273 ,52.1121 ,1.11518 ,0.74019 ,7.26276 
274 ,52.2882 ,1.11698 ,0.72308 ,7.09486 
275 ,52.4482 ,1.11870 ,0.70597 ,6.92697 
276 ,52.6242 ,1.12031 ,0.69570 ,6.82624 
277 ,52.8004 ,1.12207 ,0.67175 ,6.59119 
278 ,52.9923 ,1.12391 ,0.67859 ,6.65835 
279 ,53.1685 ,1.12577 ,0.66490 ,6.52403 
280 ,53.3446 ,1.12755 ,0.65464 ,6.42330 
281 ,53.5207 ,1.12927 ,0.62726 ,6.15467 
282 ,53.6967 ,1.13106 ,0.59988 ,5.88605 
283 ,53.8728 ,1.13278 ,0.59988 ,5.88605 
284 ,54.0650 ,1.13465 ,0.59646 ,5.85247 
285 ,54.2409 ,1.13650 ,0.56224 ,5.51668 
286 ,54.4008 ,1.13823 ,0.55539 ,5.44953 
287 ,54.5930 ,1.13994 ,0.55882 ,5.48311 
288 ,54.7691 ,1.14179 ,0.54513 ,5.34879 
289 ,54.9612 ,1.14366 ,0.52117 ,5.11375 
290 ,55.1213 ,1.14545 ,0.50748 ,4.97943 
291 ,55.2975 ,1.14704 ,0.49380 ,4.84512 
292 ,55.4894 ,1.14893 ,0.49380 ,4.84512 
293 ,55.6655 ,1.15073 ,0.49722 ,4.87870 
294 ,55.8415 ,1.15252 ,0.47668 ,4.67723 
295 ,56.0176 ,1.15427 ,0.46300 ,4.54291 
296 ,56.1937 ,1.15605 ,0.44246 ,4.34144 
297 ,56.3699 ,1.15774 ,0.44931 ,4.40860 
298 ,56.5460 ,1.15953 ,0.42877 ,4.20713 
299 ,56.7059 ,1.16126 ,0.40824 ,4.00566 
300 ,56.8661 ,1.16285 ,0.39455 ,3.87135 
301 ,57.0796 ,1.16453 ,0.38429 ,3.77061 
302 ,57.4743 ,1.16795 ,0.38429 ,3.77061 
303 ,57.6665 ,1.17064 ,0.35006 ,3.43483 
304 ,57.9068 ,1.17304 ,0.30900 ,3.03189 
305 ,58.1148 ,1.17517 ,0.31926 ,3.13263 
306 ,58.3065 ,1.17718 ,0.30215 ,2.96473 
307 ,58.4986 ,1.17908 ,0.28504 ,2.79684 
308 ,58.6748 ,1.18080 ,0.27820 ,2.72969 
309 ,58.8669 ,1.18269 ,0.26109 ,2.56179 
310 ,59.0432 ,1.18450 ,0.24398 ,2.39390 
311 ,59.2192 ,1.18630 ,0.24398 ,2.39390 
312 ,59.4110 ,1.18823 ,0.24055 ,2.36032 
313 ,59.5873 ,1.18995 ,0.19949 ,1.95738 
314 ,59.7633 ,1.19173 ,0.19607 ,1.92381 
315 ,59.9396 ,1.19352 ,0.18580 ,1.82307 
316 ,60.1474 ,1.19550 ,0.17896 ,1.75592 
317 ,60.3238 ,1.19727 ,0.17553 ,1.72234 
318 ,60.4996 ,1.19906 ,0.14131 ,1.38655 
319 ,60.6760 ,1.20085 ,0.14473 ,1.42013 
320 ,60.8677 ,1.20273 ,0.14131 ,1.38655 
321 ,61.0442 ,1.20452 ,0.12420 ,1.21866 
322 ,61.2199 ,1.20626 ,0.10367 ,1.01719 
323 ,61.3963 ,1.20802 ,0.07629 ,0.74857 
324 ,61.5883 ,1.20993 ,0.08314 ,0.81572 
325 ,61.7644 ,1.21168 ,0.06602 ,0.64783 
326 ,61.9561 ,1.21363 ,0.04891 ,0.47994 
327 ,62.1322 ,1.21541 ,0.05918 ,0.58067 
328 ,62.3081 ,1.21713 ,0.04549 ,0.44636 
329 ,62.5165 ,1.21909 ,0.01127 ,0.11058 
330 ,62.7085 ,1.22107 ,0.02154 ,0.21131 
331 ,62.8844 ,1.22292 ,0.00100 ,0.00984 
332 ,63.0606 ,1.22467 ,-0.01611 ,-0.15805 
333 ,63.2530 ,1.22650 ,-0.02637 ,-0.25878 
334 ,63.4611 ,1.22865 ,-0.04691 ,-0.46025 
335 ,63.6529 ,1.23059 ,-0.02637 ,-0.25878 
336 ,63.8449 ,1.23248 ,-0.05375 ,-0.52741 
337 ,64.0213 ,1.23424 ,-0.07771 ,-0.76246 
338 ,64.2133 ,1.23623 ,-0.06744 ,-0.66172 
339 ,64.4052 ,1.23815 ,-0.09482 ,-0.93035 
340 ,64.5972 ,1.23994 ,-0.09482 ,-0.93035 
341 ,64.7732 ,1.24176 ,-0.09824 ,-0.96393 
342 ,64.9496 ,1.24353 ,-0.11535 ,-1.13182 
343 ,65.1418 ,1.24536 ,-0.14615 ,-1.43402 
344 ,65.3657 ,1.24754 ,-0.14615 ,-1.43402 
345 ,65.5419 ,1.24949 ,-0.16326 ,-1.60191 
346 ,65.7499 ,1.25140 ,-0.14957 ,-1.46760 
347 ,65.9580 ,1.25353 ,-0.18722 ,-1.83696 
348 ,66.1341 ,1.25544 ,-0.19406 ,-1.90412 
349 ,66.3258 ,1.25730 ,-0.20090 ,-1.97128 
350 ,66.5023 ,1.25908 ,-0.21117 ,-2.07201 
351 ,66.6781 ,1.26083 ,-0.21802 ,-2.13917 
352 ,66.8542 ,1.26270 ,-0.22486 ,-2.20632 
353 ,67.0626 ,1.26452 ,-0.24197 ,-2.37422 
354 ,67.2706 ,1.26665 ,-0.23513 ,-2.30706 
355 ,67.4466 ,1.26850 ,-0.26593 ,-2.60926 
356 ,67.6387 ,1.27041 ,-0.26593 ,-2.60926 
357 ,67.8309 ,1.27233 ,-0.27277 ,-2.67642 
358 ,68.0230 ,1.27420 ,-0.29673 ,-2.91147 
359 ,68.1991 ,1.27609 ,-0.30699 ,-3.01220 
360 ,68.3750 ,1.27790 ,-0.31041 ,-3.04578 
361 ,68.5670 ,1.27960 ,-0.30699 ,-3.01220 
362 ,68.7753 ,1.28167 ,-0.34121 ,-3.34799 
363 ,68.9671 ,1.28370 ,-0.34121 ,-3.34799 
364 ,69.1595 ,1.28561 ,-0.35148 ,-3.44872 
365 ,69.3511 ,1.28756 ,-0.37201 ,-3.65019 
366 ,69.5435 ,1.28941 ,-0.37544 ,-3.68377 
367 ,69.7196 ,1.29122 ,-0.39255 ,-3.85166 
368 ,69.9117 ,1.29301 ,-0.38570 ,-3.78450 
369 ,70.0873 ,1.29492 ,-0.40623 ,-3.98597 
370 ,70.2638 ,1.29669 ,-0.43703 ,-4.28818 
371 ,70.4400 ,1.29838 ,-0.41992 ,-4.12029 
372 ,70.6160 ,1.30017 ,-0.43361 ,-4.25460 
373 ,70.8082 ,1.30214 ,-0.45757 ,-4.48965 
374 ,71.0160 ,1.30410 ,-0.46441 ,-4.55681 
375 ,71.1920 ,1.30590 ,-0.46099 ,-4.52323 
376 ,71.3687 ,1.30769 ,-0.49521 ,-4.85901 
377 ,71.5603 ,1.30966 ,-0.48837 ,-4.79185 
378 ,71.7693 ,1.31158 ,-0.47126 ,-4.62396 
379 ,71.9762 ,1.31370 ,-0.51574 ,-5.06048 
380 ,72.1683 ,1.31571 ,-0.52943 ,-5.19479 
381 ,72.3448 ,1.31746 ,-0.55339 ,-5.42984 
382 ,72.5368 ,1.31937 ,-0.54997 ,-5.39626 
383 ,72.7610 ,1.32154 ,-0.55681 ,-5.46342 
384 ,72.9845 ,1.32372 ,-0.55681 ,-5.46342 
385 ,73.1927 ,1.32595 ,-0.58077 ,-5.69847 
386 ,73.4169 ,1.32815 ,-0.59788 ,-5.86636 
387 ,73.6408 ,1.33031 ,-0.61156 ,-6.00067 
388 ,73.8492 ,1.33237 ,-0.62525 ,-6.13499 
389 ,74.0412 ,1.33445 ,-0.63552 ,-6.23572 
390 ,74.2493 ,1.33643 ,-0.64579 ,-6.33646 
391 ,74.4414 ,1.33837 ,-0.65263 ,-6.40361 
392 ,74.6496 ,1.34043 ,-0.66290 ,-6.50435 
393 ,74.8416 ,1.34239 ,-0.66290 ,-6.50435 
394 ,75.0177 ,1.34420 ,-0.67659 ,-6.63866 
395 ,75.1777 ,1.34588 ,-0.68001 ,-6.67224 
396 ,75.3696 ,1.34760 ,-0.69370 ,-6.80655 
397 ,75.5621 ,1.34957 ,-0.71765 ,-7.04160 
398 ,75.7699 ,1.35165 ,-0.72792 ,-7.14233 
399 ,75.9622 ,1.35362 ,-0.73134 ,-7.17591 
400 ,76.1541 ,1.35554 ,-0.73476 ,-7.20949 
401 ,76.3299 ,1.35732 ,-0.75872 ,-7.44454 
402 ,76.5222 ,1.35916 ,-0.74845 ,-7.34380 
403 ,76.6824 ,1.36093 ,-0.75187 ,-7.37738 
404 ,76.8591 ,1.36260 ,-0.76556 ,-7.51170 
405 ,77.0503 ,1.36451 ,-0.77925 ,-7.64601 
406 ,77.2265 ,1.36630 ,-0.78952 ,-7.74674 
407 ,77.4030 ,1.36799 ,-0.79636 ,-7.81390 
408 ,77.5946 ,1.36991 ,-0.80663 ,-7.91464 
409 ,77.7870 ,1.37182 ,-0.81689 ,-8.01537 
410 ,77.9628 ,1.37367 ,-0.83401 ,-8.18326 
411 ,78.1390 ,1.37539 ,-0.82716 ,-8.11611 
412 ,78.3309 ,1.37732 ,-0.84769 ,-8.31758 
413 ,78.5232 ,1.37927 ,-0.84427 ,-8.28400 
414 ,78.7629 ,1.38162 ,-0.87165 ,-8.55262 
415 ,78.9391 ,1.38337 ,-0.86481 ,-8.48547 
416 ,79.1152 ,1.38513 ,-0.87165 ,-8.55262 
417 ,79.2911 ,1.38691 ,-0.89903 ,-8.82125 
418 ,79.4677 ,1.38864 ,-0.91614 ,-8.98914 
419 ,79.6435 ,1.39048 ,-0.90245 ,-8.85483 
420 ,79.8358 ,1.39233 ,-0.89903 ,-8.82125 
421 ,80.0118 ,1.39412 ,-0.91614 ,-8.98914 
422 ,80.2040 ,1.39608 ,-0.93325 ,-9.15703 
423 ,80.3958 ,1.39796 ,-0.93667 ,-9.19061 
424 ,80.5720 ,1.39973 ,-0.95378 ,-9.35850 
425 ,80.7478 ,1.40145 ,-0.96063 ,-9.42566 
426 ,80.9241 ,1.40326 ,-0.96747 ,-9.49282 
427 ,81.1159 ,1.40520 ,-0.99143 ,-9.72786 
428 ,81.2920 ,1.40689 ,-0.99143 ,-9.72786 
429 ,81.4682 ,1.40865 ,-0.99827 ,-9.79502 
430 ,81.6601 ,1.41051 ,-1.00854 ,-9.89576 
431 ,81.8361 ,1.41237 ,-1.00511 ,-9.86218 
432 ,82.0122 ,1.41411 ,-1.01880 ,-9.99649 
433 ,82.1726 ,1.41583 ,-1.04618 ,-10.26512 
434 ,82.3484 ,1.41743 ,-1.04960 ,-10.29869 
435 ,82.5246 ,1.41919 ,-1.03249 ,-10.13080 
436 ,82.7005 ,1.42100 ,-1.05645 ,-10.36585 
437 ,82.8767 ,1.42269 ,-1.05302 ,-10.33227 
438 ,83.0691 ,1.42459 ,-1.07014 ,-10.50016 
439 ,83.2613 ,1.42663 ,-1.07014 ,-10.50016 
440 ,83.4532 ,1.42840 ,-1.07356 ,-10.53374 
441 ,83.6453 ,1.43042 ,-1.08382 ,-10.63448 
442 ,83.8209 ,1.43218 ,-1.08725 ,-10.66806 
443 ,84.0290 ,1.43410 ,-1.11462 ,-10.93668 
444 ,84.2211 ,1.43623 ,-1.12489 ,-11.03742 
445 ,84.3812 ,1.43792 ,-1.11805 ,-10.97026 
446 ,84.5573 ,1.43957 ,-1.12147 ,-11.00384 
447 ,84.7334 ,1.44129 ,-1.13516 ,-11.13815 
448 ,84.9936 ,1.44340 ,-1.14200 ,-11.20531 
449 ,85.2455 ,1.44627 ,-1.14884 ,-11.27247 
450 ,85.4376 ,1.44829 ,-1.17622 ,-11.54109 
451 ,85.6296 ,1.45027 ,-1.18991 ,-11.67541 
452 ,85.8059 ,1.45203 ,-1.18649 ,-11.64183 
453 ,86.0300 ,1.45423 ,-1.19676 ,-11.74256 
454 ,86.2059 ,1.45603 ,-1.21044 ,-11.87688 
455 ,86.3820 ,1.45776 ,-1.21387 ,-11.91045 
456 ,86.5582 ,1.45955 ,-1.22071 ,-11.97761 
457 ,86.7826 ,1.46171 ,-1.22413 ,-12.01119 
458 ,86.9745 ,1.46372 ,-1.23440 ,-12.11192 
459 ,87.1665 ,1.46565 ,-1.23440 ,-12.11192 
460 ,87.3746 ,1.46757 ,-1.26178 ,-12.38055 
461 ,87.5829 ,1.46976 ,-1.25151 ,-12.27981 
