Data stamp = , 05-04-2022 12:32:28 160

Calibration Values: 
Slope = , 26.54 , g/V 
Offset Voltage at no contact = , -0.501760 , V 

No , Time , Stage Position ,   Mass , Force 
   ,  (s) ,      (mm)      ,   (g)  , (mN)  

1 ,0.0000 ,0.59946 ,4.93577 ,48.42975 
2 ,0.2204 ,0.59955 ,4.95972 ,48.66480 
3 ,0.5409 ,0.60041 ,4.95288 ,48.59764 
4 ,0.7651 ,0.60203 ,4.93577 ,48.42975 
5 ,0.9409 ,0.60363 ,4.91866 ,48.26186 
6 ,1.1491 ,0.60559 ,4.93235 ,48.39618 
7 ,1.3252 ,0.60739 ,4.94261 ,48.49691 
8 ,1.5334 ,0.60946 ,4.94603 ,48.53049 
9 ,1.7253 ,0.61142 ,4.94603 ,48.53049 
10 ,1.9015 ,0.61321 ,4.91866 ,48.26186 
11 ,2.0934 ,0.61503 ,4.91523 ,48.22828 
12 ,2.2856 ,0.61704 ,4.89812 ,48.06039 
13 ,2.4618 ,0.61883 ,4.88101 ,47.89250 
14 ,2.6379 ,0.62058 ,4.87759 ,47.85892 
15 ,2.8137 ,0.62233 ,4.85021 ,47.59030 
16 ,2.9897 ,0.62407 ,4.85021 ,47.59030 
17 ,3.1821 ,0.62592 ,4.86732 ,47.75819 
18 ,3.3581 ,0.62781 ,4.84337 ,47.52314 
19 ,3.5339 ,0.62953 ,4.78861 ,46.98589 
20 ,3.7103 ,0.63125 ,4.82626 ,47.35525 
21 ,3.9024 ,0.63315 ,4.75439 ,46.65010 
22 ,4.0945 ,0.63514 ,4.74070 ,46.51579 
23 ,4.2705 ,0.63694 ,4.77493 ,46.85157 
24 ,4.4304 ,0.63858 ,4.72017 ,46.31432 
25 ,4.6066 ,0.64020 ,4.73386 ,46.44863 
26 ,4.7827 ,0.64202 ,4.70990 ,46.21359 
27 ,4.9587 ,0.64377 ,4.67226 ,45.84422 
28 ,5.1509 ,0.64561 ,4.67911 ,45.91138 
29 ,5.3266 ,0.64746 ,4.64831 ,45.60918 
30 ,5.5027 ,0.64920 ,4.64146 ,45.54202 
31 ,5.6946 ,0.65108 ,4.61066 ,45.23981 
32 ,5.8707 ,0.65290 ,4.59013 ,45.03835 
33 ,6.0630 ,0.65473 ,4.56960 ,44.83688 
34 ,6.2554 ,0.65677 ,4.54906 ,44.63541 
35 ,6.4471 ,0.65861 ,4.54564 ,44.60183 
36 ,6.6393 ,0.66049 ,4.52853 ,44.43394 
37 ,6.8316 ,0.66244 ,4.49431 ,44.09815 
38 ,7.0235 ,0.66431 ,4.49089 ,44.06457 
39 ,7.2157 ,0.66631 ,4.48062 ,43.96384 
40 ,7.3916 ,0.66810 ,4.43955 ,43.56090 
41 ,7.5678 ,0.66989 ,4.44298 ,43.59448 
42 ,7.7439 ,0.67160 ,4.42244 ,43.39301 
43 ,7.9199 ,0.67333 ,4.39849 ,43.15796 
44 ,8.0961 ,0.67513 ,4.38480 ,43.02365 
45 ,8.2722 ,0.67690 ,4.35058 ,42.68786 
46 ,8.4321 ,0.67861 ,4.36769 ,42.85576 
47 ,8.6079 ,0.68023 ,4.34373 ,42.62071 
48 ,8.7843 ,0.68202 ,4.33347 ,42.51997 
49 ,8.9604 ,0.68374 ,4.31293 ,42.31850 
50 ,9.1524 ,0.68566 ,4.29924 ,42.18419 
51 ,9.3287 ,0.68744 ,4.28556 ,42.04988 
52 ,9.5046 ,0.68918 ,4.27529 ,41.94914 
53 ,9.6964 ,0.69106 ,4.24791 ,41.68051 
54 ,9.8727 ,0.69291 ,4.23080 ,41.51262 
55 ,10.0489 ,0.69463 ,4.21711 ,41.37831 
56 ,10.2409 ,0.69649 ,4.20342 ,41.24400 
57 ,10.4167 ,0.69834 ,4.18974 ,41.10968 
58 ,10.5928 ,0.70009 ,4.15551 ,40.77390 
59 ,10.7687 ,0.70189 ,4.15551 ,40.77390 
60 ,10.9452 ,0.70365 ,4.14867 ,40.70674 
61 ,11.1371 ,0.70554 ,4.11787 ,40.40454 
62 ,11.3133 ,0.70729 ,4.09391 ,40.16949 
63 ,11.5214 ,0.70932 ,4.10418 ,40.27023 
64 ,11.7134 ,0.71130 ,4.05969 ,39.83371 
65 ,11.8893 ,0.71301 ,4.05627 ,39.80013 
66 ,12.0654 ,0.71484 ,4.04600 ,39.69940 
67 ,12.2416 ,0.71653 ,4.03574 ,39.59866 
68 ,12.4176 ,0.71831 ,4.00494 ,39.29646 
69 ,12.5938 ,0.72006 ,3.97072 ,38.96067 
70 ,12.7858 ,0.72197 ,3.96387 ,38.89352 
71 ,12.9459 ,0.72372 ,3.96729 ,38.92709 
72 ,13.1380 ,0.72550 ,3.92965 ,38.55773 
73 ,13.3302 ,0.72750 ,3.91254 ,38.38984 
74 ,13.5061 ,0.72919 ,3.91254 ,38.38984 
75 ,13.6820 ,0.73099 ,3.88858 ,38.15479 
76 ,13.8743 ,0.73289 ,3.85094 ,37.78543 
77 ,14.0504 ,0.73471 ,3.84410 ,37.71828 
78 ,14.2263 ,0.73642 ,3.83383 ,37.61754 
79 ,14.4024 ,0.73816 ,3.82699 ,37.55038 
80 ,14.5785 ,0.74000 ,3.80645 ,37.34891 
81 ,14.7548 ,0.74172 ,3.78934 ,37.18102 
82 ,14.9468 ,0.74354 ,3.78250 ,37.11387 
83 ,15.1389 ,0.74547 ,3.74828 ,36.77808 
84 ,15.3309 ,0.74743 ,3.73459 ,36.64377 
85 ,15.5071 ,0.74918 ,3.71063 ,36.40872 
86 ,15.6990 ,0.75108 ,3.70037 ,36.30799 
87 ,15.8751 ,0.75289 ,3.69010 ,36.20725 
88 ,16.0349 ,0.75461 ,3.65930 ,35.90505 
89 ,16.2112 ,0.75630 ,3.64561 ,35.77073 
90 ,16.4033 ,0.75822 ,3.64561 ,35.77073 
91 ,16.5955 ,0.76003 ,3.61481 ,35.46853 
92 ,16.7872 ,0.76198 ,3.60112 ,35.33422 
93 ,16.9637 ,0.76379 ,3.59770 ,35.30064 
94 ,17.1393 ,0.76555 ,3.57375 ,35.06559 
95 ,17.3157 ,0.76730 ,3.56348 ,34.96485 
96 ,17.4917 ,0.76906 ,3.52584 ,34.59549 
97 ,17.6838 ,0.77095 ,3.53268 ,34.66265 
98 ,17.8599 ,0.77275 ,3.51215 ,34.46118 
99 ,18.0517 ,0.77466 ,3.48477 ,34.19255 
100 ,18.2279 ,0.77640 ,3.47108 ,34.05824 
101 ,18.3881 ,0.77810 ,3.46766 ,34.02466 
102 ,18.5640 ,0.77978 ,3.44028 ,33.75604 
103 ,18.7403 ,0.78151 ,3.44370 ,33.78961 
104 ,18.9165 ,0.78328 ,3.40948 ,33.45383 
105 ,19.0923 ,0.78510 ,3.37526 ,33.11805 
106 ,19.2845 ,0.78695 ,3.39579 ,33.31952 
107 ,19.4445 ,0.78867 ,3.36842 ,33.05089 
108 ,19.6205 ,0.79027 ,3.35815 ,32.95016 
109 ,19.7968 ,0.79208 ,3.32393 ,32.61437 
110 ,19.9888 ,0.79397 ,3.31366 ,32.51364 
111 ,20.1647 ,0.79580 ,3.29655 ,32.34575 
112 ,20.3570 ,0.79765 ,3.27259 ,32.11070 
113 ,20.5491 ,0.79957 ,3.24864 ,31.87565 
114 ,20.7566 ,0.80154 ,3.24864 ,31.87565 
115 ,20.9328 ,0.80346 ,3.22811 ,31.67418 
116 ,21.0928 ,0.80517 ,3.20415 ,31.43913 
117 ,21.2691 ,0.80680 ,3.19388 ,31.33840 
118 ,21.4774 ,0.80887 ,3.18362 ,31.23766 
119 ,21.6695 ,0.81084 ,3.15282 ,30.93546 
120 ,21.8457 ,0.81254 ,3.14940 ,30.90188 
121 ,22.0216 ,0.81437 ,3.14255 ,30.83472 
122 ,22.1977 ,0.81613 ,3.11860 ,30.59968 
123 ,22.3895 ,0.81797 ,3.08438 ,30.26389 
124 ,22.5658 ,0.81979 ,3.08095 ,30.23031 
125 ,22.7740 ,0.82181 ,3.05700 ,29.99527 
126 ,22.9499 ,0.82364 ,3.04331 ,29.86095 
127 ,23.1421 ,0.82555 ,3.03989 ,29.82737 
128 ,23.3182 ,0.82727 ,3.01935 ,29.62590 
129 ,23.5262 ,0.82935 ,3.00224 ,29.45801 
130 ,23.7343 ,0.83132 ,2.98171 ,29.25654 
131 ,23.9265 ,0.83336 ,2.97144 ,29.15581 
132 ,24.1025 ,0.83518 ,2.94749 ,28.92076 
133 ,24.2942 ,0.83705 ,2.93380 ,28.78645 
134 ,24.4543 ,0.83878 ,2.89616 ,28.41709 
135 ,24.6304 ,0.84041 ,2.89273 ,28.38351 
136 ,24.8069 ,0.84216 ,2.86878 ,28.14846 
137 ,24.9989 ,0.84411 ,2.87220 ,28.18204 
138 ,25.1910 ,0.84594 ,2.85167 ,27.98057 
139 ,25.3991 ,0.84802 ,2.83114 ,27.77910 
140 ,25.6070 ,0.85022 ,2.80376 ,27.51047 
141 ,25.7832 ,0.85196 ,2.78322 ,27.30900 
142 ,25.9593 ,0.85376 ,2.78322 ,27.30900 
143 ,26.1354 ,0.85545 ,2.75927 ,27.07395 
144 ,26.3115 ,0.85722 ,2.73874 ,26.87248 
145 ,26.4876 ,0.85894 ,2.72847 ,26.77175 
146 ,26.6634 ,0.86076 ,2.72505 ,26.73817 
147 ,26.8234 ,0.86244 ,2.70109 ,26.50312 
148 ,26.9998 ,0.86408 ,2.69083 ,26.40239 
149 ,27.1759 ,0.86586 ,2.68056 ,26.30165 
150 ,27.3520 ,0.86764 ,2.64634 ,25.96587 
151 ,27.5277 ,0.86940 ,2.62923 ,25.79798 
152 ,27.7040 ,0.87127 ,2.63265 ,25.83156 
153 ,27.8802 ,0.87292 ,2.60527 ,25.56293 
154 ,28.0561 ,0.87465 ,2.60185 ,25.52935 
155 ,28.2323 ,0.87644 ,2.57105 ,25.22715 
156 ,28.4243 ,0.87831 ,2.56763 ,25.19357 
157 ,28.6005 ,0.88009 ,2.55394 ,25.05926 
158 ,28.7765 ,0.88189 ,2.51972 ,24.72347 
159 ,28.9525 ,0.88359 ,2.50945 ,24.62274 
160 ,29.1284 ,0.88533 ,2.48207 ,24.35411 
161 ,29.3048 ,0.88716 ,2.48207 ,24.35411 
162 ,29.5125 ,0.88905 ,2.44443 ,23.98475 
163 ,29.6887 ,0.89102 ,2.44785 ,24.01833 
164 ,29.8808 ,0.89288 ,2.44785 ,24.01833 
165 ,30.0728 ,0.89481 ,2.41363 ,23.68255 
166 ,30.2649 ,0.89664 ,2.39994 ,23.54823 
167 ,30.4411 ,0.89847 ,2.38283 ,23.38034 
168 ,30.6172 ,0.90022 ,2.36572 ,23.21245 
169 ,30.7933 ,0.90204 ,2.35203 ,23.07814 
170 ,30.9854 ,0.90390 ,2.33492 ,22.91024 
171 ,31.1771 ,0.90589 ,2.33150 ,22.87667 
172 ,31.3534 ,0.90761 ,2.30070 ,22.57446 
173 ,31.5296 ,0.90937 ,2.27674 ,22.33941 
174 ,31.7053 ,0.91118 ,2.28017 ,22.37299 
175 ,31.8656 ,0.91282 ,2.26306 ,22.20510 
176 ,32.0416 ,0.91450 ,2.24252 ,22.00363 
177 ,32.2338 ,0.91642 ,2.22883 ,21.86932 
178 ,32.4099 ,0.91816 ,2.20830 ,21.66785 
179 ,32.6178 ,0.92014 ,2.19803 ,21.56711 
180 ,32.7939 ,0.92205 ,2.18092 ,21.39922 
181 ,32.9858 ,0.92389 ,2.16039 ,21.19775 
182 ,33.1622 ,0.92571 ,2.14328 ,21.02986 
183 ,33.3702 ,0.92778 ,2.14328 ,21.02986 
184 ,33.5464 ,0.92954 ,2.10564 ,20.66050 
185 ,33.7542 ,0.93158 ,2.11590 ,20.76123 
186 ,33.9305 ,0.93345 ,2.08510 ,20.45903 
187 ,34.1065 ,0.93510 ,2.06799 ,20.29114 
188 ,34.2986 ,0.93696 ,2.05773 ,20.19040 
189 ,34.4749 ,0.93881 ,2.03719 ,19.98893 
190 ,34.6668 ,0.94071 ,2.01666 ,19.78746 
191 ,34.8589 ,0.94269 ,2.01324 ,19.75388 
192 ,35.0667 ,0.94469 ,1.97559 ,19.38452 
193 ,35.2431 ,0.94646 ,1.95848 ,19.21663 
194 ,35.4351 ,0.94843 ,1.95506 ,19.18305 
195 ,35.6112 ,0.95022 ,1.92768 ,18.91443 
196 ,35.7873 ,0.95194 ,1.91399 ,18.78011 
197 ,35.9633 ,0.95372 ,1.90031 ,18.64580 
198 ,36.1391 ,0.95544 ,1.90373 ,18.67938 
199 ,36.3160 ,0.95724 ,1.88662 ,18.51149 
200 ,36.4916 ,0.95901 ,1.85582 ,18.20928 
201 ,36.6836 ,0.96092 ,1.83871 ,18.04139 
202 ,36.8594 ,0.96267 ,1.83528 ,18.00781 
203 ,37.0358 ,0.96439 ,1.82160 ,17.87350 
204 ,37.2115 ,0.96617 ,1.80106 ,17.67203 
205 ,37.4039 ,0.96806 ,1.78395 ,17.50414 
206 ,37.5958 ,0.97002 ,1.77711 ,17.43698 
207 ,37.7721 ,0.97178 ,1.74631 ,17.13478 
208 ,37.9641 ,0.97373 ,1.72920 ,16.96689 
209 ,38.1402 ,0.97543 ,1.72578 ,16.93331 
210 ,38.3478 ,0.97742 ,1.70866 ,16.76542 
211 ,38.5243 ,0.97926 ,1.68813 ,16.56395 
212 ,38.7004 ,0.98107 ,1.68471 ,16.53037 
213 ,38.8765 ,0.98290 ,1.65049 ,16.19458 
214 ,39.0846 ,0.98474 ,1.64022 ,16.09385 
215 ,39.2927 ,0.98685 ,1.61969 ,15.89238 
216 ,39.4847 ,0.98886 ,1.60258 ,15.72449 
217 ,39.6767 ,0.99074 ,1.60600 ,15.75807 
218 ,39.8529 ,0.99261 ,1.59231 ,15.62375 
219 ,40.0450 ,0.99449 ,1.56151 ,15.32155 
220 ,40.2209 ,0.99631 ,1.55809 ,15.28797 
221 ,40.4129 ,0.99816 ,1.53071 ,15.01934 
222 ,40.6052 ,1.00007 ,1.51018 ,14.81787 
223 ,40.8129 ,1.00210 ,1.51360 ,14.85145 
224 ,40.9894 ,1.00396 ,1.48622 ,14.58283 
225 ,41.1814 ,1.00576 ,1.47938 ,14.51567 
226 ,41.3575 ,1.00764 ,1.47938 ,14.51567 
227 ,41.5496 ,1.00947 ,1.43831 ,14.11273 
228 ,41.7257 ,1.01128 ,1.41778 ,13.91126 
229 ,41.9017 ,1.01309 ,1.40409 ,13.77695 
230 ,42.0777 ,1.01482 ,1.41094 ,13.84410 
231 ,42.2535 ,1.01657 ,1.39725 ,13.70979 
232 ,42.4300 ,1.01832 ,1.36303 ,13.37401 
233 ,42.6218 ,1.02032 ,1.33907 ,13.13896 
234 ,42.8139 ,1.02214 ,1.35276 ,13.27327 
235 ,42.9901 ,1.02396 ,1.33223 ,13.07180 
236 ,43.1823 ,1.02586 ,1.31169 ,12.87033 
237 ,43.3742 ,1.02768 ,1.30143 ,12.76960 
238 ,43.5504 ,1.02953 ,1.29458 ,12.70244 
239 ,43.7583 ,1.03157 ,1.27405 ,12.50097 
240 ,43.9504 ,1.03352 ,1.26036 ,12.36666 
241 ,44.1586 ,1.03552 ,1.23641 ,12.13161 
242 ,44.3507 ,1.03750 ,1.22614 ,12.03088 
243 ,44.5427 ,1.03935 ,1.20561 ,11.82941 
244 ,44.7348 ,1.04129 ,1.19876 ,11.76225 
245 ,44.9268 ,1.04327 ,1.17823 ,11.56078 
246 ,45.1029 ,1.04507 ,1.15427 ,11.32573 
247 ,45.2790 ,1.04680 ,1.14401 ,11.22500 
248 ,45.4712 ,1.04862 ,1.16112 ,11.39289 
249 ,45.6473 ,1.05050 ,1.12005 ,10.98995 
250 ,45.8230 ,1.05238 ,1.10294 ,10.82206 
251 ,46.0314 ,1.05421 ,1.08925 ,10.68774 
252 ,46.2233 ,1.05617 ,1.07899 ,10.58701 
253 ,46.3996 ,1.05810 ,1.05845 ,10.38554 
254 ,46.5917 ,1.05992 ,1.05503 ,10.35196 
255 ,46.7833 ,1.06187 ,1.03108 ,10.11691 
256 ,46.9598 ,1.06359 ,1.02423 ,10.04976 
257 ,47.1519 ,1.06556 ,1.02423 ,10.04976 
258 ,47.3438 ,1.06747 ,0.97974 ,9.61324 
259 ,47.5198 ,1.06919 ,0.97632 ,9.57966 
260 ,47.6960 ,1.07100 ,0.96948 ,9.51250 
261 ,47.8878 ,1.07282 ,0.95237 ,9.34461 
262 ,48.0800 ,1.07470 ,0.92841 ,9.10956 
263 ,48.2561 ,1.07659 ,0.92841 ,9.10956 
264 ,48.4801 ,1.07858 ,0.92157 ,9.04241 
265 ,48.6723 ,1.08065 ,0.90103 ,8.84094 
266 ,48.8324 ,1.08245 ,0.88734 ,8.70662 
267 ,49.0244 ,1.08423 ,0.86681 ,8.50515 
268 ,49.2163 ,1.08619 ,0.85654 ,8.40442 
269 ,49.3925 ,1.08795 ,0.84970 ,8.33726 
270 ,49.5843 ,1.08984 ,0.80863 ,7.93432 
271 ,49.7608 ,1.09158 ,0.81548 ,8.00148 
272 ,49.9365 ,1.09340 ,0.80863 ,7.93432 
273 ,50.1130 ,1.09516 ,0.78810 ,7.73285 
274 ,50.3210 ,1.09716 ,0.75730 ,7.43065 
275 ,50.4971 ,1.09900 ,0.75388 ,7.39707 
276 ,50.6733 ,1.10073 ,0.76415 ,7.49780 
277 ,50.8652 ,1.10268 ,0.72308 ,7.09486 
278 ,51.0409 ,1.10439 ,0.70597 ,6.92697 
279 ,51.2172 ,1.10614 ,0.70255 ,6.89340 
280 ,51.4094 ,1.10803 ,0.69228 ,6.79266 
281 ,51.6015 ,1.10994 ,0.66148 ,6.49046 
282 ,51.7935 ,1.11194 ,0.66148 ,6.49046 
283 ,51.9698 ,1.11366 ,0.64779 ,6.35614 
284 ,52.1617 ,1.11563 ,0.60330 ,5.91962 
285 ,52.3538 ,1.11748 ,0.62384 ,6.12109 
286 ,52.5299 ,1.11927 ,0.60673 ,5.95320 
287 ,52.7221 ,1.12114 ,0.57593 ,5.65100 
288 ,52.9300 ,1.12324 ,0.57593 ,5.65100 
289 ,53.1220 ,1.12510 ,0.55882 ,5.48311 
290 ,53.3143 ,1.12711 ,0.55539 ,5.44953 
291 ,53.4902 ,1.12899 ,0.53486 ,5.24806 
292 ,53.6663 ,1.13067 ,0.53828 ,5.28164 
293 ,53.8422 ,1.13242 ,0.50748 ,4.97943 
294 ,54.0346 ,1.13421 ,0.49722 ,4.87870 
295 ,54.2264 ,1.13625 ,0.49722 ,4.87870 
296 ,54.4028 ,1.13799 ,0.46984 ,4.61007 
297 ,54.5944 ,1.13987 ,0.47668 ,4.67723 
298 ,54.7709 ,1.14170 ,0.45957 ,4.50934 
299 ,54.9628 ,1.14363 ,0.43562 ,4.27429 
300 ,55.1389 ,1.14530 ,0.41509 ,4.07282 
301 ,55.2987 ,1.14710 ,0.41851 ,4.10640 
302 ,55.4911 ,1.14879 ,0.39455 ,3.87135 
303 ,55.6671 ,1.15068 ,0.37744 ,3.70346 
304 ,55.8433 ,1.15239 ,0.36033 ,3.53557 
305 ,56.0354 ,1.15427 ,0.36033 ,3.53557 
306 ,56.2112 ,1.15612 ,0.35691 ,3.50199 
307 ,56.3872 ,1.15781 ,0.34664 ,3.40125 
308 ,56.5633 ,1.15960 ,0.31926 ,3.13263 
309 ,56.7397 ,1.16142 ,0.30558 ,2.99831 
310 ,56.9154 ,1.16314 ,0.28847 ,2.83042 
311 ,57.1079 ,1.16504 ,0.30215 ,2.96473 
312 ,57.2996 ,1.16688 ,0.27135 ,2.66253 
313 ,57.4760 ,1.16873 ,0.25424 ,2.49464 
314 ,57.6680 ,1.17064 ,0.24740 ,2.42748 
315 ,57.8602 ,1.17247 ,0.23029 ,2.25959 
316 ,58.0522 ,1.17450 ,0.24055 ,2.36032 
317 ,58.2282 ,1.17623 ,0.20633 ,2.02454 
318 ,58.4044 ,1.17806 ,0.19607 ,1.92381 
319 ,58.5965 ,1.17989 ,0.18580 ,1.82307 
320 ,58.7885 ,1.18186 ,0.17553 ,1.72234 
321 ,58.9806 ,1.18364 ,0.16185 ,1.58802 
322 ,59.1567 ,1.18553 ,0.14473 ,1.42013 
323 ,59.3329 ,1.18730 ,0.13789 ,1.35298 
324 ,59.5244 ,1.18915 ,0.10709 ,1.05077 
325 ,59.7010 ,1.19095 ,0.08998 ,0.88288 
326 ,59.8770 ,1.19273 ,0.07629 ,0.74857 
327 ,60.0532 ,1.19451 ,0.08998 ,0.88288 
328 ,60.2291 ,1.19625 ,0.08998 ,0.88288 
329 ,60.4051 ,1.19802 ,0.07287 ,0.71499 
330 ,60.5810 ,1.19974 ,0.03522 ,0.34563 
331 ,60.7572 ,1.20154 ,0.03180 ,0.31205 
332 ,60.9334 ,1.20333 ,0.01469 ,0.14416 
333 ,61.1095 ,1.20511 ,0.01811 ,0.17773 
334 ,61.2856 ,1.20683 ,0.01469 ,0.14416 
335 ,61.4618 ,1.20861 ,-0.01611 ,-0.15805 
336 ,61.6374 ,1.21034 ,-0.02295 ,-0.22520 
337 ,61.8138 ,1.21213 ,-0.04348 ,-0.42667 
338 ,62.0056 ,1.21398 ,-0.05717 ,-0.56099 
339 ,62.1820 ,1.21579 ,-0.06060 ,-0.59457 
340 ,62.3578 ,1.21751 ,-0.06402 ,-0.62814 
341 ,62.5500 ,1.21938 ,-0.07086 ,-0.69530 
342 ,62.7258 ,1.22123 ,-0.08797 ,-0.86319 
343 ,62.9022 ,1.22299 ,-0.08797 ,-0.86319 
344 ,63.0940 ,1.22492 ,-0.12562 ,-1.23255 
345 ,63.2704 ,1.22669 ,-0.11535 ,-1.13182 
346 ,63.4785 ,1.22866 ,-0.13931 ,-1.36687 
347 ,63.6545 ,1.23051 ,-0.15984 ,-1.56834 
348 ,63.8142 ,1.23219 ,-0.14615 ,-1.43402 
349 ,63.9908 ,1.23388 ,-0.16668 ,-1.63549 
350 ,64.1668 ,1.23566 ,-0.17011 ,-1.66907 
351 ,64.3587 ,1.23745 ,-0.19406 ,-1.90412 
352 ,64.5669 ,1.23962 ,-0.19406 ,-1.90412 
353 ,64.7588 ,1.24153 ,-0.21802 ,-2.13917 
354 ,64.9348 ,1.24324 ,-0.22828 ,-2.23990 
355 ,65.1112 ,1.24503 ,-0.23170 ,-2.27348 
356 ,65.3191 ,1.24708 ,-0.25566 ,-2.50853 
357 ,65.4950 ,1.24889 ,-0.26935 ,-2.64284 
358 ,65.6713 ,1.25069 ,-0.26250 ,-2.57569 
359 ,65.8634 ,1.25252 ,-0.29673 ,-2.91147 
360 ,66.0231 ,1.25426 ,-0.29673 ,-2.91147 
361 ,66.1997 ,1.25592 ,-0.30699 ,-3.01220 
362 ,66.3917 ,1.25790 ,-0.31041 ,-3.04578 
363 ,66.5835 ,1.25971 ,-0.32410 ,-3.18010 
364 ,66.7598 ,1.26159 ,-0.32752 ,-3.21367 
365 ,66.9517 ,1.26351 ,-0.33779 ,-3.31441 
366 ,67.1440 ,1.26535 ,-0.34806 ,-3.41514 
367 ,67.3198 ,1.26718 ,-0.36175 ,-3.54946 
368 ,67.5121 ,1.26906 ,-0.37886 ,-3.71735 
369 ,67.7039 ,1.27099 ,-0.38570 ,-3.78450 
370 ,67.8802 ,1.27275 ,-0.38912 ,-3.81808 
371 ,68.0559 ,1.27447 ,-0.40623 ,-3.98597 
372 ,68.2324 ,1.27625 ,-0.42335 ,-4.15387 
373 ,68.4244 ,1.27823 ,-0.42677 ,-4.18744 
374 ,68.6006 ,1.27989 ,-0.43703 ,-4.28818 
375 ,68.7927 ,1.28179 ,-0.44730 ,-4.38891 
376 ,68.9686 ,1.28364 ,-0.45072 ,-4.42249 
377 ,69.1444 ,1.28545 ,-0.47468 ,-4.65754 
378 ,69.3209 ,1.28721 ,-0.46441 ,-4.55681 
379 ,69.5130 ,1.28908 ,-0.48152 ,-4.72470 
380 ,69.6890 ,1.29084 ,-0.49179 ,-4.82543 
381 ,69.8812 ,1.29276 ,-0.49863 ,-4.89259 
382 ,70.0573 ,1.29454 ,-0.51574 ,-5.06048 
383 ,70.2169 ,1.29625 ,-0.51917 ,-5.09406 
384 ,70.3932 ,1.29788 ,-0.52259 ,-5.12764 
385 ,70.5854 ,1.29976 ,-0.52259 ,-5.12764 
386 ,70.7615 ,1.30154 ,-0.53285 ,-5.22837 
387 ,70.9374 ,1.30330 ,-0.56708 ,-5.56415 
388 ,71.1137 ,1.30505 ,-0.57392 ,-5.63131 
389 ,71.2893 ,1.30683 ,-0.57392 ,-5.63131 
390 ,71.4658 ,1.30859 ,-0.56708 ,-5.56415 
391 ,71.6738 ,1.31059 ,-0.59788 ,-5.86636 
392 ,71.8659 ,1.31256 ,-0.60814 ,-5.96709 
393 ,72.0421 ,1.31431 ,-0.61156 ,-6.00067 
394 ,72.2181 ,1.31611 ,-0.62868 ,-6.16856 
395 ,72.3941 ,1.31798 ,-0.62525 ,-6.13499 
396 ,72.5699 ,1.31966 ,-0.63894 ,-6.26930 
397 ,72.7459 ,1.32136 ,-0.64579 ,-6.33646 
398 ,72.9223 ,1.32314 ,-0.64579 ,-6.33646 
399 ,73.0982 ,1.32487 ,-0.66632 ,-6.53793 
400 ,73.2746 ,1.32671 ,-0.66974 ,-6.57150 
401 ,73.4505 ,1.32843 ,-0.69370 ,-6.80655 
402 ,73.6264 ,1.33017 ,-0.68343 ,-6.70582 
403 ,73.8028 ,1.33197 ,-0.69712 ,-6.84013 
404 ,73.9787 ,1.33374 ,-0.70396 ,-6.90729 
405 ,74.1549 ,1.33546 ,-0.72450 ,-7.10876 
406 ,74.3310 ,1.33726 ,-0.74161 ,-7.27665 
407 ,74.5230 ,1.33914 ,-0.73476 ,-7.20949 
408 ,74.7151 ,1.34104 ,-0.75187 ,-7.37738 
409 ,74.8911 ,1.34282 ,-0.76898 ,-7.54527 
410 ,75.0834 ,1.34462 ,-0.76556 ,-7.51170 
411 ,75.2755 ,1.34668 ,-0.78267 ,-7.67959 
412 ,75.4510 ,1.34844 ,-0.79636 ,-7.81390 
413 ,75.6435 ,1.35035 ,-0.79294 ,-7.78032 
414 ,75.8356 ,1.35225 ,-0.81689 ,-8.01537 
415 ,76.0118 ,1.35407 ,-0.81347 ,-7.98179 
416 ,76.2036 ,1.35588 ,-0.81347 ,-7.98179 
417 ,76.3796 ,1.35767 ,-0.82374 ,-8.08253 
418 ,76.5555 ,1.35943 ,-0.85112 ,-8.35115 
419 ,76.7320 ,1.36124 ,-0.85796 ,-8.41831 
420 ,76.9240 ,1.36315 ,-0.85112 ,-8.35115 
421 ,77.0840 ,1.36484 ,-0.87507 ,-8.58620 
422 ,77.2763 ,1.36660 ,-0.88534 ,-8.68694 
423 ,77.4843 ,1.36872 ,-0.88192 ,-8.65336 
424 ,77.6443 ,1.37050 ,-0.87849 ,-8.61978 
425 ,77.8203 ,1.37207 ,-0.90245 ,-8.85483 
426 ,77.9965 ,1.37389 ,-0.91614 ,-8.98914 
427 ,78.1885 ,1.37576 ,-0.92640 ,-9.08988 
428 ,78.3807 ,1.37764 ,-0.92983 ,-9.12345 
429 ,78.5567 ,1.37945 ,-0.94694 ,-9.29135 
430 ,78.7327 ,1.38133 ,-0.96405 ,-9.45924 
431 ,78.9087 ,1.38294 ,-0.96747 ,-9.49282 
432 ,79.0849 ,1.38477 ,-0.96405 ,-9.45924 
433 ,79.2771 ,1.38666 ,-0.97431 ,-9.55997 
434 ,79.4690 ,1.38853 ,-0.99143 ,-9.72786 
435 ,79.6451 ,1.39032 ,-0.99485 ,-9.76144 
436 ,79.8372 ,1.39221 ,-1.00511 ,-9.86218 
437 ,80.0453 ,1.39427 ,-1.00169 ,-9.82860 
438 ,80.2215 ,1.39616 ,-1.01196 ,-9.92933 
439 ,80.3975 ,1.39785 ,-1.01880 ,-9.99649 
440 ,80.5894 ,1.39972 ,-1.04276 ,-10.23154 
441 ,80.7814 ,1.40170 ,-1.03591 ,-10.16438 
442 ,80.9574 ,1.40345 ,-1.05302 ,-10.33227 
443 ,81.1498 ,1.40536 ,-1.08382 ,-10.63448 
444 ,81.3095 ,1.40710 ,-1.07356 ,-10.53374 
445 ,81.4854 ,1.40880 ,-1.06671 ,-10.46659 
446 ,81.6615 ,1.41051 ,-1.08725 ,-10.66806 
447 ,81.8378 ,1.41228 ,-1.09751 ,-10.76879 
448 ,82.0302 ,1.41421 ,-1.12147 ,-11.00384 
449 ,82.2383 ,1.41621 ,-1.11120 ,-10.90310 
450 ,82.4145 ,1.41803 ,-1.12831 ,-11.07100 
451 ,82.5904 ,1.41979 ,-1.14884 ,-11.27247 
452 ,82.7824 ,1.42171 ,-1.13173 ,-11.10457 
453 ,82.9744 ,1.42361 ,-1.15569 ,-11.33962 
454 ,83.1506 ,1.42534 ,-1.17622 ,-11.54109 
455 ,83.3267 ,1.42718 ,-1.17280 ,-11.50751 
456 ,83.5188 ,1.42908 ,-1.17280 ,-11.50751 
457 ,83.6948 ,1.43097 ,-1.19676 ,-11.74256 
458 ,83.8707 ,1.43259 ,-1.19676 ,-11.74256 
459 ,84.0310 ,1.43429 ,-1.20018 ,-11.77614 
460 ,84.2069 ,1.43591 ,-1.20702 ,-11.84330 
461 ,84.3991 ,1.43782 ,-1.20702 ,-11.84330 
