Data stamp = , 05-04-2022 06:13:13 529

Calibration Values: 
Slope = , 26.54 , g/V 
Offset Voltage at no contact = , -0.501760 , V 

No , Time , Stage Position ,   Mass , Force 
   ,  (s) ,      (mm)      ,   (g)  , (mN)  

1 ,0.0000 ,0.59946 ,4.99737 ,49.03416 
2 ,0.2283 ,0.59952 ,4.99394 ,49.00058 
3 ,0.5810 ,0.60062 ,4.98710 ,48.93343 
4 ,0.8048 ,0.60238 ,4.98710 ,48.93343 
5 ,0.9970 ,0.60414 ,5.01448 ,49.20205 
6 ,1.1889 ,0.60598 ,4.98710 ,48.93343 
7 ,1.3651 ,0.60776 ,4.99737 ,49.03416 
8 ,1.5572 ,0.60975 ,5.01448 ,49.20205 
9 ,1.7333 ,0.61152 ,4.98026 ,48.86627 
10 ,1.9100 ,0.61332 ,4.95288 ,48.59764 
11 ,2.1177 ,0.61529 ,4.96657 ,48.73196 
12 ,2.3096 ,0.61733 ,4.93235 ,48.39618 
13 ,2.4857 ,0.61910 ,4.91181 ,48.19471 
14 ,2.6617 ,0.62082 ,4.90839 ,48.16113 
15 ,2.8378 ,0.62257 ,4.90839 ,48.16113 
16 ,3.0137 ,0.62431 ,4.88444 ,47.92608 
17 ,3.1899 ,0.62618 ,4.86048 ,47.69103 
18 ,3.3661 ,0.62787 ,4.83310 ,47.42240 
19 ,3.5580 ,0.62975 ,4.83652 ,47.45598 
20 ,3.7340 ,0.63149 ,4.81941 ,47.28809 
21 ,3.9102 ,0.63329 ,4.79888 ,47.08662 
22 ,4.0860 ,0.63501 ,4.77493 ,46.85157 
23 ,4.2782 ,0.63691 ,4.77150 ,46.81800 
24 ,4.5024 ,0.63911 ,4.73728 ,46.48221 
25 ,4.6784 ,0.64097 ,4.72359 ,46.34790 
26 ,4.8707 ,0.64291 ,4.69964 ,46.11285 
27 ,5.0625 ,0.64481 ,4.67568 ,45.87780 
28 ,5.2387 ,0.64656 ,4.65857 ,45.70991 
29 ,5.4307 ,0.64850 ,4.63119 ,45.44128 
30 ,5.6069 ,0.65027 ,4.61066 ,45.23981 
31 ,5.7828 ,0.65199 ,4.61066 ,45.23981 
32 ,5.9749 ,0.65385 ,4.60040 ,45.13908 
33 ,6.1671 ,0.65578 ,4.56617 ,44.80330 
34 ,6.3432 ,0.65765 ,4.54906 ,44.63541 
35 ,6.5672 ,0.65972 ,4.53195 ,44.46751 
36 ,6.7270 ,0.66154 ,4.51484 ,44.29962 
37 ,6.9034 ,0.66319 ,4.49431 ,44.09815 
38 ,7.0955 ,0.66505 ,4.48746 ,44.03100 
39 ,7.2871 ,0.66705 ,4.44982 ,43.66163 
40 ,7.4636 ,0.66878 ,4.43955 ,43.56090 
41 ,7.6557 ,0.67072 ,4.43271 ,43.49374 
42 ,7.8318 ,0.67246 ,4.39849 ,43.15796 
43 ,8.0079 ,0.67425 ,4.37453 ,42.92291 
44 ,8.2000 ,0.67615 ,4.37795 ,42.95649 
45 ,8.3920 ,0.67814 ,4.34373 ,42.62071 
46 ,8.5681 ,0.67982 ,4.32662 ,42.45282 
47 ,8.7438 ,0.68157 ,4.32320 ,42.41924 
48 ,8.9201 ,0.68336 ,4.31636 ,42.35208 
49 ,9.1121 ,0.68528 ,4.28213 ,42.01630 
50 ,9.2883 ,0.68705 ,4.26160 ,41.81483 
51 ,9.4644 ,0.68881 ,4.25476 ,41.74767 
52 ,9.6722 ,0.69082 ,4.23080 ,41.51262 
53 ,9.8486 ,0.69265 ,4.20685 ,41.27758 
54 ,10.0567 ,0.69466 ,4.21369 ,41.34473 
55 ,10.2326 ,0.69651 ,4.18289 ,41.04253 
56 ,10.4247 ,0.69845 ,4.15894 ,40.80748 
57 ,10.6170 ,0.70034 ,4.15894 ,40.80748 
58 ,10.7928 ,0.70208 ,4.14183 ,40.63959 
59 ,10.9850 ,0.70400 ,4.11787 ,40.40454 
60 ,11.1611 ,0.70578 ,4.11445 ,40.37096 
61 ,11.3372 ,0.70753 ,4.10076 ,40.23665 
62 ,11.5290 ,0.70942 ,4.06312 ,39.86729 
63 ,11.7053 ,0.71124 ,4.04943 ,39.73297 
64 ,11.8814 ,0.71296 ,4.04258 ,39.66582 
65 ,12.0575 ,0.71476 ,4.01863 ,39.43077 
66 ,12.2336 ,0.71653 ,4.01178 ,39.36361 
67 ,12.4096 ,0.71827 ,3.97072 ,38.96067 
68 ,12.5854 ,0.72002 ,3.96045 ,38.85994 
69 ,12.7615 ,0.72175 ,3.95361 ,38.79278 
70 ,12.9379 ,0.72352 ,3.94334 ,38.69205 
71 ,13.1140 ,0.72527 ,3.91596 ,38.42342 
72 ,13.3058 ,0.72720 ,3.90570 ,38.32268 
73 ,13.4981 ,0.72911 ,3.89885 ,38.25553 
74 ,13.6901 ,0.73102 ,3.86805 ,37.95332 
75 ,13.8662 ,0.73279 ,3.84410 ,37.71828 
76 ,14.0423 ,0.73456 ,3.84752 ,37.75185 
77 ,14.2184 ,0.73636 ,3.83383 ,37.61754 
78 ,14.3945 ,0.73808 ,3.80303 ,37.31534 
79 ,14.6025 ,0.74006 ,3.79961 ,37.28176 
80 ,14.7786 ,0.74200 ,3.76196 ,36.91240 
81 ,14.9547 ,0.74370 ,3.75854 ,36.87882 
82 ,15.1467 ,0.74558 ,3.74828 ,36.77808 
83 ,15.3228 ,0.74738 ,3.73117 ,36.61019 
84 ,15.4990 ,0.74915 ,3.71748 ,36.47588 
85 ,15.6909 ,0.75108 ,3.68325 ,36.14010 
86 ,15.8830 ,0.75300 ,3.67641 ,36.07294 
87 ,16.0750 ,0.75484 ,3.65246 ,35.83789 
88 ,16.2510 ,0.75665 ,3.62508 ,35.56926 
89 ,16.4431 ,0.75853 ,3.63192 ,35.63642 
90 ,16.6192 ,0.76030 ,3.60454 ,35.36779 
91 ,16.7954 ,0.76205 ,3.58743 ,35.19990 
92 ,16.9554 ,0.76379 ,3.57375 ,35.06559 
93 ,17.1475 ,0.76563 ,3.56348 ,34.96485 
94 ,17.3236 ,0.76734 ,3.55321 ,34.86412 
95 ,17.4997 ,0.76911 ,3.53610 ,34.69623 
96 ,17.6917 ,0.77103 ,3.50872 ,34.42760 
97 ,17.8679 ,0.77283 ,3.49846 ,34.32687 
98 ,18.0600 ,0.77472 ,3.48819 ,34.22613 
99 ,18.2520 ,0.77664 ,3.45055 ,33.85677 
100 ,18.4282 ,0.77842 ,3.44713 ,33.82319 
101 ,18.6201 ,0.78029 ,3.42659 ,33.62172 
102 ,18.8120 ,0.78224 ,3.40606 ,33.42025 
103 ,18.9879 ,0.78412 ,3.40264 ,33.38667 
104 ,19.1644 ,0.78581 ,3.38895 ,33.25236 
105 ,19.3565 ,0.78769 ,3.36157 ,32.98374 
106 ,19.5322 ,0.78944 ,3.34446 ,32.81584 
107 ,19.7085 ,0.79118 ,3.33077 ,32.68153 
108 ,19.9007 ,0.79298 ,3.33419 ,32.71511 
109 ,20.0767 ,0.79491 ,3.28971 ,32.27859 
110 ,20.2525 ,0.79666 ,3.27259 ,32.11070 
111 ,20.4289 ,0.79842 ,3.27259 ,32.11070 
112 ,20.6370 ,0.80045 ,3.25548 ,31.94281 
113 ,20.8130 ,0.80225 ,3.22811 ,31.67418 
114 ,21.0050 ,0.80419 ,3.22468 ,31.64060 
115 ,21.1972 ,0.80609 ,3.19388 ,31.33840 
116 ,21.4054 ,0.80816 ,3.15966 ,31.00262 
117 ,21.5813 ,0.80995 ,3.16651 ,31.06977 
118 ,21.7572 ,0.81165 ,3.13571 ,30.76757 
119 ,21.9334 ,0.81342 ,3.11518 ,30.56610 
120 ,22.1095 ,0.81523 ,3.12202 ,30.63325 
121 ,22.2857 ,0.81700 ,3.11518 ,30.56610 
122 ,22.4778 ,0.81885 ,3.08095 ,30.23031 
123 ,22.6536 ,0.82065 ,3.05700 ,29.99527 
124 ,22.8300 ,0.82240 ,3.03989 ,29.82737 
125 ,23.0061 ,0.82422 ,3.05015 ,29.92811 
126 ,23.1816 ,0.82595 ,3.03304 ,29.76022 
127 ,23.3581 ,0.82772 ,2.99882 ,29.42444 
128 ,23.5660 ,0.82968 ,2.99882 ,29.42444 
129 ,23.7582 ,0.83156 ,2.97487 ,29.18939 
130 ,23.9340 ,0.83347 ,2.94064 ,28.85360 
131 ,24.1103 ,0.83521 ,2.95091 ,28.95434 
132 ,24.2861 ,0.83696 ,2.93380 ,28.78645 
133 ,24.4623 ,0.83871 ,2.90642 ,28.51782 
134 ,24.6385 ,0.84050 ,2.88247 ,28.28277 
135 ,24.8146 ,0.84226 ,2.85851 ,28.04772 
136 ,25.0066 ,0.84417 ,2.86536 ,28.11488 
137 ,25.1829 ,0.84592 ,2.84482 ,27.91341 
138 ,25.3585 ,0.84773 ,2.82087 ,27.67836 
139 ,25.5349 ,0.84943 ,2.79691 ,27.44332 
140 ,25.7111 ,0.85123 ,2.78665 ,27.34258 
141 ,25.9030 ,0.85314 ,2.79007 ,27.37616 
142 ,26.0791 ,0.85489 ,2.75927 ,27.07395 
143 ,26.2552 ,0.85668 ,2.73874 ,26.87248 
144 ,26.4310 ,0.85840 ,2.73189 ,26.80533 
145 ,26.6075 ,0.86018 ,2.72505 ,26.73817 
146 ,26.7835 ,0.86193 ,2.70794 ,26.57028 
147 ,26.9592 ,0.86373 ,2.68056 ,26.30165 
148 ,27.1355 ,0.86545 ,2.67372 ,26.23450 
149 ,27.3118 ,0.86719 ,2.64976 ,25.99945 
150 ,27.4877 ,0.86897 ,2.63949 ,25.89871 
151 ,27.6638 ,0.87069 ,2.62581 ,25.76440 
152 ,27.8396 ,0.87248 ,2.60527 ,25.56293 
153 ,28.0639 ,0.87449 ,2.59843 ,25.49577 
154 ,28.2721 ,0.87669 ,2.57447 ,25.26073 
155 ,28.4802 ,0.87872 ,2.56078 ,25.12641 
156 ,28.6723 ,0.88074 ,2.54710 ,24.99210 
157 ,28.8484 ,0.88256 ,2.52656 ,24.79063 
158 ,29.0564 ,0.88455 ,2.51287 ,24.65632 
159 ,29.2325 ,0.88640 ,2.48550 ,24.38769 
160 ,29.4093 ,0.88819 ,2.48550 ,24.38769 
161 ,29.6165 ,0.89019 ,2.44785 ,24.01833 
162 ,29.8088 ,0.89207 ,2.44785 ,24.01833 
163 ,30.0167 ,0.89415 ,2.42732 ,23.81686 
164 ,30.1926 ,0.89599 ,2.41705 ,23.71612 
165 ,30.3525 ,0.89771 ,2.40336 ,23.58181 
166 ,30.5286 ,0.89938 ,2.37941 ,23.34676 
167 ,30.7046 ,0.90109 ,2.37256 ,23.27961 
168 ,30.8811 ,0.90291 ,2.34519 ,23.01098 
169 ,31.1214 ,0.90520 ,2.34519 ,23.01098 
170 ,31.3133 ,0.90724 ,2.31097 ,22.67520 
171 ,31.4894 ,0.90898 ,2.30754 ,22.64162 
172 ,31.6652 ,0.91071 ,2.28359 ,22.40657 
173 ,31.8736 ,0.91265 ,2.26306 ,22.20510 
174 ,32.0495 ,0.91457 ,2.24252 ,22.00363 
175 ,32.2257 ,0.91629 ,2.23568 ,21.93647 
176 ,32.4338 ,0.91835 ,2.21857 ,21.76858 
177 ,32.6259 ,0.92024 ,2.19803 ,21.56711 
178 ,32.8180 ,0.92217 ,2.18777 ,21.46638 
179 ,33.0102 ,0.92418 ,2.17066 ,21.29849 
180 ,33.1857 ,0.92597 ,2.15012 ,21.09702 
181 ,33.3621 ,0.92772 ,2.13986 ,20.99628 
182 ,33.5543 ,0.92961 ,2.11590 ,20.76123 
183 ,33.7462 ,0.93147 ,2.09195 ,20.52619 
184 ,33.9384 ,0.93346 ,2.08168 ,20.42545 
185 ,34.1304 ,0.93537 ,2.07826 ,20.39187 
186 ,34.3226 ,0.93725 ,2.04061 ,20.02251 
187 ,34.5147 ,0.93918 ,2.05773 ,20.19040 
188 ,34.6906 ,0.94100 ,2.03377 ,19.95535 
189 ,34.8505 ,0.94269 ,2.00982 ,19.72031 
190 ,35.0269 ,0.94435 ,2.00297 ,19.65315 
191 ,35.2189 ,0.94623 ,1.97559 ,19.38452 
192 ,35.3950 ,0.94799 ,1.98244 ,19.45168 
193 ,35.6030 ,0.94996 ,1.94137 ,19.04874 
194 ,35.8111 ,0.95212 ,1.94137 ,19.04874 
195 ,35.9869 ,0.95393 ,1.92426 ,18.88085 
196 ,36.1633 ,0.95568 ,1.88319 ,18.47791 
197 ,36.3553 ,0.95763 ,1.87293 ,18.37717 
198 ,36.5315 ,0.95935 ,1.88319 ,18.47791 
199 ,36.7075 ,0.96114 ,1.86951 ,18.34360 
200 ,36.8997 ,0.96301 ,1.83528 ,18.00781 
201 ,37.0916 ,0.96497 ,1.83186 ,17.97423 
202 ,37.2837 ,0.96687 ,1.81475 ,17.80634 
203 ,37.4598 ,0.96869 ,1.77711 ,17.43698 
204 ,37.6680 ,0.97070 ,1.78395 ,17.50414 
205 ,37.8598 ,0.97260 ,1.75657 ,17.23551 
206 ,38.0361 ,0.97446 ,1.74973 ,17.16836 
207 ,38.2279 ,0.97629 ,1.72578 ,16.93331 
208 ,38.4523 ,0.97843 ,1.72235 ,16.89973 
209 ,38.6443 ,0.98047 ,1.70182 ,16.69826 
210 ,38.8205 ,0.98226 ,1.66760 ,16.36248 
211 ,38.9964 ,0.98404 ,1.65733 ,16.26174 
212 ,39.1720 ,0.98580 ,1.66760 ,16.36248 
213 ,39.3486 ,0.98755 ,1.64022 ,16.09385 
214 ,39.5247 ,0.98930 ,1.61969 ,15.89238 
215 ,39.7167 ,0.99121 ,1.60942 ,15.79164 
216 ,39.8929 ,0.99297 ,1.60258 ,15.72449 
217 ,40.0847 ,0.99488 ,1.57862 ,15.48944 
218 ,40.2769 ,0.99682 ,1.56493 ,15.35513 
219 ,40.4529 ,0.99856 ,1.54440 ,15.15366 
220 ,40.6292 ,1.00032 ,1.53756 ,15.08650 
221 ,40.8214 ,1.00223 ,1.50333 ,14.75072 
222 ,40.9972 ,1.00404 ,1.49307 ,14.64998 
223 ,41.1733 ,1.00573 ,1.49991 ,14.71714 
224 ,41.3492 ,1.00755 ,1.47938 ,14.51567 
225 ,41.5414 ,1.00947 ,1.45885 ,14.31420 
226 ,41.7174 ,1.01124 ,1.43831 ,14.11273 
227 ,41.8936 ,1.01294 ,1.43489 ,14.07915 
228 ,42.0697 ,1.01475 ,1.40751 ,13.81053 
229 ,42.2458 ,1.01646 ,1.39383 ,13.67621 
230 ,42.4218 ,1.01822 ,1.38014 ,13.54190 
231 ,42.6140 ,1.02011 ,1.38014 ,13.54190 
232 ,42.8058 ,1.02213 ,1.35276 ,13.27327 
233 ,42.9822 ,1.02380 ,1.34591 ,13.20612 
234 ,43.1578 ,1.02565 ,1.32538 ,13.00465 
235 ,43.3501 ,1.02750 ,1.31512 ,12.90391 
236 ,43.5421 ,1.02940 ,1.30485 ,12.80318 
237 ,43.7183 ,1.03124 ,1.29458 ,12.70244 
238 ,43.8945 ,1.03300 ,1.27747 ,12.53455 
239 ,44.1183 ,1.03497 ,1.26036 ,12.36666 
240 ,44.2946 ,1.03695 ,1.25694 ,12.33308 
241 ,44.4707 ,1.03870 ,1.23641 ,12.13161 
242 ,44.6468 ,1.04051 ,1.20903 ,11.86298 
243 ,44.8389 ,1.04243 ,1.20903 ,11.86298 
244 ,45.0150 ,1.04416 ,1.20218 ,11.79583 
245 ,45.1907 ,1.04593 ,1.18165 ,11.59436 
246 ,45.3990 ,1.04797 ,1.17138 ,11.49362 
247 ,45.5590 ,1.04972 ,1.15770 ,11.35931 
248 ,45.7352 ,1.05138 ,1.14058 ,11.19142 
249 ,45.9430 ,1.05342 ,1.12347 ,11.02353 
250 ,46.1190 ,1.05523 ,1.09952 ,10.78848 
251 ,46.2949 ,1.05695 ,1.10294 ,10.82206 
252 ,46.4711 ,1.05878 ,1.06530 ,10.45270 
253 ,46.6472 ,1.06047 ,1.05161 ,10.31838 
254 ,46.8234 ,1.06227 ,1.04134 ,10.21765 
255 ,47.0159 ,1.06413 ,1.04134 ,10.21765 
256 ,47.2079 ,1.06604 ,1.01054 ,9.91544 
257 ,47.3999 ,1.06802 ,1.00370 ,9.84829 
258 ,47.5755 ,1.06973 ,1.01054 ,9.91544 
259 ,47.7518 ,1.07152 ,0.98659 ,9.68039 
260 ,47.9600 ,1.07359 ,0.96948 ,9.51250 
261 ,48.1521 ,1.07553 ,0.95921 ,9.41177 
262 ,48.3283 ,1.07729 ,0.93183 ,9.14314 
263 ,48.5043 ,1.07907 ,0.91472 ,8.97525 
264 ,48.6799 ,1.08079 ,0.90446 ,8.87451 
265 ,48.8564 ,1.08254 ,0.90788 ,8.90809 
266 ,49.0485 ,1.08451 ,0.87023 ,8.53873 
267 ,49.2246 ,1.08624 ,0.87708 ,8.60589 
268 ,49.4007 ,1.08805 ,0.85997 ,8.43800 
269 ,49.5928 ,1.08989 ,0.83601 ,8.20295 
270 ,49.7688 ,1.09174 ,0.82575 ,8.10221 
271 ,49.9450 ,1.09340 ,0.80521 ,7.90074 
272 ,50.1368 ,1.09532 ,0.81548 ,8.00148 
273 ,50.3134 ,1.09715 ,0.78468 ,7.69927 
274 ,50.4892 ,1.09891 ,0.76072 ,7.46423 
275 ,50.6812 ,1.10078 ,0.77441 ,7.59854 
276 ,50.8573 ,1.10255 ,0.75046 ,7.36349 
277 ,51.0334 ,1.10438 ,0.72992 ,7.16202 
278 ,51.2254 ,1.10623 ,0.70597 ,6.92697 
279 ,51.4176 ,1.10815 ,0.70255 ,6.89340 
280 ,51.5936 ,1.10991 ,0.69570 ,6.82624 
281 ,51.7853 ,1.11177 ,0.67859 ,6.65835 
282 ,51.9779 ,1.11372 ,0.68544 ,6.72550 
283 ,52.1699 ,1.11572 ,0.63410 ,6.22183 
284 ,52.3460 ,1.11746 ,0.61699 ,6.05394 
285 ,52.5379 ,1.11940 ,0.62042 ,6.08752 
286 ,52.7142 ,1.12117 ,0.60330 ,5.91962 
287 ,52.9058 ,1.12308 ,0.58619 ,5.75173 
288 ,53.0821 ,1.12481 ,0.58277 ,5.71815 
289 ,53.2742 ,1.12666 ,0.55882 ,5.48311 
290 ,53.4505 ,1.12851 ,0.53486 ,5.24806 
291 ,53.6424 ,1.13035 ,0.54855 ,5.38237 
292 ,53.8344 ,1.13232 ,0.52117 ,5.11375 
293 ,54.0106 ,1.13412 ,0.50748 ,4.97943 
294 ,54.1867 ,1.13584 ,0.50406 ,4.94585 
295 ,54.3626 ,1.13764 ,0.48695 ,4.77796 
296 ,54.5389 ,1.13937 ,0.49037 ,4.81154 
297 ,54.7627 ,1.14150 ,0.44931 ,4.40860 
298 ,54.9549 ,1.14348 ,0.44246 ,4.34144 
299 ,55.1471 ,1.14541 ,0.43562 ,4.27429 
300 ,55.3392 ,1.14736 ,0.43562 ,4.27429 
301 ,55.5152 ,1.14918 ,0.40824 ,4.00566 
302 ,55.6913 ,1.15089 ,0.38086 ,3.73703 
303 ,55.8834 ,1.15275 ,0.37060 ,3.63630 
304 ,56.0750 ,1.15473 ,0.36375 ,3.56914 
305 ,56.2516 ,1.15651 ,0.34664 ,3.40125 
306 ,56.4434 ,1.15838 ,0.34322 ,3.36767 
307 ,56.6196 ,1.16017 ,0.35349 ,3.46841 
308 ,56.7959 ,1.16191 ,0.32611 ,3.19978 
309 ,56.9719 ,1.16368 ,0.30558 ,2.99831 
310 ,57.1635 ,1.16553 ,0.31242 ,3.06547 
311 ,57.3400 ,1.16737 ,0.30900 ,3.03189 
312 ,57.5476 ,1.16932 ,0.26451 ,2.59537 
313 ,57.7241 ,1.17119 ,0.26109 ,2.56179 
314 ,58.1083 ,1.17406 ,0.24398 ,2.39390 
315 ,58.2842 ,1.17677 ,0.22687 ,2.22601 
316 ,58.4603 ,1.17864 ,0.21318 ,2.09170 
317 ,58.6364 ,1.18034 ,0.20633 ,2.02454 
318 ,58.8445 ,1.18237 ,0.19264 ,1.89023 
319 ,59.0206 ,1.18418 ,0.18238 ,1.78949 
320 ,59.2124 ,1.18604 ,0.17896 ,1.75592 
321 ,59.3887 ,1.18786 ,0.13789 ,1.35298 
322 ,59.5809 ,1.18979 ,0.14131 ,1.38655 
323 ,59.7728 ,1.19171 ,0.10025 ,0.98361 
324 ,59.9646 ,1.19355 ,0.11051 ,1.08435 
325 ,60.1409 ,1.19536 ,0.09340 ,0.91646 
326 ,60.3167 ,1.19719 ,0.07629 ,0.74857 
327 ,60.4931 ,1.19887 ,0.05576 ,0.54710 
328 ,60.6851 ,1.20073 ,0.06260 ,0.61425 
329 ,60.8612 ,1.20257 ,0.05576 ,0.54710 
330 ,61.0533 ,1.20447 ,0.02838 ,0.27847 
331 ,61.2294 ,1.20624 ,0.00100 ,0.00984 
332 ,61.4053 ,1.20807 ,0.00443 ,0.04342 
333 ,61.5976 ,1.20980 ,0.00100 ,0.00984 
334 ,61.7895 ,1.21181 ,-0.02295 ,-0.22520 
335 ,61.9659 ,1.21368 ,-0.03322 ,-0.32594 
336 ,62.1573 ,1.21549 ,-0.04348 ,-0.42667 
337 ,62.3176 ,1.21723 ,-0.06402 ,-0.62814 
338 ,62.4937 ,1.21884 ,-0.07086 ,-0.69530 
339 ,62.6860 ,1.22075 ,-0.08455 ,-0.82961 
340 ,62.8941 ,1.22286 ,-0.10851 ,-1.06466 
341 ,63.0702 ,1.22467 ,-0.10508 ,-1.03108 
342 ,63.2459 ,1.22643 ,-0.12562 ,-1.23255 
343 ,63.4221 ,1.22815 ,-0.11193 ,-1.09824 
344 ,63.5985 ,1.22994 ,-0.13931 ,-1.36687 
345 ,63.7905 ,1.23188 ,-0.15299 ,-1.50118 
346 ,63.9667 ,1.23360 ,-0.14273 ,-1.40045 
347 ,64.1585 ,1.23557 ,-0.17011 ,-1.66907 
348 ,64.3504 ,1.23748 ,-0.18722 ,-1.83696 
349 ,64.5265 ,1.23920 ,-0.18037 ,-1.76981 
350 ,64.7029 ,1.24098 ,-0.19748 ,-1.93770 
351 ,64.9117 ,1.24300 ,-0.22144 ,-2.17275 
352 ,65.1031 ,1.24488 ,-0.22144 ,-2.17275 
353 ,65.2951 ,1.24690 ,-0.24539 ,-2.40779 
354 ,65.4872 ,1.24883 ,-0.24881 ,-2.44137 
355 ,65.6630 ,1.25057 ,-0.25908 ,-2.54211 
356 ,65.8393 ,1.25236 ,-0.26593 ,-2.60926 
357 ,66.0311 ,1.25421 ,-0.27961 ,-2.74358 
358 ,66.2075 ,1.25605 ,-0.29330 ,-2.87789 
359 ,66.3995 ,1.25793 ,-0.30015 ,-2.94505 
360 ,66.5756 ,1.25971 ,-0.30699 ,-3.01220 
361 ,66.7515 ,1.26151 ,-0.31041 ,-3.04578 
362 ,66.9439 ,1.26337 ,-0.33437 ,-3.28083 
363 ,67.1198 ,1.26514 ,-0.34464 ,-3.38156 
364 ,67.2960 ,1.26686 ,-0.35148 ,-3.44872 
365 ,67.4720 ,1.26867 ,-0.36859 ,-3.61661 
366 ,67.6640 ,1.27054 ,-0.36175 ,-3.54946 
367 ,67.8562 ,1.27245 ,-0.39255 ,-3.85166 
368 ,68.0322 ,1.27428 ,-0.39597 ,-3.88524 
369 ,68.2242 ,1.27618 ,-0.38912 ,-3.81808 
370 ,68.4003 ,1.27794 ,-0.41308 ,-4.05313 
371 ,68.5765 ,1.27970 ,-0.43361 ,-4.25460 
372 ,68.7841 ,1.28167 ,-0.42677 ,-4.18744 
373 ,68.9605 ,1.28352 ,-0.44388 ,-4.35534 
374 ,69.1365 ,1.28532 ,-0.45757 ,-4.48965 
375 ,69.3129 ,1.28707 ,-0.46441 ,-4.55681 
376 ,69.5046 ,1.28899 ,-0.46783 ,-4.59038 
377 ,69.6808 ,1.29071 ,-0.47468 ,-4.65754 
378 ,69.8565 ,1.29259 ,-0.48837 ,-4.79185 
379 ,70.0329 ,1.29427 ,-0.49521 ,-4.85901 
380 ,70.2091 ,1.29606 ,-0.50548 ,-4.95975 
381 ,70.4012 ,1.29797 ,-0.51232 ,-5.02690 
382 ,70.5772 ,1.29967 ,-0.52943 ,-5.19479 
383 ,70.7533 ,1.30147 ,-0.53628 ,-5.26195 
384 ,70.9293 ,1.30333 ,-0.51232 ,-5.02690 
385 ,71.1054 ,1.30499 ,-0.52943 ,-5.19479 
386 ,71.2816 ,1.30673 ,-0.53970 ,-5.29553 
387 ,71.4734 ,1.30865 ,-0.56023 ,-5.49700 
388 ,71.6496 ,1.31039 ,-0.55339 ,-5.42984 
389 ,71.8255 ,1.31218 ,-0.54997 ,-5.39626 
390 ,72.0016 ,1.31396 ,-0.58419 ,-5.73205 
391 ,72.1937 ,1.31575 ,-0.59103 ,-5.79920 
392 ,72.3700 ,1.31763 ,-0.58419 ,-5.73205 
393 ,72.5460 ,1.31941 ,-0.59788 ,-5.86636 
394 ,72.7219 ,1.32114 ,-0.59788 ,-5.86636 
395 ,72.8982 ,1.32294 ,-0.63210 ,-6.20214 
396 ,73.0902 ,1.32479 ,-0.63552 ,-6.23572 
397 ,73.2663 ,1.32652 ,-0.62868 ,-6.16856 
398 ,73.4424 ,1.32834 ,-0.65605 ,-6.43719 
399 ,73.6345 ,1.33021 ,-0.65947 ,-6.47077 
400 ,73.8265 ,1.33215 ,-0.66632 ,-6.53793 
401 ,74.0185 ,1.33406 ,-0.68001 ,-6.67224 
402 ,74.2107 ,1.33598 ,-0.68001 ,-6.67224 
403 ,74.3869 ,1.33779 ,-0.68001 ,-6.67224 
404 ,74.5628 ,1.33958 ,-0.71423 ,-7.00802 
405 ,74.7388 ,1.34126 ,-0.72792 ,-7.14233 
406 ,74.9146 ,1.34302 ,-0.73476 ,-7.20949 
407 ,75.0910 ,1.34483 ,-0.74161 ,-7.27665 
408 ,75.2671 ,1.34659 ,-0.74161 ,-7.27665 
409 ,75.4591 ,1.34852 ,-0.76214 ,-7.47812 
410 ,75.6352 ,1.35022 ,-0.76898 ,-7.54527 
411 ,75.8271 ,1.35220 ,-0.77925 ,-7.64601 
412 ,76.0034 ,1.35392 ,-0.78267 ,-7.67959 
413 ,76.1792 ,1.35566 ,-0.80321 ,-7.88106 
414 ,76.3554 ,1.35748 ,-0.82032 ,-8.04895 
415 ,76.5315 ,1.35921 ,-0.80663 ,-7.91464 
416 ,76.7234 ,1.36108 ,-0.81689 ,-8.01537 
417 ,76.8998 ,1.36289 ,-0.83401 ,-8.18326 
418 ,77.0758 ,1.36467 ,-0.84427 ,-8.28400 
419 ,77.2516 ,1.36642 ,-0.84427 ,-8.28400 
420 ,77.4280 ,1.36822 ,-0.84769 ,-8.31758 
421 ,77.6197 ,1.37010 ,-0.88192 ,-8.65336 
422 ,77.7962 ,1.37188 ,-0.87849 ,-8.61978 
423 ,77.9881 ,1.37376 ,-0.87849 ,-8.61978 
424 ,78.1643 ,1.37550 ,-0.88534 ,-8.68694 
425 ,78.3399 ,1.37730 ,-0.90929 ,-8.92198 
426 ,78.5166 ,1.37911 ,-0.91272 ,-8.95556 
427 ,78.7086 ,1.38099 ,-0.90245 ,-8.85483 
428 ,78.8846 ,1.38281 ,-0.93667 ,-9.19061 
429 ,79.0604 ,1.38453 ,-0.92298 ,-9.05630 
430 ,79.2367 ,1.38628 ,-0.94009 ,-9.22419 
431 ,79.4285 ,1.38819 ,-0.94694 ,-9.29135 
432 ,79.5888 ,1.38990 ,-0.98116 ,-9.62713 
433 ,79.7646 ,1.39157 ,-0.97431 ,-9.55997 
434 ,79.9410 ,1.39328 ,-0.98458 ,-9.66071 
435 ,80.1170 ,1.39507 ,-0.97774 ,-9.59355 
436 ,80.2930 ,1.39680 ,-0.99485 ,-9.76144 
437 ,80.4688 ,1.39858 ,-0.99827 ,-9.79502 
438 ,80.6453 ,1.40038 ,-1.01538 ,-9.96291 
439 ,80.8373 ,1.40223 ,-1.02222 ,-10.03007 
440 ,81.0136 ,1.40405 ,-1.02565 ,-10.06365 
441 ,81.2055 ,1.40584 ,-1.03249 ,-10.13080 
442 ,81.3817 ,1.40771 ,-1.05302 ,-10.33227 
443 ,81.5896 ,1.40972 ,-1.05987 ,-10.39943 
444 ,81.7658 ,1.41154 ,-1.06329 ,-10.43301 
445 ,81.9419 ,1.41329 ,-1.09067 ,-10.70163 
446 ,82.1339 ,1.41517 ,-1.07698 ,-10.56732 
447 ,82.3101 ,1.41698 ,-1.07356 ,-10.53374 
448 ,82.5020 ,1.41883 ,-1.11120 ,-10.90310 
449 ,82.6941 ,1.42074 ,-1.09409 ,-10.73521 
450 ,82.8703 ,1.42260 ,-1.11120 ,-10.90310 
451 ,83.0463 ,1.42438 ,-1.12489 ,-11.03742 
452 ,83.2225 ,1.42609 ,-1.14542 ,-11.23889 
453 ,83.3981 ,1.42787 ,-1.14200 ,-11.20531 
454 ,83.5744 ,1.42957 ,-1.14542 ,-11.23889 
455 ,83.7504 ,1.43136 ,-1.14200 ,-11.20531 
456 ,83.9267 ,1.43319 ,-1.16253 ,-11.40678 
457 ,84.1024 ,1.43489 ,-1.17964 ,-11.57467 
458 ,84.2788 ,1.43667 ,-1.19676 ,-11.74256 
459 ,84.4871 ,1.43871 ,-1.18307 ,-11.60825 
460 ,84.6787 ,1.44063 ,-1.18649 ,-11.64183 
461 ,84.8548 ,1.44243 ,-1.20018 ,-11.77614 
