Data stamp = , 04-04-2022 16:54:49 639

Calibration Values: 
Slope = , 26.54 , g/V 
Offset Voltage at no contact = , -0.501760 , V 

No , Time , Stage Position ,   Mass , Force 
   ,  (s) ,      (mm)      ,   (g)  , (mN)  

1 ,0.0000 ,0.59946 ,5.10688 ,50.10867 
2 ,0.2108 ,0.59952 ,5.10003 ,50.04151 
3 ,0.7234 ,0.60113 ,5.10345 ,50.07509 
4 ,0.9153 ,0.60336 ,5.09661 ,50.00793 
5 ,1.0912 ,0.60513 ,5.10688 ,50.10867 
6 ,1.2836 ,0.60700 ,5.09319 ,49.97436 
7 ,1.4756 ,0.60881 ,5.10003 ,50.04151 
8 ,1.6514 ,0.61073 ,5.09661 ,50.00793 
9 ,1.8277 ,0.61248 ,5.07950 ,49.84004 
10 ,2.0038 ,0.61426 ,5.04185 ,49.47068 
11 ,2.1959 ,0.61615 ,5.05212 ,49.57142 
12 ,2.3717 ,0.61792 ,5.03159 ,49.36995 
13 ,2.5482 ,0.61968 ,5.02474 ,49.30279 
14 ,2.7721 ,0.62176 ,4.99737 ,49.03416 
15 ,2.9483 ,0.62369 ,4.99052 ,48.96701 
16 ,3.1242 ,0.62544 ,4.95972 ,48.66480 
17 ,3.3162 ,0.62735 ,4.96657 ,48.73196 
18 ,3.5084 ,0.62924 ,4.93919 ,48.46333 
19 ,3.6843 ,0.63102 ,4.92208 ,48.29544 
20 ,3.8607 ,0.63280 ,4.90839 ,48.16113 
21 ,4.0687 ,0.63481 ,4.88444 ,47.92608 
22 ,4.2447 ,0.63663 ,4.88444 ,47.92608 
23 ,4.4369 ,0.63858 ,4.86048 ,47.69103 
24 ,4.6129 ,0.64035 ,4.85021 ,47.59030 
25 ,4.8050 ,0.64221 ,4.82284 ,47.32167 
26 ,4.9811 ,0.64405 ,4.80230 ,47.12020 
27 ,5.1732 ,0.64590 ,4.78861 ,46.98589 
28 ,5.3492 ,0.64769 ,4.78177 ,46.91873 
29 ,5.5249 ,0.64941 ,4.76466 ,46.75084 
30 ,5.7170 ,0.65127 ,4.75097 ,46.61653 
31 ,5.9091 ,0.65322 ,4.73044 ,46.41506 
32 ,6.0851 ,0.65501 ,4.70648 ,46.18001 
33 ,6.2452 ,0.65676 ,4.68595 ,45.97854 
34 ,6.4052 ,0.65836 ,4.68253 ,45.94496 
35 ,6.5814 ,0.66000 ,4.65515 ,45.67633 
36 ,6.7574 ,0.66177 ,4.64488 ,45.57560 
37 ,6.9174 ,0.66348 ,4.63804 ,45.50844 
38 ,7.0935 ,0.66513 ,4.61751 ,45.30697 
39 ,7.2697 ,0.66685 ,4.60724 ,45.20624 
40 ,7.4456 ,0.66864 ,4.57302 ,44.87045 
41 ,7.6218 ,0.67040 ,4.55591 ,44.70256 
42 ,7.7816 ,0.67211 ,4.54564 ,44.60183 
43 ,7.9578 ,0.67376 ,4.53195 ,44.46751 
44 ,8.1178 ,0.67550 ,4.52169 ,44.36678 
45 ,8.2779 ,0.67708 ,4.51142 ,44.26604 
46 ,8.4541 ,0.67871 ,4.49089 ,44.06457 
47 ,8.6142 ,0.68043 ,4.48746 ,44.03100 
48 ,8.7901 ,0.68205 ,4.46009 ,43.76237 
49 ,8.9663 ,0.68381 ,4.44298 ,43.59448 
50 ,9.1424 ,0.68559 ,4.42244 ,43.39301 
51 ,9.3184 ,0.68735 ,4.40875 ,43.25870 
52 ,9.4785 ,0.68907 ,4.40533 ,43.22512 
53 ,9.6546 ,0.69071 ,4.38480 ,43.02365 
54 ,9.8146 ,0.69246 ,4.37111 ,42.88933 
55 ,9.9910 ,0.69413 ,4.36769 ,42.85576 
56 ,10.1829 ,0.69597 ,4.32662 ,42.45282 
57 ,10.3588 ,0.69772 ,4.31636 ,42.35208 
58 ,10.5192 ,0.69945 ,4.33004 ,42.48639 
59 ,10.6954 ,0.70114 ,4.30951 ,42.28492 
60 ,10.8873 ,0.70304 ,4.26845 ,41.88198 
61 ,11.0635 ,0.70483 ,4.25818 ,41.78125 
62 ,11.2394 ,0.70661 ,4.24107 ,41.61336 
63 ,11.4156 ,0.70831 ,4.23765 ,41.57978 
64 ,11.5917 ,0.71006 ,4.20685 ,41.27758 
65 ,11.7678 ,0.71194 ,4.18289 ,41.04253 
66 ,11.9437 ,0.71359 ,4.16578 ,40.87464 
67 ,12.1196 ,0.71537 ,4.15551 ,40.77390 
68 ,12.2958 ,0.71713 ,4.15894 ,40.80748 
69 ,12.4724 ,0.71887 ,4.12471 ,40.47170 
70 ,12.6481 ,0.72063 ,4.10418 ,40.27023 
71 ,12.8240 ,0.72236 ,4.09391 ,40.16949 
72 ,13.0002 ,0.72422 ,4.09391 ,40.16949 
73 ,13.1763 ,0.72594 ,4.08365 ,40.06876 
74 ,13.3523 ,0.72770 ,4.06654 ,39.90087 
75 ,13.5285 ,0.72943 ,4.02547 ,39.49793 
76 ,13.7045 ,0.73121 ,4.00152 ,39.26288 
77 ,13.8966 ,0.73312 ,4.01178 ,39.36361 
78 ,14.0887 ,0.73499 ,3.98783 ,39.12856 
79 ,14.2807 ,0.73694 ,3.96729 ,38.92709 
80 ,14.4888 ,0.73889 ,3.93650 ,38.62489 
81 ,14.6650 ,0.74083 ,3.92281 ,38.49058 
82 ,14.8408 ,0.74254 ,3.91938 ,38.45700 
83 ,15.0171 ,0.74434 ,3.89543 ,38.22195 
84 ,15.2091 ,0.74621 ,3.87490 ,38.02048 
85 ,15.4333 ,0.74831 ,3.87147 ,37.98690 
86 ,15.6089 ,0.75025 ,3.84410 ,37.71828 
87 ,15.7855 ,0.75203 ,3.83383 ,37.61754 
88 ,15.9934 ,0.75405 ,3.81672 ,37.44965 
89 ,16.1692 ,0.75583 ,3.78592 ,37.14744 
90 ,16.3617 ,0.75768 ,3.77223 ,37.01313 
91 ,16.5377 ,0.75959 ,3.75854 ,36.87882 
92 ,16.7137 ,0.76130 ,3.74485 ,36.74450 
93 ,16.9058 ,0.76318 ,3.71405 ,36.44230 
94 ,17.0819 ,0.76494 ,3.71748 ,36.47588 
95 ,17.2899 ,0.76698 ,3.69010 ,36.20725 
96 ,17.4981 ,0.76908 ,3.67983 ,36.10652 
97 ,17.6742 ,0.77090 ,3.67299 ,36.03936 
98 ,17.8661 ,0.77275 ,3.63534 ,35.67000 
99 ,18.0423 ,0.77453 ,3.62508 ,35.56926 
100 ,18.2340 ,0.77640 ,3.61139 ,35.43495 
101 ,18.4106 ,0.77826 ,3.58401 ,35.16632 
102 ,18.6024 ,0.78011 ,3.56348 ,34.96485 
103 ,18.7947 ,0.78214 ,3.56006 ,34.93128 
104 ,18.9866 ,0.78402 ,3.53268 ,34.66265 
105 ,19.1628 ,0.78580 ,3.50872 ,34.42760 
106 ,19.3389 ,0.78753 ,3.49846 ,34.32687 
107 ,19.5308 ,0.78934 ,3.50188 ,34.36045 
108 ,19.7070 ,0.79119 ,3.45397 ,33.89035 
109 ,19.8831 ,0.79297 ,3.44713 ,33.82319 
110 ,20.0592 ,0.79475 ,3.43344 ,33.68888 
111 ,20.2353 ,0.79650 ,3.42659 ,33.62172 
112 ,20.4110 ,0.79823 ,3.39921 ,33.35310 
113 ,20.5874 ,0.79999 ,3.37184 ,33.08447 
114 ,20.7632 ,0.80179 ,3.36499 ,33.01731 
115 ,20.9393 ,0.80351 ,3.35815 ,32.95016 
116 ,21.1636 ,0.80561 ,3.33419 ,32.71511 
117 ,21.3395 ,0.80749 ,3.32051 ,32.58080 
118 ,21.5156 ,0.80931 ,3.29313 ,32.31217 
119 ,21.7077 ,0.81117 ,3.26233 ,32.00996 
120 ,21.8839 ,0.81300 ,3.24864 ,31.87565 
121 ,22.0758 ,0.81485 ,3.22126 ,31.60702 
122 ,22.2680 ,0.81683 ,3.22126 ,31.60702 
123 ,22.4439 ,0.81859 ,3.19388 ,31.33840 
124 ,22.6202 ,0.82033 ,3.18362 ,31.23766 
125 ,22.8282 ,0.82234 ,3.14940 ,30.90188 
126 ,22.9883 ,0.82410 ,3.12886 ,30.70041 
127 ,23.1803 ,0.82587 ,3.11860 ,30.59968 
128 ,23.4046 ,0.82794 ,3.07069 ,30.12958 
129 ,23.5965 ,0.83006 ,3.07069 ,30.12958 
130 ,23.7726 ,0.83184 ,3.04331 ,29.86095 
131 ,23.9488 ,0.83359 ,3.02962 ,29.72664 
132 ,24.1244 ,0.83537 ,3.00909 ,29.52517 
133 ,24.3008 ,0.83710 ,3.01251 ,29.55875 
134 ,24.4769 ,0.83887 ,2.98513 ,29.29012 
135 ,24.6370 ,0.84060 ,2.95776 ,29.02150 
136 ,24.8129 ,0.84222 ,2.94407 ,28.88718 
137 ,25.0211 ,0.84427 ,2.93380 ,28.78645 
138 ,25.1971 ,0.84608 ,2.92696 ,28.71929 
139 ,25.3732 ,0.84785 ,2.90642 ,28.51782 
140 ,25.5652 ,0.84964 ,2.87562 ,28.21562 
141 ,25.7572 ,0.85172 ,2.87562 ,28.21562 
142 ,25.9492 ,0.85359 ,2.83798 ,27.84625 
143 ,26.1416 ,0.85553 ,2.83456 ,27.81268 
144 ,26.3176 ,0.85733 ,2.82087 ,27.67836 
145 ,26.5095 ,0.85916 ,2.78665 ,27.34258 
146 ,26.6855 ,0.86099 ,2.79007 ,27.37616 
147 ,26.8777 ,0.86286 ,2.76954 ,27.17469 
148 ,27.0703 ,0.86483 ,2.73189 ,26.80533 
149 ,27.2620 ,0.86676 ,2.73189 ,26.80533 
150 ,27.4380 ,0.86846 ,2.71478 ,26.63744 
151 ,27.6141 ,0.87020 ,2.69425 ,26.43597 
152 ,27.7898 ,0.87203 ,2.66003 ,26.10018 
153 ,27.9667 ,0.87378 ,2.66003 ,26.10018 
154 ,28.1585 ,0.87574 ,2.64634 ,25.96587 
155 ,28.3345 ,0.87746 ,2.62923 ,25.79798 
156 ,28.5105 ,0.87921 ,2.61212 ,25.63009 
157 ,28.6865 ,0.88101 ,2.59501 ,25.46220 
158 ,28.8623 ,0.88274 ,2.58816 ,25.39504 
159 ,29.0385 ,0.88450 ,2.56763 ,25.19357 
160 ,29.2307 ,0.88646 ,2.53683 ,24.89136 
161 ,29.4550 ,0.88842 ,2.52656 ,24.79063 
162 ,29.6309 ,0.89042 ,2.48892 ,24.42127 
163 ,29.8069 ,0.89229 ,2.48892 ,24.42127 
164 ,29.9831 ,0.89392 ,2.48550 ,24.38769 
165 ,30.1591 ,0.89571 ,2.45470 ,24.08549 
166 ,30.3511 ,0.89759 ,2.43074 ,23.85044 
167 ,30.5273 ,0.89937 ,2.43416 ,23.88402 
168 ,30.7034 ,0.90112 ,2.42048 ,23.74970 
169 ,30.8795 ,0.90291 ,2.40336 ,23.58181 
170 ,31.0554 ,0.90478 ,2.36914 ,23.24603 
171 ,31.2314 ,0.90640 ,2.36230 ,23.17887 
172 ,31.4234 ,0.90826 ,2.36914 ,23.24603 
173 ,31.5995 ,0.91004 ,2.33492 ,22.91024 
174 ,31.7758 ,0.91185 ,2.31781 ,22.74235 
175 ,31.9678 ,0.91370 ,2.30412 ,22.60804 
176 ,32.1599 ,0.91571 ,2.28701 ,22.44015 
177 ,32.3520 ,0.91760 ,2.25279 ,22.10437 
178 ,32.5279 ,0.91940 ,2.25621 ,22.13794 
179 ,32.7201 ,0.92126 ,2.23226 ,21.90290 
180 ,32.9120 ,0.92316 ,2.20488 ,21.63427 
181 ,33.0879 ,0.92498 ,2.19803 ,21.56711 
182 ,33.2644 ,0.92676 ,2.20146 ,21.60069 
183 ,33.4884 ,0.92883 ,2.18777 ,21.46638 
184 ,33.6645 ,0.93075 ,2.16723 ,21.26491 
185 ,33.8566 ,0.93263 ,2.12275 ,20.82839 
186 ,34.0326 ,0.93442 ,2.12275 ,20.82839 
187 ,34.2088 ,0.93612 ,2.10564 ,20.66050 
188 ,34.3848 ,0.93794 ,2.10906 ,20.69408 
189 ,34.5608 ,0.93974 ,2.09195 ,20.52619 
190 ,34.7531 ,0.94152 ,2.06115 ,20.22398 
191 ,34.9290 ,0.94337 ,2.05773 ,20.19040 
192 ,35.1051 ,0.94518 ,2.05088 ,20.12325 
193 ,35.2651 ,0.94686 ,2.02693 ,19.88820 
194 ,35.4412 ,0.94846 ,2.01666 ,19.78746 
195 ,35.6171 ,0.95025 ,1.99955 ,19.61957 
196 ,35.7774 ,0.95194 ,1.96533 ,19.28379 
197 ,35.9535 ,0.95361 ,1.95506 ,19.18305 
198 ,36.1295 ,0.95538 ,1.95848 ,19.21663 
199 ,36.3054 ,0.95712 ,1.94822 ,19.11590 
200 ,36.4816 ,0.95885 ,1.92084 ,18.84727 
201 ,36.6579 ,0.96065 ,1.89688 ,18.61222 
202 ,36.8499 ,0.96261 ,1.88662 ,18.51149 
203 ,37.0260 ,0.96435 ,1.88662 ,18.51149 
204 ,37.2180 ,0.96624 ,1.86951 ,18.34360 
205 ,37.3941 ,0.96796 ,1.83871 ,18.04139 
206 ,37.5861 ,0.96990 ,1.84555 ,18.10855 
207 ,37.7623 ,0.97168 ,1.82844 ,17.94066 
208 ,37.9543 ,0.97350 ,1.79080 ,17.57129 
209 ,38.1463 ,0.97556 ,1.78395 ,17.50414 
210 ,38.3224 ,0.97729 ,1.78053 ,17.47056 
211 ,38.5144 ,0.97916 ,1.75657 ,17.23551 
212 ,38.7226 ,0.98126 ,1.74973 ,17.16836 
213 ,38.8986 ,0.98305 ,1.73262 ,17.00046 
214 ,39.0747 ,0.98481 ,1.70866 ,16.76542 
215 ,39.2669 ,0.98671 ,1.70182 ,16.69826 
216 ,39.4425 ,0.98853 ,1.69155 ,16.59752 
217 ,39.6350 ,0.99031 ,1.67102 ,16.39605 
218 ,39.8269 ,0.99230 ,1.66075 ,16.29532 
219 ,40.0031 ,0.99405 ,1.64707 ,16.16101 
220 ,40.1791 ,0.99588 ,1.63338 ,16.02669 
221 ,40.3552 ,0.99761 ,1.60942 ,15.79164 
222 ,40.5147 ,0.99933 ,1.59916 ,15.69091 
223 ,40.6913 ,1.00095 ,1.57520 ,15.45586 
224 ,40.8674 ,1.00275 ,1.57520 ,15.45586 
225 ,41.0435 ,1.00452 ,1.56151 ,15.32155 
226 ,41.2356 ,1.00638 ,1.53413 ,15.05292 
227 ,41.4276 ,1.00831 ,1.53413 ,15.05292 
228 ,41.6193 ,1.01023 ,1.50333 ,14.75072 
229 ,41.7958 ,1.01198 ,1.48622 ,14.58283 
230 ,41.9720 ,1.01377 ,1.47596 ,14.48209 
231 ,42.1636 ,1.01570 ,1.46911 ,14.41493 
232 ,42.3557 ,1.01755 ,1.43831 ,14.11273 
233 ,42.5316 ,1.01934 ,1.42120 ,13.94484 
234 ,42.7076 ,1.02111 ,1.41436 ,13.87768 
235 ,42.8678 ,1.02285 ,1.41778 ,13.91126 
236 ,43.0440 ,1.02449 ,1.39040 ,13.64263 
237 ,43.2364 ,1.02643 ,1.36645 ,13.40759 
238 ,43.4284 ,1.02836 ,1.37671 ,13.50832 
239 ,43.6045 ,1.03013 ,1.35618 ,13.30685 
240 ,43.7803 ,1.03182 ,1.32196 ,12.97107 
241 ,43.9566 ,1.03368 ,1.31854 ,12.93749 
242 ,44.1327 ,1.03533 ,1.30143 ,12.76960 
243 ,44.3248 ,1.03721 ,1.29800 ,12.73602 
244 ,44.5167 ,1.03925 ,1.26720 ,12.43381 
245 ,44.6930 ,1.04100 ,1.25694 ,12.33308 
246 ,44.8687 ,1.04276 ,1.25009 ,12.26592 
247 ,45.0450 ,1.04450 ,1.24667 ,12.23235 
248 ,45.2211 ,1.04625 ,1.21587 ,11.93014 
249 ,45.4133 ,1.04811 ,1.19876 ,11.76225 
250 ,45.5894 ,1.04994 ,1.19534 ,11.72867 
251 ,45.7813 ,1.05176 ,1.16454 ,11.42647 
252 ,45.9736 ,1.05378 ,1.16454 ,11.42647 
253 ,46.1816 ,1.05577 ,1.14743 ,11.25857 
254 ,46.3736 ,1.05782 ,1.10979 ,10.88921 
255 ,46.5656 ,1.05961 ,1.11663 ,10.95637 
256 ,46.7738 ,1.06160 ,1.10294 ,10.82206 
257 ,46.9657 ,1.06370 ,1.09267 ,10.72132 
258 ,47.1419 ,1.06549 ,1.07214 ,10.51985 
259 ,47.3180 ,1.06722 ,1.05161 ,10.31838 
260 ,47.4941 ,1.06902 ,1.03792 ,10.18407 
261 ,47.6702 ,1.07075 ,1.04134 ,10.21765 
262 ,47.8622 ,1.07269 ,1.01054 ,9.91544 
263 ,48.0383 ,1.07441 ,0.99685 ,9.78113 
264 ,48.2303 ,1.07626 ,1.00028 ,9.81471 
265 ,48.4065 ,1.07811 ,0.97632 ,9.57966 
266 ,48.5985 ,1.08005 ,0.95921 ,9.41177 
267 ,48.7744 ,1.08177 ,0.94894 ,9.31103 
268 ,48.9505 ,1.08347 ,0.94894 ,9.31103 
269 ,49.1268 ,1.08530 ,0.92841 ,9.10956 
270 ,49.3508 ,1.08740 ,0.91472 ,8.97525 
271 ,49.5429 ,1.08942 ,0.89419 ,8.77378 
272 ,49.7188 ,1.09123 ,0.88050 ,8.63947 
273 ,49.8950 ,1.09299 ,0.86339 ,8.47158 
274 ,50.0708 ,1.09473 ,0.86339 ,8.47158 
275 ,50.2471 ,1.09650 ,0.84970 ,8.33726 
276 ,50.4553 ,1.09857 ,0.81890 ,8.03506 
277 ,50.6472 ,1.10044 ,0.80863 ,7.93432 
278 ,50.8234 ,1.10225 ,0.79152 ,7.76643 
279 ,50.9994 ,1.10398 ,0.76415 ,7.49780 
280 ,51.1752 ,1.10576 ,0.76757 ,7.53138 
281 ,51.3515 ,1.10749 ,0.76072 ,7.46423 
282 ,51.5438 ,1.10940 ,0.72650 ,7.12844 
283 ,51.7196 ,1.11126 ,0.71281 ,6.99413 
284 ,51.9119 ,1.11308 ,0.71624 ,7.02771 
285 ,52.1198 ,1.11515 ,0.68544 ,6.72550 
286 ,52.2960 ,1.11695 ,0.68544 ,6.72550 
287 ,52.4721 ,1.11876 ,0.67175 ,6.59119 
288 ,52.6482 ,1.12050 ,0.66490 ,6.52403 
289 ,52.8402 ,1.12233 ,0.63068 ,6.18825 
290 ,53.0163 ,1.12424 ,0.63410 ,6.22183 
291 ,53.1923 ,1.12587 ,0.63068 ,6.18825 
292 ,53.3684 ,1.12768 ,0.60330 ,5.91962 
293 ,53.5445 ,1.12946 ,0.58619 ,5.75173 
294 ,53.7205 ,1.13125 ,0.56908 ,5.58384 
295 ,53.8966 ,1.13307 ,0.56908 ,5.58384 
296 ,54.0887 ,1.13488 ,0.55197 ,5.41595 
297 ,54.2649 ,1.13670 ,0.53144 ,5.21448 
298 ,54.4569 ,1.13858 ,0.51433 ,5.04659 
299 ,54.6490 ,1.14049 ,0.51091 ,5.01301 
300 ,54.8251 ,1.14223 ,0.49380 ,4.84512 
301 ,55.0172 ,1.14411 ,0.48695 ,4.77796 
302 ,55.2091 ,1.14609 ,0.48353 ,4.74438 
303 ,55.3850 ,1.14780 ,0.45615 ,4.47576 
304 ,55.5614 ,1.14966 ,0.43904 ,4.30787 
305 ,55.7535 ,1.15157 ,0.43562 ,4.27429 
306 ,55.9456 ,1.15345 ,0.41166 ,4.03924 
307 ,56.1216 ,1.15524 ,0.39455 ,3.87135 
308 ,56.3137 ,1.15714 ,0.40140 ,3.93850 
309 ,56.5057 ,1.15909 ,0.36718 ,3.60272 
310 ,56.6816 ,1.16075 ,0.35691 ,3.50199 
311 ,56.8579 ,1.16253 ,0.35349 ,3.46841 
312 ,57.0341 ,1.16435 ,0.34664 ,3.40125 
313 ,57.2099 ,1.16609 ,0.33295 ,3.26694 
314 ,57.3862 ,1.16787 ,0.31584 ,3.09905 
315 ,57.5781 ,1.16982 ,0.30558 ,2.99831 
316 ,57.7701 ,1.17164 ,0.28847 ,2.83042 
317 ,57.9463 ,1.17343 ,0.27135 ,2.66253 
318 ,58.1224 ,1.17517 ,0.26793 ,2.62895 
319 ,58.3143 ,1.17712 ,0.25767 ,2.52822 
320 ,58.4904 ,1.17884 ,0.24398 ,2.39390 
321 ,58.6668 ,1.18065 ,0.22002 ,2.15885 
322 ,58.8747 ,1.18269 ,0.22344 ,2.19243 
323 ,59.0507 ,1.18444 ,0.21660 ,2.12528 
324 ,59.2266 ,1.18626 ,0.17553 ,1.72234 
325 ,59.4030 ,1.18805 ,0.16527 ,1.62160 
326 ,59.5790 ,1.18982 ,0.15500 ,1.52087 
327 ,59.7550 ,1.19154 ,0.14473 ,1.42013 
328 ,59.9310 ,1.19327 ,0.13789 ,1.35298 
329 ,60.1072 ,1.19506 ,0.11736 ,1.15151 
330 ,60.2830 ,1.19686 ,0.10025 ,0.98361 
331 ,60.4753 ,1.19875 ,0.10367 ,1.01719 
332 ,60.6671 ,1.20065 ,0.07629 ,0.74857 
333 ,60.8435 ,1.20245 ,0.06602 ,0.64783 
334 ,61.0355 ,1.20433 ,0.07287 ,0.71499 
335 ,61.2117 ,1.20611 ,0.05234 ,0.51352 
336 ,61.4194 ,1.20810 ,0.03522 ,0.34563 
337 ,61.5959 ,1.20990 ,0.02838 ,0.27847 
338 ,61.7878 ,1.21184 ,0.00785 ,0.07700 
339 ,61.9639 ,1.21362 ,-0.01269 ,-0.12447 
340 ,62.1560 ,1.21541 ,-0.02295 ,-0.22520 
341 ,62.3642 ,1.21754 ,-0.03322 ,-0.32594 
342 ,62.5401 ,1.21936 ,-0.05717 ,-0.56099 
343 ,62.7322 ,1.22126 ,-0.05033 ,-0.49383 
344 ,62.9082 ,1.22302 ,-0.05033 ,-0.49383 
345 ,63.1324 ,1.22518 ,-0.05375 ,-0.52741 
346 ,63.3241 ,1.22717 ,-0.08797 ,-0.86319 
347 ,63.4841 ,1.22894 ,-0.09482 ,-0.93035 
348 ,63.6604 ,1.23059 ,-0.10508 ,-1.03108 
349 ,63.8523 ,1.23242 ,-0.10166 ,-0.99751 
350 ,64.0288 ,1.23426 ,-0.10851 ,-1.06466 
351 ,64.2369 ,1.23623 ,-0.13931 ,-1.36687 
352 ,64.4129 ,1.23811 ,-0.12904 ,-1.26613 
353 ,64.5891 ,1.23983 ,-0.14273 ,-1.40045 
354 ,64.7810 ,1.24172 ,-0.16668 ,-1.63549 
355 ,64.9570 ,1.24351 ,-0.15299 ,-1.50118 
356 ,65.1333 ,1.24526 ,-0.16326 ,-1.60191 
357 ,65.3252 ,1.24713 ,-0.18379 ,-1.80338 
358 ,65.5171 ,1.24918 ,-0.18722 ,-1.83696 
359 ,65.6933 ,1.25085 ,-0.20090 ,-1.97128 
360 ,65.8854 ,1.25283 ,-0.22486 ,-2.20632 
361 ,66.0773 ,1.25471 ,-0.21459 ,-2.10559 
362 ,66.2695 ,1.25662 ,-0.24539 ,-2.40779 
363 ,66.4457 ,1.25842 ,-0.25908 ,-2.54211 
364 ,66.6378 ,1.26032 ,-0.25566 ,-2.50853 
365 ,66.8139 ,1.26214 ,-0.25908 ,-2.54211 
366 ,66.9901 ,1.26391 ,-0.27619 ,-2.71000 
367 ,67.1820 ,1.26573 ,-0.28646 ,-2.81073 
368 ,67.3581 ,1.26755 ,-0.29673 ,-2.91147 
369 ,67.5341 ,1.26925 ,-0.29673 ,-2.91147 
370 ,67.7101 ,1.27102 ,-0.32068 ,-3.14652 
371 ,67.8860 ,1.27280 ,-0.33779 ,-3.31441 
372 ,68.0624 ,1.27459 ,-0.35148 ,-3.44872 
373 ,68.2385 ,1.27635 ,-0.35490 ,-3.48230 
374 ,68.4141 ,1.27810 ,-0.35490 ,-3.48230 
375 ,68.5742 ,1.27984 ,-0.37201 ,-3.65019 
376 ,68.7342 ,1.28142 ,-0.37544 ,-3.68377 
377 ,68.9107 ,1.28304 ,-0.39255 ,-3.85166 
378 ,69.1187 ,1.28517 ,-0.38912 ,-3.81808 
379 ,69.3107 ,1.28702 ,-0.40966 ,-4.01955 
380 ,69.5188 ,1.28908 ,-0.42335 ,-4.15387 
381 ,69.6948 ,1.29090 ,-0.41992 ,-4.12029 
382 ,69.8871 ,1.29279 ,-0.45414 ,-4.45607 
383 ,70.0791 ,1.29473 ,-0.45072 ,-4.42249 
384 ,70.2548 ,1.29647 ,-0.45757 ,-4.48965 
385 ,70.4150 ,1.29822 ,-0.47810 ,-4.69112 
386 ,70.5750 ,1.29980 ,-0.47810 ,-4.69112 
387 ,70.7512 ,1.30150 ,-0.48494 ,-4.75828 
388 ,70.9275 ,1.30323 ,-0.50206 ,-4.92617 
389 ,71.1196 ,1.30510 ,-0.51232 ,-5.02690 
390 ,71.2954 ,1.30689 ,-0.51574 ,-5.06048 
391 ,71.4718 ,1.30870 ,-0.52601 ,-5.16121 
392 ,71.6639 ,1.31061 ,-0.53628 ,-5.26195 
393 ,71.8395 ,1.31237 ,-0.55681 ,-5.46342 
394 ,72.0161 ,1.31407 ,-0.55681 ,-5.46342 
395 ,72.1919 ,1.31587 ,-0.56365 ,-5.53058 
396 ,72.3677 ,1.31762 ,-0.58761 ,-5.76562 
397 ,72.5442 ,1.31938 ,-0.60130 ,-5.89994 
398 ,72.7362 ,1.32123 ,-0.59788 ,-5.86636 
399 ,72.9283 ,1.32323 ,-0.62183 ,-6.10141 
400 ,73.0883 ,1.32489 ,-0.62525 ,-6.13499 
401 ,73.2804 ,1.32677 ,-0.62183 ,-6.10141 
402 ,73.4564 ,1.32858 ,-0.63552 ,-6.23572 
403 ,73.6325 ,1.33024 ,-0.64579 ,-6.33646 
404 ,73.8086 ,1.33200 ,-0.64921 ,-6.37003 
405 ,73.9847 ,1.33378 ,-0.67316 ,-6.60508 
406 ,74.1608 ,1.33556 ,-0.67316 ,-6.60508 
407 ,74.3528 ,1.33750 ,-0.67659 ,-6.63866 
408 ,74.5289 ,1.33919 ,-0.70054 ,-6.87371 
409 ,74.7051 ,1.34091 ,-0.70054 ,-6.87371 
410 ,74.8810 ,1.34274 ,-0.71081 ,-6.97444 
411 ,75.0733 ,1.34458 ,-0.73134 ,-7.17591 
412 ,75.2493 ,1.34643 ,-0.72792 ,-7.14233 
413 ,75.4413 ,1.34836 ,-0.73476 ,-7.20949 
414 ,75.6171 ,1.35010 ,-0.73134 ,-7.17591 
415 ,75.7932 ,1.35184 ,-0.75530 ,-7.41096 
416 ,75.9694 ,1.35360 ,-0.77241 ,-7.57885 
417 ,76.1776 ,1.35561 ,-0.75872 ,-7.44454 
418 ,76.3535 ,1.35747 ,-0.76214 ,-7.47812 
419 ,76.5293 ,1.35919 ,-0.79978 ,-7.84748 
420 ,76.7056 ,1.36098 ,-0.79294 ,-7.78032 
421 ,76.9141 ,1.36296 ,-0.79636 ,-7.81390 
422 ,77.1058 ,1.36499 ,-0.81689 ,-8.01537 
423 ,77.2815 ,1.36669 ,-0.81005 ,-7.94821 
424 ,77.4580 ,1.36847 ,-0.80663 ,-7.91464 
425 ,77.6339 ,1.37026 ,-0.81689 ,-8.01537 
426 ,77.8258 ,1.37213 ,-0.84085 ,-8.25042 
427 ,78.0182 ,1.37405 ,-0.83401 ,-8.18326 
428 ,78.1942 ,1.37583 ,-0.85112 ,-8.35115 
429 ,78.3705 ,1.37759 ,-0.87507 ,-8.58620 
430 ,78.5625 ,1.37943 ,-0.88192 ,-8.65336 
431 ,78.7542 ,1.38146 ,-0.87165 ,-8.55262 
432 ,78.9305 ,1.38316 ,-0.89903 ,-8.82125 
433 ,79.1065 ,1.38496 ,-0.90587 ,-8.88841 
434 ,79.2828 ,1.38678 ,-0.91272 ,-8.95556 
435 ,79.4750 ,1.38867 ,-0.90929 ,-8.92198 
436 ,79.6507 ,1.39042 ,-0.92640 ,-9.08988 
437 ,79.8270 ,1.39216 ,-0.95378 ,-9.35850 
438 ,80.0031 ,1.39396 ,-0.94694 ,-9.29135 
439 ,80.1789 ,1.39570 ,-0.94351 ,-9.25777 
440 ,80.3549 ,1.39746 ,-0.95720 ,-9.39208 
441 ,80.5312 ,1.39921 ,-0.97431 ,-9.55997 
442 ,80.7233 ,1.40110 ,-0.97431 ,-9.55997 
443 ,80.8994 ,1.40288 ,-0.98116 ,-9.62713 
444 ,81.0757 ,1.40466 ,-0.98116 ,-9.62713 
445 ,81.2517 ,1.40641 ,-1.00169 ,-9.82860 
446 ,81.4277 ,1.40820 ,-1.01880 ,-9.99649 
447 ,81.6196 ,1.41003 ,-1.00854 ,-9.89576 
448 ,81.8118 ,1.41195 ,-1.04276 ,-10.23154 
449 ,81.9878 ,1.41383 ,-1.03249 ,-10.13080 
450 ,82.1800 ,1.41565 ,-1.03591 ,-10.16438 
451 ,82.3722 ,1.41759 ,-1.06329 ,-10.43301 
452 ,82.5482 ,1.41938 ,-1.07014 ,-10.50016 
453 ,82.7561 ,1.42128 ,-1.07014 ,-10.50016 
454 ,82.9478 ,1.42339 ,-1.09409 ,-10.73521 
455 ,83.1241 ,1.42518 ,-1.09409 ,-10.73521 
456 ,83.3164 ,1.42702 ,-1.08382 ,-10.63448 
457 ,83.5084 ,1.42900 ,-1.11462 ,-10.93668 
458 ,83.7005 ,1.43088 ,-1.10436 ,-10.83595 
459 ,83.8764 ,1.43263 ,-1.12147 ,-11.00384 
460 ,84.0523 ,1.43442 ,-1.13173 ,-11.10457 
461 ,84.2284 ,1.43617 ,-1.14884 ,-11.27247 
462 ,84.4205 ,1.43807 ,-1.13516 ,-11.13815 
