Data stamp = , 04-04-2022 18:34:52 740

Calibration Values: 
Slope = , 26.54 , g/V 
Offset Voltage at no contact = , -0.501760 , V 

No , Time , Stage Position ,   Mass , Force 
   ,  (s) ,      (mm)      ,   (g)  , (mN)  

1 ,0.0000 ,0.59946 ,5.10003 ,50.04151 
2 ,0.2119 ,0.59952 ,5.08977 ,49.94078 
3 ,0.5961 ,0.60067 ,5.10688 ,50.10867 
4 ,0.7727 ,0.60219 ,5.11030 ,50.14225 
5 ,0.9487 ,0.60373 ,5.10003 ,50.04151 
6 ,1.1725 ,0.60577 ,5.09319 ,49.97436 
7 ,1.3487 ,0.60764 ,5.09661 ,50.00793 
8 ,1.5249 ,0.60946 ,5.10345 ,50.07509 
9 ,1.7169 ,0.61140 ,5.08977 ,49.94078 
10 ,1.8929 ,0.61314 ,5.06923 ,49.73931 
11 ,2.0691 ,0.61494 ,5.04870 ,49.53784 
12 ,2.2612 ,0.61682 ,5.04870 ,49.53784 
13 ,2.4373 ,0.61866 ,5.02474 ,49.30279 
14 ,2.6294 ,0.62048 ,5.02132 ,49.26921 
15 ,2.8053 ,0.62229 ,4.99394 ,49.00058 
16 ,2.9974 ,0.62414 ,4.98026 ,48.86627 
17 ,3.1892 ,0.62601 ,4.96315 ,48.69838 
18 ,3.3817 ,0.62794 ,4.94603 ,48.53049 
19 ,3.5733 ,0.63003 ,4.93577 ,48.42975 
20 ,3.7498 ,0.63169 ,4.90497 ,48.12755 
21 ,3.9257 ,0.63354 ,4.90839 ,48.16113 
22 ,4.1019 ,0.63523 ,4.88786 ,47.95966 
23 ,4.2775 ,0.63702 ,4.86732 ,47.75819 
24 ,4.4541 ,0.63877 ,4.82968 ,47.38883 
25 ,4.6620 ,0.64077 ,4.83652 ,47.45598 
26 ,4.8380 ,0.64256 ,4.81257 ,47.22093 
27 ,5.0139 ,0.64434 ,4.78519 ,46.95231 
28 ,5.2063 ,0.64621 ,4.77835 ,46.88515 
29 ,5.4143 ,0.64834 ,4.74413 ,46.54937 
30 ,5.5904 ,0.65014 ,4.73728 ,46.48221 
31 ,5.7503 ,0.65183 ,4.73728 ,46.48221 
32 ,5.9425 ,0.65360 ,4.70990 ,46.21359 
33 ,6.1345 ,0.65554 ,4.67911 ,45.91138 
34 ,6.3425 ,0.65753 ,4.67226 ,45.84422 
35 ,6.5188 ,0.65944 ,4.65515 ,45.67633 
36 ,6.7269 ,0.66141 ,4.64146 ,45.54202 
37 ,6.9350 ,0.66354 ,4.60382 ,45.17266 
38 ,7.1266 ,0.66542 ,4.59697 ,45.10550 
39 ,7.3028 ,0.66721 ,4.58328 ,44.97119 
40 ,7.4628 ,0.66893 ,4.54906 ,44.63541 
41 ,7.6393 ,0.67065 ,4.53195 ,44.46751 
42 ,7.8474 ,0.67265 ,4.52853 ,44.43394 
43 ,8.0395 ,0.67457 ,4.49431 ,44.09815 
44 ,8.2152 ,0.67636 ,4.48404 ,43.99742 
45 ,8.3915 ,0.67811 ,4.47378 ,43.89668 
46 ,8.5516 ,0.67982 ,4.46009 ,43.76237 
47 ,8.7275 ,0.68144 ,4.44298 ,43.59448 
48 ,8.9034 ,0.68321 ,4.43271 ,43.49374 
49 ,9.0800 ,0.68496 ,4.41902 ,43.35943 
50 ,9.2720 ,0.68693 ,4.39849 ,43.15796 
51 ,9.4641 ,0.68878 ,4.38480 ,43.02365 
52 ,9.6400 ,0.69062 ,4.35058 ,42.68786 
53 ,9.8159 ,0.69237 ,4.33347 ,42.51997 
54 ,9.9919 ,0.69413 ,4.32662 ,42.45282 
55 ,10.1518 ,0.69584 ,4.33004 ,42.48639 
56 ,10.3278 ,0.69746 ,4.30951 ,42.28492 
57 ,10.5043 ,0.69925 ,4.30609 ,42.25135 
58 ,10.7123 ,0.70126 ,4.27529 ,41.94914 
59 ,10.8883 ,0.70307 ,4.27529 ,41.94914 
60 ,11.0647 ,0.70486 ,4.25476 ,41.74767 
61 ,11.2566 ,0.70677 ,4.21369 ,41.34473 
62 ,11.4328 ,0.70849 ,4.19658 ,41.17684 
63 ,11.6248 ,0.71043 ,4.20685 ,41.27758 
64 ,11.8010 ,0.71218 ,4.17947 ,41.00895 
65 ,11.9931 ,0.71410 ,4.15551 ,40.77390 
66 ,12.1692 ,0.71591 ,4.14183 ,40.63959 
67 ,12.3769 ,0.71782 ,4.11787 ,40.40454 
68 ,12.5534 ,0.71971 ,4.09734 ,40.20307 
69 ,12.7611 ,0.72177 ,4.07338 ,39.96802 
70 ,12.9373 ,0.72352 ,4.05969 ,39.83371 
71 ,13.1135 ,0.72532 ,4.05627 ,39.80013 
72 ,13.2896 ,0.72707 ,4.04258 ,39.66582 
73 ,13.4655 ,0.72882 ,4.03574 ,39.59866 
74 ,13.6417 ,0.73063 ,4.00836 ,39.33003 
75 ,13.8014 ,0.73231 ,3.98783 ,39.12856 
76 ,13.9778 ,0.73397 ,3.97072 ,38.96067 
77 ,14.1700 ,0.73589 ,3.96729 ,38.92709 
78 ,14.3459 ,0.73767 ,3.96045 ,38.85994 
79 ,14.5221 ,0.73937 ,3.93650 ,38.62489 
80 ,14.6982 ,0.74118 ,3.91254 ,38.38984 
81 ,14.8898 ,0.74300 ,3.90912 ,38.35626 
82 ,15.0663 ,0.74484 ,3.89543 ,38.22195 
83 ,15.2424 ,0.74659 ,3.85779 ,37.85259 
84 ,15.4186 ,0.74840 ,3.85779 ,37.85259 
85 ,15.6103 ,0.75031 ,3.84752 ,37.75185 
86 ,15.7866 ,0.75204 ,3.83041 ,37.58396 
87 ,15.9463 ,0.75379 ,3.80645 ,37.34891 
88 ,16.1228 ,0.75539 ,3.77565 ,37.04671 
89 ,16.2986 ,0.75717 ,3.76196 ,36.91240 
90 ,16.4750 ,0.75891 ,3.76539 ,36.94597 
91 ,16.6510 ,0.76070 ,3.74485 ,36.74450 
92 ,16.8432 ,0.76261 ,3.73117 ,36.61019 
93 ,17.0191 ,0.76439 ,3.70379 ,36.34157 
94 ,17.1952 ,0.76615 ,3.69352 ,36.24083 
95 ,17.3872 ,0.76800 ,3.67641 ,36.07294 
96 ,17.5633 ,0.76975 ,3.66272 ,35.93863 
97 ,17.7393 ,0.77157 ,3.62508 ,35.56926 
98 ,17.9314 ,0.77342 ,3.60454 ,35.36779 
99 ,18.1076 ,0.77523 ,3.61139 ,35.43495 
100 ,18.2838 ,0.77698 ,3.59428 ,35.26706 
101 ,18.4593 ,0.77879 ,3.55663 ,34.89770 
102 ,18.6356 ,0.78048 ,3.54637 ,34.79696 
103 ,18.8120 ,0.78228 ,3.55321 ,34.86412 
104 ,19.0038 ,0.78414 ,3.51899 ,34.52834 
105 ,19.1960 ,0.78605 ,3.50188 ,34.36045 
106 ,19.3721 ,0.78788 ,3.49161 ,34.25971 
107 ,19.5482 ,0.78963 ,3.47792 ,34.12540 
108 ,19.7403 ,0.79144 ,3.46424 ,33.99108 
109 ,19.9159 ,0.79335 ,3.41633 ,33.52099 
110 ,20.0925 ,0.79510 ,3.42659 ,33.62172 
111 ,20.2847 ,0.79695 ,3.39921 ,33.35310 
112 ,20.4923 ,0.79905 ,3.39237 ,33.28594 
113 ,20.6686 ,0.80085 ,3.38895 ,33.25236 
114 ,20.8446 ,0.80257 ,3.34788 ,32.84942 
115 ,21.0208 ,0.80437 ,3.34446 ,32.81584 
116 ,21.2124 ,0.80626 ,3.32393 ,32.61437 
117 ,21.3886 ,0.80804 ,3.31024 ,32.48006 
118 ,21.5812 ,0.80993 ,3.27944 ,32.17786 
119 ,21.7730 ,0.81187 ,3.27259 ,32.11070 
120 ,21.9492 ,0.81359 ,3.25891 ,31.97639 
121 ,22.1254 ,0.81540 ,3.22811 ,31.67418 
122 ,22.3011 ,0.81716 ,3.20757 ,31.47271 
123 ,22.4772 ,0.81891 ,3.19046 ,31.30482 
124 ,22.6696 ,0.82084 ,3.18362 ,31.23766 
125 ,22.8613 ,0.82272 ,3.14597 ,30.86830 
126 ,23.0537 ,0.82464 ,3.15624 ,30.96904 
127 ,23.2297 ,0.82642 ,3.13913 ,30.80115 
128 ,23.4217 ,0.82839 ,3.10491 ,30.46536 
129 ,23.5979 ,0.83008 ,3.09806 ,30.39821 
130 ,23.7899 ,0.83205 ,3.07069 ,30.12958 
131 ,23.9659 ,0.83377 ,3.06384 ,30.06242 
132 ,24.1257 ,0.83550 ,3.01251 ,29.55875 
133 ,24.3022 ,0.83716 ,2.99198 ,29.35728 
134 ,24.4942 ,0.83906 ,3.00567 ,29.49159 
135 ,24.7501 ,0.84120 ,2.98171 ,29.25654 
136 ,24.9263 ,0.84339 ,2.96118 ,29.05507 
137 ,25.1185 ,0.84531 ,2.92011 ,28.65213 
138 ,25.3106 ,0.84720 ,2.92353 ,28.68571 
139 ,25.5026 ,0.84908 ,2.88589 ,28.31635 
140 ,25.6788 ,0.85095 ,2.87562 ,28.21562 
141 ,25.8708 ,0.85280 ,2.87220 ,28.18204 
142 ,26.0469 ,0.85461 ,2.84825 ,27.94699 
143 ,26.2230 ,0.85637 ,2.82429 ,27.71194 
144 ,26.3990 ,0.85812 ,2.80718 ,27.54405 
145 ,26.5748 ,0.85991 ,2.78322 ,27.30900 
146 ,26.7512 ,0.86165 ,2.79349 ,27.40974 
147 ,26.9431 ,0.86356 ,2.76611 ,27.14111 
148 ,27.1192 ,0.86528 ,2.74216 ,26.90606 
149 ,27.3114 ,0.86719 ,2.73874 ,26.87248 
150 ,27.5031 ,0.86911 ,2.70452 ,26.53670 
151 ,27.6635 ,0.87086 ,2.69083 ,26.40239 
152 ,27.8396 ,0.87251 ,2.67372 ,26.23450 
153 ,28.0317 ,0.87445 ,2.66687 ,26.16734 
154 ,28.2077 ,0.87622 ,2.66003 ,26.10018 
155 ,28.3994 ,0.87797 ,2.62238 ,25.73082 
156 ,28.6079 ,0.88013 ,2.61212 ,25.63009 
157 ,28.8000 ,0.88210 ,2.58474 ,25.36146 
158 ,28.9757 ,0.88392 ,2.55394 ,25.05926 
159 ,29.1522 ,0.88563 ,2.56763 ,25.19357 
160 ,29.3440 ,0.88753 ,2.52998 ,24.82421 
161 ,29.5201 ,0.88930 ,2.51287 ,24.65632 
162 ,29.6962 ,0.89108 ,2.49576 ,24.48842 
163 ,29.8885 ,0.89293 ,2.49918 ,24.52200 
164 ,30.0964 ,0.89507 ,2.46839 ,24.21980 
165 ,30.2886 ,0.89695 ,2.46154 ,24.15264 
166 ,30.4966 ,0.89893 ,2.43074 ,23.85044 
167 ,30.6727 ,0.90086 ,2.43416 ,23.88402 
168 ,30.8648 ,0.90271 ,2.40679 ,23.61539 
169 ,31.0569 ,0.90466 ,2.38968 ,23.44750 
170 ,31.2489 ,0.90648 ,2.36572 ,23.21245 
171 ,31.4251 ,0.90833 ,2.35545 ,23.11171 
172 ,31.6012 ,0.91013 ,2.32808 ,22.84309 
173 ,31.7933 ,0.91199 ,2.33150 ,22.87667 
174 ,31.9691 ,0.91381 ,2.30070 ,22.57446 
175 ,32.1614 ,0.91558 ,2.28017 ,22.37299 
176 ,32.3535 ,0.91763 ,2.26306 ,22.20510 
177 ,32.5454 ,0.91950 ,2.25963 ,22.17152 
178 ,32.7217 ,0.92134 ,2.21172 ,21.70143 
179 ,32.9292 ,0.92339 ,2.23910 ,21.97005 
180 ,33.1057 ,0.92521 ,2.19461 ,21.53353 
181 ,33.2818 ,0.92689 ,2.18092 ,21.39922 
182 ,33.4580 ,0.92868 ,2.15697 ,21.16417 
183 ,33.6338 ,0.93045 ,2.15697 ,21.16417 
184 ,33.8100 ,0.93217 ,2.15012 ,21.09702 
185 ,33.9859 ,0.93394 ,2.12959 ,20.89555 
186 ,34.1622 ,0.93568 ,2.10221 ,20.62692 
187 ,34.3544 ,0.93762 ,2.09195 ,20.52619 
188 ,34.5302 ,0.93942 ,2.08168 ,20.42545 
189 ,34.7062 ,0.94114 ,2.07484 ,20.35829 
190 ,34.8825 ,0.94294 ,2.04404 ,20.05609 
191 ,35.0422 ,0.94463 ,2.02008 ,19.82104 
192 ,35.2185 ,0.94630 ,2.01666 ,19.78746 
193 ,35.4107 ,0.94821 ,2.01666 ,19.78746 
194 ,35.5868 ,0.94995 ,1.99613 ,19.58599 
195 ,35.7628 ,0.95171 ,1.97559 ,19.38452 
196 ,35.9389 ,0.95346 ,1.95848 ,19.21663 
197 ,36.1306 ,0.95540 ,1.95848 ,19.21663 
198 ,36.3071 ,0.95718 ,1.94479 ,19.08232 
199 ,36.4992 ,0.95909 ,1.91399 ,18.78011 
200 ,36.6751 ,0.96088 ,1.90031 ,18.64580 
201 ,36.8672 ,0.96272 ,1.87635 ,18.41075 
202 ,37.0594 ,0.96458 ,1.86608 ,18.31002 
203 ,37.2512 ,0.96662 ,1.85582 ,18.20928 
204 ,37.4274 ,0.96837 ,1.83528 ,18.00781 
205 ,37.6036 ,0.97012 ,1.81133 ,17.77276 
206 ,37.7796 ,0.97190 ,1.81475 ,17.80634 
207 ,37.9557 ,0.97359 ,1.80106 ,17.67203 
208 ,38.1316 ,0.97538 ,1.78395 ,17.50414 
209 ,38.2917 ,0.97712 ,1.76342 ,17.30267 
210 ,38.4680 ,0.97875 ,1.75315 ,17.20193 
211 ,38.6440 ,0.98051 ,1.73604 ,17.03404 
212 ,38.8200 ,0.98229 ,1.71551 ,16.83257 
213 ,38.9958 ,0.98404 ,1.71551 ,16.83257 
214 ,39.1721 ,0.98583 ,1.69498 ,16.63110 
215 ,39.3482 ,0.98755 ,1.68129 ,16.49679 
216 ,39.5402 ,0.98945 ,1.66760 ,16.36248 
217 ,39.7163 ,0.99124 ,1.64364 ,16.12743 
218 ,39.9085 ,0.99319 ,1.64022 ,16.09385 
219 ,40.0847 ,0.99491 ,1.60942 ,15.79164 
220 ,40.2766 ,0.99679 ,1.59916 ,15.69091 
221 ,40.4527 ,0.99859 ,1.59916 ,15.69091 
222 ,40.6286 ,1.00039 ,1.57520 ,15.45586 
223 ,40.8049 ,1.00208 ,1.54440 ,15.15366 
224 ,40.9966 ,1.00408 ,1.54782 ,15.18724 
225 ,41.1731 ,1.00582 ,1.54098 ,15.12008 
226 ,41.3648 ,1.00773 ,1.50333 ,14.75072 
227 ,41.5412 ,1.00950 ,1.49307 ,14.64998 
228 ,41.7172 ,1.01127 ,1.47596 ,14.48209 
229 ,41.8932 ,1.01303 ,1.47596 ,14.48209 
230 ,42.0693 ,1.01478 ,1.45885 ,14.31420 
231 ,42.2455 ,1.01653 ,1.44174 ,14.14631 
232 ,42.4216 ,1.01829 ,1.41778 ,13.91126 
233 ,42.6133 ,1.02017 ,1.41094 ,13.84410 
234 ,42.8057 ,1.02211 ,1.39725 ,13.70979 
235 ,42.9974 ,1.02404 ,1.39383 ,13.67621 
236 ,43.1738 ,1.02583 ,1.37329 ,13.47474 
237 ,43.3819 ,1.02781 ,1.33565 ,13.10538 
238 ,43.5739 ,1.02985 ,1.32196 ,12.97107 
239 ,43.7500 ,1.03153 ,1.31169 ,12.87033 
240 ,43.9259 ,1.03332 ,1.30143 ,12.76960 
241 ,44.1183 ,1.03529 ,1.29458 ,12.70244 
242 ,44.3102 ,1.03707 ,1.30485 ,12.80318 
243 ,44.5022 ,1.03909 ,1.26720 ,12.43381 
244 ,44.6785 ,1.04087 ,1.25009 ,12.26592 
245 ,44.8702 ,1.04282 ,1.22956 ,12.06445 
246 ,45.0303 ,1.04450 ,1.21245 ,11.89656 
247 ,45.2065 ,1.04610 ,1.19192 ,11.69509 
248 ,45.3825 ,1.04790 ,1.19876 ,11.76225 
249 ,45.5587 ,1.04960 ,1.19192 ,11.69509 
250 ,45.7345 ,1.05138 ,1.17138 ,11.49362 
251 ,45.9268 ,1.05330 ,1.14058 ,11.19142 
252 ,46.1189 ,1.05523 ,1.15770 ,11.35931 
253 ,46.3268 ,1.05718 ,1.14058 ,11.19142 
254 ,46.5189 ,1.05921 ,1.11663 ,10.95637 
255 ,46.6948 ,1.06095 ,1.09267 ,10.72132 
256 ,46.8712 ,1.06279 ,1.07214 ,10.51985 
257 ,47.0633 ,1.06469 ,1.06530 ,10.45270 
258 ,47.2393 ,1.06646 ,1.05845 ,10.38554 
259 ,47.4473 ,1.06846 ,1.03108 ,10.11691 
260 ,47.6236 ,1.07028 ,1.00712 ,9.88186 
261 ,47.7995 ,1.07203 ,1.01396 ,9.94902 
262 ,47.9756 ,1.07377 ,1.00712 ,9.88186 
263 ,48.1516 ,1.07559 ,0.97632 ,9.57966 
264 ,48.3276 ,1.07729 ,0.95237 ,9.34461 
265 ,48.5038 ,1.07907 ,0.95921 ,9.41177 
266 ,48.6798 ,1.08085 ,0.94210 ,9.24388 
267 ,48.8399 ,1.08254 ,0.92499 ,9.07598 
268 ,49.0156 ,1.08417 ,0.91814 ,9.00883 
269 ,49.2081 ,1.08605 ,0.89761 ,8.80736 
270 ,49.3999 ,1.08804 ,0.88734 ,8.70662 
271 ,49.5761 ,1.08980 ,0.88050 ,8.63947 
272 ,49.7524 ,1.09156 ,0.85654 ,8.40442 
273 ,49.9284 ,1.09337 ,0.83259 ,8.16937 
274 ,50.1205 ,1.09522 ,0.84628 ,8.30368 
275 ,50.3125 ,1.09719 ,0.81206 ,7.96790 
276 ,50.4886 ,1.09892 ,0.79152 ,7.76643 
277 ,50.6648 ,1.10064 ,0.79152 ,7.76643 
278 ,50.8568 ,1.10266 ,0.78126 ,7.66570 
279 ,51.0487 ,1.10454 ,0.75388 ,7.39707 
280 ,51.2250 ,1.10624 ,0.73677 ,7.22918 
281 ,51.4169 ,1.10815 ,0.74019 ,7.26276 
282 ,51.5931 ,1.10999 ,0.71281 ,6.99413 
283 ,51.7689 ,1.11177 ,0.70255 ,6.89340 
284 ,51.9611 ,1.11359 ,0.70597 ,6.92697 
285 ,52.1373 ,1.11538 ,0.68201 ,6.69193 
286 ,52.3293 ,1.11730 ,0.65464 ,6.42330 
287 ,52.5055 ,1.11908 ,0.65121 ,6.38972 
288 ,52.6976 ,1.12098 ,0.64437 ,6.32256 
289 ,52.8736 ,1.12277 ,0.63410 ,6.22183 
290 ,53.0652 ,1.12459 ,0.59646 ,5.85247 
291 ,53.2418 ,1.12646 ,0.59304 ,5.81889 
292 ,53.4338 ,1.12834 ,0.56908 ,5.58384 
293 ,53.6259 ,1.13020 ,0.56908 ,5.58384 
294 ,53.8179 ,1.13219 ,0.55539 ,5.44953 
295 ,53.9940 ,1.13398 ,0.53486 ,5.24806 
296 ,54.1861 ,1.13580 ,0.53144 ,5.21448 
297 ,54.3621 ,1.13761 ,0.51433 ,5.04659 
298 ,54.5381 ,1.13937 ,0.50748 ,4.97943 
299 ,54.7463 ,1.14132 ,0.48353 ,4.74438 
300 ,54.9220 ,1.14329 ,0.46300 ,4.54291 
301 ,55.1141 ,1.14507 ,0.44931 ,4.40860 
302 ,55.2902 ,1.14694 ,0.44931 ,4.40860 
303 ,55.4662 ,1.14874 ,0.42877 ,4.20713 
304 ,55.6584 ,1.15052 ,0.42193 ,4.13997 
305 ,55.8666 ,1.15262 ,0.40482 ,3.97208 
306 ,56.0587 ,1.15452 ,0.40140 ,3.93850 
307 ,56.2344 ,1.15641 ,0.38429 ,3.77061 
308 ,56.4107 ,1.15814 ,0.36033 ,3.53557 
309 ,56.5872 ,1.15994 ,0.35349 ,3.46841 
310 ,56.7470 ,1.16158 ,0.36375 ,3.56914 
311 ,56.9391 ,1.16330 ,0.34322 ,3.36767 
312 ,57.1153 ,1.16518 ,0.32269 ,3.16620 
313 ,57.2912 ,1.16695 ,0.29531 ,2.89758 
314 ,57.4674 ,1.16871 ,0.29189 ,2.86400 
315 ,57.6432 ,1.17048 ,0.29189 ,2.86400 
316 ,57.8196 ,1.17224 ,0.28504 ,2.79684 
317 ,58.0276 ,1.17421 ,0.26451 ,2.59537 
318 ,58.2037 ,1.17606 ,0.23713 ,2.32675 
319 ,58.3795 ,1.17781 ,0.24398 ,2.39390 
320 ,58.5559 ,1.17957 ,0.22687 ,2.22601 
321 ,58.7478 ,1.18147 ,0.20976 ,2.05812 
322 ,58.9241 ,1.18327 ,0.19949 ,1.95738 
323 ,59.1319 ,1.18527 ,0.17553 ,1.72234 
324 ,59.3081 ,1.18705 ,0.17211 ,1.68876 
325 ,59.4843 ,1.18883 ,0.16869 ,1.65518 
326 ,59.6604 ,1.19060 ,0.16185 ,1.58802 
327 ,59.8363 ,1.19238 ,0.13447 ,1.31940 
328 ,60.0286 ,1.19431 ,0.11393 ,1.11793 
329 ,60.2045 ,1.19606 ,0.10367 ,1.01719 
330 ,60.3808 ,1.19783 ,0.10367 ,1.01719 
331 ,60.5407 ,1.19952 ,0.08998 ,0.88288 
332 ,60.7167 ,1.20113 ,0.07971 ,0.78214 
333 ,60.8929 ,1.20292 ,0.05234 ,0.51352 
334 ,61.0687 ,1.20473 ,0.04891 ,0.47994 
335 ,61.2449 ,1.20642 ,0.05234 ,0.51352 
336 ,61.4210 ,1.20820 ,0.03180 ,0.31205 
337 ,61.5809 ,1.20993 ,0.02154 ,0.21131 
338 ,61.7572 ,1.21159 ,0.00443 ,0.04342 
339 ,61.9493 ,1.21349 ,-0.01269 ,-0.12447 
340 ,62.1253 ,1.21521 ,-0.01269 ,-0.12447 
341 ,62.3014 ,1.21703 ,-0.01269 ,-0.12447 
342 ,62.4776 ,1.21876 ,-0.05033 ,-0.49383 
343 ,62.6537 ,1.22050 ,-0.05717 ,-0.56099 
344 ,62.8297 ,1.22232 ,-0.06744 ,-0.66172 
345 ,63.0378 ,1.22422 ,-0.06060 ,-0.59457 
346 ,63.2299 ,1.22630 ,-0.09140 ,-0.89677 
347 ,63.4220 ,1.22824 ,-0.09482 ,-0.93035 
348 ,63.5981 ,1.23000 ,-0.10166 ,-0.99751 
349 ,63.7737 ,1.23177 ,-0.12904 ,-1.26613 
350 ,63.9502 ,1.23352 ,-0.13931 ,-1.36687 
351 ,64.1261 ,1.23525 ,-0.14957 ,-1.46760 
352 ,64.3023 ,1.23700 ,-0.13588 ,-1.33329 
353 ,64.4785 ,1.23881 ,-0.15299 ,-1.50118 
354 ,64.6706 ,1.24057 ,-0.17695 ,-1.73623 
355 ,64.8625 ,1.24255 ,-0.17011 ,-1.66907 
356 ,65.0384 ,1.24432 ,-0.18379 ,-1.80338 
357 ,65.2147 ,1.24615 ,-0.19748 ,-1.93770 
358 ,65.4068 ,1.24805 ,-0.22144 ,-2.17275 
359 ,65.6149 ,1.24999 ,-0.23170 ,-2.27348 
360 ,65.7905 ,1.25189 ,-0.24881 ,-2.44137 
361 ,65.9670 ,1.25364 ,-0.23513 ,-2.30706 
362 ,66.1591 ,1.25552 ,-0.25224 ,-2.47495 
363 ,66.3351 ,1.25733 ,-0.27961 ,-2.74358 
364 ,66.5112 ,1.25912 ,-0.27961 ,-2.74358 
365 ,66.6709 ,1.26080 ,-0.27961 ,-2.74358 
366 ,66.8470 ,1.26240 ,-0.27961 ,-2.74358 
367 ,67.0394 ,1.26434 ,-0.31041 ,-3.04578 
368 ,67.2311 ,1.26625 ,-0.31726 ,-3.11294 
369 ,67.3911 ,1.26800 ,-0.34121 ,-3.34799 
370 ,67.5676 ,1.26971 ,-0.33095 ,-3.24725 
371 ,67.7597 ,1.27157 ,-0.33779 ,-3.31441 
372 ,67.9355 ,1.27331 ,-0.35148 ,-3.44872 
373 ,68.1117 ,1.27508 ,-0.36517 ,-3.58303 
374 ,68.3039 ,1.27701 ,-0.36175 ,-3.54946 
375 ,68.4803 ,1.27880 ,-0.37544 ,-3.68377 
376 ,68.6882 ,1.28070 ,-0.39255 ,-3.85166 
377 ,68.8642 ,1.28262 ,-0.39597 ,-3.88524 
378 ,69.0401 ,1.28450 ,-0.41650 ,-4.08671 
379 ,69.2161 ,1.28610 ,-0.43361 ,-4.25460 
380 ,69.3924 ,1.28788 ,-0.44388 ,-4.35534 
381 ,69.5844 ,1.28982 ,-0.43361 ,-4.25460 
382 ,69.7606 ,1.29151 ,-0.45414 ,-4.45607 
383 ,69.9524 ,1.29352 ,-0.46783 ,-4.59038 
384 ,70.1284 ,1.29527 ,-0.48152 ,-4.72470 
385 ,70.3045 ,1.29696 ,-0.47468 ,-4.65754 
386 ,70.4804 ,1.29878 ,-0.48494 ,-4.75828 
387 ,70.6403 ,1.30050 ,-0.50548 ,-4.95975 
388 ,70.8164 ,1.30214 ,-0.51232 ,-5.02690 
389 ,70.9927 ,1.30392 ,-0.51574 ,-5.06048 
390 ,71.2170 ,1.30610 ,-0.52259 ,-5.12764 
391 ,71.4092 ,1.30798 ,-0.51917 ,-5.09406 
392 ,71.6012 ,1.30996 ,-0.52259 ,-5.12764 
393 ,71.7771 ,1.31179 ,-0.53628 ,-5.26195 
394 ,71.9534 ,1.31345 ,-0.55681 ,-5.46342 
395 ,72.1453 ,1.31540 ,-0.54312 ,-5.32911 
396 ,72.3214 ,1.31718 ,-0.55339 ,-5.42984 
397 ,72.5133 ,1.31907 ,-0.57734 ,-5.66489 
398 ,72.6893 ,1.32084 ,-0.59788 ,-5.86636 
399 ,72.8652 ,1.32262 ,-0.59103 ,-5.79920 
400 ,73.0413 ,1.32434 ,-0.60472 ,-5.93352 
401 ,73.2334 ,1.32622 ,-0.63210 ,-6.20214 
402 ,73.4098 ,1.32807 ,-0.61841 ,-6.06783 
403 ,73.6020 ,1.32995 ,-0.62525 ,-6.13499 
404 ,73.7780 ,1.33174 ,-0.65263 ,-6.40361 
405 ,73.9541 ,1.33346 ,-0.65263 ,-6.40361 
406 ,74.1301 ,1.33522 ,-0.65605 ,-6.43719 
407 ,74.3061 ,1.33700 ,-0.65947 ,-6.47077 
408 ,74.4827 ,1.33877 ,-0.66974 ,-6.57150 
409 ,74.6584 ,1.34054 ,-0.69370 ,-6.80655 
410 ,74.8345 ,1.34229 ,-0.70054 ,-6.87371 
411 ,75.0107 ,1.34406 ,-0.70739 ,-6.94086 
412 ,75.1866 ,1.34578 ,-0.71765 ,-7.04160 
413 ,75.3624 ,1.34755 ,-0.72792 ,-7.14233 
414 ,75.5389 ,1.34938 ,-0.73476 ,-7.20949 
415 ,75.7307 ,1.35123 ,-0.74503 ,-7.31023 
416 ,75.9229 ,1.35309 ,-0.75530 ,-7.41096 
417 ,76.0989 ,1.35491 ,-0.77241 ,-7.57885 
418 ,76.2751 ,1.35665 ,-0.79294 ,-7.78032 
419 ,76.4509 ,1.35841 ,-0.78267 ,-7.67959 
420 ,76.6272 ,1.36018 ,-0.79294 ,-7.78032 
421 ,76.8034 ,1.36198 ,-0.79978 ,-7.84748 
422 ,76.9797 ,1.36378 ,-0.81689 ,-8.01537 
423 ,77.1715 ,1.36566 ,-0.82032 ,-8.04895 
424 ,77.3476 ,1.36738 ,-0.82374 ,-8.08253 
425 ,77.5395 ,1.36936 ,-0.83743 ,-8.21684 
426 ,77.7155 ,1.37108 ,-0.84769 ,-8.31758 
427 ,77.8919 ,1.37286 ,-0.85454 ,-8.38473 
428 ,78.0999 ,1.37480 ,-0.85796 ,-8.41831 
429 ,78.2761 ,1.37669 ,-0.88876 ,-8.72051 
430 ,78.4682 ,1.37861 ,-0.87849 ,-8.61978 
431 ,78.6441 ,1.38044 ,-0.91956 ,-9.02272 
432 ,78.8362 ,1.38226 ,-0.90587 ,-8.88841 
433 ,79.0122 ,1.38411 ,-0.91614 ,-8.98914 
434 ,79.2043 ,1.38593 ,-0.92298 ,-9.05630 
435 ,79.3804 ,1.38774 ,-0.93667 ,-9.19061 
436 ,79.5565 ,1.38944 ,-0.94351 ,-9.25777 
437 ,79.7486 ,1.39140 ,-0.95378 ,-9.35850 
438 ,79.9566 ,1.39345 ,-0.96063 ,-9.42566 
439 ,80.1326 ,1.39523 ,-0.97431 ,-9.55997 
440 ,80.3407 ,1.39718 ,-0.96747 ,-9.49282 
441 ,80.5488 ,1.39930 ,-0.98116 ,-9.62713 
442 ,80.7088 ,1.40110 ,-0.99143 ,-9.72786 
443 ,80.8849 ,1.40275 ,-0.99485 ,-9.76144 
444 ,81.0611 ,1.40453 ,-1.02565 ,-10.06365 
445 ,81.2692 ,1.40648 ,-1.01196 ,-9.92933 
446 ,81.4451 ,1.40839 ,-1.02565 ,-10.06365 
447 ,81.6213 ,1.41014 ,-1.04618 ,-10.26512 
448 ,81.8133 ,1.41204 ,-1.04618 ,-10.26512 
449 ,82.0054 ,1.41395 ,-1.05987 ,-10.39943 
450 ,82.1816 ,1.41574 ,-1.07356 ,-10.53374 
451 ,82.3413 ,1.41747 ,-1.08040 ,-10.60090 
452 ,82.5335 ,1.41916 ,-1.07356 ,-10.53374 
453 ,82.7096 ,1.42099 ,-1.08040 ,-10.60090 
454 ,82.8856 ,1.42271 ,-1.09409 ,-10.73521 
455 ,83.0780 ,1.42473 ,-1.12831 ,-11.07100 
456 ,83.2699 ,1.42660 ,-1.10093 ,-10.80237 
457 ,83.4618 ,1.42849 ,-1.13858 ,-11.17173 
458 ,83.6540 ,1.43040 ,-1.12147 ,-11.00384 
459 ,83.8300 ,1.43221 ,-1.14542 ,-11.23889 
460 ,84.0062 ,1.43396 ,-1.13858 ,-11.17173 
461 ,84.1982 ,1.43588 ,-1.16938 ,-11.47394 
462 ,84.3744 ,1.43767 ,-1.16596 ,-11.44036 
