Data stamp = , 04-04-2022 21:34:26 555

Calibration Values: 
Slope = , 26.54 , g/V 
Offset Voltage at no contact = , -0.501760 , V 

No , Time , Stage Position ,   Mass , Force 
   ,  (s) ,      (mm)      ,   (g)  , (mN)  

1 ,0.0000 ,0.59952 ,4.98368 ,48.89985 
2 ,0.2077 ,0.59961 ,4.96315 ,48.69838 
3 ,0.5119 ,0.60035 ,4.96999 ,48.76554 
4 ,0.7042 ,0.60174 ,4.97341 ,48.79911 
5 ,0.8961 ,0.60325 ,4.98026 ,48.86627 
6 ,1.0721 ,0.60499 ,4.98026 ,48.86627 
7 ,1.2483 ,0.60669 ,4.96657 ,48.73196 
8 ,1.4244 ,0.60846 ,4.98026 ,48.86627 
9 ,1.6166 ,0.61032 ,4.96657 ,48.73196 
10 ,1.8085 ,0.61229 ,4.95288 ,48.59764 
11 ,1.9847 ,0.61416 ,4.93919 ,48.46333 
12 ,2.1605 ,0.61590 ,4.93577 ,48.42975 
13 ,2.3367 ,0.61767 ,4.91523 ,48.22828 
14 ,2.5449 ,0.61972 ,4.89470 ,48.02681 
15 ,2.7368 ,0.62168 ,4.89128 ,47.99324 
16 ,2.9290 ,0.62354 ,4.84679 ,47.55672 
17 ,3.1052 ,0.62531 ,4.85021 ,47.59030 
18 ,3.2972 ,0.62730 ,4.81599 ,47.25451 
19 ,3.4732 ,0.62901 ,4.81941 ,47.28809 
20 ,3.6488 ,0.63074 ,4.79546 ,47.05304 
21 ,3.8250 ,0.63252 ,4.77835 ,46.88515 
22 ,4.0010 ,0.63426 ,4.78519 ,46.95231 
23 ,4.1771 ,0.63608 ,4.76466 ,46.75084 
24 ,4.3693 ,0.63791 ,4.74755 ,46.58295 
25 ,4.5458 ,0.63965 ,4.72017 ,46.31432 
26 ,4.7215 ,0.64146 ,4.70990 ,46.21359 
27 ,4.8980 ,0.64323 ,4.69964 ,46.11285 
28 ,5.0740 ,0.64504 ,4.68253 ,45.94496 
29 ,5.2500 ,0.64676 ,4.64831 ,45.60918 
30 ,5.4261 ,0.64850 ,4.63804 ,45.50844 
31 ,5.6024 ,0.65026 ,4.62777 ,45.40771 
32 ,5.7942 ,0.65223 ,4.61751 ,45.30697 
33 ,5.9864 ,0.65402 ,4.57644 ,44.90403 
34 ,6.1623 ,0.65586 ,4.57644 ,44.90403 
35 ,6.3540 ,0.65771 ,4.54906 ,44.63541 
36 ,6.5145 ,0.65949 ,4.52853 ,44.43394 
37 ,6.6904 ,0.66110 ,4.52169 ,44.36678 
38 ,6.8664 ,0.66294 ,4.48746 ,44.03100 
39 ,7.0426 ,0.66470 ,4.47720 ,43.93026 
40 ,7.2188 ,0.66644 ,4.46693 ,43.82953 
41 ,7.3948 ,0.66823 ,4.44982 ,43.66163 
42 ,7.5549 ,0.66991 ,4.42244 ,43.39301 
43 ,7.7310 ,0.67154 ,4.41218 ,43.29227 
44 ,7.9231 ,0.67341 ,4.39507 ,43.12438 
45 ,8.1151 ,0.67531 ,4.36769 ,42.85576 
46 ,8.2911 ,0.67718 ,4.37111 ,42.88933 
47 ,8.4672 ,0.67897 ,4.34373 ,42.62071 
48 ,8.6592 ,0.68082 ,4.33347 ,42.51997 
49 ,8.8515 ,0.68275 ,4.30951 ,42.28492 
50 ,9.0594 ,0.68477 ,4.30267 ,42.21777 
51 ,9.2355 ,0.68663 ,4.28556 ,42.04988 
52 ,9.4115 ,0.68833 ,4.25818 ,41.78125 
53 ,9.5874 ,0.69011 ,4.23765 ,41.57978 
54 ,9.7638 ,0.69190 ,4.22053 ,41.41189 
55 ,9.9559 ,0.69383 ,4.22738 ,41.47905 
56 ,10.1319 ,0.69560 ,4.20000 ,41.21042 
57 ,10.3081 ,0.69732 ,4.18289 ,41.04253 
58 ,10.5000 ,0.69916 ,4.16578 ,40.87464 
59 ,10.6759 ,0.70101 ,4.15551 ,40.77390 
60 ,10.8682 ,0.70289 ,4.12471 ,40.47170 
61 ,11.0443 ,0.70473 ,4.10760 ,40.30380 
62 ,11.2204 ,0.70646 ,4.10076 ,40.23665 
63 ,11.4121 ,0.70833 ,4.08365 ,40.06876 
64 ,11.5885 ,0.71009 ,4.07338 ,39.96802 
65 ,11.7801 ,0.71200 ,4.04600 ,39.69940 
66 ,11.9567 ,0.71379 ,4.04600 ,39.69940 
67 ,12.1326 ,0.71562 ,4.04258 ,39.66582 
68 ,12.3090 ,0.71732 ,4.00494 ,39.29646 
69 ,12.4849 ,0.71911 ,3.99467 ,39.19572 
70 ,12.6929 ,0.72110 ,3.98098 ,39.06141 
71 ,12.8688 ,0.72301 ,3.95703 ,38.82636 
72 ,13.0453 ,0.72468 ,3.93992 ,38.65847 
73 ,13.2372 ,0.72661 ,3.93992 ,38.65847 
74 ,13.4293 ,0.72853 ,3.91596 ,38.42342 
75 ,13.6053 ,0.73029 ,3.89201 ,38.18837 
76 ,13.7814 ,0.73204 ,3.87832 ,38.05406 
77 ,13.9575 ,0.73378 ,3.86805 ,37.95332 
78 ,14.1656 ,0.73582 ,3.84067 ,37.68470 
79 ,14.3416 ,0.73765 ,3.82699 ,37.55038 
80 ,14.5338 ,0.73952 ,3.83041 ,37.58396 
81 ,14.7259 ,0.74150 ,3.78934 ,37.18102 
82 ,14.9175 ,0.74338 ,3.78592 ,37.14744 
83 ,15.0941 ,0.74518 ,3.78250 ,37.11387 
84 ,15.2861 ,0.74701 ,3.73459 ,36.64377 
85 ,15.4621 ,0.74886 ,3.72090 ,36.50946 
86 ,15.6383 ,0.75058 ,3.72432 ,36.54303 
87 ,15.8463 ,0.75262 ,3.71748 ,36.47588 
88 ,16.0060 ,0.75440 ,3.68325 ,36.14010 
89 ,16.1821 ,0.75603 ,3.66957 ,36.00578 
90 ,16.3585 ,0.75777 ,3.65930 ,35.90505 
91 ,16.5346 ,0.75959 ,3.64903 ,35.80431 
92 ,16.7267 ,0.76140 ,3.64561 ,35.77073 
93 ,16.9187 ,0.76338 ,3.61823 ,35.50211 
94 ,17.0948 ,0.76520 ,3.60112 ,35.33422 
95 ,17.2710 ,0.76691 ,3.58401 ,35.16632 
96 ,17.4629 ,0.76883 ,3.56006 ,34.93128 
97 ,17.6391 ,0.77061 ,3.55663 ,34.89770 
98 ,17.8152 ,0.77237 ,3.53268 ,34.66265 
99 ,18.0072 ,0.77418 ,3.49846 ,34.32687 
100 ,18.1994 ,0.77621 ,3.49504 ,34.29329 
101 ,18.3912 ,0.77810 ,3.49846 ,34.32687 
102 ,18.5675 ,0.77987 ,3.45739 ,33.92393 
103 ,18.7433 ,0.78166 ,3.44028 ,33.75604 
104 ,18.9196 ,0.78342 ,3.43001 ,33.65530 
105 ,19.1114 ,0.78523 ,3.42659 ,33.62172 
106 ,19.3038 ,0.78718 ,3.40948 ,33.45383 
107 ,19.4958 ,0.78916 ,3.38553 ,33.21878 
108 ,19.6718 ,0.79091 ,3.37184 ,33.08447 
109 ,19.8478 ,0.79272 ,3.35130 ,32.88300 
110 ,20.0240 ,0.79447 ,3.31708 ,32.54722 
111 ,20.1996 ,0.79618 ,3.31708 ,32.54722 
112 ,20.3920 ,0.79806 ,3.30682 ,32.44648 
113 ,20.6001 ,0.80017 ,3.28628 ,32.24501 
114 ,20.7763 ,0.80201 ,3.27259 ,32.11070 
115 ,20.9524 ,0.80370 ,3.26575 ,32.04354 
116 ,21.1283 ,0.80545 ,3.23153 ,31.70776 
117 ,21.3044 ,0.80721 ,3.22126 ,31.60702 
118 ,21.4967 ,0.80909 ,3.20757 ,31.47271 
119 ,21.6726 ,0.81095 ,3.20415 ,31.43913 
120 ,21.8487 ,0.81266 ,3.17335 ,31.13693 
121 ,22.0249 ,0.81442 ,3.14255 ,30.83472 
122 ,22.2169 ,0.81636 ,3.15624 ,30.96904 
123 ,22.3769 ,0.81811 ,3.12886 ,30.70041 
124 ,22.5529 ,0.81970 ,3.11860 ,30.59968 
125 ,22.7291 ,0.82143 ,3.08095 ,30.23031 
126 ,22.9054 ,0.82324 ,3.08095 ,30.23031 
127 ,23.0813 ,0.82501 ,3.05700 ,29.99527 
128 ,23.2733 ,0.82697 ,3.06042 ,30.02884 
129 ,23.5613 ,0.82920 ,3.02962 ,29.72664 
130 ,23.7376 ,0.83154 ,3.00909 ,29.52517 
131 ,23.9295 ,0.83346 ,2.99198 ,29.35728 
132 ,24.1056 ,0.83530 ,2.97487 ,29.18939 
133 ,24.2978 ,0.83713 ,2.96802 ,29.12223 
134 ,24.4736 ,0.83893 ,2.94749 ,28.92076 
135 ,24.6499 ,0.84069 ,2.94064 ,28.85360 
136 ,24.8099 ,0.84238 ,2.89958 ,28.45066 
137 ,24.9860 ,0.84404 ,2.88589 ,28.31635 
138 ,25.1619 ,0.84579 ,2.88247 ,28.28277 
139 ,25.3382 ,0.84754 ,2.87562 ,28.21562 
140 ,25.5301 ,0.84946 ,2.85167 ,27.98057 
141 ,25.7064 ,0.85126 ,2.83456 ,27.81268 
142 ,25.8984 ,0.85318 ,2.82087 ,27.67836 
143 ,26.1065 ,0.85518 ,2.79691 ,27.44332 
144 ,26.2824 ,0.85706 ,2.77638 ,27.24185 
145 ,26.4584 ,0.85872 ,2.76954 ,27.17469 
146 ,26.6186 ,0.86047 ,2.76269 ,27.10753 
147 ,26.7946 ,0.86216 ,2.74900 ,26.97322 
148 ,26.9869 ,0.86407 ,2.71478 ,26.63744 
149 ,27.1787 ,0.86595 ,2.71478 ,26.63744 
150 ,27.3550 ,0.86771 ,2.70452 ,26.53670 
151 ,27.5469 ,0.86955 ,2.68398 ,26.33523 
152 ,27.7390 ,0.87152 ,2.65318 ,26.03303 
153 ,27.9472 ,0.87353 ,2.65318 ,26.03303 
154 ,28.1554 ,0.87563 ,2.61212 ,25.63009 
155 ,28.3472 ,0.87765 ,2.59501 ,25.46220 
156 ,28.5235 ,0.87934 ,2.57789 ,25.29430 
157 ,28.7154 ,0.88134 ,2.57105 ,25.22715 
158 ,28.9077 ,0.88324 ,2.54710 ,24.99210 
159 ,29.0835 ,0.88498 ,2.53683 ,24.89136 
160 ,29.2598 ,0.88676 ,2.52998 ,24.82421 
161 ,29.4517 ,0.88864 ,2.50261 ,24.55558 
162 ,29.6279 ,0.89054 ,2.48207 ,24.35411 
163 ,29.7879 ,0.89214 ,2.46496 ,24.18622 
164 ,29.9639 ,0.89376 ,2.46154 ,24.15264 
165 ,30.1402 ,0.89558 ,2.44101 ,23.95117 
166 ,30.3320 ,0.89746 ,2.43759 ,23.91759 
167 ,30.5084 ,0.89925 ,2.41021 ,23.64897 
168 ,30.6843 ,0.90097 ,2.38968 ,23.44750 
169 ,30.8602 ,0.90277 ,2.39310 ,23.48108 
170 ,31.0362 ,0.90456 ,2.37256 ,23.27961 
171 ,31.2126 ,0.90626 ,2.36572 ,23.21245 
172 ,31.3886 ,0.90807 ,2.34177 ,22.97740 
173 ,31.5647 ,0.90981 ,2.32123 ,22.77593 
174 ,31.7408 ,0.91158 ,2.30070 ,22.57446 
175 ,31.9168 ,0.91329 ,2.29728 ,22.54088 
176 ,32.0929 ,0.91513 ,2.29728 ,22.54088 
177 ,32.2690 ,0.91683 ,2.26648 ,22.23868 
178 ,32.4290 ,0.91851 ,2.23910 ,21.97005 
179 ,32.6052 ,0.92021 ,2.22199 ,21.80216 
180 ,32.7972 ,0.92212 ,2.23226 ,21.90290 
181 ,32.9571 ,0.92380 ,2.21172 ,21.70143 
182 ,33.1814 ,0.92582 ,2.20146 ,21.60069 
183 ,33.3411 ,0.92769 ,2.17408 ,21.33206 
184 ,33.5172 ,0.92931 ,2.17066 ,21.29849 
185 ,33.6935 ,0.93112 ,2.14670 ,21.06344 
186 ,33.8857 ,0.93304 ,2.12959 ,20.89555 
187 ,34.0777 ,0.93493 ,2.10906 ,20.69408 
188 ,34.2539 ,0.93671 ,2.10221 ,20.62692 
189 ,34.4458 ,0.93851 ,2.08852 ,20.49261 
190 ,34.6219 ,0.94034 ,2.06115 ,20.22398 
191 ,34.7981 ,0.94214 ,2.04061 ,20.02251 
192 ,34.9739 ,0.94391 ,2.04404 ,20.05609 
193 ,35.1662 ,0.94578 ,2.02693 ,19.88820 
194 ,35.3583 ,0.94775 ,1.99270 ,19.55241 
195 ,35.5342 ,0.94954 ,1.99613 ,19.58599 
196 ,35.7105 ,0.95126 ,1.96190 ,19.25021 
197 ,35.8864 ,0.95301 ,1.95506 ,19.18305 
198 ,36.0622 ,0.95474 ,1.93795 ,19.01516 
199 ,36.2386 ,0.95651 ,1.91399 ,18.78011 
200 ,36.4305 ,0.95846 ,1.91742 ,18.81369 
201 ,36.6226 ,0.96027 ,1.90031 ,18.64580 
202 ,36.8147 ,0.96228 ,1.88662 ,18.51149 
203 ,37.0071 ,0.96422 ,1.86266 ,18.27644 
204 ,37.1829 ,0.96597 ,1.84555 ,18.10855 
205 ,37.3589 ,0.96767 ,1.83871 ,18.04139 
206 ,37.5671 ,0.96971 ,1.80449 ,17.70561 
207 ,37.7430 ,0.97161 ,1.80449 ,17.70561 
208 ,37.9192 ,0.97330 ,1.79080 ,17.57129 
209 ,38.1112 ,0.97518 ,1.77711 ,17.43698 
210 ,38.2874 ,0.97699 ,1.76000 ,17.26909 
211 ,38.4794 ,0.97889 ,1.73604 ,17.03404 
212 ,38.6553 ,0.98067 ,1.73262 ,17.00046 
213 ,38.8314 ,0.98241 ,1.72578 ,16.93331 
214 ,39.0237 ,0.98426 ,1.70182 ,16.69826 
215 ,39.2158 ,0.98618 ,1.69840 ,16.66468 
216 ,39.4081 ,0.98816 ,1.65391 ,16.22816 
217 ,39.5999 ,0.99016 ,1.64364 ,16.12743 
218 ,39.7760 ,0.99193 ,1.64364 ,16.12743 
219 ,39.9520 ,0.99363 ,1.62311 ,15.92596 
220 ,40.1441 ,0.99544 ,1.59916 ,15.69091 
221 ,40.3522 ,0.99749 ,1.59573 ,15.65733 
222 ,40.5284 ,0.99936 ,1.57178 ,15.42228 
223 ,40.7203 ,1.00133 ,1.54782 ,15.18724 
224 ,40.8964 ,1.00310 ,1.54782 ,15.18724 
225 ,41.0881 ,1.00500 ,1.53413 ,15.05292 
226 ,41.2647 ,1.00679 ,1.50676 ,14.78430 
227 ,41.4406 ,1.00860 ,1.50676 ,14.78430 
228 ,41.6167 ,1.01029 ,1.48965 ,14.61640 
229 ,41.7928 ,1.01204 ,1.48280 ,14.54925 
230 ,41.9850 ,1.01398 ,1.45200 ,14.24704 
231 ,42.1607 ,1.01574 ,1.43831 ,14.11273 
232 ,42.3531 ,1.01764 ,1.43147 ,14.04557 
233 ,42.5450 ,1.01955 ,1.41094 ,13.84410 
234 ,42.7210 ,1.02134 ,1.38356 ,13.57548 
235 ,42.8972 ,1.02309 ,1.38356 ,13.57548 
236 ,43.0735 ,1.02479 ,1.37671 ,13.50832 
237 ,43.2495 ,1.02661 ,1.37671 ,13.50832 
238 ,43.4413 ,1.02845 ,1.34934 ,13.23969 
239 ,43.6336 ,1.03046 ,1.33223 ,13.07180 
240 ,43.8256 ,1.03242 ,1.30143 ,12.76960 
241 ,44.0014 ,1.03414 ,1.28089 ,12.56813 
242 ,44.1937 ,1.03591 ,1.28089 ,12.56813 
243 ,44.3538 ,1.03774 ,1.27747 ,12.53455 
244 ,44.5456 ,1.03953 ,1.24667 ,12.23235 
245 ,44.7220 ,1.04129 ,1.23298 ,12.09803 
246 ,44.9141 ,1.04320 ,1.22956 ,12.06445 
247 ,45.1062 ,1.04523 ,1.20218 ,11.79583 
248 ,45.2983 ,1.04705 ,1.18850 ,11.66151 
249 ,45.4744 ,1.04889 ,1.17823 ,11.56078 
250 ,45.6503 ,1.05061 ,1.16796 ,11.46004 
251 ,45.8263 ,1.05231 ,1.15085 ,11.29215 
252 ,46.0186 ,1.05428 ,1.13032 ,11.09068 
253 ,46.1946 ,1.05604 ,1.13374 ,11.12426 
254 ,46.3707 ,1.05781 ,1.10979 ,10.88921 
255 ,46.5467 ,1.05958 ,1.09267 ,10.72132 
256 ,46.7228 ,1.06133 ,1.07899 ,10.58701 
257 ,46.9149 ,1.06314 ,1.07899 ,10.58701 
258 ,47.0910 ,1.06498 ,1.05503 ,10.35196 
259 ,47.2670 ,1.06679 ,1.04134 ,10.21765 
260 ,47.4428 ,1.06856 ,1.02765 ,10.08333 
261 ,47.6191 ,1.07027 ,1.00712 ,9.88186 
262 ,47.7953 ,1.07203 ,1.00712 ,9.88186 
263 ,47.9713 ,1.07385 ,0.98317 ,9.64682 
264 ,48.1473 ,1.07560 ,0.97632 ,9.57966 
265 ,48.3234 ,1.07732 ,0.95237 ,9.34461 
266 ,48.4996 ,1.07907 ,0.93868 ,9.21030 
267 ,48.7077 ,1.08113 ,0.92499 ,9.07598 
268 ,48.8837 ,1.08289 ,0.91130 ,8.94167 
269 ,49.0597 ,1.08467 ,0.89761 ,8.80736 
270 ,49.2516 ,1.08652 ,0.89077 ,8.74020 
271 ,49.4438 ,1.08846 ,0.86339 ,8.47158 
272 ,49.6198 ,1.09031 ,0.85654 ,8.40442 
273 ,49.7957 ,1.09207 ,0.84970 ,8.33726 
274 ,49.9882 ,1.09392 ,0.82575 ,8.10221 
275 ,50.1961 ,1.09604 ,0.81548 ,8.00148 
276 ,50.3720 ,1.09776 ,0.80521 ,7.90074 
277 ,50.5644 ,1.09964 ,0.77784 ,7.63212 
278 ,50.7401 ,1.10153 ,0.77784 ,7.63212 
279 ,50.9161 ,1.10322 ,0.75730 ,7.43065 
280 ,51.0925 ,1.10499 ,0.75388 ,7.39707 
281 ,51.2847 ,1.10694 ,0.72650 ,7.12844 
282 ,51.4605 ,1.10869 ,0.71624 ,7.02771 
283 ,51.6368 ,1.11050 ,0.70255 ,6.89340 
284 ,51.8129 ,1.11226 ,0.70597 ,6.92697 
285 ,51.9888 ,1.11404 ,0.66490 ,6.52403 
286 ,52.1650 ,1.11574 ,0.66490 ,6.52403 
287 ,52.3410 ,1.11749 ,0.64437 ,6.32256 
288 ,52.5330 ,1.11933 ,0.65121 ,6.38972 
289 ,52.7093 ,1.12118 ,0.62726 ,6.15467 
290 ,52.8852 ,1.12293 ,0.60330 ,5.91962 
291 ,53.0450 ,1.12465 ,0.58962 ,5.78531 
292 ,53.2214 ,1.12628 ,0.57251 ,5.61742 
293 ,53.3974 ,1.12809 ,0.56224 ,5.51668 
294 ,53.5735 ,1.12980 ,0.56908 ,5.58384 
295 ,53.7656 ,1.13172 ,0.53486 ,5.24806 
296 ,53.9577 ,1.13366 ,0.53828 ,5.28164 
297 ,54.1335 ,1.13539 ,0.52117 ,5.11375 
298 ,54.3257 ,1.13729 ,0.49380 ,4.84512 
299 ,54.5019 ,1.13908 ,0.49037 ,4.81154 
300 ,54.6940 ,1.14096 ,0.49037 ,4.81154 
301 ,54.8701 ,1.14278 ,0.46642 ,4.57649 
302 ,55.0461 ,1.14455 ,0.45957 ,4.50934 
303 ,55.2221 ,1.14629 ,0.43562 ,4.27429 
304 ,55.4143 ,1.14815 ,0.44246 ,4.34144 
305 ,55.5904 ,1.14998 ,0.43220 ,4.24071 
306 ,55.7823 ,1.15188 ,0.38429 ,3.77061 
307 ,55.9744 ,1.15379 ,0.39113 ,3.83777 
308 ,56.1503 ,1.15555 ,0.39113 ,3.83777 
309 ,56.3265 ,1.15734 ,0.36718 ,3.60272 
310 ,56.5184 ,1.15922 ,0.35006 ,3.43483 
311 ,56.6947 ,1.16102 ,0.33638 ,3.30052 
312 ,56.8706 ,1.16272 ,0.33638 ,3.30052 
313 ,57.0468 ,1.16453 ,0.32953 ,3.23336 
314 ,57.2226 ,1.16623 ,0.29873 ,2.93116 
315 ,57.3991 ,1.16807 ,0.28162 ,2.76326 
316 ,57.5751 ,1.16983 ,0.28504 ,2.79684 
317 ,57.7511 ,1.17153 ,0.27820 ,2.72969 
318 ,57.9429 ,1.17348 ,0.25082 ,2.46106 
319 ,58.1194 ,1.17526 ,0.23713 ,2.32675 
320 ,58.3112 ,1.17714 ,0.22687 ,2.22601 
321 ,58.4874 ,1.17891 ,0.22344 ,2.19243 
322 ,58.6797 ,1.18087 ,0.20633 ,2.02454 
323 ,58.8557 ,1.18263 ,0.19607 ,1.92381 
324 ,59.0318 ,1.18435 ,0.18922 ,1.85665 
325 ,59.2234 ,1.18630 ,0.16527 ,1.62160 
326 ,59.3994 ,1.18804 ,0.15158 ,1.48729 
327 ,59.5759 ,1.18977 ,0.14816 ,1.45371 
328 ,59.7519 ,1.19158 ,0.14473 ,1.42013 
329 ,59.9280 ,1.19332 ,0.13789 ,1.35298 
330 ,60.1202 ,1.19524 ,0.10367 ,1.01719 
331 ,60.2959 ,1.19706 ,0.09340 ,0.91646 
332 ,60.4559 ,1.19869 ,0.10025 ,0.98361 
333 ,60.6322 ,1.20031 ,0.08314 ,0.81572 
334 ,60.8084 ,1.20212 ,0.07629 ,0.74857 
335 ,60.9844 ,1.20385 ,0.05234 ,0.51352 
336 ,61.1765 ,1.20576 ,0.04549 ,0.44636 
337 ,61.3526 ,1.20753 ,0.04207 ,0.41278 
338 ,61.5444 ,1.20948 ,0.01469 ,0.14416 
339 ,61.7208 ,1.21123 ,-0.00584 ,-0.05731 
340 ,61.9126 ,1.21308 ,0.01127 ,0.11058 
341 ,62.0888 ,1.21492 ,-0.00926 ,-0.09089 
342 ,62.2649 ,1.21665 ,-0.03664 ,-0.35952 
343 ,62.4406 ,1.21843 ,-0.03322 ,-0.32594 
344 ,62.6328 ,1.22030 ,-0.02980 ,-0.29236 
345 ,62.8252 ,1.22231 ,-0.05375 ,-0.52741 
346 ,63.0010 ,1.22400 ,-0.08455 ,-0.82961 
347 ,63.1933 ,1.22588 ,-0.06060 ,-0.59457 
348 ,63.3531 ,1.22770 ,-0.07771 ,-0.76246 
349 ,63.5295 ,1.22930 ,-0.08113 ,-0.79604 
350 ,63.7215 ,1.23118 ,-0.11193 ,-1.09824 
351 ,63.9136 ,1.23311 ,-0.10851 ,-1.06466 
352 ,64.0893 ,1.23490 ,-0.13246 ,-1.29971 
353 ,64.2813 ,1.23675 ,-0.14957 ,-1.46760 
354 ,64.4413 ,1.23859 ,-0.16668 ,-1.63549 
355 ,64.6176 ,1.24022 ,-0.16326 ,-1.60191 
356 ,64.8580 ,1.24244 ,-0.18722 ,-1.83696 
357 ,65.0662 ,1.24467 ,-0.19748 ,-1.93770 
358 ,65.2581 ,1.24659 ,-0.20433 ,-2.00485 
359 ,65.4342 ,1.24832 ,-0.20090 ,-1.97128 
360 ,65.6423 ,1.25047 ,-0.23170 ,-2.27348 
361 ,65.8183 ,1.25233 ,-0.22828 ,-2.23990 
362 ,65.9945 ,1.25396 ,-0.24197 ,-2.37422 
363 ,66.1703 ,1.25570 ,-0.24539 ,-2.40779 
364 ,66.3626 ,1.25762 ,-0.27277 ,-2.67642 
365 ,66.5385 ,1.25943 ,-0.28646 ,-2.81073 
366 ,66.7307 ,1.26133 ,-0.27277 ,-2.67642 
367 ,66.9069 ,1.26310 ,-0.28988 ,-2.84431 
368 ,67.1149 ,1.26511 ,-0.29330 ,-2.87789 
369 ,67.3069 ,1.26710 ,-0.31384 ,-3.07936 
370 ,67.4992 ,1.26901 ,-0.33095 ,-3.24725 
371 ,67.6910 ,1.27084 ,-0.33095 ,-3.24725 
372 ,67.8668 ,1.27265 ,-0.35148 ,-3.44872 
373 ,68.0430 ,1.27441 ,-0.36175 ,-3.54946 
374 ,68.2354 ,1.27631 ,-0.36859 ,-3.61661 
375 ,68.4115 ,1.27813 ,-0.37201 ,-3.65019 
376 ,68.6034 ,1.28000 ,-0.39255 ,-3.85166 
377 ,68.8115 ,1.28205 ,-0.39597 ,-3.88524 
378 ,68.9876 ,1.28386 ,-0.40623 ,-3.98597 
379 ,69.1637 ,1.28562 ,-0.42677 ,-4.18744 
380 ,69.3558 ,1.28753 ,-0.43361 ,-4.25460 
381 ,69.5316 ,1.28934 ,-0.44388 ,-4.35534 
382 ,69.7081 ,1.29107 ,-0.44388 ,-4.35534 
383 ,69.8841 ,1.29284 ,-0.46441 ,-4.55681 
384 ,70.0761 ,1.29476 ,-0.48152 ,-4.72470 
385 ,70.2361 ,1.29648 ,-0.47810 ,-4.69112 
386 ,70.4122 ,1.29808 ,-0.48837 ,-4.79185 
387 ,70.5883 ,1.29992 ,-0.48494 ,-4.75828 
388 ,70.7962 ,1.30180 ,-0.52259 ,-5.12764 
389 ,71.0041 ,1.30396 ,-0.51917 ,-5.09406 
390 ,71.1967 ,1.30585 ,-0.54654 ,-5.36268 
391 ,71.3886 ,1.30789 ,-0.53628 ,-5.26195 
392 ,71.5485 ,1.30960 ,-0.55339 ,-5.42984 
393 ,71.7247 ,1.31126 ,-0.55681 ,-5.46342 
394 ,71.9009 ,1.31302 ,-0.58419 ,-5.73205 
395 ,72.0927 ,1.31495 ,-0.58077 ,-5.69847 
396 ,72.2850 ,1.31686 ,-0.58761 ,-5.76562 
397 ,72.4932 ,1.31880 ,-0.61499 ,-6.03425 
398 ,72.6851 ,1.32081 ,-0.62525 ,-6.13499 
399 ,72.8772 ,1.32276 ,-0.63894 ,-6.26930 
400 ,73.0532 ,1.32448 ,-0.63210 ,-6.20214 
401 ,73.2290 ,1.32626 ,-0.62525 ,-6.13499 
402 ,73.4054 ,1.32805 ,-0.64579 ,-6.33646 
403 ,73.5814 ,1.32979 ,-0.66974 ,-6.57150 
404 ,73.7736 ,1.33171 ,-0.65947 ,-6.47077 
405 ,73.9493 ,1.33349 ,-0.66632 ,-6.53793 
406 ,74.1257 ,1.33527 ,-0.67316 ,-6.60508 
407 ,74.3177 ,1.33709 ,-0.70739 ,-6.94086 
408 ,74.5095 ,1.33906 ,-0.69712 ,-6.84013 
409 ,74.6859 ,1.34082 ,-0.70396 ,-6.90729 
410 ,74.8939 ,1.34280 ,-0.72107 ,-7.07518 
411 ,75.0702 ,1.34467 ,-0.71081 ,-6.97444 
412 ,75.2460 ,1.34642 ,-0.71765 ,-7.04160 
413 ,75.4220 ,1.34822 ,-0.72450 ,-7.10876 
414 ,75.6143 ,1.35013 ,-0.75872 ,-7.44454 
415 ,75.7902 ,1.35187 ,-0.75872 ,-7.44454 
416 ,75.9983 ,1.35395 ,-0.77925 ,-7.64601 
417 ,76.2064 ,1.35589 ,-0.76556 ,-7.51170 
418 ,76.3822 ,1.35784 ,-0.77583 ,-7.61243 
419 ,76.5586 ,1.35955 ,-0.80663 ,-7.91464 
420 ,76.7506 ,1.36149 ,-0.79978 ,-7.84748 
421 ,76.9268 ,1.36327 ,-0.80321 ,-7.88106 
422 ,77.1188 ,1.36507 ,-0.83401 ,-8.18326 
423 ,77.2950 ,1.36693 ,-0.83743 ,-8.21684 
424 ,77.4709 ,1.36865 ,-0.84085 ,-8.25042 
425 ,77.6472 ,1.37042 ,-0.83058 ,-8.14968 
426 ,77.8231 ,1.37220 ,-0.85454 ,-8.38473 
427 ,77.9992 ,1.37398 ,-0.87849 ,-8.61978 
428 ,78.1912 ,1.37577 ,-0.88192 ,-8.65336 
429 ,78.3835 ,1.37774 ,-0.88876 ,-8.72051 
430 ,78.5595 ,1.37959 ,-0.89560 ,-8.78767 
431 ,78.7837 ,1.38157 ,-0.89560 ,-8.78767 
432 ,78.9756 ,1.38369 ,-0.91956 ,-9.02272 
433 ,79.1678 ,1.38558 ,-0.91614 ,-8.98914 
434 ,79.3437 ,1.38737 ,-0.93667 ,-9.19061 
435 ,79.5196 ,1.38914 ,-0.95036 ,-9.32492 
436 ,79.6956 ,1.39095 ,-0.95378 ,-9.35850 
437 ,79.8720 ,1.39267 ,-0.95378 ,-9.35850 
438 ,80.0478 ,1.39444 ,-0.97089 ,-9.52639 
439 ,80.2242 ,1.39621 ,-0.96747 ,-9.49282 
440 ,80.4162 ,1.39804 ,-0.99485 ,-9.76144 
441 ,80.6079 ,1.40004 ,-0.98458 ,-9.66071 
442 ,80.7841 ,1.40180 ,-0.99485 ,-9.76144 
443 ,80.9600 ,1.40352 ,-1.01196 ,-9.92933 
444 ,81.1364 ,1.40538 ,-1.02907 ,-10.09723 
445 ,81.3283 ,1.40726 ,-1.02907 ,-10.09723 
446 ,81.5367 ,1.40915 ,-1.05645 ,-10.36585 
447 ,81.7127 ,1.41103 ,-1.06671 ,-10.46659 
448 ,81.8888 ,1.41291 ,-1.05645 ,-10.36585 
449 ,82.0650 ,1.41462 ,-1.06671 ,-10.46659 
450 ,82.2409 ,1.41634 ,-1.06671 ,-10.46659 
451 ,82.4171 ,1.41816 ,-1.08725 ,-10.66806 
452 ,82.6251 ,1.42014 ,-1.07698 ,-10.56732 
453 ,82.8011 ,1.42199 ,-1.08725 ,-10.66806 
454 ,82.9933 ,1.42387 ,-1.12831 ,-11.07100 
455 ,83.1854 ,1.42574 ,-1.11805 ,-10.97026 
456 ,83.3613 ,1.42756 ,-1.11805 ,-10.97026 
457 ,83.5534 ,1.42940 ,-1.14542 ,-11.23889 
458 ,83.7293 ,1.43122 ,-1.12831 ,-11.07100 
459 ,83.9055 ,1.43304 ,-1.14200 ,-11.20531 
460 ,84.0977 ,1.43482 ,-1.15227 ,-11.30604 
461 ,84.2896 ,1.43686 ,-1.16253 ,-11.40678 
462 ,84.4657 ,1.43859 ,-1.17280 ,-11.50751 
