Data stamp = , 05-04-2022 15:38:46 544

Calibration Values: 
Slope = , 26.54 , g/V 
Offset Voltage at no contact = , -0.501760 , V 

No , Time , Stage Position ,   Mass , Force 
   ,  (s) ,      (mm)      ,   (g)  , (mN)  

1 ,0.0000 ,0.59946 ,4.95972 ,48.66480 
2 ,0.2193 ,0.59957 ,4.94946 ,48.56407 
3 ,0.4437 ,0.60013 ,4.93577 ,48.42975 
4 ,0.6355 ,0.60121 ,4.96657 ,48.73196 
5 ,0.8279 ,0.60258 ,4.93919 ,48.46333 
6 ,1.0039 ,0.60429 ,4.93577 ,48.42975 
7 ,1.1957 ,0.60607 ,4.95288 ,48.59764 
8 ,1.3883 ,0.60787 ,4.95972 ,48.66480 
9 ,1.5642 ,0.60984 ,4.92550 ,48.32902 
10 ,1.7562 ,0.61172 ,4.93235 ,48.39618 
11 ,1.9323 ,0.61354 ,4.92208 ,48.29544 
12 ,2.1085 ,0.61531 ,4.89812 ,48.06039 
13 ,2.2840 ,0.61711 ,4.88444 ,47.92608 
14 ,2.4604 ,0.61883 ,4.87417 ,47.82534 
15 ,2.6366 ,0.62061 ,4.87075 ,47.79177 
16 ,2.8121 ,0.62236 ,4.85706 ,47.65745 
17 ,2.9884 ,0.62410 ,4.82968 ,47.38883 
18 ,3.1647 ,0.62585 ,4.81941 ,47.28809 
19 ,3.3404 ,0.62759 ,4.81941 ,47.28809 
20 ,3.5170 ,0.62937 ,4.80915 ,47.18736 
21 ,3.7093 ,0.63122 ,4.76466 ,46.75084 
22 ,3.9008 ,0.63322 ,4.76466 ,46.75084 
23 ,4.0931 ,0.63512 ,4.73728 ,46.48221 
24 ,4.2693 ,0.63694 ,4.73386 ,46.44863 
25 ,4.4611 ,0.63882 ,4.71675 ,46.28074 
26 ,4.6534 ,0.64070 ,4.68937 ,46.01212 
27 ,4.8294 ,0.64249 ,4.67226 ,45.84422 
28 ,5.0054 ,0.64423 ,4.66199 ,45.74349 
29 ,5.1818 ,0.64603 ,4.64488 ,45.57560 
30 ,5.3737 ,0.64794 ,4.62777 ,45.40771 
31 ,5.5494 ,0.64969 ,4.61066 ,45.23981 
32 ,5.7257 ,0.65144 ,4.58328 ,44.97119 
33 ,5.9016 ,0.65319 ,4.57644 ,44.90403 
34 ,6.0780 ,0.65498 ,4.56960 ,44.83688 
35 ,6.2861 ,0.65699 ,4.53195 ,44.46751 
36 ,6.4621 ,0.65882 ,4.51142 ,44.26604 
37 ,6.6383 ,0.66064 ,4.51826 ,44.33320 
38 ,6.8462 ,0.66260 ,4.48404 ,43.99742 
39 ,7.0384 ,0.66456 ,4.48404 ,43.99742 
40 ,7.2305 ,0.66651 ,4.43955 ,43.56090 
41 ,7.4064 ,0.66825 ,4.42586 ,43.42659 
42 ,7.5984 ,0.67016 ,4.42586 ,43.42659 
43 ,7.7746 ,0.67193 ,4.40875 ,43.25870 
44 ,7.9508 ,0.67370 ,4.37453 ,42.92291 
45 ,8.1428 ,0.67550 ,4.35742 ,42.75502 
46 ,8.3187 ,0.67738 ,4.35400 ,42.72144 
47 ,8.5590 ,0.67953 ,4.33347 ,42.51997 
48 ,8.7350 ,0.68147 ,4.32320 ,42.41924 
49 ,8.9111 ,0.68332 ,4.29924 ,42.18419 
50 ,9.0874 ,0.68501 ,4.27187 ,41.91556 
51 ,9.2634 ,0.68684 ,4.26845 ,41.88198 
52 ,9.4395 ,0.68862 ,4.25476 ,41.74767 
53 ,9.6315 ,0.69050 ,4.23080 ,41.51262 
54 ,9.7913 ,0.69221 ,4.20342 ,41.24400 
55 ,9.9675 ,0.69391 ,4.19316 ,41.14326 
56 ,10.1597 ,0.69579 ,4.19658 ,41.17684 
57 ,10.3679 ,0.69779 ,4.15894 ,40.80748 
58 ,10.5597 ,0.69974 ,4.16578 ,40.87464 
59 ,10.7359 ,0.70159 ,4.13840 ,40.60601 
60 ,10.9279 ,0.70350 ,4.10076 ,40.23665 
61 ,11.1359 ,0.70549 ,4.10076 ,40.23665 
62 ,11.3280 ,0.70748 ,4.07680 ,40.00160 
63 ,11.5203 ,0.70936 ,4.07338 ,39.96802 
64 ,11.6963 ,0.71113 ,4.05627 ,39.80013 
65 ,11.9041 ,0.71317 ,4.04258 ,39.66582 
66 ,12.0805 ,0.71502 ,4.01863 ,39.43077 
67 ,12.2566 ,0.71681 ,4.00836 ,39.33003 
68 ,12.4326 ,0.71852 ,3.97414 ,38.99425 
69 ,12.6087 ,0.72022 ,3.96045 ,38.85994 
70 ,12.8007 ,0.72213 ,3.96387 ,38.89352 
71 ,12.9606 ,0.72390 ,3.94334 ,38.69205 
72 ,13.1368 ,0.72556 ,3.92281 ,38.49058 
73 ,13.3125 ,0.72728 ,3.88516 ,38.12122 
74 ,13.4887 ,0.72904 ,3.88516 ,38.12122 
75 ,13.6647 ,0.73080 ,3.86805 ,37.95332 
76 ,13.8412 ,0.73258 ,3.85779 ,37.85259 
77 ,14.0172 ,0.73438 ,3.85779 ,37.85259 
78 ,14.1934 ,0.73614 ,3.82014 ,37.48323 
79 ,14.3855 ,0.73802 ,3.81672 ,37.44965 
80 ,14.5775 ,0.73988 ,3.79619 ,37.24818 
81 ,14.7694 ,0.74187 ,3.76196 ,36.91240 
82 ,14.9455 ,0.74359 ,3.74485 ,36.74450 
83 ,15.1056 ,0.74534 ,3.74143 ,36.71093 
84 ,15.2977 ,0.74706 ,3.72774 ,36.57661 
85 ,15.4739 ,0.74888 ,3.71063 ,36.40872 
86 ,15.6658 ,0.75082 ,3.67641 ,36.07294 
87 ,15.8419 ,0.75258 ,3.69010 ,36.20725 
88 ,16.0182 ,0.75433 ,3.66614 ,35.97220 
89 ,16.1941 ,0.75617 ,3.63877 ,35.70358 
90 ,16.3865 ,0.75800 ,3.62850 ,35.60284 
91 ,16.5784 ,0.75996 ,3.62850 ,35.60284 
92 ,16.7704 ,0.76178 ,3.60454 ,35.36779 
93 ,16.9462 ,0.76363 ,3.56690 ,34.99843 
94 ,17.1223 ,0.76536 ,3.57375 ,35.06559 
95 ,17.3146 ,0.76730 ,3.54637 ,34.79696 
96 ,17.5065 ,0.76923 ,3.52584 ,34.59549 
97 ,17.6829 ,0.77100 ,3.50530 ,34.39402 
98 ,17.8588 ,0.77278 ,3.50530 ,34.39402 
99 ,18.0350 ,0.77449 ,3.48477 ,34.19255 
100 ,18.2266 ,0.77644 ,3.45055 ,33.85677 
101 ,18.4030 ,0.77820 ,3.43686 ,33.72246 
102 ,18.5791 ,0.77994 ,3.44028 ,33.75604 
103 ,18.7552 ,0.78167 ,3.41633 ,33.52099 
104 ,18.9473 ,0.78361 ,3.38210 ,33.18520 
105 ,19.1234 ,0.78546 ,3.39237 ,33.28594 
106 ,19.2991 ,0.78715 ,3.37868 ,33.15163 
107 ,19.4915 ,0.78898 ,3.33762 ,32.74869 
108 ,19.6996 ,0.79110 ,3.33762 ,32.74869 
109 ,19.8915 ,0.79310 ,3.31366 ,32.51364 
110 ,20.0677 ,0.79485 ,3.28286 ,32.21143 
111 ,20.2438 ,0.79663 ,3.28628 ,32.24501 
112 ,20.4035 ,0.79832 ,3.27944 ,32.17786 
113 ,20.5800 ,0.79998 ,3.24864 ,31.87565 
114 ,20.7720 ,0.80182 ,3.22811 ,31.67418 
115 ,20.9800 ,0.80390 ,3.22811 ,31.67418 
116 ,21.1562 ,0.80568 ,3.21100 ,31.50629 
117 ,21.3483 ,0.80750 ,3.17335 ,31.13693 
118 ,21.5404 ,0.80954 ,3.17335 ,31.13693 
119 ,21.7324 ,0.81142 ,3.14255 ,30.83472 
120 ,21.9086 ,0.81320 ,3.12202 ,30.63325 
121 ,22.0841 ,0.81498 ,3.12544 ,30.66683 
122 ,22.2608 ,0.81677 ,3.12202 ,30.63325 
123 ,22.4367 ,0.81851 ,3.08438 ,30.26389 
124 ,22.6129 ,0.82023 ,3.06042 ,30.02884 
125 ,22.7891 ,0.82206 ,3.05015 ,29.92811 
126 ,22.9810 ,0.82397 ,3.04673 ,29.89453 
127 ,23.1571 ,0.82573 ,3.02620 ,29.69306 
128 ,23.3492 ,0.82770 ,3.00224 ,29.45801 
129 ,23.5410 ,0.82958 ,2.99540 ,29.39086 
130 ,23.7173 ,0.83126 ,2.99198 ,29.35728 
131 ,23.9250 ,0.83334 ,2.96460 ,29.08865 
132 ,24.1015 ,0.83524 ,2.94064 ,28.85360 
133 ,24.2774 ,0.83693 ,2.93038 ,28.75287 
134 ,24.4534 ,0.83866 ,2.89616 ,28.41709 
135 ,24.6295 ,0.84043 ,2.89273 ,28.38351 
136 ,24.8058 ,0.84219 ,2.86878 ,28.14846 
137 ,24.9979 ,0.84416 ,2.87220 ,28.18204 
138 ,25.2059 ,0.84613 ,2.83798 ,27.84625 
139 ,25.3821 ,0.84796 ,2.82771 ,27.74552 
140 ,25.5581 ,0.84974 ,2.81402 ,27.61121 
141 ,25.7339 ,0.85145 ,2.79007 ,27.37616 
142 ,25.9103 ,0.85322 ,2.77296 ,27.20827 
143 ,26.1018 ,0.85510 ,2.77296 ,27.20827 
144 ,26.2785 ,0.85693 ,2.76611 ,27.14111 
145 ,26.4705 ,0.85886 ,2.73531 ,26.83891 
146 ,26.6465 ,0.86063 ,2.71136 ,26.60386 
147 ,26.8226 ,0.86235 ,2.70794 ,26.57028 
148 ,27.0464 ,0.86445 ,2.67029 ,26.20092 
149 ,27.2388 ,0.86640 ,2.68056 ,26.30165 
150 ,27.4144 ,0.86828 ,2.66687 ,26.16734 
151 ,27.5908 ,0.87004 ,2.63607 ,25.86514 
152 ,27.7667 ,0.87175 ,2.61896 ,25.69724 
153 ,27.9590 ,0.87373 ,2.61212 ,25.63009 
154 ,28.1349 ,0.87550 ,2.58816 ,25.39504 
155 ,28.3110 ,0.87726 ,2.56763 ,25.19357 
156 ,28.4873 ,0.87904 ,2.55394 ,25.05926 
157 ,28.6633 ,0.88073 ,2.55736 ,25.09283 
158 ,28.8394 ,0.88255 ,2.54710 ,24.99210 
159 ,29.0315 ,0.88440 ,2.50945 ,24.62274 
160 ,29.2396 ,0.88640 ,2.50603 ,24.58916 
161 ,29.4316 ,0.88841 ,2.46839 ,24.21980 
162 ,29.6078 ,0.89019 ,2.45470 ,24.08549 
163 ,29.7839 ,0.89197 ,2.45127 ,24.05191 
164 ,29.9595 ,0.89372 ,2.44443 ,23.98475 
165 ,30.1355 ,0.89543 ,2.42048 ,23.74970 
166 ,30.3120 ,0.89723 ,2.40336 ,23.58181 
167 ,30.5038 ,0.89914 ,2.39994 ,23.54823 
168 ,30.6802 ,0.90090 ,2.38283 ,23.38034 
169 ,30.8562 ,0.90262 ,2.36230 ,23.17887 
170 ,31.0321 ,0.90438 ,2.33834 ,22.94382 
171 ,31.2083 ,0.90616 ,2.31439 ,22.70877 
172 ,31.4001 ,0.90807 ,2.32123 ,22.77593 
173 ,31.5765 ,0.90986 ,2.30754 ,22.64162 
174 ,31.7526 ,0.91166 ,2.28359 ,22.40657 
175 ,31.9286 ,0.91342 ,2.26648 ,22.23868 
176 ,32.1044 ,0.91513 ,2.26648 ,22.23868 
177 ,32.2807 ,0.91689 ,2.24937 ,22.07079 
178 ,32.4568 ,0.91862 ,2.22199 ,21.80216 
179 ,32.6329 ,0.92040 ,2.20488 ,21.63427 
180 ,32.8091 ,0.92217 ,2.18777 ,21.46638 
181 ,33.0170 ,0.92412 ,2.17408 ,21.33206 
182 ,33.1932 ,0.92607 ,2.15355 ,21.13059 
183 ,33.3694 ,0.92787 ,2.14670 ,21.06344 
184 ,33.5453 ,0.92954 ,2.12959 ,20.89555 
185 ,33.7373 ,0.93148 ,2.11932 ,20.79481 
186 ,33.8974 ,0.93317 ,2.09195 ,20.52619 
187 ,34.0896 ,0.93501 ,2.08168 ,20.42545 
188 ,34.2653 ,0.93673 ,2.07141 ,20.32472 
189 ,34.4576 ,0.93862 ,2.06115 ,20.22398 
190 ,34.6339 ,0.94042 ,2.03377 ,19.95535 
191 ,34.8099 ,0.94222 ,2.02350 ,19.85462 
192 ,35.0019 ,0.94409 ,2.02008 ,19.82104 
193 ,35.1780 ,0.94587 ,2.00982 ,19.72031 
194 ,35.3536 ,0.94764 ,1.98244 ,19.45168 
195 ,35.5296 ,0.94941 ,1.95164 ,19.14948 
196 ,35.6898 ,0.95111 ,1.95164 ,19.14948 
197 ,35.8662 ,0.95276 ,1.93111 ,18.94801 
198 ,36.0420 ,0.95461 ,1.93111 ,18.94801 
199 ,36.2344 ,0.95643 ,1.90031 ,18.64580 
200 ,36.4102 ,0.95817 ,1.87977 ,18.44433 
201 ,36.6026 ,0.96008 ,1.88319 ,18.47791 
202 ,36.7787 ,0.96191 ,1.87977 ,18.44433 
203 ,36.9868 ,0.96388 ,1.83186 ,17.97423 
204 ,37.1788 ,0.96579 ,1.83186 ,17.97423 
205 ,37.3546 ,0.96764 ,1.80791 ,17.73919 
206 ,37.5468 ,0.96951 ,1.80106 ,17.67203 
207 ,37.7391 ,0.97143 ,1.78053 ,17.47056 
208 ,37.9152 ,0.97325 ,1.76342 ,17.30267 
209 ,38.1070 ,0.97510 ,1.76000 ,17.26909 
210 ,38.2993 ,0.97703 ,1.74289 ,17.10120 
211 ,38.4914 ,0.97897 ,1.71551 ,16.83257 
212 ,38.6674 ,0.98070 ,1.70524 ,16.73184 
213 ,38.8435 ,0.98251 ,1.69498 ,16.63110 
214 ,39.0516 ,0.98448 ,1.66760 ,16.36248 
215 ,39.2277 ,0.98631 ,1.66418 ,16.32890 
216 ,39.4518 ,0.98841 ,1.64364 ,16.12743 
217 ,39.6439 ,0.99047 ,1.63338 ,16.02669 
218 ,39.8519 ,0.99254 ,1.59916 ,15.69091 
219 ,40.0281 ,0.99437 ,1.58889 ,15.59018 
220 ,40.2201 ,0.99628 ,1.58889 ,15.59018 
221 ,40.4283 ,0.99828 ,1.56151 ,15.32155 
222 ,40.6041 ,1.00009 ,1.56151 ,15.32155 
223 ,40.7802 ,1.00188 ,1.55467 ,15.25439 
224 ,40.9564 ,1.00363 ,1.51018 ,14.81787 
225 ,41.1484 ,1.00554 ,1.50333 ,14.75072 
226 ,41.3246 ,1.00729 ,1.50333 ,14.75072 
227 ,41.5003 ,1.00911 ,1.48280 ,14.54925 
228 ,41.6606 ,1.01079 ,1.46227 ,14.34778 
229 ,41.8363 ,1.01239 ,1.44516 ,14.17989 
230 ,42.0128 ,1.01415 ,1.43147 ,14.04557 
231 ,42.2046 ,1.01606 ,1.40751 ,13.81053 
232 ,42.3811 ,1.01791 ,1.42120 ,13.94484 
233 ,42.5729 ,1.01978 ,1.39040 ,13.64263 
234 ,42.7330 ,1.02153 ,1.36645 ,13.40759 
235 ,42.9092 ,1.02318 ,1.35960 ,13.34043 
236 ,43.1010 ,1.02508 ,1.36303 ,13.37401 
237 ,43.2774 ,1.02688 ,1.34249 ,13.17254 
238 ,43.4690 ,1.02876 ,1.31169 ,12.87033 
239 ,43.6614 ,1.03056 ,1.30143 ,12.76960 
240 ,43.8534 ,1.03266 ,1.28432 ,12.60171 
241 ,44.0296 ,1.03431 ,1.27747 ,12.53455 
242 ,44.2376 ,1.03640 ,1.26720 ,12.43381 
243 ,44.4138 ,1.03820 ,1.24667 ,12.23235 
244 ,44.6058 ,1.04008 ,1.24325 ,12.19877 
245 ,44.7975 ,1.04204 ,1.22956 ,12.06445 
246 ,44.9740 ,1.04377 ,1.19534 ,11.72867 
247 ,45.1660 ,1.04569 ,1.19534 ,11.72867 
248 ,45.3582 ,1.04756 ,1.17138 ,11.49362 
249 ,45.5503 ,1.04947 ,1.15770 ,11.35931 
250 ,45.7583 ,1.05161 ,1.15427 ,11.32573 
251 ,45.9343 ,1.05335 ,1.11663 ,10.95637 
252 ,46.1262 ,1.05521 ,1.12690 ,11.05710 
253 ,46.3186 ,1.05717 ,1.09267 ,10.72132 
254 ,46.4943 ,1.05900 ,1.07556 ,10.55343 
255 ,46.6867 ,1.06082 ,1.08241 ,10.62059 
256 ,46.8945 ,1.06286 ,1.05161 ,10.31838 
257 ,47.0866 ,1.06483 ,1.04819 ,10.28480 
258 ,47.2786 ,1.06677 ,1.03108 ,10.11691 
259 ,47.4545 ,1.06856 ,1.00712 ,9.88186 
260 ,47.6307 ,1.07041 ,1.00370 ,9.84829 
261 ,47.8068 ,1.07211 ,0.97632 ,9.57966 
262 ,47.9988 ,1.07397 ,0.97974 ,9.61324 
263 ,48.1915 ,1.07582 ,0.94894 ,9.31103 
264 ,48.3832 ,1.07788 ,0.96263 ,9.44535 
265 ,48.5595 ,1.07964 ,0.93525 ,9.17672 
266 ,48.7515 ,1.08158 ,0.91472 ,8.97525 
267 ,48.9276 ,1.08330 ,0.91472 ,8.97525 
268 ,49.1032 ,1.08505 ,0.90446 ,8.87451 
269 ,49.2799 ,1.08686 ,0.89419 ,8.77378 
270 ,49.4718 ,1.08875 ,0.85312 ,8.37084 
271 ,49.6799 ,1.09076 ,0.87023 ,8.53873 
272 ,49.8558 ,1.09260 ,0.83601 ,8.20295 
273 ,50.0321 ,1.09439 ,0.82575 ,8.10221 
274 ,50.2242 ,1.09626 ,0.81890 ,8.03506 
275 ,50.4323 ,1.09831 ,0.78810 ,7.73285 
276 ,50.6083 ,1.10013 ,0.78126 ,7.66570 
277 ,50.8004 ,1.10199 ,0.75388 ,7.39707 
278 ,50.9762 ,1.10381 ,0.75046 ,7.36349 
279 ,51.1521 ,1.10556 ,0.73677 ,7.22918 
280 ,51.3286 ,1.10735 ,0.72308 ,7.09486 
281 ,51.5362 ,1.10929 ,0.70255 ,6.89340 
282 ,51.7127 ,1.11117 ,0.68201 ,6.69193 
283 ,51.8890 ,1.11296 ,0.68201 ,6.69193 
284 ,52.0808 ,1.11484 ,0.67517 ,6.62477 
285 ,52.2406 ,1.11653 ,0.65121 ,6.38972 
286 ,52.4169 ,1.11821 ,0.64437 ,6.32256 
287 ,52.6089 ,1.12012 ,0.63068 ,6.18825 
288 ,52.8011 ,1.12191 ,0.62726 ,6.15467 
289 ,52.9932 ,1.12389 ,0.59988 ,5.88605 
290 ,53.1692 ,1.12567 ,0.61015 ,5.98678 
291 ,53.3449 ,1.12749 ,0.57935 ,5.68458 
292 ,53.5214 ,1.12923 ,0.56566 ,5.55026 
293 ,53.7295 ,1.13131 ,0.54855 ,5.38237 
294 ,53.9055 ,1.13305 ,0.54171 ,5.31522 
295 ,54.0976 ,1.13501 ,0.50064 ,4.91228 
296 ,54.2897 ,1.13682 ,0.50064 ,4.91228 
297 ,54.4657 ,1.13869 ,0.50748 ,4.97943 
298 ,54.6578 ,1.14054 ,0.47326 ,4.64365 
299 ,54.8340 ,1.14237 ,0.45957 ,4.50934 
300 ,55.0260 ,1.14424 ,0.46300 ,4.54291 
301 ,55.2181 ,1.14622 ,0.43904 ,4.30787 
302 ,55.4101 ,1.14803 ,0.44588 ,4.37502 
303 ,55.6183 ,1.15013 ,0.41166 ,4.03924 
304 ,55.8423 ,1.15229 ,0.38771 ,3.80419 
305 ,56.0185 ,1.15422 ,0.37744 ,3.70346 
306 ,56.2265 ,1.15625 ,0.38429 ,3.77061 
307 ,56.4186 ,1.15812 ,0.35349 ,3.46841 
308 ,56.6267 ,1.16021 ,0.33980 ,3.33410 
309 ,56.8508 ,1.16234 ,0.33638 ,3.30052 
310 ,57.0268 ,1.16425 ,0.32269 ,3.16620 
311 ,57.2508 ,1.16635 ,0.29531 ,2.89758 
312 ,57.4268 ,1.16827 ,0.29189 ,2.86400 
313 ,57.6027 ,1.17002 ,0.27478 ,2.69611 
314 ,57.7793 ,1.17182 ,0.25767 ,2.52822 
315 ,57.9550 ,1.17354 ,0.23713 ,2.32675 
316 ,58.1472 ,1.17540 ,0.23713 ,2.32675 
317 ,58.3234 ,1.17722 ,0.22344 ,2.19243 
318 ,58.4834 ,1.17896 ,0.19607 ,1.92381 
319 ,58.6591 ,1.18061 ,0.19264 ,1.89023 
320 ,58.8356 ,1.18235 ,0.17553 ,1.72234 
321 ,59.0116 ,1.18413 ,0.17553 ,1.72234 
322 ,59.2035 ,1.18598 ,0.14131 ,1.38655 
323 ,59.3798 ,1.18781 ,0.15500 ,1.52087 
324 ,59.5716 ,1.18967 ,0.14816 ,1.45371 
325 ,59.7475 ,1.19148 ,0.13447 ,1.31940 
326 ,59.9398 ,1.19329 ,0.12078 ,1.18508 
327 ,60.1321 ,1.19528 ,0.10025 ,0.98361 
328 ,60.3400 ,1.19729 ,0.10709 ,1.05077 
329 ,60.4999 ,1.19910 ,0.07287 ,0.71499 
330 ,60.6599 ,1.20071 ,0.05918 ,0.58067 
331 ,60.8359 ,1.20231 ,0.04549 ,0.44636 
332 ,61.0119 ,1.20407 ,0.04549 ,0.44636 
333 ,61.1882 ,1.20588 ,0.04891 ,0.47994 
334 ,61.3641 ,1.20759 ,0.04549 ,0.44636 
335 ,61.5402 ,1.20941 ,0.02496 ,0.24489 
336 ,61.7003 ,1.21110 ,-0.00926 ,-0.09089 
337 ,61.8764 ,1.21272 ,-0.02637 ,-0.25878 
338 ,62.0524 ,1.21449 ,-0.00926 ,-0.09089 
339 ,62.2285 ,1.21624 ,-0.01611 ,-0.15805 
340 ,62.4046 ,1.21801 ,-0.04348 ,-0.42667 
341 ,62.5807 ,1.21983 ,-0.06402 ,-0.62814 
342 ,62.7406 ,1.22150 ,-0.06744 ,-0.66172 
343 ,62.9168 ,1.22309 ,-0.08113 ,-0.79604 
344 ,63.0929 ,1.22500 ,-0.07428 ,-0.72888 
345 ,63.2689 ,1.22666 ,-0.09140 ,-0.89677 
346 ,63.4289 ,1.22837 ,-0.09824 ,-0.96393 
347 ,63.6050 ,1.23000 ,-0.11193 ,-1.09824 
348 ,63.7811 ,1.23180 ,-0.11877 ,-1.16540 
349 ,63.9411 ,1.23352 ,-0.15299 ,-1.50118 
350 ,64.1012 ,1.23512 ,-0.15299 ,-1.50118 
351 ,64.2774 ,1.23681 ,-0.17011 ,-1.66907 
352 ,64.4534 ,1.23849 ,-0.17353 ,-1.70265 
353 ,64.6295 ,1.24025 ,-0.16326 ,-1.60191 
354 ,64.8055 ,1.24204 ,-0.17695 ,-1.73623 
355 ,64.9817 ,1.24378 ,-0.21117 ,-2.07201 
356 ,65.1738 ,1.24570 ,-0.22486 ,-2.20632 
357 ,65.3501 ,1.24743 ,-0.22144 ,-2.17275 
358 ,65.5422 ,1.24937 ,-0.24881 ,-2.44137 
359 ,65.7342 ,1.25124 ,-0.23513 ,-2.30706 
360 ,65.9103 ,1.25305 ,-0.25224 ,-2.47495 
361 ,66.1021 ,1.25493 ,-0.26593 ,-2.60926 
362 ,66.2945 ,1.25687 ,-0.27277 ,-2.67642 
363 ,66.5024 ,1.25895 ,-0.30357 ,-2.97863 
364 ,66.6787 ,1.26079 ,-0.30699 ,-3.01220 
365 ,66.8546 ,1.26251 ,-0.31041 ,-3.04578 
366 ,67.0308 ,1.26431 ,-0.31041 ,-3.04578 
367 ,67.2228 ,1.26615 ,-0.33779 ,-3.31441 
368 ,67.3988 ,1.26793 ,-0.35148 ,-3.44872 
369 ,67.5749 ,1.26971 ,-0.35148 ,-3.44872 
370 ,67.7508 ,1.27147 ,-0.35832 ,-3.51588 
371 ,67.9272 ,1.27329 ,-0.36517 ,-3.58303 
372 ,68.1193 ,1.27513 ,-0.38912 ,-3.81808 
373 ,68.2951 ,1.27689 ,-0.40623 ,-3.98597 
374 ,68.4715 ,1.27867 ,-0.39255 ,-3.85166 
375 ,68.6794 ,1.28062 ,-0.41308 ,-4.05313 
376 ,68.8554 ,1.28250 ,-0.41992 ,-4.12029 
377 ,69.0316 ,1.28427 ,-0.42335 ,-4.15387 
378 ,69.2397 ,1.28622 ,-0.45414 ,-4.45607 
379 ,69.4478 ,1.28832 ,-0.44730 ,-4.38891 
380 ,69.6237 ,1.29021 ,-0.46099 ,-4.52323 
381 ,69.8000 ,1.29195 ,-0.48494 ,-4.75828 
382 ,69.9759 ,1.29377 ,-0.50206 ,-4.92617 
383 ,70.1523 ,1.29550 ,-0.48837 ,-4.79185 
384 ,70.3597 ,1.29752 ,-0.51232 ,-5.02690 
385 ,70.5362 ,1.29935 ,-0.52259 ,-5.12764 
386 ,70.7282 ,1.30116 ,-0.52601 ,-5.16121 
387 ,70.9363 ,1.30324 ,-0.52601 ,-5.16121 
388 ,71.1283 ,1.30521 ,-0.53970 ,-5.29553 
389 ,71.3043 ,1.30698 ,-0.57050 ,-5.59773 
390 ,71.4807 ,1.30883 ,-0.56023 ,-5.49700 
391 ,71.6566 ,1.31047 ,-0.57734 ,-5.66489 
392 ,71.8327 ,1.31225 ,-0.58077 ,-5.69847 
393 ,72.0087 ,1.31406 ,-0.59103 ,-5.79920 
394 ,72.1848 ,1.31581 ,-0.61156 ,-6.00067 
395 ,72.3769 ,1.31766 ,-0.61156 ,-6.00067 
396 ,72.5529 ,1.31945 ,-0.61156 ,-6.00067 
397 ,72.7292 ,1.32126 ,-0.62525 ,-6.13499 
398 ,72.9211 ,1.32318 ,-0.64236 ,-6.30288 
399 ,73.0972 ,1.32486 ,-0.65263 ,-6.40361 
400 ,73.2890 ,1.32686 ,-0.64921 ,-6.37003 
401 ,73.4810 ,1.32872 ,-0.67659 ,-6.63866 
402 ,73.6410 ,1.33047 ,-0.69027 ,-6.77297 
403 ,73.8174 ,1.33215 ,-0.68343 ,-6.70582 
404 ,74.0096 ,1.33404 ,-0.69027 ,-6.77297 
405 ,74.2016 ,1.33595 ,-0.71765 ,-7.04160 
406 ,74.3777 ,1.33769 ,-0.71423 ,-7.00802 
407 ,74.5698 ,1.33963 ,-0.72792 ,-7.14233 
408 ,74.7457 ,1.34136 ,-0.74161 ,-7.27665 
409 ,74.9380 ,1.34330 ,-0.74845 ,-7.34380 
410 ,75.1301 ,1.34516 ,-0.75187 ,-7.37738 
411 ,75.3060 ,1.34704 ,-0.76556 ,-7.51170 
412 ,75.4982 ,1.34881 ,-0.78952 ,-7.74674 
413 ,75.6899 ,1.35086 ,-0.78610 ,-7.71317 
414 ,75.8663 ,1.35258 ,-0.80321 ,-7.88106 
415 ,76.0585 ,1.35454 ,-0.80663 ,-7.91464 
416 ,76.2505 ,1.35642 ,-0.81347 ,-7.98179 
417 ,76.4266 ,1.35818 ,-0.83058 ,-8.14968 
418 ,76.6347 ,1.36022 ,-0.82716 ,-8.11611 
419 ,76.8424 ,1.36235 ,-0.85796 ,-8.41831 
420 ,77.0189 ,1.36411 ,-0.86138 ,-8.45189 
421 ,77.2110 ,1.36605 ,-0.87849 ,-8.61978 
422 ,77.4031 ,1.36790 ,-0.88876 ,-8.72051 
423 ,77.5792 ,1.36975 ,-0.89903 ,-8.82125 
424 ,77.7713 ,1.37159 ,-0.90245 ,-8.85483 
425 ,77.9632 ,1.37353 ,-0.92298 ,-9.05630 
426 ,78.1393 ,1.37534 ,-0.92983 ,-9.12345 
427 ,78.3154 ,1.37706 ,-0.92298 ,-9.05630 
428 ,78.5073 ,1.37899 ,-0.95036 ,-9.32492 
429 ,78.6835 ,1.38074 ,-0.95378 ,-9.35850 
430 ,78.8752 ,1.38265 ,-0.95720 ,-9.39208 
431 ,79.0517 ,1.38447 ,-0.96747 ,-9.49282 
432 ,79.2596 ,1.38641 ,-0.96405 ,-9.45924 
433 ,79.4518 ,1.38844 ,-0.98116 ,-9.62713 
434 ,79.6437 ,1.39030 ,-1.00511 ,-9.86218 
435 ,79.8519 ,1.39242 ,-0.99827 ,-9.79502 
436 ,80.0439 ,1.39433 ,-1.02222 ,-10.03007 
437 ,80.2520 ,1.39637 ,-1.03249 ,-10.13080 
438 ,80.4281 ,1.39820 ,-1.02907 ,-10.09723 
439 ,80.6202 ,1.40010 ,-1.04960 ,-10.29869 
440 ,80.7960 ,1.40183 ,-1.04960 ,-10.29869 
441 ,80.9721 ,1.40363 ,-1.05302 ,-10.33227 
442 ,81.1484 ,1.40539 ,-1.06329 ,-10.43301 
443 ,81.3563 ,1.40742 ,-1.06329 ,-10.43301 
444 ,81.5326 ,1.40922 ,-1.07356 ,-10.53374 
445 ,81.7247 ,1.41113 ,-1.10778 ,-10.86953 
446 ,81.9003 ,1.41295 ,-1.11462 ,-10.93668 
447 ,82.0764 ,1.41463 ,-1.10093 ,-10.80237 
448 ,82.2527 ,1.41647 ,-1.10093 ,-10.80237 
449 ,82.4450 ,1.41832 ,-1.14200 ,-11.20531 
450 ,82.6210 ,1.42014 ,-1.13516 ,-11.13815 
451 ,82.8131 ,1.42202 ,-1.13858 ,-11.17173 
452 ,83.0050 ,1.42399 ,-1.15911 ,-11.37320 
453 ,83.1812 ,1.42575 ,-1.16938 ,-11.47394 
454 ,83.3733 ,1.42760 ,-1.16253 ,-11.40678 
455 ,83.5494 ,1.42935 ,-1.17622 ,-11.54109 
456 ,83.7415 ,1.43123 ,-1.17964 ,-11.57467 
457 ,83.9176 ,1.43311 ,-1.19676 ,-11.74256 
458 ,84.0937 ,1.43486 ,-1.18649 ,-11.64183 
459 ,84.2695 ,1.43661 ,-1.19333 ,-11.70898 
460 ,84.4456 ,1.43832 ,-1.22413 ,-12.01119 
461 ,84.6218 ,1.44012 ,-1.22071 ,-11.97761 
