Data stamp = , 05-04-2022 14:52:06 775

Calibration Values: 
Slope = , 26.54 , g/V 
Offset Voltage at no contact = , -0.501760 , V 

No , Time , Stage Position ,   Mass , Force 
   ,  (s) ,      (mm)      ,   (g)  , (mN)  

1 ,0.0000 ,0.59949 ,4.99737 ,49.03416 
2 ,0.2126 ,0.59957 ,4.99737 ,49.03416 
3 ,0.6771 ,0.60092 ,5.02132 ,49.26921 
4 ,0.8853 ,0.60305 ,5.01790 ,49.23563 
5 ,1.0612 ,0.60486 ,5.02132 ,49.26921 
6 ,1.2374 ,0.60650 ,5.01106 ,49.16848 
7 ,1.4297 ,0.60837 ,5.00763 ,49.13490 
8 ,1.6375 ,0.61056 ,4.98026 ,48.86627 
9 ,1.8137 ,0.61236 ,4.96999 ,48.76554 
10 ,1.9896 ,0.61418 ,4.93577 ,48.42975 
11 ,2.1657 ,0.61596 ,4.93235 ,48.39618 
12 ,2.3415 ,0.61762 ,4.91181 ,48.19471 
13 ,2.5179 ,0.61945 ,4.89812 ,48.06039 
14 ,2.7100 ,0.62136 ,4.86390 ,47.72461 
15 ,2.9021 ,0.62321 ,4.85364 ,47.62387 
16 ,3.0942 ,0.62515 ,4.82626 ,47.35525 
17 ,3.2861 ,0.62701 ,4.81599 ,47.25451 
18 ,3.4620 ,0.62883 ,4.80573 ,47.15378 
19 ,3.6384 ,0.63064 ,4.77835 ,46.88515 
20 ,3.8142 ,0.63236 ,4.76808 ,46.78442 
21 ,4.0225 ,0.63442 ,4.75097 ,46.61653 
22 ,4.1983 ,0.63619 ,4.71675 ,46.28074 
23 ,4.3745 ,0.63797 ,4.68937 ,46.01212 
24 ,4.5507 ,0.63978 ,4.67226 ,45.84422 
25 ,4.7266 ,0.64146 ,4.66199 ,45.74349 
26 ,4.9188 ,0.64341 ,4.64831 ,45.60918 
27 ,5.0949 ,0.64513 ,4.62093 ,45.34055 
28 ,5.2869 ,0.64702 ,4.60724 ,45.20624 
29 ,5.4792 ,0.64899 ,4.59013 ,45.03835 
30 ,5.6713 ,0.65096 ,4.56960 ,44.83688 
31 ,5.8629 ,0.65284 ,4.55933 ,44.73614 
32 ,6.0391 ,0.65460 ,4.54222 ,44.56825 
33 ,6.2154 ,0.65638 ,4.52853 ,44.43394 
34 ,6.3915 ,0.65814 ,4.48746 ,44.03100 
35 ,6.5992 ,0.66007 ,4.48062 ,43.96384 
36 ,6.7756 ,0.66202 ,4.47378 ,43.89668 
37 ,6.9678 ,0.66384 ,4.44640 ,43.62806 
38 ,7.1437 ,0.66565 ,4.42586 ,43.42659 
39 ,7.3196 ,0.66741 ,4.42929 ,43.46016 
40 ,7.4959 ,0.66916 ,4.39507 ,43.12438 
41 ,7.6876 ,0.67110 ,4.37453 ,42.92291 
42 ,7.8638 ,0.67285 ,4.35400 ,42.72144 
43 ,8.0721 ,0.67492 ,4.33347 ,42.51997 
44 ,8.2483 ,0.67673 ,4.31978 ,42.38566 
45 ,8.4240 ,0.67855 ,4.31978 ,42.38566 
46 ,8.6000 ,0.68017 ,4.29924 ,42.18419 
47 ,8.7759 ,0.68198 ,4.28556 ,42.04988 
48 ,8.9520 ,0.68370 ,4.26160 ,41.81483 
49 ,9.1445 ,0.68553 ,4.24449 ,41.64694 
50 ,9.3363 ,0.68760 ,4.23422 ,41.54620 
51 ,9.5128 ,0.68932 ,4.20342 ,41.24400 
52 ,9.7048 ,0.69125 ,4.18631 ,41.07611 
53 ,9.8810 ,0.69298 ,4.18289 ,41.04253 
54 ,10.0570 ,0.69477 ,4.17605 ,40.97537 
55 ,10.2491 ,0.69671 ,4.13156 ,40.53885 
56 ,10.4252 ,0.69848 ,4.11445 ,40.37096 
57 ,10.6330 ,0.70043 ,4.10418 ,40.27023 
58 ,10.8093 ,0.70234 ,4.08707 ,40.10233 
59 ,11.0172 ,0.70426 ,4.08023 ,40.03518 
60 ,11.2094 ,0.70626 ,4.03574 ,39.59866 
61 ,11.3855 ,0.70808 ,4.02889 ,39.53150 
62 ,11.5777 ,0.70998 ,4.03916 ,39.63224 
63 ,11.7536 ,0.71170 ,4.00836 ,39.33003 
64 ,11.9296 ,0.71350 ,3.98441 ,39.09499 
65 ,12.1217 ,0.71538 ,3.99467 ,39.19572 
66 ,12.2977 ,0.71716 ,3.96387 ,38.89352 
67 ,12.4736 ,0.71894 ,3.95361 ,38.79278 
68 ,12.6499 ,0.72070 ,3.91938 ,38.45700 
69 ,12.8257 ,0.72248 ,3.89885 ,38.25553 
70 ,13.0021 ,0.72420 ,3.89201 ,38.18837 
71 ,13.1942 ,0.72607 ,3.87147 ,37.98690 
72 ,13.3862 ,0.72802 ,3.85094 ,37.78543 
73 ,13.5624 ,0.72980 ,3.84410 ,37.71828 
74 ,13.7381 ,0.73162 ,3.83383 ,37.61754 
75 ,13.9146 ,0.73330 ,3.82356 ,37.51681 
76 ,14.0903 ,0.73519 ,3.78934 ,37.18102 
77 ,14.2665 ,0.73688 ,3.77565 ,37.04671 
78 ,14.4424 ,0.73863 ,3.75512 ,36.84524 
79 ,14.6188 ,0.74037 ,3.74828 ,36.77808 
80 ,14.8107 ,0.74226 ,3.72090 ,36.50946 
81 ,15.0029 ,0.74413 ,3.72432 ,36.54303 
82 ,15.1786 ,0.74596 ,3.70721 ,36.37514 
83 ,15.3549 ,0.74777 ,3.69352 ,36.24083 
84 ,15.5472 ,0.74964 ,3.66272 ,35.93863 
85 ,15.7231 ,0.75144 ,3.63877 ,35.70358 
86 ,15.9154 ,0.75337 ,3.64219 ,35.73716 
87 ,16.1073 ,0.75523 ,3.60454 ,35.36779 
88 ,16.2833 ,0.75697 ,3.59428 ,35.26706 
89 ,16.4594 ,0.75876 ,3.58743 ,35.19990 
90 ,16.6357 ,0.76049 ,3.58401 ,35.16632 
91 ,16.8117 ,0.76229 ,3.56690 ,34.99843 
92 ,17.0038 ,0.76418 ,3.53952 ,34.72981 
93 ,17.1801 ,0.76600 ,3.51557 ,34.49476 
94 ,17.4035 ,0.76813 ,3.50188 ,34.36045 
95 ,17.5960 ,0.77011 ,3.48477 ,34.19255 
96 ,17.7718 ,0.77192 ,3.48477 ,34.19255 
97 ,17.9641 ,0.77370 ,3.44028 ,33.75604 
98 ,18.1563 ,0.77577 ,3.44370 ,33.78961 
99 ,18.3320 ,0.77758 ,3.41633 ,33.52099 
100 ,18.5082 ,0.77927 ,3.41290 ,33.48741 
101 ,18.6842 ,0.78105 ,3.38210 ,33.18520 
102 ,18.8605 ,0.78278 ,3.36842 ,33.05089 
103 ,19.0687 ,0.78475 ,3.35815 ,32.95016 
104 ,19.2604 ,0.78670 ,3.35130 ,32.88300 
105 ,19.4365 ,0.78846 ,3.32051 ,32.58080 
106 ,19.6128 ,0.79027 ,3.32051 ,32.58080 
107 ,19.7889 ,0.79208 ,3.29655 ,32.34575 
108 ,19.9650 ,0.79386 ,3.26917 ,32.07712 
109 ,20.1731 ,0.79584 ,3.25206 ,31.90923 
110 ,20.3492 ,0.79765 ,3.24522 ,31.84207 
111 ,20.5251 ,0.79947 ,3.21442 ,31.53987 
112 ,20.7013 ,0.80120 ,3.20415 ,31.43913 
113 ,20.8930 ,0.80303 ,3.20073 ,31.40555 
114 ,21.0695 ,0.80486 ,3.19046 ,31.30482 
115 ,21.2615 ,0.80671 ,3.15624 ,30.96904 
116 ,21.4534 ,0.80862 ,3.15282 ,30.93546 
117 ,21.6455 ,0.81050 ,3.11175 ,30.53252 
118 ,21.8378 ,0.81257 ,3.10149 ,30.43178 
119 ,22.0298 ,0.81445 ,3.09122 ,30.33105 
120 ,22.2058 ,0.81617 ,3.07069 ,30.12958 
121 ,22.3821 ,0.81799 ,3.05700 ,29.99527 
122 ,22.5898 ,0.81996 ,3.05700 ,29.99527 
123 ,22.7818 ,0.82194 ,3.02278 ,29.65948 
124 ,22.9741 ,0.82384 ,3.01251 ,29.55875 
125 ,23.1663 ,0.82582 ,2.99198 ,29.35728 
126 ,23.3423 ,0.82760 ,2.97487 ,29.18939 
127 ,23.5180 ,0.82945 ,2.96802 ,29.12223 
128 ,23.6941 ,0.83107 ,2.95776 ,29.02150 
129 ,23.8705 ,0.83285 ,2.94749 ,28.92076 
130 ,24.0627 ,0.83474 ,2.91327 ,28.58498 
131 ,24.2387 ,0.83655 ,2.89958 ,28.45066 
132 ,24.4307 ,0.83847 ,2.88589 ,28.31635 
133 ,24.6068 ,0.84022 ,2.87905 ,28.24919 
134 ,24.7989 ,0.84213 ,2.84482 ,27.91341 
135 ,24.9752 ,0.84394 ,2.84482 ,27.91341 
136 ,25.1511 ,0.84564 ,2.82771 ,27.74552 
137 ,25.3430 ,0.84753 ,2.79007 ,27.37616 
138 ,25.5353 ,0.84941 ,2.76954 ,27.17469 
139 ,25.7271 ,0.85146 ,2.76611 ,27.14111 
140 ,25.9034 ,0.85317 ,2.74900 ,26.97322 
141 ,26.0951 ,0.85509 ,2.73874 ,26.87248 
142 ,26.2716 ,0.85687 ,2.72847 ,26.77175 
143 ,26.4472 ,0.85860 ,2.70794 ,26.57028 
144 ,26.6239 ,0.86040 ,2.68056 ,26.30165 
145 ,26.8158 ,0.86233 ,2.66345 ,26.13376 
146 ,27.0238 ,0.86433 ,2.63949 ,25.89871 
147 ,27.1999 ,0.86617 ,2.61554 ,25.66367 
148 ,27.3759 ,0.86793 ,2.60869 ,25.59651 
149 ,27.5521 ,0.86965 ,2.61212 ,25.63009 
150 ,27.7600 ,0.87166 ,2.57447 ,25.26073 
151 ,27.9517 ,0.87370 ,2.57447 ,25.26073 
152 ,28.1281 ,0.87545 ,2.56763 ,25.19357 
153 ,28.3045 ,0.87719 ,2.52998 ,24.82421 
154 ,28.4806 ,0.87902 ,2.53341 ,24.85779 
155 ,28.6884 ,0.88090 ,2.51287 ,24.65632 
156 ,28.8645 ,0.88281 ,2.49234 ,24.45485 
157 ,29.0406 ,0.88463 ,2.48207 ,24.35411 
158 ,29.2167 ,0.88634 ,2.45127 ,24.05191 
159 ,29.3928 ,0.88806 ,2.45470 ,24.08549 
160 ,29.5528 ,0.88978 ,2.42732 ,23.81686 
161 ,29.7448 ,0.89157 ,2.41021 ,23.64897 
162 ,29.9208 ,0.89334 ,2.39652 ,23.51465 
163 ,30.0969 ,0.89507 ,2.39310 ,23.48108 
164 ,30.2731 ,0.89685 ,2.37256 ,23.27961 
165 ,30.4649 ,0.89874 ,2.34519 ,23.01098 
166 ,30.6573 ,0.90064 ,2.33492 ,22.91024 
167 ,30.8492 ,0.90253 ,2.32123 ,22.77593 
168 ,31.0574 ,0.90462 ,2.30412 ,22.60804 
169 ,31.2332 ,0.90642 ,2.28017 ,22.37299 
170 ,31.4096 ,0.90823 ,2.27674 ,22.33941 
171 ,31.5857 ,0.90997 ,2.25621 ,22.13794 
172 ,31.7779 ,0.91191 ,2.23568 ,21.93647 
173 ,31.9536 ,0.91365 ,2.22883 ,21.86932 
174 ,32.1298 ,0.91540 ,2.22541 ,21.83574 
175 ,32.3219 ,0.91728 ,2.18435 ,21.43280 
176 ,32.5298 ,0.91940 ,2.17408 ,21.33206 
177 ,32.7061 ,0.92116 ,2.17066 ,21.29849 
178 ,32.8982 ,0.92300 ,2.14670 ,21.06344 
179 ,33.0741 ,0.92488 ,2.12617 ,20.86197 
180 ,33.2499 ,0.92660 ,2.11590 ,20.76123 
181 ,33.4264 ,0.92839 ,2.09879 ,20.59334 
182 ,33.6185 ,0.93018 ,2.07826 ,20.39187 
183 ,33.8105 ,0.93224 ,2.07484 ,20.35829 
184 ,33.9866 ,0.93394 ,2.04746 ,20.08967 
185 ,34.1627 ,0.93572 ,2.03719 ,19.98893 
186 ,34.3387 ,0.93750 ,2.01324 ,19.75388 
187 ,34.5148 ,0.93926 ,2.00639 ,19.68673 
188 ,34.7068 ,0.94111 ,1.99955 ,19.61957 
189 ,34.8989 ,0.94310 ,1.96875 ,19.31737 
190 ,35.0749 ,0.94483 ,1.96875 ,19.31737 
191 ,35.2511 ,0.94664 ,1.95164 ,19.14948 
192 ,35.4429 ,0.94845 ,1.92768 ,18.91443 
193 ,35.6512 ,0.95047 ,1.92768 ,18.91443 
194 ,35.8431 ,0.95240 ,1.91057 ,18.74654 
195 ,36.0195 ,0.95431 ,1.87977 ,18.44433 
196 ,36.2114 ,0.95626 ,1.86951 ,18.34360 
197 ,36.4191 ,0.95826 ,1.83871 ,18.04139 
198 ,36.5956 ,0.96002 ,1.83528 ,18.00781 
199 ,36.7877 ,0.96186 ,1.83528 ,18.00781 
200 ,36.9800 ,0.96387 ,1.80106 ,17.67203 
201 ,37.1719 ,0.96582 ,1.78395 ,17.50414 
202 ,37.3639 ,0.96774 ,1.77369 ,17.40340 
203 ,37.5560 ,0.96964 ,1.74973 ,17.16836 
204 ,37.7639 ,0.97167 ,1.73604 ,17.03404 
205 ,37.9402 ,0.97346 ,1.72235 ,16.89973 
206 ,38.1161 ,0.97528 ,1.69155 ,16.59752 
207 ,38.3082 ,0.97716 ,1.70182 ,16.69826 
208 ,38.4679 ,0.97888 ,1.68471 ,16.53037 
209 ,38.6442 ,0.98048 ,1.68471 ,16.53037 
210 ,38.8363 ,0.98248 ,1.62995 ,15.99311 
211 ,39.0285 ,0.98439 ,1.64364 ,16.12743 
212 ,39.2206 ,0.98615 ,1.62653 ,15.95954 
213 ,39.4123 ,0.98819 ,1.61627 ,15.85880 
214 ,39.5884 ,0.98999 ,1.60258 ,15.72449 
215 ,39.7648 ,0.99172 ,1.57520 ,15.45586 
216 ,39.9729 ,0.99379 ,1.54782 ,15.18724 
217 ,40.1491 ,0.99554 ,1.55467 ,15.25439 
218 ,40.3411 ,0.99742 ,1.51702 ,14.88503 
219 ,40.5329 ,0.99933 ,1.52387 ,14.95219 
220 ,40.6928 ,1.00111 ,1.49991 ,14.71714 
221 ,40.8692 ,1.00275 ,1.49307 ,14.64998 
222 ,41.0454 ,1.00455 ,1.47938 ,14.51567 
223 ,41.2214 ,1.00634 ,1.45885 ,14.31420 
224 ,41.3976 ,1.00805 ,1.43147 ,14.04557 
225 ,41.5736 ,1.00984 ,1.40751 ,13.81053 
226 ,41.7495 ,1.01166 ,1.40751 ,13.81053 
227 ,41.9257 ,1.01335 ,1.42120 ,13.94484 
228 ,42.1177 ,1.01526 ,1.38356 ,13.57548 
229 ,42.3258 ,1.01718 ,1.36987 ,13.44116 
230 ,42.5020 ,1.01906 ,1.34934 ,13.23969 
231 ,42.6781 ,1.02087 ,1.33907 ,13.13896 
232 ,42.8538 ,1.02256 ,1.32538 ,13.00465 
233 ,43.0303 ,1.02438 ,1.31169 ,12.87033 
234 ,43.2063 ,1.02613 ,1.30827 ,12.83675 
235 ,43.3984 ,1.02807 ,1.27063 ,12.46739 
236 ,43.5903 ,1.02992 ,1.27405 ,12.50097 
237 ,43.7984 ,1.03199 ,1.25352 ,12.29950 
238 ,43.9904 ,1.03395 ,1.23983 ,12.16519 
239 ,44.1666 ,1.03577 ,1.21245 ,11.89656 
240 ,44.3426 ,1.03752 ,1.22272 ,11.99730 
241 ,44.5187 ,1.03927 ,1.19534 ,11.72867 
242 ,44.6948 ,1.04102 ,1.17138 ,11.49362 
243 ,44.8707 ,1.04276 ,1.16454 ,11.42647 
244 ,45.0471 ,1.04459 ,1.14743 ,11.25857 
245 ,45.2391 ,1.04650 ,1.13716 ,11.15784 
246 ,45.4308 ,1.04830 ,1.12347 ,11.02353 
247 ,45.6072 ,1.05007 ,1.12005 ,10.98995 
248 ,45.7835 ,1.05189 ,1.10636 ,10.85563 
249 ,45.9590 ,1.05367 ,1.09952 ,10.78848 
250 ,46.1353 ,1.05543 ,1.06530 ,10.45270 
251 ,46.3115 ,1.05717 ,1.04819 ,10.28480 
252 ,46.5194 ,1.05912 ,1.04819 ,10.28480 
253 ,46.6958 ,1.06100 ,1.02423 ,10.04976 
254 ,46.8877 ,1.06284 ,1.00028 ,9.81471 
255 ,47.0634 ,1.06464 ,1.00370 ,9.84829 
256 ,47.2397 ,1.06645 ,0.99685 ,9.78113 
257 ,47.4157 ,1.06826 ,0.98659 ,9.68039 
258 ,47.6081 ,1.07005 ,0.96605 ,9.47892 
259 ,47.7999 ,1.07206 ,0.95237 ,9.34461 
260 ,47.9762 ,1.07381 ,0.93525 ,9.17672 
261 ,48.1682 ,1.07573 ,0.91814 ,9.00883 
262 ,48.3442 ,1.07745 ,0.91130 ,8.94167 
263 ,48.5203 ,1.07926 ,0.89419 ,8.77378 
264 ,48.7125 ,1.08117 ,0.86681 ,8.50515 
265 ,48.8884 ,1.08293 ,0.84970 ,8.33726 
266 ,49.0645 ,1.08464 ,0.84970 ,8.33726 
267 ,49.2403 ,1.08646 ,0.84970 ,8.33726 
268 ,49.4166 ,1.08817 ,0.82917 ,8.13579 
269 ,49.5927 ,1.08996 ,0.80521 ,7.90074 
270 ,49.7689 ,1.09172 ,0.78810 ,7.73285 
271 ,49.9606 ,1.09359 ,0.79495 ,7.80001 
272 ,50.1369 ,1.09540 ,0.77441 ,7.59854 
273 ,50.3131 ,1.09719 ,0.76415 ,7.49780 
274 ,50.5068 ,1.09908 ,0.73335 ,7.19560 
275 ,50.6971 ,1.10104 ,0.74019 ,7.26276 
276 ,50.8892 ,1.10292 ,0.71281 ,6.99413 
277 ,51.0653 ,1.10467 ,0.70255 ,6.89340 
278 ,51.2414 ,1.10645 ,0.70255 ,6.89340 
279 ,51.4176 ,1.10819 ,0.69228 ,6.79266 
280 ,51.6097 ,1.11013 ,0.65464 ,6.42330 
281 ,51.7859 ,1.11193 ,0.64437 ,6.32256 
282 ,51.9779 ,1.11382 ,0.64437 ,6.32256 
283 ,52.1537 ,1.11554 ,0.62042 ,6.08752 
284 ,52.3295 ,1.11744 ,0.60330 ,5.91962 
285 ,52.5056 ,1.11907 ,0.58962 ,5.78531 
286 ,52.6816 ,1.12085 ,0.59304 ,5.81889 
287 ,52.8577 ,1.12262 ,0.58962 ,5.78531 
288 ,53.0341 ,1.12443 ,0.56566 ,5.55026 
289 ,53.2259 ,1.12637 ,0.55539 ,5.44953 
290 ,53.4020 ,1.12802 ,0.53486 ,5.24806 
291 ,53.5784 ,1.12985 ,0.53828 ,5.28164 
292 ,53.7864 ,1.13181 ,0.50748 ,4.97943 
293 ,53.9626 ,1.13364 ,0.52117 ,5.11375 
294 ,54.1387 ,1.13545 ,0.51433 ,5.04659 
295 ,54.3306 ,1.13737 ,0.48695 ,4.77796 
296 ,54.5064 ,1.13911 ,0.46984 ,4.61007 
297 ,54.6829 ,1.14086 ,0.46984 ,4.61007 
298 ,54.8749 ,1.14268 ,0.45957 ,4.50934 
299 ,55.0671 ,1.14472 ,0.42535 ,4.17355 
300 ,55.2591 ,1.14656 ,0.42193 ,4.13997 
301 ,55.4349 ,1.14838 ,0.41851 ,4.10640 
302 ,55.6112 ,1.15010 ,0.38771 ,3.80419 
303 ,55.8034 ,1.15204 ,0.37060 ,3.63630 
304 ,55.9794 ,1.15392 ,0.38086 ,3.73703 
305 ,56.1553 ,1.15555 ,0.36718 ,3.60272 
306 ,56.3314 ,1.15733 ,0.34664 ,3.40125 
307 ,56.5074 ,1.15912 ,0.33980 ,3.33410 
308 ,56.6995 ,1.16100 ,0.32269 ,3.16620 
309 ,56.8918 ,1.16295 ,0.31584 ,3.09905 
310 ,57.0838 ,1.16479 ,0.28504 ,2.79684 
311 ,57.2759 ,1.16672 ,0.28504 ,2.79684 
312 ,57.4678 ,1.16862 ,0.25424 ,2.49464 
313 ,57.6596 ,1.17055 ,0.25767 ,2.52822 
314 ,57.8358 ,1.17240 ,0.25082 ,2.46106 
315 ,58.0118 ,1.17412 ,0.24740 ,2.42748 
316 ,58.1883 ,1.17591 ,0.20976 ,2.05812 
317 ,58.3965 ,1.17784 ,0.20291 ,1.99096 
318 ,58.5884 ,1.17980 ,0.17896 ,1.75592 
319 ,58.7485 ,1.18161 ,0.16527 ,1.62160 
320 ,58.9244 ,1.18323 ,0.15500 ,1.52087 
321 ,59.1166 ,1.18517 ,0.14816 ,1.45371 
322 ,59.2928 ,1.18695 ,0.15158 ,1.48729 
323 ,59.4687 ,1.18871 ,0.12762 ,1.25224 
324 ,59.6447 ,1.19044 ,0.11736 ,1.15151 
325 ,59.8209 ,1.19219 ,0.09340 ,0.91646 
326 ,59.9810 ,1.19393 ,0.10025 ,0.98361 
327 ,60.1891 ,1.19575 ,0.06945 ,0.68141 
328 ,60.3651 ,1.19766 ,0.05576 ,0.54710 
329 ,60.5571 ,1.19950 ,0.06260 ,0.61425 
330 ,60.7493 ,1.20149 ,0.04549 ,0.44636 
331 ,60.9410 ,1.20339 ,0.02154 ,0.21131 
332 ,61.1334 ,1.20527 ,0.02496 ,0.24489 
333 ,61.3094 ,1.20709 ,0.00100 ,0.00984 
334 ,61.5016 ,1.20897 ,-0.00926 ,-0.09089 
335 ,61.6935 ,1.21089 ,-0.00926 ,-0.09089 
336 ,61.8854 ,1.21289 ,-0.04006 ,-0.39310 
337 ,62.0778 ,1.21467 ,-0.05717 ,-0.56099 
338 ,62.2699 ,1.21668 ,-0.05717 ,-0.56099 
339 ,62.4459 ,1.21843 ,-0.07771 ,-0.76246 
340 ,62.6220 ,1.22019 ,-0.09140 ,-0.89677 
341 ,62.7982 ,1.22197 ,-0.10166 ,-0.99751 
342 ,62.9738 ,1.22376 ,-0.10166 ,-0.99751 
343 ,63.1503 ,1.22551 ,-0.10508 ,-1.03108 
344 ,63.3262 ,1.22725 ,-0.12562 ,-1.23255 
345 ,63.5183 ,1.22913 ,-0.13246 ,-1.29971 
346 ,63.6945 ,1.23098 ,-0.13588 ,-1.33329 
347 ,63.8868 ,1.23282 ,-0.16326 ,-1.60191 
348 ,64.0626 ,1.23465 ,-0.17011 ,-1.66907 
349 ,64.2387 ,1.23639 ,-0.18379 ,-1.80338 
350 ,64.4144 ,1.23815 ,-0.18722 ,-1.83696 
351 ,64.5908 ,1.23991 ,-0.19406 ,-1.90412 
352 ,64.7829 ,1.24175 ,-0.22144 ,-2.17275 
353 ,64.9748 ,1.24375 ,-0.21117 ,-2.07201 
354 ,65.1347 ,1.24547 ,-0.22828 ,-2.23990 
355 ,65.3111 ,1.24711 ,-0.23513 ,-2.30706 
356 ,65.4873 ,1.24888 ,-0.24197 ,-2.37422 
357 ,65.6793 ,1.25071 ,-0.26250 ,-2.57569 
358 ,65.8874 ,1.25275 ,-0.27619 ,-2.71000 
359 ,66.1110 ,1.25496 ,-0.27619 ,-2.71000 
360 ,66.2876 ,1.25688 ,-0.28988 ,-2.84431 
361 ,66.4798 ,1.25880 ,-0.32410 ,-3.18010 
362 ,66.6716 ,1.26068 ,-0.31726 ,-3.11294 
363 ,66.8478 ,1.26242 ,-0.32752 ,-3.21367 
364 ,67.0236 ,1.26423 ,-0.34464 ,-3.38156 
365 ,67.2318 ,1.26624 ,-0.34806 ,-3.41514 
366 ,67.4236 ,1.26823 ,-0.35148 ,-3.44872 
367 ,67.6001 ,1.26997 ,-0.38228 ,-3.75093 
368 ,67.7921 ,1.27189 ,-0.38912 ,-3.81808 
369 ,67.9682 ,1.27364 ,-0.39255 ,-3.85166 
370 ,68.1440 ,1.27543 ,-0.41308 ,-4.05313 
371 ,68.3363 ,1.27733 ,-0.42335 ,-4.15387 
372 ,68.5318 ,1.27930 ,-0.42335 ,-4.15387 
373 ,68.7204 ,1.28118 ,-0.45757 ,-4.48965 
374 ,68.9126 ,1.28313 ,-0.44388 ,-4.35534 
375 ,69.1045 ,1.28494 ,-0.46783 ,-4.59038 
376 ,69.2804 ,1.28674 ,-0.47810 ,-4.69112 
377 ,69.4567 ,1.28857 ,-0.49863 ,-4.89259 
378 ,69.6488 ,1.29049 ,-0.47810 ,-4.69112 
379 ,69.8246 ,1.29218 ,-0.50890 ,-4.99332 
380 ,70.0009 ,1.29395 ,-0.53628 ,-5.26195 
381 ,70.1771 ,1.29575 ,-0.53285 ,-5.22837 
382 ,70.3528 ,1.29749 ,-0.52601 ,-5.16121 
383 ,70.5292 ,1.29928 ,-0.53285 ,-5.22837 
384 ,70.7212 ,1.30116 ,-0.56365 ,-5.53058 
385 ,70.8974 ,1.30297 ,-0.57392 ,-5.63131 
386 ,71.0894 ,1.30485 ,-0.56708 ,-5.56415 
387 ,71.2655 ,1.30666 ,-0.57392 ,-5.63131 
388 ,71.4412 ,1.30838 ,-0.59788 ,-5.86636 
389 ,71.6016 ,1.31012 ,-0.61499 ,-6.03425 
390 ,71.7938 ,1.31187 ,-0.62183 ,-6.10141 
391 ,71.9698 ,1.31370 ,-0.61499 ,-6.03425 
392 ,72.1619 ,1.31555 ,-0.63552 ,-6.23572 
393 ,72.3379 ,1.31732 ,-0.65263 ,-6.40361 
394 ,72.5299 ,1.31918 ,-0.64236 ,-6.30288 
395 ,72.7060 ,1.32098 ,-0.65263 ,-6.40361 
396 ,72.8981 ,1.32285 ,-0.67659 ,-6.63866 
397 ,73.0903 ,1.32486 ,-0.66290 ,-6.50435 
398 ,73.2822 ,1.32677 ,-0.69370 ,-6.80655 
399 ,73.4584 ,1.32853 ,-0.71081 ,-6.97444 
400 ,73.6663 ,1.33054 ,-0.71423 ,-7.00802 
401 ,73.8586 ,1.33257 ,-0.72107 ,-7.07518 
402 ,74.0505 ,1.33447 ,-0.72107 ,-7.07518 
403 ,74.2268 ,1.33617 ,-0.73134 ,-7.17591 
404 ,74.4186 ,1.33814 ,-0.75187 ,-7.37738 
405 ,74.6108 ,1.34000 ,-0.75187 ,-7.37738 
406 ,74.7869 ,1.34181 ,-0.75530 ,-7.41096 
407 ,74.9627 ,1.34356 ,-0.77583 ,-7.61243 
408 ,75.1391 ,1.34531 ,-0.79636 ,-7.81390 
409 ,75.3151 ,1.34713 ,-0.79978 ,-7.84748 
410 ,75.4911 ,1.34885 ,-0.79636 ,-7.81390 
411 ,75.6993 ,1.35079 ,-0.80321 ,-7.88106 
412 ,75.8753 ,1.35273 ,-0.80663 ,-7.91464 
413 ,76.0515 ,1.35445 ,-0.80663 ,-7.91464 
414 ,76.2275 ,1.35623 ,-0.80321 ,-7.88106 
415 ,76.4037 ,1.35799 ,-0.80321 ,-7.88106 
416 ,76.5797 ,1.35975 ,-0.83058 ,-8.14968 
417 ,76.7557 ,1.36146 ,-0.83058 ,-8.14968 
418 ,76.9314 ,1.36321 ,-0.84085 ,-8.25042 
419 ,77.1079 ,1.36504 ,-0.84085 ,-8.25042 
420 ,77.3001 ,1.36695 ,-0.85796 ,-8.41831 
421 ,77.4761 ,1.36882 ,-0.87165 ,-8.55262 
422 ,77.6682 ,1.37050 ,-0.87507 ,-8.58620 
423 ,77.8602 ,1.37255 ,-0.88192 ,-8.65336 
424 ,78.0364 ,1.37430 ,-0.90245 ,-8.85483 
425 ,78.2124 ,1.37606 ,-0.91614 ,-8.98914 
426 ,78.3886 ,1.37784 ,-0.89560 ,-8.78767 
427 ,78.5805 ,1.37974 ,-0.91956 ,-9.02272 
428 ,78.7567 ,1.38146 ,-0.94351 ,-9.25777 
429 ,78.9647 ,1.38356 ,-0.94009 ,-9.22419 
430 ,79.1567 ,1.38545 ,-0.95720 ,-9.39208 
431 ,79.3328 ,1.38726 ,-0.96063 ,-9.42566 
432 ,79.5249 ,1.38914 ,-0.95378 ,-9.35850 
433 ,79.7329 ,1.39115 ,-0.98116 ,-9.62713 
434 ,79.9087 ,1.39300 ,-0.99143 ,-9.72786 
435 ,80.0851 ,1.39476 ,-0.98800 ,-9.69429 
436 ,80.2612 ,1.39651 ,-0.99485 ,-9.76144 
437 ,80.4534 ,1.39845 ,-1.02565 ,-10.06365 
438 ,80.6291 ,1.40023 ,-1.01538 ,-9.96291 
439 ,80.8215 ,1.40210 ,-1.03249 ,-10.13080 
440 ,81.0132 ,1.40398 ,-1.04618 ,-10.26512 
441 ,81.1896 ,1.40586 ,-1.05645 ,-10.36585 
442 ,81.3655 ,1.40762 ,-1.04618 ,-10.26512 
443 ,81.5417 ,1.40935 ,-1.06329 ,-10.43301 
444 ,81.7176 ,1.41109 ,-1.08725 ,-10.66806 
445 ,81.9259 ,1.41309 ,-1.08382 ,-10.63448 
446 ,82.1179 ,1.41510 ,-1.09409 ,-10.73521 
447 ,82.3259 ,1.41714 ,-1.09751 ,-10.76879 
448 ,82.5020 ,1.41893 ,-1.11120 ,-10.90310 
449 ,82.6783 ,1.42071 ,-1.11120 ,-10.90310 
450 ,82.8863 ,1.42266 ,-1.12489 ,-11.03742 
451 ,83.0779 ,1.42469 ,-1.15569 ,-11.33962 
452 ,83.2544 ,1.42645 ,-1.16253 ,-11.40678 
453 ,83.4466 ,1.42836 ,-1.14200 ,-11.20531 
454 ,83.6226 ,1.43014 ,-1.15911 ,-11.37320 
455 ,83.8149 ,1.43206 ,-1.18307 ,-11.60825 
456 ,83.9905 ,1.43381 ,-1.18307 ,-11.60825 
457 ,84.1827 ,1.43565 ,-1.17964 ,-11.57467 
458 ,84.3589 ,1.43750 ,-1.19333 ,-11.70898 
459 ,84.5349 ,1.43926 ,-1.21729 ,-11.94403 
460 ,84.7110 ,1.44100 ,-1.22413 ,-12.01119 
461 ,84.8874 ,1.44279 ,-1.22755 ,-12.04477 
