Data stamp = , 05-04-2022 04:00:04 389

Calibration Values: 
Slope = , 26.54 , g/V 
Offset Voltage at no contact = , -0.501760 , V 

No , Time , Stage Position ,   Mass , Force 
   ,  (s) ,      (mm)      ,   (g)  , (mN)  

1 ,0.0000 ,0.59946 ,5.03843 ,49.43710 
2 ,0.2145 ,0.59955 ,5.03843 ,49.43710 
3 ,0.5191 ,0.60032 ,5.02474 ,49.30279 
4 ,0.7109 ,0.60174 ,5.01790 ,49.23563 
5 ,0.8872 ,0.60317 ,5.01448 ,49.20205 
6 ,1.0949 ,0.60510 ,5.02474 ,49.30279 
7 ,1.2714 ,0.60684 ,5.02132 ,49.26921 
8 ,1.4474 ,0.60862 ,5.02474 ,49.30279 
9 ,1.6234 ,0.61047 ,5.00421 ,49.10132 
10 ,1.8154 ,0.61239 ,5.01106 ,49.16848 
11 ,2.0076 ,0.61430 ,4.98710 ,48.93343 
12 ,2.1998 ,0.61623 ,4.98368 ,48.89985 
13 ,2.3919 ,0.61811 ,4.94261 ,48.49691 
14 ,2.5680 ,0.61997 ,4.92892 ,48.36260 
15 ,2.7600 ,0.62175 ,4.92208 ,48.29544 
16 ,2.9360 ,0.62356 ,4.90839 ,48.16113 
17 ,3.1121 ,0.62529 ,4.88786 ,47.95966 
18 ,3.2881 ,0.62711 ,4.86732 ,47.75819 
19 ,3.4803 ,0.62899 ,4.85706 ,47.65745 
20 ,3.6563 ,0.63077 ,4.83995 ,47.48956 
21 ,3.8484 ,0.63267 ,4.79546 ,47.05304 
22 ,4.0243 ,0.63449 ,4.79204 ,47.01946 
23 ,4.2005 ,0.63621 ,4.78177 ,46.91873 
24 ,4.3766 ,0.63800 ,4.76808 ,46.78442 
25 ,4.5686 ,0.63984 ,4.73386 ,46.44863 
26 ,4.7446 ,0.64166 ,4.71675 ,46.28074 
27 ,4.9376 ,0.64358 ,4.72359 ,46.34790 
28 ,5.1129 ,0.64542 ,4.67911 ,45.91138 
29 ,5.3051 ,0.64718 ,4.66199 ,45.74349 
30 ,5.4972 ,0.64917 ,4.66542 ,45.77707 
31 ,5.6731 ,0.65094 ,4.64146 ,45.54202 
32 ,5.8493 ,0.65266 ,4.60382 ,45.17266 
33 ,6.0253 ,0.65452 ,4.59697 ,45.10550 
34 ,6.2015 ,0.65621 ,4.58671 ,45.00477 
35 ,6.4094 ,0.65822 ,4.57302 ,44.87045 
36 ,6.6018 ,0.66021 ,4.55933 ,44.73614 
37 ,6.8097 ,0.66218 ,4.51826 ,44.33320 
38 ,7.0178 ,0.66434 ,4.50800 ,44.23247 
39 ,7.2098 ,0.66629 ,4.47378 ,43.89668 
40 ,7.3858 ,0.66804 ,4.46351 ,43.79595 
41 ,7.5619 ,0.66983 ,4.45324 ,43.69521 
42 ,7.7379 ,0.67155 ,4.44298 ,43.59448 
43 ,7.9141 ,0.67342 ,4.40191 ,43.19154 
44 ,8.0902 ,0.67511 ,4.39507 ,43.12438 
45 ,8.2822 ,0.67702 ,4.39507 ,43.12438 
46 ,8.4742 ,0.67887 ,4.35742 ,42.75502 
47 ,8.6664 ,0.68077 ,4.33347 ,42.51997 
48 ,8.8586 ,0.68282 ,4.33689 ,42.55355 
49 ,9.0506 ,0.68467 ,4.30609 ,42.25135 
50 ,9.2266 ,0.68649 ,4.28556 ,42.04988 
51 ,9.4188 ,0.68829 ,4.27529 ,41.94914 
52 ,9.6106 ,0.69031 ,4.25133 ,41.71409 
53 ,9.7868 ,0.69202 ,4.24107 ,41.61336 
54 ,9.9628 ,0.69383 ,4.24107 ,41.61336 
55 ,10.1390 ,0.69560 ,4.22396 ,41.44547 
56 ,10.3148 ,0.69732 ,4.19316 ,41.14326 
57 ,10.4911 ,0.69913 ,4.17947 ,41.00895 
58 ,10.6671 ,0.70084 ,4.15551 ,40.77390 
59 ,10.8434 ,0.70266 ,4.14867 ,40.70674 
60 ,11.0352 ,0.70455 ,4.12129 ,40.43812 
61 ,11.2274 ,0.70643 ,4.10760 ,40.30380 
62 ,11.4033 ,0.70830 ,4.08023 ,40.03518 
63 ,11.5796 ,0.71000 ,4.08707 ,40.10233 
64 ,11.7556 ,0.71170 ,4.07680 ,40.00160 
65 ,11.9319 ,0.71350 ,4.03916 ,39.63224 
66 ,12.1078 ,0.71530 ,4.03232 ,39.56508 
67 ,12.2837 ,0.71702 ,4.02205 ,39.46435 
68 ,12.4596 ,0.71879 ,4.00836 ,39.33003 
69 ,12.6360 ,0.72054 ,3.99809 ,39.22930 
70 ,12.8280 ,0.72245 ,3.96387 ,38.89352 
71 ,13.0044 ,0.72422 ,3.95703 ,38.82636 
72 ,13.1963 ,0.72611 ,3.92623 ,38.52415 
73 ,13.3884 ,0.72805 ,3.91596 ,38.42342 
74 ,13.5643 ,0.72983 ,3.89885 ,38.25553 
75 ,13.7404 ,0.73161 ,3.89543 ,38.22195 
76 ,13.9164 ,0.73335 ,3.86463 ,37.91975 
77 ,14.0926 ,0.73512 ,3.85436 ,37.81901 
78 ,14.2687 ,0.73682 ,3.83725 ,37.65112 
79 ,14.4767 ,0.73886 ,3.80645 ,37.34891 
80 ,14.6368 ,0.74066 ,3.78592 ,37.14744 
81 ,14.8289 ,0.74246 ,3.77223 ,37.01313 
82 ,15.0209 ,0.74437 ,3.77565 ,37.04671 
83 ,15.2132 ,0.74633 ,3.73801 ,36.67735 
84 ,15.4052 ,0.74816 ,3.74485 ,36.74450 
85 ,15.5812 ,0.75000 ,3.72432 ,36.54303 
86 ,15.7571 ,0.75181 ,3.71063 ,36.40872 
87 ,15.9494 ,0.75363 ,3.67641 ,36.07294 
88 ,16.1253 ,0.75542 ,3.67641 ,36.07294 
89 ,16.3176 ,0.75730 ,3.63192 ,35.63642 
90 ,16.4938 ,0.75926 ,3.63192 ,35.63642 
91 ,16.6693 ,0.76098 ,3.62850 ,35.60284 
92 ,16.8459 ,0.76261 ,3.60454 ,35.36779 
93 ,17.0217 ,0.76440 ,3.60112 ,35.33422 
94 ,17.1980 ,0.76614 ,3.57375 ,35.06559 
95 ,17.3901 ,0.76802 ,3.55321 ,34.86412 
96 ,17.5661 ,0.76990 ,3.53952 ,34.72981 
97 ,17.7419 ,0.77160 ,3.52584 ,34.59549 
98 ,17.9183 ,0.77338 ,3.51557 ,34.49476 
99 ,18.1261 ,0.77536 ,3.49504 ,34.29329 
100 ,18.3026 ,0.77718 ,3.47792 ,34.12540 
101 ,18.5106 ,0.77917 ,3.44713 ,33.82319 
102 ,18.6866 ,0.78109 ,3.43344 ,33.68888 
103 ,18.8786 ,0.78294 ,3.41633 ,33.52099 
104 ,19.0546 ,0.78469 ,3.39921 ,33.35310 
105 ,19.2306 ,0.78648 ,3.38895 ,33.25236 
106 ,19.4070 ,0.78822 ,3.36842 ,33.05089 
107 ,19.5828 ,0.78998 ,3.36499 ,33.01731 
108 ,19.7590 ,0.79176 ,3.33419 ,32.71511 
109 ,19.9510 ,0.79367 ,3.32051 ,32.58080 
110 ,20.1432 ,0.79555 ,3.32051 ,32.58080 
111 ,20.3352 ,0.79752 ,3.26917 ,32.07712 
112 ,20.5114 ,0.79931 ,3.25891 ,31.97639 
113 ,20.7034 ,0.80117 ,3.25891 ,31.97639 
114 ,20.8794 ,0.80289 ,3.24180 ,31.80849 
115 ,21.0555 ,0.80469 ,3.21784 ,31.57345 
116 ,21.2476 ,0.80660 ,3.21442 ,31.53987 
117 ,21.4237 ,0.80840 ,3.20415 ,31.43913 
118 ,21.5997 ,0.81017 ,3.18704 ,31.27124 
119 ,21.7757 ,0.81187 ,3.14940 ,30.90188 
120 ,21.9678 ,0.81384 ,3.14597 ,30.86830 
121 ,22.1600 ,0.81569 ,3.13229 ,30.73399 
122 ,22.3522 ,0.81763 ,3.11175 ,30.53252 
123 ,22.5441 ,0.81958 ,3.10491 ,30.46536 
124 ,22.7203 ,0.82138 ,3.07753 ,30.19674 
125 ,22.9122 ,0.82330 ,3.04673 ,29.89453 
126 ,23.0720 ,0.82498 ,3.05015 ,29.92811 
127 ,23.2484 ,0.82664 ,3.03647 ,29.79380 
128 ,23.4723 ,0.82865 ,3.00909 ,29.52517 
129 ,23.6486 ,0.83065 ,2.99540 ,29.39086 
130 ,23.8247 ,0.83244 ,2.99540 ,29.39086 
131 ,24.0008 ,0.83413 ,2.98171 ,29.25654 
132 ,24.1766 ,0.83588 ,2.95433 ,28.98792 
133 ,24.3528 ,0.83769 ,2.92696 ,28.71929 
134 ,24.5290 ,0.83942 ,2.93038 ,28.75287 
135 ,24.7210 ,0.84133 ,2.90300 ,28.48424 
136 ,24.9131 ,0.84327 ,2.86536 ,28.11488 
137 ,25.1051 ,0.84512 ,2.87220 ,28.18204 
138 ,25.2973 ,0.84713 ,2.85509 ,28.01415 
139 ,25.4734 ,0.84888 ,2.82771 ,27.74552 
140 ,25.6494 ,0.85064 ,2.81745 ,27.64479 
141 ,25.8254 ,0.85250 ,2.81060 ,27.57763 
142 ,26.0010 ,0.85426 ,2.79349 ,27.40974 
143 ,26.1774 ,0.85588 ,2.77638 ,27.24185 
144 ,26.3697 ,0.85776 ,2.76611 ,27.14111 
145 ,26.5456 ,0.85958 ,2.76269 ,27.10753 
146 ,26.7858 ,0.86175 ,2.72847 ,26.77175 
147 ,26.9617 ,0.86376 ,2.71820 ,26.67101 
148 ,27.1380 ,0.86548 ,2.69083 ,26.40239 
149 ,27.3136 ,0.86730 ,2.66687 ,26.16734 
150 ,27.5063 ,0.86908 ,2.67714 ,26.26807 
151 ,27.6982 ,0.87115 ,2.65660 ,26.06661 
152 ,27.9223 ,0.87322 ,2.64292 ,25.93229 
153 ,28.1303 ,0.87536 ,2.62581 ,25.76440 
154 ,28.3065 ,0.87720 ,2.61554 ,25.66367 
155 ,28.4984 ,0.87914 ,2.58816 ,25.39504 
156 ,28.7067 ,0.88109 ,2.57447 ,25.26073 
157 ,28.8987 ,0.88305 ,2.54710 ,24.99210 
158 ,29.0907 ,0.88501 ,2.53683 ,24.89136 
159 ,29.2828 ,0.88697 ,2.52998 ,24.82421 
160 ,29.4748 ,0.88892 ,2.50945 ,24.62274 
161 ,29.6348 ,0.89058 ,2.48892 ,24.42127 
162 ,29.8110 ,0.89223 ,2.48550 ,24.38769 
163 ,29.9870 ,0.89399 ,2.47865 ,24.32053 
164 ,30.1631 ,0.89576 ,2.45127 ,24.05191 
165 ,30.3872 ,0.89775 ,2.42048 ,23.74970 
166 ,30.5793 ,0.89987 ,2.40336 ,23.58181 
167 ,30.8031 ,0.90201 ,2.40679 ,23.61539 
168 ,31.0115 ,0.90412 ,2.38625 ,23.41392 
169 ,31.2195 ,0.90615 ,2.35545 ,23.11171 
170 ,31.4116 ,0.90828 ,2.34519 ,23.01098 
171 ,31.6039 ,0.91017 ,2.33150 ,22.87667 
172 ,31.7957 ,0.91211 ,2.30070 ,22.57446 
173 ,31.9714 ,0.91379 ,2.29043 ,22.47373 
174 ,32.1634 ,0.91569 ,2.29043 ,22.47373 
175 ,32.3234 ,0.91746 ,2.26306 ,22.20510 
176 ,32.4999 ,0.91913 ,2.25621 ,22.13794 
177 ,32.7239 ,0.92131 ,2.22541 ,21.83574 
178 ,32.9162 ,0.92326 ,2.22199 ,21.80216 
179 ,33.0922 ,0.92508 ,2.20146 ,21.60069 
180 ,33.2682 ,0.92677 ,2.20146 ,21.60069 
181 ,33.4444 ,0.92858 ,2.17408 ,21.33206 
182 ,33.6361 ,0.93043 ,2.13986 ,20.99628 
183 ,33.8124 ,0.93224 ,2.13986 ,20.99628 
184 ,33.9886 ,0.93396 ,2.14670 ,21.06344 
185 ,34.1807 ,0.93582 ,2.09879 ,20.59334 
186 ,34.3566 ,0.93766 ,2.10564 ,20.66050 
187 ,34.5329 ,0.93941 ,2.08852 ,20.49261 
188 ,34.7086 ,0.94123 ,2.07826 ,20.39187 
189 ,34.9010 ,0.94301 ,2.05430 ,20.15682 
190 ,35.1250 ,0.94524 ,2.04404 ,20.05609 
191 ,35.3013 ,0.94713 ,2.01324 ,19.75388 
192 ,35.4931 ,0.94900 ,2.01324 ,19.75388 
193 ,35.6692 ,0.95076 ,2.00297 ,19.65315 
194 ,35.8451 ,0.95253 ,1.98244 ,19.45168 
195 ,36.0215 ,0.95429 ,1.94822 ,19.11590 
196 ,36.2132 ,0.95629 ,1.94479 ,19.08232 
197 ,36.3895 ,0.95799 ,1.94822 ,19.11590 
198 ,36.5814 ,0.95995 ,1.90715 ,18.71296 
199 ,36.7737 ,0.96183 ,1.90031 ,18.64580 
200 ,36.9497 ,0.96358 ,1.90373 ,18.67938 
201 ,37.1258 ,0.96540 ,1.87635 ,18.41075 
202 ,37.3018 ,0.96707 ,1.84897 ,18.14213 
203 ,37.4780 ,0.96884 ,1.83871 ,18.04139 
204 ,37.6541 ,0.97063 ,1.81133 ,17.77276 
205 ,37.8299 ,0.97239 ,1.81817 ,17.83992 
206 ,38.0217 ,0.97430 ,1.78395 ,17.50414 
207 ,38.1983 ,0.97605 ,1.78053 ,17.47056 
208 ,38.3743 ,0.97785 ,1.76342 ,17.30267 
209 ,38.5662 ,0.97967 ,1.74289 ,17.10120 
210 ,38.7425 ,0.98150 ,1.73604 ,17.03404 
211 ,38.9347 ,0.98341 ,1.71551 ,16.83257 
212 ,39.1266 ,0.98535 ,1.71209 ,16.79899 
213 ,39.3187 ,0.98730 ,1.68129 ,16.49679 
214 ,39.5107 ,0.98908 ,1.66418 ,16.32890 
215 ,39.7030 ,0.99105 ,1.64707 ,16.16101 
216 ,39.9110 ,0.99315 ,1.65049 ,16.19458 
217 ,40.1029 ,0.99500 ,1.61969 ,15.89238 
218 ,40.2791 ,0.99688 ,1.60600 ,15.75807 
219 ,40.4712 ,0.99866 ,1.59573 ,15.65733 
220 ,40.6472 ,1.00052 ,1.57520 ,15.45586 
221 ,40.8388 ,1.00243 ,1.55124 ,15.22081 
222 ,41.0148 ,1.00420 ,1.54782 ,15.18724 
223 ,41.1913 ,1.00601 ,1.54098 ,15.12008 
224 ,41.3676 ,1.00777 ,1.52729 ,14.98577 
225 ,41.5435 ,1.00952 ,1.50333 ,14.75072 
226 ,41.7197 ,1.01128 ,1.48622 ,14.58283 
227 ,41.9116 ,1.01318 ,1.48622 ,14.58283 
228 ,42.0878 ,1.01493 ,1.48280 ,14.54925 
229 ,42.2638 ,1.01670 ,1.43831 ,14.11273 
230 ,42.4400 ,1.01842 ,1.42462 ,13.97842 
231 ,42.6480 ,1.02048 ,1.41436 ,13.87768 
232 ,42.8241 ,1.02232 ,1.40751 ,13.81053 
233 ,43.0159 ,1.02420 ,1.39040 ,13.64263 
234 ,43.1920 ,1.02600 ,1.38014 ,13.54190 
235 ,43.4004 ,1.02794 ,1.35960 ,13.34043 
236 ,43.5925 ,1.03004 ,1.34934 ,13.23969 
237 ,43.8005 ,1.03202 ,1.32196 ,12.97107 
238 ,43.9765 ,1.03383 ,1.30143 ,12.76960 
239 ,44.2007 ,1.03597 ,1.29458 ,12.70244 
240 ,44.3606 ,1.03779 ,1.27747 ,12.53455 
241 ,44.5364 ,1.03949 ,1.25694 ,12.33308 
242 ,44.7290 ,1.04126 ,1.24667 ,12.23235 
243 ,44.9367 ,1.04327 ,1.24325 ,12.19877 
244 ,45.1129 ,1.04520 ,1.21587 ,11.93014 
245 ,45.2891 ,1.04696 ,1.20561 ,11.82941 
246 ,45.4647 ,1.04871 ,1.19876 ,11.76225 
247 ,45.6731 ,1.05077 ,1.18507 ,11.62794 
248 ,45.8489 ,1.05250 ,1.16796 ,11.46004 
249 ,46.0414 ,1.05434 ,1.14401 ,11.22500 
250 ,46.2172 ,1.05628 ,1.12690 ,11.05710 
251 ,46.4091 ,1.05817 ,1.12005 ,10.98995 
252 ,46.5854 ,1.05995 ,1.09267 ,10.72132 
253 ,46.7616 ,1.06164 ,1.07899 ,10.58701 
254 ,46.9216 ,1.06337 ,1.06872 ,10.48627 
255 ,47.0817 ,1.06496 ,1.07556 ,10.55343 
256 ,47.2578 ,1.06660 ,1.04476 ,10.25123 
257 ,47.4337 ,1.06842 ,1.04476 ,10.25123 
258 ,47.6259 ,1.07031 ,1.03108 ,10.11691 
259 ,47.8181 ,1.07221 ,1.00370 ,9.84829 
260 ,48.0101 ,1.07406 ,0.98659 ,9.68039 
261 ,48.1861 ,1.07589 ,0.98317 ,9.64682 
262 ,48.3624 ,1.07766 ,0.95921 ,9.41177 
263 ,48.5380 ,1.07948 ,0.93868 ,9.21030 
264 ,48.7305 ,1.08133 ,0.94210 ,9.24388 
265 ,48.9546 ,1.08347 ,0.92841 ,9.10956 
266 ,49.1626 ,1.08562 ,0.89419 ,8.77378 
267 ,49.3386 ,1.08744 ,0.88050 ,8.63947 
268 ,49.5146 ,1.08922 ,0.88050 ,8.63947 
269 ,49.6907 ,1.09095 ,0.88050 ,8.63947 
270 ,49.8509 ,1.09264 ,0.85997 ,8.43800 
271 ,50.0270 ,1.09430 ,0.83943 ,8.23653 
272 ,50.2191 ,1.09617 ,0.82917 ,8.13579 
273 ,50.4112 ,1.09818 ,0.82575 ,8.10221 
274 ,50.5872 ,1.09990 ,0.81206 ,7.96790 
275 ,50.7632 ,1.10166 ,0.77441 ,7.59854 
276 ,50.9552 ,1.10359 ,0.76757 ,7.53138 
277 ,51.1475 ,1.10545 ,0.75046 ,7.36349 
278 ,51.3396 ,1.10739 ,0.73677 ,7.22918 
279 ,51.5315 ,1.10935 ,0.74019 ,7.26276 
280 ,51.7076 ,1.11108 ,0.70939 ,6.96055 
281 ,51.8997 ,1.11298 ,0.69913 ,6.85982 
282 ,52.0919 ,1.11487 ,0.68886 ,6.75908 
283 ,52.2680 ,1.11675 ,0.67859 ,6.65835 
284 ,52.4600 ,1.11862 ,0.65806 ,6.45688 
285 ,52.6361 ,1.12035 ,0.66148 ,6.49046 
286 ,52.8278 ,1.12230 ,0.63753 ,6.25541 
287 ,53.0044 ,1.12410 ,0.61015 ,5.98678 
288 ,53.2123 ,1.12617 ,0.62726 ,6.15467 
289 ,53.4045 ,1.12806 ,0.58619 ,5.75173 
290 ,53.5801 ,1.12984 ,0.57251 ,5.61742 
291 ,53.7564 ,1.13154 ,0.56566 ,5.55026 
292 ,53.9325 ,1.13331 ,0.57593 ,5.65100 
293 ,54.1089 ,1.13513 ,0.55539 ,5.44953 
294 ,54.2848 ,1.13689 ,0.51775 ,5.08017 
295 ,54.4769 ,1.13880 ,0.53144 ,5.21448 
296 ,54.6528 ,1.14055 ,0.52459 ,5.14732 
297 ,54.8289 ,1.14232 ,0.50406 ,4.94585 
298 ,55.0208 ,1.14424 ,0.48353 ,4.74438 
299 ,55.2127 ,1.14612 ,0.48353 ,4.74438 
300 ,55.3892 ,1.14791 ,0.46984 ,4.61007 
301 ,55.5809 ,1.14992 ,0.44588 ,4.37502 
302 ,55.7409 ,1.15154 ,0.42877 ,4.20713 
303 ,55.9174 ,1.15316 ,0.42193 ,4.13997 
304 ,56.1093 ,1.15510 ,0.42193 ,4.13997 
305 ,56.2855 ,1.15685 ,0.39113 ,3.83777 
306 ,56.4617 ,1.15867 ,0.37744 ,3.70346 
307 ,56.6535 ,1.16052 ,0.37402 ,3.66988 
308 ,56.8298 ,1.16231 ,0.37060 ,3.63630 
309 ,57.0058 ,1.16412 ,0.33638 ,3.30052 
310 ,57.1980 ,1.16594 ,0.33980 ,3.33410 
311 ,57.3739 ,1.16775 ,0.33980 ,3.33410 
312 ,57.5500 ,1.16956 ,0.31926 ,3.13263 
313 ,57.7261 ,1.17123 ,0.29531 ,2.89758 
314 ,57.9340 ,1.17322 ,0.29189 ,2.86400 
315 ,58.1099 ,1.17511 ,0.27820 ,2.72969 
316 ,58.2864 ,1.17685 ,0.25082 ,2.46106 
317 ,58.4785 ,1.17874 ,0.25424 ,2.49464 
318 ,58.6861 ,1.18081 ,0.22002 ,2.15885 
319 ,58.8626 ,1.18266 ,0.20976 ,2.05812 
320 ,59.0381 ,1.18441 ,0.20291 ,1.99096 
321 ,59.2146 ,1.18614 ,0.20291 ,1.99096 
322 ,59.3907 ,1.18788 ,0.18922 ,1.85665 
323 ,59.5669 ,1.18973 ,0.16869 ,1.65518 
324 ,59.7587 ,1.19160 ,0.15842 ,1.55445 
325 ,59.9510 ,1.19339 ,0.15500 ,1.52087 
326 ,60.1269 ,1.19533 ,0.13105 ,1.28582 
327 ,60.3031 ,1.19703 ,0.10709 ,1.05077 
328 ,60.4791 ,1.19880 ,0.11393 ,1.11793 
329 ,60.6713 ,1.20066 ,0.09682 ,0.95004 
330 ,60.8473 ,1.20250 ,0.09340 ,0.91646 
331 ,61.0714 ,1.20458 ,0.07629 ,0.74857 
332 ,61.2475 ,1.20649 ,0.06945 ,0.68141 
333 ,61.4395 ,1.20842 ,0.04549 ,0.44636 
334 ,61.6315 ,1.21031 ,0.05234 ,0.51352 
335 ,61.8075 ,1.21207 ,0.02154 ,0.21131 
336 ,61.9839 ,1.21384 ,0.01469 ,0.14416 
337 ,62.1599 ,1.21565 ,-0.00926 ,-0.09089 
338 ,62.3516 ,1.21750 ,0.00785 ,0.07700 
339 ,62.5119 ,1.21925 ,-0.01269 ,-0.12447 
340 ,62.7201 ,1.22105 ,-0.02295 ,-0.22520 
341 ,62.8960 ,1.22296 ,-0.02295 ,-0.22520 
342 ,63.1041 ,1.22490 ,-0.05717 ,-0.56099 
343 ,63.2803 ,1.22675 ,-0.06744 ,-0.66172 
344 ,63.4723 ,1.22865 ,-0.07086 ,-0.69530 
345 ,63.6485 ,1.23047 ,-0.08797 ,-0.86319 
346 ,63.8246 ,1.23226 ,-0.10851 ,-1.06466 
347 ,64.0162 ,1.23416 ,-0.09824 ,-0.96393 
348 ,64.1927 ,1.23591 ,-0.11877 ,-1.16540 
349 ,64.4007 ,1.23789 ,-0.12904 ,-1.26613 
350 ,64.6090 ,1.24000 ,-0.14615 ,-1.43402 
351 ,64.7847 ,1.24181 ,-0.16668 ,-1.63549 
352 ,64.9609 ,1.24366 ,-0.15299 ,-1.50118 
353 ,65.1529 ,1.24544 ,-0.15299 ,-1.50118 
354 ,65.3612 ,1.24755 ,-0.18037 ,-1.76981 
355 ,65.5529 ,1.24943 ,-0.18379 ,-1.80338 
356 ,65.7293 ,1.25127 ,-0.19748 ,-1.93770 
357 ,65.9209 ,1.25319 ,-0.22486 ,-2.20632 
358 ,66.0976 ,1.25496 ,-0.21459 ,-2.10559 
359 ,66.2894 ,1.25689 ,-0.23513 ,-2.30706 
360 ,66.4816 ,1.25877 ,-0.25566 ,-2.50853 
361 ,66.6576 ,1.26055 ,-0.25566 ,-2.50853 
362 ,66.8337 ,1.26227 ,-0.25566 ,-2.50853 
363 ,67.0099 ,1.26408 ,-0.26935 ,-2.64284 
364 ,67.2019 ,1.26599 ,-0.29330 ,-2.87789 
365 ,67.3619 ,1.26772 ,-0.29330 ,-2.87789 
366 ,67.5541 ,1.26943 ,-0.29330 ,-2.87789 
367 ,67.7301 ,1.27125 ,-0.32068 ,-3.14652 
368 ,67.9222 ,1.27315 ,-0.33779 ,-3.31441 
369 ,68.1143 ,1.27511 ,-0.33437 ,-3.28083 
370 ,68.3063 ,1.27698 ,-0.36859 ,-3.61661 
371 ,68.4825 ,1.27879 ,-0.36859 ,-3.61661 
372 ,68.6586 ,1.28059 ,-0.37886 ,-3.71735 
373 ,68.8507 ,1.28237 ,-0.38228 ,-3.75093 
374 ,69.0586 ,1.28454 ,-0.40623 ,-3.98597 
375 ,69.2347 ,1.28632 ,-0.39939 ,-3.91882 
376 ,69.4267 ,1.28823 ,-0.42677 ,-4.18744 
377 ,69.6188 ,1.29016 ,-0.43361 ,-4.25460 
378 ,69.7947 ,1.29189 ,-0.43703 ,-4.28818 
379 ,69.9710 ,1.29364 ,-0.44046 ,-4.32176 
380 ,70.1470 ,1.29543 ,-0.46099 ,-4.52323 
381 ,70.3233 ,1.29715 ,-0.47126 ,-4.62396 
382 ,70.4993 ,1.29900 ,-0.48494 ,-4.75828 
383 ,70.6751 ,1.30072 ,-0.47810 ,-4.69112 
384 ,70.8511 ,1.30243 ,-0.49863 ,-4.89259 
385 ,71.0274 ,1.30418 ,-0.50890 ,-4.99332 
386 ,71.2197 ,1.30619 ,-0.51574 ,-5.06048 
387 ,71.3957 ,1.30792 ,-0.51574 ,-5.06048 
388 ,71.5718 ,1.30967 ,-0.52943 ,-5.19479 
389 ,71.7318 ,1.31136 ,-0.53970 ,-5.29553 
390 ,71.8915 ,1.31297 ,-0.56365 ,-5.53058 
391 ,72.0838 ,1.31472 ,-0.56365 ,-5.53058 
392 ,72.2601 ,1.31655 ,-0.57050 ,-5.59773 
393 ,72.4680 ,1.31848 ,-0.59445 ,-5.83278 
394 ,72.6602 ,1.32055 ,-0.59445 ,-5.83278 
395 ,72.8521 ,1.32240 ,-0.60472 ,-5.93352 
396 ,73.0123 ,1.32420 ,-0.62525 ,-6.13499 
397 ,73.1884 ,1.32588 ,-0.62183 ,-6.10141 
398 ,73.3645 ,1.32761 ,-0.63894 ,-6.26930 
399 ,73.5566 ,1.32947 ,-0.63894 ,-6.26930 
400 ,73.7487 ,1.33139 ,-0.65947 ,-6.47077 
401 ,73.9567 ,1.33347 ,-0.64921 ,-6.37003 
402 ,74.3569 ,1.33640 ,-0.66632 ,-6.53793 
403 ,74.5330 ,1.33930 ,-0.69027 ,-6.77297 
404 ,74.7249 ,1.34121 ,-0.70739 ,-6.94086 
405 ,74.9171 ,1.34306 ,-0.71423 ,-7.00802 
406 ,75.0929 ,1.34486 ,-0.71765 ,-7.04160 
407 ,75.2693 ,1.34664 ,-0.74503 ,-7.31023 
408 ,75.4453 ,1.34840 ,-0.75872 ,-7.44454 
409 ,75.6213 ,1.35018 ,-0.76214 ,-7.47812 
410 ,75.7973 ,1.35191 ,-0.75530 ,-7.41096 
411 ,75.9735 ,1.35366 ,-0.75872 ,-7.44454 
412 ,76.1492 ,1.35540 ,-0.78610 ,-7.71317 
413 ,76.3255 ,1.35716 ,-0.79978 ,-7.84748 
414 ,76.5179 ,1.35913 ,-0.77925 ,-7.64601 
415 ,76.7257 ,1.36112 ,-0.82032 ,-8.04895 
416 ,76.9019 ,1.36302 ,-0.81689 ,-8.01537 
417 ,77.0615 ,1.36468 ,-0.82032 ,-8.04895 
418 ,77.2381 ,1.36627 ,-0.83058 ,-8.14968 
419 ,77.4460 ,1.36831 ,-0.84769 ,-8.31758 
420 ,77.6221 ,1.37018 ,-0.86138 ,-8.45189 
421 ,77.8143 ,1.37206 ,-0.86138 ,-8.45189 
422 ,77.9904 ,1.37385 ,-0.89560 ,-8.78767 
423 ,78.1824 ,1.37576 ,-0.88192 ,-8.65336 
424 ,78.3746 ,1.37757 ,-0.89218 ,-8.75409 
425 ,78.5827 ,1.37964 ,-0.91272 ,-8.95556 
426 ,78.7587 ,1.38157 ,-0.90245 ,-8.85483 
427 ,78.9509 ,1.38345 ,-0.92298 ,-9.05630 
428 ,79.1430 ,1.38536 ,-0.93325 ,-9.15703 
429 ,79.3189 ,1.38711 ,-0.93667 ,-9.19061 
430 ,79.4949 ,1.38889 ,-0.95378 ,-9.35850 
431 ,79.6711 ,1.39065 ,-0.96063 ,-9.42566 
432 ,79.8472 ,1.39236 ,-0.96747 ,-9.49282 
433 ,80.0232 ,1.39417 ,-0.98116 ,-9.62713 
434 ,80.2152 ,1.39612 ,-0.96063 ,-9.42566 
435 ,80.3913 ,1.39794 ,-0.99485 ,-9.76144 
436 ,80.5674 ,1.39957 ,-0.99143 ,-9.72786 
437 ,80.7436 ,1.40135 ,-1.01538 ,-9.96291 
438 ,80.9355 ,1.40326 ,-0.99827 ,-9.79502 
439 ,81.1118 ,1.40500 ,-1.00854 ,-9.89576 
440 ,81.3039 ,1.40695 ,-1.02565 ,-10.06365 
441 ,81.5120 ,1.40899 ,-1.03591 ,-10.16438 
442 ,81.7040 ,1.41099 ,-1.04618 ,-10.26512 
443 ,81.8961 ,1.41291 ,-1.04618 ,-10.26512 
444 ,82.0881 ,1.41478 ,-1.06671 ,-10.46659 
445 ,82.2801 ,1.41673 ,-1.05987 ,-10.39943 
446 ,82.4559 ,1.41844 ,-1.05645 ,-10.36585 
447 ,82.6323 ,1.42026 ,-1.05987 ,-10.39943 
448 ,82.8242 ,1.42215 ,-1.09751 ,-10.76879 
449 ,83.0165 ,1.42399 ,-1.09409 ,-10.73521 
450 ,83.2087 ,1.42600 ,-1.11805 ,-10.97026 
451 ,83.4008 ,1.42794 ,-1.11120 ,-10.90310 
452 ,83.5765 ,1.42970 ,-1.11462 ,-10.93668 
453 ,83.7688 ,1.43154 ,-1.13858 ,-11.17173 
454 ,83.9449 ,1.43335 ,-1.14542 ,-11.23889 
455 ,84.1210 ,1.43511 ,-1.15911 ,-11.37320 
456 ,84.3291 ,1.43706 ,-1.15227 ,-11.30604 
457 ,84.5371 ,1.43921 ,-1.16253 ,-11.40678 
458 ,84.7292 ,1.44110 ,-1.19333 ,-11.70898 
459 ,84.9372 ,1.44326 ,-1.18307 ,-11.60825 
460 ,85.1134 ,1.44504 ,-1.19333 ,-11.70898 
461 ,85.3059 ,1.44686 ,-1.21044 ,-11.87688 
