Data stamp = , 04-04-2022 19:01:27 229

Calibration Values: 
Slope = , 26.54 , g/V 
Offset Voltage at no contact = , -0.501760 , V 

No , Time , Stage Position ,   Mass , Force 
   ,  (s) ,      (mm)      ,   (g)  , (mN)  

1 ,0.0000 ,0.59946 ,5.12399 ,50.27656 
2 ,0.2127 ,0.59954 ,5.12399 ,50.27656 
3 ,0.5491 ,0.60043 ,5.11030 ,50.14225 
4 ,0.7572 ,0.60196 ,5.12399 ,50.27656 
5 ,0.9494 ,0.60368 ,5.11372 ,50.17583 
6 ,1.1411 ,0.60553 ,5.12056 ,50.24298 
7 ,1.3174 ,0.60726 ,5.13083 ,50.34372 
8 ,1.5092 ,0.60927 ,5.11714 ,50.20940 
9 ,1.6857 ,0.61101 ,5.10003 ,50.04151 
10 ,1.8778 ,0.61295 ,5.10688 ,50.10867 
11 ,2.0699 ,0.61481 ,5.07265 ,49.77289 
12 ,2.2616 ,0.61676 ,5.06581 ,49.70573 
13 ,2.4540 ,0.61872 ,5.05212 ,49.57142 
14 ,2.6300 ,0.62051 ,5.03159 ,49.36995 
15 ,2.8222 ,0.62227 ,5.00421 ,49.10132 
16 ,2.9981 ,0.62417 ,5.00079 ,49.06774 
17 ,3.1901 ,0.62606 ,4.98710 ,48.93343 
18 ,3.3825 ,0.62802 ,4.96999 ,48.76554 
19 ,3.5744 ,0.62988 ,4.94946 ,48.56407 
20 ,3.7504 ,0.63169 ,4.92892 ,48.36260 
21 ,3.9426 ,0.63357 ,4.91866 ,48.26186 
22 ,4.1185 ,0.63541 ,4.91181 ,48.19471 
23 ,4.2943 ,0.63723 ,4.87417 ,47.82534 
24 ,4.4712 ,0.63892 ,4.86732 ,47.75819 
25 ,4.6628 ,0.64077 ,4.85021 ,47.59030 
26 ,4.8388 ,0.64256 ,4.84679 ,47.55672 
27 ,5.0150 ,0.64431 ,4.82284 ,47.32167 
28 ,5.1911 ,0.64609 ,4.80573 ,47.15378 
29 ,5.3827 ,0.64797 ,4.76466 ,46.75084 
30 ,5.5592 ,0.64969 ,4.76466 ,46.75084 
31 ,5.7352 ,0.65151 ,4.76466 ,46.75084 
32 ,5.9275 ,0.65335 ,4.72017 ,46.31432 
33 ,6.1194 ,0.65538 ,4.70306 ,46.14643 
34 ,6.2955 ,0.65711 ,4.69964 ,46.11285 
35 ,6.4555 ,0.65882 ,4.67911 ,45.91138 
36 ,6.6317 ,0.66049 ,4.65515 ,45.67633 
37 ,6.8237 ,0.66247 ,4.64488 ,45.57560 
38 ,7.0319 ,0.66434 ,4.63119 ,45.44128 
39 ,7.2077 ,0.66622 ,4.61066 ,45.23981 
40 ,7.4159 ,0.66826 ,4.60040 ,45.13908 
41 ,7.5921 ,0.67007 ,4.57302 ,44.87045 
42 ,7.7842 ,0.67189 ,4.55249 ,44.66898 
43 ,7.9768 ,0.67393 ,4.53195 ,44.46751 
44 ,8.1682 ,0.67587 ,4.49773 ,44.13173 
45 ,8.3443 ,0.67759 ,4.48062 ,43.96384 
46 ,8.5360 ,0.67951 ,4.48404 ,43.99742 
47 ,8.7604 ,0.68149 ,4.45324 ,43.69521 
48 ,8.9366 ,0.68349 ,4.44640 ,43.62806 
49 ,9.1447 ,0.68555 ,4.40875 ,43.25870 
50 ,9.3365 ,0.68746 ,4.41902 ,43.35943 
51 ,9.5129 ,0.68926 ,4.41218 ,43.29227 
52 ,9.6725 ,0.69098 ,4.35742 ,42.75502 
53 ,9.8648 ,0.69273 ,4.35058 ,42.68786 
54 ,10.0250 ,0.69450 ,4.34031 ,42.58713 
55 ,10.2171 ,0.69630 ,4.33004 ,42.48639 
56 ,10.4092 ,0.69818 ,4.31636 ,42.35208 
57 ,10.5852 ,0.69999 ,4.28556 ,42.04988 
58 ,10.7611 ,0.70174 ,4.27529 ,41.94914 
59 ,10.9694 ,0.70368 ,4.26160 ,41.81483 
60 ,11.1452 ,0.70560 ,4.23765 ,41.57978 
61 ,11.3374 ,0.70742 ,4.21711 ,41.37831 
62 ,11.5135 ,0.70925 ,4.22738 ,41.47905 
63 ,11.6893 ,0.71105 ,4.21027 ,41.31115 
64 ,11.8656 ,0.71282 ,4.17262 ,40.94179 
65 ,12.0739 ,0.71486 ,4.15551 ,40.77390 
66 ,12.2498 ,0.71668 ,4.15209 ,40.74032 
67 ,12.4420 ,0.71856 ,4.11787 ,40.40454 
68 ,12.6181 ,0.72032 ,4.10076 ,40.23665 
69 ,12.8102 ,0.72226 ,4.11103 ,40.33738 
70 ,12.9863 ,0.72401 ,4.08365 ,40.06876 
71 ,13.1783 ,0.72591 ,4.06654 ,39.90087 
72 ,13.3542 ,0.72766 ,4.04943 ,39.73297 
73 ,13.5304 ,0.72940 ,4.03574 ,39.59866 
74 ,13.7065 ,0.73120 ,4.02889 ,39.53150 
75 ,13.8826 ,0.73296 ,3.99809 ,39.22930 
76 ,14.0748 ,0.73486 ,3.99467 ,39.19572 
77 ,14.2504 ,0.73668 ,3.96729 ,38.92709 
78 ,14.4268 ,0.73840 ,3.95703 ,38.82636 
79 ,14.6028 ,0.74016 ,3.93650 ,38.62489 
80 ,14.7790 ,0.74188 ,3.91596 ,38.42342 
81 ,14.9549 ,0.74366 ,3.90570 ,38.32268 
82 ,15.1472 ,0.74557 ,3.88858 ,38.15479 
83 ,15.3232 ,0.74738 ,3.87147 ,37.98690 
84 ,15.4993 ,0.74908 ,3.84067 ,37.68470 
85 ,15.6913 ,0.75106 ,3.84067 ,37.68470 
86 ,15.8674 ,0.75275 ,3.82699 ,37.55038 
87 ,16.0594 ,0.75477 ,3.80987 ,37.38249 
88 ,16.2514 ,0.75663 ,3.77565 ,37.04671 
89 ,16.4274 ,0.75838 ,3.77565 ,37.04671 
90 ,16.6037 ,0.76014 ,3.75512 ,36.84524 
91 ,16.7958 ,0.76204 ,3.75170 ,36.81166 
92 ,16.9714 ,0.76385 ,3.71405 ,36.44230 
93 ,17.1479 ,0.76565 ,3.72090 ,36.50946 
94 ,17.3398 ,0.76755 ,3.66957 ,36.00578 
95 ,17.5160 ,0.76928 ,3.65930 ,35.90505 
96 ,17.7241 ,0.77131 ,3.64561 ,35.77073 
97 ,17.9001 ,0.77313 ,3.62508 ,35.56926 
98 ,18.0596 ,0.77482 ,3.60454 ,35.36779 
99 ,18.2363 ,0.77648 ,3.60112 ,35.33422 
100 ,18.4123 ,0.77826 ,3.58401 ,35.16632 
101 ,18.5882 ,0.77998 ,3.57717 ,35.09917 
102 ,18.7644 ,0.78173 ,3.56690 ,34.99843 
103 ,18.9563 ,0.78365 ,3.53610 ,34.69623 
104 ,19.1326 ,0.78542 ,3.52241 ,34.56192 
105 ,19.3086 ,0.78714 ,3.52241 ,34.56192 
106 ,19.5329 ,0.78928 ,3.49504 ,34.29329 
107 ,19.7087 ,0.79116 ,3.47108 ,34.05824 
108 ,19.8849 ,0.79293 ,3.45739 ,33.92393 
109 ,20.0766 ,0.79482 ,3.42659 ,33.62172 
110 ,20.2531 ,0.79664 ,3.41290 ,33.48741 
111 ,20.4454 ,0.79857 ,3.40948 ,33.45383 
112 ,20.6212 ,0.80033 ,3.39579 ,33.31952 
113 ,20.7971 ,0.80205 ,3.35473 ,32.91658 
114 ,20.9739 ,0.80386 ,3.36157 ,32.98374 
115 ,21.1495 ,0.80563 ,3.33419 ,32.71511 
116 ,21.3416 ,0.80753 ,3.32735 ,32.64795 
117 ,21.5336 ,0.80945 ,3.28628 ,32.24501 
118 ,21.7093 ,0.81125 ,3.28628 ,32.24501 
119 ,21.8858 ,0.81297 ,3.27602 ,32.14428 
120 ,22.0778 ,0.81488 ,3.23495 ,31.74134 
121 ,22.2536 ,0.81664 ,3.22468 ,31.64060 
122 ,22.4299 ,0.81843 ,3.21442 ,31.53987 
123 ,22.6219 ,0.82028 ,3.21100 ,31.50629 
124 ,22.7980 ,0.82208 ,3.18362 ,31.23766 
125 ,22.9741 ,0.82384 ,3.15282 ,30.93546 
126 ,23.1503 ,0.82562 ,3.15282 ,30.93546 
127 ,23.3259 ,0.82735 ,3.12544 ,30.66683 
128 ,23.5022 ,0.82916 ,3.11860 ,30.59968 
129 ,23.6945 ,0.83104 ,3.08780 ,30.29747 
130 ,23.8705 ,0.83282 ,3.06726 ,30.09600 
131 ,24.0467 ,0.83458 ,3.06042 ,30.02884 
132 ,24.2384 ,0.83649 ,3.04673 ,29.89453 
133 ,24.4149 ,0.83824 ,3.01593 ,29.59233 
134 ,24.5910 ,0.83999 ,3.01251 ,29.55875 
135 ,24.7671 ,0.84174 ,2.99198 ,29.35728 
136 ,24.9430 ,0.84352 ,2.98171 ,29.25654 
137 ,25.1191 ,0.84530 ,2.96460 ,29.08865 
138 ,25.2952 ,0.84700 ,2.93038 ,28.75287 
139 ,25.4550 ,0.84876 ,2.92353 ,28.68571 
140 ,25.6312 ,0.85037 ,2.90300 ,28.48424 
141 ,25.8071 ,0.85217 ,2.87220 ,28.18204 
142 ,25.9995 ,0.85400 ,2.86878 ,28.14846 
143 ,26.1757 ,0.85586 ,2.83798 ,27.84625 
144 ,26.3517 ,0.85763 ,2.80034 ,27.47689 
145 ,26.5437 ,0.85948 ,2.81402 ,27.61121 
146 ,26.7197 ,0.86124 ,2.79007 ,27.37616 
147 ,26.9117 ,0.86318 ,2.76269 ,27.10753 
148 ,27.0879 ,0.86499 ,2.74558 ,26.93964 
149 ,27.2800 ,0.86687 ,2.74216 ,26.90606 
150 ,27.4562 ,0.86862 ,2.71478 ,26.63744 
151 ,27.6322 ,0.87041 ,2.68740 ,26.36881 
152 ,27.8082 ,0.87210 ,2.66687 ,26.16734 
153 ,27.9843 ,0.87394 ,2.66003 ,26.10018 
154 ,28.1605 ,0.87566 ,2.64976 ,25.99945 
155 ,28.3365 ,0.87745 ,2.64292 ,25.93229 
156 ,28.5281 ,0.87927 ,2.60185 ,25.52935 
157 ,28.7046 ,0.88109 ,2.59501 ,25.46220 
158 ,28.8808 ,0.88293 ,2.58474 ,25.36146 
159 ,29.0566 ,0.88462 ,2.57447 ,25.26073 
160 ,29.2329 ,0.88641 ,2.54367 ,24.95852 
161 ,29.4089 ,0.88815 ,2.52998 ,24.82421 
162 ,29.6009 ,0.89010 ,2.51972 ,24.72347 
163 ,29.7770 ,0.89181 ,2.50945 ,24.62274 
164 ,29.9532 ,0.89361 ,2.48207 ,24.35411 
165 ,30.1453 ,0.89549 ,2.45470 ,24.08549 
166 ,30.3373 ,0.89743 ,2.45470 ,24.08549 
167 ,30.5452 ,0.89937 ,2.43416 ,23.88402 
168 ,30.7211 ,0.90127 ,2.42732 ,23.81686 
169 ,30.8975 ,0.90304 ,2.40679 ,23.61539 
170 ,31.0896 ,0.90492 ,2.38625 ,23.41392 
171 ,31.2654 ,0.90670 ,2.36230 ,23.17887 
172 ,31.4418 ,0.90849 ,2.34861 ,23.04456 
173 ,31.6177 ,0.91023 ,2.34861 ,23.04456 
174 ,31.7936 ,0.91201 ,2.33492 ,22.91024 
175 ,31.9858 ,0.91381 ,2.29728 ,22.54088 
176 ,32.1782 ,0.91588 ,2.28359 ,22.40657 
177 ,32.3541 ,0.91762 ,2.28701 ,22.44015 
178 ,32.5303 ,0.91934 ,2.25279 ,22.10437 
179 ,32.7060 ,0.92113 ,2.22883 ,21.86932 
180 ,32.8660 ,0.92279 ,2.22883 ,21.86932 
181 ,33.0425 ,0.92450 ,2.19803 ,21.56711 
182 ,33.2504 ,0.92650 ,2.21172 ,21.70143 
183 ,33.4422 ,0.92843 ,2.16039 ,21.19775 
184 ,33.6023 ,0.93017 ,2.16039 ,21.19775 
185 ,33.7786 ,0.93186 ,2.14328 ,21.02986 
186 ,33.9544 ,0.93359 ,2.14328 ,21.02986 
187 ,34.1306 ,0.93537 ,2.12275 ,20.82839 
188 ,34.2906 ,0.93706 ,2.09879 ,20.59334 
189 ,34.4507 ,0.93870 ,2.07141 ,20.32472 
190 ,34.6268 ,0.94030 ,2.07826 ,20.39187 
191 ,34.8029 ,0.94208 ,2.05088 ,20.12325 
192 ,34.9792 ,0.94384 ,2.03377 ,19.95535 
193 ,35.1550 ,0.94559 ,2.02350 ,19.85462 
194 ,35.3311 ,0.94735 ,2.02693 ,19.88820 
195 ,35.4911 ,0.94910 ,1.99955 ,19.61957 
196 ,35.6672 ,0.95072 ,1.99613 ,19.58599 
197 ,35.8433 ,0.95247 ,1.96190 ,19.25021 
198 ,36.0034 ,0.95419 ,1.94822 ,19.11590 
199 ,36.1794 ,0.95584 ,1.93111 ,18.94801 
200 ,36.3555 ,0.95757 ,1.93111 ,18.94801 
201 ,36.5316 ,0.95935 ,1.93111 ,18.94801 
202 ,36.6916 ,0.96107 ,1.90373 ,18.67938 
203 ,36.8676 ,0.96279 ,1.87293 ,18.37717 
204 ,37.0438 ,0.96448 ,1.86266 ,18.27644 
205 ,37.2198 ,0.96623 ,1.84213 ,18.07497 
206 ,37.3800 ,0.96795 ,1.83528 ,18.00781 
207 ,37.5560 ,0.96958 ,1.81817 ,17.83992 
208 ,37.7320 ,0.97133 ,1.81817 ,17.83992 
209 ,37.8921 ,0.97308 ,1.80791 ,17.73919 
210 ,38.0684 ,0.97473 ,1.78737 ,17.53772 
211 ,38.2446 ,0.97658 ,1.74973 ,17.16836 
212 ,38.4365 ,0.97831 ,1.74289 ,17.10120 
213 ,38.6289 ,0.98035 ,1.74289 ,17.10120 
214 ,38.8048 ,0.98209 ,1.71893 ,16.86615 
215 ,38.9809 ,0.98384 ,1.70182 ,16.69826 
216 ,39.1569 ,0.98564 ,1.68813 ,16.56395 
217 ,39.3328 ,0.98745 ,1.67786 ,16.46321 
218 ,39.5090 ,0.98914 ,1.67102 ,16.39605 
219 ,39.6851 ,0.99086 ,1.65733 ,16.26174 
220 ,39.8771 ,0.99277 ,1.62311 ,15.92596 
221 ,40.0532 ,0.99458 ,1.62653 ,15.95954 
222 ,40.2294 ,0.99630 ,1.61627 ,15.85880 
223 ,40.4055 ,0.99808 ,1.58889 ,15.59018 
224 ,40.5974 ,0.99996 ,1.55809 ,15.28797 
225 ,40.7736 ,1.00175 ,1.56151 ,15.32155 
226 ,40.9497 ,1.00351 ,1.55809 ,15.28797 
227 ,41.1418 ,1.00538 ,1.53756 ,15.08650 
228 ,41.3338 ,1.00738 ,1.52387 ,14.95219 
229 ,41.5420 ,1.00927 ,1.50333 ,14.75072 
230 ,41.7340 ,1.01140 ,1.48280 ,14.54925 
231 ,41.9261 ,1.01323 ,1.47938 ,14.51567 
232 ,42.1021 ,1.01507 ,1.44858 ,14.21346 
233 ,42.2941 ,1.01694 ,1.43147 ,14.04557 
234 ,42.4701 ,1.01874 ,1.42805 ,14.01199 
235 ,42.6459 ,1.02043 ,1.42462 ,13.97842 
236 ,42.8379 ,1.02233 ,1.38698 ,13.60906 
237 ,43.0139 ,1.02421 ,1.38698 ,13.60906 
238 ,43.1905 ,1.02592 ,1.36987 ,13.44116 
239 ,43.3985 ,1.02794 ,1.33565 ,13.10538 
240 ,43.5744 ,1.02984 ,1.33565 ,13.10538 
241 ,43.7665 ,1.03163 ,1.32196 ,12.97107 
242 ,43.9430 ,1.03345 ,1.30485 ,12.80318 
243 ,44.1190 ,1.03526 ,1.29116 ,12.66886 
244 ,44.2950 ,1.03698 ,1.25694 ,12.33308 
245 ,44.4870 ,1.03887 ,1.27405 ,12.50097 
246 ,44.6630 ,1.04067 ,1.26720 ,12.43381 
247 ,44.8552 ,1.04258 ,1.22614 ,12.03088 
248 ,45.0314 ,1.04435 ,1.21245 ,11.89656 
249 ,45.2392 ,1.04634 ,1.18507 ,11.62794 
250 ,45.4155 ,1.04817 ,1.17138 ,11.49362 
251 ,45.5912 ,1.04997 ,1.16796 ,11.46004 
252 ,45.7675 ,1.05164 ,1.16454 ,11.42647 
253 ,45.9436 ,1.05345 ,1.15427 ,11.32573 
254 ,46.1197 ,1.05517 ,1.12690 ,11.05710 
255 ,46.2958 ,1.05698 ,1.10979 ,10.88921 
256 ,46.4719 ,1.05871 ,1.09952 ,10.78848 
257 ,46.6796 ,1.06072 ,1.07556 ,10.55343 
258 ,46.8719 ,1.06262 ,1.07214 ,10.51985 
259 ,47.0640 ,1.06458 ,1.06530 ,10.45270 
260 ,47.2402 ,1.06644 ,1.05161 ,10.31838 
261 ,47.4321 ,1.06824 ,1.03450 ,10.15049 
262 ,47.6242 ,1.07018 ,1.02423 ,10.04976 
263 ,47.8003 ,1.07202 ,1.01396 ,9.94902 
264 ,47.9925 ,1.07393 ,0.98317 ,9.64682 
265 ,48.1685 ,1.07572 ,0.99001 ,9.71397 
266 ,48.3442 ,1.07744 ,0.97632 ,9.57966 
267 ,48.5203 ,1.07919 ,0.96605 ,9.47892 
268 ,48.6963 ,1.08097 ,0.93183 ,9.14314 
269 ,48.8887 ,1.08282 ,0.93525 ,9.17672 
270 ,49.0810 ,1.08480 ,0.91472 ,8.97525 
271 ,49.2730 ,1.08671 ,0.89077 ,8.74020 
272 ,49.4490 ,1.08850 ,0.88392 ,8.67305 
273 ,49.6412 ,1.09030 ,0.88734 ,8.70662 
274 ,49.8329 ,1.09226 ,0.85997 ,8.43800 
275 ,50.0094 ,1.09411 ,0.83601 ,8.20295 
276 ,50.2013 ,1.09598 ,0.83259 ,8.16937 
277 ,50.3774 ,1.09777 ,0.81548 ,8.00148 
278 ,50.5536 ,1.09952 ,0.79837 ,7.83359 
279 ,50.7456 ,1.10149 ,0.79152 ,7.76643 
280 ,50.9212 ,1.10322 ,0.78810 ,7.73285 
281 ,51.0977 ,1.10500 ,0.76757 ,7.53138 
282 ,51.2895 ,1.10687 ,0.74019 ,7.26276 
283 ,51.4659 ,1.10868 ,0.72650 ,7.12844 
284 ,51.6739 ,1.11069 ,0.70597 ,6.92697 
285 ,51.8499 ,1.11245 ,0.69228 ,6.79266 
286 ,52.0259 ,1.11430 ,0.67859 ,6.65835 
287 ,52.2023 ,1.11602 ,0.69228 ,6.79266 
288 ,52.3942 ,1.11795 ,0.66490 ,6.52403 
289 ,52.5704 ,1.11969 ,0.64095 ,6.28899 
290 ,52.7624 ,1.12163 ,0.65121 ,6.38972 
291 ,52.9385 ,1.12335 ,0.64437 ,6.32256 
292 ,53.1307 ,1.12526 ,0.61357 ,6.02036 
293 ,53.3226 ,1.12722 ,0.60673 ,5.95320 
294 ,53.4988 ,1.12899 ,0.58962 ,5.78531 
295 ,53.6909 ,1.13084 ,0.56224 ,5.51668 
296 ,53.8668 ,1.13267 ,0.54855 ,5.38237 
297 ,54.0430 ,1.13443 ,0.54855 ,5.38237 
298 ,54.2351 ,1.13633 ,0.54171 ,5.31522 
299 ,54.4271 ,1.13825 ,0.52117 ,5.11375 
300 ,54.6032 ,1.14003 ,0.50748 ,4.97943 
301 ,54.7949 ,1.14195 ,0.49380 ,4.84512 
302 ,54.9713 ,1.14369 ,0.48011 ,4.71081 
303 ,55.1471 ,1.14542 ,0.45957 ,4.50934 
304 ,55.3393 ,1.14729 ,0.44588 ,4.37502 
305 ,55.5314 ,1.14930 ,0.43904 ,4.30787 
306 ,55.7075 ,1.15100 ,0.41851 ,4.10640 
307 ,55.8996 ,1.15291 ,0.42877 ,4.20713 
308 ,56.0919 ,1.15487 ,0.39455 ,3.87135 
309 ,56.2675 ,1.15666 ,0.38086 ,3.73703 
310 ,56.4439 ,1.15839 ,0.37402 ,3.66988 
311 ,56.6200 ,1.16014 ,0.37060 ,3.63630 
312 ,56.8121 ,1.16198 ,0.37060 ,3.63630 
313 ,56.9881 ,1.16387 ,0.33638 ,3.30052 
314 ,57.1802 ,1.16580 ,0.32953 ,3.23336 
315 ,57.3562 ,1.16750 ,0.31584 ,3.09905 
316 ,57.5484 ,1.16941 ,0.29189 ,2.86400 
317 ,57.7245 ,1.17122 ,0.27478 ,2.69611 
318 ,57.9166 ,1.17310 ,0.28847 ,2.83042 
319 ,58.1086 ,1.17513 ,0.25424 ,2.49464 
320 ,58.3006 ,1.17689 ,0.25767 ,2.52822 
321 ,58.4768 ,1.17870 ,0.24398 ,2.39390 
322 ,58.6687 ,1.18072 ,0.20976 ,2.05812 
323 ,58.8450 ,1.18243 ,0.20633 ,2.02454 
324 ,59.0371 ,1.18426 ,0.21318 ,2.09170 
325 ,59.2292 ,1.18623 ,0.18238 ,1.78949 
326 ,59.4048 ,1.18801 ,0.16527 ,1.62160 
327 ,59.5816 ,1.18980 ,0.15500 ,1.52087 
328 ,59.7732 ,1.19170 ,0.15842 ,1.55445 
329 ,59.9494 ,1.19342 ,0.12078 ,1.18508 
330 ,60.1254 ,1.19521 ,0.11051 ,1.08435 
331 ,60.3013 ,1.19699 ,0.11393 ,1.11793 
332 ,60.4774 ,1.19871 ,0.11051 ,1.08435 
333 ,60.6536 ,1.20053 ,0.09682 ,0.95004 
334 ,60.8617 ,1.20250 ,0.08314 ,0.81572 
335 ,61.0538 ,1.20451 ,0.07287 ,0.71499 
336 ,61.2299 ,1.20627 ,0.05234 ,0.51352 
337 ,61.4219 ,1.20821 ,0.02496 ,0.24489 
338 ,61.6139 ,1.21000 ,0.02838 ,0.27847 
339 ,61.7742 ,1.21180 ,0.00785 ,0.07700 
340 ,61.9661 ,1.21362 ,0.00443 ,0.04342 
341 ,62.1582 ,1.21544 ,0.00100 ,0.00984 
342 ,62.3343 ,1.21725 ,-0.00926 ,-0.09089 
343 ,62.5105 ,1.21911 ,-0.02295 ,-0.22520 
344 ,62.7025 ,1.22092 ,-0.04006 ,-0.39310 
345 ,62.8946 ,1.22287 ,-0.03322 ,-0.32594 
346 ,63.0707 ,1.22464 ,-0.05375 ,-0.52741 
347 ,63.2467 ,1.22643 ,-0.06060 ,-0.59457 
348 ,63.4228 ,1.22819 ,-0.06744 ,-0.66172 
349 ,63.5989 ,1.22993 ,-0.08113 ,-0.79604 
350 ,63.7749 ,1.23171 ,-0.07771 ,-0.76246 
351 ,63.9511 ,1.23344 ,-0.08455 ,-0.82961 
352 ,64.1271 ,1.23519 ,-0.11193 ,-1.09824 
353 ,64.3033 ,1.23697 ,-0.13931 ,-1.36687 
354 ,64.4954 ,1.23885 ,-0.12562 ,-1.23255 
355 ,64.6873 ,1.24079 ,-0.15299 ,-1.50118 
356 ,64.8634 ,1.24257 ,-0.15984 ,-1.56834 
357 ,65.0716 ,1.24449 ,-0.15984 ,-1.56834 
358 ,65.2473 ,1.24639 ,-0.19064 ,-1.87054 
359 ,65.4233 ,1.24812 ,-0.19748 ,-1.93770 
360 ,65.5998 ,1.25003 ,-0.19064 ,-1.87054 
361 ,65.7756 ,1.25176 ,-0.19064 ,-1.87054 
362 ,65.9517 ,1.25348 ,-0.21117 ,-2.07201 
363 ,66.1599 ,1.25542 ,-0.24197 ,-2.37422 
364 ,66.3519 ,1.25732 ,-0.24197 ,-2.37422 
365 ,66.5601 ,1.25940 ,-0.25908 ,-2.54211 
366 ,66.7361 ,1.26128 ,-0.26935 ,-2.64284 
367 ,66.9283 ,1.26321 ,-0.27277 ,-2.67642 
368 ,67.1200 ,1.26514 ,-0.30699 ,-3.01220 
369 ,67.2963 ,1.26691 ,-0.29673 ,-2.91147 
370 ,67.4882 ,1.26882 ,-0.29673 ,-2.91147 
371 ,67.6805 ,1.27068 ,-0.33437 ,-3.28083 
372 ,67.8566 ,1.27248 ,-0.33437 ,-3.28083 
373 ,68.0646 ,1.27450 ,-0.35490 ,-3.48230 
374 ,68.2408 ,1.27634 ,-0.36175 ,-3.54946 
375 ,68.4168 ,1.27810 ,-0.36859 ,-3.61661 
376 ,68.6089 ,1.27989 ,-0.37544 ,-3.68377 
377 ,68.7852 ,1.28177 ,-0.39255 ,-3.85166 
378 ,68.9608 ,1.28354 ,-0.39255 ,-3.85166 
379 ,69.1370 ,1.28526 ,-0.41308 ,-4.05313 
380 ,69.3612 ,1.28736 ,-0.41650 ,-4.08671 
381 ,69.5370 ,1.28930 ,-0.43703 ,-4.28818 
382 ,69.7134 ,1.29106 ,-0.42677 ,-4.18744 
383 ,69.9055 ,1.29297 ,-0.44730 ,-4.38891 
384 ,70.0975 ,1.29491 ,-0.45757 ,-4.48965 
385 ,70.3057 ,1.29692 ,-0.48152 ,-4.72470 
386 ,70.4976 ,1.29889 ,-0.47810 ,-4.69112 
387 ,70.6737 ,1.30066 ,-0.49179 ,-4.82543 
388 ,70.8498 ,1.30238 ,-0.49521 ,-4.85901 
389 ,71.0419 ,1.30424 ,-0.51574 ,-5.06048 
390 ,71.2340 ,1.30619 ,-0.52259 ,-5.12764 
391 ,71.4259 ,1.30816 ,-0.52943 ,-5.19479 
392 ,71.6179 ,1.31005 ,-0.54997 ,-5.39626 
393 ,71.8102 ,1.31196 ,-0.54654 ,-5.36268 
394 ,72.0020 ,1.31393 ,-0.57050 ,-5.59773 
395 ,72.1780 ,1.31566 ,-0.57734 ,-5.66489 
396 ,72.3541 ,1.31743 ,-0.59103 ,-5.79920 
397 ,72.5303 ,1.31923 ,-0.58419 ,-5.73205 
398 ,72.7063 ,1.32095 ,-0.59788 ,-5.86636 
399 ,72.8985 ,1.32292 ,-0.62183 ,-6.10141 
400 ,73.0907 ,1.32483 ,-0.62183 ,-6.10141 
401 ,73.2667 ,1.32655 ,-0.61841 ,-6.06783 
402 ,73.4429 ,1.32829 ,-0.64236 ,-6.30288 
403 ,73.6507 ,1.33030 ,-0.66290 ,-6.50435 
404 ,73.8270 ,1.33216 ,-0.65605 ,-6.43719 
405 ,74.0190 ,1.33413 ,-0.68685 ,-6.73940 
406 ,74.2111 ,1.33602 ,-0.69027 ,-6.77297 
407 ,74.3871 ,1.33773 ,-0.68343 ,-6.70582 
408 ,74.5633 ,1.33952 ,-0.69712 ,-6.84013 
409 ,74.7553 ,1.34145 ,-0.71765 ,-7.04160 
410 ,74.9313 ,1.34323 ,-0.72107 ,-7.07518 
411 ,75.1071 ,1.34499 ,-0.72792 ,-7.14233 
412 ,75.2837 ,1.34671 ,-0.73476 ,-7.20949 
413 ,75.4594 ,1.34856 ,-0.75872 ,-7.44454 
414 ,75.6515 ,1.35040 ,-0.75872 ,-7.44454 
415 ,75.8276 ,1.35210 ,-0.75530 ,-7.41096 
416 ,76.0198 ,1.35405 ,-0.77583 ,-7.61243 
417 ,76.1958 ,1.35582 ,-0.78610 ,-7.71317 
418 ,76.3717 ,1.35761 ,-0.79978 ,-7.84748 
419 ,76.5479 ,1.35940 ,-0.80663 ,-7.91464 
420 ,76.7400 ,1.36121 ,-0.81347 ,-7.98179 
421 ,76.9641 ,1.36343 ,-0.82374 ,-8.08253 
422 ,77.1723 ,1.36544 ,-0.82032 ,-8.04895 
423 ,77.3643 ,1.36751 ,-0.83058 ,-8.14968 
424 ,77.5563 ,1.36940 ,-0.86138 ,-8.45189 
425 ,77.7484 ,1.37133 ,-0.86138 ,-8.45189 
426 ,77.9244 ,1.37315 ,-0.87507 ,-8.58620 
427 ,78.1006 ,1.37493 ,-0.87849 ,-8.61978 
428 ,78.2766 ,1.37668 ,-0.90245 ,-8.85483 
429 ,78.4527 ,1.37854 ,-0.88534 ,-8.68694 
430 ,78.6286 ,1.38012 ,-0.91614 ,-8.98914 
431 ,78.8048 ,1.38192 ,-0.91272 ,-8.95556 
432 ,78.9814 ,1.38370 ,-0.91614 ,-8.98914 
433 ,79.1569 ,1.38544 ,-0.93667 ,-9.19061 
434 ,79.3331 ,1.38720 ,-0.93325 ,-9.15703 
435 ,79.5091 ,1.38898 ,-0.94351 ,-9.25777 
436 ,79.6850 ,1.39070 ,-0.92298 ,-9.05630 
437 ,79.8610 ,1.39251 ,-0.93667 ,-9.19061 
438 ,80.0372 ,1.39423 ,-0.94694 ,-9.29135 
439 ,80.2133 ,1.39602 ,-0.95378 ,-9.35850 
440 ,80.3895 ,1.39778 ,-0.96063 ,-9.42566 
441 ,80.5655 ,1.39955 ,-0.96063 ,-9.42566 
442 ,80.7575 ,1.40145 ,-0.96063 ,-9.42566 
443 ,80.9496 ,1.40333 ,-0.98800 ,-9.69429 
444 ,81.1418 ,1.40516 ,-0.99143 ,-9.72786 
445 ,81.3498 ,1.40737 ,-1.01880 ,-9.99649 
446 ,81.5259 ,1.40914 ,-1.00854 ,-9.89576 
447 ,81.7176 ,1.41102 ,-1.01880 ,-9.99649 
448 ,81.8941 ,1.41279 ,-1.02907 ,-10.09723 
449 ,82.0701 ,1.41453 ,-1.03934 ,-10.19796 
450 ,82.2463 ,1.41632 ,-1.04618 ,-10.26512 
451 ,82.4223 ,1.41811 ,-1.04276 ,-10.23154 
452 ,82.5983 ,1.41981 ,-1.05645 ,-10.36585 
453 ,82.7740 ,1.42163 ,-1.07356 ,-10.53374 
454 ,82.9505 ,1.42341 ,-1.09067 ,-10.70163 
455 ,83.1426 ,1.42529 ,-1.07698 ,-10.56732 
456 ,83.3344 ,1.42721 ,-1.09067 ,-10.70163 
457 ,83.5107 ,1.42896 ,-1.11462 ,-10.93668 
458 ,83.7025 ,1.43090 ,-1.09067 ,-10.70163 
459 ,83.8626 ,1.43259 ,-1.10778 ,-10.86953 
460 ,84.0389 ,1.43424 ,-1.12147 ,-11.00384 
461 ,84.2310 ,1.43622 ,-1.14542 ,-11.23889 
462 ,84.4070 ,1.43794 ,-1.15569 ,-11.33962 
