Data stamp = , 05-04-2022 01:20:31 547

Calibration Values: 
Slope = , 26.54 , g/V 
Offset Voltage at no contact = , -0.501760 , V 

No , Time , Stage Position ,   Mass , Force 
   ,  (s) ,      (mm)      ,   (g)  , (mN)  

1 ,0.0000 ,0.59946 ,4.95972 ,48.66480 
2 ,0.2119 ,0.59955 ,4.96999 ,48.76554 
3 ,0.5325 ,0.60038 ,4.93235 ,48.39618 
4 ,0.7404 ,0.60191 ,4.94603 ,48.53049 
5 ,0.9165 ,0.60343 ,4.95630 ,48.63122 
6 ,1.1247 ,0.60540 ,4.95630 ,48.63122 
7 ,1.3168 ,0.60726 ,4.96657 ,48.73196 
8 ,1.4929 ,0.60913 ,4.95288 ,48.59764 
9 ,1.7010 ,0.61114 ,4.93235 ,48.39618 
10 ,1.8770 ,0.61305 ,4.90839 ,48.16113 
11 ,2.0532 ,0.61480 ,4.90839 ,48.16113 
12 ,2.2451 ,0.61674 ,4.89128 ,47.99324 
13 ,2.4213 ,0.61846 ,4.86390 ,47.72461 
14 ,2.5974 ,0.62025 ,4.85364 ,47.62387 
15 ,2.7893 ,0.62216 ,4.85021 ,47.59030 
16 ,2.9655 ,0.62386 ,4.82626 ,47.35525 
17 ,3.1415 ,0.62563 ,4.80573 ,47.15378 
18 ,3.3336 ,0.62759 ,4.80915 ,47.18736 
19 ,3.5254 ,0.62940 ,4.77493 ,46.85157 
20 ,3.7018 ,0.63125 ,4.75097 ,46.61653 
21 ,3.8934 ,0.63318 ,4.76466 ,46.75084 
22 ,4.0700 ,0.63494 ,4.76124 ,46.71726 
23 ,4.2620 ,0.63686 ,4.72359 ,46.34790 
24 ,4.4381 ,0.63864 ,4.71675 ,46.28074 
25 ,4.6137 ,0.64036 ,4.70648 ,46.18001 
26 ,4.7903 ,0.64214 ,4.69622 ,46.07927 
27 ,5.0141 ,0.64421 ,4.67568 ,45.87780 
28 ,5.1903 ,0.64612 ,4.66199 ,45.74349 
29 ,5.3664 ,0.64791 ,4.64831 ,45.60918 
30 ,5.5585 ,0.64975 ,4.63804 ,45.50844 
31 ,5.7344 ,0.65159 ,4.60724 ,45.20624 
32 ,5.9107 ,0.65335 ,4.60040 ,45.13908 
33 ,6.0867 ,0.65513 ,4.57644 ,44.90403 
34 ,6.2787 ,0.65701 ,4.56275 ,44.76972 
35 ,6.4548 ,0.65882 ,4.54906 ,44.63541 
36 ,6.6306 ,0.66054 ,4.54564 ,44.60183 
37 ,6.8067 ,0.66224 ,4.52853 ,44.43394 
38 ,6.9830 ,0.66412 ,4.50115 ,44.16531 
39 ,7.1591 ,0.66577 ,4.49089 ,44.06457 
40 ,7.3349 ,0.66753 ,4.48404 ,43.99742 
41 ,7.5111 ,0.66934 ,4.46693 ,43.82953 
42 ,7.7194 ,0.67132 ,4.44298 ,43.59448 
43 ,7.8951 ,0.67323 ,4.42586 ,43.42659 
44 ,8.0876 ,0.67507 ,4.40533 ,43.22512 
45 ,8.2797 ,0.67695 ,4.39164 ,43.09080 
46 ,8.4717 ,0.67893 ,4.39164 ,43.09080 
47 ,8.6638 ,0.68082 ,4.35742 ,42.75502 
48 ,8.8557 ,0.68269 ,4.35058 ,42.68786 
49 ,9.0319 ,0.68448 ,4.34031 ,42.58713 
50 ,9.2239 ,0.68644 ,4.31636 ,42.35208 
51 ,9.4000 ,0.68821 ,4.29924 ,42.18419 
52 ,9.5760 ,0.68996 ,4.29240 ,42.11703 
53 ,9.7522 ,0.69171 ,4.27871 ,41.98272 
54 ,9.9282 ,0.69356 ,4.26160 ,41.81483 
55 ,10.1042 ,0.69524 ,4.24449 ,41.64694 
56 ,10.2804 ,0.69705 ,4.23422 ,41.54620 
57 ,10.4563 ,0.69877 ,4.21711 ,41.37831 
58 ,10.6325 ,0.70052 ,4.21369 ,41.34473 
59 ,10.8087 ,0.70232 ,4.18974 ,41.10968 
60 ,10.9687 ,0.70404 ,4.16236 ,40.84106 
61 ,11.1447 ,0.70568 ,4.15551 ,40.77390 
62 ,11.3208 ,0.70737 ,4.12814 ,40.50527 
63 ,11.5129 ,0.70931 ,4.12814 ,40.50527 
64 ,11.6890 ,0.71111 ,4.12471 ,40.47170 
65 ,11.8650 ,0.71288 ,4.09049 ,40.13591 
66 ,12.0409 ,0.71458 ,4.05627 ,39.80013 
67 ,12.2172 ,0.71639 ,4.04600 ,39.69940 
68 ,12.3933 ,0.71811 ,4.04943 ,39.73297 
69 ,12.5852 ,0.71997 ,4.01520 ,39.39719 
70 ,12.7773 ,0.72191 ,4.00494 ,39.29646 
71 ,12.9695 ,0.72391 ,3.99467 ,39.19572 
72 ,13.1455 ,0.72563 ,3.96387 ,38.89352 
73 ,13.3377 ,0.72761 ,3.95018 ,38.75920 
74 ,13.5295 ,0.72957 ,3.91938 ,38.45700 
75 ,13.7058 ,0.73124 ,3.91596 ,38.42342 
76 ,13.8979 ,0.73317 ,3.89543 ,38.22195 
77 ,14.0737 ,0.73494 ,3.87832 ,38.05406 
78 ,14.2660 ,0.73678 ,3.86805 ,37.95332 
79 ,14.4422 ,0.73865 ,3.83041 ,37.58396 
80 ,14.6182 ,0.74037 ,3.81672 ,37.44965 
81 ,14.8103 ,0.74230 ,3.82014 ,37.48323 
82 ,14.9864 ,0.74410 ,3.79961 ,37.28176 
83 ,15.1621 ,0.74589 ,3.77565 ,37.04671 
84 ,15.3385 ,0.74758 ,3.76196 ,36.91240 
85 ,15.5144 ,0.74934 ,3.74485 ,36.74450 
86 ,15.6905 ,0.75121 ,3.73117 ,36.61019 
87 ,15.8826 ,0.75299 ,3.70379 ,36.34157 
88 ,16.0588 ,0.75480 ,3.69352 ,36.24083 
89 ,16.2505 ,0.75670 ,3.68668 ,36.17367 
90 ,16.4108 ,0.75840 ,3.67299 ,36.03936 
91 ,16.5869 ,0.76009 ,3.65588 ,35.87147 
92 ,16.7631 ,0.76178 ,3.62166 ,35.53569 
93 ,16.9392 ,0.76358 ,3.60797 ,35.40137 
94 ,17.1151 ,0.76533 ,3.60454 ,35.36779 
95 ,17.2909 ,0.76713 ,3.58743 ,35.19990 
96 ,17.4674 ,0.76888 ,3.57717 ,35.09917 
97 ,17.6751 ,0.77086 ,3.53952 ,34.72981 
98 ,17.8512 ,0.77269 ,3.53952 ,34.72981 
99 ,18.0276 ,0.77443 ,3.51557 ,34.49476 
100 ,18.2196 ,0.77631 ,3.48819 ,34.22613 
101 ,18.3953 ,0.77810 ,3.46081 ,33.95751 
102 ,18.5715 ,0.77991 ,3.46424 ,33.99108 
103 ,18.7639 ,0.78180 ,3.45055 ,33.85677 
104 ,18.9561 ,0.78367 ,3.42317 ,33.58814 
105 ,19.1481 ,0.78565 ,3.41633 ,33.52099 
106 ,19.3239 ,0.78743 ,3.40606 ,33.42025 
107 ,19.5161 ,0.78925 ,3.37868 ,33.15163 
108 ,19.7083 ,0.79122 ,3.36842 ,33.05089 
109 ,19.9003 ,0.79311 ,3.33419 ,32.71511 
110 ,20.1084 ,0.79517 ,3.32393 ,32.61437 
111 ,20.3005 ,0.79711 ,3.28628 ,32.24501 
112 ,20.4601 ,0.79890 ,3.28286 ,32.21143 
113 ,20.6366 ,0.80053 ,3.26233 ,32.00996 
114 ,20.8445 ,0.80256 ,3.25891 ,31.97639 
115 ,21.0208 ,0.80438 ,3.23495 ,31.74134 
116 ,21.2128 ,0.80628 ,3.21100 ,31.50629 
117 ,21.3889 ,0.80807 ,3.21784 ,31.57345 
118 ,21.5486 ,0.80979 ,3.18704 ,31.27124 
119 ,21.7409 ,0.81155 ,3.16651 ,31.06977 
120 ,21.9171 ,0.81336 ,3.13913 ,30.80115 
121 ,22.0934 ,0.81509 ,3.14255 ,30.83472 
122 ,22.2852 ,0.81693 ,3.13913 ,30.80115 
123 ,22.4774 ,0.81884 ,3.10149 ,30.43178 
124 ,22.6534 ,0.82068 ,3.09806 ,30.39821 
125 ,22.8454 ,0.82257 ,3.06726 ,30.09600 
126 ,23.0215 ,0.82436 ,3.05700 ,29.99527 
127 ,23.1976 ,0.82617 ,3.03647 ,29.79380 
128 ,23.3897 ,0.82805 ,3.02962 ,29.72664 
129 ,23.5656 ,0.82980 ,3.01593 ,29.59233 
130 ,23.7417 ,0.83168 ,2.98513 ,29.29012 
131 ,23.9179 ,0.83337 ,2.96460 ,29.08865 
132 ,24.0938 ,0.83503 ,2.96802 ,29.12223 
133 ,24.2701 ,0.83688 ,2.95433 ,28.98792 
134 ,24.4623 ,0.83877 ,2.92696 ,28.71929 
135 ,24.6542 ,0.84060 ,2.92011 ,28.65213 
136 ,24.8304 ,0.84248 ,2.89616 ,28.41709 
137 ,25.0384 ,0.84444 ,2.86536 ,28.11488 
138 ,25.2145 ,0.84627 ,2.86878 ,28.14846 
139 ,25.4067 ,0.84818 ,2.85509 ,28.01415 
140 ,25.5987 ,0.85006 ,2.82087 ,27.67836 
141 ,25.8227 ,0.85222 ,2.79691 ,27.44332 
142 ,25.9989 ,0.85410 ,2.78665 ,27.34258 
143 ,26.1910 ,0.85604 ,2.78322 ,27.30900 
144 ,26.3830 ,0.85795 ,2.76269 ,27.10753 
145 ,26.5591 ,0.85970 ,2.73531 ,26.83891 
146 ,26.7351 ,0.86147 ,2.71820 ,26.67101 
147 ,26.9270 ,0.86341 ,2.72505 ,26.73817 
148 ,27.1033 ,0.86519 ,2.70452 ,26.53670 
149 ,27.2794 ,0.86693 ,2.67029 ,26.20092 
150 ,27.4714 ,0.86885 ,2.66687 ,26.16734 
151 ,27.6472 ,0.87066 ,2.64976 ,25.99945 
152 ,27.8236 ,0.87239 ,2.63607 ,25.86514 
153 ,28.0155 ,0.87427 ,2.60869 ,25.59651 
154 ,28.1917 ,0.87608 ,2.60185 ,25.52935 
155 ,28.3834 ,0.87794 ,2.58474 ,25.36146 
156 ,28.5593 ,0.87982 ,2.56078 ,25.12641 
157 ,28.7195 ,0.88144 ,2.54710 ,24.99210 
158 ,28.8955 ,0.88312 ,2.53341 ,24.85779 
159 ,29.0880 ,0.88497 ,2.53683 ,24.89136 
160 ,29.2962 ,0.88698 ,2.49234 ,24.45485 
161 ,29.4722 ,0.88886 ,2.48550 ,24.38769 
162 ,29.6484 ,0.89064 ,2.48892 ,24.42127 
163 ,29.8243 ,0.89239 ,2.47523 ,24.28696 
164 ,30.0001 ,0.89412 ,2.44785 ,24.01833 
165 ,30.1764 ,0.89593 ,2.42390 ,23.78328 
166 ,30.3686 ,0.89784 ,2.41705 ,23.71612 
167 ,30.5603 ,0.89971 ,2.37941 ,23.34676 
168 ,30.7365 ,0.90147 ,2.36572 ,23.21245 
169 ,30.9127 ,0.90328 ,2.36230 ,23.17887 
170 ,31.1048 ,0.90519 ,2.35888 ,23.14529 
171 ,31.2809 ,0.90692 ,2.31439 ,22.70877 
172 ,31.4570 ,0.90870 ,2.32465 ,22.80951 
173 ,31.6330 ,0.91048 ,2.29385 ,22.50731 
174 ,31.8092 ,0.91218 ,2.30412 ,22.60804 
175 ,32.0013 ,0.91403 ,2.26306 ,22.20510 
176 ,32.1613 ,0.91588 ,2.24594 ,22.03721 
177 ,32.3372 ,0.91750 ,2.23226 ,21.90290 
178 ,32.5134 ,0.91924 ,2.24252 ,22.00363 
179 ,32.7215 ,0.92131 ,2.20146 ,21.60069 
180 ,32.8812 ,0.92306 ,2.19119 ,21.49996 
181 ,33.0576 ,0.92464 ,2.17750 ,21.36564 
182 ,33.2335 ,0.92647 ,2.15697 ,21.16417 
183 ,33.4098 ,0.92822 ,2.16039 ,21.19775 
184 ,33.6018 ,0.93012 ,2.13644 ,20.96270 
185 ,33.8098 ,0.93222 ,2.12275 ,20.82839 
186 ,33.9859 ,0.93397 ,2.11590 ,20.76123 
187 ,34.1780 ,0.93578 ,2.08168 ,20.42545 
188 ,34.3545 ,0.93766 ,2.05430 ,20.15682 
189 ,34.5462 ,0.93953 ,2.05773 ,20.19040 
190 ,34.7223 ,0.94138 ,2.04404 ,20.05609 
191 ,34.9300 ,0.94324 ,2.03035 ,19.92178 
192 ,35.1063 ,0.94518 ,2.01324 ,19.75388 
193 ,35.2823 ,0.94693 ,1.99613 ,19.58599 
194 ,35.4743 ,0.94880 ,1.98244 ,19.45168 
195 ,35.6667 ,0.95082 ,1.97217 ,19.35094 
196 ,35.8587 ,0.95269 ,1.94479 ,19.08232 
197 ,36.0509 ,0.95457 ,1.94137 ,19.04874 
198 ,36.2429 ,0.95656 ,1.92084 ,18.84727 
199 ,36.4028 ,0.95826 ,1.89346 ,18.57864 
200 ,36.5790 ,0.95989 ,1.87977 ,18.44433 
201 ,36.7551 ,0.96164 ,1.85582 ,18.20928 
202 ,36.9311 ,0.96340 ,1.85924 ,18.24286 
203 ,37.1070 ,0.96519 ,1.84897 ,18.14213 
204 ,37.2992 ,0.96709 ,1.81475 ,17.80634 
205 ,37.4751 ,0.96884 ,1.80106 ,17.67203 
206 ,37.6674 ,0.97078 ,1.80791 ,17.73919 
207 ,37.8433 ,0.97255 ,1.80106 ,17.67203 
208 ,38.0031 ,0.97422 ,1.75657 ,17.23551 
209 ,38.1799 ,0.97591 ,1.73946 ,17.06762 
210 ,38.3717 ,0.97780 ,1.73262 ,17.00046 
211 ,38.5314 ,0.97952 ,1.72578 ,16.93331 
212 ,38.7078 ,0.98115 ,1.72920 ,16.96689 
213 ,38.8999 ,0.98309 ,1.68813 ,16.56395 
214 ,39.0759 ,0.98481 ,1.67786 ,16.46321 
215 ,39.2680 ,0.98681 ,1.67444 ,16.42963 
216 ,39.4601 ,0.98862 ,1.64707 ,16.16101 
217 ,39.6681 ,0.99067 ,1.63680 ,16.06027 
218 ,39.8442 ,0.99251 ,1.61284 ,15.82522 
219 ,40.0203 ,0.99430 ,1.59573 ,15.65733 
220 ,40.1962 ,0.99609 ,1.57178 ,15.42228 
221 ,40.3882 ,0.99790 ,1.58204 ,15.52302 
222 ,40.5643 ,0.99971 ,1.55809 ,15.28797 
223 ,40.7567 ,1.00165 ,1.52729 ,14.98577 
224 ,40.9486 ,1.00360 ,1.52045 ,14.91861 
225 ,41.1244 ,1.00531 ,1.51018 ,14.81787 
226 ,41.3008 ,1.00708 ,1.49307 ,14.64998 
227 ,41.4929 ,1.00899 ,1.47253 ,14.44851 
228 ,41.6686 ,1.01076 ,1.46911 ,14.41493 
229 ,41.8610 ,1.01259 ,1.46227 ,14.34778 
230 ,42.0531 ,1.01462 ,1.42805 ,14.01199 
231 ,42.2293 ,1.01637 ,1.43147 ,14.04557 
232 ,42.4050 ,1.01816 ,1.41436 ,13.87768 
233 ,42.5814 ,1.01990 ,1.38698 ,13.60906 
234 ,42.7734 ,1.02179 ,1.37671 ,13.50832 
235 ,42.9495 ,1.02357 ,1.36645 ,13.40759 
236 ,43.1414 ,1.02552 ,1.34591 ,13.20612 
237 ,43.3177 ,1.02723 ,1.31854 ,12.93749 
238 ,43.5097 ,1.02919 ,1.31854 ,12.93749 
239 ,43.6858 ,1.03091 ,1.31512 ,12.90391 
240 ,43.8619 ,1.03268 ,1.28432 ,12.60171 
241 ,44.0536 ,1.03459 ,1.26720 ,12.43381 
242 ,44.2299 ,1.03631 ,1.26378 ,12.40024 
243 ,44.4059 ,1.03813 ,1.26036 ,12.36666 
244 ,44.5982 ,1.04000 ,1.21929 ,11.96372 
245 ,44.7899 ,1.04198 ,1.21245 ,11.89656 
246 ,44.9662 ,1.04371 ,1.20903 ,11.86298 
247 ,45.1583 ,1.04567 ,1.18507 ,11.62794 
248 ,45.3505 ,1.04756 ,1.17481 ,11.52720 
249 ,45.5261 ,1.04932 ,1.16796 ,11.46004 
250 ,45.7026 ,1.05104 ,1.15427 ,11.32573 
251 ,45.8785 ,1.05288 ,1.13374 ,11.12426 
252 ,46.0708 ,1.05475 ,1.12347 ,11.02353 
253 ,46.2788 ,1.05679 ,1.09610 ,10.75490 
254 ,46.4548 ,1.05861 ,1.08241 ,10.62059 
255 ,46.6310 ,1.06037 ,1.08241 ,10.62059 
256 ,46.8230 ,1.06227 ,1.06872 ,10.48627 
257 ,46.9991 ,1.06405 ,1.04134 ,10.21765 
258 ,47.1751 ,1.06582 ,1.03450 ,10.15049 
259 ,47.3516 ,1.06757 ,1.01739 ,9.98260 
260 ,47.5432 ,1.06953 ,1.01739 ,9.98260 
261 ,47.7195 ,1.07127 ,1.00712 ,9.88186 
262 ,47.8953 ,1.07304 ,0.97974 ,9.61324 
263 ,48.0870 ,1.07492 ,0.97290 ,9.54608 
264 ,48.2631 ,1.07665 ,0.96605 ,9.47892 
265 ,48.4394 ,1.07843 ,0.94210 ,9.24388 
266 ,48.6795 ,1.08070 ,0.91814 ,9.00883 
267 ,48.8558 ,1.08257 ,0.90103 ,8.84094 
268 ,49.0318 ,1.08436 ,0.89077 ,8.74020 
269 ,49.2242 ,1.08624 ,0.88392 ,8.67305 
270 ,49.4001 ,1.08808 ,0.88392 ,8.67305 
271 ,49.5762 ,1.08977 ,0.83943 ,8.23653 
272 ,49.7523 ,1.09156 ,0.83601 ,8.20295 
273 ,49.9283 ,1.09336 ,0.83601 ,8.20295 
274 ,50.1200 ,1.09521 ,0.80863 ,7.93432 
275 ,50.2965 ,1.09703 ,0.79837 ,7.83359 
276 ,50.5047 ,1.09906 ,0.79152 ,7.76643 
277 ,50.6966 ,1.10098 ,0.77784 ,7.63212 
278 ,50.8728 ,1.10280 ,0.75046 ,7.36349 
279 ,51.0649 ,1.10464 ,0.76072 ,7.46423 
280 ,51.2409 ,1.10645 ,0.73677 ,7.22918 
281 ,51.4168 ,1.10817 ,0.70597 ,6.92697 
282 ,51.5931 ,1.10997 ,0.69913 ,6.85982 
283 ,51.7851 ,1.11191 ,0.70255 ,6.89340 
284 ,51.9612 ,1.11366 ,0.68886 ,6.75908 
285 ,52.1371 ,1.11539 ,0.67859 ,6.65835 
286 ,52.3132 ,1.11719 ,0.65121 ,6.38972 
287 ,52.4894 ,1.11892 ,0.64779 ,6.35614 
288 ,52.6654 ,1.12070 ,0.63753 ,6.25541 
289 ,52.8416 ,1.12248 ,0.63068 ,6.18825 
290 ,53.0177 ,1.12417 ,0.60330 ,5.91962 
291 ,53.1938 ,1.12601 ,0.57935 ,5.68458 
292 ,53.3698 ,1.12775 ,0.58277 ,5.71815 
293 ,53.5459 ,1.12949 ,0.58277 ,5.71815 
294 ,53.7379 ,1.13137 ,0.55197 ,5.41595 
295 ,53.9138 ,1.13319 ,0.53828 ,5.28164 
296 ,54.1060 ,1.13506 ,0.54513 ,5.34879 
297 ,54.2983 ,1.13702 ,0.52117 ,5.11375 
298 ,54.4902 ,1.13893 ,0.51091 ,5.01301 
299 ,54.6662 ,1.14070 ,0.50064 ,4.91228 
300 ,54.8743 ,1.14269 ,0.49722 ,4.87870 
301 ,55.0665 ,1.14472 ,0.47326 ,4.64365 
302 ,55.2584 ,1.14659 ,0.46300 ,4.54291 
303 ,55.4504 ,1.14854 ,0.44246 ,4.34144 
304 ,55.6266 ,1.15029 ,0.43220 ,4.24071 
305 ,55.8027 ,1.15202 ,0.43220 ,4.24071 
306 ,55.9787 ,1.15379 ,0.41851 ,4.10640 
307 ,56.1709 ,1.15571 ,0.38771 ,3.80419 
308 ,56.3471 ,1.15746 ,0.39113 ,3.83777 
309 ,56.5231 ,1.15922 ,0.37402 ,3.66988 
310 ,56.6991 ,1.16102 ,0.36033 ,3.53557 
311 ,56.8751 ,1.16275 ,0.33638 ,3.30052 
312 ,57.0513 ,1.16449 ,0.32269 ,3.16620 
313 ,57.2274 ,1.16625 ,0.32611 ,3.19978 
314 ,57.4194 ,1.16813 ,0.31926 ,3.13263 
315 ,57.6275 ,1.17024 ,0.28504 ,2.79684 
316 ,57.8196 ,1.17220 ,0.28504 ,2.79684 
317 ,58.0116 ,1.17415 ,0.26109 ,2.56179 
318 ,58.1878 ,1.17593 ,0.24740 ,2.42748 
319 ,58.3958 ,1.17797 ,0.22344 ,2.19243 
320 ,58.5719 ,1.17972 ,0.22002 ,2.15885 
321 ,58.7481 ,1.18151 ,0.20633 ,2.02454 
322 ,58.9399 ,1.18342 ,0.21318 ,2.09170 
323 ,59.1160 ,1.18515 ,0.18580 ,1.82307 
324 ,59.2923 ,1.18695 ,0.18580 ,1.82307 
325 ,59.4682 ,1.18871 ,0.15842 ,1.55445 
326 ,59.6602 ,1.19052 ,0.15842 ,1.55445 
327 ,59.8527 ,1.19251 ,0.13789 ,1.35298 
328 ,60.0446 ,1.19447 ,0.13789 ,1.35298 
329 ,60.2365 ,1.19629 ,0.11051 ,1.08435 
330 ,60.4126 ,1.19815 ,0.09682 ,0.95004 
331 ,60.5887 ,1.19990 ,0.07971 ,0.78214 
332 ,60.7644 ,1.20161 ,0.08656 ,0.84930 
333 ,60.9407 ,1.20340 ,0.08656 ,0.84930 
334 ,61.1169 ,1.20515 ,0.06260 ,0.61425 
335 ,61.2930 ,1.20696 ,0.04891 ,0.47994 
336 ,61.4850 ,1.20875 ,0.05234 ,0.51352 
337 ,61.6611 ,1.21063 ,0.02496 ,0.24489 
338 ,61.8368 ,1.21237 ,0.02496 ,0.24489 
339 ,62.0133 ,1.21414 ,0.00443 ,0.04342 
340 ,62.2051 ,1.21610 ,-0.00584 ,-0.05731 
341 ,62.3812 ,1.21783 ,-0.01611 ,-0.15805 
342 ,62.5732 ,1.21971 ,-0.03322 ,-0.32594 
343 ,62.7495 ,1.22149 ,-0.05717 ,-0.56099 
344 ,62.9252 ,1.22322 ,-0.04691 ,-0.46025 
345 ,63.1017 ,1.22503 ,-0.06744 ,-0.66172 
346 ,63.2776 ,1.22682 ,-0.07428 ,-0.72888 
347 ,63.4698 ,1.22866 ,-0.08797 ,-0.86319 
348 ,63.6618 ,1.23061 ,-0.09140 ,-0.89677 
349 ,63.8380 ,1.23239 ,-0.10166 ,-0.99751 
350 ,64.0299 ,1.23426 ,-0.13246 ,-1.29971 
351 ,64.2221 ,1.23615 ,-0.12562 ,-1.23255 
352 ,64.3981 ,1.23800 ,-0.12904 ,-1.26613 
353 ,64.5739 ,1.23977 ,-0.15642 ,-1.53476 
354 ,64.7502 ,1.24147 ,-0.18037 ,-1.76981 
355 ,64.9263 ,1.24321 ,-0.17353 ,-1.70265 
356 ,65.1024 ,1.24502 ,-0.18037 ,-1.76981 
357 ,65.2944 ,1.24692 ,-0.19064 ,-1.87054 
358 ,65.4865 ,1.24880 ,-0.20775 ,-2.03843 
359 ,65.6626 ,1.25063 ,-0.21459 ,-2.10559 
360 ,65.8549 ,1.25251 ,-0.23855 ,-2.34064 
361 ,66.0308 ,1.25433 ,-0.24197 ,-2.37422 
362 ,66.2390 ,1.25622 ,-0.23513 ,-2.30706 
363 ,66.4309 ,1.25828 ,-0.26593 ,-2.60926 
364 ,66.6070 ,1.26001 ,-0.27277 ,-2.67642 
365 ,66.7991 ,1.26198 ,-0.27619 ,-2.71000 
366 ,66.9753 ,1.26377 ,-0.30015 ,-2.94505 
367 ,67.1509 ,1.26564 ,-0.30357 ,-2.97863 
368 ,67.3274 ,1.26724 ,-0.32752 ,-3.21367 
369 ,67.5196 ,1.26918 ,-0.31384 ,-3.07936 
370 ,67.7116 ,1.27112 ,-0.34121 ,-3.34799 
371 ,67.9038 ,1.27303 ,-0.34464 ,-3.38156 
372 ,68.0798 ,1.27476 ,-0.35148 ,-3.44872 
373 ,68.2560 ,1.27656 ,-0.34121 ,-3.34799 
374 ,68.4320 ,1.27828 ,-0.37201 ,-3.65019 
375 ,68.6239 ,1.28011 ,-0.37886 ,-3.71735 
376 ,68.8001 ,1.28201 ,-0.38912 ,-3.81808 
377 ,68.9922 ,1.28387 ,-0.40623 ,-3.98597 
378 ,69.1683 ,1.28571 ,-0.41992 ,-4.12029 
379 ,69.3441 ,1.28755 ,-0.41650 ,-4.08671 
380 ,69.5362 ,1.28930 ,-0.43361 ,-4.25460 
381 ,69.7124 ,1.29113 ,-0.43703 ,-4.28818 
382 ,69.8884 ,1.29287 ,-0.46099 ,-4.52323 
383 ,70.0806 ,1.29476 ,-0.46099 ,-4.52323 
384 ,70.2566 ,1.29658 ,-0.45414 ,-4.45607 
385 ,70.4328 ,1.29829 ,-0.47468 ,-4.65754 
386 ,70.6248 ,1.30021 ,-0.49863 ,-4.89259 
387 ,70.8009 ,1.30199 ,-0.49179 ,-4.82543 
388 ,70.9930 ,1.30392 ,-0.51232 ,-5.02690 
389 ,71.1849 ,1.30580 ,-0.52943 ,-5.19479 
390 ,71.3608 ,1.30756 ,-0.52601 ,-5.16121 
391 ,71.5370 ,1.30940 ,-0.53628 ,-5.26195 
392 ,71.7129 ,1.31112 ,-0.55339 ,-5.42984 
393 ,71.8893 ,1.31285 ,-0.57392 ,-5.63131 
394 ,72.0653 ,1.31460 ,-0.59103 ,-5.79920 
395 ,72.2414 ,1.31636 ,-0.58419 ,-5.73205 
396 ,72.4333 ,1.31821 ,-0.58419 ,-5.73205 
397 ,72.6254 ,1.32020 ,-0.61156 ,-6.00067 
398 ,72.8177 ,1.32215 ,-0.61499 ,-6.03425 
399 ,73.0096 ,1.32397 ,-0.61499 ,-6.03425 
400 ,73.2018 ,1.32598 ,-0.63552 ,-6.23572 
401 ,73.3777 ,1.32776 ,-0.63552 ,-6.23572 
402 ,73.5538 ,1.32950 ,-0.64921 ,-6.37003 
403 ,73.7301 ,1.33124 ,-0.68001 ,-6.67224 
404 ,73.9061 ,1.33302 ,-0.68343 ,-6.70582 
405 ,74.0822 ,1.33479 ,-0.68685 ,-6.73940 
406 ,74.2583 ,1.33654 ,-0.67659 ,-6.63866 
407 ,74.4342 ,1.33828 ,-0.69712 ,-6.84013 
408 ,74.6100 ,1.34000 ,-0.71423 ,-7.00802 
409 ,74.7866 ,1.34184 ,-0.71765 ,-7.04160 
410 ,74.9625 ,1.34359 ,-0.74503 ,-7.31023 
411 ,75.1385 ,1.34537 ,-0.72792 ,-7.14233 
412 ,75.3307 ,1.34726 ,-0.75187 ,-7.37738 
413 ,75.5389 ,1.34932 ,-0.75187 ,-7.37738 
414 ,75.7146 ,1.35107 ,-0.76214 ,-7.47812 
415 ,75.8909 ,1.35285 ,-0.76898 ,-7.54527 
416 ,76.0669 ,1.35458 ,-0.79636 ,-7.81390 
417 ,76.2591 ,1.35656 ,-0.79978 ,-7.84748 
418 ,76.4352 ,1.35831 ,-0.79294 ,-7.78032 
419 ,76.6272 ,1.36015 ,-0.83058 ,-8.14968 
420 ,76.8034 ,1.36197 ,-0.84427 ,-8.28400 
421 ,76.9794 ,1.36375 ,-0.84085 ,-8.25042 
422 ,77.1553 ,1.36547 ,-0.83401 ,-8.18326 
423 ,77.3312 ,1.36727 ,-0.84769 ,-8.31758 
424 ,77.5075 ,1.36899 ,-0.87849 ,-8.61978 
425 ,77.6998 ,1.37092 ,-0.86823 ,-8.51904 
426 ,77.8918 ,1.37283 ,-0.87507 ,-8.58620 
427 ,78.0835 ,1.37471 ,-0.90245 ,-8.85483 
428 ,78.2599 ,1.37656 ,-0.90245 ,-8.85483 
429 ,78.4360 ,1.37828 ,-0.90587 ,-8.88841 
430 ,78.6441 ,1.38028 ,-0.91614 ,-8.98914 
431 ,78.8198 ,1.38220 ,-0.92298 ,-9.05630 
432 ,78.9962 ,1.38388 ,-0.92983 ,-9.12345 
433 ,79.1882 ,1.38582 ,-0.95378 ,-9.35850 
434 ,79.3641 ,1.38756 ,-0.97089 ,-9.52639 
435 ,79.5401 ,1.38936 ,-0.98116 ,-9.62713 
436 ,79.7164 ,1.39108 ,-0.96747 ,-9.49282 
437 ,79.8925 ,1.39283 ,-0.97089 ,-9.52639 
438 ,80.0683 ,1.39462 ,-0.98800 ,-9.69429 
439 ,80.2446 ,1.39638 ,-0.99827 ,-9.79502 
440 ,80.4208 ,1.39815 ,-1.01880 ,-9.99649 
441 ,80.5968 ,1.39992 ,-1.02222 ,-10.03007 
442 ,80.7889 ,1.40183 ,-1.02565 ,-10.06365 
443 ,80.9487 ,1.40351 ,-1.03591 ,-10.16438 
444 ,81.1248 ,1.40516 ,-1.03934 ,-10.19796 
445 ,81.3009 ,1.40694 ,-1.05302 ,-10.33227 
446 ,81.4770 ,1.40868 ,-1.05645 ,-10.36585 
447 ,81.6534 ,1.41049 ,-1.06329 ,-10.43301 
448 ,81.8455 ,1.41240 ,-1.08040 ,-10.60090 
449 ,82.0213 ,1.41412 ,-1.09751 ,-10.76879 
450 ,82.1975 ,1.41591 ,-1.09409 ,-10.73521 
451 ,82.3736 ,1.41769 ,-1.09751 ,-10.76879 
452 ,82.5657 ,1.41954 ,-1.12147 ,-11.00384 
453 ,82.7579 ,1.42145 ,-1.12831 ,-11.07100 
454 ,82.9658 ,1.42348 ,-1.12489 ,-11.03742 
455 ,83.1416 ,1.42531 ,-1.14884 ,-11.27247 
456 ,83.3336 ,1.42721 ,-1.13516 ,-11.13815 
457 ,83.5261 ,1.42906 ,-1.14884 ,-11.27247 
458 ,83.7021 ,1.43093 ,-1.17622 ,-11.54109 
459 ,83.8941 ,1.43278 ,-1.18991 ,-11.67541 
460 ,84.0860 ,1.43476 ,-1.18649 ,-11.64183 
461 ,84.2624 ,1.43657 ,-1.19333 ,-11.70898 
