Data stamp = , 05-04-2022 04:46:36 453

Calibration Values: 
Slope = , 26.54 , g/V 
Offset Voltage at no contact = , -0.501760 , V 

No , Time , Stage Position ,   Mass , Force 
   ,  (s) ,      (mm)      ,   (g)  , (mN)  

1 ,0.0000 ,0.59949 ,4.92550 ,48.32902 
2 ,0.2172 ,0.59958 ,4.94261 ,48.49691 
3 ,0.5532 ,0.60047 ,4.93919 ,48.46333 
4 ,0.7614 ,0.60209 ,4.95630 ,48.63122 
5 ,0.9534 ,0.60384 ,4.92550 ,48.32902 
6 ,1.1616 ,0.60583 ,4.94946 ,48.56407 
7 ,1.3535 ,0.60777 ,4.94946 ,48.56407 
8 ,1.5297 ,0.60948 ,4.94603 ,48.53049 
9 ,1.7056 ,0.61134 ,4.95288 ,48.59764 
10 ,1.8818 ,0.61309 ,4.93577 ,48.42975 
11 ,2.0900 ,0.61509 ,4.91866 ,48.26186 
12 ,2.2658 ,0.61688 ,4.91181 ,48.19471 
13 ,2.4577 ,0.61876 ,4.90497 ,48.12755 
14 ,2.6340 ,0.62061 ,4.88786 ,47.95966 
15 ,2.8260 ,0.62252 ,4.88101 ,47.89250 
16 ,3.0023 ,0.62423 ,4.86390 ,47.72461 
17 ,3.2104 ,0.62620 ,4.84337 ,47.52314 
18 ,3.4024 ,0.62825 ,4.84679 ,47.55672 
19 ,3.5781 ,0.63006 ,4.82968 ,47.38883 
20 ,3.7545 ,0.63182 ,4.80230 ,47.12020 
21 ,3.9627 ,0.63388 ,4.80230 ,47.12020 
22 ,4.1706 ,0.63598 ,4.76808 ,46.78442 
23 ,4.3468 ,0.63768 ,4.76124 ,46.71726 
24 ,4.5388 ,0.63956 ,4.73728 ,46.48221 
25 ,4.7146 ,0.64144 ,4.71675 ,46.28074 
26 ,4.8910 ,0.64315 ,4.69964 ,46.11285 
27 ,5.0670 ,0.64495 ,4.69279 ,46.04569 
28 ,5.2590 ,0.64688 ,4.67568 ,45.87780 
29 ,5.4510 ,0.64873 ,4.64488 ,45.57560 
30 ,5.6431 ,0.65064 ,4.64146 ,45.54202 
31 ,5.8196 ,0.65249 ,4.62777 ,45.40771 
32 ,6.0113 ,0.65438 ,4.58671 ,45.00477 
33 ,6.2035 ,0.65624 ,4.58671 ,45.00477 
34 ,6.3795 ,0.65804 ,4.57644 ,44.90403 
35 ,6.5554 ,0.65978 ,4.53195 ,44.46751 
36 ,6.7634 ,0.66186 ,4.53195 ,44.46751 
37 ,6.9399 ,0.66364 ,4.51484 ,44.29962 
38 ,7.1319 ,0.66553 ,4.48404 ,43.99742 
39 ,7.3080 ,0.66734 ,4.45666 ,43.72879 
40 ,7.4842 ,0.66909 ,4.44982 ,43.66163 
41 ,7.6601 ,0.67088 ,4.43271 ,43.49374 
42 ,7.8359 ,0.67259 ,4.41902 ,43.35943 
43 ,8.0283 ,0.67445 ,4.38480 ,43.02365 
44 ,8.2205 ,0.67645 ,4.38138 ,42.99007 
45 ,8.3963 ,0.67822 ,4.35742 ,42.75502 
46 ,8.5725 ,0.67996 ,4.33689 ,42.55355 
47 ,8.7644 ,0.68187 ,4.33347 ,42.51997 
48 ,8.9242 ,0.68358 ,4.32320 ,42.41924 
49 ,9.1168 ,0.68533 ,4.30951 ,42.28492 
50 ,9.3247 ,0.68747 ,4.27187 ,41.91556 
51 ,9.5008 ,0.68923 ,4.27529 ,41.94914 
52 ,9.6929 ,0.69110 ,4.24791 ,41.68051 
53 ,9.8690 ,0.69292 ,4.22396 ,41.44547 
54 ,10.0449 ,0.69466 ,4.21711 ,41.37831 
55 ,10.2212 ,0.69642 ,4.20685 ,41.27758 
56 ,10.4132 ,0.69830 ,4.16920 ,40.90821 
57 ,10.5893 ,0.70015 ,4.15209 ,40.74032 
58 ,10.7814 ,0.70205 ,4.15551 ,40.77390 
59 ,10.9574 ,0.70385 ,4.14525 ,40.67317 
60 ,11.1335 ,0.70562 ,4.10418 ,40.27023 
61 ,11.3253 ,0.70742 ,4.10418 ,40.27023 
62 ,11.5974 ,0.70973 ,4.09391 ,40.16949 
63 ,11.7897 ,0.71202 ,4.05285 ,39.76655 
64 ,11.9819 ,0.71409 ,4.05627 ,39.80013 
65 ,12.1738 ,0.71591 ,4.01863 ,39.43077 
66 ,12.3500 ,0.71772 ,4.00494 ,39.29646 
67 ,12.5261 ,0.71954 ,3.99467 ,39.19572 
68 ,12.7179 ,0.72142 ,3.97414 ,38.99425 
69 ,12.8942 ,0.72315 ,3.95018 ,38.75920 
70 ,13.0703 ,0.72493 ,3.93650 ,38.62489 
71 ,13.2623 ,0.72691 ,3.93307 ,38.59131 
72 ,13.4225 ,0.72857 ,3.91596 ,38.42342 
73 ,13.5985 ,0.73022 ,3.89885 ,38.25553 
74 ,13.7749 ,0.73193 ,3.88174 ,38.08764 
75 ,13.9507 ,0.73376 ,3.85094 ,37.78543 
76 ,14.1265 ,0.73545 ,3.84752 ,37.75185 
77 ,14.3029 ,0.73723 ,3.83383 ,37.61754 
78 ,14.4945 ,0.73917 ,3.83041 ,37.58396 
79 ,14.6870 ,0.74096 ,3.78934 ,37.18102 
80 ,14.8630 ,0.74284 ,3.78592 ,37.14744 
81 ,15.0554 ,0.74474 ,3.75854 ,36.87882 
82 ,15.2469 ,0.74669 ,3.73801 ,36.67735 
83 ,15.4233 ,0.74843 ,3.71748 ,36.47588 
84 ,15.6473 ,0.75052 ,3.71405 ,36.44230 
85 ,15.8396 ,0.75249 ,3.69352 ,36.24083 
86 ,16.0156 ,0.75439 ,3.69010 ,36.20725 
87 ,16.1917 ,0.75615 ,3.65930 ,35.90505 
88 ,16.3513 ,0.75784 ,3.63192 ,35.63642 
89 ,16.5280 ,0.75946 ,3.61823 ,35.50211 
90 ,16.7197 ,0.76144 ,3.62850 ,35.60284 
91 ,16.8960 ,0.76315 ,3.59770 ,35.30064 
92 ,17.0880 ,0.76500 ,3.57717 ,35.09917 
93 ,17.2802 ,0.76688 ,3.55663 ,34.89770 
94 ,17.4557 ,0.76880 ,3.55663 ,34.89770 
95 ,17.6643 ,0.77071 ,3.52926 ,34.62907 
96 ,17.8564 ,0.77277 ,3.51899 ,34.52834 
97 ,18.0484 ,0.77471 ,3.48477 ,34.19255 
98 ,18.2246 ,0.77643 ,3.47450 ,34.09182 
99 ,18.4006 ,0.77822 ,3.46424 ,33.99108 
100 ,18.5926 ,0.78010 ,3.44713 ,33.82319 
101 ,18.7845 ,0.78204 ,3.40948 ,33.45383 
102 ,18.9768 ,0.78387 ,3.41633 ,33.52099 
103 ,19.1526 ,0.78575 ,3.39579 ,33.31952 
104 ,19.3288 ,0.78752 ,3.36842 ,33.05089 
105 ,19.5046 ,0.78934 ,3.36842 ,33.05089 
106 ,19.6811 ,0.79102 ,3.34788 ,32.84942 
107 ,19.8571 ,0.79272 ,3.34104 ,32.78227 
108 ,20.0332 ,0.79450 ,3.32393 ,32.61437 
109 ,20.2092 ,0.79629 ,3.28628 ,32.24501 
110 ,20.3852 ,0.79808 ,3.26575 ,32.04354 
111 ,20.5611 ,0.79979 ,3.26233 ,32.00996 
112 ,20.7373 ,0.80155 ,3.25548 ,31.94281 
113 ,20.9296 ,0.80349 ,3.23153 ,31.70776 
114 ,21.1057 ,0.80526 ,3.20757 ,31.47271 
115 ,21.2817 ,0.80702 ,3.20073 ,31.40555 
116 ,21.4733 ,0.80884 ,3.19046 ,31.30482 
117 ,21.6494 ,0.81068 ,3.16309 ,31.03619 
118 ,21.8256 ,0.81243 ,3.14255 ,30.83472 
119 ,22.0500 ,0.81472 ,3.11860 ,30.59968 
120 ,22.2419 ,0.81665 ,3.10491 ,30.46536 
121 ,22.4181 ,0.81837 ,3.10149 ,30.43178 
122 ,22.6101 ,0.82021 ,3.07411 ,30.16316 
123 ,22.7862 ,0.82200 ,3.06384 ,30.06242 
124 ,22.9783 ,0.82388 ,3.04673 ,29.89453 
125 ,23.1704 ,0.82589 ,3.03304 ,29.76022 
126 ,23.3305 ,0.82763 ,3.00567 ,29.49159 
127 ,23.5061 ,0.82931 ,3.00909 ,29.52517 
128 ,23.6823 ,0.83100 ,2.98855 ,29.32370 
129 ,23.8586 ,0.83280 ,2.97829 ,29.22297 
130 ,24.0669 ,0.83477 ,2.95776 ,29.02150 
131 ,24.2745 ,0.83687 ,2.94749 ,28.92076 
132 ,24.4510 ,0.83871 ,2.92011 ,28.65213 
133 ,24.6273 ,0.84041 ,2.89273 ,28.38351 
134 ,24.8027 ,0.84228 ,2.90300 ,28.48424 
135 ,24.9790 ,0.84398 ,2.87562 ,28.21562 
136 ,25.1713 ,0.84588 ,2.85509 ,28.01415 
137 ,25.3472 ,0.84764 ,2.82771 ,27.74552 
138 ,25.5233 ,0.84939 ,2.80376 ,27.51047 
139 ,25.6993 ,0.85115 ,2.81402 ,27.61121 
140 ,25.8592 ,0.85287 ,2.80034 ,27.47689 
141 ,26.0355 ,0.85454 ,2.79007 ,27.37616 
142 ,26.2437 ,0.85655 ,2.75927 ,27.07395 
143 ,26.4359 ,0.85853 ,2.75927 ,27.07395 
144 ,26.6281 ,0.86048 ,2.72163 ,26.70459 
145 ,26.8199 ,0.86239 ,2.72505 ,26.73817 
146 ,26.9959 ,0.86407 ,2.69767 ,26.46954 
147 ,27.1880 ,0.86596 ,2.66345 ,26.13376 
148 ,27.3642 ,0.86780 ,2.63607 ,25.86514 
149 ,27.5403 ,0.86955 ,2.64634 ,25.96587 
150 ,27.7324 ,0.87141 ,2.62581 ,25.76440 
151 ,27.9084 ,0.87328 ,2.61212 ,25.63009 
152 ,28.1005 ,0.87517 ,2.59501 ,25.46220 
153 ,28.2764 ,0.87692 ,2.59158 ,25.42862 
154 ,28.4686 ,0.87878 ,2.55394 ,25.05926 
155 ,28.6448 ,0.88058 ,2.55394 ,25.05926 
156 ,28.8212 ,0.88240 ,2.52998 ,24.82421 
157 ,29.0127 ,0.88427 ,2.52998 ,24.82421 
158 ,29.1888 ,0.88608 ,2.50603 ,24.58916 
159 ,29.3810 ,0.88793 ,2.49234 ,24.45485 
160 ,29.5570 ,0.88971 ,2.47865 ,24.32053 
161 ,29.7493 ,0.89166 ,2.45812 ,24.11906 
162 ,29.9412 ,0.89348 ,2.43074 ,23.85044 
163 ,30.1169 ,0.89545 ,2.43074 ,23.85044 
164 ,30.2934 ,0.89708 ,2.42390 ,23.78328 
165 ,30.4696 ,0.89886 ,2.38283 ,23.38034 
166 ,30.6455 ,0.90062 ,2.36914 ,23.24603 
167 ,30.8218 ,0.90239 ,2.36230 ,23.17887 
168 ,31.0298 ,0.90443 ,2.34861 ,23.04456 
169 ,31.1897 ,0.90618 ,2.33150 ,22.87667 
170 ,31.3658 ,0.90778 ,2.31781 ,22.74235 
171 ,31.5578 ,0.90969 ,2.29728 ,22.54088 
172 ,31.7340 ,0.91147 ,2.29385 ,22.50731 
173 ,31.9260 ,0.91333 ,2.26648 ,22.23868 
174 ,32.1177 ,0.91537 ,2.25963 ,22.17152 
175 ,32.2937 ,0.91707 ,2.23910 ,21.97005 
176 ,32.4703 ,0.91886 ,2.23568 ,21.93647 
177 ,32.6784 ,0.92094 ,2.20488 ,21.63427 
178 ,32.8703 ,0.92292 ,2.18092 ,21.39922 
179 ,33.0461 ,0.92454 ,2.17408 ,21.33206 
180 ,33.2227 ,0.92639 ,2.15697 ,21.16417 
181 ,33.4144 ,0.92823 ,2.15012 ,21.09702 
182 ,33.6067 ,0.93017 ,2.12275 ,20.82839 
183 ,33.7986 ,0.93218 ,2.10221 ,20.62692 
184 ,33.9748 ,0.93389 ,2.10221 ,20.62692 
185 ,34.1668 ,0.93575 ,2.08168 ,20.42545 
186 ,34.3426 ,0.93753 ,2.04746 ,20.08967 
187 ,34.5191 ,0.93938 ,2.04061 ,20.02251 
188 ,34.7271 ,0.94132 ,2.02350 ,19.85462 
189 ,34.9032 ,0.94313 ,2.01324 ,19.75388 
190 ,35.0793 ,0.94496 ,1.99955 ,19.61957 
191 ,35.2553 ,0.94667 ,1.98928 ,19.51884 
192 ,35.4314 ,0.94843 ,1.98244 ,19.45168 
193 ,35.6075 ,0.95017 ,1.96190 ,19.25021 
194 ,35.7996 ,0.95209 ,1.94137 ,19.04874 
195 ,35.9916 ,0.95406 ,1.93795 ,19.01516 
196 ,36.1678 ,0.95584 ,1.92084 ,18.84727 
197 ,36.3439 ,0.95760 ,1.89688 ,18.61222 
198 ,36.5358 ,0.95939 ,1.88319 ,18.47791 
199 ,36.7281 ,0.96146 ,1.86608 ,18.31002 
200 ,36.9200 ,0.96334 ,1.84213 ,18.07497 
201 ,37.0959 ,0.96506 ,1.83528 ,18.00781 
202 ,37.2719 ,0.96687 ,1.81817 ,17.83992 
203 ,37.4642 ,0.96876 ,1.80791 ,17.73919 
204 ,37.6561 ,0.97062 ,1.79080 ,17.57129 
205 ,37.8480 ,0.97260 ,1.77711 ,17.43698 
206 ,38.0245 ,0.97438 ,1.75315 ,17.20193 
207 ,38.2006 ,0.97614 ,1.73946 ,17.06762 
208 ,38.3765 ,0.97789 ,1.71893 ,16.86615 
209 ,38.5524 ,0.97961 ,1.73262 ,17.00046 
210 ,38.7287 ,0.98145 ,1.71209 ,16.79899 
211 ,38.9208 ,0.98334 ,1.67444 ,16.42963 
212 ,39.0968 ,0.98507 ,1.65733 ,16.26174 
213 ,39.2730 ,0.98684 ,1.65049 ,16.19458 
214 ,39.4811 ,0.98889 ,1.61969 ,15.89238 
215 ,39.6731 ,0.99080 ,1.61969 ,15.89238 
216 ,39.8493 ,0.99261 ,1.61627 ,15.85880 
217 ,40.0413 ,0.99448 ,1.58889 ,15.59018 
218 ,40.2493 ,0.99643 ,1.58889 ,15.59018 
219 ,40.4414 ,0.99845 ,1.55467 ,15.25439 
220 ,40.6335 ,1.00042 ,1.53756 ,15.08650 
221 ,40.8096 ,1.00219 ,1.53071 ,15.01934 
222 ,40.9857 ,1.00398 ,1.53071 ,15.01934 
223 ,41.1938 ,1.00601 ,1.51702 ,14.88503 
224 ,41.3857 ,1.00784 ,1.48622 ,14.58283 
225 ,41.5618 ,1.00974 ,1.46569 ,14.38136 
226 ,41.7377 ,1.01149 ,1.45542 ,14.28062 
227 ,41.9137 ,1.01325 ,1.42805 ,14.01199 
228 ,42.0902 ,1.01503 ,1.42462 ,13.97842 
229 ,42.2980 ,1.01701 ,1.40751 ,13.81053 
230 ,42.4743 ,1.01885 ,1.38356 ,13.57548 
231 ,42.6503 ,1.02060 ,1.39383 ,13.67621 
232 ,42.8261 ,1.02233 ,1.37329 ,13.47474 
233 ,43.0025 ,1.02411 ,1.34591 ,13.20612 
234 ,43.1625 ,1.02583 ,1.32538 ,13.00465 
235 ,43.3386 ,1.02746 ,1.31854 ,12.93749 
236 ,43.5145 ,1.02927 ,1.31169 ,12.87033 
237 ,43.6904 ,1.03099 ,1.30485 ,12.80318 
238 ,43.8823 ,1.03285 ,1.29116 ,12.66886 
239 ,44.0584 ,1.03465 ,1.27405 ,12.50097 
240 ,44.2348 ,1.03650 ,1.24667 ,12.23235 
241 ,44.4270 ,1.03835 ,1.25694 ,12.33308 
242 ,44.6190 ,1.04029 ,1.22956 ,12.06445 
243 ,44.8113 ,1.04224 ,1.21929 ,11.96372 
244 ,45.0029 ,1.04408 ,1.20903 ,11.86298 
245 ,45.1793 ,1.04590 ,1.18165 ,11.59436 
246 ,45.3553 ,1.04760 ,1.16112 ,11.39289 
247 ,45.5316 ,1.04941 ,1.17481 ,11.52720 
248 ,45.7236 ,1.05135 ,1.14401 ,11.22500 
249 ,45.9156 ,1.05320 ,1.11663 ,10.95637 
250 ,46.0917 ,1.05498 ,1.11321 ,10.92279 
251 ,46.2679 ,1.05676 ,1.11321 ,10.92279 
252 ,46.4439 ,1.05855 ,1.09610 ,10.75490 
253 ,46.6358 ,1.06036 ,1.08241 ,10.62059 
254 ,46.8282 ,1.06241 ,1.06872 ,10.48627 
255 ,47.0042 ,1.06413 ,1.05161 ,10.31838 
256 ,47.1802 ,1.06590 ,1.03792 ,10.18407 
257 ,47.3723 ,1.06782 ,1.02423 ,10.04976 
258 ,47.5482 ,1.06957 ,1.01054 ,9.91544 
259 ,47.7245 ,1.07133 ,1.00370 ,9.84829 
260 ,47.9327 ,1.07333 ,0.98659 ,9.68039 
261 ,48.1085 ,1.07520 ,0.97290 ,9.54608 
262 ,48.3006 ,1.07703 ,0.94894 ,9.31103 
263 ,48.5086 ,1.07909 ,0.94894 ,9.31103 
264 ,48.6848 ,1.08095 ,0.92841 ,9.10956 
265 ,48.8772 ,1.08280 ,0.89419 ,8.77378 
266 ,49.0529 ,1.08461 ,0.88734 ,8.70662 
267 ,49.2285 ,1.08640 ,0.88050 ,8.63947 
268 ,49.3889 ,1.08809 ,0.87366 ,8.57231 
269 ,49.5650 ,1.08973 ,0.86681 ,8.50515 
270 ,49.7732 ,1.09177 ,0.84628 ,8.30368 
271 ,49.9493 ,1.09358 ,0.83943 ,8.23653 
272 ,50.1253 ,1.09531 ,0.82917 ,8.13579 
273 ,50.3014 ,1.09706 ,0.80863 ,7.93432 
274 ,50.4775 ,1.09884 ,0.77099 ,7.56496 
275 ,50.6536 ,1.10062 ,0.76072 ,7.46423 
276 ,50.8298 ,1.10239 ,0.76757 ,7.53138 
277 ,51.0054 ,1.10411 ,0.76072 ,7.46423 
278 ,51.1815 ,1.10591 ,0.74019 ,7.26276 
279 ,51.3578 ,1.10761 ,0.70255 ,6.89340 
280 ,51.5338 ,1.10939 ,0.70597 ,6.92697 
281 ,51.7259 ,1.11131 ,0.69913 ,6.85982 
282 ,51.9179 ,1.11319 ,0.68544 ,6.72550 
283 ,52.1102 ,1.11507 ,0.66148 ,6.49046 
284 ,52.3022 ,1.11706 ,0.65464 ,6.42330 
285 ,52.5102 ,1.11917 ,0.63753 ,6.25541 
286 ,52.7023 ,1.12108 ,0.62384 ,6.12109 
287 ,52.8624 ,1.12280 ,0.60673 ,5.95320 
288 ,53.0385 ,1.12443 ,0.59988 ,5.88605 
289 ,53.2146 ,1.12622 ,0.58277 ,5.71815 
290 ,53.3907 ,1.12800 ,0.57251 ,5.61742 
291 ,53.5825 ,1.12981 ,0.56908 ,5.58384 
292 ,53.7589 ,1.13170 ,0.54855 ,5.38237 
293 ,53.9347 ,1.13342 ,0.53486 ,5.24806 
294 ,54.1269 ,1.13533 ,0.52802 ,5.18090 
295 ,54.3031 ,1.13710 ,0.51433 ,5.04659 
296 ,54.4948 ,1.13904 ,0.48353 ,4.74438 
297 ,54.6872 ,1.14086 ,0.47326 ,4.64365 
298 ,54.8790 ,1.14287 ,0.47668 ,4.67723 
299 ,55.0551 ,1.14460 ,0.44588 ,4.37502 
300 ,55.2314 ,1.14635 ,0.44246 ,4.34144 
301 ,55.4073 ,1.14809 ,0.43562 ,4.27429 
302 ,55.5992 ,1.15004 ,0.42193 ,4.13997 
303 ,55.7755 ,1.15178 ,0.39455 ,3.87135 
304 ,55.9517 ,1.15357 ,0.38429 ,3.77061 
305 ,56.1438 ,1.15548 ,0.39797 ,3.90493 
306 ,56.3198 ,1.15730 ,0.36718 ,3.60272 
307 ,56.4959 ,1.15903 ,0.36033 ,3.53557 
308 ,56.7037 ,1.16105 ,0.35006 ,3.43483 
309 ,56.8801 ,1.16284 ,0.33638 ,3.30052 
310 ,57.0562 ,1.16460 ,0.30558 ,2.99831 
311 ,57.2482 ,1.16650 ,0.31926 ,3.13263 
312 ,57.4243 ,1.16829 ,0.29873 ,2.93116 
313 ,57.6326 ,1.17026 ,0.28847 ,2.83042 
314 ,57.8085 ,1.17209 ,0.27135 ,2.66253 
315 ,58.0006 ,1.17403 ,0.26451 ,2.59537 
316 ,58.1766 ,1.17578 ,0.24055 ,2.36032 
317 ,58.3688 ,1.17775 ,0.22344 ,2.19243 
318 ,58.5447 ,1.17947 ,0.22687 ,2.22601 
319 ,58.7685 ,1.18160 ,0.20976 ,2.05812 
320 ,58.9450 ,1.18351 ,0.20633 ,2.02454 
321 ,59.1370 ,1.18543 ,0.17896 ,1.75592 
322 ,59.3129 ,1.18718 ,0.17211 ,1.68876 
323 ,59.4892 ,1.18891 ,0.15842 ,1.55445 
324 ,59.6651 ,1.19069 ,0.14816 ,1.45371 
325 ,59.8573 ,1.19263 ,0.14473 ,1.42013 
326 ,60.0333 ,1.19437 ,0.11393 ,1.11793 
327 ,60.2095 ,1.19610 ,0.11051 ,1.08435 
328 ,60.4015 ,1.19802 ,0.10709 ,1.05077 
329 ,60.5777 ,1.19977 ,0.08314 ,0.81572 
330 ,60.7857 ,1.20184 ,0.07971 ,0.78214 
331 ,60.9618 ,1.20362 ,0.07287 ,0.71499 
332 ,61.1379 ,1.20541 ,0.05576 ,0.54710 
333 ,61.3460 ,1.20741 ,0.04207 ,0.41278 
334 ,61.5220 ,1.20928 ,0.03180 ,0.31205 
335 ,61.7141 ,1.21116 ,0.01127 ,0.11058 
336 ,61.9060 ,1.21302 ,0.00443 ,0.04342 
337 ,62.0982 ,1.21499 ,0.00785 ,0.07700 
338 ,62.3065 ,1.21702 ,-0.01953 ,-0.19163 
339 ,62.4985 ,1.21898 ,-0.02637 ,-0.25878 
340 ,62.6747 ,1.22078 ,-0.03664 ,-0.35952 
341 ,62.8827 ,1.22282 ,-0.04348 ,-0.42667 
342 ,63.0907 ,1.22481 ,-0.07086 ,-0.69530 
343 ,63.2828 ,1.22688 ,-0.07428 ,-0.72888 
344 ,63.4745 ,1.22879 ,-0.08455 ,-0.82961 
345 ,63.6510 ,1.23056 ,-0.12219 ,-1.19898 
346 ,63.8430 ,1.23242 ,-0.11535 ,-1.13182 
347 ,64.0192 ,1.23419 ,-0.12562 ,-1.23255 
348 ,64.2111 ,1.23612 ,-0.14615 ,-1.43402 
349 ,64.4033 ,1.23806 ,-0.13931 ,-1.36687 
350 ,64.5794 ,1.23987 ,-0.14273 ,-1.40045 
351 ,64.7873 ,1.24187 ,-0.17011 ,-1.66907 
352 ,64.9634 ,1.24362 ,-0.19064 ,-1.87054 
353 ,65.1232 ,1.24534 ,-0.17695 ,-1.73623 
354 ,65.3155 ,1.24711 ,-0.18379 ,-1.80338 
355 ,65.5076 ,1.24910 ,-0.22144 ,-2.17275 
356 ,65.6837 ,1.25085 ,-0.21802 ,-2.13917 
357 ,65.8758 ,1.25277 ,-0.22144 ,-2.17275 
358 ,66.0519 ,1.25455 ,-0.24881 ,-2.44137 
359 ,66.2440 ,1.25637 ,-0.24539 ,-2.40779 
360 ,66.4197 ,1.25822 ,-0.24881 ,-2.44137 
361 ,66.6118 ,1.26006 ,-0.29330 ,-2.87789 
362 ,66.8038 ,1.26201 ,-0.28304 ,-2.77716 
363 ,66.9798 ,1.26383 ,-0.28646 ,-2.81073 
364 ,67.1398 ,1.26555 ,-0.29673 ,-2.91147 
365 ,67.3161 ,1.26721 ,-0.31384 ,-3.07936 
366 ,67.5405 ,1.26940 ,-0.32752 ,-3.21367 
367 ,67.7326 ,1.27129 ,-0.35490 ,-3.48230 
368 ,67.9087 ,1.27315 ,-0.37544 ,-3.68377 
369 ,68.0847 ,1.27482 ,-0.36859 ,-3.61661 
370 ,68.2767 ,1.27669 ,-0.36859 ,-3.61661 
371 ,68.4529 ,1.27850 ,-0.38570 ,-3.78450 
372 ,68.6291 ,1.28030 ,-0.41650 ,-4.08671 
373 ,68.8211 ,1.28223 ,-0.40966 ,-4.01955 
374 ,68.9970 ,1.28396 ,-0.40966 ,-4.01955 
375 ,69.1893 ,1.28586 ,-0.44388 ,-4.35534 
376 ,69.3810 ,1.28774 ,-0.43361 ,-4.25460 
377 ,69.5573 ,1.28962 ,-0.43019 ,-4.22102 
378 ,69.7494 ,1.29150 ,-0.46783 ,-4.59038 
379 ,69.9253 ,1.29329 ,-0.47810 ,-4.69112 
380 ,70.1016 ,1.29501 ,-0.47126 ,-4.62396 
381 ,70.2776 ,1.29676 ,-0.49521 ,-4.85901 
382 ,70.4534 ,1.29852 ,-0.49179 ,-4.82543 
383 ,70.6300 ,1.30033 ,-0.50890 ,-4.99332 
384 ,70.8058 ,1.30205 ,-0.52259 ,-5.12764 
385 ,70.9980 ,1.30390 ,-0.51232 ,-5.02690 
386 ,71.1739 ,1.30574 ,-0.52943 ,-5.19479 
387 ,71.3500 ,1.30746 ,-0.54997 ,-5.39626 
388 ,71.5257 ,1.30924 ,-0.56365 ,-5.53058 
389 ,71.7181 ,1.31117 ,-0.55339 ,-5.42984 
390 ,71.9101 ,1.31310 ,-0.57392 ,-5.63131 
391 ,72.0863 ,1.31482 ,-0.58419 ,-5.73205 
392 ,72.2783 ,1.31681 ,-0.56708 ,-5.56415 
393 ,72.4544 ,1.31853 ,-0.58419 ,-5.73205 
394 ,72.6460 ,1.32031 ,-0.60814 ,-5.96709 
395 ,72.8226 ,1.32221 ,-0.60130 ,-5.89994 
396 ,72.9987 ,1.32401 ,-0.60472 ,-5.93352 
397 ,73.2066 ,1.32595 ,-0.61841 ,-6.06783 
398 ,73.3828 ,1.32782 ,-0.63552 ,-6.23572 
399 ,73.5588 ,1.32960 ,-0.64236 ,-6.30288 
400 ,73.7508 ,1.33148 ,-0.64579 ,-6.33646 
401 ,73.9428 ,1.33334 ,-0.66290 ,-6.50435 
402 ,74.1350 ,1.33521 ,-0.67316 ,-6.60508 
403 ,74.3431 ,1.33732 ,-0.67659 ,-6.63866 
404 ,74.5192 ,1.33919 ,-0.68343 ,-6.70582 
405 ,74.7111 ,1.34105 ,-0.69370 ,-6.80655 
406 ,74.9035 ,1.34301 ,-0.71423 ,-7.00802 
407 ,75.0795 ,1.34483 ,-0.71423 ,-7.00802 
408 ,75.2716 ,1.34668 ,-0.73818 ,-7.24307 
409 ,75.4476 ,1.34847 ,-0.74161 ,-7.27665 
410 ,75.6395 ,1.35038 ,-0.74503 ,-7.31023 
411 ,75.8155 ,1.35209 ,-0.75187 ,-7.37738 
412 ,75.9919 ,1.35391 ,-0.76898 ,-7.54527 
413 ,76.1678 ,1.35567 ,-0.77241 ,-7.57885 
414 ,76.3440 ,1.35735 ,-0.79636 ,-7.81390 
415 ,76.5198 ,1.35913 ,-0.78610 ,-7.71317 
416 ,76.6961 ,1.36095 ,-0.78610 ,-7.71317 
417 ,76.8879 ,1.36286 ,-0.81347 ,-7.98179 
418 ,77.0644 ,1.36462 ,-0.81689 ,-8.01537 
419 ,77.2562 ,1.36652 ,-0.82374 ,-8.08253 
420 ,77.4484 ,1.36838 ,-0.84769 ,-8.31758 
421 ,77.6244 ,1.37019 ,-0.85454 ,-8.38473 
422 ,77.8005 ,1.37201 ,-0.86138 ,-8.45189 
423 ,77.9606 ,1.37370 ,-0.86823 ,-8.51904 
424 ,78.1368 ,1.37532 ,-0.87507 ,-8.58620 
425 ,78.3128 ,1.37710 ,-0.87849 ,-8.61978 
426 ,78.5208 ,1.37915 ,-0.89218 ,-8.75409 
427 ,78.6969 ,1.38087 ,-0.90587 ,-8.88841 
428 ,78.8731 ,1.38268 ,-0.89903 ,-8.82125 
429 ,79.0491 ,1.38446 ,-0.91272 ,-8.95556 
430 ,79.2248 ,1.38622 ,-0.93325 ,-9.15703 
431 ,79.4012 ,1.38797 ,-0.93667 ,-9.19061 
432 ,79.5934 ,1.38990 ,-0.92983 ,-9.12345 
433 ,79.7853 ,1.39173 ,-0.95720 ,-9.39208 
434 ,79.9775 ,1.39374 ,-0.95036 ,-9.32492 
435 ,80.1535 ,1.39558 ,-0.97089 ,-9.52639 
436 ,80.3453 ,1.39737 ,-0.98458 ,-9.66071 
437 ,80.5218 ,1.39918 ,-0.98800 ,-9.69429 
438 ,80.7138 ,1.40105 ,-0.99143 ,-9.72786 
439 ,80.9059 ,1.40304 ,-1.01538 ,-9.96291 
440 ,81.1136 ,1.40507 ,-1.03249 ,-10.13080 
441 ,81.2901 ,1.40688 ,-1.02222 ,-10.03007 
442 ,81.4980 ,1.40887 ,-1.03249 ,-10.13080 
443 ,81.6740 ,1.41074 ,-1.02907 ,-10.09723 
444 ,81.8497 ,1.41244 ,-1.03934 ,-10.19796 
445 ,82.0258 ,1.41418 ,-1.05987 ,-10.39943 
446 ,82.2018 ,1.41597 ,-1.07356 ,-10.53374 
447 ,82.3784 ,1.41772 ,-1.08725 ,-10.66806 
448 ,82.6185 ,1.42001 ,-1.09409 ,-10.73521 
449 ,82.8104 ,1.42193 ,-1.08382 ,-10.63448 
450 ,83.0027 ,1.42399 ,-1.12489 ,-11.03742 
451 ,83.1946 ,1.42584 ,-1.10436 ,-10.83595 
452 ,83.3705 ,1.42765 ,-1.12147 ,-11.00384 
453 ,83.5625 ,1.42951 ,-1.14200 ,-11.20531 
454 ,83.7225 ,1.43126 ,-1.15569 ,-11.33962 
455 ,83.8989 ,1.43297 ,-1.15911 ,-11.37320 
456 ,84.0910 ,1.43485 ,-1.15569 ,-11.33962 
457 ,84.2511 ,1.43657 ,-1.17280 ,-11.50751 
458 ,84.4274 ,1.43823 ,-1.17280 ,-11.50751 
459 ,84.6033 ,1.43998 ,-1.19676 ,-11.74256 
460 ,84.7953 ,1.44181 ,-1.18649 ,-11.64183 
461 ,84.9874 ,1.44374 ,-1.18307 ,-11.60825 
