Data stamp = , 04-04-2022 15:41:51 433

Calibration Values: 
Slope = , 26.54 , g/V 
Offset Voltage at no contact = , -0.501760 , V 

No , Time , Stage Position ,   Mass , Force 
   ,  (s) ,      (mm)      ,   (g)  , (mN)  

1 ,0.0000 ,0.59949 ,5.02132 ,49.26921 
2 ,0.2138 ,0.59957 ,5.00763 ,49.13490 
3 ,0.5180 ,0.60038 ,5.03159 ,49.36995 
4 ,0.7099 ,0.60171 ,5.03159 ,49.36995 
5 ,0.8860 ,0.60321 ,5.03843 ,49.43710 
6 ,1.0621 ,0.60494 ,5.02817 ,49.33637 
7 ,1.2384 ,0.60659 ,5.04528 ,49.50426 
8 ,1.4303 ,0.60844 ,5.02817 ,49.33637 
9 ,1.6223 ,0.61038 ,5.02132 ,49.26921 
10 ,1.8145 ,0.61233 ,4.97683 ,48.83269 
11 ,1.9906 ,0.61420 ,4.97341 ,48.79911 
12 ,2.1666 ,0.61602 ,4.97341 ,48.79911 
13 ,2.3586 ,0.61779 ,4.94603 ,48.53049 
14 ,2.5350 ,0.61968 ,4.93919 ,48.46333 
15 ,2.7112 ,0.62144 ,4.93919 ,48.46333 
16 ,2.9029 ,0.62328 ,4.91523 ,48.22828 
17 ,3.0792 ,0.62506 ,4.90155 ,48.09397 
18 ,3.2711 ,0.62691 ,4.87075 ,47.79177 
19 ,3.4472 ,0.62882 ,4.87075 ,47.79177 
20 ,3.6232 ,0.63049 ,4.84679 ,47.55672 
21 ,3.7994 ,0.63229 ,4.82626 ,47.35525 
22 ,3.9914 ,0.63411 ,4.80915 ,47.18736 
23 ,4.1675 ,0.63600 ,4.83310 ,47.42240 
24 ,4.3435 ,0.63771 ,4.79888 ,47.08662 
25 ,4.5197 ,0.63952 ,4.76808 ,46.78442 
26 ,4.6958 ,0.64127 ,4.76124 ,46.71726 
27 ,4.8717 ,0.64294 ,4.74070 ,46.51579 
28 ,5.0317 ,0.64469 ,4.74070 ,46.51579 
29 ,5.2080 ,0.64631 ,4.73044 ,46.41506 
30 ,5.4008 ,0.64818 ,4.71675 ,46.28074 
31 ,5.7840 ,0.65122 ,4.69279 ,46.04569 
32 ,6.0723 ,0.65447 ,4.67226 ,45.84422 
33 ,6.2644 ,0.65683 ,4.64488 ,45.57560 
34 ,6.6007 ,0.65960 ,4.62777 ,45.40771 
35 ,6.7766 ,0.66201 ,4.59697 ,45.10550 
36 ,7.0009 ,0.66400 ,4.58671 ,45.00477 
37 ,7.1931 ,0.66618 ,4.56617 ,44.80330 
38 ,7.4331 ,0.66855 ,4.54222 ,44.56825 
39 ,7.6253 ,0.67048 ,4.54564 ,44.60183 
40 ,7.8173 ,0.67237 ,4.51826 ,44.33320 
41 ,8.0093 ,0.67434 ,4.51142 ,44.26604 
42 ,8.2012 ,0.67620 ,4.48062 ,43.96384 
43 ,8.3772 ,0.67800 ,4.47720 ,43.93026 
44 ,8.5533 ,0.67973 ,4.44640 ,43.62806 
45 ,8.7294 ,0.68157 ,4.44640 ,43.62806 
46 ,8.8894 ,0.68324 ,4.43613 ,43.52732 
47 ,9.0655 ,0.68489 ,4.45666 ,43.72879 
48 ,9.2575 ,0.68679 ,4.39849 ,43.15796 
49 ,9.4336 ,0.68858 ,4.37111 ,42.88933 
50 ,9.6099 ,0.69034 ,4.37453 ,42.92291 
51 ,9.8022 ,0.69230 ,4.35400 ,42.72144 
52 ,9.9970 ,0.69418 ,4.32662 ,42.45282 
53 ,10.2662 ,0.69648 ,4.32320 ,42.41924 
54 ,10.4582 ,0.69884 ,4.28213 ,42.01630 
55 ,10.6342 ,0.70063 ,4.27871 ,41.98272 
56 ,10.8103 ,0.70238 ,4.26502 ,41.84841 
57 ,10.9866 ,0.70413 ,4.22738 ,41.47905 
58 ,11.1786 ,0.70598 ,4.20342 ,41.24400 
59 ,11.3545 ,0.70777 ,4.19658 ,41.17684 
60 ,11.5308 ,0.70963 ,4.20000 ,41.21042 
61 ,11.7226 ,0.71148 ,4.17947 ,41.00895 
62 ,11.9148 ,0.71330 ,4.15551 ,40.77390 
63 ,12.0909 ,0.71514 ,4.12814 ,40.50527 
64 ,12.2830 ,0.71699 ,4.12814 ,40.50527 
65 ,12.4589 ,0.71887 ,4.10760 ,40.30380 
66 ,12.6352 ,0.72057 ,4.06996 ,39.93444 
67 ,12.8271 ,0.72253 ,4.04943 ,39.73297 
68 ,13.0194 ,0.72438 ,4.04600 ,39.69940 
69 ,13.1956 ,0.72615 ,4.03574 ,39.59866 
70 ,13.3715 ,0.72793 ,4.02889 ,39.53150 
71 ,13.5312 ,0.72967 ,3.99467 ,39.19572 
72 ,13.7077 ,0.73134 ,3.99809 ,39.22930 
73 ,13.8999 ,0.73315 ,3.97414 ,38.99425 
74 ,14.0760 ,0.73499 ,3.92281 ,38.49058 
75 ,14.2519 ,0.73682 ,3.95018 ,38.75920 
76 ,14.4279 ,0.73859 ,3.91596 ,38.42342 
77 ,14.6038 ,0.74026 ,3.89543 ,38.22195 
78 ,14.7802 ,0.74201 ,3.88174 ,38.08764 
79 ,14.9722 ,0.74394 ,3.87490 ,38.02048 
80 ,15.1483 ,0.74571 ,3.84410 ,37.71828 
81 ,15.3244 ,0.74746 ,3.84067 ,37.68470 
82 ,15.5008 ,0.74920 ,3.80645 ,37.34891 
83 ,15.6763 ,0.75096 ,3.79961 ,37.28176 
84 ,15.8525 ,0.75273 ,3.76881 ,36.97955 
85 ,16.0446 ,0.75468 ,3.76881 ,36.97955 
86 ,16.2208 ,0.75643 ,3.75512 ,36.84524 
87 ,16.3966 ,0.75829 ,3.74143 ,36.71093 
88 ,16.5727 ,0.75988 ,3.73801 ,36.67735 
89 ,16.7648 ,0.76185 ,3.71748 ,36.47588 
90 ,16.9569 ,0.76372 ,3.69352 ,36.24083 
91 ,17.1491 ,0.76568 ,3.66957 ,36.00578 
92 ,17.3250 ,0.76742 ,3.65930 ,35.90505 
93 ,17.5014 ,0.76921 ,3.63192 ,35.63642 
94 ,17.6772 ,0.77096 ,3.61481 ,35.46853 
95 ,17.8850 ,0.77299 ,3.58743 ,35.19990 
96 ,18.0615 ,0.77481 ,3.57717 ,35.09917 
97 ,18.2374 ,0.77659 ,3.57717 ,35.09917 
98 ,18.4295 ,0.77842 ,3.55663 ,34.89770 
99 ,18.6217 ,0.78035 ,3.54295 ,34.76338 
100 ,18.7978 ,0.78220 ,3.37868 ,33.15163 
101 ,18.9736 ,0.78405 ,3.55321 ,34.86412 
102 ,19.1658 ,0.78586 ,3.47792 ,34.12540 
103 ,19.3418 ,0.78772 ,3.47450 ,34.09182 
104 ,19.5180 ,0.78937 ,3.45055 ,33.85677 
105 ,19.6942 ,0.79112 ,3.45055 ,33.85677 
106 ,19.8701 ,0.79291 ,3.45397 ,33.89035 
107 ,20.0459 ,0.79462 ,3.41633 ,33.52099 
108 ,20.2380 ,0.79655 ,3.37868 ,33.15163 
109 ,20.4303 ,0.79849 ,3.38553 ,33.21878 
110 ,20.6222 ,0.80043 ,3.36842 ,33.05089 
111 ,20.8145 ,0.80225 ,3.34788 ,32.84942 
112 ,20.9905 ,0.80410 ,3.33077 ,32.68153 
113 ,21.1827 ,0.80590 ,3.30682 ,32.44648 
114 ,21.3748 ,0.80794 ,3.31366 ,32.51364 
115 ,21.5668 ,0.80979 ,3.27602 ,32.14428 
116 ,21.7588 ,0.81177 ,3.25548 ,31.94281 
117 ,21.9349 ,0.81352 ,3.24522 ,31.84207 
118 ,22.1106 ,0.81527 ,3.23495 ,31.74134 
119 ,22.2870 ,0.81709 ,3.21100 ,31.50629 
120 ,22.4632 ,0.81877 ,3.18704 ,31.27124 
121 ,22.6393 ,0.82057 ,3.16651 ,31.06977 
122 ,22.8154 ,0.82235 ,3.15966 ,31.00262 
123 ,23.0073 ,0.82423 ,3.13913 ,30.80115 
124 ,23.1831 ,0.82616 ,3.12544 ,30.66683 
125 ,23.3435 ,0.82772 ,3.11518 ,30.56610 
126 ,23.5355 ,0.82955 ,3.11175 ,30.53252 
127 ,23.7117 ,0.83132 ,3.09122 ,30.33105 
128 ,23.8877 ,0.83304 ,3.07411 ,30.16316 
129 ,24.0798 ,0.83495 ,3.05015 ,29.92811 
130 ,24.2555 ,0.83678 ,3.02962 ,29.72664 
131 ,24.4319 ,0.83846 ,3.02278 ,29.65948 
132 ,24.6238 ,0.84031 ,3.01251 ,29.55875 
133 ,24.8002 ,0.84218 ,2.99882 ,29.42444 
134 ,24.9761 ,0.84394 ,2.97829 ,29.22297 
135 ,25.1521 ,0.84567 ,2.96460 ,29.08865 
136 ,25.3119 ,0.84739 ,2.93722 ,28.82003 
137 ,25.4723 ,0.84900 ,2.92011 ,28.65213 
138 ,25.6643 ,0.85078 ,2.90642 ,28.51782 
139 ,25.8404 ,0.85255 ,2.88931 ,28.34993 
140 ,26.0164 ,0.85433 ,2.88589 ,28.31635 
141 ,26.2084 ,0.85618 ,2.85509 ,28.01415 
142 ,26.4006 ,0.85817 ,2.83114 ,27.77910 
143 ,26.5767 ,0.85987 ,2.84482 ,27.91341 
144 ,26.7687 ,0.86185 ,2.81745 ,27.64479 
145 ,26.9450 ,0.86362 ,2.78322 ,27.30900 
146 ,27.1211 ,0.86538 ,2.78322 ,27.30900 
147 ,27.2971 ,0.86713 ,2.77296 ,27.20827 
148 ,27.4890 ,0.86910 ,2.74216 ,26.90606 
149 ,27.6812 ,0.87092 ,2.73874 ,26.87248 
150 ,27.8572 ,0.87273 ,2.71820 ,26.67101 
151 ,28.0494 ,0.87464 ,2.69425 ,26.43597 
152 ,28.2253 ,0.87640 ,2.68398 ,26.33523 
153 ,28.4014 ,0.87812 ,2.67714 ,26.26807 
154 ,28.5615 ,0.87987 ,2.65660 ,26.06661 
155 ,28.7536 ,0.88168 ,2.63949 ,25.89871 
156 ,28.9296 ,0.88342 ,2.60869 ,25.59651 
157 ,29.1058 ,0.88522 ,2.58816 ,25.39504 
158 ,29.2818 ,0.88708 ,2.58132 ,25.32788 
159 ,29.4420 ,0.88869 ,2.58132 ,25.32788 
160 ,29.6020 ,0.89030 ,2.57105 ,25.22715 
161 ,29.7942 ,0.89204 ,2.54367 ,24.95852 
162 ,29.9858 ,0.89399 ,2.51287 ,24.65632 
163 ,30.1622 ,0.89574 ,2.50945 ,24.62274 
164 ,30.3541 ,0.89768 ,2.49918 ,24.52200 
165 ,30.5303 ,0.89944 ,2.48892 ,24.42127 
166 ,30.7224 ,0.90134 ,2.45812 ,24.11906 
167 ,30.9145 ,0.90331 ,2.46154 ,24.15264 
168 ,31.1062 ,0.90519 ,2.42732 ,23.81686 
169 ,31.2826 ,0.90696 ,2.39994 ,23.54823 
170 ,31.4746 ,0.90890 ,2.40336 ,23.58181 
171 ,31.6664 ,0.91078 ,2.38625 ,23.41392 
172 ,31.8429 ,0.91256 ,2.36572 ,23.21245 
173 ,32.0189 ,0.91431 ,2.35888 ,23.14529 
174 ,32.2110 ,0.91623 ,2.33492 ,22.91024 
175 ,32.4031 ,0.91810 ,2.32123 ,22.77593 
176 ,32.5949 ,0.92007 ,2.30070 ,22.57446 
177 ,32.7711 ,0.92198 ,2.28017 ,22.37299 
178 ,32.9472 ,0.92359 ,2.26648 ,22.23868 
179 ,33.1234 ,0.92537 ,2.25621 ,22.13794 
180 ,33.3474 ,0.92747 ,2.22883 ,21.86932 
181 ,33.5235 ,0.92940 ,2.23226 ,21.90290 
182 ,33.7156 ,0.93128 ,2.22199 ,21.80216 
183 ,33.8917 ,0.93310 ,2.20488 ,21.63427 
184 ,34.0837 ,0.93491 ,2.18092 ,21.39922 
185 ,34.2757 ,0.93689 ,2.16381 ,21.23133 
186 ,34.4519 ,0.93865 ,2.12617 ,20.86197 
187 ,34.6279 ,0.94052 ,2.12617 ,20.86197 
188 ,34.8040 ,0.94215 ,2.10564 ,20.66050 
189 ,34.9802 ,0.94402 ,2.10906 ,20.69408 
190 ,35.1720 ,0.94581 ,2.06457 ,20.25756 
191 ,35.3482 ,0.94762 ,2.06115 ,20.22398 
192 ,35.5404 ,0.94950 ,2.06115 ,20.22398 
193 ,35.7645 ,0.95164 ,2.03035 ,19.92178 
194 ,35.9241 ,0.95350 ,2.03035 ,19.92178 
195 ,36.1006 ,0.95514 ,2.01324 ,19.75388 
196 ,36.2926 ,0.95703 ,1.99270 ,19.55241 
197 ,36.4686 ,0.95879 ,1.96533 ,19.28379 
198 ,36.6606 ,0.96069 ,1.96533 ,19.28379 
199 ,36.8367 ,0.96247 ,1.93795 ,19.01516 
200 ,37.0125 ,0.96423 ,1.92426 ,18.88085 
201 ,37.1890 ,0.96601 ,1.90373 ,18.67938 
202 ,37.3810 ,0.96790 ,1.90715 ,18.71296 
203 ,37.5731 ,0.96976 ,1.86951 ,18.34360 
204 ,37.7652 ,0.97168 ,1.87293 ,18.37717 
205 ,37.9570 ,0.97365 ,1.84897 ,18.14213 
206 ,38.1172 ,0.97538 ,1.81817 ,17.83992 
207 ,38.2787 ,0.97701 ,1.80791 ,17.73919 
208 ,38.4693 ,0.97875 ,1.79080 ,17.57129 
209 ,38.6776 ,0.98082 ,1.78737 ,17.53772 
210 ,38.8537 ,0.98266 ,1.76342 ,17.30267 
211 ,39.0457 ,0.98456 ,1.76000 ,17.26909 
212 ,39.2377 ,0.98649 ,1.74631 ,17.13478 
213 ,39.4458 ,0.98851 ,1.72235 ,16.89973 
214 ,39.6375 ,0.99056 ,1.70182 ,16.69826 
215 ,39.7978 ,0.99219 ,1.67444 ,16.42963 
216 ,39.9577 ,0.99381 ,1.66760 ,16.36248 
217 ,40.1342 ,0.99542 ,1.64707 ,16.16101 
218 ,40.3260 ,0.99736 ,1.63680 ,16.06027 
219 ,40.5183 ,0.99921 ,1.62653 ,15.95954 
220 ,40.6946 ,1.00105 ,1.61284 ,15.82522 
221 ,40.8705 ,1.00283 ,1.59573 ,15.65733 
222 ,41.0465 ,1.00459 ,1.58204 ,15.52302 
223 ,41.2383 ,1.00647 ,1.59231 ,15.62375 
224 ,41.4146 ,1.00828 ,1.56836 ,15.38871 
225 ,41.6227 ,1.01026 ,1.55124 ,15.22081 
226 ,41.7990 ,1.01213 ,1.53756 ,15.08650 
227 ,41.9749 ,1.01388 ,1.51360 ,14.85145 
228 ,42.1510 ,1.01563 ,1.48965 ,14.61640 
229 ,42.3427 ,1.01752 ,1.49991 ,14.71714 
230 ,42.5190 ,1.01931 ,1.46911 ,14.41493 
231 ,42.6952 ,1.02102 ,1.44174 ,14.14631 
232 ,42.8872 ,1.02291 ,1.45200 ,14.24704 
233 ,43.0794 ,1.02487 ,1.42120 ,13.94484 
234 ,43.2716 ,1.02672 ,1.41094 ,13.84410 
235 ,43.4315 ,1.02857 ,1.39725 ,13.70979 
236 ,43.6075 ,1.03014 ,1.39040 ,13.64263 
237 ,43.7837 ,1.03194 ,1.36645 ,13.40759 
238 ,43.9597 ,1.03371 ,1.35276 ,13.27327 
239 ,44.1516 ,1.03567 ,1.33565 ,13.10538 
240 ,44.3119 ,1.03733 ,1.34249 ,13.17254 
241 ,44.4716 ,1.03892 ,1.31512 ,12.90391 
242 ,44.6479 ,1.04055 ,1.29800 ,12.73602 
243 ,44.8400 ,1.04256 ,1.27063 ,12.46739 
244 ,45.0159 ,1.04424 ,1.26720 ,12.43381 
245 ,45.1922 ,1.04600 ,1.23641 ,12.13161 
246 ,45.3683 ,1.04779 ,1.23983 ,12.16519 
247 ,45.5440 ,1.04957 ,1.23983 ,12.16519 
248 ,45.7205 ,1.05126 ,1.21929 ,11.96372 
249 ,45.8965 ,1.05304 ,1.19192 ,11.69509 
250 ,46.0887 ,1.05495 ,1.18850 ,11.66151 
251 ,46.2806 ,1.05692 ,1.16454 ,11.42647 
252 ,46.4405 ,1.05864 ,1.14401 ,11.22500 
253 ,46.6007 ,1.06021 ,1.13716 ,11.15784 
254 ,46.7769 ,1.06187 ,1.14058 ,11.19142 
255 ,46.9531 ,1.06362 ,1.11321 ,10.92279 
256 ,47.1610 ,1.06560 ,1.11321 ,10.92279 
257 ,47.3211 ,1.06741 ,1.09952 ,10.78848 
258 ,47.4974 ,1.06907 ,1.07214 ,10.51985 
259 ,47.6569 ,1.07076 ,1.04819 ,10.28480 
260 ,47.8333 ,1.07238 ,1.04476 ,10.25123 
261 ,48.0254 ,1.07434 ,1.05161 ,10.31838 
262 ,48.2016 ,1.07613 ,1.03108 ,10.11691 
263 ,48.3615 ,1.07782 ,1.01054 ,9.91544 
264 ,48.5377 ,1.07944 ,0.99343 ,9.74755 
265 ,48.7453 ,1.08151 ,0.97632 ,9.57966 
266 ,48.9219 ,1.08327 ,0.97632 ,9.57966 
267 ,49.0981 ,1.08506 ,0.94894 ,9.31103 
268 ,49.2740 ,1.08694 ,0.94552 ,9.27745 
269 ,49.4500 ,1.08871 ,0.95237 ,9.34461 
270 ,49.6260 ,1.09034 ,0.93183 ,9.14314 
271 ,49.8019 ,1.09207 ,0.91472 ,8.97525 
272 ,49.9783 ,1.09382 ,0.88392 ,8.67305 
273 ,50.1704 ,1.09578 ,0.87708 ,8.60589 
274 ,50.3301 ,1.09751 ,0.87708 ,8.60589 
275 ,50.5064 ,1.09908 ,0.86681 ,8.50515 
276 ,50.6986 ,1.10105 ,0.84286 ,8.27011 
277 ,50.8745 ,1.10282 ,0.82917 ,8.13579 
278 ,51.0507 ,1.10455 ,0.81548 ,8.00148 
279 ,51.2267 ,1.10634 ,0.80863 ,7.93432 
280 ,51.4030 ,1.10811 ,0.79152 ,7.76643 
281 ,51.5950 ,1.10997 ,0.76072 ,7.46423 
282 ,51.7708 ,1.11181 ,0.76415 ,7.49780 
283 ,51.9626 ,1.11365 ,0.75730 ,7.43065 
284 ,52.1392 ,1.11545 ,0.72992 ,7.16202 
285 ,52.3313 ,1.11741 ,0.73335 ,7.19560 
286 ,52.5232 ,1.11929 ,0.70597 ,6.92697 
287 ,52.6996 ,1.12108 ,0.69228 ,6.79266 
288 ,52.8754 ,1.12286 ,0.67175 ,6.59119 
289 ,53.0674 ,1.12471 ,0.68201 ,6.69193 
290 ,53.2442 ,1.12647 ,0.65806 ,6.45688 
291 ,53.4196 ,1.12825 ,0.64779 ,6.35614 
292 ,53.6274 ,1.13020 ,0.63753 ,6.25541 
293 ,53.8042 ,1.13205 ,0.62042 ,6.08752 
294 ,53.9957 ,1.13405 ,0.59646 ,5.85247 
295 ,54.1721 ,1.13577 ,0.59646 ,5.85247 
296 ,54.3641 ,1.13768 ,0.60330 ,5.91962 
297 ,54.5402 ,1.13946 ,0.56908 ,5.58384 
298 ,54.7323 ,1.14135 ,0.57251 ,5.61742 
299 ,54.9243 ,1.14328 ,0.53828 ,5.28164 
300 ,55.1001 ,1.14503 ,0.53486 ,5.24806 
301 ,55.2763 ,1.14678 ,0.52459 ,5.14732 
302 ,55.4845 ,1.14886 ,0.50064 ,4.91228 
303 ,55.6765 ,1.15077 ,0.49037 ,4.81154 
304 ,55.8528 ,1.15259 ,0.48011 ,4.71081 
305 ,56.0448 ,1.15450 ,0.47668 ,4.67723 
306 ,56.2049 ,1.15625 ,0.44588 ,4.37502 
307 ,56.3810 ,1.15782 ,0.44931 ,4.40860 
308 ,56.5731 ,1.15978 ,0.43220 ,4.24071 
309 ,56.7490 ,1.16160 ,0.42535 ,4.17355 
310 ,56.9414 ,1.16342 ,0.39113 ,3.83777 
311 ,57.1171 ,1.16521 ,0.37744 ,3.70346 
312 ,57.2771 ,1.16693 ,0.38429 ,3.77061 
313 ,57.4371 ,1.16854 ,0.36375 ,3.56914 
314 ,57.6133 ,1.17014 ,0.37060 ,3.63630 
315 ,57.8054 ,1.17212 ,0.35691 ,3.50199 
316 ,57.9977 ,1.17400 ,0.31242 ,3.06547 
317 ,58.1735 ,1.17577 ,0.30900 ,3.03189 
318 ,58.3496 ,1.17765 ,0.31242 ,3.06547 
319 ,58.5258 ,1.17928 ,0.29873 ,2.93116 
320 ,58.7178 ,1.18122 ,0.27478 ,2.69611 
321 ,58.9098 ,1.18305 ,0.27820 ,2.72969 
322 ,59.1021 ,1.18504 ,0.24740 ,2.42748 
323 ,59.2777 ,1.18693 ,0.25424 ,2.49464 
324 ,59.4702 ,1.18868 ,0.24740 ,2.42748 
325 ,59.6620 ,1.19068 ,0.21318 ,2.09170 
326 ,59.8381 ,1.19243 ,0.19607 ,1.92381 
327 ,60.0303 ,1.19432 ,0.20976 ,2.05812 
328 ,60.2064 ,1.19610 ,0.17553 ,1.72234 
329 ,60.3822 ,1.19785 ,0.16869 ,1.65518 
330 ,60.5585 ,1.19960 ,0.14816 ,1.45371 
331 ,60.7506 ,1.20152 ,0.16185 ,1.58802 
332 ,60.9264 ,1.20331 ,0.14816 ,1.45371 
333 ,61.1029 ,1.20502 ,0.11393 ,1.11793 
334 ,61.2788 ,1.20684 ,0.10025 ,0.98361 
335 ,61.4388 ,1.20856 ,0.11051 ,1.08435 
336 ,61.6148 ,1.21018 ,0.08998 ,0.88288 
337 ,61.8067 ,1.21210 ,0.08314 ,0.81572 
338 ,61.9831 ,1.21382 ,0.06602 ,0.64783 
339 ,62.1592 ,1.21566 ,0.04549 ,0.44636 
340 ,62.3671 ,1.21761 ,0.04207 ,0.41278 
341 ,62.5430 ,1.21955 ,0.03180 ,0.31205 
342 ,62.7195 ,1.22127 ,0.02154 ,0.21131 
343 ,62.9116 ,1.22309 ,0.01811 ,0.17773 
344 ,63.0875 ,1.22492 ,0.01811 ,0.17773 
345 ,63.2635 ,1.22665 ,-0.01953 ,-0.19163 
346 ,63.4396 ,1.22850 ,-0.00584 ,-0.05731 
347 ,63.5995 ,1.23013 ,-0.02295 ,-0.22520 
348 ,63.7758 ,1.23177 ,-0.03322 ,-0.32594 
349 ,63.9519 ,1.23366 ,-0.03664 ,-0.35952 
350 ,64.1439 ,1.23542 ,-0.06060 ,-0.59457 
351 ,64.3201 ,1.23723 ,-0.07771 ,-0.76246 
352 ,64.4962 ,1.23898 ,-0.08797 ,-0.86319 
353 ,64.6719 ,1.24085 ,-0.08797 ,-0.86319 
354 ,64.8483 ,1.24248 ,-0.08797 ,-0.86319 
355 ,65.0724 ,1.24458 ,-0.11193 ,-1.09824 
356 ,65.2642 ,1.24663 ,-0.12219 ,-1.19898 
357 ,65.4403 ,1.24841 ,-0.14273 ,-1.40045 
358 ,65.6324 ,1.25026 ,-0.12219 ,-1.19898 
359 ,65.8083 ,1.25224 ,-0.15642 ,-1.53476 
360 ,65.9846 ,1.25385 ,-0.17011 ,-1.66907 
361 ,66.1608 ,1.25560 ,-0.18722 ,-1.83696 
362 ,66.3367 ,1.25740 ,-0.17353 ,-1.70265 
363 ,66.5129 ,1.25915 ,-0.18037 ,-1.76981 
364 ,66.7050 ,1.26106 ,-0.21117 ,-2.07201 
365 ,66.8808 ,1.26280 ,-0.21802 ,-2.13917 
366 ,67.0570 ,1.26458 ,-0.23513 ,-2.30706 
367 ,67.2331 ,1.26634 ,-0.21802 ,-2.13917 
368 ,67.4092 ,1.26812 ,-0.24197 ,-2.37422 
369 ,67.5852 ,1.26987 ,-0.25566 ,-2.50853 
370 ,67.7773 ,1.27176 ,-0.26593 ,-2.60926 
371 ,67.9533 ,1.27351 ,-0.26250 ,-2.57569 
372 ,68.1455 ,1.27546 ,-0.29330 ,-2.87789 
373 ,68.3216 ,1.27730 ,-0.28988 ,-2.84431 
374 ,68.4813 ,1.27895 ,-0.31726 ,-3.11294 
375 ,68.6574 ,1.28055 ,-0.32068 ,-3.14652 
376 ,68.8176 ,1.28230 ,-0.32068 ,-3.14652 
377 ,68.9778 ,1.28389 ,-0.33095 ,-3.24725 
378 ,69.1538 ,1.28551 ,-0.33095 ,-3.24725 
379 ,69.3299 ,1.28733 ,-0.35490 ,-3.48230 
380 ,69.5219 ,1.28922 ,-0.36517 ,-3.58303 
381 ,69.7141 ,1.29113 ,-0.36175 ,-3.54946 
382 ,69.8902 ,1.29294 ,-0.38228 ,-3.75093 
383 ,70.0661 ,1.29462 ,-0.39939 ,-3.91882 
384 ,70.2424 ,1.29641 ,-0.41308 ,-4.05313 
385 ,70.4183 ,1.29827 ,-0.40623 ,-3.98597 
386 ,70.6104 ,1.30010 ,-0.41308 ,-4.05313 
387 ,70.8024 ,1.30202 ,-0.45072 ,-4.42249 
388 ,70.9626 ,1.30370 ,-0.44046 ,-4.32176 
389 ,71.1225 ,1.30530 ,-0.46783 ,-4.59038 
390 ,71.2985 ,1.30698 ,-0.47810 ,-4.69112 
391 ,71.4749 ,1.30870 ,-0.46441 ,-4.55681 
392 ,71.6669 ,1.31066 ,-0.49179 ,-4.82543 
393 ,71.8431 ,1.31238 ,-0.49863 ,-4.89259 
394 ,72.0350 ,1.31432 ,-0.49521 ,-4.85901 
395 ,72.2108 ,1.31617 ,-0.52259 ,-5.12764 
396 ,72.3873 ,1.31782 ,-0.52601 ,-5.16121 
397 ,72.5792 ,1.31974 ,-0.53628 ,-5.26195 
398 ,72.7715 ,1.32161 ,-0.53970 ,-5.29553 
399 ,72.9636 ,1.32359 ,-0.57392 ,-5.63131 
400 ,73.1393 ,1.32537 ,-0.57392 ,-5.63131 
401 ,73.3156 ,1.32713 ,-0.56365 ,-5.53058 
402 ,73.5077 ,1.32906 ,-0.58419 ,-5.73205 
403 ,73.6998 ,1.33098 ,-0.60130 ,-5.89994 
404 ,73.8758 ,1.33273 ,-0.59103 ,-5.79920 
405 ,74.0520 ,1.33448 ,-0.60472 ,-5.93352 
406 ,74.2278 ,1.33626 ,-0.61156 ,-6.00067 
407 ,74.4041 ,1.33809 ,-0.62868 ,-6.16856 
408 ,74.5959 ,1.33995 ,-0.63210 ,-6.20214 
409 ,74.7880 ,1.34180 ,-0.65263 ,-6.40361 
410 ,74.9642 ,1.34362 ,-0.66974 ,-6.57150 
411 ,75.1565 ,1.34560 ,-0.66974 ,-6.57150 
412 ,75.3321 ,1.34742 ,-0.66974 ,-6.57150 
413 ,75.5086 ,1.34904 ,-0.68001 ,-6.67224 
414 ,75.6846 ,1.35082 ,-0.70739 ,-6.94086 
415 ,75.8607 ,1.35258 ,-0.71081 ,-6.97444 
416 ,76.0369 ,1.35438 ,-0.71081 ,-6.97444 
417 ,76.2129 ,1.35610 ,-0.70739 ,-6.94086 
418 ,76.4047 ,1.35799 ,-0.72792 ,-7.14233 
419 ,76.5809 ,1.35974 ,-0.74845 ,-7.34380 
420 ,76.7571 ,1.36153 ,-0.74845 ,-7.34380 
421 ,76.9492 ,1.36337 ,-0.75530 ,-7.41096 
422 ,77.1252 ,1.36523 ,-0.76214 ,-7.47812 
423 ,77.3016 ,1.36710 ,-0.75872 ,-7.44454 
424 ,77.4614 ,1.36870 ,-0.78610 ,-7.71317 
425 ,77.6372 ,1.37031 ,-0.78267 ,-7.67959 
426 ,77.8134 ,1.37207 ,-0.78952 ,-7.74674 
427 ,77.9897 ,1.37386 ,-0.80321 ,-7.88106 
428 ,78.1655 ,1.37561 ,-0.81689 ,-8.01537 
429 ,78.3416 ,1.37733 ,-0.82716 ,-8.11611 
430 ,78.5016 ,1.37907 ,-0.83401 ,-8.18326 
431 ,78.6778 ,1.38073 ,-0.84427 ,-8.28400 
432 ,78.8700 ,1.38262 ,-0.85454 ,-8.38473 
433 ,79.0460 ,1.38443 ,-0.87507 ,-8.58620 
434 ,79.2220 ,1.38618 ,-0.88876 ,-8.72051 
435 ,79.4299 ,1.38819 ,-0.88534 ,-8.68694 
436 ,79.5903 ,1.38998 ,-0.88534 ,-8.68694 
437 ,79.7662 ,1.39160 ,-0.90587 ,-8.88841 
438 ,79.9423 ,1.39335 ,-0.92640 ,-9.08988 
439 ,80.1344 ,1.39526 ,-0.90587 ,-8.88841 
440 ,80.2941 ,1.39701 ,-0.91272 ,-8.95556 
441 ,80.4706 ,1.39863 ,-0.92983 ,-9.12345 
442 ,80.6624 ,1.40054 ,-0.95720 ,-9.39208 
443 ,80.8387 ,1.40231 ,-0.96063 ,-9.42566 
444 ,81.0147 ,1.40412 ,-0.96063 ,-9.42566 
445 ,81.2069 ,1.40603 ,-0.96405 ,-9.45924 
446 ,81.3829 ,1.40790 ,-0.97089 ,-9.52639 
447 ,81.5591 ,1.40954 ,-1.00169 ,-9.82860 
448 ,81.7350 ,1.41141 ,-0.99485 ,-9.76144 
449 ,81.9112 ,1.41304 ,-0.98458 ,-9.66071 
450 ,82.0871 ,1.41483 ,-1.00511 ,-9.86218 
451 ,82.2633 ,1.41655 ,-1.04276 ,-10.23154 
452 ,82.4391 ,1.41835 ,-1.04960 ,-10.29869 
453 ,82.6155 ,1.42005 ,-1.04618 ,-10.26512 
454 ,82.7755 ,1.42183 ,-1.03934 ,-10.19796 
455 ,82.9514 ,1.42343 ,-1.04276 ,-10.23154 
456 ,83.1277 ,1.42521 ,-1.06671 ,-10.46659 
457 ,83.3197 ,1.42711 ,-1.06671 ,-10.46659 
458 ,83.4962 ,1.42891 ,-1.08040 ,-10.60090 
459 ,83.6879 ,1.43081 ,-1.08725 ,-10.66806 
460 ,83.8479 ,1.43254 ,-1.10093 ,-10.80237 
461 ,84.0241 ,1.43418 ,-1.11462 ,-10.93668 
462 ,84.2001 ,1.43591 ,-1.12147 ,-11.00384 
