Data stamp = , 05-04-2022 15:05:24 498

Calibration Values: 
Slope = , 26.54 , g/V 
Offset Voltage at no contact = , -0.501760 , V 

No , Time , Stage Position ,   Mass , Force 
   ,  (s) ,      (mm)      ,   (g)  , (mN)  

1 ,0.0000 ,0.59946 ,4.90155 ,48.09397 
2 ,0.2205 ,0.59957 ,4.90155 ,48.09397 
3 ,0.5249 ,0.60037 ,4.91523 ,48.22828 
4 ,0.7332 ,0.60188 ,4.91866 ,48.26186 
5 ,0.9251 ,0.60352 ,4.89470 ,48.02681 
6 ,1.1010 ,0.60526 ,4.90497 ,48.12755 
7 ,1.2935 ,0.60710 ,4.92892 ,48.36260 
8 ,1.4851 ,0.60900 ,4.90839 ,48.16113 
9 ,1.6614 ,0.61079 ,4.90155 ,48.09397 
10 ,1.8372 ,0.61263 ,4.90155 ,48.09397 
11 ,2.0452 ,0.61464 ,4.87759 ,47.85892 
12 ,2.2215 ,0.61646 ,4.87759 ,47.85892 
13 ,2.4458 ,0.61857 ,4.88101 ,47.89250 
14 ,2.6218 ,0.62047 ,4.84337 ,47.52314 
15 ,2.8139 ,0.62239 ,4.85364 ,47.62387 
16 ,3.0058 ,0.62417 ,4.84337 ,47.52314 
17 ,3.1820 ,0.62603 ,4.82626 ,47.35525 
18 ,3.3739 ,0.62790 ,4.81257 ,47.22093 
19 ,3.5501 ,0.62974 ,4.79204 ,47.01946 
20 ,3.7741 ,0.63188 ,4.77835 ,46.88515 
21 ,3.9503 ,0.63372 ,4.76124 ,46.71726 
22 ,4.1421 ,0.63571 ,4.74070 ,46.51579 
23 ,4.3186 ,0.63743 ,4.72702 ,46.38148 
24 ,4.4948 ,0.63920 ,4.71675 ,46.28074 
25 ,4.7027 ,0.64114 ,4.67568 ,45.87780 
26 ,4.8947 ,0.64316 ,4.68937 ,46.01212 
27 ,5.0708 ,0.64490 ,4.65173 ,45.64275 
28 ,5.2465 ,0.64670 ,4.62435 ,45.37413 
29 ,5.4068 ,0.64841 ,4.60724 ,45.20624 
30 ,5.5830 ,0.65004 ,4.60382 ,45.17266 
31 ,5.7751 ,0.65191 ,4.59013 ,45.03835 
32 ,5.9672 ,0.65387 ,4.56617 ,44.80330 
33 ,6.1752 ,0.65587 ,4.54564 ,44.60183 
34 ,6.3673 ,0.65796 ,4.52853 ,44.43394 
35 ,6.5434 ,0.65966 ,4.50115 ,44.16531 
36 ,6.7194 ,0.66138 ,4.50115 ,44.16531 
37 ,6.9275 ,0.66346 ,4.47378 ,43.89668 
38 ,7.1037 ,0.66527 ,4.44640 ,43.62806 
39 ,7.2954 ,0.66720 ,4.45324 ,43.69521 
40 ,7.4716 ,0.66895 ,4.42929 ,43.46016 
41 ,7.6478 ,0.67081 ,4.40191 ,43.19154 
42 ,7.8398 ,0.67255 ,4.40191 ,43.19154 
43 ,8.0159 ,0.67434 ,4.38822 ,43.05723 
44 ,8.1922 ,0.67617 ,4.35400 ,42.72144 
45 ,8.3839 ,0.67807 ,4.33347 ,42.51997 
46 ,8.5602 ,0.67980 ,4.32320 ,42.41924 
47 ,8.7683 ,0.68183 ,4.30267 ,42.21777 
48 ,8.9443 ,0.68365 ,4.28556 ,42.04988 
49 ,9.1205 ,0.68540 ,4.27187 ,41.91556 
50 ,9.3285 ,0.68746 ,4.23765 ,41.57978 
51 ,9.5047 ,0.68922 ,4.24107 ,41.61336 
52 ,9.6969 ,0.69114 ,4.22738 ,41.47905 
53 ,9.8887 ,0.69311 ,4.19658 ,41.17684 
54 ,10.0650 ,0.69483 ,4.18631 ,41.07611 
55 ,10.2570 ,0.69676 ,4.17262 ,40.94179 
56 ,10.4490 ,0.69864 ,4.14867 ,40.70674 
57 ,10.6251 ,0.70044 ,4.12814 ,40.50527 
58 ,10.8012 ,0.70232 ,4.12814 ,40.50527 
59 ,10.9771 ,0.70398 ,4.11445 ,40.37096 
60 ,11.1534 ,0.70569 ,4.08023 ,40.03518 
61 ,11.3294 ,0.70747 ,4.06654 ,39.90087 
62 ,11.5054 ,0.70925 ,4.05285 ,39.76655 
63 ,11.6815 ,0.71097 ,4.03232 ,39.56508 
64 ,11.8733 ,0.71291 ,4.01520 ,39.39719 
65 ,12.0658 ,0.71487 ,3.99467 ,39.19572 
66 ,12.2576 ,0.71681 ,3.98783 ,39.12856 
67 ,12.4337 ,0.71856 ,3.98098 ,39.06141 
68 ,12.6096 ,0.72031 ,3.95361 ,38.79278 
69 ,12.7861 ,0.72209 ,3.91938 ,38.45700 
70 ,12.9941 ,0.72404 ,3.91938 ,38.45700 
71 ,13.1701 ,0.72589 ,3.89543 ,38.22195 
72 ,13.3463 ,0.72763 ,3.86463 ,37.91975 
73 ,13.5384 ,0.72954 ,3.86805 ,37.95332 
74 ,13.7300 ,0.73147 ,3.85094 ,37.78543 
75 ,13.9066 ,0.73325 ,3.83725 ,37.65112 
76 ,14.0823 ,0.73502 ,3.82699 ,37.55038 
77 ,14.2586 ,0.73677 ,3.80645 ,37.34891 
78 ,14.4348 ,0.73854 ,3.79276 ,37.21460 
79 ,14.6269 ,0.74038 ,3.75854 ,36.87882 
80 ,14.8025 ,0.74222 ,3.74143 ,36.71093 
81 ,14.9792 ,0.74398 ,3.73459 ,36.64377 
82 ,15.1550 ,0.74574 ,3.72090 ,36.50946 
83 ,15.3467 ,0.74765 ,3.68325 ,36.14010 
84 ,15.5231 ,0.74943 ,3.68325 ,36.14010 
85 ,15.7149 ,0.75125 ,3.65930 ,35.90505 
86 ,15.9072 ,0.75325 ,3.62508 ,35.56926 
87 ,16.0834 ,0.75501 ,3.62850 ,35.60284 
88 ,16.2594 ,0.75679 ,3.61823 ,35.50211 
89 ,16.4354 ,0.75854 ,3.59770 ,35.30064 
90 ,16.6275 ,0.76042 ,3.56006 ,34.93128 
91 ,16.8035 ,0.76220 ,3.54295 ,34.76338 
92 ,16.9793 ,0.76392 ,3.55321 ,34.86412 
93 ,17.1558 ,0.76574 ,3.52926 ,34.62907 
94 ,17.3319 ,0.76756 ,3.53268 ,34.66265 
95 ,17.5079 ,0.76940 ,3.49504 ,34.29329 
96 ,17.6840 ,0.77100 ,3.47450 ,34.09182 
97 ,17.8600 ,0.77278 ,3.47108 ,34.05824 
98 ,18.0360 ,0.77459 ,3.44028 ,33.75604 
99 ,18.1961 ,0.77625 ,3.44028 ,33.75604 
100 ,18.3722 ,0.77794 ,3.43344 ,33.68888 
101 ,18.5644 ,0.77981 ,3.40264 ,33.38667 
102 ,18.7564 ,0.78176 ,3.38553 ,33.21878 
103 ,18.9484 ,0.78363 ,3.36499 ,33.01731 
104 ,19.1245 ,0.78540 ,3.35473 ,32.91658 
105 ,19.3166 ,0.78734 ,3.33077 ,32.68153 
106 ,19.5087 ,0.78918 ,3.31024 ,32.48006 
107 ,19.7328 ,0.79134 ,3.29655 ,32.34575 
108 ,19.9249 ,0.79342 ,3.26575 ,32.04354 
109 ,20.1006 ,0.79520 ,3.27259 ,32.11070 
110 ,20.2771 ,0.79698 ,3.25548 ,31.94281 
111 ,20.4689 ,0.79881 ,3.21784 ,31.57345 
112 ,20.6451 ,0.80065 ,3.20415 ,31.43913 
113 ,20.8212 ,0.80234 ,3.20073 ,31.40555 
114 ,20.9974 ,0.80415 ,3.19046 ,31.30482 
115 ,21.1729 ,0.80590 ,3.17677 ,31.17051 
116 ,21.3495 ,0.80763 ,3.15624 ,30.96904 
117 ,21.5416 ,0.80961 ,3.12544 ,30.66683 
118 ,21.7337 ,0.81144 ,3.11518 ,30.56610 
119 ,21.9417 ,0.81349 ,3.08780 ,30.29747 
120 ,22.1337 ,0.81547 ,3.08438 ,30.26389 
121 ,22.3095 ,0.81719 ,3.06384 ,30.06242 
122 ,22.5018 ,0.81904 ,3.04331 ,29.86095 
123 ,22.6940 ,0.82107 ,3.03304 ,29.76022 
124 ,22.9020 ,0.82308 ,3.02278 ,29.65948 
125 ,23.0780 ,0.82493 ,3.00909 ,29.52517 
126 ,23.2538 ,0.82671 ,3.00567 ,29.49159 
127 ,23.4300 ,0.82850 ,2.96802 ,29.12223 
128 ,23.6224 ,0.83034 ,2.94064 ,28.85360 
129 ,23.8143 ,0.83225 ,2.93038 ,28.75287 
130 ,24.0064 ,0.83423 ,2.90300 ,28.48424 
131 ,24.1989 ,0.83611 ,2.90642 ,28.51782 
132 ,24.3746 ,0.83791 ,2.88931 ,28.34993 
133 ,24.5508 ,0.83963 ,2.86193 ,28.08130 
134 ,24.7428 ,0.84151 ,2.84140 ,27.87983 
135 ,24.9189 ,0.84336 ,2.81402 ,27.61121 
136 ,25.0951 ,0.84513 ,2.82771 ,27.74552 
137 ,25.2710 ,0.84690 ,2.79691 ,27.44332 
138 ,25.4472 ,0.84859 ,2.78665 ,27.34258 
139 ,25.6389 ,0.85048 ,2.77638 ,27.24185 
140 ,25.8154 ,0.85228 ,2.76611 ,27.14111 
141 ,26.0234 ,0.85433 ,2.73531 ,26.83891 
142 ,26.1995 ,0.85617 ,2.72505 ,26.73817 
143 ,26.3914 ,0.85798 ,2.70794 ,26.57028 
144 ,26.5677 ,0.85980 ,2.67372 ,26.23450 
145 ,26.7597 ,0.86179 ,2.66687 ,26.16734 
146 ,26.9355 ,0.86350 ,2.66345 ,26.13376 
147 ,27.1117 ,0.86521 ,2.64292 ,25.93229 
148 ,27.2879 ,0.86706 ,2.60869 ,25.59651 
149 ,27.4799 ,0.86892 ,2.60869 ,25.59651 
150 ,27.6878 ,0.87102 ,2.57105 ,25.22715 
151 ,27.8640 ,0.87280 ,2.56421 ,25.15999 
152 ,28.0241 ,0.87448 ,2.55736 ,25.09283 
153 ,28.2001 ,0.87611 ,2.54025 ,24.92494 
154 ,28.3763 ,0.87792 ,2.52656 ,24.79063 
155 ,28.5524 ,0.87966 ,2.51630 ,24.68989 
156 ,28.7444 ,0.88160 ,2.48892 ,24.42127 
157 ,28.9525 ,0.88353 ,2.48207 ,24.35411 
158 ,29.1447 ,0.88552 ,2.45127 ,24.05191 
159 ,29.3367 ,0.88748 ,2.44785 ,24.01833 
160 ,29.5605 ,0.88958 ,2.43416 ,23.88402 
161 ,29.7369 ,0.89148 ,2.41021 ,23.64897 
162 ,29.9290 ,0.89344 ,2.40336 ,23.58181 
163 ,30.1208 ,0.89529 ,2.37256 ,23.27961 
164 ,30.2972 ,0.89710 ,2.38283 ,23.38034 
165 ,30.4894 ,0.89909 ,2.33150 ,22.87667 
166 ,30.6651 ,0.90087 ,2.33834 ,22.94382 
167 ,30.8412 ,0.90249 ,2.29728 ,22.54088 
168 ,31.0333 ,0.90449 ,2.31097 ,22.67520 
169 ,31.2093 ,0.90618 ,2.27332 ,22.30584 
170 ,31.3854 ,0.90803 ,2.25621 ,22.13794 
171 ,31.5615 ,0.90973 ,2.23910 ,21.97005 
172 ,31.7377 ,0.91151 ,2.23226 ,21.90290 
173 ,31.9296 ,0.91341 ,2.21515 ,21.73500 
174 ,32.1378 ,0.91546 ,2.18777 ,21.46638 
175 ,32.3138 ,0.91727 ,2.18435 ,21.43280 
176 ,32.5059 ,0.91916 ,2.16381 ,21.23133 
177 ,32.6820 ,0.92091 ,2.14328 ,21.02986 
178 ,32.8578 ,0.92276 ,2.13986 ,20.99628 
179 ,33.0342 ,0.92448 ,2.12617 ,20.86197 
180 ,33.2101 ,0.92622 ,2.11590 ,20.76123 
181 ,33.3859 ,0.92801 ,2.08168 ,20.42545 
182 ,33.5624 ,0.92969 ,2.06457 ,20.25756 
183 ,33.7704 ,0.93177 ,2.06457 ,20.25756 
184 ,33.9787 ,0.93384 ,2.04746 ,20.08967 
185 ,34.1706 ,0.93579 ,2.03377 ,19.95535 
186 ,34.3468 ,0.93762 ,2.00639 ,19.68673 
187 ,34.5388 ,0.93948 ,1.98244 ,19.45168 
188 ,34.7149 ,0.94125 ,2.00297 ,19.65315 
189 ,34.9070 ,0.94314 ,1.95164 ,19.14948 
190 ,35.0990 ,0.94499 ,1.93111 ,18.94801 
191 ,35.3229 ,0.94724 ,1.91057 ,18.74654 
192 ,35.5148 ,0.94919 ,1.91057 ,18.74654 
193 ,35.6749 ,0.95098 ,1.90031 ,18.64580 
194 ,35.8512 ,0.95257 ,1.88662 ,18.51149 
195 ,36.0271 ,0.95435 ,1.86266 ,18.27644 
196 ,36.2194 ,0.95626 ,1.85582 ,18.20928 
197 ,36.3957 ,0.95808 ,1.85240 ,18.17570 
198 ,36.5877 ,0.95992 ,1.81817 ,17.83992 
199 ,36.8117 ,0.96210 ,1.81133 ,17.77276 
200 ,37.0037 ,0.96416 ,1.77369 ,17.40340 
201 ,37.1798 ,0.96585 ,1.77369 ,17.40340 
202 ,37.3880 ,0.96786 ,1.74631 ,17.13478 
203 ,37.5960 ,0.96993 ,1.73946 ,17.06762 
204 ,37.7880 ,0.97200 ,1.71893 ,16.86615 
205 ,37.9643 ,0.97373 ,1.70182 ,16.69826 
206 ,38.1560 ,0.97562 ,1.69840 ,16.66468 
207 ,38.3324 ,0.97747 ,1.67786 ,16.46321 
208 ,38.5246 ,0.97932 ,1.65391 ,16.22816 
209 ,38.7006 ,0.98112 ,1.63338 ,16.02669 
210 ,38.8923 ,0.98305 ,1.64022 ,16.09385 
211 ,39.0848 ,0.98480 ,1.62311 ,15.92596 
212 ,39.2765 ,0.98681 ,1.59231 ,15.62375 
213 ,39.4528 ,0.98863 ,1.59573 ,15.65733 
214 ,39.6448 ,0.99044 ,1.55467 ,15.25439 
215 ,39.8210 ,0.99225 ,1.55124 ,15.22081 
216 ,40.0130 ,0.99421 ,1.54782 ,15.18724 
217 ,40.1890 ,0.99598 ,1.53071 ,15.01934 
218 ,40.3652 ,0.99786 ,1.49991 ,14.71714 
219 ,40.5573 ,0.99965 ,1.50333 ,14.75072 
220 ,40.7492 ,1.00159 ,1.48622 ,14.58283 
221 ,40.9250 ,1.00335 ,1.46911 ,14.41493 
222 ,41.0851 ,1.00507 ,1.44858 ,14.21346 
223 ,41.2451 ,1.00668 ,1.43489 ,14.07915 
224 ,41.4052 ,1.00826 ,1.41436 ,13.87768 
225 ,41.5816 ,1.00993 ,1.40751 ,13.81053 
226 ,41.7741 ,1.01184 ,1.41778 ,13.91126 
227 ,41.9815 ,1.01383 ,1.37671 ,13.50832 
228 ,42.1580 ,1.01565 ,1.36303 ,13.37401 
229 ,42.3339 ,1.01746 ,1.36987 ,13.44116 
230 ,42.5102 ,1.01917 ,1.34934 ,13.23969 
231 ,42.7181 ,1.02118 ,1.32538 ,13.00465 
232 ,42.9102 ,1.02318 ,1.32538 ,13.00465 
233 ,43.0863 ,1.02495 ,1.28774 ,12.63528 
234 ,43.2625 ,1.02667 ,1.27063 ,12.46739 
235 ,43.4382 ,1.02847 ,1.26036 ,12.36666 
236 ,43.5986 ,1.03019 ,1.25694 ,12.33308 
237 ,43.7903 ,1.03198 ,1.25352 ,12.29950 
238 ,43.9667 ,1.03371 ,1.22956 ,12.06445 
239 ,44.1428 ,1.03546 ,1.20218 ,11.79583 
240 ,44.3192 ,1.03723 ,1.19534 ,11.72867 
241 ,44.4948 ,1.03900 ,1.18507 ,11.62794 
242 ,44.6709 ,1.04083 ,1.18507 ,11.62794 
243 ,44.8632 ,1.04271 ,1.14401 ,11.22500 
244 ,45.0392 ,1.04444 ,1.14743 ,11.25857 
245 ,45.2154 ,1.04623 ,1.13032 ,11.09068 
246 ,45.3914 ,1.04804 ,1.13032 ,11.09068 
247 ,45.5829 ,1.04988 ,1.09952 ,10.78848 
248 ,45.7755 ,1.05167 ,1.08925 ,10.68774 
249 ,45.9678 ,1.05374 ,1.08583 ,10.65416 
250 ,46.1437 ,1.05555 ,1.05845 ,10.38554 
251 ,46.3517 ,1.05753 ,1.04819 ,10.28480 
252 ,46.5277 ,1.05931 ,1.03450 ,10.15049 
253 ,46.7039 ,1.06107 ,1.01739 ,9.98260 
254 ,46.9120 ,1.06304 ,1.00370 ,9.84829 
255 ,47.0880 ,1.06496 ,0.99343 ,9.74755 
256 ,47.2640 ,1.06673 ,0.97290 ,9.54608 
257 ,47.4402 ,1.06846 ,0.94894 ,9.31103 
258 ,47.6323 ,1.07037 ,0.96263 ,9.44535 
259 ,47.8244 ,1.07228 ,0.93868 ,9.21030 
260 ,48.0165 ,1.07420 ,0.91472 ,8.97525 
261 ,48.1925 ,1.07603 ,0.91814 ,9.00883 
262 ,48.3847 ,1.07791 ,0.87708 ,8.60589 
263 ,48.5766 ,1.07979 ,0.88050 ,8.63947 
264 ,48.9286 ,1.08241 ,0.87023 ,8.53873 
265 ,49.1369 ,1.08525 ,0.84628 ,8.30368 
266 ,49.3450 ,1.08741 ,0.80863 ,7.93432 
267 ,49.5210 ,1.08933 ,0.79152 ,7.76643 
268 ,49.7131 ,1.09118 ,0.79837 ,7.83359 
269 ,49.9050 ,1.09309 ,0.77099 ,7.56496 
270 ,50.0975 ,1.09500 ,0.74704 ,7.32991 
271 ,50.2734 ,1.09683 ,0.75388 ,7.39707 
272 ,50.4651 ,1.09865 ,0.73335 ,7.19560 
273 ,50.6415 ,1.10045 ,0.70939 ,6.96055 
274 ,50.8176 ,1.10223 ,0.70597 ,6.92697 
275 ,51.0095 ,1.10416 ,0.70597 ,6.92697 
276 ,51.2017 ,1.10604 ,0.67517 ,6.62477 
277 ,51.4098 ,1.10803 ,0.67175 ,6.59119 
278 ,51.6017 ,1.11002 ,0.64095 ,6.28899 
279 ,51.8097 ,1.11204 ,0.64095 ,6.28899 
280 ,51.9700 ,1.11382 ,0.62726 ,6.15467 
281 ,52.1462 ,1.11550 ,0.60673 ,5.95320 
282 ,52.3222 ,1.11727 ,0.59988 ,5.88605 
283 ,52.4983 ,1.11908 ,0.57593 ,5.65100 
284 ,52.6902 ,1.12090 ,0.57593 ,5.65100 
285 ,52.8665 ,1.12270 ,0.56908 ,5.58384 
286 ,53.0585 ,1.12461 ,0.54513 ,5.34879 
287 ,53.2505 ,1.12647 ,0.53144 ,5.21448 
288 ,53.4267 ,1.12831 ,0.51091 ,5.01301 
289 ,53.6188 ,1.13025 ,0.51091 ,5.01301 
290 ,53.8107 ,1.13213 ,0.50748 ,4.97943 
291 ,54.0029 ,1.13393 ,0.49037 ,4.81154 
292 ,54.1950 ,1.13593 ,0.46300 ,4.54291 
293 ,54.3871 ,1.13786 ,0.46642 ,4.57649 
294 ,54.5789 ,1.13982 ,0.43562 ,4.27429 
295 ,54.7710 ,1.14169 ,0.41851 ,4.10640 
296 ,54.9793 ,1.14367 ,0.41166 ,4.03924 
297 ,55.1873 ,1.14577 ,0.42193 ,4.13997 
298 ,55.3633 ,1.14768 ,0.38771 ,3.80419 
299 ,55.5555 ,1.14944 ,0.35006 ,3.43483 
300 ,55.7473 ,1.15151 ,0.36033 ,3.53557 
301 ,55.9237 ,1.15328 ,0.33638 ,3.30052 
302 ,56.1314 ,1.15529 ,0.33980 ,3.33410 
303 ,56.3078 ,1.15714 ,0.32611 ,3.19978 
304 ,56.4999 ,1.15906 ,0.30215 ,2.96473 
305 ,56.6759 ,1.16078 ,0.29189 ,2.86400 
306 ,56.8520 ,1.16259 ,0.28504 ,2.79684 
307 ,57.0602 ,1.16450 ,0.26451 ,2.59537 
308 ,57.2358 ,1.16650 ,0.26109 ,2.56179 
309 ,57.4122 ,1.16813 ,0.23713 ,2.32675 
310 ,57.6042 ,1.17004 ,0.22687 ,2.22601 
311 ,57.7801 ,1.17182 ,0.21318 ,2.09170 
312 ,57.9885 ,1.17387 ,0.21318 ,2.09170 
313 ,58.1803 ,1.17584 ,0.18580 ,1.82307 
314 ,58.3566 ,1.17756 ,0.17896 ,1.75592 
315 ,58.5326 ,1.17929 ,0.17553 ,1.72234 
316 ,58.7087 ,1.18109 ,0.17553 ,1.72234 
317 ,58.8848 ,1.18288 ,0.16869 ,1.65518 
318 ,59.0608 ,1.18456 ,0.14816 ,1.45371 
319 ,59.2369 ,1.18638 ,0.12420 ,1.21866 
320 ,59.4130 ,1.18808 ,0.13789 ,1.35298 
321 ,59.5889 ,1.18992 ,0.10709 ,1.05077 
322 ,59.7649 ,1.19167 ,0.10025 ,0.98361 
323 ,59.9412 ,1.19337 ,0.06945 ,0.68141 
324 ,60.1334 ,1.19521 ,0.07971 ,0.78214 
325 ,60.3254 ,1.19724 ,0.04549 ,0.44636 
326 ,60.5015 ,1.19903 ,0.04549 ,0.44636 
327 ,60.6936 ,1.20100 ,0.03865 ,0.37920 
328 ,60.8854 ,1.20289 ,0.02496 ,0.24489 
329 ,61.0777 ,1.20479 ,-0.00242 ,-0.02373 
330 ,61.2696 ,1.20671 ,0.01127 ,0.11058 
331 ,61.4455 ,1.20847 ,-0.00584 ,-0.05731 
332 ,61.6218 ,1.21021 ,-0.02295 ,-0.22520 
333 ,61.8139 ,1.21209 ,-0.03664 ,-0.35952 
334 ,61.9898 ,1.21388 ,-0.04691 ,-0.46025 
335 ,62.1661 ,1.21566 ,-0.05375 ,-0.52741 
336 ,62.3422 ,1.21742 ,-0.08113 ,-0.79604 
337 ,62.5339 ,1.21936 ,-0.08455 ,-0.82961 
338 ,62.7103 ,1.22111 ,-0.08797 ,-0.86319 
339 ,62.9023 ,1.22295 ,-0.12904 ,-1.26613 
340 ,63.0785 ,1.22476 ,-0.12904 ,-1.26613 
341 ,63.2865 ,1.22669 ,-0.11877 ,-1.16540 
342 ,63.4787 ,1.22875 ,-0.14273 ,-1.40045 
343 ,63.6546 ,1.23059 ,-0.15299 ,-1.50118 
344 ,63.8147 ,1.23225 ,-0.14957 ,-1.46760 
345 ,63.9907 ,1.23385 ,-0.15984 ,-1.56834 
346 ,64.1830 ,1.23575 ,-0.16668 ,-1.63549 
347 ,64.3750 ,1.23768 ,-0.18722 ,-1.83696 
348 ,64.5510 ,1.23949 ,-0.19748 ,-1.93770 
349 ,64.7269 ,1.24125 ,-0.20775 ,-2.03843 
350 ,64.9189 ,1.24311 ,-0.24197 ,-2.37422 
351 ,65.0950 ,1.24494 ,-0.24197 ,-2.37422 
352 ,65.2550 ,1.24665 ,-0.24197 ,-2.37422 
353 ,65.4150 ,1.24825 ,-0.25566 ,-2.50853 
354 ,65.5750 ,1.24983 ,-0.25908 ,-2.54211 
355 ,65.7513 ,1.25150 ,-0.27961 ,-2.74358 
356 ,65.9272 ,1.25325 ,-0.28304 ,-2.77716 
357 ,66.1038 ,1.25504 ,-0.29673 ,-2.91147 
358 ,66.2956 ,1.25701 ,-0.30357 ,-2.97863 
359 ,66.4719 ,1.25870 ,-0.30699 ,-3.01220 
360 ,66.6638 ,1.26054 ,-0.33095 ,-3.24725 
361 ,66.8560 ,1.26255 ,-0.34464 ,-3.38156 
362 ,67.0480 ,1.26444 ,-0.34464 ,-3.38156 
363 ,67.2242 ,1.26621 ,-0.36175 ,-3.54946 
364 ,67.4002 ,1.26803 ,-0.37201 ,-3.65019 
365 ,67.5764 ,1.26974 ,-0.37886 ,-3.71735 
366 ,67.7685 ,1.27160 ,-0.39255 ,-3.85166 
367 ,67.9445 ,1.27345 ,-0.40281 ,-3.95240 
368 ,68.1366 ,1.27538 ,-0.41992 ,-4.12029 
369 ,68.3127 ,1.27707 ,-0.41308 ,-4.05313 
370 ,68.5047 ,1.27903 ,-0.44046 ,-4.32176 
371 ,68.6808 ,1.28077 ,-0.45414 ,-4.45607 
372 ,68.8886 ,1.28272 ,-0.45414 ,-4.45607 
373 ,69.0649 ,1.28465 ,-0.46783 ,-4.59038 
374 ,69.2409 ,1.28637 ,-0.47810 ,-4.69112 
375 ,69.4331 ,1.28829 ,-0.47126 ,-4.62396 
376 ,69.6252 ,1.29021 ,-0.49521 ,-4.85901 
377 ,69.8167 ,1.29205 ,-0.49521 ,-4.85901 
378 ,69.9934 ,1.29390 ,-0.50548 ,-4.95975 
379 ,70.1694 ,1.29567 ,-0.51917 ,-5.09406 
380 ,70.3615 ,1.29759 ,-0.54312 ,-5.32911 
381 ,70.5374 ,1.29938 ,-0.54997 ,-5.39626 
382 ,70.7294 ,1.30122 ,-0.53970 ,-5.29553 
383 ,70.9055 ,1.30304 ,-0.56365 ,-5.53058 
384 ,71.0979 ,1.30494 ,-0.57392 ,-5.63131 
385 ,71.3058 ,1.30689 ,-0.58761 ,-5.76562 
386 ,71.4819 ,1.30884 ,-0.59788 ,-5.86636 
387 ,71.6739 ,1.31072 ,-0.60130 ,-5.89994 
388 ,71.8500 ,1.31247 ,-0.60472 ,-5.93352 
389 ,72.0261 ,1.31425 ,-0.62868 ,-6.16856 
390 ,72.2021 ,1.31603 ,-0.63210 ,-6.20214 
391 ,72.4102 ,1.31798 ,-0.62525 ,-6.13499 
392 ,72.6022 ,1.31989 ,-0.66632 ,-6.53793 
393 ,72.7943 ,1.32193 ,-0.64579 ,-6.33646 
394 ,72.9865 ,1.32381 ,-0.68343 ,-6.70582 
395 ,73.1785 ,1.32575 ,-0.68001 ,-6.67224 
396 ,73.3546 ,1.32750 ,-0.68001 ,-6.67224 
397 ,73.5462 ,1.32941 ,-0.68685 ,-6.73940 
398 ,73.7227 ,1.33119 ,-0.72107 ,-7.07518 
399 ,73.8990 ,1.33293 ,-0.72450 ,-7.10876 
400 ,74.0910 ,1.33484 ,-0.72792 ,-7.14233 
401 ,74.2830 ,1.33681 ,-0.75187 ,-7.37738 
402 ,74.4906 ,1.33881 ,-0.75530 ,-7.41096 
403 ,74.6832 ,1.34066 ,-0.75530 ,-7.41096 
404 ,74.8754 ,1.34270 ,-0.76898 ,-7.54527 
405 ,75.0673 ,1.34457 ,-0.79636 ,-7.81390 
406 ,75.2430 ,1.34634 ,-0.80321 ,-7.88106 
407 ,75.4196 ,1.34817 ,-0.79636 ,-7.81390 
408 ,75.6116 ,1.35005 ,-0.79978 ,-7.84748 
409 ,75.8031 ,1.35204 ,-0.83743 ,-8.21684 
410 ,75.9957 ,1.35387 ,-0.82716 ,-8.11611 
411 ,76.1716 ,1.35561 ,-0.83058 ,-8.14968 
412 ,76.3476 ,1.35747 ,-0.85796 ,-8.41831 
413 ,76.5400 ,1.35935 ,-0.86138 ,-8.45189 
414 ,76.7321 ,1.36131 ,-0.85454 ,-8.38473 
415 ,76.9081 ,1.36302 ,-0.87849 ,-8.61978 
416 ,77.0840 ,1.36483 ,-0.89560 ,-8.78767 
417 ,77.2602 ,1.36653 ,-0.89903 ,-8.82125 
418 ,77.4361 ,1.36843 ,-0.90929 ,-8.92198 
419 ,77.6124 ,1.37009 ,-0.90587 ,-8.88841 
420 ,77.8043 ,1.37201 ,-0.92983 ,-9.12345 
421 ,77.9965 ,1.37392 ,-0.91614 ,-8.98914 
422 ,78.1726 ,1.37571 ,-0.92983 ,-9.12345 
423 ,78.3485 ,1.37743 ,-0.95720 ,-9.39208 
424 ,78.5407 ,1.37934 ,-0.96063 ,-9.42566 
425 ,78.7328 ,1.38124 ,-0.96063 ,-9.42566 
426 ,78.9089 ,1.38300 ,-0.97774 ,-9.59355 
427 ,79.1167 ,1.38503 ,-0.99143 ,-9.72786 
428 ,79.2931 ,1.38688 ,-0.98116 ,-9.62713 
429 ,79.5007 ,1.38888 ,-1.01196 ,-9.92933 
430 ,79.6772 ,1.39070 ,-1.00511 ,-9.86218 
431 ,79.8851 ,1.39274 ,-1.02565 ,-10.06365 
432 ,80.0612 ,1.39450 ,-1.04618 ,-10.26512 
433 ,80.2372 ,1.39634 ,-1.02565 ,-10.06365 
434 ,80.4135 ,1.39804 ,-1.04276 ,-10.23154 
435 ,80.6053 ,1.39998 ,-1.06329 ,-10.43301 
436 ,80.7815 ,1.40179 ,-1.07014 ,-10.50016 
437 ,80.9735 ,1.40367 ,-1.07356 ,-10.53374 
438 ,81.1657 ,1.40546 ,-1.08725 ,-10.66806 
439 ,81.3738 ,1.40761 ,-1.10093 ,-10.80237 
440 ,81.5657 ,1.40949 ,-1.10093 ,-10.80237 
441 ,81.7580 ,1.41150 ,-1.10436 ,-10.83595 
442 ,81.9820 ,1.41365 ,-1.11462 ,-10.93668 
443 ,82.1582 ,1.41552 ,-1.12147 ,-11.00384 
444 ,82.3500 ,1.41744 ,-1.13858 ,-11.17173 
445 ,82.5263 ,1.41916 ,-1.15227 ,-11.30604 
446 ,82.7181 ,1.42115 ,-1.13858 ,-11.17173 
447 ,82.8942 ,1.42290 ,-1.16253 ,-11.40678 
448 ,83.0703 ,1.42466 ,-1.17622 ,-11.54109 
449 ,83.2624 ,1.42642 ,-1.17622 ,-11.54109 
450 ,83.4546 ,1.42835 ,-1.16938 ,-11.47394 
451 ,83.6624 ,1.43046 ,-1.19676 ,-11.74256 
452 ,83.8386 ,1.43228 ,-1.17622 ,-11.54109 
453 ,84.0307 ,1.43422 ,-1.19676 ,-11.74256 
454 ,84.2067 ,1.43600 ,-1.18991 ,-11.67541 
455 ,84.3828 ,1.43769 ,-1.18649 ,-11.64183 
456 ,84.5590 ,1.43947 ,-1.18649 ,-11.64183 
457 ,84.7668 ,1.44154 ,-1.21044 ,-11.87688 
458 ,84.9271 ,1.44332 ,-1.21729 ,-11.94403 
459 ,85.1192 ,1.44505 ,-1.20018 ,-11.77614 
460 ,85.2955 ,1.44686 ,-1.22071 ,-11.97761 
461 ,85.5034 ,1.44891 ,-1.24467 ,-12.21266 
