Data stamp = , 04-04-2022 15:55:05 347

Calibration Values: 
Slope = , 26.54 , g/V 
Offset Voltage at no contact = , -0.501760 , V 

No , Time , Stage Position ,   Mass , Force 
   ,  (s) ,      (mm)      ,   (g)  , (mN)  

1 ,0.0000 ,0.59949 ,4.99737 ,49.03416 
2 ,0.2187 ,0.59958 ,5.00421 ,49.10132 
3 ,0.6032 ,0.60066 ,5.02132 ,49.26921 
4 ,0.8111 ,0.60251 ,5.01790 ,49.23563 
5 ,1.0033 ,0.60432 ,5.01448 ,49.20205 
6 ,1.1954 ,0.60615 ,5.00763 ,49.13490 
7 ,1.3872 ,0.60808 ,5.01448 ,49.20205 
8 ,1.5794 ,0.60994 ,5.00421 ,49.10132 
9 ,1.7873 ,0.61201 ,4.99737 ,49.03416 
10 ,1.9794 ,0.61410 ,4.96315 ,48.69838 
11 ,2.1555 ,0.61583 ,4.93919 ,48.46333 
12 ,2.3476 ,0.61773 ,4.95630 ,48.63122 
13 ,2.5399 ,0.61965 ,4.92208 ,48.29544 
14 ,2.7160 ,0.62140 ,4.91181 ,48.19471 
15 ,2.8922 ,0.62321 ,4.90839 ,48.16113 
16 ,3.0677 ,0.62491 ,4.88786 ,47.95966 
17 ,3.2441 ,0.62669 ,4.87759 ,47.85892 
18 ,3.4200 ,0.62844 ,4.86048 ,47.69103 
19 ,3.6121 ,0.63042 ,4.85021 ,47.59030 
20 ,3.7884 ,0.63217 ,4.83995 ,47.48956 
21 ,3.9644 ,0.63388 ,4.83310 ,47.42240 
22 ,4.1562 ,0.63583 ,4.79888 ,47.08662 
23 ,4.3327 ,0.63753 ,4.78519 ,46.95231 
24 ,4.5247 ,0.63944 ,4.78177 ,46.91873 
25 ,4.7329 ,0.64144 ,4.75439 ,46.65010 
26 ,4.9246 ,0.64347 ,4.75097 ,46.61653 
27 ,5.1008 ,0.64522 ,4.71675 ,46.28074 
28 ,5.2770 ,0.64698 ,4.70306 ,46.14643 
29 ,5.4532 ,0.64876 ,4.69622 ,46.07927 
30 ,5.6292 ,0.65057 ,4.68937 ,46.01212 
31 ,5.8053 ,0.65226 ,4.66199 ,45.74349 
32 ,5.9813 ,0.65406 ,4.63804 ,45.50844 
33 ,6.1572 ,0.65577 ,4.62435 ,45.37413 
34 ,6.3334 ,0.65755 ,4.61408 ,45.27339 
35 ,6.5094 ,0.65935 ,4.60040 ,45.13908 
36 ,6.6853 ,0.66106 ,4.57644 ,44.90403 
37 ,6.8616 ,0.66285 ,4.55249 ,44.66898 
38 ,7.0536 ,0.66478 ,4.54906 ,44.63541 
39 ,7.2458 ,0.66670 ,4.53537 ,44.50109 
40 ,7.4379 ,0.66857 ,4.49431 ,44.09815 
41 ,7.6458 ,0.67072 ,4.48404 ,43.99742 
42 ,7.8215 ,0.67257 ,4.45666 ,43.72879 
43 ,7.9981 ,0.67419 ,4.44298 ,43.59448 
44 ,8.1901 ,0.67609 ,4.43271 ,43.49374 
45 ,8.3659 ,0.67788 ,4.42929 ,43.46016 
46 ,8.5422 ,0.67966 ,4.39849 ,43.15796 
47 ,8.7343 ,0.68155 ,4.39507 ,43.12438 
48 ,8.9101 ,0.68329 ,4.36769 ,42.85576 
49 ,9.0865 ,0.68508 ,4.36427 ,42.82218 
50 ,9.2624 ,0.68686 ,4.33347 ,42.51997 
51 ,9.4383 ,0.68861 ,4.31636 ,42.35208 
52 ,9.6144 ,0.69031 ,4.30609 ,42.25135 
53 ,9.8068 ,0.69222 ,4.29240 ,42.11703 
54 ,9.9987 ,0.69422 ,4.27871 ,41.98272 
55 ,10.1910 ,0.69611 ,4.27529 ,41.94914 
56 ,10.3829 ,0.69801 ,4.24107 ,41.61336 
57 ,10.5591 ,0.69982 ,4.22053 ,41.41189 
58 ,10.7348 ,0.70157 ,4.21027 ,41.31115 
59 ,10.9113 ,0.70334 ,4.19658 ,41.17684 
60 ,11.1031 ,0.70525 ,4.17262 ,40.94179 
61 ,11.2795 ,0.70705 ,4.15894 ,40.80748 
62 ,11.4554 ,0.70877 ,4.15551 ,40.77390 
63 ,11.6315 ,0.71065 ,4.13498 ,40.57243 
64 ,11.8078 ,0.71232 ,4.13156 ,40.53885 
65 ,11.9837 ,0.71409 ,4.10760 ,40.30380 
66 ,12.1594 ,0.71591 ,4.09734 ,40.20307 
67 ,12.3356 ,0.71767 ,4.08707 ,40.10233 
68 ,12.5118 ,0.71933 ,4.06654 ,39.90087 
69 ,12.7038 ,0.72124 ,4.02547 ,39.49793 
70 ,12.8802 ,0.72304 ,4.00836 ,39.33003 
71 ,13.0720 ,0.72492 ,4.01520 ,39.39719 
72 ,13.2482 ,0.72666 ,3.99467 ,39.19572 
73 ,13.4722 ,0.72879 ,3.96729 ,38.92709 
74 ,13.6641 ,0.73088 ,3.94334 ,38.69205 
75 ,13.8565 ,0.73276 ,3.93307 ,38.59131 
76 ,14.0325 ,0.73451 ,3.92965 ,38.55773 
77 ,14.2245 ,0.73642 ,3.91254 ,38.38984 
78 ,14.4170 ,0.73838 ,3.88858 ,38.15479 
79 ,14.6087 ,0.74031 ,3.87832 ,38.05406 
80 ,14.7684 ,0.74201 ,3.86121 ,37.88617 
81 ,14.9450 ,0.74366 ,3.83725 ,37.65112 
82 ,15.1368 ,0.74563 ,3.81672 ,37.44965 
83 ,15.3292 ,0.74742 ,3.78592 ,37.14744 
84 ,15.5051 ,0.74924 ,3.78250 ,37.11387 
85 ,15.6809 ,0.75099 ,3.76539 ,36.94597 
86 ,15.8573 ,0.75280 ,3.74485 ,36.74450 
87 ,16.0334 ,0.75455 ,3.73801 ,36.67735 
88 ,16.2251 ,0.75643 ,3.71405 ,36.44230 
89 ,16.4015 ,0.75821 ,3.68668 ,36.17367 
90 ,16.5775 ,0.75994 ,3.69010 ,36.20725 
91 ,16.7538 ,0.76170 ,3.67641 ,36.07294 
92 ,16.9297 ,0.76348 ,3.65588 ,35.87147 
93 ,17.1059 ,0.76529 ,3.64219 ,35.73716 
94 ,17.2980 ,0.76710 ,3.61823 ,35.50211 
95 ,17.4741 ,0.76895 ,3.61481 ,35.46853 
96 ,17.6502 ,0.77074 ,3.60797 ,35.40137 
97 ,17.8262 ,0.77250 ,3.58059 ,35.13275 
98 ,18.0182 ,0.77434 ,3.57032 ,35.03201 
99 ,18.2104 ,0.77629 ,3.55663 ,34.89770 
100 ,18.3863 ,0.77804 ,3.52584 ,34.59549 
101 ,18.5784 ,0.77992 ,3.51899 ,34.52834 
102 ,18.7543 ,0.78172 ,3.50188 ,34.36045 
103 ,18.9467 ,0.78365 ,3.47450 ,34.09182 
104 ,19.1384 ,0.78549 ,3.46766 ,34.02466 
105 ,19.3149 ,0.78737 ,3.45055 ,33.85677 
106 ,19.5071 ,0.78930 ,3.42659 ,33.62172 
107 ,19.6831 ,0.79103 ,3.40948 ,33.45383 
108 ,19.8590 ,0.79279 ,3.37868 ,33.15163 
109 ,20.0351 ,0.79450 ,3.39579 ,33.31952 
110 ,20.2272 ,0.79648 ,3.35815 ,32.95016 
111 ,20.4351 ,0.79846 ,3.34788 ,32.84942 
112 ,20.6274 ,0.80043 ,3.32735 ,32.64795 
113 ,20.8034 ,0.80222 ,3.30682 ,32.44648 
114 ,20.9953 ,0.80412 ,3.29997 ,32.37933 
115 ,21.1715 ,0.80585 ,3.27602 ,32.14428 
116 ,21.3475 ,0.80760 ,3.25548 ,31.94281 
117 ,21.5237 ,0.80940 ,3.24864 ,31.87565 
118 ,21.6994 ,0.81119 ,3.24180 ,31.80849 
119 ,21.8758 ,0.81291 ,3.23837 ,31.77492 
120 ,22.0678 ,0.81476 ,3.20415 ,31.43913 
121 ,22.2438 ,0.81667 ,3.17677 ,31.17051 
122 ,22.4202 ,0.81840 ,3.16651 ,31.06977 
123 ,22.6281 ,0.82039 ,3.15282 ,30.93546 
124 ,22.8043 ,0.82224 ,3.12544 ,30.66683 
125 ,22.9963 ,0.82415 ,3.12886 ,30.70041 
126 ,23.1722 ,0.82589 ,3.09464 ,30.36463 
127 ,23.3484 ,0.82769 ,3.08438 ,30.26389 
128 ,23.5246 ,0.82944 ,3.05700 ,29.99527 
129 ,23.7166 ,0.83133 ,3.06384 ,30.06242 
130 ,23.8926 ,0.83304 ,3.03647 ,29.79380 
131 ,24.0687 ,0.83486 ,3.01251 ,29.55875 
132 ,24.2448 ,0.83659 ,2.99198 ,29.35728 
133 ,24.4050 ,0.83833 ,2.99198 ,29.35728 
134 ,24.5809 ,0.83995 ,2.98171 ,29.25654 
135 ,24.7571 ,0.84172 ,2.97487 ,29.18939 
136 ,24.9330 ,0.84353 ,2.94749 ,28.92076 
137 ,25.1253 ,0.84543 ,2.93038 ,28.75287 
138 ,25.3012 ,0.84719 ,2.92011 ,28.65213 
139 ,25.4773 ,0.84904 ,2.89958 ,28.45066 
140 ,25.6535 ,0.85075 ,2.88931 ,28.34993 
141 ,25.8293 ,0.85245 ,2.85851 ,28.04772 
142 ,26.0055 ,0.85422 ,2.84140 ,27.87983 
143 ,26.1813 ,0.85594 ,2.83456 ,27.81268 
144 ,26.3577 ,0.85773 ,2.83114 ,27.77910 
145 ,26.5334 ,0.85945 ,2.79691 ,27.44332 
146 ,26.7100 ,0.86124 ,2.78322 ,27.30900 
147 ,26.9020 ,0.86314 ,2.77980 ,27.27542 
148 ,27.0942 ,0.86502 ,2.74900 ,26.97322 
149 ,27.2702 ,0.86684 ,2.72505 ,26.73817 
150 ,27.4620 ,0.86872 ,2.72505 ,26.73817 
151 ,27.6222 ,0.87047 ,2.71136 ,26.60386 
152 ,27.7982 ,0.87216 ,2.70109 ,26.50312 
153 ,27.9744 ,0.87391 ,2.67372 ,26.23450 
154 ,28.1505 ,0.87564 ,2.65660 ,26.06661 
155 ,28.3426 ,0.87759 ,2.64976 ,25.99945 
156 ,28.5344 ,0.87947 ,2.63265 ,25.83156 
157 ,28.7109 ,0.88124 ,2.60527 ,25.56293 
158 ,28.9028 ,0.88324 ,2.60185 ,25.52935 
159 ,29.0948 ,0.88507 ,2.56421 ,25.15999 
160 ,29.2868 ,0.88704 ,2.54367 ,24.95852 
161 ,29.4791 ,0.88893 ,2.54710 ,24.99210 
162 ,29.6713 ,0.89086 ,2.51630 ,24.68989 
163 ,29.8630 ,0.89271 ,2.49918 ,24.52200 
164 ,30.0390 ,0.89450 ,2.50261 ,24.55558 
165 ,30.2151 ,0.89631 ,2.48550 ,24.38769 
166 ,30.3911 ,0.89806 ,2.45470 ,24.08549 
167 ,30.5514 ,0.89976 ,2.44443 ,23.98475 
168 ,30.7272 ,0.90150 ,2.43759 ,23.91759 
169 ,30.9196 ,0.90323 ,2.41021 ,23.64897 
170 ,31.1277 ,0.90535 ,2.39652 ,23.51465 
171 ,31.3037 ,0.90721 ,2.36230 ,23.17887 
172 ,31.4797 ,0.90890 ,2.37599 ,23.31318 
173 ,31.6718 ,0.91084 ,2.35203 ,23.07814 
174 ,31.8479 ,0.91271 ,2.33492 ,22.91024 
175 ,32.0241 ,0.91435 ,2.32123 ,22.77593 
176 ,32.1997 ,0.91612 ,2.31097 ,22.67520 
177 ,32.3596 ,0.91785 ,2.29043 ,22.47373 
178 ,32.5518 ,0.91956 ,2.27674 ,22.33941 
179 ,32.7278 ,0.92154 ,2.24594 ,22.03721 
180 ,32.9040 ,0.92322 ,2.25963 ,22.17152 
181 ,33.0799 ,0.92491 ,2.23226 ,21.90290 
182 ,33.2560 ,0.92671 ,2.20146 ,21.60069 
183 ,33.4321 ,0.92851 ,2.20146 ,21.60069 
184 ,33.6404 ,0.93036 ,2.19461 ,21.53353 
185 ,33.8806 ,0.93285 ,2.14670 ,21.06344 
186 ,34.0886 ,0.93499 ,2.12959 ,20.89555 
187 ,34.3126 ,0.93718 ,2.10906 ,20.69408 
188 ,34.4889 ,0.93902 ,2.09537 ,20.55976 
189 ,34.6809 ,0.94088 ,2.09879 ,20.59334 
190 ,34.8570 ,0.94266 ,2.06457 ,20.25756 
191 ,35.0171 ,0.94441 ,2.05773 ,20.19040 
192 ,35.1931 ,0.94609 ,2.05430 ,20.15682 
193 ,35.3691 ,0.94779 ,2.01666 ,19.78746 
194 ,35.5613 ,0.94973 ,2.01666 ,19.78746 
195 ,35.7371 ,0.95152 ,2.00639 ,19.68673 
196 ,35.9133 ,0.95323 ,1.98928 ,19.51884 
197 ,36.0893 ,0.95502 ,1.96533 ,19.28379 
198 ,36.2655 ,0.95681 ,1.93111 ,18.94801 
199 ,36.4417 ,0.95855 ,1.93795 ,19.01516 
200 ,36.6338 ,0.96044 ,1.91399 ,18.78011 
201 ,36.8259 ,0.96240 ,1.91057 ,18.74654 
202 ,37.0338 ,0.96445 ,1.90373 ,18.67938 
203 ,37.2103 ,0.96627 ,1.87977 ,18.44433 
204 ,37.3861 ,0.96798 ,1.86608 ,18.31002 
205 ,37.5780 ,0.96990 ,1.83528 ,18.00781 
206 ,37.7542 ,0.97169 ,1.82502 ,17.90708 
207 ,37.9623 ,0.97362 ,1.81475 ,17.80634 
208 ,38.1544 ,0.97563 ,1.78737 ,17.53772 
209 ,38.3461 ,0.97758 ,1.79080 ,17.57129 
210 ,38.5386 ,0.97943 ,1.75315 ,17.20193 
211 ,38.7304 ,0.98146 ,1.74973 ,17.16836 
212 ,38.9064 ,0.98327 ,1.73604 ,17.03404 
213 ,39.0826 ,0.98496 ,1.72235 ,16.89973 
214 ,39.2590 ,0.98674 ,1.71209 ,16.79899 
215 ,39.4510 ,0.98853 ,1.69155 ,16.59752 
216 ,39.6431 ,0.99057 ,1.66760 ,16.36248 
217 ,39.8348 ,0.99235 ,1.66760 ,16.36248 
218 ,40.0593 ,0.99461 ,1.62995 ,15.99311 
219 ,40.2990 ,0.99695 ,1.62653 ,15.95954 
220 ,40.5554 ,0.99939 ,1.59573 ,15.65733 
221 ,40.8272 ,1.00219 ,1.57178 ,15.42228 
222 ,41.0034 ,1.00420 ,1.55809 ,15.28797 
223 ,41.1957 ,1.00596 ,1.54782 ,15.18724 
224 ,41.4034 ,1.00805 ,1.53756 ,15.08650 
225 ,41.5638 ,1.00987 ,1.53071 ,15.01934 
226 ,41.7399 ,1.01151 ,1.49991 ,14.71714 
227 ,41.9318 ,1.01339 ,1.49307 ,14.64998 
228 ,42.1082 ,1.01523 ,1.46227 ,14.34778 
229 ,42.3001 ,1.01708 ,1.46911 ,14.41493 
230 ,42.4923 ,1.01901 ,1.43489 ,14.07915 
231 ,42.6839 ,1.02089 ,1.42462 ,13.97842 
232 ,42.8601 ,1.02275 ,1.41778 ,13.91126 
233 ,43.0685 ,1.02468 ,1.39383 ,13.67621 
234 ,43.2604 ,1.02669 ,1.38014 ,13.54190 
235 ,43.4526 ,1.02867 ,1.34934 ,13.23969 
236 ,43.6443 ,1.03055 ,1.36303 ,13.37401 
237 ,43.8207 ,1.03228 ,1.35618 ,13.30685 
238 ,44.0289 ,1.03428 ,1.33223 ,13.07180 
239 ,44.2207 ,1.03632 ,1.31512 ,12.90391 
240 ,44.4132 ,1.03822 ,1.28089 ,12.56813 
241 ,44.6211 ,1.04018 ,1.27747 ,12.53455 
242 ,44.7971 ,1.04207 ,1.27063 ,12.46739 
243 ,44.9893 ,1.04396 ,1.24325 ,12.19877 
244 ,45.1653 ,1.04581 ,1.24667 ,12.23235 
245 ,45.3575 ,1.04768 ,1.20903 ,11.86298 
246 ,45.5654 ,1.04966 ,1.21587 ,11.93014 
247 ,45.7411 ,1.05147 ,1.19534 ,11.72867 
248 ,45.9174 ,1.05326 ,1.17823 ,11.56078 
249 ,46.1098 ,1.05517 ,1.15770 ,11.35931 
250 ,46.2856 ,1.05696 ,1.15427 ,11.32573 
251 ,46.4778 ,1.05877 ,1.14401 ,11.22500 
252 ,46.6696 ,1.06082 ,1.10294 ,10.82206 
253 ,46.8455 ,1.06253 ,1.11321 ,10.92279 
254 ,47.0220 ,1.06428 ,1.09267 ,10.72132 
255 ,47.1981 ,1.06607 ,1.05845 ,10.38554 
256 ,47.3740 ,1.06782 ,1.05503 ,10.35196 
257 ,47.5661 ,1.06976 ,1.04819 ,10.28480 
258 ,47.7583 ,1.07167 ,1.02081 ,10.01618 
259 ,47.9503 ,1.07355 ,1.00370 ,9.84829 
260 ,48.1262 ,1.07533 ,1.01739 ,9.98260 
261 ,48.3024 ,1.07721 ,0.98317 ,9.64682 
262 ,48.4786 ,1.07882 ,0.96605 ,9.47892 
263 ,48.6545 ,1.08066 ,0.95579 ,9.37819 
264 ,48.8467 ,1.08248 ,0.96263 ,9.44535 
265 ,49.0388 ,1.08452 ,0.91814 ,9.00883 
266 ,49.2309 ,1.08635 ,0.91472 ,8.97525 
267 ,49.4230 ,1.08831 ,0.90788 ,8.90809 
268 ,49.6152 ,1.09022 ,0.88050 ,8.63947 
269 ,49.8072 ,1.09213 ,0.88734 ,8.70662 
270 ,50.0308 ,1.09425 ,0.86339 ,8.47158 
271 ,50.2072 ,1.09618 ,0.83943 ,8.23653 
272 ,50.3994 ,1.09808 ,0.83943 ,8.23653 
273 ,50.5752 ,1.09984 ,0.81890 ,8.03506 
274 ,50.7673 ,1.10165 ,0.80179 ,7.86717 
275 ,50.9437 ,1.10354 ,0.78810 ,7.73285 
276 ,51.1356 ,1.10538 ,0.76415 ,7.49780 
277 ,51.3116 ,1.10722 ,0.75046 ,7.36349 
278 ,51.4875 ,1.10897 ,0.72992 ,7.16202 
279 ,51.6796 ,1.11076 ,0.76072 ,7.46423 
280 ,51.8720 ,1.11277 ,0.72308 ,7.09486 
281 ,52.0799 ,1.11480 ,0.71281 ,6.99413 
282 ,52.2561 ,1.11659 ,0.68886 ,6.75908 
283 ,52.4641 ,1.11860 ,0.67859 ,6.65835 
284 ,52.6563 ,1.12064 ,0.65806 ,6.45688 
285 ,52.8480 ,1.12251 ,0.63753 ,6.25541 
286 ,53.0404 ,1.12440 ,0.64437 ,6.32256 
287 ,53.2162 ,1.12620 ,0.61357 ,6.02036 
288 ,53.3928 ,1.12799 ,0.59304 ,5.81889 
289 ,53.5843 ,1.12982 ,0.61015 ,5.98678 
290 ,53.7926 ,1.13187 ,0.56908 ,5.58384 
291 ,53.9687 ,1.13373 ,0.56566 ,5.55026 
292 ,54.1288 ,1.13544 ,0.54855 ,5.38237 
293 ,54.3046 ,1.13707 ,0.55197 ,5.41595 
294 ,54.4807 ,1.13886 ,0.52802 ,5.18090 
295 ,54.6567 ,1.14063 ,0.50748 ,4.97943 
296 ,54.8328 ,1.14234 ,0.49380 ,4.84512 
297 ,55.0251 ,1.14421 ,0.48695 ,4.77796 
298 ,55.2334 ,1.14627 ,0.46984 ,4.61007 
299 ,55.4097 ,1.14816 ,0.46300 ,4.54291 
300 ,55.6013 ,1.15007 ,0.44931 ,4.40860 
301 ,55.7775 ,1.15183 ,0.42535 ,4.17355 
302 ,55.9537 ,1.15358 ,0.41509 ,4.07282 
303 ,56.1456 ,1.15551 ,0.41509 ,4.07282 
304 ,56.3378 ,1.15736 ,0.41166 ,4.03924 
305 ,56.5298 ,1.15937 ,0.39113 ,3.83777 
306 ,56.7218 ,1.16129 ,0.38086 ,3.73703 
307 ,56.9298 ,1.16328 ,0.35349 ,3.46841 
308 ,57.1221 ,1.16517 ,0.35349 ,3.46841 
309 ,57.3139 ,1.16723 ,0.32611 ,3.19978 
310 ,57.4898 ,1.16895 ,0.31584 ,3.09905 
311 ,57.6660 ,1.17064 ,0.32269 ,3.16620 
312 ,57.8422 ,1.17249 ,0.31926 ,3.13263 
313 ,58.0191 ,1.17422 ,0.28504 ,2.79684 
314 ,58.2103 ,1.17607 ,0.25767 ,2.52822 
315 ,58.4022 ,1.17805 ,0.25082 ,2.46106 
316 ,58.5944 ,1.17996 ,0.23713 ,2.32675 
317 ,58.7863 ,1.18189 ,0.24055 ,2.36032 
318 ,58.9623 ,1.18365 ,0.24055 ,2.36032 
319 ,59.1387 ,1.18547 ,0.20976 ,2.05812 
320 ,59.3308 ,1.18731 ,0.20633 ,2.02454 
321 ,59.5230 ,1.18919 ,0.18238 ,1.78949 
322 ,59.7151 ,1.19120 ,0.16185 ,1.58802 
323 ,59.9071 ,1.19313 ,0.16869 ,1.65518 
324 ,60.0989 ,1.19502 ,0.14473 ,1.42013 
325 ,60.2749 ,1.19681 ,0.13447 ,1.31940 
326 ,60.4511 ,1.19853 ,0.11736 ,1.15151 
327 ,60.6271 ,1.20030 ,0.10025 ,0.98361 
328 ,60.8193 ,1.20216 ,0.09340 ,0.91646 
329 ,61.0114 ,1.20409 ,0.08314 ,0.81572 
330 ,61.2034 ,1.20601 ,0.08656 ,0.84930 
331 ,61.3794 ,1.20789 ,0.06945 ,0.68141 
332 ,61.5557 ,1.20964 ,0.04891 ,0.47994 
333 ,61.7478 ,1.21151 ,0.06602 ,0.64783 
334 ,61.9396 ,1.21339 ,0.03522 ,0.34563 
335 ,62.1321 ,1.21530 ,0.02838 ,0.27847 
336 ,62.3081 ,1.21710 ,0.01811 ,0.17773 
337 ,62.5003 ,1.21888 ,0.00785 ,0.07700 
338 ,62.6923 ,1.22095 ,-0.02295 ,-0.22520 
339 ,62.9004 ,1.22298 ,-0.03322 ,-0.32594 
340 ,63.0924 ,1.22499 ,-0.04006 ,-0.39310 
341 ,63.2684 ,1.22675 ,-0.04348 ,-0.42667 
342 ,63.4607 ,1.22862 ,-0.08797 ,-0.86319 
343 ,63.6366 ,1.23038 ,-0.08455 ,-0.82961 
344 ,63.8124 ,1.23212 ,-0.07428 ,-0.72888 
345 ,63.9888 ,1.23392 ,-0.08797 ,-0.86319 
346 ,64.1807 ,1.23577 ,-0.11535 ,-1.13182 
347 ,64.3730 ,1.23776 ,-0.11193 ,-1.09824 
348 ,64.5810 ,1.23968 ,-0.13246 ,-1.29971 
349 ,64.7891 ,1.24182 ,-0.16326 ,-1.60191 
350 ,64.9652 ,1.24378 ,-0.14957 ,-1.46760 
351 ,65.1413 ,1.24539 ,-0.16326 ,-1.60191 
352 ,65.3333 ,1.24727 ,-0.17695 ,-1.73623 
353 ,65.5094 ,1.24914 ,-0.18037 ,-1.76981 
354 ,65.6855 ,1.25083 ,-0.19748 ,-1.93770 
355 ,65.8616 ,1.25267 ,-0.21117 ,-2.07201 
356 ,66.0537 ,1.25446 ,-0.20775 ,-2.03843 
357 ,66.2457 ,1.25646 ,-0.21459 ,-2.10559 
358 ,66.4379 ,1.25838 ,-0.23855 ,-2.34064 
359 ,66.6460 ,1.26035 ,-0.24539 ,-2.40779 
360 ,66.8381 ,1.26237 ,-0.26935 ,-2.64284 
361 ,67.0298 ,1.26437 ,-0.27961 ,-2.74358 
362 ,67.2062 ,1.26612 ,-0.28304 ,-2.77716 
363 ,67.4145 ,1.26818 ,-0.28304 ,-2.77716 
364 ,67.5904 ,1.26990 ,-0.30015 ,-2.94505 
365 ,67.7823 ,1.27181 ,-0.31041 ,-3.04578 
366 ,67.9585 ,1.27360 ,-0.32752 ,-3.21367 
367 ,68.1506 ,1.27548 ,-0.34121 ,-3.34799 
368 ,68.3266 ,1.27720 ,-0.34806 ,-3.41514 
369 ,68.5028 ,1.27901 ,-0.35490 ,-3.48230 
370 ,68.6783 ,1.28081 ,-0.37544 ,-3.68377 
371 ,68.8547 ,1.28252 ,-0.37201 ,-3.65019 
372 ,69.0307 ,1.28431 ,-0.37201 ,-3.65019 
373 ,69.2229 ,1.28619 ,-0.40966 ,-4.01955 
374 ,69.3990 ,1.28800 ,-0.41992 ,-4.12029 
375 ,69.5912 ,1.28994 ,-0.39939 ,-3.91882 
376 ,69.7671 ,1.29169 ,-0.41650 ,-4.08671 
377 ,69.9592 ,1.29345 ,-0.41992 ,-4.12029 
378 ,70.1513 ,1.29552 ,-0.43361 ,-4.25460 
379 ,70.3274 ,1.29727 ,-0.44388 ,-4.35534 
380 ,70.5355 ,1.29919 ,-0.45757 ,-4.48965 
381 ,70.7435 ,1.30136 ,-0.49521 ,-4.85901 
382 ,70.9199 ,1.30319 ,-0.49521 ,-4.85901 
383 ,71.0958 ,1.30496 ,-0.51232 ,-5.02690 
384 ,71.2716 ,1.30676 ,-0.47810 ,-4.69112 
385 ,71.4639 ,1.30858 ,-0.51917 ,-5.09406 
386 ,71.6558 ,1.31050 ,-0.53628 ,-5.26195 
387 ,71.8321 ,1.31231 ,-0.54312 ,-5.32911 
388 ,72.0402 ,1.31434 ,-0.52943 ,-5.19479 
389 ,72.2163 ,1.31611 ,-0.56365 ,-5.53058 
390 ,72.3923 ,1.31799 ,-0.56023 ,-5.49700 
391 ,72.5684 ,1.31969 ,-0.56023 ,-5.49700 
392 ,72.7279 ,1.32139 ,-0.56708 ,-5.56415 
393 ,72.9203 ,1.32318 ,-0.58419 ,-5.73205 
394 ,73.0962 ,1.32493 ,-0.59788 ,-5.86636 
395 ,73.3045 ,1.32689 ,-0.60130 ,-5.89994 
396 ,73.4967 ,1.32893 ,-0.62525 ,-6.13499 
397 ,73.6728 ,1.33072 ,-0.62525 ,-6.13499 
398 ,73.8809 ,1.33275 ,-0.64579 ,-6.33646 
399 ,74.0888 ,1.33477 ,-0.63552 ,-6.23572 
400 ,74.2651 ,1.33665 ,-0.65947 ,-6.47077 
401 ,74.4568 ,1.33850 ,-0.67316 ,-6.60508 
402 ,74.6332 ,1.34030 ,-0.66974 ,-6.57150 
403 ,74.8250 ,1.34223 ,-0.69027 ,-6.77297 
404 ,75.0012 ,1.34400 ,-0.70054 ,-6.87371 
405 ,75.1934 ,1.34583 ,-0.68685 ,-6.73940 
406 ,75.3694 ,1.34771 ,-0.70396 ,-6.90729 
407 ,75.5453 ,1.34946 ,-0.71423 ,-7.00802 
408 ,75.7372 ,1.35131 ,-0.72792 ,-7.14233 
409 ,75.9294 ,1.35322 ,-0.72792 ,-7.14233 
410 ,76.1056 ,1.35500 ,-0.75872 ,-7.44454 
411 ,76.2818 ,1.35678 ,-0.77241 ,-7.57885 
412 ,76.4579 ,1.35852 ,-0.78267 ,-7.67959 
413 ,76.6657 ,1.36058 ,-0.78267 ,-7.67959 
414 ,76.8421 ,1.36241 ,-0.79636 ,-7.81390 
415 ,77.0182 ,1.36418 ,-0.80321 ,-7.88106 
416 ,77.1941 ,1.36592 ,-0.81005 ,-7.94821 
417 ,77.3703 ,1.36767 ,-0.81347 ,-7.98179 
418 ,77.5625 ,1.36956 ,-0.84085 ,-8.25042 
419 ,77.7384 ,1.37133 ,-0.84427 ,-8.28400 
420 ,77.9148 ,1.37308 ,-0.84427 ,-8.28400 
421 ,78.0906 ,1.37485 ,-0.84427 ,-8.28400 
422 ,78.2667 ,1.37666 ,-0.87165 ,-8.55262 
423 ,78.4587 ,1.37856 ,-0.87849 ,-8.61978 
424 ,78.6348 ,1.38028 ,-0.88192 ,-8.65336 
425 ,78.8110 ,1.38205 ,-0.88192 ,-8.65336 
426 ,79.0030 ,1.38398 ,-0.91614 ,-8.98914 
427 ,79.1791 ,1.38579 ,-0.92298 ,-9.05630 
428 ,79.3712 ,1.38767 ,-0.91956 ,-9.02272 
429 ,79.5632 ,1.38955 ,-0.93667 ,-9.19061 
430 ,79.7392 ,1.39135 ,-0.94694 ,-9.29135 
431 ,79.9153 ,1.39307 ,-0.94009 ,-9.22419 
432 ,80.0914 ,1.39488 ,-0.95720 ,-9.39208 
433 ,80.2835 ,1.39664 ,-0.96747 ,-9.49282 
434 ,80.5075 ,1.39898 ,-0.96747 ,-9.49282 
435 ,80.6992 ,1.40094 ,-0.99143 ,-9.72786 
436 ,80.8753 ,1.40268 ,-0.98116 ,-9.62713 
437 ,81.0518 ,1.40450 ,-1.00511 ,-9.86218 
438 ,81.2438 ,1.40638 ,-1.02565 ,-10.06365 
439 ,81.4198 ,1.40813 ,-1.02222 ,-10.03007 
440 ,81.5959 ,1.40991 ,-1.01880 ,-9.99649 
441 ,81.7719 ,1.41163 ,-1.02565 ,-10.06365 
442 ,81.9478 ,1.41338 ,-1.03934 ,-10.19796 
443 ,82.1242 ,1.41521 ,-1.04960 ,-10.29869 
444 ,82.3164 ,1.41712 ,-1.04960 ,-10.29869 
445 ,82.4922 ,1.41884 ,-1.05302 ,-10.33227 
446 ,82.6685 ,1.42061 ,-1.08382 ,-10.63448 
447 ,82.8446 ,1.42241 ,-1.08382 ,-10.63448 
448 ,83.0362 ,1.42432 ,-1.11120 ,-10.90310 
449 ,83.2285 ,1.42616 ,-1.10093 ,-10.80237 
450 ,83.3886 ,1.42791 ,-1.12489 ,-11.03742 
451 ,83.5809 ,1.42966 ,-1.12831 ,-11.07100 
452 ,83.7568 ,1.43154 ,-1.12831 ,-11.07100 
453 ,83.9487 ,1.43342 ,-1.13858 ,-11.17173 
454 ,84.1569 ,1.43542 ,-1.13173 ,-11.10457 
455 ,84.3331 ,1.43727 ,-1.14542 ,-11.23889 
456 ,84.5092 ,1.43905 ,-1.16253 ,-11.40678 
457 ,84.6853 ,1.44081 ,-1.17280 ,-11.50751 
458 ,84.8933 ,1.44270 ,-1.18991 ,-11.67541 
459 ,85.0946 ,1.44480 ,-1.18649 ,-11.64183 
460 ,85.2770 ,1.44671 ,-1.20360 ,-11.80972 
461 ,85.4532 ,1.44845 ,-1.21387 ,-11.91045 
