Data stamp = , 04-04-2022 20:27:56 204

Calibration Values: 
Slope = , 26.54 , g/V 
Offset Voltage at no contact = , -0.501760 , V 

No , Time , Stage Position ,   Mass , Force 
   ,  (s) ,      (mm)      ,   (g)  , (mN)  

1 ,0.0000 ,0.59952 ,5.00421 ,49.10132 
2 ,0.2146 ,0.59959 ,5.02474 ,49.30279 
3 ,0.5353 ,0.60043 ,5.00079 ,49.06774 
4 ,0.7434 ,0.60190 ,4.99737 ,49.03416 
5 ,0.9510 ,0.60379 ,4.99737 ,49.03416 
6 ,1.1273 ,0.60556 ,5.00421 ,49.10132 
7 ,1.3196 ,0.60741 ,5.02132 ,49.26921 
8 ,1.4954 ,0.60914 ,5.01790 ,49.23563 
9 ,1.6552 ,0.61098 ,4.99737 ,49.03416 
10 ,1.8313 ,0.61261 ,4.99394 ,49.00058 
11 ,2.0236 ,0.61452 ,4.99737 ,49.03416 
12 ,2.2157 ,0.61643 ,4.96999 ,48.76554 
13 ,2.4080 ,0.61835 ,4.93577 ,48.42975 
14 ,2.5839 ,0.62010 ,4.93577 ,48.42975 
15 ,2.7762 ,0.62204 ,4.94946 ,48.56407 
16 ,2.9522 ,0.62379 ,4.91523 ,48.22828 
17 ,3.1444 ,0.62564 ,4.90839 ,48.16113 
18 ,3.3204 ,0.62752 ,4.89812 ,48.06039 
19 ,3.4965 ,0.62924 ,4.89128 ,47.99324 
20 ,3.6723 ,0.63101 ,4.86390 ,47.72461 
21 ,3.8483 ,0.63280 ,4.85364 ,47.62387 
22 ,4.0242 ,0.63450 ,4.83995 ,47.48956 
23 ,4.2004 ,0.63627 ,4.82284 ,47.32167 
24 ,4.3769 ,0.63805 ,4.81599 ,47.25451 
25 ,4.5689 ,0.63988 ,4.79546 ,47.05304 
26 ,4.7612 ,0.64178 ,4.76808 ,46.78442 
27 ,4.9692 ,0.64388 ,4.75782 ,46.68368 
28 ,5.1770 ,0.64597 ,4.74070 ,46.51579 
29 ,5.3532 ,0.64780 ,4.72702 ,46.38148 
30 ,5.5294 ,0.64956 ,4.69964 ,46.11285 
31 ,5.7215 ,0.65154 ,4.68253 ,45.94496 
32 ,5.8972 ,0.65326 ,4.66884 ,45.81065 
33 ,6.0734 ,0.65504 ,4.64488 ,45.57560 
34 ,6.2653 ,0.65692 ,4.62093 ,45.34055 
35 ,6.4417 ,0.65874 ,4.61408 ,45.27339 
36 ,6.6499 ,0.66071 ,4.60040 ,45.13908 
37 ,6.8417 ,0.66266 ,4.57302 ,44.87045 
38 ,7.0178 ,0.66444 ,4.55591 ,44.70256 
39 ,7.2099 ,0.66632 ,4.53880 ,44.53467 
40 ,7.3859 ,0.66809 ,4.50800 ,44.23247 
41 ,7.5623 ,0.66988 ,4.49089 ,44.06457 
42 ,7.7703 ,0.67195 ,4.47378 ,43.89668 
43 ,7.9622 ,0.67390 ,4.45666 ,43.72879 
44 ,8.1384 ,0.67564 ,4.43613 ,43.52732 
45 ,8.3305 ,0.67750 ,4.40533 ,43.22512 
46 ,8.5226 ,0.67950 ,4.39849 ,43.15796 
47 ,8.7147 ,0.68141 ,4.36769 ,42.85576 
48 ,8.8906 ,0.68311 ,4.34716 ,42.65429 
49 ,9.0667 ,0.68491 ,4.33004 ,42.48639 
50 ,9.2590 ,0.68676 ,4.32662 ,42.45282 
51 ,9.4665 ,0.68887 ,4.30267 ,42.21777 
52 ,9.6430 ,0.69068 ,4.29924 ,42.18419 
53 ,9.8191 ,0.69248 ,4.27871 ,41.98272 
54 ,10.0112 ,0.69435 ,4.25818 ,41.78125 
55 ,10.2033 ,0.69632 ,4.22738 ,41.47905 
56 ,10.3953 ,0.69818 ,4.24107 ,41.61336 
57 ,10.5713 ,0.69998 ,4.20685 ,41.27758 
58 ,10.7474 ,0.70173 ,4.18289 ,41.04253 
59 ,10.9232 ,0.70350 ,4.15551 ,40.77390 
60 ,11.1156 ,0.70536 ,4.16920 ,40.90821 
61 ,11.3076 ,0.70732 ,4.13156 ,40.53885 
62 ,11.4997 ,0.70916 ,4.11787 ,40.40454 
63 ,11.7077 ,0.71126 ,4.08707 ,40.10233 
64 ,11.9159 ,0.71333 ,4.09049 ,40.13591 
65 ,12.1077 ,0.71532 ,4.04943 ,39.73297 
66 ,12.2840 ,0.71713 ,4.04258 ,39.66582 
67 ,12.4761 ,0.71900 ,4.05285 ,39.76655 
68 ,12.6519 ,0.72078 ,4.02205 ,39.46435 
69 ,12.8283 ,0.72253 ,4.00494 ,39.29646 
70 ,13.0042 ,0.72430 ,3.97756 ,39.02783 
71 ,13.1963 ,0.72620 ,3.97414 ,38.99425 
72 ,13.3725 ,0.72793 ,3.95361 ,38.79278 
73 ,13.5646 ,0.72989 ,3.93307 ,38.59131 
74 ,13.7406 ,0.73166 ,3.90912 ,38.35626 
75 ,13.9328 ,0.73343 ,3.91254 ,38.38984 
76 ,14.1408 ,0.73556 ,3.88174 ,38.08764 
77 ,14.3329 ,0.73755 ,3.86121 ,37.88617 
78 ,14.5569 ,0.73967 ,3.84752 ,37.75185 
79 ,14.7646 ,0.74181 ,3.81330 ,37.41607 
80 ,14.9410 ,0.74362 ,3.80987 ,37.38249 
81 ,15.1169 ,0.74538 ,3.79961 ,37.28176 
82 ,15.3092 ,0.74725 ,3.76539 ,36.94597 
83 ,15.5014 ,0.74929 ,3.75854 ,36.87882 
84 ,15.6773 ,0.75101 ,3.76539 ,36.94597 
85 ,15.8534 ,0.75278 ,3.72432 ,36.54303 
86 ,16.0295 ,0.75453 ,3.71063 ,36.40872 
87 ,16.2216 ,0.75644 ,3.69694 ,36.27441 
88 ,16.3977 ,0.75822 ,3.67983 ,36.10652 
89 ,16.5737 ,0.75997 ,3.67299 ,36.03936 
90 ,16.7500 ,0.76176 ,3.64903 ,35.80431 
91 ,16.9258 ,0.76348 ,3.62166 ,35.53569 
92 ,17.1180 ,0.76532 ,3.61139 ,35.43495 
93 ,17.3101 ,0.76732 ,3.60112 ,35.33422 
94 ,17.4861 ,0.76911 ,3.57375 ,35.06559 
95 ,17.6781 ,0.77095 ,3.55321 ,34.86412 
96 ,17.8543 ,0.77275 ,3.54637 ,34.79696 
97 ,18.0302 ,0.77456 ,3.53952 ,34.72981 
98 ,18.2224 ,0.77651 ,3.50530 ,34.39402 
99 ,18.4301 ,0.77842 ,3.51215 ,34.46118 
100 ,18.6067 ,0.78026 ,3.47450 ,34.09182 
101 ,18.7986 ,0.78218 ,3.46081 ,33.95751 
102 ,18.9742 ,0.78409 ,3.45739 ,33.92393 
103 ,19.1505 ,0.78575 ,3.44713 ,33.82319 
104 ,19.3265 ,0.78744 ,3.42317 ,33.58814 
105 ,19.5026 ,0.78924 ,3.38895 ,33.25236 
106 ,19.6626 ,0.79096 ,3.37868 ,33.15163 
107 ,19.8226 ,0.79255 ,3.36842 ,33.05089 
108 ,19.9827 ,0.79415 ,3.35815 ,32.95016 
109 ,20.1749 ,0.79587 ,3.34446 ,32.81584 
110 ,20.3509 ,0.79773 ,3.33077 ,32.68153 
111 ,20.5270 ,0.79944 ,3.30682 ,32.44648 
112 ,20.6871 ,0.80120 ,3.28286 ,32.21143 
113 ,20.8632 ,0.80282 ,3.27259 ,32.11070 
114 ,21.0393 ,0.80463 ,3.25891 ,31.97639 
115 ,21.2313 ,0.80645 ,3.25206 ,31.90923 
116 ,21.3914 ,0.80826 ,3.23153 ,31.70776 
117 ,21.5515 ,0.80985 ,3.22468 ,31.64060 
118 ,21.7115 ,0.81144 ,3.21442 ,31.53987 
119 ,21.8876 ,0.81308 ,3.19731 ,31.37198 
120 ,22.0637 ,0.81482 ,3.15966 ,31.00262 
121 ,22.2398 ,0.81664 ,3.14597 ,30.86830 
122 ,22.4158 ,0.81832 ,3.14940 ,30.90188 
123 ,22.5919 ,0.82011 ,3.13571 ,30.76757 
124 ,22.7520 ,0.82184 ,3.10833 ,30.49894 
125 ,22.9120 ,0.82346 ,3.11175 ,30.53252 
126 ,23.0880 ,0.82508 ,3.08438 ,30.26389 
127 ,23.2641 ,0.82684 ,3.06726 ,30.09600 
128 ,23.4402 ,0.82861 ,3.04673 ,29.89453 
129 ,23.6165 ,0.83033 ,3.04331 ,29.86095 
130 ,23.7926 ,0.83213 ,3.02962 ,29.72664 
131 ,23.9687 ,0.83388 ,3.01935 ,29.62590 
132 ,24.1448 ,0.83566 ,3.00224 ,29.45801 
133 ,24.3368 ,0.83753 ,2.98171 ,29.25654 
134 ,24.5290 ,0.83938 ,2.95433 ,28.98792 
135 ,24.7051 ,0.84127 ,2.95091 ,28.95434 
136 ,24.8812 ,0.84304 ,2.92353 ,28.68571 
137 ,25.0571 ,0.84477 ,2.91669 ,28.61856 
138 ,25.2492 ,0.84674 ,2.91327 ,28.58498 
139 ,25.4254 ,0.84843 ,2.87905 ,28.24919 
140 ,25.6174 ,0.85038 ,2.87220 ,28.18204 
141 ,25.8096 ,0.85219 ,2.84825 ,27.94699 
142 ,25.9857 ,0.85405 ,2.84825 ,27.94699 
143 ,26.1776 ,0.85591 ,2.82771 ,27.74552 
144 ,26.3693 ,0.85777 ,2.80376 ,27.51047 
145 ,26.5620 ,0.85971 ,2.80034 ,27.47689 
146 ,26.7540 ,0.86174 ,2.77296 ,27.20827 
147 ,26.9298 ,0.86349 ,2.76611 ,27.14111 
148 ,27.1220 ,0.86542 ,2.72505 ,26.73817 
149 ,27.2978 ,0.86714 ,2.70109 ,26.50312 
150 ,27.4738 ,0.86894 ,2.71478 ,26.63744 
151 ,27.6502 ,0.87070 ,2.69425 ,26.43597 
152 ,27.8422 ,0.87258 ,2.66345 ,26.13376 
153 ,28.0181 ,0.87434 ,2.65318 ,26.03303 
154 ,28.1944 ,0.87611 ,2.65318 ,26.03303 
155 ,28.3706 ,0.87784 ,2.63607 ,25.86514 
156 ,28.5466 ,0.87964 ,2.62238 ,25.73082 
157 ,28.7227 ,0.88141 ,2.58816 ,25.39504 
158 ,28.8987 ,0.88322 ,2.56421 ,25.15999 
159 ,29.0746 ,0.88491 ,2.56078 ,25.12641 
160 ,29.2509 ,0.88669 ,2.55394 ,25.05926 
161 ,29.4267 ,0.88844 ,2.54025 ,24.92494 
162 ,29.6028 ,0.89033 ,2.51630 ,24.68989 
163 ,29.7790 ,0.89194 ,2.50945 ,24.62274 
164 ,29.9552 ,0.89373 ,2.49576 ,24.48842 
165 ,30.1312 ,0.89551 ,2.47865 ,24.32053 
166 ,30.3073 ,0.89720 ,2.46839 ,24.21980 
167 ,30.4994 ,0.89920 ,2.43074 ,23.85044 
168 ,30.6754 ,0.90092 ,2.43416 ,23.88402 
169 ,30.8515 ,0.90268 ,2.43074 ,23.85044 
170 ,31.0274 ,0.90444 ,2.40679 ,23.61539 
171 ,31.2193 ,0.90625 ,2.38625 ,23.41392 
172 ,31.4118 ,0.90817 ,2.36572 ,23.21245 
173 ,31.6036 ,0.91019 ,2.34519 ,23.01098 
174 ,31.7959 ,0.91212 ,2.33150 ,22.87667 
175 ,31.9878 ,0.91403 ,2.32465 ,22.80951 
176 ,32.1641 ,0.91581 ,2.30070 ,22.57446 
177 ,32.3402 ,0.91760 ,2.28359 ,22.40657 
178 ,32.5161 ,0.91931 ,2.27332 ,22.30584 
179 ,32.7239 ,0.92132 ,2.25279 ,22.10437 
180 ,32.9003 ,0.92317 ,2.23226 ,21.90290 
181 ,33.0922 ,0.92507 ,2.23226 ,21.90290 
182 ,33.2685 ,0.92682 ,2.20830 ,21.66785 
183 ,33.4761 ,0.92887 ,2.19461 ,21.53353 
184 ,33.6527 ,0.93071 ,2.18092 ,21.39922 
185 ,33.8286 ,0.93249 ,2.17408 ,21.33206 
186 ,34.0048 ,0.93421 ,2.15012 ,21.09702 
187 ,34.1808 ,0.93595 ,2.11248 ,20.72766 
188 ,34.3568 ,0.93770 ,2.11932 ,20.79481 
189 ,34.5330 ,0.93951 ,2.10906 ,20.69408 
190 ,34.7090 ,0.94126 ,2.09195 ,20.52619 
191 ,34.9172 ,0.94314 ,2.06115 ,20.22398 
192 ,35.1252 ,0.94537 ,2.05430 ,20.15682 
193 ,35.3013 ,0.94713 ,2.03377 ,19.95535 
194 ,35.4772 ,0.94893 ,2.01324 ,19.75388 
195 ,35.6533 ,0.95071 ,2.02350 ,19.85462 
196 ,35.8613 ,0.95267 ,2.00297 ,19.65315 
197 ,36.0532 ,0.95467 ,1.98244 ,19.45168 
198 ,36.2136 ,0.95639 ,1.96875 ,19.31737 
199 ,36.4377 ,0.95831 ,1.96190 ,19.25021 
200 ,36.6299 ,0.96037 ,1.93453 ,18.98158 
201 ,36.8220 ,0.96226 ,1.92426 ,18.88085 
202 ,37.0141 ,0.96426 ,1.90031 ,18.64580 
203 ,37.1900 ,0.96601 ,1.89346 ,18.57864 
204 ,37.3662 ,0.96782 ,1.87977 ,18.44433 
205 ,37.5582 ,0.96974 ,1.83871 ,18.04139 
206 ,37.7342 ,0.97149 ,1.82844 ,17.94066 
207 ,37.9424 ,0.97339 ,1.79422 ,17.60487 
208 ,38.1505 ,0.97562 ,1.81133 ,17.77276 
209 ,38.3262 ,0.97738 ,1.79080 ,17.57129 
210 ,38.5026 ,0.97916 ,1.77369 ,17.40340 
211 ,38.7108 ,0.98121 ,1.75657 ,17.23551 
212 ,38.9029 ,0.98311 ,1.74631 ,17.13478 
213 ,39.0943 ,0.98507 ,1.71209 ,16.79899 
214 ,39.2547 ,0.98679 ,1.72920 ,16.96689 
215 ,39.4629 ,0.98865 ,1.68813 ,16.56395 
216 ,39.6389 ,0.99053 ,1.67102 ,16.39605 
217 ,39.8151 ,0.99227 ,1.65049 ,16.19458 
218 ,40.0071 ,0.99417 ,1.65391 ,16.22816 
219 ,40.1832 ,0.99595 ,1.64022 ,16.09385 
220 ,40.3594 ,0.99771 ,1.61969 ,15.89238 
221 ,40.5513 ,0.99961 ,1.61284 ,15.82522 
222 ,40.7273 ,1.00140 ,1.59573 ,15.65733 
223 ,40.9035 ,1.00318 ,1.57178 ,15.42228 
224 ,41.0797 ,1.00490 ,1.54782 ,15.18724 
225 ,41.2556 ,1.00675 ,1.53413 ,15.05292 
226 ,41.4477 ,1.00854 ,1.52729 ,14.98577 
227 ,41.6399 ,1.01052 ,1.49991 ,14.71714 
228 ,41.8317 ,1.01240 ,1.49649 ,14.68356 
229 ,42.0078 ,1.01417 ,1.48622 ,14.58283 
230 ,42.1839 ,1.01597 ,1.47253 ,14.44851 
231 ,42.3762 ,1.01790 ,1.44858 ,14.21346 
232 ,42.5682 ,1.01976 ,1.44174 ,14.14631 
233 ,42.7439 ,1.02162 ,1.43489 ,14.07915 
234 ,42.9204 ,1.02335 ,1.41778 ,13.91126 
235 ,43.1123 ,1.02523 ,1.39040 ,13.64263 
236 ,43.2881 ,1.02699 ,1.39383 ,13.67621 
237 ,43.4649 ,1.02880 ,1.37671 ,13.50832 
238 ,43.6569 ,1.03073 ,1.33907 ,13.13896 
239 ,43.8323 ,1.03249 ,1.32196 ,12.97107 
240 ,43.9927 ,1.03418 ,1.32880 ,13.03822 
241 ,44.1686 ,1.03580 ,1.31169 ,12.87033 
242 ,44.3447 ,1.03759 ,1.30485 ,12.80318 
243 ,44.5370 ,1.03944 ,1.27063 ,12.46739 
244 ,44.7450 ,1.04153 ,1.26378 ,12.40024 
245 ,44.9211 ,1.04336 ,1.25694 ,12.33308 
246 ,45.0969 ,1.04510 ,1.23983 ,12.16519 
247 ,45.2731 ,1.04682 ,1.21245 ,11.89656 
248 ,45.4489 ,1.04864 ,1.21245 ,11.89656 
249 ,45.6253 ,1.05039 ,1.20561 ,11.82941 
250 ,45.8014 ,1.05215 ,1.18850 ,11.66151 
251 ,45.9933 ,1.05405 ,1.16796 ,11.46004 
252 ,46.2014 ,1.05597 ,1.16112 ,11.39289 
253 ,46.4097 ,1.05816 ,1.13374 ,11.12426 
254 ,46.5855 ,1.06001 ,1.12005 ,10.98995 
255 ,46.7775 ,1.06190 ,1.09952 ,10.78848 
256 ,46.9539 ,1.06362 ,1.08583 ,10.65416 
257 ,47.1461 ,1.06563 ,1.06872 ,10.48627 
258 ,47.3221 ,1.06734 ,1.06530 ,10.45270 
259 ,47.4981 ,1.06906 ,1.04476 ,10.25123 
260 ,47.6902 ,1.07095 ,1.03450 ,10.15049 
261 ,47.8823 ,1.07291 ,1.01739 ,9.98260 
262 ,48.0583 ,1.07467 ,0.99685 ,9.78113 
263 ,48.2345 ,1.07643 ,0.97632 ,9.57966 
264 ,48.4107 ,1.07818 ,0.96948 ,9.51250 
265 ,48.5863 ,1.08002 ,0.95579 ,9.37819 
266 ,48.7467 ,1.08171 ,0.96263 ,9.44535 
267 ,48.9387 ,1.08342 ,0.92841 ,9.10956 
268 ,49.1149 ,1.08524 ,0.92157 ,9.04241 
269 ,49.3067 ,1.08726 ,0.91472 ,8.97525 
270 ,49.4829 ,1.08894 ,0.90103 ,8.84094 
271 ,49.6748 ,1.09078 ,0.88050 ,8.63947 
272 ,49.8670 ,1.09274 ,0.87708 ,8.60589 
273 ,50.0749 ,1.09480 ,0.83943 ,8.23653 
274 ,50.2513 ,1.09664 ,0.82575 ,8.10221 
275 ,50.4432 ,1.09853 ,0.83259 ,8.16937 
276 ,50.6194 ,1.10029 ,0.81548 ,8.00148 
277 ,50.7790 ,1.10201 ,0.78126 ,7.66570 
278 ,50.9557 ,1.10363 ,0.77784 ,7.63212 
279 ,51.1316 ,1.10543 ,0.76415 ,7.49780 
280 ,51.3077 ,1.10710 ,0.76072 ,7.46423 
281 ,51.4998 ,1.10908 ,0.74704 ,7.32991 
282 ,51.6758 ,1.11086 ,0.72650 ,7.12844 
283 ,51.8517 ,1.11260 ,0.70597 ,6.92697 
284 ,52.0279 ,1.11435 ,0.70597 ,6.92697 
285 ,52.2040 ,1.11611 ,0.70255 ,6.89340 
286 ,52.4121 ,1.11808 ,0.66833 ,6.55761 
287 ,52.5882 ,1.11996 ,0.66490 ,6.52403 
288 ,52.7801 ,1.12179 ,0.65121 ,6.38972 
289 ,52.9564 ,1.12363 ,0.63068 ,6.18825 
290 ,53.1482 ,1.12552 ,0.62042 ,6.08752 
291 ,53.3406 ,1.12743 ,0.61015 ,5.98678 
292 ,53.5324 ,1.12934 ,0.57935 ,5.68458 
293 ,53.7247 ,1.13135 ,0.58962 ,5.78531 
294 ,53.9006 ,1.13312 ,0.57593 ,5.65100 
295 ,54.1090 ,1.13509 ,0.54171 ,5.31522 
296 ,54.2848 ,1.13707 ,0.54855 ,5.38237 
297 ,54.4615 ,1.13870 ,0.53486 ,5.24806 
298 ,54.6370 ,1.14045 ,0.51433 ,5.04659 
299 ,54.8131 ,1.14221 ,0.48353 ,4.74438 
300 ,54.9890 ,1.14396 ,0.48011 ,4.71081 
301 ,55.1812 ,1.14589 ,0.48695 ,4.77796 
302 ,55.3730 ,1.14778 ,0.44931 ,4.40860 
303 ,55.5492 ,1.14953 ,0.44246 ,4.34144 
304 ,55.7255 ,1.15131 ,0.44588 ,4.37502 
305 ,55.9017 ,1.15306 ,0.44246 ,4.34144 
306 ,56.0773 ,1.15488 ,0.41851 ,4.10640 
307 ,56.2698 ,1.15667 ,0.39797 ,3.90493 
308 ,56.4618 ,1.15868 ,0.40140 ,3.93850 
309 ,56.6375 ,1.16043 ,0.37060 ,3.63630 
310 ,56.8139 ,1.16221 ,0.34664 ,3.40125 
311 ,56.9899 ,1.16400 ,0.33980 ,3.33410 
312 ,57.1658 ,1.16574 ,0.33638 ,3.30052 
313 ,57.3422 ,1.16750 ,0.31926 ,3.13263 
314 ,57.5344 ,1.16943 ,0.30900 ,3.03189 
315 ,57.7424 ,1.17132 ,0.30215 ,2.96473 
316 ,57.9184 ,1.17332 ,0.28847 ,2.83042 
317 ,58.1105 ,1.17517 ,0.26109 ,2.56179 
318 ,58.2865 ,1.17687 ,0.25767 ,2.52822 
319 ,58.4945 ,1.17887 ,0.24740 ,2.42748 
320 ,58.6866 ,1.18094 ,0.23371 ,2.29317 
321 ,58.8630 ,1.18273 ,0.22002 ,2.15885 
322 ,59.0547 ,1.18456 ,0.20976 ,2.05812 
323 ,59.2308 ,1.18641 ,0.19264 ,1.89023 
324 ,59.4231 ,1.18823 ,0.18238 ,1.78949 
325 ,59.6152 ,1.19023 ,0.17896 ,1.75592 
326 ,59.8072 ,1.19211 ,0.15158 ,1.48729 
327 ,59.9993 ,1.19406 ,0.16185 ,1.58802 
328 ,60.1753 ,1.19582 ,0.13789 ,1.35298 
329 ,60.3513 ,1.19760 ,0.11051 ,1.08435 
330 ,60.5276 ,1.19931 ,0.11051 ,1.08435 
331 ,60.7037 ,1.20110 ,0.10025 ,0.98361 
332 ,60.8796 ,1.20285 ,0.08998 ,0.88288 
333 ,61.0715 ,1.20480 ,0.06260 ,0.61425 
334 ,61.2477 ,1.20658 ,0.05234 ,0.51352 
335 ,61.4238 ,1.20828 ,0.04207 ,0.41278 
336 ,61.6000 ,1.21006 ,0.03180 ,0.31205 
337 ,61.7759 ,1.21181 ,0.02154 ,0.21131 
338 ,61.9516 ,1.21359 ,0.00443 ,0.04342 
339 ,62.1117 ,1.21530 ,-0.00584 ,-0.05731 
340 ,62.3038 ,1.21702 ,-0.00584 ,-0.05731 
341 ,62.4801 ,1.21884 ,-0.01611 ,-0.15805 
342 ,62.6884 ,1.22086 ,-0.04348 ,-0.42667 
343 ,62.8803 ,1.22276 ,-0.02637 ,-0.25878 
344 ,63.0567 ,1.22461 ,-0.05375 ,-0.52741 
345 ,63.2483 ,1.22643 ,-0.06402 ,-0.62814 
346 ,63.4243 ,1.22830 ,-0.07771 ,-0.76246 
347 ,63.6003 ,1.23009 ,-0.09824 ,-0.96393 
348 ,63.7766 ,1.23182 ,-0.09140 ,-0.89677 
349 ,63.9526 ,1.23354 ,-0.11193 ,-1.09824 
350 ,64.1289 ,1.23535 ,-0.12904 ,-1.26613 
351 ,64.3050 ,1.23709 ,-0.14957 ,-1.46760 
352 ,64.4811 ,1.23888 ,-0.14273 ,-1.40045 
353 ,64.6732 ,1.24073 ,-0.15299 ,-1.50118 
354 ,64.8652 ,1.24268 ,-0.17011 ,-1.66907 
355 ,65.0413 ,1.24445 ,-0.18379 ,-1.80338 
356 ,65.2173 ,1.24618 ,-0.18379 ,-1.80338 
357 ,65.3934 ,1.24796 ,-0.20090 ,-1.97128 
358 ,65.5693 ,1.24969 ,-0.21117 ,-2.07201 
359 ,65.7617 ,1.25156 ,-0.21802 ,-2.13917 
360 ,65.9858 ,1.25378 ,-0.23170 ,-2.27348 
361 ,66.1619 ,1.25566 ,-0.25224 ,-2.47495 
362 ,66.3377 ,1.25740 ,-0.24539 ,-2.40779 
363 ,66.5460 ,1.25940 ,-0.25908 ,-2.54211 
364 ,66.7541 ,1.26147 ,-0.26935 ,-2.64284 
365 ,66.9302 ,1.26337 ,-0.28646 ,-2.81073 
366 ,67.1063 ,1.26511 ,-0.30015 ,-2.94505 
367 ,67.2983 ,1.26704 ,-0.30015 ,-2.94505 
368 ,67.4905 ,1.26898 ,-0.32410 ,-3.18010 
369 ,67.6664 ,1.27073 ,-0.32410 ,-3.18010 
370 ,67.8426 ,1.27245 ,-0.34121 ,-3.34799 
371 ,68.0346 ,1.27440 ,-0.33437 ,-3.28083 
372 ,68.2268 ,1.27628 ,-0.36175 ,-3.54946 
373 ,68.4028 ,1.27809 ,-0.38570 ,-3.78450 
374 ,68.6109 ,1.28008 ,-0.38912 ,-3.81808 
375 ,68.7868 ,1.28188 ,-0.38912 ,-3.81808 
376 ,68.9629 ,1.28364 ,-0.40623 ,-3.98597 
377 ,69.1390 ,1.28537 ,-0.40623 ,-3.98597 
378 ,69.3151 ,1.28720 ,-0.40966 ,-4.01955 
379 ,69.4911 ,1.28896 ,-0.42335 ,-4.15387 
380 ,69.6833 ,1.29088 ,-0.44388 ,-4.35534 
381 ,69.8753 ,1.29271 ,-0.43361 ,-4.25460 
382 ,70.0515 ,1.29457 ,-0.44388 ,-4.35534 
383 ,70.2272 ,1.29629 ,-0.45757 ,-4.48965 
384 ,70.4036 ,1.29803 ,-0.47810 ,-4.69112 
385 ,70.5796 ,1.29983 ,-0.47810 ,-4.69112 
386 ,70.7558 ,1.30158 ,-0.49521 ,-4.85901 
387 ,70.9317 ,1.30333 ,-0.49179 ,-4.82543 
388 ,71.1078 ,1.30510 ,-0.50890 ,-4.99332 
389 ,71.2998 ,1.30699 ,-0.51232 ,-5.02690 
390 ,71.4920 ,1.30893 ,-0.51917 ,-5.09406 
391 ,71.6840 ,1.31087 ,-0.54654 ,-5.36268 
392 ,71.8603 ,1.31266 ,-0.54997 ,-5.39626 
393 ,72.0520 ,1.31453 ,-0.54997 ,-5.39626 
394 ,72.2602 ,1.31646 ,-0.57050 ,-5.59773 
395 ,72.4363 ,1.31839 ,-0.57392 ,-5.63131 
396 ,72.6125 ,1.32015 ,-0.57392 ,-5.63131 
397 ,72.8045 ,1.32206 ,-0.60814 ,-5.96709 
398 ,72.9802 ,1.32378 ,-0.62183 ,-6.10141 
399 ,73.1565 ,1.32559 ,-0.60814 ,-5.96709 
400 ,73.3328 ,1.32734 ,-0.61156 ,-6.00067 
401 ,73.5408 ,1.32926 ,-0.63894 ,-6.26930 
402 ,73.7170 ,1.33116 ,-0.64236 ,-6.30288 
403 ,73.9090 ,1.33307 ,-0.66290 ,-6.50435 
404 ,74.0848 ,1.33484 ,-0.66632 ,-6.53793 
405 ,74.2613 ,1.33664 ,-0.69027 ,-6.77297 
406 ,74.4370 ,1.33837 ,-0.68685 ,-6.73940 
407 ,74.6293 ,1.34028 ,-0.68685 ,-6.73940 
408 ,74.8054 ,1.34207 ,-0.70739 ,-6.94086 
409 ,74.9975 ,1.34395 ,-0.71423 ,-7.00802 
410 ,75.1735 ,1.34572 ,-0.71765 ,-7.04160 
411 ,75.3657 ,1.34766 ,-0.73134 ,-7.17591 
412 ,75.5573 ,1.34958 ,-0.74161 ,-7.27665 
413 ,75.7338 ,1.35134 ,-0.73134 ,-7.17591 
414 ,75.9256 ,1.35330 ,-0.76898 ,-7.54527 
415 ,76.1017 ,1.35499 ,-0.78952 ,-7.74674 
416 ,76.2779 ,1.35680 ,-0.79636 ,-7.81390 
417 ,76.4701 ,1.35868 ,-0.78952 ,-7.74674 
418 ,76.6462 ,1.36050 ,-0.80321 ,-7.88106 
419 ,76.8382 ,1.36238 ,-0.81689 ,-8.01537 
420 ,77.0302 ,1.36432 ,-0.82032 ,-8.04895 
421 ,77.2061 ,1.36604 ,-0.83743 ,-8.21684 
422 ,77.3984 ,1.36787 ,-0.84769 ,-8.31758 
423 ,77.5905 ,1.36984 ,-0.84769 ,-8.31758 
424 ,77.7668 ,1.37165 ,-0.86823 ,-8.51904 
425 ,77.9426 ,1.37344 ,-0.87849 ,-8.61978 
426 ,78.1187 ,1.37520 ,-0.88534 ,-8.68694 
427 ,78.4067 ,1.37751 ,-0.87849 ,-8.61978 
428 ,78.5829 ,1.37981 ,-0.91272 ,-8.95556 
429 ,78.7751 ,1.38173 ,-0.90245 ,-8.85483 
430 ,78.9670 ,1.38357 ,-0.92983 ,-9.12345 
431 ,79.1432 ,1.38541 ,-0.92640 ,-9.08988 
432 ,79.3511 ,1.38736 ,-0.93325 ,-9.15703 
433 ,79.5432 ,1.38934 ,-0.94351 ,-9.25777 
434 ,79.7354 ,1.39134 ,-0.96405 ,-9.45924 
435 ,79.9115 ,1.39310 ,-0.96747 ,-9.49282 
436 ,80.0875 ,1.39484 ,-0.96405 ,-9.45924 
437 ,80.2797 ,1.39673 ,-0.98458 ,-9.66071 
438 ,80.4552 ,1.39857 ,-0.99143 ,-9.72786 
439 ,80.6477 ,1.40036 ,-0.99143 ,-9.72786 
440 ,80.8399 ,1.40229 ,-1.00511 ,-9.86218 
441 ,81.0319 ,1.40431 ,-1.01196 ,-9.92933 
442 ,81.2079 ,1.40603 ,-1.01880 ,-9.99649 
443 ,81.3840 ,1.40780 ,-1.04960 ,-10.29869 
444 ,81.5761 ,1.40970 ,-1.03591 ,-10.16438 
445 ,81.7682 ,1.41166 ,-1.04276 ,-10.23154 
446 ,81.9604 ,1.41351 ,-1.06329 ,-10.43301 
447 ,82.1363 ,1.41533 ,-1.07698 ,-10.56732 
448 ,82.3125 ,1.41707 ,-1.06671 ,-10.46659 
449 ,82.4881 ,1.41884 ,-1.07356 ,-10.53374 
450 ,82.6647 ,1.42061 ,-1.09067 ,-10.70163 
451 ,82.8406 ,1.42240 ,-1.11120 ,-10.90310 
452 ,83.0327 ,1.42428 ,-1.10093 ,-10.80237 
453 ,83.2084 ,1.42612 ,-1.11805 ,-10.97026 
454 ,83.3849 ,1.42782 ,-1.11805 ,-10.97026 
455 ,83.5609 ,1.42959 ,-1.14200 ,-11.20531 
456 ,83.7369 ,1.43133 ,-1.14884 ,-11.27247 
457 ,83.9290 ,1.43327 ,-1.14884 ,-11.27247 
458 ,84.1212 ,1.43520 ,-1.16596 ,-11.44036 
459 ,84.2971 ,1.43695 ,-1.17964 ,-11.57467 
460 ,84.4731 ,1.43868 ,-1.17964 ,-11.57467 
461 ,84.6652 ,1.44053 ,-1.17280 ,-11.50751 
