Point No.,Normal Force [N],Gap [mm],Time [s]
1.0,14.909029,4.6919,646.2
2.0,14.764011,4.6918,646.7
3.0,14.673976,4.6918,647.2
4.0,14.598906,4.6917,647.7
5.0,14.538133,4.6917,648.2
6.0,14.481618,4.6917,648.7
7.0,14.433375,4.6916,649.2
8.0,14.384873,4.6916,649.7
9.0,14.343527,4.6916,650.2
10.0,14.301996,4.6916,650.7
11.0,14.270178,4.6915,651.2
12.0,14.236003,4.6915,651.7
13.0,14.205714,4.6915,652.2
14.0,14.171414,4.6915,652.7
15.0,14.144689,4.6915,653.2
16.0,14.114963,4.6915,653.7
17.0,14.084480,4.6914,654.2
18.0,14.058086,4.6914,654.7
19.0,14.033875,4.6914,655.2
20.0,14.008725,4.6914,655.7
21.0,13.986977,4.6914,656.2
22.0,13.959012,4.6914,656.7
23.0,13.940290,4.6914,657.2
24.0,13.917755,4.6913,657.7
25.0,13.896800,4.6913,658.2
26.0,13.868789,4.6913,658.7
27.0,13.847966,4.6913,659.2
28.0,13.836753,4.6913,659.7
29.0,13.819469,4.6913,660.2
30.0,13.798976,4.6913,660.7
31.0,13.783246,4.6913,661.2
32.0,13.763854,4.6912,661.7
33.0,13.743034,4.6912,662.2
34.0,13.729454,4.6912,662.7
35.0,13.712867,4.6912,663.2
36.0,13.695056,4.6912,663.7
37.0,13.680499,4.6912,664.2
38.0,13.663506,4.6912,664.7
39.0,13.643058,4.6912,665.2
40.0,13.629805,4.6912,665.7
