Data stamp = , 29-03-2022 18:22:46 283

Calibration Values: 
Slope = , 26.54 , g/V 
Offset Voltage at no contact = , -0.501760 , V 

No , Time , Stage Position ,   Mass , Force 
   ,  (s) ,      (mm)      ,   (g)  , (mN)  

1 ,0.0000 ,0.84958 ,5.02132 ,49.26921 
2 ,0.2158 ,0.84965 ,5.02817 ,49.33637 
3 ,0.5360 ,0.85050 ,5.01790 ,49.23563 
4 ,0.7278 ,0.85199 ,5.00763 ,49.13490 
5 ,0.9039 ,0.85346 ,5.02474 ,49.30279 
6 ,1.0802 ,0.85513 ,5.04185 ,49.47068 
7 ,1.2724 ,0.85693 ,5.03501 ,49.40352 
8 ,1.4643 ,0.85888 ,5.03159 ,49.36995 
9 ,1.6406 ,0.86073 ,5.00763 ,49.13490 
10 ,1.8164 ,0.86254 ,5.00079 ,49.06774 
11 ,1.9931 ,0.86432 ,4.96999 ,48.76554 
12 ,2.1848 ,0.86618 ,4.95972 ,48.66480 
13 ,2.3610 ,0.86796 ,4.94603 ,48.53049 
14 ,2.5370 ,0.86971 ,4.93235 ,48.39618 
15 ,2.7289 ,0.87157 ,4.89470 ,48.02681 
16 ,2.8886 ,0.87332 ,4.90155 ,48.09397 
17 ,3.0653 ,0.87494 ,4.87417 ,47.82534 
18 ,3.2571 ,0.87691 ,4.88101 ,47.89250 
19 ,3.4493 ,0.87883 ,4.83995 ,47.48956 
20 ,3.6252 ,0.88054 ,4.83995 ,47.48956 
21 ,3.8014 ,0.88238 ,4.83995 ,47.48956 
22 ,3.9615 ,0.88404 ,4.80915 ,47.18736 
23 ,4.1216 ,0.88565 ,4.79888 ,47.08662 
24 ,4.2977 ,0.88733 ,4.78519 ,46.95231 
25 ,4.4738 ,0.88908 ,4.76124 ,46.71726 
26 ,4.6659 ,0.89096 ,4.74413 ,46.54937 
27 ,4.8418 ,0.89272 ,4.74070 ,46.51579 
28 ,5.0021 ,0.89444 ,4.70990 ,46.21359 
29 ,5.1781 ,0.89606 ,4.70648 ,46.18001 
30 ,5.3540 ,0.89785 ,4.67911 ,45.91138 
31 ,5.5299 ,0.89962 ,4.66199 ,45.74349 
32 ,5.7061 ,0.90138 ,4.64831 ,45.60918 
33 ,5.8983 ,0.90326 ,4.63119 ,45.44128 
34 ,6.0744 ,0.90505 ,4.61408 ,45.27339 
35 ,6.2504 ,0.90679 ,4.57986 ,44.93761 
36 ,6.4266 ,0.90857 ,4.56960 ,44.83688 
37 ,6.6185 ,0.91049 ,4.55933 ,44.73614 
38 ,6.7946 ,0.91228 ,4.53880 ,44.53467 
39 ,6.9708 ,0.91402 ,4.51484 ,44.29962 
40 ,7.1630 ,0.91591 ,4.50457 ,44.19889 
41 ,7.3550 ,0.91787 ,4.48404 ,43.99742 
42 ,7.5311 ,0.91962 ,4.47035 ,43.86310 
43 ,7.7231 ,0.92157 ,4.45324 ,43.69521 
44 ,7.8991 ,0.92332 ,4.44640 ,43.62806 
45 ,8.0749 ,0.92518 ,4.42586 ,43.42659 
46 ,8.2673 ,0.92689 ,4.40533 ,43.22512 
47 ,8.4433 ,0.92875 ,4.38822 ,43.05723 
48 ,8.6353 ,0.93065 ,4.38138 ,42.99007 
49 ,8.8115 ,0.93243 ,4.35058 ,42.68786 
50 ,8.9876 ,0.93418 ,4.33004 ,42.48639 
51 ,9.1474 ,0.93591 ,4.32662 ,42.45282 
52 ,9.3239 ,0.93753 ,4.31636 ,42.35208 
53 ,9.5159 ,0.93948 ,4.28556 ,42.04988 
54 ,9.7079 ,0.94135 ,4.27187 ,41.91556 
55 ,9.8999 ,0.94320 ,4.25476 ,41.74767 
56 ,10.0921 ,0.94523 ,4.22053 ,41.41189 
57 ,10.2521 ,0.94693 ,4.20685 ,41.27758 
58 ,10.4282 ,0.94856 ,4.20342 ,41.24400 
59 ,10.6042 ,0.95037 ,4.17947 ,41.00895 
60 ,10.7964 ,0.95225 ,4.17605 ,40.97537 
61 ,10.9723 ,0.95415 ,4.14525 ,40.67317 
62 ,11.1325 ,0.95575 ,4.13156 ,40.53885 
63 ,11.2925 ,0.95737 ,4.11103 ,40.33738 
64 ,11.4685 ,0.95896 ,4.10418 ,40.27023 
65 ,11.6446 ,0.96075 ,4.09734 ,40.20307 
66 ,11.8205 ,0.96258 ,4.06312 ,39.86729 
67 ,12.0127 ,0.96435 ,4.02889 ,39.53150 
68 ,12.1889 ,0.96620 ,4.03232 ,39.56508 
69 ,12.3489 ,0.96792 ,4.02205 ,39.46435 
70 ,12.5250 ,0.96951 ,4.00494 ,39.29646 
71 ,12.7171 ,0.97139 ,3.97756 ,39.02783 
72 ,12.8931 ,0.97321 ,3.96729 ,38.92709 
73 ,13.1014 ,0.97522 ,3.95703 ,38.82636 
74 ,13.2773 ,0.97704 ,3.93650 ,38.62489 
75 ,13.4693 ,0.97897 ,3.90227 ,38.28911 
76 ,13.6292 ,0.98072 ,3.90227 ,38.28911 
77 ,13.7894 ,0.98229 ,3.88858 ,38.15479 
78 ,13.9494 ,0.98388 ,3.88174 ,38.08764 
79 ,14.1418 ,0.98564 ,3.84752 ,37.75185 
80 ,14.3178 ,0.98745 ,3.84410 ,37.71828 
81 ,14.4938 ,0.98918 ,3.80987 ,37.38249 
82 ,14.6861 ,0.99117 ,3.79276 ,37.21460 
83 ,14.8621 ,0.99289 ,3.79961 ,37.28176 
84 ,15.0539 ,0.99480 ,3.76196 ,36.91240 
85 ,15.2462 ,0.99666 ,3.75854 ,36.87882 
86 ,15.4381 ,0.99864 ,3.74143 ,36.71093 
87 ,15.6144 ,1.00044 ,3.71748 ,36.47588 
88 ,15.8064 ,1.00230 ,3.71063 ,36.40872 
89 ,15.9825 ,1.00408 ,3.69352 ,36.24083 
90 ,16.1584 ,1.00584 ,3.67983 ,36.10652 
91 ,16.3505 ,1.00778 ,3.64219 ,35.73716 
92 ,16.5104 ,1.00955 ,3.63877 ,35.70358 
93 ,16.6867 ,1.01114 ,3.62166 ,35.53569 
94 ,16.8629 ,1.01288 ,3.61823 ,35.50211 
95 ,17.0548 ,1.01485 ,3.58401 ,35.16632 
96 ,17.2470 ,1.01670 ,3.59086 ,35.23348 
97 ,17.4391 ,1.01866 ,3.56348 ,34.96485 
98 ,17.6153 ,1.02041 ,3.53952 ,34.72981 
99 ,17.8070 ,1.02236 ,3.51899 ,34.52834 
100 ,17.9833 ,1.02408 ,3.51899 ,34.52834 
101 ,18.1754 ,1.02602 ,3.48135 ,34.15898 
102 ,18.3515 ,1.02793 ,3.49504 ,34.29329 
103 ,18.5437 ,1.02963 ,3.47108 ,34.05824 
104 ,18.7356 ,1.03157 ,3.42659 ,33.62172 
105 ,18.9277 ,1.03352 ,3.41975 ,33.55457 
106 ,19.1195 ,1.03545 ,3.41290 ,33.48741 
107 ,19.2958 ,1.03718 ,3.38895 ,33.25236 
108 ,19.4719 ,1.03899 ,3.34788 ,32.84942 
109 ,19.6476 ,1.04087 ,3.35130 ,32.88300 
110 ,19.8240 ,1.04247 ,3.34446 ,32.81584 
111 ,20.0002 ,1.04428 ,3.33077 ,32.68153 
112 ,20.1763 ,1.04604 ,3.30339 ,32.41290 
113 ,20.3524 ,1.04779 ,3.28286 ,32.21143 
114 ,20.5444 ,1.04966 ,3.29313 ,32.31217 
115 ,20.7042 ,1.05142 ,3.25891 ,31.97639 
116 ,20.8805 ,1.05303 ,3.24864 ,31.87565 
117 ,21.0564 ,1.05483 ,3.23495 ,31.74134 
118 ,21.2326 ,1.05661 ,3.19388 ,31.33840 
119 ,21.4086 ,1.05838 ,3.19731 ,31.37198 
120 ,21.5848 ,1.06010 ,3.18362 ,31.23766 
121 ,21.7768 ,1.06200 ,3.16651 ,31.06977 
122 ,21.9529 ,1.06380 ,3.14255 ,30.83472 
123 ,22.1449 ,1.06569 ,3.14255 ,30.83472 
124 ,22.3210 ,1.06744 ,3.12544 ,30.66683 
125 ,22.5131 ,1.06934 ,3.09122 ,30.33105 
126 ,22.6894 ,1.07113 ,3.08438 ,30.26389 
127 ,22.8492 ,1.07289 ,3.07411 ,30.16316 
128 ,23.0255 ,1.07450 ,3.06726 ,30.09600 
129 ,23.2176 ,1.07643 ,3.04673 ,29.89453 
130 ,23.3938 ,1.07818 ,3.00909 ,29.52517 
131 ,23.5857 ,1.08009 ,3.02620 ,29.69306 
132 ,23.7777 ,1.08203 ,2.98855 ,29.32370 
133 ,23.9697 ,1.08388 ,2.98171 ,29.25654 
134 ,24.1620 ,1.08585 ,2.97144 ,29.15581 
135 ,24.3380 ,1.08764 ,2.93038 ,28.75287 
136 ,24.5300 ,1.08955 ,2.93038 ,28.75287 
137 ,24.7222 ,1.09151 ,2.92696 ,28.71929 
138 ,24.8977 ,1.09334 ,2.88589 ,28.31635 
139 ,25.0744 ,1.09497 ,2.87220 ,28.18204 
140 ,25.2502 ,1.09675 ,2.87220 ,28.18204 
141 ,25.4424 ,1.09866 ,2.84140 ,27.87983 
142 ,25.6345 ,1.10057 ,2.82429 ,27.71194 
143 ,25.8266 ,1.10252 ,2.82087 ,27.67836 
144 ,26.0186 ,1.10442 ,2.79691 ,27.44332 
145 ,26.2104 ,1.10630 ,2.79349 ,27.40974 
146 ,26.3867 ,1.10809 ,2.77638 ,27.24185 
147 ,26.5628 ,1.10996 ,2.74900 ,26.97322 
148 ,26.7389 ,1.11166 ,2.73874 ,26.87248 
149 ,26.9151 ,1.11340 ,2.72505 ,26.73817 
150 ,27.1071 ,1.11528 ,2.71478 ,26.63744 
151 ,27.2991 ,1.11723 ,2.68398 ,26.33523 
152 ,27.4753 ,1.11897 ,2.68056 ,26.30165 
153 ,27.6513 ,1.12076 ,2.65660 ,26.06661 
154 ,27.8273 ,1.12262 ,2.65318 ,26.03303 
155 ,28.0194 ,1.12437 ,2.62581 ,25.76440 
156 ,28.2115 ,1.12628 ,2.61896 ,25.69724 
157 ,28.4036 ,1.12826 ,2.61212 ,25.63009 
158 ,28.5796 ,1.13007 ,2.59158 ,25.42862 
159 ,28.7558 ,1.13178 ,2.57789 ,25.29430 
160 ,28.9318 ,1.13360 ,2.55052 ,25.02568 
161 ,29.1077 ,1.13542 ,2.55052 ,25.02568 
162 ,29.2839 ,1.13704 ,2.54367 ,24.95852 
163 ,29.4761 ,1.13898 ,2.52314 ,24.75705 
164 ,29.6681 ,1.14093 ,2.51630 ,24.68989 
165 ,29.8442 ,1.14268 ,2.48892 ,24.42127 
166 ,30.0203 ,1.14446 ,2.47181 ,24.25338 
167 ,30.1963 ,1.14628 ,2.44443 ,23.98475 
168 ,30.3724 ,1.14793 ,2.45127 ,24.05191 
169 ,30.5484 ,1.14969 ,2.42732 ,23.81686 
170 ,30.7245 ,1.15147 ,2.43759 ,23.91759 
171 ,30.9007 ,1.15325 ,2.39994 ,23.54823 
172 ,31.0928 ,1.15517 ,2.37599 ,23.31318 
173 ,31.2687 ,1.15701 ,2.37599 ,23.31318 
174 ,31.4449 ,1.15864 ,2.36572 ,23.21245 
175 ,31.6371 ,1.16052 ,2.33492 ,22.91024 
176 ,31.8129 ,1.16234 ,2.31781 ,22.74235 
177 ,32.0050 ,1.16427 ,2.32123 ,22.77593 
178 ,32.1971 ,1.16618 ,2.28701 ,22.44015 
179 ,32.4053 ,1.16820 ,2.28701 ,22.44015 
180 ,32.5972 ,1.17021 ,2.24937 ,22.07079 
181 ,32.7732 ,1.17195 ,2.24252 ,22.00363 
182 ,32.9653 ,1.17383 ,2.23226 ,21.90290 
183 ,33.1575 ,1.17580 ,2.20488 ,21.63427 
184 ,33.3334 ,1.17765 ,2.20830 ,21.66785 
185 ,33.5097 ,1.17932 ,2.17408 ,21.33206 
186 ,33.6857 ,1.18107 ,2.17750 ,21.36564 
187 ,33.8619 ,1.18284 ,2.14670 ,21.06344 
188 ,34.0378 ,1.18457 ,2.12275 ,20.82839 
189 ,34.2139 ,1.18635 ,2.10564 ,20.66050 
190 ,34.3899 ,1.18808 ,2.10564 ,20.66050 
191 ,34.5662 ,1.18985 ,2.10564 ,20.66050 
192 ,34.7583 ,1.19179 ,2.06799 ,20.29114 
193 ,34.9502 ,1.19371 ,2.07141 ,20.32472 
194 ,35.1265 ,1.19546 ,2.05088 ,20.12325 
195 ,35.3184 ,1.19741 ,2.02693 ,19.88820 
196 ,35.4944 ,1.19926 ,2.02693 ,19.88820 
197 ,35.6706 ,1.20089 ,2.00297 ,19.65315 
198 ,35.8623 ,1.20278 ,1.98244 ,19.45168 
199 ,36.0387 ,1.20458 ,1.96190 ,19.25021 
200 ,36.2307 ,1.20649 ,1.96190 ,19.25021 
201 ,36.4069 ,1.20828 ,1.95164 ,19.14948 
202 ,36.5831 ,1.21009 ,1.92768 ,18.91443 
203 ,36.7750 ,1.21193 ,1.90715 ,18.71296 
204 ,36.9670 ,1.21379 ,1.90715 ,18.71296 
205 ,37.1591 ,1.21578 ,1.86951 ,18.34360 
206 ,37.3353 ,1.21753 ,1.86951 ,18.34360 
207 ,37.5111 ,1.21932 ,1.86608 ,18.31002 
208 ,37.7033 ,1.22118 ,1.82844 ,17.94066 
209 ,37.8955 ,1.22311 ,1.82160 ,17.87350 
210 ,38.0876 ,1.22505 ,1.82160 ,17.87350 
211 ,38.2635 ,1.22694 ,1.79080 ,17.57129 
212 ,38.4396 ,1.22859 ,1.77369 ,17.40340 
213 ,38.6157 ,1.23043 ,1.77369 ,17.40340 
214 ,38.7918 ,1.23209 ,1.74631 ,17.13478 
215 ,38.9839 ,1.23394 ,1.72920 ,16.96689 
216 ,39.1598 ,1.23582 ,1.72578 ,16.93331 
217 ,39.3521 ,1.23764 ,1.71209 ,16.79899 
218 ,39.5282 ,1.23948 ,1.70866 ,16.76542 
219 ,39.7202 ,1.24140 ,1.67786 ,16.46321 
220 ,39.9121 ,1.24328 ,1.67102 ,16.39605 
221 ,40.0885 ,1.24506 ,1.65391 ,16.22816 
222 ,40.2801 ,1.24700 ,1.63338 ,16.02669 
223 ,40.4565 ,1.24872 ,1.61969 ,15.89238 
224 ,40.6486 ,1.25069 ,1.61284 ,15.82522 
225 ,40.8407 ,1.25258 ,1.58547 ,15.55660 
226 ,41.0327 ,1.25449 ,1.58889 ,15.59018 
227 ,41.2089 ,1.25628 ,1.56493 ,15.35513 
228 ,41.3846 ,1.25805 ,1.55124 ,15.22081 
229 ,41.5610 ,1.25978 ,1.52045 ,14.91861 
230 ,41.7370 ,1.26156 ,1.50676 ,14.78430 
231 ,41.9292 ,1.26345 ,1.50676 ,14.78430 
232 ,42.1052 ,1.26523 ,1.50333 ,14.75072 
233 ,42.2813 ,1.26702 ,1.47596 ,14.48209 
234 ,42.4573 ,1.26877 ,1.45200 ,14.24704 
235 ,42.6655 ,1.27076 ,1.44516 ,14.17989 
236 ,42.8411 ,1.27258 ,1.43147 ,14.04557 
237 ,43.0176 ,1.27434 ,1.43147 ,14.04557 
238 ,43.1937 ,1.27613 ,1.40751 ,13.81053 
239 ,43.3693 ,1.27799 ,1.40751 ,13.81053 
240 ,43.5293 ,1.27963 ,1.38698 ,13.60906 
241 ,43.6896 ,1.28121 ,1.38014 ,13.54190 
242 ,43.8658 ,1.28284 ,1.36303 ,13.37401 
243 ,44.0740 ,1.28494 ,1.34249 ,13.17254 
244 ,44.2820 ,1.28702 ,1.32880 ,13.03822 
245 ,44.4581 ,1.28873 ,1.29800 ,12.73602 
246 ,44.6342 ,1.29056 ,1.30143 ,12.76960 
247 ,44.8264 ,1.29246 ,1.29116 ,12.66886 
248 ,45.0184 ,1.29432 ,1.26720 ,12.43381 
249 ,45.2105 ,1.29623 ,1.27063 ,12.46739 
250 ,45.3865 ,1.29803 ,1.25694 ,12.33308 
251 ,45.5622 ,1.29992 ,1.22614 ,12.03088 
252 ,45.7384 ,1.30152 ,1.21245 ,11.89656 
253 ,45.8983 ,1.30326 ,1.21245 ,11.89656 
254 ,46.0748 ,1.30491 ,1.20218 ,11.79583 
255 ,46.2508 ,1.30679 ,1.18850 ,11.66151 
256 ,46.4429 ,1.30856 ,1.17823 ,11.56078 
257 ,46.6189 ,1.31036 ,1.13716 ,11.15784 
258 ,46.8111 ,1.31222 ,1.14401 ,11.22500 
259 ,46.9877 ,1.31405 ,1.12690 ,11.05710 
260 ,47.1471 ,1.31576 ,1.10979 ,10.88921 
261 ,47.3393 ,1.31748 ,1.08583 ,10.65416 
262 ,47.5152 ,1.31932 ,1.06872 ,10.48627 
263 ,47.7075 ,1.32116 ,1.07556 ,10.55343 
264 ,47.8995 ,1.32310 ,1.05161 ,10.31838 
265 ,48.1075 ,1.32514 ,1.04134 ,10.21765 
266 ,48.2997 ,1.32710 ,1.00712 ,9.88186 
267 ,48.4926 ,1.32904 ,1.01739 ,9.98260 
268 ,48.6839 ,1.33101 ,0.98659 ,9.68039 
269 ,48.8597 ,1.33273 ,0.96605 ,9.47892 
270 ,49.0359 ,1.33452 ,0.96948 ,9.51250 
271 ,49.2116 ,1.33639 ,0.95237 ,9.34461 
272 ,49.3882 ,1.33801 ,0.94210 ,9.24388 
273 ,49.5801 ,1.33999 ,0.92841 ,9.10956 
274 ,49.7562 ,1.34169 ,0.91130 ,8.94167 
275 ,49.9482 ,1.34360 ,0.91814 ,9.00883 
276 ,50.1405 ,1.34556 ,0.88050 ,8.63947 
277 ,50.3003 ,1.34729 ,0.87366 ,8.57231 
278 ,50.4766 ,1.34888 ,0.85997 ,8.43800 
279 ,50.6686 ,1.35080 ,0.86339 ,8.47158 
280 ,50.8447 ,1.35260 ,0.83943 ,8.23653 
281 ,51.0366 ,1.35446 ,0.83259 ,8.16937 
282 ,51.2289 ,1.35642 ,0.81890 ,8.03506 
283 ,51.4210 ,1.35831 ,0.79152 ,7.76643 
284 ,51.6130 ,1.36029 ,0.78810 ,7.73285 
285 ,51.8050 ,1.36220 ,0.76757 ,7.53138 
286 ,51.9812 ,1.36397 ,0.74704 ,7.32991 
287 ,52.1573 ,1.36574 ,0.75046 ,7.36349 
288 ,52.3330 ,1.36760 ,0.73677 ,7.22918 
289 ,52.5094 ,1.36924 ,0.74019 ,7.26276 
290 ,52.6853 ,1.37109 ,0.70597 ,6.92697 
291 ,52.8774 ,1.37286 ,0.70597 ,6.92697 
292 ,53.0371 ,1.37464 ,0.69570 ,6.82624 
293 ,53.2133 ,1.37638 ,0.67517 ,6.62477 
294 ,53.3896 ,1.37802 ,0.66490 ,6.52403 
295 ,53.5818 ,1.37997 ,0.63753 ,6.25541 
296 ,53.7739 ,1.38188 ,0.64437 ,6.32256 
297 ,53.9498 ,1.38363 ,0.62042 ,6.08752 
298 ,54.1261 ,1.38535 ,0.61357 ,6.02036 
299 ,54.3020 ,1.38717 ,0.59304 ,5.81889 
300 ,54.4780 ,1.38889 ,0.58962 ,5.78531 
301 ,54.6701 ,1.39074 ,0.56908 ,5.58384 
302 ,54.8622 ,1.39275 ,0.54855 ,5.38237 
303 ,55.0543 ,1.39463 ,0.55539 ,5.44953 
304 ,55.2465 ,1.39656 ,0.53486 ,5.24806 
305 ,55.4384 ,1.39850 ,0.52802 ,5.18090 
306 ,55.6303 ,1.40041 ,0.50748 ,4.97943 
307 ,55.8067 ,1.40221 ,0.49037 ,4.81154 
308 ,55.9987 ,1.40412 ,0.48011 ,4.71081 
309 ,56.1910 ,1.40603 ,0.46642 ,4.57649 
310 ,56.3832 ,1.40794 ,0.44246 ,4.34144 
311 ,56.5749 ,1.40985 ,0.44931 ,4.40860 
312 ,56.7510 ,1.41158 ,0.43562 ,4.27429 
313 ,56.9272 ,1.41342 ,0.42877 ,4.20713 
314 ,57.1352 ,1.41540 ,0.40482 ,3.97208 
315 ,57.3113 ,1.41724 ,0.39455 ,3.87135 
316 ,57.4874 ,1.41896 ,0.39455 ,3.87135 
317 ,57.6631 ,1.42085 ,0.36718 ,3.60272 
318 ,57.8394 ,1.42246 ,0.35006 ,3.43483 
319 ,58.0156 ,1.42429 ,0.33980 ,3.33410 
320 ,58.2075 ,1.42620 ,0.32611 ,3.19978 
321 ,58.3996 ,1.42810 ,0.32269 ,3.16620 
322 ,58.5759 ,1.42986 ,0.31584 ,3.09905 
323 ,58.7679 ,1.43179 ,0.28162 ,2.76326 
324 ,58.9438 ,1.43355 ,0.26793 ,2.62895 
325 ,59.1361 ,1.43544 ,0.28847 ,2.83042 
326 ,59.3120 ,1.43724 ,0.27478 ,2.69611 
327 ,59.5043 ,1.43910 ,0.25424 ,2.49464 
328 ,59.6803 ,1.44090 ,0.22687 ,2.22601 
329 ,59.8402 ,1.44266 ,0.21660 ,2.12528 
330 ,60.0163 ,1.44428 ,0.22687 ,2.22601 
331 ,60.2082 ,1.44613 ,0.20291 ,1.99096 
332 ,60.3845 ,1.44794 ,0.19264 ,1.89023 
333 ,60.5767 ,1.44985 ,0.18922 ,1.85665 
334 ,60.7527 ,1.45162 ,0.17553 ,1.72234 
335 ,60.9446 ,1.45355 ,0.15842 ,1.55445 
336 ,61.1368 ,1.45547 ,0.15500 ,1.52087 
337 ,61.3289 ,1.45735 ,0.11736 ,1.15151 
338 ,61.5049 ,1.45916 ,0.11393 ,1.11793 
339 ,61.6969 ,1.46105 ,0.11393 ,1.11793 
340 ,61.8730 ,1.46283 ,0.10367 ,1.01719 
341 ,62.0649 ,1.46470 ,0.07629 ,0.74857 
342 ,62.2414 ,1.46648 ,0.05918 ,0.58067 
343 ,62.4174 ,1.46828 ,0.06260 ,0.61425 
344 ,62.5935 ,1.47000 ,0.05918 ,0.58067 
345 ,62.7694 ,1.47177 ,0.03865 ,0.37920 
346 ,62.9453 ,1.47352 ,0.00785 ,0.07700 
347 ,63.1053 ,1.47528 ,0.00785 ,0.07700 
348 ,63.2819 ,1.47693 ,0.00443 ,0.04342 
349 ,63.4739 ,1.47884 ,0.00443 ,0.04342 
350 ,63.6661 ,1.48076 ,-0.01611 ,-0.15805 
351 ,63.8419 ,1.48251 ,-0.03322 ,-0.32594 
352 ,64.0176 ,1.48435 ,-0.02980 ,-0.29236 
353 ,64.1941 ,1.48599 ,-0.04691 ,-0.46025 
354 ,64.3862 ,1.48795 ,-0.06744 ,-0.66172 
355 ,64.5622 ,1.48972 ,-0.07086 ,-0.69530 
356 ,64.7543 ,1.49165 ,-0.07086 ,-0.69530 
357 ,64.9305 ,1.49338 ,-0.08455 ,-0.82961 
358 ,65.1064 ,1.49513 ,-0.11877 ,-1.16540 
359 ,65.2826 ,1.49692 ,-0.11535 ,-1.13182 
360 ,65.4748 ,1.49880 ,-0.11877 ,-1.16540 
361 ,65.6508 ,1.50060 ,-0.13931 ,-1.36687 
362 ,65.8269 ,1.50240 ,-0.15642 ,-1.53476 
363 ,66.0189 ,1.50420 ,-0.14615 ,-1.43402 
364 ,66.1950 ,1.50601 ,-0.16326 ,-1.60191 
365 ,66.3870 ,1.50793 ,-0.18037 ,-1.76981 
366 ,66.5791 ,1.50987 ,-0.19406 ,-1.90412 
367 ,66.7712 ,1.51169 ,-0.20090 ,-1.97128 
368 ,66.9633 ,1.51361 ,-0.21459 ,-2.10559 
369 ,67.1391 ,1.51546 ,-0.20090 ,-1.97128 
370 ,67.3153 ,1.51724 ,-0.21802 ,-2.13917 
371 ,67.5075 ,1.51915 ,-0.24881 ,-2.44137 
372 ,67.6996 ,1.52106 ,-0.23513 ,-2.30706 
373 ,67.8916 ,1.52303 ,-0.25566 ,-2.50853 
374 ,68.0836 ,1.52494 ,-0.27619 ,-2.71000 
375 ,68.2599 ,1.52670 ,-0.27961 ,-2.74358 
376 ,68.4360 ,1.52841 ,-0.28646 ,-2.81073 
377 ,68.6119 ,1.53022 ,-0.29330 ,-2.87789 
378 ,68.7883 ,1.53195 ,-0.32752 ,-3.21367 
379 ,68.9641 ,1.53371 ,-0.33095 ,-3.24725 
380 ,69.1402 ,1.53548 ,-0.34121 ,-3.34799 
381 ,69.3001 ,1.53721 ,-0.32752 ,-3.21367 
382 ,69.4603 ,1.53877 ,-0.35148 ,-3.44872 
383 ,69.6524 ,1.54056 ,-0.36517 ,-3.58303 
384 ,69.8283 ,1.54237 ,-0.37201 ,-3.65019 
385 ,70.0044 ,1.54409 ,-0.39255 ,-3.85166 
386 ,70.1967 ,1.54602 ,-0.37886 ,-3.71735 
387 ,70.3883 ,1.54794 ,-0.41650 ,-4.08671 
388 ,70.5647 ,1.54967 ,-0.42335 ,-4.15387 
389 ,70.7408 ,1.55148 ,-0.42335 ,-4.15387 
390 ,70.9330 ,1.55340 ,-0.43703 ,-4.28818 
391 ,71.1089 ,1.55518 ,-0.45757 ,-4.48965 
392 ,71.3011 ,1.55706 ,-0.46099 ,-4.52323 
393 ,71.4611 ,1.55881 ,-0.47126 ,-4.62396 
394 ,71.6370 ,1.56052 ,-0.47468 ,-4.65754 
395 ,71.8133 ,1.56231 ,-0.49863 ,-4.89259 
396 ,71.9897 ,1.56396 ,-0.48837 ,-4.79185 
397 ,72.1655 ,1.56572 ,-0.51574 ,-5.06048 
398 ,72.3573 ,1.56763 ,-0.51232 ,-5.02690 
399 ,72.5336 ,1.56938 ,-0.52943 ,-5.19479 
400 ,72.7093 ,1.57114 ,-0.53628 ,-5.26195 
401 ,72.8857 ,1.57289 ,-0.56708 ,-5.56415 
402 ,73.0618 ,1.57469 ,-0.57050 ,-5.59773 
403 ,73.2539 ,1.57659 ,-0.57392 ,-5.63131 
404 ,73.4459 ,1.57849 ,-0.58419 ,-5.73205 
405 ,73.6217 ,1.58038 ,-0.59788 ,-5.86636 
406 ,73.7818 ,1.58200 ,-0.59445 ,-5.83278 
407 ,73.9581 ,1.58362 ,-0.61499 ,-6.03425 
408 ,74.1343 ,1.58541 ,-0.62525 ,-6.13499 
409 ,74.3102 ,1.58726 ,-0.64579 ,-6.33646 
410 ,74.4864 ,1.58891 ,-0.66290 ,-6.50435 
411 ,74.6782 ,1.59079 ,-0.64921 ,-6.37003 
412 ,74.8545 ,1.59260 ,-0.64921 ,-6.37003 
413 ,75.0303 ,1.59436 ,-0.67316 ,-6.60508 
414 ,75.2226 ,1.59626 ,-0.68685 ,-6.73940 
415 ,75.4146 ,1.59820 ,-0.69027 ,-6.77297 
416 ,75.5905 ,1.59999 ,-0.71423 ,-7.00802 
417 ,75.7669 ,1.60171 ,-0.72792 ,-7.14233 
418 ,75.9589 ,1.60366 ,-0.72792 ,-7.14233 
419 ,76.1510 ,1.60554 ,-0.75530 ,-7.41096 
420 ,76.3430 ,1.60745 ,-0.74503 ,-7.31023 
421 ,76.5189 ,1.60921 ,-0.75530 ,-7.41096 
422 ,76.6949 ,1.61098 ,-0.75872 ,-7.44454 
423 ,76.8711 ,1.61273 ,-0.78610 ,-7.71317 
424 ,77.0473 ,1.61449 ,-0.79978 ,-7.84748 
425 ,77.2234 ,1.61625 ,-0.79636 ,-7.81390 
426 ,77.3994 ,1.61802 ,-0.79636 ,-7.81390 
427 ,77.5756 ,1.61975 ,-0.82374 ,-8.08253 
428 ,77.7354 ,1.62152 ,-0.82716 ,-8.11611 
429 ,77.9116 ,1.62312 ,-0.85112 ,-8.35115 
430 ,78.1038 ,1.62509 ,-0.85112 ,-8.35115 
431 ,78.2799 ,1.62684 ,-0.84085 ,-8.25042 
432 ,78.4720 ,1.62876 ,-0.86823 ,-8.51904 
433 ,78.6640 ,1.63066 ,-0.87165 ,-8.55262 
434 ,78.8399 ,1.63242 ,-0.88192 ,-8.65336 
435 ,79.0161 ,1.63420 ,-0.89218 ,-8.75409 
436 ,79.1924 ,1.63596 ,-0.90929 ,-8.92198 
437 ,79.3843 ,1.63787 ,-0.91614 ,-8.98914 
438 ,79.5602 ,1.63968 ,-0.91614 ,-8.98914 
439 ,79.7524 ,1.64156 ,-0.93667 ,-9.19061 
440 ,79.9444 ,1.64344 ,-0.95036 ,-9.32492 
441 ,80.1205 ,1.64522 ,-0.95036 ,-9.32492 
442 ,80.3125 ,1.64715 ,-0.97089 ,-9.52639 
443 ,80.4886 ,1.64889 ,-0.99143 ,-9.72786 
444 ,80.6807 ,1.65080 ,-0.98800 ,-9.69429 
445 ,80.8565 ,1.65271 ,-0.99485 ,-9.76144 
446 ,81.0331 ,1.65434 ,-1.00854 ,-9.89576 
447 ,81.2089 ,1.65615 ,-1.03591 ,-10.16438 
448 ,81.4010 ,1.65800 ,-1.01880 ,-9.99649 
449 ,81.5770 ,1.65978 ,-1.02907 ,-10.09723 
450 ,81.7690 ,1.66167 ,-1.06329 ,-10.43301 
451 ,81.9452 ,1.66346 ,-1.05645 ,-10.36585 
452 ,82.1213 ,1.66521 ,-1.05302 ,-10.33227 
453 ,82.3134 ,1.66708 ,-1.08382 ,-10.63448 
454 ,82.4893 ,1.66893 ,-1.09409 ,-10.73521 
455 ,82.6656 ,1.67065 ,-1.08725 ,-10.66806 
456 ,82.8416 ,1.67243 ,-1.10093 ,-10.80237 
457 ,83.0175 ,1.67429 ,-1.11805 ,-10.97026 
458 ,83.1939 ,1.67596 ,-1.12147 ,-11.00384 
459 ,83.3697 ,1.67772 ,-1.12831 ,-11.07100 
460 ,83.5616 ,1.67970 ,-1.14884 ,-11.27247 
461 ,83.7216 ,1.68135 ,-1.13858 ,-11.17173 
462 ,83.8976 ,1.68294 ,-1.14542 ,-11.23889 
