Data stamp = , 29-03-2022 16:31:26 634

Calibration Values: 
Slope = , 26.54 , g/V 
Offset Voltage at no contact = , -0.501760 , V 

No , Time , Stage Position ,   Mass , Force 
   ,  (s) ,      (mm)      ,   (g)  , (mN)  

1 ,0.0000 ,0.84955 ,5.06581 ,49.70573 
2 ,0.2216 ,0.84964 ,5.08292 ,49.87362 
3 ,0.5262 ,0.85044 ,5.05554 ,49.60499 
4 ,0.7180 ,0.85182 ,5.07950 ,49.84004 
5 ,0.8940 ,0.85331 ,5.06581 ,49.70573 
6 ,1.0704 ,0.85493 ,5.06239 ,49.67215 
7 ,1.2623 ,0.85680 ,5.08977 ,49.94078 
8 ,1.4384 ,0.85862 ,5.06239 ,49.67215 
9 ,1.6146 ,0.86041 ,5.03159 ,49.36995 
10 ,1.7904 ,0.86217 ,5.02817 ,49.33637 
11 ,1.9987 ,0.86424 ,5.01790 ,49.23563 
12 ,2.1905 ,0.86618 ,5.00421 ,49.10132 
13 ,2.3828 ,0.86816 ,4.99052 ,48.96701 
14 ,2.5748 ,0.86999 ,4.95630 ,48.63122 
15 ,2.7671 ,0.87195 ,4.94261 ,48.49691 
16 ,2.9430 ,0.87380 ,4.92892 ,48.36260 
17 ,3.1352 ,0.87557 ,4.90497 ,48.12755 
18 ,3.3271 ,0.87749 ,4.90497 ,48.12755 
19 ,3.5191 ,0.87946 ,4.87075 ,47.79177 
20 ,3.7113 ,0.88133 ,4.86732 ,47.75819 
21 ,3.9033 ,0.88335 ,4.83310 ,47.42240 
22 ,4.0790 ,0.88512 ,4.82284 ,47.32167 
23 ,4.2556 ,0.88686 ,4.79888 ,47.08662 
24 ,4.4475 ,0.88880 ,4.80573 ,47.15378 
25 ,4.6397 ,0.89064 ,4.77835 ,46.88515 
26 ,4.8316 ,0.89258 ,4.75097 ,46.61653 
27 ,4.9915 ,0.89430 ,4.75782 ,46.68368 
28 ,5.1680 ,0.89595 ,4.73044 ,46.41506 
29 ,5.3600 ,0.89783 ,4.71333 ,46.24716 
30 ,5.5358 ,0.89963 ,4.68937 ,46.01212 
31 ,5.7281 ,0.90148 ,4.69964 ,46.11285 
32 ,5.9202 ,0.90344 ,4.66884 ,45.81065 
33 ,6.1121 ,0.90536 ,4.64488 ,45.57560 
34 ,6.2721 ,0.90710 ,4.64831 ,45.60918 
35 ,6.4484 ,0.90876 ,4.62435 ,45.37413 
36 ,6.6404 ,0.91068 ,4.59697 ,45.10550 
37 ,6.8326 ,0.91256 ,4.59013 ,45.03835 
38 ,7.0086 ,0.91441 ,4.56960 ,44.83688 
39 ,7.1685 ,0.91604 ,4.55591 ,44.70256 
40 ,7.3446 ,0.91771 ,4.54906 ,44.63541 
41 ,7.5205 ,0.91956 ,4.51484 ,44.29962 
42 ,7.7129 ,0.92135 ,4.52169 ,44.36678 
43 ,7.8885 ,0.92320 ,4.50457 ,44.19889 
44 ,8.0485 ,0.92486 ,4.47720 ,43.93026 
45 ,8.2087 ,0.92648 ,4.47035 ,43.86310 
46 ,8.4011 ,0.92816 ,4.43613 ,43.52732 
47 ,8.6090 ,0.93034 ,4.42929 ,43.46016 
48 ,8.8013 ,0.93224 ,4.39507 ,43.12438 
49 ,8.9934 ,0.93418 ,4.38138 ,42.99007 
50 ,9.1851 ,0.93609 ,4.38822 ,43.05723 
51 ,9.3614 ,0.93788 ,4.37111 ,42.88933 
52 ,9.5536 ,0.93977 ,4.33347 ,42.51997 
53 ,9.7295 ,0.94151 ,4.33004 ,42.48639 
54 ,9.9057 ,0.94329 ,4.32662 ,42.45282 
55 ,10.0978 ,0.94523 ,4.28898 ,42.08345 
56 ,10.2738 ,0.94702 ,4.28213 ,42.01630 
57 ,10.4500 ,0.94874 ,4.26502 ,41.84841 
58 ,10.6418 ,0.95065 ,4.25476 ,41.74767 
59 ,10.8182 ,0.95240 ,4.23765 ,41.57978 
60 ,10.9943 ,0.95419 ,4.21027 ,41.31115 
61 ,11.1863 ,0.95611 ,4.20685 ,41.27758 
62 ,11.3463 ,0.95782 ,4.18289 ,41.04253 
63 ,11.5064 ,0.95942 ,4.16236 ,40.84106 
64 ,11.6826 ,0.96104 ,4.16236 ,40.84106 
65 ,11.8748 ,0.96298 ,4.14183 ,40.63959 
66 ,12.0506 ,0.96473 ,4.13156 ,40.53885 
67 ,12.2426 ,0.96661 ,4.10076 ,40.23665 
68 ,12.4349 ,0.96859 ,4.08365 ,40.06876 
69 ,12.6109 ,0.97035 ,4.08707 ,40.10233 
70 ,12.8033 ,0.97225 ,4.05969 ,39.83371 
71 ,12.9951 ,0.97419 ,4.03232 ,39.56508 
72 ,13.1712 ,0.97594 ,4.03574 ,39.59866 
73 ,13.3471 ,0.97764 ,4.02547 ,39.49793 
74 ,13.5392 ,0.97954 ,3.98783 ,39.12856 
75 ,13.7312 ,0.98153 ,3.98098 ,39.06141 
76 ,13.9075 ,0.98330 ,3.97414 ,38.99425 
77 ,14.0994 ,0.98513 ,3.94676 ,38.72562 
78 ,14.2756 ,0.98697 ,3.92623 ,38.52415 
79 ,14.4675 ,0.98894 ,3.90570 ,38.32268 
80 ,14.6438 ,0.99061 ,3.89201 ,38.18837 
81 ,14.8198 ,0.99245 ,3.86805 ,37.95332 
82 ,15.0279 ,0.99442 ,3.87490 ,38.02048 
83 ,15.2198 ,0.99634 ,3.84410 ,37.71828 
84 ,15.3959 ,0.99818 ,3.83041 ,37.58396 
85 ,15.5720 ,1.00007 ,3.81672 ,37.44965 
86 ,15.7643 ,1.00184 ,3.78934 ,37.18102 
87 ,15.9402 ,1.00363 ,3.78250 ,37.11387 
88 ,16.1321 ,1.00549 ,3.77565 ,37.04671 
89 ,16.3085 ,1.00730 ,3.77223 ,37.01313 
90 ,16.4845 ,1.00911 ,3.74828 ,36.77808 
91 ,16.6765 ,1.01099 ,3.72090 ,36.50946 
92 ,16.8687 ,1.01286 ,3.71748 ,36.47588 
93 ,17.0447 ,1.01468 ,3.70037 ,36.30799 
94 ,17.2366 ,1.01657 ,3.65588 ,35.87147 
95 ,17.4129 ,1.01832 ,3.64903 ,35.80431 
96 ,17.6045 ,1.02029 ,3.64219 ,35.73716 
97 ,17.7810 ,1.02201 ,3.60797 ,35.40137 
98 ,17.9731 ,1.02392 ,3.59770 ,35.30064 
99 ,18.1492 ,1.02576 ,3.58743 ,35.19990 
100 ,18.3252 ,1.02759 ,3.56006 ,34.93128 
101 ,18.5172 ,1.02933 ,3.54979 ,34.83054 
102 ,18.6772 ,1.03115 ,3.54637 ,34.79696 
103 ,18.8374 ,1.03268 ,3.52241 ,34.56192 
104 ,19.0136 ,1.03435 ,3.50872 ,34.42760 
105 ,19.2055 ,1.03616 ,3.48135 ,34.15898 
106 ,19.3816 ,1.03807 ,3.45739 ,33.92393 
107 ,19.5577 ,1.03988 ,3.45397 ,33.89035 
108 ,19.7174 ,1.04150 ,3.44713 ,33.82319 
109 ,19.8938 ,1.04310 ,3.44028 ,33.75604 
110 ,20.0858 ,1.04507 ,3.39921 ,33.35310 
111 ,20.2620 ,1.04683 ,3.38895 ,33.25236 
112 ,20.4381 ,1.04858 ,3.36842 ,33.05089 
113 ,20.6141 ,1.05045 ,3.36499 ,33.01731 
114 ,20.7743 ,1.05205 ,3.35473 ,32.91658 
115 ,20.9503 ,1.05370 ,3.34446 ,32.81584 
116 ,21.1263 ,1.05549 ,3.31708 ,32.54722 
117 ,21.3025 ,1.05727 ,3.29313 ,32.31217 
118 ,21.4782 ,1.05913 ,3.29313 ,32.31217 
119 ,21.6546 ,1.06071 ,3.27259 ,32.11070 
120 ,21.8304 ,1.06250 ,3.25206 ,31.90923 
121 ,22.0067 ,1.06423 ,3.22126 ,31.60702 
122 ,22.1986 ,1.06614 ,3.20757 ,31.47271 
123 ,22.3908 ,1.06810 ,3.20073 ,31.40555 
124 ,22.5669 ,1.06988 ,3.17335 ,31.13693 
125 ,22.7590 ,1.07176 ,3.16651 ,31.06977 
126 ,22.9350 ,1.07368 ,3.15282 ,30.93546 
127 ,23.1272 ,1.07538 ,3.12202 ,30.63325 
128 ,23.3191 ,1.07731 ,3.10491 ,30.46536 
129 ,23.5111 ,1.07931 ,3.10833 ,30.49894 
130 ,23.7034 ,1.08123 ,3.06384 ,30.06242 
131 ,23.8792 ,1.08302 ,3.05358 ,29.96169 
132 ,24.0716 ,1.08483 ,3.06042 ,30.02884 
133 ,24.2635 ,1.08683 ,3.02278 ,29.65948 
134 ,24.4397 ,1.08855 ,3.01593 ,29.59233 
135 ,24.6157 ,1.09034 ,2.99540 ,29.39086 
136 ,24.8079 ,1.09225 ,2.96802 ,29.12223 
137 ,24.9838 ,1.09407 ,2.94064 ,28.85360 
138 ,25.1601 ,1.09576 ,2.93722 ,28.82003 
139 ,25.3521 ,1.09769 ,2.93722 ,28.82003 
140 ,25.5281 ,1.09948 ,2.90642 ,28.51782 
141 ,25.7200 ,1.10130 ,2.89273 ,28.38351 
142 ,25.8962 ,1.10314 ,2.87905 ,28.24919 
143 ,26.0719 ,1.10499 ,2.84825 ,27.94699 
144 ,26.2481 ,1.10662 ,2.83114 ,27.77910 
145 ,26.4245 ,1.10841 ,2.82429 ,27.71194 
146 ,26.5845 ,1.11019 ,2.80718 ,27.54405 
147 ,26.7446 ,1.11174 ,2.79691 ,27.44332 
148 ,26.9207 ,1.11332 ,2.77980 ,27.27542 
149 ,27.0968 ,1.11515 ,2.77638 ,27.24185 
150 ,27.2888 ,1.11704 ,2.74900 ,26.97322 
151 ,27.4809 ,1.11895 ,2.72505 ,26.73817 
152 ,27.6732 ,1.12083 ,2.72505 ,26.73817 
153 ,27.8652 ,1.12281 ,2.69767 ,26.46954 
154 ,28.0571 ,1.12478 ,2.69767 ,26.46954 
155 ,28.2333 ,1.12649 ,2.67372 ,26.23450 
156 ,28.4093 ,1.12826 ,2.67029 ,26.20092 
157 ,28.6174 ,1.13029 ,2.64634 ,25.96587 
158 ,28.7934 ,1.13207 ,2.63265 ,25.83156 
159 ,28.9697 ,1.13388 ,2.62581 ,25.76440 
160 ,29.1454 ,1.13563 ,2.58474 ,25.36146 
161 ,29.3216 ,1.13737 ,2.57447 ,25.26073 
162 ,29.5138 ,1.13930 ,2.56421 ,25.15999 
163 ,29.7059 ,1.14122 ,2.53341 ,24.85779 
164 ,29.8819 ,1.14299 ,2.51630 ,24.68989 
165 ,30.0742 ,1.14490 ,2.52314 ,24.75705 
166 ,30.2501 ,1.14681 ,2.47865 ,24.32053 
167 ,30.4099 ,1.14838 ,2.47181 ,24.25338 
168 ,30.5862 ,1.15003 ,2.47181 ,24.25338 
169 ,30.7783 ,1.15191 ,2.46839 ,24.21980 
170 ,30.9543 ,1.15373 ,2.44101 ,23.95117 
171 ,31.1464 ,1.15559 ,2.41021 ,23.64897 
172 ,31.3225 ,1.15750 ,2.41363 ,23.68255 
173 ,31.4986 ,1.15911 ,2.39652 ,23.51465 
174 ,31.6749 ,1.16087 ,2.38283 ,23.38034 
175 ,31.8667 ,1.16281 ,2.35888 ,23.14529 
176 ,32.0428 ,1.16460 ,2.34519 ,23.01098 
177 ,32.2188 ,1.16634 ,2.33834 ,22.94382 
178 ,32.3788 ,1.16806 ,2.32808 ,22.84309 
179 ,32.5711 ,1.16985 ,2.30754 ,22.64162 
180 ,32.7632 ,1.17174 ,2.28017 ,22.37299 
181 ,32.9551 ,1.17371 ,2.27674 ,22.33941 
182 ,33.1311 ,1.17543 ,2.27674 ,22.33941 
183 ,33.2910 ,1.17721 ,2.24594 ,22.03721 
184 ,33.4671 ,1.17878 ,2.23568 ,21.93647 
185 ,33.6435 ,1.18058 ,2.20146 ,21.60069 
186 ,33.8356 ,1.18246 ,2.21857 ,21.76858 
187 ,34.0114 ,1.18425 ,2.19461 ,21.53353 
188 ,34.1876 ,1.18600 ,2.16039 ,21.19775 
189 ,34.3797 ,1.18795 ,2.16723 ,21.26491 
190 ,34.5718 ,1.18986 ,2.14670 ,21.06344 
191 ,34.7476 ,1.19173 ,2.11932 ,20.79481 
192 ,34.9241 ,1.19336 ,2.09537 ,20.55976 
193 ,35.1001 ,1.19515 ,2.09195 ,20.52619 
194 ,35.2762 ,1.19693 ,2.08852 ,20.49261 
195 ,35.4680 ,1.19880 ,2.06115 ,20.22398 
196 ,35.6442 ,1.20056 ,2.04746 ,20.08967 
197 ,35.8364 ,1.20251 ,2.04746 ,20.08967 
198 ,36.0124 ,1.20431 ,2.04404 ,20.05609 
199 ,36.1885 ,1.20601 ,2.00297 ,19.65315 
200 ,36.3646 ,1.20782 ,1.99955 ,19.61957 
201 ,36.5404 ,1.20952 ,1.97217 ,19.35094 
202 ,36.7167 ,1.21127 ,1.98928 ,19.51884 
203 ,36.8925 ,1.21302 ,1.96533 ,19.28379 
204 ,37.0685 ,1.21481 ,1.94137 ,19.04874 
205 ,37.2287 ,1.21655 ,1.91742 ,18.81369 
206 ,37.4047 ,1.21818 ,1.90715 ,18.71296 
207 ,37.5807 ,1.21995 ,1.88662 ,18.51149 
208 ,37.7408 ,1.22168 ,1.88319 ,18.47791 
209 ,37.9172 ,1.22336 ,1.88319 ,18.47791 
210 ,38.1254 ,1.22537 ,1.84213 ,18.07497 
211 ,38.3174 ,1.22732 ,1.84555 ,18.10855 
212 ,38.4935 ,1.22908 ,1.83186 ,17.97423 
213 ,38.6531 ,1.23080 ,1.80106 ,17.67203 
214 ,38.8296 ,1.23239 ,1.78395 ,17.50414 
215 ,39.0057 ,1.23419 ,1.77369 ,17.40340 
216 ,39.1975 ,1.23608 ,1.78737 ,17.53772 
217 ,39.3741 ,1.23789 ,1.77026 ,17.36983 
218 ,39.5497 ,1.23962 ,1.74289 ,17.10120 
219 ,39.7260 ,1.24146 ,1.72578 ,16.93331 
220 ,39.9020 ,1.24313 ,1.71209 ,16.79899 
221 ,40.0941 ,1.24503 ,1.70524 ,16.73184 
222 ,40.2702 ,1.24684 ,1.69498 ,16.63110 
223 ,40.4463 ,1.24857 ,1.67444 ,16.42963 
224 ,40.6383 ,1.25050 ,1.66760 ,16.36248 
225 ,40.8144 ,1.25223 ,1.64707 ,16.16101 
226 ,41.0065 ,1.25420 ,1.61969 ,15.89238 
227 ,41.1985 ,1.25612 ,1.62995 ,15.99311 
228 ,41.3906 ,1.25799 ,1.58889 ,15.59018 
229 ,41.5668 ,1.25981 ,1.58889 ,15.59018 
230 ,41.7428 ,1.26150 ,1.57520 ,15.45586 
231 ,41.9188 ,1.26334 ,1.56493 ,15.35513 
232 ,42.1110 ,1.26520 ,1.54782 ,15.18724 
233 ,42.3032 ,1.26716 ,1.53413 ,15.05292 
234 ,42.4952 ,1.26908 ,1.52045 ,14.91861 
235 ,42.6872 ,1.27095 ,1.48280 ,14.54925 
236 ,42.8793 ,1.27291 ,1.49991 ,14.71714 
237 ,43.0553 ,1.27463 ,1.48965 ,14.61640 
238 ,43.2315 ,1.27643 ,1.46569 ,14.38136 
239 ,43.4074 ,1.27817 ,1.44858 ,14.21346 
240 ,43.5996 ,1.28005 ,1.44174 ,14.14631 
241 ,43.7756 ,1.28188 ,1.42120 ,13.94484 
242 ,43.9357 ,1.28357 ,1.40067 ,13.74337 
243 ,44.1116 ,1.28523 ,1.40067 ,13.74337 
244 ,44.3197 ,1.28728 ,1.38698 ,13.60906 
245 ,44.5119 ,1.28918 ,1.35960 ,13.34043 
246 ,44.6880 ,1.29096 ,1.34249 ,13.17254 
247 ,44.8801 ,1.29291 ,1.34591 ,13.20612 
248 ,45.0724 ,1.29481 ,1.32538 ,13.00465 
249 ,45.2643 ,1.29677 ,1.29800 ,12.73602 
250 ,45.4403 ,1.29852 ,1.30143 ,12.76960 
251 ,45.6163 ,1.30029 ,1.28432 ,12.60171 
252 ,45.7923 ,1.30199 ,1.26378 ,12.40024 
253 ,45.9842 ,1.30393 ,1.25009 ,12.26592 
254 ,46.1605 ,1.30569 ,1.24667 ,12.23235 
255 ,46.3527 ,1.30762 ,1.22272 ,11.99730 
256 ,46.5446 ,1.30953 ,1.22272 ,11.99730 
257 ,46.7207 ,1.31132 ,1.20218 ,11.79583 
258 ,46.9129 ,1.31320 ,1.18507 ,11.62794 
259 ,47.1209 ,1.31524 ,1.17138 ,11.49362 
260 ,47.2969 ,1.31703 ,1.16112 ,11.39289 
261 ,47.4734 ,1.31885 ,1.15085 ,11.29215 
262 ,47.6492 ,1.32057 ,1.13374 ,11.12426 
263 ,47.8412 ,1.32250 ,1.13374 ,11.12426 
264 ,48.0174 ,1.32429 ,1.11663 ,10.95637 
265 ,48.2094 ,1.32614 ,1.08925 ,10.68774 
266 ,48.4014 ,1.32810 ,1.09610 ,10.75490 
267 ,48.5777 ,1.32986 ,1.07556 ,10.55343 
268 ,48.7697 ,1.33177 ,1.05161 ,10.31838 
269 ,48.9618 ,1.33368 ,1.05845 ,10.38554 
270 ,49.1377 ,1.33547 ,1.04134 ,10.21765 
271 ,49.3299 ,1.33732 ,1.00712 ,9.88186 
272 ,49.5221 ,1.33932 ,1.00370 ,9.84829 
273 ,49.7141 ,1.34126 ,0.99685 ,9.78113 
274 ,49.8900 ,1.34299 ,0.97974 ,9.61324 
275 ,50.0661 ,1.34473 ,0.96263 ,9.44535 
276 ,50.2420 ,1.34652 ,0.96263 ,9.44535 
277 ,50.4183 ,1.34828 ,0.94210 ,9.24388 
278 ,50.5944 ,1.35013 ,0.92499 ,9.07598 
279 ,50.7703 ,1.35175 ,0.89761 ,8.80736 
280 ,50.9465 ,1.35352 ,0.89761 ,8.80736 
281 ,51.1226 ,1.35532 ,0.90446 ,8.87451 
282 ,51.2983 ,1.35719 ,0.87366 ,8.57231 
283 ,51.4750 ,1.35882 ,0.86339 ,8.47158 
284 ,51.6507 ,1.36061 ,0.83943 ,8.23653 
285 ,51.8429 ,1.36249 ,0.85312 ,8.37084 
286 ,52.0350 ,1.36448 ,0.80863 ,7.93432 
287 ,52.2271 ,1.36634 ,0.81548 ,8.00148 
288 ,52.3869 ,1.36806 ,0.81206 ,7.96790 
289 ,52.5632 ,1.36971 ,0.79152 ,7.76643 
290 ,52.7392 ,1.37144 ,0.78468 ,7.69927 
291 ,52.9312 ,1.37335 ,0.75046 ,7.36349 
292 ,53.1075 ,1.37513 ,0.73677 ,7.22918 
293 ,53.2832 ,1.37689 ,0.73677 ,7.22918 
294 ,53.4435 ,1.37860 ,0.72650 ,7.12844 
295 ,53.6196 ,1.38026 ,0.71624 ,7.02771 
296 ,53.7957 ,1.38203 ,0.70939 ,6.96055 
297 ,53.9718 ,1.38377 ,0.68201 ,6.69193 
298 ,54.1476 ,1.38555 ,0.67517 ,6.62477 
299 ,54.3239 ,1.38729 ,0.67517 ,6.62477 
300 ,54.4998 ,1.38918 ,0.65464 ,6.42330 
301 ,54.6758 ,1.39083 ,0.64779 ,6.35614 
302 ,54.8521 ,1.39255 ,0.62384 ,6.12109 
303 ,55.0441 ,1.39456 ,0.62042 ,6.08752 
304 ,55.2203 ,1.39627 ,0.60673 ,5.95320 
305 ,55.3962 ,1.39803 ,0.59988 ,5.88605 
306 ,55.5724 ,1.39991 ,0.56908 ,5.58384 
307 ,55.7647 ,1.40167 ,0.57593 ,5.65100 
308 ,55.9564 ,1.40361 ,0.54171 ,5.31522 
309 ,56.1326 ,1.40540 ,0.52802 ,5.18090 
310 ,56.3087 ,1.40714 ,0.51433 ,5.04659 
311 ,56.5006 ,1.40905 ,0.51091 ,5.01301 
312 ,56.6928 ,1.41094 ,0.49722 ,4.87870 
313 ,56.8849 ,1.41290 ,0.49037 ,4.81154 
314 ,57.0610 ,1.41465 ,0.48011 ,4.71081 
315 ,57.2367 ,1.41657 ,0.46300 ,4.54291 
316 ,57.4131 ,1.41820 ,0.43904 ,4.30787 
317 ,57.6049 ,1.42017 ,0.44588 ,4.37502 
318 ,57.7813 ,1.42186 ,0.43562 ,4.27429 
319 ,57.9736 ,1.42378 ,0.40140 ,3.93850 
320 ,58.1492 ,1.42558 ,0.39455 ,3.87135 
321 ,58.3256 ,1.42733 ,0.38429 ,3.77061 
322 ,58.5335 ,1.42937 ,0.37060 ,3.63630 
323 ,58.6936 ,1.43113 ,0.36033 ,3.53557 
324 ,58.8696 ,1.43273 ,0.34322 ,3.36767 
325 ,59.0457 ,1.43451 ,0.33980 ,3.33410 
326 ,59.2379 ,1.43644 ,0.32611 ,3.19978 
327 ,59.4300 ,1.43839 ,0.30558 ,2.99831 
328 ,59.6219 ,1.44018 ,0.31584 ,3.09905 
329 ,59.8141 ,1.44218 ,0.29189 ,2.86400 
330 ,59.9901 ,1.44397 ,0.27478 ,2.69611 
331 ,60.1662 ,1.44569 ,0.28504 ,2.79684 
332 ,60.3584 ,1.44759 ,0.25082 ,2.46106 
333 ,60.5344 ,1.44941 ,0.23371 ,2.29317 
334 ,60.7261 ,1.45124 ,0.24398 ,2.39390 
335 ,60.9186 ,1.45315 ,0.20976 ,2.05812 
336 ,61.0943 ,1.45501 ,0.19949 ,1.95738 
337 ,61.2868 ,1.45681 ,0.19264 ,1.89023 
338 ,61.4626 ,1.45869 ,0.18922 ,1.85665 
339 ,61.6386 ,1.46043 ,0.16869 ,1.65518 
340 ,61.8144 ,1.46215 ,0.14816 ,1.45371 
341 ,61.9908 ,1.46393 ,0.14816 ,1.45371 
342 ,62.2151 ,1.46604 ,0.13447 ,1.31940 
343 ,62.4071 ,1.46809 ,0.13447 ,1.31940 
344 ,62.5832 ,1.46992 ,0.11393 ,1.11793 
345 ,62.7753 ,1.47175 ,0.07971 ,0.78214 
346 ,62.9353 ,1.47352 ,0.08314 ,0.81572 
347 ,63.1273 ,1.47527 ,0.08656 ,0.84930 
348 ,63.3033 ,1.47707 ,0.06945 ,0.68141 
349 ,63.4954 ,1.47895 ,0.03865 ,0.37920 
350 ,63.6875 ,1.48089 ,0.05234 ,0.51352 
351 ,63.8634 ,1.48271 ,0.02838 ,0.27847 
352 ,64.0394 ,1.48439 ,0.02496 ,0.24489 
353 ,64.1994 ,1.48614 ,0.00443 ,0.04342 
354 ,64.3596 ,1.48774 ,-0.00584 ,-0.05731 
355 ,64.5357 ,1.48936 ,-0.01953 ,-0.19163 
356 ,64.6956 ,1.49111 ,-0.02980 ,-0.29236 
357 ,64.8719 ,1.49274 ,-0.05033 ,-0.49383 
358 ,65.0318 ,1.49446 ,-0.04006 ,-0.39310 
359 ,65.2079 ,1.49608 ,-0.06060 ,-0.59457 
360 ,65.3680 ,1.49786 ,-0.05717 ,-0.56099 
361 ,65.5281 ,1.49943 ,-0.06402 ,-0.62814 
362 ,65.6881 ,1.50103 ,-0.06402 ,-0.62814 
363 ,65.8481 ,1.50264 ,-0.07771 ,-0.76246 
364 ,66.0082 ,1.50424 ,-0.08455 ,-0.82961 
365 ,66.1843 ,1.50583 ,-0.08797 ,-0.86319 
366 ,66.3444 ,1.50759 ,-0.11535 ,-1.13182 
367 ,66.5044 ,1.50918 ,-0.11877 ,-1.16540 
368 ,66.6646 ,1.51077 ,-0.14957 ,-1.46760 
369 ,66.8246 ,1.51236 ,-0.14273 ,-1.40045 
370 ,66.9847 ,1.51399 ,-0.16668 ,-1.63549 
371 ,67.1447 ,1.51558 ,-0.17353 ,-1.70265 
372 ,67.3047 ,1.51720 ,-0.17011 ,-1.66907 
373 ,67.4649 ,1.51879 ,-0.18722 ,-1.83696 
374 ,67.6408 ,1.52049 ,-0.21117 ,-2.07201 
375 ,67.8009 ,1.52217 ,-0.21802 ,-2.13917 
376 ,67.9770 ,1.52377 ,-0.22828 ,-2.23990 
377 ,68.1532 ,1.52548 ,-0.22144 ,-2.17275 
378 ,68.3130 ,1.52727 ,-0.22828 ,-2.23990 
379 ,68.4730 ,1.52886 ,-0.23513 ,-2.30706 
380 ,68.6331 ,1.53045 ,-0.23855 ,-2.34064 
381 ,68.8096 ,1.53214 ,-0.25566 ,-2.50853 
382 ,69.0015 ,1.53402 ,-0.27961 ,-2.74358 
383 ,69.1778 ,1.53590 ,-0.28988 ,-2.84431 
384 ,69.3539 ,1.53752 ,-0.30357 ,-2.97863 
385 ,69.5457 ,1.53946 ,-0.31041 ,-3.04578 
386 ,69.7220 ,1.54121 ,-0.33095 ,-3.24725 
387 ,69.9142 ,1.54314 ,-0.33779 ,-3.31441 
388 ,70.0901 ,1.54495 ,-0.34806 ,-3.41514 
389 ,70.2501 ,1.54666 ,-0.33779 ,-3.31441 
390 ,70.4264 ,1.54825 ,-0.35490 ,-3.48230 
391 ,70.6184 ,1.55018 ,-0.38570 ,-3.78450 
392 ,70.7945 ,1.55193 ,-0.38912 ,-3.81808 
393 ,70.9708 ,1.55371 ,-0.40281 ,-3.95240 
394 ,71.1625 ,1.55563 ,-0.40281 ,-3.95240 
395 ,71.3549 ,1.55753 ,-0.43019 ,-4.22102 
396 ,71.5468 ,1.55947 ,-0.43019 ,-4.22102 
397 ,71.7390 ,1.56133 ,-0.44730 ,-4.38891 
398 ,71.9310 ,1.56329 ,-0.45757 ,-4.48965 
399 ,72.1230 ,1.56521 ,-0.48494 ,-4.75828 
400 ,72.2827 ,1.56695 ,-0.50206 ,-4.92617 
401 ,72.4592 ,1.56858 ,-0.49863 ,-4.89259 
402 ,72.6513 ,1.57047 ,-0.48837 ,-4.79185 
403 ,72.8273 ,1.57229 ,-0.49521 ,-4.85901 
404 ,73.0034 ,1.57404 ,-0.51917 ,-5.09406 
405 ,73.1954 ,1.57591 ,-0.52601 ,-5.16121 
406 ,73.3714 ,1.57782 ,-0.53970 ,-5.29553 
407 ,73.5475 ,1.57944 ,-0.54654 ,-5.36268 
408 ,73.7238 ,1.58122 ,-0.57734 ,-5.66489 
409 ,73.8997 ,1.58304 ,-0.59103 ,-5.79920 
410 ,74.0919 ,1.58486 ,-0.57050 ,-5.59773 
411 ,74.2681 ,1.58670 ,-0.57392 ,-5.63131 
412 ,74.4438 ,1.58858 ,-0.62525 ,-6.13499 
413 ,74.6201 ,1.59018 ,-0.62183 ,-6.10141 
414 ,74.8121 ,1.59207 ,-0.62525 ,-6.13499 
415 ,74.9882 ,1.59388 ,-0.62525 ,-6.13499 
416 ,75.1642 ,1.59559 ,-0.65947 ,-6.47077 
417 ,75.3564 ,1.59751 ,-0.65263 ,-6.40361 
418 ,75.5323 ,1.59930 ,-0.66290 ,-6.50435 
419 ,75.7246 ,1.60126 ,-0.69027 ,-6.77297 
420 ,75.9165 ,1.60317 ,-0.70054 ,-6.87371 
421 ,76.1088 ,1.60509 ,-0.69712 ,-6.84013 
422 ,76.3005 ,1.60696 ,-0.73134 ,-7.17591 
423 ,76.4766 ,1.60876 ,-0.71765 ,-7.04160 
424 ,76.6530 ,1.61050 ,-0.74503 ,-7.31023 
425 ,76.8449 ,1.61244 ,-0.74503 ,-7.31023 
426 ,77.0371 ,1.61427 ,-0.74503 ,-7.31023 
427 ,77.2130 ,1.61612 ,-0.76556 ,-7.51170 
428 ,77.4053 ,1.61797 ,-0.79294 ,-7.78032 
429 ,77.5650 ,1.61978 ,-0.80321 ,-7.88106 
430 ,77.7413 ,1.62136 ,-0.80321 ,-7.88106 
431 ,77.9176 ,1.62312 ,-0.81689 ,-8.01537 
432 ,78.0934 ,1.62493 ,-0.82374 ,-8.08253 
433 ,78.2855 ,1.62687 ,-0.84085 ,-8.25042 
434 ,78.4778 ,1.62872 ,-0.83743 ,-8.21684 
435 ,78.6376 ,1.63050 ,-0.84427 ,-8.28400 
436 ,78.8138 ,1.63210 ,-0.86481 ,-8.48547 
437 ,78.9897 ,1.63389 ,-0.86823 ,-8.51904 
438 ,79.1819 ,1.63580 ,-0.89218 ,-8.75409 
439 ,79.3744 ,1.63768 ,-0.87849 ,-8.61978 
440 ,79.5501 ,1.63946 ,-0.89560 ,-8.78767 
441 ,79.7419 ,1.64138 ,-0.92983 ,-9.12345 
442 ,79.9342 ,1.64329 ,-0.90245 ,-8.85483 
443 ,80.1101 ,1.64507 ,-0.93667 ,-9.19061 
444 ,80.2864 ,1.64680 ,-0.94351 ,-9.25777 
445 ,80.4623 ,1.64861 ,-0.96405 ,-9.45924 
446 ,80.6224 ,1.65033 ,-0.96747 ,-9.49282 
447 ,80.7985 ,1.65192 ,-0.97774 ,-9.59355 
448 ,80.9906 ,1.65380 ,-0.99485 ,-9.76144 
449 ,81.1667 ,1.65574 ,-1.00511 ,-9.86218 
450 ,81.3428 ,1.65739 ,-1.01880 ,-9.99649 
451 ,81.5348 ,1.65930 ,-0.99827 ,-9.79502 
452 ,81.7109 ,1.66105 ,-1.02907 ,-10.09723 
453 ,81.9030 ,1.66297 ,-1.04618 ,-10.26512 
454 ,82.0949 ,1.66492 ,-1.04618 ,-10.26512 
455 ,82.3029 ,1.66692 ,-1.05645 ,-10.36585 
456 ,82.5112 ,1.66893 ,-1.05302 ,-10.33227 
457 ,82.6873 ,1.67084 ,-1.07014 ,-10.50016 
458 ,82.8632 ,1.67271 ,-1.07014 ,-10.50016 
459 ,83.0393 ,1.67435 ,-1.09067 ,-10.70163 
460 ,83.2154 ,1.67613 ,-1.09751 ,-10.76879 
461 ,83.3913 ,1.67789 ,-1.10093 ,-10.80237 
462 ,83.5673 ,1.67970 ,-1.11120 ,-10.90310 
