Data stamp = , 30-03-2022 06:55:27 973

Calibration Values: 
Slope = , 26.54 , g/V 
Offset Voltage at no contact = , -0.501760 , V 

No , Time , Stage Position ,   Mass , Force 
   ,  (s) ,      (mm)      ,   (g)  , (mN)  

1 ,0.0000 ,0.84938 ,5.04185 ,49.47068 
2 ,0.2140 ,0.84945 ,5.04185 ,49.47068 
3 ,0.4542 ,0.85008 ,5.01790 ,49.23563 
4 ,0.6465 ,0.85113 ,5.04185 ,49.47068 
5 ,0.8226 ,0.85250 ,5.04870 ,49.53784 
6 ,0.9986 ,0.85411 ,5.04185 ,49.47068 
7 ,1.1908 ,0.85595 ,5.03501 ,49.40352 
8 ,1.3987 ,0.85784 ,5.04528 ,49.50426 
9 ,1.5749 ,0.85989 ,5.01448 ,49.20205 
10 ,1.7509 ,0.86166 ,4.99052 ,48.96701 
11 ,1.9270 ,0.86338 ,4.98026 ,48.86627 
12 ,2.1031 ,0.86515 ,4.98368 ,48.89985 
13 ,2.2790 ,0.86693 ,4.96999 ,48.76554 
14 ,2.4552 ,0.86860 ,4.93235 ,48.39618 
15 ,2.6311 ,0.87042 ,4.93235 ,48.39618 
16 ,2.8233 ,0.87232 ,4.91181 ,48.19471 
17 ,2.9993 ,0.87410 ,4.90155 ,48.09397 
18 ,3.1756 ,0.87587 ,4.87075 ,47.79177 
19 ,3.3675 ,0.87768 ,4.86390 ,47.72461 
20 ,3.5432 ,0.87953 ,4.85021 ,47.59030 
21 ,3.7197 ,0.88131 ,4.83652 ,47.45598 
22 ,3.9117 ,0.88321 ,4.80230 ,47.12020 
23 ,4.0878 ,0.88496 ,4.79888 ,47.08662 
24 ,4.2635 ,0.88672 ,4.78861 ,46.98589 
25 ,4.4560 ,0.88854 ,4.77493 ,46.85157 
26 ,4.6321 ,0.89044 ,4.75097 ,46.61653 
27 ,4.8242 ,0.89233 ,4.74755 ,46.58295 
28 ,5.0002 ,0.89409 ,4.72017 ,46.31432 
29 ,5.1922 ,0.89589 ,4.70990 ,46.21359 
30 ,5.3845 ,0.89785 ,4.69622 ,46.07927 
31 ,5.5764 ,0.89991 ,4.66542 ,45.77707 
32 ,5.7524 ,0.90160 ,4.65173 ,45.64275 
33 ,5.9283 ,0.90339 ,4.62777 ,45.40771 
34 ,6.1044 ,0.90516 ,4.62777 ,45.40771 
35 ,6.2967 ,0.90707 ,4.57986 ,44.93761 
36 ,6.4726 ,0.90883 ,4.57986 ,44.93761 
37 ,6.6647 ,0.91072 ,4.56960 ,44.83688 
38 ,6.8568 ,0.91265 ,4.53880 ,44.53467 
39 ,7.0488 ,0.91444 ,4.53537 ,44.50109 
40 ,7.2410 ,0.91644 ,4.50115 ,44.16531 
41 ,7.4328 ,0.91838 ,4.48746 ,44.03100 
42 ,7.5927 ,0.92014 ,4.47720 ,43.93026 
43 ,7.7688 ,0.92180 ,4.44640 ,43.62806 
44 ,7.9452 ,0.92357 ,4.45666 ,43.72879 
45 ,8.1534 ,0.92561 ,4.41902 ,43.35943 
46 ,8.3294 ,0.92733 ,4.40533 ,43.22512 
47 ,8.5056 ,0.92915 ,4.39849 ,43.15796 
48 ,8.6815 ,0.93091 ,4.36769 ,42.85576 
49 ,8.8578 ,0.93268 ,4.34373 ,42.62071 
50 ,9.0493 ,0.93451 ,4.34373 ,42.62071 
51 ,9.2258 ,0.93630 ,4.31636 ,42.35208 
52 ,9.4018 ,0.93805 ,4.29924 ,42.18419 
53 ,9.5776 ,0.93985 ,4.27529 ,41.94914 
54 ,9.7377 ,0.94155 ,4.27529 ,41.94914 
55 ,9.9141 ,0.94326 ,4.25818 ,41.78125 
56 ,10.1222 ,0.94524 ,4.23422 ,41.54620 
57 ,10.2982 ,0.94708 ,4.21369 ,41.34473 
58 ,10.4743 ,0.94884 ,4.19316 ,41.14326 
59 ,10.6501 ,0.95055 ,4.18974 ,41.10968 
60 ,10.8100 ,0.95228 ,4.16920 ,40.90821 
61 ,10.9868 ,0.95394 ,4.15209 ,40.74032 
62 ,11.1625 ,0.95568 ,4.13156 ,40.53885 
63 ,11.3866 ,0.95777 ,4.11103 ,40.33738 
64 ,11.5788 ,0.95977 ,4.07338 ,39.96802 
65 ,11.7709 ,0.96180 ,4.08365 ,40.06876 
66 ,11.9469 ,0.96350 ,4.06996 ,39.93444 
67 ,12.1391 ,0.96540 ,4.03916 ,39.63224 
68 ,12.3151 ,0.96726 ,4.03232 ,39.56508 
69 ,12.5071 ,0.96910 ,4.01863 ,39.43077 
70 ,12.6834 ,0.97088 ,3.97414 ,38.99425 
71 ,12.8594 ,0.97267 ,3.96387 ,38.89352 
72 ,13.0513 ,0.97457 ,3.96045 ,38.85994 
73 ,13.2275 ,0.97634 ,3.95361 ,38.79278 
74 ,13.4195 ,0.97828 ,3.91596 ,38.42342 
75 ,13.5955 ,0.98008 ,3.90570 ,38.32268 
76 ,13.7876 ,0.98191 ,3.88174 ,38.08764 
77 ,13.9635 ,0.98368 ,3.85094 ,37.78543 
78 ,14.1558 ,0.98557 ,3.86121 ,37.88617 
79 ,14.3319 ,0.98742 ,3.85094 ,37.78543 
80 ,14.5078 ,0.98911 ,3.82356 ,37.51681 
81 ,14.6841 ,0.99089 ,3.79619 ,37.24818 
82 ,14.8602 ,0.99268 ,3.78592 ,37.14744 
83 ,15.0358 ,0.99445 ,3.77565 ,37.04671 
84 ,15.2124 ,0.99621 ,3.77223 ,37.01313 
85 ,15.4043 ,0.99812 ,3.74143 ,36.71093 
86 ,15.5801 ,0.99985 ,3.72432 ,36.54303 
87 ,15.7725 ,1.00169 ,3.71405 ,36.44230 
88 ,15.9487 ,1.00351 ,3.68325 ,36.14010 
89 ,16.1566 ,1.00548 ,3.67641 ,36.07294 
90 ,16.3326 ,1.00736 ,3.66614 ,35.97220 
91 ,16.5087 ,1.00915 ,3.64219 ,35.73716 
92 ,16.6849 ,1.01090 ,3.61139 ,35.43495 
93 ,16.8769 ,1.01272 ,3.60797 ,35.40137 
94 ,17.0691 ,1.01474 ,3.58743 ,35.19990 
95 ,17.2451 ,1.01651 ,3.57375 ,35.06559 
96 ,17.4370 ,1.01844 ,3.56690 ,34.99843 
97 ,17.6133 ,1.02014 ,3.53610 ,34.69623 
98 ,17.7893 ,1.02194 ,3.51557 ,34.49476 
99 ,17.9655 ,1.02370 ,3.50530 ,34.39402 
100 ,18.1414 ,1.02543 ,3.49504 ,34.29329 
101 ,18.3336 ,1.02731 ,3.48477 ,34.19255 
102 ,18.5258 ,1.02919 ,3.46081 ,33.95751 
103 ,18.7017 ,1.03109 ,3.43686 ,33.72246 
104 ,18.8939 ,1.03300 ,3.43344 ,33.68888 
105 ,19.0861 ,1.03488 ,3.39921 ,33.35310 
106 ,19.2616 ,1.03667 ,3.38895 ,33.25236 
107 ,19.4381 ,1.03841 ,3.39237 ,33.28594 
108 ,19.6139 ,1.04023 ,3.37184 ,33.08447 
109 ,19.8222 ,1.04211 ,3.35473 ,32.91658 
110 ,19.9981 ,1.04402 ,3.33419 ,32.71511 
111 ,20.1902 ,1.04594 ,3.31366 ,32.51364 
112 ,20.3663 ,1.04766 ,3.29313 ,32.31217 
113 ,20.5426 ,1.04943 ,3.29313 ,32.31217 
114 ,20.7345 ,1.05129 ,3.25891 ,31.97639 
115 ,20.9267 ,1.05332 ,3.24522 ,31.84207 
116 ,21.1027 ,1.05512 ,3.24180 ,31.80849 
117 ,21.2949 ,1.05703 ,3.21100 ,31.50629 
118 ,21.5028 ,1.05899 ,3.18020 ,31.20409 
119 ,21.6788 ,1.06082 ,3.19731 ,31.37198 
120 ,21.8711 ,1.06276 ,3.16651 ,31.06977 
121 ,22.0629 ,1.06458 ,3.16309 ,31.03619 
122 ,22.2712 ,1.06662 ,3.13229 ,30.73399 
123 ,22.4469 ,1.06858 ,3.13571 ,30.76757 
124 ,22.6073 ,1.07021 ,3.12544 ,30.66683 
125 ,22.7834 ,1.07186 ,3.10491 ,30.46536 
126 ,22.9595 ,1.07361 ,3.07753 ,30.19674 
127 ,23.1515 ,1.07550 ,3.04673 ,29.89453 
128 ,23.3276 ,1.07729 ,3.04331 ,29.86095 
129 ,23.5037 ,1.07906 ,3.03989 ,29.82737 
130 ,23.6958 ,1.08100 ,3.00909 ,29.52517 
131 ,23.9039 ,1.08295 ,2.98855 ,29.32370 
132 ,24.0800 ,1.08486 ,2.99198 ,29.35728 
133 ,24.2720 ,1.08677 ,2.96118 ,29.05507 
134 ,24.4479 ,1.08850 ,2.93722 ,28.82003 
135 ,24.6240 ,1.09027 ,2.94064 ,28.85360 
136 ,24.8161 ,1.09219 ,2.91327 ,28.58498 
137 ,24.9921 ,1.09395 ,2.90300 ,28.48424 
138 ,25.1843 ,1.09583 ,2.88589 ,28.31635 
139 ,25.3604 ,1.09761 ,2.86878 ,28.14846 
140 ,25.5522 ,1.09952 ,2.83456 ,27.81268 
141 ,25.7286 ,1.10131 ,2.83114 ,27.77910 
142 ,25.9206 ,1.10321 ,2.82087 ,27.67836 
143 ,26.0967 ,1.10497 ,2.79007 ,27.37616 
144 ,26.3048 ,1.10691 ,2.80376 ,27.51047 
145 ,26.4968 ,1.10900 ,2.78322 ,27.30900 
146 ,26.6729 ,1.11073 ,2.75243 ,27.00680 
147 ,26.8650 ,1.11252 ,2.74216 ,26.90606 
148 ,27.0731 ,1.11467 ,2.72505 ,26.73817 
149 ,27.2492 ,1.11652 ,2.71136 ,26.60386 
150 ,27.4253 ,1.11830 ,2.71136 ,26.60386 
151 ,27.6334 ,1.12022 ,2.67029 ,26.20092 
152 ,27.8095 ,1.12208 ,2.66687 ,26.16734 
153 ,28.0014 ,1.12399 ,2.64634 ,25.96587 
154 ,28.1775 ,1.12580 ,2.61896 ,25.69724 
155 ,28.3534 ,1.12755 ,2.61896 ,25.69724 
156 ,28.5296 ,1.12927 ,2.60527 ,25.56293 
157 ,28.7375 ,1.13133 ,2.57105 ,25.22715 
158 ,28.9139 ,1.13313 ,2.56078 ,25.12641 
159 ,29.1060 ,1.13510 ,2.56078 ,25.12641 
160 ,29.2820 ,1.13685 ,2.54710 ,24.99210 
161 ,29.4740 ,1.13872 ,2.51287 ,24.65632 
162 ,29.6500 ,1.14049 ,2.51630 ,24.68989 
163 ,29.8422 ,1.14245 ,2.49576 ,24.48842 
164 ,30.0182 ,1.14417 ,2.47523 ,24.28696 
165 ,30.2103 ,1.14613 ,2.47181 ,24.25338 
166 ,30.3865 ,1.14783 ,2.45470 ,24.08549 
167 ,30.5785 ,1.14979 ,2.41705 ,23.71612 
168 ,30.7546 ,1.15151 ,2.42048 ,23.74970 
169 ,30.9306 ,1.15342 ,2.39994 ,23.54823 
170 ,31.1068 ,1.15504 ,2.39310 ,23.48108 
171 ,31.3148 ,1.15708 ,2.36572 ,23.21245 
172 ,31.4908 ,1.15893 ,2.37256 ,23.27961 
173 ,31.6669 ,1.16064 ,2.34861 ,23.04456 
174 ,31.8588 ,1.16252 ,2.31781 ,22.74235 
175 ,32.0347 ,1.16441 ,2.31439 ,22.70877 
176 ,32.1950 ,1.16603 ,2.29385 ,22.50731 
177 ,32.3712 ,1.16771 ,2.28017 ,22.37299 
178 ,32.5634 ,1.16950 ,2.27674 ,22.33941 
179 ,32.7393 ,1.17139 ,2.23226 ,21.90290 
180 ,32.9155 ,1.17314 ,2.22883 ,21.86932 
181 ,33.1233 ,1.17514 ,2.20488 ,21.63427 
182 ,33.2997 ,1.17695 ,2.18435 ,21.43280 
183 ,33.4757 ,1.17877 ,2.15697 ,21.16417 
184 ,33.6516 ,1.18052 ,2.17408 ,21.33206 
185 ,33.8437 ,1.18228 ,2.16381 ,21.23133 
186 ,34.0196 ,1.18413 ,2.13644 ,20.96270 
187 ,34.1961 ,1.18597 ,2.11248 ,20.72766 
188 ,34.3880 ,1.18785 ,2.10906 ,20.69408 
189 ,34.5641 ,1.18963 ,2.08852 ,20.49261 
190 ,34.7399 ,1.19141 ,2.07826 ,20.39187 
191 ,34.9162 ,1.19316 ,2.06115 ,20.22398 
192 ,35.0919 ,1.19489 ,2.05773 ,20.19040 
193 ,35.2684 ,1.19668 ,2.04404 ,20.05609 
194 ,35.4443 ,1.19837 ,2.01324 ,19.75388 
195 ,35.6206 ,1.20021 ,2.00297 ,19.65315 
196 ,35.7965 ,1.20193 ,1.99613 ,19.58599 
197 ,35.9889 ,1.20385 ,1.98586 ,19.48526 
198 ,36.1485 ,1.20556 ,1.94822 ,19.11590 
199 ,36.3249 ,1.20725 ,1.94822 ,19.11590 
200 ,36.5170 ,1.20917 ,1.93111 ,18.94801 
201 ,36.6931 ,1.21094 ,1.92426 ,18.88085 
202 ,36.8692 ,1.21269 ,1.90373 ,18.67938 
203 ,37.0451 ,1.21441 ,1.87293 ,18.37717 
204 ,37.2213 ,1.21614 ,1.86951 ,18.34360 
205 ,37.3973 ,1.21793 ,1.85582 ,18.20928 
206 ,37.5734 ,1.21967 ,1.85582 ,18.20928 
207 ,37.7333 ,1.22142 ,1.84213 ,18.07497 
208 ,37.9096 ,1.22302 ,1.82502 ,17.90708 
209 ,38.0858 ,1.22483 ,1.81133 ,17.77276 
210 ,38.2937 ,1.22685 ,1.80106 ,17.67203 
211 ,38.4697 ,1.22863 ,1.77711 ,17.43698 
212 ,38.6462 ,1.23043 ,1.74973 ,17.16836 
213 ,38.8220 ,1.23216 ,1.72920 ,16.96689 
214 ,38.9980 ,1.23405 ,1.73604 ,17.03404 
215 ,39.1742 ,1.23572 ,1.72920 ,16.96689 
216 ,39.3661 ,1.23757 ,1.70182 ,16.69826 
217 ,39.5422 ,1.23932 ,1.68471 ,16.53037 
218 ,39.7181 ,1.24115 ,1.67444 ,16.42963 
219 ,39.8945 ,1.24292 ,1.66418 ,16.32890 
220 ,40.0703 ,1.24467 ,1.66418 ,16.32890 
221 ,40.2465 ,1.24646 ,1.63680 ,16.06027 
222 ,40.4225 ,1.24818 ,1.61284 ,15.82522 
223 ,40.6148 ,1.25009 ,1.61969 ,15.89238 
224 ,40.8066 ,1.25195 ,1.59231 ,15.62375 
225 ,40.9988 ,1.25392 ,1.58204 ,15.52302 
226 ,41.1749 ,1.25566 ,1.55809 ,15.28797 
227 ,41.3511 ,1.25748 ,1.54782 ,15.18724 
228 ,41.5431 ,1.25933 ,1.53071 ,15.01934 
229 ,41.7192 ,1.26118 ,1.52045 ,14.91861 
230 ,41.9113 ,1.26307 ,1.50676 ,14.78430 
231 ,42.0709 ,1.26479 ,1.49307 ,14.64998 
232 ,42.2474 ,1.26640 ,1.46911 ,14.41493 
233 ,42.4231 ,1.26816 ,1.45885 ,14.31420 
234 ,42.5996 ,1.26995 ,1.45542 ,14.28062 
235 ,42.8076 ,1.27199 ,1.42805 ,14.01199 
236 ,43.0316 ,1.27411 ,1.41436 ,13.87768 
237 ,43.2077 ,1.27602 ,1.40067 ,13.74337 
238 ,43.3838 ,1.27780 ,1.39383 ,13.67621 
239 ,43.5595 ,1.27949 ,1.38356 ,13.57548 
240 ,43.7360 ,1.28131 ,1.36987 ,13.44116 
241 ,43.9280 ,1.28322 ,1.34249 ,13.17254 
242 ,44.1042 ,1.28501 ,1.32196 ,12.97107 
243 ,44.2802 ,1.28677 ,1.33223 ,13.07180 
244 ,44.4723 ,1.28864 ,1.31512 ,12.90391 
245 ,44.6482 ,1.29043 ,1.28089 ,12.56813 
246 ,44.8244 ,1.29217 ,1.28089 ,12.56813 
247 ,45.0165 ,1.29411 ,1.27747 ,12.53455 
248 ,45.1926 ,1.29585 ,1.25352 ,12.29950 
249 ,45.3684 ,1.29765 ,1.22614 ,12.03088 
250 ,45.5447 ,1.29938 ,1.22956 ,12.06445 
251 ,45.7367 ,1.30123 ,1.23298 ,12.09803 
252 ,45.8968 ,1.30300 ,1.20218 ,11.79583 
253 ,46.0728 ,1.30467 ,1.18165 ,11.59436 
254 ,46.2488 ,1.30641 ,1.16454 ,11.42647 
255 ,46.4251 ,1.30819 ,1.15770 ,11.35931 
256 ,46.6010 ,1.30998 ,1.15427 ,11.32573 
257 ,46.7772 ,1.31176 ,1.14058 ,11.19142 
258 ,46.9532 ,1.31345 ,1.11663 ,10.95637 
259 ,47.1294 ,1.31518 ,1.10294 ,10.82206 
260 ,47.3214 ,1.31706 ,1.09610 ,10.75490 
261 ,47.4973 ,1.31890 ,1.08925 ,10.68774 
262 ,47.6897 ,1.32081 ,1.06187 ,10.41912 
263 ,47.8816 ,1.32269 ,1.05845 ,10.38554 
264 ,48.0577 ,1.32454 ,1.05161 ,10.31838 
265 ,48.2498 ,1.32639 ,1.02765 ,10.08333 
266 ,48.4260 ,1.32817 ,1.02081 ,10.01618 
267 ,48.6019 ,1.32998 ,1.01054 ,9.91544 
268 ,48.7616 ,1.33165 ,0.99685 ,9.78113 
269 ,48.9379 ,1.33330 ,0.98659 ,9.68039 
270 ,49.1463 ,1.33537 ,0.96948 ,9.51250 
271 ,49.3382 ,1.33732 ,0.96948 ,9.51250 
272 ,49.5304 ,1.33926 ,0.93868 ,9.21030 
273 ,49.7223 ,1.34116 ,0.94210 ,9.24388 
274 ,49.8985 ,1.34292 ,0.93525 ,9.17672 
275 ,50.0746 ,1.34465 ,0.91130 ,8.94167 
276 ,50.2507 ,1.34639 ,0.88050 ,8.63947 
277 ,50.4428 ,1.34836 ,0.90103 ,8.84094 
278 ,50.6189 ,1.35009 ,0.87023 ,8.53873 
279 ,50.7950 ,1.35185 ,0.86339 ,8.47158 
280 ,50.9709 ,1.35375 ,0.83601 ,8.20295 
281 ,51.1469 ,1.35538 ,0.83259 ,8.16937 
282 ,51.3232 ,1.35713 ,0.82232 ,8.06864 
283 ,51.5153 ,1.35908 ,0.78810 ,7.73285 
284 ,51.6914 ,1.36088 ,0.78810 ,7.73285 
285 ,51.8674 ,1.36260 ,0.77784 ,7.63212 
286 ,52.0270 ,1.36430 ,0.77784 ,7.63212 
287 ,52.2194 ,1.36607 ,0.75388 ,7.39707 
288 ,52.3954 ,1.36790 ,0.73335 ,7.19560 
289 ,52.6035 ,1.36980 ,0.74019 ,7.26276 
290 ,52.7798 ,1.37169 ,0.73335 ,7.19560 
291 ,52.9718 ,1.37356 ,0.71624 ,7.02771 
292 ,53.1639 ,1.37548 ,0.70255 ,6.89340 
293 ,53.3557 ,1.37746 ,0.67517 ,6.62477 
294 ,53.5319 ,1.37923 ,0.65121 ,6.38972 
295 ,53.7081 ,1.38098 ,0.64437 ,6.32256 
296 ,53.9001 ,1.38289 ,0.64095 ,6.28899 
297 ,54.0920 ,1.38472 ,0.63410 ,6.22183 
298 ,54.2683 ,1.38660 ,0.62042 ,6.08752 
299 ,54.4445 ,1.38832 ,0.61015 ,5.98678 
300 ,54.6365 ,1.39032 ,0.58962 ,5.78531 
301 ,54.8286 ,1.39213 ,0.57935 ,5.68458 
302 ,55.0206 ,1.39409 ,0.57935 ,5.68458 
303 ,55.1966 ,1.39583 ,0.54171 ,5.31522 
304 ,55.3727 ,1.39761 ,0.53486 ,5.24806 
305 ,55.5489 ,1.39936 ,0.53144 ,5.21448 
306 ,55.7248 ,1.40112 ,0.53144 ,5.21448 
307 ,55.9007 ,1.40290 ,0.50748 ,4.97943 
308 ,56.0772 ,1.40469 ,0.49380 ,4.84512 
309 ,56.2530 ,1.40642 ,0.46984 ,4.61007 
310 ,56.4288 ,1.40816 ,0.45957 ,4.50934 
311 ,56.6049 ,1.40994 ,0.45615 ,4.47576 
312 ,56.7810 ,1.41173 ,0.45615 ,4.47576 
313 ,56.9570 ,1.41345 ,0.43904 ,4.30787 
314 ,57.1331 ,1.41520 ,0.41851 ,4.10640 
315 ,57.3092 ,1.41702 ,0.42535 ,4.17355 
316 ,57.4859 ,1.41874 ,0.41851 ,4.10640 
317 ,57.6776 ,1.42058 ,0.38429 ,3.77061 
318 ,57.8537 ,1.42256 ,0.37744 ,3.70346 
319 ,58.0299 ,1.42422 ,0.36718 ,3.60272 
320 ,58.2379 ,1.42622 ,0.35006 ,3.43483 
321 ,58.4140 ,1.42803 ,0.32953 ,3.23336 
322 ,58.6061 ,1.42992 ,0.32611 ,3.19978 
323 ,58.7976 ,1.43179 ,0.31584 ,3.09905 
324 ,58.9741 ,1.43362 ,0.29189 ,2.86400 
325 ,59.1663 ,1.43555 ,0.29873 ,2.93116 
326 ,59.3581 ,1.43741 ,0.27820 ,2.72969 
327 ,59.5505 ,1.43937 ,0.26451 ,2.59537 
328 ,59.7265 ,1.44116 ,0.26451 ,2.59537 
329 ,59.9347 ,1.44320 ,0.24055 ,2.36032 
330 ,60.1103 ,1.44499 ,0.23371 ,2.29317 
331 ,60.2869 ,1.44673 ,0.22344 ,2.19243 
332 ,60.4627 ,1.44861 ,0.18580 ,1.82307 
333 ,60.6389 ,1.45024 ,0.17896 ,1.75592 
334 ,60.8147 ,1.45203 ,0.16527 ,1.62160 
335 ,60.9913 ,1.45377 ,0.18238 ,1.78949 
336 ,61.1831 ,1.45572 ,0.16185 ,1.58802 
337 ,61.3592 ,1.45748 ,0.14473 ,1.42013 
338 ,61.5512 ,1.45938 ,0.14473 ,1.42013 
339 ,61.7432 ,1.46126 ,0.10709 ,1.05077 
340 ,61.9195 ,1.46307 ,0.10367 ,1.01719 
341 ,62.1115 ,1.46499 ,0.09682 ,0.95004 
342 ,62.2878 ,1.46672 ,0.09340 ,0.91646 
343 ,62.4638 ,1.46852 ,0.07629 ,0.74857 
344 ,62.6398 ,1.47032 ,0.05576 ,0.54710 
345 ,62.8153 ,1.47203 ,0.04549 ,0.44636 
346 ,63.0080 ,1.47385 ,0.05234 ,0.51352 
347 ,63.1999 ,1.47591 ,0.02496 ,0.24489 
348 ,63.3759 ,1.47761 ,0.01811 ,0.17773 
349 ,63.5518 ,1.47949 ,0.01127 ,0.11058 
350 ,63.7281 ,1.48120 ,0.00785 ,0.07700 
351 ,63.9202 ,1.48311 ,-0.01611 ,-0.15805 
352 ,64.0962 ,1.48481 ,-0.02980 ,-0.29236 
353 ,64.2886 ,1.48668 ,-0.02980 ,-0.29236 
354 ,64.4808 ,1.48870 ,-0.06402 ,-0.62814 
355 ,64.6726 ,1.49060 ,-0.05033 ,-0.49383 
356 ,64.8324 ,1.49230 ,-0.05375 ,-0.52741 
357 ,65.0088 ,1.49394 ,-0.07428 ,-0.72888 
358 ,65.1851 ,1.49574 ,-0.08797 ,-0.86319 
359 ,65.3769 ,1.49767 ,-0.11193 ,-1.09824 
360 ,65.5531 ,1.49934 ,-0.10508 ,-1.03108 
361 ,65.7290 ,1.50127 ,-0.13588 ,-1.33329 
362 ,65.9050 ,1.50293 ,-0.14273 ,-1.40045 
363 ,66.0812 ,1.50465 ,-0.17353 ,-1.70265 
364 ,66.2573 ,1.50641 ,-0.15299 ,-1.50118 
365 ,66.4334 ,1.50819 ,-0.17011 ,-1.66907 
366 ,66.6095 ,1.50997 ,-0.16668 ,-1.63549 
367 ,66.7855 ,1.51173 ,-0.18722 ,-1.83696 
368 ,66.9937 ,1.51367 ,-0.19748 ,-1.93770 
369 ,67.1858 ,1.51576 ,-0.21802 ,-2.13917 
370 ,67.3616 ,1.51745 ,-0.23170 ,-2.27348 
371 ,67.5378 ,1.51924 ,-0.23513 ,-2.30706 
372 ,67.7139 ,1.52103 ,-0.23513 ,-2.30706 
373 ,67.9055 ,1.52291 ,-0.25224 ,-2.47495 
374 ,68.0655 ,1.52465 ,-0.27961 ,-2.74358 
375 ,68.2416 ,1.52622 ,-0.28304 ,-2.77716 
376 ,68.4178 ,1.52801 ,-0.28646 ,-2.81073 
377 ,68.6261 ,1.53004 ,-0.30015 ,-2.94505 
378 ,68.8182 ,1.53195 ,-0.32068 ,-3.14652 
379 ,69.0265 ,1.53396 ,-0.31041 ,-3.04578 
380 ,69.2185 ,1.53606 ,-0.34464 ,-3.38156 
381 ,69.4105 ,1.53794 ,-0.34464 ,-3.38156 
382 ,69.5867 ,1.53969 ,-0.35832 ,-3.51588 
383 ,69.7626 ,1.54151 ,-0.37201 ,-3.65019 
384 ,69.9228 ,1.54320 ,-0.38570 ,-3.78450 
385 ,70.0988 ,1.54483 ,-0.38912 ,-3.81808 
386 ,70.2749 ,1.54655 ,-0.39597 ,-3.88524 
387 ,70.4669 ,1.54843 ,-0.39939 ,-3.91882 
388 ,70.6590 ,1.55049 ,-0.42677 ,-4.18744 
389 ,70.8350 ,1.55220 ,-0.42335 ,-4.15387 
390 ,71.0272 ,1.55406 ,-0.44730 ,-4.38891 
391 ,71.2190 ,1.55593 ,-0.46441 ,-4.55681 
392 ,71.3954 ,1.55778 ,-0.46783 ,-4.59038 
393 ,71.5876 ,1.55963 ,-0.45414 ,-4.45607 
394 ,71.7635 ,1.56144 ,-0.50548 ,-4.95975 
395 ,71.9555 ,1.56330 ,-0.50206 ,-4.92617 
396 ,72.1316 ,1.56520 ,-0.51574 ,-5.06048 
397 ,72.3078 ,1.56692 ,-0.52943 ,-5.19479 
398 ,72.4999 ,1.56883 ,-0.53285 ,-5.22837 
399 ,72.6759 ,1.57057 ,-0.53628 ,-5.26195 
400 ,72.8518 ,1.57232 ,-0.55339 ,-5.42984 
401 ,73.0277 ,1.57412 ,-0.56708 ,-5.56415 
402 ,73.2041 ,1.57589 ,-0.58077 ,-5.69847 
403 ,73.3801 ,1.57766 ,-0.59445 ,-5.83278 
404 ,73.5563 ,1.57935 ,-0.58761 ,-5.76562 
405 ,73.7323 ,1.58116 ,-0.59103 ,-5.79920 
406 ,73.9244 ,1.58307 ,-0.62868 ,-6.16856 
407 ,74.1162 ,1.58502 ,-0.62183 ,-6.10141 
408 ,74.3086 ,1.58683 ,-0.62868 ,-6.16856 
409 ,74.4845 ,1.58868 ,-0.64921 ,-6.37003 
410 ,74.6605 ,1.59041 ,-0.65263 ,-6.40361 
411 ,74.8367 ,1.59218 ,-0.66290 ,-6.50435 
412 ,75.0129 ,1.59397 ,-0.68685 ,-6.73940 
413 ,75.2046 ,1.59585 ,-0.70054 ,-6.87371 
414 ,75.3811 ,1.59760 ,-0.69712 ,-6.84013 
415 ,75.5890 ,1.59958 ,-0.71081 ,-6.97444 
416 ,75.7812 ,1.60155 ,-0.73476 ,-7.20949 
417 ,75.9733 ,1.60356 ,-0.72792 ,-7.14233 
418 ,76.1653 ,1.60550 ,-0.74845 ,-7.34380 
419 ,76.3411 ,1.60717 ,-0.76556 ,-7.51170 
420 ,76.5174 ,1.60897 ,-0.75187 ,-7.37738 
421 ,76.6934 ,1.61072 ,-0.77583 ,-7.61243 
422 ,76.8697 ,1.61251 ,-0.79978 ,-7.84748 
423 ,77.0456 ,1.61429 ,-0.79978 ,-7.84748 
424 ,77.2216 ,1.61602 ,-0.80663 ,-7.91464 
425 ,77.3978 ,1.61779 ,-0.81347 ,-7.98179 
426 ,77.6059 ,1.61984 ,-0.83401 ,-8.18326 
427 ,77.7980 ,1.62176 ,-0.82716 ,-8.11611 
428 ,77.9740 ,1.62357 ,-0.84085 ,-8.25042 
429 ,78.1502 ,1.62529 ,-0.86823 ,-8.51904 
430 ,78.3259 ,1.62710 ,-0.88192 ,-8.65336 
431 ,78.5022 ,1.62888 ,-0.88534 ,-8.68694 
432 ,78.6943 ,1.63077 ,-0.88192 ,-8.65336 
433 ,78.8701 ,1.63251 ,-0.90929 ,-8.92198 
434 ,79.0463 ,1.63427 ,-0.90929 ,-8.92198 
435 ,79.2226 ,1.63609 ,-0.91956 ,-9.02272 
436 ,79.4143 ,1.63794 ,-0.92983 ,-9.12345 
437 ,79.5907 ,1.63969 ,-0.94351 ,-9.25777 
438 ,79.7827 ,1.64166 ,-0.94694 ,-9.29135 
439 ,79.9588 ,1.64334 ,-0.94351 ,-9.25777 
440 ,80.1188 ,1.64509 ,-0.97089 ,-9.52639 
441 ,80.3108 ,1.64688 ,-0.98458 ,-9.66071 
442 ,80.4866 ,1.64866 ,-0.99485 ,-9.76144 
443 ,80.6631 ,1.65036 ,-0.98458 ,-9.66071 
444 ,80.8393 ,1.65217 ,-0.99485 ,-9.76144 
445 ,81.0153 ,1.65396 ,-1.00854 ,-9.89576 
446 ,81.2074 ,1.65586 ,-1.03249 ,-10.13080 
447 ,81.3992 ,1.65772 ,-1.03591 ,-10.16438 
448 ,81.5754 ,1.65951 ,-1.04618 ,-10.26512 
449 ,81.7513 ,1.66128 ,-1.05645 ,-10.36585 
450 ,81.9276 ,1.66309 ,-1.06329 ,-10.43301 
451 ,82.1193 ,1.66502 ,-1.05645 ,-10.36585 
452 ,82.2958 ,1.66674 ,-1.08040 ,-10.60090 
453 ,82.4719 ,1.66855 ,-1.09067 ,-10.70163 
454 ,82.6799 ,1.67050 ,-1.09409 ,-10.73521 
455 ,82.8720 ,1.67249 ,-1.11120 ,-10.90310 
456 ,83.0480 ,1.67427 ,-1.12489 ,-11.03742 
457 ,83.2241 ,1.67604 ,-1.11805 ,-10.97026 
458 ,83.4002 ,1.67776 ,-1.12147 ,-11.00384 
459 ,83.5924 ,1.67959 ,-1.12831 ,-11.07100 
460 ,83.7843 ,1.68161 ,-1.15227 ,-11.30604 
461 ,83.9444 ,1.68335 ,-1.13173 ,-11.10457 
462 ,84.1044 ,1.68493 ,-1.14200 ,-11.20531 
