Data stamp = , 30-03-2022 10:14:40 430

Calibration Values: 
Slope = , 26.54 , g/V 
Offset Voltage at no contact = , -0.501760 , V 

No , Time , Stage Position ,   Mass , Force 
   ,  (s) ,      (mm)      ,   (g)  , (mN)  

1 ,0.0000 ,0.84941 ,5.03159 ,49.36995 
2 ,0.2175 ,0.84945 ,5.03159 ,49.36995 
3 ,0.5375 ,0.85031 ,5.03501 ,49.40352 
4 ,0.7297 ,0.85181 ,5.01448 ,49.20205 
5 ,0.9054 ,0.85325 ,5.01790 ,49.23563 
6 ,1.0819 ,0.85494 ,5.03501 ,49.40352 
7 ,1.2739 ,0.85685 ,5.03159 ,49.36995 
8 ,1.4501 ,0.85868 ,5.02474 ,49.30279 
9 ,1.6261 ,0.86040 ,4.99737 ,49.03416 
10 ,1.8023 ,0.86225 ,4.99737 ,49.03416 
11 ,1.9943 ,0.86411 ,4.96999 ,48.76554 
12 ,2.1864 ,0.86601 ,4.96657 ,48.73196 
13 ,2.3626 ,0.86784 ,4.94946 ,48.56407 
14 ,2.5386 ,0.86953 ,4.94946 ,48.56407 
15 ,2.7306 ,0.87139 ,4.93235 ,48.39618 
16 ,2.9064 ,0.87325 ,4.89470 ,48.02681 
17 ,3.0827 ,0.87501 ,4.88101 ,47.89250 
18 ,3.2749 ,0.87692 ,4.88101 ,47.89250 
19 ,3.4669 ,0.87888 ,4.84679 ,47.55672 
20 ,3.6431 ,0.88054 ,4.85021 ,47.59030 
21 ,3.8349 ,0.88252 ,4.82284 ,47.32167 
22 ,4.0268 ,0.88439 ,4.79546 ,47.05304 
23 ,4.2032 ,0.88622 ,4.77835 ,46.88515 
24 ,4.3791 ,0.88800 ,4.77493 ,46.85157 
25 ,4.5712 ,0.88988 ,4.74755 ,46.58295 
26 ,4.7791 ,0.89185 ,4.73386 ,46.44863 
27 ,4.9554 ,0.89369 ,4.72017 ,46.31432 
28 ,5.1474 ,0.89562 ,4.68937 ,46.01212 
29 ,5.3396 ,0.89759 ,4.68253 ,45.94496 
30 ,5.5315 ,0.89934 ,4.67911 ,45.91138 
31 ,5.7236 ,0.90131 ,4.63804 ,45.50844 
32 ,5.8998 ,0.90315 ,4.63804 ,45.50844 
33 ,6.0915 ,0.90504 ,4.62435 ,45.37413 
34 ,6.2679 ,0.90683 ,4.58671 ,45.00477 
35 ,6.4604 ,0.90874 ,4.56960 ,44.83688 
36 ,6.6361 ,0.91056 ,4.56275 ,44.76972 
37 ,6.8121 ,0.91230 ,4.54564 ,44.60183 
38 ,7.0042 ,0.91421 ,4.50457 ,44.19889 
39 ,7.1800 ,0.91593 ,4.50115 ,44.16531 
40 ,7.3564 ,0.91771 ,4.49089 ,44.06457 
41 ,7.5324 ,0.91946 ,4.47720 ,43.93026 
42 ,7.7085 ,0.92122 ,4.44298 ,43.59448 
43 ,7.8847 ,0.92298 ,4.41902 ,43.35943 
44 ,8.0768 ,0.92479 ,4.41560 ,43.32585 
45 ,8.2686 ,0.92680 ,4.39164 ,43.09080 
46 ,8.4449 ,0.92855 ,4.37111 ,42.88933 
47 ,8.6368 ,0.93042 ,4.35742 ,42.75502 
48 ,8.8129 ,0.93228 ,4.35742 ,42.75502 
49 ,8.9890 ,0.93402 ,4.31293 ,42.31850 
50 ,9.1650 ,0.93581 ,4.30951 ,42.28492 
51 ,9.3413 ,0.93756 ,4.29582 ,42.15061 
52 ,9.5334 ,0.93944 ,4.28556 ,42.04988 
53 ,9.7094 ,0.94125 ,4.27871 ,41.98272 
54 ,9.8854 ,0.94308 ,4.24107 ,41.61336 
55 ,10.0617 ,0.94479 ,4.22738 ,41.47905 
56 ,10.2537 ,0.94670 ,4.23422 ,41.54620 
57 ,10.4296 ,0.94845 ,4.20685 ,41.27758 
58 ,10.6055 ,0.95020 ,4.18631 ,41.07611 
59 ,10.7978 ,0.95209 ,4.14867 ,40.70674 
60 ,10.9740 ,0.95388 ,4.15209 ,40.74032 
61 ,11.1660 ,0.95579 ,4.12471 ,40.47170 
62 ,11.3415 ,0.95756 ,4.10760 ,40.30380 
63 ,11.5181 ,0.95931 ,4.10076 ,40.23665 
64 ,11.7101 ,0.96120 ,4.09734 ,40.20307 
65 ,11.8863 ,0.96301 ,4.07680 ,40.00160 
66 ,12.0621 ,0.96476 ,4.04600 ,39.69940 
67 ,12.2384 ,0.96651 ,4.03232 ,39.56508 
68 ,12.4140 ,0.96828 ,4.02205 ,39.46435 
69 ,12.5905 ,0.97006 ,4.01178 ,39.36361 
70 ,12.7826 ,0.97196 ,3.97756 ,39.02783 
71 ,12.9589 ,0.97375 ,3.95703 ,38.82636 
72 ,13.1348 ,0.97551 ,3.94676 ,38.72562 
73 ,13.3108 ,0.97722 ,3.94676 ,38.72562 
74 ,13.4869 ,0.97898 ,3.91938 ,38.45700 
75 ,13.6626 ,0.98070 ,3.90227 ,38.28911 
76 ,13.8391 ,0.98249 ,3.87147 ,37.98690 
77 ,14.0309 ,0.98436 ,3.86121 ,37.88617 
78 ,14.2072 ,0.98621 ,3.86121 ,37.88617 
79 ,14.3832 ,0.98799 ,3.83383 ,37.61754 
80 ,14.5591 ,0.98970 ,3.81672 ,37.44965 
81 ,14.7511 ,0.99165 ,3.81330 ,37.41607 
82 ,14.9274 ,0.99338 ,3.78250 ,37.11387 
83 ,15.1035 ,0.99510 ,3.76881 ,36.97955 
84 ,15.2795 ,0.99692 ,3.75170 ,36.81166 
85 ,15.4559 ,0.99867 ,3.73117 ,36.61019 
86 ,15.6473 ,1.00055 ,3.72774 ,36.57661 
87 ,15.8234 ,1.00230 ,3.71063 ,36.40872 
88 ,15.9999 ,1.00410 ,3.68325 ,36.14010 
89 ,16.1919 ,1.00601 ,3.68325 ,36.14010 
90 ,16.3679 ,1.00780 ,3.66272 ,35.93863 
91 ,16.5442 ,1.00958 ,3.64219 ,35.73716 
92 ,16.7360 ,1.01149 ,3.60797 ,35.40137 
93 ,16.9283 ,1.01335 ,3.61823 ,35.50211 
94 ,17.1042 ,1.01517 ,3.59770 ,35.30064 
95 ,17.2640 ,1.01683 ,3.57032 ,35.03201 
96 ,17.4400 ,1.01851 ,3.56006 ,34.93128 
97 ,17.6160 ,1.02027 ,3.53268 ,34.66265 
98 ,17.8081 ,1.02214 ,3.54295 ,34.76338 
99 ,17.9843 ,1.02398 ,3.51557 ,34.49476 
100 ,18.1767 ,1.02589 ,3.48819 ,34.22613 
101 ,18.3688 ,1.02778 ,3.48477 ,34.19255 
102 ,18.5289 ,1.02950 ,3.47450 ,34.09182 
103 ,18.7048 ,1.03118 ,3.45055 ,33.85677 
104 ,18.9129 ,1.03313 ,3.41290 ,33.48741 
105 ,19.1051 ,1.03517 ,3.41633 ,33.52099 
106 ,19.2812 ,1.03695 ,3.39579 ,33.31952 
107 ,19.4569 ,1.03868 ,3.37526 ,33.11805 
108 ,19.6329 ,1.04040 ,3.35815 ,32.95016 
109 ,19.8089 ,1.04215 ,3.34788 ,32.84942 
110 ,19.9854 ,1.04397 ,3.34446 ,32.81584 
111 ,20.1775 ,1.04588 ,3.31708 ,32.54722 
112 ,20.3697 ,1.04781 ,3.29313 ,32.31217 
113 ,20.5456 ,1.04956 ,3.28971 ,32.27859 
114 ,20.7218 ,1.05129 ,3.27259 ,32.11070 
115 ,20.8976 ,1.05308 ,3.25206 ,31.90923 
116 ,21.0737 ,1.05483 ,3.23153 ,31.70776 
117 ,21.2659 ,1.05676 ,3.22811 ,31.67418 
118 ,21.4420 ,1.05849 ,3.20757 ,31.47271 
119 ,21.6182 ,1.06027 ,3.19731 ,31.37198 
120 ,21.8101 ,1.06209 ,3.17335 ,31.13693 
121 ,21.9862 ,1.06394 ,3.17677 ,31.17051 
122 ,22.1460 ,1.06566 ,3.14940 ,30.90188 
123 ,22.3224 ,1.06734 ,3.13571 ,30.76757 
124 ,22.5144 ,1.06926 ,3.11518 ,30.56610 
125 ,22.6905 ,1.07097 ,3.08095 ,30.23031 
126 ,22.8666 ,1.07276 ,3.08438 ,30.26389 
127 ,23.0426 ,1.07448 ,3.08438 ,30.26389 
128 ,23.2348 ,1.07648 ,3.06726 ,30.09600 
129 ,23.4110 ,1.07820 ,3.03304 ,29.76022 
130 ,23.5870 ,1.07999 ,3.01935 ,29.62590 
131 ,23.7790 ,1.08187 ,3.00909 ,29.52517 
132 ,23.9553 ,1.08366 ,2.98513 ,29.29012 
133 ,24.1472 ,1.08557 ,2.96460 ,29.08865 
134 ,24.3394 ,1.08748 ,2.96460 ,29.08865 
135 ,24.5153 ,1.08925 ,2.94064 ,28.85360 
136 ,24.7074 ,1.09102 ,2.92353 ,28.68571 
137 ,24.8834 ,1.09290 ,2.91327 ,28.58498 
138 ,25.0592 ,1.09464 ,2.90642 ,28.51782 
139 ,25.2355 ,1.09645 ,2.87562 ,28.21562 
140 ,25.4276 ,1.09836 ,2.86193 ,28.08130 
141 ,25.6036 ,1.10010 ,2.85167 ,27.98057 
142 ,25.7799 ,1.10191 ,2.84140 ,27.87983 
143 ,25.9718 ,1.10375 ,2.81745 ,27.64479 
144 ,26.1478 ,1.10553 ,2.79349 ,27.40974 
145 ,26.3240 ,1.10733 ,2.80034 ,27.47689 
146 ,26.5160 ,1.10917 ,2.77296 ,27.20827 
147 ,26.6923 ,1.11102 ,2.74558 ,26.93964 
148 ,26.8684 ,1.11277 ,2.73874 ,26.87248 
149 ,27.0605 ,1.11470 ,2.73189 ,26.80533 
150 ,27.2360 ,1.11643 ,2.71820 ,26.67101 
151 ,27.4286 ,1.11825 ,2.69425 ,26.43597 
152 ,27.6046 ,1.12013 ,2.68056 ,26.30165 
153 ,27.7806 ,1.12187 ,2.68056 ,26.30165 
154 ,27.9570 ,1.12366 ,2.66345 ,26.13376 
155 ,28.1488 ,1.12557 ,2.63265 ,25.83156 
156 ,28.3246 ,1.12729 ,2.61554 ,25.66367 
157 ,28.5489 ,1.12939 ,2.58816 ,25.39504 
158 ,28.7251 ,1.13133 ,2.57789 ,25.29430 
159 ,28.9332 ,1.13331 ,2.58474 ,25.36146 
160 ,29.1093 ,1.13514 ,2.55394 ,25.05926 
161 ,29.2849 ,1.13698 ,2.53683 ,24.89136 
162 ,29.4615 ,1.13870 ,2.53683 ,24.89136 
163 ,29.6373 ,1.14045 ,2.52656 ,24.79063 
164 ,29.8295 ,1.14230 ,2.49234 ,24.45485 
165 ,30.0056 ,1.14412 ,2.47865 ,24.32053 
166 ,30.2135 ,1.14612 ,2.46839 ,24.21980 
167 ,30.3897 ,1.14793 ,2.46154 ,24.15264 
168 ,30.5660 ,1.14976 ,2.43074 ,23.85044 
169 ,30.7578 ,1.15160 ,2.43759 ,23.91759 
170 ,30.9499 ,1.15357 ,2.40679 ,23.61539 
171 ,31.1261 ,1.15532 ,2.38283 ,23.38034 
172 ,31.3338 ,1.15728 ,2.38625 ,23.41392 
173 ,31.5100 ,1.15917 ,2.36572 ,23.21245 
174 ,31.7184 ,1.16113 ,2.36230 ,23.17887 
175 ,31.8943 ,1.16300 ,2.34177 ,22.97740 
176 ,32.0704 ,1.16473 ,2.32123 ,22.77593 
177 ,32.2465 ,1.16653 ,2.29043 ,22.47373 
178 ,32.4385 ,1.16844 ,2.28701 ,22.44015 
179 ,32.6145 ,1.17014 ,2.27674 ,22.33941 
180 ,32.7907 ,1.17195 ,2.26648 ,22.23868 
181 ,32.9828 ,1.17384 ,2.23910 ,21.97005 
182 ,33.1584 ,1.17561 ,2.23568 ,21.93647 
183 ,33.3345 ,1.17740 ,2.22199 ,21.80216 
184 ,33.5106 ,1.17916 ,2.21172 ,21.70143 
185 ,33.6870 ,1.18090 ,2.17750 ,21.36564 
186 ,33.8952 ,1.18298 ,2.18435 ,21.43280 
187 ,34.0872 ,1.18489 ,2.15355 ,21.13059 
188 ,34.2634 ,1.18668 ,2.12959 ,20.89555 
189 ,34.4556 ,1.18864 ,2.13301 ,20.92912 
190 ,34.6474 ,1.19044 ,2.10564 ,20.66050 
191 ,34.8235 ,1.19224 ,2.08852 ,20.49261 
192 ,34.9997 ,1.19407 ,2.08168 ,20.42545 
193 ,35.1757 ,1.19585 ,2.06115 ,20.22398 
194 ,35.3515 ,1.19762 ,2.06799 ,20.29114 
195 ,35.5435 ,1.19939 ,2.03719 ,19.98893 
196 ,35.7199 ,1.20124 ,2.01324 ,19.75388 
197 ,35.9119 ,1.20317 ,2.02350 ,19.85462 
198 ,36.0880 ,1.20492 ,1.99955 ,19.61957 
199 ,36.2640 ,1.20668 ,1.97559 ,19.38452 
200 ,36.4403 ,1.20847 ,1.95164 ,19.14948 
201 ,36.6159 ,1.21022 ,1.95164 ,19.14948 
202 ,36.8081 ,1.21202 ,1.95848 ,19.21663 
203 ,36.9844 ,1.21390 ,1.91742 ,18.81369 
204 ,37.1606 ,1.21570 ,1.89346 ,18.57864 
205 ,37.3686 ,1.21764 ,1.91057 ,18.74654 
206 ,37.5607 ,1.21967 ,1.86608 ,18.31002 
207 ,37.7366 ,1.22134 ,1.85924 ,18.24286 
208 ,37.9126 ,1.22317 ,1.85924 ,18.24286 
209 ,38.0890 ,1.22492 ,1.84555 ,18.10855 
210 ,38.2809 ,1.22681 ,1.81475 ,17.80634 
211 ,38.4572 ,1.22859 ,1.81133 ,17.77276 
212 ,38.6490 ,1.23048 ,1.79422 ,17.60487 
213 ,38.8252 ,1.23228 ,1.78395 ,17.50414 
214 ,39.0012 ,1.23400 ,1.76000 ,17.26909 
215 ,39.1773 ,1.23577 ,1.75315 ,17.20193 
216 ,39.3696 ,1.23768 ,1.73946 ,17.06762 
217 ,39.5456 ,1.23951 ,1.73262 ,17.00046 
218 ,39.7377 ,1.24146 ,1.69155 ,16.59752 
219 ,39.9457 ,1.24340 ,1.69155 ,16.59752 
220 ,40.1215 ,1.24523 ,1.66075 ,16.29532 
221 ,40.2978 ,1.24703 ,1.65391 ,16.22816 
222 ,40.4580 ,1.24870 ,1.64707 ,16.16101 
223 ,40.6339 ,1.25035 ,1.64707 ,16.16101 
224 ,40.8258 ,1.25220 ,1.61627 ,15.85880 
225 ,41.0021 ,1.25404 ,1.60600 ,15.75807 
226 ,41.1784 ,1.25584 ,1.58889 ,15.59018 
227 ,41.3540 ,1.25759 ,1.57178 ,15.42228 
228 ,41.5304 ,1.25931 ,1.57520 ,15.45586 
229 ,41.7225 ,1.26124 ,1.54440 ,15.15366 
230 ,41.9141 ,1.26318 ,1.53756 ,15.08650 
231 ,42.0906 ,1.26493 ,1.53071 ,15.01934 
232 ,42.2666 ,1.26666 ,1.52729 ,14.98577 
233 ,42.4428 ,1.26847 ,1.49649 ,14.68356 
234 ,42.6025 ,1.27014 ,1.47596 ,14.48209 
235 ,42.7790 ,1.27182 ,1.44858 ,14.21346 
236 ,42.9547 ,1.27360 ,1.44516 ,14.17989 
237 ,43.1311 ,1.27535 ,1.45200 ,14.24704 
238 ,43.3231 ,1.27726 ,1.44174 ,14.14631 
239 ,43.5153 ,1.27918 ,1.40751 ,13.81053 
240 ,43.6913 ,1.28094 ,1.40751 ,13.81053 
241 ,43.8833 ,1.28284 ,1.36987 ,13.44116 
242 ,44.0434 ,1.28454 ,1.35618 ,13.30685 
243 ,44.2194 ,1.28618 ,1.35276 ,13.27327 
244 ,44.3956 ,1.28794 ,1.33907 ,13.13896 
245 ,44.5876 ,1.28985 ,1.33223 ,13.07180 
246 ,44.7638 ,1.29169 ,1.32196 ,12.97107 
247 ,44.9555 ,1.29349 ,1.29116 ,12.66886 
248 ,45.1478 ,1.29545 ,1.27747 ,12.53455 
249 ,45.3240 ,1.29730 ,1.28089 ,12.56813 
250 ,45.4999 ,1.29900 ,1.26036 ,12.36666 
251 ,45.6757 ,1.30072 ,1.24325 ,12.19877 
252 ,45.8522 ,1.30249 ,1.24325 ,12.19877 
253 ,46.0282 ,1.30431 ,1.21929 ,11.96372 
254 ,46.2044 ,1.30606 ,1.21245 ,11.89656 
255 ,46.4123 ,1.30810 ,1.19876 ,11.76225 
256 ,46.5883 ,1.30986 ,1.18507 ,11.62794 
257 ,46.7646 ,1.31163 ,1.17138 ,11.49362 
258 ,46.9405 ,1.31342 ,1.15085 ,11.29215 
259 ,47.1163 ,1.31518 ,1.14743 ,11.25857 
260 ,47.2926 ,1.31696 ,1.13032 ,11.09068 
261 ,47.4687 ,1.31867 ,1.12005 ,10.98995 
262 ,47.6448 ,1.32041 ,1.10294 ,10.82206 
263 ,47.8210 ,1.32219 ,1.07556 ,10.55343 
264 ,47.9969 ,1.32399 ,1.06872 ,10.48627 
265 ,48.1888 ,1.32588 ,1.06530 ,10.45270 
266 ,48.3807 ,1.32772 ,1.03792 ,10.18407 
267 ,48.5574 ,1.32958 ,1.02423 ,10.04976 
268 ,48.7332 ,1.33130 ,1.02081 ,10.01618 
269 ,48.9092 ,1.33307 ,1.01739 ,9.98260 
270 ,49.0694 ,1.33477 ,0.99001 ,9.71397 
271 ,49.2612 ,1.33651 ,0.99685 ,9.78113 
272 ,49.4376 ,1.33837 ,0.96263 ,9.44535 
273 ,49.6295 ,1.34024 ,0.96263 ,9.44535 
274 ,49.8218 ,1.34218 ,0.94210 ,9.24388 
275 ,49.9978 ,1.34398 ,0.92499 ,9.07598 
276 ,50.1738 ,1.34573 ,0.91814 ,9.00883 
277 ,50.3660 ,1.34764 ,0.91814 ,9.00883 
278 ,50.5420 ,1.34939 ,0.89761 ,8.80736 
279 ,50.7179 ,1.35118 ,0.88392 ,8.67305 
280 ,50.9101 ,1.35309 ,0.86681 ,8.50515 
281 ,51.0862 ,1.35486 ,0.85997 ,8.43800 
282 ,51.2783 ,1.35671 ,0.83259 ,8.16937 
283 ,51.4543 ,1.35854 ,0.81206 ,7.96790 
284 ,51.6305 ,1.36034 ,0.80863 ,7.93432 
285 ,51.8065 ,1.36204 ,0.80179 ,7.86717 
286 ,51.9826 ,1.36382 ,0.79495 ,7.80001 
287 ,52.1588 ,1.36561 ,0.77441 ,7.59854 
288 ,52.3506 ,1.36751 ,0.76415 ,7.49780 
289 ,52.5429 ,1.36927 ,0.75388 ,7.39707 
290 ,52.7349 ,1.37131 ,0.72308 ,7.09486 
291 ,52.9110 ,1.37312 ,0.70939 ,6.96055 
292 ,53.0868 ,1.37484 ,0.71281 ,6.99413 
293 ,53.2789 ,1.37678 ,0.69913 ,6.85982 
294 ,53.4550 ,1.37857 ,0.68544 ,6.72550 
295 ,53.6152 ,1.38025 ,0.66490 ,6.52403 
296 ,53.8234 ,1.38207 ,0.66490 ,6.52403 
297 ,54.0155 ,1.38402 ,0.64437 ,6.32256 
298 ,54.1914 ,1.38590 ,0.62042 ,6.08752 
299 ,54.3675 ,1.38764 ,0.62384 ,6.12109 
300 ,54.5435 ,1.38940 ,0.61699 ,6.05394 
301 ,54.7196 ,1.39112 ,0.58962 ,5.78531 
302 ,54.8957 ,1.39299 ,0.57935 ,5.68458 
303 ,55.0718 ,1.39466 ,0.56224 ,5.51668 
304 ,55.2637 ,1.39660 ,0.57593 ,5.65100 
305 ,55.4397 ,1.39834 ,0.54855 ,5.38237 
306 ,55.6160 ,1.40013 ,0.53486 ,5.24806 
307 ,55.7920 ,1.40191 ,0.52117 ,5.11375 
308 ,55.9682 ,1.40361 ,0.51433 ,5.04659 
309 ,56.1443 ,1.40535 ,0.51433 ,5.04659 
310 ,56.3364 ,1.40723 ,0.48353 ,4.74438 
311 ,56.5284 ,1.40914 ,0.46642 ,4.57649 
312 ,56.7044 ,1.41103 ,0.46984 ,4.61007 
313 ,56.8966 ,1.41294 ,0.44588 ,4.37502 
314 ,57.0727 ,1.41469 ,0.43220 ,4.24071 
315 ,57.2485 ,1.41648 ,0.38771 ,3.80419 
316 ,57.4247 ,1.41820 ,0.43220 ,4.24071 
317 ,57.6168 ,1.41999 ,0.38086 ,3.73703 
318 ,57.7929 ,1.42186 ,0.39455 ,3.87135 
319 ,57.9849 ,1.42378 ,0.37744 ,3.70346 
320 ,58.1768 ,1.42566 ,0.33980 ,3.33410 
321 ,58.3532 ,1.42747 ,0.36033 ,3.53557 
322 ,58.5293 ,1.42928 ,0.32611 ,3.19978 
323 ,58.7370 ,1.43123 ,0.33295 ,3.26694 
324 ,58.9134 ,1.43311 ,0.30558 ,2.99831 
325 ,59.0895 ,1.43488 ,0.29189 ,2.86400 
326 ,59.2816 ,1.43679 ,0.30558 ,2.99831 
327 ,59.4577 ,1.43852 ,0.27820 ,2.72969 
328 ,59.6337 ,1.44030 ,0.26109 ,2.56179 
329 ,59.8092 ,1.44199 ,0.24740 ,2.42748 
330 ,59.9857 ,1.44380 ,0.25082 ,2.46106 
331 ,60.1617 ,1.44557 ,0.24398 ,2.39390 
332 ,60.3378 ,1.44729 ,0.23713 ,2.32675 
333 ,60.5140 ,1.44910 ,0.21318 ,2.09170 
334 ,60.6900 ,1.45088 ,0.19949 ,1.95738 
335 ,60.8658 ,1.45270 ,0.19264 ,1.89023 
336 ,61.0423 ,1.45432 ,0.18580 ,1.82307 
337 ,61.2183 ,1.45617 ,0.17211 ,1.68876 
338 ,61.3944 ,1.45788 ,0.14816 ,1.45371 
339 ,61.5544 ,1.45963 ,0.14816 ,1.45371 
340 ,61.7304 ,1.46121 ,0.12078 ,1.18508 
341 ,61.9064 ,1.46301 ,0.12420 ,1.21866 
342 ,62.0828 ,1.46480 ,0.12420 ,1.21866 
343 ,62.2747 ,1.46674 ,0.10709 ,1.05077 
344 ,62.4669 ,1.46858 ,0.08656 ,0.84930 
345 ,62.6429 ,1.47035 ,0.08314 ,0.81572 
346 ,62.8191 ,1.47209 ,0.08656 ,0.84930 
347 ,63.0270 ,1.47403 ,0.05234 ,0.51352 
348 ,63.1871 ,1.47594 ,0.05576 ,0.54710 
349 ,63.3472 ,1.47754 ,0.03865 ,0.37920 
350 ,63.5231 ,1.47920 ,0.02496 ,0.24489 
351 ,63.6991 ,1.48091 ,0.02496 ,0.24489 
352 ,63.8915 ,1.48279 ,0.00100 ,0.00984 
353 ,64.0675 ,1.48461 ,-0.00584 ,-0.05731 
354 ,64.2437 ,1.48634 ,-0.00926 ,-0.09089 
355 ,64.4197 ,1.48815 ,-0.01953 ,-0.19163 
356 ,64.6116 ,1.49002 ,-0.05717 ,-0.56099 
357 ,64.7879 ,1.49182 ,-0.05375 ,-0.52741 
358 ,64.9795 ,1.49367 ,-0.05717 ,-0.56099 
359 ,65.1560 ,1.49548 ,-0.07086 ,-0.69530 
360 ,65.3480 ,1.49736 ,-0.09140 ,-0.89677 
361 ,65.5242 ,1.49920 ,-0.10166 ,-0.99751 
362 ,65.6999 ,1.50090 ,-0.10166 ,-0.99751 
363 ,65.8759 ,1.50267 ,-0.11193 ,-1.09824 
364 ,66.0684 ,1.50447 ,-0.12562 ,-1.23255 
365 ,66.2604 ,1.50650 ,-0.13246 ,-1.29971 
366 ,66.4524 ,1.50848 ,-0.14957 ,-1.46760 
367 ,66.6286 ,1.51020 ,-0.16326 ,-1.60191 
368 ,66.8046 ,1.51195 ,-0.17695 ,-1.73623 
369 ,66.9968 ,1.51389 ,-0.18037 ,-1.76981 
370 ,67.1724 ,1.51565 ,-0.19748 ,-1.93770 
371 ,67.3650 ,1.51745 ,-0.21459 ,-2.10559 
372 ,67.5731 ,1.51953 ,-0.20775 ,-2.03843 
373 ,67.7491 ,1.52141 ,-0.23170 ,-2.27348 
374 ,67.9253 ,1.52320 ,-0.24539 ,-2.40779 
375 ,68.1012 ,1.52497 ,-0.25224 ,-2.47495 
376 ,68.2773 ,1.52664 ,-0.25566 ,-2.50853 
377 ,68.4693 ,1.52855 ,-0.26250 ,-2.57569 
378 ,68.6612 ,1.53046 ,-0.28304 ,-2.77716 
379 ,68.8373 ,1.53228 ,-0.26935 ,-2.64284 
380 ,69.0136 ,1.53406 ,-0.29673 ,-2.91147 
381 ,69.2056 ,1.53597 ,-0.32752 ,-3.21367 
382 ,69.3657 ,1.53766 ,-0.32068 ,-3.14652 
383 ,69.5417 ,1.53931 ,-0.33437 ,-3.28083 
384 ,69.7176 ,1.54110 ,-0.32752 ,-3.21367 
385 ,69.8941 ,1.54285 ,-0.34806 ,-3.41514 
386 ,70.0861 ,1.54481 ,-0.36859 ,-3.61661 
387 ,70.2623 ,1.54657 ,-0.37201 ,-3.65019 
388 ,70.4379 ,1.54829 ,-0.38228 ,-3.75093 
389 ,70.6304 ,1.55017 ,-0.39939 ,-3.91882 
390 ,70.7903 ,1.55190 ,-0.41992 ,-4.12029 
391 ,70.9822 ,1.55368 ,-0.40281 ,-3.95240 
392 ,71.1584 ,1.55549 ,-0.41308 ,-4.05313 
393 ,71.3345 ,1.55724 ,-0.43019 ,-4.22102 
394 ,71.5267 ,1.55910 ,-0.46099 ,-4.52323 
395 ,71.7184 ,1.56109 ,-0.44730 ,-4.38891 
396 ,71.8948 ,1.56281 ,-0.46441 ,-4.55681 
397 ,72.0709 ,1.56464 ,-0.48152 ,-4.72470 
398 ,72.2470 ,1.56638 ,-0.49863 ,-4.89259 
399 ,72.4227 ,1.56810 ,-0.50890 ,-4.99332 
400 ,72.5991 ,1.56992 ,-0.50548 ,-4.95975 
401 ,72.7751 ,1.57164 ,-0.51232 ,-5.02690 
402 ,72.9672 ,1.57353 ,-0.54654 ,-5.36268 
403 ,73.1433 ,1.57531 ,-0.54654 ,-5.36268 
404 ,73.3194 ,1.57706 ,-0.54997 ,-5.39626 
405 ,73.4954 ,1.57881 ,-0.55339 ,-5.42984 
406 ,73.6716 ,1.58063 ,-0.56708 ,-5.56415 
407 ,73.8474 ,1.58240 ,-0.58419 ,-5.73205 
408 ,74.0237 ,1.58413 ,-0.59445 ,-5.83278 
409 ,74.1997 ,1.58591 ,-0.60814 ,-5.96709 
410 ,74.3758 ,1.58766 ,-0.60130 ,-5.89994 
411 ,74.5519 ,1.58942 ,-0.61499 ,-6.03425 
412 ,74.7276 ,1.59116 ,-0.64579 ,-6.33646 
413 ,74.9040 ,1.59290 ,-0.65947 ,-6.47077 
414 ,75.0800 ,1.59462 ,-0.64921 ,-6.37003 
415 ,75.2722 ,1.59652 ,-0.65947 ,-6.47077 
416 ,75.4483 ,1.59839 ,-0.68343 ,-6.70582 
417 ,75.6242 ,1.60015 ,-0.69370 ,-6.80655 
418 ,75.8163 ,1.60200 ,-0.69370 ,-6.80655 
419 ,75.9924 ,1.60382 ,-0.69712 ,-6.84013 
420 ,76.1843 ,1.60577 ,-0.73134 ,-7.17591 
421 ,76.3767 ,1.60754 ,-0.72107 ,-7.07518 
422 ,76.5685 ,1.60946 ,-0.73818 ,-7.24307 
423 ,76.7607 ,1.61147 ,-0.74503 ,-7.31023 
424 ,76.9527 ,1.61332 ,-0.74845 ,-7.34380 
425 ,77.1448 ,1.61523 ,-0.75872 ,-7.44454 
426 ,77.3208 ,1.61709 ,-0.77925 ,-7.64601 
427 ,77.5290 ,1.61902 ,-0.78267 ,-7.67959 
428 ,77.7050 ,1.62092 ,-0.80321 ,-7.88106 
429 ,77.8813 ,1.62271 ,-0.81347 ,-7.98179 
430 ,78.0574 ,1.62449 ,-0.81005 ,-7.94821 
431 ,78.2333 ,1.62631 ,-0.83058 ,-8.14968 
432 ,78.4093 ,1.62800 ,-0.83058 ,-8.14968 
433 ,78.5856 ,1.62972 ,-0.84769 ,-8.31758 
434 ,78.7616 ,1.63162 ,-0.85112 ,-8.35115 
435 ,78.9376 ,1.63321 ,-0.86823 ,-8.51904 
436 ,79.1137 ,1.63501 ,-0.86823 ,-8.51904 
437 ,79.2900 ,1.63676 ,-0.88876 ,-8.72051 
438 ,79.4657 ,1.63858 ,-0.90587 ,-8.88841 
439 ,79.6415 ,1.64030 ,-0.92298 ,-9.05630 
440 ,79.8180 ,1.64200 ,-0.91272 ,-8.95556 
441 ,79.9940 ,1.64380 ,-0.91614 ,-8.98914 
442 ,80.1701 ,1.64557 ,-0.92983 ,-9.12345 
443 ,80.3463 ,1.64737 ,-0.95378 ,-9.35850 
444 ,80.5382 ,1.64922 ,-0.96063 ,-9.42566 
445 ,80.7143 ,1.65103 ,-0.96063 ,-9.42566 
446 ,80.8904 ,1.65274 ,-0.96405 ,-9.45924 
447 ,81.0825 ,1.65462 ,-0.99143 ,-9.72786 
448 ,81.2586 ,1.65642 ,-1.00169 ,-9.82860 
449 ,81.4505 ,1.65833 ,-1.00511 ,-9.86218 
450 ,81.6428 ,1.66021 ,-1.01196 ,-9.92933 
451 ,81.8345 ,1.66223 ,-1.02907 ,-10.09723 
452 ,82.0269 ,1.66403 ,-1.02222 ,-10.03007 
453 ,82.2186 ,1.66607 ,-1.04960 ,-10.29869 
454 ,82.3951 ,1.66778 ,-1.04618 ,-10.26512 
455 ,82.5871 ,1.66973 ,-1.06671 ,-10.46659 
456 ,82.7632 ,1.67145 ,-1.08382 ,-10.63448 
457 ,82.9389 ,1.67323 ,-1.08382 ,-10.63448 
458 ,83.1153 ,1.67499 ,-1.09067 ,-10.70163 
459 ,83.2915 ,1.67677 ,-1.08382 ,-10.63448 
460 ,83.4995 ,1.67874 ,-1.10778 ,-10.86953 
461 ,83.6757 ,1.68062 ,-1.11462 ,-10.93668 
462 ,83.8517 ,1.68237 ,-1.12489 ,-11.03742 
