Data stamp = , 29-03-2022 17:27:09 944

Calibration Values: 
Slope = , 26.54 , g/V 
Offset Voltage at no contact = , -0.501760 , V 

No , Time , Stage Position ,   Mass , Force 
   ,  (s) ,      (mm)      ,   (g)  , (mN)  

1 ,0.0000 ,0.84946 ,5.06239 ,49.67215 
2 ,0.2129 ,0.84954 ,5.06581 ,49.70573 
3 ,0.5010 ,0.85028 ,5.07950 ,49.84004 
4 ,0.6932 ,0.85159 ,5.06239 ,49.67215 
5 ,0.8849 ,0.85309 ,5.06239 ,49.67215 
6 ,1.0613 ,0.85490 ,5.06581 ,49.70573 
7 ,1.2535 ,0.85663 ,5.07950 ,49.84004 
8 ,1.4456 ,0.85853 ,5.07265 ,49.77289 
9 ,1.6375 ,0.86060 ,5.05212 ,49.57142 
10 ,1.8134 ,0.86238 ,5.02132 ,49.26921 
11 ,1.9893 ,0.86408 ,5.01448 ,49.20205 
12 ,2.1656 ,0.86586 ,4.97683 ,48.83269 
13 ,2.3418 ,0.86776 ,4.98026 ,48.86627 
14 ,2.5178 ,0.86939 ,4.97341 ,48.79911 
15 ,2.6936 ,0.87115 ,4.94603 ,48.53049 
16 ,2.8536 ,0.87290 ,4.94603 ,48.53049 
17 ,3.0296 ,0.87452 ,4.93919 ,48.46333 
18 ,3.1897 ,0.87624 ,4.91181 ,48.19471 
19 ,3.3659 ,0.87783 ,4.91181 ,48.19471 
20 ,3.5744 ,0.87988 ,4.89128 ,47.99324 
21 ,3.7663 ,0.88185 ,4.86390 ,47.72461 
22 ,3.9584 ,0.88380 ,4.84679 ,47.55672 
23 ,4.1346 ,0.88565 ,4.83310 ,47.42240 
24 ,4.3105 ,0.88730 ,4.82626 ,47.35525 
25 ,4.5025 ,0.88924 ,4.78861 ,46.98589 
26 ,4.6787 ,0.89102 ,4.77493 ,46.85157 
27 ,4.8550 ,0.89275 ,4.76808 ,46.78442 
28 ,5.0468 ,0.89465 ,4.73728 ,46.48221 
29 ,5.2068 ,0.89635 ,4.72017 ,46.31432 
30 ,5.3829 ,0.89799 ,4.70648 ,46.18001 
31 ,5.5590 ,0.89978 ,4.69279 ,46.04569 
32 ,5.7353 ,0.90156 ,4.67568 ,45.87780 
33 ,5.9272 ,0.90345 ,4.64831 ,45.60918 
34 ,6.1194 ,0.90536 ,4.63119 ,45.44128 
35 ,6.2952 ,0.90721 ,4.61751 ,45.30697 
36 ,6.4876 ,0.90905 ,4.60040 ,45.13908 
37 ,6.6795 ,0.91099 ,4.58328 ,44.97119 
38 ,6.8714 ,0.91288 ,4.57644 ,44.90403 
39 ,7.0478 ,0.91466 ,4.55591 ,44.70256 
40 ,7.2235 ,0.91655 ,4.52853 ,44.43394 
41 ,7.3999 ,0.91819 ,4.50115 ,44.16531 
42 ,7.5919 ,0.92010 ,4.50457 ,44.19889 
43 ,7.7680 ,0.92190 ,4.48062 ,43.96384 
44 ,7.9600 ,0.92378 ,4.45666 ,43.72879 
45 ,8.1521 ,0.92568 ,4.44640 ,43.62806 
46 ,8.3442 ,0.92768 ,4.41218 ,43.29227 
47 ,8.5203 ,0.92938 ,4.40191 ,43.19154 
48 ,8.6962 ,0.93115 ,4.39164 ,43.09080 
49 ,8.8723 ,0.93298 ,4.36769 ,42.85576 
50 ,9.0492 ,0.93470 ,4.37111 ,42.88933 
51 ,9.2406 ,0.93657 ,4.33689 ,42.55355 
52 ,9.4166 ,0.93848 ,4.33004 ,42.48639 
53 ,9.5928 ,0.94012 ,4.31636 ,42.35208 
54 ,9.7848 ,0.94203 ,4.28898 ,42.08345 
55 ,9.9609 ,0.94383 ,4.26502 ,41.84841 
56 ,10.1531 ,0.94572 ,4.25818 ,41.78125 
57 ,10.3291 ,0.94751 ,4.24791 ,41.68051 
58 ,10.5212 ,0.94939 ,4.21711 ,41.37831 
59 ,10.7451 ,0.95152 ,4.20000 ,41.21042 
60 ,10.9373 ,0.95353 ,4.18631 ,41.07611 
61 ,11.1133 ,0.95533 ,4.18289 ,41.04253 
62 ,11.3054 ,0.95724 ,4.14525 ,40.67317 
63 ,11.4814 ,0.95897 ,4.12129 ,40.43812 
64 ,11.6575 ,0.96072 ,4.12471 ,40.47170 
65 ,11.8175 ,0.96247 ,4.10418 ,40.27023 
66 ,11.9937 ,0.96410 ,4.08707 ,40.10233 
67 ,12.1857 ,0.96602 ,4.05627 ,39.80013 
68 ,12.3455 ,0.96776 ,4.04600 ,39.69940 
69 ,12.5054 ,0.96935 ,4.02547 ,39.49793 
70 ,12.6656 ,0.97094 ,4.00836 ,39.33003 
71 ,12.8418 ,0.97260 ,3.98441 ,39.09499 
72 ,13.0181 ,0.97432 ,3.99467 ,39.19572 
73 ,13.1940 ,0.97613 ,3.97072 ,38.96067 
74 ,13.3863 ,0.97802 ,3.93307 ,38.59131 
75 ,13.5780 ,0.97994 ,3.92623 ,38.52415 
76 ,13.7543 ,0.98169 ,3.91254 ,38.38984 
77 ,13.9304 ,0.98347 ,3.91596 ,38.42342 
78 ,14.1225 ,0.98534 ,3.88174 ,38.08764 
79 ,14.3146 ,0.98735 ,3.87490 ,38.02048 
80 ,14.5067 ,0.98913 ,3.84410 ,37.71828 
81 ,14.6827 ,0.99098 ,3.80987 ,37.38249 
82 ,14.8748 ,0.99286 ,3.82014 ,37.48323 
83 ,15.0669 ,0.99483 ,3.79619 ,37.24818 
84 ,15.2589 ,0.99672 ,3.78592 ,37.14744 
85 ,15.4511 ,0.99866 ,3.75512 ,36.84524 
86 ,15.6430 ,1.00057 ,3.74828 ,36.77808 
87 ,15.8351 ,1.00246 ,3.72432 ,36.54303 
88 ,16.0272 ,1.00443 ,3.70037 ,36.30799 
89 ,16.2034 ,1.00619 ,3.68325 ,36.14010 
90 ,16.3793 ,1.00797 ,3.67641 ,36.07294 
91 ,16.5715 ,1.00985 ,3.66614 ,35.97220 
92 ,16.7312 ,1.01163 ,3.63192 ,35.63642 
93 ,16.8916 ,1.01321 ,3.62166 ,35.53569 
94 ,17.0677 ,1.01485 ,3.60112 ,35.33422 
95 ,17.2597 ,1.01676 ,3.59770 ,35.30064 
96 ,17.4359 ,1.01853 ,3.58743 ,35.19990 
97 ,17.6117 ,1.02027 ,3.56690 ,34.99843 
98 ,17.7877 ,1.02202 ,3.53610 ,34.69623 
99 ,17.9642 ,1.02377 ,3.51899 ,34.52834 
100 ,18.1564 ,1.02571 ,3.51215 ,34.46118 
101 ,18.3322 ,1.02747 ,3.50872 ,34.42760 
102 ,18.5083 ,1.02922 ,3.49504 ,34.29329 
103 ,18.6844 ,1.03096 ,3.45055 ,33.85677 
104 ,18.8601 ,1.03290 ,3.45739 ,33.92393 
105 ,19.0366 ,1.03451 ,3.45397 ,33.89035 
106 ,19.2286 ,1.03642 ,3.41975 ,33.55457 
107 ,19.4047 ,1.03822 ,3.39237 ,33.28594 
108 ,19.5969 ,1.04011 ,3.38553 ,33.21878 
109 ,19.7729 ,1.04186 ,3.37868 ,33.15163 
110 ,19.9489 ,1.04378 ,3.35815 ,32.95016 
111 ,20.1251 ,1.04536 ,3.34104 ,32.78227 
112 ,20.3012 ,1.04720 ,3.32051 ,32.58080 
113 ,20.4932 ,1.04906 ,3.31708 ,32.54722 
114 ,20.6693 ,1.05085 ,3.30339 ,32.41290 
115 ,20.8613 ,1.05272 ,3.27602 ,32.14428 
116 ,21.0534 ,1.05464 ,3.27259 ,32.11070 
117 ,21.2455 ,1.05664 ,3.23837 ,31.77492 
118 ,21.4215 ,1.05833 ,3.21100 ,31.50629 
119 ,21.5978 ,1.06014 ,3.21442 ,31.53987 
120 ,21.7898 ,1.06202 ,3.19388 ,31.33840 
121 ,21.9658 ,1.06381 ,3.18704 ,31.27124 
122 ,22.1578 ,1.06566 ,3.16993 ,31.10335 
123 ,22.3499 ,1.06760 ,3.13229 ,30.73399 
124 ,22.5262 ,1.06939 ,3.11860 ,30.59968 
125 ,22.7021 ,1.07117 ,3.10491 ,30.46536 
126 ,22.8942 ,1.07305 ,3.10833 ,30.49894 
127 ,23.0702 ,1.07496 ,3.08095 ,30.23031 
128 ,23.2464 ,1.07657 ,3.06384 ,30.06242 
129 ,23.4224 ,1.07839 ,3.05015 ,29.92811 
130 ,23.5985 ,1.08012 ,3.03989 ,29.82737 
131 ,23.7905 ,1.08203 ,3.03304 ,29.76022 
132 ,23.9827 ,1.08398 ,3.00909 ,29.52517 
133 ,24.1586 ,1.08581 ,3.00224 ,29.45801 
134 ,24.3349 ,1.08748 ,2.98171 ,29.25654 
135 ,24.5269 ,1.08936 ,2.94407 ,28.88718 
136 ,24.7030 ,1.09117 ,2.94064 ,28.85360 
137 ,24.8790 ,1.09289 ,2.94064 ,28.85360 
138 ,25.0711 ,1.09483 ,2.90985 ,28.55140 
139 ,25.2473 ,1.09661 ,2.90300 ,28.48424 
140 ,25.4393 ,1.09853 ,2.87905 ,28.24919 
141 ,25.6313 ,1.10043 ,2.87562 ,28.21562 
142 ,25.8071 ,1.10220 ,2.85509 ,28.01415 
143 ,25.9836 ,1.10395 ,2.82429 ,27.71194 
144 ,26.1754 ,1.10588 ,2.82771 ,27.74552 
145 ,26.3678 ,1.10773 ,2.80034 ,27.47689 
146 ,26.5599 ,1.10971 ,2.77296 ,27.20827 
147 ,26.7360 ,1.11152 ,2.77296 ,27.20827 
148 ,26.9280 ,1.11332 ,2.74558 ,26.93964 
149 ,27.1041 ,1.11518 ,2.73874 ,26.87248 
150 ,27.2799 ,1.11704 ,2.72847 ,26.77175 
151 ,27.4562 ,1.11865 ,2.72505 ,26.73817 
152 ,27.6323 ,1.12042 ,2.70452 ,26.53670 
153 ,27.8241 ,1.12232 ,2.67714 ,26.26807 
154 ,28.0004 ,1.12410 ,2.67372 ,26.23450 
155 ,28.1766 ,1.12587 ,2.66003 ,26.10018 
156 ,28.3523 ,1.12765 ,2.64292 ,25.93229 
157 ,28.5286 ,1.12939 ,2.61554 ,25.66367 
158 ,28.7046 ,1.13117 ,2.59501 ,25.46220 
159 ,28.8647 ,1.13289 ,2.58816 ,25.39504 
160 ,29.0409 ,1.13453 ,2.57447 ,25.26073 
161 ,29.2329 ,1.13641 ,2.57105 ,25.22715 
162 ,29.4089 ,1.13819 ,2.55736 ,25.09283 
163 ,29.6010 ,1.14010 ,2.53341 ,24.85779 
164 ,29.7932 ,1.14204 ,2.51972 ,24.72347 
165 ,29.9853 ,1.14395 ,2.49918 ,24.52200 
166 ,30.1773 ,1.14586 ,2.48892 ,24.42127 
167 ,30.3693 ,1.14778 ,2.46496 ,24.18622 
168 ,30.5614 ,1.14963 ,2.44785 ,24.01833 
169 ,30.7697 ,1.15173 ,2.43416 ,23.88402 
170 ,30.9457 ,1.15357 ,2.40336 ,23.58181 
171 ,31.1377 ,1.15549 ,2.39994 ,23.54823 
172 ,31.3297 ,1.15739 ,2.38625 ,23.41392 
173 ,31.4897 ,1.15912 ,2.36914 ,23.24603 
174 ,31.6659 ,1.16074 ,2.35203 ,23.07814 
175 ,31.8418 ,1.16259 ,2.33492 ,22.91024 
176 ,32.0502 ,1.16449 ,2.34861 ,23.04456 
177 ,32.2421 ,1.16650 ,2.30412 ,22.60804 
178 ,32.4342 ,1.16845 ,2.29728 ,22.54088 
179 ,32.6102 ,1.17020 ,2.28701 ,22.44015 
180 ,32.8023 ,1.17214 ,2.25621 ,22.13794 
181 ,32.9945 ,1.17402 ,2.25279 ,22.10437 
182 ,33.1706 ,1.17582 ,2.24252 ,22.00363 
183 ,33.3625 ,1.17772 ,2.21515 ,21.73500 
184 ,33.5545 ,1.17960 ,2.21172 ,21.70143 
185 ,33.7308 ,1.18141 ,2.20146 ,21.60069 
186 ,33.9227 ,1.18326 ,2.16723 ,21.26491 
187 ,34.0988 ,1.18508 ,2.15355 ,21.13059 
188 ,34.2750 ,1.18686 ,2.15012 ,21.09702 
189 ,34.4669 ,1.18875 ,2.13644 ,20.96270 
190 ,34.6432 ,1.19065 ,2.10564 ,20.66050 
191 ,34.8192 ,1.19227 ,2.10221 ,20.62692 
192 ,34.9951 ,1.19402 ,2.08168 ,20.42545 
193 ,35.1873 ,1.19590 ,2.06799 ,20.29114 
194 ,35.3633 ,1.19770 ,2.03719 ,19.98893 
195 ,35.5557 ,1.19964 ,2.04746 ,20.08967 
196 ,35.7314 ,1.20152 ,2.02350 ,19.85462 
197 ,35.9237 ,1.20330 ,2.01324 ,19.75388 
198 ,36.1157 ,1.20524 ,1.99613 ,19.58599 
199 ,36.3239 ,1.20724 ,1.96875 ,19.31737 
200 ,36.4999 ,1.20909 ,1.95164 ,19.14948 
201 ,36.6918 ,1.21095 ,1.95164 ,19.14948 
202 ,36.8679 ,1.21286 ,1.92768 ,18.91443 
203 ,37.0601 ,1.21463 ,1.91399 ,18.78011 
204 ,37.2522 ,1.21659 ,1.90373 ,18.67938 
205 ,37.4282 ,1.21839 ,1.88662 ,18.51149 
206 ,37.6042 ,1.22013 ,1.86951 ,18.34360 
207 ,37.7801 ,1.22201 ,1.84897 ,18.14213 
208 ,37.9566 ,1.22363 ,1.84555 ,18.10855 
209 ,38.1325 ,1.22541 ,1.83186 ,17.97423 
210 ,38.3246 ,1.22732 ,1.79080 ,17.57129 
211 ,38.5005 ,1.22907 ,1.78053 ,17.47056 
212 ,38.6767 ,1.23083 ,1.79764 ,17.63845 
213 ,38.8688 ,1.23276 ,1.76342 ,17.30267 
214 ,39.0449 ,1.23454 ,1.74631 ,17.13478 
215 ,39.2208 ,1.23627 ,1.73262 ,17.00046 
216 ,39.4130 ,1.23824 ,1.72578 ,16.93331 
217 ,39.6051 ,1.24010 ,1.70524 ,16.73184 
218 ,39.7809 ,1.24185 ,1.69155 ,16.59752 
219 ,39.9411 ,1.24359 ,1.69498 ,16.63110 
220 ,40.1174 ,1.24522 ,1.67444 ,16.42963 
221 ,40.3093 ,1.24708 ,1.65391 ,16.22816 
222 ,40.4856 ,1.24895 ,1.63680 ,16.06027 
223 ,40.6616 ,1.25073 ,1.61627 ,15.85880 
224 ,40.8375 ,1.25245 ,1.61969 ,15.89238 
225 ,41.0136 ,1.25433 ,1.58889 ,15.59018 
226 ,41.1897 ,1.25596 ,1.59231 ,15.62375 
227 ,41.3659 ,1.25770 ,1.56493 ,15.35513 
228 ,41.5577 ,1.25963 ,1.55809 ,15.28797 
229 ,41.7341 ,1.26141 ,1.55124 ,15.22081 
230 ,41.9261 ,1.26335 ,1.51702 ,14.88503 
231 ,42.1182 ,1.26525 ,1.50676 ,14.78430 
232 ,42.3102 ,1.26718 ,1.49307 ,14.64998 
233 ,42.4864 ,1.26893 ,1.48965 ,14.61640 
234 ,42.6784 ,1.27077 ,1.47596 ,14.48209 
235 ,42.8546 ,1.27258 ,1.45542 ,14.28062 
236 ,43.0302 ,1.27447 ,1.42805 ,14.01199 
237 ,43.1906 ,1.27609 ,1.42120 ,13.94484 
238 ,43.3666 ,1.27780 ,1.41094 ,13.84410 
239 ,43.5428 ,1.27947 ,1.40067 ,13.74337 
240 ,43.7188 ,1.28125 ,1.38014 ,13.54190 
241 ,43.8951 ,1.28303 ,1.37671 ,13.50832 
242 ,44.0869 ,1.28492 ,1.35618 ,13.30685 
243 ,44.2792 ,1.28680 ,1.34591 ,13.20612 
244 ,44.4711 ,1.28877 ,1.32196 ,12.97107 
245 ,44.6632 ,1.29069 ,1.31854 ,12.93749 
246 ,44.8394 ,1.29241 ,1.29800 ,12.73602 
247 ,45.0151 ,1.29419 ,1.30143 ,12.76960 
248 ,45.1913 ,1.29603 ,1.26036 ,12.36666 
249 ,45.3676 ,1.29771 ,1.25694 ,12.33308 
250 ,45.5597 ,1.29962 ,1.23298 ,12.09803 
251 ,45.7355 ,1.30136 ,1.23641 ,12.13161 
252 ,45.9117 ,1.30313 ,1.22272 ,11.99730 
253 ,46.1198 ,1.30523 ,1.20561 ,11.82941 
254 ,46.2960 ,1.30711 ,1.19192 ,11.69509 
255 ,46.5039 ,1.30893 ,1.15770 ,11.35931 
256 ,46.6961 ,1.31101 ,1.16112 ,11.39289 
257 ,46.8561 ,1.31276 ,1.15085 ,11.29215 
258 ,47.0322 ,1.31434 ,1.13374 ,11.12426 
259 ,47.2082 ,1.31613 ,1.11663 ,10.95637 
260 ,47.3681 ,1.31783 ,1.08925 ,10.68774 
261 ,47.5445 ,1.31948 ,1.07899 ,10.58701 
262 ,47.7366 ,1.32138 ,1.08583 ,10.65416 
263 ,47.9125 ,1.32317 ,1.06872 ,10.48627 
264 ,48.1044 ,1.32508 ,1.03792 ,10.18407 
265 ,48.2808 ,1.32678 ,1.03108 ,10.11691 
266 ,48.4726 ,1.32869 ,1.03108 ,10.11691 
267 ,48.6649 ,1.33065 ,0.99685 ,9.78113 
268 ,48.8408 ,1.33245 ,0.99001 ,9.71397 
269 ,49.0171 ,1.33422 ,0.98317 ,9.64682 
270 ,49.1929 ,1.33598 ,0.96948 ,9.51250 
271 ,49.3849 ,1.33786 ,0.94210 ,9.24388 
272 ,49.5611 ,1.33964 ,0.93525 ,9.17672 
273 ,49.7534 ,1.34156 ,0.92499 ,9.07598 
274 ,49.9290 ,1.34331 ,0.91130 ,8.94167 
275 ,50.0889 ,1.34503 ,0.88734 ,8.70662 
276 ,50.2653 ,1.34667 ,0.88392 ,8.67305 
277 ,50.4571 ,1.34856 ,0.86681 ,8.50515 
278 ,50.6336 ,1.35034 ,0.85654 ,8.40442 
279 ,50.8094 ,1.35210 ,0.84628 ,8.30368 
280 ,51.0016 ,1.35404 ,0.82575 ,8.10221 
281 ,51.1936 ,1.35594 ,0.83259 ,8.16937 
282 ,51.3698 ,1.35771 ,0.81890 ,8.03506 
283 ,51.5458 ,1.35959 ,0.76757 ,7.53138 
284 ,51.7220 ,1.36124 ,0.77099 ,7.56496 
285 ,51.8979 ,1.36303 ,0.76072 ,7.46423 
286 ,52.0901 ,1.36491 ,0.76415 ,7.49780 
287 ,52.2499 ,1.36663 ,0.74361 ,7.29633 
288 ,52.4098 ,1.36825 ,0.72992 ,7.16202 
289 ,52.5699 ,1.36984 ,0.71966 ,7.06129 
290 ,52.7464 ,1.37153 ,0.71966 ,7.06129 
291 ,52.9548 ,1.37351 ,0.71281 ,6.99413 
292 ,53.1467 ,1.37550 ,0.69570 ,6.82624 
293 ,53.3387 ,1.37736 ,0.67175 ,6.59119 
294 ,53.5147 ,1.37914 ,0.66148 ,6.49046 
295 ,53.7069 ,1.38108 ,0.64779 ,6.35614 
296 ,53.8988 ,1.38291 ,0.62384 ,6.12109 
297 ,54.0910 ,1.38491 ,0.62726 ,6.15467 
298 ,54.2831 ,1.38679 ,0.60673 ,5.95320 
299 ,54.4752 ,1.38873 ,0.58277 ,5.71815 
300 ,54.6349 ,1.39052 ,0.57593 ,5.65100 
301 ,54.8113 ,1.39211 ,0.57251 ,5.61742 
302 ,54.9874 ,1.39389 ,0.54855 ,5.38237 
303 ,55.1796 ,1.39577 ,0.53144 ,5.21448 
304 ,55.3715 ,1.39774 ,0.54171 ,5.31522 
305 ,55.5637 ,1.39962 ,0.50748 ,4.97943 
306 ,55.7394 ,1.40138 ,0.49722 ,4.87870 
307 ,55.9158 ,1.40316 ,0.48695 ,4.77796 
308 ,56.0758 ,1.40491 ,0.48011 ,4.71081 
309 ,56.2520 ,1.40653 ,0.48353 ,4.74438 
310 ,56.4439 ,1.40848 ,0.44931 ,4.40860 
311 ,56.6203 ,1.41019 ,0.43562 ,4.27429 
312 ,56.8120 ,1.41208 ,0.44246 ,4.34144 
313 ,56.9880 ,1.41386 ,0.42193 ,4.13997 
314 ,57.1803 ,1.41580 ,0.40140 ,3.93850 
315 ,57.3721 ,1.41771 ,0.39797 ,3.90493 
316 ,57.5485 ,1.41948 ,0.38771 ,3.80419 
317 ,57.7405 ,1.42139 ,0.35691 ,3.50199 
318 ,57.9326 ,1.42329 ,0.36033 ,3.53557 
319 ,58.1245 ,1.42523 ,0.32611 ,3.19978 
320 ,58.3166 ,1.42718 ,0.32269 ,3.16620 
321 ,58.4927 ,1.42892 ,0.31584 ,3.09905 
322 ,58.6688 ,1.43068 ,0.32269 ,3.16620 
323 ,58.8446 ,1.43249 ,0.30215 ,2.96473 
324 ,59.0210 ,1.43421 ,0.27135 ,2.66253 
325 ,59.2129 ,1.43614 ,0.28162 ,2.76326 
326 ,59.3891 ,1.43789 ,0.27135 ,2.66253 
327 ,59.5811 ,1.43983 ,0.24740 ,2.42748 
328 ,59.7732 ,1.44170 ,0.23713 ,2.32675 
329 ,59.9332 ,1.44346 ,0.23029 ,2.25959 
330 ,60.1094 ,1.44506 ,0.21660 ,2.12528 
331 ,60.3014 ,1.44702 ,0.20291 ,1.99096 
332 ,60.4776 ,1.44877 ,0.17896 ,1.75592 
333 ,60.6696 ,1.45068 ,0.19264 ,1.89023 
334 ,60.8456 ,1.45245 ,0.16869 ,1.65518 
335 ,61.0057 ,1.45417 ,0.14816 ,1.45371 
336 ,61.1818 ,1.45579 ,0.13789 ,1.35298 
337 ,61.3739 ,1.45770 ,0.13447 ,1.31940 
338 ,61.5660 ,1.45960 ,0.12420 ,1.21866 
339 ,61.7582 ,1.46154 ,0.11051 ,1.08435 
340 ,61.9661 ,1.46355 ,0.10025 ,0.98361 
341 ,62.1583 ,1.46554 ,0.08314 ,0.81572 
342 ,62.3503 ,1.46747 ,0.08656 ,0.84930 
343 ,62.5424 ,1.46942 ,0.06945 ,0.68141 
344 ,62.7504 ,1.47143 ,0.07287 ,0.71499 
345 ,62.9425 ,1.47341 ,0.04891 ,0.47994 
346 ,63.1186 ,1.47519 ,0.04207 ,0.41278 
347 ,63.3106 ,1.47709 ,0.04549 ,0.44636 
348 ,63.5026 ,1.47898 ,0.00785 ,0.07700 
349 ,63.6787 ,1.48075 ,-0.01611 ,-0.15805 
350 ,63.8551 ,1.48255 ,-0.01953 ,-0.19163 
351 ,64.0629 ,1.48454 ,-0.03322 ,-0.32594 
352 ,64.2551 ,1.48655 ,-0.04006 ,-0.39310 
353 ,64.4472 ,1.48846 ,-0.04006 ,-0.39310 
354 ,64.6228 ,1.49031 ,-0.07428 ,-0.72888 
355 ,64.7993 ,1.49197 ,-0.07771 ,-0.76246 
356 ,64.9752 ,1.49376 ,-0.08797 ,-0.86319 
357 ,65.1671 ,1.49566 ,-0.07428 ,-0.72888 
358 ,65.3435 ,1.49742 ,-0.10508 ,-1.03108 
359 ,65.5516 ,1.49943 ,-0.10508 ,-1.03108 
360 ,65.7437 ,1.50133 ,-0.11877 ,-1.16540 
361 ,65.9355 ,1.50328 ,-0.13931 ,-1.36687 
362 ,66.1117 ,1.50504 ,-0.14957 ,-1.46760 
363 ,66.2716 ,1.50682 ,-0.14957 ,-1.46760 
364 ,66.4478 ,1.50844 ,-0.16326 ,-1.60191 
365 ,66.6238 ,1.51019 ,-0.17695 ,-1.73623 
366 ,66.8002 ,1.51194 ,-0.20090 ,-1.97128 
367 ,66.9919 ,1.51386 ,-0.20090 ,-1.97128 
368 ,67.1683 ,1.51564 ,-0.20775 ,-2.03843 
369 ,67.3442 ,1.51755 ,-0.23855 ,-2.34064 
370 ,67.5204 ,1.51914 ,-0.24197 ,-2.37422 
371 ,67.6964 ,1.52097 ,-0.25224 ,-2.47495 
372 ,67.8886 ,1.52281 ,-0.24881 ,-2.44137 
373 ,68.0806 ,1.52476 ,-0.28646 ,-2.81073 
374 ,68.2570 ,1.52650 ,-0.28988 ,-2.84431 
375 ,68.4489 ,1.52852 ,-0.30699 ,-3.01220 
376 ,68.6407 ,1.53035 ,-0.30015 ,-2.94505 
377 ,68.8328 ,1.53221 ,-0.30357 ,-2.97863 
378 ,69.0250 ,1.53422 ,-0.33437 ,-3.28083 
379 ,69.2171 ,1.53607 ,-0.33779 ,-3.31441 
380 ,69.3928 ,1.53788 ,-0.34806 ,-3.41514 
381 ,69.5692 ,1.53966 ,-0.35490 ,-3.48230 
382 ,69.7613 ,1.54157 ,-0.36517 ,-3.58303 
383 ,69.9373 ,1.54336 ,-0.39255 ,-3.85166 
384 ,70.1131 ,1.54513 ,-0.38570 ,-3.78450 
385 ,70.2732 ,1.54680 ,-0.39597 ,-3.88524 
386 ,70.4332 ,1.54843 ,-0.40623 ,-3.98597 
387 ,70.6093 ,1.55001 ,-0.40966 ,-4.01955 
388 ,70.7694 ,1.55177 ,-0.42677 ,-4.18744 
389 ,70.9294 ,1.55336 ,-0.42677 ,-4.18744 
390 ,71.0895 ,1.55496 ,-0.43703 ,-4.28818 
391 ,71.2495 ,1.55657 ,-0.45072 ,-4.42249 
392 ,71.4097 ,1.55817 ,-0.45414 ,-4.45607 
393 ,71.5696 ,1.55977 ,-0.46441 ,-4.55681 
394 ,71.7297 ,1.56136 ,-0.47468 ,-4.65754 
395 ,71.8898 ,1.56295 ,-0.49179 ,-4.82543 
396 ,72.0498 ,1.56456 ,-0.49179 ,-4.82543 
397 ,72.2099 ,1.56617 ,-0.51917 ,-5.09406 
398 ,72.3860 ,1.56778 ,-0.51232 ,-5.02690 
399 ,72.5460 ,1.56953 ,-0.52943 ,-5.19479 
400 ,72.7221 ,1.57114 ,-0.54312 ,-5.32911 
401 ,72.8821 ,1.57285 ,-0.57392 ,-5.63131 
402 ,73.0584 ,1.57447 ,-0.56708 ,-5.56415 
403 ,73.2183 ,1.57623 ,-0.58419 ,-5.73205 
404 ,73.3783 ,1.57785 ,-0.60814 ,-5.96709 
405 ,73.5384 ,1.57945 ,-0.60472 ,-5.93352 
406 ,73.7145 ,1.58105 ,-0.61499 ,-6.03425 
407 ,73.8746 ,1.58280 ,-0.61841 ,-6.06783 
408 ,74.0346 ,1.58442 ,-0.62183 ,-6.10141 
409 ,74.2107 ,1.58600 ,-0.63894 ,-6.26930 
410 ,74.3708 ,1.58777 ,-0.64236 ,-6.30288 
411 ,74.5308 ,1.58936 ,-0.63894 ,-6.26930 
412 ,74.6909 ,1.59097 ,-0.65605 ,-6.43719 
413 ,74.8671 ,1.59260 ,-0.66290 ,-6.50435 
414 ,75.0593 ,1.59449 ,-0.68685 ,-6.73940 
415 ,75.2514 ,1.59642 ,-0.68685 ,-6.73940 
416 ,75.4435 ,1.59837 ,-0.69712 ,-6.84013 
417 ,75.6356 ,1.60025 ,-0.71765 ,-7.04160 
418 ,75.8115 ,1.60204 ,-0.72792 ,-7.14233 
419 ,76.0037 ,1.60397 ,-0.73476 ,-7.20949 
420 ,76.1957 ,1.60589 ,-0.75530 ,-7.41096 
421 ,76.3879 ,1.60777 ,-0.75872 ,-7.44454 
422 ,76.5638 ,1.60954 ,-0.76556 ,-7.51170 
423 ,76.7398 ,1.61128 ,-0.78952 ,-7.74674 
424 ,76.8999 ,1.61306 ,-0.79978 ,-7.84748 
425 ,77.0758 ,1.61467 ,-0.80663 ,-7.91464 
426 ,77.2519 ,1.61644 ,-0.80321 ,-7.88106 
427 ,77.4282 ,1.61819 ,-0.81689 ,-8.01537 
428 ,77.6204 ,1.62016 ,-0.84427 ,-8.28400 
429 ,77.7961 ,1.62201 ,-0.83743 ,-8.21684 
430 ,77.9725 ,1.62367 ,-0.85796 ,-8.41831 
431 ,78.1646 ,1.62555 ,-0.84427 ,-8.28400 
432 ,78.3569 ,1.62749 ,-0.88534 ,-8.68694 
433 ,78.5488 ,1.62940 ,-0.86823 ,-8.51904 
434 ,78.7249 ,1.63115 ,-0.88876 ,-8.72051 
435 ,78.9009 ,1.63291 ,-0.90587 ,-8.88841 
436 ,79.0769 ,1.63462 ,-0.92640 ,-9.08988 
437 ,79.2532 ,1.63644 ,-0.91614 ,-8.98914 
438 ,79.4451 ,1.63838 ,-0.92640 ,-9.08988 
439 ,79.6372 ,1.64029 ,-0.95378 ,-9.35850 
440 ,79.8132 ,1.64208 ,-0.96747 ,-9.49282 
441 ,79.9733 ,1.64374 ,-0.95378 ,-9.35850 
442 ,80.1494 ,1.64541 ,-0.96747 ,-9.49282 
443 ,80.3255 ,1.64721 ,-0.97431 ,-9.55997 
444 ,80.5175 ,1.64908 ,-0.99485 ,-9.76144 
445 ,80.7096 ,1.65096 ,-0.99143 ,-9.72786 
446 ,80.8856 ,1.65277 ,-1.00169 ,-9.82860 
447 ,81.0777 ,1.65478 ,-1.01880 ,-9.99649 
448 ,81.2697 ,1.65657 ,-1.00169 ,-9.82860 
449 ,81.4459 ,1.65839 ,-1.02222 ,-10.03007 
450 ,81.6219 ,1.66010 ,-1.04618 ,-10.26512 
451 ,81.8298 ,1.66220 ,-1.04618 ,-10.26512 
452 ,82.0058 ,1.66398 ,-1.05302 ,-10.33227 
453 ,82.1821 ,1.66572 ,-1.06671 ,-10.46659 
454 ,82.4063 ,1.66788 ,-1.08040 ,-10.60090 
455 ,82.5823 ,1.66972 ,-1.08382 ,-10.63448 
456 ,82.7745 ,1.67161 ,-1.09751 ,-10.76879 
457 ,82.9666 ,1.67359 ,-1.09409 ,-10.73521 
458 ,83.1423 ,1.67542 ,-1.11805 ,-10.97026 
459 ,83.3187 ,1.67705 ,-1.11805 ,-10.97026 
460 ,83.5107 ,1.67900 ,-1.12831 ,-11.07100 
461 ,83.7028 ,1.68096 ,-1.14200 ,-11.20531 
462 ,83.8949 ,1.68282 ,-1.15227 ,-11.30604 
