Data stamp = , 30-03-2022 12:06:50 123

Calibration Values: 
Slope = , 26.54 , g/V 
Offset Voltage at no contact = , -0.501760 , V 

No , Time , Stage Position ,   Mass , Force 
   ,  (s) ,      (mm)      ,   (g)  , (mN)  

1 ,0.0000 ,0.84949 ,4.97341 ,48.79911 
2 ,0.2277 ,0.84959 ,4.99737 ,49.03416 
3 ,0.7079 ,0.85102 ,4.98026 ,48.86627 
4 ,0.8836 ,0.85312 ,4.99394 ,49.00058 
5 ,1.0601 ,0.85481 ,4.98710 ,48.93343 
6 ,1.2681 ,0.85672 ,4.98710 ,48.93343 
7 ,1.4602 ,0.85878 ,4.99394 ,49.00058 
8 ,1.6360 ,0.86054 ,4.95972 ,48.66480 
9 ,1.8123 ,0.86233 ,4.96657 ,48.73196 
10 ,1.9884 ,0.86416 ,4.95630 ,48.63122 
11 ,2.1643 ,0.86590 ,4.94946 ,48.56407 
12 ,2.3407 ,0.86767 ,4.93577 ,48.42975 
13 ,2.5163 ,0.86945 ,4.91181 ,48.19471 
14 ,2.6924 ,0.87115 ,4.89812 ,48.06039 
15 ,2.8687 ,0.87292 ,4.88444 ,47.92608 
16 ,3.0610 ,0.87484 ,4.87417 ,47.82534 
17 ,3.2371 ,0.87659 ,4.85364 ,47.62387 
18 ,3.4129 ,0.87837 ,4.84337 ,47.52314 
19 ,3.5889 ,0.88017 ,4.81941 ,47.28809 
20 ,3.7649 ,0.88189 ,4.82968 ,47.38883 
21 ,3.9415 ,0.88366 ,4.80915 ,47.18736 
22 ,4.1331 ,0.88558 ,4.77150 ,46.81800 
23 ,4.3094 ,0.88736 ,4.76466 ,46.75084 
24 ,4.4854 ,0.88908 ,4.76124 ,46.71726 
25 ,4.6774 ,0.89090 ,4.73728 ,46.48221 
26 ,4.8533 ,0.89278 ,4.71675 ,46.28074 
27 ,5.0454 ,0.89462 ,4.72359 ,46.34790 
28 ,5.2217 ,0.89643 ,4.69279 ,46.04569 
29 ,5.3977 ,0.89816 ,4.66542 ,45.77707 
30 ,5.5739 ,0.89997 ,4.65857 ,45.70991 
31 ,5.7660 ,0.90186 ,4.64488 ,45.57560 
32 ,5.9418 ,0.90360 ,4.62777 ,45.40771 
33 ,6.1181 ,0.90536 ,4.61066 ,45.23981 
34 ,6.3103 ,0.90724 ,4.60040 ,45.13908 
35 ,6.4860 ,0.90906 ,4.58328 ,44.97119 
36 ,6.6622 ,0.91083 ,4.56275 ,44.76972 
37 ,6.8544 ,0.91272 ,4.54906 ,44.63541 
38 ,7.0465 ,0.91462 ,4.52853 ,44.43394 
39 ,7.2386 ,0.91657 ,4.49773 ,44.13173 
40 ,7.4146 ,0.91832 ,4.47720 ,43.93026 
41 ,7.5908 ,0.92011 ,4.48404 ,43.99742 
42 ,7.7667 ,0.92188 ,4.46009 ,43.76237 
43 ,7.9428 ,0.92362 ,4.43955 ,43.56090 
44 ,8.1189 ,0.92537 ,4.42586 ,43.42659 
45 ,8.2953 ,0.92714 ,4.40191 ,43.19154 
46 ,8.4870 ,0.92906 ,4.40533 ,43.22512 
47 ,8.6632 ,0.93081 ,4.38822 ,43.05723 
48 ,8.8392 ,0.93262 ,4.36084 ,42.78860 
49 ,9.0313 ,0.93444 ,4.35058 ,42.68786 
50 ,9.2231 ,0.93648 ,4.33689 ,42.55355 
51 ,9.4149 ,0.93826 ,4.31978 ,42.38566 
52 ,9.5915 ,0.94008 ,4.30609 ,42.25135 
53 ,9.7832 ,0.94200 ,4.28898 ,42.08345 
54 ,9.9433 ,0.94377 ,4.26845 ,41.88198 
55 ,10.1034 ,0.94536 ,4.24791 ,41.68051 
56 ,10.2632 ,0.94694 ,4.23080 ,41.51262 
57 ,10.4234 ,0.94855 ,4.21369 ,41.34473 
58 ,10.5835 ,0.95015 ,4.20685 ,41.27758 
59 ,10.7599 ,0.95174 ,4.18631 ,41.07611 
60 ,10.9361 ,0.95355 ,4.15551 ,40.77390 
61 ,11.1121 ,0.95531 ,4.15209 ,40.74032 
62 ,11.2880 ,0.95703 ,4.14183 ,40.63959 
63 ,11.4642 ,0.95881 ,4.12129 ,40.43812 
64 ,11.6403 ,0.96059 ,4.10076 ,40.23665 
65 ,11.8324 ,0.96242 ,4.09734 ,40.20307 
66 ,12.0083 ,0.96428 ,4.08023 ,40.03518 
67 ,12.2005 ,0.96614 ,4.05285 ,39.76655 
68 ,12.3766 ,0.96793 ,4.02889 ,39.53150 
69 ,12.5526 ,0.96970 ,4.00836 ,39.33003 
70 ,12.7287 ,0.97142 ,3.99809 ,39.22930 
71 ,12.9209 ,0.97334 ,3.97414 ,38.99425 
72 ,13.0968 ,0.97516 ,3.96045 ,38.85994 
73 ,13.2731 ,0.97690 ,3.95703 ,38.82636 
74 ,13.4650 ,0.97882 ,3.93992 ,38.65847 
75 ,13.6413 ,0.98061 ,3.91596 ,38.42342 
76 ,13.8172 ,0.98235 ,3.89201 ,38.18837 
77 ,14.0091 ,0.98427 ,3.88516 ,38.12122 
78 ,14.2013 ,0.98620 ,3.86463 ,37.91975 
79 ,14.3931 ,0.98811 ,3.84067 ,37.68470 
80 ,14.5694 ,0.98988 ,3.84067 ,37.68470 
81 ,14.7456 ,0.99168 ,3.80987 ,37.38249 
82 ,14.9215 ,0.99341 ,3.77908 ,37.08029 
83 ,15.0973 ,0.99510 ,3.76539 ,36.94597 
84 ,15.2737 ,0.99694 ,3.75854 ,36.87882 
85 ,15.4654 ,0.99879 ,3.73117 ,36.61019 
86 ,15.6419 ,1.00054 ,3.71063 ,36.40872 
87 ,15.8340 ,1.00254 ,3.71063 ,36.40872 
88 ,16.0100 ,1.00429 ,3.69352 ,36.24083 
89 ,16.1860 ,1.00609 ,3.69352 ,36.24083 
90 ,16.3621 ,1.00781 ,3.64219 ,35.73716 
91 ,16.5540 ,1.00971 ,3.64561 ,35.77073 
92 ,16.7303 ,1.01143 ,3.62508 ,35.56926 
93 ,16.9064 ,1.01328 ,3.61139 ,35.43495 
94 ,17.0982 ,1.01509 ,3.58743 ,35.19990 
95 ,17.2745 ,1.01689 ,3.57032 ,35.03201 
96 ,17.4665 ,1.01879 ,3.55663 ,34.89770 
97 ,17.6427 ,1.02057 ,3.53268 ,34.66265 
98 ,17.8506 ,1.02256 ,3.52926 ,34.62907 
99 ,18.0264 ,1.02438 ,3.51557 ,34.49476 
100 ,18.2024 ,1.02621 ,3.49161 ,34.25971 
101 ,18.3624 ,1.02796 ,3.46424 ,33.99108 
102 ,18.5387 ,1.02956 ,3.45055 ,33.85677 
103 ,18.7632 ,1.03166 ,3.44028 ,33.75604 
104 ,18.9552 ,1.03371 ,3.42659 ,33.62172 
105 ,19.1313 ,1.03552 ,3.41290 ,33.48741 
106 ,19.3074 ,1.03723 ,3.38895 ,33.25236 
107 ,19.4834 ,1.03896 ,3.37526 ,33.11805 
108 ,19.6432 ,1.04069 ,3.36499 ,33.01731 
109 ,19.8032 ,1.04230 ,3.33077 ,32.68153 
110 ,19.9797 ,1.04395 ,3.32051 ,32.58080 
111 ,20.1715 ,1.04588 ,3.32735 ,32.64795 
112 ,20.3477 ,1.04762 ,3.29655 ,32.34575 
113 ,20.5239 ,1.04943 ,3.27944 ,32.17786 
114 ,20.6996 ,1.05115 ,3.26917 ,32.07712 
115 ,20.8757 ,1.05289 ,3.24180 ,31.80849 
116 ,21.0522 ,1.05463 ,3.24864 ,31.87565 
117 ,21.2280 ,1.05645 ,3.22811 ,31.67418 
118 ,21.4043 ,1.05820 ,3.19046 ,31.30482 
119 ,21.5803 ,1.05998 ,3.18020 ,31.20409 
120 ,21.7561 ,1.06173 ,3.17335 ,31.13693 
121 ,21.9483 ,1.06351 ,3.17677 ,31.17051 
122 ,22.1243 ,1.06537 ,3.14597 ,30.86830 
123 ,22.3327 ,1.06744 ,3.12544 ,30.66683 
124 ,22.5084 ,1.06922 ,3.11860 ,30.59968 
125 ,22.7007 ,1.07114 ,3.09122 ,30.33105 
126 ,22.8765 ,1.07291 ,3.08095 ,30.23031 
127 ,23.0529 ,1.07467 ,3.08095 ,30.23031 
128 ,23.2291 ,1.07639 ,3.06042 ,30.02884 
129 ,23.4210 ,1.07829 ,3.03304 ,29.76022 
130 ,23.6131 ,1.08015 ,3.02620 ,29.69306 
131 ,23.7891 ,1.08202 ,3.00909 ,29.52517 
132 ,23.9492 ,1.08372 ,2.98513 ,29.29012 
133 ,24.1413 ,1.08554 ,2.96460 ,29.08865 
134 ,24.3174 ,1.08728 ,2.97487 ,29.18939 
135 ,24.4936 ,1.08909 ,2.95433 ,28.98792 
136 ,24.6696 ,1.09085 ,2.92696 ,28.71929 
137 ,24.8459 ,1.09264 ,2.91327 ,28.58498 
138 ,25.0217 ,1.09433 ,2.90642 ,28.51782 
139 ,25.2136 ,1.09621 ,2.89958 ,28.45066 
140 ,25.3896 ,1.09801 ,2.88247 ,28.28277 
141 ,25.5498 ,1.09974 ,2.84140 ,27.87983 
142 ,25.7259 ,1.10137 ,2.82429 ,27.71194 
143 ,25.9181 ,1.10318 ,2.82429 ,27.71194 
144 ,26.1099 ,1.10515 ,2.80376 ,27.51047 
145 ,26.3019 ,1.10709 ,2.80034 ,27.47689 
146 ,26.4622 ,1.10886 ,2.79349 ,27.40974 
147 ,26.6384 ,1.11053 ,2.76954 ,27.17469 
148 ,26.8143 ,1.11225 ,2.76611 ,27.14111 
149 ,26.9906 ,1.11401 ,2.75243 ,27.00680 
150 ,27.1826 ,1.11595 ,2.70794 ,26.57028 
151 ,27.3747 ,1.11789 ,2.72163 ,26.70459 
152 ,27.5506 ,1.11961 ,2.68740 ,26.36881 
153 ,27.7268 ,1.12137 ,2.68056 ,26.30165 
154 ,27.9028 ,1.12318 ,2.67029 ,26.20092 
155 ,28.0788 ,1.12494 ,2.64292 ,25.93229 
156 ,28.2710 ,1.12681 ,2.63265 ,25.83156 
157 ,28.4631 ,1.12878 ,2.61896 ,25.69724 
158 ,28.6550 ,1.13067 ,2.61554 ,25.66367 
159 ,28.8471 ,1.13251 ,2.59158 ,25.42862 
160 ,29.0393 ,1.13440 ,2.56078 ,25.12641 
161 ,29.2154 ,1.13627 ,2.55736 ,25.09283 
162 ,29.4074 ,1.13809 ,2.54025 ,24.92494 
163 ,29.6316 ,1.14033 ,2.52656 ,24.79063 
164 ,29.8076 ,1.14220 ,2.49918 ,24.52200 
165 ,29.9997 ,1.14402 ,2.48550 ,24.38769 
166 ,30.1914 ,1.14596 ,2.47523 ,24.28696 
167 ,30.3518 ,1.14777 ,2.44101 ,23.95117 
168 ,30.5441 ,1.14949 ,2.44443 ,23.98475 
169 ,30.7200 ,1.15132 ,2.43759 ,23.91759 
170 ,30.8960 ,1.15309 ,2.41363 ,23.68255 
171 ,31.0722 ,1.15485 ,2.39652 ,23.51465 
172 ,31.2478 ,1.15667 ,2.38625 ,23.41392 
173 ,31.4083 ,1.15833 ,2.37256 ,23.27961 
174 ,31.6004 ,1.16008 ,2.36572 ,23.21245 
175 ,31.7923 ,1.16195 ,2.35545 ,23.11171 
176 ,31.9685 ,1.16376 ,2.31781 ,22.74235 
177 ,32.1443 ,1.16556 ,2.29728 ,22.54088 
178 ,32.3203 ,1.16727 ,2.30412 ,22.60804 
179 ,32.4966 ,1.16909 ,2.29043 ,22.47373 
180 ,32.6889 ,1.17085 ,2.27332 ,22.30584 
181 ,32.9126 ,1.17311 ,2.25621 ,22.13794 
182 ,33.1049 ,1.17517 ,2.22883 ,21.86932 
183 ,33.2969 ,1.17705 ,2.22199 ,21.80216 
184 ,33.4731 ,1.17881 ,2.20488 ,21.63427 
185 ,33.6810 ,1.18093 ,2.19119 ,21.49996 
186 ,33.8732 ,1.18285 ,2.16381 ,21.23133 
187 ,34.0492 ,1.18456 ,2.15012 ,21.09702 
188 ,34.2254 ,1.18639 ,2.13644 ,20.96270 
189 ,34.4012 ,1.18813 ,2.13986 ,20.99628 
190 ,34.5775 ,1.18988 ,2.10906 ,20.69408 
191 ,34.7697 ,1.19171 ,2.09879 ,20.59334 
192 ,34.9617 ,1.19375 ,2.07484 ,20.35829 
193 ,35.1537 ,1.19565 ,2.06457 ,20.25756 
194 ,35.3297 ,1.19738 ,2.04061 ,20.02251 
195 ,35.5219 ,1.19934 ,2.04061 ,20.02251 
196 ,35.6980 ,1.20104 ,2.03377 ,19.95535 
197 ,35.8741 ,1.20285 ,1.99270 ,19.55241 
198 ,36.0821 ,1.20483 ,1.98586 ,19.48526 
199 ,36.2743 ,1.20689 ,1.98586 ,19.48526 
200 ,36.4500 ,1.20861 ,1.96190 ,19.25021 
201 ,36.6101 ,1.21033 ,1.94137 ,19.04874 
202 ,36.8184 ,1.21216 ,1.93111 ,18.94801 
203 ,36.9944 ,1.21407 ,1.92426 ,18.88085 
204 ,37.1704 ,1.21579 ,1.89004 ,18.54507 
205 ,37.3627 ,1.21769 ,1.89346 ,18.57864 
206 ,37.5545 ,1.21961 ,1.87293 ,18.37717 
207 ,37.7309 ,1.22140 ,1.85582 ,18.20928 
208 ,37.9228 ,1.22333 ,1.83528 ,18.00781 
209 ,38.0989 ,1.22508 ,1.83871 ,18.04139 
210 ,38.2749 ,1.22682 ,1.80791 ,17.73919 
211 ,38.4991 ,1.22894 ,1.80449 ,17.70561 
212 ,38.6910 ,1.23092 ,1.76342 ,17.30267 
213 ,38.8672 ,1.23271 ,1.76342 ,17.30267 
214 ,39.0273 ,1.23446 ,1.74973 ,17.16836 
215 ,39.2033 ,1.23609 ,1.74289 ,17.10120 
216 ,39.3794 ,1.23783 ,1.73262 ,17.00046 
217 ,39.5554 ,1.23961 ,1.70866 ,16.76542 
218 ,39.7316 ,1.24137 ,1.67786 ,16.46321 
219 ,39.9077 ,1.24315 ,1.66760 ,16.36248 
220 ,40.0837 ,1.24493 ,1.66418 ,16.32890 
221 ,40.2596 ,1.24665 ,1.65391 ,16.22816 
222 ,40.4519 ,1.24860 ,1.63680 ,16.06027 
223 ,40.6278 ,1.25036 ,1.61627 ,15.85880 
224 ,40.8201 ,1.25227 ,1.61627 ,15.85880 
225 ,41.0120 ,1.25424 ,1.57862 ,15.48944 
226 ,41.1882 ,1.25593 ,1.57178 ,15.42228 
227 ,41.3642 ,1.25771 ,1.56151 ,15.32155 
228 ,41.5403 ,1.25946 ,1.55467 ,15.25439 
229 ,41.7160 ,1.26124 ,1.53413 ,15.05292 
230 ,41.8925 ,1.26303 ,1.52045 ,14.91861 
231 ,42.1006 ,1.26501 ,1.51360 ,14.85145 
232 ,42.2765 ,1.26685 ,1.48622 ,14.58283 
233 ,42.4527 ,1.26858 ,1.46227 ,14.34778 
234 ,42.6287 ,1.27032 ,1.44858 ,14.21346 
235 ,42.8047 ,1.27211 ,1.44516 ,14.17989 
236 ,42.9811 ,1.27387 ,1.44858 ,14.21346 
237 ,43.1730 ,1.27581 ,1.41436 ,13.87768 
238 ,43.3489 ,1.27752 ,1.40067 ,13.74337 
239 ,43.5411 ,1.27938 ,1.38698 ,13.60906 
240 ,43.7171 ,1.28119 ,1.37329 ,13.47474 
241 ,43.8929 ,1.28312 ,1.35960 ,13.34043 
242 ,44.0693 ,1.28473 ,1.32880 ,13.03822 
243 ,44.2456 ,1.28651 ,1.33565 ,13.10538 
244 ,44.4372 ,1.28836 ,1.33565 ,13.10538 
245 ,44.6136 ,1.29021 ,1.29800 ,12.73602 
246 ,44.7897 ,1.29190 ,1.28432 ,12.60171 
247 ,44.9654 ,1.29378 ,1.28089 ,12.56813 
248 ,45.1575 ,1.29556 ,1.26720 ,12.43381 
249 ,45.3341 ,1.29740 ,1.24667 ,12.23235 
250 ,45.5261 ,1.29931 ,1.22956 ,12.06445 
251 ,45.7180 ,1.30117 ,1.20903 ,11.86298 
252 ,45.9101 ,1.30314 ,1.19534 ,11.72867 
253 ,46.0862 ,1.30492 ,1.19192 ,11.69509 
254 ,46.2623 ,1.30664 ,1.19192 ,11.69509 
255 ,46.4383 ,1.30843 ,1.17823 ,11.56078 
256 ,46.6305 ,1.31039 ,1.15085 ,11.29215 
257 ,46.8223 ,1.31231 ,1.14743 ,11.25857 
258 ,46.9986 ,1.31402 ,1.13032 ,11.09068 
259 ,47.1746 ,1.31579 ,1.10979 ,10.88921 
260 ,47.3508 ,1.31757 ,1.08925 ,10.68774 
261 ,47.5267 ,1.31932 ,1.07899 ,10.58701 
262 ,47.7029 ,1.32111 ,1.07556 ,10.55343 
263 ,47.8790 ,1.32288 ,1.07214 ,10.51985 
264 ,48.0550 ,1.32463 ,1.03450 ,10.15049 
265 ,48.2471 ,1.32651 ,1.02765 ,10.08333 
266 ,48.4231 ,1.32826 ,1.02423 ,10.04976 
267 ,48.5993 ,1.33006 ,1.01054 ,9.91544 
268 ,48.7913 ,1.33200 ,0.97974 ,9.61324 
269 ,48.9674 ,1.33377 ,0.96263 ,9.44535 
270 ,49.1436 ,1.33546 ,0.96263 ,9.44535 
271 ,49.3194 ,1.33723 ,0.95921 ,9.41177 
272 ,49.5114 ,1.33914 ,0.92499 ,9.07598 
273 ,49.6876 ,1.34100 ,0.93525 ,9.17672 
274 ,49.8636 ,1.34269 ,0.91814 ,9.00883 
275 ,50.0398 ,1.34446 ,0.91130 ,8.94167 
276 ,50.2159 ,1.34621 ,0.88050 ,8.63947 
277 ,50.4240 ,1.34824 ,0.87708 ,8.60589 
278 ,50.6159 ,1.35022 ,0.84286 ,8.27011 
279 ,50.8241 ,1.35215 ,0.83601 ,8.20295 
280 ,51.0002 ,1.35404 ,0.83259 ,8.16937 
281 ,51.1922 ,1.35594 ,0.79837 ,7.83359 
282 ,51.3683 ,1.35767 ,0.80863 ,7.93432 
283 ,51.5443 ,1.35948 ,0.80521 ,7.90074 
284 ,51.7203 ,1.36121 ,0.78468 ,7.69927 
285 ,51.8965 ,1.36300 ,0.76072 ,7.46423 
286 ,52.0726 ,1.36481 ,0.74019 ,7.26276 
287 ,52.2484 ,1.36652 ,0.73677 ,7.22918 
288 ,52.4246 ,1.36831 ,0.72650 ,7.12844 
289 ,52.6167 ,1.37010 ,0.69913 ,6.85982 
290 ,52.7930 ,1.37192 ,0.69913 ,6.85982 
291 ,53.0009 ,1.37399 ,0.69570 ,6.82624 
292 ,53.1767 ,1.37579 ,0.67175 ,6.59119 
293 ,53.3686 ,1.37765 ,0.66148 ,6.49046 
294 ,53.5453 ,1.37947 ,0.65806 ,6.45688 
295 ,53.7372 ,1.38143 ,0.63410 ,6.22183 
296 ,53.9611 ,1.38348 ,0.62042 ,6.08752 
297 ,54.1372 ,1.38541 ,0.62042 ,6.08752 
298 ,54.3294 ,1.38724 ,0.60330 ,5.91962 
299 ,54.5050 ,1.38914 ,0.58962 ,5.78531 
300 ,54.6815 ,1.39083 ,0.57935 ,5.68458 
301 ,54.8573 ,1.39258 ,0.55539 ,5.44953 
302 ,55.0338 ,1.39437 ,0.54513 ,5.34879 
303 ,55.2098 ,1.39618 ,0.54171 ,5.31522 
304 ,55.4179 ,1.39804 ,0.51775 ,5.08017 
305 ,55.6260 ,1.40027 ,0.52117 ,5.11375 
306 ,55.8180 ,1.40215 ,0.49722 ,4.87870 
307 ,55.9941 ,1.40393 ,0.47326 ,4.64365 
308 ,56.1862 ,1.40587 ,0.47326 ,4.64365 
309 ,56.3623 ,1.40768 ,0.46642 ,4.57649 
310 ,56.5382 ,1.40938 ,0.44246 ,4.34144 
311 ,56.7145 ,1.41116 ,0.43562 ,4.27429 
312 ,56.9065 ,1.41310 ,0.42877 ,4.20713 
313 ,57.0825 ,1.41485 ,0.41851 ,4.10640 
314 ,57.2587 ,1.41657 ,0.40482 ,3.97208 
315 ,57.4347 ,1.41839 ,0.38086 ,3.73703 
316 ,57.6107 ,1.42010 ,0.37402 ,3.66988 
317 ,57.8029 ,1.42201 ,0.37744 ,3.70346 
318 ,57.9947 ,1.42396 ,0.34322 ,3.36767 
319 ,58.1711 ,1.42569 ,0.34322 ,3.36767 
320 ,58.3629 ,1.42765 ,0.33980 ,3.33410 
321 ,58.5551 ,1.42956 ,0.30215 ,2.96473 
322 ,58.7148 ,1.43123 ,0.30558 ,2.99831 
323 ,58.8913 ,1.43292 ,0.28847 ,2.83042 
324 ,59.0674 ,1.43470 ,0.28847 ,2.83042 
325 ,59.2591 ,1.43658 ,0.26793 ,2.62895 
326 ,59.4355 ,1.43836 ,0.25082 ,2.46106 
327 ,59.6116 ,1.44009 ,0.23713 ,2.32675 
328 ,59.7877 ,1.44186 ,0.23029 ,2.25959 
329 ,59.9637 ,1.44364 ,0.24055 ,2.36032 
330 ,60.1395 ,1.44536 ,0.22002 ,2.15885 
331 ,60.3155 ,1.44713 ,0.18922 ,1.85665 
332 ,60.5080 ,1.44893 ,0.19264 ,1.89023 
333 ,60.6997 ,1.45103 ,0.18238 ,1.78949 
334 ,60.8921 ,1.45286 ,0.16527 ,1.62160 
335 ,61.0840 ,1.45480 ,0.16185 ,1.58802 
336 ,61.2602 ,1.45656 ,0.15158 ,1.48729 
337 ,61.4362 ,1.45836 ,0.13105 ,1.28582 
338 ,61.6124 ,1.46014 ,0.13447 ,1.31940 
339 ,61.7885 ,1.46190 ,0.12078 ,1.18508 
340 ,61.9966 ,1.46390 ,0.08656 ,0.84930 
341 ,62.1885 ,1.46588 ,0.09340 ,0.91646 
342 ,62.3645 ,1.46763 ,0.08998 ,0.88288 
343 ,62.5567 ,1.46954 ,0.05576 ,0.54710 
344 ,62.7490 ,1.47145 ,0.05576 ,0.54710 
345 ,62.9249 ,1.47322 ,0.04549 ,0.44636 
346 ,63.1010 ,1.47496 ,0.02838 ,0.27847 
347 ,63.2931 ,1.47693 ,0.01127 ,0.11058 
348 ,63.4691 ,1.47871 ,0.01469 ,0.14416 
349 ,63.6452 ,1.48051 ,-0.00584 ,-0.05731 
350 ,63.8213 ,1.48217 ,-0.00926 ,-0.09089 
351 ,63.9974 ,1.48397 ,-0.02980 ,-0.29236 
352 ,64.1894 ,1.48585 ,-0.03664 ,-0.35952 
353 ,64.3654 ,1.48761 ,-0.03664 ,-0.35952 
354 ,64.5415 ,1.48935 ,-0.04348 ,-0.42667 
355 ,64.7176 ,1.49121 ,-0.06060 ,-0.59457 
356 ,64.8937 ,1.49287 ,-0.08113 ,-0.79604 
357 ,65.0698 ,1.49467 ,-0.09824 ,-0.96393 
358 ,65.2618 ,1.49656 ,-0.08797 ,-0.86319 
359 ,65.4379 ,1.49843 ,-0.11535 ,-1.13182 
360 ,65.6140 ,1.50009 ,-0.12904 ,-1.26613 
361 ,65.7901 ,1.50188 ,-0.14273 ,-1.40045 
362 ,65.9661 ,1.50367 ,-0.13588 ,-1.33329 
363 ,66.1422 ,1.50536 ,-0.14615 ,-1.43402 
364 ,66.3504 ,1.50749 ,-0.17011 ,-1.66907 
365 ,66.5421 ,1.50942 ,-0.16326 ,-1.60191 
366 ,66.7186 ,1.51115 ,-0.20090 ,-1.97128 
367 ,66.8946 ,1.51299 ,-0.20433 ,-2.00485 
368 ,67.0864 ,1.51479 ,-0.21117 ,-2.07201 
369 ,67.2627 ,1.51660 ,-0.22828 ,-2.23990 
370 ,67.4388 ,1.51841 ,-0.22486 ,-2.20632 
371 ,67.6147 ,1.52014 ,-0.23513 ,-2.30706 
372 ,67.8069 ,1.52192 ,-0.26250 ,-2.57569 
373 ,67.9830 ,1.52377 ,-0.26250 ,-2.57569 
374 ,68.1591 ,1.52557 ,-0.28304 ,-2.77716 
375 ,68.3511 ,1.52745 ,-0.27619 ,-2.71000 
376 ,68.5590 ,1.52943 ,-0.29330 ,-2.87789 
377 ,68.7514 ,1.53137 ,-0.32410 ,-3.18010 
378 ,68.9594 ,1.53347 ,-0.33095 ,-3.24725 
379 ,69.1354 ,1.53537 ,-0.34464 ,-3.38156 
380 ,69.3273 ,1.53718 ,-0.34464 ,-3.38156 
381 ,69.5036 ,1.53905 ,-0.34806 ,-3.41514 
382 ,69.6796 ,1.54081 ,-0.36517 ,-3.58303 
383 ,69.8712 ,1.54272 ,-0.38912 ,-3.81808 
384 ,70.0477 ,1.54441 ,-0.37201 ,-3.65019 
385 ,70.2394 ,1.54638 ,-0.41650 ,-4.08671 
386 ,70.4159 ,1.54814 ,-0.41992 ,-4.12029 
387 ,70.6079 ,1.55002 ,-0.42335 ,-4.15387 
388 ,70.7841 ,1.55177 ,-0.43361 ,-4.25460 
389 ,70.9757 ,1.55370 ,-0.46099 ,-4.52323 
390 ,71.1522 ,1.55550 ,-0.48152 ,-4.72470 
391 ,71.3763 ,1.55759 ,-0.49179 ,-4.82543 
392 ,71.5683 ,1.55963 ,-0.47810 ,-4.69112 
393 ,71.7443 ,1.56133 ,-0.47810 ,-4.69112 
394 ,71.9366 ,1.56327 ,-0.49863 ,-4.89259 
395 ,72.1125 ,1.56508 ,-0.52259 ,-5.12764 
396 ,72.2887 ,1.56684 ,-0.51917 ,-5.09406 
397 ,72.4808 ,1.56871 ,-0.54312 ,-5.32911 
398 ,72.6726 ,1.57062 ,-0.55339 ,-5.42984 
399 ,72.8648 ,1.57253 ,-0.55339 ,-5.42984 
400 ,73.0408 ,1.57434 ,-0.57392 ,-5.63131 
401 ,73.2171 ,1.57608 ,-0.57050 ,-5.59773 
402 ,73.3928 ,1.57789 ,-0.61156 ,-6.00067 
403 ,73.5693 ,1.57966 ,-0.59103 ,-5.79920 
404 ,73.7613 ,1.58159 ,-0.60472 ,-5.93352 
405 ,73.9373 ,1.58334 ,-0.62868 ,-6.16856 
406 ,74.1134 ,1.58505 ,-0.65263 ,-6.40361 
407 ,74.2894 ,1.58681 ,-0.63552 ,-6.23572 
408 ,74.4652 ,1.58859 ,-0.64921 ,-6.37003 
409 ,74.6418 ,1.59034 ,-0.65605 ,-6.43719 
410 ,74.8177 ,1.59209 ,-0.68001 ,-6.67224 
411 ,75.0258 ,1.59404 ,-0.68343 ,-6.70582 
412 ,75.2019 ,1.59597 ,-0.69370 ,-6.80655 
413 ,75.3779 ,1.59769 ,-0.71081 ,-6.97444 
414 ,75.5861 ,1.59978 ,-0.71081 ,-6.97444 
415 ,75.7941 ,1.60182 ,-0.74161 ,-7.27665 
416 ,75.9701 ,1.60365 ,-0.73818 ,-7.24307 
417 ,76.1624 ,1.60547 ,-0.74845 ,-7.34380 
418 ,76.3382 ,1.60731 ,-0.76214 ,-7.47812 
419 ,76.5143 ,1.60911 ,-0.77925 ,-7.64601 
420 ,76.6905 ,1.61082 ,-0.77925 ,-7.64601 
421 ,76.8824 ,1.61270 ,-0.79294 ,-7.78032 
422 ,77.0586 ,1.61452 ,-0.80321 ,-7.88106 
423 ,77.2186 ,1.61623 ,-0.83058 ,-8.14968 
424 ,77.4108 ,1.61800 ,-0.81347 ,-7.98179 
425 ,77.6025 ,1.62000 ,-0.82716 ,-8.11611 
426 ,77.7950 ,1.62178 ,-0.85112 ,-8.35115 
427 ,78.0027 ,1.62389 ,-0.85796 ,-8.41831 
428 ,78.1790 ,1.62570 ,-0.86823 ,-8.51904 
429 ,78.3551 ,1.62746 ,-0.88534 ,-8.68694 
430 ,78.5307 ,1.62920 ,-0.89218 ,-8.75409 
431 ,78.7068 ,1.63101 ,-0.89560 ,-8.78767 
432 ,78.8828 ,1.63273 ,-0.90245 ,-8.85483 
433 ,79.0593 ,1.63455 ,-0.91614 ,-8.98914 
434 ,79.2672 ,1.63657 ,-0.92298 ,-9.05630 
435 ,79.4438 ,1.63835 ,-0.93325 ,-9.15703 
436 ,79.6355 ,1.64026 ,-0.96747 ,-9.49282 
437 ,79.8117 ,1.64204 ,-0.96063 ,-9.42566 
438 ,80.0036 ,1.64395 ,-0.96063 ,-9.42566 
439 ,80.1797 ,1.64577 ,-0.96405 ,-9.45924 
440 ,80.3557 ,1.64749 ,-0.98800 ,-9.69429 
441 ,80.5481 ,1.64937 ,-0.98800 ,-9.69429 
442 ,80.7240 ,1.65116 ,-0.99827 ,-9.79502 
443 ,80.9002 ,1.65296 ,-1.00854 ,-9.89576 
444 ,81.0922 ,1.65484 ,-1.04276 ,-10.23154 
445 ,81.2681 ,1.65657 ,-1.03249 ,-10.13080 
446 ,81.4446 ,1.65838 ,-1.04276 ,-10.23154 
447 ,81.6042 ,1.66005 ,-1.03934 ,-10.19796 
448 ,81.7803 ,1.66174 ,-1.05987 ,-10.39943 
449 ,81.9562 ,1.66357 ,-1.07356 ,-10.53374 
450 ,82.1485 ,1.66533 ,-1.08040 ,-10.60090 
451 ,82.3248 ,1.66715 ,-1.07356 ,-10.53374 
452 ,82.5008 ,1.66896 ,-1.09409 ,-10.73521 
453 ,82.6768 ,1.67069 ,-1.11120 ,-10.90310 
454 ,82.8528 ,1.67243 ,-1.11805 ,-10.97026 
455 ,83.0608 ,1.67444 ,-1.11120 ,-10.90310 
456 ,83.2529 ,1.67642 ,-1.12831 ,-11.07100 
457 ,83.4292 ,1.67816 ,-1.13858 ,-11.17173 
458 ,83.6213 ,1.68005 ,-1.15911 ,-11.37320 
459 ,83.7973 ,1.68190 ,-1.16253 ,-11.40678 
460 ,83.9894 ,1.68375 ,-1.16938 ,-11.47394 
461 ,84.1655 ,1.68555 ,-1.17280 ,-11.50751 
462 ,84.3414 ,1.68734 ,-1.19333 ,-11.70898 
