Data stamp = , 29-03-2022 14:15:30 369

Calibration Values: 
Slope = , 26.54 , g/V 
Offset Voltage at no contact = , -0.501760 , V 

No , Time , Stage Position ,   Mass , Force 
   ,  (s) ,      (mm)      ,   (g)  , (mN)  

1 ,0.0000 ,0.84961 ,5.13768 ,50.41087 
2 ,0.2144 ,0.84968 ,5.12399 ,50.27656 
3 ,0.4387 ,0.85025 ,5.11714 ,50.20940 
4 ,0.6146 ,0.85126 ,5.12056 ,50.24298 
5 ,0.7909 ,0.85245 ,5.11714 ,50.20940 
6 ,0.9667 ,0.85403 ,5.12741 ,50.31014 
7 ,1.1591 ,0.85586 ,5.12741 ,50.31014 
8 ,1.3509 ,0.85773 ,5.12056 ,50.24298 
9 ,1.5427 ,0.85975 ,5.10345 ,50.07509 
10 ,1.7192 ,0.86153 ,5.09319 ,49.97436 
11 ,1.9112 ,0.86349 ,5.06923 ,49.73931 
12 ,2.1033 ,0.86539 ,5.03159 ,49.36995 
13 ,2.2632 ,0.86713 ,5.03159 ,49.36995 
14 ,2.4395 ,0.86875 ,5.02474 ,49.30279 
15 ,2.6314 ,0.87064 ,4.98368 ,48.89985 
16 ,2.8075 ,0.87243 ,4.98026 ,48.86627 
17 ,2.9676 ,0.87413 ,4.97683 ,48.83269 
18 ,3.1434 ,0.87579 ,4.94946 ,48.56407 
19 ,3.3197 ,0.87754 ,4.95288 ,48.59764 
20 ,3.4959 ,0.87930 ,4.93577 ,48.42975 
21 ,3.6876 ,0.88121 ,4.90839 ,48.16113 
22 ,3.8638 ,0.88299 ,4.89812 ,48.06039 
23 ,4.0559 ,0.88484 ,4.88786 ,47.95966 
24 ,4.2483 ,0.88681 ,4.85706 ,47.65745 
25 ,4.4242 ,0.88867 ,4.86048 ,47.69103 
26 ,4.6003 ,0.89035 ,4.82968 ,47.38883 
27 ,4.7763 ,0.89216 ,4.82284 ,47.32167 
28 ,4.9362 ,0.89383 ,4.79204 ,47.01946 
29 ,5.1126 ,0.89543 ,4.78519 ,46.95231 
30 ,5.3046 ,0.89730 ,4.77150 ,46.81800 
31 ,5.4806 ,0.89924 ,4.75097 ,46.61653 
32 ,5.6568 ,0.90089 ,4.73386 ,46.44863 
33 ,5.8331 ,0.90269 ,4.71333 ,46.24716 
34 ,6.0249 ,0.90456 ,4.70648 ,46.18001 
35 ,6.2009 ,0.90632 ,4.68937 ,46.01212 
36 ,6.3767 ,0.90814 ,4.66199 ,45.74349 
37 ,6.5370 ,0.90985 ,4.65515 ,45.67633 
38 ,6.7132 ,0.91144 ,4.62435 ,45.37413 
39 ,6.9049 ,0.91336 ,4.61066 ,45.23981 
40 ,7.0812 ,0.91514 ,4.59697 ,45.10550 
41 ,7.2573 ,0.91689 ,4.59013 ,45.03835 
42 ,7.4496 ,0.91880 ,4.55591 ,44.70256 
43 ,7.6256 ,0.92072 ,4.54222 ,44.56825 
44 ,7.8177 ,0.92243 ,4.52511 ,44.40036 
45 ,7.9936 ,0.92437 ,4.49089 ,44.06457 
46 ,8.1699 ,0.92601 ,4.47378 ,43.89668 
47 ,8.3619 ,0.92792 ,4.47378 ,43.89668 
48 ,8.5381 ,0.92966 ,4.45666 ,43.72879 
49 ,8.7302 ,0.93160 ,4.41560 ,43.32585 
50 ,8.9222 ,0.93355 ,4.42244 ,43.39301 
51 ,9.1143 ,0.93542 ,4.38822 ,43.05723 
52 ,9.2902 ,0.93724 ,4.37795 ,42.95649 
53 ,9.4821 ,0.93910 ,4.36427 ,42.82218 
54 ,9.6584 ,0.94085 ,4.35742 ,42.75502 
55 ,9.8344 ,0.94265 ,4.32320 ,42.41924 
56 ,10.0266 ,0.94460 ,4.29240 ,42.11703 
57 ,10.2026 ,0.94636 ,4.29582 ,42.15061 
58 ,10.3948 ,0.94823 ,4.27871 ,41.98272 
59 ,10.5708 ,0.95005 ,4.25818 ,41.78125 
60 ,10.7307 ,0.95175 ,4.23422 ,41.54620 
61 ,10.9068 ,0.95339 ,4.21711 ,41.37831 
62 ,11.0831 ,0.95515 ,4.21027 ,41.31115 
63 ,11.2591 ,0.95691 ,4.18974 ,41.10968 
64 ,11.4510 ,0.95879 ,4.17262 ,40.94179 
65 ,11.6273 ,0.96059 ,4.14867 ,40.70674 
66 ,11.8032 ,0.96240 ,4.15209 ,40.74032 
67 ,11.9954 ,0.96420 ,4.11445 ,40.37096 
68 ,12.1713 ,0.96605 ,4.11103 ,40.33738 
69 ,12.3476 ,0.96779 ,4.07680 ,40.00160 
70 ,12.5394 ,0.96970 ,4.07680 ,40.00160 
71 ,12.7157 ,0.97143 ,4.05285 ,39.76655 
72 ,12.9076 ,0.97331 ,4.01863 ,39.43077 
73 ,13.0839 ,0.97516 ,4.01520 ,39.39719 
74 ,13.2758 ,0.97704 ,4.00152 ,39.26288 
75 ,13.4521 ,0.97882 ,3.97072 ,38.96067 
76 ,13.6439 ,0.98075 ,3.97414 ,38.99425 
77 ,13.8199 ,0.98263 ,3.95361 ,38.79278 
78 ,13.9960 ,0.98427 ,3.94334 ,38.69205 
79 ,14.1724 ,0.98601 ,3.91254 ,38.38984 
80 ,14.3484 ,0.98779 ,3.89885 ,38.25553 
81 ,14.5405 ,0.98962 ,3.87832 ,38.05406 
82 ,14.7164 ,0.99149 ,3.88174 ,38.08764 
83 ,14.8923 ,0.99335 ,3.84410 ,37.71828 
84 ,15.0688 ,0.99497 ,3.82356 ,37.51681 
85 ,15.2604 ,0.99688 ,3.82014 ,37.48323 
86 ,15.4204 ,0.99863 ,3.79619 ,37.24818 
87 ,15.5964 ,1.00026 ,3.79961 ,37.28176 
88 ,15.7886 ,1.00210 ,3.76196 ,36.91240 
89 ,15.9807 ,1.00404 ,3.76881 ,36.97955 
90 ,16.1570 ,1.00587 ,3.75170 ,36.81166 
91 ,16.3329 ,1.00761 ,3.72432 ,36.54303 
92 ,16.4928 ,1.00934 ,3.69010 ,36.20725 
93 ,16.6529 ,1.01098 ,3.67641 ,36.07294 
94 ,16.8130 ,1.01256 ,3.67299 ,36.03936 
95 ,16.9731 ,1.01412 ,3.64903 ,35.80431 
96 ,17.1331 ,1.01577 ,3.64561 ,35.77073 
97 ,17.2931 ,1.01734 ,3.62508 ,35.56926 
98 ,17.4533 ,1.01895 ,3.61139 ,35.43495 
99 ,17.6133 ,1.02057 ,3.60112 ,35.33422 
100 ,17.7734 ,1.02215 ,3.58743 ,35.19990 
101 ,17.9335 ,1.02371 ,3.57032 ,35.03201 
102 ,18.0935 ,1.02533 ,3.55663 ,34.89770 
103 ,18.2537 ,1.02692 ,3.55321 ,34.86412 
104 ,18.4135 ,1.02855 ,3.52241 ,34.56192 
105 ,18.5738 ,1.03014 ,3.50872 ,34.42760 
106 ,18.7341 ,1.03173 ,3.49504 ,34.29329 
107 ,18.8939 ,1.03333 ,3.48819 ,34.22613 
108 ,19.0540 ,1.03494 ,3.48135 ,34.15898 
109 ,19.2140 ,1.03657 ,3.44713 ,33.82319 
110 ,19.3740 ,1.03813 ,3.44370 ,33.78961 
111 ,19.5341 ,1.03970 ,3.43344 ,33.68888 
112 ,19.6941 ,1.04131 ,3.42659 ,33.62172 
113 ,19.8543 ,1.04293 ,3.39579 ,33.31952 
114 ,20.0141 ,1.04454 ,3.38210 ,33.18520 
115 ,20.1904 ,1.04616 ,3.37868 ,33.15163 
116 ,20.3664 ,1.04801 ,3.37184 ,33.08447 
117 ,20.5426 ,1.04967 ,3.35473 ,32.91658 
118 ,20.7026 ,1.05142 ,3.34104 ,32.78227 
119 ,20.8789 ,1.05301 ,3.33077 ,32.68153 
120 ,21.0388 ,1.05479 ,3.29313 ,32.31217 
121 ,21.2148 ,1.05639 ,3.29997 ,32.37933 
122 ,21.3747 ,1.05814 ,3.26575 ,32.04354 
123 ,21.5509 ,1.05977 ,3.25206 ,31.90923 
124 ,21.7270 ,1.06155 ,3.21784 ,31.57345 
125 ,21.8870 ,1.06327 ,3.22468 ,31.64060 
126 ,22.0471 ,1.06486 ,3.22468 ,31.64060 
127 ,22.2072 ,1.06646 ,3.19046 ,31.30482 
128 ,22.3671 ,1.06808 ,3.19388 ,31.33840 
129 ,22.5434 ,1.06970 ,3.17335 ,31.13693 
130 ,22.7035 ,1.07143 ,3.16309 ,31.03619 
131 ,22.8635 ,1.07302 ,3.14940 ,30.90188 
132 ,23.0236 ,1.07463 ,3.13913 ,30.80115 
133 ,23.1839 ,1.07623 ,3.13229 ,30.73399 
134 ,23.3437 ,1.07782 ,3.10149 ,30.43178 
135 ,23.5198 ,1.07952 ,3.08780 ,30.29747 
136 ,23.6799 ,1.08122 ,3.07411 ,30.16316 
137 ,23.8398 ,1.08280 ,3.05700 ,29.99527 
138 ,23.9999 ,1.08439 ,3.05015 ,29.92811 
139 ,24.1601 ,1.08597 ,3.03989 ,29.82737 
140 ,24.3360 ,1.08764 ,3.02962 ,29.72664 
141 ,24.4961 ,1.08938 ,3.00567 ,29.49159 
142 ,24.6722 ,1.09098 ,2.98171 ,29.25654 
143 ,24.8482 ,1.09273 ,2.97829 ,29.22297 
144 ,25.0082 ,1.09446 ,2.96460 ,29.08865 
145 ,25.1683 ,1.09605 ,2.95433 ,28.98792 
146 ,25.3284 ,1.09767 ,2.94064 ,28.85360 
147 ,25.4884 ,1.09926 ,2.92011 ,28.65213 
148 ,25.6486 ,1.10086 ,2.89616 ,28.41709 
149 ,25.8087 ,1.10248 ,2.88931 ,28.34993 
150 ,25.9687 ,1.10408 ,2.87562 ,28.21562 
151 ,26.1290 ,1.10566 ,2.85509 ,28.01415 
152 ,26.2888 ,1.10729 ,2.84140 ,27.87983 
153 ,26.4489 ,1.10886 ,2.84140 ,27.87983 
154 ,26.6411 ,1.11060 ,2.81402 ,27.61121 
155 ,26.8171 ,1.11241 ,2.80718 ,27.54405 
156 ,26.9772 ,1.11414 ,2.78322 ,27.30900 
157 ,27.1373 ,1.11574 ,2.77638 ,27.24185 
158 ,27.2972 ,1.11735 ,2.74900 ,26.97322 
159 ,27.4572 ,1.11894 ,2.75927 ,27.07395 
160 ,27.6336 ,1.12058 ,2.74216 ,26.90606 
161 ,27.7935 ,1.12230 ,2.71136 ,26.60386 
162 ,27.9536 ,1.12386 ,2.68740 ,26.36881 
163 ,28.1137 ,1.12550 ,2.68740 ,26.36881 
164 ,28.2737 ,1.12713 ,2.67029 ,26.20092 
165 ,28.4337 ,1.12869 ,2.65660 ,26.06661 
166 ,28.5938 ,1.13033 ,2.63607 ,25.86514 
167 ,28.7539 ,1.13191 ,2.62581 ,25.76440 
168 ,28.9139 ,1.13348 ,2.61896 ,25.69724 
169 ,29.0740 ,1.13512 ,2.60527 ,25.56293 
170 ,29.2341 ,1.13672 ,2.58816 ,25.39504 
171 ,29.3942 ,1.13831 ,2.57105 ,25.22715 
172 ,29.5542 ,1.13991 ,2.55736 ,25.09283 
173 ,29.7141 ,1.14150 ,2.54710 ,24.99210 
174 ,29.8744 ,1.14312 ,2.53341 ,24.85779 
175 ,30.0345 ,1.14472 ,2.51630 ,24.68989 
176 ,30.1944 ,1.14631 ,2.50945 ,24.62274 
177 ,30.3545 ,1.14790 ,2.48892 ,24.42127 
178 ,30.5309 ,1.14955 ,2.47523 ,24.28696 
179 ,30.7228 ,1.15144 ,2.47181 ,24.25338 
180 ,30.8993 ,1.15323 ,2.47523 ,24.28696 
181 ,31.0911 ,1.15511 ,2.43074 ,23.85044 
182 ,31.2993 ,1.15710 ,2.44785 ,24.01833 
183 ,31.4913 ,1.15906 ,2.40679 ,23.61539 
184 ,31.6675 ,1.16089 ,2.39994 ,23.54823 
185 ,31.8432 ,1.16266 ,2.36914 ,23.24603 
186 ,32.0196 ,1.16441 ,2.37599 ,23.31318 
187 ,32.2115 ,1.16632 ,2.34177 ,22.97740 
188 ,32.4036 ,1.16829 ,2.34177 ,22.97740 
189 ,32.5957 ,1.17018 ,2.32123 ,22.77593 
190 ,32.7879 ,1.17205 ,2.29728 ,22.54088 
191 ,32.9798 ,1.17409 ,2.28701 ,22.44015 
192 ,33.1721 ,1.17593 ,2.26648 ,22.23868 
193 ,33.3480 ,1.17768 ,2.23910 ,21.97005 
194 ,33.5403 ,1.17961 ,2.24252 ,22.00363 
195 ,33.7321 ,1.18148 ,2.23226 ,21.90290 
196 ,33.9080 ,1.18343 ,2.20830 ,21.66785 
197 ,34.0844 ,1.18508 ,2.20488 ,21.63427 
198 ,34.2764 ,1.18696 ,2.17750 ,21.36564 
199 ,34.4525 ,1.18874 ,2.15355 ,21.13059 
200 ,34.6446 ,1.19066 ,2.14670 ,21.06344 
201 ,34.8368 ,1.19257 ,2.13986 ,20.99628 
202 ,35.0127 ,1.19451 ,2.10906 ,20.69408 
203 ,35.1889 ,1.19610 ,2.10221 ,20.62692 
204 ,35.3648 ,1.19783 ,2.10564 ,20.66050 
205 ,35.5410 ,1.19966 ,2.09195 ,20.52619 
206 ,35.7331 ,1.20151 ,2.05088 ,20.12325 
207 ,35.9252 ,1.20349 ,2.04404 ,20.05609 
208 ,36.1011 ,1.20521 ,2.03719 ,19.98893 
209 ,36.2934 ,1.20713 ,2.01666 ,19.78746 
210 ,36.4853 ,1.20909 ,1.99270 ,19.55241 
211 ,36.6774 ,1.21097 ,1.98928 ,19.51884 
212 ,36.8532 ,1.21274 ,1.94479 ,19.08232 
213 ,37.0453 ,1.21463 ,1.94479 ,19.08232 
214 ,37.2216 ,1.21643 ,1.93795 ,19.01516 
215 ,37.4137 ,1.21834 ,1.92084 ,18.84727 
216 ,37.6056 ,1.22019 ,1.91742 ,18.81369 
217 ,37.7979 ,1.22219 ,1.91742 ,18.81369 
218 ,37.9899 ,1.22410 ,1.87977 ,18.44433 
219 ,38.1498 ,1.22585 ,1.85582 ,18.20928 
220 ,38.3100 ,1.22744 ,1.85240 ,18.17570 
221 ,38.4702 ,1.22903 ,1.83871 ,18.04139 
222 ,38.6462 ,1.23067 ,1.82844 ,17.94066 
223 ,38.8223 ,1.23249 ,1.80791 ,17.73919 
224 ,39.0144 ,1.23435 ,1.79764 ,17.63845 
225 ,39.1901 ,1.23617 ,1.78737 ,17.53772 
226 ,39.3665 ,1.23784 ,1.75657 ,17.23551 
227 ,39.5424 ,1.23964 ,1.74973 ,17.16836 
228 ,39.7185 ,1.24152 ,1.74631 ,17.13478 
229 ,39.8947 ,1.24311 ,1.72578 ,16.93331 
230 ,40.0868 ,1.24506 ,1.70866 ,16.76542 
231 ,40.2626 ,1.24691 ,1.70182 ,16.69826 
232 ,40.4390 ,1.24859 ,1.69840 ,16.66468 
233 ,40.6309 ,1.25052 ,1.67102 ,16.39605 
234 ,40.8231 ,1.25242 ,1.66075 ,16.29532 
235 ,40.9993 ,1.25421 ,1.64707 ,16.16101 
236 ,41.1752 ,1.25599 ,1.63680 ,16.06027 
237 ,41.3673 ,1.25786 ,1.61284 ,15.82522 
238 ,41.5594 ,1.25984 ,1.59573 ,15.65733 
239 ,41.7514 ,1.26170 ,1.58204 ,15.52302 
240 ,41.9272 ,1.26351 ,1.56151 ,15.32155 
241 ,42.1035 ,1.26520 ,1.55124 ,15.22081 
242 ,42.2954 ,1.26716 ,1.54782 ,15.18724 
243 ,42.4716 ,1.26893 ,1.51702 ,14.88503 
244 ,42.6637 ,1.27078 ,1.51360 ,14.85145 
245 ,42.8397 ,1.27259 ,1.51018 ,14.81787 
246 ,43.0318 ,1.27446 ,1.47253 ,14.44851 
247 ,43.2240 ,1.27647 ,1.47253 ,14.44851 
248 ,43.4000 ,1.27831 ,1.45542 ,14.28062 
249 ,43.5761 ,1.27989 ,1.43147 ,14.04557 
250 ,43.7682 ,1.28183 ,1.41778 ,13.91126 
251 ,43.9442 ,1.28364 ,1.41094 ,13.84410 
252 ,44.1365 ,1.28549 ,1.39725 ,13.70979 
253 ,44.3286 ,1.28749 ,1.38014 ,13.54190 
254 ,44.5044 ,1.28922 ,1.35276 ,13.27327 
255 ,44.6965 ,1.29109 ,1.34249 ,13.17254 
256 ,44.8888 ,1.29306 ,1.32880 ,13.03822 
257 ,45.0647 ,1.29482 ,1.32538 ,13.00465 
258 ,45.2409 ,1.29660 ,1.31512 ,12.90391 
259 ,45.4328 ,1.29852 ,1.29116 ,12.66886 
260 ,45.6089 ,1.30029 ,1.26720 ,12.43381 
261 ,45.8009 ,1.30218 ,1.27405 ,12.50097 
262 ,45.9770 ,1.30408 ,1.26036 ,12.36666 
263 ,46.1369 ,1.30568 ,1.22614 ,12.03088 
264 ,46.3133 ,1.30733 ,1.22614 ,12.03088 
265 ,46.4891 ,1.30909 ,1.20561 ,11.82941 
266 ,46.6815 ,1.31100 ,1.21245 ,11.89656 
267 ,46.8733 ,1.31289 ,1.17481 ,11.52720 
268 ,47.0653 ,1.31485 ,1.16796 ,11.46004 
269 ,47.2574 ,1.31670 ,1.14743 ,11.25857 
270 ,47.4337 ,1.31851 ,1.14743 ,11.25857 
271 ,47.6093 ,1.32024 ,1.10979 ,10.88921 
272 ,47.7857 ,1.32200 ,1.12005 ,10.98995 
273 ,47.9617 ,1.32378 ,1.10636 ,10.85563 
274 ,48.1540 ,1.32568 ,1.07899 ,10.58701 
275 ,48.3458 ,1.32759 ,1.06872 ,10.48627 
276 ,48.5222 ,1.32936 ,1.06530 ,10.45270 
277 ,48.6982 ,1.33127 ,1.03108 ,10.11691 
278 ,48.8742 ,1.33289 ,1.02081 ,10.01618 
279 ,49.0504 ,1.33470 ,1.02423 ,10.04976 
280 ,49.2424 ,1.33651 ,1.01396 ,9.94902 
281 ,49.4346 ,1.33850 ,0.98659 ,9.68039 
282 ,49.6105 ,1.34027 ,0.96605 ,9.47892 
283 ,49.8027 ,1.34213 ,0.97290 ,9.54608 
284 ,49.9946 ,1.34410 ,0.95237 ,9.34461 
285 ,50.1869 ,1.34604 ,0.94210 ,9.24388 
286 ,50.3628 ,1.34782 ,0.92157 ,9.04241 
287 ,50.5396 ,1.34952 ,0.92157 ,9.04241 
288 ,50.7148 ,1.35134 ,0.89761 ,8.80736 
289 ,50.8911 ,1.35308 ,0.87023 ,8.53873 
290 ,51.0831 ,1.35502 ,0.89419 ,8.77378 
291 ,51.2752 ,1.35690 ,0.85654 ,8.40442 
292 ,51.4513 ,1.35870 ,0.82917 ,8.13579 
293 ,51.6434 ,1.36058 ,0.83943 ,8.23653 
294 ,51.8194 ,1.36233 ,0.83259 ,8.16937 
295 ,51.9955 ,1.36410 ,0.80521 ,7.90074 
296 ,52.1875 ,1.36601 ,0.78468 ,7.69927 
297 ,52.3636 ,1.36779 ,0.80179 ,7.86717 
298 ,52.5558 ,1.36971 ,0.76415 ,7.49780 
299 ,52.7320 ,1.37150 ,0.73335 ,7.19560 
300 ,52.8918 ,1.37318 ,0.73335 ,7.19560 
301 ,53.0678 ,1.37480 ,0.71966 ,7.06129 
302 ,53.2439 ,1.37657 ,0.71281 ,6.99413 
303 ,53.4357 ,1.37854 ,0.70255 ,6.89340 
304 ,53.5956 ,1.38020 ,0.67859 ,6.65835 
305 ,53.7719 ,1.38184 ,0.67517 ,6.62477 
306 ,53.9479 ,1.38361 ,0.64779 ,6.35614 
307 ,54.1241 ,1.38538 ,0.65464 ,6.42330 
308 ,54.3163 ,1.38733 ,0.63410 ,6.22183 
309 ,54.5086 ,1.38923 ,0.61699 ,6.05394 
310 ,54.6845 ,1.39099 ,0.62042 ,6.08752 
311 ,54.8607 ,1.39277 ,0.61357 ,6.02036 
312 ,55.0367 ,1.39457 ,0.58277 ,5.71815 
313 ,55.2125 ,1.39635 ,0.57593 ,5.65100 
314 ,55.3887 ,1.39804 ,0.56224 ,5.51668 
315 ,55.5648 ,1.39979 ,0.56224 ,5.51668 
316 ,55.7568 ,1.40169 ,0.54171 ,5.31522 
317 ,55.9487 ,1.40357 ,0.52459 ,5.14732 
318 ,56.1250 ,1.40542 ,0.51775 ,5.08017 
319 ,56.3012 ,1.40714 ,0.52117 ,5.11375 
320 ,56.4772 ,1.40890 ,0.49037 ,4.81154 
321 ,56.6534 ,1.41062 ,0.47668 ,4.67723 
322 ,56.8295 ,1.41249 ,0.45957 ,4.50934 
323 ,57.0050 ,1.41430 ,0.47326 ,4.64365 
324 ,57.1650 ,1.41593 ,0.46300 ,4.54291 
325 ,57.3251 ,1.41752 ,0.44588 ,4.37502 
326 ,57.5013 ,1.41913 ,0.42193 ,4.13997 
327 ,57.7096 ,1.42120 ,0.42193 ,4.13997 
328 ,57.9018 ,1.42316 ,0.40140 ,3.93850 
329 ,58.0777 ,1.42495 ,0.39113 ,3.83777 
330 ,58.2696 ,1.42685 ,0.37060 ,3.63630 
331 ,58.4459 ,1.42859 ,0.36718 ,3.60272 
332 ,58.6381 ,1.43049 ,0.34322 ,3.36767 
333 ,58.8140 ,1.43225 ,0.32953 ,3.23336 
334 ,59.0062 ,1.43418 ,0.32611 ,3.19978 
335 ,59.1982 ,1.43609 ,0.31584 ,3.09905 
336 ,59.3745 ,1.43785 ,0.29531 ,2.89758 
337 ,59.5664 ,1.43977 ,0.30215 ,2.96473 
338 ,59.7423 ,1.44165 ,0.26793 ,2.62895 
339 ,59.9185 ,1.44327 ,0.26793 ,2.62895 
340 ,60.1107 ,1.44517 ,0.25767 ,2.52822 
341 ,60.2867 ,1.44713 ,0.25424 ,2.49464 
342 ,60.4788 ,1.44887 ,0.22687 ,2.22601 
343 ,60.6548 ,1.45066 ,0.22002 ,2.15885 
344 ,60.8469 ,1.45256 ,0.21318 ,2.09170 
345 ,61.0229 ,1.45451 ,0.18580 ,1.82307 
346 ,61.2151 ,1.45623 ,0.18580 ,1.82307 
347 ,61.4072 ,1.45811 ,0.18922 ,1.85665 
348 ,61.5991 ,1.46008 ,0.17553 ,1.72234 
349 ,61.7913 ,1.46203 ,0.14131 ,1.38655 
350 ,61.9512 ,1.46371 ,0.15500 ,1.52087 
351 ,62.1274 ,1.46540 ,0.13789 ,1.35298 
352 ,62.3030 ,1.46729 ,0.12078 ,1.18508 
353 ,62.4797 ,1.46890 ,0.12420 ,1.21866 
354 ,62.6716 ,1.47082 ,0.08998 ,0.88288 
355 ,62.8797 ,1.47285 ,0.08314 ,0.81572 
356 ,63.0556 ,1.47465 ,0.05918 ,0.58067 
357 ,63.2319 ,1.47640 ,0.05576 ,0.54710 
358 ,63.4078 ,1.47819 ,0.05918 ,0.58067 
359 ,63.5838 ,1.47991 ,0.05234 ,0.51352 
360 ,63.7601 ,1.48169 ,0.02838 ,0.27847 
361 ,63.9521 ,1.48363 ,0.00785 ,0.07700 
362 ,64.1284 ,1.48538 ,0.00785 ,0.07700 
363 ,64.3204 ,1.48732 ,-0.00242 ,-0.02373 
364 ,64.4963 ,1.48920 ,-0.02637 ,-0.25878 
365 ,64.6727 ,1.49088 ,-0.02637 ,-0.25878 
366 ,64.8486 ,1.49261 ,-0.03664 ,-0.35952 
367 ,65.0412 ,1.49452 ,-0.04348 ,-0.42667 
368 ,65.2327 ,1.49644 ,-0.06744 ,-0.66172 
369 ,65.4247 ,1.49835 ,-0.05375 ,-0.52741 
370 ,65.6008 ,1.50019 ,-0.09824 ,-0.96393 
371 ,65.7929 ,1.50201 ,-0.10851 ,-1.06466 
372 ,65.9690 ,1.50372 ,-0.10166 ,-0.99751 
373 ,66.1451 ,1.50555 ,-0.10508 ,-1.03108 
374 ,66.3371 ,1.50745 ,-0.13246 ,-1.29971 
375 ,66.5129 ,1.50924 ,-0.14273 ,-1.40045 
376 ,66.6892 ,1.51102 ,-0.14957 ,-1.46760 
377 ,66.8812 ,1.51290 ,-0.15984 ,-1.56834 
378 ,67.0573 ,1.51468 ,-0.18722 ,-1.83696 
379 ,67.2496 ,1.51653 ,-0.18722 ,-1.83696 
380 ,67.4414 ,1.51850 ,-0.20090 ,-1.97128 
381 ,67.6013 ,1.52025 ,-0.21459 ,-2.10559 
382 ,67.7776 ,1.52183 ,-0.22486 ,-2.20632 
383 ,67.9536 ,1.52363 ,-0.23513 ,-2.30706 
384 ,68.1299 ,1.52539 ,-0.25224 ,-2.47495 
385 ,68.3059 ,1.52714 ,-0.24197 ,-2.37422 
386 ,68.4978 ,1.52906 ,-0.26593 ,-2.60926 
387 ,68.6581 ,1.53078 ,-0.29673 ,-2.91147 
388 ,68.8341 ,1.53239 ,-0.30015 ,-2.94505 
389 ,69.0102 ,1.53431 ,-0.28646 ,-2.81073 
390 ,69.1860 ,1.53596 ,-0.30015 ,-2.94505 
391 ,69.3459 ,1.53766 ,-0.30357 ,-2.97863 
392 ,69.5221 ,1.53928 ,-0.32410 ,-3.18010 
393 ,69.6981 ,1.54104 ,-0.34464 ,-3.38156 
394 ,69.8742 ,1.54282 ,-0.35490 ,-3.48230 
395 ,70.0343 ,1.54456 ,-0.35148 ,-3.44872 
396 ,70.2106 ,1.54620 ,-0.38228 ,-3.75093 
397 ,70.4026 ,1.54817 ,-0.38570 ,-3.78450 
398 ,70.5948 ,1.54999 ,-0.40281 ,-3.95240 
399 ,70.7708 ,1.55177 ,-0.41650 ,-4.08671 
400 ,70.9466 ,1.55351 ,-0.40966 ,-4.01955 
401 ,71.1231 ,1.55527 ,-0.41308 ,-4.05313 
402 ,71.2991 ,1.55709 ,-0.43361 ,-4.25460 
403 ,71.4750 ,1.55883 ,-0.46441 ,-4.55681 
404 ,71.6672 ,1.56071 ,-0.44730 ,-4.38891 
405 ,71.8431 ,1.56250 ,-0.46099 ,-4.52323 
406 ,72.0191 ,1.56422 ,-0.48837 ,-4.79185 
407 ,72.2115 ,1.56613 ,-0.47468 ,-4.65754 
408 ,72.3875 ,1.56798 ,-0.49863 ,-4.89259 
409 ,72.5796 ,1.56983 ,-0.50548 ,-4.95975 
410 ,72.7715 ,1.57178 ,-0.53285 ,-5.22837 
411 ,72.9473 ,1.57350 ,-0.52943 ,-5.19479 
412 ,73.1236 ,1.57530 ,-0.53628 ,-5.26195 
413 ,73.3158 ,1.57721 ,-0.57050 ,-5.59773 
414 ,73.5078 ,1.57906 ,-0.56365 ,-5.53058 
415 ,73.6997 ,1.58103 ,-0.59103 ,-5.79920 
416 ,73.8759 ,1.58279 ,-0.60814 ,-5.96709 
417 ,74.0682 ,1.58470 ,-0.59103 ,-5.79920 
418 ,74.2601 ,1.58665 ,-0.61156 ,-6.00067 
419 ,74.4523 ,1.58862 ,-0.63210 ,-6.20214 
420 ,74.6284 ,1.59038 ,-0.63552 ,-6.23572 
421 ,74.8043 ,1.59213 ,-0.63894 ,-6.26930 
422 ,74.9803 ,1.59397 ,-0.65263 ,-6.40361 
423 ,75.1566 ,1.59559 ,-0.67316 ,-6.60508 
424 ,75.3327 ,1.59741 ,-0.68343 ,-6.70582 
425 ,75.5247 ,1.59936 ,-0.66974 ,-6.57150 
426 ,75.7168 ,1.60121 ,-0.69370 ,-6.80655 
427 ,75.8930 ,1.60302 ,-0.70739 ,-6.94086 
428 ,76.0690 ,1.60473 ,-0.70739 ,-6.94086 
429 ,76.2449 ,1.60652 ,-0.70396 ,-6.90729 
430 ,76.4212 ,1.60828 ,-0.71081 ,-6.97444 
431 ,76.6131 ,1.61019 ,-0.72792 ,-7.14233 
432 ,76.8053 ,1.61210 ,-0.72450 ,-7.10876 
433 ,76.9812 ,1.61386 ,-0.74503 ,-7.31023 
434 ,77.1573 ,1.61570 ,-0.76898 ,-7.54527 
435 ,77.3494 ,1.61748 ,-0.77241 ,-7.57885 
436 ,77.5095 ,1.61926 ,-0.76898 ,-7.54527 
437 ,77.6856 ,1.62090 ,-0.78267 ,-7.67959 
438 ,77.8779 ,1.62283 ,-0.80321 ,-7.88106 
439 ,78.0537 ,1.62458 ,-0.82716 ,-8.11611 
440 ,78.2458 ,1.62650 ,-0.81689 ,-8.01537 
441 ,78.4380 ,1.62841 ,-0.84085 ,-8.25042 
442 ,78.6140 ,1.63019 ,-0.85796 ,-8.41831 
443 ,78.8061 ,1.63211 ,-0.84427 ,-8.28400 
444 ,78.9660 ,1.63383 ,-0.84769 ,-8.31758 
445 ,79.1421 ,1.63545 ,-0.87165 ,-8.55262 
446 ,79.3345 ,1.63739 ,-0.89218 ,-8.75409 
447 ,79.5263 ,1.63933 ,-0.89560 ,-8.78767 
448 ,79.7023 ,1.64103 ,-0.89903 ,-8.82125 
449 ,79.8944 ,1.64303 ,-0.91956 ,-9.02272 
450 ,80.0865 ,1.64491 ,-0.93325 ,-9.15703 
451 ,80.2462 ,1.64662 ,-0.92983 ,-9.12345 
452 ,80.4226 ,1.64825 ,-0.92983 ,-9.12345 
453 ,80.5988 ,1.65011 ,-0.96747 ,-9.49282 
454 ,80.7749 ,1.65178 ,-0.96405 ,-9.45924 
455 ,80.9668 ,1.65370 ,-0.95378 ,-9.35850 
456 ,81.1590 ,1.65558 ,-0.98458 ,-9.66071 
457 ,81.3349 ,1.65750 ,-0.99485 ,-9.76144 
458 ,81.5112 ,1.65914 ,-0.99827 ,-9.79502 
459 ,81.7032 ,1.66107 ,-1.00511 ,-9.86218 
460 ,81.8794 ,1.66281 ,-1.01196 ,-9.92933 
461 ,82.0553 ,1.66463 ,-1.04276 ,-10.23154 
462 ,82.2314 ,1.66639 ,-1.03934 ,-10.19796 
463 ,82.3914 ,1.66809 ,-1.04618 ,-10.26512 
