Data stamp = , 30-03-2022 06:05:46 543

Calibration Values: 
Slope = , 26.54 , g/V 
Offset Voltage at no contact = , -0.501760 , V 

No , Time , Stage Position ,   Mass , Force 
   ,  (s) ,      (mm)      ,   (g)  , (mN)  

1 ,0.0000 ,0.84958 ,5.02817 ,49.33637 
2 ,0.2187 ,0.84967 ,5.01106 ,49.16848 
3 ,0.4432 ,0.85027 ,5.02474 ,49.30279 
4 ,0.6192 ,0.85124 ,5.02132 ,49.26921 
5 ,0.8113 ,0.85260 ,5.02474 ,49.30279 
6 ,1.0034 ,0.85435 ,5.02474 ,49.30279 
7 ,1.1794 ,0.85605 ,5.03159 ,49.36995 
8 ,1.3556 ,0.85790 ,5.01790 ,49.23563 
9 ,1.5478 ,0.85981 ,4.99394 ,49.00058 
10 ,1.7237 ,0.86163 ,4.98368 ,48.89985 
11 ,1.9318 ,0.86353 ,4.96657 ,48.73196 
12 ,2.1079 ,0.86544 ,4.96657 ,48.73196 
13 ,2.2998 ,0.86727 ,4.95288 ,48.59764 
14 ,2.4758 ,0.86911 ,4.95288 ,48.59764 
15 ,2.6842 ,0.87112 ,4.92892 ,48.36260 
16 ,2.8600 ,0.87294 ,4.91181 ,48.19471 
17 ,3.0363 ,0.87471 ,4.89812 ,48.06039 
18 ,3.2442 ,0.87666 ,4.87075 ,47.79177 
19 ,3.4203 ,0.87853 ,4.85706 ,47.65745 
20 ,3.5963 ,0.88031 ,4.84679 ,47.55672 
21 ,3.7725 ,0.88203 ,4.84337 ,47.52314 
22 ,3.9645 ,0.88391 ,4.81599 ,47.25451 
23 ,4.1566 ,0.88587 ,4.80573 ,47.15378 
24 ,4.3327 ,0.88765 ,4.78177 ,46.91873 
25 ,4.4928 ,0.88940 ,4.76124 ,46.71726 
26 ,4.6848 ,0.89114 ,4.73728 ,46.48221 
27 ,4.8608 ,0.89296 ,4.73044 ,46.41506 
28 ,5.0370 ,0.89465 ,4.71675 ,46.28074 
29 ,5.2132 ,0.89643 ,4.71333 ,46.24716 
30 ,5.3892 ,0.89822 ,4.68937 ,46.01212 
31 ,5.5813 ,0.90011 ,4.66199 ,45.74349 
32 ,5.7733 ,0.90202 ,4.65173 ,45.64275 
33 ,5.9493 ,0.90377 ,4.62435 ,45.37413 
34 ,6.1256 ,0.90556 ,4.59697 ,45.10550 
35 ,6.3015 ,0.90742 ,4.58328 ,44.97119 
36 ,6.4775 ,0.90915 ,4.56960 ,44.83688 
37 ,6.6696 ,0.91096 ,4.54564 ,44.60183 
38 ,6.8458 ,0.91277 ,4.52511 ,44.40036 
39 ,7.0059 ,0.91449 ,4.52169 ,44.36678 
40 ,7.1820 ,0.91610 ,4.50457 ,44.19889 
41 ,7.3578 ,0.91797 ,4.50457 ,44.19889 
42 ,7.5342 ,0.91964 ,4.48746 ,44.03100 
43 ,7.7263 ,0.92153 ,4.45666 ,43.72879 
44 ,7.9182 ,0.92348 ,4.44640 ,43.62806 
45 ,8.0944 ,0.92524 ,4.44640 ,43.62806 
46 ,8.3025 ,0.92724 ,4.41902 ,43.35943 
47 ,8.4786 ,0.92905 ,4.39849 ,43.15796 
48 ,8.6705 ,0.93103 ,4.38822 ,43.05723 
49 ,8.8465 ,0.93276 ,4.34373 ,42.62071 
50 ,9.0226 ,0.93451 ,4.33004 ,42.48639 
51 ,9.1989 ,0.93632 ,4.33004 ,42.48639 
52 ,9.4067 ,0.93832 ,4.31978 ,42.38566 
53 ,9.5829 ,0.94011 ,4.28556 ,42.04988 
54 ,9.7590 ,0.94186 ,4.28213 ,42.01630 
55 ,9.9511 ,0.94372 ,4.27187 ,41.91556 
56 ,10.1432 ,0.94563 ,4.23765 ,41.57978 
57 ,10.3513 ,0.94786 ,4.23422 ,41.54620 
58 ,10.5433 ,0.94967 ,4.20342 ,41.24400 
59 ,10.7511 ,0.95178 ,4.18631 ,41.07611 
60 ,10.9274 ,0.95358 ,4.15894 ,40.80748 
61 ,11.1037 ,0.95536 ,4.14183 ,40.63959 
62 ,11.2957 ,0.95729 ,4.14183 ,40.63959 
63 ,11.4557 ,0.95898 ,4.12471 ,40.47170 
64 ,11.6318 ,0.96063 ,4.11445 ,40.37096 
65 ,11.8075 ,0.96235 ,4.07338 ,39.96802 
66 ,11.9840 ,0.96416 ,4.05969 ,39.83371 
67 ,12.1761 ,0.96607 ,4.06654 ,39.90087 
68 ,12.3361 ,0.96776 ,4.03916 ,39.63224 
69 ,12.5119 ,0.96936 ,4.02889 ,39.53150 
70 ,12.6883 ,0.97115 ,3.98441 ,39.09499 
71 ,12.8639 ,0.97301 ,3.98441 ,39.09499 
72 ,13.0403 ,0.97467 ,3.95703 ,38.82636 
73 ,13.2325 ,0.97652 ,3.96045 ,38.85994 
74 ,13.4083 ,0.97836 ,3.93307 ,38.59131 
75 ,13.5846 ,0.98012 ,3.89201 ,38.18837 
76 ,13.7607 ,0.98185 ,3.89885 ,38.25553 
77 ,13.9368 ,0.98362 ,3.89201 ,38.18837 
78 ,14.1129 ,0.98544 ,3.86463 ,37.91975 
79 ,14.2888 ,0.98720 ,3.85779 ,37.85259 
80 ,14.4647 ,0.98901 ,3.84410 ,37.71828 
81 ,14.6571 ,0.99073 ,3.80987 ,37.38249 
82 ,14.8333 ,0.99267 ,3.79961 ,37.28176 
83 ,15.0252 ,0.99448 ,3.76196 ,36.91240 
84 ,15.2171 ,0.99639 ,3.77223 ,37.01313 
85 ,15.3935 ,0.99824 ,3.74828 ,36.77808 
86 ,15.5694 ,1.00003 ,3.74143 ,36.71093 
87 ,15.7616 ,1.00187 ,3.70379 ,36.34157 
88 ,15.9375 ,1.00366 ,3.69010 ,36.20725 
89 ,16.1457 ,1.00571 ,3.67641 ,36.07294 
90 ,16.3218 ,1.00752 ,3.64561 ,35.77073 
91 ,16.4977 ,1.00926 ,3.63192 ,35.63642 
92 ,16.6739 ,1.01102 ,3.64219 ,35.73716 
93 ,16.8501 ,1.01274 ,3.61823 ,35.50211 
94 ,17.0262 ,1.01458 ,3.58743 ,35.19990 
95 ,17.2181 ,1.01641 ,3.57717 ,35.09917 
96 ,17.3943 ,1.01822 ,3.56348 ,34.96485 
97 ,17.5704 ,1.02003 ,3.54979 ,34.83054 
98 ,17.7624 ,1.02194 ,3.52584 ,34.59549 
99 ,17.9385 ,1.02370 ,3.50188 ,34.36045 
100 ,18.1143 ,1.02542 ,3.49504 ,34.29329 
101 ,18.3067 ,1.02727 ,3.48477 ,34.19255 
102 ,18.4983 ,1.02922 ,3.47792 ,34.12540 
103 ,18.6906 ,1.03106 ,3.43686 ,33.72246 
104 ,18.8669 ,1.03294 ,3.42659 ,33.62172 
105 ,19.0588 ,1.03484 ,3.40606 ,33.42025 
106 ,19.2349 ,1.03661 ,3.40264 ,33.38667 
107 ,19.4109 ,1.03839 ,3.39921 ,33.35310 
108 ,19.5872 ,1.04013 ,3.37868 ,33.15163 
109 ,19.7632 ,1.04195 ,3.35815 ,32.95016 
110 ,19.9393 ,1.04368 ,3.33762 ,32.74869 
111 ,20.1312 ,1.04556 ,3.32735 ,32.64795 
112 ,20.3074 ,1.04733 ,3.31024 ,32.48006 
113 ,20.4996 ,1.04927 ,3.29655 ,32.34575 
114 ,20.6757 ,1.05104 ,3.28971 ,32.27859 
115 ,20.8514 ,1.05284 ,3.27602 ,32.14428 
116 ,21.0117 ,1.05447 ,3.24864 ,31.87565 
117 ,21.1878 ,1.05615 ,3.24180 ,31.80849 
118 ,21.3478 ,1.05785 ,3.21784 ,31.57345 
119 ,21.5561 ,1.05972 ,3.21442 ,31.53987 
120 ,21.7481 ,1.06174 ,3.20073 ,31.40555 
121 ,21.9240 ,1.06352 ,3.16651 ,31.06977 
122 ,22.1161 ,1.06530 ,3.15282 ,30.93546 
123 ,22.2919 ,1.06718 ,3.14940 ,30.90188 
124 ,22.4684 ,1.06899 ,3.13229 ,30.73399 
125 ,22.6444 ,1.07071 ,3.10491 ,30.46536 
126 ,22.8524 ,1.07270 ,3.11175 ,30.53252 
127 ,23.0285 ,1.07455 ,3.08438 ,30.26389 
128 ,23.2205 ,1.07646 ,3.06042 ,30.02884 
129 ,23.3963 ,1.07818 ,3.06384 ,30.06242 
130 ,23.5567 ,1.07993 ,3.05015 ,29.92811 
131 ,23.7329 ,1.08156 ,3.03304 ,29.76022 
132 ,23.9088 ,1.08339 ,3.02278 ,29.65948 
133 ,24.1009 ,1.08524 ,2.97487 ,29.18939 
134 ,24.2771 ,1.08700 ,2.97487 ,29.18939 
135 ,24.4531 ,1.08877 ,2.97144 ,29.15581 
136 ,24.6292 ,1.09057 ,2.96118 ,29.05507 
137 ,24.8370 ,1.09263 ,2.92353 ,28.68571 
138 ,25.0130 ,1.09435 ,2.91669 ,28.61856 
139 ,25.1891 ,1.09611 ,2.90300 ,28.48424 
140 ,25.3651 ,1.09789 ,2.88931 ,28.34993 
141 ,25.5412 ,1.09973 ,2.87220 ,28.18204 
142 ,25.7177 ,1.10143 ,2.85509 ,28.01415 
143 ,25.9095 ,1.10333 ,2.84825 ,27.94699 
144 ,26.0859 ,1.10510 ,2.82429 ,27.71194 
145 ,26.2619 ,1.10687 ,2.80718 ,27.54405 
146 ,26.4380 ,1.10866 ,2.79349 ,27.40974 
147 ,26.6300 ,1.11058 ,2.79691 ,27.44332 
148 ,26.8062 ,1.11226 ,2.76954 ,27.17469 
149 ,26.9821 ,1.11410 ,2.74900 ,26.97322 
150 ,27.1581 ,1.11592 ,2.73874 ,26.87248 
151 ,27.3344 ,1.11760 ,2.71820 ,26.67101 
152 ,27.5105 ,1.11936 ,2.70794 ,26.57028 
153 ,27.6865 ,1.12109 ,2.69767 ,26.46954 
154 ,27.8625 ,1.12284 ,2.66345 ,26.13376 
155 ,28.0545 ,1.12475 ,2.67372 ,26.23450 
156 ,28.2468 ,1.12662 ,2.63949 ,25.89871 
157 ,28.4388 ,1.12866 ,2.61896 ,25.69724 
158 ,28.6147 ,1.13038 ,2.63265 ,25.83156 
159 ,28.7910 ,1.13214 ,2.60185 ,25.52935 
160 ,28.9670 ,1.13389 ,2.58816 ,25.39504 
161 ,29.1430 ,1.13567 ,2.56078 ,25.12641 
162 ,29.3192 ,1.13743 ,2.54710 ,24.99210 
163 ,29.4949 ,1.13923 ,2.54710 ,24.99210 
164 ,29.6714 ,1.14096 ,2.53341 ,24.85779 
165 ,29.8632 ,1.14288 ,2.50945 ,24.62274 
166 ,30.0394 ,1.14466 ,2.47865 ,24.32053 
167 ,30.2154 ,1.14635 ,2.47865 ,24.32053 
168 ,30.3755 ,1.14807 ,2.46154 ,24.15264 
169 ,30.5516 ,1.14972 ,2.44785 ,24.01833 
170 ,30.7277 ,1.15148 ,2.43416 ,23.88402 
171 ,30.9037 ,1.15328 ,2.42390 ,23.78328 
172 ,31.0958 ,1.15516 ,2.41363 ,23.68255 
173 ,31.2718 ,1.15695 ,2.39652 ,23.51465 
174 ,31.4481 ,1.15870 ,2.38283 ,23.38034 
175 ,31.6401 ,1.16062 ,2.34861 ,23.04456 
176 ,31.8159 ,1.16240 ,2.32808 ,22.84309 
177 ,31.9923 ,1.16416 ,2.32465 ,22.80951 
178 ,32.1842 ,1.16609 ,2.30754 ,22.64162 
179 ,32.3604 ,1.16784 ,2.28701 ,22.44015 
180 ,32.5364 ,1.16959 ,2.26648 ,22.23868 
181 ,32.7444 ,1.17155 ,2.26306 ,22.20510 
182 ,32.9205 ,1.17338 ,2.23910 ,21.97005 
183 ,33.0968 ,1.17514 ,2.22199 ,21.80216 
184 ,33.2728 ,1.17696 ,2.21172 ,21.70143 
185 ,33.4809 ,1.17897 ,2.19461 ,21.53353 
186 ,33.6571 ,1.18077 ,2.17408 ,21.33206 
187 ,33.8331 ,1.18257 ,2.17408 ,21.33206 
188 ,34.0091 ,1.18434 ,2.16723 ,21.26491 
189 ,34.2171 ,1.18638 ,2.13986 ,20.99628 
190 ,34.4093 ,1.18829 ,2.12959 ,20.89555 
191 ,34.5850 ,1.19008 ,2.11248 ,20.72766 
192 ,34.7614 ,1.19186 ,2.08510 ,20.45903 
193 ,34.9532 ,1.19372 ,2.07141 ,20.32472 
194 ,35.1295 ,1.19553 ,2.07484 ,20.35829 
195 ,35.3056 ,1.19725 ,2.04746 ,20.08967 
196 ,35.4656 ,1.19896 ,2.02008 ,19.82104 
197 ,35.6417 ,1.20065 ,2.02350 ,19.85462 
198 ,35.8340 ,1.20254 ,2.01666 ,19.78746 
199 ,36.0256 ,1.20442 ,1.98586 ,19.48526 
200 ,36.2021 ,1.20624 ,1.96533 ,19.28379 
201 ,36.3940 ,1.20815 ,1.95164 ,19.14948 
202 ,36.5701 ,1.20987 ,1.95506 ,19.18305 
203 ,36.7623 ,1.21183 ,1.92768 ,18.91443 
204 ,36.9379 ,1.21358 ,1.90715 ,18.71296 
205 ,37.1143 ,1.21532 ,1.89346 ,18.57864 
206 ,37.2904 ,1.21707 ,1.89346 ,18.57864 
207 ,37.4825 ,1.21894 ,1.86951 ,18.34360 
208 ,37.6583 ,1.22078 ,1.85582 ,18.20928 
209 ,37.8503 ,1.22266 ,1.84897 ,18.14213 
210 ,38.0263 ,1.22443 ,1.83528 ,18.00781 
211 ,38.2023 ,1.22624 ,1.82160 ,17.87350 
212 ,38.3783 ,1.22796 ,1.79080 ,17.57129 
213 ,38.5548 ,1.22973 ,1.77711 ,17.43698 
214 ,38.7468 ,1.23166 ,1.78053 ,17.47056 
215 ,38.9229 ,1.23344 ,1.74973 ,17.16836 
216 ,39.0990 ,1.23516 ,1.72920 ,16.96689 
217 ,39.2591 ,1.23690 ,1.72578 ,16.93331 
218 ,39.4514 ,1.23867 ,1.71893 ,16.86615 
219 ,39.6113 ,1.24042 ,1.71209 ,16.79899 
220 ,39.7873 ,1.24209 ,1.70182 ,16.69826 
221 ,39.9634 ,1.24379 ,1.66760 ,16.36248 
222 ,40.1395 ,1.24563 ,1.66075 ,16.29532 
223 ,40.3156 ,1.24729 ,1.62653 ,15.95954 
224 ,40.4916 ,1.24911 ,1.63680 ,16.06027 
225 ,40.6676 ,1.25087 ,1.61969 ,15.89238 
226 ,40.8598 ,1.25281 ,1.59916 ,15.69091 
227 ,41.0358 ,1.25452 ,1.57520 ,15.45586 
228 ,41.2280 ,1.25644 ,1.58547 ,15.55660 
229 ,41.4200 ,1.25832 ,1.55124 ,15.22081 
230 ,41.5958 ,1.26017 ,1.53756 ,15.08650 
231 ,41.7722 ,1.26191 ,1.53413 ,15.05292 
232 ,41.9481 ,1.26367 ,1.53071 ,15.01934 
233 ,42.1403 ,1.26558 ,1.51360 ,14.85145 
234 ,42.3161 ,1.26734 ,1.48622 ,14.58283 
235 ,42.4925 ,1.26909 ,1.47253 ,14.44851 
236 ,42.6683 ,1.27084 ,1.47253 ,14.44851 
237 ,42.8607 ,1.27280 ,1.45200 ,14.24704 
238 ,43.0363 ,1.27457 ,1.42805 ,14.01199 
239 ,43.2128 ,1.27637 ,1.40751 ,13.81053 
240 ,43.4048 ,1.27822 ,1.42120 ,13.94484 
241 ,43.5649 ,1.27994 ,1.39383 ,13.67621 
242 ,43.7408 ,1.28154 ,1.38698 ,13.60906 
243 ,43.9171 ,1.28335 ,1.35960 ,13.34043 
244 ,44.1251 ,1.28527 ,1.36645 ,13.40759 
245 ,44.3172 ,1.28731 ,1.33223 ,13.07180 
246 ,44.4772 ,1.28908 ,1.31854 ,12.93749 
247 ,44.6535 ,1.29068 ,1.30485 ,12.80318 
248 ,44.8294 ,1.29249 ,1.31169 ,12.87033 
249 ,45.0214 ,1.29430 ,1.29800 ,12.73602 
250 ,45.1976 ,1.29613 ,1.26720 ,12.43381 
251 ,45.3896 ,1.29804 ,1.26378 ,12.40024 
252 ,45.5498 ,1.29976 ,1.26720 ,12.43381 
253 ,45.7418 ,1.30154 ,1.22956 ,12.06445 
254 ,45.9339 ,1.30345 ,1.21587 ,11.93014 
255 ,46.1100 ,1.30530 ,1.19192 ,11.69509 
256 ,46.3181 ,1.30722 ,1.19876 ,11.76225 
257 ,46.4940 ,1.30915 ,1.17481 ,11.52720 
258 ,46.6701 ,1.31091 ,1.17481 ,11.52720 
259 ,46.8620 ,1.31281 ,1.16454 ,11.42647 
260 ,47.0384 ,1.31456 ,1.13716 ,11.15784 
261 ,47.2302 ,1.31641 ,1.13374 ,11.12426 
262 ,47.4224 ,1.31830 ,1.11663 ,10.95637 
263 ,47.5982 ,1.32012 ,1.08583 ,10.65416 
264 ,47.7747 ,1.32190 ,1.07556 ,10.55343 
265 ,47.9666 ,1.32384 ,1.08241 ,10.62059 
266 ,48.1428 ,1.32560 ,1.06530 ,10.45270 
267 ,48.3187 ,1.32731 ,1.03108 ,10.11691 
268 ,48.5110 ,1.32915 ,1.03450 ,10.15049 
269 ,48.6867 ,1.33103 ,1.02081 ,10.01618 
270 ,48.8631 ,1.33275 ,1.00370 ,9.84829 
271 ,49.0551 ,1.33471 ,0.98659 ,9.68039 
272 ,49.2312 ,1.33643 ,0.97290 ,9.54608 
273 ,49.4073 ,1.33820 ,0.96263 ,9.44535 
274 ,49.5834 ,1.33993 ,0.95921 ,9.41177 
275 ,49.7754 ,1.34188 ,0.93183 ,9.14314 
276 ,49.9515 ,1.34369 ,0.91814 ,9.00883 
277 ,50.1277 ,1.34543 ,0.90788 ,8.90809 
278 ,50.3195 ,1.34734 ,0.89761 ,8.80736 
279 ,50.4957 ,1.34908 ,0.88050 ,8.63947 
280 ,50.6717 ,1.35085 ,0.85997 ,8.43800 
281 ,50.8476 ,1.35263 ,0.85312 ,8.37084 
282 ,51.0240 ,1.35439 ,0.85654 ,8.40442 
283 ,51.2000 ,1.35617 ,0.83943 ,8.23653 
284 ,51.3759 ,1.35787 ,0.81206 ,7.96790 
285 ,51.5523 ,1.35968 ,0.79495 ,7.80001 
286 ,51.7282 ,1.36139 ,0.79837 ,7.83359 
287 ,51.9043 ,1.36324 ,0.78126 ,7.66570 
288 ,52.0804 ,1.36500 ,0.76757 ,7.53138 
289 ,52.2725 ,1.36676 ,0.75046 ,7.36349 
290 ,52.4486 ,1.36869 ,0.74019 ,7.26276 
291 ,52.6402 ,1.37051 ,0.73335 ,7.19560 
292 ,52.8167 ,1.37226 ,0.69570 ,6.82624 
293 ,52.9927 ,1.37404 ,0.69913 ,6.85982 
294 ,53.1687 ,1.37586 ,0.68201 ,6.69193 
295 ,53.3450 ,1.37761 ,0.67175 ,6.59119 
296 ,53.5528 ,1.37961 ,0.65806 ,6.45688 
297 ,53.7291 ,1.38140 ,0.65464 ,6.42330 
298 ,53.9208 ,1.38332 ,0.64095 ,6.28899 
299 ,54.0972 ,1.38512 ,0.63068 ,6.18825 
300 ,54.2731 ,1.38685 ,0.61357 ,6.02036 
301 ,54.4494 ,1.38861 ,0.59304 ,5.81889 
302 ,54.6733 ,1.39074 ,0.57593 ,5.65100 
303 ,54.8494 ,1.39262 ,0.55882 ,5.48311 
304 ,55.0251 ,1.39439 ,0.56224 ,5.51668 
305 ,55.2016 ,1.39616 ,0.55539 ,5.44953 
306 ,55.3937 ,1.39801 ,0.53144 ,5.21448 
307 ,55.5857 ,1.39990 ,0.51091 ,5.01301 
308 ,55.7619 ,1.40179 ,0.51433 ,5.04659 
309 ,55.9539 ,1.40367 ,0.49037 ,4.81154 
310 ,56.1136 ,1.40540 ,0.47326 ,4.64365 
311 ,56.2901 ,1.40707 ,0.45615 ,4.47576 
312 ,56.4820 ,1.40893 ,0.48011 ,4.71081 
313 ,56.6580 ,1.41068 ,0.44931 ,4.40860 
314 ,56.8342 ,1.41247 ,0.41851 ,4.10640 
315 ,57.0103 ,1.41427 ,0.39797 ,3.90493 
316 ,57.1863 ,1.41613 ,0.41166 ,4.03924 
317 ,57.3784 ,1.41785 ,0.38429 ,3.77061 
318 ,57.5706 ,1.41975 ,0.38086 ,3.73703 
319 ,57.7627 ,1.42169 ,0.37402 ,3.66988 
320 ,57.9387 ,1.42352 ,0.36033 ,3.53557 
321 ,58.1304 ,1.42542 ,0.34664 ,3.40125 
322 ,58.3064 ,1.42722 ,0.33295 ,3.26694 
323 ,58.4828 ,1.42890 ,0.33295 ,3.26694 
324 ,58.6590 ,1.43069 ,0.31584 ,3.09905 
325 ,58.8511 ,1.43260 ,0.29531 ,2.89758 
326 ,59.0271 ,1.43441 ,0.27820 ,2.72969 
327 ,59.2191 ,1.43623 ,0.27135 ,2.66253 
328 ,59.3953 ,1.43802 ,0.26109 ,2.56179 
329 ,59.5872 ,1.44002 ,0.25082 ,2.46106 
330 ,59.7794 ,1.44190 ,0.22687 ,2.22601 
331 ,59.9556 ,1.44367 ,0.22002 ,2.15885 
332 ,60.1478 ,1.44562 ,0.20633 ,2.02454 
333 ,60.3235 ,1.44731 ,0.20633 ,2.02454 
334 ,60.5155 ,1.44922 ,0.17553 ,1.72234 
335 ,60.6917 ,1.45101 ,0.15500 ,1.52087 
336 ,60.8678 ,1.45278 ,0.17553 ,1.72234 
337 ,61.0598 ,1.45470 ,0.15500 ,1.52087 
338 ,61.2359 ,1.45643 ,0.12420 ,1.21866 
339 ,61.4280 ,1.45839 ,0.13447 ,1.31940 
340 ,61.6040 ,1.46014 ,0.13105 ,1.28582 
341 ,61.7802 ,1.46194 ,0.12078 ,1.18508 
342 ,61.9561 ,1.46365 ,0.10025 ,0.98361 
343 ,62.1323 ,1.46543 ,0.08314 ,0.81572 
344 ,62.3084 ,1.46718 ,0.07971 ,0.78214 
345 ,62.5003 ,1.46906 ,0.06602 ,0.64783 
346 ,62.6927 ,1.47105 ,0.04891 ,0.47994 
347 ,62.8846 ,1.47296 ,0.04891 ,0.47994 
348 ,63.0606 ,1.47474 ,0.04549 ,0.44636 
349 ,63.2367 ,1.47649 ,0.01811 ,0.17773 
350 ,63.3964 ,1.47817 ,0.01127 ,0.11058 
351 ,63.5729 ,1.47984 ,0.00443 ,0.04342 
352 ,63.7809 ,1.48188 ,-0.00926 ,-0.09089 
353 ,63.9731 ,1.48375 ,-0.02980 ,-0.29236 
354 ,64.1490 ,1.48561 ,-0.03322 ,-0.32594 
355 ,64.3412 ,1.48749 ,-0.03322 ,-0.32594 
356 ,64.5172 ,1.48926 ,-0.07086 ,-0.69530 
357 ,64.6932 ,1.49098 ,-0.09140 ,-0.89677 
358 ,64.8690 ,1.49286 ,-0.07428 ,-0.72888 
359 ,65.0454 ,1.49453 ,-0.07428 ,-0.72888 
360 ,65.2213 ,1.49627 ,-0.08797 ,-0.86319 
361 ,65.3975 ,1.49806 ,-0.11193 ,-1.09824 
362 ,65.5735 ,1.49980 ,-0.12219 ,-1.19898 
363 ,65.7496 ,1.50157 ,-0.12219 ,-1.19898 
364 ,65.9258 ,1.50340 ,-0.13246 ,-1.29971 
365 ,66.1336 ,1.50545 ,-0.16326 ,-1.60191 
366 ,66.3099 ,1.50719 ,-0.14615 ,-1.43402 
367 ,66.4860 ,1.50892 ,-0.15984 ,-1.56834 
368 ,66.6620 ,1.51073 ,-0.16668 ,-1.63549 
369 ,66.8541 ,1.51261 ,-0.19748 ,-1.93770 
370 ,67.0302 ,1.51436 ,-0.20433 ,-2.00485 
371 ,67.2063 ,1.51614 ,-0.20090 ,-1.97128 
372 ,67.3824 ,1.51793 ,-0.22144 ,-2.17275 
373 ,67.5583 ,1.51971 ,-0.23513 ,-2.30706 
374 ,67.7346 ,1.52143 ,-0.26250 ,-2.57569 
375 ,67.9265 ,1.52335 ,-0.25224 ,-2.47495 
376 ,68.1027 ,1.52511 ,-0.25908 ,-2.54211 
377 ,68.2948 ,1.52705 ,-0.27961 ,-2.74358 
378 ,68.4707 ,1.52876 ,-0.30357 ,-2.97863 
379 ,68.6466 ,1.53055 ,-0.29673 ,-2.91147 
380 ,68.8229 ,1.53233 ,-0.29673 ,-2.91147 
381 ,68.9992 ,1.53405 ,-0.31726 ,-3.11294 
382 ,69.1910 ,1.53599 ,-0.33779 ,-3.31441 
383 ,69.3671 ,1.53772 ,-0.34121 ,-3.34799 
384 ,69.5433 ,1.53951 ,-0.34464 ,-3.38156 
385 ,69.7190 ,1.54126 ,-0.36859 ,-3.61661 
386 ,69.8955 ,1.54306 ,-0.38228 ,-3.75093 
387 ,70.0713 ,1.54486 ,-0.37544 ,-3.68377 
388 ,70.2475 ,1.54655 ,-0.38570 ,-3.78450 
389 ,70.4236 ,1.54832 ,-0.40623 ,-3.98597 
390 ,70.5996 ,1.55005 ,-0.40623 ,-3.98597 
391 ,70.7754 ,1.55180 ,-0.42677 ,-4.18744 
392 ,70.9518 ,1.55359 ,-0.43703 ,-4.28818 
393 ,71.1437 ,1.55547 ,-0.44388 ,-4.35534 
394 ,71.3360 ,1.55734 ,-0.45757 ,-4.48965 
395 ,71.5279 ,1.55938 ,-0.47468 ,-4.65754 
396 ,71.7040 ,1.56109 ,-0.48152 ,-4.72470 
397 ,71.8801 ,1.56281 ,-0.49863 ,-4.89259 
398 ,72.0562 ,1.56457 ,-0.51232 ,-5.02690 
399 ,72.2323 ,1.56641 ,-0.50890 ,-4.99332 
400 ,72.4085 ,1.56817 ,-0.51232 ,-5.02690 
401 ,72.6164 ,1.57012 ,-0.53628 ,-5.26195 
402 ,72.7925 ,1.57197 ,-0.53970 ,-5.29553 
403 ,72.9686 ,1.57374 ,-0.55339 ,-5.42984 
404 ,73.1607 ,1.57563 ,-0.56708 ,-5.56415 
405 ,73.3204 ,1.57740 ,-0.58419 ,-5.73205 
406 ,73.4804 ,1.57896 ,-0.58419 ,-5.73205 
407 ,73.6405 ,1.58060 ,-0.60130 ,-5.89994 
408 ,73.8009 ,1.58221 ,-0.59788 ,-5.86636 
409 ,73.9769 ,1.58382 ,-0.62183 ,-6.10141 
410 ,74.1531 ,1.58557 ,-0.62525 ,-6.13499 
411 ,74.3292 ,1.58732 ,-0.60814 ,-5.96709 
412 ,74.5053 ,1.58910 ,-0.63210 ,-6.20214 
413 ,74.6809 ,1.59089 ,-0.64921 ,-6.37003 
414 ,74.8574 ,1.59261 ,-0.66290 ,-6.50435 
415 ,75.0334 ,1.59436 ,-0.66974 ,-6.57150 
416 ,75.1935 ,1.59611 ,-0.66632 ,-6.53793 
417 ,75.3695 ,1.59770 ,-0.67316 ,-6.60508 
418 ,75.5457 ,1.59952 ,-0.68685 ,-6.73940 
419 ,75.7057 ,1.60120 ,-0.70396 ,-6.90729 
420 ,75.8818 ,1.60285 ,-0.72792 ,-7.14233 
421 ,76.0578 ,1.60462 ,-0.73818 ,-7.24307 
422 ,76.2340 ,1.60633 ,-0.72450 ,-7.10876 
423 ,76.4260 ,1.60819 ,-0.73134 ,-7.17591 
424 ,76.6020 ,1.61006 ,-0.75187 ,-7.37738 
425 ,76.7782 ,1.61181 ,-0.76898 ,-7.54527 
426 ,76.9541 ,1.61362 ,-0.79636 ,-7.81390 
427 ,77.1302 ,1.61531 ,-0.77583 ,-7.61243 
428 ,77.3064 ,1.61711 ,-0.79636 ,-7.81390 
429 ,77.4984 ,1.61901 ,-0.81347 ,-7.98179 
430 ,77.6745 ,1.62080 ,-0.81689 ,-8.01537 
431 ,77.8667 ,1.62273 ,-0.80663 ,-7.91464 
432 ,78.0588 ,1.62464 ,-0.84085 ,-8.25042 
433 ,78.2668 ,1.62668 ,-0.82716 ,-8.11611 
434 ,78.4429 ,1.62853 ,-0.86138 ,-8.45189 
435 ,78.6190 ,1.63025 ,-0.87165 ,-8.55262 
436 ,78.7951 ,1.63200 ,-0.88534 ,-8.68694 
437 ,78.9870 ,1.63388 ,-0.88192 ,-8.65336 
438 ,79.1630 ,1.63563 ,-0.90929 ,-8.92198 
439 ,79.3553 ,1.63751 ,-0.90245 ,-8.85483 
440 ,79.5474 ,1.63952 ,-0.90929 ,-8.92198 
441 ,79.7231 ,1.64124 ,-0.94009 ,-9.22419 
442 ,79.8996 ,1.64300 ,-0.94351 ,-9.25777 
443 ,80.0755 ,1.64479 ,-0.94351 ,-9.25777 
444 ,80.2512 ,1.64653 ,-0.95720 ,-9.39208 
445 ,80.4275 ,1.64834 ,-0.95378 ,-9.35850 
446 ,80.6196 ,1.65022 ,-0.98800 ,-9.69429 
447 ,80.7957 ,1.65199 ,-0.99485 ,-9.76144 
448 ,80.9879 ,1.65395 ,-0.99485 ,-9.76144 
449 ,81.1639 ,1.65570 ,-1.00511 ,-9.86218 
450 ,81.3558 ,1.65755 ,-1.01880 ,-9.99649 
451 ,81.5320 ,1.65931 ,-1.01538 ,-9.96291 
452 ,81.7083 ,1.66107 ,-1.02907 ,-10.09723 
453 ,81.8843 ,1.66288 ,-1.04618 ,-10.26512 
454 ,82.0603 ,1.66463 ,-1.05302 ,-10.33227 
455 ,82.2365 ,1.66641 ,-1.05645 ,-10.36585 
456 ,82.4125 ,1.66816 ,-1.06329 ,-10.43301 
457 ,82.5884 ,1.66992 ,-1.06329 ,-10.43301 
458 ,82.7646 ,1.67169 ,-1.09067 ,-10.70163 
459 ,82.9407 ,1.67348 ,-1.10436 ,-10.83595 
460 ,83.1165 ,1.67523 ,-1.10436 ,-10.83595 
461 ,83.2928 ,1.67693 ,-1.09409 ,-10.73521 
462 ,83.4529 ,1.67865 ,-1.11120 ,-10.90310 
