Data stamp = , 29-03-2022 22:43:02 553

Calibration Values: 
Slope = , 26.54 , g/V 
Offset Voltage at no contact = , -0.501760 , V 

No , Time , Stage Position ,   Mass , Force 
   ,  (s) ,      (mm)      ,   (g)  , (mN)  

1 ,0.0000 ,0.84946 ,5.02474 ,49.30279 
2 ,0.2162 ,0.84955 ,5.01448 ,49.20205 
3 ,0.5365 ,0.85038 ,5.03501 ,49.40352 
4 ,0.7124 ,0.85172 ,5.01790 ,49.23563 
5 ,0.8885 ,0.85317 ,5.03501 ,49.40352 
6 ,1.0648 ,0.85486 ,5.02817 ,49.33637 
7 ,1.2246 ,0.85652 ,5.02817 ,49.33637 
8 ,1.4007 ,0.85815 ,5.03159 ,49.36995 
9 ,1.5769 ,0.85997 ,5.00763 ,49.13490 
10 ,1.7530 ,0.86178 ,4.98710 ,48.93343 
11 ,1.9449 ,0.86367 ,4.98026 ,48.86627 
12 ,2.1210 ,0.86548 ,4.96657 ,48.73196 
13 ,2.2969 ,0.86720 ,4.92892 ,48.36260 
14 ,2.4731 ,0.86898 ,4.92208 ,48.29544 
15 ,2.6492 ,0.87073 ,4.91866 ,48.26186 
16 ,2.8574 ,0.87271 ,4.90155 ,48.09397 
17 ,3.0495 ,0.87472 ,4.88786 ,47.95966 
18 ,3.2417 ,0.87662 ,4.86732 ,47.75819 
19 ,3.4176 ,0.87841 ,4.85706 ,47.65745 
20 ,3.5937 ,0.88020 ,4.82284 ,47.32167 
21 ,3.7858 ,0.88210 ,4.82284 ,47.32167 
22 ,3.9619 ,0.88386 ,4.80915 ,47.18736 
23 ,4.1380 ,0.88558 ,4.78861 ,46.98589 
24 ,4.3301 ,0.88753 ,4.75782 ,46.68368 
25 ,4.5060 ,0.88930 ,4.75782 ,46.68368 
26 ,4.6821 ,0.89106 ,4.74755 ,46.58295 
27 ,4.8582 ,0.89278 ,4.72017 ,46.31432 
28 ,5.0503 ,0.89466 ,4.70990 ,46.21359 
29 ,5.2264 ,0.89648 ,4.69279 ,46.04569 
30 ,5.4025 ,0.89826 ,4.67911 ,45.91138 
31 ,5.5784 ,0.90003 ,4.65515 ,45.67633 
32 ,5.7546 ,0.90178 ,4.62093 ,45.34055 
33 ,5.9465 ,0.90368 ,4.62777 ,45.40771 
34 ,6.1227 ,0.90546 ,4.61066 ,45.23981 
35 ,6.3148 ,0.90739 ,4.57986 ,44.93761 
36 ,6.4909 ,0.90917 ,4.54564 ,44.60183 
37 ,6.6509 ,0.91089 ,4.53880 ,44.53467 
38 ,6.8271 ,0.91247 ,4.53537 ,44.50109 
39 ,7.0031 ,0.91424 ,4.52169 ,44.36678 
40 ,7.1790 ,0.91594 ,4.49431 ,44.09815 
41 ,7.3553 ,0.91772 ,4.46693 ,43.82953 
42 ,7.5473 ,0.91962 ,4.45666 ,43.72879 
43 ,7.7233 ,0.92145 ,4.45666 ,43.72879 
44 ,7.8995 ,0.92323 ,4.42244 ,43.39301 
45 ,8.0755 ,0.92497 ,4.40533 ,43.22512 
46 ,8.2516 ,0.92668 ,4.38138 ,42.99007 
47 ,8.4437 ,0.92862 ,4.37795 ,42.95649 
48 ,8.6199 ,0.93040 ,4.36427 ,42.82218 
49 ,8.8118 ,0.93231 ,4.32662 ,42.45282 
50 ,8.9883 ,0.93410 ,4.30267 ,42.21777 
51 ,9.1644 ,0.93585 ,4.30609 ,42.25135 
52 ,9.3563 ,0.93778 ,4.27871 ,41.98272 
53 ,9.5325 ,0.93954 ,4.25476 ,41.74767 
54 ,9.7085 ,0.94130 ,4.24107 ,41.61336 
55 ,9.8844 ,0.94310 ,4.23080 ,41.51262 
56 ,10.0606 ,0.94492 ,4.21369 ,41.34473 
57 ,10.2366 ,0.94660 ,4.20342 ,41.24400 
58 ,10.4128 ,0.94834 ,4.17605 ,40.97537 
59 ,10.5889 ,0.95008 ,4.16236 ,40.84106 
60 ,10.7649 ,0.95186 ,4.14183 ,40.63959 
61 ,10.9409 ,0.95364 ,4.13840 ,40.60601 
62 ,11.1171 ,0.95544 ,4.12129 ,40.43812 
63 ,11.3092 ,0.95729 ,4.09049 ,40.13591 
64 ,11.4853 ,0.95903 ,4.08707 ,40.10233 
65 ,11.6615 ,0.96086 ,4.07338 ,39.96802 
66 ,11.8372 ,0.96257 ,4.04943 ,39.73297 
67 ,12.0131 ,0.96433 ,4.02547 ,39.49793 
68 ,12.1896 ,0.96608 ,4.00494 ,39.29646 
69 ,12.3816 ,0.96804 ,4.00152 ,39.26288 
70 ,12.5576 ,0.96973 ,3.97756 ,39.02783 
71 ,12.7336 ,0.97152 ,3.95361 ,38.79278 
72 ,12.9259 ,0.97340 ,3.93992 ,38.65847 
73 ,13.0855 ,0.97516 ,3.92623 ,38.52415 
74 ,13.2620 ,0.97678 ,3.92281 ,38.49058 
75 ,13.4380 ,0.97857 ,3.91596 ,38.42342 
76 ,13.6301 ,0.98043 ,3.88858 ,38.15479 
77 ,13.8062 ,0.98226 ,3.86121 ,37.88617 
78 ,13.9820 ,0.98405 ,3.85094 ,37.78543 
79 ,14.1580 ,0.98579 ,3.84752 ,37.75185 
80 ,14.3343 ,0.98751 ,3.81330 ,37.41607 
81 ,14.5103 ,0.98930 ,3.80303 ,37.31534 
82 ,14.7184 ,0.99133 ,3.78934 ,37.18102 
83 ,14.8947 ,0.99316 ,3.77223 ,37.01313 
84 ,15.0866 ,0.99506 ,3.74143 ,36.71093 
85 ,15.2628 ,0.99679 ,3.73801 ,36.67735 
86 ,15.4388 ,0.99854 ,3.71405 ,36.44230 
87 ,15.6148 ,1.00035 ,3.70379 ,36.34157 
88 ,15.7910 ,1.00207 ,3.68325 ,36.14010 
89 ,15.9672 ,1.00388 ,3.66614 ,35.97220 
90 ,16.1431 ,1.00566 ,3.65930 ,35.90505 
91 ,16.3190 ,1.00745 ,3.64903 ,35.80431 
92 ,16.4952 ,1.00910 ,3.61823 ,35.50211 
93 ,16.6711 ,1.01092 ,3.60797 ,35.40137 
94 ,16.8795 ,1.01287 ,3.59086 ,35.23348 
95 ,17.0712 ,1.01490 ,3.56690 ,34.99843 
96 ,17.2476 ,1.01660 ,3.53952 ,34.72981 
97 ,17.4236 ,1.01838 ,3.53268 ,34.66265 
98 ,17.6158 ,1.02033 ,3.53268 ,34.66265 
99 ,17.8078 ,1.02224 ,3.49504 ,34.29329 
100 ,17.9999 ,1.02415 ,3.50530 ,34.39402 
101 ,18.1919 ,1.02610 ,3.47450 ,34.09182 
102 ,18.3678 ,1.02781 ,3.45397 ,33.89035 
103 ,18.5440 ,1.02960 ,3.42659 ,33.62172 
104 ,18.7201 ,1.03138 ,3.44028 ,33.75604 
105 ,18.8963 ,1.03319 ,3.41633 ,33.52099 
106 ,19.0721 ,1.03492 ,3.40264 ,33.38667 
107 ,19.2644 ,1.03682 ,3.36499 ,33.01731 
108 ,19.4401 ,1.03854 ,3.35815 ,32.95016 
109 ,19.6165 ,1.04035 ,3.34446 ,32.81584 
110 ,19.8403 ,1.04249 ,3.33762 ,32.74869 
111 ,20.0167 ,1.04434 ,3.32735 ,32.64795 
112 ,20.1928 ,1.04616 ,3.29997 ,32.37933 
113 ,20.3690 ,1.04788 ,3.27259 ,32.11070 
114 ,20.5609 ,1.04972 ,3.27944 ,32.17786 
115 ,20.7365 ,1.05155 ,3.26575 ,32.04354 
116 ,20.9128 ,1.05330 ,3.23495 ,31.74134 
117 ,21.1047 ,1.05517 ,3.20757 ,31.47271 
118 ,21.2811 ,1.05695 ,3.20415 ,31.43913 
119 ,21.4733 ,1.05887 ,3.18704 ,31.27124 
120 ,21.6653 ,1.06081 ,3.15624 ,30.96904 
121 ,21.8574 ,1.06273 ,3.16309 ,31.03619 
122 ,22.0495 ,1.06467 ,3.13571 ,30.76757 
123 ,22.2255 ,1.06645 ,3.11860 ,30.59968 
124 ,22.4017 ,1.06818 ,3.10833 ,30.49894 
125 ,22.5933 ,1.07006 ,3.10149 ,30.43178 
126 ,22.7534 ,1.07181 ,3.08095 ,30.23031 
127 ,22.9299 ,1.07339 ,3.06042 ,30.02884 
128 ,23.1219 ,1.07538 ,3.03647 ,29.79380 
129 ,23.2980 ,1.07712 ,3.02620 ,29.69306 
130 ,23.4741 ,1.07890 ,3.01935 ,29.62590 
131 ,23.6499 ,1.08065 ,3.00909 ,29.52517 
132 ,23.8262 ,1.08240 ,2.97144 ,29.15581 
133 ,24.0179 ,1.08433 ,2.95776 ,29.02150 
134 ,24.1944 ,1.08608 ,2.95091 ,28.95434 
135 ,24.3864 ,1.08804 ,2.93038 ,28.75287 
136 ,24.5627 ,1.08981 ,2.90985 ,28.55140 
137 ,24.7386 ,1.09153 ,2.90300 ,28.48424 
138 ,24.9147 ,1.09330 ,2.89958 ,28.45066 
139 ,25.0904 ,1.09503 ,2.88247 ,28.28277 
140 ,25.2668 ,1.09680 ,2.85851 ,28.04772 
141 ,25.4428 ,1.09855 ,2.83456 ,27.81268 
142 ,25.6350 ,1.10037 ,2.83114 ,27.77910 
143 ,25.8270 ,1.10244 ,2.81060 ,27.57763 
144 ,26.0032 ,1.10417 ,2.78665 ,27.34258 
145 ,26.1793 ,1.10594 ,2.77980 ,27.27542 
146 ,26.3552 ,1.10771 ,2.77638 ,27.24185 
147 ,26.5473 ,1.10962 ,2.75243 ,27.00680 
148 ,26.7235 ,1.11136 ,2.72847 ,26.77175 
149 ,26.9155 ,1.11331 ,2.71820 ,26.67101 
150 ,27.1075 ,1.11521 ,2.70452 ,26.53670 
151 ,27.2836 ,1.11695 ,2.68056 ,26.30165 
152 ,27.4916 ,1.11895 ,2.67714 ,26.26807 
153 ,27.6681 ,1.12076 ,2.65318 ,26.03303 
154 ,27.8436 ,1.12257 ,2.63607 ,25.86514 
155 ,28.0360 ,1.12442 ,2.64292 ,25.93229 
156 ,28.2600 ,1.12656 ,2.61212 ,25.63009 
157 ,28.4361 ,1.12850 ,2.60185 ,25.52935 
158 ,28.6122 ,1.13032 ,2.58132 ,25.32788 
159 ,28.8043 ,1.13216 ,2.54710 ,24.99210 
160 ,28.9643 ,1.13386 ,2.54025 ,24.92494 
161 ,29.1404 ,1.13555 ,2.52998 ,24.82421 
162 ,29.3325 ,1.13732 ,2.52656 ,24.79063 
163 ,29.5245 ,1.13934 ,2.49576 ,24.48842 
164 ,29.7003 ,1.14111 ,2.47181 ,24.25338 
165 ,29.8767 ,1.14288 ,2.47181 ,24.25338 
166 ,30.0368 ,1.14462 ,2.46496 ,24.18622 
167 ,30.2130 ,1.14625 ,2.47523 ,24.28696 
168 ,30.3890 ,1.14801 ,2.43759 ,23.91759 
169 ,30.5651 ,1.14981 ,2.40679 ,23.61539 
170 ,30.7412 ,1.15154 ,2.39310 ,23.48108 
171 ,30.9171 ,1.15335 ,2.39310 ,23.48108 
172 ,31.1093 ,1.15520 ,2.38283 ,23.38034 
173 ,31.2853 ,1.15701 ,2.34861 ,23.04456 
174 ,31.4613 ,1.15876 ,2.33150 ,22.87667 
175 ,31.6374 ,1.16048 ,2.32465 ,22.80951 
176 ,31.8295 ,1.16230 ,2.31097 ,22.67520 
177 ,32.0052 ,1.16416 ,2.29385 ,22.50731 
178 ,32.1817 ,1.16594 ,2.28359 ,22.40657 
179 ,32.3738 ,1.16790 ,2.28701 ,22.44015 
180 ,32.5498 ,1.16964 ,2.26306 ,22.20510 
181 ,32.7259 ,1.17135 ,2.22541 ,21.83574 
182 ,32.9019 ,1.17311 ,2.22541 ,21.83574 
183 ,33.0779 ,1.17488 ,2.20488 ,21.63427 
184 ,33.2539 ,1.17668 ,2.19119 ,21.49996 
185 ,33.4302 ,1.17843 ,2.19119 ,21.49996 
186 ,33.6063 ,1.18021 ,2.17066 ,21.29849 
187 ,33.7981 ,1.18208 ,2.13986 ,20.99628 
188 ,33.9742 ,1.18384 ,2.13986 ,20.99628 
189 ,34.1501 ,1.18563 ,2.11590 ,20.76123 
190 ,34.3426 ,1.18747 ,2.10221 ,20.62692 
191 ,34.5506 ,1.18956 ,2.08852 ,20.49261 
192 ,34.7266 ,1.19133 ,2.07484 ,20.35829 
193 ,34.9023 ,1.19310 ,2.03377 ,19.95535 
194 ,35.0785 ,1.19488 ,2.03719 ,19.98893 
195 ,35.2383 ,1.19664 ,2.02350 ,19.85462 
196 ,35.4148 ,1.19827 ,2.00982 ,19.72031 
197 ,35.6229 ,1.20031 ,1.99613 ,19.58599 
198 ,35.7992 ,1.20209 ,1.97217 ,19.35094 
199 ,35.9752 ,1.20388 ,1.97217 ,19.35094 
200 ,36.1512 ,1.20560 ,1.96190 ,19.25021 
201 ,36.3113 ,1.20731 ,1.94822 ,19.11590 
202 ,36.4875 ,1.20897 ,1.93795 ,19.01516 
203 ,36.6633 ,1.21073 ,1.91399 ,18.78011 
204 ,36.8556 ,1.21260 ,1.90715 ,18.71296 
205 ,37.0315 ,1.21444 ,1.90373 ,18.67938 
206 ,37.2077 ,1.21620 ,1.87293 ,18.37717 
207 ,37.3677 ,1.21789 ,1.85582 ,18.20928 
208 ,37.5439 ,1.21952 ,1.83871 ,18.04139 
209 ,37.7199 ,1.22132 ,1.83871 ,18.04139 
210 ,37.9117 ,1.22327 ,1.82160 ,17.87350 
211 ,38.0881 ,1.22497 ,1.80791 ,17.73919 
212 ,38.2642 ,1.22680 ,1.79422 ,17.60487 
213 ,38.4402 ,1.22847 ,1.76684 ,17.33625 
214 ,38.6163 ,1.23028 ,1.74289 ,17.10120 
215 ,38.7923 ,1.23198 ,1.75315 ,17.20193 
216 ,38.9684 ,1.23375 ,1.74289 ,17.10120 
217 ,39.1446 ,1.23550 ,1.71551 ,16.83257 
218 ,39.3525 ,1.23755 ,1.70866 ,16.76542 
219 ,39.5448 ,1.23942 ,1.70182 ,16.69826 
220 ,39.7367 ,1.24146 ,1.67102 ,16.39605 
221 ,39.9128 ,1.24318 ,1.66075 ,16.29532 
222 ,40.1049 ,1.24515 ,1.65049 ,16.19458 
223 ,40.2808 ,1.24691 ,1.62995 ,15.99311 
224 ,40.4727 ,1.24878 ,1.61284 ,15.82522 
225 ,40.6491 ,1.25057 ,1.60258 ,15.72449 
226 ,40.8252 ,1.25233 ,1.58889 ,15.59018 
227 ,41.0013 ,1.25410 ,1.57178 ,15.42228 
228 ,41.1772 ,1.25587 ,1.55809 ,15.28797 
229 ,41.3692 ,1.25774 ,1.56151 ,15.32155 
230 ,41.5451 ,1.25949 ,1.54098 ,15.12008 
231 ,41.7216 ,1.26127 ,1.51702 ,14.88503 
232 ,41.9137 ,1.26319 ,1.51702 ,14.88503 
233 ,42.1057 ,1.26503 ,1.48965 ,14.61640 
234 ,42.2979 ,1.26701 ,1.47253 ,14.44851 
235 ,42.4739 ,1.26883 ,1.44174 ,14.14631 
236 ,42.6499 ,1.27054 ,1.44858 ,14.21346 
237 ,42.8260 ,1.27229 ,1.44858 ,14.21346 
238 ,43.0181 ,1.27422 ,1.41436 ,13.87768 
239 ,43.1941 ,1.27600 ,1.40751 ,13.81053 
240 ,43.3702 ,1.27777 ,1.40067 ,13.74337 
241 ,43.5462 ,1.27949 ,1.38698 ,13.60906 
242 ,43.7224 ,1.28129 ,1.36303 ,13.37401 
243 ,43.9144 ,1.28317 ,1.34591 ,13.20612 
244 ,44.0905 ,1.28494 ,1.33907 ,13.13896 
245 ,44.2667 ,1.28672 ,1.33223 ,13.07180 
246 ,44.4585 ,1.28863 ,1.31512 ,12.90391 
247 ,44.6348 ,1.29043 ,1.28774 ,12.63528 
248 ,44.8267 ,1.29236 ,1.29116 ,12.66886 
249 ,45.0189 ,1.29431 ,1.27063 ,12.46739 
250 ,45.2109 ,1.29615 ,1.26036 ,12.36666 
251 ,45.3871 ,1.29797 ,1.25352 ,12.29950 
252 ,45.5790 ,1.29979 ,1.21245 ,11.89656 
253 ,45.7552 ,1.30168 ,1.21929 ,11.96372 
254 ,45.9311 ,1.30333 ,1.19876 ,11.76225 
255 ,46.1074 ,1.30515 ,1.18850 ,11.66151 
256 ,46.2992 ,1.30699 ,1.17138 ,11.49362 
257 ,46.4915 ,1.30890 ,1.15770 ,11.35931 
258 ,46.6676 ,1.31082 ,1.15085 ,11.29215 
259 ,46.8436 ,1.31247 ,1.13374 ,11.12426 
260 ,47.0517 ,1.31448 ,1.10294 ,10.82206 
261 ,47.2438 ,1.31639 ,1.10294 ,10.82206 
262 ,47.4198 ,1.31826 ,1.07556 ,10.55343 
263 ,47.5959 ,1.32004 ,1.06872 ,10.48627 
264 ,47.7721 ,1.32181 ,1.05845 ,10.38554 
265 ,47.9643 ,1.32372 ,1.05845 ,10.38554 
266 ,48.1562 ,1.32562 ,1.01739 ,9.98260 
267 ,48.3320 ,1.32735 ,1.01054 ,9.91544 
268 ,48.5084 ,1.32916 ,1.00028 ,9.81471 
269 ,48.6842 ,1.33095 ,0.97974 ,9.61324 
270 ,48.8604 ,1.33270 ,0.98317 ,9.64682 
271 ,49.0685 ,1.33455 ,0.95921 ,9.41177 
272 ,49.2766 ,1.33671 ,0.93183 ,9.14314 
273 ,49.4527 ,1.33859 ,0.92499 ,9.07598 
274 ,49.6288 ,1.34031 ,0.91814 ,9.00883 
275 ,49.8047 ,1.34207 ,0.92499 ,9.07598 
276 ,49.9809 ,1.34384 ,0.88392 ,8.67305 
277 ,50.1570 ,1.34560 ,0.87023 ,8.53873 
278 ,50.3331 ,1.34738 ,0.86339 ,8.47158 
279 ,50.5092 ,1.34917 ,0.85312 ,8.37084 
280 ,50.6853 ,1.35092 ,0.84628 ,8.30368 
281 ,50.8614 ,1.35271 ,0.83943 ,8.23653 
282 ,51.0372 ,1.35448 ,0.80521 ,7.90074 
283 ,51.2134 ,1.35617 ,0.79152 ,7.76643 
284 ,51.3894 ,1.35792 ,0.79495 ,7.80001 
285 ,51.5656 ,1.35967 ,0.78468 ,7.69927 
286 ,51.7417 ,1.36147 ,0.77099 ,7.56496 
287 ,51.9177 ,1.36330 ,0.72992 ,7.16202 
288 ,52.0937 ,1.36496 ,0.72992 ,7.16202 
289 ,52.2699 ,1.36671 ,0.72650 ,7.12844 
290 ,52.4460 ,1.36851 ,0.71281 ,6.99413 
291 ,52.6056 ,1.37018 ,0.70597 ,6.92697 
292 ,52.7818 ,1.37184 ,0.69570 ,6.82624 
293 ,52.9579 ,1.37366 ,0.67859 ,6.65835 
294 ,53.1178 ,1.37532 ,0.66490 ,6.52403 
295 ,53.2942 ,1.37692 ,0.63753 ,6.25541 
296 ,53.4863 ,1.37889 ,0.63410 ,6.22183 
297 ,53.6624 ,1.38064 ,0.63410 ,6.22183 
298 ,53.8546 ,1.38252 ,0.61357 ,6.02036 
299 ,54.0466 ,1.38449 ,0.60330 ,5.91962 
300 ,54.2225 ,1.38622 ,0.60330 ,5.91962 
301 ,54.4148 ,1.38812 ,0.56908 ,5.58384 
302 ,54.5909 ,1.38994 ,0.54171 ,5.31522 
303 ,54.7829 ,1.39183 ,0.55197 ,5.41595 
304 ,54.9590 ,1.39361 ,0.55539 ,5.44953 
305 ,55.1349 ,1.39536 ,0.51775 ,5.08017 
306 ,55.3112 ,1.39713 ,0.50406 ,4.94585 
307 ,55.4872 ,1.39895 ,0.48695 ,4.77796 
308 ,55.6794 ,1.40080 ,0.48695 ,4.77796 
309 ,55.8555 ,1.40259 ,0.48353 ,4.74438 
310 ,56.0474 ,1.40452 ,0.45273 ,4.44218 
311 ,56.2234 ,1.40629 ,0.44931 ,4.40860 
312 ,56.4154 ,1.40813 ,0.43562 ,4.27429 
313 ,56.6072 ,1.41017 ,0.43904 ,4.30787 
314 ,56.7836 ,1.41186 ,0.41851 ,4.10640 
315 ,56.9600 ,1.41364 ,0.40140 ,3.93850 
316 ,57.1358 ,1.41537 ,0.37402 ,3.66988 
317 ,57.3117 ,1.41708 ,0.36375 ,3.56914 
318 ,57.4877 ,1.41887 ,0.34664 ,3.40125 
319 ,57.6641 ,1.42062 ,0.34664 ,3.40125 
320 ,57.8401 ,1.42249 ,0.33638 ,3.30052 
321 ,58.0163 ,1.42421 ,0.33295 ,3.26694 
322 ,58.1922 ,1.42590 ,0.30215 ,2.96473 
323 ,58.3680 ,1.42768 ,0.30900 ,3.03189 
324 ,58.5444 ,1.42943 ,0.29873 ,2.93116 
325 ,58.7363 ,1.43139 ,0.27478 ,2.69611 
326 ,58.9122 ,1.43314 ,0.26793 ,2.62895 
327 ,59.0886 ,1.43492 ,0.24740 ,2.42748 
328 ,59.2648 ,1.43663 ,0.24740 ,2.42748 
329 ,59.4409 ,1.43840 ,0.23371 ,2.29317 
330 ,59.6169 ,1.44014 ,0.21318 ,2.09170 
331 ,59.7931 ,1.44193 ,0.20633 ,2.02454 
332 ,59.9693 ,1.44369 ,0.17553 ,1.72234 
333 ,60.1612 ,1.44560 ,0.19607 ,1.92381 
334 ,60.3371 ,1.44737 ,0.16527 ,1.62160 
335 ,60.5133 ,1.44926 ,0.15500 ,1.52087 
336 ,60.7210 ,1.45110 ,0.14816 ,1.45371 
337 ,60.8973 ,1.45295 ,0.15500 ,1.52087 
338 ,61.0735 ,1.45474 ,0.12420 ,1.21866 
339 ,61.2656 ,1.45664 ,0.12762 ,1.25224 
340 ,61.4415 ,1.45840 ,0.11393 ,1.11793 
341 ,61.6338 ,1.46025 ,0.07971 ,0.78214 
342 ,61.8097 ,1.46215 ,0.07287 ,0.71499 
343 ,61.9859 ,1.46387 ,0.05576 ,0.54710 
344 ,62.1779 ,1.46578 ,0.06602 ,0.64783 
345 ,62.3696 ,1.46764 ,0.03865 ,0.37920 
346 ,62.5456 ,1.46946 ,0.03522 ,0.34563 
347 ,62.7219 ,1.47120 ,0.03522 ,0.34563 
348 ,62.9141 ,1.47306 ,0.02154 ,0.21131 
349 ,63.1384 ,1.47528 ,0.00785 ,0.07700 
350 ,63.3144 ,1.47715 ,-0.01611 ,-0.15805 
351 ,63.4744 ,1.47885 ,-0.02980 ,-0.29236 
352 ,63.6505 ,1.48064 ,-0.04006 ,-0.39310 
353 ,63.8265 ,1.48225 ,-0.05375 ,-0.52741 
354 ,64.0187 ,1.48407 ,-0.04348 ,-0.42667 
355 ,64.2107 ,1.48609 ,-0.08113 ,-0.79604 
356 ,64.3868 ,1.48783 ,-0.08455 ,-0.82961 
357 ,64.5631 ,1.48967 ,-0.08797 ,-0.86319 
358 ,64.7548 ,1.49146 ,-0.10508 ,-1.03108 
359 ,64.9471 ,1.49340 ,-0.12219 ,-1.19898 
360 ,65.1233 ,1.49523 ,-0.12562 ,-1.23255 
361 ,65.3151 ,1.49708 ,-0.13931 ,-1.36687 
362 ,65.4913 ,1.49899 ,-0.15642 ,-1.53476 
363 ,65.6673 ,1.50064 ,-0.16668 ,-1.63549 
364 ,65.8435 ,1.50239 ,-0.16668 ,-1.63549 
365 ,66.0196 ,1.50421 ,-0.15984 ,-1.56834 
366 ,66.2117 ,1.50606 ,-0.20090 ,-1.97128 
367 ,66.3877 ,1.50790 ,-0.20775 ,-2.03843 
368 ,66.5636 ,1.50961 ,-0.20775 ,-2.03843 
369 ,66.7557 ,1.51147 ,-0.22144 ,-2.17275 
370 ,66.9477 ,1.51338 ,-0.24197 ,-2.37422 
371 ,67.1400 ,1.51535 ,-0.24539 ,-2.40779 
372 ,67.3161 ,1.51711 ,-0.24881 ,-2.44137 
373 ,67.5082 ,1.51909 ,-0.27619 ,-2.71000 
374 ,67.6841 ,1.52084 ,-0.27619 ,-2.71000 
375 ,67.8599 ,1.52262 ,-0.27277 ,-2.67642 
376 ,68.0364 ,1.52433 ,-0.28304 ,-2.77716 
377 ,68.2285 ,1.52616 ,-0.30015 ,-2.94505 
378 ,68.4206 ,1.52816 ,-0.31726 ,-3.11294 
379 ,68.5966 ,1.52991 ,-0.31726 ,-3.11294 
380 ,68.7886 ,1.53176 ,-0.32752 ,-3.21367 
381 ,68.9803 ,1.53379 ,-0.34806 ,-3.41514 
382 ,69.1566 ,1.53558 ,-0.34806 ,-3.41514 
383 ,69.3489 ,1.53747 ,-0.39597 ,-3.88524 
384 ,69.5408 ,1.53940 ,-0.38228 ,-3.75093 
385 ,69.7329 ,1.54132 ,-0.40623 ,-3.98597 
386 ,69.9090 ,1.54310 ,-0.41308 ,-4.05313 
387 ,70.0850 ,1.54485 ,-0.41650 ,-4.08671 
388 ,70.2772 ,1.54674 ,-0.41992 ,-4.12029 
389 ,70.4532 ,1.54849 ,-0.43703 ,-4.28818 
390 ,70.6454 ,1.55045 ,-0.46441 ,-4.55681 
391 ,70.8214 ,1.55220 ,-0.46441 ,-4.55681 
392 ,70.9974 ,1.55394 ,-0.47126 ,-4.62396 
393 ,71.1896 ,1.55584 ,-0.49863 ,-4.89259 
394 ,71.3817 ,1.55778 ,-0.49179 ,-4.82543 
395 ,71.5578 ,1.55957 ,-0.49179 ,-4.82543 
396 ,71.7337 ,1.56128 ,-0.51917 ,-5.09406 
397 ,71.9099 ,1.56307 ,-0.53628 ,-5.26195 
398 ,72.0697 ,1.56476 ,-0.54997 ,-5.39626 
399 ,72.2459 ,1.56649 ,-0.56708 ,-5.56415 
400 ,72.4382 ,1.56830 ,-0.54997 ,-5.39626 
401 ,72.6142 ,1.57011 ,-0.56023 ,-5.49700 
402 ,72.8061 ,1.57200 ,-0.58419 ,-5.73205 
403 ,72.9981 ,1.57397 ,-0.58077 ,-5.69847 
404 ,73.1900 ,1.57589 ,-0.59103 ,-5.79920 
405 ,73.3665 ,1.57759 ,-0.61499 ,-6.03425 
406 ,73.5426 ,1.57936 ,-0.61841 ,-6.06783 
407 ,73.7187 ,1.58113 ,-0.61841 ,-6.06783 
408 ,73.8947 ,1.58291 ,-0.62868 ,-6.16856 
409 ,74.0707 ,1.58464 ,-0.64921 ,-6.37003 
410 ,74.2308 ,1.58637 ,-0.66290 ,-6.50435 
411 ,74.4069 ,1.58799 ,-0.68343 ,-6.70582 
412 ,74.5829 ,1.58980 ,-0.68343 ,-6.70582 
413 ,74.7591 ,1.59151 ,-0.68685 ,-6.73940 
414 ,74.9350 ,1.59328 ,-0.68343 ,-6.70582 
415 ,75.1112 ,1.59509 ,-0.69370 ,-6.80655 
416 ,75.2872 ,1.59681 ,-0.72450 ,-7.10876 
417 ,75.4634 ,1.59856 ,-0.73476 ,-7.20949 
418 ,75.6394 ,1.60037 ,-0.73134 ,-7.17591 
419 ,75.8154 ,1.60206 ,-0.74161 ,-7.27665 
420 ,75.9915 ,1.60385 ,-0.75530 ,-7.41096 
421 ,76.1677 ,1.60559 ,-0.76898 ,-7.54527 
422 ,76.3597 ,1.60757 ,-0.77241 ,-7.57885 
423 ,76.5358 ,1.60935 ,-0.77583 ,-7.61243 
424 ,76.7279 ,1.61117 ,-0.79978 ,-7.84748 
425 ,76.9040 ,1.61299 ,-0.81347 ,-7.98179 
426 ,77.0800 ,1.61477 ,-0.81005 ,-7.94821 
427 ,77.2559 ,1.61650 ,-0.82716 ,-8.11611 
428 ,77.4322 ,1.61824 ,-0.82716 ,-8.11611 
429 ,77.6242 ,1.62012 ,-0.84769 ,-8.31758 
430 ,77.8324 ,1.62216 ,-0.84427 ,-8.28400 
431 ,78.0083 ,1.62404 ,-0.86481 ,-8.48547 
432 ,78.1845 ,1.62583 ,-0.87507 ,-8.58620 
433 ,78.3765 ,1.62767 ,-0.86823 ,-8.51904 
434 ,78.5687 ,1.62956 ,-0.88534 ,-8.68694 
435 ,78.7606 ,1.63154 ,-0.90587 ,-8.88841 
436 ,78.9527 ,1.63332 ,-0.89903 ,-8.82125 
437 ,79.1288 ,1.63520 ,-0.92640 ,-9.08988 
438 ,79.3049 ,1.63697 ,-0.92983 ,-9.12345 
439 ,79.5129 ,1.63888 ,-0.92640 ,-9.08988 
440 ,79.6891 ,1.64083 ,-0.94009 ,-9.22419 
441 ,79.8811 ,1.64271 ,-0.95720 ,-9.39208 
442 ,80.0572 ,1.64446 ,-0.95378 ,-9.35850 
443 ,80.2493 ,1.64644 ,-0.97431 ,-9.55997 
444 ,80.4253 ,1.64818 ,-0.99827 ,-9.79502 
445 ,80.6015 ,1.64995 ,-1.00169 ,-9.82860 
446 ,80.7775 ,1.65172 ,-1.00854 ,-9.89576 
447 ,80.9536 ,1.65347 ,-1.00854 ,-9.89576 
448 ,81.1293 ,1.65519 ,-1.02565 ,-10.06365 
449 ,81.3056 ,1.65701 ,-1.02907 ,-10.09723 
450 ,81.4816 ,1.65880 ,-1.04618 ,-10.26512 
451 ,81.6899 ,1.66071 ,-1.04960 ,-10.29869 
452 ,81.8660 ,1.66260 ,-1.05987 ,-10.39943 
453 ,82.0740 ,1.66459 ,-1.05302 ,-10.33227 
454 ,82.2500 ,1.66638 ,-1.05987 ,-10.39943 
455 ,82.4262 ,1.66817 ,-1.09409 ,-10.73521 
456 ,82.6178 ,1.67002 ,-1.10093 ,-10.80237 
457 ,82.7944 ,1.67188 ,-1.10436 ,-10.83595 
458 ,82.9706 ,1.67365 ,-1.11120 ,-10.90310 
459 ,83.1625 ,1.67552 ,-1.12147 ,-11.00384 
460 ,83.3386 ,1.67731 ,-1.13516 ,-11.13815 
461 ,83.5146 ,1.67909 ,-1.14542 ,-11.23889 
462 ,83.6903 ,1.68078 ,-1.13173 ,-11.10457 
