Data stamp = , 30-03-2022 09:06:00 795

Calibration Values: 
Slope = , 26.54 , g/V 
Offset Voltage at no contact = , -0.501760 , V 

No , Time , Stage Position ,   Mass , Force 
   ,  (s) ,      (mm)      ,   (g)  , (mN)  

1 ,0.0000 ,0.84958 ,5.00763 ,49.13490 
2 ,0.2398 ,0.84971 ,5.02132 ,49.26921 
3 ,0.5917 ,0.85072 ,5.01790 ,49.23563 
4 ,0.7836 ,0.85241 ,5.02817 ,49.33637 
5 ,0.9596 ,0.85395 ,5.02817 ,49.33637 
6 ,1.1359 ,0.85564 ,5.02817 ,49.33637 
7 ,1.3438 ,0.85763 ,5.03501 ,49.40352 
8 ,1.5201 ,0.85946 ,5.01448 ,49.20205 
9 ,1.6800 ,0.86126 ,4.98710 ,48.93343 
10 ,1.8721 ,0.86299 ,4.97341 ,48.79911 
11 ,2.0481 ,0.86483 ,4.93919 ,48.46333 
12 ,2.2243 ,0.86656 ,4.92892 ,48.36260 
13 ,2.4002 ,0.86843 ,4.92892 ,48.36260 
14 ,2.5766 ,0.87012 ,4.91181 ,48.19471 
15 ,2.7686 ,0.87195 ,4.89812 ,48.06039 
16 ,2.9607 ,0.87382 ,4.87759 ,47.85892 
17 ,3.1527 ,0.87587 ,4.86048 ,47.69103 
18 ,3.3289 ,0.87761 ,4.83995 ,47.48956 
19 ,3.5209 ,0.87949 ,4.83995 ,47.48956 
20 ,3.7130 ,0.88146 ,4.80915 ,47.18736 
21 ,3.8891 ,0.88325 ,4.79888 ,47.08662 
22 ,4.0811 ,0.88503 ,4.78177 ,46.91873 
23 ,4.2572 ,0.88692 ,4.76124 ,46.71726 
24 ,4.4495 ,0.88883 ,4.74070 ,46.51579 
25 ,4.6416 ,0.89061 ,4.74070 ,46.51579 
26 ,4.8177 ,0.89253 ,4.71675 ,46.28074 
27 ,4.9938 ,0.89428 ,4.68937 ,46.01212 
28 ,5.1700 ,0.89603 ,4.67226 ,45.84422 
29 ,5.3459 ,0.89783 ,4.65515 ,45.67633 
30 ,5.5219 ,0.89952 ,4.64488 ,45.57560 
31 ,5.6975 ,0.90131 ,4.64146 ,45.54202 
32 ,5.8742 ,0.90304 ,4.60040 ,45.13908 
33 ,6.0501 ,0.90484 ,4.57302 ,44.87045 
34 ,6.2421 ,0.90677 ,4.58671 ,45.00477 
35 ,6.4183 ,0.90849 ,4.57302 ,44.87045 
36 ,6.5783 ,0.91021 ,4.52853 ,44.43394 
37 ,6.7705 ,0.91198 ,4.51484 ,44.29962 
38 ,6.9464 ,0.91383 ,4.50457 ,44.19889 
39 ,7.1546 ,0.91580 ,4.47720 ,43.93026 
40 ,7.3467 ,0.91765 ,4.45666 ,43.72879 
41 ,7.5224 ,0.91957 ,4.46351 ,43.79595 
42 ,7.6988 ,0.92128 ,4.44982 ,43.66163 
43 ,7.8750 ,0.92308 ,4.43613 ,43.52732 
44 ,8.0669 ,0.92499 ,4.40875 ,43.25870 
45 ,8.2430 ,0.92667 ,4.39849 ,43.15796 
46 ,8.4191 ,0.92854 ,4.38822 ,43.05723 
47 ,8.5948 ,0.93024 ,4.34373 ,42.62071 
48 ,8.7711 ,0.93206 ,4.32662 ,42.45282 
49 ,8.9472 ,0.93378 ,4.31636 ,42.35208 
50 ,9.1232 ,0.93553 ,4.30267 ,42.21777 
51 ,9.2994 ,0.93728 ,4.29924 ,42.18419 
52 ,9.4757 ,0.93909 ,4.28556 ,42.04988 
53 ,9.6510 ,0.94087 ,4.24449 ,41.64694 
54 ,9.8436 ,0.94265 ,4.22738 ,41.47905 
55 ,10.0519 ,0.94477 ,4.22053 ,41.41189 
56 ,10.2277 ,0.94660 ,4.18631 ,41.07611 
57 ,10.4038 ,0.94830 ,4.19658 ,41.17684 
58 ,10.5959 ,0.95027 ,4.17262 ,40.94179 
59 ,10.7719 ,0.95199 ,4.14525 ,40.67317 
60 ,10.9481 ,0.95380 ,4.12471 ,40.47170 
61 ,11.1240 ,0.95553 ,4.10760 ,40.30380 
62 ,11.3003 ,0.95731 ,4.09734 ,40.20307 
63 ,11.4763 ,0.95909 ,4.08707 ,40.10233 
64 ,11.6844 ,0.96108 ,4.06996 ,39.93444 
65 ,11.8603 ,0.96291 ,4.05627 ,39.80013 
66 ,12.0686 ,0.96486 ,4.02205 ,39.46435 
67 ,12.2445 ,0.96675 ,4.00494 ,39.29646 
68 ,12.4208 ,0.96853 ,3.99809 ,39.22930 
69 ,12.5967 ,0.97028 ,3.97414 ,38.99425 
70 ,12.7729 ,0.97203 ,3.95703 ,38.82636 
71 ,12.9649 ,0.97394 ,3.93307 ,38.59131 
72 ,13.1730 ,0.97592 ,3.92623 ,38.52415 
73 ,13.3650 ,0.97796 ,3.89885 ,38.25553 
74 ,13.5411 ,0.97965 ,3.88858 ,38.15479 
75 ,13.7171 ,0.98147 ,3.87490 ,38.02048 
76 ,13.8930 ,0.98321 ,3.85436 ,37.81901 
77 ,14.0691 ,0.98494 ,3.81672 ,37.44965 
78 ,14.2613 ,0.98681 ,3.83383 ,37.61754 
79 ,14.4374 ,0.98865 ,3.80303 ,37.31534 
80 ,14.6136 ,0.99044 ,3.77908 ,37.08029 
81 ,14.7895 ,0.99213 ,3.76539 ,36.94597 
82 ,14.9655 ,0.99395 ,3.75512 ,36.84524 
83 ,15.1417 ,0.99566 ,3.75512 ,36.84524 
84 ,15.3178 ,0.99746 ,3.74485 ,36.74450 
85 ,15.5419 ,0.99962 ,3.71405 ,36.44230 
86 ,15.7337 ,1.00162 ,3.68325 ,36.14010 
87 ,15.9101 ,1.00338 ,3.67299 ,36.03936 
88 ,16.0860 ,1.00513 ,3.64219 ,35.73716 
89 ,16.2618 ,1.00698 ,3.65588 ,35.87147 
90 ,16.4383 ,1.00866 ,3.62508 ,35.56926 
91 ,16.6143 ,1.01042 ,3.61139 ,35.43495 
92 ,16.8062 ,1.01235 ,3.59086 ,35.23348 
93 ,16.9984 ,1.01420 ,3.57375 ,35.06559 
94 ,17.1747 ,1.01602 ,3.56690 ,34.99843 
95 ,17.3667 ,1.01796 ,3.52926 ,34.62907 
96 ,17.5427 ,1.01976 ,3.53610 ,34.69623 
97 ,17.7027 ,1.02138 ,3.52584 ,34.59549 
98 ,17.8788 ,1.02304 ,3.51899 ,34.52834 
99 ,18.0386 ,1.02476 ,3.48135 ,34.15898 
100 ,18.2310 ,1.02647 ,3.47792 ,34.12540 
101 ,18.4227 ,1.02850 ,3.45397 ,33.89035 
102 ,18.5991 ,1.03027 ,3.44028 ,33.75604 
103 ,18.7751 ,1.03201 ,3.42317 ,33.58814 
104 ,18.9673 ,1.03396 ,3.39237 ,33.28594 
105 ,19.1430 ,1.03564 ,3.38553 ,33.21878 
106 ,19.3195 ,1.03750 ,3.38553 ,33.21878 
107 ,19.5274 ,1.03943 ,3.34788 ,32.84942 
108 ,19.7035 ,1.04125 ,3.34104 ,32.78227 
109 ,19.8796 ,1.04303 ,3.32735 ,32.64795 
110 ,20.0558 ,1.04483 ,3.32393 ,32.61437 
111 ,20.2318 ,1.04660 ,3.28971 ,32.27859 
112 ,20.4077 ,1.04838 ,3.25548 ,31.94281 
113 ,20.5840 ,1.05011 ,3.27259 ,32.11070 
114 ,20.7760 ,1.05203 ,3.25206 ,31.90923 
115 ,20.9522 ,1.05380 ,3.24180 ,31.80849 
116 ,21.1442 ,1.05563 ,3.21784 ,31.57345 
117 ,21.3201 ,1.05743 ,3.20757 ,31.47271 
118 ,21.5121 ,1.05926 ,3.19731 ,31.37198 
119 ,21.6884 ,1.06114 ,3.15966 ,31.00262 
120 ,21.8644 ,1.06292 ,3.15966 ,31.00262 
121 ,22.0404 ,1.06466 ,3.14255 ,30.83472 
122 ,22.2165 ,1.06639 ,3.13229 ,30.73399 
123 ,22.3926 ,1.06814 ,3.12202 ,30.63325 
124 ,22.5848 ,1.07005 ,3.10149 ,30.43178 
125 ,22.7608 ,1.07184 ,3.08095 ,30.23031 
126 ,22.9369 ,1.07359 ,3.07753 ,30.19674 
127 ,23.1129 ,1.07537 ,3.06726 ,30.09600 
128 ,23.2890 ,1.07716 ,3.03304 ,29.76022 
129 ,23.4811 ,1.07901 ,3.03304 ,29.76022 
130 ,23.6729 ,1.08100 ,3.00909 ,29.52517 
131 ,23.8488 ,1.08283 ,2.98171 ,29.25654 
132 ,24.0089 ,1.08447 ,2.97487 ,29.18939 
133 ,24.1849 ,1.08607 ,2.95776 ,29.02150 
134 ,24.3610 ,1.08788 ,2.94407 ,28.88718 
135 ,24.5371 ,1.08961 ,2.93380 ,28.78645 
136 ,24.7136 ,1.09140 ,2.92353 ,28.68571 
137 ,24.9056 ,1.09333 ,2.90985 ,28.55140 
138 ,25.0818 ,1.09509 ,2.89616 ,28.41709 
139 ,25.2577 ,1.09685 ,2.88247 ,28.28277 
140 ,25.4496 ,1.09863 ,2.85851 ,28.04772 
141 ,25.6259 ,1.10050 ,2.83114 ,27.77910 
142 ,25.8021 ,1.10220 ,2.84825 ,27.94699 
143 ,25.9781 ,1.10401 ,2.82429 ,27.71194 
144 ,26.1703 ,1.10588 ,2.79691 ,27.44332 
145 ,26.3623 ,1.10780 ,2.79691 ,27.44332 
146 ,26.5380 ,1.10968 ,2.77638 ,27.24185 
147 ,26.7144 ,1.11136 ,2.75585 ,27.04038 
148 ,26.8903 ,1.11311 ,2.74216 ,26.90606 
149 ,27.0824 ,1.11494 ,2.73189 ,26.80533 
150 ,27.2746 ,1.11687 ,2.72163 ,26.70459 
151 ,27.4506 ,1.11873 ,2.68740 ,26.36881 
152 ,27.6587 ,1.12080 ,2.68740 ,26.36881 
153 ,27.8188 ,1.12254 ,2.67714 ,26.26807 
154 ,27.9950 ,1.12423 ,2.66687 ,26.16734 
155 ,28.1871 ,1.12602 ,2.63949 ,25.89871 
156 ,28.3792 ,1.12803 ,2.62923 ,25.79798 
157 ,28.5552 ,1.12975 ,2.62238 ,25.73082 
158 ,28.7473 ,1.13176 ,2.57447 ,25.26073 
159 ,28.9393 ,1.13364 ,2.58816 ,25.39504 
160 ,29.1154 ,1.13535 ,2.57447 ,25.26073 
161 ,29.2916 ,1.13713 ,2.54367 ,24.95852 
162 ,29.4834 ,1.13908 ,2.52314 ,24.75705 
163 ,29.6593 ,1.14079 ,2.53683 ,24.89136 
164 ,29.8358 ,1.14262 ,2.51287 ,24.65632 
165 ,30.0113 ,1.14436 ,2.49576 ,24.48842 
166 ,30.1879 ,1.14609 ,2.47181 ,24.25338 
167 ,30.3798 ,1.14801 ,2.46839 ,24.21980 
168 ,30.5560 ,1.14978 ,2.46154 ,24.15264 
169 ,30.7317 ,1.15153 ,2.43074 ,23.85044 
170 ,30.9242 ,1.15336 ,2.41363 ,23.68255 
171 ,31.1002 ,1.15524 ,2.39994 ,23.54823 
172 ,31.2762 ,1.15699 ,2.40679 ,23.61539 
173 ,31.4522 ,1.15870 ,2.37941 ,23.34676 
174 ,31.6284 ,1.16048 ,2.35888 ,23.14529 
175 ,31.8043 ,1.16228 ,2.34519 ,23.01098 
176 ,31.9803 ,1.16400 ,2.33834 ,22.94382 
177 ,32.1726 ,1.16591 ,2.32465 ,22.80951 
178 ,32.3489 ,1.16774 ,2.29728 ,22.54088 
179 ,32.5406 ,1.16963 ,2.29043 ,22.47373 
180 ,32.7330 ,1.17141 ,2.28359 ,22.40657 
181 ,32.9249 ,1.17345 ,2.24594 ,22.03721 
182 ,33.1169 ,1.17536 ,2.24594 ,22.03721 
183 ,33.2931 ,1.17708 ,2.21515 ,21.73500 
184 ,33.4849 ,1.17905 ,2.20146 ,21.60069 
185 ,33.6612 ,1.18080 ,2.21172 ,21.70143 
186 ,33.8530 ,1.18270 ,2.17066 ,21.29849 
187 ,34.0292 ,1.18450 ,2.16723 ,21.26491 
188 ,34.2214 ,1.18642 ,2.13644 ,20.96270 
189 ,34.4136 ,1.18837 ,2.14328 ,21.02986 
190 ,34.5895 ,1.19009 ,2.11590 ,20.76123 
191 ,34.7817 ,1.19196 ,2.09879 ,20.59334 
192 ,34.9573 ,1.19384 ,2.09537 ,20.55976 
193 ,35.1338 ,1.19555 ,2.08852 ,20.49261 
194 ,35.3099 ,1.19729 ,2.06115 ,20.22398 
195 ,35.5020 ,1.19925 ,2.04061 ,20.02251 
196 ,35.6780 ,1.20097 ,2.04061 ,20.02251 
197 ,35.8541 ,1.20275 ,2.02693 ,19.88820 
198 ,36.0298 ,1.20454 ,2.00297 ,19.65315 
199 ,36.2060 ,1.20623 ,1.97902 ,19.41810 
200 ,36.3823 ,1.20801 ,1.96190 ,19.25021 
201 ,36.5903 ,1.21000 ,1.96533 ,19.28379 
202 ,36.7665 ,1.21184 ,1.93111 ,18.94801 
203 ,36.9423 ,1.21365 ,1.92768 ,18.91443 
204 ,37.1346 ,1.21551 ,1.92084 ,18.84727 
205 ,37.3106 ,1.21732 ,1.89688 ,18.61222 
206 ,37.4868 ,1.21910 ,1.87293 ,18.37717 
207 ,37.6789 ,1.22102 ,1.86266 ,18.27644 
208 ,37.8709 ,1.22290 ,1.86266 ,18.27644 
209 ,38.0470 ,1.22467 ,1.82844 ,17.94066 
210 ,38.2227 ,1.22637 ,1.82160 ,17.87350 
211 ,38.3987 ,1.22827 ,1.81133 ,17.77276 
212 ,38.5586 ,1.22990 ,1.80106 ,17.67203 
213 ,38.7187 ,1.23149 ,1.79422 ,17.60487 
214 ,38.8954 ,1.23315 ,1.77711 ,17.43698 
215 ,39.1033 ,1.23521 ,1.74631 ,17.13478 
216 ,39.2796 ,1.23694 ,1.74631 ,17.13478 
217 ,39.4556 ,1.23878 ,1.73262 ,17.00046 
218 ,39.6313 ,1.24050 ,1.71551 ,16.83257 
219 ,39.8078 ,1.24226 ,1.69155 ,16.59752 
220 ,39.9837 ,1.24405 ,1.66075 ,16.29532 
221 ,40.1598 ,1.24579 ,1.66760 ,16.36248 
222 ,40.3196 ,1.24745 ,1.66418 ,16.32890 
223 ,40.4960 ,1.24915 ,1.64364 ,16.12743 
224 ,40.7040 ,1.25112 ,1.61627 ,15.85880 
225 ,40.8800 ,1.25294 ,1.61284 ,15.82522 
226 ,41.0721 ,1.25481 ,1.59916 ,15.69091 
227 ,41.2641 ,1.25678 ,1.54782 ,15.18724 
228 ,41.4403 ,1.25859 ,1.54440 ,15.15366 
229 ,41.6644 ,1.26067 ,1.54098 ,15.12008 
230 ,41.8404 ,1.26258 ,1.53071 ,15.01934 
231 ,42.0166 ,1.26436 ,1.51360 ,14.85145 
232 ,42.1927 ,1.26612 ,1.49991 ,14.71714 
233 ,42.3685 ,1.26797 ,1.47253 ,14.44851 
234 ,42.5447 ,1.26956 ,1.46569 ,14.38136 
235 ,42.7207 ,1.27138 ,1.45200 ,14.24704 
236 ,42.8969 ,1.27315 ,1.44516 ,14.17989 
237 ,43.0888 ,1.27507 ,1.43831 ,14.11273 
238 ,43.2809 ,1.27699 ,1.40067 ,13.74337 
239 ,43.4571 ,1.27868 ,1.41436 ,13.87768 
240 ,43.6813 ,1.28081 ,1.36987 ,13.44116 
241 ,43.8732 ,1.28291 ,1.36987 ,13.44116 
242 ,44.0653 ,1.28475 ,1.35276 ,13.27327 
243 ,44.2414 ,1.28660 ,1.33565 ,13.10538 
244 ,44.4172 ,1.28835 ,1.33565 ,13.10538 
245 ,44.5936 ,1.29013 ,1.31169 ,12.87033 
246 ,44.7858 ,1.29204 ,1.28089 ,12.56813 
247 ,44.9618 ,1.29381 ,1.27405 ,12.50097 
248 ,45.1537 ,1.29569 ,1.27405 ,12.50097 
249 ,45.3298 ,1.29744 ,1.26036 ,12.36666 
250 ,45.5055 ,1.29918 ,1.23298 ,12.09803 
251 ,45.6821 ,1.30099 ,1.21929 ,11.96372 
252 ,45.8900 ,1.30300 ,1.20218 ,11.79583 
253 ,46.0661 ,1.30482 ,1.19192 ,11.69509 
254 ,46.2422 ,1.30657 ,1.17481 ,11.52720 
255 ,46.4183 ,1.30836 ,1.15770 ,11.35931 
256 ,46.5940 ,1.31011 ,1.16112 ,11.39289 
257 ,46.7704 ,1.31186 ,1.14401 ,11.22500 
258 ,46.9463 ,1.31364 ,1.13032 ,11.09068 
259 ,47.1385 ,1.31550 ,1.11321 ,10.92279 
260 ,47.3146 ,1.31724 ,1.10979 ,10.88921 
261 ,47.5067 ,1.31922 ,1.08925 ,10.68774 
262 ,47.6667 ,1.32094 ,1.06530 ,10.45270 
263 ,47.8427 ,1.32263 ,1.06530 ,10.45270 
264 ,48.0188 ,1.32432 ,1.05161 ,10.31838 
265 ,48.1947 ,1.32610 ,1.03792 ,10.18407 
266 ,48.3869 ,1.32794 ,1.03450 ,10.15049 
267 ,48.5630 ,1.32979 ,1.00028 ,9.81471 
268 ,48.7230 ,1.33148 ,0.99001 ,9.71397 
269 ,48.9313 ,1.33334 ,0.98317 ,9.64682 
270 ,49.1071 ,1.33524 ,0.98659 ,9.68039 
271 ,49.2991 ,1.33715 ,0.93868 ,9.21030 
272 ,49.4757 ,1.33888 ,0.95237 ,9.34461 
273 ,49.6511 ,1.34065 ,0.94552 ,9.27745 
274 ,49.8275 ,1.34241 ,0.91472 ,8.97525 
275 ,50.0196 ,1.34432 ,0.89761 ,8.80736 
276 ,50.2117 ,1.34624 ,0.90788 ,8.90809 
277 ,50.3878 ,1.34805 ,0.88392 ,8.67305 
278 ,50.5639 ,1.34980 ,0.85997 ,8.43800 
279 ,50.7395 ,1.35153 ,0.84970 ,8.33726 
280 ,50.9161 ,1.35322 ,0.84286 ,8.27011 
281 ,51.0920 ,1.35505 ,0.82232 ,8.06864 
282 ,51.2680 ,1.35684 ,0.81548 ,8.00148 
283 ,51.4441 ,1.35856 ,0.79837 ,7.83359 
284 ,51.6364 ,1.36044 ,0.79152 ,7.76643 
285 ,51.8284 ,1.36244 ,0.77784 ,7.63212 
286 ,52.0042 ,1.36416 ,0.76415 ,7.49780 
287 ,52.1806 ,1.36592 ,0.74704 ,7.32991 
288 ,52.3567 ,1.36765 ,0.73677 ,7.22918 
289 ,52.5328 ,1.36948 ,0.72650 ,7.12844 
290 ,52.7088 ,1.37125 ,0.72992 ,7.16202 
291 ,52.9008 ,1.37313 ,0.68886 ,6.75908 
292 ,53.0770 ,1.37485 ,0.68201 ,6.69193 
293 ,53.2529 ,1.37666 ,0.68201 ,6.69193 
294 ,53.4291 ,1.37837 ,0.67517 ,6.62477 
295 ,53.6211 ,1.38033 ,0.64437 ,6.32256 
296 ,53.7972 ,1.38208 ,0.63410 ,6.22183 
297 ,53.9733 ,1.38399 ,0.64095 ,6.28899 
298 ,54.1814 ,1.38579 ,0.60330 ,5.91962 
299 ,54.3575 ,1.38770 ,0.60330 ,5.91962 
300 ,54.5336 ,1.38949 ,0.58962 ,5.78531 
301 ,54.7415 ,1.39143 ,0.57593 ,5.65100 
302 ,54.9174 ,1.39329 ,0.56224 ,5.51668 
303 ,55.0936 ,1.39509 ,0.56224 ,5.51668 
304 ,55.2859 ,1.39699 ,0.53828 ,5.28164 
305 ,55.4779 ,1.39886 ,0.52459 ,5.14732 
306 ,55.6536 ,1.40065 ,0.50406 ,4.94585 
307 ,55.8297 ,1.40240 ,0.51775 ,5.08017 
308 ,56.0058 ,1.40419 ,0.50406 ,4.94585 
309 ,56.1817 ,1.40591 ,0.48011 ,4.71081 
310 ,56.3578 ,1.40766 ,0.45615 ,4.47576 
311 ,56.5178 ,1.40940 ,0.44931 ,4.40860 
312 ,56.6780 ,1.41100 ,0.44246 ,4.34144 
313 ,56.8540 ,1.41265 ,0.42193 ,4.13997 
314 ,57.0302 ,1.41437 ,0.42193 ,4.13997 
315 ,57.2062 ,1.41616 ,0.42535 ,4.17355 
316 ,57.3661 ,1.41791 ,0.39455 ,3.87135 
317 ,57.5261 ,1.41947 ,0.38771 ,3.80419 
318 ,57.6863 ,1.42110 ,0.37744 ,3.70346 
319 ,57.8464 ,1.42266 ,0.36375 ,3.56914 
320 ,58.0064 ,1.42428 ,0.36375 ,3.56914 
321 ,58.1824 ,1.42591 ,0.36033 ,3.53557 
322 ,58.3586 ,1.42766 ,0.32611 ,3.19978 
323 ,58.5347 ,1.42944 ,0.31584 ,3.09905 
324 ,58.7108 ,1.43117 ,0.31926 ,3.13263 
325 ,58.8868 ,1.43297 ,0.30215 ,2.96473 
326 ,59.0629 ,1.43473 ,0.29531 ,2.89758 
327 ,59.2390 ,1.43651 ,0.29189 ,2.86400 
328 ,59.4150 ,1.43823 ,0.24740 ,2.42748 
329 ,59.5750 ,1.43996 ,0.25767 ,2.52822 
330 ,59.7351 ,1.44158 ,0.23371 ,2.29317 
331 ,59.8952 ,1.44316 ,0.24055 ,2.36032 
332 ,60.0554 ,1.44477 ,0.22002 ,2.15885 
333 ,60.2312 ,1.44643 ,0.19607 ,1.92381 
334 ,60.4239 ,1.44824 ,0.20633 ,2.02454 
335 ,60.6319 ,1.45038 ,0.19949 ,1.95738 
336 ,60.8079 ,1.45218 ,0.17553 ,1.72234 
337 ,60.9840 ,1.45391 ,0.16869 ,1.65518 
338 ,61.1600 ,1.45575 ,0.15500 ,1.52087 
339 ,61.3522 ,1.45756 ,0.14131 ,1.38655 
340 ,61.5283 ,1.45935 ,0.14473 ,1.42013 
341 ,61.7043 ,1.46117 ,0.11736 ,1.15151 
342 ,61.8802 ,1.46288 ,0.10025 ,0.98361 
343 ,62.0566 ,1.46464 ,0.08656 ,0.84930 
344 ,62.2326 ,1.46645 ,0.08998 ,0.88288 
345 ,62.4407 ,1.46846 ,0.06260 ,0.61425 
346 ,62.6327 ,1.47044 ,0.05234 ,0.51352 
347 ,62.8084 ,1.47213 ,0.05576 ,0.54710 
348 ,62.9849 ,1.47392 ,0.04549 ,0.44636 
349 ,63.1609 ,1.47573 ,0.04207 ,0.41278 
350 ,63.3526 ,1.47748 ,0.02154 ,0.21131 
351 ,63.5291 ,1.47938 ,0.01469 ,0.14416 
352 ,63.7212 ,1.48134 ,-0.00242 ,-0.02373 
353 ,63.8971 ,1.48306 ,-0.01269 ,-0.12447 
354 ,64.0735 ,1.48483 ,-0.02637 ,-0.25878 
355 ,64.2654 ,1.48672 ,-0.01953 ,-0.19163 
356 ,64.4570 ,1.48862 ,-0.04691 ,-0.46025 
357 ,64.6332 ,1.49041 ,-0.06060 ,-0.59457 
358 ,64.8095 ,1.49220 ,-0.06060 ,-0.59457 
359 ,64.9856 ,1.49399 ,-0.06402 ,-0.62814 
360 ,65.1937 ,1.49595 ,-0.08797 ,-0.86319 
361 ,65.3858 ,1.49794 ,-0.09482 ,-0.93035 
362 ,65.5615 ,1.49966 ,-0.10508 ,-1.03108 
363 ,65.7539 ,1.50156 ,-0.12562 ,-1.23255 
364 ,65.9301 ,1.50337 ,-0.12219 ,-1.19898 
365 ,66.1221 ,1.50528 ,-0.15299 ,-1.50118 
366 ,66.2979 ,1.50708 ,-0.15642 ,-1.53476 
367 ,66.4903 ,1.50892 ,-0.15299 ,-1.50118 
368 ,66.6822 ,1.51083 ,-0.17353 ,-1.70265 
369 ,66.8740 ,1.51286 ,-0.18722 ,-1.83696 
370 ,67.0501 ,1.51453 ,-0.18037 ,-1.76981 
371 ,67.2425 ,1.51647 ,-0.20775 ,-2.03843 
372 ,67.4185 ,1.51828 ,-0.22144 ,-2.17275 
373 ,67.6267 ,1.52026 ,-0.22486 ,-2.20632 
374 ,67.8027 ,1.52207 ,-0.24881 ,-2.44137 
375 ,67.9789 ,1.52383 ,-0.26250 ,-2.57569 
376 ,68.1549 ,1.52559 ,-0.25908 ,-2.54211 
377 ,68.3470 ,1.52753 ,-0.27277 ,-2.67642 
378 ,68.5231 ,1.52936 ,-0.26935 ,-2.64284 
379 ,68.6990 ,1.53118 ,-0.30015 ,-2.94505 
380 ,68.8913 ,1.53288 ,-0.31726 ,-3.11294 
381 ,69.0673 ,1.53470 ,-0.31384 ,-3.07936 
382 ,69.2434 ,1.53648 ,-0.31384 ,-3.07936 
383 ,69.4194 ,1.53826 ,-0.33095 ,-3.24725 
384 ,69.5953 ,1.54007 ,-0.36175 ,-3.54946 
385 ,69.7716 ,1.54183 ,-0.36175 ,-3.54946 
386 ,69.9796 ,1.54373 ,-0.34806 ,-3.41514 
387 ,70.1556 ,1.54558 ,-0.37886 ,-3.71735 
388 ,70.3637 ,1.54768 ,-0.37886 ,-3.71735 
389 ,70.5399 ,1.54948 ,-0.38228 ,-3.75093 
390 ,70.7315 ,1.55125 ,-0.41650 ,-4.08671 
391 ,70.9079 ,1.55311 ,-0.41992 ,-4.12029 
392 ,71.1002 ,1.55507 ,-0.43703 ,-4.28818 
393 ,71.2760 ,1.55696 ,-0.44388 ,-4.35534 
394 ,71.4684 ,1.55871 ,-0.43703 ,-4.28818 
395 ,71.6602 ,1.56059 ,-0.47126 ,-4.62396 
396 ,71.8524 ,1.56257 ,-0.46783 ,-4.59038 
397 ,72.0283 ,1.56439 ,-0.48152 ,-4.72470 
398 ,72.2046 ,1.56611 ,-0.49521 ,-4.85901 
399 ,72.3806 ,1.56791 ,-0.49521 ,-4.85901 
400 ,72.5565 ,1.56963 ,-0.53285 ,-5.22837 
401 ,72.7487 ,1.57148 ,-0.51574 ,-5.06048 
402 ,72.9088 ,1.57321 ,-0.53628 ,-5.26195 
403 ,73.0849 ,1.57490 ,-0.52601 ,-5.16121 
404 ,73.2610 ,1.57667 ,-0.54997 ,-5.39626 
405 ,73.4529 ,1.57856 ,-0.57392 ,-5.63131 
406 ,73.6292 ,1.58031 ,-0.57050 ,-5.59773 
407 ,73.8372 ,1.58241 ,-0.60814 ,-5.96709 
408 ,74.0293 ,1.58425 ,-0.59445 ,-5.83278 
409 ,74.2212 ,1.58627 ,-0.60472 ,-5.93352 
410 ,74.3973 ,1.58799 ,-0.63210 ,-6.20214 
411 ,74.5734 ,1.58981 ,-0.65263 ,-6.40361 
412 ,74.7494 ,1.59152 ,-0.64236 ,-6.30288 
413 ,74.9253 ,1.59331 ,-0.64236 ,-6.30288 
414 ,75.1016 ,1.59506 ,-0.66290 ,-6.50435 
415 ,75.2778 ,1.59680 ,-0.67659 ,-6.63866 
416 ,75.4537 ,1.59857 ,-0.68685 ,-6.73940 
417 ,75.6298 ,1.60028 ,-0.69370 ,-6.80655 
418 ,75.8059 ,1.60204 ,-0.70396 ,-6.90729 
419 ,75.9818 ,1.60385 ,-0.70739 ,-6.94086 
420 ,76.1581 ,1.60561 ,-0.72450 ,-7.10876 
421 ,76.3501 ,1.60758 ,-0.74503 ,-7.31023 
422 ,76.5263 ,1.60929 ,-0.74503 ,-7.31023 
423 ,76.7183 ,1.61123 ,-0.76556 ,-7.51170 
424 ,76.8943 ,1.61295 ,-0.77925 ,-7.64601 
425 ,77.0544 ,1.61468 ,-0.79978 ,-7.84748 
426 ,77.2305 ,1.61636 ,-0.78267 ,-7.67959 
427 ,77.4067 ,1.61808 ,-0.79978 ,-7.84748 
428 ,77.5827 ,1.61985 ,-0.79636 ,-7.81390 
429 ,77.7749 ,1.62172 ,-0.83058 ,-8.14968 
430 ,77.9509 ,1.62354 ,-0.83743 ,-8.21684 
431 ,78.1268 ,1.62531 ,-0.84085 ,-8.25042 
432 ,78.3028 ,1.62703 ,-0.84427 ,-8.28400 
433 ,78.4793 ,1.62878 ,-0.85454 ,-8.38473 
434 ,78.6551 ,1.63064 ,-0.87507 ,-8.58620 
435 ,78.8473 ,1.63239 ,-0.87849 ,-8.61978 
436 ,79.0551 ,1.63445 ,-0.87849 ,-8.61978 
437 ,79.2473 ,1.63641 ,-0.89218 ,-8.75409 
438 ,79.4234 ,1.63823 ,-0.90587 ,-8.88841 
439 ,79.5995 ,1.64003 ,-0.92640 ,-9.08988 
440 ,79.7753 ,1.64176 ,-0.92983 ,-9.12345 
441 ,79.9674 ,1.64364 ,-0.95036 ,-9.32492 
442 ,80.1593 ,1.64555 ,-0.95720 ,-9.39208 
443 ,80.3359 ,1.64740 ,-0.96747 ,-9.49282 
444 ,80.5278 ,1.64924 ,-0.95378 ,-9.35850 
445 ,80.7360 ,1.65132 ,-0.98800 ,-9.69429 
446 ,80.9119 ,1.65316 ,-0.99827 ,-9.79502 
447 ,81.0880 ,1.65485 ,-0.99143 ,-9.72786 
448 ,81.2641 ,1.65663 ,-0.99827 ,-9.79502 
449 ,81.4403 ,1.65838 ,-1.01880 ,-9.99649 
450 ,81.6164 ,1.66019 ,-1.03934 ,-10.19796 
451 ,81.7924 ,1.66196 ,-1.05302 ,-10.33227 
452 ,81.9844 ,1.66387 ,-1.04618 ,-10.26512 
453 ,82.1604 ,1.66561 ,-1.03934 ,-10.19796 
454 ,82.3365 ,1.66741 ,-1.08040 ,-10.60090 
455 ,82.5127 ,1.66908 ,-1.08382 ,-10.63448 
456 ,82.6888 ,1.67090 ,-1.08382 ,-10.63448 
457 ,82.8647 ,1.67269 ,-1.08040 ,-10.60090 
458 ,83.0569 ,1.67457 ,-1.09067 ,-10.70163 
459 ,83.2329 ,1.67635 ,-1.11462 ,-10.93668 
460 ,83.4090 ,1.67807 ,-1.12831 ,-11.07100 
461 ,83.5851 ,1.67985 ,-1.11805 ,-10.97026 
462 ,83.7773 ,1.68179 ,-1.14542 ,-11.23889 
