Data stamp = , 30-03-2022 07:45:09 479

Calibration Values: 
Slope = , 26.54 , g/V 
Offset Voltage at no contact = , -0.501760 , V 

No , Time , Stage Position ,   Mass , Force 
   ,  (s) ,      (mm)      ,   (g)  , (mN)  

1 ,0.0000 ,0.84943 ,5.06581 ,49.70573 
2 ,0.2123 ,0.84951 ,5.06923 ,49.73931 
3 ,0.5325 ,0.85034 ,5.04870 ,49.53784 
4 ,0.7242 ,0.85175 ,5.05212 ,49.57142 
5 ,0.9006 ,0.85322 ,5.05212 ,49.57142 
6 ,1.1088 ,0.85508 ,5.04528 ,49.50426 
7 ,1.3009 ,0.85714 ,5.06239 ,49.67215 
8 ,1.4767 ,0.85894 ,5.06239 ,49.67215 
9 ,1.6529 ,0.86076 ,5.02817 ,49.33637 
10 ,1.8449 ,0.86260 ,5.02474 ,49.30279 
11 ,2.0212 ,0.86446 ,5.01106 ,49.16848 
12 ,2.1971 ,0.86617 ,4.97683 ,48.83269 
13 ,2.4052 ,0.86818 ,4.95630 ,48.63122 
14 ,2.5812 ,0.87000 ,4.94261 ,48.49691 
15 ,2.7734 ,0.87184 ,4.91523 ,48.22828 
16 ,2.9655 ,0.87378 ,4.91866 ,48.26186 
17 ,3.1575 ,0.87576 ,4.90497 ,48.12755 
18 ,3.3497 ,0.87764 ,4.88101 ,47.89250 
19 ,3.5258 ,0.87945 ,4.86732 ,47.75819 
20 ,3.7178 ,0.88138 ,4.86048 ,47.69103 
21 ,3.8935 ,0.88319 ,4.82626 ,47.35525 
22 ,4.0700 ,0.88488 ,4.81599 ,47.25451 
23 ,4.2460 ,0.88665 ,4.79204 ,47.01946 
24 ,4.4381 ,0.88857 ,4.79546 ,47.05304 
25 ,4.6302 ,0.89035 ,4.77150 ,46.81800 
26 ,4.8222 ,0.89237 ,4.74755 ,46.58295 
27 ,4.9822 ,0.89409 ,4.73728 ,46.48221 
28 ,5.1584 ,0.89577 ,4.72359 ,46.34790 
29 ,5.3505 ,0.89759 ,4.69622 ,46.07927 
30 ,5.5260 ,0.89946 ,4.68595 ,45.97854 
31 ,5.7023 ,0.90116 ,4.67911 ,45.91138 
32 ,5.8787 ,0.90291 ,4.67911 ,45.91138 
33 ,6.0547 ,0.90469 ,4.64831 ,45.60918 
34 ,6.2309 ,0.90645 ,4.61751 ,45.30697 
35 ,6.4068 ,0.90820 ,4.60724 ,45.20624 
36 ,6.5830 ,0.90997 ,4.59697 ,45.10550 
37 ,6.7589 ,0.91174 ,4.56960 ,44.83688 
38 ,6.9350 ,0.91348 ,4.55591 ,44.70256 
39 ,7.1111 ,0.91526 ,4.53880 ,44.53467 
40 ,7.2873 ,0.91698 ,4.52169 ,44.36678 
41 ,7.4633 ,0.91880 ,4.49089 ,44.06457 
42 ,7.6392 ,0.92053 ,4.50457 ,44.19889 
43 ,7.8315 ,0.92250 ,4.46351 ,43.79595 
44 ,8.0072 ,0.92428 ,4.43613 ,43.52732 
45 ,8.1836 ,0.92594 ,4.44982 ,43.66163 
46 ,8.3596 ,0.92776 ,4.42586 ,43.42659 
47 ,8.5358 ,0.92953 ,4.39849 ,43.15796 
48 ,8.7117 ,0.93131 ,4.37795 ,42.95649 
49 ,8.9039 ,0.93319 ,4.36427 ,42.82218 
50 ,9.0959 ,0.93510 ,4.34031 ,42.58713 
51 ,9.2560 ,0.93681 ,4.31636 ,42.35208 
52 ,9.4487 ,0.93861 ,4.29924 ,42.18419 
53 ,9.6401 ,0.94056 ,4.29240 ,42.11703 
54 ,9.8160 ,0.94228 ,4.27871 ,41.98272 
55 ,9.9923 ,0.94407 ,4.25818 ,41.78125 
56 ,10.1684 ,0.94579 ,4.24449 ,41.64694 
57 ,10.3605 ,0.94778 ,4.24791 ,41.68051 
58 ,10.5845 ,0.94985 ,4.22053 ,41.41189 
59 ,10.7608 ,0.95177 ,4.20685 ,41.27758 
60 ,10.9528 ,0.95371 ,4.16236 ,40.84106 
61 ,11.1288 ,0.95546 ,4.15209 ,40.74032 
62 ,11.3049 ,0.95719 ,4.15551 ,40.77390 
63 ,11.4808 ,0.95897 ,4.14183 ,40.63959 
64 ,11.6570 ,0.96072 ,4.11103 ,40.33738 
65 ,11.8489 ,0.96264 ,4.08023 ,40.03518 
66 ,12.0252 ,0.96439 ,4.08365 ,40.06876 
67 ,12.2013 ,0.96613 ,4.06312 ,39.86729 
68 ,12.3772 ,0.96789 ,4.04258 ,39.66582 
69 ,12.5530 ,0.96968 ,4.01178 ,39.36361 
70 ,12.7295 ,0.97140 ,4.00494 ,39.29646 
71 ,12.9055 ,0.97322 ,4.00152 ,39.26288 
72 ,13.0976 ,0.97497 ,3.99125 ,39.16214 
73 ,13.2736 ,0.97690 ,3.96387 ,38.89352 
74 ,13.4333 ,0.97854 ,3.93650 ,38.62489 
75 ,13.6097 ,0.98021 ,3.92281 ,38.49058 
76 ,13.7858 ,0.98196 ,3.90912 ,38.35626 
77 ,13.9779 ,0.98391 ,3.88516 ,38.12122 
78 ,14.1538 ,0.98564 ,3.86121 ,37.88617 
79 ,14.3300 ,0.98744 ,3.85436 ,37.81901 
80 ,14.4901 ,0.98913 ,3.85779 ,37.85259 
81 ,14.6660 ,0.99079 ,3.82356 ,37.51681 
82 ,14.8422 ,0.99258 ,3.82356 ,37.51681 
83 ,15.0022 ,0.99426 ,3.78934 ,37.18102 
84 ,15.1784 ,0.99589 ,3.78934 ,37.18102 
85 ,15.3543 ,0.99768 ,3.76539 ,36.94597 
86 ,15.5304 ,0.99946 ,3.74485 ,36.74450 
87 ,15.7065 ,1.00120 ,3.74828 ,36.77808 
88 ,15.8827 ,1.00297 ,3.71063 ,36.40872 
89 ,16.0746 ,1.00488 ,3.69010 ,36.20725 
90 ,16.2509 ,1.00659 ,3.67641 ,36.07294 
91 ,16.4434 ,1.00857 ,3.66957 ,36.00578 
92 ,16.6188 ,1.01029 ,3.64903 ,35.80431 
93 ,16.7950 ,1.01211 ,3.62850 ,35.60284 
94 ,16.9710 ,1.01392 ,3.62508 ,35.56926 
95 ,17.1473 ,1.01558 ,3.60454 ,35.36779 
96 ,17.3233 ,1.01734 ,3.60454 ,35.36779 
97 ,17.4991 ,1.01914 ,3.57375 ,35.06559 
98 ,17.6915 ,1.02096 ,3.56006 ,34.93128 
99 ,17.8994 ,1.02307 ,3.54637 ,34.79696 
100 ,18.0754 ,1.02481 ,3.52241 ,34.56192 
101 ,18.2515 ,1.02661 ,3.51215 ,34.46118 
102 ,18.4275 ,1.02838 ,3.50530 ,34.39402 
103 ,18.6033 ,1.03016 ,3.49161 ,34.25971 
104 ,18.7798 ,1.03194 ,3.46424 ,33.99108 
105 ,18.9559 ,1.03367 ,3.44713 ,33.82319 
106 ,19.1320 ,1.03545 ,3.41633 ,33.52099 
107 ,19.3080 ,1.03723 ,3.41975 ,33.55457 
108 ,19.4841 ,1.03896 ,3.41290 ,33.48741 
109 ,19.6598 ,1.04071 ,3.38210 ,33.18520 
110 ,19.8363 ,1.04249 ,3.36157 ,32.98374 
111 ,20.0602 ,1.04457 ,3.36157 ,32.98374 
112 ,20.2362 ,1.04650 ,3.32051 ,32.58080 
113 ,20.4124 ,1.04822 ,3.31708 ,32.54722 
114 ,20.5882 ,1.04997 ,3.31366 ,32.51364 
115 ,20.7642 ,1.05170 ,3.29655 ,32.34575 
116 ,20.9565 ,1.05354 ,3.27944 ,32.17786 
117 ,21.1325 ,1.05545 ,3.25891 ,31.97639 
118 ,21.3087 ,1.05717 ,3.25891 ,31.97639 
119 ,21.4849 ,1.05896 ,3.23495 ,31.74134 
120 ,21.6770 ,1.06085 ,3.20757 ,31.47271 
121 ,21.8531 ,1.06266 ,3.19731 ,31.37198 
122 ,22.0292 ,1.06439 ,3.18362 ,31.23766 
123 ,22.2051 ,1.06614 ,3.17677 ,31.17051 
124 ,22.3812 ,1.06791 ,3.14597 ,30.86830 
125 ,22.5576 ,1.06970 ,3.12202 ,30.63325 
126 ,22.7495 ,1.07162 ,3.13229 ,30.73399 
127 ,22.9254 ,1.07336 ,3.11860 ,30.59968 
128 ,23.1015 ,1.07512 ,3.08438 ,30.26389 
129 ,23.2934 ,1.07693 ,3.06726 ,30.09600 
130 ,23.4693 ,1.07874 ,3.06384 ,30.06242 
131 ,23.6459 ,1.08053 ,3.05358 ,29.96169 
132 ,23.8218 ,1.08234 ,3.02278 ,29.65948 
133 ,24.0137 ,1.08419 ,3.00909 ,29.52517 
134 ,24.2218 ,1.08626 ,2.98855 ,29.32370 
135 ,24.3982 ,1.08804 ,2.97829 ,29.22297 
136 ,24.5899 ,1.09002 ,2.96802 ,29.12223 
137 ,24.7662 ,1.09174 ,2.95091 ,28.95434 
138 ,24.9422 ,1.09352 ,2.93038 ,28.75287 
139 ,25.1184 ,1.09524 ,2.91669 ,28.61856 
140 ,25.2945 ,1.09706 ,2.89273 ,28.38351 
141 ,25.4866 ,1.09897 ,2.89273 ,28.38351 
142 ,25.6626 ,1.10073 ,2.86193 ,28.08130 
143 ,25.8388 ,1.10255 ,2.85167 ,27.98057 
144 ,26.0307 ,1.10443 ,2.85851 ,28.04772 
145 ,26.2229 ,1.10618 ,2.83456 ,27.81268 
146 ,26.3988 ,1.10808 ,2.80718 ,27.54405 
147 ,26.5749 ,1.10989 ,2.80376 ,27.51047 
148 ,26.7670 ,1.11187 ,2.76954 ,27.17469 
149 ,26.9436 ,1.11353 ,2.75927 ,27.07395 
150 ,27.1191 ,1.11523 ,2.74216 ,26.90606 
151 ,27.2952 ,1.11707 ,2.73874 ,26.87248 
152 ,27.4874 ,1.11892 ,2.72847 ,26.77175 
153 ,27.6634 ,1.12073 ,2.69767 ,26.46954 
154 ,27.8394 ,1.12249 ,2.67714 ,26.26807 
155 ,28.0154 ,1.12424 ,2.68398 ,26.33523 
156 ,28.2076 ,1.12618 ,2.66345 ,26.13376 
157 ,28.3997 ,1.12808 ,2.64976 ,25.99945 
158 ,28.5598 ,1.12980 ,2.63607 ,25.86514 
159 ,28.7360 ,1.13146 ,2.63949 ,25.89871 
160 ,28.9119 ,1.13318 ,2.61212 ,25.63009 
161 ,29.0879 ,1.13497 ,2.59843 ,25.49577 
162 ,29.2802 ,1.13682 ,2.57447 ,25.26073 
163 ,29.4722 ,1.13880 ,2.57789 ,25.29430 
164 ,29.6643 ,1.14064 ,2.54710 ,24.99210 
165 ,29.8564 ,1.14262 ,2.54367 ,24.95852 
166 ,30.0323 ,1.14440 ,2.52656 ,24.79063 
167 ,30.2083 ,1.14612 ,2.49918 ,24.52200 
168 ,30.4004 ,1.14793 ,2.48207 ,24.35411 
169 ,30.5766 ,1.14982 ,2.47865 ,24.32053 
170 ,30.7686 ,1.15180 ,2.46154 ,24.15264 
171 ,30.9453 ,1.15354 ,2.43074 ,23.85044 
172 ,31.1369 ,1.15546 ,2.43759 ,23.91759 
173 ,31.3128 ,1.15718 ,2.42732 ,23.81686 
174 ,31.4890 ,1.15899 ,2.40679 ,23.61539 
175 ,31.6651 ,1.16074 ,2.37599 ,23.31318 
176 ,31.8570 ,1.16260 ,2.37256 ,23.27961 
177 ,32.0491 ,1.16451 ,2.35203 ,23.07814 
178 ,32.2253 ,1.16629 ,2.33492 ,22.91024 
179 ,32.4173 ,1.16827 ,2.33492 ,22.91024 
180 ,32.6094 ,1.17017 ,2.30412 ,22.60804 
181 ,32.7854 ,1.17186 ,2.28359 ,22.40657 
182 ,32.9616 ,1.17371 ,2.28359 ,22.40657 
183 ,33.1536 ,1.17558 ,2.28017 ,22.37299 
184 ,33.3133 ,1.17727 ,2.24252 ,22.00363 
185 ,33.4895 ,1.17890 ,2.23226 ,21.90290 
186 ,33.6658 ,1.18072 ,2.21515 ,21.73500 
187 ,33.8577 ,1.18259 ,2.20830 ,21.66785 
188 ,34.0340 ,1.18440 ,2.20146 ,21.60069 
189 ,34.2100 ,1.18617 ,2.18777 ,21.46638 
190 ,34.3858 ,1.18788 ,2.16039 ,21.19775 
191 ,34.5622 ,1.18970 ,2.15012 ,21.09702 
192 ,34.7543 ,1.19161 ,2.15355 ,21.13059 
193 ,34.9303 ,1.19337 ,2.12959 ,20.89555 
194 ,35.1224 ,1.19523 ,2.12275 ,20.82839 
195 ,35.2985 ,1.19703 ,2.11248 ,20.72766 
196 ,35.4901 ,1.19891 ,2.07826 ,20.39187 
197 ,35.6667 ,1.20072 ,2.05773 ,20.19040 
198 ,35.8587 ,1.20260 ,2.06799 ,20.29114 
199 ,36.0349 ,1.20439 ,2.04061 ,20.02251 
200 ,36.2109 ,1.20613 ,2.03377 ,19.95535 
201 ,36.3869 ,1.20792 ,2.00982 ,19.72031 
202 ,36.5627 ,1.20964 ,2.01666 ,19.78746 
203 ,36.7390 ,1.21145 ,1.99955 ,19.61957 
204 ,36.9152 ,1.21318 ,1.97902 ,19.41810 
205 ,37.0912 ,1.21493 ,1.95164 ,19.14948 
206 ,37.2674 ,1.21671 ,1.94137 ,19.04874 
207 ,37.4431 ,1.21858 ,1.93795 ,19.01516 
208 ,37.6031 ,1.22019 ,1.92768 ,18.91443 
209 ,37.7631 ,1.22178 ,1.92768 ,18.91443 
210 ,37.9232 ,1.22336 ,1.92084 ,18.84727 
211 ,38.0833 ,1.22499 ,1.89346 ,18.57864 
212 ,38.2434 ,1.22658 ,1.87635 ,18.41075 
213 ,38.4195 ,1.22824 ,1.85924 ,18.24286 
214 ,38.5956 ,1.22996 ,1.85240 ,18.17570 
215 ,38.7716 ,1.23177 ,1.82844 ,17.94066 
216 ,38.9316 ,1.23347 ,1.81133 ,17.77276 
217 ,39.0918 ,1.23505 ,1.79764 ,17.63845 
218 ,39.2517 ,1.23665 ,1.79422 ,17.60487 
219 ,39.4118 ,1.23827 ,1.77026 ,17.36983 
220 ,39.5719 ,1.23986 ,1.76342 ,17.30267 
221 ,39.7319 ,1.24146 ,1.76000 ,17.26909 
222 ,39.8919 ,1.24306 ,1.73946 ,17.06762 
223 ,40.0520 ,1.24465 ,1.73946 ,17.06762 
224 ,40.2122 ,1.24627 ,1.71209 ,16.79899 
225 ,40.3722 ,1.24787 ,1.70182 ,16.69826 
226 ,40.5323 ,1.24945 ,1.68813 ,16.56395 
227 ,40.6922 ,1.25108 ,1.67786 ,16.46321 
228 ,40.8684 ,1.25271 ,1.66418 ,16.32890 
229 ,41.0445 ,1.25446 ,1.65733 ,16.26174 
230 ,41.2045 ,1.25617 ,1.65733 ,16.26174 
231 ,41.3807 ,1.25783 ,1.64364 ,16.12743 
232 ,41.5567 ,1.25956 ,1.62311 ,15.92596 
233 ,41.7328 ,1.26133 ,1.60600 ,15.75807 
234 ,41.9092 ,1.26315 ,1.57862 ,15.48944 
235 ,42.1009 ,1.26506 ,1.59231 ,15.62375 
236 ,42.2774 ,1.26679 ,1.57520 ,15.45586 
237 ,42.4692 ,1.26873 ,1.54098 ,15.12008 
238 ,42.6612 ,1.27055 ,1.53071 ,15.01934 
239 ,42.8374 ,1.27240 ,1.53071 ,15.01934 
240 ,43.0137 ,1.27418 ,1.51702 ,14.88503 
241 ,43.1897 ,1.27596 ,1.49649 ,14.68356 
242 ,43.3818 ,1.27784 ,1.49307 ,14.64998 
243 ,43.5739 ,1.27968 ,1.45200 ,14.24704 
244 ,43.7500 ,1.28150 ,1.44516 ,14.17989 
245 ,43.9256 ,1.28328 ,1.43831 ,14.11273 
246 ,44.1021 ,1.28501 ,1.43489 ,14.07915 
247 ,44.2780 ,1.28680 ,1.41436 ,13.87768 
248 ,44.4542 ,1.28851 ,1.40067 ,13.74337 
249 ,44.6300 ,1.29032 ,1.38698 ,13.60906 
250 ,44.7904 ,1.29201 ,1.38698 ,13.60906 
251 ,44.9821 ,1.29378 ,1.36645 ,13.40759 
252 ,45.1586 ,1.29559 ,1.34249 ,13.17254 
253 ,45.3346 ,1.29740 ,1.33565 ,13.10538 
254 ,45.5106 ,1.29913 ,1.31512 ,12.90391 
255 ,45.6868 ,1.30088 ,1.31169 ,12.87033 
256 ,45.8788 ,1.30279 ,1.28089 ,12.56813 
257 ,46.0705 ,1.30475 ,1.26720 ,12.43381 
258 ,46.2471 ,1.30642 ,1.27063 ,12.46739 
259 ,46.4227 ,1.30824 ,1.26720 ,12.43381 
260 ,46.5990 ,1.30996 ,1.25009 ,12.26592 
261 ,46.7753 ,1.31171 ,1.22272 ,11.99730 
262 ,46.9672 ,1.31367 ,1.21929 ,11.96372 
263 ,47.1434 ,1.31543 ,1.21245 ,11.89656 
264 ,47.3195 ,1.31716 ,1.18165 ,11.59436 
265 ,47.4954 ,1.31896 ,1.16796 ,11.46004 
266 ,47.6872 ,1.32088 ,1.15427 ,11.32573 
267 ,47.8637 ,1.32263 ,1.15427 ,11.32573 
268 ,48.0717 ,1.32469 ,1.12347 ,11.02353 
269 ,48.2477 ,1.32648 ,1.12347 ,11.02353 
270 ,48.4398 ,1.32840 ,1.09267 ,10.72132 
271 ,48.6160 ,1.33012 ,1.07899 ,10.58701 
272 ,48.7921 ,1.33194 ,1.06187 ,10.41912 
273 ,48.9842 ,1.33379 ,1.06872 ,10.48627 
274 ,49.1760 ,1.33578 ,1.03108 ,10.11691 
275 ,49.3524 ,1.33754 ,1.02423 ,10.04976 
276 ,49.5603 ,1.33954 ,1.01739 ,9.98260 
277 ,49.7522 ,1.34145 ,1.00028 ,9.81471 
278 ,49.9445 ,1.34347 ,1.00370 ,9.84829 
279 ,50.1206 ,1.34518 ,0.98317 ,9.64682 
280 ,50.3122 ,1.34707 ,0.95579 ,9.37819 
281 ,50.4882 ,1.34888 ,0.94210 ,9.24388 
282 ,50.6484 ,1.35059 ,0.94552 ,9.27745 
283 ,50.8246 ,1.35223 ,0.93525 ,9.17672 
284 ,51.0489 ,1.35440 ,0.91814 ,9.00883 
285 ,51.2250 ,1.35623 ,0.90446 ,8.87451 
286 ,51.4012 ,1.35800 ,0.89419 ,8.77378 
287 ,51.6091 ,1.35997 ,0.86681 ,8.50515 
288 ,51.7853 ,1.36179 ,0.85997 ,8.43800 
289 ,51.9772 ,1.36375 ,0.83601 ,8.20295 
290 ,52.1532 ,1.36551 ,0.82575 ,8.10221 
291 ,52.3290 ,1.36725 ,0.83601 ,8.20295 
292 ,52.5056 ,1.36902 ,0.81548 ,8.00148 
293 ,52.7134 ,1.37101 ,0.79495 ,7.80001 
294 ,52.9056 ,1.37297 ,0.77784 ,7.63212 
295 ,53.0817 ,1.37475 ,0.76072 ,7.46423 
296 ,53.2578 ,1.37655 ,0.74704 ,7.32991 
297 ,53.4339 ,1.37843 ,0.74704 ,7.32991 
298 ,53.6099 ,1.38003 ,0.73677 ,7.22918 
299 ,53.7697 ,1.38176 ,0.72992 ,7.16202 
300 ,53.9619 ,1.38351 ,0.69913 ,6.85982 
301 ,54.1542 ,1.38539 ,0.68201 ,6.69193 
302 ,54.3461 ,1.38743 ,0.68544 ,6.72550 
303 ,54.5222 ,1.38914 ,0.66490 ,6.52403 
304 ,54.6983 ,1.39095 ,0.65121 ,6.38972 
305 ,54.8745 ,1.39269 ,0.63753 ,6.25541 
306 ,55.0506 ,1.39449 ,0.63068 ,6.18825 
307 ,55.2426 ,1.39637 ,0.61015 ,5.98678 
308 ,55.4187 ,1.39819 ,0.60330 ,5.91962 
309 ,55.5947 ,1.39990 ,0.58962 ,5.78531 
310 ,55.7709 ,1.40169 ,0.58619 ,5.75173 
311 ,55.9468 ,1.40347 ,0.57593 ,5.65100 
312 ,56.1230 ,1.40519 ,0.54171 ,5.31522 
313 ,56.2991 ,1.40698 ,0.55197 ,5.41595 
314 ,56.4911 ,1.40887 ,0.54171 ,5.31522 
315 ,56.6672 ,1.41065 ,0.53144 ,5.21448 
316 ,56.8750 ,1.41265 ,0.51775 ,5.08017 
317 ,57.0516 ,1.41451 ,0.50406 ,4.94585 
318 ,57.2273 ,1.41628 ,0.48695 ,4.77796 
319 ,57.3874 ,1.41793 ,0.46300 ,4.54291 
320 ,57.5951 ,1.41976 ,0.44931 ,4.40860 
321 ,57.7715 ,1.42167 ,0.45273 ,4.44218 
322 ,57.9480 ,1.42343 ,0.44588 ,4.37502 
323 ,58.1397 ,1.42539 ,0.41509 ,4.07282 
324 ,58.3155 ,1.42712 ,0.41851 ,4.10640 
325 ,58.4919 ,1.42884 ,0.40824 ,4.00566 
326 ,58.6839 ,1.43078 ,0.38771 ,3.80419 
327 ,58.8600 ,1.43259 ,0.36033 ,3.53557 
328 ,59.0522 ,1.43450 ,0.37744 ,3.70346 
329 ,59.2442 ,1.43632 ,0.35349 ,3.46841 
330 ,59.4682 ,1.43849 ,0.32953 ,3.23336 
331 ,59.6440 ,1.44040 ,0.31584 ,3.09905 
332 ,59.8204 ,1.44215 ,0.30900 ,3.03189 
333 ,60.0124 ,1.44412 ,0.30900 ,3.03189 
334 ,60.1885 ,1.44579 ,0.29189 ,2.86400 
335 ,60.3644 ,1.44760 ,0.27478 ,2.69611 
336 ,60.5407 ,1.44935 ,0.25767 ,2.52822 
337 ,60.7163 ,1.45113 ,0.24740 ,2.42748 
338 ,60.8927 ,1.45285 ,0.25767 ,2.52822 
339 ,61.0689 ,1.45466 ,0.24740 ,2.42748 
340 ,61.2450 ,1.45643 ,0.22344 ,2.19243 
341 ,61.4211 ,1.45815 ,0.19949 ,1.95738 
342 ,61.5972 ,1.45996 ,0.18922 ,1.85665 
343 ,61.7727 ,1.46177 ,0.19949 ,1.95738 
344 ,61.9498 ,1.46346 ,0.18580 ,1.82307 
345 ,62.1251 ,1.46521 ,0.16185 ,1.58802 
346 ,62.3013 ,1.46694 ,0.14473 ,1.42013 
347 ,62.4774 ,1.46866 ,0.13789 ,1.35298 
348 ,62.6536 ,1.47046 ,0.13447 ,1.31940 
349 ,62.8451 ,1.47234 ,0.12078 ,1.18508 
350 ,63.0217 ,1.47414 ,0.08998 ,0.88288 
351 ,63.1975 ,1.47592 ,0.08998 ,0.88288 
352 ,63.3738 ,1.47768 ,0.09682 ,0.95004 
353 ,63.5498 ,1.47948 ,0.07287 ,0.71499 
354 ,63.7256 ,1.48124 ,0.05576 ,0.54710 
355 ,63.9016 ,1.48300 ,0.03180 ,0.31205 
356 ,64.0781 ,1.48470 ,0.05234 ,0.51352 
357 ,64.2542 ,1.48652 ,0.03180 ,0.31205 
358 ,64.4301 ,1.48828 ,0.02154 ,0.21131 
359 ,64.6063 ,1.48996 ,0.00100 ,0.00984 
360 ,64.7823 ,1.49176 ,-0.01611 ,-0.15805 
361 ,64.9421 ,1.49347 ,-0.00242 ,-0.02373 
362 ,65.1184 ,1.49510 ,-0.03322 ,-0.32594 
363 ,65.2945 ,1.49688 ,-0.01611 ,-0.15805 
364 ,65.4706 ,1.49866 ,-0.02980 ,-0.29236 
365 ,65.6466 ,1.50041 ,-0.06402 ,-0.62814 
366 ,65.8227 ,1.50216 ,-0.06402 ,-0.62814 
367 ,65.9987 ,1.50395 ,-0.08113 ,-0.79604 
368 ,66.1909 ,1.50580 ,-0.09482 ,-0.93035 
369 ,66.3670 ,1.50756 ,-0.11193 ,-1.09824 
370 ,66.5430 ,1.50933 ,-0.11877 ,-1.16540 
371 ,66.7192 ,1.51114 ,-0.11535 ,-1.13182 
372 ,66.8952 ,1.51288 ,-0.11535 ,-1.13182 
373 ,67.0711 ,1.51458 ,-0.15984 ,-1.56834 
374 ,67.2634 ,1.51650 ,-0.15984 ,-1.56834 
375 ,67.4553 ,1.51850 ,-0.15984 ,-1.56834 
376 ,67.6314 ,1.52020 ,-0.19064 ,-1.87054 
377 ,67.8235 ,1.52204 ,-0.20433 ,-2.00485 
378 ,68.0157 ,1.52406 ,-0.20433 ,-2.00485 
379 ,68.1754 ,1.52577 ,-0.23170 ,-2.27348 
380 ,68.3520 ,1.52742 ,-0.22486 ,-2.20632 
381 ,68.5440 ,1.52936 ,-0.23855 ,-2.34064 
382 ,68.7200 ,1.53112 ,-0.23170 ,-2.27348 
383 ,68.8962 ,1.53288 ,-0.25566 ,-2.50853 
384 ,69.0722 ,1.53470 ,-0.26935 ,-2.64284 
385 ,69.2642 ,1.53658 ,-0.27961 ,-2.74358 
386 ,69.4402 ,1.53830 ,-0.28988 ,-2.84431 
387 ,69.6323 ,1.54014 ,-0.30357 ,-2.97863 
388 ,69.8082 ,1.54201 ,-0.31726 ,-3.11294 
389 ,70.0006 ,1.54390 ,-0.31726 ,-3.11294 
390 ,70.1767 ,1.54575 ,-0.34121 ,-3.34799 
391 ,70.3526 ,1.54743 ,-0.34464 ,-3.38156 
392 ,70.5286 ,1.54919 ,-0.36517 ,-3.58303 
393 ,70.7046 ,1.55096 ,-0.37201 ,-3.65019 
394 ,70.8808 ,1.55275 ,-0.36517 ,-3.58303 
395 ,71.0730 ,1.55461 ,-0.39939 ,-3.91882 
396 ,71.2490 ,1.55644 ,-0.41308 ,-4.05313 
397 ,71.4251 ,1.55811 ,-0.40966 ,-4.01955 
398 ,71.6012 ,1.55995 ,-0.40966 ,-4.01955 
399 ,71.7772 ,1.56170 ,-0.43019 ,-4.22102 
400 ,71.9694 ,1.56356 ,-0.44388 ,-4.35534 
401 ,72.1455 ,1.56539 ,-0.46783 ,-4.59038 
402 ,72.3374 ,1.56730 ,-0.46099 ,-4.52323 
403 ,72.5135 ,1.56904 ,-0.46783 ,-4.59038 
404 ,72.7056 ,1.57100 ,-0.48494 ,-4.75828 
405 ,72.8818 ,1.57264 ,-0.48837 ,-4.79185 
406 ,73.1057 ,1.57482 ,-0.51574 ,-5.06048 
407 ,73.2659 ,1.57665 ,-0.51232 ,-5.02690 
408 ,73.4415 ,1.57831 ,-0.52601 ,-5.16121 
409 ,73.6178 ,1.58011 ,-0.53285 ,-5.22837 
410 ,73.7942 ,1.58186 ,-0.56023 ,-5.49700 
411 ,73.9701 ,1.58365 ,-0.57734 ,-5.66489 
412 ,74.1622 ,1.58553 ,-0.56365 ,-5.53058 
413 ,74.3542 ,1.58735 ,-0.57050 ,-5.59773 
414 ,74.5459 ,1.58936 ,-0.59788 ,-5.86636 
415 ,74.7223 ,1.59107 ,-0.59788 ,-5.86636 
416 ,74.8980 ,1.59283 ,-0.62183 ,-6.10141 
417 ,75.0741 ,1.59460 ,-0.63552 ,-6.23572 
418 ,75.2503 ,1.59637 ,-0.65263 ,-6.40361 
419 ,75.4262 ,1.59812 ,-0.64579 ,-6.33646 
420 ,75.6023 ,1.59996 ,-0.64921 ,-6.37003 
421 ,75.7787 ,1.60165 ,-0.65947 ,-6.47077 
422 ,75.9548 ,1.60344 ,-0.68343 ,-6.70582 
423 ,76.1630 ,1.60544 ,-0.68001 ,-6.67224 
424 ,76.3550 ,1.60744 ,-0.70054 ,-6.87371 
425 ,76.5312 ,1.60920 ,-0.71765 ,-7.04160 
426 ,76.7070 ,1.61095 ,-0.73134 ,-7.17591 
427 ,76.8833 ,1.61274 ,-0.71765 ,-7.04160 
428 ,77.0592 ,1.61446 ,-0.73818 ,-7.24307 
429 ,77.2353 ,1.61620 ,-0.75187 ,-7.37738 
430 ,77.4114 ,1.61800 ,-0.76214 ,-7.47812 
431 ,77.6036 ,1.61975 ,-0.77241 ,-7.57885 
432 ,77.7957 ,1.62179 ,-0.79636 ,-7.81390 
433 ,77.9717 ,1.62363 ,-0.79636 ,-7.81390 
434 ,78.1638 ,1.62552 ,-0.78610 ,-7.71317 
435 ,78.3398 ,1.62729 ,-0.81347 ,-7.98179 
436 ,78.5160 ,1.62904 ,-0.82716 ,-8.11611 
437 ,78.6920 ,1.63077 ,-0.84427 ,-8.28400 
438 ,78.8841 ,1.63271 ,-0.83743 ,-8.21684 
439 ,79.0919 ,1.63468 ,-0.86481 ,-8.48547 
440 ,79.2682 ,1.63657 ,-0.86481 ,-8.48547 
441 ,79.4602 ,1.63844 ,-0.87165 ,-8.55262 
442 ,79.6525 ,1.64026 ,-0.88534 ,-8.68694 
443 ,79.8280 ,1.64218 ,-0.88192 ,-8.65336 
444 ,80.0045 ,1.64388 ,-0.89903 ,-8.82125 
445 ,80.2125 ,1.64589 ,-0.92298 ,-9.05630 
446 ,80.3886 ,1.64774 ,-0.91614 ,-8.98914 
447 ,80.5646 ,1.64955 ,-0.90587 ,-8.88841 
448 ,80.7568 ,1.65134 ,-0.94694 ,-9.29135 
449 ,80.9487 ,1.65329 ,-0.94351 ,-9.25777 
450 ,81.1248 ,1.65508 ,-0.95378 ,-9.35850 
451 ,81.3010 ,1.65689 ,-0.96405 ,-9.45924 
452 ,81.4932 ,1.65882 ,-0.98800 ,-9.69429 
453 ,81.6691 ,1.66058 ,-0.96747 ,-9.49282 
454 ,81.8450 ,1.66230 ,-0.99485 ,-9.76144 
455 ,82.0212 ,1.66409 ,-1.00169 ,-9.82860 
456 ,82.1972 ,1.66584 ,-1.03249 ,-10.13080 
457 ,82.3734 ,1.66760 ,-1.02222 ,-10.03007 
458 ,82.5653 ,1.66946 ,-1.02222 ,-10.03007 
459 ,82.7417 ,1.67132 ,-1.04618 ,-10.26512 
460 ,82.9174 ,1.67303 ,-1.05302 ,-10.33227 
461 ,83.1097 ,1.67491 ,-1.05302 ,-10.33227 
462 ,83.2856 ,1.67671 ,-1.05987 ,-10.39943 
