Data stamp = , 29-03-2022 18:28:57 187

Calibration Values: 
Slope = , 26.54 , g/V 
Offset Voltage at no contact = , -0.501760 , V 

No , Time , Stage Position ,   Mass , Force 
   ,  (s) ,      (mm)      ,   (g)  , (mN)  

1 ,0.0000 ,0.84946 ,4.99052 ,48.96701 
2 ,0.2131 ,0.84954 ,4.99052 ,48.96701 
3 ,0.5019 ,0.85025 ,4.99394 ,49.00058 
4 ,0.6934 ,0.85159 ,4.98710 ,48.93343 
5 ,0.8856 ,0.85308 ,5.00421 ,49.10132 
6 ,1.0616 ,0.85480 ,4.98710 ,48.93343 
7 ,1.2533 ,0.85672 ,5.02132 ,49.26921 
8 ,1.4299 ,0.85837 ,5.01448 ,49.20205 
9 ,1.6058 ,0.86028 ,4.99394 ,49.00058 
10 ,1.7819 ,0.86207 ,4.97683 ,48.83269 
11 ,1.9736 ,0.86395 ,4.94946 ,48.56407 
12 ,2.1498 ,0.86573 ,4.93577 ,48.42975 
13 ,2.3258 ,0.86745 ,4.92550 ,48.32902 
14 ,2.4859 ,0.86920 ,4.91181 ,48.19471 
15 ,2.6621 ,0.87083 ,4.88786 ,47.95966 
16 ,2.8381 ,0.87262 ,4.87075 ,47.79177 
17 ,2.9986 ,0.87429 ,4.84679 ,47.55672 
18 ,3.1746 ,0.87590 ,4.85364 ,47.62387 
19 ,3.3503 ,0.87768 ,4.82968 ,47.38883 
20 ,3.5267 ,0.87945 ,4.85021 ,47.59030 
21 ,3.7187 ,0.88138 ,4.79888 ,47.08662 
22 ,3.8949 ,0.88319 ,4.78519 ,46.95231 
23 ,4.0868 ,0.88506 ,4.78861 ,46.98589 
24 ,4.2627 ,0.88682 ,4.76808 ,46.78442 
25 ,4.4391 ,0.88860 ,4.73386 ,46.44863 
26 ,4.5990 ,0.89032 ,4.73044 ,46.41506 
27 ,4.7752 ,0.89194 ,4.71333 ,46.24716 
28 ,4.9513 ,0.89382 ,4.71333 ,46.24716 
29 ,5.1272 ,0.89543 ,4.70648 ,46.18001 
30 ,5.3196 ,0.89736 ,4.66884 ,45.81065 
31 ,5.4955 ,0.89918 ,4.65857 ,45.70991 
32 ,5.6715 ,0.90090 ,4.64488 ,45.57560 
33 ,5.8635 ,0.90280 ,4.63462 ,45.47486 
34 ,6.0396 ,0.90456 ,4.59697 ,45.10550 
35 ,6.2158 ,0.90632 ,4.58671 ,45.00477 
36 ,6.4078 ,0.90825 ,4.57302 ,44.87045 
37 ,6.5679 ,0.91003 ,4.55933 ,44.73614 
38 ,6.7438 ,0.91167 ,4.54564 ,44.60183 
39 ,6.9201 ,0.91341 ,4.51484 ,44.29962 
40 ,7.1119 ,0.91533 ,4.50115 ,44.16531 
41 ,7.2883 ,0.91707 ,4.48404 ,43.99742 
42 ,7.4483 ,0.91878 ,4.46693 ,43.82953 
43 ,7.6083 ,0.92037 ,4.44298 ,43.59448 
44 ,7.7844 ,0.92201 ,4.43613 ,43.52732 
45 ,7.9606 ,0.92380 ,4.40191 ,43.19154 
46 ,8.1526 ,0.92569 ,4.37795 ,42.95649 
47 ,8.3286 ,0.92747 ,4.37111 ,42.88933 
48 ,8.5052 ,0.92922 ,4.35742 ,42.75502 
49 ,8.6806 ,0.93113 ,4.32662 ,42.45282 
50 ,8.8728 ,0.93289 ,4.32662 ,42.45282 
51 ,9.0488 ,0.93469 ,4.31636 ,42.35208 
52 ,9.2249 ,0.93654 ,4.27529 ,41.94914 
53 ,9.4010 ,0.93821 ,4.26502 ,41.84841 
54 ,9.5771 ,0.93995 ,4.25476 ,41.74767 
55 ,9.7693 ,0.94183 ,4.25476 ,41.74767 
56 ,9.9453 ,0.94365 ,4.23422 ,41.54620 
57 ,10.1694 ,0.94574 ,4.19316 ,41.14326 
58 ,10.3453 ,0.94775 ,4.18289 ,41.04253 
59 ,10.5215 ,0.94938 ,4.16578 ,40.87464 
60 ,10.6976 ,0.95119 ,4.14183 ,40.63959 
61 ,10.8897 ,0.95304 ,4.15551 ,40.77390 
62 ,11.0817 ,0.95503 ,4.12129 ,40.43812 
63 ,11.2737 ,0.95690 ,4.10760 ,40.30380 
64 ,11.4658 ,0.95875 ,4.08365 ,40.06876 
65 ,11.6420 ,0.96062 ,4.06312 ,39.86729 
66 ,11.8181 ,0.96234 ,4.04943 ,39.73297 
67 ,11.9942 ,0.96410 ,4.03916 ,39.63224 
68 ,12.1862 ,0.96602 ,4.01863 ,39.43077 
69 ,12.3784 ,0.96793 ,3.99809 ,39.22930 
70 ,12.5703 ,0.96987 ,3.98441 ,39.09499 
71 ,12.7304 ,0.97159 ,3.96045 ,38.85994 
72 ,12.9062 ,0.97320 ,3.94676 ,38.72562 
73 ,13.0987 ,0.97508 ,3.92965 ,38.55773 
74 ,13.2745 ,0.97694 ,3.89885 ,38.25553 
75 ,13.4669 ,0.97878 ,3.87490 ,38.02048 
76 ,13.6588 ,0.98076 ,3.88516 ,38.12122 
77 ,13.8509 ,0.98268 ,3.87147 ,37.98690 
78 ,14.0427 ,0.98455 ,3.83041 ,37.58396 
79 ,14.2191 ,0.98637 ,3.82014 ,37.48323 
80 ,14.4110 ,0.98825 ,3.81672 ,37.44965 
81 ,14.6034 ,0.99021 ,3.78592 ,37.14744 
82 ,14.7792 ,0.99197 ,3.75854 ,36.87882 
83 ,14.9550 ,0.99388 ,3.76539 ,36.94597 
84 ,15.1314 ,0.99544 ,3.74485 ,36.74450 
85 ,15.3073 ,0.99733 ,3.70721 ,36.37514 
86 ,15.4835 ,0.99899 ,3.70037 ,36.30799 
87 ,15.6757 ,1.00087 ,3.70721 ,36.37514 
88 ,15.8516 ,1.00265 ,3.67983 ,36.10652 
89 ,16.0278 ,1.00458 ,3.64903 ,35.80431 
90 ,16.2040 ,1.00617 ,3.63534 ,35.67000 
91 ,16.3799 ,1.00794 ,3.62166 ,35.53569 
92 ,16.5560 ,1.00974 ,3.60454 ,35.36779 
93 ,16.7320 ,1.01151 ,3.59770 ,35.30064 
94 ,16.9241 ,1.01341 ,3.57375 ,35.06559 
95 ,17.0838 ,1.01516 ,3.54979 ,34.83054 
96 ,17.2439 ,1.01670 ,3.53952 ,34.72981 
97 ,17.4040 ,1.01831 ,3.53268 ,34.66265 
98 ,17.5640 ,1.01991 ,3.50872 ,34.42760 
99 ,17.7240 ,1.02153 ,3.49161 ,34.25971 
100 ,17.8841 ,1.02312 ,3.48135 ,34.15898 
101 ,18.0442 ,1.02472 ,3.46424 ,33.99108 
102 ,18.2202 ,1.02634 ,3.44713 ,33.82319 
103 ,18.3803 ,1.02807 ,3.43686 ,33.72246 
104 ,18.5403 ,1.02968 ,3.42317 ,33.58814 
105 ,18.7004 ,1.03128 ,3.42317 ,33.58814 
106 ,18.8605 ,1.03287 ,3.40948 ,33.45383 
107 ,19.0206 ,1.03447 ,3.38895 ,33.25236 
108 ,19.1806 ,1.03607 ,3.36842 ,33.05089 
109 ,19.3407 ,1.03766 ,3.36157 ,32.98374 
110 ,19.5168 ,1.03937 ,3.35130 ,32.88300 
111 ,19.6768 ,1.04104 ,3.34446 ,32.81584 
112 ,19.8369 ,1.04262 ,3.32393 ,32.61437 
113 ,19.9971 ,1.04422 ,3.30682 ,32.44648 
114 ,20.1569 ,1.04584 ,3.29313 ,32.31217 
115 ,20.3331 ,1.04743 ,3.27944 ,32.17786 
116 ,20.4932 ,1.04919 ,3.25206 ,31.90923 
117 ,20.6531 ,1.05081 ,3.24864 ,31.87565 
118 ,20.8132 ,1.05238 ,3.23495 ,31.74134 
119 ,20.9733 ,1.05400 ,3.20415 ,31.43913 
120 ,21.1334 ,1.05561 ,3.19731 ,31.37198 
121 ,21.2935 ,1.05721 ,3.18704 ,31.27124 
122 ,21.4536 ,1.05878 ,3.16993 ,31.10335 
123 ,21.6136 ,1.06042 ,3.16309 ,31.03619 
124 ,21.7898 ,1.06202 ,3.15282 ,30.93546 
125 ,21.9821 ,1.06394 ,3.11518 ,30.56610 
126 ,22.1580 ,1.06572 ,3.12544 ,30.66683 
127 ,22.3502 ,1.06762 ,3.08438 ,30.26389 
128 ,22.5264 ,1.06937 ,3.07069 ,30.12958 
129 ,22.7184 ,1.07130 ,3.06384 ,30.06242 
130 ,22.9103 ,1.07324 ,3.04331 ,29.86095 
131 ,23.1025 ,1.07512 ,3.03304 ,29.76022 
132 ,23.2783 ,1.07692 ,3.01935 ,29.62590 
133 ,23.4544 ,1.07864 ,3.00909 ,29.52517 
134 ,23.6467 ,1.08056 ,2.97144 ,29.15581 
135 ,23.8226 ,1.08235 ,2.95776 ,29.02150 
136 ,24.0148 ,1.08429 ,2.95091 ,28.95434 
137 ,24.2067 ,1.08616 ,2.90642 ,28.51782 
138 ,24.3988 ,1.08805 ,2.92696 ,28.71929 
139 ,24.5751 ,1.08986 ,2.91327 ,28.58498 
140 ,24.7672 ,1.09178 ,2.87905 ,28.24919 
141 ,24.9432 ,1.09358 ,2.87220 ,28.18204 
142 ,25.1353 ,1.09547 ,2.86193 ,28.08130 
143 ,25.3113 ,1.09723 ,2.83456 ,27.81268 
144 ,25.4711 ,1.09894 ,2.81060 ,27.57763 
145 ,25.6474 ,1.10062 ,2.80376 ,27.51047 
146 ,25.8235 ,1.10235 ,2.77638 ,27.24185 
147 ,26.0003 ,1.10413 ,2.77980 ,27.27542 
148 ,26.1917 ,1.10605 ,2.75585 ,27.04038 
149 ,26.3679 ,1.10779 ,2.74216 ,26.90606 
150 ,26.5436 ,1.10955 ,2.73189 ,26.80533 
151 ,26.7198 ,1.11134 ,2.71136 ,26.60386 
152 ,26.9118 ,1.11325 ,2.69767 ,26.46954 
153 ,27.0882 ,1.11502 ,2.68056 ,26.30165 
154 ,27.2800 ,1.11690 ,2.67372 ,26.23450 
155 ,27.4723 ,1.11876 ,2.64976 ,25.99945 
156 ,27.6483 ,1.12076 ,2.63949 ,25.89871 
157 ,27.8244 ,1.12232 ,2.61896 ,25.69724 
158 ,28.0003 ,1.12414 ,2.61212 ,25.63009 
159 ,28.1763 ,1.12585 ,2.60185 ,25.52935 
160 ,28.3526 ,1.12764 ,2.58132 ,25.32788 
161 ,28.5447 ,1.12956 ,2.56763 ,25.19357 
162 ,28.7205 ,1.13144 ,2.54710 ,24.99210 
163 ,28.9125 ,1.13318 ,2.52656 ,24.79063 
164 ,29.0728 ,1.13496 ,2.51287 ,24.65632 
165 ,29.2489 ,1.13659 ,2.49234 ,24.45485 
166 ,29.4411 ,1.13850 ,2.49918 ,24.52200 
167 ,29.6330 ,1.14046 ,2.46496 ,24.18622 
168 ,29.8252 ,1.14230 ,2.45127 ,24.05191 
169 ,30.0015 ,1.14412 ,2.45127 ,24.05191 
170 ,30.1774 ,1.14590 ,2.43416 ,23.88402 
171 ,30.3694 ,1.14775 ,2.40336 ,23.58181 
172 ,30.5454 ,1.14968 ,2.40336 ,23.58181 
173 ,30.7374 ,1.15144 ,2.39310 ,23.48108 
174 ,30.9294 ,1.15338 ,2.37256 ,23.27961 
175 ,31.1214 ,1.15523 ,2.35203 ,23.07814 
176 ,31.2978 ,1.15714 ,2.32465 ,22.80951 
177 ,31.4739 ,1.15882 ,2.31781 ,22.74235 
178 ,31.6658 ,1.16075 ,2.30412 ,22.60804 
179 ,31.8255 ,1.16246 ,2.29728 ,22.54088 
180 ,32.0026 ,1.16411 ,2.28359 ,22.40657 
181 ,32.1940 ,1.16602 ,2.25963 ,22.17152 
182 ,32.3702 ,1.16781 ,2.24594 ,22.03721 
183 ,32.5463 ,1.16960 ,2.22883 ,21.86932 
184 ,32.7384 ,1.17145 ,2.23568 ,21.93647 
185 ,32.9302 ,1.17339 ,2.19461 ,21.53353 
186 ,33.1065 ,1.17514 ,2.18777 ,21.46638 
187 ,33.2983 ,1.17705 ,2.18092 ,21.39922 
188 ,33.4745 ,1.17880 ,2.15012 ,21.09702 
189 ,33.6667 ,1.18077 ,2.13644 ,20.96270 
190 ,33.8427 ,1.18253 ,2.13644 ,20.96270 
191 ,34.0187 ,1.18426 ,2.12617 ,20.86197 
192 ,34.2108 ,1.18616 ,2.09537 ,20.55976 
193 ,34.4030 ,1.18810 ,2.09879 ,20.59334 
194 ,34.5790 ,1.18989 ,2.08168 ,20.42545 
195 ,34.7711 ,1.19173 ,2.05430 ,20.15682 
196 ,34.9470 ,1.19359 ,2.04404 ,20.05609 
197 ,35.1391 ,1.19547 ,2.02350 ,19.85462 
198 ,35.3312 ,1.19740 ,2.00297 ,19.65315 
199 ,35.5229 ,1.19931 ,1.99955 ,19.61957 
200 ,35.6829 ,1.20106 ,1.98928 ,19.51884 
201 ,35.8430 ,1.20264 ,1.98928 ,19.51884 
202 ,36.0194 ,1.20428 ,1.97217 ,19.35094 
203 ,36.2115 ,1.20613 ,1.94137 ,19.04874 
204 ,36.4038 ,1.20810 ,1.94137 ,19.04874 
205 ,36.5958 ,1.21003 ,1.91057 ,18.74654 
206 ,36.7718 ,1.21175 ,1.89004 ,18.54507 
207 ,36.9638 ,1.21363 ,1.90031 ,18.64580 
208 ,37.1398 ,1.21559 ,1.86608 ,18.31002 
209 ,37.3161 ,1.21720 ,1.85924 ,18.24286 
210 ,37.5082 ,1.21913 ,1.85240 ,18.17570 
211 ,37.6842 ,1.22092 ,1.83871 ,18.04139 
212 ,37.8604 ,1.22269 ,1.82502 ,17.90708 
213 ,38.0523 ,1.22452 ,1.80449 ,17.70561 
214 ,38.2284 ,1.22645 ,1.79422 ,17.60487 
215 ,38.4046 ,1.22811 ,1.77711 ,17.43698 
216 ,38.5806 ,1.22986 ,1.76000 ,17.26909 
217 ,38.7726 ,1.23182 ,1.74289 ,17.10120 
218 ,38.9645 ,1.23369 ,1.73946 ,17.06762 
219 ,39.1409 ,1.23547 ,1.72920 ,16.96689 
220 ,39.3328 ,1.23732 ,1.70182 ,16.69826 
221 ,39.5090 ,1.23916 ,1.70182 ,16.69826 
222 ,39.7012 ,1.24107 ,1.68813 ,16.56395 
223 ,39.8930 ,1.24299 ,1.64707 ,16.16101 
224 ,40.0693 ,1.24475 ,1.64707 ,16.16101 
225 ,40.2450 ,1.24655 ,1.63338 ,16.02669 
226 ,40.4212 ,1.24828 ,1.62653 ,15.95954 
227 ,40.6134 ,1.25019 ,1.59916 ,15.69091 
228 ,40.7895 ,1.25200 ,1.58889 ,15.59018 
229 ,40.9656 ,1.25373 ,1.59231 ,15.62375 
230 ,41.1416 ,1.25550 ,1.57862 ,15.48944 
231 ,41.3174 ,1.25721 ,1.54440 ,15.15366 
232 ,41.4935 ,1.25899 ,1.53071 ,15.01934 
233 ,41.6860 ,1.26084 ,1.53756 ,15.08650 
234 ,41.8618 ,1.26270 ,1.52729 ,14.98577 
235 ,42.0540 ,1.26462 ,1.48622 ,14.58283 
236 ,42.2459 ,1.26657 ,1.49649 ,14.68356 
237 ,42.4220 ,1.26837 ,1.45542 ,14.28062 
238 ,42.5983 ,1.27004 ,1.44516 ,14.17989 
239 ,42.7903 ,1.27192 ,1.43831 ,14.11273 
240 ,42.9824 ,1.27385 ,1.43147 ,14.04557 
241 ,43.1586 ,1.27565 ,1.40751 ,13.81053 
242 ,43.3505 ,1.27755 ,1.39040 ,13.64263 
243 ,43.5266 ,1.27928 ,1.38014 ,13.54190 
244 ,43.7188 ,1.28124 ,1.36987 ,13.44116 
245 ,43.9107 ,1.28316 ,1.36303 ,13.37401 
246 ,44.0870 ,1.28492 ,1.34934 ,13.23969 
247 ,44.2788 ,1.28677 ,1.31169 ,12.87033 
248 ,44.4548 ,1.28858 ,1.31169 ,12.87033 
249 ,44.6312 ,1.29036 ,1.29458 ,12.70244 
250 ,44.8232 ,1.29224 ,1.29458 ,12.70244 
251 ,45.0152 ,1.29411 ,1.26036 ,12.36666 
252 ,45.1913 ,1.29597 ,1.27063 ,12.46739 
253 ,45.3673 ,1.29771 ,1.25694 ,12.33308 
254 ,45.5432 ,1.29945 ,1.22956 ,12.06445 
255 ,45.7195 ,1.30120 ,1.20561 ,11.82941 
256 ,45.8956 ,1.30304 ,1.18165 ,11.59436 
257 ,46.0715 ,1.30473 ,1.19192 ,11.69509 
258 ,46.2476 ,1.30648 ,1.19534 ,11.72867 
259 ,46.4398 ,1.30843 ,1.14743 ,11.25857 
260 ,46.6156 ,1.31033 ,1.14058 ,11.19142 
261 ,46.7920 ,1.31199 ,1.13374 ,11.12426 
262 ,46.9680 ,1.31374 ,1.13032 ,11.09068 
263 ,47.1441 ,1.31547 ,1.12005 ,10.98995 
264 ,47.3201 ,1.31724 ,1.10294 ,10.82206 
265 ,47.4962 ,1.31900 ,1.08241 ,10.62059 
266 ,47.6561 ,1.32072 ,1.07556 ,10.55343 
267 ,47.8324 ,1.32231 ,1.06530 ,10.45270 
268 ,48.0085 ,1.32413 ,1.04476 ,10.25123 
269 ,48.1844 ,1.32591 ,1.03450 ,10.15049 
270 ,48.3606 ,1.32761 ,1.02423 ,10.04976 
271 ,48.5686 ,1.32966 ,1.01054 ,9.91544 
272 ,48.7287 ,1.33146 ,1.00028 ,9.81471 
273 ,48.9049 ,1.33307 ,0.97974 ,9.61324 
274 ,49.0969 ,1.33502 ,0.95237 ,9.34461 
275 ,49.2888 ,1.33691 ,0.96263 ,9.44535 
276 ,49.4809 ,1.33878 ,0.93183 ,9.14314 
277 ,49.6572 ,1.34062 ,0.91814 ,9.00883 
278 ,49.8331 ,1.34247 ,0.91814 ,9.00883 
279 ,50.0253 ,1.34420 ,0.89761 ,8.80736 
280 ,50.2015 ,1.34605 ,0.87366 ,8.57231 
281 ,50.3774 ,1.34782 ,0.85654 ,8.40442 
282 ,50.5696 ,1.34968 ,0.86339 ,8.47158 
283 ,50.7613 ,1.35162 ,0.84970 ,8.33726 
284 ,50.9373 ,1.35340 ,0.82575 ,8.10221 
285 ,51.1135 ,1.35513 ,0.82232 ,8.06864 
286 ,51.2896 ,1.35691 ,0.79837 ,7.83359 
287 ,51.4658 ,1.35868 ,0.79495 ,7.80001 
288 ,51.6420 ,1.36044 ,0.76757 ,7.53138 
289 ,51.8177 ,1.36222 ,0.75046 ,7.36349 
290 ,52.0100 ,1.36407 ,0.76072 ,7.46423 
291 ,52.2020 ,1.36599 ,0.73677 ,7.22918 
292 ,52.4102 ,1.36805 ,0.73677 ,7.22918 
293 ,52.5863 ,1.36990 ,0.72650 ,7.12844 
294 ,52.7782 ,1.37178 ,0.70255 ,6.89340 
295 ,52.9383 ,1.37356 ,0.68886 ,6.75908 
296 ,53.1145 ,1.37512 ,0.68201 ,6.69193 
297 ,53.3065 ,1.37704 ,0.66490 ,6.52403 
298 ,53.4826 ,1.37882 ,0.63410 ,6.22183 
299 ,53.6586 ,1.38061 ,0.62384 ,6.12109 
300 ,53.8508 ,1.38254 ,0.62726 ,6.15467 
301 ,54.0109 ,1.38427 ,0.62384 ,6.12109 
302 ,54.1869 ,1.38589 ,0.59988 ,5.88605 
303 ,54.3791 ,1.38777 ,0.58619 ,5.75173 
304 ,54.5551 ,1.38956 ,0.57935 ,5.68458 
305 ,54.7473 ,1.39153 ,0.56224 ,5.51668 
306 ,54.9391 ,1.39339 ,0.53828 ,5.28164 
307 ,55.1314 ,1.39533 ,0.55539 ,5.44953 
308 ,55.3234 ,1.39718 ,0.51091 ,5.01301 
309 ,55.5155 ,1.39914 ,0.51433 ,5.04659 
310 ,55.7077 ,1.40106 ,0.49722 ,4.87870 
311 ,55.8997 ,1.40300 ,0.47326 ,4.64365 
312 ,56.0756 ,1.40475 ,0.47668 ,4.67723 
313 ,56.2516 ,1.40648 ,0.47326 ,4.64365 
314 ,56.4439 ,1.40844 ,0.44246 ,4.34144 
315 ,56.6358 ,1.41035 ,0.42535 ,4.17355 
316 ,56.8119 ,1.41209 ,0.42877 ,4.20713 
317 ,56.9880 ,1.41386 ,0.40824 ,4.00566 
318 ,57.1480 ,1.41561 ,0.39113 ,3.83777 
319 ,57.3240 ,1.41724 ,0.37744 ,3.70346 
320 ,57.5006 ,1.41900 ,0.37744 ,3.70346 
321 ,57.6922 ,1.42091 ,0.36033 ,3.53557 
322 ,57.8684 ,1.42268 ,0.35349 ,3.46841 
323 ,58.0445 ,1.42445 ,0.33295 ,3.26694 
324 ,58.2045 ,1.42617 ,0.31926 ,3.13263 
325 ,58.3967 ,1.42787 ,0.32611 ,3.19978 
326 ,58.5889 ,1.42985 ,0.31584 ,3.09905 
327 ,58.7648 ,1.43166 ,0.28162 ,2.76326 
328 ,58.9568 ,1.43348 ,0.28504 ,2.79684 
329 ,59.1329 ,1.43536 ,0.28162 ,2.76326 
330 ,59.3087 ,1.43722 ,0.25082 ,2.46106 
331 ,59.4851 ,1.43880 ,0.24740 ,2.42748 
332 ,59.6611 ,1.44060 ,0.22344 ,2.19243 
333 ,59.8532 ,1.44248 ,0.23713 ,2.32675 
334 ,60.0452 ,1.44444 ,0.20633 ,2.02454 
335 ,60.2372 ,1.44635 ,0.20291 ,1.99096 
336 ,60.4294 ,1.44824 ,0.18580 ,1.82307 
337 ,60.6215 ,1.45017 ,0.16869 ,1.65518 
338 ,60.8136 ,1.45210 ,0.17553 ,1.72234 
339 ,60.9897 ,1.45390 ,0.15842 ,1.55445 
340 ,61.1658 ,1.45565 ,0.14131 ,1.38655 
341 ,61.3418 ,1.45751 ,0.13105 ,1.28582 
342 ,61.5178 ,1.45913 ,0.10367 ,1.01719 
343 ,61.6940 ,1.46100 ,0.10709 ,1.05077 
344 ,61.8861 ,1.46283 ,0.08314 ,0.81572 
345 ,62.0621 ,1.46471 ,0.08314 ,0.81572 
346 ,62.2383 ,1.46636 ,0.07971 ,0.78214 
347 ,62.4142 ,1.46823 ,0.05576 ,0.54710 
348 ,62.5902 ,1.46989 ,0.05576 ,0.54710 
349 ,62.7501 ,1.47164 ,0.04207 ,0.41278 
350 ,62.9102 ,1.47318 ,0.02154 ,0.21131 
351 ,63.0865 ,1.47487 ,0.02154 ,0.21131 
352 ,63.2787 ,1.47674 ,0.01469 ,0.14416 
353 ,63.4545 ,1.47863 ,0.00100 ,0.00984 
354 ,63.6308 ,1.48026 ,0.00100 ,0.00984 
355 ,63.8070 ,1.48204 ,-0.03322 ,-0.32594 
356 ,63.9990 ,1.48392 ,-0.03664 ,-0.35952 
357 ,64.1750 ,1.48577 ,-0.04348 ,-0.42667 
358 ,64.3670 ,1.48757 ,-0.07428 ,-0.72888 
359 ,64.5431 ,1.48940 ,-0.07771 ,-0.76246 
360 ,64.7350 ,1.49133 ,-0.07086 ,-0.69530 
361 ,64.9112 ,1.49309 ,-0.07771 ,-0.76246 
362 ,65.1035 ,1.49500 ,-0.10166 ,-0.99751 
363 ,65.2952 ,1.49691 ,-0.09482 ,-0.93035 
364 ,65.4713 ,1.49866 ,-0.10508 ,-1.03108 
365 ,65.6476 ,1.50042 ,-0.11535 ,-1.13182 
366 ,65.8397 ,1.50235 ,-0.12562 ,-1.23255 
367 ,66.0318 ,1.50427 ,-0.13588 ,-1.33329 
368 ,66.2239 ,1.50617 ,-0.17011 ,-1.66907 
369 ,66.4160 ,1.50809 ,-0.15642 ,-1.53476 
370 ,66.5759 ,1.50987 ,-0.16668 ,-1.63549 
371 ,66.7520 ,1.51146 ,-0.18722 ,-1.83696 
372 ,66.9280 ,1.51318 ,-0.19748 ,-1.93770 
373 ,67.1042 ,1.51501 ,-0.21802 ,-2.13917 
374 ,67.2962 ,1.51691 ,-0.21459 ,-2.10559 
375 ,67.4883 ,1.51882 ,-0.24881 ,-2.44137 
376 ,67.6643 ,1.52061 ,-0.24881 ,-2.44137 
377 ,67.8565 ,1.52253 ,-0.24197 ,-2.37422 
378 ,68.0483 ,1.52447 ,-0.27277 ,-2.67642 
379 ,68.2246 ,1.52625 ,-0.28988 ,-2.84431 
380 ,68.4167 ,1.52810 ,-0.28304 ,-2.77716 
381 ,68.6087 ,1.53003 ,-0.30699 ,-3.01220 
382 ,68.7849 ,1.53180 ,-0.30357 ,-2.97863 
383 ,68.9610 ,1.53355 ,-0.33095 ,-3.24725 
384 ,69.1370 ,1.53543 ,-0.33437 ,-3.28083 
385 ,69.3130 ,1.53707 ,-0.34121 ,-3.34799 
386 ,69.5058 ,1.53899 ,-0.37201 ,-3.65019 
387 ,69.6809 ,1.54090 ,-0.36175 ,-3.54946 
388 ,69.8574 ,1.54249 ,-0.37544 ,-3.68377 
389 ,70.0332 ,1.54428 ,-0.38570 ,-3.78450 
390 ,70.2093 ,1.54604 ,-0.39939 ,-3.91882 
391 ,70.4015 ,1.54791 ,-0.41650 ,-4.08671 
392 ,70.5777 ,1.54975 ,-0.42677 ,-4.18744 
393 ,70.7535 ,1.55151 ,-0.42677 ,-4.18744 
394 ,70.9459 ,1.55333 ,-0.45414 ,-4.45607 
395 ,71.1380 ,1.55530 ,-0.45414 ,-4.45607 
396 ,71.3137 ,1.55721 ,-0.47468 ,-4.65754 
397 ,71.4900 ,1.55881 ,-0.48152 ,-4.72470 
398 ,71.6661 ,1.56058 ,-0.48837 ,-4.79185 
399 ,71.8578 ,1.56250 ,-0.49179 ,-4.82543 
400 ,72.0343 ,1.56423 ,-0.50890 ,-4.99332 
401 ,72.2264 ,1.56620 ,-0.53970 ,-5.29553 
402 ,72.4025 ,1.56802 ,-0.53970 ,-5.29553 
403 ,72.5945 ,1.56990 ,-0.53970 ,-5.29553 
404 ,72.7866 ,1.57178 ,-0.56708 ,-5.56415 
405 ,72.9466 ,1.57352 ,-0.57050 ,-5.59773 
406 ,73.1226 ,1.57515 ,-0.58077 ,-5.69847 
407 ,73.3148 ,1.57706 ,-0.58761 ,-5.76562 
408 ,73.5071 ,1.57897 ,-0.60472 ,-5.93352 
409 ,73.6989 ,1.58092 ,-0.60472 ,-5.93352 
410 ,73.8749 ,1.58269 ,-0.60814 ,-5.96709 
411 ,74.0670 ,1.58464 ,-0.63894 ,-6.26930 
412 ,74.2591 ,1.58648 ,-0.63552 ,-6.23572 
413 ,74.4513 ,1.58843 ,-0.66290 ,-6.50435 
414 ,74.6272 ,1.59021 ,-0.67316 ,-6.60508 
415 ,74.8193 ,1.59210 ,-0.67316 ,-6.60508 
416 ,75.0112 ,1.59401 ,-0.68685 ,-6.73940 
417 ,75.1874 ,1.59582 ,-0.71081 ,-6.97444 
418 ,75.3635 ,1.59754 ,-0.71081 ,-6.97444 
419 ,75.5396 ,1.59929 ,-0.71423 ,-7.00802 
420 ,75.7157 ,1.60111 ,-0.73134 ,-7.17591 
421 ,75.9080 ,1.60295 ,-0.75187 ,-7.37738 
422 ,76.0836 ,1.60490 ,-0.74161 ,-7.27665 
423 ,76.2600 ,1.60650 ,-0.74845 ,-7.34380 
424 ,76.4520 ,1.60844 ,-0.77583 ,-7.61243 
425 ,76.6440 ,1.61035 ,-0.79636 ,-7.81390 
426 ,76.8362 ,1.61228 ,-0.77925 ,-7.64601 
427 ,77.0281 ,1.61420 ,-0.81005 ,-7.94821 
428 ,77.2043 ,1.61605 ,-0.82032 ,-8.04895 
429 ,77.3963 ,1.61786 ,-0.82716 ,-8.11611 
430 ,77.5885 ,1.61972 ,-0.84427 ,-8.28400 
431 ,77.7646 ,1.62157 ,-0.85454 ,-8.38473 
432 ,77.9406 ,1.62331 ,-0.86481 ,-8.48547 
433 ,78.1326 ,1.62523 ,-0.87507 ,-8.58620 
434 ,78.3248 ,1.62713 ,-0.88192 ,-8.65336 
435 ,78.5168 ,1.62908 ,-0.88534 ,-8.68694 
436 ,78.7091 ,1.63101 ,-0.90929 ,-8.92198 
437 ,78.9010 ,1.63294 ,-0.90929 ,-8.92198 
438 ,79.0930 ,1.63479 ,-0.92983 ,-9.12345 
439 ,79.2691 ,1.63657 ,-0.94351 ,-9.25777 
440 ,79.4452 ,1.63834 ,-0.96063 ,-9.42566 
441 ,79.6533 ,1.64038 ,-0.96063 ,-9.42566 
442 ,79.8294 ,1.64220 ,-0.96747 ,-9.49282 
443 ,80.0059 ,1.64395 ,-0.99143 ,-9.72786 
444 ,80.1976 ,1.64587 ,-0.98116 ,-9.62713 
445 ,80.3736 ,1.64765 ,-0.99827 ,-9.79502 
446 ,80.5655 ,1.64956 ,-1.02222 ,-10.03007 
447 ,80.7578 ,1.65147 ,-1.01196 ,-9.92933 
448 ,80.9497 ,1.65336 ,-1.02907 ,-10.09723 
449 ,81.1419 ,1.65529 ,-1.04276 ,-10.23154 
450 ,81.3177 ,1.65707 ,-1.04276 ,-10.23154 
451 ,81.4940 ,1.65884 ,-1.06329 ,-10.43301 
452 ,81.6859 ,1.66072 ,-1.08382 ,-10.63448 
453 ,81.8620 ,1.66249 ,-1.07356 ,-10.53374 
454 ,82.0382 ,1.66427 ,-1.09067 ,-10.70163 
455 ,82.2304 ,1.66619 ,-1.09409 ,-10.73521 
456 ,82.4064 ,1.66807 ,-1.09409 ,-10.73521 
457 ,82.5825 ,1.66970 ,-1.10436 ,-10.83595 
458 ,82.7586 ,1.67150 ,-1.12147 ,-11.00384 
459 ,82.9345 ,1.67325 ,-1.12489 ,-11.03742 
460 ,83.1107 ,1.67501 ,-1.14542 ,-11.23889 
461 ,83.2868 ,1.67674 ,-1.16253 ,-11.40678 
462 ,83.4626 ,1.67852 ,-1.16938 ,-11.47394 
