Data stamp = , 30-03-2022 02:40:02 739

Calibration Values: 
Slope = , 26.54 , g/V 
Offset Voltage at no contact = , -0.501760 , V 

No , Time , Stage Position ,   Mass , Force 
   ,  (s) ,      (mm)      ,   (g)  , (mN)  

1 ,0.0000 ,0.84938 ,5.01448 ,49.20205 
2 ,0.2299 ,0.84948 ,5.01448 ,49.20205 
3 ,0.5341 ,0.85032 ,5.01106 ,49.16848 
4 ,0.7420 ,0.85178 ,5.01790 ,49.23563 
5 ,0.9183 ,0.85327 ,5.01106 ,49.16848 
6 ,1.1101 ,0.85509 ,5.02132 ,49.26921 
7 ,1.2865 ,0.85688 ,5.03159 ,49.36995 
8 ,1.4784 ,0.85884 ,4.99737 ,49.03416 
9 ,1.6544 ,0.86066 ,4.97341 ,48.79911 
10 ,1.8466 ,0.86249 ,4.97683 ,48.83269 
11 ,2.0385 ,0.86442 ,4.93919 ,48.46333 
12 ,2.2308 ,0.86628 ,4.93235 ,48.39618 
13 ,2.4070 ,0.86816 ,4.92208 ,48.29544 
14 ,2.5828 ,0.86993 ,4.90839 ,48.16113 
15 ,2.7745 ,0.87179 ,4.87759 ,47.85892 
16 ,2.9511 ,0.87357 ,4.88101 ,47.89250 
17 ,3.1432 ,0.87555 ,4.86732 ,47.75819 
18 ,3.3353 ,0.87743 ,4.83310 ,47.42240 
19 ,3.5114 ,0.87917 ,4.82626 ,47.35525 
20 ,3.6875 ,0.88095 ,4.81257 ,47.22093 
21 ,3.8795 ,0.88291 ,4.78861 ,46.98589 
22 ,4.0556 ,0.88465 ,4.76808 ,46.78442 
23 ,4.2315 ,0.88640 ,4.75439 ,46.65010 
24 ,4.4237 ,0.88831 ,4.74413 ,46.54937 
25 ,4.6157 ,0.89026 ,4.71675 ,46.28074 
26 ,4.8237 ,0.89217 ,4.71675 ,46.28074 
27 ,4.9997 ,0.89405 ,4.68595 ,45.97854 
28 ,5.2240 ,0.89618 ,4.66199 ,45.74349 
29 ,5.4161 ,0.89818 ,4.64488 ,45.57560 
30 ,5.5918 ,0.89995 ,4.62435 ,45.37413 
31 ,5.7681 ,0.90175 ,4.62435 ,45.37413 
32 ,5.9441 ,0.90352 ,4.60040 ,45.13908 
33 ,6.1363 ,0.90535 ,4.57986 ,44.93761 
34 ,6.3125 ,0.90720 ,4.55591 ,44.70256 
35 ,6.4886 ,0.90900 ,4.54564 ,44.60183 
36 ,6.6646 ,0.91080 ,4.54564 ,44.60183 
37 ,6.8566 ,0.91262 ,4.50115 ,44.16531 
38 ,7.0328 ,0.91437 ,4.50457 ,44.19889 
39 ,7.2086 ,0.91616 ,4.47720 ,43.93026 
40 ,7.3845 ,0.91790 ,4.47035 ,43.86310 
41 ,7.5609 ,0.91964 ,4.45666 ,43.72879 
42 ,7.7367 ,0.92139 ,4.41560 ,43.32585 
43 ,7.9134 ,0.92323 ,4.40191 ,43.19154 
44 ,8.1052 ,0.92515 ,4.41218 ,43.29227 
45 ,8.2813 ,0.92686 ,4.37795 ,42.95649 
46 ,8.4572 ,0.92859 ,4.35400 ,42.72144 
47 ,8.6335 ,0.93040 ,4.33689 ,42.55355 
48 ,8.8097 ,0.93221 ,4.33347 ,42.51997 
49 ,8.9855 ,0.93391 ,4.31636 ,42.35208 
50 ,9.1617 ,0.93569 ,4.28898 ,42.08345 
51 ,9.3537 ,0.93762 ,4.27529 ,41.94914 
52 ,9.5298 ,0.93935 ,4.26502 ,41.84841 
53 ,9.7059 ,0.94123 ,4.24107 ,41.61336 
54 ,9.8980 ,0.94299 ,4.22396 ,41.44547 
55 ,10.0901 ,0.94498 ,4.21369 ,41.34473 
56 ,10.2821 ,0.94681 ,4.18289 ,41.04253 
57 ,10.4741 ,0.94877 ,4.16920 ,40.90821 
58 ,10.6503 ,0.95053 ,4.15551 ,40.77390 
59 ,10.8584 ,0.95251 ,4.14183 ,40.63959 
60 ,11.0504 ,0.95455 ,4.12471 ,40.47170 
61 ,11.2265 ,0.95633 ,4.10760 ,40.30380 
62 ,11.4188 ,0.95811 ,4.10076 ,40.23665 
63 ,11.5946 ,0.95999 ,4.05969 ,39.83371 
64 ,11.7705 ,0.96178 ,4.05969 ,39.83371 
65 ,11.9467 ,0.96356 ,4.04258 ,39.66582 
66 ,12.1389 ,0.96546 ,4.01178 ,39.36361 
67 ,12.3148 ,0.96719 ,3.99467 ,39.19572 
68 ,12.5070 ,0.96910 ,3.99125 ,39.16214 
69 ,12.6990 ,0.97095 ,3.98441 ,39.09499 
70 ,12.8751 ,0.97280 ,3.93992 ,38.65847 
71 ,13.0512 ,0.97458 ,3.92965 ,38.55773 
72 ,13.2433 ,0.97650 ,3.92965 ,38.55773 
73 ,13.4353 ,0.97836 ,3.89543 ,38.22195 
74 ,13.6275 ,0.98031 ,3.87832 ,38.05406 
75 ,13.8194 ,0.98216 ,3.88516 ,38.12122 
76 ,13.9956 ,0.98400 ,3.83725 ,37.65112 
77 ,14.1715 ,0.98572 ,3.84752 ,37.75185 
78 ,14.3633 ,0.98755 ,3.82699 ,37.55038 
79 ,14.5398 ,0.98942 ,3.80645 ,37.34891 
80 ,14.7318 ,0.99139 ,3.78250 ,37.11387 
81 ,14.9076 ,0.99316 ,3.77908 ,37.08029 
82 ,15.0841 ,0.99485 ,3.74828 ,36.77808 
83 ,15.2601 ,0.99663 ,3.74143 ,36.71093 
84 ,15.4362 ,0.99841 ,3.72090 ,36.50946 
85 ,15.6122 ,1.00013 ,3.70721 ,36.37514 
86 ,15.8204 ,1.00219 ,3.66614 ,35.97220 
87 ,15.9963 ,1.00399 ,3.66614 ,35.97220 
88 ,16.1724 ,1.00573 ,3.65246 ,35.83789 
89 ,16.3487 ,1.00749 ,3.64561 ,35.77073 
90 ,16.5406 ,1.00944 ,3.63534 ,35.67000 
91 ,16.7167 ,1.01119 ,3.59770 ,35.30064 
92 ,16.8928 ,1.01297 ,3.58401 ,35.16632 
93 ,17.0690 ,1.01471 ,3.58059 ,35.13275 
94 ,17.2610 ,1.01663 ,3.55663 ,34.89770 
95 ,17.4368 ,1.01844 ,3.53952 ,34.72981 
96 ,17.6129 ,1.02016 ,3.52241 ,34.56192 
97 ,17.7892 ,1.02189 ,3.51899 ,34.52834 
98 ,17.9652 ,1.02370 ,3.50188 ,34.36045 
99 ,18.1413 ,1.02541 ,3.47450 ,34.09182 
100 ,18.3173 ,1.02718 ,3.46081 ,33.95751 
101 ,18.4933 ,1.02898 ,3.44370 ,33.78961 
102 ,18.6856 ,1.03084 ,3.43344 ,33.68888 
103 ,18.8775 ,1.03278 ,3.41290 ,33.48741 
104 ,19.0538 ,1.03457 ,3.38895 ,33.25236 
105 ,19.2297 ,1.03632 ,3.37526 ,33.11805 
106 ,19.4059 ,1.03810 ,3.37184 ,33.08447 
107 ,19.5816 ,1.03986 ,3.37526 ,33.11805 
108 ,19.7740 ,1.04166 ,3.32393 ,32.61437 
109 ,19.9661 ,1.04370 ,3.32735 ,32.64795 
110 ,20.1420 ,1.04539 ,3.29313 ,32.31217 
111 ,20.3183 ,1.04718 ,3.27944 ,32.17786 
112 ,20.5103 ,1.04911 ,3.27602 ,32.14428 
113 ,20.7022 ,1.05101 ,3.26575 ,32.04354 
114 ,20.8784 ,1.05279 ,3.23153 ,31.70776 
115 ,21.0545 ,1.05461 ,3.21784 ,31.57345 
116 ,21.2306 ,1.05633 ,3.20415 ,31.43913 
117 ,21.4065 ,1.05811 ,3.20415 ,31.43913 
118 ,21.5825 ,1.05982 ,3.19731 ,31.37198 
119 ,21.7585 ,1.06170 ,3.15282 ,30.93546 
120 ,21.9347 ,1.06335 ,3.13913 ,30.80115 
121 ,22.1106 ,1.06511 ,3.13913 ,30.80115 
122 ,22.2870 ,1.06693 ,3.12202 ,30.63325 
123 ,22.4791 ,1.06883 ,3.10149 ,30.43178 
124 ,22.6550 ,1.07055 ,3.08438 ,30.26389 
125 ,22.8313 ,1.07229 ,3.08095 ,30.23031 
126 ,23.0075 ,1.07412 ,3.07069 ,30.12958 
127 ,23.1994 ,1.07604 ,3.03989 ,29.82737 
128 ,23.3753 ,1.07775 ,3.02278 ,29.65948 
129 ,23.5516 ,1.07951 ,3.02962 ,29.72664 
130 ,23.7276 ,1.08133 ,3.01251 ,29.55875 
131 ,23.9199 ,1.08321 ,2.98171 ,29.25654 
132 ,24.1119 ,1.08515 ,2.96802 ,29.12223 
133 ,24.3037 ,1.08705 ,2.95776 ,29.02150 
134 ,24.4799 ,1.08878 ,2.93380 ,28.78645 
135 ,24.6879 ,1.09083 ,2.92696 ,28.71929 
136 ,24.8641 ,1.09263 ,2.91669 ,28.61856 
137 ,25.0400 ,1.09438 ,2.88589 ,28.31635 
138 ,25.2322 ,1.09637 ,2.86536 ,28.11488 
139 ,25.4241 ,1.09830 ,2.86193 ,28.08130 
140 ,25.6003 ,1.09999 ,2.83456 ,27.81268 
141 ,25.7764 ,1.10178 ,2.82429 ,27.71194 
142 ,25.9364 ,1.10346 ,2.81402 ,27.61121 
143 ,26.1126 ,1.10512 ,2.79349 ,27.40974 
144 ,26.2886 ,1.10691 ,2.79691 ,27.44332 
145 ,26.4806 ,1.10878 ,2.76954 ,27.17469 
146 ,26.6568 ,1.11057 ,2.74216 ,26.90606 
147 ,26.8488 ,1.11248 ,2.74558 ,26.93964 
148 ,27.0248 ,1.11435 ,2.73189 ,26.80533 
149 ,27.2330 ,1.11617 ,2.71820 ,26.67101 
150 ,27.4092 ,1.11812 ,2.68740 ,26.36881 
151 ,27.6011 ,1.12002 ,2.67714 ,26.26807 
152 ,27.7770 ,1.12175 ,2.65660 ,26.06661 
153 ,27.9689 ,1.12360 ,2.65318 ,26.03303 
154 ,28.1452 ,1.12542 ,2.64292 ,25.93229 
155 ,28.3374 ,1.12729 ,2.62238 ,25.73082 
156 ,28.5293 ,1.12927 ,2.59843 ,25.49577 
157 ,28.7055 ,1.13103 ,2.58816 ,25.39504 
158 ,28.8816 ,1.13277 ,2.56763 ,25.19357 
159 ,29.0574 ,1.13455 ,2.54367 ,24.95852 
160 ,29.2338 ,1.13634 ,2.54025 ,24.92494 
161 ,29.4257 ,1.13823 ,2.53683 ,24.89136 
162 ,29.6181 ,1.14014 ,2.49918 ,24.52200 
163 ,29.7935 ,1.14192 ,2.48550 ,24.38769 
164 ,29.9696 ,1.14366 ,2.48550 ,24.38769 
165 ,30.1296 ,1.14542 ,2.47523 ,24.28696 
166 ,30.3063 ,1.14707 ,2.45812 ,24.11906 
167 ,30.5146 ,1.14911 ,2.43416 ,23.88402 
168 ,30.6905 ,1.15092 ,2.42048 ,23.74970 
169 ,30.8664 ,1.15266 ,2.40679 ,23.61539 
170 ,31.0425 ,1.15438 ,2.39310 ,23.48108 
171 ,31.2185 ,1.15616 ,2.36914 ,23.24603 
172 ,31.3946 ,1.15790 ,2.36914 ,23.24603 
173 ,31.5868 ,1.15982 ,2.35888 ,23.14529 
174 ,31.7789 ,1.16170 ,2.31781 ,22.74235 
175 ,31.9549 ,1.16352 ,2.31097 ,22.67520 
176 ,32.1310 ,1.16530 ,2.29385 ,22.50731 
177 ,32.3231 ,1.16718 ,2.29385 ,22.50731 
178 ,32.5151 ,1.16919 ,2.25279 ,22.10437 
179 ,32.6912 ,1.17087 ,2.25963 ,22.17152 
180 ,32.8835 ,1.17281 ,2.24594 ,22.03721 
181 ,33.0594 ,1.17460 ,2.22541 ,21.83574 
182 ,33.2511 ,1.17650 ,2.21515 ,21.73500 
183 ,33.4272 ,1.17823 ,2.20488 ,21.63427 
184 ,33.6036 ,1.17999 ,2.18435 ,21.43280 
185 ,33.8117 ,1.18200 ,2.15697 ,21.16417 
186 ,34.0037 ,1.18400 ,2.16381 ,21.23133 
187 ,34.1798 ,1.18577 ,2.12617 ,20.86197 
188 ,34.3560 ,1.18763 ,2.11248 ,20.72766 
189 ,34.5320 ,1.18931 ,2.10221 ,20.62692 
190 ,34.7079 ,1.19107 ,2.09537 ,20.55976 
191 ,34.9002 ,1.19288 ,2.08852 ,20.49261 
192 ,35.0921 ,1.19492 ,2.05430 ,20.15682 
193 ,35.2843 ,1.19680 ,2.05088 ,20.12325 
194 ,35.4442 ,1.19852 ,2.03035 ,19.92178 
195 ,35.6365 ,1.20031 ,2.01324 ,19.75388 
196 ,35.8127 ,1.20210 ,2.00639 ,19.68673 
197 ,35.9887 ,1.20385 ,1.99613 ,19.58599 
198 ,36.1807 ,1.20584 ,1.97559 ,19.38452 
199 ,36.3727 ,1.20761 ,1.96875 ,19.31737 
200 ,36.5486 ,1.20944 ,1.96190 ,19.25021 
201 ,36.7409 ,1.21140 ,1.92768 ,18.91443 
202 ,36.9329 ,1.21321 ,1.92426 ,18.88085 
203 ,37.1091 ,1.21505 ,1.90373 ,18.67938 
204 ,37.3012 ,1.21697 ,1.89004 ,18.54507 
205 ,37.4766 ,1.21884 ,1.86608 ,18.31002 
206 ,37.6532 ,1.22046 ,1.84555 ,18.10855 
207 ,37.8613 ,1.22250 ,1.83871 ,18.04139 
208 ,38.0213 ,1.22426 ,1.81817 ,17.83992 
209 ,38.1974 ,1.22591 ,1.81817 ,17.83992 
210 ,38.3731 ,1.22767 ,1.79422 ,17.60487 
211 ,38.5495 ,1.22946 ,1.79080 ,17.57129 
212 ,38.7097 ,1.23114 ,1.78737 ,17.53772 
213 ,38.8857 ,1.23279 ,1.77026 ,17.36983 
214 ,39.0618 ,1.23456 ,1.74973 ,17.16836 
215 ,39.2378 ,1.23628 ,1.72235 ,16.89973 
216 ,39.4144 ,1.23806 ,1.71551 ,16.83257 
217 ,39.5900 ,1.23987 ,1.71893 ,16.86615 
218 ,39.7661 ,1.24162 ,1.69840 ,16.66468 
219 ,39.9422 ,1.24335 ,1.68813 ,16.56395 
220 ,40.1342 ,1.24522 ,1.65391 ,16.22816 
221 ,40.3105 ,1.24704 ,1.65391 ,16.22816 
222 ,40.4862 ,1.24879 ,1.64022 ,16.09385 
223 ,40.6944 ,1.25076 ,1.60942 ,15.79164 
224 ,40.8864 ,1.25273 ,1.60600 ,15.75807 
225 ,41.0787 ,1.25474 ,1.58547 ,15.55660 
226 ,41.2547 ,1.25649 ,1.57520 ,15.45586 
227 ,41.4469 ,1.25841 ,1.57178 ,15.42228 
228 ,41.6227 ,1.26022 ,1.55467 ,15.25439 
229 ,41.8150 ,1.26210 ,1.52729 ,14.98577 
230 ,42.0069 ,1.26402 ,1.53756 ,15.08650 
231 ,42.1832 ,1.26573 ,1.51702 ,14.88503 
232 ,42.3591 ,1.26751 ,1.49649 ,14.68356 
233 ,42.5513 ,1.26939 ,1.47938 ,14.51567 
234 ,42.7593 ,1.27148 ,1.45542 ,14.28062 
235 ,42.9355 ,1.27332 ,1.43489 ,14.07915 
236 ,43.1116 ,1.27510 ,1.42805 ,14.01199 
237 ,43.2876 ,1.27683 ,1.42462 ,13.97842 
238 ,43.4636 ,1.27857 ,1.41094 ,13.84410 
239 ,43.6398 ,1.28030 ,1.39040 ,13.64263 
240 ,43.8159 ,1.28212 ,1.37329 ,13.47474 
241 ,44.0081 ,1.28402 ,1.36987 ,13.44116 
242 ,44.2159 ,1.28597 ,1.34591 ,13.20612 
243 ,44.4081 ,1.28787 ,1.33907 ,13.13896 
244 ,44.6002 ,1.28997 ,1.31512 ,12.90391 
245 ,44.7758 ,1.29173 ,1.30143 ,12.76960 
246 ,44.9523 ,1.29344 ,1.28089 ,12.56813 
247 ,45.1440 ,1.29542 ,1.29800 ,12.73602 
248 ,45.3363 ,1.29715 ,1.26720 ,12.43381 
249 ,45.5126 ,1.29905 ,1.24667 ,12.23235 
250 ,45.6886 ,1.30085 ,1.22956 ,12.06445 
251 ,45.8641 ,1.30257 ,1.24325 ,12.19877 
252 ,46.0563 ,1.30440 ,1.20903 ,11.86298 
253 ,46.2327 ,1.30623 ,1.19534 ,11.72867 
254 ,46.4249 ,1.30816 ,1.18165 ,11.59436 
255 ,46.6167 ,1.31005 ,1.16796 ,11.46004 
256 ,46.7930 ,1.31186 ,1.14401 ,11.22500 
257 ,46.9690 ,1.31364 ,1.13716 ,11.15784 
258 ,47.1612 ,1.31540 ,1.13032 ,11.09068 
259 ,47.3532 ,1.31747 ,1.10636 ,10.85563 
260 ,47.5292 ,1.31919 ,1.10979 ,10.88921 
261 ,47.7053 ,1.32098 ,1.09952 ,10.78848 
262 ,47.8814 ,1.32270 ,1.07556 ,10.55343 
263 ,48.0575 ,1.32448 ,1.05161 ,10.31838 
264 ,48.2656 ,1.32646 ,1.04134 ,10.21765 
265 ,48.4414 ,1.32833 ,1.02423 ,10.04976 
266 ,48.6177 ,1.33008 ,1.00712 ,9.88186 
267 ,48.7938 ,1.33181 ,0.99343 ,9.74755 
268 ,48.9856 ,1.33379 ,1.00028 ,9.81471 
269 ,49.1780 ,1.33565 ,0.96948 ,9.51250 
270 ,49.3698 ,1.33763 ,0.95237 ,9.34461 
271 ,49.5460 ,1.33938 ,0.95579 ,9.37819 
272 ,49.7221 ,1.34110 ,0.93868 ,9.21030 
273 ,49.8982 ,1.34289 ,0.90788 ,8.90809 
274 ,50.0738 ,1.34464 ,0.90103 ,8.84094 
275 ,50.2503 ,1.34640 ,0.90103 ,8.84094 
276 ,50.4264 ,1.34820 ,0.89761 ,8.80736 
277 ,50.6025 ,1.34993 ,0.88050 ,8.63947 
278 ,50.7944 ,1.35182 ,0.84628 ,8.30368 
279 ,50.9706 ,1.35365 ,0.84286 ,8.27011 
280 ,51.1463 ,1.35534 ,0.84970 ,8.33726 
281 ,51.3228 ,1.35716 ,0.83601 ,8.20295 
282 ,51.4988 ,1.35894 ,0.80863 ,7.93432 
283 ,51.6905 ,1.36075 ,0.79495 ,7.80001 
284 ,51.8669 ,1.36257 ,0.77441 ,7.59854 
285 ,52.0430 ,1.36435 ,0.77441 ,7.59854 
286 ,52.2351 ,1.36617 ,0.75388 ,7.39707 
287 ,52.4111 ,1.36800 ,0.74361 ,7.29633 
288 ,52.6033 ,1.36978 ,0.74361 ,7.29633 
289 ,52.7953 ,1.37185 ,0.71624 ,7.02771 
290 ,52.9714 ,1.37364 ,0.70939 ,6.96055 
291 ,53.1475 ,1.37535 ,0.69570 ,6.82624 
292 ,53.3394 ,1.37726 ,0.67175 ,6.59119 
293 ,53.5157 ,1.37904 ,0.65806 ,6.45688 
294 ,53.6918 ,1.38080 ,0.66148 ,6.49046 
295 ,53.8838 ,1.38268 ,0.64437 ,6.32256 
296 ,54.0596 ,1.38446 ,0.63068 ,6.18825 
297 ,54.2359 ,1.38624 ,0.60673 ,5.95320 
298 ,54.4122 ,1.38803 ,0.60330 ,5.91962 
299 ,54.6041 ,1.38988 ,0.59988 ,5.88605 
300 ,54.7962 ,1.39175 ,0.57935 ,5.68458 
301 ,54.9883 ,1.39377 ,0.57593 ,5.65100 
302 ,55.1640 ,1.39551 ,0.55882 ,5.48311 
303 ,55.3401 ,1.39726 ,0.53828 ,5.28164 
304 ,55.5165 ,1.39905 ,0.51091 ,5.01301 
305 ,55.7086 ,1.40100 ,0.52117 ,5.11375 
306 ,55.8844 ,1.40272 ,0.51433 ,5.04659 
307 ,56.0604 ,1.40449 ,0.49037 ,4.81154 
308 ,56.2367 ,1.40626 ,0.46642 ,4.57649 
309 ,56.4287 ,1.40816 ,0.47326 ,4.64365 
310 ,56.6049 ,1.40994 ,0.47326 ,4.64365 
311 ,56.7810 ,1.41172 ,0.44246 ,4.34144 
312 ,56.9730 ,1.41363 ,0.42535 ,4.17355 
313 ,57.1486 ,1.41537 ,0.42535 ,4.17355 
314 ,57.3248 ,1.41708 ,0.41166 ,4.03924 
315 ,57.5010 ,1.41887 ,0.40824 ,4.00566 
316 ,57.6773 ,1.42062 ,0.38771 ,3.80419 
317 ,57.8531 ,1.42241 ,0.37744 ,3.70346 
318 ,58.0291 ,1.42421 ,0.36718 ,3.60272 
319 ,58.2215 ,1.42606 ,0.35691 ,3.50199 
320 ,58.3974 ,1.42784 ,0.33295 ,3.26694 
321 ,58.5572 ,1.42954 ,0.31926 ,3.13263 
322 ,58.7337 ,1.43117 ,0.31242 ,3.06547 
323 ,58.9258 ,1.43311 ,0.31584 ,3.09905 
324 ,59.1178 ,1.43507 ,0.29189 ,2.86400 
325 ,59.3260 ,1.43698 ,0.27135 ,2.66253 
326 ,59.5179 ,1.43903 ,0.25767 ,2.52822 
327 ,59.6941 ,1.44084 ,0.24740 ,2.42748 
328 ,59.8861 ,1.44272 ,0.24055 ,2.36032 
329 ,60.0623 ,1.44447 ,0.24055 ,2.36032 
330 ,60.2541 ,1.44641 ,0.21318 ,2.09170 
331 ,60.4303 ,1.44817 ,0.21318 ,2.09170 
332 ,60.5899 ,1.44986 ,0.21660 ,2.12528 
333 ,60.7665 ,1.45151 ,0.18922 ,1.85665 
334 ,60.9585 ,1.45339 ,0.17896 ,1.75592 
335 ,61.1185 ,1.45518 ,0.16527 ,1.62160 
336 ,61.2947 ,1.45678 ,0.14816 ,1.45371 
337 ,61.4707 ,1.45858 ,0.14816 ,1.45371 
338 ,61.6464 ,1.46030 ,0.15158 ,1.48729 
339 ,61.8228 ,1.46209 ,0.13789 ,1.35298 
340 ,62.0148 ,1.46393 ,0.11051 ,1.08435 
341 ,62.1910 ,1.46573 ,0.10367 ,1.01719 
342 ,62.3672 ,1.46753 ,0.09682 ,0.95004 
343 ,62.5752 ,1.46946 ,0.07287 ,0.71499 
344 ,62.7672 ,1.47152 ,0.06945 ,0.68141 
345 ,62.9432 ,1.47325 ,0.06602 ,0.64783 
346 ,63.1194 ,1.47503 ,0.04891 ,0.47994 
347 ,63.2794 ,1.47675 ,0.03522 ,0.34563 
348 ,63.4556 ,1.47844 ,0.01127 ,0.11058 
349 ,63.6314 ,1.48018 ,0.01127 ,0.11058 
350 ,63.8076 ,1.48200 ,0.00785 ,0.07700 
351 ,63.9836 ,1.48368 ,0.00785 ,0.07700 
352 ,64.1597 ,1.48544 ,-0.01953 ,-0.19163 
353 ,64.3359 ,1.48720 ,-0.03322 ,-0.32594 
354 ,64.5600 ,1.48933 ,-0.04348 ,-0.42667 
355 ,64.7361 ,1.49121 ,-0.05375 ,-0.52741 
356 ,64.9121 ,1.49299 ,-0.06402 ,-0.62814 
357 ,65.1043 ,1.49490 ,-0.06402 ,-0.62814 
358 ,65.2963 ,1.49674 ,-0.09482 ,-0.93035 
359 ,65.4723 ,1.49857 ,-0.10166 ,-0.99751 
360 ,65.6484 ,1.50032 ,-0.09824 ,-0.96393 
361 ,65.8244 ,1.50210 ,-0.10508 ,-1.03108 
362 ,66.0166 ,1.50399 ,-0.12562 ,-1.23255 
363 ,66.1925 ,1.50574 ,-0.13931 ,-1.36687 
364 ,66.3688 ,1.50752 ,-0.15299 ,-1.50118 
365 ,66.5607 ,1.50942 ,-0.15642 ,-1.53476 
366 ,66.7370 ,1.51125 ,-0.17353 ,-1.70265 
367 ,66.9127 ,1.51299 ,-0.18722 ,-1.83696 
368 ,67.0890 ,1.51469 ,-0.18379 ,-1.80338 
369 ,67.2491 ,1.51643 ,-0.19748 ,-1.93770 
370 ,67.4251 ,1.51806 ,-0.20775 ,-2.03843 
371 ,67.6332 ,1.52006 ,-0.23170 ,-2.27348 
372 ,67.8094 ,1.52191 ,-0.24539 ,-2.40779 
373 ,67.9851 ,1.52366 ,-0.23855 ,-2.34064 
374 ,68.1613 ,1.52546 ,-0.24881 ,-2.44137 
375 ,68.3537 ,1.52733 ,-0.25908 ,-2.54211 
376 ,68.5296 ,1.52918 ,-0.27961 ,-2.74358 
377 ,68.7217 ,1.53102 ,-0.28646 ,-2.81073 
378 ,68.8978 ,1.53280 ,-0.31384 ,-3.07936 
379 ,69.0738 ,1.53459 ,-0.32068 ,-3.14652 
380 ,69.2499 ,1.53629 ,-0.32068 ,-3.14652 
381 ,69.4416 ,1.53826 ,-0.32410 ,-3.18010 
382 ,69.6182 ,1.53997 ,-0.35148 ,-3.44872 
383 ,69.8100 ,1.54196 ,-0.35832 ,-3.51588 
384 ,69.9863 ,1.54368 ,-0.35490 ,-3.48230 
385 ,70.1622 ,1.54545 ,-0.37201 ,-3.65019 
386 ,70.3384 ,1.54720 ,-0.39597 ,-3.88524 
387 ,70.5146 ,1.54897 ,-0.41308 ,-4.05313 
388 ,70.7066 ,1.55088 ,-0.40623 ,-3.98597 
389 ,70.8825 ,1.55265 ,-0.41650 ,-4.08671 
390 ,71.0588 ,1.55440 ,-0.43019 ,-4.22102 
391 ,71.2348 ,1.55617 ,-0.44730 ,-4.38891 
392 ,71.4269 ,1.55813 ,-0.45414 ,-4.45607 
393 ,71.6188 ,1.55998 ,-0.47810 ,-4.69112 
394 ,71.8107 ,1.56187 ,-0.48494 ,-4.75828 
395 ,71.9870 ,1.56368 ,-0.47810 ,-4.69112 
396 ,72.1629 ,1.56544 ,-0.50206 ,-4.92617 
397 ,72.3392 ,1.56724 ,-0.50890 ,-4.99332 
398 ,72.5309 ,1.56915 ,-0.52601 ,-5.16121 
399 ,72.7073 ,1.57090 ,-0.51574 ,-5.06048 
400 ,72.8834 ,1.57260 ,-0.52943 ,-5.19479 
401 ,73.0754 ,1.57448 ,-0.55681 ,-5.46342 
402 ,73.2512 ,1.57632 ,-0.55339 ,-5.42984 
403 ,73.4276 ,1.57810 ,-0.56365 ,-5.53058 
404 ,73.6199 ,1.58001 ,-0.58077 ,-5.69847 
405 ,73.8119 ,1.58191 ,-0.58419 ,-5.73205 
406 ,74.0200 ,1.58387 ,-0.59445 ,-5.83278 
407 ,74.2120 ,1.58582 ,-0.61499 ,-6.03425 
408 ,74.3720 ,1.58767 ,-0.62183 ,-6.10141 
409 ,74.5481 ,1.58932 ,-0.63210 ,-6.20214 
410 ,74.7242 ,1.59108 ,-0.63894 ,-6.26930 
411 ,74.9165 ,1.59296 ,-0.65263 ,-6.40361 
412 ,75.1083 ,1.59490 ,-0.64921 ,-6.37003 
413 ,75.2844 ,1.59662 ,-0.66290 ,-6.50435 
414 ,75.4604 ,1.59841 ,-0.67659 ,-6.63866 
415 ,75.6366 ,1.60016 ,-0.70739 ,-6.94086 
416 ,75.8286 ,1.60203 ,-0.69712 ,-6.84013 
417 ,76.0045 ,1.60384 ,-0.69712 ,-6.84013 
418 ,76.1967 ,1.60576 ,-0.73476 ,-7.20949 
419 ,76.3725 ,1.60754 ,-0.74161 ,-7.27665 
420 ,76.5647 ,1.60938 ,-0.74161 ,-7.27665 
421 ,76.7408 ,1.61121 ,-0.75872 ,-7.44454 
422 ,76.9325 ,1.61312 ,-0.77241 ,-7.57885 
423 ,77.1090 ,1.61488 ,-0.76556 ,-7.51170 
424 ,77.2850 ,1.61663 ,-0.77925 ,-7.64601 
425 ,77.4606 ,1.61837 ,-0.80321 ,-7.88106 
426 ,77.6373 ,1.62013 ,-0.82032 ,-8.04895 
427 ,77.8292 ,1.62213 ,-0.81347 ,-7.98179 
428 ,78.0213 ,1.62397 ,-0.84769 ,-8.31758 
429 ,78.1975 ,1.62574 ,-0.85454 ,-8.38473 
430 ,78.3736 ,1.62754 ,-0.87165 ,-8.55262 
431 ,78.5493 ,1.62926 ,-0.86823 ,-8.51904 
432 ,78.7256 ,1.63102 ,-0.85796 ,-8.41831 
433 ,78.9019 ,1.63281 ,-0.87849 ,-8.61978 
434 ,79.1098 ,1.63474 ,-0.88192 ,-8.65336 
435 ,79.2860 ,1.63662 ,-0.89560 ,-8.78767 
436 ,79.4779 ,1.63858 ,-0.91614 ,-8.98914 
437 ,79.6540 ,1.64032 ,-0.93667 ,-9.19061 
438 ,79.8620 ,1.64229 ,-0.92640 ,-9.08988 
439 ,80.0381 ,1.64420 ,-0.94694 ,-9.29135 
440 ,80.2301 ,1.64605 ,-0.95720 ,-9.39208 
441 ,80.4063 ,1.64785 ,-0.95378 ,-9.35850 
442 ,80.5824 ,1.64956 ,-0.98116 ,-9.62713 
443 ,80.7744 ,1.65147 ,-0.99485 ,-9.76144 
444 ,80.9665 ,1.65339 ,-0.99485 ,-9.76144 
445 ,81.1425 ,1.65517 ,-0.99143 ,-9.72786 
446 ,81.3189 ,1.65696 ,-1.02222 ,-10.03007 
447 ,81.4948 ,1.65876 ,-1.04276 ,-10.23154 
448 ,81.6704 ,1.66055 ,-1.03934 ,-10.19796 
449 ,81.8465 ,1.66223 ,-1.03591 ,-10.16438 
450 ,82.0226 ,1.66395 ,-1.04276 ,-10.23154 
451 ,82.1987 ,1.66574 ,-1.07014 ,-10.50016 
452 ,82.3587 ,1.66749 ,-1.08382 ,-10.63448 
453 ,82.5189 ,1.66906 ,-1.08725 ,-10.66806 
454 ,82.6948 ,1.67072 ,-1.09751 ,-10.76879 
455 ,82.8709 ,1.67244 ,-1.11120 ,-10.90310 
456 ,83.0470 ,1.67424 ,-1.09067 ,-10.70163 
457 ,83.2232 ,1.67597 ,-1.11120 ,-10.90310 
458 ,83.3992 ,1.67775 ,-1.12831 ,-11.07100 
459 ,83.5593 ,1.67947 ,-1.13858 ,-11.17173 
460 ,83.7194 ,1.68106 ,-1.15227 ,-11.30604 
461 ,83.8794 ,1.68265 ,-1.15911 ,-11.37320 
462 ,84.0395 ,1.68426 ,-1.16938 ,-11.47394 
