Data stamp = , 30-03-2022 11:35:39 346

Calibration Values: 
Slope = , 26.54 , g/V 
Offset Voltage at no contact = , -0.501760 , V 

No , Time , Stage Position ,   Mass , Force 
   ,  (s) ,      (mm)      ,   (g)  , (mN)  

1 ,0.0000 ,0.84946 ,4.98026 ,48.86627 
2 ,0.2309 ,0.84958 ,4.99394 ,49.00058 
3 ,0.6628 ,0.85082 ,5.00079 ,49.06774 
4 ,0.8392 ,0.85276 ,4.98026 ,48.86627 
5 ,1.0311 ,0.85454 ,4.99394 ,49.00058 
6 ,1.2234 ,0.85639 ,4.99052 ,48.96701 
7 ,1.3993 ,0.85818 ,4.99394 ,49.00058 
8 ,1.5917 ,0.86010 ,5.00079 ,49.06774 
9 ,1.7835 ,0.86207 ,4.96657 ,48.73196 
10 ,1.9593 ,0.86381 ,4.94261 ,48.49691 
11 ,2.1357 ,0.86560 ,4.94261 ,48.49691 
12 ,2.3277 ,0.86760 ,4.91866 ,48.26186 
13 ,2.5038 ,0.86926 ,4.91523 ,48.22828 
14 ,2.6799 ,0.87104 ,4.88444 ,47.92608 
15 ,2.8558 ,0.87281 ,4.87759 ,47.85892 
16 ,3.0316 ,0.87456 ,4.86390 ,47.72461 
17 ,3.2082 ,0.87633 ,4.86048 ,47.69103 
18 ,3.4001 ,0.87821 ,4.83310 ,47.42240 
19 ,3.5763 ,0.88003 ,4.80573 ,47.15378 
20 ,3.7524 ,0.88176 ,4.79888 ,47.08662 
21 ,3.9285 ,0.88356 ,4.80915 ,47.18736 
22 ,4.1042 ,0.88528 ,4.78177 ,46.91873 
23 ,4.2806 ,0.88704 ,4.75782 ,46.68368 
24 ,4.4886 ,0.88902 ,4.74413 ,46.54937 
25 ,4.6647 ,0.89083 ,4.73386 ,46.44863 
26 ,4.8568 ,0.89277 ,4.70306 ,46.14643 
27 ,5.0489 ,0.89462 ,4.70306 ,46.14643 
28 ,5.2249 ,0.89646 ,4.68253 ,45.94496 
29 ,5.4012 ,0.89822 ,4.66199 ,45.74349 
30 ,5.5771 ,0.90004 ,4.63804 ,45.50844 
31 ,5.7688 ,0.90192 ,4.63804 ,45.50844 
32 ,5.9449 ,0.90363 ,4.61751 ,45.30697 
33 ,6.1210 ,0.90543 ,4.58328 ,44.97119 
34 ,6.2973 ,0.90717 ,4.57302 ,44.87045 
35 ,6.4731 ,0.90896 ,4.55249 ,44.66898 
36 ,6.6493 ,0.91068 ,4.56275 ,44.76972 
37 ,6.8252 ,0.91244 ,4.51142 ,44.26604 
38 ,6.9853 ,0.91415 ,4.49431 ,44.09815 
39 ,7.1454 ,0.91577 ,4.48062 ,43.96384 
40 ,7.3214 ,0.91736 ,4.47035 ,43.86310 
41 ,7.4980 ,0.91918 ,4.45666 ,43.72879 
42 ,7.6897 ,0.92113 ,4.44982 ,43.66163 
43 ,7.8657 ,0.92292 ,4.42244 ,43.39301 
44 ,8.0420 ,0.92466 ,4.41560 ,43.32585 
45 ,8.2343 ,0.92658 ,4.39164 ,43.09080 
46 ,8.4261 ,0.92845 ,4.38138 ,42.99007 
47 ,8.6024 ,0.93026 ,4.35058 ,42.68786 
48 ,8.7784 ,0.93199 ,4.35058 ,42.68786 
49 ,8.9544 ,0.93374 ,4.33347 ,42.51997 
50 ,9.1306 ,0.93549 ,4.32320 ,42.41924 
51 ,9.3067 ,0.93728 ,4.29924 ,42.18419 
52 ,9.4827 ,0.93902 ,4.28213 ,42.01630 
53 ,9.6747 ,0.94098 ,4.27187 ,41.91556 
54 ,9.8509 ,0.94275 ,4.26160 ,41.81483 
55 ,10.0429 ,0.94461 ,4.23080 ,41.51262 
56 ,10.2190 ,0.94635 ,4.22053 ,41.41189 
57 ,10.3951 ,0.94817 ,4.20000 ,41.21042 
58 ,10.5871 ,0.95002 ,4.17605 ,40.97537 
59 ,10.7792 ,0.95200 ,4.15894 ,40.80748 
60 ,10.9552 ,0.95380 ,4.14525 ,40.67317 
61 ,11.1312 ,0.95549 ,4.13498 ,40.57243 
62 ,11.3235 ,0.95742 ,4.11103 ,40.33738 
63 ,11.4992 ,0.95916 ,4.07680 ,40.00160 
64 ,11.6756 ,0.96094 ,4.07680 ,40.00160 
65 ,11.8676 ,0.96289 ,4.05285 ,39.76655 
66 ,12.0596 ,0.96476 ,4.03574 ,39.59866 
67 ,12.2358 ,0.96653 ,4.02889 ,39.53150 
68 ,12.4276 ,0.96844 ,4.00836 ,39.33003 
69 ,12.6038 ,0.97024 ,3.98098 ,39.06141 
70 ,12.7799 ,0.97193 ,3.96729 ,38.92709 
71 ,12.9559 ,0.97373 ,3.96387 ,38.89352 
72 ,13.1320 ,0.97551 ,3.95361 ,38.79278 
73 ,13.3081 ,0.97725 ,3.92281 ,38.49058 
74 ,13.4839 ,0.97900 ,3.90227 ,38.28911 
75 ,13.6599 ,0.98077 ,3.88174 ,38.08764 
76 ,13.8359 ,0.98251 ,3.87832 ,38.05406 
77 ,14.0285 ,0.98438 ,3.85779 ,37.85259 
78 ,14.2362 ,0.98653 ,3.83041 ,37.58396 
79 ,14.4126 ,0.98828 ,3.83725 ,37.65112 
80 ,14.5886 ,0.99003 ,3.80303 ,37.31534 
81 ,14.7647 ,0.99184 ,3.78592 ,37.14744 
82 ,14.9409 ,0.99363 ,3.75854 ,36.87882 
83 ,15.1168 ,0.99534 ,3.74828 ,36.77808 
84 ,15.2930 ,0.99711 ,3.75512 ,36.84524 
85 ,15.4850 ,0.99902 ,3.71405 ,36.44230 
86 ,15.6608 ,1.00074 ,3.70379 ,36.34157 
87 ,15.8372 ,1.00249 ,3.69694 ,36.27441 
88 ,16.0293 ,1.00452 ,3.67641 ,36.07294 
89 ,16.2216 ,1.00635 ,3.65930 ,35.90505 
90 ,16.3974 ,1.00812 ,3.64219 ,35.73716 
91 ,16.5895 ,1.00997 ,3.62508 ,35.56926 
92 ,16.7652 ,1.01181 ,3.59086 ,35.23348 
93 ,16.9577 ,1.01364 ,3.58743 ,35.19990 
94 ,17.1498 ,1.01570 ,3.56348 ,34.96485 
95 ,17.3419 ,1.01759 ,3.55663 ,34.89770 
96 ,17.5178 ,1.01940 ,3.53610 ,34.69623 
97 ,17.7098 ,1.02118 ,3.54295 ,34.76338 
98 ,17.8859 ,1.02306 ,3.49846 ,34.32687 
99 ,18.0778 ,1.02490 ,3.50188 ,34.36045 
100 ,18.2539 ,1.02672 ,3.49161 ,34.25971 
101 ,18.4301 ,1.02847 ,3.46766 ,34.02466 
102 ,18.6225 ,1.03029 ,3.44713 ,33.82319 
103 ,18.8143 ,1.03224 ,3.43001 ,33.65530 
104 ,19.0065 ,1.03425 ,3.39921 ,33.35310 
105 ,19.2145 ,1.03623 ,3.39237 ,33.28594 
106 ,19.4227 ,1.03822 ,3.38210 ,33.18520 
107 ,19.5986 ,1.04020 ,3.35130 ,32.88300 
108 ,19.7746 ,1.04188 ,3.34788 ,32.84942 
109 ,19.9505 ,1.04367 ,3.32051 ,32.58080 
110 ,20.1269 ,1.04539 ,3.30682 ,32.44648 
111 ,20.3190 ,1.04739 ,3.29997 ,32.37933 
112 ,20.4947 ,1.04908 ,3.28286 ,32.21143 
113 ,20.6707 ,1.05088 ,3.26233 ,32.00996 
114 ,20.8310 ,1.05256 ,3.23837 ,31.77492 
115 ,21.0066 ,1.05421 ,3.22126 ,31.60702 
116 ,21.1993 ,1.05604 ,3.20073 ,31.40555 
117 ,21.3752 ,1.05788 ,3.20757 ,31.47271 
118 ,21.5510 ,1.05967 ,3.18362 ,31.23766 
119 ,21.7113 ,1.06138 ,3.15966 ,31.00262 
120 ,21.8874 ,1.06302 ,3.14597 ,30.86830 
121 ,22.0635 ,1.06473 ,3.13229 ,30.73399 
122 ,22.2396 ,1.06655 ,3.12202 ,30.63325 
123 ,22.4159 ,1.06830 ,3.12202 ,30.63325 
124 ,22.6078 ,1.07021 ,3.08780 ,30.29747 
125 ,22.7999 ,1.07218 ,3.08095 ,30.23031 
126 ,22.9760 ,1.07393 ,3.06384 ,30.06242 
127 ,23.1519 ,1.07568 ,3.04331 ,29.86095 
128 ,23.3280 ,1.07741 ,3.02962 ,29.72664 
129 ,23.5204 ,1.07933 ,3.01251 ,29.55875 
130 ,23.6962 ,1.08111 ,3.00224 ,29.45801 
131 ,23.8882 ,1.08301 ,2.96118 ,29.05507 
132 ,24.0644 ,1.08477 ,2.96460 ,29.08865 
133 ,24.2722 ,1.08671 ,2.94064 ,28.85360 
134 ,24.4645 ,1.08879 ,2.93038 ,28.75287 
135 ,24.6405 ,1.09056 ,2.91669 ,28.61856 
136 ,24.8328 ,1.09247 ,2.90985 ,28.55140 
137 ,25.0408 ,1.09446 ,2.87905 ,28.24919 
138 ,25.2167 ,1.09633 ,2.88589 ,28.31635 
139 ,25.3929 ,1.09804 ,2.85167 ,27.98057 
140 ,25.5851 ,1.09990 ,2.83456 ,27.81268 
141 ,25.7609 ,1.10175 ,2.82429 ,27.71194 
142 ,25.9372 ,1.10353 ,2.80718 ,27.54405 
143 ,26.1292 ,1.10547 ,2.78665 ,27.34258 
144 ,26.3052 ,1.10719 ,2.77296 ,27.20827 
145 ,26.4813 ,1.10894 ,2.77638 ,27.24185 
146 ,26.6575 ,1.11067 ,2.74900 ,26.97322 
147 ,26.8174 ,1.11244 ,2.73874 ,26.87248 
148 ,26.9935 ,1.11408 ,2.72163 ,26.70459 
149 ,27.1696 ,1.11586 ,2.70452 ,26.53670 
150 ,27.3454 ,1.11755 ,2.68740 ,26.36881 
151 ,27.5378 ,1.11936 ,2.67372 ,26.23450 
152 ,27.7136 ,1.12131 ,2.64292 ,25.93229 
153 ,27.8899 ,1.12303 ,2.63949 ,25.89871 
154 ,28.0661 ,1.12478 ,2.62238 ,25.73082 
155 ,28.2583 ,1.12669 ,2.62581 ,25.76440 
156 ,28.4341 ,1.12847 ,2.61554 ,25.66367 
157 ,28.6102 ,1.13026 ,2.57105 ,25.22715 
158 ,28.7865 ,1.13197 ,2.55736 ,25.09283 
159 ,28.9784 ,1.13386 ,2.54367 ,24.95852 
160 ,29.1545 ,1.13567 ,2.55394 ,25.05926 
161 ,29.3306 ,1.13739 ,2.51630 ,24.68989 
162 ,29.5229 ,1.13936 ,2.49918 ,24.52200 
163 ,29.7306 ,1.14131 ,2.49918 ,24.52200 
164 ,29.9069 ,1.14315 ,2.47523 ,24.28696 
165 ,30.0828 ,1.14495 ,2.46154 ,24.15264 
166 ,30.2750 ,1.14675 ,2.46154 ,24.15264 
167 ,30.4667 ,1.14874 ,2.42732 ,23.81686 
168 ,30.6431 ,1.15051 ,2.43759 ,23.91759 
169 ,30.8352 ,1.15239 ,2.40336 ,23.58181 
170 ,31.0112 ,1.15427 ,2.39994 ,23.54823 
171 ,31.1872 ,1.15597 ,2.37256 ,23.27961 
172 ,31.3794 ,1.15788 ,2.37256 ,23.27961 
173 ,31.5554 ,1.15969 ,2.35888 ,23.14529 
174 ,31.7474 ,1.16161 ,2.32808 ,22.84309 
175 ,31.9235 ,1.16332 ,2.31781 ,22.74235 
176 ,32.0993 ,1.16511 ,2.30754 ,22.64162 
177 ,32.2756 ,1.16680 ,2.30412 ,22.60804 
178 ,32.4518 ,1.16861 ,2.27332 ,22.30584 
179 ,32.6279 ,1.17040 ,2.24594 ,22.03721 
180 ,32.8199 ,1.17231 ,2.24937 ,22.07079 
181 ,32.9960 ,1.17406 ,2.24594 ,22.03721 
182 ,33.1881 ,1.17601 ,2.19803 ,21.56711 
183 ,33.3641 ,1.17771 ,2.21172 ,21.70143 
184 ,33.5563 ,1.17963 ,2.19803 ,21.56711 
185 ,33.7483 ,1.18154 ,2.16039 ,21.19775 
186 ,33.9399 ,1.18349 ,2.15355 ,21.13059 
187 ,34.1165 ,1.18523 ,2.15697 ,21.16417 
188 ,34.2924 ,1.18703 ,2.12275 ,20.82839 
189 ,34.4686 ,1.18881 ,2.10564 ,20.66050 
190 ,34.6606 ,1.19056 ,2.10221 ,20.62692 
191 ,34.8529 ,1.19265 ,2.07141 ,20.32472 
192 ,35.0447 ,1.19455 ,2.05088 ,20.12325 
193 ,35.2211 ,1.19633 ,2.06457 ,20.25756 
194 ,35.3969 ,1.19813 ,2.04746 ,20.08967 
195 ,35.5730 ,1.19986 ,2.03035 ,19.92178 
196 ,35.7488 ,1.20159 ,1.99613 ,19.58599 
197 ,35.9253 ,1.20334 ,1.99270 ,19.55241 
198 ,36.1175 ,1.20524 ,1.97902 ,19.41810 
199 ,36.3093 ,1.20712 ,1.97902 ,19.41810 
200 ,36.5175 ,1.20913 ,1.95506 ,19.18305 
201 ,36.6933 ,1.21104 ,1.92426 ,18.88085 
202 ,36.8856 ,1.21295 ,1.90031 ,18.64580 
203 ,37.0938 ,1.21493 ,1.91057 ,18.74654 
204 ,37.2697 ,1.21678 ,1.87293 ,18.37717 
205 ,37.4459 ,1.21853 ,1.87293 ,18.37717 
206 ,37.6380 ,1.22035 ,1.85240 ,18.17570 
207 ,37.8139 ,1.22228 ,1.85240 ,18.17570 
208 ,37.9902 ,1.22401 ,1.82502 ,17.90708 
209 ,38.1823 ,1.22595 ,1.81475 ,17.80634 
210 ,38.3582 ,1.22767 ,1.80106 ,17.67203 
211 ,38.5342 ,1.22943 ,1.77711 ,17.43698 
212 ,38.7264 ,1.23126 ,1.76342 ,17.30267 
213 ,38.9022 ,1.23312 ,1.76000 ,17.26909 
214 ,39.0785 ,1.23487 ,1.74631 ,17.13478 
215 ,39.2545 ,1.23661 ,1.73262 ,17.00046 
216 ,39.4467 ,1.23847 ,1.70524 ,16.73184 
217 ,39.6225 ,1.24034 ,1.69155 ,16.59752 
218 ,39.8146 ,1.24216 ,1.67786 ,16.46321 
219 ,39.9905 ,1.24395 ,1.67102 ,16.39605 
220 ,40.1669 ,1.24573 ,1.65391 ,16.22816 
221 ,40.3752 ,1.24777 ,1.64364 ,16.12743 
222 ,40.5672 ,1.24975 ,1.62653 ,15.95954 
223 ,40.7432 ,1.25152 ,1.61284 ,15.82522 
224 ,40.9193 ,1.25322 ,1.60258 ,15.72449 
225 ,41.1275 ,1.25519 ,1.58204 ,15.52302 
226 ,41.3035 ,1.25713 ,1.56493 ,15.35513 
227 ,41.4796 ,1.25892 ,1.56151 ,15.32155 
228 ,41.6557 ,1.26064 ,1.55124 ,15.22081 
229 ,41.8477 ,1.26252 ,1.52387 ,14.95219 
230 ,42.0237 ,1.26430 ,1.51702 ,14.88503 
231 ,42.1999 ,1.26609 ,1.49649 ,14.68356 
232 ,42.3917 ,1.26794 ,1.47938 ,14.51567 
233 ,42.5681 ,1.26975 ,1.46227 ,14.34778 
234 ,42.7440 ,1.27150 ,1.44858 ,14.21346 
235 ,42.9200 ,1.27331 ,1.44858 ,14.21346 
236 ,43.0962 ,1.27501 ,1.43831 ,14.11273 
237 ,43.2881 ,1.27688 ,1.40751 ,13.81053 
238 ,43.4644 ,1.27870 ,1.40067 ,13.74337 
239 ,43.6564 ,1.28062 ,1.39383 ,13.67621 
240 ,43.8326 ,1.28242 ,1.35960 ,13.34043 
241 ,44.0246 ,1.28425 ,1.36645 ,13.40759 
242 ,44.1843 ,1.28602 ,1.35960 ,13.34043 
243 ,44.3605 ,1.28766 ,1.34249 ,13.17254 
244 ,44.5367 ,1.28940 ,1.30485 ,12.80318 
245 ,44.7288 ,1.29125 ,1.29800 ,12.73602 
246 ,44.9211 ,1.29314 ,1.30143 ,12.76960 
247 ,45.1127 ,1.29518 ,1.26720 ,12.43381 
248 ,45.2887 ,1.29692 ,1.25352 ,12.29950 
249 ,45.4647 ,1.29868 ,1.24667 ,12.23235 
250 ,45.6409 ,1.30045 ,1.24667 ,12.23235 
251 ,45.8170 ,1.30222 ,1.22272 ,11.99730 
252 ,45.9931 ,1.30396 ,1.20218 ,11.79583 
253 ,46.1853 ,1.30584 ,1.18507 ,11.62794 
254 ,46.3611 ,1.30778 ,1.18165 ,11.59436 
255 ,46.5377 ,1.30944 ,1.16454 ,11.42647 
256 ,46.7298 ,1.31135 ,1.15427 ,11.32573 
257 ,46.9219 ,1.31327 ,1.14743 ,11.25857 
258 ,47.0979 ,1.31508 ,1.13716 ,11.15784 
259 ,47.3059 ,1.31711 ,1.11663 ,10.95637 
260 ,47.4820 ,1.31887 ,1.09952 ,10.78848 
261 ,47.6740 ,1.32078 ,1.06530 ,10.45270 
262 ,47.8496 ,1.32257 ,1.06530 ,10.45270 
263 ,48.0262 ,1.32429 ,1.06187 ,10.41912 
264 ,48.2503 ,1.32643 ,1.04819 ,10.28480 
265 ,48.4260 ,1.32829 ,1.02081 ,10.01618 
266 ,48.6185 ,1.33012 ,1.01396 ,9.94902 
267 ,48.8265 ,1.33224 ,0.99685 ,9.78113 
268 ,49.0188 ,1.33425 ,0.98659 ,9.68039 
269 ,49.1946 ,1.33602 ,0.96605 ,9.47892 
270 ,49.3708 ,1.33773 ,0.95921 ,9.41177 
271 ,49.5627 ,1.33963 ,0.94894 ,9.31103 
272 ,49.7386 ,1.34143 ,0.94210 ,9.24388 
273 ,49.9310 ,1.34323 ,0.90446 ,8.87451 
274 ,50.1230 ,1.34527 ,0.90446 ,8.87451 
275 ,50.2990 ,1.34704 ,0.90103 ,8.84094 
276 ,50.4751 ,1.34881 ,0.85654 ,8.40442 
277 ,50.6513 ,1.35053 ,0.84628 ,8.30368 
278 ,50.8433 ,1.35247 ,0.84970 ,8.33726 
279 ,51.0196 ,1.35426 ,0.84286 ,8.27011 
280 ,51.2274 ,1.35623 ,0.82232 ,8.06864 
281 ,51.4036 ,1.35805 ,0.81890 ,8.03506 
282 ,51.5795 ,1.35989 ,0.79152 ,7.76643 
283 ,51.7716 ,1.36175 ,0.77099 ,7.56496 
284 ,51.9637 ,1.36362 ,0.77784 ,7.63212 
285 ,52.1399 ,1.36544 ,0.75730 ,7.43065 
286 ,52.3319 ,1.36735 ,0.73677 ,7.22918 
287 ,52.5080 ,1.36905 ,0.74704 ,7.32991 
288 ,52.7158 ,1.37114 ,0.70939 ,6.96055 
289 ,52.8921 ,1.37293 ,0.68886 ,6.75908 
290 ,53.0683 ,1.37471 ,0.69570 ,6.82624 
291 ,53.2444 ,1.37647 ,0.68201 ,6.69193 
292 ,53.4524 ,1.37856 ,0.65806 ,6.45688 
293 ,53.6283 ,1.38033 ,0.65464 ,6.42330 
294 ,53.8045 ,1.38205 ,0.64779 ,6.35614 
295 ,53.9805 ,1.38379 ,0.60673 ,5.95320 
296 ,54.1565 ,1.38558 ,0.62042 ,6.08752 
297 ,54.3326 ,1.38736 ,0.59988 ,5.88605 
298 ,54.5087 ,1.38914 ,0.60673 ,5.95320 
299 ,54.7009 ,1.39090 ,0.57593 ,5.65100 
300 ,54.8767 ,1.39284 ,0.56566 ,5.55026 
301 ,55.0689 ,1.39463 ,0.56566 ,5.55026 
302 ,55.2448 ,1.39644 ,0.55197 ,5.41595 
303 ,55.4211 ,1.39820 ,0.51775 ,5.08017 
304 ,55.5973 ,1.39997 ,0.50064 ,4.91228 
305 ,55.7893 ,1.40194 ,0.50406 ,4.94585 
306 ,55.9654 ,1.40364 ,0.49380 ,4.84512 
307 ,56.1415 ,1.40549 ,0.48695 ,4.77796 
308 ,56.3176 ,1.40721 ,0.45615 ,4.47576 
309 ,56.4937 ,1.40895 ,0.45615 ,4.47576 
310 ,56.6695 ,1.41072 ,0.44246 ,4.34144 
311 ,56.8458 ,1.41249 ,0.43562 ,4.27429 
312 ,57.0376 ,1.41437 ,0.40824 ,4.00566 
313 ,57.2299 ,1.41632 ,0.40482 ,3.97208 
314 ,57.4058 ,1.41809 ,0.39455 ,3.87135 
315 ,57.5819 ,1.41979 ,0.36375 ,3.56914 
316 ,57.7580 ,1.42158 ,0.36718 ,3.60272 
317 ,57.9340 ,1.42338 ,0.36033 ,3.53557 
318 ,58.1261 ,1.42527 ,0.35691 ,3.50199 
319 ,58.3183 ,1.42718 ,0.31926 ,3.13263 
320 ,58.4945 ,1.42896 ,0.31242 ,3.06547 
321 ,58.6865 ,1.43084 ,0.31926 ,3.13263 
322 ,58.8621 ,1.43268 ,0.30558 ,2.99831 
323 ,59.0383 ,1.43437 ,0.27478 ,2.69611 
324 ,59.2146 ,1.43616 ,0.26109 ,2.56179 
325 ,59.3908 ,1.43794 ,0.26109 ,2.56179 
326 ,59.5666 ,1.43970 ,0.25424 ,2.49464 
327 ,59.7426 ,1.44138 ,0.22687 ,2.22601 
328 ,59.9189 ,1.44320 ,0.22687 ,2.22601 
329 ,60.0947 ,1.44492 ,0.21660 ,2.12528 
330 ,60.2710 ,1.44673 ,0.19949 ,1.95738 
331 ,60.4792 ,1.44871 ,0.18580 ,1.82307 
332 ,60.6552 ,1.45056 ,0.17211 ,1.68876 
333 ,60.8312 ,1.45228 ,0.16527 ,1.62160 
334 ,61.0237 ,1.45423 ,0.15842 ,1.55445 
335 ,61.1994 ,1.45597 ,0.13447 ,1.31940 
336 ,61.3755 ,1.45775 ,0.12420 ,1.21866 
337 ,61.5677 ,1.45970 ,0.12078 ,1.18508 
338 ,61.7436 ,1.46145 ,0.11393 ,1.11793 
339 ,61.9197 ,1.46321 ,0.09682 ,0.95004 
340 ,62.1117 ,1.46512 ,0.08998 ,0.88288 
341 ,62.2879 ,1.46683 ,0.07971 ,0.78214 
342 ,62.4636 ,1.46860 ,0.06602 ,0.64783 
343 ,62.6401 ,1.47038 ,0.04207 ,0.41278 
344 ,62.8319 ,1.47231 ,0.03522 ,0.34563 
345 ,63.0081 ,1.47406 ,0.04207 ,0.41278 
346 ,63.1841 ,1.47579 ,0.01811 ,0.17773 
347 ,63.3603 ,1.47770 ,-0.00584 ,-0.05731 
348 ,63.5684 ,1.47951 ,-0.01269 ,-0.12447 
349 ,63.7605 ,1.48153 ,-0.01611 ,-0.15805 
350 ,63.9366 ,1.48333 ,-0.02637 ,-0.25878 
351 ,64.1127 ,1.48512 ,-0.02637 ,-0.25878 
352 ,64.2884 ,1.48687 ,-0.04006 ,-0.39310 
353 ,64.4647 ,1.48860 ,-0.05033 ,-0.49383 
354 ,64.6409 ,1.49041 ,-0.08455 ,-0.82961 
355 ,64.8170 ,1.49220 ,-0.09482 ,-0.93035 
356 ,64.9929 ,1.49389 ,-0.09140 ,-0.89677 
357 ,65.1689 ,1.49567 ,-0.08797 ,-0.86319 
358 ,65.3452 ,1.49743 ,-0.11877 ,-1.16540 
359 ,65.5215 ,1.49918 ,-0.13931 ,-1.36687 
360 ,65.6974 ,1.50095 ,-0.13931 ,-1.36687 
361 ,65.8734 ,1.50268 ,-0.13931 ,-1.36687 
362 ,66.0335 ,1.50442 ,-0.15299 ,-1.50118 
363 ,66.2096 ,1.50608 ,-0.13931 ,-1.36687 
364 ,66.3857 ,1.50784 ,-0.17695 ,-1.73623 
365 ,66.5618 ,1.50961 ,-0.19064 ,-1.87054 
366 ,66.7534 ,1.51160 ,-0.19748 ,-1.93770 
367 ,66.9299 ,1.51322 ,-0.20090 ,-1.97128 
368 ,67.1220 ,1.51520 ,-0.22486 ,-2.20632 
369 ,67.2976 ,1.51692 ,-0.22828 ,-2.23990 
370 ,67.4580 ,1.51866 ,-0.24197 ,-2.37422 
371 ,67.6342 ,1.52030 ,-0.23855 ,-2.34064 
372 ,67.8102 ,1.52211 ,-0.25566 ,-2.50853 
373 ,67.9863 ,1.52382 ,-0.27277 ,-2.67642 
374 ,68.1624 ,1.52564 ,-0.28646 ,-2.81073 
375 ,68.3385 ,1.52734 ,-0.30015 ,-2.94505 
376 ,68.5304 ,1.52930 ,-0.29330 ,-2.87789 
377 ,68.7066 ,1.53113 ,-0.32410 ,-3.18010 
378 ,68.8987 ,1.53290 ,-0.33437 ,-3.28083 
379 ,69.0748 ,1.53473 ,-0.32068 ,-3.14652 
380 ,69.2669 ,1.53661 ,-0.34464 ,-3.38156 
381 ,69.4428 ,1.53836 ,-0.37201 ,-3.65019 
382 ,69.6190 ,1.54014 ,-0.37201 ,-3.65019 
383 ,69.7948 ,1.54192 ,-0.37886 ,-3.71735 
384 ,69.9872 ,1.54378 ,-0.39939 ,-3.91882 
385 ,70.1632 ,1.54558 ,-0.40623 ,-3.98597 
386 ,70.3553 ,1.54746 ,-0.39939 ,-3.91882 
387 ,70.5314 ,1.54925 ,-0.40966 ,-4.01955 
388 ,70.7070 ,1.55115 ,-0.43703 ,-4.28818 
389 ,70.8834 ,1.55275 ,-0.45757 ,-4.48965 
390 ,71.0596 ,1.55454 ,-0.46099 ,-4.52323 
391 ,71.2357 ,1.55633 ,-0.45757 ,-4.48965 
392 ,71.4278 ,1.55823 ,-0.46441 ,-4.55681 
393 ,71.6037 ,1.56004 ,-0.48152 ,-4.72470 
394 ,71.7795 ,1.56171 ,-0.49863 ,-4.89259 
395 ,71.9558 ,1.56348 ,-0.49521 ,-4.85901 
396 ,72.1320 ,1.56525 ,-0.50548 ,-4.95975 
397 ,72.3081 ,1.56703 ,-0.51574 ,-5.06048 
398 ,72.4841 ,1.56881 ,-0.54997 ,-5.39626 
399 ,72.6603 ,1.57055 ,-0.55681 ,-5.46342 
400 ,72.8522 ,1.57246 ,-0.54312 ,-5.32911 
401 ,73.0283 ,1.57419 ,-0.55681 ,-5.46342 
402 ,73.2045 ,1.57601 ,-0.57734 ,-5.66489 
403 ,73.3805 ,1.57778 ,-0.59788 ,-5.86636 
404 ,73.5726 ,1.57966 ,-0.58419 ,-5.73205 
405 ,73.7486 ,1.58139 ,-0.60130 ,-5.89994 
406 ,73.9244 ,1.58330 ,-0.63210 ,-6.20214 
407 ,74.1004 ,1.58496 ,-0.63552 ,-6.23572 
408 ,74.2765 ,1.58668 ,-0.62868 ,-6.16856 
409 ,74.4528 ,1.58844 ,-0.62868 ,-6.16856 
410 ,74.6450 ,1.59046 ,-0.66632 ,-6.53793 
411 ,74.8208 ,1.59219 ,-0.66974 ,-6.57150 
412 ,74.9972 ,1.59390 ,-0.67316 ,-6.60508 
413 ,75.1890 ,1.59585 ,-0.67316 ,-6.60508 
414 ,75.3812 ,1.59766 ,-0.70396 ,-6.90729 
415 ,75.5573 ,1.59954 ,-0.71423 ,-7.00802 
416 ,75.7493 ,1.60145 ,-0.72107 ,-7.07518 
417 ,75.9255 ,1.60325 ,-0.72792 ,-7.14233 
418 ,76.1017 ,1.60496 ,-0.74503 ,-7.31023 
419 ,76.2936 ,1.60690 ,-0.73818 ,-7.24307 
420 ,76.4698 ,1.60863 ,-0.74161 ,-7.27665 
421 ,76.6458 ,1.61038 ,-0.77583 ,-7.61243 
422 ,76.8218 ,1.61219 ,-0.78610 ,-7.71317 
423 ,76.9978 ,1.61394 ,-0.78267 ,-7.67959 
424 ,77.1899 ,1.61577 ,-0.80321 ,-7.88106 
425 ,77.3660 ,1.61752 ,-0.81347 ,-7.98179 
426 ,77.5423 ,1.61934 ,-0.82716 ,-8.11611 
427 ,77.7341 ,1.62118 ,-0.82374 ,-8.08253 
428 ,77.9263 ,1.62308 ,-0.83743 ,-8.21684 
429 ,78.1185 ,1.62506 ,-0.83743 ,-8.21684 
430 ,78.2943 ,1.62685 ,-0.85454 ,-8.38473 
431 ,78.4705 ,1.62870 ,-0.88192 ,-8.65336 
432 ,78.6465 ,1.63044 ,-0.88192 ,-8.65336 
433 ,78.8227 ,1.63211 ,-0.89560 ,-8.78767 
434 ,78.9987 ,1.63402 ,-0.88876 ,-8.72051 
435 ,79.1747 ,1.63567 ,-0.89903 ,-8.82125 
436 ,79.3508 ,1.63740 ,-0.91956 ,-9.02272 
437 ,79.5269 ,1.63914 ,-0.93325 ,-9.15703 
438 ,79.7030 ,1.64092 ,-0.95036 ,-9.32492 
439 ,79.8951 ,1.64286 ,-0.94694 ,-9.29135 
440 ,80.0712 ,1.64463 ,-0.95378 ,-9.35850 
441 ,80.2472 ,1.64640 ,-0.96747 ,-9.49282 
442 ,80.4232 ,1.64812 ,-0.99485 ,-9.76144 
443 ,80.5990 ,1.64987 ,-0.98116 ,-9.62713 
444 ,80.7751 ,1.65164 ,-0.99485 ,-9.76144 
445 ,80.9512 ,1.65339 ,-1.00854 ,-9.89576 
446 ,81.1276 ,1.65517 ,-1.02565 ,-10.06365 
447 ,81.3199 ,1.65714 ,-1.03934 ,-10.19796 
448 ,81.5118 ,1.65906 ,-1.03591 ,-10.16438 
449 ,81.7038 ,1.66097 ,-1.06329 ,-10.43301 
450 ,81.8798 ,1.66268 ,-1.04960 ,-10.29869 
451 ,82.0560 ,1.66451 ,-1.05302 ,-10.33227 
452 ,82.2480 ,1.66639 ,-1.06329 ,-10.43301 
453 ,82.4081 ,1.66810 ,-1.09067 ,-10.70163 
454 ,82.6003 ,1.66988 ,-1.08040 ,-10.60090 
455 ,82.7763 ,1.67170 ,-1.09409 ,-10.73521 
456 ,82.9524 ,1.67339 ,-1.09409 ,-10.73521 
457 ,83.1443 ,1.67524 ,-1.12831 ,-11.07100 
458 ,83.3204 ,1.67709 ,-1.12831 ,-11.07100 
459 ,83.4965 ,1.67887 ,-1.13516 ,-11.13815 
460 ,83.7045 ,1.68084 ,-1.15227 ,-11.30604 
461 ,83.8808 ,1.68270 ,-1.16253 ,-11.40678 
462 ,84.0725 ,1.68463 ,-1.16253 ,-11.40678 
