Data stamp = , 29-03-2022 16:43:48 022

Calibration Values: 
Slope = , 26.54 , g/V 
Offset Voltage at no contact = , -0.501760 , V 

No , Time , Stage Position ,   Mass , Force 
   ,  (s) ,      (mm)      ,   (g)  , (mN)  

1 ,0.0000 ,0.84955 ,5.03501 ,49.40352 
2 ,0.2144 ,0.84962 ,5.04185 ,49.47068 
3 ,0.5184 ,0.85041 ,5.02474 ,49.30279 
4 ,0.7106 ,0.85180 ,5.03501 ,49.40352 
5 ,0.9025 ,0.85340 ,5.03159 ,49.36995 
6 ,1.0787 ,0.85508 ,5.03501 ,49.40352 
7 ,1.2549 ,0.85680 ,5.04870 ,49.53784 
8 ,1.4308 ,0.85860 ,5.04528 ,49.50426 
9 ,1.6071 ,0.86037 ,5.00763 ,49.13490 
10 ,1.7990 ,0.86229 ,5.00079 ,49.06774 
11 ,1.9911 ,0.86420 ,4.97341 ,48.79911 
12 ,2.1831 ,0.86611 ,4.97341 ,48.79911 
13 ,2.3591 ,0.86789 ,4.94946 ,48.56407 
14 ,2.5514 ,0.86980 ,4.93235 ,48.39618 
15 ,2.7434 ,0.87175 ,4.92208 ,48.29544 
16 ,2.9031 ,0.87347 ,4.91523 ,48.22828 
17 ,3.0796 ,0.87507 ,4.89812 ,48.06039 
18 ,3.2716 ,0.87700 ,4.87759 ,47.85892 
19 ,3.4477 ,0.87876 ,4.84679 ,47.55672 
20 ,3.6238 ,0.88054 ,4.83995 ,47.48956 
21 ,3.8158 ,0.88242 ,4.82968 ,47.38883 
22 ,3.9917 ,0.88421 ,4.80915 ,47.18736 
23 ,4.1680 ,0.88598 ,4.77835 ,46.88515 
24 ,4.3600 ,0.88783 ,4.78519 ,46.95231 
25 ,4.5361 ,0.88972 ,4.76808 ,46.78442 
26 ,4.7280 ,0.89159 ,4.74413 ,46.54937 
27 ,4.9042 ,0.89335 ,4.71333 ,46.24716 
28 ,5.0963 ,0.89533 ,4.69964 ,46.11285 
29 ,5.2883 ,0.89714 ,4.68253 ,45.94496 
30 ,5.4643 ,0.89895 ,4.66199 ,45.74349 
31 ,5.6405 ,0.90070 ,4.66884 ,45.81065 
32 ,5.8329 ,0.90262 ,4.63119 ,45.44128 
33 ,6.0084 ,0.90441 ,4.61408 ,45.27339 
34 ,6.2006 ,0.90624 ,4.60382 ,45.17266 
35 ,6.3929 ,0.90826 ,4.58671 ,45.00477 
36 ,6.5528 ,0.90998 ,4.55591 ,44.70256 
37 ,6.7288 ,0.91158 ,4.53880 ,44.53467 
38 ,6.9049 ,0.91330 ,4.52511 ,44.40036 
39 ,7.0808 ,0.91514 ,4.51484 ,44.29962 
40 ,7.2571 ,0.91686 ,4.50457 ,44.19889 
41 ,7.4492 ,0.91878 ,4.48404 ,43.99742 
42 ,7.6254 ,0.92065 ,4.46351 ,43.79595 
43 ,7.8014 ,0.92228 ,4.44982 ,43.66163 
44 ,7.9773 ,0.92403 ,4.43613 ,43.52732 
45 ,8.1372 ,0.92578 ,4.40533 ,43.22512 
46 ,8.3137 ,0.92743 ,4.40533 ,43.22512 
47 ,8.5053 ,0.92931 ,4.36427 ,42.82218 
48 ,8.6817 ,0.93107 ,4.36769 ,42.85576 
49 ,8.8736 ,0.93308 ,4.33004 ,42.48639 
50 ,9.0496 ,0.93476 ,4.31293 ,42.31850 
51 ,9.2256 ,0.93654 ,4.28556 ,42.04988 
52 ,9.3856 ,0.93827 ,4.29240 ,42.11703 
53 ,9.5619 ,0.93990 ,4.25818 ,41.78125 
54 ,9.7541 ,0.94179 ,4.26160 ,41.81483 
55 ,9.9463 ,0.94383 ,4.22053 ,41.41189 
56 ,10.1385 ,0.94571 ,4.22738 ,41.47905 
57 ,10.3144 ,0.94740 ,4.20000 ,41.21042 
58 ,10.4904 ,0.94915 ,4.17947 ,41.00895 
59 ,10.6826 ,0.95103 ,4.16920 ,40.90821 
60 ,10.8586 ,0.95289 ,4.15894 ,40.80748 
61 ,11.0507 ,0.95476 ,4.14183 ,40.63959 
62 ,11.2428 ,0.95673 ,4.12129 ,40.43812 
63 ,11.4187 ,0.95858 ,4.11445 ,40.37096 
64 ,11.5787 ,0.96019 ,4.09049 ,40.13591 
65 ,11.7557 ,0.96183 ,4.08023 ,40.03518 
66 ,11.9147 ,0.96358 ,4.05627 ,39.80013 
67 ,12.0748 ,0.96515 ,4.03574 ,39.59866 
68 ,12.2511 ,0.96677 ,4.01520 ,39.39719 
69 ,12.4429 ,0.96874 ,3.99809 ,39.22930 
70 ,12.6193 ,0.97044 ,3.99467 ,39.19572 
71 ,12.7953 ,0.97222 ,3.97756 ,39.02783 
72 ,12.9714 ,0.97400 ,3.97072 ,38.96067 
73 ,13.1635 ,0.97592 ,3.93307 ,38.59131 
74 ,13.3555 ,0.97782 ,3.92281 ,38.49058 
75 ,13.5477 ,0.97971 ,3.88516 ,38.12122 
76 ,13.7395 ,0.98171 ,3.89201 ,38.18837 
77 ,13.9318 ,0.98354 ,3.85094 ,37.78543 
78 ,14.1078 ,0.98537 ,3.85094 ,37.78543 
79 ,14.3159 ,0.98736 ,3.84752 ,37.75185 
80 ,14.4918 ,0.98917 ,3.82014 ,37.48323 
81 ,14.6681 ,0.99096 ,3.80303 ,37.31534 
82 ,14.8602 ,0.99287 ,3.79619 ,37.24818 
83 ,15.0363 ,0.99464 ,3.77908 ,37.08029 
84 ,15.2123 ,0.99637 ,3.75854 ,36.87882 
85 ,15.3883 ,0.99815 ,3.73459 ,36.64377 
86 ,15.5800 ,1.00006 ,3.72432 ,36.54303 
87 ,15.7566 ,1.00184 ,3.71405 ,36.44230 
88 ,15.9486 ,1.00375 ,3.69010 ,36.20725 
89 ,16.1407 ,1.00564 ,3.66614 ,35.97220 
90 ,16.3168 ,1.00746 ,3.65588 ,35.87147 
91 ,16.4926 ,1.00921 ,3.64903 ,35.80431 
92 ,16.6850 ,1.01105 ,3.60454 ,35.36779 
93 ,16.8772 ,1.01305 ,3.60112 ,35.33422 
94 ,17.0531 ,1.01481 ,3.59086 ,35.23348 
95 ,17.2292 ,1.01656 ,3.57032 ,35.03201 
96 ,17.4375 ,1.01855 ,3.56006 ,34.93128 
97 ,17.6134 ,1.02041 ,3.53952 ,34.72981 
98 ,17.7895 ,1.02214 ,3.51899 ,34.52834 
99 ,17.9815 ,1.02405 ,3.50872 ,34.42760 
100 ,18.1576 ,1.02581 ,3.51215 ,34.46118 
101 ,18.3341 ,1.02762 ,3.48477 ,34.19255 
102 ,18.5258 ,1.02950 ,3.46081 ,33.95751 
103 ,18.7176 ,1.03148 ,3.44028 ,33.75604 
104 ,18.8779 ,1.03317 ,3.41975 ,33.55457 
105 ,19.0539 ,1.03478 ,3.41633 ,33.52099 
106 ,19.2461 ,1.03672 ,3.37868 ,33.15163 
107 ,19.4219 ,1.03846 ,3.37526 ,33.11805 
108 ,19.5982 ,1.04023 ,3.35815 ,32.95016 
109 ,19.7899 ,1.04214 ,3.34104 ,32.78227 
110 ,19.9503 ,1.04386 ,3.32051 ,32.58080 
111 ,20.1424 ,1.04564 ,3.31366 ,32.51364 
112 ,20.3185 ,1.04744 ,3.29655 ,32.34575 
113 ,20.4943 ,1.04919 ,3.27944 ,32.17786 
114 ,20.6707 ,1.05090 ,3.25548 ,31.94281 
115 ,20.8303 ,1.05268 ,3.24180 ,31.80849 
116 ,21.0067 ,1.05428 ,3.22811 ,31.67418 
117 ,21.1826 ,1.05603 ,3.20415 ,31.43913 
118 ,21.3587 ,1.05788 ,3.20073 ,31.40555 
119 ,21.5509 ,1.05973 ,3.17677 ,31.17051 
120 ,21.7430 ,1.06163 ,3.16651 ,31.06977 
121 ,21.9188 ,1.06342 ,3.15282 ,30.93546 
122 ,22.0952 ,1.06520 ,3.14940 ,30.90188 
123 ,22.2873 ,1.06711 ,3.11518 ,30.56610 
124 ,22.4634 ,1.06885 ,3.09806 ,30.39821 
125 ,22.6555 ,1.07084 ,3.10149 ,30.43178 
126 ,22.8475 ,1.07273 ,3.06726 ,30.09600 
127 ,23.0395 ,1.07458 ,3.06384 ,30.06242 
128 ,23.2317 ,1.07651 ,3.03989 ,29.82737 
129 ,23.4077 ,1.07830 ,3.02962 ,29.72664 
130 ,23.5840 ,1.08006 ,3.00224 ,29.45801 
131 ,23.7598 ,1.08184 ,2.98171 ,29.25654 
132 ,23.9520 ,1.08375 ,2.97487 ,29.18939 
133 ,24.1441 ,1.08560 ,2.95433 ,28.98792 
134 ,24.3364 ,1.08757 ,2.95091 ,28.95434 
135 ,24.5281 ,1.08949 ,2.90300 ,28.48424 
136 ,24.7041 ,1.09124 ,2.89958 ,28.45066 
137 ,24.8802 ,1.09304 ,2.88931 ,28.34993 
138 ,25.0562 ,1.09474 ,2.89958 ,28.45066 
139 ,25.2485 ,1.09662 ,2.85167 ,27.98057 
140 ,25.4407 ,1.09865 ,2.84482 ,27.91341 
141 ,25.6003 ,1.10035 ,2.85167 ,27.98057 
142 ,25.7768 ,1.10199 ,2.83114 ,27.77910 
143 ,25.9687 ,1.10391 ,2.78665 ,27.34258 
144 ,26.1286 ,1.10560 ,2.78665 ,27.34258 
145 ,26.3051 ,1.10725 ,2.76954 ,27.17469 
146 ,26.4971 ,1.10919 ,2.75243 ,27.00680 
147 ,26.6732 ,1.11095 ,2.74558 ,26.93964 
148 ,26.8490 ,1.11273 ,2.72847 ,26.77175 
149 ,27.0251 ,1.11449 ,2.70794 ,26.57028 
150 ,27.1850 ,1.11615 ,2.69767 ,26.46954 
151 ,27.3613 ,1.11780 ,2.68740 ,26.36881 
152 ,27.5534 ,1.11974 ,2.68398 ,26.33523 
153 ,27.7454 ,1.12162 ,2.66003 ,26.10018 
154 ,27.9215 ,1.12344 ,2.63607 ,25.86514 
155 ,28.1135 ,1.12538 ,2.63265 ,25.83156 
156 ,28.3057 ,1.12726 ,2.60527 ,25.56293 
157 ,28.4976 ,1.12923 ,2.58816 ,25.39504 
158 ,28.6738 ,1.13090 ,2.58132 ,25.32788 
159 ,28.8498 ,1.13268 ,2.55394 ,25.05926 
160 ,29.0261 ,1.13446 ,2.53341 ,24.85779 
161 ,29.2180 ,1.13635 ,2.53341 ,24.85779 
162 ,29.4102 ,1.13826 ,2.50945 ,24.62274 
163 ,29.6022 ,1.14020 ,2.48550 ,24.38769 
164 ,29.7783 ,1.14198 ,2.47865 ,24.32053 
165 ,29.9542 ,1.14380 ,2.47181 ,24.25338 
166 ,30.1305 ,1.14551 ,2.44785 ,24.01833 
167 ,30.3063 ,1.14740 ,2.43416 ,23.88402 
168 ,30.4827 ,1.14899 ,2.40679 ,23.61539 
169 ,30.6585 ,1.15075 ,2.41363 ,23.68255 
170 ,30.8185 ,1.15250 ,2.39310 ,23.48108 
171 ,31.0106 ,1.15428 ,2.37599 ,23.31318 
172 ,31.1869 ,1.15606 ,2.35203 ,23.07814 
173 ,31.3786 ,1.15804 ,2.33492 ,22.91024 
174 ,31.5550 ,1.15972 ,2.33492 ,22.91024 
175 ,31.7470 ,1.16161 ,2.30754 ,22.64162 
176 ,31.9393 ,1.16358 ,2.30754 ,22.64162 
177 ,32.1153 ,1.16540 ,2.28701 ,22.44015 
178 ,32.3074 ,1.16721 ,2.25963 ,22.17152 
179 ,32.4673 ,1.16900 ,2.24937 ,22.07079 
180 ,32.6273 ,1.17061 ,2.22199 ,21.80216 
181 ,32.8037 ,1.17222 ,2.22199 ,21.80216 
182 ,32.9957 ,1.17413 ,2.21515 ,21.73500 
183 ,33.1877 ,1.17604 ,2.19461 ,21.53353 
184 ,33.3797 ,1.17798 ,2.18777 ,21.46638 
185 ,33.5560 ,1.17969 ,2.17066 ,21.29849 
186 ,33.7480 ,1.18168 ,2.15012 ,21.09702 
187 ,33.9398 ,1.18358 ,2.13644 ,20.96270 
188 ,34.1159 ,1.18539 ,2.13301 ,20.92912 
189 ,34.3081 ,1.18725 ,2.10564 ,20.66050 
190 ,34.4999 ,1.18918 ,2.08510 ,20.45903 
191 ,34.6761 ,1.19095 ,2.07826 ,20.39187 
192 ,34.8843 ,1.19297 ,2.04404 ,20.05609 
193 ,35.0603 ,1.19480 ,2.02008 ,19.82104 
194 ,35.2365 ,1.19654 ,2.02693 ,19.88820 
195 ,35.4127 ,1.19832 ,2.02008 ,19.82104 
196 ,35.6044 ,1.20028 ,2.00297 ,19.65315 
197 ,35.7807 ,1.20197 ,1.98586 ,19.48526 
198 ,35.9888 ,1.20404 ,1.95848 ,19.21663 
199 ,36.1808 ,1.20600 ,1.94137 ,19.04874 
200 ,36.3570 ,1.20775 ,1.94137 ,19.04874 
201 ,36.5490 ,1.20964 ,1.91399 ,18.78011 
202 ,36.7411 ,1.21152 ,1.89688 ,18.61222 
203 ,36.9329 ,1.21349 ,1.90031 ,18.64580 
204 ,37.1093 ,1.21522 ,1.86951 ,18.34360 
205 ,37.2853 ,1.21704 ,1.84897 ,18.14213 
206 ,37.4774 ,1.21895 ,1.85240 ,18.17570 
207 ,37.6531 ,1.22085 ,1.82844 ,17.94066 
208 ,37.8296 ,1.22245 ,1.80791 ,17.73919 
209 ,38.0217 ,1.22438 ,1.80449 ,17.70561 
210 ,38.1974 ,1.22617 ,1.79080 ,17.57129 
211 ,38.3737 ,1.22787 ,1.78395 ,17.50414 
212 ,38.5658 ,1.22983 ,1.75315 ,17.20193 
213 ,38.7419 ,1.23172 ,1.76000 ,17.26909 
214 ,38.9178 ,1.23333 ,1.75315 ,17.20193 
215 ,39.0939 ,1.23509 ,1.73262 ,17.00046 
216 ,39.2701 ,1.23690 ,1.70866 ,16.76542 
217 ,39.4462 ,1.23869 ,1.68129 ,16.49679 
218 ,39.6384 ,1.24053 ,1.69155 ,16.59752 
219 ,39.7982 ,1.24229 ,1.67102 ,16.39605 
220 ,39.9743 ,1.24388 ,1.65391 ,16.22816 
221 ,40.1505 ,1.24579 ,1.62653 ,15.95954 
222 ,40.3265 ,1.24745 ,1.62653 ,15.95954 
223 ,40.5186 ,1.24931 ,1.61969 ,15.89238 
224 ,40.7107 ,1.25125 ,1.58889 ,15.59018 
225 ,40.9030 ,1.25318 ,1.56836 ,15.38871 
226 ,41.0949 ,1.25510 ,1.58204 ,15.52302 
227 ,41.2709 ,1.25687 ,1.55467 ,15.25439 
228 ,41.4629 ,1.25879 ,1.53413 ,15.05292 
229 ,41.6390 ,1.26054 ,1.52729 ,14.98577 
230 ,41.8150 ,1.26235 ,1.52729 ,14.98577 
231 ,41.9909 ,1.26404 ,1.49991 ,14.71714 
232 ,42.1671 ,1.26584 ,1.47938 ,14.51567 
233 ,42.3591 ,1.26774 ,1.47938 ,14.51567 
234 ,42.5352 ,1.26949 ,1.46911 ,14.41493 
235 ,42.7115 ,1.27127 ,1.43147 ,14.04557 
236 ,42.8874 ,1.27304 ,1.43147 ,14.04557 
237 ,43.0636 ,1.27478 ,1.41094 ,13.84410 
238 ,43.2558 ,1.27670 ,1.41094 ,13.84410 
239 ,43.4478 ,1.27857 ,1.37671 ,13.50832 
240 ,43.6399 ,1.28051 ,1.37671 ,13.50832 
241 ,43.8320 ,1.28250 ,1.35618 ,13.30685 
242 ,44.0080 ,1.28421 ,1.32538 ,13.00465 
243 ,44.2000 ,1.28613 ,1.34591 ,13.20612 
244 ,44.3922 ,1.28807 ,1.31854 ,12.93749 
245 ,44.5843 ,1.28992 ,1.29800 ,12.73602 
246 ,44.7603 ,1.29177 ,1.29458 ,12.70244 
247 ,44.9525 ,1.29371 ,1.26378 ,12.40024 
248 ,45.1446 ,1.29555 ,1.24667 ,12.23235 
249 ,45.3206 ,1.29737 ,1.24325 ,12.19877 
250 ,45.5128 ,1.29921 ,1.21929 ,11.96372 
251 ,45.6885 ,1.30107 ,1.20903 ,11.86298 
252 ,45.8804 ,1.30295 ,1.21587 ,11.93014 
253 ,46.0564 ,1.30466 ,1.19876 ,11.76225 
254 ,46.2329 ,1.30651 ,1.17138 ,11.49362 
255 ,46.4568 ,1.30855 ,1.16454 ,11.42647 
256 ,46.6490 ,1.31062 ,1.14743 ,11.25857 
257 ,46.8251 ,1.31240 ,1.13374 ,11.12426 
258 ,47.0171 ,1.31431 ,1.13716 ,11.15784 
259 ,47.1930 ,1.31619 ,1.10294 ,10.82206 
260 ,47.3692 ,1.31785 ,1.08241 ,10.62059 
261 ,47.5614 ,1.31970 ,1.09267 ,10.72132 
262 ,47.7535 ,1.32164 ,1.05161 ,10.31838 
263 ,47.9297 ,1.32346 ,1.05161 ,10.31838 
264 ,48.1056 ,1.32518 ,1.04134 ,10.21765 
265 ,48.2816 ,1.32708 ,1.04476 ,10.25123 
266 ,48.4576 ,1.32880 ,1.00712 ,9.88186 
267 ,48.6339 ,1.33043 ,1.00028 ,9.81471 
268 ,48.8099 ,1.33226 ,0.97632 ,9.57966 
269 ,49.0021 ,1.33413 ,0.97974 ,9.61324 
270 ,49.1779 ,1.33592 ,0.96605 ,9.47892 
271 ,49.3539 ,1.33763 ,0.95237 ,9.34461 
272 ,49.5300 ,1.33945 ,0.93868 ,9.21030 
273 ,49.7221 ,1.34135 ,0.92157 ,9.04241 
274 ,49.8982 ,1.34312 ,0.93183 ,9.14314 
275 ,50.0744 ,1.34490 ,0.90446 ,8.87451 
276 ,50.2664 ,1.34683 ,0.88050 ,8.63947 
277 ,50.4586 ,1.34869 ,0.87708 ,8.60589 
278 ,50.6509 ,1.35067 ,0.84286 ,8.27011 
279 ,50.8427 ,1.35254 ,0.85312 ,8.37084 
280 ,51.0184 ,1.35433 ,0.84970 ,8.33726 
281 ,51.1949 ,1.35605 ,0.81206 ,7.96790 
282 ,51.3867 ,1.35799 ,0.78468 ,7.69927 
283 ,51.5470 ,1.35968 ,0.79837 ,7.83359 
284 ,51.7231 ,1.36134 ,0.79495 ,7.80001 
285 ,51.9150 ,1.36325 ,0.76757 ,7.53138 
286 ,52.0913 ,1.36504 ,0.75046 ,7.36349 
287 ,52.2835 ,1.36698 ,0.74361 ,7.29633 
288 ,52.4593 ,1.36885 ,0.74361 ,7.29633 
289 ,52.6355 ,1.37050 ,0.71624 ,7.02771 
290 ,52.8111 ,1.37225 ,0.69570 ,6.82624 
291 ,52.9712 ,1.37394 ,0.67859 ,6.65835 
292 ,53.1313 ,1.37555 ,0.66833 ,6.55761 
293 ,53.2913 ,1.37714 ,0.65464 ,6.42330 
294 ,53.4675 ,1.37880 ,0.65121 ,6.38972 
295 ,53.6439 ,1.38055 ,0.65464 ,6.42330 
296 ,53.8360 ,1.38245 ,0.63068 ,6.18825 
297 ,54.0118 ,1.38424 ,0.61699 ,6.05394 
298 ,54.1880 ,1.38595 ,0.60673 ,5.95320 
299 ,54.3641 ,1.38771 ,0.59988 ,5.88605 
300 ,54.5402 ,1.38965 ,0.58619 ,5.75173 
301 ,54.7163 ,1.39124 ,0.57593 ,5.65100 
302 ,54.8924 ,1.39303 ,0.54855 ,5.38237 
303 ,55.0684 ,1.39475 ,0.54855 ,5.38237 
304 ,55.2448 ,1.39653 ,0.53828 ,5.28164 
305 ,55.4368 ,1.39844 ,0.52459 ,5.14732 
306 ,55.6125 ,1.40027 ,0.50406 ,4.94585 
307 ,55.7886 ,1.40198 ,0.48695 ,4.77796 
308 ,55.9806 ,1.40389 ,0.49380 ,4.84512 
309 ,56.1569 ,1.40565 ,0.48695 ,4.77796 
310 ,56.3489 ,1.40759 ,0.45957 ,4.50934 
311 ,56.5248 ,1.40935 ,0.44246 ,4.34144 
312 ,56.6848 ,1.41106 ,0.44931 ,4.40860 
313 ,56.8610 ,1.41271 ,0.43904 ,4.30787 
314 ,57.0371 ,1.41459 ,0.41509 ,4.07282 
315 ,57.2132 ,1.41621 ,0.41509 ,4.07282 
316 ,57.3894 ,1.41800 ,0.38086 ,3.73703 
317 ,57.5493 ,1.41970 ,0.38771 ,3.80419 
318 ,57.7093 ,1.42132 ,0.38086 ,3.73703 
319 ,57.8856 ,1.42292 ,0.37402 ,3.66988 
320 ,58.0774 ,1.42483 ,0.35349 ,3.46841 
321 ,58.2537 ,1.42668 ,0.33980 ,3.33410 
322 ,58.4458 ,1.42849 ,0.32953 ,3.23336 
323 ,58.6380 ,1.43052 ,0.32611 ,3.19978 
324 ,58.8299 ,1.43243 ,0.28504 ,2.79684 
325 ,59.0385 ,1.43440 ,0.28847 ,2.83042 
326 ,59.2301 ,1.43638 ,0.28162 ,2.76326 
327 ,59.4060 ,1.43814 ,0.26109 ,2.56179 
328 ,59.5819 ,1.43998 ,0.25082 ,2.46106 
329 ,59.7741 ,1.44181 ,0.22687 ,2.22601 
330 ,59.9663 ,1.44368 ,0.24398 ,2.39390 
331 ,60.1583 ,1.44566 ,0.23029 ,2.25959 
332 ,60.3344 ,1.44740 ,0.20976 ,2.05812 
333 ,60.5106 ,1.44919 ,0.18922 ,1.85665 
334 ,60.7025 ,1.45111 ,0.18922 ,1.85665 
335 ,60.9106 ,1.45313 ,0.16185 ,1.58802 
336 ,61.1027 ,1.45511 ,0.15500 ,1.52087 
337 ,61.2948 ,1.45700 ,0.14816 ,1.45371 
338 ,61.4707 ,1.45877 ,0.11393 ,1.11793 
339 ,61.6469 ,1.46057 ,0.10709 ,1.05077 
340 ,61.8391 ,1.46244 ,0.11051 ,1.08435 
341 ,62.0151 ,1.46423 ,0.10025 ,0.98361 
342 ,62.2072 ,1.46613 ,0.08998 ,0.88288 
343 ,62.3993 ,1.46808 ,0.07971 ,0.78214 
344 ,62.5753 ,1.46986 ,0.06602 ,0.64783 
345 ,62.7514 ,1.47159 ,0.03865 ,0.37920 
346 ,62.9432 ,1.47349 ,0.05576 ,0.54710 
347 ,63.1355 ,1.47535 ,0.02496 ,0.24489 
348 ,63.3275 ,1.47738 ,0.02154 ,0.21131 
349 ,63.5195 ,1.47927 ,0.01127 ,0.11058 
350 ,63.7119 ,1.48114 ,-0.01269 ,-0.12447 
351 ,63.9039 ,1.48305 ,-0.00926 ,-0.09089 
352 ,64.0797 ,1.48486 ,-0.02295 ,-0.22520 
353 ,64.2719 ,1.48679 ,-0.04348 ,-0.42667 
354 ,64.4642 ,1.48869 ,-0.04006 ,-0.39310 
355 ,64.6400 ,1.49047 ,-0.04691 ,-0.46025 
356 ,64.8163 ,1.49220 ,-0.08455 ,-0.82961 
357 ,65.0083 ,1.49413 ,-0.09824 ,-0.96393 
358 ,65.2005 ,1.49608 ,-0.10166 ,-0.99751 
359 ,65.3924 ,1.49796 ,-0.11877 ,-1.16540 
360 ,65.5524 ,1.49971 ,-0.13246 ,-1.29971 
361 ,65.7285 ,1.50131 ,-0.13931 ,-1.36687 
362 ,65.9048 ,1.50310 ,-0.13931 ,-1.36687 
363 ,66.0967 ,1.50503 ,-0.17353 ,-1.70265 
364 ,66.2887 ,1.50688 ,-0.17011 ,-1.66907 
365 ,66.4485 ,1.50870 ,-0.18379 ,-1.80338 
366 ,66.6245 ,1.51030 ,-0.18379 ,-1.80338 
367 ,66.7848 ,1.51201 ,-0.20090 ,-1.97128 
368 ,66.9611 ,1.51364 ,-0.20090 ,-1.97128 
369 ,67.1531 ,1.51557 ,-0.22144 ,-2.17275 
370 ,67.3453 ,1.51742 ,-0.23170 ,-2.27348 
371 ,67.5212 ,1.51940 ,-0.24197 ,-2.37422 
372 ,67.6812 ,1.52100 ,-0.25224 ,-2.47495 
373 ,67.8574 ,1.52262 ,-0.26935 ,-2.64284 
374 ,68.0655 ,1.52456 ,-0.27619 ,-2.71000 
375 ,68.2573 ,1.52664 ,-0.28988 ,-2.84431 
376 ,68.4336 ,1.52838 ,-0.31726 ,-3.11294 
377 ,68.6257 ,1.53035 ,-0.30699 ,-3.01220 
378 ,68.8178 ,1.53223 ,-0.32068 ,-3.14652 
379 ,69.0098 ,1.53414 ,-0.34121 ,-3.34799 
380 ,69.2019 ,1.53599 ,-0.33437 ,-3.28083 
381 ,69.3621 ,1.53777 ,-0.35490 ,-3.48230 
382 ,69.5382 ,1.53941 ,-0.37544 ,-3.68377 
383 ,69.6982 ,1.54113 ,-0.38912 ,-3.81808 
384 ,69.8744 ,1.54278 ,-0.39597 ,-3.88524 
385 ,70.0661 ,1.54473 ,-0.39255 ,-3.85166 
386 ,70.2424 ,1.54644 ,-0.39939 ,-3.91882 
387 ,70.4023 ,1.54817 ,-0.41308 ,-4.05313 
388 ,70.5783 ,1.54982 ,-0.43361 ,-4.25460 
389 ,70.7706 ,1.55173 ,-0.45072 ,-4.42249 
390 ,70.9466 ,1.55351 ,-0.45072 ,-4.42249 
391 ,71.1227 ,1.55527 ,-0.44388 ,-4.35534 
392 ,71.2988 ,1.55703 ,-0.47810 ,-4.69112 
393 ,71.4748 ,1.55894 ,-0.48837 ,-4.79185 
394 ,71.6666 ,1.56065 ,-0.48837 ,-4.79185 
395 ,71.8267 ,1.56240 ,-0.49521 ,-4.85901 
396 ,72.0028 ,1.56416 ,-0.52259 ,-5.12764 
397 ,72.1628 ,1.56578 ,-0.52943 ,-5.19479 
398 ,72.3230 ,1.56740 ,-0.53628 ,-5.26195 
399 ,72.4832 ,1.56897 ,-0.54997 ,-5.39626 
400 ,72.6594 ,1.57065 ,-0.56023 ,-5.49700 
401 ,72.8354 ,1.57247 ,-0.57734 ,-5.66489 
402 ,73.0116 ,1.57413 ,-0.58077 ,-5.69847 
403 ,73.1874 ,1.57603 ,-0.58419 ,-5.73205 
404 ,73.3795 ,1.57782 ,-0.59788 ,-5.86636 
405 ,73.5557 ,1.57957 ,-0.61499 ,-6.03425 
406 ,73.7317 ,1.58135 ,-0.63552 ,-6.23572 
407 ,73.9079 ,1.58312 ,-0.62525 ,-6.13499 
408 ,74.0840 ,1.58489 ,-0.62868 ,-6.16856 
409 ,74.2760 ,1.58678 ,-0.65947 ,-6.47077 
410 ,74.4680 ,1.58869 ,-0.64579 ,-6.33646 
411 ,74.6282 ,1.59041 ,-0.67316 ,-6.60508 
412 ,74.8040 ,1.59207 ,-0.66632 ,-6.53793 
413 ,74.9800 ,1.59392 ,-0.69712 ,-6.84013 
414 ,75.1562 ,1.59557 ,-0.69370 ,-6.80655 
415 ,75.3483 ,1.59748 ,-0.70739 ,-6.94086 
416 ,75.5408 ,1.59945 ,-0.72107 ,-7.07518 
417 ,75.7165 ,1.60115 ,-0.73818 ,-7.24307 
418 ,75.8928 ,1.60296 ,-0.75872 ,-7.44454 
419 ,76.0849 ,1.60487 ,-0.74503 ,-7.31023 
420 ,76.2768 ,1.60681 ,-0.76898 ,-7.54527 
421 ,76.4530 ,1.60853 ,-0.78267 ,-7.67959 
422 ,76.6446 ,1.61045 ,-0.76898 ,-7.54527 
423 ,76.8209 ,1.61222 ,-0.79978 ,-7.84748 
424 ,77.0132 ,1.61414 ,-0.81347 ,-7.98179 
425 ,77.1889 ,1.61599 ,-0.82032 ,-8.04895 
426 ,77.3652 ,1.61764 ,-0.81689 ,-8.01537 
427 ,77.5574 ,1.61952 ,-0.84085 ,-8.25042 
428 ,77.7334 ,1.62147 ,-0.84427 ,-8.28400 
429 ,77.9095 ,1.62309 ,-0.84769 ,-8.31758 
430 ,78.0854 ,1.62488 ,-0.86138 ,-8.45189 
431 ,78.2775 ,1.62679 ,-0.88534 ,-8.68694 
432 ,78.4537 ,1.62856 ,-0.89218 ,-8.75409 
433 ,78.6296 ,1.63035 ,-0.90245 ,-8.85483 
434 ,78.8058 ,1.63216 ,-0.92640 ,-9.08988 
435 ,78.9820 ,1.63380 ,-0.92640 ,-9.08988 
436 ,79.1579 ,1.63558 ,-0.92983 ,-9.12345 
437 ,79.3343 ,1.63736 ,-0.93667 ,-9.19061 
438 ,79.5099 ,1.63909 ,-0.94694 ,-9.29135 
439 ,79.6862 ,1.64086 ,-0.95378 ,-9.35850 
440 ,79.8621 ,1.64269 ,-0.97431 ,-9.55997 
441 ,80.0387 ,1.64440 ,-0.98458 ,-9.66071 
442 ,80.2143 ,1.64619 ,-0.98800 ,-9.69429 
443 ,80.3903 ,1.64796 ,-0.99827 ,-9.79502 
444 ,80.5825 ,1.64985 ,-1.00511 ,-9.86218 
445 ,80.7585 ,1.65159 ,-1.02222 ,-10.03007 
446 ,80.9186 ,1.65328 ,-1.01196 ,-9.92933 
447 ,81.0947 ,1.65500 ,-1.02907 ,-10.09723 
448 ,81.2868 ,1.65685 ,-1.02565 ,-10.06365 
449 ,81.4787 ,1.65877 ,-1.04960 ,-10.29869 
450 ,81.6550 ,1.66052 ,-1.06329 ,-10.43301 
451 ,81.8468 ,1.66246 ,-1.06671 ,-10.46659 
452 ,82.0231 ,1.66424 ,-1.06329 ,-10.43301 
453 ,82.2153 ,1.66615 ,-1.09751 ,-10.76879 
454 ,82.4073 ,1.66807 ,-1.08382 ,-10.63448 
455 ,82.5672 ,1.66979 ,-1.10093 ,-10.80237 
456 ,82.7433 ,1.67142 ,-1.11120 ,-10.90310 
457 ,82.9192 ,1.67323 ,-1.13173 ,-11.10457 
458 ,83.1113 ,1.67508 ,-1.13173 ,-11.10457 
459 ,83.3035 ,1.67702 ,-1.13516 ,-11.13815 
460 ,83.4956 ,1.67890 ,-1.16253 ,-11.40678 
461 ,83.6716 ,1.68072 ,-1.15911 ,-11.37320 
462 ,83.8476 ,1.68246 ,-1.16253 ,-11.40678 
