Point No.,Normal Force [N],Gap [mm],Time [s]
1,10.414814,10.8174,393.2540
2,10.400488,10.8174,393.2590
3,10.330190,10.8173,393.2640
4,10.200641,10.8173,393.2690
5,10.111783,10.8172,393.2740
6,9.981909,10.8171,393.2790
7,9.904766,10.8171,393.2840
8,9.745599,10.8170,393.2890
9,9.647792,10.8201,393.2930
10,9.572049,10.8200,393.2980
11,9.476653,10.8231,393.3030
12,9.372373,10.8230,393.3080
13,9.241927,10.8267,393.3130
14,9.159730,10.8267,393.3180
15,8.923232,10.8315,393.3230
16,8.634485,10.8313,393.3290
17,8.465285,10.8362,393.3340
18,8.280211,10.8361,393.3390
19,8.191136,10.8411,393.3440
20,8.097900,10.8410,393.3490
21,8.046117,10.8460,393.3540
22,7.980636,10.8460,393.3590
23,7.934609,10.8509,393.3640
24,7.876068,10.8509,393.3690
25,7.836587,10.8559,393.3740
26,7.783086,10.8558,393.3790
27,7.742586,10.8558,393.3840
28,7.687627,10.8608,393.3890
29,7.648745,10.8608,393.3940
30,7.611490,10.8657,393.3980
31,7.557577,10.8657,393.4030
32,7.523086,10.8707,393.4080
33,7.473267,10.8707,393.4130
34,7.438486,10.8756,393.4180
35,7.366982,10.8806,393.4260
36,7.336133,10.8806,393.4290
37,7.298994,10.8856,393.4330
38,7.263914,10.8855,393.4380
39,7.212492,10.8905,393.4430
40,7.177480,10.8905,393.4480
41,7.128211,10.8955,393.4530
42,7.093833,10.8954,393.4580
43,7.044620,10.9004,393.4630
44,7.010087,10.9004,393.4680
45,6.963554,10.9004,393.4730
46,6.930236,10.9053,393.4780
47,6.882782,10.9053,393.4830
48,6.849914,10.9103,393.4880
49,6.805462,10.9103,393.4930
50,6.773187,10.9152,393.4980
51,6.727394,10.9152,393.5030
52,6.693964,10.9202,393.5080
53,6.648909,10.9202,393.5130
54,6.617110,10.9252,393.5180
55,6.573548,10.9251,393.5230
56,6.542783,10.9301,393.5280
57,6.500968,10.9301,393.5330
58,6.470050,10.9351,393.5380
59,6.427649,10.9350,393.5430
60,6.395951,10.9400,393.5480
61,6.353538,10.9400,393.5530
62,6.322927,10.9444,393.5580
63,6.281731,10.9443,393.5630
64,6.251981,10.9499,393.5680
65,6.213379,10.9499,393.5730
66,6.183497,10.9549,393.5780
67,6.142282,10.9549,393.5830
68,6.111499,10.9599,393.5880
69,6.073043,10.9598,393.5930
70,6.044218,10.9648,393.5980
71,6.007435,10.9648,393.6030
72,5.979743,10.9698,393.6080
73,5.942938,10.9698,393.6130
74,5.913061,10.9741,393.6180
75,5.874885,10.9741,393.6230
76,5.846154,10.9797,393.6280
77,5.813057,10.9797,393.6330
78,5.788558,10.9840,393.6380
79,5.755750,10.9840,393.6430
80,5.729460,10.9896,393.6480
81,5.698134,10.9896,393.6530
82,5.673037,10.9940,393.6580
83,5.641398,10.9940,393.6630
84,5.614119,10.9996,393.6680
85,5.580142,10.9995,393.6730
86,5.554061,11.0045,393.6780
87,5.520936,11.0045,393.6830
88,5.494318,11.0095,393.6880
89,5.462843,11.0095,393.6930
90,5.436769,11.0138,393.6980
91,5.405060,11.0138,393.7030
92,5.379453,11.0194,393.7080
93,5.349605,11.0194,393.7130
94,5.323793,11.0238,393.7180
95,5.290998,11.0237,393.7230
96,5.265158,11.0287,393.7280
97,5.234679,11.0287,393.7330
98,5.209555,11.0337,393.7380
99,5.180169,11.0337,393.7430
100,5.154655,11.0393,393.7480
101,5.124906,11.0393,393.7530
102,5.099785,11.0436,393.7580
103,5.068970,11.0436,393.7630
104,5.043975,11.0492,393.7680
105,5.015717,11.0492,393.7730
106,4.991190,11.0536,393.7780
107,4.961819,11.0536,393.7830
108,4.936152,11.0592,393.7880
109,4.907571,11.0591,393.7930
110,4.883474,11.0635,393.7980
111,4.854357,11.0635,393.8030
112,4.830938,11.0685,393.8080
113,4.804990,11.0685,393.8130
114,4.781131,11.0734,393.8180
115,4.752878,11.0734,393.8230
116,4.728066,11.0790,393.8280
117,4.701576,11.0790,393.8330
118,4.678428,11.0834,393.8380
119,4.651521,11.0834,393.8430
120,4.628745,11.0884,393.8480
121,4.602792,11.0883,393.8530
122,4.578537,11.0933,393.8580
123,4.550988,11.0933,393.8630
124,4.526304,11.0989,393.8680
125,4.500501,11.0989,393.8730
126,4.477690,11.1033,393.8780
127,4.452589,11.1033,393.8830
128,4.430366,11.1082,393.8880
129,4.406248,11.1082,393.8930
130,4.383362,11.1132,393.8980
131,4.357321,11.1132,393.9030
132,4.333884,11.1188,393.9080
133,4.309184,11.1188,393.9130
134,4.286435,11.1232,393.9180
135,4.261534,11.1231,393.9230
136,4.239392,11.1281,393.9280
137,4.215838,11.1281,393.9330
138,4.193084,11.1331,393.9380
139,4.168787,11.1331,393.9430
140,4.146785,11.1387,393.9480
141,4.125415,11.1387,393.9530
142,4.105051,11.1430,393.9580
143,4.082296,11.1430,393.9630
144,4.061963,11.1480,393.9680
145,4.041001,11.1480,393.9730
146,4.021183,11.1530,393.9780
147,4.000398,11.1530,393.9830
148,3.981015,11.1586,393.9880
149,3.961310,11.1586,393.9930
150,3.941899,11.1630,393.9980
151,3.921614,11.1629,394.0030
152,3.901800,11.1679,394.0080
153,3.882880,11.1679,394.0130
154,3.862362,11.1729,394.0180
155,3.839897,11.1729,394.0230
156,3.817938,11.1785,394.0280
157,3.797176,11.1785,394.0330
158,3.776166,11.1829,394.0380
159,3.754127,11.1828,394.0430
160,3.733216,11.1878,394.0480
161,3.713290,11.1878,394.0530
162,3.693122,11.1928,394.0580
163,3.672407,11.1928,394.0630
164,3.650872,11.1984,394.0680
165,3.631284,11.1984,394.0730
166,3.610438,11.2028,394.0780
167,3.589638,11.2027,394.0830
168,3.569942,11.2077,394.0880
169,3.550900,11.2077,394.0930
170,3.529694,11.2127,394.0980
171,3.507421,11.2127,394.1030
172,3.485817,11.2183,394.1080
173,3.467145,11.2183,394.1130
174,3.447613,11.2227,394.1180
175,3.428516,11.2226,394.1230
176,3.408446,11.2276,394.1280
177,3.388978,11.2276,394.1330
178,3.367833,11.2326,394.1380
179,3.346668,11.2326,394.1430
180,3.325074,11.2382,394.1480
181,3.307029,11.2382,394.1530
182,3.287220,11.2426,394.1580
183,3.267066,11.2426,394.1630
184,3.246374,11.2475,394.1680
185,3.226930,11.2475,394.1730
186,3.205701,11.2525,394.1780
187,3.186121,11.2525,394.1830
188,3.165144,11.2581,394.1880
189,3.146902,11.2581,394.1930
190,3.127950,11.2625,394.1980
191,3.109180,11.2625,394.2030
192,3.089240,11.2674,394.2080
193,3.071424,11.2674,394.2130
194,3.050784,11.2724,394.2180
195,3.032379,11.2724,394.2230
196,3.013276,11.2780,394.2280
197,2.997087,11.2780,394.2330
198,2.976806,11.2824,394.2380
199,2.956919,11.2824,394.2430
200,2.936488,11.2874,394.2480
201,2.918569,11.2873,394.2530
202,2.898265,11.2923,394.2580
203,2.878616,11.2923,394.2630
204,2.857859,11.2979,394.2680
205,2.840556,11.2979,394.2730
206,2.819682,11.3023,394.2780
207,2.800557,11.3023,394.2830
208,2.780323,11.3073,394.2880
209,2.764050,11.3073,394.2930
210,2.744859,11.3122,394.2980
211,2.726065,11.3122,394.3030
212,2.704938,11.3178,394.3080
213,2.687160,11.3178,394.3130
214,2.666622,11.3222,394.3180
215,2.647739,11.3222,394.3230
216,2.627650,11.3278,394.3280
217,2.611368,11.3278,394.3330
218,2.592813,11.3322,394.3380
219,2.575745,11.3321,394.3430
220,2.554557,11.3378,394.3480
221,2.536718,11.3377,394.3530
222,2.516217,11.3421,394.3580
223,2.496984,11.3421,394.3630
224,2.476012,11.3477,394.3680
225,2.459687,11.3477,394.3730
226,2.439986,11.3521,394.3780
227,2.422193,11.3521,394.3830
228,2.401557,11.3577,394.3880
229,2.385280,11.3577,394.3930
230,2.366205,11.3620,394.3980
231,2.349105,11.3620,394.4030
232,2.331284,11.3676,394.4080
233,2.316694,11.3676,394.4130
234,2.298009,11.3726,394.4180
235,2.280183,11.3726,394.4230
236,2.261015,11.3776,394.4280
237,2.245588,11.3776,394.4330
238,2.227753,11.3819,394.4380
239,2.210966,11.3819,394.4430
240,2.192794,11.3875,394.4480
241,2.178514,11.3875,394.4530
242,2.159388,11.3919,394.4580
243,2.142394,11.3919,394.4630
244,2.121674,11.3975,394.4680
245,2.106851,11.3975,394.4730
246,2.087533,11.4019,394.4780
247,2.070914,11.4018,394.4830
248,2.050657,11.4075,394.4880
249,2.034253,11.4075,394.4930
250,2.013458,11.4118,394.4980
251,1.995605,11.4118,394.5030
252,1.974113,11.4174,394.5080
253,1.957592,11.4174,394.5130
254,1.936975,11.4224,394.5180
255,1.918737,11.4224,394.5230
256,1.897578,11.4274,394.5280
257,1.880907,11.4274,394.5330
258,1.860421,11.4323,394.5380
259,1.842277,11.4323,394.5430
260,1.820954,11.4373,394.5480
261,1.805298,11.4373,394.5530
262,1.785046,11.4417,394.5580
263,1.766612,11.4417,394.5630
264,1.745733,11.4473,394.5680
265,1.729347,11.4473,394.5730
266,1.708861,11.4516,394.5780
267,1.691527,11.4516,394.5830
268,1.670002,11.4572,394.5880
269,1.655067,11.4572,394.5930
270,1.635146,11.4616,394.5980
271,1.616446,11.4616,394.6030
272,1.594688,11.4672,394.6080
273,1.576568,11.4672,394.6130
274,1.555277,11.4722,394.6180
275,1.538087,11.4722,394.6230
276,1.517050,11.4771,394.6280
277,1.502736,11.4771,394.6330
278,1.481880,11.4815,394.6380
279,1.462717,11.4815,394.6430
280,1.440912,11.4871,394.6480
281,1.424335,11.4871,394.6530
282,1.404251,11.4915,394.6580
283,1.388614,11.4914,394.6630
284,1.368333,11.4971,394.6680
285,1.353757,11.4970,394.6730
286,1.333748,11.5014,394.6780
287,1.316315,11.5014,394.6830
288,1.296189,11.5070,394.6880
289,1.280444,11.5070,394.6930
290,1.260809,11.5114,394.6980
291,1.243839,11.5114,394.7030
292,1.222909,11.5170,394.7080
293,1.209123,11.5170,394.7130
294,1.189666,11.5220,394.7180
295,1.173589,11.5219,394.7230
296,1.153982,11.5269,394.7280
297,1.139256,11.5269,394.7330
298,1.119023,11.5319,394.7380
299,1.101384,11.5319,394.7430
300,1.080440,11.5369,394.7480
301,1.066266,11.5369,394.7530
302,1.047122,11.5412,394.7580
303,1.030250,11.5412,394.7630
304,1.009956,11.5468,394.7680
305,0.994459,11.5468,394.7730
306,0.975020,11.5518,394.7780
307,0.959317,11.5518,394.7830
308,0.939191,11.5568,394.7880
309,0.925546,11.5568,394.7930
310,0.905827,11.5618,394.7980
311,0.890348,11.5618,394.8030
312,0.871171,11.5668,394.8080
313,0.856451,11.5668,394.8130
314,0.836862,11.5717,394.8180
315,0.820397,11.5717,394.8230
316,0.799729,11.5767,394.8280
317,0.786018,11.5767,394.8330
318,0.767454,11.5817,394.8380
319,0.751971,11.5817,394.8430
320,0.732546,11.5867,394.8480
321,0.718055,11.5867,394.8530
322,0.699079,11.5917,394.8580
323,0.683302,11.5917,394.8630
324,0.662988,11.5966,394.8680
325,0.649376,11.5966,394.8730
326,0.630662,11.6016,394.8780
327,0.615459,11.6016,394.8830
328,0.596189,11.6066,394.8880
329,0.580108,11.6066,394.8930
330,0.559032,11.6116,394.8980
331,0.542011,11.6116,394.9030
332,0.521674,11.6166,394.9080
333,0.507959,11.6165,394.9130
334,0.489324,11.6215,394.9180
335,0.473963,11.6215,394.9230
336,0.455997,11.6265,394.9280
337,0.441777,11.6265,394.9330
338,0.423470,11.6315,394.9380
339,0.407192,11.6315,394.9430
340,0.386635,11.6365,394.9480
341,0.373556,11.6365,394.9530
342,0.358761,11.6415,394.9580
343,0.348001,11.6415,394.9630
344,0.333304,11.6464,394.9680
345,0.323839,11.6464,394.9730
346,0.308955,11.6514,394.9780
347,0.297180,11.6514,394.9830
348,0.280935,11.6564,394.9880
349,0.271073,11.6564,394.9930
350,0.254912,11.6614,394.9980
351,0.241005,11.6614,395.0030
352,0.223545,11.6664,395.0080
353,0.210755,11.6664,395.0130
354,0.194861,11.6714,395.0180
355,0.182259,11.6714,395.0230
356,0.164241,11.6763,395.0280
357,0.152308,11.6763,395.0330
358,0.137250,11.6813,395.0380
359,0.125523,11.6813,395.0430
360,0.109264,11.6863,395.0480
361,0.098331,11.6863,395.0530
362,0.085116,11.6907,395.0580
363,0.074510,11.6907,395.0630
364,0.059949,11.6963,395.0680
365,0.051228,11.6963,395.0730
366,0.038242,11.7013,395.0780
367,0.025953,11.7013,395.0830
368,0.010381,11.7063,395.0880
369,-0.000715,11.7063,395.0930
370,-0.014655,11.7112,395.0980
371,-0.024026,11.7112,395.1030
372,-0.040369,11.7162,395.1080
373,-0.050704,11.7162,395.1130
374,-0.065742,11.7212,395.1180
375,-0.074571,11.7212,395.1230
376,-0.090835,11.7262,395.1280
377,-0.104592,11.7262,395.1330
378,-0.121033,11.7306,395.1380
379,-0.131092,11.7305,395.1430
380,-0.148188,11.7362,395.1480
381,-0.160556,11.7362,395.1530
382,-0.177297,11.7405,395.1580
383,-0.189404,11.7405,395.1630
384,-0.205649,11.7461,395.1680
385,-0.216535,11.7461,395.1730
386,-0.232729,11.7511,395.1780
387,-0.246420,11.7511,395.1830
388,-0.264064,11.7561,395.1880
389,-0.275820,11.7561,395.1930
390,-0.291616,11.7605,395.1980
391,-0.304989,11.7604,395.2030
392,-0.320968,11.7661,395.2080
393,-0.330503,11.7661,395.2130
394,-0.344658,11.7704,395.2180
395,-0.357171,11.7704,395.2230
396,-0.373365,11.7760,395.2280
397,-0.382946,11.7760,395.2330
398,-0.396633,11.7804,395.2380
399,-0.407805,11.7804,395.2430
400,-0.422801,11.7860,395.2480
401,-0.434005,11.7860,395.2530
402,-0.449455,11.7904,395.2580
403,-0.461655,11.7904,395.2630
404,-0.477218,11.7960,395.2680
405,-0.486084,11.7960,395.2730
406,-0.499752,11.8003,395.2780
407,-0.510694,11.8003,395.2830
408,-0.524905,11.8059,395.2880
409,-0.533996,11.8059,395.2930
410,-0.547440,11.8103,395.2980
411,-0.557541,11.8103,395.3030
412,-0.572298,11.8159,395.3080
413,-0.581978,11.8159,395.3130
414,-0.596114,11.8203,395.3180
415,-0.607094,11.8203,395.3230
416,-0.626608,11.8259,395.3290
417,-0.630708,11.8259,395.3340
418,-0.650652,11.8302,395.3390
419,-0.656226,11.8302,395.3440
420,-0.676395,11.8358,395.3490
421,-0.679163,11.8358,395.3540
422,-0.696563,11.8402,395.3590
423,-0.701113,11.8402,395.3640
424,-0.720393,11.8458,395.3690
425,-0.723769,11.8458,395.3740
426,-0.742918,11.8502,395.3790
427,-0.747763,11.8502,395.3840
428,-0.767328,11.8558,395.3890
429,-0.770526,11.8558,395.3940
430,-0.789413,11.8602,395.3990
431,-0.794445,11.8602,395.4040
432,-0.813692,11.8658,395.4090
433,-0.817059,11.8658,395.4140
434,-0.835548,11.8701,395.4190
435,-0.839846,11.8701,395.4240
436,-0.859009,11.8757,395.4290
437,-0.861651,11.8757,395.4340
438,-0.879392,11.8801,395.4390
439,-0.883573,11.8801,395.4440
440,-0.902348,11.8857,395.4490
441,-0.905317,11.8857,395.4540
442,-0.922923,11.8901,395.4590
443,-0.926397,11.8901,395.4640
444,-0.945392,11.8957,395.4690
445,-0.948141,11.8957,395.4740
446,-0.965780,11.9001,395.4790
447,-0.970096,11.9001,395.4840
448,-0.988099,11.9050,395.4890
449,-0.991111,11.9050,395.4940
450,-1.008969,11.9100,395.4990
451,-1.012939,11.9100,395.5040
452,-1.030732,11.9156,395.5090
453,-1.032518,11.9156,395.5140
454,-1.048296,11.9200,395.5190
455,-1.051967,11.9200,395.5240
456,-1.069016,11.9250,395.5290
457,-1.071611,11.9250,395.5340
458,-1.087590,11.9300,395.5390
459,-1.091419,11.9300,395.5440
460,-1.107753,11.9356,395.5490
461,-1.109643,11.9356,395.5540
462,-1.123900,11.9400,395.5590
463,-1.128118,11.9400,395.5640
464,-1.143049,11.9450,395.5690
465,-1.145392,11.9449,395.5740
466,-1.159925,11.9499,395.5790
467,-1.164096,11.9499,395.5840
468,-1.180711,11.9556,395.5890
469,-1.182853,11.9556,395.5940
470,-1.196601,11.9599,395.5990
471,-1.199401,11.9599,395.6040
472,-1.213617,11.9649,395.6090
473,-1.215329,11.9649,395.6140
474,-1.230764,11.9699,395.6190
475,-1.233982,11.9699,395.6240
476,-1.250073,11.9755,395.6290
477,-1.250517,11.9755,395.6340
478,-1.262497,11.9799,395.6390
479,-1.263199,11.9799,395.6440
480,-1.276689,11.9849,395.6490
481,-1.276993,11.9849,395.6540
482,-1.290821,11.9899,395.6590
483,-1.292766,11.9899,395.6640
484,-1.307711,11.9955,395.6690
485,-1.307959,11.9955,395.6740
486,-1.322301,11.9998,395.6790
487,-1.325158,11.9998,395.6840
488,-1.341291,12.0048,395.6890
489,-1.343736,12.0048,395.6940
490,-1.359575,12.0098,395.6990
491,-1.362437,12.0098,395.7040
492,-1.379757,12.0154,395.7090
493,-1.381674,12.0154,395.7140
494,-1.398443,12.0198,395.7190
495,-1.402324,12.0198,395.7240
496,-1.418639,12.0248,395.7290
497,-1.420655,12.0248,395.7340
498,-1.436414,12.0298,395.7390
499,-1.439837,12.0298,395.7440
500,-1.457695,12.0354,395.7490
501,-1.459766,12.0354,395.7540
502,-1.476189,12.0398,395.7590
503,-1.479331,12.0398,395.7640
504,-1.494464,12.0447,395.7690
505,-1.495890,12.0447,395.7740
506,-1.511349,12.0497,395.7790
507,-1.514468,12.0497,395.7840
508,-1.530844,12.0553,395.7890
509,-1.532060,12.0553,395.7940
510,-1.546523,12.0597,395.7990
511,-1.549540,12.0597,395.8040
512,-1.566037,12.0647,395.8090
513,-1.567992,12.0647,395.8140
514,-1.583535,12.0697,395.8190
515,-1.586654,12.0697,395.8240
516,-1.603133,12.0753,395.8290
517,-1.604620,12.0753,395.8340
518,-1.619210,12.0797,395.8390
519,-1.622020,12.0797,395.8440
520,-1.637854,12.0847,395.8490
521,-1.639953,12.0847,395.8540
522,-1.655338,12.0896,395.8590
523,-1.658036,12.0896,395.8640
524,-1.674001,12.0953,395.8690
525,-1.674838,12.0953,395.8740
526,-1.689315,12.0996,395.8790
527,-1.692111,12.0996,395.8840
528,-1.707936,12.1046,395.8890
529,-1.709156,12.1046,395.8940
530,-1.722997,12.1096,395.8990
531,-1.724934,12.1096,395.9040
532,-1.740080,12.1152,395.9090
533,-1.740650,12.1152,395.9140
534,-1.754880,12.1196,395.9190
535,-1.757686,12.1196,395.9240
536,-1.772205,12.1246,395.9290
537,-1.772761,12.1246,395.9340
538,-1.786046,12.1296,395.9390
539,-1.788174,12.1296,395.9440
540,-1.803769,12.1352,395.9490
541,-1.805177,12.1352,395.9540
542,-1.819388,12.1396,395.9590
543,-1.821688,12.1396,395.9640
544,-1.836858,12.1445,395.9690
545,-1.838265,12.1445,395.9740
546,-1.852411,12.1495,395.9790
547,-1.854402,12.1495,395.9840
548,-1.868721,12.1551,395.9890
549,-1.868941,12.1551,395.9940
550,-1.880730,12.1595,395.9990
551,-1.881515,12.1595,396.0040
552,-1.893280,12.1645,396.0090
553,-1.891368,12.1645,396.0140
554,-1.897031,12.1695,396.0190
555,-1.892378,12.1695,396.0240
556,-1.893879,12.1751,396.0290
557,-1.886014,12.1751,396.0340
558,-1.889193,12.1795,396.0390
559,-1.887660,12.1795,396.0440
560,-1.898382,12.1845,396.0490
561,-1.898219,12.1845,396.0540
562,-1.910077,12.1895,396.0590
563,-1.912864,12.1895,396.0640
564,-1.928880,12.1951,396.0690
565,-1.930021,12.1951,396.0740
566,-1.942282,12.1995,396.0790
567,-1.944176,12.1995,396.0840
568,-1.957550,12.2045,396.0890
569,-1.959079,12.2045,396.0940
570,-1.972313,12.2095,396.0990
571,-1.975343,12.2095,396.1040
572,-1.990134,12.2145,396.1090
573,-1.990479,12.2145,396.1140
574,-2.002656,12.2194,396.1190
575,-2.004854,12.2194,396.1240
576,-2.018363,12.2244,396.1290
577,-2.019350,12.2244,396.1340
578,-2.032055,12.2294,396.1390
579,-2.034529,12.2294,396.1440
580,-2.049086,12.2350,396.1490
581,-2.049404,12.2350,396.1540
582,-2.056563,12.2394,396.1590
583,-2.053893,12.2394,396.1640
584,-2.060762,12.2444,396.1690
585,-2.059023,12.2444,396.1740
586,-2.068282,12.2494,396.1790
587,-2.069797,12.2494,396.1840
588,-2.082890,12.2550,396.1890
589,-2.083250,12.2550,396.1940
590,-2.091377,12.2594,396.1990
591,-2.088165,12.2594,396.2040
592,-2.092546,12.2644,396.2090
593,-2.089927,12.2644,396.2140
594,-2.098359,12.2694,396.2190
595,-2.100065,12.2694,396.2240
596,-2.112630,12.2750,396.2290
597,-2.112986,12.2750,396.2340
598,-2.123559,12.2794,396.2390
599,-2.124980,12.2794,396.2440
600,-2.135857,12.2844,396.2490
601,-2.135067,12.2844,396.2540
602,-2.143909,12.2894,396.2590
603,-2.145583,12.2894,396.2640
604,-2.157452,12.2950,396.2690
605,-2.156946,12.2950,396.2740
606,-2.165134,12.2993,396.2790
607,-2.165070,12.2993,396.2840
608,-2.171485,12.3043,396.2890
609,-2.168759,12.3043,396.2940
610,-2.175460,12.3093,396.2990
611,-2.176488,12.3093,396.3040
612,-2.187075,12.3150,396.3090
613,-2.185962,12.3150,396.3140
614,-2.193594,12.3193,396.3190
615,-2.194594,12.3193,396.3240
616,-2.206023,12.3243,396.3290
617,-2.207061,12.3243,396.3340
618,-2.213888,12.3293,396.3390
619,-2.212556,12.3293,396.3440
620,-2.219214,12.3349,396.3490
621,-2.217119,12.3349,396.3540
622,-2.223750,12.3393,396.3590
623,-2.224789,12.3393,396.3640
624,-2.235301,12.3443,396.3690
625,-2.234062,12.3443,396.3740
626,-2.233005,12.3493,396.3790
627,-2.227154,12.3493,396.3840
628,-2.228978,12.3549,396.3890
629,-2.225135,12.3549,396.3940
630,-2.231195,12.3593,396.3990
631,-2.232084,12.3593,396.4040
632,-2.242773,12.3643,396.4090
633,-2.244484,12.3643,396.4140
634,-2.254188,12.3693,396.4190
635,-2.256385,12.3693,396.4240
636,-2.266832,12.3749,396.4290
637,-2.267047,12.3749,396.4340
638,-2.275548,12.3793,396.4390
