Point No.,Normal Force [N],Gap [mm],Time [s]
1.0,2.580217,11.2453,4629
2.0,2.560457,11.2453,4629
3.0,2.551347,11.2453,4630
4.0,2.544999,11.2453,4630
5.0,2.540558,11.2453,4631
6.0,2.536454,11.2452,4631
7.0,2.533351,11.2452,4632
8.0,2.530369,11.2452,4632
9.0,2.528520,11.2452,4633
10.0,2.526598,11.2452,4633
11.0,2.524116,11.2452,4634
12.0,2.522446,11.2452,4634
13.0,2.520152,11.2452,4635
14.0,2.518418,11.2452,4635
15.0,2.517124,11.2452,4636
16.0,2.515948,11.2452,4636
17.0,2.513993,11.2452,4637
18.0,2.512892,11.2452,4637
19.0,2.512303,11.2452,4638
20.0,2.511206,11.2452,4638
21.0,2.511113,11.2452,4639
22.0,2.509396,11.2452,4639
23.0,2.508109,11.2452,4640
24.0,2.506648,11.2452,4640
25.0,2.506052,11.2452,4641
26.0,2.505396,11.2452,4641
27.0,2.504302,11.2452,4642
28.0,2.503760,11.2452,4642
29.0,2.503668,11.2452,4643
30.0,2.502826,11.2452,4643
31.0,2.502159,11.2452,4644
32.0,2.501241,11.2452,4644
33.0,2.501421,11.2452,4645
34.0,2.501132,11.2452,4645
35.0,2.500119,11.2452,4646
36.0,2.500004,11.2452,4646
37.0,2.499832,11.2452,4647
38.0,2.499401,11.2452,4647
39.0,2.497898,11.2452,4648
40.0,2.498261,11.2452,4648
