Point No.,Normal Force [N],Gap [mm],Time [s]
1.0,2.143823,11.3156,556.6
2.0,2.128800,11.3156,557.1
3.0,2.118173,11.3156,557.6
4.0,2.111429,11.3156,558.1
5.0,2.107591,11.3156,558.6
6.0,2.104518,11.3156,559.1
7.0,2.102117,11.3156,559.6
8.0,2.101116,11.3156,560.1
9.0,2.099660,11.3156,560.6
10.0,2.097420,11.3156,561.1
11.0,2.096767,11.3156,561.6
12.0,2.095216,11.3156,562.1
13.0,2.093711,11.3156,562.6
14.0,2.094007,11.3156,563.1
15.0,2.092745,11.3156,563.6
16.0,2.091819,11.3156,564.1
17.0,2.090745,11.3156,564.6
18.0,2.089772,11.3156,565.1
19.0,2.089057,11.3156,565.6
20.0,2.087874,11.3156,566.1
21.0,2.087348,11.3156,566.6
22.0,2.086940,11.3156,567.1
23.0,2.085525,11.3156,567.6
24.0,2.084790,11.3156,568.1
25.0,2.084705,11.3156,568.6
26.0,2.083159,11.3156,569.1
27.0,2.083319,11.3156,569.6
28.0,2.083104,11.3156,570.1
29.0,2.082606,11.3156,570.6
30.0,2.081775,11.3156,571.1
31.0,2.081705,11.3156,571.6
32.0,2.080501,11.3156,572.1
33.0,2.080436,11.3156,572.6
34.0,2.078761,11.3156,573.1
35.0,2.078541,11.3156,573.6
36.0,2.078088,11.3156,574.1
37.0,2.076755,11.3156,574.6
38.0,2.076895,11.3156,575.1
39.0,2.076403,11.3156,575.6
40.0,2.076106,11.3156,576.1
