Point No.,Normal Force [N],Gap [mm],Time [s]
1.0,2.158694,11.3157,3853
2.0,2.145793,11.3156,3854
3.0,2.137336,11.3156,3854
4.0,2.130523,11.3156,3855
5.0,2.125572,11.3156,3855
6.0,2.122217,11.3156,3856
7.0,2.119029,11.3156,3856
8.0,2.116543,11.3156,3857
9.0,2.113885,11.3156,3857
10.0,2.111745,11.3156,3858
11.0,2.109890,11.3156,3858
12.0,2.108671,11.3156,3859
13.0,2.107533,11.3156,3859
14.0,2.106797,11.3156,3860
15.0,2.106094,11.3156,3860
16.0,2.104642,11.3156,3861
17.0,2.103856,11.3156,3861
18.0,2.102752,11.3156,3862
19.0,2.102228,11.3156,3862
20.0,2.101592,11.3156,3863
21.0,2.101102,11.3156,3863
22.0,2.100342,11.3156,3864
23.0,2.099059,11.3156,3864
24.0,2.099184,11.3156,3865
25.0,2.099056,11.3156,3865
26.0,2.098767,11.3156,3866
27.0,2.098450,11.3156,3866
28.0,2.097697,11.3156,3867
29.0,2.097549,11.3156,3867
30.0,2.096524,11.3156,3868
31.0,2.096483,11.3156,3868
32.0,2.095878,11.3156,3869
33.0,2.095170,11.3156,3869
34.0,2.094516,11.3156,3870
35.0,2.094528,11.3156,3870
36.0,2.092907,11.3156,3871
37.0,2.093426,11.3156,3871
38.0,2.092937,11.3156,3872
39.0,2.093143,11.3156,3872
40.0,2.092993,11.3156,3873
