Point No.,Normal Force [N],Gap [mm],Time [s]
1.0,2.151075,11.3150,492.2
2.0,2.134263,11.3150,492.7
3.0,2.125829,11.3150,493.2
4.0,2.117262,11.3150,493.7
5.0,2.113295,11.3150,494.2
6.0,2.109360,11.3150,494.7
7.0,2.106487,11.3150,495.2
8.0,2.105046,11.3150,495.7
9.0,2.102580,11.3150,496.2
10.0,2.101001,11.3150,496.7
11.0,2.100406,11.3150,497.2
12.0,2.099062,11.3150,497.7
13.0,2.098931,11.3150,498.2
14.0,2.097432,11.3150,498.7
15.0,2.096596,11.3150,499.2
16.0,2.095499,11.3150,499.7
17.0,2.095767,11.3150,500.2
18.0,2.094603,11.3150,500.7
19.0,2.093754,11.3150,501.2
20.0,2.093385,11.3150,501.7
21.0,2.092721,11.3150,502.2
22.0,2.092248,11.3150,502.7
23.0,2.091874,11.3150,503.2
24.0,2.091241,11.3150,503.7
25.0,2.090956,11.3150,504.2
26.0,2.090747,11.3150,504.7
27.0,2.089477,11.3150,505.2
28.0,2.088758,11.3150,505.7
29.0,2.088563,11.3150,506.2
30.0,2.087725,11.3150,506.7
31.0,2.087152,11.3150,507.2
32.0,2.086064,11.3150,507.7
33.0,2.086335,11.3150,508.2
34.0,2.085125,11.3150,508.7
35.0,2.085275,11.3150,509.2
36.0,2.084885,11.3150,509.7
37.0,2.084447,11.3150,510.2
38.0,2.083645,11.3150,510.7
39.0,2.084397,11.3150,511.2
40.0,2.083655,11.3150,511.7
