Point No.,Normal Force [N],Gap [mm],Time [s]
1.0,2.704878,11.2228,3660
2.0,2.682678,11.2228,3660
3.0,2.669826,11.2228,3661
4.0,2.663828,11.2228,3661
5.0,2.659408,11.2228,3662
6.0,2.655779,11.2228,3662
7.0,2.653190,11.2228,3663
8.0,2.650498,11.2228,3663
9.0,2.647529,11.2228,3664
10.0,2.645921,11.2228,3664
11.0,2.644481,11.2228,3665
12.0,2.642527,11.2228,3665
13.0,2.640032,11.2228,3666
14.0,2.639133,11.2228,3666
15.0,2.637326,11.2228,3667
16.0,2.636564,11.2228,3667
17.0,2.634644,11.2228,3668
18.0,2.633405,11.2228,3668
19.0,2.632612,11.2228,3669
20.0,2.632070,11.2228,3669
21.0,2.630631,11.2228,3670
22.0,2.628253,11.2228,3670
23.0,2.627453,11.2228,3671
24.0,2.627149,11.2228,3671
25.0,2.626739,11.2228,3672
26.0,2.625452,11.2228,3672
27.0,2.625435,11.2228,3673
28.0,2.624426,11.2228,3673
29.0,2.623200,11.2228,3674
30.0,2.622981,11.2228,3674
31.0,2.621995,11.2228,3675
32.0,2.620486,11.2228,3675
33.0,2.620464,11.2228,3676
34.0,2.618977,11.2228,3676
35.0,2.618965,11.2228,3677
36.0,2.618519,11.2228,3677
37.0,2.617988,11.2228,3678
38.0,2.618389,11.2228,3678
39.0,2.617095,11.2228,3679
40.0,2.616319,11.2228,3679
