Point No.,Normal Force [N],Gap [mm],Time [s]
1.0,2.154689,11.3156,1980
2.0,2.139401,11.3156,1981
3.0,2.127769,11.3156,1981
4.0,2.120245,11.3156,1982
5.0,2.115210,11.3156,1982
6.0,2.111635,11.3156,1983
7.0,2.108904,11.3156,1983
8.0,2.107281,11.3156,1984
9.0,2.105210,11.3156,1984
10.0,2.103372,11.3156,1985
11.0,2.102734,11.3156,1985
12.0,2.101564,11.3156,1986
13.0,2.100202,11.3156,1986
14.0,2.099486,11.3156,1987
15.0,2.098846,11.3156,1987
16.0,2.098212,11.3156,1988
17.0,2.096909,11.3156,1988
18.0,2.095986,11.3156,1989
19.0,2.095236,11.3156,1989
20.0,2.094514,11.3156,1990
21.0,2.094667,11.3156,1990
22.0,2.093317,11.3156,1991
23.0,2.093054,11.3156,1991
24.0,2.091893,11.3156,1992
25.0,2.091668,11.3156,1992
26.0,2.091539,11.3156,1993
27.0,2.090970,11.3156,1993
28.0,2.090443,11.3156,1994
29.0,2.089835,11.3156,1994
30.0,2.089521,11.3156,1995
31.0,2.088298,11.3156,1995
32.0,2.088546,11.3156,1996
33.0,2.087674,11.3156,1996
34.0,2.087843,11.3156,1997
35.0,2.087511,11.3156,1997
36.0,2.086380,11.3156,1998
37.0,2.086166,11.3156,1998
38.0,2.085552,11.3156,1999
39.0,2.085521,11.3156,1999
40.0,2.085099,11.3156,2000
