Point No.,Normal Force [N],Gap [mm],Time [s]
1.0,2.685204,11.2197,363.1
2.0,2.664252,11.2197,363.6
3.0,2.656556,11.2197,364.1
4.0,2.650472,11.2197,364.6
5.0,2.645613,11.2197,365.1
6.0,2.641470,11.2197,365.6
7.0,2.638906,11.2197,366.1
8.0,2.635468,11.2197,366.6
9.0,2.631482,11.2197,367.1
10.0,2.629137,11.2197,367.6
11.0,2.627476,11.2197,368.1
12.0,2.625006,11.2197,368.6
13.0,2.623558,11.2197,369.1
14.0,2.622043,11.2197,369.6
15.0,2.620058,11.2197,370.1
16.0,2.618640,11.2197,370.6
17.0,2.617139,11.2197,371.1
18.0,2.614951,11.2197,371.6
19.0,2.614918,11.2197,372.1
20.0,2.613961,11.2197,372.6
21.0,2.612683,11.2197,373.1
22.0,2.612222,11.2197,373.6
23.0,2.612267,11.2197,374.1
24.0,2.611842,11.2197,374.6
25.0,2.610504,11.2197,375.1
26.0,2.610169,11.2197,375.6
27.0,2.609387,11.2197,376.1
28.0,2.608179,11.2197,376.6
29.0,2.608396,11.2197,377.1
30.0,2.608216,11.2197,377.6
31.0,2.606986,11.2197,378.1
32.0,2.606348,11.2197,378.6
33.0,2.606406,11.2197,379.1
34.0,2.605355,11.2197,379.6
35.0,2.604805,11.2197,380.1
36.0,2.604350,11.2197,380.6
37.0,2.603705,11.2197,381.1
38.0,2.604433,11.2197,381.6
39.0,2.602829,11.2197,382.1
40.0,2.603103,11.2197,382.6
