Point No.,Normal Force [N],Gap [mm],Time [s]
1.0,2.155387,11.3163,3270
2.0,2.140480,11.3163,3270
3.0,2.130908,11.3163,3271
4.0,2.124945,11.3163,3271
5.0,2.120209,11.3163,3272
6.0,2.117020,11.3163,3272
7.0,2.113450,11.3163,3273
8.0,2.111040,11.3162,3273
9.0,2.109188,11.3162,3274
10.0,2.107718,11.3162,3274
11.0,2.106298,11.3162,3275
12.0,2.105067,11.3162,3275
13.0,2.103377,11.3162,3276
14.0,2.103004,11.3162,3276
15.0,2.102173,11.3162,3277
16.0,2.100930,11.3162,3277
17.0,2.100422,11.3162,3278
18.0,2.099252,11.3162,3278
19.0,2.099150,11.3162,3279
20.0,2.097704,11.3162,3279
21.0,2.097258,11.3162,3280
22.0,2.096681,11.3162,3280
23.0,2.096356,11.3162,3281
24.0,2.095309,11.3162,3281
25.0,2.094399,11.3162,3282
26.0,2.093845,11.3162,3282
27.0,2.093992,11.3162,3283
28.0,2.093984,11.3162,3283
29.0,2.093203,11.3162,3284
30.0,2.092959,11.3162,3284
31.0,2.092112,11.3162,3285
32.0,2.091591,11.3162,3285
33.0,2.090895,11.3162,3286
34.0,2.090717,11.3162,3286
35.0,2.089894,11.3162,3287
36.0,2.089936,11.3162,3287
37.0,2.088951,11.3162,3288
38.0,2.089320,11.3162,3288
39.0,2.088427,11.3162,3289
40.0,2.088469,11.3162,3289
