Point No.,Normal Force [N],Gap [mm],Time [s]
1,4.150157,11.4156,498.0980
2,4.150199,11.4156,498.1030
3,4.150877,11.4156,498.1080
4,4.152227,11.4156,498.1130
5,4.152780,11.4156,498.1180
6,4.152480,11.4156,498.1230
7,4.151910,11.4156,498.1280
8,4.150058,11.4162,498.1330
9,4.148071,11.4162,498.1370
10,4.145648,11.4162,498.1420
11,4.140220,11.4174,498.1470
12,4.134735,11.4174,498.1520
13,4.118658,11.4218,498.1570
14,4.110634,11.4218,498.1620
15,4.090292,11.4255,498.1670
16,4.069970,11.4305,498.1730
17,4.054024,11.4305,498.1780
18,4.030246,11.4355,498.1830
19,4.014389,11.4355,498.1880
20,3.989212,11.4405,498.1930
21,3.972697,11.4405,498.1980
22,3.948735,11.4455,498.2030
23,3.934291,11.4454,498.2080
24,3.909979,11.4504,498.2130
25,3.895390,11.4504,498.2180
26,3.868712,11.4560,498.2230
27,3.853908,11.4560,498.2280
28,3.826972,11.4604,498.2330
29,3.811354,11.4604,498.2380
30,3.791826,11.4604,498.2420
31,3.772167,11.4654,498.2470
32,3.752285,11.4653,498.2520
33,3.731204,11.4703,498.2570
34,3.709858,11.4703,498.2620
35,3.691227,11.4753,498.2670
36,3.671102,11.4753,498.2720
37,3.651587,11.4803,498.2770
38,3.632121,11.4803,498.2820
39,3.614524,11.4853,498.2870
40,3.594328,11.4852,498.2920
41,3.573916,11.4902,498.2970
42,3.552013,11.4902,498.3020
43,3.535633,11.4952,498.3070
44,3.516315,11.4952,498.3120
45,3.499411,11.5008,498.3170
46,3.479453,11.5008,498.3220
47,3.462983,11.5052,498.3270
48,3.443404,11.5052,498.3320
49,3.426299,11.5101,498.3370
50,3.406065,11.5101,498.3420
51,3.391822,11.5151,498.3470
52,3.372617,11.5151,498.3520
53,3.355852,11.5201,498.3570
54,3.335951,11.5201,498.3620
55,3.320164,11.5251,498.3670
56,3.299996,11.5251,498.3720
57,3.282586,11.5301,498.3770
58,3.262212,11.5301,498.3820
59,3.248343,11.5350,498.3870
60,3.228735,11.5350,498.3920
61,3.211812,11.5400,498.3970
62,3.192107,11.5400,498.4020
63,3.177396,11.5450,498.4070
64,3.158144,11.5450,498.4120
65,3.142731,11.5500,498.4170
66,3.123292,11.5500,498.4220
67,3.110662,11.5550,498.4270
68,3.091176,11.5549,498.4320
69,3.074716,11.5599,498.4370
70,3.055675,11.5599,498.4420
71,3.041394,11.5649,498.4470
72,3.021983,11.5649,498.4520
73,3.007777,11.5699,498.4570
74,2.988553,11.5699,498.4620
75,2.976709,11.5749,498.4670
76,2.958163,11.5749,498.4720
77,2.943147,11.5799,498.4770
78,2.924153,11.5798,498.4820
79,2.911888,11.5848,498.4870
80,2.893229,11.5848,498.4920
81,2.879163,11.5898,498.4970
82,2.859070,11.5898,498.5020
83,2.847767,11.5954,498.5070
84,2.829670,11.5954,498.5120
85,2.815787,11.5998,498.5170
86,2.796502,11.5998,498.5220
87,2.783625,11.6048,498.5270
88,2.764583,11.6048,498.5320
89,2.750788,11.6098,498.5370
90,2.730372,11.6097,498.5420
91,2.718279,11.6147,498.5470
92,2.699822,11.6147,498.5520
93,2.687038,11.6197,498.5570
94,2.668908,11.6197,498.5620
95,2.657616,11.6247,498.5670
96,2.638906,11.6247,498.5720
97,2.624377,11.6297,498.5770
98,2.604401,11.6297,498.5820
99,2.592887,11.6347,498.5870
100,2.574730,11.6346,498.5920
101,2.561440,11.6396,498.5970
102,2.543933,11.6396,498.6020
103,2.534258,11.6446,498.6070
104,2.516591,11.6446,498.6120
105,2.503966,11.6496,498.6170
106,2.484821,11.6496,498.6220
107,2.473889,11.6546,498.6270
108,2.455212,11.6546,498.6320
109,2.442535,11.6596,498.6370
110,2.424279,11.6596,498.6420
111,2.412850,11.6639,498.6470
112,2.394697,11.6639,498.6520
113,2.380622,11.6689,498.6570
114,2.361123,11.6689,498.6620
115,2.351219,11.6745,498.6670
116,2.335577,11.6745,498.6720
117,2.324040,11.6795,498.6770
118,2.306935,11.6795,498.6820
119,2.295619,11.6845,498.6870
120,2.278854,11.6845,498.6920
121,2.265008,11.6895,498.6970
122,2.248043,11.6895,498.7020
123,2.238733,11.6944,498.7070
124,2.223194,11.6944,498.7120
125,2.211480,11.6994,498.7170
126,2.195136,11.6994,498.7220
127,2.183965,11.7038,498.7270
128,2.167150,11.7038,498.7320
129,2.155973,11.7094,498.7370
130,2.139733,11.7094,498.7420
131,2.131307,11.7144,498.7470
132,2.115366,11.7144,498.7520
133,2.104358,11.7187,498.7570
134,2.086612,11.7187,498.7620
135,2.076483,11.7237,498.7670
136,2.059350,11.7237,498.7720
137,2.048043,11.7287,498.7770
138,2.029212,11.7287,498.7820
139,2.018228,11.7343,498.7870
140,1.999879,11.7343,498.7920
141,1.986224,11.7393,498.7970
142,1.967370,11.7393,498.8020
143,1.956680,11.7443,498.8070
144,1.939706,11.7443,498.8120
145,1.928085,11.7493,498.8170
146,1.909614,11.7493,498.8220
147,1.899046,11.7542,498.8270
148,1.880603,11.7542,498.8320
149,1.867192,11.7586,498.8370
150,1.848983,11.7586,498.8420
151,1.838050,11.7636,498.8470
152,1.820211,11.7636,498.8520
153,1.808137,11.7686,498.8570
154,1.789343,11.7686,498.8620
155,1.778710,11.7736,498.8670
156,1.761080,11.7735,498.8720
157,1.748660,11.7785,498.8770
158,1.730947,11.7785,498.8820
159,1.720561,11.7841,498.8870
160,1.702993,11.7841,498.8920
161,1.689497,11.7891,498.8970
162,1.670063,11.7891,498.9020
163,1.660173,11.7941,498.9070
164,1.643386,11.7941,498.9120
165,1.632322,11.7985,498.9170
166,1.614594,11.7985,498.9220
167,1.604457,11.8034,498.9270
168,1.586121,11.8034,498.9320
169,1.572303,11.8084,498.9370
170,1.553411,11.8084,498.9420
171,1.543208,11.8134,498.9470
172,1.526210,11.8134,498.9520
173,1.515001,11.8184,498.9570
174,1.496904,11.8184,498.9620
175,1.485280,11.8234,498.9670
176,1.467272,11.8234,498.9720
177,1.453973,11.8284,498.9770
178,1.435577,11.8283,498.9820
179,1.425831,11.8340,498.9870
180,1.408487,11.8340,498.9920
181,1.396212,11.8389,498.9970
182,1.377957,11.8389,499.0020
183,1.366790,11.8433,499.0070
184,1.349039,11.8433,499.0120
185,1.335922,11.8483,499.0170
186,1.317466,11.8483,499.0220
187,1.308534,11.8533,499.0270
188,1.292831,11.8533,499.0320
189,1.280987,11.8583,499.0370
190,1.264368,11.8582,499.0420
191,1.254473,11.8632,499.0470
192,1.237727,11.8632,499.0520
193,1.224980,11.8682,499.0570
194,1.207113,11.8682,499.0620
195,1.196806,11.8732,499.0670
196,1.180066,11.8732,499.0720
197,1.167730,11.8788,499.0770
198,1.150765,11.8788,499.0820
199,1.141576,11.8832,499.0870
200,1.125836,11.8832,499.0920
201,1.114043,11.8882,499.0970
202,1.095978,11.8881,499.1020
203,1.085626,11.8931,499.1070
204,1.068913,11.8931,499.1120
205,1.055698,11.8981,499.1170
206,1.038359,11.8981,499.1220
207,1.028506,11.9031,499.1270
208,1.012364,11.9031,499.1320
209,1.000426,11.9081,499.1370
210,0.983021,11.9081,499.1420
211,0.972514,11.9131,499.1470
212,0.956656,11.9131,499.1520
213,0.946145,11.9181,499.1570
214,0.930456,11.9180,499.1620
215,0.920711,11.9230,499.1670
216,0.904709,11.9230,499.1720
217,0.891976,11.9280,499.1770
218,0.874608,11.9280,499.1820
219,0.865041,11.9330,499.1870
220,0.849273,11.9330,499.1920
221,0.837274,11.9380,499.1970
222,0.820954,11.9380,499.2020
223,0.810709,11.9430,499.2070
224,0.795132,11.9430,499.2120
225,0.783067,11.9480,499.2170
226,0.766463,11.9480,499.2220
227,0.757699,11.9529,499.2270
228,0.742441,11.9529,499.2320
229,0.730325,11.9579,499.2370
230,0.713977,11.9579,499.2420
231,0.703671,11.9629,499.2470
232,0.688595,11.9629,499.2520
233,0.677166,11.9679,499.2570
234,0.660683,11.9679,499.2620
235,0.650839,11.9729,499.2670
236,0.635852,11.9729,499.2720
237,0.625158,11.9779,499.2770
238,0.609366,11.9779,499.2820
239,0.599144,11.9829,499.2870
240,0.583694,11.9828,499.2920
241,0.571373,11.9878,499.2970
242,0.553238,11.9878,499.3020
243,0.543652,11.9928,499.3070
244,0.528408,11.9928,499.3120
245,0.516792,11.9978,499.3170
246,0.500304,11.9978,499.3220
247,0.489652,12.0022,499.3270
248,0.474730,12.0022,499.3320
249,0.463091,12.0071,499.3370
250,0.447033,12.0071,499.3420
251,0.437049,12.0128,499.3470
252,0.421543,12.0127,499.3520
253,0.408497,12.0177,499.3570
254,0.392541,12.0177,499.3620
255,0.381548,12.0227,499.3670
256,0.366322,12.0227,499.3720
257,0.355212,12.0277,499.3770
258,0.342086,12.0277,499.3820
259,0.335436,12.0327,499.3870
260,0.324545,12.0327,499.3920
261,0.317059,12.0371,499.3970
262,0.304854,12.0371,499.4020
263,0.298031,12.0421,499.4070
264,0.286561,12.0420,499.4120
265,0.277428,12.0470,499.4170
266,0.263040,12.0470,499.4220
267,0.254342,12.0527,499.4270
268,0.243764,12.0526,499.4320
269,0.236301,12.0570,499.4370
270,0.222871,12.0570,499.4420
271,0.213397,12.0626,499.4470
272,0.201468,12.0626,499.4520
273,0.192228,12.0676,499.4570
274,0.181015,12.0676,499.4620
275,0.175240,12.0726,499.4670
276,0.163806,12.0726,499.4720
277,0.155534,12.0770,499.4770
278,0.144802,12.0770,499.4820
279,0.137578,12.0820,499.4870
280,0.127805,12.0819,499.4920
281,0.119565,12.0869,499.4970
282,0.104657,12.0869,499.5020
283,0.093290,12.0919,499.5070
284,0.080201,12.0919,499.5120
285,0.070690,12.0969,499.5170
286,0.058840,12.0969,499.5220
287,0.052125,12.1019,499.5270
288,0.041707,12.1019,499.5320
289,0.035399,12.1069,499.5370
290,0.023624,12.1069,499.5420
291,0.013837,12.1125,499.5470
292,0.000566,12.1125,499.5520
293,-0.008310,12.1175,499.5570
294,-0.020931,12.1175,499.5620
295,-0.033117,12.1219,499.5670
296,-0.046014,12.1218,499.5720
297,-0.054809,12.1268,499.5770
298,-0.065579,12.1268,499.5820
299,-0.068356,12.1318,499.5870
300,-0.078803,12.1318,499.5920
301,-0.089984,12.1368,499.5970
302,-0.104410,12.1368,499.6020
303,-0.115445,12.1418,499.6070
304,-0.127711,12.1418,499.6120
305,-0.138471,12.1468,499.6170
306,-0.151284,12.1468,499.6220
307,-0.158784,12.1518,499.6270
308,-0.169918,12.1518,499.6320
309,-0.179458,12.1574,499.6370
310,-0.192266,12.1574,499.6420
311,-0.200996,12.1624,499.6470
312,-0.212041,12.1624,499.6520
313,-0.221740,12.1667,499.6570
314,-0.233678,12.1667,499.6620
315,-0.241721,12.1717,499.6670
316,-0.252097,12.1717,499.6720
317,-0.260902,12.1767,499.6770
318,-0.272644,12.1767,499.6820
319,-0.280416,12.1817,499.6870
320,-0.290708,12.1817,499.6920
321,-0.300421,12.1867,499.6970
322,-0.312532,12.1867,499.7020
323,-0.320482,12.1917,499.7070
324,-0.330905,12.1917,499.7120
325,-0.340009,12.1967,499.7170
326,-0.350900,12.1967,499.7220
327,-0.359168,12.2023,499.7270
328,-0.370110,12.2023,499.7320
329,-0.379780,12.2073,499.7370
330,-0.391204,12.2073,499.7420
331,-0.398822,12.2123,499.7470
332,-0.408268,12.2123,499.7520
333,-0.416998,12.2166,499.7570
334,-0.427744,12.2166,499.7620
335,-0.436100,12.2216,499.7670
336,-0.446355,12.2216,499.7720
337,-0.456427,12.2266,499.7770
338,-0.467660,12.2266,499.7820
339,-0.475548,12.2316,499.7870
340,-0.485036,12.2316,499.7920
341,-0.493668,12.2366,499.7970
342,-0.504209,12.2366,499.8020
343,-0.512874,12.2416,499.8070
344,-0.522525,12.2416,499.8120
345,-0.532079,12.2472,499.8170
346,-0.542039,12.2472,499.8220
347,-0.548356,12.2522,499.8270
348,-0.557489,12.2522,499.8320
349,-0.567337,12.2565,499.8370
350,-0.577812,12.2565,499.8420
351,-0.586360,12.2615,499.8470
352,-0.595380,12.2615,499.8520
353,-0.603952,12.2665,499.8570
354,-0.613542,12.2665,499.8620
355,-0.621146,12.2715,499.8670
356,-0.630264,12.2715,499.8720
357,-0.639542,12.2765,499.8770
358,-0.649278,12.2765,499.8820
359,-0.657610,12.2815,499.8870
360,-0.666865,12.2815,499.8920
361,-0.676886,12.2865,499.8970
362,-0.686570,12.2865,499.9020
363,-0.693369,12.2915,499.9070
364,-0.700991,12.2915,499.9120
365,-0.709778,12.2971,499.9170
366,-0.719846,12.2971,499.9220
367,-0.727987,12.3014,499.9270
368,-0.736259,12.3014,499.9320
369,-0.745205,12.3064,499.9370
370,-0.754627,12.3064,499.9420
371,-0.762338,12.3114,499.9470
372,-0.770059,12.3114,499.9520
373,-0.779083,12.3164,499.9570
374,-0.788235,12.3164,499.9620
375,-0.796544,12.3214,499.9670
376,-0.804578,12.3214,499.9720
377,-0.813986,12.3264,499.9770
378,-0.822240,12.3264,499.9820
379,-0.830096,12.3314,499.9870
380,-0.837774,12.3314,499.9920
381,-0.846182,12.3364,499.9970
382,-0.854744,12.3364,500.0020
383,-0.863142,12.3420,500.0070
384,-0.870989,12.3420,500.0120
385,-0.880309,12.3470,500.0170
386,-0.889137,12.3470,500.0220
387,-0.896773,12.3520,500.0270
388,-0.902965,12.3520,500.0320
389,-0.910325,12.3563,500.0370
390,-0.918471,12.3563,500.0420
391,-0.926233,12.3613,500.0470
392,-0.933486,12.3613,500.0520
393,-0.943418,12.3663,500.0570
394,-0.952308,12.3663,500.0620
395,-0.960575,12.3713,500.0670
396,-0.967477,12.3713,500.0720
397,-0.976217,12.3763,500.0770
398,-0.984050,12.3763,500.0820
399,-0.992018,12.3813,500.0870
400,-0.999266,12.3813,500.0920
401,-1.009086,12.3863,500.0970
402,-1.017298,12.3863,500.1020
403,-1.025355,12.3913,500.1070
404,-1.031443,12.3913,500.1120
405,-1.039406,12.3969,500.1170
406,-1.047435,12.3969,500.1220
407,-1.056348,12.4013,500.1270
408,-1.063156,12.4013,500.1320
409,-1.072125,12.4062,500.1370
410,-1.078518,12.4062,500.1420
411,-1.085682,12.4112,500.1470
412,-1.090568,12.4112,500.1520
413,-1.097699,12.4162,500.1570
414,-1.104494,12.4162,500.1620
415,-1.112266,12.4212,500.1670
416,-1.123185,12.4212,500.1730
417,-1.125981,12.4262,500.1780
418,-1.137199,12.4262,500.1830
419,-1.138130,12.4312,500.1880
420,-1.148815,12.4312,500.1930
421,-1.152322,12.4362,500.1980
422,-1.164709,12.4362,500.2030
423,-1.167005,12.4418,500.2080
424,-1.177157,12.4418,500.2130
425,-1.179444,12.4462,500.2180
426,-1.190288,12.4462,500.2230
427,-1.191036,12.4518,500.2280
428,-1.199603,12.4518,500.2330
429,-1.201553,12.4562,500.2380
430,-1.211644,12.4562,500.2430
431,-1.212523,12.4612,500.2480
432,-1.221235,12.4612,500.2530
433,-1.223400,12.4662,500.2580
434,-1.233958,12.4661,500.2630
435,-1.235039,12.4711,500.2680
436,-1.243016,12.4711,500.2730
437,-1.243554,12.4761,500.2780
438,-1.251695,12.4761,500.2830
439,-1.252177,12.4811,500.2880
440,-1.260729,12.4811,500.2930
441,-1.262881,12.4868,500.2980
442,-1.274117,12.4867,500.3030
443,-1.275749,12.4917,500.3080
444,-1.285654,12.4917,500.3130
445,-1.287262,12.4961,500.3180
446,-1.297180,12.4961,500.3230
447,-1.298050,12.5011,500.3280
448,-1.306556,12.5011,500.3330
449,-1.308927,12.5061,500.3380
450,-1.320902,12.5061,500.3430
451,-1.322600,12.5111,500.3480
452,-1.332261,12.5111,500.3530
453,-1.334356,12.5161,500.3580
454,-1.344302,12.5161,500.3630
455,-1.345209,12.5211,500.3680
456,-1.353771,12.5211,500.3730
457,-1.357844,12.5261,500.3780
458,-1.370713,12.5261,500.3830
459,-1.372934,12.5311,500.3880
460,-1.381599,12.5311,500.3930
461,-1.383269,12.5367,500.3980
462,-1.394062,12.5367,500.4030
463,-1.396082,12.5411,500.4080
464,-1.404181,12.5410,500.4130
465,-1.405625,12.5460,500.4180
466,-1.414613,12.5460,500.4230
467,-1.414487,12.5510,500.4280
468,-1.420753,12.5510,500.4330
469,-1.422530,12.5560,500.4380
470,-1.433411,12.5560,500.4430
471,-1.436652,12.5610,500.4480
472,-1.446855,12.5610,500.4530
473,-1.450512,12.5660,500.4580
474,-1.461183,12.5660,500.4630
475,-1.463259,12.5710,500.4680
476,-1.471756,12.5710,500.4730
477,-1.474730,12.5760,500.4780
478,-1.485780,12.5760,500.4830
479,-1.489128,12.5816,500.4880
480,-1.498242,12.5816,500.4930
481,-1.500126,12.5860,500.4980
482,-1.506617,12.5860,500.5030
483,-1.505345,12.5910,500.5080
484,-1.509048,12.5910,500.5130
485,-1.509072,12.5960,500.5180
486,-1.516362,12.5960,500.5230
487,-1.518345,12.6010,500.5280
488,-1.526701,12.6010,500.5330
489,-1.529834,12.6060,500.5380
490,-1.539490,12.6060,500.5430
491,-1.541234,12.6110,500.5480
492,-1.549568,12.6110,500.5530
493,-1.552939,12.6160,500.5580
494,-1.562207,12.6160,500.5630
495,-1.563994,12.6210,500.5680
496,-1.572004,12.6209,500.5730
497,-1.575890,12.6266,500.5780
498,-1.586364,12.6266,500.5830
499,-1.588810,12.6316,500.5880
500,-1.596142,12.6316,500.5930
501,-1.598588,12.6359,500.5980
502,-1.604695,12.6359,500.6030
503,-1.604868,12.6409,500.6080
504,-1.610232,12.6409,500.6130
505,-1.613201,12.6459,500.6180
506,-1.622380,12.6459,500.6230
507,-1.624457,12.6509,500.6280
508,-1.630376,12.6509,500.6330
509,-1.633215,12.6559,500.6380
510,-1.642764,12.6559,500.6430
511,-1.645584,12.6609,500.6480
512,-1.652270,12.6609,500.6530
513,-1.655623,12.6659,500.6580
514,-1.664933,12.6659,500.6630
515,-1.667898,12.6715,500.6680
516,-1.674688,12.6715,500.6730
517,-1.678195,12.6759,500.6780
518,-1.687440,12.6759,500.6830
519,-1.690638,12.6809,500.6880
520,-1.697522,12.6809,500.6930
521,-1.701571,12.6859,500.6980
522,-1.710830,12.6859,500.7030
523,-1.714010,12.6909,500.7080
524,-1.720225,12.6909,500.7130
525,-1.723559,12.6959,500.7180
526,-1.731564,12.6959,500.7230
527,-1.734684,12.7009,500.7280
528,-1.740996,12.7008,500.7330
529,-1.744947,12.7058,500.7380
530,-1.753613,12.7058,500.7430
531,-1.757133,12.7108,500.7480
532,-1.763923,12.7108,500.7530
533,-1.767463,12.7158,500.7580
534,-1.776114,12.7158,500.7630
535,-1.779752,12.7208,500.7680
536,-1.786444,12.7208,500.7730
537,-1.790433,12.7258,500.7780
538,-1.798116,12.7258,500.7830
539,-1.801683,12.7308,500.7880
540,-1.807468,12.7308,500.7930
541,-1.810180,12.7358,500.7980
542,-1.817573,12.7358,500.8030
543,-1.821305,12.7408,500.8080
544,-1.827702,12.7408,500.8130
545,-1.832939,12.7458,500.8180
546,-1.842048,12.7458,500.8230
547,-1.845163,12.7508,500.8280
548,-1.850049,12.7508,500.8330
549,-1.854300,12.7558,500.8380
550,-1.862680,12.7558,500.8430
551,-1.867337,12.7608,500.8480
552,-1.873505,12.7608,500.8530
553,-1.877802,12.7658,500.8580
554,-1.885228,12.7658,500.8630
555,-1.888693,12.7708,500.8680
556,-1.892981,12.7708,500.8730
557,-1.896830,12.7758,500.8780
558,-1.904686,12.7757,500.8830
559,-1.908969,12.7807,500.8880
560,-1.914711,12.7807,500.8930
561,-1.919228,12.7857,500.8980
562,-1.926047,12.7857,500.9030
563,-1.929698,12.7907,500.9080
564,-1.934534,12.7907,500.9130
565,-1.938326,12.7957,500.9180
566,-1.945205,12.7957,500.9230
567,-1.949076,12.8007,500.9280
568,-1.954398,12.8007,500.9330
569,-1.959622,12.8057,500.9380
570,-1.967169,12.8057,500.9430
571,-1.970984,12.8107,500.9480
572,-1.974010,12.8107,500.9530
573,-1.978101,12.8157,500.9580
574,-1.985139,12.8157,500.9630
575,-1.989563,12.8207,500.9680
576,-1.994468,12.8207,500.9730
577,-1.999822,12.8257,500.9780
578,-2.005803,12.8257,500.9830
579,-2.008730,12.8307,500.9880
580,-2.011097,12.8307,500.9930
581,-2.015833,12.8351,500.9980
582,-2.023021,12.8351,501.0030
583,-2.027244,12.8401,501.0080
584,-2.031167,12.8401,501.0130
585,-2.035811,12.8450,501.0180
586,-2.041375,12.8450,501.0230
587,-2.045228,12.8507,501.0280
588,-2.048011,12.8507,501.0330
589,-2.053070,12.8550,501.0380
590,-2.060482,12.8550,501.0430
591,-2.065995,12.8607,501.0480
592,-2.070667,12.8607,501.0530
593,-2.075525,12.8657,501.0580
594,-2.080669,12.8656,501.0630
595,-2.084760,12.8706,501.0680
596,-2.087500,12.8706,501.0730
597,-2.092079,12.8750,501.0780
598,-2.097340,12.8750,501.0830
599,-2.102217,12.8800,501.0880
600,-2.106154,12.8800,501.0930
601,-2.111602,12.8850,501.0980
602,-2.116858,12.8850,501.1030
603,-2.121249,12.8900,501.1080
604,-2.123330,12.8900,501.1130
605,-2.127931,12.8950,501.1180
606,-2.133528,12.8950,501.1230
607,-2.138607,12.9000,501.1280
608,-2.142426,12.9000,501.1330
609,-2.147608,12.9056,501.1380
610,-2.152247,12.9056,501.1430
611,-2.157578,12.9106,501.1480
612,-2.160028,12.9106,501.1530
613,-2.164199,12.9150,501.1580
614,-2.165771,12.9150,501.1630
615,-2.166767,12.9200,501.1680
616,-2.165093,12.9200,501.1730
617,-2.169372,12.9250,501.1780
618,-2.172668,12.9250,501.1830
619,-2.176582,12.9300,501.1880
620,-2.176947,12.9300,501.1930
621,-2.181786,12.9350,501.1980
622,-2.186706,12.9350,501.2030
623,-2.192224,12.9400,501.2080
624,-2.195693,12.9400,501.2130
625,-2.202319,12.9450,501.2180
626,-2.206270,12.9449,501.2230
627,-2.209960,12.9499,501.2280
628,-2.208385,12.9499,501.2330
629,-2.211508,12.9556,501.2380
630,-2.209567,12.9556,501.2430
631,-2.210362,12.9599,501.2480
632,-2.207917,12.9599,501.2530
633,-2.211223,12.9649,501.2580
634,-2.212537,12.9649,501.2630
635,-2.216619,12.9699,501.2680
636,-2.216937,12.9699,501.2730
