Data stamp = , 19-05-2022 11:10:15 767

Calibration Values: 
Slope = , 26.54 , g/V 
Offset Voltage at no contact = , -0.501760 , V 

No , Time , Stage Position ,   Mass , Force 
   ,  (s) ,      (mm)      ,   (g)  , (mN)  

1 ,0.0000 ,0.89966 ,5.27456 ,51.75401 
2 ,0.2025 ,0.89973 ,5.30878 ,52.08979 
3 ,0.8427 ,0.90245 ,5.28825 ,51.88832 
4 ,1.0832 ,0.90507 ,5.30878 ,52.08979 
5 ,1.3078 ,0.90728 ,5.29510 ,51.95548 
6 ,1.5155 ,0.90953 ,5.29167 ,51.92190 
7 ,1.7396 ,0.91186 ,5.25745 ,51.58611 
8 ,1.9312 ,0.91383 ,5.26430 ,51.65327 
9 ,2.1237 ,0.91583 ,5.21296 ,51.14960 
10 ,2.3319 ,0.91778 ,5.23350 ,51.35107 
11 ,2.5557 ,0.91997 ,5.17532 ,50.78023 
12 ,2.7799 ,0.92218 ,5.15479 ,50.57876 
13 ,2.9722 ,0.92428 ,5.15821 ,50.61234 
14 ,3.1960 ,0.92642 ,5.11714 ,50.20940 
15 ,3.4523 ,0.92894 ,5.10688 ,50.10867 
16 ,3.6924 ,0.93120 ,5.06581 ,49.70573 
17 ,3.9165 ,0.93356 ,5.02474 ,49.30279 
18 ,4.1242 ,0.93572 ,5.01448 ,49.20205 
19 ,4.3484 ,0.93784 ,5.01790 ,49.23563 
20 ,4.5729 ,0.94011 ,4.98710 ,48.93343 
21 ,4.7967 ,0.94235 ,4.94261 ,48.49691 
22 ,5.0049 ,0.94447 ,4.95288 ,48.59764 
23 ,5.2290 ,0.94670 ,4.93235 ,48.39618 
24 ,5.4530 ,0.94890 ,4.88444 ,47.92608 
25 ,5.6769 ,0.95117 ,4.85706 ,47.65745 
26 ,5.9011 ,0.95340 ,4.85021 ,47.59030 
27 ,6.1254 ,0.95563 ,4.83995 ,47.48956 
28 ,6.3335 ,0.95775 ,4.81599 ,47.25451 
29 ,6.5416 ,0.95984 ,4.80915 ,47.18736 
30 ,6.7655 ,0.96209 ,4.77493 ,46.85157 
31 ,6.9739 ,0.96410 ,4.74755 ,46.58295 
32 ,7.1977 ,0.96636 ,4.72017 ,46.31432 
33 ,7.4057 ,0.96846 ,4.72359 ,46.34790 
34 ,7.6140 ,0.97053 ,4.67226 ,45.84422 
35 ,7.8377 ,0.97271 ,4.64831 ,45.60918 
36 ,8.0460 ,0.97487 ,4.65857 ,45.70991 
37 ,8.2541 ,0.97693 ,4.63119 ,45.44128 
38 ,8.4623 ,0.97900 ,4.60040 ,45.13908 
39 ,8.6540 ,0.98102 ,4.60040 ,45.13908 
40 ,8.8624 ,0.98306 ,4.56275 ,44.76972 
41 ,9.0707 ,0.98505 ,4.56275 ,44.76972 
42 ,9.2787 ,0.98717 ,4.51826 ,44.33320 
43 ,9.5028 ,0.98940 ,4.51142 ,44.26604 
44 ,9.7105 ,0.99153 ,4.50457 ,44.19889 
45 ,9.9349 ,0.99369 ,4.47035 ,43.86310 
46 ,10.1589 ,0.99595 ,4.43271 ,43.49374 
47 ,10.3671 ,0.99803 ,4.44298 ,43.59448 
48 ,10.5752 ,1.00009 ,4.39507 ,43.12438 
49 ,10.7673 ,1.00211 ,4.39507 ,43.12438 
50 ,10.9915 ,1.00420 ,4.36427 ,42.82218 
51 ,11.2156 ,1.00652 ,4.35058 ,42.68786 
52 ,11.4237 ,1.00860 ,4.34031 ,42.58713 
53 ,11.6478 ,1.01079 ,4.32662 ,42.45282 
54 ,11.8557 ,1.01291 ,4.29582 ,42.15061 
55 ,12.0800 ,1.01516 ,4.27871 ,41.98272 
56 ,12.3041 ,1.01739 ,4.26160 ,41.81483 
57 ,12.4962 ,1.01944 ,4.24449 ,41.64694 
58 ,12.7042 ,1.02135 ,4.23080 ,41.51262 
59 ,12.9124 ,1.02348 ,4.19316 ,41.14326 
60 ,13.1363 ,1.02571 ,4.17262 ,40.94179 
61 ,13.3445 ,1.02778 ,4.16920 ,40.90821 
62 ,13.5527 ,1.02989 ,4.15551 ,40.77390 
63 ,13.7769 ,1.03211 ,4.11445 ,40.37096 
64 ,14.0005 ,1.03434 ,4.08707 ,40.10233 
65 ,14.1925 ,1.03641 ,4.09049 ,40.13591 
66 ,14.4331 ,1.03857 ,4.04943 ,39.73297 
67 ,14.6572 ,1.04096 ,4.02889 ,39.53150 
68 ,14.8813 ,1.04320 ,4.02205 ,39.46435 
69 ,15.0894 ,1.04529 ,4.02547 ,39.49793 
70 ,15.2970 ,1.04743 ,3.98783 ,39.12856 
71 ,15.5055 ,1.04945 ,3.97414 ,38.99425 
72 ,15.7296 ,1.05167 ,3.96387 ,38.89352 
73 ,15.9374 ,1.05375 ,3.91596 ,38.42342 
74 ,16.1614 ,1.05600 ,3.90227 ,38.28911 
75 ,16.3534 ,1.05800 ,3.89543 ,38.22195 
76 ,16.5939 ,1.06014 ,3.86121 ,37.88617 
77 ,16.8340 ,1.06259 ,3.84752 ,37.75185 
78 ,17.0581 ,1.06496 ,3.80303 ,37.31534 
79 ,17.2663 ,1.06700 ,3.81672 ,37.44965 
80 ,17.4901 ,1.06925 ,3.79276 ,37.21460 
81 ,17.7144 ,1.07146 ,3.76539 ,36.94597 
82 ,17.9383 ,1.07375 ,3.73117 ,36.61019 
83 ,18.1627 ,1.07598 ,3.74485 ,36.74450 
84 ,18.3866 ,1.07820 ,3.71063 ,36.40872 
85 ,18.5947 ,1.08030 ,3.68668 ,36.17367 
86 ,18.8189 ,1.08257 ,3.66957 ,36.00578 
87 ,19.0267 ,1.08458 ,3.66614 ,35.97220 
88 ,19.2511 ,1.08688 ,3.63877 ,35.70358 
89 ,19.4592 ,1.08900 ,3.60112 ,35.33422 
90 ,19.6832 ,1.09121 ,3.60454 ,35.36779 
91 ,19.9233 ,1.09350 ,3.59428 ,35.26706 
92 ,20.1470 ,1.09579 ,3.56006 ,34.93128 
93 ,20.3554 ,1.09785 ,3.51899 ,34.52834 
94 ,20.5635 ,1.09997 ,3.52926 ,34.62907 
95 ,20.7716 ,1.10207 ,3.50188 ,34.36045 
96 ,20.9799 ,1.10420 ,3.47450 ,34.09182 
97 ,21.2034 ,1.10634 ,3.47108 ,34.05824 
98 ,21.4114 ,1.10853 ,3.45739 ,33.92393 
99 ,21.6198 ,1.11060 ,3.42317 ,33.58814 
100 ,21.8923 ,1.11322 ,3.39921 ,33.35310 
101 ,22.1001 ,1.11531 ,3.39237 ,33.28594 
102 ,22.3243 ,1.11752 ,3.37868 ,33.15163 
103 ,22.5163 ,1.11951 ,3.33762 ,32.74869 
104 ,22.7245 ,1.12162 ,3.34104 ,32.78227 
105 ,22.9487 ,1.12386 ,3.32393 ,32.61437 
106 ,23.1402 ,1.12586 ,3.28286 ,32.21143 
107 ,23.3486 ,1.12784 ,3.28628 ,32.24501 
108 ,23.5730 ,1.13009 ,3.26233 ,32.00996 
109 ,23.7809 ,1.13221 ,3.22811 ,31.67418 
110 ,23.9890 ,1.13418 ,3.22811 ,31.67418 
111 ,24.1967 ,1.13627 ,3.18704 ,31.27124 
112 ,24.4051 ,1.13839 ,3.19731 ,31.37198 
113 ,24.6293 ,1.14058 ,3.18362 ,31.23766 
114 ,24.8372 ,1.14271 ,3.13913 ,30.80115 
115 ,25.0454 ,1.14472 ,3.14255 ,30.83472 
116 ,25.2536 ,1.14682 ,3.09464 ,30.36463 
117 ,25.4778 ,1.14909 ,3.08780 ,30.29747 
118 ,25.7337 ,1.15166 ,3.07411 ,30.16316 
119 ,25.9577 ,1.15385 ,3.05358 ,29.96169 
120 ,26.1658 ,1.15609 ,3.03304 ,29.76022 
121 ,26.3578 ,1.15797 ,3.02278 ,29.65948 
122 ,26.5340 ,1.15982 ,3.01593 ,29.59233 
123 ,26.7418 ,1.16169 ,2.98513 ,29.29012 
124 ,26.9502 ,1.16381 ,2.98171 ,29.25654 
125 ,27.1583 ,1.16591 ,2.93722 ,28.82003 
126 ,27.3663 ,1.16797 ,2.96118 ,29.05507 
127 ,27.5741 ,1.17002 ,2.91669 ,28.61856 
128 ,27.7822 ,1.17224 ,2.89616 ,28.41709 
129 ,27.9586 ,1.17405 ,2.88931 ,28.34993 
130 ,28.1828 ,1.17615 ,2.87220 ,28.18204 
131 ,28.4064 ,1.17835 ,2.86878 ,28.14846 
132 ,28.6149 ,1.18046 ,2.83114 ,27.77910 
133 ,28.8389 ,1.18270 ,2.81402 ,27.61121 
134 ,29.0790 ,1.18498 ,2.80034 ,27.47689 
135 ,29.2872 ,1.18715 ,2.80376 ,27.51047 
136 ,29.4953 ,1.18937 ,2.77638 ,27.24185 
137 ,29.7031 ,1.19136 ,2.74900 ,26.97322 
138 ,29.9114 ,1.19349 ,2.72847 ,26.77175 
139 ,30.1195 ,1.19546 ,2.70794 ,26.57028 
140 ,30.3276 ,1.19757 ,2.70452 ,26.53670 
141 ,30.5358 ,1.19964 ,2.66003 ,26.10018 
142 ,30.7438 ,1.20173 ,2.66345 ,26.13376 
143 ,30.9515 ,1.20384 ,2.65318 ,26.03303 
144 ,31.1598 ,1.20591 ,2.61554 ,25.66367 
145 ,31.3681 ,1.20801 ,2.61212 ,25.63009 
146 ,31.5601 ,1.20999 ,2.58132 ,25.32788 
147 ,31.7680 ,1.21193 ,2.59501 ,25.46220 
148 ,31.9923 ,1.21419 ,2.56763 ,25.19357 
149 ,32.2003 ,1.21635 ,2.54025 ,24.92494 
150 ,32.4244 ,1.21852 ,2.53341 ,24.85779 
151 ,32.6326 ,1.22062 ,2.51630 ,24.68989 
152 ,32.8568 ,1.22283 ,2.46839 ,24.21980 
153 ,33.0808 ,1.22510 ,2.47865 ,24.32053 
154 ,33.2886 ,1.22722 ,2.45812 ,24.11906 
155 ,33.5127 ,1.22942 ,2.45470 ,24.08549 
156 ,33.7211 ,1.23155 ,2.41021 ,23.64897 
157 ,33.9290 ,1.23357 ,2.42048 ,23.74970 
158 ,34.1372 ,1.23561 ,2.36914 ,23.24603 
159 ,34.3613 ,1.23784 ,2.36572 ,23.21245 
160 ,34.5532 ,1.23991 ,2.35888 ,23.14529 
161 ,34.7612 ,1.24188 ,2.33834 ,22.94382 
162 ,34.9693 ,1.24392 ,2.33150 ,22.87667 
163 ,35.1777 ,1.24605 ,2.30070 ,22.57446 
164 ,35.3693 ,1.24812 ,2.29385 ,22.50731 
165 ,35.5778 ,1.25010 ,2.26306 ,22.20510 
166 ,35.7859 ,1.25222 ,2.25279 ,22.10437 
167 ,35.9938 ,1.25424 ,2.24252 ,22.00363 
168 ,36.2180 ,1.25641 ,2.21172 ,21.70143 
169 ,36.4264 ,1.25853 ,2.20488 ,21.63427 
170 ,36.6341 ,1.26067 ,2.19119 ,21.49996 
171 ,36.8422 ,1.26281 ,2.17408 ,21.33206 
172 ,37.0664 ,1.26509 ,2.14328 ,21.02986 
173 ,37.2745 ,1.26701 ,2.14670 ,21.06344 
174 ,37.4826 ,1.26908 ,2.11248 ,20.72766 
175 ,37.6906 ,1.27131 ,2.11590 ,20.76123 
176 ,37.8986 ,1.27320 ,2.07826 ,20.39187 
177 ,38.1067 ,1.27532 ,2.08168 ,20.42545 
178 ,38.3149 ,1.27743 ,2.06457 ,20.25756 
179 ,38.5229 ,1.27949 ,2.03035 ,19.92178 
180 ,38.7307 ,1.28159 ,2.04404 ,20.05609 
181 ,38.9392 ,1.28370 ,1.99270 ,19.55241 
182 ,39.1632 ,1.28593 ,1.99270 ,19.55241 
183 ,39.3714 ,1.28795 ,1.99613 ,19.58599 
184 ,39.5955 ,1.29024 ,1.97902 ,19.41810 
185 ,39.8030 ,1.29237 ,1.94137 ,19.04874 
186 ,40.0274 ,1.29453 ,1.93795 ,19.01516 
187 ,40.2514 ,1.29680 ,1.91742 ,18.81369 
188 ,40.4598 ,1.29886 ,1.88319 ,18.47791 
189 ,40.6838 ,1.30106 ,1.87293 ,18.37717 
190 ,40.8921 ,1.30319 ,1.87293 ,18.37717 
191 ,41.1321 ,1.30558 ,1.85582 ,18.20928 
192 ,41.3560 ,1.30782 ,1.82844 ,17.94066 
193 ,41.5803 ,1.31001 ,1.80791 ,17.73919 
194 ,41.8041 ,1.31228 ,1.77711 ,17.43698 
195 ,42.0125 ,1.31441 ,1.78737 ,17.53772 
196 ,42.2525 ,1.31661 ,1.73946 ,17.06762 
197 ,42.4768 ,1.31899 ,1.74289 ,17.10120 
198 ,42.6847 ,1.32113 ,1.72578 ,16.93331 
199 ,42.8928 ,1.32317 ,1.71893 ,16.86615 
200 ,43.1009 ,1.32531 ,1.68129 ,16.49679 
201 ,43.3089 ,1.32734 ,1.69498 ,16.63110 
202 ,43.5330 ,1.32961 ,1.67786 ,16.46321 
203 ,43.7250 ,1.33165 ,1.64022 ,16.09385 
204 ,43.9333 ,1.33359 ,1.65049 ,16.19458 
205 ,44.1729 ,1.33586 ,1.62653 ,15.95954 
206 ,44.3809 ,1.33802 ,1.59231 ,15.62375 
207 ,44.5891 ,1.34012 ,1.57862 ,15.48944 
208 ,44.7970 ,1.34226 ,1.57520 ,15.45586 
209 ,45.0055 ,1.34427 ,1.54440 ,15.15366 
210 ,45.2298 ,1.34645 ,1.54782 ,15.18724 
211 ,45.4533 ,1.34882 ,1.53756 ,15.08650 
212 ,45.6617 ,1.35086 ,1.50333 ,14.75072 
213 ,45.8535 ,1.35292 ,1.50333 ,14.75072 
214 ,46.0621 ,1.35489 ,1.46569 ,14.38136 
215 ,46.2702 ,1.35694 ,1.47253 ,14.44851 
216 ,46.4784 ,1.35898 ,1.45200 ,14.24704 
217 ,46.7023 ,1.36124 ,1.42120 ,13.94484 
218 ,46.9105 ,1.36332 ,1.42462 ,13.97842 
219 ,47.1185 ,1.36544 ,1.40409 ,13.77695 
220 ,47.3427 ,1.36764 ,1.36987 ,13.44116 
221 ,47.5506 ,1.36972 ,1.37671 ,13.50832 
222 ,47.7584 ,1.37179 ,1.34249 ,13.17254 
223 ,47.9667 ,1.37386 ,1.32880 ,13.03822 
224 ,48.1906 ,1.37612 ,1.33565 ,13.10538 
225 ,48.3991 ,1.37815 ,1.30143 ,12.76960 
226 ,48.6230 ,1.38045 ,1.27405 ,12.50097 
227 ,48.8147 ,1.38243 ,1.29458 ,12.70244 
228 ,49.0392 ,1.38447 ,1.25694 ,12.33308 
229 ,49.2473 ,1.38670 ,1.24325 ,12.19877 
230 ,49.4715 ,1.38891 ,1.25009 ,12.26592 
231 ,49.6794 ,1.39096 ,1.21245 ,11.89656 
232 ,49.8712 ,1.39303 ,1.21929 ,11.96372 
233 ,50.0797 ,1.39507 ,1.19876 ,11.76225 
234 ,50.3035 ,1.39720 ,1.17138 ,11.49362 
235 ,50.5118 ,1.39934 ,1.16454 ,11.42647 
236 ,50.7199 ,1.40141 ,1.13716 ,11.15784 
237 ,50.9277 ,1.40360 ,1.10979 ,10.88921 
238 ,51.1521 ,1.40574 ,1.12690 ,11.05710 
239 ,51.3443 ,1.40781 ,1.09267 ,10.72132 
240 ,51.5520 ,1.40976 ,1.10294 ,10.82206 
241 ,51.7766 ,1.41192 ,1.07899 ,10.58701 
242 ,52.0005 ,1.41421 ,1.05503 ,10.35196 
243 ,52.2083 ,1.41631 ,1.05161 ,10.31838 
244 ,52.4327 ,1.41857 ,1.03450 ,10.15049 
245 ,52.6408 ,1.42067 ,1.01396 ,9.94902 
246 ,52.8648 ,1.42285 ,0.99343 ,9.74755 
247 ,53.0730 ,1.42492 ,0.99685 ,9.78113 
248 ,53.2966 ,1.42712 ,0.96605 ,9.47892 
249 ,53.5050 ,1.42924 ,0.94894 ,9.31103 
250 ,53.7130 ,1.43135 ,0.95579 ,9.37819 
251 ,53.9372 ,1.43351 ,0.94210 ,9.24388 
252 ,54.1450 ,1.43563 ,0.90103 ,8.84094 
253 ,54.3690 ,1.43791 ,0.89761 ,8.80736 
254 ,54.5775 ,1.43995 ,0.89077 ,8.74020 
255 ,54.8017 ,1.44222 ,0.85997 ,8.43800 
256 ,55.0098 ,1.44437 ,0.85312 ,8.37084 
257 ,55.2333 ,1.44651 ,0.82917 ,8.13579 
258 ,55.4734 ,1.44894 ,0.82917 ,8.13579 
259 ,55.6814 ,1.45114 ,0.80521 ,7.90074 
260 ,55.9057 ,1.45324 ,0.78810 ,7.73285 
261 ,56.1299 ,1.45546 ,0.77099 ,7.56496 
262 ,56.3698 ,1.45791 ,0.76072 ,7.46423 
263 ,56.5779 ,1.45995 ,0.76757 ,7.53138 
264 ,56.8020 ,1.46221 ,0.71624 ,7.02771 
265 ,56.9947 ,1.46417 ,0.73677 ,7.22918 
266 ,57.2185 ,1.46635 ,0.70939 ,6.96055 
267 ,57.4427 ,1.46858 ,0.67859 ,6.65835 
268 ,57.6506 ,1.47075 ,0.67859 ,6.65835 
269 ,57.8746 ,1.47293 ,0.67175 ,6.59119 
270 ,58.0830 ,1.47502 ,0.63410 ,6.22183 
271 ,58.2908 ,1.47710 ,0.64779 ,6.35614 
272 ,58.5149 ,1.47932 ,0.64095 ,6.28899 
273 ,58.7231 ,1.48143 ,0.59646 ,5.85247 
274 ,58.9313 ,1.48347 ,0.59988 ,5.88605 
275 ,59.1712 ,1.48589 ,0.57251 ,5.61742 
276 ,59.3956 ,1.48816 ,0.57251 ,5.61742 
277 ,59.6036 ,1.49025 ,0.54171 ,5.31522 
278 ,59.8117 ,1.49233 ,0.54171 ,5.31522 
279 ,60.0196 ,1.49443 ,0.51775 ,5.08017 
280 ,60.2279 ,1.49647 ,0.49037 ,4.81154 
281 ,60.4519 ,1.49875 ,0.49722 ,4.87870 
282 ,60.6600 ,1.50074 ,0.48353 ,4.74438 
283 ,60.8682 ,1.50286 ,0.45957 ,4.50934 
284 ,61.0757 ,1.50490 ,0.47668 ,4.67723 
285 ,61.2844 ,1.50695 ,0.42535 ,4.17355 
286 ,61.4920 ,1.50924 ,0.42193 ,4.13997 
287 ,61.7004 ,1.51118 ,0.42535 ,4.17355 
288 ,61.9246 ,1.51334 ,0.39455 ,3.87135 
289 ,62.1322 ,1.51555 ,0.38771 ,3.80419 
290 ,62.3408 ,1.51764 ,0.39113 ,3.83777 
291 ,62.5646 ,1.51987 ,0.35349 ,3.46841 
292 ,62.7889 ,1.52202 ,0.33295 ,3.26694 
293 ,62.9968 ,1.52418 ,0.33980 ,3.33410 
294 ,63.2046 ,1.52632 ,0.32269 ,3.16620 
295 ,63.4292 ,1.52844 ,0.29531 ,2.89758 
296 ,63.6531 ,1.53070 ,0.30558 ,2.99831 
297 ,63.8614 ,1.53274 ,0.28847 ,2.83042 
298 ,64.0695 ,1.53485 ,0.26451 ,2.59537 
299 ,64.2777 ,1.53691 ,0.26451 ,2.59537 
300 ,64.5016 ,1.53924 ,0.23371 ,2.29317 
301 ,64.7098 ,1.54129 ,0.22002 ,2.15885 
302 ,64.9175 ,1.54332 ,0.23029 ,2.25959 
303 ,65.1257 ,1.54543 ,0.18580 ,1.82307 
304 ,65.3498 ,1.54765 ,0.18238 ,1.78949 
305 ,65.5740 ,1.54983 ,0.17211 ,1.68876 
306 ,65.7661 ,1.55192 ,0.15842 ,1.55445 
307 ,65.9743 ,1.55383 ,0.15500 ,1.52087 
308 ,66.1984 ,1.55610 ,0.15500 ,1.52087 
309 ,66.4063 ,1.55824 ,0.10709 ,1.05077 
310 ,66.6301 ,1.56047 ,0.09682 ,0.95004 
311 ,66.8225 ,1.56247 ,0.11051 ,1.08435 
312 ,67.0307 ,1.56442 ,0.06945 ,0.68141 
313 ,67.2387 ,1.56654 ,0.08314 ,0.81572 
314 ,67.4629 ,1.56878 ,0.05576 ,0.54710 
315 ,67.6706 ,1.57085 ,0.04891 ,0.47994 
316 ,67.8792 ,1.57297 ,0.04891 ,0.47994 
317 ,68.1031 ,1.57520 ,0.02496 ,0.24489 
318 ,68.3271 ,1.57741 ,-0.02295 ,-0.22520 
319 ,68.5352 ,1.57950 ,0.00785 ,0.07700 
320 ,68.7434 ,1.58158 ,-0.02295 ,-0.22520 
321 ,68.9673 ,1.58388 ,-0.04691 ,-0.46025 
322 ,69.1757 ,1.58586 ,-0.03322 ,-0.32594 
323 ,69.3836 ,1.58811 ,-0.05033 ,-0.49383 
324 ,69.5916 ,1.59009 ,-0.07086 ,-0.69530 
325 ,69.7997 ,1.59212 ,-0.06744 ,-0.66172 
326 ,70.0236 ,1.59439 ,-0.10851 ,-1.06466 
327 ,70.2158 ,1.59630 ,-0.09482 ,-0.93035 
328 ,70.4401 ,1.59843 ,-0.12904 ,-1.26613 
329 ,70.6802 ,1.60078 ,-0.14273 ,-1.40045 
330 ,70.9203 ,1.60325 ,-0.15642 ,-1.53476 
331 ,71.1123 ,1.60544 ,-0.16668 ,-1.63549 
332 ,71.3204 ,1.60729 ,-0.15642 ,-1.53476 
333 ,71.5281 ,1.60942 ,-0.20090 ,-1.97128 
334 ,71.7366 ,1.61146 ,-0.18379 ,-1.80338 
335 ,71.9445 ,1.61360 ,-0.22144 ,-2.17275 
336 ,72.1524 ,1.61572 ,-0.23170 ,-2.27348 
337 ,72.3768 ,1.61787 ,-0.23513 ,-2.30706 
338 ,72.5850 ,1.62007 ,-0.24539 ,-2.40779 
339 ,72.7931 ,1.62211 ,-0.26250 ,-2.57569 
340 ,73.0012 ,1.62411 ,-0.27961 ,-2.74358 
341 ,73.2251 ,1.62637 ,-0.28988 ,-2.84431 
342 ,73.4652 ,1.62878 ,-0.31041 ,-3.04578 
343 ,73.6735 ,1.63102 ,-0.32410 ,-3.18010 
344 ,73.8815 ,1.63299 ,-0.32068 ,-3.14652 
345 ,74.1057 ,1.63519 ,-0.34806 ,-3.41514 
346 ,74.3137 ,1.63729 ,-0.34121 ,-3.34799 
347 ,74.5378 ,1.63949 ,-0.34806 ,-3.41514 
348 ,74.7615 ,1.64172 ,-0.36175 ,-3.54946 
349 ,74.9697 ,1.64379 ,-0.39255 ,-3.85166 
350 ,75.1782 ,1.64586 ,-0.38228 ,-3.75093 
351 ,75.4023 ,1.64816 ,-0.39597 ,-3.88524 
352 ,75.6101 ,1.65026 ,-0.43703 ,-4.28818 
353 ,75.8185 ,1.65227 ,-0.41308 ,-4.05313 
354 ,76.0260 ,1.65440 ,-0.45072 ,-4.42249 
355 ,76.2345 ,1.65642 ,-0.44730 ,-4.38891 
356 ,76.4587 ,1.65863 ,-0.45757 ,-4.48965 
357 ,76.6822 ,1.66091 ,-0.47468 ,-4.65754 
358 ,76.8908 ,1.66304 ,-0.49863 ,-4.89259 
359 ,77.1149 ,1.66526 ,-0.50890 ,-4.99332 
360 ,77.3231 ,1.66737 ,-0.50548 ,-4.95975 
361 ,77.5470 ,1.66957 ,-0.53628 ,-5.26195 
362 ,77.7547 ,1.67169 ,-0.52943 ,-5.19479 
363 ,77.9631 ,1.67374 ,-0.53628 ,-5.26195 
364 ,78.1874 ,1.67594 ,-0.57734 ,-5.66489 
365 ,78.4115 ,1.67826 ,-0.58419 ,-5.73205 
366 ,78.6196 ,1.68027 ,-0.57734 ,-5.66489 
367 ,78.8273 ,1.68237 ,-0.60814 ,-5.96709 
368 ,79.0517 ,1.68460 ,-0.61841 ,-6.06783 
369 ,79.2758 ,1.68684 ,-0.60472 ,-5.93352 
370 ,79.4839 ,1.68890 ,-0.62525 ,-6.13499 
371 ,79.6920 ,1.69101 ,-0.65605 ,-6.43719 
372 ,79.9002 ,1.69308 ,-0.63552 ,-6.23572 
373 ,80.1241 ,1.69540 ,-0.66974 ,-6.57150 
374 ,80.3483 ,1.69756 ,-0.69027 ,-6.77297 
375 ,80.5562 ,1.69967 ,-0.69027 ,-6.77297 
376 ,80.7802 ,1.70187 ,-0.69370 ,-6.80655 
377 ,80.9885 ,1.70394 ,-0.72107 ,-7.07518 
378 ,81.1965 ,1.70607 ,-0.71081 ,-6.97444 
379 ,81.4207 ,1.70833 ,-0.73476 ,-7.20949 
380 ,81.6445 ,1.71053 ,-0.74503 ,-7.31023 
381 ,81.8683 ,1.71279 ,-0.76556 ,-7.51170 
382 ,82.0929 ,1.71503 ,-0.76556 ,-7.51170 
383 ,82.3650 ,1.71776 ,-0.78610 ,-7.71317 
384 ,82.5892 ,1.72005 ,-0.80663 ,-7.91464 
385 ,82.8134 ,1.72225 ,-0.81689 ,-8.01537 
386 ,83.0215 ,1.72433 ,-0.79294 ,-7.78032 
387 ,83.2294 ,1.72639 ,-0.83743 ,-8.21684 
388 ,83.4531 ,1.72850 ,-0.83743 ,-8.21684 
389 ,83.6617 ,1.73073 ,-0.84085 ,-8.25042 
390 ,83.8696 ,1.73283 ,-0.86481 ,-8.48547 
391 ,84.0938 ,1.73500 ,-0.89218 ,-8.75409 
392 ,84.3019 ,1.73709 ,-0.87165 ,-8.55262 
393 ,84.4934 ,1.73916 ,-0.90587 ,-8.88841 
394 ,84.7020 ,1.74109 ,-0.89560 ,-8.78767 
395 ,84.9102 ,1.74325 ,-0.91956 ,-9.02272 
396 ,85.1183 ,1.74535 ,-0.90929 ,-8.92198 
397 ,85.3423 ,1.74749 ,-0.92298 ,-9.05630 
398 ,85.5499 ,1.74955 ,-0.96405 ,-9.45924 
399 ,85.7746 ,1.75181 ,-0.97089 ,-9.52639 
400 ,85.9985 ,1.75401 ,-0.96405 ,-9.45924 
401 ,86.2067 ,1.75621 ,-0.98458 ,-9.66071 
402 ,86.4147 ,1.75822 ,-0.98800 ,-9.69429 
403 ,86.6387 ,1.76045 ,-1.00169 ,-9.82860 
404 ,86.8630 ,1.76268 ,-1.00854 ,-9.89576 
405 ,87.1031 ,1.76501 ,-1.02222 ,-10.03007 
406 ,87.3271 ,1.76737 ,-1.03591 ,-10.16438 
407 ,87.5353 ,1.76947 ,-1.05302 ,-10.33227 
408 ,87.7752 ,1.77175 ,-1.05302 ,-10.33227 
409 ,87.9995 ,1.77409 ,-1.04618 ,-10.26512 
410 ,88.2076 ,1.77616 ,-1.07356 ,-10.53374 
411 ,88.4316 ,1.77833 ,-1.10436 ,-10.83595 
412 ,88.6397 ,1.78049 ,-1.09409 ,-10.73521 
413 ,88.8638 ,1.78271 ,-1.10436 ,-10.83595 
414 ,89.1038 ,1.78494 ,-1.12489 ,-11.03742 
415 ,89.3280 ,1.78733 ,-1.13858 ,-11.17173 
416 ,89.5361 ,1.78944 ,-1.15227 ,-11.30604 
417 ,89.7442 ,1.79154 ,-1.13858 ,-11.17173 
418 ,89.9679 ,1.79373 ,-1.17622 ,-11.54109 
419 ,90.1924 ,1.79591 ,-1.16596 ,-11.44036 
420 ,90.4163 ,1.79822 ,-1.17964 ,-11.57467 
421 ,90.6246 ,1.80029 ,-1.18991 ,-11.67541 
422 ,90.8325 ,1.80237 ,-1.20702 ,-11.84330 
423 ,91.0408 ,1.80444 ,-1.18991 ,-11.67541 
424 ,91.2488 ,1.80654 ,-1.22755 ,-12.04477 
425 ,91.4569 ,1.80858 ,-1.22413 ,-12.01119 
426 ,91.6651 ,1.81071 ,-1.23440 ,-12.11192 
427 ,91.8890 ,1.81288 ,-1.26178 ,-12.38055 
428 ,92.0971 ,1.81502 ,-1.25151 ,-12.27981 
429 ,92.3048 ,1.81721 ,-1.26178 ,-12.38055 
430 ,92.5132 ,1.81920 ,-1.28231 ,-12.58202 
431 ,92.7214 ,1.82122 ,-1.27204 ,-12.48128 
432 ,92.9614 ,1.82365 ,-1.28915 ,-12.64918 
433 ,93.1696 ,1.82572 ,-1.32338 ,-12.98496 
434 ,93.3933 ,1.82796 ,-1.33022 ,-13.05212 
435 ,93.5856 ,1.83001 ,-1.32338 ,-12.98496 
436 ,93.7938 ,1.83203 ,-1.35417 ,-13.28716 
437 ,94.0018 ,1.83417 ,-1.34049 ,-13.15285 
438 ,94.2100 ,1.83616 ,-1.36444 ,-13.38790 
439 ,94.4340 ,1.83839 ,-1.38155 ,-13.55579 
440 ,94.6420 ,1.84053 ,-1.37813 ,-13.52221 
441 ,94.8662 ,1.84273 ,-1.39866 ,-13.72368 
442 ,95.0742 ,1.84474 ,-1.39866 ,-13.72368 
443 ,95.2823 ,1.84697 ,-1.39866 ,-13.72368 
444 ,95.4906 ,1.84887 ,-1.43288 ,-14.05946 
445 ,95.6982 ,1.85101 ,-1.39866 ,-13.72368 
446 ,95.9066 ,1.85308 ,-1.43973 ,-14.12662 
447 ,96.1307 ,1.85531 ,-1.45342 ,-14.26093 
448 ,96.3228 ,1.85741 ,-1.44657 ,-14.19378 
449 ,96.5310 ,1.85929 ,-1.47395 ,-14.46240 
450 ,96.7386 ,1.86140 ,-1.47737 ,-14.49598 
451 ,96.9471 ,1.86351 ,-1.47395 ,-14.46240 
452 ,97.1713 ,1.86573 ,-1.50133 ,-14.73103 
453 ,97.3952 ,1.86799 ,-1.50133 ,-14.73103 
454 ,97.6194 ,1.87018 ,-1.50133 ,-14.73103 
455 ,97.8270 ,1.87233 ,-1.53555 ,-15.06681 
456 ,98.0356 ,1.87437 ,-1.53213 ,-15.03324 
457 ,98.2597 ,1.87659 ,-1.53897 ,-15.10039 
458 ,98.4677 ,1.87867 ,-1.56635 ,-15.36902 
459 ,98.6914 ,1.88090 ,-1.58004 ,-15.50333 
460 ,98.8836 ,1.88297 ,-1.56293 ,-15.33544 
