Data stamp = , 18-05-2022 15:29:42 612

Calibration Values: 
Slope = , 26.54 , g/V 
Offset Voltage at no contact = , -0.501760 , V 

No , Time , Stage Position ,   Mass , Force 
   ,  (s) ,      (mm)      ,   (g)  , (mN)  

1 ,0.0000 ,0.89966 ,5.37038 ,52.69420 
2 ,0.2463 ,0.89978 ,5.36012 ,52.59346 
3 ,0.7910 ,0.90163 ,5.34985 ,52.49273 
4 ,1.0467 ,0.90466 ,5.38065 ,52.79493 
5 ,1.2551 ,0.90688 ,5.36696 ,52.66062 
6 ,1.4786 ,0.90919 ,5.37381 ,52.72778 
7 ,1.7028 ,0.91142 ,5.35327 ,52.52631 
8 ,1.9108 ,0.91360 ,5.29510 ,51.95548 
9 ,2.1030 ,0.91552 ,5.30878 ,52.08979 
10 ,2.3274 ,0.91755 ,5.28483 ,51.85474 
11 ,2.5516 ,0.91989 ,5.24034 ,51.41822 
12 ,2.7436 ,0.92193 ,5.24034 ,51.41822 
13 ,2.9359 ,0.92380 ,5.20954 ,51.11602 
14 ,3.1435 ,0.92581 ,5.19927 ,51.01528 
15 ,3.3679 ,0.92808 ,5.14794 ,50.51161 
16 ,3.5920 ,0.93027 ,5.13425 ,50.37729 
17 ,3.8001 ,0.93237 ,5.13083 ,50.34372 
18 ,4.0242 ,0.93463 ,5.10345 ,50.07509 
19 ,4.2479 ,0.93683 ,5.06923 ,49.73931 
20 ,4.4563 ,0.93903 ,5.06581 ,49.70573 
21 ,4.6805 ,0.94114 ,5.04870 ,49.53784 
22 ,4.8884 ,0.94323 ,5.00421 ,49.10132 
23 ,5.0964 ,0.94537 ,5.00079 ,49.06774 
24 ,5.3049 ,0.94740 ,4.98710 ,48.93343 
25 ,5.5284 ,0.94964 ,4.95288 ,48.59764 
26 ,5.7685 ,0.95194 ,4.92892 ,48.36260 
27 ,5.9449 ,0.95401 ,4.91866 ,48.26186 
28 ,6.1366 ,0.95589 ,4.88101 ,47.89250 
29 ,6.3452 ,0.95780 ,4.87759 ,47.85892 
30 ,6.5532 ,0.96002 ,4.83652 ,47.45598 
31 ,6.7451 ,0.96184 ,4.83995 ,47.48956 
32 ,6.9374 ,0.96381 ,4.82284 ,47.32167 
33 ,7.1614 ,0.96604 ,4.80573 ,47.15378 
34 ,7.3536 ,0.96796 ,4.76808 ,46.78442 
35 ,7.5773 ,0.97013 ,4.76466 ,46.75084 
36 ,7.7855 ,0.97220 ,4.73044 ,46.41506 
37 ,7.9939 ,0.97432 ,4.71675 ,46.28074 
38 ,8.2179 ,0.97650 ,4.69622 ,46.07927 
39 ,8.4257 ,0.97862 ,4.66884 ,45.81065 
40 ,8.6339 ,0.98066 ,4.64488 ,45.57560 
41 ,8.8419 ,0.98279 ,4.62093 ,45.34055 
42 ,9.0502 ,0.98486 ,4.61066 ,45.23981 
43 ,9.2584 ,0.98695 ,4.60382 ,45.17266 
44 ,9.4663 ,0.98894 ,4.57986 ,44.93761 
45 ,9.6745 ,0.99108 ,4.55591 ,44.70256 
46 ,9.8821 ,0.99316 ,4.54906 ,44.63541 
47 ,10.0748 ,0.99512 ,4.51142 ,44.26604 
48 ,10.2828 ,0.99717 ,4.51484 ,44.29962 
49 ,10.4908 ,0.99923 ,4.47378 ,43.89668 
50 ,10.6829 ,1.00125 ,4.49089 ,44.06457 
51 ,10.8906 ,1.00325 ,4.43613 ,43.52732 
52 ,11.1151 ,1.00555 ,4.42586 ,43.42659 
53 ,11.3392 ,1.00780 ,4.41218 ,43.29227 
54 ,11.5470 ,1.00981 ,4.38822 ,43.05723 
55 ,11.7714 ,1.01201 ,4.34373 ,42.62071 
56 ,11.9793 ,1.01409 ,4.35400 ,42.72144 
57 ,12.2196 ,1.01647 ,4.33689 ,42.55355 
58 ,14.3000 ,1.03635 ,4.15209 ,40.74032 
59 ,14.5085 ,1.03946 ,4.11787 ,40.40454 
60 ,14.7167 ,1.04145 ,4.10760 ,40.30380 
61 ,14.9407 ,1.04378 ,4.08023 ,40.03518 
62 ,15.1489 ,1.04587 ,4.04600 ,39.69940 
63 ,15.3725 ,1.04804 ,4.02205 ,39.46435 
64 ,15.5809 ,1.05021 ,4.01863 ,39.43077 
65 ,15.8052 ,1.05237 ,3.99809 ,39.22930 
66 ,16.0133 ,1.05447 ,3.96729 ,38.92709 
67 ,16.2373 ,1.05673 ,3.96045 ,38.85994 
68 ,16.4614 ,1.05893 ,3.95018 ,38.75920 
69 ,16.7014 ,1.06126 ,3.90912 ,38.35626 
70 ,16.9252 ,1.06352 ,3.89885 ,38.25553 
71 ,17.1175 ,1.06553 ,3.87147 ,37.98690 
72 ,17.3731 ,1.06789 ,3.83725 ,37.65112 
73 ,17.5812 ,1.07018 ,3.84067 ,37.68470 
74 ,17.8054 ,1.07243 ,3.82014 ,37.48323 
75 ,18.0296 ,1.07464 ,3.78934 ,37.18102 
76 ,18.2861 ,1.07722 ,3.77908 ,37.08029 
77 ,18.5097 ,1.07944 ,3.74143 ,36.71093 
78 ,18.7178 ,1.08146 ,3.72432 ,36.54303 
79 ,18.9423 ,1.08377 ,3.72774 ,36.57661 
80 ,19.1663 ,1.08598 ,3.69010 ,36.20725 
81 ,19.3905 ,1.08811 ,3.66614 ,35.97220 
82 ,19.6146 ,1.09049 ,3.64903 ,35.80431 
83 ,19.8383 ,1.09272 ,3.64561 ,35.77073 
84 ,20.0466 ,1.09487 ,3.61481 ,35.46853 
85 ,20.2545 ,1.09688 ,3.58401 ,35.16632 
86 ,20.4626 ,1.09892 ,3.57717 ,35.09917 
87 ,20.6706 ,1.10101 ,3.53952 ,34.72981 
88 ,20.8627 ,1.10308 ,3.54979 ,34.83054 
89 ,21.0710 ,1.10508 ,3.52241 ,34.56192 
90 ,21.2472 ,1.10694 ,3.52584 ,34.59549 
91 ,21.4554 ,1.10892 ,3.48819 ,34.22613 
92 ,21.6634 ,1.11099 ,3.48819 ,34.22613 
93 ,21.8876 ,1.11319 ,3.45055 ,33.85677 
94 ,22.0953 ,1.11526 ,3.44028 ,33.75604 
95 ,22.3040 ,1.11735 ,3.42317 ,33.58814 
96 ,22.5440 ,1.11959 ,3.39237 ,33.28594 
97 ,22.7679 ,1.12195 ,3.36842 ,33.05089 
98 ,22.9600 ,1.12394 ,3.37184 ,33.08447 
99 ,23.1680 ,1.12609 ,3.33077 ,32.68153 
100 ,23.3923 ,1.12829 ,3.31708 ,32.54722 
101 ,23.6000 ,1.13036 ,3.31366 ,32.51364 
102 ,23.7925 ,1.13227 ,3.28286 ,32.21143 
103 ,24.0004 ,1.13436 ,3.29313 ,32.31217 
104 ,24.2087 ,1.13641 ,3.23837 ,31.77492 
105 ,24.4165 ,1.13847 ,3.22468 ,31.64060 
106 ,24.6086 ,1.14042 ,3.21100 ,31.50629 
107 ,24.8165 ,1.14251 ,3.19046 ,31.30482 
108 ,25.0566 ,1.14497 ,3.17677 ,31.17051 
109 ,25.2811 ,1.14711 ,3.16993 ,31.10335 
110 ,25.4891 ,1.14917 ,3.13229 ,30.73399 
111 ,25.6811 ,1.15115 ,3.14597 ,30.86830 
112 ,25.8733 ,1.15307 ,3.09464 ,30.36463 
113 ,26.0814 ,1.15510 ,3.10491 ,30.46536 
114 ,26.2895 ,1.15718 ,3.05358 ,29.96169 
115 ,26.5131 ,1.15940 ,3.05015 ,29.92811 
116 ,26.7056 ,1.16148 ,3.05015 ,29.92811 
117 ,26.9137 ,1.16341 ,3.00909 ,29.52517 
118 ,27.1058 ,1.16539 ,3.00909 ,29.52517 
119 ,27.3137 ,1.16743 ,2.98171 ,29.25654 
120 ,27.5060 ,1.16940 ,2.98855 ,29.32370 
121 ,27.7139 ,1.17138 ,2.94064 ,28.85360 
122 ,27.9063 ,1.17336 ,2.94749 ,28.92076 
123 ,28.1141 ,1.17540 ,2.92696 ,28.71929 
124 ,28.3383 ,1.17768 ,2.91327 ,28.58498 
125 ,28.5460 ,1.17972 ,2.88247 ,28.28277 
126 ,28.7380 ,1.18171 ,2.86878 ,28.14846 
127 ,28.9467 ,1.18374 ,2.85167 ,27.98057 
128 ,29.1703 ,1.18597 ,2.82429 ,27.71194 
129 ,29.3785 ,1.18808 ,2.82429 ,27.71194 
130 ,29.5868 ,1.19009 ,2.79349 ,27.40974 
131 ,29.7947 ,1.19231 ,2.76954 ,27.17469 
132 ,30.0187 ,1.19450 ,2.76611 ,27.14111 
133 ,30.2271 ,1.19657 ,2.74900 ,26.97322 
134 ,30.4350 ,1.19861 ,2.71820 ,26.67101 
135 ,30.6432 ,1.20081 ,2.70452 ,26.53670 
136 ,30.8352 ,1.20266 ,2.69425 ,26.43597 
137 ,31.0432 ,1.20474 ,2.69767 ,26.46954 
138 ,31.2353 ,1.20667 ,2.64634 ,25.96587 
139 ,31.4594 ,1.20887 ,2.66003 ,26.10018 
140 ,31.6676 ,1.21089 ,2.62581 ,25.76440 
141 ,31.8918 ,1.21321 ,2.59843 ,25.49577 
142 ,32.0994 ,1.21531 ,2.60527 ,25.56293 
143 ,32.2760 ,1.21719 ,2.57105 ,25.22715 
144 ,32.4840 ,1.21916 ,2.57447 ,25.26073 
145 ,32.6761 ,1.22108 ,2.54025 ,24.92494 
146 ,32.8843 ,1.22311 ,2.53341 ,24.85779 
147 ,33.1082 ,1.22532 ,2.50945 ,24.62274 
148 ,33.3160 ,1.22747 ,2.50603 ,24.58916 
149 ,33.5244 ,1.22954 ,2.48550 ,24.38769 
150 ,33.7486 ,1.23174 ,2.46839 ,24.21980 
151 ,33.9726 ,1.23398 ,2.44101 ,23.95117 
152 ,34.1967 ,1.23617 ,2.42048 ,23.74970 
153 ,34.4208 ,1.23850 ,2.40336 ,23.58181 
154 ,34.6290 ,1.24058 ,2.39310 ,23.48108 
155 ,34.8370 ,1.24261 ,2.37256 ,23.27961 
156 ,35.0292 ,1.24458 ,2.35888 ,23.14529 
157 ,35.2532 ,1.24676 ,2.32123 ,22.77593 
158 ,35.4452 ,1.24875 ,2.34519 ,23.01098 
159 ,35.6372 ,1.25066 ,2.31097 ,22.67520 
160 ,35.8612 ,1.25290 ,2.30070 ,22.57446 
161 ,36.0535 ,1.25493 ,2.26990 ,22.27226 
162 ,36.2455 ,1.25673 ,2.26990 ,22.27226 
163 ,36.4533 ,1.25880 ,2.23568 ,21.93647 
164 ,36.6617 ,1.26090 ,2.23910 ,21.97005 
165 ,36.8855 ,1.26306 ,2.21515 ,21.73500 
166 ,37.0940 ,1.26522 ,2.18777 ,21.46638 
167 ,37.3022 ,1.26729 ,2.18777 ,21.46638 
168 ,37.5102 ,1.26937 ,2.16381 ,21.23133 
169 ,37.7342 ,1.27148 ,2.16039 ,21.19775 
170 ,37.9583 ,1.27379 ,2.12617 ,20.86197 
171 ,38.1663 ,1.27592 ,2.11248 ,20.72766 
172 ,38.3905 ,1.27815 ,2.07484 ,20.35829 
173 ,38.5823 ,1.28014 ,2.09195 ,20.52619 
174 ,38.7907 ,1.28208 ,2.05088 ,20.12325 
175 ,38.9827 ,1.28411 ,2.05430 ,20.15682 
176 ,39.1910 ,1.28613 ,2.02008 ,19.82104 
177 ,39.3992 ,1.28830 ,2.00639 ,19.68673 
178 ,39.6068 ,1.29026 ,2.00639 ,19.68673 
179 ,39.8148 ,1.29239 ,1.97217 ,19.35094 
180 ,40.0233 ,1.29450 ,1.97559 ,19.38452 
181 ,40.2473 ,1.29669 ,1.95506 ,19.18305 
182 ,40.4394 ,1.29864 ,1.93453 ,18.98158 
183 ,40.6314 ,1.30065 ,1.92426 ,18.88085 
184 ,40.8232 ,1.30250 ,1.91399 ,18.78011 
185 ,41.0317 ,1.30460 ,1.87635 ,18.41075 
186 ,41.2397 ,1.30667 ,1.86951 ,18.34360 
187 ,41.4478 ,1.30874 ,1.85582 ,18.20928 
188 ,41.6239 ,1.31063 ,1.83186 ,17.97423 
189 ,41.8159 ,1.31250 ,1.81475 ,17.80634 
190 ,41.9917 ,1.31429 ,1.80791 ,17.73919 
191 ,42.2004 ,1.31626 ,1.80106 ,17.67203 
192 ,42.4239 ,1.31845 ,1.78737 ,17.53772 
193 ,42.6324 ,1.32052 ,1.76342 ,17.30267 
194 ,42.8406 ,1.32264 ,1.76000 ,17.26909 
195 ,43.0324 ,1.32471 ,1.74631 ,17.13478 
196 ,43.2405 ,1.32664 ,1.73946 ,17.06762 
197 ,43.4485 ,1.32866 ,1.70524 ,16.73184 
198 ,43.6407 ,1.33068 ,1.69155 ,16.59752 
199 ,43.8328 ,1.33270 ,1.67102 ,16.39605 
200 ,44.0409 ,1.33465 ,1.65733 ,16.26174 
201 ,44.2325 ,1.33668 ,1.65391 ,16.22816 
202 ,44.4411 ,1.33871 ,1.62995 ,15.99311 
203 ,44.6652 ,1.34088 ,1.62311 ,15.92596 
204 ,44.8732 ,1.34295 ,1.58889 ,15.59018 
205 ,45.0814 ,1.34506 ,1.58204 ,15.52302 
206 ,45.3053 ,1.34725 ,1.57178 ,15.42228 
207 ,45.5292 ,1.34954 ,1.54782 ,15.18724 
208 ,45.7691 ,1.35194 ,1.53756 ,15.08650 
209 ,45.9937 ,1.35403 ,1.50676 ,14.78430 
210 ,46.2176 ,1.35639 ,1.49307 ,14.64998 
211 ,46.4259 ,1.35850 ,1.50333 ,14.75072 
212 ,46.6499 ,1.36063 ,1.44858 ,14.21346 
213 ,46.8578 ,1.36281 ,1.44516 ,14.17989 
214 ,47.0823 ,1.36507 ,1.43831 ,14.11273 
215 ,47.3058 ,1.36727 ,1.42120 ,13.94484 
216 ,47.4984 ,1.36924 ,1.38356 ,13.57548 
217 ,47.7062 ,1.37122 ,1.39383 ,13.67621 
218 ,47.9145 ,1.37337 ,1.36303 ,13.37401 
219 ,48.1225 ,1.37545 ,1.35276 ,13.27327 
220 ,48.3467 ,1.37767 ,1.34934 ,13.23969 
221 ,48.5547 ,1.37975 ,1.30485 ,12.80318 
222 ,48.7624 ,1.38182 ,1.31854 ,12.93749 
223 ,48.9549 ,1.38380 ,1.28432 ,12.60171 
224 ,49.1790 ,1.38596 ,1.27747 ,12.53455 
225 ,49.4192 ,1.38826 ,1.27063 ,12.46739 
226 ,49.6112 ,1.39045 ,1.26036 ,12.36666 
227 ,49.8028 ,1.39229 ,1.23983 ,12.16519 
228 ,49.9954 ,1.39428 ,1.22614 ,12.03088 
229 ,50.2194 ,1.39638 ,1.21245 ,11.89656 
230 ,50.4275 ,1.39847 ,1.20903 ,11.86298 
231 ,50.6516 ,1.40068 ,1.17138 ,11.49362 
232 ,50.8597 ,1.40275 ,1.16112 ,11.39289 
233 ,51.0837 ,1.40507 ,1.16112 ,11.39289 
234 ,51.3077 ,1.40726 ,1.13716 ,11.15784 
235 ,51.5158 ,1.40933 ,1.10294 ,10.82206 
236 ,51.7243 ,1.41141 ,1.10636 ,10.85563 
237 ,51.9482 ,1.41373 ,1.09952 ,10.78848 
238 ,52.1561 ,1.41577 ,1.05845 ,10.38554 
239 ,52.3803 ,1.41801 ,1.04134 ,10.21765 
240 ,52.6045 ,1.42021 ,1.03792 ,10.18407 
241 ,52.7964 ,1.42222 ,1.01054 ,9.91544 
242 ,52.9885 ,1.42422 ,1.00712 ,9.88186 
243 ,53.1962 ,1.42616 ,0.99001 ,9.71397 
244 ,53.4048 ,1.42819 ,0.98317 ,9.64682 
245 ,53.6287 ,1.43047 ,0.96948 ,9.51250 
246 ,53.8529 ,1.43270 ,0.95237 ,9.34461 
247 ,54.0769 ,1.43493 ,0.92157 ,9.04241 
248 ,54.3007 ,1.43716 ,0.92157 ,9.04241 
249 ,54.5093 ,1.43925 ,0.90446 ,8.87451 
250 ,54.7173 ,1.44132 ,0.86339 ,8.47158 
251 ,54.9254 ,1.44348 ,0.87708 ,8.60589 
252 ,55.1334 ,1.44553 ,0.86339 ,8.47158 
253 ,55.3250 ,1.44762 ,0.84628 ,8.30368 
254 ,55.5494 ,1.44958 ,0.83259 ,8.16937 
255 ,55.7576 ,1.45180 ,0.81206 ,7.96790 
256 ,55.9817 ,1.45401 ,0.79837 ,7.83359 
257 ,56.1897 ,1.45604 ,0.80521 ,7.90074 
258 ,56.3982 ,1.45818 ,0.76415 ,7.49780 
259 ,56.6220 ,1.46041 ,0.75730 ,7.43065 
260 ,56.8302 ,1.46248 ,0.75730 ,7.43065 
261 ,57.0383 ,1.46452 ,0.71966 ,7.06129 
262 ,57.2624 ,1.46681 ,0.71281 ,6.99413 
263 ,57.4703 ,1.46884 ,0.71966 ,7.06129 
264 ,57.6783 ,1.47097 ,0.67175 ,6.59119 
265 ,57.8864 ,1.47304 ,0.67175 ,6.59119 
266 ,58.1108 ,1.47532 ,0.67517 ,6.62477 
267 ,58.3349 ,1.47751 ,0.63410 ,6.22183 
268 ,58.5589 ,1.47970 ,0.61699 ,6.05394 
269 ,58.7668 ,1.48180 ,0.62042 ,6.08752 
270 ,58.9592 ,1.48379 ,0.59988 ,5.88605 
271 ,59.1830 ,1.48599 ,0.58962 ,5.78531 
272 ,59.3752 ,1.48800 ,0.57251 ,5.61742 
273 ,59.5833 ,1.49004 ,0.54513 ,5.34879 
274 ,59.7750 ,1.49201 ,0.55197 ,5.41595 
275 ,59.9995 ,1.49414 ,0.52117 ,5.11375 
276 ,60.2235 ,1.49636 ,0.50406 ,4.94585 
277 ,60.4157 ,1.49835 ,0.50406 ,4.94585 
278 ,60.6396 ,1.50061 ,0.49037 ,4.81154 
279 ,60.8479 ,1.50267 ,0.49037 ,4.81154 
280 ,61.0559 ,1.50475 ,0.45957 ,4.50934 
281 ,61.2801 ,1.50698 ,0.43904 ,4.30787 
282 ,61.4882 ,1.50899 ,0.43904 ,4.30787 
283 ,61.6801 ,1.51112 ,0.42535 ,4.17355 
284 ,61.8884 ,1.51300 ,0.42193 ,4.13997 
285 ,62.0961 ,1.51513 ,0.38771 ,3.80419 
286 ,62.2884 ,1.51708 ,0.39113 ,3.83777 
287 ,62.5122 ,1.51928 ,0.37744 ,3.70346 
288 ,62.7046 ,1.52124 ,0.35006 ,3.43483 
289 ,62.9128 ,1.52323 ,0.35349 ,3.46841 
290 ,63.1204 ,1.52532 ,0.31584 ,3.09905 
291 ,63.3290 ,1.52749 ,0.31584 ,3.09905 
292 ,63.5370 ,1.52950 ,0.30558 ,2.99831 
293 ,63.7450 ,1.53167 ,0.29189 ,2.86400 
294 ,63.9529 ,1.53367 ,0.28162 ,2.76326 
295 ,64.1612 ,1.53577 ,0.26109 ,2.56179 
296 ,64.3852 ,1.53806 ,0.25424 ,2.49464 
297 ,64.5935 ,1.54013 ,0.25082 ,2.46106 
298 ,64.8014 ,1.54215 ,0.22344 ,2.19243 
299 ,65.0099 ,1.54428 ,0.21660 ,2.12528 
300 ,65.2015 ,1.54625 ,0.18922 ,1.85665 
301 ,65.4097 ,1.54819 ,0.18922 ,1.85665 
302 ,65.6017 ,1.55020 ,0.16527 ,1.62160 
303 ,65.8102 ,1.55225 ,0.16185 ,1.58802 
304 ,66.0180 ,1.55432 ,0.13789 ,1.35298 
305 ,66.2427 ,1.55660 ,0.12078 ,1.18508 
306 ,66.4499 ,1.55868 ,0.11736 ,1.15151 
307 ,66.6583 ,1.56069 ,0.10709 ,1.05077 
308 ,66.8825 ,1.56295 ,0.07971 ,0.78214 
309 ,67.1066 ,1.56509 ,0.08998 ,0.88288 
310 ,67.3307 ,1.56744 ,0.07971 ,0.78214 
311 ,67.5223 ,1.56948 ,0.05234 ,0.51352 
312 ,67.7308 ,1.57146 ,0.03522 ,0.34563 
313 ,67.9549 ,1.57365 ,0.02838 ,0.27847 
314 ,68.1631 ,1.57579 ,0.00785 ,0.07700 
315 ,68.3868 ,1.57798 ,-0.01611 ,-0.15805 
316 ,68.6110 ,1.58019 ,-0.01953 ,-0.19163 
317 ,68.8193 ,1.58235 ,-0.03664 ,-0.35952 
318 ,69.0433 ,1.58457 ,-0.05033 ,-0.49383 
319 ,69.2674 ,1.58677 ,-0.07428 ,-0.72888 
320 ,69.4434 ,1.58872 ,-0.05717 ,-0.56099 
321 ,69.6355 ,1.59054 ,-0.06744 ,-0.66172 
322 ,69.8112 ,1.59241 ,-0.11535 ,-1.13182 
323 ,70.0198 ,1.59429 ,-0.10508 ,-1.03108 
324 ,70.2276 ,1.59637 ,-0.11877 ,-1.16540 
325 ,70.4040 ,1.59831 ,-0.12562 ,-1.23255 
326 ,70.5959 ,1.60016 ,-0.13246 ,-1.29971 
327 ,70.8201 ,1.60229 ,-0.14957 ,-1.46760 
328 ,71.0602 ,1.60465 ,-0.18722 ,-1.83696 
329 ,71.2843 ,1.60697 ,-0.18722 ,-1.83696 
330 ,71.5085 ,1.60917 ,-0.20090 ,-1.97128 
331 ,71.7324 ,1.61143 ,-0.21459 ,-2.10559 
332 ,71.9562 ,1.61367 ,-0.20433 ,-2.00485 
333 ,72.1643 ,1.61577 ,-0.23513 ,-2.30706 
334 ,72.3885 ,1.61800 ,-0.25566 ,-2.50853 
335 ,72.5969 ,1.62006 ,-0.23855 ,-2.34064 
336 ,72.8051 ,1.62217 ,-0.27619 ,-2.71000 
337 ,73.0129 ,1.62424 ,-0.28304 ,-2.77716 
338 ,73.2208 ,1.62634 ,-0.30015 ,-2.94505 
339 ,73.4293 ,1.62838 ,-0.31384 ,-3.07936 
340 ,73.6527 ,1.63060 ,-0.31384 ,-3.07936 
341 ,73.8608 ,1.63274 ,-0.33095 ,-3.24725 
342 ,74.0691 ,1.63478 ,-0.36175 ,-3.54946 
343 ,74.3093 ,1.63717 ,-0.36517 ,-3.58303 
344 ,74.4851 ,1.63909 ,-0.35832 ,-3.51588 
345 ,74.6773 ,1.64095 ,-0.37201 ,-3.65019 
346 ,74.8859 ,1.64297 ,-0.40623 ,-3.98597 
347 ,75.1100 ,1.64517 ,-0.41308 ,-4.05313 
348 ,75.3336 ,1.64748 ,-0.40623 ,-3.98597 
349 ,75.5580 ,1.64965 ,-0.41650 ,-4.08671 
350 ,75.7821 ,1.65192 ,-0.44046 ,-4.32176 
351 ,75.9902 ,1.65398 ,-0.46441 ,-4.55681 
352 ,76.2143 ,1.65622 ,-0.46783 ,-4.59038 
353 ,76.4381 ,1.65842 ,-0.47126 ,-4.62396 
354 ,76.6622 ,1.66068 ,-0.50206 ,-4.92617 
355 ,76.8705 ,1.66278 ,-0.51232 ,-5.02690 
356 ,77.0788 ,1.66486 ,-0.50548 ,-4.95975 
357 ,77.3023 ,1.66712 ,-0.52943 ,-5.19479 
358 ,77.4945 ,1.66908 ,-0.52601 ,-5.16121 
359 ,77.7186 ,1.67116 ,-0.54312 ,-5.32911 
360 ,77.9267 ,1.67335 ,-0.56708 ,-5.56415 
361 ,78.1353 ,1.67545 ,-0.56023 ,-5.49700 
362 ,78.3595 ,1.67765 ,-0.56708 ,-5.56415 
363 ,78.5675 ,1.67976 ,-0.59788 ,-5.86636 
364 ,78.7912 ,1.68198 ,-0.61156 ,-6.00067 
365 ,79.0154 ,1.68421 ,-0.61156 ,-6.00067 
366 ,79.2237 ,1.68633 ,-0.63894 ,-6.26930 
367 ,79.4318 ,1.68839 ,-0.65605 ,-6.43719 
368 ,79.6558 ,1.69060 ,-0.63552 ,-6.23572 
369 ,79.8314 ,1.69257 ,-0.68001 ,-6.67224 
370 ,80.0240 ,1.69444 ,-0.66632 ,-6.53793 
371 ,80.2160 ,1.69632 ,-0.68685 ,-6.73940 
372 ,80.4242 ,1.69834 ,-0.69712 ,-6.84013 
373 ,80.6643 ,1.70078 ,-0.70739 ,-6.94086 
374 ,80.8879 ,1.70295 ,-0.74845 ,-7.34380 
375 ,81.0963 ,1.70509 ,-0.72450 ,-7.10876 
376 ,81.3204 ,1.70726 ,-0.73134 ,-7.17591 
377 ,81.5126 ,1.70925 ,-0.76556 ,-7.51170 
378 ,81.7205 ,1.71127 ,-0.75187 ,-7.37738 
379 ,81.9447 ,1.71353 ,-0.77241 ,-7.57885 
380 ,82.1527 ,1.71554 ,-0.78267 ,-7.67959 
381 ,82.3609 ,1.71766 ,-0.78952 ,-7.74674 
382 ,82.5530 ,1.71968 ,-0.81347 ,-7.98179 
383 ,82.7769 ,1.72183 ,-0.82032 ,-8.04895 
384 ,82.9848 ,1.72394 ,-0.82716 ,-8.11611 
385 ,83.1608 ,1.72583 ,-0.84769 ,-8.31758 
386 ,83.3694 ,1.72773 ,-0.86138 ,-8.45189 
387 ,83.5773 ,1.72980 ,-0.85454 ,-8.38473 
388 ,83.7855 ,1.73191 ,-0.87849 ,-8.61978 
389 ,83.9937 ,1.73403 ,-0.91272 ,-8.95556 
390 ,84.1856 ,1.73605 ,-0.89560 ,-8.78767 
391 ,84.3936 ,1.73809 ,-0.90587 ,-8.88841 
392 ,84.6020 ,1.74009 ,-0.90929 ,-8.92198 
393 ,84.8259 ,1.74232 ,-0.93667 ,-9.19061 
394 ,85.0341 ,1.74446 ,-0.93667 ,-9.19061 
395 ,85.2581 ,1.74659 ,-0.94351 ,-9.25777 
396 ,85.4662 ,1.74870 ,-0.97774 ,-9.59355 
397 ,85.6740 ,1.75077 ,-0.97774 ,-9.59355 
398 ,85.8823 ,1.75289 ,-0.99143 ,-9.72786 
399 ,86.0745 ,1.75496 ,-1.01196 ,-9.92933 
400 ,86.2825 ,1.75685 ,-0.99143 ,-9.72786 
401 ,86.4743 ,1.75883 ,-1.02565 ,-10.06365 
402 ,86.6828 ,1.76092 ,-1.02222 ,-10.03007 
403 ,86.9077 ,1.76310 ,-1.04276 ,-10.23154 
404 ,87.1310 ,1.76533 ,-1.06329 ,-10.43301 
405 ,87.3551 ,1.76756 ,-1.06671 ,-10.46659 
406 ,87.5788 ,1.76979 ,-1.05987 ,-10.39943 
407 ,87.7873 ,1.77192 ,-1.08725 ,-10.66806 
408 ,87.9952 ,1.77414 ,-1.10778 ,-10.86953 
409 ,88.2035 ,1.77612 ,-1.09751 ,-10.76879 
410 ,88.4117 ,1.77820 ,-1.13858 ,-11.17173 
411 ,88.6356 ,1.78043 ,-1.13173 ,-11.10457 
412 ,88.8436 ,1.78255 ,-1.13858 ,-11.17173 
413 ,89.0678 ,1.78469 ,-1.14884 ,-11.27247 
414 ,89.2919 ,1.78696 ,-1.16938 ,-11.47394 
415 ,89.4840 ,1.78902 ,-1.15227 ,-11.30604 
416 ,89.7076 ,1.79109 ,-1.17964 ,-11.57467 
417 ,89.8999 ,1.79311 ,-1.17622 ,-11.54109 
418 ,90.1082 ,1.79517 ,-1.19676 ,-11.74256 
419 ,90.2842 ,1.79704 ,-1.19676 ,-11.74256 
420 ,90.4763 ,1.79884 ,-1.22071 ,-11.97761 
421 ,90.7003 ,1.80106 ,-1.21729 ,-11.94403 
422 ,90.8921 ,1.80306 ,-1.24809 ,-12.24624 
423 ,91.1006 ,1.80508 ,-1.23098 ,-12.07834 
424 ,91.3408 ,1.80749 ,-1.24467 ,-12.21266 
425 ,91.5489 ,1.80953 ,-1.27889 ,-12.54844 
426 ,91.7729 ,1.81174 ,-1.28231 ,-12.58202 
427 ,91.9806 ,1.81394 ,-1.29600 ,-12.71633 
428 ,92.1730 ,1.81590 ,-1.30284 ,-12.78349 
429 ,92.3812 ,1.81785 ,-1.29600 ,-12.71633 
430 ,92.5892 ,1.81996 ,-1.32680 ,-13.01854 
431 ,92.7812 ,1.82194 ,-1.33022 ,-13.05212 
432 ,92.9894 ,1.82393 ,-1.35760 ,-13.32074 
433 ,93.1810 ,1.82595 ,-1.34049 ,-13.15285 
434 ,93.3575 ,1.82773 ,-1.36786 ,-13.42148 
435 ,93.5336 ,1.82954 ,-1.38840 ,-13.62295 
436 ,93.7417 ,1.83149 ,-1.35760 ,-13.32074 
437 ,93.9338 ,1.83342 ,-1.39524 ,-13.69010 
438 ,94.1257 ,1.83531 ,-1.38155 ,-13.55579 
439 ,94.3021 ,1.83721 ,-1.40209 ,-13.75726 
440 ,94.4941 ,1.83900 ,-1.41577 ,-13.89157 
441 ,94.7023 ,1.84104 ,-1.39866 ,-13.72368 
442 ,94.9104 ,1.84308 ,-1.44315 ,-14.16020 
443 ,95.1345 ,1.84537 ,-1.44657 ,-14.19378 
444 ,95.3420 ,1.84745 ,-1.43631 ,-14.09304 
445 ,95.5506 ,1.84949 ,-1.47395 ,-14.46240 
446 ,95.7587 ,1.85159 ,-1.46026 ,-14.32809 
447 ,95.9668 ,1.85371 ,-1.47053 ,-14.42883 
448 ,96.1748 ,1.85579 ,-1.49791 ,-14.69745 
449 ,96.3826 ,1.85783 ,-1.49448 ,-14.66387 
450 ,96.5911 ,1.85994 ,-1.50475 ,-14.76461 
451 ,96.8151 ,1.86214 ,-1.51844 ,-14.89892 
452 ,97.0233 ,1.86424 ,-1.51159 ,-14.83177 
453 ,97.2312 ,1.86631 ,-1.53897 ,-15.10039 
454 ,97.4395 ,1.86837 ,-1.54582 ,-15.16755 
455 ,97.6632 ,1.87061 ,-1.54582 ,-15.16755 
456 ,97.8876 ,1.87290 ,-1.57662 ,-15.46975 
457 ,98.0959 ,1.87497 ,-1.58346 ,-15.53691 
458 ,98.3039 ,1.87706 ,-1.56977 ,-15.40260 
459 ,98.5280 ,1.87926 ,-1.59715 ,-15.67122 
460 ,98.7358 ,1.88138 ,-1.61768 ,-15.87269 
