Data stamp = , 19-05-2022 13:24:51 046

Calibration Values: 
Slope = , 26.54 , g/V 
Offset Voltage at no contact = , -0.501760 , V 

No , Time , Stage Position ,   Mass , Force 
   ,  (s) ,      (mm)      ,   (g)  , (mN)  

1 ,0.0000 ,0.89960 ,5.29852 ,51.98905 
2 ,0.2057 ,0.89969 ,5.29167 ,51.92190 
3 ,0.8780 ,0.90259 ,5.32932 ,52.29126 
4 ,1.1341 ,0.90545 ,5.32589 ,52.25768 
5 ,1.3424 ,0.90769 ,5.31221 ,52.12337 
6 ,1.5343 ,0.90981 ,5.28141 ,51.82116 
7 ,1.7264 ,0.91174 ,5.28825 ,51.88832 
8 ,1.9505 ,0.91384 ,5.24376 ,51.45180 
9 ,2.1587 ,0.91591 ,5.23350 ,51.35107 
10 ,2.3506 ,0.91800 ,5.23692 ,51.38464 
11 ,2.5588 ,0.91992 ,5.19927 ,51.01528 
12 ,2.7508 ,0.92198 ,5.19243 ,50.94813 
13 ,2.9590 ,0.92394 ,5.15821 ,50.61234 
14 ,3.1670 ,0.92601 ,5.16163 ,50.64592 
15 ,3.3751 ,0.92813 ,5.10345 ,50.07509 
16 ,3.5832 ,0.93020 ,5.10345 ,50.07509 
17 ,3.7913 ,0.93230 ,5.06239 ,49.67215 
18 ,3.9993 ,0.93432 ,5.06239 ,49.67215 
19 ,4.2075 ,0.93652 ,5.04870 ,49.53784 
20 ,4.3994 ,0.93845 ,5.00763 ,49.13490 
21 ,4.6076 ,0.94040 ,5.00763 ,49.13490 
22 ,4.7997 ,0.94247 ,4.95630 ,48.63122 
23 ,5.0078 ,0.94441 ,4.96657 ,48.73196 
24 ,5.2158 ,0.94651 ,4.92892 ,48.36260 
25 ,5.4240 ,0.94852 ,4.91523 ,48.22828 
26 ,5.6485 ,0.95084 ,4.90497 ,48.12755 
27 ,5.8563 ,0.95299 ,4.86048 ,47.69103 
28 ,6.0647 ,0.95495 ,4.86048 ,47.69103 
29 ,6.2888 ,0.95724 ,4.82284 ,47.32167 
30 ,6.4807 ,0.95914 ,4.80230 ,47.12020 
31 ,6.6890 ,0.96121 ,4.79888 ,47.08662 
32 ,6.8970 ,0.96327 ,4.76808 ,46.78442 
33 ,7.1052 ,0.96538 ,4.76124 ,46.71726 
34 ,7.3289 ,0.96763 ,4.74413 ,46.54937 
35 ,7.5371 ,0.96973 ,4.70990 ,46.21359 
36 ,7.7613 ,0.97190 ,4.68937 ,46.01212 
37 ,7.9855 ,0.97419 ,4.67226 ,45.84422 
38 ,8.1934 ,0.97627 ,4.64488 ,45.57560 
39 ,8.4013 ,0.97833 ,4.61751 ,45.30697 
40 ,8.6259 ,0.98050 ,4.63119 ,45.44128 
41 ,8.8495 ,0.98279 ,4.59697 ,45.10550 
42 ,9.0576 ,0.98486 ,4.55591 ,44.70256 
43 ,9.2977 ,0.98730 ,4.54564 ,44.60183 
44 ,9.5059 ,0.98940 ,4.54906 ,44.63541 
45 ,9.7623 ,0.99182 ,4.50800 ,44.23247 
46 ,9.9864 ,0.99423 ,4.50115 ,44.16531 
47 ,10.1784 ,0.99620 ,4.47378 ,43.89668 
48 ,10.3864 ,0.99816 ,4.45324 ,43.69521 
49 ,10.5786 ,1.00017 ,4.43613 ,43.52732 
50 ,10.7866 ,1.00217 ,4.42586 ,43.42659 
51 ,10.9947 ,1.00431 ,4.39507 ,43.12438 
52 ,11.2029 ,1.00631 ,4.36769 ,42.85576 
53 ,11.4269 ,1.00854 ,4.35400 ,42.72144 
54 ,11.6351 ,1.01067 ,4.32662 ,42.45282 
55 ,11.8266 ,1.01268 ,4.29924 ,42.18419 
56 ,12.0350 ,1.01466 ,4.29240 ,42.11703 
57 ,12.2434 ,1.01669 ,4.27187 ,41.91556 
58 ,12.4674 ,1.01898 ,4.26502 ,41.84841 
59 ,12.6755 ,1.02111 ,4.24791 ,41.68051 
60 ,12.8990 ,1.02326 ,4.21369 ,41.34473 
61 ,13.1077 ,1.02539 ,4.20685 ,41.27758 
62 ,13.3317 ,1.02764 ,4.17947 ,41.00895 
63 ,13.5558 ,1.02975 ,4.14183 ,40.63959 
64 ,13.7799 ,1.03212 ,4.12814 ,40.50527 
65 ,14.0037 ,1.03434 ,4.11103 ,40.33738 
66 ,14.2122 ,1.03644 ,4.09734 ,40.20307 
67 ,14.4362 ,1.03864 ,4.08707 ,40.10233 
68 ,14.6602 ,1.04087 ,4.03916 ,39.63224 
69 ,14.8685 ,1.04297 ,4.04943 ,39.73297 
70 ,15.0923 ,1.04526 ,4.02547 ,39.49793 
71 ,15.3167 ,1.04749 ,4.00152 ,39.26288 
72 ,15.5407 ,1.04966 ,3.97756 ,39.02783 
73 ,15.7488 ,1.05179 ,3.94676 ,38.72562 
74 ,15.9729 ,1.05402 ,3.95703 ,38.82636 
75 ,16.1810 ,1.05610 ,3.90227 ,38.28911 
76 ,16.4212 ,1.05848 ,3.88858 ,38.15479 
77 ,16.6452 ,1.06071 ,3.86463 ,37.91975 
78 ,16.8534 ,1.06282 ,3.86805 ,37.95332 
79 ,17.0771 ,1.06509 ,3.84410 ,37.71828 
80 ,17.2855 ,1.06715 ,3.82356 ,37.51681 
81 ,17.4935 ,1.06931 ,3.81330 ,37.41607 
82 ,17.7336 ,1.07158 ,3.78934 ,37.18102 
83 ,17.9416 ,1.07368 ,3.76196 ,36.91240 
84 ,18.1496 ,1.07579 ,3.73459 ,36.64377 
85 ,18.3740 ,1.07801 ,3.72774 ,36.57661 
86 ,18.5820 ,1.08008 ,3.70037 ,36.30799 
87 ,18.8059 ,1.08234 ,3.67641 ,36.07294 
88 ,19.0143 ,1.08447 ,3.67299 ,36.03936 
89 ,19.2218 ,1.08656 ,3.64561 ,35.77073 
90 ,19.4467 ,1.08862 ,3.62166 ,35.53569 
91 ,19.6865 ,1.09102 ,3.60454 ,35.36779 
92 ,19.9262 ,1.09358 ,3.57717 ,35.09917 
93 ,20.1348 ,1.09564 ,3.57717 ,35.09917 
94 ,20.3428 ,1.09779 ,3.56690 ,34.99843 
95 ,20.5508 ,1.09978 ,3.52584 ,34.59549 
96 ,20.7749 ,1.10197 ,3.52584 ,34.59549 
97 ,20.9832 ,1.10411 ,3.49161 ,34.25971 
98 ,21.1911 ,1.10617 ,3.47108 ,34.05824 
99 ,21.4150 ,1.10846 ,3.46424 ,33.99108 
100 ,21.6234 ,1.11044 ,3.45055 ,33.85677 
101 ,21.8474 ,1.11267 ,3.39579 ,33.31952 
102 ,22.0395 ,1.11468 ,3.41975 ,33.55457 
103 ,22.2479 ,1.11672 ,3.37184 ,33.08447 
104 ,22.4555 ,1.11888 ,3.35130 ,32.88300 
105 ,22.6479 ,1.12077 ,3.34788 ,32.84942 
106 ,22.8553 ,1.12294 ,3.32735 ,32.64795 
107 ,23.0641 ,1.12493 ,3.31024 ,32.48006 
108 ,23.2883 ,1.12713 ,3.29655 ,32.34575 
109 ,23.4962 ,1.12924 ,3.29313 ,32.31217 
110 ,23.7202 ,1.13143 ,3.26575 ,32.04354 
111 ,23.8963 ,1.13338 ,3.24522 ,31.84207 
112 ,24.0884 ,1.13522 ,3.22811 ,31.67418 
113 ,24.2966 ,1.13720 ,3.22811 ,31.67418 
114 ,24.5205 ,1.13944 ,3.20415 ,31.43913 
115 ,24.7128 ,1.14146 ,3.16309 ,31.03619 
116 ,24.9529 ,1.14364 ,3.16651 ,31.06977 
117 ,25.1284 ,1.14570 ,3.13571 ,30.76757 
118 ,25.3369 ,1.14762 ,3.13229 ,30.73399 
119 ,25.5451 ,1.14968 ,3.11175 ,30.53252 
120 ,25.7852 ,1.15198 ,3.07753 ,30.19674 
121 ,25.9933 ,1.15415 ,3.06042 ,30.02884 
122 ,26.2009 ,1.15622 ,3.08095 ,30.23031 
123 ,26.4092 ,1.15835 ,3.03647 ,29.79380 
124 ,26.6337 ,1.16056 ,3.00567 ,29.49159 
125 ,26.8578 ,1.16281 ,2.99882 ,29.42444 
126 ,27.0497 ,1.16486 ,2.99882 ,29.42444 
127 ,27.2579 ,1.16682 ,2.96802 ,29.12223 
128 ,27.4659 ,1.16893 ,2.94064 ,28.85360 
129 ,27.6740 ,1.17099 ,2.90300 ,28.48424 
130 ,27.8820 ,1.17308 ,2.92353 ,28.68571 
131 ,28.0901 ,1.17517 ,2.87905 ,28.24919 
132 ,28.2983 ,1.17721 ,2.87220 ,28.18204 
133 ,28.5063 ,1.17928 ,2.86536 ,28.11488 
134 ,28.7145 ,1.18142 ,2.82771 ,27.74552 
135 ,28.9226 ,1.18346 ,2.84140 ,27.87983 
136 ,29.1307 ,1.18553 ,2.81060 ,27.57763 
137 ,29.3548 ,1.18778 ,2.77638 ,27.24185 
138 ,29.5787 ,1.18996 ,2.75927 ,27.07395 
139 ,29.7869 ,1.19209 ,2.75585 ,27.04038 
140 ,29.9950 ,1.19423 ,2.72847 ,26.77175 
141 ,30.1869 ,1.19616 ,2.73531 ,26.83891 
142 ,30.3792 ,1.19807 ,2.69083 ,26.40239 
143 ,30.5869 ,1.20011 ,2.69767 ,26.46954 
144 ,30.8114 ,1.20232 ,2.67029 ,26.20092 
145 ,31.0195 ,1.20452 ,2.63265 ,25.83156 
146 ,31.2437 ,1.20665 ,2.63949 ,25.89871 
147 ,31.4677 ,1.20891 ,2.62581 ,25.76440 
148 ,31.7073 ,1.21132 ,2.60185 ,25.52935 
149 ,31.9159 ,1.21343 ,2.55394 ,25.05926 
150 ,32.1399 ,1.21562 ,2.55394 ,25.05926 
151 ,32.3480 ,1.21776 ,2.55736 ,25.09283 
152 ,32.5562 ,1.21973 ,2.51972 ,24.72347 
153 ,32.7963 ,1.22212 ,2.50945 ,24.62274 
154 ,33.0365 ,1.22448 ,2.48207 ,24.35411 
155 ,33.2284 ,1.22671 ,2.47181 ,24.25338 
156 ,33.4523 ,1.22873 ,2.45470 ,24.08549 
157 ,33.6604 ,1.23079 ,2.42390 ,23.78328 
158 ,33.8685 ,1.23287 ,2.43759 ,23.91759 
159 ,34.0768 ,1.23503 ,2.38283 ,23.38034 
160 ,34.2849 ,1.23710 ,2.38968 ,23.44750 
161 ,34.4930 ,1.23916 ,2.38283 ,23.38034 
162 ,34.7010 ,1.24118 ,2.34519 ,23.01098 
163 ,34.9093 ,1.24331 ,2.35203 ,23.07814 
164 ,35.1172 ,1.24539 ,2.31439 ,22.70877 
165 ,35.3252 ,1.24752 ,2.30412 ,22.60804 
166 ,35.5173 ,1.24949 ,2.29043 ,22.47373 
167 ,35.7255 ,1.25141 ,2.27332 ,22.30584 
168 ,35.9336 ,1.25356 ,2.25621 ,22.13794 
169 ,36.1413 ,1.25564 ,2.22199 ,21.80216 
170 ,36.3495 ,1.25777 ,2.22883 ,21.86932 
171 ,36.5739 ,1.25991 ,2.21515 ,21.73500 
172 ,36.7822 ,1.26205 ,2.17066 ,21.29849 
173 ,37.0057 ,1.26424 ,2.17750 ,21.36564 
174 ,37.2148 ,1.26631 ,2.16039 ,21.19775 
175 ,37.4543 ,1.26863 ,2.13301 ,20.92912 
176 ,37.6783 ,1.27100 ,2.11932 ,20.79481 
177 ,37.8864 ,1.27313 ,2.10906 ,20.69408 
178 ,38.1105 ,1.27532 ,2.08510 ,20.45903 
179 ,38.3344 ,1.27756 ,2.07484 ,20.35829 
180 ,38.5427 ,1.27978 ,2.03377 ,19.95535 
181 ,38.7506 ,1.28170 ,2.04746 ,20.08967 
182 ,38.9584 ,1.28377 ,2.02350 ,19.85462 
183 ,39.1831 ,1.28591 ,2.00297 ,19.65315 
184 ,39.4071 ,1.28826 ,1.96875 ,19.31737 
185 ,39.6150 ,1.29040 ,1.97559 ,19.38452 
186 ,39.8390 ,1.29255 ,1.94137 ,19.04874 
187 ,40.0633 ,1.29483 ,1.90715 ,18.71296 
188 ,40.3035 ,1.29711 ,1.90715 ,18.71296 
189 ,40.5116 ,1.29934 ,1.90031 ,18.64580 
190 ,40.7354 ,1.30160 ,1.87977 ,18.44433 
191 ,40.9594 ,1.30374 ,1.86608 ,18.31002 
192 ,41.1514 ,1.30580 ,1.83528 ,18.00781 
193 ,41.3441 ,1.30772 ,1.83871 ,18.04139 
194 ,41.5520 ,1.30980 ,1.81475 ,17.80634 
195 ,41.7600 ,1.31183 ,1.81817 ,17.83992 
196 ,41.9679 ,1.31383 ,1.79080 ,17.57129 
197 ,42.1599 ,1.31593 ,1.78737 ,17.53772 
198 ,42.3523 ,1.31778 ,1.74289 ,17.10120 
199 ,42.5925 ,1.32006 ,1.76342 ,17.30267 
200 ,42.8161 ,1.32241 ,1.73946 ,17.06762 
201 ,43.0248 ,1.32447 ,1.69840 ,16.66468 
202 ,43.2487 ,1.32664 ,1.67786 ,16.46321 
203 ,43.4569 ,1.32875 ,1.68813 ,16.56395 
204 ,43.6808 ,1.33098 ,1.66418 ,16.32890 
205 ,43.8886 ,1.33302 ,1.62995 ,15.99311 
206 ,44.0969 ,1.33524 ,1.63680 ,16.06027 
207 ,44.3212 ,1.33742 ,1.60600 ,15.75807 
208 ,44.5455 ,1.33955 ,1.57520 ,15.45586 
209 ,44.7533 ,1.34167 ,1.57520 ,15.45586 
210 ,44.9614 ,1.34379 ,1.56493 ,15.35513 
211 ,45.2016 ,1.34615 ,1.53756 ,15.08650 
212 ,45.4258 ,1.34844 ,1.52045 ,14.91861 
213 ,45.6335 ,1.35051 ,1.51702 ,14.88503 
214 ,45.8419 ,1.35260 ,1.49991 ,14.71714 
215 ,46.0499 ,1.35477 ,1.47596 ,14.48209 
216 ,46.2580 ,1.35668 ,1.46911 ,14.41493 
217 ,46.4662 ,1.35889 ,1.44174 ,14.14631 
218 ,46.6900 ,1.36105 ,1.42120 ,13.94484 
219 ,46.8983 ,1.36312 ,1.42462 ,13.97842 
220 ,47.1064 ,1.36521 ,1.40409 ,13.77695 
221 ,47.3145 ,1.36730 ,1.37671 ,13.50832 
222 ,47.5065 ,1.36934 ,1.36987 ,13.44116 
223 ,47.7145 ,1.37133 ,1.35618 ,13.30685 
224 ,47.9386 ,1.37351 ,1.36303 ,13.37401 
225 ,48.1468 ,1.37564 ,1.31512 ,12.90391 
226 ,48.3545 ,1.37768 ,1.30485 ,12.80318 
227 ,48.5631 ,1.37975 ,1.31512 ,12.90391 
228 ,48.7708 ,1.38185 ,1.26378 ,12.40024 
229 ,48.9791 ,1.38404 ,1.26720 ,12.43381 
230 ,49.1873 ,1.38606 ,1.24667 ,12.23235 
231 ,49.4110 ,1.38825 ,1.22272 ,11.99730 
232 ,49.6192 ,1.39041 ,1.23298 ,12.09803 
233 ,49.8436 ,1.39258 ,1.21587 ,11.93014 
234 ,50.0516 ,1.39463 ,1.17823 ,11.56078 
235 ,50.2596 ,1.39678 ,1.18507 ,11.62794 
236 ,50.4679 ,1.39885 ,1.16796 ,11.46004 
237 ,50.6918 ,1.40112 ,1.13374 ,11.12426 
238 ,50.9161 ,1.40328 ,1.13032 ,11.09068 
239 ,51.1241 ,1.40546 ,1.13032 ,11.09068 
240 ,51.3480 ,1.40763 ,1.09952 ,10.78848 
241 ,51.5722 ,1.40981 ,1.06187 ,10.41912 
242 ,51.8121 ,1.41217 ,1.06872 ,10.48627 
243 ,52.0365 ,1.41453 ,1.04134 ,10.21765 
244 ,52.2285 ,1.41660 ,1.04134 ,10.21765 
245 ,52.4206 ,1.41835 ,1.02423 ,10.04976 
246 ,52.6282 ,1.42040 ,0.99685 ,9.78113 
247 ,52.8522 ,1.42260 ,0.97632 ,9.57966 
248 ,53.0768 ,1.42491 ,0.96263 ,9.44535 
249 ,53.3329 ,1.42747 ,0.93868 ,9.21030 
250 ,53.5411 ,1.42957 ,0.95579 ,9.37819 
251 ,53.7809 ,1.43195 ,0.94552 ,9.27745 
252 ,54.0052 ,1.43421 ,0.92157 ,9.04241 
253 ,54.2134 ,1.43623 ,0.88050 ,8.63947 
254 ,54.4214 ,1.43836 ,0.89761 ,8.80736 
255 ,54.6457 ,1.44058 ,0.88392 ,8.67305 
256 ,54.8695 ,1.44283 ,0.86681 ,8.50515 
257 ,55.0936 ,1.44515 ,0.82917 ,8.13579 
258 ,55.3179 ,1.44731 ,0.81548 ,8.00148 
259 ,55.5257 ,1.44936 ,0.81890 ,8.03506 
260 ,55.7498 ,1.45161 ,0.80179 ,7.86717 
261 ,55.9581 ,1.45368 ,0.77441 ,7.59854 
262 ,56.1820 ,1.45600 ,0.77099 ,7.56496 
263 ,56.4062 ,1.45820 ,0.75730 ,7.43065 
264 ,56.6301 ,1.46043 ,0.73677 ,7.22918 
265 ,56.8382 ,1.46250 ,0.70597 ,6.92697 
266 ,57.0465 ,1.46463 ,0.71966 ,7.06129 
267 ,57.2545 ,1.46667 ,0.68201 ,6.69193 
268 ,57.4626 ,1.46868 ,0.67517 ,6.62477 
269 ,57.6707 ,1.47083 ,0.68201 ,6.69193 
270 ,57.8948 ,1.47304 ,0.64779 ,6.35614 
271 ,58.1029 ,1.47512 ,0.63410 ,6.22183 
272 ,58.2946 ,1.47719 ,0.62384 ,6.12109 
273 ,58.5029 ,1.47910 ,0.60330 ,5.91962 
274 ,58.7112 ,1.48123 ,0.60330 ,5.91962 
275 ,58.9192 ,1.48334 ,0.58277 ,5.71815 
276 ,59.1274 ,1.48541 ,0.57935 ,5.68458 
277 ,59.3352 ,1.48758 ,0.56224 ,5.51668 
278 ,59.5433 ,1.48958 ,0.55197 ,5.41595 
279 ,59.7517 ,1.49165 ,0.54513 ,5.34879 
280 ,59.9759 ,1.49391 ,0.51433 ,5.04659 
281 ,60.1996 ,1.49606 ,0.48011 ,4.71081 
282 ,60.4079 ,1.49818 ,0.48353 ,4.74438 
283 ,60.6320 ,1.50047 ,0.47326 ,4.64365 
284 ,60.8561 ,1.50267 ,0.44588 ,4.37502 
285 ,61.0484 ,1.50465 ,0.45273 ,4.44218 
286 ,61.2723 ,1.50679 ,0.44588 ,4.37502 
287 ,61.4961 ,1.50904 ,0.41166 ,4.03924 
288 ,61.7044 ,1.51119 ,0.41509 ,4.07282 
289 ,61.9285 ,1.51337 ,0.40140 ,3.93850 
290 ,62.1206 ,1.51536 ,0.37060 ,3.63630 
291 ,62.3445 ,1.51753 ,0.37060 ,3.63630 
292 ,62.5528 ,1.51962 ,0.36033 ,3.53557 
293 ,62.7609 ,1.52172 ,0.32611 ,3.19978 
294 ,62.9848 ,1.52401 ,0.31242 ,3.06547 
295 ,63.1931 ,1.52605 ,0.32269 ,3.16620 
296 ,63.4170 ,1.52825 ,0.29873 ,2.93116 
297 ,63.6252 ,1.53036 ,0.26451 ,2.59537 
298 ,63.8173 ,1.53239 ,0.27820 ,2.72969 
299 ,64.0255 ,1.53431 ,0.24398 ,2.39390 
300 ,64.2175 ,1.53640 ,0.25424 ,2.49464 
301 ,64.4094 ,1.53822 ,0.24398 ,2.39390 
302 ,64.6174 ,1.54026 ,0.22344 ,2.19243 
303 ,64.8414 ,1.54244 ,0.19949 ,1.95738 
304 ,65.0659 ,1.54475 ,0.17553 ,1.72234 
305 ,65.2740 ,1.54683 ,0.18580 ,1.82307 
306 ,65.4821 ,1.54892 ,0.14131 ,1.38655 
307 ,65.7059 ,1.55115 ,0.14816 ,1.45371 
308 ,65.9299 ,1.55340 ,0.14816 ,1.45371 
309 ,66.1383 ,1.55550 ,0.11393 ,1.11793 
310 ,66.3625 ,1.55770 ,0.10709 ,1.05077 
311 ,66.5546 ,1.55976 ,0.08998 ,0.88288 
312 ,66.7786 ,1.56192 ,0.08998 ,0.88288 
313 ,66.9868 ,1.56400 ,0.06260 ,0.61425 
314 ,67.2107 ,1.56622 ,0.07629 ,0.74857 
315 ,67.4189 ,1.56829 ,0.04891 ,0.47994 
316 ,67.6105 ,1.57024 ,0.01811 ,0.17773 
317 ,67.8191 ,1.57225 ,0.01811 ,0.17773 
318 ,68.0268 ,1.57435 ,0.00100 ,0.00984 
319 ,68.2188 ,1.57629 ,0.00443 ,0.04342 
320 ,68.4272 ,1.57834 ,-0.01953 ,-0.19163 
321 ,68.6513 ,1.58062 ,-0.01953 ,-0.19163 
322 ,68.8431 ,1.58260 ,-0.05033 ,-0.49383 
323 ,69.0191 ,1.58441 ,-0.04348 ,-0.42667 
324 ,69.2272 ,1.58632 ,-0.06402 ,-0.62814 
325 ,69.4676 ,1.58872 ,-0.04348 ,-0.42667 
326 ,69.6916 ,1.59105 ,-0.08797 ,-0.86319 
327 ,69.9159 ,1.59320 ,-0.10166 ,-0.99751 
328 ,70.1080 ,1.59516 ,-0.13246 ,-1.29971 
329 ,70.3320 ,1.59736 ,-0.12562 ,-1.23255 
330 ,70.5400 ,1.59951 ,-0.14273 ,-1.40045 
331 ,70.7483 ,1.60155 ,-0.17011 ,-1.66907 
332 ,70.9724 ,1.60381 ,-0.15642 ,-1.53476 
333 ,71.1804 ,1.60595 ,-0.16326 ,-1.60191 
334 ,71.3885 ,1.60798 ,-0.19064 ,-1.87054 
335 ,71.5965 ,1.61003 ,-0.19064 ,-1.87054 
336 ,71.8207 ,1.61225 ,-0.20775 ,-2.03843 
337 ,72.0289 ,1.61437 ,-0.23855 ,-2.34064 
338 ,72.2208 ,1.61643 ,-0.23513 ,-2.30706 
339 ,72.4451 ,1.61850 ,-0.25908 ,-2.54211 
340 ,72.6527 ,1.62060 ,-0.26250 ,-2.57569 
341 ,72.8610 ,1.62267 ,-0.26250 ,-2.57569 
342 ,73.0853 ,1.62491 ,-0.31384 ,-3.07936 
343 ,73.3093 ,1.62713 ,-0.31726 ,-3.11294 
344 ,73.5335 ,1.62929 ,-0.30357 ,-2.97863 
345 ,73.7411 ,1.63156 ,-0.31384 ,-3.07936 
346 ,73.9495 ,1.63357 ,-0.34121 ,-3.34799 
347 ,74.1577 ,1.63564 ,-0.33779 ,-3.31441 
348 ,74.3658 ,1.63770 ,-0.36517 ,-3.58303 
349 ,74.5737 ,1.63981 ,-0.38228 ,-3.75093 
350 ,74.7976 ,1.64202 ,-0.38570 ,-3.78450 
351 ,75.0220 ,1.64428 ,-0.38912 ,-3.81808 
352 ,75.2300 ,1.64640 ,-0.43019 ,-4.22102 
353 ,75.4383 ,1.64845 ,-0.41992 ,-4.12029 
354 ,75.6462 ,1.65051 ,-0.44388 ,-4.35534 
355 ,75.8384 ,1.65253 ,-0.45072 ,-4.42249 
356 ,76.0464 ,1.65447 ,-0.46441 ,-4.55681 
357 ,76.3026 ,1.65689 ,-0.48152 ,-4.72470 
358 ,76.5263 ,1.65930 ,-0.50206 ,-4.92617 
359 ,76.7349 ,1.66138 ,-0.50206 ,-4.92617 
360 ,76.9428 ,1.66351 ,-0.50548 ,-4.95975 
361 ,77.1669 ,1.66575 ,-0.52601 ,-5.16121 
362 ,77.3909 ,1.66798 ,-0.54997 ,-5.39626 
363 ,77.6151 ,1.67018 ,-0.53970 ,-5.29553 
364 ,77.8073 ,1.67214 ,-0.56365 ,-5.53058 
365 ,78.0153 ,1.67421 ,-0.57050 ,-5.59773 
366 ,78.2234 ,1.67629 ,-0.57050 ,-5.59773 
367 ,78.4153 ,1.67838 ,-0.60130 ,-5.89994 
368 ,78.6076 ,1.68023 ,-0.58419 ,-5.73205 
369 ,78.8156 ,1.68218 ,-0.61156 ,-6.00067 
370 ,79.0077 ,1.68418 ,-0.62525 ,-6.13499 
371 ,79.2313 ,1.68638 ,-0.63552 ,-6.23572 
372 ,79.4398 ,1.68845 ,-0.63210 ,-6.20214 
373 ,79.6640 ,1.69063 ,-0.65263 ,-6.40361 
374 ,79.8721 ,1.69273 ,-0.68001 ,-6.67224 
375 ,80.0802 ,1.69488 ,-0.67316 ,-6.60508 
376 ,80.2879 ,1.69693 ,-0.68685 ,-6.73940 
377 ,80.5123 ,1.69913 ,-0.72107 ,-7.07518 
378 ,80.7364 ,1.70141 ,-0.72450 ,-7.10876 
379 ,80.9443 ,1.70343 ,-0.72107 ,-7.07518 
380 ,81.1364 ,1.70552 ,-0.74161 ,-7.27665 
381 ,81.3448 ,1.70747 ,-0.73476 ,-7.20949 
382 ,81.5847 ,1.70990 ,-0.75187 ,-7.37738 
383 ,81.8090 ,1.71210 ,-0.77583 ,-7.61243 
384 ,82.0168 ,1.71420 ,-0.78267 ,-7.67959 
385 ,82.2411 ,1.71640 ,-0.77925 ,-7.64601 
386 ,82.4652 ,1.71865 ,-0.80663 ,-7.91464 
387 ,82.7051 ,1.72095 ,-0.83743 ,-8.21684 
388 ,82.9292 ,1.72330 ,-0.83058 ,-8.14968 
389 ,83.1373 ,1.72545 ,-0.86138 ,-8.45189 
390 ,83.3454 ,1.72752 ,-0.86138 ,-8.45189 
391 ,83.5533 ,1.72957 ,-0.87849 ,-8.61978 
392 ,83.7617 ,1.73162 ,-0.86481 ,-8.48547 
393 ,83.9858 ,1.73388 ,-0.87849 ,-8.61978 
394 ,84.1939 ,1.73595 ,-0.90587 ,-8.88841 
395 ,84.4176 ,1.73819 ,-0.91614 ,-8.98914 
396 ,84.6258 ,1.74025 ,-0.91614 ,-8.98914 
397 ,84.8341 ,1.74242 ,-0.93325 ,-9.15703 
398 ,85.0421 ,1.74445 ,-0.93325 ,-9.15703 
399 ,85.2663 ,1.74671 ,-0.94351 ,-9.25777 
400 ,85.4744 ,1.74880 ,-0.97089 ,-9.52639 
401 ,85.6824 ,1.75087 ,-0.98458 ,-9.66071 
402 ,85.8903 ,1.75292 ,-0.97089 ,-9.52639 
403 ,86.0987 ,1.75500 ,-1.00511 ,-9.86218 
404 ,86.3067 ,1.75705 ,-0.99827 ,-9.79502 
405 ,86.5307 ,1.75931 ,-1.00511 ,-9.86218 
406 ,86.7390 ,1.76141 ,-1.04618 ,-10.26512 
407 ,86.9626 ,1.76360 ,-1.04276 ,-10.23154 
408 ,87.1550 ,1.76567 ,-1.02907 ,-10.09723 
409 ,87.3471 ,1.76764 ,-1.07014 ,-10.50016 
410 ,87.5870 ,1.76990 ,-1.06329 ,-10.43301 
411 ,87.7792 ,1.77191 ,-1.07698 ,-10.56732 
412 ,87.9870 ,1.77386 ,-1.08725 ,-10.66806 
413 ,88.2115 ,1.77612 ,-1.09067 ,-10.70163 
414 ,88.4193 ,1.77822 ,-1.13516 ,-11.13815 
415 ,88.6438 ,1.78048 ,-1.12489 ,-11.03742 
416 ,88.8515 ,1.78253 ,-1.12147 ,-11.00384 
417 ,89.0759 ,1.78479 ,-1.13516 ,-11.13815 
418 ,89.2999 ,1.78698 ,-1.15569 ,-11.33962 
419 ,89.5241 ,1.78930 ,-1.16938 ,-11.47394 
420 ,89.7319 ,1.79132 ,-1.15569 ,-11.33962 
421 ,89.9398 ,1.79342 ,-1.19676 ,-11.74256 
422 ,90.1479 ,1.79545 ,-1.17280 ,-11.50751 
423 ,90.3563 ,1.79755 ,-1.22071 ,-11.97761 
424 ,90.5644 ,1.79967 ,-1.22071 ,-11.97761 
425 ,90.7884 ,1.80186 ,-1.22413 ,-12.01119 
426 ,90.9966 ,1.80396 ,-1.23098 ,-12.07834 
427 ,91.2046 ,1.80609 ,-1.25151 ,-12.27981 
428 ,91.4128 ,1.80811 ,-1.24467 ,-12.21266 
429 ,91.6367 ,1.81036 ,-1.25493 ,-12.31339 
430 ,91.8451 ,1.81244 ,-1.28573 ,-12.61560 
431 ,92.0851 ,1.81473 ,-1.28573 ,-12.61560 
432 ,92.2931 ,1.81690 ,-1.27547 ,-12.51486 
433 ,92.5012 ,1.81900 ,-1.31995 ,-12.95138 
434 ,92.7251 ,1.82123 ,-1.29942 ,-12.74991 
435 ,92.9335 ,1.82336 ,-1.31995 ,-12.95138 
436 ,93.1574 ,1.82547 ,-1.32338 ,-12.98496 
437 ,93.3656 ,1.82757 ,-1.35760 ,-13.32074 
438 ,93.5893 ,1.82979 ,-1.34391 ,-13.18643 
439 ,93.7978 ,1.83197 ,-1.36102 ,-13.35432 
440 ,93.9899 ,1.83400 ,-1.37813 ,-13.52221 
441 ,94.1979 ,1.83595 ,-1.37471 ,-13.48863 
442 ,94.4061 ,1.83799 ,-1.39524 ,-13.69010 
443 ,94.6139 ,1.84009 ,-1.39524 ,-13.69010 
444 ,94.8223 ,1.84222 ,-1.41920 ,-13.92515 
445 ,95.0464 ,1.84446 ,-1.45000 ,-14.22736 
446 ,95.2545 ,1.84648 ,-1.41920 ,-13.92515 
447 ,95.4782 ,1.84875 ,-1.43288 ,-14.05946 
448 ,95.6867 ,1.85086 ,-1.46711 ,-14.39525 
449 ,95.9105 ,1.85311 ,-1.45684 ,-14.29451 
450 ,96.1349 ,1.85532 ,-1.47053 ,-14.42883 
451 ,96.3429 ,1.85741 ,-1.48764 ,-14.59672 
452 ,96.5669 ,1.85962 ,-1.49791 ,-14.69745 
453 ,96.7750 ,1.86172 ,-1.49448 ,-14.66387 
454 ,96.9831 ,1.86388 ,-1.51502 ,-14.86534 
455 ,97.1753 ,1.86588 ,-1.51844 ,-14.89892 
456 ,97.3674 ,1.86765 ,-1.53213 ,-15.03324 
457 ,97.5756 ,1.86975 ,-1.52871 ,-14.99966 
458 ,97.7993 ,1.87194 ,-1.53897 ,-15.10039 
459 ,98.0072 ,1.87401 ,-1.55608 ,-15.26828 
460 ,98.2158 ,1.87611 ,-1.55950 ,-15.30186 
