Data stamp = , 18-05-2022 20:11:20 664

Calibration Values: 
Slope = , 26.54 , g/V 
Offset Voltage at no contact = , -0.501760 , V 

No , Time , Stage Position ,   Mass , Force 
   ,  (s) ,      (mm)      ,   (g)  , (mN)  

1 ,0.0000 ,0.89963 ,5.34985 ,52.49273 
2 ,0.2198 ,0.89973 ,5.37038 ,52.69420 
3 ,0.6365 ,0.90100 ,5.37723 ,52.76135 
4 ,0.8765 ,0.90313 ,5.37038 ,52.69420 
5 ,1.0845 ,0.90523 ,5.38065 ,52.79493 
6 ,1.3243 ,0.90743 ,5.35669 ,52.55988 
7 ,1.5328 ,0.90975 ,5.34301 ,52.42557 
8 ,1.7408 ,0.91177 ,5.34301 ,52.42557 
9 ,1.9487 ,0.91386 ,5.32589 ,52.25768 
10 ,2.1407 ,0.91578 ,5.28825 ,51.88832 
11 ,2.3650 ,0.91801 ,5.28483 ,51.85474 
12 ,2.5733 ,0.92007 ,5.24376 ,51.45180 
13 ,2.7811 ,0.92218 ,5.24034 ,51.41822 
14 ,2.9891 ,0.92418 ,5.21981 ,51.21675 
15 ,3.1971 ,0.92631 ,5.18901 ,50.91455 
16 ,3.4056 ,0.92838 ,5.16505 ,50.67950 
17 ,3.6137 ,0.93050 ,5.13425 ,50.37729 
18 ,3.8537 ,0.93281 ,5.11372 ,50.17583 
19 ,4.0939 ,0.93517 ,5.09319 ,49.97436 
20 ,4.3174 ,0.93750 ,5.06581 ,49.70573 
21 ,4.5260 ,0.93966 ,5.06923 ,49.73931 
22 ,4.7342 ,0.94167 ,5.02132 ,49.26921 
23 ,4.9419 ,0.94375 ,5.01790 ,49.23563 
24 ,5.1663 ,0.94600 ,5.00079 ,49.06774 
25 ,5.3740 ,0.94818 ,4.96315 ,48.69838 
26 ,5.5984 ,0.95031 ,4.95288 ,48.59764 
27 ,5.8223 ,0.95253 ,4.93577 ,48.42975 
28 ,6.0467 ,0.95473 ,4.90155 ,48.09397 
29 ,6.2706 ,0.95703 ,4.88786 ,47.95966 
30 ,6.4786 ,0.95912 ,4.86732 ,47.75819 
31 ,6.7028 ,0.96145 ,4.85364 ,47.62387 
32 ,6.9269 ,0.96365 ,4.82626 ,47.35525 
33 ,7.1349 ,0.96569 ,4.78519 ,46.95231 
34 ,7.3430 ,0.96776 ,4.79546 ,47.05304 
35 ,7.5513 ,0.96978 ,4.76124 ,46.71726 
36 ,7.7753 ,0.97210 ,4.74413 ,46.54937 
37 ,7.9833 ,0.97416 ,4.73386 ,46.44863 
38 ,8.1913 ,0.97621 ,4.69279 ,46.04569 
39 ,8.3996 ,0.97831 ,4.68253 ,45.94496 
40 ,8.6075 ,0.98038 ,4.66884 ,45.81065 
41 ,8.8317 ,0.98267 ,4.63119 ,45.44128 
42 ,9.0557 ,0.98490 ,4.60382 ,45.17266 
43 ,9.2798 ,0.98714 ,4.60724 ,45.20624 
44 ,9.4881 ,0.98921 ,4.58671 ,45.00477 
45 ,9.7122 ,0.99149 ,4.55591 ,44.70256 
46 ,9.9364 ,0.99366 ,4.52853 ,44.43394 
47 ,10.1601 ,0.99589 ,4.52853 ,44.43394 
48 ,10.3843 ,0.99812 ,4.50800 ,44.23247 
49 ,10.5923 ,1.00020 ,4.45666 ,43.72879 
50 ,10.8166 ,1.00236 ,4.46009 ,43.76237 
51 ,11.0244 ,1.00461 ,4.46351 ,43.79595 
52 ,11.2006 ,1.00649 ,4.38822 ,43.05723 
53 ,11.4087 ,1.00857 ,4.41218 ,43.29227 
54 ,11.6167 ,1.01055 ,4.36769 ,42.85576 
55 ,11.8407 ,1.01267 ,4.38138 ,42.99007 
56 ,12.0327 ,1.01471 ,4.33004 ,42.48639 
57 ,12.2572 ,1.01685 ,4.31293 ,42.31850 
58 ,12.4653 ,1.01899 ,4.31293 ,42.31850 
59 ,12.6730 ,1.02105 ,4.26845 ,41.88198 
60 ,12.8974 ,1.02315 ,4.27529 ,41.94914 
61 ,13.1056 ,1.02538 ,4.26160 ,41.81483 
62 ,13.3296 ,1.02766 ,4.22053 ,41.41189 
63 ,13.5377 ,1.02976 ,4.20000 ,41.21042 
64 ,13.7458 ,1.03185 ,4.18974 ,41.10968 
65 ,13.9540 ,1.03386 ,4.16236 ,40.84106 
66 ,14.1780 ,1.03612 ,4.13156 ,40.53885 
67 ,14.3861 ,1.03819 ,4.14525 ,40.67317 
68 ,14.5782 ,1.04014 ,4.10418 ,40.27023 
69 ,14.7863 ,1.04223 ,4.09734 ,40.20307 
70 ,15.0100 ,1.04440 ,4.06312 ,39.86729 
71 ,15.2185 ,1.04650 ,4.05285 ,39.76655 
72 ,15.4422 ,1.04873 ,4.04258 ,39.66582 
73 ,15.6507 ,1.05084 ,4.00836 ,39.33003 
74 ,15.8747 ,1.05304 ,3.98441 ,39.09499 
75 ,16.0989 ,1.05529 ,3.97072 ,38.96067 
76 ,16.3231 ,1.05754 ,3.95361 ,38.79278 
77 ,16.5466 ,1.05973 ,3.94676 ,38.72562 
78 ,16.7553 ,1.06183 ,3.89201 ,38.18837 
79 ,16.9633 ,1.06397 ,3.90570 ,38.32268 
80 ,17.1554 ,1.06587 ,3.86463 ,37.91975 
81 ,17.3794 ,1.06814 ,3.84410 ,37.71828 
82 ,17.5871 ,1.07012 ,3.85779 ,37.85259 
83 ,17.7954 ,1.07231 ,3.80645 ,37.34891 
84 ,18.0197 ,1.07450 ,3.78934 ,37.18102 
85 ,18.2276 ,1.07664 ,3.79276 ,37.21460 
86 ,18.4517 ,1.07885 ,3.77565 ,37.04671 
87 ,18.6599 ,1.08103 ,3.73459 ,36.64377 
88 ,18.8680 ,1.08296 ,3.73801 ,36.67735 
89 ,19.0920 ,1.08516 ,3.70379 ,36.34157 
90 ,19.3002 ,1.08729 ,3.69010 ,36.20725 
91 ,19.5244 ,1.08955 ,3.66614 ,35.97220 
92 ,19.7484 ,1.09180 ,3.65930 ,35.90505 
93 ,19.9564 ,1.09381 ,3.61823 ,35.50211 
94 ,20.1647 ,1.09588 ,3.61823 ,35.50211 
95 ,20.3886 ,1.09815 ,3.60112 ,35.33422 
96 ,20.5969 ,1.10028 ,3.55663 ,34.89770 
97 ,20.8049 ,1.10238 ,3.56006 ,34.93128 
98 ,21.0124 ,1.10451 ,3.54637 ,34.79696 
99 ,21.2211 ,1.10646 ,3.51557 ,34.49476 
100 ,21.4452 ,1.10875 ,3.50530 ,34.39402 
101 ,21.6529 ,1.11075 ,3.47450 ,34.09182 
102 ,21.8614 ,1.11286 ,3.44713 ,33.82319 
103 ,22.0851 ,1.11512 ,3.45055 ,33.85677 
104 ,22.3254 ,1.11757 ,3.41975 ,33.55457 
105 ,22.5337 ,1.11959 ,3.39921 ,33.35310 
106 ,22.7418 ,1.12166 ,3.37868 ,33.15163 
107 ,22.9498 ,1.12382 ,3.36157 ,32.98374 
108 ,23.1420 ,1.12573 ,3.33419 ,32.71511 
109 ,23.3500 ,1.12780 ,3.32735 ,32.64795 
110 ,23.5579 ,1.12985 ,3.29655 ,32.34575 
111 ,23.7662 ,1.13197 ,3.29997 ,32.37933 
112 ,23.9739 ,1.13408 ,3.26233 ,32.00996 
113 ,24.1662 ,1.13600 ,3.27259 ,32.11070 
114 ,24.3901 ,1.13812 ,3.24864 ,31.87565 
115 ,24.5825 ,1.14014 ,3.22126 ,31.60702 
116 ,24.7906 ,1.14214 ,3.21442 ,31.53987 
117 ,25.0148 ,1.14436 ,3.18020 ,31.20409 
118 ,25.2065 ,1.14644 ,3.16993 ,31.10335 
119 ,25.4145 ,1.14839 ,3.14597 ,30.86830 
120 ,25.6231 ,1.15054 ,3.13571 ,30.76757 
121 ,25.8312 ,1.15262 ,3.13571 ,30.76757 
122 ,26.0553 ,1.15484 ,3.09122 ,30.33105 
123 ,26.2632 ,1.15695 ,3.06726 ,30.09600 
124 ,26.4874 ,1.15914 ,3.07411 ,30.16316 
125 ,26.7109 ,1.16145 ,3.03304 ,29.76022 
126 ,26.9193 ,1.16344 ,3.01251 ,29.55875 
127 ,27.1276 ,1.16555 ,3.01593 ,29.59233 
128 ,27.3198 ,1.16750 ,2.97144 ,29.15581 
129 ,27.5277 ,1.16956 ,2.97829 ,29.22297 
130 ,27.7196 ,1.17148 ,2.93722 ,28.82003 
131 ,27.9281 ,1.17355 ,2.94407 ,28.88718 
132 ,28.1359 ,1.17562 ,2.90300 ,28.48424 
133 ,28.3442 ,1.17769 ,2.89958 ,28.45066 
134 ,28.5522 ,1.17973 ,2.89273 ,28.38351 
135 ,28.7759 ,1.18202 ,2.86536 ,28.11488 
136 ,28.9683 ,1.18407 ,2.84140 ,27.87983 
137 ,29.1766 ,1.18607 ,2.83114 ,27.77910 
138 ,29.3845 ,1.18807 ,2.80718 ,27.54405 
139 ,29.5924 ,1.19011 ,2.79691 ,27.44332 
140 ,29.8007 ,1.19224 ,2.76954 ,27.17469 
141 ,30.0086 ,1.19434 ,2.76611 ,27.14111 
142 ,30.2170 ,1.19639 ,2.74216 ,26.90606 
143 ,30.4251 ,1.19848 ,2.72847 ,26.77175 
144 ,30.6332 ,1.20066 ,2.71820 ,26.67101 
145 ,30.8572 ,1.20283 ,2.68740 ,26.36881 
146 ,31.0652 ,1.20501 ,2.66003 ,26.10018 
147 ,31.2573 ,1.20687 ,2.64976 ,25.99945 
148 ,31.4653 ,1.20891 ,2.63607 ,25.86514 
149 ,31.6732 ,1.21100 ,2.62923 ,25.79798 
150 ,31.8977 ,1.21323 ,2.59501 ,25.46220 
151 ,32.1051 ,1.21541 ,2.56763 ,25.19357 
152 ,32.3138 ,1.21735 ,2.57105 ,25.22715 
153 ,32.5380 ,1.21962 ,2.54710 ,24.99210 
154 ,32.7620 ,1.22183 ,2.51972 ,24.72347 
155 ,32.9862 ,1.22410 ,2.51630 ,24.68989 
156 ,33.2099 ,1.22633 ,2.50945 ,24.62274 
157 ,33.4184 ,1.22840 ,2.47181 ,24.25338 
158 ,33.6103 ,1.23045 ,2.46839 ,24.21980 
159 ,33.8185 ,1.23247 ,2.42732 ,23.81686 
160 ,34.0585 ,1.23477 ,2.42390 ,23.78328 
161 ,34.2663 ,1.23685 ,2.41705 ,23.71612 
162 ,34.4746 ,1.23904 ,2.39994 ,23.54823 
163 ,34.6829 ,1.24112 ,2.36572 ,23.21245 
164 ,34.9069 ,1.24334 ,2.36914 ,23.24603 
165 ,35.1146 ,1.24541 ,2.34861 ,23.04456 
166 ,35.3071 ,1.24735 ,2.32465 ,22.80951 
167 ,35.5151 ,1.24946 ,2.29385 ,22.50731 
168 ,35.7232 ,1.25144 ,2.28359 ,22.40657 
169 ,35.9311 ,1.25353 ,2.27332 ,22.30584 
170 ,36.1554 ,1.25566 ,2.23910 ,21.97005 
171 ,36.3635 ,1.25786 ,2.23226 ,21.90290 
172 ,36.5715 ,1.25998 ,2.22541 ,21.83574 
173 ,36.7795 ,1.26200 ,2.19461 ,21.53353 
174 ,36.9877 ,1.26411 ,2.19119 ,21.49996 
175 ,37.1956 ,1.26624 ,2.18092 ,21.39922 
176 ,37.4198 ,1.26839 ,2.14328 ,21.02986 
177 ,37.6437 ,1.27064 ,2.12959 ,20.89555 
178 ,37.8361 ,1.27264 ,2.12617 ,20.86197 
179 ,38.0596 ,1.27476 ,2.09879 ,20.59334 
180 ,38.2521 ,1.27678 ,2.10221 ,20.62692 
181 ,38.4762 ,1.27899 ,2.07141 ,20.32472 
182 ,38.6679 ,1.28099 ,2.05088 ,20.12325 
183 ,38.8764 ,1.28306 ,2.04061 ,20.02251 
184 ,39.1004 ,1.28520 ,2.00982 ,19.72031 
185 ,39.3401 ,1.28758 ,1.98586 ,19.48526 
186 ,39.5484 ,1.28967 ,1.99613 ,19.58599 
187 ,39.7564 ,1.29173 ,1.96533 ,19.28379 
188 ,39.9649 ,1.29390 ,1.94479 ,19.08232 
189 ,40.1889 ,1.29610 ,1.94137 ,19.04874 
190 ,40.4131 ,1.29838 ,1.91742 ,18.81369 
191 ,40.6372 ,1.30056 ,1.90715 ,18.71296 
192 ,40.8451 ,1.30268 ,1.87977 ,18.44433 
193 ,41.0692 ,1.30491 ,1.87635 ,18.41075 
194 ,41.2934 ,1.30714 ,1.87293 ,18.37717 
195 ,41.5176 ,1.30941 ,1.82844 ,17.94066 
196 ,41.7252 ,1.31144 ,1.80791 ,17.73919 
197 ,41.9337 ,1.31352 ,1.81133 ,17.77276 
198 ,42.1577 ,1.31581 ,1.77026 ,17.36983 
199 ,42.3659 ,1.31779 ,1.76684 ,17.33625 
200 ,42.5735 ,1.31992 ,1.75657 ,17.23551 
201 ,42.7819 ,1.32202 ,1.70524 ,16.73184 
202 ,43.0060 ,1.32426 ,1.72235 ,16.89973 
203 ,43.2141 ,1.32641 ,1.69840 ,16.66468 
204 ,43.4223 ,1.32839 ,1.66760 ,16.36248 
205 ,43.6301 ,1.33053 ,1.66760 ,16.36248 
206 ,43.8544 ,1.33269 ,1.65733 ,16.26174 
207 ,44.0626 ,1.33480 ,1.62311 ,15.92596 
208 ,44.2705 ,1.33691 ,1.62995 ,15.99311 
209 ,44.4788 ,1.33895 ,1.59573 ,15.65733 
210 ,44.7186 ,1.34136 ,1.58889 ,15.59018 
211 ,44.9271 ,1.34350 ,1.56836 ,15.38871 
212 ,45.1351 ,1.34551 ,1.56151 ,15.32155 
213 ,45.3430 ,1.34758 ,1.52045 ,14.91861 
214 ,45.5510 ,1.34971 ,1.53413 ,15.05292 
215 ,45.7593 ,1.35178 ,1.50676 ,14.78430 
216 ,45.9511 ,1.35373 ,1.50676 ,14.78430 
217 ,46.1753 ,1.35596 ,1.49307 ,14.64998 
218 ,46.3512 ,1.35789 ,1.46227 ,14.34778 
219 ,46.5757 ,1.35991 ,1.44174 ,14.14631 
220 ,46.7997 ,1.36216 ,1.42462 ,13.97842 
221 ,47.0079 ,1.36424 ,1.42120 ,13.94484 
222 ,47.2160 ,1.36636 ,1.39383 ,13.67621 
223 ,47.4078 ,1.36837 ,1.37329 ,13.47474 
224 ,47.6161 ,1.37026 ,1.35276 ,13.27327 
225 ,47.8081 ,1.37243 ,1.35618 ,13.30685 
226 ,48.0164 ,1.37440 ,1.34249 ,13.17254 
227 ,48.2244 ,1.37640 ,1.32196 ,12.97107 
228 ,48.4325 ,1.37848 ,1.31854 ,12.93749 
229 ,48.6400 ,1.38054 ,1.28432 ,12.60171 
230 ,48.8327 ,1.38254 ,1.29458 ,12.70244 
231 ,49.0567 ,1.38475 ,1.26036 ,12.36666 
232 ,49.2488 ,1.38676 ,1.23983 ,12.16519 
233 ,49.4407 ,1.38869 ,1.22956 ,12.06445 
234 ,49.6330 ,1.39052 ,1.24325 ,12.19877 
235 ,49.8407 ,1.39258 ,1.19192 ,11.69509 
236 ,50.0492 ,1.39469 ,1.19192 ,11.69509 
237 ,50.2572 ,1.39675 ,1.17138 ,11.49362 
238 ,50.4809 ,1.39896 ,1.15085 ,11.29215 
239 ,50.6895 ,1.40103 ,1.16796 ,11.46004 
240 ,50.9133 ,1.40328 ,1.13374 ,11.12426 
241 ,51.1056 ,1.40526 ,1.11663 ,10.95637 
242 ,51.3295 ,1.40746 ,1.10636 ,10.85563 
243 ,51.5378 ,1.40957 ,1.08583 ,10.65416 
244 ,51.7456 ,1.41164 ,1.07899 ,10.58701 
245 ,51.9375 ,1.41358 ,1.04476 ,10.25123 
246 ,52.1459 ,1.41562 ,1.05161 ,10.31838 
247 ,52.3697 ,1.41782 ,1.03450 ,10.15049 
248 ,52.5782 ,1.41998 ,0.99343 ,9.74755 
249 ,52.7863 ,1.42204 ,1.00028 ,9.81471 
250 ,52.9939 ,1.42411 ,0.99343 ,9.74755 
251 ,53.2185 ,1.42635 ,0.95579 ,9.37819 
252 ,53.4423 ,1.42854 ,0.94210 ,9.24388 
253 ,53.6505 ,1.43062 ,0.94894 ,9.31103 
254 ,53.8587 ,1.43272 ,0.89761 ,8.80736 
255 ,54.0666 ,1.43482 ,0.91814 ,9.00883 
256 ,54.2904 ,1.43709 ,0.90446 ,8.87451 
257 ,54.5145 ,1.43932 ,0.88392 ,8.67305 
258 ,54.7226 ,1.44148 ,0.85312 ,8.37084 
259 ,54.9793 ,1.44400 ,0.82917 ,8.13579 
260 ,55.2028 ,1.44617 ,0.82917 ,8.13579 
261 ,55.4112 ,1.44833 ,0.81890 ,8.03506 
262 ,55.7156 ,1.45088 ,0.79495 ,7.80001 
263 ,55.9075 ,1.45337 ,0.78126 ,7.66570 
264 ,56.1155 ,1.45528 ,0.76072 ,7.46423 
265 ,56.3233 ,1.45740 ,0.75046 ,7.36349 
266 ,56.5318 ,1.45947 ,0.74704 ,7.32991 
267 ,56.7557 ,1.46171 ,0.73677 ,7.22918 
268 ,56.9639 ,1.46378 ,0.70597 ,6.92697 
269 ,57.1719 ,1.46585 ,0.70255 ,6.89340 
270 ,57.3801 ,1.46806 ,0.68886 ,6.75908 
271 ,57.5882 ,1.46999 ,0.68201 ,6.69193 
272 ,57.7963 ,1.47210 ,0.65806 ,6.45688 
273 ,58.0203 ,1.47435 ,0.63753 ,6.25541 
274 ,58.2444 ,1.47659 ,0.63410 ,6.22183 
275 ,58.4526 ,1.47862 ,0.62042 ,6.08752 
276 ,58.6606 ,1.48072 ,0.58962 ,5.78531 
277 ,58.8528 ,1.48271 ,0.59304 ,5.81889 
278 ,59.0609 ,1.48475 ,0.56224 ,5.51668 
279 ,59.2691 ,1.48690 ,0.56908 ,5.58384 
280 ,59.4929 ,1.48901 ,0.54855 ,5.38237 
281 ,59.7168 ,1.49125 ,0.52117 ,5.11375 
282 ,59.9092 ,1.49332 ,0.51775 ,5.08017 
283 ,60.1174 ,1.49531 ,0.49722 ,4.87870 
284 ,60.3255 ,1.49739 ,0.49722 ,4.87870 
285 ,60.5494 ,1.49961 ,0.48353 ,4.74438 
286 ,60.7572 ,1.50169 ,0.44588 ,4.37502 
287 ,60.9817 ,1.50394 ,0.43562 ,4.27429 
288 ,61.2054 ,1.50618 ,0.43562 ,4.27429 
289 ,61.4136 ,1.50826 ,0.43220 ,4.24071 
290 ,61.6220 ,1.51030 ,0.39797 ,3.90493 
291 ,61.8302 ,1.51255 ,0.39113 ,3.83777 
292 ,62.0383 ,1.51452 ,0.36718 ,3.60272 
293 ,62.2622 ,1.51670 ,0.35691 ,3.50199 
294 ,62.4544 ,1.51869 ,0.36718 ,3.60272 
295 ,62.6785 ,1.52093 ,0.32611 ,3.19978 
296 ,62.8865 ,1.52304 ,0.34322 ,3.36767 
297 ,63.0781 ,1.52500 ,0.31242 ,3.06547 
298 ,63.2704 ,1.52685 ,0.30558 ,2.99831 
299 ,63.4787 ,1.52892 ,0.27478 ,2.69611 
300 ,63.6867 ,1.53103 ,0.27478 ,2.69611 
301 ,63.9109 ,1.53323 ,0.27135 ,2.66253 
302 ,64.1186 ,1.53533 ,0.24398 ,2.39390 
303 ,64.3431 ,1.53756 ,0.22687 ,2.22601 
304 ,64.5671 ,1.53978 ,0.22002 ,2.15885 
305 ,64.7911 ,1.54207 ,0.20976 ,2.05812 
306 ,64.9991 ,1.54411 ,0.18580 ,1.82307 
307 ,65.2072 ,1.54618 ,0.18922 ,1.85665 
308 ,65.4313 ,1.54849 ,0.16527 ,1.62160 
309 ,65.6395 ,1.55055 ,0.14131 ,1.38655 
310 ,65.8635 ,1.55272 ,0.13789 ,1.35298 
311 ,66.0718 ,1.55480 ,0.14131 ,1.38655 
312 ,66.2797 ,1.55689 ,0.10367 ,1.01719 
313 ,66.4876 ,1.55896 ,0.09682 ,0.95004 
314 ,66.6960 ,1.56106 ,0.07287 ,0.71499 
315 ,66.9040 ,1.56316 ,0.06602 ,0.64783 
316 ,67.0961 ,1.56512 ,0.07971 ,0.78214 
317 ,67.3363 ,1.56728 ,0.04891 ,0.47994 
318 ,67.5598 ,1.56970 ,0.02154 ,0.21131 
319 ,67.7524 ,1.57168 ,0.03180 ,0.31205 
320 ,67.9603 ,1.57372 ,0.00100 ,0.00984 
321 ,68.1685 ,1.57578 ,0.01127 ,0.11058 
322 ,68.3605 ,1.57776 ,-0.01953 ,-0.19163 
323 ,68.5844 ,1.57992 ,-0.02980 ,-0.29236 
324 ,68.8089 ,1.58218 ,-0.01953 ,-0.19163 
325 ,69.0170 ,1.58423 ,-0.06060 ,-0.59457 
326 ,69.2250 ,1.58636 ,-0.07771 ,-0.76246 
327 ,69.4491 ,1.58856 ,-0.07428 ,-0.72888 
328 ,69.6572 ,1.59065 ,-0.10166 ,-0.99751 
329 ,69.8810 ,1.59289 ,-0.10508 ,-1.03108 
330 ,70.0892 ,1.59502 ,-0.10508 ,-1.03108 
331 ,70.2971 ,1.59703 ,-0.13588 ,-1.33329 
332 ,70.5055 ,1.59917 ,-0.14957 ,-1.46760 
333 ,70.7456 ,1.60143 ,-0.14615 ,-1.43402 
334 ,70.9535 ,1.60366 ,-0.15984 ,-1.56834 
335 ,71.1617 ,1.60583 ,-0.18722 ,-1.83696 
336 ,71.3696 ,1.60779 ,-0.18379 ,-1.80338 
337 ,71.5936 ,1.61000 ,-0.19748 ,-1.93770 
338 ,71.7859 ,1.61198 ,-0.21117 ,-2.07201 
339 ,71.9941 ,1.61411 ,-0.23170 ,-2.27348 
340 ,72.1860 ,1.61599 ,-0.23513 ,-2.30706 
341 ,72.3943 ,1.61805 ,-0.24539 ,-2.40779 
342 ,72.6184 ,1.62022 ,-0.27619 ,-2.71000 
343 ,72.8425 ,1.62248 ,-0.29330 ,-2.87789 
344 ,73.0501 ,1.62452 ,-0.27619 ,-2.71000 
345 ,73.2584 ,1.62669 ,-0.31041 ,-3.04578 
346 ,73.4668 ,1.62880 ,-0.30699 ,-3.01220 
347 ,73.6748 ,1.63083 ,-0.31384 ,-3.07936 
348 ,73.8988 ,1.63306 ,-0.33779 ,-3.31441 
349 ,74.1066 ,1.63512 ,-0.34464 ,-3.38156 
350 ,74.3466 ,1.63748 ,-0.35148 ,-3.44872 
351 ,74.5549 ,1.63960 ,-0.38570 ,-3.78450 
352 ,74.7473 ,1.64163 ,-0.38912 ,-3.81808 
353 ,74.9553 ,1.64363 ,-0.39939 ,-3.91882 
354 ,75.1794 ,1.64589 ,-0.42335 ,-4.15387 
355 ,75.3875 ,1.64801 ,-0.41308 ,-4.05313 
356 ,75.6116 ,1.65016 ,-0.43361 ,-4.25460 
357 ,75.8196 ,1.65226 ,-0.45757 ,-4.48965 
358 ,76.0437 ,1.65452 ,-0.46783 ,-4.59038 
359 ,76.2354 ,1.65656 ,-0.46441 ,-4.55681 
360 ,76.4119 ,1.65832 ,-0.47126 ,-4.62396 
361 ,76.6039 ,1.66016 ,-0.50548 ,-4.95975 
362 ,76.8280 ,1.66230 ,-0.49179 ,-4.82543 
363 ,77.0359 ,1.66446 ,-0.51574 ,-5.06048 
364 ,77.2440 ,1.66648 ,-0.52943 ,-5.19479 
365 ,77.4359 ,1.66846 ,-0.53970 ,-5.29553 
366 ,77.6444 ,1.67052 ,-0.56365 ,-5.53058 
367 ,77.8680 ,1.67275 ,-0.54997 ,-5.39626 
368 ,78.0765 ,1.67485 ,-0.59445 ,-5.83278 
369 ,78.2681 ,1.67683 ,-0.60130 ,-5.89994 
370 ,78.4926 ,1.67902 ,-0.59788 ,-5.86636 
371 ,78.6846 ,1.68104 ,-0.61841 ,-6.06783 
372 ,78.8928 ,1.68294 ,-0.60130 ,-5.89994 
373 ,79.1169 ,1.68523 ,-0.63210 ,-6.20214 
374 ,79.3409 ,1.68741 ,-0.66290 ,-6.50435 
375 ,79.5491 ,1.68953 ,-0.65263 ,-6.40361 
376 ,79.7572 ,1.69162 ,-0.67316 ,-6.60508 
377 ,79.9654 ,1.69372 ,-0.68343 ,-6.70582 
378 ,80.1893 ,1.69592 ,-0.67316 ,-6.60508 
379 ,80.3975 ,1.69801 ,-0.70739 ,-6.94086 
380 ,80.6056 ,1.70011 ,-0.71765 ,-7.04160 
381 ,80.8297 ,1.70238 ,-0.70739 ,-6.94086 
382 ,81.0377 ,1.70439 ,-0.74503 ,-7.31023 
383 ,81.2299 ,1.70645 ,-0.74503 ,-7.31023 
384 ,81.4380 ,1.70846 ,-0.75530 ,-7.41096 
385 ,81.6461 ,1.71057 ,-0.77241 ,-7.57885 
386 ,81.8696 ,1.71270 ,-0.76556 ,-7.51170 
387 ,82.0782 ,1.71486 ,-0.79978 ,-7.84748 
388 ,82.3022 ,1.71704 ,-0.81347 ,-7.98179 
389 ,82.5102 ,1.71911 ,-0.80321 ,-7.88106 
390 ,82.7184 ,1.72137 ,-0.82032 ,-8.04895 
391 ,82.9103 ,1.72318 ,-0.82374 ,-8.08253 
392 ,83.1186 ,1.72525 ,-0.85796 ,-8.41831 
393 ,83.3429 ,1.72742 ,-0.86823 ,-8.51904 
394 ,83.5507 ,1.72955 ,-0.85796 ,-8.41831 
395 ,83.7588 ,1.73158 ,-0.89560 ,-8.78767 
396 ,83.9671 ,1.73369 ,-0.88876 ,-8.72051 
397 ,84.1749 ,1.73585 ,-0.90587 ,-8.88841 
398 ,84.3989 ,1.73800 ,-0.92298 ,-9.05630 
399 ,84.6071 ,1.74012 ,-0.92298 ,-9.05630 
400 ,84.7994 ,1.74207 ,-0.93325 ,-9.15703 
401 ,85.0235 ,1.74421 ,-0.96063 ,-9.42566 
402 ,85.2314 ,1.74637 ,-0.94009 ,-9.22419 
403 ,85.4555 ,1.74857 ,-0.96747 ,-9.49282 
404 ,85.6637 ,1.75063 ,-0.96405 ,-9.45924 
405 ,85.8715 ,1.75275 ,-0.98116 ,-9.62713 
406 ,86.0797 ,1.75482 ,-1.01196 ,-9.92933 
407 ,86.2876 ,1.75689 ,-1.00511 ,-9.86218 
408 ,86.4958 ,1.75899 ,-1.02907 ,-10.09723 
409 ,86.7042 ,1.76102 ,-1.03591 ,-10.16438 
410 ,86.9122 ,1.76315 ,-1.03249 ,-10.13080 
411 ,87.1364 ,1.76535 ,-1.05302 ,-10.33227 
412 ,87.3280 ,1.76739 ,-1.07014 ,-10.50016 
413 ,87.5367 ,1.76946 ,-1.07356 ,-10.53374 
414 ,87.7602 ,1.77163 ,-1.09409 ,-10.73521 
415 ,87.9685 ,1.77369 ,-1.08382 ,-10.63448 
416 ,88.1606 ,1.77567 ,-1.11462 ,-10.93668 
417 ,88.3689 ,1.77766 ,-1.09751 ,-10.76879 
418 ,88.5767 ,1.77978 ,-1.13173 ,-11.10457 
419 ,88.7850 ,1.78192 ,-1.12831 ,-11.07100 
420 ,89.0413 ,1.78444 ,-1.15911 ,-11.37320 
421 ,89.2650 ,1.78666 ,-1.16253 ,-11.40678 
422 ,89.4733 ,1.78879 ,-1.16938 ,-11.47394 
423 ,89.6814 ,1.79081 ,-1.18991 ,-11.67541 
424 ,89.9056 ,1.79303 ,-1.18649 ,-11.64183 
425 ,90.1136 ,1.79518 ,-1.19333 ,-11.70898 
426 ,90.3215 ,1.79720 ,-1.22071 ,-11.97761 
427 ,90.5295 ,1.79934 ,-1.20360 ,-11.80972 
428 ,90.7376 ,1.80135 ,-1.24124 ,-12.17908 
429 ,90.9297 ,1.80336 ,-1.23098 ,-12.07834 
430 ,91.1379 ,1.80540 ,-1.25493 ,-12.31339 
431 ,91.3462 ,1.80749 ,-1.24809 ,-12.24624 
432 ,91.5701 ,1.80966 ,-1.26178 ,-12.38055 
433 ,91.7778 ,1.81177 ,-1.28573 ,-12.61560 
434 ,91.9864 ,1.81387 ,-1.28915 ,-12.64918 
435 ,92.2103 ,1.81616 ,-1.28573 ,-12.61560 
436 ,92.4186 ,1.81820 ,-1.33364 ,-13.08569 
437 ,92.6266 ,1.82031 ,-1.34049 ,-13.15285 
438 ,92.8345 ,1.82238 ,-1.33022 ,-13.05212 
439 ,93.0587 ,1.82460 ,-1.36444 ,-13.38790 
440 ,93.2507 ,1.82668 ,-1.36102 ,-13.35432 
441 ,93.4589 ,1.82861 ,-1.38155 ,-13.55579 
442 ,93.6671 ,1.83065 ,-1.37471 ,-13.48863 
443 ,93.8752 ,1.83275 ,-1.38840 ,-13.62295 
444 ,94.0831 ,1.83482 ,-1.40209 ,-13.75726 
445 ,94.2912 ,1.83688 ,-1.39866 ,-13.72368 
446 ,94.5150 ,1.83904 ,-1.41920 ,-13.92515 
447 ,94.7235 ,1.84118 ,-1.41577 ,-13.89157 
448 ,94.9316 ,1.84331 ,-1.41235 ,-13.85799 
449 ,95.1557 ,1.84554 ,-1.42946 ,-14.02589 
450 ,95.3795 ,1.84779 ,-1.47053 ,-14.42883 
451 ,95.5879 ,1.84989 ,-1.46711 ,-14.39525 
452 ,95.8118 ,1.85213 ,-1.46711 ,-14.39525 
453 ,96.0201 ,1.85423 ,-1.49791 ,-14.69745 
454 ,96.2117 ,1.85621 ,-1.48422 ,-14.56314 
455 ,96.4203 ,1.85817 ,-1.51159 ,-14.83177 
456 ,96.6443 ,1.86044 ,-1.52528 ,-14.96608 
457 ,96.8524 ,1.86254 ,-1.51502 ,-14.86534 
458 ,97.0604 ,1.86456 ,-1.54924 ,-15.20113 
459 ,97.2683 ,1.86665 ,-1.54239 ,-15.13397 
460 ,97.4927 ,1.86885 ,-1.56293 ,-15.33544 
