Data stamp = , 19-05-2022 14:50:26 085

Calibration Values: 
Slope = , 26.54 , g/V 
Offset Voltage at no contact = , -0.501760 , V 

No , Time , Stage Position ,   Mass , Force 
   ,  (s) ,      (mm)      ,   (g)  , (mN)  

1 ,0.0000 ,0.89960 ,5.32247 ,52.22410 
2 ,0.2269 ,0.89972 ,5.31905 ,52.19052 
3 ,0.8188 ,0.90172 ,5.30878 ,52.08979 
4 ,1.0590 ,0.90476 ,5.29852 ,51.98905 
5 ,1.2835 ,0.90714 ,5.30536 ,52.05621 
6 ,1.5075 ,0.90937 ,5.31563 ,52.15694 
7 ,1.7152 ,0.91154 ,5.28825 ,51.88832 
8 ,1.9239 ,0.91352 ,5.24718 ,51.48538 
9 ,2.1480 ,0.91581 ,5.24034 ,51.41822 
10 ,2.3717 ,0.91797 ,5.21981 ,51.21675 
11 ,2.5962 ,0.92023 ,5.18901 ,50.91455 
12 ,2.8197 ,0.92244 ,5.14794 ,50.51161 
13 ,3.0443 ,0.92462 ,5.15136 ,50.54519 
14 ,3.2684 ,0.92693 ,5.11714 ,50.20940 
15 ,3.4925 ,0.92918 ,5.09661 ,50.00793 
16 ,3.7162 ,0.93145 ,5.05897 ,49.63857 
17 ,3.9241 ,0.93349 ,5.05212 ,49.57142 
18 ,4.1162 ,0.93555 ,5.04528 ,49.50426 
19 ,4.3403 ,0.93770 ,4.99052 ,48.96701 
20 ,4.5484 ,0.93985 ,4.99394 ,49.00058 
21 ,4.7567 ,0.94196 ,4.96315 ,48.69838 
22 ,4.9808 ,0.94412 ,4.92550 ,48.32902 
23 ,5.2373 ,0.94658 ,4.90155 ,48.09397 
24 ,5.4770 ,0.94903 ,4.88786 ,47.95966 
25 ,5.6855 ,0.95114 ,4.86732 ,47.75819 
26 ,5.8933 ,0.95324 ,4.86048 ,47.69103 
27 ,6.1012 ,0.95537 ,4.81257 ,47.22093 
28 ,6.3255 ,0.95754 ,4.81599 ,47.25451 
29 ,6.5338 ,0.95967 ,4.80573 ,47.15378 
30 ,6.7415 ,0.96177 ,4.76466 ,46.75084 
31 ,6.9499 ,0.96377 ,4.77835 ,46.88515 
32 ,7.1419 ,0.96575 ,4.72702 ,46.38148 
33 ,7.3500 ,0.96776 ,4.72359 ,46.34790 
34 ,7.5421 ,0.96974 ,4.68595 ,45.97854 
35 ,7.7662 ,0.97194 ,4.66884 ,45.81065 
36 ,7.9904 ,0.97419 ,4.67226 ,45.84422 
37 ,8.1984 ,0.97630 ,4.62777 ,45.40771 
38 ,8.3900 ,0.97827 ,4.61066 ,45.23981 
39 ,8.5986 ,0.98024 ,4.58671 ,45.00477 
40 ,8.8226 ,0.98242 ,4.56960 ,44.83688 
41 ,9.0308 ,0.98459 ,4.57302 ,44.87045 
42 ,9.2388 ,0.98674 ,4.53537 ,44.50109 
43 ,9.4466 ,0.98873 ,4.51826 ,44.33320 
44 ,9.6710 ,0.99101 ,4.50800 ,44.23247 
45 ,9.8948 ,0.99322 ,4.48404 ,43.99742 
46 ,10.1191 ,0.99544 ,4.44640 ,43.62806 
47 ,10.3274 ,0.99760 ,4.42929 ,43.46016 
48 ,10.5514 ,0.99977 ,4.43271 ,43.49374 
49 ,10.7594 ,1.00192 ,4.39507 ,43.12438 
50 ,10.9836 ,1.00411 ,4.36427 ,42.82218 
51 ,11.1916 ,1.00618 ,4.36769 ,42.85576 
52 ,11.3994 ,1.00821 ,4.33689 ,42.55355 
53 ,11.6073 ,1.01038 ,4.32320 ,42.41924 
54 ,11.7998 ,1.01227 ,4.29240 ,42.11703 
55 ,12.0240 ,1.01439 ,4.28556 ,42.04988 
56 ,12.2319 ,1.01657 ,4.27187 ,41.91556 
57 ,12.4400 ,1.01866 ,4.23080 ,41.51262 
58 ,12.6324 ,1.02061 ,4.24449 ,41.64694 
59 ,12.8560 ,1.02296 ,4.22738 ,41.47905 
60 ,13.0485 ,1.02487 ,4.17262 ,40.94179 
61 ,13.2726 ,1.02699 ,4.17947 ,41.00895 
62 ,13.4967 ,1.02921 ,4.15551 ,40.77390 
63 ,13.7203 ,1.03147 ,4.12471 ,40.47170 
64 ,13.9284 ,1.03352 ,4.10076 ,40.23665 
65 ,14.1690 ,1.03584 ,4.09734 ,40.20307 
66 ,14.3769 ,1.03817 ,4.07338 ,39.96802 
67 ,14.6011 ,1.04023 ,4.04943 ,39.73297 
68 ,14.7770 ,1.04220 ,4.04600 ,39.69940 
69 ,14.9848 ,1.04409 ,4.01178 ,39.36361 
70 ,15.1932 ,1.04616 ,4.00494 ,39.29646 
71 ,15.4175 ,1.04845 ,3.98783 ,39.12856 
72 ,15.6415 ,1.05065 ,3.95361 ,38.79278 
73 ,15.8497 ,1.05278 ,3.93307 ,38.59131 
74 ,16.0735 ,1.05505 ,3.91938 ,38.45700 
75 ,16.3137 ,1.05730 ,3.89543 ,38.22195 
76 ,16.5218 ,1.05945 ,3.85779 ,37.85259 
77 ,16.7300 ,1.06155 ,3.86805 ,37.95332 
78 ,16.9220 ,1.06364 ,3.85094 ,37.78543 
79 ,17.1460 ,1.06571 ,3.82699 ,37.55038 
80 ,17.3538 ,1.06775 ,3.80987 ,37.38249 
81 ,17.5621 ,1.06990 ,3.77223 ,37.01313 
82 ,17.7864 ,1.07212 ,3.76196 ,36.91240 
83 ,17.9943 ,1.07423 ,3.75170 ,36.81166 
84 ,18.2022 ,1.07624 ,3.72432 ,36.54303 
85 ,18.4103 ,1.07837 ,3.70721 ,36.37514 
86 ,18.6509 ,1.08063 ,3.69694 ,36.27441 
87 ,18.8588 ,1.08299 ,3.67299 ,36.03936 
88 ,19.0830 ,1.08515 ,3.63877 ,35.70358 
89 ,19.3229 ,1.08744 ,3.60454 ,35.36779 
90 ,19.5469 ,1.08964 ,3.62166 ,35.53569 
91 ,19.8032 ,1.09226 ,3.56690 ,34.99843 
92 ,20.0111 ,1.09429 ,3.57032 ,35.03201 
93 ,20.2195 ,1.09642 ,3.53610 ,34.69623 
94 ,20.4437 ,1.09871 ,3.51557 ,34.49476 
95 ,20.6674 ,1.10092 ,3.50188 ,34.36045 
96 ,20.8914 ,1.10312 ,3.49161 ,34.25971 
97 ,21.1157 ,1.10540 ,3.48819 ,34.22613 
98 ,21.3398 ,1.10761 ,3.44713 ,33.82319 
99 ,21.5481 ,1.10970 ,3.43344 ,33.68888 
100 ,21.7560 ,1.11181 ,3.41633 ,33.52099 
101 ,21.9481 ,1.11382 ,3.37868 ,33.15163 
102 ,22.1560 ,1.11580 ,3.38210 ,33.18520 
103 ,22.3643 ,1.11786 ,3.34446 ,32.81584 
104 ,22.5724 ,1.11996 ,3.35130 ,32.88300 
105 ,22.7804 ,1.12203 ,3.33762 ,32.74869 
106 ,22.9721 ,1.12395 ,3.31366 ,32.51364 
107 ,23.1806 ,1.12605 ,3.28971 ,32.27859 
108 ,23.3885 ,1.12809 ,3.26917 ,32.07712 
109 ,23.5807 ,1.13016 ,3.26233 ,32.00996 
110 ,23.7728 ,1.13198 ,3.24180 ,31.80849 
111 ,23.9810 ,1.13402 ,3.21784 ,31.57345 
112 ,24.1889 ,1.13616 ,3.20415 ,31.43913 
113 ,24.4131 ,1.13829 ,3.19046 ,31.30482 
114 ,24.5893 ,1.14028 ,3.14940 ,30.90188 
115 ,24.7973 ,1.14216 ,3.15624 ,30.96904 
116 ,24.9893 ,1.14415 ,3.12544 ,30.66683 
117 ,25.1970 ,1.14631 ,3.11860 ,30.59968 
118 ,25.4056 ,1.14823 ,3.08095 ,30.23031 
119 ,25.6137 ,1.15033 ,3.08438 ,30.26389 
120 ,25.8376 ,1.15258 ,3.07069 ,30.12958 
121 ,26.0461 ,1.15468 ,3.03647 ,29.79380 
122 ,26.2696 ,1.15692 ,3.01935 ,29.62590 
123 ,26.4939 ,1.15914 ,3.02278 ,29.65948 
124 ,26.7182 ,1.16140 ,2.99882 ,29.42444 
125 ,26.9260 ,1.16355 ,2.95433 ,28.98792 
126 ,27.1344 ,1.16558 ,2.95776 ,29.02150 
127 ,27.3425 ,1.16765 ,2.93380 ,28.78645 
128 ,27.5668 ,1.16991 ,2.89958 ,28.45066 
129 ,27.7907 ,1.17211 ,2.88931 ,28.34993 
130 ,27.9987 ,1.17424 ,2.88931 ,28.34993 
131 ,28.2069 ,1.17628 ,2.83456 ,27.81268 
132 ,28.4307 ,1.17848 ,2.84140 ,27.87983 
133 ,28.6389 ,1.18063 ,2.82429 ,27.71194 
134 ,28.8631 ,1.18284 ,2.81402 ,27.61121 
135 ,29.0872 ,1.18505 ,2.76611 ,27.14111 
136 ,29.2953 ,1.18715 ,2.77638 ,27.24185 
137 ,29.5195 ,1.18934 ,2.75585 ,27.04038 
138 ,29.7111 ,1.19144 ,2.72163 ,26.70459 
139 ,29.9193 ,1.19336 ,2.73189 ,26.80533 
140 ,30.1115 ,1.19549 ,2.67372 ,26.23450 
141 ,30.3197 ,1.19738 ,2.69767 ,26.46954 
142 ,30.5442 ,1.19966 ,2.66345 ,26.13376 
143 ,30.7675 ,1.20184 ,2.63607 ,25.86514 
144 ,30.9600 ,1.20394 ,2.62923 ,25.79798 
145 ,31.1681 ,1.20582 ,2.59501 ,25.46220 
146 ,31.4242 ,1.20827 ,2.59158 ,25.42862 
147 ,31.6322 ,1.21050 ,2.56421 ,25.15999 
148 ,31.8559 ,1.21263 ,2.56763 ,25.19357 
149 ,32.0964 ,1.21502 ,2.54710 ,24.99210 
150 ,32.3206 ,1.21738 ,2.53341 ,24.85779 
151 ,32.5286 ,1.21948 ,2.48207 ,24.35411 
152 ,32.7531 ,1.22172 ,2.47181 ,24.25338 
153 ,32.9604 ,1.22378 ,2.47523 ,24.28696 
154 ,33.1846 ,1.22610 ,2.43759 ,23.91759 
155 ,33.4090 ,1.22821 ,2.42732 ,23.81686 
156 ,33.6331 ,1.23047 ,2.40336 ,23.58181 
157 ,33.8407 ,1.23263 ,2.39652 ,23.51465 
158 ,34.0327 ,1.23455 ,2.37256 ,23.27961 
159 ,34.2411 ,1.23658 ,2.37599 ,23.31318 
160 ,34.4494 ,1.23869 ,2.33834 ,22.94382 
161 ,34.6735 ,1.24088 ,2.31439 ,22.70877 
162 ,34.8817 ,1.24302 ,2.32123 ,22.77593 
163 ,35.1057 ,1.24523 ,2.28017 ,22.37299 
164 ,35.3138 ,1.24727 ,2.26990 ,22.27226 
165 ,35.5218 ,1.24934 ,2.26648 ,22.23868 
166 ,35.7139 ,1.25140 ,2.22883 ,21.86932 
167 ,35.9219 ,1.25334 ,2.23568 ,21.93647 
168 ,36.1302 ,1.25545 ,2.19461 ,21.53353 
169 ,36.3379 ,1.25764 ,2.20488 ,21.63427 
170 ,36.5462 ,1.25962 ,2.17750 ,21.36564 
171 ,36.7702 ,1.26185 ,2.15012 ,21.09702 
172 ,36.9786 ,1.26396 ,2.14670 ,21.06344 
173 ,37.2186 ,1.26627 ,2.14328 ,21.02986 
174 ,37.4264 ,1.26850 ,2.10221 ,20.62692 
175 ,37.6509 ,1.27067 ,2.07484 ,20.35829 
176 ,37.8750 ,1.27294 ,2.07484 ,20.35829 
177 ,38.0828 ,1.27501 ,2.07484 ,20.35829 
178 ,38.3067 ,1.27726 ,2.03719 ,19.98893 
179 ,38.4992 ,1.27931 ,2.02350 ,19.85462 
180 ,38.7072 ,1.28128 ,2.00639 ,19.68673 
181 ,38.9314 ,1.28349 ,1.97902 ,19.41810 
182 ,39.1396 ,1.28558 ,1.98244 ,19.45168 
183 ,39.3634 ,1.28779 ,1.97559 ,19.38452 
184 ,39.5717 ,1.28985 ,1.93453 ,18.98158 
185 ,39.7954 ,1.29211 ,1.93111 ,18.94801 
186 ,40.0036 ,1.29418 ,1.91399 ,18.78011 
187 ,40.2280 ,1.29645 ,1.88319 ,18.47791 
188 ,40.4361 ,1.29857 ,1.88319 ,18.47791 
189 ,40.6600 ,1.30066 ,1.85924 ,18.24286 
190 ,40.8837 ,1.30303 ,1.85582 ,18.20928 
191 ,41.0922 ,1.30508 ,1.81817 ,17.83992 
192 ,41.3003 ,1.30715 ,1.82502 ,17.90708 
193 ,41.5246 ,1.30944 ,1.81133 ,17.77276 
194 ,41.7322 ,1.31151 ,1.76342 ,17.30267 
195 ,41.9564 ,1.31372 ,1.75657 ,17.23551 
196 ,42.1805 ,1.31593 ,1.74289 ,17.10120 
197 ,42.3888 ,1.31804 ,1.72920 ,16.96689 
198 ,42.6289 ,1.32044 ,1.70866 ,16.76542 
199 ,42.8531 ,1.32266 ,1.67786 ,16.46321 
200 ,43.0768 ,1.32487 ,1.68471 ,16.53037 
201 ,43.3009 ,1.32718 ,1.67444 ,16.42963 
202 ,43.5091 ,1.32922 ,1.65049 ,16.19458 
203 ,43.7334 ,1.33148 ,1.60942 ,15.79164 
204 ,43.9413 ,1.33356 ,1.62653 ,15.95954 
205 ,44.1651 ,1.33578 ,1.60600 ,15.75807 
206 ,44.3737 ,1.33785 ,1.57178 ,15.42228 
207 ,44.5818 ,1.33996 ,1.57520 ,15.45586 
208 ,44.7898 ,1.34206 ,1.54782 ,15.18724 
209 ,44.9978 ,1.34417 ,1.53071 ,15.01934 
210 ,45.2058 ,1.34613 ,1.52729 ,14.98577 
211 ,45.4461 ,1.34856 ,1.49649 ,14.68356 
212 ,45.6702 ,1.35086 ,1.47253 ,14.44851 
213 ,45.8783 ,1.35293 ,1.47938 ,14.51567 
214 ,46.1022 ,1.35513 ,1.46911 ,14.41493 
215 ,46.3104 ,1.35726 ,1.43489 ,14.07915 
216 ,46.5506 ,1.35962 ,1.40409 ,13.77695 
217 ,46.7586 ,1.36172 ,1.40751 ,13.81053 
218 ,46.9506 ,1.36366 ,1.39383 ,13.67621 
219 ,47.1749 ,1.36586 ,1.36303 ,13.37401 
220 ,47.3829 ,1.36799 ,1.36645 ,13.40759 
221 ,47.6068 ,1.37018 ,1.34591 ,13.20612 
222 ,47.7991 ,1.37216 ,1.32538 ,13.00465 
223 ,48.0233 ,1.37433 ,1.32538 ,13.00465 
224 ,48.2314 ,1.37643 ,1.28774 ,12.63528 
225 ,48.4394 ,1.37854 ,1.29116 ,12.66886 
226 ,48.6310 ,1.38052 ,1.27405 ,12.50097 
227 ,48.8392 ,1.38258 ,1.25694 ,12.33308 
228 ,49.0472 ,1.38463 ,1.23983 ,12.16519 
229 ,49.2394 ,1.38663 ,1.20903 ,11.86298 
230 ,49.4474 ,1.38857 ,1.22272 ,11.99730 
231 ,49.6395 ,1.39064 ,1.19534 ,11.72867 
232 ,49.8635 ,1.39272 ,1.19876 ,11.76225 
233 ,50.0556 ,1.39479 ,1.16112 ,11.39289 
234 ,50.2637 ,1.39678 ,1.16112 ,11.39289 
235 ,50.4558 ,1.39882 ,1.13716 ,11.15784 
236 ,50.6481 ,1.40071 ,1.13716 ,11.15784 
237 ,50.8561 ,1.40266 ,1.10294 ,10.82206 
238 ,51.0802 ,1.40488 ,1.08583 ,10.65416 
239 ,51.2883 ,1.40699 ,1.09267 ,10.72132 
240 ,51.4803 ,1.40905 ,1.05503 ,10.35196 
241 ,51.6724 ,1.41099 ,1.06187 ,10.41912 
242 ,51.8805 ,1.41290 ,1.03792 ,10.18407 
243 ,52.1044 ,1.41518 ,1.04819 ,10.28480 
244 ,52.2967 ,1.41720 ,1.01054 ,9.91544 
245 ,52.5048 ,1.41916 ,1.01054 ,9.91544 
246 ,52.6968 ,1.42119 ,0.97974 ,9.61324 
247 ,52.9050 ,1.42316 ,0.97632 ,9.57966 
248 ,53.0969 ,1.42521 ,0.94210 ,9.24388 
249 ,53.3050 ,1.42720 ,0.94894 ,9.31103 
250 ,53.5455 ,1.42959 ,0.92841 ,9.10956 
251 ,53.7697 ,1.43183 ,0.91814 ,9.00883 
252 ,53.9778 ,1.43391 ,0.88050 ,8.63947 
253 ,54.1855 ,1.43603 ,0.90446 ,8.87451 
254 ,54.3940 ,1.43813 ,0.85312 ,8.37084 
255 ,54.6181 ,1.44028 ,0.85654 ,8.40442 
256 ,54.8101 ,1.44235 ,0.84628 ,8.30368 
257 ,55.0343 ,1.44442 ,0.81206 ,7.96790 
258 ,55.2424 ,1.44652 ,0.80521 ,7.90074 
259 ,55.4825 ,1.44893 ,0.81890 ,8.03506 
260 ,55.7062 ,1.45114 ,0.78810 ,7.73285 
261 ,55.9146 ,1.45324 ,0.75730 ,7.43065 
262 ,56.1387 ,1.45543 ,0.73335 ,7.19560 
263 ,56.3469 ,1.45757 ,0.75388 ,7.39707 
264 ,56.5549 ,1.45970 ,0.70939 ,6.96055 
265 ,56.7787 ,1.46188 ,0.69913 ,6.85982 
266 ,56.9869 ,1.46394 ,0.69570 ,6.82624 
267 ,57.2109 ,1.46620 ,0.68544 ,6.72550 
268 ,57.4193 ,1.46827 ,0.65464 ,6.42330 
269 ,57.6273 ,1.47047 ,0.66490 ,6.52403 
270 ,57.8351 ,1.47241 ,0.62042 ,6.08752 
271 ,58.0274 ,1.47448 ,0.62384 ,6.12109 
272 ,58.2357 ,1.47639 ,0.59646 ,5.85247 
273 ,58.4598 ,1.47868 ,0.59304 ,5.81889 
274 ,58.6673 ,1.48085 ,0.58619 ,5.75173 
275 ,58.8758 ,1.48283 ,0.56908 ,5.58384 
276 ,59.0995 ,1.48507 ,0.55197 ,5.41595 
277 ,59.3235 ,1.48730 ,0.54513 ,5.34879 
278 ,59.5635 ,1.48967 ,0.52802 ,5.18090 
279 ,59.7718 ,1.49179 ,0.52117 ,5.11375 
280 ,59.9961 ,1.49404 ,0.49380 ,4.84512 
281 ,60.2204 ,1.49628 ,0.48011 ,4.71081 
282 ,60.4443 ,1.49841 ,0.48011 ,4.71081 
283 ,60.6686 ,1.50080 ,0.45957 ,4.50934 
284 ,60.8922 ,1.50297 ,0.43562 ,4.27429 
285 ,61.1168 ,1.50520 ,0.41166 ,4.03924 
286 ,61.3564 ,1.50765 ,0.39455 ,3.87135 
287 ,61.5804 ,1.50985 ,0.38771 ,3.80419 
288 ,61.8051 ,1.51213 ,0.37744 ,3.70346 
289 ,62.0447 ,1.51462 ,0.36375 ,3.56914 
290 ,62.2535 ,1.51659 ,0.36033 ,3.53557 
291 ,62.4614 ,1.51869 ,0.32953 ,3.23336 
292 ,62.7012 ,1.52096 ,0.32953 ,3.23336 
293 ,62.9251 ,1.52331 ,0.32611 ,3.19978 
294 ,63.1012 ,1.52520 ,0.28847 ,2.83042 
295 ,63.3258 ,1.52731 ,0.29189 ,2.86400 
296 ,63.5498 ,1.52952 ,0.28504 ,2.79684 
297 ,63.7739 ,1.53186 ,0.26451 ,2.59537 
298 ,63.9980 ,1.53405 ,0.23371 ,2.29317 
299 ,64.2216 ,1.53632 ,0.22687 ,2.22601 
300 ,64.4463 ,1.53849 ,0.22687 ,2.22601 
301 ,64.6703 ,1.54077 ,0.22344 ,2.19243 
302 ,64.8784 ,1.54293 ,0.18580 ,1.82307 
303 ,65.1184 ,1.54526 ,0.15500 ,1.52087 
304 ,65.3263 ,1.54730 ,0.16869 ,1.65518 
305 ,65.5505 ,1.54960 ,0.16185 ,1.58802 
306 ,65.7588 ,1.55170 ,0.13105 ,1.28582 
307 ,65.9827 ,1.55384 ,0.11393 ,1.11793 
308 ,66.2064 ,1.55607 ,0.11736 ,1.15151 
309 ,66.4150 ,1.55817 ,0.11051 ,1.08435 
310 ,66.6229 ,1.56031 ,0.08656 ,0.84930 
311 ,66.8313 ,1.56241 ,0.09340 ,0.91646 
312 ,67.0552 ,1.56458 ,0.06945 ,0.68141 
313 ,67.2634 ,1.56665 ,0.03522 ,0.34563 
314 ,67.4715 ,1.56874 ,0.05234 ,0.51352 
315 ,67.6794 ,1.57084 ,0.01811 ,0.17773 
316 ,67.8878 ,1.57294 ,0.01811 ,0.17773 
317 ,68.1117 ,1.57518 ,0.01469 ,0.14416 
318 ,68.3359 ,1.57735 ,-0.02295 ,-0.22520 
319 ,68.5436 ,1.57948 ,-0.04691 ,-0.46025 
320 ,68.7516 ,1.58159 ,-0.03322 ,-0.32594 
321 ,68.9598 ,1.58365 ,-0.07086 ,-0.69530 
322 ,69.1841 ,1.58585 ,-0.06402 ,-0.62814 
323 ,69.3922 ,1.58801 ,-0.07086 ,-0.69530 
324 ,69.6163 ,1.59024 ,-0.08797 ,-0.86319 
325 ,69.8240 ,1.59223 ,-0.10851 ,-1.06466 
326 ,70.0487 ,1.59449 ,-0.11193 ,-1.09824 
327 ,70.2727 ,1.59675 ,-0.11877 ,-1.16540 
328 ,70.4807 ,1.59885 ,-0.14273 ,-1.40045 
329 ,70.6888 ,1.60098 ,-0.15299 ,-1.50118 
330 ,70.9124 ,1.60314 ,-0.15299 ,-1.50118 
331 ,71.1371 ,1.60544 ,-0.18379 ,-1.80338 
332 ,71.3450 ,1.60752 ,-0.20433 ,-2.00485 
333 ,71.5533 ,1.60954 ,-0.19748 ,-1.93770 
334 ,71.7611 ,1.61165 ,-0.24197 ,-2.37422 
335 ,71.9693 ,1.61386 ,-0.23855 ,-2.34064 
336 ,72.1771 ,1.61582 ,-0.23513 ,-2.30706 
337 ,72.3695 ,1.61777 ,-0.24539 ,-2.40779 
338 ,72.5777 ,1.61980 ,-0.27277 ,-2.67642 
339 ,72.7856 ,1.62191 ,-0.29330 ,-2.87789 
340 ,72.9939 ,1.62402 ,-0.27619 ,-2.71000 
341 ,73.2175 ,1.62618 ,-0.30699 ,-3.01220 
342 ,73.4261 ,1.62832 ,-0.32068 ,-3.14652 
343 ,73.6342 ,1.63036 ,-0.31726 ,-3.11294 
344 ,73.8582 ,1.63259 ,-0.33779 ,-3.31441 
345 ,74.0664 ,1.63466 ,-0.36517 ,-3.58303 
346 ,74.2902 ,1.63692 ,-0.36175 ,-3.54946 
347 ,74.5144 ,1.63914 ,-0.36175 ,-3.54946 
348 ,74.7385 ,1.64141 ,-0.39255 ,-3.85166 
349 ,74.9467 ,1.64347 ,-0.41308 ,-4.05313 
350 ,75.1386 ,1.64545 ,-0.41308 ,-4.05313 
351 ,75.3468 ,1.64749 ,-0.43019 ,-4.22102 
352 ,75.5550 ,1.64952 ,-0.42335 ,-4.15387 
353 ,75.7790 ,1.65180 ,-0.45414 ,-4.45607 
354 ,75.9871 ,1.65395 ,-0.46099 ,-4.52323 
355 ,76.2111 ,1.65610 ,-0.46441 ,-4.55681 
356 ,76.4513 ,1.65831 ,-0.49521 ,-4.85901 
357 ,76.6752 ,1.66077 ,-0.49521 ,-4.85901 
358 ,76.8834 ,1.66279 ,-0.53285 ,-5.22837 
359 ,77.0916 ,1.66491 ,-0.50548 ,-4.95975 
360 ,77.3156 ,1.66717 ,-0.53285 ,-5.22837 
361 ,77.5076 ,1.66924 ,-0.54654 ,-5.36268 
362 ,77.7154 ,1.67116 ,-0.54654 ,-5.36268 
363 ,77.9074 ,1.67322 ,-0.58077 ,-5.69847 
364 ,78.1161 ,1.67513 ,-0.56708 ,-5.56415 
365 ,78.3401 ,1.67738 ,-0.59445 ,-5.83278 
366 ,78.5642 ,1.67963 ,-0.61499 ,-6.03425 
367 ,78.7719 ,1.68176 ,-0.61499 ,-6.03425 
368 ,78.9803 ,1.68381 ,-0.63552 ,-6.23572 
369 ,79.2043 ,1.68607 ,-0.64921 ,-6.37003 
370 ,79.4125 ,1.68813 ,-0.63210 ,-6.20214 
371 ,79.6366 ,1.69036 ,-0.65263 ,-6.40361 
372 ,79.8445 ,1.69244 ,-0.68343 ,-6.70582 
373 ,80.0686 ,1.69470 ,-0.67659 ,-6.63866 
374 ,80.2769 ,1.69686 ,-0.68001 ,-6.67224 
375 ,80.5006 ,1.69903 ,-0.70739 ,-6.94086 
376 ,80.7251 ,1.70119 ,-0.74161 ,-7.27665 
377 ,80.9328 ,1.70331 ,-0.72450 ,-7.10876 
378 ,81.1573 ,1.70544 ,-0.75530 ,-7.41096 
379 ,81.3974 ,1.70786 ,-0.75530 ,-7.41096 
380 ,81.6211 ,1.71018 ,-0.77925 ,-7.64601 
381 ,81.8296 ,1.71228 ,-0.78610 ,-7.71317 
382 ,82.0376 ,1.71432 ,-0.77925 ,-7.64601 
383 ,82.2616 ,1.71664 ,-0.82374 ,-8.08253 
384 ,82.4696 ,1.71872 ,-0.82716 ,-8.11611 
385 ,82.6777 ,1.72078 ,-0.81347 ,-7.98179 
386 ,82.8860 ,1.72292 ,-0.85454 ,-8.38473 
387 ,83.1097 ,1.72508 ,-0.84085 ,-8.25042 
388 ,83.3015 ,1.72710 ,-0.84769 ,-8.31758 
389 ,83.5101 ,1.72907 ,-0.87849 ,-8.61978 
390 ,83.7182 ,1.73118 ,-0.86481 ,-8.48547 
391 ,83.9099 ,1.73321 ,-0.90587 ,-8.88841 
392 ,84.1184 ,1.73515 ,-0.89560 ,-8.78767 
393 ,84.3421 ,1.73742 ,-0.91272 ,-8.95556 
394 ,84.5667 ,1.73965 ,-0.93325 ,-9.15703 
395 ,84.7904 ,1.74190 ,-0.93667 ,-9.19061 
396 ,84.9985 ,1.74391 ,-0.93325 ,-9.15703 
397 ,85.2069 ,1.74609 ,-0.96747 ,-9.49282 
398 ,85.4307 ,1.74827 ,-0.97089 ,-9.52639 
399 ,85.6549 ,1.75057 ,-0.96405 ,-9.45924 
400 ,85.8631 ,1.75261 ,-0.99485 ,-9.76144 
401 ,86.0873 ,1.75487 ,-1.00169 ,-9.82860 
402 ,86.2953 ,1.75697 ,-0.98458 ,-9.66071 
403 ,86.5032 ,1.75917 ,-1.00854 ,-9.89576 
404 ,86.7114 ,1.76105 ,-1.01880 ,-9.99649 
405 ,86.9192 ,1.76316 ,-1.03591 ,-10.16438 
406 ,87.1278 ,1.76520 ,-1.05645 ,-10.36585 
407 ,87.3517 ,1.76751 ,-1.07356 ,-10.53374 
408 ,87.5919 ,1.76990 ,-1.07014 ,-10.50016 
409 ,87.8159 ,1.77218 ,-1.07356 ,-10.53374 
410 ,88.0401 ,1.77436 ,-1.09067 ,-10.70163 
411 ,88.2641 ,1.77664 ,-1.10778 ,-10.86953 
412 ,88.4723 ,1.77871 ,-1.11462 ,-10.93668 
413 ,88.6964 ,1.78096 ,-1.10436 ,-10.83595 
414 ,88.9044 ,1.78303 ,-1.12831 ,-11.07100 
415 ,89.1125 ,1.78504 ,-1.14542 ,-11.23889 
416 ,89.3207 ,1.78718 ,-1.15227 ,-11.30604 
417 ,89.5287 ,1.78928 ,-1.17622 ,-11.54109 
418 ,89.7531 ,1.79148 ,-1.16253 ,-11.40678 
419 ,89.9604 ,1.79365 ,-1.16596 ,-11.44036 
420 ,90.1688 ,1.79562 ,-1.21729 ,-11.94403 
421 ,90.3770 ,1.79773 ,-1.19676 ,-11.74256 
422 ,90.5850 ,1.79986 ,-1.22071 ,-11.97761 
423 ,90.8093 ,1.80206 ,-1.23098 ,-12.07834 
424 ,91.0169 ,1.80421 ,-1.24124 ,-12.17908 
425 ,91.2254 ,1.80625 ,-1.24809 ,-12.24624 
426 ,91.4496 ,1.80845 ,-1.26862 ,-12.44771 
427 ,91.6576 ,1.81058 ,-1.25151 ,-12.27981 
428 ,91.8817 ,1.81278 ,-1.27889 ,-12.54844 
429 ,92.0897 ,1.81489 ,-1.30284 ,-12.78349 
430 ,92.3135 ,1.81715 ,-1.29258 ,-12.68275 
431 ,92.5058 ,1.81910 ,-1.29942 ,-12.74991 
432 ,92.6820 ,1.82092 ,-1.30626 ,-12.81707 
433 ,92.9059 ,1.82297 ,-1.33364 ,-13.08569 
434 ,93.1464 ,1.82530 ,-1.34049 ,-13.15285 
435 ,93.3544 ,1.82747 ,-1.34049 ,-13.15285 
436 ,93.5624 ,1.82957 ,-1.34733 ,-13.22001 
437 ,93.7701 ,1.83180 ,-1.37471 ,-13.48863 
438 ,93.9783 ,1.83369 ,-1.36444 ,-13.38790 
439 ,94.1863 ,1.83578 ,-1.39182 ,-13.65653 
440 ,94.3784 ,1.83786 ,-1.38497 ,-13.58937 
441 ,94.5869 ,1.83986 ,-1.41577 ,-13.89157 
442 ,94.8107 ,1.84202 ,-1.41235 ,-13.85799 
443 ,95.0190 ,1.84410 ,-1.40893 ,-13.82442 
444 ,95.2269 ,1.84620 ,-1.43631 ,-14.09304 
445 ,95.4509 ,1.84844 ,-1.45342 ,-14.26093 
446 ,95.6750 ,1.85069 ,-1.45684 ,-14.29451 
447 ,95.8834 ,1.85279 ,-1.46026 ,-14.32809 
448 ,96.1073 ,1.85499 ,-1.46711 ,-14.39525 
449 ,96.3156 ,1.85704 ,-1.47053 ,-14.42883 
450 ,96.5236 ,1.85916 ,-1.49106 ,-14.63030 
451 ,96.7637 ,1.86158 ,-1.50475 ,-14.76461 
452 ,96.9715 ,1.86373 ,-1.51844 ,-14.89892 
453 ,97.1798 ,1.86572 ,-1.51502 ,-14.86534 
454 ,97.3877 ,1.86783 ,-1.54582 ,-15.16755 
455 ,97.5961 ,1.86990 ,-1.53213 ,-15.03324 
456 ,97.8201 ,1.87208 ,-1.54239 ,-15.13397 
457 ,98.0282 ,1.87420 ,-1.56293 ,-15.33544 
458 ,98.2204 ,1.87617 ,-1.54239 ,-15.13397 
459 ,98.4445 ,1.87840 ,-1.58004 ,-15.50333 
460 ,98.6526 ,1.88042 ,-1.59030 ,-15.60407 
