Data stamp = , 19-05-2022 16:10:04 525

Calibration Values: 
Slope = , 26.54 , g/V 
Offset Voltage at no contact = , -0.501760 , V 

No , Time , Stage Position ,   Mass , Force 
   ,  (s) ,      (mm)      ,   (g)  , (mN)  

1 ,0.0000 ,0.89972 ,5.31905 ,52.19052 
2 ,0.2247 ,0.89979 ,5.32247 ,52.22410 
3 ,1.0415 ,0.90358 ,5.29852 ,51.98905 
4 ,1.2811 ,0.90710 ,5.30194 ,52.02263 
5 ,1.4737 ,0.90933 ,5.30878 ,52.08979 
6 ,1.6978 ,0.91144 ,5.28825 ,51.88832 
7 ,1.9057 ,0.91360 ,5.26430 ,51.65327 
8 ,2.1139 ,0.91559 ,5.26430 ,51.65327 
9 ,2.3535 ,0.91801 ,5.23007 ,51.31749 
10 ,2.5776 ,0.92026 ,5.20612 ,51.08244 
11 ,2.8020 ,0.92249 ,5.18216 ,50.84739 
12 ,3.0582 ,0.92502 ,5.15479 ,50.57876 
13 ,3.2666 ,0.92714 ,5.12399 ,50.27656 
14 ,3.4741 ,0.92918 ,5.13768 ,50.41087 
15 ,3.6661 ,0.93126 ,5.09319 ,49.97436 
16 ,3.8742 ,0.93320 ,5.08292 ,49.87362 
17 ,4.0667 ,0.93515 ,5.04870 ,49.53784 
18 ,4.2751 ,0.93719 ,5.05212 ,49.57142 
19 ,4.4988 ,0.93945 ,5.02132 ,49.26921 
20 ,4.7069 ,0.94152 ,4.99052 ,48.96701 
21 ,4.9151 ,0.94368 ,4.97683 ,48.83269 
22 ,5.1228 ,0.94566 ,4.95288 ,48.59764 
23 ,5.3152 ,0.94773 ,4.93235 ,48.39618 
24 ,5.5555 ,0.95001 ,4.92550 ,48.32902 
25 ,5.7793 ,0.95229 ,4.89470 ,48.02681 
26 ,6.0036 ,0.95452 ,4.86732 ,47.75819 
27 ,6.2276 ,0.95675 ,4.81941 ,47.28809 
28 ,6.4518 ,0.95898 ,4.82626 ,47.35525 
29 ,6.6757 ,0.96120 ,4.81599 ,47.25451 
30 ,6.8838 ,0.96331 ,4.76808 ,46.78442 
31 ,7.0919 ,0.96535 ,4.76124 ,46.71726 
32 ,7.3159 ,0.96758 ,4.75439 ,46.65010 
33 ,7.5242 ,0.96965 ,4.71333 ,46.24716 
34 ,7.7483 ,0.97188 ,4.68937 ,46.01212 
35 ,7.9562 ,0.97395 ,4.69279 ,46.04569 
36 ,8.1804 ,0.97613 ,4.65857 ,45.70991 
37 ,8.4047 ,0.97850 ,4.63804 ,45.50844 
38 ,8.6128 ,0.98056 ,4.62435 ,45.37413 
39 ,8.8207 ,0.98271 ,4.60040 ,45.13908 
40 ,9.0284 ,0.98475 ,4.55933 ,44.73614 
41 ,9.2369 ,0.98682 ,4.57302 ,44.87045 
42 ,9.4450 ,0.98889 ,4.53195 ,44.46751 
43 ,9.6530 ,0.99095 ,4.51484 ,44.29962 
44 ,9.8611 ,0.99308 ,4.50115 ,44.16531 
45 ,10.0689 ,0.99515 ,4.47720 ,43.93026 
46 ,10.2773 ,0.99729 ,4.47035 ,43.86310 
47 ,10.4854 ,0.99936 ,4.44982 ,43.66163 
48 ,10.6936 ,1.00134 ,4.42586 ,43.42659 
49 ,10.9175 ,1.00359 ,4.42244 ,43.39301 
50 ,11.1254 ,1.00571 ,4.37453 ,42.92291 
51 ,11.3337 ,1.00777 ,4.37453 ,42.92291 
52 ,11.5419 ,1.00979 ,4.33004 ,42.48639 
53 ,11.7495 ,1.01191 ,4.31293 ,42.31850 
54 ,11.9580 ,1.01404 ,4.33004 ,42.48639 
55 ,12.1663 ,1.01612 ,4.29240 ,42.11703 
56 ,12.3737 ,1.01826 ,4.26845 ,41.88198 
57 ,12.5824 ,1.02027 ,4.25476 ,41.74767 
58 ,12.7904 ,1.02233 ,4.21369 ,41.34473 
59 ,12.9984 ,1.02438 ,4.21369 ,41.34473 
60 ,13.2223 ,1.02664 ,4.18974 ,41.10968 
61 ,13.4303 ,1.02882 ,4.17605 ,40.97537 
62 ,13.6548 ,1.03097 ,4.15894 ,40.80748 
63 ,13.8787 ,1.03319 ,4.13498 ,40.57243 
64 ,14.0868 ,1.03526 ,4.10760 ,40.30380 
65 ,14.2948 ,1.03736 ,4.10076 ,40.23665 
66 ,14.5029 ,1.03941 ,4.08023 ,40.03518 
67 ,14.7431 ,1.04179 ,4.04600 ,39.69940 
68 ,14.9672 ,1.04408 ,4.02889 ,39.53150 
69 ,15.1756 ,1.04618 ,4.00836 ,39.33003 
70 ,15.3834 ,1.04822 ,3.99125 ,39.16214 
71 ,15.5916 ,1.05031 ,3.96729 ,38.92709 
72 ,15.8477 ,1.05276 ,3.94676 ,38.72562 
73 ,16.0719 ,1.05515 ,3.90912 ,38.35626 
74 ,16.2956 ,1.05733 ,3.90227 ,38.28911 
75 ,16.5200 ,1.05964 ,3.90570 ,38.32268 
76 ,16.7441 ,1.06184 ,3.88174 ,38.08764 
77 ,16.9842 ,1.06423 ,3.85436 ,37.81901 
78 ,17.2084 ,1.06651 ,3.82014 ,37.48323 
79 ,17.4323 ,1.06875 ,3.80987 ,37.38249 
80 ,17.6405 ,1.07081 ,3.81672 ,37.44965 
81 ,17.8483 ,1.07288 ,3.75854 ,36.87882 
82 ,18.0726 ,1.07522 ,3.74828 ,36.77808 
83 ,18.2808 ,1.07721 ,3.74828 ,36.77808 
84 ,18.5048 ,1.07950 ,3.72774 ,36.57661 
85 ,18.7130 ,1.08154 ,3.68325 ,36.14010 
86 ,18.9210 ,1.08363 ,3.69352 ,36.24083 
87 ,19.1451 ,1.08588 ,3.66272 ,35.93863 
88 ,19.3531 ,1.08795 ,3.62166 ,35.53569 
89 ,19.5613 ,1.09000 ,3.63192 ,35.63642 
90 ,19.7693 ,1.09213 ,3.60454 ,35.36779 
91 ,19.9775 ,1.09417 ,3.58401 ,35.16632 
92 ,20.2011 ,1.09645 ,3.57375 ,35.06559 
93 ,20.4096 ,1.09849 ,3.53610 ,34.69623 
94 ,20.6338 ,1.10073 ,3.52584 ,34.59549 
95 ,20.8419 ,1.10283 ,3.52926 ,34.62907 
96 ,21.0499 ,1.10486 ,3.47450 ,34.09182 
97 ,21.2577 ,1.10701 ,3.46424 ,33.99108 
98 ,21.4819 ,1.10920 ,3.46766 ,34.02466 
99 ,21.7059 ,1.11147 ,3.44028 ,33.75604 
100 ,21.9142 ,1.11350 ,3.40606 ,33.42025 
101 ,22.1380 ,1.11574 ,3.39579 ,33.31952 
102 ,22.3464 ,1.11783 ,3.37526 ,33.11805 
103 ,22.5544 ,1.11994 ,3.35130 ,32.88300 
104 ,22.7784 ,1.12211 ,3.35130 ,32.88300 
105 ,22.9867 ,1.12423 ,3.33077 ,32.68153 
106 ,23.1947 ,1.12637 ,3.29655 ,32.34575 
107 ,23.4028 ,1.12844 ,3.28628 ,32.24501 
108 ,23.6106 ,1.13047 ,3.24864 ,31.87565 
109 ,23.8190 ,1.13256 ,3.24180 ,31.80849 
110 ,24.0270 ,1.13463 ,3.23837 ,31.77492 
111 ,24.2191 ,1.13660 ,3.19731 ,31.37198 
112 ,24.3951 ,1.13847 ,3.19388 ,31.33840 
113 ,24.6031 ,1.14044 ,3.19388 ,31.33840 
114 ,24.8275 ,1.14269 ,3.15624 ,30.96904 
115 ,25.0516 ,1.14492 ,3.14597 ,30.86830 
116 ,25.2597 ,1.14692 ,3.12202 ,30.63325 
117 ,25.4834 ,1.14918 ,3.11860 ,30.59968 
118 ,25.6916 ,1.15127 ,3.07069 ,30.12958 
119 ,25.9156 ,1.15360 ,3.07411 ,30.16316 
120 ,26.1239 ,1.15564 ,3.06042 ,30.02884 
121 ,26.3320 ,1.15768 ,3.02278 ,29.65948 
122 ,26.5560 ,1.15992 ,3.00909 ,29.52517 
123 ,26.7643 ,1.16199 ,3.01593 ,29.59233 
124 ,26.9723 ,1.16408 ,2.97144 ,29.15581 
125 ,27.1804 ,1.16612 ,2.96460 ,29.08865 
126 ,27.3886 ,1.16820 ,2.95091 ,28.95434 
127 ,27.5967 ,1.17045 ,2.92011 ,28.65213 
128 ,27.8046 ,1.17250 ,2.89616 ,28.41709 
129 ,28.0123 ,1.17463 ,2.88931 ,28.34993 
130 ,28.2205 ,1.17654 ,2.86536 ,28.11488 
131 ,28.4289 ,1.17859 ,2.86193 ,28.08130 
132 ,28.6370 ,1.18072 ,2.82087 ,27.67836 
133 ,28.8452 ,1.18286 ,2.82771 ,27.74552 
134 ,29.0529 ,1.18488 ,2.80034 ,27.47689 
135 ,29.2772 ,1.18712 ,2.77638 ,27.24185 
136 ,29.5012 ,1.18934 ,2.75585 ,27.04038 
137 ,29.7093 ,1.19146 ,2.76269 ,27.10753 
138 ,29.9336 ,1.19367 ,2.73189 ,26.80533 
139 ,30.1577 ,1.19590 ,2.69083 ,26.40239 
140 ,30.3819 ,1.19820 ,2.68740 ,26.36881 
141 ,30.6057 ,1.20044 ,2.66687 ,26.16734 
142 ,30.8300 ,1.20266 ,2.66003 ,26.10018 
143 ,31.0542 ,1.20493 ,2.63265 ,25.83156 
144 ,31.2621 ,1.20699 ,2.61212 ,25.63009 
145 ,31.4702 ,1.20909 ,2.60527 ,25.56293 
146 ,31.6942 ,1.21130 ,2.58474 ,25.36146 
147 ,31.9024 ,1.21339 ,2.56078 ,25.12641 
148 ,32.1264 ,1.21563 ,2.55052 ,25.02568 
149 ,32.3348 ,1.21770 ,2.52998 ,24.82421 
150 ,32.5425 ,1.21993 ,2.50261 ,24.55558 
151 ,32.7508 ,1.22180 ,2.50945 ,24.62274 
152 ,32.9749 ,1.22411 ,2.48207 ,24.35411 
153 ,33.1826 ,1.22611 ,2.45127 ,24.05191 
154 ,33.3912 ,1.22821 ,2.45470 ,24.08549 
155 ,33.6149 ,1.23045 ,2.43074 ,23.85044 
156 ,33.8233 ,1.23257 ,2.40336 ,23.58181 
157 ,34.0473 ,1.23480 ,2.39652 ,23.51465 
158 ,34.2551 ,1.23687 ,2.37599 ,23.31318 
159 ,34.4634 ,1.23894 ,2.33492 ,22.91024 
160 ,34.6713 ,1.24102 ,2.35203 ,23.07814 
161 ,34.8798 ,1.24312 ,2.32808 ,22.84309 
162 ,35.1037 ,1.24535 ,2.28359 ,22.40657 
163 ,35.3119 ,1.24745 ,2.30070 ,22.57446 
164 ,35.5356 ,1.24964 ,2.27674 ,22.33941 
165 ,35.7438 ,1.25175 ,2.24252 ,22.00363 
166 ,35.9522 ,1.25391 ,2.24937 ,22.07079 
167 ,36.1761 ,1.25611 ,2.23568 ,21.93647 
168 ,36.3840 ,1.25828 ,2.21172 ,21.70143 
169 ,36.6085 ,1.26047 ,2.19803 ,21.56711 
170 ,36.8165 ,1.26248 ,2.19119 ,21.49996 
171 ,37.0565 ,1.26479 ,2.14328 ,21.02986 
172 ,37.2808 ,1.26711 ,2.13986 ,20.99628 
173 ,37.5048 ,1.26934 ,2.10906 ,20.69408 
174 ,37.7129 ,1.27146 ,2.10564 ,20.66050 
175 ,37.9367 ,1.27370 ,2.08168 ,20.42545 
176 ,38.1610 ,1.27600 ,2.06457 ,20.25756 
177 ,38.3852 ,1.27813 ,2.02693 ,19.88820 
178 ,38.5934 ,1.28026 ,2.04061 ,20.02251 
179 ,38.8015 ,1.28231 ,2.00639 ,19.68673 
180 ,39.0095 ,1.28443 ,2.00297 ,19.65315 
181 ,39.2336 ,1.28666 ,1.99955 ,19.61957 
182 ,39.4576 ,1.28892 ,1.97902 ,19.41810 
183 ,39.6658 ,1.29100 ,1.93111 ,18.94801 
184 ,39.8899 ,1.29322 ,1.92768 ,18.91443 
185 ,40.1140 ,1.29537 ,1.92084 ,18.84727 
186 ,40.3380 ,1.29771 ,1.90715 ,18.71296 
187 ,40.5623 ,1.29997 ,1.87977 ,18.44433 
188 ,40.7862 ,1.30221 ,1.85924 ,18.24286 
189 ,41.0102 ,1.30441 ,1.84897 ,18.14213 
190 ,41.2343 ,1.30657 ,1.83871 ,18.04139 
191 ,41.4422 ,1.30874 ,1.80449 ,17.70561 
192 ,41.6507 ,1.31082 ,1.80449 ,17.70561 
193 ,41.8588 ,1.31297 ,1.78053 ,17.47056 
194 ,42.0828 ,1.31512 ,1.75315 ,17.20193 
195 ,42.2910 ,1.31724 ,1.74289 ,17.10120 
196 ,42.5145 ,1.31944 ,1.74631 ,17.13478 
197 ,42.7231 ,1.32155 ,1.70524 ,16.73184 
198 ,42.9471 ,1.32377 ,1.68129 ,16.49679 
199 ,43.1553 ,1.32582 ,1.70524 ,16.73184 
200 ,43.3950 ,1.32823 ,1.67786 ,16.46321 
201 ,43.6349 ,1.33053 ,1.65733 ,16.26174 
202 ,43.8591 ,1.33292 ,1.62653 ,15.95954 
203 ,44.0832 ,1.33514 ,1.61284 ,15.82522 
204 ,44.3072 ,1.33744 ,1.59231 ,15.62375 
205 ,44.5314 ,1.33958 ,1.58204 ,15.52302 
206 ,44.7714 ,1.34193 ,1.56493 ,15.35513 
207 ,44.9800 ,1.34416 ,1.55467 ,15.25439 
208 ,45.2039 ,1.34634 ,1.51360 ,14.85145 
209 ,45.4120 ,1.34843 ,1.51360 ,14.85145 
210 ,45.6202 ,1.35048 ,1.51018 ,14.81787 
211 ,45.8279 ,1.35264 ,1.47596 ,14.48209 
212 ,46.0362 ,1.35465 ,1.48280 ,14.54925 
213 ,46.2601 ,1.35687 ,1.44858 ,14.21346 
214 ,46.4523 ,1.35895 ,1.41778 ,13.91126 
215 ,46.6608 ,1.36088 ,1.43489 ,14.07915 
216 ,46.8686 ,1.36296 ,1.39383 ,13.67621 
217 ,47.0929 ,1.36522 ,1.38698 ,13.60906 
218 ,47.3007 ,1.36738 ,1.38014 ,13.54190 
219 ,47.5090 ,1.36936 ,1.34934 ,13.23969 
220 ,47.7171 ,1.37144 ,1.36303 ,13.37401 
221 ,47.9412 ,1.37367 ,1.32880 ,13.03822 
222 ,48.1492 ,1.37583 ,1.30143 ,12.76960 
223 ,48.3738 ,1.37800 ,1.30143 ,12.76960 
224 ,48.5976 ,1.38020 ,1.29116 ,12.66886 
225 ,48.8215 ,1.38248 ,1.27063 ,12.46739 
226 ,49.0298 ,1.38453 ,1.23641 ,12.13161 
227 ,49.2534 ,1.38669 ,1.24667 ,12.23235 
228 ,49.4617 ,1.38891 ,1.22614 ,12.03088 
229 ,49.6856 ,1.39114 ,1.19876 ,11.76225 
230 ,49.8939 ,1.39319 ,1.18850 ,11.66151 
231 ,50.1181 ,1.39545 ,1.18850 ,11.66151 
232 ,50.4383 ,1.39810 ,1.14743 ,11.25857 
233 ,50.6620 ,1.40093 ,1.14743 ,11.25857 
234 ,50.8545 ,1.40290 ,1.11663 ,10.95637 
235 ,51.0624 ,1.40484 ,1.11663 ,10.95637 
236 ,51.2709 ,1.40701 ,1.07899 ,10.58701 
237 ,51.4946 ,1.40928 ,1.09267 ,10.72132 
238 ,51.7188 ,1.41142 ,1.06872 ,10.48627 
239 ,51.9109 ,1.41352 ,1.03108 ,10.11691 
240 ,52.1190 ,1.41543 ,1.05161 ,10.31838 
241 ,52.3431 ,1.41769 ,1.01739 ,9.98260 
242 ,52.5511 ,1.41979 ,0.99343 ,9.74755 
243 ,52.7593 ,1.42180 ,1.00370 ,9.84829 
244 ,52.9672 ,1.42396 ,0.96605 ,9.47892 
245 ,53.1756 ,1.42599 ,0.96948 ,9.51250 
246 ,53.3834 ,1.42807 ,0.95921 ,9.41177 
247 ,53.6072 ,1.43039 ,0.91814 ,9.00883 
248 ,53.8156 ,1.43240 ,0.92157 ,9.04241 
249 ,54.0239 ,1.43454 ,0.91472 ,8.97525 
250 ,54.2479 ,1.43676 ,0.88734 ,8.70662 
251 ,54.4558 ,1.43881 ,0.87708 ,8.60589 
252 ,54.6638 ,1.44090 ,0.86681 ,8.50515 
253 ,54.8881 ,1.44310 ,0.83601 ,8.20295 
254 ,55.1124 ,1.44537 ,0.81890 ,8.03506 
255 ,55.3201 ,1.44750 ,0.82917 ,8.13579 
256 ,55.5440 ,1.44970 ,0.80179 ,7.86717 
257 ,55.7521 ,1.45177 ,0.77441 ,7.59854 
258 ,55.9603 ,1.45396 ,0.78810 ,7.73285 
259 ,56.1525 ,1.45589 ,0.76415 ,7.49780 
260 ,56.3609 ,1.45791 ,0.75046 ,7.36349 
261 ,56.5850 ,1.46005 ,0.72992 ,7.16202 
262 ,56.8089 ,1.46240 ,0.70255 ,6.89340 
263 ,57.0330 ,1.46458 ,0.69228 ,6.79266 
264 ,57.2570 ,1.46681 ,0.68201 ,6.69193 
265 ,57.4654 ,1.46891 ,0.67859 ,6.65835 
266 ,57.6891 ,1.47121 ,0.65121 ,6.38972 
267 ,57.8971 ,1.47317 ,0.63410 ,6.22183 
268 ,58.1054 ,1.47524 ,0.64095 ,6.28899 
269 ,58.2970 ,1.47731 ,0.60673 ,5.95320 
270 ,58.5055 ,1.47927 ,0.60330 ,5.91962 
271 ,58.7296 ,1.48152 ,0.57935 ,5.68458 
272 ,58.9377 ,1.48365 ,0.57593 ,5.65100 
273 ,59.1455 ,1.48572 ,0.55882 ,5.48311 
274 ,59.3541 ,1.48781 ,0.52459 ,5.14732 
275 ,59.5621 ,1.48987 ,0.54855 ,5.38237 
276 ,59.7701 ,1.49197 ,0.50406 ,4.94585 
277 ,59.9784 ,1.49405 ,0.50748 ,4.97943 
278 ,60.2020 ,1.49625 ,0.50064 ,4.91228 
279 ,60.4264 ,1.49845 ,0.48353 ,4.74438 
280 ,60.6506 ,1.50071 ,0.45273 ,4.44218 
281 ,60.8587 ,1.50281 ,0.44588 ,4.37502 
282 ,61.0668 ,1.50497 ,0.45615 ,4.47576 
283 ,61.2751 ,1.50698 ,0.42193 ,4.13997 
284 ,61.4988 ,1.50923 ,0.40824 ,4.00566 
285 ,61.7230 ,1.51143 ,0.40482 ,3.97208 
286 ,61.9311 ,1.51356 ,0.37402 ,3.66988 
287 ,62.1552 ,1.51577 ,0.35691 ,3.50199 
288 ,62.3634 ,1.51790 ,0.37060 ,3.63630 
289 ,62.5711 ,1.51992 ,0.33295 ,3.26694 
290 ,62.7789 ,1.52199 ,0.32611 ,3.19978 
291 ,63.0029 ,1.52427 ,0.32611 ,3.19978 
292 ,63.2112 ,1.52640 ,0.28162 ,2.76326 
293 ,63.4517 ,1.52876 ,0.27478 ,2.69611 
294 ,63.6598 ,1.53080 ,0.26451 ,2.59537 
295 ,63.8675 ,1.53288 ,0.25424 ,2.49464 
296 ,64.0599 ,1.53489 ,0.23713 ,2.32675 
297 ,64.2681 ,1.53689 ,0.24398 ,2.39390 
298 ,64.4760 ,1.53896 ,0.20633 ,2.02454 
299 ,64.6838 ,1.54106 ,0.22344 ,2.19243 
300 ,64.8922 ,1.54320 ,0.18580 ,1.82307 
301 ,65.1001 ,1.54534 ,0.16527 ,1.62160 
302 ,65.3084 ,1.54736 ,0.17896 ,1.75592 
303 ,65.5325 ,1.54953 ,0.16185 ,1.58802 
304 ,65.7405 ,1.55158 ,0.14816 ,1.45371 
305 ,65.9808 ,1.55390 ,0.15158 ,1.48729 
306 ,66.2049 ,1.55626 ,0.12078 ,1.18508 
307 ,66.4289 ,1.55848 ,0.10709 ,1.05077 
308 ,66.6369 ,1.56056 ,0.07971 ,0.78214 
309 ,66.8449 ,1.56263 ,0.08656 ,0.84930 
310 ,67.0532 ,1.56476 ,0.04549 ,0.44636 
311 ,67.2451 ,1.56683 ,0.05576 ,0.54710 
312 ,67.4530 ,1.56878 ,0.02838 ,0.27847 
313 ,67.6611 ,1.57090 ,0.01811 ,0.17773 
314 ,67.8851 ,1.57299 ,0.02838 ,0.27847 
315 ,68.0936 ,1.57517 ,0.00100 ,0.00984 
316 ,68.3176 ,1.57732 ,-0.03322 ,-0.32594 
317 ,68.5417 ,1.57960 ,-0.02637 ,-0.25878 
318 ,68.7498 ,1.58168 ,-0.02980 ,-0.29236 
319 ,68.9578 ,1.58377 ,-0.07086 ,-0.69530 
320 ,69.1817 ,1.58600 ,-0.07428 ,-0.72888 
321 ,69.3899 ,1.58811 ,-0.07771 ,-0.76246 
322 ,69.6142 ,1.59032 ,-0.09140 ,-0.89677 
323 ,69.8222 ,1.59241 ,-0.10508 ,-1.03108 
324 ,70.0464 ,1.59467 ,-0.10508 ,-1.03108 
325 ,70.2540 ,1.59675 ,-0.13246 ,-1.29971 
326 ,70.4625 ,1.59881 ,-0.14615 ,-1.43402 
327 ,70.6707 ,1.60091 ,-0.15642 ,-1.53476 
328 ,70.8788 ,1.60296 ,-0.18379 ,-1.80338 
329 ,71.1025 ,1.60524 ,-0.17353 ,-1.70265 
330 ,71.3104 ,1.60729 ,-0.18379 ,-1.80338 
331 ,71.5510 ,1.60956 ,-0.21117 ,-2.07201 
332 ,71.7749 ,1.61193 ,-0.21802 ,-2.13917 
333 ,71.9829 ,1.61400 ,-0.22486 ,-2.20632 
334 ,72.2071 ,1.61628 ,-0.23855 ,-2.34064 
335 ,72.4149 ,1.61838 ,-0.27277 ,-2.67642 
336 ,72.6393 ,1.62058 ,-0.27619 ,-2.71000 
337 ,72.8634 ,1.62283 ,-0.28304 ,-2.77716 
338 ,73.0717 ,1.62487 ,-0.28304 ,-2.77716 
339 ,73.3276 ,1.62730 ,-0.30015 ,-2.94505 
340 ,73.5356 ,1.62952 ,-0.32752 ,-3.21367 
341 ,73.7599 ,1.63181 ,-0.34806 ,-3.41514 
342 ,73.9836 ,1.63402 ,-0.34121 ,-3.34799 
343 ,74.1918 ,1.63608 ,-0.35148 ,-3.44872 
344 ,74.4002 ,1.63818 ,-0.38912 ,-3.81808 
345 ,74.6243 ,1.64042 ,-0.38570 ,-3.78450 
346 ,74.8484 ,1.64256 ,-0.39255 ,-3.85166 
347 ,75.0725 ,1.64490 ,-0.39939 ,-3.91882 
348 ,75.2805 ,1.64697 ,-0.44388 ,-4.35534 
349 ,75.4886 ,1.64908 ,-0.41650 ,-4.08671 
350 ,75.7126 ,1.65129 ,-0.42335 ,-4.15387 
351 ,75.9207 ,1.65344 ,-0.45757 ,-4.48965 
352 ,76.1447 ,1.65559 ,-0.46441 ,-4.55681 
353 ,76.3529 ,1.65774 ,-0.47468 ,-4.65754 
354 ,76.5448 ,1.65970 ,-0.51232 ,-5.02690 
355 ,76.7531 ,1.66172 ,-0.49863 ,-4.89259 
356 ,76.9607 ,1.66374 ,-0.52259 ,-5.12764 
357 ,77.1532 ,1.66583 ,-0.51917 ,-5.09406 
358 ,77.3613 ,1.66778 ,-0.54312 ,-5.32911 
359 ,77.5694 ,1.66983 ,-0.53628 ,-5.26195 
360 ,77.7776 ,1.67190 ,-0.56365 ,-5.53058 
361 ,77.9853 ,1.67415 ,-0.58077 ,-5.69847 
362 ,78.1935 ,1.67616 ,-0.58077 ,-5.69847 
363 ,78.4175 ,1.67830 ,-0.60472 ,-5.93352 
364 ,78.6258 ,1.68039 ,-0.60814 ,-5.96709 
365 ,78.8498 ,1.68270 ,-0.60130 ,-5.89994 
366 ,79.0742 ,1.68489 ,-0.61499 ,-6.03425 
367 ,79.2980 ,1.68714 ,-0.66290 ,-6.50435 
368 ,79.5061 ,1.68934 ,-0.66974 ,-6.57150 
369 ,79.7143 ,1.69126 ,-0.64579 ,-6.33646 
370 ,79.9224 ,1.69342 ,-0.66974 ,-6.57150 
371 ,80.1464 ,1.69562 ,-0.68685 ,-6.73940 
372 ,80.3544 ,1.69766 ,-0.69027 ,-6.77297 
373 ,80.5628 ,1.69977 ,-0.72450 ,-7.10876 
374 ,80.7867 ,1.70203 ,-0.72792 ,-7.14233 
375 ,80.9948 ,1.70425 ,-0.72792 ,-7.14233 
376 ,81.2029 ,1.70617 ,-0.74845 ,-7.34380 
377 ,81.4105 ,1.70826 ,-0.73476 ,-7.20949 
378 ,81.6031 ,1.71028 ,-0.76214 ,-7.47812 
379 ,81.8113 ,1.71232 ,-0.75530 ,-7.41096 
380 ,82.0191 ,1.71433 ,-0.78952 ,-7.74674 
381 ,82.2274 ,1.71645 ,-0.80321 ,-7.88106 
382 ,82.4353 ,1.71853 ,-0.79978 ,-7.84748 
383 ,82.6596 ,1.72075 ,-0.82716 ,-8.11611 
384 ,82.8833 ,1.72301 ,-0.84085 ,-8.25042 
385 ,83.0919 ,1.72505 ,-0.83058 ,-8.14968 
386 ,83.2998 ,1.72716 ,-0.86138 ,-8.45189 
387 ,83.5239 ,1.72935 ,-0.87507 ,-8.58620 
388 ,83.7319 ,1.73149 ,-0.86823 ,-8.51904 
389 ,83.9559 ,1.73370 ,-0.87849 ,-8.61978 
390 ,84.1802 ,1.73593 ,-0.89560 ,-8.78767 
391 ,84.4203 ,1.73838 ,-0.91956 ,-9.02272 
392 ,84.6439 ,1.74054 ,-0.94351 ,-9.25777 
393 ,84.8523 ,1.74270 ,-0.91956 ,-9.02272 
394 ,85.0767 ,1.74490 ,-0.92983 ,-9.12345 
395 ,85.3006 ,1.74713 ,-0.96063 ,-9.42566 
396 ,85.5087 ,1.74921 ,-0.98116 ,-9.62713 
397 ,85.7166 ,1.75127 ,-0.95378 ,-9.35850 
398 ,85.9248 ,1.75343 ,-0.99827 ,-9.79502 
399 ,86.1328 ,1.75544 ,-0.99143 ,-9.72786 
400 ,86.3407 ,1.75751 ,-1.00511 ,-9.86218 
401 ,86.5490 ,1.75958 ,-1.01880 ,-9.99649 
402 ,86.7570 ,1.76166 ,-1.02907 ,-10.09723 
403 ,86.9809 ,1.76398 ,-1.03249 ,-10.13080 
404 ,87.1894 ,1.76599 ,-1.04618 ,-10.26512 
405 ,87.3975 ,1.76813 ,-1.04276 ,-10.23154 
406 ,87.6054 ,1.77017 ,-1.07014 ,-10.50016 
407 ,87.8137 ,1.77227 ,-1.05645 ,-10.36585 
408 ,88.0053 ,1.77436 ,-1.09067 ,-10.70163 
409 ,88.2298 ,1.77641 ,-1.09751 ,-10.76879 
410 ,88.4539 ,1.77870 ,-1.10778 ,-10.86953 
411 ,88.6782 ,1.78094 ,-1.12147 ,-11.00384 
412 ,88.9023 ,1.78316 ,-1.12831 ,-11.07100 
413 ,89.1258 ,1.78537 ,-1.14200 ,-11.20531 
414 ,89.3501 ,1.78766 ,-1.16596 ,-11.44036 
415 ,89.5584 ,1.78976 ,-1.14884 ,-11.27247 
416 ,89.7662 ,1.79188 ,-1.17622 ,-11.54109 
417 ,89.9747 ,1.79389 ,-1.17280 ,-11.50751 
418 ,90.1988 ,1.79610 ,-1.18307 ,-11.60825 
419 ,90.4225 ,1.79836 ,-1.21044 ,-11.87688 
420 ,90.6469 ,1.80058 ,-1.22755 ,-12.04477 
421 ,90.8550 ,1.80265 ,-1.22071 ,-11.97761 
422 ,91.0631 ,1.80475 ,-1.20702 ,-11.84330 
423 ,91.2714 ,1.80683 ,-1.24124 ,-12.17908 
424 ,91.4793 ,1.80893 ,-1.23098 ,-12.07834 
425 ,91.6875 ,1.81100 ,-1.27547 ,-12.51486 
426 ,91.9113 ,1.81321 ,-1.27204 ,-12.48128 
427 ,92.1195 ,1.81527 ,-1.27889 ,-12.54844 
428 ,92.3435 ,1.81754 ,-1.28915 ,-12.64918 
429 ,92.5516 ,1.81960 ,-1.30284 ,-12.78349 
430 ,92.7599 ,1.82164 ,-1.30626 ,-12.81707 
431 ,92.9677 ,1.82383 ,-1.33022 ,-13.05212 
432 ,93.1759 ,1.82584 ,-1.34049 ,-13.15285 
433 ,93.3838 ,1.82796 ,-1.33706 ,-13.11927 
434 ,93.5917 ,1.83002 ,-1.37471 ,-13.48863 
435 ,93.8000 ,1.83218 ,-1.35760 ,-13.32074 
436 ,94.0244 ,1.83432 ,-1.37129 ,-13.45506 
437 ,94.2325 ,1.83646 ,-1.39182 ,-13.65653 
438 ,94.4565 ,1.83866 ,-1.38497 ,-13.58937 
439 ,94.6643 ,1.84082 ,-1.40209 ,-13.75726 
440 ,94.8728 ,1.84280 ,-1.42604 ,-13.99231 
441 ,95.0967 ,1.84508 ,-1.43973 ,-14.12662 
442 ,95.3210 ,1.84728 ,-1.43288 ,-14.05946 
443 ,95.5611 ,1.84971 ,-1.42604 ,-13.99231 
444 ,95.7846 ,1.85194 ,-1.46026 ,-14.32809 
445 ,95.9933 ,1.85405 ,-1.47737 ,-14.49598 
446 ,96.2010 ,1.85611 ,-1.46368 ,-14.36167 
447 ,96.4415 ,1.85840 ,-1.47737 ,-14.49598 
448 ,96.6653 ,1.86075 ,-1.49448 ,-14.66387 
449 ,96.8734 ,1.86283 ,-1.52186 ,-14.93250 
450 ,97.0977 ,1.86509 ,-1.50475 ,-14.76461 
451 ,97.3217 ,1.86726 ,-1.51502 ,-14.86534 
452 ,97.5138 ,1.86937 ,-1.52871 ,-14.99966 
453 ,97.7219 ,1.87137 ,-1.53213 ,-15.03324 
454 ,97.9301 ,1.87337 ,-1.56293 ,-15.33544 
455 ,98.1701 ,1.87571 ,-1.56635 ,-15.36902 
456 ,98.3779 ,1.87787 ,-1.56977 ,-15.40260 
457 ,98.5861 ,1.87991 ,-1.58346 ,-15.53691 
458 ,98.7944 ,1.88200 ,-1.58346 ,-15.53691 
459 ,99.0025 ,1.88405 ,-1.59373 ,-15.63764 
460 ,99.2264 ,1.88628 ,-1.59373 ,-15.63764 
