Data stamp = , 18-05-2022 22:07:38 421

Calibration Values: 
Slope = , 26.54 , g/V 
Offset Voltage at no contact = , -0.501760 , V 

No , Time , Stage Position ,   Mass , Force 
   ,  (s) ,      (mm)      ,   (g)  , (mN)  

1 ,0.0000 ,0.89963 ,5.32247 ,52.22410 
2 ,0.2086 ,0.89972 ,5.31905 ,52.19052 
3 ,1.0414 ,0.90342 ,5.31221 ,52.12337 
4 ,1.2815 ,0.90701 ,5.28483 ,51.85474 
5 ,1.5215 ,0.90946 ,5.28483 ,51.85474 
6 ,1.7456 ,0.91179 ,5.25061 ,51.51896 
7 ,1.9539 ,0.91390 ,5.25061 ,51.51896 
8 ,2.1620 ,0.91599 ,5.22323 ,51.25033 
9 ,2.3697 ,0.91803 ,5.21639 ,51.18317 
10 ,2.5777 ,0.92008 ,5.19927 ,51.01528 
11 ,2.8179 ,0.92239 ,5.16505 ,50.67950 
12 ,3.0423 ,0.92469 ,5.12741 ,50.31014 
13 ,3.2504 ,0.92683 ,5.11030 ,50.14225 
14 ,3.4580 ,0.92890 ,5.09661 ,50.00793 
15 ,3.6665 ,0.93098 ,5.04528 ,49.50426 
16 ,3.8904 ,0.93327 ,5.03843 ,49.43710 
17 ,4.0988 ,0.93531 ,5.04185 ,49.47068 
18 ,4.3227 ,0.93754 ,5.00079 ,49.06774 
19 ,4.5304 ,0.93967 ,4.98368 ,48.89985 
20 ,4.7386 ,0.94173 ,4.97341 ,48.79911 
21 ,4.9629 ,0.94397 ,4.94261 ,48.49691 
22 ,5.1711 ,0.94603 ,4.91866 ,48.26186 
23 ,5.3793 ,0.94807 ,4.91866 ,48.26186 
24 ,5.5873 ,0.95018 ,4.86390 ,47.72461 
25 ,5.8112 ,0.95250 ,4.87759 ,47.85892 
26 ,6.0355 ,0.95468 ,4.85364 ,47.62387 
27 ,6.2594 ,0.95694 ,4.82284 ,47.32167 
28 ,6.4520 ,0.95887 ,4.78177 ,46.91873 
29 ,6.6755 ,0.96107 ,4.78519 ,46.95231 
30 ,6.9154 ,0.96346 ,4.75782 ,46.68368 
31 ,7.1236 ,0.96557 ,4.72017 ,46.31432 
32 ,7.3482 ,0.96777 ,4.68595 ,45.97854 
33 ,7.5720 ,0.97002 ,4.68937 ,46.01212 
34 ,7.7801 ,0.97204 ,4.66884 ,45.81065 
35 ,7.9882 ,0.97422 ,4.63462 ,45.47486 
36 ,8.1803 ,0.97624 ,4.63119 ,45.44128 
37 ,8.3883 ,0.97824 ,4.60382 ,45.17266 
38 ,8.5803 ,0.98022 ,4.59355 ,45.07192 
39 ,8.7887 ,0.98223 ,4.56617 ,44.80330 
40 ,8.9963 ,0.98426 ,4.55249 ,44.66898 
41 ,9.2207 ,0.98650 ,4.54564 ,44.60183 
42 ,9.4449 ,0.98875 ,4.50800 ,44.23247 
43 ,9.6689 ,0.99098 ,4.47035 ,43.86310 
44 ,9.8772 ,0.99311 ,4.47720 ,43.93026 
45 ,10.1008 ,0.99528 ,4.47035 ,43.86310 
46 ,10.3093 ,0.99741 ,4.41902 ,43.35943 
47 ,10.5331 ,0.99964 ,4.40875 ,43.25870 
48 ,10.7575 ,1.00188 ,4.41560 ,43.32585 
49 ,10.9976 ,1.00417 ,4.37111 ,42.88933 
50 ,11.2052 ,1.00640 ,4.34373 ,42.62071 
51 ,11.4137 ,1.00854 ,4.32320 ,42.41924 
52 ,11.6377 ,1.01070 ,4.32320 ,42.41924 
53 ,11.8300 ,1.01267 ,4.26845 ,41.88198 
54 ,12.0539 ,1.01481 ,4.27187 ,41.91556 
55 ,12.2622 ,1.01689 ,4.25818 ,41.78125 
56 ,12.4862 ,1.01921 ,4.22053 ,41.41189 
57 ,12.6941 ,1.02118 ,4.22053 ,41.41189 
58 ,12.8703 ,1.02316 ,4.18631 ,41.07611 
59 ,13.0784 ,1.02510 ,4.18289 ,41.04253 
60 ,13.2865 ,1.02718 ,4.15551 ,40.77390 
61 ,13.4942 ,1.02922 ,4.14183 ,40.63959 
62 ,13.7346 ,1.03163 ,4.12129 ,40.43812 
63 ,13.9587 ,1.03387 ,4.11445 ,40.37096 
64 ,14.1828 ,1.03607 ,4.08023 ,40.03518 
65 ,14.3907 ,1.03822 ,4.05285 ,39.76655 
66 ,14.5986 ,1.04027 ,4.05285 ,39.76655 
67 ,14.8071 ,1.04239 ,4.01520 ,39.39719 
68 ,15.0310 ,1.04460 ,3.99809 ,39.22930 
69 ,15.2393 ,1.04671 ,3.99467 ,39.19572 
70 ,15.4474 ,1.04877 ,3.96045 ,38.85994 
71 ,15.6711 ,1.05096 ,3.92965 ,38.55773 
72 ,15.8795 ,1.05311 ,3.92965 ,38.55773 
73 ,16.1035 ,1.05531 ,3.91254 ,38.38984 
74 ,16.3275 ,1.05760 ,3.87147 ,37.98690 
75 ,16.5517 ,1.05976 ,3.87147 ,37.98690 
76 ,16.7597 ,1.06190 ,3.85436 ,37.81901 
77 ,16.9839 ,1.06415 ,3.82699 ,37.55038 
78 ,17.2081 ,1.06633 ,3.80645 ,37.34891 
79 ,17.4162 ,1.06848 ,3.79619 ,37.24818 
80 ,17.6402 ,1.07068 ,3.77908 ,37.08029 
81 ,17.8641 ,1.07288 ,3.75512 ,36.84524 
82 ,18.0882 ,1.07522 ,3.72090 ,36.50946 
83 ,18.3125 ,1.07741 ,3.69694 ,36.27441 
84 ,18.5207 ,1.07952 ,3.70379 ,36.34157 
85 ,18.7288 ,1.08161 ,3.67299 ,36.03936 
86 ,18.9528 ,1.08378 ,3.64219 ,35.73716 
87 ,19.1609 ,1.08586 ,3.64219 ,35.73716 
88 ,19.3690 ,1.08801 ,3.60797 ,35.40137 
89 ,19.5931 ,1.09022 ,3.58059 ,35.13275 
90 ,19.8171 ,1.09242 ,3.58059 ,35.13275 
91 ,20.0252 ,1.09454 ,3.57032 ,35.03201 
92 ,20.2332 ,1.09661 ,3.53268 ,34.66265 
93 ,20.4415 ,1.09866 ,3.53610 ,34.69623 
94 ,20.6497 ,1.10078 ,3.49846 ,34.32687 
95 ,20.8733 ,1.10301 ,3.48477 ,34.19255 
96 ,21.0978 ,1.10516 ,3.48819 ,34.22613 
97 ,21.3217 ,1.10744 ,3.46424 ,33.99108 
98 ,21.5295 ,1.10967 ,3.41975 ,33.55457 
99 ,21.7376 ,1.11168 ,3.39921 ,33.35310 
100 ,21.9298 ,1.11359 ,3.38210 ,33.18520 
101 ,22.1383 ,1.11564 ,3.37184 ,33.08447 
102 ,22.3459 ,1.11777 ,3.35473 ,32.91658 
103 ,22.5544 ,1.11978 ,3.31708 ,32.54722 
104 ,22.7624 ,1.12191 ,3.33419 ,32.71511 
105 ,22.9864 ,1.12418 ,3.29997 ,32.37933 
106 ,23.1946 ,1.12620 ,3.27602 ,32.14428 
107 ,23.4186 ,1.12843 ,3.27602 ,32.14428 
108 ,23.6265 ,1.13052 ,3.23837 ,31.77492 
109 ,23.8349 ,1.13265 ,3.21442 ,31.53987 
110 ,24.0428 ,1.13465 ,3.21100 ,31.50629 
111 ,24.2671 ,1.13682 ,3.17335 ,31.13693 
112 ,24.5072 ,1.13928 ,3.16309 ,31.03619 
113 ,24.7473 ,1.14170 ,3.13571 ,30.76757 
114 ,24.9714 ,1.14402 ,3.11860 ,30.59968 
115 ,25.1952 ,1.14618 ,3.11518 ,30.56610 
116 ,25.4196 ,1.14839 ,3.11175 ,30.53252 
117 ,25.6277 ,1.15049 ,3.06384 ,30.06242 
118 ,25.8517 ,1.15278 ,3.04331 ,29.86095 
119 ,26.0755 ,1.15500 ,3.03304 ,29.76022 
120 ,26.2837 ,1.15715 ,3.02278 ,29.65948 
121 ,26.4919 ,1.15919 ,2.98855 ,29.32370 
122 ,26.7000 ,1.16125 ,2.99198 ,29.35728 
123 ,26.9240 ,1.16345 ,2.97487 ,29.18939 
124 ,27.1484 ,1.16572 ,2.93380 ,28.78645 
125 ,27.3402 ,1.16779 ,2.92353 ,28.68571 
126 ,27.5322 ,1.16960 ,2.90642 ,28.51782 
127 ,27.7246 ,1.17150 ,2.90642 ,28.51782 
128 ,27.9321 ,1.17351 ,2.85851 ,28.04772 
129 ,28.1407 ,1.17566 ,2.86193 ,28.08130 
130 ,28.3648 ,1.17784 ,2.85851 ,28.04772 
131 ,28.5724 ,1.17992 ,2.81745 ,27.64479 
132 ,28.7810 ,1.18209 ,2.82087 ,27.67836 
133 ,28.9886 ,1.18422 ,2.78322 ,27.30900 
134 ,29.1971 ,1.18622 ,2.78322 ,27.30900 
135 ,29.4369 ,1.18848 ,2.76611 ,27.14111 
136 ,29.6453 ,1.19071 ,2.73874 ,26.87248 
137 ,29.8532 ,1.19276 ,2.71478 ,26.63744 
138 ,30.0614 ,1.19482 ,2.71136 ,26.60386 
139 ,30.2534 ,1.19693 ,2.66345 ,26.13376 
140 ,30.4612 ,1.19880 ,2.68398 ,26.33523 
141 ,30.6697 ,1.20092 ,2.64292 ,25.93229 
142 ,30.8938 ,1.20318 ,2.63607 ,25.86514 
143 ,31.1179 ,1.20544 ,2.61896 ,25.69724 
144 ,31.3419 ,1.20761 ,2.59843 ,25.49577 
145 ,31.5497 ,1.20973 ,2.56078 ,25.12641 
146 ,31.7580 ,1.21178 ,2.57447 ,25.26073 
147 ,31.9502 ,1.21390 ,2.53683 ,24.89136 
148 ,32.1582 ,1.21581 ,2.52656 ,24.79063 
149 ,32.3660 ,1.21789 ,2.50945 ,24.62274 
150 ,32.5743 ,1.22000 ,2.47865 ,24.32053 
151 ,32.7986 ,1.22223 ,2.48550 ,24.38769 
152 ,33.0062 ,1.22426 ,2.46839 ,24.21980 
153 ,33.2301 ,1.22652 ,2.43759 ,23.91759 
154 ,33.4546 ,1.22875 ,2.41021 ,23.64897 
155 ,33.7429 ,1.23156 ,2.40336 ,23.58181 
156 ,33.9671 ,1.23395 ,2.38625 ,23.41392 
157 ,34.1912 ,1.23609 ,2.35545 ,23.11171 
158 ,34.3992 ,1.23818 ,2.35545 ,23.11171 
159 ,34.6073 ,1.24026 ,2.32123 ,22.77593 
160 ,34.8312 ,1.24251 ,2.31781 ,22.74235 
161 ,35.0556 ,1.24477 ,2.30070 ,22.57446 
162 ,35.2634 ,1.24684 ,2.28701 ,22.44015 
163 ,35.4717 ,1.24886 ,2.24937 ,22.07079 
164 ,35.6798 ,1.25095 ,2.24937 ,22.07079 
165 ,35.9036 ,1.25324 ,2.22541 ,21.83574 
166 ,36.1279 ,1.25547 ,2.20488 ,21.63427 
167 ,36.3677 ,1.25787 ,2.19119 ,21.49996 
168 ,36.6081 ,1.26019 ,2.16381 ,21.23133 
169 ,36.8320 ,1.26252 ,2.13986 ,20.99628 
170 ,37.0403 ,1.26466 ,2.14328 ,21.02986 
171 ,37.2644 ,1.26686 ,2.13986 ,20.99628 
172 ,37.4882 ,1.26908 ,2.10564 ,20.66050 
173 ,37.6965 ,1.27127 ,2.06457 ,20.25756 
174 ,37.9045 ,1.27320 ,2.07484 ,20.35829 
175 ,38.1285 ,1.27551 ,2.04061 ,20.02251 
176 ,38.3526 ,1.27768 ,2.02008 ,19.82104 
177 ,38.5608 ,1.27976 ,2.03377 ,19.95535 
178 ,38.7689 ,1.28186 ,1.99955 ,19.61957 
179 ,38.9771 ,1.28390 ,1.97902 ,19.41810 
180 ,39.1851 ,1.28602 ,1.98586 ,19.48526 
181 ,39.3931 ,1.28812 ,1.93795 ,19.01516 
182 ,39.6013 ,1.29021 ,1.94822 ,19.11590 
183 ,39.8253 ,1.29243 ,1.93453 ,18.98158 
184 ,40.0334 ,1.29451 ,1.89004 ,18.54507 
185 ,40.2410 ,1.29670 ,1.89004 ,18.54507 
186 ,40.4495 ,1.29868 ,1.86608 ,18.31002 
187 ,40.6733 ,1.30088 ,1.84213 ,18.07497 
188 ,40.8818 ,1.30300 ,1.84213 ,18.07497 
189 ,41.1059 ,1.30512 ,1.82844 ,17.94066 
190 ,41.3296 ,1.30744 ,1.78737 ,17.53772 
191 ,41.5377 ,1.30956 ,1.78395 ,17.50414 
192 ,41.7619 ,1.31179 ,1.79422 ,17.60487 
193 ,41.9702 ,1.31388 ,1.75315 ,17.20193 
194 ,42.1944 ,1.31611 ,1.73262 ,17.00046 
195 ,42.4180 ,1.31836 ,1.72235 ,16.89973 
196 ,42.6266 ,1.32050 ,1.71209 ,16.79899 
197 ,42.8508 ,1.32266 ,1.67444 ,16.42963 
198 ,43.0587 ,1.32480 ,1.67102 ,16.39605 
199 ,43.2666 ,1.32683 ,1.65049 ,16.19458 
200 ,43.4908 ,1.32904 ,1.62653 ,15.95954 
201 ,43.7148 ,1.33139 ,1.61284 ,15.82522 
202 ,43.9229 ,1.33342 ,1.61627 ,15.85880 
203 ,44.1313 ,1.33549 ,1.59231 ,15.62375 
204 ,44.3393 ,1.33754 ,1.56836 ,15.38871 
205 ,44.5473 ,1.33965 ,1.56493 ,15.35513 
206 ,44.7552 ,1.34177 ,1.53413 ,15.05292 
207 ,44.9635 ,1.34379 ,1.53756 ,15.08650 
208 ,45.1876 ,1.34610 ,1.51360 ,14.85145 
209 ,45.4115 ,1.34828 ,1.48622 ,14.58283 
210 ,45.6197 ,1.35038 ,1.48622 ,14.58283 
211 ,45.8438 ,1.35266 ,1.48280 ,14.54925 
212 ,46.0516 ,1.35467 ,1.44858 ,14.21346 
213 ,46.2601 ,1.35672 ,1.44516 ,14.17989 
214 ,46.4681 ,1.35885 ,1.41778 ,13.91126 
215 ,46.6602 ,1.36085 ,1.39040 ,13.64263 
216 ,46.8678 ,1.36283 ,1.39040 ,13.64263 
217 ,47.0764 ,1.36499 ,1.36645 ,13.40759 
218 ,47.3326 ,1.36735 ,1.35618 ,13.30685 
219 ,47.5564 ,1.36971 ,1.31512 ,12.90391 
220 ,47.7647 ,1.37175 ,1.32880 ,13.03822 
221 ,47.9883 ,1.37408 ,1.29800 ,12.73602 
222 ,48.1967 ,1.37614 ,1.28774 ,12.63528 
223 ,48.4370 ,1.37844 ,1.27405 ,12.50097 
224 ,48.6609 ,1.38074 ,1.26720 ,12.43381 
225 ,48.8691 ,1.38284 ,1.25352 ,12.29950 
226 ,49.0768 ,1.38491 ,1.21929 ,11.96372 
227 ,49.3013 ,1.38714 ,1.22272 ,11.99730 
228 ,49.5254 ,1.38940 ,1.21929 ,11.96372 
229 ,49.7334 ,1.39148 ,1.17138 ,11.49362 
230 ,49.9417 ,1.39358 ,1.16454 ,11.42647 
231 ,50.1498 ,1.39565 ,1.14743 ,11.25857 
232 ,50.3738 ,1.39796 ,1.11321 ,10.92279 
233 ,50.5978 ,1.40008 ,1.11663 ,10.95637 
234 ,50.8060 ,1.40218 ,1.11321 ,10.92279 
235 ,51.0299 ,1.40444 ,1.07556 ,10.55343 
236 ,51.2381 ,1.40656 ,1.07214 ,10.51985 
237 ,51.4780 ,1.40884 ,1.08241 ,10.62059 
238 ,51.6861 ,1.41110 ,1.04476 ,10.25123 
239 ,51.8943 ,1.41309 ,1.01396 ,9.94902 
240 ,52.1181 ,1.41532 ,1.00370 ,9.84829 
241 ,52.3264 ,1.41739 ,0.98659 ,9.68039 
242 ,52.5345 ,1.41947 ,0.97290 ,9.54608 
243 ,52.7426 ,1.42155 ,0.96948 ,9.51250 
244 ,52.9508 ,1.42367 ,0.95921 ,9.41177 
245 ,53.1588 ,1.42572 ,0.93183 ,9.14314 
246 ,53.3669 ,1.42776 ,0.93525 ,9.17672 
247 ,53.5906 ,1.43004 ,0.90788 ,8.90809 
248 ,53.7991 ,1.43211 ,0.89419 ,8.77378 
249 ,54.0072 ,1.43428 ,0.88734 ,8.70662 
250 ,54.2312 ,1.43644 ,0.85997 ,8.43800 
251 ,54.4393 ,1.43853 ,0.84628 ,8.30368 
252 ,54.6470 ,1.44060 ,0.84628 ,8.30368 
253 ,54.8557 ,1.44276 ,0.80863 ,7.93432 
254 ,55.0796 ,1.44492 ,0.80179 ,7.86717 
255 ,55.2876 ,1.44703 ,0.79152 ,7.76643 
256 ,55.5119 ,1.44920 ,0.75730 ,7.43065 
257 ,55.7195 ,1.45136 ,0.74361 ,7.29633 
258 ,55.9281 ,1.45347 ,0.73677 ,7.22918 
259 ,56.1522 ,1.45563 ,0.71966 ,7.06129 
260 ,56.3762 ,1.45786 ,0.70255 ,6.89340 
261 ,56.5842 ,1.45996 ,0.71281 ,6.99413 
262 ,56.7923 ,1.46209 ,0.68544 ,6.72550 
263 ,57.0003 ,1.46413 ,0.67175 ,6.59119 
264 ,57.2085 ,1.46621 ,0.67859 ,6.65835 
265 ,57.4166 ,1.46836 ,0.62384 ,6.12109 
266 ,57.6405 ,1.47051 ,0.62726 ,6.15467 
267 ,57.8648 ,1.47271 ,0.62726 ,6.15467 
268 ,58.0727 ,1.47483 ,0.59646 ,5.85247 
269 ,58.2809 ,1.47688 ,0.58619 ,5.75173 
270 ,58.5211 ,1.47935 ,0.57251 ,5.61742 
271 ,58.7452 ,1.48155 ,0.56908 ,5.58384 
272 ,58.9693 ,1.48370 ,0.53486 ,5.24806 
273 ,59.1932 ,1.48607 ,0.52117 ,5.11375 
274 ,59.4172 ,1.48830 ,0.49380 ,4.84512 
275 ,59.6094 ,1.49028 ,0.49380 ,4.84512 
276 ,59.8176 ,1.49227 ,0.49037 ,4.81154 
277 ,60.0258 ,1.49437 ,0.49037 ,4.81154 
278 ,60.2496 ,1.49657 ,0.45957 ,4.50934 
279 ,60.4580 ,1.49869 ,0.43562 ,4.27429 
280 ,60.6818 ,1.50092 ,0.43904 ,4.30787 
281 ,60.8899 ,1.50305 ,0.41509 ,4.07282 
282 ,61.0980 ,1.50507 ,0.38771 ,3.80419 
283 ,61.3059 ,1.50716 ,0.38429 ,3.77061 
284 ,61.5141 ,1.50931 ,0.36033 ,3.53557 
285 ,61.7384 ,1.51149 ,0.35349 ,3.46841 
286 ,61.9465 ,1.51356 ,0.35006 ,3.43483 
287 ,62.1386 ,1.51554 ,0.31926 ,3.13263 
288 ,62.3468 ,1.51758 ,0.33295 ,3.26694 
289 ,62.5708 ,1.51982 ,0.29189 ,2.86400 
290 ,62.7789 ,1.52192 ,0.28504 ,2.79684 
291 ,63.0029 ,1.52412 ,0.28847 ,2.83042 
292 ,63.2111 ,1.52622 ,0.26793 ,2.62895 
293 ,63.4352 ,1.52844 ,0.22687 ,2.22601 
294 ,63.6431 ,1.53054 ,0.25082 ,2.46106 
295 ,63.8674 ,1.53274 ,0.23029 ,2.25959 
296 ,64.0914 ,1.53501 ,0.20976 ,2.05812 
297 ,64.3154 ,1.53720 ,0.18580 ,1.82307 
298 ,64.5075 ,1.53919 ,0.19949 ,1.95738 
299 ,64.7315 ,1.54137 ,0.15500 ,1.52087 
300 ,64.9395 ,1.54354 ,0.14131 ,1.38655 
301 ,65.1479 ,1.54559 ,0.14816 ,1.45371 
302 ,65.3562 ,1.54765 ,0.10709 ,1.05077 
303 ,65.5640 ,1.54972 ,0.12078 ,1.18508 
304 ,65.7717 ,1.55179 ,0.09340 ,0.91646 
305 ,65.9802 ,1.55387 ,0.08656 ,0.84930 
306 ,66.2043 ,1.55609 ,0.09340 ,0.91646 
307 ,66.4125 ,1.55821 ,0.06260 ,0.61425 
308 ,66.6365 ,1.56043 ,0.02496 ,0.24489 
309 ,66.8282 ,1.56238 ,0.03865 ,0.37920 
310 ,67.0368 ,1.56447 ,0.01127 ,0.11058 
311 ,67.2604 ,1.56667 ,0.00100 ,0.00984 
312 ,67.4690 ,1.56877 ,0.00443 ,0.04342 
313 ,67.6769 ,1.57088 ,-0.03322 ,-0.32594 
314 ,67.9010 ,1.57307 ,-0.02980 ,-0.29236 
315 ,68.1252 ,1.57534 ,-0.02980 ,-0.29236 
316 ,68.3491 ,1.57760 ,-0.05717 ,-0.56099 
317 ,68.5575 ,1.57957 ,-0.07771 ,-0.76246 
318 ,68.7651 ,1.58173 ,-0.07771 ,-0.76246 
319 ,68.9733 ,1.58381 ,-0.10851 ,-1.06466 
320 ,69.1973 ,1.58607 ,-0.11535 ,-1.13182 
321 ,69.4055 ,1.58818 ,-0.11535 ,-1.13182 
322 ,69.6297 ,1.59037 ,-0.13246 ,-1.29971 
323 ,69.8379 ,1.59244 ,-0.16668 ,-1.63549 
324 ,70.0941 ,1.59483 ,-0.15984 ,-1.56834 
325 ,70.3179 ,1.59729 ,-0.17695 ,-1.73623 
326 ,70.5417 ,1.59946 ,-0.17695 ,-1.73623 
327 ,70.7499 ,1.60153 ,-0.20090 ,-1.97128 
328 ,70.9423 ,1.60353 ,-0.20775 ,-2.03843 
329 ,71.1663 ,1.60572 ,-0.20775 ,-2.03843 
330 ,71.3745 ,1.60776 ,-0.25224 ,-2.47495 
331 ,71.5982 ,1.61005 ,-0.26250 ,-2.57569 
332 ,71.8066 ,1.61209 ,-0.24197 ,-2.37422 
333 ,72.0148 ,1.61418 ,-0.28304 ,-2.77716 
334 ,72.2388 ,1.61646 ,-0.29673 ,-2.91147 
335 ,72.4466 ,1.61851 ,-0.28988 ,-2.84431 
336 ,72.6389 ,1.62050 ,-0.32068 ,-3.14652 
337 ,72.8471 ,1.62251 ,-0.31041 ,-3.04578 
338 ,73.0550 ,1.62456 ,-0.34806 ,-3.41514 
339 ,73.2633 ,1.62672 ,-0.35148 ,-3.44872 
340 ,73.4712 ,1.62879 ,-0.34806 ,-3.41514 
341 ,73.6955 ,1.63102 ,-0.38570 ,-3.78450 
342 ,73.9192 ,1.63324 ,-0.39255 ,-3.85166 
343 ,74.1278 ,1.63533 ,-0.38228 ,-3.75093 
344 ,74.3519 ,1.63755 ,-0.41308 ,-4.05313 
345 ,74.5600 ,1.63966 ,-0.43019 ,-4.22102 
346 ,74.7839 ,1.64191 ,-0.42335 ,-4.15387 
347 ,75.0078 ,1.64412 ,-0.43361 ,-4.25460 
348 ,75.2321 ,1.64632 ,-0.46441 ,-4.55681 
349 ,75.4402 ,1.64847 ,-0.47468 ,-4.65754 
350 ,75.6643 ,1.65067 ,-0.46783 ,-4.59038 
351 ,75.8719 ,1.65275 ,-0.50890 ,-4.99332 
352 ,76.0803 ,1.65479 ,-0.51574 ,-5.06048 
353 ,76.3043 ,1.65707 ,-0.51574 ,-5.06048 
354 ,76.5446 ,1.65935 ,-0.53285 ,-5.22837 
355 ,76.7529 ,1.66156 ,-0.54312 ,-5.32911 
356 ,76.9768 ,1.66386 ,-0.56708 ,-5.56415 
357 ,77.1850 ,1.66588 ,-0.56708 ,-5.56415 
358 ,77.4089 ,1.66816 ,-0.56023 ,-5.49700 
359 ,77.6330 ,1.67036 ,-0.59103 ,-5.79920 
360 ,77.8252 ,1.67234 ,-0.59445 ,-5.83278 
361 ,78.0331 ,1.67432 ,-0.61499 ,-6.03425 
362 ,78.2573 ,1.67661 ,-0.62868 ,-6.16856 
363 ,78.4653 ,1.67865 ,-0.62868 ,-6.16856 
364 ,78.6894 ,1.68098 ,-0.63894 ,-6.26930 
365 ,78.9134 ,1.68311 ,-0.66290 ,-6.50435 
366 ,79.1376 ,1.68539 ,-0.68685 ,-6.73940 
367 ,79.3298 ,1.68743 ,-0.67659 ,-6.63866 
368 ,79.5539 ,1.68956 ,-0.69370 ,-6.80655 
369 ,79.7618 ,1.69164 ,-0.71765 ,-7.04160 
370 ,79.9700 ,1.69385 ,-0.70396 ,-6.90729 
371 ,80.1617 ,1.69572 ,-0.74161 ,-7.27665 
372 ,80.3699 ,1.69778 ,-0.73818 ,-7.24307 
373 ,80.5941 ,1.69995 ,-0.75530 ,-7.41096 
374 ,80.8025 ,1.70202 ,-0.75872 ,-7.44454 
375 ,81.0263 ,1.70432 ,-0.74845 ,-7.34380 
376 ,81.2346 ,1.70633 ,-0.79294 ,-7.78032 
377 ,81.4902 ,1.70898 ,-0.79294 ,-7.78032 
378 ,81.6823 ,1.71086 ,-0.81689 ,-8.01537 
379 ,81.8904 ,1.71289 ,-0.81347 ,-7.98179 
380 ,82.0985 ,1.71502 ,-0.84769 ,-8.31758 
381 ,82.3068 ,1.71712 ,-0.83058 ,-8.14968 
382 ,82.5147 ,1.71923 ,-0.86138 ,-8.45189 
383 ,82.7389 ,1.72142 ,-0.87165 ,-8.55262 
384 ,82.9473 ,1.72350 ,-0.86138 ,-8.45189 
385 ,83.1554 ,1.72560 ,-0.88534 ,-8.68694 
386 ,83.3633 ,1.72766 ,-0.89218 ,-8.75409 
387 ,83.5870 ,1.72986 ,-0.89560 ,-8.78767 
388 ,83.7956 ,1.73193 ,-0.92640 ,-9.08988 
389 ,84.0036 ,1.73401 ,-0.91614 ,-8.98914 
390 ,84.2117 ,1.73609 ,-0.92983 ,-9.12345 
391 ,84.4358 ,1.73834 ,-0.96405 ,-9.45924 
392 ,84.6595 ,1.74056 ,-0.97774 ,-9.59355 
393 ,84.8681 ,1.74273 ,-0.96747 ,-9.49282 
394 ,85.0920 ,1.74493 ,-0.98116 ,-9.62713 
395 ,85.3001 ,1.74703 ,-1.01880 ,-9.99649 
396 ,85.5083 ,1.74904 ,-1.00511 ,-9.86218 
397 ,85.7162 ,1.75117 ,-1.02565 ,-10.06365 
398 ,85.9405 ,1.75341 ,-1.03591 ,-10.16438 
399 ,86.1485 ,1.75558 ,-1.02907 ,-10.09723 
400 ,86.3568 ,1.75752 ,-1.05987 ,-10.39943 
401 ,86.5642 ,1.75962 ,-1.06329 ,-10.43301 
402 ,86.7728 ,1.76173 ,-1.07014 ,-10.50016 
403 ,86.9970 ,1.76389 ,-1.08382 ,-10.63448 
404 ,87.2211 ,1.76621 ,-1.10436 ,-10.83595 
405 ,87.4290 ,1.76841 ,-1.10778 ,-10.86953 
406 ,87.6372 ,1.77032 ,-1.12831 ,-11.07100 
407 ,87.8453 ,1.77248 ,-1.11462 ,-10.93668 
408 ,88.0692 ,1.77468 ,-1.12147 ,-11.00384 
409 ,88.2773 ,1.77670 ,-1.14884 ,-11.27247 
410 ,88.4852 ,1.77886 ,-1.14200 ,-11.20531 
411 ,88.6935 ,1.78091 ,-1.15911 ,-11.37320 
412 ,88.9016 ,1.78304 ,-1.17964 ,-11.57467 
413 ,89.1092 ,1.78516 ,-1.17622 ,-11.54109 
414 ,89.3178 ,1.78717 ,-1.20702 ,-11.84330 
415 ,89.5418 ,1.78940 ,-1.21387 ,-11.91045 
416 ,89.7658 ,1.79157 ,-1.18991 ,-11.67541 
417 ,89.9740 ,1.79371 ,-1.23098 ,-12.07834 
418 ,90.1977 ,1.79599 ,-1.24467 ,-12.21266 
419 ,90.4383 ,1.79825 ,-1.25835 ,-12.34697 
420 ,90.6623 ,1.80062 ,-1.25835 ,-12.34697 
421 ,90.8704 ,1.80269 ,-1.25151 ,-12.27981 
422 ,91.0784 ,1.80476 ,-1.29258 ,-12.68275 
423 ,91.2861 ,1.80679 ,-1.27547 ,-12.51486 
424 ,91.5264 ,1.80915 ,-1.28573 ,-12.61560 
425 ,91.7187 ,1.81135 ,-1.31653 ,-12.91780 
426 ,91.9268 ,1.81327 ,-1.31653 ,-12.91780 
427 ,92.1349 ,1.81536 ,-1.33364 ,-13.08569 
428 ,92.3268 ,1.81735 ,-1.34049 ,-13.15285 
429 ,92.5667 ,1.81967 ,-1.34049 ,-13.15285 
430 ,92.7751 ,1.82176 ,-1.36786 ,-13.42148 
431 ,92.9830 ,1.82380 ,-1.36786 ,-13.42148 
432 ,93.2073 ,1.82601 ,-1.36102 ,-13.35432 
433 ,93.4151 ,1.82814 ,-1.39182 ,-13.65653 
434 ,93.6389 ,1.83046 ,-1.41235 ,-13.85799 
435 ,93.8470 ,1.83247 ,-1.39182 ,-13.65653 
436 ,94.0558 ,1.83460 ,-1.43288 ,-14.05946 
437 ,94.3278 ,1.83726 ,-1.42262 ,-13.95873 
438 ,94.5520 ,1.83946 ,-1.43288 ,-14.05946 
439 ,94.7601 ,1.84158 ,-1.46711 ,-14.39525 
440 ,94.9839 ,1.84378 ,-1.45684 ,-14.29451 
441 ,95.2080 ,1.84601 ,-1.46026 ,-14.32809 
442 ,95.4002 ,1.84799 ,-1.48422 ,-14.56314 
443 ,95.6243 ,1.85027 ,-1.48764 ,-14.59672 
444 ,95.8485 ,1.85248 ,-1.49448 ,-14.66387 
445 ,96.0565 ,1.85446 ,-1.52871 ,-14.99966 
446 ,96.2647 ,1.85659 ,-1.50475 ,-14.76461 
447 ,96.4887 ,1.85882 ,-1.52871 ,-14.99966 
448 ,96.6969 ,1.86102 ,-1.54924 ,-15.20113 
449 ,96.9207 ,1.86312 ,-1.55950 ,-15.30186 
450 ,97.1291 ,1.86531 ,-1.55608 ,-15.26828 
451 ,97.3371 ,1.86732 ,-1.58688 ,-15.57049 
452 ,97.5614 ,1.86956 ,-1.58346 ,-15.53691 
453 ,97.7531 ,1.87159 ,-1.58004 ,-15.50333 
454 ,97.9609 ,1.87357 ,-1.61084 ,-15.80554 
455 ,98.1694 ,1.87574 ,-1.59373 ,-15.63764 
456 ,98.3932 ,1.87789 ,-1.61768 ,-15.87269 
457 ,98.6017 ,1.88000 ,-1.63479 ,-16.04058 
458 ,98.8257 ,1.88219 ,-1.64164 ,-16.10774 
459 ,99.0338 ,1.88430 ,-1.66217 ,-16.30921 
460 ,99.2738 ,1.88660 ,-1.66901 ,-16.37637 
