Data stamp = , 19-05-2022 12:17:27 633

Calibration Values: 
Slope = , 26.54 , g/V 
Offset Voltage at no contact = , -0.501760 , V 

No , Time , Stage Position ,   Mass , Force 
   ,  (s) ,      (mm)      ,   (g)  , (mN)  

1 ,0.0000 ,0.89969 ,5.31563 ,52.15694 
2 ,0.2524 ,0.89976 ,5.31221 ,52.12337 
3 ,0.9091 ,0.90258 ,5.30536 ,52.05621 
4 ,1.1487 ,0.90542 ,5.30536 ,52.05621 
5 ,1.4052 ,0.90784 ,5.30536 ,52.05621 
6 ,1.6295 ,0.91037 ,5.28825 ,51.88832 
7 ,1.8375 ,0.91240 ,5.27456 ,51.75401 
8 ,2.0456 ,0.91443 ,5.25745 ,51.58611 
9 ,2.2537 ,0.91655 ,5.20954 ,51.11602 
10 ,2.4775 ,0.91881 ,5.21639 ,51.18317 
11 ,2.7019 ,0.92107 ,5.20270 ,51.04886 
12 ,2.9099 ,0.92313 ,5.16505 ,50.67950 
13 ,3.1180 ,0.92521 ,5.14110 ,50.44445 
14 ,3.3423 ,0.92746 ,5.13768 ,50.41087 
15 ,3.5662 ,0.92969 ,5.10688 ,50.10867 
16 ,3.7583 ,0.93177 ,5.06239 ,49.67215 
17 ,3.9664 ,0.93370 ,5.05554 ,49.60499 
18 ,4.1905 ,0.93588 ,5.03501 ,49.40352 
19 ,4.4143 ,0.93819 ,5.01106 ,49.16848 
20 ,4.6223 ,0.94036 ,5.00421 ,49.10132 
21 ,4.8305 ,0.94231 ,4.95972 ,48.66480 
22 ,5.0388 ,0.94438 ,4.95630 ,48.63122 
23 ,5.2629 ,0.94662 ,4.95630 ,48.63122 
24 ,5.4710 ,0.94872 ,4.90155 ,48.09397 
25 ,5.6787 ,0.95084 ,4.90155 ,48.09397 
26 ,5.9032 ,0.95301 ,4.88444 ,47.92608 
27 ,6.1274 ,0.95534 ,4.84337 ,47.52314 
28 ,6.3352 ,0.95738 ,4.82284 ,47.32167 
29 ,6.5435 ,0.95941 ,4.82968 ,47.38883 
30 ,6.7676 ,0.96170 ,4.78861 ,46.98589 
31 ,6.9915 ,0.96394 ,4.75782 ,46.68368 
32 ,7.1998 ,0.96600 ,4.74413 ,46.54937 
33 ,7.4239 ,0.96828 ,4.72702 ,46.38148 
34 ,7.6319 ,0.97035 ,4.69622 ,46.07927 
35 ,7.8559 ,0.97254 ,4.67226 ,45.84422 
36 ,8.0640 ,0.97465 ,4.66884 ,45.81065 
37 ,8.2881 ,0.97682 ,4.64146 ,45.54202 
38 ,8.5122 ,0.97919 ,4.61751 ,45.30697 
39 ,8.7204 ,0.98123 ,4.61066 ,45.23981 
40 ,8.9280 ,0.98331 ,4.57986 ,44.93761 
41 ,9.1367 ,0.98540 ,4.55933 ,44.73614 
42 ,9.3606 ,0.98761 ,4.55249 ,44.66898 
43 ,9.5846 ,0.98978 ,4.53880 ,44.53467 
44 ,9.8247 ,0.99207 ,4.49089 ,44.06457 
45 ,10.0490 ,0.99451 ,4.47035 ,43.86310 
46 ,10.2570 ,0.99669 ,4.44640 ,43.62806 
47 ,10.4651 ,0.99860 ,4.44640 ,43.62806 
48 ,10.6732 ,1.00066 ,4.40533 ,43.22512 
49 ,10.8812 ,1.00280 ,4.40191 ,43.19154 
50 ,11.0894 ,1.00488 ,4.39164 ,43.09080 
51 ,11.2970 ,1.00697 ,4.36084 ,42.78860 
52 ,11.5056 ,1.00899 ,4.36084 ,42.78860 
53 ,11.7454 ,1.01130 ,4.30951 ,42.28492 
54 ,11.9537 ,1.01353 ,4.30267 ,42.21777 
55 ,12.1621 ,1.01558 ,4.28898 ,42.08345 
56 ,12.3857 ,1.01781 ,4.27529 ,41.94914 
57 ,12.6100 ,1.02009 ,4.23080 ,41.51262 
58 ,12.8182 ,1.02221 ,4.22738 ,41.47905 
59 ,13.0263 ,1.02424 ,4.20342 ,41.24400 
60 ,13.2183 ,1.02634 ,4.17947 ,41.00895 
61 ,13.4104 ,1.02817 ,4.17605 ,40.97537 
62 ,13.6185 ,1.03019 ,4.16578 ,40.87464 
63 ,13.8267 ,1.03224 ,4.13498 ,40.57243 
64 ,14.0347 ,1.03433 ,4.10418 ,40.27023 
65 ,14.2589 ,1.03657 ,4.10418 ,40.27023 
66 ,14.4828 ,1.03877 ,4.08707 ,40.10233 
67 ,14.6906 ,1.04084 ,4.06312 ,39.86729 
68 ,14.8990 ,1.04294 ,4.04943 ,39.73297 
69 ,15.1227 ,1.04523 ,4.03916 ,39.63224 
70 ,15.3310 ,1.04727 ,3.99467 ,39.19572 
71 ,15.5553 ,1.04950 ,3.97072 ,38.96067 
72 ,15.7630 ,1.05163 ,3.96729 ,38.92709 
73 ,15.9712 ,1.05370 ,3.92281 ,38.49058 
74 ,16.1796 ,1.05582 ,3.93307 ,38.59131 
75 ,16.4037 ,1.05803 ,3.91596 ,38.42342 
76 ,16.6276 ,1.06014 ,3.88174 ,38.08764 
77 ,16.8515 ,1.06244 ,3.86121 ,37.88617 
78 ,17.0761 ,1.06479 ,3.84752 ,37.75185 
79 ,17.3000 ,1.06696 ,3.83383 ,37.61754 
80 ,17.5241 ,1.06928 ,3.81672 ,37.44965 
81 ,17.7320 ,1.07129 ,3.76196 ,36.91240 
82 ,17.9560 ,1.07349 ,3.76881 ,36.97955 
83 ,18.1804 ,1.07576 ,3.75854 ,36.87882 
84 ,18.4045 ,1.07801 ,3.72432 ,36.54303 
85 ,18.6286 ,1.08017 ,3.70037 ,36.30799 
86 ,18.8368 ,1.08237 ,3.69694 ,36.27441 
87 ,19.0448 ,1.08442 ,3.67641 ,36.07294 
88 ,19.2528 ,1.08655 ,3.65588 ,35.87147 
89 ,19.4608 ,1.08856 ,3.65588 ,35.87147 
90 ,19.6691 ,1.09070 ,3.61139 ,35.43495 
91 ,19.8773 ,1.09277 ,3.60797 ,35.40137 
92 ,20.0852 ,1.09487 ,3.58401 ,35.16632 
93 ,20.2769 ,1.09687 ,3.55321 ,34.86412 
94 ,20.4854 ,1.09878 ,3.54295 ,34.76338 
95 ,20.8055 ,1.10156 ,3.51557 ,34.49476 
96 ,21.0133 ,1.10405 ,3.50530 ,34.39402 
97 ,21.2217 ,1.10614 ,3.49161 ,34.25971 
98 ,21.4458 ,1.10840 ,3.46081 ,33.95751 
99 ,21.6378 ,1.11038 ,3.45739 ,33.92393 
100 ,21.8300 ,1.11232 ,3.43344 ,33.68888 
101 ,22.0541 ,1.11446 ,3.40948 ,33.45383 
102 ,22.2462 ,1.11644 ,3.39579 ,33.31952 
103 ,22.4698 ,1.11862 ,3.36499 ,33.01731 
104 ,22.6783 ,1.12070 ,3.37184 ,33.08447 
105 ,22.8864 ,1.12283 ,3.33419 ,32.71511 
106 ,23.1266 ,1.12507 ,3.29997 ,32.37933 
107 ,23.3504 ,1.12739 ,3.30339 ,32.41290 
108 ,23.5423 ,1.12937 ,3.28971 ,32.27859 
109 ,23.7668 ,1.13159 ,3.25548 ,31.94281 
110 ,23.9748 ,1.13372 ,3.24522 ,31.84207 
111 ,24.1827 ,1.13574 ,3.24180 ,31.80849 
112 ,24.3909 ,1.13783 ,3.20073 ,31.40555 
113 ,24.6151 ,1.14003 ,3.20415 ,31.43913 
114 ,24.8072 ,1.14208 ,3.18362 ,31.23766 
115 ,25.0154 ,1.14406 ,3.15624 ,30.96904 
116 ,25.2230 ,1.14615 ,3.14597 ,30.86830 
117 ,25.4314 ,1.14826 ,3.12544 ,30.66683 
118 ,25.6553 ,1.15046 ,3.09806 ,30.39821 
119 ,25.8634 ,1.15256 ,3.09122 ,30.33105 
120 ,26.0558 ,1.15453 ,3.06384 ,30.06242 
121 ,26.2798 ,1.15673 ,3.07069 ,30.12958 
122 ,26.5039 ,1.15892 ,3.02962 ,29.72664 
123 ,26.7120 ,1.16105 ,3.00224 ,29.45801 
124 ,26.9037 ,1.16309 ,3.01935 ,29.62590 
125 ,27.1121 ,1.16510 ,2.97144 ,29.15581 
126 ,27.3361 ,1.16723 ,2.97829 ,29.22297 
127 ,27.5601 ,1.16956 ,2.96460 ,29.08865 
128 ,27.7844 ,1.17177 ,2.93722 ,28.82003 
129 ,27.9922 ,1.17380 ,2.89958 ,28.45066 
130 ,28.2167 ,1.17609 ,2.90300 ,28.48424 
131 ,28.4568 ,1.17833 ,2.89273 ,28.38351 
132 ,28.6649 ,1.18053 ,2.85509 ,28.01415 
133 ,28.9050 ,1.18285 ,2.82087 ,27.67836 
134 ,29.1126 ,1.18502 ,2.81060 ,27.57763 
135 ,29.3051 ,1.18715 ,2.80034 ,27.47689 
136 ,29.5130 ,1.18913 ,2.79007 ,27.37616 
137 ,29.7212 ,1.19113 ,2.78322 ,27.30900 
138 ,29.9295 ,1.19317 ,2.73531 ,26.83891 
139 ,30.1373 ,1.19533 ,2.74216 ,26.90606 
140 ,30.3776 ,1.19759 ,2.70452 ,26.53670 
141 ,30.6013 ,1.19990 ,2.70452 ,26.53670 
142 ,30.7938 ,1.20193 ,2.68398 ,26.33523 
143 ,31.0017 ,1.20394 ,2.67372 ,26.23450 
144 ,31.2098 ,1.20603 ,2.63607 ,25.86514 
145 ,31.4339 ,1.20828 ,2.62581 ,25.76440 
146 ,31.6420 ,1.21028 ,2.61896 ,25.69724 
147 ,31.8503 ,1.21242 ,2.58132 ,25.32788 
148 ,32.0744 ,1.21461 ,2.58132 ,25.32788 
149 ,32.2980 ,1.21680 ,2.55736 ,25.09283 
150 ,32.5060 ,1.21897 ,2.52314 ,24.75705 
151 ,32.7462 ,1.22120 ,2.52656 ,24.79063 
152 ,32.9546 ,1.22346 ,2.49576 ,24.48842 
153 ,33.1788 ,1.22572 ,2.49918 ,24.52200 
154 ,33.4028 ,1.22793 ,2.46839 ,24.21980 
155 ,33.6270 ,1.23015 ,2.42732 ,23.81686 
156 ,33.8353 ,1.23232 ,2.44101 ,23.95117 
157 ,34.0592 ,1.23451 ,2.41705 ,23.71612 
158 ,34.2672 ,1.23653 ,2.38968 ,23.44750 
159 ,34.4913 ,1.23881 ,2.36914 ,23.24603 
160 ,34.7152 ,1.24102 ,2.37256 ,23.27961 
161 ,34.9232 ,1.24312 ,2.34519 ,23.01098 
162 ,35.1312 ,1.24515 ,2.33150 ,22.87667 
163 ,35.3392 ,1.24742 ,2.31781 ,22.74235 
164 ,35.5472 ,1.24939 ,2.28359 ,22.40657 
165 ,35.7713 ,1.25168 ,2.26306 ,22.20510 
166 ,35.9953 ,1.25396 ,2.25621 ,22.13794 
167 ,36.2356 ,1.25624 ,2.24594 ,22.03721 
168 ,36.4439 ,1.25841 ,2.21515 ,21.73500 
169 ,36.6840 ,1.26079 ,2.19461 ,21.53353 
170 ,36.8918 ,1.26280 ,2.19461 ,21.53353 
171 ,37.1163 ,1.26503 ,2.18777 ,21.46638 
172 ,37.3244 ,1.26711 ,2.14328 ,21.02986 
173 ,37.5324 ,1.26921 ,2.14328 ,21.02986 
174 ,37.7408 ,1.27128 ,2.12275 ,20.82839 
175 ,37.9487 ,1.27335 ,2.09195 ,20.52619 
176 ,38.1566 ,1.27551 ,2.09195 ,20.52619 
177 ,38.3488 ,1.27749 ,2.06115 ,20.22398 
178 ,38.5570 ,1.27940 ,2.07484 ,20.35829 
179 ,38.7808 ,1.28169 ,2.04404 ,20.05609 
180 ,38.9891 ,1.28379 ,2.02008 ,19.82104 
181 ,39.1968 ,1.28584 ,2.01666 ,19.78746 
182 ,39.3894 ,1.28779 ,1.97902 ,19.41810 
183 ,39.6132 ,1.29005 ,1.98586 ,19.48526 
184 ,39.8213 ,1.29202 ,1.96190 ,19.25021 
185 ,40.0296 ,1.29418 ,1.93453 ,18.98158 
186 ,40.2212 ,1.29622 ,1.94137 ,19.04874 
187 ,40.4459 ,1.29830 ,1.91057 ,18.74654 
188 ,40.6697 ,1.30058 ,1.89346 ,18.57864 
189 ,40.8779 ,1.30268 ,1.88662 ,18.51149 
190 ,41.0858 ,1.30479 ,1.86266 ,18.27644 
191 ,41.3257 ,1.30699 ,1.84897 ,18.14213 
192 ,41.5502 ,1.30937 ,1.83528 ,18.00781 
193 ,41.7743 ,1.31160 ,1.82502 ,17.90708 
194 ,41.9824 ,1.31368 ,1.79080 ,17.57129 
195 ,42.1904 ,1.31578 ,1.79764 ,17.63845 
196 ,42.3985 ,1.31782 ,1.77711 ,17.43698 
197 ,42.6063 ,1.31996 ,1.73946 ,17.06762 
198 ,42.8461 ,1.32235 ,1.72235 ,16.89973 
199 ,43.0702 ,1.32452 ,1.72920 ,16.96689 
200 ,43.2949 ,1.32684 ,1.70182 ,16.69826 
201 ,43.5190 ,1.32909 ,1.69155 ,16.59752 
202 ,43.7909 ,1.33171 ,1.67102 ,16.39605 
203 ,43.9992 ,1.33400 ,1.65391 ,16.22816 
204 ,44.2232 ,1.33604 ,1.61627 ,15.85880 
205 ,44.4312 ,1.33820 ,1.62311 ,15.92596 
206 ,44.6394 ,1.34022 ,1.60258 ,15.72449 
207 ,44.8634 ,1.34241 ,1.59573 ,15.65733 
208 ,45.0877 ,1.34478 ,1.55467 ,15.25439 
209 ,45.2958 ,1.34687 ,1.56493 ,15.35513 
210 ,45.5358 ,1.34913 ,1.53071 ,15.01934 
211 ,45.7441 ,1.35127 ,1.51018 ,14.81787 
212 ,45.9677 ,1.35357 ,1.51018 ,14.81787 
213 ,46.1759 ,1.35561 ,1.49649 ,14.68356 
214 ,46.3842 ,1.35768 ,1.46911 ,14.41493 
215 ,46.5921 ,1.35978 ,1.46569 ,14.38136 
216 ,46.7844 ,1.36172 ,1.41778 ,13.91126 
217 ,47.0083 ,1.36394 ,1.42462 ,13.97842 
218 ,47.2325 ,1.36612 ,1.42120 ,13.94484 
219 ,47.4566 ,1.36843 ,1.39040 ,13.64263 
220 ,47.6648 ,1.37042 ,1.36987 ,13.44116 
221 ,47.8728 ,1.37255 ,1.36645 ,13.40759 
222 ,48.0965 ,1.37481 ,1.34249 ,13.17254 
223 ,48.3050 ,1.37689 ,1.32196 ,12.97107 
224 ,48.5290 ,1.37915 ,1.31512 ,12.90391 
225 ,48.7372 ,1.38122 ,1.30827 ,12.83675 
226 ,48.9453 ,1.38329 ,1.27747 ,12.53455 
227 ,49.1370 ,1.38535 ,1.27747 ,12.53455 
228 ,49.3450 ,1.38730 ,1.25009 ,12.26592 
229 ,49.5533 ,1.38939 ,1.24325 ,12.19877 
230 ,49.7614 ,1.39144 ,1.21245 ,11.89656 
231 ,49.9856 ,1.39369 ,1.20218 ,11.79583 
232 ,50.1777 ,1.39565 ,1.19534 ,11.72867 
233 ,50.4016 ,1.39785 ,1.16454 ,11.42647 
234 ,50.6258 ,1.39994 ,1.16796 ,11.46004 
235 ,50.8339 ,1.40220 ,1.14401 ,11.22500 
236 ,51.0578 ,1.40444 ,1.12347 ,11.02353 
237 ,51.2820 ,1.40670 ,1.10636 ,10.85563 
238 ,51.4901 ,1.40876 ,1.11663 ,10.95637 
239 ,51.7143 ,1.41097 ,1.09267 ,10.72132 
240 ,51.9225 ,1.41306 ,1.05161 ,10.31838 
241 ,52.1308 ,1.41514 ,1.06872 ,10.48627 
242 ,52.3386 ,1.41724 ,1.03108 ,10.11691 
243 ,52.5302 ,1.41924 ,1.02423 ,10.04976 
244 ,52.7389 ,1.42125 ,1.01054 ,9.91544 
245 ,52.9628 ,1.42348 ,0.97974 ,9.61324 
246 ,53.1709 ,1.42555 ,0.98659 ,9.68039 
247 ,53.3949 ,1.42782 ,0.96948 ,9.51250 
248 ,53.6026 ,1.42989 ,0.94552 ,9.27745 
249 ,53.8269 ,1.43212 ,0.94210 ,9.24388 
250 ,54.0193 ,1.43416 ,0.92499 ,9.07598 
251 ,54.2275 ,1.43610 ,0.90446 ,8.87451 
252 ,54.4355 ,1.43820 ,0.89077 ,8.74020 
253 ,54.6595 ,1.44040 ,0.87708 ,8.60589 
254 ,54.9157 ,1.44298 ,0.85312 ,8.37084 
255 ,55.1396 ,1.44523 ,0.83259 ,8.16937 
256 ,55.3476 ,1.44732 ,0.82917 ,8.13579 
257 ,55.5560 ,1.44939 ,0.82575 ,8.10221 
258 ,55.7638 ,1.45146 ,0.79837 ,7.83359 
259 ,55.9880 ,1.45377 ,0.79152 ,7.76643 
260 ,56.1960 ,1.45573 ,0.77784 ,7.63212 
261 ,56.4042 ,1.45779 ,0.74704 ,7.32991 
262 ,56.6121 ,1.45992 ,0.76415 ,7.49780 
263 ,56.8364 ,1.46219 ,0.74019 ,7.26276 
264 ,57.0284 ,1.46416 ,0.70939 ,6.96055 
265 ,57.2526 ,1.46633 ,0.71624 ,7.02771 
266 ,57.4768 ,1.46858 ,0.69228 ,6.79266 
267 ,57.6846 ,1.47069 ,0.67175 ,6.59119 
268 ,57.8928 ,1.47273 ,0.67175 ,6.59119 
269 ,58.1005 ,1.47474 ,0.63410 ,6.22183 
270 ,58.3091 ,1.47690 ,0.64095 ,6.28899 
271 ,58.5329 ,1.47914 ,0.64095 ,6.28899 
272 ,58.7411 ,1.48118 ,0.59988 ,5.88605 
273 ,58.9491 ,1.48327 ,0.59646 ,5.85247 
274 ,59.1569 ,1.48535 ,0.56908 ,5.58384 
275 ,59.3812 ,1.48764 ,0.55882 ,5.48311 
276 ,59.5894 ,1.48978 ,0.54855 ,5.38237 
277 ,59.7977 ,1.49175 ,0.53486 ,5.24806 
278 ,60.0055 ,1.49382 ,0.51091 ,5.01301 
279 ,60.2135 ,1.49593 ,0.52459 ,5.14732 
280 ,60.4377 ,1.49822 ,0.48011 ,4.71081 
281 ,60.6461 ,1.50034 ,0.48353 ,4.74438 
282 ,60.8701 ,1.50248 ,0.46984 ,4.61007 
283 ,61.0942 ,1.50469 ,0.45615 ,4.47576 
284 ,61.3022 ,1.50678 ,0.43220 ,4.24071 
285 ,61.5103 ,1.50899 ,0.42877 ,4.20713 
286 ,61.7024 ,1.51084 ,0.39797 ,3.90493 
287 ,61.9105 ,1.51291 ,0.41166 ,4.03924 
288 ,62.1345 ,1.51513 ,0.39113 ,3.83777 
289 ,62.3431 ,1.51720 ,0.37402 ,3.66988 
290 ,62.5503 ,1.51930 ,0.37402 ,3.66988 
291 ,62.7589 ,1.52144 ,0.34322 ,3.36767 
292 ,62.9827 ,1.52360 ,0.32611 ,3.19978 
293 ,63.1908 ,1.52568 ,0.33638 ,3.30052 
294 ,63.4152 ,1.52788 ,0.29873 ,2.93116 
295 ,63.6230 ,1.53001 ,0.29531 ,2.89758 
296 ,63.8473 ,1.53226 ,0.28847 ,2.83042 
297 ,64.0555 ,1.53438 ,0.27135 ,2.66253 
298 ,64.2633 ,1.53638 ,0.27135 ,2.66253 
299 ,64.4716 ,1.53852 ,0.24740 ,2.42748 
300 ,64.6796 ,1.54064 ,0.21318 ,2.09170 
301 ,64.8877 ,1.54268 ,0.22002 ,2.15885 
302 ,65.1119 ,1.54488 ,0.19949 ,1.95738 
303 ,65.3201 ,1.54698 ,0.18238 ,1.78949 
304 ,65.5442 ,1.54919 ,0.16869 ,1.65518 
305 ,65.7521 ,1.55129 ,0.18580 ,1.82307 
306 ,65.9604 ,1.55336 ,0.14131 ,1.38655 
307 ,66.2005 ,1.55581 ,0.12420 ,1.21866 
308 ,66.4086 ,1.55788 ,0.12762 ,1.25224 
309 ,66.6322 ,1.56011 ,0.12078 ,1.18508 
310 ,66.8405 ,1.56211 ,0.08656 ,0.84930 
311 ,67.0484 ,1.56428 ,0.07971 ,0.78214 
312 ,67.2567 ,1.56636 ,0.06945 ,0.68141 
313 ,67.4808 ,1.56856 ,0.05234 ,0.51352 
314 ,67.6889 ,1.57066 ,0.05234 ,0.51352 
315 ,67.9129 ,1.57288 ,0.03522 ,0.34563 
316 ,68.1210 ,1.57496 ,0.01127 ,0.11058 
317 ,68.3453 ,1.57725 ,-0.00242 ,-0.02373 
318 ,68.5693 ,1.57944 ,-0.00584 ,-0.05731 
319 ,68.7775 ,1.58158 ,-0.04348 ,-0.42667 
320 ,68.9856 ,1.58358 ,-0.05033 ,-0.49383 
321 ,69.2094 ,1.58582 ,-0.03322 ,-0.32594 
322 ,69.4177 ,1.58796 ,-0.07771 ,-0.76246 
323 ,69.6258 ,1.59002 ,-0.08455 ,-0.82961 
324 ,69.8179 ,1.59204 ,-0.08113 ,-0.79604 
325 ,70.0099 ,1.59401 ,-0.10508 ,-1.03108 
326 ,70.2178 ,1.59589 ,-0.11877 ,-1.16540 
327 ,70.4098 ,1.59786 ,-0.11877 ,-1.16540 
328 ,70.6181 ,1.59994 ,-0.14615 ,-1.43402 
329 ,70.8100 ,1.60200 ,-0.16326 ,-1.60191 
330 ,71.0185 ,1.60392 ,-0.16326 ,-1.60191 
331 ,71.2105 ,1.60596 ,-0.16668 ,-1.63549 
332 ,71.4186 ,1.60790 ,-0.19406 ,-1.90412 
333 ,71.6267 ,1.61000 ,-0.18037 ,-1.76981 
334 ,71.8509 ,1.61222 ,-0.19748 ,-1.93770 
335 ,72.0589 ,1.61433 ,-0.23855 ,-2.34064 
336 ,72.2827 ,1.61658 ,-0.24539 ,-2.40779 
337 ,72.4909 ,1.61862 ,-0.22828 ,-2.23990 
338 ,72.6990 ,1.62071 ,-0.26593 ,-2.60926 
339 ,72.9071 ,1.62277 ,-0.25566 ,-2.50853 
340 ,73.1152 ,1.62488 ,-0.28988 ,-2.84431 
341 ,73.3393 ,1.62716 ,-0.30357 ,-2.97863 
342 ,73.5634 ,1.62933 ,-0.30015 ,-2.94505 
343 ,73.7876 ,1.63159 ,-0.31726 ,-3.11294 
344 ,73.9797 ,1.63370 ,-0.32068 ,-3.14652 
345 ,74.1876 ,1.63560 ,-0.33095 ,-3.24725 
346 ,74.3798 ,1.63755 ,-0.36517 ,-3.58303 
347 ,74.6038 ,1.63978 ,-0.36859 ,-3.61661 
348 ,74.8117 ,1.64183 ,-0.36517 ,-3.58303 
349 ,75.0363 ,1.64411 ,-0.38912 ,-3.81808 
350 ,75.2604 ,1.64631 ,-0.40281 ,-3.95240 
351 ,75.4844 ,1.64858 ,-0.41650 ,-4.08671 
352 ,75.7085 ,1.65084 ,-0.41308 ,-4.05313 
353 ,75.9162 ,1.65291 ,-0.43703 ,-4.28818 
354 ,76.1246 ,1.65501 ,-0.44388 ,-4.35534 
355 ,76.3487 ,1.65718 ,-0.45072 ,-4.42249 
356 ,76.5728 ,1.65940 ,-0.46783 ,-4.59038 
357 ,76.7969 ,1.66169 ,-0.50206 ,-4.92617 
358 ,77.0050 ,1.66371 ,-0.49521 ,-4.85901 
359 ,77.2127 ,1.66587 ,-0.51232 ,-5.02690 
360 ,77.4210 ,1.66790 ,-0.53285 ,-5.22837 
361 ,77.6613 ,1.67014 ,-0.51574 ,-5.06048 
362 ,77.8855 ,1.67257 ,-0.54997 ,-5.39626 
363 ,78.0935 ,1.67470 ,-0.55681 ,-5.46342 
364 ,78.3174 ,1.67695 ,-0.59788 ,-5.86636 
365 ,78.5416 ,1.67915 ,-0.59103 ,-5.79920 
366 ,78.7497 ,1.68133 ,-0.59788 ,-5.86636 
367 ,78.9579 ,1.68329 ,-0.62183 ,-6.10141 
368 ,79.1818 ,1.68555 ,-0.63210 ,-6.20214 
369 ,79.3900 ,1.68759 ,-0.61841 ,-6.06783 
370 ,79.5980 ,1.68967 ,-0.66632 ,-6.53793 
371 ,79.8061 ,1.69177 ,-0.62868 ,-6.16856 
372 ,79.9980 ,1.69388 ,-0.66974 ,-6.57150 
373 ,80.1902 ,1.69569 ,-0.66632 ,-6.53793 
374 ,80.3981 ,1.69772 ,-0.69712 ,-6.84013 
375 ,80.6226 ,1.69992 ,-0.70739 ,-6.94086 
376 ,80.8304 ,1.70199 ,-0.71081 ,-6.97444 
377 ,81.0388 ,1.70409 ,-0.72107 ,-7.07518 
378 ,81.2468 ,1.70619 ,-0.72107 ,-7.07518 
379 ,81.4548 ,1.70820 ,-0.75530 ,-7.41096 
380 ,81.6628 ,1.71034 ,-0.74161 ,-7.27665 
381 ,81.8870 ,1.71256 ,-0.74503 ,-7.31023 
382 ,82.1109 ,1.71479 ,-0.76898 ,-7.54527 
383 ,82.3193 ,1.71691 ,-0.79978 ,-7.84748 
384 ,82.5273 ,1.71903 ,-0.78610 ,-7.71317 
385 ,82.7353 ,1.72111 ,-0.81347 ,-7.98179 
386 ,82.9595 ,1.72327 ,-0.82374 ,-8.08253 
387 ,83.1674 ,1.72538 ,-0.81005 ,-7.94821 
388 ,83.3916 ,1.72761 ,-0.84085 ,-8.25042 
389 ,83.5998 ,1.72974 ,-0.85454 ,-8.38473 
390 ,83.8234 ,1.73197 ,-0.86138 ,-8.45189 
391 ,84.0156 ,1.73400 ,-0.87165 ,-8.55262 
392 ,84.2075 ,1.73589 ,-0.89218 ,-8.75409 
393 ,84.4157 ,1.73786 ,-0.90245 ,-8.85483 
394 ,84.6078 ,1.73991 ,-0.89218 ,-8.75409 
395 ,84.8159 ,1.74188 ,-0.93667 ,-9.19061 
396 ,85.0400 ,1.74411 ,-0.92983 ,-9.12345 
397 ,85.2482 ,1.74617 ,-0.92983 ,-9.12345 
398 ,85.4561 ,1.74828 ,-0.95720 ,-9.39208 
399 ,85.6482 ,1.75029 ,-0.95036 ,-9.32492 
400 ,85.8563 ,1.75227 ,-0.98458 ,-9.66071 
401 ,86.0644 ,1.75434 ,-0.96405 ,-9.45924 
402 ,86.2885 ,1.75646 ,-1.00854 ,-9.89576 
403 ,86.4965 ,1.75866 ,-1.02565 ,-10.06365 
404 ,86.6886 ,1.76068 ,-1.00511 ,-9.86218 
405 ,86.8967 ,1.76274 ,-1.03249 ,-10.13080 
406 ,87.0888 ,1.76471 ,-1.03249 ,-10.13080 
407 ,87.3130 ,1.76683 ,-1.05645 ,-10.36585 
408 ,87.5211 ,1.76888 ,-1.04618 ,-10.26512 
409 ,87.7292 ,1.77099 ,-1.06329 ,-10.43301 
410 ,87.9373 ,1.77307 ,-1.08382 ,-10.63448 
411 ,88.1293 ,1.77510 ,-1.08382 ,-10.63448 
412 ,88.3537 ,1.77723 ,-1.11120 ,-10.90310 
413 ,88.5941 ,1.77957 ,-1.11120 ,-10.90310 
414 ,88.8180 ,1.78186 ,-1.12147 ,-11.00384 
415 ,89.0262 ,1.78395 ,-1.11120 ,-10.90310 
416 ,89.2502 ,1.78615 ,-1.13858 ,-11.17173 
417 ,89.4583 ,1.78833 ,-1.14200 ,-11.20531 
418 ,89.6660 ,1.79036 ,-1.13858 ,-11.17173 
419 ,89.8745 ,1.79244 ,-1.16938 ,-11.47394 
420 ,90.0825 ,1.79451 ,-1.15569 ,-11.33962 
421 ,90.3067 ,1.79679 ,-1.18649 ,-11.64183 
422 ,90.5307 ,1.79897 ,-1.20702 ,-11.84330 
423 ,90.7387 ,1.80116 ,-1.21044 ,-11.87688 
424 ,90.9470 ,1.80316 ,-1.20702 ,-11.84330 
425 ,91.1711 ,1.80533 ,-1.24809 ,-12.24624 
426 ,91.3792 ,1.80749 ,-1.24124 ,-12.17908 
427 ,91.5868 ,1.80951 ,-1.24124 ,-12.17908 
428 ,91.7792 ,1.81149 ,-1.25493 ,-12.31339 
429 ,92.0034 ,1.81370 ,-1.25151 ,-12.27981 
430 ,92.2111 ,1.81575 ,-1.29600 ,-12.71633 
431 ,92.4191 ,1.81789 ,-1.29258 ,-12.68275 
432 ,92.6272 ,1.81989 ,-1.29600 ,-12.71633 
433 ,92.8355 ,1.82206 ,-1.31995 ,-12.95138 
434 ,93.0434 ,1.82407 ,-1.30284 ,-12.78349 
435 ,93.2673 ,1.82638 ,-1.33706 ,-13.11927 
436 ,93.5074 ,1.82865 ,-1.34733 ,-13.22001 
437 ,93.6998 ,1.83070 ,-1.34391 ,-13.18643 
438 ,93.9242 ,1.83291 ,-1.35760 ,-13.32074 
439 ,94.1483 ,1.83512 ,-1.36786 ,-13.42148 
440 ,94.3559 ,1.83718 ,-1.36786 ,-13.42148 
441 ,94.5645 ,1.83930 ,-1.37813 ,-13.52221 
442 ,94.7722 ,1.84136 ,-1.40551 ,-13.79084 
443 ,94.9803 ,1.84355 ,-1.40209 ,-13.75726 
444 ,95.1887 ,1.84556 ,-1.42946 ,-14.02589 
445 ,95.3968 ,1.84764 ,-1.43631 ,-14.09304 
446 ,95.6205 ,1.84983 ,-1.42604 ,-13.99231 
447 ,95.8291 ,1.85191 ,-1.45342 ,-14.26093 
448 ,96.0365 ,1.85400 ,-1.45342 ,-14.26093 
449 ,96.2291 ,1.85599 ,-1.46711 ,-14.39525 
450 ,96.4371 ,1.85818 ,-1.47737 ,-14.49598 
451 ,96.6293 ,1.85999 ,-1.47395 ,-14.46240 
452 ,96.8372 ,1.86203 ,-1.47737 ,-14.49598 
453 ,97.0294 ,1.86401 ,-1.51159 ,-14.83177 
454 ,97.2534 ,1.86623 ,-1.51502 ,-14.86534 
455 ,97.4776 ,1.86841 ,-1.52186 ,-14.93250 
456 ,97.7017 ,1.87066 ,-1.52528 ,-14.96608 
457 ,97.9097 ,1.87284 ,-1.52871 ,-14.99966 
458 ,98.1178 ,1.87478 ,-1.54239 ,-15.13397 
459 ,98.3258 ,1.87692 ,-1.54924 ,-15.20113 
460 ,98.5340 ,1.87898 ,-1.58004 ,-15.50333 
