Data stamp = , 19-05-2022 05:52:23 362

Calibration Values: 
Slope = , 26.54 , g/V 
Offset Voltage at no contact = , -0.501760 , V 

No , Time , Stage Position ,   Mass , Force 
   ,  (s) ,      (mm)      ,   (g)  , (mN)  

1 ,0.0000 ,0.89963 ,5.26772 ,51.68685 
2 ,0.2087 ,0.89972 ,5.27114 ,51.72043 
3 ,0.9294 ,0.90288 ,5.28483 ,51.85474 
4 ,1.1694 ,0.90597 ,5.27798 ,51.78758 
5 ,1.3936 ,0.90817 ,5.26430 ,51.65327 
6 ,1.6176 ,0.91052 ,5.24034 ,51.41822 
7 ,1.8253 ,0.91266 ,5.25061 ,51.51896 
8 ,2.0499 ,0.91479 ,5.20954 ,51.11602 
9 ,2.2741 ,0.91712 ,5.17190 ,50.74666 
10 ,2.4660 ,0.91916 ,5.15136 ,50.54519 
11 ,2.6903 ,0.92122 ,5.15136 ,50.54519 
12 ,2.8978 ,0.92343 ,5.11714 ,50.20940 
13 ,3.1062 ,0.92546 ,5.12056 ,50.24298 
14 ,3.3143 ,0.92762 ,5.08977 ,49.94078 
15 ,3.5064 ,0.92947 ,5.06581 ,49.70573 
16 ,3.7305 ,0.93164 ,5.04870 ,49.53784 
17 ,3.9386 ,0.93372 ,5.00421 ,49.10132 
18 ,4.1465 ,0.93585 ,5.01790 ,49.23563 
19 ,4.3546 ,0.93785 ,4.98368 ,48.89985 
20 ,4.5625 ,0.93999 ,4.94261 ,48.49691 
21 ,4.7710 ,0.94208 ,4.96315 ,48.69838 
22 ,4.9950 ,0.94429 ,4.91866 ,48.26186 
23 ,5.2030 ,0.94635 ,4.88786 ,47.95966 
24 ,5.4432 ,0.94877 ,4.86390 ,47.72461 
25 ,5.6672 ,0.95098 ,4.85706 ,47.65745 
26 ,5.8748 ,0.95305 ,4.83995 ,47.48956 
27 ,6.0834 ,0.95515 ,4.79888 ,47.08662 
28 ,6.2913 ,0.95731 ,4.79204 ,47.01946 
29 ,6.4835 ,0.95922 ,4.74755 ,46.58295 
30 ,6.6920 ,0.96133 ,4.75782 ,46.68368 
31 ,6.9158 ,0.96346 ,4.72702 ,46.38148 
32 ,7.1238 ,0.96570 ,4.69279 ,46.04569 
33 ,7.3315 ,0.96767 ,4.69279 ,46.04569 
34 ,7.5400 ,0.96978 ,4.65857 ,45.70991 
35 ,7.7642 ,0.97196 ,4.64488 ,45.57560 
36 ,7.9881 ,0.97423 ,4.63462 ,45.47486 
37 ,8.1803 ,0.97623 ,4.60040 ,45.13908 
38 ,8.4040 ,0.97834 ,4.57986 ,44.93761 
39 ,8.6123 ,0.98050 ,4.57302 ,44.87045 
40 ,8.8366 ,0.98273 ,4.54906 ,44.63541 
41 ,9.0446 ,0.98480 ,4.51484 ,44.29962 
42 ,9.2687 ,0.98712 ,4.50800 ,44.23247 
43 ,9.4926 ,0.98929 ,4.49773 ,44.13173 
44 ,9.7167 ,0.99156 ,4.44982 ,43.66163 
45 ,9.9409 ,0.99375 ,4.43613 ,43.52732 
46 ,10.1649 ,0.99596 ,4.41902 ,43.35943 
47 ,10.3733 ,0.99808 ,4.40533 ,43.22512 
48 ,10.5974 ,1.00035 ,4.39164 ,43.09080 
49 ,10.8210 ,1.00257 ,4.36427 ,42.82218 
50 ,11.0295 ,1.00459 ,4.35742 ,42.75502 
51 ,11.2376 ,1.00669 ,4.32320 ,42.41924 
52 ,11.4616 ,1.00898 ,4.29582 ,42.15061 
53 ,11.6697 ,1.01106 ,4.29924 ,42.18419 
54 ,11.8777 ,1.01316 ,4.26160 ,41.81483 
55 ,12.0857 ,1.01522 ,4.24791 ,41.68051 
56 ,12.2938 ,1.01729 ,4.23765 ,41.57978 
57 ,12.5181 ,1.01937 ,4.19658 ,41.17684 
58 ,12.7422 ,1.02178 ,4.17605 ,40.97537 
59 ,12.9661 ,1.02393 ,4.18631 ,41.07611 
60 ,13.1744 ,1.02605 ,4.16236 ,40.84106 
61 ,13.3984 ,1.02832 ,4.11445 ,40.37096 
62 ,13.6225 ,1.03055 ,4.09049 ,40.13591 
63 ,13.8304 ,1.03263 ,4.10076 ,40.23665 
64 ,14.0546 ,1.03485 ,4.07680 ,40.00160 
65 ,14.2627 ,1.03691 ,4.03574 ,39.59866 
66 ,14.4710 ,1.03903 ,4.04943 ,39.73297 
67 ,14.6791 ,1.04109 ,4.00494 ,39.29646 
68 ,14.9032 ,1.04333 ,3.98098 ,39.06141 
69 ,15.1270 ,1.04562 ,3.97072 ,38.96067 
70 ,15.3352 ,1.04771 ,3.96045 ,38.85994 
71 ,15.5594 ,1.04988 ,3.92623 ,38.52415 
72 ,15.7672 ,1.05202 ,3.90912 ,38.35626 
73 ,15.9916 ,1.05419 ,3.91938 ,38.45700 
74 ,16.1993 ,1.05631 ,3.87490 ,38.02048 
75 ,16.4400 ,1.05870 ,3.85436 ,37.81901 
76 ,16.6639 ,1.06091 ,3.82014 ,37.48323 
77 ,16.8880 ,1.06316 ,3.82699 ,37.55038 
78 ,17.0960 ,1.06530 ,3.80645 ,37.34891 
79 ,17.3039 ,1.06731 ,3.77565 ,37.04671 
80 ,17.5122 ,1.06939 ,3.76881 ,36.97955 
81 ,17.7040 ,1.07143 ,3.72774 ,36.57661 
82 ,17.9124 ,1.07343 ,3.74828 ,36.77808 
83 ,18.1205 ,1.07555 ,3.71063 ,36.40872 
84 ,18.3280 ,1.07759 ,3.69694 ,36.27441 
85 ,18.5206 ,1.07967 ,3.66614 ,35.97220 
86 ,18.7446 ,1.08168 ,3.64903 ,35.80431 
87 ,18.9530 ,1.08379 ,3.64219 ,35.73716 
88 ,19.1769 ,1.08605 ,3.62166 ,35.53569 
89 ,19.3851 ,1.08824 ,3.58401 ,35.16632 
90 ,19.6086 ,1.09041 ,3.58401 ,35.16632 
91 ,19.8170 ,1.09242 ,3.56006 ,34.93128 
92 ,20.0254 ,1.09455 ,3.53268 ,34.66265 
93 ,20.2333 ,1.09665 ,3.53268 ,34.66265 
94 ,20.4574 ,1.09885 ,3.50530 ,34.39402 
95 ,20.6653 ,1.10091 ,3.48819 ,34.22613 
96 ,20.8736 ,1.10303 ,3.47450 ,34.09182 
97 ,21.0657 ,1.10497 ,3.44028 ,33.75604 
98 ,21.2738 ,1.10706 ,3.44370 ,33.78961 
99 ,21.4979 ,1.10926 ,3.40606 ,33.42025 
100 ,21.7218 ,1.11147 ,3.38210 ,33.18520 
101 ,21.9299 ,1.11357 ,3.38210 ,33.18520 
102 ,22.1382 ,1.11567 ,3.34788 ,32.84942 
103 ,22.3622 ,1.11792 ,3.32393 ,32.61437 
104 ,22.5704 ,1.11999 ,3.32051 ,32.58080 
105 ,22.7619 ,1.12201 ,3.29997 ,32.37933 
106 ,22.9704 ,1.12401 ,3.29313 ,32.31217 
107 ,23.1786 ,1.12608 ,3.27259 ,32.11070 
108 ,23.3867 ,1.12818 ,3.24522 ,31.84207 
109 ,23.5948 ,1.13033 ,3.23495 ,31.74134 
110 ,23.8028 ,1.13232 ,3.20757 ,31.47271 
111 ,24.0109 ,1.13440 ,3.20415 ,31.43913 
112 ,24.2347 ,1.13663 ,3.17677 ,31.17051 
113 ,24.4430 ,1.13885 ,3.15624 ,30.96904 
114 ,24.6349 ,1.14068 ,3.13913 ,30.80115 
115 ,24.8592 ,1.14288 ,3.10833 ,30.49894 
116 ,25.0672 ,1.14494 ,3.11175 ,30.53252 
117 ,25.2753 ,1.14701 ,3.08438 ,30.26389 
118 ,25.4835 ,1.14908 ,3.06384 ,30.06242 
119 ,25.6915 ,1.15115 ,3.05700 ,29.99527 
120 ,25.8993 ,1.15328 ,3.01935 ,29.62590 
121 ,26.0914 ,1.15524 ,3.01935 ,29.62590 
122 ,26.2998 ,1.15730 ,2.98855 ,29.32370 
123 ,26.5078 ,1.15940 ,2.98513 ,29.29012 
124 ,26.7160 ,1.16141 ,2.96118 ,29.05507 
125 ,26.9081 ,1.16354 ,2.93722 ,28.82003 
126 ,27.1317 ,1.16568 ,2.94064 ,28.85360 
127 ,27.3401 ,1.16771 ,2.89958 ,28.45066 
128 ,27.5641 ,1.16986 ,2.88589 ,28.31635 
129 ,27.7724 ,1.17193 ,2.87220 ,28.18204 
130 ,27.9965 ,1.17421 ,2.85851 ,28.04772 
131 ,28.2045 ,1.17629 ,2.83114 ,27.77910 
132 ,28.4126 ,1.17842 ,2.82429 ,27.71194 
133 ,28.6208 ,1.18053 ,2.79349 ,27.40974 
134 ,28.8608 ,1.18276 ,2.78322 ,27.30900 
135 ,29.0690 ,1.18498 ,2.77980 ,27.27542 
136 ,29.2931 ,1.18719 ,2.76611 ,27.14111 
137 ,29.5172 ,1.18944 ,2.71478 ,26.63744 
138 ,29.7573 ,1.19170 ,2.71136 ,26.60386 
139 ,29.9653 ,1.19393 ,2.69083 ,26.40239 
140 ,30.1733 ,1.19597 ,2.67714 ,26.26807 
141 ,30.3976 ,1.19823 ,2.64976 ,25.99945 
142 ,30.6376 ,1.20053 ,2.64976 ,25.99945 
143 ,30.8617 ,1.20288 ,2.60185 ,25.52935 
144 ,31.0856 ,1.20509 ,2.60527 ,25.56293 
145 ,31.2938 ,1.20722 ,2.59501 ,25.46220 
146 ,31.5179 ,1.20945 ,2.56078 ,25.12641 
147 ,31.7260 ,1.21156 ,2.55736 ,25.09283 
148 ,31.9498 ,1.21375 ,2.54710 ,24.99210 
149 ,32.1578 ,1.21583 ,2.51287 ,24.65632 
150 ,32.3658 ,1.21793 ,2.50945 ,24.62274 
151 ,32.5740 ,1.21999 ,2.47865 ,24.32053 
152 ,32.7820 ,1.22206 ,2.47181 ,24.25338 
153 ,32.9903 ,1.22417 ,2.45812 ,24.11906 
154 ,33.2143 ,1.22636 ,2.43074 ,23.85044 
155 ,33.4067 ,1.22834 ,2.42048 ,23.74970 
156 ,33.6148 ,1.23038 ,2.39310 ,23.48108 
157 ,33.8388 ,1.23260 ,2.36572 ,23.21245 
158 ,34.0470 ,1.23467 ,2.37599 ,23.31318 
159 ,34.2551 ,1.23678 ,2.33834 ,22.94382 
160 ,34.4632 ,1.23888 ,2.32808 ,22.84309 
161 ,34.6709 ,1.24104 ,2.31781 ,22.74235 
162 ,34.8791 ,1.24302 ,2.28701 ,22.44015 
163 ,35.0871 ,1.24513 ,2.28701 ,22.44015 
164 ,35.3111 ,1.24725 ,2.24937 ,22.07079 
165 ,35.5191 ,1.24945 ,2.22883 ,21.86932 
166 ,35.7112 ,1.25143 ,2.23226 ,21.90290 
167 ,35.9193 ,1.25345 ,2.20146 ,21.60069 
168 ,36.1434 ,1.25570 ,2.20488 ,21.63427 
169 ,36.3516 ,1.25774 ,2.18435 ,21.43280 
170 ,36.5436 ,1.25978 ,2.14670 ,21.06344 
171 ,36.7517 ,1.26175 ,2.15355 ,21.13059 
172 ,36.9757 ,1.26407 ,2.14670 ,21.06344 
173 ,37.2318 ,1.26643 ,2.10221 ,20.62692 
174 ,37.4559 ,1.26880 ,2.07826 ,20.39187 
175 ,37.6801 ,1.27097 ,2.05773 ,20.19040 
176 ,37.8722 ,1.27309 ,2.06799 ,20.29114 
177 ,38.0803 ,1.27504 ,2.03719 ,19.98893 
178 ,38.2883 ,1.27715 ,2.03377 ,19.95535 
179 ,38.4804 ,1.27915 ,1.99955 ,19.61957 
180 ,38.6885 ,1.28115 ,2.00639 ,19.68673 
181 ,38.8806 ,1.28314 ,1.97559 ,19.38452 
182 ,39.0727 ,1.28505 ,1.96875 ,19.31737 
183 ,39.2809 ,1.28701 ,1.94822 ,19.11590 
184 ,39.5052 ,1.28928 ,1.94479 ,19.08232 
185 ,39.7294 ,1.29150 ,1.92768 ,18.91443 
186 ,39.9376 ,1.29357 ,1.88319 ,18.47791 
187 ,40.1456 ,1.29567 ,1.89004 ,18.54507 
188 ,40.3693 ,1.29797 ,1.88662 ,18.51149 
189 ,40.5939 ,1.30015 ,1.84213 ,18.07497 
190 ,40.8177 ,1.30240 ,1.79764 ,17.63845 
191 ,41.0420 ,1.30464 ,1.80791 ,17.73919 
192 ,41.2660 ,1.30684 ,1.80449 ,17.70561 
193 ,41.4897 ,1.30910 ,1.78053 ,17.47056 
194 ,41.6981 ,1.31128 ,1.75657 ,17.23551 
195 ,41.9063 ,1.31327 ,1.75315 ,17.20193 
196 ,42.1140 ,1.31534 ,1.71209 ,16.79899 
197 ,42.3384 ,1.31756 ,1.70524 ,16.73184 
198 ,42.5622 ,1.31986 ,1.70524 ,16.73184 
199 ,42.7704 ,1.32193 ,1.69498 ,16.63110 
200 ,42.9948 ,1.32418 ,1.66075 ,16.29532 
201 ,43.2189 ,1.32642 ,1.65049 ,16.19458 
202 ,43.4265 ,1.32842 ,1.65049 ,16.19458 
203 ,43.6348 ,1.33059 ,1.61969 ,15.89238 
204 ,43.8750 ,1.33293 ,1.59916 ,15.69091 
205 ,44.0992 ,1.33524 ,1.56493 ,15.35513 
206 ,44.3070 ,1.33723 ,1.58204 ,15.52302 
207 ,44.5153 ,1.33941 ,1.54440 ,15.15366 
208 ,44.7394 ,1.34153 ,1.53071 ,15.01934 
209 ,44.9314 ,1.34360 ,1.53413 ,15.05292 
210 ,45.1395 ,1.34562 ,1.49991 ,14.71714 
211 ,45.3315 ,1.34758 ,1.51018 ,14.81787 
212 ,45.5398 ,1.34958 ,1.46569 ,14.38136 
213 ,45.7639 ,1.35182 ,1.47596 ,14.48209 
214 ,45.9716 ,1.35389 ,1.44174 ,14.14631 
215 ,46.1800 ,1.35595 ,1.42805 ,14.01199 
216 ,46.4039 ,1.35822 ,1.42805 ,14.01199 
217 ,46.6116 ,1.36026 ,1.39040 ,13.64263 
218 ,46.8361 ,1.36251 ,1.38014 ,13.54190 
219 ,47.0599 ,1.36472 ,1.36303 ,13.37401 
220 ,47.2683 ,1.36687 ,1.35960 ,13.34043 
221 ,47.4763 ,1.36898 ,1.31512 ,12.90391 
222 ,47.6525 ,1.37088 ,1.33907 ,13.13896 
223 ,47.8606 ,1.37280 ,1.29800 ,12.73602 
224 ,48.0527 ,1.37484 ,1.29116 ,12.66886 
225 ,48.2607 ,1.37675 ,1.28432 ,12.60171 
226 ,48.4689 ,1.37886 ,1.27405 ,12.50097 
227 ,48.6770 ,1.38092 ,1.23983 ,12.16519 
228 ,48.9011 ,1.38318 ,1.22614 ,12.03088 
229 ,49.1092 ,1.38523 ,1.22272 ,11.99730 
230 ,49.3329 ,1.38752 ,1.19534 ,11.72867 
231 ,49.5574 ,1.38975 ,1.16454 ,11.42647 
232 ,49.7653 ,1.39183 ,1.18165 ,11.59436 
233 ,49.9897 ,1.39406 ,1.15770 ,11.35931 
234 ,50.1977 ,1.39612 ,1.14058 ,11.19142 
235 ,50.4215 ,1.39841 ,1.12005 ,10.98995 
236 ,50.6299 ,1.40054 ,1.12005 ,10.98995 
237 ,50.8379 ,1.40255 ,1.09267 ,10.72132 
238 ,51.0621 ,1.40475 ,1.06872 ,10.48627 
239 ,51.2697 ,1.40686 ,1.07214 ,10.51985 
240 ,51.4777 ,1.40895 ,1.03108 ,10.11691 
241 ,51.6862 ,1.41106 ,1.04476 ,10.25123 
242 ,51.8942 ,1.41310 ,1.00370 ,9.84829 
243 ,52.1185 ,1.41532 ,0.99343 ,9.74755 
244 ,52.3425 ,1.41759 ,0.99685 ,9.78113 
245 ,52.5502 ,1.41976 ,0.98659 ,9.68039 
246 ,52.7588 ,1.42173 ,0.94552 ,9.27745 
247 ,52.9828 ,1.42399 ,0.95579 ,9.37819 
248 ,53.1906 ,1.42606 ,0.93525 ,9.17672 
249 ,53.4150 ,1.42826 ,0.90788 ,8.90809 
250 ,53.6227 ,1.43040 ,0.90446 ,8.87451 
251 ,53.8469 ,1.43266 ,0.89761 ,8.80736 
252 ,54.0712 ,1.43486 ,0.86681 ,8.50515 
253 ,54.2793 ,1.43693 ,0.83943 ,8.23653 
254 ,54.4873 ,1.43903 ,0.85312 ,8.37084 
255 ,54.7114 ,1.44125 ,0.82575 ,8.10221 
256 ,54.9354 ,1.44361 ,0.79837 ,7.83359 
257 ,55.1438 ,1.44562 ,0.80521 ,7.90074 
258 ,55.3519 ,1.44766 ,0.77784 ,7.63212 
259 ,55.5759 ,1.44989 ,0.75730 ,7.43065 
260 ,55.7837 ,1.45197 ,0.76415 ,7.49780 
261 ,55.9921 ,1.45410 ,0.71966 ,7.06129 
262 ,56.2004 ,1.45613 ,0.73335 ,7.19560 
263 ,56.4083 ,1.45824 ,0.72992 ,7.16202 
264 ,56.6163 ,1.46027 ,0.68201 ,6.69193 
265 ,56.8243 ,1.46241 ,0.70255 ,6.89340 
266 ,57.0483 ,1.46460 ,0.66833 ,6.55761 
267 ,57.2566 ,1.46669 ,0.64095 ,6.28899 
268 ,57.4646 ,1.46879 ,0.65121 ,6.38972 
269 ,57.6728 ,1.47095 ,0.62726 ,6.15467 
270 ,57.8808 ,1.47296 ,0.61699 ,6.05394 
271 ,58.1046 ,1.47522 ,0.61015 ,5.98678 
272 ,58.3131 ,1.47726 ,0.57935 ,5.68458 
273 ,58.5212 ,1.47935 ,0.57593 ,5.65100 
274 ,58.7292 ,1.48149 ,0.55882 ,5.48311 
275 ,58.9373 ,1.48357 ,0.53486 ,5.24806 
276 ,59.1610 ,1.48575 ,0.53828 ,5.28164 
277 ,59.3691 ,1.48787 ,0.51433 ,5.04659 
278 ,59.5934 ,1.49010 ,0.48695 ,4.77796 
279 ,59.8018 ,1.49214 ,0.49380 ,4.84512 
280 ,60.0096 ,1.49423 ,0.48011 ,4.71081 
281 ,60.2178 ,1.49628 ,0.45615 ,4.47576 
282 ,60.4259 ,1.49844 ,0.45615 ,4.47576 
283 ,60.6820 ,1.50096 ,0.43904 ,4.30787 
284 ,60.8901 ,1.50305 ,0.42877 ,4.20713 
285 ,61.1143 ,1.50523 ,0.38771 ,3.80419 
286 ,61.3381 ,1.50740 ,0.39113 ,3.83777 
287 ,61.5623 ,1.50968 ,0.38771 ,3.80419 
288 ,61.7704 ,1.51179 ,0.34664 ,3.40125 
289 ,61.9785 ,1.51391 ,0.34664 ,3.40125 
290 ,62.1705 ,1.51593 ,0.35006 ,3.43483 
291 ,62.3787 ,1.51790 ,0.32953 ,3.23336 
292 ,62.5706 ,1.51987 ,0.30215 ,2.96473 
293 ,62.7788 ,1.52192 ,0.29189 ,2.86400 
294 ,62.9704 ,1.52386 ,0.27820 ,2.72969 
295 ,63.1786 ,1.52596 ,0.26793 ,2.62895 
296 ,63.3868 ,1.52803 ,0.26109 ,2.56179 
297 ,63.5787 ,1.53007 ,0.23029 ,2.25959 
298 ,63.7873 ,1.53199 ,0.24398 ,2.39390 
299 ,63.9952 ,1.53408 ,0.20976 ,2.05812 
300 ,64.2033 ,1.53616 ,0.20976 ,2.05812 
301 ,64.4114 ,1.53820 ,0.18922 ,1.85665 
302 ,64.6036 ,1.54021 ,0.19607 ,1.92381 
303 ,64.8277 ,1.54243 ,0.16869 ,1.65518 
304 ,65.0358 ,1.54448 ,0.14473 ,1.42013 
305 ,65.2439 ,1.54653 ,0.15500 ,1.52087 
306 ,65.4519 ,1.54867 ,0.12762 ,1.25224 
307 ,65.6600 ,1.55078 ,0.11393 ,1.11793 
308 ,65.8837 ,1.55289 ,0.10367 ,1.01719 
309 ,66.0760 ,1.55496 ,0.08656 ,0.84930 
310 ,66.2999 ,1.55711 ,0.08656 ,0.84930 
311 ,66.4922 ,1.55909 ,0.05234 ,0.51352 
312 ,66.7005 ,1.56119 ,0.05918 ,0.58067 
313 ,66.9080 ,1.56327 ,0.05576 ,0.54710 
314 ,67.1166 ,1.56527 ,0.01469 ,0.14416 
315 ,67.3406 ,1.56751 ,0.01127 ,0.11058 
316 ,67.5485 ,1.56958 ,-0.00584 ,-0.05731 
317 ,67.7404 ,1.57164 ,-0.01953 ,-0.19163 
318 ,67.9324 ,1.57356 ,-0.01611 ,-0.15805 
319 ,68.1410 ,1.57556 ,-0.01269 ,-0.12447 
320 ,68.3649 ,1.57773 ,-0.04691 ,-0.46025 
321 ,68.5730 ,1.57980 ,-0.07428 ,-0.72888 
322 ,68.7653 ,1.58180 ,-0.06060 ,-0.59457 
323 ,68.9893 ,1.58401 ,-0.09482 ,-0.93035 
324 ,69.1814 ,1.58591 ,-0.09140 ,-0.89677 
325 ,69.4054 ,1.58805 ,-0.09824 ,-0.96393 
326 ,69.6137 ,1.59022 ,-0.13246 ,-1.29971 
327 ,69.8219 ,1.59228 ,-0.12562 ,-1.23255 
328 ,70.0299 ,1.59444 ,-0.13588 ,-1.33329 
329 ,70.2539 ,1.59658 ,-0.17011 ,-1.66907 
330 ,70.4621 ,1.59872 ,-0.18379 ,-1.80338 
331 ,70.6701 ,1.60079 ,-0.17695 ,-1.73623 
332 ,70.8782 ,1.60290 ,-0.19748 ,-1.93770 
333 ,71.0863 ,1.60494 ,-0.20433 ,-2.00485 
334 ,71.2940 ,1.60706 ,-0.22828 ,-2.23990 
335 ,71.5023 ,1.60917 ,-0.24197 ,-2.37422 
336 ,71.6946 ,1.61115 ,-0.23170 ,-2.27348 
337 ,71.9186 ,1.61319 ,-0.25908 ,-2.54211 
338 ,72.1268 ,1.61534 ,-0.25224 ,-2.47495 
339 ,72.3667 ,1.61761 ,-0.28646 ,-2.81073 
340 ,72.5910 ,1.62004 ,-0.30015 ,-2.94505 
341 ,72.8150 ,1.62223 ,-0.32068 ,-3.14652 
342 ,73.0231 ,1.62429 ,-0.31041 ,-3.04578 
343 ,73.2311 ,1.62640 ,-0.32068 ,-3.14652 
344 ,73.4230 ,1.62835 ,-0.35148 ,-3.44872 
345 ,73.6312 ,1.63044 ,-0.35490 ,-3.48230 
346 ,73.8395 ,1.63240 ,-0.38228 ,-3.75093 
347 ,74.0637 ,1.63469 ,-0.39255 ,-3.85166 
348 ,74.2712 ,1.63679 ,-0.39597 ,-3.88524 
349 ,74.4798 ,1.63889 ,-0.42335 ,-4.15387 
350 ,74.6874 ,1.64102 ,-0.41308 ,-4.05313 
351 ,74.8960 ,1.64302 ,-0.44388 ,-4.35534 
352 ,75.1039 ,1.64513 ,-0.44046 ,-4.32176 
353 ,75.3121 ,1.64718 ,-0.44388 ,-4.35534 
354 ,75.5362 ,1.64944 ,-0.47126 ,-4.62396 
355 ,75.7438 ,1.65154 ,-0.47810 ,-4.69112 
356 ,75.9522 ,1.65370 ,-0.48152 ,-4.72470 
357 ,76.1603 ,1.65565 ,-0.50548 ,-4.95975 
358 ,76.3682 ,1.65771 ,-0.51232 ,-5.02690 
359 ,76.5767 ,1.65985 ,-0.52943 ,-5.19479 
360 ,76.8003 ,1.66207 ,-0.55681 ,-5.46342 
361 ,76.9929 ,1.66415 ,-0.53970 ,-5.29553 
362 ,77.2011 ,1.66615 ,-0.57392 ,-5.63131 
363 ,77.4248 ,1.66829 ,-0.57734 ,-5.66489 
364 ,77.6171 ,1.67024 ,-0.58419 ,-5.73205 
365 ,77.8252 ,1.67230 ,-0.58761 ,-5.76562 
366 ,78.0330 ,1.67441 ,-0.61156 ,-6.00067 
367 ,78.2413 ,1.67654 ,-0.63210 ,-6.20214 
368 ,78.4493 ,1.67857 ,-0.61499 ,-6.03425 
369 ,78.6730 ,1.68078 ,-0.64579 ,-6.33646 
370 ,78.8815 ,1.68284 ,-0.65947 ,-6.47077 
371 ,79.0896 ,1.68492 ,-0.65263 ,-6.40361 
372 ,79.2977 ,1.68706 ,-0.68001 ,-6.67224 
373 ,79.5216 ,1.68929 ,-0.69027 ,-6.77297 
374 ,79.7300 ,1.69138 ,-0.68685 ,-6.73940 
375 ,79.9541 ,1.69358 ,-0.71765 ,-7.04160 
376 ,80.1619 ,1.69575 ,-0.73818 ,-7.24307 
377 ,80.3862 ,1.69786 ,-0.73476 ,-7.20949 
378 ,80.5941 ,1.69996 ,-0.75187 ,-7.37738 
379 ,80.8023 ,1.70208 ,-0.76214 ,-7.47812 
380 ,80.9942 ,1.70410 ,-0.75187 ,-7.37738 
381 ,81.2021 ,1.70607 ,-0.78952 ,-7.74674 
382 ,81.4106 ,1.70818 ,-0.77583 ,-7.61243 
383 ,81.6027 ,1.71022 ,-0.81347 ,-7.98179 
384 ,81.8108 ,1.71218 ,-0.79636 ,-7.81390 
385 ,82.0349 ,1.71446 ,-0.82374 ,-8.08253 
386 ,82.2430 ,1.71652 ,-0.85112 ,-8.35115 
387 ,82.4664 ,1.71869 ,-0.82032 ,-8.04895 
388 ,82.6911 ,1.72082 ,-0.84769 ,-8.31758 
389 ,82.9151 ,1.72321 ,-0.86823 ,-8.51904 
390 ,83.1234 ,1.72524 ,-0.88192 ,-8.65336 
391 ,83.3792 ,1.72787 ,-0.89903 ,-8.82125 
392 ,83.6036 ,1.73009 ,-0.89560 ,-8.78767 
393 ,83.8117 ,1.73216 ,-0.90245 ,-8.85483 
394 ,84.0197 ,1.73423 ,-0.93325 ,-9.15703 
395 ,84.2117 ,1.73623 ,-0.91614 ,-8.98914 
396 ,84.4038 ,1.73811 ,-0.95720 ,-9.39208 
397 ,84.6119 ,1.74013 ,-0.93667 ,-9.19061 
398 ,84.8041 ,1.74210 ,-0.96405 ,-9.45924 
399 ,85.0281 ,1.74432 ,-0.96063 ,-9.42566 
400 ,85.2198 ,1.74631 ,-1.00169 ,-9.82860 
401 ,85.4283 ,1.74838 ,-0.98800 ,-9.69429 
402 ,85.6519 ,1.75051 ,-0.99143 ,-9.72786 
403 ,85.8605 ,1.75271 ,-1.02222 ,-10.03007 
404 ,86.0684 ,1.75471 ,-1.02565 ,-10.06365 
405 ,86.2602 ,1.75681 ,-1.04618 ,-10.26512 
406 ,86.4527 ,1.75864 ,-1.04276 ,-10.23154 
407 ,86.6608 ,1.76063 ,-1.07014 ,-10.50016 
408 ,86.8688 ,1.76277 ,-1.05645 ,-10.36585 
409 ,87.0770 ,1.76482 ,-1.08040 ,-10.60090 
410 ,87.2849 ,1.76688 ,-1.09409 ,-10.73521 
411 ,87.5091 ,1.76909 ,-1.08725 ,-10.66806 
412 ,87.7332 ,1.77140 ,-1.09067 ,-10.70163 
413 ,87.9411 ,1.77344 ,-1.12489 ,-11.03742 
414 ,88.1494 ,1.77551 ,-1.12831 ,-11.07100 
415 ,88.3575 ,1.77759 ,-1.15569 ,-11.33962 
416 ,88.5336 ,1.77949 ,-1.13858 ,-11.17173 
417 ,88.7417 ,1.78147 ,-1.16938 ,-11.47394 
418 ,88.9653 ,1.78367 ,-1.15911 ,-11.37320 
419 ,89.1735 ,1.78577 ,-1.17280 ,-11.50751 
420 ,89.3820 ,1.78785 ,-1.18649 ,-11.64183 
421 ,89.5900 ,1.78991 ,-1.19333 ,-11.70898 
422 ,89.7821 ,1.79195 ,-1.22755 ,-12.04477 
423 ,89.9903 ,1.79395 ,-1.20360 ,-11.80972 
424 ,90.2142 ,1.79616 ,-1.21044 ,-11.87688 
425 ,90.4384 ,1.79839 ,-1.25493 ,-12.31339 
426 ,90.6464 ,1.80048 ,-1.24467 ,-12.21266 
427 ,90.8706 ,1.80272 ,-1.25151 ,-12.27981 
428 ,91.0945 ,1.80499 ,-1.28231 ,-12.58202 
429 ,91.3027 ,1.80703 ,-1.28573 ,-12.61560 
430 ,91.5109 ,1.80916 ,-1.27547 ,-12.51486 
431 ,91.7349 ,1.81136 ,-1.29258 ,-12.68275 
432 ,91.9429 ,1.81345 ,-1.30969 ,-12.85065 
433 ,92.1511 ,1.81550 ,-1.31311 ,-12.88422 
434 ,92.3913 ,1.81788 ,-1.34049 ,-13.15285 
435 ,92.6153 ,1.82009 ,-1.33706 ,-13.11927 
436 ,92.8234 ,1.82224 ,-1.36102 ,-13.35432 
437 ,93.0315 ,1.82436 ,-1.35075 ,-13.25359 
438 ,93.2235 ,1.82638 ,-1.39182 ,-13.65653 
439 ,93.4316 ,1.82829 ,-1.36444 ,-13.38790 
440 ,93.6397 ,1.83038 ,-1.39866 ,-13.72368 
441 ,93.8639 ,1.83266 ,-1.39524 ,-13.69010 
442 ,94.0879 ,1.83500 ,-1.41235 ,-13.85799 
443 ,94.2959 ,1.83709 ,-1.40209 ,-13.75726 
444 ,94.5040 ,1.83903 ,-1.43288 ,-14.05946 
445 ,94.7279 ,1.84123 ,-1.43631 ,-14.09304 
446 ,94.9363 ,1.84337 ,-1.46711 ,-14.39525 
447 ,95.1442 ,1.84544 ,-1.45342 ,-14.26093 
448 ,95.3524 ,1.84750 ,-1.46711 ,-14.39525 
449 ,95.5601 ,1.84957 ,-1.49106 ,-14.63030 
450 ,95.7685 ,1.85166 ,-1.47395 ,-14.46240 
451 ,95.9766 ,1.85371 ,-1.51502 ,-14.86534 
452 ,96.1527 ,1.85567 ,-1.48764 ,-14.59672 
453 ,96.3768 ,1.85770 ,-1.51844 ,-14.89892 
454 ,96.5685 ,1.85975 ,-1.51844 ,-14.89892 
455 ,96.7606 ,1.86171 ,-1.54924 ,-15.20113 
456 ,96.9526 ,1.86362 ,-1.53213 ,-15.03324 
457 ,97.1608 ,1.86558 ,-1.55950 ,-15.30186 
458 ,97.3690 ,1.86768 ,-1.54239 ,-15.13397 
459 ,97.5609 ,1.86977 ,-1.58346 ,-15.53691 
460 ,97.7848 ,1.87182 ,-1.56293 ,-15.33544 
