Data stamp = , 19-05-2022 10:09:15 537

Calibration Values: 
Slope = , 26.54 , g/V 
Offset Voltage at no contact = , -0.501760 , V 

No , Time , Stage Position ,   Mass , Force 
   ,  (s) ,      (mm)      ,   (g)  , (mN)  

1 ,0.0000 ,0.89966 ,5.31221 ,52.12337 
2 ,0.2134 ,0.89973 ,5.32589 ,52.25768 
3 ,0.9977 ,0.90320 ,5.32589 ,52.25768 
4 ,1.2218 ,0.90653 ,5.30878 ,52.08979 
5 ,1.4142 ,0.90858 ,5.31563 ,52.15694 
6 ,1.6542 ,0.91093 ,5.30878 ,52.08979 
7 ,1.8625 ,0.91300 ,5.26087 ,51.61969 
8 ,2.0865 ,0.91529 ,5.23007 ,51.31749 
9 ,2.2785 ,0.91730 ,5.23692 ,51.38464 
10 ,2.5349 ,0.91963 ,5.19243 ,50.94813 
11 ,2.7585 ,0.92196 ,5.16848 ,50.71308 
12 ,2.9670 ,0.92403 ,5.13768 ,50.41087 
13 ,3.1912 ,0.92635 ,5.13083 ,50.34372 
14 ,3.4149 ,0.92854 ,5.10345 ,50.07509 
15 ,3.6233 ,0.93063 ,5.07950 ,49.84004 
16 ,3.8474 ,0.93286 ,5.05897 ,49.63857 
17 ,4.0715 ,0.93507 ,5.04870 ,49.53784 
18 ,4.2796 ,0.93716 ,5.02474 ,49.30279 
19 ,4.5037 ,0.93947 ,4.98368 ,48.89985 
20 ,4.7597 ,0.94184 ,4.96999 ,48.76554 
21 ,4.9676 ,0.94409 ,4.93577 ,48.42975 
22 ,5.2240 ,0.94643 ,4.93577 ,48.42975 
23 ,5.4480 ,0.94884 ,4.90155 ,48.09397 
24 ,5.6398 ,0.95089 ,4.88444 ,47.92608 
25 ,5.8642 ,0.95294 ,4.86732 ,47.75819 
26 ,6.0882 ,0.95530 ,4.83652 ,47.45598 
27 ,6.2643 ,0.95718 ,4.81599 ,47.25451 
28 ,6.4725 ,0.95910 ,4.80573 ,47.15378 
29 ,6.6805 ,0.96116 ,4.77493 ,46.85157 
30 ,6.8726 ,0.96323 ,4.75439 ,46.65010 
31 ,7.0645 ,0.96505 ,4.73386 ,46.44863 
32 ,7.2727 ,0.96710 ,4.73386 ,46.44863 
33 ,7.4809 ,0.96917 ,4.69964 ,46.11285 
34 ,7.7048 ,0.97140 ,4.67568 ,45.87780 
35 ,7.9126 ,0.97347 ,4.66884 ,45.81065 
36 ,8.1211 ,0.97559 ,4.64146 ,45.54202 
37 ,8.3292 ,0.97764 ,4.62777 ,45.40771 
38 ,8.5534 ,0.97987 ,4.60724 ,45.20624 
39 ,8.7614 ,0.98194 ,4.58328 ,44.97119 
40 ,8.9851 ,0.98423 ,4.56275 ,44.76972 
41 ,9.2094 ,0.98644 ,4.54222 ,44.56825 
42 ,9.4175 ,0.98856 ,4.53537 ,44.50109 
43 ,9.6255 ,0.99061 ,4.49773 ,44.13173 
44 ,9.8338 ,0.99274 ,4.49773 ,44.13173 
45 ,10.0419 ,0.99478 ,4.45666 ,43.72879 
46 ,10.2661 ,0.99688 ,4.44982 ,43.66163 
47 ,10.4900 ,0.99921 ,4.43271 ,43.49374 
48 ,10.6980 ,1.00128 ,4.40875 ,43.25870 
49 ,10.9063 ,1.00338 ,4.37111 ,42.88933 
50 ,11.1144 ,1.00552 ,4.37795 ,42.95649 
51 ,11.3063 ,1.00751 ,4.34031 ,42.58713 
52 ,11.4983 ,1.00934 ,4.32662 ,42.45282 
53 ,11.7065 ,1.01138 ,4.30951 ,42.28492 
54 ,11.9146 ,1.01347 ,4.30951 ,42.28492 
55 ,12.1069 ,1.01544 ,4.27187 ,41.91556 
56 ,12.3146 ,1.01749 ,4.25818 ,41.78125 
57 ,12.5551 ,1.01978 ,4.23422 ,41.54620 
58 ,12.7789 ,1.02215 ,4.21369 ,41.34473 
59 ,13.0032 ,1.02428 ,4.18289 ,41.04253 
60 ,13.2273 ,1.02657 ,4.16236 ,40.84106 
61 ,13.4194 ,1.02855 ,4.15894 ,40.80748 
62 ,13.6272 ,1.03065 ,4.13498 ,40.57243 
63 ,13.8517 ,1.03281 ,4.10760 ,40.30380 
64 ,14.0437 ,1.03488 ,4.09391 ,40.16949 
65 ,14.2196 ,1.03666 ,4.08365 ,40.06876 
66 ,14.4279 ,1.03864 ,4.04943 ,39.73297 
67 ,14.6194 ,1.04065 ,4.04600 ,39.69940 
68 ,14.8278 ,1.04258 ,4.01178 ,39.36361 
69 ,15.0196 ,1.04467 ,4.00836 ,39.33003 
70 ,15.1960 ,1.04645 ,4.00152 ,39.26288 
71 ,15.4041 ,1.04830 ,3.96729 ,38.92709 
72 ,15.6123 ,1.05046 ,3.96045 ,38.85994 
73 ,15.8525 ,1.05278 ,3.93307 ,38.59131 
74 ,16.0764 ,1.05510 ,3.92623 ,38.52415 
75 ,16.2847 ,1.05722 ,3.88516 ,38.12122 
76 ,16.5085 ,1.05940 ,3.86805 ,37.95332 
77 ,16.7169 ,1.06149 ,3.86121 ,37.88617 
78 ,16.9248 ,1.06358 ,3.82699 ,37.55038 
79 ,17.1490 ,1.06576 ,3.81330 ,37.41607 
80 ,17.3568 ,1.06794 ,3.81672 ,37.44965 
81 ,17.5652 ,1.07001 ,3.76881 ,36.97955 
82 ,17.7731 ,1.07203 ,3.77223 ,37.01313 
83 ,17.9809 ,1.07413 ,3.74485 ,36.74450 
84 ,18.1894 ,1.07619 ,3.71748 ,36.47588 
85 ,18.4134 ,1.07845 ,3.71748 ,36.47588 
86 ,18.6216 ,1.08057 ,3.67299 ,36.03936 
87 ,18.8458 ,1.08277 ,3.64903 ,35.80431 
88 ,19.0534 ,1.08486 ,3.65588 ,35.87147 
89 ,19.2776 ,1.08710 ,3.64561 ,35.77073 
90 ,19.5019 ,1.08942 ,3.60797 ,35.40137 
91 ,19.7100 ,1.09142 ,3.58743 ,35.19990 
92 ,19.9340 ,1.09371 ,3.57032 ,35.03201 
93 ,20.1422 ,1.09573 ,3.53610 ,34.69623 
94 ,20.3504 ,1.09787 ,3.53268 ,34.66265 
95 ,20.5583 ,1.09997 ,3.52926 ,34.62907 
96 ,20.7664 ,1.10201 ,3.48477 ,34.19255 
97 ,20.9745 ,1.10411 ,3.49161 ,34.25971 
98 ,21.1826 ,1.10620 ,3.46081 ,33.95751 
99 ,21.4067 ,1.10835 ,3.44713 ,33.82319 
100 ,21.6146 ,1.11054 ,3.42317 ,33.58814 
101 ,21.8069 ,1.11242 ,3.38553 ,33.21878 
102 ,22.0151 ,1.11446 ,3.39579 ,33.31952 
103 ,22.2232 ,1.11660 ,3.35130 ,32.88300 
104 ,22.4148 ,1.11857 ,3.35473 ,32.91658 
105 ,22.6234 ,1.12058 ,3.32051 ,32.58080 
106 ,22.8152 ,1.12260 ,3.33419 ,32.71511 
107 ,23.0235 ,1.12453 ,3.29313 ,32.31217 
108 ,23.2479 ,1.12673 ,3.27944 ,32.17786 
109 ,23.4556 ,1.12883 ,3.28286 ,32.21143 
110 ,23.6637 ,1.13090 ,3.23495 ,31.74134 
111 ,23.8718 ,1.13302 ,3.23153 ,31.70776 
112 ,24.0797 ,1.13512 ,3.21442 ,31.53987 
113 ,24.2875 ,1.13716 ,3.18020 ,31.20409 
114 ,24.4799 ,1.13914 ,3.18020 ,31.20409 
115 ,24.6717 ,1.14108 ,3.16309 ,31.03619 
116 ,24.8801 ,1.14313 ,3.13913 ,30.80115 
117 ,25.1042 ,1.14529 ,3.10149 ,30.43178 
118 ,25.2962 ,1.14732 ,3.11518 ,30.56610 
119 ,25.5044 ,1.14925 ,3.08095 ,30.23031 
120 ,25.6964 ,1.15140 ,3.08095 ,30.23031 
121 ,25.9046 ,1.15339 ,3.04331 ,29.86095 
122 ,26.1286 ,1.15552 ,3.02278 ,29.65948 
123 ,26.3367 ,1.15765 ,3.02620 ,29.69306 
124 ,26.5449 ,1.15972 ,2.98171 ,29.25654 
125 ,26.7371 ,1.16172 ,2.99882 ,29.42444 
126 ,26.9606 ,1.16389 ,2.96802 ,29.12223 
127 ,27.2012 ,1.16628 ,2.94064 ,28.85360 
128 ,27.4091 ,1.16851 ,2.91327 ,28.58498 
129 ,27.6169 ,1.17046 ,2.92011 ,28.65213 
130 ,27.8094 ,1.17240 ,2.88247 ,28.28277 
131 ,28.0171 ,1.17457 ,2.87220 ,28.18204 
132 ,28.2255 ,1.17660 ,2.84140 ,27.87983 
133 ,28.4498 ,1.17880 ,2.83114 ,27.77910 
134 ,28.6738 ,1.18098 ,2.84140 ,27.87983 
135 ,28.8977 ,1.18324 ,2.80376 ,27.51047 
136 ,29.1060 ,1.18531 ,2.76269 ,27.10753 
137 ,29.3139 ,1.18746 ,2.76954 ,27.17469 
138 ,29.5222 ,1.18950 ,2.73874 ,26.87248 
139 ,29.7462 ,1.19173 ,2.70109 ,26.50312 
140 ,29.9384 ,1.19369 ,2.73874 ,26.87248 
141 ,30.1466 ,1.19575 ,2.67714 ,26.26807 
142 ,30.3546 ,1.19779 ,2.69083 ,26.40239 
143 ,30.5466 ,1.19976 ,2.65660 ,26.06661 
144 ,30.7548 ,1.20178 ,2.66687 ,26.16734 
145 ,30.9469 ,1.20387 ,2.63607 ,25.86514 
146 ,31.1709 ,1.20597 ,2.62581 ,25.76440 
147 ,31.3785 ,1.20807 ,2.59843 ,25.49577 
148 ,31.5871 ,1.21018 ,2.57105 ,25.22715 
149 ,31.8112 ,1.21232 ,2.55394 ,25.05926 
150 ,32.0031 ,1.21445 ,2.55052 ,25.02568 
151 ,32.1952 ,1.21626 ,2.54710 ,24.99210 
152 ,32.4031 ,1.21827 ,2.51287 ,24.65632 
153 ,32.6274 ,1.22056 ,2.48892 ,24.42127 
154 ,32.8517 ,1.22277 ,2.47865 ,24.32053 
155 ,33.0596 ,1.22486 ,2.48550 ,24.38769 
156 ,33.2677 ,1.22694 ,2.43074 ,23.85044 
157 ,33.4760 ,1.22901 ,2.44101 ,23.95117 
158 ,33.6679 ,1.23108 ,2.40679 ,23.61539 
159 ,33.8762 ,1.23303 ,2.41363 ,23.68255 
160 ,34.1003 ,1.23529 ,2.38625 ,23.41392 
161 ,34.3242 ,1.23744 ,2.35203 ,23.07814 
162 ,34.5163 ,1.23961 ,2.34519 ,23.01098 
163 ,34.7080 ,1.24141 ,2.31097 ,22.67520 
164 ,34.9325 ,1.24351 ,2.32465 ,22.80951 
165 ,35.1565 ,1.24585 ,2.31439 ,22.70877 
166 ,35.3647 ,1.24802 ,2.29385 ,22.50731 
167 ,35.5728 ,1.24997 ,2.26990 ,22.27226 
168 ,35.7810 ,1.25203 ,2.23910 ,21.97005 
169 ,36.0048 ,1.25426 ,2.22541 ,21.83574 
170 ,36.2291 ,1.25656 ,2.19803 ,21.56711 
171 ,36.4532 ,1.25879 ,2.19119 ,21.49996 
172 ,36.6611 ,1.26080 ,2.19461 ,21.53353 
173 ,36.8853 ,1.26313 ,2.16039 ,21.19775 
174 ,37.0932 ,1.26519 ,2.15012 ,21.09702 
175 ,37.3015 ,1.26730 ,2.13986 ,20.99628 
176 ,37.5095 ,1.26934 ,2.09537 ,20.55976 
177 ,37.7337 ,1.27157 ,2.10564 ,20.66050 
178 ,37.9417 ,1.27367 ,2.08852 ,20.49261 
179 ,38.1656 ,1.27592 ,2.05430 ,20.15682 
180 ,38.4057 ,1.27829 ,2.04061 ,20.02251 
181 ,38.6300 ,1.28051 ,2.00982 ,19.72031 
182 ,38.8381 ,1.28258 ,2.02008 ,19.82104 
183 ,39.0622 ,1.28486 ,1.99613 ,19.58599 
184 ,39.2703 ,1.28696 ,1.95848 ,19.21663 
185 ,39.4944 ,1.28915 ,1.95848 ,19.21663 
186 ,39.7024 ,1.29126 ,1.94479 ,19.08232 
187 ,39.8946 ,1.29320 ,1.92426 ,18.88085 
188 ,40.1185 ,1.29537 ,1.93111 ,18.94801 
189 ,40.2943 ,1.29736 ,1.88319 ,18.47791 
190 ,40.5026 ,1.29929 ,1.89346 ,18.57864 
191 ,40.7269 ,1.30151 ,1.86951 ,18.34360 
192 ,40.9349 ,1.30355 ,1.85582 ,18.20928 
193 ,41.1430 ,1.30565 ,1.85582 ,18.20928 
194 ,41.3511 ,1.30775 ,1.80449 ,17.70561 
195 ,41.5753 ,1.31005 ,1.82160 ,17.87350 
196 ,41.8151 ,1.31230 ,1.80449 ,17.70561 
197 ,42.0234 ,1.31447 ,1.78053 ,17.47056 
198 ,42.2635 ,1.31671 ,1.73604 ,17.03404 
199 ,42.4873 ,1.31912 ,1.73262 ,17.00046 
200 ,42.6955 ,1.32126 ,1.72920 ,16.96689 
201 ,42.9038 ,1.32329 ,1.71209 ,16.79899 
202 ,43.1275 ,1.32549 ,1.67444 ,16.42963 
203 ,43.3200 ,1.32750 ,1.69155 ,16.59752 
204 ,43.5442 ,1.32967 ,1.65049 ,16.19458 
205 ,43.7841 ,1.33197 ,1.62995 ,15.99311 
206 ,43.9921 ,1.33419 ,1.60600 ,15.75807 
207 ,44.2003 ,1.33620 ,1.61969 ,15.89238 
208 ,44.4080 ,1.33831 ,1.57862 ,15.48944 
209 ,44.6000 ,1.34030 ,1.58547 ,15.55660 
210 ,44.8081 ,1.34234 ,1.55467 ,15.25439 
211 ,45.0165 ,1.34441 ,1.54782 ,15.18724 
212 ,45.2409 ,1.34662 ,1.53756 ,15.08650 
213 ,45.4488 ,1.34866 ,1.49991 ,14.71714 
214 ,45.6570 ,1.35079 ,1.50676 ,14.78430 
215 ,45.8646 ,1.35285 ,1.48622 ,14.58283 
216 ,46.0891 ,1.35512 ,1.46227 ,14.34778 
217 ,46.3130 ,1.35738 ,1.44516 ,14.17989 
218 ,46.5213 ,1.35948 ,1.44858 ,14.21346 
219 ,46.7454 ,1.36166 ,1.42462 ,13.97842 
220 ,46.9372 ,1.36362 ,1.41436 ,13.87768 
221 ,47.1616 ,1.36582 ,1.39040 ,13.64263 
222 ,47.3857 ,1.36812 ,1.38356 ,13.57548 
223 ,47.5937 ,1.37018 ,1.34591 ,13.20612 
224 ,47.8018 ,1.37222 ,1.34934 ,13.23969 
225 ,48.0100 ,1.37433 ,1.31854 ,12.93749 
226 ,48.2497 ,1.37663 ,1.30827 ,12.83675 
227 ,48.4418 ,1.37876 ,1.30143 ,12.76960 
228 ,48.6659 ,1.38074 ,1.27405 ,12.50097 
229 ,48.9062 ,1.38326 ,1.27063 ,12.46739 
230 ,49.1625 ,1.38580 ,1.25694 ,12.33308 
231 ,49.3863 ,1.38813 ,1.22956 ,12.06445 
232 ,49.6107 ,1.39033 ,1.21245 ,11.89656 
233 ,49.8185 ,1.39237 ,1.21245 ,11.89656 
234 ,50.0269 ,1.39444 ,1.17481 ,11.52720 
235 ,50.2509 ,1.39670 ,1.15427 ,11.32573 
236 ,50.4589 ,1.39871 ,1.16796 ,11.46004 
237 ,50.6828 ,1.40102 ,1.16112 ,11.39289 
238 ,50.8909 ,1.40309 ,1.12005 ,10.98995 
239 ,51.0832 ,1.40517 ,1.12005 ,10.98995 
240 ,51.2748 ,1.40711 ,1.07899 ,10.58701 
241 ,51.5149 ,1.40928 ,1.08583 ,10.65416 
242 ,51.7390 ,1.41160 ,1.07556 ,10.55343 
243 ,51.9636 ,1.41371 ,1.05503 ,10.35196 
244 ,52.1876 ,1.41610 ,1.04819 ,10.28480 
245 ,52.3956 ,1.41814 ,1.02765 ,10.08333 
246 ,52.6034 ,1.42021 ,1.02081 ,10.01618 
247 ,52.8118 ,1.42230 ,0.98659 ,9.68039 
248 ,53.0360 ,1.42457 ,0.96948 ,9.51250 
249 ,53.2439 ,1.42661 ,0.97632 ,9.57966 
250 ,53.4521 ,1.42870 ,0.93525 ,9.17672 
251 ,53.6758 ,1.43090 ,0.92841 ,9.10956 
252 ,53.9003 ,1.43320 ,0.92841 ,9.10956 
253 ,54.1244 ,1.43540 ,0.92499 ,9.07598 
254 ,54.3326 ,1.43751 ,0.87366 ,8.57231 
255 ,54.5565 ,1.43972 ,0.85654 ,8.40442 
256 ,54.7645 ,1.44179 ,0.86681 ,8.50515 
257 ,54.9887 ,1.44413 ,0.82232 ,8.06864 
258 ,55.1968 ,1.44622 ,0.81548 ,8.00148 
259 ,55.4210 ,1.44833 ,0.82917 ,8.13579 
260 ,55.6289 ,1.45043 ,0.80179 ,7.86717 
261 ,55.8372 ,1.45257 ,0.78468 ,7.69927 
262 ,56.0612 ,1.45483 ,0.78468 ,7.69927 
263 ,56.2854 ,1.45707 ,0.76072 ,7.46423 
264 ,56.4934 ,1.45913 ,0.73335 ,7.19560 
265 ,56.7015 ,1.46116 ,0.74361 ,7.29633 
266 ,56.9096 ,1.46326 ,0.70939 ,6.96055 
267 ,57.1337 ,1.46550 ,0.68201 ,6.69193 
268 ,57.3420 ,1.46760 ,0.68886 ,6.75908 
269 ,57.5498 ,1.46971 ,0.67859 ,6.65835 
270 ,57.7579 ,1.47175 ,0.66148 ,6.49046 
271 ,57.9821 ,1.47398 ,0.65464 ,6.42330 
272 ,58.1897 ,1.47608 ,0.63068 ,6.18825 
273 ,58.3982 ,1.47814 ,0.61699 ,6.05394 
274 ,58.6063 ,1.48025 ,0.61015 ,5.98678 
275 ,58.8305 ,1.48242 ,0.58619 ,5.75173 
276 ,59.0384 ,1.48452 ,0.57593 ,5.65100 
277 ,59.2622 ,1.48677 ,0.56566 ,5.55026 
278 ,59.4708 ,1.48886 ,0.54513 ,5.34879 
279 ,59.6789 ,1.49093 ,0.52802 ,5.18090 
280 ,59.9029 ,1.49322 ,0.53144 ,5.21448 
281 ,60.1111 ,1.49522 ,0.50748 ,4.97943 
282 ,60.3191 ,1.49735 ,0.48353 ,4.74438 
283 ,60.5750 ,1.49991 ,0.46642 ,4.57649 
284 ,60.7834 ,1.50201 ,0.46984 ,4.61007 
285 ,60.9915 ,1.50408 ,0.44246 ,4.34144 
286 ,61.2152 ,1.50628 ,0.41851 ,4.10640 
287 ,61.3915 ,1.50822 ,0.43904 ,4.30787 
288 ,61.5995 ,1.51012 ,0.41851 ,4.10640 
289 ,61.8078 ,1.51223 ,0.38771 ,3.80419 
290 ,62.0157 ,1.51428 ,0.36375 ,3.56914 
291 ,62.2237 ,1.51647 ,0.37744 ,3.70346 
292 ,62.4321 ,1.51848 ,0.34664 ,3.40125 
293 ,62.6397 ,1.52054 ,0.34664 ,3.40125 
294 ,62.8482 ,1.52267 ,0.34322 ,3.36767 
295 ,63.0564 ,1.52476 ,0.30558 ,2.99831 
296 ,63.2642 ,1.52678 ,0.32269 ,3.16620 
297 ,63.4725 ,1.52889 ,0.28162 ,2.76326 
298 ,63.6964 ,1.53110 ,0.27478 ,2.69611 
299 ,63.9206 ,1.53335 ,0.27478 ,2.69611 
300 ,64.1447 ,1.53558 ,0.25424 ,2.49464 
301 ,64.3369 ,1.53760 ,0.22344 ,2.19243 
302 ,64.5610 ,1.53967 ,0.21660 ,2.12528 
303 ,64.7689 ,1.54182 ,0.20976 ,2.05812 
304 ,64.9768 ,1.54393 ,0.19264 ,1.89023 
305 ,65.2011 ,1.54618 ,0.18238 ,1.78949 
306 ,65.4093 ,1.54823 ,0.17211 ,1.68876 
307 ,65.6335 ,1.55046 ,0.13789 ,1.35298 
308 ,65.8254 ,1.55250 ,0.14473 ,1.42013 
309 ,66.0173 ,1.55431 ,0.13105 ,1.28582 
310 ,66.2252 ,1.55649 ,0.12762 ,1.25224 
311 ,66.4336 ,1.55839 ,0.08656 ,0.84930 
312 ,66.6577 ,1.56071 ,0.08314 ,0.81572 
313 ,66.8658 ,1.56284 ,0.09682 ,0.95004 
314 ,67.0734 ,1.56488 ,0.05918 ,0.58067 
315 ,67.2660 ,1.56689 ,0.06945 ,0.68141 
316 ,67.4744 ,1.56887 ,0.03522 ,0.34563 
317 ,67.6822 ,1.57092 ,0.04207 ,0.41278 
318 ,67.9061 ,1.57321 ,0.02838 ,0.27847 
319 ,68.1141 ,1.57528 ,-0.01611 ,-0.15805 
320 ,68.3383 ,1.57760 ,-0.00242 ,-0.02373 
321 ,68.5626 ,1.57968 ,-0.00584 ,-0.05731 
322 ,68.7866 ,1.58205 ,-0.02980 ,-0.29236 
323 ,68.9946 ,1.58409 ,-0.06402 ,-0.62814 
324 ,69.1867 ,1.58614 ,-0.05375 ,-0.52741 
325 ,69.4107 ,1.58815 ,-0.07771 ,-0.76246 
326 ,69.6187 ,1.59035 ,-0.08797 ,-0.86319 
327 ,69.8429 ,1.59257 ,-0.09140 ,-0.89677 
328 ,70.0190 ,1.59446 ,-0.12904 ,-1.26613 
329 ,70.2269 ,1.59642 ,-0.10851 ,-1.06466 
330 ,70.4348 ,1.59849 ,-0.14273 ,-1.40045 
331 ,70.6435 ,1.60056 ,-0.14615 ,-1.43402 
332 ,70.8515 ,1.60264 ,-0.15984 ,-1.56834 
333 ,71.0755 ,1.60487 ,-0.19064 ,-1.87054 
334 ,71.2676 ,1.60690 ,-0.18722 ,-1.83696 
335 ,71.4757 ,1.60886 ,-0.20775 ,-2.03843 
336 ,71.6998 ,1.61117 ,-0.19748 ,-1.93770 
337 ,71.9560 ,1.61351 ,-0.21117 ,-2.07201 
338 ,72.1797 ,1.61588 ,-0.23513 ,-2.30706 
339 ,72.3879 ,1.61802 ,-0.24881 ,-2.44137 
340 ,72.5962 ,1.62007 ,-0.26250 ,-2.57569 
341 ,72.8201 ,1.62235 ,-0.25908 ,-2.54211 
342 ,73.0603 ,1.62462 ,-0.27619 ,-2.71000 
343 ,73.2843 ,1.62700 ,-0.28988 ,-2.84431 
344 ,73.4925 ,1.62902 ,-0.32068 ,-3.14652 
345 ,73.7163 ,1.63124 ,-0.32410 ,-3.18010 
346 ,73.9245 ,1.63340 ,-0.33437 ,-3.28083 
347 ,74.1486 ,1.63558 ,-0.35832 ,-3.51588 
348 ,74.3567 ,1.63764 ,-0.37544 ,-3.68377 
349 ,74.5649 ,1.63979 ,-0.35490 ,-3.48230 
350 ,74.7889 ,1.64198 ,-0.39597 ,-3.88524 
351 ,74.9972 ,1.64405 ,-0.39255 ,-3.85166 
352 ,75.2210 ,1.64628 ,-0.40281 ,-3.95240 
353 ,75.4291 ,1.64841 ,-0.43361 ,-4.25460 
354 ,75.6370 ,1.65049 ,-0.44388 ,-4.35534 
355 ,75.8454 ,1.65253 ,-0.43361 ,-4.25460 
356 ,76.0371 ,1.65456 ,-0.47810 ,-4.69112 
357 ,76.2457 ,1.65654 ,-0.45414 ,-4.45607 
358 ,76.4696 ,1.65877 ,-0.49179 ,-4.82543 
359 ,76.6777 ,1.66083 ,-0.49521 ,-4.85901 
360 ,76.8858 ,1.66307 ,-0.50548 ,-4.95975 
361 ,77.0938 ,1.66500 ,-0.51574 ,-5.06048 
362 ,77.3020 ,1.66718 ,-0.51232 ,-5.02690 
363 ,77.5261 ,1.66938 ,-0.52601 ,-5.16121 
364 ,77.7182 ,1.67129 ,-0.55681 ,-5.46342 
365 ,77.9263 ,1.67335 ,-0.54654 ,-5.36268 
366 ,78.1345 ,1.67546 ,-0.59103 ,-5.79920 
367 ,78.3423 ,1.67754 ,-0.57050 ,-5.59773 
368 ,78.5346 ,1.67950 ,-0.61499 ,-6.03425 
369 ,78.7428 ,1.68155 ,-0.60130 ,-5.89994 
370 ,78.9668 ,1.68374 ,-0.61841 ,-6.06783 
371 ,79.1750 ,1.68581 ,-0.65947 ,-6.47077 
372 ,79.3825 ,1.68791 ,-0.63210 ,-6.20214 
373 ,79.5908 ,1.69004 ,-0.66290 ,-6.50435 
374 ,79.8150 ,1.69227 ,-0.66974 ,-6.57150 
375 ,80.0233 ,1.69441 ,-0.68001 ,-6.67224 
376 ,80.2313 ,1.69636 ,-0.70054 ,-6.87371 
377 ,80.4393 ,1.69842 ,-0.70054 ,-6.87371 
378 ,80.6795 ,1.70078 ,-0.71423 ,-7.00802 
379 ,80.9036 ,1.70313 ,-0.71081 ,-6.97444 
380 ,81.1274 ,1.70531 ,-0.73134 ,-7.17591 
381 ,81.3358 ,1.70742 ,-0.75872 ,-7.44454 
382 ,81.5599 ,1.70964 ,-0.74503 ,-7.31023 
383 ,81.7996 ,1.71209 ,-0.75530 ,-7.41096 
384 ,82.0241 ,1.71422 ,-0.78267 ,-7.67959 
385 ,82.2481 ,1.71652 ,-0.81005 ,-7.94821 
386 ,82.4564 ,1.71863 ,-0.81005 ,-7.94821 
387 ,82.6644 ,1.72072 ,-0.81347 ,-7.98179 
388 ,82.8723 ,1.72287 ,-0.83401 ,-8.18326 
389 ,83.1286 ,1.72537 ,-0.84427 ,-8.28400 
390 ,83.3524 ,1.72757 ,-0.87165 ,-8.55262 
391 ,83.5608 ,1.72970 ,-0.86138 ,-8.45189 
392 ,83.7847 ,1.73187 ,-0.87165 ,-8.55262 
393 ,84.0250 ,1.73419 ,-0.89560 ,-8.78767 
394 ,84.2490 ,1.73658 ,-0.90587 ,-8.88841 
395 ,84.4570 ,1.73863 ,-0.90929 ,-8.92198 
396 ,84.6491 ,1.74058 ,-0.91956 ,-9.02272 
397 ,84.8572 ,1.74262 ,-0.94009 ,-9.22419 
398 ,85.0653 ,1.74465 ,-0.92640 ,-9.08988 
399 ,85.2733 ,1.74676 ,-0.96405 ,-9.45924 
400 ,85.4815 ,1.74882 ,-0.95036 ,-9.32492 
401 ,85.6895 ,1.75095 ,-0.98116 ,-9.62713 
402 ,85.8974 ,1.75305 ,-0.98458 ,-9.66071 
403 ,86.1213 ,1.75523 ,-0.99143 ,-9.72786 
404 ,86.3138 ,1.75732 ,-1.01196 ,-9.92933 
405 ,86.5059 ,1.75928 ,-1.00511 ,-9.86218 
406 ,86.7140 ,1.76118 ,-1.03591 ,-10.16438 
407 ,86.9222 ,1.76323 ,-1.01880 ,-9.99649 
408 ,87.1461 ,1.76552 ,-1.03249 ,-10.13080 
409 ,87.3864 ,1.76777 ,-1.06329 ,-10.43301 
410 ,87.6100 ,1.77016 ,-1.07698 ,-10.56732 
411 ,87.8185 ,1.77220 ,-1.08040 ,-10.60090 
412 ,88.0266 ,1.77430 ,-1.09067 ,-10.70163 
413 ,88.2507 ,1.77651 ,-1.11462 ,-10.93668 
414 ,88.4748 ,1.77873 ,-1.10093 ,-10.80237 
415 ,88.6988 ,1.78100 ,-1.11462 ,-10.93668 
416 ,88.9231 ,1.78328 ,-1.11462 ,-10.93668 
417 ,89.1468 ,1.78549 ,-1.13858 ,-11.17173 
418 ,89.3551 ,1.78760 ,-1.15569 ,-11.33962 
419 ,89.5634 ,1.78970 ,-1.15911 ,-11.37320 
420 ,89.7874 ,1.79195 ,-1.17622 ,-11.54109 
421 ,89.9955 ,1.79402 ,-1.19333 ,-11.70898 
422 ,90.2193 ,1.79619 ,-1.18649 ,-11.64183 
423 ,90.4436 ,1.79848 ,-1.18649 ,-11.64183 
424 ,90.6517 ,1.80056 ,-1.22755 ,-12.04477 
425 ,90.8598 ,1.80259 ,-1.21044 ,-11.87688 
426 ,91.0676 ,1.80472 ,-1.22755 ,-12.04477 
427 ,91.2920 ,1.80692 ,-1.25835 ,-12.34697 
428 ,91.5161 ,1.80921 ,-1.25493 ,-12.31339 
429 ,91.7079 ,1.81112 ,-1.26520 ,-12.41413 
430 ,91.9160 ,1.81320 ,-1.27889 ,-12.54844 
431 ,92.1081 ,1.81514 ,-1.28231 ,-12.58202 
432 ,92.3163 ,1.81719 ,-1.29942 ,-12.74991 
433 ,92.5246 ,1.81926 ,-1.28915 ,-12.64918 
434 ,92.7482 ,1.82149 ,-1.31311 ,-12.88422 
435 ,92.9567 ,1.82361 ,-1.33706 ,-13.11927 
436 ,93.1647 ,1.82565 ,-1.32680 ,-13.01854 
437 ,93.3571 ,1.82767 ,-1.35417 ,-13.28716 
438 ,93.5805 ,1.82976 ,-1.35075 ,-13.25359 
439 ,93.7576 ,1.83175 ,-1.38497 ,-13.58937 
440 ,94.0771 ,1.83426 ,-1.36444 ,-13.38790 
441 ,94.2848 ,1.83699 ,-1.36444 ,-13.38790 
442 ,94.4773 ,1.83884 ,-1.39866 ,-13.72368 
443 ,94.6855 ,1.84088 ,-1.39866 ,-13.72368 
444 ,94.9095 ,1.84308 ,-1.42604 ,-13.99231 
445 ,95.1496 ,1.84538 ,-1.42604 ,-13.99231 
446 ,95.3575 ,1.84770 ,-1.44315 ,-14.16020 
447 ,95.5658 ,1.84973 ,-1.43973 ,-14.12662 
448 ,95.7899 ,1.85197 ,-1.46026 ,-14.32809 
449 ,96.0137 ,1.85414 ,-1.47395 ,-14.46240 
450 ,96.2221 ,1.85627 ,-1.46368 ,-14.36167 
451 ,96.4301 ,1.85830 ,-1.49106 ,-14.63030 
452 ,96.6381 ,1.86042 ,-1.49448 ,-14.66387 
453 ,96.8462 ,1.86251 ,-1.48422 ,-14.56314 
454 ,97.0543 ,1.86465 ,-1.51502 ,-14.86534 
455 ,97.2460 ,1.86650 ,-1.51159 ,-14.83177 
456 ,97.4546 ,1.86856 ,-1.53555 ,-15.06681 
457 ,97.6626 ,1.87058 ,-1.52186 ,-14.93250 
458 ,97.8707 ,1.87271 ,-1.55608 ,-15.26828 
459 ,98.0786 ,1.87481 ,-1.55608 ,-15.26828 
460 ,98.2866 ,1.87692 ,-1.55950 ,-15.30186 
