Data stamp = , 18-05-2022 22:19:53 293

Calibration Values: 
Slope = , 26.54 , g/V 
Offset Voltage at no contact = , -0.501760 , V 

No , Time , Stage Position ,   Mass , Force 
   ,  (s) ,      (mm)      ,   (g)  , (mN)  

1 ,0.0000 ,0.89963 ,5.28483 ,51.85474 
2 ,0.2105 ,0.89972 ,5.28141 ,51.82116 
3 ,0.8825 ,0.90262 ,5.28483 ,51.85474 
4 ,1.1229 ,0.90548 ,5.29510 ,51.95548 
5 ,1.3629 ,0.90787 ,5.29852 ,51.98905 
6 ,1.5866 ,0.91021 ,5.28141 ,51.82116 
7 ,1.7951 ,0.91234 ,5.24034 ,51.41822 
8 ,2.0033 ,0.91441 ,5.24718 ,51.48538 
9 ,2.2272 ,0.91661 ,5.22665 ,51.28391 
10 ,2.4193 ,0.91861 ,5.18559 ,50.88097 
11 ,2.6115 ,0.92058 ,5.18216 ,50.84739 
12 ,2.8035 ,0.92243 ,5.15479 ,50.57876 
13 ,2.9791 ,0.92429 ,5.12741 ,50.31014 
14 ,3.1878 ,0.92626 ,5.13083 ,50.34372 
15 ,3.4118 ,0.92849 ,5.09319 ,49.97436 
16 ,3.6359 ,0.93077 ,5.06581 ,49.70573 
17 ,3.8435 ,0.93285 ,5.05897 ,49.63857 
18 ,4.0521 ,0.93486 ,5.02132 ,49.26921 
19 ,4.2760 ,0.93715 ,5.00421 ,49.10132 
20 ,4.5000 ,0.93932 ,4.98710 ,48.93343 
21 ,4.7242 ,0.94158 ,4.97341 ,48.79911 
22 ,4.9324 ,0.94369 ,4.93577 ,48.42975 
23 ,5.1402 ,0.94574 ,4.92550 ,48.32902 
24 ,5.3484 ,0.94783 ,4.92208 ,48.29544 
25 ,5.5567 ,0.94990 ,4.88444 ,47.92608 
26 ,5.7487 ,0.95196 ,4.88101 ,47.89250 
27 ,5.9567 ,0.95390 ,4.82968 ,47.38883 
28 ,6.1649 ,0.95598 ,4.83995 ,47.48956 
29 ,6.3726 ,0.95818 ,4.79546 ,47.05304 
30 ,6.5647 ,0.96011 ,4.78519 ,46.95231 
31 ,6.7727 ,0.96210 ,4.76124 ,46.71726 
32 ,6.9648 ,0.96409 ,4.76124 ,46.71726 
33 ,7.1408 ,0.96591 ,4.72702 ,46.38148 
34 ,7.3490 ,0.96786 ,4.71675 ,46.28074 
35 ,7.5573 ,0.96992 ,4.70306 ,46.14643 
36 ,7.7331 ,0.97181 ,4.66542 ,45.77707 
37 ,7.9416 ,0.97378 ,4.65857 ,45.70991 
38 ,8.1496 ,0.97582 ,4.63119 ,45.44128 
39 ,8.3256 ,0.97773 ,4.62435 ,45.37413 
40 ,8.5336 ,0.97971 ,4.58671 ,45.00477 
41 ,8.7576 ,0.98191 ,4.57644 ,44.90403 
42 ,8.9821 ,0.98410 ,4.56275 ,44.76972 
43 ,9.1902 ,0.98623 ,4.52853 ,44.43394 
44 ,9.4141 ,0.98850 ,4.49773 ,44.13173 
45 ,9.6221 ,0.99056 ,4.51826 ,44.33320 
46 ,9.8461 ,0.99280 ,4.47378 ,43.89668 
47 ,10.0541 ,0.99485 ,4.43955 ,43.56090 
48 ,10.3101 ,0.99736 ,4.41902 ,43.35943 
49 ,10.5502 ,0.99980 ,4.40875 ,43.25870 
50 ,10.7744 ,1.00210 ,4.38138 ,42.99007 
51 ,10.9983 ,1.00442 ,4.35742 ,42.75502 
52 ,11.1909 ,1.00628 ,4.34373 ,42.62071 
53 ,11.4151 ,1.00850 ,4.31978 ,42.38566 
54 ,11.6230 ,1.01057 ,4.32320 ,42.41924 
55 ,11.8311 ,1.01267 ,4.27529 ,41.94914 
56 ,12.0234 ,1.01469 ,4.26502 ,41.84841 
57 ,12.2154 ,1.01651 ,4.24107 ,41.61336 
58 ,12.4397 ,1.01870 ,4.23080 ,41.51262 
59 ,12.6477 ,1.02081 ,4.22396 ,41.44547 
60 ,12.8717 ,1.02301 ,4.19316 ,41.14326 
61 ,13.0794 ,1.02510 ,4.18974 ,41.10968 
62 ,13.2876 ,1.02718 ,4.15894 ,40.80748 
63 ,13.4956 ,1.02928 ,4.13498 ,40.57243 
64 ,13.6881 ,1.03122 ,4.12471 ,40.47170 
65 ,13.8961 ,1.03329 ,4.08365 ,40.06876 
66 ,14.1203 ,1.03539 ,4.10076 ,40.23665 
67 ,14.3603 ,1.03781 ,4.06996 ,39.93444 
68 ,14.5845 ,1.04014 ,4.05627 ,39.80013 
69 ,14.7925 ,1.04223 ,4.01520 ,39.39719 
70 ,15.0007 ,1.04437 ,4.00494 ,39.29646 
71 ,15.2088 ,1.04635 ,3.98783 ,39.12856 
72 ,15.4169 ,1.04848 ,3.96387 ,38.89352 
73 ,15.6249 ,1.05062 ,3.96045 ,38.85994 
74 ,15.8491 ,1.05273 ,3.92281 ,38.49058 
75 ,16.0571 ,1.05485 ,3.89885 ,38.25553 
76 ,16.2812 ,1.05714 ,3.89885 ,38.25553 
77 ,16.4890 ,1.05921 ,3.86805 ,37.95332 
78 ,16.7136 ,1.06139 ,3.84752 ,37.75185 
79 ,16.9375 ,1.06371 ,3.82356 ,37.51681 
80 ,17.1615 ,1.06590 ,3.82014 ,37.48323 
81 ,17.3856 ,1.06823 ,3.80303 ,37.31534 
82 ,17.5935 ,1.07027 ,3.75854 ,36.87882 
83 ,17.7856 ,1.07221 ,3.75512 ,36.84524 
84 ,17.9938 ,1.07423 ,3.72774 ,36.57661 
85 ,18.2175 ,1.07645 ,3.70379 ,36.34157 
86 ,18.4260 ,1.07852 ,3.70379 ,36.34157 
87 ,18.6337 ,1.08057 ,3.66614 ,35.97220 
88 ,18.8582 ,1.08276 ,3.66957 ,36.00578 
89 ,19.0824 ,1.08512 ,3.64561 ,35.77073 
90 ,19.3064 ,1.08737 ,3.63534 ,35.67000 
91 ,19.5303 ,1.08958 ,3.60454 ,35.36779 
92 ,19.7222 ,1.09161 ,3.58059 ,35.13275 
93 ,19.9147 ,1.09356 ,3.56690 ,34.99843 
94 ,20.1385 ,1.09564 ,3.54637 ,34.79696 
95 ,20.3467 ,1.09773 ,3.54295 ,34.76338 
96 ,20.5549 ,1.09987 ,3.51899 ,34.52834 
97 ,20.7627 ,1.10191 ,3.50872 ,34.42760 
98 ,20.9709 ,1.10401 ,3.47450 ,34.09182 
99 ,21.2273 ,1.10637 ,3.44713 ,33.82319 
100 ,21.4513 ,1.10879 ,3.43001 ,33.65530 
101 ,21.6271 ,1.11072 ,3.40264 ,33.38667 
102 ,21.8355 ,1.11263 ,3.38553 ,33.21878 
103 ,22.0436 ,1.11470 ,3.38895 ,33.25236 
104 ,22.2354 ,1.11669 ,3.35473 ,32.91658 
105 ,22.4277 ,1.11869 ,3.33762 ,32.74869 
106 ,22.6356 ,1.12058 ,3.31366 ,32.51364 
107 ,22.8119 ,1.12257 ,3.31366 ,32.51364 
108 ,23.0036 ,1.12436 ,3.29655 ,32.34575 
109 ,23.2122 ,1.12646 ,3.26575 ,32.04354 
110 ,23.4361 ,1.12860 ,3.24522 ,31.84207 
111 ,23.6279 ,1.13064 ,3.25206 ,31.90923 
112 ,23.8207 ,1.13249 ,3.21784 ,31.57345 
113 ,24.0123 ,1.13452 ,3.20757 ,31.47271 
114 ,24.2200 ,1.13659 ,3.18704 ,31.27124 
115 ,24.4120 ,1.13854 ,3.18704 ,31.27124 
116 ,24.6205 ,1.14046 ,3.14255 ,30.83472 
117 ,24.8608 ,1.14293 ,3.13571 ,30.76757 
118 ,25.0847 ,1.14507 ,3.13229 ,30.73399 
119 ,25.2765 ,1.14710 ,3.09464 ,30.36463 
120 ,25.4851 ,1.14914 ,3.09464 ,30.36463 
121 ,25.7091 ,1.15137 ,3.06726 ,30.09600 
122 ,25.9173 ,1.15339 ,3.02962 ,29.72664 
123 ,26.1252 ,1.15548 ,3.03989 ,29.82737 
124 ,26.3490 ,1.15771 ,3.02620 ,29.69306 
125 ,26.5575 ,1.15992 ,2.98171 ,29.25654 
126 ,26.7813 ,1.16207 ,2.97829 ,29.22297 
127 ,26.9896 ,1.16416 ,2.96118 ,29.05507 
128 ,27.2137 ,1.16638 ,2.93038 ,28.75287 
129 ,27.4379 ,1.16861 ,2.90300 ,28.48424 
130 ,27.6778 ,1.17099 ,2.90642 ,28.51782 
131 ,27.9021 ,1.17330 ,2.87220 ,28.18204 
132 ,28.1101 ,1.17537 ,2.88247 ,28.28277 
133 ,28.3182 ,1.17741 ,2.83456 ,27.81268 
134 ,28.5264 ,1.17950 ,2.84140 ,27.87983 
135 ,28.7505 ,1.18167 ,2.80718 ,27.54405 
136 ,28.9744 ,1.18397 ,2.79007 ,27.37616 
137 ,29.1825 ,1.18609 ,2.76611 ,27.14111 
138 ,29.4066 ,1.18820 ,2.75243 ,27.00680 
139 ,29.6304 ,1.19052 ,2.74900 ,26.97322 
140 ,29.8387 ,1.19267 ,2.70109 ,26.50312 
141 ,30.0630 ,1.19488 ,2.69767 ,26.46954 
142 ,30.2710 ,1.19700 ,2.70452 ,26.53670 
143 ,30.4631 ,1.19899 ,2.65660 ,26.06661 
144 ,30.6711 ,1.20094 ,2.66003 ,26.10018 
145 ,30.8628 ,1.20288 ,2.63265 ,25.83156 
146 ,31.0713 ,1.20495 ,2.63265 ,25.83156 
147 ,31.3116 ,1.20728 ,2.60527 ,25.56293 
148 ,31.5354 ,1.20958 ,2.56078 ,25.12641 
149 ,31.7597 ,1.21186 ,2.54710 ,24.99210 
150 ,31.9674 ,1.21398 ,2.55052 ,25.02568 
151 ,32.1759 ,1.21601 ,2.51972 ,24.72347 
152 ,32.3839 ,1.21811 ,2.49234 ,24.45485 
153 ,32.5920 ,1.22013 ,2.49918 ,24.52200 
154 ,32.8161 ,1.22236 ,2.45812 ,24.11906 
155 ,33.0239 ,1.22457 ,2.44785 ,24.01833 
156 ,33.2323 ,1.22659 ,2.43416 ,23.88402 
157 ,33.4562 ,1.22881 ,2.41705 ,23.71612 
158 ,33.6641 ,1.23080 ,2.39994 ,23.54823 
159 ,33.8562 ,1.23280 ,2.38625 ,23.41392 
160 ,34.0643 ,1.23502 ,2.35545 ,23.11171 
161 ,34.2725 ,1.23693 ,2.36914 ,23.24603 
162 ,34.4966 ,1.23918 ,2.32123 ,22.77593 
163 ,34.7210 ,1.24142 ,2.30070 ,22.57446 
164 ,34.9290 ,1.24353 ,2.31439 ,22.70877 
165 ,35.1530 ,1.24571 ,2.29043 ,22.47373 
166 ,35.3608 ,1.24781 ,2.25963 ,22.17152 
167 ,35.5693 ,1.24991 ,2.26306 ,22.20510 
168 ,35.7933 ,1.25214 ,2.23568 ,21.93647 
169 ,36.0015 ,1.25423 ,2.20146 ,21.60069 
170 ,36.2095 ,1.25637 ,2.21857 ,21.76858 
171 ,36.4171 ,1.25841 ,2.17750 ,21.36564 
172 ,36.6255 ,1.26042 ,2.16723 ,21.26491 
173 ,36.8337 ,1.26255 ,2.16039 ,21.19775 
174 ,37.0578 ,1.26478 ,2.11932 ,20.79481 
175 ,37.2659 ,1.26688 ,2.11932 ,20.79481 
176 ,37.4736 ,1.26906 ,2.10906 ,20.69408 
177 ,37.6820 ,1.27106 ,2.08168 ,20.42545 
178 ,37.9061 ,1.27325 ,2.07141 ,20.32472 
179 ,38.1144 ,1.27535 ,2.06115 ,20.22398 
180 ,38.3381 ,1.27756 ,2.02008 ,19.82104 
181 ,38.5464 ,1.27962 ,2.02350 ,19.85462 
182 ,38.7545 ,1.28179 ,1.99955 ,19.61957 
183 ,38.9626 ,1.28392 ,1.97217 ,19.35094 
184 ,39.1867 ,1.28612 ,1.96190 ,19.25021 
185 ,39.3945 ,1.28819 ,1.95164 ,19.14948 
186 ,39.6028 ,1.29021 ,1.92084 ,18.84727 
187 ,39.8108 ,1.29230 ,1.91057 ,18.74654 
188 ,40.0029 ,1.29432 ,1.89688 ,18.61222 
189 ,40.2112 ,1.29631 ,1.89688 ,18.61222 
190 ,40.4189 ,1.29852 ,1.87977 ,18.44433 
191 ,40.6273 ,1.30043 ,1.84213 ,18.07497 
192 ,40.8349 ,1.30257 ,1.84555 ,18.10855 
193 ,41.0436 ,1.30467 ,1.81133 ,17.77276 
194 ,41.2676 ,1.30684 ,1.80106 ,17.67203 
195 ,41.4915 ,1.30913 ,1.79422 ,17.60487 
196 ,41.6998 ,1.31122 ,1.76684 ,17.33625 
197 ,41.9075 ,1.31330 ,1.75657 ,17.23551 
198 ,42.1317 ,1.31552 ,1.75657 ,17.23551 
199 ,42.3395 ,1.31762 ,1.71209 ,16.79899 
200 ,42.5481 ,1.31964 ,1.71551 ,16.83257 
201 ,42.7558 ,1.32178 ,1.70182 ,16.69826 
202 ,42.9643 ,1.32380 ,1.66418 ,16.32890 
203 ,43.1721 ,1.32591 ,1.67786 ,16.46321 
204 ,43.4124 ,1.32817 ,1.64364 ,16.12743 
205 ,43.6203 ,1.33041 ,1.62311 ,15.92596 
206 ,43.8284 ,1.33245 ,1.61627 ,15.85880 
207 ,44.0527 ,1.33473 ,1.59916 ,15.69091 
208 ,44.2607 ,1.33680 ,1.57862 ,15.48944 
209 ,44.4526 ,1.33882 ,1.56836 ,15.38871 
210 ,44.6445 ,1.34075 ,1.53071 ,15.01934 
211 ,44.8691 ,1.34286 ,1.54782 ,15.18724 
212 ,45.0931 ,1.34513 ,1.53756 ,15.08650 
213 ,45.3009 ,1.34715 ,1.49649 ,14.68356 
214 ,45.5095 ,1.34932 ,1.48965 ,14.61640 
215 ,45.7336 ,1.35150 ,1.47596 ,14.48209 
216 ,45.9416 ,1.35362 ,1.44516 ,14.17989 
217 ,46.1655 ,1.35582 ,1.43147 ,14.04557 
218 ,46.3733 ,1.35793 ,1.43489 ,14.07915 
219 ,46.5976 ,1.36022 ,1.41094 ,13.84410 
220 ,46.8220 ,1.36239 ,1.37329 ,13.47474 
221 ,47.0300 ,1.36449 ,1.37329 ,13.47474 
222 ,47.2541 ,1.36674 ,1.36987 ,13.44116 
223 ,47.4781 ,1.36891 ,1.34591 ,13.20612 
224 ,47.7020 ,1.37125 ,1.31512 ,12.90391 
225 ,47.9102 ,1.37338 ,1.30143 ,12.76960 
226 ,48.1183 ,1.37542 ,1.29458 ,12.70244 
227 ,48.3264 ,1.37740 ,1.27063 ,12.46739 
228 ,48.5345 ,1.37955 ,1.27405 ,12.50097 
229 ,48.7427 ,1.38154 ,1.24325 ,12.19877 
230 ,48.9667 ,1.38370 ,1.24325 ,12.19877 
231 ,49.1910 ,1.38608 ,1.22614 ,12.03088 
232 ,49.3991 ,1.38813 ,1.21245 ,11.89656 
233 ,49.6230 ,1.39041 ,1.18507 ,11.62794 
234 ,49.8147 ,1.39236 ,1.19876 ,11.76225 
235 ,50.0235 ,1.39440 ,1.15427 ,11.32573 
236 ,50.2474 ,1.39660 ,1.12347 ,11.02353 
237 ,50.4554 ,1.39876 ,1.13374 ,11.12426 
238 ,50.6795 ,1.40097 ,1.11663 ,10.95637 
239 ,50.8872 ,1.40306 ,1.08583 ,10.65416 
240 ,51.1117 ,1.40527 ,1.07899 ,10.58701 
241 ,51.3358 ,1.40750 ,1.08241 ,10.62059 
242 ,51.5439 ,1.40960 ,1.03792 ,10.18407 
243 ,51.7680 ,1.41180 ,1.02765 ,10.08333 
244 ,51.9759 ,1.41390 ,1.03108 ,10.11691 
245 ,52.2160 ,1.41634 ,1.01396 ,9.94902 
246 ,52.4403 ,1.41854 ,0.99343 ,9.74755 
247 ,52.6484 ,1.42071 ,0.95921 ,9.41177 
248 ,52.8564 ,1.42272 ,0.97290 ,9.54608 
249 ,53.0644 ,1.42478 ,0.93525 ,9.17672 
250 ,53.2726 ,1.42687 ,0.93525 ,9.17672 
251 ,53.4806 ,1.42899 ,0.91130 ,8.94167 
252 ,53.6889 ,1.43100 ,0.89761 ,8.80736 
253 ,53.8967 ,1.43313 ,0.89761 ,8.80736 
254 ,54.1210 ,1.43534 ,0.88392 ,8.67305 
255 ,54.3291 ,1.43741 ,0.85654 ,8.40442 
256 ,54.5372 ,1.43947 ,0.85654 ,8.40442 
257 ,54.7772 ,1.44196 ,0.83601 ,8.20295 
258 ,54.9852 ,1.44396 ,0.80863 ,7.93432 
259 ,55.1931 ,1.44604 ,0.81206 ,7.96790 
260 ,55.4011 ,1.44814 ,0.78468 ,7.69927 
261 ,55.6097 ,1.45024 ,0.76415 ,7.49780 
262 ,55.8337 ,1.45250 ,0.75730 ,7.43065 
263 ,56.0258 ,1.45451 ,0.74019 ,7.26276 
264 ,56.2498 ,1.45664 ,0.71624 ,7.02771 
265 ,56.4736 ,1.45882 ,0.72308 ,7.09486 
266 ,56.6822 ,1.46098 ,0.70255 ,6.89340 
267 ,56.8902 ,1.46298 ,0.66148 ,6.49046 
268 ,57.1142 ,1.46531 ,0.67175 ,6.59119 
269 ,57.3226 ,1.46735 ,0.64779 ,6.35614 
270 ,57.5462 ,1.46960 ,0.62726 ,6.15467 
271 ,57.7705 ,1.47183 ,0.61699 ,6.05394 
272 ,57.9946 ,1.47407 ,0.60330 ,5.91962 
273 ,58.1865 ,1.47611 ,0.59304 ,5.81889 
274 ,58.3949 ,1.47811 ,0.59646 ,5.85247 
275 ,58.6031 ,1.48016 ,0.56224 ,5.51668 
276 ,58.8271 ,1.48239 ,0.53486 ,5.24806 
277 ,59.0350 ,1.48452 ,0.54855 ,5.38237 
278 ,59.2434 ,1.48661 ,0.52459 ,5.14732 
279 ,59.4514 ,1.48866 ,0.50064 ,4.91228 
280 ,59.6434 ,1.49072 ,0.50406 ,4.94585 
281 ,59.8510 ,1.49271 ,0.46642 ,4.57649 
282 ,60.0436 ,1.49458 ,0.46984 ,4.61007 
283 ,60.2677 ,1.49685 ,0.45273 ,4.44218 
284 ,60.4916 ,1.49901 ,0.43562 ,4.27429 
285 ,60.6999 ,1.50121 ,0.44246 ,4.34144 
286 ,60.9236 ,1.50340 ,0.41166 ,4.03924 
287 ,61.1321 ,1.50554 ,0.40140 ,3.93850 
288 ,61.3562 ,1.50767 ,0.40140 ,3.93850 
289 ,61.5642 ,1.50987 ,0.37744 ,3.70346 
290 ,61.7561 ,1.51169 ,0.36718 ,3.60272 
291 ,61.9804 ,1.51393 ,0.34664 ,3.40125 
292 ,62.2045 ,1.51621 ,0.31584 ,3.09905 
293 ,62.4285 ,1.51842 ,0.30215 ,2.96473 
294 ,62.6365 ,1.52045 ,0.32269 ,3.16620 
295 ,62.8446 ,1.52261 ,0.27820 ,2.72969 
296 ,63.0688 ,1.52476 ,0.26451 ,2.59537 
297 ,63.3089 ,1.52711 ,0.25767 ,2.52822 
298 ,63.5170 ,1.52925 ,0.25082 ,2.46106 
299 ,63.7251 ,1.53134 ,0.24055 ,2.36032 
300 ,63.9490 ,1.53361 ,0.21660 ,2.12528 
301 ,64.1890 ,1.53587 ,0.20633 ,2.02454 
302 ,64.3973 ,1.53807 ,0.19607 ,1.92381 
303 ,64.6213 ,1.54033 ,0.17553 ,1.72234 
304 ,64.8295 ,1.54239 ,0.14816 ,1.45371 
305 ,65.0376 ,1.54447 ,0.15500 ,1.52087 
306 ,65.2617 ,1.54674 ,0.13789 ,1.35298 
307 ,65.4696 ,1.54881 ,0.11051 ,1.08435 
308 ,65.6618 ,1.55075 ,0.11736 ,1.15151 
309 ,65.8699 ,1.55281 ,0.08998 ,0.88288 
310 ,66.1262 ,1.55531 ,0.05918 ,0.58067 
311 ,66.3339 ,1.55744 ,0.07971 ,0.78214 
312 ,66.5418 ,1.55948 ,0.05918 ,0.58067 
313 ,66.7499 ,1.56158 ,0.03180 ,0.31205 
314 ,66.9580 ,1.56367 ,0.03522 ,0.34563 
315 ,67.1500 ,1.56572 ,-0.00584 ,-0.05731 
316 ,67.3582 ,1.56769 ,0.01469 ,0.14416 
317 ,67.5664 ,1.56977 ,-0.01269 ,-0.12447 
318 ,67.7906 ,1.57197 ,-0.03322 ,-0.32594 
319 ,67.9989 ,1.57413 ,-0.02295 ,-0.22520 
320 ,68.2067 ,1.57617 ,-0.06060 ,-0.59457 
321 ,68.4309 ,1.57836 ,-0.07086 ,-0.69530 
322 ,68.6391 ,1.58043 ,-0.06744 ,-0.66172 
323 ,68.8631 ,1.58260 ,-0.09824 ,-0.96393 
324 ,69.0713 ,1.58480 ,-0.11535 ,-1.13182 
325 ,69.2794 ,1.58684 ,-0.09824 ,-0.96393 
326 ,69.5194 ,1.58922 ,-0.12562 ,-1.23255 
327 ,69.7273 ,1.59137 ,-0.15642 ,-1.53476 
328 ,69.9516 ,1.59349 ,-0.14273 ,-1.40045 
329 ,70.1596 ,1.59564 ,-0.15299 ,-1.50118 
330 ,70.3674 ,1.59770 ,-0.20090 ,-1.97128 
331 ,70.5759 ,1.59981 ,-0.19406 ,-1.90412 
332 ,70.7839 ,1.60191 ,-0.20433 ,-2.00485 
333 ,70.9916 ,1.60401 ,-0.22144 ,-2.17275 
334 ,71.2002 ,1.60608 ,-0.20775 ,-2.03843 
335 ,71.3918 ,1.60812 ,-0.25908 ,-2.54211 
336 ,71.6003 ,1.61009 ,-0.25566 ,-2.50853 
337 ,71.8084 ,1.61216 ,-0.28304 ,-2.77716 
338 ,72.0000 ,1.61424 ,-0.27277 ,-2.67642 
339 ,72.2243 ,1.61630 ,-0.29673 ,-2.91147 
340 ,72.4322 ,1.61841 ,-0.31384 ,-3.07936 
341 ,72.6403 ,1.62051 ,-0.30015 ,-2.94505 
342 ,72.8485 ,1.62260 ,-0.33779 ,-3.31441 
343 ,73.0565 ,1.62472 ,-0.33779 ,-3.31441 
344 ,73.2806 ,1.62681 ,-0.36517 ,-3.58303 
345 ,73.4887 ,1.62898 ,-0.37886 ,-3.71735 
346 ,73.6807 ,1.63102 ,-0.36175 ,-3.54946 
347 ,73.8888 ,1.63300 ,-0.40623 ,-3.98597 
348 ,74.0810 ,1.63500 ,-0.37886 ,-3.71735 
349 ,74.2730 ,1.63691 ,-0.43019 ,-4.22102 
350 ,74.4812 ,1.63886 ,-0.40966 ,-4.01955 
351 ,74.6733 ,1.64090 ,-0.44388 ,-4.35534 
352 ,74.8811 ,1.64294 ,-0.43703 ,-4.28818 
353 ,75.0894 ,1.64500 ,-0.47468 ,-4.65754 
354 ,75.2815 ,1.64701 ,-0.46099 ,-4.52323 
355 ,75.4895 ,1.64908 ,-0.48837 ,-4.79185 
356 ,75.6816 ,1.65103 ,-0.47810 ,-4.69112 
357 ,75.8898 ,1.65300 ,-0.50890 ,-4.99332 
358 ,76.0978 ,1.65508 ,-0.50548 ,-4.95975 
359 ,76.3219 ,1.65717 ,-0.52943 ,-5.19479 
360 ,76.5300 ,1.65937 ,-0.54997 ,-5.39626 
361 ,76.7385 ,1.66147 ,-0.53970 ,-5.29553 
362 ,76.9626 ,1.66371 ,-0.56365 ,-5.53058 
363 ,77.2027 ,1.66612 ,-0.57734 ,-5.66489 
364 ,77.4267 ,1.66829 ,-0.59103 ,-5.79920 
365 ,77.6187 ,1.67034 ,-0.59445 ,-5.83278 
366 ,77.8265 ,1.67225 ,-0.61499 ,-6.03425 
367 ,78.0347 ,1.67440 ,-0.61499 ,-6.03425 
368 ,78.2427 ,1.67661 ,-0.62183 ,-6.10141 
369 ,78.4190 ,1.67838 ,-0.62868 ,-6.16856 
370 ,78.6430 ,1.68045 ,-0.66632 ,-6.53793 
371 ,78.8673 ,1.68275 ,-0.67316 ,-6.60508 
372 ,79.0753 ,1.68480 ,-0.66974 ,-6.57150 
373 ,79.2837 ,1.68690 ,-0.68001 ,-6.67224 
374 ,79.5074 ,1.68909 ,-0.71765 ,-7.04160 
375 ,79.7156 ,1.69122 ,-0.69370 ,-6.80655 
376 ,79.9399 ,1.69345 ,-0.72107 ,-7.07518 
377 ,80.1477 ,1.69553 ,-0.74845 ,-7.34380 
378 ,80.3720 ,1.69778 ,-0.75530 ,-7.41096 
379 ,80.5800 ,1.69983 ,-0.74503 ,-7.31023 
380 ,80.7882 ,1.70192 ,-0.77241 ,-7.57885 
381 ,81.0122 ,1.70420 ,-0.77583 ,-7.61243 
382 ,81.2363 ,1.70635 ,-0.77583 ,-7.61243 
383 ,81.4605 ,1.70868 ,-0.79636 ,-7.81390 
384 ,81.6684 ,1.71070 ,-0.82716 ,-8.11611 
385 ,81.8926 ,1.71295 ,-0.83401 ,-8.18326 
386 ,82.1166 ,1.71519 ,-0.82374 ,-8.08253 
387 ,82.3408 ,1.71744 ,-0.84085 ,-8.25042 
388 ,82.5490 ,1.71949 ,-0.86823 ,-8.51904 
389 ,82.7730 ,1.72178 ,-0.87507 ,-8.58620 
390 ,82.9810 ,1.72382 ,-0.87849 ,-8.61978 
391 ,83.1892 ,1.72595 ,-0.90245 ,-8.85483 
392 ,83.3973 ,1.72802 ,-0.89218 ,-8.75409 
393 ,83.6049 ,1.73008 ,-0.92983 ,-9.12345 
394 ,83.8136 ,1.73219 ,-0.93325 ,-9.15703 
395 ,84.0213 ,1.73424 ,-0.92298 ,-9.05630 
396 ,84.2296 ,1.73643 ,-0.95720 ,-9.39208 
397 ,84.4537 ,1.73856 ,-0.95720 ,-9.39208 
398 ,84.6773 ,1.74082 ,-0.95378 ,-9.35850 
399 ,84.9013 ,1.74299 ,-0.98458 ,-9.66071 
400 ,85.1097 ,1.74519 ,-1.01538 ,-9.96291 
401 ,85.3660 ,1.74771 ,-1.01196 ,-9.92933 
402 ,85.5901 ,1.74994 ,-1.02222 ,-10.03007 
403 ,85.7983 ,1.75195 ,-1.01196 ,-9.92933 
404 ,86.0223 ,1.75424 ,-1.03591 ,-10.16438 
405 ,86.2305 ,1.75634 ,-1.06329 ,-10.43301 
406 ,86.4222 ,1.75837 ,-1.04276 ,-10.23154 
407 ,86.6307 ,1.76033 ,-1.07698 ,-10.56732 
408 ,86.8385 ,1.76245 ,-1.06329 ,-10.43301 
409 ,87.0466 ,1.76446 ,-1.09751 ,-10.76879 
410 ,87.2551 ,1.76659 ,-1.08725 ,-10.66806 
411 ,87.4627 ,1.76869 ,-1.10436 ,-10.83595 
412 ,87.6871 ,1.77093 ,-1.12831 ,-11.07100 
413 ,87.9111 ,1.77315 ,-1.14200 ,-11.20531 
414 ,88.1352 ,1.77539 ,-1.14200 ,-11.20531 
415 ,88.3435 ,1.77742 ,-1.15911 ,-11.37320 
416 ,88.5510 ,1.77949 ,-1.17280 ,-11.50751 
417 ,88.7596 ,1.78166 ,-1.16938 ,-11.47394 
418 ,88.9836 ,1.78380 ,-1.18307 ,-11.60825 
419 ,89.1916 ,1.78591 ,-1.19333 ,-11.70898 
420 ,89.3998 ,1.78801 ,-1.19333 ,-11.70898 
421 ,89.6079 ,1.79008 ,-1.21729 ,-11.94403 
422 ,89.8316 ,1.79236 ,-1.21729 ,-11.94403 
423 ,90.0239 ,1.79441 ,-1.22413 ,-12.01119 
424 ,90.2322 ,1.79635 ,-1.25151 ,-12.27981 
425 ,90.4564 ,1.79861 ,-1.25835 ,-12.34697 
426 ,90.6644 ,1.80068 ,-1.27889 ,-12.54844 
427 ,90.8884 ,1.80288 ,-1.28915 ,-12.64918 
428 ,91.0965 ,1.80498 ,-1.28573 ,-12.61560 
429 ,91.3207 ,1.80709 ,-1.29942 ,-12.74991 
430 ,91.5287 ,1.80925 ,-1.31995 ,-12.95138 
431 ,91.7207 ,1.81125 ,-1.31311 ,-12.88422 
432 ,91.8964 ,1.81311 ,-1.33706 ,-13.11927 
433 ,92.1047 ,1.81505 ,-1.33022 ,-13.05212 
434 ,92.3131 ,1.81716 ,-1.34391 ,-13.18643 
435 ,92.5210 ,1.81920 ,-1.34391 ,-13.18643 
436 ,92.7132 ,1.82120 ,-1.36102 ,-13.35432 
437 ,92.9212 ,1.82323 ,-1.37129 ,-13.45506 
438 ,93.1454 ,1.82543 ,-1.39182 ,-13.65653 
439 ,93.3694 ,1.82770 ,-1.40209 ,-13.75726 
440 ,93.5937 ,1.82987 ,-1.40551 ,-13.79084 
441 ,93.8016 ,1.83202 ,-1.40893 ,-13.82442 
442 ,94.0257 ,1.83419 ,-1.42604 ,-13.99231 
443 ,94.2336 ,1.83636 ,-1.41235 ,-13.85799 
444 ,94.4417 ,1.83849 ,-1.43631 ,-14.09304 
445 ,94.6500 ,1.84053 ,-1.47395 ,-14.46240 
446 ,94.8261 ,1.84239 ,-1.45342 ,-14.26093 
447 ,95.0342 ,1.84432 ,-1.47053 ,-14.42883 
448 ,95.2259 ,1.84639 ,-1.48422 ,-14.56314 
449 ,95.4183 ,1.84822 ,-1.48080 ,-14.52956 
450 ,95.6270 ,1.85024 ,-1.51502 ,-14.86534 
451 ,95.8506 ,1.85251 ,-1.52186 ,-14.93250 
452 ,96.0587 ,1.85455 ,-1.51844 ,-14.89892 
453 ,96.2823 ,1.85678 ,-1.51502 ,-14.86534 
454 ,96.4909 ,1.85891 ,-1.55266 ,-15.23471 
455 ,96.7147 ,1.86114 ,-1.53555 ,-15.06681 
456 ,96.9233 ,1.86319 ,-1.54924 ,-15.20113 
457 ,97.1310 ,1.86531 ,-1.56977 ,-15.40260 
458 ,97.3234 ,1.86723 ,-1.58004 ,-15.50333 
459 ,97.5470 ,1.86955 ,-1.59373 ,-15.63764 
460 ,97.7875 ,1.87174 ,-1.59030 ,-15.60407 
