Data stamp = , 19-05-2022 04:20:33 321

Calibration Values: 
Slope = , 26.54 , g/V 
Offset Voltage at no contact = , -0.501760 , V 

No , Time , Stage Position ,   Mass , Force 
   ,  (s) ,      (mm)      ,   (g)  , (mN)  

1 ,0.0000 ,0.89963 ,5.31221 ,52.12337 
2 ,0.2196 ,0.89972 ,5.31905 ,52.19052 
3 ,0.9078 ,0.90275 ,5.30536 ,52.05621 
4 ,1.1320 ,0.90567 ,5.30878 ,52.08979 
5 ,1.3561 ,0.90784 ,5.31221 ,52.12337 
6 ,1.5644 ,0.91000 ,5.30878 ,52.08979 
7 ,1.7723 ,0.91205 ,5.27456 ,51.75401 
8 ,1.9965 ,0.91435 ,5.24718 ,51.48538 
9 ,2.2360 ,0.91661 ,5.22665 ,51.28391 
10 ,2.4608 ,0.91899 ,5.20270 ,51.04886 
11 ,2.6847 ,0.92115 ,5.18901 ,50.91455 
12 ,2.8927 ,0.92330 ,5.16505 ,50.67950 
13 ,3.1010 ,0.92539 ,5.14110 ,50.44445 
14 ,3.3571 ,0.92784 ,5.12741 ,50.31014 
15 ,3.5812 ,0.93014 ,5.09319 ,49.97436 
16 ,3.7893 ,0.93227 ,5.07608 ,49.80646 
17 ,4.0133 ,0.93450 ,5.03501 ,49.40352 
18 ,4.2213 ,0.93655 ,5.04185 ,49.47068 
19 ,4.4456 ,0.93881 ,5.01790 ,49.23563 
20 ,4.6696 ,0.94109 ,4.99052 ,48.96701 
21 ,4.8777 ,0.94313 ,4.95288 ,48.59764 
22 ,5.0856 ,0.94528 ,4.95972 ,48.66480 
23 ,5.2938 ,0.94735 ,4.91181 ,48.19471 
24 ,5.5178 ,0.94952 ,4.89470 ,48.02681 
25 ,5.7418 ,0.95177 ,4.89128 ,47.99324 
26 ,5.9502 ,0.95387 ,4.87075 ,47.79177 
27 ,6.1743 ,0.95607 ,4.82626 ,47.35525 
28 ,6.3982 ,0.95831 ,4.79888 ,47.08662 
29 ,6.6062 ,0.96035 ,4.80230 ,47.12020 
30 ,6.7985 ,0.96237 ,4.75782 ,46.68368 
31 ,7.0063 ,0.96441 ,4.76124 ,46.71726 
32 ,7.2308 ,0.96664 ,4.73728 ,46.48221 
33 ,7.4388 ,0.96874 ,4.70648 ,46.18001 
34 ,7.6464 ,0.97081 ,4.71675 ,46.28074 
35 ,7.8548 ,0.97290 ,4.65857 ,45.70991 
36 ,8.0788 ,0.97508 ,4.64831 ,45.60918 
37 ,8.2870 ,0.97722 ,4.64146 ,45.54202 
38 ,8.4950 ,0.97927 ,4.60382 ,45.17266 
39 ,8.7191 ,0.98152 ,4.58328 ,44.97119 
40 ,8.9432 ,0.98378 ,4.57986 ,44.93761 
41 ,9.1674 ,0.98599 ,4.56617 ,44.80330 
42 ,9.3755 ,0.98808 ,4.53195 ,44.46751 
43 ,9.5994 ,0.99028 ,4.50800 ,44.23247 
44 ,9.8238 ,0.99258 ,4.49431 ,44.09815 
45 ,10.0318 ,0.99469 ,4.45324 ,43.69521 
46 ,10.2400 ,0.99674 ,4.43955 ,43.56090 
47 ,10.4481 ,0.99880 ,4.43955 ,43.56090 
48 ,10.6721 ,1.00103 ,4.39849 ,43.15796 
49 ,10.8960 ,1.00332 ,4.36427 ,42.82218 
50 ,11.1201 ,1.00555 ,4.39507 ,43.12438 
51 ,11.3286 ,1.00764 ,4.35742 ,42.75502 
52 ,11.5523 ,1.00987 ,4.31978 ,42.38566 
53 ,11.7606 ,1.01197 ,4.31636 ,42.35208 
54 ,11.9686 ,1.01398 ,4.28898 ,42.08345 
55 ,12.1605 ,1.01608 ,4.26160 ,41.81483 
56 ,12.3528 ,1.01788 ,4.25476 ,41.74767 
57 ,12.5609 ,1.02001 ,4.25476 ,41.74767 
58 ,12.7848 ,1.02215 ,4.22738 ,41.47905 
59 ,12.9931 ,1.02422 ,4.18631 ,41.07611 
60 ,13.2008 ,1.02638 ,4.17947 ,41.00895 
61 ,13.4412 ,1.02882 ,4.15894 ,40.80748 
62 ,13.6654 ,1.03099 ,4.13156 ,40.53885 
63 ,13.8732 ,1.03306 ,4.09734 ,40.20307 
64 ,14.0655 ,1.03500 ,4.12129 ,40.43812 
65 ,14.2738 ,1.03705 ,4.08023 ,40.03518 
66 ,14.4978 ,1.03931 ,4.07338 ,39.96802 
67 ,14.7220 ,1.04155 ,4.05285 ,39.76655 
68 ,14.9299 ,1.04358 ,4.01863 ,39.43077 
69 ,15.1381 ,1.04569 ,4.00152 ,39.26288 
70 ,15.3458 ,1.04791 ,3.99809 ,39.22930 
71 ,15.5541 ,1.04985 ,3.95703 ,38.82636 
72 ,15.7622 ,1.05196 ,3.95361 ,38.79278 
73 ,15.9701 ,1.05400 ,3.92281 ,38.49058 
74 ,16.1781 ,1.05612 ,3.90570 ,38.32268 
75 ,16.4023 ,1.05835 ,3.90570 ,38.32268 
76 ,16.6102 ,1.06046 ,3.86121 ,37.88617 
77 ,16.8187 ,1.06250 ,3.85779 ,37.85259 
78 ,17.0428 ,1.06474 ,3.84752 ,37.75185 
79 ,17.2668 ,1.06696 ,3.82356 ,37.51681 
80 ,17.4750 ,1.06906 ,3.78934 ,37.18102 
81 ,17.6986 ,1.07127 ,3.78250 ,37.11387 
82 ,17.9071 ,1.07333 ,3.75854 ,36.87882 
83 ,18.1150 ,1.07549 ,3.72774 ,36.57661 
84 ,18.3392 ,1.07761 ,3.72432 ,36.54303 
85 ,18.5474 ,1.07980 ,3.71063 ,36.40872 
86 ,18.7710 ,1.08197 ,3.67299 ,36.03936 
87 ,18.9797 ,1.08414 ,3.66614 ,35.97220 
88 ,19.2037 ,1.08635 ,3.65588 ,35.87147 
89 ,19.4278 ,1.08856 ,3.62508 ,35.56926 
90 ,19.6517 ,1.09078 ,3.59770 ,35.30064 
91 ,19.8755 ,1.09304 ,3.58743 ,35.19990 
92 ,20.0839 ,1.09516 ,3.58743 ,35.19990 
93 ,20.2918 ,1.09731 ,3.54637 ,34.79696 
94 ,20.5002 ,1.09929 ,3.52584 ,34.59549 
95 ,20.7244 ,1.10150 ,3.51215 ,34.46118 
96 ,20.9480 ,1.10372 ,3.48135 ,34.15898 
97 ,21.1565 ,1.10588 ,3.46081 ,33.95751 
98 ,21.3645 ,1.10802 ,3.45055 ,33.85677 
99 ,21.5566 ,1.10993 ,3.42659 ,33.62172 
100 ,21.7648 ,1.11198 ,3.43344 ,33.68888 
101 ,21.9889 ,1.11414 ,3.39579 ,33.31952 
102 ,22.1966 ,1.11628 ,3.37868 ,33.15163 
103 ,22.4206 ,1.11850 ,3.37868 ,33.15163 
104 ,22.6131 ,1.12048 ,3.33077 ,32.68153 
105 ,22.8052 ,1.12251 ,3.33419 ,32.71511 
106 ,23.0295 ,1.12456 ,3.28971 ,32.27859 
107 ,23.2529 ,1.12679 ,3.27602 ,32.14428 
108 ,23.4455 ,1.12876 ,3.29313 ,32.31217 
109 ,23.6536 ,1.13089 ,3.24522 ,31.84207 
110 ,23.8456 ,1.13277 ,3.23153 ,31.70776 
111 ,24.0377 ,1.13469 ,3.22126 ,31.60702 
112 ,24.2775 ,1.13698 ,3.20757 ,31.47271 
113 ,24.4859 ,1.13914 ,3.19046 ,31.30482 
114 ,24.6940 ,1.14128 ,3.15282 ,30.93546 
115 ,24.9022 ,1.14329 ,3.16309 ,31.03619 
116 ,25.1262 ,1.14555 ,3.13571 ,30.76757 
117 ,25.3343 ,1.14768 ,3.09464 ,30.36463 
118 ,25.5424 ,1.14966 ,3.10491 ,30.46536 
119 ,25.7506 ,1.15175 ,3.04331 ,29.86095 
120 ,25.9586 ,1.15385 ,3.06042 ,30.02884 
121 ,26.1664 ,1.15593 ,3.05015 ,29.92811 
122 ,26.3589 ,1.15787 ,3.01251 ,29.55875 
123 ,26.5825 ,1.16010 ,3.01251 ,29.55875 
124 ,26.7743 ,1.16209 ,2.95776 ,29.02150 
125 ,26.9825 ,1.16406 ,2.98171 ,29.25654 
126 ,27.1748 ,1.16618 ,2.93722 ,28.82003 
127 ,27.3669 ,1.16798 ,2.93722 ,28.82003 
128 ,27.5913 ,1.17018 ,2.90985 ,28.55140 
129 ,27.8154 ,1.17240 ,2.88931 ,28.34993 
130 ,28.0231 ,1.17462 ,2.87905 ,28.24919 
131 ,28.2317 ,1.17661 ,2.85509 ,28.01415 
132 ,28.4396 ,1.17864 ,2.85851 ,28.04772 
133 ,28.6477 ,1.18072 ,2.81402 ,27.61121 
134 ,28.8557 ,1.18279 ,2.80376 ,27.51047 
135 ,29.0799 ,1.18504 ,2.80034 ,27.47689 
136 ,29.2719 ,1.18703 ,2.77296 ,27.20827 
137 ,29.4801 ,1.18906 ,2.76954 ,27.17469 
138 ,29.7040 ,1.19128 ,2.75927 ,27.07395 
139 ,29.9117 ,1.19351 ,2.71478 ,26.63744 
140 ,30.0879 ,1.19530 ,2.71136 ,26.60386 
141 ,30.2960 ,1.19718 ,2.68740 ,26.36881 
142 ,30.4882 ,1.19920 ,2.67372 ,26.23450 
143 ,30.6645 ,1.20108 ,2.67029 ,26.20092 
144 ,30.8726 ,1.20299 ,2.63949 ,25.89871 
145 ,31.0802 ,1.20505 ,2.64292 ,25.93229 
146 ,31.2567 ,1.20696 ,2.58816 ,25.39504 
147 ,31.4650 ,1.20890 ,2.60527 ,25.56293 
148 ,31.6889 ,1.21111 ,2.57105 ,25.22715 
149 ,31.9131 ,1.21333 ,2.54710 ,24.99210 
150 ,32.1206 ,1.21557 ,2.52998 ,24.82421 
151 ,32.3295 ,1.21751 ,2.51972 ,24.72347 
152 ,32.5534 ,1.21981 ,2.49576 ,24.48842 
153 ,32.7771 ,1.22197 ,2.49918 ,24.52200 
154 ,33.0015 ,1.22425 ,2.47865 ,24.32053 
155 ,33.2092 ,1.22629 ,2.43759 ,23.91759 
156 ,33.4176 ,1.22847 ,2.44101 ,23.95117 
157 ,33.6257 ,1.23047 ,2.42048 ,23.74970 
158 ,33.8339 ,1.23257 ,2.39994 ,23.54823 
159 ,34.0420 ,1.23467 ,2.39994 ,23.54823 
160 ,34.2657 ,1.23688 ,2.36914 ,23.24603 
161 ,34.4739 ,1.23902 ,2.35545 ,23.11171 
162 ,34.6821 ,1.24108 ,2.35203 ,23.07814 
163 ,34.8900 ,1.24313 ,2.31097 ,22.67520 
164 ,35.0980 ,1.24520 ,2.30070 ,22.57446 
165 ,35.3226 ,1.24746 ,2.28701 ,22.44015 
166 ,35.5303 ,1.24968 ,2.25963 ,22.17152 
167 ,35.7546 ,1.25184 ,2.22883 ,21.86932 
168 ,35.9787 ,1.25402 ,2.23226 ,21.90290 
169 ,36.1868 ,1.25611 ,2.20830 ,21.66785 
170 ,36.4108 ,1.25837 ,2.18435 ,21.43280 
171 ,36.6189 ,1.26047 ,2.18092 ,21.39922 
172 ,36.8430 ,1.26265 ,2.16723 ,21.26491 
173 ,37.0513 ,1.26474 ,2.12275 ,20.82839 
174 ,37.2751 ,1.26698 ,2.12275 ,20.82839 
175 ,37.4993 ,1.26924 ,2.11590 ,20.76123 
176 ,37.7235 ,1.27143 ,2.10221 ,20.62692 
177 ,37.9472 ,1.27367 ,2.07141 ,20.32472 
178 ,38.1553 ,1.27577 ,2.04746 ,20.08967 
179 ,38.3635 ,1.27793 ,2.05773 ,20.19040 
180 ,38.5715 ,1.27994 ,2.02008 ,19.82104 
181 ,38.7959 ,1.28218 ,2.00297 ,19.65315 
182 ,39.0039 ,1.28421 ,2.00297 ,19.65315 
183 ,39.2121 ,1.28632 ,1.96533 ,19.28379 
184 ,39.4040 ,1.28842 ,1.96533 ,19.28379 
185 ,39.6120 ,1.29036 ,1.94137 ,19.04874 
186 ,39.8200 ,1.29239 ,1.94479 ,19.08232 
187 ,40.0439 ,1.29467 ,1.91742 ,18.81369 
188 ,40.2362 ,1.29661 ,1.90031 ,18.64580 
189 ,40.4443 ,1.29865 ,1.88319 ,18.47791 
190 ,40.6685 ,1.30087 ,1.84897 ,18.14213 
191 ,40.8763 ,1.30300 ,1.85582 ,18.20928 
192 ,41.1005 ,1.30533 ,1.83871 ,18.04139 
193 ,41.3087 ,1.30725 ,1.79080 ,17.57129 
194 ,41.5168 ,1.30942 ,1.79080 ,17.57129 
195 ,41.7246 ,1.31149 ,1.77711 ,17.43698 
196 ,41.9485 ,1.31372 ,1.74631 ,17.13478 
197 ,42.1566 ,1.31582 ,1.74973 ,17.16836 
198 ,42.3652 ,1.31786 ,1.73604 ,17.03404 
199 ,42.6214 ,1.32036 ,1.70182 ,16.69826 
200 ,42.8454 ,1.32267 ,1.69498 ,16.63110 
201 ,43.0695 ,1.32496 ,1.66760 ,16.36248 
202 ,43.2773 ,1.32700 ,1.67444 ,16.42963 
203 ,43.4856 ,1.32904 ,1.63680 ,16.06027 
204 ,43.6936 ,1.33111 ,1.62995 ,15.99311 
205 ,43.9019 ,1.33318 ,1.62311 ,15.92596 
206 ,44.1099 ,1.33537 ,1.59231 ,15.62375 
207 ,44.3175 ,1.33742 ,1.60258 ,15.72449 
208 ,44.5259 ,1.33951 ,1.57178 ,15.42228 
209 ,44.7499 ,1.34169 ,1.54098 ,15.12008 
210 ,44.9742 ,1.34395 ,1.54440 ,15.15366 
211 ,45.1822 ,1.34604 ,1.51702 ,14.88503 
212 ,45.4060 ,1.34822 ,1.48965 ,14.61640 
213 ,45.6307 ,1.35050 ,1.46911 ,14.41493 
214 ,45.8547 ,1.35270 ,1.47596 ,14.48209 
215 ,46.0787 ,1.35497 ,1.46227 ,14.34778 
216 ,46.3029 ,1.35722 ,1.43489 ,14.07915 
217 ,46.5584 ,1.35977 ,1.41778 ,13.91126 
218 ,46.7669 ,1.36187 ,1.39383 ,13.67621 
219 ,47.0070 ,1.36417 ,1.36987 ,13.44116 
220 ,47.2152 ,1.36631 ,1.38014 ,13.54190 
221 ,47.4391 ,1.36848 ,1.36645 ,13.40759 
222 ,47.6468 ,1.37079 ,1.33223 ,13.07180 
223 ,47.8555 ,1.37280 ,1.32880 ,13.03822 
224 ,48.0791 ,1.37491 ,1.30827 ,12.83675 
225 ,48.2873 ,1.37703 ,1.27747 ,12.53455 
226 ,48.4953 ,1.37917 ,1.28432 ,12.60171 
227 ,48.6875 ,1.38117 ,1.23983 ,12.16519 
228 ,48.9278 ,1.38341 ,1.25694 ,12.33308 
229 ,49.1359 ,1.38568 ,1.22614 ,12.03088 
230 ,49.3280 ,1.38749 ,1.21245 ,11.89656 
231 ,49.5359 ,1.38955 ,1.20903 ,11.86298 
232 ,49.7600 ,1.39175 ,1.19192 ,11.69509 
233 ,49.9520 ,1.39382 ,1.16454 ,11.42647 
234 ,50.1442 ,1.39567 ,1.15770 ,11.35931 
235 ,50.3520 ,1.39784 ,1.13716 ,11.15784 
236 ,50.5444 ,1.39965 ,1.11663 ,10.95637 
237 ,50.7685 ,1.40185 ,1.09267 ,10.72132 
238 ,50.9762 ,1.40395 ,1.11321 ,10.92279 
239 ,51.2008 ,1.40613 ,1.08583 ,10.65416 
240 ,51.4089 ,1.40828 ,1.04819 ,10.28480 
241 ,51.6330 ,1.41049 ,1.05503 ,10.35196 
242 ,51.8253 ,1.41247 ,1.02081 ,10.01618 
243 ,52.0491 ,1.41466 ,1.01739 ,9.98260 
244 ,52.2890 ,1.41692 ,1.01396 ,9.94902 
245 ,52.5291 ,1.41935 ,0.99685 ,9.78113 
246 ,52.7375 ,1.42153 ,0.98317 ,9.64682 
247 ,52.9616 ,1.42377 ,0.95237 ,9.34461 
248 ,53.1536 ,1.42582 ,0.93525 ,9.17672 
249 ,53.3617 ,1.42781 ,0.91814 ,9.00883 
250 ,53.5538 ,1.42986 ,0.91814 ,9.00883 
251 ,53.7620 ,1.43186 ,0.88734 ,8.70662 
252 ,53.9699 ,1.43386 ,0.88392 ,8.67305 
253 ,54.1780 ,1.43594 ,0.89419 ,8.77378 
254 ,54.4022 ,1.43821 ,0.84970 ,8.33726 
255 ,54.5942 ,1.44020 ,0.84628 ,8.30368 
256 ,54.8022 ,1.44218 ,0.82917 ,8.13579 
257 ,55.0103 ,1.44423 ,0.82232 ,8.06864 
258 ,55.2185 ,1.44629 ,0.80521 ,7.90074 
259 ,55.4102 ,1.44837 ,0.77784 ,7.63212 
260 ,55.6027 ,1.45033 ,0.76415 ,7.49780 
261 ,55.8108 ,1.45232 ,0.76757 ,7.53138 
262 ,56.0189 ,1.45435 ,0.75046 ,7.36349 
263 ,56.2269 ,1.45639 ,0.71966 ,7.06129 
264 ,56.4510 ,1.45865 ,0.72308 ,7.09486 
265 ,56.6591 ,1.46075 ,0.69228 ,6.79266 
266 ,56.8672 ,1.46291 ,0.67517 ,6.62477 
267 ,57.0911 ,1.46497 ,0.67175 ,6.59119 
268 ,57.2994 ,1.46722 ,0.66490 ,6.52403 
269 ,57.5395 ,1.46939 ,0.63410 ,6.22183 
270 ,57.7795 ,1.47188 ,0.61699 ,6.05394 
271 ,57.9876 ,1.47406 ,0.60673 ,5.95320 
272 ,58.1959 ,1.47611 ,0.60673 ,5.95320 
273 ,58.4200 ,1.47833 ,0.57593 ,5.65100 
274 ,58.6278 ,1.48038 ,0.56566 ,5.55026 
275 ,58.8360 ,1.48245 ,0.57251 ,5.61742 
276 ,59.0442 ,1.48456 ,0.52802 ,5.18090 
277 ,59.2523 ,1.48663 ,0.54171 ,5.31522 
278 ,59.4605 ,1.48873 ,0.50064 ,4.91228 
279 ,59.6844 ,1.49099 ,0.48011 ,4.71081 
280 ,59.8920 ,1.49306 ,0.49722 ,4.87870 
281 ,60.1006 ,1.49512 ,0.46642 ,4.57649 
282 ,60.3086 ,1.49720 ,0.46642 ,4.57649 
283 ,60.5330 ,1.49937 ,0.45957 ,4.50934 
284 ,60.7408 ,1.50156 ,0.41851 ,4.10640 
285 ,60.9326 ,1.50350 ,0.43220 ,4.24071 
286 ,61.1406 ,1.50567 ,0.41166 ,4.03924 
287 ,61.3487 ,1.50761 ,0.39113 ,3.83777 
288 ,61.5728 ,1.50978 ,0.38771 ,3.80419 
289 ,61.7647 ,1.51189 ,0.35349 ,3.46841 
290 ,61.9729 ,1.51388 ,0.37402 ,3.66988 
291 ,62.1809 ,1.51595 ,0.33980 ,3.33410 
292 ,62.3891 ,1.51806 ,0.33638 ,3.30052 
293 ,62.5811 ,1.52007 ,0.32269 ,3.16620 
294 ,62.7892 ,1.52205 ,0.30900 ,3.03189 
295 ,63.0134 ,1.52418 ,0.28162 ,2.76326 
296 ,63.2214 ,1.52637 ,0.26109 ,2.56179 
297 ,63.4296 ,1.52842 ,0.27135 ,2.66253 
298 ,63.6376 ,1.53049 ,0.24398 ,2.39390 
299 ,63.8457 ,1.53259 ,0.22344 ,2.19243 
300 ,64.0539 ,1.53469 ,0.23371 ,2.29317 
301 ,64.2619 ,1.53676 ,0.20291 ,1.99096 
302 ,64.4859 ,1.53899 ,0.19264 ,1.89023 
303 ,64.6940 ,1.54106 ,0.17896 ,1.75592 
304 ,64.9021 ,1.54316 ,0.15500 ,1.52087 
305 ,65.1102 ,1.54526 ,0.15842 ,1.55445 
306 ,65.3343 ,1.54736 ,0.13789 ,1.35298 
307 ,65.5424 ,1.54951 ,0.11393 ,1.11793 
308 ,65.7507 ,1.55166 ,0.12762 ,1.25224 
309 ,65.9746 ,1.55383 ,0.11051 ,1.08435 
310 ,66.1671 ,1.55584 ,0.07629 ,0.74857 
311 ,66.3754 ,1.55785 ,0.07971 ,0.78214 
312 ,66.5829 ,1.55992 ,0.05234 ,0.51352 
313 ,66.7914 ,1.56202 ,0.06260 ,0.61425 
314 ,67.0154 ,1.56425 ,0.03865 ,0.37920 
315 ,67.2237 ,1.56635 ,0.01811 ,0.17773 
316 ,67.4473 ,1.56855 ,0.01127 ,0.11058 
317 ,67.6554 ,1.57062 ,-0.00926 ,-0.09089 
318 ,67.8796 ,1.57291 ,-0.02637 ,-0.25878 
319 ,68.1040 ,1.57514 ,-0.04006 ,-0.39310 
320 ,68.3121 ,1.57719 ,-0.02637 ,-0.25878 
321 ,68.5203 ,1.57925 ,-0.06744 ,-0.66172 
322 ,68.7439 ,1.58156 ,-0.08455 ,-0.82961 
323 ,68.9684 ,1.58378 ,-0.07086 ,-0.69530 
324 ,69.2246 ,1.58632 ,-0.10166 ,-0.99751 
325 ,69.4484 ,1.58862 ,-0.10508 ,-1.03108 
326 ,69.6726 ,1.59081 ,-0.11877 ,-1.16540 
327 ,69.8803 ,1.59301 ,-0.13931 ,-1.36687 
328 ,70.1050 ,1.59512 ,-0.14957 ,-1.46760 
329 ,70.3291 ,1.59741 ,-0.16668 ,-1.63549 
330 ,70.5530 ,1.59962 ,-0.16668 ,-1.63549 
331 ,70.7611 ,1.60171 ,-0.19748 ,-1.93770 
332 ,70.9847 ,1.60398 ,-0.20433 ,-2.00485 
333 ,71.2093 ,1.60614 ,-0.20090 ,-1.97128 
334 ,71.4335 ,1.60849 ,-0.20775 ,-2.03843 
335 ,71.6414 ,1.61048 ,-0.24881 ,-2.44137 
336 ,71.8495 ,1.61257 ,-0.25566 ,-2.50853 
337 ,72.0736 ,1.61484 ,-0.25566 ,-2.50853 
338 ,72.2977 ,1.61704 ,-0.31041 ,-3.04578 
339 ,72.5217 ,1.61934 ,-0.30357 ,-2.97863 
340 ,72.7298 ,1.62133 ,-0.28646 ,-2.81073 
341 ,72.9380 ,1.62345 ,-0.32752 ,-3.21367 
342 ,73.1458 ,1.62554 ,-0.33095 ,-3.24725 
343 ,73.3700 ,1.62781 ,-0.32752 ,-3.21367 
344 ,73.6100 ,1.63004 ,-0.35148 ,-3.44872 
345 ,73.8183 ,1.63224 ,-0.37886 ,-3.71735 
346 ,74.0262 ,1.63433 ,-0.37201 ,-3.65019 
347 ,74.2346 ,1.63641 ,-0.39255 ,-3.85166 
348 ,74.4581 ,1.63872 ,-0.41308 ,-4.05313 
349 ,74.6666 ,1.64077 ,-0.41308 ,-4.05313 
350 ,74.8906 ,1.64296 ,-0.41308 ,-4.05313 
351 ,75.0988 ,1.64506 ,-0.44730 ,-4.38891 
352 ,75.3069 ,1.64717 ,-0.44730 ,-4.38891 
353 ,75.5144 ,1.64931 ,-0.45757 ,-4.48965 
354 ,75.7230 ,1.65129 ,-0.48152 ,-4.72470 
355 ,75.9312 ,1.65338 ,-0.47468 ,-4.65754 
356 ,76.1232 ,1.65535 ,-0.50206 ,-4.92617 
357 ,76.3315 ,1.65737 ,-0.49521 ,-4.85901 
358 ,76.5392 ,1.65943 ,-0.53285 ,-5.22837 
359 ,76.7633 ,1.66172 ,-0.53285 ,-5.22837 
360 ,76.9875 ,1.66390 ,-0.54654 ,-5.36268 
361 ,77.1795 ,1.66599 ,-0.55681 ,-5.46342 
362 ,77.3877 ,1.66795 ,-0.56023 ,-5.49700 
363 ,77.6118 ,1.67017 ,-0.57050 ,-5.59773 
364 ,77.8200 ,1.67227 ,-0.60130 ,-5.89994 
365 ,78.0441 ,1.67448 ,-0.60814 ,-5.96709 
366 ,78.2680 ,1.67671 ,-0.60814 ,-5.96709 
367 ,78.4601 ,1.67877 ,-0.63210 ,-6.20214 
368 ,78.6681 ,1.68075 ,-0.62868 ,-6.16856 
369 ,78.8599 ,1.68276 ,-0.65605 ,-6.43719 
370 ,79.0843 ,1.68482 ,-0.65947 ,-6.47077 
371 ,79.3086 ,1.68712 ,-0.65605 ,-6.43719 
372 ,79.5328 ,1.68937 ,-0.67659 ,-6.63866 
373 ,79.7407 ,1.69148 ,-0.70054 ,-6.87371 
374 ,79.9323 ,1.69351 ,-0.70054 ,-6.87371 
375 ,80.1410 ,1.69552 ,-0.73476 ,-7.20949 
376 ,80.3485 ,1.69756 ,-0.72450 ,-7.10876 
377 ,80.5731 ,1.69966 ,-0.74161 ,-7.27665 
378 ,80.7812 ,1.70186 ,-0.77241 ,-7.57885 
379 ,80.9891 ,1.70394 ,-0.75872 ,-7.44454 
380 ,81.2294 ,1.70629 ,-0.77925 ,-7.64601 
381 ,81.4535 ,1.70861 ,-0.76898 ,-7.54527 
382 ,81.6774 ,1.71079 ,-0.79978 ,-7.84748 
383 ,81.8853 ,1.71292 ,-0.81347 ,-7.98179 
384 ,82.0936 ,1.71495 ,-0.81347 ,-7.98179 
385 ,82.3177 ,1.71723 ,-0.84085 ,-8.25042 
386 ,82.5417 ,1.71948 ,-0.87507 ,-8.58620 
387 ,82.7656 ,1.72171 ,-0.86481 ,-8.48547 
388 ,82.9741 ,1.72379 ,-0.86138 ,-8.45189 
389 ,83.1818 ,1.72586 ,-0.89218 ,-8.75409 
390 ,83.3901 ,1.72790 ,-0.88192 ,-8.65336 
391 ,83.5984 ,1.72997 ,-0.91614 ,-8.98914 
392 ,83.8064 ,1.73213 ,-0.91956 ,-9.02272 
393 ,84.0145 ,1.73417 ,-0.91614 ,-8.98914 
394 ,84.2226 ,1.73633 ,-0.94351 ,-9.25777 
395 ,84.4462 ,1.73849 ,-0.95720 ,-9.39208 
396 ,84.6548 ,1.74057 ,-0.94694 ,-9.29135 
397 ,84.8626 ,1.74264 ,-0.97431 ,-9.55997 
398 ,85.0709 ,1.74469 ,-0.97089 ,-9.52639 
399 ,85.2789 ,1.74687 ,-0.99485 ,-9.76144 
400 ,85.4867 ,1.74902 ,-1.00854 ,-9.89576 
401 ,85.7112 ,1.75111 ,-0.99485 ,-9.76144 
402 ,85.9354 ,1.75338 ,-1.01538 ,-9.96291 
403 ,86.1594 ,1.75555 ,-1.04276 ,-10.23154 
404 ,86.3835 ,1.75784 ,-1.05987 ,-10.39943 
405 ,86.5910 ,1.76012 ,-1.05987 ,-10.39943 
406 ,86.8151 ,1.76211 ,-1.07698 ,-10.56732 
407 ,87.0234 ,1.76428 ,-1.09409 ,-10.73521 
408 ,87.2316 ,1.76635 ,-1.07698 ,-10.56732 
409 ,87.4400 ,1.76845 ,-1.10093 ,-10.80237 
410 ,87.6640 ,1.77071 ,-1.12147 ,-11.00384 
411 ,87.8721 ,1.77281 ,-1.11805 ,-10.97026 
412 ,88.0801 ,1.77492 ,-1.12147 ,-11.00384 
413 ,88.2880 ,1.77688 ,-1.13173 ,-11.10457 
414 ,88.4963 ,1.77898 ,-1.14542 ,-11.23889 
415 ,88.7204 ,1.78118 ,-1.17622 ,-11.54109 
416 ,88.9444 ,1.78342 ,-1.18307 ,-11.60825 
417 ,89.1527 ,1.78554 ,-1.17964 ,-11.57467 
418 ,89.3608 ,1.78760 ,-1.20702 ,-11.84330 
419 ,89.5848 ,1.78981 ,-1.20360 ,-11.80972 
420 ,89.8090 ,1.79211 ,-1.20702 ,-11.84330 
421 ,90.0326 ,1.79434 ,-1.21729 ,-11.94403 
422 ,90.2409 ,1.79642 ,-1.24124 ,-12.17908 
423 ,90.4490 ,1.79848 ,-1.23440 ,-12.11192 
424 ,90.6730 ,1.80077 ,-1.24809 ,-12.24624 
425 ,90.8973 ,1.80298 ,-1.26862 ,-12.44771 
426 ,91.1050 ,1.80505 ,-1.28573 ,-12.61560 
427 ,91.2975 ,1.80714 ,-1.27204 ,-12.48128 
428 ,91.5055 ,1.80903 ,-1.28573 ,-12.61560 
429 ,91.7137 ,1.81126 ,-1.29600 ,-12.71633 
430 ,91.8897 ,1.81307 ,-1.31311 ,-12.88422 
431 ,92.0980 ,1.81505 ,-1.31995 ,-12.95138 
432 ,92.3061 ,1.81703 ,-1.33364 ,-13.08569 
433 ,92.5302 ,1.81926 ,-1.31995 ,-12.95138 
434 ,92.7540 ,1.82154 ,-1.34391 ,-13.18643 
435 ,92.9782 ,1.82381 ,-1.38497 ,-13.58937 
436 ,93.1862 ,1.82588 ,-1.37471 ,-13.48863 
437 ,93.3942 ,1.82794 ,-1.37471 ,-13.48863 
438 ,93.5866 ,1.82989 ,-1.39866 ,-13.72368 
439 ,93.7946 ,1.83196 ,-1.40551 ,-13.79084 
440 ,94.0028 ,1.83400 ,-1.41235 ,-13.85799 
441 ,94.2104 ,1.83610 ,-1.40209 ,-13.75726 
442 ,94.4025 ,1.83808 ,-1.45000 ,-14.22736 
443 ,94.6109 ,1.84012 ,-1.42946 ,-14.02589 
444 ,94.8190 ,1.84222 ,-1.46711 ,-14.39525 
445 ,95.0270 ,1.84425 ,-1.45342 ,-14.26093 
446 ,95.2512 ,1.84649 ,-1.45684 ,-14.29451 
447 ,95.4912 ,1.84875 ,-1.47395 ,-14.46240 
448 ,95.7151 ,1.85123 ,-1.50475 ,-14.76461 
449 ,95.9396 ,1.85325 ,-1.51159 ,-14.83177 
450 ,96.1476 ,1.85547 ,-1.50475 ,-14.76461 
451 ,96.3556 ,1.85766 ,-1.50133 ,-14.73103 
452 ,96.5638 ,1.85968 ,-1.52871 ,-14.99966 
453 ,96.7716 ,1.86188 ,-1.52528 ,-14.96608 
454 ,96.9800 ,1.86373 ,-1.57319 ,-15.43617 
455 ,97.2040 ,1.86590 ,-1.55608 ,-15.26828 
456 ,97.4121 ,1.86809 ,-1.55950 ,-15.30186 
457 ,97.6200 ,1.87019 ,-1.58346 ,-15.53691 
458 ,97.8439 ,1.87242 ,-1.59030 ,-15.60407 
459 ,98.0364 ,1.87446 ,-1.59373 ,-15.63764 
460 ,98.2606 ,1.87656 ,-1.62453 ,-15.93985 
