Data stamp = , 18-05-2022 21:00:19 860

Calibration Values: 
Slope = , 26.54 , g/V 
Offset Voltage at no contact = , -0.501760 , V 

No , Time , Stage Position ,   Mass , Force 
   ,  (s) ,      (mm)      ,   (g)  , (mN)  

1 ,0.0000 ,0.89966 ,5.27798 ,51.78758 
2 ,0.2267 ,0.89976 ,5.29510 ,51.95548 
3 ,0.7392 ,0.90157 ,5.29852 ,51.98905 
4 ,0.9954 ,0.90421 ,5.27114 ,51.72043 
5 ,1.2196 ,0.90656 ,5.27798 ,51.78758 
6 ,1.4273 ,0.90861 ,5.28483 ,51.85474 
7 ,1.6198 ,0.91068 ,5.28825 ,51.88832 
8 ,1.8277 ,0.91263 ,5.24718 ,51.48538 
9 ,2.0521 ,0.91489 ,5.25061 ,51.51896 
10 ,2.2601 ,0.91695 ,5.20270 ,51.04886 
11 ,2.4682 ,0.91908 ,5.16848 ,50.71308 
12 ,2.7081 ,0.92138 ,5.17532 ,50.78023 
13 ,2.9162 ,0.92362 ,5.15136 ,50.54519 
14 ,3.1084 ,0.92549 ,5.11714 ,50.20940 
15 ,3.3326 ,0.92772 ,5.12399 ,50.27656 
16 ,3.5563 ,0.92991 ,5.08634 ,49.90720 
17 ,3.7648 ,0.93208 ,5.05554 ,49.60499 
18 ,3.9886 ,0.93426 ,5.02132 ,49.26921 
19 ,4.1966 ,0.93632 ,5.04185 ,49.47068 
20 ,4.4210 ,0.93859 ,4.99394 ,49.00058 
21 ,4.6447 ,0.94087 ,4.96315 ,48.69838 
22 ,4.8532 ,0.94291 ,4.96315 ,48.69838 
23 ,5.0772 ,0.94514 ,4.93577 ,48.42975 
24 ,5.2854 ,0.94721 ,4.89128 ,47.99324 
25 ,5.4935 ,0.94945 ,4.88786 ,47.95966 
26 ,5.7013 ,0.95141 ,4.87417 ,47.82534 
27 ,5.8930 ,0.95342 ,4.82968 ,47.38883 
28 ,6.1017 ,0.95540 ,4.82968 ,47.38883 
29 ,6.3257 ,0.95760 ,4.79546 ,47.05304 
30 ,6.5338 ,0.95971 ,4.79204 ,47.01946 
31 ,6.7415 ,0.96180 ,4.76466 ,46.75084 
32 ,6.9657 ,0.96393 ,4.75097 ,46.61653 
33 ,7.1741 ,0.96620 ,4.72017 ,46.31432 
34 ,7.3983 ,0.96839 ,4.70990 ,46.21359 
35 ,7.6384 ,0.97079 ,4.67911 ,45.91138 
36 ,7.8624 ,0.97296 ,4.65173 ,45.64275 
37 ,8.0704 ,0.97503 ,4.64146 ,45.54202 
38 ,8.2947 ,0.97738 ,4.63462 ,45.47486 
39 ,8.5188 ,0.97952 ,4.60040 ,45.13908 
40 ,8.7268 ,0.98162 ,4.56275 ,44.76972 
41 ,8.9349 ,0.98382 ,4.54564 ,44.60183 
42 ,9.1430 ,0.98576 ,4.53880 ,44.53467 
43 ,9.3669 ,0.98805 ,4.50115 ,44.16531 
44 ,9.5752 ,0.99015 ,4.51484 ,44.29962 
45 ,9.7992 ,0.99233 ,4.48062 ,43.96384 
46 ,10.0078 ,0.99437 ,4.45324 ,43.69521 
47 ,10.2314 ,0.99662 ,4.43271 ,43.49374 
48 ,10.4555 ,0.99891 ,4.42929 ,43.46016 
49 ,10.6796 ,1.00112 ,4.39849 ,43.15796 
50 ,10.8876 ,1.00325 ,4.36427 ,42.82218 
51 ,11.0797 ,1.00520 ,4.36427 ,42.82218 
52 ,11.2875 ,1.00720 ,4.33689 ,42.55355 
53 ,11.4955 ,1.00930 ,4.33347 ,42.51997 
54 ,11.7042 ,1.01140 ,4.29240 ,42.11703 
55 ,11.8961 ,1.01341 ,4.28556 ,42.04988 
56 ,12.1041 ,1.01536 ,4.26160 ,41.81483 
57 ,12.2961 ,1.01734 ,4.25818 ,41.78125 
58 ,12.5204 ,1.01952 ,4.24449 ,41.64694 
59 ,12.7442 ,1.02182 ,4.19316 ,41.14326 
60 ,12.9685 ,1.02402 ,4.17262 ,40.94179 
61 ,13.1764 ,1.02612 ,4.16920 ,40.90821 
62 ,13.3848 ,1.02819 ,4.15209 ,40.74032 
63 ,13.5929 ,1.03026 ,4.12814 ,40.50527 
64 ,13.8328 ,1.03258 ,4.12471 ,40.47170 
65 ,14.0569 ,1.03488 ,4.10418 ,40.27023 
66 ,14.2810 ,1.03715 ,4.08023 ,40.03518 
67 ,14.4730 ,1.03911 ,4.04943 ,39.73297 
68 ,14.6811 ,1.04115 ,4.03916 ,39.63224 
69 ,14.8893 ,1.04325 ,4.00152 ,39.26288 
70 ,15.0974 ,1.04529 ,4.01863 ,39.43077 
71 ,15.3212 ,1.04755 ,3.97414 ,38.99425 
72 ,15.5297 ,1.04960 ,3.93307 ,38.59131 
73 ,15.7536 ,1.05192 ,3.93307 ,38.59131 
74 ,15.9615 ,1.05393 ,3.90912 ,38.35626 
75 ,16.1539 ,1.05590 ,3.90227 ,38.28911 
76 ,16.3781 ,1.05811 ,3.89201 ,38.18837 
77 ,16.5859 ,1.06017 ,3.85436 ,37.81901 
78 ,16.7943 ,1.06233 ,3.85779 ,37.85259 
79 ,17.0018 ,1.06447 ,3.85094 ,37.78543 
80 ,17.2101 ,1.06646 ,3.79276 ,37.21460 
81 ,17.4024 ,1.06853 ,3.80645 ,37.34891 
82 ,17.6106 ,1.07046 ,3.75512 ,36.84524 
83 ,17.8346 ,1.07269 ,3.76539 ,36.94597 
84 ,18.0588 ,1.07486 ,3.73801 ,36.67735 
85 ,18.2667 ,1.07699 ,3.69352 ,36.24083 
86 ,18.5070 ,1.07944 ,3.68325 ,36.14010 
87 ,18.7306 ,1.08162 ,3.66957 ,36.00578 
88 ,18.9386 ,1.08379 ,3.65588 ,35.87147 
89 ,19.1631 ,1.08589 ,3.63192 ,35.63642 
90 ,19.4352 ,1.08869 ,3.61823 ,35.50211 
91 ,19.6592 ,1.09092 ,3.60112 ,35.33422 
92 ,19.8674 ,1.09296 ,3.56006 ,34.93128 
93 ,20.0753 ,1.09506 ,3.55321 ,34.86412 
94 ,20.3000 ,1.09736 ,3.54637 ,34.79696 
95 ,20.5077 ,1.09939 ,3.50188 ,34.36045 
96 ,20.7157 ,1.10145 ,3.49846 ,34.32687 
97 ,20.9401 ,1.10378 ,3.48819 ,34.22613 
98 ,21.1641 ,1.10594 ,3.45397 ,33.89035 
99 ,21.3561 ,1.10790 ,3.45055 ,33.85677 
100 ,21.5802 ,1.11012 ,3.43001 ,33.65530 
101 ,21.7884 ,1.11214 ,3.39921 ,33.35310 
102 ,21.9803 ,1.11424 ,3.38210 ,33.18520 
103 ,22.2046 ,1.11640 ,3.35815 ,32.95016 
104 ,22.4124 ,1.11844 ,3.33419 ,32.71511 
105 ,22.6202 ,1.12050 ,3.33762 ,32.74869 
106 ,22.8288 ,1.12267 ,3.31366 ,32.51364 
107 ,23.0369 ,1.12475 ,3.29655 ,32.34575 
108 ,23.2451 ,1.12673 ,3.27602 ,32.14428 
109 ,23.4690 ,1.12899 ,3.25206 ,31.90923 
110 ,23.6610 ,1.13101 ,3.25548 ,31.94281 
111 ,23.8691 ,1.13297 ,3.20757 ,31.47271 
112 ,24.0772 ,1.13506 ,3.21442 ,31.53987 
113 ,24.2694 ,1.13700 ,3.17677 ,31.17051 
114 ,24.5092 ,1.13928 ,3.18020 ,31.20409 
115 ,24.7176 ,1.14147 ,3.15282 ,30.93546 
116 ,24.9416 ,1.14372 ,3.14940 ,30.90188 
117 ,25.1497 ,1.14578 ,3.09806 ,30.39821 
118 ,25.3418 ,1.14777 ,3.10833 ,30.49894 
119 ,25.5658 ,1.14994 ,3.06726 ,30.09600 
120 ,25.7740 ,1.15215 ,3.04331 ,29.86095 
121 ,25.9814 ,1.15406 ,3.05700 ,29.99527 
122 ,26.1900 ,1.15616 ,3.01935 ,29.62590 
123 ,26.3983 ,1.15828 ,3.01251 ,29.55875 
124 ,26.6065 ,1.16036 ,2.98855 ,29.32370 
125 ,26.8144 ,1.16239 ,2.97144 ,29.15581 
126 ,27.0223 ,1.16456 ,2.95433 ,28.98792 
127 ,27.2465 ,1.16680 ,2.92696 ,28.71929 
128 ,27.4546 ,1.16895 ,2.90300 ,28.48424 
129 ,27.6465 ,1.17083 ,2.89616 ,28.41709 
130 ,27.8388 ,1.17281 ,2.88247 ,28.28277 
131 ,28.0467 ,1.17473 ,2.87220 ,28.18204 
132 ,28.2385 ,1.17677 ,2.83798 ,27.84625 
133 ,28.4307 ,1.17858 ,2.82771 ,27.74552 
134 ,28.6392 ,1.18071 ,2.84140 ,27.87983 
135 ,28.8312 ,1.18268 ,2.79349 ,27.40974 
136 ,29.0394 ,1.18463 ,2.78665 ,27.34258 
137 ,29.2631 ,1.18690 ,2.78322 ,27.30900 
138 ,29.4873 ,1.18923 ,2.73189 ,26.80533 
139 ,29.6955 ,1.19122 ,2.72505 ,26.73817 
140 ,29.9517 ,1.19367 ,2.70794 ,26.57028 
141 ,30.1758 ,1.19601 ,2.69083 ,26.40239 
142 ,30.3839 ,1.19815 ,2.69083 ,26.40239 
143 ,30.6081 ,1.20038 ,2.64634 ,25.96587 
144 ,30.8317 ,1.20259 ,2.62238 ,25.73082 
145 ,31.0239 ,1.20455 ,2.64634 ,25.96587 
146 ,31.2320 ,1.20668 ,2.59501 ,25.46220 
147 ,31.4404 ,1.20874 ,2.59158 ,25.42862 
148 ,31.6481 ,1.21075 ,2.57105 ,25.22715 
149 ,31.8724 ,1.21299 ,2.53341 ,24.85779 
150 ,32.0966 ,1.21527 ,2.52656 ,24.79063 
151 ,32.3047 ,1.21729 ,2.51972 ,24.72347 
152 ,32.5127 ,1.21945 ,2.48550 ,24.38769 
153 ,32.7206 ,1.22150 ,2.49918 ,24.52200 
154 ,32.9290 ,1.22353 ,2.47523 ,24.28696 
155 ,33.1368 ,1.22566 ,2.43416 ,23.88402 
156 ,33.3451 ,1.22773 ,2.44443 ,23.98475 
157 ,33.5528 ,1.22981 ,2.40336 ,23.58181 
158 ,33.7450 ,1.23177 ,2.41363 ,23.68255 
159 ,33.9533 ,1.23395 ,2.38625 ,23.41392 
160 ,34.1773 ,1.23601 ,2.35888 ,23.14529 
161 ,34.3694 ,1.23803 ,2.34861 ,23.04456 
162 ,34.5776 ,1.24006 ,2.33150 ,22.87667 
163 ,34.8018 ,1.24226 ,2.31781 ,22.74235 
164 ,35.0097 ,1.24436 ,2.30754 ,22.64162 
165 ,35.2177 ,1.24639 ,2.27674 ,22.33941 
166 ,35.4257 ,1.24851 ,2.27332 ,22.30584 
167 ,35.6336 ,1.25058 ,2.24252 ,22.00363 
168 ,35.8261 ,1.25267 ,2.23910 ,21.97005 
169 ,36.0017 ,1.25445 ,2.21515 ,21.73500 
170 ,36.2261 ,1.25649 ,2.21857 ,21.76858 
171 ,36.4504 ,1.25875 ,2.20146 ,21.60069 
172 ,36.6740 ,1.26096 ,2.16381 ,21.23133 
173 ,36.8824 ,1.26300 ,2.16723 ,21.26491 
174 ,37.1062 ,1.26530 ,2.13644 ,20.96270 
175 ,37.3147 ,1.26745 ,2.10906 ,20.69408 
176 ,37.5385 ,1.26971 ,2.08852 ,20.49261 
177 ,37.7468 ,1.27173 ,2.10221 ,20.62692 
178 ,37.9548 ,1.27380 ,2.06457 ,20.25756 
179 ,38.1470 ,1.27592 ,2.04746 ,20.08967 
180 ,38.3711 ,1.27794 ,2.03035 ,19.92178 
181 ,38.6112 ,1.28026 ,2.00982 ,19.72031 
182 ,38.8194 ,1.28239 ,1.99613 ,19.58599 
183 ,39.0274 ,1.28453 ,1.99955 ,19.61957 
184 ,39.2516 ,1.28683 ,1.98928 ,19.51884 
185 ,39.4596 ,1.28883 ,1.96190 ,19.25021 
186 ,39.6678 ,1.29090 ,1.94822 ,19.11590 
187 ,39.8919 ,1.29317 ,1.93453 ,18.98158 
188 ,40.1316 ,1.29543 ,1.90031 ,18.64580 
189 ,40.3397 ,1.29765 ,1.88319 ,18.47791 
190 ,40.5477 ,1.29973 ,1.89004 ,18.54507 
191 ,40.7559 ,1.30183 ,1.85924 ,18.24286 
192 ,40.9961 ,1.30426 ,1.84213 ,18.07497 
193 ,41.2044 ,1.30631 ,1.84213 ,18.07497 
194 ,41.4285 ,1.30849 ,1.81817 ,17.83992 
195 ,41.6362 ,1.31058 ,1.78737 ,17.53772 
196 ,41.8447 ,1.31265 ,1.77711 ,17.43698 
197 ,42.0687 ,1.31492 ,1.78395 ,17.50414 
198 ,42.2768 ,1.31697 ,1.73604 ,17.03404 
199 ,42.5011 ,1.31923 ,1.71551 ,16.83257 
200 ,42.7245 ,1.32148 ,1.72235 ,16.89973 
201 ,42.9332 ,1.32350 ,1.71551 ,16.83257 
202 ,43.1409 ,1.32565 ,1.67786 ,16.46321 
203 ,43.3334 ,1.32760 ,1.68129 ,16.49679 
204 ,43.5413 ,1.32970 ,1.65049 ,16.19458 
205 ,43.7494 ,1.33170 ,1.64707 ,16.16101 
206 ,43.9896 ,1.33406 ,1.62311 ,15.92596 
207 ,44.2138 ,1.33636 ,1.62311 ,15.92596 
208 ,44.4216 ,1.33852 ,1.57862 ,15.48944 
209 ,44.6300 ,1.34049 ,1.58204 ,15.52302 
210 ,44.8541 ,1.34277 ,1.55809 ,15.28797 
211 ,45.0942 ,1.34503 ,1.52045 ,14.91861 
212 ,45.3182 ,1.34738 ,1.51018 ,14.81787 
213 ,45.5262 ,1.34964 ,1.50333 ,14.75072 
214 ,45.7344 ,1.35153 ,1.48965 ,14.61640 
215 ,45.9422 ,1.35366 ,1.47596 ,14.48209 
216 ,46.1504 ,1.35575 ,1.47253 ,14.44851 
217 ,46.3747 ,1.35793 ,1.43831 ,14.11273 
218 ,46.5828 ,1.36003 ,1.43147 ,14.04557 
219 ,46.7910 ,1.36213 ,1.42462 ,13.97842 
220 ,46.9990 ,1.36418 ,1.40409 ,13.77695 
221 ,47.2229 ,1.36641 ,1.37329 ,13.47474 
222 ,47.4151 ,1.36847 ,1.37671 ,13.50832 
223 ,47.6068 ,1.37028 ,1.36303 ,13.37401 
224 ,47.8154 ,1.37236 ,1.35960 ,13.34043 
225 ,48.0234 ,1.37445 ,1.31169 ,12.87033 
226 ,48.2471 ,1.37668 ,1.30827 ,12.83675 
227 ,48.4553 ,1.37879 ,1.29458 ,12.70244 
228 ,48.6793 ,1.38102 ,1.26036 ,12.36666 
229 ,48.8557 ,1.38293 ,1.27747 ,12.53455 
230 ,49.0640 ,1.38485 ,1.23983 ,12.16519 
231 ,49.2720 ,1.38694 ,1.25009 ,12.26592 
232 ,49.4801 ,1.38904 ,1.20218 ,11.79583 
233 ,49.6878 ,1.39118 ,1.18850 ,11.66151 
234 ,49.8961 ,1.39313 ,1.19534 ,11.72867 
235 ,50.0883 ,1.39513 ,1.17481 ,11.52720 
236 ,50.3122 ,1.39730 ,1.18165 ,11.59436 
237 ,50.5040 ,1.39925 ,1.13716 ,11.15784 
238 ,50.7126 ,1.40128 ,1.15770 ,11.35931 
239 ,50.9207 ,1.40338 ,1.10636 ,10.85563 
240 ,51.1288 ,1.40545 ,1.11663 ,10.95637 
241 ,51.3526 ,1.40772 ,1.09267 ,10.72132 
242 ,51.5605 ,1.40978 ,1.06872 ,10.48627 
243 ,51.8651 ,1.41239 ,1.04819 ,10.28480 
244 ,52.0731 ,1.41492 ,1.05161 ,10.31838 
245 ,52.2652 ,1.41688 ,1.00712 ,9.88186 
246 ,52.4733 ,1.41892 ,1.02423 ,10.04976 
247 ,52.6809 ,1.42100 ,0.99001 ,9.71397 
248 ,52.8892 ,1.42310 ,0.98317 ,9.64682 
249 ,53.1135 ,1.42534 ,0.97974 ,9.61324 
250 ,53.3217 ,1.42740 ,0.95237 ,9.34461 
251 ,53.5298 ,1.42948 ,0.92499 ,9.07598 
252 ,53.7534 ,1.43173 ,0.94210 ,9.24388 
253 ,53.9780 ,1.43394 ,0.90446 ,8.87451 
254 ,54.2021 ,1.43619 ,0.87708 ,8.60589 
255 ,54.4259 ,1.43849 ,0.85654 ,8.40442 
256 ,54.6340 ,1.44055 ,0.87366 ,8.57231 
257 ,54.8259 ,1.44257 ,0.84286 ,8.27011 
258 ,55.0342 ,1.44451 ,0.84628 ,8.30368 
259 ,55.2426 ,1.44661 ,0.81206 ,7.96790 
260 ,55.4664 ,1.44881 ,0.79837 ,7.83359 
261 ,55.6747 ,1.45092 ,0.80179 ,7.86717 
262 ,55.8828 ,1.45304 ,0.77099 ,7.56496 
263 ,56.1069 ,1.45521 ,0.74361 ,7.29633 
264 ,56.3309 ,1.45744 ,0.75046 ,7.36349 
265 ,56.5551 ,1.45976 ,0.73335 ,7.19560 
266 ,56.7628 ,1.46178 ,0.70597 ,6.92697 
267 ,56.9713 ,1.46394 ,0.69228 ,6.79266 
268 ,57.1793 ,1.46597 ,0.70597 ,6.92697 
269 ,57.3553 ,1.46789 ,0.67859 ,6.65835 
270 ,57.5634 ,1.46980 ,0.66148 ,6.49046 
271 ,57.7715 ,1.47185 ,0.64437 ,6.32256 
272 ,57.9635 ,1.47397 ,0.64437 ,6.32256 
273 ,58.1715 ,1.47586 ,0.61699 ,6.05394 
274 ,58.3957 ,1.47812 ,0.61699 ,6.05394 
275 ,58.6039 ,1.48028 ,0.57935 ,5.68458 
276 ,58.7961 ,1.48225 ,0.56908 ,5.58384 
277 ,59.0041 ,1.48419 ,0.56566 ,5.55026 
278 ,59.2122 ,1.48630 ,0.55197 ,5.41595 
279 ,59.4200 ,1.48838 ,0.54513 ,5.34879 
280 ,59.6281 ,1.49055 ,0.51091 ,5.01301 
281 ,59.8524 ,1.49264 ,0.50748 ,4.97943 
282 ,60.0606 ,1.49477 ,0.50406 ,4.94585 
283 ,60.2847 ,1.49701 ,0.49037 ,4.81154 
284 ,60.4922 ,1.49917 ,0.45615 ,4.47576 
285 ,60.6849 ,1.50106 ,0.46300 ,4.54291 
286 ,60.9089 ,1.50318 ,0.43904 ,4.30787 
287 ,61.1171 ,1.50528 ,0.44588 ,4.37502 
288 ,61.3411 ,1.50759 ,0.43220 ,4.24071 
289 ,61.5329 ,1.50959 ,0.39797 ,3.90493 
290 ,61.7412 ,1.51157 ,0.39455 ,3.87135 
291 ,61.9333 ,1.51354 ,0.36375 ,3.56914 
292 ,62.1412 ,1.51555 ,0.37402 ,3.66988 
293 ,62.3495 ,1.51764 ,0.33295 ,3.26694 
294 ,62.5575 ,1.51972 ,0.34664 ,3.40125 
295 ,62.7816 ,1.52197 ,0.33295 ,3.26694 
296 ,63.0216 ,1.52424 ,0.29873 ,2.93116 
297 ,63.2778 ,1.52688 ,0.29873 ,2.93116 
298 ,63.4700 ,1.52892 ,0.26109 ,2.56179 
299 ,63.6781 ,1.53093 ,0.26451 ,2.59537 
300 ,63.8860 ,1.53301 ,0.25082 ,2.46106 
301 ,64.0782 ,1.53494 ,0.24398 ,2.39390 
302 ,64.3025 ,1.53720 ,0.24055 ,2.36032 
303 ,64.5104 ,1.53919 ,0.19607 ,1.92381 
304 ,64.7025 ,1.54122 ,0.20633 ,2.02454 
305 ,64.9102 ,1.54325 ,0.16869 ,1.65518 
306 ,65.1027 ,1.54534 ,0.18922 ,1.85665 
307 ,65.3268 ,1.54741 ,0.16527 ,1.62160 
308 ,65.5349 ,1.54948 ,0.14131 ,1.38655 
309 ,65.7426 ,1.55157 ,0.15158 ,1.48729 
310 ,65.9508 ,1.55365 ,0.10025 ,0.98361 
311 ,66.1590 ,1.55578 ,0.11051 ,1.08435 
312 ,66.3832 ,1.55797 ,0.12078 ,1.18508 
313 ,66.5913 ,1.56005 ,0.07287 ,0.71499 
314 ,66.8153 ,1.56222 ,0.07287 ,0.71499 
315 ,67.0233 ,1.56434 ,0.06260 ,0.61425 
316 ,67.2315 ,1.56644 ,0.03180 ,0.31205 
317 ,67.4392 ,1.56867 ,0.01811 ,0.17773 
318 ,67.6476 ,1.57057 ,0.02154 ,0.21131 
319 ,67.8719 ,1.57279 ,-0.00926 ,-0.09089 
320 ,68.0961 ,1.57508 ,-0.01953 ,-0.19163 
321 ,68.3040 ,1.57728 ,-0.01269 ,-0.12447 
322 ,68.4960 ,1.57915 ,-0.04348 ,-0.42667 
323 ,68.6879 ,1.58104 ,-0.02637 ,-0.25878 
324 ,68.8960 ,1.58307 ,-0.07086 ,-0.69530 
325 ,69.1041 ,1.58515 ,-0.06060 ,-0.59457 
326 ,69.3120 ,1.58726 ,-0.09824 ,-0.96393 
327 ,69.5043 ,1.58933 ,-0.08455 ,-0.82961 
328 ,69.7286 ,1.59136 ,-0.10166 ,-0.99751 
329 ,69.9367 ,1.59352 ,-0.13246 ,-1.29971 
330 ,70.1447 ,1.59556 ,-0.11877 ,-1.16540 
331 ,70.3689 ,1.59776 ,-0.14273 ,-1.40045 
332 ,70.5930 ,1.60008 ,-0.16668 ,-1.63549 
333 ,70.8010 ,1.60219 ,-0.17011 ,-1.66907 
334 ,71.0091 ,1.60419 ,-0.17695 ,-1.73623 
335 ,71.1852 ,1.60611 ,-0.19748 ,-1.93770 
336 ,71.4093 ,1.60824 ,-0.20090 ,-1.97128 
337 ,71.6008 ,1.61023 ,-0.22828 ,-2.23990 
338 ,71.8092 ,1.61222 ,-0.22486 ,-2.20632 
339 ,72.0334 ,1.61439 ,-0.25908 ,-2.54211 
340 ,72.2416 ,1.61652 ,-0.25224 ,-2.47495 
341 ,72.4658 ,1.61876 ,-0.26250 ,-2.57569 
342 ,72.6735 ,1.62088 ,-0.30357 ,-2.97863 
343 ,72.9139 ,1.62313 ,-0.30357 ,-2.97863 
344 ,73.1219 ,1.62536 ,-0.31384 ,-3.07936 
345 ,73.3298 ,1.62739 ,-0.31041 ,-3.04578 
346 ,73.5541 ,1.62965 ,-0.33437 ,-3.28083 
347 ,73.7779 ,1.63187 ,-0.35148 ,-3.44872 
348 ,74.0183 ,1.63421 ,-0.35490 ,-3.48230 
349 ,74.2421 ,1.63651 ,-0.36859 ,-3.61661 
350 ,74.4825 ,1.63872 ,-0.38912 ,-3.81808 
351 ,74.6905 ,1.64105 ,-0.39255 ,-3.85166 
352 ,74.9144 ,1.64323 ,-0.42335 ,-4.15387 
353 ,75.1226 ,1.64538 ,-0.41308 ,-4.05313 
354 ,75.3466 ,1.64758 ,-0.42335 ,-4.15387 
355 ,75.5548 ,1.64976 ,-0.42677 ,-4.18744 
356 ,75.7629 ,1.65170 ,-0.46783 ,-4.59038 
357 ,75.9710 ,1.65380 ,-0.46783 ,-4.59038 
358 ,76.1631 ,1.65581 ,-0.48494 ,-4.75828 
359 ,76.3712 ,1.65777 ,-0.48837 ,-4.79185 
360 ,76.5633 ,1.65975 ,-0.50206 ,-4.92617 
361 ,76.7872 ,1.66196 ,-0.51574 ,-5.06048 
362 ,76.9955 ,1.66408 ,-0.52943 ,-5.19479 
363 ,77.2032 ,1.66613 ,-0.54654 ,-5.36268 
364 ,77.4117 ,1.66826 ,-0.53970 ,-5.29553 
365 ,77.6355 ,1.67043 ,-0.57050 ,-5.59773 
366 ,77.8437 ,1.67252 ,-0.58077 ,-5.69847 
367 ,78.0520 ,1.67456 ,-0.57392 ,-5.63131 
368 ,78.2757 ,1.67680 ,-0.60472 ,-5.93352 
369 ,78.4839 ,1.67897 ,-0.60130 ,-5.89994 
370 ,78.7081 ,1.68116 ,-0.62183 ,-6.10141 
371 ,78.9158 ,1.68323 ,-0.63552 ,-6.23572 
372 ,79.1238 ,1.68527 ,-0.64921 ,-6.37003 
373 ,79.3479 ,1.68756 ,-0.64236 ,-6.30288 
374 ,79.5719 ,1.68979 ,-0.67316 ,-6.60508 
375 ,79.7804 ,1.69189 ,-0.69370 ,-6.80655 
376 ,80.0047 ,1.69410 ,-0.69370 ,-6.80655 
377 ,80.2128 ,1.69619 ,-0.70054 ,-6.87371 
378 ,80.4208 ,1.69830 ,-0.72450 ,-7.10876 
379 ,80.6124 ,1.70031 ,-0.71423 ,-7.00802 
380 ,80.8210 ,1.70225 ,-0.76556 ,-7.51170 
381 ,81.0451 ,1.70452 ,-0.75187 ,-7.37738 
382 ,81.2370 ,1.70661 ,-0.75530 ,-7.41096 
383 ,81.4451 ,1.70852 ,-0.77583 ,-7.61243 
384 ,81.6369 ,1.71059 ,-0.77583 ,-7.61243 
385 ,81.8452 ,1.71256 ,-0.79294 ,-7.78032 
386 ,82.0534 ,1.71470 ,-0.79294 ,-7.78032 
387 ,82.2292 ,1.71652 ,-0.82374 ,-8.08253 
388 ,82.4377 ,1.71847 ,-0.82032 ,-8.04895 
389 ,82.6457 ,1.72056 ,-0.83058 ,-8.14968 
390 ,82.8379 ,1.72261 ,-0.82374 ,-8.08253 
391 ,83.0458 ,1.72452 ,-0.85454 ,-8.38473 
392 ,83.2540 ,1.72656 ,-0.85112 ,-8.35115 
393 ,83.4781 ,1.72882 ,-0.87165 ,-8.55262 
394 ,83.6860 ,1.73091 ,-0.89560 ,-8.78767 
395 ,83.8939 ,1.73299 ,-0.89218 ,-8.75409 
396 ,84.1024 ,1.73515 ,-0.91956 ,-9.02272 
397 ,84.3106 ,1.73714 ,-0.91614 ,-8.98914 
398 ,84.5026 ,1.73920 ,-0.92298 ,-9.05630 
399 ,84.7108 ,1.74123 ,-0.93667 ,-9.19061 
400 ,84.9343 ,1.74338 ,-0.94351 ,-9.25777 
401 ,85.1589 ,1.74557 ,-0.97431 ,-9.55997 
402 ,85.4149 ,1.74803 ,-0.98458 ,-9.66071 
403 ,85.6231 ,1.75032 ,-0.99827 ,-9.79502 
404 ,85.8311 ,1.75238 ,-0.98800 ,-9.69429 
405 ,86.0392 ,1.75445 ,-1.00854 ,-9.89576 
406 ,86.2473 ,1.75657 ,-1.01880 ,-9.99649 
407 ,86.4712 ,1.75875 ,-1.02222 ,-10.03007 
408 ,86.6955 ,1.76103 ,-1.02222 ,-10.03007 
409 ,86.9197 ,1.76322 ,-1.04618 ,-10.26512 
410 ,87.1436 ,1.76552 ,-1.07014 ,-10.50016 
411 ,87.3517 ,1.76761 ,-1.06671 ,-10.46659 
412 ,87.5758 ,1.76978 ,-1.06671 ,-10.46659 
413 ,87.7841 ,1.77189 ,-1.11462 ,-10.93668 
414 ,87.9921 ,1.77401 ,-1.10436 ,-10.83595 
415 ,88.2003 ,1.77605 ,-1.11805 ,-10.97026 
416 ,88.4242 ,1.77828 ,-1.14200 ,-11.20531 
417 ,88.6480 ,1.78052 ,-1.15569 ,-11.33962 
418 ,88.8400 ,1.78255 ,-1.14542 ,-11.23889 
419 ,89.0325 ,1.78443 ,-1.15569 ,-11.33962 
420 ,89.2407 ,1.78642 ,-1.16938 ,-11.47394 
421 ,89.4642 ,1.78867 ,-1.19333 ,-11.70898 
422 ,89.6888 ,1.79093 ,-1.20018 ,-11.77614 
423 ,89.9128 ,1.79317 ,-1.20018 ,-11.77614 
424 ,90.1210 ,1.79523 ,-1.21729 ,-11.94403 
425 ,90.3288 ,1.79734 ,-1.23098 ,-12.07834 
426 ,90.5369 ,1.79940 ,-1.23782 ,-12.14550 
427 ,90.7612 ,1.80166 ,-1.26178 ,-12.38055 
428 ,90.9853 ,1.80386 ,-1.26862 ,-12.44771 
429 ,91.2090 ,1.80612 ,-1.26520 ,-12.41413 
430 ,91.4334 ,1.80835 ,-1.26862 ,-12.44771 
431 ,91.6412 ,1.81046 ,-1.29258 ,-12.68275 
432 ,91.8494 ,1.81256 ,-1.28573 ,-12.61560 
433 ,92.0577 ,1.81460 ,-1.29942 ,-12.74991 
434 ,92.2819 ,1.81683 ,-1.33022 ,-13.05212 
435 ,92.4900 ,1.81894 ,-1.32680 ,-13.01854 
436 ,92.6981 ,1.82108 ,-1.33706 ,-13.11927 
437 ,92.9060 ,1.82311 ,-1.36102 ,-13.35432 
438 ,93.1142 ,1.82520 ,-1.34049 ,-13.15285 
439 ,93.3062 ,1.82710 ,-1.36786 ,-13.42148 
440 ,93.5144 ,1.82912 ,-1.36102 ,-13.35432 
441 ,93.7224 ,1.83124 ,-1.38840 ,-13.62295 
442 ,93.9301 ,1.83333 ,-1.39182 ,-13.65653 
443 ,94.1386 ,1.83540 ,-1.39524 ,-13.69010 
444 ,94.3466 ,1.83758 ,-1.43288 ,-14.05946 
445 ,94.5387 ,1.83945 ,-1.41920 ,-13.92515 
446 ,94.7629 ,1.84164 ,-1.44657 ,-14.19378 
447 ,94.9705 ,1.84372 ,-1.44315 ,-14.16020 
448 ,95.1790 ,1.84585 ,-1.46368 ,-14.36167 
449 ,95.4032 ,1.84804 ,-1.48422 ,-14.56314 
450 ,95.6114 ,1.85010 ,-1.48080 ,-14.52956 
451 ,95.8352 ,1.85231 ,-1.48080 ,-14.52956 
452 ,96.0435 ,1.85445 ,-1.50817 ,-14.79819 
453 ,96.2674 ,1.85677 ,-1.51502 ,-14.86534 
454 ,96.4756 ,1.85886 ,-1.51159 ,-14.83177 
455 ,96.6677 ,1.86077 ,-1.53897 ,-15.10039 
456 ,96.8757 ,1.86277 ,-1.51502 ,-14.86534 
457 ,97.0678 ,1.86472 ,-1.55266 ,-15.23471 
458 ,97.2915 ,1.86690 ,-1.54582 ,-15.16755 
459 ,97.4840 ,1.86894 ,-1.57319 ,-15.43617 
460 ,97.6923 ,1.87095 ,-1.56635 ,-15.36902 
