Data stamp = , 19-05-2022 12:48:05 740

Calibration Values: 
Slope = , 26.54 , g/V 
Offset Voltage at no contact = , -0.501760 , V 

No , Time , Stage Position ,   Mass , Force 
   ,  (s) ,      (mm)      ,   (g)  , (mN)  

1 ,0.0000 ,0.89975 ,5.29852 ,51.98905 
2 ,0.2541 ,0.89988 ,5.29852 ,51.98905 
3 ,0.6866 ,0.90138 ,5.28825 ,51.88832 
4 ,0.9427 ,0.90376 ,5.28483 ,51.85474 
5 ,1.1671 ,0.90605 ,5.29167 ,51.92190 
6 ,1.3750 ,0.90814 ,5.29167 ,51.92190 
7 ,1.5988 ,0.91046 ,5.30194 ,52.02263 
8 ,1.8072 ,0.91253 ,5.26430 ,51.65327 
9 ,2.0154 ,0.91462 ,5.25745 ,51.58611 
10 ,2.2234 ,0.91673 ,5.21981 ,51.21675 
11 ,2.4312 ,0.91878 ,5.20270 ,51.04886 
12 ,2.6393 ,0.92088 ,5.19927 ,51.01528 
13 ,2.8477 ,0.92291 ,5.15136 ,50.54519 
14 ,3.0554 ,0.92507 ,5.14794 ,50.51161 
15 ,3.2474 ,0.92709 ,5.12399 ,50.27656 
16 ,3.4558 ,0.92897 ,5.10345 ,50.07509 
17 ,3.6800 ,0.93126 ,5.08292 ,49.87362 
18 ,3.8881 ,0.93336 ,5.05897 ,49.63857 
19 ,4.0801 ,0.93537 ,5.04528 ,49.50426 
20 ,4.2882 ,0.93733 ,5.03159 ,49.36995 
21 ,4.4964 ,0.93942 ,5.01448 ,49.20205 
22 ,4.7200 ,0.94167 ,4.98710 ,48.93343 
23 ,4.9286 ,0.94377 ,4.94603 ,48.53049 
24 ,5.1206 ,0.94582 ,4.94603 ,48.53049 
25 ,5.3123 ,0.94766 ,4.89470 ,48.02681 
26 ,5.5207 ,0.94970 ,4.89470 ,48.02681 
27 ,5.7288 ,0.95177 ,4.87759 ,47.85892 
28 ,5.9370 ,0.95385 ,4.86732 ,47.75819 
29 ,6.1449 ,0.95587 ,4.82284 ,47.32167 
30 ,6.3372 ,0.95785 ,4.84337 ,47.52314 
31 ,6.5612 ,0.96006 ,4.79888 ,47.08662 
32 ,6.7853 ,0.96229 ,4.76466 ,46.75084 
33 ,6.9773 ,0.96435 ,4.75782 ,46.68368 
34 ,7.1854 ,0.96630 ,4.72017 ,46.31432 
35 ,7.3935 ,0.96843 ,4.73386 ,46.44863 
36 ,7.5696 ,0.97031 ,4.67568 ,45.87780 
37 ,7.7779 ,0.97222 ,4.68937 ,46.01212 
38 ,8.0019 ,0.97445 ,4.65173 ,45.64275 
39 ,8.2100 ,0.97656 ,4.63462 ,45.47486 
40 ,8.4180 ,0.97865 ,4.63804 ,45.50844 
41 ,8.6257 ,0.98072 ,4.58671 ,45.00477 
42 ,8.8343 ,0.98289 ,4.59355 ,45.07192 
43 ,9.0583 ,0.98507 ,4.56617 ,44.80330 
44 ,9.2663 ,0.98717 ,4.53537 ,44.50109 
45 ,9.5225 ,0.98967 ,4.51142 ,44.26604 
46 ,9.7302 ,0.99178 ,4.50457 ,44.19889 
47 ,9.9543 ,0.99404 ,4.49089 ,44.06457 
48 ,10.1626 ,0.99608 ,4.46693 ,43.82953 
49 ,10.3707 ,0.99819 ,4.44982 ,43.66163 
50 ,10.5946 ,1.00039 ,4.43271 ,43.49374 
51 ,10.8027 ,1.00248 ,4.38480 ,43.02365 
52 ,11.0270 ,1.00478 ,4.36427 ,42.82218 
53 ,11.2349 ,1.00692 ,4.35742 ,42.75502 
54 ,11.4430 ,1.00888 ,4.32662 ,42.45282 
55 ,11.6674 ,1.01111 ,4.30609 ,42.25135 
56 ,11.8753 ,1.01319 ,4.30951 ,42.28492 
57 ,12.0833 ,1.01530 ,4.27529 ,41.94914 
58 ,12.2755 ,1.01724 ,4.28213 ,42.01630 
59 ,12.4835 ,1.01930 ,4.24449 ,41.64694 
60 ,12.6917 ,1.02135 ,4.22053 ,41.41189 
61 ,12.8838 ,1.02329 ,4.21369 ,41.34473 
62 ,13.0915 ,1.02535 ,4.20000 ,41.21042 
63 ,13.3000 ,1.02746 ,4.17605 ,40.97537 
64 ,13.5083 ,1.02954 ,4.15209 ,40.74032 
65 ,13.7324 ,1.03176 ,4.14525 ,40.67317 
66 ,13.9403 ,1.03386 ,4.12129 ,40.43812 
67 ,14.1484 ,1.03591 ,4.08707 ,40.10233 
68 ,14.3723 ,1.03822 ,4.07680 ,40.00160 
69 ,14.5965 ,1.04039 ,4.06654 ,39.90087 
70 ,14.8207 ,1.04265 ,4.02889 ,39.53150 
71 ,15.0285 ,1.04475 ,4.01520 ,39.39719 
72 ,15.2367 ,1.04692 ,3.99809 ,39.22930 
73 ,15.4446 ,1.04899 ,3.97414 ,38.99425 
74 ,15.6528 ,1.05093 ,3.96045 ,38.85994 
75 ,15.8608 ,1.05300 ,3.93992 ,38.65847 
76 ,16.0847 ,1.05531 ,3.91596 ,38.42342 
77 ,16.2931 ,1.05734 ,3.91254 ,38.38984 
78 ,16.5172 ,1.05954 ,3.90570 ,38.32268 
79 ,16.7255 ,1.06168 ,3.87147 ,37.98690 
80 ,16.9333 ,1.06374 ,3.86121 ,37.88617 
81 ,17.1415 ,1.06587 ,3.82356 ,37.51681 
82 ,17.3337 ,1.06785 ,3.81330 ,37.41607 
83 ,17.5413 ,1.06983 ,3.78934 ,37.18102 
84 ,17.7813 ,1.07218 ,3.76539 ,36.94597 
85 ,18.0054 ,1.07448 ,3.74485 ,36.74450 
86 ,18.2295 ,1.07671 ,3.73459 ,36.64377 
87 ,18.4375 ,1.07891 ,3.73117 ,36.61019 
88 ,18.6456 ,1.08095 ,3.69010 ,36.20725 
89 ,18.9182 ,1.08349 ,3.66957 ,36.00578 
90 ,19.1902 ,1.08633 ,3.64903 ,35.80431 
91 ,19.4143 ,1.08859 ,3.64561 ,35.77073 
92 ,19.6381 ,1.09089 ,3.61139 ,35.43495 
93 ,19.8463 ,1.09298 ,3.57375 ,35.06559 
94 ,20.1188 ,1.09547 ,3.56690 ,34.99843 
95 ,20.3590 ,1.09799 ,3.56006 ,34.93128 
96 ,20.5829 ,1.10027 ,3.51215 ,34.46118 
97 ,20.7911 ,1.10234 ,3.51215 ,34.46118 
98 ,20.9991 ,1.10445 ,3.49504 ,34.29329 
99 ,21.1912 ,1.10642 ,3.47108 ,34.05824 
100 ,21.3994 ,1.10841 ,3.47792 ,34.12540 
101 ,21.6233 ,1.11067 ,3.42659 ,33.62172 
102 ,21.8317 ,1.11268 ,3.43344 ,33.68888 
103 ,22.0392 ,1.11478 ,3.39579 ,33.31952 
104 ,22.2477 ,1.11687 ,3.37526 ,33.11805 
105 ,22.4717 ,1.11911 ,3.36842 ,33.05089 
106 ,22.6801 ,1.12118 ,3.34104 ,32.78227 
107 ,22.9038 ,1.12347 ,3.30339 ,32.41290 
108 ,23.1117 ,1.12554 ,3.32735 ,32.64795 
109 ,23.3201 ,1.12770 ,3.27944 ,32.17786 
110 ,23.5281 ,1.12966 ,3.27259 ,32.11070 
111 ,23.7204 ,1.13165 ,3.25206 ,31.90923 
112 ,23.9444 ,1.13380 ,3.23153 ,31.70776 
113 ,24.1525 ,1.13590 ,3.23495 ,31.74134 
114 ,24.3604 ,1.13802 ,3.18704 ,31.27124 
115 ,24.5687 ,1.14009 ,3.18704 ,31.27124 
116 ,24.7769 ,1.14211 ,3.16993 ,31.10335 
117 ,24.9848 ,1.14427 ,3.14940 ,30.90188 
118 ,25.1930 ,1.14635 ,3.13913 ,30.80115 
119 ,25.4007 ,1.14836 ,3.10491 ,30.46536 
120 ,25.6090 ,1.15048 ,3.10833 ,30.49894 
121 ,25.8172 ,1.15266 ,3.09122 ,30.33105 
122 ,26.0249 ,1.15465 ,3.05700 ,29.99527 
123 ,26.2013 ,1.15657 ,3.06384 ,30.06242 
124 ,26.4093 ,1.15854 ,3.03989 ,29.82737 
125 ,26.6335 ,1.16077 ,3.02278 ,29.65948 
126 ,26.8415 ,1.16287 ,2.99198 ,29.35728 
127 ,27.0497 ,1.16500 ,2.97144 ,29.15581 
128 ,27.2580 ,1.16690 ,2.94749 ,28.92076 
129 ,27.4659 ,1.16912 ,2.92696 ,28.71929 
130 ,27.6736 ,1.17107 ,2.94407 ,28.88718 
131 ,27.8501 ,1.17303 ,2.89958 ,28.45066 
132 ,28.0583 ,1.17498 ,2.88931 ,28.34993 
133 ,28.2823 ,1.17717 ,2.86536 ,28.11488 
134 ,28.4744 ,1.17915 ,2.86193 ,28.08130 
135 ,28.6981 ,1.18136 ,2.84482 ,27.91341 
136 ,28.9065 ,1.18351 ,2.82771 ,27.74552 
137 ,29.1306 ,1.18563 ,2.82429 ,27.71194 
138 ,29.3387 ,1.18778 ,2.78665 ,27.34258 
139 ,29.5626 ,1.18998 ,2.76269 ,27.10753 
140 ,29.7707 ,1.19209 ,2.75927 ,27.07395 
141 ,29.9950 ,1.19438 ,2.73189 ,26.80533 
142 ,30.2030 ,1.19643 ,2.70109 ,26.50312 
143 ,30.4271 ,1.19864 ,2.69425 ,26.43597 
144 ,30.6514 ,1.20087 ,2.69083 ,26.40239 
145 ,30.8750 ,1.20310 ,2.67029 ,26.20092 
146 ,31.0832 ,1.20525 ,2.64634 ,25.96587 
147 ,31.2916 ,1.20731 ,2.64976 ,25.99945 
148 ,31.4997 ,1.20945 ,2.61896 ,25.69724 
149 ,31.7397 ,1.21156 ,2.59501 ,25.46220 
150 ,31.9638 ,1.21401 ,2.57789 ,25.29430 
151 ,32.1717 ,1.21608 ,2.56763 ,25.19357 
152 ,32.3799 ,1.21821 ,2.52314 ,24.75705 
153 ,32.5882 ,1.22025 ,2.52314 ,24.75705 
154 ,32.7960 ,1.22234 ,2.50603 ,24.58916 
155 ,33.0203 ,1.22457 ,2.47181 ,24.25338 
156 ,33.2284 ,1.22665 ,2.47523 ,24.28696 
157 ,33.4365 ,1.22868 ,2.45812 ,24.11906 
158 ,33.6446 ,1.23077 ,2.43074 ,23.85044 
159 ,33.8527 ,1.23289 ,2.43416 ,23.88402 
160 ,34.0766 ,1.23509 ,2.41021 ,23.64897 
161 ,34.2844 ,1.23719 ,2.37941 ,23.34676 
162 ,34.4926 ,1.23929 ,2.38283 ,23.38034 
163 ,34.7009 ,1.24143 ,2.34861 ,23.04456 
164 ,34.8931 ,1.24337 ,2.34861 ,23.04456 
165 ,35.1011 ,1.24535 ,2.30412 ,22.60804 
166 ,35.3092 ,1.24743 ,2.31781 ,22.74235 
167 ,35.5494 ,1.24971 ,2.28017 ,22.37299 
168 ,35.7732 ,1.25208 ,2.28017 ,22.37299 
169 ,35.9816 ,1.25420 ,2.23910 ,21.97005 
170 ,36.2056 ,1.25643 ,2.22541 ,21.83574 
171 ,36.4298 ,1.25863 ,2.23910 ,21.97005 
172 ,36.6698 ,1.26093 ,2.20830 ,21.66785 
173 ,36.8938 ,1.26326 ,2.18435 ,21.43280 
174 ,37.1021 ,1.26535 ,2.15012 ,21.09702 
175 ,37.3262 ,1.26762 ,2.13986 ,20.99628 
176 ,37.5343 ,1.26974 ,2.14328 ,21.02986 
177 ,37.7419 ,1.27182 ,2.11248 ,20.72766 
178 ,37.9664 ,1.27405 ,2.09879 ,20.59334 
179 ,38.1744 ,1.27612 ,2.08510 ,20.45903 
180 ,38.3987 ,1.27832 ,2.04404 ,20.05609 
181 ,38.6067 ,1.28042 ,2.04746 ,20.08967 
182 ,38.8145 ,1.28253 ,2.02008 ,19.82104 
183 ,39.0225 ,1.28456 ,2.00297 ,19.65315 
184 ,39.2309 ,1.28664 ,2.00982 ,19.72031 
185 ,39.4389 ,1.28873 ,1.97902 ,19.41810 
186 ,39.6632 ,1.29093 ,1.95164 ,19.14948 
187 ,39.8707 ,1.29313 ,1.94137 ,19.04874 
188 ,40.0792 ,1.29510 ,1.92426 ,18.88085 
189 ,40.2874 ,1.29728 ,1.93111 ,18.94801 
190 ,40.5112 ,1.29947 ,1.91057 ,18.74654 
191 ,40.7196 ,1.30154 ,1.87635 ,18.41075 
192 ,40.9273 ,1.30364 ,1.89004 ,18.54507 
193 ,41.1358 ,1.30571 ,1.84555 ,18.10855 
194 ,41.3599 ,1.30795 ,1.83186 ,17.97423 
195 ,41.5839 ,1.31014 ,1.80791 ,17.73919 
196 ,41.7920 ,1.31225 ,1.80791 ,17.73919 
197 ,42.0158 ,1.31447 ,1.77711 ,17.43698 
198 ,42.2401 ,1.31676 ,1.75657 ,17.23551 
199 ,42.4640 ,1.31899 ,1.74289 ,17.10120 
200 ,42.7204 ,1.32155 ,1.71893 ,16.86615 
201 ,42.9445 ,1.32378 ,1.71209 ,16.79899 
202 ,43.1682 ,1.32604 ,1.71209 ,16.79899 
203 ,43.3923 ,1.32826 ,1.68129 ,16.49679 
204 ,43.6007 ,1.33031 ,1.65391 ,16.22816 
205 ,43.8090 ,1.33242 ,1.66418 ,16.32890 
206 ,44.0330 ,1.33467 ,1.62995 ,15.99311 
207 ,44.2409 ,1.33675 ,1.61284 ,15.82522 
208 ,44.4808 ,1.33910 ,1.60600 ,15.75807 
209 ,44.6730 ,1.34118 ,1.58204 ,15.52302 
210 ,44.8974 ,1.34323 ,1.56836 ,15.38871 
211 ,45.1211 ,1.34557 ,1.54098 ,15.12008 
212 ,45.3297 ,1.34758 ,1.54098 ,15.12008 
213 ,45.5372 ,1.34971 ,1.51360 ,14.85145 
214 ,45.7457 ,1.35175 ,1.51702 ,14.88503 
215 ,45.9698 ,1.35391 ,1.48280 ,14.54925 
216 ,46.1779 ,1.35605 ,1.45885 ,14.31420 
217 ,46.4020 ,1.35834 ,1.45542 ,14.28062 
218 ,46.6101 ,1.36038 ,1.44174 ,14.14631 
219 ,46.8182 ,1.36249 ,1.41436 ,13.87768 
220 ,47.0263 ,1.36456 ,1.41778 ,13.91126 
221 ,47.2345 ,1.36666 ,1.39725 ,13.70979 
222 ,47.4582 ,1.36885 ,1.36987 ,13.44116 
223 ,47.6659 ,1.37101 ,1.37671 ,13.50832 
224 ,47.8744 ,1.37303 ,1.33907 ,13.13896 
225 ,48.0664 ,1.37499 ,1.34249 ,13.17254 
226 ,48.2747 ,1.37708 ,1.30485 ,12.80318 
227 ,48.4989 ,1.37933 ,1.29800 ,12.73602 
228 ,48.7228 ,1.38153 ,1.29800 ,12.73602 
229 ,48.9468 ,1.38380 ,1.28089 ,12.56813 
230 ,49.1713 ,1.38603 ,1.26378 ,12.40024 
231 ,49.3792 ,1.38807 ,1.25009 ,12.26592 
232 ,49.6030 ,1.39036 ,1.24325 ,12.19877 
233 ,49.8115 ,1.39242 ,1.20561 ,11.82941 
234 ,50.0355 ,1.39469 ,1.18850 ,11.66151 
235 ,50.2597 ,1.39685 ,1.17481 ,11.52720 
236 ,50.4834 ,1.39911 ,1.17823 ,11.56078 
237 ,50.6917 ,1.40119 ,1.13374 ,11.12426 
238 ,50.9161 ,1.40347 ,1.11321 ,10.92279 
239 ,51.1398 ,1.40574 ,1.12690 ,11.05710 
240 ,51.3640 ,1.40788 ,1.09952 ,10.78848 
241 ,51.5881 ,1.41017 ,1.08583 ,10.65416 
242 ,51.7964 ,1.41223 ,1.05161 ,10.31838 
243 ,52.0043 ,1.41441 ,1.06187 ,10.41912 
244 ,52.2284 ,1.41660 ,1.03108 ,10.11691 
245 ,52.4364 ,1.41865 ,1.01739 ,9.98260 
246 ,52.6444 ,1.42072 ,1.03108 ,10.11691 
247 ,52.8524 ,1.42290 ,0.98317 ,9.64682 
248 ,53.0768 ,1.42505 ,0.96948 ,9.51250 
249 ,53.3008 ,1.42728 ,0.96263 ,9.44535 
250 ,53.5089 ,1.42937 ,0.95579 ,9.37819 
251 ,53.7169 ,1.43144 ,0.93183 ,9.14314 
252 ,53.9251 ,1.43352 ,0.91814 ,9.00883 
253 ,54.1808 ,1.43616 ,0.91130 ,8.94167 
254 ,54.3728 ,1.43804 ,0.87708 ,8.60589 
255 ,54.5809 ,1.44012 ,0.88734 ,8.70662 
256 ,54.7733 ,1.44209 ,0.84970 ,8.33726 
257 ,54.9816 ,1.44407 ,0.85997 ,8.43800 
258 ,55.1895 ,1.44619 ,0.82575 ,8.10221 
259 ,55.4133 ,1.44839 ,0.81206 ,7.96790 
260 ,55.6220 ,1.45057 ,0.82917 ,8.13579 
261 ,55.8457 ,1.45278 ,0.80863 ,7.93432 
262 ,56.0540 ,1.45483 ,0.75388 ,7.39707 
263 ,56.2618 ,1.45700 ,0.75388 ,7.39707 
264 ,56.4702 ,1.45901 ,0.74361 ,7.29633 
265 ,56.6942 ,1.46124 ,0.71966 ,7.06129 
266 ,56.9024 ,1.46331 ,0.72650 ,7.12844 
267 ,57.1103 ,1.46541 ,0.68886 ,6.75908 
268 ,57.3186 ,1.46747 ,0.68201 ,6.69193 
269 ,57.5427 ,1.46970 ,0.68886 ,6.75908 
270 ,57.7502 ,1.47191 ,0.65806 ,6.45688 
271 ,57.9583 ,1.47391 ,0.64437 ,6.32256 
272 ,58.1667 ,1.47596 ,0.62384 ,6.12109 
273 ,58.3909 ,1.47815 ,0.61015 ,5.98678 
274 ,58.5990 ,1.48025 ,0.60673 ,5.95320 
275 ,58.8227 ,1.48249 ,0.60330 ,5.91962 
276 ,59.0313 ,1.48456 ,0.55882 ,5.48311 
277 ,59.2553 ,1.48684 ,0.55882 ,5.48311 
278 ,59.4633 ,1.48884 ,0.53144 ,5.21448 
279 ,59.6873 ,1.49112 ,0.52117 ,5.11375 
280 ,59.8952 ,1.49322 ,0.50406 ,4.94585 
281 ,60.1192 ,1.49544 ,0.50406 ,4.94585 
282 ,60.3276 ,1.49752 ,0.48353 ,4.74438 
283 ,60.5199 ,1.49952 ,0.49037 ,4.81154 
284 ,60.7439 ,1.50169 ,0.46300 ,4.54291 
285 ,60.9678 ,1.50392 ,0.42877 ,4.20713 
286 ,61.1921 ,1.50618 ,0.42877 ,4.20713 
287 ,61.4161 ,1.50841 ,0.42535 ,4.17355 
288 ,61.6240 ,1.51048 ,0.40482 ,3.97208 
289 ,61.8326 ,1.51255 ,0.39113 ,3.83777 
290 ,62.0403 ,1.51460 ,0.39113 ,3.83777 
291 ,62.2327 ,1.51665 ,0.35691 ,3.50199 
292 ,62.4242 ,1.51858 ,0.36375 ,3.56914 
293 ,62.6326 ,1.52057 ,0.33295 ,3.26694 
294 ,62.8405 ,1.52266 ,0.33980 ,3.33410 
295 ,63.0649 ,1.52491 ,0.31242 ,3.06547 
296 ,63.2725 ,1.52695 ,0.29531 ,2.89758 
297 ,63.4810 ,1.52909 ,0.30558 ,2.99831 
298 ,63.6890 ,1.53113 ,0.25767 ,2.52822 
299 ,63.9133 ,1.53339 ,0.25767 ,2.52822 
300 ,64.1213 ,1.53545 ,0.24740 ,2.42748 
301 ,64.3449 ,1.53768 ,0.22687 ,2.22601 
302 ,64.5854 ,1.54013 ,0.19264 ,1.89023 
303 ,64.8094 ,1.54237 ,0.18922 ,1.85665 
304 ,65.0016 ,1.54438 ,0.20291 ,1.99096 
305 ,65.2095 ,1.54642 ,0.17211 ,1.68876 
306 ,65.4339 ,1.54854 ,0.17553 ,1.72234 
307 ,65.6580 ,1.55081 ,0.16869 ,1.65518 
308 ,65.8820 ,1.55303 ,0.14131 ,1.38655 
309 ,66.0901 ,1.55514 ,0.11051 ,1.08435 
310 ,66.2983 ,1.55717 ,0.12420 ,1.21866 
311 ,66.4902 ,1.55926 ,0.08656 ,0.84930 
312 ,66.6979 ,1.56119 ,0.09682 ,0.95004 
313 ,66.9065 ,1.56332 ,0.05234 ,0.51352 
314 ,67.1304 ,1.56555 ,0.05234 ,0.51352 
315 ,67.3387 ,1.56759 ,0.05576 ,0.54710 
316 ,67.5788 ,1.56989 ,0.03865 ,0.37920 
317 ,67.7864 ,1.57218 ,0.00443 ,0.04342 
318 ,67.9947 ,1.57422 ,0.01811 ,0.17773 
319 ,68.2031 ,1.57627 ,-0.00584 ,-0.05731 
320 ,68.4112 ,1.57834 ,-0.03322 ,-0.32594 
321 ,68.6353 ,1.58054 ,-0.01611 ,-0.15805 
322 ,68.8590 ,1.58277 ,-0.02295 ,-0.22520 
323 ,69.0831 ,1.58512 ,-0.08113 ,-0.79604 
324 ,69.3075 ,1.58729 ,-0.08113 ,-0.79604 
325 ,69.5314 ,1.58954 ,-0.09482 ,-0.93035 
326 ,69.7238 ,1.59155 ,-0.10851 ,-1.06466 
327 ,69.9478 ,1.59365 ,-0.12562 ,-1.23255 
328 ,70.1718 ,1.59597 ,-0.13588 ,-1.33329 
329 ,70.3800 ,1.59802 ,-0.13588 ,-1.33329 
330 ,70.5880 ,1.60009 ,-0.17011 ,-1.66907 
331 ,70.8121 ,1.60234 ,-0.16326 ,-1.60191 
332 ,71.0201 ,1.60445 ,-0.17011 ,-1.66907 
333 ,71.2121 ,1.60650 ,-0.20090 ,-1.97128 
334 ,71.4205 ,1.60843 ,-0.19406 ,-1.90412 
335 ,71.6289 ,1.61053 ,-0.22144 ,-2.17275 
336 ,71.8368 ,1.61252 ,-0.20775 ,-2.03843 
337 ,72.0442 ,1.61461 ,-0.24197 ,-2.37422 
338 ,72.2363 ,1.61669 ,-0.24539 ,-2.40779 
339 ,72.4607 ,1.61879 ,-0.25224 ,-2.47495 
340 ,72.6528 ,1.62090 ,-0.27961 ,-2.74358 
341 ,72.8608 ,1.62278 ,-0.28988 ,-2.84431 
342 ,73.0846 ,1.62509 ,-0.31384 ,-3.07936 
343 ,73.2926 ,1.62711 ,-0.30357 ,-2.97863 
344 ,73.5166 ,1.62940 ,-0.32068 ,-3.14652 
345 ,73.7089 ,1.63141 ,-0.34806 ,-3.41514 
346 ,73.9008 ,1.63332 ,-0.33437 ,-3.28083 
347 ,74.1089 ,1.63529 ,-0.35832 ,-3.51588 
348 ,74.3010 ,1.63732 ,-0.36175 ,-3.54946 
349 ,74.5092 ,1.63930 ,-0.37886 ,-3.71735 
350 ,74.7173 ,1.64141 ,-0.37544 ,-3.68377 
351 ,74.9094 ,1.64342 ,-0.40623 ,-3.98597 
352 ,75.1175 ,1.64539 ,-0.41650 ,-4.08671 
353 ,75.3096 ,1.64742 ,-0.44046 ,-4.32176 
354 ,75.5176 ,1.64941 ,-0.42677 ,-4.18744 
355 ,75.7419 ,1.65160 ,-0.45414 ,-4.45607 
356 ,75.9499 ,1.65367 ,-0.45757 ,-4.48965 
357 ,76.1418 ,1.65573 ,-0.47126 ,-4.62396 
358 ,76.3500 ,1.65768 ,-0.47810 ,-4.69112 
359 ,76.5580 ,1.65978 ,-0.48837 ,-4.79185 
360 ,76.7502 ,1.66182 ,-0.50890 ,-4.99332 
361 ,76.9423 ,1.66374 ,-0.50890 ,-4.99332 
362 ,77.1504 ,1.66567 ,-0.52601 ,-5.16121 
363 ,77.3585 ,1.66778 ,-0.53628 ,-5.26195 
364 ,77.5505 ,1.66979 ,-0.56365 ,-5.53058 
365 ,77.7586 ,1.67177 ,-0.56023 ,-5.49700 
366 ,77.9832 ,1.67405 ,-0.57050 ,-5.59773 
367 ,78.1912 ,1.67620 ,-0.57734 ,-5.66489 
368 ,78.3992 ,1.67819 ,-0.59788 ,-5.86636 
369 ,78.6074 ,1.68020 ,-0.62525 ,-6.13499 
370 ,78.8151 ,1.68244 ,-0.60814 ,-5.96709 
371 ,79.0234 ,1.68442 ,-0.63894 ,-6.26930 
372 ,79.2319 ,1.68661 ,-0.64236 ,-6.30288 
373 ,79.4396 ,1.68862 ,-0.66632 ,-6.53793 
374 ,79.6479 ,1.69071 ,-0.66974 ,-6.57150 
375 ,79.8718 ,1.69292 ,-0.67316 ,-6.60508 
376 ,80.0954 ,1.69521 ,-0.68343 ,-6.70582 
377 ,80.3196 ,1.69734 ,-0.71081 ,-6.97444 
378 ,80.5441 ,1.69961 ,-0.72450 ,-7.10876 
379 ,80.8163 ,1.70235 ,-0.70739 ,-6.94086 
380 ,81.0244 ,1.70442 ,-0.74845 ,-7.34380 
381 ,81.2482 ,1.70668 ,-0.72792 ,-7.14233 
382 ,81.4724 ,1.70894 ,-0.76214 ,-7.47812 
383 ,81.6807 ,1.71097 ,-0.78952 ,-7.74674 
384 ,81.8888 ,1.71308 ,-0.77925 ,-7.64601 
385 ,82.1126 ,1.71527 ,-0.78952 ,-7.74674 
386 ,82.3206 ,1.71735 ,-0.82374 ,-8.08253 
387 ,82.5450 ,1.71964 ,-0.82374 ,-8.08253 
388 ,82.7692 ,1.72191 ,-0.82716 ,-8.11611 
389 ,82.9930 ,1.72411 ,-0.82716 ,-8.11611 
390 ,83.2173 ,1.72634 ,-0.85112 ,-8.35115 
391 ,83.4254 ,1.72847 ,-0.87165 ,-8.55262 
392 ,83.6332 ,1.73045 ,-0.86823 ,-8.51904 
393 ,83.8576 ,1.73270 ,-0.88534 ,-8.68694 
394 ,84.0657 ,1.73486 ,-0.88876 ,-8.72051 
395 ,84.2897 ,1.73704 ,-0.89218 ,-8.75409 
396 ,84.4974 ,1.73911 ,-0.92298 ,-9.05630 
397 ,84.7060 ,1.74128 ,-0.93667 ,-9.19061 
398 ,84.9300 ,1.74344 ,-0.92983 ,-9.12345 
399 ,85.1382 ,1.74548 ,-0.95378 ,-9.35850 
400 ,85.3622 ,1.74781 ,-0.96747 ,-9.49282 
401 ,85.5699 ,1.74987 ,-0.96747 ,-9.49282 
402 ,85.8105 ,1.75214 ,-0.97431 ,-9.55997 
403 ,86.0183 ,1.75447 ,-0.99827 ,-9.79502 
404 ,86.2265 ,1.75643 ,-0.98800 ,-9.69429 
405 ,86.4343 ,1.75850 ,-1.02565 ,-10.06365 
406 ,86.6267 ,1.76048 ,-1.02565 ,-10.06365 
407 ,86.8507 ,1.76267 ,-1.03591 ,-10.16438 
408 ,87.0749 ,1.76488 ,-1.04960 ,-10.29869 
409 ,87.2830 ,1.76700 ,-1.05987 ,-10.39943 
410 ,87.4909 ,1.76904 ,-1.07356 ,-10.53374 
411 ,87.6992 ,1.77112 ,-1.10093 ,-10.80237 
412 ,87.9073 ,1.77320 ,-1.08382 ,-10.63448 
413 ,88.1151 ,1.77526 ,-1.10778 ,-10.86953 
414 ,88.3389 ,1.77752 ,-1.11462 ,-10.93668 
415 ,88.5793 ,1.77988 ,-1.13173 ,-11.10457 
416 ,88.8197 ,1.78234 ,-1.15227 ,-11.30604 
417 ,89.0435 ,1.78459 ,-1.15911 ,-11.37320 
418 ,89.2678 ,1.78685 ,-1.13516 ,-11.13815 
419 ,89.4760 ,1.78892 ,-1.17280 ,-11.50751 
420 ,89.7160 ,1.79116 ,-1.18307 ,-11.60825 
421 ,89.9240 ,1.79341 ,-1.18307 ,-11.60825 
422 ,90.0998 ,1.79530 ,-1.20360 ,-11.80972 
423 ,90.3079 ,1.79720 ,-1.20360 ,-11.80972 
424 ,90.5324 ,1.79943 ,-1.21387 ,-11.91045 
425 ,90.7565 ,1.80167 ,-1.24124 ,-12.17908 
426 ,90.9485 ,1.80373 ,-1.24467 ,-12.21266 
427 ,91.1402 ,1.80561 ,-1.26178 ,-12.38055 
428 ,91.3487 ,1.80768 ,-1.25151 ,-12.27981 
429 ,91.5729 ,1.80985 ,-1.25151 ,-12.27981 
430 ,91.7969 ,1.81208 ,-1.29258 ,-12.68275 
431 ,92.0209 ,1.81432 ,-1.28573 ,-12.61560 
432 ,92.2290 ,1.81646 ,-1.30284 ,-12.78349 
433 ,92.4369 ,1.81856 ,-1.30626 ,-12.81707 
434 ,92.6452 ,1.82055 ,-1.30969 ,-12.85065 
435 ,92.8534 ,1.82266 ,-1.33022 ,-13.05212 
436 ,93.0773 ,1.82489 ,-1.34391 ,-13.18643 
437 ,93.2855 ,1.82690 ,-1.33706 ,-13.11927 
438 ,93.5096 ,1.82916 ,-1.36786 ,-13.42148 
439 ,93.7176 ,1.83122 ,-1.36786 ,-13.42148 
440 ,93.8938 ,1.83323 ,-1.36786 ,-13.42148 
441 ,94.1178 ,1.83533 ,-1.40209 ,-13.75726 
442 ,94.3099 ,1.83726 ,-1.39866 ,-13.72368 
443 ,94.5176 ,1.83930 ,-1.41577 ,-13.89157 
444 ,94.7262 ,1.84148 ,-1.40209 ,-13.75726 
445 ,94.9500 ,1.84365 ,-1.43288 ,-14.05946 
446 ,95.1583 ,1.84573 ,-1.43288 ,-14.05946 
447 ,95.3824 ,1.84793 ,-1.45342 ,-14.26093 
448 ,95.5905 ,1.85003 ,-1.46026 ,-14.32809 
449 ,95.8307 ,1.85239 ,-1.47395 ,-14.46240 
450 ,96.0546 ,1.85462 ,-1.48422 ,-14.56314 
451 ,96.2627 ,1.85677 ,-1.48422 ,-14.56314 
452 ,96.4865 ,1.85891 ,-1.48764 ,-14.59672 
453 ,96.6948 ,1.86115 ,-1.52186 ,-14.93250 
454 ,96.9186 ,1.86331 ,-1.51502 ,-14.86534 
455 ,97.1272 ,1.86544 ,-1.51159 ,-14.83177 
456 ,97.3350 ,1.86742 ,-1.54924 ,-15.20113 
457 ,97.5432 ,1.86967 ,-1.55950 ,-15.30186 
458 ,97.7513 ,1.87162 ,-1.56635 ,-15.36902 
459 ,97.9593 ,1.87369 ,-1.55950 ,-15.30186 
460 ,98.1835 ,1.87587 ,-1.57319 ,-15.43617 
