Data stamp = , 18-05-2022 16:00:20 020

Calibration Values: 
Slope = , 26.54 , g/V 
Offset Voltage at no contact = , -0.501760 , V 

No , Time , Stage Position ,   Mass , Force 
   ,  (s) ,      (mm)      ,   (g)  , (mN)  

1 ,0.0000 ,0.89966 ,5.36012 ,52.59346 
2 ,0.2117 ,0.89975 ,5.34643 ,52.45915 
3 ,0.9000 ,0.90278 ,5.33616 ,52.35841 
4 ,1.1242 ,0.90556 ,5.32589 ,52.25768 
5 ,1.3642 ,0.90781 ,5.33958 ,52.39199 
6 ,1.5724 ,0.91013 ,5.32932 ,52.29126 
7 ,1.7804 ,0.91224 ,5.32589 ,52.25768 
8 ,1.9889 ,0.91425 ,5.28483 ,51.85474 
9 ,2.2131 ,0.91655 ,5.26430 ,51.65327 
10 ,2.4208 ,0.91854 ,5.26430 ,51.65327 
11 ,2.6292 ,0.92074 ,5.21296 ,51.14960 
12 ,2.8369 ,0.92271 ,5.22323 ,51.25033 
13 ,3.0454 ,0.92488 ,5.18559 ,50.88097 
14 ,3.2533 ,0.92706 ,5.15136 ,50.54519 
15 ,3.4613 ,0.92897 ,5.15821 ,50.61234 
16 ,3.6696 ,0.93112 ,5.11714 ,50.20940 
17 ,3.8777 ,0.93313 ,5.11030 ,50.14225 
18 ,4.1016 ,0.93543 ,5.08634 ,49.90720 
19 ,4.3258 ,0.93765 ,5.05212 ,49.57142 
20 ,4.5499 ,0.93989 ,5.04185 ,49.47068 
21 ,4.7578 ,0.94195 ,5.02817 ,49.33637 
22 ,4.9663 ,0.94403 ,4.98368 ,48.89985 
23 ,5.1741 ,0.94619 ,4.98710 ,48.93343 
24 ,5.3823 ,0.94823 ,4.95630 ,48.63122 
25 ,5.5902 ,0.95025 ,4.92550 ,48.32902 
26 ,5.7985 ,0.95237 ,4.92892 ,48.36260 
27 ,6.0067 ,0.95457 ,4.89128 ,47.99324 
28 ,6.2145 ,0.95655 ,4.88101 ,47.89250 
29 ,6.4066 ,0.95850 ,4.85706 ,47.65745 
30 ,6.6148 ,0.96069 ,4.84679 ,47.55672 
31 ,6.8229 ,0.96261 ,4.80915 ,47.18736 
32 ,7.0149 ,0.96470 ,4.80573 ,47.15378 
33 ,7.1911 ,0.96645 ,4.76124 ,46.71726 
34 ,7.4151 ,0.96841 ,4.76808 ,46.78442 
35 ,7.6393 ,0.97073 ,4.75097 ,46.61653 
36 ,7.8471 ,0.97282 ,4.70990 ,46.21359 
37 ,8.0715 ,0.97502 ,4.70990 ,46.21359 
38 ,8.2796 ,0.97710 ,4.68595 ,45.97854 
39 ,8.4874 ,0.97924 ,4.65515 ,45.67633 
40 ,8.6960 ,0.98134 ,4.65857 ,45.70991 
41 ,8.9039 ,0.98343 ,4.61751 ,45.30697 
42 ,9.1278 ,0.98564 ,4.58671 ,45.00477 
43 ,9.3679 ,0.98803 ,4.57302 ,44.87045 
44 ,9.5921 ,0.99032 ,4.56617 ,44.80330 
45 ,9.8002 ,0.99236 ,4.53537 ,44.50109 
46 ,10.0244 ,0.99461 ,4.50800 ,44.23247 
47 ,10.2324 ,0.99668 ,4.50457 ,44.19889 
48 ,10.4402 ,0.99873 ,4.46693 ,43.82953 
49 ,10.6321 ,1.00076 ,4.44982 ,43.66163 
50 ,10.8247 ,1.00271 ,4.42586 ,43.42659 
51 ,11.0486 ,1.00487 ,4.41902 ,43.35943 
52 ,11.2407 ,1.00682 ,4.39507 ,43.12438 
53 ,11.4485 ,1.00882 ,4.39164 ,43.09080 
54 ,11.6567 ,1.01099 ,4.37795 ,42.95649 
55 ,11.8812 ,1.01323 ,4.31978 ,42.38566 
56 ,12.1053 ,1.01542 ,4.30951 ,42.28492 
57 ,12.3133 ,1.01749 ,4.30609 ,42.25135 
58 ,12.5053 ,1.01952 ,4.27529 ,41.94914 
59 ,12.7135 ,1.02156 ,4.27529 ,41.94914 
60 ,12.9053 ,1.02354 ,4.23765 ,41.57978 
61 ,13.0976 ,1.02538 ,4.23080 ,41.51262 
62 ,13.3058 ,1.02742 ,4.21369 ,41.34473 
63 ,13.5296 ,1.02966 ,4.20342 ,41.24400 
64 ,13.7378 ,1.03177 ,4.17947 ,41.00895 
65 ,13.9456 ,1.03384 ,4.14183 ,40.63959 
66 ,14.1540 ,1.03594 ,4.14867 ,40.70674 
67 ,14.3620 ,1.03809 ,4.11103 ,40.33738 
68 ,14.5702 ,1.04002 ,4.10076 ,40.23665 
69 ,14.7942 ,1.04233 ,4.08365 ,40.06876 
70 ,15.0020 ,1.04434 ,4.05969 ,39.83371 
71 ,15.2104 ,1.04653 ,4.04600 ,39.69940 
72 ,15.4186 ,1.04855 ,4.01863 ,39.43077 
73 ,15.6266 ,1.05069 ,3.99467 ,39.19572 
74 ,15.8348 ,1.05269 ,3.97414 ,38.99425 
75 ,16.0429 ,1.05475 ,3.95703 ,38.82636 
76 ,16.2509 ,1.05682 ,3.95361 ,38.79278 
77 ,16.4750 ,1.05907 ,3.91596 ,38.42342 
78 ,16.6989 ,1.06122 ,3.89885 ,38.25553 
79 ,16.8912 ,1.06327 ,3.90912 ,38.35626 
80 ,17.1151 ,1.06546 ,3.86463 ,37.91975 
81 ,17.3071 ,1.06744 ,3.85779 ,37.85259 
82 ,17.5314 ,1.06970 ,3.83383 ,37.61754 
83 ,17.7554 ,1.07189 ,3.81330 ,37.41607 
84 ,17.9635 ,1.07393 ,3.79276 ,37.21460 
85 ,18.1714 ,1.07613 ,3.78250 ,37.11387 
86 ,18.3631 ,1.07810 ,3.73459 ,36.64377 
87 ,18.5556 ,1.08005 ,3.75854 ,36.87882 
88 ,18.7639 ,1.08199 ,3.71063 ,36.40872 
89 ,18.9879 ,1.08419 ,3.71405 ,36.44230 
90 ,19.1960 ,1.08630 ,3.66957 ,36.00578 
91 ,19.4038 ,1.08840 ,3.65246 ,35.83789 
92 ,19.6280 ,1.09066 ,3.64903 ,35.80431 
93 ,19.8523 ,1.09279 ,3.60797 ,35.40137 
94 ,20.0765 ,1.09509 ,3.59086 ,35.23348 
95 ,20.2846 ,1.09720 ,3.58401 ,35.16632 
96 ,20.4928 ,1.09930 ,3.56006 ,34.93128 
97 ,20.7167 ,1.10150 ,3.53268 ,34.66265 
98 ,20.9407 ,1.10369 ,3.51899 ,34.52834 
99 ,21.1488 ,1.10583 ,3.51557 ,34.49476 
100 ,21.3566 ,1.10787 ,3.47108 ,34.05824 
101 ,21.5649 ,1.10994 ,3.48135 ,34.15898 
102 ,21.7569 ,1.11200 ,3.44370 ,33.78961 
103 ,21.9652 ,1.11389 ,3.44370 ,33.78961 
104 ,22.1891 ,1.11620 ,3.41633 ,33.52099 
105 ,22.3811 ,1.11816 ,3.38895 ,33.25236 
106 ,22.5895 ,1.12019 ,3.38553 ,33.21878 
107 ,22.8130 ,1.12242 ,3.35130 ,32.88300 
108 ,23.0057 ,1.12442 ,3.35815 ,32.95016 
109 ,23.2137 ,1.12649 ,3.31024 ,32.48006 
110 ,23.4058 ,1.12841 ,3.32051 ,32.58080 
111 ,23.5977 ,1.13033 ,3.27944 ,32.17786 
112 ,23.8218 ,1.13255 ,3.27259 ,32.11070 
113 ,24.0298 ,1.13466 ,3.24180 ,31.80849 
114 ,24.2378 ,1.13670 ,3.23153 ,31.70776 
115 ,24.4462 ,1.13885 ,3.22811 ,31.67418 
116 ,24.6544 ,1.14092 ,3.18362 ,31.23766 
117 ,24.8624 ,1.14296 ,3.19731 ,31.37198 
118 ,25.0866 ,1.14516 ,3.18020 ,31.20409 
119 ,25.2942 ,1.14736 ,3.14597 ,30.86830 
120 ,25.5027 ,1.14931 ,3.14597 ,30.86830 
121 ,25.7107 ,1.15159 ,3.11175 ,30.53252 
122 ,25.9189 ,1.15348 ,3.08780 ,30.29747 
123 ,26.1427 ,1.15571 ,3.08780 ,30.29747 
124 ,26.3667 ,1.15796 ,3.06384 ,30.06242 
125 ,26.5751 ,1.16013 ,3.02962 ,29.72664 
126 ,26.7672 ,1.16201 ,3.02962 ,29.72664 
127 ,26.9913 ,1.16412 ,3.00224 ,29.45801 
128 ,27.2155 ,1.16641 ,2.97487 ,29.18939 
129 ,27.4235 ,1.16861 ,2.97487 ,29.18939 
130 ,27.6157 ,1.17052 ,2.93380 ,28.78645 
131 ,27.8237 ,1.17253 ,2.94064 ,28.85360 
132 ,28.0476 ,1.17476 ,2.90642 ,28.51782 
133 ,28.2554 ,1.17680 ,2.87562 ,28.21562 
134 ,28.4638 ,1.17891 ,2.88247 ,28.28277 
135 ,28.6718 ,1.18100 ,2.85509 ,28.01415 
136 ,28.8801 ,1.18313 ,2.84825 ,27.94699 
137 ,29.0884 ,1.18521 ,2.81060 ,27.57763 
138 ,29.2960 ,1.18727 ,2.80718 ,27.54405 
139 ,29.5044 ,1.18935 ,2.78665 ,27.34258 
140 ,29.7286 ,1.19157 ,2.76269 ,27.10753 
141 ,29.9365 ,1.19371 ,2.75243 ,27.00680 
142 ,30.1287 ,1.19563 ,2.73189 ,26.80533 
143 ,30.3366 ,1.19764 ,2.72505 ,26.73817 
144 ,30.5127 ,1.19958 ,2.70109 ,26.50312 
145 ,30.7049 ,1.20135 ,2.70452 ,26.53670 
146 ,30.9129 ,1.20345 ,2.66345 ,26.13376 
147 ,31.1208 ,1.20553 ,2.67029 ,26.20092 
148 ,31.3450 ,1.20782 ,2.64976 ,25.99945 
149 ,31.5527 ,1.20993 ,2.61212 ,25.63009 
150 ,31.7611 ,1.21188 ,2.60869 ,25.59651 
151 ,31.9533 ,1.21388 ,2.58132 ,25.32788 
152 ,32.1775 ,1.21601 ,2.57447 ,25.26073 
153 ,32.4016 ,1.21828 ,2.56078 ,25.12641 
154 ,32.6252 ,1.22050 ,2.51972 ,24.72347 
155 ,32.8337 ,1.22269 ,2.50945 ,24.62274 
156 ,33.0577 ,1.22484 ,2.50261 ,24.55558 
157 ,33.2338 ,1.22681 ,2.46839 ,24.21980 
158 ,33.4260 ,1.22860 ,2.46496 ,24.18622 
159 ,33.6341 ,1.23067 ,2.45127 ,24.05191 
160 ,33.8742 ,1.23292 ,2.43759 ,23.91759 
161 ,34.0983 ,1.23525 ,2.43074 ,23.85044 
162 ,34.3060 ,1.23732 ,2.38283 ,23.38034 
163 ,34.4980 ,1.23930 ,2.39310 ,23.48108 
164 ,34.6905 ,1.24120 ,2.36914 ,23.24603 
165 ,34.9147 ,1.24343 ,2.34861 ,23.04456 
166 ,35.1069 ,1.24539 ,2.32465 ,22.80951 
167 ,35.3149 ,1.24743 ,2.32465 ,22.80951 
168 ,35.5390 ,1.24968 ,2.30412 ,22.60804 
169 ,35.7631 ,1.25182 ,2.26990 ,22.27226 
170 ,35.9711 ,1.25399 ,2.26648 ,22.23868 
171 ,36.1633 ,1.25595 ,2.24594 ,22.03721 
172 ,36.3712 ,1.25794 ,2.23568 ,21.93647 
173 ,36.5793 ,1.26003 ,2.20488 ,21.63427 
174 ,36.8035 ,1.26229 ,2.19461 ,21.53353 
175 ,36.9951 ,1.26431 ,2.18777 ,21.46638 
176 ,37.1875 ,1.26627 ,2.15697 ,21.16417 
177 ,37.3958 ,1.26822 ,2.15012 ,21.09702 
178 ,37.6039 ,1.27026 ,2.11590 ,20.76123 
179 ,37.8119 ,1.27240 ,2.11932 ,20.79481 
180 ,38.0359 ,1.27462 ,2.11248 ,20.72766 
181 ,38.2440 ,1.27672 ,2.07484 ,20.35829 
182 ,38.4521 ,1.27883 ,2.07484 ,20.35829 
183 ,38.6442 ,1.28086 ,2.05773 ,20.19040 
184 ,38.8364 ,1.28271 ,2.05088 ,20.12325 
185 ,39.0604 ,1.28481 ,2.00297 ,19.65315 
186 ,39.2840 ,1.28711 ,1.98928 ,19.51884 
187 ,39.4765 ,1.28905 ,2.00297 ,19.65315 
188 ,39.6525 ,1.29093 ,1.97217 ,19.35094 
189 ,39.8604 ,1.29290 ,1.95164 ,19.14948 
190 ,40.0524 ,1.29486 ,1.94137 ,19.04874 
191 ,40.2445 ,1.29680 ,1.91057 ,18.74654 
192 ,40.4686 ,1.29886 ,1.92084 ,18.84727 
193 ,40.6769 ,1.30103 ,1.89688 ,18.61222 
194 ,40.8692 ,1.30301 ,1.87635 ,18.41075 
195 ,41.0933 ,1.30517 ,1.86951 ,18.34360 
196 ,41.3169 ,1.30737 ,1.84555 ,18.10855 
197 ,41.5094 ,1.30944 ,1.82160 ,17.87350 
198 ,41.7175 ,1.31142 ,1.81133 ,17.77276 
199 ,41.9256 ,1.31352 ,1.79080 ,17.57129 
200 ,42.1656 ,1.31588 ,1.78053 ,17.47056 
201 ,42.3738 ,1.31795 ,1.77369 ,17.40340 
202 ,42.5815 ,1.32018 ,1.73946 ,17.06762 
203 ,42.7739 ,1.32203 ,1.73604 ,17.03404 
204 ,42.9820 ,1.32401 ,1.69840 ,16.66468 
205 ,43.1578 ,1.32600 ,1.71893 ,16.86615 
206 ,43.3822 ,1.32794 ,1.68471 ,16.53037 
207 ,43.5899 ,1.33027 ,1.66760 ,16.36248 
208 ,43.7984 ,1.33225 ,1.64022 ,16.09385 
209 ,44.0226 ,1.33445 ,1.63680 ,16.06027 
210 ,44.2467 ,1.33672 ,1.62311 ,15.92596 
211 ,44.4547 ,1.33879 ,1.60258 ,15.72449 
212 ,44.6784 ,1.34097 ,1.57178 ,15.42228 
213 ,44.8869 ,1.34311 ,1.58204 ,15.52302 
214 ,45.1111 ,1.34532 ,1.56493 ,15.35513 
215 ,45.3191 ,1.34744 ,1.52729 ,14.98577 
216 ,45.5270 ,1.34954 ,1.52045 ,14.91861 
217 ,45.7353 ,1.35162 ,1.51702 ,14.88503 
218 ,45.9593 ,1.35387 ,1.48280 ,14.54925 
219 ,46.1673 ,1.35589 ,1.47938 ,14.51567 
220 ,46.3435 ,1.35786 ,1.44516 ,14.17989 
221 ,46.5514 ,1.35972 ,1.45542 ,14.28062 
222 ,46.7437 ,1.36177 ,1.42120 ,13.94484 
223 ,46.9354 ,1.36367 ,1.42805 ,14.01199 
224 ,47.1439 ,1.36572 ,1.40751 ,13.81053 
225 ,47.3678 ,1.36784 ,1.39383 ,13.67621 
226 ,47.5760 ,1.37000 ,1.35276 ,13.27327 
227 ,47.7841 ,1.37214 ,1.35618 ,13.30685 
228 ,47.9921 ,1.37420 ,1.35276 ,13.27327 
229 ,48.2003 ,1.37625 ,1.32538 ,13.00465 
230 ,48.4245 ,1.37847 ,1.31512 ,12.90391 
231 ,48.6325 ,1.38058 ,1.29458 ,12.70244 
232 ,48.8567 ,1.38280 ,1.27063 ,12.46739 
233 ,49.0646 ,1.38487 ,1.26378 ,12.40024 
234 ,49.2727 ,1.38698 ,1.24667 ,12.23235 
235 ,49.4808 ,1.38905 ,1.22614 ,12.03088 
236 ,49.6887 ,1.39109 ,1.23298 ,12.09803 
237 ,49.8810 ,1.39309 ,1.19876 ,11.76225 
238 ,50.1052 ,1.39526 ,1.19876 ,11.76225 
239 ,50.3128 ,1.39733 ,1.17481 ,11.52720 
240 ,50.5054 ,1.39933 ,1.17138 ,11.49362 
241 ,50.7133 ,1.40135 ,1.14401 ,11.22500 
242 ,50.9215 ,1.40342 ,1.13032 ,11.09068 
243 ,51.1456 ,1.40564 ,1.13374 ,11.12426 
244 ,51.3531 ,1.40774 ,1.08241 ,10.62059 
245 ,51.5612 ,1.40985 ,1.08583 ,10.65416 
246 ,51.7694 ,1.41195 ,1.07214 ,10.51985 
247 ,52.0100 ,1.41428 ,1.05161 ,10.31838 
248 ,52.2338 ,1.41655 ,1.03450 ,10.15049 
249 ,52.4416 ,1.41864 ,1.02423 ,10.04976 
250 ,52.6502 ,1.42068 ,1.00712 ,9.88186 
251 ,52.9064 ,1.42308 ,0.97290 ,9.54608 
252 ,53.1305 ,1.42550 ,0.97632 ,9.57966 
253 ,53.3383 ,1.42757 ,0.95921 ,9.41177 
254 ,53.5461 ,1.42967 ,0.95921 ,9.41177 
255 ,53.7546 ,1.43176 ,0.91814 ,9.00883 
256 ,53.9787 ,1.43397 ,0.91130 ,8.94167 
257 ,54.1868 ,1.43604 ,0.90788 ,8.90809 
258 ,54.3948 ,1.43827 ,0.89419 ,8.77378 
259 ,54.5866 ,1.44018 ,0.87708 ,8.60589 
260 ,54.7952 ,1.44218 ,0.84970 ,8.33726 
261 ,55.0192 ,1.44437 ,0.84286 ,8.27011 
262 ,55.2270 ,1.44643 ,0.84628 ,8.30368 
263 ,55.4513 ,1.44869 ,0.81548 ,8.00148 
264 ,55.6592 ,1.45078 ,0.80521 ,7.90074 
265 ,55.8835 ,1.45305 ,0.79152 ,7.76643 
266 ,56.1075 ,1.45524 ,0.77099 ,7.56496 
267 ,56.3157 ,1.45731 ,0.75046 ,7.36349 
268 ,56.5395 ,1.45954 ,0.74361 ,7.29633 
269 ,56.7318 ,1.46152 ,0.71624 ,7.02771 
270 ,56.9559 ,1.46379 ,0.69913 ,6.85982 
271 ,57.1799 ,1.46594 ,0.69913 ,6.85982 
272 ,57.3880 ,1.46814 ,0.69228 ,6.79266 
273 ,57.5642 ,1.47000 ,0.66833 ,6.55761 
274 ,57.7723 ,1.47190 ,0.65806 ,6.45688 
275 ,57.9639 ,1.47392 ,0.65121 ,6.38972 
276 ,58.1725 ,1.47592 ,0.62042 ,6.08752 
277 ,58.3804 ,1.47809 ,0.60673 ,5.95320 
278 ,58.5566 ,1.47990 ,0.59304 ,5.81889 
279 ,58.7647 ,1.48187 ,0.61015 ,5.98678 
280 ,58.9727 ,1.48394 ,0.56224 ,5.51668 
281 ,59.1808 ,1.48599 ,0.56566 ,5.55026 
282 ,59.3890 ,1.48819 ,0.57593 ,5.65100 
283 ,59.5809 ,1.49002 ,0.55882 ,5.48311 
284 ,59.7572 ,1.49193 ,0.51091 ,5.01301 
285 ,59.9814 ,1.49398 ,0.51433 ,5.04659 
286 ,60.2049 ,1.49618 ,0.49380 ,4.84512 
287 ,60.4132 ,1.49828 ,0.46984 ,4.61007 
288 ,60.6216 ,1.50038 ,0.48353 ,4.74438 
289 ,60.8296 ,1.50248 ,0.44246 ,4.34144 
290 ,61.0536 ,1.50469 ,0.43562 ,4.27429 
291 ,61.2455 ,1.50666 ,0.43220 ,4.24071 
292 ,61.4538 ,1.50872 ,0.41166 ,4.03924 
293 ,61.6620 ,1.51084 ,0.41509 ,4.07282 
294 ,61.8700 ,1.51287 ,0.37744 ,3.70346 
295 ,62.0941 ,1.51510 ,0.37744 ,3.70346 
296 ,62.3023 ,1.51718 ,0.37744 ,3.70346 
297 ,62.5103 ,1.51934 ,0.36033 ,3.53557 
298 ,62.7183 ,1.52135 ,0.35006 ,3.43483 
299 ,62.9266 ,1.52344 ,0.31242 ,3.06547 
300 ,63.1505 ,1.52564 ,0.28504 ,2.79684 
301 ,63.3585 ,1.52772 ,0.30558 ,2.99831 
302 ,63.5667 ,1.52978 ,0.26451 ,2.59537 
303 ,63.7748 ,1.53199 ,0.27135 ,2.66253 
304 ,64.0149 ,1.53411 ,0.25424 ,2.49464 
305 ,64.2390 ,1.53656 ,0.25082 ,2.46106 
306 ,64.4311 ,1.53858 ,0.21660 ,2.12528 
307 ,64.6225 ,1.54049 ,0.21660 ,2.12528 
308 ,64.8153 ,1.54234 ,0.20291 ,1.99096 
309 ,65.0390 ,1.54453 ,0.19607 ,1.92381 
310 ,65.2315 ,1.54650 ,0.16185 ,1.58802 
311 ,65.4395 ,1.54855 ,0.16185 ,1.58802 
312 ,65.6472 ,1.55066 ,0.13447 ,1.31940 
313 ,65.8557 ,1.55273 ,0.14473 ,1.42013 
314 ,66.0797 ,1.55492 ,0.12762 ,1.25224 
315 ,66.3036 ,1.55715 ,0.10025 ,0.98361 
316 ,66.5117 ,1.55929 ,0.09340 ,0.91646 
317 ,66.7199 ,1.56133 ,0.08656 ,0.84930 
318 ,66.9279 ,1.56349 ,0.06602 ,0.64783 
319 ,67.1522 ,1.56562 ,0.05576 ,0.54710 
320 ,67.3602 ,1.56772 ,0.05234 ,0.51352 
321 ,67.5683 ,1.56983 ,0.01127 ,0.11058 
322 ,67.7764 ,1.57189 ,0.02496 ,0.24489 
323 ,67.9684 ,1.57391 ,0.00443 ,0.04342 
324 ,68.1605 ,1.57581 ,-0.00242 ,-0.02373 
325 ,68.3683 ,1.57780 ,-0.03322 ,-0.32594 
326 ,68.5766 ,1.57999 ,-0.02980 ,-0.29236 
327 ,68.7847 ,1.58197 ,-0.06060 ,-0.59457 
328 ,68.9764 ,1.58401 ,-0.06060 ,-0.59457 
329 ,69.1847 ,1.58601 ,-0.09482 ,-0.93035 
330 ,69.3928 ,1.58812 ,-0.07428 ,-0.72888 
331 ,69.6010 ,1.59011 ,-0.10166 ,-0.99751 
332 ,69.8253 ,1.59237 ,-0.12562 ,-1.23255 
333 ,70.0329 ,1.59449 ,-0.11535 ,-1.13182 
334 ,70.2414 ,1.59652 ,-0.15299 ,-1.50118 
335 ,70.4494 ,1.59872 ,-0.16326 ,-1.60191 
336 ,70.6573 ,1.60070 ,-0.14957 ,-1.46760 
337 ,70.8656 ,1.60286 ,-0.18037 ,-1.76981 
338 ,71.0577 ,1.60478 ,-0.18037 ,-1.76981 
339 ,71.2818 ,1.60693 ,-0.19406 ,-1.90412 
340 ,71.4738 ,1.60889 ,-0.20090 ,-1.97128 
341 ,71.6660 ,1.61082 ,-0.20775 ,-2.03843 
342 ,71.8741 ,1.61287 ,-0.22486 ,-2.20632 
343 ,72.0820 ,1.61497 ,-0.25566 ,-2.50853 
344 ,72.3060 ,1.61716 ,-0.25566 ,-2.50853 
345 ,72.5144 ,1.61929 ,-0.26250 ,-2.57569 
346 ,72.7386 ,1.62152 ,-0.28304 ,-2.77716 
347 ,72.9466 ,1.62356 ,-0.30357 ,-2.97863 
348 ,73.1546 ,1.62570 ,-0.29673 ,-2.91147 
349 ,73.3786 ,1.62787 ,-0.32410 ,-3.18010 
350 ,73.5865 ,1.63004 ,-0.32410 ,-3.18010 
351 ,73.8108 ,1.63219 ,-0.33095 ,-3.24725 
352 ,74.0189 ,1.63440 ,-0.35148 ,-3.44872 
353 ,74.2269 ,1.63643 ,-0.36517 ,-3.58303 
354 ,74.4349 ,1.63845 ,-0.38228 ,-3.75093 
355 ,74.6591 ,1.64074 ,-0.38912 ,-3.81808 
356 ,74.8833 ,1.64296 ,-0.41992 ,-4.12029 
357 ,75.0915 ,1.64504 ,-0.41308 ,-4.05313 
358 ,75.2996 ,1.64711 ,-0.44046 ,-4.32176 
359 ,75.5236 ,1.64930 ,-0.43703 ,-4.28818 
360 ,75.7475 ,1.65157 ,-0.44388 ,-4.35534 
361 ,75.9557 ,1.65371 ,-0.46783 ,-4.59038 
362 ,76.1476 ,1.65561 ,-0.47810 ,-4.69112 
363 ,76.3559 ,1.65768 ,-0.50548 ,-4.95975 
364 ,76.5799 ,1.65985 ,-0.51232 ,-5.02690 
365 ,76.7878 ,1.66202 ,-0.50548 ,-4.95975 
366 ,76.9801 ,1.66395 ,-0.54654 ,-5.36268 
367 ,77.2043 ,1.66613 ,-0.53628 ,-5.26195 
368 ,77.4124 ,1.66825 ,-0.53628 ,-5.26195 
369 ,77.6362 ,1.67043 ,-0.57392 ,-5.63131 
370 ,77.8440 ,1.67252 ,-0.57734 ,-5.66489 
371 ,78.0525 ,1.67464 ,-0.57392 ,-5.63131 
372 ,78.2606 ,1.67670 ,-0.60814 ,-5.96709 
373 ,78.4847 ,1.67897 ,-0.59445 ,-5.83278 
374 ,78.6928 ,1.68100 ,-0.61841 ,-6.06783 
375 ,78.9167 ,1.68329 ,-0.62525 ,-6.13499 
376 ,79.1250 ,1.68537 ,-0.63552 ,-6.23572 
377 ,79.3487 ,1.68754 ,-0.65263 ,-6.40361 
378 ,79.5412 ,1.68956 ,-0.66974 ,-6.57150 
379 ,79.7652 ,1.69173 ,-0.66290 ,-6.50435 
380 ,79.9733 ,1.69385 ,-0.69027 ,-6.77297 
381 ,80.2135 ,1.69613 ,-0.70396 ,-6.90729 
382 ,80.4374 ,1.69849 ,-0.72450 ,-7.10876 
383 ,80.6453 ,1.70056 ,-0.71423 ,-7.00802 
384 ,80.8376 ,1.70253 ,-0.74161 ,-7.27665 
385 ,81.0618 ,1.70467 ,-0.74845 ,-7.34380 
386 ,81.2698 ,1.70675 ,-0.74845 ,-7.34380 
387 ,81.4620 ,1.70877 ,-0.77241 ,-7.57885 
388 ,81.6862 ,1.71092 ,-0.77583 ,-7.61243 
389 ,81.9101 ,1.71317 ,-0.78267 ,-7.67959 
390 ,82.1342 ,1.71544 ,-0.81005 ,-7.94821 
391 ,82.3421 ,1.71747 ,-0.80663 ,-7.91464 
392 ,82.5345 ,1.71948 ,-0.83743 ,-8.21684 
393 ,82.7584 ,1.72167 ,-0.84427 ,-8.28400 
394 ,82.9666 ,1.72373 ,-0.83743 ,-8.21684 
395 ,83.1745 ,1.72580 ,-0.87507 ,-8.58620 
396 ,83.3824 ,1.72796 ,-0.86138 ,-8.45189 
397 ,83.5910 ,1.73000 ,-0.87849 ,-8.61978 
398 ,83.8150 ,1.73225 ,-0.90587 ,-8.88841 
399 ,84.0390 ,1.73442 ,-0.91272 ,-8.95556 
400 ,84.2311 ,1.73649 ,-0.91956 ,-9.02272 
401 ,84.4391 ,1.73851 ,-0.92298 ,-9.05630 
402 ,84.6470 ,1.74070 ,-0.93325 ,-9.15703 
403 ,84.8394 ,1.74251 ,-0.94694 ,-9.29135 
404 ,85.0473 ,1.74453 ,-0.96063 ,-9.42566 
405 ,85.2557 ,1.74663 ,-0.97089 ,-9.52639 
406 ,85.4797 ,1.74883 ,-0.96747 ,-9.49282 
407 ,85.7038 ,1.75114 ,-0.98458 ,-9.66071 
408 ,85.9278 ,1.75334 ,-1.00169 ,-9.82860 
409 ,86.1519 ,1.75557 ,-1.02907 ,-10.09723 
410 ,86.3600 ,1.75767 ,-1.02222 ,-10.03007 
411 ,86.6003 ,1.76007 ,-1.02907 ,-10.09723 
412 ,86.8242 ,1.76229 ,-1.03934 ,-10.19796 
413 ,87.0324 ,1.76442 ,-1.07014 ,-10.50016 
414 ,87.2404 ,1.76646 ,-1.06329 ,-10.43301 
415 ,87.4643 ,1.76870 ,-1.07356 ,-10.53374 
416 ,87.6726 ,1.77076 ,-1.10093 ,-10.80237 
417 ,87.8644 ,1.77274 ,-1.09067 ,-10.70163 
418 ,88.0728 ,1.77485 ,-1.11805 ,-10.97026 
419 ,88.2964 ,1.77699 ,-1.11120 ,-10.90310 
420 ,88.5046 ,1.77906 ,-1.12831 ,-11.07100 
421 ,88.7130 ,1.78122 ,-1.15911 ,-11.37320 
422 ,88.9206 ,1.78328 ,-1.13858 ,-11.17173 
423 ,89.1293 ,1.78527 ,-1.17964 ,-11.57467 
424 ,89.3532 ,1.78759 ,-1.20018 ,-11.77614 
425 ,89.5614 ,1.78970 ,-1.17280 ,-11.50751 
426 ,89.7854 ,1.79193 ,-1.18991 ,-11.67541 
427 ,89.9931 ,1.79408 ,-1.22413 ,-12.01119 
428 ,90.2017 ,1.79612 ,-1.21044 ,-11.87688 
429 ,90.4254 ,1.79833 ,-1.23098 ,-12.07834 
430 ,90.6338 ,1.80040 ,-1.24124 ,-12.17908 
431 ,90.8577 ,1.80254 ,-1.23098 ,-12.07834 
432 ,91.0498 ,1.80456 ,-1.25493 ,-12.31339 
433 ,91.2580 ,1.80671 ,-1.25151 ,-12.27981 
434 ,91.4823 ,1.80886 ,-1.27204 ,-12.48128 
435 ,91.6904 ,1.81094 ,-1.29600 ,-12.71633 
436 ,91.9144 ,1.81319 ,-1.29258 ,-12.68275 
437 ,92.1226 ,1.81530 ,-1.29600 ,-12.71633 
438 ,92.3465 ,1.81756 ,-1.32680 ,-13.01854 
439 ,92.5544 ,1.81970 ,-1.33022 ,-13.05212 
440 ,92.7625 ,1.82165 ,-1.33706 ,-13.11927 
441 ,92.9706 ,1.82372 ,-1.35417 ,-13.28716 
442 ,93.1786 ,1.82576 ,-1.35417 ,-13.28716 
443 ,93.3705 ,1.82775 ,-1.38155 ,-13.55579 
444 ,93.5627 ,1.82974 ,-1.37471 ,-13.48863 
445 ,93.7709 ,1.83175 ,-1.38155 ,-13.55579 
446 ,93.9789 ,1.83385 ,-1.38497 ,-13.58937 
447 ,94.1714 ,1.83581 ,-1.40209 ,-13.75726 
448 ,94.3790 ,1.83796 ,-1.40209 ,-13.75726 
449 ,94.5873 ,1.83997 ,-1.43288 ,-14.05946 
450 ,94.7959 ,1.84204 ,-1.42262 ,-13.95873 
451 ,95.0196 ,1.84422 ,-1.43973 ,-14.12662 
452 ,95.2118 ,1.84621 ,-1.45342 ,-14.26093 
453 ,95.4197 ,1.84830 ,-1.46711 ,-14.39525 
454 ,95.6275 ,1.85024 ,-1.47053 ,-14.42883 
455 ,95.8358 ,1.85235 ,-1.46368 ,-14.36167 
456 ,96.0279 ,1.85430 ,-1.50133 ,-14.73103 
457 ,96.2522 ,1.85658 ,-1.48764 ,-14.59672 
458 ,96.4603 ,1.85869 ,-1.50475 ,-14.76461 
459 ,96.6844 ,1.86085 ,-1.53555 ,-15.06681 
460 ,96.8763 ,1.86284 ,-1.51502 ,-14.86534 
