Data stamp = , 19-05-2022 09:57:00 434

Calibration Values: 
Slope = , 26.54 , g/V 
Offset Voltage at no contact = , -0.501760 , V 

No , Time , Stage Position ,   Mass , Force 
   ,  (s) ,      (mm)      ,   (g)  , (mN)  

1 ,0.0000 ,0.89966 ,5.28141 ,51.82116 
2 ,0.2205 ,0.89976 ,5.29510 ,51.95548 
3 ,0.6532 ,0.90119 ,5.28825 ,51.88832 
4 ,1.0374 ,0.90421 ,5.29852 ,51.98905 
5 ,1.2616 ,0.90694 ,5.31563 ,52.15694 
6 ,1.4852 ,0.90922 ,5.28825 ,51.88832 
7 ,1.7096 ,0.91150 ,5.27456 ,51.75401 
8 ,1.9338 ,0.91377 ,5.22665 ,51.28391 
9 ,2.1418 ,0.91588 ,5.20612 ,51.08244 
10 ,2.3660 ,0.91804 ,5.20612 ,51.08244 
11 ,2.5737 ,0.92018 ,5.15136 ,50.54519 
12 ,2.8143 ,0.92241 ,5.12741 ,50.31014 
13 ,3.0379 ,0.92482 ,5.10345 ,50.07509 
14 ,3.2301 ,0.92674 ,5.10688 ,50.10867 
15 ,3.4384 ,0.92887 ,5.06581 ,49.70573 
16 ,3.6465 ,0.93082 ,5.06923 ,49.73931 
17 ,3.8867 ,0.93330 ,5.05554 ,49.60499 
18 ,4.1108 ,0.93544 ,5.01106 ,49.16848 
19 ,4.3349 ,0.93778 ,4.98368 ,48.89985 
20 ,4.5589 ,0.93998 ,4.94946 ,48.56407 
21 ,4.7671 ,0.94206 ,4.95630 ,48.63122 
22 ,5.0073 ,0.94441 ,4.93577 ,48.42975 
23 ,5.2316 ,0.94673 ,4.90155 ,48.09397 
24 ,5.4393 ,0.94885 ,4.86732 ,47.75819 
25 ,5.6312 ,0.95079 ,4.86048 ,47.69103 
26 ,5.8394 ,0.95280 ,4.83310 ,47.42240 
27 ,6.0636 ,0.95502 ,4.82626 ,47.35525 
28 ,6.2717 ,0.95706 ,4.78519 ,46.95231 
29 ,6.4796 ,0.95917 ,4.77150 ,46.81800 
30 ,6.6878 ,0.96137 ,4.75439 ,46.65010 
31 ,6.8958 ,0.96336 ,4.73728 ,46.48221 
32 ,7.1038 ,0.96554 ,4.70990 ,46.21359 
33 ,7.3122 ,0.96753 ,4.69279 ,46.04569 
34 ,7.5363 ,0.96976 ,4.66542 ,45.77707 
35 ,7.7444 ,0.97184 ,4.66884 ,45.81065 
36 ,7.9681 ,0.97406 ,4.64488 ,45.57560 
37 ,8.1763 ,0.97617 ,4.60382 ,45.17266 
38 ,8.3846 ,0.97828 ,4.60724 ,45.20624 
39 ,8.5927 ,0.98029 ,4.57302 ,44.87045 
40 ,8.8168 ,0.98255 ,4.54222 ,44.56825 
41 ,9.0247 ,0.98459 ,4.55249 ,44.66898 
42 ,9.2324 ,0.98668 ,4.50115 ,44.16531 
43 ,9.4410 ,0.98885 ,4.49773 ,44.13173 
44 ,9.6650 ,0.99105 ,4.48746 ,44.03100 
45 ,9.8732 ,0.99311 ,4.43955 ,43.56090 
46 ,10.0971 ,0.99531 ,4.42586 ,43.42659 
47 ,10.3050 ,0.99738 ,4.43271 ,43.49374 
48 ,10.4976 ,0.99948 ,4.39164 ,43.09080 
49 ,10.7054 ,1.00152 ,4.39164 ,43.09080 
50 ,10.8976 ,1.00347 ,4.34373 ,42.62071 
51 ,11.0897 ,1.00529 ,4.34031 ,42.58713 
52 ,11.3138 ,1.00751 ,4.31978 ,42.38566 
53 ,11.5056 ,1.00943 ,4.32320 ,42.41924 
54 ,11.6978 ,1.01141 ,4.28556 ,42.04988 
55 ,11.8898 ,1.01331 ,4.26502 ,41.84841 
56 ,12.0979 ,1.01538 ,4.25476 ,41.74767 
57 ,12.3223 ,1.01758 ,4.24107 ,41.61336 
58 ,12.5139 ,1.01960 ,4.20342 ,41.24400 
59 ,12.7224 ,1.02159 ,4.20000 ,41.21042 
60 ,12.9464 ,1.02385 ,4.17262 ,40.94179 
61 ,13.1386 ,1.02580 ,4.14867 ,40.70674 
62 ,13.3627 ,1.02797 ,4.14525 ,40.67317 
63 ,13.5706 ,1.03008 ,4.09391 ,40.16949 
64 ,13.8108 ,1.03237 ,4.09391 ,40.16949 
65 ,14.0349 ,1.03470 ,4.07680 ,40.00160 
66 ,14.2430 ,1.03680 ,4.07338 ,39.96802 
67 ,14.4352 ,1.03871 ,4.02547 ,39.49793 
68 ,14.6748 ,1.04115 ,4.01520 ,39.39719 
69 ,14.8991 ,1.04333 ,4.02205 ,39.46435 
70 ,15.1075 ,1.04546 ,3.98098 ,39.06141 
71 ,15.3312 ,1.04768 ,3.95361 ,38.79278 
72 ,15.5396 ,1.04976 ,3.93992 ,38.65847 
73 ,15.7475 ,1.05183 ,3.90570 ,38.32268 
74 ,15.9716 ,1.05406 ,3.89201 ,38.18837 
75 ,16.1957 ,1.05633 ,3.88858 ,38.15479 
76 ,16.4040 ,1.05835 ,3.85436 ,37.81901 
77 ,16.6121 ,1.06049 ,3.83383 ,37.61754 
78 ,16.8361 ,1.06259 ,3.83383 ,37.61754 
79 ,17.0440 ,1.06485 ,3.79276 ,37.21460 
80 ,17.2682 ,1.06699 ,3.76881 ,36.97955 
81 ,17.4923 ,1.06932 ,3.75854 ,36.87882 
82 ,17.7003 ,1.07132 ,3.75512 ,36.84524 
83 ,17.9086 ,1.07343 ,3.71405 ,36.44230 
84 ,18.1166 ,1.07553 ,3.72090 ,36.50946 
85 ,18.3407 ,1.07773 ,3.69352 ,36.24083 
86 ,18.5487 ,1.07986 ,3.65588 ,35.87147 
87 ,18.7567 ,1.08193 ,3.65246 ,35.83789 
88 ,18.9649 ,1.08400 ,3.61139 ,35.43495 
89 ,19.1726 ,1.08604 ,3.62166 ,35.53569 
90 ,19.3812 ,1.08814 ,3.60454 ,35.36779 
91 ,19.6050 ,1.09037 ,3.57032 ,35.03201 
92 ,19.8134 ,1.09253 ,3.56006 ,34.93128 
93 ,20.0377 ,1.09473 ,3.53268 ,34.66265 
94 ,20.2452 ,1.09683 ,3.50872 ,34.42760 
95 ,20.4537 ,1.09887 ,3.51557 ,34.49476 
96 ,20.6618 ,1.10099 ,3.48135 ,34.15898 
97 ,20.8698 ,1.10306 ,3.46424 ,33.99108 
98 ,21.0939 ,1.10529 ,3.47108 ,34.05824 
99 ,21.3017 ,1.10736 ,3.41975 ,33.55457 
100 ,21.5098 ,1.10948 ,3.41975 ,33.55457 
101 ,21.7179 ,1.11156 ,3.41633 ,33.52099 
102 ,21.9261 ,1.11359 ,3.36842 ,33.05089 
103 ,22.1344 ,1.11569 ,3.36842 ,33.05089 
104 ,22.3265 ,1.11774 ,3.32735 ,32.64795 
105 ,22.5183 ,1.11951 ,3.32735 ,32.64795 
106 ,22.7424 ,1.12179 ,3.29655 ,32.34575 
107 ,22.9502 ,1.12385 ,3.28971 ,32.27859 
108 ,23.1586 ,1.12589 ,3.27259 ,32.11070 
109 ,23.3670 ,1.12794 ,3.23837 ,31.77492 
110 ,23.5746 ,1.13019 ,3.24180 ,31.80849 
111 ,23.7668 ,1.13204 ,3.21100 ,31.50629 
112 ,23.9911 ,1.13424 ,3.20415 ,31.43913 
113 ,24.1833 ,1.13618 ,3.16651 ,31.06977 
114 ,24.3913 ,1.13819 ,3.17335 ,31.13693 
115 ,24.5990 ,1.14030 ,3.13913 ,30.80115 
116 ,24.8077 ,1.14240 ,3.12544 ,30.66683 
117 ,25.0154 ,1.14447 ,3.11518 ,30.56610 
118 ,25.2393 ,1.14669 ,3.09464 ,30.36463 
119 ,25.4796 ,1.14914 ,3.05700 ,29.99527 
120 ,25.7034 ,1.15132 ,3.05015 ,29.92811 
121 ,25.9120 ,1.15347 ,3.03989 ,29.82737 
122 ,26.1519 ,1.15573 ,3.02278 ,29.65948 
123 ,26.3602 ,1.15788 ,2.97487 ,29.18939 
124 ,26.5843 ,1.16017 ,2.96118 ,29.05507 
125 ,26.7924 ,1.16224 ,2.96802 ,29.12223 
126 ,27.0002 ,1.16438 ,2.92011 ,28.65213 
127 ,27.2086 ,1.16641 ,2.93380 ,28.78645 
128 ,27.4167 ,1.16852 ,2.92011 ,28.65213 
129 ,27.6247 ,1.17062 ,2.87905 ,28.24919 
130 ,27.8486 ,1.17273 ,2.88589 ,28.31635 
131 ,28.0248 ,1.17472 ,2.84482 ,27.91341 
132 ,28.2169 ,1.17652 ,2.83456 ,27.81268 
133 ,28.4409 ,1.17873 ,2.80034 ,27.47689 
134 ,28.6332 ,1.18063 ,2.80718 ,27.54405 
135 ,28.8570 ,1.18291 ,2.78665 ,27.34258 
136 ,29.0809 ,1.18510 ,2.76954 ,27.17469 
137 ,29.2893 ,1.18716 ,2.76269 ,27.10753 
138 ,29.4973 ,1.18935 ,2.73874 ,26.87248 
139 ,29.7053 ,1.19133 ,2.71820 ,26.67101 
140 ,29.9135 ,1.19349 ,2.70794 ,26.57028 
141 ,30.1215 ,1.19547 ,2.67372 ,26.23450 
142 ,30.3458 ,1.19776 ,2.66345 ,26.13376 
143 ,30.5378 ,1.19983 ,2.65318 ,26.03303 
144 ,30.7459 ,1.20171 ,2.63607 ,25.86514 
145 ,30.9541 ,1.20382 ,2.61896 ,25.69724 
146 ,31.1621 ,1.20591 ,2.58816 ,25.39504 
147 ,31.3377 ,1.20780 ,2.57105 ,25.22715 
148 ,31.5302 ,1.20967 ,2.57789 ,25.29430 
149 ,31.7543 ,1.21183 ,2.54025 ,24.92494 
150 ,31.9623 ,1.21393 ,2.54367 ,24.95852 
151 ,32.1867 ,1.21614 ,2.50945 ,24.62274 
152 ,32.3943 ,1.21827 ,2.48892 ,24.42127 
153 ,32.5867 ,1.22024 ,2.47181 ,24.25338 
154 ,32.7947 ,1.22226 ,2.45470 ,24.08549 
155 ,33.0189 ,1.22442 ,2.43416 ,23.88402 
156 ,33.2272 ,1.22656 ,2.44101 ,23.95117 
157 ,33.4509 ,1.22881 ,2.40679 ,23.61539 
158 ,33.6753 ,1.23102 ,2.38968 ,23.44750 
159 ,33.8994 ,1.23324 ,2.35888 ,23.14529 
160 ,34.1073 ,1.23537 ,2.36572 ,23.21245 
161 ,34.3316 ,1.23757 ,2.33492 ,22.91024 
162 ,34.5394 ,1.23968 ,2.30412 ,22.60804 
163 ,34.7637 ,1.24198 ,2.32123 ,22.77593 
164 ,35.0038 ,1.24418 ,2.29728 ,22.54088 
165 ,35.2279 ,1.24653 ,2.28017 ,22.37299 
166 ,35.4357 ,1.24863 ,2.23568 ,21.93647 
167 ,35.6441 ,1.25073 ,2.24252 ,22.00363 
168 ,35.8682 ,1.25293 ,2.22883 ,21.86932 
169 ,36.0920 ,1.25517 ,2.19461 ,21.53353 
170 ,36.3002 ,1.25726 ,2.17750 ,21.36564 
171 ,36.5081 ,1.25931 ,2.17750 ,21.36564 
172 ,36.7001 ,1.26137 ,2.13644 ,20.96270 
173 ,36.9245 ,1.26339 ,2.13644 ,20.96270 
174 ,37.1484 ,1.26574 ,2.11932 ,20.79481 
175 ,37.3728 ,1.26794 ,2.09879 ,20.59334 
176 ,37.5809 ,1.27006 ,2.07826 ,20.39187 
177 ,37.7889 ,1.27211 ,2.07141 ,20.32472 
178 ,37.9970 ,1.27420 ,2.04061 ,20.02251 
179 ,38.2052 ,1.27634 ,2.05430 ,20.15682 
180 ,38.3974 ,1.27833 ,2.00982 ,19.72031 
181 ,38.6213 ,1.28049 ,2.00982 ,19.72031 
182 ,38.8454 ,1.28274 ,1.99270 ,19.55241 
183 ,39.0530 ,1.28491 ,1.96875 ,19.31737 
184 ,39.2611 ,1.28691 ,1.96533 ,19.28379 
185 ,39.4536 ,1.28883 ,1.92768 ,18.91443 
186 ,39.6775 ,1.29103 ,1.91742 ,18.81369 
187 ,39.9017 ,1.29323 ,1.91057 ,18.74654 
188 ,40.1096 ,1.29537 ,1.88662 ,18.51149 
189 ,40.3018 ,1.29743 ,1.86951 ,18.34360 
190 ,40.5102 ,1.29935 ,1.84897 ,18.14213 
191 ,40.7339 ,1.30157 ,1.82844 ,17.94066 
192 ,40.9423 ,1.30368 ,1.84555 ,18.10855 
193 ,41.1504 ,1.30575 ,1.80449 ,17.70561 
194 ,41.3745 ,1.30805 ,1.79080 ,17.57129 
195 ,41.5983 ,1.31027 ,1.77369 ,17.40340 
196 ,41.8065 ,1.31231 ,1.75315 ,17.20193 
197 ,42.0148 ,1.31438 ,1.73946 ,17.06762 
198 ,42.2386 ,1.31665 ,1.74289 ,17.10120 
199 ,42.4628 ,1.31887 ,1.71551 ,16.83257 
200 ,42.6549 ,1.32095 ,1.68129 ,16.49679 
201 ,42.8630 ,1.32294 ,1.69498 ,16.63110 
202 ,43.0871 ,1.32511 ,1.66418 ,16.32890 
203 ,43.2953 ,1.32721 ,1.65049 ,16.19458 
204 ,43.5033 ,1.32925 ,1.64707 ,16.16101 
205 ,43.7114 ,1.33139 ,1.59916 ,15.69091 
206 ,43.9194 ,1.33343 ,1.60942 ,15.79164 
207 ,44.1276 ,1.33551 ,1.57862 ,15.48944 
208 ,44.3517 ,1.33773 ,1.55809 ,15.28797 
209 ,44.5433 ,1.33981 ,1.56836 ,15.38871 
210 ,44.7357 ,1.34177 ,1.53413 ,15.05292 
211 ,44.9438 ,1.34375 ,1.52729 ,14.98577 
212 ,45.1677 ,1.34595 ,1.50333 ,14.75072 
213 ,45.3760 ,1.34799 ,1.49991 ,14.71714 
214 ,45.5842 ,1.35012 ,1.49307 ,14.64998 
215 ,45.7922 ,1.35222 ,1.46227 ,14.34778 
216 ,46.0164 ,1.35442 ,1.44858 ,14.21346 
217 ,46.2242 ,1.35645 ,1.43831 ,14.11273 
218 ,46.4326 ,1.35854 ,1.41778 ,13.91126 
219 ,46.6241 ,1.36064 ,1.41094 ,13.84410 
220 ,46.8482 ,1.36268 ,1.39040 ,13.64263 
221 ,47.0566 ,1.36481 ,1.38014 ,13.54190 
222 ,47.2647 ,1.36690 ,1.35618 ,13.30685 
223 ,47.4566 ,1.36891 ,1.33565 ,13.10538 
224 ,47.6810 ,1.37109 ,1.32538 ,13.00465 
225 ,47.9049 ,1.37325 ,1.30485 ,12.80318 
226 ,48.0970 ,1.37526 ,1.30827 ,12.83675 
227 ,48.3053 ,1.37729 ,1.28774 ,12.63528 
228 ,48.5133 ,1.37934 ,1.27063 ,12.46739 
229 ,48.7215 ,1.38141 ,1.25009 ,12.26592 
230 ,48.9451 ,1.38369 ,1.22614 ,12.03088 
231 ,49.1376 ,1.38573 ,1.22614 ,12.03088 
232 ,49.3458 ,1.38775 ,1.21587 ,11.93014 
233 ,49.5538 ,1.38978 ,1.20561 ,11.82941 
234 ,49.7778 ,1.39197 ,1.19192 ,11.69509 
235 ,49.9861 ,1.39406 ,1.14058 ,11.19142 
236 ,50.2101 ,1.39631 ,1.14743 ,11.25857 
237 ,50.4337 ,1.39855 ,1.14401 ,11.22500 
238 ,50.6424 ,1.40059 ,1.10636 ,10.85563 
239 ,50.8662 ,1.40287 ,1.07899 ,10.58701 
240 ,51.0745 ,1.40495 ,1.09610 ,10.75490 
241 ,51.2826 ,1.40701 ,1.05503 ,10.35196 
242 ,51.4907 ,1.40911 ,1.05845 ,10.38554 
243 ,51.6986 ,1.41118 ,1.05161 ,10.31838 
244 ,51.9070 ,1.41325 ,1.02423 ,10.04976 
245 ,52.1150 ,1.41537 ,1.02765 ,10.08333 
246 ,52.3387 ,1.41756 ,1.01054 ,9.91544 
247 ,52.5312 ,1.41953 ,0.99685 ,9.78113 
248 ,52.7551 ,1.42174 ,0.98317 ,9.64682 
249 ,52.9633 ,1.42383 ,0.94894 ,9.31103 
250 ,53.1712 ,1.42588 ,0.95237 ,9.34461 
251 ,53.3790 ,1.42803 ,0.92157 ,9.04241 
252 ,53.6036 ,1.43015 ,0.90103 ,8.84094 
253 ,53.8277 ,1.43246 ,0.90103 ,8.84094 
254 ,54.0357 ,1.43457 ,0.88392 ,8.67305 
255 ,54.2437 ,1.43663 ,0.85654 ,8.40442 
256 ,54.4675 ,1.43888 ,0.84970 ,8.33726 
257 ,54.6920 ,1.44104 ,0.84628 ,8.30368 
258 ,54.9160 ,1.44332 ,0.82232 ,8.06864 
259 ,55.1401 ,1.44560 ,0.79837 ,7.83359 
260 ,55.3483 ,1.44766 ,0.79152 ,7.76643 
261 ,55.5559 ,1.44986 ,0.78468 ,7.69927 
262 ,55.7805 ,1.45199 ,0.75730 ,7.43065 
263 ,55.9885 ,1.45410 ,0.75046 ,7.36349 
264 ,56.1967 ,1.45617 ,0.74361 ,7.29633 
265 ,56.4207 ,1.45837 ,0.70939 ,6.96055 
266 ,56.6288 ,1.46047 ,0.71966 ,7.06129 
267 ,56.8369 ,1.46258 ,0.68886 ,6.75908 
268 ,57.0448 ,1.46471 ,0.68201 ,6.69193 
269 ,57.2689 ,1.46688 ,0.67175 ,6.59119 
270 ,57.4772 ,1.46897 ,0.64779 ,6.35614 
271 ,57.7014 ,1.47120 ,0.61699 ,6.05394 
272 ,57.9091 ,1.47327 ,0.62726 ,6.15467 
273 ,58.1333 ,1.47553 ,0.61357 ,6.02036 
274 ,58.3255 ,1.47760 ,0.58277 ,5.71815 
275 ,58.5337 ,1.47952 ,0.59646 ,5.85247 
276 ,58.7739 ,1.48181 ,0.55197 ,5.41595 
277 ,58.9979 ,1.48420 ,0.54513 ,5.34879 
278 ,59.2061 ,1.48624 ,0.55197 ,5.41595 
279 ,59.4297 ,1.48847 ,0.54171 ,5.31522 
280 ,59.6378 ,1.49055 ,0.50064 ,4.91228 
281 ,59.8459 ,1.49267 ,0.50748 ,4.97943 
282 ,60.0379 ,1.49467 ,0.46984 ,4.61007 
283 ,60.2625 ,1.49668 ,0.48011 ,4.71081 
284 ,60.5021 ,1.49924 ,0.45957 ,4.50934 
285 ,60.7101 ,1.50133 ,0.44588 ,4.37502 
286 ,60.9185 ,1.50340 ,0.41509 ,4.07282 
287 ,61.1586 ,1.50580 ,0.39797 ,3.90493 
288 ,61.3670 ,1.50778 ,0.41166 ,4.03924 
289 ,61.5910 ,1.51006 ,0.39455 ,3.87135 
290 ,61.7992 ,1.51213 ,0.36033 ,3.53557 
291 ,62.0231 ,1.51440 ,0.36375 ,3.56914 
292 ,62.2149 ,1.51634 ,0.34322 ,3.36767 
293 ,62.4233 ,1.51838 ,0.33638 ,3.30052 
294 ,62.6315 ,1.52043 ,0.32269 ,3.16620 
295 ,62.8557 ,1.52275 ,0.28847 ,2.83042 
296 ,63.0794 ,1.52497 ,0.29531 ,2.89758 
297 ,63.3034 ,1.52721 ,0.28847 ,2.83042 
298 ,63.5119 ,1.52931 ,0.26451 ,2.59537 
299 ,63.7197 ,1.53137 ,0.25082 ,2.46106 
300 ,63.9120 ,1.53338 ,0.24398 ,2.39390 
301 ,64.1200 ,1.53539 ,0.22687 ,2.22601 
302 ,64.3121 ,1.53740 ,0.22344 ,2.19243 
303 ,64.5041 ,1.53932 ,0.21318 ,2.09170 
304 ,64.7123 ,1.54126 ,0.18238 ,1.78949 
305 ,64.9044 ,1.54336 ,0.17553 ,1.72234 
306 ,65.1124 ,1.54534 ,0.15158 ,1.48729 
307 ,65.3206 ,1.54736 ,0.15158 ,1.48729 
308 ,65.5442 ,1.54960 ,0.14816 ,1.45371 
309 ,65.7368 ,1.55158 ,0.10709 ,1.05077 
310 ,65.9607 ,1.55380 ,0.12078 ,1.18508 
311 ,66.1689 ,1.55590 ,0.11051 ,1.08435 
312 ,66.3930 ,1.55807 ,0.06945 ,0.68141 
313 ,66.6007 ,1.56014 ,0.07971 ,0.78214 
314 ,66.8092 ,1.56231 ,0.05234 ,0.51352 
315 ,67.0332 ,1.56447 ,0.02838 ,0.27847 
316 ,67.2412 ,1.56665 ,0.04891 ,0.47994 
317 ,67.4653 ,1.56878 ,0.03522 ,0.34563 
318 ,67.6574 ,1.57082 ,0.00443 ,0.04342 
319 ,67.8653 ,1.57283 ,-0.01269 ,-0.12447 
320 ,68.0896 ,1.57502 ,-0.02980 ,-0.29236 
321 ,68.2978 ,1.57718 ,-0.02637 ,-0.25878 
322 ,68.5219 ,1.57935 ,-0.02637 ,-0.25878 
323 ,68.7300 ,1.58140 ,-0.08113 ,-0.79604 
324 ,68.9540 ,1.58368 ,-0.07771 ,-0.76246 
325 ,69.1622 ,1.58582 ,-0.07771 ,-0.76246 
326 ,69.3702 ,1.58785 ,-0.10508 ,-1.03108 
327 ,69.5943 ,1.59006 ,-0.12562 ,-1.23255 
328 ,69.8023 ,1.59215 ,-0.10508 ,-1.03108 
329 ,69.9945 ,1.59417 ,-0.13588 ,-1.33329 
330 ,70.2027 ,1.59614 ,-0.13246 ,-1.29971 
331 ,70.4428 ,1.59853 ,-0.14615 ,-1.43402 
332 ,70.6667 ,1.60080 ,-0.18037 ,-1.76981 
333 ,70.8748 ,1.60293 ,-0.19748 ,-1.93770 
334 ,71.0830 ,1.60496 ,-0.18722 ,-1.83696 
335 ,71.2910 ,1.60698 ,-0.22828 ,-2.23990 
336 ,71.4989 ,1.60920 ,-0.22486 ,-2.20632 
337 ,71.7229 ,1.61136 ,-0.21802 ,-2.13917 
338 ,71.9469 ,1.61359 ,-0.25566 ,-2.50853 
339 ,72.1547 ,1.61569 ,-0.25908 ,-2.54211 
340 ,72.3635 ,1.61777 ,-0.27619 ,-2.71000 
341 ,72.5876 ,1.62000 ,-0.29330 ,-2.87789 
342 ,72.8116 ,1.62222 ,-0.30357 ,-2.97863 
343 ,73.0196 ,1.62427 ,-0.30015 ,-2.94505 
344 ,73.2434 ,1.62660 ,-0.31384 ,-3.07936 
345 ,73.4519 ,1.62861 ,-0.33779 ,-3.31441 
346 ,73.6918 ,1.63092 ,-0.34121 ,-3.34799 
347 ,73.9001 ,1.63319 ,-0.34806 ,-3.41514 
348 ,74.1083 ,1.63519 ,-0.38228 ,-3.75093 
349 ,74.3320 ,1.63745 ,-0.39255 ,-3.85166 
350 ,74.5564 ,1.63972 ,-0.38912 ,-3.81808 
351 ,74.7644 ,1.64178 ,-0.40966 ,-4.01955 
352 ,74.9725 ,1.64385 ,-0.41650 ,-4.08671 
353 ,75.1964 ,1.64603 ,-0.41992 ,-4.12029 
354 ,75.4047 ,1.64816 ,-0.45072 ,-4.42249 
355 ,75.6128 ,1.65026 ,-0.44730 ,-4.38891 
356 ,75.8369 ,1.65249 ,-0.46783 ,-4.59038 
357 ,76.0610 ,1.65470 ,-0.47126 ,-4.62396 
358 ,76.2691 ,1.65679 ,-0.51232 ,-5.02690 
359 ,76.4773 ,1.65892 ,-0.48494 ,-4.75828 
360 ,76.7012 ,1.66115 ,-0.52601 ,-5.16121 
361 ,76.9090 ,1.66336 ,-0.52943 ,-5.19479 
362 ,77.0854 ,1.66514 ,-0.52259 ,-5.12764 
363 ,77.2933 ,1.66705 ,-0.55681 ,-5.46342 
364 ,77.5013 ,1.66915 ,-0.57734 ,-5.66489 
365 ,77.7252 ,1.67132 ,-0.57734 ,-5.66489 
366 ,77.9338 ,1.67342 ,-0.57392 ,-5.63131 
367 ,78.1416 ,1.67559 ,-0.60130 ,-5.89994 
368 ,78.3500 ,1.67759 ,-0.61499 ,-6.03425 
369 ,78.5739 ,1.67982 ,-0.61156 ,-6.00067 
370 ,78.7817 ,1.68190 ,-0.64236 ,-6.30288 
371 ,78.9902 ,1.68402 ,-0.64236 ,-6.30288 
372 ,79.1980 ,1.68612 ,-0.64921 ,-6.37003 
373 ,79.4065 ,1.68816 ,-0.68343 ,-6.70582 
374 ,79.6306 ,1.69037 ,-0.67659 ,-6.63866 
375 ,79.8382 ,1.69247 ,-0.68343 ,-6.70582 
376 ,80.0627 ,1.69474 ,-0.70739 ,-6.94086 
377 ,80.2867 ,1.69692 ,-0.72107 ,-7.07518 
378 ,80.4949 ,1.69901 ,-0.72792 ,-7.14233 
379 ,80.7190 ,1.70124 ,-0.74503 ,-7.31023 
380 ,80.9270 ,1.70333 ,-0.75187 ,-7.37738 
381 ,81.1512 ,1.70568 ,-0.74161 ,-7.27665 
382 ,81.3749 ,1.70783 ,-0.76556 ,-7.51170 
383 ,81.6154 ,1.71021 ,-0.77925 ,-7.64601 
384 ,81.8394 ,1.71244 ,-0.80663 ,-7.91464 
385 ,82.0473 ,1.71455 ,-0.80663 ,-7.91464 
386 ,82.2876 ,1.71699 ,-0.82716 ,-8.11611 
387 ,82.5116 ,1.71920 ,-0.82374 ,-8.08253 
388 ,82.7198 ,1.72129 ,-0.85796 ,-8.41831 
389 ,82.9116 ,1.72331 ,-0.85796 ,-8.41831 
390 ,83.1200 ,1.72522 ,-0.87165 ,-8.55262 
391 ,83.3441 ,1.72757 ,-0.89218 ,-8.75409 
392 ,83.5523 ,1.72964 ,-0.87849 ,-8.61978 
393 ,83.7602 ,1.73177 ,-0.90929 ,-8.92198 
394 ,83.9844 ,1.73379 ,-0.90245 ,-8.85483 
395 ,84.1925 ,1.73605 ,-0.90245 ,-8.85483 
396 ,84.4165 ,1.73819 ,-0.94694 ,-9.29135 
397 ,84.6246 ,1.74032 ,-0.95036 ,-9.32492 
398 ,84.8325 ,1.74242 ,-0.94009 ,-9.22419 
399 ,85.0568 ,1.74461 ,-0.96063 ,-9.42566 
400 ,85.2808 ,1.74691 ,-0.98116 ,-9.62713 
401 ,85.4888 ,1.74897 ,-0.97774 ,-9.59355 
402 ,85.7129 ,1.75108 ,-0.99143 ,-9.72786 
403 ,85.9210 ,1.75326 ,-1.02907 ,-10.09723 
404 ,86.1452 ,1.75554 ,-1.03249 ,-10.13080 
405 ,86.3691 ,1.75774 ,-1.02565 ,-10.06365 
406 ,86.5933 ,1.75997 ,-1.04276 ,-10.23154 
407 ,86.8014 ,1.76201 ,-1.07014 ,-10.50016 
408 ,87.0095 ,1.76418 ,-1.06329 ,-10.43301 
409 ,87.2175 ,1.76628 ,-1.08040 ,-10.60090 
410 ,87.4257 ,1.76835 ,-1.08382 ,-10.63448 
411 ,87.6333 ,1.77042 ,-1.09409 ,-10.73521 
412 ,87.8258 ,1.77249 ,-1.10778 ,-10.86953 
413 ,88.0500 ,1.77453 ,-1.10436 ,-10.83595 
414 ,88.2580 ,1.77666 ,-1.13858 ,-11.17173 
415 ,88.4821 ,1.77887 ,-1.13173 ,-11.10457 
416 ,88.6897 ,1.78091 ,-1.13173 ,-11.10457 
417 ,88.8982 ,1.78312 ,-1.16938 ,-11.47394 
418 ,89.1064 ,1.78521 ,-1.15569 ,-11.33962 
419 ,89.3145 ,1.78718 ,-1.18307 ,-11.60825 
420 ,89.5386 ,1.78941 ,-1.19676 ,-11.74256 
421 ,89.7466 ,1.79154 ,-1.17622 ,-11.54109 
422 ,89.9544 ,1.79364 ,-1.22071 ,-11.97761 
423 ,90.1629 ,1.79564 ,-1.22071 ,-11.97761 
424 ,90.3709 ,1.79778 ,-1.23098 ,-12.07834 
425 ,90.5790 ,1.79988 ,-1.24124 ,-12.17908 
426 ,90.7872 ,1.80195 ,-1.23440 ,-12.11192 
427 ,90.9951 ,1.80397 ,-1.26520 ,-12.41413 
428 ,91.1873 ,1.80607 ,-1.25835 ,-12.34697 
429 ,91.3793 ,1.80798 ,-1.28231 ,-12.58202 
430 ,91.5874 ,1.80998 ,-1.26178 ,-12.38055 
431 ,91.8118 ,1.81212 ,-1.29942 ,-12.74991 
432 ,92.0192 ,1.81426 ,-1.31311 ,-12.88422 
433 ,92.2277 ,1.81639 ,-1.30626 ,-12.81707 
434 ,92.4518 ,1.81853 ,-1.32680 ,-13.01854 
435 ,92.6919 ,1.82097 ,-1.34391 ,-13.18643 
436 ,92.8999 ,1.82317 ,-1.35760 ,-13.32074 
437 ,93.1078 ,1.82512 ,-1.34733 ,-13.22001 
438 ,93.3320 ,1.82738 ,-1.38155 ,-13.55579 
439 ,93.5562 ,1.82960 ,-1.38497 ,-13.58937 
440 ,93.7483 ,1.83164 ,-1.36786 ,-13.42148 
441 ,93.9563 ,1.83365 ,-1.39866 ,-13.72368 
442 ,94.1805 ,1.83586 ,-1.39524 ,-13.69010 
443 ,94.4045 ,1.83815 ,-1.40893 ,-13.82442 
444 ,94.6287 ,1.84031 ,-1.42604 ,-13.99231 
445 ,94.8366 ,1.84239 ,-1.44657 ,-14.19378 
446 ,95.0449 ,1.84448 ,-1.44657 ,-14.19378 
447 ,95.2526 ,1.84658 ,-1.47737 ,-14.49598 
448 ,95.4770 ,1.84881 ,-1.47395 ,-14.46240 
449 ,95.7012 ,1.85107 ,-1.46368 ,-14.36167 
450 ,95.9248 ,1.85325 ,-1.48764 ,-14.59672 
451 ,96.1173 ,1.85526 ,-1.50133 ,-14.73103 
452 ,96.3415 ,1.85748 ,-1.48422 ,-14.56314 
453 ,96.5654 ,1.85968 ,-1.51502 ,-14.86534 
454 ,96.7735 ,1.86172 ,-1.52871 ,-14.99966 
455 ,96.9973 ,1.86405 ,-1.52186 ,-14.93250 
456 ,97.2061 ,1.86608 ,-1.53213 ,-15.03324 
457 ,97.4137 ,1.86815 ,-1.56977 ,-15.40260 
458 ,97.6216 ,1.87020 ,-1.55950 ,-15.30186 
459 ,97.8140 ,1.87223 ,-1.57662 ,-15.46975 
460 ,98.0220 ,1.87429 ,-1.56977 ,-15.40260 
