Data stamp = , 18-05-2022 20:23:35 685

Calibration Values: 
Slope = , 26.54 , g/V 
Offset Voltage at no contact = , -0.501760 , V 

No , Time , Stage Position ,   Mass , Force 
   ,  (s) ,      (mm)      ,   (g)  , (mN)  

1 ,0.0000 ,0.89963 ,5.32932 ,52.29126 
2 ,0.2091 ,0.89969 ,5.33616 ,52.35841 
3 ,0.9453 ,0.90296 ,5.32247 ,52.22410 
4 ,1.1536 ,0.90594 ,5.32589 ,52.25768 
5 ,1.3459 ,0.90780 ,5.31221 ,52.12337 
6 ,1.5535 ,0.90994 ,5.32247 ,52.22410 
7 ,1.7621 ,0.91199 ,5.28141 ,51.82116 
8 ,2.0021 ,0.91435 ,5.28141 ,51.82116 
9 ,2.1942 ,0.91642 ,5.26430 ,51.65327 
10 ,2.3862 ,0.91832 ,5.23350 ,51.35107 
11 ,2.5944 ,0.92039 ,5.23692 ,51.38464 
12 ,2.8187 ,0.92259 ,5.19243 ,50.94813 
13 ,3.0263 ,0.92470 ,5.16848 ,50.71308 
14 ,3.2182 ,0.92663 ,5.16505 ,50.67950 
15 ,3.4265 ,0.92862 ,5.12741 ,50.31014 
16 ,3.6507 ,0.93088 ,5.11714 ,50.20940 
17 ,3.8427 ,0.93294 ,5.08977 ,49.94078 
18 ,4.0350 ,0.93477 ,5.09319 ,49.97436 
19 ,4.2269 ,0.93665 ,5.04870 ,49.53784 
20 ,4.4350 ,0.93872 ,5.04528 ,49.50426 
21 ,4.6272 ,0.94065 ,5.01106 ,49.16848 
22 ,4.8510 ,0.94289 ,5.00763 ,49.13490 
23 ,5.0593 ,0.94499 ,4.97341 ,48.79911 
24 ,5.2996 ,0.94721 ,4.96315 ,48.69838 
25 ,5.5077 ,0.94945 ,4.91181 ,48.19471 
26 ,5.7157 ,0.95154 ,4.91866 ,48.26186 
27 ,5.9234 ,0.95358 ,4.87759 ,47.85892 
28 ,6.1317 ,0.95569 ,4.88101 ,47.89250 
29 ,6.3557 ,0.95793 ,4.85021 ,47.59030 
30 ,6.5642 ,0.96002 ,4.81599 ,47.25451 
31 ,6.7881 ,0.96222 ,4.80573 ,47.15378 
32 ,7.0122 ,0.96451 ,4.79204 ,47.01946 
33 ,7.2043 ,0.96643 ,4.75782 ,46.68368 
34 ,7.4124 ,0.96849 ,4.76124 ,46.71726 
35 ,7.6045 ,0.97043 ,4.71333 ,46.24716 
36 ,7.8123 ,0.97253 ,4.71675 ,46.28074 
37 ,8.0207 ,0.97452 ,4.68253 ,45.94496 
38 ,8.2123 ,0.97659 ,4.67226 ,45.84422 
39 ,8.4047 ,0.97853 ,4.65173 ,45.64275 
40 ,8.6130 ,0.98050 ,4.64831 ,45.60918 
41 ,8.8368 ,0.98271 ,4.61751 ,45.30697 
42 ,9.0452 ,0.98480 ,4.58671 ,45.00477 
43 ,9.2691 ,0.98701 ,4.56960 ,44.83688 
44 ,9.4772 ,0.98911 ,4.56275 ,44.76972 
45 ,9.7013 ,0.99136 ,4.53537 ,44.50109 
46 ,9.9094 ,0.99341 ,4.52511 ,44.40036 
47 ,10.1335 ,0.99569 ,4.50457 ,44.19889 
48 ,10.3414 ,0.99776 ,4.46009 ,43.76237 
49 ,10.5655 ,0.99999 ,4.44298 ,43.59448 
50 ,10.7738 ,1.00214 ,4.44298 ,43.59448 
51 ,10.9977 ,1.00429 ,4.40875 ,43.25870 
52 ,11.2060 ,1.00635 ,4.37453 ,42.92291 
53 ,11.4141 ,1.00847 ,4.39164 ,43.09080 
54 ,11.6378 ,1.01070 ,4.34373 ,42.62071 
55 ,11.8302 ,1.01267 ,4.35400 ,42.72144 
56 ,12.0383 ,1.01477 ,4.30951 ,42.28492 
57 ,12.2463 ,1.01679 ,4.29924 ,42.18419 
58 ,12.4705 ,1.01898 ,4.28556 ,42.04988 
59 ,12.6622 ,1.02106 ,4.25818 ,41.78125 
60 ,12.8706 ,1.02303 ,4.25818 ,41.78125 
61 ,13.0785 ,1.02508 ,4.21711 ,41.37831 
62 ,13.3028 ,1.02739 ,4.17262 ,40.94179 
63 ,13.5268 ,1.02957 ,4.16920 ,40.90821 
64 ,13.7348 ,1.03167 ,4.17262 ,40.94179 
65 ,13.9592 ,1.03393 ,4.12814 ,40.50527 
66 ,14.1831 ,1.03622 ,4.10760 ,40.30380 
67 ,14.3911 ,1.03825 ,4.11787 ,40.40454 
68 ,14.5993 ,1.04036 ,4.07680 ,40.00160 
69 ,14.8073 ,1.04247 ,4.06654 ,39.90087 
70 ,15.0156 ,1.04448 ,4.04258 ,39.66582 
71 ,15.2397 ,1.04669 ,4.01863 ,39.43077 
72 ,15.4638 ,1.04893 ,4.00152 ,39.26288 
73 ,15.6879 ,1.05122 ,3.98441 ,39.09499 
74 ,15.9119 ,1.05345 ,3.97756 ,39.02783 
75 ,16.1517 ,1.05565 ,3.93307 ,38.59131 
76 ,16.3601 ,1.05798 ,3.90570 ,38.32268 
77 ,16.5843 ,1.06014 ,3.89201 ,38.18837 
78 ,16.7923 ,1.06224 ,3.89885 ,38.25553 
79 ,17.0166 ,1.06447 ,3.86805 ,37.95332 
80 ,17.2244 ,1.06657 ,3.83383 ,37.61754 
81 ,17.4487 ,1.06878 ,3.82699 ,37.55038 
82 ,17.6727 ,1.07103 ,3.81330 ,37.41607 
83 ,17.8648 ,1.07301 ,3.76881 ,36.97955 
84 ,18.0729 ,1.07501 ,3.78592 ,37.14744 
85 ,18.2967 ,1.07729 ,3.74828 ,36.77808 
86 ,18.5052 ,1.07933 ,3.72774 ,36.57661 
87 ,18.7287 ,1.08156 ,3.72774 ,36.57661 
88 ,18.9371 ,1.08365 ,3.67983 ,36.10652 
89 ,19.1453 ,1.08575 ,3.67983 ,36.10652 
90 ,19.3530 ,1.08791 ,3.66272 ,35.93863 
91 ,19.5615 ,1.08990 ,3.63192 ,35.63642 
92 ,19.7856 ,1.09216 ,3.60454 ,35.36779 
93 ,19.9937 ,1.09426 ,3.60454 ,35.36779 
94 ,20.2178 ,1.09643 ,3.56006 ,34.93128 
95 ,20.4255 ,1.09856 ,3.55663 ,34.89770 
96 ,20.6501 ,1.10082 ,3.55321 ,34.86412 
97 ,20.8741 ,1.10308 ,3.52584 ,34.59549 
98 ,21.0661 ,1.10510 ,3.49161 ,34.25971 
99 ,21.2743 ,1.10710 ,3.49161 ,34.25971 
100 ,21.4983 ,1.10924 ,3.45739 ,33.92393 
101 ,21.7224 ,1.11150 ,3.44370 ,33.78961 
102 ,21.9305 ,1.11362 ,3.43686 ,33.72246 
103 ,22.1387 ,1.11567 ,3.40264 ,33.38667 
104 ,22.3464 ,1.11784 ,3.38895 ,33.25236 
105 ,22.5387 ,1.11969 ,3.36842 ,33.05089 
106 ,22.7306 ,1.12163 ,3.36842 ,33.05089 
107 ,22.9389 ,1.12367 ,3.32735 ,32.64795 
108 ,23.1469 ,1.12576 ,3.32735 ,32.64795 
109 ,23.3551 ,1.12789 ,3.30682 ,32.44648 
110 ,23.5633 ,1.12996 ,3.27944 ,32.17786 
111 ,23.7711 ,1.13200 ,3.27944 ,32.17786 
112 ,23.9794 ,1.13418 ,3.23837 ,31.77492 
113 ,24.2031 ,1.13628 ,3.22468 ,31.64060 
114 ,24.3952 ,1.13831 ,3.21442 ,31.53987 
115 ,24.6033 ,1.14028 ,3.20073 ,31.40555 
116 ,24.8115 ,1.14246 ,3.18704 ,31.27124 
117 ,25.0200 ,1.14452 ,3.15966 ,31.00262 
118 ,25.2440 ,1.14670 ,3.13913 ,30.80115 
119 ,25.4358 ,1.14871 ,3.12202 ,30.63325 
120 ,25.6442 ,1.15068 ,3.10491 ,30.46536 
121 ,25.8522 ,1.15282 ,3.09464 ,30.36463 
122 ,26.0599 ,1.15492 ,3.05358 ,29.96169 
123 ,26.2684 ,1.15694 ,3.05358 ,29.96169 
124 ,26.4761 ,1.15902 ,3.01593 ,29.59233 
125 ,26.6685 ,1.16099 ,3.03304 ,29.76022 
126 ,26.8765 ,1.16303 ,2.98855 ,29.32370 
127 ,27.0848 ,1.16516 ,2.99198 ,29.35728 
128 ,27.3406 ,1.16766 ,2.96118 ,29.05507 
129 ,27.5488 ,1.16975 ,2.94749 ,28.92076 
130 ,27.7570 ,1.17188 ,2.90985 ,28.55140 
131 ,27.9490 ,1.17380 ,2.92696 ,28.71929 
132 ,28.1572 ,1.17584 ,2.88589 ,28.31635 
133 ,28.3492 ,1.17788 ,2.88247 ,28.28277 
134 ,28.5249 ,1.17966 ,2.85167 ,27.98057 
135 ,28.7176 ,1.18151 ,2.85167 ,27.98057 
136 ,28.9415 ,1.18367 ,2.82087 ,27.67836 
137 ,29.1496 ,1.18581 ,2.82087 ,27.67836 
138 ,29.3573 ,1.18786 ,2.78322 ,27.30900 
139 ,29.5654 ,1.18993 ,2.78665 ,27.34258 
140 ,29.7739 ,1.19199 ,2.76611 ,27.14111 
141 ,29.9820 ,1.19409 ,2.72847 ,26.77175 
142 ,30.1900 ,1.19617 ,2.73189 ,26.80533 
143 ,30.4140 ,1.19840 ,2.69767 ,26.46954 
144 ,30.6382 ,1.20062 ,2.67029 ,26.20092 
145 ,30.8622 ,1.20286 ,2.66687 ,26.16734 
146 ,31.0699 ,1.20496 ,2.67029 ,26.20092 
147 ,31.2624 ,1.20690 ,2.61896 ,25.69724 
148 ,31.4705 ,1.20893 ,2.62923 ,25.79798 
149 ,31.6621 ,1.21101 ,2.58474 ,25.36146 
150 ,31.8707 ,1.21295 ,2.59158 ,25.42862 
151 ,32.0787 ,1.21500 ,2.56078 ,25.12641 
152 ,32.2868 ,1.21709 ,2.56763 ,25.19357 
153 ,32.4789 ,1.21907 ,2.50945 ,24.62274 
154 ,32.7029 ,1.22117 ,2.52314 ,24.75705 
155 ,32.9271 ,1.22347 ,2.51630 ,24.68989 
156 ,33.1509 ,1.22573 ,2.48550 ,24.38769 
157 ,33.3433 ,1.22774 ,2.45812 ,24.11906 
158 ,33.5674 ,1.22987 ,2.45470 ,24.08549 
159 ,33.7755 ,1.23197 ,2.41705 ,23.71612 
160 ,33.9996 ,1.23424 ,2.40336 ,23.58181 
161 ,34.2238 ,1.23649 ,2.38968 ,23.44750 
162 ,34.4157 ,1.23853 ,2.37941 ,23.34676 
163 ,34.6238 ,1.24048 ,2.35888 ,23.14529 
164 ,34.8318 ,1.24257 ,2.35545 ,23.11171 
165 ,35.0240 ,1.24453 ,2.31439 ,22.70877 
166 ,35.2162 ,1.24644 ,2.31439 ,22.70877 
167 ,35.4241 ,1.24853 ,2.28701 ,22.44015 
168 ,35.6163 ,1.25045 ,2.27332 ,22.30584 
169 ,35.8402 ,1.25261 ,2.25279 ,22.10437 
170 ,36.0480 ,1.25474 ,2.25279 ,22.10437 
171 ,36.2567 ,1.25687 ,2.21857 ,21.76858 
172 ,36.4802 ,1.25907 ,2.18435 ,21.43280 
173 ,36.7048 ,1.26128 ,2.19461 ,21.53353 
174 ,36.9129 ,1.26339 ,2.19119 ,21.49996 
175 ,37.1367 ,1.26563 ,2.15697 ,21.16417 
176 ,37.3609 ,1.26780 ,2.14670 ,21.06344 
177 ,37.5851 ,1.27006 ,2.11590 ,20.76123 
178 ,37.7932 ,1.27220 ,2.11248 ,20.72766 
179 ,38.0011 ,1.27427 ,2.06799 ,20.29114 
180 ,38.2091 ,1.27634 ,2.07826 ,20.39187 
181 ,38.4495 ,1.27858 ,2.04061 ,20.02251 
182 ,38.6735 ,1.28093 ,2.04746 ,20.08967 
183 ,38.8816 ,1.28303 ,2.00297 ,19.65315 
184 ,39.1057 ,1.28521 ,2.00639 ,19.68673 
185 ,39.3135 ,1.28739 ,1.99270 ,19.55241 
186 ,39.5218 ,1.28941 ,1.97559 ,19.38452 
187 ,39.7300 ,1.29154 ,1.95164 ,19.14948 
188 ,39.9380 ,1.29357 ,1.92768 ,18.91443 
189 ,40.1621 ,1.29581 ,1.90715 ,18.71296 
190 ,40.3701 ,1.29795 ,1.91742 ,18.81369 
191 ,40.5942 ,1.30018 ,1.89004 ,18.54507 
192 ,40.8023 ,1.30225 ,1.85924 ,18.24286 
193 ,41.0103 ,1.30441 ,1.86266 ,18.27644 
194 ,41.2185 ,1.30639 ,1.83528 ,18.00781 
195 ,41.4425 ,1.30862 ,1.80791 ,17.73919 
196 ,41.6181 ,1.31056 ,1.81133 ,17.77276 
197 ,41.8267 ,1.31249 ,1.78737 ,17.53772 
198 ,42.0347 ,1.31466 ,1.77711 ,17.43698 
199 ,42.2430 ,1.31660 ,1.74973 ,17.16836 
200 ,42.4510 ,1.31869 ,1.76342 ,17.30267 
201 ,42.6746 ,1.32095 ,1.73262 ,17.00046 
202 ,42.8832 ,1.32307 ,1.70182 ,16.69826 
203 ,43.1068 ,1.32524 ,1.69840 ,16.66468 
204 ,43.3149 ,1.32734 ,1.68129 ,16.49679 
205 ,43.5230 ,1.32950 ,1.65391 ,16.22816 
206 ,43.7151 ,1.33148 ,1.64707 ,16.16101 
207 ,43.9392 ,1.33353 ,1.62653 ,15.95954 
208 ,44.1471 ,1.33570 ,1.60258 ,15.72449 
209 ,44.3553 ,1.33774 ,1.60258 ,15.72449 
210 ,44.5634 ,1.33986 ,1.57178 ,15.42228 
211 ,44.7554 ,1.34186 ,1.57862 ,15.48944 
212 ,44.9635 ,1.34387 ,1.54440 ,15.15366 
213 ,45.2035 ,1.34615 ,1.54098 ,15.12008 
214 ,45.4116 ,1.34843 ,1.52729 ,14.98577 
215 ,45.6358 ,1.35053 ,1.50333 ,14.75072 
216 ,45.8439 ,1.35263 ,1.48280 ,14.54925 
217 ,46.0519 ,1.35470 ,1.48280 ,14.54925 
218 ,46.2601 ,1.35687 ,1.44174 ,14.14631 
219 ,46.4682 ,1.35892 ,1.43831 ,14.11273 
220 ,46.6923 ,1.36104 ,1.41436 ,13.87768 
221 ,46.9004 ,1.36322 ,1.39725 ,13.70979 
222 ,47.1244 ,1.36534 ,1.39383 ,13.67621 
223 ,47.3486 ,1.36768 ,1.37329 ,13.47474 
224 ,47.5566 ,1.36977 ,1.35618 ,13.30685 
225 ,47.7648 ,1.37181 ,1.33907 ,13.13896 
226 ,47.9572 ,1.37383 ,1.34249 ,13.17254 
227 ,48.1651 ,1.37586 ,1.30485 ,12.80318 
228 ,48.3892 ,1.37802 ,1.29458 ,12.70244 
229 ,48.6295 ,1.38039 ,1.28774 ,12.63528 
230 ,48.8536 ,1.38280 ,1.27405 ,12.50097 
231 ,49.0456 ,1.38477 ,1.23298 ,12.09803 
232 ,49.2538 ,1.38676 ,1.25009 ,12.26592 
233 ,49.5899 ,1.38950 ,1.20903 ,11.86298 
234 ,49.8136 ,1.39232 ,1.20561 ,11.82941 
235 ,50.0060 ,1.39427 ,1.18165 ,11.59436 
236 ,50.2144 ,1.39646 ,1.19192 ,11.69509 
237 ,50.4062 ,1.39841 ,1.14743 ,11.25857 
238 ,50.6144 ,1.40035 ,1.14743 ,11.25857 
239 ,50.8382 ,1.40255 ,1.12347 ,11.02353 
240 ,51.0147 ,1.40452 ,1.11663 ,10.95637 
241 ,51.2227 ,1.40647 ,1.09267 ,10.72132 
242 ,51.4464 ,1.40863 ,1.08241 ,10.62059 
243 ,51.6225 ,1.41056 ,1.06187 ,10.41912 
244 ,51.8145 ,1.41237 ,1.06530 ,10.45270 
245 ,52.0230 ,1.41440 ,1.03108 ,10.11691 
246 ,52.2311 ,1.41645 ,1.04819 ,10.28480 
247 ,52.4388 ,1.41857 ,1.00370 ,9.84829 
248 ,52.6467 ,1.42068 ,0.99343 ,9.74755 
249 ,52.8554 ,1.42273 ,0.99343 ,9.74755 
250 ,53.0793 ,1.42498 ,0.97632 ,9.57966 
251 ,53.2874 ,1.42703 ,0.95237 ,9.34461 
252 ,53.4956 ,1.42925 ,0.94894 ,9.31103 
253 ,53.7036 ,1.43120 ,0.91814 ,9.00883 
254 ,53.9116 ,1.43329 ,0.92841 ,9.10956 
255 ,54.1200 ,1.43536 ,0.89761 ,8.80736 
256 ,54.3279 ,1.43747 ,0.88050 ,8.63947 
257 ,54.5518 ,1.43967 ,0.87366 ,8.57231 
258 ,54.7760 ,1.44195 ,0.87366 ,8.57231 
259 ,54.9842 ,1.44399 ,0.83259 ,8.16937 
260 ,55.1923 ,1.44607 ,0.83601 ,8.20295 
261 ,55.4000 ,1.44818 ,0.80863 ,7.93432 
262 ,55.5924 ,1.45018 ,0.80179 ,7.86717 
263 ,55.8006 ,1.45218 ,0.78468 ,7.69927 
264 ,55.9923 ,1.45419 ,0.77784 ,7.63212 
265 ,56.2168 ,1.45632 ,0.76415 ,7.49780 
266 ,56.4248 ,1.45847 ,0.73677 ,7.22918 
267 ,56.6489 ,1.46068 ,0.72650 ,7.12844 
268 ,56.8731 ,1.46289 ,0.71966 ,7.06129 
269 ,57.0809 ,1.46495 ,0.69913 ,6.85982 
270 ,57.3214 ,1.46731 ,0.69228 ,6.79266 
271 ,57.5453 ,1.46961 ,0.67517 ,6.62477 
272 ,57.7533 ,1.47175 ,0.68201 ,6.69193 
273 ,57.9615 ,1.47381 ,0.64095 ,6.28899 
274 ,58.1696 ,1.47583 ,0.63068 ,6.18825 
275 ,58.3937 ,1.47812 ,0.63068 ,6.18825 
276 ,58.6017 ,1.48026 ,0.61699 ,6.05394 
277 ,58.8099 ,1.48225 ,0.58619 ,5.75173 
278 ,59.0178 ,1.48432 ,0.57935 ,5.68458 
279 ,59.2420 ,1.48655 ,0.54855 ,5.38237 
280 ,59.4340 ,1.48856 ,0.55539 ,5.44953 
281 ,59.6422 ,1.49056 ,0.53144 ,5.21448 
282 ,59.8501 ,1.49267 ,0.53144 ,5.21448 
283 ,60.0582 ,1.49471 ,0.52117 ,5.11375 
284 ,60.2664 ,1.49679 ,0.49037 ,4.81154 
285 ,60.4901 ,1.49915 ,0.48011 ,4.71081 
286 ,60.6987 ,1.50111 ,0.49037 ,4.81154 
287 ,60.9067 ,1.50322 ,0.45273 ,4.44218 
288 ,61.1309 ,1.50542 ,0.46300 ,4.54291 
289 ,61.3389 ,1.50751 ,0.44588 ,4.37502 
290 ,61.5467 ,1.50961 ,0.41166 ,4.03924 
291 ,61.7550 ,1.51172 ,0.42877 ,4.20713 
292 ,61.9790 ,1.51389 ,0.39455 ,3.87135 
293 ,62.1872 ,1.51599 ,0.37744 ,3.70346 
294 ,62.4113 ,1.51825 ,0.38429 ,3.77061 
295 ,62.6193 ,1.52043 ,0.36375 ,3.56914 
296 ,62.8433 ,1.52264 ,0.31584 ,3.09905 
297 ,63.0517 ,1.52468 ,0.31926 ,3.13263 
298 ,63.2593 ,1.52672 ,0.31242 ,3.06547 
299 ,63.4518 ,1.52871 ,0.30215 ,2.96473 
300 ,63.6600 ,1.53068 ,0.29873 ,2.93116 
301 ,63.8517 ,1.53278 ,0.26793 ,2.62895 
302 ,64.0441 ,1.53463 ,0.25082 ,2.46106 
303 ,64.2521 ,1.53661 ,0.26109 ,2.56179 
304 ,64.4761 ,1.53892 ,0.24740 ,2.42748 
305 ,64.7002 ,1.54109 ,0.22687 ,2.22601 
306 ,64.8919 ,1.54316 ,0.20633 ,2.02454 
307 ,65.1005 ,1.54511 ,0.19949 ,1.95738 
308 ,65.2925 ,1.54717 ,0.17896 ,1.75592 
309 ,65.5006 ,1.54919 ,0.17553 ,1.72234 
310 ,65.7249 ,1.55136 ,0.14131 ,1.38655 
311 ,65.9485 ,1.55359 ,0.13447 ,1.31940 
312 ,66.1729 ,1.55584 ,0.14131 ,1.38655 
313 ,66.3968 ,1.55805 ,0.12078 ,1.18508 
314 ,66.5890 ,1.56002 ,0.10709 ,1.05077 
315 ,66.7651 ,1.56192 ,0.08998 ,0.88288 
316 ,66.9891 ,1.56397 ,0.06602 ,0.64783 
317 ,67.1812 ,1.56607 ,0.06602 ,0.64783 
318 ,67.3573 ,1.56785 ,0.07629 ,0.74857 
319 ,67.5489 ,1.56971 ,0.02154 ,0.21131 
320 ,67.7574 ,1.57168 ,0.03865 ,0.37920 
321 ,67.9657 ,1.57375 ,0.00100 ,0.00984 
322 ,68.1733 ,1.57582 ,0.01811 ,0.17773 
323 ,68.3657 ,1.57791 ,-0.00926 ,-0.09089 
324 ,68.5898 ,1.57996 ,-0.01269 ,-0.12447 
325 ,68.8140 ,1.58213 ,-0.02295 ,-0.22520 
326 ,69.0377 ,1.58445 ,-0.04006 ,-0.39310 
327 ,69.2458 ,1.58658 ,-0.07428 ,-0.72888 
328 ,69.4701 ,1.58890 ,-0.07771 ,-0.76246 
329 ,69.6942 ,1.59105 ,-0.08455 ,-0.82961 
330 ,69.9020 ,1.59311 ,-0.10851 ,-1.06466 
331 ,70.1105 ,1.59516 ,-0.10508 ,-1.03108 
332 ,70.3346 ,1.59744 ,-0.10508 ,-1.03108 
333 ,70.5586 ,1.59971 ,-0.14615 ,-1.43402 
334 ,70.7828 ,1.60190 ,-0.16668 ,-1.63549 
335 ,70.9909 ,1.60405 ,-0.15984 ,-1.56834 
336 ,71.2150 ,1.60628 ,-0.17011 ,-1.66907 
337 ,71.4231 ,1.60833 ,-0.20090 ,-1.97128 
338 ,71.6631 ,1.61064 ,-0.19748 ,-1.93770 
339 ,71.8871 ,1.61295 ,-0.22486 ,-2.20632 
340 ,72.1269 ,1.61534 ,-0.22486 ,-2.20632 
341 ,72.3353 ,1.61745 ,-0.23513 ,-2.30706 
342 ,72.5270 ,1.61949 ,-0.26593 ,-2.60926 
343 ,72.7197 ,1.62137 ,-0.27277 ,-2.67642 
344 ,72.9437 ,1.62350 ,-0.28304 ,-2.77716 
345 ,73.1517 ,1.62561 ,-0.27961 ,-2.74358 
346 ,73.3599 ,1.62773 ,-0.30015 ,-2.94505 
347 ,73.5840 ,1.62996 ,-0.33095 ,-3.24725 
348 ,73.7921 ,1.63203 ,-0.31384 ,-3.07936 
349 ,74.0160 ,1.63424 ,-0.34121 ,-3.34799 
350 ,74.2241 ,1.63631 ,-0.36517 ,-3.58303 
351 ,74.4161 ,1.63829 ,-0.36517 ,-3.58303 
352 ,74.6245 ,1.64032 ,-0.38912 ,-3.81808 
353 ,74.8161 ,1.64236 ,-0.38228 ,-3.75093 
354 ,75.0246 ,1.64433 ,-0.40623 ,-3.98597 
355 ,75.2325 ,1.64650 ,-0.40281 ,-3.95240 
356 ,75.4409 ,1.64851 ,-0.42335 ,-4.15387 
357 ,75.6650 ,1.65073 ,-0.43361 ,-4.25460 
358 ,75.8569 ,1.65275 ,-0.43019 ,-4.22102 
359 ,76.0811 ,1.65484 ,-0.45757 ,-4.48965 
360 ,76.3052 ,1.65710 ,-0.47126 ,-4.62396 
361 ,76.5134 ,1.65925 ,-0.47126 ,-4.62396 
362 ,76.7373 ,1.66138 ,-0.49521 ,-4.85901 
363 ,76.9294 ,1.66346 ,-0.50206 ,-4.92617 
364 ,77.1533 ,1.66564 ,-0.51917 ,-5.09406 
365 ,77.3775 ,1.66782 ,-0.53628 ,-5.26195 
366 ,77.5856 ,1.66991 ,-0.54654 ,-5.36268 
367 ,77.7939 ,1.67204 ,-0.54997 ,-5.39626 
368 ,78.0178 ,1.67421 ,-0.56708 ,-5.56415 
369 ,78.2259 ,1.67631 ,-0.57734 ,-5.66489 
370 ,78.4181 ,1.67830 ,-0.60130 ,-5.89994 
371 ,78.6420 ,1.68047 ,-0.61156 ,-6.00067 
372 ,78.8503 ,1.68259 ,-0.59788 ,-5.86636 
373 ,79.0583 ,1.68463 ,-0.63210 ,-6.20214 
374 ,79.2665 ,1.68670 ,-0.63210 ,-6.20214 
375 ,79.4907 ,1.68899 ,-0.64921 ,-6.37003 
376 ,79.6987 ,1.69107 ,-0.67316 ,-6.60508 
377 ,79.9227 ,1.69330 ,-0.67316 ,-6.60508 
378 ,80.1149 ,1.69530 ,-0.67316 ,-6.60508 
379 ,80.3384 ,1.69746 ,-0.69370 ,-6.80655 
380 ,80.5470 ,1.69954 ,-0.71081 ,-6.97444 
381 ,80.7550 ,1.70164 ,-0.72107 ,-7.07518 
382 ,80.9632 ,1.70368 ,-0.73476 ,-7.20949 
383 ,81.1713 ,1.70576 ,-0.72792 ,-7.14233 
384 ,81.3791 ,1.70783 ,-0.75872 ,-7.44454 
385 ,81.6033 ,1.71015 ,-0.75187 ,-7.37738 
386 ,81.8274 ,1.71228 ,-0.76214 ,-7.47812 
387 ,82.0356 ,1.71438 ,-0.79294 ,-7.78032 
388 ,82.2437 ,1.71651 ,-0.80321 ,-7.88106 
389 ,82.4516 ,1.71855 ,-0.80321 ,-7.88106 
390 ,82.6439 ,1.72059 ,-0.82716 ,-8.11611 
391 ,82.8520 ,1.72260 ,-0.82374 ,-8.08253 
392 ,83.0601 ,1.72468 ,-0.85454 ,-8.38473 
393 ,83.3161 ,1.72720 ,-0.87165 ,-8.55262 
394 ,83.5401 ,1.72942 ,-0.87849 ,-8.61978 
395 ,83.7482 ,1.73149 ,-0.86138 ,-8.45189 
396 ,83.9724 ,1.73382 ,-0.87507 ,-8.58620 
397 ,84.1801 ,1.73586 ,-0.89903 ,-8.82125 
398 ,84.3720 ,1.73786 ,-0.89218 ,-8.75409 
399 ,84.5802 ,1.73988 ,-0.93325 ,-9.15703 
400 ,84.7882 ,1.74198 ,-0.92298 ,-9.05630 
401 ,84.9967 ,1.74405 ,-0.96063 ,-9.42566 
402 ,85.2210 ,1.74622 ,-0.97431 ,-9.55997 
403 ,85.4451 ,1.74850 ,-0.95720 ,-9.39208 
404 ,85.6528 ,1.75061 ,-0.98116 ,-9.62713 
405 ,85.8448 ,1.75268 ,-0.99143 ,-9.72786 
406 ,86.0534 ,1.75461 ,-0.99827 ,-9.79502 
407 ,86.2773 ,1.75681 ,-1.02222 ,-10.03007 
408 ,86.4852 ,1.75889 ,-1.00169 ,-9.82860 
409 ,86.6935 ,1.76109 ,-1.01538 ,-9.96291 
410 ,86.9017 ,1.76306 ,-1.04276 ,-10.23154 
411 ,87.1257 ,1.76532 ,-1.03249 ,-10.13080 
412 ,87.3338 ,1.76742 ,-1.07356 ,-10.53374 
413 ,87.5420 ,1.76946 ,-1.07014 ,-10.50016 
414 ,87.7661 ,1.77167 ,-1.05987 ,-10.39943 
415 ,87.9901 ,1.77392 ,-1.08040 ,-10.60090 
416 ,88.1981 ,1.77599 ,-1.11462 ,-10.93668 
417 ,88.4224 ,1.77822 ,-1.10436 ,-10.83595 
418 ,88.6307 ,1.78029 ,-1.11805 ,-10.97026 
419 ,88.8384 ,1.78243 ,-1.14542 ,-11.23889 
420 ,89.0625 ,1.78468 ,-1.14200 ,-11.20531 
421 ,89.2705 ,1.78667 ,-1.15227 ,-11.30604 
422 ,89.4627 ,1.78871 ,-1.14884 ,-11.27247 
423 ,89.6708 ,1.79072 ,-1.16938 ,-11.47394 
424 ,89.8787 ,1.79281 ,-1.18991 ,-11.67541 
425 ,90.1030 ,1.79507 ,-1.19333 ,-11.70898 
426 ,90.3266 ,1.79725 ,-1.20360 ,-11.80972 
427 ,90.5352 ,1.79934 ,-1.22755 ,-12.04477 
428 ,90.7432 ,1.80144 ,-1.22755 ,-12.04477 
429 ,90.9511 ,1.80361 ,-1.23440 ,-12.11192 
430 ,91.1434 ,1.80556 ,-1.25493 ,-12.31339 
431 ,91.3354 ,1.80741 ,-1.27889 ,-12.54844 
432 ,91.5597 ,1.80954 ,-1.25493 ,-12.31339 
433 ,91.7676 ,1.81170 ,-1.27889 ,-12.54844 
434 ,91.9759 ,1.81377 ,-1.29600 ,-12.71633 
435 ,92.1839 ,1.81590 ,-1.28231 ,-12.58202 
436 ,92.4080 ,1.81813 ,-1.30284 ,-12.78349 
437 ,92.6321 ,1.82027 ,-1.32338 ,-12.98496 
438 ,92.8562 ,1.82262 ,-1.34391 ,-13.18643 
439 ,93.0803 ,1.82479 ,-1.36102 ,-13.35432 
440 ,93.2883 ,1.82692 ,-1.34733 ,-13.22001 
441 ,93.4804 ,1.82893 ,-1.36444 ,-13.38790 
442 ,93.6724 ,1.83087 ,-1.36444 ,-13.38790 
443 ,93.8806 ,1.83277 ,-1.38497 ,-13.58937 
444 ,94.1366 ,1.83535 ,-1.39524 ,-13.69010 
445 ,94.3445 ,1.83748 ,-1.37813 ,-13.52221 
446 ,94.5689 ,1.83964 ,-1.40893 ,-13.82442 
447 ,94.7927 ,1.84194 ,-1.43631 ,-14.09304 
448 ,95.0008 ,1.84395 ,-1.42262 ,-13.95873 
449 ,95.2253 ,1.84627 ,-1.41920 ,-13.92515 
450 ,95.4332 ,1.84837 ,-1.45684 ,-14.29451 
451 ,95.6252 ,1.85028 ,-1.45000 ,-14.22736 
452 ,95.8170 ,1.85222 ,-1.48422 ,-14.56314 
453 ,96.0253 ,1.85420 ,-1.47737 ,-14.49598 
454 ,96.2178 ,1.85626 ,-1.49448 ,-14.66387 
455 ,96.4255 ,1.85825 ,-1.48422 ,-14.56314 
456 ,96.6338 ,1.86034 ,-1.52186 ,-14.93250 
457 ,96.8417 ,1.86247 ,-1.51159 ,-14.83177 
458 ,97.0659 ,1.86467 ,-1.52871 ,-14.99966 
459 ,97.2900 ,1.86690 ,-1.54239 ,-15.13397 
460 ,97.4979 ,1.86895 ,-1.54582 ,-15.16755 
