Data stamp = , 18-05-2022 17:01:34 128

Calibration Values: 
Slope = , 26.54 , g/V 
Offset Voltage at no contact = , -0.501760 , V 

No , Time , Stage Position ,   Mass , Force 
   ,  (s) ,      (mm)      ,   (g)  , (mN)  

1 ,0.0000 ,0.89972 ,5.36012 ,52.59346 
2 ,0.2130 ,0.89979 ,5.33958 ,52.39199 
3 ,0.9974 ,0.90331 ,5.36012 ,52.59346 
4 ,1.2379 ,0.90669 ,5.36696 ,52.66062 
5 ,1.4780 ,0.90905 ,5.33616 ,52.35841 
6 ,1.7019 ,0.91148 ,5.32247 ,52.22410 
7 ,1.9261 ,0.91368 ,5.30878 ,52.08979 
8 ,2.1502 ,0.91593 ,5.27456 ,51.75401 
9 ,2.3741 ,0.91816 ,5.24034 ,51.41822 
10 ,2.5984 ,0.92036 ,5.22665 ,51.28391 
11 ,2.8223 ,0.92257 ,5.21981 ,51.21675 
12 ,3.0465 ,0.92485 ,5.19585 ,50.98170 
13 ,3.2546 ,0.92692 ,5.16505 ,50.67950 
14 ,3.4626 ,0.92915 ,5.15479 ,50.57876 
15 ,3.6710 ,0.93110 ,5.11714 ,50.20940 
16 ,3.8788 ,0.93316 ,5.11030 ,50.14225 
17 ,4.0867 ,0.93521 ,5.08292 ,49.87362 
18 ,4.2951 ,0.93731 ,5.04528 ,49.50426 
19 ,4.4869 ,0.93939 ,5.05212 ,49.57142 
20 ,4.6953 ,0.94133 ,5.01448 ,49.20205 
21 ,4.9029 ,0.94348 ,5.00079 ,49.06774 
22 ,5.1114 ,0.94555 ,4.97341 ,48.79911 
23 ,5.3355 ,0.94773 ,4.94603 ,48.53049 
24 ,5.5594 ,0.94998 ,4.95288 ,48.59764 
25 ,5.7678 ,0.95209 ,4.90155 ,48.09397 
26 ,6.0073 ,0.95454 ,4.88786 ,47.95966 
27 ,6.2316 ,0.95677 ,4.84679 ,47.55672 
28 ,6.4558 ,0.95893 ,4.85706 ,47.65745 
29 ,6.6641 ,0.96108 ,4.84337 ,47.52314 
30 ,6.8880 ,0.96327 ,4.79888 ,47.08662 
31 ,7.0957 ,0.96549 ,4.77493 ,46.85157 
32 ,7.3357 ,0.96779 ,4.76124 ,46.71726 
33 ,7.5439 ,0.96986 ,4.74755 ,46.58295 
34 ,7.7688 ,0.97207 ,4.71675 ,46.28074 
35 ,8.0086 ,0.97443 ,4.68253 ,45.94496 
36 ,8.2165 ,0.97658 ,4.69279 ,46.04569 
37 ,8.4566 ,0.97881 ,4.65857 ,45.70991 
38 ,8.6808 ,0.98120 ,4.64488 ,45.57560 
39 ,8.9050 ,0.98346 ,4.60724 ,45.20624 
40 ,9.1130 ,0.98558 ,4.58671 ,45.00477 
41 ,9.3210 ,0.98757 ,4.57644 ,44.90403 
42 ,9.5289 ,0.98975 ,4.54564 ,44.60183 
43 ,9.7691 ,0.99201 ,4.52853 ,44.43394 
44 ,9.9774 ,0.99417 ,4.51484 ,44.29962 
45 ,10.2014 ,0.99636 ,4.50115 ,44.16531 
46 ,10.3934 ,0.99837 ,4.47720 ,43.93026 
47 ,10.6176 ,1.00058 ,4.46351 ,43.79595 
48 ,10.8417 ,1.00277 ,4.43613 ,43.52732 
49 ,11.0658 ,1.00504 ,4.41218 ,43.29227 
50 ,11.2737 ,1.00711 ,4.40533 ,43.22512 
51 ,11.5775 ,1.00975 ,4.38138 ,42.99007 
52 ,11.7861 ,1.01229 ,4.34031 ,42.58713 
53 ,12.0103 ,1.01453 ,4.30951 ,42.28492 
54 ,12.2342 ,1.01669 ,4.29924 ,42.18419 
55 ,12.4422 ,1.01877 ,4.28213 ,42.01630 
56 ,12.6504 ,1.02090 ,4.25133 ,41.71409 
57 ,12.8584 ,1.02299 ,4.23765 ,41.57978 
58 ,13.0667 ,1.02500 ,4.21369 ,41.34473 
59 ,13.2749 ,1.02713 ,4.21711 ,41.37831 
60 ,13.4668 ,1.02912 ,4.17605 ,40.97537 
61 ,13.6750 ,1.03109 ,4.18631 ,41.07611 
62 ,13.8826 ,1.03320 ,4.12814 ,40.50527 
63 ,14.0906 ,1.03527 ,4.13156 ,40.53885 
64 ,14.2829 ,1.03723 ,4.10076 ,40.23665 
65 ,14.4911 ,1.03927 ,4.09734 ,40.20307 
66 ,14.6995 ,1.04135 ,4.07338 ,39.96802 
67 ,14.9231 ,1.04360 ,4.04600 ,39.69940 
68 ,15.1476 ,1.04585 ,4.01520 ,39.39719 
69 ,15.3718 ,1.04806 ,4.01863 ,39.43077 
70 ,15.5794 ,1.05018 ,3.98441 ,39.09499 
71 ,15.7878 ,1.05224 ,3.97072 ,38.96067 
72 ,15.9960 ,1.05428 ,3.95361 ,38.79278 
73 ,16.2199 ,1.05663 ,3.92623 ,38.52415 
74 ,16.4439 ,1.05877 ,3.89885 ,38.25553 
75 ,16.6682 ,1.06104 ,3.89201 ,38.18837 
76 ,16.8762 ,1.06308 ,3.87147 ,37.98690 
77 ,17.0842 ,1.06520 ,3.85094 ,37.78543 
78 ,17.2923 ,1.06727 ,3.85094 ,37.78543 
79 ,17.5000 ,1.06932 ,3.79961 ,37.28176 
80 ,17.7087 ,1.07148 ,3.78934 ,37.18102 
81 ,17.9168 ,1.07352 ,3.77223 ,37.01313 
82 ,18.1248 ,1.07562 ,3.75854 ,36.87882 
83 ,18.3005 ,1.07750 ,3.74143 ,36.71093 
84 ,18.5250 ,1.07955 ,3.72090 ,36.50946 
85 ,18.7490 ,1.08186 ,3.71748 ,36.47588 
86 ,18.9572 ,1.08387 ,3.66957 ,36.00578 
87 ,19.1813 ,1.08614 ,3.64219 ,35.73716 
88 ,19.4049 ,1.08849 ,3.64561 ,35.77073 
89 ,19.6295 ,1.09067 ,3.63192 ,35.63642 
90 ,19.8533 ,1.09288 ,3.61481 ,35.46853 
91 ,20.0615 ,1.09495 ,3.58059 ,35.13275 
92 ,20.2700 ,1.09706 ,3.57375 ,35.06559 
93 ,20.4780 ,1.09910 ,3.54637 ,34.79696 
94 ,20.6857 ,1.10126 ,3.53952 ,34.72981 
95 ,20.9100 ,1.10343 ,3.52241 ,34.56192 
96 ,21.1177 ,1.10556 ,3.47450 ,34.09182 
97 ,21.3101 ,1.10748 ,3.47792 ,34.12540 
98 ,21.5341 ,1.10961 ,3.44713 ,33.82319 
99 ,21.7419 ,1.11175 ,3.43001 ,33.65530 
100 ,21.9823 ,1.11420 ,3.41633 ,33.52099 
101 ,22.2065 ,1.11639 ,3.41290 ,33.48741 
102 ,22.4145 ,1.11846 ,3.36499 ,33.01731 
103 ,22.6067 ,1.12050 ,3.37526 ,33.11805 
104 ,22.8308 ,1.12262 ,3.34788 ,32.84942 
105 ,23.0226 ,1.12459 ,3.33077 ,32.68153 
106 ,23.2149 ,1.12656 ,3.29997 ,32.37933 
107 ,23.4228 ,1.12860 ,3.30339 ,32.41290 
108 ,23.6149 ,1.13052 ,3.25548 ,31.94281 
109 ,23.8228 ,1.13252 ,3.25548 ,31.94281 
110 ,24.0472 ,1.13485 ,3.21100 ,31.50629 
111 ,24.2393 ,1.13689 ,3.20073 ,31.40555 
112 ,24.4471 ,1.13883 ,3.20415 ,31.43913 
113 ,24.6396 ,1.14080 ,3.18704 ,31.27124 
114 ,24.8636 ,1.14294 ,3.17677 ,31.17051 
115 ,25.0877 ,1.14519 ,3.14597 ,30.86830 
116 ,25.2957 ,1.14729 ,3.12544 ,30.66683 
117 ,25.4877 ,1.14925 ,3.11860 ,30.59968 
118 ,25.7116 ,1.15138 ,3.08438 ,30.26389 
119 ,25.9195 ,1.15351 ,3.08095 ,30.23031 
120 ,26.0957 ,1.15542 ,3.04331 ,29.86095 
121 ,26.2878 ,1.15734 ,3.04331 ,29.86095 
122 ,26.4964 ,1.15928 ,3.01935 ,29.62590 
123 ,26.7364 ,1.16158 ,3.01593 ,29.59233 
124 ,26.9604 ,1.16393 ,3.00224 ,29.45801 
125 ,27.1842 ,1.16616 ,2.96460 ,29.08865 
126 ,27.3924 ,1.16829 ,2.94749 ,28.92076 
127 ,27.6166 ,1.17049 ,2.94064 ,28.85360 
128 ,27.8088 ,1.17244 ,2.89616 ,28.41709 
129 ,28.0167 ,1.17448 ,2.90642 ,28.51782 
130 ,28.2247 ,1.17657 ,2.87220 ,28.18204 
131 ,28.4170 ,1.17859 ,2.85509 ,28.01415 
132 ,28.6250 ,1.18055 ,2.83456 ,27.81268 
133 ,28.8492 ,1.18278 ,2.81060 ,27.57763 
134 ,29.0413 ,1.18477 ,2.81745 ,27.64479 
135 ,29.2655 ,1.18692 ,2.77980 ,27.27542 
136 ,29.4730 ,1.18903 ,2.76954 ,27.17469 
137 ,29.6815 ,1.19107 ,2.74900 ,26.97322 
138 ,29.8895 ,1.19327 ,2.71820 ,26.67101 
139 ,30.1137 ,1.19544 ,2.72847 ,26.77175 
140 ,30.3221 ,1.19756 ,2.69425 ,26.43597 
141 ,30.5455 ,1.19974 ,2.66345 ,26.13376 
142 ,30.7541 ,1.20187 ,2.68056 ,26.30165 
143 ,30.9782 ,1.20407 ,2.64976 ,25.99945 
144 ,31.1700 ,1.20620 ,2.62238 ,25.73082 
145 ,31.3783 ,1.20811 ,2.63607 ,25.86514 
146 ,31.5864 ,1.21015 ,2.59501 ,25.46220 
147 ,31.8265 ,1.21250 ,2.58816 ,25.39504 
148 ,32.0667 ,1.21487 ,2.55736 ,25.09283 
149 ,32.2905 ,1.21722 ,2.54367 ,24.95852 
150 ,32.4988 ,1.21932 ,2.52314 ,24.75705 
151 ,32.7228 ,1.22149 ,2.48207 ,24.35411 
152 ,32.9466 ,1.22379 ,2.49234 ,24.45485 
153 ,33.1551 ,1.22586 ,2.48550 ,24.38769 
154 ,33.3630 ,1.22793 ,2.43416 ,23.88402 
155 ,33.5392 ,1.22986 ,2.45812 ,24.11906 
156 ,33.7474 ,1.23177 ,2.42732 ,23.81686 
157 ,34.0033 ,1.23430 ,2.39994 ,23.54823 
158 ,34.2116 ,1.23643 ,2.38625 ,23.41392 
159 ,34.4355 ,1.23862 ,2.38283 ,23.38034 
160 ,34.6437 ,1.24077 ,2.34519 ,23.01098 
161 ,34.8518 ,1.24296 ,2.34177 ,22.97740 
162 ,35.0274 ,1.24477 ,2.31439 ,22.70877 
163 ,35.2359 ,1.24663 ,2.32465 ,22.80951 
164 ,35.4601 ,1.24885 ,2.26648 ,22.23868 
165 ,35.6520 ,1.25082 ,2.29043 ,22.47373 
166 ,35.8763 ,1.25300 ,2.26648 ,22.23868 
167 ,36.0841 ,1.25513 ,2.23910 ,21.97005 
168 ,36.3243 ,1.25748 ,2.24252 ,22.00363 
169 ,36.5485 ,1.25979 ,2.21515 ,21.73500 
170 ,36.7566 ,1.26188 ,2.17408 ,21.33206 
171 ,36.9646 ,1.26398 ,2.16039 ,21.19775 
172 ,37.1407 ,1.26587 ,2.15355 ,21.13059 
173 ,37.3328 ,1.26764 ,2.15012 ,21.09702 
174 ,37.5248 ,1.26957 ,2.12617 ,20.86197 
175 ,37.7490 ,1.27175 ,2.11932 ,20.79481 
176 ,37.9410 ,1.27373 ,2.09195 ,20.52619 
177 ,38.1489 ,1.27583 ,2.08852 ,20.49261 
178 ,38.3568 ,1.27796 ,2.06457 ,20.25756 
179 ,38.5654 ,1.27992 ,2.04404 ,20.05609 
180 ,38.7893 ,1.28220 ,2.05088 ,20.12325 
181 ,38.9976 ,1.28435 ,2.00982 ,19.72031 
182 ,39.2054 ,1.28631 ,2.00982 ,19.72031 
183 ,39.4135 ,1.28842 ,1.97902 ,19.41810 
184 ,39.6378 ,1.29053 ,1.98586 ,19.48526 
185 ,39.8777 ,1.29295 ,1.96190 ,19.25021 
186 ,40.1021 ,1.29524 ,1.92426 ,18.88085 
187 ,40.3101 ,1.29739 ,1.91742 ,18.81369 
188 ,40.5181 ,1.29950 ,1.89688 ,18.61222 
189 ,40.7260 ,1.30160 ,1.90031 ,18.64580 
190 ,40.9503 ,1.30377 ,1.86608 ,18.31002 
191 ,41.1584 ,1.30587 ,1.85582 ,18.20928 
192 ,41.3821 ,1.30805 ,1.84213 ,18.07497 
193 ,41.5746 ,1.31004 ,1.81133 ,17.77276 
194 ,41.7824 ,1.31208 ,1.81817 ,17.83992 
195 ,41.9908 ,1.31421 ,1.79422 ,17.60487 
196 ,42.2143 ,1.31633 ,1.75315 ,17.20193 
197 ,42.4228 ,1.31845 ,1.76000 ,17.26909 
198 ,42.6470 ,1.32060 ,1.74631 ,17.13478 
199 ,42.8387 ,1.32276 ,1.71893 ,16.86615 
200 ,43.0472 ,1.32470 ,1.70866 ,16.76542 
201 ,43.2553 ,1.32683 ,1.68129 ,16.49679 
202 ,43.4633 ,1.32888 ,1.68471 ,16.53037 
203 ,43.6710 ,1.33101 ,1.66760 ,16.36248 
204 ,43.8791 ,1.33307 ,1.64364 ,16.12743 
205 ,44.1032 ,1.33533 ,1.65391 ,16.22816 
206 ,44.3277 ,1.33745 ,1.61627 ,15.85880 
207 ,44.5678 ,1.33986 ,1.59231 ,15.62375 
208 ,44.7915 ,1.34218 ,1.57178 ,15.42228 
209 ,44.9836 ,1.34413 ,1.58204 ,15.52302 
210 ,45.1921 ,1.34623 ,1.54098 ,15.12008 
211 ,45.4161 ,1.34840 ,1.53756 ,15.08650 
212 ,45.6402 ,1.35066 ,1.53071 ,15.01934 
213 ,45.8483 ,1.35274 ,1.50333 ,14.75072 
214 ,46.0563 ,1.35477 ,1.48965 ,14.61640 
215 ,46.2644 ,1.35693 ,1.48622 ,14.58283 
216 ,46.4884 ,1.35901 ,1.46227 ,14.34778 
217 ,46.6967 ,1.36118 ,1.45885 ,14.31420 
218 ,46.8885 ,1.36325 ,1.44174 ,14.14631 
219 ,47.1124 ,1.36537 ,1.40409 ,13.77695 
220 ,47.3204 ,1.36738 ,1.41436 ,13.87768 
221 ,47.5291 ,1.36945 ,1.37329 ,13.47474 
222 ,47.7371 ,1.37156 ,1.36645 ,13.40759 
223 ,47.9612 ,1.37386 ,1.35960 ,13.34043 
224 ,48.1694 ,1.37592 ,1.31854 ,12.93749 
225 ,48.3929 ,1.37815 ,1.32196 ,12.97107 
226 ,48.6016 ,1.38023 ,1.32196 ,12.97107 
227 ,48.8096 ,1.38245 ,1.28432 ,12.60171 
228 ,49.0176 ,1.38445 ,1.28774 ,12.63528 
229 ,49.2098 ,1.38640 ,1.25009 ,12.26592 
230 ,49.4336 ,1.38854 ,1.23298 ,12.09803 
231 ,49.6417 ,1.39071 ,1.22956 ,12.06445 
232 ,49.8499 ,1.39271 ,1.20561 ,11.82941 
233 ,50.0421 ,1.39472 ,1.20218 ,11.79583 
234 ,50.2503 ,1.39673 ,1.18165 ,11.59436 
235 ,50.4583 ,1.39883 ,1.17481 ,11.52720 
236 ,50.6501 ,1.40076 ,1.14058 ,11.19142 
237 ,50.8424 ,1.40266 ,1.14743 ,11.25857 
238 ,51.0504 ,1.40484 ,1.12005 ,10.98995 
239 ,51.2586 ,1.40688 ,1.12347 ,11.02353 
240 ,51.4665 ,1.40889 ,1.08925 ,10.68774 
241 ,51.6746 ,1.41097 ,1.08583 ,10.65416 
242 ,51.8988 ,1.41322 ,1.08925 ,10.68774 
243 ,52.1070 ,1.41535 ,1.04134 ,10.21765 
244 ,52.3151 ,1.41739 ,1.05161 ,10.31838 
245 ,52.5229 ,1.41944 ,1.01054 ,9.91544 
246 ,52.7473 ,1.42171 ,0.99001 ,9.71397 
247 ,52.9713 ,1.42394 ,1.00028 ,9.81471 
248 ,53.1795 ,1.42597 ,0.99001 ,9.71397 
249 ,53.4031 ,1.42822 ,0.94894 ,9.31103 
250 ,53.6117 ,1.43040 ,0.94894 ,9.31103 
251 ,53.8356 ,1.43256 ,0.94210 ,9.24388 
252 ,54.0435 ,1.43460 ,0.90788 ,8.90809 
253 ,54.2519 ,1.43680 ,0.90788 ,8.90809 
254 ,54.4598 ,1.43877 ,0.88392 ,8.67305 
255 ,54.6681 ,1.44084 ,0.87366 ,8.57231 
256 ,54.8919 ,1.44314 ,0.87366 ,8.57231 
257 ,55.0997 ,1.44518 ,0.86339 ,8.47158 
258 ,55.3079 ,1.44725 ,0.82232 ,8.06864 
259 ,55.5163 ,1.44936 ,0.82917 ,8.13579 
260 ,55.7564 ,1.45175 ,0.81890 ,8.03506 
261 ,55.9805 ,1.45400 ,0.77784 ,7.63212 
262 ,56.1722 ,1.45601 ,0.75730 ,7.43065 
263 ,56.3808 ,1.45805 ,0.74704 ,7.32991 
264 ,56.6048 ,1.46022 ,0.72992 ,7.16202 
265 ,56.8126 ,1.46235 ,0.73677 ,7.22918 
266 ,57.0050 ,1.46428 ,0.69913 ,6.85982 
267 ,57.2288 ,1.46640 ,0.70597 ,6.92697 
268 ,57.4529 ,1.46878 ,0.68886 ,6.75908 
269 ,57.6613 ,1.47088 ,0.66833 ,6.55761 
270 ,57.8693 ,1.47299 ,0.64095 ,6.28899 
271 ,58.0775 ,1.47493 ,0.64095 ,6.28899 
272 ,58.2854 ,1.47716 ,0.62042 ,6.08752 
273 ,58.4611 ,1.47894 ,0.61699 ,6.05394 
274 ,58.6536 ,1.48075 ,0.60673 ,5.95320 
275 ,58.8618 ,1.48284 ,0.57593 ,5.65100 
276 ,59.0698 ,1.48493 ,0.58277 ,5.71815 
277 ,59.2783 ,1.48697 ,0.54855 ,5.38237 
278 ,59.4857 ,1.48901 ,0.53828 ,5.28164 
279 ,59.7262 ,1.49133 ,0.53828 ,5.28164 
280 ,59.9501 ,1.49370 ,0.53486 ,5.24806 
281 ,60.1419 ,1.49566 ,0.49380 ,4.84512 
282 ,60.3343 ,1.49755 ,0.50406 ,4.94585 
283 ,60.5585 ,1.49968 ,0.46984 ,4.61007 
284 ,60.7985 ,1.50208 ,0.46300 ,4.54291 
285 ,61.0067 ,1.50426 ,0.45615 ,4.47576 
286 ,61.2307 ,1.50646 ,0.45273 ,4.44218 
287 ,61.4389 ,1.50851 ,0.40140 ,3.93850 
288 ,61.6470 ,1.51063 ,0.42877 ,4.20713 
289 ,61.8550 ,1.51272 ,0.39113 ,3.83777 
290 ,62.0472 ,1.51466 ,0.38429 ,3.77061 
291 ,62.2712 ,1.51691 ,0.38429 ,3.77061 
292 ,62.4793 ,1.51901 ,0.34664 ,3.40125 
293 ,62.7034 ,1.52119 ,0.34322 ,3.36767 
294 ,62.9275 ,1.52347 ,0.33638 ,3.30052 
295 ,63.1355 ,1.52558 ,0.30900 ,3.03189 
296 ,63.3433 ,1.52761 ,0.29531 ,2.89758 
297 ,63.5517 ,1.52972 ,0.29873 ,2.93116 
298 ,63.7599 ,1.53179 ,0.26109 ,2.56179 
299 ,63.9515 ,1.53379 ,0.26451 ,2.59537 
300 ,64.1600 ,1.53578 ,0.22344 ,2.19243 
301 ,64.3521 ,1.53785 ,0.23713 ,2.32675 
302 ,64.5601 ,1.53981 ,0.20291 ,1.99096 
303 ,64.7684 ,1.54188 ,0.22002 ,2.15885 
304 ,64.9923 ,1.54409 ,0.18922 ,1.85665 
305 ,65.2164 ,1.54638 ,0.17211 ,1.68876 
306 ,65.4242 ,1.54845 ,0.17211 ,1.68876 
307 ,65.6166 ,1.55036 ,0.14131 ,1.38655 
308 ,65.8406 ,1.55254 ,0.13105 ,1.28582 
309 ,66.0325 ,1.55454 ,0.11051 ,1.08435 
310 ,66.2403 ,1.55655 ,0.10709 ,1.05077 
311 ,66.4487 ,1.55867 ,0.11051 ,1.08435 
312 ,66.6890 ,1.56093 ,0.07629 ,0.74857 
313 ,66.8807 ,1.56314 ,0.04891 ,0.47994 
314 ,67.0891 ,1.56499 ,0.05918 ,0.58067 
315 ,67.2968 ,1.56712 ,0.03865 ,0.37920 
316 ,67.4891 ,1.56922 ,0.04891 ,0.47994 
317 ,67.6970 ,1.57129 ,0.00100 ,0.00984 
318 ,67.9049 ,1.57321 ,0.03180 ,0.31205 
319 ,68.1131 ,1.57530 ,-0.01611 ,-0.15805 
320 ,68.3535 ,1.57779 ,-0.02637 ,-0.25878 
321 ,68.5778 ,1.57998 ,-0.03664 ,-0.35952 
322 ,68.8017 ,1.58216 ,-0.03664 ,-0.35952 
323 ,69.0257 ,1.58435 ,-0.05033 ,-0.49383 
324 ,69.2018 ,1.58635 ,-0.09140 ,-0.89677 
325 ,69.4260 ,1.58837 ,-0.08797 ,-0.86319 
326 ,69.6019 ,1.59032 ,-0.10166 ,-0.99751 
327 ,69.8103 ,1.59218 ,-0.12219 ,-1.19898 
328 ,70.0184 ,1.59429 ,-0.12219 ,-1.19898 
329 ,70.2264 ,1.59648 ,-0.13246 ,-1.29971 
330 ,70.4344 ,1.59847 ,-0.16668 ,-1.63549 
331 ,70.6582 ,1.60069 ,-0.16326 ,-1.60191 
332 ,70.8668 ,1.60289 ,-0.17011 ,-1.66907 
333 ,71.0904 ,1.60508 ,-0.19748 ,-1.93770 
334 ,71.2671 ,1.60696 ,-0.18379 ,-1.80338 
335 ,71.4750 ,1.60889 ,-0.21459 ,-2.10559 
336 ,71.6829 ,1.61101 ,-0.21117 ,-2.07201 
337 ,71.9070 ,1.61324 ,-0.24197 ,-2.37422 
338 ,72.1150 ,1.61534 ,-0.26593 ,-2.60926 
339 ,72.3232 ,1.61739 ,-0.24197 ,-2.37422 
340 ,72.5314 ,1.61946 ,-0.27961 ,-2.74358 
341 ,72.7554 ,1.62169 ,-0.27961 ,-2.74358 
342 ,72.9475 ,1.62370 ,-0.29330 ,-2.87789 
343 ,73.1396 ,1.62557 ,-0.28988 ,-2.84431 
344 ,73.3637 ,1.62773 ,-0.32752 ,-3.21367 
345 ,73.5718 ,1.62984 ,-0.34806 ,-3.41514 
346 ,73.7801 ,1.63194 ,-0.33437 ,-3.28083 
347 ,73.9876 ,1.63401 ,-0.37544 ,-3.68377 
348 ,74.1961 ,1.63614 ,-0.37544 ,-3.68377 
349 ,74.4201 ,1.63832 ,-0.37544 ,-3.68377 
350 ,74.6280 ,1.64041 ,-0.39255 ,-3.85166 
351 ,74.8204 ,1.64237 ,-0.38912 ,-3.81808 
352 ,75.0285 ,1.64439 ,-0.43703 ,-4.28818 
353 ,75.2686 ,1.64675 ,-0.42677 ,-4.18744 
354 ,75.4924 ,1.64904 ,-0.45072 ,-4.42249 
355 ,75.6845 ,1.65105 ,-0.45757 ,-4.48965 
356 ,75.8927 ,1.65309 ,-0.47126 ,-4.62396 
357 ,76.1009 ,1.65517 ,-0.46441 ,-4.55681 
358 ,76.3247 ,1.65736 ,-0.49863 ,-4.89259 
359 ,76.5488 ,1.65959 ,-0.51232 ,-5.02690 
360 ,76.7411 ,1.66169 ,-0.49863 ,-4.89259 
361 ,76.9330 ,1.66348 ,-0.53628 ,-5.26195 
362 ,77.1412 ,1.66558 ,-0.52943 ,-5.19479 
363 ,77.3329 ,1.66749 ,-0.54654 ,-5.36268 
364 ,77.5412 ,1.66954 ,-0.54997 ,-5.39626 
365 ,77.7334 ,1.67161 ,-0.58077 ,-5.69847 
366 ,77.9415 ,1.67357 ,-0.58419 ,-5.73205 
367 ,78.1657 ,1.67587 ,-0.61156 ,-6.00067 
368 ,78.3896 ,1.67801 ,-0.61499 ,-6.03425 
369 ,78.6138 ,1.68033 ,-0.61156 ,-6.00067 
370 ,78.8380 ,1.68250 ,-0.61841 ,-6.06783 
371 ,79.0461 ,1.68457 ,-0.64579 ,-6.33646 
372 ,79.2539 ,1.68664 ,-0.64236 ,-6.30288 
373 ,79.4622 ,1.68872 ,-0.67316 ,-6.60508 
374 ,79.6701 ,1.69085 ,-0.68001 ,-6.67224 
375 ,79.8785 ,1.69298 ,-0.68001 ,-6.67224 
376 ,80.0863 ,1.69504 ,-0.71765 ,-7.04160 
377 ,80.3266 ,1.69731 ,-0.70739 ,-6.94086 
378 ,80.5188 ,1.69938 ,-0.71765 ,-7.04160 
379 ,80.7267 ,1.70135 ,-0.74845 ,-7.34380 
380 ,80.9190 ,1.70334 ,-0.74503 ,-7.31023 
381 ,81.1429 ,1.70554 ,-0.76898 ,-7.54527 
382 ,81.3351 ,1.70750 ,-0.75872 ,-7.44454 
383 ,81.5592 ,1.70970 ,-0.78610 ,-7.71317 
384 ,81.7669 ,1.71180 ,-0.80321 ,-7.88106 
385 ,81.9753 ,1.71390 ,-0.79294 ,-7.78032 
386 ,82.1833 ,1.71594 ,-0.82032 ,-8.04895 
387 ,82.3916 ,1.71799 ,-0.82716 ,-8.11611 
388 ,82.5996 ,1.72008 ,-0.83401 ,-8.18326 
389 ,82.7918 ,1.72209 ,-0.83401 ,-8.18326 
390 ,83.0155 ,1.72426 ,-0.85796 ,-8.41831 
391 ,83.2399 ,1.72652 ,-0.86481 ,-8.48547 
392 ,83.4480 ,1.72859 ,-0.88534 ,-8.68694 
393 ,83.6721 ,1.73085 ,-0.87849 ,-8.61978 
394 ,83.8800 ,1.73292 ,-0.90587 ,-8.88841 
395 ,84.0882 ,1.73499 ,-0.90929 ,-8.92198 
396 ,84.2963 ,1.73709 ,-0.92298 ,-9.05630 
397 ,84.5203 ,1.73926 ,-0.94351 ,-9.25777 
398 ,84.7286 ,1.74140 ,-0.92298 ,-9.05630 
399 ,84.9523 ,1.74356 ,-0.95378 ,-9.35850 
400 ,85.1602 ,1.74567 ,-0.98116 ,-9.62713 
401 ,85.3526 ,1.74764 ,-0.97774 ,-9.59355 
402 ,85.5608 ,1.74968 ,-0.99827 ,-9.79502 
403 ,85.7685 ,1.75176 ,-0.99485 ,-9.76144 
404 ,85.9606 ,1.75373 ,-1.01538 ,-9.96291 
405 ,86.1687 ,1.75577 ,-1.00169 ,-9.82860 
406 ,86.3931 ,1.75806 ,-1.03249 ,-10.13080 
407 ,86.6173 ,1.76029 ,-1.05302 ,-10.33227 
408 ,86.8253 ,1.76237 ,-1.06329 ,-10.43301 
409 ,87.0175 ,1.76431 ,-1.07356 ,-10.53374 
410 ,87.2416 ,1.76647 ,-1.09067 ,-10.70163 
411 ,87.4494 ,1.76855 ,-1.07014 ,-10.50016 
412 ,87.6577 ,1.77064 ,-1.09751 ,-10.76879 
413 ,87.8658 ,1.77274 ,-1.09067 ,-10.70163 
414 ,88.0738 ,1.77479 ,-1.12489 ,-11.03742 
415 ,88.2818 ,1.77683 ,-1.13173 ,-11.10457 
416 ,88.5055 ,1.77906 ,-1.13173 ,-11.10457 
417 ,88.6979 ,1.78112 ,-1.15911 ,-11.37320 
418 ,88.8900 ,1.78301 ,-1.14200 ,-11.20531 
419 ,89.0822 ,1.78494 ,-1.17280 ,-11.50751 
420 ,89.2901 ,1.78705 ,-1.16938 ,-11.47394 
421 ,89.4825 ,1.78898 ,-1.19676 ,-11.74256 
422 ,89.7065 ,1.79116 ,-1.18991 ,-11.67541 
423 ,89.9146 ,1.79325 ,-1.20360 ,-11.80972 
424 ,90.1388 ,1.79540 ,-1.23440 ,-12.11192 
425 ,90.3625 ,1.79768 ,-1.22755 ,-12.04477 
426 ,90.5550 ,1.79964 ,-1.24809 ,-12.24624 
427 ,90.7628 ,1.80170 ,-1.25151 ,-12.27981 
428 ,90.9710 ,1.80377 ,-1.25151 ,-12.27981 
429 ,91.1632 ,1.80575 ,-1.28573 ,-12.61560 
430 ,91.3873 ,1.80792 ,-1.27547 ,-12.51486 
431 ,91.5952 ,1.81007 ,-1.29600 ,-12.71633 
432 ,91.7869 ,1.81206 ,-1.28915 ,-12.64918 
433 ,91.9796 ,1.81393 ,-1.31311 ,-12.88422 
434 ,92.1877 ,1.81600 ,-1.30284 ,-12.78349 
435 ,92.3954 ,1.81801 ,-1.35075 ,-13.25359 
436 ,92.6036 ,1.82006 ,-1.32338 ,-12.98496 
437 ,92.8116 ,1.82221 ,-1.37129 ,-13.45506 
438 ,93.0200 ,1.82425 ,-1.35075 ,-13.25359 
439 ,93.2439 ,1.82648 ,-1.36444 ,-13.38790 
440 ,93.4362 ,1.82842 ,-1.38497 ,-13.58937 
441 ,93.6763 ,1.83069 ,-1.39182 ,-13.65653 
442 ,93.8840 ,1.83286 ,-1.38497 ,-13.58937 
443 ,94.0924 ,1.83492 ,-1.41920 ,-13.92515 
444 ,94.3163 ,1.83728 ,-1.42604 ,-13.99231 
445 ,94.5246 ,1.83929 ,-1.42262 ,-13.95873 
446 ,94.7645 ,1.84158 ,-1.44315 ,-14.16020 
447 ,94.9727 ,1.84376 ,-1.45000 ,-14.22736 
448 ,95.1806 ,1.84588 ,-1.46026 ,-14.32809 
449 ,95.3890 ,1.84787 ,-1.47053 ,-14.42883 
450 ,95.5813 ,1.84992 ,-1.46026 ,-14.32809 
451 ,95.8047 ,1.85207 ,-1.48422 ,-14.56314 
452 ,95.9973 ,1.85407 ,-1.50133 ,-14.73103 
453 ,96.2208 ,1.85621 ,-1.50133 ,-14.73103 
454 ,96.4134 ,1.85824 ,-1.53555 ,-15.06681 
455 ,96.6053 ,1.86013 ,-1.51502 ,-14.86534 
456 ,96.8136 ,1.86220 ,-1.55266 ,-15.23471 
457 ,97.0377 ,1.86437 ,-1.54582 ,-15.16755 
458 ,97.2454 ,1.86649 ,-1.54582 ,-15.16755 
459 ,97.4539 ,1.86857 ,-1.56293 ,-15.33544 
460 ,97.6778 ,1.87082 ,-1.56977 ,-15.40260 
