Data stamp = , 19-05-2022 05:03:27 159

Calibration Values: 
Slope = , 26.54 , g/V 
Offset Voltage at no contact = , -0.501760 , V 

No , Time , Stage Position ,   Mass , Force 
   ,  (s) ,      (mm)      ,   (g)  , (mN)  

1 ,0.0000 ,0.89963 ,5.29167 ,51.92190 
2 ,0.2124 ,0.89972 ,5.29510 ,51.95548 
3 ,1.0610 ,0.90363 ,5.32589 ,52.25768 
4 ,1.3014 ,0.90727 ,5.32247 ,52.22410 
5 ,1.5415 ,0.90973 ,5.30878 ,52.08979 
6 ,1.7492 ,0.91188 ,5.26430 ,51.65327 
7 ,1.9572 ,0.91387 ,5.22323 ,51.25033 
8 ,2.1816 ,0.91613 ,5.20612 ,51.08244 
9 ,2.3897 ,0.91822 ,5.18901 ,50.91455 
10 ,2.5977 ,0.92034 ,5.15821 ,50.61234 
11 ,2.8056 ,0.92241 ,5.16163 ,50.64592 
12 ,3.0461 ,0.92479 ,5.13768 ,50.41087 
13 ,3.2702 ,0.92706 ,5.10345 ,50.07509 
14 ,3.4780 ,0.92916 ,5.06239 ,49.67215 
15 ,3.6862 ,0.93125 ,5.06923 ,49.73931 
16 ,3.9102 ,0.93348 ,5.03501 ,49.40352 
17 ,4.1343 ,0.93568 ,5.01106 ,49.16848 
18 ,4.3583 ,0.93795 ,4.97683 ,48.83269 
19 ,4.5826 ,0.94020 ,4.97683 ,48.83269 
20 ,4.8065 ,0.94241 ,4.95288 ,48.59764 
21 ,5.0308 ,0.94467 ,4.91866 ,48.26186 
22 ,5.2710 ,0.94712 ,4.89128 ,47.99324 
23 ,5.4949 ,0.94928 ,4.86390 ,47.72461 
24 ,5.7349 ,0.95159 ,4.85364 ,47.62387 
25 ,5.9433 ,0.95382 ,4.83995 ,47.48956 
26 ,6.1672 ,0.95603 ,4.82968 ,47.38883 
27 ,6.4071 ,0.95836 ,4.78519 ,46.95231 
28 ,6.6154 ,0.96057 ,4.76124 ,46.71726 
29 ,6.8237 ,0.96261 ,4.76466 ,46.75084 
30 ,7.0316 ,0.96465 ,4.72702 ,46.38148 
31 ,7.2560 ,0.96690 ,4.70306 ,46.14643 
32 ,7.4638 ,0.96901 ,4.69964 ,46.11285 
33 ,7.6720 ,0.97102 ,4.66199 ,45.74349 
34 ,7.8800 ,0.97314 ,4.66199 ,45.74349 
35 ,8.1041 ,0.97540 ,4.64488 ,45.57560 
36 ,8.2958 ,0.97745 ,4.59355 ,45.07192 
37 ,8.5038 ,0.97932 ,4.60724 ,45.20624 
38 ,8.6960 ,0.98137 ,4.56275 ,44.76972 
39 ,8.9199 ,0.98352 ,4.56617 ,44.80330 
40 ,9.1445 ,0.98579 ,4.54906 ,44.63541 
41 ,9.4007 ,0.98832 ,4.51826 ,44.33320 
42 ,9.6083 ,0.99044 ,4.48746 ,44.03100 
43 ,9.8168 ,0.99249 ,4.47378 ,43.89668 
44 ,10.0409 ,0.99475 ,4.46693 ,43.82953 
45 ,10.2489 ,0.99682 ,4.42244 ,43.39301 
46 ,10.4568 ,0.99888 ,4.41560 ,43.32585 
47 ,10.6648 ,1.00108 ,4.40533 ,43.22512 
48 ,10.8892 ,1.00322 ,4.36427 ,42.82218 
49 ,11.1134 ,1.00545 ,4.34716 ,42.65429 
50 ,11.3215 ,1.00756 ,4.34031 ,42.58713 
51 ,11.5456 ,1.00978 ,4.30609 ,42.25135 
52 ,11.7376 ,1.01173 ,4.30267 ,42.21777 
53 ,11.9617 ,1.01393 ,4.28556 ,42.04988 
54 ,12.1698 ,1.01605 ,4.24449 ,41.64694 
55 ,12.3777 ,1.01807 ,4.25133 ,41.71409 
56 ,12.6020 ,1.02035 ,4.23765 ,41.57978 
57 ,12.7941 ,1.02240 ,4.20000 ,41.21042 
58 ,12.9860 ,1.02421 ,4.17605 ,40.97537 
59 ,13.1943 ,1.02629 ,4.17262 ,40.94179 
60 ,13.4023 ,1.02841 ,4.15551 ,40.77390 
61 ,13.5943 ,1.03045 ,4.12129 ,40.43812 
62 ,13.8025 ,1.03233 ,4.11445 ,40.37096 
63 ,13.9941 ,1.03437 ,4.07680 ,40.00160 
64 ,14.2182 ,1.03645 ,4.08023 ,40.03518 
65 ,14.4267 ,1.03857 ,4.04600 ,39.69940 
66 ,14.6348 ,1.04064 ,4.04258 ,39.66582 
67 ,14.8266 ,1.04259 ,4.01178 ,39.36361 
68 ,15.0350 ,1.04463 ,3.99467 ,39.19572 
69 ,15.2431 ,1.04679 ,3.97414 ,38.99425 
70 ,15.4670 ,1.04897 ,3.93307 ,38.59131 
71 ,15.6750 ,1.05103 ,3.94676 ,38.72562 
72 ,15.9310 ,1.05359 ,3.91254 ,38.38984 
73 ,16.1395 ,1.05566 ,3.90570 ,38.32268 
74 ,16.3636 ,1.05797 ,3.86121 ,37.88617 
75 ,16.5716 ,1.06002 ,3.85094 ,37.78543 
76 ,16.7798 ,1.06208 ,3.85436 ,37.81901 
77 ,17.0037 ,1.06438 ,3.82356 ,37.51681 
78 ,17.1959 ,1.06638 ,3.80645 ,37.34891 
79 ,17.4199 ,1.06858 ,3.80303 ,37.31534 
80 ,17.6280 ,1.07056 ,3.74828 ,36.77808 
81 ,17.8362 ,1.07266 ,3.76196 ,36.91240 
82 ,18.0442 ,1.07476 ,3.72774 ,36.57661 
83 ,18.2679 ,1.07699 ,3.69010 ,36.20725 
84 ,18.4760 ,1.07901 ,3.70379 ,36.34157 
85 ,18.6845 ,1.08117 ,3.66614 ,35.97220 
86 ,18.8766 ,1.08320 ,3.65246 ,35.83789 
87 ,19.1008 ,1.08528 ,3.63192 ,35.63642 
88 ,19.3408 ,1.08764 ,3.61139 ,35.43495 
89 ,19.5645 ,1.08993 ,3.58743 ,35.19990 
90 ,19.7729 ,1.09209 ,3.57717 ,35.09917 
91 ,19.9967 ,1.09427 ,3.56690 ,34.99843 
92 ,20.2051 ,1.09634 ,3.52241 ,34.56192 
93 ,20.4132 ,1.09844 ,3.53268 ,34.66265 
94 ,20.6369 ,1.10064 ,3.51215 ,34.46118 
95 ,20.8611 ,1.10287 ,3.47792 ,34.12540 
96 ,21.0693 ,1.10502 ,3.46424 ,33.99108 
97 ,21.2773 ,1.10704 ,3.46081 ,33.95751 
98 ,21.4697 ,1.10903 ,3.43001 ,33.65530 
99 ,21.7097 ,1.11127 ,3.41975 ,33.55457 
100 ,21.9176 ,1.11346 ,3.38210 ,33.18520 
101 ,22.1258 ,1.11553 ,3.36499 ,33.01731 
102 ,22.3180 ,1.11749 ,3.36842 ,33.05089 
103 ,22.5422 ,1.11975 ,3.32735 ,32.64795 
104 ,22.7502 ,1.12178 ,3.32051 ,32.58080 
105 ,22.9418 ,1.12378 ,3.29313 ,32.31217 
106 ,23.1344 ,1.12576 ,3.27602 ,32.14428 
107 ,23.3425 ,1.12774 ,3.24864 ,31.87565 
108 ,23.5345 ,1.12968 ,3.26575 ,32.04354 
109 ,23.7265 ,1.13157 ,3.21784 ,31.57345 
110 ,23.9187 ,1.13350 ,3.21784 ,31.57345 
111 ,24.1267 ,1.13558 ,3.19046 ,31.30482 
112 ,24.3188 ,1.13753 ,3.18020 ,31.20409 
113 ,24.5431 ,1.13969 ,3.14255 ,30.83472 
114 ,24.7671 ,1.14191 ,3.14255 ,30.83472 
115 ,24.9753 ,1.14406 ,3.14255 ,30.83472 
116 ,25.1827 ,1.14611 ,3.09806 ,30.39821 
117 ,25.3913 ,1.14816 ,3.09464 ,30.36463 
118 ,25.6154 ,1.15041 ,3.07069 ,30.12958 
119 ,25.8235 ,1.15249 ,3.03304 ,29.76022 
120 ,26.0316 ,1.15468 ,3.05015 ,29.92811 
121 ,26.2393 ,1.15670 ,3.00909 ,29.52517 
122 ,26.4478 ,1.15880 ,3.00224 ,29.45801 
123 ,26.6716 ,1.16099 ,2.99540 ,29.39086 
124 ,26.8799 ,1.16304 ,2.96118 ,29.05507 
125 ,27.1521 ,1.16568 ,2.95091 ,28.95434 
126 ,27.3758 ,1.16801 ,2.91669 ,28.61856 
127 ,27.6002 ,1.17027 ,2.89273 ,28.38351 
128 ,27.8082 ,1.17246 ,2.88247 ,28.28277 
129 ,28.0165 ,1.17443 ,2.86878 ,28.14846 
130 ,28.2243 ,1.17652 ,2.85509 ,28.01415 
131 ,28.4165 ,1.17842 ,2.82771 ,27.74552 
132 ,28.6246 ,1.18047 ,2.81745 ,27.64479 
133 ,28.8487 ,1.18263 ,2.80718 ,27.54405 
134 ,29.0727 ,1.18499 ,2.77980 ,27.27542 
135 ,29.2807 ,1.18703 ,2.74216 ,26.90606 
136 ,29.5050 ,1.18928 ,2.74558 ,26.93964 
137 ,29.7289 ,1.19151 ,2.72847 ,26.77175 
138 ,29.9532 ,1.19372 ,2.70794 ,26.57028 
139 ,30.1931 ,1.19607 ,2.68740 ,26.36881 
140 ,30.4014 ,1.19829 ,2.66345 ,26.13376 
141 ,30.6094 ,1.20031 ,2.66345 ,26.13376 
142 ,30.8172 ,1.20240 ,2.62923 ,25.79798 
143 ,31.0096 ,1.20439 ,2.62923 ,25.79798 
144 ,31.2174 ,1.20642 ,2.60185 ,25.52935 
145 ,31.4258 ,1.20853 ,2.59843 ,25.49577 
146 ,31.6499 ,1.21072 ,2.58132 ,25.32788 
147 ,31.8735 ,1.21296 ,2.56421 ,25.15999 
148 ,32.0820 ,1.21503 ,2.54025 ,24.92494 
149 ,32.3062 ,1.21728 ,2.52998 ,24.82421 
150 ,32.4982 ,1.21938 ,2.48892 ,24.42127 
151 ,32.7060 ,1.22130 ,2.49918 ,24.52200 
152 ,32.8980 ,1.22336 ,2.46154 ,24.15264 
153 ,33.1221 ,1.22544 ,2.45470 ,24.08549 
154 ,33.3141 ,1.22750 ,2.44101 ,23.95117 
155 ,33.5227 ,1.22946 ,2.41705 ,23.71612 
156 ,33.7468 ,1.23171 ,2.41705 ,23.71612 
157 ,33.9548 ,1.23378 ,2.37256 ,23.27961 
158 ,34.1630 ,1.23586 ,2.37941 ,23.34676 
159 ,34.3869 ,1.23814 ,2.36914 ,23.24603 
160 ,34.6107 ,1.24034 ,2.33492 ,22.91024 
161 ,34.8192 ,1.24248 ,2.31097 ,22.67520 
162 ,35.0433 ,1.24467 ,2.32465 ,22.80951 
163 ,35.2355 ,1.24668 ,2.29043 ,22.47373 
164 ,35.4274 ,1.24859 ,2.29043 ,22.47373 
165 ,35.6357 ,1.25060 ,2.23910 ,21.97005 
166 ,35.8594 ,1.25280 ,2.23568 ,21.93647 
167 ,36.0675 ,1.25490 ,2.21515 ,21.73500 
168 ,36.2755 ,1.25701 ,2.18777 ,21.46638 
169 ,36.4840 ,1.25912 ,2.19803 ,21.56711 
170 ,36.7077 ,1.26131 ,2.17408 ,21.33206 
171 ,36.9163 ,1.26337 ,2.15012 ,21.09702 
172 ,37.1242 ,1.26560 ,2.13644 ,20.96270 
173 ,37.3323 ,1.26758 ,2.10564 ,20.66050 
174 ,37.5405 ,1.26966 ,2.11932 ,20.79481 
175 ,37.7485 ,1.27175 ,2.09537 ,20.55976 
176 ,37.9567 ,1.27377 ,2.06457 ,20.25756 
177 ,38.1647 ,1.27590 ,2.06799 ,20.29114 
178 ,38.4048 ,1.27828 ,2.05430 ,20.15682 
179 ,38.6608 ,1.28070 ,2.02008 ,19.82104 
180 ,38.8848 ,1.28309 ,2.01324 ,19.75388 
181 ,39.0928 ,1.28513 ,1.97559 ,19.38452 
182 ,39.3011 ,1.28724 ,1.97559 ,19.38452 
183 ,39.5092 ,1.28930 ,1.96190 ,19.25021 
184 ,39.7171 ,1.29139 ,1.93453 ,18.98158 
185 ,39.9254 ,1.29342 ,1.92426 ,18.88085 
186 ,40.1335 ,1.29555 ,1.88319 ,18.47791 
187 ,40.3417 ,1.29766 ,1.89346 ,18.57864 
188 ,40.5497 ,1.29973 ,1.86608 ,18.31002 
189 ,40.7734 ,1.30192 ,1.84555 ,18.10855 
190 ,40.9818 ,1.30397 ,1.85582 ,18.20928 
191 ,41.1899 ,1.30613 ,1.81475 ,17.80634 
192 ,41.3981 ,1.30816 ,1.80106 ,17.67203 
193 ,41.6062 ,1.31033 ,1.79080 ,17.57129 
194 ,41.8299 ,1.31250 ,1.76342 ,17.30267 
195 ,42.0545 ,1.31469 ,1.75657 ,17.23551 
196 ,42.2786 ,1.31699 ,1.74289 ,17.10120 
197 ,42.4861 ,1.31910 ,1.72920 ,16.96689 
198 ,42.6944 ,1.32116 ,1.70524 ,16.73184 
199 ,42.9029 ,1.32326 ,1.70182 ,16.69826 
200 ,43.1588 ,1.32571 ,1.67444 ,16.42963 
201 ,43.3829 ,1.32801 ,1.66075 ,16.29532 
202 ,43.6068 ,1.33030 ,1.64364 ,16.12743 
203 ,43.8147 ,1.33231 ,1.61969 ,15.89238 
204 ,44.0227 ,1.33455 ,1.60600 ,15.75807 
205 ,44.2788 ,1.33696 ,1.59916 ,15.69091 
206 ,44.5029 ,1.33916 ,1.55467 ,15.25439 
207 ,44.7269 ,1.34142 ,1.53756 ,15.08650 
208 ,44.9356 ,1.34356 ,1.52729 ,14.98577 
209 ,45.1437 ,1.34573 ,1.52045 ,14.91861 
210 ,45.3517 ,1.34777 ,1.49991 ,14.71714 
211 ,45.5916 ,1.35002 ,1.48965 ,14.61640 
212 ,45.8160 ,1.35234 ,1.47253 ,14.44851 
213 ,46.0241 ,1.35440 ,1.45542 ,14.28062 
214 ,46.2322 ,1.35647 ,1.43147 ,14.04557 
215 ,46.4401 ,1.35870 ,1.42805 ,14.01199 
216 ,46.6481 ,1.36070 ,1.40067 ,13.74337 
217 ,46.8567 ,1.36276 ,1.38698 ,13.60906 
218 ,47.0806 ,1.36496 ,1.38014 ,13.54190 
219 ,47.2886 ,1.36713 ,1.33565 ,13.10538 
220 ,47.4964 ,1.36923 ,1.33565 ,13.10538 
221 ,47.7208 ,1.37139 ,1.33223 ,13.07180 
222 ,47.9449 ,1.37363 ,1.29800 ,12.73602 
223 ,48.1687 ,1.37583 ,1.28089 ,12.56813 
224 ,48.3771 ,1.37793 ,1.30143 ,12.76960 
225 ,48.5846 ,1.38001 ,1.26378 ,12.40024 
226 ,48.7771 ,1.38198 ,1.25694 ,12.33308 
227 ,48.9853 ,1.38404 ,1.23641 ,12.13161 
228 ,49.2414 ,1.38662 ,1.24325 ,12.19877 
229 ,49.4655 ,1.38888 ,1.19876 ,11.76225 
230 ,49.6731 ,1.39105 ,1.17481 ,11.52720 
231 ,49.8817 ,1.39294 ,1.18850 ,11.66151 
232 ,50.0895 ,1.39510 ,1.15427 ,11.32573 
233 ,50.2978 ,1.39714 ,1.15770 ,11.35931 
234 ,50.5220 ,1.39940 ,1.14058 ,11.19142 
235 ,50.6976 ,1.40129 ,1.11321 ,10.92279 
236 ,50.9222 ,1.40339 ,1.08925 ,10.68774 
237 ,51.1462 ,1.40564 ,1.06872 ,10.48627 
238 ,51.3380 ,1.40768 ,1.08925 ,10.68774 
239 ,51.5463 ,1.40965 ,1.04476 ,10.25123 
240 ,51.7384 ,1.41166 ,1.05503 ,10.35196 
241 ,51.9626 ,1.41379 ,1.01054 ,9.91544 
242 ,52.1707 ,1.41584 ,1.00712 ,9.88186 
243 ,52.3787 ,1.41793 ,1.00370 ,9.84829 
244 ,52.5869 ,1.42008 ,0.96605 ,9.47892 
245 ,52.7949 ,1.42215 ,0.97632 ,9.57966 
246 ,53.0025 ,1.42418 ,0.94552 ,9.27745 
247 ,53.2112 ,1.42623 ,0.93525 ,9.17672 
248 ,53.4353 ,1.42852 ,0.92499 ,9.07598 
249 ,53.6434 ,1.43068 ,0.89077 ,8.74020 
250 ,53.8674 ,1.43282 ,0.88050 ,8.63947 
251 ,54.0751 ,1.43488 ,0.89077 ,8.74020 
252 ,54.2837 ,1.43708 ,0.84628 ,8.30368 
253 ,54.5077 ,1.43923 ,0.82917 ,8.13579 
254 ,54.7319 ,1.44154 ,0.83259 ,8.16937 
255 ,54.9559 ,1.44372 ,0.82232 ,8.06864 
256 ,55.1636 ,1.44578 ,0.78126 ,7.66570 
257 ,55.3880 ,1.44805 ,0.77784 ,7.63212 
258 ,55.6120 ,1.45028 ,0.77441 ,7.59854 
259 ,55.8204 ,1.45234 ,0.75730 ,7.43065 
260 ,56.0443 ,1.45461 ,0.72992 ,7.16202 
261 ,56.2526 ,1.45667 ,0.74361 ,7.29633 
262 ,56.4768 ,1.45896 ,0.71281 ,6.99413 
263 ,56.7007 ,1.46114 ,0.69570 ,6.82624 
264 ,56.9087 ,1.46324 ,0.68201 ,6.69193 
265 ,57.1327 ,1.46547 ,0.66833 ,6.55761 
266 ,57.3410 ,1.46755 ,0.63753 ,6.25541 
267 ,57.5810 ,1.46989 ,0.62726 ,6.15467 
268 ,57.7892 ,1.47210 ,0.61699 ,6.05394 
269 ,57.9973 ,1.47414 ,0.61015 ,5.98678 
270 ,58.2214 ,1.47631 ,0.58962 ,5.78531 
271 ,58.4294 ,1.47844 ,0.58962 ,5.78531 
272 ,58.6374 ,1.48045 ,0.56908 ,5.58384 
273 ,58.8295 ,1.48245 ,0.54855 ,5.38237 
274 ,59.0535 ,1.48455 ,0.53828 ,5.28164 
275 ,59.2937 ,1.48698 ,0.53828 ,5.28164 
276 ,59.5179 ,1.48930 ,0.51433 ,5.04659 
277 ,59.7257 ,1.49137 ,0.48695 ,4.77796 
278 ,59.9341 ,1.49346 ,0.48695 ,4.77796 
279 ,60.1578 ,1.49570 ,0.47668 ,4.67723 
280 ,60.3659 ,1.49778 ,0.44246 ,4.34144 
281 ,60.5743 ,1.49988 ,0.45957 ,4.50934 
282 ,60.7819 ,1.50200 ,0.40824 ,4.00566 
283 ,60.9744 ,1.50404 ,0.43220 ,4.24071 
284 ,61.1824 ,1.50595 ,0.39455 ,3.87135 
285 ,61.3906 ,1.50807 ,0.40824 ,4.00566 
286 ,61.5986 ,1.51009 ,0.37402 ,3.66988 
287 ,61.8065 ,1.51216 ,0.37402 ,3.66988 
288 ,62.0148 ,1.51430 ,0.34664 ,3.40125 
289 ,62.2068 ,1.51628 ,0.32611 ,3.19978 
290 ,62.4151 ,1.51831 ,0.32953 ,3.23336 
291 ,62.6391 ,1.52046 ,0.30215 ,2.96473 
292 ,62.8313 ,1.52250 ,0.31242 ,3.06547 
293 ,63.0549 ,1.52468 ,0.29189 ,2.86400 
294 ,63.2474 ,1.52670 ,0.26451 ,2.59537 
295 ,63.4715 ,1.52882 ,0.26451 ,2.59537 
296 ,63.6794 ,1.53089 ,0.23713 ,2.32675 
297 ,63.9037 ,1.53317 ,0.22687 ,2.22601 
298 ,64.1114 ,1.53524 ,0.22344 ,2.19243 
299 ,64.3195 ,1.53734 ,0.20633 ,2.02454 
300 ,64.5277 ,1.53941 ,0.20633 ,2.02454 
301 ,64.7360 ,1.54151 ,0.17211 ,1.68876 
302 ,64.9442 ,1.54357 ,0.16185 ,1.58802 
303 ,65.1361 ,1.54559 ,0.16185 ,1.58802 
304 ,65.3442 ,1.54757 ,0.15842 ,1.55445 
305 ,65.5524 ,1.54960 ,0.14131 ,1.38655 
306 ,65.7603 ,1.55173 ,0.10709 ,1.05077 
307 ,65.9846 ,1.55394 ,0.11736 ,1.15151 
308 ,66.1767 ,1.55598 ,0.09340 ,0.91646 
309 ,66.3843 ,1.55792 ,0.08314 ,0.81572 
310 ,66.5929 ,1.56005 ,0.08314 ,0.81572 
311 ,66.8167 ,1.56228 ,0.03865 ,0.37920 
312 ,67.0249 ,1.56434 ,0.05234 ,0.51352 
313 ,67.2332 ,1.56645 ,0.02838 ,0.27847 
314 ,67.4248 ,1.56846 ,0.00785 ,0.07700 
315 ,67.6333 ,1.57047 ,-0.01611 ,-0.15805 
316 ,67.8734 ,1.57275 ,-0.02637 ,-0.25878 
317 ,68.0814 ,1.57489 ,-0.02637 ,-0.25878 
318 ,68.2894 ,1.57699 ,-0.01953 ,-0.19163 
319 ,68.4816 ,1.57897 ,-0.06402 ,-0.62814 
320 ,68.7055 ,1.58120 ,-0.04691 ,-0.46025 
321 ,68.9298 ,1.58339 ,-0.07771 ,-0.76246 
322 ,69.1374 ,1.58549 ,-0.10166 ,-0.99751 
323 ,69.3454 ,1.58764 ,-0.08455 ,-0.82961 
324 ,69.5537 ,1.58974 ,-0.11193 ,-1.09824 
325 ,69.7940 ,1.59207 ,-0.14273 ,-1.40045 
326 ,70.0024 ,1.59411 ,-0.13246 ,-1.29971 
327 ,70.2264 ,1.59629 ,-0.14957 ,-1.46760 
328 ,70.4184 ,1.59828 ,-0.17695 ,-1.73623 
329 ,70.6425 ,1.60051 ,-0.17011 ,-1.66907 
330 ,70.8342 ,1.60248 ,-0.19748 ,-1.93770 
331 ,71.0426 ,1.60451 ,-0.19064 ,-1.87054 
332 ,71.2510 ,1.60662 ,-0.22144 ,-2.17275 
333 ,71.4749 ,1.60884 ,-0.24197 ,-2.37422 
334 ,71.6828 ,1.61089 ,-0.22144 ,-2.17275 
335 ,71.9387 ,1.61349 ,-0.26593 ,-2.60926 
336 ,72.1632 ,1.61564 ,-0.25224 ,-2.47495 
337 ,72.3712 ,1.61783 ,-0.27961 ,-2.74358 
338 ,72.5793 ,1.61985 ,-0.29330 ,-2.87789 
339 ,72.8035 ,1.62207 ,-0.28988 ,-2.84431 
340 ,73.0272 ,1.62434 ,-0.31384 ,-3.07936 
341 ,73.2517 ,1.62653 ,-0.33437 ,-3.28083 
342 ,73.4757 ,1.62885 ,-0.36517 ,-3.58303 
343 ,73.6838 ,1.63093 ,-0.32752 ,-3.21367 
344 ,73.8918 ,1.63300 ,-0.37886 ,-3.71735 
345 ,74.1000 ,1.63507 ,-0.38228 ,-3.75093 
346 ,74.3401 ,1.63743 ,-0.39255 ,-3.85166 
347 ,74.5640 ,1.63978 ,-0.39597 ,-3.88524 
348 ,74.7723 ,1.64182 ,-0.43019 ,-4.22102 
349 ,74.9804 ,1.64385 ,-0.41650 ,-4.08671 
350 ,75.1885 ,1.64592 ,-0.44046 ,-4.32176 
351 ,75.3962 ,1.64807 ,-0.45757 ,-4.48965 
352 ,75.6047 ,1.65014 ,-0.44730 ,-4.38891 
353 ,75.8128 ,1.65215 ,-0.48152 ,-4.72470 
354 ,76.0208 ,1.65430 ,-0.47810 ,-4.69112 
355 ,76.2289 ,1.65637 ,-0.50548 ,-4.95975 
356 ,76.4366 ,1.65845 ,-0.50548 ,-4.95975 
357 ,76.6291 ,1.66045 ,-0.53285 ,-5.22837 
358 ,76.8372 ,1.66244 ,-0.53628 ,-5.26195 
359 ,77.0453 ,1.66466 ,-0.53285 ,-5.22837 
360 ,77.2535 ,1.66658 ,-0.56023 ,-5.49700 
361 ,77.4771 ,1.66880 ,-0.55681 ,-5.46342 
362 ,77.6694 ,1.67091 ,-0.57734 ,-5.66489 
363 ,77.8776 ,1.67288 ,-0.58419 ,-5.73205 
364 ,78.1017 ,1.67499 ,-0.60130 ,-5.89994 
365 ,78.3097 ,1.67715 ,-0.62868 ,-6.16856 
366 ,78.5178 ,1.67928 ,-0.62525 ,-6.13499 
367 ,78.7258 ,1.68133 ,-0.65263 ,-6.40361 
368 ,78.9499 ,1.68355 ,-0.65605 ,-6.43719 
369 ,79.1581 ,1.68563 ,-0.65605 ,-6.43719 
370 ,79.3500 ,1.68762 ,-0.68001 ,-6.67224 
371 ,79.5422 ,1.68954 ,-0.67316 ,-6.60508 
372 ,79.7339 ,1.69144 ,-0.69712 ,-6.84013 
373 ,79.9421 ,1.69346 ,-0.70054 ,-6.87371 
374 ,80.1503 ,1.69550 ,-0.72792 ,-7.14233 
375 ,80.3589 ,1.69764 ,-0.72107 ,-7.07518 
376 ,80.5665 ,1.69985 ,-0.73476 ,-7.20949 
377 ,80.7746 ,1.70174 ,-0.73476 ,-7.20949 
378 ,81.0145 ,1.70407 ,-0.75187 ,-7.37738 
379 ,81.2230 ,1.70632 ,-0.76898 ,-7.54527 
380 ,81.4471 ,1.70855 ,-0.79636 ,-7.81390 
381 ,81.6552 ,1.71062 ,-0.78952 ,-7.74674 
382 ,81.8631 ,1.71269 ,-0.81347 ,-7.98179 
383 ,82.0872 ,1.71495 ,-0.83058 ,-8.14968 
384 ,82.3114 ,1.71713 ,-0.83058 ,-8.14968 
385 ,82.5355 ,1.71941 ,-0.82716 ,-8.11611 
386 ,82.7437 ,1.72148 ,-0.86823 ,-8.51904 
387 ,82.9673 ,1.72376 ,-0.87849 ,-8.61978 
388 ,83.1917 ,1.72586 ,-0.86481 ,-8.48547 
389 ,83.3678 ,1.72787 ,-0.88534 ,-8.68694 
390 ,83.5760 ,1.72980 ,-0.87507 ,-8.58620 
391 ,83.7839 ,1.73184 ,-0.92640 ,-9.08988 
392 ,83.9920 ,1.73403 ,-0.92298 ,-9.05630 
393 ,84.1838 ,1.73591 ,-0.93325 ,-9.15703 
394 ,84.3923 ,1.73799 ,-0.93325 ,-9.15703 
395 ,84.6164 ,1.74022 ,-0.92983 ,-9.12345 
396 ,84.8405 ,1.74244 ,-0.97089 ,-9.52639 
397 ,85.0488 ,1.74453 ,-0.97774 ,-9.59355 
398 ,85.2723 ,1.74675 ,-0.98458 ,-9.66071 
399 ,85.4808 ,1.74891 ,-0.99485 ,-9.76144 
400 ,85.7048 ,1.75108 ,-1.02565 ,-10.06365 
401 ,85.8967 ,1.75318 ,-1.00854 ,-9.89576 
402 ,86.1049 ,1.75504 ,-1.04618 ,-10.26512 
403 ,86.3609 ,1.75752 ,-1.05645 ,-10.36585 
404 ,86.5851 ,1.75994 ,-1.05987 ,-10.39943 
405 ,86.8093 ,1.76211 ,-1.06671 ,-10.46659 
406 ,87.0173 ,1.76417 ,-1.05987 ,-10.39943 
407 ,87.2255 ,1.76627 ,-1.09067 ,-10.70163 
408 ,87.4335 ,1.76838 ,-1.07698 ,-10.56732 
409 ,87.6415 ,1.77041 ,-1.11120 ,-10.90310 
410 ,87.8497 ,1.77252 ,-1.10093 ,-10.80237 
411 ,88.0739 ,1.77476 ,-1.11805 ,-10.97026 
412 ,88.2975 ,1.77702 ,-1.13516 ,-11.13815 
413 ,88.5061 ,1.77902 ,-1.16253 ,-11.40678 
414 ,88.6980 ,1.78118 ,-1.14884 ,-11.27247 
415 ,88.9062 ,1.78307 ,-1.16938 ,-11.47394 
416 ,89.1303 ,1.78526 ,-1.17622 ,-11.54109 
417 ,89.3383 ,1.78746 ,-1.18649 ,-11.64183 
418 ,89.5624 ,1.78963 ,-1.22413 ,-12.01119 
419 ,89.7701 ,1.79174 ,-1.19333 ,-11.70898 
420 ,89.9781 ,1.79377 ,-1.22413 ,-12.01119 
421 ,90.1864 ,1.79584 ,-1.22413 ,-12.01119 
422 ,90.3949 ,1.79795 ,-1.22755 ,-12.04477 
423 ,90.6188 ,1.80020 ,-1.26178 ,-12.38055 
424 ,90.8265 ,1.80227 ,-1.25835 ,-12.34697 
425 ,91.0511 ,1.80450 ,-1.25835 ,-12.34697 
426 ,91.2751 ,1.80674 ,-1.28231 ,-12.58202 
427 ,91.4992 ,1.80899 ,-1.30969 ,-12.85065 
428 ,91.7073 ,1.81106 ,-1.29258 ,-12.68275 
429 ,91.9151 ,1.81314 ,-1.31653 ,-12.91780 
430 ,92.1395 ,1.81546 ,-1.33706 ,-13.11927 
431 ,92.3636 ,1.81770 ,-1.34049 ,-13.15285 
432 ,92.5876 ,1.81986 ,-1.34049 ,-13.15285 
433 ,92.7952 ,1.82199 ,-1.37129 ,-13.45506 
434 ,93.0035 ,1.82399 ,-1.34391 ,-13.18643 
435 ,93.1953 ,1.82606 ,-1.36786 ,-13.42148 
436 ,93.4037 ,1.82805 ,-1.38497 ,-13.58937 
437 ,93.5960 ,1.82999 ,-1.38497 ,-13.58937 
438 ,93.8523 ,1.83256 ,-1.39866 ,-13.72368 
439 ,94.0602 ,1.83458 ,-1.42604 ,-13.99231 
440 ,94.2678 ,1.83668 ,-1.41235 ,-13.85799 
441 ,94.4761 ,1.83874 ,-1.44657 ,-14.19378 
442 ,94.6843 ,1.84091 ,-1.45000 ,-14.22736 
443 ,94.8924 ,1.84293 ,-1.44315 ,-14.16020 
444 ,95.1007 ,1.84502 ,-1.47053 ,-14.42883 
445 ,95.3243 ,1.84718 ,-1.46711 ,-14.39525 
446 ,95.5328 ,1.84938 ,-1.46711 ,-14.39525 
447 ,95.7567 ,1.85155 ,-1.49791 ,-14.69745 
448 ,95.9488 ,1.85349 ,-1.48080 ,-14.52956 
449 ,96.1567 ,1.85559 ,-1.50475 ,-14.76461 
450 ,96.3651 ,1.85761 ,-1.51159 ,-14.83177 
451 ,96.5732 ,1.85974 ,-1.53213 ,-15.03324 
452 ,96.7971 ,1.86197 ,-1.54924 ,-15.20113 
453 ,97.0053 ,1.86404 ,-1.54239 ,-15.13397 
454 ,97.2134 ,1.86608 ,-1.56635 ,-15.36902 
455 ,97.4216 ,1.86818 ,-1.56977 ,-15.40260 
456 ,97.6456 ,1.87045 ,-1.55950 ,-15.30186 
457 ,97.8542 ,1.87254 ,-1.58688 ,-15.57049 
458 ,98.0616 ,1.87458 ,-1.60399 ,-15.73838 
459 ,98.2536 ,1.87665 ,-1.60057 ,-15.70480 
460 ,98.4618 ,1.87859 ,-1.60399 ,-15.73838 
