Data stamp = , 18-05-2022 18:39:31 058

Calibration Values: 
Slope = , 26.54 , g/V 
Offset Voltage at no contact = , -0.501760 , V 

No , Time , Stage Position ,   Mass , Force 
   ,  (s) ,      (mm)      ,   (g)  , (mN)  

1 ,0.0000 ,0.89969 ,5.32247 ,52.22410 
2 ,0.2402 ,0.89976 ,5.34301 ,52.42557 
3 ,1.0245 ,0.90352 ,5.31905 ,52.19052 
4 ,1.2649 ,0.90696 ,5.34301 ,52.42557 
5 ,1.4884 ,0.90915 ,5.32932 ,52.29126 
6 ,1.6807 ,0.91134 ,5.31221 ,52.12337 
7 ,1.9530 ,0.91381 ,5.28141 ,51.82116 
8 ,2.1771 ,0.91619 ,5.25403 ,51.55254 
9 ,2.4011 ,0.91841 ,5.25745 ,51.58611 
10 ,2.6090 ,0.92053 ,5.21639 ,51.18317 
11 ,2.8175 ,0.92259 ,5.19243 ,50.94813 
12 ,3.0256 ,0.92473 ,5.18559 ,50.88097 
13 ,3.2337 ,0.92673 ,5.14110 ,50.44445 
14 ,3.4416 ,0.92880 ,5.14794 ,50.51161 
15 ,3.6339 ,0.93081 ,5.11030 ,50.14225 
16 ,3.8578 ,0.93298 ,5.09661 ,50.00793 
17 ,4.0661 ,0.93507 ,5.08292 ,49.87362 
18 ,4.2742 ,0.93711 ,5.04528 ,49.50426 
19 ,4.4983 ,0.93934 ,5.02132 ,49.26921 
20 ,4.7063 ,0.94148 ,5.02132 ,49.26921 
21 ,4.9302 ,0.94367 ,4.98710 ,48.93343 
22 ,5.1384 ,0.94575 ,4.96657 ,48.73196 
23 ,5.3306 ,0.94776 ,4.95972 ,48.66480 
24 ,5.5224 ,0.94963 ,4.93577 ,48.42975 
25 ,5.7306 ,0.95167 ,4.90497 ,48.12755 
26 ,5.9384 ,0.95378 ,4.89470 ,48.02681 
27 ,6.1308 ,0.95585 ,4.89470 ,48.02681 
28 ,6.3550 ,0.95791 ,4.83995 ,47.48956 
29 ,6.5309 ,0.95984 ,4.85021 ,47.59030 
30 ,6.7552 ,0.96193 ,4.80230 ,47.12020 
31 ,6.9792 ,0.96417 ,4.79204 ,47.01946 
32 ,7.1873 ,0.96623 ,4.77493 ,46.85157 
33 ,7.3794 ,0.96828 ,4.74070 ,46.51579 
34 ,7.5713 ,0.97019 ,4.72702 ,46.38148 
35 ,7.7633 ,0.97203 ,4.72359 ,46.34790 
36 ,7.9876 ,0.97417 ,4.69964 ,46.11285 
37 ,8.2113 ,0.97649 ,4.67568 ,45.87780 
38 ,8.4199 ,0.97862 ,4.64831 ,45.60918 
39 ,8.6440 ,0.98082 ,4.65515 ,45.67633 
40 ,8.8520 ,0.98290 ,4.61066 ,45.23981 
41 ,9.0761 ,0.98512 ,4.57986 ,44.93761 
42 ,9.2838 ,0.98720 ,4.58671 ,45.00477 
43 ,9.4922 ,0.98936 ,4.54222 ,44.56825 
44 ,9.7163 ,0.99156 ,4.52169 ,44.36678 
45 ,9.9246 ,0.99365 ,4.52853 ,44.43394 
46 ,10.1324 ,0.99569 ,4.50457 ,44.19889 
47 ,10.3410 ,0.99783 ,4.48062 ,43.96384 
48 ,10.5483 ,0.99988 ,4.46009 ,43.76237 
49 ,10.7410 ,1.00182 ,4.42586 ,43.42659 
50 ,10.9488 ,1.00382 ,4.43955 ,43.56090 
51 ,11.1410 ,1.00579 ,4.40191 ,43.19154 
52 ,11.3651 ,1.00799 ,4.38480 ,43.02365 
53 ,11.5728 ,1.01006 ,4.35400 ,42.72144 
54 ,11.7812 ,1.01217 ,4.35400 ,42.72144 
55 ,12.0054 ,1.01443 ,4.33347 ,42.51997 
56 ,12.1975 ,1.01637 ,4.29582 ,42.15061 
57 ,12.4376 ,1.01863 ,4.28898 ,42.08345 
58 ,12.6933 ,1.02112 ,4.26160 ,41.81483 
59 ,12.8858 ,1.02328 ,4.25476 ,41.74767 
60 ,13.0937 ,1.02526 ,4.22396 ,41.44547 
61 ,13.2860 ,1.02723 ,4.21027 ,41.31115 
62 ,13.4937 ,1.02933 ,4.18289 ,41.04253 
63 ,13.7177 ,1.03156 ,4.16236 ,40.84106 
64 ,13.9102 ,1.03361 ,4.15551 ,40.77390 
65 ,14.1343 ,1.03572 ,4.13156 ,40.53885 
66 ,14.3423 ,1.03775 ,4.11445 ,40.37096 
67 ,14.5505 ,1.03985 ,4.11103 ,40.33738 
68 ,14.7586 ,1.04193 ,4.06654 ,39.90087 
69 ,14.9826 ,1.04419 ,4.05969 ,39.83371 
70 ,15.2068 ,1.04645 ,4.04600 ,39.69940 
71 ,15.4148 ,1.04845 ,4.00836 ,39.33003 
72 ,15.6228 ,1.05059 ,3.99467 ,39.19572 
73 ,15.7989 ,1.05252 ,3.98098 ,39.06141 
74 ,16.0071 ,1.05447 ,3.98098 ,39.06141 
75 ,16.2310 ,1.05664 ,3.95361 ,38.79278 
76 ,16.4392 ,1.05871 ,3.91596 ,38.42342 
77 ,16.6470 ,1.06081 ,3.91254 ,38.38984 
78 ,16.8554 ,1.06285 ,3.87490 ,38.02048 
79 ,17.0630 ,1.06502 ,3.85436 ,37.81901 
80 ,17.2716 ,1.06706 ,3.85436 ,37.81901 
81 ,17.4956 ,1.06926 ,3.82699 ,37.55038 
82 ,17.7037 ,1.07135 ,3.80645 ,37.34891 
83 ,17.9279 ,1.07362 ,3.80303 ,37.31534 
84 ,18.1355 ,1.07569 ,3.76539 ,36.94597 
85 ,18.3441 ,1.07775 ,3.74485 ,36.74450 
86 ,18.5678 ,1.08005 ,3.74485 ,36.74450 
87 ,18.7762 ,1.08205 ,3.71405 ,36.44230 
88 ,19.0002 ,1.08441 ,3.66957 ,36.00578 
89 ,19.2081 ,1.08642 ,3.67641 ,36.07294 
90 ,19.4486 ,1.08882 ,3.66272 ,35.93863 
91 ,19.6724 ,1.09104 ,3.64219 ,35.73716 
92 ,19.8806 ,1.09318 ,3.59086 ,35.23348 
93 ,20.0887 ,1.09519 ,3.58743 ,35.19990 
94 ,20.2968 ,1.09726 ,3.58059 ,35.13275 
95 ,20.5369 ,1.09962 ,3.55663 ,34.89770 
96 ,20.7607 ,1.10193 ,3.51557 ,34.49476 
97 ,20.9691 ,1.10398 ,3.52241 ,34.56192 
98 ,21.1771 ,1.10610 ,3.50188 ,34.36045 
99 ,21.3852 ,1.10827 ,3.46766 ,34.02466 
100 ,21.5929 ,1.11023 ,3.46766 ,34.02466 
101 ,21.7694 ,1.11216 ,3.44713 ,33.82319 
102 ,21.9773 ,1.11410 ,3.42659 ,33.62172 
103 ,22.1856 ,1.11615 ,3.39579 ,33.31952 
104 ,22.3939 ,1.11822 ,3.40606 ,33.42025 
105 ,22.5853 ,1.12026 ,3.36157 ,32.98374 
106 ,22.7938 ,1.12229 ,3.36499 ,33.01731 
107 ,23.0178 ,1.12448 ,3.34104 ,32.78227 
108 ,23.2260 ,1.12655 ,3.32051 ,32.58080 
109 ,23.4502 ,1.12883 ,3.30339 ,32.41290 
110 ,23.6577 ,1.13098 ,3.29655 ,32.34575 
111 ,23.8663 ,1.13297 ,3.26575 ,32.04354 
112 ,24.0903 ,1.13519 ,3.25206 ,31.90923 
113 ,24.2824 ,1.13714 ,3.21784 ,31.57345 
114 ,24.5066 ,1.13939 ,3.19731 ,31.37198 
115 ,24.6984 ,1.14141 ,3.20415 ,31.43913 
116 ,24.9069 ,1.14338 ,3.16651 ,31.06977 
117 ,25.1149 ,1.14554 ,3.16651 ,31.06977 
118 ,25.3229 ,1.14752 ,3.13571 ,30.76757 
119 ,25.5150 ,1.14947 ,3.14255 ,30.83472 
120 ,25.7232 ,1.15154 ,3.09122 ,30.33105 
121 ,25.9311 ,1.15358 ,3.09464 ,30.36463 
122 ,26.1395 ,1.15574 ,3.06726 ,30.09600 
123 ,26.3635 ,1.15794 ,3.04673 ,29.89453 
124 ,26.5875 ,1.16016 ,3.03647 ,29.79380 
125 ,26.7957 ,1.16223 ,3.02620 ,29.69306 
126 ,26.9873 ,1.16431 ,2.98171 ,29.25654 
127 ,27.1957 ,1.16622 ,2.99198 ,29.35728 
128 ,27.4359 ,1.16861 ,2.96460 ,29.08865 
129 ,27.6279 ,1.17068 ,2.91669 ,28.61856 
130 ,27.8200 ,1.17260 ,2.92696 ,28.71929 
131 ,28.0119 ,1.17445 ,2.90300 ,28.48424 
132 ,28.2522 ,1.17676 ,2.88247 ,28.28277 
133 ,28.4764 ,1.17900 ,2.89273 ,28.38351 
134 ,28.7004 ,1.18120 ,2.84140 ,27.87983 
135 ,28.9399 ,1.18384 ,2.84825 ,27.94699 
136 ,29.1483 ,1.18578 ,2.79691 ,27.44332 
137 ,29.3403 ,1.18786 ,2.79349 ,27.40974 
138 ,29.5485 ,1.18974 ,2.76954 ,27.17469 
139 ,29.7412 ,1.19173 ,2.77296 ,27.20827 
140 ,29.9647 ,1.19394 ,2.73189 ,26.80533 
141 ,30.1729 ,1.19598 ,2.72163 ,26.70459 
142 ,30.3972 ,1.19823 ,2.72163 ,26.70459 
143 ,30.5889 ,1.20034 ,2.68056 ,26.30165 
144 ,30.7812 ,1.20224 ,2.68056 ,26.30165 
145 ,31.0054 ,1.20429 ,2.63607 ,25.86514 
146 ,31.2134 ,1.20640 ,2.64292 ,25.93229 
147 ,31.4210 ,1.20852 ,2.62581 ,25.76440 
148 ,31.6136 ,1.21043 ,2.59843 ,25.49577 
149 ,31.8376 ,1.21266 ,2.59158 ,25.42862 
150 ,32.0454 ,1.21477 ,2.55394 ,25.05926 
151 ,32.2694 ,1.21697 ,2.53683 ,24.89136 
152 ,32.4774 ,1.21906 ,2.54025 ,24.92494 
153 ,32.7016 ,1.22132 ,2.51972 ,24.72347 
154 ,32.9097 ,1.22336 ,2.48892 ,24.42127 
155 ,33.1180 ,1.22547 ,2.49234 ,24.45485 
156 ,33.3264 ,1.22761 ,2.45812 ,24.11906 
157 ,33.5501 ,1.22975 ,2.44443 ,23.98475 
158 ,33.7584 ,1.23190 ,2.43416 ,23.88402 
159 ,33.9665 ,1.23401 ,2.41363 ,23.68255 
160 ,34.1908 ,1.23612 ,2.37941 ,23.34676 
161 ,34.3988 ,1.23824 ,2.37941 ,23.34676 
162 ,34.6069 ,1.24034 ,2.35203 ,23.07814 
163 ,34.8470 ,1.24255 ,2.34861 ,23.04456 
164 ,35.0547 ,1.24483 ,2.32123 ,22.77593 
165 ,35.2631 ,1.24687 ,2.31781 ,22.74235 
166 ,35.4710 ,1.24898 ,2.27674 ,22.33941 
167 ,35.6794 ,1.25109 ,2.29043 ,22.47373 
168 ,35.9034 ,1.25328 ,2.26306 ,22.20510 
169 ,36.0794 ,1.25523 ,2.23226 ,21.90290 
170 ,36.2877 ,1.25714 ,2.22199 ,21.80216 
171 ,36.4954 ,1.25931 ,2.20830 ,21.66785 
172 ,36.7037 ,1.26134 ,2.20146 ,21.60069 
173 ,36.9274 ,1.26351 ,2.17066 ,21.29849 
174 ,37.1197 ,1.26564 ,2.15355 ,21.13059 
175 ,37.3280 ,1.26761 ,2.14670 ,21.06344 
176 ,37.5361 ,1.26959 ,2.12959 ,20.89555 
177 ,37.7443 ,1.27170 ,2.12275 ,20.82839 
178 ,37.9522 ,1.27374 ,2.07826 ,20.39187 
179 ,38.1762 ,1.27603 ,2.07826 ,20.39187 
180 ,38.4165 ,1.27831 ,2.07826 ,20.39187 
181 ,38.6405 ,1.28062 ,2.05088 ,20.12325 
182 ,38.8487 ,1.28277 ,2.01666 ,19.78746 
183 ,39.0726 ,1.28494 ,2.00297 ,19.65315 
184 ,39.2807 ,1.28709 ,1.99613 ,19.58599 
185 ,39.4568 ,1.28902 ,1.97217 ,19.35094 
186 ,39.6809 ,1.29107 ,1.97559 ,19.38452 
187 ,39.9050 ,1.29326 ,1.96190 ,19.25021 
188 ,40.1130 ,1.29537 ,1.92426 ,18.88085 
189 ,40.3367 ,1.29760 ,1.91399 ,18.78011 
190 ,40.5454 ,1.29970 ,1.91057 ,18.74654 
191 ,40.7375 ,1.30171 ,1.85924 ,18.24286 
192 ,40.9295 ,1.30367 ,1.86951 ,18.34360 
193 ,41.1377 ,1.30562 ,1.84897 ,18.14213 
194 ,41.3459 ,1.30773 ,1.83186 ,17.97423 
195 ,41.5855 ,1.31005 ,1.81475 ,17.80634 
196 ,41.7777 ,1.31216 ,1.78395 ,17.50414 
197 ,41.9860 ,1.31415 ,1.79422 ,17.60487 
198 ,42.2101 ,1.31635 ,1.76342 ,17.30267 
199 ,42.4181 ,1.31843 ,1.74973 ,17.16836 
200 ,42.6262 ,1.32055 ,1.73604 ,17.03404 
201 ,42.8339 ,1.32260 ,1.71209 ,16.79899 
202 ,43.0422 ,1.32467 ,1.71209 ,16.79899 
203 ,43.2504 ,1.32675 ,1.67444 ,16.42963 
204 ,43.4586 ,1.32880 ,1.67102 ,16.39605 
205 ,43.6503 ,1.33082 ,1.66760 ,16.36248 
206 ,43.8588 ,1.33289 ,1.64707 ,16.16101 
207 ,44.0828 ,1.33512 ,1.64022 ,16.09385 
208 ,44.2909 ,1.33713 ,1.60942 ,15.79164 
209 ,44.4990 ,1.33920 ,1.59231 ,15.62375 
210 ,44.7388 ,1.34156 ,1.58547 ,15.55660 
211 ,44.9633 ,1.34390 ,1.56836 ,15.38871 
212 ,45.1711 ,1.34607 ,1.54098 ,15.12008 
213 ,45.3793 ,1.34804 ,1.53413 ,15.05292 
214 ,45.5876 ,1.35009 ,1.51702 ,14.88503 
215 ,45.8115 ,1.35236 ,1.49307 ,14.64998 
216 ,46.0355 ,1.35464 ,1.48280 ,14.54925 
217 ,46.2438 ,1.35666 ,1.47596 ,14.48209 
218 ,46.4678 ,1.35891 ,1.45200 ,14.24704 
219 ,46.6597 ,1.36086 ,1.43831 ,14.11273 
220 ,46.8518 ,1.36277 ,1.42120 ,13.94484 
221 ,47.0758 ,1.36499 ,1.40409 ,13.77695 
222 ,47.2841 ,1.36714 ,1.39725 ,13.70979 
223 ,47.4923 ,1.36917 ,1.36645 ,13.40759 
224 ,47.7003 ,1.37122 ,1.36987 ,13.44116 
225 ,47.8924 ,1.37316 ,1.33565 ,13.10538 
226 ,48.1161 ,1.37545 ,1.32538 ,13.00465 
227 ,48.3246 ,1.37743 ,1.32196 ,12.97107 
228 ,48.5488 ,1.37971 ,1.31512 ,12.90391 
229 ,48.7726 ,1.38189 ,1.27405 ,12.50097 
230 ,48.9648 ,1.38395 ,1.28432 ,12.60171 
231 ,49.1726 ,1.38599 ,1.26378 ,12.40024 
232 ,49.3968 ,1.38819 ,1.22272 ,11.99730 
233 ,49.6211 ,1.39041 ,1.21245 ,11.89656 
234 ,49.8292 ,1.39252 ,1.20903 ,11.86298 
235 ,50.0372 ,1.39459 ,1.17823 ,11.56078 
236 ,50.2453 ,1.39662 ,1.18165 ,11.59436 
237 ,50.4534 ,1.39870 ,1.15085 ,11.29215 
238 ,50.6612 ,1.40083 ,1.15770 ,11.35931 
239 ,50.8697 ,1.40288 ,1.14401 ,11.22500 
240 ,51.0777 ,1.40500 ,1.11321 ,10.92279 
241 ,51.2697 ,1.40702 ,1.11663 ,10.95637 
242 ,51.4614 ,1.40884 ,1.07899 ,10.58701 
243 ,51.6700 ,1.41091 ,1.08925 ,10.68774 
244 ,51.8939 ,1.41314 ,1.05845 ,10.38554 
245 ,52.1183 ,1.41539 ,1.04134 ,10.21765 
246 ,52.3263 ,1.41749 ,1.04476 ,10.25123 
247 ,52.5341 ,1.41954 ,1.02423 ,10.04976 
248 ,52.7583 ,1.42182 ,0.98317 ,9.64682 
249 ,52.9823 ,1.42403 ,0.99001 ,9.71397 
250 ,53.1907 ,1.42606 ,0.98659 ,9.68039 
251 ,53.4148 ,1.42827 ,0.94552 ,9.27745 
252 ,53.6228 ,1.43042 ,0.94210 ,9.24388 
253 ,53.8629 ,1.43285 ,0.93868 ,9.21030 
254 ,54.0870 ,1.43510 ,0.92499 ,9.07598 
255 ,54.2947 ,1.43722 ,0.89761 ,8.80736 
256 ,54.5032 ,1.43923 ,0.88392 ,8.67305 
257 ,54.7273 ,1.44148 ,0.89077 ,8.74020 
258 ,54.9512 ,1.44371 ,0.85312 ,8.37084 
259 ,55.1752 ,1.44595 ,0.83601 ,8.20295 
260 ,55.3996 ,1.44814 ,0.82575 ,8.10221 
261 ,55.6077 ,1.45027 ,0.81890 ,8.03506 
262 ,55.8316 ,1.45253 ,0.80179 ,7.86717 
263 ,56.0398 ,1.45460 ,0.76757 ,7.53138 
264 ,56.2479 ,1.45665 ,0.78126 ,7.66570 
265 ,56.4563 ,1.45869 ,0.75388 ,7.39707 
266 ,56.6638 ,1.46081 ,0.72992 ,7.16202 
267 ,56.8880 ,1.46311 ,0.73335 ,7.19560 
268 ,57.1118 ,1.46530 ,0.72650 ,7.12844 
269 ,57.3043 ,1.46725 ,0.69228 ,6.79266 
270 ,57.5124 ,1.46930 ,0.69228 ,6.79266 
271 ,57.7205 ,1.47149 ,0.65464 ,6.42330 
272 ,57.9285 ,1.47346 ,0.66148 ,6.49046 
273 ,58.1203 ,1.47541 ,0.63410 ,6.22183 
274 ,58.3450 ,1.47758 ,0.61699 ,6.05394 
275 ,58.5688 ,1.47989 ,0.62384 ,6.12109 
276 ,58.7765 ,1.48197 ,0.60330 ,5.91962 
277 ,58.9844 ,1.48410 ,0.57935 ,5.68458 
278 ,59.2086 ,1.48620 ,0.58619 ,5.75173 
279 ,59.4171 ,1.48837 ,0.55197 ,5.41595 
280 ,59.6413 ,1.49060 ,0.54171 ,5.31522 
281 ,59.8654 ,1.49277 ,0.51433 ,5.04659 
282 ,60.0735 ,1.49490 ,0.53144 ,5.21448 
283 ,60.2977 ,1.49704 ,0.49722 ,4.87870 
284 ,60.5216 ,1.49942 ,0.46984 ,4.61007 
285 ,60.7298 ,1.50159 ,0.47326 ,4.64365 
286 ,60.9379 ,1.50357 ,0.46984 ,4.61007 
287 ,61.1618 ,1.50576 ,0.44588 ,4.37502 
288 ,61.3863 ,1.50803 ,0.44246 ,4.34144 
289 ,61.5782 ,1.51006 ,0.43220 ,4.24071 
290 ,61.7539 ,1.51185 ,0.41166 ,4.03924 
291 ,61.9462 ,1.51364 ,0.39797 ,3.90493 
292 ,62.1546 ,1.51568 ,0.40140 ,3.93850 
293 ,62.3783 ,1.51791 ,0.37060 ,3.63630 
294 ,62.5862 ,1.52011 ,0.34664 ,3.40125 
295 ,62.7946 ,1.52215 ,0.35691 ,3.50199 
296 ,63.0187 ,1.52433 ,0.34322 ,3.36767 
297 ,63.2269 ,1.52641 ,0.30900 ,3.03189 
298 ,63.4511 ,1.52863 ,0.30558 ,2.99831 
299 ,63.6587 ,1.53074 ,0.29873 ,2.93116 
300 ,63.8671 ,1.53297 ,0.27820 ,2.72969 
301 ,64.0588 ,1.53486 ,0.27478 ,2.69611 
302 ,64.2674 ,1.53682 ,0.24398 ,2.39390 
303 ,64.4912 ,1.53903 ,0.24055 ,2.36032 
304 ,64.7155 ,1.54131 ,0.22687 ,2.22601 
305 ,64.9073 ,1.54335 ,0.20291 ,1.99096 
306 ,65.1157 ,1.54529 ,0.20976 ,2.05812 
307 ,65.3238 ,1.54737 ,0.16527 ,1.62160 
308 ,65.5478 ,1.54963 ,0.15500 ,1.52087 
309 ,65.7396 ,1.55160 ,0.17211 ,1.68876 
310 ,65.9476 ,1.55359 ,0.14131 ,1.38655 
311 ,66.1561 ,1.55569 ,0.13789 ,1.35298 
312 ,66.3800 ,1.55798 ,0.13447 ,1.31940 
313 ,66.5883 ,1.55998 ,0.08656 ,0.84930 
314 ,66.8120 ,1.56230 ,0.07971 ,0.78214 
315 ,67.0361 ,1.56444 ,0.08998 ,0.88288 
316 ,67.2606 ,1.56673 ,0.06945 ,0.68141 
317 ,67.4845 ,1.56897 ,0.03522 ,0.34563 
318 ,67.6923 ,1.57103 ,0.02496 ,0.24489 
319 ,67.8848 ,1.57302 ,0.01469 ,0.14416 
320 ,68.1089 ,1.57525 ,0.00443 ,0.04342 
321 ,68.3809 ,1.57796 ,-0.00584 ,-0.05731 
322 ,68.6051 ,1.58017 ,-0.02637 ,-0.25878 
323 ,68.8292 ,1.58241 ,-0.04348 ,-0.42667 
324 ,69.0531 ,1.58467 ,-0.05717 ,-0.56099 
325 ,69.2612 ,1.58678 ,-0.05717 ,-0.56099 
326 ,69.4856 ,1.58907 ,-0.07771 ,-0.76246 
327 ,69.7095 ,1.59120 ,-0.11193 ,-1.09824 
328 ,69.9337 ,1.59344 ,-0.10166 ,-0.99751 
329 ,70.1418 ,1.59551 ,-0.11193 ,-1.09824 
330 ,70.3658 ,1.59774 ,-0.12904 ,-1.26613 
331 ,70.5737 ,1.59989 ,-0.13246 ,-1.29971 
332 ,70.7818 ,1.60203 ,-0.15299 ,-1.50118 
333 ,70.9740 ,1.60394 ,-0.17011 ,-1.66907 
334 ,71.1822 ,1.60599 ,-0.16326 ,-1.60191 
335 ,71.4061 ,1.60819 ,-0.21459 ,-2.10559 
336 ,71.6142 ,1.61029 ,-0.20433 ,-2.00485 
337 ,71.7902 ,1.61219 ,-0.21459 ,-2.10559 
338 ,72.0146 ,1.61430 ,-0.23170 ,-2.27348 
339 ,72.2387 ,1.61655 ,-0.22144 ,-2.17275 
340 ,72.4469 ,1.61860 ,-0.24539 ,-2.40779 
341 ,72.6384 ,1.62061 ,-0.26935 ,-2.64284 
342 ,72.8309 ,1.62258 ,-0.26593 ,-2.60926 
343 ,73.0389 ,1.62461 ,-0.29330 ,-2.87789 
344 ,73.2471 ,1.62657 ,-0.30015 ,-2.94505 
345 ,73.4552 ,1.62867 ,-0.32068 ,-3.14652 
346 ,73.6633 ,1.63077 ,-0.32068 ,-3.14652 
347 ,73.8713 ,1.63283 ,-0.35148 ,-3.44872 
348 ,74.0793 ,1.63487 ,-0.33437 ,-3.28083 
349 ,74.2714 ,1.63684 ,-0.36859 ,-3.61661 
350 ,74.4632 ,1.63882 ,-0.36517 ,-3.58303 
351 ,74.6716 ,1.64079 ,-0.39597 ,-3.88524 
352 ,74.8794 ,1.64291 ,-0.39255 ,-3.85166 
353 ,75.0877 ,1.64500 ,-0.40623 ,-3.98597 
354 ,75.2960 ,1.64713 ,-0.42677 ,-4.18744 
355 ,75.5040 ,1.64917 ,-0.40966 ,-4.01955 
356 ,75.7122 ,1.65124 ,-0.45072 ,-4.42249 
357 ,75.9203 ,1.65333 ,-0.45414 ,-4.45607 
358 ,76.1444 ,1.65558 ,-0.46441 ,-4.55681 
359 ,76.3361 ,1.65762 ,-0.50206 ,-4.92617 
360 ,76.5450 ,1.65956 ,-0.47126 ,-4.62396 
361 ,76.7526 ,1.66172 ,-0.50206 ,-4.92617 
362 ,76.9608 ,1.66373 ,-0.51574 ,-5.06048 
363 ,77.1686 ,1.66578 ,-0.51917 ,-5.09406 
364 ,77.3768 ,1.66785 ,-0.53970 ,-5.29553 
365 ,77.5688 ,1.66979 ,-0.53285 ,-5.22837 
366 ,77.7929 ,1.67196 ,-0.56365 ,-5.53058 
367 ,78.0010 ,1.67403 ,-0.55339 ,-5.42984 
368 ,78.2247 ,1.67635 ,-0.56708 ,-5.56415 
369 ,78.4333 ,1.67842 ,-0.60472 ,-5.93352 
370 ,78.6411 ,1.68063 ,-0.61499 ,-6.03425 
371 ,78.8335 ,1.68249 ,-0.61156 ,-6.00067 
372 ,79.0417 ,1.68461 ,-0.62525 ,-6.13499 
373 ,79.2498 ,1.68655 ,-0.63552 ,-6.23572 
374 ,79.4896 ,1.68899 ,-0.65605 ,-6.43719 
375 ,79.6816 ,1.69107 ,-0.67316 ,-6.60508 
376 ,79.8897 ,1.69300 ,-0.66974 ,-6.57150 
377 ,80.1140 ,1.69523 ,-0.69712 ,-6.84013 
378 ,80.3379 ,1.69748 ,-0.69370 ,-6.80655 
379 ,80.5463 ,1.69955 ,-0.69027 ,-6.77297 
380 ,80.7703 ,1.70175 ,-0.70396 ,-6.90729 
381 ,80.9944 ,1.70400 ,-0.73476 ,-7.20949 
382 ,81.2024 ,1.70608 ,-0.73476 ,-7.20949 
383 ,81.4264 ,1.70834 ,-0.73134 ,-7.17591 
384 ,81.6345 ,1.71038 ,-0.77241 ,-7.57885 
385 ,81.8427 ,1.71248 ,-0.77241 ,-7.57885 
386 ,82.0508 ,1.71454 ,-0.78267 ,-7.67959 
387 ,82.2429 ,1.71659 ,-0.78952 ,-7.74674 
388 ,82.4670 ,1.71872 ,-0.79294 ,-7.78032 
389 ,82.6905 ,1.72095 ,-0.82032 ,-8.04895 
390 ,82.8989 ,1.72305 ,-0.83401 ,-8.18326 
391 ,83.0910 ,1.72502 ,-0.83058 ,-8.14968 
392 ,83.2994 ,1.72707 ,-0.87165 ,-8.55262 
393 ,83.5235 ,1.72926 ,-0.85112 ,-8.35115 
394 ,83.7472 ,1.73153 ,-0.85454 ,-8.38473 
395 ,83.9555 ,1.73373 ,-0.88876 ,-8.72051 
396 ,84.1795 ,1.73582 ,-0.90245 ,-8.85483 
397 ,84.3717 ,1.73781 ,-0.90245 ,-8.85483 
398 ,84.5797 ,1.73990 ,-0.91956 ,-9.02272 
399 ,84.7880 ,1.74193 ,-0.91614 ,-8.98914 
400 ,85.0119 ,1.74420 ,-0.93667 ,-9.19061 
401 ,85.2200 ,1.74636 ,-0.96063 ,-9.42566 
402 ,85.4283 ,1.74835 ,-0.95036 ,-9.32492 
403 ,85.6363 ,1.75039 ,-0.97089 ,-9.52639 
404 ,85.8444 ,1.75264 ,-0.98800 ,-9.69429 
405 ,86.0519 ,1.75455 ,-0.98458 ,-9.66071 
406 ,86.2607 ,1.75666 ,-1.00854 ,-9.89576 
407 ,86.4523 ,1.75879 ,-0.99827 ,-9.79502 
408 ,86.6606 ,1.76070 ,-1.02907 ,-10.09723 
409 ,86.8689 ,1.76274 ,-1.02222 ,-10.03007 
410 ,87.0925 ,1.76497 ,-1.01538 ,-9.96291 
411 ,87.3010 ,1.76708 ,-1.05645 ,-10.36585 
412 ,87.5251 ,1.76934 ,-1.05987 ,-10.39943 
413 ,87.7332 ,1.77141 ,-1.07356 ,-10.53374 
414 ,87.9572 ,1.77361 ,-1.08382 ,-10.63448 
415 ,88.1810 ,1.77589 ,-1.10436 ,-10.83595 
416 ,88.4055 ,1.77809 ,-1.10778 ,-10.86953 
417 ,88.6296 ,1.78035 ,-1.11462 ,-10.93668 
418 ,88.8373 ,1.78247 ,-1.12147 ,-11.00384 
419 ,89.0292 ,1.78440 ,-1.13173 ,-11.10457 
420 ,89.2374 ,1.78645 ,-1.14884 ,-11.27247 
421 ,89.4456 ,1.78849 ,-1.15911 ,-11.37320 
422 ,89.6538 ,1.79062 ,-1.16253 ,-11.40678 
423 ,89.8781 ,1.79282 ,-1.18649 ,-11.64183 
424 ,90.0863 ,1.79495 ,-1.20360 ,-11.80972 
425 ,90.3424 ,1.79727 ,-1.18307 ,-11.60825 
426 ,90.5664 ,1.79973 ,-1.20702 ,-11.84330 
427 ,90.7740 ,1.80179 ,-1.22071 ,-11.97761 
428 ,90.9823 ,1.80386 ,-1.24467 ,-12.21266 
429 ,91.1907 ,1.80591 ,-1.23098 ,-12.07834 
430 ,91.3987 ,1.80808 ,-1.24809 ,-12.24624 
431 ,91.6227 ,1.81023 ,-1.26520 ,-12.41413 
432 ,91.8146 ,1.81227 ,-1.27204 ,-12.48128 
433 ,92.0229 ,1.81431 ,-1.29942 ,-12.74991 
434 ,92.2470 ,1.81655 ,-1.29942 ,-12.74991 
435 ,92.4712 ,1.81872 ,-1.29600 ,-12.71633 
436 ,92.6788 ,1.82094 ,-1.30626 ,-12.81707 
437 ,92.8874 ,1.82297 ,-1.33364 ,-13.08569 
438 ,93.1114 ,1.82517 ,-1.33022 ,-13.05212 
439 ,93.3355 ,1.82738 ,-1.35075 ,-13.25359 
440 ,93.5437 ,1.82950 ,-1.36786 ,-13.42148 
441 ,93.7357 ,1.83151 ,-1.36102 ,-13.35432 
442 ,93.9597 ,1.83368 ,-1.38155 ,-13.55579 
443 ,94.1836 ,1.83588 ,-1.39182 ,-13.65653 
444 ,94.3919 ,1.83804 ,-1.39524 ,-13.69010 
445 ,94.6001 ,1.84009 ,-1.40551 ,-13.79084 
446 ,94.8082 ,1.84213 ,-1.42946 ,-14.02589 
447 ,95.0163 ,1.84414 ,-1.42604 ,-13.99231 
448 ,95.2245 ,1.84632 ,-1.45342 ,-14.26093 
449 ,95.4325 ,1.84836 ,-1.44315 ,-14.16020 
450 ,95.6566 ,1.85057 ,-1.45000 ,-14.22736 
451 ,95.8487 ,1.85263 ,-1.48080 ,-14.52956 
452 ,96.0564 ,1.85458 ,-1.47395 ,-14.46240 
453 ,96.2488 ,1.85655 ,-1.49106 ,-14.63030 
454 ,96.4568 ,1.85857 ,-1.49106 ,-14.63030 
455 ,96.6649 ,1.86070 ,-1.51844 ,-14.89892 
456 ,96.8728 ,1.86270 ,-1.49791 ,-14.69745 
457 ,97.0807 ,1.86491 ,-1.50475 ,-14.76461 
458 ,97.2892 ,1.86694 ,-1.53213 ,-15.03324 
459 ,97.5133 ,1.86911 ,-1.53897 ,-15.10039 
460 ,97.7374 ,1.87143 ,-1.54239 ,-15.13397 
