Data stamp = , 19-05-2022 14:07:40 321

Calibration Values: 
Slope = , 26.54 , g/V 
Offset Voltage at no contact = , -0.501760 , V 

No , Time , Stage Position ,   Mass , Force 
   ,  (s) ,      (mm)      ,   (g)  , (mN)  

1 ,0.0000 ,0.89963 ,5.29167 ,51.92190 
2 ,0.2207 ,0.89973 ,5.30536 ,52.05621 
3 ,0.6693 ,0.90115 ,5.28825 ,51.88832 
4 ,0.9252 ,0.90352 ,5.28483 ,51.85474 
5 ,1.1654 ,0.90590 ,5.29510 ,51.95548 
6 ,1.3736 ,0.90806 ,5.28141 ,51.82116 
7 ,1.5812 ,0.91019 ,5.28825 ,51.88832 
8 ,1.8055 ,0.91240 ,5.26772 ,51.68685 
9 ,2.0294 ,0.91462 ,5.25403 ,51.55254 
10 ,2.2379 ,0.91673 ,5.19927 ,51.01528 
11 ,2.4621 ,0.91887 ,5.20954 ,51.11602 
12 ,2.6856 ,0.92118 ,5.19243 ,50.94813 
13 ,2.9102 ,0.92346 ,5.14794 ,50.51161 
14 ,3.1340 ,0.92568 ,5.12399 ,50.27656 
15 ,3.3584 ,0.92792 ,5.10688 ,50.10867 
16 ,3.5663 ,0.93001 ,5.11030 ,50.14225 
17 ,3.7746 ,0.93208 ,5.05554 ,49.60499 
18 ,3.9987 ,0.93438 ,5.04185 ,49.47068 
19 ,4.2228 ,0.93657 ,5.03159 ,49.36995 
20 ,4.4468 ,0.93877 ,5.01448 ,49.20205 
21 ,4.6548 ,0.94090 ,4.97683 ,48.83269 
22 ,4.8628 ,0.94297 ,4.95972 ,48.66480 
23 ,5.0708 ,0.94514 ,4.93577 ,48.42975 
24 ,5.2951 ,0.94727 ,4.91866 ,48.26186 
25 ,5.5031 ,0.94941 ,4.90155 ,48.09397 
26 ,5.7113 ,0.95149 ,4.88444 ,47.92608 
27 ,5.9195 ,0.95356 ,4.85706 ,47.65745 
28 ,6.1435 ,0.95573 ,4.84679 ,47.55672 
29 ,6.3517 ,0.95783 ,4.81599 ,47.25451 
30 ,6.5436 ,0.95989 ,4.79546 ,47.05304 
31 ,6.7354 ,0.96174 ,4.76808 ,46.78442 
32 ,6.9599 ,0.96397 ,4.75439 ,46.65010 
33 ,7.1836 ,0.96616 ,4.72702 ,46.38148 
34 ,7.3920 ,0.96825 ,4.72017 ,46.31432 
35 ,7.6157 ,0.97050 ,4.67911 ,45.91138 
36 ,7.8240 ,0.97258 ,4.66884 ,45.81065 
37 ,8.0483 ,0.97481 ,4.67226 ,45.84422 
38 ,8.2560 ,0.97696 ,4.63804 ,45.50844 
39 ,8.4642 ,0.97898 ,4.60040 ,45.13908 
40 ,8.6726 ,0.98108 ,4.61751 ,45.30697 
41 ,8.8968 ,0.98331 ,4.57302 ,44.87045 
42 ,9.1047 ,0.98537 ,4.54564 ,44.60183 
43 ,9.3129 ,0.98744 ,4.55591 ,44.70256 
44 ,9.5690 ,0.98991 ,4.53537 ,44.50109 
45 ,9.7929 ,0.99230 ,4.51142 ,44.26604 
46 ,10.0169 ,0.99449 ,4.47035 ,43.86310 
47 ,10.2572 ,0.99671 ,4.44298 ,43.59448 
48 ,10.4809 ,0.99914 ,4.42244 ,43.39301 
49 ,10.6733 ,1.00122 ,4.41218 ,43.29227 
50 ,10.8812 ,1.00318 ,4.37453 ,42.92291 
51 ,11.0894 ,1.00522 ,4.38480 ,43.02365 
52 ,11.2978 ,1.00733 ,4.35742 ,42.75502 
53 ,11.5055 ,1.00931 ,4.32662 ,42.45282 
54 ,11.7138 ,1.01144 ,4.31636 ,42.35208 
55 ,11.9219 ,1.01350 ,4.28213 ,42.01630 
56 ,12.1460 ,1.01574 ,4.26502 ,41.84841 
57 ,12.3542 ,1.01787 ,4.25476 ,41.74767 
58 ,12.5623 ,1.01995 ,4.21711 ,41.37831 
59 ,12.7703 ,1.02202 ,4.22396 ,41.44547 
60 ,12.9784 ,1.02402 ,4.20342 ,41.24400 
61 ,13.1864 ,1.02615 ,4.17262 ,40.94179 
62 ,13.3945 ,1.02828 ,4.16578 ,40.87464 
63 ,13.6184 ,1.03046 ,4.14525 ,40.67317 
64 ,13.8423 ,1.03277 ,4.11103 ,40.33738 
65 ,14.0346 ,1.03466 ,4.10760 ,40.30380 
66 ,14.2429 ,1.03673 ,4.07338 ,39.96802 
67 ,14.4511 ,1.03884 ,4.06996 ,39.93444 
68 ,14.6749 ,1.04109 ,4.05627 ,39.80013 
69 ,14.8828 ,1.04313 ,4.01520 ,39.39719 
70 ,15.0750 ,1.04524 ,4.00494 ,39.29646 
71 ,15.2993 ,1.04731 ,3.99467 ,39.19572 
72 ,15.5074 ,1.04934 ,3.95361 ,38.79278 
73 ,15.7155 ,1.05152 ,3.97072 ,38.96067 
74 ,15.9396 ,1.05374 ,3.92623 ,38.52415 
75 ,16.1796 ,1.05606 ,3.89543 ,38.22195 
76 ,16.4040 ,1.05833 ,3.88516 ,38.12122 
77 ,16.6117 ,1.06040 ,3.86463 ,37.91975 
78 ,16.8200 ,1.06247 ,3.87490 ,38.02048 
79 ,17.0280 ,1.06464 ,3.82699 ,37.55038 
80 ,17.2679 ,1.06687 ,3.81672 ,37.44965 
81 ,17.4923 ,1.06925 ,3.78592 ,37.14744 
82 ,17.7004 ,1.07135 ,3.78250 ,37.11387 
83 ,17.9243 ,1.07356 ,3.76196 ,36.91240 
84 ,18.1163 ,1.07560 ,3.73117 ,36.61019 
85 ,18.3406 ,1.07760 ,3.71063 ,36.40872 
86 ,18.5485 ,1.07980 ,3.69010 ,36.20725 
87 ,18.7407 ,1.08187 ,3.67983 ,36.10652 
88 ,18.9484 ,1.08375 ,3.64903 ,35.80431 
89 ,19.1568 ,1.08585 ,3.65588 ,35.87147 
90 ,19.3484 ,1.08795 ,3.62508 ,35.56926 
91 ,19.5566 ,1.08986 ,3.61823 ,35.50211 
92 ,19.7647 ,1.09193 ,3.59428 ,35.26706 
93 ,19.9728 ,1.09400 ,3.56348 ,34.96485 
94 ,20.1972 ,1.09626 ,3.55663 ,34.89770 
95 ,20.4209 ,1.09849 ,3.54979 ,34.83054 
96 ,20.6453 ,1.10075 ,3.52584 ,34.59549 
97 ,20.8851 ,1.10302 ,3.49504 ,34.29329 
98 ,21.0937 ,1.10521 ,3.46081 ,33.95751 
99 ,21.3174 ,1.10741 ,3.45739 ,33.92393 
100 ,21.5096 ,1.10945 ,3.42659 ,33.62172 
101 ,21.7500 ,1.11171 ,3.40948 ,33.45383 
102 ,21.9739 ,1.11398 ,3.38895 ,33.25236 
103 ,22.1660 ,1.11596 ,3.39921 ,33.35310 
104 ,22.3741 ,1.11808 ,3.34788 ,32.84942 
105 ,22.5823 ,1.12010 ,3.35815 ,32.95016 
106 ,22.8063 ,1.12238 ,3.32735 ,32.64795 
107 ,23.0141 ,1.12445 ,3.30339 ,32.41290 
108 ,23.2224 ,1.12646 ,3.30339 ,32.41290 
109 ,23.4467 ,1.12878 ,3.27602 ,32.14428 
110 ,23.6706 ,1.13098 ,3.24522 ,31.84207 
111 ,23.8947 ,1.13324 ,3.23837 ,31.77492 
112 ,24.1031 ,1.13535 ,3.22468 ,31.64060 
113 ,24.3107 ,1.13740 ,3.19046 ,31.30482 
114 ,24.5506 ,1.13977 ,3.16993 ,31.10335 
115 ,24.7587 ,1.14194 ,3.15966 ,31.00262 
116 ,24.9829 ,1.14411 ,3.15282 ,30.93546 
117 ,25.2235 ,1.14653 ,3.13571 ,30.76757 
118 ,25.4474 ,1.14873 ,3.12202 ,30.63325 
119 ,25.6552 ,1.15076 ,3.06726 ,30.09600 
120 ,25.8637 ,1.15294 ,3.07411 ,30.16316 
121 ,26.0716 ,1.15497 ,3.04331 ,29.86095 
122 ,26.2956 ,1.15721 ,3.00909 ,29.52517 
123 ,26.5043 ,1.15928 ,3.01935 ,29.62590 
124 ,26.7118 ,1.16142 ,3.00567 ,29.49159 
125 ,26.9357 ,1.16365 ,2.96460 ,29.08865 
126 ,27.1440 ,1.16567 ,2.97829 ,29.22297 
127 ,27.3521 ,1.16775 ,2.94064 ,28.85360 
128 ,27.5604 ,1.16985 ,2.92353 ,28.68571 
129 ,27.7844 ,1.17209 ,2.92011 ,28.65213 
130 ,27.9921 ,1.17416 ,2.88247 ,28.28277 
131 ,28.1841 ,1.17613 ,2.87905 ,28.24919 
132 ,28.3927 ,1.17817 ,2.86878 ,28.14846 
133 ,28.6167 ,1.18039 ,2.83456 ,27.81268 
134 ,28.8409 ,1.18260 ,2.82771 ,27.74552 
135 ,29.0648 ,1.18486 ,2.77980 ,27.27542 
136 ,29.2726 ,1.18695 ,2.78322 ,27.30900 
137 ,29.4811 ,1.18907 ,2.74900 ,26.97322 
138 ,29.7052 ,1.19133 ,2.74900 ,26.97322 
139 ,29.9130 ,1.19336 ,2.72163 ,26.70459 
140 ,30.1214 ,1.19550 ,2.69425 ,26.43597 
141 ,30.3291 ,1.19764 ,2.69083 ,26.40239 
142 ,30.5535 ,1.19977 ,2.67714 ,26.26807 
143 ,30.7775 ,1.20197 ,2.63265 ,25.83156 
144 ,30.9856 ,1.20410 ,2.65660 ,26.06661 
145 ,31.1939 ,1.20622 ,2.62581 ,25.76440 
146 ,31.4016 ,1.20828 ,2.60185 ,25.52935 
147 ,31.6098 ,1.21038 ,2.60869 ,25.59651 
148 ,31.8338 ,1.21260 ,2.57105 ,25.22715 
149 ,32.0424 ,1.21465 ,2.54367 ,24.95852 
150 ,32.2662 ,1.21693 ,2.52656 ,24.79063 
151 ,32.4903 ,1.21914 ,2.52998 ,24.82421 
152 ,32.6983 ,1.22126 ,2.49234 ,24.45485 
153 ,32.9223 ,1.22349 ,2.46496 ,24.18622 
154 ,33.1307 ,1.22559 ,2.47523 ,24.28696 
155 ,33.3547 ,1.22776 ,2.44443 ,23.98475 
156 ,33.5627 ,1.22984 ,2.41363 ,23.68255 
157 ,33.7708 ,1.23190 ,2.41363 ,23.68255 
158 ,33.9792 ,1.23400 ,2.38283 ,23.38034 
159 ,34.1871 ,1.23608 ,2.37256 ,23.27961 
160 ,34.4112 ,1.23834 ,2.37256 ,23.27961 
161 ,34.6191 ,1.24042 ,2.35203 ,23.07814 
162 ,34.8430 ,1.24264 ,2.32123 ,22.77593 
163 ,35.0513 ,1.24480 ,2.31781 ,22.74235 
164 ,35.2595 ,1.24681 ,2.29043 ,22.47373 
165 ,35.4835 ,1.24905 ,2.26306 ,22.20510 
166 ,35.6917 ,1.25118 ,2.28701 ,22.44015 
167 ,35.9153 ,1.25335 ,2.24594 ,22.03721 
168 ,36.1239 ,1.25547 ,2.21515 ,21.73500 
169 ,36.3320 ,1.25756 ,2.21172 ,21.70143 
170 ,36.5400 ,1.25963 ,2.17408 ,21.33206 
171 ,36.7480 ,1.26172 ,2.17066 ,21.29849 
172 ,36.9718 ,1.26391 ,2.18777 ,21.46638 
173 ,37.1963 ,1.26614 ,2.14670 ,21.06344 
174 ,37.4203 ,1.26842 ,2.11248 ,20.72766 
175 ,37.6285 ,1.27046 ,2.10564 ,20.66050 
176 ,37.8687 ,1.27280 ,2.08510 ,20.45903 
177 ,38.0925 ,1.27517 ,2.07826 ,20.39187 
178 ,38.2846 ,1.27723 ,2.05773 ,20.19040 
179 ,38.4930 ,1.27919 ,2.04404 ,20.05609 
180 ,38.7170 ,1.28140 ,2.03719 ,19.98893 
181 ,38.9410 ,1.28361 ,2.00639 ,19.68673 
182 ,39.1491 ,1.28577 ,1.98244 ,19.45168 
183 ,39.3733 ,1.28798 ,1.98244 ,19.45168 
184 ,39.5973 ,1.29018 ,1.97217 ,19.35094 
185 ,39.8056 ,1.29223 ,1.91742 ,18.81369 
186 ,40.0135 ,1.29434 ,1.91742 ,18.81369 
187 ,40.2213 ,1.29642 ,1.89346 ,18.57864 
188 ,40.4457 ,1.29870 ,1.87635 ,18.41075 
189 ,40.6698 ,1.30088 ,1.86266 ,18.27644 
190 ,40.8778 ,1.30304 ,1.85924 ,18.24286 
191 ,41.0859 ,1.30511 ,1.82844 ,17.94066 
192 ,41.2941 ,1.30721 ,1.81475 ,17.80634 
193 ,41.5181 ,1.30942 ,1.81475 ,17.80634 
194 ,41.7421 ,1.31167 ,1.79764 ,17.63845 
195 ,41.9503 ,1.31371 ,1.76000 ,17.26909 
196 ,42.1743 ,1.31591 ,1.76342 ,17.30267 
197 ,42.3826 ,1.31805 ,1.74973 ,17.16836 
198 ,42.6065 ,1.32023 ,1.70866 ,16.76542 
199 ,42.8145 ,1.32231 ,1.71209 ,16.79899 
200 ,43.0227 ,1.32439 ,1.69498 ,16.63110 
201 ,43.2306 ,1.32655 ,1.65733 ,16.26174 
202 ,43.4390 ,1.32865 ,1.66760 ,16.36248 
203 ,43.6466 ,1.33070 ,1.64022 ,16.09385 
204 ,43.8874 ,1.33304 ,1.61627 ,15.85880 
205 ,44.1111 ,1.33533 ,1.60600 ,15.75807 
206 ,44.3351 ,1.33757 ,1.58889 ,15.59018 
207 ,44.5434 ,1.33964 ,1.57862 ,15.48944 
208 ,44.7512 ,1.34169 ,1.54440 ,15.15366 
209 ,44.9433 ,1.34376 ,1.56151 ,15.32155 
210 ,45.1516 ,1.34567 ,1.52045 ,14.91861 
211 ,45.3437 ,1.34771 ,1.52387 ,14.95219 
212 ,45.5679 ,1.34981 ,1.48280 ,14.54925 
213 ,45.7914 ,1.35210 ,1.45542 ,14.28062 
214 ,46.0001 ,1.35423 ,1.46569 ,14.38136 
215 ,46.2241 ,1.35642 ,1.46227 ,14.34778 
216 ,46.4482 ,1.35870 ,1.44174 ,14.14631 
217 ,46.6563 ,1.36073 ,1.41094 ,13.84410 
218 ,46.8642 ,1.36286 ,1.41436 ,13.87768 
219 ,47.0884 ,1.36506 ,1.38014 ,13.54190 
220 ,47.2966 ,1.36710 ,1.36645 ,13.40759 
221 ,47.5049 ,1.36918 ,1.38698 ,13.60906 
222 ,47.7288 ,1.37143 ,1.32880 ,13.03822 
223 ,47.9366 ,1.37357 ,1.31512 ,12.90391 
224 ,48.1608 ,1.37577 ,1.31169 ,12.87033 
225 ,48.4011 ,1.37809 ,1.29800 ,12.73602 
226 ,48.6091 ,1.38029 ,1.29458 ,12.70244 
227 ,48.8013 ,1.38232 ,1.25352 ,12.29950 
228 ,49.0093 ,1.38428 ,1.25694 ,12.33308 
229 ,49.2168 ,1.38633 ,1.22956 ,12.06445 
230 ,49.4254 ,1.38839 ,1.24325 ,12.19877 
231 ,49.6334 ,1.39057 ,1.18850 ,11.66151 
232 ,49.8416 ,1.39259 ,1.18165 ,11.59436 
233 ,50.0653 ,1.39484 ,1.18850 ,11.66151 
234 ,50.2733 ,1.39694 ,1.15085 ,11.29215 
235 ,50.4816 ,1.39899 ,1.14743 ,11.25857 
236 ,50.7060 ,1.40118 ,1.14058 ,11.19142 
237 ,50.9138 ,1.40328 ,1.10294 ,10.82206 
238 ,51.1219 ,1.40538 ,1.07899 ,10.58701 
239 ,51.3459 ,1.40762 ,1.09267 ,10.72132 
240 ,51.5703 ,1.40981 ,1.07556 ,10.55343 
241 ,51.7943 ,1.41212 ,1.04476 ,10.25123 
242 ,52.0026 ,1.41418 ,1.03450 ,10.15049 
243 ,52.2268 ,1.41641 ,1.02765 ,10.08333 
244 ,52.4344 ,1.41854 ,1.00712 ,9.88186 
245 ,52.6747 ,1.42093 ,0.99001 ,9.71397 
246 ,52.8828 ,1.42310 ,0.96605 ,9.47892 
247 ,53.0906 ,1.42510 ,0.97290 ,9.54608 
248 ,53.2991 ,1.42712 ,0.93525 ,9.17672 
249 ,53.5231 ,1.42938 ,0.93183 ,9.14314 
250 ,53.7311 ,1.43147 ,0.92841 ,9.10956 
251 ,53.9233 ,1.43354 ,0.88392 ,8.67305 
252 ,54.1312 ,1.43543 ,0.90103 ,8.84094 
253 ,54.3556 ,1.43775 ,0.86339 ,8.47158 
254 ,54.5636 ,1.43986 ,0.85654 ,8.40442 
255 ,54.8356 ,1.44257 ,0.82575 ,8.10221 
256 ,55.0597 ,1.44479 ,0.80863 ,7.93432 
257 ,55.2677 ,1.44690 ,0.81206 ,7.96790 
258 ,55.4758 ,1.44890 ,0.79495 ,7.80001 
259 ,55.6836 ,1.45097 ,0.78126 ,7.66570 
260 ,55.8921 ,1.45308 ,0.78810 ,7.73285 
261 ,56.1161 ,1.45527 ,0.75046 ,7.36349 
262 ,56.3403 ,1.45757 ,0.72650 ,7.12844 
263 ,56.5639 ,1.45977 ,0.71966 ,7.06129 
264 ,56.7725 ,1.46187 ,0.71966 ,7.06129 
265 ,56.9965 ,1.46406 ,0.70597 ,6.92697 
266 ,57.2206 ,1.46633 ,0.65806 ,6.45688 
267 ,57.4288 ,1.46847 ,0.66490 ,6.52403 
268 ,57.6529 ,1.47069 ,0.65806 ,6.45688 
269 ,57.8768 ,1.47286 ,0.64437 ,6.32256 
270 ,58.0690 ,1.47497 ,0.60673 ,5.95320 
271 ,58.2770 ,1.47688 ,0.62384 ,6.12109 
272 ,58.4851 ,1.47895 ,0.57935 ,5.68458 
273 ,58.7093 ,1.48120 ,0.57593 ,5.65100 
274 ,58.9174 ,1.48330 ,0.56908 ,5.58384 
275 ,59.1413 ,1.48556 ,0.54855 ,5.38237 
276 ,59.3495 ,1.48761 ,0.53144 ,5.21448 
277 ,59.5412 ,1.48965 ,0.51775 ,5.08017 
278 ,59.7333 ,1.49156 ,0.50748 ,4.97943 
279 ,59.9255 ,1.49340 ,0.48011 ,4.71081 
280 ,60.1497 ,1.49564 ,0.48353 ,4.74438 
281 ,60.3738 ,1.49789 ,0.48353 ,4.74438 
282 ,60.5979 ,1.50009 ,0.46642 ,4.57649 
283 ,60.8222 ,1.50233 ,0.44246 ,4.34144 
284 ,61.0303 ,1.50442 ,0.41851 ,4.10640 
285 ,61.2542 ,1.50663 ,0.42877 ,4.20713 
286 ,61.4622 ,1.50877 ,0.39797 ,3.90493 
287 ,61.6706 ,1.51084 ,0.39113 ,3.83777 
288 ,61.8788 ,1.51291 ,0.38086 ,3.73703 
289 ,62.1028 ,1.51513 ,0.35691 ,3.50199 
290 ,62.3110 ,1.51723 ,0.35349 ,3.46841 
291 ,62.5348 ,1.51946 ,0.33980 ,3.33410 
292 ,62.7431 ,1.52157 ,0.32269 ,3.16620 
293 ,62.9511 ,1.52364 ,0.29873 ,2.93116 
294 ,63.1592 ,1.52571 ,0.30215 ,2.96473 
295 ,63.3674 ,1.52777 ,0.27478 ,2.69611 
296 ,63.5915 ,1.53005 ,0.25424 ,2.49464 
297 ,63.7993 ,1.53210 ,0.25082 ,2.46106 
298 ,63.9916 ,1.53411 ,0.22687 ,2.22601 
299 ,64.1999 ,1.53615 ,0.24055 ,2.36032 
300 ,64.4237 ,1.53835 ,0.22687 ,2.22601 
301 ,64.6314 ,1.54045 ,0.19264 ,1.89023 
302 ,64.8399 ,1.54258 ,0.19949 ,1.95738 
303 ,65.0638 ,1.54476 ,0.18580 ,1.82307 
304 ,65.2560 ,1.54679 ,0.14816 ,1.45371 
305 ,65.4800 ,1.54893 ,0.16185 ,1.58802 
306 ,65.6719 ,1.55093 ,0.13447 ,1.31940 
307 ,65.8801 ,1.55294 ,0.13105 ,1.28582 
308 ,66.0881 ,1.55502 ,0.10367 ,1.01719 
309 ,66.2964 ,1.55709 ,0.08656 ,0.84930 
310 ,66.5048 ,1.55919 ,0.09682 ,0.95004 
311 ,66.7128 ,1.56125 ,0.06260 ,0.61425 
312 ,66.9208 ,1.56335 ,0.05576 ,0.54710 
313 ,67.1285 ,1.56549 ,0.05234 ,0.51352 
314 ,67.3370 ,1.56748 ,0.01811 ,0.17773 
315 ,67.5449 ,1.56954 ,0.04207 ,0.41278 
316 ,67.7529 ,1.57165 ,0.01127 ,0.11058 
317 ,67.9607 ,1.57384 ,-0.01269 ,-0.12447 
318 ,68.1692 ,1.57585 ,0.00100 ,0.00984 
319 ,68.3932 ,1.57805 ,-0.03664 ,-0.35952 
320 ,68.6177 ,1.58015 ,-0.04691 ,-0.46025 
321 ,68.8413 ,1.58254 ,-0.06744 ,-0.66172 
322 ,69.0493 ,1.58457 ,-0.07086 ,-0.69530 
323 ,69.2736 ,1.58686 ,-0.08797 ,-0.86319 
324 ,69.4978 ,1.58904 ,-0.10508 ,-1.03108 
325 ,69.7057 ,1.59117 ,-0.10508 ,-1.03108 
326 ,69.9299 ,1.59333 ,-0.12219 ,-1.19898 
327 ,70.1377 ,1.59550 ,-0.14957 ,-1.46760 
328 ,70.3459 ,1.59763 ,-0.13588 ,-1.33329 
329 ,70.5702 ,1.59974 ,-0.16326 ,-1.60191 
330 ,70.7784 ,1.60187 ,-0.18722 ,-1.83696 
331 ,71.0026 ,1.60417 ,-0.20433 ,-2.00485 
332 ,71.2106 ,1.60620 ,-0.19748 ,-1.93770 
333 ,71.4502 ,1.60852 ,-0.23513 ,-2.30706 
334 ,71.6587 ,1.61064 ,-0.24197 ,-2.37422 
335 ,71.8667 ,1.61276 ,-0.23855 ,-2.34064 
336 ,72.0909 ,1.61503 ,-0.23855 ,-2.34064 
337 ,72.3148 ,1.61727 ,-0.26250 ,-2.57569 
338 ,72.5231 ,1.61933 ,-0.27277 ,-2.67642 
339 ,72.7471 ,1.62153 ,-0.29673 ,-2.91147 
340 ,72.9552 ,1.62364 ,-0.28646 ,-2.81073 
341 ,73.1793 ,1.62589 ,-0.32068 ,-3.14652 
342 ,73.3874 ,1.62796 ,-0.33779 ,-3.31441 
343 ,73.6113 ,1.63025 ,-0.33779 ,-3.31441 
344 ,73.8516 ,1.63248 ,-0.34464 ,-3.38156 
345 ,74.0597 ,1.63471 ,-0.37886 ,-3.71735 
346 ,74.2835 ,1.63679 ,-0.37544 ,-3.68377 
347 ,74.5080 ,1.63912 ,-0.39597 ,-3.88524 
348 ,74.7320 ,1.64132 ,-0.39939 ,-3.91882 
349 ,74.9399 ,1.64353 ,-0.41308 ,-4.05313 
350 ,75.1478 ,1.64560 ,-0.43019 ,-4.22102 
351 ,75.3560 ,1.64768 ,-0.41992 ,-4.12029 
352 ,75.5643 ,1.64969 ,-0.45757 ,-4.48965 
353 ,75.7722 ,1.65192 ,-0.48152 ,-4.72470 
354 ,75.9806 ,1.65386 ,-0.47468 ,-4.65754 
355 ,76.2045 ,1.65609 ,-0.49179 ,-4.82543 
356 ,76.4127 ,1.65819 ,-0.46783 ,-4.59038 
357 ,76.6207 ,1.66032 ,-0.51232 ,-5.02690 
358 ,76.8444 ,1.66250 ,-0.52943 ,-5.19479 
359 ,77.0530 ,1.66463 ,-0.53628 ,-5.26195 
360 ,77.2610 ,1.66672 ,-0.53628 ,-5.26195 
361 ,77.4531 ,1.66874 ,-0.57050 ,-5.59773 
362 ,77.6611 ,1.67075 ,-0.55681 ,-5.46342 
363 ,77.8849 ,1.67292 ,-0.58761 ,-5.76562 
364 ,78.1095 ,1.67515 ,-0.60472 ,-5.93352 
365 ,78.3337 ,1.67738 ,-0.59445 ,-5.83278 
366 ,78.5416 ,1.67950 ,-0.60814 ,-5.96709 
367 ,78.7497 ,1.68151 ,-0.63552 ,-6.23572 
368 ,78.9738 ,1.68378 ,-0.63210 ,-6.20214 
369 ,79.2137 ,1.68609 ,-0.63552 ,-6.23572 
370 ,79.4379 ,1.68843 ,-0.64579 ,-6.33646 
371 ,79.6455 ,1.69056 ,-0.68343 ,-6.70582 
372 ,79.8536 ,1.69254 ,-0.67659 ,-6.63866 
373 ,80.0619 ,1.69470 ,-0.66974 ,-6.57150 
374 ,80.2859 ,1.69694 ,-0.71423 ,-7.00802 
375 ,80.5106 ,1.69919 ,-0.72450 ,-7.10876 
376 ,80.7342 ,1.70141 ,-0.73134 ,-7.17591 
377 ,80.9424 ,1.70349 ,-0.73134 ,-7.17591 
378 ,81.1504 ,1.70559 ,-0.76214 ,-7.47812 
379 ,81.3747 ,1.70780 ,-0.74845 ,-7.34380 
380 ,81.5988 ,1.71003 ,-0.76556 ,-7.51170 
381 ,81.7908 ,1.71207 ,-0.79294 ,-7.78032 
382 ,81.9991 ,1.71398 ,-0.77241 ,-7.57885 
383 ,82.2229 ,1.71624 ,-0.79978 ,-7.84748 
384 ,82.4311 ,1.71831 ,-0.82716 ,-8.11611 
385 ,82.6392 ,1.72041 ,-0.81689 ,-8.01537 
386 ,82.8474 ,1.72254 ,-0.83058 ,-8.14968 
387 ,83.0553 ,1.72464 ,-0.84427 ,-8.28400 
388 ,83.2795 ,1.72682 ,-0.85112 ,-8.35115 
389 ,83.4876 ,1.72900 ,-0.85796 ,-8.41831 
390 ,83.6957 ,1.73099 ,-0.89218 ,-8.75409 
391 ,83.9039 ,1.73308 ,-0.88192 ,-8.65336 
392 ,84.1118 ,1.73528 ,-0.90929 ,-8.92198 
393 ,84.3199 ,1.73725 ,-0.89903 ,-8.82125 
394 ,84.5276 ,1.73926 ,-0.92298 ,-9.05630 
395 ,84.7522 ,1.74152 ,-0.95036 ,-9.32492 
396 ,84.9757 ,1.74381 ,-0.95378 ,-9.35850 
397 ,85.1838 ,1.74598 ,-0.95720 ,-9.39208 
398 ,85.3922 ,1.74803 ,-0.98116 ,-9.62713 
399 ,85.6481 ,1.75051 ,-0.98458 ,-9.66071 
400 ,85.8725 ,1.75280 ,-1.00854 ,-9.89576 
401 ,86.0967 ,1.75496 ,-1.01538 ,-9.96291 
402 ,86.3207 ,1.75723 ,-1.01196 ,-9.92933 
403 ,86.5446 ,1.75947 ,-1.02222 ,-10.03007 
404 ,86.7526 ,1.76159 ,-1.04618 ,-10.26512 
405 ,86.9768 ,1.76385 ,-1.05987 ,-10.39943 
406 ,87.2012 ,1.76603 ,-1.06329 ,-10.43301 
407 ,87.4092 ,1.76815 ,-1.08040 ,-10.60090 
408 ,87.6332 ,1.77035 ,-1.08725 ,-10.66806 
409 ,87.8412 ,1.77245 ,-1.09067 ,-10.70163 
410 ,88.0972 ,1.77491 ,-1.09751 ,-10.76879 
411 ,88.3214 ,1.77724 ,-1.11120 ,-10.90310 
412 ,88.5298 ,1.77934 ,-1.11805 ,-10.97026 
413 ,88.7855 ,1.78173 ,-1.14542 ,-11.23889 
414 ,88.9934 ,1.78406 ,-1.14542 ,-11.23889 
415 ,89.2176 ,1.78622 ,-1.16938 ,-11.47394 
416 ,89.4419 ,1.78848 ,-1.16253 ,-11.40678 
417 ,89.6658 ,1.79069 ,-1.16253 ,-11.40678 
418 ,89.8741 ,1.79272 ,-1.19333 ,-11.70898 
419 ,90.0823 ,1.79485 ,-1.19333 ,-11.70898 
420 ,90.3219 ,1.79724 ,-1.20018 ,-11.77614 
421 ,90.5300 ,1.79938 ,-1.21044 ,-11.87688 
422 ,90.7386 ,1.80144 ,-1.24124 ,-12.17908 
423 ,90.9626 ,1.80359 ,-1.24124 ,-12.17908 
424 ,91.1706 ,1.80568 ,-1.24124 ,-12.17908 
425 ,91.3947 ,1.80801 ,-1.26520 ,-12.41413 
426 ,91.6188 ,1.81017 ,-1.27547 ,-12.51486 
427 ,91.8271 ,1.81230 ,-1.27204 ,-12.48128 
428 ,92.0510 ,1.81451 ,-1.28231 ,-12.58202 
429 ,92.2588 ,1.81664 ,-1.31995 ,-12.95138 
430 ,92.4672 ,1.81871 ,-1.30284 ,-12.78349 
431 ,92.6753 ,1.82072 ,-1.33364 ,-13.08569 
432 ,92.8831 ,1.82283 ,-1.32338 ,-12.98496 
433 ,93.0914 ,1.82490 ,-1.34049 ,-13.15285 
434 ,93.2996 ,1.82694 ,-1.36102 ,-13.35432 
435 ,93.5072 ,1.82903 ,-1.35075 ,-13.25359 
436 ,93.7157 ,1.83110 ,-1.38497 ,-13.58937 
437 ,93.9238 ,1.83321 ,-1.38497 ,-13.58937 
438 ,94.1318 ,1.83540 ,-1.38497 ,-13.58937 
439 ,94.3239 ,1.83737 ,-1.40551 ,-13.79084 
440 ,94.5318 ,1.83936 ,-1.39524 ,-13.69010 
441 ,94.7401 ,1.84146 ,-1.43973 ,-14.12662 
442 ,94.9322 ,1.84349 ,-1.41920 ,-13.92515 
443 ,95.1403 ,1.84544 ,-1.43973 ,-14.12662 
444 ,95.3641 ,1.84760 ,-1.44657 ,-14.19378 
445 ,95.5886 ,1.84989 ,-1.43973 ,-14.12662 
446 ,95.7962 ,1.85200 ,-1.46711 ,-14.39525 
447 ,96.0049 ,1.85405 ,-1.48080 ,-14.52956 
448 ,96.2290 ,1.85626 ,-1.47737 ,-14.49598 
449 ,96.4369 ,1.85837 ,-1.50817 ,-14.79819 
450 ,96.6610 ,1.86060 ,-1.50133 ,-14.73103 
451 ,96.8689 ,1.86270 ,-1.51844 ,-14.89892 
452 ,97.0932 ,1.86487 ,-1.51502 ,-14.86534 
453 ,97.3012 ,1.86711 ,-1.52528 ,-14.96608 
454 ,97.5093 ,1.86905 ,-1.54924 ,-15.20113 
455 ,97.7174 ,1.87109 ,-1.54239 ,-15.13397 
456 ,97.9414 ,1.87343 ,-1.56977 ,-15.40260 
457 ,98.1332 ,1.87534 ,-1.55266 ,-15.23471 
458 ,98.3416 ,1.87739 ,-1.59030 ,-15.60407 
459 ,98.5497 ,1.87946 ,-1.58688 ,-15.57049 
460 ,98.7578 ,1.88153 ,-1.59373 ,-15.63764 
