Data stamp = , 19-05-2022 08:43:48 975

Calibration Values: 
Slope = , 26.54 , g/V 
Offset Voltage at no contact = , -0.501760 , V 

No , Time , Stage Position ,   Mass , Force 
   ,  (s) ,      (mm)      ,   (g)  , (mN)  

1 ,0.0000 ,0.89966 ,5.27798 ,51.78758 
2 ,0.2332 ,0.89972 ,5.25745 ,51.58611 
3 ,0.9054 ,0.90282 ,5.28483 ,51.85474 
4 ,1.1457 ,0.90564 ,5.28825 ,51.88832 
5 ,1.3856 ,0.90809 ,5.28825 ,51.88832 
6 ,1.6101 ,0.91037 ,5.24718 ,51.48538 
7 ,1.8182 ,0.91255 ,5.22665 ,51.28391 
8 ,2.0258 ,0.91476 ,5.20612 ,51.08244 
9 ,2.2182 ,0.91670 ,5.21296 ,51.14960 
10 ,2.4425 ,0.91871 ,5.17190 ,50.74666 
11 ,2.6665 ,0.92100 ,5.17532 ,50.78023 
12 ,2.8586 ,0.92298 ,5.12399 ,50.27656 
13 ,3.0824 ,0.92517 ,5.10688 ,50.10867 
14 ,3.2907 ,0.92728 ,5.10345 ,50.07509 
15 ,3.5148 ,0.92954 ,5.07608 ,49.80646 
16 ,3.7230 ,0.93163 ,5.04185 ,49.47068 
17 ,3.9309 ,0.93367 ,5.03159 ,49.36995 
18 ,4.1391 ,0.93581 ,5.00079 ,49.06774 
19 ,4.3474 ,0.93781 ,4.99737 ,49.03416 
20 ,4.5714 ,0.94001 ,4.96999 ,48.76554 
21 ,4.7793 ,0.94215 ,4.93577 ,48.42975 
22 ,5.0036 ,0.94437 ,4.91181 ,48.19471 
23 ,5.2115 ,0.94642 ,4.91523 ,48.22828 
24 ,5.4197 ,0.94846 ,4.87417 ,47.82534 
25 ,5.6273 ,0.95059 ,4.87759 ,47.85892 
26 ,5.8677 ,0.95294 ,4.84679 ,47.55672 
27 ,6.0919 ,0.95525 ,4.82284 ,47.32167 
28 ,6.3001 ,0.95732 ,4.78861 ,46.98589 
29 ,6.5082 ,0.95938 ,4.78177 ,46.91873 
30 ,6.7002 ,0.96139 ,4.75439 ,46.65010 
31 ,6.9244 ,0.96355 ,4.74755 ,46.58295 
32 ,7.1324 ,0.96562 ,4.71675 ,46.28074 
33 ,7.3403 ,0.96776 ,4.68595 ,45.97854 
34 ,7.5482 ,0.96993 ,4.68937 ,46.01212 
35 ,7.7567 ,0.97193 ,4.65857 ,45.70991 
36 ,7.9808 ,0.97413 ,4.62777 ,45.40771 
37 ,8.1886 ,0.97624 ,4.62435 ,45.37413 
38 ,8.4130 ,0.97841 ,4.59355 ,45.07192 
39 ,8.6207 ,0.98047 ,4.57644 ,44.90403 
40 ,8.8291 ,0.98267 ,4.54906 ,44.63541 
41 ,9.0373 ,0.98478 ,4.53537 ,44.50109 
42 ,9.2290 ,0.98674 ,4.53537 ,44.50109 
43 ,9.4374 ,0.98866 ,4.48746 ,44.03100 
44 ,9.6454 ,0.99082 ,4.49089 ,44.06457 
45 ,9.8535 ,0.99290 ,4.45324 ,43.69521 
46 ,10.0613 ,0.99487 ,4.45324 ,43.69521 
47 ,10.2373 ,0.99688 ,4.41902 ,43.35943 
48 ,10.4458 ,0.99878 ,4.42929 ,43.46016 
49 ,10.6856 ,1.00120 ,4.39849 ,43.15796 
50 ,10.8776 ,1.00313 ,4.35058 ,42.68786 
51 ,11.1017 ,1.00535 ,4.35058 ,42.68786 
52 ,11.3098 ,1.00738 ,4.34031 ,42.58713 
53 ,11.5181 ,1.00949 ,4.30609 ,42.25135 
54 ,11.7263 ,1.01170 ,4.29924 ,42.18419 
55 ,11.9342 ,1.01361 ,4.25476 ,41.74767 
56 ,12.1422 ,1.01586 ,4.27871 ,41.98272 
57 ,12.3504 ,1.01786 ,4.22738 ,41.47905 
58 ,12.5586 ,1.02006 ,4.21027 ,41.31115 
59 ,12.7667 ,1.02201 ,4.20342 ,41.24400 
60 ,12.9747 ,1.02402 ,4.17262 ,40.94179 
61 ,13.1669 ,1.02612 ,4.16578 ,40.87464 
62 ,13.3590 ,1.02796 ,4.14183 ,40.63959 
63 ,13.5670 ,1.03000 ,4.14183 ,40.63959 
64 ,13.7912 ,1.03220 ,4.09391 ,40.16949 
65 ,14.0151 ,1.03441 ,4.05969 ,39.83371 
66 ,14.2069 ,1.03640 ,4.06654 ,39.90087 
67 ,14.4154 ,1.03849 ,4.04600 ,39.69940 
68 ,14.6230 ,1.04064 ,4.02205 ,39.46435 
69 ,14.8316 ,1.04262 ,4.01178 ,39.36361 
70 ,15.0396 ,1.04473 ,3.99467 ,39.19572 
71 ,15.2313 ,1.04673 ,3.97414 ,38.99425 
72 ,15.4557 ,1.04886 ,3.95361 ,38.79278 
73 ,15.6799 ,1.05107 ,3.93307 ,38.59131 
74 ,15.8880 ,1.05313 ,3.91938 ,38.45700 
75 ,16.0962 ,1.05529 ,3.88174 ,38.08764 
76 ,16.3202 ,1.05750 ,3.87490 ,38.02048 
77 ,16.5281 ,1.05960 ,3.85436 ,37.81901 
78 ,16.7365 ,1.06170 ,3.83383 ,37.61754 
79 ,16.9603 ,1.06387 ,3.83383 ,37.61754 
80 ,17.1685 ,1.06595 ,3.80645 ,37.34891 
81 ,17.3927 ,1.06821 ,3.76539 ,36.94597 
82 ,17.6004 ,1.07034 ,3.77908 ,37.08029 
83 ,17.7767 ,1.07221 ,3.72090 ,36.50946 
84 ,17.9850 ,1.07412 ,3.74828 ,36.77808 
85 ,18.2089 ,1.07636 ,3.70379 ,36.34157 
86 ,18.4172 ,1.07847 ,3.68668 ,36.17367 
87 ,18.6409 ,1.08073 ,3.67641 ,36.07294 
88 ,18.8492 ,1.08289 ,3.66272 ,35.93863 
89 ,19.0573 ,1.08492 ,3.62166 ,35.53569 
90 ,19.2815 ,1.08709 ,3.63192 ,35.63642 
91 ,19.5057 ,1.08938 ,3.60112 ,35.33422 
92 ,19.7132 ,1.09139 ,3.56690 ,34.99843 
93 ,19.9537 ,1.09371 ,3.55663 ,34.89770 
94 ,20.1779 ,1.09607 ,3.53268 ,34.66265 
95 ,20.3859 ,1.09821 ,3.51899 ,34.52834 
96 ,20.6101 ,1.10038 ,3.48135 ,34.15898 
97 ,20.8179 ,1.10248 ,3.48135 ,34.15898 
98 ,21.0581 ,1.10474 ,3.46424 ,33.99108 
99 ,21.3142 ,1.10744 ,3.43344 ,33.68888 
100 ,21.5384 ,1.10962 ,3.41290 ,33.48741 
101 ,21.7464 ,1.11175 ,3.39237 ,33.28594 
102 ,21.9545 ,1.11382 ,3.37526 ,33.11805 
103 ,22.1786 ,1.11612 ,3.37184 ,33.08447 
104 ,22.3864 ,1.11825 ,3.34104 ,32.78227 
105 ,22.5948 ,1.12020 ,3.31366 ,32.51364 
106 ,22.8188 ,1.12243 ,3.31024 ,32.48006 
107 ,23.0430 ,1.12471 ,3.28971 ,32.27859 
108 ,23.2669 ,1.12682 ,3.25206 ,31.90923 
109 ,23.4911 ,1.12915 ,3.21442 ,31.53987 
110 ,23.6992 ,1.13124 ,3.23837 ,31.77492 
111 ,23.9075 ,1.13335 ,3.20073 ,31.40555 
112 ,24.1153 ,1.13545 ,3.17677 ,31.17051 
113 ,24.3234 ,1.13761 ,3.18020 ,31.20409 
114 ,24.5156 ,1.13946 ,3.13913 ,30.80115 
115 ,24.7233 ,1.14148 ,3.14255 ,30.83472 
116 ,24.9156 ,1.14353 ,3.11175 ,30.53252 
117 ,25.1078 ,1.14536 ,3.10149 ,30.43178 
118 ,25.3155 ,1.14742 ,3.09464 ,30.36463 
119 ,25.5397 ,1.14971 ,3.08438 ,30.26389 
120 ,25.7477 ,1.15175 ,3.05358 ,29.96169 
121 ,25.9559 ,1.15379 ,3.04331 ,29.86095 
122 ,26.1482 ,1.15580 ,3.00567 ,29.49159 
123 ,26.3565 ,1.15785 ,2.99540 ,29.39086 
124 ,26.5482 ,1.15985 ,2.97829 ,29.22297 
125 ,26.7562 ,1.16183 ,2.97487 ,29.18939 
126 ,26.9646 ,1.16386 ,2.95433 ,28.98792 
127 ,27.1726 ,1.16597 ,2.92011 ,28.65213 
128 ,27.3968 ,1.16823 ,2.90642 ,28.51782 
129 ,27.6044 ,1.17033 ,2.89273 ,28.38351 
130 ,27.8129 ,1.17240 ,2.87220 ,28.18204 
131 ,28.0208 ,1.17447 ,2.87220 ,28.18204 
132 ,28.2130 ,1.17642 ,2.83456 ,27.81268 
133 ,28.4372 ,1.17864 ,2.82771 ,27.74552 
134 ,28.6450 ,1.18069 ,2.79691 ,27.44332 
135 ,28.8851 ,1.18305 ,2.77980 ,27.27542 
136 ,29.0934 ,1.18523 ,2.75243 ,27.00680 
137 ,29.3015 ,1.18731 ,2.76269 ,27.10753 
138 ,29.5256 ,1.18951 ,2.73874 ,26.87248 
139 ,29.7337 ,1.19152 ,2.71136 ,26.60386 
140 ,29.9416 ,1.19371 ,2.69767 ,26.46954 
141 ,30.1498 ,1.19574 ,2.66003 ,26.10018 
142 ,30.3579 ,1.19785 ,2.66687 ,26.16734 
143 ,30.5498 ,1.19987 ,2.65660 ,26.06661 
144 ,30.7578 ,1.20180 ,2.64292 ,25.93229 
145 ,30.9497 ,1.20378 ,2.60869 ,25.59651 
146 ,31.1582 ,1.20584 ,2.60527 ,25.56293 
147 ,31.3823 ,1.20805 ,2.58132 ,25.32788 
148 ,31.5906 ,1.21014 ,2.55052 ,25.02568 
149 ,31.7985 ,1.21228 ,2.55052 ,25.02568 
150 ,31.9902 ,1.21416 ,2.50603 ,24.58916 
151 ,32.2147 ,1.21637 ,2.51630 ,24.68989 
152 ,32.4387 ,1.21862 ,2.49576 ,24.48842 
153 ,32.6469 ,1.22070 ,2.46154 ,24.15264 
154 ,32.8866 ,1.22317 ,2.45127 ,24.05191 
155 ,33.1109 ,1.22532 ,2.42390 ,23.78328 
156 ,33.3032 ,1.22739 ,2.43074 ,23.85044 
157 ,33.5112 ,1.22933 ,2.39310 ,23.48108 
158 ,33.7190 ,1.23140 ,2.39310 ,23.48108 
159 ,33.9275 ,1.23353 ,2.36230 ,23.17887 
160 ,34.1515 ,1.23570 ,2.34519 ,23.01098 
161 ,34.3595 ,1.23784 ,2.36230 ,23.17887 
162 ,34.5514 ,1.23977 ,2.32465 ,22.80951 
163 ,34.7597 ,1.24178 ,2.30754 ,22.64162 
164 ,34.9517 ,1.24375 ,2.29043 ,22.47373 
165 ,35.1597 ,1.24582 ,2.28359 ,22.40657 
166 ,35.3837 ,1.24806 ,2.25963 ,22.17152 
167 ,35.5918 ,1.25016 ,2.24594 ,22.03721 
168 ,35.8000 ,1.25226 ,2.24252 ,22.00363 
169 ,36.0558 ,1.25475 ,2.20146 ,21.60069 
170 ,36.2800 ,1.25701 ,2.19119 ,21.49996 
171 ,36.4881 ,1.25918 ,2.16039 ,21.19775 
172 ,36.7125 ,1.26137 ,2.14328 ,21.02986 
173 ,36.9367 ,1.26358 ,2.14670 ,21.06344 
174 ,37.1446 ,1.26565 ,2.11248 ,20.72766 
175 ,37.3528 ,1.26780 ,2.08510 ,20.45903 
176 ,37.5768 ,1.26997 ,2.10906 ,20.69408 
177 ,37.8010 ,1.27220 ,2.08168 ,20.42545 
178 ,38.0092 ,1.27444 ,2.04061 ,20.02251 
179 ,38.2173 ,1.27638 ,2.03719 ,19.98893 
180 ,38.4413 ,1.27867 ,2.02008 ,19.82104 
181 ,38.6493 ,1.28070 ,1.98244 ,19.45168 
182 ,38.8572 ,1.28278 ,1.99613 ,19.58599 
183 ,39.0653 ,1.28494 ,1.95164 ,19.14948 
184 ,39.2736 ,1.28696 ,1.94822 ,19.11590 
185 ,39.4818 ,1.28899 ,1.93453 ,18.98158 
186 ,39.6899 ,1.29109 ,1.91057 ,18.74654 
187 ,39.9139 ,1.29330 ,1.90715 ,18.71296 
188 ,40.1220 ,1.29546 ,1.89688 ,18.61222 
189 ,40.3461 ,1.29769 ,1.85582 ,18.20928 
190 ,40.5700 ,1.29994 ,1.83871 ,18.04139 
191 ,40.7782 ,1.30195 ,1.84213 ,18.07497 
192 ,40.9859 ,1.30409 ,1.80449 ,17.70561 
193 ,41.1784 ,1.30609 ,1.81133 ,17.77276 
194 ,41.4024 ,1.30821 ,1.78737 ,17.53772 
195 ,41.6105 ,1.31033 ,1.76342 ,17.30267 
196 ,41.8347 ,1.31251 ,1.75315 ,17.20193 
197 ,42.0423 ,1.31470 ,1.73946 ,17.06762 
198 ,42.2507 ,1.31670 ,1.71551 ,16.83257 
199 ,42.4750 ,1.31888 ,1.70866 ,16.76542 
200 ,42.6831 ,1.32101 ,1.68813 ,16.56395 
201 ,42.8910 ,1.32307 ,1.66418 ,16.32890 
202 ,43.0993 ,1.32515 ,1.66075 ,16.29532 
203 ,43.3231 ,1.32743 ,1.61969 ,15.89238 
204 ,43.5794 ,1.32982 ,1.60942 ,15.79164 
205 ,43.7875 ,1.33203 ,1.58204 ,15.52302 
206 ,43.9956 ,1.33410 ,1.60258 ,15.72449 
207 ,44.2034 ,1.33620 ,1.57178 ,15.42228 
208 ,44.4118 ,1.33830 ,1.55467 ,15.25439 
209 ,44.6359 ,1.34054 ,1.55809 ,15.28797 
210 ,44.8598 ,1.34279 ,1.53413 ,15.05292 
211 ,45.0681 ,1.34490 ,1.49991 ,14.71714 
212 ,45.2920 ,1.34710 ,1.49991 ,14.71714 
213 ,45.5000 ,1.34916 ,1.46911 ,14.41493 
214 ,45.7244 ,1.35142 ,1.43831 ,14.11273 
215 ,45.9484 ,1.35368 ,1.44174 ,14.14631 
216 ,46.1724 ,1.35586 ,1.43489 ,14.07915 
217 ,46.3804 ,1.35795 ,1.40409 ,13.77695 
218 ,46.5887 ,1.36003 ,1.39725 ,13.70979 
219 ,46.7965 ,1.36212 ,1.39040 ,13.64263 
220 ,47.0048 ,1.36421 ,1.34934 ,13.23969 
221 ,47.2129 ,1.36623 ,1.36303 ,13.37401 
222 ,47.4209 ,1.36835 ,1.32880 ,13.03822 
223 ,47.6287 ,1.37038 ,1.32538 ,13.00465 
224 ,47.8372 ,1.37255 ,1.30827 ,12.83675 
225 ,48.0453 ,1.37466 ,1.28432 ,12.60171 
226 ,48.2693 ,1.37685 ,1.28774 ,12.63528 
227 ,48.4775 ,1.37894 ,1.26720 ,12.43381 
228 ,48.7011 ,1.38118 ,1.22272 ,11.99730 
229 ,48.9097 ,1.38335 ,1.21587 ,11.93014 
230 ,49.1177 ,1.38536 ,1.21587 ,11.93014 
231 ,49.3258 ,1.38739 ,1.18507 ,11.62794 
232 ,49.5176 ,1.38947 ,1.19534 ,11.72867 
233 ,49.7261 ,1.39140 ,1.16454 ,11.42647 
234 ,49.9499 ,1.39361 ,1.16454 ,11.42647 
235 ,50.1582 ,1.39570 ,1.12690 ,11.05710 
236 ,50.3662 ,1.39783 ,1.12347 ,11.02353 
237 ,50.5584 ,1.39988 ,1.12005 ,10.98995 
238 ,50.7665 ,1.40183 ,1.09610 ,10.75490 
239 ,50.9901 ,1.40403 ,1.09610 ,10.75490 
240 ,51.1986 ,1.40616 ,1.05503 ,10.35196 
241 ,51.4226 ,1.40842 ,1.03792 ,10.18407 
242 ,51.6467 ,1.41064 ,1.04134 ,10.21765 
243 ,51.8550 ,1.41263 ,1.02081 ,10.01618 
244 ,52.0785 ,1.41492 ,0.99343 ,9.74755 
245 ,52.3029 ,1.41711 ,1.00028 ,9.81471 
246 ,52.5271 ,1.41937 ,0.98317 ,9.64682 
247 ,52.7353 ,1.42150 ,0.94210 ,9.24388 
248 ,52.9753 ,1.42381 ,0.92841 ,9.10956 
249 ,53.1669 ,1.42596 ,0.91814 ,9.00883 
250 ,53.3756 ,1.42795 ,0.91472 ,8.97525 
251 ,53.5994 ,1.43015 ,0.88734 ,8.70662 
252 ,53.8075 ,1.43219 ,0.89419 ,8.77378 
253 ,54.0157 ,1.43426 ,0.86681 ,8.50515 
254 ,54.2235 ,1.43638 ,0.84628 ,8.30368 
255 ,54.4478 ,1.43867 ,0.84970 ,8.33726 
256 ,54.6717 ,1.44085 ,0.82232 ,8.06864 
257 ,54.9121 ,1.44320 ,0.80521 ,7.90074 
258 ,55.1362 ,1.44549 ,0.78468 ,7.69927 
259 ,55.3439 ,1.44762 ,0.79495 ,7.80001 
260 ,55.5521 ,1.44976 ,0.76415 ,7.49780 
261 ,55.7604 ,1.45174 ,0.74019 ,7.26276 
262 ,55.9685 ,1.45385 ,0.74704 ,7.32991 
263 ,56.1925 ,1.45605 ,0.71624 ,7.02771 
264 ,56.4003 ,1.45812 ,0.69228 ,6.79266 
265 ,56.6085 ,1.46016 ,0.70939 ,6.96055 
266 ,56.8165 ,1.46226 ,0.66148 ,6.49046 
267 ,57.0248 ,1.46436 ,0.66833 ,6.55761 
268 ,57.2329 ,1.46643 ,0.66148 ,6.49046 
269 ,57.4409 ,1.46850 ,0.62726 ,6.15467 
270 ,57.6487 ,1.47066 ,0.64095 ,6.28899 
271 ,57.8572 ,1.47274 ,0.60673 ,5.95320 
272 ,58.0653 ,1.47480 ,0.59988 ,5.88605 
273 ,58.2734 ,1.47693 ,0.58619 ,5.75173 
274 ,58.4975 ,1.47910 ,0.55197 ,5.41595 
275 ,58.7054 ,1.48124 ,0.56224 ,5.51668 
276 ,58.9293 ,1.48341 ,0.52802 ,5.18090 
277 ,59.1539 ,1.48563 ,0.51433 ,5.04659 
278 ,59.3619 ,1.48776 ,0.50748 ,4.97943 
279 ,59.5859 ,1.48997 ,0.51091 ,5.01301 
280 ,59.7778 ,1.49197 ,0.46642 ,4.57649 
281 ,60.0020 ,1.49416 ,0.48011 ,4.71081 
282 ,60.2262 ,1.49628 ,0.46300 ,4.54291 
283 ,60.4344 ,1.49850 ,0.43904 ,4.30787 
284 ,60.6582 ,1.50070 ,0.42193 ,4.13997 
285 ,60.8503 ,1.50267 ,0.42193 ,4.13997 
286 ,61.0743 ,1.50488 ,0.39797 ,3.90493 
287 ,61.2987 ,1.50714 ,0.37060 ,3.63630 
288 ,61.5065 ,1.50917 ,0.38771 ,3.80419 
289 ,61.6989 ,1.51121 ,0.33980 ,3.33410 
290 ,61.9071 ,1.51322 ,0.35349 ,3.46841 
291 ,62.0987 ,1.51520 ,0.32269 ,3.16620 
292 ,62.3073 ,1.51723 ,0.32269 ,3.16620 
293 ,62.5311 ,1.51943 ,0.30215 ,2.96473 
294 ,62.7073 ,1.52134 ,0.30215 ,2.96473 
295 ,62.9152 ,1.52325 ,0.26451 ,2.59537 
296 ,63.1236 ,1.52539 ,0.27820 ,2.72969 
297 ,63.3634 ,1.52768 ,0.24740 ,2.42748 
298 ,63.5877 ,1.53000 ,0.24740 ,2.42748 
299 ,63.7795 ,1.53202 ,0.20976 ,2.05812 
300 ,63.9876 ,1.53400 ,0.21660 ,2.12528 
301 ,64.1959 ,1.53607 ,0.19264 ,1.89023 
302 ,64.3878 ,1.53809 ,0.19607 ,1.92381 
303 ,64.5959 ,1.53998 ,0.16527 ,1.62160 
304 ,64.8043 ,1.54214 ,0.17211 ,1.68876 
305 ,65.0283 ,1.54440 ,0.14816 ,1.45371 
306 ,65.2363 ,1.54647 ,0.12420 ,1.21866 
307 ,65.4598 ,1.54868 ,0.13447 ,1.31940 
308 ,65.6999 ,1.55104 ,0.11051 ,1.08435 
309 ,65.9243 ,1.55340 ,0.10025 ,0.98361 
310 ,66.1966 ,1.55606 ,0.07287 ,0.71499 
311 ,66.4367 ,1.55833 ,0.07287 ,0.71499 
312 ,66.6607 ,1.56069 ,0.06260 ,0.61425 
313 ,66.8690 ,1.56278 ,0.02496 ,0.24489 
314 ,67.0771 ,1.56489 ,0.02496 ,0.24489 
315 ,67.2849 ,1.56693 ,0.01469 ,0.14416 
316 ,67.4932 ,1.56904 ,-0.01953 ,-0.19163 
317 ,67.7008 ,1.57110 ,-0.01269 ,-0.12447 
318 ,67.9093 ,1.57318 ,-0.04691 ,-0.46025 
319 ,68.1175 ,1.57525 ,-0.05033 ,-0.49383 
320 ,68.3256 ,1.57732 ,-0.04348 ,-0.42667 
321 ,68.5497 ,1.57960 ,-0.07428 ,-0.72888 
322 ,68.7573 ,1.58177 ,-0.08455 ,-0.82961 
323 ,68.9818 ,1.58393 ,-0.09140 ,-0.89677 
324 ,69.2060 ,1.58613 ,-0.09824 ,-0.96393 
325 ,69.4301 ,1.58840 ,-0.13931 ,-1.36687 
326 ,69.6542 ,1.59065 ,-0.15299 ,-1.50118 
327 ,69.8619 ,1.59270 ,-0.13931 ,-1.36687 
328 ,70.1022 ,1.59497 ,-0.13931 ,-1.36687 
329 ,70.3259 ,1.59731 ,-0.17011 ,-1.66907 
330 ,70.5340 ,1.59946 ,-0.20090 ,-1.97128 
331 ,70.7422 ,1.60152 ,-0.18037 ,-1.76981 
332 ,70.9341 ,1.60360 ,-0.22486 ,-2.20632 
333 ,71.1422 ,1.60560 ,-0.21117 ,-2.07201 
334 ,71.3503 ,1.60757 ,-0.24539 ,-2.40779 
335 ,71.5584 ,1.60965 ,-0.24539 ,-2.40779 
336 ,71.7670 ,1.61177 ,-0.25908 ,-2.54211 
337 ,71.9590 ,1.61382 ,-0.27277 ,-2.67642 
338 ,72.1668 ,1.61572 ,-0.29330 ,-2.87789 
339 ,72.3752 ,1.61781 ,-0.30015 ,-2.94505 
340 ,72.5993 ,1.62009 ,-0.29330 ,-2.87789 
341 ,72.8073 ,1.62219 ,-0.32752 ,-3.21367 
342 ,72.9833 ,1.62407 ,-0.32752 ,-3.21367 
343 ,73.1912 ,1.62601 ,-0.35148 ,-3.44872 
344 ,73.3996 ,1.62806 ,-0.35148 ,-3.44872 
345 ,73.6235 ,1.63026 ,-0.37544 ,-3.68377 
346 ,73.8476 ,1.63256 ,-0.38912 ,-3.81808 
347 ,74.0559 ,1.63468 ,-0.38570 ,-3.78450 
348 ,74.2639 ,1.63666 ,-0.41308 ,-4.05313 
349 ,74.4720 ,1.63880 ,-0.43019 ,-4.22102 
350 ,74.6962 ,1.64100 ,-0.42677 ,-4.18744 
351 ,74.8879 ,1.64309 ,-0.43703 ,-4.28818 
352 ,75.0802 ,1.64490 ,-0.44388 ,-4.35534 
353 ,75.2885 ,1.64699 ,-0.47468 ,-4.65754 
354 ,75.5124 ,1.64918 ,-0.48494 ,-4.75828 
355 ,75.7204 ,1.65125 ,-0.46783 ,-4.59038 
356 ,75.9288 ,1.65338 ,-0.51232 ,-5.02690 
357 ,76.1367 ,1.65552 ,-0.52259 ,-5.12764 
358 ,76.3450 ,1.65756 ,-0.52601 ,-5.16121 
359 ,76.5685 ,1.65970 ,-0.56365 ,-5.53058 
360 ,76.7610 ,1.66177 ,-0.54997 ,-5.39626 
361 ,76.9692 ,1.66371 ,-0.57734 ,-5.66489 
362 ,77.1933 ,1.66607 ,-0.56708 ,-5.56415 
363 ,77.4013 ,1.66810 ,-0.58077 ,-5.69847 
364 ,77.6569 ,1.67043 ,-0.61499 ,-6.03425 
365 ,77.8656 ,1.67266 ,-0.62183 ,-6.10141 
366 ,78.0896 ,1.67495 ,-0.63210 ,-6.20214 
367 ,78.2977 ,1.67701 ,-0.61841 ,-6.06783 
368 ,78.5216 ,1.67924 ,-0.63894 ,-6.26930 
369 ,78.7454 ,1.68149 ,-0.66974 ,-6.57150 
370 ,78.9540 ,1.68356 ,-0.65947 ,-6.47077 
371 ,79.1779 ,1.68582 ,-0.68343 ,-6.70582 
372 ,79.3699 ,1.68779 ,-0.69027 ,-6.77297 
373 ,79.5938 ,1.68998 ,-0.70396 ,-6.90729 
374 ,79.8020 ,1.69209 ,-0.71765 ,-7.04160 
375 ,80.0263 ,1.69431 ,-0.75187 ,-7.37738 
376 ,80.2503 ,1.69657 ,-0.74161 ,-7.27665 
377 ,80.4586 ,1.69864 ,-0.73476 ,-7.20949 
378 ,80.6826 ,1.70091 ,-0.75530 ,-7.41096 
379 ,80.8907 ,1.70295 ,-0.77925 ,-7.64601 
380 ,81.0988 ,1.70509 ,-0.77925 ,-7.64601 
381 ,81.3068 ,1.70709 ,-0.80663 ,-7.91464 
382 ,81.5147 ,1.70919 ,-0.79636 ,-7.81390 
383 ,81.7231 ,1.71123 ,-0.82032 ,-8.04895 
384 ,81.9472 ,1.71353 ,-0.84769 ,-8.31758 
385 ,82.1713 ,1.71575 ,-0.83058 ,-8.14968 
386 ,82.3951 ,1.71795 ,-0.84769 ,-8.31758 
387 ,82.6034 ,1.72011 ,-0.87507 ,-8.58620 
388 ,82.8114 ,1.72216 ,-0.88192 ,-8.65336 
389 ,83.0194 ,1.72422 ,-0.86823 ,-8.51904 
390 ,83.1952 ,1.72617 ,-0.90245 ,-8.85483 
391 ,83.4037 ,1.72808 ,-0.91614 ,-8.98914 
392 ,83.6119 ,1.73010 ,-0.91956 ,-9.02272 
393 ,83.8358 ,1.73239 ,-0.90245 ,-8.85483 
394 ,84.0600 ,1.73459 ,-0.92983 ,-9.12345 
395 ,84.2517 ,1.73666 ,-0.96747 ,-9.49282 
396 ,84.4602 ,1.73865 ,-0.96063 ,-9.42566 
397 ,84.6843 ,1.74086 ,-0.97774 ,-9.59355 
398 ,84.8924 ,1.74296 ,-0.97431 ,-9.55997 
399 ,85.1162 ,1.74515 ,-0.97774 ,-9.59355 
400 ,85.3242 ,1.74738 ,-1.00169 ,-9.82860 
401 ,85.5325 ,1.74937 ,-1.02222 ,-10.03007 
402 ,85.7565 ,1.75159 ,-1.01538 ,-9.96291 
403 ,85.9807 ,1.75385 ,-1.02907 ,-10.09723 
404 ,86.1889 ,1.75595 ,-1.05645 ,-10.36585 
405 ,86.3971 ,1.75800 ,-1.04618 ,-10.26512 
406 ,86.6370 ,1.76033 ,-1.07356 ,-10.53374 
407 ,86.8611 ,1.76268 ,-1.08040 ,-10.60090 
408 ,87.0853 ,1.76488 ,-1.10436 ,-10.83595 
409 ,87.3093 ,1.76716 ,-1.11120 ,-10.90310 
410 ,87.5171 ,1.76915 ,-1.09409 ,-10.73521 
411 ,87.7254 ,1.77128 ,-1.13173 ,-11.10457 
412 ,87.9493 ,1.77357 ,-1.15227 ,-11.30604 
413 ,88.1577 ,1.77564 ,-1.12489 ,-11.03742 
414 ,88.3816 ,1.77781 ,-1.14884 ,-11.27247 
415 ,88.5899 ,1.77991 ,-1.18307 ,-11.60825 
416 ,88.8458 ,1.78253 ,-1.18307 ,-11.60825 
417 ,89.0699 ,1.78476 ,-1.19676 ,-11.74256 
418 ,89.2781 ,1.78676 ,-1.18991 ,-11.67541 
419 ,89.4863 ,1.78895 ,-1.21729 ,-11.94403 
420 ,89.6944 ,1.79093 ,-1.21387 ,-11.91045 
421 ,89.9183 ,1.79307 ,-1.23782 ,-12.14550 
422 ,90.1266 ,1.79529 ,-1.25493 ,-12.31339 
423 ,90.3345 ,1.79739 ,-1.24124 ,-12.17908 
424 ,90.5587 ,1.79957 ,-1.24809 ,-12.24624 
425 ,90.7825 ,1.80183 ,-1.27547 ,-12.51486 
426 ,90.9908 ,1.80384 ,-1.28231 ,-12.58202 
427 ,91.1990 ,1.80594 ,-1.29600 ,-12.71633 
428 ,91.3910 ,1.80792 ,-1.31311 ,-12.88422 
429 ,91.6150 ,1.81010 ,-1.30969 ,-12.85065 
430 ,91.8232 ,1.81219 ,-1.33022 ,-13.05212 
431 ,92.0308 ,1.81432 ,-1.33022 ,-13.05212 
432 ,92.2394 ,1.81642 ,-1.32338 ,-12.98496 
433 ,92.4634 ,1.81864 ,-1.35417 ,-13.28716 
434 ,92.6556 ,1.82062 ,-1.36102 ,-13.35432 
435 ,92.8796 ,1.82279 ,-1.37813 ,-13.52221 
436 ,93.0874 ,1.82489 ,-1.39866 ,-13.72368 
437 ,93.3120 ,1.82705 ,-1.38840 ,-13.62295 
438 ,93.5360 ,1.82931 ,-1.40209 ,-13.75726 
439 ,93.7597 ,1.83156 ,-1.40551 ,-13.79084 
440 ,93.9519 ,1.83359 ,-1.42946 ,-14.02589 
441 ,94.1602 ,1.83562 ,-1.41577 ,-13.89157 
442 ,94.3681 ,1.83777 ,-1.45000 ,-14.22736 
443 ,94.5923 ,1.83987 ,-1.45684 ,-14.29451 
444 ,94.8005 ,1.84202 ,-1.46026 ,-14.32809 
445 ,95.0087 ,1.84406 ,-1.48764 ,-14.59672 
446 ,95.2326 ,1.84632 ,-1.48080 ,-14.52956 
447 ,95.4567 ,1.84856 ,-1.48422 ,-14.56314 
448 ,95.6808 ,1.85076 ,-1.50133 ,-14.73103 
449 ,95.8890 ,1.85285 ,-1.52871 ,-14.99966 
450 ,96.0971 ,1.85494 ,-1.50817 ,-14.79819 
451 ,96.3051 ,1.85703 ,-1.53555 ,-15.06681 
452 ,96.5286 ,1.85927 ,-1.55266 ,-15.23471 
453 ,96.7367 ,1.86142 ,-1.53555 ,-15.06681 
454 ,96.9453 ,1.86349 ,-1.56635 ,-15.36902 
455 ,97.1697 ,1.86572 ,-1.58346 ,-15.53691 
456 ,97.3776 ,1.86776 ,-1.56635 ,-15.36902 
457 ,97.5692 ,1.86977 ,-1.59373 ,-15.63764 
458 ,97.7775 ,1.87176 ,-1.58688 ,-15.57049 
459 ,97.9857 ,1.87380 ,-1.61768 ,-15.87269 
460 ,98.1939 ,1.87586 ,-1.62110 ,-15.90627 
