Data stamp = , 19-05-2022 12:29:42 875

Calibration Values: 
Slope = , 26.54 , g/V 
Offset Voltage at no contact = , -0.501760 , V 

No , Time , Stage Position ,   Mass , Force 
   ,  (s) ,      (mm)      ,   (g)  , (mN)  

1 ,0.0000 ,0.89960 ,5.31221 ,52.12337 
2 ,0.2042 ,0.89969 ,5.30194 ,52.02263 
3 ,0.8450 ,0.90237 ,5.29852 ,51.98905 
4 ,1.1167 ,0.90532 ,5.29852 ,51.98905 
5 ,1.3570 ,0.90777 ,5.29852 ,51.98905 
6 ,1.5809 ,0.91010 ,5.29167 ,51.92190 
7 ,1.8052 ,0.91240 ,5.25403 ,51.55254 
8 ,2.0128 ,0.91460 ,5.23692 ,51.38464 
9 ,2.2373 ,0.91673 ,5.21981 ,51.21675 
10 ,2.4615 ,0.91893 ,5.18901 ,50.91455 
11 ,2.6856 ,0.92122 ,5.15136 ,50.54519 
12 ,2.8937 ,0.92325 ,5.15821 ,50.61234 
13 ,3.1016 ,0.92540 ,5.12056 ,50.24298 
14 ,3.3258 ,0.92762 ,5.08977 ,49.94078 
15 ,3.5501 ,0.92979 ,5.07950 ,49.84004 
16 ,3.7741 ,0.93209 ,5.07265 ,49.77289 
17 ,3.9981 ,0.93428 ,5.05554 ,49.60499 
18 ,4.2221 ,0.93652 ,5.00421 ,49.10132 
19 ,4.4303 ,0.93868 ,5.00421 ,49.10132 
20 ,4.6384 ,0.94075 ,4.98710 ,48.93343 
21 ,4.8461 ,0.94282 ,4.94603 ,48.53049 
22 ,5.0544 ,0.94486 ,4.95630 ,48.63122 
23 ,5.2627 ,0.94694 ,4.91181 ,48.19471 
24 ,5.4866 ,0.94918 ,4.88786 ,47.95966 
25 ,5.6948 ,0.95126 ,4.88101 ,47.89250 
26 ,5.9030 ,0.95339 ,4.85364 ,47.62387 
27 ,6.1270 ,0.95557 ,4.81941 ,47.28809 
28 ,6.3511 ,0.95780 ,4.81941 ,47.28809 
29 ,6.5427 ,0.95989 ,4.79546 ,47.05304 
30 ,6.7515 ,0.96186 ,4.78861 ,46.98589 
31 ,6.9751 ,0.96410 ,4.77150 ,46.81800 
32 ,7.1834 ,0.96620 ,4.72359 ,46.34790 
33 ,7.3753 ,0.96828 ,4.71675 ,46.28074 
34 ,7.5993 ,0.97025 ,4.67226 ,45.84422 
35 ,7.8237 ,0.97258 ,4.65857 ,45.70991 
36 ,8.0477 ,0.97481 ,4.64488 ,45.57560 
37 ,8.2717 ,0.97701 ,4.64146 ,45.54202 
38 ,8.4800 ,0.97914 ,4.61751 ,45.30697 
39 ,8.7039 ,0.98136 ,4.58328 ,44.97119 
40 ,8.9280 ,0.98365 ,4.56617 ,44.80330 
41 ,9.1522 ,0.98585 ,4.54906 ,44.63541 
42 ,9.3604 ,0.98789 ,4.52853 ,44.43394 
43 ,9.5846 ,0.99019 ,4.50115 ,44.16531 
44 ,9.7926 ,0.99238 ,4.48404 ,43.99742 
45 ,10.0004 ,0.99433 ,4.47378 ,43.89668 
46 ,10.2084 ,0.99643 ,4.44640 ,43.62806 
47 ,10.4168 ,0.99850 ,4.44640 ,43.62806 
48 ,10.6250 ,1.00058 ,4.40875 ,43.25870 
49 ,10.8489 ,1.00277 ,4.39507 ,43.12438 
50 ,11.0407 ,1.00484 ,4.39164 ,43.09080 
51 ,11.2494 ,1.00681 ,4.35058 ,42.68786 
52 ,11.4573 ,1.00893 ,4.34716 ,42.65429 
53 ,11.6813 ,1.01112 ,4.31293 ,42.31850 
54 ,11.8895 ,1.01322 ,4.30609 ,42.25135 
55 ,12.0972 ,1.01529 ,4.29240 ,42.11703 
56 ,12.3056 ,1.01739 ,4.25133 ,41.71409 
57 ,12.5138 ,1.01941 ,4.25818 ,41.78125 
58 ,12.7218 ,1.02163 ,4.23422 ,41.54620 
59 ,12.9457 ,1.02373 ,4.19658 ,41.17684 
60 ,13.1541 ,1.02586 ,4.19316 ,41.14326 
61 ,13.3619 ,1.02797 ,4.14525 ,40.67317 
62 ,13.5700 ,1.02997 ,4.15551 ,40.77390 
63 ,13.7622 ,1.03205 ,4.13498 ,40.57243 
64 ,14.0025 ,1.03421 ,4.09391 ,40.16949 
65 ,14.2106 ,1.03638 ,4.09391 ,40.16949 
66 ,14.4345 ,1.03860 ,4.08707 ,40.10233 
67 ,14.6427 ,1.04074 ,4.04258 ,39.66582 
68 ,14.8507 ,1.04276 ,4.04258 ,39.66582 
69 ,15.0589 ,1.04492 ,4.02205 ,39.46435 
70 ,15.2666 ,1.04698 ,3.99467 ,39.19572 
71 ,15.4747 ,1.04905 ,3.99467 ,39.19572 
72 ,15.6832 ,1.05116 ,3.95361 ,38.79278 
73 ,15.9072 ,1.05336 ,3.93650 ,38.62489 
74 ,16.1311 ,1.05563 ,3.92623 ,38.52415 
75 ,16.3554 ,1.05786 ,3.90912 ,38.35626 
76 ,16.5631 ,1.05989 ,3.86463 ,37.91975 
77 ,16.7715 ,1.06208 ,3.86121 ,37.88617 
78 ,16.9953 ,1.06422 ,3.85094 ,37.78543 
79 ,17.2033 ,1.06636 ,3.81330 ,37.41607 
80 ,17.3953 ,1.06837 ,3.80645 ,37.34891 
81 ,17.6037 ,1.07030 ,3.78934 ,37.18102 
82 ,17.8601 ,1.07276 ,3.75512 ,36.84524 
83 ,18.0842 ,1.07522 ,3.73117 ,36.61019 
84 ,18.2922 ,1.07725 ,3.73459 ,36.64377 
85 ,18.5002 ,1.07932 ,3.71748 ,36.47588 
86 ,18.7245 ,1.08148 ,3.68668 ,36.17367 
87 ,18.9484 ,1.08382 ,3.66957 ,36.00578 
88 ,19.1725 ,1.08600 ,3.65588 ,35.87147 
89 ,19.3808 ,1.08815 ,3.63192 ,35.63642 
90 ,19.5886 ,1.09016 ,3.60454 ,35.36779 
91 ,19.7966 ,1.09219 ,3.60454 ,35.36779 
92 ,20.0047 ,1.09433 ,3.56006 ,34.93128 
93 ,20.2130 ,1.09637 ,3.56348 ,34.96485 
94 ,20.4371 ,1.09865 ,3.56006 ,34.93128 
95 ,20.6451 ,1.10086 ,3.51557 ,34.49476 
96 ,20.8530 ,1.10277 ,3.51899 ,34.52834 
97 ,21.0928 ,1.10522 ,3.48819 ,34.22613 
98 ,21.3011 ,1.10728 ,3.46424 ,33.99108 
99 ,21.5090 ,1.10945 ,3.43686 ,33.72246 
100 ,21.7174 ,1.11146 ,3.44028 ,33.75604 
101 ,21.9258 ,1.11349 ,3.39921 ,33.35310 
102 ,22.1494 ,1.11577 ,3.38210 ,33.18520 
103 ,22.3575 ,1.11784 ,3.37868 ,33.15163 
104 ,22.5501 ,1.11978 ,3.35130 ,32.88300 
105 ,22.7580 ,1.12187 ,3.34446 ,32.81584 
106 ,22.9662 ,1.12392 ,3.30682 ,32.44648 
107 ,23.1742 ,1.12602 ,3.31024 ,32.48006 
108 ,23.3983 ,1.12828 ,3.28971 ,32.27859 
109 ,23.6224 ,1.13047 ,3.25548 ,31.94281 
110 ,23.8306 ,1.13256 ,3.24522 ,31.84207 
111 ,24.0548 ,1.13471 ,3.23153 ,31.70776 
112 ,24.2788 ,1.13704 ,3.20757 ,31.47271 
113 ,24.5027 ,1.13934 ,3.17335 ,31.13693 
114 ,24.6948 ,1.14134 ,3.15624 ,30.96904 
115 ,24.9029 ,1.14331 ,3.14597 ,30.86830 
116 ,25.1269 ,1.14551 ,3.12544 ,30.66683 
117 ,25.3347 ,1.14759 ,3.14255 ,30.83472 
118 ,25.5269 ,1.14955 ,3.08438 ,30.26389 
119 ,25.7354 ,1.15160 ,3.09806 ,30.39821 
120 ,25.9594 ,1.15380 ,3.07753 ,30.19674 
121 ,26.1674 ,1.15589 ,3.03989 ,29.82737 
122 ,26.3756 ,1.15798 ,3.03304 ,29.76022 
123 ,26.5993 ,1.16023 ,3.01593 ,29.59233 
124 ,26.8077 ,1.16242 ,2.97829 ,29.22297 
125 ,27.0319 ,1.16462 ,2.96460 ,29.08865 
126 ,27.2400 ,1.16667 ,2.96118 ,29.05507 
127 ,27.4479 ,1.16871 ,2.93380 ,28.78645 
128 ,27.6563 ,1.17084 ,2.92011 ,28.65213 
129 ,27.8803 ,1.17303 ,2.89958 ,28.45066 
130 ,28.1041 ,1.17527 ,2.87562 ,28.21562 
131 ,28.3122 ,1.17736 ,2.85851 ,28.04772 
132 ,28.5206 ,1.17940 ,2.85509 ,28.01415 
133 ,28.7447 ,1.18171 ,2.83798 ,27.84625 
134 ,28.9527 ,1.18377 ,2.82429 ,27.71194 
135 ,29.1609 ,1.18584 ,2.80376 ,27.51047 
136 ,29.3530 ,1.18785 ,2.77296 ,27.20827 
137 ,29.5769 ,1.19001 ,2.76269 ,27.10753 
138 ,29.8012 ,1.19222 ,2.75243 ,27.00680 
139 ,30.0251 ,1.19444 ,2.72847 ,26.77175 
140 ,30.2332 ,1.19655 ,2.71136 ,26.60386 
141 ,30.4413 ,1.19868 ,2.69425 ,26.43597 
142 ,30.6495 ,1.20071 ,2.65660 ,26.06661 
143 ,30.8736 ,1.20296 ,2.64976 ,25.99945 
144 ,31.0652 ,1.20503 ,2.65660 ,26.06661 
145 ,31.2736 ,1.20702 ,2.62238 ,25.73082 
146 ,31.4976 ,1.20922 ,2.61896 ,25.69724 
147 ,31.7220 ,1.21148 ,2.60527 ,25.56293 
148 ,31.9301 ,1.21359 ,2.55394 ,25.05926 
149 ,32.1378 ,1.21563 ,2.55736 ,25.09283 
150 ,32.3622 ,1.21789 ,2.55052 ,25.02568 
151 ,32.5861 ,1.22012 ,2.52656 ,24.79063 
152 ,32.7943 ,1.22218 ,2.49234 ,24.45485 
153 ,33.0345 ,1.22459 ,2.47523 ,24.28696 
154 ,33.2582 ,1.22681 ,2.47865 ,24.32053 
155 ,33.5141 ,1.22933 ,2.44785 ,24.01833 
156 ,33.7222 ,1.23152 ,2.44443 ,23.98475 
157 ,33.9309 ,1.23356 ,2.40679 ,23.61539 
158 ,34.1551 ,1.23579 ,2.38625 ,23.41392 
159 ,34.3631 ,1.23786 ,2.38283 ,23.38034 
160 ,34.5870 ,1.24013 ,2.33834 ,22.94382 
161 ,34.8112 ,1.24227 ,2.32123 ,22.77593 
162 ,35.0352 ,1.24455 ,2.30754 ,22.64162 
163 ,35.2593 ,1.24676 ,2.31439 ,22.70877 
164 ,35.4671 ,1.24885 ,2.28359 ,22.40657 
165 ,35.6917 ,1.25112 ,2.25621 ,22.13794 
166 ,35.9155 ,1.25338 ,2.23910 ,21.97005 
167 ,36.1238 ,1.25547 ,2.23568 ,21.93647 
168 ,36.3315 ,1.25755 ,2.20830 ,21.66785 
169 ,36.5399 ,1.25955 ,2.20830 ,21.66785 
170 ,36.7479 ,1.26173 ,2.18777 ,21.46638 
171 ,36.9558 ,1.26372 ,2.16381 ,21.23133 
172 ,37.1642 ,1.26586 ,2.17408 ,21.33206 
173 ,37.3722 ,1.26793 ,2.12617 ,20.86197 
174 ,37.5804 ,1.27001 ,2.12617 ,20.86197 
175 ,37.8040 ,1.27221 ,2.11248 ,20.72766 
176 ,38.0126 ,1.27436 ,2.08510 ,20.45903 
177 ,38.2366 ,1.27657 ,2.06799 ,20.29114 
178 ,38.4607 ,1.27879 ,2.04404 ,20.05609 
179 ,38.6689 ,1.28086 ,2.04061 ,20.02251 
180 ,38.8765 ,1.28301 ,2.00639 ,19.68673 
181 ,39.1010 ,1.28519 ,2.00982 ,19.72031 
182 ,39.3247 ,1.28747 ,1.99955 ,19.61957 
183 ,39.5331 ,1.28950 ,1.96533 ,19.28379 
184 ,39.7412 ,1.29163 ,1.97217 ,19.35094 
185 ,39.9494 ,1.29364 ,1.95164 ,19.14948 
186 ,40.1733 ,1.29593 ,1.91742 ,18.81369 
187 ,40.3975 ,1.29822 ,1.89346 ,18.57864 
188 ,40.6055 ,1.30034 ,1.89346 ,18.57864 
189 ,40.8137 ,1.30233 ,1.86608 ,18.31002 
190 ,41.0219 ,1.30445 ,1.86266 ,18.27644 
191 ,41.2297 ,1.30652 ,1.83528 ,18.00781 
192 ,41.4380 ,1.30859 ,1.82160 ,17.87350 
193 ,41.6622 ,1.31088 ,1.80106 ,17.67203 
194 ,41.8859 ,1.31310 ,1.80791 ,17.73919 
195 ,42.0942 ,1.31514 ,1.76000 ,17.26909 
196 ,42.3179 ,1.31737 ,1.75315 ,17.20193 
197 ,42.5102 ,1.31939 ,1.75657 ,17.23551 
198 ,42.7185 ,1.32133 ,1.71209 ,16.79899 
199 ,42.9265 ,1.32340 ,1.71551 ,16.83257 
200 ,43.1509 ,1.32571 ,1.69155 ,16.59752 
201 ,43.3584 ,1.32780 ,1.67786 ,16.46321 
202 ,43.5667 ,1.32989 ,1.67786 ,16.46321 
203 ,43.8230 ,1.33245 ,1.64707 ,16.16101 
204 ,44.0470 ,1.33468 ,1.61969 ,15.89238 
205 ,44.2712 ,1.33677 ,1.60258 ,15.72449 
206 ,44.4788 ,1.33898 ,1.59231 ,15.62375 
207 ,44.6869 ,1.34104 ,1.59916 ,15.69091 
208 ,44.8954 ,1.34312 ,1.55467 ,15.25439 
209 ,45.1195 ,1.34525 ,1.54440 ,15.15366 
210 ,45.3276 ,1.34745 ,1.54440 ,15.15366 
211 ,45.5513 ,1.34967 ,1.52387 ,14.95219 
212 ,45.7598 ,1.35182 ,1.49307 ,14.64998 
213 ,45.9837 ,1.35404 ,1.48965 ,14.61640 
214 ,46.2079 ,1.35624 ,1.48280 ,14.54925 
215 ,46.4321 ,1.35838 ,1.44174 ,14.14631 
216 ,46.6558 ,1.36072 ,1.42462 ,13.97842 
217 ,46.8805 ,1.36298 ,1.40751 ,13.81053 
218 ,47.1044 ,1.36521 ,1.40751 ,13.81053 
219 ,47.3124 ,1.36732 ,1.39725 ,13.70979 
220 ,47.5203 ,1.36933 ,1.35960 ,13.34043 
221 ,47.7287 ,1.37144 ,1.38014 ,13.54190 
222 ,47.9527 ,1.37376 ,1.33223 ,13.07180 
223 ,48.1768 ,1.37590 ,1.30827 ,12.83675 
224 ,48.3847 ,1.37802 ,1.31169 ,12.87033 
225 ,48.6090 ,1.38020 ,1.31512 ,12.90391 
226 ,48.8330 ,1.38248 ,1.29116 ,12.66886 
227 ,49.0411 ,1.38462 ,1.26378 ,12.40024 
228 ,49.2493 ,1.38670 ,1.26720 ,12.43381 
229 ,49.4572 ,1.38870 ,1.21929 ,11.96372 
230 ,49.6814 ,1.39097 ,1.21245 ,11.89656 
231 ,49.8895 ,1.39304 ,1.21929 ,11.96372 
232 ,50.1133 ,1.39526 ,1.18507 ,11.62794 
233 ,50.3212 ,1.39732 ,1.15427 ,11.32573 
234 ,50.5296 ,1.39941 ,1.15427 ,11.32573 
235 ,50.7379 ,1.40153 ,1.13032 ,11.09068 
236 ,50.9457 ,1.40364 ,1.13032 ,11.09068 
237 ,51.1695 ,1.40586 ,1.12690 ,11.05710 
238 ,51.3778 ,1.40793 ,1.09267 ,10.72132 
239 ,51.6021 ,1.41017 ,1.06187 ,10.41912 
240 ,51.8102 ,1.41220 ,1.07556 ,10.55343 
241 ,52.0184 ,1.41437 ,1.04819 ,10.28480 
242 ,52.2421 ,1.41658 ,1.02423 ,10.04976 
243 ,52.4664 ,1.41878 ,1.02423 ,10.04976 
244 ,52.6906 ,1.42103 ,1.01396 ,9.94902 
245 ,52.8987 ,1.42310 ,0.97290 ,9.54608 
246 ,53.1229 ,1.42537 ,0.96605 ,9.47892 
247 ,53.3304 ,1.42746 ,0.97290 ,9.54608 
248 ,53.5386 ,1.42961 ,0.94210 ,9.24388 
249 ,53.7473 ,1.43166 ,0.93183 ,9.14314 
250 ,53.9712 ,1.43390 ,0.94210 ,9.24388 
251 ,54.1953 ,1.43609 ,0.89761 ,8.80736 
252 ,54.4034 ,1.43817 ,0.88050 ,8.63947 
253 ,54.6114 ,1.44028 ,0.88392 ,8.67305 
254 ,54.8195 ,1.44237 ,0.86681 ,8.50515 
255 ,55.0275 ,1.44444 ,0.84970 ,8.33726 
256 ,55.2357 ,1.44646 ,0.82575 ,8.10221 
257 ,55.4438 ,1.44858 ,0.79837 ,7.83359 
258 ,55.6519 ,1.45063 ,0.81548 ,8.00148 
259 ,55.8601 ,1.45269 ,0.78468 ,7.69927 
260 ,56.0841 ,1.45496 ,0.75046 ,7.36349 
261 ,56.2922 ,1.45707 ,0.78126 ,7.66570 
262 ,56.5162 ,1.45929 ,0.74361 ,7.29633 
263 ,56.7239 ,1.46137 ,0.71966 ,7.06129 
264 ,56.9324 ,1.46344 ,0.73335 ,7.19560 
265 ,57.1406 ,1.46554 ,0.69570 ,6.82624 
266 ,57.3484 ,1.46761 ,0.68201 ,6.69193 
267 ,57.5567 ,1.46971 ,0.68201 ,6.69193 
268 ,57.7805 ,1.47193 ,0.64779 ,6.35614 
269 ,57.9887 ,1.47404 ,0.64437 ,6.32256 
270 ,58.2130 ,1.47627 ,0.63068 ,6.18825 
271 ,58.4208 ,1.47830 ,0.59988 ,5.88605 
272 ,58.6608 ,1.48067 ,0.58619 ,5.75173 
273 ,58.8848 ,1.48299 ,0.56908 ,5.58384 
274 ,59.1089 ,1.48528 ,0.56224 ,5.51668 
275 ,59.3329 ,1.48745 ,0.55882 ,5.48311 
276 ,59.5733 ,1.48978 ,0.56566 ,5.55026 
277 ,59.7977 ,1.49214 ,0.53828 ,5.28164 
278 ,60.0214 ,1.49432 ,0.50406 ,4.94585 
279 ,60.2455 ,1.49650 ,0.48011 ,4.71081 
280 ,60.4380 ,1.49857 ,0.49380 ,4.84512 
281 ,60.6617 ,1.50071 ,0.46300 ,4.54291 
282 ,60.8862 ,1.50299 ,0.44931 ,4.40860 
283 ,61.0938 ,1.50507 ,0.44931 ,4.40860 
284 ,61.3022 ,1.50720 ,0.40824 ,4.00566 
285 ,61.5265 ,1.50936 ,0.40140 ,3.93850 
286 ,61.7506 ,1.51157 ,0.39455 ,3.87135 
287 ,61.9745 ,1.51382 ,0.38771 ,3.80419 
288 ,62.1824 ,1.51592 ,0.37060 ,3.63630 
289 ,62.4068 ,1.51825 ,0.33980 ,3.33410 
290 ,62.6149 ,1.52025 ,0.34664 ,3.40125 
291 ,62.8389 ,1.52243 ,0.33638 ,3.30052 
292 ,63.0470 ,1.52459 ,0.29531 ,2.89758 
293 ,63.2711 ,1.52679 ,0.29531 ,2.89758 
294 ,63.4951 ,1.52908 ,0.28847 ,2.83042 
295 ,63.7032 ,1.53124 ,0.28162 ,2.76326 
296 ,63.9114 ,1.53323 ,0.25082 ,2.46106 
297 ,64.1193 ,1.53529 ,0.25424 ,2.49464 
298 ,64.3436 ,1.53755 ,0.23371 ,2.29317 
299 ,64.5674 ,1.53976 ,0.20291 ,1.99096 
300 ,64.7598 ,1.54176 ,0.21318 ,2.09170 
301 ,64.9835 ,1.54395 ,0.19949 ,1.95738 
302 ,65.1759 ,1.54602 ,0.17211 ,1.68876 
303 ,65.3840 ,1.54794 ,0.17553 ,1.72234 
304 ,65.6077 ,1.55015 ,0.15500 ,1.52087 
305 ,65.8161 ,1.55224 ,0.14816 ,1.45371 
306 ,66.0402 ,1.55445 ,0.14473 ,1.42013 
307 ,66.2640 ,1.55670 ,0.11393 ,1.11793 
308 ,66.4726 ,1.55881 ,0.09340 ,0.91646 
309 ,66.7281 ,1.56135 ,0.06945 ,0.68141 
310 ,66.9368 ,1.56345 ,0.07287 ,0.71499 
311 ,67.1607 ,1.56568 ,0.06260 ,0.61425 
312 ,67.3688 ,1.56778 ,0.03180 ,0.31205 
313 ,67.5768 ,1.56985 ,0.04891 ,0.47994 
314 ,67.7847 ,1.57193 ,0.02838 ,0.27847 
315 ,67.9929 ,1.57406 ,0.00785 ,0.07700 
316 ,68.2173 ,1.57627 ,-0.00584 ,-0.05731 
317 ,68.4413 ,1.57847 ,-0.00926 ,-0.09089 
318 ,68.6654 ,1.58070 ,-0.02980 ,-0.29236 
319 ,68.8735 ,1.58280 ,-0.04691 ,-0.46025 
320 ,69.0815 ,1.58490 ,-0.05375 ,-0.52741 
321 ,69.2736 ,1.58699 ,-0.08455 ,-0.82961 
322 ,69.4818 ,1.58893 ,-0.07428 ,-0.72888 
323 ,69.7057 ,1.59116 ,-0.10508 ,-1.03108 
324 ,69.9138 ,1.59323 ,-0.13246 ,-1.29971 
325 ,70.1379 ,1.59544 ,-0.12219 ,-1.19898 
326 ,70.3457 ,1.59751 ,-0.12904 ,-1.26613 
327 ,70.5542 ,1.59959 ,-0.15984 ,-1.56834 
328 ,70.7624 ,1.60169 ,-0.15299 ,-1.50118 
329 ,70.9863 ,1.60395 ,-0.16668 ,-1.63549 
330 ,71.1940 ,1.60601 ,-0.19406 ,-1.90412 
331 ,71.4025 ,1.60811 ,-0.17011 ,-1.66907 
332 ,71.6106 ,1.61012 ,-0.23513 ,-2.30706 
333 ,71.8188 ,1.61223 ,-0.20433 ,-2.00485 
334 ,72.0268 ,1.61435 ,-0.22486 ,-2.20632 
335 ,72.2347 ,1.61643 ,-0.26593 ,-2.60926 
336 ,72.4590 ,1.61870 ,-0.24881 ,-2.44137 
337 ,72.6668 ,1.62076 ,-0.26250 ,-2.57569 
338 ,72.8910 ,1.62299 ,-0.29330 ,-2.87789 
339 ,73.0833 ,1.62500 ,-0.29673 ,-2.91147 
340 ,73.2914 ,1.62703 ,-0.31041 ,-3.04578 
341 ,73.4995 ,1.62911 ,-0.32410 ,-3.18010 
342 ,73.7072 ,1.63111 ,-0.33095 ,-3.24725 
343 ,73.9156 ,1.63321 ,-0.35490 ,-3.48230 
344 ,74.1397 ,1.63541 ,-0.35148 ,-3.44872 
345 ,74.3639 ,1.63771 ,-0.35832 ,-3.51588 
346 ,74.5716 ,1.63994 ,-0.38570 ,-3.78450 
347 ,74.7801 ,1.64181 ,-0.38228 ,-3.75093 
348 ,75.0041 ,1.64406 ,-0.39939 ,-3.91882 
349 ,75.2122 ,1.64613 ,-0.41992 ,-4.12029 
350 ,75.4362 ,1.64838 ,-0.44388 ,-4.35534 
351 ,75.6439 ,1.65049 ,-0.44046 ,-4.32176 
352 ,75.8525 ,1.65259 ,-0.46099 ,-4.52323 
353 ,76.0763 ,1.65481 ,-0.47126 ,-4.62396 
354 ,76.2847 ,1.65692 ,-0.46441 ,-4.55681 
355 ,76.5086 ,1.65912 ,-0.48152 ,-4.72470 
356 ,76.7325 ,1.66134 ,-0.51232 ,-5.02690 
357 ,76.9566 ,1.66365 ,-0.52943 ,-5.19479 
358 ,77.1806 ,1.66590 ,-0.52259 ,-5.12764 
359 ,77.3887 ,1.66791 ,-0.53970 ,-5.29553 
360 ,77.5968 ,1.66997 ,-0.56708 ,-5.56415 
361 ,77.8049 ,1.67209 ,-0.55339 ,-5.42984 
362 ,78.0613 ,1.67467 ,-0.57392 ,-5.63131 
363 ,78.2856 ,1.67689 ,-0.58419 ,-5.73205 
364 ,78.5093 ,1.67915 ,-0.59788 ,-5.86636 
365 ,78.7332 ,1.68135 ,-0.62183 ,-6.10141 
366 ,78.9417 ,1.68343 ,-0.62868 ,-6.16856 
367 ,79.1498 ,1.68556 ,-0.63894 ,-6.26930 
368 ,79.3739 ,1.68778 ,-0.64921 ,-6.37003 
369 ,79.5815 ,1.68990 ,-0.67659 ,-6.63866 
370 ,79.7901 ,1.69200 ,-0.67316 ,-6.60508 
371 ,80.0142 ,1.69419 ,-0.67659 ,-6.63866 
372 ,80.2222 ,1.69630 ,-0.68685 ,-6.73940 
373 ,80.4299 ,1.69832 ,-0.69712 ,-6.84013 
374 ,80.6380 ,1.70041 ,-0.73134 ,-7.17591 
375 ,80.8463 ,1.70253 ,-0.72107 ,-7.07518 
376 ,81.0545 ,1.70458 ,-0.75530 ,-7.41096 
377 ,81.2622 ,1.70662 ,-0.74503 ,-7.31023 
378 ,81.4706 ,1.70871 ,-0.75187 ,-7.37738 
379 ,81.6788 ,1.71079 ,-0.76898 ,-7.54527 
380 ,81.8867 ,1.71295 ,-0.76556 ,-7.51170 
381 ,82.1110 ,1.71514 ,-0.78952 ,-7.74674 
382 ,82.3347 ,1.71734 ,-0.80663 ,-7.91464 
383 ,82.5593 ,1.71967 ,-0.84085 ,-8.25042 
384 ,82.7833 ,1.72185 ,-0.82716 ,-8.11611 
385 ,82.9913 ,1.72400 ,-0.83058 ,-8.14968 
386 ,83.2155 ,1.72620 ,-0.85454 ,-8.38473 
387 ,83.4233 ,1.72831 ,-0.86823 ,-8.51904 
388 ,83.6315 ,1.73047 ,-0.86823 ,-8.51904 
389 ,83.8397 ,1.73242 ,-0.90245 ,-8.85483 
390 ,84.0638 ,1.73468 ,-0.90587 ,-8.88841 
391 ,84.2717 ,1.73677 ,-0.89560 ,-8.78767 
392 ,84.4799 ,1.73878 ,-0.92640 ,-9.08988 
393 ,84.6880 ,1.74093 ,-0.91614 ,-8.98914 
394 ,84.9119 ,1.74309 ,-0.92298 ,-9.05630 
395 ,85.1202 ,1.74534 ,-0.94351 ,-9.25777 
396 ,85.3283 ,1.74732 ,-0.95720 ,-9.39208 
397 ,85.5527 ,1.74955 ,-0.96747 ,-9.49282 
398 ,85.7604 ,1.75163 ,-0.98800 ,-9.69429 
399 ,85.9686 ,1.75364 ,-0.97431 ,-9.55997 
400 ,86.1767 ,1.75576 ,-1.00169 ,-9.82860 
401 ,86.3848 ,1.75787 ,-1.02565 ,-10.06365 
402 ,86.5926 ,1.75996 ,-1.01538 ,-9.96291 
403 ,86.7845 ,1.76200 ,-1.04618 ,-10.26512 
404 ,87.0090 ,1.76407 ,-1.03934 ,-10.19796 
405 ,87.2169 ,1.76619 ,-1.06329 ,-10.43301 
406 ,87.4253 ,1.76826 ,-1.07356 ,-10.53374 
407 ,87.6332 ,1.77036 ,-1.07014 ,-10.50016 
408 ,87.8572 ,1.77253 ,-1.09409 ,-10.73521 
409 ,88.0651 ,1.77471 ,-1.10093 ,-10.80237 
410 ,88.2735 ,1.77675 ,-1.10093 ,-10.80237 
411 ,88.4813 ,1.77877 ,-1.13516 ,-11.13815 
412 ,88.6897 ,1.78090 ,-1.12831 ,-11.07100 
413 ,88.9298 ,1.78335 ,-1.12489 ,-11.03742 
414 ,89.1538 ,1.78549 ,-1.14200 ,-11.20531 
415 ,89.3619 ,1.78763 ,-1.17622 ,-11.54109 
416 ,89.5700 ,1.78965 ,-1.14884 ,-11.27247 
417 ,89.7941 ,1.79188 ,-1.18649 ,-11.64183 
418 ,90.0183 ,1.79416 ,-1.20018 ,-11.77614 
419 ,90.2422 ,1.79642 ,-1.21729 ,-11.94403 
420 ,90.4505 ,1.79846 ,-1.20018 ,-11.77614 
421 ,90.6743 ,1.80077 ,-1.21044 ,-11.87688 
422 ,90.8826 ,1.80288 ,-1.24124 ,-12.17908 
423 ,91.0907 ,1.80491 ,-1.23098 ,-12.07834 
424 ,91.3147 ,1.80708 ,-1.23440 ,-12.11192 
425 ,91.5228 ,1.80919 ,-1.27204 ,-12.48128 
426 ,91.7310 ,1.81126 ,-1.27204 ,-12.48128 
427 ,91.9391 ,1.81342 ,-1.29258 ,-12.68275 
428 ,92.1632 ,1.81562 ,-1.31653 ,-12.91780 
429 ,92.3708 ,1.81770 ,-1.29600 ,-12.71633 
430 ,92.5794 ,1.81980 ,-1.32680 ,-13.01854 
431 ,92.7871 ,1.82184 ,-1.33022 ,-13.05212 
432 ,92.9955 ,1.82394 ,-1.31311 ,-12.88422 
433 ,93.2037 ,1.82604 ,-1.35760 ,-13.32074 
434 ,93.4273 ,1.82824 ,-1.36102 ,-13.35432 
435 ,93.6518 ,1.83043 ,-1.36102 ,-13.35432 
436 ,93.8753 ,1.83269 ,-1.37129 ,-13.45506 
437 ,94.0994 ,1.83498 ,-1.39182 ,-13.65653 
438 ,94.3076 ,1.83709 ,-1.41235 ,-13.85799 
439 ,94.5637 ,1.83960 ,-1.42946 ,-14.02589 
440 ,94.7722 ,1.84172 ,-1.40551 ,-13.79084 
441 ,94.9961 ,1.84391 ,-1.42946 ,-14.02589 
442 ,95.2044 ,1.84601 ,-1.45000 ,-14.22736 
443 ,95.4124 ,1.84811 ,-1.43973 ,-14.12662 
444 ,95.6361 ,1.85028 ,-1.45000 ,-14.22736 
445 ,95.8607 ,1.85258 ,-1.47053 ,-14.42883 
446 ,96.0849 ,1.85481 ,-1.47737 ,-14.49598 
447 ,96.2927 ,1.85690 ,-1.48764 ,-14.59672 
448 ,96.5169 ,1.85913 ,-1.49448 ,-14.66387 
449 ,96.7251 ,1.86118 ,-1.52871 ,-14.99966 
450 ,96.9491 ,1.86354 ,-1.50475 ,-14.76461 
451 ,97.1733 ,1.86570 ,-1.50817 ,-14.79819 
452 ,97.3813 ,1.86781 ,-1.53213 ,-15.03324 
453 ,97.5894 ,1.86991 ,-1.54582 ,-15.16755 
454 ,97.7976 ,1.87191 ,-1.54924 ,-15.20113 
455 ,98.0055 ,1.87404 ,-1.57662 ,-15.46975 
456 ,98.1813 ,1.87595 ,-1.56293 ,-15.33544 
457 ,98.4057 ,1.87800 ,-1.59373 ,-15.63764 
458 ,98.6136 ,1.88010 ,-1.57662 ,-15.46975 
459 ,98.8217 ,1.88221 ,-1.60057 ,-15.70480 
460 ,99.0136 ,1.88411 ,-1.59373 ,-15.63764 
