Data stamp = , 19-05-2022 03:49:59 929

Calibration Values: 
Slope = , 26.54 , g/V 
Offset Voltage at no contact = , -0.501760 , V 

No , Time , Stage Position ,   Mass , Force 
   ,  (s) ,      (mm)      ,   (g)  , (mN)  

1 ,0.0000 ,0.89960 ,5.32932 ,52.29126 
2 ,0.2048 ,0.89969 ,5.29852 ,51.98905 
3 ,0.8448 ,0.90239 ,5.29510 ,51.95548 
4 ,1.0691 ,0.90503 ,5.31563 ,52.15694 
5 ,1.3094 ,0.90727 ,5.32247 ,52.22410 
6 ,1.5176 ,0.90947 ,5.31221 ,52.12337 
7 ,1.7414 ,0.91180 ,5.26772 ,51.68685 
8 ,1.9496 ,0.91390 ,5.25403 ,51.55254 
9 ,2.1414 ,0.91591 ,5.24376 ,51.45180 
10 ,2.3498 ,0.91781 ,5.21296 ,51.14960 
11 ,2.5580 ,0.91991 ,5.20270 ,51.04886 
12 ,2.7659 ,0.92202 ,5.16505 ,50.67950 
13 ,3.0221 ,0.92441 ,5.15821 ,50.61234 
14 ,3.2302 ,0.92666 ,5.13425 ,50.37729 
15 ,3.4539 ,0.92880 ,5.10688 ,50.10867 
16 ,3.6620 ,0.93098 ,5.06923 ,49.73931 
17 ,3.8700 ,0.93304 ,5.06581 ,49.70573 
18 ,4.0783 ,0.93515 ,5.04870 ,49.53784 
19 ,4.2862 ,0.93733 ,5.00763 ,49.13490 
20 ,4.4947 ,0.93929 ,5.00763 ,49.13490 
21 ,4.7189 ,0.94151 ,4.97341 ,48.79911 
22 ,4.9264 ,0.94359 ,4.94946 ,48.56407 
23 ,5.1350 ,0.94568 ,4.94946 ,48.56407 
24 ,5.3427 ,0.94772 ,4.90497 ,48.12755 
25 ,5.5672 ,0.94996 ,4.87759 ,47.85892 
26 ,5.7911 ,0.95231 ,4.87417 ,47.82534 
27 ,5.9993 ,0.95438 ,4.85706 ,47.65745 
28 ,6.2395 ,0.95667 ,4.81941 ,47.28809 
29 ,6.4632 ,0.95897 ,4.79204 ,47.01946 
30 ,6.6877 ,0.96116 ,4.79546 ,47.05304 
31 ,6.9118 ,0.96344 ,4.77150 ,46.81800 
32 ,7.1199 ,0.96556 ,4.74413 ,46.54937 
33 ,7.3439 ,0.96780 ,4.71675 ,46.28074 
34 ,7.5518 ,0.96984 ,4.70990 ,46.21359 
35 ,7.7761 ,0.97204 ,4.68595 ,45.97854 
36 ,8.0002 ,0.97433 ,4.66884 ,45.81065 
37 ,8.2083 ,0.97642 ,4.63462 ,45.47486 
38 ,8.4162 ,0.97847 ,4.64488 ,45.57560 
39 ,8.6405 ,0.98069 ,4.60724 ,45.20624 
40 ,8.8485 ,0.98290 ,4.57644 ,44.90403 
41 ,9.0725 ,0.98509 ,4.54564 ,44.60183 
42 ,9.2806 ,0.98712 ,4.53880 ,44.53467 
43 ,9.5049 ,0.98937 ,4.50457 ,44.19889 
44 ,9.7129 ,0.99147 ,4.50800 ,44.23247 
45 ,9.9209 ,0.99354 ,4.47720 ,43.93026 
46 ,10.1293 ,0.99557 ,4.45324 ,43.69521 
47 ,10.3371 ,0.99767 ,4.44640 ,43.62806 
48 ,10.5613 ,1.00000 ,4.41902 ,43.35943 
49 ,10.7694 ,1.00204 ,4.39507 ,43.12438 
50 ,10.9929 ,1.00423 ,4.39164 ,43.09080 
51 ,11.1853 ,1.00619 ,4.35400 ,42.72144 
52 ,11.3935 ,1.00819 ,4.34373 ,42.62071 
53 ,11.6016 ,1.01036 ,4.31636 ,42.35208 
54 ,11.7934 ,1.01226 ,4.31978 ,42.38566 
55 ,11.9854 ,1.01420 ,4.28213 ,42.01630 
56 ,12.1935 ,1.01631 ,4.27871 ,41.98272 
57 ,12.4014 ,1.01834 ,4.24791 ,41.68051 
58 ,12.6417 ,1.02061 ,4.22396 ,41.44547 
59 ,12.8497 ,1.02290 ,4.20342 ,41.24400 
60 ,13.0742 ,1.02508 ,4.20000 ,41.21042 
61 ,13.3304 ,1.02749 ,4.17605 ,40.97537 
62 ,13.5543 ,1.02984 ,4.15894 ,40.80748 
63 ,13.7303 ,1.03179 ,4.11445 ,40.37096 
64 ,13.9386 ,1.03367 ,4.11787 ,40.40454 
65 ,14.1788 ,1.03606 ,4.07680 ,40.00160 
66 ,14.3708 ,1.03806 ,4.06996 ,39.93444 
67 ,14.5467 ,1.03992 ,4.03916 ,39.63224 
68 ,14.7549 ,1.04188 ,4.04943 ,39.73297 
69 ,14.9792 ,1.04409 ,4.02205 ,39.46435 
70 ,15.2032 ,1.04629 ,3.98441 ,39.09499 
71 ,15.4109 ,1.04839 ,3.98783 ,39.12856 
72 ,15.6192 ,1.05049 ,3.97072 ,38.96067 
73 ,15.8115 ,1.05254 ,3.91938 ,38.45700 
74 ,16.0195 ,1.05450 ,3.92965 ,38.55773 
75 ,16.2436 ,1.05670 ,3.89885 ,38.25553 
76 ,16.4516 ,1.05878 ,3.88516 ,38.12122 
77 ,16.6755 ,1.06103 ,3.87147 ,37.98690 
78 ,16.8839 ,1.06314 ,3.83383 ,37.61754 
79 ,17.0759 ,1.06521 ,3.81672 ,37.44965 
80 ,17.3001 ,1.06722 ,3.80645 ,37.34891 
81 ,17.5244 ,1.06954 ,3.77223 ,37.01313 
82 ,17.7322 ,1.07161 ,3.76539 ,36.94597 
83 ,17.9245 ,1.07365 ,3.74485 ,36.74450 
84 ,18.1482 ,1.07575 ,3.72090 ,36.50946 
85 ,18.3563 ,1.07785 ,3.71748 ,36.47588 
86 ,18.5806 ,1.08011 ,3.69352 ,36.24083 
87 ,18.7886 ,1.08216 ,3.65588 ,35.87147 
88 ,18.9968 ,1.08420 ,3.67299 ,36.03936 
89 ,19.2046 ,1.08645 ,3.62850 ,35.60284 
90 ,19.3970 ,1.08830 ,3.63192 ,35.63642 
91 ,19.6049 ,1.09031 ,3.59086 ,35.23348 
92 ,19.8128 ,1.09238 ,3.59086 ,35.23348 
93 ,20.0372 ,1.09468 ,3.57032 ,35.03201 
94 ,20.2612 ,1.09687 ,3.54295 ,34.76338 
95 ,20.4692 ,1.09894 ,3.52584 ,34.59549 
96 ,20.6935 ,1.10124 ,3.49504 ,34.29329 
97 ,20.9175 ,1.10349 ,3.49161 ,34.25971 
98 ,21.1418 ,1.10566 ,3.45397 ,33.89035 
99 ,21.3658 ,1.10799 ,3.41975 ,33.55457 
100 ,21.5899 ,1.11021 ,3.41633 ,33.52099 
101 ,21.7980 ,1.11229 ,3.40948 ,33.45383 
102 ,22.0059 ,1.11435 ,3.36842 ,33.05089 
103 ,22.2141 ,1.11646 ,3.37868 ,33.15163 
104 ,22.4383 ,1.11862 ,3.34788 ,32.84942 
105 ,22.6464 ,1.12074 ,3.31708 ,32.54722 
106 ,22.8705 ,1.12300 ,3.29655 ,32.34575 
107 ,23.0784 ,1.12503 ,3.29655 ,32.34575 
108 ,23.2866 ,1.12710 ,3.26233 ,32.00996 
109 ,23.4786 ,1.12924 ,3.25891 ,31.97639 
110 ,23.6868 ,1.13115 ,3.24180 ,31.80849 
111 ,23.8789 ,1.13318 ,3.24180 ,31.80849 
112 ,24.0871 ,1.13509 ,3.17677 ,31.17051 
113 ,24.3107 ,1.13735 ,3.18362 ,31.23766 
114 ,24.5192 ,1.13953 ,3.16993 ,31.10335 
115 ,24.7271 ,1.14157 ,3.11860 ,30.59968 
116 ,24.9514 ,1.14364 ,3.13913 ,30.80115 
117 ,25.1754 ,1.14599 ,3.12202 ,30.63325 
118 ,25.3835 ,1.14818 ,3.09464 ,30.36463 
119 ,25.6074 ,1.15024 ,3.07753 ,30.19674 
120 ,25.8320 ,1.15243 ,3.06726 ,30.09600 
121 ,26.0557 ,1.15481 ,3.05358 ,29.96169 
122 ,26.2638 ,1.15696 ,3.00909 ,29.52517 
123 ,26.4557 ,1.15886 ,3.00909 ,29.52517 
124 ,26.6800 ,1.16109 ,2.98513 ,29.29012 
125 ,26.9043 ,1.16329 ,2.95433 ,28.98792 
126 ,27.1122 ,1.16536 ,2.93380 ,28.78645 
127 ,27.3204 ,1.16746 ,2.91669 ,28.61856 
128 ,27.5285 ,1.16953 ,2.89616 ,28.41709 
129 ,27.7524 ,1.17176 ,2.88247 ,28.28277 
130 ,27.9764 ,1.17399 ,2.87905 ,28.24919 
131 ,28.1686 ,1.17599 ,2.83798 ,27.84625 
132 ,28.3926 ,1.17814 ,2.83456 ,27.81268 
133 ,28.6009 ,1.18026 ,2.82087 ,27.67836 
134 ,28.8244 ,1.18247 ,2.78322 ,27.30900 
135 ,29.0170 ,1.18448 ,2.77638 ,27.24185 
136 ,29.2411 ,1.18665 ,2.76611 ,27.14111 
137 ,29.4492 ,1.18870 ,2.73531 ,26.83891 
138 ,29.6572 ,1.19078 ,2.72505 ,26.73817 
139 ,29.8809 ,1.19305 ,2.69767 ,26.46954 
140 ,30.0894 ,1.19517 ,2.68398 ,26.33523 
141 ,30.3293 ,1.19740 ,2.67372 ,26.23450 
142 ,30.5376 ,1.19960 ,2.66345 ,26.13376 
143 ,30.7617 ,1.20184 ,2.62238 ,25.73082 
144 ,30.9696 ,1.20390 ,2.61212 ,25.63009 
145 ,31.2098 ,1.20626 ,2.60527 ,25.56293 
146 ,31.4339 ,1.20852 ,2.58474 ,25.36146 
147 ,31.6260 ,1.21053 ,2.55394 ,25.05926 
148 ,31.8499 ,1.21273 ,2.52998 ,24.82421 
149 ,32.0582 ,1.21490 ,2.53341 ,24.85779 
150 ,32.2501 ,1.21687 ,2.49576 ,24.48842 
151 ,32.4584 ,1.21876 ,2.50603 ,24.58916 
152 ,32.6665 ,1.22092 ,2.46154 ,24.15264 
153 ,32.8742 ,1.22299 ,2.45470 ,24.08549 
154 ,33.0823 ,1.22506 ,2.43759 ,23.91759 
155 ,33.2902 ,1.22713 ,2.41021 ,23.64897 
156 ,33.4988 ,1.22919 ,2.41705 ,23.71612 
157 ,33.7228 ,1.23145 ,2.36914 ,23.24603 
158 ,33.9150 ,1.23338 ,2.37256 ,23.27961 
159 ,34.1230 ,1.23553 ,2.37256 ,23.27961 
160 ,34.3308 ,1.23752 ,2.32123 ,22.77593 
161 ,34.5392 ,1.23965 ,2.32808 ,22.84309 
162 ,34.7473 ,1.24174 ,2.28017 ,22.37299 
163 ,34.9712 ,1.24392 ,2.28701 ,22.44015 
164 ,35.1635 ,1.24589 ,2.26306 ,22.20510 
165 ,35.3716 ,1.24797 ,2.25621 ,22.13794 
166 ,35.5795 ,1.25000 ,2.25621 ,22.13794 
167 ,35.7877 ,1.25210 ,2.21515 ,21.73500 
168 ,36.0119 ,1.25433 ,2.20146 ,21.60069 
169 ,36.2200 ,1.25644 ,2.19803 ,21.56711 
170 ,36.4600 ,1.25869 ,2.15697 ,21.16417 
171 ,36.6680 ,1.26087 ,2.15012 ,21.09702 
172 ,36.8601 ,1.26283 ,2.14670 ,21.06344 
173 ,37.0682 ,1.26488 ,2.11590 ,20.76123 
174 ,37.2762 ,1.26698 ,2.11590 ,20.76123 
175 ,37.5004 ,1.26917 ,2.09195 ,20.52619 
176 ,37.6921 ,1.27124 ,2.06457 ,20.25756 
177 ,37.9006 ,1.27322 ,2.07826 ,20.39187 
178 ,38.1245 ,1.27546 ,2.02693 ,19.88820 
179 ,38.3327 ,1.27753 ,2.02350 ,19.85462 
180 ,38.5409 ,1.27960 ,2.00982 ,19.72031 
181 ,38.7649 ,1.28188 ,1.98586 ,19.48526 
182 ,38.9729 ,1.28395 ,1.98586 ,19.48526 
183 ,39.1967 ,1.28621 ,1.97559 ,19.38452 
184 ,39.3891 ,1.28819 ,1.93795 ,19.01516 
185 ,39.5650 ,1.29001 ,1.94479 ,19.08232 
186 ,39.7733 ,1.29202 ,1.90373 ,18.67938 
187 ,39.9490 ,1.29381 ,1.90715 ,18.71296 
188 ,40.1574 ,1.29580 ,1.89346 ,18.57864 
189 ,40.3653 ,1.29790 ,1.86608 ,18.31002 
190 ,40.5736 ,1.29995 ,1.86608 ,18.31002 
191 ,40.7977 ,1.30215 ,1.84555 ,18.10855 
192 ,41.0214 ,1.30445 ,1.82160 ,17.87350 
193 ,41.2302 ,1.30655 ,1.79764 ,17.63845 
194 ,41.4539 ,1.30871 ,1.79080 ,17.57129 
195 ,41.6461 ,1.31072 ,1.77711 ,17.43698 
196 ,41.8701 ,1.31289 ,1.75657 ,17.23551 
197 ,42.0781 ,1.31492 ,1.76342 ,17.30267 
198 ,42.3022 ,1.31724 ,1.71551 ,16.83257 
199 ,42.5266 ,1.31948 ,1.69498 ,16.63110 
200 ,42.7345 ,1.32151 ,1.69155 ,16.59752 
201 ,42.9427 ,1.32359 ,1.67786 ,16.46321 
202 ,43.1508 ,1.32568 ,1.65049 ,16.19458 
203 ,43.3587 ,1.32783 ,1.65049 ,16.19458 
204 ,43.5670 ,1.32989 ,1.60942 ,15.79164 
205 ,43.7749 ,1.33191 ,1.62311 ,15.92596 
206 ,43.9830 ,1.33400 ,1.60258 ,15.72449 
207 ,44.1587 ,1.33594 ,1.59231 ,15.62375 
208 ,44.3508 ,1.33773 ,1.56836 ,15.38871 
209 ,44.5753 ,1.33989 ,1.57520 ,15.45586 
210 ,44.7992 ,1.34216 ,1.53756 ,15.08650 
211 ,45.0072 ,1.34427 ,1.51018 ,14.81787 
212 ,45.2154 ,1.34630 ,1.51018 ,14.81787 
213 ,45.4237 ,1.34841 ,1.48622 ,14.58283 
214 ,45.6317 ,1.35053 ,1.48280 ,14.54925 
215 ,45.8559 ,1.35270 ,1.46569 ,14.38136 
216 ,46.0638 ,1.35490 ,1.45200 ,14.24704 
217 ,46.2718 ,1.35688 ,1.42462 ,13.97842 
218 ,46.4641 ,1.35900 ,1.41436 ,13.87768 
219 ,46.6720 ,1.36085 ,1.39040 ,13.64263 
220 ,46.8801 ,1.36292 ,1.39040 ,13.64263 
221 ,47.0884 ,1.36506 ,1.38356 ,13.57548 
222 ,47.3122 ,1.36732 ,1.35618 ,13.30685 
223 ,47.5206 ,1.36936 ,1.35618 ,13.30685 
224 ,47.7441 ,1.37159 ,1.30827 ,12.83675 
225 ,47.9367 ,1.37356 ,1.31169 ,12.87033 
226 ,48.1446 ,1.37561 ,1.28089 ,12.56813 
227 ,48.3368 ,1.37755 ,1.28432 ,12.60171 
228 ,48.5447 ,1.37959 ,1.26720 ,12.43381 
229 ,48.7686 ,1.38188 ,1.24325 ,12.19877 
230 ,48.9771 ,1.38401 ,1.23298 ,12.09803 
231 ,49.2012 ,1.38618 ,1.22614 ,12.03088 
232 ,49.4092 ,1.38821 ,1.18850 ,11.66151 
233 ,49.6171 ,1.39038 ,1.19534 ,11.72867 
234 ,49.8414 ,1.39249 ,1.16112 ,11.39289 
235 ,50.0814 ,1.39491 ,1.14058 ,11.19142 
236 ,50.3053 ,1.39718 ,1.13032 ,11.09068 
237 ,50.5137 ,1.39931 ,1.12690 ,11.05710 
238 ,50.7216 ,1.40138 ,1.10979 ,10.88921 
239 ,50.9299 ,1.40345 ,1.08241 ,10.62059 
240 ,51.1537 ,1.40567 ,1.08925 ,10.68774 
241 ,51.3459 ,1.40768 ,1.04819 ,10.28480 
242 ,51.5537 ,1.40966 ,1.06187 ,10.41912 
243 ,51.7622 ,1.41173 ,1.04819 ,10.28480 
244 ,51.9701 ,1.41384 ,1.01054 ,9.91544 
245 ,52.1940 ,1.41609 ,1.01054 ,9.91544 
246 ,52.4024 ,1.41817 ,0.97974 ,9.61324 
247 ,52.5945 ,1.42018 ,0.96605 ,9.47892 
248 ,52.8025 ,1.42214 ,0.98659 ,9.68039 
249 ,52.9946 ,1.42413 ,0.94894 ,9.31103 
250 ,53.2028 ,1.42623 ,0.94210 ,9.24388 
251 ,53.4270 ,1.42846 ,0.91130 ,8.94167 
252 ,53.6510 ,1.43068 ,0.89761 ,8.80736 
253 ,53.8747 ,1.43288 ,0.89761 ,8.80736 
254 ,54.0511 ,1.43482 ,0.86339 ,8.47158 
255 ,54.2591 ,1.43670 ,0.86681 ,8.50515 
256 ,54.4673 ,1.43887 ,0.84286 ,8.27011 
257 ,54.6432 ,1.44075 ,0.84628 ,8.30368 
258 ,54.8514 ,1.44262 ,0.82232 ,8.06864 
259 ,55.0436 ,1.44460 ,0.81890 ,8.03506 
260 ,55.2676 ,1.44684 ,0.79152 ,7.76643 
261 ,55.4753 ,1.44891 ,0.78810 ,7.73285 
262 ,55.6999 ,1.45111 ,0.78126 ,7.66570 
263 ,55.9079 ,1.45323 ,0.75388 ,7.39707 
264 ,56.1159 ,1.45531 ,0.75046 ,7.36349 
265 ,56.3242 ,1.45738 ,0.74361 ,7.29633 
266 ,56.5321 ,1.45949 ,0.69913 ,6.85982 
267 ,56.7400 ,1.46154 ,0.70255 ,6.89340 
268 ,56.9640 ,1.46381 ,0.68201 ,6.69193 
269 ,57.1564 ,1.46575 ,0.68201 ,6.69193 
270 ,57.3805 ,1.46795 ,0.66148 ,6.49046 
271 ,57.5886 ,1.46999 ,0.62726 ,6.15467 
272 ,57.7965 ,1.47207 ,0.64437 ,6.32256 
273 ,58.0528 ,1.47443 ,0.62726 ,6.15467 
274 ,58.2764 ,1.47687 ,0.61015 ,5.98678 
275 ,58.4529 ,1.47879 ,0.56908 ,5.58384 
276 ,58.6611 ,1.48079 ,0.58962 ,5.78531 
277 ,58.8689 ,1.48282 ,0.55539 ,5.44953 
278 ,59.0770 ,1.48484 ,0.55539 ,5.44953 
279 ,59.2849 ,1.48694 ,0.53828 ,5.28164 
280 ,59.4934 ,1.48900 ,0.51091 ,5.01301 
281 ,59.7012 ,1.49124 ,0.51433 ,5.04659 
282 ,59.8930 ,1.49315 ,0.48353 ,4.74438 
283 ,60.1331 ,1.49547 ,0.46642 ,4.57649 
284 ,60.3412 ,1.49751 ,0.46642 ,4.57649 
285 ,60.5332 ,1.49949 ,0.44246 ,4.34144 
286 ,60.7573 ,1.50166 ,0.43220 ,4.24071 
287 ,60.9656 ,1.50378 ,0.42877 ,4.20713 
288 ,61.2539 ,1.50663 ,0.41509 ,4.07282 
289 ,61.4781 ,1.50891 ,0.40482 ,3.97208 
290 ,61.6860 ,1.51095 ,0.37402 ,3.66988 
291 ,61.8942 ,1.51302 ,0.36718 ,3.60272 
292 ,62.1183 ,1.51529 ,0.35006 ,3.43483 
293 ,62.3261 ,1.51739 ,0.32269 ,3.16620 
294 ,62.5506 ,1.51949 ,0.30900 ,3.03189 
295 ,62.7424 ,1.52166 ,0.32269 ,3.16620 
296 ,62.9509 ,1.52363 ,0.27478 ,2.69611 
297 ,63.1426 ,1.52564 ,0.29189 ,2.86400 
298 ,63.3505 ,1.52774 ,0.26109 ,2.56179 
299 ,63.5591 ,1.52970 ,0.26793 ,2.62895 
300 ,63.7671 ,1.53180 ,0.24055 ,2.36032 
301 ,63.9751 ,1.53383 ,0.23371 ,2.29317 
302 ,64.1833 ,1.53597 ,0.21660 ,2.12528 
303 ,64.3749 ,1.53800 ,0.19607 ,1.92381 
304 ,64.5834 ,1.53994 ,0.18922 ,1.85665 
305 ,64.8075 ,1.54212 ,0.17211 ,1.68876 
306 ,65.0156 ,1.54427 ,0.15842 ,1.55445 
307 ,65.2398 ,1.54647 ,0.16185 ,1.58802 
308 ,65.4638 ,1.54880 ,0.13789 ,1.35298 
309 ,65.6718 ,1.55082 ,0.11051 ,1.08435 
310 ,65.8640 ,1.55287 ,0.11736 ,1.15151 
311 ,66.0719 ,1.55485 ,0.08998 ,0.88288 
312 ,66.2797 ,1.55689 ,0.08656 ,0.84930 
313 ,66.4879 ,1.55897 ,0.05234 ,0.51352 
314 ,66.7118 ,1.56110 ,0.06260 ,0.61425 
315 ,66.9201 ,1.56326 ,0.05576 ,0.54710 
316 ,67.1282 ,1.56537 ,0.02154 ,0.21131 
317 ,67.3363 ,1.56743 ,0.01811 ,0.17773 
318 ,67.5443 ,1.56953 ,0.01127 ,0.11058 
319 ,67.7524 ,1.57158 ,-0.01611 ,-0.15805 
320 ,67.9765 ,1.57388 ,-0.02295 ,-0.22520 
321 ,68.1846 ,1.57592 ,-0.02295 ,-0.22520 
322 ,68.3926 ,1.57802 ,-0.06402 ,-0.62814 
323 ,68.6007 ,1.58011 ,-0.04348 ,-0.42667 
324 ,68.8088 ,1.58222 ,-0.08455 ,-0.82961 
325 ,69.0329 ,1.58432 ,-0.07428 ,-0.72888 
326 ,69.2410 ,1.58652 ,-0.08455 ,-0.82961 
327 ,69.4491 ,1.58858 ,-0.11193 ,-1.09824 
328 ,69.6731 ,1.59092 ,-0.14273 ,-1.40045 
329 ,69.8813 ,1.59285 ,-0.12562 ,-1.23255 
330 ,70.0892 ,1.59495 ,-0.16326 ,-1.60191 
331 ,70.2974 ,1.59704 ,-0.15642 ,-1.53476 
332 ,70.5215 ,1.59925 ,-0.17011 ,-1.66907 
333 ,70.7296 ,1.60134 ,-0.19406 ,-1.90412 
334 ,70.9380 ,1.60352 ,-0.19406 ,-1.90412 
335 ,71.1620 ,1.60567 ,-0.20090 ,-1.97128 
336 ,71.3703 ,1.60782 ,-0.23855 ,-2.34064 
337 ,71.5943 ,1.60999 ,-0.25566 ,-2.50853 
338 ,71.8025 ,1.61213 ,-0.23855 ,-2.34064 
339 ,72.0269 ,1.61439 ,-0.26593 ,-2.60926 
340 ,72.2342 ,1.61646 ,-0.29673 ,-2.91147 
341 ,72.4428 ,1.61854 ,-0.28304 ,-2.77716 
342 ,72.6669 ,1.62074 ,-0.30015 ,-2.94505 
343 ,72.8747 ,1.62281 ,-0.31384 ,-3.07936 
344 ,73.0828 ,1.62493 ,-0.32068 ,-3.14652 
345 ,73.2907 ,1.62698 ,-0.35832 ,-3.51588 
346 ,73.4990 ,1.62911 ,-0.34121 ,-3.34799 
347 ,73.7233 ,1.63130 ,-0.35832 ,-3.51588 
348 ,73.9473 ,1.63351 ,-0.38912 ,-3.81808 
349 ,74.1555 ,1.63561 ,-0.39255 ,-3.85166 
350 ,74.3796 ,1.63778 ,-0.38912 ,-3.81808 
351 ,74.6198 ,1.64013 ,-0.43019 ,-4.22102 
352 ,74.8437 ,1.64246 ,-0.41650 ,-4.08671 
353 ,75.0678 ,1.64475 ,-0.43703 ,-4.28818 
354 ,75.2759 ,1.64680 ,-0.44730 ,-4.38891 
355 ,75.5001 ,1.64905 ,-0.45414 ,-4.45607 
356 ,75.7401 ,1.65132 ,-0.48152 ,-4.72470 
357 ,75.9802 ,1.65371 ,-0.48152 ,-4.72470 
358 ,76.1723 ,1.65591 ,-0.51232 ,-5.02690 
359 ,76.3803 ,1.65781 ,-0.50890 ,-4.99332 
360 ,76.5885 ,1.65995 ,-0.54312 ,-5.32911 
361 ,76.7962 ,1.66204 ,-0.52943 ,-5.19479 
362 ,77.0046 ,1.66412 ,-0.54654 ,-5.36268 
363 ,77.2128 ,1.66619 ,-0.57050 ,-5.59773 
364 ,77.4368 ,1.66839 ,-0.56708 ,-5.56415 
365 ,77.6609 ,1.67067 ,-0.57392 ,-5.63131 
366 ,77.8525 ,1.67269 ,-0.60814 ,-5.96709 
367 ,78.0610 ,1.67466 ,-0.59788 ,-5.86636 
368 ,78.2531 ,1.67674 ,-0.64579 ,-6.33646 
369 ,78.4612 ,1.67870 ,-0.61499 ,-6.03425 
370 ,78.6693 ,1.68077 ,-0.65605 ,-6.43719 
371 ,78.8769 ,1.68284 ,-0.64921 ,-6.37003 
372 ,79.1015 ,1.68501 ,-0.64921 ,-6.37003 
373 ,79.3255 ,1.68730 ,-0.65947 ,-6.47077 
374 ,79.5338 ,1.68938 ,-0.68343 ,-6.70582 
375 ,79.7578 ,1.69158 ,-0.69027 ,-6.77297 
376 ,79.9657 ,1.69371 ,-0.70739 ,-6.94086 
377 ,80.1897 ,1.69601 ,-0.72792 ,-7.14233 
378 ,80.3980 ,1.69804 ,-0.72792 ,-7.14233 
379 ,80.6060 ,1.70005 ,-0.75187 ,-7.37738 
380 ,80.8141 ,1.70218 ,-0.75530 ,-7.41096 
381 ,81.0543 ,1.70457 ,-0.78610 ,-7.71317 
382 ,81.2781 ,1.70686 ,-0.76556 ,-7.51170 
383 ,81.5025 ,1.70903 ,-0.78610 ,-7.71317 
384 ,81.7105 ,1.71114 ,-0.82374 ,-8.08253 
385 ,81.8865 ,1.71307 ,-0.80321 ,-7.88106 
386 ,82.0946 ,1.71502 ,-0.81689 ,-8.01537 
387 ,82.3024 ,1.71709 ,-0.82374 ,-8.08253 
388 ,82.5109 ,1.71914 ,-0.85112 ,-8.35115 
389 ,82.7348 ,1.72137 ,-0.85112 ,-8.35115 
390 ,82.9430 ,1.72346 ,-0.85796 ,-8.41831 
391 ,83.1510 ,1.72553 ,-0.89560 ,-8.78767 
392 ,83.3590 ,1.72757 ,-0.88192 ,-8.65336 
393 ,83.5991 ,1.72994 ,-0.91614 ,-8.98914 
394 ,83.8234 ,1.73228 ,-0.90587 ,-8.88841 
395 ,84.0316 ,1.73436 ,-0.92640 ,-9.08988 
396 ,84.2553 ,1.73655 ,-0.93325 ,-9.15703 
397 ,84.4637 ,1.73866 ,-0.95720 ,-9.39208 
398 ,84.6876 ,1.74093 ,-0.97431 ,-9.55997 
399 ,84.9118 ,1.74315 ,-0.98116 ,-9.62713 
400 ,85.0879 ,1.74507 ,-0.98116 ,-9.62713 
401 ,85.2797 ,1.74684 ,-0.98458 ,-9.66071 
402 ,85.4881 ,1.74889 ,-1.00511 ,-9.86218 
403 ,85.7120 ,1.75114 ,-1.01880 ,-9.99649 
404 ,85.9202 ,1.75316 ,-1.02222 ,-10.03007 
405 ,86.1284 ,1.75538 ,-1.04618 ,-10.26512 
406 ,86.3367 ,1.75736 ,-1.02565 ,-10.06365 
407 ,86.5605 ,1.75961 ,-1.03591 ,-10.16438 
408 ,86.7521 ,1.76169 ,-1.07356 ,-10.53374 
409 ,86.9607 ,1.76366 ,-1.05987 ,-10.39943 
410 ,87.1843 ,1.76589 ,-1.08040 ,-10.60090 
411 ,87.3768 ,1.76780 ,-1.08382 ,-10.63448 
412 ,87.6008 ,1.77004 ,-1.10436 ,-10.83595 
413 ,87.8088 ,1.77210 ,-1.12147 ,-11.00384 
414 ,88.0333 ,1.77437 ,-1.11462 ,-10.93668 
415 ,88.2411 ,1.77653 ,-1.13516 ,-11.13815 
416 ,88.4333 ,1.77838 ,-1.14884 ,-11.27247 
417 ,88.6412 ,1.78040 ,-1.15569 ,-11.33962 
418 ,88.8654 ,1.78268 ,-1.16938 ,-11.47394 
419 ,89.0894 ,1.78489 ,-1.17622 ,-11.54109 
420 ,89.2976 ,1.78704 ,-1.16253 ,-11.40678 
421 ,89.5056 ,1.78909 ,-1.20702 ,-11.84330 
422 ,89.7137 ,1.79113 ,-1.20018 ,-11.77614 
423 ,89.9378 ,1.79338 ,-1.21044 ,-11.87688 
424 ,90.1457 ,1.79540 ,-1.23782 ,-12.14550 
425 ,90.3540 ,1.79756 ,-1.22755 ,-12.04477 
426 ,90.5460 ,1.79950 ,-1.26520 ,-12.41413 
427 ,90.7701 ,1.80168 ,-1.25835 ,-12.34697 
428 ,90.9623 ,1.80362 ,-1.26178 ,-12.38055 
429 ,91.1700 ,1.80581 ,-1.29258 ,-12.68275 
430 ,91.3786 ,1.80778 ,-1.28573 ,-12.61560 
431 ,91.6346 ,1.81033 ,-1.29600 ,-12.71633 
432 ,91.8266 ,1.81231 ,-1.32338 ,-12.98496 
433 ,92.0348 ,1.81429 ,-1.31311 ,-12.88422 
434 ,92.2427 ,1.81642 ,-1.34733 ,-13.22001 
435 ,92.4669 ,1.81869 ,-1.35417 ,-13.28716 
436 ,92.6906 ,1.82087 ,-1.35075 ,-13.25359 
437 ,92.8831 ,1.82286 ,-1.37129 ,-13.45506 
438 ,93.0751 ,1.82483 ,-1.36444 ,-13.38790 
439 ,93.2671 ,1.82674 ,-1.39524 ,-13.69010 
440 ,93.4751 ,1.82874 ,-1.38155 ,-13.55579 
441 ,93.6676 ,1.83070 ,-1.41920 ,-13.92515 
442 ,93.8917 ,1.83285 ,-1.40893 ,-13.82442 
443 ,94.1156 ,1.83508 ,-1.41235 ,-13.85799 
444 ,94.3237 ,1.83722 ,-1.44657 ,-14.19378 
445 ,94.5314 ,1.83930 ,-1.43631 ,-14.09304 
446 ,94.7399 ,1.84137 ,-1.45342 ,-14.26093 
447 ,94.9641 ,1.84362 ,-1.46368 ,-14.36167 
448 ,95.1718 ,1.84572 ,-1.46368 ,-14.36167 
449 ,95.3801 ,1.84779 ,-1.46711 ,-14.39525 
450 ,95.6039 ,1.84997 ,-1.50133 ,-14.73103 
451 ,95.8124 ,1.85213 ,-1.49448 ,-14.66387 
452 ,96.0366 ,1.85430 ,-1.50817 ,-14.79819 
453 ,96.2606 ,1.85658 ,-1.52186 ,-14.93250 
454 ,96.4687 ,1.85868 ,-1.52528 ,-14.96608 
455 ,96.6766 ,1.86076 ,-1.53213 ,-15.03324 
456 ,96.8846 ,1.86289 ,-1.55608 ,-15.26828 
457 ,97.1088 ,1.86506 ,-1.55608 ,-15.26828 
458 ,97.3332 ,1.86729 ,-1.55950 ,-15.30186 
459 ,97.5411 ,1.86939 ,-1.58346 ,-15.53691 
460 ,97.7652 ,1.87159 ,-1.60399 ,-15.73838 
