Data stamp = , 19-05-2022 19:56:27 047

Calibration Values: 
Slope = , 26.54 , g/V 
Offset Voltage at no contact = , -0.501760 , V 

No , Time , Stage Position ,   Mass , Force 
   ,  (s) ,      (mm)      ,   (g)  , (mN)  

1 ,0.0000 ,0.89966 ,5.29167 ,51.92190 
2 ,0.2199 ,0.89975 ,5.28825 ,51.88832 
3 ,0.8604 ,0.90259 ,5.30536 ,52.05621 
4 ,1.0847 ,0.90524 ,5.28141 ,51.82116 
5 ,1.3087 ,0.90745 ,5.27798 ,51.78758 
6 ,1.5164 ,0.90953 ,5.28483 ,51.85474 
7 ,1.7729 ,0.91196 ,5.27114 ,51.72043 
8 ,1.9969 ,0.91432 ,5.26087 ,51.61969 
9 ,2.2211 ,0.91654 ,5.20612 ,51.08244 
10 ,2.4131 ,0.91861 ,5.18559 ,50.88097 
11 ,2.6209 ,0.92062 ,5.17190 ,50.74666 
12 ,2.8451 ,0.92281 ,5.15479 ,50.57876 
13 ,3.0695 ,0.92507 ,5.12741 ,50.31014 
14 ,3.2935 ,0.92721 ,5.11714 ,50.20940 
15 ,3.5172 ,0.92957 ,5.09319 ,49.97436 
16 ,3.7097 ,0.93149 ,5.06239 ,49.67215 
17 ,3.9338 ,0.93372 ,5.05554 ,49.60499 
18 ,4.1420 ,0.93579 ,5.01448 ,49.20205 
19 ,4.3502 ,0.93788 ,5.01106 ,49.16848 
20 ,4.5738 ,0.94012 ,4.99052 ,48.96701 
21 ,4.7823 ,0.94218 ,4.95288 ,48.59764 
22 ,5.0223 ,0.94454 ,4.93235 ,48.39618 
23 ,5.2303 ,0.94681 ,4.89470 ,48.02681 
24 ,5.4384 ,0.94880 ,4.90497 ,48.12755 
25 ,5.6466 ,0.95087 ,4.86732 ,47.75819 
26 ,5.8547 ,0.95289 ,4.87417 ,47.82534 
27 ,6.0786 ,0.95517 ,4.83310 ,47.42240 
28 ,6.3025 ,0.95741 ,4.80573 ,47.15378 
29 ,6.5265 ,0.95960 ,4.77493 ,46.85157 
30 ,6.7348 ,0.96168 ,4.76808 ,46.78442 
31 ,6.9591 ,0.96395 ,4.74070 ,46.51579 
32 ,7.1829 ,0.96611 ,4.70990 ,46.21359 
33 ,7.3911 ,0.96836 ,4.71675 ,46.28074 
34 ,7.6152 ,0.97046 ,4.68937 ,46.01212 
35 ,7.8393 ,0.97277 ,4.67226 ,45.84422 
36 ,8.0474 ,0.97484 ,4.63804 ,45.50844 
37 ,8.2554 ,0.97690 ,4.62435 ,45.37413 
38 ,8.4638 ,0.97898 ,4.58671 ,45.00477 
39 ,8.6718 ,0.98108 ,4.58671 ,45.00477 
40 ,8.8960 ,0.98331 ,4.57302 ,44.87045 
41 ,9.1039 ,0.98542 ,4.53880 ,44.53467 
42 ,9.3277 ,0.98765 ,4.51484 ,44.29962 
43 ,9.5362 ,0.98972 ,4.52169 ,44.36678 
44 ,9.7600 ,0.99191 ,4.47035 ,43.86310 
45 ,9.9844 ,0.99421 ,4.45324 ,43.69521 
46 ,10.1925 ,0.99631 ,4.44640 ,43.62806 
47 ,10.4000 ,0.99847 ,4.42929 ,43.46016 
48 ,10.6086 ,1.00047 ,4.39164 ,43.09080 
49 ,10.8167 ,1.00257 ,4.39164 ,43.09080 
50 ,11.0247 ,1.00462 ,4.36084 ,42.78860 
51 ,11.2329 ,1.00665 ,4.35742 ,42.75502 
52 ,11.4408 ,1.00876 ,4.33004 ,42.48639 
53 ,11.7450 ,1.01140 ,4.30267 ,42.21777 
54 ,11.9692 ,1.01401 ,4.27871 ,41.98272 
55 ,12.1773 ,1.01614 ,4.27871 ,41.98272 
56 ,12.3854 ,1.01826 ,4.22053 ,41.41189 
57 ,12.5929 ,1.02036 ,4.22053 ,41.41189 
58 ,12.8174 ,1.02249 ,4.21027 ,41.31115 
59 ,13.0416 ,1.02475 ,4.17262 ,40.94179 
60 ,13.2654 ,1.02695 ,4.14867 ,40.70674 
61 ,13.4739 ,1.02906 ,4.14525 ,40.67317 
62 ,13.6813 ,1.03112 ,4.12129 ,40.43812 
63 ,13.9056 ,1.03339 ,4.08707 ,40.10233 
64 ,14.1140 ,1.03554 ,4.09734 ,40.20307 
65 ,14.3380 ,1.03768 ,4.07338 ,39.96802 
66 ,14.5461 ,1.03982 ,4.02205 ,39.46435 
67 ,14.7700 ,1.04204 ,4.02205 ,39.46435 
68 ,14.9943 ,1.04432 ,4.00494 ,39.29646 
69 ,15.2184 ,1.04653 ,3.99125 ,39.16214 
70 ,15.4264 ,1.04861 ,3.95018 ,38.75920 
71 ,15.6507 ,1.05090 ,3.93650 ,38.62489 
72 ,15.8743 ,1.05308 ,3.93650 ,38.62489 
73 ,16.0987 ,1.05533 ,3.90912 ,38.35626 
74 ,16.3228 ,1.05757 ,3.88858 ,38.15479 
75 ,16.5310 ,1.05961 ,3.87147 ,37.98690 
76 ,16.7549 ,1.06181 ,3.85779 ,37.85259 
77 ,16.9791 ,1.06419 ,3.83383 ,37.61754 
78 ,17.2032 ,1.06633 ,3.79619 ,37.24818 
79 ,17.4273 ,1.06862 ,3.77908 ,37.08029 
80 ,17.6351 ,1.07069 ,3.77565 ,37.04671 
81 ,17.8435 ,1.07276 ,3.74828 ,36.77808 
82 ,18.0518 ,1.07489 ,3.72432 ,36.54303 
83 ,18.2595 ,1.07700 ,3.71748 ,36.47588 
84 ,18.4839 ,1.07919 ,3.68668 ,36.17367 
85 ,18.6920 ,1.08132 ,3.67641 ,36.07294 
86 ,18.9157 ,1.08346 ,3.66957 ,36.00578 
87 ,19.1402 ,1.08568 ,3.62850 ,35.60284 
88 ,19.3641 ,1.08799 ,3.61139 ,35.43495 
89 ,19.6043 ,1.09035 ,3.59428 ,35.26706 
90 ,19.8121 ,1.09245 ,3.57717 ,35.09917 
91 ,20.0365 ,1.09470 ,3.57375 ,35.06559 
92 ,20.2605 ,1.09694 ,3.53952 ,34.72981 
93 ,20.4687 ,1.09904 ,3.51899 ,34.52834 
94 ,20.6926 ,1.10121 ,3.51899 ,34.52834 
95 ,20.9008 ,1.10336 ,3.48135 ,34.15898 
96 ,21.1250 ,1.10559 ,3.45739 ,33.92393 
97 ,21.3330 ,1.10760 ,3.45397 ,33.89035 
98 ,21.5570 ,1.10987 ,3.42659 ,33.62172 
99 ,21.7812 ,1.11209 ,3.40948 ,33.45383 
100 ,21.9892 ,1.11423 ,3.37868 ,33.15163 
101 ,22.1972 ,1.11633 ,3.37184 ,33.08447 
102 ,22.4052 ,1.11831 ,3.34104 ,32.78227 
103 ,22.6294 ,1.12060 ,3.33419 ,32.71511 
104 ,22.8695 ,1.12283 ,3.32051 ,32.58080 
105 ,23.0777 ,1.12504 ,3.30339 ,32.41290 
106 ,23.2855 ,1.12717 ,3.25206 ,31.90923 
107 ,23.4938 ,1.12927 ,3.25548 ,31.94281 
108 ,23.7017 ,1.13141 ,3.25891 ,31.97639 
109 ,23.8940 ,1.13329 ,3.22811 ,31.67418 
110 ,24.1021 ,1.13536 ,3.20415 ,31.43913 
111 ,24.3262 ,1.13753 ,3.17335 ,31.13693 
112 ,24.5503 ,1.13975 ,3.15966 ,31.00262 
113 ,24.7739 ,1.14201 ,3.14597 ,30.86830 
114 ,24.9822 ,1.14411 ,3.13229 ,30.73399 
115 ,25.1904 ,1.14625 ,3.10491 ,30.46536 
116 ,25.4143 ,1.14838 ,3.11518 ,30.56610 
117 ,25.6064 ,1.15036 ,3.07069 ,30.12958 
118 ,25.8143 ,1.15243 ,3.06384 ,30.06242 
119 ,26.0229 ,1.15456 ,3.03304 ,29.76022 
120 ,26.2469 ,1.15675 ,3.00224 ,29.45801 
121 ,26.4551 ,1.15882 ,3.02278 ,29.65948 
122 ,26.6791 ,1.16106 ,2.98855 ,29.32370 
123 ,26.8871 ,1.16316 ,2.95433 ,28.98792 
124 ,27.0952 ,1.16524 ,2.95776 ,29.02150 
125 ,27.3031 ,1.16733 ,2.93380 ,28.78645 
126 ,27.5273 ,1.16959 ,2.89958 ,28.45066 
127 ,27.7355 ,1.17166 ,2.90985 ,28.55140 
128 ,27.9595 ,1.17386 ,2.89616 ,28.41709 
129 ,28.1677 ,1.17594 ,2.84482 ,27.91341 
130 ,28.3919 ,1.17820 ,2.83456 ,27.81268 
131 ,28.6158 ,1.18046 ,2.83114 ,27.77910 
132 ,28.8240 ,1.18249 ,2.80034 ,27.47689 
133 ,29.0480 ,1.18473 ,2.77296 ,27.20827 
134 ,29.2721 ,1.18696 ,2.79349 ,27.40974 
135 ,29.4803 ,1.18903 ,2.76611 ,27.14111 
136 ,29.6723 ,1.19113 ,2.72505 ,26.73817 
137 ,29.8802 ,1.19304 ,2.72847 ,26.77175 
138 ,30.0885 ,1.19523 ,2.70452 ,26.53670 
139 ,30.2962 ,1.19722 ,2.69767 ,26.46954 
140 ,30.5046 ,1.19929 ,2.65660 ,26.06661 
141 ,30.7288 ,1.20155 ,2.64976 ,25.99945 
142 ,30.9209 ,1.20359 ,2.64976 ,25.99945 
143 ,31.1289 ,1.20559 ,2.61554 ,25.66367 
144 ,31.3367 ,1.20763 ,2.59501 ,25.46220 
145 ,31.5449 ,1.20977 ,2.57789 ,25.29430 
146 ,31.7528 ,1.21191 ,2.55052 ,25.02568 
147 ,31.9609 ,1.21398 ,2.55394 ,25.05926 
148 ,32.1851 ,1.21608 ,2.52314 ,24.75705 
149 ,32.4412 ,1.21872 ,2.50603 ,24.58916 
150 ,32.6654 ,1.22097 ,2.48550 ,24.38769 
151 ,32.9053 ,1.22324 ,2.47181 ,24.25338 
152 ,33.1135 ,1.22541 ,2.46154 ,24.15264 
153 ,33.3056 ,1.22744 ,2.43074 ,23.85044 
154 ,33.4819 ,1.22930 ,2.42390 ,23.78328 
155 ,33.6900 ,1.23115 ,2.40679 ,23.61539 
156 ,33.8981 ,1.23321 ,2.39652 ,23.51465 
157 ,34.1061 ,1.23540 ,2.36914 ,23.24603 
158 ,34.3144 ,1.23739 ,2.36230 ,23.17887 
159 ,34.5224 ,1.23943 ,2.33834 ,22.94382 
160 ,34.7626 ,1.24182 ,2.31097 ,22.67520 
161 ,34.9546 ,1.24389 ,2.29385 ,22.50731 
162 ,35.1628 ,1.24588 ,2.27332 ,22.30584 
163 ,35.3867 ,1.24815 ,2.25621 ,22.13794 
164 ,35.5947 ,1.25022 ,2.26306 ,22.20510 
165 ,35.8024 ,1.25233 ,2.22199 ,21.80216 
166 ,36.0109 ,1.25431 ,2.21172 ,21.70143 
167 ,36.2190 ,1.25647 ,2.21172 ,21.70143 
168 ,36.4433 ,1.25867 ,2.16723 ,21.26491 
169 ,36.6673 ,1.26089 ,2.14670 ,21.06344 
170 ,36.8750 ,1.26296 ,2.16039 ,21.19775 
171 ,37.0836 ,1.26510 ,2.13301 ,20.92912 
172 ,37.3077 ,1.26732 ,2.10906 ,20.69408 
173 ,37.5317 ,1.26955 ,2.11248 ,20.72766 
174 ,37.7558 ,1.27178 ,2.09537 ,20.55976 
175 ,37.9634 ,1.27385 ,2.05773 ,20.19040 
176 ,38.1879 ,1.27610 ,2.03719 ,19.98893 
177 ,38.4121 ,1.27836 ,2.04061 ,20.02251 
178 ,38.6362 ,1.28056 ,2.03377 ,19.95535 
179 ,38.8603 ,1.28280 ,2.00297 ,19.65315 
180 ,39.0839 ,1.28508 ,1.97559 ,19.38452 
181 ,39.2924 ,1.28721 ,1.97559 ,19.38452 
182 ,39.5162 ,1.28943 ,1.96533 ,19.28379 
183 ,39.7245 ,1.29147 ,1.91399 ,18.78011 
184 ,39.9326 ,1.29352 ,1.92084 ,18.84727 
185 ,40.1407 ,1.29569 ,1.90373 ,18.67938 
186 ,40.3489 ,1.29779 ,1.89688 ,18.61222 
187 ,40.5730 ,1.29995 ,1.87977 ,18.44433 
188 ,40.7810 ,1.30206 ,1.84555 ,18.10855 
189 ,40.9891 ,1.30422 ,1.83528 ,18.00781 
190 ,41.2133 ,1.30641 ,1.84213 ,18.07497 
191 ,41.4371 ,1.30865 ,1.80791 ,17.73919 
192 ,41.6613 ,1.31090 ,1.77369 ,17.40340 
193 ,41.8855 ,1.31313 ,1.76342 ,17.30267 
194 ,42.1096 ,1.31530 ,1.74973 ,17.16836 
195 ,42.3177 ,1.31738 ,1.74973 ,17.16836 
196 ,42.5256 ,1.31953 ,1.71551 ,16.83257 
197 ,42.7500 ,1.32171 ,1.70524 ,16.73184 
198 ,42.9738 ,1.32401 ,1.69498 ,16.63110 
199 ,43.1821 ,1.32610 ,1.66075 ,16.29532 
200 ,43.3903 ,1.32811 ,1.66760 ,16.36248 
201 ,43.5982 ,1.33025 ,1.64022 ,16.09385 
202 ,43.8063 ,1.33226 ,1.61969 ,15.89238 
203 ,44.0144 ,1.33441 ,1.61627 ,15.85880 
204 ,44.2065 ,1.33642 ,1.58204 ,15.52302 
205 ,44.4305 ,1.33856 ,1.58547 ,15.55660 
206 ,44.6382 ,1.34060 ,1.55467 ,15.25439 
207 ,44.8469 ,1.34269 ,1.55124 ,15.22081 
208 ,45.0710 ,1.34495 ,1.54098 ,15.12008 
209 ,45.2948 ,1.34713 ,1.53413 ,15.05292 
210 ,45.5351 ,1.34957 ,1.49649 ,14.68356 
211 ,45.7593 ,1.35178 ,1.47253 ,14.44851 
212 ,45.9673 ,1.35391 ,1.45542 ,14.28062 
213 ,46.1753 ,1.35599 ,1.44516 ,14.17989 
214 ,46.3836 ,1.35809 ,1.41778 ,13.91126 
215 ,46.6076 ,1.36026 ,1.41778 ,13.91126 
216 ,46.8316 ,1.36254 ,1.41094 ,13.84410 
217 ,47.0399 ,1.36456 ,1.37329 ,13.47474 
218 ,47.2480 ,1.36671 ,1.38698 ,13.60906 
219 ,47.4560 ,1.36875 ,1.37329 ,13.47474 
220 ,47.6801 ,1.37098 ,1.31854 ,12.93749 
221 ,47.8717 ,1.37309 ,1.33223 ,13.07180 
222 ,48.0803 ,1.37501 ,1.29458 ,12.70244 
223 ,48.3041 ,1.37727 ,1.28089 ,12.56813 
224 ,48.5123 ,1.37930 ,1.29800 ,12.73602 
225 ,48.7204 ,1.38141 ,1.25009 ,12.26592 
226 ,48.9284 ,1.38344 ,1.25694 ,12.33308 
227 ,49.1686 ,1.38580 ,1.23983 ,12.16519 
228 ,49.3928 ,1.38813 ,1.22614 ,12.03088 
229 ,49.6006 ,1.39022 ,1.18507 ,11.62794 
230 ,49.8247 ,1.39245 ,1.16796 ,11.46004 
231 ,50.0489 ,1.39471 ,1.18507 ,11.62794 
232 ,50.2730 ,1.39697 ,1.15427 ,11.32573 
233 ,50.4972 ,1.39917 ,1.13374 ,11.12426 
234 ,50.7212 ,1.40141 ,1.11321 ,10.92279 
235 ,50.9134 ,1.40351 ,1.11663 ,10.95637 
236 ,51.1213 ,1.40540 ,1.08583 ,10.65416 
237 ,51.3295 ,1.40753 ,1.09267 ,10.72132 
238 ,51.5536 ,1.40972 ,1.06872 ,10.48627 
239 ,51.7776 ,1.41195 ,1.04134 ,10.21765 
240 ,51.9858 ,1.41408 ,1.02081 ,10.01618 
241 ,52.1938 ,1.41618 ,1.03108 ,10.11691 
242 ,52.4178 ,1.41844 ,1.01054 ,9.91544 
243 ,52.6258 ,1.42042 ,0.98659 ,9.68039 
244 ,52.8503 ,1.42272 ,0.97974 ,9.61324 
245 ,53.0743 ,1.42495 ,0.95237 ,9.34461 
246 ,53.2823 ,1.42703 ,0.94210 ,9.24388 
247 ,53.4902 ,1.42922 ,0.92499 ,9.07598 
248 ,53.6985 ,1.43113 ,0.89761 ,8.80736 
249 ,53.9225 ,1.43339 ,0.88392 ,8.67305 
250 ,54.1468 ,1.43566 ,0.88734 ,8.70662 
251 ,54.3709 ,1.43786 ,0.88392 ,8.67305 
252 ,54.5946 ,1.44014 ,0.85312 ,8.37084 
253 ,54.8029 ,1.44232 ,0.83601 ,8.20295 
254 ,55.0111 ,1.44425 ,0.84628 ,8.30368 
255 ,55.2190 ,1.44639 ,0.80521 ,7.90074 
256 ,55.4271 ,1.44845 ,0.81206 ,7.96790 
257 ,55.6349 ,1.45056 ,0.78468 ,7.69927 
258 ,55.8433 ,1.45267 ,0.76757 ,7.53138 
259 ,56.0674 ,1.45487 ,0.77441 ,7.59854 
260 ,56.2756 ,1.45696 ,0.73335 ,7.19560 
261 ,56.4835 ,1.45904 ,0.72650 ,7.12844 
262 ,56.7874 ,1.46162 ,0.72308 ,7.09486 
263 ,56.9960 ,1.46416 ,0.69228 ,6.79266 
264 ,57.2201 ,1.46640 ,0.65806 ,6.45688 
265 ,57.4280 ,1.46859 ,0.66490 ,6.52403 
266 ,57.6361 ,1.47053 ,0.64779 ,6.35614 
267 ,57.8441 ,1.47263 ,0.64095 ,6.28899 
268 ,58.0682 ,1.47489 ,0.62726 ,6.15467 
269 ,58.2925 ,1.47710 ,0.61015 ,5.98678 
270 ,58.5006 ,1.47916 ,0.58962 ,5.78531 
271 ,58.7407 ,1.48147 ,0.59988 ,5.88605 
272 ,58.9486 ,1.48375 ,0.57251 ,5.61742 
273 ,59.1886 ,1.48593 ,0.55882 ,5.48311 
274 ,59.4130 ,1.48828 ,0.54855 ,5.38237 
275 ,59.6210 ,1.49039 ,0.51775 ,5.08017 
276 ,59.8450 ,1.49260 ,0.50748 ,4.97943 
277 ,60.0690 ,1.49485 ,0.51775 ,5.08017 
278 ,60.2933 ,1.49710 ,0.48011 ,4.71081 
279 ,60.5173 ,1.49936 ,0.46300 ,4.54291 
280 ,60.7252 ,1.50140 ,0.45273 ,4.44218 
281 ,60.9336 ,1.50350 ,0.44246 ,4.34144 
282 ,61.1417 ,1.50558 ,0.42877 ,4.20713 
283 ,61.3498 ,1.50768 ,0.42193 ,4.13997 
284 ,61.5579 ,1.50975 ,0.38771 ,3.80419 
285 ,61.7819 ,1.51192 ,0.38429 ,3.77061 
286 ,61.9740 ,1.51402 ,0.39113 ,3.83777 
287 ,62.1821 ,1.51595 ,0.36375 ,3.56914 
288 ,62.3737 ,1.51800 ,0.36375 ,3.56914 
289 ,62.5822 ,1.51998 ,0.33295 ,3.26694 
290 ,62.7903 ,1.52202 ,0.32953 ,3.23336 
291 ,62.9984 ,1.52415 ,0.29531 ,2.89758 
292 ,63.2065 ,1.52621 ,0.30215 ,2.96473 
293 ,63.4141 ,1.52832 ,0.28162 ,2.76326 
294 ,63.6387 ,1.53051 ,0.25767 ,2.52822 
295 ,63.8627 ,1.53277 ,0.25082 ,2.46106 
296 ,64.0708 ,1.53484 ,0.25424 ,2.49464 
297 ,64.2790 ,1.53691 ,0.20976 ,2.05812 
298 ,64.4870 ,1.53902 ,0.21660 ,2.12528 
299 ,64.7109 ,1.54121 ,0.19949 ,1.95738 
300 ,64.9512 ,1.54352 ,0.17896 ,1.75592 
301 ,65.1752 ,1.54590 ,0.16869 ,1.65518 
302 ,65.3834 ,1.54801 ,0.15500 ,1.52087 
303 ,65.6073 ,1.55023 ,0.15842 ,1.55445 
304 ,65.8154 ,1.55234 ,0.11393 ,1.11793 
305 ,66.0232 ,1.55441 ,0.12420 ,1.21866 
306 ,66.2316 ,1.55645 ,0.11051 ,1.08435 
307 ,66.4398 ,1.55852 ,0.07971 ,0.78214 
308 ,66.6478 ,1.56063 ,0.07971 ,0.78214 
309 ,66.8397 ,1.56260 ,0.06260 ,0.61425 
310 ,67.0481 ,1.56461 ,0.08314 ,0.81572 
311 ,67.2563 ,1.56667 ,0.03180 ,0.31205 
312 ,67.4642 ,1.56880 ,0.02496 ,0.24489 
313 ,67.6881 ,1.57104 ,0.04207 ,0.41278 
314 ,67.9123 ,1.57321 ,0.01127 ,0.11058 
315 ,68.1204 ,1.57534 ,-0.01953 ,-0.19163 
316 ,68.3766 ,1.57779 ,-0.01953 ,-0.19163 
317 ,68.6006 ,1.58009 ,-0.05375 ,-0.52741 
318 ,68.8082 ,1.58219 ,-0.02637 ,-0.25878 
319 ,69.0166 ,1.58423 ,-0.06744 ,-0.66172 
320 ,69.2246 ,1.58633 ,-0.06744 ,-0.66172 
321 ,69.4329 ,1.58850 ,-0.07771 ,-0.76246 
322 ,69.6412 ,1.59051 ,-0.11193 ,-1.09824 
323 ,69.8651 ,1.59274 ,-0.11193 ,-1.09824 
324 ,70.0728 ,1.59481 ,-0.13931 ,-1.36687 
325 ,70.2813 ,1.59693 ,-0.13931 ,-1.36687 
326 ,70.4894 ,1.59900 ,-0.13931 ,-1.36687 
327 ,70.6973 ,1.60111 ,-0.16668 ,-1.63549 
328 ,70.9054 ,1.60315 ,-0.15299 ,-1.50118 
329 ,71.1292 ,1.60544 ,-0.18379 ,-1.80338 
330 ,71.3539 ,1.60760 ,-0.20433 ,-2.00485 
331 ,71.5777 ,1.60990 ,-0.23170 ,-2.27348 
332 ,71.7857 ,1.61200 ,-0.22144 ,-2.17275 
333 ,71.9940 ,1.61405 ,-0.23855 ,-2.34064 
334 ,72.2180 ,1.61633 ,-0.25908 ,-2.54211 
335 ,72.4422 ,1.61856 ,-0.26250 ,-2.57569 
336 ,72.6662 ,1.62076 ,-0.26935 ,-2.64284 
337 ,72.8904 ,1.62300 ,-0.27619 ,-2.71000 
338 ,73.0984 ,1.62509 ,-0.31384 ,-3.07936 
339 ,73.3065 ,1.62717 ,-0.30357 ,-2.97863 
340 ,73.5308 ,1.62934 ,-0.34121 ,-3.34799 
341 ,73.7703 ,1.63173 ,-0.34121 ,-3.34799 
342 ,73.9789 ,1.63388 ,-0.35832 ,-3.51588 
343 ,74.2029 ,1.63618 ,-0.35832 ,-3.51588 
344 ,74.3950 ,1.63809 ,-0.39255 ,-3.85166 
345 ,74.6030 ,1.64019 ,-0.37886 ,-3.71735 
346 ,74.8113 ,1.64217 ,-0.38570 ,-3.78450 
347 ,75.0191 ,1.64431 ,-0.42335 ,-4.15387 
348 ,75.2273 ,1.64647 ,-0.40966 ,-4.01955 
349 ,75.4352 ,1.64860 ,-0.42677 ,-4.18744 
350 ,75.6271 ,1.65043 ,-0.42677 ,-4.18744 
351 ,75.8356 ,1.65243 ,-0.46099 ,-4.52323 
352 ,76.0438 ,1.65450 ,-0.46099 ,-4.52323 
353 ,76.2677 ,1.65676 ,-0.47468 ,-4.65754 
354 ,76.4759 ,1.65886 ,-0.49521 ,-4.85901 
355 ,76.6995 ,1.66107 ,-0.51917 ,-5.09406 
356 ,76.9080 ,1.66322 ,-0.49179 ,-4.82543 
357 ,77.1483 ,1.66548 ,-0.52943 ,-5.19479 
358 ,77.3722 ,1.66779 ,-0.53628 ,-5.26195 
359 ,77.5804 ,1.66986 ,-0.56708 ,-5.56415 
360 ,77.8040 ,1.67212 ,-0.55681 ,-5.46342 
361 ,78.0284 ,1.67435 ,-0.55681 ,-5.46342 
362 ,78.2526 ,1.67657 ,-0.57734 ,-5.66489 
363 ,78.4606 ,1.67874 ,-0.60130 ,-5.89994 
364 ,78.6847 ,1.68091 ,-0.60130 ,-5.89994 
365 ,78.8927 ,1.68304 ,-0.62525 ,-6.13499 
366 ,79.1170 ,1.68526 ,-0.63210 ,-6.20214 
367 ,79.3412 ,1.68751 ,-0.65947 ,-6.47077 
368 ,79.5492 ,1.68956 ,-0.65605 ,-6.43719 
369 ,79.7732 ,1.69186 ,-0.67659 ,-6.63866 
370 ,80.0132 ,1.69423 ,-0.69370 ,-6.80655 
371 ,80.2373 ,1.69643 ,-0.70739 ,-6.94086 
372 ,80.4615 ,1.69868 ,-0.70396 ,-6.90729 
373 ,80.6697 ,1.70076 ,-0.70396 ,-6.90729 
374 ,80.8777 ,1.70286 ,-0.74161 ,-7.27665 
375 ,81.1018 ,1.70506 ,-0.73134 ,-7.17591 
376 ,81.3099 ,1.70715 ,-0.76214 ,-7.47812 
377 ,81.5180 ,1.70929 ,-0.77583 ,-7.61243 
378 ,81.7260 ,1.71132 ,-0.75187 ,-7.37738 
379 ,81.9342 ,1.71342 ,-0.78952 ,-7.74674 
380 ,82.1581 ,1.71562 ,-0.81005 ,-7.94821 
381 ,82.3503 ,1.71767 ,-0.80663 ,-7.91464 
382 ,82.5586 ,1.71962 ,-0.82374 ,-8.08253 
383 ,82.7666 ,1.72174 ,-0.81347 ,-7.98179 
384 ,82.9907 ,1.72404 ,-0.84427 ,-8.28400 
385 ,83.2148 ,1.72624 ,-0.86823 ,-8.51904 
386 ,83.4223 ,1.72830 ,-0.85112 ,-8.35115 
387 ,83.6307 ,1.73035 ,-0.88192 ,-8.65336 
388 ,83.8387 ,1.73249 ,-0.89218 ,-8.75409 
389 ,84.0308 ,1.73454 ,-0.88192 ,-8.65336 
390 ,84.2391 ,1.73649 ,-0.89903 ,-8.82125 
391 ,84.4628 ,1.73870 ,-0.89560 ,-8.78767 
392 ,84.6710 ,1.74083 ,-0.93325 ,-9.15703 
393 ,84.8953 ,1.74302 ,-0.94009 ,-9.22419 
394 ,85.1195 ,1.74531 ,-0.95036 ,-9.32492 
395 ,85.3436 ,1.74754 ,-0.95720 ,-9.39208 
396 ,85.5513 ,1.74958 ,-0.97431 ,-9.55997 
397 ,85.7914 ,1.75201 ,-0.98800 ,-9.69429 
398 ,85.9999 ,1.75411 ,-1.00511 ,-9.86218 
399 ,86.2077 ,1.75618 ,-1.00169 ,-9.82860 
400 ,86.4318 ,1.75834 ,-1.01880 ,-9.99649 
401 ,86.6402 ,1.76047 ,-1.02907 ,-10.09723 
402 ,86.8801 ,1.76284 ,-1.01880 ,-9.99649 
403 ,87.0883 ,1.76494 ,-1.03249 ,-10.13080 
404 ,87.3284 ,1.76729 ,-1.05302 ,-10.33227 
405 ,87.5361 ,1.76944 ,-1.09409 ,-10.73521 
406 ,87.7443 ,1.77151 ,-1.06671 ,-10.46659 
407 ,87.9686 ,1.77380 ,-1.08382 ,-10.63448 
408 ,88.1767 ,1.77580 ,-1.10093 ,-10.80237 
409 ,88.4008 ,1.77806 ,-1.10436 ,-10.83595 
410 ,88.6410 ,1.78033 ,-1.11462 ,-10.93668 
411 ,88.8649 ,1.78271 ,-1.12831 ,-11.07100 
412 ,89.0730 ,1.78475 ,-1.14884 ,-11.27247 
413 ,89.2967 ,1.78701 ,-1.16253 ,-11.40678 
414 ,89.5052 ,1.78911 ,-1.15569 ,-11.33962 
415 ,89.7134 ,1.79118 ,-1.18991 ,-11.67541 
416 ,89.9374 ,1.79345 ,-1.20018 ,-11.77614 
417 ,90.1614 ,1.79568 ,-1.18649 ,-11.64183 
418 ,90.3853 ,1.79791 ,-1.18649 ,-11.64183 
419 ,90.5936 ,1.79999 ,-1.22755 ,-12.04477 
420 ,90.8336 ,1.80238 ,-1.23782 ,-12.14550 
421 ,91.0419 ,1.80444 ,-1.23440 ,-12.11192 
422 ,91.2658 ,1.80666 ,-1.25151 ,-12.27981 
423 ,91.4740 ,1.80878 ,-1.27547 ,-12.51486 
424 ,91.6822 ,1.81084 ,-1.25835 ,-12.34697 
425 ,91.9061 ,1.81305 ,-1.26520 ,-12.41413 
426 ,92.1143 ,1.81517 ,-1.30969 ,-12.85065 
427 ,92.3698 ,1.81765 ,-1.31653 ,-12.91780 
428 ,92.5939 ,1.81990 ,-1.31995 ,-12.95138 
429 ,92.8181 ,1.82222 ,-1.33706 ,-13.11927 
430 ,93.0101 ,1.82425 ,-1.31995 ,-12.95138 
431 ,93.2183 ,1.82620 ,-1.36102 ,-13.35432 
432 ,93.4264 ,1.82827 ,-1.35075 ,-13.25359 
433 ,93.6347 ,1.83036 ,-1.37813 ,-13.52221 
434 ,93.8431 ,1.83250 ,-1.36786 ,-13.42148 
435 ,94.0670 ,1.83465 ,-1.36444 ,-13.38790 
436 ,94.2749 ,1.83678 ,-1.39866 ,-13.72368 
437 ,94.4827 ,1.83884 ,-1.38840 ,-13.62295 
438 ,94.6912 ,1.84098 ,-1.42262 ,-13.95873 
439 ,94.9152 ,1.84312 ,-1.42946 ,-14.02589 
440 ,95.1396 ,1.84538 ,-1.41577 ,-13.89157 
441 ,95.3477 ,1.84748 ,-1.42262 ,-13.95873 
442 ,95.5553 ,1.84958 ,-1.46026 ,-14.32809 
443 ,95.7640 ,1.85166 ,-1.44657 ,-14.19378 
444 ,95.9877 ,1.85391 ,-1.46368 ,-14.36167 
445 ,96.1959 ,1.85599 ,-1.48080 ,-14.52956 
446 ,96.4201 ,1.85818 ,-1.47395 ,-14.46240 
447 ,96.6277 ,1.86032 ,-1.49448 ,-14.66387 
448 ,96.8362 ,1.86248 ,-1.52528 ,-14.96608 
449 ,97.0601 ,1.86458 ,-1.51159 ,-14.83177 
450 ,97.2683 ,1.86665 ,-1.53213 ,-15.03324 
451 ,97.4765 ,1.86876 ,-1.54582 ,-15.16755 
452 ,97.6846 ,1.87090 ,-1.52871 ,-14.99966 
453 ,97.9085 ,1.87311 ,-1.56293 ,-15.33544 
454 ,98.1167 ,1.87517 ,-1.58004 ,-15.50333 
455 ,98.3407 ,1.87743 ,-1.56293 ,-15.33544 
456 ,98.5328 ,1.87936 ,-1.59715 ,-15.67122 
457 ,98.7410 ,1.88146 ,-1.58346 ,-15.53691 
458 ,98.9487 ,1.88350 ,-1.60057 ,-15.70480 
459 ,99.1573 ,1.88554 ,-1.61768 ,-15.87269 
460 ,99.3813 ,1.88780 ,-1.59373 ,-15.63764 
