Data stamp = , 18-05-2022 20:41:57 818

Calibration Values: 
Slope = , 26.54 , g/V 
Offset Voltage at no contact = , -0.501760 , V 

No , Time , Stage Position ,   Mass , Force 
   ,  (s) ,      (mm)      ,   (g)  , (mN)  

1 ,0.0000 ,0.89963 ,5.28825 ,51.88832 
2 ,0.2070 ,0.89971 ,5.28141 ,51.82116 
3 ,0.9276 ,0.90288 ,5.27798 ,51.78758 
4 ,1.1675 ,0.90591 ,5.29852 ,51.98905 
5 ,1.3918 ,0.90813 ,5.29510 ,51.95548 
6 ,1.5996 ,0.91030 ,5.27456 ,51.75401 
7 ,1.8081 ,0.91247 ,5.24376 ,51.45180 
8 ,2.0156 ,0.91450 ,5.24034 ,51.41822 
9 ,2.2396 ,0.91683 ,5.21981 ,51.21675 
10 ,2.4479 ,0.91878 ,5.17874 ,50.81381 
11 ,2.6560 ,0.92088 ,5.17190 ,50.74666 
12 ,2.8801 ,0.92310 ,5.12741 ,50.31014 
13 ,3.1366 ,0.92568 ,5.13083 ,50.34372 
14 ,3.3608 ,0.92791 ,5.09661 ,50.00793 
15 ,3.5687 ,0.92995 ,5.06923 ,49.73931 
16 ,3.7449 ,0.93196 ,5.05554 ,49.60499 
17 ,3.9364 ,0.93387 ,5.03159 ,49.36995 
18 ,4.1290 ,0.93565 ,5.00079 ,49.06774 
19 ,4.3212 ,0.93762 ,5.01106 ,49.16848 
20 ,4.5292 ,0.93966 ,4.97683 ,48.83269 
21 ,4.7374 ,0.94168 ,4.97683 ,48.83269 
22 ,4.9610 ,0.94396 ,4.93919 ,48.46333 
23 ,5.1856 ,0.94613 ,4.89812 ,48.06039 
24 ,5.3936 ,0.94821 ,4.90839 ,48.16113 
25 ,5.6177 ,0.95050 ,4.88101 ,47.89250 
26 ,5.8258 ,0.95254 ,4.85706 ,47.65745 
27 ,6.0496 ,0.95477 ,4.82626 ,47.35525 
28 ,6.3062 ,0.95741 ,4.78861 ,46.98589 
29 ,6.5297 ,0.95963 ,4.77493 ,46.85157 
30 ,6.7541 ,0.96181 ,4.77835 ,46.88515 
31 ,6.9781 ,0.96409 ,4.74413 ,46.54937 
32 ,7.1705 ,0.96605 ,4.73044 ,46.41506 
33 ,7.3782 ,0.96814 ,4.69279 ,46.04569 
34 ,7.6024 ,0.97035 ,4.66884 ,45.81065 
35 ,7.8106 ,0.97239 ,4.65857 ,45.70991 
36 ,8.0346 ,0.97462 ,4.64488 ,45.57560 
37 ,8.2107 ,0.97658 ,4.60040 ,45.13908 
38 ,8.4348 ,0.97863 ,4.61066 ,45.23981 
39 ,8.6430 ,0.98072 ,4.57302 ,44.87045 
40 ,8.8509 ,0.98283 ,4.56275 ,44.76972 
41 ,9.0590 ,0.98500 ,4.56275 ,44.76972 
42 ,9.2509 ,0.98685 ,4.52511 ,44.40036 
43 ,9.4588 ,0.98897 ,4.51826 ,44.33320 
44 ,9.6511 ,0.99089 ,4.47378 ,43.89668 
45 ,9.8594 ,0.99286 ,4.47378 ,43.89668 
46 ,10.0675 ,0.99499 ,4.45324 ,43.69521 
47 ,10.2914 ,0.99720 ,4.43271 ,43.49374 
48 ,10.4993 ,0.99927 ,4.41218 ,43.29227 
49 ,10.7078 ,1.00141 ,4.38138 ,42.99007 
50 ,10.9314 ,1.00361 ,4.37111 ,42.88933 
51 ,11.1399 ,1.00568 ,4.35058 ,42.68786 
52 ,11.3640 ,1.00787 ,4.32662 ,42.45282 
53 ,11.5720 ,1.00998 ,4.31978 ,42.38566 
54 ,11.7961 ,1.01230 ,4.30609 ,42.25135 
55 ,12.0202 ,1.01449 ,4.27187 ,41.91556 
56 ,12.2282 ,1.01654 ,4.25133 ,41.71409 
57 ,12.4364 ,1.01870 ,4.24791 ,41.68051 
58 ,12.6444 ,1.02070 ,4.20685 ,41.27758 
59 ,12.8366 ,1.02272 ,4.21711 ,41.37831 
60 ,13.0287 ,1.02462 ,4.17262 ,40.94179 
61 ,13.2207 ,1.02661 ,4.17605 ,40.97537 
62 ,13.4129 ,1.02844 ,4.14867 ,40.70674 
63 ,13.6370 ,1.03064 ,4.13156 ,40.53885 
64 ,13.8447 ,1.03274 ,4.09734 ,40.20307 
65 ,14.0528 ,1.03482 ,4.08707 ,40.10233 
66 ,14.2771 ,1.03707 ,4.08023 ,40.03518 
67 ,14.4692 ,1.03902 ,4.04600 ,39.69940 
68 ,14.6771 ,1.04109 ,4.04600 ,39.69940 
69 ,14.8853 ,1.04320 ,4.00152 ,39.26288 
70 ,15.1254 ,1.04543 ,3.99809 ,39.22930 
71 ,15.3495 ,1.04775 ,3.96729 ,38.92709 
72 ,15.5578 ,1.04983 ,3.97072 ,38.96067 
73 ,15.7657 ,1.05190 ,3.90912 ,38.35626 
74 ,15.9899 ,1.05416 ,3.90570 ,38.32268 
75 ,16.1979 ,1.05632 ,3.90227 ,38.28911 
76 ,16.4221 ,1.05852 ,3.87832 ,38.05406 
77 ,16.6456 ,1.06071 ,3.84752 ,37.75185 
78 ,16.8542 ,1.06281 ,3.84410 ,37.71828 
79 ,17.0622 ,1.06493 ,3.81672 ,37.44965 
80 ,17.3023 ,1.06730 ,3.77908 ,37.08029 
81 ,17.5264 ,1.06958 ,3.75512 ,36.84524 
82 ,17.7344 ,1.07168 ,3.77223 ,37.01313 
83 ,17.9424 ,1.07369 ,3.73117 ,36.61019 
84 ,18.1666 ,1.07582 ,3.72774 ,36.57661 
85 ,18.3586 ,1.07795 ,3.70721 ,36.37514 
86 ,18.5670 ,1.07989 ,3.66957 ,36.00578 
87 ,18.7751 ,1.08203 ,3.66614 ,35.97220 
88 ,18.9831 ,1.08412 ,3.62508 ,35.56926 
89 ,19.2072 ,1.08635 ,3.61139 ,35.43495 
90 ,19.4148 ,1.08842 ,3.61139 ,35.43495 
91 ,19.6233 ,1.09046 ,3.58401 ,35.16632 
92 ,19.8314 ,1.09258 ,3.56006 ,34.93128 
93 ,20.0395 ,1.09470 ,3.56006 ,34.93128 
94 ,20.2312 ,1.09674 ,3.52584 ,34.59549 
95 ,20.4393 ,1.09873 ,3.52241 ,34.56192 
96 ,20.6476 ,1.10078 ,3.50188 ,34.36045 
97 ,20.8554 ,1.10292 ,3.48135 ,34.15898 
98 ,21.0640 ,1.10487 ,3.45739 ,33.92393 
99 ,21.2720 ,1.10698 ,3.45055 ,33.85677 
100 ,21.4641 ,1.10892 ,3.41975 ,33.55457 
101 ,21.6561 ,1.11092 ,3.40948 ,33.45383 
102 ,21.8323 ,1.11273 ,3.38210 ,33.18520 
103 ,22.0564 ,1.11474 ,3.40264 ,33.38667 
104 ,22.2804 ,1.11703 ,3.36499 ,33.01731 
105 ,22.4885 ,1.11911 ,3.32735 ,32.64795 
106 ,22.6961 ,1.12131 ,3.31366 ,32.51364 
107 ,22.9048 ,1.12327 ,3.29997 ,32.37933 
108 ,23.1288 ,1.12554 ,3.26917 ,32.07712 
109 ,23.3369 ,1.12762 ,3.27259 ,32.11070 
110 ,23.5448 ,1.12971 ,3.23495 ,31.74134 
111 ,23.7527 ,1.13178 ,3.23153 ,31.70776 
112 ,23.9612 ,1.13389 ,3.21442 ,31.53987 
113 ,24.1692 ,1.13608 ,3.16993 ,31.10335 
114 ,24.3773 ,1.13799 ,3.18020 ,31.20409 
115 ,24.6175 ,1.14030 ,3.14597 ,30.86830 
116 ,24.8253 ,1.14249 ,3.11860 ,30.59968 
117 ,25.0336 ,1.14459 ,3.12544 ,30.66683 
118 ,25.2415 ,1.14669 ,3.10491 ,30.46536 
119 ,25.4658 ,1.14880 ,3.06726 ,30.09600 
120 ,25.6738 ,1.15094 ,3.07069 ,30.12958 
121 ,25.8659 ,1.15294 ,3.02278 ,29.65948 
122 ,26.0739 ,1.15494 ,3.03989 ,29.82737 
123 ,26.2822 ,1.15707 ,3.01593 ,29.59233 
124 ,26.5064 ,1.15925 ,2.97144 ,29.15581 
125 ,26.7143 ,1.16140 ,2.97487 ,29.18939 
126 ,26.9224 ,1.16358 ,2.97487 ,29.18939 
127 ,27.1140 ,1.16543 ,2.94064 ,28.85360 
128 ,27.3066 ,1.16740 ,2.91669 ,28.61856 
129 ,27.4990 ,1.16927 ,2.90985 ,28.55140 
130 ,27.7224 ,1.17142 ,2.88247 ,28.28277 
131 ,27.9309 ,1.17354 ,2.86193 ,28.08130 
132 ,28.1706 ,1.17585 ,2.85851 ,28.04772 
133 ,28.3791 ,1.17804 ,2.83456 ,27.81268 
134 ,28.6031 ,1.18029 ,2.79349 ,27.40974 
135 ,28.8114 ,1.18231 ,2.79349 ,27.40974 
136 ,29.0193 ,1.18445 ,2.77296 ,27.20827 
137 ,29.2430 ,1.18664 ,2.73874 ,26.87248 
138 ,29.4674 ,1.18878 ,2.73874 ,26.87248 
139 ,29.6913 ,1.19111 ,2.72505 ,26.73817 
140 ,29.8835 ,1.19316 ,2.70452 ,26.53670 
141 ,30.0916 ,1.19514 ,2.68398 ,26.33523 
142 ,30.2997 ,1.19725 ,2.66003 ,26.10018 
143 ,30.4917 ,1.19923 ,2.63949 ,25.89871 
144 ,30.7000 ,1.20117 ,2.62923 ,25.79798 
145 ,30.9082 ,1.20329 ,2.60527 ,25.56293 
146 ,31.1161 ,1.20537 ,2.60527 ,25.56293 
147 ,31.2921 ,1.20731 ,2.56078 ,25.12641 
148 ,31.5157 ,1.20933 ,2.56763 ,25.19357 
149 ,31.6923 ,1.21129 ,2.54710 ,24.99210 
150 ,31.9006 ,1.21318 ,2.53683 ,24.89136 
151 ,32.1240 ,1.21549 ,2.49918 ,24.52200 
152 ,32.3321 ,1.21755 ,2.49234 ,24.45485 
153 ,32.5565 ,1.21973 ,2.48207 ,24.35411 
154 ,32.7809 ,1.22204 ,2.45127 ,24.05191 
155 ,33.0051 ,1.22423 ,2.42390 ,23.78328 
156 ,33.2126 ,1.22630 ,2.43416 ,23.88402 
157 ,33.4049 ,1.22830 ,2.39652 ,23.51465 
158 ,33.6133 ,1.23037 ,2.39652 ,23.51465 
159 ,33.8372 ,1.23261 ,2.36914 ,23.24603 
160 ,34.0613 ,1.23481 ,2.34861 ,23.04456 
161 ,34.2695 ,1.23687 ,2.34177 ,22.97740 
162 ,34.4773 ,1.23898 ,2.33492 ,22.91024 
163 ,34.6697 ,1.24093 ,2.30412 ,22.60804 
164 ,34.8776 ,1.24311 ,2.30070 ,22.57446 
165 ,35.0698 ,1.24491 ,2.27332 ,22.30584 
166 ,35.2776 ,1.24704 ,2.26990 ,22.27226 
167 ,35.4700 ,1.24904 ,2.23226 ,21.90290 
168 ,35.6621 ,1.25095 ,2.23910 ,21.97005 
169 ,35.8698 ,1.25287 ,2.21172 ,21.70143 
170 ,36.0781 ,1.25501 ,2.18435 ,21.43280 
171 ,36.2862 ,1.25717 ,2.17066 ,21.29849 
172 ,36.4945 ,1.25917 ,2.17408 ,21.33206 
173 ,36.7023 ,1.26125 ,2.12275 ,20.82839 
174 ,36.9106 ,1.26335 ,2.13301 ,20.92912 
175 ,37.1343 ,1.26554 ,2.11590 ,20.76123 
176 ,37.3588 ,1.26777 ,2.09195 ,20.52619 
177 ,37.5509 ,1.26981 ,2.06457 ,20.25756 
178 ,37.7589 ,1.27176 ,2.05773 ,20.19040 
179 ,37.9991 ,1.27405 ,2.03035 ,19.92178 
180 ,38.2071 ,1.27624 ,2.01666 ,19.78746 
181 ,38.4313 ,1.27847 ,2.00982 ,19.72031 
182 ,38.6395 ,1.28056 ,1.99613 ,19.58599 
183 ,38.8633 ,1.28280 ,1.97217 ,19.35094 
184 ,39.0713 ,1.28491 ,1.95506 ,19.18305 
185 ,39.2954 ,1.28727 ,1.95506 ,19.18305 
186 ,39.4876 ,1.28912 ,1.91399 ,18.78011 
187 ,39.6953 ,1.29122 ,1.92426 ,18.88085 
188 ,39.8873 ,1.29317 ,1.88662 ,18.51149 
189 ,40.0956 ,1.29513 ,1.88662 ,18.51149 
190 ,40.3036 ,1.29724 ,1.84897 ,18.14213 
191 ,40.4960 ,1.29931 ,1.84897 ,18.14213 
192 ,40.7042 ,1.30120 ,1.81475 ,17.80634 
193 ,40.9120 ,1.30329 ,1.83528 ,18.00781 
194 ,41.1202 ,1.30536 ,1.79422 ,17.60487 
195 ,41.3123 ,1.30734 ,1.80106 ,17.67203 
196 ,41.5364 ,1.30951 ,1.77026 ,17.36983 
197 ,41.7445 ,1.31158 ,1.72235 ,16.89973 
198 ,41.9525 ,1.31368 ,1.74631 ,17.13478 
199 ,42.1287 ,1.31563 ,1.71209 ,16.79899 
200 ,42.3368 ,1.31759 ,1.70866 ,16.76542 
201 ,42.5285 ,1.31961 ,1.68471 ,16.53037 
202 ,42.7371 ,1.32160 ,1.68129 ,16.49679 
203 ,42.9771 ,1.32381 ,1.65049 ,16.19458 
204 ,43.1852 ,1.32606 ,1.63680 ,16.06027 
205 ,43.3933 ,1.32814 ,1.64364 ,16.12743 
206 ,43.6012 ,1.33017 ,1.60258 ,15.72449 
207 ,43.8253 ,1.33247 ,1.60258 ,15.72449 
208 ,44.0495 ,1.33467 ,1.57178 ,15.42228 
209 ,44.2576 ,1.33671 ,1.57520 ,15.45586 
210 ,44.4656 ,1.33878 ,1.54098 ,15.12008 
211 ,44.6739 ,1.34086 ,1.54098 ,15.12008 
212 ,44.8816 ,1.34298 ,1.50676 ,14.78430 
213 ,45.0898 ,1.34506 ,1.51702 ,14.88503 
214 ,45.2980 ,1.34715 ,1.49307 ,14.64998 
215 ,45.5062 ,1.34916 ,1.45885 ,14.31420 
216 ,45.7302 ,1.35142 ,1.47253 ,14.44851 
217 ,45.9379 ,1.35350 ,1.44174 ,14.14631 
218 ,46.1304 ,1.35550 ,1.43489 ,14.07915 
219 ,46.3222 ,1.35741 ,1.40751 ,13.81053 
220 ,46.4986 ,1.35935 ,1.41436 ,13.87768 
221 ,46.6903 ,1.36121 ,1.36987 ,13.44116 
222 ,46.8826 ,1.36302 ,1.36987 ,13.44116 
223 ,47.0905 ,1.36503 ,1.37329 ,13.47474 
224 ,47.2989 ,1.36716 ,1.33907 ,13.13896 
225 ,47.5070 ,1.36918 ,1.32538 ,13.00465 
226 ,47.7151 ,1.37124 ,1.31512 ,12.90391 
227 ,47.9231 ,1.37343 ,1.29116 ,12.66886 
228 ,48.1311 ,1.37557 ,1.27747 ,12.53455 
229 ,48.3231 ,1.37745 ,1.26378 ,12.40024 
230 ,48.5313 ,1.37952 ,1.26720 ,12.43381 
231 ,48.7394 ,1.38156 ,1.24667 ,12.23235 
232 ,48.9633 ,1.38382 ,1.21587 ,11.93014 
233 ,49.1711 ,1.38582 ,1.22956 ,12.06445 
234 ,49.3796 ,1.38794 ,1.18507 ,11.62794 
235 ,49.5714 ,1.38991 ,1.18850 ,11.66151 
236 ,49.7956 ,1.39204 ,1.16112 ,11.39289 
237 ,50.0199 ,1.39433 ,1.14401 ,11.22500 
238 ,50.2124 ,1.39638 ,1.13032 ,11.09068 
239 ,50.4361 ,1.39850 ,1.11321 ,10.92279 
240 ,50.6600 ,1.40073 ,1.09610 ,10.75490 
241 ,50.8681 ,1.40278 ,1.08241 ,10.62059 
242 ,51.0603 ,1.40481 ,1.07214 ,10.51985 
243 ,51.2844 ,1.40695 ,1.05161 ,10.31838 
244 ,51.5087 ,1.40925 ,1.05161 ,10.31838 
245 ,51.7324 ,1.41144 ,1.03792 ,10.18407 
246 ,51.9566 ,1.41377 ,1.01739 ,9.98260 
247 ,52.1808 ,1.41596 ,0.97974 ,9.61324 
248 ,52.3889 ,1.41814 ,0.97290 ,9.54608 
249 ,52.5970 ,1.42013 ,0.96605 ,9.47892 
250 ,52.8210 ,1.42231 ,0.95237 ,9.34461 
251 ,53.0452 ,1.42447 ,0.94210 ,9.24388 
252 ,53.2691 ,1.42683 ,0.92499 ,9.07598 
253 ,53.4933 ,1.42902 ,0.92499 ,9.07598 
254 ,53.7015 ,1.43117 ,0.88734 ,8.70662 
255 ,53.9256 ,1.43333 ,0.86681 ,8.50515 
256 ,54.1497 ,1.43565 ,0.87023 ,8.53873 
257 ,54.3414 ,1.43772 ,0.85654 ,8.40442 
258 ,54.5498 ,1.43973 ,0.82575 ,8.10221 
259 ,54.7420 ,1.44160 ,0.82232 ,8.06864 
260 ,54.9499 ,1.44369 ,0.81548 ,8.00148 
261 ,55.1741 ,1.44582 ,0.80863 ,7.93432 
262 ,55.3981 ,1.44811 ,0.78126 ,7.66570 
263 ,55.6062 ,1.45014 ,0.76757 ,7.53138 
264 ,55.7979 ,1.45227 ,0.76757 ,7.53138 
265 ,56.0065 ,1.45415 ,0.73335 ,7.19560 
266 ,56.2144 ,1.45636 ,0.74361 ,7.29633 
267 ,56.4224 ,1.45830 ,0.70597 ,6.92697 
268 ,56.6306 ,1.46038 ,0.71281 ,6.99413 
269 ,56.8384 ,1.46251 ,0.67859 ,6.65835 
270 ,57.0468 ,1.46461 ,0.66833 ,6.55761 
271 ,57.2709 ,1.46681 ,0.66833 ,6.55761 
272 ,57.4787 ,1.46890 ,0.64779 ,6.35614 
273 ,57.7030 ,1.47114 ,0.61357 ,6.02036 
274 ,57.8791 ,1.47306 ,0.64437 ,6.32256 
275 ,58.0710 ,1.47496 ,0.61015 ,5.98678 
276 ,58.2951 ,1.47693 ,0.58277 ,5.71815 
277 ,58.5035 ,1.47916 ,0.57935 ,5.68458 
278 ,58.7117 ,1.48120 ,0.57251 ,5.61742 
279 ,58.9357 ,1.48341 ,0.54855 ,5.38237 
280 ,59.1597 ,1.48567 ,0.53486 ,5.24806 
281 ,59.3678 ,1.48777 ,0.51433 ,5.04659 
282 ,59.5916 ,1.48996 ,0.51091 ,5.01301 
283 ,59.8157 ,1.49223 ,0.50406 ,4.94585 
284 ,60.0241 ,1.49434 ,0.47668 ,4.67723 
285 ,60.2480 ,1.49656 ,0.47668 ,4.67723 
286 ,60.4402 ,1.49857 ,0.44246 ,4.34144 
287 ,60.6642 ,1.50069 ,0.43220 ,4.24071 
288 ,60.8882 ,1.50306 ,0.42535 ,4.17355 
289 ,61.0965 ,1.50509 ,0.42535 ,4.17355 
290 ,61.2881 ,1.50708 ,0.39797 ,3.90493 
291 ,61.4967 ,1.50904 ,0.39455 ,3.87135 
292 ,61.7047 ,1.51111 ,0.35691 ,3.50199 
293 ,61.9288 ,1.51338 ,0.37402 ,3.66988 
294 ,62.1365 ,1.51549 ,0.34664 ,3.40125 
295 ,62.3285 ,1.51745 ,0.33638 ,3.30052 
296 ,62.5367 ,1.51946 ,0.32953 ,3.23336 
297 ,62.7451 ,1.52162 ,0.30900 ,3.03189 
298 ,62.9692 ,1.52380 ,0.30215 ,2.96473 
299 ,63.1773 ,1.52583 ,0.27820 ,2.72969 
300 ,63.4015 ,1.52806 ,0.27478 ,2.69611 
301 ,63.6255 ,1.53040 ,0.26793 ,2.62895 
302 ,63.8336 ,1.53249 ,0.25767 ,2.52822 
303 ,64.0417 ,1.53454 ,0.22002 ,2.15885 
304 ,64.2498 ,1.53658 ,0.23029 ,2.25959 
305 ,64.4577 ,1.53868 ,0.19949 ,1.95738 
306 ,64.6499 ,1.54059 ,0.20633 ,2.02454 
307 ,64.8579 ,1.54263 ,0.17553 ,1.72234 
308 ,65.0661 ,1.54479 ,0.16527 ,1.62160 
309 ,65.2742 ,1.54679 ,0.15500 ,1.52087 
310 ,65.4820 ,1.54893 ,0.13447 ,1.31940 
311 ,65.6740 ,1.55085 ,0.13789 ,1.35298 
312 ,65.8822 ,1.55292 ,0.10709 ,1.05077 
313 ,66.0903 ,1.55498 ,0.12078 ,1.18508 
314 ,66.2984 ,1.55708 ,0.09682 ,0.95004 
315 ,66.5227 ,1.55929 ,0.06945 ,0.68141 
316 ,66.7308 ,1.56141 ,0.07971 ,0.78214 
317 ,66.9547 ,1.56367 ,0.03522 ,0.34563 
318 ,67.1788 ,1.56585 ,0.02838 ,0.27847 
319 ,67.3871 ,1.56795 ,0.03180 ,0.31205 
320 ,67.6113 ,1.57020 ,0.02154 ,0.21131 
321 ,67.8193 ,1.57228 ,-0.01611 ,-0.15805 
322 ,68.0593 ,1.57458 ,-0.00926 ,-0.09089 
323 ,68.2832 ,1.57689 ,-0.03664 ,-0.35952 
324 ,68.5076 ,1.57907 ,-0.02295 ,-0.22520 
325 ,68.7156 ,1.58123 ,-0.04691 ,-0.46025 
326 ,68.9237 ,1.58333 ,-0.07428 ,-0.72888 
327 ,69.1477 ,1.58554 ,-0.06402 ,-0.62814 
328 ,69.3558 ,1.58764 ,-0.09824 ,-0.96393 
329 ,69.5640 ,1.58971 ,-0.10508 ,-1.03108 
330 ,69.7721 ,1.59180 ,-0.10851 ,-1.06466 
331 ,69.9962 ,1.59398 ,-0.13588 ,-1.33329 
332 ,70.1881 ,1.59602 ,-0.14615 ,-1.43402 
333 ,70.3803 ,1.59789 ,-0.15642 ,-1.53476 
334 ,70.5563 ,1.59978 ,-0.14615 ,-1.43402 
335 ,70.7644 ,1.60172 ,-0.17695 ,-1.73623 
336 ,70.9726 ,1.60382 ,-0.18379 ,-1.80338 
337 ,71.1962 ,1.60605 ,-0.22144 ,-2.17275 
338 ,71.4047 ,1.60815 ,-0.22144 ,-2.17275 
339 ,71.6288 ,1.61034 ,-0.22144 ,-2.17275 
340 ,71.8530 ,1.61254 ,-0.24197 ,-2.37422 
341 ,72.0610 ,1.61465 ,-0.27277 ,-2.67642 
342 ,72.2847 ,1.61687 ,-0.26593 ,-2.60926 
343 ,72.4930 ,1.61899 ,-0.28304 ,-2.77716 
344 ,72.6852 ,1.62106 ,-0.30357 ,-2.97863 
345 ,72.8933 ,1.62300 ,-0.28988 ,-2.84431 
346 ,73.1173 ,1.62522 ,-0.32410 ,-3.18010 
347 ,73.3254 ,1.62735 ,-0.31726 ,-3.11294 
348 ,73.5493 ,1.62955 ,-0.34121 ,-3.34799 
349 ,73.7736 ,1.63175 ,-0.34806 ,-3.41514 
350 ,73.9498 ,1.63370 ,-0.35490 ,-3.48230 
351 ,74.1579 ,1.63561 ,-0.38570 ,-3.78450 
352 ,74.3815 ,1.63783 ,-0.39939 ,-3.91882 
353 ,74.5575 ,1.63979 ,-0.39255 ,-3.85166 
354 ,74.7662 ,1.64166 ,-0.39255 ,-3.85166 
355 ,74.9903 ,1.64390 ,-0.41308 ,-4.05313 
356 ,75.2142 ,1.64616 ,-0.44046 ,-4.32176 
357 ,75.4221 ,1.64825 ,-0.44730 ,-4.38891 
358 ,75.6140 ,1.65019 ,-0.45414 ,-4.45607 
359 ,75.8226 ,1.65226 ,-0.46441 ,-4.55681 
360 ,76.0465 ,1.65450 ,-0.47468 ,-4.65754 
361 ,76.2548 ,1.65657 ,-0.49521 ,-4.85901 
362 ,76.4789 ,1.65883 ,-0.52259 ,-5.12764 
363 ,76.6706 ,1.66083 ,-0.49863 ,-4.89259 
364 ,76.8951 ,1.66303 ,-0.54312 ,-5.32911 
365 ,77.1192 ,1.66523 ,-0.53628 ,-5.26195 
366 ,77.3273 ,1.66739 ,-0.52943 ,-5.19479 
367 ,77.5193 ,1.66935 ,-0.57050 ,-5.59773 
368 ,77.6954 ,1.67115 ,-0.56365 ,-5.53058 
369 ,77.8869 ,1.67304 ,-0.57734 ,-5.66489 
370 ,78.0796 ,1.67486 ,-0.59445 ,-5.83278 
371 ,78.2874 ,1.67692 ,-0.59103 ,-5.79920 
372 ,78.5278 ,1.67918 ,-0.60130 ,-5.89994 
373 ,78.7515 ,1.68149 ,-0.61499 ,-6.03425 
374 ,78.9595 ,1.68355 ,-0.64579 ,-6.33646 
375 ,79.1519 ,1.68558 ,-0.64579 ,-6.33646 
376 ,79.3600 ,1.68776 ,-0.68685 ,-6.73940 
377 ,79.5522 ,1.68958 ,-0.65947 ,-6.47077 
378 ,79.7763 ,1.69176 ,-0.70054 ,-6.87371 
379 ,80.0000 ,1.69404 ,-0.70396 ,-6.90729 
380 ,80.2084 ,1.69614 ,-0.69370 ,-6.80655 
381 ,80.4166 ,1.69817 ,-0.73134 ,-7.17591 
382 ,80.6245 ,1.70025 ,-0.71081 ,-6.97444 
383 ,80.8009 ,1.70222 ,-0.75187 ,-7.37738 
384 ,81.0087 ,1.70410 ,-0.74845 ,-7.34380 
385 ,81.2168 ,1.70616 ,-0.76556 ,-7.51170 
386 ,81.3927 ,1.70811 ,-0.76556 ,-7.51170 
387 ,81.6011 ,1.71003 ,-0.77583 ,-7.61243 
388 ,81.8090 ,1.71212 ,-0.77925 ,-7.64601 
389 ,82.0011 ,1.71409 ,-0.80321 ,-7.88106 
390 ,82.2089 ,1.71620 ,-0.79636 ,-7.81390 
391 ,82.4172 ,1.71825 ,-0.82374 ,-8.08253 
392 ,82.6254 ,1.72025 ,-0.81005 ,-7.94821 
393 ,82.8333 ,1.72232 ,-0.84427 ,-8.28400 
394 ,83.0411 ,1.72441 ,-0.84769 ,-8.31758 
395 ,83.2336 ,1.72639 ,-0.87507 ,-8.58620 
396 ,83.4577 ,1.72862 ,-0.88192 ,-8.65336 
397 ,83.6817 ,1.73082 ,-0.87507 ,-8.58620 
398 ,83.9060 ,1.73299 ,-0.88876 ,-8.72051 
399 ,84.1141 ,1.73521 ,-0.91272 ,-8.95556 
400 ,84.3221 ,1.73723 ,-0.91614 ,-8.98914 
401 ,84.5300 ,1.73935 ,-0.92983 ,-9.12345 
402 ,84.7223 ,1.74125 ,-0.93667 ,-9.19061 
403 ,84.9464 ,1.74350 ,-0.93667 ,-9.19061 
404 ,85.1225 ,1.74538 ,-0.96405 ,-9.45924 
405 ,85.3306 ,1.74743 ,-0.97431 ,-9.55997 
406 ,85.5382 ,1.74937 ,-0.99143 ,-9.72786 
407 ,85.7469 ,1.75150 ,-0.98116 ,-9.62713 
408 ,85.9709 ,1.75372 ,-1.01196 ,-9.92933 
409 ,86.1951 ,1.75595 ,-1.02565 ,-10.06365 
410 ,86.4191 ,1.75818 ,-1.02907 ,-10.09723 
411 ,86.6267 ,1.76041 ,-1.01880 ,-9.99649 
412 ,86.8351 ,1.76240 ,-1.04960 ,-10.29869 
413 ,87.0594 ,1.76459 ,-1.05302 ,-10.33227 
414 ,87.2676 ,1.76670 ,-1.06671 ,-10.46659 
415 ,87.4915 ,1.76888 ,-1.08725 ,-10.66806 
416 ,87.7153 ,1.77109 ,-1.10093 ,-10.80237 
417 ,87.9238 ,1.77320 ,-1.09067 ,-10.70163 
418 ,88.1478 ,1.77549 ,-1.11120 ,-10.90310 
419 ,88.3400 ,1.77740 ,-1.11462 ,-10.93668 
420 ,88.5641 ,1.77954 ,-1.12147 ,-11.00384 
421 ,88.7720 ,1.78169 ,-1.14884 ,-11.27247 
422 ,88.9801 ,1.78379 ,-1.13858 ,-11.17173 
423 ,89.2044 ,1.78600 ,-1.15569 ,-11.33962 
424 ,89.4285 ,1.78832 ,-1.16938 ,-11.47394 
425 ,89.6366 ,1.79036 ,-1.20360 ,-11.80972 
426 ,89.8606 ,1.79259 ,-1.20018 ,-11.77614 
427 ,90.0687 ,1.79467 ,-1.20702 ,-11.84330 
428 ,90.2926 ,1.79686 ,-1.23098 ,-12.07834 
429 ,90.5012 ,1.79899 ,-1.23440 ,-12.11192 
430 ,90.7089 ,1.80103 ,-1.23782 ,-12.14550 
431 ,90.9011 ,1.80303 ,-1.23440 ,-12.11192 
432 ,91.1087 ,1.80517 ,-1.24124 ,-12.17908 
433 ,91.3009 ,1.80703 ,-1.25835 ,-12.34697 
434 ,91.4930 ,1.80893 ,-1.28573 ,-12.61560 
435 ,91.7015 ,1.81095 ,-1.26520 ,-12.41413 
436 ,91.9256 ,1.81319 ,-1.28231 ,-12.58202 
437 ,92.1334 ,1.81528 ,-1.31653 ,-12.91780 
438 ,92.3574 ,1.81754 ,-1.31311 ,-12.88422 
439 ,92.5812 ,1.81976 ,-1.31653 ,-12.91780 
440 ,92.7894 ,1.82193 ,-1.34733 ,-13.22001 
441 ,92.9978 ,1.82399 ,-1.34391 ,-13.18643 
442 ,93.2538 ,1.82661 ,-1.36786 ,-13.42148 
443 ,93.4781 ,1.82877 ,-1.37813 ,-13.52221 
444 ,93.7021 ,1.83100 ,-1.38497 ,-13.58937 
445 ,93.8942 ,1.83302 ,-1.40209 ,-13.75726 
446 ,94.0862 ,1.83483 ,-1.38840 ,-13.62295 
447 ,94.3110 ,1.83712 ,-1.41920 ,-13.92515 
448 ,94.5345 ,1.83932 ,-1.42262 ,-13.95873 
449 ,94.7267 ,1.84127 ,-1.43288 ,-14.05946 
450 ,94.9186 ,1.84325 ,-1.44657 ,-14.19378 
451 ,95.1268 ,1.84524 ,-1.46026 ,-14.32809 
452 ,95.3346 ,1.84732 ,-1.47053 ,-14.42883 
453 ,95.5585 ,1.84949 ,-1.45684 ,-14.29451 
454 ,95.7670 ,1.85161 ,-1.50133 ,-14.73103 
455 ,95.9590 ,1.85357 ,-1.49106 ,-14.63030 
456 ,96.1513 ,1.85553 ,-1.50817 ,-14.79819 
457 ,96.3592 ,1.85758 ,-1.49791 ,-14.69745 
458 ,96.5514 ,1.85955 ,-1.52528 ,-14.96608 
459 ,96.7755 ,1.86177 ,-1.52186 ,-14.93250 
460 ,96.9833 ,1.86384 ,-1.53897 ,-15.10039 
