Data stamp = , 18-05-2022 15:48:05 448

Calibration Values: 
Slope = , 26.54 , g/V 
Offset Voltage at no contact = , -0.501760 , V 

No , Time , Stage Position ,   Mass , Force 
   ,  (s) ,      (mm)      ,   (g)  , (mN)  

1 ,0.0000 ,0.89960 ,5.33958 ,52.39199 
2 ,0.2719 ,0.89976 ,5.32932 ,52.29126 
3 ,0.7518 ,0.90150 ,5.34643 ,52.45915 
4 ,1.0081 ,0.90430 ,5.33616 ,52.35841 
5 ,1.2163 ,0.90648 ,5.31905 ,52.19052 
6 ,1.4243 ,0.90851 ,5.33958 ,52.39199 
7 ,1.6320 ,0.91061 ,5.32589 ,52.25768 
8 ,1.8404 ,0.91269 ,5.31221 ,52.12337 
9 ,2.0645 ,0.91495 ,5.30536 ,52.05621 
10 ,2.2726 ,0.91699 ,5.27114 ,51.72043 
11 ,2.4647 ,0.91909 ,5.24034 ,51.41822 
12 ,2.6404 ,0.92090 ,5.23007 ,51.31749 
13 ,2.8328 ,0.92262 ,5.21296 ,51.14960 
14 ,3.0248 ,0.92453 ,5.19585 ,50.98170 
15 ,3.2490 ,0.92674 ,5.17532 ,50.78023 
16 ,3.4412 ,0.92884 ,5.14794 ,50.51161 
17 ,3.6333 ,0.93065 ,5.12399 ,50.27656 
18 ,3.8409 ,0.93286 ,5.10003 ,50.04151 
19 ,4.0495 ,0.93483 ,5.10345 ,50.07509 
20 ,4.2735 ,0.93700 ,5.05212 ,49.57142 
21 ,4.4814 ,0.93909 ,5.04870 ,49.53784 
22 ,4.6734 ,0.94109 ,5.02474 ,49.30279 
23 ,4.8977 ,0.94327 ,5.00079 ,49.06774 
24 ,5.1379 ,0.94559 ,4.99394 ,49.00058 
25 ,5.3621 ,0.94786 ,4.97341 ,48.79911 
26 ,5.5541 ,0.94983 ,4.93919 ,48.46333 
27 ,5.7782 ,0.95203 ,4.91866 ,48.26186 
28 ,5.9863 ,0.95413 ,4.92208 ,48.29544 
29 ,6.2102 ,0.95643 ,4.87417 ,47.82534 
30 ,6.4344 ,0.95863 ,4.83310 ,47.42240 
31 ,6.6583 ,0.96086 ,4.82626 ,47.35525 
32 ,6.8824 ,0.96311 ,4.82626 ,47.35525 
33 ,7.0907 ,0.96518 ,4.80230 ,47.12020 
34 ,7.3146 ,0.96745 ,4.75782 ,46.68368 
35 ,7.5387 ,0.96965 ,4.74070 ,46.51579 
36 ,7.7310 ,0.97161 ,4.73728 ,46.48221 
37 ,7.9547 ,0.97379 ,4.69622 ,46.07927 
38 ,8.1631 ,0.97594 ,4.69622 ,46.07927 
39 ,8.3546 ,0.97792 ,4.66884 ,45.81065 
40 ,8.5628 ,0.97993 ,4.64488 ,45.57560 
41 ,8.7713 ,0.98194 ,4.63119 ,45.44128 
42 ,8.9952 ,0.98420 ,4.59697 ,45.10550 
43 ,9.2033 ,0.98628 ,4.59697 ,45.10550 
44 ,9.4272 ,0.98851 ,4.58328 ,44.97119 
45 ,9.6196 ,0.99058 ,4.54222 ,44.56825 
46 ,9.8436 ,0.99268 ,4.53195 ,44.46751 
47 ,10.0519 ,0.99477 ,4.50115 ,44.16531 
48 ,10.2760 ,0.99704 ,4.47720 ,43.93026 
49 ,10.4837 ,0.99910 ,4.47378 ,43.89668 
50 ,10.7082 ,1.00137 ,4.46693 ,43.82953 
51 ,10.9324 ,1.00360 ,4.42929 ,43.46016 
52 ,11.1402 ,1.00570 ,4.40191 ,43.19154 
53 ,11.3481 ,1.00778 ,4.40191 ,43.19154 
54 ,11.5566 ,1.00978 ,4.36427 ,42.82218 
55 ,11.7643 ,1.01195 ,4.36427 ,42.82218 
56 ,11.9726 ,1.01399 ,4.33004 ,42.48639 
57 ,12.1968 ,1.01630 ,4.30267 ,42.21777 
58 ,12.3887 ,1.01829 ,4.30609 ,42.25135 
59 ,12.6289 ,1.02054 ,4.28898 ,42.08345 
60 ,12.8209 ,1.02256 ,4.23765 ,41.57978 
61 ,13.0291 ,1.02455 ,4.24449 ,41.64694 
62 ,13.2532 ,1.02682 ,4.21027 ,41.31115 
63 ,13.4610 ,1.02887 ,4.20342 ,41.24400 
64 ,13.6855 ,1.03106 ,4.18631 ,41.07611 
65 ,13.8771 ,1.03314 ,4.15209 ,40.74032 
66 ,14.0855 ,1.03510 ,4.14867 ,40.70674 
67 ,14.2937 ,1.03715 ,4.10418 ,40.27023 
68 ,14.5177 ,1.03946 ,4.09391 ,40.16949 
69 ,14.7261 ,1.04153 ,4.08365 ,40.06876 
70 ,14.9496 ,1.04373 ,4.06312 ,39.86729 
71 ,15.1581 ,1.04585 ,4.02889 ,39.53150 
72 ,15.3818 ,1.04803 ,4.01863 ,39.43077 
73 ,15.5742 ,1.05010 ,4.00494 ,39.29646 
74 ,15.7822 ,1.05208 ,3.98441 ,39.09499 
75 ,16.0065 ,1.05426 ,3.97414 ,38.99425 
76 ,16.2146 ,1.05642 ,3.93650 ,38.62489 
77 ,16.4387 ,1.05862 ,3.91254 ,38.38984 
78 ,16.6626 ,1.06090 ,3.90912 ,38.35626 
79 ,16.8708 ,1.06294 ,3.89885 ,38.25553 
80 ,17.0789 ,1.06509 ,3.86121 ,37.88617 
81 ,17.3028 ,1.06722 ,3.84410 ,37.71828 
82 ,17.5111 ,1.06935 ,3.83041 ,37.58396 
83 ,17.7191 ,1.07141 ,3.78934 ,37.18102 
84 ,17.9274 ,1.07346 ,3.79619 ,37.24818 
85 ,18.1513 ,1.07573 ,3.77908 ,37.08029 
86 ,18.3749 ,1.07802 ,3.74828 ,36.77808 
87 ,18.5835 ,1.08005 ,3.73459 ,36.64377 
88 ,18.7916 ,1.08218 ,3.71748 ,36.47588 
89 ,19.0153 ,1.08441 ,3.69010 ,36.20725 
90 ,19.2237 ,1.08646 ,3.67641 ,36.07294 
91 ,19.4315 ,1.08855 ,3.66614 ,35.97220 
92 ,19.6561 ,1.09085 ,3.60797 ,35.40137 
93 ,19.8639 ,1.09295 ,3.61481 ,35.46853 
94 ,20.0721 ,1.09495 ,3.60454 ,35.36779 
95 ,20.2963 ,1.09715 ,3.57375 ,35.06559 
96 ,20.5204 ,1.09942 ,3.54637 ,34.79696 
97 ,20.7443 ,1.10165 ,3.54979 ,34.83054 
98 ,20.9685 ,1.10394 ,3.53268 ,34.66265 
99 ,21.1924 ,1.10610 ,3.49161 ,34.25971 
100 ,21.4007 ,1.10819 ,3.45397 ,33.89035 
101 ,21.6248 ,1.11044 ,3.45397 ,33.89035 
102 ,21.8326 ,1.11249 ,3.44370 ,33.78961 
103 ,22.0410 ,1.11468 ,3.40948 ,33.45383 
104 ,22.2492 ,1.11674 ,3.41290 ,33.48741 
105 ,22.4572 ,1.11886 ,3.37526 ,33.11805 
106 ,22.6493 ,1.12088 ,3.37526 ,33.11805 
107 ,22.8410 ,1.12277 ,3.34446 ,32.81584 
108 ,23.0494 ,1.12472 ,3.34446 ,32.81584 
109 ,23.2575 ,1.12684 ,3.30682 ,32.44648 
110 ,23.4494 ,1.12873 ,3.30682 ,32.44648 
111 ,23.6577 ,1.13082 ,3.27259 ,32.11070 
112 ,23.8655 ,1.13284 ,3.26233 ,32.00996 
113 ,24.0736 ,1.13501 ,3.22468 ,31.64060 
114 ,24.2979 ,1.13720 ,3.21100 ,31.50629 
115 ,24.5061 ,1.13924 ,3.21442 ,31.53987 
116 ,24.7302 ,1.14147 ,3.19388 ,31.33840 
117 ,24.9379 ,1.14363 ,3.15624 ,30.96904 
118 ,25.1303 ,1.14555 ,3.16309 ,31.03619 
119 ,25.3225 ,1.14749 ,3.12202 ,30.63325 
120 ,25.5461 ,1.14966 ,3.13571 ,30.76757 
121 ,25.7384 ,1.15163 ,3.08780 ,30.29747 
122 ,25.9465 ,1.15363 ,3.09464 ,30.36463 
123 ,26.1543 ,1.15573 ,3.07069 ,30.12958 
124 ,26.3625 ,1.15784 ,3.03989 ,29.82737 
125 ,26.5707 ,1.15991 ,3.04331 ,29.86095 
126 ,26.7790 ,1.16201 ,3.00224 ,29.45801 
127 ,26.9871 ,1.16416 ,2.99882 ,29.42444 
128 ,27.1952 ,1.16615 ,2.96460 ,29.08865 
129 ,27.4190 ,1.16829 ,2.96118 ,29.05507 
130 ,27.6274 ,1.17052 ,2.93722 ,28.82003 
131 ,27.8354 ,1.17252 ,2.91327 ,28.58498 
132 ,28.0434 ,1.17462 ,2.88931 ,28.34993 
133 ,28.2355 ,1.17655 ,2.88931 ,28.34993 
134 ,28.4273 ,1.17857 ,2.86193 ,28.08130 
135 ,28.6199 ,1.18045 ,2.85167 ,27.98057 
136 ,28.8437 ,1.18263 ,2.83114 ,27.77910 
137 ,29.0358 ,1.18456 ,2.82771 ,27.74552 
138 ,29.2280 ,1.18651 ,2.80376 ,27.51047 
139 ,29.4199 ,1.18849 ,2.79349 ,27.40974 
140 ,29.6600 ,1.19074 ,2.76269 ,27.10753 
141 ,29.8683 ,1.19294 ,2.75927 ,27.07395 
142 ,30.0763 ,1.19493 ,2.72847 ,26.77175 
143 ,30.3005 ,1.19716 ,2.70794 ,26.57028 
144 ,30.5085 ,1.19926 ,2.69425 ,26.43597 
145 ,30.7322 ,1.20154 ,2.68740 ,26.36881 
146 ,30.9407 ,1.20362 ,2.64634 ,25.96587 
147 ,31.1647 ,1.20582 ,2.63949 ,25.89871 
148 ,31.3725 ,1.20789 ,2.62581 ,25.76440 
149 ,31.5486 ,1.20983 ,2.59843 ,25.49577 
150 ,31.7565 ,1.21183 ,2.59501 ,25.46220 
151 ,31.9489 ,1.21374 ,2.57789 ,25.29430 
152 ,32.1572 ,1.21573 ,2.56421 ,25.15999 
153 ,32.3490 ,1.21783 ,2.55052 ,25.02568 
154 ,32.5731 ,1.21987 ,2.52314 ,24.75705 
155 ,32.7970 ,1.22213 ,2.50945 ,24.62274 
156 ,33.0056 ,1.22423 ,2.49576 ,24.48842 
157 ,33.2296 ,1.22650 ,2.47865 ,24.32053 
158 ,33.4374 ,1.22853 ,2.44443 ,23.98475 
159 ,33.6296 ,1.23051 ,2.43759 ,23.91759 
160 ,33.8379 ,1.23258 ,2.41705 ,23.71612 
161 ,34.0618 ,1.23477 ,2.41363 ,23.68255 
162 ,34.2858 ,1.23695 ,2.38625 ,23.41392 
163 ,34.4941 ,1.23913 ,2.37599 ,23.31318 
164 ,34.7343 ,1.24141 ,2.34861 ,23.04456 
165 ,35.0060 ,1.24413 ,2.34177 ,22.97740 
166 ,35.2144 ,1.24640 ,2.30412 ,22.60804 
167 ,35.4226 ,1.24845 ,2.27674 ,22.33941 
168 ,35.6467 ,1.25060 ,2.26648 ,22.23868 
169 ,35.8546 ,1.25274 ,2.28017 ,22.37299 
170 ,36.0789 ,1.25494 ,2.23568 ,21.93647 
171 ,36.2867 ,1.25703 ,2.23568 ,21.93647 
172 ,36.4789 ,1.25910 ,2.21857 ,21.76858 
173 ,36.6711 ,1.26093 ,2.20830 ,21.66785 
174 ,36.8952 ,1.26306 ,2.17750 ,21.36564 
175 ,37.1194 ,1.26533 ,2.15697 ,21.16417 
176 ,37.3269 ,1.26743 ,2.15012 ,21.09702 
177 ,37.5196 ,1.26939 ,2.12617 ,20.86197 
178 ,37.7432 ,1.27156 ,2.10221 ,20.62692 
179 ,37.9355 ,1.27351 ,2.09879 ,20.59334 
180 ,38.1435 ,1.27558 ,2.08168 ,20.42545 
181 ,38.3514 ,1.27766 ,2.07826 ,20.39187 
182 ,38.5598 ,1.27981 ,2.04404 ,20.05609 
183 ,38.7679 ,1.28191 ,2.03377 ,19.95535 
184 ,39.0081 ,1.28411 ,2.01324 ,19.75388 
185 ,39.2322 ,1.28645 ,2.01324 ,19.75388 
186 ,39.4402 ,1.28858 ,1.97902 ,19.41810 
187 ,39.6643 ,1.29084 ,1.96533 ,19.28379 
188 ,39.8884 ,1.29298 ,1.96875 ,19.31737 
189 ,40.0804 ,1.29505 ,1.93795 ,19.01516 
190 ,40.2722 ,1.29695 ,1.91399 ,18.78011 
191 ,40.4645 ,1.29884 ,1.89346 ,18.57864 
192 ,40.6563 ,1.30090 ,1.90031 ,18.64580 
193 ,40.8647 ,1.30278 ,1.87293 ,18.37717 
194 ,41.0886 ,1.30501 ,1.87293 ,18.37717 
195 ,41.2970 ,1.30712 ,1.83871 ,18.04139 
196 ,41.5211 ,1.30937 ,1.80449 ,17.70561 
197 ,41.7128 ,1.31135 ,1.81817 ,17.83992 
198 ,41.9214 ,1.31339 ,1.78053 ,17.47056 
199 ,42.1450 ,1.31555 ,1.77369 ,17.40340 
200 ,42.3533 ,1.31766 ,1.75657 ,17.23551 
201 ,42.5775 ,1.31992 ,1.73262 ,17.00046 
202 ,42.7854 ,1.32195 ,1.72920 ,16.96689 
203 ,43.0098 ,1.32425 ,1.71893 ,16.86615 
204 ,43.2338 ,1.32645 ,1.69840 ,16.66468 
205 ,43.4419 ,1.32855 ,1.66075 ,16.29532 
206 ,43.6498 ,1.33065 ,1.67444 ,16.42963 
207 ,43.8581 ,1.33280 ,1.63680 ,16.06027 
208 ,44.0662 ,1.33480 ,1.62311 ,15.92596 
209 ,44.2903 ,1.33705 ,1.61627 ,15.85880 
210 ,44.5144 ,1.33922 ,1.60258 ,15.72449 
211 ,44.7223 ,1.34135 ,1.56151 ,15.32155 
212 ,44.9303 ,1.34346 ,1.57520 ,15.45586 
213 ,45.1545 ,1.34566 ,1.53413 ,15.05292 
214 ,45.3627 ,1.34774 ,1.52387 ,14.95219 
215 ,45.6028 ,1.35021 ,1.50333 ,14.75072 
216 ,45.8108 ,1.35232 ,1.50333 ,14.75072 
217 ,46.0192 ,1.35433 ,1.47596 ,14.48209 
218 ,46.2111 ,1.35631 ,1.47253 ,14.44851 
219 ,46.4032 ,1.35821 ,1.44516 ,14.17989 
220 ,46.6112 ,1.36023 ,1.44858 ,14.21346 
221 ,46.8195 ,1.36238 ,1.41778 ,13.91126 
222 ,47.0112 ,1.36435 ,1.41778 ,13.91126 
223 ,47.2352 ,1.36636 ,1.38014 ,13.54190 
224 ,47.4597 ,1.36867 ,1.36645 ,13.40759 
225 ,47.6837 ,1.37092 ,1.36303 ,13.37401 
226 ,47.8916 ,1.37302 ,1.35618 ,13.30685 
227 ,48.0839 ,1.37497 ,1.31512 ,12.90391 
228 ,48.2920 ,1.37701 ,1.32538 ,13.00465 
229 ,48.5161 ,1.37931 ,1.29458 ,12.70244 
230 ,48.7241 ,1.38140 ,1.27405 ,12.50097 
231 ,48.9322 ,1.38341 ,1.27405 ,12.50097 
232 ,49.1244 ,1.38538 ,1.25009 ,12.26592 
233 ,49.3322 ,1.38745 ,1.25009 ,12.26592 
234 ,49.5565 ,1.38963 ,1.20903 ,11.86298 
235 ,49.7647 ,1.39179 ,1.19534 ,11.72867 
236 ,49.9726 ,1.39382 ,1.20903 ,11.86298 
237 ,50.1967 ,1.39596 ,1.16796 ,11.46004 
238 ,50.4050 ,1.39812 ,1.16796 ,11.46004 
239 ,50.5966 ,1.40019 ,1.15770 ,11.35931 
240 ,50.8052 ,1.40214 ,1.12347 ,11.02353 
241 ,51.0132 ,1.40419 ,1.12690 ,11.05710 
242 ,51.2210 ,1.40632 ,1.09952 ,10.78848 
243 ,51.4132 ,1.40832 ,1.09610 ,10.75490 
244 ,51.6055 ,1.41026 ,1.06872 ,10.48627 
245 ,51.8296 ,1.41230 ,1.06187 ,10.41912 
246 ,52.0534 ,1.41463 ,1.04134 ,10.21765 
247 ,52.2777 ,1.41686 ,1.01739 ,9.98260 
248 ,52.4857 ,1.41892 ,1.02765 ,10.08333 
249 ,52.6779 ,1.42087 ,0.99685 ,9.78113 
250 ,52.8699 ,1.42295 ,0.99001 ,9.71397 
251 ,53.0781 ,1.42480 ,0.95921 ,9.41177 
252 ,53.2861 ,1.42696 ,0.95579 ,9.37819 
253 ,53.4782 ,1.42893 ,0.93868 ,9.21030 
254 ,53.6863 ,1.43091 ,0.93525 ,9.17672 
255 ,53.8779 ,1.43300 ,0.91472 ,8.97525 
256 ,54.0865 ,1.43501 ,0.89761 ,8.80736 
257 ,54.2942 ,1.43705 ,0.89761 ,8.80736 
258 ,54.5022 ,1.43913 ,0.87023 ,8.53873 
259 ,54.7103 ,1.44122 ,0.87366 ,8.57231 
260 ,54.9024 ,1.44320 ,0.83259 ,8.16937 
261 ,55.1270 ,1.44539 ,0.83259 ,8.16937 
262 ,55.3508 ,1.44759 ,0.83259 ,8.16937 
263 ,55.5592 ,1.44971 ,0.78468 ,7.69927 
264 ,55.7831 ,1.45192 ,0.77441 ,7.59854 
265 ,55.9593 ,1.45384 ,0.78468 ,7.69927 
266 ,56.1512 ,1.45578 ,0.76757 ,7.53138 
267 ,56.3433 ,1.45757 ,0.73677 ,7.22918 
268 ,56.5513 ,1.45971 ,0.74019 ,7.26276 
269 ,56.7595 ,1.46170 ,0.71281 ,6.99413 
270 ,56.9515 ,1.46363 ,0.72992 ,7.16202 
271 ,57.1435 ,1.46557 ,0.67859 ,6.65835 
272 ,57.3677 ,1.46779 ,0.69228 ,6.79266 
273 ,57.5760 ,1.46990 ,0.66833 ,6.55761 
274 ,57.7841 ,1.47191 ,0.64437 ,6.32256 
275 ,57.9921 ,1.47401 ,0.64437 ,6.32256 
276 ,58.2002 ,1.47605 ,0.60330 ,5.91962 
277 ,58.4082 ,1.47820 ,0.61699 ,6.05394 
278 ,58.6324 ,1.48037 ,0.59646 ,5.85247 
279 ,58.8565 ,1.48260 ,0.57593 ,5.65100 
280 ,59.0640 ,1.48475 ,0.56566 ,5.55026 
281 ,59.2724 ,1.48677 ,0.55882 ,5.48311 
282 ,59.4807 ,1.48885 ,0.52117 ,5.11375 
283 ,59.6888 ,1.49098 ,0.54513 ,5.34879 
284 ,59.9129 ,1.49321 ,0.51775 ,5.08017 
285 ,60.1524 ,1.49554 ,0.47668 ,4.67723 
286 ,60.3605 ,1.49768 ,0.46984 ,4.61007 
287 ,60.5528 ,1.49972 ,0.46984 ,4.61007 
288 ,60.7452 ,1.50162 ,0.45273 ,4.44218 
289 ,60.9853 ,1.50380 ,0.44588 ,4.37502 
290 ,61.1929 ,1.50602 ,0.43562 ,4.27429 
291 ,61.3855 ,1.50793 ,0.40482 ,3.97208 
292 ,61.5931 ,1.51000 ,0.39455 ,3.87135 
293 ,61.8016 ,1.51207 ,0.37744 ,3.70346 
294 ,62.0097 ,1.51417 ,0.38429 ,3.77061 
295 ,62.2017 ,1.51614 ,0.34322 ,3.36767 
296 ,62.4099 ,1.51815 ,0.35349 ,3.46841 
297 ,62.6180 ,1.52026 ,0.32269 ,3.16620 
298 ,62.8260 ,1.52237 ,0.33980 ,3.33410 
299 ,63.0341 ,1.52441 ,0.31584 ,3.09905 
300 ,63.2420 ,1.52645 ,0.27135 ,2.66253 
301 ,63.4663 ,1.52871 ,0.29189 ,2.86400 
302 ,63.6904 ,1.53096 ,0.27820 ,2.72969 
303 ,63.8663 ,1.53288 ,0.23371 ,2.29317 
304 ,64.0745 ,1.53473 ,0.23029 ,2.25959 
305 ,64.2823 ,1.53688 ,0.21660 ,2.12528 
306 ,64.5063 ,1.53914 ,0.20633 ,2.02454 
307 ,64.7308 ,1.54121 ,0.18238 ,1.78949 
308 ,64.9385 ,1.54342 ,0.17553 ,1.72234 
309 ,65.1466 ,1.54553 ,0.18580 ,1.82307 
310 ,65.3551 ,1.54759 ,0.16185 ,1.58802 
311 ,65.5469 ,1.54954 ,0.15158 ,1.48729 
312 ,65.7873 ,1.55180 ,0.13447 ,1.31940 
313 ,66.0110 ,1.55413 ,0.12078 ,1.18508 
314 ,66.2353 ,1.55636 ,0.08998 ,0.88288 
315 ,66.4756 ,1.55874 ,0.07287 ,0.71499 
316 ,66.6836 ,1.56087 ,0.07971 ,0.78214 
317 ,66.9077 ,1.56300 ,0.06602 ,0.64783 
318 ,67.1153 ,1.56520 ,0.05918 ,0.58067 
319 ,67.3242 ,1.56735 ,0.04207 ,0.41278 
320 ,67.5477 ,1.56954 ,0.02496 ,0.24489 
321 ,67.7561 ,1.57160 ,-0.00242 ,-0.02373 
322 ,67.9963 ,1.57384 ,-0.01611 ,-0.15805 
323 ,68.2202 ,1.57626 ,-0.02637 ,-0.25878 
324 ,68.4284 ,1.57837 ,-0.01953 ,-0.19163 
325 ,68.6523 ,1.58054 ,-0.04006 ,-0.39310 
326 ,68.8766 ,1.58275 ,-0.07428 ,-0.72888 
327 ,69.0842 ,1.58483 ,-0.07771 ,-0.76246 
328 ,69.2767 ,1.58688 ,-0.08797 ,-0.86319 
329 ,69.5007 ,1.58900 ,-0.11193 ,-1.09824 
330 ,69.7089 ,1.59113 ,-0.09824 ,-0.96393 
331 ,69.9010 ,1.59308 ,-0.13246 ,-1.29971 
332 ,70.1250 ,1.59530 ,-0.13246 ,-1.29971 
333 ,70.3173 ,1.59726 ,-0.15984 ,-1.56834 
334 ,70.5248 ,1.59938 ,-0.17011 ,-1.66907 
335 ,70.7332 ,1.60131 ,-0.16668 ,-1.63549 
336 ,70.9412 ,1.60347 ,-0.19064 ,-1.87054 
337 ,71.1654 ,1.60573 ,-0.19748 ,-1.93770 
338 ,71.3896 ,1.60789 ,-0.20090 ,-1.97128 
339 ,71.5972 ,1.60999 ,-0.23170 ,-2.27348 
340 ,71.8060 ,1.61219 ,-0.22828 ,-2.23990 
341 ,72.0300 ,1.61432 ,-0.24881 ,-2.44137 
342 ,72.2536 ,1.61656 ,-0.26935 ,-2.64284 
343 ,72.4779 ,1.61867 ,-0.27961 ,-2.74358 
344 ,72.7017 ,1.62111 ,-0.30357 ,-2.97863 
345 ,72.9262 ,1.62325 ,-0.28646 ,-2.81073 
346 ,73.1500 ,1.62550 ,-0.30357 ,-2.97863 
347 ,73.3421 ,1.62749 ,-0.33779 ,-3.31441 
348 ,73.5501 ,1.62962 ,-0.32752 ,-3.21367 
349 ,73.7424 ,1.63147 ,-0.36859 ,-3.61661 
350 ,73.9505 ,1.63350 ,-0.37544 ,-3.68377 
351 ,74.1268 ,1.63544 ,-0.37544 ,-3.68377 
352 ,74.3188 ,1.63736 ,-0.38570 ,-3.78450 
353 ,74.5269 ,1.63928 ,-0.38570 ,-3.78450 
354 ,74.7348 ,1.64134 ,-0.40623 ,-3.98597 
355 ,74.9428 ,1.64350 ,-0.43019 ,-4.22102 
356 ,75.1831 ,1.64578 ,-0.41650 ,-4.08671 
357 ,75.3911 ,1.64796 ,-0.42677 ,-4.18744 
358 ,75.5991 ,1.65004 ,-0.46441 ,-4.55681 
359 ,75.8235 ,1.65218 ,-0.47126 ,-4.62396 
360 ,76.0314 ,1.65434 ,-0.46783 ,-4.59038 
361 ,76.2397 ,1.65640 ,-0.49521 ,-4.85901 
362 ,76.4635 ,1.65864 ,-0.51574 ,-5.06048 
363 ,76.6556 ,1.66071 ,-0.50206 ,-4.92617 
364 ,76.8637 ,1.66262 ,-0.51917 ,-5.09406 
365 ,77.0718 ,1.66472 ,-0.53285 ,-5.22837 
366 ,77.2796 ,1.66676 ,-0.56023 ,-5.49700 
367 ,77.4720 ,1.66877 ,-0.54997 ,-5.39626 
368 ,77.6800 ,1.67080 ,-0.57734 ,-5.66489 
369 ,77.8883 ,1.67288 ,-0.57392 ,-5.63131 
370 ,78.1121 ,1.67508 ,-0.58077 ,-5.69847 
371 ,78.3041 ,1.67714 ,-0.60472 ,-5.93352 
372 ,78.5445 ,1.67935 ,-0.59788 ,-5.86636 
373 ,78.7526 ,1.68152 ,-0.62525 ,-6.13499 
374 ,78.9768 ,1.68377 ,-0.64921 ,-6.37003 
375 ,79.2170 ,1.68619 ,-0.65947 ,-6.47077 
376 ,79.4089 ,1.68824 ,-0.65605 ,-6.43719 
377 ,79.6170 ,1.69020 ,-0.69712 ,-6.84013 
378 ,79.8253 ,1.69230 ,-0.68343 ,-6.70582 
379 ,80.0330 ,1.69434 ,-0.69712 ,-6.84013 
380 ,80.2572 ,1.69654 ,-0.72450 ,-7.10876 
381 ,80.4494 ,1.69852 ,-0.70739 ,-6.94086 
382 ,80.6734 ,1.70076 ,-0.75187 ,-7.37738 
383 ,80.8976 ,1.70289 ,-0.76214 ,-7.47812 
384 ,81.1057 ,1.70503 ,-0.75187 ,-7.37738 
385 ,81.3299 ,1.70726 ,-0.75872 ,-7.44454 
386 ,81.5379 ,1.70941 ,-0.79636 ,-7.81390 
387 ,81.7458 ,1.71143 ,-0.78610 ,-7.71317 
388 ,81.9220 ,1.71337 ,-0.81689 ,-8.01537 
389 ,82.1301 ,1.71522 ,-0.79978 ,-7.84748 
390 ,82.3381 ,1.71735 ,-0.83058 ,-8.14968 
391 ,82.5462 ,1.71942 ,-0.82716 ,-8.11611 
392 ,82.7700 ,1.72165 ,-0.84085 ,-8.25042 
393 ,82.9784 ,1.72382 ,-0.86138 ,-8.45189 
394 ,83.2025 ,1.72602 ,-0.87507 ,-8.58620 
395 ,83.4104 ,1.72814 ,-0.86138 ,-8.45189 
396 ,83.6188 ,1.73019 ,-0.90587 ,-8.88841 
397 ,83.8268 ,1.73233 ,-0.90245 ,-8.85483 
398 ,84.0507 ,1.73436 ,-0.91614 ,-8.98914 
399 ,84.2750 ,1.73671 ,-0.93667 ,-9.19061 
400 ,84.4826 ,1.73878 ,-0.93667 ,-9.19061 
401 ,84.6751 ,1.74077 ,-0.94694 ,-9.29135 
402 ,84.8990 ,1.74297 ,-0.97089 ,-9.52639 
403 ,85.0752 ,1.74487 ,-0.95720 ,-9.39208 
404 ,85.2833 ,1.74675 ,-0.99143 ,-9.72786 
405 ,85.5070 ,1.74897 ,-0.97089 ,-9.52639 
406 ,85.7156 ,1.75114 ,-1.00511 ,-9.86218 
407 ,85.9237 ,1.75318 ,-1.01538 ,-9.96291 
408 ,86.1313 ,1.75528 ,-1.00169 ,-9.82860 
409 ,86.3397 ,1.75739 ,-1.04618 ,-10.26512 
410 ,86.5477 ,1.75942 ,-1.02907 ,-10.09723 
411 ,86.7559 ,1.76150 ,-1.06671 ,-10.46659 
412 ,86.9640 ,1.76360 ,-1.05645 ,-10.36585 
413 ,87.1720 ,1.76567 ,-1.05987 ,-10.39943 
414 ,87.3963 ,1.76791 ,-1.10093 ,-10.80237 
415 ,87.6363 ,1.77023 ,-1.10778 ,-10.86953 
416 ,87.8605 ,1.77256 ,-1.12147 ,-11.00384 
417 ,88.0685 ,1.77463 ,-1.11120 ,-10.90310 
418 ,88.2766 ,1.77669 ,-1.13516 ,-11.13815 
419 ,88.5007 ,1.77901 ,-1.14542 ,-11.23889 
420 ,88.7246 ,1.78119 ,-1.14884 ,-11.27247 
421 ,88.9328 ,1.78329 ,-1.16596 ,-11.44036 
422 ,89.1570 ,1.78551 ,-1.17964 ,-11.57467 
423 ,89.3971 ,1.78784 ,-1.18649 ,-11.64183 
424 ,89.6210 ,1.79013 ,-1.17622 ,-11.54109 
425 ,89.8610 ,1.79250 ,-1.20018 ,-11.77614 
426 ,90.0854 ,1.79479 ,-1.20360 ,-11.80972 
427 ,90.2933 ,1.79683 ,-1.22755 ,-12.04477 
428 ,90.5014 ,1.79893 ,-1.24124 ,-12.17908 
429 ,90.7096 ,1.80104 ,-1.24124 ,-12.17908 
430 ,90.9179 ,1.80319 ,-1.25835 ,-12.34697 
431 ,91.1254 ,1.80520 ,-1.24809 ,-12.24624 
432 ,91.3180 ,1.80719 ,-1.27889 ,-12.54844 
433 ,91.5261 ,1.80921 ,-1.27547 ,-12.51486 
434 ,91.7496 ,1.81139 ,-1.28231 ,-12.58202 
435 ,91.9419 ,1.81340 ,-1.30626 ,-12.81707 
436 ,92.1499 ,1.81540 ,-1.30969 ,-12.85065 
437 ,92.3584 ,1.81753 ,-1.33022 ,-13.05212 
438 ,92.5660 ,1.81969 ,-1.31311 ,-12.88422 
439 ,92.7583 ,1.82154 ,-1.35760 ,-13.32074 
440 ,92.9986 ,1.82383 ,-1.34391 ,-13.18643 
441 ,93.2227 ,1.82616 ,-1.36102 ,-13.35432 
442 ,93.4309 ,1.82823 ,-1.36786 ,-13.42148 
443 ,93.6389 ,1.83034 ,-1.38497 ,-13.58937 
444 ,93.8470 ,1.83242 ,-1.37813 ,-13.52221 
445 ,94.0710 ,1.83467 ,-1.40893 ,-13.82442 
446 ,94.2791 ,1.83674 ,-1.42262 ,-13.95873 
447 ,94.4712 ,1.83868 ,-1.42604 ,-13.99231 
448 ,94.6954 ,1.84091 ,-1.44315 ,-14.16020 
449 ,94.9195 ,1.84311 ,-1.44315 ,-14.16020 
450 ,95.1274 ,1.84525 ,-1.45342 ,-14.26093 
451 ,95.3195 ,1.84716 ,-1.47395 ,-14.46240 
452 ,95.5276 ,1.84923 ,-1.46368 ,-14.36167 
453 ,95.7198 ,1.85120 ,-1.48422 ,-14.56314 
454 ,95.9280 ,1.85330 ,-1.48080 ,-14.52956 
455 ,96.1196 ,1.85519 ,-1.49791 ,-14.69745 
456 ,96.3440 ,1.85736 ,-1.50817 ,-14.79819 
457 ,96.5518 ,1.85955 ,-1.51844 ,-14.89892 
458 ,96.7441 ,1.86140 ,-1.52528 ,-14.96608 
459 ,96.9521 ,1.86346 ,-1.53555 ,-15.06681 
460 ,97.1605 ,1.86560 ,-1.56293 ,-15.33544 
