Data stamp = , 18-05-2022 21:18:41 736

Calibration Values: 
Slope = , 26.54 , g/V 
Offset Voltage at no contact = , -0.501760 , V 

No , Time , Stage Position ,   Mass , Force 
   ,  (s) ,      (mm)      ,   (g)  , (mN)  

1 ,0.0000 ,0.89975 ,5.29167 ,51.92190 
2 ,0.2126 ,0.89981 ,5.28825 ,51.88832 
3 ,0.8692 ,0.90268 ,5.29852 ,51.98905 
4 ,1.1254 ,0.90552 ,5.29852 ,51.98905 
5 ,1.3815 ,0.90804 ,5.29510 ,51.95548 
6 ,1.6056 ,0.91052 ,5.28825 ,51.88832 
7 ,1.8297 ,0.91275 ,5.26087 ,51.61969 
8 ,2.0537 ,0.91500 ,5.23350 ,51.35107 
9 ,2.2619 ,0.91702 ,5.20612 ,51.08244 
10 ,2.5016 ,0.91947 ,5.21639 ,51.18317 
11 ,2.7102 ,0.92163 ,5.18559 ,50.88097 
12 ,2.9182 ,0.92370 ,5.14110 ,50.44445 
13 ,3.1423 ,0.92584 ,5.12399 ,50.27656 
14 ,3.3504 ,0.92801 ,5.10345 ,50.07509 
15 ,3.5583 ,0.93010 ,5.07950 ,49.84004 
16 ,3.7825 ,0.93231 ,5.05897 ,49.63857 
17 ,3.9904 ,0.93440 ,5.05212 ,49.57142 
18 ,4.1986 ,0.93649 ,5.01790 ,49.23563 
19 ,4.3907 ,0.93851 ,5.01790 ,49.23563 
20 ,4.5985 ,0.94049 ,4.96315 ,48.69838 
21 ,4.7909 ,0.94250 ,4.97683 ,48.83269 
22 ,4.9991 ,0.94444 ,4.93919 ,48.46333 
23 ,5.2072 ,0.94658 ,4.92550 ,48.32902 
24 ,5.4310 ,0.94875 ,4.90839 ,48.16113 
25 ,5.6227 ,0.95085 ,4.86390 ,47.72461 
26 ,5.8628 ,0.95313 ,4.86390 ,47.72461 
27 ,6.0710 ,0.95528 ,4.84679 ,47.55672 
28 ,6.2795 ,0.95734 ,4.79888 ,47.08662 
29 ,6.5517 ,0.95996 ,4.79204 ,47.01946 
30 ,6.7753 ,0.96228 ,4.75782 ,46.68368 
31 ,6.9839 ,0.96435 ,4.74413 ,46.54937 
32 ,7.2081 ,0.96651 ,4.74070 ,46.51579 
33 ,7.4321 ,0.96875 ,4.69622 ,46.07927 
34 ,7.6400 ,0.97083 ,4.67911 ,45.91138 
35 ,7.8481 ,0.97293 ,4.67911 ,45.91138 
36 ,8.0564 ,0.97503 ,4.63462 ,45.47486 
37 ,8.2802 ,0.97726 ,4.62093 ,45.34055 
38 ,8.5047 ,0.97949 ,4.60382 ,45.17266 
39 ,8.7285 ,0.98172 ,4.59355 ,45.07192 
40 ,8.9367 ,0.98381 ,4.54906 ,44.63541 
41 ,9.1608 ,0.98612 ,4.54906 ,44.63541 
42 ,9.3847 ,0.98831 ,4.52853 ,44.43394 
43 ,9.5929 ,0.99037 ,4.48746 ,44.03100 
44 ,9.8009 ,0.99245 ,4.47378 ,43.89668 
45 ,10.0251 ,0.99468 ,4.47378 ,43.89668 
46 ,10.2170 ,0.99666 ,4.42244 ,43.39301 
47 ,10.4249 ,0.99885 ,4.41902 ,43.35943 
48 ,10.6173 ,1.00064 ,4.39507 ,43.12438 
49 ,10.8254 ,1.00286 ,4.39507 ,43.12438 
50 ,11.0336 ,1.00475 ,4.37795 ,42.95649 
51 ,11.2413 ,1.00689 ,4.35058 ,42.68786 
52 ,11.4498 ,1.00893 ,4.34373 ,42.62071 
53 ,11.6739 ,1.01119 ,4.29924 ,42.18419 
54 ,11.8981 ,1.01345 ,4.28556 ,42.04988 
55 ,12.1219 ,1.01567 ,4.26845 ,41.88198 
56 ,12.3139 ,1.01764 ,4.24449 ,41.64694 
57 ,12.5542 ,1.01987 ,4.22053 ,41.41189 
58 ,12.7782 ,1.02226 ,4.18289 ,41.04253 
59 ,12.9862 ,1.02431 ,4.19316 ,41.14326 
60 ,13.2106 ,1.02651 ,4.17605 ,40.97537 
61 ,13.4185 ,1.02861 ,4.14183 ,40.63959 
62 ,13.6267 ,1.03077 ,4.11787 ,40.40454 
63 ,13.8509 ,1.03296 ,4.10760 ,40.30380 
64 ,14.0747 ,1.03520 ,4.07680 ,40.00160 
65 ,14.2829 ,1.03721 ,4.07680 ,40.00160 
66 ,14.4745 ,1.03924 ,4.03916 ,39.63224 
67 ,14.6830 ,1.04123 ,4.04258 ,39.66582 
68 ,14.8912 ,1.04333 ,4.01178 ,39.36361 
69 ,15.0989 ,1.04542 ,3.98783 ,39.12856 
70 ,15.3074 ,1.04752 ,3.99125 ,39.16214 
71 ,15.5155 ,1.04963 ,3.94676 ,38.72562 
72 ,15.7233 ,1.05164 ,3.94334 ,38.69205 
73 ,15.9156 ,1.05368 ,3.92281 ,38.49058 
74 ,16.1237 ,1.05566 ,3.90912 ,38.35626 
75 ,16.3319 ,1.05773 ,3.88858 ,38.15479 
76 ,16.5399 ,1.05983 ,3.86121 ,37.88617 
77 ,16.7636 ,1.06206 ,3.85779 ,37.85259 
78 ,16.9881 ,1.06426 ,3.83725 ,37.65112 
79 ,17.2442 ,1.06692 ,3.81330 ,37.41607 
80 ,17.4682 ,1.06910 ,3.78592 ,37.14744 
81 ,17.6925 ,1.07126 ,3.75170 ,36.81166 
82 ,17.9160 ,1.07355 ,3.72774 ,36.57661 
83 ,18.1241 ,1.07566 ,3.73117 ,36.61019 
84 ,18.3321 ,1.07772 ,3.70721 ,36.37514 
85 ,18.5403 ,1.07987 ,3.68325 ,36.14010 
86 ,18.7486 ,1.08189 ,3.67641 ,36.07294 
87 ,18.9566 ,1.08397 ,3.64219 ,35.73716 
88 ,19.1811 ,1.08624 ,3.63534 ,35.67000 
89 ,19.4052 ,1.08847 ,3.63192 ,35.63642 
90 ,19.6292 ,1.09073 ,3.59428 ,35.26706 
91 ,19.8373 ,1.09280 ,3.54979 ,34.83054 
92 ,20.0614 ,1.09497 ,3.57375 ,35.06559 
93 ,20.2851 ,1.09734 ,3.53952 ,34.72981 
94 ,20.4775 ,1.09933 ,3.51557 ,34.49476 
95 ,20.7017 ,1.10148 ,3.48477 ,34.19255 
96 ,20.9257 ,1.10363 ,3.49504 ,34.29329 
97 ,21.1339 ,1.10573 ,3.45739 ,33.92393 
98 ,21.3579 ,1.10799 ,3.43344 ,33.68888 
99 ,21.5820 ,1.11025 ,3.41633 ,33.52099 
100 ,21.8061 ,1.11249 ,3.41290 ,33.48741 
101 ,22.0303 ,1.11467 ,3.38210 ,33.18520 
102 ,22.2383 ,1.11681 ,3.34788 ,32.84942 
103 ,22.4623 ,1.11910 ,3.33419 ,32.71511 
104 ,22.6545 ,1.12111 ,3.32393 ,32.61437 
105 ,22.8625 ,1.12302 ,3.30339 ,32.41290 
106 ,23.0707 ,1.12509 ,3.28286 ,32.21143 
107 ,23.2626 ,1.12719 ,3.25548 ,31.94281 
108 ,23.4543 ,1.12904 ,3.25206 ,31.90923 
109 ,23.6468 ,1.13098 ,3.24180 ,31.80849 
110 ,23.8709 ,1.13312 ,3.23153 ,31.70776 
111 ,24.0950 ,1.13536 ,3.20415 ,31.43913 
112 ,24.3033 ,1.13748 ,3.19388 ,31.33840 
113 ,24.5108 ,1.13950 ,3.16309 ,31.03619 
114 ,24.7193 ,1.14165 ,3.13229 ,30.73399 
115 ,24.9272 ,1.14369 ,3.13913 ,30.80115 
116 ,25.1514 ,1.14587 ,3.11518 ,30.56610 
117 ,25.3596 ,1.14803 ,3.08780 ,30.29747 
118 ,25.5675 ,1.15006 ,3.08780 ,30.29747 
119 ,25.7757 ,1.15217 ,3.05358 ,29.96169 
120 ,25.9999 ,1.15436 ,3.03304 ,29.76022 
121 ,26.2081 ,1.15645 ,3.02962 ,29.72664 
122 ,26.4158 ,1.15855 ,2.99198 ,29.35728 
123 ,26.6402 ,1.16075 ,2.98513 ,29.29012 
124 ,26.8640 ,1.16303 ,2.97829 ,29.22297 
125 ,27.0882 ,1.16527 ,2.96460 ,29.08865 
126 ,27.3123 ,1.16752 ,2.91327 ,28.58498 
127 ,27.5205 ,1.16954 ,2.90642 ,28.51782 
128 ,27.7285 ,1.17167 ,2.89616 ,28.41709 
129 ,27.9525 ,1.17396 ,2.87220 ,28.18204 
130 ,28.1766 ,1.17616 ,2.83114 ,27.77910 
131 ,28.4328 ,1.17871 ,2.81745 ,27.64479 
132 ,28.6567 ,1.18096 ,2.80034 ,27.47689 
133 ,28.8489 ,1.18291 ,2.80376 ,27.51047 
134 ,29.1046 ,1.18539 ,2.76954 ,27.17469 
135 ,29.3126 ,1.18754 ,2.74216 ,26.90606 
136 ,29.5208 ,1.18958 ,2.72847 ,26.77175 
137 ,29.7449 ,1.19183 ,2.72505 ,26.73817 
138 ,29.9692 ,1.19410 ,2.71136 ,26.60386 
139 ,30.2095 ,1.19654 ,2.67714 ,26.26807 
140 ,30.4175 ,1.19855 ,2.66003 ,26.10018 
141 ,30.6257 ,1.20066 ,2.65318 ,26.03303 
142 ,30.8339 ,1.20272 ,2.61896 ,25.69724 
143 ,31.0577 ,1.20495 ,2.59843 ,25.49577 
144 ,31.2335 ,1.20689 ,2.60527 ,25.56293 
145 ,31.4419 ,1.20879 ,2.57447 ,25.26073 
146 ,31.6502 ,1.21086 ,2.57447 ,25.26073 
147 ,31.8742 ,1.21314 ,2.54710 ,24.99210 
148 ,32.0824 ,1.21521 ,2.52998 ,24.82421 
149 ,32.2743 ,1.21723 ,2.50603 ,24.58916 
150 ,32.4824 ,1.21919 ,2.49576 ,24.48842 
151 ,32.7067 ,1.22146 ,2.48550 ,24.38769 
152 ,32.9306 ,1.22371 ,2.46154 ,24.15264 
153 ,33.1548 ,1.22592 ,2.43416 ,23.88402 
154 ,33.3628 ,1.22795 ,2.43416 ,23.88402 
155 ,33.5868 ,1.23025 ,2.40336 ,23.58181 
156 ,33.7950 ,1.23232 ,2.38283 ,23.38034 
157 ,34.0033 ,1.23433 ,2.37256 ,23.27961 
158 ,34.1951 ,1.23642 ,2.34861 ,23.04456 
159 ,34.4034 ,1.23837 ,2.34861 ,23.04456 
160 ,34.6110 ,1.24045 ,2.31439 ,22.70877 
161 ,34.8195 ,1.24249 ,2.29728 ,22.54088 
162 ,35.0274 ,1.24461 ,2.29728 ,22.54088 
163 ,35.2356 ,1.24668 ,2.25963 ,22.17152 
164 ,35.4438 ,1.24879 ,2.26306 ,22.20510 
165 ,35.6674 ,1.25098 ,2.23226 ,21.90290 
166 ,35.8760 ,1.25312 ,2.20146 ,21.60069 
167 ,36.1001 ,1.25541 ,2.19119 ,21.49996 
168 ,36.3081 ,1.25738 ,2.20146 ,21.60069 
169 ,36.5162 ,1.25949 ,2.16381 ,21.23133 
170 ,36.7239 ,1.26157 ,2.15697 ,21.16417 
171 ,36.9485 ,1.26386 ,2.13986 ,20.99628 
172 ,37.1726 ,1.26605 ,2.11248 ,20.72766 
173 ,37.3805 ,1.26813 ,2.09537 ,20.55976 
174 ,37.5885 ,1.27023 ,2.09195 ,20.52619 
175 ,37.7969 ,1.27230 ,2.06457 ,20.25756 
176 ,38.0208 ,1.27460 ,2.05430 ,20.15682 
177 ,38.2450 ,1.27680 ,2.04746 ,20.08967 
178 ,38.4531 ,1.27892 ,2.00982 ,19.72031 
179 ,38.6769 ,1.28113 ,1.98586 ,19.48526 
180 ,38.8852 ,1.28320 ,1.99613 ,19.58599 
181 ,39.1091 ,1.28546 ,1.96190 ,19.25021 
182 ,39.3335 ,1.28771 ,1.94479 ,19.08232 
183 ,39.5572 ,1.28989 ,1.92084 ,18.84727 
184 ,39.7976 ,1.29217 ,1.93453 ,18.98158 
185 ,40.0217 ,1.29453 ,1.88662 ,18.51149 
186 ,40.2298 ,1.29664 ,1.88662 ,18.51149 
187 ,40.4378 ,1.29878 ,1.85582 ,18.20928 
188 ,40.6620 ,1.30093 ,1.85582 ,18.20928 
189 ,40.8860 ,1.30316 ,1.84213 ,18.07497 
190 ,41.0939 ,1.30526 ,1.79422 ,17.60487 
191 ,41.3021 ,1.30744 ,1.79422 ,17.60487 
192 ,41.5105 ,1.30942 ,1.78395 ,17.50414 
193 ,41.7344 ,1.31167 ,1.75315 ,17.20193 
194 ,41.9265 ,1.31375 ,1.76000 ,17.26909 
195 ,42.1503 ,1.31581 ,1.73262 ,17.00046 
196 ,42.3422 ,1.31785 ,1.70866 ,16.76542 
197 ,42.5506 ,1.31985 ,1.71893 ,16.86615 
198 ,42.7588 ,1.32190 ,1.67444 ,16.42963 
199 ,42.9669 ,1.32401 ,1.68129 ,16.49679 
200 ,43.1910 ,1.32623 ,1.65391 ,16.22816 
201 ,43.3987 ,1.32836 ,1.62995 ,15.99311 
202 ,43.6230 ,1.33057 ,1.63338 ,16.02669 
203 ,43.8473 ,1.33285 ,1.62311 ,15.92596 
204 ,44.0714 ,1.33500 ,1.59916 ,15.69091 
205 ,44.2791 ,1.33716 ,1.56836 ,15.38871 
206 ,44.4874 ,1.33916 ,1.57178 ,15.42228 
207 ,44.7117 ,1.34142 ,1.52387 ,14.95219 
208 ,44.9356 ,1.34365 ,1.51360 ,14.85145 
209 ,45.1437 ,1.34578 ,1.51702 ,14.88503 
210 ,45.3517 ,1.34777 ,1.48965 ,14.61640 
211 ,45.5758 ,1.35008 ,1.45885 ,14.31420 
212 ,45.7839 ,1.35217 ,1.46911 ,14.41493 
213 ,45.9922 ,1.35422 ,1.43831 ,14.11273 
214 ,46.2163 ,1.35647 ,1.42805 ,14.01199 
215 ,46.4244 ,1.35857 ,1.41436 ,13.87768 
216 ,46.6325 ,1.36061 ,1.39725 ,13.70979 
217 ,46.8400 ,1.36280 ,1.37329 ,13.47474 
218 ,47.0326 ,1.36470 ,1.36987 ,13.44116 
219 ,47.2565 ,1.36688 ,1.35276 ,13.27327 
220 ,47.4806 ,1.36913 ,1.32880 ,13.03822 
221 ,47.6887 ,1.37121 ,1.32880 ,13.03822 
222 ,47.8963 ,1.37325 ,1.29458 ,12.70244 
223 ,48.1050 ,1.37535 ,1.30143 ,12.76960 
224 ,48.3288 ,1.37757 ,1.28089 ,12.56813 
225 ,48.5367 ,1.37965 ,1.24667 ,12.23235 
226 ,48.7452 ,1.38179 ,1.25352 ,12.29950 
227 ,48.9372 ,1.38379 ,1.23298 ,12.09803 
228 ,49.1612 ,1.38596 ,1.21587 ,11.93014 
229 ,49.3694 ,1.38797 ,1.21245 ,11.89656 
230 ,49.5773 ,1.39013 ,1.17481 ,11.52720 
231 ,49.7854 ,1.39220 ,1.18850 ,11.66151 
232 ,49.9937 ,1.39424 ,1.14743 ,11.25857 
233 ,50.2176 ,1.39647 ,1.12690 ,11.05710 
234 ,50.4418 ,1.39879 ,1.12347 ,11.02353 
235 ,50.6820 ,1.40092 ,1.12347 ,11.02353 
236 ,50.9061 ,1.40338 ,1.09952 ,10.78848 
237 ,51.1139 ,1.40545 ,1.07556 ,10.55343 
238 ,51.3061 ,1.40750 ,1.05845 ,10.38554 
239 ,51.4982 ,1.40931 ,1.03450 ,10.15049 
240 ,51.7223 ,1.41151 ,1.03792 ,10.18407 
241 ,51.9305 ,1.41363 ,1.03792 ,10.18407 
242 ,52.1545 ,1.41586 ,0.99001 ,9.71397 
243 ,52.3622 ,1.41791 ,0.99001 ,9.71397 
244 ,52.5708 ,1.41999 ,0.99343 ,9.74755 
245 ,52.7949 ,1.42227 ,0.94894 ,9.31103 
246 ,52.9867 ,1.42429 ,0.94210 ,9.24388 
247 ,53.1951 ,1.42626 ,0.93183 ,9.14314 
248 ,53.3868 ,1.42827 ,0.91814 ,9.00883 
249 ,53.6111 ,1.43042 ,0.90788 ,8.90809 
250 ,53.8190 ,1.43247 ,0.88050 ,8.63947 
251 ,54.0274 ,1.43457 ,0.88734 ,8.70662 
252 ,54.2514 ,1.43677 ,0.86339 ,8.47158 
253 ,54.4596 ,1.43883 ,0.83943 ,8.23653 
254 ,54.6836 ,1.44110 ,0.85312 ,8.37084 
255 ,54.9077 ,1.44333 ,0.82917 ,8.13579 
256 ,55.1156 ,1.44543 ,0.79495 ,7.80001 
257 ,55.3400 ,1.44770 ,0.77441 ,7.59854 
258 ,55.5479 ,1.44980 ,0.78126 ,7.66570 
259 ,55.7718 ,1.45199 ,0.76757 ,7.53138 
260 ,55.9803 ,1.45406 ,0.72992 ,7.16202 
261 ,56.2044 ,1.45633 ,0.73335 ,7.19560 
262 ,56.3965 ,1.45842 ,0.72308 ,7.09486 
263 ,56.6207 ,1.46040 ,0.70939 ,6.96055 
264 ,56.8122 ,1.46251 ,0.69913 ,6.85982 
265 ,57.0208 ,1.46444 ,0.66833 ,6.55761 
266 ,57.2449 ,1.46677 ,0.67175 ,6.59119 
267 ,57.4530 ,1.46878 ,0.64437 ,6.32256 
268 ,57.6770 ,1.47102 ,0.61699 ,6.05394 
269 ,57.8847 ,1.47306 ,0.63410 ,6.22183 
270 ,58.0928 ,1.47524 ,0.60673 ,5.95320 
271 ,58.3012 ,1.47732 ,0.58277 ,5.71815 
272 ,58.5094 ,1.47935 ,0.57593 ,5.65100 
273 ,58.7335 ,1.48161 ,0.56566 ,5.55026 
274 ,58.9416 ,1.48365 ,0.53144 ,5.21448 
275 ,59.1817 ,1.48608 ,0.53144 ,5.21448 
276 ,59.3737 ,1.48816 ,0.51775 ,5.08017 
277 ,59.5818 ,1.49009 ,0.49037 ,4.81154 
278 ,59.7898 ,1.49214 ,0.50748 ,4.97943 
279 ,60.0138 ,1.49440 ,0.46300 ,4.54291 
280 ,60.2380 ,1.49662 ,0.45615 ,4.47576 
281 ,60.4622 ,1.49883 ,0.43904 ,4.30787 
282 ,60.6704 ,1.50102 ,0.43904 ,4.30787 
283 ,60.8783 ,1.50305 ,0.39797 ,3.90493 
284 ,61.0865 ,1.50510 ,0.41166 ,4.03924 
285 ,61.3105 ,1.50736 ,0.39455 ,3.87135 
286 ,61.5185 ,1.50947 ,0.36718 ,3.60272 
287 ,61.7428 ,1.51169 ,0.35006 ,3.43483 
288 ,61.9827 ,1.51409 ,0.35006 ,3.43483 
289 ,62.1909 ,1.51618 ,0.34322 ,3.36767 
290 ,62.3826 ,1.51818 ,0.32269 ,3.16620 
291 ,62.5908 ,1.52016 ,0.30558 ,2.99831 
292 ,62.7992 ,1.52229 ,0.27478 ,2.69611 
293 ,63.0233 ,1.52449 ,0.28162 ,2.76326 
294 ,63.2314 ,1.52657 ,0.28847 ,2.83042 
295 ,63.4551 ,1.52879 ,0.25767 ,2.52822 
296 ,63.6474 ,1.53083 ,0.23713 ,2.32675 
297 ,63.8713 ,1.53294 ,0.23029 ,2.25959 
298 ,64.0794 ,1.53497 ,0.20976 ,2.05812 
299 ,64.2879 ,1.53712 ,0.20976 ,2.05812 
300 ,64.4959 ,1.53919 ,0.19264 ,1.89023 
301 ,64.7360 ,1.54148 ,0.17896 ,1.75592 
302 ,64.9602 ,1.54386 ,0.14473 ,1.42013 
303 ,65.1837 ,1.54606 ,0.14131 ,1.38655 
304 ,65.3760 ,1.54804 ,0.12762 ,1.25224 
305 ,65.5840 ,1.55010 ,0.11736 ,1.15151 
306 ,65.7923 ,1.55211 ,0.10709 ,1.05077 
307 ,66.0005 ,1.55428 ,0.08314 ,0.81572 
308 ,66.2241 ,1.55645 ,0.08314 ,0.81572 
309 ,66.4321 ,1.55855 ,0.07287 ,0.71499 
310 ,66.6405 ,1.56063 ,0.03180 ,0.31205 
311 ,66.8966 ,1.56320 ,0.02154 ,0.21131 
312 ,67.1049 ,1.56537 ,0.01127 ,0.11058 
313 ,67.3129 ,1.56735 ,0.00443 ,0.04342 
314 ,67.5053 ,1.56937 ,0.00443 ,0.04342 
315 ,67.7132 ,1.57136 ,-0.00242 ,-0.02373 
316 ,67.9209 ,1.57343 ,-0.02295 ,-0.22520 
317 ,68.1291 ,1.57549 ,-0.02637 ,-0.25878 
318 ,68.3372 ,1.57764 ,-0.07086 ,-0.69530 
319 ,68.5456 ,1.57973 ,-0.05375 ,-0.52741 
320 ,68.7535 ,1.58175 ,-0.08455 ,-0.82961 
321 ,68.9457 ,1.58375 ,-0.10508 ,-1.03108 
322 ,69.1698 ,1.58591 ,-0.09140 ,-0.89677 
323 ,69.3778 ,1.58805 ,-0.12219 ,-1.19898 
324 ,69.5858 ,1.59009 ,-0.11877 ,-1.16540 
325 ,69.8101 ,1.59225 ,-0.13931 ,-1.36687 
326 ,70.0340 ,1.59451 ,-0.15299 ,-1.50118 
327 ,70.2422 ,1.59659 ,-0.17011 ,-1.66907 
328 ,70.4182 ,1.59855 ,-0.18379 ,-1.80338 
329 ,70.6264 ,1.60045 ,-0.18379 ,-1.80338 
330 ,70.8183 ,1.60245 ,-0.20433 ,-2.00485 
331 ,71.0426 ,1.60465 ,-0.21802 ,-2.13917 
332 ,71.2184 ,1.60656 ,-0.22144 ,-2.17275 
333 ,71.4267 ,1.60852 ,-0.23170 ,-2.27348 
334 ,71.6349 ,1.61054 ,-0.25566 ,-2.50853 
335 ,71.8430 ,1.61271 ,-0.25908 ,-2.54211 
336 ,72.0510 ,1.61480 ,-0.25566 ,-2.50853 
337 ,72.2752 ,1.61697 ,-0.28646 ,-2.81073 
338 ,72.4832 ,1.61904 ,-0.29673 ,-2.91147 
339 ,72.6913 ,1.62115 ,-0.28988 ,-2.84431 
340 ,72.8994 ,1.62316 ,-0.33095 ,-3.24725 
341 ,73.1233 ,1.62536 ,-0.33437 ,-3.28083 
342 ,73.3154 ,1.62742 ,-0.35148 ,-3.44872 
343 ,73.5232 ,1.62955 ,-0.36517 ,-3.58303 
344 ,73.7158 ,1.63140 ,-0.37201 ,-3.65019 
345 ,73.9235 ,1.63340 ,-0.38570 ,-3.78450 
346 ,74.1320 ,1.63551 ,-0.38228 ,-3.75093 
347 ,74.3400 ,1.63758 ,-0.39597 ,-3.88524 
348 ,74.5796 ,1.63988 ,-0.41650 ,-4.08671 
349 ,74.8043 ,1.64221 ,-0.43361 ,-4.25460 
350 ,75.0282 ,1.64446 ,-0.43703 ,-4.28818 
351 ,75.2364 ,1.64657 ,-0.46783 ,-4.59038 
352 ,75.4442 ,1.64870 ,-0.46783 ,-4.59038 
353 ,75.6525 ,1.65073 ,-0.47126 ,-4.62396 
354 ,75.8605 ,1.65284 ,-0.50206 ,-4.92617 
355 ,76.0846 ,1.65503 ,-0.49179 ,-4.82543 
356 ,76.3092 ,1.65717 ,-0.51917 ,-5.09406 
357 ,76.5330 ,1.65946 ,-0.52259 ,-5.12764 
358 ,76.7411 ,1.66164 ,-0.56023 ,-5.49700 
359 ,76.9651 ,1.66389 ,-0.54997 ,-5.39626 
360 ,77.1730 ,1.66600 ,-0.56365 ,-5.53058 
361 ,77.3810 ,1.66800 ,-0.58419 ,-5.73205 
362 ,77.5894 ,1.67008 ,-0.57734 ,-5.66489 
363 ,77.8134 ,1.67230 ,-0.58761 ,-5.76562 
364 ,77.9890 ,1.67425 ,-0.60472 ,-5.93352 
365 ,78.1813 ,1.67612 ,-0.62525 ,-6.13499 
366 ,78.3573 ,1.67792 ,-0.63210 ,-6.20214 
367 ,78.5653 ,1.67982 ,-0.62525 ,-6.13499 
368 ,78.7575 ,1.68176 ,-0.64921 ,-6.37003 
369 ,78.9658 ,1.68384 ,-0.64921 ,-6.37003 
370 ,79.1739 ,1.68590 ,-0.68343 ,-6.70582 
371 ,79.3820 ,1.68814 ,-0.69370 ,-6.80655 
372 ,79.5901 ,1.69007 ,-0.67316 ,-6.60508 
373 ,79.8142 ,1.69235 ,-0.69712 ,-6.84013 
374 ,80.0223 ,1.69437 ,-0.71081 ,-6.97444 
375 ,80.2300 ,1.69646 ,-0.71081 ,-6.97444 
376 ,80.4382 ,1.69855 ,-0.74161 ,-7.27665 
377 ,80.6461 ,1.70069 ,-0.73476 ,-7.20949 
378 ,80.8545 ,1.70275 ,-0.76898 ,-7.54527 
379 ,81.0949 ,1.70514 ,-0.77925 ,-7.64601 
380 ,81.3185 ,1.70735 ,-0.78952 ,-7.74674 
381 ,81.5266 ,1.70954 ,-0.80321 ,-7.88106 
382 ,81.7346 ,1.71151 ,-0.82374 ,-8.08253 
383 ,81.9592 ,1.71379 ,-0.82374 ,-8.08253 
384 ,82.1834 ,1.71601 ,-0.83401 ,-8.18326 
385 ,82.3910 ,1.71808 ,-0.84427 ,-8.28400 
386 ,82.5995 ,1.72024 ,-0.85112 ,-8.35115 
387 ,82.8236 ,1.72242 ,-0.85454 ,-8.38473 
388 ,83.0318 ,1.72455 ,-0.87507 ,-8.58620 
389 ,83.2398 ,1.72653 ,-0.90587 ,-8.88841 
390 ,83.4478 ,1.72866 ,-0.88192 ,-8.65336 
391 ,83.6721 ,1.73091 ,-0.91956 ,-9.02272 
392 ,83.8961 ,1.73312 ,-0.92298 ,-9.05630 
393 ,84.1042 ,1.73521 ,-0.91614 ,-8.98914 
394 ,84.3439 ,1.73763 ,-0.92640 ,-9.08988 
395 ,84.5364 ,1.73962 ,-0.95036 ,-9.32492 
396 ,84.7445 ,1.74163 ,-0.94009 ,-9.22419 
397 ,84.9684 ,1.74386 ,-0.96063 ,-9.42566 
398 ,85.1766 ,1.74592 ,-0.98800 ,-9.69429 
399 ,85.3846 ,1.74800 ,-0.98800 ,-9.69429 
400 ,85.5767 ,1.75001 ,-1.01196 ,-9.92933 
401 ,85.7845 ,1.75197 ,-1.00854 ,-9.89576 
402 ,85.9930 ,1.75410 ,-1.02907 ,-10.09723 
403 ,86.2170 ,1.75630 ,-1.04618 ,-10.26512 
404 ,86.4251 ,1.75850 ,-1.05302 ,-10.33227 
405 ,86.6331 ,1.76049 ,-1.06329 ,-10.43301 
406 ,86.8731 ,1.76275 ,-1.06671 ,-10.46659 
407 ,87.1132 ,1.76516 ,-1.08382 ,-10.63448 
408 ,87.3215 ,1.76736 ,-1.08725 ,-10.66806 
409 ,87.5293 ,1.76940 ,-1.11120 ,-10.90310 
410 ,87.7373 ,1.77151 ,-1.12147 ,-11.00384 
411 ,87.9454 ,1.77361 ,-1.11805 ,-10.97026 
412 ,88.1694 ,1.77580 ,-1.14200 ,-11.20531 
413 ,88.3616 ,1.77787 ,-1.15227 ,-11.30604 
414 ,88.5537 ,1.77981 ,-1.16253 ,-11.40678 
415 ,88.7617 ,1.78179 ,-1.14884 ,-11.27247 
416 ,88.9539 ,1.78377 ,-1.18307 ,-11.60825 
417 ,89.1459 ,1.78572 ,-1.17964 ,-11.57467 
418 ,89.3540 ,1.78782 ,-1.19676 ,-11.74256 
419 ,89.5461 ,1.78973 ,-1.18649 ,-11.64183 
420 ,89.7541 ,1.79169 ,-1.22755 ,-12.04477 
421 ,89.9622 ,1.79380 ,-1.21044 ,-11.87688 
422 ,90.1543 ,1.79580 ,-1.23782 ,-12.14550 
423 ,90.3624 ,1.79787 ,-1.23440 ,-12.11192 
424 ,90.5545 ,1.79980 ,-1.25151 ,-12.27981 
425 ,90.7467 ,1.80173 ,-1.24124 ,-12.17908 
426 ,90.9548 ,1.80370 ,-1.28573 ,-12.61560 
427 ,91.1629 ,1.80581 ,-1.27204 ,-12.48128 
428 ,91.3710 ,1.80786 ,-1.30969 ,-12.85065 
429 ,91.5950 ,1.81010 ,-1.30969 ,-12.85065 
430 ,91.8032 ,1.81221 ,-1.30284 ,-12.78349 
431 ,92.0111 ,1.81431 ,-1.34049 ,-13.15285 
432 ,92.2196 ,1.81632 ,-1.33022 ,-13.05212 
433 ,92.4276 ,1.81846 ,-1.34049 ,-13.15285 
434 ,92.6516 ,1.82069 ,-1.37129 ,-13.45506 
435 ,92.8599 ,1.82269 ,-1.34049 ,-13.15285 
436 ,93.0361 ,1.82464 ,-1.38155 ,-13.55579 
437 ,93.2443 ,1.82661 ,-1.37471 ,-13.48863 
438 ,93.4362 ,1.82859 ,-1.40893 ,-13.82442 
439 ,93.6437 ,1.83050 ,-1.39866 ,-13.72368 
440 ,93.8524 ,1.83261 ,-1.42262 ,-13.95873 
441 ,94.0761 ,1.83484 ,-1.41920 ,-13.92515 
442 ,94.3161 ,1.83718 ,-1.41920 ,-13.92515 
443 ,94.5242 ,1.83936 ,-1.43288 ,-14.05946 
444 ,94.7322 ,1.84155 ,-1.45342 ,-14.26093 
445 ,94.9562 ,1.84369 ,-1.47053 ,-14.42883 
446 ,95.1964 ,1.84613 ,-1.46711 ,-14.39525 
447 ,95.4206 ,1.84827 ,-1.48080 ,-14.52956 
448 ,95.6450 ,1.85064 ,-1.49448 ,-14.66387 
449 ,95.8848 ,1.85290 ,-1.50475 ,-14.76461 
450 ,96.0933 ,1.85503 ,-1.53555 ,-15.06681 
451 ,96.2853 ,1.85703 ,-1.51844 ,-14.89892 
452 ,96.5096 ,1.85917 ,-1.55608 ,-15.26828 
453 ,96.7176 ,1.86140 ,-1.56293 ,-15.33544 
454 ,96.9095 ,1.86325 ,-1.56977 ,-15.40260 
455 ,97.1337 ,1.86544 ,-1.56977 ,-15.40260 
456 ,97.3259 ,1.86748 ,-1.56293 ,-15.33544 
457 ,97.5339 ,1.86943 ,-1.58688 ,-15.57049 
458 ,97.7578 ,1.87165 ,-1.59373 ,-15.63764 
459 ,97.9662 ,1.87376 ,-1.60742 ,-15.77196 
460 ,98.1741 ,1.87583 ,-1.61084 ,-15.80554 
