Data stamp = , 18-05-2022 21:24:49 100

Calibration Values: 
Slope = , 26.54 , g/V 
Offset Voltage at no contact = , -0.501760 , V 

No , Time , Stage Position ,   Mass , Force 
   ,  (s) ,      (mm)      ,   (g)  , (mN)  

1 ,0.0000 ,0.89957 ,5.30536 ,52.05621 
2 ,0.2387 ,0.89966 ,5.32247 ,52.22410 
3 ,0.8631 ,0.90252 ,5.28825 ,51.88832 
4 ,1.0869 ,0.90510 ,5.29852 ,51.98905 
5 ,1.3270 ,0.90745 ,5.31563 ,52.15694 
6 ,1.5352 ,0.90970 ,5.28825 ,51.88832 
7 ,1.7437 ,0.91176 ,5.27456 ,51.75401 
8 ,1.9674 ,0.91400 ,5.26430 ,51.65327 
9 ,2.1759 ,0.91604 ,5.21639 ,51.18317 
10 ,2.3838 ,0.91811 ,5.21639 ,51.18317 
11 ,2.5917 ,0.92018 ,5.19585 ,50.98170 
12 ,2.8000 ,0.92225 ,5.17532 ,50.78023 
13 ,3.0078 ,0.92437 ,5.16163 ,50.64592 
14 ,3.2162 ,0.92639 ,5.11372 ,50.17583 
15 ,3.4245 ,0.92858 ,5.11372 ,50.17583 
16 ,3.6645 ,0.93096 ,5.09661 ,50.00793 
17 ,3.8886 ,0.93321 ,5.06923 ,49.73931 
18 ,4.0961 ,0.93536 ,5.03159 ,49.36995 
19 ,4.3049 ,0.93728 ,5.03159 ,49.36995 
20 ,4.5290 ,0.93963 ,5.01790 ,49.23563 
21 ,4.7372 ,0.94164 ,4.96315 ,48.69838 
22 ,4.9449 ,0.94371 ,4.96315 ,48.69838 
23 ,5.1528 ,0.94579 ,4.93919 ,48.46333 
24 ,5.3770 ,0.94805 ,4.90155 ,48.09397 
25 ,5.5854 ,0.95017 ,4.90155 ,48.09397 
26 ,5.7931 ,0.95216 ,4.87075 ,47.79177 
27 ,6.0012 ,0.95428 ,4.85706 ,47.65745 
28 ,6.2093 ,0.95638 ,4.83995 ,47.48956 
29 ,6.4177 ,0.95845 ,4.81599 ,47.25451 
30 ,6.6256 ,0.96050 ,4.80573 ,47.15378 
31 ,6.8340 ,0.96261 ,4.77493 ,46.85157 
32 ,7.0420 ,0.96477 ,4.73386 ,46.44863 
33 ,7.2502 ,0.96677 ,4.73728 ,46.48221 
34 ,7.4581 ,0.96881 ,4.70306 ,46.14643 
35 ,7.6503 ,0.97082 ,4.70306 ,46.14643 
36 ,7.8582 ,0.97286 ,4.65857 ,45.70991 
37 ,8.0661 ,0.97490 ,4.67568 ,45.87780 
38 ,8.2746 ,0.97697 ,4.63462 ,45.47486 
39 ,8.4823 ,0.97905 ,4.63462 ,45.47486 
40 ,8.7067 ,0.98127 ,4.60724 ,45.20624 
41 ,8.9309 ,0.98357 ,4.57986 ,44.93761 
42 ,9.1548 ,0.98579 ,4.53880 ,44.53467 
43 ,9.3631 ,0.98790 ,4.54222 ,44.56825 
44 ,9.5867 ,0.99013 ,4.51826 ,44.33320 
45 ,9.8111 ,0.99232 ,4.48404 ,43.99742 
46 ,10.0355 ,0.99458 ,4.46009 ,43.76237 
47 ,10.2435 ,0.99681 ,4.44298 ,43.59448 
48 ,10.4511 ,0.99870 ,4.42586 ,43.42659 
49 ,10.6596 ,1.00082 ,4.41218 ,43.29227 
50 ,10.8992 ,1.00322 ,4.39849 ,43.15796 
51 ,11.1072 ,1.00535 ,4.38480 ,43.02365 
52 ,11.3154 ,1.00739 ,4.34716 ,42.65429 
53 ,11.5239 ,1.00947 ,4.36084 ,42.78860 
54 ,11.7479 ,1.01170 ,4.31636 ,42.35208 
55 ,11.9399 ,1.01366 ,4.29924 ,42.18419 
56 ,12.1642 ,1.01589 ,4.28213 ,42.01630 
57 ,12.3881 ,1.01810 ,4.25818 ,41.78125 
58 ,12.5961 ,1.02017 ,4.22053 ,41.41189 
59 ,12.8044 ,1.02229 ,4.22396 ,41.44547 
60 ,13.0124 ,1.02440 ,4.20000 ,41.21042 
61 ,13.2206 ,1.02644 ,4.18974 ,41.10968 
62 ,13.4285 ,1.02861 ,4.16236 ,40.84106 
63 ,13.6047 ,1.03046 ,4.15551 ,40.77390 
64 ,13.8125 ,1.03230 ,4.11787 ,40.40454 
65 ,14.0205 ,1.03453 ,4.10418 ,40.27023 
66 ,14.2450 ,1.03660 ,4.07338 ,39.96802 
67 ,14.4527 ,1.03890 ,4.05627 ,39.80013 
68 ,14.6772 ,1.04091 ,4.05969 ,39.83371 
69 ,14.9013 ,1.04325 ,4.03574 ,39.59866 
70 ,15.1092 ,1.04533 ,3.99809 ,39.22930 
71 ,15.3333 ,1.04753 ,3.97414 ,38.99425 
72 ,15.5575 ,1.04979 ,3.97072 ,38.96067 
73 ,15.7816 ,1.05198 ,3.95361 ,38.79278 
74 ,15.9896 ,1.05410 ,3.91938 ,38.45700 
75 ,16.2138 ,1.05631 ,3.90570 ,38.32268 
76 ,16.4380 ,1.05858 ,3.89543 ,38.22195 
77 ,16.6618 ,1.06082 ,3.87832 ,38.05406 
78 ,16.8701 ,1.06294 ,3.83041 ,37.58396 
79 ,17.0942 ,1.06520 ,3.83041 ,37.58396 
80 ,17.3182 ,1.06740 ,3.79961 ,37.28176 
81 ,17.5261 ,1.06951 ,3.78934 ,37.18102 
82 ,17.7504 ,1.07171 ,3.76539 ,36.94597 
83 ,17.9585 ,1.07381 ,3.75512 ,36.84524 
84 ,18.1661 ,1.07587 ,3.73801 ,36.67735 
85 ,18.3745 ,1.07794 ,3.70721 ,36.37514 
86 ,18.5987 ,1.08021 ,3.70037 ,36.30799 
87 ,18.7907 ,1.08225 ,3.67299 ,36.03936 
88 ,18.9984 ,1.08417 ,3.66614 ,35.97220 
89 ,19.2070 ,1.08623 ,3.64561 ,35.77073 
90 ,19.4150 ,1.08843 ,3.62508 ,35.56926 
91 ,19.6388 ,1.09059 ,3.60454 ,35.36779 
92 ,19.8471 ,1.09266 ,3.58401 ,35.16632 
93 ,20.0392 ,1.09470 ,3.56348 ,34.96485 
94 ,20.2475 ,1.09665 ,3.55321 ,34.86412 
95 ,20.4555 ,1.09881 ,3.52926 ,34.62907 
96 ,20.6792 ,1.10096 ,3.51899 ,34.52834 
97 ,20.8874 ,1.10312 ,3.48819 ,34.22613 
98 ,21.0956 ,1.10510 ,3.49504 ,34.29329 
99 ,21.3039 ,1.10720 ,3.46766 ,34.02466 
100 ,21.5280 ,1.10948 ,3.43344 ,33.68888 
101 ,21.7359 ,1.11156 ,3.43344 ,33.68888 
102 ,21.9602 ,1.11381 ,3.41633 ,33.52099 
103 ,22.1841 ,1.11599 ,3.37868 ,33.15163 
104 ,22.3919 ,1.11809 ,3.35473 ,32.91658 
105 ,22.5842 ,1.12009 ,3.34446 ,32.81584 
106 ,22.7923 ,1.12210 ,3.31708 ,32.54722 
107 ,23.0165 ,1.12439 ,3.31708 ,32.54722 
108 ,23.2086 ,1.12631 ,3.27259 ,32.11070 
109 ,23.4167 ,1.12834 ,3.27944 ,32.17786 
110 ,23.6408 ,1.13063 ,3.27259 ,32.11070 
111 ,23.8329 ,1.13258 ,3.23837 ,31.77492 
112 ,24.0404 ,1.13459 ,3.22468 ,31.64060 
113 ,24.2327 ,1.13654 ,3.18362 ,31.23766 
114 ,24.4410 ,1.13863 ,3.21100 ,31.50629 
115 ,24.6492 ,1.14071 ,3.14597 ,30.86830 
116 ,24.8570 ,1.14274 ,3.17335 ,31.13693 
117 ,25.0651 ,1.14482 ,3.12544 ,30.66683 
118 ,25.2889 ,1.14708 ,3.10833 ,30.49894 
119 ,25.5292 ,1.14933 ,3.09806 ,30.39821 
120 ,25.7374 ,1.15156 ,3.07411 ,30.16316 
121 ,25.9453 ,1.15361 ,3.04331 ,29.86095 
122 ,26.1533 ,1.15573 ,3.03304 ,29.76022 
123 ,26.3935 ,1.15803 ,3.00567 ,29.49159 
124 ,26.6015 ,1.16020 ,3.00567 ,29.49159 
125 ,26.8097 ,1.16227 ,2.97487 ,29.18939 
126 ,27.0177 ,1.16440 ,2.96802 ,29.12223 
127 ,27.2258 ,1.16648 ,2.94064 ,28.85360 
128 ,27.4339 ,1.16858 ,2.93722 ,28.82003 
129 ,27.6420 ,1.17059 ,2.90642 ,28.51782 
130 ,27.8500 ,1.17268 ,2.88247 ,28.28277 
131 ,28.0582 ,1.17475 ,2.88589 ,28.31635 
132 ,28.2662 ,1.17680 ,2.83798 ,27.84625 
133 ,28.4744 ,1.17891 ,2.84140 ,27.87983 
134 ,28.6824 ,1.18100 ,2.81745 ,27.64479 
135 ,28.9065 ,1.18313 ,2.80034 ,27.47689 
136 ,29.1146 ,1.18530 ,2.79349 ,27.40974 
137 ,29.3230 ,1.18737 ,2.76269 ,27.10753 
138 ,29.5467 ,1.18958 ,2.73874 ,26.87248 
139 ,29.7553 ,1.19165 ,2.74216 ,26.90606 
140 ,29.9634 ,1.19384 ,2.71478 ,26.63744 
141 ,30.1871 ,1.19601 ,2.67714 ,26.26807 
142 ,30.3796 ,1.19801 ,2.69425 ,26.43597 
143 ,30.6033 ,1.20015 ,2.66003 ,26.10018 
144 ,30.8114 ,1.20232 ,2.64634 ,25.96587 
145 ,31.0195 ,1.20450 ,2.62581 ,25.76440 
146 ,31.2280 ,1.20645 ,2.59843 ,25.49577 
147 ,31.4362 ,1.20852 ,2.60185 ,25.52935 
148 ,31.6442 ,1.21057 ,2.56078 ,25.12641 
149 ,31.8521 ,1.21270 ,2.56421 ,25.15999 
150 ,32.0764 ,1.21495 ,2.54367 ,24.95852 
151 ,32.3003 ,1.21715 ,2.52998 ,24.82421 
152 ,32.5082 ,1.21925 ,2.51287 ,24.65632 
153 ,32.7166 ,1.22133 ,2.50261 ,24.55558 
154 ,32.9246 ,1.22339 ,2.45127 ,24.05191 
155 ,33.1488 ,1.22563 ,2.46154 ,24.15264 
156 ,33.3568 ,1.22770 ,2.45812 ,24.11906 
157 ,33.5808 ,1.22996 ,2.41021 ,23.64897 
158 ,33.8050 ,1.23209 ,2.40336 ,23.58181 
159 ,34.0290 ,1.23448 ,2.38283 ,23.38034 
160 ,34.2531 ,1.23663 ,2.38968 ,23.44750 
161 ,34.4613 ,1.23875 ,2.33834 ,22.94382 
162 ,34.6854 ,1.24096 ,2.32123 ,22.77593 
163 ,34.8933 ,1.24309 ,2.30754 ,22.64162 
164 ,35.1175 ,1.24531 ,2.30412 ,22.60804 
165 ,35.3257 ,1.24739 ,2.27332 ,22.30584 
166 ,35.5339 ,1.24948 ,2.26990 ,22.27226 
167 ,35.7579 ,1.25172 ,2.24594 ,22.03721 
168 ,35.9659 ,1.25376 ,2.20830 ,21.66785 
169 ,36.1897 ,1.25603 ,2.20830 ,21.66785 
170 ,36.3820 ,1.25799 ,2.18777 ,21.46638 
171 ,36.5900 ,1.26007 ,2.19119 ,21.49996 
172 ,36.7981 ,1.26211 ,2.16039 ,21.19775 
173 ,37.0385 ,1.26442 ,2.12617 ,20.86197 
174 ,37.2620 ,1.26675 ,2.10221 ,20.62692 
175 ,37.4704 ,1.26883 ,2.11248 ,20.72766 
176 ,37.6785 ,1.27096 ,2.07826 ,20.39187 
177 ,37.9025 ,1.27315 ,2.05773 ,20.19040 
178 ,38.1107 ,1.27522 ,2.05773 ,20.19040 
179 ,38.3345 ,1.27750 ,2.05430 ,20.15682 
180 ,38.5430 ,1.27963 ,2.00982 ,19.72031 
181 ,38.7510 ,1.28166 ,2.01666 ,19.78746 
182 ,38.9592 ,1.28373 ,1.98586 ,19.48526 
183 ,39.1672 ,1.28583 ,1.95848 ,19.21663 
184 ,39.3909 ,1.28804 ,1.96190 ,19.25021 
185 ,39.5992 ,1.29017 ,1.93453 ,18.98158 
186 ,39.8075 ,1.29223 ,1.91057 ,18.74654 
187 ,40.0156 ,1.29428 ,1.91742 ,18.81369 
188 ,40.2399 ,1.29655 ,1.88662 ,18.51149 
189 ,40.4638 ,1.29874 ,1.86951 ,18.34360 
190 ,40.6876 ,1.30090 ,1.86266 ,18.27644 
191 ,40.8960 ,1.30304 ,1.85582 ,18.20928 
192 ,41.1361 ,1.30539 ,1.82502 ,17.90708 
193 ,41.3602 ,1.30772 ,1.79764 ,17.63845 
194 ,41.5520 ,1.30975 ,1.78395 ,17.50414 
195 ,41.7764 ,1.31196 ,1.77711 ,17.43698 
196 ,42.0002 ,1.31415 ,1.74289 ,17.10120 
197 ,42.2083 ,1.31628 ,1.72235 ,16.89973 
198 ,42.4003 ,1.31820 ,1.72235 ,16.89973 
199 ,42.6246 ,1.32033 ,1.69498 ,16.63110 
200 ,42.8326 ,1.32247 ,1.69498 ,16.63110 
201 ,43.0410 ,1.32447 ,1.67102 ,16.39605 
202 ,43.2490 ,1.32661 ,1.65733 ,16.26174 
203 ,43.4730 ,1.32882 ,1.65049 ,16.19458 
204 ,43.6972 ,1.33111 ,1.62995 ,15.99311 
205 ,43.9047 ,1.33323 ,1.58547 ,15.55660 
206 ,44.1133 ,1.33524 ,1.58889 ,15.59018 
207 ,44.3376 ,1.33748 ,1.58204 ,15.52302 
208 ,44.5616 ,1.33970 ,1.55809 ,15.28797 
209 ,44.7856 ,1.34191 ,1.54098 ,15.12008 
210 ,44.9932 ,1.34409 ,1.53413 ,15.05292 
211 ,45.2015 ,1.34615 ,1.50676 ,14.78430 
212 ,45.4100 ,1.34822 ,1.48622 ,14.58283 
213 ,45.6180 ,1.35031 ,1.48280 ,14.54925 
214 ,45.8421 ,1.35255 ,1.45200 ,14.24704 
215 ,46.0499 ,1.35459 ,1.45542 ,14.28062 
216 ,46.2741 ,1.35693 ,1.44858 ,14.21346 
217 ,46.4984 ,1.35910 ,1.41094 ,13.84410 
218 ,46.7064 ,1.36112 ,1.39040 ,13.64263 
219 ,46.9144 ,1.36321 ,1.39383 ,13.67621 
220 ,47.1225 ,1.36529 ,1.36645 ,13.40759 
221 ,47.3305 ,1.36746 ,1.35960 ,13.34043 
222 ,47.5389 ,1.36955 ,1.33907 ,13.13896 
223 ,47.7468 ,1.37155 ,1.31512 ,12.90391 
224 ,47.9865 ,1.37379 ,1.31512 ,12.90391 
225 ,48.1629 ,1.37587 ,1.29800 ,12.73602 
226 ,48.3708 ,1.37775 ,1.29116 ,12.66886 
227 ,48.5630 ,1.37975 ,1.25009 ,12.26592 
228 ,48.7710 ,1.38181 ,1.25694 ,12.33308 
229 ,48.9792 ,1.38392 ,1.23298 ,12.09803 
230 ,49.1873 ,1.38598 ,1.20903 ,11.86298 
231 ,49.3950 ,1.38813 ,1.20903 ,11.86298 
232 ,49.5873 ,1.39010 ,1.18165 ,11.59436 
233 ,49.7955 ,1.39202 ,1.18850 ,11.66151 
234 ,50.0035 ,1.39412 ,1.15085 ,11.29215 
235 ,50.2279 ,1.39635 ,1.14401 ,11.22500 
236 ,50.4355 ,1.39845 ,1.13716 ,11.15784 
237 ,50.6441 ,1.40058 ,1.10636 ,10.85563 
238 ,50.8518 ,1.40266 ,1.11663 ,10.95637 
239 ,51.0601 ,1.40469 ,1.07214 ,10.51985 
240 ,51.2681 ,1.40686 ,1.06530 ,10.45270 
241 ,51.4761 ,1.40892 ,1.05845 ,10.38554 
242 ,51.7164 ,1.41113 ,1.02765 ,10.08333 
243 ,51.9406 ,1.41348 ,1.01739 ,9.98260 
244 ,52.1646 ,1.41570 ,0.99685 ,9.78113 
245 ,52.3726 ,1.41779 ,1.01396 ,9.94902 
246 ,52.5966 ,1.42005 ,0.97290 ,9.54608 
247 ,52.8048 ,1.42209 ,0.95237 ,9.34461 
248 ,53.0127 ,1.42427 ,0.96605 ,9.47892 
249 ,53.2372 ,1.42642 ,0.93525 ,9.17672 
250 ,53.4451 ,1.42851 ,0.90103 ,8.84094 
251 ,53.6692 ,1.43077 ,0.91130 ,8.94167 
252 ,53.8772 ,1.43282 ,0.89761 ,8.80736 
253 ,54.0693 ,1.43486 ,0.85997 ,8.43800 
254 ,54.2774 ,1.43690 ,0.86681 ,8.50515 
255 ,54.5015 ,1.43905 ,0.83601 ,8.20295 
256 ,54.7094 ,1.44116 ,0.85312 ,8.37084 
257 ,54.9172 ,1.44323 ,0.82232 ,8.06864 
258 ,55.1255 ,1.44536 ,0.79495 ,7.80001 
259 ,55.3496 ,1.44759 ,0.79495 ,7.80001 
260 ,55.5739 ,1.44983 ,0.78126 ,7.66570 
261 ,55.7818 ,1.45190 ,0.75046 ,7.36349 
262 ,56.0057 ,1.45413 ,0.74019 ,7.26276 
263 ,56.2142 ,1.45626 ,0.74361 ,7.29633 
264 ,56.4384 ,1.45843 ,0.71966 ,7.06129 
265 ,56.6461 ,1.46050 ,0.68886 ,6.75908 
266 ,56.8544 ,1.46258 ,0.69570 ,6.82624 
267 ,57.0625 ,1.46471 ,0.65464 ,6.42330 
268 ,57.2864 ,1.46694 ,0.64437 ,6.32256 
269 ,57.4946 ,1.46900 ,0.65121 ,6.38972 
270 ,57.7028 ,1.47111 ,0.61357 ,6.02036 
271 ,57.9268 ,1.47327 ,0.61357 ,6.02036 
272 ,58.1505 ,1.47557 ,0.59988 ,5.88605 
273 ,58.3750 ,1.47770 ,0.57935 ,5.68458 
274 ,58.5988 ,1.48005 ,0.56566 ,5.55026 
275 ,58.8069 ,1.48214 ,0.55882 ,5.48311 
276 ,59.0472 ,1.48445 ,0.55197 ,5.41595 
277 ,59.2553 ,1.48661 ,0.52459 ,5.14732 
278 ,59.4634 ,1.48867 ,0.50406 ,4.94585 
279 ,59.6875 ,1.49086 ,0.50064 ,4.91228 
280 ,59.8957 ,1.49297 ,0.48011 ,4.71081 
281 ,60.1198 ,1.49525 ,0.46984 ,4.61007 
282 ,60.3278 ,1.49730 ,0.45615 ,4.47576 
283 ,60.5359 ,1.49948 ,0.43562 ,4.27429 
284 ,60.7437 ,1.50146 ,0.41166 ,4.03924 
285 ,60.9356 ,1.50345 ,0.42193 ,4.13997 
286 ,61.1443 ,1.50551 ,0.38771 ,3.80419 
287 ,61.3682 ,1.50768 ,0.38771 ,3.80419 
288 ,61.5760 ,1.50982 ,0.37744 ,3.70346 
289 ,61.7999 ,1.51207 ,0.33980 ,3.33410 
290 ,62.0080 ,1.51417 ,0.34664 ,3.40125 
291 ,62.2167 ,1.51621 ,0.34322 ,3.36767 
292 ,62.4409 ,1.51855 ,0.30900 ,3.03189 
293 ,62.6483 ,1.52049 ,0.31584 ,3.09905 
294 ,62.8566 ,1.52261 ,0.29873 ,2.93116 
295 ,63.0649 ,1.52471 ,0.27135 ,2.66253 
296 ,63.2731 ,1.52673 ,0.28504 ,2.79684 
297 ,63.4971 ,1.52901 ,0.23371 ,2.29317 
298 ,63.7051 ,1.53102 ,0.23713 ,2.32675 
299 ,63.9133 ,1.53322 ,0.20976 ,2.05812 
300 ,64.1373 ,1.53539 ,0.20291 ,1.99096 
301 ,64.3455 ,1.53750 ,0.18238 ,1.78949 
302 ,64.5533 ,1.53953 ,0.19264 ,1.89023 
303 ,64.7777 ,1.54185 ,0.16185 ,1.58802 
304 ,64.9853 ,1.54393 ,0.16869 ,1.65518 
305 ,65.1938 ,1.54602 ,0.15500 ,1.52087 
306 ,65.4017 ,1.54816 ,0.12078 ,1.18508 
307 ,65.5939 ,1.54997 ,0.12078 ,1.18508 
308 ,65.8019 ,1.55206 ,0.08998 ,0.88288 
309 ,65.9775 ,1.55399 ,0.09682 ,0.95004 
310 ,66.1863 ,1.55591 ,0.07287 ,0.71499 
311 ,66.3943 ,1.55807 ,0.07629 ,0.74857 
312 ,66.6023 ,1.56004 ,0.04207 ,0.41278 
313 ,66.8104 ,1.56212 ,0.05234 ,0.51352 
314 ,67.0343 ,1.56437 ,0.04207 ,0.41278 
315 ,67.2587 ,1.56662 ,0.00100 ,0.00984 
316 ,67.4826 ,1.56887 ,-0.00242 ,-0.02373 
317 ,67.6904 ,1.57104 ,-0.01611 ,-0.15805 
318 ,67.8829 ,1.57292 ,-0.02980 ,-0.29236 
319 ,68.1070 ,1.57511 ,-0.01953 ,-0.19163 
320 ,68.3470 ,1.57740 ,-0.04348 ,-0.42667 
321 ,68.5712 ,1.57971 ,-0.05717 ,-0.56099 
322 ,68.7953 ,1.58194 ,-0.08797 ,-0.86319 
323 ,69.0034 ,1.58406 ,-0.10851 ,-1.06466 
324 ,69.2274 ,1.58627 ,-0.09824 ,-0.96393 
325 ,69.4356 ,1.58842 ,-0.12904 ,-1.26613 
326 ,69.6597 ,1.59060 ,-0.13931 ,-1.36687 
327 ,69.8837 ,1.59280 ,-0.15984 ,-1.56834 
328 ,70.0917 ,1.59492 ,-0.15299 ,-1.50118 
329 ,70.3160 ,1.59710 ,-0.18722 ,-1.83696 
330 ,70.5400 ,1.59942 ,-0.18379 ,-1.80338 
331 ,70.7797 ,1.60187 ,-0.21802 ,-2.13917 
332 ,70.9878 ,1.60387 ,-0.20090 ,-1.97128 
333 ,71.1959 ,1.60594 ,-0.23513 ,-2.30706 
334 ,71.4042 ,1.60806 ,-0.23170 ,-2.27348 
335 ,71.6285 ,1.61034 ,-0.23855 ,-2.34064 
336 ,71.8524 ,1.61252 ,-0.25908 ,-2.54211 
337 ,72.0607 ,1.61459 ,-0.28304 ,-2.77716 
338 ,72.2687 ,1.61668 ,-0.27619 ,-2.71000 
339 ,72.4769 ,1.61875 ,-0.31041 ,-3.04578 
340 ,72.7008 ,1.62098 ,-0.32068 ,-3.14652 
341 ,72.9090 ,1.62302 ,-0.31384 ,-3.07936 
342 ,73.1170 ,1.62515 ,-0.35490 ,-3.48230 
343 ,73.3250 ,1.62724 ,-0.33095 ,-3.24725 
344 ,73.5493 ,1.62943 ,-0.35490 ,-3.48230 
345 ,73.7572 ,1.63156 ,-0.38228 ,-3.75093 
346 ,73.9814 ,1.63382 ,-0.38912 ,-3.81808 
347 ,74.1893 ,1.63586 ,-0.38228 ,-3.75093 
348 ,74.3974 ,1.63793 ,-0.42335 ,-4.15387 
349 ,74.6057 ,1.64007 ,-0.40623 ,-3.98597 
350 ,74.8294 ,1.64224 ,-0.42335 ,-4.15387 
351 ,75.0380 ,1.64439 ,-0.45072 ,-4.42249 
352 ,75.2617 ,1.64657 ,-0.46783 ,-4.59038 
353 ,75.4701 ,1.64873 ,-0.46099 ,-4.52323 
354 ,75.6783 ,1.65083 ,-0.49863 ,-4.89259 
355 ,75.8859 ,1.65282 ,-0.48152 ,-4.72470 
356 ,76.1104 ,1.65507 ,-0.49179 ,-4.82543 
357 ,76.3344 ,1.65731 ,-0.52601 ,-5.16121 
358 ,76.5425 ,1.65938 ,-0.52943 ,-5.19479 
359 ,76.7506 ,1.66153 ,-0.53628 ,-5.26195 
360 ,76.9745 ,1.66371 ,-0.56023 ,-5.49700 
361 ,77.1826 ,1.66591 ,-0.54997 ,-5.39626 
362 ,77.3910 ,1.66790 ,-0.56023 ,-5.49700 
363 ,77.5989 ,1.66995 ,-0.59445 ,-5.83278 
364 ,77.8071 ,1.67208 ,-0.59788 ,-5.86636 
365 ,78.0472 ,1.67434 ,-0.61499 ,-6.03425 
366 ,78.2713 ,1.67670 ,-0.63894 ,-6.26930 
367 ,78.4792 ,1.67878 ,-0.63210 ,-6.20214 
368 ,78.6712 ,1.68072 ,-0.63552 ,-6.23572 
369 ,78.8793 ,1.68279 ,-0.66290 ,-6.50435 
370 ,79.1037 ,1.68496 ,-0.65605 ,-6.43719 
371 ,79.3115 ,1.68709 ,-0.68001 ,-6.67224 
372 ,79.5198 ,1.68926 ,-0.70396 ,-6.90729 
373 ,79.7280 ,1.69125 ,-0.70054 ,-6.87371 
374 ,79.9360 ,1.69337 ,-0.72792 ,-7.14233 
375 ,80.1443 ,1.69537 ,-0.70396 ,-6.90729 
376 ,80.3518 ,1.69746 ,-0.74503 ,-7.31023 
377 ,80.5604 ,1.69957 ,-0.75530 ,-7.41096 
378 ,80.7843 ,1.70178 ,-0.74503 ,-7.31023 
379 ,80.9923 ,1.70390 ,-0.76556 ,-7.51170 
380 ,81.2161 ,1.70608 ,-0.78952 ,-7.74674 
381 ,81.4083 ,1.70810 ,-0.78610 ,-7.71317 
382 ,81.6328 ,1.71025 ,-0.80321 ,-7.88106 
383 ,81.8887 ,1.71291 ,-0.81347 ,-7.98179 
384 ,82.0969 ,1.71487 ,-0.84769 ,-8.31758 
385 ,82.3209 ,1.71716 ,-0.83401 ,-8.18326 
386 ,82.5286 ,1.71930 ,-0.84085 ,-8.25042 
387 ,82.7371 ,1.72143 ,-0.86823 ,-8.51904 
388 ,82.9451 ,1.72349 ,-0.86481 ,-8.48547 
389 ,83.1536 ,1.72545 ,-0.89560 ,-8.78767 
390 ,83.3613 ,1.72760 ,-0.89903 ,-8.82125 
391 ,83.5855 ,1.72978 ,-0.88534 ,-8.68694 
392 ,83.8097 ,1.73206 ,-0.92298 ,-9.05630 
393 ,84.0178 ,1.73416 ,-0.93667 ,-9.19061 
394 ,84.2422 ,1.73637 ,-0.92640 ,-9.08988 
395 ,84.4499 ,1.73843 ,-0.94694 ,-9.29135 
396 ,84.6577 ,1.74051 ,-0.96747 ,-9.49282 
397 ,84.8819 ,1.74279 ,-0.96747 ,-9.49282 
398 ,85.1062 ,1.74500 ,-0.97089 ,-9.52639 
399 ,85.3303 ,1.74729 ,-0.99485 ,-9.76144 
400 ,85.5383 ,1.74942 ,-1.03249 ,-10.13080 
401 ,85.7466 ,1.75146 ,-0.99827 ,-9.79502 
402 ,85.9544 ,1.75351 ,-1.03591 ,-10.16438 
403 ,86.1624 ,1.75555 ,-1.01538 ,-9.96291 
404 ,86.3862 ,1.75780 ,-1.04960 ,-10.29869 
405 ,86.5787 ,1.75984 ,-1.05645 ,-10.36585 
406 ,86.8028 ,1.76195 ,-1.04960 ,-10.29869 
407 ,87.0109 ,1.76404 ,-1.07698 ,-10.56732 
408 ,87.2029 ,1.76605 ,-1.08040 ,-10.60090 
409 ,87.4110 ,1.76800 ,-1.10436 ,-10.83595 
410 ,87.6193 ,1.77010 ,-1.11462 ,-10.93668 
411 ,87.8436 ,1.77239 ,-1.11120 ,-10.90310 
412 ,88.0510 ,1.77441 ,-1.13858 ,-11.17173 
413 ,88.2594 ,1.77666 ,-1.15227 ,-11.30604 
414 ,88.4675 ,1.77867 ,-1.13173 ,-11.10457 
415 ,88.6914 ,1.78083 ,-1.16253 ,-11.40678 
416 ,88.9154 ,1.78309 ,-1.17964 ,-11.57467 
417 ,89.1235 ,1.78510 ,-1.17280 ,-11.50751 
418 ,89.3319 ,1.78734 ,-1.19676 ,-11.74256 
419 ,89.5561 ,1.78944 ,-1.21729 ,-11.94403 
420 ,89.7640 ,1.79157 ,-1.19676 ,-11.74256 
421 ,89.9718 ,1.79364 ,-1.23098 ,-12.07834 
422 ,90.1801 ,1.79572 ,-1.22071 ,-11.97761 
423 ,90.3883 ,1.79790 ,-1.24809 ,-12.24624 
424 ,90.6125 ,1.79999 ,-1.26862 ,-12.44771 
425 ,90.8365 ,1.80230 ,-1.27204 ,-12.48128 
426 ,91.0606 ,1.80447 ,-1.26178 ,-12.38055 
427 ,91.2688 ,1.80658 ,-1.29258 ,-12.68275 
428 ,91.4927 ,1.80883 ,-1.30969 ,-12.85065 
429 ,91.7008 ,1.81093 ,-1.29942 ,-12.74991 
430 ,91.9090 ,1.81300 ,-1.32338 ,-12.98496 
431 ,92.1331 ,1.81525 ,-1.34733 ,-13.22001 
432 ,92.3571 ,1.81748 ,-1.33364 ,-13.08569 
433 ,92.5652 ,1.81954 ,-1.36102 ,-13.35432 
434 ,92.7732 ,1.82160 ,-1.37471 ,-13.48863 
435 ,93.0295 ,1.82420 ,-1.37471 ,-13.48863 
436 ,93.2534 ,1.82642 ,-1.39182 ,-13.65653 
437 ,93.4613 ,1.82847 ,-1.38155 ,-13.55579 
438 ,93.6696 ,1.83057 ,-1.41235 ,-13.85799 
439 ,93.8778 ,1.83269 ,-1.42262 ,-13.95873 
440 ,94.0857 ,1.83477 ,-1.41235 ,-13.85799 
441 ,94.3258 ,1.83705 ,-1.43288 ,-14.05946 
442 ,94.5340 ,1.83925 ,-1.45000 ,-14.22736 
443 ,94.7581 ,1.84143 ,-1.44315 ,-14.16020 
444 ,94.9502 ,1.84356 ,-1.45342 ,-14.26093 
445 ,95.1583 ,1.84547 ,-1.47053 ,-14.42883 
446 ,95.3823 ,1.84773 ,-1.47395 ,-14.46240 
447 ,95.6065 ,1.84992 ,-1.47737 ,-14.49598 
448 ,95.7981 ,1.85203 ,-1.50475 ,-14.76461 
449 ,96.0065 ,1.85394 ,-1.49106 ,-14.63030 
450 ,96.1824 ,1.85589 ,-1.50817 ,-14.79819 
451 ,96.3908 ,1.85779 ,-1.53213 ,-15.03324 
452 ,96.5987 ,1.85993 ,-1.53213 ,-15.03324 
453 ,96.8230 ,1.86212 ,-1.54582 ,-15.16755 
454 ,97.0472 ,1.86439 ,-1.56293 ,-15.33544 
455 ,97.2710 ,1.86656 ,-1.58346 ,-15.53691 
456 ,97.4792 ,1.86870 ,-1.56293 ,-15.33544 
457 ,97.6873 ,1.87073 ,-1.58346 ,-15.53691 
458 ,97.9114 ,1.87300 ,-1.61768 ,-15.87269 
459 ,98.1194 ,1.87509 ,-1.59373 ,-15.63764 
460 ,98.3276 ,1.87720 ,-1.60742 ,-15.77196 
