Data stamp = , 18-05-2022 22:50:27 923

Calibration Values: 
Slope = , 26.54 , g/V 
Offset Voltage at no contact = , -0.501760 , V 

No , Time , Stage Position ,   Mass , Force 
   ,  (s) ,      (mm)      ,   (g)  , (mN)  

1 ,0.0000 ,0.89952 ,5.32932 ,52.29126 
2 ,0.2184 ,0.89957 ,5.32247 ,52.22410 
3 ,0.9387 ,0.90287 ,5.31563 ,52.15694 
4 ,1.1629 ,0.90573 ,5.31905 ,52.19052 
5 ,1.3709 ,0.90793 ,5.30536 ,52.05621 
6 ,1.5794 ,0.91000 ,5.31563 ,52.15694 
7 ,1.8038 ,0.91224 ,5.29167 ,51.92190 
8 ,2.0117 ,0.91435 ,5.25061 ,51.51896 
9 ,2.2358 ,0.91661 ,5.24376 ,51.45180 
10 ,2.4434 ,0.91864 ,5.23007 ,51.31749 
11 ,2.6359 ,0.92077 ,5.18901 ,50.91455 
12 ,2.8438 ,0.92269 ,5.19243 ,50.94813 
13 ,3.0521 ,0.92476 ,5.15821 ,50.61234 
14 ,3.2760 ,0.92702 ,5.15136 ,50.54519 
15 ,3.4842 ,0.92915 ,5.11714 ,50.20940 
16 ,3.6921 ,0.93117 ,5.10345 ,50.07509 
17 ,3.9004 ,0.93333 ,5.08292 ,49.87362 
18 ,4.0922 ,0.93531 ,5.03843 ,49.43710 
19 ,4.3002 ,0.93721 ,5.05212 ,49.57142 
20 ,4.5241 ,0.93947 ,5.02132 ,49.26921 
21 ,4.7322 ,0.94164 ,4.97683 ,48.83269 
22 ,4.9407 ,0.94362 ,4.99394 ,49.00058 
23 ,5.1490 ,0.94575 ,4.94603 ,48.53049 
24 ,5.3569 ,0.94778 ,4.94946 ,48.56407 
25 ,5.5811 ,0.95005 ,4.92550 ,48.32902 
26 ,5.8048 ,0.95227 ,4.88786 ,47.95966 
27 ,6.0131 ,0.95435 ,4.87075 ,47.79177 
28 ,6.2374 ,0.95662 ,4.85364 ,47.62387 
29 ,6.4455 ,0.95866 ,4.81599 ,47.25451 
30 ,6.6536 ,0.96078 ,4.81257 ,47.22093 
31 ,6.8772 ,0.96296 ,4.78861 ,46.98589 
32 ,7.0858 ,0.96511 ,4.76808 ,46.78442 
33 ,7.3095 ,0.96731 ,4.73728 ,46.48221 
34 ,7.4858 ,0.96925 ,4.73728 ,46.48221 
35 ,7.6943 ,0.97117 ,4.71675 ,46.28074 
36 ,7.9020 ,0.97322 ,4.69964 ,46.11285 
37 ,8.1101 ,0.97528 ,4.66542 ,45.77707 
38 ,8.3179 ,0.97738 ,4.65515 ,45.67633 
39 ,8.5423 ,0.97962 ,4.62777 ,45.40771 
40 ,8.7502 ,0.98169 ,4.61066 ,45.23981 
41 ,8.9746 ,0.98394 ,4.58671 ,45.00477 
42 ,9.1826 ,0.98612 ,4.58671 ,45.00477 
43 ,9.3907 ,0.98809 ,4.53537 ,44.50109 
44 ,9.6147 ,0.99029 ,4.53537 ,44.50109 
45 ,9.8225 ,0.99258 ,4.51484 ,44.29962 
46 ,10.0310 ,0.99453 ,4.47378 ,43.89668 
47 ,10.2546 ,0.99674 ,4.48404 ,43.99742 
48 ,10.4791 ,0.99897 ,4.43613 ,43.52732 
49 ,10.7034 ,1.00125 ,4.42929 ,43.46016 
50 ,10.9273 ,1.00345 ,4.40875 ,43.25870 
51 ,11.1353 ,1.00560 ,4.40533 ,43.22512 
52 ,11.3430 ,1.00764 ,4.35742 ,42.75502 
53 ,11.5516 ,1.00978 ,4.34031 ,42.58713 
54 ,11.7756 ,1.01198 ,4.35058 ,42.68786 
55 ,11.9673 ,1.01392 ,4.29582 ,42.15061 
56 ,12.1597 ,1.01592 ,4.31293 ,42.31850 
57 ,12.3679 ,1.01790 ,4.27187 ,41.91556 
58 ,12.5919 ,1.02017 ,4.26160 ,41.81483 
59 ,12.8159 ,1.02236 ,4.24791 ,41.68051 
60 ,13.0240 ,1.02441 ,4.20342 ,41.24400 
61 ,13.2323 ,1.02647 ,4.20342 ,41.24400 
62 ,13.4559 ,1.02874 ,4.18631 ,41.07611 
63 ,13.6642 ,1.03080 ,4.15209 ,40.74032 
64 ,13.8723 ,1.03285 ,4.15209 ,40.74032 
65 ,14.1125 ,1.03519 ,4.12471 ,40.47170 
66 ,14.3207 ,1.03736 ,4.09049 ,40.13591 
67 ,14.5447 ,1.03963 ,4.06312 ,39.86729 
68 ,14.7528 ,1.04183 ,4.05285 ,39.76655 
69 ,14.9609 ,1.04384 ,4.03574 ,39.59866 
70 ,15.1850 ,1.04604 ,4.00494 ,39.29646 
71 ,15.3932 ,1.04817 ,4.01178 ,39.36361 
72 ,15.6172 ,1.05031 ,3.97756 ,39.02783 
73 ,15.8409 ,1.05260 ,3.95018 ,38.75920 
74 ,16.0492 ,1.05464 ,3.94676 ,38.72562 
75 ,16.2575 ,1.05671 ,3.92623 ,38.52415 
76 ,16.4656 ,1.05886 ,3.89543 ,38.22195 
77 ,16.6738 ,1.06093 ,3.90227 ,38.28911 
78 ,16.8814 ,1.06301 ,3.85436 ,37.81901 
79 ,17.1058 ,1.06525 ,3.84067 ,37.68470 
80 ,17.3298 ,1.06746 ,3.82014 ,37.48323 
81 ,17.5380 ,1.06960 ,3.80303 ,37.31534 
82 ,17.7620 ,1.07177 ,3.78592 ,37.14744 
83 ,17.9701 ,1.07388 ,3.76539 ,36.94597 
84 ,18.1944 ,1.07619 ,3.74485 ,36.74450 
85 ,18.4184 ,1.07834 ,3.74143 ,36.71093 
86 ,18.6262 ,1.08044 ,3.70721 ,36.37514 
87 ,18.8344 ,1.08254 ,3.71063 ,36.40872 
88 ,19.0427 ,1.08461 ,3.66614 ,35.97220 
89 ,19.2665 ,1.08686 ,3.65588 ,35.87147 
90 ,19.4909 ,1.08912 ,3.64219 ,35.73716 
91 ,19.7150 ,1.09124 ,3.61481 ,35.46853 
92 ,19.9391 ,1.09362 ,3.59428 ,35.26706 
93 ,20.1471 ,1.09562 ,3.57032 ,35.03201 
94 ,20.3551 ,1.09769 ,3.56006 ,34.93128 
95 ,20.5631 ,1.09978 ,3.51215 ,34.46118 
96 ,20.7874 ,1.10199 ,3.52584 ,34.59549 
97 ,20.9956 ,1.10413 ,3.50872 ,34.42760 
98 ,21.2356 ,1.10650 ,3.49161 ,34.25971 
99 ,21.4595 ,1.10878 ,3.45055 ,33.85677 
100 ,21.6358 ,1.11069 ,3.45397 ,33.89035 
101 ,21.8276 ,1.11248 ,3.43344 ,33.68888 
102 ,22.0197 ,1.11449 ,3.40948 ,33.45383 
103 ,22.2441 ,1.11663 ,3.38210 ,33.18520 
104 ,22.4517 ,1.11883 ,3.38210 ,33.18520 
105 ,22.6602 ,1.12080 ,3.34446 ,32.81584 
106 ,22.8843 ,1.12300 ,3.32735 ,32.64795 
107 ,23.0764 ,1.12503 ,3.32735 ,32.64795 
108 ,23.2845 ,1.12707 ,3.28971 ,32.27859 
109 ,23.5083 ,1.12920 ,3.29313 ,32.31217 
110 ,23.7164 ,1.13133 ,3.26233 ,32.00996 
111 ,23.9248 ,1.13341 ,3.24522 ,31.84207 
112 ,24.1325 ,1.13548 ,3.23153 ,31.70776 
113 ,24.3408 ,1.13755 ,3.20073 ,31.40555 
114 ,24.5486 ,1.13960 ,3.20073 ,31.40555 
115 ,24.7405 ,1.14163 ,3.16651 ,31.06977 
116 ,24.9492 ,1.14360 ,3.16309 ,31.03619 
117 ,25.1570 ,1.14571 ,3.13229 ,30.73399 
118 ,25.3653 ,1.14784 ,3.13229 ,30.73399 
119 ,25.5894 ,1.15007 ,3.11860 ,30.59968 
120 ,25.7971 ,1.15211 ,3.07753 ,30.19674 
121 ,26.0055 ,1.15424 ,3.07069 ,30.12958 
122 ,26.2297 ,1.15640 ,3.06726 ,30.09600 
123 ,26.4377 ,1.15863 ,3.01935 ,29.62590 
124 ,26.6619 ,1.16075 ,3.00224 ,29.45801 
125 ,26.9016 ,1.16301 ,3.01251 ,29.55875 
126 ,27.1421 ,1.16543 ,2.99198 ,29.35728 
127 ,27.3661 ,1.16781 ,2.96460 ,29.08865 
128 ,27.5742 ,1.16988 ,2.93722 ,28.82003 
129 ,27.7824 ,1.17199 ,2.91327 ,28.58498 
130 ,27.9904 ,1.17409 ,2.90985 ,28.55140 
131 ,28.2143 ,1.17632 ,2.87220 ,28.18204 
132 ,28.4386 ,1.17852 ,2.85851 ,28.04772 
133 ,28.6626 ,1.18078 ,2.84825 ,27.94699 
134 ,28.8707 ,1.18281 ,2.83456 ,27.81268 
135 ,29.0948 ,1.18510 ,2.80034 ,27.47689 
136 ,29.3032 ,1.18715 ,2.80034 ,27.47689 
137 ,29.5270 ,1.18937 ,2.78322 ,27.30900 
138 ,29.7350 ,1.19149 ,2.73874 ,26.87248 
139 ,29.9270 ,1.19346 ,2.74900 ,26.97322 
140 ,30.1354 ,1.19552 ,2.72163 ,26.70459 
141 ,30.3430 ,1.19767 ,2.69083 ,26.40239 
142 ,30.5355 ,1.19955 ,2.67372 ,26.23450 
143 ,30.7594 ,1.20170 ,2.66687 ,26.16734 
144 ,30.9674 ,1.20382 ,2.66687 ,26.16734 
145 ,31.1919 ,1.20605 ,2.62581 ,25.76440 
146 ,31.3834 ,1.20810 ,2.61896 ,25.69724 
147 ,31.5919 ,1.21005 ,2.60527 ,25.56293 
148 ,31.8158 ,1.21232 ,2.57105 ,25.22715 
149 ,32.0235 ,1.21441 ,2.58132 ,25.32788 
150 ,32.2158 ,1.21636 ,2.53341 ,24.85779 
151 ,32.4078 ,1.21836 ,2.54367 ,24.95852 
152 ,32.6322 ,1.22038 ,2.50945 ,24.62274 
153 ,32.8565 ,1.22270 ,2.48207 ,24.35411 
154 ,33.0963 ,1.22493 ,2.49234 ,24.45485 
155 ,33.3207 ,1.22723 ,2.47181 ,24.25338 
156 ,33.5286 ,1.22942 ,2.45127 ,24.05191 
157 ,33.7366 ,1.23152 ,2.43074 ,23.85044 
158 ,33.9449 ,1.23362 ,2.42732 ,23.81686 
159 ,34.1529 ,1.23564 ,2.38625 ,23.41392 
160 ,34.3771 ,1.23787 ,2.37256 ,23.27961 
161 ,34.5848 ,1.23997 ,2.37599 ,23.31318 
162 ,34.7771 ,1.24191 ,2.34519 ,23.01098 
163 ,34.9852 ,1.24392 ,2.32808 ,22.84309 
164 ,35.1935 ,1.24606 ,2.29728 ,22.54088 
165 ,35.4014 ,1.24815 ,2.29728 ,22.54088 
166 ,35.6096 ,1.25017 ,2.27332 ,22.30584 
167 ,35.8012 ,1.25224 ,2.25963 ,22.17152 
168 ,36.0096 ,1.25427 ,2.23910 ,21.97005 
169 ,36.2179 ,1.25635 ,2.23226 ,21.90290 
170 ,36.4419 ,1.25856 ,2.21857 ,21.76858 
171 ,36.6500 ,1.26058 ,2.18777 ,21.46638 
172 ,36.8740 ,1.26287 ,2.17066 ,21.29849 
173 ,37.0820 ,1.26494 ,2.16381 ,21.23133 
174 ,37.2901 ,1.26702 ,2.13301 ,20.92912 
175 ,37.4984 ,1.26908 ,2.12959 ,20.89555 
176 ,37.7225 ,1.27134 ,2.11932 ,20.79481 
177 ,37.9304 ,1.27348 ,2.07826 ,20.39187 
178 ,38.1546 ,1.27565 ,2.06799 ,20.29114 
179 ,38.3625 ,1.27774 ,2.06115 ,20.22398 
180 ,38.5708 ,1.27976 ,2.03377 ,19.95535 
181 ,38.7789 ,1.28189 ,2.02693 ,19.88820 
182 ,39.0032 ,1.28415 ,2.00982 ,19.72031 
183 ,39.2110 ,1.28622 ,1.97559 ,19.38452 
184 ,39.4192 ,1.28844 ,1.96875 ,19.31737 
185 ,39.6272 ,1.29039 ,1.95506 ,19.18305 
186 ,39.8193 ,1.29241 ,1.93795 ,19.01516 
187 ,40.0114 ,1.29430 ,1.91057 ,18.74654 
188 ,40.2193 ,1.29628 ,1.92084 ,18.84727 
189 ,40.4435 ,1.29854 ,1.89004 ,18.54507 
190 ,40.6516 ,1.30066 ,1.86608 ,18.31002 
191 ,40.8597 ,1.30272 ,1.87635 ,18.41075 
192 ,41.0678 ,1.30479 ,1.83871 ,18.04139 
193 ,41.2920 ,1.30695 ,1.82844 ,17.94066 
194 ,41.4999 ,1.30913 ,1.81817 ,17.83992 
195 ,41.7080 ,1.31112 ,1.77711 ,17.43698 
196 ,41.9159 ,1.31321 ,1.78053 ,17.47056 
197 ,42.1242 ,1.31527 ,1.75315 ,17.20193 
198 ,42.3483 ,1.31753 ,1.72920 ,16.96689 
199 ,42.5565 ,1.31961 ,1.72578 ,16.93331 
200 ,42.7806 ,1.32189 ,1.72578 ,16.93331 
201 ,42.9887 ,1.32400 ,1.68471 ,16.53037 
202 ,43.2125 ,1.32614 ,1.69498 ,16.63110 
203 ,43.4208 ,1.32830 ,1.67786 ,16.46321 
204 ,43.6448 ,1.33049 ,1.64707 ,16.16101 
205 ,43.8529 ,1.33257 ,1.63338 ,16.02669 
206 ,44.0932 ,1.33502 ,1.59916 ,15.69091 
207 ,44.3169 ,1.33728 ,1.61969 ,15.89238 
208 ,44.5253 ,1.33930 ,1.57178 ,15.42228 
209 ,44.7328 ,1.34149 ,1.54782 ,15.18724 
210 ,44.9415 ,1.34347 ,1.55467 ,15.25439 
211 ,45.1496 ,1.34557 ,1.52387 ,14.95219 
212 ,45.3736 ,1.34783 ,1.52045 ,14.91861 
213 ,45.5818 ,1.34993 ,1.49649 ,14.68356 
214 ,45.7894 ,1.35197 ,1.47596 ,14.48209 
215 ,46.0139 ,1.35414 ,1.48280 ,14.54925 
216 ,46.2380 ,1.35640 ,1.46227 ,14.34778 
217 ,46.4460 ,1.35852 ,1.41778 ,13.91126 
218 ,46.6702 ,1.36075 ,1.41436 ,13.87768 
219 ,46.8778 ,1.36284 ,1.41094 ,13.84410 
220 ,47.0864 ,1.36497 ,1.37671 ,13.50832 
221 ,47.3103 ,1.36716 ,1.37671 ,13.50832 
222 ,47.5346 ,1.36945 ,1.36645 ,13.40759 
223 ,47.7586 ,1.37160 ,1.34591 ,13.20612 
224 ,47.9668 ,1.37375 ,1.31854 ,12.93749 
225 ,48.1746 ,1.37586 ,1.32196 ,12.97107 
226 ,48.3829 ,1.37793 ,1.29116 ,12.66886 
227 ,48.5910 ,1.38003 ,1.28432 ,12.60171 
228 ,48.7990 ,1.38204 ,1.26378 ,12.40024 
229 ,49.0070 ,1.38410 ,1.24325 ,12.19877 
230 ,49.2151 ,1.38621 ,1.24325 ,12.19877 
231 ,49.4392 ,1.38845 ,1.21245 ,11.89656 
232 ,49.6635 ,1.39071 ,1.20218 ,11.79583 
233 ,49.8716 ,1.39277 ,1.18507 ,11.62794 
234 ,50.0958 ,1.39501 ,1.18507 ,11.62794 
235 ,50.3037 ,1.39705 ,1.14401 ,11.22500 
236 ,50.4957 ,1.39906 ,1.14743 ,11.25857 
237 ,50.7040 ,1.40103 ,1.11321 ,10.92279 
238 ,50.9119 ,1.40310 ,1.12005 ,10.98995 
239 ,51.1359 ,1.40543 ,1.09610 ,10.75490 
240 ,51.3438 ,1.40749 ,1.06872 ,10.48627 
241 ,51.5521 ,1.40957 ,1.07899 ,10.58701 
242 ,51.7762 ,1.41177 ,1.05161 ,10.31838 
243 ,51.9844 ,1.41387 ,1.02765 ,10.08333 
244 ,52.1764 ,1.41594 ,1.03108 ,10.11691 
245 ,52.3846 ,1.41788 ,0.99685 ,9.78113 
246 ,52.6085 ,1.42020 ,0.99685 ,9.78113 
247 ,52.8328 ,1.42237 ,0.99343 ,9.74755 
248 ,53.0569 ,1.42462 ,0.95579 ,9.37819 
249 ,53.2650 ,1.42670 ,0.93868 ,9.21030 
250 ,53.4888 ,1.42892 ,0.93868 ,9.21030 
251 ,53.7131 ,1.43123 ,0.92157 ,9.04241 
252 ,53.9371 ,1.43345 ,0.88734 ,8.70662 
253 ,54.1614 ,1.43562 ,0.87366 ,8.57231 
254 ,54.3694 ,1.43779 ,0.87366 ,8.57231 
255 ,54.5936 ,1.44001 ,0.86339 ,8.47158 
256 ,54.8013 ,1.44209 ,0.81548 ,8.00148 
257 ,54.9933 ,1.44413 ,0.84286 ,8.27011 
258 ,55.2018 ,1.44603 ,0.79495 ,7.80001 
259 ,55.4095 ,1.44813 ,0.80863 ,7.93432 
260 ,55.6174 ,1.45033 ,0.78126 ,7.66570 
261 ,55.8095 ,1.45224 ,0.76757 ,7.53138 
262 ,56.0179 ,1.45416 ,0.74019 ,7.26276 
263 ,56.2263 ,1.45624 ,0.74019 ,7.26276 
264 ,56.4503 ,1.45852 ,0.73677 ,7.22918 
265 ,56.6583 ,1.46063 ,0.69913 ,6.85982 
266 ,56.8660 ,1.46266 ,0.69913 ,6.85982 
267 ,57.0746 ,1.46480 ,0.68201 ,6.69193 
268 ,57.2827 ,1.46684 ,0.65464 ,6.42330 
269 ,57.4908 ,1.46895 ,0.66490 ,6.52403 
270 ,57.6989 ,1.47102 ,0.62726 ,6.15467 
271 ,57.9227 ,1.47325 ,0.61357 ,6.02036 
272 ,58.1470 ,1.47548 ,0.62042 ,6.08752 
273 ,58.3710 ,1.47767 ,0.60673 ,5.95320 
274 ,58.5792 ,1.47981 ,0.57593 ,5.65100 
275 ,58.7872 ,1.48187 ,0.57251 ,5.61742 
276 ,59.0113 ,1.48413 ,0.56566 ,5.55026 
277 ,59.2194 ,1.48628 ,0.53144 ,5.21448 
278 ,59.4436 ,1.48850 ,0.52459 ,5.14732 
279 ,59.6675 ,1.49069 ,0.52459 ,5.14732 
280 ,59.8759 ,1.49277 ,0.49037 ,4.81154 
281 ,60.0841 ,1.49488 ,0.49037 ,4.81154 
282 ,60.3241 ,1.49714 ,0.46984 ,4.61007 
283 ,60.5480 ,1.49949 ,0.46300 ,4.54291 
284 ,60.7559 ,1.50155 ,0.43904 ,4.30787 
285 ,60.9642 ,1.50363 ,0.42877 ,4.20713 
286 ,61.1723 ,1.50571 ,0.41166 ,4.03924 
287 ,61.3805 ,1.50781 ,0.40140 ,3.93850 
288 ,61.5885 ,1.50990 ,0.39797 ,3.90493 
289 ,61.8124 ,1.51213 ,0.36033 ,3.53557 
290 ,62.0207 ,1.51420 ,0.35006 ,3.43483 
291 ,62.2448 ,1.51646 ,0.35691 ,3.50199 
292 ,62.4205 ,1.51838 ,0.32611 ,3.19978 
293 ,62.6125 ,1.52020 ,0.31242 ,3.06547 
294 ,62.8052 ,1.52214 ,0.31242 ,3.06547 
295 ,63.0291 ,1.52433 ,0.28162 ,2.76326 
296 ,63.2373 ,1.52638 ,0.26109 ,2.56179 
297 ,63.4610 ,1.52860 ,0.26793 ,2.62895 
298 ,63.6855 ,1.53081 ,0.26451 ,2.59537 
299 ,63.9092 ,1.53310 ,0.23371 ,2.29317 
300 ,64.1337 ,1.53535 ,0.20291 ,1.99096 
301 ,64.3417 ,1.53743 ,0.21318 ,2.09170 
302 ,64.5656 ,1.53967 ,0.20633 ,2.02454 
303 ,64.7733 ,1.54188 ,0.18238 ,1.78949 
304 ,64.9813 ,1.54393 ,0.16527 ,1.62160 
305 ,65.1895 ,1.54600 ,0.15500 ,1.52087 
306 ,65.3978 ,1.54808 ,0.12762 ,1.25224 
307 ,65.6059 ,1.55007 ,0.13447 ,1.31940 
308 ,65.8139 ,1.55211 ,0.10709 ,1.05077 
309 ,66.0221 ,1.55421 ,0.10709 ,1.05077 
310 ,66.2301 ,1.55633 ,0.09340 ,0.91646 
311 ,66.4542 ,1.55870 ,0.06945 ,0.68141 
312 ,66.6623 ,1.56065 ,0.07629 ,0.74857 
313 ,66.8702 ,1.56273 ,0.04207 ,0.41278 
314 ,67.0624 ,1.56474 ,0.03865 ,0.37920 
315 ,67.2704 ,1.56671 ,0.01811 ,0.17773 
316 ,67.4786 ,1.56878 ,0.01469 ,0.14416 
317 ,67.6868 ,1.57087 ,-0.00242 ,-0.02373 
318 ,67.8949 ,1.57297 ,-0.02637 ,-0.25878 
319 ,68.1188 ,1.57517 ,-0.02295 ,-0.22520 
320 ,68.3109 ,1.57724 ,-0.02295 ,-0.22520 
321 ,68.5191 ,1.57915 ,-0.04348 ,-0.42667 
322 ,68.7271 ,1.58127 ,-0.05375 ,-0.52741 
323 ,68.9353 ,1.58339 ,-0.08113 ,-0.79604 
324 ,69.1434 ,1.58543 ,-0.07771 ,-0.76246 
325 ,69.3515 ,1.58748 ,-0.11535 ,-1.13182 
326 ,69.5595 ,1.58965 ,-0.10508 ,-1.03108 
327 ,69.7516 ,1.59161 ,-0.13588 ,-1.33329 
328 ,69.9600 ,1.59359 ,-0.13588 ,-1.33329 
329 ,70.1838 ,1.59578 ,-0.13931 ,-1.36687 
330 ,70.3924 ,1.59787 ,-0.18037 ,-1.76981 
331 ,70.6005 ,1.59999 ,-0.16326 ,-1.60191 
332 ,70.8083 ,1.60203 ,-0.19406 ,-1.90412 
333 ,71.0162 ,1.60411 ,-0.20775 ,-2.03843 
334 ,71.2085 ,1.60610 ,-0.22486 ,-2.20632 
335 ,71.4167 ,1.60817 ,-0.22486 ,-2.20632 
336 ,71.6406 ,1.61038 ,-0.23513 ,-2.30706 
337 ,71.8648 ,1.61263 ,-0.23855 ,-2.34064 
338 ,72.0729 ,1.61471 ,-0.27277 ,-2.67642 
339 ,72.2807 ,1.61681 ,-0.26593 ,-2.60926 
340 ,72.4890 ,1.61888 ,-0.29673 ,-2.91147 
341 ,72.7133 ,1.62112 ,-0.30015 ,-2.94505 
342 ,72.9214 ,1.62313 ,-0.29673 ,-2.91147 
343 ,73.1453 ,1.62541 ,-0.31726 ,-3.11294 
344 ,73.3534 ,1.62746 ,-0.34121 ,-3.34799 
345 ,73.5455 ,1.62947 ,-0.35148 ,-3.44872 
346 ,73.7697 ,1.63162 ,-0.36859 ,-3.61661 
347 ,73.9778 ,1.63376 ,-0.35832 ,-3.51588 
348 ,74.2020 ,1.63602 ,-0.37544 ,-3.68377 
349 ,74.4099 ,1.63816 ,-0.40623 ,-3.98597 
350 ,74.6175 ,1.64009 ,-0.39597 ,-3.88524 
351 ,74.8101 ,1.64216 ,-0.43019 ,-4.22102 
352 ,75.0182 ,1.64414 ,-0.43019 ,-4.22102 
353 ,75.2423 ,1.64638 ,-0.43703 ,-4.28818 
354 ,75.4503 ,1.64844 ,-0.46441 ,-4.55681 
355 ,75.6421 ,1.65042 ,-0.46441 ,-4.55681 
356 ,75.8505 ,1.65247 ,-0.48494 ,-4.75828 
357 ,76.0747 ,1.65472 ,-0.48837 ,-4.79185 
358 ,76.2990 ,1.65701 ,-0.48494 ,-4.75828 
359 ,76.5068 ,1.65899 ,-0.52601 ,-5.16121 
360 ,76.7149 ,1.66109 ,-0.52259 ,-5.12764 
361 ,76.9390 ,1.66333 ,-0.52601 ,-5.16121 
362 ,77.1631 ,1.66559 ,-0.54654 ,-5.36268 
363 ,77.3711 ,1.66765 ,-0.56708 ,-5.56415 
364 ,77.5952 ,1.66994 ,-0.57734 ,-5.66489 
365 ,77.8035 ,1.67193 ,-0.59103 ,-5.79920 
366 ,78.0114 ,1.67408 ,-0.60472 ,-5.93352 
367 ,78.2195 ,1.67615 ,-0.61156 ,-6.00067 
368 ,78.4436 ,1.67843 ,-0.63210 ,-6.20214 
369 ,78.6675 ,1.68062 ,-0.65263 ,-6.40361 
370 ,78.8758 ,1.68268 ,-0.63552 ,-6.23572 
371 ,79.0836 ,1.68476 ,-0.66290 ,-6.50435 
372 ,79.2920 ,1.68689 ,-0.66290 ,-6.50435 
373 ,79.4840 ,1.68893 ,-0.66974 ,-6.57150 
374 ,79.6762 ,1.69075 ,-0.68343 ,-6.70582 
375 ,79.8843 ,1.69283 ,-0.69712 ,-6.84013 
376 ,80.0919 ,1.69490 ,-0.71423 ,-7.00802 
377 ,80.3003 ,1.69692 ,-0.72450 ,-7.10876 
378 ,80.5244 ,1.69920 ,-0.74161 ,-7.27665 
379 ,80.7326 ,1.70126 ,-0.74845 ,-7.34380 
380 ,80.9408 ,1.70334 ,-0.74161 ,-7.27665 
381 ,81.1645 ,1.70557 ,-0.78952 ,-7.74674 
382 ,81.3890 ,1.70782 ,-0.79636 ,-7.81390 
383 ,81.6128 ,1.71008 ,-0.79294 ,-7.78032 
384 ,81.8211 ,1.71218 ,-0.81689 ,-8.01537 
385 ,82.0451 ,1.71438 ,-0.82716 ,-8.11611 
386 ,82.2533 ,1.71651 ,-0.81005 ,-7.94821 
387 ,82.4934 ,1.71884 ,-0.84085 ,-8.25042 
388 ,82.7175 ,1.72108 ,-0.84085 ,-8.25042 
389 ,82.9257 ,1.72321 ,-0.87507 ,-8.58620 
390 ,83.1497 ,1.72538 ,-0.88534 ,-8.68694 
391 ,83.3577 ,1.72752 ,-0.86481 ,-8.48547 
392 ,83.5816 ,1.72978 ,-0.91956 ,-9.02272 
393 ,83.7898 ,1.73185 ,-0.92298 ,-9.05630 
394 ,83.9977 ,1.73385 ,-0.90587 ,-8.88841 
395 ,84.2220 ,1.73608 ,-0.93667 ,-9.19061 
396 ,84.4302 ,1.73822 ,-0.95378 ,-9.35850 
397 ,84.6541 ,1.74048 ,-0.94694 ,-9.29135 
398 ,84.8781 ,1.74271 ,-0.95720 ,-9.39208 
399 ,85.0865 ,1.74474 ,-0.98458 ,-9.66071 
400 ,85.2945 ,1.74687 ,-0.97774 ,-9.59355 
401 ,85.5024 ,1.74889 ,-0.99827 ,-9.79502 
402 ,85.7424 ,1.75136 ,-1.01880 ,-9.99649 
403 ,85.9667 ,1.75357 ,-1.03249 ,-10.13080 
404 ,86.1909 ,1.75579 ,-1.03591 ,-10.16438 
405 ,86.3988 ,1.75789 ,-1.02907 ,-10.09723 
406 ,86.6071 ,1.75997 ,-1.06329 ,-10.43301 
407 ,86.8150 ,1.76204 ,-1.04618 ,-10.26512 
408 ,87.0232 ,1.76409 ,-1.08040 ,-10.60090 
409 ,87.2474 ,1.76638 ,-1.09067 ,-10.70163 
410 ,87.4712 ,1.76857 ,-1.08382 ,-10.63448 
411 ,87.6793 ,1.77071 ,-1.10436 ,-10.83595 
412 ,87.9037 ,1.77293 ,-1.11462 ,-10.93668 
413 ,88.1117 ,1.77501 ,-1.11120 ,-10.90310 
414 ,88.3039 ,1.77705 ,-1.12489 ,-11.03742 
415 ,88.5277 ,1.77917 ,-1.14200 ,-11.20531 
416 ,88.7679 ,1.78156 ,-1.16253 ,-11.40678 
417 ,88.9916 ,1.78380 ,-1.16596 ,-11.44036 
418 ,89.2003 ,1.78588 ,-1.19676 ,-11.74256 
419 ,89.4242 ,1.78807 ,-1.20702 ,-11.84330 
420 ,89.6321 ,1.79029 ,-1.18991 ,-11.67541 
421 ,89.8404 ,1.79236 ,-1.21387 ,-11.91045 
422 ,90.0640 ,1.79451 ,-1.24124 ,-12.17908 
423 ,90.2726 ,1.79663 ,-1.21729 ,-11.94403 
424 ,90.4965 ,1.79887 ,-1.23440 ,-12.11192 
425 ,90.7049 ,1.80091 ,-1.25835 ,-12.34697 
426 ,90.8965 ,1.80297 ,-1.25835 ,-12.34697 
427 ,91.0888 ,1.80477 ,-1.27547 ,-12.51486 
428 ,91.3128 ,1.80698 ,-1.26520 ,-12.41413 
429 ,91.5370 ,1.80931 ,-1.29942 ,-12.74991 
430 ,91.7291 ,1.81119 ,-1.28915 ,-12.64918 
431 ,91.9531 ,1.81343 ,-1.30969 ,-12.85065 
432 ,92.1450 ,1.81537 ,-1.33706 ,-13.11927 
433 ,92.3531 ,1.81738 ,-1.33706 ,-13.11927 
434 ,92.5613 ,1.81951 ,-1.34733 ,-13.22001 
435 ,92.7695 ,1.82154 ,-1.34049 ,-13.15285 
436 ,92.9777 ,1.82366 ,-1.36102 ,-13.35432 
437 ,93.2021 ,1.82591 ,-1.38497 ,-13.58937 
438 ,93.3937 ,1.82794 ,-1.36102 ,-13.35432 
439 ,93.6019 ,1.82986 ,-1.39182 ,-13.65653 
440 ,93.7942 ,1.83189 ,-1.38840 ,-13.62295 
441 ,94.0180 ,1.83404 ,-1.42262 ,-13.95873 
442 ,94.2258 ,1.83611 ,-1.41577 ,-13.89157 
443 ,94.4181 ,1.83812 ,-1.42262 ,-13.95873 
444 ,94.6425 ,1.84032 ,-1.44315 ,-14.16020 
445 ,94.8824 ,1.84257 ,-1.43973 ,-14.12662 
446 ,95.0746 ,1.84474 ,-1.45342 ,-14.26093 
447 ,95.2827 ,1.84669 ,-1.48080 ,-14.52956 
448 ,95.4909 ,1.84882 ,-1.46368 ,-14.36167 
449 ,95.6989 ,1.85088 ,-1.49448 ,-14.66387 
450 ,95.9230 ,1.85308 ,-1.50817 ,-14.79819 
451 ,96.1311 ,1.85516 ,-1.48764 ,-14.59672 
452 ,96.3389 ,1.85729 ,-1.52528 ,-14.96608 
453 ,96.5471 ,1.85938 ,-1.52186 ,-14.93250 
454 ,96.7554 ,1.86143 ,-1.54582 ,-15.16755 
455 ,96.9795 ,1.86366 ,-1.55950 ,-15.30186 
456 ,97.1875 ,1.86574 ,-1.54239 ,-15.13397 
457 ,97.3956 ,1.86792 ,-1.55950 ,-15.30186 
458 ,97.6197 ,1.87003 ,-1.58346 ,-15.53691 
459 ,97.8113 ,1.87210 ,-1.56635 ,-15.36902 
460 ,98.0037 ,1.87394 ,-1.59030 ,-15.60407 
