Point No.,Normal Force [N],Gap [mm],Time [s]
1.0,9.154970,10.6198,2965
2.0,9.072210,10.6197,2966
3.0,9.020238,10.6197,2966
4.0,8.988108,10.6197,2967
5.0,8.963492,10.6197,2967
6.0,8.944133,10.6196,2968
7.0,8.932359,10.6196,2968
8.0,8.917873,10.6196,2969
9.0,8.905713,10.6196,2969
10.0,8.896072,10.6196,2970
11.0,8.889803,10.6196,2970
12.0,8.885374,10.6196,2971
13.0,8.880777,10.6196,2971
14.0,8.876559,10.6196,2972
15.0,8.872045,10.6196,2972
16.0,8.868716,10.6196,2973
17.0,8.865520,10.6196,2973
18.0,8.861218,10.6196,2974
19.0,8.856963,10.6196,2974
20.0,8.853998,10.6196,2975
21.0,8.850346,10.6196,2975
22.0,8.848732,10.6196,2976
23.0,8.846106,10.6196,2976
24.0,8.843299,10.6196,2977
25.0,8.840817,10.6196,2977
26.0,8.838916,10.6196,2978
27.0,8.836473,10.6196,2978
28.0,8.835281,10.6196,2979
29.0,8.833638,10.6196,2979
30.0,8.832141,10.6196,2980
31.0,8.830458,10.6196,2980
32.0,8.829459,10.6196,2981
33.0,8.827661,10.6196,2981
34.0,8.826472,10.6196,2982
35.0,8.824503,10.6196,2982
36.0,8.823192,10.6196,2983
37.0,8.822170,10.6196,2983
38.0,8.820377,10.6196,2984
39.0,8.818368,10.6196,2984
40.0,8.817131,10.6196,2985
