Point No.,Normal Force [N],Gap [mm],Time [s]
1.0,9.133857,10.6198,3912
2.0,9.052125,10.6197,3913
3.0,8.999611,10.6197,3913
4.0,8.969169,10.6197,3914
5.0,8.944488,10.6196,3914
6.0,8.927806,10.6196,3915
7.0,8.909695,10.6196,3915
8.0,8.896417,10.6196,3916
9.0,8.887950,10.6196,3916
10.0,8.881508,10.6196,3917
11.0,8.874860,10.6196,3917
12.0,8.869524,10.6196,3918
13.0,8.862910,10.6196,3918
14.0,8.858088,10.6196,3919
15.0,8.852081,10.6196,3919
16.0,8.848370,10.6196,3920
17.0,8.845022,10.6196,3920
18.0,8.841041,10.6196,3921
19.0,8.838532,10.6196,3921
20.0,8.836681,10.6196,3922
21.0,8.835215,10.6196,3922
22.0,8.832381,10.6196,3923
23.0,8.829840,10.6196,3923
24.0,8.827499,10.6196,3924
25.0,8.825131,10.6196,3924
26.0,8.822955,10.6196,3925
27.0,8.820340,10.6196,3925
28.0,8.819550,10.6196,3926
29.0,8.816388,10.6196,3926
30.0,8.814522,10.6196,3927
31.0,8.811992,10.6196,3927
32.0,8.810391,10.6196,3928
33.0,8.807797,10.6196,3928
34.0,8.805484,10.6196,3929
35.0,8.802790,10.6196,3929
36.0,8.803008,10.6196,3930
37.0,8.799701,10.6196,3930
38.0,8.797592,10.6196,3931
39.0,8.796937,10.6196,3931
40.0,8.795934,10.6196,3932
