Point No.,Normal Force [N],Gap [mm],Time [s]
1.0,9.224920,10.6173,1505
2.0,9.151779,10.6173,1506
3.0,9.101297,10.6173,1506
4.0,9.067845,10.6172,1507
5.0,9.044444,10.6172,1507
6.0,9.024608,10.6172,1508
7.0,9.006070,10.6172,1508
8.0,8.996139,10.6172,1509
9.0,8.989129,10.6172,1509
10.0,8.981892,10.6172,1510
11.0,8.975587,10.6172,1510
12.0,8.969167,10.6172,1511
13.0,8.962217,10.6172,1511
14.0,8.957756,10.6172,1512
15.0,8.953293,10.6172,1512
16.0,8.949185,10.6172,1513
17.0,8.945765,10.6171,1513
18.0,8.943265,10.6171,1514
19.0,8.940696,10.6171,1514
20.0,8.938290,10.6171,1515
21.0,8.936238,10.6171,1515
22.0,8.934684,10.6171,1516
23.0,8.932272,10.6171,1516
24.0,8.929665,10.6171,1517
25.0,8.927423,10.6171,1517
26.0,8.925480,10.6171,1518
27.0,8.923904,10.6171,1518
28.0,8.920889,10.6171,1519
29.0,8.917251,10.6171,1519
30.0,8.916570,10.6171,1520
31.0,8.914498,10.6171,1520
32.0,8.911390,10.6171,1521
33.0,8.909597,10.6171,1521
34.0,8.908175,10.6171,1522
35.0,8.906403,10.6171,1522
36.0,8.904533,10.6171,1523
37.0,8.902584,10.6171,1523
38.0,8.900318,10.6171,1524
39.0,8.899037,10.6171,1524
40.0,8.897827,10.6171,1525
