Point No.,Normal Force [N],Gap [mm],Time [s]
1.0,9.137361,10.6198,3767
2.0,9.056126,10.6197,3767
3.0,9.003029,10.6197,3768
4.0,8.973342,10.6197,3768
5.0,8.947237,10.6196,3769
6.0,8.931145,10.6196,3769
7.0,8.913433,10.6196,3770
8.0,8.899499,10.6196,3770
9.0,8.890316,10.6196,3771
10.0,8.883755,10.6196,3771
11.0,8.877115,10.6196,3772
12.0,8.871713,10.6196,3772
13.0,8.866250,10.6196,3773
14.0,8.861047,10.6196,3773
15.0,8.856309,10.6196,3774
16.0,8.851750,10.6196,3774
17.0,8.847857,10.6196,3775
18.0,8.844053,10.6196,3775
19.0,8.841576,10.6196,3776
20.0,8.838935,10.6196,3776
21.0,8.836344,10.6196,3777
22.0,8.834539,10.6196,3777
23.0,8.832743,10.6196,3778
24.0,8.830458,10.6196,3778
25.0,8.828219,10.6196,3779
26.0,8.826020,10.6196,3779
27.0,8.824023,10.6196,3780
28.0,8.822431,10.6196,3780
29.0,8.820395,10.6196,3781
30.0,8.817915,10.6196,3781
31.0,8.814992,10.6196,3782
32.0,8.814658,10.6196,3782
33.0,8.812157,10.6196,3783
34.0,8.810308,10.6196,3783
35.0,8.808512,10.6196,3784
36.0,8.804960,10.6196,3784
37.0,8.802961,10.6196,3785
38.0,8.800414,10.6196,3785
39.0,8.798434,10.6196,3786
40.0,8.796611,10.6196,3786
