Point No.,Normal Force [N],Gap [mm],Time [s]
1.0,9.198133,10.6186,921.1
2.0,9.117067,10.6185,921.6
3.0,9.069813,10.6185,922.1
4.0,9.037465,10.6185,922.6
5.0,9.008509,10.6184,923.1
6.0,8.993060,10.6184,923.6
7.0,8.981015,10.6184,924.1
8.0,8.969103,10.6184,924.6
9.0,8.958563,10.6184,925.1
10.0,8.949613,10.6184,925.6
11.0,8.944113,10.6184,926.1
12.0,8.939550,10.6184,926.6
13.0,8.934766,10.6184,927.1
14.0,8.930568,10.6184,927.6
15.0,8.927255,10.6184,928.1
16.0,8.922956,10.6184,928.6
17.0,8.917916,10.6184,929.1
18.0,8.914445,10.6184,929.6
19.0,8.910885,10.6184,930.1
20.0,8.907659,10.6184,930.6
21.0,8.903543,10.6184,931.1
22.0,8.900676,10.6184,931.6
23.0,8.897418,10.6184,932.1
24.0,8.895553,10.6184,932.6
25.0,8.893436,10.6184,933.1
26.0,8.890965,10.6184,933.6
27.0,8.889377,10.6184,934.1
28.0,8.888496,10.6184,934.6
29.0,8.887023,10.6184,935.1
30.0,8.885289,10.6184,935.6
31.0,8.883192,10.6184,936.1
32.0,8.881933,10.6184,936.6
33.0,8.880140,10.6184,937.1
34.0,8.879465,10.6184,937.6
35.0,8.877442,10.6184,938.1
36.0,8.876955,10.6184,938.6
37.0,8.875255,10.6184,939.1
38.0,8.874880,10.6184,939.6
39.0,8.873365,10.6184,940.1
40.0,8.872217,10.6184,940.6
