Point No.,Normal Force [N],Gap [mm],Time [s]
1.0,9.164834,10.6204,1214
2.0,9.082872,10.6204,1214
3.0,9.033134,10.6203,1215
4.0,8.997023,10.6203,1215
5.0,8.976404,10.6203,1216
6.0,8.955115,10.6203,1216
7.0,8.943035,10.6203,1217
8.0,8.933686,10.6203,1217
9.0,8.924044,10.6203,1218
10.0,8.913394,10.6203,1218
11.0,8.905957,10.6203,1219
12.0,8.899843,10.6202,1219
13.0,8.894831,10.6202,1220
14.0,8.889947,10.6202,1220
15.0,8.886299,10.6202,1221
16.0,8.882674,10.6202,1221
17.0,8.880156,10.6202,1222
18.0,8.877485,10.6202,1222
19.0,8.874844,10.6202,1223
20.0,8.871750,10.6202,1223
21.0,8.869227,10.6202,1224
22.0,8.866432,10.6202,1224
23.0,8.864038,10.6202,1225
24.0,8.861305,10.6202,1225
25.0,8.858761,10.6202,1226
26.0,8.855195,10.6202,1226
27.0,8.853475,10.6202,1227
28.0,8.851574,10.6202,1227
29.0,8.848871,10.6202,1228
30.0,8.846555,10.6202,1228
31.0,8.844297,10.6202,1229
32.0,8.843683,10.6202,1229
33.0,8.842177,10.6202,1230
34.0,8.840898,10.6202,1230
35.0,8.840293,10.6202,1231
36.0,8.838375,10.6202,1231
37.0,8.836726,10.6202,1232
38.0,8.836524,10.6202,1232
39.0,8.835250,10.6202,1233
40.0,8.835294,10.6202,1233
