Point No.,Normal Force [N],Gap [mm],Time [s]
1.0,9.201658,10.6173,3184
2.0,9.119772,10.6173,3185
3.0,9.072443,10.6172,3185
4.0,9.039727,10.6172,3186
5.0,9.009036,10.6172,3186
6.0,8.993176,10.6172,3187
7.0,8.980186,10.6172,3187
8.0,8.967614,10.6172,3188
9.0,8.955725,10.6172,3188
10.0,8.949135,10.6172,3189
11.0,8.942587,10.6171,3189
12.0,8.937175,10.6171,3190
13.0,8.932565,10.6171,3190
14.0,8.928683,10.6171,3191
15.0,8.924081,10.6171,3191
16.0,8.919029,10.6171,3192
17.0,8.914207,10.6171,3192
18.0,8.909348,10.6171,3193
19.0,8.905251,10.6171,3193
20.0,8.901315,10.6171,3194
21.0,8.900179,10.6171,3194
22.0,8.896569,10.6171,3195
23.0,8.894769,10.6171,3195
24.0,8.892894,10.6171,3196
25.0,8.890637,10.6171,3196
26.0,8.888800,10.6171,3197
27.0,8.887584,10.6171,3197
28.0,8.885050,10.6171,3198
29.0,8.883670,10.6171,3198
30.0,8.881739,10.6171,3199
31.0,8.879560,10.6171,3199
32.0,8.878803,10.6171,3200
33.0,8.877948,10.6171,3200
34.0,8.875805,10.6171,3201
35.0,8.875470,10.6171,3201
36.0,8.873658,10.6171,3202
37.0,8.872441,10.6171,3202
38.0,8.871868,10.6171,3203
39.0,8.870932,10.6171,3203
40.0,8.869518,10.6171,3204
