Point No.,Normal Force [N],Gap [mm],Time [s]
1.0,9.989463,10.5897,2381
2.0,9.892967,10.5896,2382
3.0,9.838266,10.5896,2382
4.0,9.801311,10.5895,2383
5.0,9.767770,10.5895,2383
6.0,9.748889,10.5895,2384
7.0,9.731855,10.5895,2384
8.0,9.715384,10.5895,2385
9.0,9.705158,10.5895,2385
10.0,9.697282,10.5895,2386
11.0,9.688311,10.5895,2386
12.0,9.679404,10.5895,2387
13.0,9.671803,10.5895,2387
14.0,9.664162,10.5895,2388
15.0,9.658361,10.5894,2388
16.0,9.655447,10.5894,2389
17.0,9.652040,10.5894,2389
18.0,9.649715,10.5894,2390
19.0,9.647507,10.5894,2390
20.0,9.645319,10.5894,2391
21.0,9.643197,10.5894,2391
22.0,9.640865,10.5894,2392
23.0,9.637877,10.5894,2392
24.0,9.636137,10.5894,2393
25.0,9.632723,10.5894,2393
26.0,9.630781,10.5894,2394
27.0,9.628777,10.5894,2394
28.0,9.626452,10.5894,2395
29.0,9.623830,10.5894,2395
30.0,9.620527,10.5894,2396
31.0,9.619118,10.5894,2396
32.0,9.618118,10.5894,2397
33.0,9.616778,10.5894,2397
34.0,9.614297,10.5894,2398
35.0,9.612462,10.5894,2398
36.0,9.610125,10.5894,2399
37.0,9.608289,10.5894,2399
38.0,9.606502,10.5894,2400
39.0,9.605718,10.5894,2400
40.0,9.603759,10.5894,2401
