Point No.,Normal Force [N],Gap [mm],Time [s]
1.0,9.226241,10.6161,3475
2.0,9.153275,10.6160,3476
3.0,9.101895,10.6160,3476
4.0,9.066905,10.6160,3477
5.0,9.044394,10.6160,3477
6.0,9.022825,10.6159,3478
7.0,9.004819,10.6159,3478
8.0,8.996293,10.6159,3479
9.0,8.988850,10.6159,3479
10.0,8.979904,10.6159,3480
11.0,8.973585,10.6159,3480
12.0,8.967321,10.6159,3481
13.0,8.961116,10.6159,3481
14.0,8.955466,10.6159,3482
15.0,8.952492,10.6159,3482
16.0,8.948227,10.6159,3483
17.0,8.945270,10.6159,3483
18.0,8.942172,10.6159,3484
19.0,8.940002,10.6159,3484
20.0,8.938114,10.6159,3485
21.0,8.934471,10.6159,3485
22.0,8.933200,10.6159,3486
23.0,8.929530,10.6159,3486
24.0,8.928133,10.6159,3487
25.0,8.925559,10.6159,3487
26.0,8.922949,10.6159,3488
27.0,8.921228,10.6159,3488
28.0,8.918596,10.6159,3489
29.0,8.916428,10.6159,3489
30.0,8.915388,10.6159,3490
31.0,8.911710,10.6159,3490
32.0,8.908939,10.6159,3491
33.0,8.907090,10.6159,3491
34.0,8.905315,10.6159,3492
35.0,8.903750,10.6159,3492
36.0,8.901668,10.6159,3493
37.0,8.901933,10.6159,3493
38.0,8.898540,10.6159,3494
39.0,8.897728,10.6159,3494
40.0,8.896329,10.6159,3495
