Point No.,Normal Force [N],Gap [mm],Time [s]
1.0,8.710864,10.6389,2674
2.0,8.634680,10.6388,2675
3.0,8.585585,10.6388,2675
4.0,8.556560,10.6388,2676
5.0,8.534417,10.6388,2676
6.0,8.515776,10.6388,2677
7.0,8.504887,10.6388,2677
8.0,8.495403,10.6388,2678
9.0,8.483651,10.6388,2678
10.0,8.474887,10.6388,2679
11.0,8.468369,10.6388,2679
12.0,8.460679,10.6387,2680
13.0,8.456821,10.6387,2680
14.0,8.453737,10.6387,2681
15.0,8.449987,10.6387,2681
16.0,8.446685,10.6387,2682
17.0,8.444305,10.6387,2682
18.0,8.440752,10.6387,2683
19.0,8.438415,10.6387,2683
20.0,8.436013,10.6387,2684
21.0,8.433244,10.6387,2684
22.0,8.430751,10.6387,2685
23.0,8.428269,10.6387,2685
24.0,8.425745,10.6387,2686
25.0,8.423172,10.6387,2686
26.0,8.420137,10.6387,2687
27.0,8.417633,10.6387,2687
28.0,8.415658,10.6387,2688
29.0,8.414973,10.6387,2688
30.0,8.412366,10.6387,2689
31.0,8.411316,10.6387,2689
32.0,8.408802,10.6387,2690
33.0,8.407635,10.6387,2690
34.0,8.405511,10.6387,2691
35.0,8.405030,10.6387,2691
36.0,8.404148,10.6387,2692
37.0,8.402469,10.6387,2692
38.0,8.401815,10.6387,2693
39.0,8.400866,10.6387,2693
40.0,8.400368,10.6387,2694
