Point No.,Normal Force [N],Gap [mm],Time [s]
1.0,9.181131,10.6192,190.2
2.0,9.100157,10.6191,190.7
3.0,9.050241,10.6191,191.2
4.0,9.013567,10.6191,191.7
5.0,8.991293,10.6190,192.2
6.0,8.973968,10.6190,192.7
7.0,8.959193,10.6190,193.2
8.0,8.947298,10.6190,193.7
9.0,8.939475,10.6190,194.2
10.0,8.932823,10.6190,194.7
11.0,8.926485,10.6190,195.2
12.0,8.920938,10.6190,195.7
13.0,8.914016,10.6190,196.2
14.0,8.908038,10.6190,196.7
15.0,8.903315,10.6190,197.2
16.0,8.897665,10.6190,197.7
17.0,8.894854,10.6190,198.2
18.0,8.892582,10.6190,198.7
19.0,8.888782,10.6190,199.2
20.0,8.886640,10.6190,199.7
21.0,8.883465,10.6190,200.2
22.0,8.881824,10.6190,200.7
23.0,8.879522,10.6190,201.2
24.0,8.877738,10.6190,201.7
25.0,8.875549,10.6190,202.2
26.0,8.873234,10.6190,202.7
27.0,8.871397,10.6190,203.2
28.0,8.870820,10.6190,203.7
29.0,8.868040,10.6190,204.2
30.0,8.866561,10.6190,204.7
31.0,8.864305,10.6190,205.2
32.0,8.863348,10.6190,205.7
33.0,8.860725,10.6190,206.2
34.0,8.859511,10.6190,206.7
35.0,8.858652,10.6190,207.2
36.0,8.855453,10.6190,207.7
37.0,8.854313,10.6190,208.2
38.0,8.852636,10.6190,208.7
39.0,8.851485,10.6190,209.2
40.0,8.850841,10.6190,209.7
