Point No.,Normal Force [N],Gap [mm],Time [s]
1.0,9.151144,10.6179,5445
2.0,9.067336,10.6179,5445
3.0,9.015315,10.6178,5446
4.0,8.985527,10.6178,5446
5.0,8.958209,10.6178,5447
6.0,8.941047,10.6178,5447
7.0,8.927195,10.6178,5448
8.0,8.913362,10.6178,5448
9.0,8.901287,10.6177,5449
10.0,8.893098,10.6177,5449
11.0,8.886293,10.6177,5450
12.0,8.881373,10.6177,5450
13.0,8.877155,10.6177,5451
14.0,8.872687,10.6177,5451
15.0,8.868089,10.6177,5452
16.0,8.864830,10.6177,5452
17.0,8.859619,10.6177,5453
18.0,8.855861,10.6177,5453
19.0,8.852045,10.6177,5454
20.0,8.848747,10.6177,5454
21.0,8.846799,10.6177,5455
22.0,8.842583,10.6177,5455
23.0,8.841836,10.6177,5456
24.0,8.838603,10.6177,5456
25.0,8.836638,10.6177,5457
26.0,8.835315,10.6177,5457
27.0,8.833371,10.6177,5458
28.0,8.831348,10.6177,5458
29.0,8.830892,10.6177,5459
30.0,8.828506,10.6177,5459
31.0,8.827675,10.6177,5460
32.0,8.825519,10.6177,5460
33.0,8.824902,10.6177,5461
34.0,8.823451,10.6177,5461
35.0,8.820967,10.6177,5462
36.0,8.820560,10.6177,5462
37.0,8.817004,10.6177,5463
38.0,8.815086,10.6177,5463
39.0,8.814864,10.6177,5464
40.0,8.813429,10.6177,5464
