Point No.,Normal Force [N],Gap [mm],Time [s]
1.0,9.208200,10.6167,4132
2.0,9.127719,10.6166,4133
3.0,9.078751,10.6166,4133
4.0,9.044283,10.6166,4134
5.0,9.015739,10.6166,4134
6.0,8.996662,10.6166,4135
7.0,8.984722,10.6165,4135
8.0,8.973040,10.6165,4136
9.0,8.961178,10.6165,4136
10.0,8.952785,10.6165,4137
11.0,8.946943,10.6165,4137
12.0,8.942198,10.6165,4138
13.0,8.937260,10.6165,4138
14.0,8.933821,10.6165,4139
15.0,8.930018,10.6165,4139
16.0,8.924594,10.6165,4140
17.0,8.920715,10.6165,4140
18.0,8.917940,10.6165,4141
19.0,8.911882,10.6165,4141
20.0,8.908883,10.6165,4142
21.0,8.904667,10.6165,4142
22.0,8.902517,10.6165,4143
23.0,8.898794,10.6165,4143
24.0,8.896434,10.6165,4144
25.0,8.894639,10.6165,4144
26.0,8.892726,10.6165,4145
27.0,8.890908,10.6165,4145
28.0,8.889363,10.6165,4146
29.0,8.887358,10.6165,4146
30.0,8.886233,10.6165,4147
31.0,8.885192,10.6165,4147
32.0,8.883842,10.6165,4148
33.0,8.882414,10.6165,4148
34.0,8.880895,10.6165,4149
35.0,8.878973,10.6165,4149
36.0,8.877796,10.6165,4150
37.0,8.877120,10.6165,4150
38.0,8.876147,10.6165,4151
39.0,8.875496,10.6165,4151
40.0,8.874043,10.6165,4152
