Point No.,Normal Force [N],Gap [mm],Time [s]
1.0,4.011401,12.0961,3298.0642
2.0,4.011201,12.0961,3298.1142
3.0,4.010853,12.0965,3298.1630
4.0,4.009710,12.0967,3298.2141
5.0,4.008286,12.0967,3298.2641
6.0,4.006524,12.0974,3298.3142
7.0,4.005877,12.0980,3298.3642
8.0,4.003317,12.0980,3298.4140
9.0,3.999467,12.0980,3298.4641
10.0,3.994434,12.0992,3298.5141
11.0,3.986862,12.0999,3298.5642
12.0,3.983959,12.1003,3298.6142
13.0,3.979593,12.1007,3298.6640
14.0,3.973729,12.1011,3298.7141
15.0,3.971394,12.1017,3298.7641
16.0,3.968271,12.1023,3298.8142
17.0,3.965703,12.1023,3298.8642
18.0,3.962257,12.1023,3298.9140
19.0,3.959186,12.1030,3298.9641
20.0,3.954192,12.1036,3299.0141
21.0,3.950254,12.1044,3299.0642
22.0,3.945865,12.1050,3299.1130
23.0,3.941501,12.1055,3299.1630
24.0,3.937380,12.1061,3299.2131
25.0,3.934001,12.1067,3299.2631
26.0,3.930114,12.1067,3299.3132
27.0,3.928177,12.1067,3299.3630
28.0,3.923410,12.1073,3299.4130
29.0,3.918457,12.1079,3299.4631
30.0,3.915293,12.1087,3299.5131
31.0,3.905132,12.1093,3299.5632
32.0,3.896478,12.1098,3299.6130
33.0,3.894929,12.1104,3299.6630
34.0,3.891562,12.1110,3299.7131
35.0,3.888912,12.1111,3299.7631
36.0,3.885228,12.1117,3299.8132
37.0,3.882690,12.1123,3299.8630
38.0,3.879865,12.1129,3299.9130
39.0,3.877891,12.1133,3299.9631
40.0,3.874174,12.1135,3300.0131
41.0,3.866082,12.1142,3300.0632
42.0,3.862247,12.1148,3300.1130
43.0,3.860645,12.1154,3300.1630
44.0,3.856705,12.1155,3300.2131
45.0,3.852833,12.1160,3300.2631
46.0,3.847585,12.1166,3300.3132
47.0,3.845634,12.1173,3300.3630
48.0,3.844388,12.1173,3300.4130
49.0,3.842211,12.1173,3300.4631
50.0,3.838670,12.1179,3300.5131
51.0,3.832182,12.1191,3300.5632
52.0,3.827235,12.1195,3300.6130
53.0,3.823656,12.1199,3300.6630
54.0,3.819019,12.1204,3300.7131
55.0,3.812942,12.1210,3300.7631
56.0,3.809460,12.1216,3300.8132
57.0,3.804960,12.1219,3300.8630
58.0,3.803553,12.1222,3300.9130
59.0,3.800853,12.1222,3300.9631
60.0,3.797987,12.1229,3301.0131
61.0,3.797136,12.1236,3301.0632
62.0,3.789865,12.1242,3301.1130
63.0,3.785015,12.1247,3301.1630
64.0,3.782410,12.1254,3301.2131
65.0,3.778848,12.1259,3301.2631
66.0,3.777040,12.1260,3301.3132
67.0,3.773579,12.1266,3301.3630
68.0,3.769628,12.1266,3301.4130
69.0,3.768437,12.1272,3301.4631
70.0,3.766621,12.1275,3301.5131
71.0,3.762869,12.1280,3301.5632
72.0,3.756600,12.1291,3301.6130
73.0,3.749265,12.1297,3301.6630
74.0,3.746464,12.1303,3301.7131
75.0,3.741323,12.1304,3301.7631
76.0,3.738287,12.1310,3301.8132
77.0,3.734848,12.1316,3301.8630
78.0,3.731577,12.1322,3301.9130
79.0,3.730447,12.1325,3301.9631
80.0,3.728431,12.1329,3302.0131
81.0,3.725096,12.1334,3302.0632
82.0,3.718751,12.1341,3302.1130
83.0,3.715988,12.1346,3302.1630
84.0,3.712696,12.1347,3302.2131
85.0,3.710196,12.1353,3302.2631
86.0,3.704273,12.1359,3302.3132
87.0,3.702317,12.1365,3302.3630
88.0,3.699378,12.1369,3302.4130
89.0,3.695587,12.1372,3302.4631
90.0,3.691819,12.1372,3302.5131
91.0,3.687867,12.1378,3302.5632
92.0,3.685030,12.1387,3302.6130
93.0,3.679592,12.1391,3302.6630
94.0,3.673411,12.1397,3302.7131
95.0,3.671318,12.1403,3302.7631
96.0,3.667617,12.1409,3302.8132
97.0,3.664857,12.1413,3302.8642
98.0,3.663152,12.1415,3302.9140
99.0,3.658738,12.1422,3302.9641
100.0,3.655434,12.1422,3303.0141
101.0,3.653133,12.1428,3303.0642
102.0,3.651693,12.1429,3303.1142
103.0,3.645207,12.1440,3303.1640
104.0,3.641951,12.1446,3303.2141
105.0,3.636775,12.1452,3303.2641
106.0,3.635500,12.1456,3303.3142
107.0,3.629317,12.1459,3303.3642
108.0,3.625897,12.1465,3303.4140
109.0,3.624442,12.1465,3303.4641
110.0,3.624997,12.1468,3303.5141
111.0,3.619978,12.1472,3303.5642
112.0,3.616112,12.1478,3303.6142
113.0,3.611228,12.1490,3303.6640
114.0,3.606604,12.1496,3303.7141
115.0,3.601557,12.1499,3303.7641
116.0,3.599013,12.1502,3303.8142
117.0,3.592145,12.1509,3303.8642
118.0,3.590487,12.1515,3303.9140
119.0,3.587582,12.1518,3303.9641
120.0,3.584468,12.1522,3304.0141
121.0,3.579724,12.1527,3304.0642
122.0,3.576514,12.1534,3304.1142
123.0,3.576563,12.1539,3304.1640
124.0,3.571262,12.1543,3304.2141
125.0,3.566844,12.1546,3304.2641
126.0,3.562607,12.1552,3304.3142
127.0,3.563210,12.1559,3304.3642
128.0,3.556659,12.1562,3304.4140
129.0,3.560127,12.1565,3304.4641
130.0,3.557964,12.1571,3304.5141
131.0,3.555910,12.1571,3304.5642
132.0,3.547598,12.1577,3304.6142
133.0,3.549901,12.1578,3304.6640
134.0,3.541402,12.1590,3304.7141
135.0,3.535824,12.1596,3304.7641
136.0,3.533818,12.1602,3304.8142
137.0,3.530849,12.1605,3304.8642
138.0,3.526780,12.1609,3304.9140
139.0,3.521807,12.1615,3304.9641
140.0,3.519759,12.1621,3305.0141
141.0,3.521197,12.1621,3305.0642
142.0,3.516685,12.1621,3305.1142
143.0,3.514117,12.1627,3305.1640
144.0,3.508999,12.1633,3305.2141
145.0,3.503639,12.1645,3305.2641
146.0,3.502753,12.1649,3305.3142
147.0,3.501552,12.1652,3305.3642
148.0,3.496755,12.1658,3305.4140
149.0,3.491938,12.1664,3305.4641
150.0,3.489894,12.1664,3305.5141
151.0,3.488361,12.1664,3305.5642
152.0,3.485219,12.1671,3305.6142
153.0,3.480719,12.1677,3305.6640
154.0,3.476283,12.1687,3305.7141
155.0,3.471117,12.1692,3305.7641
156.0,3.463829,12.1695,3305.8142
157.0,3.462745,12.1702,3305.8642
158.0,3.458972,12.1708,3305.9140
159.0,3.455934,12.1713,3305.9641
160.0,3.455482,12.1714,3306.0141
161.0,3.451873,12.1720,3306.0642
162.0,3.448581,12.1727,3306.1142
163.0,3.447197,12.1732,3306.1640
164.0,3.445052,12.1735,3306.2141
165.0,3.440714,12.1739,3306.2641
166.0,3.435887,12.1745,3306.3142
167.0,3.432019,12.1751,3306.3642
168.0,3.431524,12.1754,3306.4140
169.0,3.426825,12.1758,3306.4641
170.0,3.424077,12.1764,3306.5141
171.0,3.421068,12.1764,3306.5642
172.0,3.420172,12.1769,3306.6142
173.0,3.417595,12.1773,3306.6640
174.0,3.413361,12.1776,3306.7141
175.0,3.409091,12.1789,3306.7641
176.0,3.403481,12.1795,3306.8142
177.0,3.402864,12.1798,3306.8642
178.0,3.399007,12.1801,3306.9140
179.0,3.394576,12.1808,3306.9641
180.0,3.391599,12.1814,3307.0141
181.0,3.391499,12.1819,3307.0642
182.0,3.389589,12.1820,3307.1142
183.0,3.386668,12.1820,3307.1640
184.0,3.382116,12.1826,3307.2141
185.0,3.378051,12.1832,3307.2641
186.0,3.372502,12.1837,3307.3142
187.0,3.368984,12.1845,3307.3642
188.0,3.366007,12.1851,3307.4140
189.0,3.361071,12.1857,3307.4641
190.0,3.358139,12.1863,3307.5141
191.0,3.356168,12.1864,3307.5642
192.0,3.352450,12.1864,3307.6142
193.0,3.350636,12.1870,3307.6640
194.0,3.348407,12.1874,3307.7141
195.0,3.346556,12.1880,3307.7641
196.0,3.340759,12.1888,3307.8142
197.0,3.336443,12.1895,3307.8642
198.0,3.333287,12.1901,3307.9140
199.0,3.330577,12.1906,3307.9641
200.0,3.327325,12.1907,3308.0141
201.0,3.324253,12.1913,3308.0642
202.0,3.321271,12.1920,3308.1142
203.0,3.320946,12.1924,3308.1640
204.0,3.320395,12.1928,3308.2141
205.0,3.316015,12.1932,3308.2641
206.0,3.310350,12.1938,3308.3142
207.0,3.308697,12.1945,3308.3642
208.0,3.304145,12.1949,3308.4140
209.0,3.301942,12.1951,3308.4641
210.0,3.297900,12.1957,3308.5141
211.0,3.295451,12.1963,3308.5642
212.0,3.292876,12.1968,3308.6142
213.0,3.291707,12.1969,3308.6640
214.0,3.288841,12.1969,3308.7141
215.0,3.285461,12.1976,3308.7641
216.0,3.281192,12.1988,3308.8142
217.0,3.279344,12.1990,3308.8642
218.0,3.273935,12.1994,3308.9140
219.0,3.271358,12.2001,3308.9641
220.0,3.267411,12.2007,3309.0141
221.0,3.264626,12.2011,3309.0642
222.0,3.261665,12.2015,3309.1142
223.0,3.259598,12.2019,3309.1640
224.0,3.256266,12.2019,3309.2141
225.0,3.254358,12.2025,3309.2641
226.0,3.251003,12.2030,3309.3142
227.0,3.244091,12.2038,3309.3642
228.0,3.240122,12.2044,3309.4140
229.0,3.237945,12.2050,3309.4641
230.0,3.236645,12.2055,3309.5141
231.0,3.234579,12.2057,3309.5642
232.0,3.231730,12.2063,3309.6142
233.0,3.228994,12.2063,3309.6640
234.0,3.227801,12.2069,3309.7141
235.0,3.224334,12.2071,3309.7641
236.0,3.221403,12.2075,3309.8142
237.0,3.215304,12.2088,3309.8642
238.0,3.211033,12.2094,3309.9140
239.0,3.209150,12.2098,3309.9641
240.0,3.205046,12.2100,3310.0141
241.0,3.202282,12.2106,3310.0642
242.0,3.197651,12.2113,3310.1142
243.0,3.197166,12.2117,3310.1640
244.0,3.195333,12.2120,3310.2141
245.0,3.193493,12.2125,3310.2641
246.0,3.189711,12.2131,3310.3142
247.0,3.182658,12.2138,3310.3642
248.0,3.181892,12.2142,3310.4140
249.0,3.180555,12.2144,3310.4641
250.0,3.176090,12.2150,3310.5141
251.0,3.173110,12.2156,3310.5642
252.0,3.172279,12.2160,3310.6142
253.0,3.170343,12.2164,3310.6640
254.0,3.165787,12.2169,3310.7141
255.0,3.163855,12.2169,3310.7641
256.0,3.160625,12.2175,3310.8142
257.0,3.157407,12.2181,3310.8642
258.0,3.153045,12.2187,3310.9140
259.0,3.144480,12.2194,3310.9641
260.0,3.142592,12.2200,3311.0141
261.0,3.140520,12.2204,3311.0642
262.0,3.137885,12.2208,3311.1142
263.0,3.133306,12.2212,3311.1640
264.0,3.133452,12.2218,3311.2141
265.0,3.129897,12.2218,3311.2641
266.0,3.130834,12.2223,3311.3142
267.0,3.126791,12.2225,3311.3642
268.0,3.124257,12.2237,3311.4140
269.0,3.121684,12.2243,3311.4641
270.0,3.120119,12.2248,3311.5141
271.0,3.118979,12.2251,3311.5642
272.0,3.116065,12.2256,3311.6142
273.0,3.112804,12.2262,3311.6640
274.0,3.110407,12.2262,3311.7141
275.0,3.108432,12.2264,3311.7641
276.0,3.106014,12.2268,3311.8142
277.0,3.102794,12.2275,3311.8642
278.0,3.097006,12.2287,3311.9140
279.0,3.093854,12.2291,3311.9641
280.0,3.090102,12.2294,3312.0141
281.0,3.086058,12.2299,3312.0642
282.0,3.081684,12.2306,3312.1142
283.0,3.080660,12.2312,3312.1640
284.0,3.079349,12.2313,3312.2141
285.0,3.077060,12.2318,3312.2641
286.0,3.073679,12.2324,3312.3142
287.0,3.071179,12.2331,3312.3642
288.0,3.069106,12.2334,3312.4140
289.0,3.065796,12.2337,3312.4641
290.0,3.063004,12.2343,3312.5141
291.0,3.061720,12.2349,3312.5642
292.0,3.058156,12.2356,3312.6142
293.0,3.056459,12.2357,3312.6640
294.0,3.054373,12.2362,3312.7141
295.0,3.052502,12.2368,3312.7641
296.0,3.049091,12.2368,3312.8142
297.0,3.048083,12.2372,3312.8642
298.0,3.043731,12.2374,3312.9140
299.0,3.037119,12.2387,3312.9641
300.0,3.033808,12.2393,3313.0141
301.0,3.032005,12.2397,3313.0642
302.0,3.028181,12.2400,3313.1142
303.0,3.024827,12.2405,3313.1640
304.0,3.021576,12.2412,3313.2141
305.0,3.020848,12.2418,3313.2641
306.0,3.017974,12.2418,3313.3142
307.0,3.016598,12.2418,3313.3642
308.0,3.013954,12.2424,3313.4140
309.0,3.011999,12.2437,3313.4641
310.0,3.007344,12.2440,3313.5141
311.0,3.004838,12.2443,3313.5642
312.0,3.002717,12.2449,3313.6142
313.0,2.998002,12.2455,3313.6640
314.0,2.995826,12.2461,3313.7141
315.0,2.995454,12.2461,3313.7641
316.0,2.993489,12.2461,3313.8142
317.0,2.990237,12.2468,3313.8642
318.0,2.988351,12.2474,3313.9140
319.0,2.984891,12.2480,3313.9641
320.0,2.980863,12.2487,3314.0141
321.0,2.973130,12.2493,3314.0642
322.0,2.969766,12.2499,3314.1142
323.0,2.967913,12.2504,3314.1640
324.0,2.967199,12.2508,3314.2141
325.0,2.963509,12.2511,3314.2641
326.0,2.961889,12.2517,3314.3142
327.0,2.958563,12.2523,3314.3642
328.0,2.958322,12.2527,3314.4140
329.0,2.956634,12.2530,3314.4641
330.0,2.953128,12.2536,3314.5141
331.0,2.947614,12.2542,3314.5642
332.0,2.943971,12.2548,3314.6142
333.0,2.942790,12.2549,3314.6640
334.0,2.941176,12.2555,3314.7141
335.0,2.937166,12.2561,3314.7641
336.0,2.935187,12.2567,3314.8142
337.0,2.932457,12.2567,3314.8642
338.0,2.932302,12.2568,3314.9140
339.0,2.929326,12.2574,3314.9641
340.0,2.923530,12.2586,3315.0141
341.0,2.920905,12.2592,3315.0642
342.0,2.916240,12.2593,3315.1142
343.0,2.912277,12.2598,3315.1640
344.0,2.910326,12.2605,3315.2141
345.0,2.909276,12.2610,3315.2641
346.0,2.907099,12.2614,3315.3142
347.0,2.904769,12.2617,3315.3642
348.0,2.903384,12.2617,3315.4140
349.0,2.901552,12.2623,3315.4641
350.0,2.899814,12.2632,3315.5141
351.0,2.897527,12.2636,3315.5642
352.0,2.892686,12.2642,3315.6142
353.0,2.889647,12.2648,3315.6640
354.0,2.889075,12.2654,3315.7141
355.0,2.886930,12.2658,3315.7641
356.0,2.884472,12.2661,3315.8142
357.0,2.882514,12.2661,3315.8642
358.0,2.879250,12.2667,3315.9140
359.0,2.876628,12.2672,3315.9641
360.0,2.876416,12.2673,3316.0141
361.0,2.870563,12.2686,3316.0642
362.0,2.864893,12.2692,3316.1142
363.0,2.862319,12.2697,3316.1640
364.0,2.859135,12.2701,3316.2141
365.0,2.857313,12.2704,3316.2641
366.0,2.853966,12.2711,3316.3142
367.0,2.852493,12.2717,3316.3642
368.0,2.851159,12.2719,3316.4140
369.0,2.848481,12.2723,3316.4641
370.0,2.846481,12.2729,3316.5141
371.0,2.843159,12.2736,3316.5642
372.0,2.841271,12.2741,3316.6142
373.0,2.838859,12.2744,3316.6640
374.0,2.837537,12.2748,3316.7131
375.0,2.832303,12.2754,3316.7631
376.0,2.830788,12.2760,3316.8132
377.0,2.828218,12.2763,3316.8630
378.0,2.828191,12.2767,3316.9130
379.0,2.823600,12.2767,3316.9631
380.0,2.821304,12.2773,3317.0131
381.0,2.818509,12.2782,3317.0632
382.0,2.814182,12.2785,3317.1130
383.0,2.807302,12.2792,3317.1630
384.0,2.806578,12.2798,3317.2131
385.0,2.805259,12.2804,3317.2631
386.0,2.800645,12.2806,3317.3132
387.0,2.799460,12.2810,3317.3630
388.0,2.796954,12.2817,3317.4130
389.0,2.797058,12.2817,3317.4631
390.0,2.795594,12.2824,3317.5131
391.0,2.792223,12.2823,3317.5632
392.0,2.790299,12.2835,3317.6130
393.0,2.783736,12.2841,3317.6630
394.0,2.785009,12.2846,3317.7131
395.0,2.782347,12.2850,3317.7631
396.0,2.779290,12.2854,3317.8132
397.0,2.776003,12.2860,3317.8630
398.0,2.776081,12.2866,3317.9130
399.0,2.774475,12.2866,3317.9631
400.0,2.770703,12.2866,3318.0131
401.0,2.765985,12.2873,3318.0632
402.0,2.764179,12.2885,3318.1130
403.0,2.759915,12.2889,3318.1630
404.0,2.757054,12.2893,3318.2131
405.0,2.753003,12.2897,3318.2631
406.0,2.749159,12.2904,3318.3132
407.0,2.748653,12.2910,3318.3630
408.0,2.745372,12.2914,3318.4130
409.0,2.743670,12.2916,3318.4631
410.0,2.742763,12.2922,3318.5131
411.0,2.739664,12.2929,3318.5632
412.0,2.735952,12.2933,3318.6130
413.0,2.732389,12.2936,3318.6630
414.0,2.731164,12.2941,3318.7131
415.0,2.728115,12.2947,3318.7631
416.0,2.727153,12.2954,3318.8132
417.0,2.724935,12.2955,3318.8630
418.0,2.723336,12.2960,3318.9130
419.0,2.719405,12.2966,3318.9631
420.0,2.718023,12.2966,3319.0131
421.0,2.715290,12.2970,3319.0632
422.0,2.713232,12.2974,3319.1130
423.0,2.707750,12.2985,3319.1630
424.0,2.700625,12.2991,3319.2131
425.0,2.699989,12.2997,3319.2631
426.0,2.697362,12.2999,3319.3132
427.0,2.695105,12.3003,3319.3630
428.0,2.693209,12.3010,3319.4130
429.0,2.690726,12.3016,3319.4631
430.0,2.689065,12.3020,3319.5131
431.0,2.688534,12.3022,3319.5632
432.0,2.686556,12.3022,3319.6130
433.0,2.683170,12.3035,3319.6630
434.0,2.681006,12.3041,3319.7131
435.0,2.679977,12.3042,3319.7631
436.0,2.678622,12.3047,3319.8132
437.0,2.674550,12.3053,3319.8630
438.0,2.671621,12.3060,3319.9130
439.0,2.669880,12.3064,3319.9631
440.0,2.670144,12.3066,3320.0131
441.0,2.668074,12.3066,3320.0632
442.0,2.665622,12.3072,3320.1130
443.0,2.661139,12.3082,3320.1630
444.0,2.658561,12.3086,3320.2131
445.0,2.653957,12.3091,3320.2631
446.0,2.650026,12.3097,3320.3132
447.0,2.647020,12.3103,3320.3630
448.0,2.646904,12.3107,3320.4130
449.0,2.643148,12.3109,3320.4631
450.0,2.642405,12.3116,3320.5131
451.0,2.640446,12.3122,3320.5632
452.0,2.638894,12.3125,3320.6130
453.0,2.637264,12.3129,3320.6630
454.0,2.632175,12.3134,3320.7131
455.0,2.629239,12.3141,3320.7631
456.0,2.629408,12.3147,3320.8132
457.0,2.626855,12.3150,3320.8630
458.0,2.624591,12.3153,3320.9130
459.0,2.621556,12.3159,3320.9631
460.0,2.621189,12.3165,3321.0131
461.0,2.620269,12.3165,3321.0632
462.0,2.616812,12.3168,3321.1130
463.0,2.615559,12.3172,3321.1630
464.0,2.610741,12.3184,3321.2131
465.0,2.607464,12.3190,3321.2631
466.0,2.604986,12.3191,3321.3132
467.0,2.602047,12.3197,3321.3630
468.0,2.598489,12.3203,3321.4130
469.0,2.594962,12.3209,3321.4631
470.0,2.595515,12.3213,3321.5131
471.0,2.592714,12.3216,3321.5632
472.0,2.589571,12.3222,3321.6130
473.0,2.586854,12.3222,3321.6630
474.0,2.585070,12.3234,3321.7131
475.0,2.582361,12.3235,3321.7631
476.0,2.577666,12.3240,3321.8132
477.0,2.577714,12.3246,3321.8630
478.0,2.577527,12.3253,3321.9130
479.0,2.572057,12.3256,3321.9631
480.0,2.570560,12.3259,3322.0131
481.0,2.568095,12.3265,3322.0632
482.0,2.567804,12.3265,3322.1130
483.0,2.567534,12.3273,3322.1630
484.0,2.563582,12.3273,3322.2131
485.0,2.560548,12.3284,3322.2631
486.0,2.555071,12.3290,3322.3132
487.0,2.552824,12.3296,3322.3630
488.0,2.551236,12.3299,3322.4130
489.0,2.547347,12.3303,3322.4631
490.0,2.545132,12.3309,3322.5131
491.0,2.544444,12.3315,3322.5632
492.0,2.541160,12.3321,3322.6130
493.0,2.539419,12.3322,3322.6630
494.0,2.538130,12.3327,3322.7131
495.0,2.531663,12.3334,3322.7631
496.0,2.530984,12.3339,3322.8132
497.0,2.529207,12.3343,3322.8630
498.0,2.525421,12.3346,3322.9130
499.0,2.522582,12.3352,3322.9631
500.0,2.521979,12.3359,3323.0131
501.0,2.520642,12.3362,3323.0632
502.0,2.518876,12.3365,3323.1130
503.0,2.516931,12.3365,3323.1630
504.0,2.514317,12.3371,3323.2131
505.0,2.511359,12.3383,3323.2631
506.0,2.510434,12.3387,3323.3132
507.0,2.505112,12.3390,3323.3630
508.0,2.502876,12.3396,3323.4130
509.0,2.498986,12.3402,3323.4631
510.0,2.498173,12.3405,3323.5131
511.0,2.496267,12.3409,3323.5632
512.0,2.494459,12.3415,3323.6130
513.0,2.492252,12.3421,3323.6630
514.0,2.490026,12.3424,3323.7131
515.0,2.487297,12.3428,3323.7631
516.0,2.481594,12.3433,3323.8132
517.0,2.479979,12.3440,3323.8630
518.0,2.478858,12.3446,3323.9130
519.0,2.475873,12.3449,3323.9631
520.0,2.473991,12.3453,3324.0131
521.0,2.471419,12.3458,3324.0632
522.0,2.469223,12.3465,3324.1130
523.0,2.468524,12.3465,3324.1630
524.0,2.466352,12.3468,3324.2131
525.0,2.463725,12.3471,3324.2631
526.0,2.459018,12.3483,3324.3132
527.0,2.457307,12.3490,3324.3630
528.0,2.454446,12.3496,3324.4130
529.0,2.453962,12.3502,3324.4631
530.0,2.449871,12.3502,3324.5131
531.0,2.448056,12.3508,3324.5632
532.0,2.447273,12.3513,3324.6130
533.0,2.446357,12.3514,3324.6630
534.0,2.445792,12.3521,3324.7131
535.0,2.441699,12.3527,3324.7631
536.0,2.437944,12.3532,3324.8132
537.0,2.435096,12.3536,3324.8630
538.0,2.433273,12.3539,3324.9130
539.0,2.430083,12.3546,3324.9631
540.0,2.426614,12.3552,3325.0131
541.0,2.425815,12.3557,3325.0632
542.0,2.425438,12.3558,3325.1130
543.0,2.422370,12.3564,3325.1630
544.0,2.421484,12.3564,3325.2131
545.0,2.419275,12.3569,3325.2631
546.0,2.416198,12.3576,3325.3132
547.0,2.412621,12.3583,3325.3630
548.0,2.409619,12.3589,3325.4130
549.0,2.406518,12.3595,3325.4631
550.0,2.407068,12.3601,3325.5131
551.0,2.404026,12.3602,3325.5632
552.0,2.402118,12.3608,3325.6130
553.0,2.399346,12.3614,3325.6630
554.0,2.401061,12.3619,3325.7131
555.0,2.398331,12.3623,3325.7631
556.0,2.395248,12.3627,3325.8132
557.0,2.392091,12.3633,3325.8630
558.0,2.388478,12.3639,3325.9130
559.0,2.386829,12.3642,3325.9631
560.0,2.385799,12.3645,3326.0131
561.0,2.380176,12.3652,3326.0632
562.0,2.378986,12.3658,3326.1130
563.0,2.378919,12.3663,3326.1630
564.0,2.376865,12.3664,3326.2131
565.0,2.373026,12.3664,3326.2631
566.0,2.370097,12.3670,3326.3132
567.0,2.365205,12.3683,3326.3630
568.0,2.363167,12.3685,3326.4130
569.0,2.360590,12.3689,3326.4631
570.0,2.358645,12.3701,3326.5131
571.0,2.356893,12.3701,3326.5632
572.0,2.354824,12.3706,3326.6130
573.0,2.354333,12.3710,3326.6630
574.0,2.352024,12.3714,3326.7131
575.0,2.349889,12.3720,3326.7631
576.0,2.347646,12.3726,3326.8132
577.0,2.345325,12.3728,3326.8630
578.0,2.344748,12.3733,3326.9130
579.0,2.341974,12.3739,3326.9631
580.0,2.337704,12.3745,3327.0131
581.0,2.336951,12.3750,3327.0632
582.0,2.336191,12.3751,3327.1130
583.0,2.333178,12.3758,3327.1630
584.0,2.330108,12.3764,3327.2131
585.0,2.329833,12.3768,3327.2631
586.0,2.327999,12.3770,3327.3132
587.0,2.326408,12.3770,3327.3630
588.0,2.318835,12.3782,3327.4130
589.0,2.317923,12.3789,3327.4631
590.0,2.313407,12.3793,3327.5131
591.0,2.310505,12.3795,3327.5632
592.0,2.311402,12.3801,3327.6130
593.0,2.307682,12.3807,3327.6630
594.0,2.305820,12.3812,3327.7131
595.0,2.304405,12.3816,3327.7631
596.0,2.301199,12.3820,3327.8132
597.0,2.301158,12.3826,3327.8630
598.0,2.298734,12.3832,3327.9130
599.0,2.297054,12.3837,3327.9631
600.0,2.294220,12.3839,3328.0131
601.0,2.293586,12.3845,3328.0632
602.0,2.291204,12.3851,3328.1130
603.0,2.289052,12.3856,3328.1630
604.0,2.286860,12.3859,3328.2131
605.0,2.285897,12.3864,3328.2631
606.0,2.285243,12.3863,3328.3132
607.0,2.282679,12.3870,3328.3630
