Data stamp = , 17-05-2022 20:03:50 722

Calibration Values: 
Slope = , 26.54 , g/V 
Offset Voltage at no contact = , -0.501760 , V 

No , Time , Stage Position ,   Mass , Force 
   ,  (s) ,      (mm)      ,   (g)  , (mN)  

1 ,0.0000 ,0.84967 ,5.16848 ,50.71308 
2 ,0.3378 ,0.84992 ,5.16163 ,50.64592 
3 ,0.8343 ,0.85204 ,5.17190 ,50.74666 
4 ,1.0745 ,0.85506 ,5.15821 ,50.61234 
5 ,1.3147 ,0.85739 ,5.17190 ,50.74666 
6 ,1.5228 ,0.85955 ,5.15136 ,50.54519 
7 ,1.7465 ,0.86178 ,5.15136 ,50.54519 
8 ,1.9388 ,0.86379 ,5.13768 ,50.41087 
9 ,2.1470 ,0.86586 ,5.11714 ,50.20940 
10 ,2.4029 ,0.86825 ,5.08977 ,49.94078 
11 ,2.5948 ,0.87047 ,5.06239 ,49.67215 
12 ,2.7708 ,0.87227 ,5.04185 ,49.47068 
13 ,2.9793 ,0.87423 ,5.03501 ,49.40352 
14 ,3.1874 ,0.87631 ,5.00421 ,49.10132 
15 ,3.4114 ,0.87847 ,4.98026 ,48.86627 
16 ,3.6194 ,0.88055 ,4.97341 ,48.79911 
17 ,3.8277 ,0.88262 ,4.92892 ,48.36260 
18 ,4.0517 ,0.88491 ,4.92208 ,48.29544 
19 ,4.2595 ,0.88698 ,4.91181 ,48.19471 
20 ,4.4359 ,0.88889 ,4.87759 ,47.85892 
21 ,4.6440 ,0.89083 ,4.84337 ,47.52314 
22 ,4.8521 ,0.89290 ,4.82968 ,47.38883 
23 ,5.0597 ,0.89507 ,4.81941 ,47.28809 
24 ,5.2683 ,0.89701 ,4.77493 ,46.85157 
25 ,5.4924 ,0.89933 ,4.75439 ,46.65010 
26 ,5.7005 ,0.90138 ,4.74413 ,46.54937 
27 ,5.9086 ,0.90345 ,4.70990 ,46.21359 
28 ,6.1323 ,0.90567 ,4.69622 ,46.07927 
29 ,6.3407 ,0.90778 ,4.68937 ,46.01212 
30 ,6.5489 ,0.90981 ,4.62777 ,45.40771 
31 ,6.7569 ,0.91188 ,4.63119 ,45.44128 
32 ,6.9490 ,0.91387 ,4.60382 ,45.17266 
33 ,7.1571 ,0.91588 ,4.59697 ,45.10550 
34 ,7.3649 ,0.91803 ,4.56275 ,44.76972 
35 ,7.5893 ,0.92024 ,4.53195 ,44.46751 
36 ,7.8136 ,0.92244 ,4.52511 ,44.40036 
37 ,8.0213 ,0.92454 ,4.50800 ,44.23247 
38 ,8.2296 ,0.92664 ,4.47035 ,43.86310 
39 ,8.4536 ,0.92883 ,4.45324 ,43.69521 
40 ,8.6458 ,0.93088 ,4.43271 ,43.49374 
41 ,8.8215 ,0.93275 ,4.41560 ,43.32585 
42 ,9.0300 ,0.93470 ,4.37795 ,42.95649 
43 ,9.2535 ,0.93683 ,4.37795 ,42.95649 
44 ,9.4616 ,0.93899 ,4.35742 ,42.75502 
45 ,9.6697 ,0.94109 ,4.31978 ,42.38566 
46 ,9.8779 ,0.94316 ,4.30609 ,42.25135 
47 ,10.1024 ,0.94539 ,4.29240 ,42.11703 
48 ,10.3260 ,0.94760 ,4.25133 ,41.71409 
49 ,10.5343 ,0.94967 ,4.24449 ,41.64694 
50 ,10.7582 ,0.95197 ,4.22738 ,41.47905 
51 ,10.9506 ,0.95388 ,4.18289 ,41.04253 
52 ,11.1748 ,0.95608 ,4.17947 ,41.00895 
53 ,11.3990 ,0.95837 ,4.16236 ,40.84106 
54 ,11.6070 ,0.96047 ,4.11445 ,40.37096 
55 ,11.8148 ,0.96247 ,4.12129 ,40.43812 
56 ,12.0230 ,0.96460 ,4.09391 ,40.16949 
57 ,12.2150 ,0.96653 ,4.06996 ,39.93444 
58 ,12.4393 ,0.96871 ,4.06654 ,39.90087 
59 ,12.6472 ,0.97075 ,4.01863 ,39.43077 
60 ,12.8550 ,0.97285 ,4.01520 ,39.39719 
61 ,13.0797 ,0.97516 ,3.98783 ,39.12856 
62 ,13.3036 ,0.97742 ,3.95361 ,38.79278 
63 ,13.5119 ,0.97945 ,3.92965 ,38.55773 
64 ,13.7199 ,0.98156 ,3.91596 ,38.42342 
65 ,13.9275 ,0.98363 ,3.89201 ,38.18837 
66 ,14.1361 ,0.98572 ,3.87490 ,38.02048 
67 ,14.3440 ,0.98781 ,3.85094 ,37.78543 
68 ,14.5521 ,0.99002 ,3.82014 ,37.48323 
69 ,14.7762 ,0.99203 ,3.80645 ,37.34891 
70 ,14.9683 ,0.99407 ,3.77565 ,37.04671 
71 ,15.1925 ,0.99628 ,3.76881 ,36.97955 
72 ,15.4165 ,0.99845 ,3.74828 ,36.77808 
73 ,15.6243 ,1.00055 ,3.71748 ,36.47588 
74 ,15.8326 ,1.00264 ,3.68668 ,36.17367 
75 ,16.0408 ,1.00472 ,3.69352 ,36.24083 
76 ,16.2326 ,1.00669 ,3.65930 ,35.90505 
77 ,16.4410 ,1.00876 ,3.64903 ,35.80431 
78 ,16.6650 ,1.01095 ,3.61139 ,35.43495 
79 ,16.8892 ,1.01319 ,3.57717 ,35.09917 
80 ,17.1134 ,1.01544 ,3.56006 ,34.93128 
81 ,17.3212 ,1.01753 ,3.54637 ,34.79696 
82 ,17.5295 ,1.01960 ,3.52241 ,34.56192 
83 ,17.7532 ,1.02179 ,3.50872 ,34.42760 
84 ,17.9616 ,1.02392 ,3.49846 ,34.32687 
85 ,18.1697 ,1.02602 ,3.45739 ,33.92393 
86 ,18.3934 ,1.02823 ,3.43001 ,33.65530 
87 ,18.6020 ,1.03038 ,3.43001 ,33.65530 
88 ,18.8258 ,1.03252 ,3.38210 ,33.18520 
89 ,19.0342 ,1.03468 ,3.37526 ,33.11805 
90 ,19.2421 ,1.03679 ,3.36842 ,33.05089 
91 ,19.4499 ,1.03887 ,3.32393 ,32.61437 
92 ,19.6904 ,1.04112 ,3.32051 ,32.58080 
93 ,19.9143 ,1.04342 ,3.29655 ,32.34575 
94 ,20.1224 ,1.04555 ,3.27259 ,32.11070 
95 ,20.3145 ,1.04747 ,3.24180 ,31.80849 
96 ,20.5067 ,1.04938 ,3.24180 ,31.80849 
97 ,20.7148 ,1.05141 ,3.23153 ,31.70776 
98 ,20.9229 ,1.05354 ,3.19388 ,31.33840 
99 ,21.1149 ,1.05550 ,3.17335 ,31.13693 
100 ,21.3231 ,1.05757 ,3.16651 ,31.06977 
101 ,21.5310 ,1.05954 ,3.13913 ,30.80115 
102 ,21.7229 ,1.06161 ,3.12544 ,30.66683 
103 ,21.9311 ,1.06365 ,3.09122 ,30.33105 
104 ,22.1393 ,1.06571 ,3.07753 ,30.19674 
105 ,22.3314 ,1.06763 ,3.05015 ,29.92811 
106 ,22.5394 ,1.06973 ,3.03304 ,29.76022 
107 ,22.7476 ,1.07178 ,2.99882 ,29.42444 
108 ,22.9556 ,1.07388 ,3.01251 ,29.55875 
109 ,23.1799 ,1.07608 ,2.98171 ,29.25654 
110 ,23.3879 ,1.07818 ,2.94407 ,28.88718 
111 ,23.5960 ,1.08022 ,2.94407 ,28.88718 
112 ,23.8041 ,1.08235 ,2.90642 ,28.51782 
113 ,23.9960 ,1.08428 ,2.91327 ,28.58498 
114 ,24.1883 ,1.08624 ,2.86536 ,28.11488 
115 ,24.3963 ,1.08843 ,2.85167 ,27.98057 
116 ,24.6202 ,1.09049 ,2.84825 ,27.94699 
117 ,24.8286 ,1.09258 ,2.80376 ,27.51047 
118 ,25.0363 ,1.09467 ,2.80376 ,27.51047 
119 ,25.2606 ,1.09678 ,2.77296 ,27.20827 
120 ,25.4849 ,1.09908 ,2.74558 ,26.93964 
121 ,25.6929 ,1.10124 ,2.73531 ,26.83891 
122 ,25.9010 ,1.10331 ,2.73189 ,26.80533 
123 ,26.1247 ,1.10550 ,2.69425 ,26.43597 
124 ,26.3330 ,1.10763 ,2.67714 ,26.26807 
125 ,26.5570 ,1.10984 ,2.66345 ,26.13376 
126 ,26.7654 ,1.11188 ,2.63265 ,25.83156 
127 ,26.9895 ,1.11417 ,2.61212 ,25.63009 
128 ,27.1975 ,1.11628 ,2.60185 ,25.52935 
129 ,27.4215 ,1.11851 ,2.57105 ,25.22715 
130 ,27.6297 ,1.12058 ,2.54367 ,24.95852 
131 ,27.8376 ,1.12273 ,2.54367 ,24.95852 
132 ,28.0457 ,1.12478 ,2.52314 ,24.75705 
133 ,28.2538 ,1.12681 ,2.49918 ,24.52200 
134 ,28.4455 ,1.12876 ,2.47865 ,24.32053 
135 ,28.6541 ,1.13077 ,2.47865 ,24.32053 
136 ,28.8779 ,1.13307 ,2.46154 ,24.15264 
137 ,29.0862 ,1.13519 ,2.42390 ,23.78328 
138 ,29.2943 ,1.13719 ,2.40336 ,23.58181 
139 ,29.4860 ,1.13915 ,2.39652 ,23.51465 
140 ,29.6783 ,1.14121 ,2.38283 ,23.38034 
141 ,29.8865 ,1.14313 ,2.36230 ,23.17887 
142 ,30.1107 ,1.14538 ,2.32465 ,22.80951 
143 ,30.3188 ,1.14746 ,2.31781 ,22.74235 
144 ,30.5268 ,1.14952 ,2.29385 ,22.50731 
145 ,30.7506 ,1.15175 ,2.27674 ,22.33941 
146 ,30.9589 ,1.15382 ,2.27674 ,22.33941 
147 ,31.1511 ,1.15581 ,2.23568 ,21.93647 
148 ,31.3430 ,1.15780 ,2.23910 ,21.97005 
149 ,31.5511 ,1.15979 ,2.19803 ,21.56711 
150 ,31.7428 ,1.16177 ,2.19803 ,21.56711 
151 ,31.9513 ,1.16380 ,2.17408 ,21.33206 
152 ,32.1753 ,1.16602 ,2.17066 ,21.29849 
153 ,32.3674 ,1.16795 ,2.14328 ,21.02986 
154 ,32.5755 ,1.17005 ,2.13301 ,20.92912 
155 ,32.7838 ,1.17211 ,2.11248 ,20.72766 
156 ,33.0080 ,1.17427 ,2.08852 ,20.49261 
157 ,33.2320 ,1.17652 ,2.06799 ,20.29114 
158 ,33.4401 ,1.17865 ,2.06799 ,20.29114 
159 ,33.6481 ,1.18078 ,2.04061 ,20.02251 
160 ,33.8721 ,1.18294 ,2.02008 ,19.82104 
161 ,34.0643 ,1.18495 ,2.01666 ,19.78746 
162 ,34.2563 ,1.18683 ,1.99270 ,19.55241 
163 ,34.4642 ,1.18886 ,1.99270 ,19.55241 
164 ,34.6723 ,1.19100 ,1.95506 ,19.18305 
165 ,34.8964 ,1.19317 ,1.94479 ,19.08232 
166 ,35.1043 ,1.19528 ,1.93111 ,18.94801 
167 ,35.3130 ,1.19741 ,1.90031 ,18.64580 
168 ,35.5369 ,1.19960 ,1.90715 ,18.71296 
169 ,35.7770 ,1.20199 ,1.88662 ,18.51149 
170 ,36.0011 ,1.20426 ,1.87293 ,18.37717 
171 ,36.1928 ,1.20629 ,1.83871 ,18.04139 
172 ,36.4010 ,1.20830 ,1.83186 ,17.97423 
173 ,36.6092 ,1.21041 ,1.79764 ,17.63845 
174 ,36.8175 ,1.21241 ,1.80106 ,17.67203 
175 ,37.0250 ,1.21445 ,1.78395 ,17.50414 
176 ,37.2331 ,1.21659 ,1.75315 ,17.20193 
177 ,37.4574 ,1.21887 ,1.76000 ,17.26909 
178 ,37.7135 ,1.22140 ,1.71551 ,16.83257 
179 ,37.9056 ,1.22333 ,1.71893 ,16.86615 
180 ,38.1297 ,1.22557 ,1.68813 ,16.56395 
181 ,38.3378 ,1.22758 ,1.67444 ,16.42963 
182 ,38.5457 ,1.22973 ,1.66418 ,16.32890 
183 ,38.7381 ,1.23169 ,1.64364 ,16.12743 
184 ,38.9140 ,1.23354 ,1.63680 ,16.06027 
185 ,39.1222 ,1.23545 ,1.63338 ,16.02669 
186 ,39.3305 ,1.23751 ,1.59231 ,15.62375 
187 ,39.5542 ,1.23978 ,1.58204 ,15.52302 
188 ,39.7783 ,1.24204 ,1.57520 ,15.45586 
189 ,39.9867 ,1.24413 ,1.55809 ,15.28797 
190 ,40.2110 ,1.24634 ,1.54098 ,15.12008 
191 ,40.4028 ,1.24840 ,1.52387 ,14.95219 
192 ,40.6110 ,1.25029 ,1.50333 ,14.75072 
193 ,40.8189 ,1.25245 ,1.50333 ,14.75072 
194 ,41.0271 ,1.25449 ,1.48280 ,14.54925 
195 ,41.2350 ,1.25657 ,1.45885 ,14.31420 
196 ,41.4429 ,1.25869 ,1.45885 ,14.31420 
197 ,41.6511 ,1.26068 ,1.42462 ,13.97842 
198 ,41.8594 ,1.26280 ,1.43147 ,14.04557 
199 ,42.0355 ,1.26472 ,1.39383 ,13.67621 
200 ,42.2596 ,1.26681 ,1.39383 ,13.67621 
201 ,42.4676 ,1.26888 ,1.37329 ,13.47474 
202 ,42.6598 ,1.27081 ,1.36303 ,13.37401 
203 ,42.8835 ,1.27306 ,1.33907 ,13.13896 
204 ,43.0919 ,1.27519 ,1.31854 ,12.93749 
205 ,43.2840 ,1.27724 ,1.31169 ,12.87033 
206 ,43.4921 ,1.27912 ,1.29116 ,12.66886 
207 ,43.7162 ,1.28138 ,1.27063 ,12.46739 
208 ,43.9242 ,1.28348 ,1.27747 ,12.53455 
209 ,44.1480 ,1.28568 ,1.24667 ,12.23235 
210 ,44.3565 ,1.28774 ,1.21587 ,11.93014 
211 ,44.5806 ,1.28998 ,1.22956 ,12.06445 
212 ,44.7887 ,1.29202 ,1.20561 ,11.82941 
213 ,44.9968 ,1.29416 ,1.18165 ,11.59436 
214 ,45.2046 ,1.29636 ,1.17823 ,11.56078 
215 ,45.4131 ,1.29833 ,1.15770 ,11.35931 
216 ,45.6211 ,1.30043 ,1.16112 ,11.39289 
217 ,45.8609 ,1.30282 ,1.12690 ,11.05710 
218 ,46.0850 ,1.30505 ,1.12005 ,10.98995 
219 ,46.2931 ,1.30709 ,1.07899 ,10.58701 
220 ,46.5017 ,1.30922 ,1.09267 ,10.72132 
221 ,46.7254 ,1.31145 ,1.07556 ,10.55343 
222 ,46.9337 ,1.31355 ,1.03792 ,10.18407 
223 ,47.1417 ,1.31558 ,1.05161 ,10.31838 
224 ,47.3494 ,1.31776 ,1.02423 ,10.04976 
225 ,47.5579 ,1.31976 ,1.01739 ,9.98260 
226 ,47.7500 ,1.32186 ,1.00370 ,9.84829 
227 ,47.9419 ,1.32369 ,0.98317 ,9.64682 
228 ,48.1342 ,1.32556 ,0.95579 ,9.37819 
229 ,48.3418 ,1.32759 ,0.97290 ,9.54608 
230 ,48.5344 ,1.32967 ,0.92841 ,9.10956 
231 ,48.7104 ,1.33148 ,0.94552 ,9.27745 
232 ,48.9025 ,1.33328 ,0.93183 ,9.14314 
233 ,49.1108 ,1.33533 ,0.88734 ,8.70662 
234 ,49.3344 ,1.33750 ,0.87708 ,8.60589 
235 ,49.5423 ,1.33957 ,0.89077 ,8.74020 
236 ,49.7344 ,1.34167 ,0.85312 ,8.37084 
237 ,49.9428 ,1.34368 ,0.85997 ,8.43800 
238 ,50.1511 ,1.34567 ,0.82232 ,8.06864 
239 ,50.3750 ,1.34790 ,0.81206 ,7.96790 
240 ,50.5512 ,1.34986 ,0.81206 ,7.96790 
241 ,50.7752 ,1.35190 ,0.79495 ,7.80001 
242 ,50.9513 ,1.35388 ,0.79152 ,7.76643 
243 ,51.1594 ,1.35585 ,0.76415 ,7.49780 
244 ,51.3835 ,1.35805 ,0.77441 ,7.59854 
245 ,51.5755 ,1.35997 ,0.72650 ,7.12844 
246 ,51.7832 ,1.36200 ,0.73677 ,7.22918 
247 ,51.9918 ,1.36413 ,0.69913 ,6.85982 
248 ,52.2156 ,1.36630 ,0.68886 ,6.75908 
249 ,52.4397 ,1.36856 ,0.69570 ,6.82624 
250 ,52.6481 ,1.37061 ,0.66490 ,6.52403 
251 ,52.8717 ,1.37289 ,0.64437 ,6.32256 
252 ,53.0802 ,1.37504 ,0.64779 ,6.35614 
253 ,53.3043 ,1.37720 ,0.63410 ,6.22183 
254 ,53.5283 ,1.37943 ,0.61699 ,6.05394 
255 ,53.7362 ,1.38152 ,0.59646 ,5.85247 
256 ,53.9284 ,1.38347 ,0.58619 ,5.75173 
257 ,54.1205 ,1.38549 ,0.58277 ,5.71815 
258 ,54.3286 ,1.38745 ,0.55197 ,5.41595 
259 ,54.5367 ,1.38956 ,0.55197 ,5.41595 
260 ,54.7446 ,1.39165 ,0.53828 ,5.28164 
261 ,54.9531 ,1.39370 ,0.51433 ,5.04659 
262 ,55.1607 ,1.39590 ,0.50748 ,4.97943 
263 ,55.3369 ,1.39769 ,0.48353 ,4.74438 
264 ,55.5452 ,1.39965 ,0.49380 ,4.84512 
265 ,55.7373 ,1.40159 ,0.48695 ,4.77796 
266 ,55.9455 ,1.40367 ,0.46642 ,4.57649 
267 ,56.1536 ,1.40573 ,0.44246 ,4.34144 
268 ,56.3615 ,1.40780 ,0.44246 ,4.34144 
269 ,56.5853 ,1.40998 ,0.42193 ,4.13997 
270 ,56.7778 ,1.41198 ,0.40824 ,4.00566 
271 ,57.0018 ,1.41421 ,0.41166 ,4.03924 
272 ,57.2261 ,1.41628 ,0.38086 ,3.73703 
273 ,57.4497 ,1.41868 ,0.37060 ,3.63630 
274 ,57.6422 ,1.42064 ,0.36718 ,3.60272 
275 ,57.8341 ,1.42262 ,0.33638 ,3.30052 
276 ,58.0424 ,1.42463 ,0.35349 ,3.46841 
277 ,58.2664 ,1.42679 ,0.32611 ,3.19978 
278 ,58.4740 ,1.42893 ,0.30900 ,3.03189 
279 ,58.6826 ,1.43103 ,0.30558 ,2.99831 
280 ,58.8904 ,1.43308 ,0.28847 ,2.83042 
281 ,59.0828 ,1.43504 ,0.30215 ,2.96473 
282 ,59.2908 ,1.43705 ,0.25424 ,2.49464 
283 ,59.4989 ,1.43909 ,0.26109 ,2.56179 
284 ,59.7069 ,1.44122 ,0.23029 ,2.25959 
285 ,59.9150 ,1.44333 ,0.22002 ,2.15885 
286 ,60.1231 ,1.44539 ,0.23029 ,2.25959 
287 ,60.3154 ,1.44737 ,0.19949 ,1.95738 
288 ,60.5231 ,1.44941 ,0.19607 ,1.92381 
289 ,60.7150 ,1.45139 ,0.16869 ,1.65518 
290 ,60.9234 ,1.45339 ,0.18922 ,1.85665 
291 ,61.1477 ,1.45563 ,0.15842 ,1.55445 
292 ,61.3717 ,1.45782 ,0.13105 ,1.28582 
293 ,61.5799 ,1.45995 ,0.14131 ,1.38655 
294 ,61.8035 ,1.46221 ,0.13789 ,1.35298 
295 ,62.0122 ,1.46429 ,0.11736 ,1.15151 
296 ,62.2201 ,1.46642 ,0.10709 ,1.05077 
297 ,62.4281 ,1.46843 ,0.09340 ,0.91646 
298 ,62.6363 ,1.47053 ,0.07629 ,0.74857 
299 ,62.8603 ,1.47267 ,0.06945 ,0.68141 
300 ,63.1005 ,1.47503 ,0.05234 ,0.51352 
301 ,63.3244 ,1.47738 ,0.05234 ,0.51352 
302 ,63.5327 ,1.47945 ,0.01469 ,0.14416 
303 ,63.7407 ,1.48163 ,0.02496 ,0.24489 
304 ,63.9488 ,1.48360 ,0.00100 ,0.00984 
305 ,64.1890 ,1.48595 ,-0.01611 ,-0.15805 
306 ,64.4289 ,1.48840 ,-0.04006 ,-0.39310 
307 ,64.6051 ,1.49034 ,-0.02295 ,-0.22520 
308 ,64.8293 ,1.49236 ,-0.05375 ,-0.52741 
309 ,65.0374 ,1.49448 ,-0.05717 ,-0.56099 
310 ,65.2613 ,1.49674 ,-0.05375 ,-0.52741 
311 ,65.4693 ,1.49889 ,-0.08455 ,-0.82961 
312 ,65.6774 ,1.50099 ,-0.09482 ,-0.93035 
313 ,65.8855 ,1.50303 ,-0.09482 ,-0.93035 
314 ,66.0938 ,1.50507 ,-0.12904 ,-1.26613 
315 ,66.3177 ,1.50730 ,-0.11877 ,-1.16540 
316 ,66.5580 ,1.50959 ,-0.12219 ,-1.19898 
317 ,66.7500 ,1.51176 ,-0.14273 ,-1.40045 
318 ,66.9420 ,1.51356 ,-0.14615 ,-1.43402 
319 ,67.1662 ,1.51580 ,-0.15642 ,-1.53476 
320 ,67.3738 ,1.51783 ,-0.19406 ,-1.90412 
321 ,67.5824 ,1.51994 ,-0.17011 ,-1.66907 
322 ,67.7905 ,1.52208 ,-0.19406 ,-1.90412 
323 ,68.0306 ,1.52433 ,-0.21802 ,-2.13917 
324 ,68.2385 ,1.52647 ,-0.22486 ,-2.20632 
325 ,68.4303 ,1.52857 ,-0.23170 ,-2.27348 
326 ,68.6228 ,1.53051 ,-0.23170 ,-2.27348 
327 ,68.8147 ,1.53243 ,-0.26250 ,-2.57569 
328 ,69.0710 ,1.53475 ,-0.27961 ,-2.74358 
329 ,69.2946 ,1.53701 ,-0.28646 ,-2.81073 
330 ,69.5028 ,1.53915 ,-0.29330 ,-2.87789 
331 ,69.7109 ,1.54122 ,-0.31041 ,-3.04578 
332 ,69.9032 ,1.54322 ,-0.30699 ,-3.01220 
333 ,70.1116 ,1.54530 ,-0.32410 ,-3.18010 
334 ,70.3354 ,1.54750 ,-0.33095 ,-3.24725 
335 ,70.5116 ,1.54941 ,-0.35490 ,-3.48230 
336 ,70.7192 ,1.55131 ,-0.35490 ,-3.48230 
337 ,70.9274 ,1.55338 ,-0.37544 ,-3.68377 
338 ,71.1359 ,1.55550 ,-0.37886 ,-3.71735 
339 ,71.3438 ,1.55757 ,-0.37201 ,-3.65019 
340 ,71.5520 ,1.55960 ,-0.40623 ,-3.98597 
341 ,71.7758 ,1.56186 ,-0.41308 ,-4.05313 
342 ,71.9842 ,1.56399 ,-0.40966 ,-4.01955 
343 ,72.2084 ,1.56606 ,-0.43703 ,-4.28818 
344 ,72.4163 ,1.56821 ,-0.43703 ,-4.28818 
345 ,72.6245 ,1.57034 ,-0.43361 ,-4.25460 
346 ,72.8326 ,1.57243 ,-0.47126 ,-4.62396 
347 ,73.0247 ,1.57448 ,-0.46783 ,-4.59038 
348 ,73.2167 ,1.57630 ,-0.48152 ,-4.72470 
349 ,73.4248 ,1.57836 ,-0.47468 ,-4.65754 
350 ,73.6325 ,1.58041 ,-0.50548 ,-4.95975 
351 ,73.8248 ,1.58238 ,-0.48494 ,-4.75828 
352 ,74.0327 ,1.58438 ,-0.52943 ,-5.19479 
353 ,74.2413 ,1.58649 ,-0.51232 ,-5.02690 
354 ,74.4651 ,1.58872 ,-0.52943 ,-5.19479 
355 ,74.6735 ,1.59081 ,-0.55681 ,-5.46342 
356 ,74.8815 ,1.59289 ,-0.54654 ,-5.36268 
357 ,75.0897 ,1.59496 ,-0.56708 ,-5.56415 
358 ,75.3139 ,1.59720 ,-0.58077 ,-5.69847 
359 ,75.5375 ,1.59946 ,-0.57734 ,-5.66489 
360 ,75.7456 ,1.60162 ,-0.58419 ,-5.73205 
361 ,75.9376 ,1.60353 ,-0.61156 ,-6.00067 
362 ,76.1459 ,1.60559 ,-0.60814 ,-5.96709 
363 ,76.3540 ,1.60760 ,-0.63552 ,-6.23572 
364 ,76.5621 ,1.60965 ,-0.62525 ,-6.13499 
365 ,76.7541 ,1.61165 ,-0.65605 ,-6.43719 
366 ,76.9459 ,1.61370 ,-0.64236 ,-6.30288 
367 ,77.1223 ,1.61547 ,-0.66974 ,-6.57150 
368 ,77.3303 ,1.61738 ,-0.67659 ,-6.63866 
369 ,77.5546 ,1.61962 ,-0.68001 ,-6.67224 
370 ,77.7626 ,1.62176 ,-0.68685 ,-6.73940 
371 ,77.9548 ,1.62363 ,-0.71423 ,-7.00802 
372 ,78.1468 ,1.62567 ,-0.70396 ,-6.90729 
373 ,78.3389 ,1.62749 ,-0.71765 ,-7.04160 
374 ,78.5469 ,1.62964 ,-0.72450 ,-7.10876 
375 ,78.7231 ,1.63146 ,-0.73134 ,-7.17591 
376 ,78.9151 ,1.63325 ,-0.75530 ,-7.41096 
377 ,79.1233 ,1.63525 ,-0.75530 ,-7.41096 
378 ,79.3313 ,1.63739 ,-0.77241 ,-7.57885 
379 ,79.5391 ,1.63940 ,-0.77241 ,-7.57885 
380 ,79.7477 ,1.64159 ,-0.79294 ,-7.78032 
381 ,79.9876 ,1.64389 ,-0.78610 ,-7.71317 
382 ,80.1954 ,1.64602 ,-0.82032 ,-8.04895 
383 ,80.3879 ,1.64799 ,-0.79978 ,-7.84748 
384 ,80.5958 ,1.65007 ,-0.83058 ,-8.14968 
385 ,80.8039 ,1.65214 ,-0.82374 ,-8.08253 
386 ,81.0282 ,1.65422 ,-0.84085 ,-8.25042 
387 ,81.2359 ,1.65654 ,-0.85796 ,-8.41831 
388 ,81.4283 ,1.65835 ,-0.85112 ,-8.35115 
389 ,81.6523 ,1.66056 ,-0.87165 ,-8.55262 
390 ,81.8602 ,1.66265 ,-0.86823 ,-8.51904 
391 ,82.0684 ,1.66483 ,-0.88534 ,-8.68694 
392 ,82.3087 ,1.66705 ,-0.91272 ,-8.95556 
393 ,82.5167 ,1.66925 ,-0.91956 ,-9.02272 
394 ,82.7248 ,1.67128 ,-0.90587 ,-8.88841 
395 ,82.9165 ,1.67325 ,-0.94351 ,-9.25777 
396 ,83.1250 ,1.67530 ,-0.93325 ,-9.15703 
397 ,83.3491 ,1.67754 ,-0.95036 ,-9.32492 
398 ,83.5409 ,1.67953 ,-0.94351 ,-9.25777 
399 ,83.7652 ,1.68166 ,-0.94694 ,-9.29135 
400 ,83.9732 ,1.68378 ,-0.98800 ,-9.69429 
401 ,84.1971 ,1.68607 ,-0.98458 ,-9.66071 
402 ,84.4055 ,1.68814 ,-0.97431 ,-9.55997 
403 ,84.6138 ,1.69017 ,-1.02222 ,-10.03007 
404 ,84.8376 ,1.69241 ,-1.01196 ,-9.92933 
405 ,85.0617 ,1.69464 ,-1.00854 ,-9.89576 
406 ,85.2699 ,1.69676 ,-1.03591 ,-10.16438 
407 ,85.4780 ,1.69887 ,-1.04276 ,-10.23154 
408 ,85.7022 ,1.70108 ,-1.03934 ,-10.19796 
409 ,85.8941 ,1.70310 ,-1.04618 ,-10.26512 
410 ,86.0862 ,1.70501 ,-1.05645 ,-10.36585 
411 ,86.2938 ,1.70694 ,-1.08040 ,-10.60090 
412 ,86.5025 ,1.70906 ,-1.06329 ,-10.43301 
413 ,86.7106 ,1.71111 ,-1.08382 ,-10.63448 
414 ,86.9187 ,1.71321 ,-1.09751 ,-10.76879 
415 ,87.1424 ,1.71546 ,-1.09751 ,-10.76879 
416 ,87.3343 ,1.71741 ,-1.12489 ,-11.03742 
417 ,87.5427 ,1.71951 ,-1.11805 ,-10.97026 
418 ,87.7506 ,1.72159 ,-1.14200 ,-11.20531 
419 ,87.9589 ,1.72363 ,-1.14884 ,-11.27247 
420 ,88.1671 ,1.72570 ,-1.14884 ,-11.27247 
421 ,88.3908 ,1.72792 ,-1.16253 ,-11.40678 
422 ,88.5991 ,1.73008 ,-1.16253 ,-11.40678 
423 ,88.8233 ,1.73225 ,-1.17622 ,-11.54109 
424 ,89.0154 ,1.73421 ,-1.19676 ,-11.74256 
425 ,89.2396 ,1.73643 ,-1.19676 ,-11.74256 
426 ,89.4635 ,1.73866 ,-1.19333 ,-11.70898 
427 ,89.6718 ,1.74083 ,-1.22413 ,-12.01119 
428 ,89.8959 ,1.74297 ,-1.23098 ,-12.07834 
429 ,90.1039 ,1.74512 ,-1.22071 ,-11.97761 
430 ,90.3120 ,1.74716 ,-1.26178 ,-12.38055 
431 ,90.5196 ,1.74921 ,-1.24124 ,-12.17908 
432 ,90.7117 ,1.75125 ,-1.25493 ,-12.31339 
433 ,90.9361 ,1.75341 ,-1.28915 ,-12.64918 
434 ,91.1604 ,1.75557 ,-1.26178 ,-12.38055 
435 ,91.3683 ,1.75773 ,-1.27547 ,-12.51486 
436 ,91.5605 ,1.75965 ,-1.29258 ,-12.68275 
437 ,91.7841 ,1.76184 ,-1.28915 ,-12.64918 
438 ,91.9927 ,1.76396 ,-1.31311 ,-12.88422 
439 ,92.2165 ,1.76615 ,-1.31995 ,-12.95138 
440 ,92.4249 ,1.76825 ,-1.30969 ,-12.85065 
441 ,92.6329 ,1.77033 ,-1.33706 ,-13.11927 
442 ,92.8566 ,1.77258 ,-1.34733 ,-13.22001 
443 ,93.0811 ,1.77475 ,-1.34733 ,-13.22001 
444 ,93.3051 ,1.77707 ,-1.34049 ,-13.15285 
445 ,93.5131 ,1.77912 ,-1.37129 ,-13.45506 
446 ,93.7211 ,1.78128 ,-1.36786 ,-13.42148 
447 ,93.9294 ,1.78329 ,-1.37813 ,-13.52221 
448 ,94.1535 ,1.78552 ,-1.39866 ,-13.72368 
449 ,94.3454 ,1.78762 ,-1.38155 ,-13.55579 
450 ,94.5537 ,1.78951 ,-1.41235 ,-13.85799 
451 ,94.7778 ,1.79183 ,-1.40893 ,-13.82442 
452 ,95.0019 ,1.79403 ,-1.38497 ,-13.58937 
453 ,95.1940 ,1.79607 ,-1.42946 ,-14.02589 
454 ,95.4021 ,1.79803 ,-1.41920 ,-13.92515 
455 ,95.6099 ,1.80011 ,-1.42604 ,-13.99231 
456 ,95.8181 ,1.80217 ,-1.44657 ,-14.19378 
457 ,96.0421 ,1.80444 ,-1.44315 ,-14.16020 
458 ,96.2499 ,1.80651 ,-1.46026 ,-14.32809 
459 ,96.4585 ,1.80858 ,-1.46026 ,-14.32809 
460 ,96.6505 ,1.81059 ,-1.48422 ,-14.56314 
