Data stamp = , 17-05-2022 15:55:08 955

Calibration Values: 
Slope = , 26.54 , g/V 
Offset Voltage at no contact = , -0.501760 , V 

No , Time , Stage Position ,   Mass , Force 
   ,  (s) ,      (mm)      ,   (g)  , (mN)  

1 ,0.0000 ,0.84964 ,5.17532 ,50.78023 
2 ,0.2210 ,0.84974 ,5.17190 ,50.74666 
3 ,0.8449 ,0.85219 ,5.17532 ,50.78023 
4 ,1.0691 ,0.85503 ,5.16163 ,50.64592 
5 ,1.3094 ,0.85732 ,5.16163 ,50.64592 
6 ,1.5172 ,0.85948 ,5.15821 ,50.61234 
7 ,1.7255 ,0.86159 ,5.16163 ,50.64592 
8 ,1.9496 ,0.86385 ,5.13768 ,50.41087 
9 ,2.1257 ,0.86582 ,5.13083 ,50.34372 
10 ,2.3497 ,0.86783 ,5.09661 ,50.00793 
11 ,2.5414 ,0.86999 ,5.05897 ,49.63857 
12 ,2.7337 ,0.87182 ,5.05554 ,49.60499 
13 ,2.9420 ,0.87376 ,5.05212 ,49.57142 
14 ,3.1501 ,0.87583 ,5.00421 ,49.10132 
15 ,3.3419 ,0.87786 ,5.00079 ,49.06774 
16 ,3.5503 ,0.87985 ,4.95972 ,48.66480 
17 ,3.7582 ,0.88195 ,4.95972 ,48.66480 
18 ,3.9824 ,0.88420 ,4.92550 ,48.32902 
19 ,4.1906 ,0.88622 ,4.87417 ,47.82534 
20 ,4.3826 ,0.88831 ,4.88101 ,47.89250 
21 ,4.5743 ,0.89020 ,4.85364 ,47.62387 
22 ,4.7983 ,0.89240 ,4.83310 ,47.42240 
23 ,5.0229 ,0.89446 ,4.81257 ,47.22093 
24 ,5.2469 ,0.89678 ,4.79888 ,47.08662 
25 ,5.4551 ,0.89889 ,4.74755 ,46.58295 
26 ,5.6789 ,0.90110 ,4.75439 ,46.65010 
27 ,5.8868 ,0.90320 ,4.73044 ,46.41506 
28 ,6.1115 ,0.90533 ,4.68253 ,45.94496 
29 ,6.3355 ,0.90769 ,4.66884 ,45.81065 
30 ,6.5275 ,0.90966 ,4.66542 ,45.77707 
31 ,6.7196 ,0.91157 ,4.64488 ,45.57560 
32 ,6.9275 ,0.91364 ,4.62093 ,45.34055 
33 ,7.1518 ,0.91588 ,4.58671 ,45.00477 
34 ,7.3597 ,0.91798 ,4.54906 ,44.63541 
35 ,7.5680 ,0.92001 ,4.55249 ,44.66898 
36 ,7.7760 ,0.92217 ,4.50457 ,44.19889 
37 ,7.9840 ,0.92418 ,4.52511 ,44.40036 
38 ,8.2082 ,0.92642 ,4.48746 ,44.03100 
39 ,8.4163 ,0.92852 ,4.44298 ,43.59448 
40 ,8.6084 ,0.93055 ,4.43955 ,43.56090 
41 ,8.8163 ,0.93253 ,4.40875 ,43.25870 
42 ,9.0406 ,0.93473 ,4.38480 ,43.02365 
43 ,9.2484 ,0.93681 ,4.38138 ,42.99007 
44 ,9.4567 ,0.93897 ,4.34373 ,42.62071 
45 ,9.6809 ,0.94113 ,4.32320 ,42.41924 
46 ,9.8889 ,0.94326 ,4.31978 ,42.38566 
47 ,10.0969 ,0.94531 ,4.28213 ,42.01630 
48 ,10.3046 ,0.94737 ,4.27529 ,41.94914 
49 ,10.5448 ,0.94979 ,4.24791 ,41.68051 
50 ,10.7533 ,0.95187 ,4.21027 ,41.31115 
51 ,10.9774 ,0.95410 ,4.18974 ,41.10968 
52 ,11.2015 ,0.95640 ,4.18289 ,41.04253 
53 ,11.4252 ,0.95858 ,4.17262 ,40.94179 
54 ,11.6174 ,0.96056 ,4.13840 ,40.60601 
55 ,11.8255 ,0.96260 ,4.11787 ,40.40454 
56 ,12.0337 ,0.96464 ,4.08707 ,40.10233 
57 ,12.2739 ,0.96697 ,4.05969 ,39.83371 
58 ,12.4815 ,0.96927 ,4.02205 ,39.46435 
59 ,12.6897 ,0.97120 ,4.02547 ,39.49793 
60 ,12.8979 ,0.97328 ,3.99125 ,39.16214 
61 ,13.0901 ,0.97525 ,3.99809 ,39.22930 
62 ,13.2823 ,0.97720 ,3.95361 ,38.79278 
63 ,13.4903 ,0.97922 ,3.93650 ,38.62489 
64 ,13.6984 ,0.98134 ,3.91254 ,38.38984 
65 ,13.9223 ,0.98356 ,3.90912 ,38.35626 
66 ,14.1306 ,0.98567 ,3.87832 ,38.05406 
67 ,14.3385 ,0.98771 ,3.85436 ,37.81901 
68 ,14.5464 ,0.98978 ,3.83725 ,37.65112 
69 ,14.7548 ,0.99188 ,3.80303 ,37.31534 
70 ,14.9466 ,0.99382 ,3.80645 ,37.34891 
71 ,15.1710 ,0.99601 ,3.77223 ,37.01313 
72 ,15.3791 ,0.99809 ,3.74485 ,36.74450 
73 ,15.5872 ,1.00013 ,3.74143 ,36.71093 
74 ,15.7947 ,1.00222 ,3.69694 ,36.27441 
75 ,16.0189 ,1.00458 ,3.67299 ,36.03936 
76 ,16.2268 ,1.00660 ,3.67299 ,36.03936 
77 ,16.4355 ,1.00873 ,3.63877 ,35.70358 
78 ,16.6596 ,1.01092 ,3.60112 ,35.33422 
79 ,16.8832 ,1.01315 ,3.59770 ,35.30064 
80 ,17.0758 ,1.01525 ,3.58059 ,35.13275 
81 ,17.2999 ,1.01729 ,3.54295 ,34.76338 
82 ,17.5239 ,1.01957 ,3.52926 ,34.62907 
83 ,17.7639 ,1.02194 ,3.50188 ,34.36045 
84 ,17.9561 ,1.02389 ,3.47792 ,34.12540 
85 ,18.1802 ,1.02621 ,3.45055 ,33.85677 
86 ,18.4041 ,1.02835 ,3.44713 ,33.82319 
87 ,18.6122 ,1.03051 ,3.41633 ,33.52099 
88 ,18.8041 ,1.03246 ,3.39579 ,33.31952 
89 ,19.0124 ,1.03447 ,3.38210 ,33.18520 
90 ,19.2203 ,1.03651 ,3.34104 ,32.78227 
91 ,19.4447 ,1.03873 ,3.32735 ,32.64795 
92 ,19.6528 ,1.04081 ,3.31708 ,32.54722 
93 ,19.8770 ,1.04309 ,3.28286 ,32.21143 
94 ,20.0849 ,1.04518 ,3.26233 ,32.00996 
95 ,20.2925 ,1.04721 ,3.25548 ,31.94281 
96 ,20.4851 ,1.04918 ,3.22811 ,31.67418 
97 ,20.6932 ,1.05125 ,3.20415 ,31.43913 
98 ,20.9169 ,1.05348 ,3.16993 ,31.10335 
99 ,21.1092 ,1.05543 ,3.17335 ,31.13693 
100 ,21.3650 ,1.05775 ,3.14597 ,30.86830 
101 ,21.5737 ,1.06002 ,3.11860 ,30.59968 
102 ,21.7816 ,1.06214 ,3.10833 ,30.49894 
103 ,21.9897 ,1.06418 ,3.09464 ,30.36463 
104 ,22.2138 ,1.06642 ,3.06042 ,30.02884 
105 ,22.4215 ,1.06849 ,3.02962 ,29.72664 
106 ,22.6298 ,1.07065 ,3.02620 ,29.69306 
107 ,22.8539 ,1.07280 ,3.00224 ,29.45801 
108 ,23.0620 ,1.07489 ,2.98513 ,29.29012 
109 ,23.2543 ,1.07689 ,2.95433 ,28.98792 
110 ,23.4464 ,1.07890 ,2.91669 ,28.61856 
111 ,23.6544 ,1.08089 ,2.91669 ,28.61856 
112 ,23.8466 ,1.08280 ,2.89616 ,28.41709 
113 ,24.0707 ,1.08500 ,2.86536 ,28.11488 
114 ,24.2790 ,1.08705 ,2.84482 ,27.91341 
115 ,24.4867 ,1.08913 ,2.84482 ,27.91341 
116 ,24.6783 ,1.09116 ,2.80718 ,27.54405 
117 ,24.8869 ,1.09317 ,2.80376 ,27.51047 
118 ,25.0950 ,1.09530 ,2.79007 ,27.37616 
119 ,25.3190 ,1.09745 ,2.75585 ,27.04038 
120 ,25.5112 ,1.09943 ,2.74900 ,26.97322 
121 ,25.7191 ,1.10145 ,2.70452 ,26.53670 
122 ,25.9432 ,1.10360 ,2.71820 ,26.67101 
123 ,26.1515 ,1.10585 ,2.70109 ,26.50312 
124 ,26.3753 ,1.10805 ,2.65318 ,26.03303 
125 ,26.5834 ,1.11013 ,2.64292 ,25.93229 
126 ,26.7917 ,1.11222 ,2.62581 ,25.76440 
127 ,26.9838 ,1.11420 ,2.59158 ,25.42862 
128 ,27.1758 ,1.11607 ,2.59501 ,25.46220 
129 ,27.3680 ,1.11805 ,2.57105 ,25.22715 
130 ,27.5921 ,1.12020 ,2.55736 ,25.09283 
131 ,27.8001 ,1.12225 ,2.51630 ,24.68989 
132 ,28.0238 ,1.12452 ,2.50603 ,24.58916 
133 ,28.2323 ,1.12657 ,2.50261 ,24.55558 
134 ,28.4725 ,1.12889 ,2.45812 ,24.11906 
135 ,28.6807 ,1.13106 ,2.44443 ,23.98475 
136 ,28.9046 ,1.13332 ,2.41705 ,23.71612 
137 ,29.1123 ,1.13541 ,2.41705 ,23.71612 
138 ,29.3208 ,1.13749 ,2.39652 ,23.51465 
139 ,29.5608 ,1.13974 ,2.38625 ,23.41392 
140 ,29.7690 ,1.14205 ,2.34861 ,23.04456 
141 ,29.9607 ,1.14395 ,2.34177 ,22.97740 
142 ,30.1690 ,1.14599 ,2.32465 ,22.80951 
143 ,30.3931 ,1.14820 ,2.31439 ,22.70877 
144 ,30.6014 ,1.15030 ,2.27332 ,22.30584 
145 ,30.8093 ,1.15234 ,2.26306 ,22.20510 
146 ,31.0171 ,1.15446 ,2.25279 ,22.10437 
147 ,31.2096 ,1.15641 ,2.23226 ,21.90290 
148 ,31.3850 ,1.15829 ,2.20488 ,21.63427 
149 ,31.5938 ,1.16019 ,2.22199 ,21.80216 
150 ,31.8338 ,1.16247 ,2.17408 ,21.33206 
151 ,32.0420 ,1.16469 ,2.16723 ,21.26491 
152 ,32.2659 ,1.16688 ,2.13986 ,20.99628 
153 ,32.4737 ,1.16899 ,2.15012 ,21.09702 
154 ,32.6820 ,1.17106 ,2.10906 ,20.69408 
155 ,32.8903 ,1.17323 ,2.10564 ,20.66050 
156 ,33.1300 ,1.17562 ,2.07141 ,20.32472 
157 ,33.3224 ,1.17752 ,2.06457 ,20.25756 
158 ,33.5461 ,1.17972 ,2.03719 ,19.98893 
159 ,33.7546 ,1.18182 ,2.03377 ,19.95535 
160 ,33.9785 ,1.18402 ,2.01666 ,19.78746 
161 ,34.1866 ,1.18609 ,1.99270 ,19.55241 
162 ,34.3948 ,1.18823 ,1.99270 ,19.55241 
163 ,34.6027 ,1.19023 ,1.95506 ,19.18305 
164 ,34.8270 ,1.19257 ,1.95506 ,19.18305 
165 ,35.0511 ,1.19477 ,1.94479 ,19.08232 
166 ,35.2270 ,1.19670 ,1.91057 ,18.74654 
167 ,35.4190 ,1.19855 ,1.91399 ,18.78011 
168 ,35.6272 ,1.20052 ,1.88319 ,18.47791 
169 ,35.8189 ,1.20256 ,1.88662 ,18.51149 
170 ,36.0274 ,1.20451 ,1.83871 ,18.04139 
171 ,36.2356 ,1.20661 ,1.85924 ,18.24286 
172 ,36.4595 ,1.20882 ,1.83186 ,17.97423 
173 ,36.6678 ,1.21101 ,1.79764 ,17.63845 
174 ,36.8914 ,1.21315 ,1.78737 ,17.53772 
175 ,37.0999 ,1.21531 ,1.76684 ,17.33625 
176 ,37.3078 ,1.21734 ,1.74973 ,17.16836 
177 ,37.5162 ,1.21939 ,1.75657 ,17.23551 
178 ,37.7242 ,1.22149 ,1.71209 ,16.79899 
179 ,37.9482 ,1.22373 ,1.68813 ,16.56395 
180 ,38.1721 ,1.22602 ,1.69840 ,16.66468 
181 ,38.3804 ,1.22806 ,1.67102 ,16.39605 
182 ,38.5886 ,1.23006 ,1.65733 ,16.26174 
183 ,38.8123 ,1.23241 ,1.63680 ,16.06027 
184 ,39.0207 ,1.23442 ,1.62653 ,15.95954 
185 ,39.2288 ,1.23649 ,1.60258 ,15.72449 
186 ,39.4530 ,1.23876 ,1.60258 ,15.72449 
187 ,39.6768 ,1.24096 ,1.57862 ,15.48944 
188 ,39.8691 ,1.24300 ,1.55467 ,15.25439 
189 ,40.0771 ,1.24497 ,1.54440 ,15.15366 
190 ,40.2689 ,1.24700 ,1.52387 ,14.95219 
191 ,40.4776 ,1.24899 ,1.52387 ,14.95219 
192 ,40.7011 ,1.25124 ,1.49991 ,14.71714 
193 ,40.8932 ,1.25331 ,1.45542 ,14.28062 
194 ,41.1017 ,1.25526 ,1.46911 ,14.41493 
195 ,41.3256 ,1.25748 ,1.43147 ,14.04557 
196 ,41.5498 ,1.25969 ,1.42805 ,14.01199 
197 ,41.7741 ,1.26197 ,1.42462 ,13.97842 
198 ,41.9823 ,1.26404 ,1.40409 ,13.77695 
199 ,42.2063 ,1.26628 ,1.36987 ,13.44116 
200 ,42.4142 ,1.26835 ,1.38014 ,13.54190 
201 ,42.6379 ,1.27062 ,1.36303 ,13.37401 
202 ,42.8465 ,1.27264 ,1.31854 ,12.93749 
203 ,43.0546 ,1.27475 ,1.33223 ,13.07180 
204 ,43.2786 ,1.27702 ,1.31854 ,12.93749 
205 ,43.4864 ,1.27905 ,1.28774 ,12.63528 
206 ,43.6947 ,1.28115 ,1.28774 ,12.63528 
207 ,43.9189 ,1.28345 ,1.26378 ,12.40024 
208 ,44.1431 ,1.28561 ,1.22956 ,12.06445 
209 ,44.3512 ,1.28772 ,1.21245 ,11.89656 
210 ,44.5752 ,1.28995 ,1.21587 ,11.93014 
211 ,44.7669 ,1.29195 ,1.19534 ,11.72867 
212 ,44.9755 ,1.29392 ,1.19876 ,11.76225 
213 ,45.1835 ,1.29610 ,1.16796 ,11.46004 
214 ,45.3917 ,1.29811 ,1.15427 ,11.32573 
215 ,45.6157 ,1.30039 ,1.14743 ,11.25857 
216 ,45.8233 ,1.30243 ,1.11321 ,10.92279 
217 ,46.0154 ,1.30453 ,1.08925 ,10.68774 
218 ,46.2240 ,1.30644 ,1.08925 ,10.68774 
219 ,46.4320 ,1.30852 ,1.08583 ,10.65416 
220 ,46.6399 ,1.31063 ,1.07556 ,10.55343 
221 ,46.8320 ,1.31254 ,1.04476 ,10.25123 
222 ,47.0240 ,1.31453 ,1.03108 ,10.11691 
223 ,47.2164 ,1.31638 ,1.03450 ,10.15049 
224 ,47.4242 ,1.31842 ,1.00370 ,9.84829 
225 ,47.6321 ,1.32053 ,0.98317 ,9.64682 
226 ,47.8244 ,1.32248 ,0.98317 ,9.64682 
227 ,48.0323 ,1.32463 ,0.94894 ,9.31103 
228 ,48.2245 ,1.32658 ,0.94894 ,9.31103 
229 ,48.4167 ,1.32846 ,0.93868 ,9.21030 
230 ,48.6249 ,1.33044 ,0.91472 ,8.97525 
231 ,48.8169 ,1.33248 ,0.91130 ,8.94167 
232 ,49.0251 ,1.33445 ,0.88734 ,8.70662 
233 ,49.2488 ,1.33667 ,0.87708 ,8.60589 
234 ,49.4733 ,1.33879 ,0.86339 ,8.47158 
235 ,49.6809 ,1.34098 ,0.86681 ,8.50515 
236 ,49.8735 ,1.34298 ,0.83259 ,8.16937 
237 ,50.0976 ,1.34519 ,0.83601 ,8.20295 
238 ,50.3050 ,1.34722 ,0.81890 ,8.03506 
239 ,50.4974 ,1.34920 ,0.81206 ,7.96790 
240 ,50.7058 ,1.35123 ,0.78468 ,7.69927 
241 ,50.9294 ,1.35347 ,0.76072 ,7.46423 
242 ,51.1055 ,1.35541 ,0.76757 ,7.53138 
243 ,51.3136 ,1.35728 ,0.74019 ,7.26276 
244 ,51.5378 ,1.35962 ,0.74019 ,7.26276 
245 ,51.7621 ,1.36178 ,0.72992 ,7.16202 
246 ,51.9701 ,1.36386 ,0.68886 ,6.75908 
247 ,52.1944 ,1.36614 ,0.67517 ,6.62477 
248 ,52.4026 ,1.36818 ,0.68886 ,6.75908 
249 ,52.6104 ,1.37039 ,0.65464 ,6.42330 
250 ,52.8185 ,1.37236 ,0.65121 ,6.38972 
251 ,53.0266 ,1.37445 ,0.61699 ,6.05394 
252 ,53.2347 ,1.37652 ,0.61015 ,5.98678 
253 ,53.4587 ,1.37872 ,0.62042 ,6.08752 
254 ,53.6345 ,1.38067 ,0.57251 ,5.61742 
255 ,53.8430 ,1.38255 ,0.57935 ,5.68458 
256 ,54.0511 ,1.38474 ,0.56224 ,5.51668 
257 ,54.2592 ,1.38673 ,0.56566 ,5.55026 
258 ,54.4834 ,1.38901 ,0.56224 ,5.51668 
259 ,54.7230 ,1.39140 ,0.52459 ,5.14732 
260 ,54.9315 ,1.39347 ,0.50406 ,4.94585 
261 ,55.1555 ,1.39571 ,0.49037 ,4.81154 
262 ,55.3475 ,1.39767 ,0.48695 ,4.77796 
263 ,55.5558 ,1.39972 ,0.46984 ,4.61007 
264 ,55.7795 ,1.40192 ,0.46642 ,4.57649 
265 ,56.0037 ,1.40417 ,0.45615 ,4.47576 
266 ,56.2278 ,1.40644 ,0.42877 ,4.20713 
267 ,56.4360 ,1.40852 ,0.41166 ,4.03924 
268 ,56.6441 ,1.41064 ,0.40824 ,4.00566 
269 ,56.8522 ,1.41269 ,0.38086 ,3.73703 
270 ,57.0764 ,1.41494 ,0.37744 ,3.70346 
271 ,57.2845 ,1.41705 ,0.37744 ,3.70346 
272 ,57.4765 ,1.41903 ,0.33980 ,3.33410 
273 ,57.6845 ,1.42100 ,0.33638 ,3.30052 
274 ,57.8927 ,1.42310 ,0.30900 ,3.03189 
275 ,58.1164 ,1.42527 ,0.30215 ,2.96473 
276 ,58.3088 ,1.42725 ,0.31242 ,3.06547 
277 ,58.5328 ,1.42948 ,0.28162 ,2.76326 
278 ,58.7411 ,1.43155 ,0.28162 ,2.76326 
279 ,58.9650 ,1.43380 ,0.29189 ,2.86400 
280 ,59.1567 ,1.43574 ,0.23713 ,2.32675 
281 ,59.3652 ,1.43779 ,0.24740 ,2.42748 
282 ,59.5734 ,1.43990 ,0.24055 ,2.36032 
283 ,59.7973 ,1.44212 ,0.19607 ,1.92381 
284 ,59.9896 ,1.44407 ,0.22344 ,2.19243 
285 ,60.1974 ,1.44613 ,0.19607 ,1.92381 
286 ,60.4217 ,1.44830 ,0.19607 ,1.92381 
287 ,60.6458 ,1.45056 ,0.18580 ,1.82307 
288 ,60.8696 ,1.45280 ,0.15842 ,1.55445 
289 ,61.0779 ,1.45492 ,0.13447 ,1.31940 
290 ,61.3021 ,1.45718 ,0.14131 ,1.38655 
291 ,61.5422 ,1.45951 ,0.13789 ,1.35298 
292 ,61.7664 ,1.46177 ,0.12762 ,1.25224 
293 ,61.9903 ,1.46391 ,0.08998 ,0.88288 
294 ,62.1823 ,1.46602 ,0.07287 ,0.71499 
295 ,62.3904 ,1.46804 ,0.07287 ,0.71499 
296 ,62.5987 ,1.47012 ,0.05576 ,0.54710 
297 ,62.8386 ,1.47241 ,0.05918 ,0.58067 
298 ,63.0466 ,1.47458 ,0.05918 ,0.58067 
299 ,63.2708 ,1.47685 ,0.03180 ,0.31205 
300 ,63.4791 ,1.47892 ,0.01127 ,0.11058 
301 ,63.7031 ,1.48117 ,0.01469 ,0.14416 
302 ,63.9270 ,1.48335 ,0.00785 ,0.07700 
303 ,64.1194 ,1.48535 ,-0.02637 ,-0.25878 
304 ,64.3273 ,1.48739 ,-0.01611 ,-0.15805 
305 ,64.5353 ,1.48948 ,-0.04348 ,-0.42667 
306 ,64.7432 ,1.49155 ,-0.04348 ,-0.42667 
307 ,64.9356 ,1.49353 ,-0.06744 ,-0.66172 
308 ,65.1437 ,1.49555 ,-0.08455 ,-0.82961 
309 ,65.3518 ,1.49761 ,-0.07771 ,-0.76246 
310 ,65.5598 ,1.49971 ,-0.09824 ,-0.96393 
311 ,65.7835 ,1.50192 ,-0.09482 ,-0.93035 
312 ,65.9920 ,1.50410 ,-0.10851 ,-1.06466 
313 ,66.2159 ,1.50631 ,-0.12904 ,-1.26613 
314 ,66.4239 ,1.50837 ,-0.13588 ,-1.33329 
315 ,66.6482 ,1.51064 ,-0.13246 ,-1.29971 
316 ,66.8563 ,1.51268 ,-0.15642 ,-1.53476 
317 ,67.0645 ,1.51478 ,-0.15642 ,-1.53476 
318 ,67.2885 ,1.51700 ,-0.16326 ,-1.60191 
319 ,67.4966 ,1.51905 ,-0.19406 ,-1.90412 
320 ,67.6887 ,1.52105 ,-0.19064 ,-1.87054 
321 ,67.8968 ,1.52310 ,-0.21459 ,-2.10559 
322 ,68.1049 ,1.52514 ,-0.21459 ,-2.10559 
323 ,68.3289 ,1.52736 ,-0.21459 ,-2.10559 
324 ,68.5530 ,1.52965 ,-0.24197 ,-2.37422 
325 ,68.7449 ,1.53172 ,-0.26593 ,-2.60926 
326 ,68.9532 ,1.53364 ,-0.24881 ,-2.44137 
327 ,69.1448 ,1.53567 ,-0.28646 ,-2.81073 
328 ,69.3533 ,1.53762 ,-0.28988 ,-2.84431 
329 ,69.5616 ,1.53973 ,-0.29330 ,-2.87789 
330 ,69.7697 ,1.54188 ,-0.29673 ,-2.91147 
331 ,69.9785 ,1.54390 ,-0.31726 ,-3.11294 
332 ,70.2014 ,1.54613 ,-0.34121 ,-3.34799 
333 ,70.3937 ,1.54822 ,-0.32752 ,-3.21367 
334 ,70.6178 ,1.55029 ,-0.34806 ,-3.41514 
335 ,70.8258 ,1.55236 ,-0.35490 ,-3.48230 
336 ,71.0181 ,1.55431 ,-0.37886 ,-3.71735 
337 ,71.2422 ,1.55639 ,-0.38228 ,-3.75093 
338 ,71.4822 ,1.55884 ,-0.38570 ,-3.78450 
339 ,71.7064 ,1.56113 ,-0.39597 ,-3.88524 
340 ,71.9145 ,1.56329 ,-0.40966 ,-4.01955 
341 ,72.1383 ,1.56543 ,-0.43361 ,-4.25460 
342 ,72.3305 ,1.56747 ,-0.41992 ,-4.12029 
343 ,72.5227 ,1.56945 ,-0.45757 ,-4.48965 
344 ,72.7148 ,1.57129 ,-0.45072 ,-4.42249 
345 ,72.9388 ,1.57343 ,-0.47126 ,-4.62396 
346 ,73.1470 ,1.57557 ,-0.47468 ,-4.65754 
347 ,73.3712 ,1.57780 ,-0.48152 ,-4.72470 
348 ,73.5787 ,1.57984 ,-0.50548 ,-4.95975 
349 ,73.7712 ,1.58189 ,-0.51574 ,-5.06048 
350 ,73.9794 ,1.58390 ,-0.53628 ,-5.26195 
351 ,74.1874 ,1.58592 ,-0.53628 ,-5.26195 
352 ,74.4115 ,1.58821 ,-0.52943 ,-5.19479 
353 ,74.6194 ,1.59027 ,-0.55681 ,-5.46342 
354 ,74.8435 ,1.59257 ,-0.56365 ,-5.53058 
355 ,75.0517 ,1.59461 ,-0.56708 ,-5.56415 
356 ,75.2275 ,1.59652 ,-0.60814 ,-5.96709 
357 ,75.4359 ,1.59846 ,-0.57734 ,-5.66489 
358 ,75.6439 ,1.60050 ,-0.60472 ,-5.93352 
359 ,75.8355 ,1.60263 ,-0.58419 ,-5.73205 
360 ,76.0281 ,1.60440 ,-0.60472 ,-5.93352 
361 ,76.2362 ,1.60649 ,-0.61841 ,-6.06783 
362 ,76.4757 ,1.60882 ,-0.63894 ,-6.26930 
363 ,76.6839 ,1.61093 ,-0.65947 ,-6.47077 
364 ,76.8923 ,1.61305 ,-0.63552 ,-6.23572 
365 ,77.1326 ,1.61532 ,-0.67316 ,-6.60508 
366 ,77.3562 ,1.61767 ,-0.66290 ,-6.50435 
367 ,77.5486 ,1.61958 ,-0.69027 ,-6.77297 
368 ,77.7565 ,1.62162 ,-0.69027 ,-6.77297 
369 ,77.9649 ,1.62373 ,-0.70396 ,-6.90729 
370 ,78.2049 ,1.62601 ,-0.70739 ,-6.94086 
371 ,78.4291 ,1.62835 ,-0.72792 ,-7.14233 
372 ,78.6531 ,1.63057 ,-0.72450 ,-7.10876 
373 ,78.8290 ,1.63252 ,-0.74503 ,-7.31023 
374 ,79.0213 ,1.63437 ,-0.75872 ,-7.44454 
375 ,79.2294 ,1.63634 ,-0.75872 ,-7.44454 
376 ,79.4215 ,1.63834 ,-0.78267 ,-7.67959 
377 ,79.6296 ,1.64029 ,-0.78267 ,-7.67959 
378 ,79.8538 ,1.64261 ,-0.78610 ,-7.71317 
379 ,80.0776 ,1.64479 ,-0.79294 ,-7.78032 
380 ,80.2855 ,1.64689 ,-0.81347 ,-7.98179 
381 ,80.4940 ,1.64901 ,-0.80663 ,-7.91464 
382 ,80.7180 ,1.65124 ,-0.82032 ,-8.04895 
383 ,80.9260 ,1.65333 ,-0.83401 ,-8.18326 
384 ,81.1182 ,1.65524 ,-0.83743 ,-8.21684 
385 ,81.3259 ,1.65743 ,-0.86481 ,-8.48547 
386 ,81.5184 ,1.65938 ,-0.84769 ,-8.31758 
387 ,81.7425 ,1.66150 ,-0.88534 ,-8.68694 
388 ,81.9505 ,1.66355 ,-0.88534 ,-8.68694 
389 ,82.1426 ,1.66558 ,-0.90245 ,-8.85483 
390 ,82.3507 ,1.66758 ,-0.89903 ,-8.82125 
391 ,82.5587 ,1.66966 ,-0.91272 ,-8.95556 
392 ,82.7509 ,1.67160 ,-0.91272 ,-8.95556 
393 ,82.9590 ,1.67361 ,-0.92640 ,-9.08988 
394 ,83.1671 ,1.67569 ,-0.94694 ,-9.29135 
395 ,83.3752 ,1.67778 ,-0.94009 ,-9.22419 
396 ,83.5829 ,1.67992 ,-0.96063 ,-9.42566 
397 ,83.7912 ,1.68195 ,-0.96405 ,-9.45924 
398 ,83.9993 ,1.68409 ,-0.96405 ,-9.45924 
399 ,84.2233 ,1.68629 ,-0.98800 ,-9.69429 
400 ,84.4316 ,1.68848 ,-1.00169 ,-9.82860 
401 ,84.6393 ,1.69039 ,-0.99485 ,-9.76144 
402 ,84.8638 ,1.69263 ,-1.02222 ,-10.03007 
403 ,85.0877 ,1.69492 ,-1.03591 ,-10.16438 
404 ,85.3120 ,1.69712 ,-1.03249 ,-10.13080 
405 ,85.5200 ,1.69923 ,-1.04276 ,-10.23154 
406 ,85.7277 ,1.70132 ,-1.05645 ,-10.36585 
407 ,85.9361 ,1.70340 ,-1.03934 ,-10.19796 
408 ,86.1444 ,1.70552 ,-1.07698 ,-10.56732 
409 ,86.3522 ,1.70756 ,-1.07356 ,-10.53374 
410 ,86.5767 ,1.70980 ,-1.07698 ,-10.56732 
411 ,86.8003 ,1.71202 ,-1.08382 ,-10.63448 
412 ,87.0086 ,1.71411 ,-1.10436 ,-10.83595 
413 ,87.2328 ,1.71635 ,-1.10093 ,-10.80237 
414 ,87.4409 ,1.71843 ,-1.11805 ,-10.97026 
415 ,87.6490 ,1.72056 ,-1.14542 ,-11.23889 
416 ,87.8567 ,1.72266 ,-1.11805 ,-10.97026 
417 ,88.0326 ,1.72451 ,-1.14542 ,-11.23889 
418 ,88.2412 ,1.72643 ,-1.14200 ,-11.20531 
419 ,88.4654 ,1.72871 ,-1.16253 ,-11.40678 
420 ,88.6734 ,1.73076 ,-1.15911 ,-11.37320 
421 ,88.9295 ,1.73330 ,-1.17964 ,-11.57467 
422 ,89.1371 ,1.73538 ,-1.17622 ,-11.54109 
423 ,89.3457 ,1.73747 ,-1.18991 ,-11.67541 
424 ,89.5696 ,1.73972 ,-1.21729 ,-11.94403 
425 ,89.7776 ,1.74181 ,-1.19676 ,-11.74256 
426 ,89.9859 ,1.74385 ,-1.23440 ,-12.11192 
427 ,90.2096 ,1.74611 ,-1.24809 ,-12.24624 
428 ,90.4339 ,1.74840 ,-1.23782 ,-12.14550 
429 ,90.6578 ,1.75064 ,-1.23440 ,-12.11192 
430 ,90.8339 ,1.75255 ,-1.26520 ,-12.41413 
431 ,91.0260 ,1.75433 ,-1.26178 ,-12.38055 
432 ,91.2344 ,1.75634 ,-1.27204 ,-12.48128 
433 ,91.4584 ,1.75859 ,-1.26862 ,-12.44771 
434 ,91.6666 ,1.76068 ,-1.29600 ,-12.71633 
435 ,91.8746 ,1.76278 ,-1.30284 ,-12.78349 
436 ,92.0829 ,1.76485 ,-1.30284 ,-12.78349 
437 ,92.3069 ,1.76705 ,-1.31995 ,-12.95138 
438 ,92.5147 ,1.76917 ,-1.32338 ,-12.98496 
439 ,92.7231 ,1.77131 ,-1.32680 ,-13.01854 
440 ,92.9471 ,1.77345 ,-1.33022 ,-13.05212 
441 ,93.1709 ,1.77574 ,-1.35417 ,-13.28716 
442 ,93.3791 ,1.77780 ,-1.33364 ,-13.08569 
443 ,93.6029 ,1.78000 ,-1.34391 ,-13.18643 
444 ,93.7955 ,1.78202 ,-1.36444 ,-13.38790 
445 ,94.0036 ,1.78411 ,-1.35760 ,-13.32074 
446 ,94.2116 ,1.78613 ,-1.38840 ,-13.62295 
447 ,94.4197 ,1.78822 ,-1.36444 ,-13.38790 
448 ,94.6275 ,1.79033 ,-1.39524 ,-13.69010 
449 ,94.8516 ,1.79255 ,-1.39866 ,-13.72368 
450 ,95.0600 ,1.79460 ,-1.39524 ,-13.69010 
451 ,95.2678 ,1.79667 ,-1.40893 ,-13.82442 
452 ,95.4760 ,1.79878 ,-1.42604 ,-13.99231 
453 ,95.6682 ,1.80072 ,-1.42604 ,-13.99231 
454 ,95.8923 ,1.80288 ,-1.44657 ,-14.19378 
455 ,96.1007 ,1.80496 ,-1.43973 ,-14.12662 
456 ,96.3084 ,1.80705 ,-1.46026 ,-14.32809 
457 ,96.5166 ,1.80918 ,-1.46368 ,-14.36167 
458 ,96.7246 ,1.81126 ,-1.45342 ,-14.26093 
459 ,96.9323 ,1.81345 ,-1.48422 ,-14.56314 
460 ,97.1246 ,1.81528 ,-1.48080 ,-14.52956 
