Data stamp = , 17-05-2022 20:53:33 598

Calibration Values: 
Slope = , 26.54 , g/V 
Offset Voltage at no contact = , -0.501760 , V 

No , Time , Stage Position ,   Mass , Force 
   ,  (s) ,      (mm)      ,   (g)  , (mN)  

1 ,0.0000 ,0.84964 ,5.13083 ,50.34372 
2 ,0.3478 ,0.84994 ,5.14452 ,50.47803 
3 ,0.7643 ,0.85178 ,5.14794 ,50.51161 
4 ,0.9883 ,0.85423 ,5.12741 ,50.31014 
5 ,1.2129 ,0.85643 ,5.12741 ,50.31014 
6 ,1.4207 ,0.85846 ,5.14794 ,50.51161 
7 ,1.6129 ,0.86045 ,5.13768 ,50.41087 
8 ,1.8049 ,0.86242 ,5.15821 ,50.61234 
9 ,2.0126 ,0.86449 ,5.11030 ,50.14225 
10 ,2.2212 ,0.86658 ,5.11030 ,50.14225 
11 ,2.4451 ,0.86882 ,5.09661 ,50.00793 
12 ,2.6530 ,0.87089 ,5.04870 ,49.53784 
13 ,2.8451 ,0.87294 ,5.04528 ,49.50426 
14 ,3.0531 ,0.87490 ,5.00421 ,49.10132 
15 ,3.2776 ,0.87701 ,5.00079 ,49.06774 
16 ,3.5015 ,0.87933 ,4.98026 ,48.86627 
17 ,3.7258 ,0.88165 ,4.94603 ,48.53049 
18 ,3.9336 ,0.88364 ,4.90839 ,48.16113 
19 ,4.1256 ,0.88564 ,4.89812 ,48.06039 
20 ,4.3499 ,0.88775 ,4.89470 ,48.02681 
21 ,4.5420 ,0.88988 ,4.84337 ,47.52314 
22 ,4.7341 ,0.89170 ,4.82626 ,47.35525 
23 ,4.9423 ,0.89377 ,4.82284 ,47.32167 
24 ,5.1820 ,0.89611 ,4.78177 ,46.91873 
25 ,5.3900 ,0.89820 ,4.75439 ,46.65010 
26 ,5.5825 ,0.90022 ,4.76808 ,46.78442 
27 ,5.7906 ,0.90221 ,4.71333 ,46.24716 
28 ,5.9987 ,0.90428 ,4.71675 ,46.28074 
29 ,6.2226 ,0.90656 ,4.69279 ,46.04569 
30 ,6.4146 ,0.90854 ,4.64831 ,45.60918 
31 ,6.6388 ,0.91077 ,4.64488 ,45.57560 
32 ,6.8630 ,0.91297 ,4.61751 ,45.30697 
33 ,7.0708 ,0.91502 ,4.58328 ,44.97119 
34 ,7.2951 ,0.91725 ,4.55249 ,44.66898 
35 ,7.5033 ,0.91935 ,4.55249 ,44.66898 
36 ,7.7270 ,0.92166 ,4.51142 ,44.26604 
37 ,7.9194 ,0.92361 ,4.50457 ,44.19889 
38 ,8.1273 ,0.92561 ,4.48062 ,43.96384 
39 ,8.3516 ,0.92788 ,4.42929 ,43.46016 
40 ,8.5756 ,0.93002 ,4.42586 ,43.42659 
41 ,8.7836 ,0.93218 ,4.41902 ,43.35943 
42 ,9.0079 ,0.93435 ,4.36427 ,42.82218 
43 ,9.2159 ,0.93651 ,4.35400 ,42.72144 
44 ,9.4238 ,0.93861 ,4.35058 ,42.68786 
45 ,9.6321 ,0.94068 ,4.31636 ,42.35208 
46 ,9.8557 ,0.94282 ,4.31636 ,42.35208 
47 ,10.0801 ,0.94515 ,4.27529 ,41.94914 
48 ,10.3042 ,0.94729 ,4.25476 ,41.74767 
49 ,10.5124 ,0.94942 ,4.22738 ,41.47905 
50 ,10.7199 ,0.95152 ,4.23080 ,41.51262 
51 ,10.9441 ,0.95384 ,4.17605 ,40.97537 
52 ,11.1522 ,0.95582 ,4.15209 ,40.74032 
53 ,11.3602 ,0.95801 ,4.14183 ,40.63959 
54 ,11.5684 ,0.96012 ,4.13156 ,40.53885 
55 ,11.8084 ,0.96234 ,4.09049 ,40.13591 
56 ,12.0005 ,0.96449 ,4.06996 ,39.93444 
57 ,12.2408 ,0.96672 ,4.06312 ,39.86729 
58 ,12.4650 ,0.96895 ,4.02547 ,39.49793 
59 ,12.6888 ,0.97114 ,3.99467 ,39.19572 
60 ,12.8973 ,0.97333 ,3.98441 ,39.09499 
61 ,13.1211 ,0.97553 ,3.96729 ,38.92709 
62 ,13.3294 ,0.97767 ,3.92965 ,38.55773 
63 ,13.5534 ,0.97984 ,3.90227 ,38.28911 
64 ,13.7457 ,0.98182 ,3.90227 ,38.28911 
65 ,13.9698 ,0.98401 ,3.87832 ,38.05406 
66 ,14.1779 ,0.98615 ,3.85436 ,37.81901 
67 ,14.4020 ,0.98824 ,3.83725 ,37.65112 
68 ,14.6261 ,0.99054 ,3.80987 ,37.38249 
69 ,14.8340 ,0.99262 ,3.77908 ,37.08029 
70 ,15.0582 ,0.99487 ,3.75854 ,36.87882 
71 ,15.2664 ,0.99692 ,3.74143 ,36.71093 
72 ,15.4740 ,0.99904 ,3.71405 ,36.44230 
73 ,15.6825 ,1.00118 ,3.71405 ,36.44230 
74 ,15.8746 ,1.00321 ,3.67299 ,36.03936 
75 ,16.0825 ,1.00516 ,3.66957 ,36.00578 
76 ,16.2909 ,1.00719 ,3.64561 ,35.77073 
77 ,16.4825 ,1.00923 ,3.61139 ,35.43495 
78 ,16.6909 ,1.01125 ,3.59428 ,35.26706 
79 ,16.8992 ,1.01328 ,3.57717 ,35.09917 
80 ,17.1232 ,1.01548 ,3.56690 ,34.99843 
81 ,17.3151 ,1.01755 ,3.51899 ,34.52834 
82 ,17.4916 ,1.01936 ,3.52241 ,34.56192 
83 ,17.7314 ,1.02151 ,3.48477 ,34.19255 
84 ,17.9553 ,1.02382 ,3.46424 ,33.99108 
85 ,18.1630 ,1.02599 ,3.46081 ,33.95751 
86 ,18.3712 ,1.02801 ,3.41290 ,33.48741 
87 ,18.5954 ,1.03024 ,3.39921 ,33.35310 
88 ,18.8357 ,1.03268 ,3.36842 ,33.05089 
89 ,19.0600 ,1.03494 ,3.35815 ,32.95016 
90 ,19.2520 ,1.03696 ,3.34788 ,32.84942 
91 ,19.4602 ,1.03892 ,3.32393 ,32.61437 
92 ,19.6840 ,1.04113 ,3.29997 ,32.37933 
93 ,19.8760 ,1.04316 ,3.26233 ,32.00996 
94 ,20.0681 ,1.04499 ,3.26233 ,32.00996 
95 ,20.2923 ,1.04718 ,3.22126 ,31.60702 
96 ,20.5005 ,1.04937 ,3.21784 ,31.57345 
97 ,20.7567 ,1.05187 ,3.19388 ,31.33840 
98 ,20.9483 ,1.05391 ,3.18020 ,31.20409 
99 ,21.1408 ,1.05577 ,3.15282 ,30.93546 
100 ,21.3331 ,1.05765 ,3.12544 ,30.66683 
101 ,21.5410 ,1.05967 ,3.11860 ,30.59968 
102 ,21.7331 ,1.06180 ,3.09464 ,30.36463 
103 ,21.9412 ,1.06370 ,3.08780 ,30.29747 
104 ,22.1490 ,1.06584 ,3.05015 ,29.92811 
105 ,22.3574 ,1.06786 ,3.02962 ,29.72664 
106 ,22.5815 ,1.07011 ,3.01251 ,29.55875 
107 ,22.7895 ,1.07215 ,2.98855 ,29.32370 
108 ,22.9977 ,1.07428 ,2.97144 ,29.15581 
109 ,23.2054 ,1.07626 ,2.95776 ,29.02150 
110 ,23.4134 ,1.07845 ,2.92696 ,28.71929 
111 ,23.6220 ,1.08049 ,2.92353 ,28.68571 
112 ,23.8300 ,1.08259 ,2.89273 ,28.38351 
113 ,24.0541 ,1.08477 ,2.85509 ,28.01415 
114 ,24.2458 ,1.08678 ,2.86536 ,28.11488 
115 ,24.4223 ,1.08869 ,2.82771 ,27.74552 
116 ,24.6463 ,1.09078 ,2.83114 ,27.77910 
117 ,24.8224 ,1.09267 ,2.78665 ,27.34258 
118 ,25.0142 ,1.09444 ,2.77980 ,27.27542 
119 ,25.2066 ,1.09639 ,2.76954 ,27.17469 
120 ,25.3985 ,1.09831 ,2.73874 ,26.87248 
121 ,25.5910 ,1.10025 ,2.73189 ,26.80533 
122 ,25.7988 ,1.10220 ,2.70452 ,26.53670 
123 ,26.0070 ,1.10430 ,2.69083 ,26.40239 
124 ,26.2146 ,1.10643 ,2.66345 ,26.13376 
125 ,26.4386 ,1.10866 ,2.64292 ,25.93229 
126 ,26.6308 ,1.11067 ,2.63949 ,25.89871 
127 ,26.8388 ,1.11261 ,2.62238 ,25.73082 
128 ,27.0469 ,1.11467 ,2.60527 ,25.56293 
129 ,27.2553 ,1.11682 ,2.56078 ,25.12641 
130 ,27.4634 ,1.11895 ,2.55394 ,25.05926 
131 ,27.6876 ,1.12108 ,2.52314 ,24.75705 
132 ,27.9117 ,1.12337 ,2.52314 ,24.75705 
133 ,28.1198 ,1.12547 ,2.49918 ,24.52200 
134 ,28.3118 ,1.12754 ,2.49234 ,24.45485 
135 ,28.5199 ,1.12955 ,2.44785 ,24.01833 
136 ,28.7120 ,1.13143 ,2.44785 ,24.01833 
137 ,28.9038 ,1.13337 ,2.44101 ,23.95117 
138 ,29.1121 ,1.13542 ,2.40336 ,23.58181 
139 ,29.3042 ,1.13737 ,2.40679 ,23.61539 
140 ,29.5123 ,1.13952 ,2.38625 ,23.41392 
141 ,29.7201 ,1.14144 ,2.36230 ,23.17887 
142 ,29.9284 ,1.14355 ,2.35545 ,23.11171 
143 ,30.1524 ,1.14576 ,2.31097 ,22.67520 
144 ,30.3444 ,1.14774 ,2.31097 ,22.67520 
145 ,30.5527 ,1.14973 ,2.27674 ,22.33941 
146 ,30.7449 ,1.15175 ,2.28359 ,22.40657 
147 ,30.9528 ,1.15377 ,2.23910 ,21.97005 
148 ,31.1450 ,1.15573 ,2.23910 ,21.97005 
149 ,31.3531 ,1.15775 ,2.22199 ,21.80216 
150 ,31.5771 ,1.16000 ,2.19119 ,21.49996 
151 ,31.7853 ,1.16208 ,2.19461 ,21.53353 
152 ,31.9931 ,1.16414 ,2.16039 ,21.19775 
153 ,32.2175 ,1.16644 ,2.14328 ,21.02986 
154 ,32.4414 ,1.16867 ,2.12617 ,20.86197 
155 ,32.6335 ,1.17061 ,2.11932 ,20.79481 
156 ,32.8576 ,1.17279 ,2.08510 ,20.45903 
157 ,33.0654 ,1.17486 ,2.09195 ,20.52619 
158 ,33.2900 ,1.17706 ,2.07141 ,20.32472 
159 ,33.5138 ,1.17935 ,2.04404 ,20.05609 
160 ,33.7382 ,1.18158 ,2.01324 ,19.75388 
161 ,33.9462 ,1.18368 ,2.02693 ,19.88820 
162 ,34.1538 ,1.18587 ,2.00639 ,19.68673 
163 ,34.3622 ,1.18791 ,1.97217 ,19.35094 
164 ,34.5705 ,1.18995 ,1.97559 ,19.38452 
165 ,34.7784 ,1.19205 ,1.93453 ,18.98158 
166 ,34.9867 ,1.19407 ,1.94137 ,19.04874 
167 ,35.2108 ,1.19638 ,1.92426 ,18.88085 
168 ,35.4188 ,1.19856 ,1.88319 ,18.47791 
169 ,35.6268 ,1.20049 ,1.89004 ,18.54507 
170 ,35.8348 ,1.20254 ,1.85924 ,18.24286 
171 ,36.0591 ,1.20484 ,1.83871 ,18.04139 
172 ,36.2669 ,1.20691 ,1.84213 ,18.07497 
173 ,36.4748 ,1.20907 ,1.81817 ,17.83992 
174 ,36.6828 ,1.21107 ,1.79422 ,17.60487 
175 ,36.8911 ,1.21312 ,1.79422 ,17.60487 
176 ,37.0990 ,1.21525 ,1.75315 ,17.20193 
177 ,37.3072 ,1.21726 ,1.75657 ,17.23551 
178 ,37.5154 ,1.21933 ,1.71893 ,16.86615 
179 ,37.7395 ,1.22165 ,1.70866 ,16.76542 
180 ,37.9639 ,1.22384 ,1.70524 ,16.73184 
181 ,38.1719 ,1.22595 ,1.69840 ,16.66468 
182 ,38.3959 ,1.22815 ,1.66075 ,16.29532 
183 ,38.6037 ,1.23021 ,1.64364 ,16.12743 
184 ,38.8122 ,1.23235 ,1.64707 ,16.16101 
185 ,39.0364 ,1.23454 ,1.61284 ,15.82522 
186 ,39.2604 ,1.23682 ,1.59231 ,15.62375 
187 ,39.4682 ,1.23892 ,1.61284 ,15.82522 
188 ,39.6928 ,1.24109 ,1.56836 ,15.38871 
189 ,39.9005 ,1.24321 ,1.55124 ,15.22081 
190 ,40.1088 ,1.24536 ,1.54782 ,15.18724 
191 ,40.3328 ,1.24754 ,1.53756 ,15.08650 
192 ,40.5408 ,1.24961 ,1.50333 ,14.75072 
193 ,40.7649 ,1.25181 ,1.49649 ,14.68356 
194 ,40.9730 ,1.25396 ,1.47596 ,14.48209 
195 ,41.1811 ,1.25608 ,1.44858 ,14.21346 
196 ,41.3733 ,1.25799 ,1.44516 ,14.17989 
197 ,41.5814 ,1.26001 ,1.41778 ,13.91126 
198 ,41.8052 ,1.26224 ,1.42120 ,13.94484 
199 ,42.0130 ,1.26430 ,1.39040 ,13.64263 
200 ,42.2056 ,1.26627 ,1.38698 ,13.60906 
201 ,42.4296 ,1.26850 ,1.38356 ,13.57548 
202 ,42.6537 ,1.27073 ,1.35618 ,13.30685 
203 ,42.8617 ,1.27281 ,1.31512 ,12.90391 
204 ,43.1015 ,1.27501 ,1.31854 ,12.93749 
205 ,43.3101 ,1.27733 ,1.31512 ,12.90391 
206 ,43.5181 ,1.27937 ,1.27405 ,12.50097 
207 ,43.7258 ,1.28150 ,1.27747 ,12.53455 
208 ,43.9657 ,1.28387 ,1.25352 ,12.29950 
209 ,44.1899 ,1.28618 ,1.25694 ,12.33308 
210 ,44.3980 ,1.28822 ,1.21929 ,11.96372 
211 ,44.6065 ,1.29024 ,1.21929 ,11.96372 
212 ,44.8307 ,1.29247 ,1.20218 ,11.79583 
213 ,45.0387 ,1.29450 ,1.17138 ,11.49362 
214 ,45.2784 ,1.29686 ,1.15427 ,11.32573 
215 ,45.4872 ,1.29913 ,1.14401 ,11.22500 
216 ,45.6949 ,1.30115 ,1.13032 ,11.09068 
217 ,45.9031 ,1.30319 ,1.11663 ,10.95637 
218 ,46.1112 ,1.30530 ,1.10636 ,10.85563 
219 ,46.3192 ,1.30737 ,1.08241 ,10.62059 
220 ,46.5111 ,1.30932 ,1.09267 ,10.72132 
221 ,46.6875 ,1.31120 ,1.05503 ,10.35196 
222 ,46.8955 ,1.31311 ,1.03450 ,10.15049 
223 ,47.1034 ,1.31517 ,1.04134 ,10.21765 
224 ,47.3116 ,1.31730 ,1.02765 ,10.08333 
225 ,47.5353 ,1.31951 ,1.00712 ,9.88186 
226 ,47.7596 ,1.32170 ,0.98659 ,9.68039 
227 ,47.9679 ,1.32380 ,0.97632 ,9.57966 
228 ,48.1754 ,1.32606 ,0.96263 ,9.44535 
229 ,48.3998 ,1.32817 ,0.93525 ,9.17672 
230 ,48.5917 ,1.33014 ,0.94894 ,9.31103 
231 ,48.8001 ,1.33219 ,0.90446 ,8.87451 
232 ,49.0082 ,1.33429 ,0.92157 ,9.04241 
233 ,49.2165 ,1.33630 ,0.87708 ,8.60589 
234 ,49.4401 ,1.33859 ,0.85997 ,8.43800 
235 ,49.6325 ,1.34057 ,0.86339 ,8.47158 
236 ,49.8406 ,1.34255 ,0.83943 ,8.23653 
237 ,50.0488 ,1.34465 ,0.85654 ,8.40442 
238 ,50.2728 ,1.34685 ,0.81890 ,8.03506 
239 ,50.4809 ,1.34894 ,0.79495 ,7.80001 
240 ,50.7050 ,1.35117 ,0.78810 ,7.73285 
241 ,50.9127 ,1.35324 ,0.77441 ,7.59854 
242 ,51.1052 ,1.35524 ,0.77099 ,7.56496 
243 ,51.3132 ,1.35729 ,0.75388 ,7.39707 
244 ,51.5214 ,1.35940 ,0.72650 ,7.12844 
245 ,51.7293 ,1.36147 ,0.73677 ,7.22918 
246 ,51.9372 ,1.36344 ,0.69228 ,6.79266 
247 ,52.1455 ,1.36566 ,0.70939 ,6.96055 
248 ,52.3533 ,1.36776 ,0.69228 ,6.79266 
249 ,52.5618 ,1.36978 ,0.65806 ,6.45688 
250 ,52.7698 ,1.37185 ,0.66490 ,6.52403 
251 ,52.9780 ,1.37389 ,0.63068 ,6.18825 
252 ,53.2019 ,1.37617 ,0.62384 ,6.12109 
253 ,53.4261 ,1.37843 ,0.62042 ,6.08752 
254 ,53.6340 ,1.38048 ,0.59646 ,5.85247 
255 ,53.8421 ,1.38259 ,0.58619 ,5.75173 
256 ,54.0823 ,1.38484 ,0.58277 ,5.71815 
257 ,54.2905 ,1.38714 ,0.57251 ,5.61742 
258 ,54.4826 ,1.38902 ,0.54171 ,5.31522 
259 ,54.6906 ,1.39103 ,0.53828 ,5.28164 
260 ,54.8825 ,1.39302 ,0.51433 ,5.04659 
261 ,55.0909 ,1.39503 ,0.52117 ,5.11375 
262 ,55.2824 ,1.39708 ,0.48011 ,4.71081 
263 ,55.4910 ,1.39908 ,0.48353 ,4.74438 
264 ,55.6992 ,1.40112 ,0.44246 ,4.34144 
265 ,55.8912 ,1.40316 ,0.46300 ,4.54291 
266 ,56.0831 ,1.40505 ,0.42877 ,4.20713 
267 ,56.2752 ,1.40692 ,0.41509 ,4.07282 
268 ,56.4673 ,1.40890 ,0.42535 ,4.17355 
269 ,56.6594 ,1.41074 ,0.38771 ,3.80419 
270 ,56.8835 ,1.41293 ,0.40482 ,3.97208 
271 ,57.0756 ,1.41497 ,0.37744 ,3.70346 
272 ,57.2998 ,1.41708 ,0.35691 ,3.50199 
273 ,57.4916 ,1.41915 ,0.37060 ,3.63630 
274 ,57.6839 ,1.42113 ,0.33638 ,3.30052 
275 ,57.8920 ,1.42307 ,0.34322 ,3.36767 
276 ,58.0839 ,1.42501 ,0.31242 ,3.06547 
277 ,58.2923 ,1.42705 ,0.31584 ,3.09905 
278 ,58.4999 ,1.42922 ,0.29189 ,2.86400 
279 ,58.7080 ,1.43119 ,0.29873 ,2.93116 
280 ,58.9004 ,1.43317 ,0.26793 ,2.62895 
281 ,59.0924 ,1.43510 ,0.27135 ,2.66253 
282 ,59.3006 ,1.43711 ,0.24055 ,2.36032 
283 ,59.5088 ,1.43925 ,0.24740 ,2.42748 
284 ,59.7323 ,1.44144 ,0.22687 ,2.22601 
285 ,59.9410 ,1.44352 ,0.21318 ,2.09170 
286 ,60.1650 ,1.44578 ,0.21318 ,2.09170 
287 ,60.3731 ,1.44786 ,0.18238 ,1.78949 
288 ,60.5972 ,1.45005 ,0.17896 ,1.75592 
289 ,60.7888 ,1.45213 ,0.17896 ,1.75592 
290 ,60.9972 ,1.45413 ,0.14131 ,1.38655 
291 ,61.2215 ,1.45633 ,0.13447 ,1.31940 
292 ,61.4296 ,1.45849 ,0.14131 ,1.38655 
293 ,61.6375 ,1.46049 ,0.11051 ,1.08435 
294 ,61.8297 ,1.46250 ,0.12762 ,1.25224 
295 ,62.0375 ,1.46446 ,0.09682 ,0.95004 
296 ,62.2136 ,1.46640 ,0.09340 ,0.91646 
297 ,62.4220 ,1.46837 ,0.06945 ,0.68141 
298 ,62.6298 ,1.47043 ,0.06945 ,0.68141 
299 ,62.8221 ,1.47245 ,0.04549 ,0.44636 
300 ,63.0298 ,1.47442 ,0.05234 ,0.51352 
301 ,63.2703 ,1.47668 ,0.02154 ,0.21131 
302 ,63.4783 ,1.47889 ,0.01127 ,0.11058 
303 ,63.6864 ,1.48096 ,0.01811 ,0.17773 
304 ,63.9106 ,1.48319 ,-0.00926 ,-0.09089 
305 ,64.1345 ,1.48544 ,-0.02980 ,-0.29236 
306 ,64.3588 ,1.48763 ,-0.01611 ,-0.15805 
307 ,64.5824 ,1.48990 ,-0.03664 ,-0.35952 
308 ,64.7906 ,1.49201 ,-0.04691 ,-0.46025 
309 ,64.9984 ,1.49414 ,-0.06060 ,-0.59457 
310 ,65.2388 ,1.49650 ,-0.08113 ,-0.79604 
311 ,65.4789 ,1.49882 ,-0.06744 ,-0.66172 
312 ,65.7992 ,1.50169 ,-0.09824 ,-0.96393 
313 ,66.0232 ,1.50442 ,-0.10851 ,-1.06466 
314 ,66.2155 ,1.50627 ,-0.14615 ,-1.43402 
315 ,66.4392 ,1.50848 ,-0.14273 ,-1.40045 
316 ,66.6477 ,1.51054 ,-0.13931 ,-1.36687 
317 ,66.8557 ,1.51264 ,-0.16668 ,-1.63549 
318 ,67.0636 ,1.51469 ,-0.15642 ,-1.53476 
319 ,67.2558 ,1.51667 ,-0.19406 ,-1.90412 
320 ,67.4637 ,1.51870 ,-0.18722 ,-1.83696 
321 ,67.6882 ,1.52089 ,-0.21117 ,-2.07201 
322 ,67.9122 ,1.52322 ,-0.21802 ,-2.13917 
323 ,68.1041 ,1.52517 ,-0.22144 ,-2.17275 
324 ,68.3123 ,1.52720 ,-0.24539 ,-2.40779 
325 ,68.5043 ,1.52930 ,-0.25224 ,-2.47495 
326 ,68.7126 ,1.53125 ,-0.26250 ,-2.57569 
327 ,68.9207 ,1.53341 ,-0.27619 ,-2.71000 
328 ,69.1124 ,1.53526 ,-0.28646 ,-2.81073 
329 ,69.3047 ,1.53718 ,-0.28304 ,-2.77716 
330 ,69.4805 ,1.53906 ,-0.30699 ,-3.01220 
331 ,69.6729 ,1.54086 ,-0.31041 ,-3.04578 
332 ,69.8806 ,1.54294 ,-0.30699 ,-3.01220 
333 ,70.0891 ,1.54499 ,-0.32410 ,-3.18010 
334 ,70.2810 ,1.54702 ,-0.33779 ,-3.31441 
335 ,70.4891 ,1.54900 ,-0.34464 ,-3.38156 
336 ,70.6975 ,1.55113 ,-0.36175 ,-3.54946 
337 ,70.9213 ,1.55329 ,-0.36517 ,-3.58303 
338 ,71.1135 ,1.55526 ,-0.38912 ,-3.81808 
339 ,71.3216 ,1.55731 ,-0.38228 ,-3.75093 
340 ,71.5134 ,1.55924 ,-0.40623 ,-3.98597 
341 ,71.7218 ,1.56128 ,-0.39255 ,-3.85166 
342 ,71.9136 ,1.56326 ,-0.43361 ,-4.25460 
343 ,72.1378 ,1.56547 ,-0.43703 ,-4.28818 
344 ,72.3461 ,1.56759 ,-0.43019 ,-4.22102 
345 ,72.5701 ,1.56980 ,-0.45414 ,-4.45607 
346 ,72.7783 ,1.57187 ,-0.46099 ,-4.52323 
347 ,72.9861 ,1.57393 ,-0.47126 ,-4.62396 
348 ,73.1941 ,1.57598 ,-0.47468 ,-4.65754 
349 ,73.4020 ,1.57811 ,-0.49179 ,-4.82543 
350 ,73.6100 ,1.58015 ,-0.50890 ,-4.99332 
351 ,73.8181 ,1.58231 ,-0.50548 ,-4.95975 
352 ,74.0266 ,1.58433 ,-0.51232 ,-5.02690 
353 ,74.2506 ,1.58655 ,-0.54997 ,-5.39626 
354 ,74.4429 ,1.58858 ,-0.53628 ,-5.26195 
355 ,74.6350 ,1.59054 ,-0.57050 ,-5.59773 
356 ,74.8431 ,1.59255 ,-0.54997 ,-5.39626 
357 ,75.0512 ,1.59454 ,-0.57392 ,-5.63131 
358 ,75.2588 ,1.59675 ,-0.59788 ,-5.86636 
359 ,75.4672 ,1.59873 ,-0.58419 ,-5.73205 
360 ,75.6752 ,1.60080 ,-0.61499 ,-6.03425 
361 ,75.8834 ,1.60289 ,-0.59788 ,-5.86636 
362 ,76.1077 ,1.60513 ,-0.60814 ,-5.96709 
363 ,76.3316 ,1.60738 ,-0.63552 ,-6.23572 
364 ,76.5398 ,1.60948 ,-0.63210 ,-6.20214 
365 ,76.7637 ,1.61166 ,-0.64236 ,-6.30288 
366 ,77.0039 ,1.61405 ,-0.64921 ,-6.37003 
367 ,77.2118 ,1.61617 ,-0.68343 ,-6.70582 
368 ,77.4202 ,1.61830 ,-0.67316 ,-6.60508 
369 ,77.6281 ,1.62048 ,-0.68001 ,-6.67224 
370 ,77.8361 ,1.62242 ,-0.70739 ,-6.94086 
371 ,78.0443 ,1.62446 ,-0.70054 ,-6.87371 
372 ,78.2681 ,1.62673 ,-0.72450 ,-7.10876 
373 ,78.4765 ,1.62878 ,-0.74845 ,-7.34380 
374 ,78.6841 ,1.63102 ,-0.73476 ,-7.20949 
375 ,78.8921 ,1.63299 ,-0.76214 ,-7.47812 
376 ,79.1004 ,1.63506 ,-0.75872 ,-7.44454 
377 ,79.3406 ,1.63749 ,-0.76898 ,-7.54527 
378 ,79.5487 ,1.63953 ,-0.78267 ,-7.67959 
379 ,79.7725 ,1.64175 ,-0.80663 ,-7.91464 
380 ,79.9490 ,1.64372 ,-0.78610 ,-7.71317 
381 ,80.1573 ,1.64565 ,-0.82032 ,-8.04895 
382 ,80.3653 ,1.64769 ,-0.82032 ,-8.04895 
383 ,80.5893 ,1.64998 ,-0.83058 ,-8.14968 
384 ,80.7971 ,1.65199 ,-0.83401 ,-8.18326 
385 ,81.0054 ,1.65415 ,-0.84427 ,-8.28400 
386 ,81.2297 ,1.65638 ,-0.86481 ,-8.48547 
387 ,81.4537 ,1.65858 ,-0.89218 ,-8.75409 
388 ,81.6619 ,1.66070 ,-0.85454 ,-8.38473 
389 ,81.8698 ,1.66275 ,-0.89218 ,-8.75409 
390 ,82.0940 ,1.66502 ,-0.90245 ,-8.85483 
391 ,82.3021 ,1.66708 ,-0.89903 ,-8.82125 
392 ,82.5262 ,1.66927 ,-0.91272 ,-8.95556 
393 ,82.7502 ,1.67154 ,-0.93667 ,-9.19061 
394 ,82.9423 ,1.67349 ,-0.93325 ,-9.15703 
395 ,83.1502 ,1.67556 ,-0.94351 ,-9.25777 
396 ,83.3426 ,1.67750 ,-0.93667 ,-9.19061 
397 ,83.5666 ,1.67970 ,-0.96405 ,-9.45924 
398 ,83.7907 ,1.68196 ,-0.97774 ,-9.59355 
399 ,83.9988 ,1.68403 ,-0.97431 ,-9.55997 
400 ,84.2064 ,1.68606 ,-0.99485 ,-9.76144 
401 ,84.4149 ,1.68813 ,-1.00511 ,-9.86218 
402 ,84.6071 ,1.69011 ,-1.00854 ,-9.89576 
403 ,84.8152 ,1.69216 ,-1.01880 ,-9.99649 
404 ,85.0232 ,1.69426 ,-1.00854 ,-9.89576 
405 ,85.2471 ,1.69646 ,-1.02565 ,-10.06365 
406 ,85.4552 ,1.69865 ,-1.03934 ,-10.19796 
407 ,85.6793 ,1.70084 ,-1.04276 ,-10.23154 
408 ,85.8878 ,1.70296 ,-1.06671 ,-10.46659 
409 ,86.0957 ,1.70496 ,-1.07356 ,-10.53374 
410 ,86.2874 ,1.70706 ,-1.06329 ,-10.43301 
411 ,86.4793 ,1.70894 ,-1.09067 ,-10.70163 
412 ,86.6555 ,1.71075 ,-1.09409 ,-10.73521 
413 ,86.8637 ,1.71263 ,-1.09067 ,-10.70163 
414 ,87.0879 ,1.71484 ,-1.12489 ,-11.03742 
415 ,87.3122 ,1.71704 ,-1.13173 ,-11.10457 
416 ,87.5199 ,1.71923 ,-1.12147 ,-11.00384 
417 ,87.7284 ,1.72130 ,-1.14542 ,-11.23889 
418 ,87.9524 ,1.72353 ,-1.16938 ,-11.47394 
419 ,88.1605 ,1.72578 ,-1.15911 ,-11.37320 
420 ,88.3687 ,1.72771 ,-1.16938 ,-11.47394 
421 ,88.5766 ,1.72977 ,-1.17280 ,-11.50751 
422 ,88.7848 ,1.73190 ,-1.18991 ,-11.67541 
423 ,89.0090 ,1.73405 ,-1.20360 ,-11.80972 
424 ,89.2173 ,1.73621 ,-1.21387 ,-11.91045 
425 ,89.4250 ,1.73825 ,-1.21044 ,-11.87688 
426 ,89.6333 ,1.74034 ,-1.23440 ,-12.11192 
427 ,89.8413 ,1.74244 ,-1.22071 ,-11.97761 
428 ,90.0652 ,1.74462 ,-1.23782 ,-12.14550 
429 ,90.2575 ,1.74659 ,-1.24809 ,-12.24624 
430 ,90.4659 ,1.74862 ,-1.25151 ,-12.27981 
431 ,90.6737 ,1.75073 ,-1.27204 ,-12.48128 
432 ,90.8812 ,1.75296 ,-1.27204 ,-12.48128 
433 ,91.0898 ,1.75488 ,-1.28231 ,-12.58202 
434 ,91.2978 ,1.75697 ,-1.27204 ,-12.48128 
435 ,91.5057 ,1.75908 ,-1.27547 ,-12.51486 
436 ,91.7142 ,1.76118 ,-1.32338 ,-12.98496 
437 ,91.9379 ,1.76326 ,-1.30284 ,-12.78349 
438 ,92.1463 ,1.76549 ,-1.32338 ,-12.98496 
439 ,92.3703 ,1.76769 ,-1.33364 ,-13.08569 
440 ,92.5624 ,1.76965 ,-1.32680 ,-13.01854 
441 ,92.7706 ,1.77173 ,-1.35760 ,-13.32074 
442 ,92.9786 ,1.77376 ,-1.35075 ,-13.25359 
443 ,93.1869 ,1.77590 ,-1.36444 ,-13.38790 
444 ,93.4107 ,1.77807 ,-1.38155 ,-13.55579 
445 ,93.6030 ,1.78005 ,-1.36444 ,-13.38790 
446 ,93.8268 ,1.78224 ,-1.39182 ,-13.65653 
447 ,94.0511 ,1.78451 ,-1.40209 ,-13.75726 
448 ,94.2591 ,1.78657 ,-1.39182 ,-13.65653 
449 ,94.4669 ,1.78868 ,-1.41235 ,-13.85799 
450 ,94.6752 ,1.79071 ,-1.39524 ,-13.69010 
451 ,94.8994 ,1.79297 ,-1.40893 ,-13.82442 
452 ,95.1396 ,1.79526 ,-1.41577 ,-13.89157 
453 ,95.3472 ,1.79749 ,-1.42946 ,-14.02589 
454 ,95.5234 ,1.79937 ,-1.42262 ,-13.95873 
455 ,95.7316 ,1.80138 ,-1.45000 ,-14.22736 
456 ,95.9399 ,1.80338 ,-1.43631 ,-14.09304 
457 ,96.1638 ,1.80558 ,-1.45000 ,-14.22736 
458 ,96.3558 ,1.80757 ,-1.46368 ,-14.36167 
459 ,96.5801 ,1.80980 ,-1.47053 ,-14.42883 
460 ,96.8038 ,1.81199 ,-1.48080 ,-14.52956 
