Data stamp = , 16-05-2022 18:52:01 238

Calibration Values: 
Slope = , 26.54 , g/V 
Offset Voltage at no contact = , -0.501760 , V 

No , Time , Stage Position ,   Mass , Force 
   ,  (s) ,      (mm)      ,   (g)  , (mN)  

1 ,0.0000 ,0.84958 ,5.15136 ,50.54519 
2 ,0.3564 ,0.84990 ,5.13768 ,50.41087 
3 ,0.9169 ,0.85245 ,5.14110 ,50.44445 
4 ,1.1410 ,0.85557 ,5.13768 ,50.41087 
5 ,1.3486 ,0.85766 ,5.14452 ,50.47803 
6 ,1.5573 ,0.85984 ,5.12399 ,50.27656 
7 ,1.7652 ,0.86197 ,5.11030 ,50.14225 
8 ,1.9572 ,0.86394 ,5.09319 ,49.97436 
9 ,2.1809 ,0.86604 ,5.07950 ,49.84004 
10 ,2.3733 ,0.86800 ,5.06239 ,49.67215 
11 ,2.5816 ,0.87010 ,5.03159 ,49.36995 
12 ,2.8057 ,0.87229 ,5.02474 ,49.30279 
13 ,3.0138 ,0.87437 ,5.02132 ,49.26921 
14 ,3.2378 ,0.87662 ,4.96657 ,48.73196 
15 ,3.4297 ,0.87859 ,4.96315 ,48.69838 
16 ,3.6380 ,0.88068 ,4.92550 ,48.32902 
17 ,3.8299 ,0.88256 ,4.90839 ,48.16113 
18 ,4.0383 ,0.88461 ,4.89812 ,48.06039 
19 ,4.2464 ,0.88672 ,4.85021 ,47.59030 
20 ,4.4544 ,0.88876 ,4.86048 ,47.69103 
21 ,4.6780 ,0.89115 ,4.82284 ,47.32167 
22 ,4.8705 ,0.89304 ,4.80230 ,47.12020 
23 ,5.0946 ,0.89519 ,4.78519 ,46.95231 
24 ,5.3188 ,0.89743 ,4.75782 ,46.68368 
25 ,5.5265 ,0.89959 ,4.72702 ,46.38148 
26 ,5.7503 ,0.90178 ,4.72017 ,46.31432 
27 ,5.9584 ,0.90395 ,4.68595 ,45.97854 
28 ,6.1669 ,0.90596 ,4.65857 ,45.70991 
29 ,6.3911 ,0.90814 ,4.64146 ,45.54202 
30 ,6.5832 ,0.91008 ,4.62435 ,45.37413 
31 ,6.7909 ,0.91215 ,4.59697 ,45.10550 
32 ,6.9833 ,0.91411 ,4.57302 ,44.87045 
33 ,7.2236 ,0.91638 ,4.54564 ,44.60183 
34 ,7.4314 ,0.91854 ,4.52853 ,44.43394 
35 ,7.6238 ,0.92052 ,4.50800 ,44.23247 
36 ,7.8315 ,0.92252 ,4.48062 ,43.96384 
37 ,8.0393 ,0.92460 ,4.47378 ,43.89668 
38 ,8.2315 ,0.92663 ,4.43613 ,43.52732 
39 ,8.4398 ,0.92862 ,4.43613 ,43.52732 
40 ,8.6319 ,0.93062 ,4.38822 ,43.05723 
41 ,8.8241 ,0.93253 ,4.38822 ,43.05723 
42 ,9.0163 ,0.93442 ,4.38138 ,42.99007 
43 ,9.2243 ,0.93654 ,4.34031 ,42.58713 
44 ,9.4320 ,0.93858 ,4.30609 ,42.25135 
45 ,9.6244 ,0.94056 ,4.30267 ,42.21777 
46 ,9.8486 ,0.94273 ,4.26845 ,41.88198 
47 ,10.0407 ,0.94470 ,4.27871 ,41.98272 
48 ,10.2322 ,0.94658 ,4.24107 ,41.61336 
49 ,10.4250 ,0.94852 ,4.23422 ,41.54620 
50 ,10.6490 ,0.95073 ,4.19316 ,41.14326 
51 ,10.8570 ,0.95280 ,4.18289 ,41.04253 
52 ,11.0492 ,0.95473 ,4.15551 ,40.77390 
53 ,11.2412 ,0.95670 ,4.14867 ,40.70674 
54 ,11.4653 ,0.95891 ,4.11103 ,40.33738 
55 ,11.6734 ,0.96100 ,4.09734 ,40.20307 
56 ,11.8809 ,0.96307 ,4.07338 ,39.96802 
57 ,12.0734 ,0.96496 ,4.03916 ,39.63224 
58 ,12.2655 ,0.96690 ,4.04258 ,39.66582 
59 ,12.4572 ,0.96881 ,4.00152 ,39.26288 
60 ,12.6658 ,0.97085 ,4.00152 ,39.26288 
61 ,12.8739 ,0.97298 ,3.97414 ,38.99425 
62 ,13.0819 ,0.97500 ,3.96729 ,38.92709 
63 ,13.2901 ,0.97715 ,3.92623 ,38.52415 
64 ,13.4977 ,0.97917 ,3.92965 ,38.55773 
65 ,13.7063 ,0.98127 ,3.90227 ,38.28911 
66 ,13.9304 ,0.98352 ,3.84752 ,37.75185 
67 ,14.1384 ,0.98560 ,3.85094 ,37.78543 
68 ,14.3464 ,0.98768 ,3.83383 ,37.61754 
69 ,14.5386 ,0.98967 ,3.79961 ,37.28176 
70 ,14.7465 ,0.99166 ,3.78250 ,37.11387 
71 ,14.9867 ,0.99395 ,3.74828 ,36.77808 
72 ,15.1787 ,0.99611 ,3.71748 ,36.47588 
73 ,15.3708 ,0.99806 ,3.72432 ,36.54303 
74 ,15.5629 ,0.99991 ,3.70721 ,36.37514 
75 ,15.7706 ,1.00197 ,3.67983 ,36.10652 
76 ,15.9632 ,1.00389 ,3.65930 ,35.90505 
77 ,16.1870 ,1.00601 ,3.62508 ,35.56926 
78 ,16.3951 ,1.00821 ,3.60112 ,35.33422 
79 ,16.5870 ,1.01013 ,3.59770 ,35.30064 
80 ,16.7949 ,1.01214 ,3.56006 ,34.93128 
81 ,17.0034 ,1.01427 ,3.55663 ,34.89770 
82 ,17.1954 ,1.01621 ,3.52584 ,34.59549 
83 ,17.4036 ,1.01831 ,3.49504 ,34.29329 
84 ,17.5955 ,1.02019 ,3.48477 ,34.19255 
85 ,17.8359 ,1.02249 ,3.46424 ,33.99108 
86 ,18.0599 ,1.02481 ,3.45397 ,33.89035 
87 ,18.2677 ,1.02685 ,3.45055 ,33.85677 
88 ,18.4601 ,1.02886 ,3.39921 ,33.35310 
89 ,18.6520 ,1.03077 ,3.39237 ,33.28594 
90 ,18.8763 ,1.03288 ,3.36157 ,32.98374 
91 ,19.0840 ,1.03510 ,3.34104 ,32.78227 
92 ,19.2923 ,1.03712 ,3.34446 ,32.81584 
93 ,19.5166 ,1.03938 ,3.30339 ,32.41290 
94 ,19.7087 ,1.04132 ,3.30339 ,32.41290 
95 ,19.9169 ,1.04336 ,3.25891 ,31.97639 
96 ,20.1088 ,1.04532 ,3.24864 ,31.87565 
97 ,20.3169 ,1.04740 ,3.21784 ,31.57345 
98 ,20.5252 ,1.04948 ,3.20073 ,31.40555 
99 ,20.7172 ,1.05142 ,3.18020 ,31.20409 
100 ,20.9092 ,1.05335 ,3.16993 ,31.10335 
101 ,21.1009 ,1.05524 ,3.14597 ,30.86830 
102 ,21.3088 ,1.05728 ,3.13571 ,30.76757 
103 ,21.5013 ,1.05921 ,3.09806 ,30.39821 
104 ,21.7094 ,1.06128 ,3.09464 ,30.36463 
105 ,21.9334 ,1.06351 ,3.07069 ,30.12958 
106 ,22.1256 ,1.06543 ,3.04673 ,29.89453 
107 ,22.3177 ,1.06741 ,3.03304 ,29.76022 
108 ,22.5098 ,1.06932 ,3.02278 ,29.65948 
109 ,22.7178 ,1.07136 ,2.97829 ,29.22297 
110 ,22.9097 ,1.07332 ,2.97487 ,29.18939 
111 ,23.1179 ,1.07538 ,2.94407 ,28.88718 
112 ,23.3102 ,1.07729 ,2.94407 ,28.88718 
113 ,23.5178 ,1.07948 ,2.92011 ,28.65213 
114 ,23.7261 ,1.08145 ,2.89273 ,28.38351 
115 ,23.9344 ,1.08346 ,2.88589 ,28.31635 
116 ,24.1424 ,1.08565 ,2.84825 ,27.94699 
117 ,24.3505 ,1.08764 ,2.84482 ,27.91341 
118 ,24.5587 ,1.08980 ,2.81060 ,27.57763 
119 ,24.7666 ,1.09190 ,2.79691 ,27.44332 
120 ,24.9745 ,1.09397 ,2.78322 ,27.30900 
121 ,25.1826 ,1.09602 ,2.74900 ,26.97322 
122 ,25.3909 ,1.09808 ,2.74216 ,26.90606 
123 ,25.5988 ,1.10024 ,2.71820 ,26.67101 
124 ,25.8071 ,1.10223 ,2.68398 ,26.33523 
125 ,26.0151 ,1.10438 ,2.69767 ,26.46954 
126 ,26.2232 ,1.10642 ,2.66687 ,26.16734 
127 ,26.4154 ,1.10837 ,2.64976 ,25.99945 
128 ,26.6072 ,1.11029 ,2.60869 ,25.59651 
129 ,26.8151 ,1.11230 ,2.61896 ,25.69724 
130 ,27.0236 ,1.11448 ,2.59501 ,25.46220 
131 ,27.2477 ,1.11665 ,2.56078 ,25.12641 
132 ,27.4399 ,1.11860 ,2.56763 ,25.19357 
133 ,27.6479 ,1.12066 ,2.52314 ,24.75705 
134 ,27.8400 ,1.12262 ,2.52314 ,24.75705 
135 ,28.0480 ,1.12478 ,2.47523 ,24.28696 
136 ,28.2402 ,1.12662 ,2.48550 ,24.38769 
137 ,28.4478 ,1.12863 ,2.45470 ,24.08549 
138 ,28.6402 ,1.13060 ,2.45127 ,24.05191 
139 ,28.8323 ,1.13249 ,2.41705 ,23.71612 
140 ,29.0721 ,1.13474 ,2.43074 ,23.85044 
141 ,29.2805 ,1.13697 ,2.38968 ,23.44750 
142 ,29.4886 ,1.13920 ,2.38283 ,23.38034 
143 ,29.7123 ,1.14125 ,2.35888 ,23.14529 
144 ,29.9048 ,1.14322 ,2.33492 ,22.91024 
145 ,30.1128 ,1.14532 ,2.29728 ,22.54088 
146 ,30.3370 ,1.14743 ,2.30070 ,22.57446 
147 ,30.5451 ,1.14960 ,2.28017 ,22.37299 
148 ,30.7531 ,1.15173 ,2.23568 ,21.93647 
149 ,30.9611 ,1.15373 ,2.24252 ,22.00363 
150 ,31.1533 ,1.15571 ,2.20830 ,21.66785 
151 ,31.3612 ,1.15781 ,2.20488 ,21.63427 
152 ,31.5693 ,1.15991 ,2.16723 ,21.26491 
153 ,31.7612 ,1.16179 ,2.16381 ,21.23133 
154 ,31.9536 ,1.16370 ,2.13644 ,20.96270 
155 ,32.1617 ,1.16572 ,2.14328 ,21.02986 
156 ,32.3694 ,1.16791 ,2.10564 ,20.66050 
157 ,32.5777 ,1.16995 ,2.08852 ,20.49261 
158 ,32.7857 ,1.17204 ,2.07826 ,20.39187 
159 ,32.9939 ,1.17409 ,2.04061 ,20.02251 
160 ,33.2021 ,1.17613 ,2.05773 ,20.19040 
161 ,33.4102 ,1.17819 ,2.01324 ,19.75388 
162 ,33.6183 ,1.18037 ,1.99955 ,19.61957 
163 ,33.8265 ,1.18241 ,1.99270 ,19.55241 
164 ,34.0186 ,1.18441 ,1.96533 ,19.28379 
165 ,34.2267 ,1.18642 ,1.96875 ,19.31737 
166 ,34.4507 ,1.18861 ,1.93453 ,18.98158 
167 ,34.6746 ,1.19091 ,1.90373 ,18.67938 
168 ,34.8669 ,1.19288 ,1.92084 ,18.84727 
169 ,35.0748 ,1.19498 ,1.87293 ,18.37717 
170 ,35.2830 ,1.19700 ,1.87635 ,18.41075 
171 ,35.4907 ,1.19904 ,1.85582 ,18.20928 
172 ,35.6827 ,1.20103 ,1.84213 ,18.07497 
173 ,35.8912 ,1.20308 ,1.82844 ,17.94066 
174 ,36.0990 ,1.20519 ,1.81475 ,17.80634 
175 ,36.2911 ,1.20707 ,1.80791 ,17.73919 
176 ,36.4994 ,1.20914 ,1.77369 ,17.40340 
177 ,36.6916 ,1.21107 ,1.77711 ,17.43698 
178 ,36.8996 ,1.21308 ,1.72578 ,16.93331 
179 ,37.1077 ,1.21518 ,1.74631 ,17.13478 
180 ,37.2998 ,1.21719 ,1.70866 ,16.76542 
181 ,37.5235 ,1.21938 ,1.68813 ,16.56395 
182 ,37.7161 ,1.22134 ,1.68471 ,16.53037 
183 ,37.9236 ,1.22339 ,1.67444 ,16.42963 
184 ,38.1321 ,1.22543 ,1.66075 ,16.29532 
185 ,38.3402 ,1.22752 ,1.63338 ,16.02669 
186 ,38.5483 ,1.22961 ,1.62995 ,15.99311 
187 ,38.7403 ,1.23168 ,1.60600 ,15.75807 
188 ,38.9324 ,1.23360 ,1.59573 ,15.65733 
189 ,39.1563 ,1.23566 ,1.56493 ,15.35513 
190 ,39.3484 ,1.23764 ,1.57178 ,15.42228 
191 ,39.5727 ,1.23983 ,1.57178 ,15.42228 
192 ,39.7968 ,1.24210 ,1.53413 ,15.05292 
193 ,40.0210 ,1.24432 ,1.50333 ,14.75072 
194 ,40.2450 ,1.24662 ,1.48965 ,14.61640 
195 ,40.4531 ,1.24864 ,1.49307 ,14.64998 
196 ,40.6611 ,1.25070 ,1.44858 ,14.21346 
197 ,40.8530 ,1.25274 ,1.46569 ,14.38136 
198 ,41.0609 ,1.25477 ,1.42462 ,13.97842 
199 ,41.2529 ,1.25668 ,1.42805 ,14.01199 
200 ,41.4615 ,1.25869 ,1.39383 ,13.67621 
201 ,41.6694 ,1.26080 ,1.39040 ,13.64263 
202 ,41.8616 ,1.26286 ,1.38356 ,13.57548 
203 ,42.0697 ,1.26479 ,1.35960 ,13.34043 
204 ,42.2618 ,1.26679 ,1.33907 ,13.13896 
205 ,42.4859 ,1.26902 ,1.32880 ,13.03822 
206 ,42.6941 ,1.27109 ,1.31854 ,12.93749 
207 ,42.9021 ,1.27316 ,1.29116 ,12.66886 
208 ,43.1101 ,1.27524 ,1.28774 ,12.63528 
209 ,43.3342 ,1.27734 ,1.26720 ,12.43381 
210 ,43.5582 ,1.27970 ,1.24325 ,12.19877 
211 ,43.7664 ,1.28176 ,1.22614 ,12.03088 
212 ,43.9743 ,1.28380 ,1.24667 ,12.23235 
213 ,44.1664 ,1.28587 ,1.18850 ,11.66151 
214 ,44.3743 ,1.28791 ,1.20561 ,11.82941 
215 ,44.5663 ,1.28978 ,1.17823 ,11.56078 
216 ,44.7747 ,1.29179 ,1.18165 ,11.59436 
217 ,44.9990 ,1.29408 ,1.16112 ,11.39289 
218 ,45.1909 ,1.29613 ,1.12347 ,11.02353 
219 ,45.3832 ,1.29798 ,1.12347 ,11.02353 
220 ,45.5909 ,1.29999 ,1.12005 ,10.98995 
221 ,45.8152 ,1.30230 ,1.09610 ,10.75490 
222 ,46.0392 ,1.30450 ,1.07214 ,10.51985 
223 ,46.2474 ,1.30658 ,1.06530 ,10.45270 
224 ,46.4396 ,1.30852 ,1.05845 ,10.38554 
225 ,46.6476 ,1.31058 ,1.04134 ,10.21765 
226 ,46.8716 ,1.31276 ,1.02423 ,10.04976 
227 ,47.0635 ,1.31476 ,1.02423 ,10.04976 
228 ,47.2715 ,1.31684 ,0.98317 ,9.64682 
229 ,47.4638 ,1.31874 ,1.00028 ,9.81471 
230 ,47.6719 ,1.32075 ,0.95921 ,9.41177 
231 ,47.8638 ,1.32275 ,0.96263 ,9.44535 
232 ,48.0882 ,1.32489 ,0.94210 ,9.24388 
233 ,48.3121 ,1.32719 ,0.91472 ,8.97525 
234 ,48.5206 ,1.32928 ,0.91472 ,8.97525 
235 ,48.7285 ,1.33143 ,0.90446 ,8.87451 
236 ,48.9205 ,1.33336 ,0.89077 ,8.74020 
237 ,49.1286 ,1.33534 ,0.85997 ,8.43800 
238 ,49.3367 ,1.33747 ,0.85654 ,8.40442 
239 ,49.5286 ,1.33944 ,0.83943 ,8.23653 
240 ,49.7369 ,1.34143 ,0.82575 ,8.10221 
241 ,49.9290 ,1.34346 ,0.81548 ,8.00148 
242 ,50.1366 ,1.34544 ,0.79837 ,7.83359 
243 ,50.3612 ,1.34771 ,0.79152 ,7.76643 
244 ,50.5693 ,1.34983 ,0.76415 ,7.49780 
245 ,50.7613 ,1.35178 ,0.75388 ,7.39707 
246 ,50.9694 ,1.35378 ,0.73335 ,7.19560 
247 ,51.1771 ,1.35594 ,0.71624 ,7.02771 
248 ,51.3856 ,1.35792 ,0.73335 ,7.19560 
249 ,51.5935 ,1.36005 ,0.68544 ,6.72550 
250 ,51.7857 ,1.36198 ,0.70255 ,6.89340 
251 ,51.9937 ,1.36400 ,0.66490 ,6.52403 
252 ,52.2018 ,1.36612 ,0.68201 ,6.69193 
253 ,52.4099 ,1.36821 ,0.65121 ,6.38972 
254 ,52.6017 ,1.37012 ,0.65121 ,6.38972 
255 ,52.7941 ,1.37203 ,0.60673 ,5.95320 
256 ,53.0023 ,1.37413 ,0.61699 ,6.05394 
257 ,53.2101 ,1.37620 ,0.59646 ,5.85247 
258 ,53.4181 ,1.37828 ,0.58619 ,5.75173 
259 ,53.6263 ,1.38041 ,0.58277 ,5.71815 
260 ,53.8346 ,1.38243 ,0.55882 ,5.48311 
261 ,54.0428 ,1.38450 ,0.55882 ,5.48311 
262 ,54.2510 ,1.38660 ,0.54171 ,5.31522 
263 ,54.4750 ,1.38880 ,0.51091 ,5.01301 
264 ,54.6830 ,1.39087 ,0.52459 ,5.14732 
265 ,54.8909 ,1.39302 ,0.50406 ,4.94585 
266 ,55.1151 ,1.39522 ,0.48011 ,4.71081 
267 ,55.3072 ,1.39714 ,0.48353 ,4.74438 
268 ,55.4993 ,1.39908 ,0.45273 ,4.44218 
269 ,55.7231 ,1.40124 ,0.45957 ,4.50934 
270 ,55.9311 ,1.40341 ,0.44246 ,4.34144 
271 ,56.1237 ,1.40536 ,0.42535 ,4.17355 
272 ,56.3317 ,1.40742 ,0.40824 ,4.00566 
273 ,56.5398 ,1.40949 ,0.40140 ,3.93850 
274 ,56.7635 ,1.41156 ,0.40140 ,3.93850 
275 ,56.9718 ,1.41384 ,0.37060 ,3.63630 
276 ,57.1798 ,1.41591 ,0.35349 ,3.46841 
277 ,57.3720 ,1.41781 ,0.35006 ,3.43483 
278 ,57.5642 ,1.41967 ,0.31926 ,3.13263 
279 ,57.7719 ,1.42173 ,0.32611 ,3.19978 
280 ,57.9802 ,1.42384 ,0.30215 ,2.96473 
281 ,58.1884 ,1.42600 ,0.30900 ,3.03189 
282 ,58.3963 ,1.42803 ,0.27478 ,2.69611 
283 ,58.5882 ,1.43004 ,0.26451 ,2.59537 
284 ,58.7801 ,1.43195 ,0.27135 ,2.66253 
285 ,58.9884 ,1.43390 ,0.25082 ,2.46106 
286 ,59.1965 ,1.43600 ,0.24055 ,2.36032 
287 ,59.4049 ,1.43814 ,0.22687 ,2.22601 
288 ,59.6129 ,1.44020 ,0.23029 ,2.25959 
289 ,59.8212 ,1.44224 ,0.18922 ,1.85665 
290 ,60.0132 ,1.44419 ,0.19264 ,1.89023 
291 ,60.2211 ,1.44626 ,0.17553 ,1.72234 
292 ,60.4293 ,1.44834 ,0.17896 ,1.75592 
293 ,60.6217 ,1.45031 ,0.14816 ,1.45371 
294 ,60.8296 ,1.45238 ,0.14816 ,1.45371 
295 ,61.0215 ,1.45431 ,0.12420 ,1.21866 
296 ,61.2293 ,1.45635 ,0.12762 ,1.25224 
297 ,61.4379 ,1.45845 ,0.10709 ,1.05077 
298 ,61.6619 ,1.46057 ,0.10367 ,1.01719 
299 ,61.8859 ,1.46288 ,0.07629 ,0.74857 
300 ,62.0781 ,1.46483 ,0.06260 ,0.61425 
301 ,62.3018 ,1.46703 ,0.04549 ,0.44636 
302 ,62.5101 ,1.46911 ,0.04549 ,0.44636 
303 ,62.7344 ,1.47136 ,0.04891 ,0.47994 
304 ,62.9103 ,1.47330 ,0.00785 ,0.07700 
305 ,63.1188 ,1.47527 ,0.01127 ,0.11058 
306 ,63.3269 ,1.47732 ,-0.01611 ,-0.15805 
307 ,63.5506 ,1.47957 ,-0.01269 ,-0.12447 
308 ,63.7427 ,1.48150 ,-0.02980 ,-0.29236 
309 ,63.9346 ,1.48338 ,-0.03322 ,-0.32594 
310 ,64.1431 ,1.48551 ,-0.05375 ,-0.52741 
311 ,64.3510 ,1.48754 ,-0.06744 ,-0.66172 
312 ,64.5427 ,1.48945 ,-0.07771 ,-0.76246 
313 ,64.7512 ,1.49153 ,-0.08797 ,-0.86319 
314 ,64.9593 ,1.49370 ,-0.09482 ,-0.93035 
315 ,65.1673 ,1.49571 ,-0.11193 ,-1.09824 
316 ,65.3755 ,1.49777 ,-0.11535 ,-1.13182 
317 ,65.5833 ,1.49984 ,-0.14273 ,-1.40045 
318 ,65.7915 ,1.50197 ,-0.12562 ,-1.23255 
319 ,65.9994 ,1.50404 ,-0.13931 ,-1.36687 
320 ,66.2073 ,1.50611 ,-0.16668 ,-1.63549 
321 ,66.3993 ,1.50812 ,-0.15642 ,-1.53476 
322 ,66.6078 ,1.51013 ,-0.19406 ,-1.90412 
323 ,66.8640 ,1.51267 ,-0.19748 ,-1.93770 
324 ,67.0562 ,1.51460 ,-0.18037 ,-1.76981 
325 ,67.2642 ,1.51665 ,-0.21117 ,-2.07201 
326 ,67.4719 ,1.51869 ,-0.21459 ,-2.10559 
327 ,67.6642 ,1.52070 ,-0.21117 ,-2.07201 
328 ,67.8721 ,1.52271 ,-0.24197 ,-2.37422 
329 ,68.0805 ,1.52485 ,-0.23855 ,-2.34064 
330 ,68.3045 ,1.52704 ,-0.26935 ,-2.64284 
331 ,68.5127 ,1.52909 ,-0.27619 ,-2.71000 
332 ,68.7207 ,1.53121 ,-0.28304 ,-2.77716 
333 ,68.9129 ,1.53319 ,-0.30015 ,-2.94505 
334 ,69.1209 ,1.53524 ,-0.30699 ,-3.01220 
335 ,69.3293 ,1.53736 ,-0.33437 ,-3.28083 
336 ,69.5213 ,1.53930 ,-0.32068 ,-3.14652 
337 ,69.7452 ,1.54144 ,-0.33437 ,-3.28083 
338 ,69.9532 ,1.54349 ,-0.34806 ,-3.41514 
339 ,70.1449 ,1.54558 ,-0.34464 ,-3.38156 
340 ,70.3375 ,1.54739 ,-0.37201 ,-3.65019 
341 ,70.5455 ,1.54948 ,-0.37201 ,-3.65019 
342 ,70.7374 ,1.55139 ,-0.38570 ,-3.78450 
343 ,70.9614 ,1.55361 ,-0.39597 ,-3.88524 
344 ,71.1536 ,1.55555 ,-0.40966 ,-4.01955 
345 ,71.3776 ,1.55781 ,-0.43019 ,-4.22102 
346 ,71.5699 ,1.55982 ,-0.44388 ,-4.35534 
347 ,71.7618 ,1.56165 ,-0.43019 ,-4.22102 
348 ,71.9702 ,1.56368 ,-0.46441 ,-4.55681 
349 ,72.1779 ,1.56579 ,-0.46099 ,-4.52323 
350 ,72.3701 ,1.56773 ,-0.48837 ,-4.79185 
351 ,72.5625 ,1.56970 ,-0.47468 ,-4.65754 
352 ,72.7545 ,1.57154 ,-0.51232 ,-5.02690 
353 ,72.9786 ,1.57384 ,-0.51232 ,-5.02690 
354 ,73.1865 ,1.57589 ,-0.50548 ,-4.95975 
355 ,73.3943 ,1.57804 ,-0.53970 ,-5.29553 
356 ,73.6026 ,1.58003 ,-0.53628 ,-5.26195 
357 ,73.8272 ,1.58228 ,-0.55339 ,-5.42984 
358 ,74.0189 ,1.58425 ,-0.57050 ,-5.59773 
359 ,74.2112 ,1.58610 ,-0.57734 ,-5.66489 
360 ,74.4192 ,1.58817 ,-0.57392 ,-5.63131 
361 ,74.6432 ,1.59043 ,-0.58419 ,-5.73205 
362 ,74.8511 ,1.59247 ,-0.61841 ,-6.06783 
363 ,75.0595 ,1.59460 ,-0.60472 ,-5.93352 
364 ,75.2513 ,1.59653 ,-0.63552 ,-6.23572 
365 ,75.4756 ,1.59868 ,-0.65263 ,-6.40361 
366 ,75.6673 ,1.60064 ,-0.62868 ,-6.16856 
367 ,75.8759 ,1.60277 ,-0.66290 ,-6.50435 
368 ,76.0840 ,1.60487 ,-0.65605 ,-6.43719 
369 ,76.2918 ,1.60685 ,-0.68343 ,-6.70582 
370 ,76.5002 ,1.60903 ,-0.68343 ,-6.70582 
371 ,76.7078 ,1.61107 ,-0.69027 ,-6.77297 
372 ,76.9163 ,1.61312 ,-0.71081 ,-6.97444 
373 ,77.1243 ,1.61529 ,-0.70396 ,-6.90729 
374 ,77.3323 ,1.61729 ,-0.72450 ,-7.10876 
375 ,77.5403 ,1.61937 ,-0.73134 ,-7.17591 
376 ,77.7487 ,1.62150 ,-0.72450 ,-7.10876 
377 ,77.9566 ,1.62354 ,-0.76556 ,-7.51170 
378 ,78.1647 ,1.62567 ,-0.74845 ,-7.34380 
379 ,78.3570 ,1.62755 ,-0.78267 ,-7.67959 
380 ,78.5650 ,1.62964 ,-0.76214 ,-7.47812 
381 ,78.7730 ,1.63173 ,-0.78267 ,-7.67959 
382 ,78.9965 ,1.63391 ,-0.79636 ,-7.81390 
383 ,79.2052 ,1.63600 ,-0.78952 ,-7.74674 
384 ,79.4132 ,1.63806 ,-0.82374 ,-8.08253 
385 ,79.6373 ,1.64023 ,-0.81689 ,-8.01537 
386 ,79.8611 ,1.64258 ,-0.82716 ,-8.11611 
387 ,80.0691 ,1.64460 ,-0.81347 ,-7.98179 
388 ,80.2613 ,1.64666 ,-0.85454 ,-8.38473 
389 ,80.4697 ,1.64871 ,-0.84769 ,-8.31758 
390 ,80.6778 ,1.65071 ,-0.86481 ,-8.48547 
391 ,80.8696 ,1.65271 ,-0.85796 ,-8.41831 
392 ,81.0619 ,1.65470 ,-0.88876 ,-8.72051 
393 ,81.2700 ,1.65663 ,-0.87849 ,-8.61978 
394 ,81.4941 ,1.65889 ,-0.89903 ,-8.82125 
395 ,81.7019 ,1.66097 ,-0.91272 ,-8.95556 
396 ,81.8942 ,1.66291 ,-0.91956 ,-9.02272 
397 ,82.1183 ,1.66516 ,-0.94694 ,-9.29135 
398 ,82.3100 ,1.66707 ,-0.93325 ,-9.15703 
399 ,82.5186 ,1.66908 ,-0.95720 ,-9.39208 
400 ,82.7268 ,1.67129 ,-0.95720 ,-9.39208 
401 ,82.9347 ,1.67323 ,-0.96405 ,-9.45924 
402 ,83.1427 ,1.67537 ,-0.99485 ,-9.76144 
403 ,83.3345 ,1.67731 ,-0.98800 ,-9.69429 
404 ,83.5428 ,1.67938 ,-1.00511 ,-9.86218 
405 ,83.7510 ,1.68148 ,-1.00169 ,-9.82860 
406 ,83.9588 ,1.68362 ,-1.01538 ,-9.96291 
407 ,84.1990 ,1.68584 ,-1.04276 ,-10.23154 
408 ,84.4073 ,1.68804 ,-1.04276 ,-10.23154 
409 ,84.6313 ,1.69024 ,-1.03591 ,-10.16438 
410 ,84.8395 ,1.69238 ,-1.07014 ,-10.50016 
411 ,85.0316 ,1.69431 ,-1.05645 ,-10.36585 
412 ,85.2396 ,1.69638 ,-1.08382 ,-10.63448 
413 ,85.4478 ,1.69843 ,-1.08725 ,-10.66806 
414 ,85.6717 ,1.70063 ,-1.08382 ,-10.63448 
415 ,85.8959 ,1.70289 ,-1.09067 ,-10.70163 
416 ,86.0881 ,1.70489 ,-1.13173 ,-11.10457 
417 ,86.3120 ,1.70702 ,-1.10093 ,-10.80237 
418 ,86.5041 ,1.70898 ,-1.12147 ,-11.00384 
419 ,86.7119 ,1.71105 ,-1.12147 ,-11.00384 
420 ,86.9365 ,1.71318 ,-1.16596 ,-11.44036 
421 ,87.1605 ,1.71554 ,-1.15911 ,-11.37320 
422 ,87.3687 ,1.71764 ,-1.17622 ,-11.54109 
423 ,87.5765 ,1.71974 ,-1.16596 ,-11.44036 
424 ,87.7844 ,1.72183 ,-1.19676 ,-11.74256 
425 ,87.9925 ,1.72391 ,-1.18307 ,-11.60825 
426 ,88.2008 ,1.72599 ,-1.18991 ,-11.67541 
427 ,88.3929 ,1.72803 ,-1.22413 ,-12.01119 
428 ,88.6010 ,1.72991 ,-1.23098 ,-12.07834 
429 ,88.8092 ,1.73196 ,-1.22413 ,-12.01119 
430 ,89.0493 ,1.73432 ,-1.22755 ,-12.04477 
431 ,89.2571 ,1.73663 ,-1.25493 ,-12.31339 
432 ,89.4495 ,1.73846 ,-1.27547 ,-12.51486 
433 ,89.6735 ,1.74061 ,-1.24809 ,-12.24624 
434 ,89.8816 ,1.74274 ,-1.27204 ,-12.48128 
435 ,90.0895 ,1.74478 ,-1.28573 ,-12.61560 
436 ,90.2817 ,1.74679 ,-1.29942 ,-12.74991 
437 ,90.4895 ,1.74882 ,-1.33022 ,-13.05212 
438 ,90.6818 ,1.75079 ,-1.29600 ,-12.71633 
439 ,90.8901 ,1.75281 ,-1.32338 ,-12.98496 
440 ,91.0977 ,1.75488 ,-1.32338 ,-12.98496 
441 ,91.2902 ,1.75697 ,-1.35075 ,-13.25359 
442 ,91.4984 ,1.75896 ,-1.34733 ,-13.22001 
443 ,91.7065 ,1.76099 ,-1.35417 ,-13.28716 
444 ,91.9146 ,1.76310 ,-1.36102 ,-13.35432 
445 ,92.1387 ,1.76529 ,-1.35417 ,-13.28716 
446 ,92.3627 ,1.76755 ,-1.36786 ,-13.42148 
447 ,92.5708 ,1.76966 ,-1.39182 ,-13.65653 
448 ,92.7789 ,1.77169 ,-1.37813 ,-13.52221 
449 ,92.9865 ,1.77379 ,-1.40893 ,-13.82442 
450 ,93.1791 ,1.77576 ,-1.38840 ,-13.62295 
451 ,93.3865 ,1.77778 ,-1.41577 ,-13.89157 
452 ,93.5946 ,1.77987 ,-1.41577 ,-13.89157 
453 ,93.8191 ,1.78220 ,-1.42262 ,-13.95873 
454 ,94.0429 ,1.78431 ,-1.42262 ,-13.95873 
455 ,94.2672 ,1.78657 ,-1.46026 ,-14.32809 
456 ,94.4910 ,1.78890 ,-1.46711 ,-14.39525 
457 ,94.6834 ,1.79078 ,-1.45000 ,-14.22736 
458 ,94.8916 ,1.79284 ,-1.48764 ,-14.59672 
459 ,95.0837 ,1.79479 ,-1.46711 ,-14.39525 
460 ,95.2916 ,1.79680 ,-1.49448 ,-14.66387 
