Data stamp = , 17-05-2022 02:02:20 038

Calibration Values: 
Slope = , 26.54 , g/V 
Offset Voltage at no contact = , -0.501760 , V 

No , Time , Stage Position ,   Mass , Force 
   ,  (s) ,      (mm)      ,   (g)  , (mN)  

1 ,0.0000 ,0.84958 ,5.07265 ,49.77289 
2 ,0.3427 ,0.84986 ,5.06239 ,49.67215 
3 ,0.9029 ,0.85239 ,5.07608 ,49.80646 
4 ,1.0950 ,0.85526 ,5.05554 ,49.60499 
5 ,1.3030 ,0.85731 ,5.05554 ,49.60499 
6 ,1.4952 ,0.85930 ,5.05897 ,49.63857 
7 ,1.7034 ,0.86134 ,5.04870 ,49.53784 
8 ,1.8954 ,0.86337 ,5.01790 ,49.23563 
9 ,2.1035 ,0.86535 ,5.01790 ,49.23563 
10 ,2.3116 ,0.86742 ,4.97341 ,48.79911 
11 ,2.5035 ,0.86948 ,4.97683 ,48.83269 
12 ,2.6956 ,0.87140 ,4.93919 ,48.46333 
13 ,2.9039 ,0.87334 ,4.94946 ,48.56407 
14 ,3.1119 ,0.87548 ,4.90497 ,48.12755 
15 ,3.3520 ,0.87783 ,4.87417 ,47.82534 
16 ,3.5601 ,0.87994 ,4.86390 ,47.72461 
17 ,3.7841 ,0.88211 ,4.85364 ,47.62387 
18 ,3.9922 ,0.88433 ,4.80573 ,47.15378 
19 ,4.2004 ,0.88640 ,4.80230 ,47.12020 
20 ,4.4246 ,0.88851 ,4.78519 ,46.95231 
21 ,4.6325 ,0.89074 ,4.73728 ,46.48221 
22 ,4.8406 ,0.89272 ,4.73728 ,46.48221 
23 ,5.0487 ,0.89482 ,4.70306 ,46.14643 
24 ,5.2729 ,0.89695 ,4.67911 ,45.91138 
25 ,5.4650 ,0.89909 ,4.67568 ,45.87780 
26 ,5.6730 ,0.90105 ,4.62777 ,45.40771 
27 ,5.8652 ,0.90304 ,4.62435 ,45.37413 
28 ,6.0892 ,0.90519 ,4.58671 ,45.00477 
29 ,6.2812 ,0.90728 ,4.56960 ,44.83688 
30 ,6.5055 ,0.90937 ,4.55933 ,44.73614 
31 ,6.7134 ,0.91151 ,4.51142 ,44.26604 
32 ,6.9054 ,0.91348 ,4.51484 ,44.29962 
33 ,7.1135 ,0.91540 ,4.47720 ,43.93026 
34 ,7.3216 ,0.91753 ,4.46351 ,43.79595 
35 ,7.5137 ,0.91957 ,4.44640 ,43.62806 
36 ,7.7220 ,0.92163 ,4.41218 ,43.29227 
37 ,7.9139 ,0.92359 ,4.39849 ,43.15796 
38 ,8.1220 ,0.92553 ,4.38480 ,43.02365 
39 ,8.3461 ,0.92779 ,4.36084 ,42.78860 
40 ,8.5543 ,0.92988 ,4.32662 ,42.45282 
41 ,8.7784 ,0.93203 ,4.31293 ,42.31850 
42 ,9.0024 ,0.93437 ,4.28213 ,42.01630 
43 ,9.2264 ,0.93654 ,4.27871 ,41.98272 
44 ,9.4668 ,0.93902 ,4.25133 ,41.71409 
45 ,9.6911 ,0.94126 ,4.22738 ,41.47905 
46 ,9.9152 ,0.94349 ,4.18631 ,41.07611 
47 ,10.1394 ,0.94571 ,4.16236 ,40.84106 
48 ,10.3631 ,0.94795 ,4.16920 ,40.90821 
49 ,10.5714 ,0.95002 ,4.13156 ,40.53885 
50 ,10.7956 ,0.95224 ,4.09734 ,40.20307 
51 ,10.9875 ,0.95429 ,4.08707 ,40.10233 
52 ,11.1957 ,0.95619 ,4.06996 ,39.93444 
53 ,11.3874 ,0.95815 ,4.06996 ,39.93444 
54 ,11.5794 ,0.96011 ,4.03232 ,39.56508 
55 ,11.7717 ,0.96207 ,4.02205 ,39.46435 
56 ,11.9797 ,0.96413 ,3.99467 ,39.19572 
57 ,12.1878 ,0.96617 ,3.98098 ,39.06141 
58 ,12.4118 ,0.96841 ,3.93992 ,38.65847 
59 ,12.6038 ,0.97043 ,3.92623 ,38.52415 
60 ,12.8123 ,0.97241 ,3.90912 ,38.35626 
61 ,13.0201 ,0.97455 ,3.89201 ,38.18837 
62 ,13.2122 ,0.97640 ,3.87832 ,38.05406 
63 ,13.4202 ,0.97846 ,3.85094 ,37.78543 
64 ,13.6446 ,0.98077 ,3.83725 ,37.65112 
65 ,13.8688 ,0.98303 ,3.80645 ,37.34891 
66 ,14.1250 ,0.98556 ,3.76881 ,36.97955 
67 ,14.3168 ,0.98761 ,3.76539 ,36.94597 
68 ,14.5252 ,0.98952 ,3.73117 ,36.61019 
69 ,14.7492 ,0.99174 ,3.72090 ,36.50946 
70 ,14.9734 ,0.99392 ,3.67641 ,36.07294 
71 ,15.1654 ,0.99608 ,3.65246 ,35.83789 
72 ,15.3573 ,0.99787 ,3.63877 ,35.70358 
73 ,15.5655 ,0.99994 ,3.63534 ,35.67000 
74 ,15.7577 ,1.00187 ,3.60454 ,35.36779 
75 ,15.9652 ,1.00404 ,3.58059 ,35.13275 
76 ,16.1578 ,1.00586 ,3.55663 ,34.89770 
77 ,16.3660 ,1.00790 ,3.55663 ,34.89770 
78 ,16.5742 ,1.01004 ,3.53268 ,34.66265 
79 ,16.7979 ,1.01221 ,3.48135 ,34.15898 
80 ,16.9900 ,1.01417 ,3.49504 ,34.29329 
81 ,17.2139 ,1.01644 ,3.45397 ,33.89035 
82 ,17.4224 ,1.01847 ,3.43344 ,33.68888 
83 ,17.6303 ,1.02054 ,3.44028 ,33.75604 
84 ,17.8541 ,1.02283 ,3.41975 ,33.55457 
85 ,18.0942 ,1.02514 ,3.38553 ,33.21878 
86 ,18.3341 ,1.02761 ,3.35130 ,32.88300 
87 ,18.5584 ,1.02984 ,3.32735 ,32.64795 
88 ,18.7824 ,1.03207 ,3.29997 ,32.37933 
89 ,18.9748 ,1.03412 ,3.29997 ,32.37933 
90 ,19.1667 ,1.03597 ,3.27259 ,32.11070 
91 ,19.3749 ,1.03797 ,3.24864 ,31.87565 
92 ,19.5669 ,1.04004 ,3.21442 ,31.53987 
93 ,19.7750 ,1.04201 ,3.21442 ,31.53987 
94 ,19.9830 ,1.04408 ,3.17335 ,31.13693 
95 ,20.1911 ,1.04615 ,3.17677 ,31.17051 
96 ,20.3831 ,1.04819 ,3.14255 ,30.83472 
97 ,20.6233 ,1.05037 ,3.13913 ,30.80115 
98 ,20.8314 ,1.05253 ,3.11518 ,30.56610 
99 ,21.0394 ,1.05461 ,3.07411 ,30.16316 
100 ,21.2475 ,1.05671 ,3.06726 ,30.09600 
101 ,21.4556 ,1.05878 ,3.06042 ,30.02884 
102 ,21.6635 ,1.06091 ,3.01593 ,29.59233 
103 ,21.8718 ,1.06297 ,3.00224 ,29.45801 
104 ,22.0799 ,1.06505 ,2.98171 ,29.25654 
105 ,22.2878 ,1.06706 ,2.98171 ,29.25654 
106 ,22.4802 ,1.06909 ,2.94064 ,28.85360 
107 ,22.6880 ,1.07116 ,2.94064 ,28.85360 
108 ,22.8961 ,1.07315 ,2.90985 ,28.55140 
109 ,23.1043 ,1.07525 ,2.89273 ,28.38351 
110 ,23.3123 ,1.07731 ,2.88589 ,28.31635 
111 ,23.5043 ,1.07938 ,2.85167 ,27.98057 
112 ,23.7124 ,1.08133 ,2.84140 ,27.87983 
113 ,23.9206 ,1.08345 ,2.80718 ,27.54405 
114 ,24.1126 ,1.08547 ,2.80376 ,27.51047 
115 ,24.3208 ,1.08744 ,2.76611 ,27.14111 
116 ,24.5128 ,1.08949 ,2.76954 ,27.17469 
117 ,24.7048 ,1.09139 ,2.74216 ,26.90606 
118 ,24.9129 ,1.09336 ,2.73874 ,26.87248 
119 ,25.1051 ,1.09532 ,2.70452 ,26.53670 
120 ,25.3130 ,1.09736 ,2.70452 ,26.53670 
121 ,25.5531 ,1.09980 ,2.68056 ,26.30165 
122 ,25.7453 ,1.10171 ,2.64634 ,25.96587 
123 ,25.9213 ,1.10359 ,2.66003 ,26.10018 
124 ,26.1134 ,1.10551 ,2.62581 ,25.76440 
125 ,26.3055 ,1.10739 ,2.59501 ,25.46220 
126 ,26.5136 ,1.10936 ,2.60869 ,25.59651 
127 ,26.7217 ,1.11140 ,2.56421 ,25.15999 
128 ,26.9298 ,1.11349 ,2.56421 ,25.15999 
129 ,27.1378 ,1.11560 ,2.55052 ,25.02568 
130 ,27.3460 ,1.11767 ,2.52998 ,24.82421 
131 ,27.5540 ,1.11974 ,2.51287 ,24.65632 
132 ,27.7621 ,1.12182 ,2.49234 ,24.45485 
133 ,27.9702 ,1.12392 ,2.49234 ,24.45485 
134 ,28.1783 ,1.12595 ,2.46839 ,24.21980 
135 ,28.3864 ,1.12806 ,2.44101 ,23.95117 
136 ,28.5785 ,1.13010 ,2.43759 ,23.91759 
137 ,28.7865 ,1.13207 ,2.41021 ,23.64897 
138 ,28.9946 ,1.13417 ,2.41363 ,23.68255 
139 ,29.2027 ,1.13624 ,2.37256 ,23.27961 
140 ,29.4108 ,1.13837 ,2.37599 ,23.31318 
141 ,29.6028 ,1.14039 ,2.34519 ,23.01098 
142 ,29.8109 ,1.14234 ,2.34177 ,22.97740 
143 ,30.0029 ,1.14433 ,2.30412 ,22.60804 
144 ,30.2110 ,1.14632 ,2.31097 ,22.67520 
145 ,30.4031 ,1.14835 ,2.27332 ,22.30584 
146 ,30.6113 ,1.15029 ,2.27332 ,22.30584 
147 ,30.8193 ,1.15240 ,2.25279 ,22.10437 
148 ,31.0274 ,1.15444 ,2.22199 ,21.80216 
149 ,31.2355 ,1.15651 ,2.23226 ,21.90290 
150 ,31.4436 ,1.15868 ,2.19461 ,21.53353 
151 ,31.6678 ,1.16090 ,2.16723 ,21.26491 
152 ,31.8766 ,1.16298 ,2.17408 ,21.33206 
153 ,32.0841 ,1.16507 ,2.13986 ,20.99628 
154 ,32.2761 ,1.16695 ,2.15355 ,21.13059 
155 ,32.4682 ,1.16896 ,2.11248 ,20.72766 
156 ,32.6763 ,1.17091 ,2.11248 ,20.72766 
157 ,32.8844 ,1.17306 ,2.07484 ,20.35829 
158 ,33.0924 ,1.17514 ,2.08168 ,20.42545 
159 ,33.3006 ,1.17717 ,2.05773 ,20.19040 
160 ,33.5088 ,1.17940 ,2.04061 ,20.02251 
161 ,33.7006 ,1.18129 ,2.02008 ,19.82104 
162 ,33.9087 ,1.18336 ,2.00297 ,19.65315 
163 ,34.1008 ,1.18530 ,1.98586 ,19.48526 
164 ,34.2928 ,1.18727 ,1.98928 ,19.51884 
165 ,34.5010 ,1.18919 ,1.96190 ,19.25021 
166 ,34.7093 ,1.19132 ,1.95164 ,19.14948 
167 ,34.9492 ,1.19368 ,1.93453 ,18.98158 
168 ,35.1734 ,1.19587 ,1.92768 ,18.91443 
169 ,35.3817 ,1.19810 ,1.90715 ,18.71296 
170 ,35.6059 ,1.20028 ,1.86266 ,18.27644 
171 ,35.8139 ,1.20248 ,1.85240 ,18.17570 
172 ,36.0218 ,1.20442 ,1.84213 ,18.07497 
173 ,36.2301 ,1.20654 ,1.82502 ,17.90708 
174 ,36.4539 ,1.20874 ,1.82502 ,17.90708 
175 ,36.6621 ,1.21088 ,1.79764 ,17.63845 
176 ,36.8863 ,1.21309 ,1.76342 ,17.30267 
177 ,37.0943 ,1.21527 ,1.77026 ,17.36983 
178 ,37.2864 ,1.21707 ,1.74289 ,17.10120 
179 ,37.4782 ,1.21900 ,1.74973 ,17.16836 
180 ,37.6704 ,1.22094 ,1.71551 ,16.83257 
181 ,37.8785 ,1.22295 ,1.69840 ,16.66468 
182 ,38.0864 ,1.22508 ,1.67444 ,16.42963 
183 ,38.3105 ,1.22733 ,1.67444 ,16.42963 
184 ,38.5185 ,1.22940 ,1.66760 ,16.36248 
185 ,38.7267 ,1.23145 ,1.63680 ,16.06027 
186 ,38.9351 ,1.23352 ,1.63680 ,16.06027 
187 ,39.1590 ,1.23579 ,1.61627 ,15.85880 
188 ,39.3671 ,1.23799 ,1.59573 ,15.65733 
189 ,39.5910 ,1.24013 ,1.57178 ,15.42228 
190 ,39.7991 ,1.24222 ,1.57178 ,15.42228 
191 ,39.9911 ,1.24424 ,1.53756 ,15.08650 
192 ,40.1831 ,1.24611 ,1.53413 ,15.05292 
193 ,40.3912 ,1.24806 ,1.51702 ,14.88503 
194 ,40.6154 ,1.25029 ,1.52045 ,14.91861 
195 ,40.8234 ,1.25245 ,1.47938 ,14.51567 
196 ,41.0317 ,1.25453 ,1.46227 ,14.34778 
197 ,41.2398 ,1.25659 ,1.45885 ,14.31420 
198 ,41.4477 ,1.25870 ,1.43489 ,14.07915 
199 ,41.6720 ,1.26087 ,1.41436 ,13.87768 
200 ,41.8800 ,1.26315 ,1.41094 ,13.84410 
201 ,42.1043 ,1.26517 ,1.37671 ,13.50832 
202 ,42.2963 ,1.26724 ,1.37329 ,13.47474 
203 ,42.5042 ,1.26917 ,1.36645 ,13.40759 
204 ,42.6962 ,1.27112 ,1.35618 ,13.30685 
205 ,42.8883 ,1.27310 ,1.32196 ,12.97107 
206 ,43.0964 ,1.27510 ,1.33565 ,13.10538 
207 ,43.3044 ,1.27723 ,1.30827 ,12.83675 
208 ,43.5127 ,1.27930 ,1.29116 ,12.66886 
209 ,43.7366 ,1.28159 ,1.28774 ,12.63528 
210 ,43.9608 ,1.28371 ,1.26036 ,12.36666 
211 ,44.1849 ,1.28600 ,1.24325 ,12.19877 
212 ,44.3930 ,1.28816 ,1.22272 ,11.99730 
213 ,44.6011 ,1.29020 ,1.22272 ,11.99730 
214 ,44.8251 ,1.29237 ,1.19534 ,11.72867 
215 ,45.0493 ,1.29467 ,1.17481 ,11.52720 
216 ,45.2737 ,1.29690 ,1.16796 ,11.46004 
217 ,45.4973 ,1.29916 ,1.15427 ,11.32573 
218 ,45.7056 ,1.30120 ,1.12347 ,11.02353 
219 ,45.9295 ,1.30342 ,1.10979 ,10.88921 
220 ,46.1536 ,1.30572 ,1.09952 ,10.78848 
221 ,46.3618 ,1.30782 ,1.10294 ,10.82206 
222 ,46.5862 ,1.31004 ,1.07556 ,10.55343 
223 ,46.8103 ,1.31227 ,1.04819 ,10.28480 
224 ,47.0340 ,1.31453 ,1.04476 ,10.25123 
225 ,47.2583 ,1.31679 ,1.04476 ,10.25123 
226 ,47.5300 ,1.31950 ,0.99685 ,9.78113 
227 ,47.7384 ,1.32155 ,1.00370 ,9.84829 
228 ,47.9626 ,1.32375 ,0.98659 ,9.68039 
229 ,48.1864 ,1.32597 ,0.94894 ,9.31103 
230 ,48.3950 ,1.32818 ,0.94552 ,9.27745 
231 ,48.6189 ,1.33036 ,0.95237 ,9.34461 
232 ,48.8429 ,1.33259 ,0.93183 ,9.14314 
233 ,49.0830 ,1.33492 ,0.91130 ,8.94167 
234 ,49.2911 ,1.33715 ,0.87708 ,8.60589 
235 ,49.5313 ,1.33946 ,0.86681 ,8.50515 
236 ,49.7713 ,1.34191 ,0.83943 ,8.23653 
237 ,49.9954 ,1.34417 ,0.85312 ,8.37084 
238 ,50.2194 ,1.34639 ,0.83943 ,8.23653 
239 ,50.4434 ,1.34862 ,0.82232 ,8.06864 
240 ,50.6678 ,1.35086 ,0.80179 ,7.86717 
241 ,50.9237 ,1.35333 ,0.78810 ,7.73285 
242 ,51.1318 ,1.35547 ,0.75730 ,7.43065 
243 ,51.3242 ,1.35751 ,0.77784 ,7.63212 
244 ,51.5478 ,1.35962 ,0.72992 ,7.16202 
245 ,51.7722 ,1.36177 ,0.72650 ,7.12844 
246 ,52.0125 ,1.36416 ,0.70255 ,6.89340 
247 ,52.2523 ,1.36658 ,0.70255 ,6.89340 
248 ,52.4604 ,1.36878 ,0.69913 ,6.85982 
249 ,52.6843 ,1.37099 ,0.67859 ,6.65835 
250 ,52.8926 ,1.37311 ,0.63753 ,6.25541 
251 ,53.1329 ,1.37545 ,0.63068 ,6.18825 
252 ,53.3727 ,1.37775 ,0.64095 ,6.28899 
253 ,53.5807 ,1.37997 ,0.62726 ,6.15467 
254 ,53.7888 ,1.38207 ,0.58962 ,5.78531 
255 ,54.0131 ,1.38431 ,0.58619 ,5.75173 
256 ,54.2531 ,1.38666 ,0.56908 ,5.58384 
257 ,54.4933 ,1.38905 ,0.54855 ,5.38237 
258 ,54.7173 ,1.39131 ,0.54513 ,5.34879 
259 ,54.9413 ,1.39350 ,0.53486 ,5.24806 
260 ,55.1494 ,1.39561 ,0.50406 ,4.94585 
261 ,55.3416 ,1.39771 ,0.50064 ,4.91228 
262 ,55.5174 ,1.39943 ,0.48011 ,4.71081 
263 ,55.7096 ,1.40127 ,0.46984 ,4.61007 
264 ,55.9176 ,1.40325 ,0.48011 ,4.71081 
265 ,56.1258 ,1.40536 ,0.46300 ,4.54291 
266 ,56.3340 ,1.40745 ,0.42877 ,4.20713 
267 ,56.5579 ,1.40965 ,0.43220 ,4.24071 
268 ,56.7662 ,1.41183 ,0.42535 ,4.17355 
269 ,56.9744 ,1.41389 ,0.39113 ,3.83777 
270 ,57.1822 ,1.41594 ,0.39455 ,3.87135 
271 ,57.3745 ,1.41790 ,0.36718 ,3.60272 
272 ,57.5826 ,1.41989 ,0.38086 ,3.73703 
273 ,57.7745 ,1.42188 ,0.33980 ,3.33410 
274 ,57.9664 ,1.42381 ,0.35691 ,3.50199 
275 ,58.1587 ,1.42577 ,0.33980 ,3.33410 
276 ,58.3829 ,1.42801 ,0.33638 ,3.30052 
277 ,58.6067 ,1.43015 ,0.30900 ,3.03189 
278 ,58.8151 ,1.43230 ,0.29189 ,2.86400 
279 ,59.0712 ,1.43470 ,0.28504 ,2.79684 
280 ,59.2952 ,1.43711 ,0.26109 ,2.56179 
281 ,59.5513 ,1.43953 ,0.25082 ,2.46106 
282 ,59.7753 ,1.44186 ,0.23029 ,2.25959 
283 ,59.9835 ,1.44400 ,0.23029 ,2.25959 
284 ,60.2075 ,1.44614 ,0.21318 ,2.09170 
285 ,60.4157 ,1.44833 ,0.18580 ,1.82307 
286 ,60.6398 ,1.45050 ,0.19949 ,1.95738 
287 ,60.8639 ,1.45289 ,0.18580 ,1.82307 
288 ,61.0559 ,1.45470 ,0.15500 ,1.52087 
289 ,61.2478 ,1.45656 ,0.15500 ,1.52087 
290 ,61.4563 ,1.45859 ,0.14816 ,1.45371 
291 ,61.6641 ,1.46076 ,0.14816 ,1.45371 
292 ,61.8560 ,1.46277 ,0.10367 ,1.01719 
293 ,62.0321 ,1.46457 ,0.12078 ,1.18508 
294 ,62.2245 ,1.46640 ,0.11736 ,1.15151 
295 ,62.4645 ,1.46868 ,0.07971 ,0.78214 
296 ,62.6564 ,1.47078 ,0.06602 ,0.64783 
297 ,62.8646 ,1.47285 ,0.07971 ,0.78214 
298 ,63.0727 ,1.47484 ,0.04207 ,0.41278 
299 ,63.2808 ,1.47690 ,0.04549 ,0.44636 
300 ,63.4888 ,1.47894 ,0.03865 ,0.37920 
301 ,63.6969 ,1.48105 ,0.01127 ,0.11058 
302 ,63.9051 ,1.48311 ,0.02496 ,0.24489 
303 ,64.1131 ,1.48525 ,-0.00926 ,-0.09089 
304 ,64.3212 ,1.48730 ,-0.00926 ,-0.09089 
305 ,64.5132 ,1.48933 ,-0.00926 ,-0.09089 
306 ,64.7217 ,1.49127 ,-0.02295 ,-0.22520 
307 ,64.9296 ,1.49341 ,-0.04348 ,-0.42667 
308 ,65.1055 ,1.49529 ,-0.05033 ,-0.49383 
309 ,65.2979 ,1.49708 ,-0.07771 ,-0.76246 
310 ,65.4898 ,1.49905 ,-0.06402 ,-0.62814 
311 ,65.7138 ,1.50118 ,-0.09824 ,-0.96393 
312 ,65.9058 ,1.50325 ,-0.08113 ,-0.79604 
313 ,66.1138 ,1.50522 ,-0.12562 ,-1.23255 
314 ,66.3060 ,1.50724 ,-0.11193 ,-1.09824 
315 ,66.5140 ,1.50920 ,-0.12562 ,-1.23255 
316 ,66.7222 ,1.51128 ,-0.13246 ,-1.29971 
317 ,66.9143 ,1.51329 ,-0.14615 ,-1.43402 
318 ,67.1063 ,1.51522 ,-0.15984 ,-1.56834 
319 ,67.3305 ,1.51739 ,-0.17011 ,-1.66907 
320 ,67.5386 ,1.51944 ,-0.18037 ,-1.76981 
321 ,67.7467 ,1.52148 ,-0.17695 ,-1.73623 
322 ,67.9548 ,1.52361 ,-0.20090 ,-1.97128 
323 ,68.1794 ,1.52573 ,-0.20090 ,-1.97128 
324 ,68.3875 ,1.52791 ,-0.20775 ,-2.03843 
325 ,68.5955 ,1.53005 ,-0.24881 ,-2.44137 
326 ,68.8036 ,1.53208 ,-0.24197 ,-2.37422 
327 ,69.0116 ,1.53419 ,-0.25224 ,-2.47495 
328 ,69.2197 ,1.53632 ,-0.27619 ,-2.71000 
329 ,69.4275 ,1.53838 ,-0.26935 ,-2.64284 
330 ,69.6199 ,1.54030 ,-0.29330 ,-2.87789 
331 ,69.8440 ,1.54246 ,-0.28304 ,-2.77716 
332 ,70.0519 ,1.54457 ,-0.31041 ,-3.04578 
333 ,70.2601 ,1.54671 ,-0.32068 ,-3.14652 
334 ,70.4838 ,1.54883 ,-0.32068 ,-3.14652 
335 ,70.6921 ,1.55096 ,-0.33779 ,-3.31441 
336 ,70.9005 ,1.55311 ,-0.37201 ,-3.65019 
337 ,71.1086 ,1.55521 ,-0.33779 ,-3.31441 
338 ,71.3006 ,1.55709 ,-0.38228 ,-3.75093 
339 ,71.5246 ,1.55925 ,-0.37201 ,-3.65019 
340 ,71.7328 ,1.56139 ,-0.38228 ,-3.75093 
341 ,71.9569 ,1.56359 ,-0.40623 ,-3.98597 
342 ,72.1650 ,1.56568 ,-0.41650 ,-4.08671 
343 ,72.3731 ,1.56778 ,-0.43019 ,-4.22102 
344 ,72.5811 ,1.56989 ,-0.43703 ,-4.28818 
345 ,72.7729 ,1.57186 ,-0.43019 ,-4.22102 
346 ,72.9653 ,1.57374 ,-0.45757 ,-4.48965 
347 ,73.1893 ,1.57594 ,-0.44388 ,-4.35534 
348 ,73.3976 ,1.57807 ,-0.47810 ,-4.69112 
349 ,73.6056 ,1.58009 ,-0.47126 ,-4.62396 
350 ,73.8292 ,1.58228 ,-0.48837 ,-4.79185 
351 ,74.0376 ,1.58435 ,-0.51232 ,-5.02690 
352 ,74.2298 ,1.58637 ,-0.49179 ,-4.82543 
353 ,74.4219 ,1.58830 ,-0.52601 ,-5.16121 
354 ,74.6461 ,1.59050 ,-0.52601 ,-5.16121 
355 ,74.8700 ,1.59264 ,-0.54654 ,-5.36268 
356 ,75.0782 ,1.59486 ,-0.56708 ,-5.56415 
357 ,75.2864 ,1.59696 ,-0.56708 ,-5.56415 
358 ,75.4942 ,1.59897 ,-0.57734 ,-5.66489 
359 ,75.6864 ,1.60092 ,-0.58077 ,-5.69847 
360 ,75.8786 ,1.60285 ,-0.58761 ,-5.76562 
361 ,76.1027 ,1.60510 ,-0.61156 ,-6.00067 
362 ,76.3268 ,1.60725 ,-0.60814 ,-5.96709 
363 ,76.5509 ,1.60951 ,-0.61841 ,-6.06783 
364 ,76.7430 ,1.61146 ,-0.62868 ,-6.16856 
365 ,76.9667 ,1.61367 ,-0.63210 ,-6.20214 
366 ,77.1749 ,1.61582 ,-0.65605 ,-6.43719 
367 ,77.3671 ,1.61779 ,-0.64921 ,-6.37003 
368 ,77.5753 ,1.61977 ,-0.65947 ,-6.47077 
369 ,77.7673 ,1.62174 ,-0.68343 ,-6.70582 
370 ,77.9751 ,1.62375 ,-0.66974 ,-6.57150 
371 ,78.1674 ,1.62573 ,-0.70739 ,-6.94086 
372 ,78.3914 ,1.62787 ,-0.71081 ,-6.97444 
373 ,78.6153 ,1.63019 ,-0.71081 ,-6.97444 
374 ,78.8234 ,1.63224 ,-0.73476 ,-7.20949 
375 ,79.0319 ,1.63440 ,-0.73134 ,-7.17591 
376 ,79.2561 ,1.63660 ,-0.73818 ,-7.24307 
377 ,79.4799 ,1.63879 ,-0.76214 ,-7.47812 
378 ,79.6878 ,1.64087 ,-0.76214 ,-7.47812 
379 ,79.8805 ,1.64288 ,-0.77583 ,-7.61243 
380 ,80.0883 ,1.64488 ,-0.77925 ,-7.64601 
381 ,80.3122 ,1.64718 ,-0.78267 ,-7.67959 
382 ,80.5042 ,1.64908 ,-0.82032 ,-8.04895 
383 ,80.6965 ,1.65103 ,-0.80321 ,-7.88106 
384 ,80.9047 ,1.65304 ,-0.82374 ,-8.08253 
385 ,81.1128 ,1.65514 ,-0.82032 ,-8.04895 
386 ,81.3049 ,1.65711 ,-0.84427 ,-8.28400 
387 ,81.5287 ,1.65921 ,-0.83743 ,-8.21684 
388 ,81.7367 ,1.66142 ,-0.85112 ,-8.35115 
389 ,81.9931 ,1.66389 ,-0.86823 ,-8.51904 
390 ,82.2013 ,1.66604 ,-0.88534 ,-8.68694 
391 ,82.4091 ,1.66807 ,-0.88534 ,-8.68694 
392 ,82.6173 ,1.67018 ,-0.89560 ,-8.78767 
393 ,82.8414 ,1.67241 ,-0.91614 ,-8.98914 
394 ,83.0496 ,1.67450 ,-0.91956 ,-9.02272 
395 ,83.2576 ,1.67657 ,-0.91614 ,-8.98914 
396 ,83.4655 ,1.67868 ,-0.92983 ,-9.12345 
397 ,83.6738 ,1.68074 ,-0.93325 ,-9.15703 
398 ,83.8655 ,1.68273 ,-0.96747 ,-9.49282 
399 ,84.0580 ,1.68461 ,-0.95036 ,-9.32492 
400 ,84.2661 ,1.68665 ,-0.96405 ,-9.45924 
401 ,84.4742 ,1.68872 ,-0.96747 ,-9.49282 
402 ,84.6823 ,1.69084 ,-0.98458 ,-9.66071 
403 ,84.8899 ,1.69292 ,-1.00169 ,-9.82860 
404 ,85.0981 ,1.69499 ,-1.00169 ,-9.82860 
405 ,85.3065 ,1.69705 ,-1.01880 ,-9.99649 
406 ,85.5143 ,1.69918 ,-1.01538 ,-9.96291 
407 ,85.7226 ,1.70120 ,-1.03249 ,-10.13080 
408 ,85.9307 ,1.70330 ,-1.04276 ,-10.23154 
409 ,86.1548 ,1.70549 ,-1.03934 ,-10.19796 
410 ,86.3629 ,1.70764 ,-1.07356 ,-10.53374 
411 ,86.5707 ,1.70965 ,-1.06329 ,-10.43301 
412 ,86.7791 ,1.71180 ,-1.06671 ,-10.46659 
413 ,86.9872 ,1.71384 ,-1.08382 ,-10.63448 
414 ,87.1949 ,1.71589 ,-1.08725 ,-10.66806 
415 ,87.3868 ,1.71789 ,-1.10778 ,-10.86953 
416 ,87.5793 ,1.71980 ,-1.09751 ,-10.76879 
417 ,87.7875 ,1.72181 ,-1.12147 ,-11.00384 
418 ,87.9956 ,1.72395 ,-1.11462 ,-10.93668 
419 ,88.2033 ,1.72611 ,-1.12489 ,-11.03742 
420 ,88.4119 ,1.72818 ,-1.14200 ,-11.20531 
421 ,88.6359 ,1.73031 ,-1.14884 ,-11.27247 
422 ,88.8278 ,1.73232 ,-1.16938 ,-11.47394 
423 ,89.0520 ,1.73438 ,-1.14542 ,-11.23889 
424 ,89.2758 ,1.73675 ,-1.16938 ,-11.47394 
425 ,89.4843 ,1.73881 ,-1.19676 ,-11.74256 
426 ,89.7081 ,1.74104 ,-1.21044 ,-11.87688 
427 ,89.9161 ,1.74318 ,-1.20018 ,-11.77614 
428 ,90.1244 ,1.74518 ,-1.23440 ,-12.11192 
429 ,90.3327 ,1.74729 ,-1.22413 ,-12.01119 
430 ,90.5567 ,1.74953 ,-1.22071 ,-11.97761 
431 ,90.7645 ,1.75168 ,-1.23440 ,-12.11192 
432 ,90.9730 ,1.75369 ,-1.24467 ,-12.21266 
433 ,91.1810 ,1.75576 ,-1.24124 ,-12.17908 
434 ,91.3890 ,1.75786 ,-1.26862 ,-12.44771 
435 ,91.5967 ,1.75996 ,-1.26520 ,-12.41413 
436 ,91.7891 ,1.76191 ,-1.28573 ,-12.61560 
437 ,91.9972 ,1.76392 ,-1.28573 ,-12.61560 
438 ,92.2054 ,1.76603 ,-1.29600 ,-12.71633 
439 ,92.4135 ,1.76815 ,-1.30969 ,-12.85065 
440 ,92.6055 ,1.77020 ,-1.30969 ,-12.85065 
441 ,92.8135 ,1.77215 ,-1.31311 ,-12.88422 
442 ,93.0216 ,1.77422 ,-1.31311 ,-12.88422 
443 ,93.2456 ,1.77641 ,-1.33364 ,-13.08569 
444 ,93.4539 ,1.77850 ,-1.35417 ,-13.28716 
445 ,93.6781 ,1.78073 ,-1.33706 ,-13.11927 
446 ,93.8859 ,1.78287 ,-1.36102 ,-13.35432 
447 ,94.1097 ,1.78503 ,-1.38497 ,-13.58937 
448 ,94.3022 ,1.78704 ,-1.36786 ,-13.42148 
449 ,94.4942 ,1.78908 ,-1.38155 ,-13.55579 
450 ,94.7025 ,1.79094 ,-1.37813 ,-13.52221 
451 ,94.9100 ,1.79314 ,-1.41920 ,-13.92515 
452 ,95.1183 ,1.79513 ,-1.40551 ,-13.79084 
453 ,95.3266 ,1.79724 ,-1.41920 ,-13.92515 
454 ,95.5346 ,1.79929 ,-1.43631 ,-14.09304 
455 ,95.7428 ,1.80138 ,-1.42262 ,-13.95873 
456 ,95.9506 ,1.80346 ,-1.45342 ,-14.26093 
457 ,96.1910 ,1.80575 ,-1.45684 ,-14.29451 
458 ,96.4150 ,1.80811 ,-1.45684 ,-14.29451 
459 ,96.6231 ,1.81015 ,-1.46368 ,-14.36167 
460 ,96.8469 ,1.81238 ,-1.48422 ,-14.56314 
