Data stamp = , 17-05-2022 00:04:13 233

Calibration Values: 
Slope = , 26.54 , g/V 
Offset Voltage at no contact = , -0.501760 , V 

No , Time , Stage Position ,   Mass , Force 
   ,  (s) ,      (mm)      ,   (g)  , (mN)  

1 ,0.0000 ,0.84961 ,5.07265 ,49.77289 
2 ,0.3421 ,0.84990 ,5.10345 ,50.07509 
3 ,0.7422 ,0.85168 ,5.08977 ,49.94078 
4 ,0.9505 ,0.85388 ,5.07608 ,49.80646 
5 ,1.1747 ,0.85607 ,5.09661 ,50.00793 
6 ,1.3989 ,0.85822 ,5.09319 ,49.97436 
7 ,1.5911 ,0.86029 ,5.06581 ,49.70573 
8 ,1.7988 ,0.86236 ,5.06923 ,49.73931 
9 ,2.0230 ,0.86449 ,5.03843 ,49.43710 
10 ,2.2312 ,0.86674 ,5.01106 ,49.16848 
11 ,2.4395 ,0.86876 ,5.02132 ,49.26921 
12 ,2.6475 ,0.87085 ,4.96999 ,48.76554 
13 ,2.8715 ,0.87302 ,4.96999 ,48.76554 
14 ,3.0794 ,0.87513 ,4.95630 ,48.63122 
15 ,3.2878 ,0.87719 ,4.90839 ,48.16113 
16 ,3.4958 ,0.87929 ,4.90155 ,48.09397 
17 ,3.6876 ,0.88128 ,4.86390 ,47.72461 
18 ,3.8801 ,0.88319 ,4.86390 ,47.72461 
19 ,4.0877 ,0.88532 ,4.83652 ,47.45598 
20 ,4.2961 ,0.88727 ,4.81599 ,47.25451 
21 ,4.4881 ,0.88924 ,4.79888 ,47.08662 
22 ,4.6799 ,0.89119 ,4.78177 ,46.91873 
23 ,4.8724 ,0.89312 ,4.73386 ,46.44863 
24 ,5.0805 ,0.89516 ,4.73728 ,46.48221 
25 ,5.3203 ,0.89745 ,4.72702 ,46.38148 
26 ,5.5448 ,0.89975 ,4.68595 ,45.97854 
27 ,5.7688 ,0.90195 ,4.64831 ,45.60918 
28 ,5.9609 ,0.90402 ,4.65515 ,45.67633 
29 ,6.1690 ,0.90600 ,4.59697 ,45.10550 
30 ,6.3930 ,0.90826 ,4.59013 ,45.03835 
31 ,6.6011 ,0.91033 ,4.58671 ,45.00477 
32 ,6.8252 ,0.91246 ,4.53880 ,44.53467 
33 ,7.0491 ,0.91479 ,4.52511 ,44.40036 
34 ,7.2575 ,0.91693 ,4.49431 ,44.09815 
35 ,7.4813 ,0.91913 ,4.49431 ,44.09815 
36 ,7.6897 ,0.92125 ,4.47378 ,43.89668 
37 ,7.8978 ,0.92333 ,4.43271 ,43.49374 
38 ,8.1059 ,0.92543 ,4.42929 ,43.46016 
39 ,8.3139 ,0.92743 ,4.38138 ,42.99007 
40 ,8.5374 ,0.92972 ,4.35742 ,42.75502 
41 ,8.7459 ,0.93176 ,4.35058 ,42.68786 
42 ,8.9540 ,0.93381 ,4.31293 ,42.31850 
43 ,9.1621 ,0.93594 ,4.29582 ,42.15061 
44 ,9.3700 ,0.93800 ,4.29582 ,42.15061 
45 ,9.5939 ,0.94028 ,4.26502 ,41.84841 
46 ,9.8024 ,0.94240 ,4.24107 ,41.61336 
47 ,10.0263 ,0.94455 ,4.23080 ,41.51262 
48 ,10.2346 ,0.94665 ,4.17947 ,41.00895 
49 ,10.4427 ,0.94874 ,4.18289 ,41.04253 
50 ,10.6507 ,0.95085 ,4.16578 ,40.87464 
51 ,10.8428 ,0.95279 ,4.12471 ,40.47170 
52 ,11.0509 ,0.95483 ,4.12471 ,40.47170 
53 ,11.2590 ,0.95690 ,4.08023 ,40.03518 
54 ,11.4672 ,0.95898 ,4.07680 ,40.00160 
55 ,11.6750 ,0.96104 ,4.04600 ,39.69940 
56 ,11.8828 ,0.96318 ,4.02205 ,39.46435 
57 ,12.0752 ,0.96509 ,4.02205 ,39.46435 
58 ,12.2833 ,0.96713 ,3.98441 ,39.09499 
59 ,12.5073 ,0.96936 ,3.96387 ,38.89352 
60 ,12.7153 ,0.97142 ,3.95361 ,38.79278 
61 ,12.9235 ,0.97355 ,3.91596 ,38.42342 
62 ,13.1476 ,0.97579 ,3.91254 ,38.38984 
63 ,13.3561 ,0.97787 ,3.89201 ,38.18837 
64 ,13.5640 ,0.97994 ,3.85094 ,37.78543 
65 ,13.7881 ,0.98216 ,3.82356 ,37.51681 
66 ,14.0123 ,0.98442 ,3.82356 ,37.51681 
67 ,14.2202 ,0.98647 ,3.78250 ,37.11387 
68 ,14.4285 ,0.98859 ,3.77223 ,37.01313 
69 ,14.6362 ,0.99064 ,3.75512 ,36.84524 
70 ,14.8287 ,0.99260 ,3.72774 ,36.57661 
71 ,15.0527 ,0.99483 ,3.71748 ,36.47588 
72 ,15.2607 ,0.99687 ,3.66957 ,36.00578 
73 ,15.4686 ,0.99899 ,3.65588 ,35.87147 
74 ,15.6930 ,1.00121 ,3.65930 ,35.90505 
75 ,15.9166 ,1.00344 ,3.62850 ,35.60284 
76 ,16.1091 ,1.00545 ,3.59428 ,35.26706 
77 ,16.3167 ,1.00748 ,3.58401 ,35.16632 
78 ,16.5252 ,1.00955 ,3.53952 ,34.72981 
79 ,16.7334 ,1.01166 ,3.54295 ,34.76338 
80 ,16.9413 ,1.01370 ,3.51899 ,34.52834 
81 ,17.1655 ,1.01595 ,3.47792 ,34.12540 
82 ,17.3732 ,1.01799 ,3.46766 ,34.02466 
83 ,17.5815 ,1.02017 ,3.44370 ,33.78961 
84 ,17.8217 ,1.02258 ,3.42659 ,33.62172 
85 ,18.0459 ,1.02473 ,3.39237 ,33.28594 
86 ,18.2700 ,1.02694 ,3.38210 ,33.18520 
87 ,18.4779 ,1.02906 ,3.36842 ,33.05089 
88 ,18.6859 ,1.03121 ,3.33419 ,32.71511 
89 ,18.8943 ,1.03329 ,3.31366 ,32.51364 
90 ,19.1183 ,1.03543 ,3.30339 ,32.41290 
91 ,19.3264 ,1.03753 ,3.25548 ,31.94281 
92 ,19.5185 ,1.03953 ,3.26917 ,32.07712 
93 ,19.7263 ,1.04154 ,3.22468 ,31.64060 
94 ,19.9347 ,1.04365 ,3.21784 ,31.57345 
95 ,20.1425 ,1.04574 ,3.19388 ,31.33840 
96 ,20.3348 ,1.04763 ,3.17335 ,31.13693 
97 ,20.5268 ,1.04957 ,3.15624 ,30.96904 
98 ,20.7345 ,1.05160 ,3.13913 ,30.80115 
99 ,20.9428 ,1.05373 ,3.12202 ,30.63325 
100 ,21.1511 ,1.05585 ,3.06726 ,30.09600 
101 ,21.3591 ,1.05792 ,3.07753 ,30.19674 
102 ,21.5511 ,1.05980 ,3.03647 ,29.79380 
103 ,21.7594 ,1.06192 ,3.04673 ,29.89453 
104 ,21.9834 ,1.06409 ,3.01593 ,29.59233 
105 ,22.1916 ,1.06620 ,2.99540 ,29.39086 
106 ,22.3836 ,1.06818 ,2.99540 ,29.39086 
107 ,22.5918 ,1.07020 ,2.94749 ,28.92076 
108 ,22.7997 ,1.07232 ,2.95091 ,28.95434 
109 ,22.9914 ,1.07425 ,2.91327 ,28.58498 
110 ,23.1839 ,1.07611 ,2.91327 ,28.58498 
111 ,23.4081 ,1.07830 ,2.86878 ,28.14846 
112 ,23.6001 ,1.08028 ,2.87220 ,28.18204 
113 ,23.8081 ,1.08234 ,2.84140 ,27.87983 
114 ,24.0001 ,1.08429 ,2.84140 ,27.87983 
115 ,24.2085 ,1.08645 ,2.79691 ,27.44332 
116 ,24.4163 ,1.08847 ,2.77980 ,27.27542 
117 ,24.6406 ,1.09063 ,2.77980 ,27.27542 
118 ,24.8487 ,1.09276 ,2.74558 ,26.93964 
119 ,25.0567 ,1.09487 ,2.72847 ,26.77175 
120 ,25.2647 ,1.09694 ,2.73189 ,26.80533 
121 ,25.4889 ,1.09910 ,2.68740 ,26.36881 
122 ,25.6967 ,1.10118 ,2.67714 ,26.26807 
123 ,25.9206 ,1.10347 ,2.67372 ,26.23450 
124 ,26.1130 ,1.10541 ,2.63949 ,25.89871 
125 ,26.3046 ,1.10736 ,2.63949 ,25.89871 
126 ,26.4972 ,1.10926 ,2.60869 ,25.59651 
127 ,26.7052 ,1.11134 ,2.60185 ,25.52935 
128 ,26.9133 ,1.11341 ,2.57789 ,25.29430 
129 ,27.1053 ,1.11532 ,2.57447 ,25.26073 
130 ,27.3136 ,1.11738 ,2.52998 ,24.82421 
131 ,27.5531 ,1.11991 ,2.52314 ,24.75705 
132 ,27.7452 ,1.12188 ,2.50945 ,24.62274 
133 ,27.9376 ,1.12378 ,2.49576 ,24.48842 
134 ,28.2098 ,1.12628 ,2.47181 ,24.25338 
135 ,28.4179 ,1.12844 ,2.44785 ,24.01833 
136 ,28.6261 ,1.13047 ,2.45127 ,24.05191 
137 ,28.8341 ,1.13261 ,2.42390 ,23.78328 
138 ,29.0578 ,1.13487 ,2.40336 ,23.58181 
139 ,29.2663 ,1.13695 ,2.40679 ,23.61539 
140 ,29.4743 ,1.13905 ,2.37599 ,23.31318 
141 ,29.6664 ,1.14099 ,2.35545 ,23.11171 
142 ,29.8582 ,1.14284 ,2.33492 ,22.91024 
143 ,30.0665 ,1.14491 ,2.35545 ,23.11171 
144 ,30.2745 ,1.14702 ,2.31097 ,22.67520 
145 ,30.4821 ,1.14912 ,2.29385 ,22.50731 
146 ,30.6743 ,1.15108 ,2.27674 ,22.33941 
147 ,30.8985 ,1.15328 ,2.24594 ,22.03721 
148 ,31.1065 ,1.15526 ,2.24594 ,22.03721 
149 ,31.3146 ,1.15745 ,2.22883 ,21.86932 
150 ,31.5227 ,1.15946 ,2.21515 ,21.73500 
151 ,31.7147 ,1.16150 ,2.19803 ,21.56711 
152 ,31.9229 ,1.16346 ,2.17408 ,21.33206 
153 ,32.1312 ,1.16559 ,2.16381 ,21.23133 
154 ,32.3394 ,1.16762 ,2.12959 ,20.89555 
155 ,32.5475 ,1.16967 ,2.14670 ,21.06344 
156 ,32.7397 ,1.17167 ,2.10564 ,20.66050 
157 ,32.9634 ,1.17386 ,2.09537 ,20.55976 
158 ,33.1558 ,1.17582 ,2.08510 ,20.45903 
159 ,33.3638 ,1.17792 ,2.06457 ,20.25756 
160 ,33.5559 ,1.17982 ,2.05430 ,20.15682 
161 ,33.7641 ,1.18189 ,2.02693 ,19.88820 
162 ,33.9720 ,1.18396 ,2.03035 ,19.92178 
163 ,34.2123 ,1.18625 ,2.00639 ,19.68673 
164 ,34.4360 ,1.18855 ,1.99613 ,19.58599 
165 ,34.6444 ,1.19065 ,1.95164 ,19.14948 
166 ,34.8526 ,1.19272 ,1.96533 ,19.28379 
167 ,35.0446 ,1.19469 ,1.92768 ,18.91443 
168 ,35.2528 ,1.19676 ,1.94137 ,19.04874 
169 ,35.4446 ,1.19880 ,1.89688 ,18.61222 
170 ,35.6530 ,1.20072 ,1.89688 ,18.61222 
171 ,35.8610 ,1.20279 ,1.86608 ,18.31002 
172 ,36.0849 ,1.20509 ,1.85582 ,18.20928 
173 ,36.2932 ,1.20715 ,1.84897 ,18.14213 
174 ,36.5010 ,1.20925 ,1.81817 ,17.83992 
175 ,36.6934 ,1.21114 ,1.82160 ,17.87350 
176 ,36.9013 ,1.21321 ,1.79080 ,17.57129 
177 ,37.0934 ,1.21521 ,1.78737 ,17.53772 
178 ,37.2852 ,1.21716 ,1.75315 ,17.20193 
179 ,37.4936 ,1.21917 ,1.74631 ,17.13478 
180 ,37.7177 ,1.22134 ,1.72578 ,16.93331 
181 ,37.9256 ,1.22346 ,1.71551 ,16.83257 
182 ,38.1338 ,1.22566 ,1.70182 ,16.69826 
183 ,38.3262 ,1.22751 ,1.68129 ,16.49679 
184 ,38.5338 ,1.22959 ,1.68129 ,16.49679 
185 ,38.7580 ,1.23172 ,1.65391 ,16.22816 
186 ,38.9342 ,1.23370 ,1.62995 ,15.99311 
187 ,39.1424 ,1.23560 ,1.62653 ,15.95954 
188 ,39.3343 ,1.23761 ,1.61284 ,15.82522 
189 ,39.5740 ,1.23990 ,1.60600 ,15.75807 
190 ,39.7663 ,1.24188 ,1.56151 ,15.32155 
191 ,39.9426 ,1.24379 ,1.57862 ,15.48944 
192 ,40.1346 ,1.24561 ,1.55124 ,15.22081 
193 ,40.3428 ,1.24767 ,1.54440 ,15.15366 
194 ,40.5349 ,1.24956 ,1.52729 ,14.98577 
195 ,40.7424 ,1.25169 ,1.49991 ,14.71714 
196 ,40.9509 ,1.25373 ,1.48622 ,14.58283 
197 ,41.2232 ,1.25646 ,1.46227 ,14.34778 
198 ,41.4471 ,1.25863 ,1.44858 ,14.21346 
199 ,41.6553 ,1.26076 ,1.44516 ,14.17989 
200 ,41.8633 ,1.26287 ,1.41778 ,13.91126 
201 ,42.0551 ,1.26488 ,1.40409 ,13.77695 
202 ,42.2476 ,1.26672 ,1.39040 ,13.64263 
203 ,42.4556 ,1.26886 ,1.37329 ,13.47474 
204 ,42.6476 ,1.27065 ,1.34934 ,13.23969 
205 ,42.8554 ,1.27269 ,1.36303 ,13.37401 
206 ,43.0640 ,1.27490 ,1.34934 ,13.23969 
207 ,43.2880 ,1.27708 ,1.31169 ,12.87033 
208 ,43.4796 ,1.27902 ,1.32880 ,13.03822 
209 ,43.6880 ,1.28109 ,1.29458 ,12.70244 
210 ,43.8962 ,1.28322 ,1.28432 ,12.60171 
211 ,44.1205 ,1.28539 ,1.27747 ,12.53455 
212 ,44.3281 ,1.28752 ,1.25009 ,12.26592 
213 ,44.5205 ,1.28946 ,1.24667 ,12.23235 
214 ,44.7127 ,1.29134 ,1.19876 ,11.76225 
215 ,44.9368 ,1.29351 ,1.21245 ,11.89656 
216 ,45.1447 ,1.29564 ,1.20218 ,11.79583 
217 ,45.3530 ,1.29778 ,1.16796 ,11.46004 
218 ,45.5769 ,1.29992 ,1.17138 ,11.49362 
219 ,45.7851 ,1.30202 ,1.15427 ,11.32573 
220 ,46.0090 ,1.30425 ,1.12690 ,11.05710 
221 ,46.2009 ,1.30622 ,1.13032 ,11.09068 
222 ,46.3933 ,1.30817 ,1.10636 ,10.85563 
223 ,46.5849 ,1.31014 ,1.10294 ,10.82206 
224 ,46.7932 ,1.31209 ,1.06530 ,10.45270 
225 ,47.0013 ,1.31418 ,1.05503 ,10.35196 
226 ,47.1932 ,1.31614 ,1.04819 ,10.28480 
227 ,47.4014 ,1.31821 ,1.04819 ,10.28480 
228 ,47.6096 ,1.32025 ,1.00028 ,9.81471 
229 ,47.8656 ,1.32285 ,1.00028 ,9.81471 
230 ,48.0740 ,1.32490 ,0.97632 ,9.57966 
231 ,48.2662 ,1.32687 ,0.99001 ,9.71397 
232 ,48.4898 ,1.32907 ,0.94210 ,9.24388 
233 ,48.7138 ,1.33132 ,0.94210 ,9.24388 
234 ,48.9220 ,1.33337 ,0.93868 ,9.21030 
235 ,49.1461 ,1.33563 ,0.92499 ,9.07598 
236 ,49.3543 ,1.33772 ,0.88734 ,8.70662 
237 ,49.5622 ,1.33976 ,0.90446 ,8.87451 
238 ,49.7703 ,1.34187 ,0.87366 ,8.57231 
239 ,49.9624 ,1.34391 ,0.85654 ,8.40442 
240 ,50.2029 ,1.34602 ,0.83943 ,8.23653 
241 ,50.4271 ,1.34841 ,0.83943 ,8.23653 
242 ,50.6508 ,1.35066 ,0.82917 ,8.13579 
243 ,50.8594 ,1.35273 ,0.80179 ,7.86717 
244 ,51.0672 ,1.35478 ,0.80521 ,7.90074 
245 ,51.2755 ,1.35693 ,0.77099 ,7.56496 
246 ,51.4834 ,1.35895 ,0.78126 ,7.66570 
247 ,51.6757 ,1.36098 ,0.73335 ,7.19560 
248 ,51.8835 ,1.36302 ,0.75046 ,7.36349 
249 ,52.0918 ,1.36512 ,0.72650 ,7.12844 
250 ,52.2998 ,1.36717 ,0.70255 ,6.89340 
251 ,52.5078 ,1.36923 ,0.71281 ,6.99413 
252 ,52.7001 ,1.37120 ,0.68544 ,6.72550 
253 ,52.9240 ,1.37340 ,0.67517 ,6.62477 
254 ,53.1160 ,1.37536 ,0.65806 ,6.45688 
255 ,53.3081 ,1.37726 ,0.65464 ,6.42330 
256 ,53.5164 ,1.37930 ,0.62726 ,6.15467 
257 ,53.7402 ,1.38157 ,0.61357 ,6.02036 
258 ,53.9641 ,1.38376 ,0.61015 ,5.98678 
259 ,54.1564 ,1.38574 ,0.58962 ,5.78531 
260 ,54.3647 ,1.38775 ,0.58277 ,5.71815 
261 ,54.5888 ,1.38997 ,0.56566 ,5.55026 
262 ,54.7968 ,1.39216 ,0.54171 ,5.31522 
263 ,54.9886 ,1.39405 ,0.54855 ,5.38237 
264 ,55.1967 ,1.39615 ,0.51091 ,5.01301 
265 ,55.4053 ,1.39820 ,0.51775 ,5.08017 
266 ,55.6292 ,1.40043 ,0.51091 ,5.01301 
267 ,55.8369 ,1.40253 ,0.48011 ,4.71081 
268 ,56.0293 ,1.40447 ,0.50064 ,4.91228 
269 ,56.2213 ,1.40637 ,0.45273 ,4.44218 
270 ,56.4135 ,1.40832 ,0.45615 ,4.47576 
271 ,56.6217 ,1.41036 ,0.42877 ,4.20713 
272 ,56.8294 ,1.41246 ,0.44931 ,4.40860 
273 ,57.0378 ,1.41449 ,0.40482 ,3.97208 
274 ,57.2296 ,1.41653 ,0.41166 ,4.03924 
275 ,57.4380 ,1.41849 ,0.39113 ,3.83777 
276 ,57.6621 ,1.42074 ,0.37402 ,3.66988 
277 ,57.8861 ,1.42300 ,0.36718 ,3.60272 
278 ,58.0944 ,1.42501 ,0.36033 ,3.53557 
279 ,58.3022 ,1.42712 ,0.33980 ,3.33410 
280 ,58.5104 ,1.42926 ,0.34664 ,3.40125 
281 ,58.7344 ,1.43145 ,0.31584 ,3.09905 
282 ,58.9424 ,1.43354 ,0.29531 ,2.89758 
283 ,59.1504 ,1.43566 ,0.30558 ,2.99831 
284 ,59.3589 ,1.43775 ,0.27135 ,2.66253 
285 ,59.5506 ,1.43967 ,0.27478 ,2.69611 
286 ,59.7590 ,1.44177 ,0.26451 ,2.59537 
287 ,59.9831 ,1.44394 ,0.24398 ,2.39390 
288 ,60.2071 ,1.44616 ,0.24055 ,2.36032 
289 ,60.4153 ,1.44833 ,0.23371 ,2.29317 
290 ,60.6233 ,1.45038 ,0.18922 ,1.85665 
291 ,60.8155 ,1.45232 ,0.20633 ,2.02454 
292 ,61.0235 ,1.45441 ,0.18580 ,1.82307 
293 ,61.2317 ,1.45639 ,0.18922 ,1.85665 
294 ,61.4555 ,1.45868 ,0.17211 ,1.68876 
295 ,61.6954 ,1.46097 ,0.14473 ,1.42013 
296 ,61.8879 ,1.46307 ,0.13447 ,1.31940 
297 ,62.0960 ,1.46503 ,0.14131 ,1.38655 
298 ,62.3201 ,1.46729 ,0.10709 ,1.05077 
299 ,62.5279 ,1.46936 ,0.09340 ,0.91646 
300 ,62.7357 ,1.47149 ,0.10025 ,0.98361 
301 ,62.9443 ,1.47356 ,0.07287 ,0.71499 
302 ,63.1685 ,1.47579 ,0.06260 ,0.61425 
303 ,63.3921 ,1.47802 ,0.06945 ,0.68141 
304 ,63.5845 ,1.48008 ,0.03865 ,0.37920 
305 ,63.7763 ,1.48194 ,0.04207 ,0.41278 
306 ,64.0004 ,1.48410 ,0.01469 ,0.14416 
307 ,64.1929 ,1.48608 ,0.02154 ,0.21131 
308 ,64.4009 ,1.48814 ,0.00443 ,0.04342 
309 ,64.6250 ,1.49034 ,-0.01953 ,-0.19163 
310 ,64.8489 ,1.49260 ,-0.02637 ,-0.25878 
311 ,65.0247 ,1.49450 ,-0.02980 ,-0.29236 
312 ,65.2330 ,1.49640 ,-0.02637 ,-0.25878 
313 ,65.4253 ,1.49851 ,-0.04691 ,-0.46025 
314 ,65.6172 ,1.50029 ,-0.04348 ,-0.42667 
315 ,65.8255 ,1.50233 ,-0.07771 ,-0.76246 
316 ,66.0335 ,1.50449 ,-0.09140 ,-0.89677 
317 ,66.2415 ,1.50650 ,-0.09482 ,-0.93035 
318 ,66.4497 ,1.50864 ,-0.10508 ,-1.03108 
319 ,66.6738 ,1.51082 ,-0.09824 ,-0.96393 
320 ,66.8818 ,1.51291 ,-0.12219 ,-1.19898 
321 ,67.0901 ,1.51500 ,-0.13588 ,-1.33329 
322 ,67.2980 ,1.51708 ,-0.13588 ,-1.33329 
323 ,67.5061 ,1.51921 ,-0.15642 ,-1.53476 
324 ,67.7301 ,1.52134 ,-0.17011 ,-1.66907 
325 ,67.9224 ,1.52335 ,-0.17011 ,-1.66907 
326 ,68.1304 ,1.52535 ,-0.20090 ,-1.97128 
327 ,68.3540 ,1.52761 ,-0.19064 ,-1.87054 
328 ,68.5465 ,1.52956 ,-0.20775 ,-2.03843 
329 ,68.7546 ,1.53160 ,-0.21459 ,-2.10559 
330 ,68.9628 ,1.53363 ,-0.22144 ,-2.17275 
331 ,69.1707 ,1.53574 ,-0.24881 ,-2.44137 
332 ,69.3785 ,1.53784 ,-0.24539 ,-2.40779 
333 ,69.5870 ,1.54000 ,-0.27277 ,-2.67642 
334 ,69.7950 ,1.54211 ,-0.27961 ,-2.74358 
335 ,70.0035 ,1.54412 ,-0.26593 ,-2.60926 
336 ,70.2272 ,1.54632 ,-0.30015 ,-2.94505 
337 ,70.4194 ,1.54835 ,-0.28988 ,-2.84431 
338 ,70.6434 ,1.55053 ,-0.30015 ,-2.94505 
339 ,70.8516 ,1.55254 ,-0.33437 ,-3.28083 
340 ,71.0597 ,1.55469 ,-0.32410 ,-3.18010 
341 ,71.2674 ,1.55671 ,-0.34806 ,-3.41514 
342 ,71.4597 ,1.55870 ,-0.35832 ,-3.51588 
343 ,71.6674 ,1.56069 ,-0.35832 ,-3.51588 
344 ,71.8599 ,1.56270 ,-0.37544 ,-3.68377 
345 ,72.0679 ,1.56470 ,-0.37886 ,-3.71735 
346 ,72.2599 ,1.56671 ,-0.39939 ,-3.91882 
347 ,72.4522 ,1.56867 ,-0.41992 ,-4.12029 
348 ,72.6761 ,1.57082 ,-0.40966 ,-4.01955 
349 ,72.8843 ,1.57294 ,-0.41992 ,-4.12029 
350 ,73.1246 ,1.57521 ,-0.42335 ,-4.15387 
351 ,73.3326 ,1.57747 ,-0.44046 ,-4.32176 
352 ,73.5408 ,1.57948 ,-0.45414 ,-4.45607 
353 ,73.7487 ,1.58155 ,-0.44730 ,-4.38891 
354 ,73.9567 ,1.58362 ,-0.48837 ,-4.79185 
355 ,74.1490 ,1.58556 ,-0.48152 ,-4.72470 
356 ,74.3568 ,1.58763 ,-0.50206 ,-4.92617 
357 ,74.5651 ,1.58977 ,-0.49863 ,-4.89259 
358 ,74.7732 ,1.59186 ,-0.52259 ,-5.12764 
359 ,74.9808 ,1.59384 ,-0.52943 ,-5.19479 
360 ,75.1733 ,1.59583 ,-0.54312 ,-5.32911 
361 ,75.3651 ,1.59780 ,-0.55681 ,-5.46342 
362 ,75.5575 ,1.59965 ,-0.56708 ,-5.56415 
363 ,75.7977 ,1.60196 ,-0.56708 ,-5.56415 
364 ,76.0213 ,1.60424 ,-0.56708 ,-5.56415 
365 ,76.2298 ,1.60640 ,-0.57734 ,-5.66489 
366 ,76.4380 ,1.60846 ,-0.59445 ,-5.83278 
367 ,76.6620 ,1.61069 ,-0.60472 ,-5.93352 
368 ,76.8861 ,1.61289 ,-0.59788 ,-5.86636 
369 ,77.0942 ,1.61502 ,-0.61841 ,-6.06783 
370 ,77.3181 ,1.61726 ,-0.64236 ,-6.30288 
371 ,77.5263 ,1.61936 ,-0.63894 ,-6.26930 
372 ,77.7184 ,1.62125 ,-0.67316 ,-6.60508 
373 ,77.9426 ,1.62351 ,-0.68001 ,-6.67224 
374 ,78.1346 ,1.62550 ,-0.66974 ,-6.57150 
375 ,78.3427 ,1.62751 ,-0.69712 ,-6.84013 
376 ,78.5346 ,1.62942 ,-0.69027 ,-6.77297 
377 ,78.7270 ,1.63135 ,-0.70396 ,-6.90729 
378 ,78.9510 ,1.63353 ,-0.70054 ,-6.87371 
379 ,79.1589 ,1.63560 ,-0.74161 ,-7.27665 
380 ,79.3508 ,1.63756 ,-0.72450 ,-7.10876 
381 ,79.5592 ,1.63971 ,-0.75530 ,-7.41096 
382 ,79.7673 ,1.64172 ,-0.75187 ,-7.37738 
383 ,79.9754 ,1.64377 ,-0.76898 ,-7.54527 
384 ,80.1836 ,1.64589 ,-0.77241 ,-7.57885 
385 ,80.3915 ,1.64799 ,-0.77583 ,-7.61243 
386 ,80.6157 ,1.65010 ,-0.80321 ,-7.88106 
387 ,80.8238 ,1.65245 ,-0.80663 ,-7.91464 
388 ,81.0159 ,1.65422 ,-0.80321 ,-7.88106 
389 ,81.2240 ,1.65622 ,-0.82032 ,-8.04895 
390 ,81.4155 ,1.65835 ,-0.82032 ,-8.04895 
391 ,81.6077 ,1.66013 ,-0.84769 ,-8.31758 
392 ,81.8002 ,1.66211 ,-0.84427 ,-8.28400 
393 ,82.0083 ,1.66409 ,-0.84769 ,-8.31758 
394 ,82.2164 ,1.66623 ,-0.85454 ,-8.38473 
395 ,82.4240 ,1.66844 ,-0.88192 ,-8.65336 
396 ,82.6165 ,1.67021 ,-0.87165 ,-8.55262 
397 ,82.8407 ,1.67249 ,-0.90929 ,-8.92198 
398 ,83.0484 ,1.67464 ,-0.90929 ,-8.92198 
399 ,83.2568 ,1.67660 ,-0.89903 ,-8.82125 
400 ,83.4646 ,1.67864 ,-0.92298 ,-9.05630 
401 ,83.6725 ,1.68080 ,-0.91614 ,-8.98914 
402 ,83.8807 ,1.68284 ,-0.94009 ,-9.22419 
403 ,84.0891 ,1.68486 ,-0.94694 ,-9.29135 
404 ,84.3134 ,1.68722 ,-0.95036 ,-9.32492 
405 ,84.5212 ,1.68928 ,-0.95720 ,-9.39208 
406 ,84.7132 ,1.69122 ,-0.97089 ,-9.52639 
407 ,84.9371 ,1.69336 ,-0.97089 ,-9.52639 
408 ,85.1457 ,1.69544 ,-0.99485 ,-9.76144 
409 ,85.3537 ,1.69754 ,-0.99485 ,-9.76144 
410 ,85.5777 ,1.69982 ,-0.99827 ,-9.79502 
411 ,85.7698 ,1.70174 ,-1.02907 ,-10.09723 
412 ,85.9936 ,1.70396 ,-1.02907 ,-10.09723 
413 ,86.2019 ,1.70608 ,-1.03934 ,-10.19796 
414 ,86.4102 ,1.70814 ,-1.05987 ,-10.39943 
415 ,86.6182 ,1.71019 ,-1.05645 ,-10.36585 
416 ,86.8261 ,1.71228 ,-1.07014 ,-10.50016 
417 ,87.0503 ,1.71448 ,-1.07014 ,-10.50016 
418 ,87.2584 ,1.71664 ,-1.07356 ,-10.53374 
419 ,87.4664 ,1.71871 ,-1.09751 ,-10.76879 
420 ,87.6746 ,1.72075 ,-1.09409 ,-10.73521 
421 ,87.8822 ,1.72283 ,-1.11462 ,-10.93668 
422 ,88.1063 ,1.72506 ,-1.13173 ,-11.10457 
423 ,88.3144 ,1.72715 ,-1.12147 ,-11.00384 
424 ,88.5230 ,1.72927 ,-1.13173 ,-11.10457 
425 ,88.7631 ,1.73165 ,-1.14200 ,-11.20531 
426 ,88.9712 ,1.73372 ,-1.15911 ,-11.37320 
427 ,89.1952 ,1.73592 ,-1.14200 ,-11.20531 
428 ,89.3869 ,1.73790 ,-1.17280 ,-11.50751 
429 ,89.5795 ,1.73981 ,-1.17622 ,-11.54109 
430 ,89.8037 ,1.74203 ,-1.19676 ,-11.74256 
431 ,90.0117 ,1.74413 ,-1.20360 ,-11.80972 
432 ,90.2197 ,1.74620 ,-1.19333 ,-11.70898 
433 ,90.4434 ,1.74844 ,-1.21387 ,-11.91045 
434 ,90.6519 ,1.75057 ,-1.23782 ,-12.14550 
435 ,90.8760 ,1.75274 ,-1.22413 ,-12.01119 
436 ,91.0838 ,1.75482 ,-1.24809 ,-12.24624 
437 ,91.2921 ,1.75692 ,-1.25835 ,-12.34697 
438 ,91.5002 ,1.75899 ,-1.24467 ,-12.21266 
439 ,91.7085 ,1.76111 ,-1.26520 ,-12.41413 
440 ,91.9163 ,1.76321 ,-1.26862 ,-12.44771 
441 ,92.0926 ,1.76510 ,-1.28231 ,-12.58202 
442 ,92.3002 ,1.76707 ,-1.28231 ,-12.58202 
443 ,92.4927 ,1.76901 ,-1.30626 ,-12.81707 
444 ,92.7164 ,1.77109 ,-1.30969 ,-12.85065 
445 ,92.9089 ,1.77312 ,-1.31653 ,-12.91780 
446 ,93.1166 ,1.77513 ,-1.30969 ,-12.85065 
447 ,93.3249 ,1.77723 ,-1.32680 ,-13.01854 
448 ,93.5168 ,1.77921 ,-1.33706 ,-13.11927 
449 ,93.7409 ,1.78140 ,-1.33022 ,-13.05212 
450 ,93.9331 ,1.78347 ,-1.35760 ,-13.32074 
451 ,94.1252 ,1.78540 ,-1.35075 ,-13.25359 
452 ,94.3334 ,1.78734 ,-1.36786 ,-13.42148 
453 ,94.5254 ,1.78937 ,-1.36444 ,-13.38790 
454 ,94.7496 ,1.79148 ,-1.39866 ,-13.72368 
455 ,94.9736 ,1.79370 ,-1.40209 ,-13.75726 
456 ,95.1657 ,1.79567 ,-1.38155 ,-13.55579 
457 ,95.3739 ,1.79771 ,-1.40551 ,-13.79084 
458 ,95.5820 ,1.79982 ,-1.40209 ,-13.75726 
459 ,95.7900 ,1.80189 ,-1.42946 ,-14.02589 
460 ,95.9976 ,1.80396 ,-1.41577 ,-13.89157 
