Data stamp = , 17-05-2022 03:10:48 675

Calibration Values: 
Slope = , 26.54 , g/V 
Offset Voltage at no contact = , -0.501760 , V 

No , Time , Stage Position ,   Mass , Force 
   ,  (s) ,      (mm)      ,   (g)  , (mN)  

1 ,0.0000 ,0.84958 ,5.10003 ,50.04151 
2 ,0.2251 ,0.84968 ,5.08977 ,49.94078 
3 ,0.7056 ,0.85137 ,5.08634 ,49.90720 
4 ,0.9458 ,0.85371 ,5.08292 ,49.87362 
5 ,1.1695 ,0.85596 ,5.08634 ,49.90720 
6 ,1.3621 ,0.85798 ,5.08634 ,49.90720 
7 ,1.5858 ,0.86019 ,5.05897 ,49.63857 
8 ,1.7940 ,0.86238 ,5.04185 ,49.47068 
9 ,1.9863 ,0.86423 ,5.03159 ,49.36995 
10 ,2.1784 ,0.86618 ,5.01790 ,49.23563 
11 ,2.3864 ,0.86830 ,4.98710 ,48.93343 
12 ,2.5784 ,0.87012 ,4.97683 ,48.83269 
13 ,2.8023 ,0.87232 ,4.94946 ,48.56407 
14 ,2.9942 ,0.87433 ,4.92550 ,48.32902 
15 ,3.2028 ,0.87638 ,4.90497 ,48.12755 
16 ,3.4267 ,0.87854 ,4.87075 ,47.79177 
17 ,3.6346 ,0.88073 ,4.85706 ,47.65745 
18 ,3.8430 ,0.88277 ,4.83652 ,47.45598 
19 ,4.0512 ,0.88490 ,4.79204 ,47.01946 
20 ,4.2751 ,0.88707 ,4.79546 ,47.05304 
21 ,4.4834 ,0.88918 ,4.78177 ,46.91873 
22 ,4.7072 ,0.89134 ,4.74413 ,46.54937 
23 ,4.9154 ,0.89354 ,4.72017 ,46.31432 
24 ,5.1233 ,0.89555 ,4.69964 ,46.11285 
25 ,5.3313 ,0.89762 ,4.66542 ,45.77707 
26 ,5.5237 ,0.89957 ,4.65857 ,45.70991 
27 ,5.7158 ,0.90150 ,4.63462 ,45.47486 
28 ,5.9238 ,0.90358 ,4.62777 ,45.40771 
29 ,6.1159 ,0.90551 ,4.59355 ,45.07192 
30 ,6.3236 ,0.90765 ,4.58671 ,45.00477 
31 ,6.5318 ,0.90960 ,4.54222 ,44.56825 
32 ,6.7402 ,0.91169 ,4.54222 ,44.56825 
33 ,6.9643 ,0.91395 ,4.49431 ,44.09815 
34 ,7.1724 ,0.91599 ,4.47035 ,43.86310 
35 ,7.3804 ,0.91814 ,4.46693 ,43.82953 
36 ,7.5885 ,0.92021 ,4.42244 ,43.39301 
37 ,7.8286 ,0.92257 ,4.41218 ,43.29227 
38 ,8.0366 ,0.92473 ,4.38822 ,43.05723 
39 ,8.2288 ,0.92663 ,4.36084 ,42.78860 
40 ,8.4367 ,0.92864 ,4.36427 ,42.82218 
41 ,8.6127 ,0.93061 ,4.32662 ,42.45282 
42 ,8.8051 ,0.93238 ,4.29924 ,42.18419 
43 ,9.0289 ,0.93461 ,4.26845 ,41.88198 
44 ,9.2371 ,0.93663 ,4.26845 ,41.88198 
45 ,9.4294 ,0.93865 ,4.22053 ,41.41189 
46 ,9.6530 ,0.94081 ,4.21027 ,41.31115 
47 ,9.8616 ,0.94294 ,4.21027 ,41.31115 
48 ,10.0854 ,0.94515 ,4.16920 ,40.90821 
49 ,10.2776 ,0.94708 ,4.14867 ,40.70674 
50 ,10.4856 ,0.94916 ,4.13498 ,40.57243 
51 ,10.6937 ,0.95127 ,4.10418 ,40.27023 
52 ,10.8856 ,0.95321 ,4.09734 ,40.20307 
53 ,11.0940 ,0.95524 ,4.06654 ,39.90087 
54 ,11.3336 ,0.95754 ,4.06996 ,39.93444 
55 ,11.5418 ,0.95971 ,4.04600 ,39.69940 
56 ,11.7339 ,0.96162 ,4.00152 ,39.26288 
57 ,11.9259 ,0.96358 ,3.99125 ,39.16214 
58 ,12.1183 ,0.96550 ,3.99809 ,39.22930 
59 ,12.3264 ,0.96754 ,3.96045 ,38.85994 
60 ,12.5186 ,0.96949 ,3.94676 ,38.72562 
61 ,12.7264 ,0.97153 ,3.90570 ,38.32268 
62 ,12.9345 ,0.97360 ,3.88516 ,38.12122 
63 ,13.1429 ,0.97572 ,3.87832 ,38.05406 
64 ,13.3512 ,0.97782 ,3.84752 ,37.75185 
65 ,13.5750 ,0.97999 ,3.84067 ,37.68470 
66 ,13.7832 ,0.98214 ,3.81672 ,37.44965 
67 ,13.9912 ,0.98417 ,3.77565 ,37.04671 
68 ,14.1992 ,0.98623 ,3.76881 ,36.97955 
69 ,14.4072 ,0.98837 ,3.75854 ,36.87882 
70 ,14.6154 ,0.99042 ,3.73117 ,36.61019 
71 ,14.8075 ,0.99238 ,3.70721 ,36.37514 
72 ,15.0157 ,0.99448 ,3.67983 ,36.10652 
73 ,15.2235 ,0.99649 ,3.66272 ,35.93863 
74 ,15.4158 ,0.99844 ,3.64219 ,35.73716 
75 ,15.6239 ,1.00054 ,3.62508 ,35.56926 
76 ,15.8482 ,1.00265 ,3.59086 ,35.23348 
77 ,16.0722 ,1.00496 ,3.57375 ,35.06559 
78 ,16.2637 ,1.00697 ,3.57375 ,35.06559 
79 ,16.4723 ,1.00905 ,3.52926 ,34.62907 
80 ,16.6962 ,1.01125 ,3.52241 ,34.56192 
81 ,16.9045 ,1.01328 ,3.49504 ,34.29329 
82 ,17.1285 ,1.01549 ,3.47108 ,34.05824 
83 ,17.3524 ,1.01767 ,3.44713 ,33.82319 
84 ,17.5608 ,1.01991 ,3.44028 ,33.75604 
85 ,17.7849 ,1.02218 ,3.40606 ,33.42025 
86 ,18.0249 ,1.02438 ,3.37184 ,33.08447 
87 ,18.2811 ,1.02707 ,3.36157 ,32.98374 
88 ,18.5047 ,1.02922 ,3.32051 ,32.58080 
89 ,18.7132 ,1.03144 ,3.29997 ,32.37933 
90 ,18.9214 ,1.03354 ,3.29313 ,32.31217 
91 ,19.1453 ,1.03568 ,3.27944 ,32.17786 
92 ,19.3535 ,1.03777 ,3.22811 ,31.67418 
93 ,19.5456 ,1.03976 ,3.23153 ,31.70776 
94 ,19.7536 ,1.04182 ,3.20073 ,31.40555 
95 ,19.9618 ,1.04380 ,3.19731 ,31.37198 
96 ,20.1698 ,1.04603 ,3.15966 ,31.00262 
97 ,20.3939 ,1.04816 ,3.13571 ,30.76757 
98 ,20.5859 ,1.05023 ,3.14940 ,30.90188 
99 ,20.7777 ,1.05205 ,3.10833 ,30.49894 
100 ,20.9861 ,1.05413 ,3.11518 ,30.56610 
101 ,21.1780 ,1.05606 ,3.07069 ,30.12958 
102 ,21.3864 ,1.05811 ,3.07069 ,30.12958 
103 ,21.5943 ,1.06017 ,3.03304 ,29.76022 
104 ,21.8025 ,1.06233 ,3.03304 ,29.76022 
105 ,22.0268 ,1.06456 ,2.99198 ,29.35728 
106 ,22.2348 ,1.06664 ,2.97144 ,29.15581 
107 ,22.4428 ,1.06865 ,2.96460 ,29.08865 
108 ,22.6345 ,1.07060 ,2.92353 ,28.68571 
109 ,22.8425 ,1.07267 ,2.92353 ,28.68571 
110 ,23.0345 ,1.07471 ,2.89616 ,28.41709 
111 ,23.2429 ,1.07661 ,2.89273 ,28.38351 
112 ,23.4833 ,1.07913 ,2.86193 ,28.08130 
113 ,23.6912 ,1.08111 ,2.83798 ,27.84625 
114 ,23.8994 ,1.08321 ,2.82771 ,27.74552 
115 ,24.1071 ,1.08527 ,2.79349 ,27.40974 
116 ,24.3317 ,1.08748 ,2.77638 ,27.24185 
117 ,24.5396 ,1.08971 ,2.77638 ,27.24185 
118 ,24.7477 ,1.09169 ,2.74558 ,26.93964 
119 ,24.9558 ,1.09378 ,2.73874 ,26.87248 
120 ,25.1478 ,1.09572 ,2.71478 ,26.63744 
121 ,25.3560 ,1.09785 ,2.68398 ,26.33523 
122 ,25.5480 ,1.09976 ,2.68740 ,26.36881 
123 ,25.7723 ,1.10193 ,2.65660 ,26.06661 
124 ,25.9804 ,1.10404 ,2.66345 ,26.13376 
125 ,26.1884 ,1.10611 ,2.63265 ,25.83156 
126 ,26.4120 ,1.10831 ,2.60869 ,25.59651 
127 ,26.6040 ,1.11026 ,2.61554 ,25.66367 
128 ,26.7966 ,1.11219 ,2.59843 ,25.49577 
129 ,27.0045 ,1.11429 ,2.58816 ,25.39504 
130 ,27.1969 ,1.11624 ,2.55394 ,25.05926 
131 ,27.4207 ,1.11840 ,2.54025 ,24.92494 
132 ,27.6290 ,1.12057 ,2.51630 ,24.68989 
133 ,27.8531 ,1.12274 ,2.48892 ,24.42127 
134 ,28.0453 ,1.12474 ,2.49576 ,24.48842 
135 ,28.2532 ,1.12669 ,2.45812 ,24.11906 
136 ,28.4452 ,1.12872 ,2.46496 ,24.18622 
137 ,28.6373 ,1.13057 ,2.44101 ,23.95117 
138 ,28.8295 ,1.13251 ,2.42048 ,23.74970 
139 ,29.0375 ,1.13459 ,2.40336 ,23.58181 
140 ,29.2617 ,1.13684 ,2.40336 ,23.58181 
141 ,29.4697 ,1.13895 ,2.35888 ,23.14529 
142 ,29.6934 ,1.14114 ,2.34177 ,22.97740 
143 ,29.9177 ,1.14341 ,2.33492 ,22.91024 
144 ,30.1259 ,1.14542 ,2.31097 ,22.67520 
145 ,30.3341 ,1.14755 ,2.30070 ,22.57446 
146 ,30.5261 ,1.14963 ,2.30070 ,22.57446 
147 ,30.7339 ,1.15161 ,2.26306 ,22.20510 
148 ,30.9425 ,1.15366 ,2.25963 ,22.17152 
149 ,31.1505 ,1.15573 ,2.23226 ,21.90290 
150 ,31.3585 ,1.15778 ,2.22199 ,21.80216 
151 ,31.5667 ,1.15992 ,2.20830 ,21.66785 
152 ,31.7906 ,1.16198 ,2.18092 ,21.39922 
153 ,32.0147 ,1.16437 ,2.16381 ,21.23133 
154 ,32.2387 ,1.16654 ,2.16381 ,21.23133 
155 ,32.4468 ,1.16868 ,2.12275 ,20.82839 
156 ,32.6552 ,1.17081 ,2.10564 ,20.66050 
157 ,32.8633 ,1.17282 ,2.10906 ,20.69408 
158 ,33.0553 ,1.17485 ,2.07484 ,20.35829 
159 ,33.2473 ,1.17671 ,2.06115 ,20.22398 
160 ,33.4394 ,1.17859 ,2.06457 ,20.25756 
161 ,33.6315 ,1.18055 ,2.03035 ,19.92178 
162 ,33.8558 ,1.18276 ,2.03035 ,19.92178 
163 ,34.0793 ,1.18498 ,2.02350 ,19.85462 
164 ,34.2877 ,1.18706 ,1.98928 ,19.51884 
165 ,34.4957 ,1.18921 ,1.97559 ,19.38452 
166 ,34.6879 ,1.19109 ,1.95506 ,19.18305 
167 ,34.8959 ,1.19320 ,1.94137 ,19.04874 
168 ,35.0879 ,1.19509 ,1.92084 ,18.84727 
169 ,35.3123 ,1.19728 ,1.91742 ,18.81369 
170 ,35.5203 ,1.19945 ,1.89688 ,18.61222 
171 ,35.7284 ,1.20149 ,1.86266 ,18.27644 
172 ,35.9363 ,1.20359 ,1.86608 ,18.31002 
173 ,36.1447 ,1.20565 ,1.84213 ,18.07497 
174 ,36.3682 ,1.20780 ,1.80449 ,17.70561 
175 ,36.5607 ,1.20980 ,1.82844 ,17.94066 
176 ,36.7687 ,1.21191 ,1.78395 ,17.50414 
177 ,36.9766 ,1.21394 ,1.79422 ,17.60487 
178 ,37.1689 ,1.21594 ,1.75657 ,17.23551 
179 ,37.3767 ,1.21799 ,1.74631 ,17.13478 
180 ,37.6012 ,1.22012 ,1.72235 ,16.89973 
181 ,37.8249 ,1.22241 ,1.70524 ,16.73184 
182 ,38.0492 ,1.22454 ,1.69840 ,16.66468 
183 ,38.2574 ,1.22674 ,1.69155 ,16.59752 
184 ,38.4654 ,1.22881 ,1.65391 ,16.22816 
185 ,38.6736 ,1.23092 ,1.65049 ,16.19458 
186 ,38.8817 ,1.23299 ,1.64707 ,16.16101 
187 ,39.0897 ,1.23512 ,1.61284 ,15.82522 
188 ,39.2815 ,1.23706 ,1.61627 ,15.85880 
189 ,39.4739 ,1.23897 ,1.59573 ,15.65733 
190 ,39.6656 ,1.24093 ,1.58547 ,15.55660 
191 ,39.8742 ,1.24292 ,1.55467 ,15.25439 
192 ,40.0663 ,1.24499 ,1.55467 ,15.25439 
193 ,40.2743 ,1.24691 ,1.52729 ,14.98577 
194 ,40.5141 ,1.24936 ,1.49649 ,14.68356 
195 ,40.7221 ,1.25141 ,1.49991 ,14.71714 
196 ,40.9305 ,1.25354 ,1.48280 ,14.54925 
197 ,41.1386 ,1.25558 ,1.47596 ,14.48209 
198 ,41.3625 ,1.25778 ,1.45200 ,14.24704 
199 ,41.5707 ,1.25994 ,1.42462 ,13.97842 
200 ,41.7788 ,1.26194 ,1.43147 ,14.04557 
201 ,41.9866 ,1.26408 ,1.39383 ,13.67621 
202 ,42.1950 ,1.26612 ,1.39725 ,13.70979 
203 ,42.4030 ,1.26820 ,1.37671 ,13.50832 
204 ,42.6111 ,1.27023 ,1.35618 ,13.30685 
205 ,42.7872 ,1.27220 ,1.35960 ,13.34043 
206 ,42.9949 ,1.27414 ,1.32880 ,13.03822 
207 ,43.2033 ,1.27622 ,1.32538 ,13.00465 
208 ,43.4115 ,1.27832 ,1.28774 ,12.63528 
209 ,43.6033 ,1.28027 ,1.29116 ,12.66886 
210 ,43.8276 ,1.28239 ,1.25352 ,12.29950 
211 ,44.0198 ,1.28437 ,1.26720 ,12.43381 
212 ,44.2437 ,1.28666 ,1.22614 ,12.03088 
213 ,44.4677 ,1.28886 ,1.22272 ,11.99730 
214 ,44.6761 ,1.29088 ,1.22272 ,11.99730 
215 ,44.9002 ,1.29311 ,1.20561 ,11.82941 
216 ,45.1080 ,1.29521 ,1.17138 ,11.49362 
217 ,45.3001 ,1.29730 ,1.16112 ,11.39289 
218 ,45.4763 ,1.29906 ,1.14058 ,11.19142 
219 ,45.6844 ,1.30094 ,1.12005 ,10.98995 
220 ,45.8924 ,1.30310 ,1.11663 ,10.95637 
221 ,46.1003 ,1.30511 ,1.10294 ,10.82206 
222 ,46.2924 ,1.30712 ,1.08583 ,10.65416 
223 ,46.5007 ,1.30921 ,1.07899 ,10.58701 
224 ,46.7249 ,1.31141 ,1.06187 ,10.41912 
225 ,46.9330 ,1.31348 ,1.06530 ,10.45270 
226 ,47.1411 ,1.31559 ,1.04476 ,10.25123 
227 ,47.3331 ,1.31753 ,1.03108 ,10.11691 
228 ,47.5410 ,1.31955 ,1.00712 ,9.88186 
229 ,47.7491 ,1.32167 ,0.98317 ,9.64682 
230 ,47.9414 ,1.32361 ,0.99001 ,9.71397 
231 ,48.1334 ,1.32557 ,0.95237 ,9.34461 
232 ,48.3255 ,1.32745 ,0.95237 ,9.34461 
233 ,48.5331 ,1.32954 ,0.93183 ,9.14314 
234 ,48.7417 ,1.33156 ,0.93183 ,9.14314 
235 ,48.9498 ,1.33369 ,0.89761 ,8.80736 
236 ,49.1577 ,1.33578 ,0.91472 ,8.97525 
237 ,49.3498 ,1.33764 ,0.87366 ,8.57231 
238 ,49.5420 ,1.33957 ,0.88392 ,8.67305 
239 ,49.7499 ,1.34164 ,0.85654 ,8.40442 
240 ,49.9582 ,1.34379 ,0.85312 ,8.37084 
241 ,50.1659 ,1.34579 ,0.82917 ,8.13579 
242 ,50.3583 ,1.34773 ,0.83601 ,8.20295 
243 ,50.5661 ,1.34978 ,0.79837 ,7.83359 
244 ,50.7740 ,1.35182 ,0.79495 ,7.80001 
245 ,50.9986 ,1.35416 ,0.78810 ,7.73285 
246 ,51.2226 ,1.35631 ,0.76415 ,7.49780 
247 ,51.4148 ,1.35834 ,0.76757 ,7.53138 
248 ,51.6229 ,1.36032 ,0.73677 ,7.22918 
249 ,51.8306 ,1.36247 ,0.71624 ,7.02771 
250 ,52.0391 ,1.36452 ,0.72992 ,7.16202 
251 ,52.2632 ,1.36678 ,0.69570 ,6.82624 
252 ,52.4553 ,1.36878 ,0.67859 ,6.65835 
253 ,52.6634 ,1.37079 ,0.67175 ,6.59119 
254 ,52.8714 ,1.37290 ,0.64779 ,6.35614 
255 ,53.0794 ,1.37485 ,0.65806 ,6.45688 
256 ,53.2877 ,1.37703 ,0.62384 ,6.12109 
257 ,53.5117 ,1.37920 ,0.61357 ,6.02036 
258 ,53.7198 ,1.38133 ,0.61699 ,6.05394 
259 ,53.9276 ,1.38335 ,0.58619 ,5.75173 
260 ,54.1034 ,1.38530 ,0.59304 ,5.81889 
261 ,54.3120 ,1.38719 ,0.56566 ,5.55026 
262 ,54.5361 ,1.38944 ,0.56908 ,5.58384 
263 ,54.7602 ,1.39173 ,0.53828 ,5.28164 
264 ,54.9680 ,1.39376 ,0.50748 ,4.97943 
265 ,55.1760 ,1.39584 ,0.52117 ,5.11375 
266 ,55.3843 ,1.39794 ,0.49722 ,4.87870 
267 ,55.5764 ,1.39991 ,0.49380 ,4.84512 
268 ,55.7686 ,1.40183 ,0.46984 ,4.61007 
269 ,55.9927 ,1.40389 ,0.48011 ,4.71081 
270 ,56.2008 ,1.40609 ,0.43904 ,4.30787 
271 ,56.4246 ,1.40838 ,0.42877 ,4.20713 
272 ,56.6327 ,1.41046 ,0.41509 ,4.07282 
273 ,56.8411 ,1.41255 ,0.40140 ,3.93850 
274 ,57.0490 ,1.41463 ,0.38086 ,3.73703 
275 ,57.2413 ,1.41651 ,0.39113 ,3.83777 
276 ,57.4651 ,1.41874 ,0.35691 ,3.50199 
277 ,57.6731 ,1.42084 ,0.36375 ,3.56914 
278 ,57.8653 ,1.42278 ,0.34322 ,3.36767 
279 ,58.0574 ,1.42466 ,0.34664 ,3.40125 
280 ,58.2496 ,1.42661 ,0.30900 ,3.03189 
281 ,58.4573 ,1.42865 ,0.32269 ,3.16620 
282 ,58.6658 ,1.43077 ,0.28847 ,2.83042 
283 ,58.8738 ,1.43284 ,0.29873 ,2.93116 
284 ,59.0661 ,1.43476 ,0.26451 ,2.59537 
285 ,59.2580 ,1.43670 ,0.27820 ,2.72969 
286 ,59.4502 ,1.43864 ,0.25767 ,2.52822 
287 ,59.6578 ,1.44065 ,0.26451 ,2.59537 
288 ,59.8665 ,1.44276 ,0.22344 ,2.19243 
289 ,60.0745 ,1.44488 ,0.22344 ,2.19243 
290 ,60.2665 ,1.44680 ,0.20291 ,1.99096 
291 ,60.4746 ,1.44883 ,0.20291 ,1.99096 
292 ,60.6826 ,1.45100 ,0.18922 ,1.85665 
293 ,60.9065 ,1.45314 ,0.17211 ,1.68876 
294 ,61.1148 ,1.45519 ,0.17896 ,1.75592 
295 ,61.3228 ,1.45731 ,0.14816 ,1.45371 
296 ,61.5311 ,1.45939 ,0.11736 ,1.15151 
297 ,61.7390 ,1.46145 ,0.12420 ,1.21866 
298 ,61.9472 ,1.46358 ,0.10709 ,1.05077 
299 ,62.1714 ,1.46581 ,0.11393 ,1.11793 
300 ,62.4115 ,1.46815 ,0.09682 ,0.95004 
301 ,62.6354 ,1.47046 ,0.08998 ,0.88288 
302 ,62.8439 ,1.47253 ,0.05918 ,0.58067 
303 ,63.0515 ,1.47461 ,0.04891 ,0.47994 
304 ,63.2597 ,1.47674 ,0.04891 ,0.47994 
305 ,63.4679 ,1.47879 ,0.02496 ,0.24489 
306 ,63.6757 ,1.48083 ,0.03522 ,0.34563 
307 ,63.8838 ,1.48303 ,0.01127 ,0.11058 
308 ,64.0757 ,1.48484 ,0.01127 ,0.11058 
309 ,64.3001 ,1.48698 ,-0.02637 ,-0.25878 
310 ,64.5242 ,1.48933 ,-0.04348 ,-0.42667 
311 ,64.7163 ,1.49128 ,-0.02637 ,-0.25878 
312 ,64.9244 ,1.49330 ,-0.05717 ,-0.56099 
313 ,65.1321 ,1.49547 ,-0.04691 ,-0.46025 
314 ,65.3406 ,1.49752 ,-0.07428 ,-0.72888 
315 ,65.5487 ,1.49964 ,-0.08797 ,-0.86319 
316 ,65.7568 ,1.50162 ,-0.07771 ,-0.76246 
317 ,65.9647 ,1.50370 ,-0.10851 ,-1.06466 
318 ,66.1568 ,1.50567 ,-0.10166 ,-0.99751 
319 ,66.3648 ,1.50778 ,-0.12904 ,-1.26613 
320 ,66.5570 ,1.50963 ,-0.12219 ,-1.19898 
321 ,66.7491 ,1.51159 ,-0.15299 ,-1.50118 
322 ,66.9410 ,1.51348 ,-0.14957 ,-1.46760 
323 ,67.1491 ,1.51551 ,-0.16668 ,-1.63549 
324 ,67.3571 ,1.51762 ,-0.17353 ,-1.70265 
325 ,67.5657 ,1.51981 ,-0.18722 ,-1.83696 
326 ,67.7896 ,1.52195 ,-0.19748 ,-1.93770 
327 ,67.9977 ,1.52406 ,-0.21117 ,-2.07201 
328 ,68.2057 ,1.52616 ,-0.22828 ,-2.23990 
329 ,68.4138 ,1.52816 ,-0.22486 ,-2.20632 
330 ,68.6218 ,1.53026 ,-0.25908 ,-2.54211 
331 ,68.8298 ,1.53233 ,-0.25224 ,-2.47495 
332 ,69.0061 ,1.53428 ,-0.26250 ,-2.57569 
333 ,69.2142 ,1.53626 ,-0.25566 ,-2.50853 
334 ,69.4223 ,1.53829 ,-0.28304 ,-2.77716 
335 ,69.6459 ,1.54052 ,-0.29330 ,-2.87789 
336 ,69.8384 ,1.54250 ,-0.29330 ,-2.87789 
337 ,70.0464 ,1.54453 ,-0.32068 ,-3.14652 
338 ,70.2383 ,1.54650 ,-0.31726 ,-3.11294 
339 ,70.4467 ,1.54851 ,-0.32410 ,-3.18010 
340 ,70.6547 ,1.55059 ,-0.33437 ,-3.28083 
341 ,70.8628 ,1.55265 ,-0.36175 ,-3.54946 
342 ,71.0710 ,1.55479 ,-0.35832 ,-3.51588 
343 ,71.2786 ,1.55683 ,-0.38570 ,-3.78450 
344 ,71.4867 ,1.55889 ,-0.39255 ,-3.85166 
345 ,71.6628 ,1.56084 ,-0.38228 ,-3.75093 
346 ,71.8707 ,1.56273 ,-0.38570 ,-3.78450 
347 ,72.0791 ,1.56488 ,-0.41650 ,-4.08671 
348 ,72.2874 ,1.56699 ,-0.43019 ,-4.22102 
349 ,72.5115 ,1.56906 ,-0.42335 ,-4.15387 
350 ,72.7357 ,1.57139 ,-0.43361 ,-4.25460 
351 ,72.9273 ,1.57348 ,-0.46441 ,-4.55681 
352 ,73.1358 ,1.57540 ,-0.45414 ,-4.45607 
353 ,73.3599 ,1.57756 ,-0.47810 ,-4.69112 
354 ,73.6000 ,1.57986 ,-0.48837 ,-4.79185 
355 ,73.8401 ,1.58232 ,-0.49863 ,-4.89259 
356 ,74.0638 ,1.58464 ,-0.51574 ,-5.06048 
357 ,74.2723 ,1.58683 ,-0.50890 ,-4.99332 
358 ,74.4963 ,1.58900 ,-0.51574 ,-5.06048 
359 ,74.7045 ,1.59114 ,-0.54997 ,-5.39626 
360 ,74.9126 ,1.59311 ,-0.54312 ,-5.32911 
361 ,75.1207 ,1.59531 ,-0.55339 ,-5.42984 
362 ,75.3608 ,1.59755 ,-0.57392 ,-5.63131 
363 ,75.5848 ,1.59986 ,-0.58077 ,-5.69847 
364 ,75.7930 ,1.60200 ,-0.58761 ,-5.76562 
365 ,76.0010 ,1.60414 ,-0.58419 ,-5.73205 
366 ,76.2091 ,1.60617 ,-0.61499 ,-6.03425 
367 ,76.4169 ,1.60818 ,-0.60814 ,-5.96709 
368 ,76.6092 ,1.61015 ,-0.63552 ,-6.23572 
369 ,76.8333 ,1.61236 ,-0.62868 ,-6.16856 
370 ,77.0254 ,1.61432 ,-0.64921 ,-6.37003 
371 ,77.2335 ,1.61642 ,-0.64921 ,-6.37003 
372 ,77.4251 ,1.61841 ,-0.67316 ,-6.60508 
373 ,77.6337 ,1.62037 ,-0.66290 ,-6.50435 
374 ,77.8418 ,1.62243 ,-0.68001 ,-6.67224 
375 ,78.0659 ,1.62465 ,-0.70054 ,-6.87371 
376 ,78.2739 ,1.62672 ,-0.68685 ,-6.73940 
377 ,78.4661 ,1.62873 ,-0.72450 ,-7.10876 
378 ,78.6900 ,1.63098 ,-0.72450 ,-7.10876 
379 ,78.9142 ,1.63318 ,-0.73134 ,-7.17591 
380 ,79.1221 ,1.63526 ,-0.75187 ,-7.37738 
381 ,79.3303 ,1.63740 ,-0.76556 ,-7.51170 
382 ,79.5383 ,1.63944 ,-0.75530 ,-7.41096 
383 ,79.7146 ,1.64132 ,-0.76214 ,-7.47812 
384 ,79.9066 ,1.64307 ,-0.77925 ,-7.64601 
385 ,80.0987 ,1.64510 ,-0.77925 ,-7.64601 
386 ,80.3227 ,1.64724 ,-0.80663 ,-7.91464 
387 ,80.4987 ,1.64918 ,-0.79636 ,-7.81390 
388 ,80.6746 ,1.65092 ,-0.82032 ,-8.04895 
389 ,80.8830 ,1.65290 ,-0.84085 ,-8.25042 
390 ,81.1068 ,1.65504 ,-0.84085 ,-8.25042 
391 ,81.3151 ,1.65718 ,-0.82374 ,-8.08253 
392 ,81.5230 ,1.65924 ,-0.86823 ,-8.51904 
393 ,81.7314 ,1.66129 ,-0.83743 ,-8.21684 
394 ,81.9234 ,1.66336 ,-0.86823 ,-8.51904 
395 ,82.1155 ,1.66523 ,-0.86138 ,-8.45189 
396 ,82.3236 ,1.66721 ,-0.90245 ,-8.85483 
397 ,82.5316 ,1.66931 ,-0.88192 ,-8.65336 
398 ,82.7238 ,1.67128 ,-0.92298 ,-9.05630 
399 ,82.9154 ,1.67329 ,-0.88534 ,-8.68694 
400 ,83.1234 ,1.67529 ,-0.92983 ,-9.12345 
401 ,83.3315 ,1.67733 ,-0.91272 ,-8.95556 
402 ,83.5234 ,1.67937 ,-0.95378 ,-9.35850 
403 ,83.7321 ,1.68135 ,-0.93667 ,-9.19061 
404 ,83.9565 ,1.68359 ,-0.95720 ,-9.39208 
405 ,84.1802 ,1.68581 ,-0.97774 ,-9.59355 
406 ,84.3885 ,1.68792 ,-0.98458 ,-9.66071 
407 ,84.6444 ,1.69023 ,-0.97774 ,-9.59355 
408 ,84.8685 ,1.69267 ,-0.99143 ,-9.72786 
409 ,85.0608 ,1.69469 ,-1.00511 ,-9.86218 
410 ,85.2845 ,1.69681 ,-1.02907 ,-10.09723 
411 ,85.4926 ,1.69893 ,-1.01880 ,-9.99649 
412 ,85.6848 ,1.70092 ,-1.04276 ,-10.23154 
413 ,85.9090 ,1.70305 ,-1.02907 ,-10.09723 
414 ,86.1012 ,1.70505 ,-1.05987 ,-10.39943 
415 ,86.2928 ,1.70703 ,-1.04960 ,-10.29869 
416 ,86.5014 ,1.70897 ,-1.07356 ,-10.53374 
417 ,86.7255 ,1.71126 ,-1.08040 ,-10.60090 
418 ,86.9493 ,1.71349 ,-1.08040 ,-10.60090 
419 ,87.1413 ,1.71538 ,-1.10093 ,-10.80237 
420 ,87.3654 ,1.71763 ,-1.10778 ,-10.86953 
421 ,87.5896 ,1.71987 ,-1.09751 ,-10.76879 
422 ,87.7978 ,1.72209 ,-1.11805 ,-10.97026 
423 ,87.9896 ,1.72391 ,-1.12831 ,-11.07100 
424 ,88.1981 ,1.72595 ,-1.13173 ,-11.10457 
425 ,88.4220 ,1.72825 ,-1.15911 ,-11.37320 
426 ,88.6303 ,1.73024 ,-1.14200 ,-11.20531 
427 ,88.8546 ,1.73252 ,-1.15227 ,-11.30604 
428 ,89.0622 ,1.73461 ,-1.17622 ,-11.54109 
429 ,89.2706 ,1.73666 ,-1.16938 ,-11.47394 
430 ,89.4784 ,1.73879 ,-1.18991 ,-11.67541 
431 ,89.7026 ,1.74099 ,-1.21044 ,-11.87688 
432 ,89.9107 ,1.74302 ,-1.18991 ,-11.67541 
433 ,90.1185 ,1.74513 ,-1.23098 ,-12.07834 
434 ,90.3429 ,1.74742 ,-1.22755 ,-12.04477 
435 ,90.5509 ,1.74949 ,-1.22413 ,-12.01119 
436 ,90.7589 ,1.75150 ,-1.24467 ,-12.21266 
437 ,90.9513 ,1.75356 ,-1.23440 ,-12.11192 
438 ,91.1751 ,1.75567 ,-1.25835 ,-12.34697 
439 ,91.3673 ,1.75767 ,-1.26862 ,-12.44771 
440 ,91.5915 ,1.75975 ,-1.27889 ,-12.54844 
441 ,91.7830 ,1.76191 ,-1.30284 ,-12.78349 
442 ,91.9917 ,1.76391 ,-1.27889 ,-12.54844 
443 ,92.2156 ,1.76611 ,-1.30284 ,-12.78349 
444 ,92.4238 ,1.76822 ,-1.31995 ,-12.95138 
445 ,92.6316 ,1.77029 ,-1.30969 ,-12.85065 
446 ,92.8395 ,1.77243 ,-1.34391 ,-13.18643 
447 ,93.0480 ,1.77449 ,-1.33706 ,-13.11927 
448 ,93.2563 ,1.77657 ,-1.34391 ,-13.18643 
449 ,93.4481 ,1.77858 ,-1.35760 ,-13.32074 
450 ,93.6561 ,1.78056 ,-1.36102 ,-13.35432 
451 ,93.8484 ,1.78247 ,-1.36444 ,-13.38790 
452 ,94.0722 ,1.78468 ,-1.36102 ,-13.35432 
453 ,94.2805 ,1.78679 ,-1.38497 ,-13.58937 
454 ,94.4885 ,1.78892 ,-1.35760 ,-13.32074 
455 ,94.7128 ,1.79103 ,-1.37471 ,-13.48863 
456 ,94.9207 ,1.79314 ,-1.39182 ,-13.65653 
457 ,95.1284 ,1.79524 ,-1.38497 ,-13.58937 
458 ,95.3531 ,1.79755 ,-1.38840 ,-13.62295 
459 ,95.5771 ,1.79970 ,-1.42604 ,-13.99231 
460 ,95.7852 ,1.80179 ,-1.43288 ,-14.05946 
