Data stamp = , 17-05-2022 11:15:31 289

Calibration Values: 
Slope = , 26.54 , g/V 
Offset Voltage at no contact = , -0.501760 , V 

No , Time , Stage Position ,   Mass , Force 
   ,  (s) ,      (mm)      ,   (g)  , (mN)  

1 ,0.0000 ,0.84973 ,5.13425 ,50.37729 
2 ,0.3590 ,0.85005 ,5.13425 ,50.37729 
3 ,0.7276 ,0.85171 ,5.14794 ,50.51161 
4 ,0.9518 ,0.85403 ,5.13425 ,50.37729 
5 ,1.1917 ,0.85621 ,5.14110 ,50.44445 
6 ,1.3834 ,0.85834 ,5.14110 ,50.44445 
7 ,1.5918 ,0.86034 ,5.11714 ,50.20940 
8 ,1.8001 ,0.86244 ,5.10688 ,50.10867 
9 ,2.0082 ,0.86458 ,5.08634 ,49.90720 
10 ,2.2161 ,0.86672 ,5.04185 ,49.47068 
11 ,2.4242 ,0.86870 ,5.04870 ,49.53784 
12 ,2.6325 ,0.87080 ,5.01106 ,49.16848 
13 ,2.8405 ,0.87292 ,5.00421 ,49.10132 
14 ,3.0487 ,0.87490 ,4.96999 ,48.76554 
15 ,3.2567 ,0.87703 ,4.95288 ,48.59764 
16 ,3.4647 ,0.87908 ,4.93919 ,48.46333 
17 ,3.6570 ,0.88108 ,4.90155 ,48.09397 
18 ,3.8489 ,0.88300 ,4.90155 ,48.09397 
19 ,4.0569 ,0.88504 ,4.87417 ,47.82534 
20 ,4.2652 ,0.88719 ,4.85364 ,47.62387 
21 ,4.4733 ,0.88921 ,4.80915 ,47.18736 
22 ,4.6649 ,0.89121 ,4.81599 ,47.25451 
23 ,4.8894 ,0.89329 ,4.78177 ,46.91873 
24 ,5.1136 ,0.89560 ,4.75439 ,46.65010 
25 ,5.3215 ,0.89766 ,4.74755 ,46.58295 
26 ,5.5136 ,0.89968 ,4.71675 ,46.28074 
27 ,5.7216 ,0.90163 ,4.70648 ,46.18001 
28 ,5.9298 ,0.90368 ,4.66199 ,45.74349 
29 ,6.1540 ,0.90599 ,4.64831 ,45.60918 
30 ,6.3621 ,0.90809 ,4.65857 ,45.70991 
31 ,6.5856 ,0.91029 ,4.60724 ,45.20624 
32 ,6.7779 ,0.91224 ,4.57986 ,44.93761 
33 ,6.9538 ,0.91416 ,4.56617 ,44.80330 
34 ,7.1621 ,0.91607 ,4.56275 ,44.76972 
35 ,7.3703 ,0.91816 ,4.52169 ,44.36678 
36 ,7.5784 ,0.92026 ,4.51142 ,44.26604 
37 ,7.7865 ,0.92228 ,4.48404 ,43.99742 
38 ,7.9943 ,0.92441 ,4.45324 ,43.69521 
39 ,8.2028 ,0.92654 ,4.46009 ,43.76237 
40 ,8.4267 ,0.92867 ,4.42586 ,43.42659 
41 ,8.6187 ,0.93066 ,4.41218 ,43.29227 
42 ,8.8268 ,0.93284 ,4.38822 ,43.05723 
43 ,9.0671 ,0.93496 ,4.33689 ,42.55355 
44 ,9.2909 ,0.93738 ,4.32320 ,42.41924 
45 ,9.4832 ,0.93941 ,4.31293 ,42.31850 
46 ,9.6911 ,0.94133 ,4.29240 ,42.11703 
47 ,9.9154 ,0.94362 ,4.26502 ,41.84841 
48 ,10.1235 ,0.94568 ,4.27529 ,41.94914 
49 ,10.3316 ,0.94779 ,4.22396 ,41.44547 
50 ,10.5075 ,0.94966 ,4.22396 ,41.44547 
51 ,10.7156 ,0.95157 ,4.19316 ,41.14326 
52 ,10.9077 ,0.95353 ,4.18289 ,41.04253 
53 ,11.1319 ,0.95566 ,4.15209 ,40.74032 
54 ,11.3396 ,0.95780 ,4.14183 ,40.63959 
55 ,11.5480 ,0.95993 ,4.11103 ,40.33738 
56 ,11.7722 ,0.96212 ,4.09049 ,40.13591 
57 ,11.9642 ,0.96413 ,4.09049 ,40.13591 
58 ,12.1723 ,0.96614 ,4.04258 ,39.66582 
59 ,12.3644 ,0.96812 ,4.04943 ,39.73297 
60 ,12.5722 ,0.97012 ,4.00494 ,39.29646 
61 ,12.7644 ,0.97212 ,3.99125 ,39.16214 
62 ,12.9726 ,0.97414 ,3.96729 ,38.92709 
63 ,13.1966 ,0.97634 ,3.96045 ,38.85994 
64 ,13.4048 ,0.97849 ,3.93650 ,38.62489 
65 ,13.6125 ,0.98051 ,3.90912 ,38.35626 
66 ,13.8208 ,0.98260 ,3.88858 ,38.15479 
67 ,14.0290 ,0.98468 ,3.86121 ,37.88617 
68 ,14.2532 ,0.98695 ,3.83725 ,37.65112 
69 ,14.4612 ,0.98905 ,3.83041 ,37.58396 
70 ,14.6690 ,0.99109 ,3.80645 ,37.34891 
71 ,14.8776 ,0.99319 ,3.77223 ,37.01313 
72 ,15.1014 ,0.99538 ,3.76196 ,36.91240 
73 ,15.3095 ,0.99751 ,3.72090 ,36.50946 
74 ,15.5013 ,0.99949 ,3.72774 ,36.57661 
75 ,15.7097 ,1.00147 ,3.69010 ,36.20725 
76 ,15.9018 ,1.00348 ,3.69352 ,36.24083 
77 ,16.1099 ,1.00551 ,3.64561 ,35.77073 
78 ,16.3180 ,1.00759 ,3.64903 ,35.80431 
79 ,16.5261 ,1.00963 ,3.61481 ,35.46853 
80 ,16.7180 ,1.01165 ,3.59428 ,35.26706 
81 ,16.9419 ,1.01383 ,3.58401 ,35.16632 
82 ,17.1504 ,1.01597 ,3.54295 ,34.76338 
83 ,17.3585 ,1.01799 ,3.52584 ,34.59549 
84 ,17.5666 ,1.02010 ,3.52241 ,34.56192 
85 ,17.7746 ,1.02214 ,3.49504 ,34.29329 
86 ,17.9828 ,1.02418 ,3.48477 ,34.19255 
87 ,18.2227 ,1.02657 ,3.43686 ,33.72246 
88 ,18.4468 ,1.02886 ,3.41633 ,33.52099 
89 ,18.6551 ,1.03094 ,3.40264 ,33.38667 
90 ,18.8789 ,1.03316 ,3.39579 ,33.31952 
91 ,19.0871 ,1.03526 ,3.37184 ,33.08447 
92 ,19.3111 ,1.03740 ,3.34788 ,32.84942 
93 ,19.5512 ,1.03979 ,3.33077 ,32.68153 
94 ,19.7758 ,1.04212 ,3.29997 ,32.37933 
95 ,19.9835 ,1.04419 ,3.26917 ,32.07712 
96 ,20.1757 ,1.04618 ,3.24180 ,31.80849 
97 ,20.3837 ,1.04820 ,3.23837 ,31.77492 
98 ,20.5757 ,1.05020 ,3.21100 ,31.50629 
99 ,20.7680 ,1.05212 ,3.18704 ,31.27124 
100 ,20.9759 ,1.05410 ,3.16651 ,31.06977 
101 ,21.1681 ,1.05613 ,3.14940 ,30.90188 
102 ,21.3757 ,1.05817 ,3.11860 ,30.59968 
103 ,21.5844 ,1.06023 ,3.12544 ,30.66683 
104 ,21.7922 ,1.06233 ,3.08095 ,30.23031 
105 ,22.0003 ,1.06437 ,3.08438 ,30.26389 
106 ,22.2082 ,1.06649 ,3.03989 ,29.82737 
107 ,22.4163 ,1.06861 ,3.03989 ,29.82737 
108 ,22.6245 ,1.07068 ,3.00224 ,29.45801 
109 ,22.8487 ,1.07282 ,2.98513 ,29.29012 
110 ,23.0408 ,1.07482 ,2.98513 ,29.29012 
111 ,23.2489 ,1.07683 ,2.93038 ,28.75287 
112 ,23.4730 ,1.07904 ,2.93722 ,28.82003 
113 ,23.6650 ,1.08111 ,2.91669 ,28.61856 
114 ,23.8567 ,1.08296 ,2.89616 ,28.41709 
115 ,24.0491 ,1.08489 ,2.84482 ,27.91341 
116 ,24.2413 ,1.08684 ,2.86193 ,28.08130 
117 ,24.4655 ,1.08906 ,2.80718 ,27.54405 
118 ,24.6731 ,1.09123 ,2.80376 ,27.51047 
119 ,24.8813 ,1.09317 ,2.79691 ,27.44332 
120 ,25.0896 ,1.09528 ,2.75927 ,27.07395 
121 ,25.2978 ,1.09734 ,2.75585 ,27.04038 
122 ,25.5056 ,1.09939 ,2.72505 ,26.73817 
123 ,25.7138 ,1.10150 ,2.70452 ,26.53670 
124 ,25.9380 ,1.10366 ,2.69083 ,26.40239 
125 ,26.1620 ,1.10596 ,2.67372 ,26.23450 
126 ,26.3861 ,1.10821 ,2.63607 ,25.86514 
127 ,26.5942 ,1.11031 ,2.62238 ,25.73082 
128 ,26.8020 ,1.11245 ,2.61212 ,25.63009 
129 ,27.0101 ,1.11448 ,2.60527 ,25.56293 
130 ,27.2182 ,1.11663 ,2.59843 ,25.49577 
131 ,27.4264 ,1.11859 ,2.55394 ,25.05926 
132 ,27.6346 ,1.12067 ,2.55736 ,25.09283 
133 ,27.8587 ,1.12296 ,2.54025 ,24.92494 
134 ,28.0668 ,1.12503 ,2.48892 ,24.42127 
135 ,28.2909 ,1.12722 ,2.48892 ,24.42127 
136 ,28.4990 ,1.12933 ,2.47181 ,24.25338 
137 ,28.7225 ,1.13160 ,2.44785 ,24.01833 
138 ,28.9306 ,1.13363 ,2.42732 ,23.81686 
139 ,29.1227 ,1.13561 ,2.43074 ,23.85044 
140 ,29.3311 ,1.13767 ,2.39994 ,23.54823 
141 ,29.5392 ,1.13974 ,2.39652 ,23.51465 
142 ,29.7313 ,1.14173 ,2.36572 ,23.21245 
143 ,29.9555 ,1.14388 ,2.35203 ,23.07814 
144 ,30.1791 ,1.14612 ,2.33834 ,22.94382 
145 ,30.3877 ,1.14822 ,2.30070 ,22.57446 
146 ,30.6117 ,1.15048 ,2.29728 ,22.54088 
147 ,30.8195 ,1.15249 ,2.28017 ,22.37299 
148 ,31.0116 ,1.15453 ,2.26648 ,22.23868 
149 ,31.2041 ,1.15645 ,2.23910 ,21.97005 
150 ,31.4601 ,1.15902 ,2.22199 ,21.80216 
151 ,31.6842 ,1.16118 ,2.20488 ,21.63427 
152 ,31.8924 ,1.16330 ,2.19119 ,21.49996 
153 ,32.1004 ,1.16546 ,2.18092 ,21.39922 
154 ,32.3086 ,1.16744 ,2.14328 ,21.02986 
155 ,32.5326 ,1.16969 ,2.15697 ,21.16417 
156 ,32.7567 ,1.17188 ,2.11932 ,20.79481 
157 ,32.9488 ,1.17387 ,2.09879 ,20.59334 
158 ,33.1730 ,1.17607 ,2.08510 ,20.45903 
159 ,33.3811 ,1.17813 ,2.07484 ,20.35829 
160 ,33.5730 ,1.18023 ,2.04746 ,20.08967 
161 ,33.7652 ,1.18203 ,2.02693 ,19.88820 
162 ,33.9571 ,1.18403 ,2.03035 ,19.92178 
163 ,34.1653 ,1.18598 ,2.00297 ,19.65315 
164 ,34.3733 ,1.18813 ,2.01666 ,19.78746 
165 ,34.5651 ,1.19009 ,1.97559 ,19.38452 
166 ,34.7735 ,1.19211 ,1.96190 ,19.25021 
167 ,34.9977 ,1.19435 ,1.95506 ,19.18305 
168 ,35.1898 ,1.19638 ,1.91057 ,18.74654 
169 ,35.3979 ,1.19832 ,1.91399 ,18.78011 
170 ,35.6056 ,1.20037 ,1.88319 ,18.47791 
171 ,35.8138 ,1.20247 ,1.88662 ,18.51149 
172 ,36.0219 ,1.20458 ,1.86608 ,18.31002 
173 ,36.2301 ,1.20668 ,1.83528 ,18.00781 
174 ,36.4381 ,1.20869 ,1.83871 ,18.04139 
175 ,36.6302 ,1.21081 ,1.80449 ,17.70561 
176 ,36.8379 ,1.21267 ,1.80106 ,17.67203 
177 ,37.0623 ,1.21481 ,1.78053 ,17.47056 
178 ,37.2706 ,1.21707 ,1.76000 ,17.26909 
179 ,37.4624 ,1.21903 ,1.73946 ,17.06762 
180 ,37.7022 ,1.22136 ,1.72920 ,16.96689 
181 ,37.9103 ,1.22343 ,1.71893 ,16.86615 
182 ,38.1349 ,1.22567 ,1.71209 ,16.79899 
183 ,38.3911 ,1.22827 ,1.68129 ,16.49679 
184 ,38.6148 ,1.23045 ,1.66760 ,16.36248 
185 ,38.8231 ,1.23254 ,1.62653 ,15.95954 
186 ,39.0148 ,1.23458 ,1.63680 ,16.06027 
187 ,39.2232 ,1.23656 ,1.60600 ,15.75807 
188 ,39.4634 ,1.23882 ,1.58889 ,15.59018 
189 ,39.6555 ,1.24099 ,1.59916 ,15.69091 
190 ,39.8795 ,1.24309 ,1.55809 ,15.28797 
191 ,40.0873 ,1.24513 ,1.55809 ,15.28797 
192 ,40.2958 ,1.24741 ,1.54440 ,15.15366 
193 ,40.5197 ,1.24949 ,1.50676 ,14.78430 
194 ,40.6958 ,1.25143 ,1.51360 ,14.85145 
195 ,40.9199 ,1.25347 ,1.48280 ,14.54925 
196 ,41.1280 ,1.25561 ,1.47253 ,14.44851 
197 ,41.3523 ,1.25787 ,1.46911 ,14.41493 
198 ,41.5764 ,1.26004 ,1.43489 ,14.07915 
199 ,41.7843 ,1.26217 ,1.41436 ,13.87768 
200 ,42.0084 ,1.26442 ,1.41436 ,13.87768 
201 ,42.2326 ,1.26665 ,1.39383 ,13.67621 
202 ,42.4885 ,1.26923 ,1.36645 ,13.40759 
203 ,42.7127 ,1.27146 ,1.36303 ,13.37401 
204 ,42.9209 ,1.27347 ,1.33565 ,13.10538 
205 ,43.1290 ,1.27554 ,1.32880 ,13.03822 
206 ,43.3531 ,1.27784 ,1.31169 ,12.87033 
207 ,43.5609 ,1.27995 ,1.27747 ,12.53455 
208 ,43.7852 ,1.28214 ,1.27063 ,12.46739 
209 ,43.9932 ,1.28424 ,1.27063 ,12.46739 
210 ,44.2013 ,1.28634 ,1.23298 ,12.09803 
211 ,44.4250 ,1.28855 ,1.21587 ,11.93014 
212 ,44.6334 ,1.29058 ,1.20561 ,11.82941 
213 ,44.8576 ,1.29285 ,1.19192 ,11.69509 
214 ,45.0332 ,1.29479 ,1.18850 ,11.66151 
215 ,45.2418 ,1.29671 ,1.15085 ,11.29215 
216 ,45.4339 ,1.29881 ,1.14743 ,11.25857 
217 ,45.6255 ,1.30065 ,1.12347 ,11.02353 
218 ,45.8341 ,1.30260 ,1.14058 ,11.19142 
219 ,46.0421 ,1.30483 ,1.10636 ,10.85563 
220 ,46.2343 ,1.30664 ,1.10636 ,10.85563 
221 ,46.4581 ,1.30886 ,1.07214 ,10.51985 
222 ,46.6662 ,1.31093 ,1.06187 ,10.41912 
223 ,46.8906 ,1.31313 ,1.04134 ,10.21765 
224 ,47.1144 ,1.31544 ,1.03108 ,10.11691 
225 ,47.3226 ,1.31751 ,1.01054 ,9.91544 
226 ,47.5147 ,1.31950 ,1.01739 ,9.98260 
227 ,47.7229 ,1.32149 ,0.98317 ,9.64682 
228 ,47.9308 ,1.32362 ,0.97974 ,9.61324 
229 ,48.1551 ,1.32581 ,0.95921 ,9.41177 
230 ,48.3632 ,1.32791 ,0.93183 ,9.14314 
231 ,48.5712 ,1.32998 ,0.93868 ,9.21030 
232 ,48.7793 ,1.33212 ,0.91130 ,8.94167 
233 ,48.9711 ,1.33412 ,0.89419 ,8.77378 
234 ,49.1635 ,1.33597 ,0.88050 ,8.63947 
235 ,49.3875 ,1.33817 ,0.87366 ,8.57231 
236 ,49.6115 ,1.34038 ,0.87366 ,8.57231 
237 ,49.8194 ,1.34250 ,0.83259 ,8.16937 
238 ,50.0113 ,1.34449 ,0.83601 ,8.20295 
239 ,50.2198 ,1.34655 ,0.80521 ,7.90074 
240 ,50.4278 ,1.34857 ,0.81548 ,8.00148 
241 ,50.6037 ,1.35048 ,0.78810 ,7.73285 
242 ,50.8120 ,1.35244 ,0.79152 ,7.76643 
243 ,51.0042 ,1.35445 ,0.76415 ,7.49780 
244 ,51.2122 ,1.35636 ,0.76415 ,7.49780 
245 ,51.4201 ,1.35850 ,0.72992 ,7.16202 
246 ,51.6286 ,1.36048 ,0.74704 ,7.32991 
247 ,51.8526 ,1.36280 ,0.72650 ,7.12844 
248 ,52.0768 ,1.36502 ,0.70597 ,6.92697 
249 ,52.2526 ,1.36697 ,0.68886 ,6.75908 
250 ,52.4448 ,1.36876 ,0.65464 ,6.42330 
251 ,52.6685 ,1.37086 ,0.66833 ,6.55761 
252 ,52.8770 ,1.37305 ,0.65464 ,6.42330 
253 ,53.1168 ,1.37548 ,0.62384 ,6.12109 
254 ,53.3247 ,1.37762 ,0.61357 ,6.02036 
255 ,53.5172 ,1.37947 ,0.60330 ,5.91962 
256 ,53.7254 ,1.38150 ,0.59304 ,5.81889 
257 ,53.9335 ,1.38357 ,0.57935 ,5.68458 
258 ,54.1255 ,1.38568 ,0.55882 ,5.48311 
259 ,54.3492 ,1.38771 ,0.56908 ,5.58384 
260 ,54.5736 ,1.38991 ,0.53144 ,5.21448 
261 ,54.7818 ,1.39210 ,0.51775 ,5.08017 
262 ,54.9899 ,1.39418 ,0.52459 ,5.14732 
263 ,55.2138 ,1.39644 ,0.49722 ,4.87870 
264 ,55.4220 ,1.39848 ,0.46642 ,4.57649 
265 ,55.6622 ,1.40081 ,0.48011 ,4.71081 
266 ,55.8864 ,1.40310 ,0.45615 ,4.47576 
267 ,56.0944 ,1.40519 ,0.44931 ,4.40860 
268 ,56.3025 ,1.40726 ,0.43220 ,4.24071 
269 ,56.5265 ,1.40950 ,0.42535 ,4.17355 
270 ,56.7345 ,1.41158 ,0.39797 ,3.90493 
271 ,56.9588 ,1.41384 ,0.38429 ,3.77061 
272 ,57.1664 ,1.41593 ,0.38771 ,3.80419 
273 ,57.3589 ,1.41788 ,0.36375 ,3.56914 
274 ,57.5666 ,1.41994 ,0.36375 ,3.56914 
275 ,57.7590 ,1.42186 ,0.32611 ,3.19978 
276 ,57.9512 ,1.42380 ,0.35006 ,3.43483 
277 ,58.1592 ,1.42578 ,0.31242 ,3.06547 
278 ,58.3832 ,1.42807 ,0.29873 ,2.93116 
279 ,58.5913 ,1.43014 ,0.29531 ,2.89758 
280 ,58.7830 ,1.43215 ,0.27478 ,2.69611 
281 ,58.9915 ,1.43419 ,0.28847 ,2.83042 
282 ,59.1997 ,1.43620 ,0.24740 ,2.42748 
283 ,59.4077 ,1.43835 ,0.26451 ,2.59537 
284 ,59.6156 ,1.44036 ,0.22344 ,2.19243 
285 ,59.8236 ,1.44243 ,0.23029 ,2.25959 
286 ,60.0320 ,1.44458 ,0.21660 ,2.12528 
287 ,60.2718 ,1.44686 ,0.19949 ,1.95738 
288 ,60.4801 ,1.44906 ,0.17553 ,1.72234 
289 ,60.6882 ,1.45114 ,0.18922 ,1.85665 
290 ,60.8960 ,1.45323 ,0.16527 ,1.62160 
291 ,61.1204 ,1.45536 ,0.17211 ,1.68876 
292 ,61.3445 ,1.45766 ,0.14816 ,1.45371 
293 ,61.5525 ,1.45977 ,0.13447 ,1.31940 
294 ,61.7446 ,1.46170 ,0.11393 ,1.11793 
295 ,61.9528 ,1.46381 ,0.11051 ,1.08435 
296 ,62.1607 ,1.46583 ,0.09340 ,0.91646 
297 ,62.3527 ,1.46780 ,0.07971 ,0.78214 
298 ,62.5607 ,1.46986 ,0.07287 ,0.71499 
299 ,62.7690 ,1.47196 ,0.07287 ,0.71499 
300 ,62.9773 ,1.47395 ,0.04549 ,0.44636 
301 ,63.2008 ,1.47623 ,0.03180 ,0.31205 
302 ,63.4093 ,1.47831 ,0.04891 ,0.47994 
303 ,63.6170 ,1.48037 ,0.00443 ,0.04342 
304 ,63.8093 ,1.48241 ,0.01811 ,0.17773 
305 ,64.0175 ,1.48442 ,-0.01611 ,-0.15805 
306 ,64.2255 ,1.48647 ,-0.00242 ,-0.02373 
307 ,64.4337 ,1.48866 ,-0.01611 ,-0.15805 
308 ,64.6418 ,1.49064 ,-0.05033 ,-0.49383 
309 ,64.8817 ,1.49286 ,-0.04348 ,-0.42667 
310 ,65.1059 ,1.49525 ,-0.05717 ,-0.56099 
311 ,65.2981 ,1.49722 ,-0.08797 ,-0.86319 
312 ,65.5379 ,1.49953 ,-0.08455 ,-0.82961 
313 ,65.7622 ,1.50185 ,-0.09824 ,-0.96393 
314 ,65.9704 ,1.50392 ,-0.09824 ,-0.96393 
315 ,66.1624 ,1.50593 ,-0.13588 ,-1.33329 
316 ,66.3545 ,1.50777 ,-0.12219 ,-1.19898 
317 ,66.5785 ,1.50998 ,-0.14615 ,-1.43402 
318 ,66.7865 ,1.51204 ,-0.14273 ,-1.40045 
319 ,66.9948 ,1.51423 ,-0.15299 ,-1.50118 
320 ,67.2189 ,1.51641 ,-0.17353 ,-1.70265 
321 ,67.4264 ,1.51845 ,-0.17353 ,-1.70265 
322 ,67.6347 ,1.52055 ,-0.19406 ,-1.90412 
323 ,67.8587 ,1.52278 ,-0.21117 ,-2.07201 
324 ,68.0672 ,1.52487 ,-0.20775 ,-2.03843 
325 ,68.2911 ,1.52710 ,-0.22486 ,-2.20632 
326 ,68.4993 ,1.52917 ,-0.26250 ,-2.57569 
327 ,68.7232 ,1.53140 ,-0.24881 ,-2.44137 
328 ,68.9152 ,1.53336 ,-0.25908 ,-2.54211 
329 ,69.1233 ,1.53537 ,-0.26935 ,-2.64284 
330 ,69.3157 ,1.53742 ,-0.27961 ,-2.74358 
331 ,69.5237 ,1.53946 ,-0.29330 ,-2.87789 
332 ,69.7154 ,1.54139 ,-0.31041 ,-3.04578 
333 ,69.9237 ,1.54346 ,-0.31041 ,-3.04578 
334 ,70.1318 ,1.54552 ,-0.32068 ,-3.14652 
335 ,70.3238 ,1.54749 ,-0.32752 ,-3.21367 
336 ,70.5322 ,1.54951 ,-0.33437 ,-3.28083 
337 ,70.7401 ,1.55158 ,-0.35832 ,-3.51588 
338 ,70.9321 ,1.55359 ,-0.35490 ,-3.48230 
339 ,71.1245 ,1.55549 ,-0.36859 ,-3.61661 
340 ,71.3323 ,1.55752 ,-0.38570 ,-3.78450 
341 ,71.5406 ,1.55957 ,-0.40281 ,-3.95240 
342 ,71.7486 ,1.56170 ,-0.38570 ,-3.78450 
343 ,71.9563 ,1.56374 ,-0.42335 ,-4.15387 
344 ,72.1648 ,1.56584 ,-0.41992 ,-4.12029 
345 ,72.3729 ,1.56791 ,-0.42677 ,-4.18744 
346 ,72.5807 ,1.56998 ,-0.45072 ,-4.42249 
347 ,72.7890 ,1.57212 ,-0.43361 ,-4.25460 
348 ,72.9969 ,1.57413 ,-0.47810 ,-4.69112 
349 ,73.2052 ,1.57632 ,-0.47126 ,-4.62396 
350 ,73.4293 ,1.57840 ,-0.47810 ,-4.69112 
351 ,73.6373 ,1.58052 ,-0.51574 ,-5.06048 
352 ,73.8615 ,1.58277 ,-0.50548 ,-4.95975 
353 ,74.0537 ,1.58473 ,-0.52259 ,-5.12764 
354 ,74.2779 ,1.58697 ,-0.53628 ,-5.26195 
355 ,74.5018 ,1.58922 ,-0.54997 ,-5.39626 
356 ,74.6940 ,1.59118 ,-0.55339 ,-5.42984 
357 ,74.9178 ,1.59331 ,-0.56708 ,-5.56415 
358 ,75.1257 ,1.59541 ,-0.54654 ,-5.36268 
359 ,75.3342 ,1.59757 ,-0.59788 ,-5.86636 
360 ,75.5422 ,1.59964 ,-0.59445 ,-5.83278 
361 ,75.7504 ,1.60159 ,-0.58761 ,-5.76562 
362 ,75.9584 ,1.60389 ,-0.61499 ,-6.03425 
363 ,76.1663 ,1.60585 ,-0.62183 ,-6.10141 
364 ,76.3581 ,1.60782 ,-0.63552 ,-6.23572 
365 ,76.5665 ,1.60986 ,-0.62525 ,-6.13499 
366 ,76.7907 ,1.61204 ,-0.65263 ,-6.40361 
367 ,76.9989 ,1.61414 ,-0.68001 ,-6.67224 
368 ,77.2226 ,1.61640 ,-0.66290 ,-6.50435 
369 ,77.4148 ,1.61837 ,-0.68343 ,-6.70582 
370 ,77.6392 ,1.62057 ,-0.69712 ,-6.84013 
371 ,77.8473 ,1.62267 ,-0.69712 ,-6.84013 
372 ,78.0554 ,1.62472 ,-0.72107 ,-7.07518 
373 ,78.2635 ,1.62684 ,-0.72107 ,-7.07518 
374 ,78.4875 ,1.62904 ,-0.71423 ,-7.00802 
375 ,78.7114 ,1.63130 ,-0.75187 ,-7.37738 
376 ,78.9197 ,1.63332 ,-0.75530 ,-7.41096 
377 ,79.1276 ,1.63542 ,-0.74503 ,-7.31023 
378 ,79.3519 ,1.63765 ,-0.77583 ,-7.61243 
379 ,79.5920 ,1.64000 ,-0.77583 ,-7.61243 
380 ,79.8158 ,1.64236 ,-0.79636 ,-7.81390 
381 ,80.0402 ,1.64456 ,-0.80321 ,-7.88106 
382 ,80.2483 ,1.64667 ,-0.78952 ,-7.74674 
383 ,80.4562 ,1.64871 ,-0.82716 ,-8.11611 
384 ,80.6644 ,1.65083 ,-0.81689 ,-8.01537 
385 ,80.9045 ,1.65310 ,-0.81689 ,-8.01537 
386 ,81.1286 ,1.65540 ,-0.84085 ,-8.25042 
387 ,81.3365 ,1.65750 ,-0.86138 ,-8.45189 
388 ,81.5448 ,1.65956 ,-0.85454 ,-8.38473 
389 ,81.7529 ,1.66170 ,-0.87849 ,-8.61978 
390 ,81.9770 ,1.66390 ,-0.89560 ,-8.78767 
391 ,82.2010 ,1.66616 ,-0.88876 ,-8.72051 
392 ,82.4249 ,1.66841 ,-0.89218 ,-8.75409 
393 ,82.6330 ,1.67046 ,-0.91272 ,-8.95556 
394 ,82.8414 ,1.67252 ,-0.91272 ,-8.95556 
395 ,83.0494 ,1.67464 ,-0.92640 ,-9.08988 
396 ,83.2736 ,1.67687 ,-0.92983 ,-9.12345 
397 ,83.4975 ,1.67908 ,-0.96405 ,-9.45924 
398 ,83.7216 ,1.68138 ,-0.95720 ,-9.39208 
399 ,83.9297 ,1.68340 ,-0.95378 ,-9.35850 
400 ,84.1375 ,1.68547 ,-0.97774 ,-9.59355 
401 ,84.3458 ,1.68757 ,-0.97089 ,-9.52639 
402 ,84.5537 ,1.68969 ,-1.00511 ,-9.86218 
403 ,84.7620 ,1.69184 ,-0.99827 ,-9.79502 
404 ,84.9860 ,1.69402 ,-0.99143 ,-9.72786 
405 ,85.1777 ,1.69594 ,-1.01880 ,-9.99649 
406 ,85.3863 ,1.69799 ,-1.03249 ,-10.13080 
407 ,85.6105 ,1.70027 ,-1.02565 ,-10.06365 
408 ,85.8344 ,1.70247 ,-1.05645 ,-10.36585 
409 ,86.0585 ,1.70470 ,-1.06329 ,-10.43301 
410 ,86.2663 ,1.70684 ,-1.05987 ,-10.39943 
411 ,86.4746 ,1.70887 ,-1.08040 ,-10.60090 
412 ,86.6988 ,1.71116 ,-1.08725 ,-10.66806 
413 ,86.8745 ,1.71302 ,-1.09409 ,-10.73521 
414 ,87.0664 ,1.71487 ,-1.08725 ,-10.66806 
415 ,87.2748 ,1.71684 ,-1.11120 ,-10.90310 
416 ,87.5312 ,1.71933 ,-1.12147 ,-11.00384 
417 ,87.7552 ,1.72169 ,-1.14542 ,-11.23889 
418 ,87.9633 ,1.72375 ,-1.12831 ,-11.07100 
419 ,88.1713 ,1.72583 ,-1.13516 ,-11.13815 
420 ,88.3629 ,1.72787 ,-1.15227 ,-11.30604 
421 ,88.5552 ,1.72971 ,-1.17622 ,-11.54109 
422 ,88.7632 ,1.73171 ,-1.16596 ,-11.44036 
423 ,88.9712 ,1.73384 ,-1.19676 ,-11.74256 
424 ,89.1796 ,1.73591 ,-1.19333 ,-11.70898 
425 ,89.3876 ,1.73799 ,-1.19333 ,-11.70898 
426 ,89.5954 ,1.74004 ,-1.21387 ,-11.91045 
427 ,89.8036 ,1.74219 ,-1.20018 ,-11.77614 
428 ,90.0119 ,1.74423 ,-1.23098 ,-12.07834 
429 ,90.2198 ,1.74631 ,-1.22755 ,-12.04477 
430 ,90.4281 ,1.74841 ,-1.22413 ,-12.01119 
431 ,90.6520 ,1.75061 ,-1.25151 ,-12.27981 
432 ,90.8604 ,1.75275 ,-1.25835 ,-12.34697 
433 ,91.0686 ,1.75481 ,-1.26520 ,-12.41413 
434 ,91.2762 ,1.75685 ,-1.27547 ,-12.51486 
435 ,91.4845 ,1.75893 ,-1.25493 ,-12.31339 
436 ,91.6769 ,1.76093 ,-1.30284 ,-12.78349 
437 ,91.9006 ,1.76315 ,-1.29600 ,-12.71633 
438 ,92.1090 ,1.76529 ,-1.29942 ,-12.74991 
439 ,92.3330 ,1.76743 ,-1.31995 ,-12.95138 
440 ,92.5411 ,1.76950 ,-1.31653 ,-12.91780 
441 ,92.7492 ,1.77159 ,-1.32680 ,-13.01854 
442 ,92.9569 ,1.77364 ,-1.34733 ,-13.22001 
443 ,93.1655 ,1.77580 ,-1.34733 ,-13.22001 
444 ,93.3738 ,1.77782 ,-1.35760 ,-13.32074 
445 ,93.5974 ,1.78007 ,-1.36786 ,-13.42148 
446 ,93.8055 ,1.78220 ,-1.34733 ,-13.22001 
447 ,94.0298 ,1.78440 ,-1.37471 ,-13.48863 
448 ,94.2539 ,1.78660 ,-1.38155 ,-13.55579 
449 ,94.4300 ,1.78858 ,-1.36444 ,-13.38790 
450 ,94.6540 ,1.79062 ,-1.39182 ,-13.65653 
451 ,94.8621 ,1.79265 ,-1.39524 ,-13.69010 
452 ,95.0858 ,1.79489 ,-1.39182 ,-13.65653 
453 ,95.2943 ,1.79701 ,-1.43288 ,-14.05946 
454 ,95.5024 ,1.79911 ,-1.40893 ,-13.82442 
455 ,95.7105 ,1.80119 ,-1.43288 ,-14.05946 
456 ,95.9345 ,1.80340 ,-1.44315 ,-14.16020 
457 ,96.1262 ,1.80540 ,-1.43631 ,-14.09304 
458 ,96.3346 ,1.80747 ,-1.45342 ,-14.26093 
459 ,96.5588 ,1.80963 ,-1.45684 ,-14.29451 
460 ,96.7669 ,1.81177 ,-1.47395 ,-14.46240 
