Data stamp = , 16-05-2022 17:12:10 482

Calibration Values: 
Slope = , 26.54 , g/V 
Offset Voltage at no contact = , -0.501760 , V 

No , Time , Stage Position ,   Mass , Force 
   ,  (s) ,      (mm)      ,   (g)  , (mN)  

1 ,0.0000 ,0.84964 ,5.16848 ,50.71308 
2 ,0.3266 ,0.84992 ,5.16163 ,50.64592 
3 ,0.8069 ,0.85190 ,5.17532 ,50.78023 
4 ,1.0152 ,0.85452 ,5.15136 ,50.54519 
5 ,1.2232 ,0.85662 ,5.17874 ,50.81381 
6 ,1.4155 ,0.85859 ,5.15479 ,50.57876 
7 ,1.6074 ,0.86042 ,5.17190 ,50.74666 
8 ,1.7993 ,0.86236 ,5.15136 ,50.54519 
9 ,1.9918 ,0.86432 ,5.14110 ,50.44445 
10 ,2.1838 ,0.86624 ,5.11030 ,50.14225 
11 ,2.3920 ,0.86835 ,5.07950 ,49.84004 
12 ,2.6000 ,0.87036 ,5.08292 ,49.87362 
13 ,2.8081 ,0.87249 ,5.04185 ,49.47068 
14 ,3.0158 ,0.87461 ,5.01106 ,49.16848 
15 ,3.2242 ,0.87660 ,5.01448 ,49.20205 
16 ,3.4324 ,0.87867 ,4.98710 ,48.93343 
17 ,3.6565 ,0.88093 ,4.93919 ,48.46333 
18 ,3.8648 ,0.88300 ,4.94946 ,48.56407 
19 ,4.0883 ,0.88522 ,4.91181 ,48.19471 
20 ,4.2964 ,0.88736 ,4.88786 ,47.95966 
21 ,4.5207 ,0.88953 ,4.86732 ,47.75819 
22 ,4.7285 ,0.89163 ,4.85021 ,47.59030 
23 ,4.9206 ,0.89361 ,4.80915 ,47.18736 
24 ,5.1287 ,0.89560 ,4.80573 ,47.15378 
25 ,5.3370 ,0.89774 ,4.79546 ,47.05304 
26 ,5.5453 ,0.89985 ,4.77493 ,46.85157 
27 ,5.7534 ,0.90186 ,4.72359 ,46.34790 
28 ,5.9613 ,0.90398 ,4.73728 ,46.48221 
29 ,6.2015 ,0.90625 ,4.70648 ,46.18001 
30 ,6.4094 ,0.90855 ,4.69622 ,46.07927 
31 ,6.6018 ,0.91039 ,4.64831 ,45.60918 
32 ,6.8097 ,0.91243 ,4.64488 ,45.57560 
33 ,7.0338 ,0.91465 ,4.61066 ,45.23981 
34 ,7.2419 ,0.91679 ,4.58328 ,44.97119 
35 ,7.4656 ,0.91900 ,4.57644 ,44.90403 
36 ,7.6736 ,0.92106 ,4.54222 ,44.56825 
37 ,7.8658 ,0.92314 ,4.53195 ,44.46751 
38 ,8.0578 ,0.92502 ,4.50115 ,44.16531 
39 ,8.2504 ,0.92692 ,4.49089 ,44.06457 
40 ,8.4585 ,0.92896 ,4.44982 ,43.66163 
41 ,8.6666 ,0.93101 ,4.44640 ,43.62806 
42 ,8.8745 ,0.93321 ,4.42244 ,43.39301 
43 ,9.0668 ,0.93505 ,4.40533 ,43.22512 
44 ,9.2907 ,0.93718 ,4.39507 ,43.12438 
45 ,9.4828 ,0.93922 ,4.35742 ,42.75502 
46 ,9.7067 ,0.94138 ,4.35742 ,42.75502 
47 ,9.9150 ,0.94352 ,4.31293 ,42.31850 
48 ,10.1071 ,0.94549 ,4.30951 ,42.28492 
49 ,10.3311 ,0.94766 ,4.28213 ,42.01630 
50 ,10.5393 ,0.94970 ,4.26160 ,41.81483 
51 ,10.7309 ,0.95178 ,4.25818 ,41.78125 
52 ,10.9392 ,0.95372 ,4.20685 ,41.27758 
53 ,11.1471 ,0.95584 ,4.20342 ,41.24400 
54 ,11.3397 ,0.95780 ,4.16236 ,40.84106 
55 ,11.5477 ,0.95979 ,4.17262 ,40.94179 
56 ,11.7558 ,0.96188 ,4.12129 ,40.43812 
57 ,11.9637 ,0.96397 ,4.12471 ,40.47170 
58 ,12.1720 ,0.96602 ,4.10076 ,40.23665 
59 ,12.3959 ,0.96828 ,4.05969 ,39.83371 
60 ,12.5880 ,0.97021 ,4.06312 ,39.86729 
61 ,12.7962 ,0.97235 ,4.02889 ,39.53150 
62 ,13.0039 ,0.97441 ,4.01863 ,39.43077 
63 ,13.2125 ,0.97646 ,4.00152 ,39.26288 
64 ,13.4365 ,0.97865 ,3.95361 ,38.79278 
65 ,13.6446 ,0.98075 ,3.94676 ,38.72562 
66 ,13.8526 ,0.98284 ,3.92281 ,38.49058 
67 ,14.0604 ,0.98494 ,3.89543 ,38.22195 
68 ,14.2689 ,0.98713 ,3.88516 ,38.12122 
69 ,14.4767 ,0.98913 ,3.84752 ,37.75185 
70 ,14.6846 ,0.99117 ,3.85436 ,37.81901 
71 ,14.8766 ,0.99311 ,3.81672 ,37.44965 
72 ,15.0690 ,0.99500 ,3.80645 ,37.34891 
73 ,15.2771 ,0.99714 ,3.77223 ,37.01313 
74 ,15.5171 ,0.99934 ,3.75170 ,36.81166 
75 ,15.7256 ,1.00155 ,3.73801 ,36.67735 
76 ,15.9332 ,1.00363 ,3.70721 ,36.37514 
77 ,16.1257 ,1.00564 ,3.68668 ,36.17367 
78 ,16.3173 ,1.00759 ,3.66272 ,35.93863 
79 ,16.5258 ,1.00959 ,3.64561 ,35.77073 
80 ,16.7178 ,1.01157 ,3.63534 ,35.67000 
81 ,16.9577 ,1.01374 ,3.60797 ,35.40137 
82 ,17.1662 ,1.01599 ,3.58743 ,35.19990 
83 ,17.3741 ,1.01809 ,3.57032 ,35.03201 
84 ,17.5823 ,1.02017 ,3.54295 ,34.76338 
85 ,17.7904 ,1.02230 ,3.53952 ,34.72981 
86 ,18.0145 ,1.02446 ,3.49504 ,34.29329 
87 ,18.2226 ,1.02656 ,3.48135 ,34.15898 
88 ,18.4307 ,1.02863 ,3.46081 ,33.95751 
89 ,18.6547 ,1.03087 ,3.44028 ,33.75604 
90 ,18.8629 ,1.03294 ,3.42317 ,33.58814 
91 ,19.0709 ,1.03498 ,3.41290 ,33.48741 
92 ,19.2947 ,1.03726 ,3.38210 ,33.18520 
93 ,19.4871 ,1.03930 ,3.34104 ,32.78227 
94 ,19.6947 ,1.04123 ,3.34104 ,32.78227 
95 ,19.8871 ,1.04319 ,3.32051 ,32.58080 
96 ,20.0950 ,1.04523 ,3.29313 ,32.31217 
97 ,20.3028 ,1.04737 ,3.27602 ,32.14428 
98 ,20.5109 ,1.04948 ,3.25548 ,31.94281 
99 ,20.7031 ,1.05144 ,3.22468 ,31.64060 
100 ,20.8951 ,1.05340 ,3.23837 ,31.77492 
101 ,21.1037 ,1.05533 ,3.19731 ,31.37198 
102 ,21.2957 ,1.05740 ,3.18020 ,31.20409 
103 ,21.5038 ,1.05937 ,3.15624 ,30.96904 
104 ,21.6961 ,1.06128 ,3.12202 ,30.63325 
105 ,21.9036 ,1.06345 ,3.11518 ,30.56610 
106 ,22.0959 ,1.06533 ,3.10149 ,30.43178 
107 ,22.3201 ,1.06747 ,3.06384 ,30.06242 
108 ,22.5124 ,1.06941 ,3.07411 ,30.16316 
109 ,22.7202 ,1.07151 ,3.03304 ,29.76022 
110 ,22.9281 ,1.07356 ,3.02620 ,29.69306 
111 ,23.1364 ,1.07566 ,2.99882 ,29.42444 
112 ,23.3447 ,1.07775 ,2.98171 ,29.25654 
113 ,23.5366 ,1.07970 ,2.96118 ,29.05507 
114 ,23.7449 ,1.08174 ,2.94064 ,28.85360 
115 ,23.9525 ,1.08375 ,2.91669 ,28.61856 
116 ,24.1450 ,1.08576 ,2.90300 ,28.48424 
117 ,24.3369 ,1.08769 ,2.88589 ,28.31635 
118 ,24.5287 ,1.08964 ,2.88247 ,28.28277 
119 ,24.7210 ,1.09151 ,2.84482 ,27.91341 
120 ,24.9293 ,1.09358 ,2.83798 ,27.84625 
121 ,25.1370 ,1.09567 ,2.80376 ,27.51047 
122 ,25.3456 ,1.09773 ,2.81060 ,27.57763 
123 ,25.5537 ,1.09984 ,2.77638 ,27.24185 
124 ,25.7618 ,1.10193 ,2.74558 ,26.93964 
125 ,25.9697 ,1.10403 ,2.74558 ,26.93964 
126 ,26.1619 ,1.10596 ,2.71136 ,26.60386 
127 ,26.3538 ,1.10789 ,2.70452 ,26.53670 
128 ,26.5461 ,1.10971 ,2.67372 ,26.23450 
129 ,26.7542 ,1.11177 ,2.66003 ,26.10018 
130 ,26.9462 ,1.11379 ,2.63949 ,25.89871 
131 ,27.1543 ,1.11590 ,2.62581 ,25.76440 
132 ,27.3621 ,1.11790 ,2.60185 ,25.52935 
133 ,27.5706 ,1.11997 ,2.60527 ,25.56293 
134 ,27.7944 ,1.12217 ,2.55736 ,25.09283 
135 ,27.9862 ,1.12418 ,2.55394 ,25.05926 
136 ,28.2268 ,1.12644 ,2.54367 ,24.95852 
137 ,28.4348 ,1.12866 ,2.51287 ,24.65632 
138 ,28.6266 ,1.13054 ,2.49234 ,24.45485 
139 ,28.8350 ,1.13262 ,2.46496 ,24.18622 
140 ,29.0432 ,1.13472 ,2.45127 ,24.05191 
141 ,29.2512 ,1.13685 ,2.44443 ,23.98475 
142 ,29.4752 ,1.13899 ,2.40679 ,23.61539 
143 ,29.6669 ,1.14099 ,2.40336 ,23.58181 
144 ,29.8595 ,1.14284 ,2.36230 ,23.17887 
145 ,30.0676 ,1.14494 ,2.36914 ,23.24603 
146 ,30.2758 ,1.14705 ,2.34519 ,23.01098 
147 ,30.4836 ,1.14914 ,2.33492 ,22.91024 
148 ,30.6756 ,1.15102 ,2.31097 ,22.67520 
149 ,30.8837 ,1.15316 ,2.30412 ,22.60804 
150 ,31.0918 ,1.15517 ,2.28017 ,22.37299 
151 ,31.3000 ,1.15724 ,2.23910 ,21.97005 
152 ,31.4922 ,1.15919 ,2.25621 ,22.13794 
153 ,31.7003 ,1.16129 ,2.21515 ,21.73500 
154 ,31.8922 ,1.16333 ,2.22541 ,21.83574 
155 ,32.1005 ,1.16526 ,2.18092 ,21.39922 
156 ,32.2924 ,1.16731 ,2.18435 ,21.43280 
157 ,32.5007 ,1.16927 ,2.15012 ,21.09702 
158 ,32.6923 ,1.17131 ,2.16039 ,21.19775 
159 ,32.9004 ,1.17327 ,2.12275 ,20.82839 
160 ,33.1088 ,1.17542 ,2.11248 ,20.72766 
161 ,33.3168 ,1.17747 ,2.06799 ,20.29114 
162 ,33.5089 ,1.17940 ,2.07826 ,20.39187 
163 ,33.7170 ,1.18151 ,2.06457 ,20.25756 
164 ,33.9090 ,1.18338 ,2.04746 ,20.08967 
165 ,34.1008 ,1.18527 ,2.00639 ,19.68673 
166 ,34.2934 ,1.18719 ,2.02008 ,19.82104 
167 ,34.5015 ,1.18925 ,1.98244 ,19.45168 
168 ,34.7094 ,1.19138 ,1.99270 ,19.55241 
169 ,34.9175 ,1.19345 ,1.93453 ,18.98158 
170 ,35.1254 ,1.19553 ,1.93453 ,18.98158 
171 ,35.3498 ,1.19773 ,1.92084 ,18.84727 
172 ,35.5577 ,1.19987 ,1.90031 ,18.64580 
173 ,35.7499 ,1.20175 ,1.90715 ,18.71296 
174 ,35.9419 ,1.20381 ,1.87293 ,18.37717 
175 ,36.1500 ,1.20570 ,1.84555 ,18.10855 
176 ,36.3419 ,1.20764 ,1.83186 ,17.97423 
177 ,36.5341 ,1.20965 ,1.82844 ,17.94066 
178 ,36.7423 ,1.21165 ,1.81817 ,17.83992 
179 ,36.9504 ,1.21374 ,1.81475 ,17.80634 
180 ,37.1585 ,1.21579 ,1.77026 ,17.36983 
181 ,37.3663 ,1.21795 ,1.77369 ,17.40340 
182 ,37.5907 ,1.22009 ,1.73946 ,17.06762 
183 ,37.8146 ,1.22232 ,1.72920 ,16.96689 
184 ,38.0069 ,1.22432 ,1.71893 ,16.86615 
185 ,38.2147 ,1.22646 ,1.70182 ,16.69826 
186 ,38.4230 ,1.22841 ,1.68813 ,16.56395 
187 ,38.6468 ,1.23070 ,1.68471 ,16.53037 
188 ,38.8551 ,1.23280 ,1.64364 ,16.12743 
189 ,39.0793 ,1.23507 ,1.61627 ,15.85880 
190 ,39.2714 ,1.23693 ,1.62995 ,15.99311 
191 ,39.4794 ,1.23900 ,1.58547 ,15.55660 
192 ,39.6875 ,1.24107 ,1.58547 ,15.55660 
193 ,39.8956 ,1.24321 ,1.55809 ,15.28797 
194 ,40.1036 ,1.24525 ,1.56151 ,15.32155 
195 ,40.3117 ,1.24732 ,1.54098 ,15.12008 
196 ,40.5198 ,1.24937 ,1.52045 ,14.91861 
197 ,40.7276 ,1.25149 ,1.52045 ,14.91861 
198 ,40.9358 ,1.25364 ,1.48622 ,14.58283 
199 ,41.1442 ,1.25570 ,1.47596 ,14.48209 
200 ,41.3360 ,1.25771 ,1.47253 ,14.44851 
201 ,41.5283 ,1.25959 ,1.44858 ,14.21346 
202 ,41.7364 ,1.26154 ,1.43147 ,14.04557 
203 ,41.9281 ,1.26360 ,1.43147 ,14.04557 
204 ,42.1363 ,1.26560 ,1.40409 ,13.77695 
205 ,42.3447 ,1.26764 ,1.39383 ,13.67621 
206 ,42.5527 ,1.26969 ,1.36303 ,13.37401 
207 ,42.7449 ,1.27172 ,1.35618 ,13.30685 
208 ,42.9365 ,1.27367 ,1.33565 ,13.10538 
209 ,43.1451 ,1.27570 ,1.33907 ,13.13896 
210 ,43.3696 ,1.27791 ,1.31854 ,12.93749 
211 ,43.5772 ,1.28001 ,1.29458 ,12.70244 
212 ,43.7854 ,1.28210 ,1.28432 ,12.60171 
213 ,43.9932 ,1.28421 ,1.25694 ,12.33308 
214 ,44.2174 ,1.28642 ,1.23983 ,12.16519 
215 ,44.4257 ,1.28848 ,1.25352 ,12.29950 
216 ,44.6176 ,1.29040 ,1.21587 ,11.93014 
217 ,44.8258 ,1.29246 ,1.22614 ,12.03088 
218 ,45.0177 ,1.29451 ,1.18507 ,11.62794 
219 ,45.2255 ,1.29642 ,1.19876 ,11.76225 
220 ,45.4180 ,1.29842 ,1.15770 ,11.35931 
221 ,45.6421 ,1.30062 ,1.15085 ,11.29215 
222 ,45.8503 ,1.30268 ,1.13032 ,11.09068 
223 ,46.0579 ,1.30476 ,1.10636 ,10.85563 
224 ,46.2500 ,1.30670 ,1.12005 ,10.98995 
225 ,46.4746 ,1.30887 ,1.07556 ,10.55343 
226 ,46.6985 ,1.31112 ,1.06872 ,10.48627 
227 ,46.8907 ,1.31311 ,1.06872 ,10.48627 
228 ,47.1144 ,1.31530 ,1.03108 ,10.11691 
229 ,47.3227 ,1.31743 ,1.04819 ,10.28480 
230 ,47.5309 ,1.31950 ,1.01054 ,9.91544 
231 ,47.7391 ,1.32160 ,0.98317 ,9.64682 
232 ,47.9470 ,1.32369 ,1.00028 ,9.81471 
233 ,48.1390 ,1.32560 ,0.96948 ,9.51250 
234 ,48.3472 ,1.32766 ,0.96948 ,9.51250 
235 ,48.5390 ,1.32960 ,0.93868 ,9.21030 
236 ,48.7314 ,1.33152 ,0.92157 ,9.04241 
237 ,48.9394 ,1.33355 ,0.92841 ,9.10956 
238 ,49.1637 ,1.33573 ,0.90103 ,8.84094 
239 ,49.3717 ,1.33788 ,0.87708 ,8.60589 
240 ,49.5634 ,1.33996 ,0.86339 ,8.47158 
241 ,49.7554 ,1.34187 ,0.84628 ,8.30368 
242 ,49.9474 ,1.34374 ,0.84970 ,8.33726 
243 ,50.1559 ,1.34569 ,0.81548 ,8.00148 
244 ,50.3642 ,1.34787 ,0.80863 ,7.93432 
245 ,50.5721 ,1.34997 ,0.79495 ,7.80001 
246 ,50.7637 ,1.35187 ,0.80521 ,7.90074 
247 ,50.9562 ,1.35384 ,0.77099 ,7.56496 
248 ,51.1805 ,1.35586 ,0.77784 ,7.63212 
249 ,51.3884 ,1.35814 ,0.74704 ,7.32991 
250 ,51.6126 ,1.36016 ,0.72992 ,7.16202 
251 ,51.8042 ,1.36235 ,0.71966 ,7.06129 
252 ,52.0127 ,1.36430 ,0.68201 ,6.69193 
253 ,52.2208 ,1.36647 ,0.68886 ,6.75908 
254 ,52.4288 ,1.36850 ,0.67517 ,6.62477 
255 ,52.6369 ,1.37051 ,0.66833 ,6.55761 
256 ,52.8288 ,1.37248 ,0.65121 ,6.38972 
257 ,53.0530 ,1.37474 ,0.63410 ,6.22183 
258 ,53.2612 ,1.37687 ,0.63068 ,6.18825 
259 ,53.4691 ,1.37885 ,0.60330 ,5.91962 
260 ,53.6769 ,1.38093 ,0.58962 ,5.78531 
261 ,53.8853 ,1.38303 ,0.57935 ,5.68458 
262 ,54.0936 ,1.38510 ,0.55197 ,5.41595 
263 ,54.2856 ,1.38707 ,0.57251 ,5.61742 
264 ,54.4777 ,1.38898 ,0.54855 ,5.38237 
265 ,54.7018 ,1.39115 ,0.53144 ,5.21448 
266 ,54.9100 ,1.39322 ,0.49722 ,4.87870 
267 ,55.1176 ,1.39532 ,0.51433 ,5.04659 
268 ,55.3417 ,1.39749 ,0.48011 ,4.71081 
269 ,55.5502 ,1.39963 ,0.45615 ,4.47576 
270 ,55.7422 ,1.40167 ,0.46642 ,4.57649 
271 ,55.9341 ,1.40352 ,0.43562 ,4.27429 
272 ,56.1424 ,1.40556 ,0.44931 ,4.40860 
273 ,56.3344 ,1.40755 ,0.40824 ,4.00566 
274 ,56.5106 ,1.40941 ,0.40482 ,3.97208 
275 ,56.7027 ,1.41121 ,0.39797 ,3.90493 
276 ,56.9107 ,1.41326 ,0.37744 ,3.70346 
277 ,57.1028 ,1.41526 ,0.37744 ,3.70346 
278 ,57.3109 ,1.41733 ,0.35006 ,3.43483 
279 ,57.5189 ,1.41940 ,0.36375 ,3.56914 
280 ,57.7269 ,1.42145 ,0.32611 ,3.19978 
281 ,57.9191 ,1.42336 ,0.32611 ,3.19978 
282 ,58.1432 ,1.42555 ,0.29531 ,2.89758 
283 ,58.3353 ,1.42756 ,0.28162 ,2.76326 
284 ,58.5272 ,1.42947 ,0.28847 ,2.83042 
285 ,58.7355 ,1.43149 ,0.26109 ,2.56179 
286 ,58.9276 ,1.43348 ,0.26451 ,2.59537 
287 ,59.1356 ,1.43555 ,0.23371 ,2.29317 
288 ,59.3278 ,1.43746 ,0.22687 ,2.22601 
289 ,59.5357 ,1.43957 ,0.20976 ,2.05812 
290 ,59.7441 ,1.44165 ,0.20291 ,1.99096 
291 ,59.9520 ,1.44369 ,0.18238 ,1.78949 
292 ,60.1438 ,1.44560 ,0.19949 ,1.95738 
293 ,60.3523 ,1.44769 ,0.16185 ,1.58802 
294 ,60.5764 ,1.44990 ,0.16185 ,1.58802 
295 ,60.7845 ,1.45199 ,0.15842 ,1.55445 
296 ,60.9922 ,1.45406 ,0.12078 ,1.18508 
297 ,61.2007 ,1.45617 ,0.13105 ,1.28582 
298 ,61.4085 ,1.45824 ,0.10367 ,1.01719 
299 ,61.6008 ,1.46018 ,0.09682 ,0.95004 
300 ,61.7924 ,1.46212 ,0.05918 ,0.58067 
301 ,62.0009 ,1.46420 ,0.07971 ,0.78214 
302 ,62.2087 ,1.46630 ,0.04549 ,0.44636 
303 ,62.4332 ,1.46836 ,0.04549 ,0.44636 
304 ,62.6411 ,1.47050 ,0.04549 ,0.44636 
305 ,62.8332 ,1.47254 ,0.00443 ,0.04342 
306 ,63.0253 ,1.47442 ,0.01469 ,0.14416 
307 ,63.2333 ,1.47648 ,-0.01269 ,-0.12447 
308 ,63.4415 ,1.47849 ,-0.00242 ,-0.02373 
309 ,63.6497 ,1.48063 ,-0.03664 ,-0.35952 
310 ,63.8576 ,1.48276 ,-0.05033 ,-0.49383 
311 ,64.0654 ,1.48480 ,-0.05033 ,-0.49383 
312 ,64.2578 ,1.48674 ,-0.06402 ,-0.62814 
313 ,64.4657 ,1.48878 ,-0.07428 ,-0.72888 
314 ,64.6580 ,1.49074 ,-0.08455 ,-0.82961 
315 ,64.8660 ,1.49277 ,-0.09140 ,-0.89677 
316 ,65.0582 ,1.49478 ,-0.08455 ,-0.82961 
317 ,65.2661 ,1.49679 ,-0.12219 ,-1.19898 
318 ,65.4583 ,1.49872 ,-0.12904 ,-1.26613 
319 ,65.6665 ,1.50079 ,-0.13931 ,-1.36687 
320 ,65.8906 ,1.50302 ,-0.15984 ,-1.56834 
321 ,66.0986 ,1.50512 ,-0.15642 ,-1.53476 
322 ,66.3063 ,1.50713 ,-0.18722 ,-1.83696 
323 ,66.4986 ,1.50911 ,-0.18379 ,-1.80338 
324 ,66.6909 ,1.51106 ,-0.20775 ,-2.03843 
325 ,66.8988 ,1.51306 ,-0.18379 ,-1.80338 
326 ,67.0911 ,1.51509 ,-0.22828 ,-2.23990 
327 ,67.2989 ,1.51714 ,-0.22486 ,-2.20632 
328 ,67.5232 ,1.51928 ,-0.24539 ,-2.40779 
329 ,67.7471 ,1.52156 ,-0.27961 ,-2.74358 
330 ,67.9715 ,1.52370 ,-0.26250 ,-2.57569 
331 ,68.1791 ,1.52597 ,-0.27961 ,-2.74358 
332 ,68.3711 ,1.52796 ,-0.30357 ,-2.97863 
333 ,68.5792 ,1.52998 ,-0.28646 ,-2.81073 
334 ,68.8038 ,1.53218 ,-0.30699 ,-3.01220 
335 ,69.0278 ,1.53434 ,-0.33779 ,-3.31441 
336 ,69.2361 ,1.53644 ,-0.34121 ,-3.34799 
337 ,69.4440 ,1.53854 ,-0.34806 ,-3.41514 
338 ,69.6361 ,1.54048 ,-0.36175 ,-3.54946 
339 ,69.8441 ,1.54256 ,-0.37544 ,-3.68377 
340 ,70.0360 ,1.54448 ,-0.38570 ,-3.78450 
341 ,70.2283 ,1.54644 ,-0.40281 ,-3.95240 
342 ,70.4363 ,1.54843 ,-0.39255 ,-3.85166 
343 ,70.6280 ,1.55042 ,-0.43019 ,-4.22102 
344 ,70.8526 ,1.55250 ,-0.42335 ,-4.15387 
345 ,71.0607 ,1.55476 ,-0.41308 ,-4.05313 
346 ,71.2687 ,1.55680 ,-0.45757 ,-4.48965 
347 ,71.4609 ,1.55875 ,-0.44388 ,-4.35534 
348 ,71.6850 ,1.56091 ,-0.46783 ,-4.59038 
349 ,71.8930 ,1.56301 ,-0.48837 ,-4.79185 
350 ,72.1169 ,1.56525 ,-0.48152 ,-4.72470 
351 ,72.3251 ,1.56735 ,-0.49521 ,-4.85901 
352 ,72.5332 ,1.56941 ,-0.50890 ,-4.99332 
353 ,72.7413 ,1.57149 ,-0.51574 ,-5.06048 
354 ,72.9651 ,1.57375 ,-0.53628 ,-5.26195 
355 ,73.1574 ,1.57571 ,-0.52943 ,-5.19479 
356 ,73.3494 ,1.57757 ,-0.53628 ,-5.26195 
357 ,73.5415 ,1.57954 ,-0.51574 ,-5.06048 
358 ,73.7495 ,1.58158 ,-0.53285 ,-5.22837 
359 ,73.9577 ,1.58365 ,-0.50548 ,-4.95975 
360 ,74.1978 ,1.58595 ,-0.52601 ,-5.16121 
361 ,74.4220 ,1.58830 ,-0.50206 ,-4.92617 
362 ,74.6301 ,1.59040 ,-0.50890 ,-4.99332 
363 ,74.8381 ,1.59247 ,-0.48494 ,-4.75828 
364 ,75.0463 ,1.59455 ,-0.49521 ,-4.85901 
365 ,75.2702 ,1.59684 ,-0.49179 ,-4.82543 
366 ,75.4784 ,1.59884 ,-0.46441 ,-4.55681 
367 ,75.6866 ,1.60096 ,-0.47468 ,-4.65754 
368 ,75.9106 ,1.60321 ,-0.48494 ,-4.75828 
369 ,76.1188 ,1.60526 ,-0.46441 ,-4.55681 
370 ,76.3428 ,1.60749 ,0.40140 ,3.93850 
371 ,76.5509 ,1.60967 ,0.77099 ,7.56496 
372 ,76.7589 ,1.61175 ,0.83601 ,8.20295 
373 ,76.9666 ,1.61378 ,0.81890 ,8.03506 
374 ,77.1588 ,1.61572 ,0.83601 ,8.20295 
375 ,77.3507 ,1.61767 ,0.81548 ,8.00148 
376 ,77.5271 ,1.61952 ,0.84970 ,8.33726 
377 ,77.7352 ,1.62139 ,0.82232 ,8.06864 
378 ,77.9274 ,1.62341 ,0.81890 ,8.03506 
379 ,78.1354 ,1.62542 ,0.82575 ,8.10221 
380 ,78.3436 ,1.62749 ,0.81206 ,7.96790 
381 ,78.5676 ,1.62975 ,0.80179 ,7.86717 
382 ,78.7757 ,1.63191 ,0.79495 ,7.80001 
383 ,78.9838 ,1.63389 ,0.80179 ,7.86717 
384 ,79.1764 ,1.63587 ,0.80179 ,7.86717 
385 ,79.3841 ,1.63790 ,0.79152 ,7.76643 
386 ,79.5918 ,1.64003 ,0.78468 ,7.69927 
387 ,79.7843 ,1.64194 ,0.79495 ,7.80001 
388 ,79.9921 ,1.64399 ,0.77441 ,7.59854 
389 ,80.2003 ,1.64609 ,0.79495 ,7.80001 
390 ,80.3925 ,1.64801 ,0.76757 ,7.53138 
391 ,80.5841 ,1.65003 ,0.77099 ,7.56496 
392 ,80.7927 ,1.65202 ,0.76415 ,7.49780 
393 ,81.0006 ,1.65415 ,0.77099 ,7.56496 
394 ,81.1925 ,1.65600 ,0.76072 ,7.46423 
395 ,81.4008 ,1.65806 ,0.77441 ,7.59854 
396 ,81.6089 ,1.66016 ,0.74019 ,7.26276 
397 ,81.8010 ,1.66211 ,0.76072 ,7.46423 
398 ,82.0091 ,1.66421 ,0.73335 ,7.19560 
399 ,82.2010 ,1.66609 ,0.76415 ,7.49780 
400 ,82.3933 ,1.66804 ,0.73677 ,7.22918 
401 ,82.6171 ,1.67027 ,0.73677 ,7.22918 
402 ,82.8251 ,1.67227 ,0.72308 ,7.09486 
403 ,83.0816 ,1.67476 ,0.72992 ,7.16202 
404 ,83.3057 ,1.67709 ,0.71281 ,6.99413 
405 ,83.5136 ,1.67919 ,0.72992 ,7.16202 
406 ,83.7217 ,1.68128 ,0.70597 ,6.92697 
407 ,83.9297 ,1.68340 ,0.69228 ,6.79266 
408 ,84.1699 ,1.68568 ,0.71281 ,6.99413 
409 ,84.3943 ,1.68800 ,0.69913 ,6.85982 
410 ,84.6021 ,1.69007 ,0.68201 ,6.69193 
411 ,84.7940 ,1.69202 ,0.67859 ,6.65835 
412 ,84.9862 ,1.69399 ,0.68544 ,6.72550 
413 ,85.2104 ,1.69613 ,0.67859 ,6.65835 
414 ,85.4022 ,1.69813 ,0.68886 ,6.75908 
415 ,85.6107 ,1.70017 ,0.66833 ,6.55761 
416 ,85.8186 ,1.70227 ,0.67859 ,6.65835 
417 ,86.0108 ,1.70420 ,0.65806 ,6.45688 
418 ,86.2183 ,1.70626 ,0.66833 ,6.55761 
419 ,86.4268 ,1.70831 ,0.63753 ,6.25541 
420 ,86.6349 ,1.71040 ,0.65121 ,6.38972 
421 ,86.8430 ,1.71245 ,0.64779 ,6.35614 
422 ,87.0352 ,1.71441 ,0.63753 ,6.25541 
423 ,87.2269 ,1.71637 ,0.64437 ,6.32256 
424 ,87.4034 ,1.71820 ,0.64437 ,6.32256 
425 ,87.5954 ,1.72003 ,0.63068 ,6.18825 
426 ,87.8034 ,1.72212 ,0.63753 ,6.25541 
427 ,88.0114 ,1.72417 ,0.62042 ,6.08752 
428 ,88.2354 ,1.72636 ,0.62726 ,6.15467 
429 ,88.4433 ,1.72846 ,0.61357 ,6.02036 
430 ,88.6357 ,1.73043 ,0.61357 ,6.02036 
431 ,88.8278 ,1.73236 ,0.60330 ,5.91962 
432 ,89.0199 ,1.73424 ,0.63410 ,6.22183 
433 ,89.2441 ,1.73646 ,0.62042 ,6.08752 
434 ,89.4361 ,1.73843 ,0.61699 ,6.05394 
435 ,89.6443 ,1.74051 ,0.59988 ,5.88605 
436 ,89.8524 ,1.74257 ,0.61699 ,6.05394 
437 ,90.0768 ,1.74478 ,0.65806 ,6.45688 
438 ,90.2685 ,1.74682 ,0.64779 ,6.35614 
439 ,90.4926 ,1.74882 ,0.67175 ,6.59119 
440 ,90.7164 ,1.75117 ,0.66490 ,6.52403 
441 ,90.9246 ,1.75325 ,0.64779 ,6.35614 
442 ,91.1167 ,1.75522 ,0.64437 ,6.32256 
443 ,91.3248 ,1.75736 ,0.66490 ,6.52403 
444 ,91.5329 ,1.75934 ,0.63753 ,6.25541 
445 ,91.7086 ,1.76127 ,0.65464 ,6.42330 
446 ,91.9332 ,1.76323 ,0.65121 ,6.38972 
447 ,92.1572 ,1.76557 ,0.65464 ,6.42330 
448 ,92.3814 ,1.76777 ,0.64779 ,6.35614 
449 ,92.5895 ,1.76994 ,0.62384 ,6.12109 
450 ,92.7972 ,1.77197 ,0.64437 ,6.32256 
451 ,93.0056 ,1.77409 ,0.63068 ,6.18825 
452 ,93.2137 ,1.77615 ,0.63753 ,6.25541 
453 ,93.4216 ,1.77819 ,0.64095 ,6.28899 
454 ,93.6620 ,1.78065 ,0.64437 ,6.32256 
455 ,93.8861 ,1.78285 ,0.62042 ,6.08752 
456 ,94.0941 ,1.78500 ,0.64779 ,6.35614 
457 ,94.3182 ,1.78715 ,0.62726 ,6.15467 
458 ,94.5423 ,1.78938 ,0.63410 ,6.22183 
459 ,94.7341 ,1.79153 ,0.62726 ,6.15467 
460 ,94.9425 ,1.79341 ,0.64437 ,6.32256 
461 ,95.1344 ,1.79549 ,0.63068 ,6.18825 
462 ,95.3266 ,1.79730 ,0.63753 ,6.25541 
463 ,95.5345 ,1.79940 ,0.63753 ,6.25541 
464 ,95.7426 ,1.80148 ,0.64437 ,6.32256 
465 ,95.9508 ,1.80354 ,0.63068 ,6.18825 
