Data stamp = , 16-05-2022 17:30:49 938

Calibration Values: 
Slope = , 26.54 , g/V 
Offset Voltage at no contact = , -0.501760 , V 

No , Time , Stage Position ,   Mass , Force 
   ,  (s) ,      (mm)      ,   (g)  , (mN)  

1 ,0.0000 ,0.84964 ,5.27798 ,51.78758 
2 ,0.2177 ,0.84973 ,5.26430 ,51.65327 
3 ,0.9542 ,0.85328 ,5.27798 ,51.78758 
4 ,1.1782 ,0.85608 ,5.27114 ,51.72043 
5 ,1.3866 ,0.85809 ,5.28141 ,51.82116 
6 ,1.6103 ,0.86035 ,5.27456 ,51.75401 
7 ,1.8027 ,0.86238 ,5.21981 ,51.21675 
8 ,2.0105 ,0.86440 ,5.22665 ,51.28391 
9 ,2.2026 ,0.86640 ,5.19927 ,51.01528 
10 ,2.4110 ,0.86856 ,5.17874 ,50.81381 
11 ,2.6029 ,0.87044 ,5.15479 ,50.57876 
12 ,2.8112 ,0.87251 ,5.13425 ,50.37729 
13 ,3.0354 ,0.87465 ,5.13083 ,50.34372 
14 ,3.2275 ,0.87668 ,5.08977 ,49.94078 
15 ,3.4356 ,0.87866 ,5.08292 ,49.87362 
16 ,3.6596 ,0.88087 ,5.03843 ,49.43710 
17 ,3.8514 ,0.88300 ,5.02132 ,49.26921 
18 ,4.0438 ,0.88477 ,5.00421 ,49.10132 
19 ,4.2516 ,0.88684 ,5.01448 ,49.20205 
20 ,4.4436 ,0.88877 ,4.95288 ,48.59764 
21 ,4.6519 ,0.89089 ,4.95972 ,48.66480 
22 ,4.8596 ,0.89294 ,4.92208 ,48.29544 
23 ,5.0681 ,0.89504 ,4.90497 ,48.12755 
24 ,5.2918 ,0.89721 ,4.89470 ,48.02681 
25 ,5.4843 ,0.89917 ,4.86048 ,47.69103 
26 ,5.6602 ,0.90105 ,4.86390 ,47.72461 
27 ,5.8844 ,0.90304 ,4.84679 ,47.55672 
28 ,6.1082 ,0.90540 ,4.81941 ,47.28809 
29 ,6.3166 ,0.90755 ,4.78861 ,46.98589 
30 ,6.5246 ,0.90956 ,4.76124 ,46.71726 
31 ,6.7167 ,0.91150 ,4.75097 ,46.61653 
32 ,6.9089 ,0.91344 ,4.74413 ,46.54937 
33 ,7.1164 ,0.91553 ,4.71675 ,46.28074 
34 ,7.3088 ,0.91744 ,4.68253 ,45.94496 
35 ,7.5170 ,0.91954 ,4.67911 ,45.91138 
36 ,7.7092 ,0.92147 ,4.64831 ,45.60918 
37 ,7.9172 ,0.92351 ,4.64146 ,45.54202 
38 ,8.1415 ,0.92572 ,4.59697 ,45.10550 
39 ,8.3491 ,0.92785 ,4.58328 ,44.97119 
40 ,8.5574 ,0.92991 ,4.56617 ,44.80330 
41 ,8.7493 ,0.93187 ,4.53195 ,44.46751 
42 ,8.9737 ,0.93400 ,4.53195 ,44.46751 
43 ,9.1816 ,0.93610 ,4.48746 ,44.03100 
44 ,9.3898 ,0.93821 ,4.48062 ,43.96384 
45 ,9.5819 ,0.94015 ,4.44982 ,43.66163 
46 ,9.7900 ,0.94224 ,4.43955 ,43.56090 
47 ,9.9977 ,0.94444 ,4.42929 ,43.46016 
48 ,10.2058 ,0.94632 ,4.38480 ,43.02365 
49 ,10.3818 ,0.94826 ,4.39507 ,43.12438 
50 ,10.6224 ,0.95041 ,4.38138 ,42.99007 
51 ,10.8304 ,0.95273 ,4.33004 ,42.48639 
52 ,11.0544 ,0.95474 ,4.31293 ,42.31850 
53 ,11.2624 ,0.95694 ,4.28898 ,42.08345 
54 ,11.4544 ,0.95885 ,4.30609 ,42.25135 
55 ,11.6946 ,0.96116 ,4.25133 ,41.71409 
56 ,11.9349 ,0.96355 ,4.23080 ,41.51262 
57 ,12.1428 ,0.96567 ,4.20000 ,41.21042 
58 ,12.3189 ,0.96764 ,4.20342 ,41.24400 
59 ,12.5271 ,0.96965 ,4.16920 ,40.90821 
60 ,12.7353 ,0.97168 ,4.15894 ,40.80748 
61 ,12.9432 ,0.97376 ,4.11445 ,40.37096 
62 ,13.1513 ,0.97588 ,4.11103 ,40.33738 
63 ,13.3753 ,0.97793 ,4.08023 ,40.03518 
64 ,13.5834 ,0.98015 ,4.06312 ,39.86729 
65 ,13.7910 ,0.98217 ,4.05627 ,39.80013 
66 ,13.9836 ,0.98414 ,4.03232 ,39.56508 
67 ,14.2078 ,0.98633 ,4.01863 ,39.43077 
68 ,14.4159 ,0.98850 ,3.99467 ,39.19572 
69 ,14.6240 ,0.99061 ,3.96045 ,38.85994 
70 ,14.8316 ,0.99262 ,3.96045 ,38.85994 
71 ,15.0400 ,0.99472 ,3.93307 ,38.59131 
72 ,15.2479 ,0.99679 ,3.91254 ,38.38984 
73 ,15.4562 ,0.99886 ,3.90570 ,38.32268 
74 ,15.6642 ,1.00085 ,3.86121 ,37.88617 
75 ,15.8723 ,1.00305 ,3.87147 ,37.98690 
76 ,16.0961 ,1.00523 ,3.84067 ,37.68470 
77 ,16.3046 ,1.00736 ,3.79961 ,37.28176 
78 ,16.5125 ,1.00946 ,3.79961 ,37.28176 
79 ,16.7367 ,1.01172 ,3.78592 ,37.14744 
80 ,16.9288 ,1.01360 ,3.74485 ,36.74450 
81 ,17.1363 ,1.01576 ,3.75170 ,36.81166 
82 ,17.3290 ,1.01756 ,3.70721 ,36.37514 
83 ,17.5371 ,1.01974 ,3.70037 ,36.30799 
84 ,17.7609 ,1.02186 ,3.66272 ,35.93863 
85 ,17.9692 ,1.02396 ,3.65930 ,35.90505 
86 ,18.1769 ,1.02609 ,3.64219 ,35.73716 
87 ,18.3853 ,1.02817 ,3.59770 ,35.30064 
88 ,18.5936 ,1.03024 ,3.60454 ,35.36779 
89 ,18.8013 ,1.03226 ,3.56348 ,34.96485 
90 ,18.9935 ,1.03424 ,3.56348 ,34.96485 
91 ,19.2016 ,1.03626 ,3.52926 ,34.62907 
92 ,19.4258 ,1.03851 ,3.51557 ,34.49476 
93 ,19.6340 ,1.04058 ,3.51557 ,34.49476 
94 ,19.8417 ,1.04271 ,3.47450 ,34.09182 
95 ,20.0340 ,1.04463 ,3.48135 ,34.15898 
96 ,20.2262 ,1.04655 ,3.41975 ,33.55457 
97 ,20.4178 ,1.04857 ,3.44028 ,33.75604 
98 ,20.6264 ,1.05050 ,3.38553 ,33.21878 
99 ,20.8504 ,1.05273 ,3.38210 ,33.18520 
100 ,21.0585 ,1.05488 ,3.36499 ,33.01731 
101 ,21.2663 ,1.05698 ,3.32735 ,32.64795 
102 ,21.4587 ,1.05886 ,3.33419 ,32.71511 
103 ,21.6826 ,1.06110 ,3.28971 ,32.27859 
104 ,21.8906 ,1.06320 ,3.28286 ,32.21143 
105 ,22.0987 ,1.06524 ,3.27602 ,32.14428 
106 ,22.2911 ,1.06724 ,3.25206 ,31.90923 
107 ,22.4990 ,1.06926 ,3.24522 ,31.84207 
108 ,22.6907 ,1.07117 ,3.22468 ,31.64060 
109 ,22.8830 ,1.07310 ,3.19046 ,31.30482 
110 ,23.0754 ,1.07501 ,3.18704 ,31.27124 
111 ,23.2831 ,1.07713 ,3.15282 ,30.93546 
112 ,23.4755 ,1.07901 ,3.15966 ,31.00262 
113 ,23.6835 ,1.08111 ,3.11175 ,30.53252 
114 ,23.9076 ,1.08333 ,3.10833 ,30.49894 
115 ,24.1158 ,1.08543 ,3.09806 ,30.39821 
116 ,24.3077 ,1.08735 ,3.05700 ,29.99527 
117 ,24.4998 ,1.08939 ,3.04673 ,29.89453 
118 ,24.7080 ,1.09137 ,3.01935 ,29.62590 
119 ,24.9160 ,1.09340 ,3.01935 ,29.62590 
120 ,25.1080 ,1.09535 ,2.99540 ,29.39086 
121 ,25.3161 ,1.09741 ,2.99198 ,29.35728 
122 ,25.5243 ,1.09945 ,2.93038 ,28.75287 
123 ,25.7323 ,1.10156 ,2.94064 ,28.85360 
124 ,25.9560 ,1.10381 ,2.92011 ,28.65213 
125 ,26.1645 ,1.10589 ,2.89273 ,28.38351 
126 ,26.3886 ,1.10817 ,2.86878 ,28.14846 
127 ,26.5968 ,1.11029 ,2.87562 ,28.21562 
128 ,26.7888 ,1.11217 ,2.86193 ,28.08130 
129 ,26.9810 ,1.11410 ,2.84140 ,27.87983 
130 ,27.1890 ,1.11614 ,2.80034 ,27.47689 
131 ,27.3970 ,1.11821 ,2.80376 ,27.51047 
132 ,27.6052 ,1.12026 ,2.76954 ,27.17469 
133 ,27.8453 ,1.12257 ,2.76954 ,27.17469 
134 ,28.0529 ,1.12481 ,2.74900 ,26.97322 
135 ,28.2451 ,1.12669 ,2.71478 ,26.63744 
136 ,28.4373 ,1.12866 ,2.72163 ,26.70459 
137 ,28.6297 ,1.13058 ,2.68740 ,26.36881 
138 ,28.8375 ,1.13270 ,2.68740 ,26.36881 
139 ,29.0298 ,1.13459 ,2.64634 ,25.96587 
140 ,29.2214 ,1.13647 ,2.65318 ,26.03303 
141 ,29.4300 ,1.13848 ,2.62238 ,25.73082 
142 ,29.6218 ,1.14046 ,2.59501 ,25.46220 
143 ,29.8300 ,1.14252 ,2.56763 ,25.19357 
144 ,30.0222 ,1.14452 ,2.57447 ,25.26073 
145 ,30.2302 ,1.14653 ,2.53683 ,24.89136 
146 ,30.4379 ,1.14861 ,2.54367 ,24.95852 
147 ,30.6303 ,1.15058 ,2.51287 ,24.65632 
148 ,30.8386 ,1.15265 ,2.51630 ,24.68989 
149 ,31.0464 ,1.15472 ,2.47523 ,24.28696 
150 ,31.2546 ,1.15673 ,2.46839 ,24.21980 
151 ,31.4625 ,1.15886 ,2.46154 ,24.15264 
152 ,31.6869 ,1.16112 ,2.41021 ,23.64897 
153 ,31.8948 ,1.16320 ,2.41363 ,23.68255 
154 ,32.0870 ,1.16511 ,2.38625 ,23.41392 
155 ,32.2627 ,1.16701 ,2.38968 ,23.44750 
156 ,32.4552 ,1.16884 ,2.36572 ,23.21245 
157 ,32.6627 ,1.17090 ,2.34519 ,23.01098 
158 ,32.8553 ,1.17278 ,2.32808 ,22.84309 
159 ,33.0631 ,1.17483 ,2.29728 ,22.54088 
160 ,33.2712 ,1.17699 ,2.28701 ,22.44015 
161 ,33.4794 ,1.17897 ,2.29385 ,22.50731 
162 ,33.6873 ,1.18117 ,2.25621 ,22.13794 
163 ,33.9277 ,1.18338 ,2.23568 ,21.93647 
164 ,34.1357 ,1.18555 ,2.23226 ,21.90290 
165 ,34.3440 ,1.18759 ,2.19803 ,21.56711 
166 ,34.5518 ,1.18976 ,2.17066 ,21.29849 
167 ,34.7442 ,1.19173 ,2.17750 ,21.36564 
168 ,34.9519 ,1.19367 ,2.14670 ,21.06344 
169 ,35.1601 ,1.19578 ,2.15697 ,21.16417 
170 ,35.3521 ,1.19772 ,2.10906 ,20.69408 
171 ,35.5761 ,1.19999 ,2.11248 ,20.72766 
172 ,35.7840 ,1.20208 ,2.08852 ,20.49261 
173 ,35.9600 ,1.20396 ,2.07141 ,20.32472 
174 ,36.1846 ,1.20591 ,2.03719 ,19.98893 
175 ,36.4087 ,1.20828 ,2.02008 ,19.82104 
176 ,36.6323 ,1.21040 ,2.03035 ,19.92178 
177 ,36.8410 ,1.21258 ,1.99613 ,19.58599 
178 ,37.0165 ,1.21452 ,1.97902 ,19.41810 
179 ,37.2411 ,1.21652 ,1.95848 ,19.21663 
180 ,37.4486 ,1.21874 ,1.93795 ,19.01516 
181 ,37.6408 ,1.22076 ,1.93795 ,19.01516 
182 ,37.8487 ,1.22266 ,1.90373 ,18.67938 
183 ,38.0574 ,1.22478 ,1.90373 ,18.67938 
184 ,38.2811 ,1.22703 ,1.87977 ,18.44433 
185 ,38.4894 ,1.22910 ,1.85582 ,18.20928 
186 ,38.7295 ,1.23140 ,1.84555 ,18.10855 
187 ,38.9538 ,1.23373 ,1.81817 ,17.83992 
188 ,39.1778 ,1.23598 ,1.80791 ,17.73919 
189 ,39.3858 ,1.23811 ,1.78395 ,17.50414 
190 ,39.5940 ,1.24015 ,1.77711 ,17.43698 
191 ,39.8178 ,1.24222 ,1.75657 ,17.23551 
192 ,40.0259 ,1.24445 ,1.72235 ,16.89973 
193 ,40.2345 ,1.24660 ,1.70524 ,16.73184 
194 ,40.4421 ,1.24859 ,1.70866 ,16.76542 
195 ,40.6503 ,1.25069 ,1.66418 ,16.32890 
196 ,40.8422 ,1.25265 ,1.67786 ,16.46321 
197 ,41.0505 ,1.25474 ,1.64022 ,16.09385 
198 ,41.2427 ,1.25670 ,1.64022 ,16.09385 
199 ,41.4345 ,1.25853 ,1.62995 ,15.99311 
200 ,41.6427 ,1.26063 ,1.60942 ,15.79164 
201 ,41.8505 ,1.26270 ,1.57178 ,15.42228 
202 ,42.0428 ,1.26465 ,1.57178 ,15.42228 
203 ,42.2350 ,1.26656 ,1.54782 ,15.18724 
204 ,42.4428 ,1.26860 ,1.55124 ,15.22081 
205 ,42.6512 ,1.27065 ,1.51360 ,14.85145 
206 ,42.8434 ,1.27268 ,1.51702 ,14.88503 
207 ,43.0514 ,1.27468 ,1.48280 ,14.54925 
208 ,43.2595 ,1.27675 ,1.49991 ,14.71714 
209 ,43.4835 ,1.27890 ,1.45200 ,14.24704 
210 ,43.6912 ,1.28113 ,1.43147 ,14.04557 
211 ,43.8996 ,1.28317 ,1.42120 ,13.94484 
212 ,44.1079 ,1.28532 ,1.40067 ,13.74337 
213 ,44.3159 ,1.28739 ,1.38356 ,13.57548 
214 ,44.5239 ,1.28946 ,1.38356 ,13.57548 
215 ,44.7160 ,1.29139 ,1.34591 ,13.20612 
216 ,44.9242 ,1.29338 ,1.32538 ,13.00465 
217 ,45.1483 ,1.29565 ,1.31512 ,12.90391 
218 ,45.3560 ,1.29782 ,1.30827 ,12.83675 
219 ,45.5645 ,1.29980 ,1.30143 ,12.76960 
220 ,45.7725 ,1.30192 ,1.25694 ,12.33308 
221 ,45.9806 ,1.30399 ,1.26036 ,12.36666 
222 ,46.1725 ,1.30590 ,1.23983 ,12.16519 
223 ,46.3805 ,1.30795 ,1.23298 ,12.09803 
224 ,46.5726 ,1.30991 ,1.20218 ,11.79583 
225 ,46.7808 ,1.31202 ,1.19876 ,11.76225 
226 ,46.9725 ,1.31390 ,1.16112 ,11.39289 
227 ,47.1971 ,1.31607 ,1.16796 ,11.46004 
228 ,47.4051 ,1.31826 ,1.15085 ,11.29215 
229 ,47.6133 ,1.32031 ,1.12347 ,11.02353 
230 ,47.8215 ,1.32232 ,1.12690 ,11.05710 
231 ,48.0294 ,1.32451 ,1.08583 ,10.65416 
232 ,48.2213 ,1.32642 ,1.09267 ,10.72132 
233 ,48.4296 ,1.32850 ,1.05161 ,10.31838 
234 ,48.6217 ,1.33040 ,1.05503 ,10.35196 
235 ,48.8137 ,1.33235 ,1.03108 ,10.11691 
236 ,49.0213 ,1.33433 ,1.02765 ,10.08333 
237 ,49.2294 ,1.33642 ,0.99685 ,9.78113 
238 ,49.4540 ,1.33860 ,0.98659 ,9.68039 
239 ,49.6620 ,1.34085 ,0.97290 ,9.54608 
240 ,49.8861 ,1.34289 ,0.92841 ,9.10956 
241 ,50.0781 ,1.34505 ,0.91814 ,9.00883 
242 ,50.2863 ,1.34701 ,0.91130 ,8.94167 
243 ,50.4784 ,1.34907 ,0.89077 ,8.74020 
244 ,50.6865 ,1.35099 ,0.88734 ,8.70662 
245 ,50.8948 ,1.35306 ,0.85654 ,8.40442 
246 ,51.0864 ,1.35509 ,0.85312 ,8.37084 
247 ,51.2788 ,1.35697 ,0.84628 ,8.30368 
248 ,51.4705 ,1.35888 ,0.80521 ,7.90074 
249 ,51.6949 ,1.36101 ,0.80179 ,7.86717 
250 ,51.9030 ,1.36321 ,0.79837 ,7.83359 
251 ,52.1111 ,1.36525 ,0.76415 ,7.49780 
252 ,52.3193 ,1.36735 ,0.76415 ,7.49780 
253 ,52.5269 ,1.36942 ,0.74361 ,7.29633 
254 ,52.7355 ,1.37153 ,0.71281 ,6.99413 
255 ,52.9437 ,1.37360 ,0.71966 ,7.06129 
256 ,53.1355 ,1.37554 ,0.67859 ,6.65835 
257 ,53.3433 ,1.37758 ,0.68886 ,6.75908 
258 ,53.5355 ,1.37952 ,0.63753 ,6.25541 
259 ,53.7598 ,1.38170 ,0.65121 ,6.38972 
260 ,53.9515 ,1.38369 ,0.62384 ,6.12109 
261 ,54.1440 ,1.38563 ,0.62384 ,6.12109 
262 ,54.3362 ,1.38753 ,0.57593 ,5.65100 
263 ,54.5442 ,1.38958 ,0.57935 ,5.68458 
264 ,54.7519 ,1.39166 ,0.55882 ,5.48311 
265 ,54.9604 ,1.39376 ,0.53828 ,5.28164 
266 ,55.1844 ,1.39595 ,0.53144 ,5.21448 
267 ,55.3925 ,1.39807 ,0.50406 ,4.94585 
268 ,55.6167 ,1.40022 ,0.50064 ,4.91228 
269 ,55.8246 ,1.40234 ,0.49722 ,4.87870 
270 ,56.0327 ,1.40452 ,0.45273 ,4.44218 
271 ,56.2408 ,1.40657 ,0.43904 ,4.30787 
272 ,56.4487 ,1.40867 ,0.42877 ,4.20713 
273 ,56.6571 ,1.41065 ,0.41851 ,4.10640 
274 ,56.8650 ,1.41274 ,0.41166 ,4.03924 
275 ,57.0570 ,1.41479 ,0.37744 ,3.70346 
276 ,57.2491 ,1.41661 ,0.38771 ,3.80419 
277 ,57.4411 ,1.41858 ,0.38086 ,3.73703 
278 ,57.6334 ,1.42046 ,0.34322 ,3.36767 
279 ,57.8572 ,1.42260 ,0.33980 ,3.33410 
280 ,58.0494 ,1.42466 ,0.32611 ,3.19978 
281 ,58.2578 ,1.42670 ,0.31242 ,3.06547 
282 ,58.4658 ,1.42883 ,0.31242 ,3.06547 
283 ,58.6898 ,1.43096 ,0.27478 ,2.69611 
284 ,58.8819 ,1.43295 ,0.26109 ,2.56179 
285 ,59.1060 ,1.43517 ,0.26451 ,2.59537 
286 ,59.2980 ,1.43712 ,0.24055 ,2.36032 
287 ,59.5062 ,1.43918 ,0.24055 ,2.36032 
288 ,59.7139 ,1.44129 ,0.20291 ,1.99096 
289 ,59.9062 ,1.44318 ,0.22002 ,2.15885 
290 ,60.0981 ,1.44521 ,0.18580 ,1.82307 
291 ,60.2902 ,1.44702 ,0.19264 ,1.89023 
292 ,60.5307 ,1.44922 ,0.16185 ,1.58802 
293 ,60.7546 ,1.45165 ,0.14473 ,1.42013 
294 ,60.9469 ,1.45362 ,0.15500 ,1.52087 
295 ,61.1550 ,1.45570 ,0.12078 ,1.18508 
296 ,61.3314 ,1.45757 ,0.12420 ,1.21866 
297 ,61.5390 ,1.45945 ,0.10709 ,1.05077 
298 ,61.7471 ,1.46159 ,0.10709 ,1.05077 
299 ,61.9394 ,1.46353 ,0.08656 ,0.84930 
300 ,62.1473 ,1.46556 ,0.07629 ,0.74857 
301 ,62.3394 ,1.46751 ,0.05918 ,0.58067 
302 ,62.5310 ,1.46949 ,0.03522 ,0.34563 
303 ,62.7235 ,1.47143 ,0.04207 ,0.41278 
304 ,62.9475 ,1.47357 ,0.01469 ,0.14416 
305 ,63.1398 ,1.47553 ,0.00100 ,0.00984 
306 ,63.3315 ,1.47745 ,-0.00242 ,-0.02373 
307 ,63.5399 ,1.47949 ,-0.00242 ,-0.02373 
308 ,63.7479 ,1.48159 ,-0.02637 ,-0.25878 
309 ,63.9561 ,1.48368 ,-0.04348 ,-0.42667 
310 ,64.1642 ,1.48570 ,-0.03664 ,-0.35952 
311 ,64.3883 ,1.48795 ,-0.06744 ,-0.66172 
312 ,64.5803 ,1.48993 ,-0.07771 ,-0.76246 
313 ,64.7720 ,1.49185 ,-0.10166 ,-0.99751 
314 ,64.9646 ,1.49373 ,-0.08797 ,-0.86319 
315 ,65.1725 ,1.49579 ,-0.11193 ,-1.09824 
316 ,65.3648 ,1.49774 ,-0.10508 ,-1.03108 
317 ,65.5727 ,1.49978 ,-0.13588 ,-1.33329 
318 ,65.7644 ,1.50178 ,-0.12562 ,-1.23255 
319 ,65.9728 ,1.50386 ,-0.15984 ,-1.56834 
320 ,66.1970 ,1.50598 ,-0.17011 ,-1.66907 
321 ,66.4049 ,1.50812 ,-0.17695 ,-1.73623 
322 ,66.5972 ,1.51012 ,-0.19748 ,-1.93770 
323 ,66.8049 ,1.51211 ,-0.19064 ,-1.87054 
324 ,66.9973 ,1.51405 ,-0.21117 ,-2.07201 
325 ,67.1894 ,1.51599 ,-0.21802 ,-2.13917 
326 ,67.3813 ,1.51793 ,-0.20775 ,-2.03843 
327 ,67.5894 ,1.52000 ,-0.23855 ,-2.34064 
328 ,67.7977 ,1.52205 ,-0.23170 ,-2.27348 
329 ,68.0054 ,1.52415 ,-0.24881 ,-2.44137 
330 ,68.2137 ,1.52621 ,-0.28646 ,-2.81073 
331 ,68.4218 ,1.52832 ,-0.27961 ,-2.74358 
332 ,68.6139 ,1.53026 ,-0.31041 ,-3.04578 
333 ,68.8061 ,1.53218 ,-0.30015 ,-2.94505 
334 ,69.0141 ,1.53419 ,-0.31726 ,-3.11294 
335 ,69.2220 ,1.53634 ,-0.31384 ,-3.07936 
336 ,69.4461 ,1.53849 ,-0.35148 ,-3.44872 
337 ,69.6544 ,1.54059 ,-0.35832 ,-3.51588 
338 ,69.8621 ,1.54274 ,-0.35490 ,-3.48230 
339 ,70.0702 ,1.54482 ,-0.38570 ,-3.78450 
340 ,70.2621 ,1.54673 ,-0.38570 ,-3.78450 
341 ,70.4542 ,1.54864 ,-0.40623 ,-3.98597 
342 ,70.6468 ,1.55058 ,-0.39939 ,-3.91882 
343 ,70.8708 ,1.55275 ,-0.41650 ,-4.08671 
344 ,71.0790 ,1.55489 ,-0.44046 ,-4.32176 
345 ,71.2869 ,1.55695 ,-0.44388 ,-4.35534 
346 ,71.5272 ,1.55924 ,-0.47126 ,-4.62396 
347 ,71.7671 ,1.56180 ,-0.46441 ,-4.55681 
348 ,71.9595 ,1.56371 ,-0.46783 ,-4.59038 
349 ,72.1672 ,1.56575 ,-0.50548 ,-4.95975 
350 ,72.3756 ,1.56786 ,-0.50548 ,-4.95975 
351 ,72.5997 ,1.57009 ,-0.50890 ,-4.99332 
352 ,72.8078 ,1.57218 ,-0.51917 ,-5.09406 
353 ,73.0159 ,1.57422 ,-0.53628 ,-5.26195 
354 ,73.2234 ,1.57633 ,-0.54312 ,-5.32911 
355 ,73.4160 ,1.57824 ,-0.55681 ,-5.46342 
356 ,73.6077 ,1.58017 ,-0.58419 ,-5.73205 
357 ,73.8161 ,1.58215 ,-0.55339 ,-5.42984 
358 ,74.0243 ,1.58432 ,-0.57392 ,-5.63131 
359 ,74.2161 ,1.58629 ,-0.59445 ,-5.83278 
360 ,74.4240 ,1.58828 ,-0.60814 ,-5.96709 
361 ,74.6163 ,1.59024 ,-0.61499 ,-6.03425 
362 ,74.8244 ,1.59234 ,-0.63894 ,-6.26930 
363 ,75.0327 ,1.59439 ,-0.63552 ,-6.23572 
364 ,75.2409 ,1.59646 ,-0.63894 ,-6.26930 
365 ,75.4484 ,1.59862 ,-0.65947 ,-6.47077 
366 ,75.6411 ,1.60045 ,-0.65947 ,-6.47077 
367 ,75.8487 ,1.60264 ,-0.68685 ,-6.73940 
368 ,76.0410 ,1.60451 ,-0.66974 ,-6.57150 
369 ,76.2330 ,1.60643 ,-0.70739 ,-6.94086 
370 ,76.4412 ,1.60844 ,-0.69712 ,-6.84013 
371 ,76.6333 ,1.61038 ,-0.72450 ,-7.10876 
372 ,76.8571 ,1.61261 ,-0.71423 ,-7.00802 
373 ,77.0653 ,1.61472 ,-0.74161 ,-7.27665 
374 ,77.2737 ,1.61678 ,-0.75187 ,-7.37738 
375 ,77.4816 ,1.61888 ,-0.74503 ,-7.31023 
376 ,77.6898 ,1.62098 ,-0.77583 ,-7.61243 
377 ,77.8819 ,1.62292 ,-0.77241 ,-7.57885 
378 ,78.0898 ,1.62496 ,-0.78952 ,-7.74674 
379 ,78.3141 ,1.62711 ,-0.78610 ,-7.71317 
380 ,78.5221 ,1.62926 ,-0.81347 ,-7.98179 
381 ,78.7463 ,1.63141 ,-0.83401 ,-8.18326 
382 ,78.9544 ,1.63353 ,-0.81347 ,-7.98179 
383 ,79.1460 ,1.63561 ,-0.84769 ,-8.31758 
384 ,79.3387 ,1.63746 ,-0.83743 ,-8.21684 
385 ,79.5467 ,1.63956 ,-0.86138 ,-8.45189 
386 ,79.7547 ,1.64156 ,-0.86138 ,-8.45189 
387 ,79.9628 ,1.64364 ,-0.87165 ,-8.55262 
388 ,80.1707 ,1.64574 ,-0.89218 ,-8.75409 
389 ,80.3951 ,1.64791 ,-0.89560 ,-8.78767 
390 ,80.6349 ,1.65029 ,-0.88192 ,-8.65336 
391 ,80.8272 ,1.65233 ,-0.90245 ,-8.85483 
392 ,81.0354 ,1.65437 ,-0.87849 ,-8.61978 
393 ,81.2594 ,1.65648 ,-0.88876 ,-8.72051 
394 ,81.4831 ,1.65892 ,-0.88192 ,-8.65336 
395 ,81.6913 ,1.66091 ,-0.86823 ,-8.51904 
396 ,81.8997 ,1.66312 ,-0.84085 ,-8.25042 
397 ,82.1075 ,1.66511 ,-0.85796 ,-8.41831 
398 ,82.3319 ,1.66736 ,-0.83401 ,-8.18326 
399 ,82.5397 ,1.66951 ,-0.82032 ,-8.04895 
400 ,82.7640 ,1.67177 ,-0.82716 ,-8.11611 
401 ,82.9721 ,1.67381 ,-0.56708 ,-5.56415 
402 ,83.1963 ,1.67599 ,0.70939 ,6.96055 
403 ,83.4043 ,1.67810 ,0.69913 ,6.85982 
404 ,83.6281 ,1.68024 ,0.70255 ,6.89340 
405 ,83.8204 ,1.68227 ,0.69913 ,6.85982 
406 ,84.0123 ,1.68418 ,0.70597 ,6.92697 
407 ,84.2369 ,1.68639 ,0.70939 ,6.96055 
408 ,84.4445 ,1.68849 ,0.67859 ,6.65835 
409 ,84.6363 ,1.69044 ,0.69570 ,6.82624 
410 ,84.8449 ,1.69246 ,0.66833 ,6.55761 
411 ,85.0690 ,1.69467 ,0.66148 ,6.49046 
412 ,85.2770 ,1.69683 ,0.67175 ,6.59119 
413 ,85.4851 ,1.69890 ,0.65464 ,6.42330 
414 ,85.6928 ,1.70098 ,0.67517 ,6.62477 
415 ,85.9013 ,1.70304 ,0.64779 ,6.35614 
416 ,86.1253 ,1.70527 ,0.63753 ,6.25541 
417 ,86.3334 ,1.70735 ,0.66490 ,6.52403 
418 ,86.5256 ,1.70929 ,0.63753 ,6.25541 
419 ,86.7334 ,1.71130 ,0.65464 ,6.42330 
420 ,86.9418 ,1.71347 ,0.64779 ,6.35614 
421 ,87.1499 ,1.71553 ,0.64095 ,6.28899 
422 ,87.3579 ,1.71760 ,0.63753 ,6.25541 
423 ,87.5659 ,1.71968 ,0.63068 ,6.18825 
424 ,87.7580 ,1.72161 ,0.63410 ,6.22183 
425 ,87.9817 ,1.72381 ,0.61015 ,5.98678 
426 ,88.1902 ,1.72588 ,0.62042 ,6.08752 
427 ,88.3983 ,1.72802 ,0.62726 ,6.15467 
428 ,88.6064 ,1.73006 ,0.62042 ,6.08752 
429 ,88.8145 ,1.73210 ,0.62384 ,6.12109 
430 ,89.0221 ,1.73423 ,0.61357 ,6.02036 
431 ,89.2307 ,1.73627 ,0.62726 ,6.15467 
432 ,89.4548 ,1.73853 ,0.62726 ,6.15467 
433 ,89.6467 ,1.74048 ,0.63068 ,6.18825 
434 ,89.8391 ,1.74244 ,0.65464 ,6.42330 
435 ,90.0468 ,1.74445 ,0.66148 ,6.49046 
436 ,90.2388 ,1.74643 ,0.64779 ,6.35614 
437 ,90.4309 ,1.74835 ,0.66148 ,6.49046 
438 ,90.6233 ,1.75025 ,0.64437 ,6.32256 
439 ,90.8311 ,1.75229 ,0.66148 ,6.49046 
440 ,91.0396 ,1.75440 ,0.63753 ,6.25541 
441 ,91.2310 ,1.75638 ,0.64437 ,6.32256 
442 ,91.4554 ,1.75844 ,0.63753 ,6.25541 
443 ,91.6638 ,1.76060 ,0.64437 ,6.32256 
444 ,91.8715 ,1.76274 ,0.64779 ,6.35614 
445 ,92.0798 ,1.76481 ,0.62726 ,6.15467 
446 ,92.2879 ,1.76692 ,0.64779 ,6.35614 
447 ,92.4800 ,1.76882 ,0.63068 ,6.18825 
448 ,92.6720 ,1.77074 ,0.64779 ,6.35614 
449 ,92.8961 ,1.77293 ,0.63410 ,6.22183 
450 ,93.0883 ,1.77491 ,0.63753 ,6.25541 
451 ,93.3122 ,1.77707 ,0.64437 ,6.32256 
452 ,93.5360 ,1.77924 ,0.63068 ,6.18825 
453 ,93.7284 ,1.78128 ,0.63753 ,6.25541 
454 ,93.9368 ,1.78341 ,0.63068 ,6.18825 
455 ,94.1607 ,1.78556 ,0.62042 ,6.08752 
456 ,94.3689 ,1.78768 ,0.64437 ,6.32256 
457 ,94.5607 ,1.78975 ,0.63410 ,6.22183 
458 ,94.7688 ,1.79173 ,0.65806 ,6.45688 
459 ,94.9771 ,1.79381 ,0.63068 ,6.18825 
460 ,95.1851 ,1.79578 ,0.64437 ,6.32256 
461 ,95.4092 ,1.79807 ,0.65806 ,6.45688 
462 ,95.6012 ,1.80001 ,0.62384 ,6.12109 
463 ,95.8094 ,1.80215 ,0.63753 ,6.25541 
464 ,96.0014 ,1.80402 ,0.62384 ,6.12109 
