Data stamp = , 17-05-2022 17:15:58 811

Calibration Values: 
Slope = , 26.54 , g/V 
Offset Voltage at no contact = , -0.501760 , V 

No , Time , Stage Position ,   Mass , Force 
   ,  (s) ,      (mm)      ,   (g)  , (mN)  

1 ,0.0000 ,0.84970 ,5.16848 ,50.71308 
2 ,0.3432 ,0.85000 ,5.16163 ,50.64592 
3 ,0.8077 ,0.85199 ,5.15821 ,50.61234 
4 ,1.0636 ,0.85509 ,5.17874 ,50.81381 
5 ,1.2716 ,0.85709 ,5.14110 ,50.44445 
6 ,1.4637 ,0.85907 ,5.17532 ,50.78023 
7 ,1.6720 ,0.86115 ,5.14794 ,50.51161 
8 ,1.8964 ,0.86334 ,5.14452 ,50.47803 
9 ,2.0885 ,0.86547 ,5.13768 ,50.41087 
10 ,2.2961 ,0.86751 ,5.08977 ,49.94078 
11 ,2.5045 ,0.86961 ,5.08977 ,49.94078 
12 ,2.7127 ,0.87155 ,5.05897 ,49.63857 
13 ,2.9368 ,0.87380 ,5.01790 ,49.23563 
14 ,3.1444 ,0.87587 ,5.03159 ,49.36995 
15 ,3.3527 ,0.87800 ,4.98368 ,48.89985 
16 ,3.5772 ,0.88028 ,4.96657 ,48.73196 
17 ,3.8011 ,0.88242 ,4.94946 ,48.56407 
18 ,3.9931 ,0.88440 ,4.92208 ,48.29544 
19 ,4.2013 ,0.88641 ,4.91181 ,48.19471 
20 ,4.4253 ,0.88870 ,4.89128 ,47.99324 
21 ,4.6334 ,0.89074 ,4.84679 ,47.55672 
22 ,4.8414 ,0.89283 ,4.85364 ,47.62387 
23 ,5.0494 ,0.89492 ,4.79888 ,47.08662 
24 ,5.2733 ,0.89720 ,4.77835 ,46.88515 
25 ,5.4973 ,0.89943 ,4.76466 ,46.75084 
26 ,5.7056 ,0.90148 ,4.74755 ,46.58295 
27 ,5.9298 ,0.90377 ,4.70990 ,46.21359 
28 ,6.1381 ,0.90584 ,4.69964 ,46.11285 
29 ,6.3460 ,0.90788 ,4.68595 ,45.97854 
30 ,6.5542 ,0.90994 ,4.64831 ,45.60918 
31 ,6.7459 ,0.91191 ,4.63119 ,45.44128 
32 ,6.9385 ,0.91384 ,4.61066 ,45.23981 
33 ,7.1626 ,0.91606 ,4.59355 ,45.07192 
34 ,7.3705 ,0.91813 ,4.55249 ,44.66898 
35 ,7.5786 ,0.92016 ,4.54906 ,44.63541 
36 ,7.7863 ,0.92228 ,4.51826 ,44.33320 
37 ,7.9947 ,0.92437 ,4.50800 ,44.23247 
38 ,8.2191 ,0.92661 ,4.47720 ,43.93026 
39 ,8.4270 ,0.92867 ,4.44982 ,43.66163 
40 ,8.6191 ,0.93075 ,4.43271 ,43.49374 
41 ,8.8272 ,0.93275 ,4.40875 ,43.25870 
42 ,9.0352 ,0.93480 ,4.39164 ,43.09080 
43 ,9.2594 ,0.93702 ,4.38138 ,42.99007 
44 ,9.4835 ,0.93925 ,4.34373 ,42.62071 
45 ,9.7074 ,0.94146 ,4.31293 ,42.31850 
46 ,9.9317 ,0.94368 ,4.28898 ,42.08345 
47 ,10.1558 ,0.94598 ,4.27187 ,41.91556 
48 ,10.3639 ,0.94807 ,4.26160 ,41.81483 
49 ,10.5721 ,0.95015 ,4.22738 ,41.47905 
50 ,10.7958 ,0.95238 ,4.21711 ,41.37831 
51 ,11.0361 ,0.95477 ,4.18631 ,41.07611 
52 ,11.2599 ,0.95696 ,4.15894 ,40.80748 
53 ,11.4683 ,0.95907 ,4.12814 ,40.50527 
54 ,11.6764 ,0.96119 ,4.12814 ,40.50527 
55 ,11.8847 ,0.96330 ,4.10076 ,40.23665 
56 ,12.1086 ,0.96546 ,4.05285 ,39.76655 
57 ,12.3164 ,0.96754 ,4.06312 ,39.86729 
58 ,12.5088 ,0.96949 ,4.02547 ,39.49793 
59 ,12.7168 ,0.97159 ,4.02205 ,39.46435 
60 ,12.9090 ,0.97350 ,3.98098 ,39.06141 
61 ,13.1169 ,0.97559 ,3.99125 ,39.16214 
62 ,13.3087 ,0.97750 ,3.93992 ,38.65847 
63 ,13.5171 ,0.97959 ,3.94676 ,38.72562 
64 ,13.7413 ,0.98178 ,3.89885 ,38.25553 
65 ,13.9490 ,0.98389 ,3.86805 ,37.95332 
66 ,14.1415 ,0.98586 ,3.86121 ,37.88617 
67 ,14.3495 ,0.98790 ,3.83725 ,37.65112 
68 ,14.5576 ,0.98997 ,3.83725 ,37.65112 
69 ,14.7658 ,0.99206 ,3.78592 ,37.14744 
70 ,14.9740 ,0.99420 ,3.78250 ,37.11387 
71 ,15.1821 ,0.99621 ,3.75512 ,36.84524 
72 ,15.4061 ,0.99847 ,3.72090 ,36.50946 
73 ,15.6295 ,1.00061 ,3.72090 ,36.50946 
74 ,15.8220 ,1.00262 ,3.67983 ,36.10652 
75 ,16.0300 ,1.00468 ,3.66957 ,36.00578 
76 ,16.2382 ,1.00681 ,3.66614 ,35.97220 
77 ,16.4464 ,1.00883 ,3.62166 ,35.53569 
78 ,16.6381 ,1.01083 ,3.62850 ,35.60284 
79 ,16.8626 ,1.01299 ,3.58401 ,35.16632 
80 ,17.0866 ,1.01525 ,3.56006 ,34.93128 
81 ,17.2947 ,1.01734 ,3.55663 ,34.89770 
82 ,17.5189 ,1.01960 ,3.53268 ,34.66265 
83 ,17.7269 ,1.02164 ,3.49161 ,34.25971 
84 ,17.9349 ,1.02373 ,3.48819 ,34.22613 
85 ,18.1430 ,1.02581 ,3.45055 ,33.85677 
86 ,18.3351 ,1.02778 ,3.44028 ,33.75604 
87 ,18.5592 ,1.02997 ,3.41290 ,33.48741 
88 ,18.7672 ,1.03205 ,3.38553 ,33.21878 
89 ,18.9751 ,1.03412 ,3.38895 ,33.25236 
90 ,19.1832 ,1.03619 ,3.34446 ,32.81584 
91 ,19.3914 ,1.03825 ,3.33419 ,32.71511 
92 ,19.5995 ,1.04036 ,3.31708 ,32.54722 
93 ,19.8079 ,1.04241 ,3.28971 ,32.27859 
94 ,19.9994 ,1.04453 ,3.26233 ,32.00996 
95 ,20.2080 ,1.04651 ,3.24180 ,31.80849 
96 ,20.4161 ,1.04857 ,3.23495 ,31.74134 
97 ,20.6242 ,1.05064 ,3.21100 ,31.50629 
98 ,20.8321 ,1.05271 ,3.19046 ,31.30482 
99 ,21.0720 ,1.05502 ,3.16993 ,31.10335 
100 ,21.2803 ,1.05717 ,3.11518 ,30.56610 
101 ,21.5046 ,1.05940 ,3.11518 ,30.56610 
102 ,21.7446 ,1.06161 ,3.11860 ,30.59968 
103 ,21.9687 ,1.06407 ,3.07069 ,30.12958 
104 ,22.1767 ,1.06613 ,3.05358 ,29.96169 
105 ,22.4008 ,1.06829 ,3.01935 ,29.62590 
106 ,22.5930 ,1.07030 ,3.02962 ,29.72664 
107 ,22.8010 ,1.07238 ,2.98513 ,29.29012 
108 ,23.0090 ,1.07447 ,2.97487 ,29.18939 
109 ,23.2170 ,1.07655 ,2.95433 ,28.98792 
110 ,23.4251 ,1.07858 ,2.94407 ,28.88718 
111 ,23.6174 ,1.08057 ,2.91327 ,28.58498 
112 ,23.8092 ,1.08251 ,2.89616 ,28.41709 
113 ,24.0176 ,1.08457 ,2.87562 ,28.21562 
114 ,24.2415 ,1.08674 ,2.84825 ,27.94699 
115 ,24.4333 ,1.08878 ,2.84482 ,27.91341 
116 ,24.6417 ,1.09079 ,2.80718 ,27.54405 
117 ,24.8657 ,1.09299 ,2.78322 ,27.30900 
118 ,25.0741 ,1.09509 ,2.78665 ,27.34258 
119 ,25.2825 ,1.09715 ,2.72847 ,26.77175 
120 ,25.4898 ,1.09922 ,2.73874 ,26.87248 
121 ,25.6982 ,1.10136 ,2.70109 ,26.50312 
122 ,25.9061 ,1.10346 ,2.69083 ,26.40239 
123 ,26.0984 ,1.10550 ,2.68056 ,26.30165 
124 ,26.3064 ,1.10739 ,2.66687 ,26.16734 
125 ,26.5305 ,1.10961 ,2.64976 ,25.99945 
126 ,26.7383 ,1.11172 ,2.62581 ,25.76440 
127 ,26.9628 ,1.11395 ,2.58474 ,25.36146 
128 ,27.1708 ,1.11608 ,2.59843 ,25.49577 
129 ,27.3791 ,1.11815 ,2.55394 ,25.05926 
130 ,27.5871 ,1.12020 ,2.53683 ,24.89136 
131 ,27.7946 ,1.12238 ,2.52656 ,24.79063 
132 ,28.0032 ,1.12433 ,2.49918 ,24.52200 
133 ,28.2270 ,1.12660 ,2.48892 ,24.42127 
134 ,28.4354 ,1.12867 ,2.47181 ,24.25338 
135 ,28.6435 ,1.13071 ,2.45812 ,24.11906 
136 ,28.8672 ,1.13297 ,2.42048 ,23.74970 
137 ,29.0755 ,1.13514 ,2.40679 ,23.61539 
138 ,29.2843 ,1.13721 ,2.38283 ,23.38034 
139 ,29.5238 ,1.13944 ,2.37256 ,23.27961 
140 ,29.7160 ,1.14159 ,2.36230 ,23.17887 
141 ,29.9241 ,1.14363 ,2.33492 ,22.91024 
142 ,30.1480 ,1.14584 ,2.32123 ,22.77593 
143 ,30.3721 ,1.14809 ,2.31097 ,22.67520 
144 ,30.5802 ,1.15019 ,2.27674 ,22.33941 
145 ,30.7881 ,1.15224 ,2.27674 ,22.33941 
146 ,30.9964 ,1.15433 ,2.24937 ,22.07079 
147 ,31.1885 ,1.15631 ,2.22883 ,21.86932 
148 ,31.3807 ,1.15816 ,2.18777 ,21.46638 
149 ,31.5886 ,1.16020 ,2.20488 ,21.63427 
150 ,31.7813 ,1.16217 ,2.17750 ,21.36564 
151 ,31.9886 ,1.16422 ,2.18092 ,21.39922 
152 ,32.1965 ,1.16629 ,2.14670 ,21.06344 
153 ,32.4051 ,1.16836 ,2.13986 ,20.99628 
154 ,32.6291 ,1.17062 ,2.13301 ,20.92912 
155 ,32.8372 ,1.17268 ,2.10221 ,20.62692 
156 ,33.0453 ,1.17476 ,2.09537 ,20.55976 
157 ,33.3012 ,1.17734 ,2.04404 ,20.05609 
158 ,33.5255 ,1.17960 ,2.04746 ,20.08967 
159 ,33.7656 ,1.18184 ,2.02693 ,19.88820 
160 ,33.9896 ,1.18421 ,1.97902 ,19.41810 
161 ,34.1818 ,1.18616 ,1.96875 ,19.31737 
162 ,34.4057 ,1.18833 ,1.95506 ,19.18305 
163 ,34.6298 ,1.19069 ,1.94137 ,19.04874 
164 ,34.8540 ,1.19283 ,1.92084 ,18.84727 
165 ,35.0621 ,1.19489 ,1.89688 ,18.61222 
166 ,35.2869 ,1.19706 ,1.91399 ,18.78011 
167 ,35.4943 ,1.19926 ,1.89346 ,18.57864 
168 ,35.7023 ,1.20132 ,1.86608 ,18.31002 
169 ,35.9264 ,1.20345 ,1.86608 ,18.31002 
170 ,36.1346 ,1.20563 ,1.83528 ,18.00781 
171 ,36.3588 ,1.20792 ,1.78737 ,17.53772 
172 ,36.5668 ,1.20998 ,1.79422 ,17.60487 
173 ,36.7754 ,1.21207 ,1.79422 ,17.60487 
174 ,36.9830 ,1.21420 ,1.79764 ,17.63845 
175 ,37.1906 ,1.21616 ,1.82160 ,17.87350 
176 ,37.3831 ,1.21815 ,1.73946 ,17.06762 
177 ,37.5910 ,1.22019 ,1.72578 ,16.93331 
178 ,37.7990 ,1.22232 ,1.68129 ,16.49679 
179 ,38.0075 ,1.22439 ,1.67786 ,16.46321 
180 ,38.2315 ,1.22661 ,1.67102 ,16.39605 
181 ,38.4394 ,1.22872 ,1.64022 ,16.09385 
182 ,38.6634 ,1.23089 ,1.64022 ,16.09385 
183 ,38.8718 ,1.23305 ,1.61969 ,15.89238 
184 ,39.0958 ,1.23529 ,1.59573 ,15.65733 
185 ,39.3039 ,1.23747 ,1.58204 ,15.52302 
186 ,39.4796 ,1.23926 ,1.56151 ,15.32155 
187 ,39.6721 ,1.24104 ,1.59231 ,15.62375 
188 ,39.8642 ,1.24308 ,1.55467 ,15.25439 
189 ,40.0878 ,1.24513 ,1.55467 ,15.25439 
190 ,40.2965 ,1.24727 ,1.51360 ,14.85145 
191 ,40.5205 ,1.24948 ,1.51018 ,14.81787 
192 ,40.7285 ,1.25166 ,1.51360 ,14.85145 
193 ,40.9366 ,1.25363 ,1.47253 ,14.44851 
194 ,41.1127 ,1.25560 ,1.46227 ,14.34778 
195 ,41.3208 ,1.25759 ,1.44516 ,14.17989 
196 ,41.5288 ,1.25968 ,1.43831 ,14.11273 
197 ,41.7368 ,1.26162 ,1.40751 ,13.81053 
198 ,41.9451 ,1.26369 ,1.40751 ,13.81053 
199 ,42.1531 ,1.26579 ,1.38356 ,13.57548 
200 ,42.3772 ,1.26804 ,1.35618 ,13.30685 
201 ,42.6013 ,1.27027 ,1.34934 ,13.23969 
202 ,42.8252 ,1.27249 ,1.34934 ,13.23969 
203 ,43.0175 ,1.27457 ,1.31512 ,12.90391 
204 ,43.2256 ,1.27651 ,1.31512 ,12.90391 
205 ,43.4333 ,1.27861 ,1.28774 ,12.63528 
206 ,43.6098 ,1.28054 ,1.29116 ,12.66886 
207 ,43.8178 ,1.28250 ,1.24325 ,12.19877 
208 ,44.0417 ,1.28478 ,1.25352 ,12.29950 
209 ,44.2660 ,1.28696 ,1.23983 ,12.16519 
210 ,44.4577 ,1.28899 ,1.21587 ,11.93014 
211 ,44.6820 ,1.29103 ,1.21587 ,11.93014 
212 ,44.9062 ,1.29335 ,1.20218 ,11.79583 
213 ,45.1302 ,1.29556 ,1.16454 ,11.42647 
214 ,45.3224 ,1.29755 ,1.16112 ,11.39289 
215 ,45.5305 ,1.29954 ,1.13716 ,11.15784 
216 ,45.7546 ,1.30189 ,1.10979 ,10.88921 
217 ,45.9785 ,1.30406 ,1.11321 ,10.92279 
218 ,46.1866 ,1.30623 ,1.10979 ,10.88921 
219 ,46.3787 ,1.30808 ,1.07556 ,10.55343 
220 ,46.5871 ,1.31017 ,1.06187 ,10.41912 
221 ,46.7947 ,1.31221 ,1.04134 ,10.21765 
222 ,46.9871 ,1.31416 ,1.05845 ,10.38554 
223 ,47.1950 ,1.31620 ,1.01396 ,9.94902 
224 ,47.4034 ,1.31834 ,1.02765 ,10.08333 
225 ,47.6271 ,1.32050 ,1.00028 ,9.81471 
226 ,47.8351 ,1.32259 ,0.97290 ,9.54608 
227 ,48.0436 ,1.32469 ,0.97632 ,9.57966 
228 ,48.2517 ,1.32680 ,0.94210 ,9.24388 
229 ,48.4597 ,1.32890 ,0.93525 ,9.17672 
230 ,48.6519 ,1.33081 ,0.91814 ,9.00883 
231 ,48.8597 ,1.33288 ,0.92499 ,9.07598 
232 ,49.0838 ,1.33509 ,0.90103 ,8.84094 
233 ,49.3080 ,1.33728 ,0.87023 ,8.53873 
234 ,49.5002 ,1.33926 ,0.87023 ,8.53873 
235 ,49.7242 ,1.34145 ,0.86681 ,8.50515 
236 ,49.9321 ,1.34352 ,0.82575 ,8.10221 
237 ,50.1725 ,1.34594 ,0.81890 ,8.03506 
238 ,50.3803 ,1.34808 ,0.81890 ,8.03506 
239 ,50.5886 ,1.35013 ,0.78126 ,7.66570 
240 ,50.8126 ,1.35235 ,0.78126 ,7.66570 
241 ,51.0046 ,1.35430 ,0.77441 ,7.59854 
242 ,51.2285 ,1.35649 ,0.73335 ,7.19560 
243 ,51.4369 ,1.35866 ,0.73335 ,7.19560 
244 ,51.6290 ,1.36057 ,0.73677 ,7.22918 
245 ,51.8371 ,1.36264 ,0.70939 ,6.96055 
246 ,52.0610 ,1.36481 ,0.69913 ,6.85982 
247 ,52.2691 ,1.36691 ,0.67517 ,6.62477 
248 ,52.4775 ,1.36904 ,0.66148 ,6.49046 
249 ,52.6856 ,1.37118 ,0.66490 ,6.52403 
250 ,52.8776 ,1.37312 ,0.63068 ,6.18825 
251 ,53.0695 ,1.37503 ,0.63068 ,6.18825 
252 ,53.2773 ,1.37701 ,0.61699 ,6.05394 
253 ,53.4860 ,1.37912 ,0.61357 ,6.02036 
254 ,53.7260 ,1.38137 ,0.57593 ,5.65100 
255 ,53.9497 ,1.38370 ,0.55882 ,5.48311 
256 ,54.1420 ,1.38568 ,0.56224 ,5.51668 
257 ,54.3501 ,1.38770 ,0.53144 ,5.21448 
258 ,54.5583 ,1.38985 ,0.53486 ,5.24806 
259 ,54.7827 ,1.39204 ,0.53144 ,5.21448 
260 ,55.0065 ,1.39431 ,0.50748 ,4.97943 
261 ,55.2301 ,1.39651 ,0.49037 ,4.81154 
262 ,55.4225 ,1.39847 ,0.48353 ,4.74438 
263 ,55.6305 ,1.40048 ,0.45273 ,4.44218 
264 ,55.8387 ,1.40261 ,0.46642 ,4.57649 
265 ,56.0304 ,1.40457 ,0.42535 ,4.17355 
266 ,56.2070 ,1.40645 ,0.44246 ,4.34144 
267 ,56.4149 ,1.40833 ,0.41509 ,4.07282 
268 ,56.6067 ,1.41045 ,0.40824 ,4.00566 
269 ,56.7990 ,1.41234 ,0.39113 ,3.83777 
270 ,57.0073 ,1.41431 ,0.38086 ,3.73703 
271 ,57.2154 ,1.41635 ,0.38086 ,3.73703 
272 ,57.4235 ,1.41844 ,0.36033 ,3.53557 
273 ,57.6476 ,1.42067 ,0.33638 ,3.30052 
274 ,57.8717 ,1.42284 ,0.35006 ,3.43483 
275 ,58.0958 ,1.42513 ,0.31926 ,3.13263 
276 ,58.3038 ,1.42727 ,0.30215 ,2.96473 
277 ,58.5120 ,1.42941 ,0.27478 ,2.69611 
278 ,58.7356 ,1.43157 ,0.28847 ,2.83042 
279 ,58.9437 ,1.43367 ,0.26451 ,2.59537 
280 ,59.1522 ,1.43574 ,0.25767 ,2.52822 
281 ,59.3443 ,1.43767 ,0.25767 ,2.52822 
282 ,59.5842 ,1.43993 ,0.22344 ,2.19243 
283 ,59.7922 ,1.44213 ,0.20976 ,2.05812 
284 ,59.9843 ,1.44412 ,0.21660 ,2.12528 
285 ,60.1767 ,1.44604 ,0.20291 ,1.99096 
286 ,60.4007 ,1.44824 ,0.21318 ,2.09170 
287 ,60.6088 ,1.45033 ,0.17896 ,1.75592 
288 ,60.8168 ,1.45245 ,0.16185 ,1.58802 
289 ,61.0085 ,1.45432 ,0.14473 ,1.42013 
290 ,61.2166 ,1.45648 ,0.13447 ,1.31940 
291 ,61.4247 ,1.45845 ,0.12078 ,1.18508 
292 ,61.6168 ,1.46047 ,0.11051 ,1.08435 
293 ,61.8251 ,1.46250 ,0.10709 ,1.05077 
294 ,62.0333 ,1.46449 ,0.09340 ,0.91646 
295 ,62.2413 ,1.46665 ,0.08998 ,0.88288 
296 ,62.4496 ,1.46872 ,0.05576 ,0.54710 
297 ,62.6575 ,1.47078 ,0.07971 ,0.78214 
298 ,62.8656 ,1.47286 ,0.03865 ,0.37920 
299 ,63.0577 ,1.47487 ,0.03522 ,0.34563 
300 ,63.2496 ,1.47675 ,0.01469 ,0.14416 
301 ,63.4418 ,1.47869 ,0.01811 ,0.17773 
302 ,63.6341 ,1.48060 ,0.01811 ,0.17773 
303 ,63.8258 ,1.48258 ,0.00785 ,0.07700 
304 ,64.0182 ,1.48443 ,-0.00242 ,-0.02373 
305 ,64.2421 ,1.48662 ,-0.01269 ,-0.12447 
306 ,64.4665 ,1.48879 ,-0.04348 ,-0.42667 
307 ,64.6905 ,1.49107 ,-0.06060 ,-0.59457 
308 ,64.8981 ,1.49313 ,-0.04691 ,-0.46025 
309 ,65.0906 ,1.49513 ,-0.07086 ,-0.69530 
310 ,65.3148 ,1.49729 ,-0.07086 ,-0.69530 
311 ,65.5549 ,1.49966 ,-0.07771 ,-0.76246 
312 ,65.7944 ,1.50213 ,-0.10508 ,-1.03108 
313 ,66.0025 ,1.50423 ,-0.12219 ,-1.19898 
314 ,66.2272 ,1.50647 ,-0.14957 ,-1.46760 
315 ,66.4509 ,1.50873 ,-0.14615 ,-1.43402 
316 ,66.6912 ,1.51111 ,-0.15642 ,-1.53476 
317 ,66.9154 ,1.51335 ,-0.14957 ,-1.46760 
318 ,67.1555 ,1.51561 ,-0.16326 ,-1.60191 
319 ,67.3476 ,1.51780 ,-0.17695 ,-1.73623 
320 ,67.5713 ,1.51987 ,-0.20090 ,-1.97128 
321 ,67.7956 ,1.52207 ,-0.20433 ,-2.00485 
322 ,68.0037 ,1.52425 ,-0.21802 ,-2.13917 
323 ,68.2119 ,1.52632 ,-0.22828 ,-2.23990 
324 ,68.4041 ,1.52826 ,-0.25566 ,-2.50853 
325 ,68.6121 ,1.53032 ,-0.25566 ,-2.50853 
326 ,68.8360 ,1.53259 ,-0.24539 ,-2.40779 
327 ,69.0282 ,1.53453 ,-0.27619 ,-2.71000 
328 ,69.2523 ,1.53666 ,-0.27619 ,-2.71000 
329 ,69.4601 ,1.53877 ,-0.28646 ,-2.81073 
330 ,69.6685 ,1.54086 ,-0.32068 ,-3.14652 
331 ,69.8766 ,1.54306 ,-0.31384 ,-3.07936 
332 ,70.0686 ,1.54491 ,-0.32752 ,-3.21367 
333 ,70.2767 ,1.54692 ,-0.32752 ,-3.21367 
334 ,70.4848 ,1.54903 ,-0.34806 ,-3.41514 
335 ,70.7250 ,1.55129 ,-0.36859 ,-3.61661 
336 ,70.9165 ,1.55343 ,-0.36175 ,-3.54946 
337 ,71.1249 ,1.55547 ,-0.38570 ,-3.78450 
338 ,71.3331 ,1.55753 ,-0.38228 ,-3.75093 
339 ,71.5412 ,1.55954 ,-0.39597 ,-3.88524 
340 ,71.7653 ,1.56181 ,-0.43019 ,-4.22102 
341 ,71.9890 ,1.56405 ,-0.42677 ,-4.18744 
342 ,72.1975 ,1.56616 ,-0.43361 ,-4.25460 
343 ,72.4057 ,1.56829 ,-0.46441 ,-4.55681 
344 ,72.6135 ,1.57030 ,-0.44730 ,-4.38891 
345 ,72.8217 ,1.57244 ,-0.46783 ,-4.59038 
346 ,73.0297 ,1.57448 ,-0.47810 ,-4.69112 
347 ,73.2377 ,1.57658 ,-0.46783 ,-4.59038 
348 ,73.4621 ,1.57872 ,-0.50548 ,-4.95975 
349 ,73.6699 ,1.58084 ,-0.49521 ,-4.85901 
350 ,73.8781 ,1.58293 ,-0.51232 ,-5.02690 
351 ,74.0701 ,1.58486 ,-0.51917 ,-5.09406 
352 ,74.2939 ,1.58707 ,-0.52943 ,-5.19479 
353 ,74.5025 ,1.58914 ,-0.54654 ,-5.36268 
354 ,74.7104 ,1.59123 ,-0.55339 ,-5.42984 
355 ,74.9026 ,1.59321 ,-0.56708 ,-5.56415 
356 ,75.1268 ,1.59543 ,-0.59103 ,-5.79920 
357 ,75.3185 ,1.59745 ,-0.56023 ,-5.49700 
358 ,75.5269 ,1.59945 ,-0.57734 ,-5.66489 
359 ,75.7509 ,1.60161 ,-0.59103 ,-5.79920 
360 ,75.9431 ,1.60365 ,-0.62183 ,-6.10141 
361 ,76.1670 ,1.60579 ,-0.62183 ,-6.10141 
362 ,76.3593 ,1.60790 ,-0.62525 ,-6.13499 
363 ,76.5672 ,1.60983 ,-0.64579 ,-6.33646 
364 ,76.7914 ,1.61204 ,-0.63894 ,-6.26930 
365 ,76.9992 ,1.61426 ,-0.64236 ,-6.30288 
366 ,77.2076 ,1.61623 ,-0.67316 ,-6.60508 
367 ,77.3996 ,1.61821 ,-0.68343 ,-6.70582 
368 ,77.5913 ,1.62018 ,-0.69370 ,-6.80655 
369 ,77.8319 ,1.62246 ,-0.68343 ,-6.70582 
370 ,78.0561 ,1.62468 ,-0.70739 ,-6.94086 
371 ,78.2480 ,1.62673 ,-0.74161 ,-7.27665 
372 ,78.4561 ,1.62870 ,-0.72450 ,-7.10876 
373 ,78.6478 ,1.63073 ,-0.74161 ,-7.27665 
374 ,78.8559 ,1.63271 ,-0.73476 ,-7.20949 
375 ,79.0645 ,1.63477 ,-0.76556 ,-7.51170 
376 ,79.2725 ,1.63682 ,-0.77583 ,-7.61243 
377 ,79.4966 ,1.63905 ,-0.77241 ,-7.57885 
378 ,79.6888 ,1.64105 ,-0.78267 ,-7.67959 
379 ,79.8967 ,1.64312 ,-0.78610 ,-7.71317 
380 ,80.1049 ,1.64523 ,-0.82032 ,-8.04895 
381 ,80.3287 ,1.64740 ,-0.80663 ,-7.91464 
382 ,80.5370 ,1.64950 ,-0.82374 ,-8.08253 
383 ,80.7451 ,1.65156 ,-0.84085 ,-8.25042 
384 ,80.9371 ,1.65361 ,-0.83058 ,-8.14968 
385 ,81.1453 ,1.65556 ,-0.85454 ,-8.38473 
386 ,81.3369 ,1.65768 ,-0.85112 ,-8.35115 
387 ,81.5454 ,1.65954 ,-0.88192 ,-8.65336 
388 ,81.7535 ,1.66167 ,-0.87507 ,-8.58620 
389 ,81.9612 ,1.66371 ,-0.90245 ,-8.85483 
390 ,82.1857 ,1.66593 ,-0.89560 ,-8.78767 
391 ,82.4097 ,1.66819 ,-0.91272 ,-8.95556 
392 ,82.6178 ,1.67030 ,-0.92640 ,-9.08988 
393 ,82.8419 ,1.67249 ,-0.95378 ,-9.35850 
394 ,83.0655 ,1.67475 ,-0.93325 ,-9.15703 
395 ,83.2579 ,1.67685 ,-0.95036 ,-9.32492 
396 ,83.4661 ,1.67878 ,-0.95378 ,-9.35850 
397 ,83.6582 ,1.68074 ,-0.97431 ,-9.55997 
398 ,83.8663 ,1.68276 ,-0.96405 ,-9.45924 
399 ,84.0744 ,1.68488 ,-0.96405 ,-9.45924 
400 ,84.2663 ,1.68695 ,-0.98116 ,-9.62713 
401 ,84.4586 ,1.68874 ,-0.99827 ,-9.79502 
402 ,84.6666 ,1.69078 ,-0.98800 ,-9.69429 
403 ,84.8747 ,1.69286 ,-1.01538 ,-9.96291 
404 ,85.0668 ,1.69480 ,-1.00854 ,-9.89576 
405 ,85.2584 ,1.69678 ,-1.03934 ,-10.19796 
406 ,85.4670 ,1.69883 ,-1.02222 ,-10.03007 
407 ,85.6910 ,1.70100 ,-1.02907 ,-10.09723 
408 ,85.8990 ,1.70308 ,-1.05645 ,-10.36585 
409 ,86.1071 ,1.70515 ,-1.05302 ,-10.33227 
410 ,86.3151 ,1.70721 ,-1.07356 ,-10.53374 
411 ,86.5392 ,1.70954 ,-1.08725 ,-10.66806 
412 ,86.7636 ,1.71170 ,-1.08382 ,-10.63448 
413 ,86.9716 ,1.71378 ,-1.09067 ,-10.70163 
414 ,87.1955 ,1.71604 ,-1.12147 ,-11.00384 
415 ,87.4038 ,1.71808 ,-1.12489 ,-11.03742 
416 ,87.6119 ,1.72018 ,-1.11462 ,-10.93668 
417 ,87.8360 ,1.72251 ,-1.14542 ,-11.23889 
418 ,88.0595 ,1.72465 ,-1.14200 ,-11.20531 
419 ,88.2681 ,1.72678 ,-1.15569 ,-11.33962 
420 ,88.4921 ,1.72900 ,-1.17622 ,-11.54109 
421 ,88.7003 ,1.73108 ,-1.17622 ,-11.54109 
422 ,88.9564 ,1.73365 ,-1.18649 ,-11.64183 
423 ,89.1485 ,1.73575 ,-1.17964 ,-11.57467 
424 ,89.3726 ,1.73780 ,-1.19676 ,-11.74256 
425 ,89.5966 ,1.74009 ,-1.21729 ,-11.94403 
426 ,89.8206 ,1.74232 ,-1.22413 ,-12.01119 
427 ,90.0448 ,1.74448 ,-1.21729 ,-11.94403 
428 ,90.2527 ,1.74666 ,-1.24124 ,-12.17908 
429 ,90.4609 ,1.74867 ,-1.24124 ,-12.17908 
430 ,90.6690 ,1.75076 ,-1.25493 ,-12.31339 
431 ,90.8771 ,1.75290 ,-1.27547 ,-12.51486 
432 ,91.1012 ,1.75509 ,-1.27547 ,-12.51486 
433 ,91.3093 ,1.75713 ,-1.27547 ,-12.51486 
434 ,91.5012 ,1.75912 ,-1.28915 ,-12.64918 
435 ,91.7095 ,1.76116 ,-1.29600 ,-12.71633 
436 ,91.9171 ,1.76335 ,-1.31653 ,-12.91780 
437 ,92.1097 ,1.76533 ,-1.29942 ,-12.74991 
438 ,92.3339 ,1.76740 ,-1.32680 ,-13.01854 
439 ,92.5257 ,1.76944 ,-1.33364 ,-13.08569 
440 ,92.7180 ,1.77129 ,-1.35417 ,-13.28716 
441 ,92.9257 ,1.77338 ,-1.32680 ,-13.01854 
442 ,93.1340 ,1.77536 ,-1.34733 ,-13.22001 
443 ,93.3582 ,1.77764 ,-1.34733 ,-13.22001 
444 ,93.5663 ,1.77973 ,-1.34391 ,-13.18643 
445 ,93.7903 ,1.78196 ,-1.36444 ,-13.38790 
446 ,94.0146 ,1.78418 ,-1.38840 ,-13.62295 
447 ,94.2544 ,1.78653 ,-1.37813 ,-13.52221 
448 ,94.4787 ,1.78887 ,-1.38155 ,-13.55579 
449 ,94.6869 ,1.79093 ,-1.39182 ,-13.65653 
450 ,94.9108 ,1.79317 ,-1.40209 ,-13.75726 
451 ,95.1189 ,1.79527 ,-1.41577 ,-13.89157 
452 ,95.3110 ,1.79724 ,-1.42604 ,-13.99231 
453 ,95.5351 ,1.79941 ,-1.43973 ,-14.12662 
454 ,95.7591 ,1.80166 ,-1.43631 ,-14.09304 
455 ,95.9672 ,1.80373 ,-1.43973 ,-14.12662 
456 ,96.1590 ,1.80571 ,-1.43973 ,-14.12662 
457 ,96.3349 ,1.80762 ,-1.47053 ,-14.42883 
458 ,96.5432 ,1.80951 ,-1.45000 ,-14.22736 
459 ,96.7671 ,1.81170 ,-1.47737 ,-14.49598 
460 ,96.9756 ,1.81386 ,-1.48764 ,-14.59672 
