Data stamp = , 16-05-2022 23:51:46 159

Calibration Values: 
Slope = , 26.54 , g/V 
Offset Voltage at no contact = , -0.501760 , V 

No , Time , Stage Position ,   Mass , Force 
   ,  (s) ,      (mm)      ,   (g)  , (mN)  

1 ,0.0000 ,0.84958 ,5.08977 ,49.94078 
2 ,0.3375 ,0.84987 ,5.09319 ,49.97436 
3 ,0.7535 ,0.85169 ,5.08977 ,49.94078 
4 ,0.9461 ,0.85384 ,5.06581 ,49.70573 
5 ,1.1862 ,0.85601 ,5.07265 ,49.77289 
6 ,1.4102 ,0.85828 ,5.07950 ,49.84004 
7 ,1.6023 ,0.86029 ,5.06239 ,49.67215 
8 ,1.8259 ,0.86252 ,5.04870 ,49.53784 
9 ,2.0183 ,0.86456 ,5.04870 ,49.53784 
10 ,2.3066 ,0.86695 ,5.01106 ,49.16848 
11 ,2.5145 ,0.86948 ,5.00079 ,49.06774 
12 ,2.7386 ,0.87165 ,4.96657 ,48.73196 
13 ,2.9305 ,0.87363 ,4.93235 ,48.39618 
14 ,3.1227 ,0.87561 ,4.91181 ,48.19471 
15 ,3.3310 ,0.87765 ,4.90497 ,48.12755 
16 ,3.5392 ,0.87969 ,4.88444 ,47.92608 
17 ,3.7470 ,0.88182 ,4.85021 ,47.59030 
18 ,3.9548 ,0.88388 ,4.85021 ,47.59030 
19 ,4.1633 ,0.88596 ,4.81257 ,47.22093 
20 ,4.3715 ,0.88805 ,4.80915 ,47.18736 
21 ,4.5792 ,0.89006 ,4.77493 ,46.85157 
22 ,4.7876 ,0.89223 ,4.75782 ,46.68368 
23 ,4.9796 ,0.89414 ,4.73044 ,46.41506 
24 ,5.2037 ,0.89631 ,4.70990 ,46.21359 
25 ,5.4118 ,0.89838 ,4.69622 ,46.07927 
26 ,5.6040 ,0.90039 ,4.66199 ,45.74349 
27 ,5.8121 ,0.90242 ,4.65173 ,45.64275 
28 ,6.0521 ,0.90472 ,4.62435 ,45.37413 
29 ,6.2598 ,0.90694 ,4.59355 ,45.07192 
30 ,6.4523 ,0.90887 ,4.59013 ,45.03835 
31 ,6.6603 ,0.91086 ,4.55591 ,44.70256 
32 ,6.8365 ,0.91282 ,4.54564 ,44.60183 
33 ,7.0286 ,0.91462 ,4.52169 ,44.36678 
34 ,7.2367 ,0.91663 ,4.49089 ,44.06457 
35 ,7.4446 ,0.91868 ,4.47720 ,43.93026 
36 ,7.6526 ,0.92084 ,4.46693 ,43.82953 
37 ,7.8609 ,0.92282 ,4.41218 ,43.29227 
38 ,8.0687 ,0.92491 ,4.41902 ,43.35943 
39 ,8.2769 ,0.92705 ,4.38138 ,42.99007 
40 ,8.4846 ,0.92910 ,4.36427 ,42.82218 
41 ,8.6769 ,0.93109 ,4.34031 ,42.58713 
42 ,8.8692 ,0.93303 ,4.34373 ,42.62071 
43 ,9.0934 ,0.93518 ,4.30609 ,42.25135 
44 ,9.3013 ,0.93730 ,4.26845 ,41.88198 
45 ,9.5091 ,0.93935 ,4.27187 ,41.91556 
46 ,9.7172 ,0.94141 ,4.21711 ,41.37831 
47 ,9.9417 ,0.94367 ,4.21711 ,41.37831 
48 ,10.1498 ,0.94576 ,4.20000 ,41.21042 
49 ,10.3577 ,0.94782 ,4.16236 ,40.84106 
50 ,10.5660 ,0.94992 ,4.16920 ,40.90821 
51 ,10.7577 ,0.95194 ,4.12471 ,40.47170 
52 ,10.9500 ,0.95380 ,4.12471 ,40.47170 
53 ,11.1582 ,0.95582 ,4.07680 ,40.00160 
54 ,11.3663 ,0.95792 ,4.07338 ,39.96802 
55 ,11.5583 ,0.96000 ,4.04600 ,39.69940 
56 ,11.7501 ,0.96187 ,4.04600 ,39.69940 
57 ,11.9906 ,0.96419 ,4.01178 ,39.36361 
58 ,12.2307 ,0.96646 ,3.97756 ,39.02783 
59 ,12.4389 ,0.96866 ,3.95703 ,38.82636 
60 ,12.6626 ,0.97089 ,3.95361 ,38.79278 
61 ,12.8865 ,0.97309 ,3.91938 ,38.45700 
62 ,13.1110 ,0.97525 ,3.87832 ,38.05406 
63 ,13.3190 ,0.97748 ,3.86805 ,37.95332 
64 ,13.5271 ,0.97948 ,3.85779 ,37.85259 
65 ,13.7349 ,0.98161 ,3.81330 ,37.41607 
66 ,13.9269 ,0.98356 ,3.81672 ,37.44965 
67 ,14.1510 ,0.98570 ,3.79276 ,37.21460 
68 ,14.3594 ,0.98783 ,3.76196 ,36.91240 
69 ,14.5676 ,0.98996 ,3.75512 ,36.84524 
70 ,14.7596 ,0.99193 ,3.70379 ,36.34157 
71 ,14.9517 ,0.99378 ,3.70037 ,36.30799 
72 ,15.1432 ,0.99577 ,3.67299 ,36.03936 
73 ,15.3361 ,0.99762 ,3.65246 ,35.83789 
74 ,15.5439 ,0.99972 ,3.64903 ,35.80431 
75 ,15.7519 ,1.00181 ,3.61481 ,35.46853 
76 ,15.9441 ,1.00367 ,3.62166 ,35.53569 
77 ,16.1519 ,1.00583 ,3.56690 ,34.99843 
78 ,16.3603 ,1.00784 ,3.57032 ,35.03201 
79 ,16.5521 ,1.00993 ,3.53952 ,34.72981 
80 ,16.7605 ,1.01188 ,3.52241 ,34.56192 
81 ,16.9682 ,1.01391 ,3.51215 ,34.46118 
82 ,17.1927 ,1.01618 ,3.46766 ,34.02466 
83 ,17.4007 ,1.01823 ,3.46081 ,33.95751 
84 ,17.6248 ,1.02049 ,3.43344 ,33.68888 
85 ,17.8488 ,1.02272 ,3.41290 ,33.48741 
86 ,18.0410 ,1.02472 ,3.39921 ,33.35310 
87 ,18.2489 ,1.02670 ,3.37184 ,33.08447 
88 ,18.4567 ,1.02880 ,3.35130 ,32.88300 
89 ,18.6653 ,1.03089 ,3.31366 ,32.51364 
90 ,18.8734 ,1.03303 ,3.29655 ,32.34575 
91 ,19.0813 ,1.03503 ,3.29313 ,32.31217 
92 ,19.3053 ,1.03727 ,3.27259 ,32.11070 
93 ,19.5131 ,1.03937 ,3.23837 ,31.77492 
94 ,19.7215 ,1.04150 ,3.23495 ,31.74134 
95 ,19.9297 ,1.04355 ,3.18704 ,31.27124 
96 ,20.1215 ,1.04550 ,3.19388 ,31.33840 
97 ,20.3299 ,1.04753 ,3.15966 ,31.00262 
98 ,20.5540 ,1.04976 ,3.14597 ,30.86830 
99 ,20.7619 ,1.05189 ,3.13229 ,30.73399 
100 ,20.9541 ,1.05377 ,3.10833 ,30.49894 
101 ,21.1621 ,1.05588 ,3.09122 ,30.33105 
102 ,21.3543 ,1.05782 ,3.05700 ,29.99527 
103 ,21.5619 ,1.05986 ,3.05358 ,29.96169 
104 ,21.7541 ,1.06179 ,3.02278 ,29.65948 
105 ,21.9626 ,1.06381 ,3.00224 ,29.45801 
106 ,22.1707 ,1.06595 ,2.97829 ,29.22297 
107 ,22.3948 ,1.06818 ,2.97487 ,29.18939 
108 ,22.5869 ,1.07012 ,2.94407 ,28.88718 
109 ,22.7949 ,1.07221 ,2.93038 ,28.75287 
110 ,22.9868 ,1.07412 ,2.90642 ,28.51782 
111 ,23.1789 ,1.07598 ,2.90985 ,28.55140 
112 ,23.3872 ,1.07811 ,2.86193 ,28.08130 
113 ,23.5793 ,1.08005 ,2.86193 ,28.08130 
114 ,23.7874 ,1.08215 ,2.83114 ,27.77910 
115 ,23.9951 ,1.08412 ,2.81402 ,27.61121 
116 ,24.2036 ,1.08629 ,2.79007 ,27.37616 
117 ,24.4115 ,1.08839 ,2.77296 ,27.20827 
118 ,24.6037 ,1.09025 ,2.75927 ,27.07395 
119 ,24.8117 ,1.09235 ,2.75585 ,27.04038 
120 ,25.0038 ,1.09429 ,2.73874 ,26.87248 
121 ,25.2119 ,1.09630 ,2.72847 ,26.77175 
122 ,25.4040 ,1.09830 ,2.68056 ,26.30165 
123 ,25.6121 ,1.10032 ,2.69425 ,26.43597 
124 ,25.8200 ,1.10236 ,2.65660 ,26.06661 
125 ,26.0282 ,1.10458 ,2.64634 ,25.96587 
126 ,26.2200 ,1.10642 ,2.63607 ,25.86514 
127 ,26.4282 ,1.10854 ,2.61896 ,25.69724 
128 ,26.6201 ,1.11041 ,2.60869 ,25.59651 
129 ,26.8124 ,1.11232 ,2.58816 ,25.39504 
130 ,27.0367 ,1.11455 ,2.57789 ,25.29430 
131 ,27.2288 ,1.11653 ,2.54710 ,24.99210 
132 ,27.4367 ,1.11860 ,2.54025 ,24.92494 
133 ,27.6288 ,1.12055 ,2.51630 ,24.68989 
134 ,27.8373 ,1.12255 ,2.49234 ,24.45485 
135 ,28.0452 ,1.12465 ,2.48207 ,24.35411 
136 ,28.2532 ,1.12672 ,2.47181 ,24.25338 
137 ,28.4449 ,1.12867 ,2.43074 ,23.85044 
138 ,28.6531 ,1.13067 ,2.44101 ,23.95117 
139 ,28.8454 ,1.13280 ,2.41021 ,23.64897 
140 ,29.0378 ,1.13465 ,2.40679 ,23.61539 
141 ,29.2456 ,1.13666 ,2.39994 ,23.54823 
142 ,29.4537 ,1.13873 ,2.38625 ,23.41392 
143 ,29.6616 ,1.14084 ,2.35203 ,23.07814 
144 ,29.8698 ,1.14293 ,2.33492 ,22.91024 
145 ,30.0779 ,1.14500 ,2.31781 ,22.74235 
146 ,30.3021 ,1.14717 ,2.29385 ,22.50731 
147 ,30.5100 ,1.14925 ,2.29043 ,22.47373 
148 ,30.7021 ,1.15128 ,2.26648 ,22.23868 
149 ,30.8942 ,1.15316 ,2.26990 ,22.27226 
150 ,31.1183 ,1.15532 ,2.21857 ,21.76858 
151 ,31.3426 ,1.15762 ,2.20830 ,21.66785 
152 ,31.5505 ,1.15966 ,2.21857 ,21.76858 
153 ,31.7580 ,1.16177 ,2.18435 ,21.43280 
154 ,31.9506 ,1.16371 ,2.18435 ,21.43280 
155 ,32.1585 ,1.16580 ,2.14670 ,21.06344 
156 ,32.3667 ,1.16791 ,2.14328 ,21.02986 
157 ,32.5750 ,1.16999 ,2.12617 ,20.86197 
158 ,32.7830 ,1.17202 ,2.10564 ,20.66050 
159 ,32.9911 ,1.17412 ,2.08852 ,20.49261 
160 ,33.1992 ,1.17622 ,2.06115 ,20.22398 
161 ,33.4233 ,1.17838 ,2.04404 ,20.05609 
162 ,33.6154 ,1.18036 ,2.04061 ,20.02251 
163 ,33.8235 ,1.18244 ,2.02008 ,19.82104 
164 ,34.0316 ,1.18445 ,2.01324 ,19.75388 
165 ,34.2397 ,1.18660 ,1.98244 ,19.45168 
166 ,34.4798 ,1.18900 ,1.96190 ,19.25021 
167 ,34.7039 ,1.19123 ,1.96533 ,19.28379 
168 ,34.9120 ,1.19326 ,1.94137 ,19.04874 
169 ,35.1359 ,1.19550 ,1.90715 ,18.71296 
170 ,35.3281 ,1.19747 ,1.93111 ,18.94801 
171 ,35.5362 ,1.19957 ,1.89004 ,18.54507 
172 ,35.7281 ,1.20151 ,1.90373 ,18.67938 
173 ,35.9364 ,1.20361 ,1.85582 ,18.20928 
174 ,36.1440 ,1.20557 ,1.86951 ,18.34360 
175 ,36.3523 ,1.20767 ,1.83528 ,18.00781 
176 ,36.5766 ,1.20995 ,1.82160 ,17.87350 
177 ,36.7847 ,1.21203 ,1.81133 ,17.77276 
178 ,36.9767 ,1.21398 ,1.77369 ,17.40340 
179 ,37.1849 ,1.21601 ,1.76684 ,17.33625 
180 ,37.4251 ,1.21833 ,1.74289 ,17.10120 
181 ,37.6490 ,1.22062 ,1.73262 ,17.00046 
182 ,37.8571 ,1.22271 ,1.70866 ,16.76542 
183 ,38.0813 ,1.22497 ,1.70524 ,16.73184 
184 ,38.2890 ,1.22704 ,1.69155 ,16.59752 
185 ,38.4974 ,1.22910 ,1.66760 ,16.36248 
186 ,38.7056 ,1.23123 ,1.67444 ,16.42963 
187 ,38.9136 ,1.23330 ,1.64022 ,16.09385 
188 ,39.1058 ,1.23528 ,1.62995 ,15.99311 
189 ,39.3135 ,1.23738 ,1.59231 ,15.62375 
190 ,39.5218 ,1.23937 ,1.60600 ,15.75807 
191 ,39.7139 ,1.24136 ,1.56151 ,15.32155 
192 ,39.9221 ,1.24341 ,1.57862 ,15.48944 
193 ,40.1302 ,1.24545 ,1.55124 ,15.22081 
194 ,40.3381 ,1.24751 ,1.54098 ,15.12008 
195 ,40.5302 ,1.24952 ,1.50333 ,14.75072 
196 ,40.7542 ,1.25173 ,1.48965 ,14.61640 
197 ,40.9625 ,1.25383 ,1.49991 ,14.71714 
198 ,41.1705 ,1.25582 ,1.46227 ,14.34778 
199 ,41.3947 ,1.25810 ,1.44516 ,14.17989 
200 ,41.6187 ,1.26035 ,1.45200 ,14.24704 
201 ,41.8268 ,1.26245 ,1.42462 ,13.97842 
202 ,42.0348 ,1.26455 ,1.40751 ,13.81053 
203 ,42.2271 ,1.26646 ,1.39383 ,13.67621 
204 ,42.4512 ,1.26860 ,1.36303 ,13.37401 
205 ,42.6434 ,1.27065 ,1.37329 ,13.47474 
206 ,42.8674 ,1.27278 ,1.35276 ,13.27327 
207 ,43.0595 ,1.27478 ,1.35276 ,13.27327 
208 ,43.2675 ,1.27692 ,1.33565 ,13.10538 
209 ,43.4596 ,1.27879 ,1.31512 ,12.90391 
210 ,43.6676 ,1.28074 ,1.27405 ,12.50097 
211 ,43.8754 ,1.28294 ,1.28432 ,12.60171 
212 ,44.0838 ,1.28501 ,1.25352 ,12.29950 
213 ,44.2919 ,1.28702 ,1.24667 ,12.23235 
214 ,44.4839 ,1.28908 ,1.24325 ,12.19877 
215 ,44.6920 ,1.29102 ,1.21587 ,11.93014 
216 ,44.9959 ,1.29367 ,1.21929 ,11.96372 
217 ,45.2203 ,1.29636 ,1.19192 ,11.69509 
218 ,45.4283 ,1.29848 ,1.16796 ,11.46004 
219 ,45.6364 ,1.30046 ,1.15770 ,11.35931 
220 ,45.8284 ,1.30241 ,1.13374 ,11.12426 
221 ,46.0206 ,1.30435 ,1.13032 ,11.09068 
222 ,46.2127 ,1.30626 ,1.10979 ,10.88921 
223 ,46.4208 ,1.30838 ,1.10979 ,10.88921 
224 ,46.6288 ,1.31047 ,1.07556 ,10.55343 
225 ,46.8372 ,1.31249 ,1.08583 ,10.65416 
226 ,47.0447 ,1.31463 ,1.04819 ,10.28480 
227 ,47.2367 ,1.31651 ,1.04819 ,10.28480 
228 ,47.4453 ,1.31859 ,1.01739 ,9.98260 
229 ,47.6534 ,1.32069 ,1.01396 ,9.94902 
230 ,47.8453 ,1.32267 ,1.00370 ,9.84829 
231 ,48.0375 ,1.32450 ,1.00712 ,9.88186 
232 ,48.2456 ,1.32658 ,0.97290 ,9.54608 
233 ,48.4536 ,1.32864 ,0.97632 ,9.57966 
234 ,48.6453 ,1.33065 ,0.94210 ,9.24388 
235 ,48.8533 ,1.33267 ,0.94210 ,9.24388 
236 ,49.0452 ,1.33471 ,0.92841 ,9.10956 
237 ,49.2540 ,1.33670 ,0.92157 ,9.04241 
238 ,49.4616 ,1.33877 ,0.90103 ,8.84094 
239 ,49.6701 ,1.34083 ,0.88392 ,8.67305 
240 ,49.8939 ,1.34301 ,0.88734 ,8.70662 
241 ,50.0862 ,1.34503 ,0.84286 ,8.27011 
242 ,50.2944 ,1.34709 ,0.85997 ,8.43800 
243 ,50.5021 ,1.34924 ,0.82917 ,8.13579 
244 ,50.7425 ,1.35143 ,0.81206 ,7.96790 
245 ,50.9667 ,1.35376 ,0.78468 ,7.69927 
246 ,51.1748 ,1.35588 ,0.78810 ,7.73285 
247 ,51.3829 ,1.35798 ,0.77441 ,7.59854 
248 ,51.5909 ,1.36005 ,0.75730 ,7.43065 
249 ,51.7989 ,1.36212 ,0.74704 ,7.32991 
250 ,52.0069 ,1.36418 ,0.72650 ,7.12844 
251 ,52.1991 ,1.36612 ,0.73677 ,7.22918 
252 ,52.4232 ,1.36832 ,0.68886 ,6.75908 
253 ,52.6153 ,1.37026 ,0.70597 ,6.92697 
254 ,52.8069 ,1.37223 ,0.67175 ,6.59119 
255 ,53.0315 ,1.37430 ,0.66833 ,6.55761 
256 ,53.2397 ,1.37655 ,0.66148 ,6.49046 
257 ,53.4317 ,1.37848 ,0.64095 ,6.28899 
258 ,53.6398 ,1.38051 ,0.62042 ,6.08752 
259 ,53.8635 ,1.38273 ,0.61015 ,5.98678 
260 ,54.0719 ,1.38482 ,0.61015 ,5.98678 
261 ,54.2800 ,1.38700 ,0.58277 ,5.71815 
262 ,54.4882 ,1.38898 ,0.58277 ,5.71815 
263 ,54.7120 ,1.39118 ,0.56566 ,5.55026 
264 ,54.9042 ,1.39323 ,0.52802 ,5.18090 
265 ,55.1122 ,1.39523 ,0.53828 ,5.28164 
266 ,55.3367 ,1.39750 ,0.51091 ,5.01301 
267 ,55.5448 ,1.39953 ,0.50748 ,4.97943 
268 ,55.7523 ,1.40170 ,0.50406 ,4.94585 
269 ,55.9608 ,1.40367 ,0.45957 ,4.50934 
270 ,56.1846 ,1.40594 ,0.46300 ,4.54291 
271 ,56.3929 ,1.40803 ,0.46984 ,4.61007 
272 ,56.6170 ,1.41029 ,0.44588 ,4.37502 
273 ,56.8249 ,1.41231 ,0.40824 ,4.00566 
274 ,57.0172 ,1.41428 ,0.43220 ,4.24071 
275 ,57.2248 ,1.41635 ,0.39455 ,3.87135 
276 ,57.4335 ,1.41844 ,0.39797 ,3.90493 
277 ,57.6574 ,1.42062 ,0.36718 ,3.60272 
278 ,57.8657 ,1.42273 ,0.36033 ,3.53557 
279 ,58.0737 ,1.42482 ,0.35691 ,3.50199 
280 ,58.2657 ,1.42687 ,0.34322 ,3.36767 
281 ,58.4738 ,1.42887 ,0.33980 ,3.33410 
282 ,58.6978 ,1.43101 ,0.30900 ,3.03189 
283 ,58.8738 ,1.43298 ,0.31926 ,3.13263 
284 ,59.0820 ,1.43492 ,0.29189 ,2.86400 
285 ,59.2901 ,1.43693 ,0.29189 ,2.86400 
286 ,59.5140 ,1.43919 ,0.27478 ,2.69611 
287 ,59.7062 ,1.44113 ,0.26451 ,2.59537 
288 ,59.8980 ,1.44311 ,0.23713 ,2.32675 
289 ,60.1064 ,1.44517 ,0.23713 ,2.32675 
290 ,60.3145 ,1.44724 ,0.22344 ,2.19243 
291 ,60.5062 ,1.44920 ,0.22002 ,2.15885 
292 ,60.7147 ,1.45127 ,0.19264 ,1.89023 
293 ,60.9226 ,1.45333 ,0.18238 ,1.78949 
294 ,61.1149 ,1.45527 ,0.18922 ,1.85665 
295 ,61.3228 ,1.45734 ,0.16527 ,1.62160 
296 ,61.5310 ,1.45939 ,0.16527 ,1.62160 
297 ,61.7229 ,1.46135 ,0.13105 ,1.28582 
298 ,61.9152 ,1.46330 ,0.13447 ,1.31940 
299 ,62.1233 ,1.46535 ,0.12078 ,1.18508 
300 ,62.3154 ,1.46725 ,0.12420 ,1.21866 
301 ,62.5396 ,1.46952 ,0.08656 ,0.84930 
302 ,62.7311 ,1.47146 ,0.10025 ,0.98361 
303 ,62.9397 ,1.47352 ,0.07629 ,0.74857 
304 ,63.1474 ,1.47557 ,0.07971 ,0.78214 
305 ,63.3717 ,1.47774 ,0.05918 ,0.58067 
306 ,63.5798 ,1.47991 ,0.05576 ,0.54710 
307 ,63.7879 ,1.48194 ,0.05234 ,0.51352 
308 ,64.0118 ,1.48423 ,0.01469 ,0.14416 
309 ,64.2359 ,1.48639 ,0.01469 ,0.14416 
310 ,64.4442 ,1.48850 ,0.00785 ,0.07700 
311 ,64.6364 ,1.49044 ,-0.02980 ,-0.29236 
312 ,64.8445 ,1.49249 ,-0.01269 ,-0.12447 
313 ,65.0683 ,1.49471 ,-0.00926 ,-0.09089 
314 ,65.2606 ,1.49671 ,-0.05033 ,-0.49383 
315 ,65.4683 ,1.49872 ,-0.05717 ,-0.56099 
316 ,65.6767 ,1.50086 ,-0.07428 ,-0.72888 
317 ,65.8848 ,1.50294 ,-0.06402 ,-0.62814 
318 ,66.0765 ,1.50491 ,-0.08455 ,-0.82961 
319 ,66.3009 ,1.50697 ,-0.08113 ,-0.79604 
320 ,66.5086 ,1.50912 ,-0.10508 ,-1.03108 
321 ,66.7010 ,1.51108 ,-0.12219 ,-1.19898 
322 ,66.9250 ,1.51329 ,-0.12562 ,-1.23255 
323 ,67.1329 ,1.51542 ,-0.15299 ,-1.50118 
324 ,67.3735 ,1.51783 ,-0.15984 ,-1.56834 
325 ,67.5815 ,1.51990 ,-0.15984 ,-1.56834 
326 ,67.7895 ,1.52194 ,-0.18037 ,-1.76981 
327 ,68.0137 ,1.52417 ,-0.19748 ,-1.93770 
328 ,68.2057 ,1.52616 ,-0.17695 ,-1.73623 
329 ,68.4138 ,1.52823 ,-0.21459 ,-2.10559 
330 ,68.6058 ,1.53027 ,-0.20775 ,-2.03843 
331 ,68.7978 ,1.53207 ,-0.23855 ,-2.34064 
332 ,69.0060 ,1.53415 ,-0.23170 ,-2.27348 
333 ,69.2142 ,1.53625 ,-0.24881 ,-2.44137 
334 ,69.4380 ,1.53838 ,-0.24881 ,-2.44137 
335 ,69.6462 ,1.54048 ,-0.25908 ,-2.54211 
336 ,69.8545 ,1.54260 ,-0.27619 ,-2.71000 
337 ,70.0784 ,1.54483 ,-0.28304 ,-2.77716 
338 ,70.2707 ,1.54674 ,-0.29673 ,-2.91147 
339 ,70.4622 ,1.54876 ,-0.31041 ,-3.04578 
340 ,70.6708 ,1.55072 ,-0.32752 ,-3.21367 
341 ,70.8788 ,1.55284 ,-0.32752 ,-3.21367 
342 ,71.0870 ,1.55488 ,-0.33437 ,-3.28083 
343 ,71.2950 ,1.55702 ,-0.36517 ,-3.58303 
344 ,71.5027 ,1.55906 ,-0.34806 ,-3.41514 
345 ,71.7112 ,1.56117 ,-0.37886 ,-3.71735 
346 ,71.9355 ,1.56337 ,-0.38570 ,-3.78450 
347 ,72.1435 ,1.56543 ,-0.37886 ,-3.71735 
348 ,72.3356 ,1.56741 ,-0.40281 ,-3.95240 
349 ,72.5274 ,1.56935 ,-0.40281 ,-3.95240 
350 ,72.7355 ,1.57138 ,-0.40966 ,-4.01955 
351 ,72.9276 ,1.57334 ,-0.43703 ,-4.28818 
352 ,73.1198 ,1.57525 ,-0.43019 ,-4.22102 
353 ,73.3279 ,1.57728 ,-0.45414 ,-4.45607 
354 ,73.5360 ,1.57941 ,-0.46441 ,-4.55681 
355 ,73.7277 ,1.58136 ,-0.47126 ,-4.62396 
356 ,73.9357 ,1.58336 ,-0.47126 ,-4.62396 
357 ,74.1439 ,1.58543 ,-0.49179 ,-4.82543 
358 ,74.3521 ,1.58751 ,-0.51232 ,-5.02690 
359 ,74.5604 ,1.58980 ,-0.50548 ,-4.95975 
360 ,74.7685 ,1.59174 ,-0.52601 ,-5.16121 
361 ,74.9766 ,1.59382 ,-0.52601 ,-5.16121 
362 ,75.1847 ,1.59589 ,-0.53970 ,-5.29553 
363 ,75.3927 ,1.59792 ,-0.54654 ,-5.36268 
364 ,75.5847 ,1.59990 ,-0.55339 ,-5.42984 
365 ,75.7930 ,1.60201 ,-0.57734 ,-5.66489 
366 ,75.9846 ,1.60400 ,-0.57392 ,-5.63131 
367 ,76.1931 ,1.60589 ,-0.57734 ,-5.66489 
368 ,76.4172 ,1.60818 ,-0.60130 ,-5.89994 
369 ,76.6093 ,1.61013 ,-0.61499 ,-6.03425 
370 ,76.8175 ,1.61223 ,-0.60472 ,-5.93352 
371 ,77.0250 ,1.61426 ,-0.64921 ,-6.37003 
372 ,77.2336 ,1.61640 ,-0.64236 ,-6.30288 
373 ,77.4418 ,1.61850 ,-0.63210 ,-6.20214 
374 ,77.6498 ,1.62051 ,-0.67316 ,-6.60508 
375 ,77.8575 ,1.62264 ,-0.65947 ,-6.47077 
376 ,78.0659 ,1.62471 ,-0.69712 ,-6.84013 
377 ,78.2899 ,1.62694 ,-0.68685 ,-6.73940 
378 ,78.5141 ,1.62915 ,-0.68685 ,-6.73940 
379 ,78.7380 ,1.63140 ,-0.69027 ,-6.77297 
380 ,78.9619 ,1.63354 ,-0.72107 ,-7.07518 
381 ,79.1702 ,1.63573 ,-0.73476 ,-7.20949 
382 ,79.3623 ,1.63778 ,-0.72450 ,-7.10876 
383 ,79.5541 ,1.63965 ,-0.76214 ,-7.47812 
384 ,79.7466 ,1.64151 ,-0.76556 ,-7.51170 
385 ,79.9703 ,1.64366 ,-0.77241 ,-7.57885 
386 ,80.1627 ,1.64562 ,-0.77241 ,-7.57885 
387 ,80.3543 ,1.64759 ,-0.78267 ,-7.67959 
388 ,80.5629 ,1.64957 ,-0.80663 ,-7.91464 
389 ,80.7710 ,1.65170 ,-0.81005 ,-7.94821 
390 ,80.9626 ,1.65377 ,-0.82374 ,-8.08253 
391 ,81.1549 ,1.65556 ,-0.81005 ,-7.94821 
392 ,81.3472 ,1.65752 ,-0.84085 ,-8.25042 
393 ,81.5551 ,1.65950 ,-0.83743 ,-8.21684 
394 ,81.7632 ,1.66167 ,-0.85796 ,-8.41831 
395 ,81.9875 ,1.66384 ,-0.86481 ,-8.48547 
396 ,82.2116 ,1.66607 ,-0.86481 ,-8.48547 
397 ,82.4197 ,1.66814 ,-0.87165 ,-8.55262 
398 ,82.6275 ,1.67024 ,-0.88876 ,-8.72051 
399 ,82.8199 ,1.67224 ,-0.89903 ,-8.82125 
400 ,83.0278 ,1.67422 ,-0.90929 ,-8.92198 
401 ,83.2196 ,1.67623 ,-0.90245 ,-8.85483 
402 ,83.4121 ,1.67811 ,-0.91614 ,-8.98914 
403 ,83.6038 ,1.68010 ,-0.94351 ,-9.25777 
404 ,83.8122 ,1.68214 ,-0.91956 ,-9.02272 
405 ,84.0203 ,1.68424 ,-0.94351 ,-9.25777 
406 ,84.2122 ,1.68619 ,-0.94694 ,-9.29135 
407 ,84.4206 ,1.68816 ,-0.97089 ,-9.52639 
408 ,84.6285 ,1.69023 ,-0.97431 ,-9.55997 
409 ,84.8207 ,1.69222 ,-0.98800 ,-9.69429 
410 ,85.0128 ,1.69410 ,-0.96063 ,-9.42566 
411 ,85.2207 ,1.69622 ,-0.99827 ,-9.79502 
412 ,85.4289 ,1.69827 ,-1.00854 ,-9.89576 
413 ,85.6366 ,1.70041 ,-1.00511 ,-9.86218 
414 ,85.8447 ,1.70238 ,-1.02565 ,-10.06365 
415 ,86.0375 ,1.70441 ,-1.02222 ,-10.03007 
416 ,86.2453 ,1.70646 ,-1.05645 ,-10.36585 
417 ,86.4534 ,1.70852 ,-1.04618 ,-10.26512 
418 ,86.6615 ,1.71054 ,-1.07014 ,-10.50016 
419 ,86.8854 ,1.71282 ,-1.07356 ,-10.53374 
420 ,87.0936 ,1.71493 ,-1.07356 ,-10.53374 
421 ,87.3176 ,1.71716 ,-1.09751 ,-10.76879 
422 ,87.5419 ,1.71929 ,-1.09409 ,-10.73521 
423 ,87.7498 ,1.72150 ,-1.10436 ,-10.83595 
424 ,87.9580 ,1.72355 ,-1.11805 ,-10.97026 
425 ,88.1819 ,1.72585 ,-1.12147 ,-11.00384 
426 ,88.4062 ,1.72802 ,-1.12831 ,-11.07100 
427 ,88.6142 ,1.73009 ,-1.14884 ,-11.27247 
428 ,88.8063 ,1.73207 ,-1.15227 ,-11.30604 
429 ,89.0145 ,1.73408 ,-1.15911 ,-11.37320 
430 ,89.2223 ,1.73617 ,-1.17280 ,-11.50751 
431 ,89.4146 ,1.73816 ,-1.16938 ,-11.47394 
432 ,89.6227 ,1.74019 ,-1.18307 ,-11.60825 
433 ,89.8307 ,1.74227 ,-1.17280 ,-11.50751 
434 ,90.0388 ,1.74433 ,-1.20018 ,-11.77614 
435 ,90.2464 ,1.74639 ,-1.19676 ,-11.74256 
436 ,90.4548 ,1.74848 ,-1.22413 ,-12.01119 
437 ,90.6470 ,1.75044 ,-1.21387 ,-11.91045 
438 ,90.8553 ,1.75251 ,-1.23782 ,-12.14550 
439 ,91.0636 ,1.75461 ,-1.24809 ,-12.24624 
440 ,91.2712 ,1.75670 ,-1.23782 ,-12.14550 
441 ,91.5116 ,1.75893 ,-1.27204 ,-12.48128 
442 ,91.7357 ,1.76131 ,-1.29600 ,-12.71633 
443 ,91.9441 ,1.76342 ,-1.28231 ,-12.58202 
444 ,92.1516 ,1.76548 ,-1.28573 ,-12.61560 
445 ,92.3595 ,1.76759 ,-1.30969 ,-12.85065 
446 ,92.5678 ,1.76968 ,-1.30626 ,-12.81707 
447 ,92.7761 ,1.77173 ,-1.31995 ,-12.95138 
448 ,92.9838 ,1.77385 ,-1.31311 ,-12.88422 
449 ,93.1923 ,1.77583 ,-1.31995 ,-12.95138 
450 ,93.4163 ,1.77806 ,-1.35075 ,-13.25359 
451 ,93.6244 ,1.78014 ,-1.33022 ,-13.05212 
452 ,93.8165 ,1.78227 ,-1.35417 ,-13.28716 
453 ,94.0245 ,1.78418 ,-1.34733 ,-13.22001 
454 ,94.2166 ,1.78616 ,-1.37129 ,-13.45506 
455 ,94.4406 ,1.78833 ,-1.37471 ,-13.48863 
456 ,94.6322 ,1.79036 ,-1.37813 ,-13.52221 
457 ,94.8410 ,1.79236 ,-1.38155 ,-13.55579 
458 ,95.0488 ,1.79438 ,-1.38155 ,-13.55579 
459 ,95.2568 ,1.79645 ,-1.40551 ,-13.79084 
460 ,95.4651 ,1.79859 ,-1.41235 ,-13.85799 
