Data stamp = , 17-05-2022 05:45:59 743

Calibration Values: 
Slope = , 26.54 , g/V 
Offset Voltage at no contact = , -0.501760 , V 

No , Time , Stage Position ,   Mass , Force 
   ,  (s) ,      (mm)      ,   (g)  , (mN)  

1 ,0.0000 ,0.84958 ,5.05554 ,49.60499 
2 ,0.2316 ,0.84968 ,5.05897 ,49.63857 
3 ,0.7120 ,0.85153 ,5.06581 ,49.70573 
4 ,0.9204 ,0.85360 ,5.04870 ,49.53784 
5 ,1.1927 ,0.85610 ,5.05554 ,49.60499 
6 ,1.4007 ,0.85821 ,5.05554 ,49.60499 
7 ,1.6088 ,0.86038 ,5.05554 ,49.60499 
8 ,1.8164 ,0.86244 ,5.01106 ,49.16848 
9 ,2.0250 ,0.86455 ,5.01790 ,49.23563 
10 ,2.2491 ,0.86675 ,4.96999 ,48.76554 
11 ,2.4732 ,0.86901 ,4.94946 ,48.56407 
12 ,2.6973 ,0.87127 ,4.92892 ,48.36260 
13 ,2.9050 ,0.87334 ,4.92208 ,48.29544 
14 ,3.1131 ,0.87548 ,4.87759 ,47.85892 
15 ,3.3055 ,0.87748 ,4.87075 ,47.79177 
16 ,3.5137 ,0.87942 ,4.83652 ,47.45598 
17 ,3.7376 ,0.88157 ,4.82626 ,47.35525 
18 ,3.9298 ,0.88361 ,4.80230 ,47.12020 
19 ,4.1378 ,0.88564 ,4.77835 ,46.88515 
20 ,4.3456 ,0.88780 ,4.77493 ,46.85157 
21 ,4.5540 ,0.88979 ,4.74070 ,46.51579 
22 ,4.7458 ,0.89181 ,4.72359 ,46.34790 
23 ,4.9542 ,0.89383 ,4.69279 ,46.04569 
24 ,5.1619 ,0.89595 ,4.68937 ,46.01212 
25 ,5.3702 ,0.89800 ,4.64146 ,45.54202 
26 ,5.5784 ,0.90013 ,4.62777 ,45.40771 
27 ,5.7863 ,0.90215 ,4.60724 ,45.20624 
28 ,6.0107 ,0.90430 ,4.57986 ,44.93761 
29 ,6.2185 ,0.90645 ,4.56960 ,44.83688 
30 ,6.4586 ,0.90882 ,4.55249 ,44.66898 
31 ,6.6669 ,0.91100 ,4.53880 ,44.53467 
32 ,6.8749 ,0.91303 ,4.49431 ,44.09815 
33 ,7.0829 ,0.91513 ,4.46693 ,43.82953 
34 ,7.3067 ,0.91734 ,4.43613 ,43.52732 
35 ,7.4990 ,0.91931 ,4.43955 ,43.56090 
36 ,7.7070 ,0.92136 ,4.40533 ,43.22512 
37 ,7.8996 ,0.92333 ,4.39164 ,43.09080 
38 ,8.1235 ,0.92552 ,4.37111 ,42.88933 
39 ,8.3315 ,0.92759 ,4.33004 ,42.48639 
40 ,8.5396 ,0.92966 ,4.32662 ,42.45282 
41 ,8.7314 ,0.93167 ,4.28556 ,42.04988 
42 ,8.9398 ,0.93377 ,4.29582 ,42.15061 
43 ,9.1639 ,0.93588 ,4.25133 ,41.71409 
44 ,9.3720 ,0.93801 ,4.23422 ,41.54620 
45 ,9.5795 ,0.94011 ,4.22396 ,41.44547 
46 ,9.7882 ,0.94218 ,4.19316 ,41.14326 
47 ,10.0120 ,0.94437 ,4.16578 ,40.87464 
48 ,10.2203 ,0.94642 ,4.16920 ,40.90821 
49 ,10.4765 ,0.94903 ,4.13156 ,40.53885 
50 ,10.7001 ,0.95117 ,4.09049 ,40.13591 
51 ,10.9085 ,0.95337 ,4.08023 ,40.03518 
52 ,11.1325 ,0.95565 ,4.06996 ,39.93444 
53 ,11.3405 ,0.95767 ,4.04943 ,39.73297 
54 ,11.5486 ,0.95976 ,4.00152 ,39.26288 
55 ,11.7409 ,0.96167 ,4.01520 ,39.39719 
56 ,11.9646 ,0.96395 ,3.96729 ,38.92709 
57 ,12.1730 ,0.96598 ,3.95018 ,38.75920 
58 ,12.3812 ,0.96821 ,3.94676 ,38.72562 
59 ,12.5733 ,0.97005 ,3.91596 ,38.42342 
60 ,12.7814 ,0.97209 ,3.88858 ,38.15479 
61 ,13.0054 ,0.97430 ,3.86805 ,37.95332 
62 ,13.2135 ,0.97643 ,3.85436 ,37.81901 
63 ,13.4056 ,0.97833 ,3.83383 ,37.61754 
64 ,13.6137 ,0.98040 ,3.83041 ,37.58396 
65 ,13.8218 ,0.98249 ,3.78934 ,37.18102 
66 ,14.0294 ,0.98454 ,3.76196 ,36.91240 
67 ,14.2379 ,0.98663 ,3.75512 ,36.84524 
68 ,14.4621 ,0.98889 ,3.73801 ,36.67735 
69 ,14.6861 ,0.99112 ,3.70037 ,36.30799 
70 ,14.8941 ,0.99316 ,3.69694 ,36.27441 
71 ,15.0862 ,0.99516 ,3.65588 ,35.87147 
72 ,15.2942 ,0.99719 ,3.64903 ,35.80431 
73 ,15.5025 ,0.99933 ,3.62166 ,35.53569 
74 ,15.7264 ,1.00146 ,3.59428 ,35.26706 
75 ,15.9186 ,1.00347 ,3.58059 ,35.13275 
76 ,16.1265 ,1.00550 ,3.56006 ,34.93128 
77 ,16.3187 ,1.00754 ,3.54295 ,34.76338 
78 ,16.5268 ,1.00962 ,3.51899 ,34.52834 
79 ,16.7509 ,1.01173 ,3.51557 ,34.49476 
80 ,16.9430 ,1.01373 ,3.47108 ,34.05824 
81 ,17.1670 ,1.01592 ,3.46081 ,33.95751 
82 ,17.3748 ,1.01796 ,3.45397 ,33.89035 
83 ,17.5834 ,1.02004 ,3.39921 ,33.35310 
84 ,17.7917 ,1.02220 ,3.40264 ,33.38667 
85 ,17.9835 ,1.02418 ,3.36842 ,33.05089 
86 ,18.1916 ,1.02616 ,3.36157 ,32.98374 
87 ,18.3995 ,1.02820 ,3.32393 ,32.61437 
88 ,18.6237 ,1.03052 ,3.29313 ,32.31217 
89 ,18.8158 ,1.03243 ,3.29997 ,32.37933 
90 ,19.0238 ,1.03447 ,3.26575 ,32.04354 
91 ,19.2320 ,1.03660 ,3.26233 ,32.00996 
92 ,19.4402 ,1.03864 ,3.22126 ,31.60702 
93 ,19.6641 ,1.04087 ,3.21100 ,31.50629 
94 ,19.8560 ,1.04284 ,3.20073 ,31.40555 
95 ,20.0642 ,1.04491 ,3.14940 ,30.90188 
96 ,20.2564 ,1.04682 ,3.16993 ,31.10335 
97 ,20.4643 ,1.04886 ,3.12886 ,30.70041 
98 ,20.6722 ,1.05107 ,3.11860 ,30.59968 
99 ,20.8805 ,1.05303 ,3.09806 ,30.39821 
100 ,21.1048 ,1.05529 ,3.07069 ,30.12958 
101 ,21.3290 ,1.05754 ,3.05700 ,29.99527 
102 ,21.5688 ,1.05980 ,3.04673 ,29.89453 
103 ,21.7606 ,1.06196 ,3.00567 ,29.49159 
104 ,21.9692 ,1.06394 ,2.99198 ,29.35728 
105 ,22.1772 ,1.06601 ,2.95776 ,29.02150 
106 ,22.3691 ,1.06795 ,2.96460 ,29.08865 
107 ,22.5615 ,1.06988 ,2.92011 ,28.65213 
108 ,22.7692 ,1.07197 ,2.91669 ,28.61856 
109 ,22.9614 ,1.07390 ,2.88589 ,28.31635 
110 ,23.1695 ,1.07584 ,2.88931 ,28.34993 
111 ,23.3776 ,1.07795 ,2.84825 ,27.94699 
112 ,23.5699 ,1.08001 ,2.85167 ,27.98057 
113 ,23.7779 ,1.08197 ,2.81060 ,27.57763 
114 ,23.9855 ,1.08401 ,2.80718 ,27.54405 
115 ,24.2101 ,1.08620 ,2.79691 ,27.44332 
116 ,24.4181 ,1.08846 ,2.75243 ,27.00680 
117 ,24.6103 ,1.09034 ,2.75585 ,27.04038 
118 ,24.8024 ,1.09226 ,2.71820 ,26.67101 
119 ,25.0105 ,1.09433 ,2.71478 ,26.63744 
120 ,25.2185 ,1.09645 ,2.68056 ,26.30165 
121 ,25.4264 ,1.09850 ,2.69425 ,26.43597 
122 ,25.6187 ,1.10045 ,2.66345 ,26.13376 
123 ,25.8265 ,1.10248 ,2.65660 ,26.06661 
124 ,26.0348 ,1.10455 ,2.63265 ,25.83156 
125 ,26.2425 ,1.10661 ,2.61212 ,25.63009 
126 ,26.4349 ,1.10866 ,2.60185 ,25.52935 
127 ,26.6268 ,1.11053 ,2.59158 ,25.42862 
128 ,26.8352 ,1.11254 ,2.56421 ,25.15999 
129 ,27.0434 ,1.11464 ,2.55394 ,25.05926 
130 ,27.2514 ,1.11675 ,2.55052 ,25.02568 
131 ,27.4749 ,1.11901 ,2.50261 ,24.55558 
132 ,27.6829 ,1.12106 ,2.48550 ,24.38769 
133 ,27.8915 ,1.12316 ,2.47865 ,24.32053 
134 ,28.1313 ,1.12551 ,2.46496 ,24.18622 
135 ,28.3237 ,1.12749 ,2.44101 ,23.95117 
136 ,28.5156 ,1.12940 ,2.42048 ,23.74970 
137 ,28.7239 ,1.13150 ,2.40679 ,23.61539 
138 ,28.9157 ,1.13338 ,2.38968 ,23.44750 
139 ,29.1401 ,1.13560 ,2.36914 ,23.24603 
140 ,29.3480 ,1.13770 ,2.37941 ,23.34676 
141 ,29.5557 ,1.13971 ,2.34861 ,23.04456 
142 ,29.7804 ,1.14191 ,2.34519 ,23.01098 
143 ,29.9885 ,1.14411 ,2.31781 ,22.74235 
144 ,30.1964 ,1.14618 ,2.29043 ,22.47373 
145 ,30.3882 ,1.14809 ,2.29385 ,22.50731 
146 ,30.5804 ,1.15003 ,2.25963 ,22.17152 
147 ,30.8047 ,1.15231 ,2.24594 ,22.03721 
148 ,31.0129 ,1.15438 ,2.21515 ,21.73500 
149 ,31.2049 ,1.15635 ,2.22883 ,21.86932 
150 ,31.3968 ,1.15817 ,2.19461 ,21.53353 
151 ,31.6051 ,1.16027 ,2.18092 ,21.39922 
152 ,31.8128 ,1.16249 ,2.16723 ,21.26491 
153 ,32.0051 ,1.16427 ,2.15697 ,21.16417 
154 ,32.2134 ,1.16631 ,2.12959 ,20.89555 
155 ,32.4210 ,1.16841 ,2.12275 ,20.82839 
156 ,32.6134 ,1.17039 ,2.09879 ,20.59334 
157 ,32.8372 ,1.17244 ,2.10564 ,20.66050 
158 ,33.0616 ,1.17475 ,2.05773 ,20.19040 
159 ,33.2857 ,1.17706 ,2.05773 ,20.19040 
160 ,33.4936 ,1.17910 ,2.03377 ,19.95535 
161 ,33.6857 ,1.18107 ,2.03719 ,19.98893 
162 ,33.8941 ,1.18314 ,1.99613 ,19.58599 
163 ,34.1180 ,1.18534 ,1.99270 ,19.55241 
164 ,34.3258 ,1.18747 ,1.97902 ,19.41810 
165 ,34.5182 ,1.18941 ,1.94822 ,19.11590 
166 ,34.7102 ,1.19128 ,1.93795 ,19.01516 
167 ,34.9184 ,1.19333 ,1.93111 ,18.94801 
168 ,35.1260 ,1.19550 ,1.91742 ,18.81369 
169 ,35.3186 ,1.19741 ,1.89688 ,18.61222 
170 ,35.5266 ,1.19944 ,1.87293 ,18.37717 
171 ,35.7507 ,1.20170 ,1.84555 ,18.10855 
172 ,35.9909 ,1.20396 ,1.82844 ,17.94066 
173 ,36.1985 ,1.20620 ,1.81817 ,17.83992 
174 ,36.4065 ,1.20821 ,1.79422 ,17.60487 
175 ,36.5992 ,1.21018 ,1.80449 ,17.70561 
176 ,36.8072 ,1.21226 ,1.76684 ,17.33625 
177 ,37.0152 ,1.21432 ,1.75657 ,17.23551 
178 ,37.2073 ,1.21626 ,1.75315 ,17.20193 
179 ,37.4151 ,1.21837 ,1.73262 ,17.00046 
180 ,37.6236 ,1.22041 ,1.72920 ,16.96689 
181 ,37.8477 ,1.22263 ,1.69840 ,16.66468 
182 ,38.0717 ,1.22476 ,1.68129 ,16.49679 
183 ,38.2959 ,1.22713 ,1.66760 ,16.36248 
184 ,38.5199 ,1.22936 ,1.65733 ,16.26174 
185 ,38.7280 ,1.23147 ,1.63680 ,16.06027 
186 ,38.9681 ,1.23373 ,1.61284 ,15.82522 
187 ,39.1762 ,1.23589 ,1.59916 ,15.69091 
188 ,39.3842 ,1.23799 ,1.58889 ,15.59018 
189 ,39.5921 ,1.24013 ,1.55809 ,15.28797 
190 ,39.8006 ,1.24214 ,1.55809 ,15.28797 
191 ,40.0246 ,1.24439 ,1.53756 ,15.08650 
192 ,40.2325 ,1.24653 ,1.51702 ,14.88503 
193 ,40.4247 ,1.24845 ,1.51018 ,14.81787 
194 ,40.6323 ,1.25047 ,1.47938 ,14.51567 
195 ,40.8248 ,1.25251 ,1.47938 ,14.51567 
196 ,41.0329 ,1.25452 ,1.45200 ,14.24704 
197 ,41.2251 ,1.25644 ,1.44516 ,14.17989 
198 ,41.4331 ,1.25851 ,1.42462 ,13.97842 
199 ,41.6252 ,1.26052 ,1.42120 ,13.94484 
200 ,41.8491 ,1.26271 ,1.38698 ,13.60906 
201 ,42.0571 ,1.26477 ,1.39040 ,13.64263 
202 ,42.2815 ,1.26698 ,1.38698 ,13.60906 
203 ,42.4894 ,1.26914 ,1.35276 ,13.27327 
204 ,42.6975 ,1.27116 ,1.34591 ,13.20612 
205 ,42.8894 ,1.27316 ,1.32538 ,13.00465 
206 ,43.0817 ,1.27504 ,1.31854 ,12.93749 
207 ,43.2897 ,1.27710 ,1.28774 ,12.63528 
208 ,43.4978 ,1.27925 ,1.28089 ,12.56813 
209 ,43.7060 ,1.28118 ,1.26036 ,12.36666 
210 ,43.9456 ,1.28355 ,1.24667 ,12.23235 
211 ,44.1542 ,1.28570 ,1.23641 ,12.13161 
212 ,44.3781 ,1.28790 ,1.23298 ,12.09803 
213 ,44.5861 ,1.29002 ,1.19192 ,11.69509 
214 ,44.7783 ,1.29198 ,1.20218 ,11.79583 
215 ,44.9863 ,1.29397 ,1.17138 ,11.49362 
216 ,45.1946 ,1.29615 ,1.18507 ,11.62794 
217 ,45.3867 ,1.29808 ,1.13716 ,11.15784 
218 ,45.5950 ,1.30011 ,1.14743 ,11.25857 
219 ,45.8029 ,1.30228 ,1.12005 ,10.98995 
220 ,45.9953 ,1.30415 ,1.10636 ,10.85563 
221 ,46.2190 ,1.30632 ,1.09952 ,10.78848 
222 ,46.4112 ,1.30826 ,1.06530 ,10.45270 
223 ,46.6193 ,1.31031 ,1.06872 ,10.48627 
224 ,46.8111 ,1.31228 ,1.03450 ,10.15049 
225 ,47.0034 ,1.31418 ,1.04476 ,10.25123 
226 ,47.1953 ,1.31611 ,1.03450 ,10.15049 
227 ,47.4194 ,1.31834 ,1.00712 ,9.88186 
228 ,47.6277 ,1.32040 ,0.98317 ,9.64682 
229 ,47.8516 ,1.32262 ,0.97632 ,9.57966 
230 ,48.0598 ,1.32467 ,0.96263 ,9.44535 
231 ,48.2516 ,1.32677 ,0.95237 ,9.34461 
232 ,48.4440 ,1.32864 ,0.94210 ,9.24388 
233 ,48.6683 ,1.33076 ,0.92157 ,9.04241 
234 ,48.8761 ,1.33289 ,0.91472 ,8.97525 
235 ,49.0843 ,1.33503 ,0.88392 ,8.67305 
236 ,49.2923 ,1.33712 ,0.88734 ,8.70662 
237 ,49.4841 ,1.33907 ,0.87708 ,8.60589 
238 ,49.6764 ,1.34094 ,0.88050 ,8.63947 
239 ,49.8845 ,1.34298 ,0.84286 ,8.27011 
240 ,50.1087 ,1.34518 ,0.83259 ,8.16937 
241 ,50.3168 ,1.34726 ,0.82232 ,8.06864 
242 ,50.5405 ,1.34945 ,0.79152 ,7.76643 
243 ,50.7490 ,1.35168 ,0.78126 ,7.66570 
244 ,50.9890 ,1.35394 ,0.78468 ,7.69927 
245 ,51.1812 ,1.35596 ,0.75046 ,7.36349 
246 ,51.4053 ,1.35815 ,0.73677 ,7.22918 
247 ,51.6134 ,1.36026 ,0.75388 ,7.39707 
248 ,51.8375 ,1.36251 ,0.71624 ,7.02771 
249 ,52.0455 ,1.36459 ,0.69570 ,6.82624 
250 ,52.2692 ,1.36679 ,0.69913 ,6.85982 
251 ,52.4932 ,1.36904 ,0.69228 ,6.79266 
252 ,52.7015 ,1.37106 ,0.65464 ,6.42330 
253 ,52.9420 ,1.37350 ,0.64095 ,6.28899 
254 ,53.1660 ,1.37574 ,0.62726 ,6.15467 
255 ,53.3898 ,1.37806 ,0.63410 ,6.22183 
256 ,53.5982 ,1.38015 ,0.60673 ,5.95320 
257 ,53.8219 ,1.38232 ,0.56908 ,5.58384 
258 ,54.0944 ,1.38479 ,0.57593 ,5.65100 
259 ,54.3185 ,1.38730 ,0.56566 ,5.55026 
260 ,54.5262 ,1.38939 ,0.57251 ,5.61742 
261 ,54.7347 ,1.39148 ,0.55539 ,5.44953 
262 ,54.9589 ,1.39364 ,0.51775 ,5.08017 
263 ,55.2148 ,1.39640 ,0.51775 ,5.08017 
264 ,55.4551 ,1.39866 ,0.50064 ,4.91228 
265 ,55.6627 ,1.40074 ,0.45957 ,4.50934 
266 ,55.8709 ,1.40284 ,0.48011 ,4.71081 
267 ,56.0792 ,1.40491 ,0.44588 ,4.37502 
268 ,56.2869 ,1.40702 ,0.44588 ,4.37502 
269 ,56.4795 ,1.40890 ,0.41851 ,4.10640 
270 ,56.6715 ,1.41087 ,0.43904 ,4.30787 
271 ,56.8632 ,1.41277 ,0.39797 ,3.90493 
272 ,57.0877 ,1.41488 ,0.39797 ,3.90493 
273 ,57.2952 ,1.41718 ,0.40482 ,3.97208 
274 ,57.5035 ,1.41909 ,0.36375 ,3.56914 
275 ,57.7118 ,1.42122 ,0.37744 ,3.70346 
276 ,57.9359 ,1.42345 ,0.34322 ,3.36767 
277 ,58.1597 ,1.42558 ,0.32269 ,3.16620 
278 ,58.3519 ,1.42766 ,0.32953 ,3.23336 
279 ,58.5759 ,1.42982 ,0.28847 ,2.83042 
280 ,58.8005 ,1.43198 ,0.29873 ,2.93116 
281 ,59.0084 ,1.43419 ,0.28504 ,2.79684 
282 ,59.2321 ,1.43644 ,0.27135 ,2.66253 
283 ,59.4402 ,1.43853 ,0.24055 ,2.36032 
284 ,59.6647 ,1.44076 ,0.25082 ,2.46106 
285 ,59.8884 ,1.44298 ,0.24055 ,2.36032 
286 ,60.0967 ,1.44506 ,0.20976 ,2.05812 
287 ,60.3205 ,1.44728 ,0.20633 ,2.02454 
288 ,60.5445 ,1.44947 ,0.19264 ,1.89023 
289 ,60.7526 ,1.45157 ,0.17553 ,1.72234 
290 ,60.9449 ,1.45358 ,0.17211 ,1.68876 
291 ,61.1691 ,1.45582 ,0.16527 ,1.62160 
292 ,61.4095 ,1.45821 ,0.15842 ,1.55445 
293 ,61.6170 ,1.46035 ,0.13105 ,1.28582 
294 ,61.8254 ,1.46241 ,0.12762 ,1.25224 
295 ,62.0336 ,1.46445 ,0.12078 ,1.18508 
296 ,62.2418 ,1.46646 ,0.09340 ,0.91646 
297 ,62.4658 ,1.46871 ,0.09340 ,0.91646 
298 ,62.6900 ,1.47098 ,0.07287 ,0.71499 
299 ,62.9297 ,1.47344 ,0.06945 ,0.68141 
300 ,63.1543 ,1.47567 ,0.04891 ,0.47994 
301 ,63.3618 ,1.47780 ,0.02838 ,0.27847 
302 ,63.5700 ,1.47980 ,0.02496 ,0.24489 
303 ,63.8104 ,1.48206 ,0.01127 ,0.11058 
304 ,64.0180 ,1.48439 ,-0.00584 ,-0.05731 
305 ,64.2263 ,1.48636 ,0.00100 ,0.00984 
306 ,64.4662 ,1.48860 ,-0.01611 ,-0.15805 
307 ,64.6743 ,1.49079 ,-0.04006 ,-0.39310 
308 ,64.8827 ,1.49286 ,-0.02980 ,-0.29236 
309 ,65.0744 ,1.49493 ,-0.05375 ,-0.52741 
310 ,65.2985 ,1.49704 ,-0.06402 ,-0.62814 
311 ,65.5068 ,1.49908 ,-0.06744 ,-0.66172 
312 ,65.7146 ,1.50117 ,-0.09824 ,-0.96393 
313 ,65.9231 ,1.50328 ,-0.08797 ,-0.86319 
314 ,66.1312 ,1.50544 ,-0.11193 ,-1.09824 
315 ,66.3392 ,1.50752 ,-0.11193 ,-1.09824 
316 ,66.5471 ,1.50958 ,-0.11877 ,-1.16540 
317 ,66.7554 ,1.51159 ,-0.14957 ,-1.46760 
318 ,66.9474 ,1.51357 ,-0.14273 ,-1.40045 
319 ,67.1396 ,1.51548 ,-0.15984 ,-1.56834 
320 ,67.3476 ,1.51751 ,-0.16326 ,-1.60191 
321 ,67.5395 ,1.51946 ,-0.18722 ,-1.83696 
322 ,67.7478 ,1.52150 ,-0.17353 ,-1.70265 
323 ,67.9399 ,1.52354 ,-0.20433 ,-2.00485 
324 ,68.1639 ,1.52570 ,-0.19406 ,-1.90412 
325 ,68.3718 ,1.52775 ,-0.22828 ,-2.23990 
326 ,68.5803 ,1.52989 ,-0.23513 ,-2.30706 
327 ,68.7884 ,1.53199 ,-0.22144 ,-2.17275 
328 ,68.9965 ,1.53405 ,-0.26250 ,-2.57569 
329 ,69.2045 ,1.53615 ,-0.25224 ,-2.47495 
330 ,69.4125 ,1.53814 ,-0.27277 ,-2.67642 
331 ,69.6046 ,1.54017 ,-0.26593 ,-2.60926 
332 ,69.7965 ,1.54207 ,-0.29330 ,-2.87789 
333 ,69.9889 ,1.54396 ,-0.30015 ,-2.94505 
334 ,70.1968 ,1.54600 ,-0.32410 ,-3.18010 
335 ,70.3891 ,1.54798 ,-0.31726 ,-3.11294 
336 ,70.6126 ,1.55017 ,-0.33437 ,-3.28083 
337 ,70.8051 ,1.55220 ,-0.33779 ,-3.31441 
338 ,71.0129 ,1.55421 ,-0.36175 ,-3.54946 
339 ,71.2054 ,1.55615 ,-0.35148 ,-3.44872 
340 ,71.4131 ,1.55821 ,-0.38912 ,-3.81808 
341 ,71.6215 ,1.56024 ,-0.37544 ,-3.68377 
342 ,71.8454 ,1.56247 ,-0.38912 ,-3.81808 
343 ,72.0376 ,1.56444 ,-0.40623 ,-3.98597 
344 ,72.2297 ,1.56641 ,-0.40281 ,-3.95240 
345 ,72.4377 ,1.56839 ,-0.43019 ,-4.22102 
346 ,72.6459 ,1.57049 ,-0.43703 ,-4.28818 
347 ,72.8536 ,1.57259 ,-0.45757 ,-4.48965 
348 ,73.0621 ,1.57458 ,-0.43361 ,-4.25460 
349 ,73.2699 ,1.57675 ,-0.46783 ,-4.59038 
350 ,73.4782 ,1.57878 ,-0.47468 ,-4.65754 
351 ,73.6863 ,1.58094 ,-0.47468 ,-4.65754 
352 ,73.8944 ,1.58296 ,-0.50890 ,-4.99332 
353 ,74.1022 ,1.58506 ,-0.47810 ,-4.69112 
354 ,74.3106 ,1.58716 ,-0.51232 ,-5.02690 
355 ,74.5024 ,1.58922 ,-0.52943 ,-5.19479 
356 ,74.7108 ,1.59114 ,-0.53970 ,-5.29553 
357 ,74.9028 ,1.59315 ,-0.52601 ,-5.16121 
358 ,75.1110 ,1.59515 ,-0.56365 ,-5.53058 
359 ,75.3190 ,1.59719 ,-0.55339 ,-5.42984 
360 ,75.5111 ,1.59914 ,-0.57392 ,-5.63131 
361 ,75.7193 ,1.60127 ,-0.57734 ,-5.66489 
362 ,75.9432 ,1.60344 ,-0.60130 ,-5.89994 
363 ,76.1350 ,1.60541 ,-0.60472 ,-5.93352 
364 ,76.3435 ,1.60749 ,-0.59445 ,-5.83278 
365 ,76.5515 ,1.60964 ,-0.63210 ,-6.20214 
366 ,76.7437 ,1.61153 ,-0.63552 ,-6.23572 
367 ,76.9517 ,1.61351 ,-0.64921 ,-6.37003 
368 ,77.1599 ,1.61563 ,-0.64236 ,-6.30288 
369 ,77.3838 ,1.61786 ,-0.66290 ,-6.50435 
370 ,77.5919 ,1.62002 ,-0.68685 ,-6.73940 
371 ,77.8322 ,1.62238 ,-0.69712 ,-6.84013 
372 ,78.0558 ,1.62453 ,-0.69027 ,-6.77297 
373 ,78.2482 ,1.62653 ,-0.70739 ,-6.94086 
374 ,78.4563 ,1.62863 ,-0.71423 ,-7.00802 
375 ,78.6804 ,1.63083 ,-0.70396 ,-6.90729 
376 ,78.8884 ,1.63296 ,-0.74161 ,-7.27665 
377 ,79.0805 ,1.63485 ,-0.74161 ,-7.27665 
378 ,79.2885 ,1.63689 ,-0.76556 ,-7.51170 
379 ,79.4643 ,1.63882 ,-0.74161 ,-7.27665 
380 ,79.6728 ,1.64073 ,-0.76898 ,-7.54527 
381 ,79.8809 ,1.64283 ,-0.77925 ,-7.64601 
382 ,80.0891 ,1.64497 ,-0.78952 ,-7.74674 
383 ,80.2968 ,1.64704 ,-0.79978 ,-7.84748 
384 ,80.4892 ,1.64893 ,-0.81347 ,-7.98179 
385 ,80.7133 ,1.65109 ,-0.81005 ,-7.94821 
386 ,80.9372 ,1.65336 ,-0.81347 ,-7.98179 
387 ,81.1294 ,1.65532 ,-0.83743 ,-8.21684 
388 ,81.3374 ,1.65736 ,-0.83401 ,-8.18326 
389 ,81.5294 ,1.65930 ,-0.86138 ,-8.45189 
390 ,81.7212 ,1.66125 ,-0.86138 ,-8.45189 
391 ,81.9297 ,1.66326 ,-0.87507 ,-8.58620 
392 ,82.1379 ,1.66537 ,-0.85796 ,-8.41831 
393 ,82.3461 ,1.66744 ,-0.89903 ,-8.82125 
394 ,82.5701 ,1.66957 ,-0.90587 ,-8.88841 
395 ,82.7620 ,1.67164 ,-0.89560 ,-8.78767 
396 ,82.9702 ,1.67374 ,-0.92983 ,-9.12345 
397 ,83.1945 ,1.67593 ,-0.92983 ,-9.12345 
398 ,83.4026 ,1.67803 ,-0.93325 ,-9.15703 
399 ,83.6425 ,1.68030 ,-0.96063 ,-9.42566 
400 ,83.8664 ,1.68262 ,-0.97089 ,-9.52639 
401 ,84.0905 ,1.68483 ,-0.96747 ,-9.49282 
402 ,84.2989 ,1.68702 ,-0.96405 ,-9.45924 
403 ,84.5066 ,1.68903 ,-0.99485 ,-9.76144 
404 ,84.7150 ,1.69114 ,-0.98116 ,-9.62713 
405 ,84.9228 ,1.69321 ,-0.99827 ,-9.79502 
406 ,85.1469 ,1.69543 ,-1.00511 ,-9.86218 
407 ,85.3713 ,1.69766 ,-1.02907 ,-10.09723 
408 ,85.5632 ,1.69971 ,-1.01880 ,-9.99649 
409 ,85.7554 ,1.70158 ,-1.03934 ,-10.19796 
410 ,85.9635 ,1.70361 ,-1.06329 ,-10.43301 
411 ,86.1710 ,1.70569 ,-1.07014 ,-10.50016 
412 ,86.3637 ,1.70763 ,-1.07356 ,-10.53374 
413 ,86.5715 ,1.70971 ,-1.08040 ,-10.60090 
414 ,86.7639 ,1.71171 ,-1.08382 ,-10.63448 
415 ,86.9720 ,1.71369 ,-1.10093 ,-10.80237 
416 ,87.1801 ,1.71579 ,-1.09409 ,-10.73521 
417 ,87.4039 ,1.71806 ,-1.13173 ,-11.10457 
418 ,87.6278 ,1.72021 ,-1.12831 ,-11.07100 
419 ,87.8358 ,1.72234 ,-1.13173 ,-11.10457 
420 ,88.0438 ,1.72443 ,-1.13173 ,-11.10457 
421 ,88.2519 ,1.72656 ,-1.15911 ,-11.37320 
422 ,88.4604 ,1.72862 ,-1.14542 ,-11.23889 
423 ,88.6685 ,1.73066 ,-1.17622 ,-11.54109 
424 ,88.8926 ,1.73287 ,-1.17280 ,-11.50751 
425 ,89.1168 ,1.73518 ,-1.16938 ,-11.47394 
426 ,89.3409 ,1.73730 ,-1.20360 ,-11.80972 
427 ,89.5651 ,1.73959 ,-1.20018 ,-11.77614 
428 ,89.7731 ,1.74174 ,-1.20360 ,-11.80972 
429 ,89.9813 ,1.74370 ,-1.22071 ,-11.97761 
430 ,90.2053 ,1.74599 ,-1.22071 ,-11.97761 
431 ,90.3975 ,1.74799 ,-1.22071 ,-11.97761 
432 ,90.6215 ,1.75013 ,-1.23782 ,-12.14550 
433 ,90.8136 ,1.75219 ,-1.24467 ,-12.21266 
434 ,91.0216 ,1.75418 ,-1.25151 ,-12.27981 
435 ,91.2297 ,1.75621 ,-1.25835 ,-12.34697 
436 ,91.4377 ,1.75831 ,-1.26862 ,-12.44771 
437 ,91.6296 ,1.76030 ,-1.29600 ,-12.71633 
438 ,91.8537 ,1.76251 ,-1.29258 ,-12.68275 
439 ,92.0621 ,1.76465 ,-1.29600 ,-12.71633 
440 ,92.2702 ,1.76663 ,-1.30969 ,-12.85065 
441 ,92.4781 ,1.76880 ,-1.30626 ,-12.81707 
442 ,92.6542 ,1.77065 ,-1.33022 ,-13.05212 
443 ,92.8462 ,1.77243 ,-1.34049 ,-13.15285 
444 ,93.0545 ,1.77453 ,-1.33706 ,-13.11927 
445 ,93.2466 ,1.77645 ,-1.35760 ,-13.32074 
446 ,93.4546 ,1.77848 ,-1.34391 ,-13.18643 
447 ,93.6629 ,1.78061 ,-1.35417 ,-13.28716 
448 ,93.8705 ,1.78272 ,-1.35760 ,-13.32074 
449 ,94.0629 ,1.78473 ,-1.35075 ,-13.25359 
450 ,94.2708 ,1.78669 ,-1.37129 ,-13.45506 
451 ,94.4791 ,1.78877 ,-1.37129 ,-13.45506 
452 ,94.6870 ,1.79080 ,-1.38840 ,-13.62295 
453 ,94.8953 ,1.79288 ,-1.39182 ,-13.65653 
454 ,95.0872 ,1.79489 ,-1.40893 ,-13.82442 
455 ,95.2792 ,1.79677 ,-1.40209 ,-13.75726 
456 ,95.4873 ,1.79883 ,-1.42262 ,-13.95873 
457 ,95.6957 ,1.80088 ,-1.40209 ,-13.75726 
458 ,95.9038 ,1.80298 ,-1.44315 ,-14.16020 
459 ,96.1113 ,1.80504 ,-1.43288 ,-14.05946 
460 ,96.3200 ,1.80711 ,-1.45684 ,-14.29451 
