Data stamp = , 17-05-2022 02:39:38 532

Calibration Values: 
Slope = , 26.54 , g/V 
Offset Voltage at no contact = , -0.501760 , V 

No , Time , Stage Position ,   Mass , Force 
   ,  (s) ,      (mm)      ,   (g)  , (mN)  

1 ,0.0000 ,0.84955 ,5.05897 ,49.63857 
2 ,0.3201 ,0.84980 ,5.07265 ,49.77289 
3 ,0.7364 ,0.85153 ,5.07608 ,49.80646 
4 ,0.9445 ,0.85375 ,5.06923 ,49.73931 
5 ,1.1691 ,0.85594 ,5.06923 ,49.73931 
6 ,1.4091 ,0.85827 ,5.06239 ,49.67215 
7 ,1.6492 ,0.86069 ,5.05554 ,49.60499 
8 ,1.8411 ,0.86268 ,5.04528 ,49.50426 
9 ,2.0331 ,0.86459 ,5.01790 ,49.23563 
10 ,2.2573 ,0.86682 ,5.00079 ,49.06774 
11 ,2.4657 ,0.86894 ,4.95972 ,48.66480 
12 ,2.6736 ,0.87101 ,4.95630 ,48.63122 
13 ,2.8813 ,0.87303 ,4.93577 ,48.42975 
14 ,3.1058 ,0.87529 ,4.90839 ,48.16113 
15 ,3.3457 ,0.87759 ,4.89128 ,47.99324 
16 ,3.5380 ,0.87971 ,4.88444 ,47.92608 
17 ,3.7460 ,0.88173 ,4.82968 ,47.38883 
18 ,3.9542 ,0.88383 ,4.83995 ,47.48956 
19 ,4.1781 ,0.88596 ,4.80230 ,47.12020 
20 ,4.3862 ,0.88815 ,4.76466 ,46.75084 
21 ,4.5781 ,0.89007 ,4.77150 ,46.81800 
22 ,4.7704 ,0.89201 ,4.72702 ,46.38148 
23 ,4.9785 ,0.89405 ,4.72359 ,46.34790 
24 ,5.2025 ,0.89631 ,4.68937 ,46.01212 
25 ,5.3943 ,0.89828 ,4.66884 ,45.81065 
26 ,5.5868 ,0.90026 ,4.65515 ,45.67633 
27 ,5.7947 ,0.90220 ,4.64146 ,45.54202 
28 ,5.9869 ,0.90411 ,4.60040 ,45.13908 
29 ,6.1950 ,0.90619 ,4.59013 ,45.03835 
30 ,6.4192 ,0.90839 ,4.57302 ,44.87045 
31 ,6.6271 ,0.91049 ,4.54222 ,44.56825 
32 ,6.8193 ,0.91247 ,4.52511 ,44.40036 
33 ,7.0432 ,0.91465 ,4.49089 ,44.06457 
34 ,7.2354 ,0.91661 ,4.48746 ,44.03100 
35 ,7.4434 ,0.91862 ,4.44982 ,43.66163 
36 ,7.6511 ,0.92074 ,4.43955 ,43.56090 
37 ,7.8757 ,0.92287 ,4.40875 ,43.25870 
38 ,8.0838 ,0.92507 ,4.36769 ,42.85576 
39 ,8.2919 ,0.92721 ,4.36427 ,42.82218 
40 ,8.5000 ,0.92929 ,4.34716 ,42.65429 
41 ,8.7076 ,0.93132 ,4.32320 ,42.41924 
42 ,8.9162 ,0.93346 ,4.31293 ,42.31850 
43 ,9.1402 ,0.93556 ,4.27529 ,41.94914 
44 ,9.3483 ,0.93767 ,4.24791 ,41.68051 
45 ,9.5564 ,0.93982 ,4.24449 ,41.64694 
46 ,9.7647 ,0.94186 ,4.20342 ,41.24400 
47 ,9.9722 ,0.94393 ,4.20000 ,41.21042 
48 ,10.1807 ,0.94600 ,4.16578 ,40.87464 
49 ,10.3723 ,0.94807 ,4.14183 ,40.63959 
50 ,10.5649 ,0.94993 ,4.12814 ,40.50527 
51 ,10.7727 ,0.95193 ,4.11103 ,40.33738 
52 ,10.9805 ,0.95413 ,4.10418 ,40.27023 
53 ,11.1891 ,0.95608 ,4.07338 ,39.96802 
54 ,11.3812 ,0.95807 ,4.04943 ,39.73297 
55 ,11.6052 ,0.96025 ,4.01863 ,39.43077 
56 ,11.8133 ,0.96235 ,4.01178 ,39.36361 
57 ,12.0212 ,0.96449 ,3.99125 ,39.16214 
58 ,12.2294 ,0.96652 ,3.97756 ,39.02783 
59 ,12.4376 ,0.96859 ,3.96729 ,38.92709 
60 ,12.6296 ,0.97053 ,3.91596 ,38.42342 
61 ,12.8218 ,0.97242 ,3.90570 ,38.32268 
62 ,13.0297 ,0.97454 ,3.87490 ,38.02048 
63 ,13.2214 ,0.97646 ,3.86121 ,37.88617 
64 ,13.4139 ,0.97833 ,3.85436 ,37.81901 
65 ,13.6220 ,0.98048 ,3.82356 ,37.51681 
66 ,13.8299 ,0.98249 ,3.81672 ,37.44965 
67 ,14.0382 ,0.98462 ,3.79276 ,37.21460 
68 ,14.2301 ,0.98653 ,3.76196 ,36.91240 
69 ,14.4384 ,0.98866 ,3.73459 ,36.64377 
70 ,14.6785 ,0.99083 ,3.69694 ,36.27441 
71 ,14.9023 ,0.99321 ,3.68668 ,36.17367 
72 ,15.0947 ,0.99515 ,3.68325 ,36.14010 
73 ,15.3346 ,0.99742 ,3.65246 ,35.83789 
74 ,15.5590 ,0.99972 ,3.62166 ,35.53569 
75 ,15.7826 ,1.00198 ,3.60112 ,35.33422 
76 ,15.9911 ,1.00412 ,3.59086 ,35.23348 
77 ,16.2152 ,1.00630 ,3.57717 ,35.09917 
78 ,16.4393 ,1.00860 ,3.54979 ,34.83054 
79 ,16.6473 ,1.01067 ,3.50872 ,34.42760 
80 ,16.8553 ,1.01275 ,3.50872 ,34.42760 
81 ,17.0475 ,1.01474 ,3.45739 ,33.92393 
82 ,17.2553 ,1.01676 ,3.46424 ,33.99108 
83 ,17.4635 ,1.01882 ,3.42659 ,33.62172 
84 ,17.6872 ,1.02095 ,3.41290 ,33.48741 
85 ,17.8954 ,1.02313 ,3.39579 ,33.31952 
86 ,18.1040 ,1.02526 ,3.35815 ,32.95016 
87 ,18.3438 ,1.02771 ,3.33762 ,32.74869 
88 ,18.5521 ,1.02968 ,3.33077 ,32.68153 
89 ,18.7278 ,1.03163 ,3.30339 ,32.41290 
90 ,18.9363 ,1.03354 ,3.29313 ,32.31217 
91 ,19.1604 ,1.03580 ,3.27259 ,32.11070 
92 ,19.3687 ,1.03787 ,3.23837 ,31.77492 
93 ,19.5924 ,1.04008 ,3.23837 ,31.77492 
94 ,19.8002 ,1.04218 ,3.21442 ,31.53987 
95 ,20.0085 ,1.04428 ,3.18020 ,31.20409 
96 ,20.2168 ,1.04645 ,3.17677 ,31.17051 
97 ,20.4251 ,1.04843 ,3.12886 ,30.70041 
98 ,20.6490 ,1.05066 ,3.12544 ,30.66683 
99 ,20.8412 ,1.05265 ,3.10491 ,30.46536 
100 ,21.0492 ,1.05475 ,3.07411 ,30.16316 
101 ,21.2409 ,1.05663 ,3.06726 ,30.09600 
102 ,21.4488 ,1.05870 ,3.04673 ,29.89453 
103 ,21.6410 ,1.06061 ,3.02278 ,29.65948 
104 ,21.8331 ,1.06256 ,3.02278 ,29.65948 
105 ,22.0412 ,1.06457 ,2.97144 ,29.15581 
106 ,22.2497 ,1.06674 ,2.98513 ,29.29012 
107 ,22.4578 ,1.06878 ,2.95433 ,28.98792 
108 ,22.6660 ,1.07085 ,2.92696 ,28.71929 
109 ,22.8739 ,1.07288 ,2.93038 ,28.75287 
110 ,23.0819 ,1.07502 ,2.88589 ,28.31635 
111 ,23.2741 ,1.07690 ,2.89616 ,28.41709 
112 ,23.4501 ,1.07882 ,2.84140 ,27.87983 
113 ,23.6421 ,1.08075 ,2.84140 ,27.87983 
114 ,23.8503 ,1.08260 ,2.82429 ,27.71194 
115 ,24.0419 ,1.08458 ,2.79691 ,27.44332 
116 ,24.2500 ,1.08681 ,2.79007 ,27.37616 
117 ,24.4747 ,1.08882 ,2.76954 ,27.17469 
118 ,24.6987 ,1.09121 ,2.74900 ,26.97322 
119 ,24.8743 ,1.09302 ,2.73531 ,26.83891 
120 ,25.0829 ,1.09497 ,2.71136 ,26.60386 
121 ,25.3068 ,1.09720 ,2.70109 ,26.50312 
122 ,25.4989 ,1.09919 ,2.68056 ,26.30165 
123 ,25.6912 ,1.10113 ,2.68056 ,26.30165 
124 ,25.9472 ,1.10357 ,2.65318 ,26.03303 
125 ,26.1390 ,1.10557 ,2.63949 ,25.89871 
126 ,26.3473 ,1.10758 ,2.62238 ,25.73082 
127 ,26.5390 ,1.10962 ,2.60185 ,25.52935 
128 ,26.7476 ,1.11163 ,2.58816 ,25.39504 
129 ,26.9714 ,1.11386 ,2.57447 ,25.26073 
130 ,27.1797 ,1.11599 ,2.54710 ,24.99210 
131 ,27.3877 ,1.11803 ,2.53341 ,24.85779 
132 ,27.5798 ,1.12006 ,2.52656 ,24.79063 
133 ,27.7880 ,1.12206 ,2.50603 ,24.58916 
134 ,27.9959 ,1.12418 ,2.48892 ,24.42127 
135 ,28.2200 ,1.12628 ,2.46496 ,24.18622 
136 ,28.4281 ,1.12853 ,2.44785 ,24.01833 
137 ,28.6362 ,1.13058 ,2.44101 ,23.95117 
138 ,28.8444 ,1.13264 ,2.40336 ,23.58181 
139 ,29.0523 ,1.13468 ,2.40679 ,23.61539 
140 ,29.2445 ,1.13657 ,2.38968 ,23.44750 
141 ,29.4524 ,1.13873 ,2.38625 ,23.41392 
142 ,29.6766 ,1.14086 ,2.34177 ,22.97740 
143 ,29.8685 ,1.14281 ,2.33150 ,22.87667 
144 ,30.0766 ,1.14488 ,2.32123 ,22.77593 
145 ,30.2689 ,1.14685 ,2.31439 ,22.70877 
146 ,30.4611 ,1.14880 ,2.26990 ,22.27226 
147 ,30.6532 ,1.15067 ,2.28359 ,22.40657 
148 ,30.8611 ,1.15280 ,2.23910 ,21.97005 
149 ,31.0696 ,1.15482 ,2.25963 ,22.17152 
150 ,31.2613 ,1.15676 ,2.20830 ,21.66785 
151 ,31.4693 ,1.15883 ,2.21857 ,21.76858 
152 ,31.6613 ,1.16078 ,2.18777 ,21.46638 
153 ,31.8536 ,1.16268 ,2.17750 ,21.36564 
154 ,32.0772 ,1.16479 ,2.15697 ,21.16417 
155 ,32.2859 ,1.16701 ,2.13986 ,20.99628 
156 ,32.5100 ,1.16921 ,2.12959 ,20.89555 
157 ,32.7021 ,1.17116 ,2.08852 ,20.49261 
158 ,32.8942 ,1.17308 ,2.10564 ,20.66050 
159 ,33.1020 ,1.17515 ,2.06457 ,20.25756 
160 ,33.3102 ,1.17720 ,2.07484 ,20.35829 
161 ,33.5182 ,1.17934 ,2.03377 ,19.95535 
162 ,33.7266 ,1.18148 ,2.03377 ,19.95535 
163 ,33.9345 ,1.18346 ,2.02008 ,19.82104 
164 ,34.1106 ,1.18536 ,1.99613 ,19.58599 
165 ,34.3023 ,1.18716 ,1.97217 ,19.35094 
166 ,34.5108 ,1.18925 ,1.99270 ,19.55241 
167 ,34.7350 ,1.19146 ,1.94479 ,19.08232 
168 ,34.9430 ,1.19353 ,1.93453 ,18.98158 
169 ,35.1511 ,1.19568 ,1.92768 ,18.91443 
170 ,35.3753 ,1.19775 ,1.89346 ,18.57864 
171 ,35.5992 ,1.20001 ,1.88319 ,18.47791 
172 ,35.8070 ,1.20221 ,1.85240 ,18.17570 
173 ,35.9994 ,1.20416 ,1.85240 ,18.17570 
174 ,36.1916 ,1.20605 ,1.85240 ,18.17570 
175 ,36.4158 ,1.20828 ,1.81817 ,17.83992 
176 ,36.6232 ,1.21037 ,1.79080 ,17.57129 
177 ,36.8158 ,1.21235 ,1.81133 ,17.77276 
178 ,37.0399 ,1.21452 ,1.77369 ,17.40340 
179 ,37.2478 ,1.21653 ,1.77026 ,17.36983 
180 ,37.4401 ,1.21862 ,1.73604 ,17.03404 
181 ,37.6321 ,1.22046 ,1.74631 ,17.13478 
182 ,37.8563 ,1.22258 ,1.72235 ,16.89973 
183 ,38.0642 ,1.22480 ,1.69498 ,16.63110 
184 ,38.2722 ,1.22687 ,1.68471 ,16.53037 
185 ,38.4646 ,1.22878 ,1.65391 ,16.22816 
186 ,38.6887 ,1.23098 ,1.66075 ,16.29532 
187 ,38.8966 ,1.23305 ,1.64022 ,16.09385 
188 ,39.0888 ,1.23499 ,1.62995 ,15.99311 
189 ,39.2967 ,1.23704 ,1.60600 ,15.75807 
190 ,39.5050 ,1.23914 ,1.58889 ,15.59018 
191 ,39.7129 ,1.24120 ,1.57178 ,15.42228 
192 ,39.9206 ,1.24343 ,1.55809 ,15.28797 
193 ,40.1133 ,1.24525 ,1.56151 ,15.32155 
194 ,40.3213 ,1.24733 ,1.52045 ,14.91861 
195 ,40.5292 ,1.24945 ,1.51018 ,14.81787 
196 ,40.7374 ,1.25144 ,1.49307 ,14.64998 
197 ,40.9612 ,1.25361 ,1.47938 ,14.51567 
198 ,41.1698 ,1.25583 ,1.47938 ,14.51567 
199 ,41.3777 ,1.25794 ,1.45200 ,14.24704 
200 ,41.5854 ,1.25991 ,1.44174 ,14.14631 
201 ,41.7938 ,1.26201 ,1.42805 ,14.01199 
202 ,41.9859 ,1.26404 ,1.40751 ,13.81053 
203 ,42.2099 ,1.26615 ,1.39383 ,13.67621 
204 ,42.4018 ,1.26815 ,1.37329 ,13.47474 
205 ,42.5942 ,1.27006 ,1.37329 ,13.47474 
206 ,42.8184 ,1.27220 ,1.33565 ,13.10538 
207 ,43.0103 ,1.27420 ,1.34934 ,13.23969 
208 ,43.2180 ,1.27638 ,1.31512 ,12.90391 
209 ,43.4266 ,1.27832 ,1.30827 ,12.83675 
210 ,43.6503 ,1.28055 ,1.28774 ,12.63528 
211 ,43.8426 ,1.28253 ,1.26378 ,12.40024 
212 ,44.0667 ,1.28473 ,1.26378 ,12.40024 
213 ,44.2588 ,1.28677 ,1.24667 ,12.23235 
214 ,44.4671 ,1.28880 ,1.23298 ,12.09803 
215 ,44.6909 ,1.29097 ,1.23641 ,12.13161 
216 ,44.9151 ,1.29322 ,1.19534 ,11.72867 
217 ,45.1393 ,1.29546 ,1.16796 ,11.46004 
218 ,45.3473 ,1.29752 ,1.17481 ,11.52720 
219 ,45.5712 ,1.29980 ,1.16112 ,11.39289 
220 ,45.7954 ,1.30205 ,1.13374 ,11.12426 
221 ,46.0035 ,1.30416 ,1.10636 ,10.85563 
222 ,46.1952 ,1.30604 ,1.11663 ,10.95637 
223 ,46.3876 ,1.30797 ,1.09610 ,10.75490 
224 ,46.5793 ,1.30989 ,1.06530 ,10.45270 
225 ,46.7719 ,1.31183 ,1.07214 ,10.51985 
226 ,46.9798 ,1.31386 ,1.03108 ,10.11691 
227 ,47.1875 ,1.31598 ,1.03792 ,10.18407 
228 ,47.3800 ,1.31791 ,1.01739 ,9.98260 
229 ,47.6038 ,1.32014 ,1.00370 ,9.84829 
230 ,47.9083 ,1.32272 ,1.00028 ,9.81471 
231 ,48.1323 ,1.32538 ,0.98659 ,9.68039 
232 ,48.3404 ,1.32750 ,0.94894 ,9.31103 
233 ,48.5324 ,1.32941 ,0.96948 ,9.51250 
234 ,48.7244 ,1.33135 ,0.93183 ,9.14314 
235 ,48.9325 ,1.33349 ,0.93183 ,9.14314 
236 ,49.1408 ,1.33550 ,0.91472 ,8.97525 
237 ,49.3486 ,1.33753 ,0.90446 ,8.87451 
238 ,49.5569 ,1.33955 ,0.87708 ,8.60589 
239 ,49.7489 ,1.34164 ,0.87023 ,8.53873 
240 ,49.9406 ,1.34347 ,0.85654 ,8.40442 
241 ,50.1330 ,1.34547 ,0.85654 ,8.40442 
242 ,50.3573 ,1.34761 ,0.82575 ,8.10221 
243 ,50.5655 ,1.34974 ,0.83259 ,8.16937 
244 ,50.7735 ,1.35184 ,0.81548 ,8.00148 
245 ,50.9811 ,1.35387 ,0.77784 ,7.63212 
246 ,51.1893 ,1.35599 ,0.79152 ,7.76643 
247 ,51.3975 ,1.35809 ,0.75388 ,7.39707 
248 ,51.6058 ,1.36010 ,0.75388 ,7.39707 
249 ,51.8298 ,1.36232 ,0.73677 ,7.22918 
250 ,52.0220 ,1.36430 ,0.69913 ,6.85982 
251 ,52.2460 ,1.36658 ,0.70939 ,6.96055 
252 ,52.4377 ,1.36853 ,0.69913 ,6.85982 
253 ,52.6303 ,1.37035 ,0.68886 ,6.75908 
254 ,52.8381 ,1.37243 ,0.66148 ,6.49046 
255 ,53.0303 ,1.37436 ,0.66490 ,6.52403 
256 ,53.2220 ,1.37631 ,0.63068 ,6.18825 
257 ,53.4466 ,1.37843 ,0.64437 ,6.32256 
258 ,53.6547 ,1.38063 ,0.61015 ,5.98678 
259 ,53.8627 ,1.38265 ,0.59988 ,5.88605 
260 ,54.0705 ,1.38479 ,0.59988 ,5.88605 
261 ,54.2629 ,1.38669 ,0.56224 ,5.51668 
262 ,54.4710 ,1.38869 ,0.57251 ,5.61742 
263 ,54.6790 ,1.39087 ,0.54855 ,5.38237 
264 ,54.8712 ,1.39278 ,0.55197 ,5.41595 
265 ,55.0792 ,1.39484 ,0.51433 ,5.04659 
266 ,55.2716 ,1.39679 ,0.52459 ,5.14732 
267 ,55.4950 ,1.39895 ,0.49380 ,4.84512 
268 ,55.7035 ,1.40108 ,0.49380 ,4.84512 
269 ,55.9113 ,1.40320 ,0.49722 ,4.87870 
270 ,56.1197 ,1.40519 ,0.45273 ,4.44218 
271 ,56.3438 ,1.40746 ,0.44588 ,4.37502 
272 ,56.5515 ,1.40953 ,0.44588 ,4.37502 
273 ,56.7599 ,1.41172 ,0.41166 ,4.03924 
274 ,56.9681 ,1.41367 ,0.41851 ,4.10640 
275 ,57.2079 ,1.41599 ,0.40140 ,3.93850 
276 ,57.4156 ,1.41819 ,0.38771 ,3.80419 
277 ,57.6083 ,1.42016 ,0.39797 ,3.90493 
278 ,57.8321 ,1.42239 ,0.36375 ,3.56914 
279 ,58.0565 ,1.42460 ,0.34322 ,3.36767 
280 ,58.2485 ,1.42651 ,0.35691 ,3.50199 
281 ,58.4568 ,1.42862 ,0.31926 ,3.13263 
282 ,58.6648 ,1.43063 ,0.31926 ,3.13263 
283 ,58.8728 ,1.43270 ,0.29873 ,2.93116 
284 ,59.1126 ,1.43517 ,0.28847 ,2.83042 
285 ,59.3206 ,1.43715 ,0.27478 ,2.69611 
286 ,59.5130 ,1.43918 ,0.26793 ,2.62895 
287 ,59.7051 ,1.44107 ,0.25424 ,2.49464 
288 ,59.8967 ,1.44304 ,0.23371 ,2.29317 
289 ,60.1053 ,1.44506 ,0.23029 ,2.25959 
290 ,60.3293 ,1.44731 ,0.24398 ,2.39390 
291 ,60.5216 ,1.44929 ,0.18580 ,1.82307 
292 ,60.7457 ,1.45145 ,0.22002 ,2.15885 
293 ,60.9533 ,1.45352 ,0.17896 ,1.75592 
294 ,61.1619 ,1.45562 ,0.18238 ,1.78949 
295 ,61.3860 ,1.45785 ,0.16869 ,1.65518 
296 ,61.5939 ,1.46006 ,0.14473 ,1.42013 
297 ,61.8021 ,1.46207 ,0.14816 ,1.45371 
298 ,62.0102 ,1.46414 ,0.12762 ,1.25224 
299 ,62.2020 ,1.46610 ,0.10709 ,1.05077 
300 ,62.4103 ,1.46808 ,0.11393 ,1.11793 
301 ,62.6024 ,1.47006 ,0.08656 ,0.84930 
302 ,62.8105 ,1.47209 ,0.09340 ,0.91646 
303 ,63.0186 ,1.47426 ,0.06260 ,0.61425 
304 ,63.2262 ,1.47637 ,0.05234 ,0.51352 
305 ,63.4347 ,1.47840 ,0.04549 ,0.44636 
306 ,63.6427 ,1.48047 ,0.03180 ,0.31205 
307 ,63.8510 ,1.48255 ,0.03522 ,0.34563 
308 ,64.0429 ,1.48454 ,0.00100 ,0.00984 
309 ,64.2351 ,1.48640 ,0.00443 ,0.04342 
310 ,64.4271 ,1.48831 ,0.00785 ,0.07700 
311 ,64.6031 ,1.49019 ,-0.02637 ,-0.25878 
312 ,64.7950 ,1.49214 ,-0.02980 ,-0.29236 
313 ,64.9873 ,1.49388 ,-0.01953 ,-0.19163 
314 ,65.1951 ,1.49598 ,-0.05717 ,-0.56099 
315 ,65.3874 ,1.49793 ,-0.03322 ,-0.32594 
316 ,65.6117 ,1.50016 ,-0.08113 ,-0.79604 
317 ,65.8358 ,1.50229 ,-0.09140 ,-0.89677 
318 ,66.0437 ,1.50442 ,-0.07771 ,-0.76246 
319 ,66.2359 ,1.50635 ,-0.09482 ,-0.93035 
320 ,66.4279 ,1.50835 ,-0.09482 ,-0.93035 
321 ,66.6199 ,1.51025 ,-0.12562 ,-1.23255 
322 ,66.8121 ,1.51210 ,-0.12219 ,-1.19898 
323 ,66.9881 ,1.51405 ,-0.12562 ,-1.23255 
324 ,67.1803 ,1.51586 ,-0.14957 ,-1.46760 
325 ,67.4044 ,1.51804 ,-0.15299 ,-1.50118 
326 ,67.6123 ,1.52009 ,-0.18379 ,-1.80338 
327 ,67.8365 ,1.52234 ,-0.19064 ,-1.87054 
328 ,68.0447 ,1.52449 ,-0.17695 ,-1.73623 
329 ,68.2527 ,1.52647 ,-0.20433 ,-2.00485 
330 ,68.4608 ,1.52864 ,-0.21117 ,-2.07201 
331 ,68.6526 ,1.53054 ,-0.21802 ,-2.13917 
332 ,68.8449 ,1.53246 ,-0.22486 ,-2.20632 
333 ,69.0367 ,1.53435 ,-0.24881 ,-2.44137 
334 ,69.2452 ,1.53642 ,-0.25224 ,-2.47495 
335 ,69.4530 ,1.53845 ,-0.27619 ,-2.71000 
336 ,69.6615 ,1.54062 ,-0.27961 ,-2.74358 
337 ,69.8850 ,1.54281 ,-0.27961 ,-2.74358 
338 ,70.1257 ,1.54505 ,-0.31384 ,-3.07936 
339 ,70.3337 ,1.54736 ,-0.30015 ,-2.94505 
340 ,70.5577 ,1.54956 ,-0.31726 ,-3.11294 
341 ,70.7662 ,1.55167 ,-0.32068 ,-3.14652 
342 ,70.9737 ,1.55368 ,-0.35490 ,-3.48230 
343 ,71.1822 ,1.55584 ,-0.34806 ,-3.41514 
344 ,71.3901 ,1.55791 ,-0.35148 ,-3.44872 
345 ,71.5981 ,1.55992 ,-0.38228 ,-3.75093 
346 ,71.7901 ,1.56190 ,-0.37201 ,-3.65019 
347 ,71.9823 ,1.56383 ,-0.39597 ,-3.88524 
348 ,72.2063 ,1.56603 ,-0.39255 ,-3.85166 
349 ,72.4145 ,1.56811 ,-0.42335 ,-4.15387 
350 ,72.6068 ,1.57004 ,-0.41992 ,-4.12029 
351 ,72.8308 ,1.57228 ,-0.43703 ,-4.28818 
352 ,73.0390 ,1.57436 ,-0.44730 ,-4.38891 
353 ,73.2465 ,1.57657 ,-0.44388 ,-4.35534 
354 ,73.4391 ,1.57840 ,-0.46783 ,-4.59038 
355 ,73.6629 ,1.58057 ,-0.46441 ,-4.55681 
356 ,73.8552 ,1.58256 ,-0.49521 ,-4.85901 
357 ,74.0472 ,1.58442 ,-0.48494 ,-4.75828 
358 ,74.2552 ,1.58652 ,-0.50890 ,-4.99332 
359 ,74.4794 ,1.58877 ,-0.49863 ,-4.89259 
360 ,74.6876 ,1.59089 ,-0.52259 ,-5.12764 
361 ,74.8956 ,1.59301 ,-0.53970 ,-5.29553 
362 ,75.0878 ,1.59487 ,-0.53285 ,-5.22837 
363 ,75.3117 ,1.59704 ,-0.54997 ,-5.39626 
364 ,75.5039 ,1.59913 ,-0.55681 ,-5.46342 
365 ,75.6960 ,1.60095 ,-0.58077 ,-5.69847 
366 ,75.9039 ,1.60306 ,-0.57392 ,-5.63131 
367 ,76.1121 ,1.60509 ,-0.60130 ,-5.89994 
368 ,76.3202 ,1.60713 ,-0.60472 ,-5.93352 
369 ,76.5120 ,1.60911 ,-0.62183 ,-6.10141 
370 ,76.7363 ,1.61124 ,-0.61499 ,-6.03425 
371 ,76.9445 ,1.61344 ,-0.62183 ,-6.10141 
372 ,77.1524 ,1.61547 ,-0.64579 ,-6.33646 
373 ,77.3605 ,1.61755 ,-0.63894 ,-6.26930 
374 ,77.5847 ,1.61978 ,-0.64921 ,-6.37003 
375 ,77.7927 ,1.62190 ,-0.67316 ,-6.60508 
376 ,78.0009 ,1.62398 ,-0.66974 ,-6.57150 
377 ,78.2244 ,1.62621 ,-0.68685 ,-6.73940 
378 ,78.4325 ,1.62825 ,-0.70739 ,-6.94086 
379 ,78.6571 ,1.63041 ,-0.71081 ,-6.97444 
380 ,78.8973 ,1.63294 ,-0.72450 ,-7.10876 
381 ,79.1051 ,1.63501 ,-0.72450 ,-7.10876 
382 ,79.3133 ,1.63710 ,-0.74845 ,-7.34380 
383 ,79.5376 ,1.63928 ,-0.74503 ,-7.31023 
384 ,79.7616 ,1.64156 ,-0.75872 ,-7.44454 
385 ,79.9536 ,1.64350 ,-0.78610 ,-7.71317 
386 ,80.1458 ,1.64542 ,-0.78267 ,-7.67959 
387 ,80.3535 ,1.64745 ,-0.78610 ,-7.71317 
388 ,80.5459 ,1.64943 ,-0.79294 ,-7.78032 
389 ,80.7541 ,1.65147 ,-0.81005 ,-7.94821 
390 ,80.9617 ,1.65361 ,-0.79294 ,-7.78032 
391 ,81.1703 ,1.65568 ,-0.83058 ,-8.14968 
392 ,81.3778 ,1.65774 ,-0.83401 ,-8.18326 
393 ,81.6020 ,1.66004 ,-0.84427 ,-8.28400 
394 ,81.7940 ,1.66198 ,-0.86823 ,-8.51904 
395 ,81.9860 ,1.66399 ,-0.85454 ,-8.38473 
396 ,82.1784 ,1.66581 ,-0.88534 ,-8.68694 
397 ,82.3710 ,1.66766 ,-0.88534 ,-8.68694 
398 ,82.5788 ,1.66969 ,-0.89218 ,-8.75409 
399 ,82.7868 ,1.67180 ,-0.88534 ,-8.68694 
400 ,82.9949 ,1.67383 ,-0.90929 ,-8.92198 
401 ,83.2026 ,1.67599 ,-0.90245 ,-8.85483 
402 ,83.4110 ,1.67807 ,-0.93325 ,-9.15703 
403 ,83.6192 ,1.68018 ,-0.92640 ,-9.08988 
404 ,83.8432 ,1.68233 ,-0.92983 ,-9.12345 
405 ,84.0672 ,1.68457 ,-0.95378 ,-9.35850 
406 ,84.2594 ,1.68657 ,-0.95378 ,-9.35850 
407 ,84.4672 ,1.68862 ,-0.98116 ,-9.62713 
408 ,84.6756 ,1.69066 ,-0.99143 ,-9.72786 
409 ,84.9157 ,1.69295 ,-0.97774 ,-9.59355 
410 ,85.1236 ,1.69514 ,-0.99143 ,-9.72786 
411 ,85.3318 ,1.69722 ,-1.02565 ,-10.06365 
412 ,85.5398 ,1.69928 ,-1.00854 ,-9.89576 
413 ,85.7321 ,1.70126 ,-1.03249 ,-10.13080 
414 ,85.9400 ,1.70333 ,-1.02565 ,-10.06365 
415 ,86.1641 ,1.70556 ,-1.04276 ,-10.23154 
416 ,86.3562 ,1.70750 ,-1.05302 ,-10.33227 
417 ,86.5799 ,1.70967 ,-1.04618 ,-10.26512 
418 ,86.7724 ,1.71167 ,-1.08040 ,-10.60090 
419 ,86.9965 ,1.71387 ,-1.08040 ,-10.60090 
420 ,87.2047 ,1.71592 ,-1.07698 ,-10.56732 
421 ,87.4125 ,1.71806 ,-1.10778 ,-10.86953 
422 ,87.6366 ,1.72022 ,-1.10093 ,-10.80237 
423 ,87.8769 ,1.72261 ,-1.10778 ,-10.86953 
424 ,88.0690 ,1.72477 ,-1.11805 ,-10.97026 
425 ,88.2768 ,1.72668 ,-1.13516 ,-11.13815 
426 ,88.4851 ,1.72873 ,-1.13173 ,-11.10457 
427 ,88.6772 ,1.73069 ,-1.15569 ,-11.33962 
428 ,88.8693 ,1.73270 ,-1.16253 ,-11.40678 
429 ,89.0613 ,1.73456 ,-1.15911 ,-11.37320 
430 ,89.2534 ,1.73646 ,-1.17622 ,-11.54109 
431 ,89.4615 ,1.73851 ,-1.16938 ,-11.47394 
432 ,89.6695 ,1.74064 ,-1.20018 ,-11.77614 
433 ,89.8615 ,1.74255 ,-1.18307 ,-11.60825 
434 ,90.0859 ,1.74471 ,-1.21044 ,-11.87688 
435 ,90.3099 ,1.74701 ,-1.21729 ,-11.94403 
436 ,90.5020 ,1.74895 ,-1.21044 ,-11.87688 
437 ,90.7260 ,1.75115 ,-1.24467 ,-12.21266 
438 ,90.9018 ,1.75306 ,-1.24467 ,-12.21266 
439 ,91.1100 ,1.75501 ,-1.25835 ,-12.34697 
440 ,91.3018 ,1.75698 ,-1.25151 ,-12.27981 
441 ,91.5104 ,1.75898 ,-1.27204 ,-12.48128 
442 ,91.7345 ,1.76124 ,-1.26862 ,-12.44771 
443 ,91.9423 ,1.76329 ,-1.27889 ,-12.54844 
444 ,92.1982 ,1.76586 ,-1.29258 ,-12.68275 
445 ,92.3906 ,1.76783 ,-1.31653 ,-12.91780 
446 ,92.5986 ,1.76988 ,-1.29258 ,-12.68275 
447 ,92.7908 ,1.77182 ,-1.33022 ,-13.05212 
448 ,92.9985 ,1.77382 ,-1.30969 ,-12.85065 
449 ,93.2066 ,1.77596 ,-1.34733 ,-13.22001 
450 ,93.4152 ,1.77803 ,-1.34049 ,-13.15285 
451 ,93.6552 ,1.78032 ,-1.34049 ,-13.15285 
452 ,93.8793 ,1.78271 ,-1.35760 ,-13.32074 
453 ,94.0874 ,1.78482 ,-1.36786 ,-13.42148 
454 ,94.3113 ,1.78698 ,-1.38497 ,-13.58937 
455 ,94.5195 ,1.78911 ,-1.36786 ,-13.42148 
456 ,94.7437 ,1.79126 ,-1.38840 ,-13.62295 
457 ,94.9515 ,1.79341 ,-1.39182 ,-13.65653 
458 ,95.1598 ,1.79549 ,-1.39866 ,-13.72368 
459 ,95.3679 ,1.79755 ,-1.42946 ,-14.02589 
460 ,95.5600 ,1.79954 ,-1.41577 ,-13.89157 
