Data stamp = , 16-05-2022 15:57:06 540

Calibration Values: 
Slope = , 26.54 , g/V 
Offset Voltage at no contact = , -0.501760 , V 

No , Time , Stage Position ,   Mass , Force 
   ,  (s) ,      (mm)      ,   (g)  , (mN)  

1 ,0.0000 ,0.84967 ,5.33274 ,52.32484 
2 ,0.4433 ,0.85019 ,5.32932 ,52.29126 
3 ,1.2599 ,0.85484 ,5.35327 ,52.52631 
4 ,1.5158 ,0.85951 ,5.32932 ,52.29126 
5 ,1.7879 ,0.86217 ,5.27456 ,51.75401 
6 ,2.0440 ,0.86477 ,5.25061 ,51.51896 
7 ,2.3161 ,0.86746 ,5.24034 ,51.41822 
8 ,2.5882 ,0.87018 ,5.22323 ,51.25033 
9 ,2.8763 ,0.87299 ,5.17874 ,50.81381 
10 ,3.1484 ,0.87586 ,5.15821 ,50.61234 
11 ,3.4205 ,0.87845 ,5.13083 ,50.34372 
12 ,3.6927 ,0.88118 ,5.11714 ,50.20940 
13 ,3.9649 ,0.88399 ,5.06239 ,49.67215 
14 ,4.2209 ,0.88654 ,5.04528 ,49.50426 
15 ,4.4770 ,0.88914 ,5.03159 ,49.36995 
16 ,4.7652 ,0.89188 ,5.01106 ,49.16848 
17 ,5.0532 ,0.89476 ,4.95288 ,48.59764 
18 ,5.3253 ,0.89756 ,4.92550 ,48.32902 
19 ,5.5974 ,0.90026 ,4.91523 ,48.22828 
20 ,5.8535 ,0.90280 ,4.89812 ,48.06039 
21 ,6.1096 ,0.90539 ,4.86732 ,47.75819 
22 ,6.3817 ,0.90807 ,4.83652 ,47.45598 
23 ,6.6538 ,0.91077 ,4.80573 ,47.15378 
24 ,6.9100 ,0.91342 ,4.77493 ,46.85157 
25 ,7.1341 ,0.91574 ,4.76124 ,46.71726 
26 ,7.4062 ,0.91832 ,4.73386 ,46.44863 
27 ,7.5983 ,0.92043 ,4.72359 ,46.34790 
28 ,7.8064 ,0.92244 ,4.68253 ,45.94496 
29 ,8.0145 ,0.92454 ,4.68253 ,45.94496 
30 ,8.2226 ,0.92661 ,4.64488 ,45.57560 
31 ,8.4467 ,0.92883 ,4.60724 ,45.20624 
32 ,8.6548 ,0.93097 ,4.61408 ,45.27339 
33 ,8.8629 ,0.93304 ,4.57986 ,44.93761 
34 ,9.0710 ,0.93511 ,4.56275 ,44.76972 
35 ,9.2790 ,0.93716 ,4.54222 ,44.56825 
36 ,9.5032 ,0.93944 ,4.49773 ,44.13173 
37 ,9.7113 ,0.94145 ,4.49773 ,44.13173 
38 ,9.9194 ,0.94356 ,4.47720 ,43.93026 
39 ,10.1115 ,0.94552 ,4.45666 ,43.72879 
40 ,10.3195 ,0.94757 ,4.43955 ,43.56090 
41 ,10.5275 ,0.94966 ,4.40191 ,43.19154 
42 ,10.7675 ,0.95199 ,4.38480 ,43.02365 
43 ,10.9916 ,0.95435 ,4.38138 ,42.99007 
44 ,11.2157 ,0.95655 ,4.35742 ,42.75502 
45 ,11.4240 ,0.95856 ,4.31636 ,42.35208 
46 ,11.6320 ,0.96063 ,4.32320 ,42.41924 
47 ,11.8401 ,0.96273 ,4.28556 ,42.04988 
48 ,12.0323 ,0.96481 ,4.25818 ,41.78125 
49 ,12.2403 ,0.96678 ,4.24107 ,41.61336 
50 ,12.4484 ,0.96884 ,4.22053 ,41.41189 
51 ,12.6725 ,0.97098 ,4.21369 ,41.34473 
52 ,12.8806 ,0.97321 ,4.18974 ,41.10968 
53 ,13.0727 ,0.97524 ,4.15209 ,40.74032 
54 ,13.2806 ,0.97719 ,4.13840 ,40.60601 
55 ,13.4727 ,0.97923 ,4.11787 ,40.40454 
56 ,13.6809 ,0.98112 ,4.09734 ,40.20307 
57 ,13.8890 ,0.98321 ,4.09049 ,40.13591 
58 ,14.0810 ,0.98525 ,4.06996 ,39.93444 
59 ,14.2893 ,0.98728 ,4.03916 ,39.63224 
60 ,14.4812 ,0.98932 ,4.03916 ,39.63224 
61 ,14.6734 ,0.99121 ,3.99809 ,39.22930 
62 ,14.8814 ,0.99316 ,3.99125 ,39.16214 
63 ,15.1055 ,0.99542 ,3.96729 ,38.92709 
64 ,15.3137 ,0.99749 ,3.94676 ,38.72562 
65 ,15.5057 ,0.99942 ,3.90912 ,38.35626 
66 ,15.7137 ,1.00144 ,3.91596 ,38.42342 
67 ,15.9059 ,1.00345 ,3.87147 ,37.98690 
68 ,16.1299 ,1.00564 ,3.86805 ,37.95332 
69 ,16.3380 ,1.00775 ,3.85436 ,37.81901 
70 ,16.5462 ,1.00978 ,3.82014 ,37.48323 
71 ,16.7542 ,1.01185 ,3.80645 ,37.34891 
72 ,16.9624 ,1.01393 ,3.76539 ,36.94597 
73 ,17.1704 ,1.01605 ,3.76539 ,36.94597 
74 ,17.3785 ,1.01813 ,3.74485 ,36.74450 
75 ,17.5866 ,1.02016 ,3.73459 ,36.64377 
76 ,17.7947 ,1.02229 ,3.71405 ,36.44230 
77 ,18.0028 ,1.02437 ,3.66614 ,35.97220 
78 ,18.2109 ,1.02650 ,3.66957 ,36.00578 
79 ,18.4189 ,1.02864 ,3.65246 ,35.83789 
80 ,18.6269 ,1.03065 ,3.62166 ,35.53569 
81 ,18.8351 ,1.03268 ,3.61823 ,35.50211 
82 ,19.0431 ,1.03482 ,3.56348 ,34.96485 
83 ,19.2512 ,1.03677 ,3.56348 ,34.96485 
84 ,19.4913 ,1.03919 ,3.54637 ,34.79696 
85 ,19.7154 ,1.04145 ,3.53610 ,34.69623 
86 ,19.9236 ,1.04355 ,3.49161 ,34.25971 
87 ,20.1156 ,1.04550 ,3.49504 ,34.29329 
88 ,20.3237 ,1.04757 ,3.45397 ,33.89035 
89 ,20.5318 ,1.04964 ,3.44713 ,33.82319 
90 ,20.7399 ,1.05174 ,3.41975 ,33.55457 
91 ,20.9480 ,1.05381 ,3.39237 ,33.28594 
92 ,21.1240 ,1.05572 ,3.38210 ,33.18520 
93 ,21.4281 ,1.05814 ,3.37184 ,33.08447 
94 ,21.6361 ,1.06069 ,3.35473 ,32.91658 
95 ,21.8122 ,1.06263 ,3.32051 ,32.58080 
96 ,22.0203 ,1.06451 ,3.29997 ,32.37933 
97 ,22.2124 ,1.06652 ,3.29997 ,32.37933 
98 ,22.4205 ,1.06852 ,3.27602 ,32.14428 
99 ,22.6126 ,1.07049 ,3.26575 ,32.04354 
100 ,22.8365 ,1.07266 ,3.23837 ,31.77492 
101 ,23.0448 ,1.07474 ,3.21442 ,31.53987 
102 ,23.2527 ,1.07680 ,3.20073 ,31.40555 
103 ,23.4610 ,1.07893 ,3.15966 ,31.00262 
104 ,23.6530 ,1.08095 ,3.14597 ,30.86830 
105 ,23.8289 ,1.08272 ,3.12202 ,30.63325 
106 ,24.0210 ,1.08463 ,3.10833 ,30.49894 
107 ,24.2132 ,1.08656 ,3.09806 ,30.39821 
108 ,24.4211 ,1.08855 ,3.07069 ,30.12958 
109 ,24.6133 ,1.09053 ,3.06726 ,30.09600 
110 ,24.8215 ,1.09255 ,3.02620 ,29.69306 
111 ,25.0294 ,1.09470 ,3.00909 ,29.52517 
112 ,25.2216 ,1.09665 ,2.99882 ,29.42444 
113 ,25.4296 ,1.09860 ,2.99198 ,29.35728 
114 ,25.6377 ,1.10067 ,2.95776 ,29.02150 
115 ,25.8458 ,1.10271 ,2.95091 ,28.95434 
116 ,26.0537 ,1.10483 ,2.93722 ,28.82003 
117 ,26.2458 ,1.10690 ,2.90300 ,28.48424 
118 ,26.4540 ,1.10884 ,2.89958 ,28.45066 
119 ,26.6460 ,1.11088 ,2.86193 ,28.08130 
120 ,26.8542 ,1.11281 ,2.86878 ,28.14846 
121 ,27.0623 ,1.11490 ,2.84140 ,27.87983 
122 ,27.2863 ,1.11713 ,2.81745 ,27.64479 
123 ,27.4945 ,1.11921 ,2.81060 ,27.57763 
124 ,27.7025 ,1.12134 ,2.77980 ,27.27542 
125 ,27.9105 ,1.12340 ,2.76954 ,27.17469 
126 ,28.1187 ,1.12550 ,2.73874 ,26.87248 
127 ,28.3269 ,1.12757 ,2.72505 ,26.73817 
128 ,28.5188 ,1.12956 ,2.71820 ,26.67101 
129 ,28.7269 ,1.13153 ,2.69767 ,26.46954 
130 ,28.9350 ,1.13366 ,2.66687 ,26.16734 
131 ,29.1431 ,1.13570 ,2.64292 ,25.93229 
132 ,29.3512 ,1.13778 ,2.65318 ,26.03303 
133 ,29.5592 ,1.13994 ,2.60527 ,25.56293 
134 ,29.7676 ,1.14194 ,2.60527 ,25.56293 
135 ,29.9754 ,1.14402 ,2.58816 ,25.39504 
136 ,30.1835 ,1.14612 ,2.55394 ,25.05926 
137 ,30.3916 ,1.14818 ,2.55736 ,25.09283 
138 ,30.6156 ,1.15042 ,2.52314 ,24.75705 
139 ,30.8238 ,1.15255 ,2.49576 ,24.48842 
140 ,31.0319 ,1.15465 ,2.49918 ,24.52200 
141 ,31.2400 ,1.15669 ,2.44785 ,24.01833 
142 ,31.4481 ,1.15879 ,2.46154 ,24.15264 
143 ,31.6400 ,1.16084 ,2.43416 ,23.88402 
144 ,31.8323 ,1.16272 ,2.42048 ,23.74970 
145 ,32.0403 ,1.16467 ,2.38968 ,23.44750 
146 ,32.2484 ,1.16677 ,2.38968 ,23.44750 
147 ,32.4565 ,1.16887 ,2.34861 ,23.04456 
148 ,32.6648 ,1.17096 ,2.33834 ,22.94382 
149 ,32.8887 ,1.17311 ,2.33492 ,22.91024 
150 ,33.0966 ,1.17524 ,2.30754 ,22.64162 
151 ,33.3049 ,1.17730 ,2.29043 ,22.47373 
152 ,33.5130 ,1.17938 ,2.27332 ,22.30584 
153 ,33.7210 ,1.18145 ,2.24252 ,22.00363 
154 ,33.9290 ,1.18361 ,2.24252 ,22.00363 
155 ,34.1372 ,1.18563 ,2.20830 ,21.66785 
156 ,34.3453 ,1.18769 ,2.20830 ,21.66785 
157 ,34.5532 ,1.18976 ,2.18777 ,21.46638 
158 ,34.7614 ,1.19190 ,2.15697 ,21.16417 
159 ,34.9694 ,1.19397 ,2.14670 ,21.06344 
160 ,35.1775 ,1.19607 ,2.10906 ,20.69408 
161 ,35.4016 ,1.19826 ,2.11248 ,20.72766 
162 ,35.6259 ,1.20049 ,2.09879 ,20.59334 
163 ,35.8338 ,1.20261 ,2.05430 ,20.15682 
164 ,36.0420 ,1.20467 ,2.04746 ,20.08967 
165 ,36.2500 ,1.20677 ,2.04746 ,20.08967 
166 ,36.4742 ,1.20888 ,1.99955 ,19.61957 
167 ,36.6663 ,1.21105 ,1.99270 ,19.55241 
168 ,36.8422 ,1.21285 ,1.97902 ,19.41810 
169 ,37.0503 ,1.21477 ,1.96190 ,19.25021 
170 ,37.2743 ,1.21696 ,1.92768 ,18.91443 
171 ,37.4826 ,1.21907 ,1.93111 ,18.94801 
172 ,37.6905 ,1.22121 ,1.91742 ,18.81369 
173 ,37.8986 ,1.22321 ,1.89004 ,18.54507 
174 ,38.1228 ,1.22540 ,1.88319 ,18.47791 
175 ,38.3308 ,1.22760 ,1.85924 ,18.24286 
176 ,38.5389 ,1.22964 ,1.83186 ,17.97423 
177 ,38.7470 ,1.23174 ,1.82502 ,17.90708 
178 ,38.9551 ,1.23379 ,1.79764 ,17.63845 
179 ,39.1633 ,1.23592 ,1.79422 ,17.60487 
180 ,39.3713 ,1.23799 ,1.77369 ,17.40340 
181 ,39.5794 ,1.24006 ,1.74289 ,17.10120 
182 ,39.8035 ,1.24216 ,1.74289 ,17.10120 
183 ,40.0115 ,1.24436 ,1.72235 ,16.89973 
184 ,40.2036 ,1.24641 ,1.68813 ,16.56395 
185 ,40.4118 ,1.24837 ,1.67786 ,16.46321 
186 ,40.6199 ,1.25055 ,1.65733 ,16.26174 
187 ,40.8439 ,1.25259 ,1.66760 ,16.36248 
188 ,41.0520 ,1.25481 ,1.63338 ,16.02669 
189 ,41.2600 ,1.25687 ,1.61627 ,15.85880 
190 ,41.4683 ,1.25901 ,1.62311 ,15.92596 
191 ,41.6762 ,1.26095 ,1.56493 ,15.35513 
192 ,41.8844 ,1.26312 ,1.57862 ,15.48944 
193 ,42.0924 ,1.26519 ,1.54440 ,15.15366 
194 ,42.3004 ,1.26730 ,1.51360 ,14.85145 
195 ,42.4926 ,1.26931 ,1.53071 ,15.01934 
196 ,42.7006 ,1.27127 ,1.49649 ,14.68356 
197 ,42.9247 ,1.27347 ,1.47938 ,14.51567 
198 ,43.1328 ,1.27558 ,1.46227 ,14.34778 
199 ,43.3409 ,1.27769 ,1.43489 ,14.07915 
200 ,43.5490 ,1.27969 ,1.44516 ,14.17989 
201 ,43.7731 ,1.28199 ,1.41094 ,13.84410 
202 ,43.9811 ,1.28411 ,1.39383 ,13.67621 
203 ,44.1892 ,1.28621 ,1.38698 ,13.60906 
204 ,44.3973 ,1.28820 ,1.34591 ,13.20612 
205 ,44.6054 ,1.29029 ,1.35276 ,13.27327 
206 ,44.8136 ,1.29237 ,1.31854 ,12.93749 
207 ,45.0216 ,1.29447 ,1.30827 ,12.83675 
208 ,45.2297 ,1.29657 ,1.31512 ,12.90391 
209 ,45.4377 ,1.29864 ,1.27063 ,12.46739 
210 ,45.6458 ,1.30065 ,1.26720 ,12.43381 
211 ,45.8540 ,1.30278 ,1.23641 ,12.13161 
212 ,46.0621 ,1.30488 ,1.22272 ,11.99730 
213 ,46.2704 ,1.30699 ,1.21929 ,11.96372 
214 ,46.4782 ,1.30900 ,1.19192 ,11.69509 
215 ,46.6864 ,1.31106 ,1.18507 ,11.62794 
216 ,46.8944 ,1.31313 ,1.13716 ,11.15784 
217 ,47.1025 ,1.31528 ,1.14743 ,11.25857 
218 ,47.3265 ,1.31743 ,1.14401 ,11.22500 
219 ,47.5346 ,1.31955 ,1.09952 ,10.78848 
220 ,47.7428 ,1.32161 ,1.09610 ,10.75490 
221 ,47.9509 ,1.32372 ,1.08241 ,10.62059 
222 ,48.1590 ,1.32579 ,1.04819 ,10.28480 
223 ,48.3669 ,1.32791 ,1.05845 ,10.38554 
224 ,48.5752 ,1.32993 ,1.02423 ,10.04976 
225 ,48.7833 ,1.33202 ,1.03108 ,10.11691 
226 ,48.9912 ,1.33410 ,1.00370 ,9.84829 
227 ,49.1993 ,1.33619 ,0.99001 ,9.71397 
228 ,49.4074 ,1.33828 ,0.98317 ,9.64682 
229 ,49.6155 ,1.34032 ,0.95237 ,9.34461 
230 ,49.8236 ,1.34250 ,0.95579 ,9.37819 
231 ,50.0315 ,1.34448 ,0.92841 ,9.10956 
232 ,50.2397 ,1.34661 ,0.91472 ,8.97525 
233 ,50.4479 ,1.34871 ,0.89077 ,8.74020 
234 ,50.6719 ,1.35092 ,0.87023 ,8.53873 
235 ,50.8800 ,1.35299 ,0.87708 ,8.60589 
236 ,51.0882 ,1.35503 ,0.84970 ,8.33726 
237 ,51.2962 ,1.35719 ,0.82232 ,8.06864 
238 ,51.5043 ,1.35929 ,0.82917 ,8.13579 
239 ,51.7123 ,1.36137 ,0.79837 ,7.83359 
240 ,51.9205 ,1.36341 ,0.79495 ,7.80001 
241 ,52.1285 ,1.36550 ,0.79495 ,7.80001 
242 ,52.3527 ,1.36765 ,0.76072 ,7.46423 
243 ,52.5607 ,1.36980 ,0.75730 ,7.43065 
244 ,52.7528 ,1.37184 ,0.73335 ,7.19560 
245 ,52.9610 ,1.37386 ,0.72992 ,7.16202 
246 ,53.1691 ,1.37587 ,0.69570 ,6.82624 
247 ,53.3930 ,1.37802 ,0.67859 ,6.65835 
248 ,53.6011 ,1.38017 ,0.67517 ,6.62477 
249 ,53.7931 ,1.38226 ,0.66148 ,6.49046 
250 ,54.0013 ,1.38428 ,0.64437 ,6.32256 
251 ,54.2095 ,1.38628 ,0.63410 ,6.22183 
252 ,54.4175 ,1.38837 ,0.61357 ,6.02036 
253 ,54.6256 ,1.39042 ,0.61357 ,6.02036 
254 ,54.8337 ,1.39255 ,0.58619 ,5.75173 
255 ,55.0417 ,1.39462 ,0.59646 ,5.85247 
256 ,55.2499 ,1.39667 ,0.56908 ,5.58384 
257 ,55.4580 ,1.39882 ,0.55539 ,5.44953 
258 ,55.6501 ,1.40078 ,0.54855 ,5.38237 
259 ,55.8583 ,1.40280 ,0.53144 ,5.21448 
260 ,56.0502 ,1.40481 ,0.51775 ,5.08017 
261 ,56.2743 ,1.40692 ,0.49722 ,4.87870 
262 ,56.4824 ,1.40899 ,0.49380 ,4.84512 
263 ,56.6905 ,1.41106 ,0.46984 ,4.61007 
264 ,56.8826 ,1.41313 ,0.47326 ,4.64365 
265 ,57.0907 ,1.41507 ,0.44246 ,4.34144 
266 ,57.3147 ,1.41724 ,0.44588 ,4.37502 
267 ,57.5229 ,1.41940 ,0.43220 ,4.24071 
268 ,57.7309 ,1.42148 ,0.40824 ,4.00566 
269 ,57.9389 ,1.42362 ,0.40140 ,3.93850 
270 ,58.1471 ,1.42562 ,0.37744 ,3.70346 
271 ,58.3551 ,1.42766 ,0.36718 ,3.60272 
272 ,58.5634 ,1.42979 ,0.38086 ,3.73703 
273 ,58.7713 ,1.43187 ,0.34322 ,3.36767 
274 ,58.9794 ,1.43394 ,0.33980 ,3.33410 
275 ,59.1876 ,1.43604 ,0.31242 ,3.06547 
276 ,59.3955 ,1.43813 ,0.30215 ,2.96473 
277 ,59.6197 ,1.44036 ,0.30558 ,2.99831 
278 ,59.8438 ,1.44250 ,0.27820 ,2.72969 
279 ,60.0519 ,1.44463 ,0.26109 ,2.56179 
280 ,60.2600 ,1.44680 ,0.26109 ,2.56179 
281 ,60.4681 ,1.44884 ,0.23371 ,2.29317 
282 ,60.6761 ,1.45100 ,0.22344 ,2.19243 
283 ,60.8842 ,1.45299 ,0.22344 ,2.19243 
284 ,61.0924 ,1.45506 ,0.19949 ,1.95738 
285 ,61.3003 ,1.45715 ,0.20976 ,2.05812 
286 ,61.4924 ,1.45922 ,0.17553 ,1.72234 
287 ,61.7006 ,1.46116 ,0.18580 ,1.82307 
288 ,61.9086 ,1.46325 ,0.14131 ,1.38655 
289 ,62.1167 ,1.46531 ,0.15158 ,1.48729 
290 ,62.3248 ,1.46739 ,0.14131 ,1.38655 
291 ,62.5330 ,1.46951 ,0.11393 ,1.11793 
292 ,62.7410 ,1.47159 ,0.11393 ,1.11793 
293 ,62.9330 ,1.47368 ,0.08314 ,0.81572 
294 ,63.1412 ,1.47562 ,0.08314 ,0.81572 
295 ,63.3493 ,1.47761 ,0.06945 ,0.68141 
296 ,63.5574 ,1.47975 ,0.06260 ,0.61425 
297 ,63.7654 ,1.48178 ,0.03522 ,0.34563 
298 ,63.9735 ,1.48388 ,0.04891 ,0.47994 
299 ,64.1656 ,1.48592 ,0.02838 ,0.27847 
300 ,64.3737 ,1.48789 ,0.01469 ,0.14416 
301 ,64.5818 ,1.48996 ,-0.00926 ,-0.09089 
302 ,64.7738 ,1.49201 ,-0.02637 ,-0.25878 
303 ,64.9820 ,1.49397 ,-0.01611 ,-0.15805 
304 ,65.1900 ,1.49609 ,-0.04691 ,-0.46025 
305 ,65.3981 ,1.49815 ,-0.03322 ,-0.32594 
306 ,65.6062 ,1.50022 ,-0.05717 ,-0.56099 
307 ,65.8143 ,1.50229 ,-0.06402 ,-0.62814 
308 ,66.0224 ,1.50440 ,-0.08113 ,-0.79604 
309 ,66.2464 ,1.50652 ,-0.09140 ,-0.89677 
310 ,66.4545 ,1.50867 ,-0.11193 ,-1.09824 
311 ,66.6628 ,1.51080 ,-0.10851 ,-1.06466 
312 ,66.8546 ,1.51280 ,-0.12562 ,-1.23255 
313 ,67.0628 ,1.51477 ,-0.14273 ,-1.40045 
314 ,67.2709 ,1.51686 ,-0.16326 ,-1.60191 
315 ,67.4790 ,1.51895 ,-0.15642 ,-1.53476 
316 ,67.6712 ,1.52092 ,-0.18722 ,-1.83696 
317 ,67.8792 ,1.52291 ,-0.18379 ,-1.80338 
318 ,68.0873 ,1.52497 ,-0.20433 ,-2.00485 
319 ,68.2953 ,1.52711 ,-0.19064 ,-1.87054 
320 ,68.5195 ,1.52924 ,-0.23170 ,-2.27348 
321 ,68.7275 ,1.53142 ,-0.22828 ,-2.23990 
322 ,68.9516 ,1.53357 ,-0.20433 ,-2.00485 
323 ,69.1597 ,1.53572 ,-0.20775 ,-2.03843 
324 ,69.3678 ,1.53779 ,-0.21459 ,-2.10559 
325 ,69.5758 ,1.53985 ,-0.20433 ,-2.00485 
326 ,69.7840 ,1.54195 ,-0.21802 ,-2.13917 
327 ,69.9921 ,1.54403 ,-0.21802 ,-2.13917 
328 ,70.2001 ,1.54615 ,-0.22486 ,-2.20632 
329 ,70.3922 ,1.54817 ,-0.23855 ,-2.34064 
330 ,70.6004 ,1.55011 ,-0.23170 ,-2.27348 
331 ,70.7924 ,1.55218 ,-0.23855 ,-2.34064 
332 ,70.9843 ,1.55412 ,-0.22486 ,-2.20632 
333 ,71.1925 ,1.55603 ,-0.22486 ,-2.20632 
334 ,71.4007 ,1.55811 ,-0.23170 ,-2.27348 
335 ,71.6087 ,1.56028 ,-0.23513 ,-2.30706 
336 ,71.8168 ,1.56228 ,-0.23170 ,-2.27348 
337 ,72.0249 ,1.56437 ,-0.25566 ,-2.50853 
338 ,72.2329 ,1.56652 ,-0.23170 ,-2.27348 
339 ,72.4410 ,1.56858 ,-0.23855 ,-2.34064 
340 ,72.6491 ,1.57066 ,-0.25224 ,-2.47495 
341 ,72.8571 ,1.57263 ,0.62726 ,6.15467 
342 ,73.0653 ,1.57480 ,0.70597 ,6.92697 
343 ,73.2734 ,1.57692 ,0.78810 ,7.73285 
344 ,73.4814 ,1.57896 ,0.80179 ,7.86717 
345 ,73.6894 ,1.58105 ,0.80179 ,7.86717 
346 ,73.8976 ,1.58308 ,0.83259 ,8.16937 
347 ,74.1056 ,1.58525 ,0.81890 ,8.03506 
348 ,74.3138 ,1.58723 ,0.80521 ,7.90074 
349 ,74.5218 ,1.58935 ,0.79495 ,7.80001 
350 ,74.7300 ,1.59139 ,0.79495 ,7.80001 
351 ,74.9220 ,1.59344 ,0.78468 ,7.69927 
352 ,75.1300 ,1.59546 ,0.77784 ,7.63212 
353 ,75.3222 ,1.59744 ,0.78126 ,7.66570 
354 ,75.5304 ,1.59941 ,0.78810 ,7.73285 
355 ,75.7385 ,1.60149 ,0.80521 ,7.90074 
356 ,75.9466 ,1.60362 ,0.79495 ,7.80001 
357 ,76.1547 ,1.60566 ,0.82232 ,8.06864 
358 ,76.3627 ,1.60780 ,0.80521 ,7.90074 
359 ,76.5708 ,1.60980 ,0.81548 ,8.00148 
360 ,76.7789 ,1.61194 ,0.81206 ,7.96790 
361 ,76.9549 ,1.61381 ,0.80863 ,7.93432 
362 ,77.1630 ,1.61577 ,0.79495 ,7.80001 
363 ,77.3710 ,1.61786 ,0.78468 ,7.69927 
364 ,77.5952 ,1.62018 ,0.78468 ,7.69927 
365 ,77.7712 ,1.62197 ,0.76757 ,7.53138 
366 ,77.9794 ,1.62385 ,0.76757 ,7.53138 
367 ,78.1875 ,1.62595 ,0.74361 ,7.29633 
368 ,78.3955 ,1.62808 ,0.77099 ,7.56496 
369 ,78.5875 ,1.63012 ,0.74704 ,7.32991 
370 ,78.7956 ,1.63207 ,0.76757 ,7.53138 
371 ,79.0038 ,1.63417 ,0.76757 ,7.53138 
372 ,79.2120 ,1.63624 ,0.78468 ,7.69927 
373 ,79.4200 ,1.63835 ,0.76757 ,7.53138 
374 ,79.6120 ,1.64033 ,0.76415 ,7.49780 
375 ,79.8202 ,1.64229 ,0.75388 ,7.39707 
376 ,80.0124 ,1.64437 ,0.75046 ,7.36349 
377 ,80.2204 ,1.64634 ,0.74704 ,7.32991 
378 ,80.4125 ,1.64838 ,0.73677 ,7.22918 
379 ,80.6207 ,1.65027 ,0.74704 ,7.32991 
380 ,80.8446 ,1.65253 ,0.74704 ,7.32991 
381 ,81.0528 ,1.65459 ,0.74019 ,7.26276 
382 ,81.2608 ,1.65667 ,0.72650 ,7.12844 
383 ,81.4690 ,1.65876 ,0.71966 ,7.06129 
384 ,81.6610 ,1.66080 ,0.73677 ,7.22918 
385 ,81.8692 ,1.66282 ,0.73335 ,7.19560 
386 ,82.0771 ,1.66483 ,0.73677 ,7.22918 
387 ,82.2852 ,1.66689 ,0.71966 ,7.06129 
388 ,82.4933 ,1.66905 ,0.73335 ,7.19560 
389 ,82.7014 ,1.67110 ,0.70597 ,6.92697 
390 ,82.9095 ,1.67317 ,0.71281 ,6.99413 
391 ,83.1176 ,1.67524 ,0.70597 ,6.92697 
392 ,83.3257 ,1.67738 ,0.69570 ,6.82624 
393 ,83.5337 ,1.67944 ,0.70939 ,6.96055 
394 ,83.7418 ,1.68154 ,0.68886 ,6.75908 
395 ,83.9501 ,1.68362 ,0.70255 ,6.89340 
396 ,84.1579 ,1.68569 ,0.69570 ,6.82624 
397 ,84.3662 ,1.68775 ,0.69228 ,6.79266 
398 ,84.5742 ,1.68982 ,0.69570 ,6.82624 
399 ,84.7823 ,1.69190 ,0.67517 ,6.62477 
400 ,84.9903 ,1.69404 ,0.70255 ,6.89340 
401 ,85.1984 ,1.69607 ,0.68544 ,6.72550 
402 ,85.4065 ,1.69817 ,0.65806 ,6.45688 
403 ,85.6306 ,1.70030 ,0.67175 ,6.59119 
404 ,85.8387 ,1.70245 ,0.66148 ,6.49046 
405 ,86.0307 ,1.70439 ,0.66148 ,6.49046 
406 ,86.2228 ,1.70645 ,0.65464 ,6.42330 
407 ,86.4150 ,1.70836 ,0.64779 ,6.35614 
408 ,86.6229 ,1.71033 ,0.64779 ,6.35614 
409 ,86.8312 ,1.71241 ,0.66148 ,6.49046 
410 ,87.0392 ,1.71448 ,0.65121 ,6.38972 
411 ,87.2473 ,1.71655 ,0.64095 ,6.28899 
412 ,87.4715 ,1.71875 ,0.65464 ,6.42330 
413 ,87.6795 ,1.72088 ,0.63410 ,6.22183 
414 ,87.9036 ,1.72302 ,0.63753 ,6.25541 
415 ,88.1116 ,1.72522 ,0.64095 ,6.28899 
416 ,88.3357 ,1.72739 ,0.64095 ,6.28899 
417 ,88.5437 ,1.72954 ,0.61699 ,6.05394 
418 ,88.7519 ,1.73159 ,0.63753 ,6.25541 
419 ,88.9601 ,1.73369 ,0.61699 ,6.05394 
420 ,89.1682 ,1.73580 ,0.64437 ,6.32256 
421 ,89.3922 ,1.73787 ,0.64095 ,6.28899 
422 ,89.5842 ,1.74003 ,0.64779 ,6.35614 
423 ,89.7924 ,1.74201 ,0.66148 ,6.49046 
424 ,89.9845 ,1.74401 ,0.64437 ,6.32256 
425 ,90.1925 ,1.74599 ,0.66490 ,6.52403 
426 ,90.4006 ,1.74802 ,0.66148 ,6.49046 
427 ,90.6087 ,1.75016 ,0.67175 ,6.59119 
428 ,90.8328 ,1.75240 ,0.67175 ,6.59119 
429 ,91.0409 ,1.75453 ,0.65464 ,6.42330 
430 ,91.2329 ,1.75652 ,0.66833 ,6.55761 
431 ,91.4411 ,1.75845 ,0.65464 ,6.42330 
432 ,91.6331 ,1.76049 ,0.67859 ,6.65835 
433 ,91.8412 ,1.76240 ,0.64437 ,6.32256 
434 ,92.0493 ,1.76455 ,0.66148 ,6.49046 
435 ,92.2573 ,1.76662 ,0.65464 ,6.42330 
436 ,92.4495 ,1.76867 ,0.65464 ,6.42330 
437 ,92.6737 ,1.77065 ,0.64437 ,6.32256 
438 ,92.8816 ,1.77284 ,0.63753 ,6.25541 
439 ,93.1057 ,1.77511 ,0.64437 ,6.32256 
440 ,93.3138 ,1.77717 ,0.64095 ,6.28899 
441 ,93.5218 ,1.77928 ,0.63410 ,6.22183 
442 ,93.7139 ,1.78129 ,0.64437 ,6.32256 
443 ,93.9221 ,1.78331 ,0.64095 ,6.28899 
444 ,94.1140 ,1.78527 ,0.65464 ,6.42330 
445 ,94.3223 ,1.78724 ,0.63410 ,6.22183 
446 ,94.5143 ,1.78931 ,0.64779 ,6.35614 
447 ,94.7224 ,1.79128 ,0.63410 ,6.22183 
448 ,94.9145 ,1.79332 ,0.65121 ,6.38972 
449 ,95.1226 ,1.79521 ,0.63410 ,6.22183 
450 ,95.3467 ,1.79747 ,0.65464 ,6.42330 
451 ,95.5547 ,1.79960 ,0.62726 ,6.15467 
452 ,95.7627 ,1.80167 ,0.63753 ,6.25541 
453 ,95.9709 ,1.80374 ,0.64095 ,6.28899 
454 ,96.1789 ,1.80584 ,0.62384 ,6.12109 
455 ,96.3870 ,1.80791 ,0.63753 ,6.25541 
456 ,96.6113 ,1.81005 ,0.62726 ,6.15467 
457 ,96.8193 ,1.81219 ,0.62042 ,6.08752 
458 ,97.0275 ,1.81431 ,0.64437 ,6.32256 
459 ,97.2355 ,1.81642 ,0.63753 ,6.25541 
460 ,97.4436 ,1.81846 ,0.63068 ,6.18825 
461 ,97.6356 ,1.82050 ,0.63753 ,6.25541 
462 ,97.8438 ,1.82243 ,0.64437 ,6.32256 
463 ,98.0518 ,1.82451 ,0.64437 ,6.32256 
464 ,98.2600 ,1.82668 ,0.63068 ,6.18825 
465 ,98.4682 ,1.82871 ,0.64779 ,6.35614 
466 ,98.6920 ,1.83097 ,0.63410 ,6.22183 
