Data stamp = , 17-05-2022 04:06:39 791

Calibration Values: 
Slope = , 26.54 , g/V 
Offset Voltage at no contact = , -0.501760 , V 

No , Time , Stage Position ,   Mass , Force 
   ,  (s) ,      (mm)      ,   (g)  , (mN)  

1 ,0.0000 ,0.84949 ,5.08634 ,49.90720 
2 ,0.3430 ,0.84978 ,5.07608 ,49.80646 
3 ,0.8073 ,0.85181 ,5.08634 ,49.90720 
4 ,1.0477 ,0.85455 ,5.06581 ,49.70573 
5 ,1.2719 ,0.85690 ,5.05897 ,49.63857 
6 ,1.4800 ,0.85891 ,5.07608 ,49.80646 
7 ,1.6879 ,0.86107 ,5.05897 ,49.63857 
8 ,1.8956 ,0.86319 ,5.02474 ,49.30279 
9 ,2.1038 ,0.86526 ,5.02817 ,49.33637 
10 ,2.3123 ,0.86733 ,4.97683 ,48.83269 
11 ,2.5203 ,0.86946 ,4.96315 ,48.69838 
12 ,2.7602 ,0.87169 ,4.95288 ,48.59764 
13 ,2.9685 ,0.87389 ,4.92550 ,48.32902 
14 ,3.1922 ,0.87618 ,4.89128 ,47.99324 
15 ,3.4005 ,0.87821 ,4.87075 ,47.79177 
16 ,3.6088 ,0.88032 ,4.86048 ,47.69103 
17 ,3.8334 ,0.88251 ,4.82968 ,47.38883 
18 ,4.0410 ,0.88463 ,4.81599 ,47.25451 
19 ,4.2650 ,0.88684 ,4.78519 ,46.95231 
20 ,4.4570 ,0.88882 ,4.75097 ,46.61653 
21 ,4.6492 ,0.89073 ,4.75097 ,46.61653 
22 ,4.8731 ,0.89291 ,4.70648 ,46.18001 
23 ,5.0809 ,0.89511 ,4.69279 ,46.04569 
24 ,5.2731 ,0.89697 ,4.66199 ,45.74349 
25 ,5.4813 ,0.89902 ,4.65515 ,45.67633 
26 ,5.7056 ,0.90128 ,4.64146 ,45.54202 
27 ,5.9299 ,0.90338 ,4.59697 ,45.10550 
28 ,6.1539 ,0.90573 ,4.57644 ,44.90403 
29 ,6.3617 ,0.90780 ,4.56617 ,44.80330 
30 ,6.5699 ,0.90997 ,4.54222 ,44.56825 
31 ,6.7779 ,0.91199 ,4.50457 ,44.19889 
32 ,6.9861 ,0.91403 ,4.50800 ,44.23247 
33 ,7.1942 ,0.91622 ,4.45666 ,43.72879 
34 ,7.4184 ,0.91833 ,4.44298 ,43.59448 
35 ,7.6424 ,0.92056 ,4.43271 ,43.49374 
36 ,7.8345 ,0.92263 ,4.40875 ,43.25870 
37 ,8.0426 ,0.92460 ,4.39507 ,43.12438 
38 ,8.2507 ,0.92670 ,4.36084 ,42.78860 
39 ,8.4747 ,0.92891 ,4.33689 ,42.55355 
40 ,8.6663 ,0.93085 ,4.33347 ,42.51997 
41 ,8.8749 ,0.93294 ,4.28898 ,42.08345 
42 ,9.0668 ,0.93491 ,4.29240 ,42.11703 
43 ,9.2911 ,0.93703 ,4.26502 ,41.84841 
44 ,9.4991 ,0.93918 ,4.23422 ,41.54620 
45 ,9.7071 ,0.94125 ,4.22396 ,41.44547 
46 ,9.9155 ,0.94333 ,4.17947 ,41.00895 
47 ,10.1394 ,0.94552 ,4.16920 ,40.90821 
48 ,10.3322 ,0.94754 ,4.15551 ,40.77390 
49 ,10.5397 ,0.94957 ,4.12129 ,40.43812 
50 ,10.7478 ,0.95162 ,4.12129 ,40.43812 
51 ,10.9719 ,0.95388 ,4.08365 ,40.06876 
52 ,11.1640 ,0.95588 ,4.07338 ,39.96802 
53 ,11.3878 ,0.95802 ,4.06312 ,39.86729 
54 ,11.5800 ,0.96000 ,4.01863 ,39.43077 
55 ,11.7880 ,0.96206 ,4.00836 ,39.33003 
56 ,11.9800 ,0.96406 ,3.97756 ,39.02783 
57 ,12.2042 ,0.96613 ,3.98098 ,39.06141 
58 ,12.4122 ,0.96836 ,3.95361 ,38.79278 
59 ,12.6205 ,0.97037 ,3.91254 ,38.38984 
60 ,12.8445 ,0.97258 ,3.91254 ,38.38984 
61 ,13.0526 ,0.97467 ,3.87832 ,38.05406 
62 ,13.2607 ,0.97680 ,3.85779 ,37.85259 
63 ,13.4846 ,0.97900 ,3.84410 ,37.71828 
64 ,13.7088 ,0.98118 ,3.80987 ,37.38249 
65 ,13.9169 ,0.98335 ,3.78250 ,37.11387 
66 ,14.1091 ,0.98526 ,3.78934 ,37.18102 
67 ,14.3330 ,0.98745 ,3.73801 ,36.67735 
68 ,14.5412 ,0.98956 ,3.71748 ,36.47588 
69 ,14.7492 ,0.99163 ,3.71405 ,36.44230 
70 ,14.9254 ,0.99357 ,3.67983 ,36.10652 
71 ,15.1172 ,0.99539 ,3.65246 ,35.83789 
72 ,15.3252 ,0.99738 ,3.65930 ,35.90505 
73 ,15.5338 ,0.99950 ,3.63534 ,35.67000 
74 ,15.7575 ,1.00172 ,3.58743 ,35.19990 
75 ,15.9657 ,1.00385 ,3.57717 ,35.09917 
76 ,16.1579 ,1.00577 ,3.55321 ,34.86412 
77 ,16.3660 ,1.00778 ,3.55321 ,34.86412 
78 ,16.5739 ,1.00993 ,3.50872 ,34.42760 
79 ,16.7981 ,1.01208 ,3.48819 ,34.22613 
80 ,17.0062 ,1.01420 ,3.48135 ,34.15898 
81 ,17.2305 ,1.01646 ,3.46424 ,33.99108 
82 ,17.4385 ,1.01850 ,3.43344 ,33.68888 
83 ,17.6463 ,1.02062 ,3.41975 ,33.55457 
84 ,17.8223 ,1.02252 ,3.38210 ,33.18520 
85 ,18.0309 ,1.02441 ,3.39237 ,33.28594 
86 ,18.2547 ,1.02667 ,3.34788 ,32.84942 
87 ,18.4628 ,1.02879 ,3.33077 ,32.68153 
88 ,18.6865 ,1.03097 ,3.32393 ,32.61437 
89 ,18.8951 ,1.03313 ,3.29313 ,32.31217 
90 ,19.1191 ,1.03535 ,3.26917 ,32.07712 
91 ,19.3276 ,1.03740 ,3.26233 ,32.00996 
92 ,19.5513 ,1.03966 ,3.22811 ,31.67418 
93 ,19.7590 ,1.04174 ,3.19388 ,31.33840 
94 ,19.9675 ,1.04381 ,3.18704 ,31.27124 
95 ,20.2231 ,1.04634 ,3.16651 ,31.06977 
96 ,20.4152 ,1.04836 ,3.14597 ,30.86830 
97 ,20.5912 ,1.05024 ,3.13571 ,30.76757 
98 ,20.7993 ,1.05214 ,3.10149 ,30.43178 
99 ,21.0078 ,1.05424 ,3.08095 ,30.23031 
100 ,21.2159 ,1.05636 ,3.05700 ,29.99527 
101 ,21.4241 ,1.05839 ,3.02278 ,29.65948 
102 ,21.6322 ,1.06039 ,3.02962 ,29.72664 
103 ,21.8401 ,1.06260 ,2.98855 ,29.32370 
104 ,22.0478 ,1.06458 ,2.99882 ,29.42444 
105 ,22.2405 ,1.06657 ,2.95091 ,28.95434 
106 ,22.4483 ,1.06864 ,2.95776 ,29.02150 
107 ,22.6564 ,1.07071 ,2.92011 ,28.65213 
108 ,22.8647 ,1.07279 ,2.90642 ,28.51782 
109 ,23.0565 ,1.07471 ,2.88589 ,28.31635 
110 ,23.2809 ,1.07686 ,2.87905 ,28.24919 
111 ,23.5050 ,1.07916 ,2.84825 ,27.94699 
112 ,23.7131 ,1.08130 ,2.84825 ,27.94699 
113 ,23.9212 ,1.08334 ,2.79691 ,27.44332 
114 ,24.1131 ,1.08533 ,2.81060 ,27.57763 
115 ,24.3372 ,1.08748 ,2.75585 ,27.04038 
116 ,24.5451 ,1.08961 ,2.75243 ,27.00680 
117 ,24.7532 ,1.09164 ,2.74216 ,26.90606 
118 ,24.9774 ,1.09391 ,2.71820 ,26.67101 
119 ,25.1856 ,1.09602 ,2.69425 ,26.43597 
120 ,25.3773 ,1.09795 ,2.69425 ,26.43597 
121 ,25.6018 ,1.10000 ,2.67372 ,26.23450 
122 ,25.8099 ,1.10217 ,2.67372 ,26.23450 
123 ,26.0180 ,1.10427 ,2.62923 ,25.79798 
124 ,26.2421 ,1.10655 ,2.61212 ,25.63009 
125 ,26.4497 ,1.10863 ,2.61212 ,25.63009 
126 ,26.6742 ,1.11075 ,2.58132 ,25.32788 
127 ,26.8822 ,1.11305 ,2.56421 ,25.15999 
128 ,27.0902 ,1.11504 ,2.55394 ,25.05926 
129 ,27.2986 ,1.11714 ,2.53683 ,24.89136 
130 ,27.5064 ,1.11914 ,2.52314 ,24.75705 
131 ,27.7307 ,1.12147 ,2.50945 ,24.62274 
132 ,27.9388 ,1.12354 ,2.47865 ,24.32053 
133 ,28.1468 ,1.12561 ,2.47523 ,24.28696 
134 ,28.3550 ,1.12771 ,2.46154 ,24.15264 
135 ,28.5790 ,1.12987 ,2.42390 ,23.78328 
136 ,28.7710 ,1.13184 ,2.43074 ,23.85044 
137 ,28.9791 ,1.13388 ,2.40336 ,23.58181 
138 ,29.1713 ,1.13583 ,2.40336 ,23.58181 
139 ,29.3793 ,1.13788 ,2.35203 ,23.07814 
140 ,29.6034 ,1.14014 ,2.33492 ,22.91024 
141 ,29.8111 ,1.14226 ,2.34519 ,23.01098 
142 ,30.0197 ,1.14433 ,2.30412 ,22.60804 
143 ,30.2115 ,1.14637 ,2.29385 ,22.50731 
144 ,30.4035 ,1.14820 ,2.27332 ,22.30584 
145 ,30.6278 ,1.15036 ,2.27332 ,22.30584 
146 ,30.8357 ,1.15245 ,2.24594 ,22.03721 
147 ,31.0439 ,1.15462 ,2.23226 ,21.90290 
148 ,31.2522 ,1.15669 ,2.22883 ,21.86932 
149 ,31.4601 ,1.15873 ,2.19119 ,21.49996 
150 ,31.6682 ,1.16083 ,2.17408 ,21.33206 
151 ,31.8762 ,1.16288 ,2.18092 ,21.39922 
152 ,32.0678 ,1.16482 ,2.16381 ,21.23133 
153 ,32.2605 ,1.16679 ,2.13301 ,20.92912 
154 ,32.4685 ,1.16878 ,2.12617 ,20.86197 
155 ,32.6927 ,1.17102 ,2.09879 ,20.59334 
156 ,32.9008 ,1.17306 ,2.07826 ,20.39187 
157 ,33.1245 ,1.17531 ,2.07484 ,20.35829 
158 ,33.3329 ,1.17743 ,2.06115 ,20.22398 
159 ,33.5251 ,1.17940 ,2.03377 ,19.95535 
160 ,33.7332 ,1.18145 ,2.04404 ,20.05609 
161 ,33.9732 ,1.18370 ,1.99955 ,19.61957 
162 ,34.1811 ,1.18588 ,1.97217 ,19.35094 
163 ,34.4052 ,1.18808 ,1.96875 ,19.31737 
164 ,34.6132 ,1.19024 ,1.95848 ,19.21663 
165 ,34.8375 ,1.19246 ,1.94479 ,19.08232 
166 ,35.0456 ,1.19458 ,1.91742 ,18.81369 
167 ,35.2537 ,1.19660 ,1.90373 ,18.67938 
168 ,35.4457 ,1.19858 ,1.89004 ,18.54507 
169 ,35.6539 ,1.20060 ,1.88319 ,18.47791 
170 ,35.8619 ,1.20278 ,1.84555 ,18.10855 
171 ,36.0540 ,1.20477 ,1.84897 ,18.14213 
172 ,36.2621 ,1.20668 ,1.81133 ,17.77276 
173 ,36.4858 ,1.20900 ,1.78737 ,17.53772 
174 ,36.7103 ,1.21105 ,1.80106 ,17.67203 
175 ,36.9185 ,1.21326 ,1.77369 ,17.40340 
176 ,37.1263 ,1.21534 ,1.76342 ,17.30267 
177 ,37.3507 ,1.21757 ,1.75315 ,17.20193 
178 ,37.5583 ,1.21977 ,1.71893 ,16.86615 
179 ,37.7666 ,1.22177 ,1.71893 ,16.86615 
180 ,37.9909 ,1.22392 ,1.69498 ,16.63110 
181 ,38.1990 ,1.22601 ,1.67102 ,16.39605 
182 ,38.4232 ,1.22833 ,1.66075 ,16.29532 
183 ,38.6312 ,1.23037 ,1.65733 ,16.26174 
184 ,38.8392 ,1.23248 ,1.61627 ,15.85880 
185 ,39.0470 ,1.23452 ,1.62311 ,15.92596 
186 ,39.2395 ,1.23644 ,1.60258 ,15.72449 
187 ,39.4634 ,1.23867 ,1.58204 ,15.52302 
188 ,39.6555 ,1.24066 ,1.57862 ,15.48944 
189 ,39.8633 ,1.24265 ,1.54098 ,15.12008 
190 ,40.0558 ,1.24465 ,1.54782 ,15.18724 
191 ,40.2798 ,1.24681 ,1.51360 ,14.85145 
192 ,40.4879 ,1.24889 ,1.49991 ,14.71714 
193 ,40.7120 ,1.25115 ,1.50333 ,14.75072 
194 ,40.9197 ,1.25329 ,1.46569 ,14.38136 
195 ,41.1282 ,1.25535 ,1.45200 ,14.24704 
196 ,41.3521 ,1.25758 ,1.44174 ,14.14631 
197 ,41.5442 ,1.25958 ,1.41778 ,13.91126 
198 ,41.7522 ,1.26159 ,1.42805 ,14.01199 
199 ,41.9762 ,1.26379 ,1.38356 ,13.57548 
200 ,42.2006 ,1.26600 ,1.38356 ,13.57548 
201 ,42.4245 ,1.26835 ,1.35618 ,13.30685 
202 ,42.6327 ,1.27035 ,1.35276 ,13.27327 
203 ,42.8407 ,1.27245 ,1.32538 ,13.00465 
204 ,43.0328 ,1.27446 ,1.33565 ,13.10538 
205 ,43.2408 ,1.27645 ,1.30143 ,12.76960 
206 ,43.4650 ,1.27866 ,1.28432 ,12.60171 
207 ,43.6569 ,1.28062 ,1.27405 ,12.50097 
208 ,43.8812 ,1.28285 ,1.26378 ,12.40024 
209 ,44.0569 ,1.28479 ,1.24667 ,12.23235 
210 ,44.2648 ,1.28674 ,1.22614 ,12.03088 
211 ,44.4411 ,1.28864 ,1.22272 ,11.99730 
212 ,44.6338 ,1.29042 ,1.20903 ,11.86298 
213 ,44.8414 ,1.29240 ,1.17481 ,11.52720 
214 ,45.0497 ,1.29450 ,1.18507 ,11.62794 
215 ,45.2578 ,1.29663 ,1.15427 ,11.32573 
216 ,45.4819 ,1.29894 ,1.14058 ,11.19142 
217 ,45.7056 ,1.30106 ,1.12347 ,11.02353 
218 ,45.8981 ,1.30304 ,1.10294 ,10.82206 
219 ,46.1060 ,1.30514 ,1.10636 ,10.85563 
220 ,46.3302 ,1.30728 ,1.09267 ,10.72132 
221 ,46.5383 ,1.30941 ,1.06530 ,10.45270 
222 ,46.7302 ,1.31139 ,1.07214 ,10.51985 
223 ,46.9224 ,1.31339 ,1.03792 ,10.18407 
224 ,47.1305 ,1.31533 ,1.04134 ,10.21765 
225 ,47.3231 ,1.31732 ,1.00712 ,9.88186 
226 ,47.5463 ,1.31948 ,1.00712 ,9.88186 
227 ,47.7549 ,1.32161 ,1.00712 ,9.88186 
228 ,47.9789 ,1.32380 ,0.96605 ,9.47892 
229 ,48.1710 ,1.32579 ,0.96605 ,9.47892 
230 ,48.3791 ,1.32786 ,0.94210 ,9.24388 
231 ,48.5871 ,1.32986 ,0.93525 ,9.17672 
232 ,48.7949 ,1.33200 ,0.90788 ,8.90809 
233 ,49.0033 ,1.33406 ,0.89077 ,8.74020 
234 ,49.1954 ,1.33600 ,0.90446 ,8.87451 
235 ,49.4196 ,1.33820 ,0.87023 ,8.53873 
236 ,49.6276 ,1.34027 ,0.87708 ,8.60589 
237 ,49.8192 ,1.34235 ,0.86339 ,8.47158 
238 ,50.0277 ,1.34426 ,0.83259 ,8.16937 
239 ,50.2516 ,1.34656 ,0.83259 ,8.16937 
240 ,50.4600 ,1.34860 ,0.79837 ,7.83359 
241 ,50.6838 ,1.35086 ,0.78810 ,7.73285 
242 ,50.8758 ,1.35277 ,0.78810 ,7.73285 
243 ,51.0841 ,1.35491 ,0.76072 ,7.46423 
244 ,51.3083 ,1.35704 ,0.76415 ,7.49780 
245 ,51.5164 ,1.35921 ,0.73677 ,7.22918 
246 ,51.7405 ,1.36139 ,0.70939 ,6.96055 
247 ,51.9487 ,1.36353 ,0.71966 ,7.06129 
248 ,52.1725 ,1.36577 ,0.71624 ,7.02771 
249 ,52.3807 ,1.36796 ,0.67517 ,6.62477 
250 ,52.5727 ,1.36981 ,0.68201 ,6.69193 
251 ,52.7969 ,1.37192 ,0.64437 ,6.32256 
252 ,52.9889 ,1.37395 ,0.65464 ,6.42330 
253 ,53.1809 ,1.37599 ,0.64437 ,6.32256 
254 ,53.4212 ,1.37815 ,0.62384 ,6.12109 
255 ,53.6293 ,1.38028 ,0.62384 ,6.12109 
256 ,53.8373 ,1.38239 ,0.58619 ,5.75173 
257 ,54.0613 ,1.38459 ,0.56908 ,5.58384 
258 ,54.2531 ,1.38657 ,0.56908 ,5.58384 
259 ,54.4614 ,1.38860 ,0.53828 ,5.28164 
260 ,54.6697 ,1.39070 ,0.54855 ,5.38237 
261 ,54.8938 ,1.39290 ,0.53486 ,5.24806 
262 ,55.1020 ,1.39504 ,0.49380 ,4.84512 
263 ,55.3255 ,1.39726 ,0.50064 ,4.91228 
264 ,55.5342 ,1.39937 ,0.50406 ,4.94585 
265 ,55.7579 ,1.40154 ,0.47326 ,4.64365 
266 ,55.9662 ,1.40367 ,0.46984 ,4.61007 
267 ,56.1902 ,1.40586 ,0.45615 ,4.47576 
268 ,56.3662 ,1.40782 ,0.44246 ,4.34144 
269 ,56.5906 ,1.40992 ,0.43562 ,4.27429 
270 ,56.8144 ,1.41212 ,0.40824 ,4.00566 
271 ,57.0227 ,1.41425 ,0.40482 ,3.97208 
272 ,57.2307 ,1.41634 ,0.40140 ,3.93850 
273 ,57.4388 ,1.41836 ,0.36033 ,3.53557 
274 ,57.6468 ,1.42045 ,0.36375 ,3.56914 
275 ,57.8230 ,1.42239 ,0.35006 ,3.43483 
276 ,57.9990 ,1.42413 ,0.36033 ,3.53557 
277 ,58.2233 ,1.42612 ,0.32953 ,3.23336 
278 ,58.4471 ,1.42846 ,0.31242 ,3.06547 
279 ,58.6550 ,1.43052 ,0.29873 ,2.93116 
280 ,58.8634 ,1.43269 ,0.28504 ,2.79684 
281 ,59.0714 ,1.43480 ,0.28504 ,2.79684 
282 ,59.2632 ,1.43664 ,0.25424 ,2.49464 
283 ,59.4712 ,1.43871 ,0.26451 ,2.59537 
284 ,59.6793 ,1.44078 ,0.25424 ,2.49464 
285 ,59.8717 ,1.44279 ,0.24055 ,2.36032 
286 ,60.0640 ,1.44464 ,0.22002 ,2.15885 
287 ,60.2560 ,1.44658 ,0.20976 ,2.05812 
288 ,60.4481 ,1.44850 ,0.20291 ,1.99096 
289 ,60.6721 ,1.45072 ,0.19949 ,1.95738 
290 ,60.8800 ,1.45275 ,0.15842 ,1.55445 
291 ,61.1045 ,1.45499 ,0.16869 ,1.65518 
292 ,61.3284 ,1.45721 ,0.17211 ,1.68876 
293 ,61.5364 ,1.45932 ,0.13447 ,1.31940 
294 ,61.7448 ,1.46139 ,0.12078 ,1.18508 
295 ,61.9687 ,1.46368 ,0.12762 ,1.25224 
296 ,62.1767 ,1.46579 ,0.08998 ,0.88288 
297 ,62.3688 ,1.46774 ,0.10025 ,0.98361 
298 ,62.5770 ,1.46976 ,0.08656 ,0.84930 
299 ,62.7850 ,1.47181 ,0.06945 ,0.68141 
300 ,62.9931 ,1.47394 ,0.07287 ,0.71499 
301 ,63.2012 ,1.47596 ,0.03865 ,0.37920 
302 ,63.3771 ,1.47793 ,0.03865 ,0.37920 
303 ,63.6014 ,1.47997 ,0.02154 ,0.21131 
304 ,63.8094 ,1.48209 ,0.01811 ,0.17773 
305 ,64.0177 ,1.48413 ,-0.00926 ,-0.09089 
306 ,64.2254 ,1.48624 ,-0.01269 ,-0.12447 
307 ,64.4178 ,1.48831 ,-0.00584 ,-0.05731 
308 ,64.6097 ,1.49019 ,-0.03322 ,-0.32594 
309 ,64.8179 ,1.49210 ,-0.04348 ,-0.42667 
310 ,65.0100 ,1.49411 ,-0.04691 ,-0.46025 
311 ,65.2182 ,1.49611 ,-0.06744 ,-0.66172 
312 ,65.4257 ,1.49818 ,-0.06744 ,-0.66172 
313 ,65.6345 ,1.50025 ,-0.08113 ,-0.79604 
314 ,65.8584 ,1.50251 ,-0.10166 ,-0.99751 
315 ,66.0663 ,1.50465 ,-0.09824 ,-0.96393 
316 ,66.2747 ,1.50669 ,-0.10508 ,-1.03108 
317 ,66.4822 ,1.50886 ,-0.13931 ,-1.36687 
318 ,66.6908 ,1.51084 ,-0.12904 ,-1.26613 
319 ,66.8989 ,1.51291 ,-0.15642 ,-1.53476 
320 ,67.1230 ,1.51519 ,-0.16668 ,-1.63549 
321 ,67.3311 ,1.51727 ,-0.16668 ,-1.63549 
322 ,67.5232 ,1.51927 ,-0.18722 ,-1.83696 
323 ,67.7471 ,1.52147 ,-0.18037 ,-1.76981 
324 ,67.9552 ,1.52352 ,-0.18722 ,-1.83696 
325 ,68.1636 ,1.52561 ,-0.23170 ,-2.27348 
326 ,68.3714 ,1.52769 ,-0.21117 ,-2.07201 
327 ,68.5637 ,1.52963 ,-0.24197 ,-2.37422 
328 ,68.7716 ,1.53179 ,-0.23855 ,-2.34064 
329 ,68.9640 ,1.53363 ,-0.25908 ,-2.54211 
330 ,69.2040 ,1.53599 ,-0.26250 ,-2.57569 
331 ,69.4281 ,1.53822 ,-0.27619 ,-2.71000 
332 ,69.6522 ,1.54036 ,-0.29330 ,-2.87789 
333 ,69.8760 ,1.54269 ,-0.29673 ,-2.91147 
334 ,70.0684 ,1.54464 ,-0.30699 ,-3.01220 
335 ,70.2764 ,1.54669 ,-0.31041 ,-3.04578 
336 ,70.4845 ,1.54883 ,-0.34121 ,-3.34799 
337 ,70.6764 ,1.55074 ,-0.33095 ,-3.24725 
338 ,70.9003 ,1.55292 ,-0.35832 ,-3.51588 
339 ,71.1086 ,1.55502 ,-0.35148 ,-3.44872 
340 ,71.3168 ,1.55708 ,-0.36175 ,-3.54946 
341 ,71.5409 ,1.55924 ,-0.38228 ,-3.75093 
342 ,71.7489 ,1.56138 ,-0.38570 ,-3.78450 
343 ,71.9569 ,1.56352 ,-0.39939 ,-3.91882 
344 ,72.1651 ,1.56559 ,-0.41992 ,-4.12029 
345 ,72.3733 ,1.56769 ,-0.41308 ,-4.05313 
346 ,72.5973 ,1.56985 ,-0.42677 ,-4.18744 
347 ,72.7895 ,1.57192 ,-0.44046 ,-4.32176 
348 ,73.0133 ,1.57401 ,-0.44388 ,-4.35534 
349 ,73.2057 ,1.57606 ,-0.46441 ,-4.55681 
350 ,73.4135 ,1.57811 ,-0.45757 ,-4.48965 
351 ,73.6379 ,1.58025 ,-0.48837 ,-4.79185 
352 ,73.8620 ,1.58253 ,-0.51232 ,-5.02690 
353 ,74.0700 ,1.58461 ,-0.50206 ,-4.92617 
354 ,74.2777 ,1.58675 ,-0.50890 ,-4.99332 
355 ,74.4860 ,1.58874 ,-0.51574 ,-5.06048 
356 ,74.6783 ,1.59075 ,-0.53285 ,-5.22837 
357 ,74.8864 ,1.59279 ,-0.54997 ,-5.39626 
358 ,75.0945 ,1.59493 ,-0.55339 ,-5.42984 
359 ,75.3023 ,1.59696 ,-0.56023 ,-5.49700 
360 ,75.5107 ,1.59907 ,-0.54654 ,-5.36268 
361 ,75.7344 ,1.60124 ,-0.56708 ,-5.56415 
362 ,75.9267 ,1.60325 ,-0.59788 ,-5.86636 
363 ,76.1184 ,1.60521 ,-0.60130 ,-5.89994 
364 ,76.3269 ,1.60716 ,-0.61499 ,-6.03425 
365 ,76.5512 ,1.60939 ,-0.61841 ,-6.06783 
366 ,76.7591 ,1.61153 ,-0.63210 ,-6.20214 
367 ,76.9671 ,1.61359 ,-0.63894 ,-6.26930 
368 ,77.1752 ,1.61567 ,-0.64236 ,-6.30288 
369 ,77.3834 ,1.61771 ,-0.67659 ,-6.63866 
370 ,77.5910 ,1.61981 ,-0.66290 ,-6.50435 
371 ,77.7992 ,1.62187 ,-0.67659 ,-6.63866 
372 ,77.9917 ,1.62386 ,-0.67659 ,-6.63866 
373 ,78.1997 ,1.62590 ,-0.70396 ,-6.90729 
374 ,78.4076 ,1.62794 ,-0.70396 ,-6.90729 
375 ,78.6159 ,1.63006 ,-0.70739 ,-6.94086 
376 ,78.8399 ,1.63235 ,-0.73476 ,-7.20949 
377 ,79.0481 ,1.63445 ,-0.74503 ,-7.31023 
378 ,79.2721 ,1.63663 ,-0.74161 ,-7.27665 
379 ,79.4641 ,1.63858 ,-0.75872 ,-7.44454 
380 ,79.6563 ,1.64048 ,-0.74845 ,-7.34380 
381 ,79.8640 ,1.64251 ,-0.78952 ,-7.74674 
382 ,80.0560 ,1.64452 ,-0.76556 ,-7.51170 
383 ,80.2641 ,1.64651 ,-0.80663 ,-7.91464 
384 ,80.4561 ,1.64851 ,-0.77925 ,-7.64601 
385 ,80.6323 ,1.65039 ,-0.80663 ,-7.91464 
386 ,80.8249 ,1.65218 ,-0.81005 ,-7.94821 
387 ,81.0489 ,1.65440 ,-0.82032 ,-8.04895 
388 ,81.2566 ,1.65647 ,-0.82716 ,-8.11611 
389 ,81.4490 ,1.65839 ,-0.84427 ,-8.28400 
390 ,81.6731 ,1.66064 ,-0.84085 ,-8.25042 
391 ,81.8649 ,1.66259 ,-0.87165 ,-8.55262 
392 ,82.0568 ,1.66453 ,-0.85796 ,-8.41831 
393 ,82.2651 ,1.66648 ,-0.89218 ,-8.75409 
394 ,82.4894 ,1.66876 ,-0.88192 ,-8.65336 
395 ,82.6813 ,1.67083 ,-0.88876 ,-8.72051 
396 ,82.8897 ,1.67273 ,-0.91272 ,-8.95556 
397 ,83.0973 ,1.67486 ,-0.91272 ,-8.95556 
398 ,83.3058 ,1.67693 ,-0.93325 ,-9.15703 
399 ,83.5299 ,1.67918 ,-0.92640 ,-9.08988 
400 ,83.7221 ,1.68119 ,-0.94351 ,-9.25777 
401 ,83.9461 ,1.68338 ,-0.96747 ,-9.49282 
402 ,84.1700 ,1.68561 ,-0.95378 ,-9.35850 
403 ,84.3782 ,1.68765 ,-0.96063 ,-9.42566 
404 ,84.5862 ,1.68977 ,-0.98458 ,-9.66071 
405 ,84.7623 ,1.69167 ,-0.97774 ,-9.59355 
406 ,84.9544 ,1.69353 ,-0.99827 ,-9.79502 
407 ,85.1624 ,1.69549 ,-1.00854 ,-9.89576 
408 ,85.3544 ,1.69747 ,-1.00854 ,-9.89576 
409 ,85.5788 ,1.69969 ,-1.01880 ,-9.99649 
410 ,85.7868 ,1.70178 ,-1.04618 ,-10.26512 
411 ,85.9789 ,1.70377 ,-1.03591 ,-10.16438 
412 ,86.1870 ,1.70572 ,-1.05645 ,-10.36585 
413 ,86.4108 ,1.70798 ,-1.04618 ,-10.26512 
414 ,86.6190 ,1.71005 ,-1.06671 ,-10.46659 
415 ,86.8109 ,1.71210 ,-1.08382 ,-10.63448 
416 ,86.9872 ,1.71393 ,-1.07698 ,-10.56732 
417 ,87.1953 ,1.71578 ,-1.07014 ,-10.50016 
418 ,87.3874 ,1.71785 ,-1.10778 ,-10.86953 
419 ,87.5793 ,1.71973 ,-1.10093 ,-10.80237 
420 ,87.8194 ,1.72200 ,-1.11805 ,-10.97026 
421 ,88.0114 ,1.72411 ,-1.12489 ,-11.03742 
422 ,88.2198 ,1.72610 ,-1.13516 ,-11.13815 
423 ,88.4278 ,1.72812 ,-1.13858 ,-11.17173 
424 ,88.6361 ,1.73028 ,-1.14542 ,-11.23889 
425 ,88.8437 ,1.73232 ,-1.17964 ,-11.57467 
426 ,89.0362 ,1.73427 ,-1.16253 ,-11.40678 
427 ,89.2441 ,1.73630 ,-1.17964 ,-11.57467 
428 ,89.4682 ,1.73853 ,-1.20018 ,-11.77614 
429 ,89.6762 ,1.74061 ,-1.18307 ,-11.60825 
430 ,89.8841 ,1.74276 ,-1.20702 ,-11.84330 
431 ,90.0926 ,1.74474 ,-1.19676 ,-11.74256 
432 ,90.2845 ,1.74681 ,-1.22413 ,-12.01119 
433 ,90.4928 ,1.74876 ,-1.22413 ,-12.01119 
434 ,90.7006 ,1.75086 ,-1.23098 ,-12.07834 
435 ,90.9089 ,1.75300 ,-1.25493 ,-12.31339 
436 ,91.1169 ,1.75504 ,-1.25151 ,-12.27981 
437 ,91.3251 ,1.75716 ,-1.27547 ,-12.51486 
438 ,91.5653 ,1.75955 ,-1.26862 ,-12.44771 
439 ,91.7732 ,1.76160 ,-1.27547 ,-12.51486 
440 ,91.9810 ,1.76366 ,-1.29942 ,-12.74991 
441 ,92.1730 ,1.76568 ,-1.29942 ,-12.74991 
442 ,92.3815 ,1.76765 ,-1.31311 ,-12.88422 
443 ,92.5897 ,1.76976 ,-1.30284 ,-12.78349 
444 ,92.7817 ,1.77178 ,-1.31311 ,-12.88422 
445 ,92.9895 ,1.77377 ,-1.31995 ,-12.95138 
446 ,93.1814 ,1.77575 ,-1.32680 ,-13.01854 
447 ,93.3895 ,1.77777 ,-1.35075 ,-13.25359 
448 ,93.5818 ,1.77969 ,-1.34391 ,-13.18643 
449 ,93.7899 ,1.78172 ,-1.36786 ,-13.42148 
450 ,93.9982 ,1.78387 ,-1.36102 ,-13.35432 
451 ,94.2062 ,1.78591 ,-1.38840 ,-13.62295 
452 ,94.4304 ,1.78813 ,-1.38155 ,-13.55579 
453 ,94.6546 ,1.79040 ,-1.37813 ,-13.52221 
454 ,94.8784 ,1.79262 ,-1.39866 ,-13.72368 
455 ,95.0865 ,1.79466 ,-1.42262 ,-13.95873 
456 ,95.2947 ,1.79673 ,-1.41235 ,-13.85799 
457 ,95.5187 ,1.79902 ,-1.42946 ,-14.02589 
458 ,95.7429 ,1.80125 ,-1.43973 ,-14.12662 
459 ,95.9511 ,1.80333 ,-1.44657 ,-14.19378 
460 ,96.1588 ,1.80539 ,-1.43288 ,-14.05946 
