Data stamp = , 16-05-2022 21:09:38 189

Calibration Values: 
Slope = , 26.54 , g/V 
Offset Voltage at no contact = , -0.501760 , V 

No , Time , Stage Position ,   Mass , Force 
   ,  (s) ,      (mm)      ,   (g)  , (mN)  

1 ,0.0000 ,0.84964 ,5.10003 ,50.04151 
2 ,0.3748 ,0.84993 ,5.07608 ,49.80646 
3 ,0.9355 ,0.85263 ,5.07950 ,49.84004 
4 ,1.1753 ,0.85595 ,5.07265 ,49.77289 
5 ,1.3999 ,0.85817 ,5.07950 ,49.84004 
6 ,1.6075 ,0.86032 ,5.08634 ,49.90720 
7 ,1.8158 ,0.86245 ,5.06239 ,49.67215 
8 ,2.0239 ,0.86462 ,5.02474 ,49.30279 
9 ,2.2322 ,0.86669 ,5.02817 ,49.33637 
10 ,2.4243 ,0.86863 ,4.98710 ,48.93343 
11 ,2.6483 ,0.87079 ,4.96999 ,48.76554 
12 ,2.8561 ,0.87292 ,4.95288 ,48.59764 
13 ,3.0804 ,0.87509 ,4.92550 ,48.32902 
14 ,3.2885 ,0.87723 ,4.90839 ,48.16113 
15 ,3.4966 ,0.87930 ,4.88444 ,47.92608 
16 ,3.6888 ,0.88127 ,4.86390 ,47.72461 
17 ,3.8808 ,0.88322 ,4.83995 ,47.48956 
18 ,4.0728 ,0.88503 ,4.82626 ,47.35525 
19 ,4.2651 ,0.88702 ,4.79888 ,47.08662 
20 ,4.4890 ,0.88918 ,4.78861 ,46.98589 
21 ,4.6809 ,0.89114 ,4.74413 ,46.54937 
22 ,4.8889 ,0.89320 ,4.74755 ,46.58295 
23 ,5.0972 ,0.89533 ,4.70306 ,46.14643 
24 ,5.3054 ,0.89736 ,4.67568 ,45.87780 
25 ,5.4814 ,0.89930 ,4.67226 ,45.84422 
26 ,5.6897 ,0.90116 ,4.65857 ,45.70991 
27 ,5.9135 ,0.90344 ,4.61751 ,45.30697 
28 ,6.1219 ,0.90558 ,4.59355 ,45.07192 
29 ,6.3139 ,0.90747 ,4.58671 ,45.00477 
30 ,6.5222 ,0.90951 ,4.55591 ,44.70256 
31 ,6.7302 ,0.91169 ,4.54222 ,44.56825 
32 ,6.9383 ,0.91370 ,4.52853 ,44.43394 
33 ,7.1458 ,0.91584 ,4.50457 ,44.19889 
34 ,7.3542 ,0.91784 ,4.48062 ,43.96384 
35 ,7.5784 ,0.92007 ,4.44298 ,43.59448 
36 ,7.7704 ,0.92209 ,4.43955 ,43.56090 
37 ,7.9946 ,0.92424 ,4.41560 ,43.32585 
38 ,8.2022 ,0.92631 ,4.38138 ,42.99007 
39 ,8.4268 ,0.92849 ,4.37453 ,42.92291 
40 ,8.6349 ,0.93077 ,4.34031 ,42.58713 
41 ,8.8432 ,0.93278 ,4.30267 ,42.21777 
42 ,9.0670 ,0.93492 ,4.30267 ,42.21777 
43 ,9.2909 ,0.93722 ,4.27871 ,41.98272 
44 ,9.4993 ,0.93935 ,4.23765 ,41.57978 
45 ,9.7230 ,0.94149 ,4.22053 ,41.41189 
46 ,9.9153 ,0.94348 ,4.21711 ,41.37831 
47 ,10.1234 ,0.94557 ,4.17605 ,40.97537 
48 ,10.3316 ,0.94762 ,4.17605 ,40.97537 
49 ,10.5395 ,0.94980 ,4.14525 ,40.67317 
50 ,10.7317 ,0.95162 ,4.13840 ,40.60601 
51 ,10.9398 ,0.95374 ,4.11103 ,40.33738 
52 ,11.1479 ,0.95585 ,4.08365 ,40.06876 
53 ,11.3559 ,0.95785 ,4.05627 ,39.80013 
54 ,11.5475 ,0.95982 ,4.05969 ,39.83371 
55 ,11.7561 ,0.96187 ,4.01520 ,39.39719 
56 ,11.9958 ,0.96425 ,4.00152 ,39.26288 
57 ,12.2043 ,0.96633 ,3.98098 ,39.06141 
58 ,12.4124 ,0.96840 ,3.95703 ,38.82636 
59 ,12.6205 ,0.97047 ,3.92623 ,38.52415 
60 ,12.8283 ,0.97258 ,3.92623 ,38.52415 
61 ,13.0685 ,0.97484 ,3.90227 ,38.28911 
62 ,13.2606 ,0.97699 ,3.85094 ,37.78543 
63 ,13.4525 ,0.97882 ,3.86121 ,37.88617 
64 ,13.6448 ,0.98080 ,3.82356 ,37.51681 
65 ,13.8529 ,0.98287 ,3.81330 ,37.41607 
66 ,14.0449 ,0.98474 ,3.77223 ,37.01313 
67 ,14.2371 ,0.98669 ,3.75854 ,36.87882 
68 ,14.4610 ,0.98889 ,3.73801 ,36.67735 
69 ,14.6853 ,0.99114 ,3.71405 ,36.44230 
70 ,14.8930 ,0.99324 ,3.69352 ,36.24083 
71 ,15.1012 ,0.99526 ,3.66272 ,35.93863 
72 ,15.2932 ,0.99735 ,3.65930 ,35.90505 
73 ,15.5015 ,0.99926 ,3.63877 ,35.70358 
74 ,15.6936 ,1.00124 ,3.62166 ,35.53569 
75 ,15.9016 ,1.00325 ,3.58743 ,35.19990 
76 ,16.1259 ,1.00558 ,3.57375 ,35.06559 
77 ,16.3178 ,1.00762 ,3.55321 ,34.86412 
78 ,16.5101 ,1.00942 ,3.53952 ,34.72981 
79 ,16.7342 ,1.01163 ,3.51557 ,34.49476 
80 ,16.9583 ,1.01386 ,3.48477 ,34.19255 
81 ,17.1661 ,1.01597 ,3.47108 ,34.05824 
82 ,17.3744 ,1.01807 ,3.44713 ,33.82319 
83 ,17.5823 ,1.02013 ,3.40606 ,33.42025 
84 ,17.7906 ,1.02215 ,3.40606 ,33.42025 
85 ,18.0148 ,1.02428 ,3.36157 ,32.98374 
86 ,18.2224 ,1.02659 ,3.34104 ,32.78227 
87 ,18.4150 ,1.02845 ,3.35130 ,32.88300 
88 ,18.6392 ,1.03064 ,3.30339 ,32.41290 
89 ,18.8471 ,1.03271 ,3.29313 ,32.31217 
90 ,19.0712 ,1.03498 ,3.27944 ,32.17786 
91 ,19.2789 ,1.03702 ,3.23495 ,31.74134 
92 ,19.4872 ,1.03914 ,3.22468 ,31.64060 
93 ,19.6954 ,1.04119 ,3.21442 ,31.53987 
94 ,19.8875 ,1.04317 ,3.18362 ,31.23766 
95 ,20.1276 ,1.04542 ,3.16993 ,31.10335 
96 ,20.3356 ,1.04757 ,3.13571 ,30.76757 
97 ,20.5437 ,1.04979 ,3.11518 ,30.56610 
98 ,20.7519 ,1.05179 ,3.11518 ,30.56610 
99 ,20.9602 ,1.05386 ,3.07069 ,30.12958 
100 ,21.1681 ,1.05591 ,3.07069 ,30.12958 
101 ,21.3762 ,1.05800 ,3.03989 ,29.82737 
102 ,21.5839 ,1.06011 ,3.01935 ,29.62590 
103 ,21.7918 ,1.06218 ,3.01251 ,29.55875 
104 ,22.0001 ,1.06426 ,2.97487 ,29.18939 
105 ,22.2082 ,1.06635 ,2.95091 ,28.95434 
106 ,22.4166 ,1.06837 ,2.92353 ,28.68571 
107 ,22.6404 ,1.07060 ,2.90642 ,28.51782 
108 ,22.8325 ,1.07260 ,2.90985 ,28.55140 
109 ,23.0409 ,1.07464 ,2.87905 ,28.24919 
110 ,23.2487 ,1.07674 ,2.87562 ,28.21562 
111 ,23.4570 ,1.07882 ,2.84482 ,27.91341 
112 ,23.6807 ,1.08101 ,2.81060 ,27.57763 
113 ,23.8891 ,1.08315 ,2.80034 ,27.47689 
114 ,24.0973 ,1.08530 ,2.78665 ,27.34258 
115 ,24.3213 ,1.08744 ,2.74900 ,26.97322 
116 ,24.5135 ,1.08942 ,2.74900 ,26.97322 
117 ,24.7216 ,1.09143 ,2.71820 ,26.67101 
118 ,24.9455 ,1.09371 ,2.70109 ,26.50312 
119 ,25.1537 ,1.09581 ,2.68398 ,26.33523 
120 ,25.3618 ,1.09782 ,2.65318 ,26.03303 
121 ,25.5695 ,1.10002 ,2.64976 ,25.99945 
122 ,25.7619 ,1.10196 ,2.61212 ,25.63009 
123 ,25.9376 ,1.10376 ,2.61554 ,25.66367 
124 ,26.1301 ,1.10561 ,2.59843 ,25.49577 
125 ,26.3378 ,1.10768 ,2.59501 ,25.46220 
126 ,26.5462 ,1.10974 ,2.56078 ,25.12641 
127 ,26.7543 ,1.11179 ,2.55052 ,25.02568 
128 ,26.9625 ,1.11386 ,2.51972 ,24.72347 
129 ,27.1864 ,1.11614 ,2.52314 ,24.75705 
130 ,27.3945 ,1.11821 ,2.49576 ,24.48842 
131 ,27.6185 ,1.12044 ,2.46839 ,24.21980 
132 ,27.8267 ,1.12252 ,2.45127 ,24.05191 
133 ,28.0189 ,1.12446 ,2.43759 ,23.91759 
134 ,28.2428 ,1.12672 ,2.41021 ,23.64897 
135 ,28.4671 ,1.12891 ,2.40336 ,23.58181 
136 ,28.6752 ,1.13095 ,2.39652 ,23.51465 
137 ,28.8833 ,1.13306 ,2.35545 ,23.11171 
138 ,29.0910 ,1.13522 ,2.34519 ,23.01098 
139 ,29.2830 ,1.13705 ,2.34177 ,22.97740 
140 ,29.4754 ,1.13904 ,2.33492 ,22.91024 
141 ,29.6996 ,1.14121 ,2.30070 ,22.57446 
142 ,29.9076 ,1.14332 ,2.29385 ,22.50731 
143 ,30.1156 ,1.14532 ,2.27674 ,22.33941 
144 ,30.3234 ,1.14748 ,2.24594 ,22.03721 
145 ,30.5477 ,1.14959 ,2.24594 ,22.03721 
146 ,30.7559 ,1.15175 ,2.20830 ,21.66785 
147 ,30.9638 ,1.15382 ,2.19461 ,21.53353 
148 ,31.1561 ,1.15580 ,2.20488 ,21.63427 
149 ,31.3639 ,1.15780 ,2.17066 ,21.29849 
150 ,31.5402 ,1.15978 ,2.16039 ,21.19775 
151 ,31.7323 ,1.16158 ,2.16039 ,21.19775 
152 ,31.9404 ,1.16361 ,2.11932 ,20.79481 
153 ,32.1806 ,1.16593 ,2.09195 ,20.52619 
154 ,32.4047 ,1.16827 ,2.08852 ,20.49261 
155 ,32.6285 ,1.17046 ,2.08168 ,20.42545 
156 ,32.8208 ,1.17246 ,2.05773 ,20.19040 
157 ,33.0449 ,1.17460 ,2.04404 ,20.05609 
158 ,33.2687 ,1.17676 ,2.04061 ,20.02251 
159 ,33.4770 ,1.17905 ,2.02008 ,19.82104 
160 ,33.6686 ,1.18100 ,1.99270 ,19.55241 
161 ,33.8771 ,1.18297 ,1.96533 ,19.28379 
162 ,34.0693 ,1.18498 ,1.97559 ,19.38452 
163 ,34.2930 ,1.18709 ,1.95848 ,19.21663 
164 ,34.4853 ,1.18907 ,1.92768 ,18.91443 
165 ,34.6935 ,1.19113 ,1.93111 ,18.94801 
166 ,34.9016 ,1.19324 ,1.89688 ,18.61222 
167 ,35.1098 ,1.19537 ,1.89004 ,18.54507 
168 ,35.3178 ,1.19743 ,1.86608 ,18.31002 
169 ,35.5419 ,1.19964 ,1.84213 ,18.07497 
170 ,35.7660 ,1.20180 ,1.83871 ,18.04139 
171 ,35.9737 ,1.20390 ,1.80449 ,17.70561 
172 ,36.1980 ,1.20616 ,1.79080 ,17.57129 
173 ,36.4221 ,1.20843 ,1.78053 ,17.47056 
174 ,36.6303 ,1.21047 ,1.77711 ,17.43698 
175 ,36.8544 ,1.21270 ,1.75657 ,17.23551 
176 ,37.0620 ,1.21476 ,1.72578 ,16.93331 
177 ,37.2541 ,1.21680 ,1.73262 ,17.00046 
178 ,37.4620 ,1.21881 ,1.69840 ,16.66468 
179 ,37.6703 ,1.22092 ,1.69840 ,16.66468 
180 ,37.8946 ,1.22312 ,1.67444 ,16.42963 
181 ,38.0864 ,1.22518 ,1.65391 ,16.22816 
182 ,38.2945 ,1.22712 ,1.64364 ,16.12743 
183 ,38.5028 ,1.22927 ,1.62653 ,15.95954 
184 ,38.7114 ,1.23133 ,1.61969 ,15.89238 
185 ,38.9191 ,1.23340 ,1.58547 ,15.55660 
186 ,39.1270 ,1.23551 ,1.58204 ,15.52302 
187 ,39.3674 ,1.23774 ,1.57178 ,15.42228 
188 ,39.5914 ,1.24009 ,1.55809 ,15.28797 
189 ,39.7996 ,1.24217 ,1.52729 ,14.98577 
190 ,40.0076 ,1.24430 ,1.52729 ,14.98577 
191 ,40.1997 ,1.24625 ,1.48965 ,14.61640 
192 ,40.4397 ,1.24851 ,1.48280 ,14.54925 
193 ,40.6638 ,1.25082 ,1.45885 ,14.31420 
194 ,40.8559 ,1.25280 ,1.44516 ,14.17989 
195 ,41.0798 ,1.25494 ,1.43831 ,14.11273 
196 ,41.2881 ,1.25705 ,1.43147 ,14.04557 
197 ,41.4963 ,1.25915 ,1.39040 ,13.64263 
198 ,41.7043 ,1.26125 ,1.39040 ,13.64263 
199 ,41.8963 ,1.26332 ,1.38356 ,13.57548 
200 ,42.0882 ,1.26510 ,1.36987 ,13.44116 
201 ,42.2965 ,1.26714 ,1.33907 ,13.13896 
202 ,42.4882 ,1.26917 ,1.33223 ,13.07180 
203 ,42.6968 ,1.27112 ,1.31512 ,12.90391 
204 ,42.9048 ,1.27319 ,1.30485 ,12.80318 
205 ,43.1289 ,1.27546 ,1.31512 ,12.90391 
206 ,43.3207 ,1.27745 ,1.27063 ,12.46739 
207 ,43.5287 ,1.27952 ,1.28432 ,12.60171 
208 ,43.7372 ,1.28160 ,1.23641 ,12.13161 
209 ,43.9613 ,1.28376 ,1.23983 ,12.16519 
210 ,44.1694 ,1.28590 ,1.23298 ,12.09803 
211 ,44.3775 ,1.28790 ,1.18507 ,11.62794 
212 ,44.6016 ,1.29014 ,1.17138 ,11.49362 
213 ,44.8100 ,1.29231 ,1.17138 ,11.49362 
214 ,45.0338 ,1.29451 ,1.15085 ,11.29215 
215 ,45.2580 ,1.29664 ,1.12347 ,11.02353 
216 ,45.4498 ,1.29881 ,1.15085 ,11.29215 
217 ,45.6582 ,1.30071 ,1.10636 ,10.85563 
218 ,45.8817 ,1.30294 ,1.09267 ,10.72132 
219 ,46.0901 ,1.30505 ,1.07899 ,10.58701 
220 ,46.2983 ,1.30714 ,1.06530 ,10.45270 
221 ,46.5065 ,1.30928 ,1.04819 ,10.28480 
222 ,46.7144 ,1.31126 ,1.03792 ,10.18407 
223 ,46.9384 ,1.31352 ,1.00370 ,9.84829 
224 ,47.1305 ,1.31547 ,1.01054 ,9.91544 
225 ,47.3387 ,1.31753 ,0.97974 ,9.61324 
226 ,47.5466 ,1.31964 ,0.99001 ,9.71397 
227 ,47.7548 ,1.32165 ,0.95237 ,9.34461 
228 ,47.9626 ,1.32381 ,0.93525 ,9.17672 
229 ,48.1711 ,1.32587 ,0.93183 ,9.14314 
230 ,48.3949 ,1.32807 ,0.91130 ,8.94167 
231 ,48.6192 ,1.33019 ,0.90446 ,8.87451 
232 ,48.8273 ,1.33244 ,0.89761 ,8.80736 
233 ,49.0670 ,1.33480 ,0.89077 ,8.74020 
234 ,49.2755 ,1.33694 ,0.85997 ,8.43800 
235 ,49.4996 ,1.33913 ,0.83601 ,8.20295 
236 ,49.7236 ,1.34133 ,0.84628 ,8.30368 
237 ,49.9318 ,1.34352 ,0.81548 ,8.00148 
238 ,50.1558 ,1.34566 ,0.79837 ,7.83359 
239 ,50.3800 ,1.34785 ,0.80863 ,7.93432 
240 ,50.6038 ,1.35016 ,0.78126 ,7.66570 
241 ,50.7961 ,1.35209 ,0.76415 ,7.49780 
242 ,50.9721 ,1.35401 ,0.76757 ,7.53138 
243 ,51.1803 ,1.35598 ,0.73335 ,7.19560 
244 ,51.3882 ,1.35803 ,0.72992 ,7.16202 
245 ,51.5804 ,1.36000 ,0.69913 ,6.85982 
246 ,51.7884 ,1.36200 ,0.69228 ,6.79266 
247 ,51.9806 ,1.36404 ,0.66833 ,6.55761 
248 ,52.1725 ,1.36590 ,0.68201 ,6.69193 
249 ,52.3805 ,1.36799 ,0.65121 ,6.38972 
250 ,52.5889 ,1.37006 ,0.65121 ,6.38972 
251 ,52.7971 ,1.37211 ,0.61699 ,6.05394 
252 ,53.0052 ,1.37417 ,0.62726 ,6.15467 
253 ,53.2128 ,1.37622 ,0.59646 ,5.85247 
254 ,53.4052 ,1.37822 ,0.59304 ,5.81889 
255 ,53.6132 ,1.38019 ,0.55882 ,5.48311 
256 ,53.8055 ,1.38221 ,0.57251 ,5.61742 
257 ,54.0296 ,1.38442 ,0.55539 ,5.44953 
258 ,54.2374 ,1.38650 ,0.53144 ,5.21448 
259 ,54.4458 ,1.38857 ,0.54171 ,5.31522 
260 ,54.6533 ,1.39068 ,0.51091 ,5.01301 
261 ,54.8618 ,1.39271 ,0.50064 ,4.91228 
262 ,55.0700 ,1.39487 ,0.49037 ,4.81154 
263 ,55.2778 ,1.39691 ,0.46300 ,4.54291 
264 ,55.4703 ,1.39889 ,0.47668 ,4.67723 
265 ,55.6782 ,1.40096 ,0.44246 ,4.34144 
266 ,55.8861 ,1.40309 ,0.44588 ,4.37502 
267 ,56.0943 ,1.40508 ,0.41509 ,4.07282 
268 ,56.2863 ,1.40698 ,0.41166 ,4.03924 
269 ,56.4784 ,1.40893 ,0.40140 ,3.93850 
270 ,56.6865 ,1.41102 ,0.40140 ,3.93850 
271 ,56.8946 ,1.41301 ,0.36375 ,3.56914 
272 ,57.0865 ,1.41500 ,0.38086 ,3.73703 
273 ,57.2787 ,1.41696 ,0.34322 ,3.36767 
274 ,57.4869 ,1.41908 ,0.35006 ,3.43483 
275 ,57.6951 ,1.42103 ,0.32611 ,3.19978 
276 ,57.9028 ,1.42316 ,0.31584 ,3.09905 
277 ,58.1114 ,1.42524 ,0.30215 ,2.96473 
278 ,58.3192 ,1.42734 ,0.27478 ,2.69611 
279 ,58.5274 ,1.42941 ,0.29189 ,2.86400 
280 ,58.7353 ,1.43154 ,0.25767 ,2.52822 
281 ,58.9436 ,1.43356 ,0.25424 ,2.49464 
282 ,59.1515 ,1.43565 ,0.25082 ,2.46106 
283 ,59.3598 ,1.43769 ,0.22687 ,2.22601 
284 ,59.5518 ,1.43970 ,0.22002 ,2.15885 
285 ,59.7759 ,1.44176 ,0.20976 ,2.05812 
286 ,59.9838 ,1.44393 ,0.19949 ,1.95738 
287 ,60.2080 ,1.44616 ,0.17553 ,1.72234 
288 ,60.4322 ,1.44842 ,0.16185 ,1.58802 
289 ,60.6562 ,1.45068 ,0.14131 ,1.38655 
290 ,60.8641 ,1.45275 ,0.14816 ,1.45371 
291 ,61.0562 ,1.45467 ,0.11051 ,1.08435 
292 ,61.2481 ,1.45661 ,0.14131 ,1.38655 
293 ,61.4564 ,1.45868 ,0.10367 ,1.01719 
294 ,61.6647 ,1.46078 ,0.10367 ,1.01719 
295 ,61.8725 ,1.46286 ,0.07971 ,0.78214 
296 ,62.0649 ,1.46476 ,0.08314 ,0.81572 
297 ,62.2726 ,1.46686 ,0.05234 ,0.51352 
298 ,62.4649 ,1.46875 ,0.06260 ,0.61425 
299 ,62.6570 ,1.47072 ,0.03522 ,0.34563 
300 ,62.8492 ,1.47263 ,0.03522 ,0.34563 
301 ,63.0412 ,1.47459 ,0.01469 ,0.14416 
302 ,63.2332 ,1.47642 ,0.00100 ,0.00984 
303 ,63.4252 ,1.47833 ,0.00785 ,0.07700 
304 ,63.6492 ,1.48047 ,-0.02295 ,-0.22520 
305 ,63.8576 ,1.48270 ,-0.02637 ,-0.25878 
306 ,64.0656 ,1.48468 ,-0.02637 ,-0.25878 
307 ,64.2576 ,1.48669 ,-0.05033 ,-0.49383 
308 ,64.4817 ,1.48886 ,-0.04348 ,-0.42667 
309 ,64.6898 ,1.49098 ,-0.06744 ,-0.66172 
310 ,64.8979 ,1.49311 ,-0.07428 ,-0.72888 
311 ,65.0899 ,1.49503 ,-0.06402 ,-0.62814 
312 ,65.2981 ,1.49698 ,-0.08797 ,-0.86319 
313 ,65.5063 ,1.49910 ,-0.09824 ,-0.96393 
314 ,65.7298 ,1.50136 ,-0.10508 ,-1.03108 
315 ,65.9384 ,1.50344 ,-0.13588 ,-1.33329 
316 ,66.1464 ,1.50557 ,-0.12219 ,-1.19898 
317 ,66.3386 ,1.50746 ,-0.15642 ,-1.53476 
318 ,66.5307 ,1.50943 ,-0.14957 ,-1.46760 
319 ,66.7387 ,1.51147 ,-0.17695 ,-1.73623 
320 ,66.9469 ,1.51356 ,-0.17353 ,-1.70265 
321 ,67.1548 ,1.51567 ,-0.20775 ,-2.03843 
322 ,67.3470 ,1.51759 ,-0.20433 ,-2.00485 
323 ,67.5711 ,1.51974 ,-0.21459 ,-2.10559 
324 ,67.7630 ,1.52172 ,-0.23170 ,-2.27348 
325 ,67.9551 ,1.52364 ,-0.24539 ,-2.40779 
326 ,68.1632 ,1.52575 ,-0.25566 ,-2.50853 
327 ,68.3872 ,1.52793 ,-0.25566 ,-2.50853 
328 ,68.5955 ,1.53003 ,-0.29330 ,-2.87789 
329 ,68.8036 ,1.53208 ,-0.28304 ,-2.77716 
330 ,68.9952 ,1.53406 ,-0.30357 ,-2.97863 
331 ,69.2037 ,1.53610 ,-0.29330 ,-2.87789 
332 ,69.4276 ,1.53830 ,-0.31726 ,-3.11294 
333 ,69.6199 ,1.54033 ,-0.33095 ,-3.24725 
334 ,69.8124 ,1.54223 ,-0.33779 ,-3.31441 
335 ,70.0199 ,1.54425 ,-0.36175 ,-3.54946 
336 ,70.2282 ,1.54641 ,-0.34806 ,-3.41514 
337 ,70.4362 ,1.54846 ,-0.38228 ,-3.75093 
338 ,70.6284 ,1.55036 ,-0.36175 ,-3.54946 
339 ,70.8365 ,1.55247 ,-0.39597 ,-3.88524 
340 ,71.0444 ,1.55451 ,-0.38228 ,-3.75093 
341 ,71.2522 ,1.55663 ,-0.41650 ,-4.08671 
342 ,71.4444 ,1.55852 ,-0.40966 ,-4.01955 
343 ,71.6847 ,1.56090 ,-0.42677 ,-4.18744 
344 ,71.8929 ,1.56297 ,-0.44730 ,-4.38891 
345 ,72.1171 ,1.56524 ,-0.46783 ,-4.59038 
346 ,72.3246 ,1.56730 ,-0.45072 ,-4.42249 
347 ,72.5172 ,1.56932 ,-0.47468 ,-4.65754 
348 ,72.7253 ,1.57126 ,-0.46783 ,-4.59038 
349 ,72.9333 ,1.57339 ,-0.49863 ,-4.89259 
350 ,73.1574 ,1.57557 ,-0.51917 ,-5.09406 
351 ,73.3652 ,1.57767 ,-0.50206 ,-4.92617 
352 ,73.5733 ,1.57977 ,-0.53285 ,-5.22837 
353 ,73.7816 ,1.58189 ,-0.53628 ,-5.26195 
354 ,73.9737 ,1.58381 ,-0.56023 ,-5.49700 
355 ,74.1659 ,1.58573 ,-0.54654 ,-5.36268 
356 ,74.3739 ,1.58785 ,-0.56708 ,-5.56415 
357 ,74.5816 ,1.58984 ,-0.57392 ,-5.63131 
358 ,74.7742 ,1.59183 ,-0.58761 ,-5.76562 
359 ,74.9983 ,1.59398 ,-0.59788 ,-5.86636 
360 ,75.1902 ,1.59597 ,-0.59788 ,-5.86636 
361 ,75.3824 ,1.59789 ,-0.63210 ,-6.20214 
362 ,75.5741 ,1.59983 ,-0.63210 ,-6.20214 
363 ,75.7825 ,1.60190 ,-0.63894 ,-6.26930 
364 ,75.9906 ,1.60400 ,-0.63210 ,-6.20214 
365 ,76.1988 ,1.60601 ,-0.66974 ,-6.57150 
366 ,76.3907 ,1.60799 ,-0.66290 ,-6.50435 
367 ,76.5989 ,1.61002 ,-0.68685 ,-6.73940 
368 ,76.8069 ,1.61213 ,-0.68343 ,-6.70582 
369 ,76.9991 ,1.61411 ,-0.71081 ,-6.97444 
370 ,77.1911 ,1.61604 ,-0.70396 ,-6.90729 
371 ,77.3993 ,1.61808 ,-0.71765 ,-7.04160 
372 ,77.6073 ,1.62012 ,-0.72792 ,-7.14233 
373 ,77.8150 ,1.62219 ,-0.74503 ,-7.31023 
374 ,78.0232 ,1.62429 ,-0.73818 ,-7.24307 
375 ,78.2315 ,1.62637 ,-0.76214 ,-7.47812 
376 ,78.4392 ,1.62840 ,-0.76556 ,-7.51170 
377 ,78.6316 ,1.63036 ,-0.76556 ,-7.51170 
378 ,78.8237 ,1.63230 ,-0.78267 ,-7.67959 
379 ,79.0318 ,1.63431 ,-0.79636 ,-7.81390 
380 ,79.2399 ,1.63640 ,-0.78610 ,-7.71317 
381 ,79.4640 ,1.63857 ,-0.78267 ,-7.67959 
382 ,79.6720 ,1.64068 ,-0.82032 ,-8.04895 
383 ,79.8800 ,1.64286 ,-0.82374 ,-8.08253 
384 ,80.0717 ,1.64475 ,-0.83401 ,-8.18326 
385 ,80.2800 ,1.64682 ,-0.83401 ,-8.18326 
386 ,80.4881 ,1.64890 ,-0.84085 ,-8.25042 
387 ,80.6805 ,1.65089 ,-0.86481 ,-8.48547 
388 ,80.8883 ,1.65293 ,-0.86823 ,-8.51904 
389 ,81.0962 ,1.65497 ,-0.89903 ,-8.82125 
390 ,81.3207 ,1.65711 ,-0.88876 ,-8.72051 
391 ,81.5449 ,1.65947 ,-0.87849 ,-8.61978 
392 ,81.7685 ,1.66166 ,-0.92983 ,-9.12345 
393 ,81.9766 ,1.66376 ,-0.92298 ,-9.05630 
394 ,82.1685 ,1.66577 ,-0.92298 ,-9.05630 
395 ,82.3770 ,1.66781 ,-0.95720 ,-9.39208 
396 ,82.6010 ,1.67004 ,-0.94351 ,-9.25777 
397 ,82.8413 ,1.67246 ,-0.95720 ,-9.39208 
398 ,83.0650 ,1.67466 ,-0.96747 ,-9.49282 
399 ,83.2574 ,1.67663 ,-0.99827 ,-9.79502 
400 ,83.4653 ,1.67868 ,-0.98458 ,-9.66071 
401 ,83.6737 ,1.68077 ,-1.00854 ,-9.89576 
402 ,83.8814 ,1.68279 ,-1.01196 ,-9.92933 
403 ,84.0738 ,1.68477 ,-1.02565 ,-10.06365 
404 ,84.2658 ,1.68679 ,-1.02907 ,-10.09723 
405 ,84.4575 ,1.68862 ,-1.03591 ,-10.16438 
406 ,84.6659 ,1.69069 ,-1.03249 ,-10.13080 
407 ,84.8580 ,1.69266 ,-1.05302 ,-10.33227 
408 ,85.0502 ,1.69458 ,-1.05645 ,-10.36585 
409 ,85.2582 ,1.69655 ,-1.06671 ,-10.46659 
410 ,85.4504 ,1.69855 ,-1.09409 ,-10.73521 
411 ,85.6422 ,1.70052 ,-1.08382 ,-10.63448 
412 ,85.8346 ,1.70238 ,-1.10778 ,-10.86953 
413 ,86.0426 ,1.70438 ,-1.09409 ,-10.73521 
414 ,86.2508 ,1.70652 ,-1.11805 ,-10.97026 
415 ,86.4746 ,1.70878 ,-1.13173 ,-11.10457 
416 ,86.6825 ,1.71081 ,-1.11120 ,-10.90310 
417 ,86.8907 ,1.71293 ,-1.13173 ,-11.10457 
418 ,87.0992 ,1.71497 ,-1.13173 ,-11.10457 
419 ,87.3069 ,1.71710 ,-1.14542 ,-11.23889 
420 ,87.5153 ,1.71919 ,-1.15911 ,-11.37320 
421 ,87.7233 ,1.72123 ,-1.15911 ,-11.37320 
422 ,87.9474 ,1.72350 ,-1.17622 ,-11.54109 
423 ,88.1875 ,1.72576 ,-1.18307 ,-11.60825 
424 ,88.3954 ,1.72790 ,-1.19676 ,-11.74256 
425 ,88.5877 ,1.72989 ,-1.19333 ,-11.70898 
426 ,88.7958 ,1.73193 ,-1.21387 ,-11.91045 
427 ,89.0038 ,1.73414 ,-1.20360 ,-11.80972 
428 ,89.1958 ,1.73599 ,-1.22755 ,-12.04477 
429 ,89.3878 ,1.73792 ,-1.22755 ,-12.04477 
430 ,89.5960 ,1.74000 ,-1.25493 ,-12.31339 
431 ,89.8201 ,1.74222 ,-1.23782 ,-12.14550 
432 ,90.0119 ,1.74426 ,-1.26178 ,-12.38055 
433 ,90.2203 ,1.74618 ,-1.26178 ,-12.38055 
434 ,90.4283 ,1.74841 ,-1.27204 ,-12.48128 
435 ,90.6205 ,1.75023 ,-1.28231 ,-12.58202 
436 ,90.8446 ,1.75251 ,-1.27889 ,-12.54844 
437 ,91.0683 ,1.75465 ,-1.31653 ,-12.91780 
438 ,91.2765 ,1.75679 ,-1.31311 ,-12.88422 
439 ,91.5009 ,1.75902 ,-1.31995 ,-12.95138 
440 ,91.7250 ,1.76112 ,-1.34049 ,-13.15285 
441 ,91.9328 ,1.76335 ,-1.35075 ,-13.25359 
442 ,92.1412 ,1.76538 ,-1.33706 ,-13.11927 
443 ,92.3492 ,1.76761 ,-1.35417 ,-13.28716 
444 ,92.5412 ,1.76947 ,-1.35417 ,-13.28716 
445 ,92.7494 ,1.77150 ,-1.38497 ,-13.58937 
446 ,92.9895 ,1.77366 ,-1.37813 ,-13.52221 
447 ,93.1976 ,1.77592 ,-1.39524 ,-13.69010 
448 ,93.3896 ,1.77794 ,-1.40209 ,-13.75726 
449 ,93.5818 ,1.77985 ,-1.39866 ,-13.72368 
450 ,93.7898 ,1.78185 ,-1.41235 ,-13.85799 
451 ,93.9979 ,1.78386 ,-1.40209 ,-13.75726 
452 ,94.2218 ,1.78616 ,-1.43288 ,-14.05946 
453 ,94.4137 ,1.78819 ,-1.43973 ,-14.12662 
454 ,94.6219 ,1.79023 ,-1.43288 ,-14.05946 
455 ,94.8302 ,1.79227 ,-1.47395 ,-14.46240 
456 ,95.0543 ,1.79454 ,-1.46026 ,-14.32809 
457 ,95.2784 ,1.79666 ,-1.46368 ,-14.36167 
458 ,95.4866 ,1.79880 ,-1.49106 ,-14.63030 
459 ,95.6946 ,1.80090 ,-1.46711 ,-14.39525 
460 ,95.9027 ,1.80304 ,-1.47395 ,-14.46240 
