Data stamp = , 17-05-2022 15:48:53 285

Calibration Values: 
Slope = , 26.54 , g/V 
Offset Voltage at no contact = , -0.501760 , V 

No , Time , Stage Position ,   Mass , Force 
   ,  (s) ,      (mm)      ,   (g)  , (mN)  

1 ,0.0000 ,0.84961 ,5.19927 ,51.01528 
2 ,0.3331 ,0.84987 ,5.18216 ,50.84739 
3 ,0.8133 ,0.85193 ,5.18901 ,50.91455 
4 ,1.0373 ,0.85473 ,5.19243 ,50.94813 
5 ,1.2617 ,0.85685 ,5.18216 ,50.84739 
6 ,1.4860 ,0.85908 ,5.18216 ,50.84739 
7 ,1.6939 ,0.86131 ,5.16848 ,50.71308 
8 ,1.8862 ,0.86327 ,5.16163 ,50.64592 
9 ,2.0938 ,0.86539 ,5.12741 ,50.31014 
10 ,2.3023 ,0.86739 ,5.10003 ,50.04151 
11 ,2.5260 ,0.86962 ,5.08634 ,49.90720 
12 ,2.7183 ,0.87163 ,5.07265 ,49.77289 
13 ,2.9103 ,0.87347 ,5.03843 ,49.43710 
14 ,3.1347 ,0.87564 ,5.03843 ,49.43710 
15 ,3.3264 ,0.87771 ,5.01448 ,49.20205 
16 ,3.5669 ,0.87978 ,4.99052 ,48.96701 
17 ,3.7749 ,0.88204 ,4.96657 ,48.73196 
18 ,3.9829 ,0.88414 ,4.93577 ,48.42975 
19 ,4.1912 ,0.88622 ,4.91523 ,48.22828 
20 ,4.4149 ,0.88847 ,4.90497 ,48.12755 
21 ,4.6071 ,0.89044 ,4.86732 ,47.75819 
22 ,4.8153 ,0.89251 ,4.86732 ,47.75819 
23 ,5.0234 ,0.89457 ,4.83995 ,47.48956 
24 ,5.2311 ,0.89662 ,4.79888 ,47.08662 
25 ,5.4394 ,0.89870 ,4.79204 ,47.01946 
26 ,5.6638 ,0.90093 ,4.76124 ,46.71726 
27 ,5.8877 ,0.90320 ,4.73728 ,46.48221 
28 ,6.0959 ,0.90532 ,4.74413 ,46.54937 
29 ,6.2879 ,0.90734 ,4.70648 ,46.18001 
30 ,6.5121 ,0.90943 ,4.66884 ,45.81065 
31 ,6.7358 ,0.91169 ,4.66542 ,45.77707 
32 ,6.9439 ,0.91376 ,4.62435 ,45.37413 
33 ,7.1200 ,0.91569 ,4.62777 ,45.40771 
34 ,7.3445 ,0.91766 ,4.59697 ,45.10550 
35 ,7.5686 ,0.91999 ,4.55933 ,44.73614 
36 ,7.7442 ,0.92195 ,4.56275 ,44.76972 
37 ,7.9524 ,0.92386 ,4.52853 ,44.43394 
38 ,8.1608 ,0.92587 ,4.51142 ,44.26604 
39 ,8.3689 ,0.92803 ,4.46693 ,43.82953 
40 ,8.5930 ,0.93026 ,4.45324 ,43.69521 
41 ,8.8009 ,0.93230 ,4.45666 ,43.72879 
42 ,9.0250 ,0.93456 ,4.41902 ,43.35943 
43 ,9.2492 ,0.93683 ,4.39164 ,43.09080 
44 ,9.4731 ,0.93905 ,4.36084 ,42.78860 
45 ,9.6975 ,0.94129 ,4.36427 ,42.82218 
46 ,9.9055 ,0.94348 ,4.35058 ,42.68786 
47 ,10.1131 ,0.94547 ,4.30951 ,42.28492 
48 ,10.3057 ,0.94740 ,4.29924 ,42.18419 
49 ,10.4977 ,0.94945 ,4.27871 ,41.98272 
50 ,10.6898 ,0.95129 ,4.25133 ,41.71409 
51 ,10.8820 ,0.95317 ,4.24449 ,41.64694 
52 ,11.1056 ,0.95536 ,4.21027 ,41.31115 
53 ,11.3142 ,0.95745 ,4.18974 ,41.10968 
54 ,11.5218 ,0.95963 ,4.18974 ,41.10968 
55 ,11.7143 ,0.96146 ,4.14525 ,40.67317 
56 ,11.9222 ,0.96363 ,4.13840 ,40.60601 
57 ,12.1302 ,0.96563 ,4.09391 ,40.16949 
58 ,12.3706 ,0.96795 ,4.09049 ,40.13591 
59 ,12.5946 ,0.97028 ,4.07338 ,39.96802 
60 ,12.7866 ,0.97220 ,4.04258 ,39.66582 
61 ,12.9787 ,0.97414 ,4.03574 ,39.59866 
62 ,13.1548 ,0.97601 ,3.98783 ,39.12856 
63 ,13.3465 ,0.97783 ,3.98098 ,39.06141 
64 ,13.5390 ,0.97971 ,3.97072 ,38.96067 
65 ,13.7472 ,0.98175 ,3.93650 ,38.62489 
66 ,13.9713 ,0.98397 ,3.90227 ,38.28911 
67 ,14.1952 ,0.98628 ,3.89201 ,38.18837 
68 ,14.4349 ,0.98847 ,3.87147 ,37.98690 
69 ,14.6434 ,0.99072 ,3.84067 ,37.68470 
70 ,14.8514 ,0.99279 ,3.82699 ,37.55038 
71 ,15.0598 ,0.99487 ,3.82014 ,37.48323 
72 ,15.2675 ,0.99697 ,3.76539 ,36.94597 
73 ,15.4755 ,0.99915 ,3.76196 ,36.91240 
74 ,15.6840 ,1.00118 ,3.76196 ,36.91240 
75 ,15.9079 ,1.00341 ,3.72090 ,36.50946 
76 ,16.1161 ,1.00545 ,3.69010 ,36.20725 
77 ,16.3402 ,1.00765 ,3.67983 ,36.10652 
78 ,16.5323 ,1.00974 ,3.64903 ,35.80431 
79 ,16.7403 ,1.01168 ,3.64903 ,35.80431 
80 ,16.9325 ,1.01376 ,3.61139 ,35.43495 
81 ,17.1405 ,1.01567 ,3.60112 ,35.33422 
82 ,17.3325 ,1.01777 ,3.56348 ,34.96485 
83 ,17.5401 ,1.01966 ,3.57032 ,35.03201 
84 ,17.7163 ,1.02164 ,3.53268 ,34.66265 
85 ,17.9248 ,1.02352 ,3.52926 ,34.62907 
86 ,18.1488 ,1.02578 ,3.48135 ,34.15898 
87 ,18.3247 ,1.02769 ,3.48819 ,34.22613 
88 ,18.5331 ,1.02966 ,3.45055 ,33.85677 
89 ,18.7573 ,1.03188 ,3.43686 ,33.72246 
90 ,18.9650 ,1.03399 ,3.41290 ,33.48741 
91 ,19.1733 ,1.03599 ,3.37184 ,33.08447 
92 ,19.3814 ,1.03806 ,3.38210 ,33.18520 
93 ,19.6055 ,1.04040 ,3.35130 ,32.88300 
94 ,19.7976 ,1.04230 ,3.32735 ,32.64795 
95 ,19.9734 ,1.04419 ,3.29997 ,32.37933 
96 ,20.1658 ,1.04599 ,3.30682 ,32.44648 
97 ,20.3739 ,1.04803 ,3.26917 ,32.07712 
98 ,20.5980 ,1.05026 ,3.25548 ,31.94281 
99 ,20.8060 ,1.05234 ,3.23153 ,31.70776 
100 ,21.0137 ,1.05441 ,3.19731 ,31.37198 
101 ,21.2222 ,1.05647 ,3.20073 ,31.40555 
102 ,21.4142 ,1.05852 ,3.14940 ,30.90188 
103 ,21.6064 ,1.06034 ,3.15624 ,30.96904 
104 ,21.8300 ,1.06246 ,3.11518 ,30.56610 
105 ,22.0225 ,1.06450 ,3.11175 ,30.53252 
106 ,22.2306 ,1.06662 ,3.08095 ,30.23031 
107 ,22.4386 ,1.06869 ,3.08095 ,30.23031 
108 ,22.6467 ,1.07069 ,3.03647 ,29.79380 
109 ,22.8554 ,1.07282 ,3.02278 ,29.65948 
110 ,23.0631 ,1.07498 ,3.01935 ,29.62590 
111 ,23.2869 ,1.07708 ,2.97487 ,29.18939 
112 ,23.4791 ,1.07906 ,2.97144 ,29.15581 
113 ,23.6872 ,1.08113 ,2.95433 ,28.98792 
114 ,23.8952 ,1.08324 ,2.91327 ,28.58498 
115 ,24.1034 ,1.08530 ,2.92011 ,28.65213 
116 ,24.2951 ,1.08723 ,2.86536 ,28.11488 
117 ,24.5036 ,1.08933 ,2.87905 ,28.24919 
118 ,24.7116 ,1.09135 ,2.84140 ,27.87983 
119 ,24.9036 ,1.09334 ,2.83798 ,27.84625 
120 ,25.1118 ,1.09535 ,2.79007 ,27.37616 
121 ,25.3516 ,1.09764 ,2.78322 ,27.30900 
122 ,25.5600 ,1.09992 ,2.77296 ,27.20827 
123 ,25.7678 ,1.10194 ,2.73874 ,26.87248 
124 ,25.9923 ,1.10414 ,2.70452 ,26.53670 
125 ,26.2003 ,1.10621 ,2.71136 ,26.60386 
126 ,26.4244 ,1.10854 ,2.68398 ,26.33523 
127 ,26.6323 ,1.11061 ,2.64634 ,25.96587 
128 ,26.8722 ,1.11286 ,2.63949 ,25.89871 
129 ,27.0647 ,1.11494 ,2.62923 ,25.79798 
130 ,27.2885 ,1.11711 ,2.58474 ,25.36146 
131 ,27.4968 ,1.11923 ,2.57789 ,25.29430 
132 ,27.7046 ,1.12141 ,2.56763 ,25.19357 
133 ,27.8970 ,1.12327 ,2.54025 ,24.92494 
134 ,28.1050 ,1.12525 ,2.52314 ,24.75705 
135 ,28.3131 ,1.12736 ,2.49576 ,24.48842 
136 ,28.5047 ,1.12931 ,2.50603 ,24.58916 
137 ,28.7128 ,1.13147 ,2.47523 ,24.28696 
138 ,28.9209 ,1.13347 ,2.44785 ,24.01833 
139 ,29.1295 ,1.13557 ,2.42048 ,23.74970 
140 ,29.3542 ,1.13780 ,2.39652 ,23.51465 
141 ,29.5614 ,1.13984 ,2.40679 ,23.61539 
142 ,29.7695 ,1.14197 ,2.37256 ,23.27961 
143 ,29.9777 ,1.14405 ,2.35545 ,23.11171 
144 ,30.1860 ,1.14615 ,2.34519 ,23.01098 
145 ,30.4100 ,1.14829 ,2.30754 ,22.64162 
146 ,30.6339 ,1.15055 ,2.28017 ,22.37299 
147 ,30.8423 ,1.15264 ,2.28701 ,22.44015 
148 ,31.0662 ,1.15492 ,2.26306 ,22.20510 
149 ,31.2740 ,1.15699 ,2.23226 ,21.90290 
150 ,31.4662 ,1.15892 ,2.22883 ,21.86932 
151 ,31.6745 ,1.16106 ,2.19119 ,21.49996 
152 ,31.8662 ,1.16293 ,2.18777 ,21.46638 
153 ,32.0583 ,1.16486 ,2.17750 ,21.36564 
154 ,32.2667 ,1.16688 ,2.16039 ,21.19775 
155 ,32.4749 ,1.16900 ,2.12275 ,20.82839 
156 ,32.6828 ,1.17102 ,2.12275 ,20.82839 
157 ,32.8911 ,1.17316 ,2.09195 ,20.52619 
158 ,33.0991 ,1.17521 ,2.07826 ,20.39187 
159 ,33.3232 ,1.17738 ,2.05430 ,20.15682 
160 ,33.5474 ,1.17966 ,2.05773 ,20.19040 
161 ,33.7554 ,1.18179 ,2.01666 ,19.78746 
162 ,33.9795 ,1.18399 ,2.02350 ,19.85462 
163 ,34.1874 ,1.18612 ,2.00639 ,19.68673 
164 ,34.3954 ,1.18819 ,1.97902 ,19.41810 
165 ,34.6197 ,1.19030 ,1.96875 ,19.31737 
166 ,34.8603 ,1.19269 ,1.95848 ,19.21663 
167 ,35.0679 ,1.19492 ,1.92768 ,18.91443 
168 ,35.2760 ,1.19706 ,1.90031 ,18.64580 
169 ,35.4839 ,1.19910 ,1.91057 ,18.74654 
170 ,35.7079 ,1.20127 ,1.87977 ,18.44433 
171 ,35.9161 ,1.20337 ,1.85582 ,18.20928 
172 ,36.1242 ,1.20547 ,1.84897 ,18.14213 
173 ,36.3323 ,1.20763 ,1.82844 ,17.94066 
174 ,36.5724 ,1.20974 ,1.81817 ,17.83992 
175 ,36.7963 ,1.21225 ,1.78395 ,17.50414 
176 ,37.0046 ,1.21426 ,1.78395 ,17.50414 
177 ,37.2127 ,1.21632 ,1.74631 ,17.13478 
178 ,37.4208 ,1.21846 ,1.74973 ,17.16836 
179 ,37.6124 ,1.22040 ,1.72235 ,16.89973 
180 ,37.8050 ,1.22231 ,1.72920 ,16.96689 
181 ,38.0286 ,1.22445 ,1.69155 ,16.59752 
182 ,38.2212 ,1.22648 ,1.69155 ,16.59752 
183 ,38.4452 ,1.22865 ,1.67786 ,16.46321 
184 ,38.6529 ,1.23085 ,1.64707 ,16.16101 
185 ,38.8619 ,1.23284 ,1.63338 ,16.02669 
186 ,39.0854 ,1.23502 ,1.62653 ,15.95954 
187 ,39.2936 ,1.23720 ,1.59231 ,15.62375 
188 ,39.5175 ,1.23936 ,1.57862 ,15.48944 
189 ,39.7098 ,1.24130 ,1.57862 ,15.48944 
190 ,39.9338 ,1.24350 ,1.54098 ,15.12008 
191 ,40.1577 ,1.24574 ,1.53071 ,15.01934 
192 ,40.3339 ,1.24768 ,1.53413 ,15.05292 
193 ,40.5419 ,1.24971 ,1.51702 ,14.88503 
194 ,40.7338 ,1.25165 ,1.48965 ,14.61640 
195 ,40.9421 ,1.25364 ,1.49307 ,14.64998 
196 ,41.1664 ,1.25584 ,1.46911 ,14.41493 
197 ,41.3905 ,1.25809 ,1.43831 ,14.11273 
198 ,41.6145 ,1.26035 ,1.40751 ,13.81053 
199 ,41.8227 ,1.26242 ,1.42120 ,13.94484 
200 ,42.0467 ,1.26465 ,1.41094 ,13.84410 
201 ,42.2547 ,1.26672 ,1.35618 ,13.30685 
202 ,42.4469 ,1.26869 ,1.36987 ,13.44116 
203 ,42.6549 ,1.27076 ,1.34591 ,13.20612 
204 ,42.8631 ,1.27283 ,1.33565 ,13.10538 
205 ,43.0548 ,1.27484 ,1.30827 ,12.83675 
206 ,43.2793 ,1.27688 ,1.31169 ,12.87033 
207 ,43.5034 ,1.27921 ,1.29458 ,12.70244 
208 ,43.7269 ,1.28144 ,1.27063 ,12.46739 
209 ,43.9350 ,1.28351 ,1.23983 ,12.16519 
210 ,44.1431 ,1.28571 ,1.24667 ,12.23235 
211 ,44.3672 ,1.28788 ,1.23983 ,12.16519 
212 ,44.5756 ,1.28991 ,1.19192 ,11.69509 
213 ,44.7678 ,1.29188 ,1.20561 ,11.82941 
214 ,44.9919 ,1.29406 ,1.17138 ,11.49362 
215 ,45.2160 ,1.29632 ,1.13374 ,11.12426 
216 ,45.4241 ,1.29842 ,1.15770 ,11.35931 
217 ,45.6478 ,1.30062 ,1.13374 ,11.12426 
218 ,45.8402 ,1.30262 ,1.12005 ,10.98995 
219 ,46.0643 ,1.30479 ,1.09952 ,10.78848 
220 ,46.2725 ,1.30689 ,1.08241 ,10.62059 
221 ,46.4965 ,1.30915 ,1.05845 ,10.38554 
222 ,46.6885 ,1.31109 ,1.06187 ,10.41912 
223 ,46.8807 ,1.31301 ,1.04476 ,10.25123 
224 ,47.0888 ,1.31504 ,1.03108 ,10.11691 
225 ,47.3287 ,1.31741 ,1.01396 ,9.94902 
226 ,47.5525 ,1.31969 ,0.97632 ,9.57966 
227 ,47.7450 ,1.32173 ,0.99343 ,9.74755 
228 ,47.9211 ,1.32355 ,0.95579 ,9.37819 
229 ,48.1132 ,1.32540 ,0.93525 ,9.17672 
230 ,48.3374 ,1.32751 ,0.93525 ,9.17672 
231 ,48.5293 ,1.32958 ,0.94552 ,9.27745 
232 ,48.7213 ,1.33140 ,0.92157 ,9.04241 
233 ,48.8973 ,1.33330 ,0.89419 ,8.77378 
234 ,49.1056 ,1.33522 ,0.89419 ,8.77378 
235 ,49.3135 ,1.33725 ,0.86339 ,8.47158 
236 ,49.5057 ,1.33926 ,0.87366 ,8.57231 
237 ,49.7135 ,1.34130 ,0.83943 ,8.23653 
238 ,49.9380 ,1.34349 ,0.84286 ,8.27011 
239 ,50.1623 ,1.34578 ,0.82917 ,8.13579 
240 ,50.3701 ,1.34783 ,0.82232 ,8.06864 
241 ,50.5780 ,1.34992 ,0.78468 ,7.69927 
242 ,50.7861 ,1.35204 ,0.77441 ,7.59854 
243 ,50.9943 ,1.35417 ,0.76072 ,7.46423 
244 ,51.2185 ,1.35630 ,0.74361 ,7.29633 
245 ,51.4427 ,1.35860 ,0.72992 ,7.16202 
246 ,51.6507 ,1.36069 ,0.72308 ,7.09486 
247 ,51.8586 ,1.36271 ,0.70597 ,6.92697 
248 ,52.0348 ,1.36464 ,0.69570 ,6.82624 
249 ,52.2267 ,1.36646 ,0.68886 ,6.75908 
250 ,52.4351 ,1.36851 ,0.66490 ,6.52403 
251 ,52.6432 ,1.37057 ,0.66833 ,6.55761 
252 ,52.8518 ,1.37268 ,0.64437 ,6.32256 
253 ,53.0748 ,1.37488 ,0.61015 ,5.98678 
254 ,53.2674 ,1.37698 ,0.62384 ,6.12109 
255 ,53.4750 ,1.37902 ,0.60330 ,5.91962 
256 ,53.6675 ,1.38084 ,0.60330 ,5.91962 
257 ,53.8756 ,1.38290 ,0.56566 ,5.55026 
258 ,54.0991 ,1.38513 ,0.55882 ,5.48311 
259 ,54.2752 ,1.38705 ,0.54171 ,5.31522 
260 ,54.4676 ,1.38886 ,0.54513 ,5.34879 
261 ,54.6918 ,1.39102 ,0.51433 ,5.04659 
262 ,54.8999 ,1.39313 ,0.50406 ,4.94585 
263 ,55.1240 ,1.39525 ,0.50748 ,4.97943 
264 ,55.3158 ,1.39733 ,0.47326 ,4.64365 
265 ,55.5242 ,1.39940 ,0.48011 ,4.71081 
266 ,55.7482 ,1.40160 ,0.46984 ,4.61007 
267 ,55.9565 ,1.40368 ,0.43220 ,4.24071 
268 ,56.1484 ,1.40567 ,0.43562 ,4.27429 
269 ,56.3577 ,1.40769 ,0.41166 ,4.03924 
270 ,56.5804 ,1.41000 ,0.42193 ,4.13997 
271 ,56.7887 ,1.41204 ,0.40482 ,3.97208 
272 ,56.9970 ,1.41414 ,0.37402 ,3.66988 
273 ,57.2051 ,1.41616 ,0.38086 ,3.73703 
274 ,57.4290 ,1.41845 ,0.35006 ,3.43483 
275 ,57.6211 ,1.42043 ,0.33638 ,3.30052 
276 ,57.8133 ,1.42227 ,0.32953 ,3.23336 
277 ,58.0213 ,1.42429 ,0.33295 ,3.26694 
278 ,58.2135 ,1.42632 ,0.30900 ,3.03189 
279 ,58.4535 ,1.42855 ,0.29873 ,2.93116 
280 ,58.6772 ,1.43088 ,0.28504 ,2.79684 
281 ,58.9017 ,1.43304 ,0.28847 ,2.83042 
282 ,59.1096 ,1.43526 ,0.27478 ,2.69611 
283 ,59.3177 ,1.43730 ,0.23029 ,2.25959 
284 ,59.5098 ,1.43925 ,0.24398 ,2.39390 
285 ,59.7179 ,1.44129 ,0.20976 ,2.05812 
286 ,59.9580 ,1.44359 ,0.22002 ,2.15885 
287 ,60.1663 ,1.44576 ,0.20976 ,2.05812 
288 ,60.3581 ,1.44776 ,0.16527 ,1.62160 
289 ,60.5505 ,1.44963 ,0.17553 ,1.72234 
290 ,60.7745 ,1.45187 ,0.15500 ,1.52087 
291 ,60.9826 ,1.45393 ,0.14816 ,1.45371 
292 ,61.1903 ,1.45604 ,0.14816 ,1.45371 
293 ,61.4148 ,1.45818 ,0.11393 ,1.11793 
294 ,61.6387 ,1.46054 ,0.09682 ,0.95004 
295 ,61.8310 ,1.46248 ,0.10025 ,0.98361 
296 ,62.0225 ,1.46445 ,0.07629 ,0.74857 
297 ,62.2151 ,1.46632 ,0.07629 ,0.74857 
298 ,62.4071 ,1.46821 ,0.08656 ,0.84930 
299 ,62.5991 ,1.47015 ,0.04891 ,0.47994 
300 ,62.8074 ,1.47218 ,0.06260 ,0.61425 
301 ,63.0155 ,1.47426 ,0.01469 ,0.14416 
302 ,63.2555 ,1.47659 ,0.02496 ,0.24489 
303 ,63.4796 ,1.47885 ,0.01469 ,0.14416 
304 ,63.6878 ,1.48096 ,-0.00242 ,-0.02373 
305 ,63.8957 ,1.48309 ,-0.01611 ,-0.15805 
306 ,64.1040 ,1.48518 ,-0.02295 ,-0.22520 
307 ,64.3119 ,1.48728 ,-0.02637 ,-0.25878 
308 ,64.5361 ,1.48942 ,-0.04348 ,-0.42667 
309 ,64.7603 ,1.49171 ,-0.05375 ,-0.52741 
310 ,64.9680 ,1.49378 ,-0.04006 ,-0.39310 
311 ,65.1764 ,1.49583 ,-0.08113 ,-0.79604 
312 ,65.3845 ,1.49794 ,-0.08455 ,-0.82961 
313 ,65.6083 ,1.50017 ,-0.08455 ,-0.82961 
314 ,65.8164 ,1.50232 ,-0.12219 ,-1.19898 
315 ,66.0246 ,1.50437 ,-0.11193 ,-1.09824 
316 ,66.2487 ,1.50659 ,-0.12219 ,-1.19898 
317 ,66.4405 ,1.50854 ,-0.14615 ,-1.43402 
318 ,66.6166 ,1.51041 ,-0.13931 ,-1.36687 
319 ,66.7926 ,1.51219 ,-0.15642 ,-1.53476 
320 ,66.9846 ,1.51395 ,-0.14957 ,-1.46760 
321 ,67.1769 ,1.51586 ,-0.17695 ,-1.73623 
322 ,67.3849 ,1.51791 ,-0.18379 ,-1.80338 
323 ,67.5770 ,1.51988 ,-0.20775 ,-2.03843 
324 ,67.7856 ,1.52199 ,-0.21117 ,-2.07201 
325 ,68.0095 ,1.52415 ,-0.20433 ,-2.00485 
326 ,68.2174 ,1.52622 ,-0.24197 ,-2.37422 
327 ,68.4258 ,1.52833 ,-0.23855 ,-2.34064 
328 ,68.6334 ,1.53040 ,-0.24539 ,-2.40779 
329 ,68.8420 ,1.53252 ,-0.26593 ,-2.60926 
330 ,69.0500 ,1.53466 ,-0.26935 ,-2.64284 
331 ,69.2579 ,1.53661 ,-0.29673 ,-2.91147 
332 ,69.4823 ,1.53892 ,-0.30015 ,-2.94505 
333 ,69.6898 ,1.54096 ,-0.28988 ,-2.84431 
334 ,69.9144 ,1.54322 ,-0.31726 ,-3.11294 
335 ,70.1545 ,1.54574 ,-0.32068 ,-3.14652 
336 ,70.3467 ,1.54760 ,-0.34806 ,-3.41514 
337 ,70.5547 ,1.54962 ,-0.35832 ,-3.51588 
338 ,70.7629 ,1.55171 ,-0.36859 ,-3.61661 
339 ,70.9708 ,1.55384 ,-0.36859 ,-3.61661 
340 ,71.1788 ,1.55591 ,-0.38228 ,-3.75093 
341 ,71.3709 ,1.55784 ,-0.38228 ,-3.75093 
342 ,71.5632 ,1.55972 ,-0.40966 ,-4.01955 
343 ,71.7872 ,1.56196 ,-0.40966 ,-4.01955 
344 ,71.9948 ,1.56405 ,-0.41650 ,-4.08671 
345 ,72.1873 ,1.56597 ,-0.41992 ,-4.12029 
346 ,72.3791 ,1.56791 ,-0.44730 ,-4.38891 
347 ,72.5872 ,1.56998 ,-0.45072 ,-4.42249 
348 ,72.7955 ,1.57206 ,-0.46441 ,-4.55681 
349 ,72.9877 ,1.57404 ,-0.47810 ,-4.69112 
350 ,73.1958 ,1.57608 ,-0.49521 ,-4.85901 
351 ,73.4038 ,1.57815 ,-0.49521 ,-4.85901 
352 ,73.6279 ,1.58031 ,-0.49863 ,-4.89259 
353 ,73.8360 ,1.58242 ,-0.52259 ,-5.12764 
354 ,74.0600 ,1.58463 ,-0.54312 ,-5.32911 
355 ,74.2682 ,1.58672 ,-0.52601 ,-5.16121 
356 ,74.4924 ,1.58894 ,-0.52943 ,-5.19479 
357 ,74.7162 ,1.59123 ,-0.54997 ,-5.39626 
358 ,74.9243 ,1.59333 ,-0.58419 ,-5.73205 
359 ,75.1326 ,1.59540 ,-0.56708 ,-5.56415 
360 ,75.3566 ,1.59754 ,-0.59103 ,-5.79920 
361 ,75.5808 ,1.59986 ,-0.61156 ,-6.00067 
362 ,75.7888 ,1.60203 ,-0.60472 ,-5.93352 
363 ,75.9969 ,1.60417 ,-0.60130 ,-5.89994 
364 ,76.1890 ,1.60598 ,-0.62183 ,-6.10141 
365 ,76.3647 ,1.60787 ,-0.64921 ,-6.37003 
366 ,76.5732 ,1.60983 ,-0.63552 ,-6.23572 
367 ,76.8133 ,1.61213 ,-0.63894 ,-6.26930 
368 ,77.0211 ,1.61424 ,-0.68343 ,-6.70582 
369 ,77.2456 ,1.61650 ,-0.67659 ,-6.63866 
370 ,77.4373 ,1.61860 ,-0.66632 ,-6.53793 
371 ,77.6614 ,1.62071 ,-0.70054 ,-6.87371 
372 ,77.8697 ,1.62274 ,-0.68685 ,-6.73940 
373 ,78.0938 ,1.62496 ,-0.71423 ,-7.00802 
374 ,78.3018 ,1.62706 ,-0.74503 ,-7.31023 
375 ,78.5099 ,1.62912 ,-0.71765 ,-7.04160 
376 ,78.7341 ,1.63135 ,-0.75187 ,-7.37738 
377 ,78.9419 ,1.63353 ,-0.75872 ,-7.44454 
378 ,79.1502 ,1.63551 ,-0.75187 ,-7.37738 
379 ,79.3743 ,1.63778 ,-0.76898 ,-7.54527 
380 ,79.5824 ,1.63984 ,-0.78610 ,-7.71317 
381 ,79.8063 ,1.64208 ,-0.78610 ,-7.71317 
382 ,80.0146 ,1.64427 ,-0.78610 ,-7.71317 
383 ,80.2227 ,1.64634 ,-0.81689 ,-8.01537 
384 ,80.4467 ,1.64848 ,-0.82032 ,-8.04895 
385 ,80.6547 ,1.65061 ,-0.82374 ,-8.08253 
386 ,80.8465 ,1.65253 ,-0.84427 ,-8.28400 
387 ,81.0550 ,1.65456 ,-0.84427 ,-8.28400 
388 ,81.3110 ,1.65696 ,-0.86138 ,-8.45189 
389 ,81.5351 ,1.65935 ,-0.85796 ,-8.41831 
390 ,81.7271 ,1.66138 ,-0.89560 ,-8.78767 
391 ,81.9510 ,1.66357 ,-0.88534 ,-8.68694 
392 ,82.1592 ,1.66561 ,-0.89903 ,-8.82125 
393 ,82.3673 ,1.66768 ,-0.92298 ,-9.05630 
394 ,82.5756 ,1.66982 ,-0.89560 ,-8.78767 
395 ,82.7836 ,1.67188 ,-0.94009 ,-9.22419 
396 ,82.9916 ,1.67393 ,-0.93667 ,-9.19061 
397 ,83.2157 ,1.67615 ,-0.93325 ,-9.15703 
398 ,83.4077 ,1.67814 ,-0.95378 ,-9.35850 
399 ,83.6158 ,1.68017 ,-0.94351 ,-9.25777 
400 ,83.8240 ,1.68231 ,-0.97431 ,-9.55997 
401 ,84.0323 ,1.68431 ,-0.97089 ,-9.52639 
402 ,84.2243 ,1.68638 ,-0.98458 ,-9.66071 
403 ,84.4164 ,1.68823 ,-0.97774 ,-9.59355 
404 ,84.6405 ,1.69040 ,-0.99827 ,-9.79502 
405 ,84.8484 ,1.69254 ,-1.02222 ,-10.03007 
406 ,85.0567 ,1.69464 ,-1.01538 ,-9.96291 
407 ,85.2644 ,1.69664 ,-1.03591 ,-10.16438 
408 ,85.4728 ,1.69874 ,-1.02565 ,-10.06365 
409 ,85.6970 ,1.70104 ,-1.02907 ,-10.09723 
410 ,85.9047 ,1.70307 ,-1.05645 ,-10.36585 
411 ,86.1291 ,1.70527 ,-1.04960 ,-10.29869 
412 ,86.3369 ,1.70738 ,-1.05645 ,-10.36585 
413 ,86.5614 ,1.70963 ,-1.07014 ,-10.50016 
414 ,86.7855 ,1.71188 ,-1.09751 ,-10.76879 
415 ,87.0095 ,1.71410 ,-1.11120 ,-10.90310 
416 ,87.2337 ,1.71637 ,-1.10093 ,-10.80237 
417 ,87.4415 ,1.71843 ,-1.12489 ,-11.03742 
418 ,87.6818 ,1.72075 ,-1.13516 ,-11.13815 
419 ,87.9058 ,1.72305 ,-1.14200 ,-11.20531 
420 ,88.1140 ,1.72510 ,-1.14200 ,-11.20531 
421 ,88.3220 ,1.72720 ,-1.14884 ,-11.27247 
422 ,88.5302 ,1.72929 ,-1.16253 ,-11.40678 
423 ,88.7542 ,1.73158 ,-1.16253 ,-11.40678 
424 ,88.9622 ,1.73362 ,-1.18649 ,-11.64183 
425 ,89.2019 ,1.73599 ,-1.18649 ,-11.64183 
426 ,89.4101 ,1.73815 ,-1.21044 ,-11.87688 
427 ,89.6344 ,1.74028 ,-1.20018 ,-11.77614 
428 ,89.8747 ,1.74265 ,-1.21044 ,-11.87688 
429 ,90.1147 ,1.74504 ,-1.21729 ,-11.94403 
430 ,90.3226 ,1.74727 ,-1.23098 ,-12.07834 
431 ,90.5467 ,1.74948 ,-1.25835 ,-12.34697 
432 ,90.7386 ,1.75140 ,-1.24124 ,-12.17908 
433 ,90.9307 ,1.75334 ,-1.27204 ,-12.48128 
434 ,91.1392 ,1.75539 ,-1.25835 ,-12.34697 
435 ,91.3473 ,1.75749 ,-1.28915 ,-12.64918 
436 ,91.5553 ,1.75958 ,-1.26520 ,-12.41413 
437 ,91.7636 ,1.76162 ,-1.29942 ,-12.74991 
438 ,91.9711 ,1.76376 ,-1.31995 ,-12.95138 
439 ,92.1796 ,1.76586 ,-1.30284 ,-12.78349 
440 ,92.4515 ,1.76839 ,-1.30969 ,-12.85065 
441 ,92.6598 ,1.77058 ,-1.32680 ,-13.01854 
442 ,92.8679 ,1.77261 ,-1.33706 ,-13.11927 
443 ,93.0756 ,1.77472 ,-1.33022 ,-13.05212 
444 ,93.2841 ,1.77688 ,-1.34391 ,-13.18643 
445 ,93.4923 ,1.77899 ,-1.36102 ,-13.35432 
446 ,93.7003 ,1.78096 ,-1.34049 ,-13.15285 
447 ,93.9082 ,1.78307 ,-1.37129 ,-13.45506 
448 ,94.1163 ,1.78519 ,-1.36786 ,-13.42148 
449 ,94.3403 ,1.78743 ,-1.38155 ,-13.55579 
450 ,94.5646 ,1.78962 ,-1.38497 ,-13.58937 
451 ,94.7884 ,1.79186 ,-1.41920 ,-13.92515 
452 ,94.9968 ,1.79400 ,-1.39524 ,-13.69010 
453 ,95.2207 ,1.79616 ,-1.39182 ,-13.65653 
454 ,95.4449 ,1.79833 ,-1.42262 ,-13.95873 
455 ,95.6689 ,1.80065 ,-1.44315 ,-14.16020 
456 ,95.8931 ,1.80285 ,-1.43973 ,-14.12662 
457 ,96.1011 ,1.80496 ,-1.43288 ,-14.05946 
458 ,96.2931 ,1.80696 ,-1.45342 ,-14.26093 
459 ,96.4851 ,1.80891 ,-1.44657 ,-14.19378 
460 ,96.6773 ,1.81078 ,-1.47053 ,-14.42883 
