Data stamp = , 16-05-2022 15:32:05 068

Calibration Values: 
Slope = , 26.54 , g/V 
Offset Voltage at no contact = , -0.501760 , V 

No , Time , Stage Position ,   Mass , Force 
   ,  (s) ,      (mm)      ,   (g)  , (mN)  

1 ,0.0000 ,0.84970 ,5.40803 ,53.06356 
2 ,0.2447 ,0.84981 ,5.39776 ,52.96282 
3 ,0.8853 ,0.85232 ,5.38407 ,52.82851 
4 ,1.1093 ,0.85548 ,5.39092 ,52.89567 
5 ,1.3332 ,0.85763 ,5.40803 ,53.06356 
6 ,1.5418 ,0.85980 ,5.38065 ,52.79493 
7 ,1.7497 ,0.86193 ,5.37038 ,52.69420 
8 ,1.9418 ,0.86382 ,5.34643 ,52.45915 
9 ,2.1501 ,0.86590 ,5.33958 ,52.39199 
10 ,2.3579 ,0.86792 ,5.30536 ,52.05621 
11 ,2.5661 ,0.87015 ,5.29167 ,51.92190 
12 ,2.7902 ,0.87232 ,5.27456 ,51.75401 
13 ,2.9820 ,0.87429 ,5.24376 ,51.45180 
14 ,3.1745 ,0.87618 ,5.23692 ,51.38464 
15 ,3.3984 ,0.87837 ,5.20612 ,51.08244 
16 ,3.5902 ,0.88032 ,5.19585 ,50.98170 
17 ,3.7826 ,0.88226 ,5.16505 ,50.67950 
18 ,3.9749 ,0.88417 ,5.16848 ,50.71308 
19 ,4.1989 ,0.88637 ,5.12741 ,50.31014 
20 ,4.3909 ,0.88834 ,5.11372 ,50.17583 
21 ,4.5827 ,0.89025 ,5.07265 ,49.77289 
22 ,4.7911 ,0.89233 ,5.06923 ,49.73931 
23 ,5.0153 ,0.89456 ,5.05212 ,49.57142 
24 ,5.2233 ,0.89659 ,5.01106 ,49.16848 
25 ,5.4473 ,0.89886 ,4.98710 ,48.93343 
26 ,5.6556 ,0.90094 ,4.98710 ,48.93343 
27 ,5.8633 ,0.90303 ,4.93919 ,48.46333 
28 ,6.0714 ,0.90510 ,4.94261 ,48.49691 
29 ,6.3117 ,0.90750 ,4.92208 ,48.29544 
30 ,6.5038 ,0.90956 ,4.88444 ,47.92608 
31 ,6.6799 ,0.91131 ,4.88101 ,47.89250 
32 ,6.8714 ,0.91316 ,4.84337 ,47.52314 
33 ,7.0801 ,0.91516 ,4.83652 ,47.45598 
34 ,7.2882 ,0.91733 ,4.79888 ,47.08662 
35 ,7.4802 ,0.91924 ,4.79204 ,47.01946 
36 ,7.6883 ,0.92128 ,4.75097 ,46.61653 
37 ,7.8963 ,0.92342 ,4.74413 ,46.54937 
38 ,8.1044 ,0.92548 ,4.70648 ,46.18001 
39 ,8.3126 ,0.92754 ,4.69964 ,46.11285 
40 ,8.5366 ,0.92975 ,4.68937 ,46.01212 
41 ,8.7448 ,0.93182 ,4.65173 ,45.64275 
42 ,8.9366 ,0.93381 ,4.65173 ,45.64275 
43 ,9.1609 ,0.93595 ,4.63119 ,45.44128 
44 ,9.3691 ,0.93819 ,4.58671 ,45.00477 
45 ,9.5771 ,0.94012 ,4.59355 ,45.07192 
46 ,9.7852 ,0.94216 ,4.55249 ,44.66898 
47 ,9.9932 ,0.94432 ,4.54564 ,44.60183 
48 ,10.2008 ,0.94632 ,4.53195 ,44.46751 
49 ,10.3934 ,0.94834 ,4.50115 ,44.16531 
50 ,10.6174 ,0.95043 ,4.47720 ,43.93026 
51 ,10.8256 ,0.95263 ,4.43955 ,43.56090 
52 ,11.0336 ,0.95471 ,4.42586 ,43.42659 
53 ,11.2413 ,0.95678 ,4.41902 ,43.35943 
54 ,11.4659 ,0.95891 ,4.39849 ,43.15796 
55 ,11.6898 ,0.96121 ,4.36084 ,42.78860 
56 ,11.8819 ,0.96323 ,4.36427 ,42.82218 
57 ,12.0901 ,0.96522 ,4.33689 ,42.55355 
58 ,12.2981 ,0.96735 ,4.32320 ,42.41924 
59 ,12.5062 ,0.96941 ,4.28898 ,42.08345 
60 ,12.7304 ,0.97162 ,4.26502 ,41.84841 
61 ,12.9384 ,0.97373 ,4.27529 ,41.94914 
62 ,13.1465 ,0.97580 ,4.22738 ,41.47905 
63 ,13.3387 ,0.97780 ,4.22738 ,41.47905 
64 ,13.5463 ,0.97983 ,4.18631 ,41.07611 
65 ,13.7388 ,0.98180 ,4.18289 ,41.04253 
66 ,13.9628 ,0.98398 ,4.14867 ,40.70674 
67 ,14.1711 ,0.98609 ,4.12129 ,40.43812 
68 ,14.3790 ,0.98814 ,4.11787 ,40.40454 
69 ,14.5712 ,0.99010 ,4.07338 ,39.96802 
70 ,14.7952 ,0.99233 ,4.08365 ,40.06876 
71 ,14.9874 ,0.99429 ,4.05285 ,39.76655 
72 ,15.1955 ,0.99627 ,4.03916 ,39.63224 
73 ,15.4035 ,0.99838 ,4.01178 ,39.36361 
74 ,15.6273 ,1.00058 ,3.98098 ,39.06141 
75 ,15.8356 ,1.00271 ,3.96729 ,38.92709 
76 ,16.0758 ,1.00497 ,3.96045 ,38.85994 
77 ,16.2838 ,1.00723 ,3.94334 ,38.69205 
78 ,16.4920 ,1.00921 ,3.89543 ,38.22195 
79 ,16.7000 ,1.01133 ,3.88516 ,38.12122 
80 ,16.9241 ,1.01356 ,3.85779 ,37.85259 
81 ,17.1323 ,1.01573 ,3.83383 ,37.61754 
82 ,17.3880 ,1.01823 ,3.80987 ,37.38249 
83 ,17.5804 ,1.02019 ,3.80645 ,37.34891 
84 ,17.7884 ,1.02223 ,3.77565 ,37.04671 
85 ,17.9801 ,1.02417 ,3.77223 ,37.01313 
86 ,18.1725 ,1.02613 ,3.73801 ,36.67735 
87 ,18.3647 ,1.02801 ,3.73801 ,36.67735 
88 ,18.5886 ,1.03023 ,3.69694 ,36.27441 
89 ,18.8129 ,1.03243 ,3.66614 ,35.97220 
90 ,19.0366 ,1.03473 ,3.67299 ,36.03936 
91 ,19.2611 ,1.03686 ,3.64903 ,35.80431 
92 ,19.4692 ,1.03915 ,3.61823 ,35.50211 
93 ,19.6773 ,1.04113 ,3.60112 ,35.33422 
94 ,19.8854 ,1.04320 ,3.58401 ,35.16632 
95 ,20.0934 ,1.04534 ,3.55321 ,34.86412 
96 ,20.3015 ,1.04736 ,3.54979 ,34.83054 
97 ,20.5255 ,1.04959 ,3.52584 ,34.59549 
98 ,20.7337 ,1.05168 ,3.48819 ,34.22613 
99 ,20.9416 ,1.05371 ,3.48477 ,34.19255 
100 ,21.1660 ,1.05594 ,3.46766 ,34.02466 
101 ,21.3579 ,1.05801 ,3.43344 ,33.68888 
102 ,21.5500 ,1.05983 ,3.41290 ,33.48741 
103 ,21.7740 ,1.06206 ,3.38553 ,33.21878 
104 ,21.9818 ,1.06416 ,3.38553 ,33.21878 
105 ,22.1743 ,1.06611 ,3.34788 ,32.84942 
106 ,22.3819 ,1.06810 ,3.34104 ,32.78227 
107 ,22.5904 ,1.07021 ,3.31024 ,32.48006 
108 ,22.7825 ,1.07216 ,3.31366 ,32.51364 
109 ,22.9904 ,1.07418 ,3.26575 ,32.04354 
110 ,23.1981 ,1.07632 ,3.27259 ,32.11070 
111 ,23.4063 ,1.07839 ,3.24864 ,31.87565 
112 ,23.6143 ,1.08046 ,3.22811 ,31.67418 
113 ,23.8387 ,1.08257 ,3.21442 ,31.53987 
114 ,24.0791 ,1.08512 ,3.17677 ,31.17051 
115 ,24.2871 ,1.08723 ,3.17677 ,31.17051 
116 ,24.4953 ,1.08935 ,3.12544 ,30.66683 
117 ,24.6873 ,1.09123 ,3.13913 ,30.80115 
118 ,24.8789 ,1.09311 ,3.09806 ,30.39821 
119 ,25.0712 ,1.09505 ,3.08780 ,30.29747 
120 ,25.2635 ,1.09693 ,3.09122 ,30.33105 
121 ,25.4557 ,1.09888 ,3.05015 ,29.92811 
122 ,25.6793 ,1.10107 ,3.03989 ,29.82737 
123 ,25.8876 ,1.10315 ,3.02620 ,29.69306 
124 ,26.1117 ,1.10540 ,2.99198 ,29.35728 
125 ,26.3036 ,1.10748 ,2.98513 ,29.29012 
126 ,26.4959 ,1.10929 ,2.95776 ,29.02150 
127 ,26.7039 ,1.11133 ,2.96802 ,29.12223 
128 ,26.9120 ,1.11353 ,2.92696 ,28.71929 
129 ,27.1040 ,1.11534 ,2.90985 ,28.55140 
130 ,27.2962 ,1.11730 ,2.87905 ,28.24919 
131 ,27.5044 ,1.11936 ,2.87220 ,28.18204 
132 ,27.7123 ,1.12147 ,2.84825 ,27.94699 
133 ,27.9042 ,1.12337 ,2.84482 ,27.91341 
134 ,28.1124 ,1.12552 ,2.79691 ,27.44332 
135 ,28.3207 ,1.12752 ,2.79691 ,27.44332 
136 ,28.5448 ,1.12966 ,2.79691 ,27.44332 
137 ,28.7689 ,1.13198 ,2.75243 ,27.00680 
138 ,28.9611 ,1.13395 ,2.73874 ,26.87248 
139 ,29.1690 ,1.13611 ,2.72505 ,26.73817 
140 ,29.3610 ,1.13794 ,2.69767 ,26.46954 
141 ,29.5531 ,1.13982 ,2.67714 ,26.26807 
142 ,29.7610 ,1.14189 ,2.67714 ,26.26807 
143 ,29.9693 ,1.14399 ,2.64634 ,25.96587 
144 ,30.1769 ,1.14611 ,2.62923 ,25.79798 
145 ,30.3855 ,1.14810 ,2.62238 ,25.73082 
146 ,30.5935 ,1.15023 ,2.57789 ,25.29430 
147 ,30.7857 ,1.15214 ,2.59158 ,25.42862 
148 ,31.0098 ,1.15437 ,2.55394 ,25.05926 
149 ,31.2174 ,1.15642 ,2.52998 ,24.82421 
150 ,31.4259 ,1.15858 ,2.51972 ,24.72347 
151 ,31.6340 ,1.16067 ,2.47865 ,24.32053 
152 ,31.8418 ,1.16266 ,2.49576 ,24.48842 
153 ,32.0502 ,1.16479 ,2.44785 ,24.01833 
154 ,32.2583 ,1.16683 ,2.43416 ,23.88402 
155 ,32.4661 ,1.16896 ,2.44443 ,23.98475 
156 ,32.6586 ,1.17093 ,2.39652 ,23.51465 
157 ,32.8661 ,1.17300 ,2.41363 ,23.68255 
158 ,33.0588 ,1.17491 ,2.36914 ,23.24603 
159 ,33.2828 ,1.17712 ,2.36914 ,23.24603 
160 ,33.4903 ,1.17919 ,2.33150 ,22.87667 
161 ,33.6988 ,1.18129 ,2.31781 ,22.74235 
162 ,33.9067 ,1.18345 ,2.30412 ,22.60804 
163 ,34.0829 ,1.18526 ,2.26990 ,22.27226 
164 ,34.2909 ,1.18716 ,2.26990 ,22.27226 
165 ,34.4832 ,1.18915 ,2.25279 ,22.10437 
166 ,34.7071 ,1.19138 ,2.23226 ,21.90290 
167 ,34.9153 ,1.19348 ,2.19461 ,21.53353 
168 ,35.1073 ,1.19537 ,2.20488 ,21.63427 
169 ,35.3155 ,1.19746 ,2.16723 ,21.26491 
170 ,35.5236 ,1.19947 ,2.17066 ,21.29849 
171 ,35.7478 ,1.20171 ,2.13986 ,20.99628 
172 ,35.9397 ,1.20372 ,2.11932 ,20.79481 
173 ,36.1319 ,1.20563 ,2.10564 ,20.66050 
174 ,36.3396 ,1.20767 ,2.09195 ,20.52619 
175 ,36.5316 ,1.20963 ,2.07141 ,20.32472 
176 ,36.7238 ,1.21155 ,2.05773 ,20.19040 
177 ,36.9481 ,1.21377 ,2.03377 ,19.95535 
178 ,37.1563 ,1.21588 ,2.00982 ,19.72031 
179 ,37.3804 ,1.21806 ,1.99270 ,19.55241 
180 ,37.5724 ,1.21999 ,1.99955 ,19.61957 
181 ,37.7646 ,1.22196 ,1.97217 ,19.35094 
182 ,37.9886 ,1.22411 ,1.95506 ,19.18305 
183 ,38.1807 ,1.22611 ,1.92084 ,18.84727 
184 ,38.3888 ,1.22821 ,1.92426 ,18.88085 
185 ,38.5809 ,1.23013 ,1.89346 ,18.57864 
186 ,38.7890 ,1.23217 ,1.89004 ,18.54507 
187 ,38.9967 ,1.23424 ,1.84555 ,18.10855 
188 ,39.2052 ,1.23624 ,1.84213 ,18.07497 
189 ,39.4452 ,1.23879 ,1.82844 ,17.94066 
190 ,39.6374 ,1.24069 ,1.79422 ,17.60487 
191 ,39.8614 ,1.24287 ,1.79080 ,17.57129 
192 ,40.0533 ,1.24481 ,1.77369 ,17.40340 
193 ,40.2776 ,1.24707 ,1.73604 ,17.03404 
194 ,40.4857 ,1.24914 ,1.72920 ,16.96689 
195 ,40.6937 ,1.25120 ,1.70866 ,16.76542 
196 ,40.8856 ,1.25321 ,1.70866 ,16.76542 
197 ,41.1098 ,1.25532 ,1.68129 ,16.49679 
198 ,41.3179 ,1.25745 ,1.65049 ,16.19458 
199 ,41.5420 ,1.25963 ,1.65049 ,16.19458 
200 ,41.7341 ,1.26162 ,1.61627 ,15.85880 
201 ,41.9263 ,1.26354 ,1.61969 ,15.89238 
202 ,42.1183 ,1.26546 ,1.57862 ,15.48944 
203 ,42.3101 ,1.26746 ,1.58547 ,15.55660 
204 ,42.5183 ,1.26941 ,1.54098 ,15.12008 
205 ,42.7267 ,1.27150 ,1.55467 ,15.25439 
206 ,42.9508 ,1.27374 ,1.52387 ,14.95219 
207 ,43.1744 ,1.27600 ,1.49991 ,14.71714 
208 ,43.3669 ,1.27791 ,1.50676 ,14.78430 
209 ,43.5910 ,1.28007 ,1.46911 ,14.41493 
210 ,43.7991 ,1.28223 ,1.44516 ,14.17989 
211 ,44.0071 ,1.28428 ,1.43489 ,14.07915 
212 ,44.2313 ,1.28653 ,1.41778 ,13.91126 
213 ,44.4391 ,1.28864 ,1.39383 ,13.67621 
214 ,44.6311 ,1.29055 ,1.39383 ,13.67621 
215 ,44.8233 ,1.29249 ,1.38014 ,13.54190 
216 ,45.0317 ,1.29451 ,1.34249 ,13.17254 
217 ,45.2398 ,1.29666 ,1.32538 ,13.00465 
218 ,45.4639 ,1.29887 ,1.32880 ,13.03822 
219 ,45.6874 ,1.30109 ,1.29800 ,12.73602 
220 ,45.8800 ,1.30307 ,1.28089 ,12.56813 
221 ,46.0880 ,1.30512 ,1.28089 ,12.56813 
222 ,46.2960 ,1.30725 ,1.23641 ,12.13161 
223 ,46.5040 ,1.30932 ,1.23641 ,12.13161 
224 ,46.7278 ,1.31149 ,1.22614 ,12.03088 
225 ,46.9363 ,1.31361 ,1.19192 ,11.69509 
226 ,47.1441 ,1.31563 ,1.19192 ,11.69509 
227 ,47.3366 ,1.31759 ,1.16796 ,11.46004 
228 ,47.5445 ,1.31963 ,1.16454 ,11.42647 
229 ,47.7368 ,1.32165 ,1.13032 ,11.09068 
230 ,47.9445 ,1.32364 ,1.14058 ,11.19142 
231 ,48.1528 ,1.32581 ,1.11663 ,10.95637 
232 ,48.3612 ,1.32780 ,1.09610 ,10.75490 
233 ,48.5690 ,1.32996 ,1.09267 ,10.72132 
234 ,48.7770 ,1.33199 ,1.05845 ,10.38554 
235 ,48.9848 ,1.33403 ,1.05503 ,10.35196 
236 ,49.1772 ,1.33604 ,1.03108 ,10.11691 
237 ,49.4013 ,1.33821 ,0.99685 ,9.78113 
238 ,49.6094 ,1.34027 ,1.01396 ,9.94902 
239 ,49.8175 ,1.34238 ,0.97290 ,9.54608 
240 ,50.1052 ,1.34489 ,0.97974 ,9.61324 
241 ,50.3137 ,1.34732 ,0.93183 ,9.14314 
242 ,50.5220 ,1.34939 ,0.93525 ,9.17672 
243 ,50.7299 ,1.35153 ,0.91814 ,9.00883 
244 ,50.9380 ,1.35360 ,0.88392 ,8.67305 
245 ,51.1460 ,1.35569 ,0.90103 ,8.84094 
246 ,51.3701 ,1.35782 ,0.85997 ,8.43800 
247 ,51.5942 ,1.36018 ,0.84970 ,8.33726 
248 ,51.7862 ,1.36210 ,0.84970 ,8.33726 
249 ,52.0266 ,1.36433 ,0.82232 ,8.06864 
250 ,52.2346 ,1.36655 ,0.79152 ,7.76643 
251 ,52.4582 ,1.36883 ,0.77784 ,7.63212 
252 ,52.6503 ,1.37071 ,0.77099 ,7.56496 
253 ,52.8428 ,1.37264 ,0.76072 ,7.46423 
254 ,53.0510 ,1.37474 ,0.75730 ,7.43065 
255 ,53.2591 ,1.37681 ,0.72992 ,7.16202 
256 ,53.4669 ,1.37891 ,0.72992 ,7.16202 
257 ,53.6592 ,1.38084 ,0.69228 ,6.79266 
258 ,53.8673 ,1.38290 ,0.69570 ,6.82624 
259 ,54.0752 ,1.38503 ,0.66490 ,6.52403 
260 ,54.2674 ,1.38695 ,0.68544 ,6.72550 
261 ,54.4754 ,1.38896 ,0.64779 ,6.35614 
262 ,54.6835 ,1.39109 ,0.64779 ,6.35614 
263 ,54.9071 ,1.39329 ,0.63410 ,6.22183 
264 ,55.1154 ,1.39530 ,0.60673 ,5.95320 
265 ,55.3074 ,1.39730 ,0.60330 ,5.91962 
266 ,55.4999 ,1.39925 ,0.57935 ,5.68458 
267 ,55.7078 ,1.40127 ,0.57593 ,5.65100 
268 ,55.9001 ,1.40320 ,0.54855 ,5.38237 
269 ,56.1081 ,1.40530 ,0.55539 ,5.44953 
270 ,56.3162 ,1.40740 ,0.52117 ,5.11375 
271 ,56.5081 ,1.40928 ,0.53144 ,5.21448 
272 ,56.7319 ,1.41148 ,0.49380 ,4.84512 
273 ,56.9402 ,1.41364 ,0.49380 ,4.84512 
274 ,57.1325 ,1.41553 ,0.49037 ,4.81154 
275 ,57.3566 ,1.41766 ,0.47326 ,4.64365 
276 ,57.5486 ,1.41970 ,0.46300 ,4.54291 
277 ,57.7409 ,1.42164 ,0.43220 ,4.24071 
278 ,57.9487 ,1.42364 ,0.43562 ,4.27429 
279 ,58.1410 ,1.42562 ,0.42193 ,4.13997 
280 ,58.3489 ,1.42765 ,0.41166 ,4.03924 
281 ,58.5573 ,1.42980 ,0.38771 ,3.80419 
282 ,58.7811 ,1.43199 ,0.38086 ,3.73703 
283 ,58.9569 ,1.43389 ,0.36033 ,3.53557 
284 ,59.1653 ,1.43584 ,0.35691 ,3.50199 
285 ,59.3733 ,1.43795 ,0.34322 ,3.36767 
286 ,59.5813 ,1.43996 ,0.33638 ,3.30052 
287 ,59.7737 ,1.44196 ,0.30900 ,3.03189 
288 ,59.9817 ,1.44393 ,0.30900 ,3.03189 
289 ,60.1899 ,1.44600 ,0.28847 ,2.83042 
290 ,60.3981 ,1.44815 ,0.26793 ,2.62895 
291 ,60.6060 ,1.45020 ,0.28162 ,2.76326 
292 ,60.8301 ,1.45244 ,0.25082 ,2.46106 
293 ,61.0222 ,1.45441 ,0.24055 ,2.36032 
294 ,61.2460 ,1.45664 ,0.23713 ,2.32675 
295 ,61.4705 ,1.45869 ,0.21660 ,2.12528 
296 ,61.6786 ,1.46102 ,0.17896 ,1.75592 
297 ,61.8706 ,1.46292 ,0.21318 ,2.09170 
298 ,62.0787 ,1.46508 ,0.17553 ,1.72234 
299 ,62.2864 ,1.46706 ,0.17211 ,1.68876 
300 ,62.4786 ,1.46911 ,0.13789 ,1.35298 
301 ,62.6710 ,1.47099 ,0.15842 ,1.55445 
302 ,62.8632 ,1.47280 ,0.14816 ,1.45371 
303 ,63.0709 ,1.47492 ,0.12078 ,1.18508 
304 ,63.2793 ,1.47699 ,0.11051 ,1.08435 
305 ,63.4871 ,1.47904 ,0.10709 ,1.05077 
306 ,63.7113 ,1.48127 ,0.07971 ,0.78214 
307 ,63.9191 ,1.48333 ,0.06260 ,0.61425 
308 ,64.1434 ,1.48547 ,0.06945 ,0.68141 
309 ,64.3516 ,1.48774 ,0.04549 ,0.44636 
310 ,64.5433 ,1.48964 ,0.06602 ,0.64783 
311 ,64.7359 ,1.49150 ,0.03180 ,0.31205 
312 ,64.9438 ,1.49369 ,0.01811 ,0.17773 
313 ,65.1357 ,1.49551 ,0.00443 ,0.04342 
314 ,65.3439 ,1.49757 ,0.01127 ,0.11058 
315 ,65.5201 ,1.49950 ,-0.02637 ,-0.25878 
316 ,65.7282 ,1.50144 ,-0.04006 ,-0.39310 
317 ,65.9363 ,1.50353 ,-0.04006 ,-0.39310 
318 ,66.1442 ,1.50563 ,-0.04006 ,-0.39310 
319 ,66.3365 ,1.50754 ,-0.06744 ,-0.66172 
320 ,66.5608 ,1.50974 ,-0.06744 ,-0.66172 
321 ,66.7686 ,1.51179 ,-0.09824 ,-0.96393 
322 ,66.9606 ,1.51374 ,-0.09140 ,-0.89677 
323 ,67.1687 ,1.51583 ,-0.12219 ,-1.19898 
324 ,67.3611 ,1.51778 ,-0.11193 ,-1.09824 
325 ,67.5690 ,1.51985 ,-0.13588 ,-1.33329 
326 ,67.7767 ,1.52192 ,-0.13246 ,-1.29971 
327 ,67.9849 ,1.52408 ,-0.13588 ,-1.33329 
328 ,68.1933 ,1.52608 ,-0.16668 ,-1.63549 
329 ,68.4013 ,1.52819 ,-0.15299 ,-1.50118 
330 ,68.5935 ,1.53008 ,-0.20090 ,-1.97128 
331 ,68.8175 ,1.53230 ,-0.18037 ,-1.76981 
332 ,69.0095 ,1.53424 ,-0.19748 ,-1.93770 
333 ,69.2013 ,1.53619 ,-0.20090 ,-1.97128 
334 ,69.4097 ,1.53823 ,-0.22828 ,-2.23990 
335 ,69.6016 ,1.54020 ,-0.23513 ,-2.30706 
336 ,69.8098 ,1.54228 ,-0.26593 ,-2.60926 
337 ,70.0016 ,1.54415 ,-0.25224 ,-2.47495 
338 ,70.2260 ,1.54634 ,-0.28304 ,-2.77716 
339 ,70.4342 ,1.54849 ,-0.28646 ,-2.81073 
340 ,70.6420 ,1.55055 ,-0.27277 ,-2.67642 
341 ,70.8503 ,1.55263 ,-0.29673 ,-2.91147 
342 ,71.0424 ,1.55459 ,-0.30699 ,-3.01220 
343 ,71.2505 ,1.55667 ,-0.33437 ,-3.28083 
344 ,71.4425 ,1.55858 ,-0.31726 ,-3.11294 
345 ,71.6346 ,1.56049 ,-0.34806 ,-3.41514 
346 ,71.8266 ,1.56238 ,-0.35148 ,-3.44872 
347 ,72.0188 ,1.56434 ,-0.36517 ,-3.58303 
348 ,72.2264 ,1.56649 ,-0.36517 ,-3.58303 
349 ,72.4350 ,1.56851 ,-0.38228 ,-3.75093 
350 ,72.6750 ,1.57092 ,-0.40623 ,-3.98597 
351 ,72.8831 ,1.57295 ,-0.38912 ,-3.81808 
352 ,73.1073 ,1.57506 ,-0.43019 ,-4.22102 
353 ,73.3153 ,1.57724 ,-0.42677 ,-4.18744 
354 ,73.5234 ,1.57938 ,-0.45072 ,-4.42249 
355 ,73.7475 ,1.58159 ,-0.45757 ,-4.48965 
356 ,73.9552 ,1.58371 ,-0.47468 ,-4.65754 
357 ,74.1477 ,1.58568 ,-0.47468 ,-4.65754 
358 ,74.3557 ,1.58774 ,-0.49863 ,-4.89259 
359 ,74.5476 ,1.58963 ,-0.50548 ,-4.95975 
360 ,74.7560 ,1.59169 ,-0.51232 ,-5.02690 
361 ,74.9640 ,1.59371 ,-0.52601 ,-5.16121 
362 ,75.1722 ,1.59585 ,-0.54654 ,-5.36268 
363 ,75.3802 ,1.59793 ,-0.53285 ,-5.22837 
364 ,75.5877 ,1.60009 ,-0.55339 ,-5.42984 
365 ,75.7965 ,1.60207 ,-0.56023 ,-5.49700 
366 ,76.0204 ,1.60427 ,-0.55681 ,-5.46342 
367 ,76.2123 ,1.60631 ,-0.58419 ,-5.73205 
368 ,76.4206 ,1.60835 ,-0.58077 ,-5.69847 
369 ,76.6285 ,1.61038 ,-0.61156 ,-6.00067 
370 ,76.8527 ,1.61255 ,-0.60814 ,-5.96709 
371 ,77.0609 ,1.61486 ,-0.62868 ,-6.16856 
372 ,77.2525 ,1.61672 ,-0.63552 ,-6.23572 
373 ,77.4449 ,1.61856 ,-0.65263 ,-6.40361 
374 ,77.6529 ,1.62070 ,-0.67316 ,-6.60508 
375 ,77.8452 ,1.62257 ,-0.66632 ,-6.53793 
376 ,78.0532 ,1.62471 ,-0.69370 ,-6.80655 
377 ,78.2616 ,1.62669 ,-0.68685 ,-6.73940 
378 ,78.4695 ,1.62879 ,-0.71765 ,-7.04160 
379 ,78.6936 ,1.63099 ,-0.71765 ,-7.04160 
380 ,78.9012 ,1.63310 ,-0.72107 ,-7.07518 
381 ,79.1095 ,1.63519 ,-0.74503 ,-7.31023 
382 ,79.3177 ,1.63729 ,-0.73818 ,-7.24307 
383 ,79.5097 ,1.63921 ,-0.76556 ,-7.51170 
384 ,79.7180 ,1.64130 ,-0.76556 ,-7.51170 
385 ,79.9416 ,1.64350 ,-0.76898 ,-7.54527 
386 ,80.1662 ,1.64578 ,-0.79636 ,-7.81390 
387 ,80.3742 ,1.64790 ,-0.81689 ,-8.01537 
388 ,80.5820 ,1.64988 ,-0.79636 ,-7.81390 
389 ,80.8064 ,1.65207 ,-0.84085 ,-8.25042 
390 ,81.0145 ,1.65430 ,-0.83401 ,-8.18326 
391 ,81.2224 ,1.65632 ,-0.83743 ,-8.21684 
392 ,81.4625 ,1.65858 ,-0.85796 ,-8.41831 
393 ,81.6548 ,1.66065 ,-0.87849 ,-8.61978 
394 ,81.8629 ,1.66278 ,-0.85454 ,-8.38473 
395 ,82.1028 ,1.66502 ,-0.88534 ,-8.68694 
396 ,82.3107 ,1.66720 ,-0.89903 ,-8.82125 
397 ,82.5190 ,1.66928 ,-0.88876 ,-8.72051 
398 ,82.7272 ,1.67145 ,-0.90587 ,-8.88841 
399 ,82.9352 ,1.67345 ,-0.92298 ,-9.05630 
400 ,83.1593 ,1.67566 ,-0.92298 ,-9.05630 
401 ,83.3509 ,1.67766 ,-0.93667 ,-9.19061 
402 ,83.5593 ,1.67966 ,-0.93667 ,-9.19061 
403 ,83.7511 ,1.68167 ,-0.97089 ,-9.52639 
404 ,83.9591 ,1.68370 ,-0.96747 ,-9.49282 
405 ,84.1674 ,1.68578 ,-0.98800 ,-9.69429 
406 ,84.4234 ,1.68829 ,-0.97431 ,-9.55997 
407 ,84.6318 ,1.69039 ,-1.01538 ,-9.96291 
408 ,84.8560 ,1.69263 ,-1.02565 ,-10.06365 
409 ,85.0641 ,1.69471 ,-1.00854 ,-9.89576 
410 ,85.2722 ,1.69683 ,-1.04276 ,-10.23154 
411 ,85.5119 ,1.69906 ,-1.03591 ,-10.16438 
412 ,85.7204 ,1.70130 ,-1.03249 ,-10.13080 
413 ,85.9446 ,1.70347 ,-1.06671 ,-10.46659 
414 ,86.1523 ,1.70562 ,-1.07014 ,-10.50016 
415 ,86.3446 ,1.70760 ,-1.07698 ,-10.56732 
416 ,86.5527 ,1.70958 ,-1.08725 ,-10.66806 
417 ,86.7609 ,1.71171 ,-1.09751 ,-10.76879 
418 ,86.9848 ,1.71388 ,-1.10093 ,-10.80237 
419 ,87.1610 ,1.71582 ,-1.12489 ,-11.03742 
420 ,87.3691 ,1.71782 ,-1.12831 ,-11.07100 
421 ,87.5771 ,1.71986 ,-1.13516 ,-11.13815 
422 ,87.7688 ,1.72191 ,-1.12831 ,-11.07100 
423 ,87.9774 ,1.72385 ,-1.15227 ,-11.30604 
424 ,88.2015 ,1.72608 ,-1.15227 ,-11.30604 
425 ,88.4094 ,1.72818 ,-1.19676 ,-11.74256 
426 ,88.6336 ,1.73038 ,-1.20018 ,-11.77614 
427 ,88.8415 ,1.73251 ,-1.17622 ,-11.54109 
428 ,89.0493 ,1.73464 ,0.63753 ,6.25541 
429 ,89.2418 ,1.73652 ,0.65464 ,6.42330 
430 ,89.4659 ,1.73869 ,0.65464 ,6.42330 
431 ,89.6740 ,1.74076 ,0.63068 ,6.18825 
432 ,89.8980 ,1.74306 ,0.66833 ,6.55761 
433 ,90.0901 ,1.74503 ,0.65806 ,6.45688 
434 ,90.2823 ,1.74692 ,0.67517 ,6.62477 
435 ,90.4904 ,1.74895 ,0.66490 ,6.52403 
436 ,90.7144 ,1.75120 ,0.65121 ,6.38972 
437 ,90.9065 ,1.75319 ,0.66833 ,6.55761 
438 ,91.1142 ,1.75522 ,0.64779 ,6.35614 
439 ,91.3547 ,1.75751 ,0.65806 ,6.45688 
440 ,91.5629 ,1.75969 ,0.66833 ,6.55761 
441 ,91.7865 ,1.76189 ,0.66148 ,6.49046 
442 ,91.9790 ,1.76392 ,0.65121 ,6.38972 
443 ,92.1868 ,1.76590 ,0.64779 ,6.35614 
444 ,92.4111 ,1.76806 ,0.64779 ,6.35614 
445 ,92.6353 ,1.77036 ,0.65121 ,6.38972 
446 ,92.8433 ,1.77243 ,0.66148 ,6.49046 
447 ,93.0674 ,1.77466 ,0.64779 ,6.35614 
448 ,93.2597 ,1.77664 ,0.64437 ,6.32256 
449 ,93.4837 ,1.77889 ,0.64437 ,6.32256 
450 ,93.7237 ,1.78115 ,0.64437 ,6.32256 
451 ,93.9316 ,1.78339 ,0.63410 ,6.22183 
452 ,94.1399 ,1.78542 ,0.66490 ,6.52403 
453 ,94.3799 ,1.78784 ,0.65464 ,6.42330 
454 ,94.5880 ,1.78992 ,0.63410 ,6.22183 
455 ,94.7961 ,1.79205 ,0.63753 ,6.25541 
456 ,95.0039 ,1.79409 ,0.65121 ,6.38972 
457 ,95.2121 ,1.79620 ,0.63068 ,6.18825 
458 ,95.4200 ,1.79825 ,0.64437 ,6.32256 
459 ,95.6280 ,1.80033 ,0.64437 ,6.32256 
460 ,95.8366 ,1.80240 ,0.63068 ,6.18825 
461 ,96.0447 ,1.80451 ,0.65121 ,6.38972 
462 ,96.2526 ,1.80655 ,0.62042 ,6.08752 
