Data stamp = , 17-05-2022 17:47:03 115

Calibration Values: 
Slope = , 26.54 , g/V 
Offset Voltage at no contact = , -0.501760 , V 

No , Time , Stage Position ,   Mass , Force 
   ,  (s) ,      (mm)      ,   (g)  , (mN)  

1 ,0.0000 ,0.84958 ,5.17190 ,50.74666 
2 ,0.3776 ,0.84993 ,5.17190 ,50.74666 
3 ,0.7779 ,0.85182 ,5.16848 ,50.71308 
4 ,0.9863 ,0.85414 ,5.15136 ,50.54519 
5 ,1.1946 ,0.85623 ,5.17874 ,50.81381 
6 ,1.4185 ,0.85835 ,5.16848 ,50.71308 
7 ,1.6106 ,0.86037 ,5.15479 ,50.57876 
8 ,1.8183 ,0.86255 ,5.15479 ,50.57876 
9 ,2.0106 ,0.86455 ,5.11372 ,50.17583 
10 ,2.2190 ,0.86647 ,5.12056 ,50.24298 
11 ,2.4429 ,0.86875 ,5.09661 ,50.00793 
12 ,2.6509 ,0.87076 ,5.05897 ,49.63857 
13 ,2.8592 ,0.87287 ,5.05554 ,49.60499 
14 ,3.0673 ,0.87493 ,5.02132 ,49.26921 
15 ,3.2754 ,0.87703 ,5.01106 ,49.16848 
16 ,3.4675 ,0.87904 ,4.95288 ,48.59764 
17 ,3.6752 ,0.88101 ,4.97341 ,48.79911 
18 ,3.8835 ,0.88312 ,4.91866 ,48.26186 
19 ,4.0751 ,0.88512 ,4.91523 ,48.22828 
20 ,4.2678 ,0.88700 ,4.88444 ,47.92608 
21 ,4.4757 ,0.88904 ,4.88786 ,47.95966 
22 ,4.6840 ,0.89109 ,4.83995 ,47.48956 
23 ,4.8921 ,0.89318 ,4.82284 ,47.32167 
24 ,5.0998 ,0.89526 ,4.80573 ,47.15378 
25 ,5.3242 ,0.89749 ,4.77150 ,46.81800 
26 ,5.5480 ,0.89981 ,4.76466 ,46.75084 
27 ,5.7563 ,0.90182 ,4.74413 ,46.54937 
28 ,5.9803 ,0.90408 ,4.72359 ,46.34790 
29 ,6.2044 ,0.90629 ,4.67911 ,45.91138 
30 ,6.4447 ,0.90864 ,4.66542 ,45.77707 
31 ,6.6688 ,0.91096 ,4.63119 ,45.44128 
32 ,6.8769 ,0.91312 ,4.63462 ,45.47486 
33 ,7.0847 ,0.91513 ,4.59697 ,45.10550 
34 ,7.2770 ,0.91708 ,4.58671 ,45.00477 
35 ,7.4690 ,0.91895 ,4.54222 ,44.56825 
36 ,7.6771 ,0.92104 ,4.53195 ,44.46751 
37 ,7.8853 ,0.92310 ,4.49089 ,44.06457 
38 ,8.0773 ,0.92517 ,4.50115 ,44.16531 
39 ,8.2852 ,0.92712 ,4.45666 ,43.72879 
40 ,8.4770 ,0.92922 ,4.44982 ,43.66163 
41 ,8.6855 ,0.93110 ,4.41902 ,43.35943 
42 ,8.8939 ,0.93319 ,4.41560 ,43.32585 
43 ,9.1016 ,0.93527 ,4.39164 ,43.09080 
44 ,9.3259 ,0.93757 ,4.34716 ,42.65429 
45 ,9.5655 ,0.93988 ,4.33347 ,42.51997 
46 ,9.7738 ,0.94195 ,4.31978 ,42.38566 
47 ,9.9980 ,0.94419 ,4.29582 ,42.15061 
48 ,10.1903 ,0.94622 ,4.26845 ,41.88198 
49 ,10.4143 ,0.94839 ,4.26160 ,41.81483 
50 ,10.6540 ,0.95069 ,4.23422 ,41.54620 
51 ,10.8782 ,0.95298 ,4.21711 ,41.37831 
52 ,11.0705 ,0.95503 ,4.17605 ,40.97537 
53 ,11.2785 ,0.95705 ,4.16578 ,40.87464 
54 ,11.4703 ,0.95897 ,4.13156 ,40.53885 
55 ,11.6788 ,0.96101 ,4.13156 ,40.53885 
56 ,11.8867 ,0.96311 ,4.09391 ,40.16949 
57 ,12.0950 ,0.96521 ,4.10076 ,40.23665 
58 ,12.3031 ,0.96723 ,4.05627 ,39.80013 
59 ,12.5108 ,0.96933 ,4.04600 ,39.69940 
60 ,12.7191 ,0.97145 ,4.02205 ,39.46435 
61 ,12.9108 ,0.97355 ,3.97756 ,39.02783 
62 ,13.1035 ,0.97535 ,3.95703 ,38.82636 
63 ,13.3113 ,0.97734 ,3.95703 ,38.82636 
64 ,13.5191 ,0.97955 ,3.93992 ,38.65847 
65 ,13.7114 ,0.98142 ,3.92281 ,38.49058 
66 ,13.9356 ,0.98353 ,3.89543 ,38.22195 
67 ,14.1439 ,0.98575 ,3.86121 ,37.88617 
68 ,14.3678 ,0.98792 ,3.83725 ,37.65112 
69 ,14.5760 ,0.98999 ,3.82356 ,37.51681 
70 ,14.7843 ,0.99209 ,3.78592 ,37.14744 
71 ,14.9923 ,0.99414 ,3.77565 ,37.04671 
72 ,15.2002 ,0.99618 ,3.73801 ,36.67735 
73 ,15.4084 ,0.99837 ,3.73117 ,36.61019 
74 ,15.6164 ,1.00036 ,3.71405 ,36.44230 
75 ,15.8246 ,1.00255 ,3.68668 ,36.17367 
76 ,16.0162 ,1.00459 ,3.67299 ,36.03936 
77 ,16.2402 ,1.00657 ,3.63534 ,35.67000 
78 ,16.4484 ,1.00879 ,3.63534 ,35.67000 
79 ,16.6731 ,1.01115 ,3.59770 ,35.30064 
80 ,16.8968 ,1.01318 ,3.59770 ,35.30064 
81 ,17.1206 ,1.01545 ,3.56348 ,34.96485 
82 ,17.3291 ,1.01752 ,3.54295 ,34.76338 
83 ,17.5212 ,1.01947 ,3.51899 ,34.52834 
84 ,17.6973 ,1.02137 ,3.51557 ,34.49476 
85 ,17.9054 ,1.02328 ,3.46766 ,34.02466 
86 ,18.1135 ,1.02532 ,3.46766 ,34.02466 
87 ,18.3212 ,1.02745 ,3.44028 ,33.75604 
88 ,18.5132 ,1.02952 ,3.43001 ,33.65530 
89 ,18.7215 ,1.03148 ,3.39579 ,33.31952 
90 ,18.9298 ,1.03352 ,3.38553 ,33.21878 
91 ,19.1540 ,1.03574 ,3.37184 ,33.08447 
92 ,19.3619 ,1.03778 ,3.33077 ,32.68153 
93 ,19.5701 ,1.03989 ,3.33077 ,32.68153 
94 ,19.7783 ,1.04198 ,3.29997 ,32.37933 
95 ,19.9865 ,1.04411 ,3.28286 ,32.21143 
96 ,20.1946 ,1.04616 ,3.27259 ,32.11070 
97 ,20.4345 ,1.04861 ,3.24180 ,31.80849 
98 ,20.6584 ,1.05077 ,3.20757 ,31.47271 
99 ,20.8504 ,1.05275 ,3.19731 ,31.37198 
100 ,21.0425 ,1.05464 ,3.17335 ,31.13693 
101 ,21.2669 ,1.05690 ,3.14597 ,30.86830 
102 ,21.4746 ,1.05894 ,3.14597 ,30.86830 
103 ,21.6666 ,1.06091 ,3.09464 ,30.36463 
104 ,21.8751 ,1.06300 ,3.09122 ,30.33105 
105 ,22.0832 ,1.06511 ,3.05358 ,29.96169 
106 ,22.3072 ,1.06725 ,3.06042 ,30.02884 
107 ,22.4994 ,1.06925 ,3.02620 ,29.69306 
108 ,22.7073 ,1.07130 ,2.99198 ,29.35728 
109 ,22.9154 ,1.07339 ,2.99540 ,29.39086 
110 ,23.1236 ,1.07546 ,2.95433 ,28.98792 
111 ,23.3315 ,1.07748 ,2.95091 ,28.95434 
112 ,23.5234 ,1.07947 ,2.92011 ,28.65213 
113 ,23.7156 ,1.08139 ,2.91669 ,28.61856 
114 ,23.9234 ,1.08352 ,2.88589 ,28.31635 
115 ,24.1158 ,1.08538 ,2.86878 ,28.14846 
116 ,24.3400 ,1.08758 ,2.84140 ,27.87983 
117 ,24.5478 ,1.08971 ,2.82429 ,27.71194 
118 ,24.7403 ,1.09164 ,2.81060 ,27.57763 
119 ,24.9640 ,1.09379 ,2.77638 ,27.24185 
120 ,25.1724 ,1.09594 ,2.77980 ,27.27542 
121 ,25.3966 ,1.09818 ,2.75243 ,27.00680 
122 ,25.6045 ,1.10028 ,2.70794 ,26.57028 
123 ,25.8127 ,1.10232 ,2.71478 ,26.63744 
124 ,26.0049 ,1.10424 ,2.68398 ,26.33523 
125 ,26.2288 ,1.10649 ,2.68398 ,26.33523 
126 ,26.4369 ,1.10863 ,2.66345 ,26.13376 
127 ,26.6292 ,1.11054 ,2.61896 ,25.69724 
128 ,26.8370 ,1.11261 ,2.62581 ,25.76440 
129 ,27.0613 ,1.11480 ,2.57789 ,25.29430 
130 ,27.2694 ,1.11685 ,2.58132 ,25.32788 
131 ,27.4614 ,1.11886 ,2.55394 ,25.05926 
132 ,27.6695 ,1.12085 ,2.54025 ,24.92494 
133 ,27.8777 ,1.12300 ,2.53683 ,24.89136 
134 ,28.0859 ,1.12504 ,2.49918 ,24.52200 
135 ,28.2935 ,1.12714 ,2.49234 ,24.45485 
136 ,28.5019 ,1.12923 ,2.46154 ,24.15264 
137 ,28.7261 ,1.13147 ,2.45127 ,24.05191 
138 ,28.9342 ,1.13357 ,2.44785 ,24.01833 
139 ,29.1421 ,1.13558 ,2.39994 ,23.54823 
140 ,29.3501 ,1.13767 ,2.39310 ,23.48108 
141 ,29.5582 ,1.13978 ,2.35888 ,23.14529 
142 ,29.7824 ,1.14202 ,2.34519 ,23.01098 
143 ,30.0066 ,1.14420 ,2.32808 ,22.84309 
144 ,30.2147 ,1.14627 ,2.32465 ,22.80951 
145 ,30.4228 ,1.14835 ,2.28017 ,22.37299 
146 ,30.6467 ,1.15064 ,2.27674 ,22.33941 
147 ,30.8709 ,1.15287 ,2.26648 ,22.23868 
148 ,31.0630 ,1.15488 ,2.23910 ,21.97005 
149 ,31.2712 ,1.15688 ,2.22541 ,21.83574 
150 ,31.4790 ,1.15896 ,2.19803 ,21.56711 
151 ,31.6871 ,1.16105 ,2.19119 ,21.49996 
152 ,31.8954 ,1.16312 ,2.19119 ,21.49996 
153 ,32.1351 ,1.16549 ,2.16381 ,21.23133 
154 ,32.3435 ,1.16760 ,2.12959 ,20.89555 
155 ,32.5676 ,1.16985 ,2.12959 ,20.89555 
156 ,32.7755 ,1.17189 ,2.11590 ,20.76123 
157 ,32.9678 ,1.17386 ,2.08510 ,20.45903 
158 ,33.1599 ,1.17582 ,2.08510 ,20.45903 
159 ,33.3839 ,1.17797 ,2.04746 ,20.08967 
160 ,33.5760 ,1.18004 ,2.05088 ,20.12325 
161 ,33.7677 ,1.18189 ,2.02350 ,19.85462 
162 ,33.9762 ,1.18393 ,2.02008 ,19.82104 
163 ,34.2002 ,1.18617 ,2.00297 ,19.65315 
164 ,34.4244 ,1.18835 ,1.97902 ,19.41810 
165 ,34.6320 ,1.19050 ,1.97559 ,19.38452 
166 ,34.8081 ,1.19240 ,1.94822 ,19.11590 
167 ,35.0002 ,1.19423 ,1.95506 ,19.18305 
168 ,35.2089 ,1.19629 ,1.91057 ,18.74654 
169 ,35.4008 ,1.19830 ,1.90373 ,18.67938 
170 ,35.6090 ,1.20028 ,1.87293 ,18.37717 
171 ,35.8331 ,1.20247 ,1.86951 ,18.34360 
172 ,36.0407 ,1.20460 ,1.85582 ,18.20928 
173 ,36.2492 ,1.20664 ,1.83186 ,17.97423 
174 ,36.4571 ,1.20878 ,1.83528 ,18.00781 
175 ,36.6654 ,1.21081 ,1.79080 ,17.57129 
176 ,36.8892 ,1.21302 ,1.78053 ,17.47056 
177 ,37.0972 ,1.21514 ,1.77711 ,17.43698 
178 ,37.3055 ,1.21726 ,1.74289 ,17.10120 
179 ,37.5298 ,1.21945 ,1.73604 ,17.03404 
180 ,37.7379 ,1.22156 ,1.72920 ,16.96689 
181 ,37.9618 ,1.22382 ,1.71551 ,16.83257 
182 ,38.1698 ,1.22582 ,1.68471 ,16.53037 
183 ,38.3781 ,1.22795 ,1.67444 ,16.42963 
184 ,38.6020 ,1.23016 ,1.66075 ,16.29532 
185 ,38.8101 ,1.23229 ,1.63338 ,16.02669 
186 ,39.0183 ,1.23429 ,1.63338 ,16.02669 
187 ,39.2265 ,1.23643 ,1.59916 ,15.69091 
188 ,39.4184 ,1.23847 ,1.59231 ,15.62375 
189 ,39.6107 ,1.24041 ,1.56151 ,15.32155 
190 ,39.8186 ,1.24233 ,1.57178 ,15.42228 
191 ,40.0268 ,1.24446 ,1.53413 ,15.05292 
192 ,40.2347 ,1.24660 ,1.53071 ,15.01934 
193 ,40.4265 ,1.24854 ,1.52045 ,14.91861 
194 ,40.6350 ,1.25054 ,1.50676 ,14.78430 
195 ,40.8750 ,1.25277 ,1.49307 ,14.64998 
196 ,41.0831 ,1.25498 ,1.45885 ,14.31420 
197 ,41.2915 ,1.25701 ,1.44174 ,14.14631 
198 ,41.5151 ,1.25930 ,1.44174 ,14.14631 
199 ,41.7555 ,1.26160 ,1.42805 ,14.01199 
200 ,41.9796 ,1.26393 ,1.40751 ,13.81053 
201 ,42.1879 ,1.26603 ,1.36645 ,13.40759 
202 ,42.3957 ,1.26809 ,1.38356 ,13.57548 
203 ,42.6199 ,1.27023 ,1.36303 ,13.37401 
204 ,42.8438 ,1.27259 ,1.33223 ,13.07180 
205 ,43.0517 ,1.27469 ,1.31169 ,12.87033 
206 ,43.2759 ,1.27676 ,1.31512 ,12.90391 
207 ,43.5000 ,1.27914 ,1.30143 ,12.76960 
208 ,43.7079 ,1.28119 ,1.26378 ,12.40024 
209 ,43.9162 ,1.28331 ,1.28089 ,12.56813 
210 ,44.1245 ,1.28536 ,1.25694 ,12.33308 
211 ,44.3323 ,1.28747 ,1.22272 ,11.99730 
212 ,44.5406 ,1.28954 ,1.22272 ,11.99730 
213 ,44.7808 ,1.29183 ,1.20561 ,11.82941 
214 ,44.9888 ,1.29400 ,1.17138 ,11.49362 
215 ,45.2125 ,1.29622 ,1.16112 ,11.39289 
216 ,45.3891 ,1.29816 ,1.15085 ,11.29215 
217 ,45.5969 ,1.30013 ,1.14401 ,11.22500 
218 ,45.7896 ,1.30206 ,1.10979 ,10.88921 
219 ,46.0128 ,1.30422 ,1.09952 ,10.78848 
220 ,46.2212 ,1.30629 ,1.11663 ,10.95637 
221 ,46.4454 ,1.30854 ,1.07899 ,10.58701 
222 ,46.6375 ,1.31059 ,1.06530 ,10.45270 
223 ,46.8455 ,1.31253 ,1.04476 ,10.25123 
224 ,47.0377 ,1.31453 ,1.05161 ,10.31838 
225 ,47.2616 ,1.31680 ,1.02423 ,10.04976 
226 ,47.4698 ,1.31887 ,1.00370 ,9.84829 
227 ,47.6776 ,1.32084 ,1.00028 ,9.81471 
228 ,47.9021 ,1.32308 ,0.97290 ,9.54608 
229 ,48.1100 ,1.32518 ,0.95579 ,9.37819 
230 ,48.3180 ,1.32743 ,0.94894 ,9.31103 
231 ,48.5264 ,1.32939 ,0.93868 ,9.21030 
232 ,48.7500 ,1.33156 ,0.91472 ,8.97525 
233 ,48.9585 ,1.33368 ,0.92157 ,9.04241 
234 ,49.1665 ,1.33576 ,0.90103 ,8.84094 
235 ,49.3744 ,1.33782 ,0.88392 ,8.67305 
236 ,49.5667 ,1.33981 ,0.86681 ,8.50515 
237 ,49.7909 ,1.34199 ,0.84970 ,8.33726 
238 ,49.9984 ,1.34409 ,0.85654 ,8.40442 
239 ,50.1911 ,1.34605 ,0.82232 ,8.06864 
240 ,50.3987 ,1.34808 ,0.81548 ,8.00148 
241 ,50.6072 ,1.35022 ,0.80521 ,7.90074 
242 ,50.8310 ,1.35239 ,0.77099 ,7.56496 
243 ,51.0391 ,1.35446 ,0.77784 ,7.63212 
244 ,51.2472 ,1.35653 ,0.75046 ,7.36349 
245 ,51.4396 ,1.35853 ,0.75046 ,7.36349 
246 ,51.6632 ,1.36075 ,0.74019 ,7.26276 
247 ,51.8876 ,1.36299 ,0.70939 ,6.96055 
248 ,52.0798 ,1.36496 ,0.69228 ,6.79266 
249 ,52.3036 ,1.36710 ,0.68201 ,6.69193 
250 ,52.5117 ,1.36920 ,0.65806 ,6.45688 
251 ,52.7037 ,1.37125 ,0.66833 ,6.55761 
252 ,52.8960 ,1.37308 ,0.63753 ,6.25541 
253 ,53.1041 ,1.37510 ,0.64095 ,6.28899 
254 ,53.3122 ,1.37717 ,0.61015 ,5.98678 
255 ,53.5364 ,1.37943 ,0.59988 ,5.88605 
256 ,53.7761 ,1.38185 ,0.58277 ,5.71815 
257 ,53.9847 ,1.38395 ,0.57593 ,5.65100 
258 ,54.1928 ,1.38612 ,0.54855 ,5.38237 
259 ,54.4006 ,1.38805 ,0.56566 ,5.55026 
260 ,54.5925 ,1.39003 ,0.53486 ,5.24806 
261 ,54.7690 ,1.39194 ,0.53828 ,5.28164 
262 ,54.9770 ,1.39386 ,0.51091 ,5.01301 
263 ,55.1852 ,1.39595 ,0.52117 ,5.11375 
264 ,55.4087 ,1.39815 ,0.47326 ,4.64365 
265 ,55.6012 ,1.40014 ,0.49380 ,4.84512 
266 ,55.7931 ,1.40202 ,0.45957 ,4.50934 
267 ,56.0011 ,1.40403 ,0.46300 ,4.54291 
268 ,56.2096 ,1.40621 ,0.44588 ,4.37502 
269 ,56.4335 ,1.40839 ,0.42193 ,4.13997 
270 ,56.6257 ,1.41040 ,0.43220 ,4.24071 
271 ,56.8493 ,1.41250 ,0.39455 ,3.87135 
272 ,57.0573 ,1.41462 ,0.38771 ,3.80419 
273 ,57.2654 ,1.41672 ,0.37060 ,3.63630 
274 ,57.4740 ,1.41883 ,0.35691 ,3.50199 
275 ,57.6819 ,1.42096 ,0.35691 ,3.50199 
276 ,57.8902 ,1.42300 ,0.33295 ,3.26694 
277 ,58.1139 ,1.42515 ,0.31584 ,3.09905 
278 ,58.3223 ,1.42728 ,0.32611 ,3.19978 
279 ,58.5464 ,1.42954 ,0.30558 ,2.99831 
280 ,58.7703 ,1.43167 ,0.28847 ,2.83042 
281 ,58.9786 ,1.43383 ,0.28504 ,2.79684 
282 ,59.1704 ,1.43579 ,0.26109 ,2.56179 
283 ,59.3948 ,1.43800 ,0.24055 ,2.36032 
284 ,59.6028 ,1.44011 ,0.25767 ,2.52822 
285 ,59.8109 ,1.44221 ,0.22687 ,2.22601 
286 ,60.0189 ,1.44425 ,0.22344 ,2.19243 
287 ,60.2430 ,1.44645 ,0.20976 ,2.05812 
288 ,60.4349 ,1.44845 ,0.17553 ,1.72234 
289 ,60.6273 ,1.45038 ,0.17896 ,1.75592 
290 ,60.8512 ,1.45253 ,0.15842 ,1.55445 
291 ,61.0435 ,1.45455 ,0.16185 ,1.58802 
292 ,61.2837 ,1.45675 ,0.14473 ,1.42013 
293 ,61.4751 ,1.45893 ,0.10709 ,1.05077 
294 ,61.6678 ,1.46078 ,0.12762 ,1.25224 
295 ,61.8599 ,1.46269 ,0.11051 ,1.08435 
296 ,62.0680 ,1.46476 ,0.10367 ,1.01719 
297 ,62.2919 ,1.46696 ,0.07971 ,0.78214 
298 ,62.4996 ,1.46901 ,0.07287 ,0.71499 
299 ,62.7078 ,1.47118 ,0.06602 ,0.64783 
300 ,62.9000 ,1.47306 ,0.06260 ,0.61425 
301 ,63.1080 ,1.47515 ,0.03865 ,0.37920 
302 ,63.3324 ,1.47736 ,0.01811 ,0.17773 
303 ,63.5401 ,1.47948 ,0.02496 ,0.24489 
304 ,63.7324 ,1.48142 ,-0.00584 ,-0.05731 
305 ,63.9405 ,1.48341 ,0.00443 ,0.04342 
306 ,64.1167 ,1.48538 ,-0.02295 ,-0.22520 
307 ,64.3249 ,1.48735 ,-0.01611 ,-0.15805 
308 ,64.5167 ,1.48935 ,-0.05375 ,-0.52741 
309 ,64.7086 ,1.49118 ,-0.04691 ,-0.46025 
310 ,64.9169 ,1.49322 ,-0.06060 ,-0.59457 
311 ,65.1412 ,1.49542 ,-0.05717 ,-0.56099 
312 ,65.3650 ,1.49776 ,-0.06060 ,-0.59457 
313 ,65.5733 ,1.49980 ,-0.09482 ,-0.93035 
314 ,65.7973 ,1.50200 ,-0.09482 ,-0.93035 
315 ,66.0215 ,1.50427 ,-0.09482 ,-0.93035 
316 ,66.2458 ,1.50650 ,-0.10851 ,-1.06466 
317 ,66.4537 ,1.50861 ,-0.13931 ,-1.36687 
318 ,66.6778 ,1.51079 ,-0.12562 ,-1.23255 
319 ,66.9019 ,1.51303 ,-0.14957 ,-1.46760 
320 ,67.1100 ,1.51513 ,-0.18037 ,-1.76981 
321 ,67.3178 ,1.51726 ,-0.16668 ,-1.63549 
322 ,67.5262 ,1.51930 ,-0.19064 ,-1.87054 
323 ,67.7182 ,1.52135 ,-0.20433 ,-2.00485 
324 ,67.9103 ,1.52318 ,-0.20090 ,-1.97128 
325 ,68.1182 ,1.52520 ,-0.22144 ,-2.17275 
326 ,68.3100 ,1.52714 ,-0.23170 ,-2.27348 
327 ,68.5182 ,1.52921 ,-0.23855 ,-2.34064 
328 ,68.7101 ,1.53119 ,-0.25566 ,-2.50853 
329 ,68.9025 ,1.53309 ,-0.25224 ,-2.47495 
330 ,69.1263 ,1.53533 ,-0.27619 ,-2.71000 
331 ,69.3349 ,1.53742 ,-0.29330 ,-2.87789 
332 ,69.5590 ,1.53959 ,-0.29673 ,-2.91147 
333 ,69.7669 ,1.54172 ,-0.30699 ,-3.01220 
334 ,69.9912 ,1.54393 ,-0.32752 ,-3.21367 
335 ,70.1992 ,1.54613 ,-0.33437 ,-3.28083 
336 ,70.4073 ,1.54811 ,-0.34806 ,-3.41514 
337 ,70.6314 ,1.55033 ,-0.34806 ,-3.41514 
338 ,70.8394 ,1.55252 ,-0.36859 ,-3.61661 
339 ,71.0476 ,1.55450 ,-0.35832 ,-3.51588 
340 ,71.2716 ,1.55668 ,-0.39255 ,-3.85166 
341 ,71.4796 ,1.55884 ,-0.37886 ,-3.71735 
342 ,71.6881 ,1.56094 ,-0.39255 ,-3.85166 
343 ,71.9118 ,1.56310 ,-0.41308 ,-4.05313 
344 ,72.1200 ,1.56521 ,-0.41308 ,-4.05313 
345 ,72.3280 ,1.56743 ,-0.42335 ,-4.15387 
346 ,72.5361 ,1.56944 ,-0.45072 ,-4.42249 
347 ,72.7282 ,1.57132 ,-0.46099 ,-4.52323 
348 ,72.9364 ,1.57340 ,-0.47468 ,-4.65754 
349 ,73.1443 ,1.57547 ,-0.46099 ,-4.52323 
350 ,73.3365 ,1.57744 ,-0.49179 ,-4.82543 
351 ,73.5442 ,1.57951 ,-0.47468 ,-4.65754 
352 ,73.7527 ,1.58154 ,-0.49863 ,-4.89259 
353 ,73.9608 ,1.58363 ,-0.49521 ,-4.85901 
354 ,74.1529 ,1.58553 ,-0.53628 ,-5.26195 
355 ,74.3770 ,1.58779 ,-0.52601 ,-5.16121 
356 ,74.5854 ,1.58981 ,-0.52601 ,-5.16121 
357 ,74.7932 ,1.59199 ,-0.56023 ,-5.49700 
358 ,75.0172 ,1.59416 ,-0.55681 ,-5.46342 
359 ,75.2254 ,1.59621 ,-0.56365 ,-5.53058 
360 ,75.4494 ,1.59846 ,-0.57734 ,-5.66489 
361 ,75.6573 ,1.60067 ,-0.60130 ,-5.89994 
362 ,75.8492 ,1.60255 ,-0.59788 ,-5.86636 
363 ,76.0576 ,1.60462 ,-0.62868 ,-6.16856 
364 ,76.2658 ,1.60663 ,-0.61841 ,-6.06783 
365 ,76.4733 ,1.60873 ,-0.62868 ,-6.16856 
366 ,76.6974 ,1.61109 ,-0.64921 ,-6.37003 
367 ,76.9054 ,1.61306 ,-0.64236 ,-6.30288 
368 ,77.1138 ,1.61516 ,-0.66974 ,-6.57150 
369 ,77.3538 ,1.61760 ,-0.69370 ,-6.80655 
370 ,77.5622 ,1.61967 ,-0.68001 ,-6.67224 
371 ,77.7701 ,1.62171 ,-0.69027 ,-6.77297 
372 ,77.9780 ,1.62376 ,-0.71081 ,-6.97444 
373 ,78.1704 ,1.62586 ,-0.70054 ,-6.87371 
374 ,78.3786 ,1.62780 ,-0.73818 ,-7.24307 
375 ,78.5869 ,1.62988 ,-0.71765 ,-7.04160 
376 ,78.8108 ,1.63210 ,-0.74161 ,-7.27665 
377 ,79.0189 ,1.63421 ,-0.76214 ,-7.47812 
378 ,79.2269 ,1.63638 ,-0.75187 ,-7.37738 
379 ,79.4510 ,1.63844 ,-0.76898 ,-7.54527 
380 ,79.6752 ,1.64074 ,-0.78610 ,-7.71317 
381 ,79.8832 ,1.64290 ,-0.77925 ,-7.64601 
382 ,80.0913 ,1.64485 ,-0.79978 ,-7.84748 
383 ,80.2994 ,1.64698 ,-0.82032 ,-8.04895 
384 ,80.4914 ,1.64906 ,-0.81689 ,-8.01537 
385 ,80.6995 ,1.65096 ,-0.83743 ,-8.21684 
386 ,80.9232 ,1.65320 ,-0.82032 ,-8.04895 
387 ,81.1154 ,1.65529 ,-0.84427 ,-8.28400 
388 ,81.3074 ,1.65711 ,-0.84085 ,-8.25042 
389 ,81.5157 ,1.65917 ,-0.87165 ,-8.55262 
390 ,81.7236 ,1.66132 ,-0.86823 ,-8.51904 
391 ,81.9001 ,1.66316 ,-0.89560 ,-8.78767 
392 ,82.1082 ,1.66504 ,-0.88534 ,-8.68694 
393 ,82.3323 ,1.66730 ,-0.90587 ,-8.88841 
394 ,82.5243 ,1.66934 ,-0.89903 ,-8.82125 
395 ,82.7322 ,1.67131 ,-0.91956 ,-9.02272 
396 ,82.9245 ,1.67332 ,-0.92640 ,-9.08988 
397 ,83.1326 ,1.67534 ,-0.93667 ,-9.19061 
398 ,83.3407 ,1.67747 ,-0.95036 ,-9.32492 
399 ,83.5484 ,1.67956 ,-0.93325 ,-9.15703 
400 ,83.7567 ,1.68151 ,-0.96063 ,-9.42566 
401 ,83.9647 ,1.68362 ,-0.96405 ,-9.45924 
402 ,84.1892 ,1.68584 ,-0.97089 ,-9.52639 
403 ,84.3973 ,1.68797 ,-1.00169 ,-9.82860 
404 ,84.6209 ,1.69014 ,-0.99827 ,-9.79502 
405 ,84.8294 ,1.69228 ,-1.00854 ,-9.89576 
406 ,85.0536 ,1.69451 ,-1.02565 ,-10.06365 
407 ,85.2615 ,1.69657 ,-1.02907 ,-10.09723 
408 ,85.4856 ,1.69884 ,-1.02222 ,-10.03007 
409 ,85.6933 ,1.70091 ,-1.04960 ,-10.29869 
410 ,85.9018 ,1.70304 ,-1.04960 ,-10.29869 
411 ,86.1260 ,1.70522 ,-1.05302 ,-10.33227 
412 ,86.3501 ,1.70744 ,-1.05645 ,-10.36585 
413 ,86.5581 ,1.70955 ,-1.09067 ,-10.70163 
414 ,86.7502 ,1.71148 ,-1.09409 ,-10.73521 
415 ,86.9741 ,1.71372 ,-1.11120 ,-10.90310 
416 ,87.1822 ,1.71583 ,-1.11805 ,-10.97026 
417 ,87.4063 ,1.71799 ,-1.12489 ,-11.03742 
418 ,87.6146 ,1.72011 ,-1.13858 ,-11.17173 
419 ,87.8225 ,1.72216 ,-1.13858 ,-11.17173 
420 ,88.0467 ,1.72438 ,-1.13858 ,-11.17173 
421 ,88.2547 ,1.72649 ,-1.18991 ,-11.67541 
422 ,88.4468 ,1.72849 ,-1.13516 ,-11.13815 
423 ,88.6709 ,1.73063 ,-1.16596 ,-11.44036 
424 ,88.8631 ,1.73261 ,-1.15227 ,-11.30604 
425 ,89.0868 ,1.73484 ,-1.15911 ,-11.37320 
426 ,89.2955 ,1.73693 ,-1.17280 ,-11.50751 
427 ,89.5192 ,1.73911 ,-1.20360 ,-11.80972 
428 ,89.6954 ,1.74105 ,-1.17622 ,-11.54109 
429 ,89.9035 ,1.74295 ,-1.24124 ,-12.17908 
430 ,90.1115 ,1.74504 ,-1.24124 ,-12.17908 
431 ,90.3515 ,1.74738 ,-1.25493 ,-12.31339 
432 ,90.5758 ,1.74959 ,-1.26178 ,-12.38055 
433 ,90.7836 ,1.75181 ,-1.25151 ,-12.27981 
434 ,90.9921 ,1.75396 ,-1.26178 ,-12.38055 
435 ,91.1998 ,1.75598 ,-1.28915 ,-12.64918 
436 ,91.4240 ,1.75818 ,-1.28231 ,-12.58202 
437 ,91.6478 ,1.76039 ,-1.31311 ,-12.88422 
438 ,91.8401 ,1.76237 ,-1.28915 ,-12.64918 
439 ,92.0484 ,1.76444 ,-1.25493 ,-12.31339 
440 ,92.2565 ,1.76656 ,-1.27889 ,-12.54844 
441 ,92.4644 ,1.76857 ,-1.28231 ,-12.58202 
442 ,92.6888 ,1.77078 ,-1.28915 ,-12.64918 
443 ,92.9126 ,1.77306 ,-1.31995 ,-12.95138 
444 ,93.1209 ,1.77510 ,-1.33022 ,-13.05212 
445 ,93.3289 ,1.77723 ,-1.33364 ,-13.08569 
446 ,93.5205 ,1.77922 ,-1.36102 ,-13.35432 
447 ,93.7292 ,1.78124 ,-1.35075 ,-13.25359 
448 ,93.9212 ,1.78326 ,-1.38497 ,-13.58937 
449 ,94.1132 ,1.78519 ,-1.36444 ,-13.38790 
450 ,94.3213 ,1.78718 ,-1.37471 ,-13.48863 
451 ,94.5294 ,1.78922 ,-1.36102 ,-13.35432 
452 ,94.7534 ,1.79154 ,-1.39182 ,-13.65653 
453 ,94.9616 ,1.79360 ,-1.40551 ,-13.79084 
454 ,95.1692 ,1.79572 ,-1.40209 ,-13.75726 
455 ,95.3777 ,1.79766 ,-1.41920 ,-13.92515 
456 ,95.5859 ,1.79976 ,-1.40551 ,-13.79084 
457 ,95.7940 ,1.80185 ,-1.42946 ,-14.02589 
458 ,95.9861 ,1.80384 ,-1.44657 ,-14.19378 
459 ,96.1941 ,1.80582 ,-1.46711 ,-14.39525 
460 ,96.3858 ,1.80789 ,-1.47395 ,-14.46240 
