Data stamp = , 17-05-2022 05:33:36 127

Calibration Values: 
Slope = , 26.54 , g/V 
Offset Voltage at no contact = , -0.501760 , V 

No , Time , Stage Position ,   Mass , Force 
   ,  (s) ,      (mm)      ,   (g)  , (mN)  

1 ,0.0000 ,0.84970 ,5.08292 ,49.87362 
2 ,0.3552 ,0.85000 ,5.07608 ,49.80646 
3 ,0.7231 ,0.85165 ,5.08634 ,49.90720 
4 ,0.9318 ,0.85381 ,5.07265 ,49.77289 
5 ,1.1553 ,0.85596 ,5.07950 ,49.84004 
6 ,1.3634 ,0.85799 ,5.06581 ,49.70573 
7 ,1.5556 ,0.86000 ,5.07265 ,49.77289 
8 ,1.7635 ,0.86203 ,5.04185 ,49.47068 
9 ,1.9718 ,0.86413 ,5.03159 ,49.36995 
10 ,2.2122 ,0.86643 ,5.00421 ,49.10132 
11 ,2.4362 ,0.86878 ,4.99052 ,48.96701 
12 ,2.6444 ,0.87089 ,4.94946 ,48.56407 
13 ,2.8520 ,0.87296 ,4.94946 ,48.56407 
14 ,3.0605 ,0.87503 ,4.92208 ,48.29544 
15 ,3.2844 ,0.87729 ,4.88444 ,47.92608 
16 ,3.4924 ,0.87936 ,4.87759 ,47.85892 
17 ,3.7008 ,0.88138 ,4.84337 ,47.52314 
18 ,3.9248 ,0.88361 ,4.82626 ,47.35525 
19 ,4.1491 ,0.88583 ,4.81257 ,47.22093 
20 ,4.3731 ,0.88815 ,4.79204 ,47.01946 
21 ,4.5812 ,0.89029 ,4.76466 ,46.75084 
22 ,4.7892 ,0.89236 ,4.72359 ,46.34790 
23 ,4.9971 ,0.89437 ,4.71333 ,46.24716 
24 ,5.2213 ,0.89667 ,4.68595 ,45.97854 
25 ,5.4295 ,0.89869 ,4.65515 ,45.67633 
26 ,5.6373 ,0.90081 ,4.65857 ,45.70991 
27 ,5.8459 ,0.90287 ,4.61408 ,45.27339 
28 ,6.0538 ,0.90497 ,4.61066 ,45.23981 
29 ,6.2617 ,0.90714 ,4.57986 ,44.93761 
30 ,6.4538 ,0.90896 ,4.55591 ,44.70256 
31 ,6.6460 ,0.91090 ,4.51142 ,44.26604 
32 ,6.8700 ,0.91309 ,4.50800 ,44.23247 
33 ,7.0942 ,0.91532 ,4.49431 ,44.09815 
34 ,7.3018 ,0.91737 ,4.45324 ,43.69521 
35 ,7.5103 ,0.91956 ,4.44640 ,43.62806 
36 ,7.7182 ,0.92164 ,4.42244 ,43.39301 
37 ,7.9266 ,0.92370 ,4.39507 ,43.12438 
38 ,8.1347 ,0.92580 ,4.38138 ,42.99007 
39 ,8.3585 ,0.92800 ,4.34373 ,42.62071 
40 ,8.5666 ,0.93004 ,4.30951 ,42.28492 
41 ,8.7748 ,0.93215 ,4.32320 ,42.41924 
42 ,8.9990 ,0.93438 ,4.28556 ,42.04988 
43 ,9.2070 ,0.93645 ,4.25818 ,41.78125 
44 ,9.4151 ,0.93855 ,4.24107 ,41.61336 
45 ,9.6391 ,0.94074 ,4.21369 ,41.34473 
46 ,9.8152 ,0.94273 ,4.18974 ,41.10968 
47 ,10.0232 ,0.94466 ,4.17947 ,41.00895 
48 ,10.2311 ,0.94676 ,4.14867 ,40.70674 
49 ,10.4393 ,0.94877 ,4.12814 ,40.50527 
50 ,10.6312 ,0.95085 ,4.11103 ,40.33738 
51 ,10.8234 ,0.95276 ,4.09391 ,40.16949 
52 ,11.0479 ,0.95483 ,4.05285 ,39.76655 
53 ,11.2559 ,0.95694 ,4.04943 ,39.73297 
54 ,11.4478 ,0.95888 ,4.01178 ,39.36361 
55 ,11.6721 ,0.96111 ,4.00836 ,39.33003 
56 ,11.8641 ,0.96318 ,3.96729 ,38.92709 
57 ,12.0720 ,0.96509 ,3.95703 ,38.82636 
58 ,12.2799 ,0.96715 ,3.94334 ,38.69205 
59 ,12.4880 ,0.96929 ,3.90912 ,38.35626 
60 ,12.6966 ,0.97139 ,3.91254 ,38.38984 
61 ,12.9040 ,0.97353 ,3.87490 ,38.02048 
62 ,13.1284 ,0.97562 ,3.84752 ,37.75185 
63 ,13.3368 ,0.97774 ,3.84067 ,37.68470 
64 ,13.5449 ,0.97993 ,3.80303 ,37.31534 
65 ,13.7529 ,0.98194 ,3.79619 ,37.24818 
66 ,13.9765 ,0.98410 ,3.77565 ,37.04671 
67 ,14.1851 ,0.98630 ,3.73801 ,36.67735 
68 ,14.3932 ,0.98832 ,3.73801 ,36.67735 
69 ,14.5854 ,0.99026 ,3.69694 ,36.27441 
70 ,14.7934 ,0.99232 ,3.68668 ,36.17367 
71 ,15.0171 ,0.99453 ,3.65930 ,35.90505 
72 ,15.2252 ,0.99662 ,3.62508 ,35.56926 
73 ,15.4336 ,0.99869 ,3.62166 ,35.53569 
74 ,15.6257 ,1.00063 ,3.57717 ,35.09917 
75 ,15.8178 ,1.00261 ,3.57717 ,35.09917 
76 ,16.0419 ,1.00481 ,3.53952 ,34.72981 
77 ,16.2501 ,1.00687 ,3.53610 ,34.69623 
78 ,16.4738 ,1.00910 ,3.51899 ,34.52834 
79 ,16.6822 ,1.01119 ,3.48477 ,34.19255 
80 ,16.8903 ,1.01331 ,3.45739 ,33.92393 
81 ,17.0983 ,1.01533 ,3.44028 ,33.75604 
82 ,17.2901 ,1.01734 ,3.41633 ,33.52099 
83 ,17.4982 ,1.01928 ,3.39237 ,33.28594 
84 ,17.7066 ,1.02148 ,3.36842 ,33.05089 
85 ,17.9145 ,1.02351 ,3.37184 ,33.08447 
86 ,18.1388 ,1.02571 ,3.33077 ,32.68153 
87 ,18.3464 ,1.02785 ,3.31366 ,32.51364 
88 ,18.5550 ,1.02997 ,3.29655 ,32.34575 
89 ,18.7629 ,1.03199 ,3.26917 ,32.07712 
90 ,18.9712 ,1.03406 ,3.26917 ,32.07712 
91 ,19.1792 ,1.03613 ,3.22126 ,31.60702 
92 ,19.3871 ,1.03825 ,3.22126 ,31.60702 
93 ,19.6273 ,1.04056 ,3.19046 ,31.30482 
94 ,19.8355 ,1.04274 ,3.17677 ,31.17051 
95 ,20.0438 ,1.04479 ,3.13571 ,30.76757 
96 ,20.2518 ,1.04689 ,3.14597 ,30.86830 
97 ,20.4595 ,1.04894 ,3.09806 ,30.39821 
98 ,20.6837 ,1.05123 ,3.07753 ,30.19674 
99 ,20.8920 ,1.05333 ,3.06384 ,30.06242 
100 ,21.0997 ,1.05531 ,3.03647 ,29.79380 
101 ,21.3081 ,1.05738 ,3.03989 ,29.82737 
102 ,21.5002 ,1.05938 ,2.99882 ,29.42444 
103 ,21.6918 ,1.06138 ,2.99540 ,29.39086 
104 ,21.8841 ,1.06321 ,2.95776 ,29.02150 
105 ,22.0925 ,1.06531 ,2.97144 ,29.15581 
106 ,22.3003 ,1.06730 ,2.93380 ,28.78645 
107 ,22.4927 ,1.06926 ,2.93722 ,28.82003 
108 ,22.7007 ,1.07135 ,2.88247 ,28.28277 
109 ,22.9087 ,1.07346 ,2.88589 ,28.31635 
110 ,23.1165 ,1.07557 ,2.85509 ,28.01415 
111 ,23.3089 ,1.07745 ,2.85167 ,27.98057 
112 ,23.5170 ,1.07952 ,2.81402 ,27.61121 
113 ,23.7247 ,1.08168 ,2.79007 ,27.37616 
114 ,23.9328 ,1.08363 ,2.79691 ,27.44332 
115 ,24.1248 ,1.08565 ,2.77296 ,27.20827 
116 ,24.3491 ,1.08785 ,2.76269 ,27.10753 
117 ,24.5573 ,1.08989 ,2.73189 ,26.80533 
118 ,24.7654 ,1.09209 ,2.70794 ,26.57028 
119 ,24.9571 ,1.09392 ,2.69767 ,26.46954 
120 ,25.1653 ,1.09599 ,2.69425 ,26.43597 
121 ,25.3738 ,1.09808 ,2.68740 ,26.36881 
122 ,25.5658 ,1.10003 ,2.65660 ,26.06661 
123 ,25.7739 ,1.10212 ,2.64634 ,25.96587 
124 ,25.9820 ,1.10410 ,2.61896 ,25.69724 
125 ,26.2060 ,1.10633 ,2.61896 ,25.69724 
126 ,26.3981 ,1.10830 ,2.59158 ,25.42862 
127 ,26.6062 ,1.11034 ,2.58474 ,25.36146 
128 ,26.7982 ,1.11230 ,2.55394 ,25.05926 
129 ,26.9904 ,1.11424 ,2.55394 ,25.05926 
130 ,27.2140 ,1.11647 ,2.52314 ,24.75705 
131 ,27.4223 ,1.11857 ,2.49576 ,24.48842 
132 ,27.6307 ,1.12067 ,2.49576 ,24.48842 
133 ,27.8386 ,1.12267 ,2.46496 ,24.18622 
134 ,28.0468 ,1.12484 ,2.46154 ,24.15264 
135 ,28.2550 ,1.12687 ,2.42732 ,23.81686 
136 ,28.4631 ,1.12901 ,2.42732 ,23.81686 
137 ,28.6871 ,1.13118 ,2.41363 ,23.68255 
138 ,28.9112 ,1.13345 ,2.38968 ,23.44750 
139 ,29.1192 ,1.13552 ,2.37256 ,23.27961 
140 ,29.3430 ,1.13774 ,2.34861 ,23.04456 
141 ,29.5671 ,1.13988 ,2.34519 ,23.01098 
142 ,29.7755 ,1.14205 ,2.32465 ,22.80951 
143 ,29.9996 ,1.14420 ,2.31097 ,22.67520 
144 ,30.1758 ,1.14625 ,2.29043 ,22.47373 
145 ,30.3996 ,1.14828 ,2.25279 ,22.10437 
146 ,30.5919 ,1.15022 ,2.25963 ,22.17152 
147 ,30.7999 ,1.15226 ,2.22199 ,21.80216 
148 ,30.9759 ,1.15421 ,2.23226 ,21.90290 
149 ,31.1840 ,1.15619 ,2.20488 ,21.63427 
150 ,31.3762 ,1.15809 ,2.19119 ,21.49996 
151 ,31.5838 ,1.16020 ,2.17750 ,21.36564 
152 ,31.7924 ,1.16227 ,2.17408 ,21.33206 
153 ,32.0162 ,1.16446 ,2.13644 ,20.96270 
154 ,32.2245 ,1.16651 ,2.11248 ,20.72766 
155 ,32.4164 ,1.16851 ,2.10564 ,20.66050 
156 ,32.6087 ,1.17043 ,2.09537 ,20.55976 
157 ,32.8006 ,1.17237 ,2.07141 ,20.32472 
158 ,32.9928 ,1.17428 ,2.07826 ,20.39187 
159 ,33.2006 ,1.17626 ,2.02693 ,19.88820 
160 ,33.4090 ,1.17832 ,2.04746 ,20.08967 
161 ,33.6169 ,1.18046 ,2.01324 ,19.75388 
162 ,33.8248 ,1.18260 ,1.99613 ,19.58599 
163 ,34.0333 ,1.18464 ,1.98586 ,19.48526 
164 ,34.2415 ,1.18677 ,1.95848 ,19.21663 
165 ,34.4495 ,1.18875 ,1.96533 ,19.28379 
166 ,34.6574 ,1.19087 ,1.94137 ,19.04874 
167 ,34.8657 ,1.19297 ,1.91742 ,18.81369 
168 ,35.1057 ,1.19524 ,1.89346 ,18.57864 
169 ,35.3299 ,1.19757 ,1.90373 ,18.67938 
170 ,35.5380 ,1.19966 ,1.86951 ,18.34360 
171 ,35.7940 ,1.20203 ,1.84555 ,18.10855 
172 ,36.0176 ,1.20444 ,1.81475 ,17.80634 
173 ,36.2101 ,1.20655 ,1.82844 ,17.94066 
174 ,36.4178 ,1.20845 ,1.79422 ,17.60487 
175 ,36.6263 ,1.21050 ,1.79080 ,17.57129 
176 ,36.8342 ,1.21260 ,1.77711 ,17.43698 
177 ,37.0265 ,1.21460 ,1.74631 ,17.13478 
178 ,37.2024 ,1.21648 ,1.74631 ,17.13478 
179 ,37.3946 ,1.21827 ,1.73946 ,17.06762 
180 ,37.5864 ,1.22032 ,1.69498 ,16.63110 
181 ,37.7947 ,1.22223 ,1.70182 ,16.69826 
182 ,38.0028 ,1.22436 ,1.67102 ,16.39605 
183 ,38.1948 ,1.22627 ,1.66760 ,16.36248 
184 ,38.4032 ,1.22834 ,1.65049 ,16.19458 
185 ,38.6269 ,1.23057 ,1.64707 ,16.16101 
186 ,38.8192 ,1.23251 ,1.61284 ,15.82522 
187 ,39.0434 ,1.23471 ,1.58547 ,15.55660 
188 ,39.2513 ,1.23678 ,1.59916 ,15.69091 
189 ,39.4435 ,1.23882 ,1.55809 ,15.28797 
190 ,39.6356 ,1.24066 ,1.57178 ,15.42228 
191 ,39.8436 ,1.24273 ,1.53756 ,15.08650 
192 ,40.0358 ,1.24467 ,1.53413 ,15.05292 
193 ,40.2438 ,1.24671 ,1.50676 ,14.78430 
194 ,40.4355 ,1.24870 ,1.50333 ,14.75072 
195 ,40.6441 ,1.25076 ,1.47596 ,14.48209 
196 ,40.8525 ,1.25281 ,1.48622 ,14.58283 
197 ,41.0602 ,1.25494 ,1.44174 ,14.14631 
198 ,41.2842 ,1.25708 ,1.42462 ,13.97842 
199 ,41.4924 ,1.25920 ,1.43147 ,14.04557 
200 ,41.7162 ,1.26143 ,1.40409 ,13.77695 
201 ,41.9246 ,1.26356 ,1.38698 ,13.60906 
202 ,42.1166 ,1.26548 ,1.38698 ,13.60906 
203 ,42.3408 ,1.26769 ,1.34249 ,13.17254 
204 ,42.5489 ,1.26971 ,1.35618 ,13.30685 
205 ,42.7724 ,1.27195 ,1.33907 ,13.13896 
206 ,42.9810 ,1.27405 ,1.30485 ,12.80318 
207 ,43.1890 ,1.27616 ,1.30485 ,12.80318 
208 ,43.3971 ,1.27820 ,1.29458 ,12.70244 
209 ,43.6052 ,1.28035 ,1.25694 ,12.33308 
210 ,43.7969 ,1.28237 ,1.25694 ,12.33308 
211 ,44.0212 ,1.28440 ,1.23298 ,12.09803 
212 ,44.2291 ,1.28666 ,1.22956 ,12.06445 
213 ,44.4374 ,1.28860 ,1.21245 ,11.89656 
214 ,44.6452 ,1.29064 ,1.19192 ,11.69509 
215 ,44.8694 ,1.29282 ,1.20218 ,11.79583 
216 ,45.0777 ,1.29507 ,1.15770 ,11.35931 
217 ,45.2855 ,1.29720 ,1.14401 ,11.22500 
218 ,45.4935 ,1.29918 ,1.14401 ,11.22500 
219 ,45.7179 ,1.30141 ,1.12347 ,11.02353 
220 ,45.9579 ,1.30386 ,1.09952 ,10.78848 
221 ,46.1662 ,1.30596 ,1.08925 ,10.68774 
222 ,46.3904 ,1.30817 ,1.08241 ,10.62059 
223 ,46.6145 ,1.31040 ,1.08583 ,10.65416 
224 ,46.8226 ,1.31246 ,1.04134 ,10.21765 
225 ,47.0305 ,1.31454 ,1.05161 ,10.31838 
226 ,47.2227 ,1.31655 ,1.01396 ,9.94902 
227 ,47.4308 ,1.31852 ,1.01396 ,9.94902 
228 ,47.6390 ,1.32060 ,0.98317 ,9.64682 
229 ,47.8627 ,1.32286 ,0.96948 ,9.51250 
230 ,48.0551 ,1.32482 ,0.97974 ,9.61324 
231 ,48.2467 ,1.32677 ,0.94894 ,9.31103 
232 ,48.4554 ,1.32878 ,0.94552 ,9.27745 
233 ,48.6634 ,1.33092 ,0.91472 ,8.97525 
234 ,48.8715 ,1.33304 ,0.91472 ,8.97525 
235 ,49.0956 ,1.33519 ,0.90103 ,8.84094 
236 ,49.3034 ,1.33725 ,0.86681 ,8.50515 
237 ,49.5274 ,1.33957 ,0.86681 ,8.50515 
238 ,49.7357 ,1.34158 ,0.85654 ,8.40442 
239 ,49.9438 ,1.34368 ,0.81890 ,8.03506 
240 ,50.1678 ,1.34586 ,0.82575 ,8.10221 
241 ,50.3601 ,1.34789 ,0.81548 ,8.00148 
242 ,50.5521 ,1.34993 ,0.79152 ,7.76643 
243 ,50.7442 ,1.35172 ,0.78126 ,7.66570 
244 ,50.9681 ,1.35387 ,0.76415 ,7.49780 
245 ,51.1762 ,1.35596 ,0.77784 ,7.63212 
246 ,51.3844 ,1.35808 ,0.74361 ,7.29633 
247 ,51.5761 ,1.36006 ,0.75046 ,7.36349 
248 ,51.8007 ,1.36214 ,0.71624 ,7.02771 
249 ,52.0247 ,1.36448 ,0.69228 ,6.79266 
250 ,52.2166 ,1.36646 ,0.70597 ,6.92697 
251 ,52.4089 ,1.36835 ,0.68544 ,6.72550 
252 ,52.6168 ,1.37032 ,0.68201 ,6.69193 
253 ,52.8250 ,1.37248 ,0.64437 ,6.32256 
254 ,53.0331 ,1.37456 ,0.64779 ,6.35614 
255 ,53.2411 ,1.37662 ,0.62042 ,6.08752 
256 ,53.4333 ,1.37861 ,0.61699 ,6.05394 
257 ,53.6411 ,1.38066 ,0.60330 ,5.91962 
258 ,53.8330 ,1.38261 ,0.59304 ,5.81889 
259 ,54.0413 ,1.38463 ,0.57593 ,5.65100 
260 ,54.2337 ,1.38659 ,0.56566 ,5.55026 
261 ,54.4577 ,1.38879 ,0.56908 ,5.58384 
262 ,54.6815 ,1.39097 ,0.54855 ,5.38237 
263 ,54.8895 ,1.39313 ,0.53486 ,5.24806 
264 ,55.0980 ,1.39517 ,0.52802 ,5.18090 
265 ,55.3061 ,1.39723 ,0.49722 ,4.87870 
266 ,55.5302 ,1.39940 ,0.50406 ,4.94585 
267 ,55.7381 ,1.40163 ,0.49380 ,4.84512 
268 ,55.9621 ,1.40382 ,0.46642 ,4.57649 
269 ,56.1703 ,1.40600 ,0.46984 ,4.61007 
270 ,56.3946 ,1.40816 ,0.45273 ,4.44218 
271 ,56.6022 ,1.41023 ,0.42535 ,4.17355 
272 ,56.7947 ,1.41220 ,0.41851 ,4.10640 
273 ,57.0027 ,1.41421 ,0.39797 ,3.90493 
274 ,57.1949 ,1.41621 ,0.39455 ,3.87135 
275 ,57.4029 ,1.41823 ,0.38086 ,3.73703 
276 ,57.6431 ,1.42046 ,0.36375 ,3.56914 
277 ,57.8669 ,1.42291 ,0.33980 ,3.33410 
278 ,58.0752 ,1.42495 ,0.34664 ,3.40125 
279 ,58.2829 ,1.42701 ,0.34322 ,3.36767 
280 ,58.4751 ,1.42900 ,0.32269 ,3.16620 
281 ,58.6830 ,1.43104 ,0.30215 ,2.96473 
282 ,58.8914 ,1.43310 ,0.29189 ,2.86400 
283 ,59.0997 ,1.43518 ,0.28162 ,2.76326 
284 ,59.3073 ,1.43737 ,0.25767 ,2.52822 
285 ,59.5318 ,1.43944 ,0.26451 ,2.59537 
286 ,59.7559 ,1.44171 ,0.26109 ,2.56179 
287 ,59.9639 ,1.44385 ,0.23029 ,2.25959 
288 ,60.1560 ,1.44579 ,0.22687 ,2.22601 
289 ,60.3479 ,1.44780 ,0.20976 ,2.05812 
290 ,60.5721 ,1.44985 ,0.20976 ,2.05812 
291 ,60.7963 ,1.45215 ,0.18922 ,1.85665 
292 ,61.0204 ,1.45438 ,0.17896 ,1.75592 
293 ,61.2281 ,1.45642 ,0.15842 ,1.55445 
294 ,61.4206 ,1.45842 ,0.16185 ,1.58802 
295 ,61.6446 ,1.46068 ,0.13447 ,1.31940 
296 ,61.8367 ,1.46258 ,0.13105 ,1.28582 
297 ,62.0609 ,1.46474 ,0.12078 ,1.18508 
298 ,62.2687 ,1.46686 ,0.08998 ,0.88288 
299 ,62.4930 ,1.46910 ,0.08656 ,0.84930 
300 ,62.7007 ,1.47117 ,0.09682 ,0.95004 
301 ,62.8930 ,1.47321 ,0.05576 ,0.54710 
302 ,63.1012 ,1.47519 ,0.06260 ,0.61425 
303 ,63.3091 ,1.47723 ,0.04207 ,0.41278 
304 ,63.5170 ,1.47942 ,0.04549 ,0.44636 
305 ,63.7095 ,1.48128 ,0.01127 ,0.11058 
306 ,63.9337 ,1.48353 ,0.01469 ,0.14416 
307 ,64.1577 ,1.48577 ,0.00443 ,0.04342 
308 ,64.3655 ,1.48783 ,-0.02295 ,-0.22520 
309 ,64.5739 ,1.48993 ,-0.01953 ,-0.19163 
310 ,64.7820 ,1.49200 ,-0.02637 ,-0.25878 
311 ,64.9900 ,1.49413 ,-0.04348 ,-0.42667 
312 ,65.1822 ,1.49606 ,-0.05717 ,-0.56099 
313 ,65.4063 ,1.49822 ,-0.07086 ,-0.69530 
314 ,65.6302 ,1.50048 ,-0.08455 ,-0.82961 
315 ,65.8545 ,1.50270 ,-0.09482 ,-0.93035 
316 ,66.0623 ,1.50474 ,-0.10166 ,-0.99751 
317 ,66.2548 ,1.50675 ,-0.11535 ,-1.13182 
318 ,66.4628 ,1.50879 ,-0.11535 ,-1.13182 
319 ,66.6864 ,1.51108 ,-0.14957 ,-1.46760 
320 ,66.8789 ,1.51297 ,-0.13246 ,-1.29971 
321 ,67.1025 ,1.51514 ,-0.16326 ,-1.60191 
322 ,67.3111 ,1.51726 ,-0.18379 ,-1.80338 
323 ,67.5191 ,1.51936 ,-0.17353 ,-1.70265 
324 ,67.7112 ,1.52135 ,-0.20090 ,-1.97128 
325 ,67.9351 ,1.52351 ,-0.20090 ,-1.97128 
326 ,68.1432 ,1.52558 ,-0.20775 ,-2.03843 
327 ,68.3675 ,1.52787 ,-0.23513 ,-2.30706 
328 ,68.5753 ,1.52995 ,-0.22828 ,-2.23990 
329 ,68.7838 ,1.53201 ,-0.23855 ,-2.34064 
330 ,69.0238 ,1.53441 ,-0.26250 ,-2.57569 
331 ,69.2319 ,1.53648 ,-0.27619 ,-2.71000 
332 ,69.4560 ,1.53871 ,-0.26935 ,-2.64284 
333 ,69.6640 ,1.54088 ,-0.27961 ,-2.74358 
334 ,69.8562 ,1.54272 ,-0.30015 ,-2.94505 
335 ,70.0642 ,1.54482 ,-0.30015 ,-2.94505 
336 ,70.2883 ,1.54705 ,-0.32068 ,-3.14652 
337 ,70.4964 ,1.54911 ,-0.33095 ,-3.24725 
338 ,70.6882 ,1.55106 ,-0.34806 ,-3.41514 
339 ,70.8966 ,1.55308 ,-0.34464 ,-3.38156 
340 ,71.1046 ,1.55527 ,-0.35148 ,-3.44872 
341 ,71.2967 ,1.55722 ,-0.37886 ,-3.71735 
342 ,71.4883 ,1.55915 ,-0.36517 ,-3.58303 
343 ,71.6967 ,1.56114 ,-0.38570 ,-3.78450 
344 ,71.9209 ,1.56327 ,-0.38912 ,-3.81808 
345 ,72.1291 ,1.56546 ,-0.41650 ,-4.08671 
346 ,72.3369 ,1.56754 ,-0.42677 ,-4.18744 
347 ,72.5610 ,1.56970 ,-0.43019 ,-4.22102 
348 ,72.7691 ,1.57186 ,-0.45757 ,-4.48965 
349 ,72.9931 ,1.57403 ,-0.46099 ,-4.52323 
350 ,73.1854 ,1.57610 ,-0.45414 ,-4.45607 
351 ,73.3774 ,1.57795 ,-0.47810 ,-4.69112 
352 ,73.5696 ,1.57987 ,-0.48152 ,-4.72470 
353 ,73.7935 ,1.58207 ,-0.50548 ,-4.95975 
354 ,73.9857 ,1.58400 ,-0.48837 ,-4.79185 
355 ,74.1776 ,1.58594 ,-0.51574 ,-5.06048 
356 ,74.4019 ,1.58812 ,-0.50206 ,-4.92617 
357 ,74.6099 ,1.59021 ,-0.53970 ,-5.29553 
358 ,74.8016 ,1.59222 ,-0.52601 ,-5.16121 
359 ,74.9941 ,1.59423 ,-0.56023 ,-5.49700 
360 ,75.2177 ,1.59627 ,-0.57050 ,-5.59773 
361 ,75.4103 ,1.59828 ,-0.57392 ,-5.63131 
362 ,75.6023 ,1.60024 ,-0.56708 ,-5.56415 
363 ,75.8103 ,1.60219 ,-0.59788 ,-5.86636 
364 ,76.0024 ,1.60420 ,-0.59788 ,-5.86636 
365 ,76.1946 ,1.60612 ,-0.62183 ,-6.10141 
366 ,76.4027 ,1.60817 ,-0.61499 ,-6.03425 
367 ,76.6267 ,1.61040 ,-0.63210 ,-6.20214 
368 ,76.8186 ,1.61236 ,-0.63894 ,-6.26930 
369 ,77.0425 ,1.61458 ,-0.64579 ,-6.33646 
370 ,77.2512 ,1.61665 ,-0.65947 ,-6.47077 
371 ,77.4752 ,1.61885 ,-0.66974 ,-6.57150 
372 ,77.6831 ,1.62093 ,-0.67659 ,-6.63866 
373 ,77.8913 ,1.62305 ,-0.70396 ,-6.90729 
374 ,78.0992 ,1.62507 ,-0.69027 ,-6.77297 
375 ,78.3229 ,1.62738 ,-0.71081 ,-6.97444 
376 ,78.5152 ,1.62934 ,-0.73134 ,-7.17591 
377 ,78.7232 ,1.63135 ,-0.70739 ,-6.94086 
378 ,78.9316 ,1.63347 ,-0.73818 ,-7.24307 
379 ,79.1558 ,1.63571 ,-0.76214 ,-7.47812 
380 ,79.3477 ,1.63762 ,-0.75530 ,-7.41096 
381 ,79.5561 ,1.63971 ,-0.77241 ,-7.57885 
382 ,79.7640 ,1.64185 ,-0.76214 ,-7.47812 
383 ,79.9722 ,1.64382 ,-0.79294 ,-7.78032 
384 ,80.2122 ,1.64613 ,-0.79978 ,-7.84748 
385 ,80.4361 ,1.64847 ,-0.82032 ,-8.04895 
386 ,80.6283 ,1.65042 ,-0.81005 ,-7.94821 
387 ,80.8205 ,1.65237 ,-0.82374 ,-8.08253 
388 ,81.0605 ,1.65459 ,-0.82032 ,-8.04895 
389 ,81.2686 ,1.65679 ,-0.83743 ,-8.21684 
390 ,81.4763 ,1.65895 ,-0.86823 ,-8.51904 
391 ,81.6845 ,1.66096 ,-0.85796 ,-8.41831 
392 ,81.8770 ,1.66293 ,-0.88192 ,-8.65336 
393 ,82.0850 ,1.66500 ,-0.87165 ,-8.55262 
394 ,82.2932 ,1.66707 ,-0.89903 ,-8.82125 
395 ,82.5011 ,1.66908 ,-0.90245 ,-8.85483 
396 ,82.7411 ,1.67142 ,-0.90245 ,-8.85483 
397 ,82.9651 ,1.67376 ,-0.91272 ,-8.95556 
398 ,83.1734 ,1.67585 ,-0.94351 ,-9.25777 
399 ,83.3814 ,1.67800 ,-0.94694 ,-9.29135 
400 ,83.5896 ,1.68002 ,-0.94351 ,-9.25777 
401 ,83.7972 ,1.68206 ,-0.96747 ,-9.49282 
402 ,83.9893 ,1.68406 ,-0.95036 ,-9.32492 
403 ,84.1815 ,1.68601 ,-0.98458 ,-9.66071 
404 ,84.3898 ,1.68801 ,-0.98800 ,-9.69429 
405 ,84.6139 ,1.69021 ,-0.99143 ,-9.72786 
406 ,84.8056 ,1.69219 ,-0.99827 ,-9.79502 
407 ,85.0138 ,1.69423 ,-1.01880 ,-9.99649 
408 ,85.2223 ,1.69638 ,-1.02565 ,-10.06365 
409 ,85.4303 ,1.69834 ,-1.02907 ,-10.09723 
410 ,85.6545 ,1.70060 ,-1.05302 ,-10.33227 
411 ,85.8781 ,1.70286 ,-1.06329 ,-10.43301 
412 ,86.0865 ,1.70501 ,-1.05302 ,-10.33227 
413 ,86.3108 ,1.70716 ,-1.06671 ,-10.46659 
414 ,86.5188 ,1.70925 ,-1.08725 ,-10.66806 
415 ,86.7266 ,1.71132 ,-1.07356 ,-10.53374 
416 ,86.9188 ,1.71328 ,-1.10436 ,-10.83595 
417 ,87.1267 ,1.71532 ,-1.08725 ,-10.66806 
418 ,87.3351 ,1.71741 ,-1.11462 ,-10.93668 
419 ,87.5273 ,1.71939 ,-1.10093 ,-10.80237 
420 ,87.7353 ,1.72146 ,-1.13516 ,-11.13815 
421 ,87.9594 ,1.72366 ,-1.14200 ,-11.20531 
422 ,88.1671 ,1.72573 ,-1.13173 ,-11.10457 
423 ,88.3753 ,1.72783 ,-1.15911 ,-11.37320 
424 ,88.5838 ,1.72991 ,-1.15569 ,-11.33962 
425 ,88.7917 ,1.73198 ,-1.15569 ,-11.33962 
426 ,89.0158 ,1.73421 ,-1.18649 ,-11.64183 
427 ,89.2077 ,1.73618 ,-1.17622 ,-11.54109 
428 ,89.4320 ,1.73838 ,-1.20018 ,-11.77614 
429 ,89.6561 ,1.74060 ,-1.22413 ,-12.01119 
430 ,89.8481 ,1.74261 ,-1.21044 ,-11.87688 
431 ,90.0722 ,1.74468 ,-1.22755 ,-12.04477 
432 ,90.2804 ,1.74694 ,-1.24124 ,-12.17908 
433 ,90.4883 ,1.74901 ,-1.22755 ,-12.04477 
434 ,90.7123 ,1.75115 ,-1.23782 ,-12.14550 
435 ,90.9207 ,1.75326 ,-1.26520 ,-12.41413 
436 ,91.1608 ,1.75560 ,-1.26178 ,-12.38055 
437 ,91.3849 ,1.75790 ,-1.26520 ,-12.41413 
438 ,91.6088 ,1.76004 ,-1.28915 ,-12.64918 
439 ,91.8169 ,1.76227 ,-1.29942 ,-12.74991 
440 ,92.0091 ,1.76424 ,-1.29258 ,-12.68275 
441 ,92.2331 ,1.76638 ,-1.30626 ,-12.81707 
442 ,92.4572 ,1.76863 ,-1.32680 ,-13.01854 
443 ,92.6653 ,1.77068 ,-1.32338 ,-12.98496 
444 ,92.8577 ,1.77271 ,-1.34733 ,-13.22001 
445 ,93.0655 ,1.77471 ,-1.34391 ,-13.18643 
446 ,93.2576 ,1.77670 ,-1.35417 ,-13.28716 
447 ,93.4658 ,1.77877 ,-1.36102 ,-13.35432 
448 ,93.6733 ,1.78078 ,-1.35760 ,-13.32074 
449 ,93.8816 ,1.78294 ,-1.37471 ,-13.48863 
450 ,94.0897 ,1.78504 ,-1.39182 ,-13.65653 
451 ,94.2979 ,1.78702 ,-1.40209 ,-13.75726 
452 ,94.5221 ,1.78925 ,-1.40551 ,-13.79084 
453 ,94.7300 ,1.79134 ,-1.39524 ,-13.69010 
454 ,94.9382 ,1.79346 ,-1.43631 ,-14.09304 
455 ,95.1623 ,1.79561 ,-1.43631 ,-14.09304 
456 ,95.4025 ,1.79797 ,-1.42604 ,-13.99231 
457 ,95.5940 ,1.80014 ,-1.43288 ,-14.05946 
458 ,95.7865 ,1.80196 ,-1.46026 ,-14.32809 
459 ,95.9625 ,1.80383 ,-1.45342 ,-14.26093 
460 ,96.1544 ,1.80561 ,-1.45000 ,-14.22736 
