Data stamp = , 17-05-2022 05:27:24 497

Calibration Values: 
Slope = , 26.54 , g/V 
Offset Voltage at no contact = , -0.501760 , V 

No , Time , Stage Position ,   Mass , Force 
   ,  (s) ,      (mm)      ,   (g)  , (mN)  

1 ,0.0000 ,0.84961 ,5.09319 ,49.97436 
2 ,0.3294 ,0.84987 ,5.07608 ,49.80646 
3 ,0.7136 ,0.85146 ,5.10003 ,50.04151 
4 ,0.9538 ,0.85384 ,5.07950 ,49.84004 
5 ,1.1779 ,0.85601 ,5.07265 ,49.77289 
6 ,1.3860 ,0.85815 ,5.10345 ,50.07509 
7 ,1.6102 ,0.86047 ,5.07950 ,49.84004 
8 ,1.8501 ,0.86274 ,5.03159 ,49.36995 
9 ,2.0582 ,0.86491 ,5.01448 ,49.20205 
10 ,2.2821 ,0.86706 ,5.00079 ,49.06774 
11 ,2.4905 ,0.86923 ,4.98026 ,48.86627 
12 ,2.6984 ,0.87140 ,4.94603 ,48.53049 
13 ,2.9063 ,0.87347 ,4.93919 ,48.46333 
14 ,3.1144 ,0.87551 ,4.90155 ,48.09397 
15 ,3.3068 ,0.87745 ,4.90155 ,48.09397 
16 ,3.5149 ,0.87953 ,4.86732 ,47.75819 
17 ,3.7228 ,0.88170 ,4.82284 ,47.32167 
18 ,3.9307 ,0.88369 ,4.82284 ,47.32167 
19 ,4.1232 ,0.88561 ,4.79546 ,47.05304 
20 ,4.3313 ,0.88764 ,4.78519 ,46.95231 
21 ,4.5233 ,0.88966 ,4.74413 ,46.54937 
22 ,4.7310 ,0.89169 ,4.74413 ,46.54937 
23 ,4.9394 ,0.89376 ,4.69964 ,46.11285 
24 ,5.1472 ,0.89584 ,4.69964 ,46.11285 
25 ,5.3713 ,0.89801 ,4.67226 ,45.84422 
26 ,5.5798 ,0.90014 ,4.64146 ,45.54202 
27 ,5.7876 ,0.90218 ,4.62777 ,45.40771 
28 ,6.0118 ,0.90452 ,4.60724 ,45.20624 
29 ,6.2200 ,0.90653 ,4.55933 ,44.73614 
30 ,6.4600 ,0.90882 ,4.56275 ,44.76972 
31 ,6.6523 ,0.91091 ,4.54906 ,44.63541 
32 ,6.8605 ,0.91297 ,4.49431 ,44.09815 
33 ,7.0682 ,0.91497 ,4.49089 ,44.06457 
34 ,7.2605 ,0.91695 ,4.45666 ,43.72879 
35 ,7.5165 ,0.91931 ,4.43955 ,43.56090 
36 ,7.7407 ,0.92170 ,4.41218 ,43.29227 
37 ,7.9649 ,0.92394 ,4.39164 ,43.09080 
38 ,8.1886 ,0.92619 ,4.39507 ,43.12438 
39 ,8.3970 ,0.92832 ,4.33347 ,42.51997 
40 ,8.6210 ,0.93047 ,4.30267 ,42.21777 
41 ,8.7971 ,0.93247 ,4.31636 ,42.35208 
42 ,9.0051 ,0.93434 ,4.28556 ,42.04988 
43 ,9.2131 ,0.93647 ,4.26502 ,41.84841 
44 ,9.4371 ,0.93867 ,4.23080 ,41.51262 
45 ,9.6615 ,0.94091 ,4.20685 ,41.27758 
46 ,9.8696 ,0.94301 ,4.20685 ,41.27758 
47 ,10.0776 ,0.94523 ,4.17262 ,40.94179 
48 ,10.2693 ,0.94703 ,4.16578 ,40.87464 
49 ,10.4620 ,0.94897 ,4.12814 ,40.50527 
50 ,10.6698 ,0.95106 ,4.13840 ,40.60601 
51 ,10.8777 ,0.95318 ,4.08707 ,40.10233 
52 ,11.0859 ,0.95519 ,4.08365 ,40.06876 
53 ,11.3097 ,0.95740 ,4.06996 ,39.93444 
54 ,11.5182 ,0.95951 ,4.03232 ,39.56508 
55 ,11.7423 ,0.96172 ,4.00836 ,39.33003 
56 ,11.9339 ,0.96371 ,4.00152 ,39.26288 
57 ,12.1265 ,0.96559 ,3.97414 ,38.99425 
58 ,12.3343 ,0.96773 ,3.96387 ,38.89352 
59 ,12.5426 ,0.96974 ,3.92281 ,38.49058 
60 ,12.7508 ,0.97180 ,3.91254 ,38.38984 
61 ,12.9585 ,0.97391 ,3.87490 ,38.02048 
62 ,13.1509 ,0.97583 ,3.88174 ,38.08764 
63 ,13.3430 ,0.97780 ,3.83383 ,37.61754 
64 ,13.5346 ,0.97975 ,3.84410 ,37.71828 
65 ,13.7432 ,0.98174 ,3.80303 ,37.31534 
66 ,13.9512 ,0.98379 ,3.78934 ,37.18102 
67 ,14.1592 ,0.98588 ,3.75854 ,36.87882 
68 ,14.3514 ,0.98783 ,3.75170 ,36.81166 
69 ,14.5434 ,0.98978 ,3.72090 ,36.50946 
70 ,14.7516 ,0.99185 ,3.71063 ,36.40872 
71 ,14.9756 ,0.99401 ,3.68668 ,36.17367 
72 ,15.1838 ,0.99614 ,3.65588 ,35.87147 
73 ,15.4076 ,0.99837 ,3.64903 ,35.80431 
74 ,15.6000 ,1.00035 ,3.61139 ,35.43495 
75 ,15.8077 ,1.00230 ,3.60454 ,35.36779 
76 ,16.0001 ,1.00433 ,3.57032 ,35.03201 
77 ,16.2081 ,1.00633 ,3.56006 ,34.93128 
78 ,16.4002 ,1.00834 ,3.52584 ,34.59549 
79 ,16.6080 ,1.01033 ,3.52241 ,34.56192 
80 ,16.7840 ,1.01229 ,3.48819 ,34.22613 
81 ,16.9925 ,1.01425 ,3.48477 ,34.19255 
82 ,17.2006 ,1.01637 ,3.44028 ,33.75604 
83 ,17.4246 ,1.01853 ,3.43001 ,33.65530 
84 ,17.6328 ,1.02065 ,3.42659 ,33.62172 
85 ,17.8409 ,1.02278 ,3.38210 ,33.18520 
86 ,18.0968 ,1.02510 ,3.37526 ,33.11805 
87 ,18.3051 ,1.02739 ,3.35130 ,32.88300 
88 ,18.5129 ,1.02938 ,3.33762 ,32.74869 
89 ,18.7370 ,1.03163 ,3.29655 ,32.34575 
90 ,18.9452 ,1.03374 ,3.29313 ,32.31217 
91 ,19.1372 ,1.03571 ,3.25891 ,31.97639 
92 ,19.3133 ,1.03756 ,3.25548 ,31.94281 
93 ,19.5214 ,1.03946 ,3.21442 ,31.53987 
94 ,19.7295 ,1.04155 ,3.22126 ,31.60702 
95 ,19.9373 ,1.04361 ,3.17677 ,31.17051 
96 ,20.1453 ,1.04575 ,3.16993 ,31.10335 
97 ,20.3538 ,1.04788 ,3.14940 ,30.90188 
98 ,20.5620 ,1.04988 ,3.11175 ,30.53252 
99 ,20.7860 ,1.05214 ,3.10833 ,30.49894 
100 ,20.9780 ,1.05409 ,3.07753 ,30.19674 
101 ,21.1701 ,1.05600 ,3.07753 ,30.19674 
102 ,21.3621 ,1.05794 ,3.05015 ,29.92811 
103 ,21.5542 ,1.05986 ,3.02962 ,29.72664 
104 ,21.7464 ,1.06179 ,3.02620 ,29.69306 
105 ,21.9385 ,1.06371 ,2.98513 ,29.29012 
106 ,22.1466 ,1.06574 ,2.96802 ,29.12223 
107 ,22.3383 ,1.06769 ,2.95091 ,28.95434 
108 ,22.5468 ,1.06977 ,2.95091 ,28.95434 
109 ,22.7548 ,1.07189 ,2.92353 ,28.68571 
110 ,22.9630 ,1.07394 ,2.88589 ,28.31635 
111 ,23.1548 ,1.07587 ,2.87562 ,28.21562 
112 ,23.3471 ,1.07776 ,2.87220 ,28.18204 
113 ,23.5553 ,1.07984 ,2.84140 ,27.87983 
114 ,23.7473 ,1.08177 ,2.82771 ,27.74552 
115 ,23.9391 ,1.08368 ,2.80376 ,27.51047 
116 ,24.1315 ,1.08566 ,2.81060 ,27.57763 
117 ,24.3393 ,1.08770 ,2.76611 ,27.14111 
118 ,24.5317 ,1.08963 ,2.76269 ,27.10753 
119 ,24.7398 ,1.09171 ,2.73531 ,26.83891 
120 ,24.9473 ,1.09378 ,2.73531 ,26.83891 
121 ,25.1400 ,1.09567 ,2.70109 ,26.50312 
122 ,25.3477 ,1.09777 ,2.69083 ,26.40239 
123 ,25.5562 ,1.09980 ,2.67029 ,26.20092 
124 ,25.7802 ,1.10199 ,2.65318 ,26.03303 
125 ,25.9882 ,1.10413 ,2.65660 ,26.06661 
126 ,26.1961 ,1.10618 ,2.61212 ,25.63009 
127 ,26.4043 ,1.10828 ,2.61212 ,25.63009 
128 ,26.6123 ,1.11038 ,2.58816 ,25.39504 
129 ,26.8041 ,1.11238 ,2.57105 ,25.22715 
130 ,27.0125 ,1.11437 ,2.56078 ,25.12641 
131 ,27.2208 ,1.11650 ,2.53341 ,24.85779 
132 ,27.3963 ,1.11840 ,2.53341 ,24.85779 
133 ,27.5886 ,1.12018 ,2.52656 ,24.79063 
134 ,27.8129 ,1.12233 ,2.48550 ,24.38769 
135 ,28.0209 ,1.12445 ,2.47865 ,24.32053 
136 ,28.2451 ,1.12669 ,2.47181 ,24.25338 
137 ,28.4531 ,1.12879 ,2.43759 ,23.91759 
138 ,28.6611 ,1.13083 ,2.42048 ,23.74970 
139 ,28.8534 ,1.13284 ,2.39994 ,23.54823 
140 ,29.0615 ,1.13488 ,2.38968 ,23.44750 
141 ,29.2695 ,1.13697 ,2.38283 ,23.38034 
142 ,29.4937 ,1.13923 ,2.34861 ,23.04456 
143 ,29.7174 ,1.14137 ,2.33492 ,22.91024 
144 ,29.9097 ,1.14345 ,2.33834 ,22.94382 
145 ,30.1174 ,1.14543 ,2.30412 ,22.60804 
146 ,30.3099 ,1.14736 ,2.30412 ,22.60804 
147 ,30.5179 ,1.14950 ,2.28017 ,22.37299 
148 ,30.7101 ,1.15140 ,2.26306 ,22.20510 
149 ,30.9343 ,1.15354 ,2.24594 ,22.03721 
150 ,31.1580 ,1.15571 ,2.23568 ,21.93647 
151 ,31.3666 ,1.15793 ,2.22199 ,21.80216 
152 ,31.5904 ,1.16014 ,2.19119 ,21.49996 
153 ,31.7986 ,1.16226 ,2.16381 ,21.23133 
154 ,32.0064 ,1.16431 ,2.16723 ,21.26491 
155 ,32.2308 ,1.16654 ,2.14670 ,21.06344 
156 ,32.4387 ,1.16861 ,2.12959 ,20.89555 
157 ,32.6630 ,1.17078 ,2.11590 ,20.76123 
158 ,32.8711 ,1.17297 ,2.09537 ,20.55976 
159 ,33.0952 ,1.17518 ,2.06799 ,20.29114 
160 ,33.3033 ,1.17728 ,2.05088 ,20.12325 
161 ,33.5273 ,1.17950 ,2.04061 ,20.02251 
162 ,33.7515 ,1.18174 ,2.02693 ,19.88820 
163 ,33.9594 ,1.18380 ,2.00639 ,19.68673 
164 ,34.1675 ,1.18593 ,2.00639 ,19.68673 
165 ,34.3757 ,1.18801 ,1.96190 ,19.25021 
166 ,34.5676 ,1.18993 ,1.96190 ,19.25021 
167 ,34.7599 ,1.19186 ,1.93795 ,19.01516 
168 ,34.9679 ,1.19390 ,1.93111 ,18.94801 
169 ,35.1761 ,1.19595 ,1.90373 ,18.67938 
170 ,35.3838 ,1.19799 ,1.90715 ,18.71296 
171 ,35.5918 ,1.20009 ,1.87635 ,18.41075 
172 ,35.7999 ,1.20222 ,1.86951 ,18.34360 
173 ,35.9921 ,1.20417 ,1.84555 ,18.10855 
174 ,36.2004 ,1.20623 ,1.84213 ,18.07497 
175 ,36.4246 ,1.20849 ,1.82160 ,17.87350 
176 ,36.6325 ,1.21053 ,1.79080 ,17.57129 
177 ,36.8405 ,1.21270 ,1.78395 ,17.50414 
178 ,37.0652 ,1.21484 ,1.76684 ,17.33625 
179 ,37.2730 ,1.21704 ,1.74631 ,17.13478 
180 ,37.4811 ,1.21904 ,1.74973 ,17.16836 
181 ,37.7049 ,1.22130 ,1.73946 ,17.06762 
182 ,37.9131 ,1.22339 ,1.69498 ,16.63110 
183 ,38.1213 ,1.22547 ,1.69840 ,16.66468 
184 ,38.3290 ,1.22757 ,1.67786 ,16.46321 
185 ,38.5373 ,1.22964 ,1.65391 ,16.22816 
186 ,38.7617 ,1.23180 ,1.64022 ,16.09385 
187 ,38.9692 ,1.23392 ,1.63338 ,16.02669 
188 ,39.1618 ,1.23586 ,1.62311 ,15.92596 
189 ,39.3859 ,1.23803 ,1.60258 ,15.72449 
190 ,39.5939 ,1.24012 ,1.57862 ,15.48944 
191 ,39.7859 ,1.24220 ,1.56493 ,15.35513 
192 ,39.9936 ,1.24413 ,1.52729 ,14.98577 
193 ,40.2182 ,1.24636 ,1.53413 ,15.05292 
194 ,40.4423 ,1.24866 ,1.52387 ,14.95219 
195 ,40.6503 ,1.25073 ,1.49649 ,14.68356 
196 ,40.8584 ,1.25278 ,1.48965 ,14.61640 
197 ,41.0502 ,1.25480 ,1.46569 ,14.38136 
198 ,41.2745 ,1.25697 ,1.44516 ,14.17989 
199 ,41.4988 ,1.25921 ,1.44174 ,14.14631 
200 ,41.7067 ,1.26125 ,1.43147 ,14.04557 
201 ,41.8986 ,1.26323 ,1.40067 ,13.74337 
202 ,42.1066 ,1.26526 ,1.40409 ,13.77695 
203 ,42.3147 ,1.26737 ,1.36987 ,13.44116 
204 ,42.5230 ,1.26941 ,1.36645 ,13.40759 
205 ,42.7312 ,1.27146 ,1.33907 ,13.13896 
206 ,42.9393 ,1.27363 ,1.32538 ,13.00465 
207 ,43.1634 ,1.27586 ,1.32196 ,12.97107 
208 ,43.3714 ,1.27785 ,1.29116 ,12.66886 
209 ,43.5634 ,1.27989 ,1.29458 ,12.70244 
210 ,43.7555 ,1.28180 ,1.26036 ,12.36666 
211 ,43.9636 ,1.28382 ,1.27747 ,12.53455 
212 ,44.1876 ,1.28603 ,1.25009 ,12.26592 
213 ,44.3794 ,1.28801 ,1.23641 ,12.13161 
214 ,44.6039 ,1.29013 ,1.22956 ,12.06445 
215 ,44.8279 ,1.29241 ,1.21245 ,11.89656 
216 ,45.0520 ,1.29469 ,1.17823 ,11.56078 
217 ,45.2442 ,1.29667 ,1.18507 ,11.62794 
218 ,45.4521 ,1.29873 ,1.15085 ,11.29215 
219 ,45.6763 ,1.30096 ,1.13032 ,11.09068 
220 ,45.8843 ,1.30306 ,1.13374 ,11.12426 
221 ,46.0765 ,1.30499 ,1.10636 ,10.85563 
222 ,46.2844 ,1.30705 ,1.12005 ,10.98995 
223 ,46.4926 ,1.30907 ,1.08241 ,10.62059 
224 ,46.6843 ,1.31104 ,1.07899 ,10.58701 
225 ,46.8768 ,1.31295 ,1.06187 ,10.41912 
226 ,47.0850 ,1.31502 ,1.05161 ,10.31838 
227 ,47.2930 ,1.31709 ,1.02081 ,10.01618 
228 ,47.5011 ,1.31918 ,1.02081 ,10.01618 
229 ,47.7087 ,1.32129 ,1.00370 ,9.84829 
230 ,47.9172 ,1.32336 ,0.97974 ,9.61324 
231 ,48.1413 ,1.32556 ,0.97974 ,9.61324 
232 ,48.3493 ,1.32763 ,0.95921 ,9.41177 
233 ,48.5415 ,1.32961 ,0.94894 ,9.31103 
234 ,48.7494 ,1.33164 ,0.92499 ,9.07598 
235 ,48.9734 ,1.33390 ,0.90446 ,8.87451 
236 ,49.1975 ,1.33619 ,0.88392 ,8.67305 
237 ,49.3897 ,1.33811 ,0.89419 ,8.77378 
238 ,49.6140 ,1.34027 ,0.86339 ,8.47158 
239 ,49.8061 ,1.34231 ,0.86681 ,8.50515 
240 ,50.0139 ,1.34432 ,0.84628 ,8.30368 
241 ,50.2063 ,1.34627 ,0.85654 ,8.40442 
242 ,50.4303 ,1.34834 ,0.82232 ,8.06864 
243 ,50.6382 ,1.35056 ,0.80521 ,7.90074 
244 ,50.8465 ,1.35260 ,0.79495 ,7.80001 
245 ,51.0866 ,1.35497 ,0.78810 ,7.73285 
246 ,51.2786 ,1.35697 ,0.77099 ,7.56496 
247 ,51.4707 ,1.35891 ,0.74704 ,7.32991 
248 ,51.6785 ,1.36101 ,0.74361 ,7.29633 
249 ,51.9026 ,1.36322 ,0.73335 ,7.19560 
250 ,52.0947 ,1.36515 ,0.70939 ,6.96055 
251 ,52.3029 ,1.36723 ,0.71624 ,7.02771 
252 ,52.5111 ,1.36934 ,0.68886 ,6.75908 
253 ,52.6872 ,1.37121 ,0.67859 ,6.65835 
254 ,52.9112 ,1.37322 ,0.64437 ,6.32256 
255 ,53.1195 ,1.37531 ,0.65806 ,6.45688 
256 ,53.3433 ,1.37764 ,0.64779 ,6.35614 
257 ,53.5516 ,1.37966 ,0.62726 ,6.15467 
258 ,53.7598 ,1.38179 ,0.61015 ,5.98678 
259 ,53.9675 ,1.38379 ,0.60673 ,5.95320 
260 ,54.1754 ,1.38592 ,0.57593 ,5.65100 
261 ,54.3834 ,1.38797 ,0.58277 ,5.71815 
262 ,54.5921 ,1.39009 ,0.54513 ,5.34879 
263 ,54.8163 ,1.39230 ,0.52459 ,5.14732 
264 ,55.0243 ,1.39433 ,0.54171 ,5.31522 
265 ,55.2483 ,1.39660 ,0.51775 ,5.08017 
266 ,55.4564 ,1.39876 ,0.50748 ,4.97943 
267 ,55.6484 ,1.40062 ,0.51091 ,5.01301 
268 ,55.8406 ,1.40256 ,0.48353 ,4.74438 
269 ,56.0646 ,1.40476 ,0.46984 ,4.61007 
270 ,56.2568 ,1.40679 ,0.44931 ,4.40860 
271 ,56.4484 ,1.40870 ,0.45273 ,4.44218 
272 ,56.6570 ,1.41070 ,0.41509 ,4.07282 
273 ,56.8650 ,1.41281 ,0.43562 ,4.27429 
274 ,57.0569 ,1.41476 ,0.39797 ,3.90493 
275 ,57.2651 ,1.41676 ,0.40140 ,3.93850 
276 ,57.4572 ,1.41876 ,0.37060 ,3.63630 
277 ,57.6654 ,1.42080 ,0.38429 ,3.77061 
278 ,57.8734 ,1.42290 ,0.35691 ,3.50199 
279 ,58.0812 ,1.42494 ,0.34664 ,3.40125 
280 ,58.2896 ,1.42702 ,0.33295 ,3.26694 
281 ,58.5135 ,1.42926 ,0.31584 ,3.09905 
282 ,58.7054 ,1.43129 ,0.32269 ,3.16620 
283 ,58.8979 ,1.43313 ,0.28504 ,2.79684 
284 ,59.1059 ,1.43524 ,0.29531 ,2.89758 
285 ,59.2978 ,1.43714 ,0.27478 ,2.69611 
286 ,59.5062 ,1.43921 ,0.27135 ,2.66253 
287 ,59.7141 ,1.44128 ,0.23713 ,2.32675 
288 ,59.9223 ,1.44340 ,0.25424 ,2.49464 
289 ,60.1302 ,1.44546 ,0.23371 ,2.29317 
290 ,60.3383 ,1.44753 ,0.21318 ,2.09170 
291 ,60.5306 ,1.44942 ,0.20291 ,1.99096 
292 ,60.7385 ,1.45157 ,0.19607 ,1.92381 
293 ,60.9465 ,1.45358 ,0.19264 ,1.89023 
294 ,61.1548 ,1.45572 ,0.15842 ,1.55445 
295 ,61.3632 ,1.45773 ,0.16869 ,1.65518 
296 ,61.5709 ,1.45986 ,0.13789 ,1.35298 
297 ,61.7632 ,1.46178 ,0.15158 ,1.48729 
298 ,61.9707 ,1.46387 ,0.12762 ,1.25224 
299 ,62.1632 ,1.46588 ,0.12078 ,1.18508 
300 ,62.3868 ,1.46793 ,0.11393 ,1.11793 
301 ,62.6115 ,1.47011 ,0.10025 ,0.98361 
302 ,62.8194 ,1.47226 ,0.08998 ,0.88288 
303 ,63.0273 ,1.47435 ,0.07971 ,0.78214 
304 ,63.2357 ,1.47649 ,0.05918 ,0.58067 
305 ,63.4438 ,1.47859 ,0.05918 ,0.58067 
306 ,63.6517 ,1.48063 ,0.02496 ,0.24489 
307 ,63.8755 ,1.48287 ,0.02496 ,0.24489 
308 ,64.0683 ,1.48481 ,0.02496 ,0.24489 
309 ,64.2760 ,1.48693 ,0.00100 ,0.00984 
310 ,64.5002 ,1.48911 ,-0.00584 ,-0.05731 
311 ,64.7083 ,1.49117 ,-0.01269 ,-0.12447 
312 ,64.9003 ,1.49315 ,-0.02295 ,-0.22520 
313 ,65.1244 ,1.49528 ,-0.02980 ,-0.29236 
314 ,65.3160 ,1.49729 ,-0.05375 ,-0.52741 
315 ,65.5086 ,1.49923 ,-0.05717 ,-0.56099 
316 ,65.7328 ,1.50138 ,-0.08113 ,-0.79604 
317 ,65.9408 ,1.50348 ,-0.06744 ,-0.66172 
318 ,66.1488 ,1.50564 ,-0.08797 ,-0.86319 
319 ,66.3408 ,1.50752 ,-0.10166 ,-0.99751 
320 ,66.5491 ,1.50959 ,-0.12219 ,-1.19898 
321 ,66.7731 ,1.51182 ,-0.13588 ,-1.33329 
322 ,66.9653 ,1.51374 ,-0.12904 ,-1.26613 
323 ,67.1574 ,1.51576 ,-0.14615 ,-1.43402 
324 ,67.3654 ,1.51774 ,-0.14615 ,-1.43402 
325 ,67.5573 ,1.51971 ,-0.16668 ,-1.63549 
326 ,67.7655 ,1.52179 ,-0.15984 ,-1.56834 
327 ,67.9576 ,1.52373 ,-0.19406 ,-1.90412 
328 ,68.1498 ,1.52567 ,-0.19406 ,-1.90412 
329 ,68.3579 ,1.52772 ,-0.20775 ,-2.03843 
330 ,68.5494 ,1.52969 ,-0.21459 ,-2.10559 
331 ,68.7580 ,1.53173 ,-0.23513 ,-2.30706 
332 ,68.9819 ,1.53387 ,-0.23170 ,-2.27348 
333 ,69.1902 ,1.53596 ,-0.25566 ,-2.50853 
334 ,69.4141 ,1.53819 ,-0.26250 ,-2.57569 
335 ,69.6063 ,1.54018 ,-0.26250 ,-2.57569 
336 ,69.8302 ,1.54241 ,-0.28646 ,-2.81073 
337 ,70.0385 ,1.54450 ,-0.27961 ,-2.74358 
338 ,70.2627 ,1.54660 ,-0.28988 ,-2.84431 
339 ,70.4867 ,1.54896 ,-0.31041 ,-3.04578 
340 ,70.6948 ,1.55103 ,-0.32410 ,-3.18010 
341 ,70.9186 ,1.55326 ,-0.31726 ,-3.11294 
342 ,71.1430 ,1.55549 ,-0.33437 ,-3.28083 
343 ,71.3670 ,1.55772 ,-0.36175 ,-3.54946 
344 ,71.5592 ,1.55972 ,-0.36517 ,-3.58303 
345 ,71.7671 ,1.56174 ,-0.36859 ,-3.61661 
346 ,71.9751 ,1.56387 ,-0.39255 ,-3.85166 
347 ,72.1993 ,1.56609 ,-0.39939 ,-3.91882 
348 ,72.4235 ,1.56830 ,-0.39255 ,-3.85166 
349 ,72.6155 ,1.57039 ,-0.41650 ,-4.08671 
350 ,72.8236 ,1.57228 ,-0.42335 ,-4.15387 
351 ,73.0317 ,1.57435 ,-0.45072 ,-4.42249 
352 ,73.2238 ,1.57638 ,-0.43361 ,-4.25460 
353 ,73.4318 ,1.57839 ,-0.47468 ,-4.65754 
354 ,73.6718 ,1.58070 ,-0.47810 ,-4.69112 
355 ,73.8960 ,1.58302 ,-0.47126 ,-4.62396 
356 ,74.0876 ,1.58496 ,-0.48837 ,-4.79185 
357 ,74.3121 ,1.58709 ,-0.50206 ,-4.92617 
358 ,74.5203 ,1.58932 ,-0.51574 ,-5.06048 
359 ,74.7283 ,1.59133 ,-0.51917 ,-5.09406 
360 ,74.9365 ,1.59341 ,-0.53970 ,-5.29553 
361 ,75.1601 ,1.59564 ,-0.53285 ,-5.22837 
362 ,75.3687 ,1.59777 ,-0.54312 ,-5.32911 
363 ,75.5926 ,1.59994 ,-0.56023 ,-5.49700 
364 ,75.7848 ,1.60196 ,-0.56708 ,-5.56415 
365 ,76.0086 ,1.60419 ,-0.57734 ,-5.66489 
366 ,76.2010 ,1.60611 ,-0.58419 ,-5.73205 
367 ,76.4248 ,1.60835 ,-0.59788 ,-5.86636 
368 ,76.6332 ,1.61045 ,-0.61841 ,-6.06783 
369 ,76.8568 ,1.61265 ,-0.63894 ,-6.26930 
370 ,77.0493 ,1.61461 ,-0.61841 ,-6.06783 
371 ,77.2734 ,1.61682 ,-0.65605 ,-6.43719 
372 ,77.4973 ,1.61897 ,-0.64921 ,-6.37003 
373 ,77.7053 ,1.62109 ,-0.63894 ,-6.26930 
374 ,77.9294 ,1.62334 ,-0.66974 ,-6.57150 
375 ,78.1212 ,1.62539 ,-0.68685 ,-6.73940 
376 ,78.3136 ,1.62720 ,-0.69027 ,-6.77297 
377 ,78.5053 ,1.62921 ,-0.69712 ,-6.84013 
378 ,78.6978 ,1.63106 ,-0.70739 ,-6.94086 
379 ,78.9060 ,1.63310 ,-0.70054 ,-6.87371 
380 ,79.1136 ,1.63519 ,-0.74503 ,-7.31023 
381 ,79.3062 ,1.63716 ,-0.72450 ,-7.10876 
382 ,79.5143 ,1.63920 ,-0.75187 ,-7.37738 
383 ,79.7221 ,1.64135 ,-0.75530 ,-7.41096 
384 ,79.9464 ,1.64351 ,-0.75530 ,-7.41096 
385 ,80.1545 ,1.64561 ,-0.77925 ,-7.64601 
386 ,80.3466 ,1.64766 ,-0.76214 ,-7.47812 
387 ,80.5227 ,1.64941 ,-0.79636 ,-7.81390 
388 ,80.7307 ,1.65138 ,-0.81005 ,-7.94821 
389 ,80.9229 ,1.65331 ,-0.79636 ,-7.81390 
390 ,81.1305 ,1.65532 ,-0.82032 ,-8.04895 
391 ,81.3069 ,1.65727 ,-0.81347 ,-7.98179 
392 ,81.5149 ,1.65915 ,-0.84427 ,-8.28400 
393 ,81.7390 ,1.66141 ,-0.83743 ,-8.21684 
394 ,81.9474 ,1.66354 ,-0.85112 ,-8.35115 
395 ,82.1553 ,1.66571 ,-0.87849 ,-8.61978 
396 ,82.3473 ,1.66756 ,-0.85112 ,-8.35115 
397 ,82.5554 ,1.66959 ,-0.88534 ,-8.68694 
398 ,82.7475 ,1.67155 ,-0.87507 ,-8.58620 
399 ,82.9553 ,1.67361 ,-0.88876 ,-8.72051 
400 ,83.1638 ,1.67558 ,-0.89560 ,-8.78767 
401 ,83.3877 ,1.67789 ,-0.92640 ,-9.08988 
402 ,83.5960 ,1.67996 ,-0.93325 ,-9.15703 
403 ,83.8198 ,1.68218 ,-0.93325 ,-9.15703 
404 ,84.0276 ,1.68424 ,-0.94351 ,-9.25777 
405 ,84.2200 ,1.68626 ,-0.96063 ,-9.42566 
406 ,84.4282 ,1.68830 ,-0.96063 ,-9.42566 
407 ,84.6520 ,1.69049 ,-0.97431 ,-9.55997 
408 ,84.8602 ,1.69267 ,-0.98458 ,-9.66071 
409 ,85.0682 ,1.69467 ,-0.99143 ,-9.72786 
410 ,85.2764 ,1.69680 ,-1.00169 ,-9.82860 
411 ,85.5007 ,1.69901 ,-1.00854 ,-9.89576 
412 ,85.7087 ,1.70114 ,-1.01880 ,-9.99649 
413 ,85.9166 ,1.70315 ,-1.02565 ,-10.06365 
414 ,86.1249 ,1.70527 ,-1.02222 ,-10.03007 
415 ,86.3486 ,1.70756 ,-1.04618 ,-10.26512 
416 ,86.5571 ,1.70960 ,-1.06671 ,-10.46659 
417 ,86.7652 ,1.71167 ,-1.05987 ,-10.39943 
418 ,86.9893 ,1.71387 ,-1.07698 ,-10.56732 
419 ,87.1971 ,1.71594 ,-1.08725 ,-10.66806 
420 ,87.4054 ,1.71805 ,-1.09409 ,-10.73521 
421 ,87.5974 ,1.72003 ,-1.10436 ,-10.83595 
422 ,87.8217 ,1.72219 ,-1.10778 ,-10.86953 
423 ,88.0297 ,1.72427 ,-1.11462 ,-10.93668 
424 ,88.2219 ,1.72624 ,-1.11805 ,-10.97026 
425 ,88.4295 ,1.72831 ,-1.13858 ,-11.17173 
426 ,88.6378 ,1.73040 ,-1.14542 ,-11.23889 
427 ,88.8621 ,1.73261 ,-1.13858 ,-11.17173 
428 ,89.0701 ,1.73465 ,-1.15911 ,-11.37320 
429 ,89.2781 ,1.73679 ,-1.16596 ,-11.44036 
430 ,89.4859 ,1.73898 ,-1.16938 ,-11.47394 
431 ,89.6783 ,1.74095 ,-1.19333 ,-11.70898 
432 ,89.8862 ,1.74292 ,-1.18649 ,-11.64183 
433 ,90.1105 ,1.74512 ,-1.21044 ,-11.87688 
434 ,90.3188 ,1.74719 ,-1.21729 ,-11.94403 
435 ,90.5269 ,1.74921 ,-1.22071 ,-11.97761 
436 ,90.7188 ,1.75133 ,-1.23098 ,-12.07834 
437 ,90.9108 ,1.75324 ,-1.21729 ,-11.94403 
438 ,91.1030 ,1.75504 ,-1.23782 ,-12.14550 
439 ,91.2952 ,1.75695 ,-1.26178 ,-12.38055 
440 ,91.5032 ,1.75905 ,-1.25493 ,-12.31339 
441 ,91.7108 ,1.76116 ,-1.28573 ,-12.61560 
442 ,91.9193 ,1.76321 ,-1.28231 ,-12.58202 
443 ,92.1274 ,1.76530 ,-1.28573 ,-12.61560 
444 ,92.3192 ,1.76729 ,-1.31311 ,-12.88422 
445 ,92.5276 ,1.76924 ,-1.30626 ,-12.81707 
446 ,92.7357 ,1.77138 ,-1.32338 ,-12.98496 
447 ,92.9756 ,1.77364 ,-1.30969 ,-12.85065 
448 ,93.1999 ,1.77599 ,-1.32338 ,-12.98496 
449 ,93.4240 ,1.77809 ,-1.34733 ,-13.22001 
450 ,93.6480 ,1.78048 ,-1.35075 ,-13.25359 
451 ,93.8402 ,1.78243 ,-1.34733 ,-13.22001 
452 ,94.0482 ,1.78449 ,-1.36102 ,-13.35432 
453 ,94.2721 ,1.78670 ,-1.38497 ,-13.58937 
454 ,94.4805 ,1.78880 ,-1.37471 ,-13.48863 
455 ,94.7045 ,1.79091 ,-1.36786 ,-13.42148 
456 ,94.9125 ,1.79316 ,-1.39866 ,-13.72368 
457 ,95.1367 ,1.79536 ,-1.41235 ,-13.85799 
458 ,95.3605 ,1.79760 ,-1.40209 ,-13.75726 
459 ,95.5364 ,1.79951 ,-1.43288 ,-14.05946 
460 ,95.7446 ,1.80136 ,-1.41577 ,-13.89157 
