Data stamp = , 17-05-2022 20:10:02 623

Calibration Values: 
Slope = , 26.54 , g/V 
Offset Voltage at no contact = , -0.501760 , V 

No , Time , Stage Position ,   Mass , Force 
   ,  (s) ,      (mm)      ,   (g)  , (mN)  

1 ,0.0000 ,0.84961 ,5.14794 ,50.51161 
2 ,0.3221 ,0.84986 ,5.14110 ,50.44445 
3 ,0.8807 ,0.85222 ,5.14110 ,50.44445 
4 ,1.0892 ,0.85528 ,5.13768 ,50.41087 
5 ,1.3290 ,0.85745 ,5.16163 ,50.64592 
6 ,1.5373 ,0.85965 ,5.17532 ,50.78023 
7 ,1.7293 ,0.86165 ,5.14110 ,50.44445 
8 ,1.9376 ,0.86372 ,5.14452 ,50.47803 
9 ,2.1455 ,0.86580 ,5.11372 ,50.17583 
10 ,2.3698 ,0.86803 ,5.08292 ,49.87362 
11 ,2.5941 ,0.87032 ,5.05554 ,49.60499 
12 ,2.8018 ,0.87242 ,5.04870 ,49.53784 
13 ,2.9940 ,0.87442 ,5.01106 ,49.16848 
14 ,3.1857 ,0.87625 ,4.99394 ,49.00058 
15 ,3.3942 ,0.87828 ,4.96999 ,48.76554 
16 ,3.6182 ,0.88049 ,4.95972 ,48.66480 
17 ,3.8102 ,0.88248 ,4.92208 ,48.29544 
18 ,4.0342 ,0.88468 ,4.91523 ,48.22828 
19 ,4.2581 ,0.88691 ,4.89470 ,48.02681 
20 ,4.4667 ,0.88905 ,4.85364 ,47.62387 
21 ,4.6906 ,0.89125 ,4.83995 ,47.48956 
22 ,4.8667 ,0.89318 ,4.82284 ,47.32167 
23 ,5.0750 ,0.89511 ,4.79204 ,47.01946 
24 ,5.2670 ,0.89717 ,4.78519 ,46.95231 
25 ,5.4591 ,0.89904 ,4.75782 ,46.68368 
26 ,5.6509 ,0.90086 ,4.72017 ,46.31432 
27 ,5.8594 ,0.90293 ,4.72702 ,46.38148 
28 ,6.0834 ,0.90511 ,4.69279 ,46.04569 
29 ,6.3073 ,0.90740 ,4.67226 ,45.84422 
30 ,6.5152 ,0.90946 ,4.63462 ,45.47486 
31 ,6.7074 ,0.91151 ,4.63119 ,45.44128 
32 ,6.9155 ,0.91346 ,4.60040 ,45.13908 
33 ,7.1074 ,0.91546 ,4.58671 ,45.00477 
34 ,7.3158 ,0.91750 ,4.55933 ,44.73614 
35 ,7.5077 ,0.91946 ,4.54906 ,44.63541 
36 ,7.7158 ,0.92157 ,4.52169 ,44.36678 
37 ,7.9400 ,0.92368 ,4.51826 ,44.33320 
38 ,8.1321 ,0.92566 ,4.46693 ,43.82953 
39 ,8.3561 ,0.92791 ,4.44982 ,43.66163 
40 ,8.5964 ,0.93007 ,4.43613 ,43.52732 
41 ,8.8201 ,0.93254 ,4.40533 ,43.22512 
42 ,8.9962 ,0.93442 ,4.36427 ,42.82218 
43 ,9.2046 ,0.93635 ,4.37795 ,42.95649 
44 ,9.4127 ,0.93846 ,4.33004 ,42.48639 
45 ,9.6367 ,0.94069 ,4.30951 ,42.28492 
46 ,9.8124 ,0.94259 ,4.29924 ,42.18419 
47 ,10.0209 ,0.94457 ,4.27529 ,41.94914 
48 ,10.2450 ,0.94674 ,4.26845 ,41.88198 
49 ,10.4371 ,0.94878 ,4.23080 ,41.51262 
50 ,10.6293 ,0.95076 ,4.22396 ,41.44547 
51 ,10.8372 ,0.95269 ,4.20000 ,41.21042 
52 ,11.0453 ,0.95479 ,4.16920 ,40.90821 
53 ,11.2373 ,0.95675 ,4.14183 ,40.63959 
54 ,11.4295 ,0.95866 ,4.14867 ,40.70674 
55 ,11.6376 ,0.96072 ,4.09049 ,40.13591 
56 ,11.8297 ,0.96270 ,4.10760 ,40.30380 
57 ,12.0214 ,0.96454 ,4.06312 ,39.86729 
58 ,12.2457 ,0.96668 ,4.04600 ,39.69940 
59 ,12.4697 ,0.96895 ,4.02889 ,39.53150 
60 ,12.6782 ,0.97107 ,3.99809 ,39.22930 
61 ,12.9020 ,0.97333 ,3.98783 ,39.12856 
62 ,13.1263 ,0.97560 ,3.97756 ,39.02783 
63 ,13.3498 ,0.97780 ,3.93307 ,38.59131 
64 ,13.5585 ,0.97993 ,3.90570 ,38.32268 
65 ,13.7823 ,0.98214 ,3.89201 ,38.18837 
66 ,13.9907 ,0.98417 ,3.87147 ,37.98690 
67 ,14.1987 ,0.98627 ,3.84067 ,37.68470 
68 ,14.3908 ,0.98840 ,3.83725 ,37.65112 
69 ,14.5826 ,0.99019 ,3.80645 ,37.34891 
70 ,14.7910 ,0.99220 ,3.79961 ,37.28176 
71 ,14.9990 ,0.99427 ,3.75854 ,36.87882 
72 ,15.1910 ,0.99625 ,3.75170 ,36.81166 
73 ,15.3989 ,0.99829 ,3.73117 ,36.61019 
74 ,15.5913 ,1.00038 ,3.72432 ,36.54303 
75 ,15.7994 ,1.00229 ,3.68325 ,36.14010 
76 ,16.0072 ,1.00439 ,3.66957 ,36.00578 
77 ,16.1834 ,1.00630 ,3.63534 ,35.67000 
78 ,16.3914 ,1.00816 ,3.63192 ,35.63642 
79 ,16.5993 ,1.01029 ,3.59428 ,35.26706 
80 ,16.7918 ,1.01226 ,3.59428 ,35.26706 
81 ,16.9997 ,1.01425 ,3.55321 ,34.86412 
82 ,17.2078 ,1.01638 ,3.54979 ,34.83054 
83 ,17.4320 ,1.01860 ,3.53268 ,34.66265 
84 ,17.6559 ,1.02080 ,3.49161 ,34.25971 
85 ,17.8964 ,1.02310 ,3.46424 ,33.99108 
86 ,18.1204 ,1.02554 ,3.44370 ,33.78961 
87 ,18.3284 ,1.02759 ,3.44370 ,33.78961 
88 ,18.5524 ,1.02982 ,3.42659 ,33.62172 
89 ,18.7604 ,1.03188 ,3.37526 ,33.11805 
90 ,18.9848 ,1.03409 ,3.37526 ,33.11805 
91 ,19.2407 ,1.03654 ,3.35815 ,32.95016 
92 ,19.4488 ,1.03877 ,3.32735 ,32.64795 
93 ,19.6570 ,1.04088 ,3.29997 ,32.37933 
94 ,19.8490 ,1.04284 ,3.28628 ,32.24501 
95 ,20.0732 ,1.04499 ,3.26575 ,32.04354 
96 ,20.2812 ,1.04718 ,3.24522 ,31.84207 
97 ,20.5054 ,1.04929 ,3.21100 ,31.50629 
98 ,20.7135 ,1.05141 ,3.19731 ,31.37198 
99 ,20.9052 ,1.05335 ,3.17677 ,31.17051 
100 ,21.0977 ,1.05531 ,3.16651 ,31.06977 
101 ,21.3057 ,1.05735 ,3.13229 ,30.73399 
102 ,21.5299 ,1.05954 ,3.12202 ,30.63325 
103 ,21.7379 ,1.06164 ,3.09122 ,30.33105 
104 ,21.9616 ,1.06391 ,3.06726 ,30.09600 
105 ,22.1696 ,1.06595 ,3.06042 ,30.02884 
106 ,22.3621 ,1.06795 ,3.01935 ,29.62590 
107 ,22.5699 ,1.07001 ,3.02278 ,29.65948 
108 ,22.7624 ,1.07192 ,2.98513 ,29.29012 
109 ,22.9703 ,1.07396 ,2.99882 ,29.42444 
110 ,23.1625 ,1.07591 ,2.93380 ,28.78645 
111 ,23.3704 ,1.07796 ,2.94749 ,28.92076 
112 ,23.5946 ,1.08019 ,2.92353 ,28.68571 
113 ,23.7864 ,1.08226 ,2.88589 ,28.31635 
114 ,23.9788 ,1.08406 ,2.88589 ,28.31635 
115 ,24.1873 ,1.08617 ,2.84482 ,27.91341 
116 ,24.3947 ,1.08821 ,2.84825 ,27.94699 
117 ,24.5870 ,1.09018 ,2.80718 ,27.54405 
118 ,24.7791 ,1.09207 ,2.80376 ,27.51047 
119 ,24.9873 ,1.09414 ,2.77296 ,27.20827 
120 ,25.1951 ,1.09624 ,2.76611 ,27.14111 
121 ,25.3874 ,1.09818 ,2.73874 ,26.87248 
122 ,25.6114 ,1.10040 ,2.73189 ,26.80533 
123 ,25.8036 ,1.10245 ,2.71136 ,26.60386 
124 ,26.0113 ,1.10435 ,2.69083 ,26.40239 
125 ,26.2197 ,1.10645 ,2.66345 ,26.13376 
126 ,26.4274 ,1.10854 ,2.63607 ,25.86514 
127 ,26.6197 ,1.11047 ,2.63265 ,25.83156 
128 ,26.8119 ,1.11239 ,2.61554 ,25.66367 
129 ,27.0199 ,1.11445 ,2.59843 ,25.49577 
130 ,27.2282 ,1.11659 ,2.57447 ,25.26073 
131 ,27.4201 ,1.11851 ,2.57105 ,25.22715 
132 ,27.6280 ,1.12057 ,2.53341 ,24.85779 
133 ,27.8364 ,1.12265 ,2.54025 ,24.92494 
134 ,28.0759 ,1.12500 ,2.50603 ,24.58916 
135 ,28.2680 ,1.12707 ,2.47181 ,24.25338 
136 ,28.4927 ,1.12920 ,2.47865 ,24.32053 
137 ,28.7324 ,1.13157 ,2.44443 ,23.98475 
138 ,28.9407 ,1.13373 ,2.42390 ,23.78328 
139 ,29.1650 ,1.13587 ,2.39994 ,23.54823 
140 ,29.3731 ,1.13796 ,2.39310 ,23.48108 
141 ,29.5972 ,1.14025 ,2.37941 ,23.34676 
142 ,29.8052 ,1.14227 ,2.34861 ,23.04456 
143 ,30.0133 ,1.14434 ,2.33492 ,22.91024 
144 ,30.2212 ,1.14644 ,2.30412 ,22.60804 
145 ,30.4455 ,1.14863 ,2.29043 ,22.47373 
146 ,30.6693 ,1.15092 ,2.26306 ,22.20510 
147 ,30.9096 ,1.15325 ,2.26306 ,22.20510 
148 ,31.1338 ,1.15556 ,2.24937 ,22.07079 
149 ,31.3418 ,1.15763 ,2.22541 ,21.83574 
150 ,31.5498 ,1.15968 ,2.20146 ,21.60069 
151 ,31.7580 ,1.16183 ,2.19461 ,21.53353 
152 ,31.9661 ,1.16387 ,2.15355 ,21.13059 
153 ,32.1578 ,1.16590 ,2.17066 ,21.29849 
154 ,32.3664 ,1.16791 ,2.13644 ,20.96270 
155 ,32.5902 ,1.17013 ,2.10221 ,20.62692 
156 ,32.7984 ,1.17218 ,2.11590 ,20.76123 
157 ,33.0064 ,1.17429 ,2.06799 ,20.29114 
158 ,33.2143 ,1.17634 ,2.07141 ,20.32472 
159 ,33.4228 ,1.17848 ,2.05773 ,20.19040 
160 ,33.6307 ,1.18055 ,2.02350 ,19.85462 
161 ,33.8066 ,1.18244 ,2.02350 ,19.85462 
162 ,34.0151 ,1.18438 ,2.00297 ,19.65315 
163 ,34.2232 ,1.18644 ,2.00297 ,19.65315 
164 ,34.4472 ,1.18871 ,1.97217 ,19.35094 
165 ,34.6553 ,1.19081 ,1.95164 ,19.14948 
166 ,34.8631 ,1.19283 ,1.94137 ,19.04874 
167 ,35.0874 ,1.19506 ,1.91057 ,18.74654 
168 ,35.3110 ,1.19728 ,1.91057 ,18.74654 
169 ,35.4872 ,1.19925 ,1.89688 ,18.61222 
170 ,35.6961 ,1.20117 ,1.87977 ,18.44433 
171 ,35.9199 ,1.20343 ,1.87293 ,18.37717 
172 ,36.1440 ,1.20560 ,1.84555 ,18.10855 
173 ,36.3678 ,1.20788 ,1.82160 ,17.87350 
174 ,36.5757 ,1.20999 ,1.81133 ,17.77276 
175 ,36.7843 ,1.21209 ,1.80791 ,17.73919 
176 ,37.0082 ,1.21430 ,1.76342 ,17.30267 
177 ,37.2163 ,1.21635 ,1.75657 ,17.23551 
178 ,37.4084 ,1.21836 ,1.74289 ,17.10120 
179 ,37.6003 ,1.22035 ,1.71551 ,16.83257 
180 ,37.8244 ,1.22245 ,1.71209 ,16.79899 
181 ,38.0486 ,1.22468 ,1.69155 ,16.59752 
182 ,38.2567 ,1.22680 ,1.68129 ,16.49679 
183 ,38.4807 ,1.22898 ,1.67444 ,16.42963 
184 ,38.6891 ,1.23107 ,1.62995 ,15.99311 
185 ,38.9129 ,1.23337 ,1.61284 ,15.82522 
186 ,39.1211 ,1.23547 ,1.62311 ,15.92596 
187 ,39.3292 ,1.23749 ,1.59573 ,15.65733 
188 ,39.5372 ,1.23959 ,1.58889 ,15.59018 
189 ,39.7614 ,1.24181 ,1.57178 ,15.42228 
190 ,39.9693 ,1.24385 ,1.53756 ,15.08650 
191 ,40.1776 ,1.24595 ,1.54098 ,15.12008 
192 ,40.3853 ,1.24803 ,1.52387 ,14.95219 
193 ,40.5937 ,1.25007 ,1.49649 ,14.68356 
194 ,40.8018 ,1.25226 ,1.49649 ,14.68356 
195 ,41.0255 ,1.25447 ,1.48622 ,14.58283 
196 ,41.2341 ,1.25656 ,1.44858 ,14.21346 
197 ,41.4581 ,1.25877 ,1.43147 ,14.04557 
198 ,41.6983 ,1.26098 ,1.42805 ,14.01199 
199 ,41.9224 ,1.26341 ,1.41094 ,13.84410 
200 ,42.1300 ,1.26549 ,1.37671 ,13.50832 
201 ,42.3541 ,1.26764 ,1.36987 ,13.44116 
202 ,42.5626 ,1.26984 ,1.35960 ,13.34043 
203 ,42.7705 ,1.27189 ,1.34591 ,13.20612 
204 ,42.9788 ,1.27398 ,1.31854 ,12.93749 
205 ,43.2025 ,1.27621 ,1.31512 ,12.90391 
206 ,43.4107 ,1.27831 ,1.29800 ,12.73602 
207 ,43.6191 ,1.28042 ,1.27063 ,12.46739 
208 ,43.8432 ,1.28262 ,1.26378 ,12.40024 
209 ,44.0511 ,1.28466 ,1.25352 ,12.29950 
210 ,44.2752 ,1.28693 ,1.22272 ,11.99730 
211 ,44.4994 ,1.28918 ,1.22614 ,12.03088 
212 ,44.7234 ,1.29144 ,1.21587 ,11.93014 
213 ,44.9634 ,1.29365 ,1.18507 ,11.62794 
214 ,45.1875 ,1.29602 ,1.17138 ,11.49362 
215 ,45.3959 ,1.29814 ,1.14401 ,11.22500 
216 ,45.6039 ,1.30029 ,1.14743 ,11.25857 
217 ,45.8281 ,1.30243 ,1.13716 ,11.15784 
218 ,46.0360 ,1.30461 ,1.08925 ,10.68774 
219 ,46.2443 ,1.30660 ,1.10294 ,10.82206 
220 ,46.4682 ,1.30887 ,1.08925 ,10.68774 
221 ,46.6763 ,1.31091 ,1.06187 ,10.41912 
222 ,46.8842 ,1.31301 ,1.06530 ,10.45270 
223 ,47.0601 ,1.31493 ,1.02765 ,10.08333 
224 ,47.2682 ,1.31690 ,1.04134 ,10.21765 
225 ,47.4763 ,1.31904 ,1.00370 ,9.84829 
226 ,47.6684 ,1.32090 ,1.00028 ,9.81471 
227 ,47.8930 ,1.32305 ,0.97290 ,9.54608 
228 ,48.1010 ,1.32520 ,0.93868 ,9.21030 
229 ,48.3092 ,1.32728 ,0.96948 ,9.51250 
230 ,48.5172 ,1.32933 ,0.91814 ,9.00883 
231 ,48.7253 ,1.33143 ,0.92157 ,9.04241 
232 ,48.9493 ,1.33368 ,0.91472 ,8.97525 
233 ,49.1573 ,1.33585 ,0.89419 ,8.77378 
234 ,49.3653 ,1.33783 ,0.88050 ,8.63947 
235 ,49.5734 ,1.33986 ,0.87366 ,8.57231 
236 ,49.7817 ,1.34197 ,0.84286 ,8.27011 
237 ,49.9893 ,1.34407 ,0.84286 ,8.27011 
238 ,50.1818 ,1.34602 ,0.81548 ,8.00148 
239 ,50.4058 ,1.34825 ,0.81206 ,7.96790 
240 ,50.6296 ,1.35045 ,0.81206 ,7.96790 
241 ,50.8220 ,1.35241 ,0.77784 ,7.63212 
242 ,51.0298 ,1.35446 ,0.78468 ,7.69927 
243 ,51.2383 ,1.35655 ,0.73677 ,7.22918 
244 ,51.4623 ,1.35875 ,0.73335 ,7.19560 
245 ,51.6701 ,1.36082 ,0.75046 ,7.36349 
246 ,51.8624 ,1.36280 ,0.71624 ,7.02771 
247 ,52.0704 ,1.36487 ,0.70939 ,6.96055 
248 ,52.2947 ,1.36714 ,0.68201 ,6.69193 
249 ,52.5508 ,1.36950 ,0.65121 ,6.38972 
250 ,52.7750 ,1.37190 ,0.65806 ,6.45688 
251 ,52.9828 ,1.37399 ,0.64437 ,6.32256 
252 ,53.1910 ,1.37601 ,0.64437 ,6.32256 
253 ,53.3990 ,1.37815 ,0.60673 ,5.95320 
254 ,53.6233 ,1.38039 ,0.58962 ,5.78531 
255 ,53.8151 ,1.38246 ,0.59304 ,5.81889 
256 ,54.0235 ,1.38442 ,0.56908 ,5.58384 
257 ,54.2476 ,1.38662 ,0.55882 ,5.48311 
258 ,54.4554 ,1.38880 ,0.54513 ,5.34879 
259 ,54.6637 ,1.39074 ,0.52459 ,5.14732 
260 ,54.8718 ,1.39284 ,0.54513 ,5.34879 
261 ,55.0794 ,1.39491 ,0.49722 ,4.87870 
262 ,55.2720 ,1.39689 ,0.50748 ,4.97943 
263 ,55.4957 ,1.39908 ,0.49722 ,4.87870 
264 ,55.7043 ,1.40113 ,0.47668 ,4.67723 
265 ,55.9123 ,1.40333 ,0.46984 ,4.61007 
266 ,56.1203 ,1.40535 ,0.44588 ,4.37502 
267 ,56.3282 ,1.40749 ,0.43562 ,4.27429 
268 ,56.5363 ,1.40950 ,0.42193 ,4.13997 
269 ,56.7602 ,1.41175 ,0.40140 ,3.93850 
270 ,56.9687 ,1.41384 ,0.40140 ,3.93850 
271 ,57.1604 ,1.41580 ,0.38429 ,3.77061 
272 ,57.3684 ,1.41781 ,0.36718 ,3.60272 
273 ,57.5765 ,1.41983 ,0.34664 ,3.40125 
274 ,57.7685 ,1.42186 ,0.35006 ,3.43483 
275 ,57.9932 ,1.42396 ,0.33980 ,3.33410 
276 ,58.2010 ,1.42623 ,0.32611 ,3.19978 
277 ,58.4091 ,1.42816 ,0.31584 ,3.09905 
278 ,58.6174 ,1.43036 ,0.31584 ,3.09905 
279 ,58.8249 ,1.43249 ,0.27820 ,2.72969 
280 ,59.0334 ,1.43447 ,0.28504 ,2.79684 
281 ,59.2252 ,1.43645 ,0.26793 ,2.62895 
282 ,59.4657 ,1.43865 ,0.25767 ,2.52822 
283 ,59.6898 ,1.44097 ,0.26451 ,2.59537 
284 ,59.8975 ,1.44310 ,0.24055 ,2.36032 
285 ,60.1060 ,1.44523 ,0.20976 ,2.05812 
286 ,60.3298 ,1.44741 ,0.20976 ,2.05812 
287 ,60.5221 ,1.44947 ,0.20633 ,2.02454 
288 ,60.7142 ,1.45129 ,0.18238 ,1.78949 
289 ,60.9223 ,1.45331 ,0.15500 ,1.52087 
290 ,61.1301 ,1.45544 ,0.15500 ,1.52087 
291 ,61.3384 ,1.45747 ,0.14131 ,1.38655 
292 ,61.5302 ,1.45942 ,0.13789 ,1.35298 
293 ,61.7546 ,1.46162 ,0.13789 ,1.35298 
294 ,61.9304 ,1.46359 ,0.10709 ,1.05077 
295 ,62.1383 ,1.46563 ,0.10709 ,1.05077 
296 ,62.3469 ,1.46761 ,0.08314 ,0.81572 
297 ,62.5709 ,1.46981 ,0.07287 ,0.71499 
298 ,62.7631 ,1.47181 ,0.06945 ,0.68141 
299 ,62.9872 ,1.47400 ,0.05576 ,0.54710 
300 ,63.1791 ,1.47599 ,0.06260 ,0.61425 
301 ,63.3873 ,1.47801 ,0.02838 ,0.27847 
302 ,63.5953 ,1.48009 ,0.03180 ,0.31205 
303 ,63.8034 ,1.48217 ,0.01127 ,0.11058 
304 ,64.0272 ,1.48438 ,-0.01953 ,-0.19163 
305 ,64.2355 ,1.48649 ,-0.00242 ,-0.02373 
306 ,64.4435 ,1.48857 ,-0.02295 ,-0.22520 
307 ,64.6194 ,1.49045 ,-0.02637 ,-0.25878 
308 ,64.8439 ,1.49242 ,-0.04691 ,-0.46025 
309 ,65.0520 ,1.49467 ,-0.06402 ,-0.62814 
310 ,65.2758 ,1.49687 ,-0.05375 ,-0.52741 
311 ,65.4676 ,1.49889 ,-0.09482 ,-0.93035 
312 ,65.6761 ,1.50090 ,-0.06744 ,-0.66172 
313 ,65.8843 ,1.50302 ,-0.09824 ,-0.96393 
314 ,66.0924 ,1.50498 ,-0.10851 ,-1.06466 
315 ,66.3001 ,1.50707 ,-0.11193 ,-1.09824 
316 ,66.4925 ,1.50905 ,-0.12219 ,-1.19898 
317 ,66.7165 ,1.51130 ,-0.12904 ,-1.26613 
318 ,66.9085 ,1.51321 ,-0.16668 ,-1.63549 
319 ,67.1327 ,1.51545 ,-0.15299 ,-1.50118 
320 ,67.3245 ,1.51734 ,-0.17695 ,-1.73623 
321 ,67.5649 ,1.51963 ,-0.19064 ,-1.87054 
322 ,67.7566 ,1.52178 ,-0.20090 ,-1.97128 
323 ,67.9651 ,1.52371 ,-0.22144 ,-2.17275 
324 ,68.1732 ,1.52578 ,-0.21802 ,-2.13917 
325 ,68.3812 ,1.52787 ,-0.22144 ,-2.17275 
326 ,68.6051 ,1.53014 ,-0.24197 ,-2.37422 
327 ,68.7970 ,1.53218 ,-0.25224 ,-2.47495 
328 ,68.9896 ,1.53411 ,-0.26593 ,-2.60926 
329 ,69.1975 ,1.53612 ,-0.25908 ,-2.54211 
330 ,69.4051 ,1.53817 ,-0.29673 ,-2.91147 
331 ,69.5973 ,1.54020 ,-0.28988 ,-2.84431 
332 ,69.8057 ,1.54215 ,-0.29673 ,-2.91147 
333 ,70.0138 ,1.54416 ,-0.31041 ,-3.04578 
334 ,70.2219 ,1.54631 ,-0.32068 ,-3.14652 
335 ,70.3979 ,1.54823 ,-0.33437 ,-3.28083 
336 ,70.5741 ,1.54998 ,-0.34464 ,-3.38156 
337 ,70.7821 ,1.55189 ,-0.34121 ,-3.34799 
338 ,70.9898 ,1.55393 ,-0.36859 ,-3.61661 
339 ,71.1985 ,1.55609 ,-0.36859 ,-3.61661 
340 ,71.4224 ,1.55823 ,-0.37886 ,-3.71735 
341 ,71.6304 ,1.56040 ,-0.39597 ,-3.88524 
342 ,71.8547 ,1.56263 ,-0.40623 ,-3.98597 
343 ,72.0627 ,1.56469 ,-0.41650 ,-4.08671 
344 ,72.2867 ,1.56699 ,-0.44730 ,-4.38891 
345 ,72.5108 ,1.56918 ,-0.46441 ,-4.55681 
346 ,72.7188 ,1.57125 ,-0.43703 ,-4.28818 
347 ,72.9110 ,1.57320 ,-0.47810 ,-4.69112 
348 ,73.1349 ,1.57533 ,-0.46099 ,-4.52323 
349 ,73.3431 ,1.57751 ,-0.48494 ,-4.75828 
350 ,73.5674 ,1.57973 ,-0.50206 ,-4.92617 
351 ,73.7755 ,1.58189 ,-0.51574 ,-5.06048 
352 ,73.9834 ,1.58401 ,-0.50890 ,-4.99332 
353 ,74.1916 ,1.58594 ,-0.53628 ,-5.26195 
354 ,74.3996 ,1.58801 ,-0.52601 ,-5.16121 
355 ,74.5916 ,1.59002 ,-0.56365 ,-5.53058 
356 ,74.8158 ,1.59219 ,-0.56023 ,-5.49700 
357 ,75.0239 ,1.59430 ,-0.56023 ,-5.49700 
358 ,75.2317 ,1.59636 ,-0.59103 ,-5.79920 
359 ,75.4398 ,1.59849 ,-0.58077 ,-5.69847 
360 ,75.6642 ,1.60069 ,-0.58761 ,-5.76562 
361 ,75.9203 ,1.60328 ,-0.59103 ,-5.79920 
362 ,76.1284 ,1.60540 ,-0.61156 ,-6.00067 
363 ,76.3525 ,1.60755 ,-0.63552 ,-6.23572 
364 ,76.5603 ,1.60971 ,-0.62183 ,-6.10141 
365 ,76.7847 ,1.61194 ,-0.62525 ,-6.13499 
366 ,77.0086 ,1.61414 ,-0.64921 ,-6.37003 
367 ,77.2167 ,1.61621 ,-0.66290 ,-6.50435 
368 ,77.4247 ,1.61830 ,-0.66290 ,-6.50435 
369 ,77.6331 ,1.62036 ,-0.70054 ,-6.87371 
370 ,77.8411 ,1.62249 ,-0.67316 ,-6.60508 
371 ,78.0493 ,1.62459 ,-0.69370 ,-6.80655 
372 ,78.2569 ,1.62660 ,-0.70739 ,-6.94086 
373 ,78.4654 ,1.62872 ,-0.70396 ,-6.90729 
374 ,78.6736 ,1.63077 ,-0.74161 ,-7.27665 
375 ,78.8652 ,1.63281 ,-0.73134 ,-7.17591 
376 ,79.0577 ,1.63465 ,-0.76898 ,-7.54527 
377 ,79.2655 ,1.63666 ,-0.74845 ,-7.34380 
378 ,79.4740 ,1.63873 ,-0.78610 ,-7.71317 
379 ,79.6817 ,1.64086 ,-0.76898 ,-7.54527 
380 ,79.8899 ,1.64299 ,-0.79294 ,-7.78032 
381 ,80.1140 ,1.64522 ,-0.80663 ,-7.91464 
382 ,80.3223 ,1.64734 ,-0.79636 ,-7.81390 
383 ,80.5464 ,1.64952 ,-0.81347 ,-7.98179 
384 ,80.7544 ,1.65156 ,-0.84427 ,-8.28400 
385 ,80.9784 ,1.65382 ,-0.84085 ,-8.25042 
386 ,81.1546 ,1.65574 ,-0.86138 ,-8.45189 
387 ,81.3465 ,1.65758 ,-0.85796 ,-8.41831 
388 ,81.5387 ,1.65953 ,-0.88534 ,-8.68694 
389 ,81.7628 ,1.66169 ,-0.88192 ,-8.65336 
390 ,81.9550 ,1.66364 ,-0.89903 ,-8.82125 
391 ,82.1786 ,1.66583 ,-0.89218 ,-8.75409 
392 ,82.3869 ,1.66793 ,-0.90587 ,-8.88841 
393 ,82.6111 ,1.67013 ,-0.93667 ,-9.19061 
394 ,82.8033 ,1.67211 ,-0.91956 ,-9.02272 
395 ,83.0110 ,1.67425 ,-0.90929 ,-8.92198 
396 ,83.2033 ,1.67612 ,-0.93325 ,-9.15703 
397 ,83.4274 ,1.67832 ,-0.95036 ,-9.32492 
398 ,83.6356 ,1.68043 ,-0.97431 ,-9.55997 
399 ,83.8278 ,1.68238 ,-0.95720 ,-9.39208 
400 ,84.0195 ,1.68425 ,-0.97089 ,-9.52639 
401 ,84.2439 ,1.68648 ,-0.97089 ,-9.52639 
402 ,84.4355 ,1.68849 ,-1.00511 ,-9.86218 
403 ,84.6441 ,1.69047 ,-1.00169 ,-9.82860 
404 ,84.8521 ,1.69262 ,-1.01880 ,-9.99649 
405 ,85.0600 ,1.69461 ,-1.03249 ,-10.13080 
406 ,85.2683 ,1.69673 ,-1.02907 ,-10.09723 
407 ,85.4760 ,1.69880 ,-1.05302 ,-10.33227 
408 ,85.6684 ,1.70089 ,-1.03591 ,-10.16438 
409 ,85.8927 ,1.70298 ,-1.05645 ,-10.36585 
410 ,86.1007 ,1.70498 ,-1.06671 ,-10.46659 
411 ,86.3248 ,1.70726 ,-1.06329 ,-10.43301 
412 ,86.5489 ,1.70951 ,-1.08040 ,-10.60090 
413 ,86.8047 ,1.71209 ,-1.08040 ,-10.60090 
414 ,87.0128 ,1.71419 ,-1.10093 ,-10.80237 
415 ,87.2371 ,1.71639 ,-1.12489 ,-11.03742 
416 ,87.4610 ,1.71859 ,-1.12147 ,-11.00384 
417 ,87.6854 ,1.72085 ,-1.11120 ,-10.90310 
418 ,87.9092 ,1.72317 ,-1.13173 ,-11.10457 
419 ,88.1334 ,1.72537 ,-1.13858 ,-11.17173 
420 ,88.3413 ,1.72747 ,-1.14884 ,-11.27247 
421 ,88.5810 ,1.72978 ,-1.16938 ,-11.47394 
422 ,88.7891 ,1.73191 ,-1.15911 ,-11.37320 
423 ,89.0136 ,1.73413 ,-1.18991 ,-11.67541 
424 ,89.2379 ,1.73642 ,-1.20018 ,-11.77614 
425 ,89.4460 ,1.73846 ,-1.19676 ,-11.74256 
426 ,89.6698 ,1.74069 ,-1.20702 ,-11.84330 
427 ,89.8782 ,1.74281 ,-1.22413 ,-12.01119 
428 ,90.0861 ,1.74488 ,-1.22071 ,-11.97761 
429 ,90.3102 ,1.74711 ,-1.21729 ,-11.94403 
430 ,90.5184 ,1.74918 ,-1.25493 ,-12.31339 
431 ,90.7264 ,1.75124 ,-1.25493 ,-12.31339 
432 ,90.9346 ,1.75337 ,-1.26520 ,-12.41413 
433 ,91.1587 ,1.75554 ,-1.28231 ,-12.58202 
434 ,91.3507 ,1.75752 ,-1.25493 ,-12.31339 
435 ,91.5749 ,1.75972 ,-1.28573 ,-12.61560 
436 ,91.7829 ,1.76191 ,-1.27889 ,-12.54844 
437 ,92.0069 ,1.76405 ,-1.28231 ,-12.58202 
438 ,92.1987 ,1.76600 ,-1.30626 ,-12.81707 
439 ,92.4069 ,1.76802 ,-1.30284 ,-12.78349 
440 ,92.5992 ,1.77016 ,-1.31653 ,-12.91780 
441 ,92.8072 ,1.77205 ,-1.31311 ,-12.88422 
442 ,93.0154 ,1.77414 ,-1.34049 ,-13.15285 
443 ,93.2393 ,1.77637 ,-1.35417 ,-13.28716 
444 ,93.4636 ,1.77855 ,-1.34733 ,-13.22001 
445 ,93.6876 ,1.78083 ,-1.34733 ,-13.22001 
446 ,93.8797 ,1.78291 ,-1.37813 ,-13.52221 
447 ,94.0880 ,1.78485 ,-1.37471 ,-13.48863 
448 ,94.3117 ,1.78708 ,-1.37471 ,-13.48863 
449 ,94.5359 ,1.78934 ,-1.39866 ,-13.72368 
450 ,94.7600 ,1.79155 ,-1.40893 ,-13.82442 
451 ,94.9683 ,1.79367 ,-1.39524 ,-13.69010 
452 ,95.1763 ,1.79574 ,-1.41235 ,-13.85799 
453 ,95.3843 ,1.79781 ,-1.41920 ,-13.92515 
454 ,95.5764 ,1.79985 ,-1.43288 ,-14.05946 
455 ,95.7846 ,1.80179 ,-1.45684 ,-14.29451 
456 ,95.9766 ,1.80389 ,-1.43973 ,-14.12662 
457 ,96.1845 ,1.80584 ,-1.46026 ,-14.32809 
458 ,96.3927 ,1.80788 ,-1.45342 ,-14.26093 
459 ,96.6004 ,1.80998 ,-1.48422 ,-14.56314 
460 ,96.8088 ,1.81209 ,-1.47053 ,-14.42883 
