Data stamp = , 16-05-2022 22:18:25 041

Calibration Values: 
Slope = , 26.54 , g/V 
Offset Voltage at no contact = , -0.501760 , V 

No , Time , Stage Position ,   Mass , Force 
   ,  (s) ,      (mm)      ,   (g)  , (mN)  

1 ,0.0000 ,0.84964 ,5.08977 ,49.94078 
2 ,0.3792 ,0.85002 ,5.07608 ,49.80646 
3 ,0.8274 ,0.85220 ,5.06581 ,49.70573 
4 ,1.0358 ,0.85474 ,5.09319 ,49.97436 
5 ,1.2438 ,0.85680 ,5.09319 ,49.97436 
6 ,1.5320 ,0.85926 ,5.08292 ,49.87362 
7 ,1.7240 ,0.86166 ,5.05212 ,49.57142 
8 ,1.9320 ,0.86370 ,5.01790 ,49.23563 
9 ,2.1403 ,0.86577 ,5.01790 ,49.23563 
10 ,2.3483 ,0.86786 ,4.99052 ,48.96701 
11 ,2.5404 ,0.86985 ,4.99394 ,49.00058 
12 ,2.7326 ,0.87174 ,4.94261 ,48.49691 
13 ,2.9565 ,0.87392 ,4.93577 ,48.42975 
14 ,3.1486 ,0.87587 ,4.89812 ,48.06039 
15 ,3.3728 ,0.87808 ,4.88101 ,47.89250 
16 ,3.5645 ,0.88003 ,4.87759 ,47.85892 
17 ,3.7732 ,0.88216 ,4.82968 ,47.38883 
18 ,3.9810 ,0.88420 ,4.82968 ,47.38883 
19 ,4.1733 ,0.88612 ,4.78519 ,46.95231 
20 ,4.3972 ,0.88832 ,4.78861 ,46.98589 
21 ,4.5893 ,0.89028 ,4.76808 ,46.78442 
22 ,4.7814 ,0.89226 ,4.75439 ,46.65010 
23 ,4.9895 ,0.89424 ,4.71333 ,46.24716 
24 ,5.1977 ,0.89632 ,4.69622 ,46.07927 
25 ,5.4214 ,0.89863 ,4.69622 ,46.07927 
26 ,5.6138 ,0.90052 ,4.64488 ,45.57560 
27 ,5.8216 ,0.90256 ,4.63804 ,45.50844 
28 ,6.0300 ,0.90469 ,4.59355 ,45.07192 
29 ,6.2540 ,0.90694 ,4.57644 ,44.90403 
30 ,6.4621 ,0.90909 ,4.56960 ,44.83688 
31 ,6.6702 ,0.91106 ,4.53880 ,44.53467 
32 ,6.8781 ,0.91314 ,4.52169 ,44.36678 
33 ,7.1024 ,0.91536 ,4.50800 ,44.23247 
34 ,7.3104 ,0.91747 ,4.46009 ,43.76237 
35 ,7.5345 ,0.91969 ,4.44640 ,43.62806 
36 ,7.7263 ,0.92164 ,4.44298 ,43.59448 
37 ,7.9348 ,0.92373 ,4.40191 ,43.19154 
38 ,8.1749 ,0.92601 ,4.38138 ,42.99007 
39 ,8.3987 ,0.92830 ,4.36769 ,42.85576 
40 ,8.6227 ,0.93047 ,4.33689 ,42.55355 
41 ,8.8150 ,0.93253 ,4.31293 ,42.31850 
42 ,9.0071 ,0.93447 ,4.29924 ,42.18419 
43 ,9.2152 ,0.93658 ,4.26502 ,41.84841 
44 ,9.4073 ,0.93846 ,4.25133 ,41.71409 
45 ,9.5994 ,0.94040 ,4.23422 ,41.54620 
46 ,9.8235 ,0.94257 ,4.23080 ,41.51262 
47 ,10.0155 ,0.94454 ,4.18289 ,41.04253 
48 ,10.2393 ,0.94673 ,4.18974 ,41.10968 
49 ,10.4474 ,0.94881 ,4.14525 ,40.67317 
50 ,10.6555 ,0.95091 ,4.13498 ,40.57243 
51 ,10.8480 ,0.95288 ,4.12129 ,40.43812 
52 ,11.0723 ,0.95508 ,4.08365 ,40.06876 
53 ,11.2799 ,0.95718 ,4.07338 ,39.96802 
54 ,11.4880 ,0.95922 ,4.03916 ,39.63224 
55 ,11.6962 ,0.96133 ,4.02547 ,39.49793 
56 ,11.8881 ,0.96324 ,4.00494 ,39.29646 
57 ,12.0964 ,0.96532 ,3.97414 ,38.99425 
58 ,12.3204 ,0.96753 ,3.97072 ,38.96067 
59 ,12.5120 ,0.96958 ,3.93650 ,38.62489 
60 ,12.7044 ,0.97139 ,3.93650 ,38.62489 
61 ,12.9127 ,0.97350 ,3.88516 ,38.12122 
62 ,13.1048 ,0.97538 ,3.89543 ,38.22195 
63 ,13.3288 ,0.97755 ,3.85436 ,37.81901 
64 ,13.5207 ,0.97957 ,3.84752 ,37.75185 
65 ,13.7451 ,0.98175 ,3.83041 ,37.58396 
66 ,13.9690 ,0.98401 ,3.79276 ,37.21460 
67 ,14.1612 ,0.98601 ,3.79276 ,37.21460 
68 ,14.3532 ,0.98795 ,3.74828 ,36.77808 
69 ,14.5610 ,0.98996 ,3.73801 ,36.67735 
70 ,14.7534 ,0.99190 ,3.70721 ,36.37514 
71 ,14.9616 ,0.99398 ,3.69010 ,36.20725 
72 ,15.1854 ,0.99618 ,3.67641 ,36.07294 
73 ,15.3938 ,0.99828 ,3.63877 ,35.70358 
74 ,15.6020 ,1.00036 ,3.62850 ,35.60284 
75 ,15.8256 ,1.00254 ,3.60797 ,35.40137 
76 ,16.0178 ,1.00456 ,3.56690 ,34.99843 
77 ,16.2420 ,1.00669 ,3.56690 ,34.99843 
78 ,16.4343 ,1.00873 ,3.52926 ,34.62907 
79 ,16.6421 ,1.01074 ,3.52926 ,34.62907 
80 ,16.8500 ,1.01278 ,3.49504 ,34.29329 
81 ,17.0901 ,1.01526 ,3.45739 ,33.92393 
82 ,17.2984 ,1.01734 ,3.44713 ,33.82319 
83 ,17.5066 ,1.01939 ,3.43344 ,33.68888 
84 ,17.7148 ,1.02144 ,3.39921 ,33.35310 
85 ,17.9069 ,1.02350 ,3.39921 ,33.35310 
86 ,18.1149 ,1.02543 ,3.35815 ,32.95016 
87 ,18.3070 ,1.02745 ,3.35130 ,32.88300 
88 ,18.5149 ,1.02947 ,3.31708 ,32.54722 
89 ,18.7229 ,1.03157 ,3.31024 ,32.48006 
90 ,18.9151 ,1.03355 ,3.27944 ,32.17786 
91 ,19.1069 ,1.03543 ,3.27944 ,32.17786 
92 ,19.3150 ,1.03747 ,3.24522 ,31.84207 
93 ,19.5391 ,1.03966 ,3.22126 ,31.60702 
94 ,19.7474 ,1.04180 ,3.21442 ,31.53987 
95 ,19.9556 ,1.04393 ,3.17677 ,31.17051 
96 ,20.1475 ,1.04580 ,3.18362 ,31.23766 
97 ,20.3236 ,1.04772 ,3.13571 ,30.76757 
98 ,20.5160 ,1.04948 ,3.11860 ,30.59968 
99 ,20.7078 ,1.05139 ,3.10149 ,30.43178 
100 ,20.9322 ,1.05359 ,3.09122 ,30.33105 
101 ,21.1401 ,1.05566 ,3.06384 ,30.06242 
102 ,21.3478 ,1.05779 ,3.05015 ,29.92811 
103 ,21.5563 ,1.05980 ,3.02278 ,29.65948 
104 ,21.7643 ,1.06195 ,3.01593 ,29.59233 
105 ,21.9565 ,1.06393 ,2.98171 ,29.25654 
106 ,22.1645 ,1.06591 ,2.98513 ,29.29012 
107 ,22.3566 ,1.06801 ,2.94064 ,28.85360 
108 ,22.5487 ,1.06985 ,2.92011 ,28.65213 
109 ,22.7567 ,1.07190 ,2.91327 ,28.58498 
110 ,23.0130 ,1.07434 ,2.88247 ,28.28277 
111 ,23.2209 ,1.07652 ,2.87905 ,28.24919 
112 ,23.4130 ,1.07849 ,2.85167 ,27.98057 
113 ,23.6368 ,1.08065 ,2.83456 ,27.81268 
114 ,23.8448 ,1.08282 ,2.83114 ,27.77910 
115 ,24.0533 ,1.08480 ,2.77980 ,27.27542 
116 ,24.2609 ,1.08697 ,2.77296 ,27.20827 
117 ,24.4529 ,1.08897 ,2.77980 ,27.27542 
118 ,24.6612 ,1.09094 ,2.73189 ,26.80533 
119 ,24.8693 ,1.09301 ,2.72505 ,26.73817 
120 ,25.0776 ,1.09505 ,2.68740 ,26.36881 
121 ,25.2858 ,1.09710 ,2.68740 ,26.36881 
122 ,25.4935 ,1.09922 ,2.64976 ,25.99945 
123 ,25.6862 ,1.10115 ,2.64976 ,25.99945 
124 ,25.8941 ,1.10330 ,2.63265 ,25.83156 
125 ,26.1023 ,1.10531 ,2.60527 ,25.56293 
126 ,26.3103 ,1.10744 ,2.60527 ,25.56293 
127 ,26.5181 ,1.10945 ,2.56763 ,25.19357 
128 ,26.7265 ,1.11152 ,2.56763 ,25.19357 
129 ,26.9340 ,1.11367 ,2.53341 ,24.85779 
130 ,27.1266 ,1.11569 ,2.52656 ,24.79063 
131 ,27.3344 ,1.11771 ,2.50603 ,24.58916 
132 ,27.5428 ,1.11969 ,2.48892 ,24.42127 
133 ,27.7666 ,1.12192 ,2.48207 ,24.35411 
134 ,27.9590 ,1.12389 ,2.45127 ,24.05191 
135 ,28.1670 ,1.12596 ,2.44785 ,24.01833 
136 ,28.3907 ,1.12821 ,2.41363 ,23.68255 
137 ,28.5993 ,1.13022 ,2.41021 ,23.64897 
138 ,28.8072 ,1.13236 ,2.38968 ,23.44750 
139 ,28.9992 ,1.13430 ,2.36914 ,23.24603 
140 ,29.2074 ,1.13634 ,2.36914 ,23.24603 
141 ,29.3994 ,1.13828 ,2.32808 ,22.84309 
142 ,29.6074 ,1.14038 ,2.33150 ,22.87667 
143 ,29.8154 ,1.14246 ,2.30412 ,22.60804 
144 ,30.0238 ,1.14453 ,2.29385 ,22.50731 
145 ,30.2314 ,1.14660 ,2.28359 ,22.40657 
146 ,30.4400 ,1.14874 ,2.25621 ,22.13794 
147 ,30.6477 ,1.15076 ,2.24937 ,22.07079 
148 ,30.8558 ,1.15287 ,2.21857 ,21.76858 
149 ,31.0643 ,1.15487 ,2.22199 ,21.80216 
150 ,31.2559 ,1.15692 ,2.19119 ,21.49996 
151 ,31.4644 ,1.15889 ,2.17750 ,21.36564 
152 ,31.6723 ,1.16102 ,2.16381 ,21.23133 
153 ,31.8645 ,1.16297 ,2.13644 ,20.96270 
154 ,32.0564 ,1.16486 ,2.11248 ,20.72766 
155 ,32.2648 ,1.16693 ,2.11932 ,20.79481 
156 ,32.4725 ,1.16899 ,2.09879 ,20.59334 
157 ,32.6646 ,1.17096 ,2.07826 ,20.39187 
158 ,32.8889 ,1.17303 ,2.05430 ,20.15682 
159 ,33.0970 ,1.17517 ,2.03377 ,19.95535 
160 ,33.2891 ,1.17721 ,2.04404 ,20.05609 
161 ,33.4652 ,1.17905 ,2.00982 ,19.72031 
162 ,33.6734 ,1.18103 ,1.98586 ,19.48526 
163 ,33.8975 ,1.18320 ,1.98244 ,19.45168 
164 ,34.1055 ,1.18531 ,1.98586 ,19.48526 
165 ,34.2976 ,1.18725 ,1.94479 ,19.08232 
166 ,34.5373 ,1.18963 ,1.93453 ,18.98158 
167 ,34.7455 ,1.19160 ,1.92768 ,18.91443 
168 ,34.9855 ,1.19423 ,1.89346 ,18.57864 
169 ,35.1775 ,1.19604 ,1.87635 ,18.41075 
170 ,35.3536 ,1.19795 ,1.88662 ,18.51149 
171 ,35.5619 ,1.19983 ,1.85924 ,18.24286 
172 ,35.7857 ,1.20203 ,1.84897 ,18.14213 
173 ,35.9939 ,1.20422 ,1.82844 ,17.94066 
174 ,36.2020 ,1.20627 ,1.80791 ,17.73919 
175 ,36.3941 ,1.20830 ,1.80106 ,17.67203 
176 ,36.6023 ,1.21022 ,1.77711 ,17.43698 
177 ,36.8263 ,1.21254 ,1.77026 ,17.36983 
178 ,37.0185 ,1.21458 ,1.74631 ,17.13478 
179 ,37.2424 ,1.21664 ,1.73604 ,17.03404 
180 ,37.4506 ,1.21871 ,1.70524 ,16.73184 
181 ,37.6588 ,1.22086 ,1.68813 ,16.56395 
182 ,37.8672 ,1.22295 ,1.68471 ,16.53037 
183 ,38.1074 ,1.22522 ,1.65049 ,16.19458 
184 ,38.3154 ,1.22745 ,1.64022 ,16.09385 
185 ,38.5234 ,1.22946 ,1.64364 ,16.12743 
186 ,38.7315 ,1.23159 ,1.62311 ,15.92596 
187 ,38.9235 ,1.23357 ,1.59573 ,15.65733 
188 ,39.1156 ,1.23547 ,1.57862 ,15.48944 
189 ,39.3078 ,1.23733 ,1.58547 ,15.55660 
190 ,39.5157 ,1.23936 ,1.54782 ,15.18724 
191 ,39.7077 ,1.24133 ,1.55467 ,15.25439 
192 ,39.9320 ,1.24353 ,1.53071 ,15.01934 
193 ,40.1397 ,1.24563 ,1.49991 ,14.71714 
194 ,40.3642 ,1.24784 ,1.50676 ,14.78430 
195 ,40.5882 ,1.25007 ,1.48965 ,14.61640 
196 ,40.7802 ,1.25207 ,1.45542 ,14.28062 
197 ,41.0044 ,1.25426 ,1.45542 ,14.28062 
198 ,41.2282 ,1.25646 ,1.43831 ,14.11273 
199 ,41.4524 ,1.25867 ,1.41778 ,13.91126 
200 ,41.6765 ,1.26095 ,1.38356 ,13.57548 
201 ,41.9004 ,1.26323 ,1.36987 ,13.44116 
202 ,42.0927 ,1.26520 ,1.36645 ,13.40759 
203 ,42.3169 ,1.26739 ,1.34934 ,13.23969 
204 ,42.5251 ,1.26946 ,1.35276 ,13.27327 
205 ,42.7490 ,1.27169 ,1.32196 ,12.97107 
206 ,42.9252 ,1.27363 ,1.30143 ,12.76960 
207 ,43.1333 ,1.27554 ,1.28432 ,12.60171 
208 ,43.3573 ,1.27778 ,1.26378 ,12.40024 
209 ,43.5493 ,1.27973 ,1.26378 ,12.40024 
210 ,43.7577 ,1.28185 ,1.23983 ,12.16519 
211 ,43.9812 ,1.28402 ,1.22956 ,12.06445 
212 ,44.1739 ,1.28600 ,1.21245 ,11.89656 
213 ,44.3816 ,1.28809 ,1.19876 ,11.76225 
214 ,44.5735 ,1.29010 ,1.19876 ,11.76225 
215 ,44.7819 ,1.29205 ,1.17823 ,11.56078 
216 ,44.9901 ,1.29415 ,1.16796 ,11.46004 
217 ,45.2301 ,1.29645 ,1.12005 ,10.98995 
218 ,45.4542 ,1.29874 ,1.13032 ,11.09068 
219 ,45.6464 ,1.30072 ,1.10979 ,10.88921 
220 ,45.8702 ,1.30294 ,1.09610 ,10.75490 
221 ,46.0786 ,1.30495 ,1.08583 ,10.65416 
222 ,46.2866 ,1.30712 ,1.07556 ,10.55343 
223 ,46.4948 ,1.30916 ,1.05161 ,10.31838 
224 ,46.7026 ,1.31125 ,1.05503 ,10.35196 
225 ,46.9267 ,1.31342 ,1.03108 ,10.11691 
226 ,47.1350 ,1.31560 ,1.01396 ,9.94902 
227 ,47.3430 ,1.31762 ,1.01739 ,9.98260 
228 ,47.5350 ,1.31960 ,0.97632 ,9.57966 
229 ,47.7432 ,1.32165 ,0.98317 ,9.64682 
230 ,47.9507 ,1.32372 ,0.96605 ,9.47892 
231 ,48.1593 ,1.32578 ,0.94552 ,9.27745 
232 ,48.3514 ,1.32772 ,0.93525 ,9.17672 
233 ,48.5436 ,1.32968 ,0.91814 ,9.00883 
234 ,48.7675 ,1.33187 ,0.91814 ,9.00883 
235 ,48.9757 ,1.33391 ,0.88050 ,8.63947 
236 ,49.1838 ,1.33601 ,0.89077 ,8.74020 
237 ,49.4077 ,1.33827 ,0.88392 ,8.67305 
238 ,49.6160 ,1.34035 ,0.83601 ,8.20295 
239 ,49.8398 ,1.34254 ,0.83943 ,8.23653 
240 ,50.0321 ,1.34455 ,0.83259 ,8.16937 
241 ,50.2242 ,1.34658 ,0.81548 ,8.00148 
242 ,50.4163 ,1.34839 ,0.78468 ,7.69927 
243 ,50.6404 ,1.35056 ,0.78810 ,7.73285 
244 ,50.8484 ,1.35270 ,0.77441 ,7.59854 
245 ,51.0565 ,1.35481 ,0.75046 ,7.36349 
246 ,51.2642 ,1.35684 ,0.75388 ,7.39707 
247 ,51.4562 ,1.35892 ,0.73335 ,7.19560 
248 ,51.6645 ,1.36083 ,0.72308 ,7.09486 
249 ,51.8565 ,1.36277 ,0.70255 ,6.89340 
250 ,52.0650 ,1.36490 ,0.70939 ,6.96055 
251 ,52.2732 ,1.36698 ,0.68201 ,6.69193 
252 ,52.4810 ,1.36905 ,0.66490 ,6.52403 
253 ,52.6887 ,1.37108 ,0.65806 ,6.45688 
254 ,52.9292 ,1.37335 ,0.61357 ,6.02036 
255 ,53.1373 ,1.37552 ,0.61699 ,6.05394 
256 ,53.3454 ,1.37762 ,0.61699 ,6.05394 
257 ,53.5376 ,1.37958 ,0.57251 ,5.61742 
258 ,53.7456 ,1.38172 ,0.57935 ,5.68458 
259 ,53.9378 ,1.38356 ,0.56224 ,5.51668 
260 ,54.1778 ,1.38583 ,0.56566 ,5.55026 
261 ,54.3859 ,1.38806 ,0.55882 ,5.48311 
262 ,54.5935 ,1.39019 ,0.53486 ,5.24806 
263 ,54.7860 ,1.39210 ,0.52802 ,5.18090 
264 ,54.9778 ,1.39412 ,0.50064 ,4.91228 
265 ,55.2018 ,1.39619 ,0.49722 ,4.87870 
266 ,55.3938 ,1.39818 ,0.48695 ,4.77796 
267 ,55.5863 ,1.40007 ,0.48353 ,4.74438 
268 ,55.7944 ,1.40210 ,0.45615 ,4.47576 
269 ,56.0185 ,1.40430 ,0.44931 ,4.40860 
270 ,56.2266 ,1.40642 ,0.45273 ,4.44218 
271 ,56.4506 ,1.40874 ,0.42877 ,4.20713 
272 ,56.6749 ,1.41090 ,0.41166 ,4.03924 
273 ,56.8828 ,1.41297 ,0.40482 ,3.97208 
274 ,57.0909 ,1.41505 ,0.40140 ,3.93850 
275 ,57.2990 ,1.41721 ,0.35006 ,3.43483 
276 ,57.5069 ,1.41924 ,0.37060 ,3.63630 
277 ,57.6992 ,1.42119 ,0.33638 ,3.30052 
278 ,57.9068 ,1.42327 ,0.35349 ,3.46841 
279 ,58.0833 ,1.42517 ,0.31584 ,3.09905 
280 ,58.2910 ,1.42703 ,0.31584 ,3.09905 
281 ,58.4836 ,1.42905 ,0.30215 ,2.96473 
282 ,58.6916 ,1.43103 ,0.28847 ,2.83042 
283 ,58.9157 ,1.43329 ,0.25424 ,2.49464 
284 ,59.1238 ,1.43542 ,0.27820 ,2.72969 
285 ,59.3319 ,1.43750 ,0.24740 ,2.42748 
286 ,59.5400 ,1.43956 ,0.22344 ,2.19243 
287 ,59.7479 ,1.44165 ,0.24055 ,2.36032 
288 ,59.9561 ,1.44368 ,0.20976 ,2.05812 
289 ,60.1642 ,1.44591 ,0.18922 ,1.85665 
290 ,60.3562 ,1.44773 ,0.17553 ,1.72234 
291 ,60.5644 ,1.44979 ,0.19264 ,1.89023 
292 ,60.7726 ,1.45190 ,0.17896 ,1.75592 
293 ,60.9803 ,1.45393 ,0.15500 ,1.52087 
294 ,61.2043 ,1.45616 ,0.15500 ,1.52087 
295 ,61.4126 ,1.45827 ,0.13789 ,1.35298 
296 ,61.6369 ,1.46050 ,0.10709 ,1.05077 
297 ,61.8449 ,1.46258 ,0.11736 ,1.15151 
298 ,62.0688 ,1.46483 ,0.10367 ,1.01719 
299 ,62.2767 ,1.46697 ,0.07971 ,0.78214 
300 ,62.4852 ,1.46904 ,0.07629 ,0.74857 
301 ,62.6933 ,1.47108 ,0.06602 ,0.64783 
302 ,62.9013 ,1.47311 ,0.03522 ,0.34563 
303 ,63.1094 ,1.47524 ,0.04891 ,0.47994 
304 ,63.3012 ,1.47717 ,0.01811 ,0.17773 
305 ,63.4934 ,1.47913 ,0.02838 ,0.27847 
306 ,63.6853 ,1.48101 ,0.01127 ,0.11058 
307 ,63.8778 ,1.48299 ,-0.00926 ,-0.09089 
308 ,64.0856 ,1.48500 ,0.00443 ,0.04342 
309 ,64.2936 ,1.48709 ,-0.02295 ,-0.22520 
310 ,64.5015 ,1.48911 ,-0.04006 ,-0.39310 
311 ,64.7101 ,1.49128 ,-0.03664 ,-0.35952 
312 ,64.9342 ,1.49348 ,-0.05375 ,-0.52741 
313 ,65.1423 ,1.49555 ,-0.07086 ,-0.69530 
314 ,65.3504 ,1.49765 ,-0.06744 ,-0.66172 
315 ,65.5584 ,1.49978 ,-0.10166 ,-0.99751 
316 ,65.7663 ,1.50184 ,-0.09140 ,-0.89677 
317 ,65.9583 ,1.50375 ,-0.12219 ,-1.19898 
318 ,66.1508 ,1.50566 ,-0.10508 ,-1.03108 
319 ,66.3750 ,1.50787 ,-0.13246 ,-1.29971 
320 ,66.5829 ,1.50996 ,-0.14957 ,-1.46760 
321 ,66.8071 ,1.51219 ,-0.14615 ,-1.43402 
322 ,66.9990 ,1.51414 ,-0.18379 ,-1.80338 
323 ,67.1910 ,1.51605 ,-0.17011 ,-1.66907 
324 ,67.4151 ,1.51835 ,-0.18722 ,-1.83696 
325 ,67.6392 ,1.52045 ,-0.20090 ,-1.97128 
326 ,67.8309 ,1.52253 ,-0.20090 ,-1.97128 
327 ,68.0395 ,1.52456 ,-0.23170 ,-2.27348 
328 ,68.2637 ,1.52672 ,-0.22486 ,-2.20632 
329 ,68.4718 ,1.52886 ,-0.23170 ,-2.27348 
330 ,68.6798 ,1.53087 ,-0.27619 ,-2.71000 
331 ,68.8877 ,1.53307 ,-0.26593 ,-2.60926 
332 ,69.0957 ,1.53510 ,-0.28304 ,-2.77716 
333 ,69.3040 ,1.53712 ,-0.29673 ,-2.91147 
334 ,69.4958 ,1.53911 ,-0.28646 ,-2.81073 
335 ,69.6882 ,1.54103 ,-0.28646 ,-2.81073 
336 ,69.8966 ,1.54310 ,-0.30357 ,-2.97863 
337 ,70.0880 ,1.54505 ,-0.32068 ,-3.14652 
338 ,70.2966 ,1.54705 ,-0.34121 ,-3.34799 
339 ,70.5205 ,1.54925 ,-0.35148 ,-3.44872 
340 ,70.7127 ,1.55125 ,-0.34121 ,-3.34799 
341 ,70.9048 ,1.55319 ,-0.37201 ,-3.65019 
342 ,71.0969 ,1.55511 ,-0.37544 ,-3.68377 
343 ,71.3367 ,1.55738 ,-0.38570 ,-3.78450 
344 ,71.5445 ,1.55957 ,-0.39597 ,-3.88524 
345 ,71.7369 ,1.56152 ,-0.41650 ,-4.08671 
346 ,71.9449 ,1.56359 ,-0.41650 ,-4.08671 
347 ,72.1372 ,1.56549 ,-0.43019 ,-4.22102 
348 ,72.3449 ,1.56750 ,-0.44388 ,-4.35534 
349 ,72.5371 ,1.56953 ,-0.44730 ,-4.38891 
350 ,72.7615 ,1.57160 ,-0.44388 ,-4.35534 
351 ,72.9533 ,1.57369 ,-0.45757 ,-4.48965 
352 ,73.1616 ,1.57572 ,-0.48494 ,-4.75828 
353 ,73.3535 ,1.57770 ,-0.48494 ,-4.75828 
354 ,73.5779 ,1.57979 ,-0.49521 ,-4.85901 
355 ,73.7858 ,1.58202 ,-0.50890 ,-4.99332 
356 ,73.9779 ,1.58391 ,-0.52259 ,-5.12764 
357 ,74.1861 ,1.58598 ,-0.51574 ,-5.06048 
358 ,74.4101 ,1.58827 ,-0.51917 ,-5.09406 
359 ,74.6178 ,1.59022 ,-0.56023 ,-5.49700 
360 ,74.8100 ,1.59220 ,-0.53970 ,-5.29553 
361 ,75.0343 ,1.59430 ,-0.57734 ,-5.66489 
362 ,75.2424 ,1.59653 ,-0.58419 ,-5.73205 
363 ,75.4502 ,1.59853 ,-0.56708 ,-5.56415 
364 ,75.6581 ,1.60076 ,-0.58419 ,-5.73205 
365 ,75.8504 ,1.60266 ,-0.60130 ,-5.89994 
366 ,76.0583 ,1.60468 ,-0.62525 ,-6.13499 
367 ,76.2507 ,1.60661 ,-0.60130 ,-5.89994 
368 ,76.4426 ,1.60854 ,-0.63894 ,-6.26930 
369 ,76.6509 ,1.61056 ,-0.62183 ,-6.10141 
370 ,76.8590 ,1.61271 ,-0.67316 ,-6.60508 
371 ,77.0674 ,1.61478 ,-0.66290 ,-6.50435 
372 ,77.2753 ,1.61691 ,-0.66290 ,-6.50435 
373 ,77.4833 ,1.61889 ,-0.67316 ,-6.60508 
374 ,77.6755 ,1.62088 ,-0.67659 ,-6.63866 
375 ,77.8831 ,1.62287 ,-0.70054 ,-6.87371 
376 ,78.0757 ,1.62483 ,-0.69712 ,-6.84013 
377 ,78.2996 ,1.62704 ,-0.72450 ,-7.10876 
378 ,78.5077 ,1.62918 ,-0.71081 ,-6.97444 
379 ,78.7475 ,1.63156 ,-0.72107 ,-7.07518 
380 ,78.9395 ,1.63350 ,-0.74845 ,-7.34380 
381 ,79.1477 ,1.63554 ,-0.75187 ,-7.37738 
382 ,79.3561 ,1.63761 ,-0.77241 ,-7.57885 
383 ,79.5480 ,1.63959 ,-0.75872 ,-7.44454 
384 ,79.7723 ,1.64172 ,-0.78267 ,-7.67959 
385 ,79.9802 ,1.64383 ,-0.79978 ,-7.84748 
386 ,80.2205 ,1.64616 ,-0.79294 ,-7.78032 
387 ,80.4444 ,1.64854 ,-0.82032 ,-8.04895 
388 ,80.6366 ,1.65049 ,-0.82374 ,-8.08253 
389 ,80.8446 ,1.65264 ,-0.84427 ,-8.28400 
390 ,81.0525 ,1.65459 ,-0.83401 ,-8.18326 
391 ,81.2449 ,1.65654 ,-0.85454 ,-8.38473 
392 ,81.4369 ,1.65847 ,-0.85796 ,-8.41831 
393 ,81.6451 ,1.66056 ,-0.86823 ,-8.51904 
394 ,81.8530 ,1.66260 ,-0.87507 ,-8.58620 
395 ,82.0613 ,1.66467 ,-0.90245 ,-8.85483 
396 ,82.2529 ,1.66663 ,-0.88534 ,-8.68694 
397 ,82.4611 ,1.66865 ,-0.91272 ,-8.95556 
398 ,82.6695 ,1.67075 ,-0.90929 ,-8.92198 
399 ,82.8936 ,1.67300 ,-0.92983 ,-9.12345 
400 ,83.0857 ,1.67497 ,-0.94351 ,-9.25777 
401 ,83.2938 ,1.67702 ,-0.94694 ,-9.29135 
402 ,83.5018 ,1.67908 ,-0.96063 ,-9.42566 
403 ,83.7099 ,1.68116 ,-0.96063 ,-9.42566 
404 ,83.9177 ,1.68316 ,-0.98116 ,-9.62713 
405 ,84.1101 ,1.68518 ,-0.96747 ,-9.49282 
406 ,84.3180 ,1.68722 ,-0.99143 ,-9.72786 
407 ,84.5257 ,1.68938 ,-1.01196 ,-9.92933 
408 ,84.7338 ,1.69139 ,-1.00511 ,-9.86218 
409 ,84.9259 ,1.69346 ,-1.02565 ,-10.06365 
410 ,85.1344 ,1.69544 ,-1.01196 ,-9.92933 
411 ,85.3747 ,1.69776 ,-1.03934 ,-10.19796 
412 ,85.5822 ,1.69992 ,-1.05645 ,-10.36585 
413 ,85.7909 ,1.70193 ,-1.04618 ,-10.26512 
414 ,85.9985 ,1.70398 ,-1.06671 ,-10.46659 
415 ,86.1910 ,1.70600 ,-1.05645 ,-10.36585 
416 ,86.3990 ,1.70808 ,-1.09067 ,-10.70163 
417 ,86.6071 ,1.71015 ,-1.08725 ,-10.66806 
418 ,86.8311 ,1.71235 ,-1.10093 ,-10.80237 
419 ,87.0551 ,1.71454 ,-1.10436 ,-10.83595 
420 ,87.2635 ,1.71671 ,-1.12489 ,-11.03742 
421 ,87.4873 ,1.71888 ,-1.12489 ,-11.03742 
422 ,87.6951 ,1.72094 ,-1.12489 ,-11.03742 
423 ,87.9034 ,1.72305 ,-1.14542 ,-11.23889 
424 ,88.0956 ,1.72505 ,-1.14200 ,-11.20531 
425 ,88.3039 ,1.72706 ,-1.15569 ,-11.33962 
426 ,88.5119 ,1.72919 ,-1.15227 ,-11.30604 
427 ,88.7040 ,1.73118 ,-1.18991 ,-11.67541 
428 ,88.9116 ,1.73318 ,-1.17622 ,-11.54109 
429 ,89.1200 ,1.73529 ,-1.20360 ,-11.80972 
430 ,89.3281 ,1.73736 ,-1.18991 ,-11.67541 
431 ,89.5363 ,1.73942 ,-1.20360 ,-11.80972 
432 ,89.7606 ,1.74168 ,-1.22413 ,-12.01119 
433 ,89.9361 ,1.74356 ,-1.21044 ,-11.87688 
434 ,90.1445 ,1.74547 ,-1.23440 ,-12.11192 
435 ,90.3689 ,1.74773 ,-1.23782 ,-12.14550 
436 ,90.5767 ,1.74983 ,-1.25151 ,-12.27981 
437 ,90.7687 ,1.75176 ,-1.26178 ,-12.38055 
438 ,90.9609 ,1.75376 ,-1.27204 ,-12.48128 
439 ,91.1524 ,1.75564 ,-1.26862 ,-12.44771 
440 ,91.3449 ,1.75751 ,-1.29258 ,-12.68275 
441 ,91.5371 ,1.75943 ,-1.29600 ,-12.71633 
442 ,91.7451 ,1.76151 ,-1.29600 ,-12.71633 
443 ,91.9371 ,1.76342 ,-1.30969 ,-12.85065 
444 ,92.1614 ,1.76565 ,-1.32680 ,-13.01854 
445 ,92.3694 ,1.76771 ,-1.30969 ,-12.85065 
446 ,92.5776 ,1.76982 ,-1.34049 ,-13.15285 
447 ,92.7857 ,1.77194 ,-1.34733 ,-13.22001 
448 ,92.9936 ,1.77393 ,-1.33706 ,-13.11927 
449 ,93.1858 ,1.77592 ,-1.36786 ,-13.42148 
450 ,93.3934 ,1.77791 ,-1.35417 ,-13.28716 
451 ,93.5859 ,1.77988 ,-1.38155 ,-13.55579 
452 ,93.7780 ,1.78185 ,-1.38155 ,-13.55579 
453 ,94.0021 ,1.78400 ,-1.39866 ,-13.72368 
454 ,94.2261 ,1.78623 ,-1.39524 ,-13.69010 
455 ,94.4179 ,1.78826 ,-1.41235 ,-13.85799 
456 ,94.6260 ,1.79035 ,-1.40551 ,-13.79084 
457 ,94.8181 ,1.79224 ,-1.41920 ,-13.92515 
458 ,95.0261 ,1.79427 ,-1.42946 ,-14.02589 
459 ,95.2341 ,1.79634 ,-1.44657 ,-14.19378 
460 ,95.4263 ,1.79830 ,-1.44657 ,-14.19378 
