Data stamp = , 17-05-2022 00:41:31 307

Calibration Values: 
Slope = , 26.54 , g/V 
Offset Voltage at no contact = , -0.501760 , V 

No , Time , Stage Position ,   Mass , Force 
   ,  (s) ,      (mm)      ,   (g)  , (mN)  

1 ,0.0000 ,0.84941 ,5.08292 ,49.87362 
2 ,0.3455 ,0.84967 ,5.07265 ,49.77289 
3 ,0.7617 ,0.85146 ,5.09319 ,49.97436 
4 ,1.0020 ,0.85407 ,5.08977 ,49.94078 
5 ,1.2258 ,0.85639 ,5.07608 ,49.80646 
6 ,1.4182 ,0.85825 ,5.07265 ,49.77289 
7 ,1.6098 ,0.86032 ,5.07608 ,49.80646 
8 ,1.8024 ,0.86219 ,5.05554 ,49.60499 
9 ,2.0264 ,0.86442 ,5.02474 ,49.30279 
10 ,2.2344 ,0.86650 ,5.03501 ,49.40352 
11 ,2.4426 ,0.86857 ,4.99394 ,49.00058 
12 ,2.6506 ,0.87060 ,4.99052 ,48.96701 
13 ,2.8588 ,0.87280 ,4.94603 ,48.53049 
14 ,3.0666 ,0.87481 ,4.93577 ,48.42975 
15 ,3.2910 ,0.87706 ,4.92208 ,48.29544 
16 ,3.4991 ,0.87907 ,4.88101 ,47.89250 
17 ,3.7071 ,0.88118 ,4.86732 ,47.75819 
18 ,3.8990 ,0.88322 ,4.82626 ,47.35525 
19 ,4.0912 ,0.88512 ,4.83995 ,47.48956 
20 ,4.2833 ,0.88702 ,4.79546 ,47.05304 
21 ,4.4914 ,0.88905 ,4.79546 ,47.05304 
22 ,4.6835 ,0.89100 ,4.75097 ,46.61653 
23 ,4.8912 ,0.89316 ,4.75097 ,46.61653 
24 ,5.0998 ,0.89511 ,4.70648 ,46.18001 
25 ,5.3238 ,0.89734 ,4.69622 ,46.07927 
26 ,5.5319 ,0.89943 ,4.67226 ,45.84422 
27 ,5.7557 ,0.90169 ,4.64488 ,45.57560 
28 ,5.9482 ,0.90364 ,4.63462 ,45.47486 
29 ,6.1881 ,0.90593 ,4.59697 ,45.10550 
30 ,6.4123 ,0.90825 ,4.60040 ,45.13908 
31 ,6.6201 ,0.91040 ,4.56275 ,44.76972 
32 ,6.8450 ,0.91244 ,4.53880 ,44.53467 
33 ,7.0528 ,0.91469 ,4.53537 ,44.50109 
34 ,7.2606 ,0.91672 ,4.48746 ,44.03100 
35 ,7.4529 ,0.91867 ,4.47378 ,43.89668 
36 ,7.6767 ,0.92087 ,4.42244 ,43.39301 
37 ,7.8848 ,0.92303 ,4.43955 ,43.56090 
38 ,8.0767 ,0.92492 ,4.39507 ,43.12438 
39 ,8.2850 ,0.92706 ,4.36769 ,42.85576 
40 ,8.4770 ,0.92887 ,4.35400 ,42.72144 
41 ,8.7012 ,0.93109 ,4.34716 ,42.65429 
42 ,8.9249 ,0.93335 ,4.32320 ,42.41924 
43 ,9.1173 ,0.93530 ,4.28556 ,42.04988 
44 ,9.3410 ,0.93751 ,4.27187 ,41.91556 
45 ,9.5497 ,0.93964 ,4.26502 ,41.84841 
46 ,9.7577 ,0.94171 ,4.23080 ,41.51262 
47 ,9.9658 ,0.94371 ,4.23765 ,41.57978 
48 ,10.1738 ,0.94597 ,4.21027 ,41.31115 
49 ,10.3656 ,0.94778 ,4.16920 ,40.90821 
50 ,10.5898 ,0.95009 ,4.16236 ,40.84106 
51 ,10.8140 ,0.95222 ,4.12129 ,40.43812 
52 ,11.0219 ,0.95429 ,4.11787 ,40.40454 
53 ,11.2302 ,0.95638 ,4.08707 ,40.10233 
54 ,11.4221 ,0.95843 ,4.04943 ,39.73297 
55 ,11.6143 ,0.96027 ,4.04600 ,39.69940 
56 ,11.8060 ,0.96218 ,4.02889 ,39.53150 
57 ,11.9985 ,0.96410 ,3.99809 ,39.22930 
58 ,12.1906 ,0.96607 ,3.99809 ,39.22930 
59 ,12.3984 ,0.96806 ,3.96045 ,38.85994 
60 ,12.5907 ,0.97000 ,3.95018 ,38.75920 
61 ,12.8306 ,0.97231 ,3.92281 ,38.49058 
62 ,13.0389 ,0.97452 ,3.90227 ,38.28911 
63 ,13.2311 ,0.97646 ,3.88174 ,38.08764 
64 ,13.4551 ,0.97860 ,3.86121 ,37.88617 
65 ,13.6633 ,0.98070 ,3.84067 ,37.68470 
66 ,13.8710 ,0.98284 ,3.80303 ,37.31534 
67 ,14.0795 ,0.98486 ,3.79961 ,37.28176 
68 ,14.2875 ,0.98704 ,3.78250 ,37.11387 
69 ,14.5117 ,0.98923 ,3.75512 ,36.84524 
70 ,14.7197 ,0.99128 ,3.74143 ,36.71093 
71 ,14.9118 ,0.99328 ,3.70379 ,36.34157 
72 ,15.1038 ,0.99516 ,3.71405 ,36.44230 
73 ,15.3279 ,0.99739 ,3.67983 ,36.10652 
74 ,15.5681 ,0.99962 ,3.63534 ,35.67000 
75 ,15.7760 ,1.00185 ,3.60797 ,35.40137 
76 ,15.9677 ,1.00376 ,3.61139 ,35.43495 
77 ,16.1760 ,1.00583 ,3.59428 ,35.26706 
78 ,16.3843 ,1.00793 ,3.57717 ,35.09917 
79 ,16.5762 ,1.00987 ,3.52584 ,34.59549 
80 ,16.8005 ,1.01210 ,3.51899 ,34.52834 
81 ,16.9763 ,1.01401 ,3.48135 ,34.15898 
82 ,17.2166 ,1.01618 ,3.47792 ,34.12540 
83 ,17.4409 ,1.01850 ,3.46424 ,33.99108 
84 ,17.6648 ,1.02064 ,3.44028 ,33.75604 
85 ,17.8890 ,1.02296 ,3.40948 ,33.45383 
86 ,18.0969 ,1.02500 ,3.39237 ,33.28594 
87 ,18.3047 ,1.02718 ,3.37526 ,33.11805 
88 ,18.5128 ,1.02919 ,3.33077 ,32.68153 
89 ,18.7213 ,1.03128 ,3.34104 ,32.78227 
90 ,18.9295 ,1.03338 ,3.29313 ,32.31217 
91 ,19.1375 ,1.03543 ,3.28628 ,32.24501 
92 ,19.3453 ,1.03756 ,3.27259 ,32.11070 
93 ,19.5537 ,1.03959 ,3.22468 ,31.64060 
94 ,19.7618 ,1.04170 ,3.23153 ,31.70776 
95 ,19.9857 ,1.04393 ,3.19731 ,31.37198 
96 ,20.1778 ,1.04585 ,3.18362 ,31.23766 
97 ,20.3695 ,1.04778 ,3.16309 ,31.03619 
98 ,20.5780 ,1.04980 ,3.13913 ,30.80115 
99 ,20.7861 ,1.05198 ,3.11175 ,30.53252 
100 ,20.9942 ,1.05397 ,3.09806 ,30.39821 
101 ,21.1862 ,1.05597 ,3.08780 ,30.29747 
102 ,21.3942 ,1.05807 ,3.05358 ,29.96169 
103 ,21.6183 ,1.06024 ,3.06384 ,30.06242 
104 ,21.8425 ,1.06247 ,3.02620 ,29.69306 
105 ,22.0347 ,1.06441 ,2.99882 ,29.42444 
106 ,22.2588 ,1.06661 ,2.98513 ,29.29012 
107 ,22.4667 ,1.06875 ,2.96118 ,29.05507 
108 ,22.6588 ,1.07071 ,2.95433 ,28.98792 
109 ,22.8668 ,1.07267 ,2.91669 ,28.61856 
110 ,23.0590 ,1.07467 ,2.90985 ,28.55140 
111 ,23.2671 ,1.07674 ,2.87905 ,28.24919 
112 ,23.4749 ,1.07875 ,2.87562 ,28.21562 
113 ,23.6668 ,1.08073 ,2.85509 ,28.01415 
114 ,23.8593 ,1.08266 ,2.85167 ,27.98057 
115 ,24.0674 ,1.08467 ,2.80376 ,27.51047 
116 ,24.2912 ,1.08700 ,2.78665 ,27.34258 
117 ,24.4996 ,1.08907 ,2.78665 ,27.34258 
118 ,24.7075 ,1.09118 ,2.76269 ,27.10753 
119 ,24.9155 ,1.09323 ,2.74900 ,26.97322 
120 ,25.1238 ,1.09540 ,2.73874 ,26.87248 
121 ,25.3157 ,1.09723 ,2.72847 ,26.77175 
122 ,25.5079 ,1.09913 ,2.69767 ,26.46954 
123 ,25.7160 ,1.10126 ,2.69767 ,26.46954 
124 ,25.9081 ,1.10318 ,2.66345 ,26.13376 
125 ,26.1163 ,1.10526 ,2.66345 ,26.13376 
126 ,26.3243 ,1.10732 ,2.63949 ,25.89871 
127 ,26.5165 ,1.10926 ,2.61554 ,25.66367 
128 ,26.7245 ,1.11128 ,2.59158 ,25.42862 
129 ,26.9321 ,1.11334 ,2.59843 ,25.49577 
130 ,27.1407 ,1.11545 ,2.57447 ,25.26073 
131 ,27.3487 ,1.11751 ,2.54710 ,24.99210 
132 ,27.5722 ,1.11980 ,2.53341 ,24.85779 
133 ,27.7642 ,1.12184 ,2.52656 ,24.79063 
134 ,27.9728 ,1.12376 ,2.50945 ,24.62274 
135 ,28.2127 ,1.12624 ,2.48207 ,24.35411 
136 ,28.4209 ,1.12828 ,2.47181 ,24.25338 
137 ,28.6288 ,1.13029 ,2.45812 ,24.11906 
138 ,28.8209 ,1.13226 ,2.43416 ,23.88402 
139 ,29.0449 ,1.13439 ,2.40336 ,23.58181 
140 ,29.2533 ,1.13650 ,2.41705 ,23.71612 
141 ,29.4455 ,1.13853 ,2.38283 ,23.38034 
142 ,29.6537 ,1.14055 ,2.37941 ,23.34676 
143 ,29.8617 ,1.14265 ,2.34861 ,23.04456 
144 ,30.0538 ,1.14457 ,2.34177 ,22.97740 
145 ,30.2614 ,1.14672 ,2.32123 ,22.77593 
146 ,30.4695 ,1.14876 ,2.29385 ,22.50731 
147 ,30.6780 ,1.15084 ,2.29385 ,22.50731 
148 ,30.8860 ,1.15291 ,2.25621 ,22.13794 
149 ,31.0942 ,1.15494 ,2.26306 ,22.20510 
150 ,31.2862 ,1.15688 ,2.22541 ,21.83574 
151 ,31.4942 ,1.15912 ,2.22541 ,21.83574 
152 ,31.7024 ,1.16105 ,2.20488 ,21.63427 
153 ,31.9105 ,1.16312 ,2.19461 ,21.53353 
154 ,32.1186 ,1.16517 ,2.18435 ,21.43280 
155 ,32.3266 ,1.16730 ,2.13986 ,20.99628 
156 ,32.5186 ,1.16924 ,2.13986 ,20.99628 
157 ,32.7268 ,1.17128 ,2.10906 ,20.69408 
158 ,32.9510 ,1.17352 ,2.10564 ,20.66050 
159 ,33.1587 ,1.17558 ,2.07141 ,20.32472 
160 ,33.3669 ,1.17766 ,2.06457 ,20.25756 
161 ,33.5588 ,1.17961 ,2.05430 ,20.15682 
162 ,33.7673 ,1.18170 ,2.03719 ,19.98893 
163 ,33.9914 ,1.18393 ,2.02350 ,19.85462 
164 ,34.1995 ,1.18600 ,1.98586 ,19.48526 
165 ,34.3915 ,1.18798 ,2.00639 ,19.68673 
166 ,34.5837 ,1.18988 ,1.96533 ,19.28379 
167 ,34.7916 ,1.19199 ,1.96533 ,19.28379 
168 ,35.0158 ,1.19419 ,1.94137 ,19.04874 
169 ,35.2078 ,1.19613 ,1.91399 ,18.78011 
170 ,35.4156 ,1.19814 ,1.91399 ,18.78011 
171 ,35.6239 ,1.20021 ,1.87293 ,18.37717 
172 ,35.8321 ,1.20225 ,1.89004 ,18.54507 
173 ,36.0240 ,1.20428 ,1.84555 ,18.10855 
174 ,36.2161 ,1.20619 ,1.85582 ,18.20928 
175 ,36.4243 ,1.20821 ,1.82844 ,17.94066 
176 ,36.6322 ,1.21030 ,1.83186 ,17.97423 
177 ,36.8242 ,1.21237 ,1.77711 ,17.43698 
178 ,37.0324 ,1.21433 ,1.78395 ,17.50414 
179 ,37.2568 ,1.21653 ,1.77026 ,17.36983 
180 ,37.4489 ,1.21855 ,1.75315 ,17.20193 
181 ,37.6568 ,1.22056 ,1.73946 ,17.06762 
182 ,37.8811 ,1.22279 ,1.69840 ,16.66468 
183 ,38.0891 ,1.22499 ,1.72235 ,16.89973 
184 ,38.2972 ,1.22703 ,1.69155 ,16.59752 
185 ,38.5053 ,1.22908 ,1.66075 ,16.29532 
186 ,38.7134 ,1.23114 ,1.65733 ,16.26174 
187 ,38.9215 ,1.23324 ,1.62653 ,15.95954 
188 ,39.1295 ,1.23529 ,1.63338 ,16.02669 
189 ,39.3536 ,1.23751 ,1.61284 ,15.82522 
190 ,39.5456 ,1.23949 ,1.58547 ,15.55660 
191 ,39.7698 ,1.24166 ,1.57178 ,15.42228 
192 ,40.0097 ,1.24399 ,1.57178 ,15.42228 
193 ,40.2019 ,1.24612 ,1.53756 ,15.08650 
194 ,40.3940 ,1.24794 ,1.53071 ,15.01934 
195 ,40.6021 ,1.24999 ,1.51018 ,14.81787 
196 ,40.8102 ,1.25207 ,1.51360 ,14.85145 
197 ,41.0343 ,1.25430 ,1.47938 ,14.51567 
198 ,41.2579 ,1.25653 ,1.45200 ,14.24704 
199 ,41.4664 ,1.25860 ,1.45200 ,14.24704 
200 ,41.6584 ,1.26060 ,1.41778 ,13.91126 
201 ,41.8827 ,1.26280 ,1.42120 ,13.94484 
202 ,42.0908 ,1.26493 ,1.42120 ,13.94484 
203 ,42.3144 ,1.26714 ,1.36987 ,13.44116 
204 ,42.5228 ,1.26924 ,1.37329 ,13.47474 
205 ,42.7309 ,1.27132 ,1.36303 ,13.37401 
206 ,42.9230 ,1.27332 ,1.32880 ,13.03822 
207 ,43.1151 ,1.27517 ,1.33907 ,13.13896 
208 ,43.3393 ,1.27737 ,1.30143 ,12.76960 
209 ,43.5472 ,1.27943 ,1.31169 ,12.87033 
210 ,43.7556 ,1.28160 ,1.27747 ,12.53455 
211 ,43.9632 ,1.28361 ,1.25694 ,12.33308 
212 ,44.1716 ,1.28572 ,1.25694 ,12.33308 
213 ,44.3633 ,1.28772 ,1.23641 ,12.13161 
214 ,44.5553 ,1.28951 ,1.22614 ,12.03088 
215 ,44.7476 ,1.29150 ,1.21587 ,11.93014 
216 ,44.9719 ,1.29365 ,1.19876 ,11.76225 
217 ,45.2116 ,1.29599 ,1.17138 ,11.49362 
218 ,45.4358 ,1.29820 ,1.15770 ,11.35931 
219 ,45.6438 ,1.30050 ,1.13716 ,11.15784 
220 ,45.8361 ,1.30233 ,1.12690 ,11.05710 
221 ,46.0283 ,1.30435 ,1.13032 ,11.09068 
222 ,46.2364 ,1.30629 ,1.09610 ,10.75490 
223 ,46.4605 ,1.30854 ,1.10294 ,10.82206 
224 ,46.6524 ,1.31053 ,1.07899 ,10.58701 
225 ,46.8605 ,1.31262 ,1.07214 ,10.51985 
226 ,47.0683 ,1.31466 ,1.06187 ,10.41912 
227 ,47.2608 ,1.31660 ,1.04134 ,10.21765 
228 ,47.4848 ,1.31883 ,1.03108 ,10.11691 
229 ,47.6769 ,1.32076 ,1.00028 ,9.81471 
230 ,47.8850 ,1.32286 ,1.00370 ,9.84829 
231 ,48.0770 ,1.32474 ,0.96605 ,9.47892 
232 ,48.2851 ,1.32684 ,0.98317 ,9.64682 
233 ,48.4773 ,1.32877 ,0.94894 ,9.31103 
234 ,48.7014 ,1.33100 ,0.95579 ,9.37819 
235 ,48.8930 ,1.33299 ,0.92499 ,9.07598 
236 ,49.1016 ,1.33499 ,0.90788 ,8.90809 
237 ,49.3416 ,1.33723 ,0.90103 ,8.84094 
238 ,49.5498 ,1.33946 ,0.88392 ,8.67305 
239 ,49.7575 ,1.34148 ,0.85997 ,8.43800 
240 ,49.9817 ,1.34381 ,0.86681 ,8.50515 
241 ,50.1898 ,1.34589 ,0.85312 ,8.37084 
242 ,50.3980 ,1.34802 ,0.82917 ,8.13579 
243 ,50.6058 ,1.35000 ,0.83259 ,8.16937 
244 ,50.8142 ,1.35201 ,0.79152 ,7.76643 
245 ,51.0704 ,1.35452 ,0.77441 ,7.59854 
246 ,51.2942 ,1.35691 ,0.77099 ,7.56496 
247 ,51.5186 ,1.35910 ,0.76415 ,7.49780 
248 ,51.7263 ,1.36117 ,0.73677 ,7.22918 
249 ,51.9187 ,1.36316 ,0.72992 ,7.16202 
250 ,52.1266 ,1.36523 ,0.71281 ,6.99413 
251 ,52.3347 ,1.36735 ,0.69228 ,6.79266 
252 ,52.5267 ,1.36921 ,0.69913 ,6.85982 
253 ,52.7350 ,1.37128 ,0.67175 ,6.59119 
254 ,52.9270 ,1.37324 ,0.67175 ,6.59119 
255 ,53.1513 ,1.37545 ,0.64437 ,6.32256 
256 ,53.3588 ,1.37757 ,0.64437 ,6.32256 
257 ,53.5673 ,1.37958 ,0.62042 ,6.08752 
258 ,53.7595 ,1.38153 ,0.61015 ,5.98678 
259 ,53.9675 ,1.38359 ,0.58962 ,5.78531 
260 ,54.1757 ,1.38568 ,0.58277 ,5.71815 
261 ,54.3832 ,1.38781 ,0.57251 ,5.61742 
262 ,54.5917 ,1.38985 ,0.55197 ,5.41595 
263 ,54.7999 ,1.39197 ,0.56224 ,5.51668 
264 ,55.0239 ,1.39412 ,0.54513 ,5.34879 
265 ,55.2321 ,1.39619 ,0.51433 ,5.04659 
266 ,55.4402 ,1.39834 ,0.51775 ,5.08017 
267 ,55.6480 ,1.40041 ,0.49037 ,4.81154 
268 ,55.8563 ,1.40247 ,0.48695 ,4.77796 
269 ,56.0644 ,1.40457 ,0.47326 ,4.64365 
270 ,56.2725 ,1.40666 ,0.45273 ,4.44218 
271 ,56.4805 ,1.40873 ,0.45615 ,4.47576 
272 ,56.6882 ,1.41083 ,0.41509 ,4.07282 
273 ,56.8808 ,1.41277 ,0.42193 ,4.13997 
274 ,57.0886 ,1.41476 ,0.39113 ,3.83777 
275 ,57.2968 ,1.41701 ,0.38086 ,3.73703 
276 ,57.4887 ,1.41883 ,0.37402 ,3.66988 
277 ,57.7127 ,1.42099 ,0.36718 ,3.60272 
278 ,57.9212 ,1.42319 ,0.36718 ,3.60272 
279 ,58.1292 ,1.42527 ,0.32611 ,3.19978 
280 ,58.3539 ,1.42743 ,0.33980 ,3.33410 
281 ,58.5614 ,1.42951 ,0.32611 ,3.19978 
282 ,58.7536 ,1.43149 ,0.31584 ,3.09905 
283 ,58.9776 ,1.43375 ,0.30900 ,3.03189 
284 ,59.2016 ,1.43590 ,0.27478 ,2.69611 
285 ,59.3936 ,1.43792 ,0.27135 ,2.66253 
286 ,59.6017 ,1.43990 ,0.25424 ,2.49464 
287 ,59.8258 ,1.44213 ,0.23371 ,2.29317 
288 ,60.0340 ,1.44419 ,0.25424 ,2.49464 
289 ,60.2422 ,1.44638 ,0.23029 ,2.25959 
290 ,60.4502 ,1.44839 ,0.22002 ,2.15885 
291 ,60.6583 ,1.45050 ,0.21318 ,2.09170 
292 ,60.8822 ,1.45273 ,0.18238 ,1.78949 
293 ,61.0742 ,1.45482 ,0.16185 ,1.58802 
294 ,61.2826 ,1.45673 ,0.17896 ,1.75592 
295 ,61.5064 ,1.45896 ,0.14131 ,1.38655 
296 ,61.7147 ,1.46105 ,0.14816 ,1.45371 
297 ,61.9549 ,1.46342 ,0.13789 ,1.35298 
298 ,62.1624 ,1.46565 ,0.12420 ,1.21866 
299 ,62.3550 ,1.46747 ,0.10709 ,1.05077 
300 ,62.5631 ,1.46954 ,0.08314 ,0.81572 
301 ,62.7872 ,1.47184 ,0.05918 ,0.58067 
302 ,62.9953 ,1.47382 ,0.08314 ,0.81572 
303 ,63.2029 ,1.47602 ,0.06945 ,0.68141 
304 ,63.4112 ,1.47805 ,0.04549 ,0.44636 
305 ,63.6194 ,1.48009 ,0.04891 ,0.47994 
306 ,63.8276 ,1.48219 ,0.01811 ,0.17773 
307 ,64.0518 ,1.48445 ,0.02154 ,0.21131 
308 ,64.2756 ,1.48663 ,0.01811 ,0.17773 
309 ,64.4838 ,1.48876 ,-0.02295 ,-0.22520 
310 ,64.6919 ,1.49085 ,-0.02637 ,-0.25878 
311 ,64.8999 ,1.49296 ,-0.03664 ,-0.35952 
312 ,65.0921 ,1.49487 ,-0.03664 ,-0.35952 
313 ,65.3163 ,1.49707 ,-0.04006 ,-0.39310 
314 ,65.5244 ,1.49911 ,-0.07086 ,-0.69530 
315 ,65.7325 ,1.50125 ,-0.07086 ,-0.69530 
316 ,65.9245 ,1.50316 ,-0.10508 ,-1.03108 
317 ,66.1327 ,1.50523 ,-0.09140 ,-0.89677 
318 ,66.3407 ,1.50730 ,-0.11193 ,-1.09824 
319 ,66.5484 ,1.50934 ,-0.10851 ,-1.06466 
320 ,66.7406 ,1.51137 ,-0.13246 ,-1.29971 
321 ,66.9489 ,1.51335 ,-0.13246 ,-1.29971 
322 ,67.1731 ,1.51561 ,-0.13931 ,-1.36687 
323 ,67.3811 ,1.51765 ,-0.18379 ,-1.80338 
324 ,67.5890 ,1.51978 ,-0.17011 ,-1.66907 
325 ,67.8133 ,1.52198 ,-0.17011 ,-1.66907 
326 ,68.0212 ,1.52415 ,-0.20775 ,-2.03843 
327 ,68.2294 ,1.52619 ,-0.19064 ,-1.87054 
328 ,68.4372 ,1.52820 ,-0.21459 ,-2.10559 
329 ,68.6453 ,1.53038 ,-0.23170 ,-2.27348 
330 ,68.8696 ,1.53256 ,-0.22144 ,-2.17275 
331 ,69.1098 ,1.53488 ,-0.23513 ,-2.30706 
332 ,69.3018 ,1.53695 ,-0.27277 ,-2.67642 
333 ,69.5099 ,1.53900 ,-0.26250 ,-2.57569 
334 ,69.7179 ,1.54106 ,-0.28304 ,-2.77716 
335 ,69.9259 ,1.54307 ,-0.28988 ,-2.84431 
336 ,70.1181 ,1.54508 ,-0.29673 ,-2.91147 
337 ,70.3260 ,1.54711 ,-0.30015 ,-2.94505 
338 ,70.5183 ,1.54911 ,-0.31041 ,-3.04578 
339 ,70.7264 ,1.55113 ,-0.32410 ,-3.18010 
340 ,70.9340 ,1.55329 ,-0.33095 ,-3.24725 
341 ,71.1425 ,1.55530 ,-0.35148 ,-3.44872 
342 ,71.3510 ,1.55746 ,-0.34121 ,-3.34799 
343 ,71.5587 ,1.55947 ,-0.37544 ,-3.68377 
344 ,71.7666 ,1.56152 ,-0.36859 ,-3.61661 
345 ,71.9584 ,1.56355 ,-0.38570 ,-3.78450 
346 ,72.1828 ,1.56571 ,-0.40623 ,-3.98597 
347 ,72.3910 ,1.56785 ,-0.39939 ,-3.91882 
348 ,72.5991 ,1.56985 ,-0.43019 ,-4.22102 
349 ,72.8230 ,1.57213 ,-0.43703 ,-4.28818 
350 ,73.0312 ,1.57416 ,-0.43019 ,-4.22102 
351 ,73.2553 ,1.57632 ,-0.45072 ,-4.42249 
352 ,73.4631 ,1.57847 ,-0.46783 ,-4.59038 
353 ,73.6713 ,1.58059 ,-0.46099 ,-4.52323 
354 ,73.8797 ,1.58261 ,-0.49521 ,-4.85901 
355 ,74.0713 ,1.58470 ,-0.47810 ,-4.69112 
356 ,74.2632 ,1.58651 ,-0.51232 ,-5.02690 
357 ,74.4716 ,1.58858 ,-0.50548 ,-4.95975 
358 ,74.6799 ,1.59070 ,-0.52943 ,-5.19479 
359 ,74.8878 ,1.59276 ,-0.52943 ,-5.19479 
360 ,75.0801 ,1.59465 ,-0.55681 ,-5.46342 
361 ,75.3038 ,1.59687 ,-0.56708 ,-5.56415 
362 ,75.5123 ,1.59894 ,-0.54654 ,-5.36268 
363 ,75.7362 ,1.60120 ,-0.58077 ,-5.69847 
364 ,75.9444 ,1.60330 ,-0.59445 ,-5.83278 
365 ,76.1527 ,1.60540 ,-0.59103 ,-5.79920 
366 ,76.3606 ,1.60745 ,-0.61156 ,-6.00067 
367 ,76.5686 ,1.60951 ,-0.59445 ,-5.83278 
368 ,76.7766 ,1.61166 ,-0.61841 ,-6.06783 
369 ,76.9849 ,1.61367 ,-0.62868 ,-6.16856 
370 ,77.1930 ,1.61582 ,-0.62868 ,-6.16856 
371 ,77.4010 ,1.61783 ,-0.65263 ,-6.40361 
372 ,77.6249 ,1.62009 ,-0.65263 ,-6.40361 
373 ,77.8332 ,1.62220 ,-0.66290 ,-6.50435 
374 ,78.0414 ,1.62423 ,-0.69370 ,-6.80655 
375 ,78.2495 ,1.62636 ,-0.68001 ,-6.67224 
376 ,78.4732 ,1.62857 ,-0.70739 ,-6.94086 
377 ,78.6650 ,1.63055 ,-0.70396 ,-6.90729 
378 ,78.8581 ,1.63243 ,-0.72792 ,-7.14233 
379 ,79.0815 ,1.63465 ,-0.72792 ,-7.14233 
380 ,79.2899 ,1.63678 ,-0.73134 ,-7.17591 
381 ,79.5140 ,1.63893 ,-0.75872 ,-7.44454 
382 ,79.7377 ,1.64118 ,-0.76556 ,-7.51170 
383 ,79.9460 ,1.64328 ,-0.75872 ,-7.44454 
384 ,80.1542 ,1.64545 ,-0.76556 ,-7.51170 
385 ,80.3464 ,1.64734 ,-0.77583 ,-7.61243 
386 ,80.5543 ,1.64941 ,-0.79636 ,-7.81390 
387 ,80.7626 ,1.65147 ,-0.82032 ,-8.04895 
388 ,80.9866 ,1.65374 ,-0.79636 ,-7.81390 
389 ,81.1947 ,1.65581 ,-0.82032 ,-8.04895 
390 ,81.4185 ,1.65797 ,-0.84427 ,-8.28400 
391 ,81.6267 ,1.66007 ,-0.84427 ,-8.28400 
392 ,81.8350 ,1.66223 ,-0.85796 ,-8.41831 
393 ,82.0430 ,1.66430 ,-0.86481 ,-8.48547 
394 ,82.2512 ,1.66632 ,-0.86481 ,-8.48547 
395 ,82.4592 ,1.66838 ,-0.87849 ,-8.61978 
396 ,82.6673 ,1.67045 ,-0.87849 ,-8.61978 
397 ,82.8754 ,1.67257 ,-0.90245 ,-8.85483 
398 ,83.0835 ,1.67462 ,-0.90245 ,-8.85483 
399 ,83.2755 ,1.67663 ,-0.93667 ,-9.19061 
400 ,83.4832 ,1.67862 ,-0.91956 ,-9.02272 
401 ,83.6755 ,1.68062 ,-0.94351 ,-9.25777 
402 ,83.8836 ,1.68266 ,-0.94351 ,-9.25777 
403 ,84.0915 ,1.68483 ,-0.95036 ,-9.32492 
404 ,84.3000 ,1.68681 ,-0.95378 ,-9.35850 
405 ,84.5241 ,1.68906 ,-0.96405 ,-9.45924 
406 ,84.7481 ,1.69125 ,-0.97774 ,-9.59355 
407 ,84.9719 ,1.69358 ,-0.99143 ,-9.72786 
408 ,85.1799 ,1.69556 ,-1.00854 ,-9.89576 
409 ,85.3884 ,1.69772 ,-0.98800 ,-9.69429 
410 ,85.6124 ,1.69992 ,-1.01880 ,-9.99649 
411 ,85.8204 ,1.70202 ,-1.02222 ,-10.03007 
412 ,86.0286 ,1.70410 ,-1.02565 ,-10.06365 
413 ,86.2368 ,1.70616 ,-1.04960 ,-10.29869 
414 ,86.4609 ,1.70845 ,-1.04618 ,-10.26512 
415 ,86.6690 ,1.71056 ,-1.05302 ,-10.33227 
416 ,86.8771 ,1.71260 ,-1.07014 ,-10.50016 
417 ,87.1012 ,1.71479 ,-1.08725 ,-10.66806 
418 ,87.3250 ,1.71703 ,-1.07698 ,-10.56732 
419 ,87.5332 ,1.71914 ,-1.11805 ,-10.97026 
420 ,87.7415 ,1.72127 ,-1.10436 ,-10.83595 
421 ,87.9650 ,1.72344 ,-1.09751 ,-10.76879 
422 ,88.1570 ,1.72553 ,-1.12147 ,-11.00384 
423 ,88.3492 ,1.72744 ,-1.11805 ,-10.97026 
424 ,88.5414 ,1.72923 ,-1.12147 ,-11.00384 
425 ,88.7655 ,1.73143 ,-1.12147 ,-11.00384 
426 ,88.9415 ,1.73337 ,-1.16938 ,-11.47394 
427 ,89.1335 ,1.73516 ,-1.15911 ,-11.37320 
428 ,89.3419 ,1.73719 ,-1.15911 ,-11.37320 
429 ,89.5502 ,1.73939 ,-1.17622 ,-11.54109 
430 ,89.7421 ,1.74128 ,-1.17280 ,-11.50751 
431 ,89.9661 ,1.74341 ,-1.18649 ,-11.64183 
432 ,90.1744 ,1.74553 ,-1.21729 ,-11.94403 
433 ,90.3825 ,1.74767 ,-1.20018 ,-11.77614 
434 ,90.5904 ,1.74974 ,-1.22755 ,-12.04477 
435 ,90.7821 ,1.75171 ,-1.22755 ,-12.04477 
436 ,90.9746 ,1.75361 ,-1.24467 ,-12.21266 
437 ,91.1667 ,1.75552 ,-1.24467 ,-12.21266 
438 ,91.3749 ,1.75758 ,-1.26520 ,-12.41413 
439 ,91.5829 ,1.75969 ,-1.25835 ,-12.34697 
440 ,91.7909 ,1.76169 ,-1.26862 ,-12.44771 
441 ,92.0312 ,1.76401 ,-1.27889 ,-12.54844 
442 ,92.2394 ,1.76627 ,-1.28573 ,-12.61560 
443 ,92.4633 ,1.76839 ,-1.28231 ,-12.58202 
444 ,92.6555 ,1.77035 ,-1.31311 ,-12.88422 
445 ,92.8796 ,1.77258 ,-1.29258 ,-12.68275 
446 ,93.0715 ,1.77463 ,-1.31995 ,-12.95138 
447 ,93.2797 ,1.77653 ,-1.31995 ,-12.95138 
448 ,93.4877 ,1.77868 ,-1.33022 ,-13.05212 
449 ,93.6956 ,1.78074 ,-1.34733 ,-13.22001 
450 ,93.8878 ,1.78266 ,-1.33022 ,-13.05212 
451 ,94.0795 ,1.78465 ,-1.34391 ,-13.18643 
452 ,94.2880 ,1.78663 ,-1.36102 ,-13.35432 
453 ,94.4801 ,1.78863 ,-1.37129 ,-13.45506 
454 ,94.6883 ,1.79065 ,-1.38497 ,-13.58937 
455 ,94.8962 ,1.79274 ,-1.39524 ,-13.69010 
456 ,95.1043 ,1.79483 ,-1.39182 ,-13.65653 
457 ,95.3286 ,1.79696 ,-1.41235 ,-13.85799 
458 ,95.5685 ,1.79934 ,-1.42262 ,-13.95873 
459 ,95.7608 ,1.80144 ,-1.41235 ,-13.85799 
460 ,95.9687 ,1.80346 ,-1.43631 ,-14.09304 
