Data stamp = , 16-05-2022 16:59:39 562

Calibration Values: 
Slope = , 26.54 , g/V 
Offset Voltage at no contact = , -0.501760 , V 

No , Time , Stage Position ,   Mass , Force 
   ,  (s) ,      (mm)      ,   (g)  , (mN)  

1 ,0.0000 ,0.84952 ,5.25745 ,51.58611 
2 ,0.3358 ,0.84978 ,5.27114 ,51.72043 
3 ,0.9762 ,0.85270 ,5.26430 ,51.65327 
4 ,1.2002 ,0.85624 ,5.27114 ,51.72043 
5 ,1.4089 ,0.85827 ,5.26772 ,51.68685 
6 ,1.6169 ,0.86044 ,5.25745 ,51.58611 
7 ,1.8250 ,0.86257 ,5.22665 ,51.28391 
8 ,2.0328 ,0.86459 ,5.20954 ,51.11602 
9 ,2.2408 ,0.86669 ,5.18901 ,50.91455 
10 ,2.4653 ,0.86886 ,5.16505 ,50.67950 
11 ,2.7053 ,0.87118 ,5.14794 ,50.51161 
12 ,2.8974 ,0.87324 ,5.13083 ,50.34372 
13 ,3.1053 ,0.87534 ,5.08634 ,49.90720 
14 ,3.3134 ,0.87735 ,5.09319 ,49.97436 
15 ,3.5215 ,0.87946 ,5.05554 ,49.60499 
16 ,3.7298 ,0.88159 ,5.03501 ,49.40352 
17 ,3.9378 ,0.88363 ,5.02474 ,49.30279 
18 ,4.1299 ,0.88560 ,4.99394 ,49.00058 
19 ,4.3219 ,0.88764 ,4.97341 ,48.79911 
20 ,4.5296 ,0.88950 ,4.94603 ,48.53049 
21 ,4.7219 ,0.89148 ,4.94946 ,48.56407 
22 ,4.9302 ,0.89353 ,4.91523 ,48.22828 
23 ,5.1381 ,0.89554 ,4.90155 ,48.09397 
24 ,5.3464 ,0.89769 ,4.86048 ,47.69103 
25 ,5.5388 ,0.89960 ,4.84337 ,47.52314 
26 ,5.7627 ,0.90191 ,4.81941 ,47.28809 
27 ,5.9868 ,0.90414 ,4.79888 ,47.08662 
28 ,6.1788 ,0.90610 ,4.79888 ,47.08662 
29 ,6.3709 ,0.90806 ,4.74755 ,46.58295 
30 ,6.5627 ,0.90986 ,4.74413 ,46.54937 
31 ,6.7546 ,0.91176 ,4.73386 ,46.44863 
32 ,6.9471 ,0.91380 ,4.69622 ,46.07927 
33 ,7.1709 ,0.91590 ,4.68253 ,45.94496 
34 ,7.3632 ,0.91790 ,4.65857 ,45.70991 
35 ,7.5552 ,0.91976 ,4.65515 ,45.67633 
36 ,7.7474 ,0.92173 ,4.61751 ,45.30697 
37 ,7.9710 ,0.92393 ,4.59355 ,45.07192 
38 ,8.1635 ,0.92587 ,4.59013 ,45.03835 
39 ,8.3717 ,0.92789 ,4.55591 ,44.70256 
40 ,8.5638 ,0.92992 ,4.54222 ,44.56825 
41 ,8.7879 ,0.93211 ,4.50800 ,44.23247 
42 ,8.9796 ,0.93403 ,4.51826 ,44.33320 
43 ,9.1719 ,0.93595 ,4.48062 ,43.96384 
44 ,9.3799 ,0.93801 ,4.47378 ,43.89668 
45 ,9.5723 ,0.93999 ,4.44298 ,43.59448 
46 ,9.7804 ,0.94203 ,4.43613 ,43.52732 
47 ,9.9885 ,0.94413 ,4.39164 ,43.09080 
48 ,10.2127 ,0.94622 ,4.39507 ,43.12438 
49 ,10.4206 ,0.94843 ,4.37795 ,42.95649 
50 ,10.6288 ,0.95052 ,4.31978 ,42.38566 
51 ,10.8527 ,0.95272 ,4.31636 ,42.35208 
52 ,11.0607 ,0.95484 ,4.30951 ,42.28492 
53 ,11.2688 ,0.95694 ,4.27187 ,41.91556 
54 ,11.4771 ,0.95897 ,4.27187 ,41.91556 
55 ,11.6849 ,0.96113 ,4.24107 ,41.61336 
56 ,11.8772 ,0.96299 ,4.23765 ,41.57978 
57 ,12.0851 ,0.96500 ,4.20000 ,41.21042 
58 ,12.2770 ,0.96703 ,4.20342 ,41.24400 
59 ,12.4856 ,0.96904 ,4.16236 ,40.84106 
60 ,12.7097 ,0.97123 ,4.13498 ,40.57243 
61 ,12.9173 ,0.97334 ,4.13840 ,40.60601 
62 ,13.1099 ,0.97535 ,4.10760 ,40.30380 
63 ,13.3179 ,0.97738 ,4.08707 ,40.10233 
64 ,13.5259 ,0.97951 ,4.06654 ,39.90087 
65 ,13.7660 ,0.98190 ,4.02889 ,39.53150 
66 ,13.9740 ,0.98391 ,4.02547 ,39.49793 
67 ,14.1663 ,0.98591 ,4.00152 ,39.26288 
68 ,14.3742 ,0.98800 ,3.97414 ,38.99425 
69 ,14.5821 ,0.99002 ,3.96729 ,38.92709 
70 ,14.7901 ,0.99209 ,3.93650 ,38.62489 
71 ,14.9981 ,0.99432 ,3.91596 ,38.42342 
72 ,15.2061 ,0.99622 ,3.89543 ,38.22195 
73 ,15.4143 ,0.99834 ,3.89543 ,38.22195 
74 ,15.6224 ,1.00044 ,3.86805 ,37.95332 
75 ,15.8307 ,1.00248 ,3.84067 ,37.68470 
76 ,16.0226 ,1.00464 ,3.85094 ,37.78543 
77 ,16.2312 ,1.00647 ,3.78934 ,37.18102 
78 ,16.4392 ,1.00860 ,3.79961 ,37.28176 
79 ,16.6313 ,1.01055 ,3.75854 ,36.87882 
80 ,16.8393 ,1.01259 ,3.74828 ,36.77808 
81 ,17.0311 ,1.01458 ,3.73459 ,36.64377 
82 ,17.2235 ,1.01646 ,3.71748 ,36.47588 
83 ,17.4316 ,1.01848 ,3.68668 ,36.17367 
84 ,17.6077 ,1.02043 ,3.68668 ,36.17367 
85 ,17.8156 ,1.02234 ,3.65930 ,35.90505 
86 ,18.0238 ,1.02446 ,3.63877 ,35.70358 
87 ,18.2318 ,1.02656 ,3.61139 ,35.43495 
88 ,18.4400 ,1.02858 ,3.59770 ,35.30064 
89 ,18.6319 ,1.03055 ,3.57375 ,35.06559 
90 ,18.8402 ,1.03265 ,3.56348 ,34.96485 
91 ,19.0642 ,1.03476 ,3.50872 ,34.42760 
92 ,19.2722 ,1.03695 ,3.51215 ,34.46118 
93 ,19.4805 ,1.03900 ,3.49846 ,34.32687 
94 ,19.7045 ,1.04119 ,3.46766 ,34.02466 
95 ,19.8967 ,1.04316 ,3.46081 ,33.95751 
96 ,20.0882 ,1.04521 ,3.43686 ,33.72246 
97 ,20.2803 ,1.04705 ,3.43344 ,33.68888 
98 ,20.4884 ,1.04903 ,3.38553 ,33.21878 
99 ,20.6806 ,1.05101 ,3.38895 ,33.25236 
100 ,20.8726 ,1.05294 ,3.34788 ,32.84942 
101 ,21.0810 ,1.05498 ,3.35473 ,32.91658 
102 ,21.3054 ,1.05721 ,3.31708 ,32.54722 
103 ,21.5132 ,1.05932 ,3.30339 ,32.41290 
104 ,21.7212 ,1.06142 ,3.29313 ,32.31217 
105 ,21.9295 ,1.06349 ,3.24864 ,31.87565 
106 ,22.1373 ,1.06558 ,3.25206 ,31.90923 
107 ,22.3292 ,1.06747 ,3.22126 ,31.60702 
108 ,22.5218 ,1.06941 ,3.20073 ,31.40555 
109 ,22.7298 ,1.07145 ,3.18020 ,31.20409 
110 ,22.9379 ,1.07355 ,3.18020 ,31.20409 
111 ,23.1300 ,1.07550 ,3.14255 ,30.83472 
112 ,23.3220 ,1.07743 ,3.13913 ,30.80115 
113 ,23.5300 ,1.07945 ,3.11175 ,30.53252 
114 ,23.7381 ,1.08156 ,3.10149 ,30.43178 
115 ,23.9303 ,1.08347 ,3.08095 ,30.23031 
116 ,24.1223 ,1.08544 ,3.07411 ,30.16316 
117 ,24.3464 ,1.08764 ,3.03304 ,29.76022 
118 ,24.5540 ,1.08974 ,3.01593 ,29.59233 
119 ,24.7465 ,1.09164 ,2.99882 ,29.42444 
120 ,24.9545 ,1.09372 ,2.99198 ,29.35728 
121 ,25.1307 ,1.09560 ,2.96118 ,29.05507 
122 ,25.3226 ,1.09739 ,2.96802 ,29.12223 
123 ,25.5149 ,1.09932 ,2.94064 ,28.85360 
124 ,25.7389 ,1.10152 ,2.93038 ,28.75287 
125 ,25.9311 ,1.10349 ,2.88931 ,28.34993 
126 ,26.1392 ,1.10545 ,2.89273 ,28.38351 
127 ,26.3627 ,1.10773 ,2.87905 ,28.24919 
128 ,26.5552 ,1.10972 ,2.85167 ,27.98057 
129 ,26.7470 ,1.11166 ,2.82771 ,27.74552 
130 ,26.9555 ,1.11366 ,2.81745 ,27.64479 
131 ,27.1795 ,1.11593 ,2.80718 ,27.54405 
132 ,27.3718 ,1.11793 ,2.77296 ,27.20827 
133 ,27.5797 ,1.11994 ,2.77296 ,27.20827 
134 ,27.7877 ,1.12206 ,2.72847 ,26.77175 
135 ,27.9957 ,1.12411 ,2.73189 ,26.80533 
136 ,28.2200 ,1.12630 ,2.69425 ,26.43597 
137 ,28.4281 ,1.12845 ,2.68056 ,26.30165 
138 ,28.6202 ,1.13036 ,2.68740 ,26.36881 
139 ,28.8281 ,1.13239 ,2.64292 ,25.93229 
140 ,29.0038 ,1.13434 ,2.64292 ,25.93229 
141 ,29.1963 ,1.13612 ,2.61212 ,25.63009 
142 ,29.4042 ,1.13825 ,2.59843 ,25.49577 
143 ,29.5966 ,1.14013 ,2.58132 ,25.32788 
144 ,29.8047 ,1.14218 ,2.56421 ,25.15999 
145 ,30.0123 ,1.14428 ,2.53341 ,24.85779 
146 ,30.2208 ,1.14637 ,2.54367 ,24.95852 
147 ,30.4286 ,1.14845 ,2.50603 ,24.58916 
148 ,30.6211 ,1.15036 ,2.50261 ,24.55558 
149 ,30.8129 ,1.15229 ,2.46839 ,24.21980 
150 ,31.0212 ,1.15431 ,2.47523 ,24.28696 
151 ,31.2291 ,1.15638 ,2.43074 ,23.85044 
152 ,31.4212 ,1.15839 ,2.43759 ,23.91759 
153 ,31.6134 ,1.16030 ,2.39652 ,23.51465 
154 ,31.8374 ,1.16256 ,2.39310 ,23.48108 
155 ,32.0296 ,1.16447 ,2.36914 ,23.24603 
156 ,32.2374 ,1.16651 ,2.34519 ,23.01098 
157 ,32.4616 ,1.16874 ,2.33834 ,22.94382 
158 ,32.6694 ,1.17090 ,2.30070 ,22.57446 
159 ,32.8774 ,1.17291 ,2.30754 ,22.64162 
160 ,33.0693 ,1.17494 ,2.27332 ,22.30584 
161 ,33.2620 ,1.17677 ,2.26990 ,22.27226 
162 ,33.4701 ,1.17893 ,2.23568 ,21.93647 
163 ,33.6621 ,1.18077 ,2.24252 ,22.00363 
164 ,33.8542 ,1.18268 ,2.20830 ,21.66785 
165 ,34.0782 ,1.18492 ,2.20146 ,21.60069 
166 ,34.2863 ,1.18698 ,2.16723 ,21.26491 
167 ,34.4781 ,1.18894 ,2.16039 ,21.19775 
168 ,34.6867 ,1.19104 ,2.14670 ,21.06344 
169 ,34.9108 ,1.19323 ,2.09879 ,20.59334 
170 ,35.1028 ,1.19521 ,2.11590 ,20.76123 
171 ,35.3109 ,1.19722 ,2.07826 ,20.39187 
172 ,35.5190 ,1.19942 ,2.07826 ,20.39187 
173 ,35.7589 ,1.20152 ,2.04061 ,20.02251 
174 ,35.9674 ,1.20385 ,2.02350 ,19.85462 
175 ,36.1751 ,1.20588 ,2.00639 ,19.68673 
176 ,36.3672 ,1.20780 ,2.00297 ,19.65315 
177 ,36.5753 ,1.20989 ,1.97559 ,19.38452 
178 ,36.7669 ,1.21190 ,1.95848 ,19.21663 
179 ,36.9596 ,1.21378 ,1.94479 ,19.08232 
180 ,37.1673 ,1.21582 ,1.90715 ,18.71296 
181 ,37.3757 ,1.21783 ,1.89346 ,18.57864 
182 ,37.5836 ,1.21997 ,1.88319 ,18.47791 
183 ,37.7915 ,1.22204 ,1.83871 ,18.04139 
184 ,37.9997 ,1.22413 ,1.85240 ,18.17570 
185 ,38.2081 ,1.22621 ,1.82502 ,17.90708 
186 ,38.4321 ,1.22843 ,1.80106 ,17.67203 
187 ,38.6242 ,1.23040 ,1.79422 ,17.60487 
188 ,38.8323 ,1.23241 ,1.76684 ,17.33625 
189 ,39.0403 ,1.23454 ,1.75657 ,17.23551 
190 ,39.2485 ,1.23658 ,1.72920 ,16.96689 
191 ,39.4722 ,1.23878 ,1.69840 ,16.66468 
192 ,39.6646 ,1.24083 ,1.71551 ,16.83257 
193 ,39.8724 ,1.24287 ,1.67444 ,16.42963 
194 ,40.0804 ,1.24493 ,1.67786 ,16.46321 
195 ,40.2730 ,1.24688 ,1.64364 ,16.12743 
196 ,40.4810 ,1.24895 ,1.62995 ,15.99311 
197 ,40.6890 ,1.25096 ,1.61284 ,15.82522 
198 ,40.8972 ,1.25303 ,1.59916 ,15.69091 
199 ,41.1051 ,1.25512 ,1.58547 ,15.55660 
200 ,41.3292 ,1.25739 ,1.55124 ,15.22081 
201 ,41.5374 ,1.25952 ,1.53413 ,15.05292 
202 ,41.7295 ,1.26146 ,1.54098 ,15.12008 
203 ,41.9215 ,1.26345 ,1.50333 ,14.75072 
204 ,42.1295 ,1.26542 ,1.50333 ,14.75072 
205 ,42.3214 ,1.26740 ,1.48622 ,14.58283 
206 ,42.5136 ,1.26924 ,1.45885 ,14.31420 
207 ,42.7219 ,1.27129 ,1.45885 ,14.31420 
208 ,42.9298 ,1.27345 ,1.43489 ,14.07915 
209 ,43.1540 ,1.27562 ,1.41094 ,13.84410 
210 ,43.3619 ,1.27766 ,1.38356 ,13.57548 
211 ,43.5702 ,1.27985 ,1.37329 ,13.47474 
212 ,43.7944 ,1.28205 ,1.36303 ,13.37401 
213 ,44.0022 ,1.28406 ,1.34591 ,13.20612 
214 ,44.1942 ,1.28609 ,1.32880 ,13.03822 
215 ,44.4026 ,1.28814 ,1.32196 ,12.97107 
216 ,44.6264 ,1.29029 ,1.29800 ,12.73602 
217 ,44.8507 ,1.29253 ,1.28432 ,12.60171 
218 ,45.0588 ,1.29467 ,1.25009 ,12.26592 
219 ,45.2507 ,1.29664 ,1.25352 ,12.29950 
220 ,45.4429 ,1.29855 ,1.23298 ,12.09803 
221 ,45.6506 ,1.30055 ,1.21587 ,11.93014 
222 ,45.8752 ,1.30273 ,1.18850 ,11.66151 
223 ,46.0831 ,1.30498 ,1.16796 ,11.46004 
224 ,46.2753 ,1.30683 ,1.16454 ,11.42647 
225 ,46.4674 ,1.30880 ,1.15427 ,11.32573 
226 ,46.6915 ,1.31095 ,1.13032 ,11.09068 
227 ,46.8994 ,1.31308 ,1.09952 ,10.78848 
228 ,47.1076 ,1.31518 ,1.09267 ,10.72132 
229 ,47.3158 ,1.31721 ,1.07899 ,10.58701 
230 ,47.5239 ,1.31932 ,1.05503 ,10.35196 
231 ,47.7477 ,1.32142 ,1.06530 ,10.45270 
232 ,47.9559 ,1.32365 ,1.02423 ,10.04976 
233 ,48.1642 ,1.32573 ,0.99685 ,9.78113 
234 ,48.3723 ,1.32780 ,0.99685 ,9.78113 
235 ,48.5802 ,1.32986 ,0.96263 ,9.44535 
236 ,48.7721 ,1.33181 ,0.97632 ,9.57966 
237 ,48.9641 ,1.33379 ,0.95237 ,9.34461 
238 ,49.1725 ,1.33581 ,0.95921 ,9.41177 
239 ,49.3965 ,1.33799 ,0.91814 ,9.00883 
240 ,49.6046 ,1.34006 ,0.89077 ,8.74020 
241 ,49.8125 ,1.34223 ,0.89419 ,8.77378 
242 ,50.0209 ,1.34425 ,0.85654 ,8.40442 
243 ,50.2287 ,1.34633 ,0.87023 ,8.53873 
244 ,50.4371 ,1.34846 ,0.84628 ,8.30368 
245 ,50.6451 ,1.35054 ,0.81890 ,8.03506 
246 ,50.8530 ,1.35264 ,0.81548 ,8.00148 
247 ,51.0611 ,1.35467 ,0.79152 ,7.76643 
248 ,51.2694 ,1.35672 ,0.77441 ,7.59854 
249 ,51.4771 ,1.35888 ,0.77784 ,7.63212 
250 ,51.6693 ,1.36077 ,0.73677 ,7.22918 
251 ,51.8776 ,1.36283 ,0.72992 ,7.16202 
252 ,52.0697 ,1.36481 ,0.71624 ,7.02771 
253 ,52.2933 ,1.36700 ,0.69913 ,6.85982 
254 ,52.5019 ,1.36904 ,0.68201 ,6.69193 
255 ,52.7099 ,1.37117 ,0.66148 ,6.49046 
256 ,52.9020 ,1.37308 ,0.66148 ,6.49046 
257 ,53.0940 ,1.37506 ,0.66148 ,6.49046 
258 ,53.3023 ,1.37706 ,0.62384 ,6.12109 
259 ,53.5100 ,1.37912 ,0.61699 ,6.05394 
260 ,53.7183 ,1.38115 ,0.60330 ,5.91962 
261 ,53.9585 ,1.38353 ,0.57251 ,5.61742 
262 ,54.1826 ,1.38586 ,0.56566 ,5.55026 
263 ,54.3906 ,1.38796 ,0.54171 ,5.31522 
264 ,54.5665 ,1.38990 ,0.55197 ,5.41595 
265 ,54.7588 ,1.39169 ,0.54855 ,5.38237 
266 ,54.9510 ,1.39361 ,0.51433 ,5.04659 
267 ,55.1745 ,1.39576 ,0.51775 ,5.08017 
268 ,55.3670 ,1.39775 ,0.47668 ,4.67723 
269 ,55.5589 ,1.39969 ,0.50748 ,4.97943 
270 ,55.7991 ,1.40192 ,0.46642 ,4.57649 
271 ,56.0072 ,1.40414 ,0.44931 ,4.40860 
272 ,56.1996 ,1.40610 ,0.45273 ,4.44218 
273 ,56.4075 ,1.40809 ,0.41166 ,4.03924 
274 ,56.6157 ,1.41016 ,0.41166 ,4.03924 
275 ,56.8076 ,1.41221 ,0.38771 ,3.80419 
276 ,57.0319 ,1.41437 ,0.38086 ,3.73703 
277 ,57.2559 ,1.41647 ,0.39113 ,3.83777 
278 ,57.4639 ,1.41871 ,0.36718 ,3.60272 
279 ,57.6559 ,1.42064 ,0.33295 ,3.26694 
280 ,57.8476 ,1.42257 ,0.32269 ,3.16620 
281 ,58.0402 ,1.42444 ,0.32953 ,3.23336 
282 ,58.2322 ,1.42636 ,0.30558 ,2.99831 
283 ,58.4403 ,1.42851 ,0.29873 ,2.93116 
284 ,58.6321 ,1.43039 ,0.27135 ,2.66253 
285 ,58.8243 ,1.43228 ,0.28162 ,2.76326 
286 ,59.0324 ,1.43432 ,0.25767 ,2.52822 
287 ,59.2408 ,1.43645 ,0.26109 ,2.56179 
288 ,59.4324 ,1.43837 ,0.21318 ,2.09170 
289 ,59.6410 ,1.44047 ,0.22002 ,2.15885 
290 ,59.8490 ,1.44257 ,0.20976 ,2.05812 
291 ,60.0406 ,1.44447 ,0.20291 ,1.99096 
292 ,60.2652 ,1.44657 ,0.18580 ,1.82307 
293 ,60.4731 ,1.44880 ,0.14131 ,1.38655 
294 ,60.6652 ,1.45069 ,0.16869 ,1.65518 
295 ,60.8733 ,1.45278 ,0.13789 ,1.35298 
296 ,61.0654 ,1.45467 ,0.14131 ,1.38655 
297 ,61.2893 ,1.45689 ,0.11736 ,1.15151 
298 ,61.4972 ,1.45900 ,0.09682 ,0.95004 
299 ,61.6897 ,1.46097 ,0.10025 ,0.98361 
300 ,61.8977 ,1.46296 ,0.08314 ,0.81572 
301 ,62.0899 ,1.46496 ,0.07287 ,0.71499 
302 ,62.2975 ,1.46702 ,0.04891 ,0.47994 
303 ,62.4896 ,1.46894 ,0.04891 ,0.47994 
304 ,62.6819 ,1.47088 ,0.03865 ,0.37920 
305 ,62.8902 ,1.47298 ,0.03180 ,0.31205 
306 ,63.0821 ,1.47484 ,0.02496 ,0.24489 
307 ,63.3064 ,1.47701 ,0.00785 ,0.07700 
308 ,63.5142 ,1.47917 ,-0.01611 ,-0.15805 
309 ,63.7226 ,1.48130 ,-0.01953 ,-0.19163 
310 ,63.9305 ,1.48335 ,-0.02637 ,-0.25878 
311 ,64.1387 ,1.48545 ,-0.03664 ,-0.35952 
312 ,64.3468 ,1.48742 ,-0.04691 ,-0.46025 
313 ,64.5387 ,1.48949 ,-0.07771 ,-0.76246 
314 ,64.7310 ,1.49137 ,-0.07428 ,-0.72888 
315 ,64.9389 ,1.49346 ,-0.10508 ,-1.03108 
316 ,65.1311 ,1.49534 ,-0.09824 ,-0.96393 
317 ,65.3228 ,1.49727 ,-0.10851 ,-1.06466 
318 ,65.5149 ,1.49920 ,-0.14273 ,-1.40045 
319 ,65.7230 ,1.50117 ,-0.12562 ,-1.23255 
320 ,65.9312 ,1.50338 ,-0.14615 ,-1.43402 
321 ,66.1395 ,1.50554 ,-0.17011 ,-1.66907 
322 ,66.3315 ,1.50732 ,-0.15642 ,-1.53476 
323 ,66.5231 ,1.50927 ,-0.18037 ,-1.76981 
324 ,66.7153 ,1.51121 ,-0.19406 ,-1.90412 
325 ,66.9238 ,1.51325 ,-0.21459 ,-2.10559 
326 ,67.1316 ,1.51538 ,-0.20775 ,-2.03843 
327 ,67.3239 ,1.51724 ,-0.21802 ,-2.13917 
328 ,67.5322 ,1.51934 ,-0.22828 ,-2.23990 
329 ,67.7401 ,1.52144 ,-0.26593 ,-2.60926 
330 ,67.9321 ,1.52335 ,-0.26250 ,-2.57569 
331 ,68.1243 ,1.52527 ,-0.26593 ,-2.60926 
332 ,68.3323 ,1.52736 ,-0.27961 ,-2.74358 
333 ,68.5564 ,1.52965 ,-0.28988 ,-2.84431 
334 ,68.7482 ,1.53148 ,-0.30015 ,-2.94505 
335 ,68.9562 ,1.53358 ,-0.32410 ,-3.18010 
336 ,69.1806 ,1.53580 ,-0.33095 ,-3.24725 
337 ,69.3887 ,1.53794 ,-0.33095 ,-3.24725 
338 ,69.5965 ,1.53997 ,-0.35490 ,-3.48230 
339 ,69.7888 ,1.54188 ,-0.36175 ,-3.54946 
340 ,69.9973 ,1.54403 ,-0.37201 ,-3.65019 
341 ,70.2053 ,1.54603 ,-0.37201 ,-3.65019 
342 ,70.4131 ,1.54811 ,-0.36859 ,-3.61661 
343 ,70.6053 ,1.55014 ,-0.41650 ,-4.08671 
344 ,70.7975 ,1.55202 ,-0.40966 ,-4.01955 
345 ,71.0056 ,1.55406 ,-0.41992 ,-4.12029 
346 ,71.1971 ,1.55604 ,-0.43019 ,-4.22102 
347 ,71.3896 ,1.55789 ,-0.43703 ,-4.28818 
348 ,71.5817 ,1.55991 ,-0.45757 ,-4.48965 
349 ,71.7738 ,1.56173 ,-0.43703 ,-4.28818 
350 ,71.9818 ,1.56375 ,-0.47810 ,-4.69112 
351 ,72.1740 ,1.56579 ,-0.47468 ,-4.65754 
352 ,72.3500 ,1.56763 ,-0.47810 ,-4.69112 
353 ,72.5418 ,1.56942 ,-0.49179 ,-4.82543 
354 ,72.7341 ,1.57135 ,-0.49863 ,-4.89259 
355 ,72.9263 ,1.57326 ,-0.51232 ,-5.02690 
356 ,73.1184 ,1.57525 ,-0.51232 ,-5.02690 
357 ,73.3264 ,1.57724 ,-0.50890 ,-4.99332 
358 ,73.5344 ,1.57932 ,-0.50890 ,-4.99332 
359 ,73.7586 ,1.58148 ,-0.51232 ,-5.02690 
360 ,73.9825 ,1.58377 ,-0.51917 ,-5.09406 
361 ,74.1907 ,1.58591 ,-0.49179 ,-4.82543 
362 ,74.3986 ,1.58796 ,-0.49863 ,-4.89259 
363 ,74.5906 ,1.58993 ,-0.48494 ,-4.75828 
364 ,74.7825 ,1.59190 ,-0.50548 ,-4.95975 
365 ,74.9751 ,1.59374 ,-0.47126 ,-4.62396 
366 ,75.1827 ,1.59578 ,-0.50548 ,-4.95975 
367 ,75.3750 ,1.59771 ,-0.47468 ,-4.65754 
368 ,75.5669 ,1.59974 ,-0.51232 ,-5.02690 
369 ,75.7752 ,1.60175 ,-0.47810 ,-4.69112 
370 ,75.9994 ,1.60401 ,-0.49521 ,-4.85901 
371 ,76.1915 ,1.60605 ,-0.46783 ,-4.59038 
372 ,76.3837 ,1.60789 ,0.57935 ,5.68458 
373 ,76.5915 ,1.60987 ,0.81548 ,8.00148 
374 ,76.7995 ,1.61193 ,0.81206 ,7.96790 
375 ,77.0081 ,1.61404 ,0.81890 ,8.03506 
376 ,77.2002 ,1.61602 ,0.83943 ,8.23653 
377 ,77.3920 ,1.61803 ,0.81890 ,8.03506 
378 ,77.5998 ,1.61996 ,0.82575 ,8.10221 
379 ,77.7918 ,1.62192 ,0.82917 ,8.13579 
380 ,78.0002 ,1.62401 ,0.82575 ,8.10221 
381 ,78.2243 ,1.62621 ,0.81548 ,8.00148 
382 ,78.4164 ,1.62812 ,0.83259 ,8.16937 
383 ,78.6085 ,1.63013 ,0.78468 ,7.69927 
384 ,78.8006 ,1.63200 ,0.80179 ,7.86717 
385 ,79.0085 ,1.63412 ,0.79495 ,7.80001 
386 ,79.2490 ,1.63649 ,0.79152 ,7.76643 
387 ,79.4570 ,1.63860 ,0.79837 ,7.83359 
388 ,79.6648 ,1.64054 ,0.77099 ,7.56496 
389 ,79.8890 ,1.64284 ,0.77441 ,7.59854 
390 ,80.0812 ,1.64478 ,0.77099 ,7.56496 
391 ,80.2729 ,1.64666 ,0.77441 ,7.59854 
392 ,80.4655 ,1.64869 ,0.76757 ,7.53138 
393 ,80.6410 ,1.65051 ,0.78810 ,7.73285 
394 ,80.8330 ,1.65229 ,0.77099 ,7.56496 
395 ,81.0255 ,1.65422 ,0.74361 ,7.29633 
396 ,81.2497 ,1.65634 ,0.77441 ,7.59854 
397 ,81.4735 ,1.65861 ,0.75730 ,7.43065 
398 ,81.6658 ,1.66061 ,0.73677 ,7.22918 
399 ,81.8579 ,1.66259 ,0.76415 ,7.49780 
400 ,82.0657 ,1.66456 ,0.72650 ,7.12844 
401 ,82.2576 ,1.66657 ,0.76072 ,7.46423 
402 ,82.4661 ,1.66858 ,0.72650 ,7.12844 
403 ,82.6581 ,1.67053 ,0.74019 ,7.26276 
404 ,82.8502 ,1.67246 ,0.71624 ,7.02771 
405 ,83.0422 ,1.67440 ,0.74019 ,7.26276 
406 ,83.2505 ,1.67647 ,0.70939 ,6.96055 
407 ,83.4743 ,1.67870 ,0.71624 ,7.02771 
408 ,83.6989 ,1.68093 ,0.72650 ,7.12844 
409 ,83.9227 ,1.68314 ,0.70255 ,6.89340 
410 ,84.1309 ,1.68526 ,0.69913 ,6.85982 
411 ,84.3227 ,1.68734 ,0.71281 ,6.99413 
412 ,84.5470 ,1.68937 ,0.69228 ,6.79266 
413 ,84.7710 ,1.69162 ,0.67859 ,6.65835 
414 ,84.9792 ,1.69374 ,0.68886 ,6.75908 
415 ,85.1869 ,1.69575 ,0.66833 ,6.55761 
416 ,85.3793 ,1.69772 ,0.68201 ,6.69193 
417 ,85.5870 ,1.69983 ,0.66833 ,6.55761 
418 ,85.7953 ,1.70184 ,0.65806 ,6.45688 
419 ,86.0196 ,1.70407 ,0.67517 ,6.62477 
420 ,86.2117 ,1.70605 ,0.65121 ,6.38972 
421 ,86.4037 ,1.70807 ,0.66490 ,6.52403 
422 ,86.5957 ,1.70987 ,0.64779 ,6.35614 
423 ,86.8036 ,1.71191 ,0.64437 ,6.32256 
424 ,86.9961 ,1.71398 ,0.62042 ,6.08752 
425 ,87.1879 ,1.71578 ,0.64779 ,6.35614 
426 ,87.3962 ,1.71783 ,0.62726 ,6.15467 
427 ,87.6039 ,1.71999 ,0.64095 ,6.28899 
428 ,87.7960 ,1.72194 ,0.61357 ,6.02036 
429 ,88.0043 ,1.72394 ,0.63410 ,6.22183 
430 ,88.1965 ,1.72591 ,0.60330 ,5.91962 
431 ,88.4045 ,1.72792 ,0.63068 ,6.18825 
432 ,88.5964 ,1.72999 ,0.60673 ,5.95320 
433 ,88.7887 ,1.73182 ,0.62726 ,6.15467 
434 ,88.9806 ,1.73382 ,0.62042 ,6.08752 
435 ,89.1887 ,1.73577 ,0.63410 ,6.22183 
436 ,89.3970 ,1.73795 ,0.61357 ,6.02036 
437 ,89.6049 ,1.73993 ,0.62726 ,6.15467 
438 ,89.8450 ,1.74222 ,0.61699 ,6.05394 
439 ,90.0371 ,1.74434 ,0.64095 ,6.28899 
440 ,90.2453 ,1.74639 ,0.65806 ,6.45688 
441 ,90.4530 ,1.74840 ,0.64437 ,6.32256 
442 ,90.6455 ,1.75041 ,0.65806 ,6.45688 
443 ,90.8536 ,1.75245 ,0.66148 ,6.49046 
444 ,91.0451 ,1.75439 ,0.66148 ,6.49046 
445 ,91.3012 ,1.75681 ,0.64437 ,6.32256 
446 ,91.5253 ,1.75912 ,0.64437 ,6.32256 
447 ,91.7173 ,1.76118 ,0.64437 ,6.32256 
448 ,91.9255 ,1.76319 ,0.66148 ,6.49046 
449 ,92.1499 ,1.76545 ,0.64437 ,6.32256 
450 ,92.4219 ,1.76813 ,0.66148 ,6.49046 
451 ,92.6463 ,1.77030 ,0.65464 ,6.42330 
452 ,92.8542 ,1.77245 ,0.61357 ,6.02036 
453 ,93.0623 ,1.77455 ,0.64779 ,6.35614 
454 ,93.2860 ,1.77672 ,0.64779 ,6.35614 
455 ,93.5101 ,1.77892 ,0.62726 ,6.15467 
456 ,93.7186 ,1.78110 ,0.61699 ,6.05394 
457 ,93.9429 ,1.78333 ,0.62042 ,6.08752 
458 ,94.1509 ,1.78535 ,0.62726 ,6.15467 
459 ,94.3431 ,1.78736 ,0.61015 ,5.98678 
460 ,94.5349 ,1.78932 ,0.62726 ,6.15467 
461 ,94.7271 ,1.79121 ,0.64437 ,6.32256 
462 ,94.9193 ,1.79316 ,0.61699 ,6.05394 
463 ,95.1272 ,1.79524 ,0.63068 ,6.18825 
464 ,95.3354 ,1.79722 ,0.63068 ,6.18825 
465 ,95.5592 ,1.79944 ,0.63753 ,6.25541 
