Data stamp = , 17-05-2022 19:01:41 519

Calibration Values: 
Slope = , 26.54 , g/V 
Offset Voltage at no contact = , -0.501760 , V 

No , Time , Stage Position ,   Mass , Force 
   ,  (s) ,      (mm)      ,   (g)  , (mN)  

1 ,0.0000 ,0.84958 ,5.16163 ,50.64592 
2 ,0.3129 ,0.84981 ,5.16505 ,50.67950 
3 ,0.7613 ,0.85161 ,5.15136 ,50.54519 
4 ,0.9691 ,0.85413 ,5.15821 ,50.61234 
5 ,1.1936 ,0.85610 ,5.16848 ,50.71308 
6 ,1.4013 ,0.85831 ,5.16163 ,50.64592 
7 ,1.6097 ,0.86034 ,5.15821 ,50.61234 
8 ,1.8339 ,0.86257 ,5.14452 ,50.47803 
9 ,2.0576 ,0.86481 ,5.13425 ,50.37729 
10 ,2.2661 ,0.86698 ,5.09319 ,49.97436 
11 ,2.4903 ,0.86918 ,5.07265 ,49.77289 
12 ,2.6984 ,0.87131 ,5.05554 ,49.60499 
13 ,2.9063 ,0.87340 ,5.02474 ,49.30279 
14 ,3.1145 ,0.87541 ,5.01106 ,49.16848 
15 ,3.3225 ,0.87751 ,4.98026 ,48.86627 
16 ,3.5467 ,0.87974 ,4.95972 ,48.66480 
17 ,3.7706 ,0.88198 ,4.94603 ,48.53049 
18 ,3.9789 ,0.88405 ,4.91523 ,48.22828 
19 ,4.1870 ,0.88611 ,4.89470 ,48.02681 
20 ,4.3948 ,0.88822 ,4.87417 ,47.82534 
21 ,4.5872 ,0.89022 ,4.85021 ,47.59030 
22 ,4.7953 ,0.89218 ,4.85021 ,47.59030 
23 ,5.0030 ,0.89430 ,4.78861 ,46.98589 
24 ,5.2274 ,0.89647 ,4.79546 ,47.05304 
25 ,5.4514 ,0.89880 ,4.76808 ,46.78442 
26 ,5.6435 ,0.90073 ,4.73386 ,46.44863 
27 ,5.8515 ,0.90275 ,4.72359 ,46.34790 
28 ,6.0757 ,0.90505 ,4.71333 ,46.24716 
29 ,6.2518 ,0.90692 ,4.66884 ,45.81065 
30 ,6.4595 ,0.90892 ,4.64146 ,45.54202 
31 ,6.6680 ,0.91099 ,4.63804 ,45.50844 
32 ,6.8921 ,0.91314 ,4.61751 ,45.30697 
33 ,7.1001 ,0.91527 ,4.57986 ,44.93761 
34 ,7.2922 ,0.91721 ,4.56960 ,44.83688 
35 ,7.5003 ,0.91934 ,4.53880 ,44.53467 
36 ,7.7243 ,0.92145 ,4.50800 ,44.23247 
37 ,7.9324 ,0.92361 ,4.50115 ,44.16531 
38 ,8.1403 ,0.92562 ,4.46351 ,43.79595 
39 ,8.3487 ,0.92775 ,4.46009 ,43.76237 
40 ,8.5566 ,0.92976 ,4.43613 ,43.52732 
41 ,8.7808 ,0.93203 ,4.40191 ,43.19154 
42 ,8.9729 ,0.93402 ,4.39164 ,43.09080 
43 ,9.1810 ,0.93601 ,4.35058 ,42.68786 
44 ,9.3890 ,0.93814 ,4.35058 ,42.68786 
45 ,9.5972 ,0.94031 ,4.31636 ,42.35208 
46 ,9.7888 ,0.94222 ,4.30609 ,42.25135 
47 ,9.9814 ,0.94419 ,4.27871 ,41.98272 
48 ,10.1895 ,0.94619 ,4.27871 ,41.98272 
49 ,10.4131 ,0.94837 ,4.23765 ,41.57978 
50 ,10.6217 ,0.95044 ,4.21711 ,41.37831 
51 ,10.8137 ,0.95250 ,4.21369 ,41.34473 
52 ,11.0217 ,0.95447 ,4.17947 ,41.00895 
53 ,11.2138 ,0.95648 ,4.15894 ,40.80748 
54 ,11.4060 ,0.95831 ,4.15209 ,40.74032 
55 ,11.6140 ,0.96035 ,4.11787 ,40.40454 
56 ,11.8223 ,0.96245 ,4.11103 ,40.33738 
57 ,12.0457 ,0.96468 ,4.09734 ,40.20307 
58 ,12.2543 ,0.96686 ,4.04600 ,39.69940 
59 ,12.4783 ,0.96898 ,4.02547 ,39.49793 
60 ,12.6544 ,0.97092 ,4.01520 ,39.39719 
61 ,12.8625 ,0.97285 ,3.99125 ,39.16214 
62 ,13.0706 ,0.97496 ,3.97414 ,38.99425 
63 ,13.2945 ,0.97717 ,3.93992 ,38.65847 
64 ,13.5187 ,0.97940 ,3.91596 ,38.42342 
65 ,13.7266 ,0.98152 ,3.90912 ,38.35626 
66 ,13.9348 ,0.98353 ,3.88174 ,38.08764 
67 ,14.1590 ,0.98583 ,3.86121 ,37.88617 
68 ,14.3668 ,0.98787 ,3.83041 ,37.58396 
69 ,14.5747 ,0.99003 ,3.80645 ,37.34891 
70 ,14.7829 ,0.99210 ,3.80645 ,37.34891 
71 ,15.0232 ,0.99451 ,3.77908 ,37.08029 
72 ,15.2316 ,0.99663 ,3.75170 ,36.81166 
73 ,15.4553 ,0.99876 ,3.71405 ,36.44230 
74 ,15.6637 ,1.00085 ,3.71405 ,36.44230 
75 ,15.8716 ,1.00293 ,3.67983 ,36.10652 
76 ,16.0958 ,1.00515 ,3.65930 ,35.90505 
77 ,16.3201 ,1.00742 ,3.64561 ,35.77073 
78 ,16.5275 ,1.00944 ,3.62508 ,35.56926 
79 ,16.7361 ,1.01154 ,3.59770 ,35.30064 
80 ,16.9282 ,1.01356 ,3.58743 ,35.19990 
81 ,17.1362 ,1.01554 ,3.56006 ,34.93128 
82 ,17.3444 ,1.01762 ,3.54979 ,34.83054 
83 ,17.5683 ,1.01987 ,3.52241 ,34.56192 
84 ,17.7924 ,1.02221 ,3.47108 ,34.05824 
85 ,18.0488 ,1.02452 ,3.46424 ,33.99108 
86 ,18.2568 ,1.02676 ,3.45055 ,33.85677 
87 ,18.4803 ,1.02903 ,3.43001 ,33.65530 
88 ,18.6885 ,1.03110 ,3.40606 ,33.42025 
89 ,18.9288 ,1.03336 ,3.37184 ,33.08447 
90 ,19.1369 ,1.03564 ,3.35815 ,32.95016 
91 ,19.3450 ,1.03763 ,3.34446 ,32.81584 
92 ,19.5693 ,1.03985 ,3.29997 ,32.37933 
93 ,19.7773 ,1.04202 ,3.29655 ,32.34575 
94 ,19.9694 ,1.04397 ,3.26575 ,32.04354 
95 ,20.1775 ,1.04597 ,3.25548 ,31.94281 
96 ,20.3696 ,1.04794 ,3.22811 ,31.67418 
97 ,20.5937 ,1.05013 ,3.21100 ,31.50629 
98 ,20.8019 ,1.05218 ,3.20415 ,31.43913 
99 ,21.0094 ,1.05437 ,3.15966 ,31.00262 
100 ,21.2023 ,1.05626 ,3.16651 ,31.06977 
101 ,21.4262 ,1.05833 ,3.12544 ,30.66683 
102 ,21.6340 ,1.06059 ,3.11518 ,30.56610 
103 ,21.8584 ,1.06265 ,3.10149 ,30.43178 
104 ,22.0820 ,1.06502 ,3.07069 ,30.12958 
105 ,22.3066 ,1.06716 ,3.04331 ,29.86095 
106 ,22.5304 ,1.06950 ,3.01251 ,29.55875 
107 ,22.7225 ,1.07148 ,3.01593 ,29.59233 
108 ,22.9306 ,1.07348 ,2.98171 ,29.25654 
109 ,23.1388 ,1.07557 ,2.97144 ,29.15581 
110 ,23.3470 ,1.07763 ,2.93722 ,28.82003 
111 ,23.5708 ,1.07989 ,2.92011 ,28.65213 
112 ,23.7630 ,1.08186 ,2.90300 ,28.48424 
113 ,23.9869 ,1.08407 ,2.87562 ,28.21562 
114 ,24.1953 ,1.08611 ,2.88247 ,28.28277 
115 ,24.4031 ,1.08818 ,2.83456 ,27.81268 
116 ,24.5955 ,1.09019 ,2.83798 ,27.84625 
117 ,24.8031 ,1.09225 ,2.80376 ,27.51047 
118 ,24.9956 ,1.09416 ,2.79007 ,27.37616 
119 ,25.2034 ,1.09621 ,2.75585 ,27.04038 
120 ,25.4113 ,1.09839 ,2.73874 ,26.87248 
121 ,25.6200 ,1.10040 ,2.73189 ,26.80533 
122 ,25.8279 ,1.10251 ,2.69425 ,26.43597 
123 ,26.0202 ,1.10443 ,2.69767 ,26.46954 
124 ,26.2281 ,1.10645 ,2.67372 ,26.23450 
125 ,26.4202 ,1.10841 ,2.65660 ,26.06661 
126 ,26.6121 ,1.11037 ,2.64976 ,25.99945 
127 ,26.8203 ,1.11233 ,2.61212 ,25.63009 
128 ,27.0125 ,1.11433 ,2.61554 ,25.66367 
129 ,27.2206 ,1.11637 ,2.57789 ,25.29430 
130 ,27.4285 ,1.11844 ,2.57447 ,25.26073 
131 ,27.6204 ,1.12039 ,2.53683 ,24.89136 
132 ,27.8285 ,1.12245 ,2.52656 ,24.79063 
133 ,28.0368 ,1.12455 ,2.50261 ,24.55558 
134 ,28.2286 ,1.12660 ,2.47865 ,24.32053 
135 ,28.4212 ,1.12843 ,2.47181 ,24.25338 
136 ,28.6448 ,1.13067 ,2.44785 ,24.01833 
137 ,28.8688 ,1.13286 ,2.44443 ,23.98475 
138 ,29.0772 ,1.13490 ,2.41363 ,23.68255 
139 ,29.2853 ,1.13702 ,2.39652 ,23.51465 
140 ,29.5255 ,1.13925 ,2.39652 ,23.51465 
141 ,29.7495 ,1.14166 ,2.37599 ,23.31318 
142 ,29.9574 ,1.14376 ,2.32465 ,22.80951 
143 ,30.1655 ,1.14578 ,2.33150 ,22.87667 
144 ,30.4058 ,1.14809 ,2.31781 ,22.74235 
145 ,30.6299 ,1.15046 ,2.29385 ,22.50731 
146 ,30.8380 ,1.15256 ,2.25621 ,22.13794 
147 ,31.0619 ,1.15473 ,2.23226 ,21.90290 
148 ,31.2541 ,1.15672 ,2.24252 ,22.00363 
149 ,31.4460 ,1.15865 ,2.21857 ,21.76858 
150 ,31.6543 ,1.16070 ,2.17750 ,21.36564 
151 ,31.8624 ,1.16275 ,2.18092 ,21.39922 
152 ,32.0701 ,1.16485 ,2.17066 ,21.29849 
153 ,32.2786 ,1.16696 ,2.12959 ,20.89555 
154 ,32.4865 ,1.16903 ,2.13644 ,20.96270 
155 ,32.6947 ,1.17119 ,2.11248 ,20.72766 
156 ,32.9027 ,1.17314 ,2.09879 ,20.59334 
157 ,33.1109 ,1.17526 ,2.08852 ,20.49261 
158 ,33.3189 ,1.17733 ,2.06115 ,20.22398 
159 ,33.5268 ,1.17938 ,2.05773 ,20.19040 
160 ,33.7348 ,1.18148 ,2.03719 ,19.98893 
161 ,33.9430 ,1.18361 ,2.02693 ,19.88820 
162 ,34.1353 ,1.18562 ,2.00639 ,19.68673 
163 ,34.3110 ,1.18741 ,2.00639 ,19.68673 
164 ,34.5196 ,1.18935 ,1.96190 ,19.25021 
165 ,34.7432 ,1.19152 ,1.96190 ,19.25021 
166 ,34.9355 ,1.19352 ,1.93111 ,18.94801 
167 ,35.1436 ,1.19556 ,1.93453 ,18.98158 
168 ,35.3677 ,1.19779 ,1.91057 ,18.74654 
169 ,35.5919 ,1.19992 ,1.88662 ,18.51149 
170 ,35.8160 ,1.20225 ,1.86266 ,18.27644 
171 ,36.0240 ,1.20450 ,1.85582 ,18.20928 
172 ,36.2162 ,1.20635 ,1.82844 ,17.94066 
173 ,36.4241 ,1.20836 ,1.83871 ,18.04139 
174 ,36.6321 ,1.21041 ,1.79764 ,17.63845 
175 ,36.8402 ,1.21253 ,1.79764 ,17.63845 
176 ,37.0324 ,1.21449 ,1.76342 ,17.30267 
177 ,37.2246 ,1.21643 ,1.77711 ,17.43698 
178 ,37.4483 ,1.21862 ,1.73604 ,17.03404 
179 ,37.6403 ,1.22060 ,1.74631 ,17.13478 
180 ,37.8487 ,1.22267 ,1.71551 ,16.83257 
181 ,38.0569 ,1.22467 ,1.69498 ,16.63110 
182 ,38.2648 ,1.22677 ,1.69498 ,16.63110 
183 ,38.4890 ,1.22904 ,1.66760 ,16.36248 
184 ,38.7132 ,1.23123 ,1.65049 ,16.19458 
185 ,38.9213 ,1.23337 ,1.64364 ,16.12743 
186 ,39.1454 ,1.23557 ,1.62311 ,15.92596 
187 ,39.3694 ,1.23779 ,1.58547 ,15.55660 
188 ,39.5774 ,1.23990 ,1.58204 ,15.52302 
189 ,39.7855 ,1.24195 ,1.57178 ,15.42228 
190 ,39.9934 ,1.24404 ,1.55809 ,15.28797 
191 ,40.2015 ,1.24621 ,1.55124 ,15.22081 
192 ,40.4098 ,1.24824 ,1.51360 ,14.85145 
193 ,40.6339 ,1.25047 ,1.49991 ,14.71714 
194 ,40.8420 ,1.25267 ,1.50333 ,14.75072 
195 ,41.0335 ,1.25450 ,1.47596 ,14.48209 
196 ,41.2101 ,1.25638 ,1.45542 ,14.28062 
197 ,41.4183 ,1.25829 ,1.46227 ,14.34778 
198 ,41.6263 ,1.26039 ,1.41436 ,13.87768 
199 ,41.8665 ,1.26267 ,1.40409 ,13.77695 
200 ,42.0901 ,1.26497 ,1.38356 ,13.57548 
201 ,42.3145 ,1.26726 ,1.38356 ,13.57548 
202 ,42.5388 ,1.26944 ,1.36987 ,13.44116 
203 ,42.7464 ,1.27154 ,1.33907 ,13.13896 
204 ,42.9549 ,1.27367 ,1.35276 ,13.27327 
205 ,43.1626 ,1.27573 ,1.30827 ,12.83675 
206 ,43.3709 ,1.27787 ,1.31854 ,12.93749 
207 ,43.5791 ,1.27994 ,1.28774 ,12.63528 
208 ,43.8030 ,1.28208 ,1.26720 ,12.43381 
209 ,43.9952 ,1.28408 ,1.26720 ,12.43381 
210 ,44.2029 ,1.28613 ,1.23298 ,12.09803 
211 ,44.4112 ,1.28826 ,1.21929 ,11.96372 
212 ,44.6197 ,1.29027 ,1.21587 ,11.93014 
213 ,44.8276 ,1.29236 ,1.18165 ,11.59436 
214 ,45.0516 ,1.29457 ,1.18507 ,11.62794 
215 ,45.2597 ,1.29670 ,1.15770 ,11.35931 
216 ,45.4678 ,1.29874 ,1.14743 ,11.25857 
217 ,45.6920 ,1.30101 ,1.13716 ,11.15784 
218 ,45.8840 ,1.30295 ,1.11321 ,10.92279 
219 ,46.1082 ,1.30517 ,1.10636 ,10.85563 
220 ,46.3000 ,1.30722 ,1.09267 ,10.72132 
221 ,46.4918 ,1.30916 ,1.07214 ,10.51985 
222 ,46.7004 ,1.31113 ,1.06530 ,10.45270 
223 ,46.9246 ,1.31333 ,1.04134 ,10.21765 
224 ,47.1322 ,1.31540 ,1.05161 ,10.31838 
225 ,47.3406 ,1.31754 ,1.02423 ,10.04976 
226 ,47.5326 ,1.31947 ,1.01739 ,9.98260 
227 ,47.7565 ,1.32173 ,0.97974 ,9.61324 
228 ,47.9648 ,1.32372 ,0.97974 ,9.61324 
229 ,48.1728 ,1.32584 ,0.96605 ,9.47892 
230 ,48.3808 ,1.32789 ,0.94894 ,9.31103 
231 ,48.6051 ,1.33008 ,0.92841 ,9.10956 
232 ,48.8129 ,1.33216 ,0.92841 ,9.10956 
233 ,49.0053 ,1.33417 ,0.90788 ,8.90809 
234 ,49.2135 ,1.33623 ,0.90103 ,8.84094 
235 ,49.4214 ,1.33828 ,0.87023 ,8.53873 
236 ,49.6295 ,1.34037 ,0.86339 ,8.47158 
237 ,49.8213 ,1.34235 ,0.83601 ,8.20295 
238 ,50.0296 ,1.34444 ,0.85654 ,8.40442 
239 ,50.2536 ,1.34665 ,0.82575 ,8.10221 
240 ,50.4619 ,1.34866 ,0.80521 ,7.90074 
241 ,50.6859 ,1.35094 ,0.80521 ,7.90074 
242 ,50.8941 ,1.35303 ,0.77099 ,7.56496 
243 ,51.1342 ,1.35531 ,0.77441 ,7.59854 
244 ,51.3581 ,1.35770 ,0.73677 ,7.22918 
245 ,51.5504 ,1.35961 ,0.74704 ,7.32991 
246 ,51.7582 ,1.36174 ,0.72308 ,7.09486 
247 ,51.9664 ,1.36376 ,0.71624 ,7.02771 
248 ,52.1581 ,1.36570 ,0.69228 ,6.79266 
249 ,52.3509 ,1.36764 ,0.68544 ,6.72550 
250 ,52.5747 ,1.36981 ,0.65121 ,6.38972 
251 ,52.7988 ,1.37208 ,0.65464 ,6.42330 
252 ,53.0069 ,1.37417 ,0.65464 ,6.42330 
253 ,53.2307 ,1.37634 ,0.61357 ,6.02036 
254 ,53.4232 ,1.37834 ,0.62042 ,6.08752 
255 ,53.6312 ,1.38041 ,0.59304 ,5.81889 
256 ,53.8553 ,1.38267 ,0.58962 ,5.78531 
257 ,54.0792 ,1.38475 ,0.58962 ,5.78531 
258 ,54.3030 ,1.38705 ,0.57935 ,5.68458 
259 ,54.5117 ,1.38915 ,0.53486 ,5.24806 
260 ,54.7356 ,1.39141 ,0.52802 ,5.18090 
261 ,54.9436 ,1.39350 ,0.52459 ,5.14732 
262 ,55.1516 ,1.39554 ,0.49722 ,4.87870 
263 ,55.3595 ,1.39772 ,0.50406 ,4.94585 
264 ,55.5679 ,1.39981 ,0.46642 ,4.57649 
265 ,55.7761 ,1.40186 ,0.45957 ,4.50934 
266 ,55.9840 ,1.40387 ,0.45615 ,4.47576 
267 ,56.2083 ,1.40605 ,0.42193 ,4.13997 
268 ,56.4325 ,1.40833 ,0.42535 ,4.17355 
269 ,56.6403 ,1.41045 ,0.41166 ,4.03924 
270 ,56.8485 ,1.41260 ,0.40140 ,3.93850 
271 ,57.0725 ,1.41475 ,0.38086 ,3.73703 
272 ,57.2646 ,1.41672 ,0.37744 ,3.70346 
273 ,57.4726 ,1.41883 ,0.35006 ,3.43483 
274 ,57.6808 ,1.42084 ,0.36718 ,3.60272 
275 ,57.8729 ,1.42285 ,0.32269 ,3.16620 
276 ,58.0970 ,1.42502 ,0.33295 ,3.26694 
277 ,58.2891 ,1.42695 ,0.30215 ,2.96473 
278 ,58.5131 ,1.42916 ,0.31242 ,3.06547 
279 ,58.7208 ,1.43132 ,0.29531 ,2.89758 
280 ,58.9290 ,1.43338 ,0.25767 ,2.52822 
281 ,59.1375 ,1.43540 ,0.26451 ,2.59537 
282 ,59.3614 ,1.43763 ,0.24398 ,2.39390 
283 ,59.5855 ,1.43977 ,0.22002 ,2.15885 
284 ,59.7933 ,1.44197 ,0.23371 ,2.29317 
285 ,60.0017 ,1.44409 ,0.21660 ,2.12528 
286 ,60.2098 ,1.44620 ,0.19264 ,1.89023 
287 ,60.4181 ,1.44821 ,0.19264 ,1.89023 
288 ,60.6259 ,1.45030 ,0.16869 ,1.65518 
289 ,60.8338 ,1.45240 ,0.17211 ,1.68876 
290 ,61.0259 ,1.45433 ,0.15158 ,1.48729 
291 ,61.2183 ,1.45624 ,0.15158 ,1.48729 
292 ,61.4261 ,1.45831 ,0.12762 ,1.25224 
293 ,61.6503 ,1.46051 ,0.12762 ,1.25224 
294 ,61.8425 ,1.46250 ,0.10025 ,0.98361 
295 ,62.0502 ,1.46458 ,0.08656 ,0.84930 
296 ,62.2424 ,1.46659 ,0.09340 ,0.91646 
297 ,62.4507 ,1.46856 ,0.07287 ,0.71499 
298 ,62.6427 ,1.47047 ,0.05576 ,0.54710 
299 ,62.8509 ,1.47251 ,0.06260 ,0.61425 
300 ,63.0429 ,1.47449 ,0.04207 ,0.41278 
301 ,63.2671 ,1.47674 ,0.03865 ,0.37920 
302 ,63.4750 ,1.47873 ,0.03865 ,0.37920 
303 ,63.6833 ,1.48089 ,0.00100 ,0.00984 
304 ,63.8913 ,1.48302 ,-0.00584 ,-0.05731 
305 ,64.0994 ,1.48502 ,-0.01611 ,-0.15805 
306 ,64.2913 ,1.48710 ,-0.02295 ,-0.22520 
307 ,64.4834 ,1.48886 ,-0.04006 ,-0.39310 
308 ,64.6913 ,1.49096 ,-0.03664 ,-0.35952 
309 ,64.8996 ,1.49302 ,-0.05717 ,-0.56099 
310 ,65.1079 ,1.49513 ,-0.05033 ,-0.49383 
311 ,65.2996 ,1.49706 ,-0.09824 ,-0.96393 
312 ,65.5080 ,1.49913 ,-0.09140 ,-0.89677 
313 ,65.7318 ,1.50128 ,-0.09482 ,-0.93035 
314 ,65.9403 ,1.50341 ,-0.12562 ,-1.23255 
315 ,66.1641 ,1.50566 ,-0.13246 ,-1.29971 
316 ,66.3403 ,1.50756 ,-0.14273 ,-1.40045 
317 ,66.5485 ,1.50949 ,-0.13588 ,-1.33329 
318 ,66.7724 ,1.51170 ,-0.15984 ,-1.56834 
319 ,66.9806 ,1.51379 ,-0.16668 ,-1.63549 
320 ,67.1886 ,1.51592 ,-0.17353 ,-1.70265 
321 ,67.4129 ,1.51812 ,-0.17695 ,-1.73623 
322 ,67.6210 ,1.52022 ,-0.19406 ,-1.90412 
323 ,67.8448 ,1.52243 ,-0.20090 ,-1.97128 
324 ,68.0528 ,1.52453 ,-0.22828 ,-2.23990 
325 ,68.2610 ,1.52659 ,-0.24539 ,-2.40779 
326 ,68.4692 ,1.52868 ,-0.24197 ,-2.37422 
327 ,68.6613 ,1.53070 ,-0.26250 ,-2.57569 
328 ,68.8531 ,1.53258 ,-0.26250 ,-2.57569 
329 ,69.0775 ,1.53468 ,-0.27619 ,-2.71000 
330 ,69.3176 ,1.53707 ,-0.28304 ,-2.77716 
331 ,69.5417 ,1.53940 ,-0.28988 ,-2.84431 
332 ,69.7332 ,1.54142 ,-0.30699 ,-3.01220 
333 ,69.9256 ,1.54329 ,-0.30699 ,-3.01220 
334 ,70.1339 ,1.54539 ,-0.33779 ,-3.31441 
335 ,70.3419 ,1.54746 ,-0.34121 ,-3.34799 
336 ,70.5340 ,1.54935 ,-0.35832 ,-3.51588 
337 ,70.7421 ,1.55145 ,-0.34806 ,-3.41514 
338 ,70.9660 ,1.55365 ,-0.36859 ,-3.61661 
339 ,71.1902 ,1.55591 ,-0.38228 ,-3.75093 
340 ,71.3984 ,1.55800 ,-0.40623 ,-3.98597 
341 ,71.6222 ,1.56018 ,-0.40281 ,-3.95240 
342 ,71.8303 ,1.56234 ,-0.42335 ,-4.15387 
343 ,72.0546 ,1.56454 ,-0.43019 ,-4.22102 
344 ,72.2627 ,1.56674 ,-0.43361 ,-4.25460 
345 ,72.4707 ,1.56865 ,-0.45072 ,-4.42249 
346 ,72.6626 ,1.57065 ,-0.45072 ,-4.42249 
347 ,72.8871 ,1.57283 ,-0.45414 ,-4.45607 
348 ,73.0788 ,1.57493 ,-0.48837 ,-4.79185 
349 ,73.2712 ,1.57677 ,-0.49521 ,-4.85901 
350 ,73.4791 ,1.57875 ,-0.48837 ,-4.79185 
351 ,73.6713 ,1.58082 ,-0.51232 ,-5.02690 
352 ,73.9115 ,1.58286 ,-0.51232 ,-5.02690 
353 ,74.1352 ,1.58531 ,-0.52943 ,-5.19479 
354 ,74.3436 ,1.58740 ,-0.52943 ,-5.19479 
355 ,74.5513 ,1.58957 ,-0.56023 ,-5.49700 
356 ,74.7598 ,1.59159 ,-0.55339 ,-5.42984 
357 ,74.9833 ,1.59385 ,-0.57050 ,-5.59773 
358 ,75.1914 ,1.59588 ,-0.59788 ,-5.86636 
359 ,75.4160 ,1.59815 ,-0.59445 ,-5.83278 
360 ,75.6562 ,1.60054 ,-0.59445 ,-5.83278 
361 ,75.8641 ,1.60261 ,-0.61841 ,-6.06783 
362 ,76.0881 ,1.60480 ,-0.64579 ,-6.33646 
363 ,76.2800 ,1.60690 ,-0.62525 ,-6.13499 
364 ,76.4884 ,1.60889 ,-0.65947 ,-6.47077 
365 ,76.7126 ,1.61107 ,-0.65947 ,-6.47077 
366 ,76.9209 ,1.61314 ,-0.67316 ,-6.60508 
367 ,77.1287 ,1.61528 ,-0.69712 ,-6.84013 
368 ,77.3690 ,1.61749 ,-0.68685 ,-6.73940 
369 ,77.5769 ,1.61983 ,-0.70396 ,-6.90729 
370 ,77.7851 ,1.62187 ,-0.72107 ,-7.07518 
371 ,77.9931 ,1.62392 ,-0.71081 ,-6.97444 
372 ,78.2175 ,1.62615 ,-0.72107 ,-7.07518 
373 ,78.4409 ,1.62825 ,-0.74503 ,-7.31023 
374 ,78.6491 ,1.63047 ,-0.75530 ,-7.41096 
375 ,78.8411 ,1.63242 ,-0.75187 ,-7.37738 
376 ,79.0497 ,1.63450 ,-0.75872 ,-7.44454 
377 ,79.2734 ,1.63673 ,-0.76556 ,-7.51170 
378 ,79.4819 ,1.63877 ,-0.79294 ,-7.78032 
379 ,79.6897 ,1.64083 ,-0.79294 ,-7.78032 
380 ,79.8819 ,1.64286 ,-0.79978 ,-7.84748 
381 ,80.0902 ,1.64494 ,-0.80321 ,-7.88106 
382 ,80.3142 ,1.64711 ,-0.80663 ,-7.91464 
383 ,80.5225 ,1.64920 ,-0.84085 ,-8.25042 
384 ,80.7140 ,1.65121 ,-0.83401 ,-8.18326 
385 ,80.9385 ,1.65326 ,-0.85112 ,-8.35115 
386 ,81.1625 ,1.65558 ,-0.85454 ,-8.38473 
387 ,81.3707 ,1.65772 ,-0.84427 ,-8.28400 
388 ,81.5787 ,1.65972 ,-0.87507 ,-8.58620 
389 ,81.8025 ,1.66196 ,-0.90245 ,-8.85483 
390 ,82.0108 ,1.66414 ,-0.89218 ,-8.75409 
391 ,82.2349 ,1.66631 ,-0.90245 ,-8.85483 
392 ,82.4271 ,1.66826 ,-0.91614 ,-8.98914 
393 ,82.6349 ,1.67027 ,-0.91614 ,-8.98914 
394 ,82.8431 ,1.67236 ,-0.93667 ,-9.19061 
395 ,83.0512 ,1.67447 ,-0.93325 ,-9.15703 
396 ,83.2754 ,1.67666 ,-0.95720 ,-9.39208 
397 ,83.4832 ,1.67874 ,-0.97089 ,-9.52639 
398 ,83.6596 ,1.68071 ,-0.97089 ,-9.52639 
399 ,83.8677 ,1.68260 ,-0.96405 ,-9.45924 
400 ,84.0918 ,1.68483 ,-0.99143 ,-9.72786 
401 ,84.2999 ,1.68696 ,-1.00854 ,-9.89576 
402 ,84.5238 ,1.68918 ,-1.00854 ,-9.89576 
403 ,84.7481 ,1.69138 ,-0.99827 ,-9.79502 
404 ,84.9400 ,1.69349 ,-1.03934 ,-10.19796 
405 ,85.1317 ,1.69536 ,-1.02907 ,-10.09723 
406 ,85.3724 ,1.69763 ,-1.04960 ,-10.29869 
407 ,85.5803 ,1.69987 ,-1.06671 ,-10.46659 
408 ,85.7885 ,1.70189 ,-1.05645 ,-10.36585 
409 ,85.9964 ,1.70393 ,-1.09067 ,-10.70163 
410 ,86.2043 ,1.70595 ,-1.07014 ,-10.50016 
411 ,86.4287 ,1.70815 ,-1.08725 ,-10.66806 
412 ,86.6527 ,1.71040 ,-1.10436 ,-10.83595 
413 ,86.8608 ,1.71256 ,-1.09751 ,-10.76879 
414 ,87.0849 ,1.71473 ,-1.10778 ,-10.86953 
415 ,87.2928 ,1.71686 ,-1.13173 ,-11.10457 
416 ,87.5169 ,1.71914 ,-1.14884 ,-11.27247 
417 ,87.7254 ,1.72121 ,-1.12489 ,-11.03742 
418 ,87.9332 ,1.72325 ,-1.16938 ,-11.47394 
419 ,88.1415 ,1.72537 ,-1.13858 ,-11.17173 
420 ,88.3335 ,1.72736 ,-1.17622 ,-11.54109 
421 ,88.5253 ,1.72927 ,-1.17280 ,-11.50751 
422 ,88.7018 ,1.73111 ,-1.18991 ,-11.67541 
423 ,88.9096 ,1.73303 ,-1.18649 ,-11.64183 
424 ,89.1180 ,1.73513 ,-1.18991 ,-11.67541 
425 ,89.3421 ,1.73732 ,-1.20360 ,-11.80972 
426 ,89.5497 ,1.73956 ,-1.21387 ,-11.91045 
427 ,89.7583 ,1.74155 ,-1.22071 ,-11.97761 
428 ,89.9820 ,1.74372 ,-1.22071 ,-11.97761 
429 ,90.1902 ,1.74582 ,-1.25835 ,-12.34697 
430 ,90.4145 ,1.74800 ,-1.24467 ,-12.21266 
431 ,90.6223 ,1.75013 ,-1.25151 ,-12.27981 
432 ,90.8147 ,1.75220 ,-1.27547 ,-12.51486 
433 ,91.0227 ,1.75418 ,-1.26862 ,-12.44771 
434 ,91.2309 ,1.75621 ,-1.29258 ,-12.68275 
435 ,91.4547 ,1.75850 ,-1.27547 ,-12.51486 
436 ,91.6791 ,1.76073 ,-1.28915 ,-12.64918 
437 ,91.8870 ,1.76281 ,-1.31653 ,-12.91780 
438 ,92.0952 ,1.76488 ,-1.30626 ,-12.81707 
439 ,92.3028 ,1.76694 ,-1.33364 ,-13.08569 
440 ,92.5114 ,1.76902 ,-1.31995 ,-12.95138 
441 ,92.7355 ,1.77122 ,-1.34049 ,-13.15285 
442 ,92.9270 ,1.77328 ,-1.35760 ,-13.32074 
443 ,93.1197 ,1.77516 ,-1.35075 ,-13.25359 
444 ,93.3275 ,1.77714 ,-1.36786 ,-13.42148 
445 ,93.5357 ,1.77936 ,-1.36102 ,-13.35432 
446 ,93.7276 ,1.78126 ,-1.37129 ,-13.45506 
447 ,93.9356 ,1.78329 ,-1.36102 ,-13.35432 
448 ,94.1601 ,1.78554 ,-1.40209 ,-13.75726 
449 ,94.3840 ,1.78771 ,-1.40893 ,-13.82442 
450 ,94.5921 ,1.78978 ,-1.39182 ,-13.65653 
451 ,94.8162 ,1.79208 ,-1.40893 ,-13.82442 
452 ,95.0244 ,1.79412 ,-1.42604 ,-13.99231 
453 ,95.2644 ,1.79650 ,-1.40893 ,-13.82442 
454 ,95.4885 ,1.79878 ,-1.43288 ,-14.05946 
455 ,95.7285 ,1.80115 ,-1.42946 ,-14.02589 
456 ,95.9365 ,1.80329 ,-1.44657 ,-14.19378 
457 ,96.1445 ,1.80537 ,-1.47395 ,-14.46240 
458 ,96.3689 ,1.80752 ,-1.46026 ,-14.32809 
459 ,96.5930 ,1.80982 ,-1.46368 ,-14.36167 
460 ,96.8172 ,1.81206 ,-1.49106 ,-14.63030 
