Data stamp = , 16-05-2022 19:54:36 078

Calibration Values: 
Slope = , 26.54 , g/V 
Offset Voltage at no contact = , -0.501760 , V 

No , Time , Stage Position ,   Mass , Force 
   ,  (s) ,      (mm)      ,   (g)  , (mN)  

1 ,0.0000 ,0.84961 ,5.10688 ,50.10867 
2 ,0.3520 ,0.84990 ,5.10345 ,50.07509 
3 ,0.7685 ,0.85175 ,5.12056 ,50.24298 
4 ,0.9929 ,0.85429 ,5.11714 ,50.20940 
5 ,1.2169 ,0.85634 ,5.09661 ,50.00793 
6 ,1.4410 ,0.85870 ,5.10688 ,50.10867 
7 ,1.6327 ,0.86072 ,5.09661 ,50.00793 
8 ,1.8406 ,0.86276 ,5.05212 ,49.57142 
9 ,2.0647 ,0.86500 ,5.06581 ,49.70573 
10 ,2.2890 ,0.86723 ,5.02132 ,49.26921 
11 ,2.4970 ,0.86933 ,5.01448 ,49.20205 
12 ,2.7054 ,0.87143 ,4.98026 ,48.86627 
13 ,2.9136 ,0.87344 ,4.98710 ,48.93343 
14 ,3.1052 ,0.87544 ,4.94261 ,48.49691 
15 ,3.2977 ,0.87740 ,4.94946 ,48.56407 
16 ,3.5058 ,0.87945 ,4.89470 ,48.02681 
17 ,3.7140 ,0.88147 ,4.89812 ,48.06039 
18 ,3.9216 ,0.88363 ,4.87417 ,47.82534 
19 ,4.1302 ,0.88557 ,4.84679 ,47.55672 
20 ,4.3378 ,0.88778 ,4.83310 ,47.42240 
21 ,4.5303 ,0.88971 ,4.79546 ,47.05304 
22 ,4.7539 ,0.89185 ,4.78177 ,46.91873 
23 ,4.9624 ,0.89395 ,4.74070 ,46.51579 
24 ,5.1545 ,0.89595 ,4.74413 ,46.54937 
25 ,5.3626 ,0.89806 ,4.71333 ,46.24716 
26 ,5.5545 ,0.89992 ,4.70648 ,46.18001 
27 ,5.7467 ,0.90183 ,4.66542 ,45.77707 
28 ,5.9544 ,0.90386 ,4.65857 ,45.70991 
29 ,6.1629 ,0.90596 ,4.61751 ,45.30697 
30 ,6.3546 ,0.90790 ,4.62777 ,45.40771 
31 ,6.5627 ,0.90997 ,4.58671 ,45.00477 
32 ,6.7706 ,0.91208 ,4.56960 ,44.83688 
33 ,6.9949 ,0.91425 ,4.54906 ,44.63541 
34 ,7.2033 ,0.91639 ,4.52169 ,44.36678 
35 ,7.4115 ,0.91849 ,4.50115 ,44.16531 
36 ,7.6355 ,0.92061 ,4.49089 ,44.06457 
37 ,7.8594 ,0.92288 ,4.45324 ,43.69521 
38 ,8.0512 ,0.92491 ,4.41902 ,43.35943 
39 ,8.2595 ,0.92696 ,4.41218 ,43.29227 
40 ,8.4676 ,0.92902 ,4.38138 ,42.99007 
41 ,8.6760 ,0.93115 ,4.39164 ,43.09080 
42 ,8.8841 ,0.93319 ,4.34373 ,42.62071 
43 ,9.1076 ,0.93536 ,4.32320 ,42.41924 
44 ,9.3321 ,0.93760 ,4.31636 ,42.35208 
45 ,9.5562 ,0.93986 ,4.29240 ,42.11703 
46 ,9.7642 ,0.94195 ,4.25133 ,41.71409 
47 ,9.9562 ,0.94391 ,4.24449 ,41.64694 
48 ,10.1802 ,0.94617 ,4.23080 ,41.51262 
49 ,10.3882 ,0.94821 ,4.18974 ,41.10968 
50 ,10.5967 ,0.95025 ,4.18974 ,41.10968 
51 ,10.8208 ,0.95254 ,4.15551 ,40.77390 
52 ,11.0283 ,0.95468 ,4.12471 ,40.47170 
53 ,11.2364 ,0.95670 ,4.11445 ,40.37096 
54 ,11.4443 ,0.95872 ,4.07680 ,40.00160 
55 ,11.6688 ,0.96102 ,4.06654 ,39.90087 
56 ,11.9089 ,0.96336 ,4.04258 ,39.66582 
57 ,12.1170 ,0.96551 ,4.03916 ,39.63224 
58 ,12.3252 ,0.96757 ,3.99125 ,39.16214 
59 ,12.5171 ,0.96951 ,3.98783 ,39.12856 
60 ,12.7095 ,0.97143 ,3.95018 ,38.75920 
61 ,12.9331 ,0.97360 ,3.95018 ,38.75920 
62 ,13.1256 ,0.97559 ,3.90912 ,38.35626 
63 ,13.3495 ,0.97782 ,3.90227 ,38.28911 
64 ,13.5575 ,0.97993 ,3.87832 ,38.05406 
65 ,13.7659 ,0.98198 ,3.84067 ,37.68470 
66 ,13.9899 ,0.98419 ,3.82699 ,37.55038 
67 ,14.1981 ,0.98630 ,3.81672 ,37.44965 
68 ,14.4220 ,0.98860 ,3.78592 ,37.14744 
69 ,14.6463 ,0.99076 ,3.75170 ,36.81166 
70 ,14.8543 ,0.99287 ,3.75512 ,36.84524 
71 ,15.0303 ,0.99477 ,3.72090 ,36.50946 
72 ,15.2384 ,0.99672 ,3.71063 ,36.40872 
73 ,15.4626 ,0.99889 ,3.67299 ,36.03936 
74 ,15.6706 ,1.00092 ,3.65246 ,35.83789 
75 ,15.8624 ,1.00294 ,3.64561 ,35.77073 
76 ,16.0549 ,1.00490 ,3.63192 ,35.63642 
77 ,16.2790 ,1.00708 ,3.60797 ,35.40137 
78 ,16.4870 ,1.00914 ,3.55663 ,34.89770 
79 ,16.6791 ,1.01111 ,3.56348 ,34.96485 
80 ,16.8869 ,1.01321 ,3.52584 ,34.59549 
81 ,17.0947 ,1.01526 ,3.52584 ,34.59549 
82 ,17.3188 ,1.01749 ,3.50872 ,34.42760 
83 ,17.5112 ,1.01946 ,3.47108 ,34.05824 
84 ,17.7194 ,1.02153 ,3.46766 ,34.02466 
85 ,17.9276 ,1.02352 ,3.42317 ,33.58814 
86 ,18.1356 ,1.02561 ,3.43686 ,33.72246 
87 ,18.3758 ,1.02787 ,3.38553 ,33.21878 
88 ,18.5838 ,1.03014 ,3.36157 ,32.98374 
89 ,18.7758 ,1.03220 ,3.34104 ,32.78227 
90 ,18.9520 ,1.03396 ,3.32735 ,32.64795 
91 ,19.1436 ,1.03589 ,3.33419 ,32.71511 
92 ,19.3522 ,1.03784 ,3.28971 ,32.27859 
93 ,19.5762 ,1.04007 ,3.27602 ,32.14428 
94 ,19.7844 ,1.04209 ,3.24180 ,31.80849 
95 ,19.9927 ,1.04416 ,3.22468 ,31.64060 
96 ,20.2004 ,1.04626 ,3.21100 ,31.50629 
97 ,20.4087 ,1.04839 ,3.18362 ,31.23766 
98 ,20.6166 ,1.05046 ,3.18362 ,31.23766 
99 ,20.8248 ,1.05254 ,3.14597 ,30.86830 
100 ,21.0330 ,1.05460 ,3.12886 ,30.70041 
101 ,21.2409 ,1.05673 ,3.11860 ,30.59968 
102 ,21.4331 ,1.05862 ,3.09464 ,30.36463 
103 ,21.6251 ,1.06055 ,3.07753 ,30.19674 
104 ,21.8332 ,1.06262 ,3.05700 ,29.99527 
105 ,22.0252 ,1.06451 ,3.02962 ,29.72664 
106 ,22.2174 ,1.06648 ,3.02620 ,29.69306 
107 ,22.4093 ,1.06843 ,2.99198 ,29.35728 
108 ,22.6176 ,1.07044 ,2.97829 ,29.22297 
109 ,22.8257 ,1.07257 ,2.94407 ,28.88718 
110 ,23.0338 ,1.07458 ,2.94407 ,28.88718 
111 ,23.2419 ,1.07671 ,2.91327 ,28.58498 
112 ,23.4498 ,1.07878 ,2.87905 ,28.24919 
113 ,23.6420 ,1.08070 ,2.87220 ,28.18204 
114 ,23.8337 ,1.08260 ,2.85851 ,28.04772 
115 ,24.0257 ,1.08451 ,2.84140 ,27.87983 
116 ,24.2178 ,1.08651 ,2.82771 ,27.74552 
117 ,24.4099 ,1.08839 ,2.79691 ,27.44332 
118 ,24.5861 ,1.09028 ,2.78322 ,27.30900 
119 ,24.8104 ,1.09232 ,2.77980 ,27.27542 
120 ,25.0182 ,1.09449 ,2.75927 ,27.07395 
121 ,25.2106 ,1.09636 ,2.73189 ,26.80533 
122 ,25.4185 ,1.09847 ,2.72163 ,26.70459 
123 ,25.6105 ,1.10035 ,2.69083 ,26.40239 
124 ,25.8023 ,1.10228 ,2.67372 ,26.23450 
125 ,26.0107 ,1.10435 ,2.66003 ,26.10018 
126 ,26.2189 ,1.10640 ,2.65660 ,26.06661 
127 ,26.4272 ,1.10859 ,2.62238 ,25.73082 
128 ,26.6351 ,1.11057 ,2.61896 ,25.69724 
129 ,26.8429 ,1.11270 ,2.58816 ,25.39504 
130 ,27.0514 ,1.11475 ,2.56421 ,25.15999 
131 ,27.2754 ,1.11698 ,2.55394 ,25.05926 
132 ,27.4676 ,1.11891 ,2.51287 ,24.65632 
133 ,27.6916 ,1.12112 ,2.50945 ,24.62274 
134 ,27.8838 ,1.12312 ,2.48550 ,24.38769 
135 ,28.0918 ,1.12513 ,2.47523 ,24.28696 
136 ,28.2998 ,1.12722 ,2.44443 ,23.98475 
137 ,28.4921 ,1.12924 ,2.43074 ,23.85044 
138 ,28.6996 ,1.13118 ,2.42048 ,23.74970 
139 ,28.8923 ,1.13322 ,2.38968 ,23.44750 
140 ,29.0838 ,1.13517 ,2.39310 ,23.48108 
141 ,29.2920 ,1.13717 ,2.35888 ,23.14529 
142 ,29.4841 ,1.13912 ,2.34861 ,23.04456 
143 ,29.7082 ,1.14134 ,2.31097 ,22.67520 
144 ,29.9005 ,1.14328 ,2.32123 ,22.77593 
145 ,30.0926 ,1.14519 ,2.29385 ,22.50731 
146 ,30.2847 ,1.14723 ,2.28359 ,22.40657 
147 ,30.4768 ,1.14906 ,2.26648 ,22.23868 
148 ,30.7009 ,1.15118 ,2.24252 ,22.00363 
149 ,30.9087 ,1.15331 ,2.22541 ,21.83574 
150 ,31.1170 ,1.15542 ,2.22199 ,21.80216 
151 ,31.3247 ,1.15750 ,2.17408 ,21.33206 
152 ,31.5332 ,1.15954 ,2.17066 ,21.29849 
153 ,31.7572 ,1.16180 ,2.15355 ,21.13059 
154 ,31.9654 ,1.16387 ,2.11932 ,20.79481 
155 ,32.1733 ,1.16593 ,2.11248 ,20.72766 
156 ,32.3813 ,1.16811 ,2.09879 ,20.59334 
157 ,32.6057 ,1.17030 ,2.06115 ,20.22398 
158 ,32.8133 ,1.17243 ,2.06457 ,20.25756 
159 ,33.0058 ,1.17429 ,2.03377 ,19.95535 
160 ,33.2139 ,1.17634 ,2.02693 ,19.88820 
161 ,33.4056 ,1.17826 ,1.99613 ,19.58599 
162 ,33.6140 ,1.18036 ,1.99955 ,19.61957 
163 ,33.8062 ,1.18235 ,1.95848 ,19.21663 
164 ,34.0143 ,1.18438 ,1.96533 ,19.28379 
165 ,34.2223 ,1.18645 ,1.93453 ,18.98158 
166 ,34.4304 ,1.18853 ,1.90715 ,18.71296 
167 ,34.6381 ,1.19062 ,1.91742 ,18.81369 
168 ,34.8466 ,1.19272 ,1.87293 ,18.37717 
169 ,35.0707 ,1.19490 ,1.86951 ,18.34360 
170 ,35.2785 ,1.19699 ,1.85240 ,18.17570 
171 ,35.5028 ,1.19925 ,1.82844 ,17.94066 
172 ,35.7109 ,1.20129 ,1.80791 ,17.73919 
173 ,35.9029 ,1.20340 ,1.80106 ,17.67203 
174 ,36.1111 ,1.20530 ,1.77369 ,17.40340 
175 ,36.3191 ,1.20738 ,1.76342 ,17.30267 
176 ,36.5273 ,1.20954 ,1.73946 ,17.06762 
177 ,36.7513 ,1.21172 ,1.74631 ,17.13478 
178 ,36.9590 ,1.21385 ,1.75315 ,17.20193 
179 ,37.1675 ,1.21583 ,1.69498 ,16.63110 
180 ,37.3754 ,1.21796 ,1.70866 ,16.76542 
181 ,37.5676 ,1.21992 ,1.66418 ,16.32890 
182 ,37.7758 ,1.22200 ,1.67102 ,16.39605 
183 ,37.9838 ,1.22408 ,1.64022 ,16.09385 
184 ,38.1918 ,1.22630 ,1.63338 ,16.02669 
185 ,38.3837 ,1.22817 ,1.61969 ,15.89238 
186 ,38.5760 ,1.23002 ,1.62311 ,15.92596 
187 ,38.8002 ,1.23216 ,1.58889 ,15.59018 
188 ,39.0242 ,1.23448 ,1.56151 ,15.32155 
189 ,39.2324 ,1.23649 ,1.56151 ,15.32155 
190 ,39.4245 ,1.23850 ,1.53756 ,15.08650 
191 ,39.6325 ,1.24048 ,1.54098 ,15.12008 
192 ,39.8246 ,1.24251 ,1.49991 ,14.71714 
193 ,40.0328 ,1.24453 ,1.50676 ,14.78430 
194 ,40.2724 ,1.24692 ,1.49307 ,14.64998 
195 ,40.4649 ,1.24894 ,1.45885 ,14.31420 
196 ,40.6569 ,1.25086 ,1.46569 ,14.38136 
197 ,40.8490 ,1.25274 ,1.43147 ,14.04557 
198 ,41.0570 ,1.25475 ,1.42120 ,13.94484 
199 ,41.2652 ,1.25688 ,1.38356 ,13.57548 
200 ,41.4732 ,1.25896 ,1.39383 ,13.67621 
201 ,41.6814 ,1.26098 ,1.37329 ,13.47474 
202 ,41.8895 ,1.26307 ,1.35276 ,13.27327 
203 ,42.0975 ,1.26513 ,1.36303 ,13.37401 
204 ,42.3056 ,1.26726 ,1.31854 ,12.93749 
205 ,42.4973 ,1.26921 ,1.32196 ,12.97107 
206 ,42.6899 ,1.27112 ,1.30143 ,12.76960 
207 ,42.9140 ,1.27331 ,1.28089 ,12.56813 
208 ,43.1219 ,1.27545 ,1.26036 ,12.36666 
209 ,43.3137 ,1.27736 ,1.26720 ,12.43381 
210 ,43.5062 ,1.27931 ,1.23983 ,12.16519 
211 ,43.7142 ,1.28138 ,1.23983 ,12.16519 
212 ,43.9382 ,1.28354 ,1.22614 ,12.03088 
213 ,44.1304 ,1.28554 ,1.19876 ,11.76225 
214 ,44.3545 ,1.28777 ,1.18507 ,11.62794 
215 ,44.5627 ,1.28981 ,1.15770 ,11.35931 
216 ,44.7545 ,1.29183 ,1.14058 ,11.19142 
217 ,44.9467 ,1.29368 ,1.12690 ,11.05710 
218 ,45.1708 ,1.29585 ,1.12690 ,11.05710 
219 ,45.3469 ,1.29781 ,1.10294 ,10.82206 
220 ,45.5711 ,1.29986 ,1.11321 ,10.92279 
221 ,45.7787 ,1.30199 ,1.08241 ,10.62059 
222 ,45.9874 ,1.30406 ,1.06530 ,10.45270 
223 ,46.2111 ,1.30625 ,1.06187 ,10.41912 
224 ,46.4193 ,1.30833 ,1.04819 ,10.28480 
225 ,46.6114 ,1.31039 ,1.02765 ,10.08333 
226 ,46.8195 ,1.31240 ,1.00712 ,9.88186 
227 ,47.0114 ,1.31429 ,0.99685 ,9.78113 
228 ,47.2196 ,1.31641 ,0.97974 ,9.61324 
229 ,47.4118 ,1.31833 ,0.97632 ,9.57966 
230 ,47.6195 ,1.32033 ,0.95579 ,9.37819 
231 ,47.8120 ,1.32231 ,0.94894 ,9.31103 
232 ,48.0035 ,1.32432 ,0.92499 ,9.07598 
233 ,48.2121 ,1.32638 ,0.92157 ,9.04241 
234 ,48.4202 ,1.32840 ,0.90788 ,8.90809 
235 ,48.6279 ,1.33044 ,0.89761 ,8.80736 
236 ,48.8363 ,1.33253 ,0.87023 ,8.53873 
237 ,49.0443 ,1.33463 ,0.85312 ,8.37084 
238 ,49.2682 ,1.33686 ,0.84286 ,8.27011 
239 ,49.4766 ,1.33895 ,0.83601 ,8.20295 
240 ,49.6846 ,1.34100 ,0.81548 ,8.00148 
241 ,49.8767 ,1.34298 ,0.80521 ,7.90074 
242 ,50.0688 ,1.34486 ,0.78468 ,7.69927 
243 ,50.2764 ,1.34690 ,0.77441 ,7.59854 
244 ,50.4690 ,1.34890 ,0.76415 ,7.49780 
245 ,50.6931 ,1.35104 ,0.75730 ,7.43065 
246 ,50.9012 ,1.35317 ,0.72992 ,7.16202 
247 ,51.1252 ,1.35538 ,0.71966 ,7.06129 
248 ,51.3169 ,1.35736 ,0.70939 ,6.96055 
249 ,51.5255 ,1.35945 ,0.68886 ,6.75908 
250 ,51.7335 ,1.36150 ,0.69570 ,6.82624 
251 ,51.9256 ,1.36356 ,0.66490 ,6.52403 
252 ,52.1177 ,1.36538 ,0.65464 ,6.42330 
253 ,52.3258 ,1.36744 ,0.63410 ,6.22183 
254 ,52.5338 ,1.36961 ,0.64095 ,6.28899 
255 ,52.7259 ,1.37149 ,0.61357 ,6.02036 
256 ,52.9180 ,1.37337 ,0.61015 ,5.98678 
257 ,53.1422 ,1.37557 ,0.57593 ,5.65100 
258 ,53.3501 ,1.37764 ,0.59304 ,5.81889 
259 ,53.5421 ,1.37958 ,0.55539 ,5.44953 
260 ,53.7822 ,1.38187 ,0.54855 ,5.38237 
261 ,53.9904 ,1.38411 ,0.54171 ,5.31522 
262 ,54.1822 ,1.38603 ,0.51775 ,5.08017 
263 ,54.4067 ,1.38821 ,0.51091 ,5.01301 
264 ,54.6146 ,1.39029 ,0.50748 ,4.97943 
265 ,54.7906 ,1.39221 ,0.48011 ,4.71081 
266 ,54.9828 ,1.39396 ,0.45273 ,4.44218 
267 ,55.1911 ,1.39605 ,0.46300 ,4.54291 
268 ,55.3990 ,1.39819 ,0.45615 ,4.47576 
269 ,55.6070 ,1.40022 ,0.44246 ,4.34144 
270 ,55.8147 ,1.40227 ,0.42535 ,4.17355 
271 ,56.0233 ,1.40446 ,0.39455 ,3.87135 
272 ,56.2313 ,1.40645 ,0.40482 ,3.97208 
273 ,56.4394 ,1.40849 ,0.37402 ,3.66988 
274 ,56.6636 ,1.41065 ,0.37060 ,3.63630 
275 ,56.8716 ,1.41279 ,0.36033 ,3.53557 
276 ,57.0958 ,1.41507 ,0.34322 ,3.36767 
277 ,57.3039 ,1.41724 ,0.32611 ,3.19978 
278 ,57.4958 ,1.41924 ,0.32953 ,3.23336 
279 ,57.7040 ,1.42116 ,0.30215 ,2.96473 
280 ,57.9120 ,1.42322 ,0.31584 ,3.09905 
281 ,58.1200 ,1.42529 ,0.27820 ,2.72969 
282 ,58.3282 ,1.42741 ,0.27135 ,2.66253 
283 ,58.5363 ,1.42959 ,0.27478 ,2.69611 
284 ,58.7284 ,1.43144 ,0.25082 ,2.46106 
285 ,58.9525 ,1.43365 ,0.24055 ,2.36032 
286 ,59.1601 ,1.43574 ,0.20976 ,2.05812 
287 ,59.3687 ,1.43784 ,0.21318 ,2.09170 
288 ,59.5766 ,1.43995 ,0.19949 ,1.95738 
289 ,59.7689 ,1.44184 ,0.17211 ,1.68876 
290 ,59.9767 ,1.44397 ,0.18580 ,1.82307 
291 ,60.1847 ,1.44597 ,0.15500 ,1.52087 
292 ,60.3928 ,1.44808 ,0.15842 ,1.55445 
293 ,60.5850 ,1.44998 ,0.13105 ,1.28582 
294 ,60.8092 ,1.45218 ,0.12078 ,1.18508 
295 ,61.0174 ,1.45425 ,0.11736 ,1.15151 
296 ,61.2254 ,1.45635 ,0.08656 ,0.84930 
297 ,61.4331 ,1.45850 ,0.10709 ,1.05077 
298 ,61.6256 ,1.46044 ,0.06602 ,0.64783 
299 ,61.8337 ,1.46245 ,0.07287 ,0.71499 
300 ,62.0738 ,1.46473 ,0.04891 ,0.47994 
301 ,62.2813 ,1.46697 ,0.03865 ,0.37920 
302 ,62.4734 ,1.46901 ,0.03180 ,0.31205 
303 ,62.6975 ,1.47108 ,0.03522 ,0.34563 
304 ,62.9060 ,1.47320 ,-0.00242 ,-0.02373 
305 ,63.1462 ,1.47566 ,-0.01611 ,-0.15805 
306 ,63.3542 ,1.47768 ,0.00100 ,0.00984 
307 ,63.5463 ,1.47958 ,-0.02980 ,-0.29236 
308 ,63.7543 ,1.48165 ,-0.01953 ,-0.19163 
309 ,63.9621 ,1.48381 ,-0.04006 ,-0.39310 
310 ,64.1547 ,1.48566 ,-0.03322 ,-0.32594 
311 ,64.3786 ,1.48787 ,-0.06744 ,-0.66172 
312 ,64.5866 ,1.48996 ,-0.08113 ,-0.79604 
313 ,64.7789 ,1.49200 ,-0.07771 ,-0.76246 
314 ,64.9707 ,1.49382 ,-0.08797 ,-0.86319 
315 ,65.1791 ,1.49590 ,-0.09482 ,-0.93035 
316 ,65.3868 ,1.49797 ,-0.13931 ,-1.36687 
317 ,65.5792 ,1.49993 ,-0.12219 ,-1.19898 
318 ,65.7871 ,1.50200 ,-0.14957 ,-1.46760 
319 ,65.9952 ,1.50407 ,-0.14273 ,-1.40045 
320 ,66.2035 ,1.50614 ,-0.16326 ,-1.60191 
321 ,66.4116 ,1.50828 ,-0.17353 ,-1.70265 
322 ,66.6037 ,1.51019 ,-0.18722 ,-1.83696 
323 ,66.8275 ,1.51230 ,-0.20090 ,-1.97128 
324 ,67.0198 ,1.51430 ,-0.19748 ,-1.93770 
325 ,67.2278 ,1.51641 ,-0.23170 ,-2.27348 
326 ,67.4360 ,1.51845 ,-0.22144 ,-2.17275 
327 ,67.6437 ,1.52049 ,-0.25908 ,-2.54211 
328 ,67.8360 ,1.52248 ,-0.25566 ,-2.50853 
329 ,68.0279 ,1.52440 ,-0.27277 ,-2.67642 
330 ,68.2522 ,1.52653 ,-0.26593 ,-2.60926 
331 ,68.4760 ,1.52886 ,-0.28646 ,-2.81073 
332 ,68.6685 ,1.53078 ,-0.30357 ,-2.97863 
333 ,68.8928 ,1.53303 ,-0.30357 ,-2.97863 
334 ,69.0848 ,1.53498 ,-0.32410 ,-3.18010 
335 ,69.2927 ,1.53709 ,-0.34464 ,-3.38156 
336 ,69.4851 ,1.53898 ,-0.35490 ,-3.48230 
337 ,69.6769 ,1.54093 ,-0.34464 ,-3.38156 
338 ,69.8689 ,1.54278 ,-0.37886 ,-3.71735 
339 ,70.0611 ,1.54475 ,-0.36517 ,-3.58303 
340 ,70.2530 ,1.54667 ,-0.38570 ,-3.78450 
341 ,70.4771 ,1.54886 ,-0.38570 ,-3.78450 
342 ,70.6855 ,1.55099 ,-0.41650 ,-4.08671 
343 ,70.8934 ,1.55313 ,-0.43019 ,-4.22102 
344 ,71.0855 ,1.55505 ,-0.42335 ,-4.15387 
345 ,71.2776 ,1.55690 ,-0.42677 ,-4.18744 
346 ,71.4855 ,1.55891 ,-0.45757 ,-4.48965 
347 ,71.6775 ,1.56085 ,-0.44730 ,-4.38891 
348 ,71.8698 ,1.56279 ,-0.48837 ,-4.79185 
349 ,72.0779 ,1.56482 ,-0.46099 ,-4.52323 
350 ,72.2862 ,1.56692 ,-0.49863 ,-4.89259 
351 ,72.4938 ,1.56897 ,-0.49521 ,-4.85901 
352 ,72.7018 ,1.57111 ,-0.48837 ,-4.79185 
353 ,72.9103 ,1.57320 ,-0.51232 ,-5.02690 
354 ,73.1184 ,1.57527 ,-0.50548 ,-4.95975 
355 ,73.3425 ,1.57750 ,-0.53628 ,-5.26195 
356 ,73.5667 ,1.57970 ,-0.54654 ,-5.36268 
357 ,73.7745 ,1.58178 ,-0.54312 ,-5.32911 
358 ,73.9826 ,1.58396 ,-0.54312 ,-5.32911 
359 ,74.1747 ,1.58582 ,-0.56365 ,-5.53058 
360 ,74.3669 ,1.58776 ,-0.59445 ,-5.83278 
361 ,74.5750 ,1.58981 ,-0.58077 ,-5.69847 
362 ,74.7826 ,1.59186 ,-0.60472 ,-5.93352 
363 ,74.9750 ,1.59381 ,-0.61499 ,-6.03425 
364 ,75.1672 ,1.59576 ,-0.61499 ,-6.03425 
365 ,75.3751 ,1.59780 ,-0.62525 ,-6.13499 
366 ,75.5832 ,1.59989 ,-0.64579 ,-6.33646 
367 ,75.7913 ,1.60197 ,-0.66290 ,-6.50435 
368 ,75.9995 ,1.60413 ,-0.64236 ,-6.30288 
369 ,76.2079 ,1.60618 ,-0.66974 ,-6.57150 
370 ,76.4158 ,1.60822 ,-0.67659 ,-6.63866 
371 ,76.6237 ,1.61031 ,-0.68001 ,-6.67224 
372 ,76.8160 ,1.61226 ,-0.69370 ,-6.80655 
373 ,77.0239 ,1.61437 ,-0.70739 ,-6.94086 
374 ,77.2161 ,1.61628 ,-0.73134 ,-7.17591 
375 ,77.4081 ,1.61819 ,-0.73818 ,-7.24307 
376 ,77.6322 ,1.62036 ,-0.74503 ,-7.31023 
377 ,77.8244 ,1.62229 ,-0.75187 ,-7.37738 
378 ,78.0321 ,1.62440 ,-0.77241 ,-7.57885 
379 ,78.2405 ,1.62644 ,-0.76556 ,-7.51170 
380 ,78.4646 ,1.62869 ,-0.77925 ,-7.64601 
381 ,78.6567 ,1.63061 ,-0.78610 ,-7.71317 
382 ,78.8806 ,1.63287 ,-0.78952 ,-7.74674 
383 ,79.0729 ,1.63477 ,-0.81347 ,-7.98179 
384 ,79.2808 ,1.63686 ,-0.82032 ,-8.04895 
385 ,79.4893 ,1.63896 ,-0.83401 ,-8.18326 
386 ,79.6970 ,1.64097 ,-0.83058 ,-8.14968 
387 ,79.8891 ,1.64299 ,-0.86481 ,-8.48547 
388 ,80.0813 ,1.64492 ,-0.83401 ,-8.18326 
389 ,80.2890 ,1.64698 ,-0.87507 ,-8.58620 
390 ,80.4975 ,1.64904 ,-0.87849 ,-8.61978 
391 ,80.7056 ,1.65115 ,-0.88876 ,-8.72051 
392 ,80.9137 ,1.65315 ,-0.89218 ,-8.75409 
393 ,81.1378 ,1.65540 ,-0.89560 ,-8.78767 
394 ,81.3298 ,1.65734 ,-0.92298 ,-9.05630 
395 ,81.5376 ,1.65938 ,-0.90587 ,-8.88841 
396 ,81.7461 ,1.66148 ,-0.92640 ,-9.08988 
397 ,81.9541 ,1.66357 ,-0.94009 ,-9.22419 
398 ,82.1622 ,1.66571 ,-0.94351 ,-9.25777 
399 ,82.3700 ,1.66772 ,-0.97774 ,-9.59355 
400 ,82.5620 ,1.66972 ,-0.96405 ,-9.45924 
401 ,82.7382 ,1.67158 ,-0.98458 ,-9.66071 
402 ,82.9465 ,1.67352 ,-0.98800 ,-9.69429 
403 ,83.1382 ,1.67546 ,-0.98116 ,-9.62713 
404 ,83.3307 ,1.67734 ,-1.00854 ,-9.89576 
405 ,83.5388 ,1.67944 ,-0.99827 ,-9.79502 
406 ,83.7625 ,1.68167 ,-1.00854 ,-9.89576 
407 ,83.9544 ,1.68371 ,-1.04960 ,-10.29869 
408 ,84.1626 ,1.68563 ,-1.02907 ,-10.09723 
409 ,84.3868 ,1.68789 ,-1.04960 ,-10.29869 
410 ,84.5793 ,1.68985 ,-1.04276 ,-10.23154 
411 ,84.7869 ,1.69197 ,-1.05645 ,-10.36585 
412 ,84.9955 ,1.69396 ,-1.06671 ,-10.46659 
413 ,85.2035 ,1.69608 ,-1.05987 ,-10.39943 
414 ,85.4115 ,1.69811 ,-1.08725 ,-10.66806 
415 ,85.6196 ,1.70027 ,-1.08725 ,-10.66806 
416 ,85.8114 ,1.70222 ,-1.11805 ,-10.97026 
417 ,86.0196 ,1.70429 ,-1.10093 ,-10.80237 
418 ,86.2277 ,1.70632 ,-1.12831 ,-11.07100 
419 ,86.4359 ,1.70834 ,-1.13173 ,-11.10457 
420 ,86.6282 ,1.71033 ,-1.13516 ,-11.13815 
421 ,86.8522 ,1.71250 ,-1.15569 ,-11.33962 
422 ,87.0762 ,1.71473 ,-1.15911 ,-11.37320 
423 ,87.2843 ,1.71684 ,-1.15569 ,-11.33962 
424 ,87.4764 ,1.71881 ,-1.18307 ,-11.60825 
425 ,87.7005 ,1.72099 ,-1.16596 ,-11.44036 
426 ,87.8929 ,1.72296 ,-1.19333 ,-11.70898 
427 ,88.1167 ,1.72515 ,-1.20702 ,-11.84330 
428 ,88.3088 ,1.72712 ,-1.21044 ,-11.87688 
429 ,88.5166 ,1.72914 ,-1.21387 ,-11.91045 
430 ,88.7410 ,1.73136 ,-1.21387 ,-11.91045 
431 ,88.9490 ,1.73350 ,-1.23782 ,-12.14550 
432 ,89.1567 ,1.73556 ,-1.25151 ,-12.27981 
433 ,89.3651 ,1.73767 ,-1.24467 ,-12.21266 
434 ,89.5732 ,1.73981 ,-1.27547 ,-12.51486 
435 ,89.7974 ,1.74195 ,-1.27204 ,-12.48128 
436 ,90.0056 ,1.74401 ,-1.28231 ,-12.58202 
437 ,90.2132 ,1.74628 ,-1.29942 ,-12.74991 
438 ,90.4217 ,1.74827 ,-1.29942 ,-12.74991 
439 ,90.6618 ,1.75051 ,-1.30626 ,-12.81707 
440 ,90.8697 ,1.75268 ,-1.31995 ,-12.95138 
441 ,91.0939 ,1.75490 ,-1.33022 ,-13.05212 
442 ,91.2861 ,1.75689 ,-1.31995 ,-12.95138 
443 ,91.5100 ,1.75911 ,-1.35417 ,-13.28716 
444 ,91.7342 ,1.76134 ,-1.36102 ,-13.35432 
445 ,91.9582 ,1.76353 ,-1.35760 ,-13.32074 
446 ,92.1503 ,1.76554 ,-1.37813 ,-13.52221 
447 ,92.3584 ,1.76761 ,-1.38155 ,-13.55579 
448 ,92.5665 ,1.76971 ,-1.37471 ,-13.48863 
449 ,92.7585 ,1.77163 ,-1.39866 ,-13.72368 
450 ,92.9666 ,1.77370 ,-1.39182 ,-13.65653 
451 ,93.1584 ,1.77561 ,-1.41235 ,-13.85799 
452 ,93.3668 ,1.77764 ,-1.40893 ,-13.82442 
453 ,93.5745 ,1.77968 ,-1.43288 ,-14.05946 
454 ,93.7828 ,1.78186 ,-1.42604 ,-13.99231 
455 ,93.9911 ,1.78390 ,-1.45684 ,-14.29451 
456 ,94.1992 ,1.78599 ,-1.45000 ,-14.22736 
457 ,94.3913 ,1.78806 ,-1.45342 ,-14.26093 
458 ,94.6154 ,1.79002 ,-1.45342 ,-14.26093 
459 ,94.8234 ,1.79225 ,-1.47053 ,-14.42883 
460 ,95.0315 ,1.79432 ,-1.48080 ,-14.52956 
