Data stamp = , 17-05-2022 18:43:01 908

Calibration Values: 
Slope = , 26.54 , g/V 
Offset Voltage at no contact = , -0.501760 , V 

No , Time , Stage Position ,   Mass , Force 
   ,  (s) ,      (mm)      ,   (g)  , (mN)  

1 ,0.0000 ,0.84958 ,5.14110 ,50.44445 
2 ,0.3615 ,0.84990 ,5.15479 ,50.57876 
3 ,0.8578 ,0.85212 ,5.14452 ,50.47803 
4 ,1.0819 ,0.85515 ,5.14110 ,50.44445 
5 ,1.2901 ,0.85719 ,5.15821 ,50.61234 
6 ,1.4982 ,0.85921 ,5.13768 ,50.41087 
7 ,1.7058 ,0.86144 ,5.14110 ,50.44445 
8 ,1.9302 ,0.86351 ,5.14110 ,50.44445 
9 ,2.1545 ,0.86582 ,5.10003 ,50.04151 
10 ,2.3626 ,0.86787 ,5.07950 ,49.84004 
11 ,2.5865 ,0.87018 ,5.06581 ,49.70573 
12 ,2.7623 ,0.87208 ,5.03843 ,49.43710 
13 ,2.9708 ,0.87408 ,5.03843 ,49.43710 
14 ,3.1948 ,0.87621 ,4.99737 ,49.03416 
15 ,3.4030 ,0.87831 ,4.98026 ,48.86627 
16 ,3.6266 ,0.88057 ,4.95630 ,48.63122 
17 ,3.8351 ,0.88262 ,4.94261 ,48.49691 
18 ,4.0431 ,0.88477 ,4.91523 ,48.22828 
19 ,4.2670 ,0.88692 ,4.89128 ,47.99324 
20 ,4.4915 ,0.88924 ,4.87759 ,47.85892 
21 ,4.6995 ,0.89127 ,4.82626 ,47.35525 
22 ,4.9235 ,0.89350 ,4.80573 ,47.15378 
23 ,5.1315 ,0.89557 ,4.80915 ,47.18736 
24 ,5.3234 ,0.89765 ,4.76466 ,46.75084 
25 ,5.5159 ,0.89947 ,4.76808 ,46.78442 
26 ,5.7395 ,0.90169 ,4.73386 ,46.44863 
27 ,5.9479 ,0.90376 ,4.72017 ,46.31432 
28 ,6.1556 ,0.90584 ,4.69964 ,46.11285 
29 ,6.3482 ,0.90787 ,4.65173 ,45.64275 
30 ,6.5722 ,0.91001 ,4.65173 ,45.64275 
31 ,6.7807 ,0.91211 ,4.62093 ,45.34055 
32 ,6.9886 ,0.91409 ,4.61408 ,45.27339 
33 ,7.1963 ,0.91623 ,4.59013 ,45.03835 
34 ,7.4686 ,0.91892 ,4.55933 ,44.73614 
35 ,7.6926 ,0.92120 ,4.53195 ,44.46751 
36 ,7.9008 ,0.92327 ,4.49431 ,44.09815 
37 ,8.1087 ,0.92545 ,4.48746 ,44.03100 
38 ,8.3166 ,0.92746 ,4.46009 ,43.76237 
39 ,8.5252 ,0.92951 ,4.43613 ,43.52732 
40 ,8.7492 ,0.93177 ,4.41902 ,43.35943 
41 ,8.9893 ,0.93407 ,4.39849 ,43.15796 
42 ,9.1974 ,0.93625 ,4.38822 ,43.05723 
43 ,9.4055 ,0.93837 ,4.33689 ,42.55355 
44 ,9.6294 ,0.94052 ,4.33347 ,42.51997 
45 ,9.8535 ,0.94281 ,4.31293 ,42.31850 
46 ,10.0617 ,0.94492 ,4.28556 ,42.04988 
47 ,10.2698 ,0.94697 ,4.25133 ,41.71409 
48 ,10.4777 ,0.94901 ,4.25476 ,41.74767 
49 ,10.6857 ,0.95113 ,4.20342 ,41.24400 
50 ,10.8939 ,0.95320 ,4.19316 ,41.14326 
51 ,11.1020 ,0.95530 ,4.15894 ,40.80748 
52 ,11.3260 ,0.95747 ,4.13840 ,40.60601 
53 ,11.5182 ,0.95951 ,4.12814 ,40.50527 
54 ,11.7418 ,0.96167 ,4.10418 ,40.27023 
55 ,11.9344 ,0.96363 ,4.09049 ,40.13591 
56 ,12.1423 ,0.96566 ,4.06312 ,39.86729 
57 ,12.3504 ,0.96782 ,4.04258 ,39.66582 
58 ,12.5746 ,0.96999 ,4.02547 ,39.49793 
59 ,12.7504 ,0.97193 ,3.99125 ,39.16214 
60 ,12.9588 ,0.97390 ,3.99125 ,39.16214 
61 ,13.1669 ,0.97599 ,3.95703 ,38.82636 
62 ,13.3753 ,0.97802 ,3.94676 ,38.72562 
63 ,13.5828 ,0.98009 ,3.92623 ,38.52415 
64 ,13.7752 ,0.98213 ,3.89885 ,38.25553 
65 ,13.9833 ,0.98403 ,3.87147 ,37.98690 
66 ,14.1754 ,0.98604 ,3.86805 ,37.95332 
67 ,14.3835 ,0.98812 ,3.83041 ,37.58396 
68 ,14.6075 ,0.99031 ,3.79961 ,37.28176 
69 ,14.8316 ,0.99257 ,3.77908 ,37.08029 
70 ,15.0556 ,0.99481 ,3.77223 ,37.01313 
71 ,15.2477 ,0.99675 ,3.74485 ,36.74450 
72 ,15.4396 ,0.99867 ,3.74485 ,36.74450 
73 ,15.6639 ,1.00089 ,3.70721 ,36.37514 
74 ,15.8722 ,1.00299 ,3.68668 ,36.17367 
75 ,16.0957 ,1.00516 ,3.66957 ,36.00578 
76 ,16.3042 ,1.00732 ,3.64561 ,35.77073 
77 ,16.5123 ,1.00942 ,3.61139 ,35.43495 
78 ,16.7363 ,1.01156 ,3.61481 ,35.46853 
79 ,16.9443 ,1.01367 ,3.57717 ,35.09917 
80 ,17.1526 ,1.01581 ,3.53610 ,34.69623 
81 ,17.3926 ,1.01807 ,3.54637 ,34.79696 
82 ,17.6005 ,1.02022 ,3.52241 ,34.56192 
83 ,17.8085 ,1.02232 ,3.47450 ,34.09182 
84 ,18.0168 ,1.02444 ,3.47792 ,34.12540 
85 ,18.2731 ,1.02696 ,3.43686 ,33.72246 
86 ,18.4970 ,1.02930 ,3.43344 ,33.68888 
87 ,18.7211 ,1.03147 ,3.40606 ,33.42025 
88 ,18.9291 ,1.03354 ,3.36842 ,33.05089 
89 ,19.1533 ,1.03577 ,3.35130 ,32.88300 
90 ,19.3452 ,1.03778 ,3.34788 ,32.84942 
91 ,19.5695 ,1.03997 ,3.30682 ,32.44648 
92 ,19.7778 ,1.04202 ,3.28628 ,32.24501 
93 ,19.9857 ,1.04408 ,3.28286 ,32.21143 
94 ,20.2098 ,1.04629 ,3.23495 ,31.74134 
95 ,20.4178 ,1.04841 ,3.23153 ,31.70776 
96 ,20.6257 ,1.05053 ,3.21784 ,31.57345 
97 ,20.8340 ,1.05263 ,3.16651 ,31.06977 
98 ,21.0581 ,1.05480 ,3.16993 ,31.10335 
99 ,21.2660 ,1.05689 ,3.14255 ,30.83472 
100 ,21.4744 ,1.05902 ,3.11175 ,30.53252 
101 ,21.6819 ,1.06103 ,3.11175 ,30.53252 
102 ,21.8744 ,1.06302 ,3.07411 ,30.16316 
103 ,22.0663 ,1.06493 ,3.07753 ,30.19674 
104 ,22.2746 ,1.06693 ,3.05700 ,29.99527 
105 ,22.4828 ,1.06907 ,3.04331 ,29.86095 
106 ,22.6909 ,1.07114 ,3.00224 ,29.45801 
107 ,22.9150 ,1.07337 ,2.97829 ,29.22297 
108 ,23.1229 ,1.07550 ,2.98171 ,29.25654 
109 ,23.3311 ,1.07753 ,2.93722 ,28.82003 
110 ,23.5550 ,1.07977 ,2.91327 ,28.58498 
111 ,23.7633 ,1.08181 ,2.91669 ,28.61856 
112 ,23.9711 ,1.08401 ,2.86536 ,28.11488 
113 ,24.1635 ,1.08592 ,2.87220 ,28.18204 
114 ,24.3717 ,1.08795 ,2.82429 ,27.71194 
115 ,24.5954 ,1.09015 ,2.82087 ,27.67836 
116 ,24.7877 ,1.09213 ,2.80376 ,27.51047 
117 ,24.9952 ,1.09427 ,2.76611 ,27.14111 
118 ,25.1878 ,1.09614 ,2.76954 ,27.17469 
119 ,25.4119 ,1.09839 ,2.74558 ,26.93964 
120 ,25.6197 ,1.10045 ,2.72163 ,26.70459 
121 ,25.8279 ,1.10247 ,2.69767 ,26.46954 
122 ,26.0357 ,1.10452 ,2.67029 ,26.20092 
123 ,26.2441 ,1.10668 ,2.69083 ,26.40239 
124 ,26.4524 ,1.10873 ,2.64292 ,25.93229 
125 ,26.6763 ,1.11098 ,2.62581 ,25.76440 
126 ,26.8845 ,1.11308 ,2.62238 ,25.73082 
127 ,27.0924 ,1.11509 ,2.57789 ,25.29430 
128 ,27.3006 ,1.11719 ,2.58132 ,25.32788 
129 ,27.5088 ,1.11929 ,2.56421 ,25.15999 
130 ,27.7328 ,1.12155 ,2.53341 ,24.85779 
131 ,27.9407 ,1.12360 ,2.53341 ,24.85779 
132 ,28.1489 ,1.12573 ,2.49918 ,24.52200 
133 ,28.3406 ,1.12771 ,2.46496 ,24.18622 
134 ,28.5330 ,1.12953 ,2.46496 ,24.18622 
135 ,28.7251 ,1.13162 ,2.43759 ,23.91759 
136 ,28.9331 ,1.13353 ,2.41363 ,23.68255 
137 ,29.1252 ,1.13557 ,2.41705 ,23.71612 
138 ,29.3333 ,1.13755 ,2.38968 ,23.44750 
139 ,29.5415 ,1.13965 ,2.38968 ,23.44750 
140 ,29.7977 ,1.14213 ,2.34177 ,22.97740 
141 ,30.0059 ,1.14424 ,2.35203 ,23.07814 
142 ,30.2139 ,1.14640 ,2.32123 ,22.77593 
143 ,30.4059 ,1.14835 ,2.29728 ,22.54088 
144 ,30.6139 ,1.15033 ,2.27332 ,22.30584 
145 ,30.8221 ,1.15239 ,2.26306 ,22.20510 
146 ,31.0302 ,1.15446 ,2.24252 ,22.00363 
147 ,31.2382 ,1.15654 ,2.21857 ,21.76858 
148 ,31.4463 ,1.15867 ,2.23568 ,21.93647 
149 ,31.6540 ,1.16075 ,2.19119 ,21.49996 
150 ,31.8465 ,1.16272 ,2.19119 ,21.49996 
151 ,32.0545 ,1.16476 ,2.15355 ,21.13059 
152 ,32.2628 ,1.16686 ,2.14328 ,21.02986 
153 ,32.4707 ,1.16892 ,2.13986 ,20.99628 
154 ,32.6626 ,1.17088 ,2.10564 ,20.66050 
155 ,32.8712 ,1.17292 ,2.10906 ,20.69408 
156 ,33.0950 ,1.17510 ,2.07484 ,20.35829 
157 ,33.3032 ,1.17721 ,2.05773 ,20.19040 
158 ,33.5271 ,1.17941 ,2.04746 ,20.08967 
159 ,33.7194 ,1.18138 ,2.02693 ,19.88820 
160 ,33.9433 ,1.18365 ,2.01666 ,19.78746 
161 ,34.1516 ,1.18566 ,2.00639 ,19.68673 
162 ,34.3594 ,1.18776 ,1.97902 ,19.41810 
163 ,34.5837 ,1.18998 ,1.97217 ,19.35094 
164 ,34.7762 ,1.19199 ,1.94822 ,19.11590 
165 ,34.9838 ,1.19410 ,1.92426 ,18.88085 
166 ,35.1758 ,1.19595 ,1.92426 ,18.88085 
167 ,35.3841 ,1.19804 ,1.88662 ,18.51149 
168 ,35.6081 ,1.20021 ,1.89688 ,18.61222 
169 ,35.8161 ,1.20232 ,1.86951 ,18.34360 
170 ,36.0238 ,1.20454 ,1.84897 ,18.14213 
171 ,36.2322 ,1.20659 ,1.85582 ,18.20928 
172 ,36.4403 ,1.20855 ,1.81817 ,17.83992 
173 ,36.6644 ,1.21084 ,1.79764 ,17.63845 
174 ,36.8729 ,1.21291 ,1.79080 ,17.57129 
175 ,37.0963 ,1.21511 ,1.77711 ,17.43698 
176 ,37.3047 ,1.21725 ,1.74973 ,17.16836 
177 ,37.5288 ,1.21945 ,1.73946 ,17.06762 
178 ,37.7368 ,1.22153 ,1.72578 ,16.93331 
179 ,37.9449 ,1.22362 ,1.70524 ,16.73184 
180 ,38.1531 ,1.22572 ,1.70866 ,16.76542 
181 ,38.3930 ,1.22801 ,1.67444 ,16.42963 
182 ,38.6171 ,1.23032 ,1.65391 ,16.22816 
183 ,38.8254 ,1.23239 ,1.62653 ,15.95954 
184 ,39.0334 ,1.23449 ,1.64022 ,16.09385 
185 ,39.2575 ,1.23672 ,1.59916 ,15.69091 
186 ,39.4655 ,1.23882 ,1.58889 ,15.59018 
187 ,39.6738 ,1.24096 ,1.58547 ,15.55660 
188 ,39.8977 ,1.24311 ,1.56836 ,15.38871 
189 ,40.1058 ,1.24523 ,1.54098 ,15.12008 
190 ,40.3300 ,1.24742 ,1.52729 ,14.98577 
191 ,40.5540 ,1.24983 ,1.50333 ,14.75072 
192 ,40.7458 ,1.25171 ,1.48965 ,14.61640 
193 ,40.9703 ,1.25386 ,1.48280 ,14.54925 
194 ,41.1781 ,1.25590 ,1.47596 ,14.48209 
195 ,41.3863 ,1.25800 ,1.43831 ,14.11273 
196 ,41.6100 ,1.26025 ,1.42462 ,13.97842 
197 ,41.8185 ,1.26230 ,1.41436 ,13.87768 
198 ,42.0265 ,1.26439 ,1.39383 ,13.67621 
199 ,42.2347 ,1.26651 ,1.39040 ,13.64263 
200 ,42.4427 ,1.26855 ,1.35618 ,13.30685 
201 ,42.6666 ,1.27081 ,1.33907 ,13.13896 
202 ,42.8910 ,1.27310 ,1.32196 ,12.97107 
203 ,43.0992 ,1.27513 ,1.32880 ,13.03822 
204 ,43.3070 ,1.27723 ,1.29800 ,12.73602 
205 ,43.5309 ,1.27944 ,1.28089 ,12.56813 
206 ,43.7234 ,1.28142 ,1.26720 ,12.43381 
207 ,43.9473 ,1.28361 ,1.25694 ,12.33308 
208 ,44.1712 ,1.28583 ,1.23983 ,12.16519 
209 ,44.3794 ,1.28791 ,1.23298 ,12.09803 
210 ,44.5877 ,1.29000 ,1.19192 ,11.69509 
211 ,44.7957 ,1.29211 ,1.19876 ,11.76225 
212 ,45.0033 ,1.29412 ,1.18165 ,11.59436 
213 ,45.2274 ,1.29638 ,1.15427 ,11.32573 
214 ,45.4516 ,1.29865 ,1.15085 ,11.29215 
215 ,45.6602 ,1.30078 ,1.14743 ,11.25857 
216 ,45.8842 ,1.30300 ,1.11321 ,10.92279 
217 ,46.0922 ,1.30518 ,1.09267 ,10.72132 
218 ,46.2843 ,1.30700 ,1.10294 ,10.82206 
219 ,46.4922 ,1.30906 ,1.07214 ,10.51985 
220 ,46.7162 ,1.31132 ,1.06187 ,10.41912 
221 ,46.9245 ,1.31335 ,1.05503 ,10.35196 
222 ,47.1323 ,1.31544 ,1.02423 ,10.04976 
223 ,47.3406 ,1.31754 ,1.03108 ,10.11691 
224 ,47.5649 ,1.31974 ,0.99685 ,9.78113 
225 ,47.7889 ,1.32197 ,0.97290 ,9.54608 
226 ,47.9810 ,1.32406 ,0.96948 ,9.51250 
227 ,48.1887 ,1.32600 ,0.95237 ,9.34461 
228 ,48.3972 ,1.32808 ,0.96263 ,9.44535 
229 ,48.6211 ,1.33037 ,0.93183 ,9.14314 
230 ,48.8288 ,1.33242 ,0.90788 ,8.90809 
231 ,49.0375 ,1.33452 ,0.90788 ,8.90809 
232 ,49.2615 ,1.33672 ,0.89419 ,8.77378 
233 ,49.4694 ,1.33877 ,0.86339 ,8.47158 
234 ,49.6778 ,1.34094 ,0.85997 ,8.43800 
235 ,49.8856 ,1.34296 ,0.84628 ,8.30368 
236 ,50.0938 ,1.34505 ,0.83943 ,8.23653 
237 ,50.3020 ,1.34713 ,0.83601 ,8.20295 
238 ,50.5096 ,1.34932 ,0.79495 ,7.80001 
239 ,50.7019 ,1.35114 ,0.80521 ,7.90074 
240 ,50.9260 ,1.35333 ,0.76757 ,7.53138 
241 ,51.1182 ,1.35529 ,0.76757 ,7.53138 
242 ,51.3585 ,1.35751 ,0.75388 ,7.39707 
243 ,51.5821 ,1.35991 ,0.74704 ,7.32991 
244 ,51.7906 ,1.36203 ,0.71624 ,7.02771 
245 ,52.0147 ,1.36424 ,0.70255 ,6.89340 
246 ,52.2227 ,1.36634 ,0.69570 ,6.82624 
247 ,52.4308 ,1.36841 ,0.66833 ,6.55761 
248 ,52.6066 ,1.37031 ,0.66833 ,6.55761 
249 ,52.8310 ,1.37246 ,0.64437 ,6.32256 
250 ,53.0392 ,1.37452 ,0.64779 ,6.35614 
251 ,53.2472 ,1.37656 ,0.62726 ,6.15467 
252 ,53.4713 ,1.37882 ,0.59988 ,5.88605 
253 ,53.6953 ,1.38105 ,0.59988 ,5.88605 
254 ,53.9037 ,1.38315 ,0.58277 ,5.71815 
255 ,54.1116 ,1.38532 ,0.56908 ,5.58384 
256 ,54.3197 ,1.38727 ,0.56566 ,5.55026 
257 ,54.5277 ,1.38936 ,0.54171 ,5.31522 
258 ,54.7198 ,1.39137 ,0.54171 ,5.31522 
259 ,54.9275 ,1.39341 ,0.52117 ,5.11375 
260 ,55.1196 ,1.39535 ,0.52117 ,5.11375 
261 ,55.3280 ,1.39733 ,0.48353 ,4.74438 
262 ,55.5361 ,1.39946 ,0.47668 ,4.67723 
263 ,55.7439 ,1.40154 ,0.48011 ,4.71081 
264 ,55.9361 ,1.40348 ,0.44588 ,4.37502 
265 ,56.1440 ,1.40555 ,0.44931 ,4.40860 
266 ,56.3361 ,1.40758 ,0.41509 ,4.07282 
267 ,56.5285 ,1.40941 ,0.42193 ,4.13997 
268 ,56.7363 ,1.41151 ,0.40482 ,3.97208 
269 ,56.9447 ,1.41354 ,0.39797 ,3.90493 
270 ,57.1364 ,1.41555 ,0.38086 ,3.73703 
271 ,57.3289 ,1.41743 ,0.37060 ,3.63630 
272 ,57.5206 ,1.41935 ,0.37060 ,3.63630 
273 ,57.7290 ,1.42136 ,0.34664 ,3.40125 
274 ,57.9209 ,1.42339 ,0.32611 ,3.19978 
275 ,58.1288 ,1.42537 ,0.33295 ,3.26694 
276 ,58.3369 ,1.42749 ,0.30900 ,3.03189 
277 ,58.5290 ,1.42940 ,0.30558 ,2.99831 
278 ,58.7373 ,1.43147 ,0.28162 ,2.76326 
279 ,58.9455 ,1.43354 ,0.27820 ,2.72969 
280 ,59.1537 ,1.43562 ,0.25424 ,2.49464 
281 ,59.3454 ,1.43769 ,0.25424 ,2.49464 
282 ,59.5376 ,1.43950 ,0.23029 ,2.25959 
283 ,59.7617 ,1.44171 ,0.23371 ,2.29317 
284 ,59.9540 ,1.44368 ,0.20291 ,1.99096 
285 ,60.1782 ,1.44590 ,0.19264 ,1.89023 
286 ,60.3858 ,1.44789 ,0.20633 ,2.02454 
287 ,60.5941 ,1.45001 ,0.16185 ,1.58802 
288 ,60.8182 ,1.45227 ,0.16869 ,1.65518 
289 ,61.0263 ,1.45432 ,0.16527 ,1.62160 
290 ,61.2506 ,1.45652 ,0.14131 ,1.38655 
291 ,61.4582 ,1.45863 ,0.12762 ,1.25224 
292 ,61.6665 ,1.46076 ,0.12762 ,1.25224 
293 ,61.8748 ,1.46277 ,0.08314 ,0.81572 
294 ,62.0986 ,1.46506 ,0.08998 ,0.88288 
295 ,62.3069 ,1.46719 ,0.10025 ,0.98361 
296 ,62.5148 ,1.46922 ,0.06260 ,0.61425 
297 ,62.7389 ,1.47149 ,0.04891 ,0.47994 
298 ,62.9795 ,1.47390 ,0.03865 ,0.37920 
299 ,63.2193 ,1.47614 ,0.05918 ,0.58067 
300 ,63.4275 ,1.47836 ,0.04207 ,0.41278 
301 ,63.6353 ,1.48041 ,0.00100 ,0.00984 
302 ,63.8594 ,1.48266 ,0.00443 ,0.04342 
303 ,64.0675 ,1.48474 ,0.00443 ,0.04342 
304 ,64.2756 ,1.48681 ,-0.03664 ,-0.35952 
305 ,64.4999 ,1.48910 ,-0.04348 ,-0.42667 
306 ,64.7238 ,1.49127 ,-0.03664 ,-0.35952 
307 ,64.9160 ,1.49324 ,-0.05717 ,-0.56099 
308 ,65.1082 ,1.49520 ,-0.06060 ,-0.59457 
309 ,65.3318 ,1.49732 ,-0.07771 ,-0.76246 
310 ,65.5401 ,1.49943 ,-0.10508 ,-1.03108 
311 ,65.7479 ,1.50156 ,-0.08455 ,-0.82961 
312 ,65.9240 ,1.50345 ,-0.11535 ,-1.13182 
313 ,66.1324 ,1.50539 ,-0.10851 ,-1.06466 
314 ,66.3246 ,1.50739 ,-0.13931 ,-1.36687 
315 ,66.5166 ,1.50937 ,-0.13588 ,-1.33329 
316 ,66.7246 ,1.51128 ,-0.14273 ,-1.40045 
317 ,66.9007 ,1.51322 ,-0.17353 ,-1.70265 
318 ,67.0927 ,1.51501 ,-0.16326 ,-1.60191 
319 ,67.3009 ,1.51705 ,-0.19064 ,-1.87054 
320 ,67.5089 ,1.51911 ,-0.18037 ,-1.76981 
321 ,67.7170 ,1.52125 ,-0.21802 ,-2.13917 
322 ,67.9249 ,1.52331 ,-0.22144 ,-2.17275 
323 ,68.1169 ,1.52526 ,-0.22486 ,-2.20632 
324 ,68.3413 ,1.52739 ,-0.25566 ,-2.50853 
325 ,68.5654 ,1.52965 ,-0.23855 ,-2.34064 
326 ,68.7736 ,1.53179 ,-0.25566 ,-2.50853 
327 ,68.9818 ,1.53392 ,-0.27277 ,-2.67642 
328 ,69.2054 ,1.53607 ,-0.28646 ,-2.81073 
329 ,69.4298 ,1.53828 ,-0.27961 ,-2.74358 
330 ,69.6378 ,1.54045 ,-0.30015 ,-2.94505 
331 ,69.8459 ,1.54247 ,-0.31384 ,-3.07936 
332 ,70.0702 ,1.54476 ,-0.30699 ,-3.01220 
333 ,70.2941 ,1.54698 ,-0.33779 ,-3.31441 
334 ,70.5022 ,1.54906 ,-0.35490 ,-3.48230 
335 ,70.7103 ,1.55116 ,-0.34121 ,-3.34799 
336 ,70.9185 ,1.55319 ,-0.36859 ,-3.61661 
337 ,71.1424 ,1.55545 ,-0.38228 ,-3.75093 
338 ,71.3504 ,1.55749 ,-0.36517 ,-3.58303 
339 ,71.5587 ,1.55963 ,-0.39255 ,-3.85166 
340 ,71.7507 ,1.56154 ,-0.40281 ,-3.95240 
341 ,71.9750 ,1.56378 ,-0.41308 ,-4.05313 
342 ,72.1826 ,1.56582 ,-0.43703 ,-4.28818 
343 ,72.3751 ,1.56788 ,-0.43361 ,-4.25460 
344 ,72.5827 ,1.56982 ,-0.45757 ,-4.48965 
345 ,72.7913 ,1.57197 ,-0.45072 ,-4.42249 
346 ,72.9994 ,1.57404 ,-0.47810 ,-4.69112 
347 ,73.2235 ,1.57627 ,-0.50206 ,-4.92617 
348 ,73.4475 ,1.57845 ,-0.49179 ,-4.82543 
349 ,73.6553 ,1.58056 ,-0.49863 ,-4.89259 
350 ,73.8799 ,1.58277 ,-0.52943 ,-5.19479 
351 ,74.1037 ,1.58509 ,-0.54312 ,-5.32911 
352 ,74.3437 ,1.58738 ,-0.54997 ,-5.39626 
353 ,74.5520 ,1.58955 ,-0.53970 ,-5.29553 
354 ,74.7596 ,1.59159 ,-0.56365 ,-5.53058 
355 ,74.9843 ,1.59379 ,-0.56365 ,-5.53058 
356 ,75.2080 ,1.59608 ,-0.58761 ,-5.76562 
357 ,75.4164 ,1.59828 ,-0.58419 ,-5.73205 
358 ,75.6402 ,1.60043 ,-0.61156 ,-6.00067 
359 ,75.8481 ,1.60257 ,-0.61841 ,-6.06783 
360 ,76.0566 ,1.60458 ,-0.62183 ,-6.10141 
361 ,76.2647 ,1.60669 ,-0.64921 ,-6.37003 
362 ,76.4728 ,1.60875 ,-0.63210 ,-6.20214 
363 ,76.6968 ,1.61095 ,-0.64921 ,-6.37003 
364 ,76.9049 ,1.61305 ,-0.68001 ,-6.67224 
365 ,77.1290 ,1.61528 ,-0.68001 ,-6.67224 
366 ,77.3372 ,1.61749 ,-0.68001 ,-6.67224 
367 ,77.5450 ,1.61946 ,-0.70396 ,-6.90729 
368 ,77.7534 ,1.62150 ,-0.68343 ,-6.70582 
369 ,77.9772 ,1.62375 ,-0.70739 ,-6.94086 
370 ,78.1853 ,1.62587 ,-0.72450 ,-7.10876 
371 ,78.3935 ,1.62790 ,-0.72450 ,-7.10876 
372 ,78.6017 ,1.62998 ,-0.74161 ,-7.27665 
373 ,78.8097 ,1.63208 ,-0.75872 ,-7.44454 
374 ,79.0177 ,1.63418 ,-0.74503 ,-7.31023 
375 ,79.2256 ,1.63619 ,-0.77241 ,-7.57885 
376 ,79.4340 ,1.63837 ,-0.76898 ,-7.54527 
377 ,79.6420 ,1.64054 ,-0.76556 ,-7.51170 
378 ,79.8341 ,1.64240 ,-0.77925 ,-7.64601 
379 ,80.0262 ,1.64441 ,-0.79978 ,-7.84748 
380 ,80.2343 ,1.64638 ,-0.80663 ,-7.91464 
381 ,80.4424 ,1.64845 ,-0.81689 ,-8.01537 
382 ,80.6662 ,1.65068 ,-0.84085 ,-8.25042 
383 ,80.8746 ,1.65274 ,-0.83743 ,-8.21684 
384 ,81.0987 ,1.65494 ,-0.84427 ,-8.28400 
385 ,81.3064 ,1.65718 ,-0.84769 ,-8.31758 
386 ,81.5148 ,1.65909 ,-0.86138 ,-8.45189 
387 ,81.7229 ,1.66123 ,-0.88534 ,-8.68694 
388 ,81.9150 ,1.66319 ,-0.87849 ,-8.61978 
389 ,82.1228 ,1.66520 ,-0.88534 ,-8.68694 
390 ,82.3153 ,1.66718 ,-0.89560 ,-8.78767 
391 ,82.5069 ,1.66919 ,-0.90929 ,-8.92198 
392 ,82.7154 ,1.67118 ,-0.89903 ,-8.82125 
393 ,82.9394 ,1.67332 ,-0.93325 ,-9.15703 
394 ,83.1476 ,1.67546 ,-0.95036 ,-9.32492 
395 ,83.3554 ,1.67753 ,-0.94694 ,-9.29135 
396 ,83.5476 ,1.67948 ,-0.96747 ,-9.49282 
397 ,83.7557 ,1.68149 ,-0.97774 ,-9.59355 
398 ,83.9640 ,1.68356 ,-0.97431 ,-9.55997 
399 ,84.1721 ,1.68574 ,-0.99485 ,-9.76144 
400 ,84.3961 ,1.68791 ,-0.99827 ,-9.79502 
401 ,84.6043 ,1.68998 ,-1.01196 ,-9.92933 
402 ,84.8119 ,1.69211 ,-1.03591 ,-10.16438 
403 ,85.0202 ,1.69416 ,-1.01196 ,-9.92933 
404 ,85.2284 ,1.69629 ,-1.04276 ,-10.23154 
405 ,85.4686 ,1.69868 ,-1.04618 ,-10.26512 
406 ,85.6923 ,1.70089 ,-1.06329 ,-10.43301 
407 ,85.8843 ,1.70291 ,-1.06329 ,-10.43301 
408 ,86.0929 ,1.70492 ,-1.08382 ,-10.63448 
409 ,86.3167 ,1.70716 ,-1.08040 ,-10.60090 
410 ,86.5251 ,1.70923 ,-1.09409 ,-10.73521 
411 ,86.7330 ,1.71132 ,-1.10436 ,-10.83595 
412 ,86.9408 ,1.71346 ,-1.10093 ,-10.80237 
413 ,87.1493 ,1.71549 ,-1.13173 ,-11.10457 
414 ,87.3735 ,1.71770 ,-1.13516 ,-11.13815 
415 ,87.5814 ,1.71974 ,-1.12147 ,-11.00384 
416 ,87.8056 ,1.72201 ,-1.14200 ,-11.20531 
417 ,88.0135 ,1.72413 ,-1.15911 ,-11.37320 
418 ,88.2378 ,1.72639 ,-1.14542 ,-11.23889 
419 ,88.4618 ,1.72854 ,-1.16596 ,-11.44036 
420 ,88.6539 ,1.73051 ,-1.18991 ,-11.67541 
421 ,88.8780 ,1.73276 ,-1.19676 ,-11.74256 
422 ,89.0860 ,1.73480 ,-1.19676 ,-11.74256 
423 ,89.3102 ,1.73710 ,-1.21387 ,-11.91045 
424 ,89.5181 ,1.73913 ,-1.21387 ,-11.91045 
425 ,89.7423 ,1.74137 ,-1.19676 ,-11.74256 
426 ,89.9662 ,1.74357 ,-1.22071 ,-11.97761 
427 ,90.1746 ,1.74573 ,-1.24809 ,-12.24624 
428 ,90.3827 ,1.74780 ,-1.24124 ,-12.17908 
429 ,90.6066 ,1.74999 ,-1.24809 ,-12.24624 
430 ,90.8308 ,1.75227 ,-1.27204 ,-12.48128 
431 ,91.0387 ,1.75434 ,-1.25835 ,-12.34697 
432 ,91.2470 ,1.75643 ,-1.27547 ,-12.51486 
433 ,91.4710 ,1.75867 ,-1.30284 ,-12.78349 
434 ,91.6632 ,1.76065 ,-1.29258 ,-12.68275 
435 ,91.8711 ,1.76265 ,-1.31311 ,-12.88422 
436 ,92.0795 ,1.76482 ,-1.31995 ,-12.95138 
437 ,92.2875 ,1.76679 ,-1.31995 ,-12.95138 
438 ,92.5111 ,1.76904 ,-1.33022 ,-13.05212 
439 ,92.7198 ,1.77111 ,-1.34049 ,-13.15285 
440 ,92.9436 ,1.77339 ,-1.33364 ,-13.08569 
441 ,93.1519 ,1.77545 ,-1.36102 ,-13.35432 
442 ,93.3437 ,1.77752 ,-1.36102 ,-13.35432 
443 ,93.5517 ,1.77946 ,-1.38155 ,-13.55579 
444 ,93.7601 ,1.78160 ,-1.38155 ,-13.55579 
445 ,93.9842 ,1.78373 ,-1.37471 ,-13.48863 
446 ,94.1921 ,1.78587 ,-1.39182 ,-13.65653 
447 ,94.4004 ,1.78793 ,-1.38840 ,-13.62295 
448 ,94.6085 ,1.79000 ,-1.39182 ,-13.65653 
449 ,94.8325 ,1.79227 ,-1.42604 ,-13.99231 
450 ,95.0406 ,1.79432 ,-1.40893 ,-13.82442 
451 ,95.2487 ,1.79641 ,-1.41577 ,-13.89157 
452 ,95.4565 ,1.79849 ,-1.43631 ,-14.09304 
453 ,95.6809 ,1.80077 ,-1.44657 ,-14.19378 
454 ,95.8887 ,1.80279 ,-1.43973 ,-14.12662 
455 ,96.0650 ,1.80473 ,-1.46026 ,-14.32809 
456 ,96.3050 ,1.80696 ,-1.45342 ,-14.26093 
457 ,96.5130 ,1.80918 ,-1.47053 ,-14.42883 
458 ,96.7213 ,1.81117 ,-1.47395 ,-14.46240 
459 ,96.9129 ,1.81317 ,-1.48764 ,-14.59672 
460 ,97.1210 ,1.81518 ,-1.49791 ,-14.69745 
