Data stamp = , 17-05-2022 18:24:23 167

Calibration Values: 
Slope = , 26.54 , g/V 
Offset Voltage at no contact = , -0.501760 , V 

No , Time , Stage Position ,   Mass , Force 
   ,  (s) ,      (mm)      ,   (g)  , (mN)  

1 ,0.0000 ,0.84961 ,5.16505 ,50.67950 
2 ,0.2069 ,0.84970 ,5.15821 ,50.61234 
3 ,1.0871 ,0.85382 ,5.15821 ,50.61234 
4 ,1.3115 ,0.85732 ,5.14110 ,50.44445 
5 ,1.5680 ,0.85989 ,5.15136 ,50.54519 
6 ,1.7920 ,0.86226 ,5.13768 ,50.41087 
7 ,1.9998 ,0.86435 ,5.11714 ,50.20940 
8 ,2.2082 ,0.86644 ,5.11372 ,50.17583 
9 ,2.4159 ,0.86857 ,5.06581 ,49.70573 
10 ,2.6244 ,0.87063 ,5.06239 ,49.67215 
11 ,2.8324 ,0.87270 ,5.02132 ,49.26921 
12 ,3.0247 ,0.87462 ,5.01790 ,49.23563 
13 ,3.2325 ,0.87669 ,4.98710 ,48.93343 
14 ,3.4565 ,0.87892 ,4.96999 ,48.76554 
15 ,3.6644 ,0.88101 ,4.96657 ,48.73196 
16 ,3.8888 ,0.88313 ,4.92892 ,48.36260 
17 ,4.1285 ,0.88552 ,4.88786 ,47.95966 
18 ,4.3365 ,0.88774 ,4.86390 ,47.72461 
19 ,4.5607 ,0.89001 ,4.85706 ,47.65745 
20 ,4.7687 ,0.89202 ,4.84679 ,47.55672 
21 ,4.9770 ,0.89418 ,4.80573 ,47.15378 
22 ,5.2014 ,0.89640 ,4.79204 ,47.01946 
23 ,5.4251 ,0.89860 ,4.79546 ,47.05304 
24 ,5.6178 ,0.90057 ,4.74413 ,46.54937 
25 ,5.8413 ,0.90269 ,4.73044 ,46.41506 
26 ,6.0498 ,0.90481 ,4.70648 ,46.18001 
27 ,6.2739 ,0.90710 ,4.67568 ,45.87780 
28 ,6.4980 ,0.90933 ,4.65173 ,45.64275 
29 ,6.7060 ,0.91141 ,4.63462 ,45.47486 
30 ,6.8977 ,0.91338 ,4.60382 ,45.17266 
31 ,7.1062 ,0.91543 ,4.61408 ,45.27339 
32 ,7.3143 ,0.91752 ,4.56617 ,44.80330 
33 ,7.5224 ,0.91957 ,4.53537 ,44.50109 
34 ,7.7467 ,0.92180 ,4.53195 ,44.46751 
35 ,7.9705 ,0.92394 ,4.49773 ,44.13173 
36 ,8.1786 ,0.92615 ,4.47720 ,43.93026 
37 ,8.3867 ,0.92816 ,4.47378 ,43.89668 
38 ,8.5948 ,0.93026 ,4.43271 ,43.49374 
39 ,8.8030 ,0.93235 ,4.41218 ,43.29227 
40 ,9.0111 ,0.93441 ,4.39164 ,43.09080 
41 ,9.2188 ,0.93648 ,4.35400 ,42.72144 
42 ,9.4271 ,0.93872 ,4.33689 ,42.55355 
43 ,9.6350 ,0.94069 ,4.32662 ,42.45282 
44 ,9.8432 ,0.94275 ,4.31293 ,42.31850 
45 ,10.0676 ,0.94496 ,4.29582 ,42.15061 
46 ,10.2590 ,0.94706 ,4.26160 ,41.81483 
47 ,10.4677 ,0.94900 ,4.25133 ,41.71409 
48 ,10.6595 ,0.95111 ,4.21027 ,41.31115 
49 ,10.8838 ,0.95317 ,4.18631 ,41.07611 
50 ,11.1079 ,0.95536 ,4.18289 ,41.04253 
51 ,11.3156 ,0.95747 ,4.14867 ,40.70674 
52 ,11.5400 ,0.95961 ,4.13840 ,40.60601 
53 ,11.7642 ,0.96193 ,4.11445 ,40.37096 
54 ,11.9720 ,0.96404 ,4.08365 ,40.06876 
55 ,12.1964 ,0.96623 ,4.05627 ,39.80013 
56 ,12.4045 ,0.96836 ,4.04258 ,39.66582 
57 ,12.6286 ,0.97057 ,4.03916 ,39.63224 
58 ,12.8365 ,0.97277 ,4.00836 ,39.33003 
59 ,13.0445 ,0.97468 ,3.98098 ,39.06141 
60 ,13.2208 ,0.97666 ,3.95361 ,38.79278 
61 ,13.4128 ,0.97846 ,3.95361 ,38.79278 
62 ,13.6367 ,0.98063 ,3.90570 ,38.32268 
63 ,13.8450 ,0.98273 ,3.89201 ,38.18837 
64 ,14.0531 ,0.98480 ,3.88174 ,38.08764 
65 ,14.2771 ,0.98709 ,3.84067 ,37.68470 
66 ,14.4528 ,0.98897 ,3.84752 ,37.75185 
67 ,14.6608 ,0.99090 ,3.79619 ,37.24818 
68 ,14.8689 ,0.99313 ,3.78934 ,37.18102 
69 ,15.1095 ,0.99528 ,3.77223 ,37.01313 
70 ,15.3651 ,0.99800 ,3.73459 ,36.64377 
71 ,15.5574 ,0.99988 ,3.70721 ,36.37514 
72 ,15.7494 ,1.00184 ,3.70379 ,36.34157 
73 ,15.9419 ,1.00386 ,3.66957 ,36.00578 
74 ,16.1500 ,1.00580 ,3.66614 ,35.97220 
75 ,16.3419 ,1.00784 ,3.63534 ,35.67000 
76 ,16.5502 ,1.00978 ,3.62166 ,35.53569 
77 ,16.7743 ,1.01200 ,3.60797 ,35.40137 
78 ,16.9822 ,1.01407 ,3.56006 ,34.93128 
79 ,17.1744 ,1.01615 ,3.56690 ,34.99843 
80 ,17.3987 ,1.01825 ,3.51557 ,34.49476 
81 ,17.6066 ,1.02033 ,3.50530 ,34.39402 
82 ,17.8147 ,1.02252 ,3.49504 ,34.29329 
83 ,18.0224 ,1.02455 ,3.45397 ,33.89035 
84 ,18.2469 ,1.02680 ,3.44028 ,33.75604 
85 ,18.4709 ,1.02902 ,3.43686 ,33.72246 
86 ,18.6787 ,1.03106 ,3.39579 ,33.31952 
87 ,18.8869 ,1.03316 ,3.37526 ,33.11805 
88 ,19.1108 ,1.03539 ,3.36499 ,33.01731 
89 ,19.3193 ,1.03750 ,3.34788 ,32.84942 
90 ,19.5275 ,1.03954 ,3.31708 ,32.54722 
91 ,19.7515 ,1.04183 ,3.29997 ,32.37933 
92 ,19.9435 ,1.04373 ,3.26575 ,32.04354 
93 ,20.1515 ,1.04580 ,3.26233 ,32.00996 
94 ,20.3596 ,1.04794 ,3.21784 ,31.57345 
95 ,20.5679 ,1.04999 ,3.20757 ,31.47271 
96 ,20.7916 ,1.05218 ,3.21442 ,31.53987 
97 ,20.9840 ,1.05412 ,3.15624 ,30.96904 
98 ,21.1759 ,1.05604 ,3.15966 ,31.00262 
99 ,21.3676 ,1.05798 ,3.12886 ,30.70041 
100 ,21.5602 ,1.05989 ,3.10149 ,30.43178 
101 ,21.7683 ,1.06199 ,3.08780 ,30.29747 
102 ,21.9763 ,1.06399 ,3.07411 ,30.16316 
103 ,22.1685 ,1.06604 ,3.05358 ,29.96169 
104 ,22.3921 ,1.06820 ,3.05015 ,29.92811 
105 ,22.6004 ,1.07031 ,3.00567 ,29.49159 
106 ,22.8407 ,1.07254 ,2.98855 ,29.32370 
107 ,23.0487 ,1.07485 ,2.96460 ,29.08865 
108 ,23.2408 ,1.07670 ,2.94749 ,28.92076 
109 ,23.4490 ,1.07875 ,2.92011 ,28.65213 
110 ,23.6569 ,1.08091 ,2.91327 ,28.58498 
111 ,23.8969 ,1.08311 ,2.88247 ,28.28277 
112 ,24.1048 ,1.08530 ,2.85167 ,27.98057 
113 ,24.2973 ,1.08722 ,2.85509 ,28.01415 
114 ,24.5054 ,1.08933 ,2.82087 ,27.67836 
115 ,24.7132 ,1.09143 ,2.81745 ,27.64479 
116 ,24.9055 ,1.09336 ,2.78665 ,27.34258 
117 ,25.1138 ,1.09538 ,2.77980 ,27.27542 
118 ,25.3218 ,1.09745 ,2.75585 ,27.04038 
119 ,25.5297 ,1.09964 ,2.72505 ,26.73817 
120 ,25.7215 ,1.10150 ,2.71136 ,26.60386 
121 ,25.9299 ,1.10359 ,2.69425 ,26.43597 
122 ,26.1381 ,1.10566 ,2.68740 ,26.36881 
123 ,26.3621 ,1.10786 ,2.64976 ,25.99945 
124 ,26.5542 ,1.10989 ,2.64976 ,25.99945 
125 ,26.7624 ,1.11188 ,2.61554 ,25.66367 
126 ,26.9862 ,1.11411 ,2.58132 ,25.32788 
127 ,27.1943 ,1.11625 ,2.58816 ,25.39504 
128 ,27.4023 ,1.11832 ,2.56763 ,25.19357 
129 ,27.6266 ,1.12048 ,2.54025 ,24.92494 
130 ,27.8347 ,1.12255 ,2.54025 ,24.92494 
131 ,28.0424 ,1.12474 ,2.51287 ,24.65632 
132 ,28.2348 ,1.12663 ,2.47865 ,24.32053 
133 ,28.4429 ,1.12882 ,2.47865 ,24.32053 
134 ,28.6512 ,1.13077 ,2.44785 ,24.01833 
135 ,28.8593 ,1.13284 ,2.44443 ,23.98475 
136 ,29.0828 ,1.13504 ,2.40336 ,23.58181 
137 ,29.2911 ,1.13713 ,2.39310 ,23.48108 
138 ,29.4995 ,1.13924 ,2.37941 ,23.34676 
139 ,29.7396 ,1.14172 ,2.36914 ,23.24603 
140 ,29.9476 ,1.14376 ,2.33150 ,22.87667 
141 ,30.1398 ,1.14571 ,2.33150 ,22.87667 
142 ,30.3638 ,1.14787 ,2.29385 ,22.50731 
143 ,30.5879 ,1.15011 ,2.26648 ,22.23868 
144 ,30.7960 ,1.15227 ,2.26648 ,22.23868 
145 ,31.0200 ,1.15446 ,2.26990 ,22.27226 
146 ,31.2118 ,1.15635 ,2.22199 ,21.80216 
147 ,31.4519 ,1.15868 ,2.22199 ,21.80216 
148 ,31.6601 ,1.16084 ,2.19119 ,21.49996 
149 ,31.8684 ,1.16298 ,2.16381 ,21.23133 
150 ,32.0765 ,1.16501 ,2.16039 ,21.19775 
151 ,32.2842 ,1.16705 ,2.15012 ,21.09702 
152 ,32.4602 ,1.16900 ,2.14670 ,21.06344 
153 ,32.6687 ,1.17094 ,2.10906 ,20.69408 
154 ,32.8768 ,1.17300 ,2.10564 ,20.66050 
155 ,33.0848 ,1.17507 ,2.09537 ,20.55976 
156 ,33.2930 ,1.17717 ,2.05430 ,20.15682 
157 ,33.5169 ,1.17937 ,2.06457 ,20.25756 
158 ,33.7412 ,1.18166 ,2.03719 ,19.98893 
159 ,33.9648 ,1.18386 ,2.01324 ,19.75388 
160 ,34.1733 ,1.18594 ,1.99613 ,19.58599 
161 ,34.3814 ,1.18820 ,1.97902 ,19.41810 
162 ,34.5895 ,1.19021 ,1.96533 ,19.28379 
163 ,34.7975 ,1.19216 ,1.96190 ,19.25021 
164 ,35.0056 ,1.19425 ,1.93111 ,18.94801 
165 ,35.2136 ,1.19638 ,1.90031 ,18.64580 
166 ,35.4220 ,1.19846 ,1.90031 ,18.64580 
167 ,35.6458 ,1.20063 ,1.89004 ,18.54507 
168 ,35.8540 ,1.20272 ,1.85582 ,18.20928 
169 ,36.0460 ,1.20474 ,1.85240 ,18.17570 
170 ,36.2542 ,1.20680 ,1.83186 ,17.97423 
171 ,36.4783 ,1.20900 ,1.81817 ,17.83992 
172 ,36.6699 ,1.21108 ,1.80791 ,17.73919 
173 ,36.8780 ,1.21299 ,1.79764 ,17.63845 
174 ,37.0861 ,1.21511 ,1.77026 ,17.36983 
175 ,37.2621 ,1.21699 ,1.76342 ,17.30267 
176 ,37.4708 ,1.21891 ,1.73604 ,17.03404 
177 ,37.6945 ,1.22111 ,1.72578 ,16.93331 
178 ,37.9030 ,1.22322 ,1.72578 ,16.93331 
179 ,38.1109 ,1.22534 ,1.67786 ,16.46321 
180 ,38.3030 ,1.22739 ,1.68813 ,16.56395 
181 ,38.5272 ,1.22948 ,1.67786 ,16.46321 
182 ,38.7513 ,1.23169 ,1.62995 ,15.99311 
183 ,38.9591 ,1.23382 ,1.63680 ,16.06027 
184 ,39.1674 ,1.23585 ,1.60600 ,15.75807 
185 ,39.3912 ,1.23812 ,1.59231 ,15.62375 
186 ,39.5996 ,1.24023 ,1.57178 ,15.42228 
187 ,39.8236 ,1.24239 ,1.57178 ,15.42228 
188 ,40.0316 ,1.24456 ,1.54098 ,15.12008 
189 ,40.2394 ,1.24676 ,1.51702 ,14.88503 
190 ,40.4639 ,1.24875 ,1.50676 ,14.78430 
191 ,40.6559 ,1.25080 ,1.49307 ,14.64998 
192 ,40.8637 ,1.25293 ,1.48280 ,14.54925 
193 ,41.0722 ,1.25490 ,1.46569 ,14.38136 
194 ,41.2957 ,1.25716 ,1.43489 ,14.07915 
195 ,41.5038 ,1.25930 ,1.43831 ,14.11273 
196 ,41.6962 ,1.26124 ,1.42120 ,13.94484 
197 ,41.9205 ,1.26341 ,1.40751 ,13.81053 
198 ,42.1444 ,1.26564 ,1.40409 ,13.77695 
199 ,42.3525 ,1.26781 ,1.36987 ,13.44116 
200 ,42.5607 ,1.26981 ,1.34591 ,13.20612 
201 ,42.7687 ,1.27183 ,1.35276 ,13.27327 
202 ,42.9770 ,1.27392 ,1.32196 ,12.97107 
203 ,43.2007 ,1.27621 ,1.31854 ,12.93749 
204 ,43.4090 ,1.27832 ,1.30143 ,12.76960 
205 ,43.6167 ,1.28039 ,1.28432 ,12.60171 
206 ,43.7932 ,1.28228 ,1.27063 ,12.46739 
207 ,44.0010 ,1.28415 ,1.26720 ,12.43381 
208 ,44.2094 ,1.28623 ,1.23641 ,12.13161 
209 ,44.4174 ,1.28836 ,1.20903 ,11.86298 
210 ,44.6251 ,1.29043 ,1.21245 ,11.89656 
211 ,44.8336 ,1.29256 ,1.18507 ,11.62794 
212 ,45.0737 ,1.29486 ,1.16112 ,11.39289 
213 ,45.2975 ,1.29712 ,1.14743 ,11.25857 
214 ,45.5057 ,1.29927 ,1.16454 ,11.42647 
215 ,45.7135 ,1.30141 ,1.13032 ,11.09068 
216 ,45.9220 ,1.30343 ,1.12347 ,11.02353 
217 ,46.1622 ,1.30587 ,1.09267 ,10.72132 
218 ,46.3702 ,1.30797 ,1.10294 ,10.82206 
219 ,46.5784 ,1.30993 ,1.07556 ,10.55343 
220 ,46.7703 ,1.31199 ,1.07214 ,10.51985 
221 ,46.9784 ,1.31393 ,1.03792 ,10.18407 
222 ,47.2187 ,1.31628 ,1.02081 ,10.01618 
223 ,47.4266 ,1.31855 ,1.01054 ,9.91544 
224 ,47.6189 ,1.32037 ,0.99685 ,9.78113 
225 ,47.8269 ,1.32243 ,0.99685 ,9.78113 
226 ,48.0185 ,1.32450 ,0.96263 ,9.44535 
227 ,48.2270 ,1.32648 ,0.96605 ,9.47892 
228 ,48.4351 ,1.32862 ,0.92499 ,9.07598 
229 ,48.6271 ,1.33046 ,0.94552 ,9.27745 
230 ,48.8352 ,1.33250 ,0.90788 ,8.90809 
231 ,49.0273 ,1.33447 ,0.90788 ,8.90809 
232 ,49.2829 ,1.33700 ,0.89077 ,8.74020 
233 ,49.4911 ,1.33916 ,0.88050 ,8.63947 
234 ,49.6993 ,1.34111 ,0.84970 ,8.33726 
235 ,49.9233 ,1.34337 ,0.84628 ,8.30368 
236 ,50.1314 ,1.34546 ,0.82232 ,8.06864 
237 ,50.3554 ,1.34776 ,0.79837 ,7.83359 
238 ,50.5635 ,1.34978 ,0.80863 ,7.93432 
239 ,50.7717 ,1.35182 ,0.77099 ,7.56496 
240 ,50.9800 ,1.35403 ,0.77099 ,7.56496 
241 ,51.2362 ,1.35653 ,0.73677 ,7.22918 
242 ,51.4604 ,1.35881 ,0.74361 ,7.29633 
243 ,51.6841 ,1.36101 ,0.72650 ,7.12844 
244 ,51.8764 ,1.36296 ,0.70255 ,6.89340 
245 ,52.1004 ,1.36512 ,0.69913 ,6.85982 
246 ,52.2927 ,1.36726 ,0.68201 ,6.69193 
247 ,52.5005 ,1.36927 ,0.65806 ,6.45688 
248 ,52.6928 ,1.37112 ,0.65121 ,6.38972 
249 ,52.9011 ,1.37312 ,0.64437 ,6.32256 
250 ,53.1256 ,1.37539 ,0.63753 ,6.25541 
251 ,53.3331 ,1.37748 ,0.61357 ,6.02036 
252 ,53.5407 ,1.37958 ,0.61015 ,5.98678 
253 ,53.7493 ,1.38168 ,0.59646 ,5.85247 
254 ,53.9732 ,1.38386 ,0.56224 ,5.51668 
255 ,54.1654 ,1.38583 ,0.58277 ,5.71815 
256 ,54.3735 ,1.38786 ,0.53144 ,5.21448 
257 ,54.5976 ,1.39014 ,0.51775 ,5.08017 
258 ,54.8053 ,1.39220 ,0.53486 ,5.24806 
259 ,55.0138 ,1.39431 ,0.50406 ,4.94585 
260 ,55.2219 ,1.39635 ,0.50406 ,4.94585 
261 ,55.4139 ,1.39832 ,0.48011 ,4.71081 
262 ,55.6223 ,1.40041 ,0.47326 ,4.64365 
263 ,55.8296 ,1.40240 ,0.46300 ,4.54291 
264 ,56.0223 ,1.40440 ,0.43904 ,4.30787 
265 ,56.2301 ,1.40644 ,0.43562 ,4.27429 
266 ,56.4544 ,1.40868 ,0.40482 ,3.97208 
267 ,56.6464 ,1.41075 ,0.39797 ,3.90493 
268 ,56.8382 ,1.41255 ,0.38086 ,3.73703 
269 ,57.0467 ,1.41463 ,0.38771 ,3.80419 
270 ,57.2542 ,1.41670 ,0.36375 ,3.56914 
271 ,57.4467 ,1.41862 ,0.36718 ,3.60272 
272 ,57.6388 ,1.42068 ,0.33638 ,3.30052 
273 ,57.8466 ,1.42256 ,0.35691 ,3.50199 
274 ,58.0386 ,1.42464 ,0.30900 ,3.03189 
275 ,58.2310 ,1.42650 ,0.31584 ,3.09905 
276 ,58.4389 ,1.42857 ,0.28504 ,2.79684 
277 ,58.6312 ,1.43052 ,0.29873 ,2.93116 
278 ,58.8391 ,1.43254 ,0.26793 ,2.62895 
279 ,59.0155 ,1.43445 ,0.26793 ,2.62895 
280 ,59.2235 ,1.43632 ,0.25767 ,2.52822 
281 ,59.4314 ,1.43842 ,0.24740 ,2.42748 
282 ,59.6395 ,1.44049 ,0.21660 ,2.12528 
283 ,59.8478 ,1.44265 ,0.23371 ,2.29317 
284 ,60.0397 ,1.44453 ,0.19949 ,1.95738 
285 ,60.2315 ,1.44655 ,0.19949 ,1.95738 
286 ,60.4401 ,1.44852 ,0.17553 ,1.72234 
287 ,60.6481 ,1.45063 ,0.19607 ,1.92381 
288 ,60.8562 ,1.45266 ,0.15158 ,1.48729 
289 ,61.0483 ,1.45463 ,0.16185 ,1.58802 
290 ,61.2563 ,1.45670 ,0.13105 ,1.28582 
291 ,61.4480 ,1.45874 ,0.13789 ,1.35298 
292 ,61.6405 ,1.46059 ,0.11393 ,1.11793 
293 ,61.8482 ,1.46266 ,0.11393 ,1.11793 
294 ,62.0406 ,1.46454 ,0.07971 ,0.78214 
295 ,62.2646 ,1.46675 ,0.08998 ,0.88288 
296 ,62.4887 ,1.46892 ,0.07287 ,0.71499 
297 ,62.6810 ,1.47099 ,0.05918 ,0.58067 
298 ,62.8730 ,1.47286 ,0.05234 ,0.51352 
299 ,63.0971 ,1.47509 ,0.04549 ,0.44636 
300 ,63.2889 ,1.47703 ,0.04207 ,0.41278 
301 ,63.5129 ,1.47920 ,0.02154 ,0.21131 
302 ,63.7214 ,1.48133 ,0.00443 ,0.04342 
303 ,63.9293 ,1.48349 ,0.00100 ,0.00984 
304 ,64.1376 ,1.48544 ,-0.02295 ,-0.22520 
305 ,64.3616 ,1.48776 ,-0.03322 ,-0.32594 
306 ,64.5693 ,1.48980 ,-0.02637 ,-0.25878 
307 ,64.7617 ,1.49187 ,-0.06060 ,-0.59457 
308 ,64.9699 ,1.49385 ,-0.05033 ,-0.49383 
309 ,65.1776 ,1.49585 ,-0.09482 ,-0.93035 
310 ,65.3860 ,1.49796 ,-0.08113 ,-0.79604 
311 ,65.6099 ,1.50020 ,-0.09482 ,-0.93035 
312 ,65.8022 ,1.50223 ,-0.11877 ,-1.16540 
313 ,65.9941 ,1.50410 ,-0.11193 ,-1.09824 
314 ,66.2024 ,1.50617 ,-0.13246 ,-1.29971 
315 ,66.3943 ,1.50813 ,-0.12562 ,-1.23255 
316 ,66.6185 ,1.51028 ,-0.15984 ,-1.56834 
317 ,66.8262 ,1.51227 ,-0.14273 ,-1.40045 
318 ,67.0346 ,1.51447 ,-0.17353 ,-1.70265 
319 ,67.2589 ,1.51663 ,-0.19064 ,-1.87054 
320 ,67.4669 ,1.51872 ,-0.17695 ,-1.73623 
321 ,67.6750 ,1.52081 ,-0.20433 ,-2.00485 
322 ,67.8831 ,1.52299 ,-0.22486 ,-2.20632 
323 ,68.0911 ,1.52504 ,-0.22144 ,-2.17275 
324 ,68.2991 ,1.52705 ,-0.23855 ,-2.34064 
325 ,68.5074 ,1.52915 ,-0.23513 ,-2.30706 
326 ,68.7152 ,1.53125 ,-0.26250 ,-2.57569 
327 ,68.9075 ,1.53322 ,-0.25566 ,-2.50853 
328 ,69.1315 ,1.53537 ,-0.27961 ,-2.74358 
329 ,69.3238 ,1.53736 ,-0.30015 ,-2.94505 
330 ,69.5317 ,1.53940 ,-0.29330 ,-2.87789 
331 ,69.7398 ,1.54154 ,-0.32068 ,-3.14652 
332 ,69.9639 ,1.54376 ,-0.33095 ,-3.24725 
333 ,70.1395 ,1.54567 ,-0.32068 ,-3.14652 
334 ,70.3482 ,1.54755 ,-0.33779 ,-3.31441 
335 ,70.5722 ,1.54980 ,-0.34464 ,-3.38156 
336 ,70.7961 ,1.55203 ,-0.36175 ,-3.54946 
337 ,71.0202 ,1.55426 ,-0.38570 ,-3.78450 
338 ,71.2440 ,1.55647 ,-0.39597 ,-3.88524 
339 ,71.4525 ,1.55861 ,-0.38228 ,-3.75093 
340 ,71.6765 ,1.56079 ,-0.41992 ,-4.12029 
341 ,71.8684 ,1.56276 ,-0.40966 ,-4.01955 
342 ,72.0767 ,1.56482 ,-0.43019 ,-4.22102 
343 ,72.2848 ,1.56695 ,-0.44046 ,-4.32176 
344 ,72.4930 ,1.56907 ,-0.45072 ,-4.42249 
345 ,72.7171 ,1.57126 ,-0.46783 ,-4.59038 
346 ,72.9248 ,1.57329 ,-0.47468 ,-4.65754 
347 ,73.1334 ,1.57537 ,-0.47126 ,-4.62396 
348 ,73.3410 ,1.57748 ,-0.50890 ,-4.99332 
349 ,73.5334 ,1.57948 ,-0.48494 ,-4.75828 
350 ,73.7255 ,1.58135 ,-0.50890 ,-4.99332 
351 ,73.9655 ,1.58363 ,-0.51574 ,-5.06048 
352 ,74.1732 ,1.58588 ,-0.52259 ,-5.12764 
353 ,74.3977 ,1.58811 ,-0.54312 ,-5.32911 
354 ,74.6220 ,1.59027 ,-0.56708 ,-5.56415 
355 ,74.8457 ,1.59251 ,-0.56023 ,-5.49700 
356 ,75.0855 ,1.59486 ,-0.58077 ,-5.69847 
357 ,75.2936 ,1.59700 ,-0.58077 ,-5.69847 
358 ,75.5023 ,1.59907 ,-0.61156 ,-6.00067 
359 ,75.7098 ,1.60129 ,-0.61156 ,-6.00067 
360 ,75.9024 ,1.60314 ,-0.62525 ,-6.13499 
361 ,76.1104 ,1.60518 ,-0.62183 ,-6.10141 
362 ,76.3026 ,1.60713 ,-0.63552 ,-6.23572 
363 ,76.5267 ,1.60927 ,-0.65263 ,-6.40361 
364 ,76.7343 ,1.61137 ,-0.65263 ,-6.40361 
365 ,76.9427 ,1.61350 ,-0.66632 ,-6.53793 
366 ,77.1509 ,1.61561 ,-0.66974 ,-6.57150 
367 ,77.3591 ,1.61765 ,-0.70396 ,-6.90729 
368 ,77.5826 ,1.61987 ,-0.70739 ,-6.94086 
369 ,77.7751 ,1.62187 ,-0.68685 ,-6.73940 
370 ,77.9510 ,1.62372 ,-0.72450 ,-7.10876 
371 ,78.1430 ,1.62554 ,-0.72792 ,-7.14233 
372 ,78.3509 ,1.62757 ,-0.72450 ,-7.10876 
373 ,78.5435 ,1.62953 ,-0.76556 ,-7.51170 
374 ,78.7517 ,1.63156 ,-0.75187 ,-7.37738 
375 ,78.9752 ,1.63382 ,-0.75187 ,-7.37738 
376 ,79.1833 ,1.63593 ,-0.76556 ,-7.51170 
377 ,79.3914 ,1.63799 ,-0.76214 ,-7.47812 
378 ,79.5995 ,1.64004 ,-0.79636 ,-7.81390 
379 ,79.8075 ,1.64217 ,-0.79636 ,-7.81390 
380 ,80.0317 ,1.64425 ,-0.79294 ,-7.78032 
381 ,80.2396 ,1.64651 ,-0.82374 ,-8.08253 
382 ,80.4478 ,1.64848 ,-0.82374 ,-8.08253 
383 ,80.6559 ,1.65058 ,-0.82716 ,-8.11611 
384 ,80.8640 ,1.65272 ,-0.84769 ,-8.31758 
385 ,81.0722 ,1.65478 ,-0.83401 ,-8.18326 
386 ,81.2800 ,1.65685 ,-0.86823 ,-8.51904 
387 ,81.4882 ,1.65898 ,-0.86481 ,-8.48547 
388 ,81.6963 ,1.66097 ,-0.87165 ,-8.55262 
389 ,81.9045 ,1.66313 ,-0.89903 ,-8.82125 
390 ,82.1124 ,1.66513 ,-0.87849 ,-8.61978 
391 ,82.3206 ,1.66728 ,-0.91614 ,-8.98914 
392 ,82.5447 ,1.66950 ,-0.91956 ,-9.02272 
393 ,82.7529 ,1.67154 ,-0.90929 ,-8.92198 
394 ,82.9609 ,1.67361 ,-0.93667 ,-9.19061 
395 ,83.1689 ,1.67575 ,-0.93667 ,-9.19061 
396 ,83.3770 ,1.67778 ,-0.94694 ,-9.29135 
397 ,83.6013 ,1.68007 ,-0.96747 ,-9.49282 
398 ,83.8093 ,1.68211 ,-0.96747 ,-9.49282 
399 ,84.0176 ,1.68424 ,-0.98458 ,-9.66071 
400 ,84.2255 ,1.68622 ,-0.99485 ,-9.76144 
401 ,84.4340 ,1.68835 ,-0.99485 ,-9.76144 
402 ,84.6581 ,1.69058 ,-1.00854 ,-9.89576 
403 ,84.8821 ,1.69283 ,-1.03934 ,-10.19796 
404 ,85.0902 ,1.69495 ,-1.02565 ,-10.06365 
405 ,85.3463 ,1.69738 ,-1.03591 ,-10.16438 
406 ,85.5543 ,1.69967 ,-1.04960 ,-10.29869 
407 ,85.7784 ,1.70171 ,-1.06329 ,-10.43301 
408 ,86.0025 ,1.70407 ,-1.08040 ,-10.60090 
409 ,86.2266 ,1.70624 ,-1.08040 ,-10.60090 
410 ,86.4188 ,1.70828 ,-1.07356 ,-10.53374 
411 ,86.6427 ,1.71038 ,-1.10778 ,-10.86953 
412 ,86.8347 ,1.71237 ,-1.09067 ,-10.70163 
413 ,87.0589 ,1.71461 ,-1.10436 ,-10.83595 
414 ,87.2831 ,1.71683 ,-1.13173 ,-11.10457 
415 ,87.5073 ,1.71906 ,-1.13858 ,-11.17173 
416 ,87.7151 ,1.72120 ,-1.13173 ,-11.10457 
417 ,87.9234 ,1.72336 ,-1.14200 ,-11.20531 
418 ,88.1154 ,1.72522 ,-1.14200 ,-11.20531 
419 ,88.3237 ,1.72725 ,-1.16938 ,-11.47394 
420 ,88.5476 ,1.72943 ,-1.17280 ,-11.50751 
421 ,88.7555 ,1.73159 ,-1.17280 ,-11.50751 
422 ,88.9634 ,1.73375 ,-1.17964 ,-11.57467 
423 ,89.1720 ,1.73575 ,-1.17280 ,-11.50751 
424 ,89.3960 ,1.73795 ,-1.18991 ,-11.67541 
425 ,89.6042 ,1.74006 ,-1.21729 ,-11.94403 
426 ,89.8284 ,1.74226 ,-1.22755 ,-12.04477 
427 ,90.0359 ,1.74436 ,-1.22071 ,-11.97761 
428 ,90.2600 ,1.74665 ,-1.24124 ,-12.17908 
429 ,90.4524 ,1.74867 ,-1.23782 ,-12.14550 
430 ,90.6606 ,1.75061 ,-1.25493 ,-12.31339 
431 ,90.8686 ,1.75268 ,-1.27204 ,-12.48128 
432 ,91.0926 ,1.75493 ,-1.26520 ,-12.41413 
433 ,91.3007 ,1.75713 ,-1.27547 ,-12.51486 
434 ,91.5089 ,1.75907 ,-1.29258 ,-12.68275 
435 ,91.7172 ,1.76119 ,-1.27889 ,-12.54844 
436 ,91.9091 ,1.76321 ,-1.31311 ,-12.88422 
437 ,92.1333 ,1.76532 ,-1.30284 ,-12.78349 
438 ,92.3411 ,1.76739 ,-1.32338 ,-12.98496 
439 ,92.5333 ,1.76934 ,-1.33364 ,-13.08569 
440 ,92.7413 ,1.77140 ,-1.33022 ,-13.05212 
441 ,92.9495 ,1.77345 ,-1.35075 ,-13.25359 
442 ,93.1576 ,1.77557 ,-1.35417 ,-13.28716 
443 ,93.3653 ,1.77762 ,-1.37471 ,-13.48863 
444 ,93.5736 ,1.77979 ,-1.36786 ,-13.42148 
445 ,93.7657 ,1.78179 ,-1.38497 ,-13.58937 
446 ,93.9577 ,1.78358 ,-1.37129 ,-13.45506 
447 ,94.1658 ,1.78565 ,-1.40209 ,-13.75726 
448 ,94.3901 ,1.78788 ,-1.39866 ,-13.72368 
449 ,94.5982 ,1.78995 ,-1.38155 ,-13.55579 
450 ,94.7904 ,1.79196 ,-1.41577 ,-13.89157 
451 ,95.0144 ,1.79411 ,-1.40551 ,-13.79084 
452 ,95.2223 ,1.79622 ,-1.41577 ,-13.89157 
453 ,95.4307 ,1.79830 ,-1.43973 ,-14.12662 
454 ,95.6706 ,1.80081 ,-1.44657 ,-14.19378 
455 ,95.8466 ,1.80257 ,-1.45342 ,-14.26093 
456 ,96.0548 ,1.80448 ,-1.45000 ,-14.22736 
457 ,96.2790 ,1.80664 ,-1.46368 ,-14.36167 
458 ,96.5192 ,1.80912 ,-1.47737 ,-14.49598 
459 ,96.7427 ,1.81136 ,-1.48422 ,-14.56314 
460 ,96.9509 ,1.81346 ,-1.46368 ,-14.36167 
