Data stamp = , 17-05-2022 13:57:07 370

Calibration Values: 
Slope = , 26.54 , g/V 
Offset Voltage at no contact = , -0.501760 , V 

No , Time , Stage Position ,   Mass , Force 
   ,  (s) ,      (mm)      ,   (g)  , (mN)  

1 ,0.0000 ,0.84964 ,5.17874 ,50.81381 
2 ,0.3304 ,0.84990 ,5.16163 ,50.64592 
3 ,0.7947 ,0.85182 ,5.15136 ,50.54519 
4 ,1.0191 ,0.85448 ,5.15821 ,50.61234 
5 ,1.2433 ,0.85663 ,5.13768 ,50.41087 
6 ,1.4354 ,0.85881 ,5.14794 ,50.51161 
7 ,1.6593 ,0.86105 ,5.14452 ,50.47803 
8 ,1.8515 ,0.86305 ,5.09661 ,50.00793 
9 ,2.0597 ,0.86497 ,5.11030 ,50.14225 
10 ,2.2833 ,0.86720 ,5.06239 ,49.67215 
11 ,2.4919 ,0.86933 ,5.03843 ,49.43710 
12 ,2.6999 ,0.87137 ,5.03501 ,49.40352 
13 ,2.9238 ,0.87357 ,4.99394 ,49.00058 
14 ,3.1321 ,0.87573 ,4.97341 ,48.79911 
15 ,3.3244 ,0.87764 ,4.96657 ,48.73196 
16 ,3.5323 ,0.87985 ,4.94603 ,48.53049 
17 ,3.7404 ,0.88179 ,4.92892 ,48.36260 
18 ,3.9645 ,0.88401 ,4.89470 ,48.02681 
19 ,4.1726 ,0.88614 ,4.88444 ,47.92608 
20 ,4.3646 ,0.88813 ,4.85364 ,47.62387 
21 ,4.5561 ,0.89001 ,4.83995 ,47.48956 
22 ,4.7648 ,0.89202 ,4.79888 ,47.08662 
23 ,4.9888 ,0.89427 ,4.77150 ,46.81800 
24 ,5.1970 ,0.89634 ,4.76808 ,46.78442 
25 ,5.4210 ,0.89847 ,4.73728 ,46.48221 
26 ,5.6127 ,0.90058 ,4.70306 ,46.14643 
27 ,5.8210 ,0.90259 ,4.70990 ,46.21359 
28 ,6.0131 ,0.90452 ,4.68937 ,46.01212 
29 ,6.2049 ,0.90645 ,4.64831 ,45.60918 
30 ,6.3813 ,0.90833 ,4.65857 ,45.70991 
31 ,6.6216 ,0.91046 ,4.61066 ,45.23981 
32 ,6.8455 ,0.91282 ,4.59013 ,45.03835 
33 ,7.0696 ,0.91491 ,4.57986 ,44.93761 
34 ,7.2777 ,0.91709 ,4.55933 ,44.73614 
35 ,7.4859 ,0.91918 ,4.52169 ,44.36678 
36 ,7.6939 ,0.92129 ,4.51826 ,44.33320 
37 ,7.9018 ,0.92348 ,4.49773 ,44.13173 
38 ,8.0940 ,0.92534 ,4.47720 ,43.93026 
39 ,8.3021 ,0.92740 ,4.45324 ,43.69521 
40 ,8.5261 ,0.92957 ,4.41218 ,43.29227 
41 ,8.7182 ,0.93158 ,4.40875 ,43.25870 
42 ,8.9100 ,0.93361 ,4.36427 ,42.82218 
43 ,9.1186 ,0.93558 ,4.36769 ,42.85576 
44 ,9.3265 ,0.93770 ,4.34716 ,42.65429 
45 ,9.5347 ,0.93969 ,4.32320 ,42.41924 
46 ,9.7428 ,0.94177 ,4.29582 ,42.15061 
47 ,9.9510 ,0.94388 ,4.26845 ,41.88198 
48 ,10.1905 ,0.94623 ,4.25476 ,41.74767 
49 ,10.3988 ,0.94830 ,4.23765 ,41.57978 
50 ,10.6231 ,0.95056 ,4.20685 ,41.27758 
51 ,10.8471 ,0.95276 ,4.17947 ,41.00895 
52 ,11.0232 ,0.95473 ,4.17947 ,41.00895 
53 ,11.2309 ,0.95668 ,4.14867 ,40.70674 
54 ,11.4233 ,0.95862 ,4.12129 ,40.43812 
55 ,11.6316 ,0.96070 ,4.10418 ,40.27023 
56 ,11.8397 ,0.96274 ,4.09049 ,40.13591 
57 ,12.0477 ,0.96477 ,4.05969 ,39.83371 
58 ,12.2555 ,0.96686 ,4.06312 ,39.86729 
59 ,12.4639 ,0.96901 ,4.02205 ,39.46435 
60 ,12.6880 ,0.97120 ,3.99467 ,39.19572 
61 ,12.8961 ,0.97341 ,3.97756 ,39.02783 
62 ,13.1042 ,0.97535 ,3.94334 ,38.69205 
63 ,13.3123 ,0.97744 ,3.95361 ,38.79278 
64 ,13.5202 ,0.97958 ,3.91938 ,38.45700 
65 ,13.7123 ,0.98153 ,3.89543 ,38.22195 
66 ,13.9206 ,0.98354 ,3.87147 ,37.98690 
67 ,14.1447 ,0.98576 ,3.84752 ,37.75185 
68 ,14.3527 ,0.98784 ,3.83725 ,37.65112 
69 ,14.5443 ,0.98984 ,3.80987 ,37.38249 
70 ,14.7528 ,0.99185 ,3.79619 ,37.24818 
71 ,14.9450 ,0.99382 ,3.76196 ,36.91240 
72 ,15.1529 ,0.99595 ,3.74143 ,36.71093 
73 ,15.3610 ,0.99796 ,3.72774 ,36.57661 
74 ,15.5690 ,1.00000 ,3.70037 ,36.30799 
75 ,15.8092 ,1.00233 ,3.70379 ,36.34157 
76 ,16.0331 ,1.00465 ,3.66957 ,36.00578 
77 ,16.2415 ,1.00676 ,3.63877 ,35.70358 
78 ,16.4494 ,1.00886 ,3.60797 ,35.40137 
79 ,16.6257 ,1.01074 ,3.60112 ,35.33422 
80 ,16.8652 ,1.01281 ,3.58401 ,35.16632 
81 ,17.0738 ,1.01506 ,3.57032 ,35.03201 
82 ,17.2819 ,1.01713 ,3.52241 ,34.56192 
83 ,17.4736 ,1.01917 ,3.51557 ,34.49476 
84 ,17.6661 ,1.02103 ,3.48135 ,34.15898 
85 ,17.8738 ,1.02301 ,3.47792 ,34.12540 
86 ,18.0822 ,1.02513 ,3.45397 ,33.89035 
87 ,18.3063 ,1.02737 ,3.40948 ,33.45383 
88 ,18.5145 ,1.02949 ,3.41633 ,33.52099 
89 ,18.7225 ,1.03157 ,3.37868 ,33.15163 
90 ,18.9462 ,1.03373 ,3.35473 ,32.91658 
91 ,19.1545 ,1.03590 ,3.35130 ,32.88300 
92 ,19.3787 ,1.03817 ,3.32393 ,32.61437 
93 ,19.6028 ,1.04035 ,3.28971 ,32.27859 
94 ,19.7950 ,1.04230 ,3.28971 ,32.27859 
95 ,20.0025 ,1.04432 ,3.24864 ,31.87565 
96 ,20.2426 ,1.04666 ,3.24522 ,31.84207 
97 ,20.4506 ,1.04884 ,3.22468 ,31.64060 
98 ,20.6591 ,1.05093 ,3.19388 ,31.33840 
99 ,20.8833 ,1.05311 ,3.16309 ,31.03619 
100 ,21.0755 ,1.05510 ,3.16309 ,31.03619 
101 ,21.2995 ,1.05727 ,3.12886 ,30.70041 
102 ,21.5076 ,1.05942 ,3.09464 ,30.36463 
103 ,21.6998 ,1.06139 ,3.08780 ,30.29747 
104 ,21.9078 ,1.06348 ,3.05700 ,29.99527 
105 ,22.1159 ,1.06547 ,3.06042 ,30.02884 
106 ,22.3076 ,1.06741 ,3.02620 ,29.69306 
107 ,22.5161 ,1.06948 ,3.00567 ,29.49159 
108 ,22.7402 ,1.07158 ,2.98171 ,29.25654 
109 ,22.9482 ,1.07375 ,2.97144 ,29.15581 
110 ,23.1722 ,1.07607 ,2.95776 ,29.02150 
111 ,23.3640 ,1.07799 ,2.91327 ,28.58498 
112 ,23.5723 ,1.08005 ,2.91327 ,28.58498 
113 ,23.7967 ,1.08225 ,2.87905 ,28.24919 
114 ,24.0045 ,1.08433 ,2.85509 ,28.01415 
115 ,24.2122 ,1.08643 ,2.85509 ,28.01415 
116 ,24.4049 ,1.08842 ,2.80718 ,27.54405 
117 ,24.6291 ,1.09057 ,2.80376 ,27.51047 
118 ,24.8529 ,1.09280 ,2.79349 ,27.40974 
119 ,25.0453 ,1.09477 ,2.73874 ,26.87248 
120 ,25.2532 ,1.09694 ,2.74216 ,26.90606 
121 ,25.4614 ,1.09890 ,2.70109 ,26.50312 
122 ,25.6530 ,1.10094 ,2.70794 ,26.57028 
123 ,25.8616 ,1.10298 ,2.67714 ,26.26807 
124 ,26.0855 ,1.10509 ,2.65660 ,26.06661 
125 ,26.2939 ,1.10723 ,2.65660 ,26.06661 
126 ,26.5178 ,1.10943 ,2.61212 ,25.63009 
127 ,26.7097 ,1.11142 ,2.61212 ,25.63009 
128 ,26.9340 ,1.11365 ,2.58816 ,25.39504 
129 ,27.1420 ,1.11574 ,2.56078 ,25.12641 
130 ,27.3502 ,1.11773 ,2.56078 ,25.12641 
131 ,27.5582 ,1.11985 ,2.51972 ,24.72347 
132 ,27.7662 ,1.12194 ,2.50603 ,24.58916 
133 ,27.9741 ,1.12405 ,2.49918 ,24.52200 
134 ,28.1825 ,1.12611 ,2.46839 ,24.21980 
135 ,28.4061 ,1.12844 ,2.45127 ,24.05191 
136 ,28.6145 ,1.13041 ,2.44443 ,23.98475 
137 ,28.8387 ,1.13264 ,2.42048 ,23.74970 
138 ,29.0625 ,1.13491 ,2.39994 ,23.54823 
139 ,29.2547 ,1.13689 ,2.39652 ,23.51465 
140 ,29.4468 ,1.13883 ,2.37599 ,23.31318 
141 ,29.6551 ,1.14080 ,2.35203 ,23.07814 
142 ,29.8791 ,1.14304 ,2.32123 ,22.77593 
143 ,30.0709 ,1.14504 ,2.33834 ,22.94382 
144 ,30.2792 ,1.14707 ,2.29728 ,22.54088 
145 ,30.4714 ,1.14902 ,2.29385 ,22.50731 
146 ,30.6955 ,1.15116 ,2.26990 ,22.27226 
147 ,30.9197 ,1.15344 ,2.24594 ,22.03721 
148 ,31.1435 ,1.15570 ,2.23568 ,21.93647 
149 ,31.3678 ,1.15788 ,2.21857 ,21.76858 
150 ,31.5919 ,1.16019 ,2.19461 ,21.53353 
151 ,31.7999 ,1.16224 ,2.17066 ,21.29849 
152 ,32.0080 ,1.16434 ,2.16723 ,21.26491 
153 ,32.2319 ,1.16657 ,2.13644 ,20.96270 
154 ,32.4401 ,1.16871 ,2.12275 ,20.82839 
155 ,32.6643 ,1.17088 ,2.12275 ,20.82839 
156 ,32.8884 ,1.17313 ,2.10221 ,20.62692 
157 ,33.0644 ,1.17505 ,2.06799 ,20.29114 
158 ,33.2725 ,1.17705 ,2.05773 ,20.19040 
159 ,33.4804 ,1.17909 ,2.02693 ,19.88820 
160 ,33.6888 ,1.18115 ,2.04746 ,20.08967 
161 ,33.8968 ,1.18321 ,1.99613 ,19.58599 
162 ,34.1209 ,1.18543 ,1.99955 ,19.61957 
163 ,34.3130 ,1.18743 ,1.97559 ,19.38452 
164 ,34.5365 ,1.18954 ,1.94479 ,19.08232 
165 ,34.7452 ,1.19170 ,1.94137 ,19.04874 
166 ,34.9530 ,1.19380 ,1.91742 ,18.81369 
167 ,35.1613 ,1.19588 ,1.91057 ,18.74654 
168 ,35.3533 ,1.19782 ,1.89004 ,18.54507 
169 ,35.5612 ,1.19987 ,1.88662 ,18.51149 
170 ,35.7854 ,1.20210 ,1.86951 ,18.34360 
171 ,35.9937 ,1.20420 ,1.83186 ,17.97423 
172 ,36.2014 ,1.20627 ,1.81817 ,17.83992 
173 ,36.4098 ,1.20842 ,1.82160 ,17.87350 
174 ,36.6180 ,1.21046 ,1.79422 ,17.60487 
175 ,36.8259 ,1.21250 ,1.80106 ,17.67203 
176 ,37.0020 ,1.21442 ,1.76342 ,17.30267 
177 ,37.1941 ,1.21635 ,1.75315 ,17.20193 
178 ,37.4021 ,1.21827 ,1.73604 ,17.03404 
179 ,37.6102 ,1.22038 ,1.73262 ,17.00046 
180 ,37.8182 ,1.22245 ,1.69840 ,16.66468 
181 ,38.0424 ,1.22468 ,1.69840 ,16.66468 
182 ,38.2662 ,1.22688 ,1.66760 ,16.36248 
183 ,38.4747 ,1.22895 ,1.64707 ,16.16101 
184 ,38.6666 ,1.23092 ,1.64364 ,16.12743 
185 ,38.8750 ,1.23298 ,1.61969 ,15.89238 
186 ,39.0829 ,1.23502 ,1.62311 ,15.92596 
187 ,39.3070 ,1.23733 ,1.59916 ,15.69091 
188 ,39.5152 ,1.23939 ,1.57520 ,15.45586 
189 ,39.7233 ,1.24149 ,1.57862 ,15.48944 
190 ,39.9472 ,1.24365 ,1.55467 ,15.25439 
191 ,40.1551 ,1.24571 ,1.51702 ,14.88503 
192 ,40.3472 ,1.24773 ,1.52387 ,14.95219 
193 ,40.5555 ,1.24983 ,1.48622 ,14.58283 
194 ,40.7637 ,1.25189 ,1.49991 ,14.71714 
195 ,40.9717 ,1.25394 ,1.45885 ,14.31420 
196 ,41.1953 ,1.25617 ,1.43489 ,14.07915 
197 ,41.4039 ,1.25829 ,1.44858 ,14.21346 
198 ,41.6281 ,1.26052 ,1.42120 ,13.94484 
199 ,41.8521 ,1.26274 ,1.38356 ,13.57548 
200 ,42.0759 ,1.26493 ,1.38356 ,13.57548 
201 ,42.2839 ,1.26708 ,1.37671 ,13.50832 
202 ,42.4923 ,1.26920 ,1.34249 ,13.17254 
203 ,42.7165 ,1.27135 ,1.32196 ,12.97107 
204 ,42.9245 ,1.27351 ,1.32880 ,13.03822 
205 ,43.1327 ,1.27554 ,1.28089 ,12.56813 
206 ,43.3407 ,1.27759 ,1.30485 ,12.80318 
207 ,43.5647 ,1.27987 ,1.28089 ,12.56813 
208 ,43.7888 ,1.28204 ,1.24325 ,12.19877 
209 ,43.9971 ,1.28417 ,1.23641 ,12.13161 
210 ,44.2208 ,1.28644 ,1.22614 ,12.03088 
211 ,44.4292 ,1.28849 ,1.21587 ,11.93014 
212 ,44.6371 ,1.29061 ,1.17823 ,11.56078 
213 ,44.8449 ,1.29258 ,1.18850 ,11.66151 
214 ,45.0530 ,1.29479 ,1.16112 ,11.39289 
215 ,45.3089 ,1.29722 ,1.14743 ,11.25857 
216 ,45.5173 ,1.29938 ,1.13032 ,11.09068 
217 ,45.7252 ,1.30152 ,1.12005 ,10.98995 
218 ,45.9338 ,1.30348 ,1.09952 ,10.78848 
219 ,46.1575 ,1.30575 ,1.07556 ,10.55343 
220 ,46.3499 ,1.30773 ,1.07214 ,10.51985 
221 ,46.5580 ,1.30982 ,1.05845 ,10.38554 
222 ,46.7657 ,1.31189 ,1.04819 ,10.28480 
223 ,46.9902 ,1.31410 ,1.01739 ,9.98260 
224 ,47.2141 ,1.31630 ,0.99685 ,9.78113 
225 ,47.4383 ,1.31858 ,0.99685 ,9.78113 
226 ,47.6467 ,1.32072 ,0.99001 ,9.71397 
227 ,47.8544 ,1.32273 ,0.95237 ,9.34461 
228 ,48.0624 ,1.32490 ,0.95237 ,9.34461 
229 ,48.2707 ,1.32694 ,0.93183 ,9.14314 
230 ,48.4786 ,1.32898 ,0.93525 ,9.17672 
231 ,48.7029 ,1.33123 ,0.92157 ,9.04241 
232 ,48.9107 ,1.33327 ,0.87708 ,8.60589 
233 ,49.1190 ,1.33535 ,0.88050 ,8.63947 
234 ,49.3108 ,1.33747 ,0.86339 ,8.47158 
235 ,49.5033 ,1.33926 ,0.88050 ,8.63947 
236 ,49.7271 ,1.34142 ,0.84970 ,8.33726 
237 ,49.9674 ,1.34365 ,0.83601 ,8.20295 
238 ,50.1915 ,1.34608 ,0.79152 ,7.76643 
239 ,50.4157 ,1.34821 ,0.81548 ,8.00148 
240 ,50.6236 ,1.35053 ,0.79152 ,7.76643 
241 ,50.8157 ,1.35236 ,0.76415 ,7.49780 
242 ,51.0239 ,1.35445 ,0.76415 ,7.49780 
243 ,51.2155 ,1.35634 ,0.73677 ,7.22918 
244 ,51.4079 ,1.35843 ,0.73335 ,7.19560 
245 ,51.6160 ,1.36040 ,0.71624 ,7.02771 
246 ,51.8242 ,1.36248 ,0.70939 ,6.96055 
247 ,52.0162 ,1.36445 ,0.68544 ,6.72550 
248 ,52.2244 ,1.36647 ,0.67517 ,6.62477 
249 ,52.4323 ,1.36857 ,0.65464 ,6.42330 
250 ,52.6721 ,1.37079 ,0.65806 ,6.45688 
251 ,52.8802 ,1.37293 ,0.63753 ,6.25541 
252 ,53.0723 ,1.37493 ,0.61015 ,5.98678 
253 ,53.2806 ,1.37701 ,0.60673 ,5.95320 
254 ,53.5043 ,1.37918 ,0.58277 ,5.71815 
255 ,53.7130 ,1.38128 ,0.58277 ,5.71815 
256 ,53.9210 ,1.38338 ,0.57935 ,5.68458 
257 ,54.1453 ,1.38561 ,0.55197 ,5.41595 
258 ,54.3531 ,1.38765 ,0.53144 ,5.21448 
259 ,54.5610 ,1.38982 ,0.54171 ,5.31522 
260 ,54.7693 ,1.39194 ,0.50748 ,4.97943 
261 ,54.9774 ,1.39402 ,0.50406 ,4.94585 
262 ,55.1855 ,1.39608 ,0.49380 ,4.84512 
263 ,55.4093 ,1.39828 ,0.46984 ,4.61007 
264 ,55.6176 ,1.40041 ,0.48011 ,4.71081 
265 ,55.8259 ,1.40239 ,0.45615 ,4.47576 
266 ,56.0499 ,1.40462 ,0.43562 ,4.27429 
267 ,56.2579 ,1.40673 ,0.43904 ,4.30787 
268 ,56.4820 ,1.40898 ,0.41166 ,4.03924 
269 ,56.6741 ,1.41096 ,0.40824 ,4.00566 
270 ,56.8981 ,1.41312 ,0.40824 ,4.00566 
271 ,57.0903 ,1.41510 ,0.37402 ,3.66988 
272 ,57.2983 ,1.41714 ,0.38429 ,3.77061 
273 ,57.5064 ,1.41918 ,0.33980 ,3.33410 
274 ,57.6984 ,1.42120 ,0.36033 ,3.53557 
275 ,57.9382 ,1.42343 ,0.32269 ,3.16620 
276 ,58.1467 ,1.42561 ,0.31926 ,3.13263 
277 ,58.3548 ,1.42782 ,0.28504 ,2.79684 
278 ,58.5466 ,1.42966 ,0.28847 ,2.83042 
279 ,58.7549 ,1.43168 ,0.29189 ,2.86400 
280 ,58.9629 ,1.43384 ,0.27478 ,2.69611 
281 ,59.1871 ,1.43601 ,0.24398 ,2.39390 
282 ,59.4272 ,1.43830 ,0.24740 ,2.42748 
283 ,59.6511 ,1.44066 ,0.23029 ,2.25959 
284 ,59.8594 ,1.44275 ,0.23029 ,2.25959 
285 ,60.0677 ,1.44480 ,0.19607 ,1.92381 
286 ,60.2915 ,1.44703 ,0.19949 ,1.95738 
287 ,60.4996 ,1.44910 ,0.17211 ,1.68876 
288 ,60.7077 ,1.45124 ,0.15500 ,1.52087 
289 ,60.8995 ,1.45318 ,0.16869 ,1.65518 
290 ,61.0919 ,1.45509 ,0.13789 ,1.35298 
291 ,61.2995 ,1.45713 ,0.14131 ,1.38655 
292 ,61.5080 ,1.45925 ,0.10367 ,1.01719 
293 ,61.7642 ,1.46181 ,0.09682 ,0.95004 
294 ,61.9719 ,1.46387 ,0.09340 ,0.91646 
295 ,62.1643 ,1.46582 ,0.07971 ,0.78214 
296 ,62.3719 ,1.46783 ,0.08998 ,0.88288 
297 ,62.5643 ,1.46995 ,0.05576 ,0.54710 
298 ,62.7725 ,1.47183 ,0.06602 ,0.64783 
299 ,62.9646 ,1.47384 ,0.04549 ,0.44636 
300 ,63.1728 ,1.47592 ,0.03522 ,0.34563 
301 ,63.3808 ,1.47795 ,0.02496 ,0.24489 
302 ,63.5724 ,1.47987 ,0.01127 ,0.11058 
303 ,63.7649 ,1.48181 ,-0.00242 ,-0.02373 
304 ,63.9729 ,1.48385 ,0.01127 ,0.11058 
305 ,64.1649 ,1.48585 ,-0.01953 ,-0.19163 
306 ,64.3730 ,1.48789 ,-0.02295 ,-0.22520 
307 ,64.5811 ,1.48993 ,-0.04691 ,-0.46025 
308 ,64.8213 ,1.49226 ,-0.05033 ,-0.49383 
309 ,65.0453 ,1.49458 ,-0.07771 ,-0.76246 
310 ,65.2375 ,1.49652 ,-0.06060 ,-0.59457 
311 ,65.4457 ,1.49860 ,-0.09824 ,-0.96393 
312 ,65.6538 ,1.50070 ,-0.08455 ,-0.82961 
313 ,65.8619 ,1.50277 ,-0.11193 ,-1.09824 
314 ,66.0538 ,1.50477 ,-0.10851 ,-1.06466 
315 ,66.2621 ,1.50679 ,-0.12219 ,-1.19898 
316 ,66.4541 ,1.50872 ,-0.13931 ,-1.36687 
317 ,66.6621 ,1.51079 ,-0.15642 ,-1.53476 
318 ,66.8538 ,1.51268 ,-0.14273 ,-1.40045 
319 ,67.0623 ,1.51477 ,-0.17011 ,-1.66907 
320 ,67.2863 ,1.51697 ,-0.19064 ,-1.87054 
321 ,67.4945 ,1.51908 ,-0.19064 ,-1.87054 
322 ,67.7027 ,1.52111 ,-0.21459 ,-2.10559 
323 ,67.9103 ,1.52323 ,-0.20775 ,-2.03843 
324 ,68.1345 ,1.52533 ,-0.23170 ,-2.27348 
325 ,68.3589 ,1.52771 ,-0.25224 ,-2.47495 
326 ,68.5670 ,1.52978 ,-0.25224 ,-2.47495 
327 ,68.7911 ,1.53199 ,-0.25224 ,-2.47495 
328 ,68.9992 ,1.53412 ,-0.26250 ,-2.57569 
329 ,69.2233 ,1.53637 ,-0.28646 ,-2.81073 
330 ,69.4310 ,1.53846 ,-0.27961 ,-2.74358 
331 ,69.6395 ,1.54049 ,-0.30357 ,-2.97863 
332 ,69.8475 ,1.54258 ,-0.31384 ,-3.07936 
333 ,70.0714 ,1.54486 ,-0.31384 ,-3.07936 
334 ,70.2635 ,1.54683 ,-0.33779 ,-3.31441 
335 ,70.4556 ,1.54874 ,-0.32410 ,-3.18010 
336 ,70.6640 ,1.55074 ,-0.35832 ,-3.51588 
337 ,70.8879 ,1.55295 ,-0.35490 ,-3.48230 
338 ,71.0961 ,1.55502 ,-0.36517 ,-3.58303 
339 ,71.2878 ,1.55700 ,-0.36859 ,-3.61661 
340 ,71.4960 ,1.55912 ,-0.36859 ,-3.61661 
341 ,71.7044 ,1.56114 ,-0.39939 ,-3.91882 
342 ,71.9126 ,1.56319 ,-0.39597 ,-3.88524 
343 ,72.1365 ,1.56544 ,-0.41650 ,-4.08671 
344 ,72.3446 ,1.56753 ,-0.42677 ,-4.18744 
345 ,72.5527 ,1.56963 ,-0.43019 ,-4.22102 
346 ,72.7606 ,1.57178 ,-0.45072 ,-4.42249 
347 ,72.9689 ,1.57378 ,-0.44730 ,-4.38891 
348 ,73.2089 ,1.57619 ,-0.44388 ,-4.35534 
349 ,73.4166 ,1.57821 ,-0.49521 ,-4.85901 
350 ,73.6092 ,1.58019 ,-0.47810 ,-4.69112 
351 ,73.8172 ,1.58231 ,-0.49521 ,-4.85901 
352 ,74.0254 ,1.58429 ,-0.51574 ,-5.06048 
353 ,74.2495 ,1.58658 ,-0.50890 ,-4.99332 
354 ,74.4736 ,1.58884 ,-0.53970 ,-5.29553 
355 ,74.6812 ,1.59104 ,-0.53970 ,-5.29553 
356 ,74.8737 ,1.59285 ,-0.54654 ,-5.36268 
357 ,75.0817 ,1.59490 ,-0.58761 ,-5.76562 
358 ,75.3219 ,1.59718 ,-0.56708 ,-5.56415 
359 ,75.5459 ,1.59957 ,-0.57734 ,-5.66489 
360 ,75.7536 ,1.60166 ,-0.59788 ,-5.86636 
361 ,75.9621 ,1.60376 ,-0.61841 ,-6.06783 
362 ,76.1701 ,1.60577 ,-0.60814 ,-5.96709 
363 ,76.3782 ,1.60782 ,-0.62868 ,-6.16856 
364 ,76.5863 ,1.60996 ,-0.63894 ,-6.26930 
365 ,76.8261 ,1.61228 ,-0.63552 ,-6.23572 
366 ,77.0344 ,1.61445 ,-0.66974 ,-6.57150 
367 ,77.2427 ,1.61659 ,-0.68001 ,-6.67224 
368 ,77.4344 ,1.61854 ,-0.67316 ,-6.60508 
369 ,77.6105 ,1.62034 ,-0.67316 ,-6.60508 
370 ,77.8190 ,1.62226 ,-0.68685 ,-6.73940 
371 ,78.0429 ,1.62449 ,-0.71081 ,-6.97444 
372 ,78.2351 ,1.62649 ,-0.71765 ,-7.04160 
373 ,78.4431 ,1.62850 ,-0.72450 ,-7.10876 
374 ,78.6353 ,1.63041 ,-0.72792 ,-7.14233 
375 ,78.8431 ,1.63251 ,-0.73134 ,-7.17591 
376 ,79.0510 ,1.63462 ,-0.73818 ,-7.24307 
377 ,79.2915 ,1.63688 ,-0.77241 ,-7.57885 
378 ,79.5318 ,1.63925 ,-0.78952 ,-7.74674 
379 ,79.7553 ,1.64163 ,-0.79978 ,-7.84748 
380 ,79.9478 ,1.64358 ,-0.77583 ,-7.61243 
381 ,80.1717 ,1.64570 ,-0.80663 ,-7.91464 
382 ,80.3797 ,1.64794 ,-0.82374 ,-8.08253 
383 ,80.5876 ,1.64997 ,-0.81347 ,-7.98179 
384 ,80.7956 ,1.65208 ,-0.84769 ,-8.31758 
385 ,81.0198 ,1.65421 ,-0.84427 ,-8.28400 
386 ,81.2600 ,1.65675 ,-0.86481 ,-8.48547 
387 ,81.5004 ,1.65899 ,-0.85112 ,-8.35115 
388 ,81.7245 ,1.66129 ,-0.86138 ,-8.45189 
389 ,81.9484 ,1.66352 ,-0.86481 ,-8.48547 
390 ,82.1247 ,1.66549 ,-0.88876 ,-8.72051 
391 ,82.3329 ,1.66741 ,-0.90587 ,-8.88841 
392 ,82.5408 ,1.66947 ,-0.90245 ,-8.85483 
393 ,82.7649 ,1.67173 ,-0.89560 ,-8.78767 
394 ,82.9727 ,1.67380 ,-0.90587 ,-8.88841 
395 ,83.1809 ,1.67587 ,-0.92983 ,-9.12345 
396 ,83.4050 ,1.67807 ,-0.91956 ,-9.02272 
397 ,83.6129 ,1.68021 ,-0.94694 ,-9.29135 
398 ,83.8214 ,1.68225 ,-0.96063 ,-9.42566 
399 ,84.0454 ,1.68447 ,-0.96405 ,-9.45924 
400 ,84.2695 ,1.68680 ,-0.97089 ,-9.52639 
401 ,84.4936 ,1.68900 ,-0.98116 ,-9.62713 
402 ,84.7171 ,1.69119 ,-1.01880 ,-9.99649 
403 ,84.9260 ,1.69330 ,-0.99143 ,-9.72786 
404 ,85.1338 ,1.69540 ,-1.02222 ,-10.03007 
405 ,85.3420 ,1.69747 ,-1.01880 ,-9.99649 
406 ,85.5502 ,1.69954 ,-1.03249 ,-10.13080 
407 ,85.7737 ,1.70177 ,-1.05645 ,-10.36585 
408 ,85.9660 ,1.70384 ,-1.04960 ,-10.29869 
409 ,86.1904 ,1.70591 ,-1.05302 ,-10.33227 
410 ,86.4140 ,1.70820 ,-1.07698 ,-10.56732 
411 ,86.6064 ,1.71022 ,-1.07356 ,-10.53374 
412 ,86.8145 ,1.71222 ,-1.09751 ,-10.76879 
413 ,87.0385 ,1.71445 ,-1.09409 ,-10.73521 
414 ,87.2626 ,1.71665 ,-1.10093 ,-10.80237 
415 ,87.4544 ,1.71874 ,-1.11805 ,-10.97026 
416 ,87.6468 ,1.72053 ,-1.12147 ,-11.00384 
417 ,87.8709 ,1.72271 ,-1.13173 ,-11.10457 
418 ,88.0631 ,1.72476 ,-1.14542 ,-11.23889 
419 ,88.2712 ,1.72677 ,-1.15569 ,-11.33962 
420 ,88.4952 ,1.72898 ,-1.17280 ,-11.50751 
421 ,88.7034 ,1.73108 ,-1.17280 ,-11.50751 
422 ,88.9275 ,1.73330 ,-1.17280 ,-11.50751 
423 ,89.1511 ,1.73553 ,-1.17964 ,-11.57467 
424 ,89.3278 ,1.73745 ,-1.19333 ,-11.70898 
425 ,89.5354 ,1.73939 ,-1.23098 ,-12.07834 
426 ,89.7595 ,1.74159 ,-1.21387 ,-11.91045 
427 ,89.9677 ,1.74370 ,-1.21729 ,-11.94403 
428 ,90.1759 ,1.74579 ,-1.24124 ,-12.17908 
429 ,90.4001 ,1.74803 ,-1.22755 ,-12.04477 
430 ,90.6244 ,1.75028 ,-1.23782 ,-12.14550 
431 ,90.8321 ,1.75246 ,-1.24124 ,-12.17908 
432 ,91.0244 ,1.75433 ,-1.24467 ,-12.21266 
433 ,91.2326 ,1.75630 ,-1.26862 ,-12.44771 
434 ,91.4563 ,1.75857 ,-1.27889 ,-12.54844 
435 ,91.6486 ,1.76058 ,-1.27204 ,-12.48128 
436 ,91.8565 ,1.76259 ,-1.29258 ,-12.68275 
437 ,92.0645 ,1.76472 ,-1.27204 ,-12.48128 
438 ,92.2566 ,1.76665 ,-1.30626 ,-12.81707 
439 ,92.4805 ,1.76880 ,-1.29600 ,-12.71633 
440 ,92.6891 ,1.77092 ,-1.29600 ,-12.71633 
441 ,92.9130 ,1.77315 ,-1.33022 ,-13.05212 
442 ,93.1051 ,1.77514 ,-1.31311 ,-12.88422 
443 ,93.3292 ,1.77729 ,-1.32338 ,-12.98496 
444 ,93.5368 ,1.77934 ,-1.33706 ,-13.11927 
445 ,93.7452 ,1.78151 ,-1.32338 ,-12.98496 
446 ,93.9375 ,1.78354 ,-1.35417 ,-13.28716 
447 ,94.1457 ,1.78546 ,-1.34391 ,-13.18643 
448 ,94.3696 ,1.78775 ,-1.37129 ,-13.45506 
449 ,94.5777 ,1.78976 ,-1.39182 ,-13.65653 
450 ,94.7854 ,1.79193 ,-1.39182 ,-13.65653 
451 ,95.0898 ,1.79444 ,-1.40893 ,-13.82442 
452 ,95.2980 ,1.79706 ,-1.41920 ,-13.92515 
453 ,95.5059 ,1.79916 ,-1.40893 ,-13.82442 
454 ,95.7139 ,1.80112 ,-1.43288 ,-14.05946 
455 ,95.9379 ,1.80338 ,-1.42604 ,-13.99231 
456 ,96.1464 ,1.80547 ,-1.44315 ,-14.16020 
457 ,96.3704 ,1.80769 ,-1.46711 ,-14.39525 
458 ,96.5626 ,1.80966 ,-1.45684 ,-14.29451 
459 ,96.7866 ,1.81183 ,-1.46711 ,-14.39525 
460 ,96.9944 ,1.81397 ,-1.49791 ,-14.69745 
