Data stamp = , 17-05-2022 11:27:58 929

Calibration Values: 
Slope = , 26.54 , g/V 
Offset Voltage at no contact = , -0.501760 , V 

No , Time , Stage Position ,   Mass , Force 
   ,  (s) ,      (mm)      ,   (g)  , (mN)  

1 ,0.0000 ,0.84964 ,5.13768 ,50.41087 
2 ,0.3236 ,0.84989 ,5.12741 ,50.31014 
3 ,0.7241 ,0.85153 ,5.13768 ,50.41087 
4 ,0.9799 ,0.85405 ,5.15479 ,50.57876 
5 ,1.2040 ,0.85627 ,5.13768 ,50.41087 
6 ,1.3960 ,0.85831 ,5.13425 ,50.37729 
7 ,1.6042 ,0.86038 ,5.13768 ,50.41087 
8 ,1.8289 ,0.86265 ,5.11372 ,50.17583 
9 ,2.0525 ,0.86487 ,5.07608 ,49.80646 
10 ,2.2771 ,0.86714 ,5.05554 ,49.60499 
11 ,2.5010 ,0.86932 ,5.04870 ,49.53784 
12 ,2.7090 ,0.87146 ,5.02132 ,49.26921 
13 ,2.9172 ,0.87357 ,4.98710 ,48.93343 
14 ,3.1408 ,0.87576 ,4.97341 ,48.79911 
15 ,3.3491 ,0.87780 ,4.95288 ,48.59764 
16 ,3.5575 ,0.87991 ,4.92550 ,48.32902 
17 ,3.7814 ,0.88210 ,4.91181 ,48.19471 
18 ,3.9736 ,0.88412 ,4.87759 ,47.85892 
19 ,4.1814 ,0.88609 ,4.87759 ,47.85892 
20 ,4.4053 ,0.88834 ,4.85706 ,47.65745 
21 ,4.5977 ,0.89035 ,4.81599 ,47.25451 
22 ,4.7898 ,0.89232 ,4.80573 ,47.15378 
23 ,4.9978 ,0.89430 ,4.77835 ,46.88515 
24 ,5.2057 ,0.89640 ,4.76466 ,46.75084 
25 ,5.4301 ,0.89863 ,4.73044 ,46.41506 
26 ,5.6542 ,0.90083 ,4.70306 ,46.14643 
27 ,5.8623 ,0.90294 ,4.69964 ,46.11285 
28 ,6.0705 ,0.90510 ,4.66199 ,45.74349 
29 ,6.2944 ,0.90721 ,4.63804 ,45.50844 
30 ,6.4867 ,0.90935 ,4.62777 ,45.40771 
31 ,6.6788 ,0.91118 ,4.62093 ,45.34055 
32 ,6.8870 ,0.91313 ,4.59013 ,45.03835 
33 ,7.1110 ,0.91542 ,4.56275 ,44.76972 
34 ,7.3190 ,0.91762 ,4.53537 ,44.50109 
35 ,7.5269 ,0.91959 ,4.53195 ,44.46751 
36 ,7.7191 ,0.92157 ,4.50800 ,44.23247 
37 ,7.9273 ,0.92362 ,4.48062 ,43.96384 
38 ,8.1511 ,0.92581 ,4.44298 ,43.59448 
39 ,8.3593 ,0.92794 ,4.45324 ,43.69521 
40 ,8.5671 ,0.92992 ,4.40875 ,43.25870 
41 ,8.7752 ,0.93206 ,4.38822 ,43.05723 
42 ,8.9839 ,0.93410 ,4.37453 ,42.92291 
43 ,9.1916 ,0.93623 ,4.33689 ,42.55355 
44 ,9.3998 ,0.93826 ,4.34031 ,42.58713 
45 ,9.6238 ,0.94052 ,4.31636 ,42.35208 
46 ,9.8480 ,0.94276 ,4.27187 ,41.91556 
47 ,10.0561 ,0.94495 ,4.27871 ,41.98272 
48 ,10.2643 ,0.94693 ,4.24791 ,41.68051 
49 ,10.4719 ,0.94913 ,4.22053 ,41.41189 
50 ,10.6644 ,0.95100 ,4.21369 ,41.34473 
51 ,10.8563 ,0.95302 ,4.18289 ,41.04253 
52 ,11.0486 ,0.95484 ,4.16236 ,40.84106 
53 ,11.2563 ,0.95689 ,4.14183 ,40.63959 
54 ,11.4487 ,0.95878 ,4.12129 ,40.43812 
55 ,11.6406 ,0.96076 ,4.13156 ,40.53885 
56 ,11.8485 ,0.96277 ,4.08707 ,40.10233 
57 ,12.0570 ,0.96493 ,4.08365 ,40.06876 
58 ,12.2490 ,0.96691 ,4.06654 ,39.90087 
59 ,12.4410 ,0.96874 ,4.04258 ,39.66582 
60 ,12.6332 ,0.97067 ,4.00494 ,39.29646 
61 ,12.8575 ,0.97285 ,4.00494 ,39.29646 
62 ,13.0489 ,0.97493 ,3.97414 ,38.99425 
63 ,13.2416 ,0.97672 ,3.96045 ,38.85994 
64 ,13.4494 ,0.97882 ,3.92965 ,38.55773 
65 ,13.6576 ,0.98088 ,3.91938 ,38.45700 
66 ,13.8497 ,0.98289 ,3.88858 ,38.15479 
67 ,14.0577 ,0.98486 ,3.89201 ,38.18837 
68 ,14.2979 ,0.98720 ,3.84752 ,37.75185 
69 ,14.5221 ,0.98949 ,3.83383 ,37.61754 
70 ,14.7299 ,0.99158 ,3.79961 ,37.28176 
71 ,14.9542 ,0.99383 ,3.77223 ,37.01313 
72 ,15.1623 ,0.99590 ,3.76196 ,36.91240 
73 ,15.4025 ,0.99824 ,3.72774 ,36.57661 
74 ,15.6265 ,1.00052 ,3.70379 ,36.34157 
75 ,15.8346 ,1.00267 ,3.69694 ,36.27441 
76 ,16.0581 ,1.00488 ,3.67641 ,36.07294 
77 ,16.2662 ,1.00698 ,3.64561 ,35.77073 
78 ,16.5066 ,1.00930 ,3.63534 ,35.67000 
79 ,16.7469 ,1.01179 ,3.58743 ,35.19990 
80 ,16.9550 ,1.01391 ,3.58059 ,35.13275 
81 ,17.1631 ,1.01593 ,3.56006 ,34.93128 
82 ,17.3709 ,1.01799 ,3.54295 ,34.76338 
83 ,17.5951 ,1.02026 ,3.51899 ,34.52834 
84 ,17.8353 ,1.02252 ,3.50872 ,34.42760 
85 ,18.0595 ,1.02487 ,3.48477 ,34.19255 
86 ,18.2676 ,1.02689 ,3.44370 ,33.78961 
87 ,18.4754 ,1.02902 ,3.44028 ,33.75604 
88 ,18.6837 ,1.03110 ,3.40264 ,33.38667 
89 ,18.9078 ,1.03336 ,3.36157 ,32.98374 
90 ,19.1158 ,1.03539 ,3.38553 ,33.21878 
91 ,19.3239 ,1.03749 ,3.34788 ,32.84942 
92 ,19.5319 ,1.03960 ,3.32393 ,32.61437 
93 ,19.7562 ,1.04179 ,3.31708 ,32.54722 
94 ,19.9802 ,1.04406 ,3.29313 ,32.31217 
95 ,20.1724 ,1.04604 ,3.26575 ,32.04354 
96 ,20.3806 ,1.04806 ,3.25206 ,31.90923 
97 ,20.5887 ,1.05013 ,3.21100 ,31.50629 
98 ,20.7802 ,1.05212 ,3.20757 ,31.47271 
99 ,20.9887 ,1.05416 ,3.16993 ,31.10335 
100 ,21.1966 ,1.05629 ,3.17335 ,31.13693 
101 ,21.4050 ,1.05829 ,3.12202 ,30.63325 
102 ,21.6130 ,1.06040 ,3.11175 ,30.53252 
103 ,21.8210 ,1.06243 ,3.08438 ,30.26389 
104 ,22.0449 ,1.06461 ,3.07411 ,30.16316 
105 ,22.2532 ,1.06683 ,3.06384 ,30.06242 
106 ,22.4614 ,1.06890 ,3.04673 ,29.89453 
107 ,22.6695 ,1.07095 ,3.00224 ,29.45801 
108 ,22.8776 ,1.07308 ,3.00224 ,29.45801 
109 ,23.0855 ,1.07514 ,2.96460 ,29.08865 
110 ,23.2936 ,1.07724 ,2.95433 ,28.98792 
111 ,23.5177 ,1.07935 ,2.93722 ,28.82003 
112 ,23.7415 ,1.08165 ,2.89616 ,28.41709 
113 ,23.9337 ,1.08362 ,2.90985 ,28.55140 
114 ,24.1420 ,1.08573 ,2.87220 ,28.18204 
115 ,24.3340 ,1.08763 ,2.86193 ,28.08130 
116 ,24.5102 ,1.08954 ,2.82429 ,27.71194 
117 ,24.7183 ,1.09149 ,2.83114 ,27.77910 
118 ,24.9264 ,1.09359 ,2.77296 ,27.20827 
119 ,25.1184 ,1.09553 ,2.78322 ,27.30900 
120 ,25.3265 ,1.09753 ,2.75243 ,27.00680 
121 ,25.5507 ,1.09976 ,2.72847 ,26.77175 
122 ,25.7586 ,1.10185 ,2.71820 ,26.67101 
123 ,25.9667 ,1.10391 ,2.69767 ,26.46954 
124 ,26.1588 ,1.10588 ,2.68398 ,26.33523 
125 ,26.3669 ,1.10790 ,2.63949 ,25.89871 
126 ,26.5590 ,1.10990 ,2.65318 ,26.03303 
127 ,26.7670 ,1.11190 ,2.61212 ,25.63009 
128 ,26.9754 ,1.11400 ,2.61212 ,25.63009 
129 ,27.1672 ,1.11602 ,2.56763 ,25.19357 
130 ,27.3590 ,1.11792 ,2.57789 ,25.29430 
131 ,27.5671 ,1.11997 ,2.56078 ,25.12641 
132 ,27.7913 ,1.12216 ,2.52998 ,24.82421 
133 ,27.9994 ,1.12427 ,2.51287 ,24.65632 
134 ,28.2074 ,1.12630 ,2.49234 ,24.45485 
135 ,28.4157 ,1.12840 ,2.49234 ,24.45485 
136 ,28.6234 ,1.13047 ,2.46496 ,24.18622 
137 ,28.8318 ,1.13249 ,2.45812 ,24.11906 
138 ,29.0399 ,1.13468 ,2.42048 ,23.74970 
139 ,29.2319 ,1.13657 ,2.41363 ,23.68255 
140 ,29.4402 ,1.13864 ,2.38625 ,23.41392 
141 ,29.6478 ,1.14068 ,2.38625 ,23.41392 
142 ,29.8403 ,1.14267 ,2.36230 ,23.17887 
143 ,30.0644 ,1.14490 ,2.33492 ,22.91024 
144 ,30.2723 ,1.14691 ,2.33150 ,22.87667 
145 ,30.4808 ,1.14904 ,2.30070 ,22.57446 
146 ,30.6726 ,1.15099 ,2.30070 ,22.57446 
147 ,30.8806 ,1.15306 ,2.25963 ,22.17152 
148 ,31.0890 ,1.15516 ,2.23910 ,21.97005 
149 ,31.2968 ,1.15720 ,2.24252 ,22.00363 
150 ,31.4892 ,1.15917 ,2.22883 ,21.86932 
151 ,31.6969 ,1.16118 ,2.20830 ,21.66785 
152 ,31.8889 ,1.16323 ,2.19119 ,21.49996 
153 ,32.0811 ,1.16504 ,2.16039 ,21.19775 
154 ,32.2734 ,1.16698 ,2.17408 ,21.33206 
155 ,32.4815 ,1.16903 ,2.12959 ,20.89555 
156 ,32.6896 ,1.17109 ,2.12617 ,20.86197 
157 ,32.8972 ,1.17329 ,2.11932 ,20.79481 
158 ,33.1057 ,1.17531 ,2.10221 ,20.62692 
159 ,33.3297 ,1.17750 ,2.08510 ,20.45903 
160 ,33.5217 ,1.17945 ,2.04404 ,20.05609 
161 ,33.7459 ,1.18158 ,2.05430 ,20.15682 
162 ,33.9540 ,1.18378 ,2.04746 ,20.08967 
163 ,34.1780 ,1.18598 ,2.00297 ,19.65315 
164 ,34.3701 ,1.18802 ,1.98244 ,19.45168 
165 ,34.5620 ,1.18985 ,1.96875 ,19.31737 
166 ,34.8664 ,1.19232 ,1.97217 ,19.35094 
167 ,35.0745 ,1.19498 ,1.95848 ,19.21663 
168 ,35.2826 ,1.19708 ,1.92084 ,18.84727 
169 ,35.4907 ,1.19915 ,1.91057 ,18.74654 
170 ,35.6986 ,1.20119 ,1.87293 ,18.37717 
171 ,35.9069 ,1.20330 ,1.87977 ,18.44433 
172 ,36.1309 ,1.20549 ,1.86608 ,18.31002 
173 ,36.3065 ,1.20744 ,1.84897 ,18.14213 
174 ,36.4991 ,1.20925 ,1.82844 ,17.94066 
175 ,36.6911 ,1.21114 ,1.82160 ,17.87350 
176 ,36.8993 ,1.21320 ,1.78737 ,17.53772 
177 ,37.1072 ,1.21522 ,1.78395 ,17.50414 
178 ,37.3153 ,1.21732 ,1.76000 ,17.26909 
179 ,37.5556 ,1.21970 ,1.74289 ,17.10120 
180 ,37.7798 ,1.22197 ,1.71893 ,16.86615 
181 ,38.0036 ,1.22425 ,1.71209 ,16.79899 
182 ,38.2116 ,1.22636 ,1.71209 ,16.79899 
183 ,38.4036 ,1.22834 ,1.66760 ,16.36248 
184 ,38.6118 ,1.23032 ,1.67444 ,16.42963 
185 ,38.8361 ,1.23248 ,1.63680 ,16.06027 
186 ,39.0602 ,1.23477 ,1.62653 ,15.95954 
187 ,39.2838 ,1.23698 ,1.61627 ,15.85880 
188 ,39.4764 ,1.23897 ,1.58204 ,15.52302 
189 ,39.6682 ,1.24098 ,1.58204 ,15.52302 
190 ,39.8603 ,1.24286 ,1.55809 ,15.28797 
191 ,40.0523 ,1.24488 ,1.57178 ,15.42228 
192 ,40.2607 ,1.24676 ,1.53071 ,15.01934 
193 ,40.4687 ,1.24894 ,1.54440 ,15.15366 
194 ,40.6764 ,1.25095 ,1.50333 ,14.75072 
195 ,40.8847 ,1.25305 ,1.49991 ,14.71714 
196 ,41.0929 ,1.25512 ,1.48622 ,14.58283 
197 ,41.3008 ,1.25716 ,1.45200 ,14.24704 
198 ,41.5251 ,1.25937 ,1.44858 ,14.21346 
199 ,41.7330 ,1.26147 ,1.42120 ,13.94484 
200 ,41.9412 ,1.26360 ,1.41436 ,13.87768 
201 ,42.1493 ,1.26579 ,1.39383 ,13.67621 
202 ,42.3414 ,1.26762 ,1.37329 ,13.47474 
203 ,42.5496 ,1.26965 ,1.38356 ,13.57548 
204 ,42.7737 ,1.27189 ,1.34591 ,13.20612 
205 ,42.9815 ,1.27395 ,1.32538 ,13.00465 
206 ,43.1899 ,1.27615 ,1.33223 ,13.07180 
207 ,43.4140 ,1.27829 ,1.29458 ,12.70244 
208 ,43.6220 ,1.28042 ,1.27405 ,12.50097 
209 ,43.8462 ,1.28258 ,1.28432 ,12.60171 
210 ,44.0698 ,1.28488 ,1.26036 ,12.36666 
211 ,44.2621 ,1.28686 ,1.23983 ,12.16519 
212 ,44.4705 ,1.28892 ,1.23641 ,12.13161 
213 ,44.6944 ,1.29107 ,1.19876 ,11.76225 
214 ,44.9026 ,1.29317 ,1.20903 ,11.86298 
215 ,45.1102 ,1.29523 ,1.18507 ,11.62794 
216 ,45.3667 ,1.29776 ,1.16454 ,11.42647 
217 ,45.5746 ,1.29997 ,1.12690 ,11.05710 
218 ,45.7987 ,1.30214 ,1.12005 ,10.98995 
219 ,45.9909 ,1.30412 ,1.12347 ,11.02353 
220 ,46.1988 ,1.30615 ,1.09267 ,10.72132 
221 ,46.4233 ,1.30842 ,1.09610 ,10.75490 
222 ,46.6314 ,1.31050 ,1.06187 ,10.41912 
223 ,46.8393 ,1.31253 ,1.04819 ,10.28480 
224 ,47.0474 ,1.31463 ,1.03450 ,10.15049 
225 ,47.2396 ,1.31661 ,1.01739 ,9.98260 
226 ,47.4476 ,1.31871 ,1.01739 ,9.98260 
227 ,47.6396 ,1.32059 ,0.99343 ,9.74755 
228 ,47.8317 ,1.32250 ,0.98317 ,9.64682 
229 ,48.0238 ,1.32447 ,0.97632 ,9.57966 
230 ,48.2317 ,1.32651 ,0.95579 ,9.37819 
231 ,48.4396 ,1.32865 ,0.93525 ,9.17672 
232 ,48.6481 ,1.33069 ,0.93868 ,9.21030 
233 ,48.8720 ,1.33286 ,0.90103 ,8.84094 
234 ,49.0801 ,1.33495 ,0.90446 ,8.87451 
235 ,49.2885 ,1.33715 ,0.89761 ,8.80736 
236 ,49.4962 ,1.33904 ,0.87708 ,8.60589 
237 ,49.7044 ,1.34120 ,0.87708 ,8.60589 
238 ,49.9126 ,1.34327 ,0.83601 ,8.20295 
239 ,50.1207 ,1.34537 ,0.84286 ,8.27011 
240 ,50.3129 ,1.34732 ,0.80179 ,7.86717 
241 ,50.5368 ,1.34954 ,0.78810 ,7.73285 
242 ,50.7284 ,1.35153 ,0.79495 ,7.80001 
243 ,50.9211 ,1.35341 ,0.77099 ,7.56496 
244 ,51.1292 ,1.35541 ,0.75730 ,7.43065 
245 ,51.3692 ,1.35771 ,0.72992 ,7.16202 
246 ,51.5613 ,1.35987 ,0.72992 ,7.16202 
247 ,51.7530 ,1.36172 ,0.71281 ,6.99413 
248 ,51.9612 ,1.36379 ,0.71966 ,7.06129 
249 ,52.1534 ,1.36580 ,0.68886 ,6.75908 
250 ,52.3454 ,1.36762 ,0.68886 ,6.75908 
251 ,52.5216 ,1.36952 ,0.66833 ,6.55761 
252 ,52.7298 ,1.37141 ,0.65121 ,6.38972 
253 ,52.9374 ,1.37356 ,0.64437 ,6.32256 
254 ,53.1459 ,1.37558 ,0.63410 ,6.22183 
255 ,53.3382 ,1.37754 ,0.62042 ,6.08752 
256 ,53.5621 ,1.37974 ,0.62042 ,6.08752 
257 ,53.7703 ,1.38185 ,0.58962 ,5.78531 
258 ,53.9780 ,1.38392 ,0.58962 ,5.78531 
259 ,54.1704 ,1.38598 ,0.55882 ,5.48311 
260 ,54.3944 ,1.38803 ,0.54513 ,5.34879 
261 ,54.6186 ,1.39032 ,0.55197 ,5.41595 
262 ,54.8267 ,1.39237 ,0.52117 ,5.11375 
263 ,55.0347 ,1.39455 ,0.50748 ,4.97943 
264 ,55.2587 ,1.39672 ,0.50406 ,4.94585 
265 ,55.4510 ,1.39879 ,0.48353 ,4.74438 
266 ,55.6590 ,1.40071 ,0.49037 ,4.81154 
267 ,55.8672 ,1.40281 ,0.45615 ,4.47576 
268 ,56.0753 ,1.40491 ,0.44931 ,4.40860 
269 ,56.3151 ,1.40734 ,0.43220 ,4.24071 
270 ,56.5075 ,1.40921 ,0.40482 ,3.97208 
271 ,56.7155 ,1.41128 ,0.41166 ,4.03924 
272 ,56.9392 ,1.41346 ,0.40824 ,4.00566 
273 ,57.1317 ,1.41548 ,0.37060 ,3.63630 
274 ,57.3393 ,1.41755 ,0.37744 ,3.70346 
275 ,57.5478 ,1.41960 ,0.34322 ,3.36767 
276 ,57.7560 ,1.42170 ,0.36033 ,3.53557 
277 ,57.9802 ,1.42390 ,0.34322 ,3.36767 
278 ,58.1879 ,1.42600 ,0.31584 ,3.09905 
279 ,58.3802 ,1.42801 ,0.31584 ,3.09905 
280 ,58.5722 ,1.42988 ,0.29189 ,2.86400 
281 ,58.7804 ,1.43192 ,0.29873 ,2.93116 
282 ,58.9724 ,1.43386 ,0.27478 ,2.69611 
283 ,59.1646 ,1.43578 ,0.25767 ,2.52822 
284 ,59.3725 ,1.43781 ,0.25767 ,2.52822 
285 ,59.5803 ,1.43996 ,0.25767 ,2.52822 
286 ,59.7890 ,1.44202 ,0.22002 ,2.15885 
287 ,59.9966 ,1.44418 ,0.21318 ,2.09170 
288 ,60.1887 ,1.44601 ,0.19607 ,1.92381 
289 ,60.3811 ,1.44797 ,0.19607 ,1.92381 
290 ,60.6051 ,1.45011 ,0.18238 ,1.78949 
291 ,60.8134 ,1.45222 ,0.18238 ,1.78949 
292 ,61.0212 ,1.45435 ,0.15158 ,1.48729 
293 ,61.1969 ,1.45624 ,0.13789 ,1.35298 
294 ,61.3891 ,1.45808 ,0.13105 ,1.28582 
295 ,61.5974 ,1.46009 ,0.13789 ,1.35298 
296 ,61.8052 ,1.46219 ,0.10025 ,0.98361 
297 ,62.0136 ,1.46420 ,0.11051 ,1.08435 
298 ,62.2217 ,1.46635 ,0.09682 ,0.95004 
299 ,62.4297 ,1.46840 ,0.07971 ,0.78214 
300 ,62.6220 ,1.47035 ,0.07287 ,0.71499 
301 ,62.8299 ,1.47250 ,0.05234 ,0.51352 
302 ,63.0220 ,1.47438 ,0.03180 ,0.31205 
303 ,63.2140 ,1.47629 ,0.03865 ,0.37920 
304 ,63.4220 ,1.47833 ,0.02496 ,0.24489 
305 ,63.6463 ,1.48051 ,0.00100 ,0.00984 
306 ,63.8543 ,1.48267 ,0.00785 ,0.07700 
307 ,64.0619 ,1.48470 ,0.00785 ,0.07700 
308 ,64.2545 ,1.48668 ,-0.00584 ,-0.05731 
309 ,64.4786 ,1.48884 ,-0.02637 ,-0.25878 
310 ,64.6867 ,1.49093 ,-0.04691 ,-0.46025 
311 ,64.8947 ,1.49300 ,-0.04006 ,-0.39310 
312 ,65.1026 ,1.49510 ,-0.07771 ,-0.76246 
313 ,65.3271 ,1.49727 ,-0.06060 ,-0.59457 
314 ,65.5510 ,1.49959 ,-0.08455 ,-0.82961 
315 ,65.7592 ,1.50168 ,-0.08797 ,-0.86319 
316 ,65.9673 ,1.50376 ,-0.11535 ,-1.13182 
317 ,66.1754 ,1.50587 ,-0.10851 ,-1.06466 
318 ,66.3991 ,1.50813 ,-0.13246 ,-1.29971 
319 ,66.5912 ,1.51014 ,-0.14957 ,-1.46760 
320 ,66.7995 ,1.51205 ,-0.15299 ,-1.50118 
321 ,67.0075 ,1.51421 ,-0.17695 ,-1.73623 
322 ,67.1995 ,1.51618 ,-0.16668 ,-1.63549 
323 ,67.3913 ,1.51800 ,-0.18722 ,-1.83696 
324 ,67.5997 ,1.52009 ,-0.19748 ,-1.93770 
325 ,67.8402 ,1.52242 ,-0.21459 ,-2.10559 
326 ,68.0642 ,1.52471 ,-0.23513 ,-2.30706 
327 ,68.2882 ,1.52694 ,-0.23855 ,-2.34064 
328 ,68.4799 ,1.52895 ,-0.24881 ,-2.44137 
329 ,68.6885 ,1.53096 ,-0.25908 ,-2.54211 
330 ,68.9124 ,1.53320 ,-0.25908 ,-2.54211 
331 ,69.1045 ,1.53514 ,-0.29330 ,-2.87789 
332 ,69.3285 ,1.53739 ,-0.28988 ,-2.84431 
333 ,69.5365 ,1.53944 ,-0.30015 ,-2.94505 
334 ,69.7767 ,1.54179 ,-0.32410 ,-3.18010 
335 ,69.9850 ,1.54390 ,-0.34121 ,-3.34799 
336 ,70.1767 ,1.54599 ,-0.32068 ,-3.14652 
337 ,70.3848 ,1.54791 ,-0.35148 ,-3.44872 
338 ,70.5612 ,1.54983 ,-0.34464 ,-3.38156 
339 ,70.7854 ,1.55189 ,-0.37544 ,-3.68377 
340 ,70.9776 ,1.55392 ,-0.37201 ,-3.65019 
341 ,71.1856 ,1.55591 ,-0.38912 ,-3.81808 
342 ,71.3936 ,1.55795 ,-0.37544 ,-3.68377 
343 ,71.6016 ,1.56007 ,-0.40966 ,-4.01955 
344 ,71.8093 ,1.56212 ,-0.40623 ,-3.98597 
345 ,72.0014 ,1.56422 ,-0.41650 ,-4.08671 
346 ,72.2096 ,1.56614 ,-0.42677 ,-4.18744 
347 ,72.4180 ,1.56821 ,-0.44388 ,-4.35534 
348 ,72.6416 ,1.57044 ,-0.45072 ,-4.42249 
349 ,72.8340 ,1.57243 ,-0.45757 ,-4.48965 
350 ,73.0260 ,1.57436 ,-0.47468 ,-4.65754 
351 ,73.2182 ,1.57629 ,-0.47810 ,-4.69112 
352 ,73.4104 ,1.57820 ,-0.46783 ,-4.59038 
353 ,73.6185 ,1.58017 ,-0.49179 ,-4.82543 
354 ,73.8266 ,1.58231 ,-0.50890 ,-4.99332 
355 ,74.0182 ,1.58433 ,-0.50890 ,-4.99332 
356 ,74.2266 ,1.58636 ,-0.52943 ,-5.19479 
357 ,74.4348 ,1.58846 ,-0.52943 ,-5.19479 
358 ,74.6588 ,1.59062 ,-0.56365 ,-5.53058 
359 ,74.8669 ,1.59266 ,-0.55339 ,-5.42984 
360 ,75.0907 ,1.59495 ,-0.56365 ,-5.53058 
361 ,75.2988 ,1.59706 ,-0.58419 ,-5.73205 
362 ,75.5072 ,1.59919 ,-0.60472 ,-5.93352 
363 ,75.7152 ,1.60117 ,-0.59445 ,-5.83278 
364 ,75.9393 ,1.60346 ,-0.61841 ,-6.06783 
365 ,76.1632 ,1.60570 ,-0.63894 ,-6.26930 
366 ,76.3553 ,1.60763 ,-0.62525 ,-6.13499 
367 ,76.5790 ,1.60997 ,-0.63894 ,-6.26930 
368 ,76.7870 ,1.61194 ,-0.66632 ,-6.53793 
369 ,76.9956 ,1.61405 ,-0.64921 ,-6.37003 
370 ,77.2679 ,1.61660 ,-0.66974 ,-6.57150 
371 ,77.4918 ,1.61895 ,-0.68001 ,-6.67224 
372 ,77.7000 ,1.62104 ,-0.70396 ,-6.90729 
373 ,77.9081 ,1.62312 ,-0.70739 ,-6.94086 
374 ,78.1001 ,1.62513 ,-0.71765 ,-7.04160 
375 ,78.2923 ,1.62704 ,-0.70739 ,-6.94086 
376 ,78.4997 ,1.62914 ,-0.72450 ,-7.10876 
377 ,78.6925 ,1.63098 ,-0.71423 ,-7.00802 
378 ,78.9166 ,1.63316 ,-0.75187 ,-7.37738 
379 ,79.1246 ,1.63532 ,-0.76214 ,-7.47812 
380 ,79.3647 ,1.63772 ,-0.77241 ,-7.57885 
381 ,79.5723 ,1.63984 ,-0.77241 ,-7.57885 
382 ,79.7809 ,1.64183 ,-0.79294 ,-7.78032 
383 ,80.0045 ,1.64406 ,-0.80321 ,-7.88106 
384 ,80.1968 ,1.64603 ,-0.81005 ,-7.94821 
385 ,80.4051 ,1.64804 ,-0.81689 ,-8.01537 
386 ,80.6289 ,1.65029 ,-0.81347 ,-7.98179 
387 ,80.8532 ,1.65249 ,-0.83401 ,-8.18326 
388 ,81.0773 ,1.65475 ,-0.86481 ,-8.48547 
389 ,81.3010 ,1.65699 ,-0.86138 ,-8.45189 
390 ,81.5095 ,1.65908 ,-0.85454 ,-8.38473 
391 ,81.7174 ,1.66116 ,-0.88876 ,-8.72051 
392 ,81.9415 ,1.66348 ,-0.87849 ,-8.61978 
393 ,82.1658 ,1.66568 ,-0.88534 ,-8.68694 
394 ,82.3739 ,1.66778 ,-0.90587 ,-8.88841 
395 ,82.5817 ,1.66985 ,-0.92983 ,-9.12345 
396 ,82.7901 ,1.67198 ,-0.91956 ,-9.02272 
397 ,82.9980 ,1.67397 ,-0.93667 ,-9.19061 
398 ,83.1902 ,1.67596 ,-0.91272 ,-8.95556 
399 ,83.3822 ,1.67795 ,-0.96405 ,-9.45924 
400 ,83.6064 ,1.67996 ,-0.92983 ,-9.12345 
401 ,83.7981 ,1.68211 ,-0.95720 ,-9.39208 
402 ,83.9741 ,1.68390 ,-0.96405 ,-9.45924 
403 ,84.1824 ,1.68594 ,-0.99827 ,-9.79502 
404 ,84.3907 ,1.68795 ,-0.98116 ,-9.62713 
405 ,84.5987 ,1.69011 ,-0.99827 ,-9.79502 
406 ,84.8069 ,1.69206 ,-0.99485 ,-9.76144 
407 ,85.0146 ,1.69412 ,-1.01196 ,-9.92933 
408 ,85.2070 ,1.69623 ,-1.01538 ,-9.96291 
409 ,85.3989 ,1.69807 ,-1.03934 ,-10.19796 
410 ,85.6072 ,1.70009 ,-1.03934 ,-10.19796 
411 ,85.8312 ,1.70237 ,-1.04276 ,-10.23154 
412 ,86.0073 ,1.70423 ,-1.05645 ,-10.36585 
413 ,86.2150 ,1.70617 ,-1.08040 ,-10.60090 
414 ,86.4233 ,1.70831 ,-1.07014 ,-10.50016 
415 ,86.6476 ,1.71041 ,-1.08382 ,-10.63448 
416 ,86.8556 ,1.71264 ,-1.09409 ,-10.73521 
417 ,87.0636 ,1.71470 ,-1.09409 ,-10.73521 
418 ,87.2557 ,1.71658 ,-1.11462 ,-10.93668 
419 ,87.4800 ,1.71876 ,-1.11462 ,-10.93668 
420 ,87.6881 ,1.72089 ,-1.12147 ,-11.00384 
421 ,87.9118 ,1.72308 ,-1.14200 ,-11.20531 
422 ,88.1201 ,1.72519 ,-1.14884 ,-11.27247 
423 ,88.3281 ,1.72735 ,-1.12831 ,-11.07100 
424 ,88.5522 ,1.72954 ,-1.14884 ,-11.27247 
425 ,88.7605 ,1.73165 ,-1.17964 ,-11.57467 
426 ,88.9685 ,1.73369 ,-1.17622 ,-11.54109 
427 ,89.1922 ,1.73582 ,-1.19333 ,-11.70898 
428 ,89.4006 ,1.73800 ,-1.20702 ,-11.84330 
429 ,89.5922 ,1.74003 ,-1.18649 ,-11.64183 
430 ,89.8007 ,1.74200 ,-1.21729 ,-11.94403 
431 ,90.0567 ,1.74456 ,-1.23098 ,-12.07834 
432 ,90.2651 ,1.74666 ,-1.23098 ,-12.07834 
433 ,90.4731 ,1.74872 ,-1.24467 ,-12.21266 
434 ,90.6808 ,1.75083 ,-1.25835 ,-12.34697 
435 ,90.8894 ,1.75290 ,-1.24809 ,-12.24624 
436 ,91.0973 ,1.75503 ,-1.27547 ,-12.51486 
437 ,91.3055 ,1.75703 ,-1.26178 ,-12.38055 
438 ,91.5134 ,1.75921 ,-1.29258 ,-12.68275 
439 ,91.7217 ,1.76124 ,-1.29258 ,-12.68275 
440 ,91.9298 ,1.76329 ,-1.30969 ,-12.85065 
441 ,92.1539 ,1.76549 ,-1.31311 ,-12.88422 
442 ,92.3618 ,1.76759 ,-1.31653 ,-12.91780 
443 ,92.5700 ,1.76968 ,-1.30969 ,-12.85065 
444 ,92.7619 ,1.77170 ,-1.33706 ,-13.11927 
445 ,92.9700 ,1.77366 ,-1.34391 ,-13.18643 
446 ,93.1623 ,1.77561 ,-1.35760 ,-13.32074 
447 ,93.3704 ,1.77772 ,-1.34049 ,-13.15285 
448 ,93.5781 ,1.77982 ,-1.37813 ,-13.52221 
449 ,93.7865 ,1.78183 ,-1.36444 ,-13.38790 
450 ,93.9783 ,1.78386 ,-1.39524 ,-13.69010 
451 ,94.1869 ,1.78590 ,-1.36786 ,-13.42148 
452 ,94.3947 ,1.78793 ,-1.39182 ,-13.65653 
453 ,94.6026 ,1.79001 ,-1.38155 ,-13.55579 
454 ,94.8111 ,1.79212 ,-1.39524 ,-13.69010 
455 ,95.0349 ,1.79422 ,-1.42262 ,-13.95873 
456 ,95.2592 ,1.79657 ,-1.41577 ,-13.89157 
457 ,95.4673 ,1.79870 ,-1.40551 ,-13.79084 
458 ,95.7076 ,1.80091 ,-1.42946 ,-14.02589 
459 ,95.9155 ,1.80319 ,-1.45000 ,-14.22736 
460 ,96.1074 ,1.80504 ,-1.44315 ,-14.16020 
