Data stamp = , 16-05-2022 19:29:33 493

Calibration Values: 
Slope = , 26.54 , g/V 
Offset Voltage at no contact = , -0.501760 , V 

No , Time , Stage Position ,   Mass , Force 
   ,  (s) ,      (mm)      ,   (g)  , (mN)  

1 ,0.0000 ,0.84961 ,5.16163 ,50.64592 
2 ,0.2491 ,0.84973 ,5.15821 ,50.61234 
3 ,0.8415 ,0.85209 ,5.15821 ,50.61234 
4 ,1.0656 ,0.85497 ,5.14794 ,50.51161 
5 ,1.2898 ,0.85703 ,5.16505 ,50.67950 
6 ,1.4978 ,0.85927 ,5.15821 ,50.61234 
7 ,1.7219 ,0.86149 ,5.11030 ,50.14225 
8 ,1.9301 ,0.86363 ,5.10688 ,50.10867 
9 ,2.1380 ,0.86570 ,5.10688 ,50.10867 
10 ,2.3461 ,0.86780 ,5.05897 ,49.63857 
11 ,2.5865 ,0.87009 ,5.04185 ,49.47068 
12 ,2.7940 ,0.87232 ,5.04185 ,49.47068 
13 ,2.9862 ,0.87433 ,5.02817 ,49.33637 
14 ,3.1942 ,0.87622 ,4.99394 ,49.00058 
15 ,3.3865 ,0.87834 ,4.96999 ,48.76554 
16 ,3.5944 ,0.88023 ,4.95288 ,48.59764 
17 ,3.7865 ,0.88226 ,4.92208 ,48.29544 
18 ,3.9950 ,0.88423 ,4.91866 ,48.26186 
19 ,4.2190 ,0.88646 ,4.87417 ,47.82534 
20 ,4.4112 ,0.88842 ,4.86048 ,47.69103 
21 ,4.6192 ,0.89048 ,4.84337 ,47.52314 
22 ,4.8111 ,0.89243 ,4.79888 ,47.08662 
23 ,5.0194 ,0.89459 ,4.79888 ,47.08662 
24 ,5.2115 ,0.89643 ,4.77493 ,46.85157 
25 ,5.4195 ,0.89848 ,4.77150 ,46.81800 
26 ,5.6438 ,0.90059 ,4.73044 ,46.41506 
27 ,5.8680 ,0.90297 ,4.70306 ,46.14643 
28 ,6.0754 ,0.90503 ,4.70306 ,46.14643 
29 ,6.2682 ,0.90702 ,4.65173 ,45.64275 
30 ,6.4762 ,0.90912 ,4.64831 ,45.60918 
31 ,6.6842 ,0.91110 ,4.60724 ,45.20624 
32 ,6.8922 ,0.91317 ,4.60724 ,45.20624 
33 ,7.0844 ,0.91517 ,4.57644 ,44.90403 
34 ,7.3084 ,0.91730 ,4.55591 ,44.70256 
35 ,7.5161 ,0.91953 ,4.54564 ,44.60183 
36 ,7.7085 ,0.92141 ,4.50457 ,44.19889 
37 ,7.9325 ,0.92359 ,4.49773 ,44.13173 
38 ,8.1244 ,0.92553 ,4.46009 ,43.76237 
39 ,8.3166 ,0.92765 ,4.44982 ,43.66163 
40 ,8.5087 ,0.92941 ,4.43271 ,43.49374 
41 ,8.7010 ,0.93132 ,4.41560 ,43.32585 
42 ,8.9088 ,0.93340 ,4.38822 ,43.05723 
43 ,9.1171 ,0.93543 ,4.37795 ,42.95649 
44 ,9.3248 ,0.93751 ,4.33347 ,42.51997 
45 ,9.5333 ,0.93961 ,4.34031 ,42.58713 
46 ,9.7570 ,0.94184 ,4.31293 ,42.31850 
47 ,9.9493 ,0.94380 ,4.27187 ,41.91556 
48 ,10.1413 ,0.94571 ,4.27187 ,41.91556 
49 ,10.3657 ,0.94791 ,4.23765 ,41.57978 
50 ,10.5578 ,0.94986 ,4.23765 ,41.57978 
51 ,10.7819 ,0.95209 ,4.20342 ,41.24400 
52 ,10.9900 ,0.95422 ,4.17947 ,41.00895 
53 ,11.1979 ,0.95626 ,4.16920 ,40.90821 
54 ,11.4061 ,0.95837 ,4.12471 ,40.47170 
55 ,11.6297 ,0.96053 ,4.12129 ,40.43812 
56 ,11.8223 ,0.96253 ,4.09049 ,40.13591 
57 ,12.0303 ,0.96465 ,4.05969 ,39.83371 
58 ,12.2383 ,0.96667 ,4.06654 ,39.90087 
59 ,12.4466 ,0.96874 ,4.02547 ,39.49793 
60 ,12.6387 ,0.97069 ,4.02889 ,39.53150 
61 ,12.8466 ,0.97277 ,4.00494 ,39.29646 
62 ,13.0388 ,0.97477 ,3.98783 ,39.12856 
63 ,13.2470 ,0.97675 ,3.93992 ,38.65847 
64 ,13.4551 ,0.97882 ,3.93992 ,38.65847 
65 ,13.6632 ,0.98089 ,3.90570 ,38.32268 
66 ,13.8711 ,0.98305 ,3.89543 ,38.22195 
67 ,14.0634 ,0.98490 ,3.87490 ,38.02048 
68 ,14.2717 ,0.98703 ,3.85436 ,37.81901 
69 ,14.4955 ,0.98921 ,3.82699 ,37.55038 
70 ,14.7034 ,0.99133 ,3.78250 ,37.11387 
71 ,14.9112 ,0.99338 ,3.77908 ,37.08029 
72 ,15.1198 ,0.99544 ,3.76196 ,36.91240 
73 ,15.3438 ,0.99768 ,3.73459 ,36.64377 
74 ,15.5359 ,0.99959 ,3.72432 ,36.54303 
75 ,15.7440 ,1.00181 ,3.70037 ,36.30799 
76 ,15.9359 ,1.00364 ,3.68668 ,36.17367 
77 ,16.1443 ,1.00570 ,3.64561 ,35.77073 
78 ,16.3844 ,1.00816 ,3.62850 ,35.60284 
79 ,16.6084 ,1.01038 ,3.62166 ,35.53569 
80 ,16.8165 ,1.01245 ,3.60797 ,35.40137 
81 ,17.0567 ,1.01472 ,3.56006 ,34.93128 
82 ,17.2651 ,1.01698 ,3.53610 ,34.69623 
83 ,17.4889 ,1.01914 ,3.51215 ,34.46118 
84 ,17.6968 ,1.02122 ,3.50188 ,34.36045 
85 ,17.9210 ,1.02344 ,3.47108 ,34.05824 
86 ,18.1290 ,1.02554 ,3.44370 ,33.78961 
87 ,18.3371 ,1.02765 ,3.43686 ,33.72246 
88 ,18.5768 ,1.02991 ,3.40264 ,33.38667 
89 ,18.7854 ,1.03212 ,3.38895 ,33.25236 
90 ,18.9933 ,1.03417 ,3.38553 ,33.21878 
91 ,19.1855 ,1.03613 ,3.33419 ,32.71511 
92 ,19.3933 ,1.03820 ,3.33077 ,32.68153 
93 ,19.6176 ,1.04039 ,3.31366 ,32.51364 
94 ,19.8098 ,1.04237 ,3.29313 ,32.31217 
95 ,20.0338 ,1.04454 ,3.27944 ,32.17786 
96 ,20.2579 ,1.04680 ,3.24180 ,31.80849 
97 ,20.4495 ,1.04874 ,3.22126 ,31.60702 
98 ,20.6418 ,1.05071 ,3.20073 ,31.40555 
99 ,20.8662 ,1.05294 ,3.19046 ,31.30482 
100 ,21.0582 ,1.05486 ,3.18020 ,31.20409 
101 ,21.2502 ,1.05677 ,3.16309 ,31.03619 
102 ,21.4585 ,1.05881 ,3.13571 ,30.76757 
103 ,21.6824 ,1.06100 ,3.09806 ,30.39821 
104 ,21.8905 ,1.06314 ,3.08095 ,30.23031 
105 ,22.0827 ,1.06512 ,3.06042 ,30.02884 
106 ,22.2907 ,1.06716 ,3.05358 ,29.96169 
107 ,22.4828 ,1.06909 ,3.01935 ,29.62590 
108 ,22.6745 ,1.07103 ,3.03647 ,29.79380 
109 ,22.8670 ,1.07291 ,2.98513 ,29.29012 
110 ,23.0750 ,1.07502 ,2.99198 ,29.35728 
111 ,23.2832 ,1.07702 ,2.93722 ,28.82003 
112 ,23.5073 ,1.07923 ,2.93722 ,28.82003 
113 ,23.7149 ,1.08136 ,2.91327 ,28.58498 
114 ,23.9234 ,1.08346 ,2.89273 ,28.38351 
115 ,24.1474 ,1.08569 ,2.88247 ,28.28277 
116 ,24.3395 ,1.08766 ,2.86878 ,28.14846 
117 ,24.5318 ,1.08958 ,2.83798 ,27.84625 
118 ,24.7395 ,1.09161 ,2.80376 ,27.51047 
119 ,24.9479 ,1.09374 ,2.80376 ,27.51047 
120 ,25.1398 ,1.09564 ,2.78322 ,27.30900 
121 ,25.3481 ,1.09770 ,2.75585 ,27.04038 
122 ,25.5401 ,1.09965 ,2.74558 ,26.93964 
123 ,25.7482 ,1.10172 ,2.71820 ,26.67101 
124 ,25.9398 ,1.10363 ,2.69767 ,26.46954 
125 ,26.1483 ,1.10575 ,2.70109 ,26.50312 
126 ,26.3561 ,1.10779 ,2.67372 ,26.23450 
127 ,26.5481 ,1.10980 ,2.64634 ,25.96587 
128 ,26.7403 ,1.11168 ,2.63607 ,25.86514 
129 ,26.9323 ,1.11360 ,2.62581 ,25.76440 
130 ,27.1407 ,1.11555 ,2.59158 ,25.42862 
131 ,27.3489 ,1.11774 ,2.57447 ,25.26073 
132 ,27.5570 ,1.11985 ,2.56421 ,25.15999 
133 ,27.7808 ,1.12190 ,2.53683 ,24.89136 
134 ,27.9891 ,1.12410 ,2.52314 ,24.75705 
135 ,28.1808 ,1.12603 ,2.49576 ,24.48842 
136 ,28.3892 ,1.12808 ,2.49918 ,24.52200 
137 ,28.5972 ,1.13019 ,2.46496 ,24.18622 
138 ,28.8055 ,1.13235 ,2.43759 ,23.91759 
139 ,29.0295 ,1.13445 ,2.42390 ,23.78328 
140 ,29.2217 ,1.13646 ,2.40336 ,23.58181 
141 ,29.4297 ,1.13851 ,2.40336 ,23.58181 
142 ,29.6539 ,1.14071 ,2.37599 ,23.31318 
143 ,29.8620 ,1.14281 ,2.35203 ,23.07814 
144 ,30.0541 ,1.14475 ,2.35203 ,23.07814 
145 ,30.2621 ,1.14678 ,2.31781 ,22.74235 
146 ,30.4701 ,1.14890 ,2.30070 ,22.57446 
147 ,30.6784 ,1.15103 ,2.29043 ,22.47373 
148 ,30.8862 ,1.15306 ,2.24937 ,22.07079 
149 ,31.0945 ,1.15522 ,2.25963 ,22.17152 
150 ,31.3024 ,1.15721 ,2.22199 ,21.80216 
151 ,31.5102 ,1.15927 ,2.21172 ,21.70143 
152 ,31.7186 ,1.16135 ,2.17750 ,21.36564 
153 ,31.9266 ,1.16346 ,2.17408 ,21.33206 
154 ,32.1349 ,1.16556 ,2.17408 ,21.33206 
155 ,32.3430 ,1.16758 ,2.12617 ,20.86197 
156 ,32.5509 ,1.16966 ,2.13301 ,20.92912 
157 ,32.7752 ,1.17188 ,2.10221 ,20.62692 
158 ,32.9993 ,1.17413 ,2.06115 ,20.22398 
159 ,33.2072 ,1.17629 ,2.06115 ,20.22398 
160 ,33.3993 ,1.17819 ,2.05773 ,20.19040 
161 ,33.5915 ,1.18014 ,2.02693 ,19.88820 
162 ,33.7995 ,1.18218 ,2.01324 ,19.75388 
163 ,33.9913 ,1.18413 ,1.99270 ,19.55241 
164 ,34.1838 ,1.18604 ,1.97217 ,19.35094 
165 ,34.4079 ,1.18827 ,1.96190 ,19.25021 
166 ,34.6159 ,1.19034 ,1.95848 ,19.21663 
167 ,34.8076 ,1.19238 ,1.91742 ,18.81369 
168 ,35.0161 ,1.19437 ,1.92084 ,18.84727 
169 ,35.2401 ,1.19655 ,1.89346 ,18.57864 
170 ,35.4323 ,1.19856 ,1.89688 ,18.61222 
171 ,35.6563 ,1.20071 ,1.87293 ,18.37717 
172 ,35.8484 ,1.20267 ,1.84555 ,18.10855 
173 ,36.0725 ,1.20493 ,1.84213 ,18.07497 
174 ,36.2806 ,1.20699 ,1.82502 ,17.90708 
175 ,36.4567 ,1.20891 ,1.81133 ,17.77276 
176 ,36.6806 ,1.21102 ,1.78395 ,17.50414 
177 ,36.8889 ,1.21309 ,1.77026 ,17.36983 
178 ,37.0805 ,1.21499 ,1.76000 ,17.26909 
179 ,37.2732 ,1.21693 ,1.74631 ,17.13478 
180 ,37.4810 ,1.21900 ,1.72235 ,16.89973 
181 ,37.6891 ,1.22105 ,1.71551 ,16.83257 
182 ,37.8813 ,1.22301 ,1.69840 ,16.66468 
183 ,38.0732 ,1.22496 ,1.69498 ,16.63110 
184 ,38.2975 ,1.22717 ,1.65391 ,16.22816 
185 ,38.5376 ,1.22962 ,1.66760 ,16.36248 
186 ,38.7457 ,1.23163 ,1.62995 ,15.99311 
187 ,38.9698 ,1.23385 ,1.63338 ,16.02669 
188 ,39.1619 ,1.23585 ,1.60258 ,15.72449 
189 ,39.3698 ,1.23780 ,1.59916 ,15.69091 
190 ,39.5780 ,1.23999 ,1.57520 ,15.45586 
191 ,39.7858 ,1.24206 ,1.55124 ,15.22081 
192 ,39.9940 ,1.24405 ,1.54782 ,15.18724 
193 ,40.1862 ,1.24609 ,1.51702 ,14.88503 
194 ,40.3940 ,1.24813 ,1.51702 ,14.88503 
195 ,40.6022 ,1.25017 ,1.48622 ,14.58283 
196 ,40.8105 ,1.25229 ,1.48622 ,14.58283 
197 ,41.0186 ,1.25434 ,1.45885 ,14.31420 
198 ,41.2266 ,1.25640 ,1.44174 ,14.14631 
199 ,41.4347 ,1.25847 ,1.43489 ,14.07915 
200 ,41.6588 ,1.26077 ,1.39725 ,13.70979 
201 ,41.8829 ,1.26294 ,1.39040 ,13.64263 
202 ,42.0747 ,1.26491 ,1.39725 ,13.70979 
203 ,42.2673 ,1.26691 ,1.36987 ,13.44116 
204 ,42.4750 ,1.26890 ,1.35960 ,13.34043 
205 ,42.6672 ,1.27089 ,1.32538 ,13.00465 
206 ,42.8593 ,1.27280 ,1.32196 ,12.97107 
207 ,43.0675 ,1.27479 ,1.30485 ,12.80318 
208 ,43.2753 ,1.27689 ,1.30827 ,12.83675 
209 ,43.4836 ,1.27902 ,1.27405 ,12.50097 
210 ,43.6913 ,1.28100 ,1.27747 ,12.53455 
211 ,43.9158 ,1.28326 ,1.23983 ,12.16519 
212 ,44.1239 ,1.28542 ,1.22272 ,11.99730 
213 ,44.3319 ,1.28744 ,1.22956 ,12.06445 
214 ,44.5397 ,1.28953 ,1.20218 ,11.79583 
215 ,44.7322 ,1.29148 ,1.20561 ,11.82941 
216 ,44.9724 ,1.29381 ,1.16454 ,11.42647 
217 ,45.1963 ,1.29609 ,1.15427 ,11.32573 
218 ,45.4204 ,1.29830 ,1.13716 ,11.15784 
219 ,45.6287 ,1.30042 ,1.14743 ,11.25857 
220 ,45.8367 ,1.30252 ,1.13374 ,11.12426 
221 ,46.0607 ,1.30472 ,1.09267 ,10.72132 
222 ,46.2689 ,1.30683 ,1.07899 ,10.58701 
223 ,46.4609 ,1.30881 ,1.06187 ,10.41912 
224 ,46.6531 ,1.31072 ,1.06872 ,10.48627 
225 ,46.8612 ,1.31272 ,1.03450 ,10.15049 
226 ,47.0687 ,1.31493 ,1.02081 ,10.01618 
227 ,47.2611 ,1.31681 ,1.00712 ,9.88186 
228 ,47.4694 ,1.31888 ,1.00370 ,9.84829 
229 ,47.6933 ,1.32108 ,0.99001 ,9.71397 
230 ,47.9013 ,1.32314 ,0.95921 ,9.41177 
231 ,48.0935 ,1.32511 ,0.97290 ,9.54608 
232 ,48.3017 ,1.32718 ,0.94552 ,9.27745 
233 ,48.5418 ,1.32945 ,0.93525 ,9.17672 
234 ,48.7499 ,1.33162 ,0.90788 ,8.90809 
235 ,48.9581 ,1.33369 ,0.88050 ,8.63947 
236 ,49.1979 ,1.33616 ,0.88392 ,8.67305 
237 ,49.4379 ,1.33837 ,0.85997 ,8.43800 
238 ,49.6783 ,1.34079 ,0.83259 ,8.16937 
239 ,49.9021 ,1.34312 ,0.82917 ,8.13579 
240 ,50.1105 ,1.34525 ,0.83259 ,8.16937 
241 ,50.3186 ,1.34735 ,0.79837 ,7.83359 
242 ,50.5266 ,1.34945 ,0.81548 ,8.00148 
243 ,50.7508 ,1.35164 ,0.78810 ,7.73285 
244 ,50.9429 ,1.35359 ,0.74361 ,7.29633 
245 ,51.1510 ,1.35560 ,0.75388 ,7.39707 
246 ,51.3589 ,1.35776 ,0.72992 ,7.16202 
247 ,51.5345 ,1.35965 ,0.73677 ,7.22918 
248 ,51.7269 ,1.36142 ,0.70939 ,6.96055 
249 ,51.9187 ,1.36347 ,0.70597 ,6.92697 
250 ,52.1268 ,1.36541 ,0.69913 ,6.85982 
251 ,52.3349 ,1.36748 ,0.67517 ,6.62477 
252 ,52.5432 ,1.36958 ,0.64095 ,6.28899 
253 ,52.8157 ,1.37220 ,0.63068 ,6.18825 
254 ,53.0393 ,1.37458 ,0.62384 ,6.12109 
255 ,53.2479 ,1.37659 ,0.62042 ,6.08752 
256 ,53.4398 ,1.37856 ,0.58277 ,5.71815 
257 ,53.6319 ,1.38050 ,0.59988 ,5.88605 
258 ,53.8401 ,1.38246 ,0.56908 ,5.58384 
259 ,54.0321 ,1.38447 ,0.56908 ,5.58384 
260 ,54.2403 ,1.38649 ,0.54513 ,5.34879 
261 ,54.4482 ,1.38857 ,0.53828 ,5.28164 
262 ,54.6404 ,1.39054 ,0.51433 ,5.04659 
263 ,54.8480 ,1.39271 ,0.50748 ,4.97943 
264 ,55.0564 ,1.39469 ,0.50406 ,4.94585 
265 ,55.2805 ,1.39678 ,0.49037 ,4.81154 
266 ,55.4888 ,1.39899 ,0.49037 ,4.81154 
267 ,55.6968 ,1.40109 ,0.45615 ,4.47576 
268 ,55.8889 ,1.40306 ,0.44931 ,4.40860 
269 ,56.0970 ,1.40517 ,0.43562 ,4.27429 
270 ,56.3052 ,1.40723 ,0.42535 ,4.17355 
271 ,56.5132 ,1.40919 ,0.41509 ,4.07282 
272 ,56.7212 ,1.41131 ,0.39113 ,3.83777 
273 ,56.9293 ,1.41338 ,0.39797 ,3.90493 
274 ,57.1374 ,1.41551 ,0.37744 ,3.70346 
275 ,57.3295 ,1.41743 ,0.37402 ,3.66988 
276 ,57.5375 ,1.41951 ,0.35349 ,3.46841 
277 ,57.7297 ,1.42145 ,0.34664 ,3.40125 
278 ,57.9377 ,1.42343 ,0.31584 ,3.09905 
279 ,58.1295 ,1.42542 ,0.31926 ,3.13263 
280 ,58.3538 ,1.42754 ,0.28504 ,2.79684 
281 ,58.5461 ,1.42967 ,0.27820 ,2.72969 
282 ,58.7381 ,1.43151 ,0.28162 ,2.76326 
283 ,58.9463 ,1.43358 ,0.24740 ,2.42748 
284 ,59.1544 ,1.43562 ,0.24740 ,2.42748 
285 ,59.3623 ,1.43778 ,0.22344 ,2.19243 
286 ,59.5544 ,1.43961 ,0.21660 ,2.12528 
287 ,59.7624 ,1.44173 ,0.20633 ,2.02454 
288 ,59.9707 ,1.44377 ,0.20291 ,1.99096 
289 ,60.1948 ,1.44601 ,0.18922 ,1.85665 
290 ,60.3865 ,1.44802 ,0.17211 ,1.68876 
291 ,60.6269 ,1.45036 ,0.15158 ,1.48729 
292 ,60.8350 ,1.45253 ,0.15500 ,1.52087 
293 ,61.0426 ,1.45447 ,0.12762 ,1.25224 
294 ,61.2351 ,1.45643 ,0.13105 ,1.28582 
295 ,61.4432 ,1.45855 ,0.10025 ,0.98361 
296 ,61.6353 ,1.46051 ,0.10709 ,1.05077 
297 ,61.8434 ,1.46254 ,0.06945 ,0.68141 
298 ,62.0355 ,1.46446 ,0.07971 ,0.78214 
299 ,62.2437 ,1.46655 ,0.06945 ,0.68141 
300 ,62.4516 ,1.46860 ,0.06260 ,0.61425 
301 ,62.6433 ,1.47056 ,0.04891 ,0.47994 
302 ,62.8519 ,1.47257 ,0.03865 ,0.37920 
303 ,63.0600 ,1.47471 ,0.02838 ,0.27847 
304 ,63.2681 ,1.47675 ,0.00100 ,0.00984 
305 ,63.4762 ,1.47884 ,0.00100 ,0.00984 
306 ,63.6683 ,1.48080 ,-0.00926 ,-0.09089 
307 ,63.8763 ,1.48292 ,-0.02980 ,-0.29236 
308 ,64.0842 ,1.48491 ,-0.05033 ,-0.49383 
309 ,64.2923 ,1.48704 ,-0.02637 ,-0.25878 
310 ,64.4844 ,1.48891 ,-0.06744 ,-0.66172 
311 ,64.6766 ,1.49083 ,-0.05375 ,-0.52741 
312 ,64.8682 ,1.49279 ,-0.08455 ,-0.82961 
313 ,65.0768 ,1.49484 ,-0.09140 ,-0.89677 
314 ,65.2688 ,1.49679 ,-0.08797 ,-0.86319 
315 ,65.4770 ,1.49883 ,-0.09824 ,-0.96393 
316 ,65.6686 ,1.50085 ,-0.12562 ,-1.23255 
317 ,65.8607 ,1.50275 ,-0.12219 ,-1.19898 
318 ,66.0527 ,1.50461 ,-0.12904 ,-1.26613 
319 ,66.2452 ,1.50653 ,-0.15642 ,-1.53476 
320 ,66.4210 ,1.50844 ,-0.15299 ,-1.50118 
321 ,66.6294 ,1.51036 ,-0.17353 ,-1.70265 
322 ,66.8375 ,1.51240 ,-0.18379 ,-1.80338 
323 ,67.0612 ,1.51469 ,-0.21117 ,-2.07201 
324 ,67.2697 ,1.51673 ,-0.20433 ,-2.00485 
325 ,67.4937 ,1.51904 ,-0.21117 ,-2.07201 
326 ,67.6698 ,1.52090 ,-0.25224 ,-2.47495 
327 ,67.8617 ,1.52268 ,-0.25566 ,-2.50853 
328 ,68.0537 ,1.52468 ,-0.22486 ,-2.20632 
329 ,68.2780 ,1.52679 ,-0.26250 ,-2.57569 
330 ,68.4862 ,1.52895 ,-0.28646 ,-2.81073 
331 ,68.6942 ,1.53103 ,-0.28304 ,-2.77716 
332 ,68.9023 ,1.53306 ,-0.30699 ,-3.01220 
333 ,69.1103 ,1.53517 ,-0.31726 ,-3.11294 
334 ,69.3181 ,1.53721 ,-0.31726 ,-3.11294 
335 ,69.5104 ,1.53921 ,-0.32752 ,-3.21367 
336 ,69.7187 ,1.54129 ,-0.32410 ,-3.18010 
337 ,69.9426 ,1.54344 ,-0.36517 ,-3.58303 
338 ,70.1349 ,1.54537 ,-0.34464 ,-3.38156 
339 ,70.3584 ,1.54765 ,-0.37201 ,-3.65019 
340 ,70.5672 ,1.54970 ,-0.38570 ,-3.78450 
341 ,70.7754 ,1.55185 ,-0.37544 ,-3.68377 
342 ,70.9832 ,1.55390 ,-0.40966 ,-4.01955 
343 ,71.1911 ,1.55600 ,-0.40966 ,-4.01955 
344 ,71.3992 ,1.55800 ,-0.43019 ,-4.22102 
345 ,71.6074 ,1.56015 ,-0.43019 ,-4.22102 
346 ,71.8474 ,1.56251 ,-0.46099 ,-4.52323 
347 ,72.0556 ,1.56463 ,-0.45414 ,-4.45607 
348 ,72.2478 ,1.56655 ,-0.47468 ,-4.65754 
349 ,72.4398 ,1.56852 ,-0.46783 ,-4.59038 
350 ,72.6475 ,1.57049 ,-0.47810 ,-4.69112 
351 ,72.8399 ,1.57244 ,-0.48837 ,-4.79185 
352 ,73.0320 ,1.57439 ,-0.49863 ,-4.89259 
353 ,73.2562 ,1.57649 ,-0.52601 ,-5.16121 
354 ,73.4643 ,1.57862 ,-0.52943 ,-5.19479 
355 ,73.6559 ,1.58072 ,-0.51574 ,-5.06048 
356 ,73.8646 ,1.58269 ,-0.56365 ,-5.53058 
357 ,74.0885 ,1.58493 ,-0.56023 ,-5.49700 
358 ,74.2966 ,1.58707 ,-0.56365 ,-5.53058 
359 ,74.5046 ,1.58906 ,-0.58419 ,-5.73205 
360 ,74.6968 ,1.59110 ,-0.56023 ,-5.49700 
361 ,74.8888 ,1.59302 ,-0.60814 ,-5.96709 
362 ,75.0810 ,1.59487 ,-0.59788 ,-5.86636 
363 ,75.2887 ,1.59691 ,-0.61156 ,-6.00067 
364 ,75.4972 ,1.59900 ,-0.60472 ,-5.93352 
365 ,75.7049 ,1.60113 ,-0.64921 ,-6.37003 
366 ,75.9128 ,1.60322 ,-0.63894 ,-6.26930 
367 ,76.1372 ,1.60535 ,-0.66632 ,-6.53793 
368 ,76.3454 ,1.60752 ,-0.67659 ,-6.63866 
369 ,76.5534 ,1.60952 ,-0.66632 ,-6.53793 
370 ,76.7613 ,1.61169 ,-0.69027 ,-6.77297 
371 ,76.9697 ,1.61378 ,-0.70054 ,-6.87371 
372 ,77.1777 ,1.61582 ,-0.71081 ,-6.97444 
373 ,77.4019 ,1.61799 ,-0.72792 ,-7.14233 
374 ,77.6097 ,1.62015 ,-0.72107 ,-7.07518 
375 ,77.8018 ,1.62206 ,-0.73818 ,-7.24307 
376 ,78.0097 ,1.62417 ,-0.74503 ,-7.31023 
377 ,78.2021 ,1.62608 ,-0.74845 ,-7.34380 
378 ,78.3941 ,1.62803 ,-0.75872 ,-7.44454 
379 ,78.6183 ,1.63017 ,-0.76898 ,-7.54527 
380 ,78.8105 ,1.63211 ,-0.78267 ,-7.67959 
381 ,79.0345 ,1.63431 ,-0.78267 ,-7.67959 
382 ,79.2262 ,1.63628 ,-0.80321 ,-7.88106 
383 ,79.4346 ,1.63838 ,-0.79636 ,-7.81390 
384 ,79.6428 ,1.64038 ,-0.83743 ,-8.21684 
385 ,79.8509 ,1.64256 ,-0.84427 ,-8.28400 
386 ,80.0751 ,1.64466 ,-0.84427 ,-8.28400 
387 ,80.2830 ,1.64680 ,-0.86481 ,-8.48547 
388 ,80.4911 ,1.64892 ,-0.86138 ,-8.45189 
389 ,80.6990 ,1.65099 ,-0.86823 ,-8.51904 
390 ,80.9073 ,1.65306 ,-0.88534 ,-8.68694 
391 ,81.0993 ,1.65501 ,-0.89218 ,-8.75409 
392 ,81.3076 ,1.65705 ,-0.91614 ,-8.98914 
393 ,81.5150 ,1.65924 ,-0.90245 ,-8.85483 
394 ,81.7072 ,1.66107 ,-0.92983 ,-9.12345 
395 ,81.9001 ,1.66306 ,-0.92640 ,-9.08988 
396 ,82.1234 ,1.66521 ,-0.95378 ,-9.35850 
397 ,82.3318 ,1.66733 ,-0.94694 ,-9.29135 
398 ,82.5717 ,1.66960 ,-0.94694 ,-9.29135 
399 ,82.7802 ,1.67186 ,-0.97431 ,-9.55997 
400 ,82.9882 ,1.67389 ,-0.99827 ,-9.79502 
401 ,83.1963 ,1.67600 ,-0.98116 ,-9.62713 
402 ,83.4042 ,1.67810 ,-1.00854 ,-9.89576 
403 ,83.6124 ,1.68012 ,-0.99485 ,-9.76144 
404 ,83.8205 ,1.68217 ,-1.03934 ,-10.19796 
405 ,84.0287 ,1.68428 ,-1.03249 ,-10.13080 
406 ,84.2524 ,1.68652 ,-1.01880 ,-9.99649 
407 ,84.4449 ,1.68846 ,-1.04960 ,-10.29869 
408 ,84.6530 ,1.69052 ,-1.04618 ,-10.26512 
409 ,84.8606 ,1.69254 ,-1.06671 ,-10.46659 
410 ,85.0531 ,1.69457 ,-1.05987 ,-10.39943 
411 ,85.2612 ,1.69661 ,-1.07014 ,-10.50016 
412 ,85.4694 ,1.69865 ,-1.07014 ,-10.50016 
413 ,85.6772 ,1.70082 ,-1.08382 ,-10.63448 
414 ,85.8692 ,1.70269 ,-1.09751 ,-10.76879 
415 ,86.0774 ,1.70483 ,-1.10778 ,-10.86953 
416 ,86.3013 ,1.70702 ,-1.12489 ,-11.03742 
417 ,86.5253 ,1.70919 ,-1.13516 ,-11.13815 
418 ,86.7173 ,1.71126 ,-1.12147 ,-11.00384 
419 ,86.9095 ,1.71309 ,-1.14200 ,-11.20531 
420 ,87.0856 ,1.71497 ,-1.15227 ,-11.30604 
421 ,87.2940 ,1.71699 ,-1.15911 ,-11.37320 
422 ,87.5020 ,1.71901 ,-1.16596 ,-11.44036 
423 ,87.7101 ,1.72113 ,-1.15569 ,-11.33962 
424 ,87.9023 ,1.72305 ,-1.19333 ,-11.70898 
425 ,88.1099 ,1.72510 ,-1.21044 ,-11.87688 
426 ,88.3344 ,1.72722 ,-1.21044 ,-11.87688 
427 ,88.5586 ,1.72954 ,-1.21387 ,-11.91045 
428 ,88.7666 ,1.73162 ,-1.23440 ,-12.11192 
429 ,88.9587 ,1.73363 ,-1.22413 ,-12.01119 
430 ,89.1669 ,1.73566 ,-1.25151 ,-12.27981 
431 ,89.4066 ,1.73796 ,-1.25151 ,-12.27981 
432 ,89.6150 ,1.74019 ,-1.25151 ,-12.27981 
433 ,89.8230 ,1.74222 ,-1.27547 ,-12.51486 
434 ,90.0469 ,1.74439 ,-1.28573 ,-12.61560 
435 ,90.2552 ,1.74655 ,-1.27547 ,-12.51486 
436 ,90.4632 ,1.74859 ,-1.30969 ,-12.85065 
437 ,90.6870 ,1.75085 ,-1.30969 ,-12.85065 
438 ,90.8794 ,1.75283 ,-1.30969 ,-12.85065 
439 ,91.0874 ,1.75487 ,-1.31995 ,-12.95138 
440 ,91.2796 ,1.75681 ,-1.32338 ,-12.98496 
441 ,91.4871 ,1.75895 ,-1.34733 ,-13.22001 
442 ,91.6958 ,1.76087 ,-1.32680 ,-13.01854 
443 ,91.9036 ,1.76299 ,-1.36444 ,-13.38790 
444 ,92.1117 ,1.76509 ,-1.37129 ,-13.45506 
445 ,92.3201 ,1.76714 ,-1.38155 ,-13.55579 
446 ,92.5436 ,1.76933 ,-1.39524 ,-13.69010 
447 ,92.7522 ,1.77154 ,-1.37813 ,-13.52221 
448 ,92.9603 ,1.77360 ,-1.40209 ,-13.75726 
449 ,93.1683 ,1.77562 ,-1.42604 ,-13.99231 
450 ,93.3923 ,1.77788 ,-1.41577 ,-13.89157 
451 ,93.6004 ,1.77992 ,-1.42604 ,-13.99231 
452 ,93.7767 ,1.78191 ,-1.41920 ,-13.92515 
453 ,93.9688 ,1.78368 ,-1.44657 ,-14.19378 
454 ,94.1927 ,1.78583 ,-1.43631 ,-14.09304 
455 ,94.4010 ,1.78795 ,-1.46368 ,-14.36167 
456 ,94.6251 ,1.79021 ,-1.48080 ,-14.52956 
457 ,94.8166 ,1.79225 ,-1.46368 ,-14.36167 
458 ,95.0252 ,1.79422 ,-1.48422 ,-14.56314 
459 ,95.2492 ,1.79644 ,-1.49448 ,-14.66387 
460 ,95.4572 ,1.79855 ,-1.48422 ,-14.56314 
