Point No.,Normal Force [N],Gap [mm],Time [s]
1,6.479869,9.9107,157.7150
2,6.479476,9.9107,157.7200
3,6.479631,9.9107,157.7250
4,6.480772,9.9107,157.7300
5,6.481085,9.9107,157.7350
6,6.480351,9.9107,157.7400
7,6.479449,9.9107,157.7450
8,6.477621,9.9113,157.7500
9,6.475461,9.9113,157.7540
10,6.471523,9.9113,157.7590
11,6.459038,9.9126,157.7640
12,6.444622,9.9126,157.7690
13,6.412205,9.9163,157.7740
14,6.386079,9.9163,157.7790
15,6.330947,9.9212,157.7840
16,6.273019,9.9262,157.7900
17,6.224317,9.9262,157.7950
18,6.157199,9.9311,157.8000
19,6.106771,9.9311,157.8050
20,6.038415,9.9361,157.8100
21,5.989850,9.9360,157.8150
22,5.923492,9.9410,157.8200
23,5.874931,9.9410,157.8250
24,5.810694,9.9459,157.8300
25,5.765490,9.9459,157.8350
26,5.709479,9.9509,157.8400
27,5.667177,9.9508,157.8450
28,5.613159,9.9558,157.8500
29,5.572346,9.9558,157.8550
30,5.534904,9.9558,157.8590
31,5.472542,9.9607,157.8640
32,5.434431,9.9607,157.8690
33,5.373884,9.9657,157.8740
34,5.337877,9.9657,157.8790
35,5.278134,9.9706,157.8840
36,5.243498,9.9706,157.8890
37,5.185943,9.9756,157.8940
38,5.152732,9.9755,157.8990
39,5.095123,9.9805,157.9040
40,5.060673,9.9805,157.9090
41,5.003498,9.9855,157.9140
42,4.970119,9.9854,157.9190
43,4.915187,9.9904,157.9240
44,4.883091,9.9904,157.9290
45,4.830578,9.9947,157.9340
46,4.800504,9.9947,157.9390
47,4.747851,10.0003,157.9440
48,4.716718,10.0003,157.9490
49,4.663740,10.0053,157.9540
50,4.633430,10.0052,157.9590
51,4.581791,10.0102,157.9640
52,4.551611,10.0102,157.9690
53,4.501450,10.0152,157.9740
54,4.472341,10.0151,157.9790
55,4.423610,10.0201,157.9840
56,4.395576,10.0201,157.9890
57,4.348553,10.0251,157.9940
58,4.322092,10.0250,157.9990
59,4.275208,10.0300,158.0040
60,4.248796,10.0300,158.0090
61,4.202433,10.0344,158.0140
62,4.175945,10.0343,158.0190
63,4.130311,10.0399,158.0240
64,4.103681,10.0399,158.0290
65,4.062325,10.0449,158.0340
66,4.039742,10.0449,158.0390
67,4.002694,10.0499,158.0440
68,3.982488,10.0498,158.0490
69,3.945336,10.0542,158.0540
70,3.924256,10.0542,158.0590
71,3.885401,10.0598,158.0640
72,3.863311,10.0598,158.0690
73,3.824148,10.0648,158.0740
74,3.801581,10.0647,158.0790
75,3.762128,10.0697,158.0840
76,3.740225,10.0697,158.0890
77,3.701684,10.0747,158.0940
78,3.679949,10.0747,158.0990
79,3.640314,10.0796,158.1040
80,3.618471,10.0796,158.1090
81,3.580888,10.0846,158.1140
82,3.560005,10.0846,158.1190
83,3.524353,10.0896,158.1240
84,3.505920,10.0896,158.1290
85,3.471210,10.0939,158.1340
86,3.452037,10.0939,158.1390
87,3.415735,10.0995,158.1440
88,3.396591,10.0995,158.1490
89,3.363058,10.1045,158.1540
90,3.345360,10.1045,158.1590
91,3.310592,10.1095,158.1640
92,3.291565,10.1094,158.1690
93,3.258396,10.1144,158.1740
94,3.241155,10.1144,158.1790
95,3.208628,10.1194,158.1840
96,3.190999,10.1194,158.1890
97,3.158832,10.1244,158.1940
98,3.141758,10.1244,158.1990
99,3.109600,10.1293,158.2040
100,3.091905,10.1293,158.2090
101,3.060393,10.1337,158.2140
102,3.044653,10.1337,158.2190
103,3.014968,10.1393,158.2240
104,2.998784,10.1393,158.2290
105,2.969044,10.1443,158.2340
106,2.952514,10.1442,158.2390
107,2.920968,10.1492,158.2440
108,2.905013,10.1492,158.2490
109,2.877718,10.1536,158.2540
110,2.863601,10.1536,158.2590
111,2.836325,10.1592,158.2640
112,2.821833,10.1592,158.2690
113,2.793875,10.1641,158.2740
114,2.779495,10.1641,158.2790
115,2.751798,10.1691,158.2840
116,2.737802,10.1691,158.2890
117,2.710943,10.1735,158.2940
118,2.695815,10.1735,158.2990
119,2.668062,10.1791,158.3040
120,2.653846,10.1791,158.3090
121,2.627866,10.1841,158.3140
122,2.614585,10.1840,158.3190
123,2.589161,10.1890,158.3240
124,2.576105,10.1890,158.3290
125,2.550648,10.1934,158.3340
126,2.537788,10.1934,158.3390
127,2.511545,10.1990,158.3440
128,2.498382,10.1990,158.3490
129,2.473126,10.2040,158.3540
130,2.459415,10.2040,158.3590
131,2.433547,10.2089,158.3640
132,2.420833,10.2089,158.3690
133,2.396727,10.2139,158.3740
134,2.383690,10.2139,158.3790
135,2.358611,10.2189,158.3840
136,2.345901,10.2189,158.3890
137,2.322955,10.2239,158.3940
138,2.311424,10.2239,158.3990
139,2.288301,10.2289,158.4040
140,2.276563,10.2288,158.4090
141,2.255572,10.2332,158.4140
142,2.244737,10.2332,158.4190
143,2.224971,10.2388,158.4240
144,2.214889,10.2388,158.4290
145,2.197166,10.2438,158.4340
146,2.188034,10.2438,158.4390
147,2.167314,10.2488,158.4440
148,2.156788,10.2488,158.4490
149,2.135469,10.2538,158.4540
150,2.124148,10.2538,158.4590
151,2.102240,10.2587,158.4640
152,2.091545,10.2587,158.4690
153,2.071036,10.2637,158.4740
154,2.060150,10.2637,158.4790
155,2.036502,10.2687,158.4840
156,2.024653,10.2687,158.4890
157,2.002722,10.2731,158.4940
158,1.992097,10.2731,158.4990
159,1.969857,10.2787,158.5040
160,1.957901,10.2787,158.5090
161,1.935604,10.2836,158.5140
162,1.923811,10.2836,158.5190
163,1.901384,10.2886,158.5240
164,1.891144,10.2886,158.5290
165,1.870802,10.2930,158.5340
166,1.859336,10.2930,158.5390
167,1.836647,10.2986,158.5440
168,1.824153,10.2986,158.5490
169,1.803933,10.3036,158.5540
170,1.794169,10.3036,158.5590
171,1.774660,10.3085,158.5640
172,1.764737,10.3085,158.5690
173,1.744181,10.3129,158.5740
174,1.732050,10.3129,158.5790
175,1.709091,10.3185,158.5840
176,1.697919,10.3185,158.5890
177,1.679785,10.3235,158.5940
178,1.670470,10.3235,158.5990
179,1.649745,10.3285,158.6040
180,1.638822,10.3285,158.6090
181,1.617985,10.3328,158.6140
182,1.606542,10.3328,158.6190
183,1.586276,10.3384,158.6240
184,1.575801,10.3384,158.6290
185,1.557082,10.3434,158.6340
186,1.546640,10.3434,158.6390
187,1.526322,10.3484,158.6440
188,1.516054,10.3484,158.6490
189,1.496287,10.3534,158.6540
190,1.485527,10.3534,158.6590
191,1.464877,10.3584,158.6640
192,1.453945,10.3584,158.6690
193,1.436432,10.3633,158.6740
194,1.427206,10.3633,158.6790
195,1.407922,10.3683,158.6840
196,1.397732,10.3683,158.6890
197,1.378663,10.3727,158.6940
198,1.367795,10.3727,158.6990
199,1.347314,10.3783,158.7040
200,1.336250,10.3783,158.7090
201,1.319233,10.3833,158.7140
202,1.309511,10.3833,158.7190
203,1.291461,10.3883,158.7240
204,1.281529,10.3883,158.7290
205,1.262979,10.3932,158.7340
206,1.253037,10.3932,158.7390
207,1.235146,10.3982,158.7440
208,1.225953,10.3982,158.7490
209,1.210367,10.4032,158.7540
210,1.201080,10.4032,158.7590
211,1.183638,10.4082,158.7640
212,1.174258,10.4082,158.7690
213,1.156306,10.4126,158.7740
214,1.146042,10.4126,158.7790
215,1.126930,10.4182,158.7840
216,1.116942,10.4182,158.7890
217,1.102507,10.4232,158.7940
218,1.094103,10.4231,158.7990
219,1.077699,10.4281,158.8040
220,1.068230,10.4281,158.8090
221,1.050545,10.4325,158.8140
222,1.040893,10.4325,158.8190
223,1.024167,10.4381,158.8240
224,1.014772,10.4381,158.8290
225,0.999542,10.4431,158.8340
226,0.990358,10.4431,158.8390
227,0.972635,10.4481,158.8440
228,0.962815,10.4481,158.8490
229,0.945943,10.4531,158.8540
230,0.936825,10.4531,158.8590
231,0.920383,10.4580,158.8640
232,0.910605,10.4580,158.8690
233,0.896371,10.4630,158.8740
234,0.888146,10.4630,158.8790
235,0.872813,10.4680,158.8840
236,0.864120,10.4680,158.8890
237,0.849684,10.4724,158.8940
238,0.840683,10.4724,158.8990
239,0.823718,10.4780,158.9040
240,0.813668,10.4780,158.9090
241,0.799093,10.4830,158.9140
242,0.790349,10.4830,158.9190
243,0.774211,10.4880,158.9240
244,0.765616,10.4880,158.9290
245,0.751256,10.4929,158.9340
246,0.742759,10.4929,158.9390
247,0.727351,10.4979,158.9440
248,0.717456,10.4979,158.9490
249,0.703049,10.5029,158.9540
250,0.694258,10.5029,158.9590
251,0.678302,10.5079,158.9640
252,0.669493,10.5079,158.9690
253,0.655254,10.5123,158.9740
254,0.646397,10.5123,158.9790
255,0.632083,10.5179,158.9840
256,0.622768,10.5179,158.9890
257,0.609278,10.5229,158.9940
258,0.600767,10.5229,158.9990
259,0.585518,10.5278,159.0040
260,0.575698,10.5278,159.0090
261,0.558812,10.5328,159.0140
262,0.548230,10.5328,159.0190
263,0.529956,10.5378,159.0240
264,0.518864,10.5378,159.0290
265,0.505382,10.5428,159.0340
266,0.497363,10.5428,159.0390
267,0.483372,10.5478,159.0440
268,0.473991,10.5478,159.0490
269,0.458293,10.5521,159.0540
270,0.449511,10.5521,159.0590
271,0.436357,10.5578,159.0640
272,0.428413,10.5578,159.0690
273,0.417330,10.5627,159.0740
274,0.409553,10.5627,159.0790
275,0.396928,10.5677,159.0840
276,0.389525,10.5677,159.0890
277,0.378457,10.5721,159.0940
278,0.371377,10.5721,159.0990
279,0.359126,10.5777,159.1040
280,0.352298,10.5777,159.1090
281,0.343381,10.5827,159.1140
282,0.336469,10.5827,159.1190
283,0.325532,10.5877,159.1240
284,0.318892,10.5877,159.1290
285,0.309142,10.5921,159.1340
286,0.302062,10.5921,159.1390
287,0.290666,10.5977,159.1440
288,0.282768,10.5977,159.1490
289,0.271667,10.6027,159.1540
290,0.263956,10.6027,159.1590
291,0.252715,10.6070,159.1640
292,0.245981,10.6070,159.1690
293,0.236741,10.6120,159.1740
294,0.229310,10.6120,159.1790
295,0.217377,10.6170,159.1840
296,0.208997,10.6170,159.1890
297,0.199579,10.6220,159.1940
298,0.192443,10.6220,159.1990
299,0.182146,10.6276,159.2040
300,0.175567,10.6276,159.2090
301,0.165668,10.6320,159.2140
302,0.157844,10.6320,159.2190
303,0.146046,10.6376,159.2240
304,0.137933,10.6376,159.2290
305,0.129062,10.6420,159.2340
306,0.122001,10.6419,159.2390
307,0.110302,10.6469,159.2440
308,0.102277,10.6469,159.2490
309,0.092551,10.6519,159.2540
310,0.085887,10.6519,159.2590
311,0.075834,10.6569,159.2640
312,0.068239,10.6569,159.2690
313,0.059986,10.6619,159.2740
314,0.052925,10.6619,159.2790
315,0.042983,10.6669,159.2840
316,0.036044,10.6669,159.2890
317,0.026636,10.6725,159.2940
318,0.018892,10.6725,159.2990
319,0.008628,10.6775,159.3040
320,0.000692,10.6775,159.3090
321,-0.007744,10.6825,159.3140
322,-0.014889,10.6825,159.3190
323,-0.024550,10.6869,159.3240
324,-0.031022,10.6869,159.3290
325,-0.039738,10.6919,159.3340
326,-0.047164,10.6918,159.3390
327,-0.057681,10.6968,159.3440
328,-0.065813,10.6968,159.3490
329,-0.073131,10.7018,159.3540
330,-0.079560,10.7018,159.3590
331,-0.088478,10.7068,159.3640
332,-0.095595,10.7068,159.3690
333,-0.104316,10.7118,159.3740
334,-0.111728,10.7118,159.3790
335,-0.120772,10.7174,159.3840
336,-0.128230,10.7174,159.3890
337,-0.136175,10.7224,159.3940
338,-0.143395,10.7224,159.3990
339,-0.152752,10.7268,159.4040
340,-0.160075,10.7268,159.4090
341,-0.167842,10.7318,159.4140
342,-0.174632,10.7318,159.4190
343,-0.183301,10.7368,159.4240
344,-0.190895,10.7368,159.4290
345,-0.197470,10.7418,159.4340
346,-0.203993,10.7418,159.4390
347,-0.211784,10.7468,159.4440
348,-0.218625,10.7467,159.4490
349,-0.226911,10.7517,159.4540
350,-0.233986,10.7517,159.4590
351,-0.242684,10.7567,159.4640
352,-0.250573,10.7567,159.4690
353,-0.256909,10.7617,159.4740
354,-0.263535,10.7617,159.4790
355,-0.271784,10.7667,159.4840
356,-0.278672,10.7667,159.4890
357,-0.285046,10.7717,159.4940
358,-0.291662,10.7717,159.4990
359,-0.299925,10.7767,159.5040
360,-0.307674,10.7767,159.5090
361,-0.314604,10.7817,159.5140
362,-0.321646,10.7817,159.5190
363,-0.330072,10.7867,159.5240
364,-0.337218,10.7867,159.5290
365,-0.343830,10.7917,159.5340
366,-0.350255,10.7917,159.5390
367,-0.357386,10.7967,159.5440
368,-0.364316,10.7967,159.5490
369,-0.371031,10.8017,159.5540
370,-0.377928,10.8017,159.5590
371,-0.385410,10.8066,159.5640
372,-0.392373,10.8066,159.5690
373,-0.398611,10.8116,159.5740
374,-0.405097,10.8116,159.5790
375,-0.412369,10.8166,159.5840
376,-0.419341,10.8166,159.5890
377,-0.424943,10.8216,159.5940
378,-0.431747,10.8216,159.5990
379,-0.439037,10.8266,159.6040
380,-0.445799,10.8266,159.6090
381,-0.451765,10.8310,159.6140
382,-0.457765,10.8310,159.6190
383,-0.463937,10.8366,159.6240
384,-0.470227,10.8366,159.6290
385,-0.474117,10.8416,159.6340
386,-0.480206,10.8416,159.6390
387,-0.486313,10.8466,159.6440
388,-0.493201,10.8466,159.6490
389,-0.498812,10.8510,159.6540
390,-0.505607,10.8510,159.6590
391,-0.512313,10.8566,159.6640
392,-0.519537,10.8566,159.6690
393,-0.524466,10.8616,159.6740
394,-0.530643,10.8616,159.6790
395,-0.536470,10.8666,159.6840
396,-0.543418,10.8666,159.6890
397,-0.550390,10.8709,159.6940
398,-0.557302,10.8709,159.6990
399,-0.562539,10.8765,159.7040
400,-0.568763,10.8765,159.7090
401,-0.572888,10.8815,159.7140
402,-0.579752,10.8815,159.7190
403,-0.586308,10.8865,159.7240
404,-0.592958,10.8865,159.7290
405,-0.597900,10.8909,159.7340
406,-0.603601,10.8909,159.7390
407,-0.608688,10.8959,159.7440
408,-0.615151,10.8959,159.7490
409,-0.619514,10.9015,159.7540
410,-0.625705,10.9015,159.7590
411,-0.630447,10.9065,159.7640
412,-0.636862,10.9065,159.7690
413,-0.641618,10.9115,159.7740
414,-0.648417,10.9115,159.7790
415,-0.654744,10.9165,159.7840
416,-0.662029,10.9165,159.7900
417,-0.665499,10.9215,159.7950
418,-0.672401,10.9215,159.8000
419,-0.677302,10.9259,159.8050
420,-0.684110,10.9258,159.8100
421,-0.688048,10.9308,159.8150
422,-0.694767,10.9308,159.8200
423,-0.699621,10.9358,159.8250
424,-0.706883,10.9358,159.8300
425,-0.709848,10.9408,159.8350
426,-0.715824,10.9408,159.8400
427,-0.720276,10.9458,159.8450
428,-0.727117,10.9458,159.8500
429,-0.730835,10.9514,159.8550
430,-0.737681,10.9514,159.8600
431,-0.742698,10.9564,159.8650
432,-0.749787,10.9564,159.8700
433,-0.752818,10.9614,159.8750
434,-0.759509,10.9614,159.8800
435,-0.764153,10.9658,159.8850
436,-0.771036,10.9658,159.8900
437,-0.774262,10.9708,159.8950
438,-0.780440,10.9708,159.9000
439,-0.784503,10.9758,159.9050
440,-0.791115,10.9758,159.9100
441,-0.793341,10.9808,159.9150
442,-0.799584,10.9808,159.9200
443,-0.804115,10.9858,159.9250
444,-0.811335,10.9858,159.9300
445,-0.814679,10.9908,159.9350
446,-0.821188,10.9908,159.9400
447,-0.824859,10.9964,159.9450
448,-0.831873,10.9964,159.9500
449,-0.833860,11.0014,159.9550
450,-0.839752,11.0014,159.9600
451,-0.843755,11.0064,159.9650
452,-0.850596,11.0064,159.9700
453,-0.853991,11.0107,159.9750
454,-0.860239,11.0107,159.9800
455,-0.863942,11.0157,159.9850
456,-0.871209,11.0157,159.9900
457,-0.873234,11.0207,159.9950
458,-0.879041,11.0207,160.0000
459,-0.882319,11.0257,160.0050
460,-0.888431,11.0257,160.0100
461,-0.890891,11.0307,160.0150
462,-0.896488,11.0307,160.0200
463,-0.899827,11.0357,160.0250
464,-0.906668,11.0357,160.0300
465,-0.908759,11.0407,160.0350
466,-0.915525,11.0407,160.0400
467,-0.918826,11.0463,160.0450
468,-0.924606,11.0463,160.0500
469,-0.925841,11.0513,160.0550
470,-0.929928,11.0513,160.0600
471,-0.932420,11.0563,160.0650
472,-0.938723,11.0563,160.0700
473,-0.940000,11.0613,160.0750
474,-0.945200,11.0613,160.0800
475,-0.947954,11.0657,160.0850
476,-0.954636,11.0657,160.0900
477,-0.956984,11.0707,160.0950
478,-0.962941,11.0707,160.1000
479,-0.965724,11.0757,160.1050
480,-0.972149,11.0757,160.1100
481,-0.972902,11.0807,160.1150
482,-0.978420,11.0807,160.1200
483,-0.981342,11.0857,160.1250
484,-0.988880,11.0857,160.1300
485,-0.991471,11.0907,160.1350
486,-0.997335,11.0907,160.1400
487,-0.999416,11.0957,160.1450
488,-1.004695,11.0957,160.1500
489,-1.005616,11.1013,160.1550
490,-1.012120,11.1013,160.1600
491,-1.015333,11.1063,160.1650
492,-1.022684,11.1063,160.1700
493,-1.024784,11.1106,160.1750
494,-1.031087,11.1106,160.1800
495,-1.033121,11.1156,160.1850
496,-1.039621,11.1156,160.1900
497,-1.040575,11.1206,160.1950
498,-1.047487,11.1206,160.2000
499,-1.050091,11.1256,160.2050
500,-1.055628,11.1256,160.2100
501,-1.056759,11.1306,160.2150
502,-1.062745,11.1306,160.2200
503,-1.065139,11.1356,160.2250
504,-1.071588,11.1356,160.2300
505,-1.072163,11.1406,160.2350
506,-1.077891,11.1406,160.2400
507,-1.079986,11.1462,160.2450
508,-1.086107,11.1462,160.2500
509,-1.087356,11.1506,160.2550
510,-1.093575,11.1506,160.2600
511,-1.096353,11.1556,160.2650
512,-1.103231,11.1556,160.2700
513,-1.103320,11.1606,160.2750
514,-1.107472,11.1606,160.2800
515,-1.107837,11.1656,160.2850
516,-1.111770,11.1656,160.2900
517,-1.112579,11.1706,160.2950
518,-1.116905,11.1706,160.3000
519,-1.115960,11.1756,160.3050
520,-1.116502,11.1756,160.3100
521,-1.112429,11.1806,160.3150
522,-1.111499,11.1806,160.3200
523,-1.110115,11.1856,160.3250
524,-1.112542,11.1856,160.3300
525,-1.111541,11.1906,160.3350
526,-1.114604,11.1906,160.3400
527,-1.115207,11.1962,160.3450
528,-1.120328,11.1962,160.3500
529,-1.120033,11.2012,160.3550
530,-1.124475,11.2012,160.3600
531,-1.124765,11.2056,160.3650
532,-1.128436,11.2056,160.3700
533,-1.127393,11.2106,160.3750
534,-1.128188,11.2106,160.3800
535,-1.126598,11.2156,160.3850
536,-1.129596,11.2156,160.3900
537,-1.127795,11.2206,160.3950
538,-1.130825,11.2206,160.4000
539,-1.130746,11.2256,160.4050
540,-1.134791,11.2256,160.4100
541,-1.135497,11.2306,160.4150
542,-1.141207,11.2306,160.4200
543,-1.142423,11.2356,160.4250
544,-1.147122,11.2356,160.4300
545,-1.146355,11.2412,160.4350
546,-1.149685,11.2412,160.4400
547,-1.149876,11.2462,160.4450
548,-1.154370,11.2462,160.4500
549,-1.154809,11.2506,160.4550
550,-1.159107,11.2506,160.4600
551,-1.159476,11.2556,160.4650
552,-1.163395,11.2556,160.4700
553,-1.161805,11.2606,160.4750
554,-1.164896,11.2606,160.4800
555,-1.163713,11.2656,160.4850
556,-1.164919,11.2656,160.4900
557,-1.163503,11.2706,160.4950
558,-1.166088,11.2706,160.5000
559,-1.166098,11.2756,160.5050
560,-1.170264,11.2756,160.5100
561,-1.169609,11.2806,160.5150
562,-1.173701,11.2806,160.5200
563,-1.173589,11.2862,160.5250
564,-1.176979,11.2862,160.5300
565,-1.177115,11.2906,160.5350
566,-1.181473,11.2906,160.5400
567,-1.181950,11.2956,160.5450
568,-1.184185,11.2956,160.5500
569,-1.179341,11.3006,160.5550
570,-1.174188,11.3006,160.5600
571,-1.167973,11.3056,160.5650
572,-1.164999,11.3056,160.5700
573,-1.162072,11.3106,160.5750
574,-1.163657,11.3106,160.5800
575,-1.163283,11.3156,160.5850
576,-1.166963,11.3156,160.5900
577,-1.165845,11.3206,160.5950
578,-1.170063,11.3206,160.6000
579,-1.170498,11.3256,160.6050
580,-1.174515,11.3256,160.6100
581,-1.174005,11.3312,160.6150
582,-1.177386,11.3312,160.6200
583,-1.177905,11.3362,160.6250
584,-1.183100,11.3362,160.6300
585,-1.182371,11.3412,160.6350
586,-1.185574,11.3412,160.6400
587,-1.184719,11.3456,160.6450
588,-1.187337,11.3455,160.6500
589,-1.183951,11.3506,160.6550
590,-1.181412,11.3506,160.6600
591,-1.177910,11.3556,160.6650
592,-1.178546,11.3556,160.6700
593,-1.175717,11.3606,160.6750
594,-1.176825,11.3606,160.6800
595,-1.174538,11.3656,160.6850
596,-1.176227,11.3656,160.6900
597,-1.173187,11.3706,160.6950
598,-1.172925,11.3706,160.7000
599,-1.171041,11.3756,160.7050
600,-1.172658,11.3756,160.7100
601,-1.169773,11.3812,160.7150
602,-1.172364,11.3812,160.7200
603,-1.171681,11.3862,160.7250
604,-1.176180,11.3862,160.7300
605,-1.176157,11.3906,160.7350
606,-1.180926,11.3906,160.7400
607,-1.180889,11.3956,160.7450
608,-1.184022,11.3956,160.7500
609,-1.181473,11.4006,160.7550
610,-1.183287,11.4006,160.7600
611,-1.181066,11.4056,160.7650
612,-1.179743,11.4056,160.7700
613,-1.174908,11.4106,160.7750
614,-1.174272,11.4106,160.7800
615,-1.171929,11.4156,160.7850
616,-1.173552,11.4156,160.7900
617,-1.169839,11.4206,160.7950
618,-1.167762,11.4206,160.8000
619,-1.162633,11.4262,160.8050
620,-1.160089,11.4262,160.8100
621,-1.153683,11.4306,160.8150
622,-1.151331,11.4306,160.8200
623,-1.148207,11.4356,160.8250
624,-1.151167,11.4356,160.8300
625,-1.147978,11.4406,160.8350
626,-1.149549,11.4406,160.8400
627,-1.147426,11.4456,160.8450
628,-1.150709,11.4456,160.8500
629,-1.149138,11.4506,160.8550
630,-1.152860,11.4506,160.8600
631,-1.152149,11.4556,160.8650
632,-1.153514,11.4556,160.8700
633,-1.146257,11.4606,160.8750
634,-1.142048,11.4606,160.8800
635,-1.136619,11.4656,160.8850
636,-1.137456,11.4656,160.8900
637,-1.132920,11.4712,160.8950
638,-1.129675,11.4712,160.9000
639,-1.123292,11.4756,160.9050
640,-1.122890,11.4756,160.9100
641,-1.117872,11.4806,160.9150
642,-1.119275,11.4806,160.9200
643,-1.116409,11.4856,160.9250
644,-1.120426,11.4856,160.9300
645,-1.118130,11.4906,160.9350
646,-1.122090,11.4906,160.9400
647,-1.121207,11.4956,160.9450
648,-1.126897,11.4956,160.9500
649,-1.124952,11.5006,160.9550
650,-1.129292,11.5006,160.9600
651,-1.127482,11.5056,160.9650
652,-1.132037,11.5056,160.9700
653,-1.129867,11.5106,160.9750
654,-1.133510,11.5106,160.9800
655,-1.132280,11.5162,160.9850
656,-1.136965,11.5162,160.9900
657,-1.132495,11.5212,160.9950
658,-1.130044,11.5212,161.0000
659,-1.123844,11.5256,161.0050
