Point No.,Normal Force [N],Gap [mm],Time [s]
1,6.444746,9.9082,1526.1771
2,6.445944,9.9082,1526.1821
3,6.446294,9.9082,1526.1870
4,6.445055,9.9082,1526.1920
5,6.444135,9.9082,1526.1970
6,6.443283,9.9082,1526.2020
7,6.442162,9.9082,1526.2070
8,6.439131,9.9094,1526.2120
9,6.433131,9.9094,1526.2160
10,6.424368,9.9119,1526.2210
11,6.403442,9.9119,1526.2260
12,6.386304,9.9150,1526.2310
13,6.348498,9.9150,1526.2360
14,6.320876,9.9194,1526.2410
15,6.262965,9.9193,1526.2460
16,6.201456,9.9243,1526.2520
17,6.154141,9.9243,1526.2570
18,6.086355,9.9286,1526.2620
19,6.038593,9.9286,1526.2670
20,5.969035,9.9335,1526.2720
21,5.921614,9.9335,1526.2770
22,5.856414,9.9385,1526.2821
23,5.811905,9.9384,1526.2871
24,5.753557,9.9434,1526.2921
25,5.709932,9.9434,1526.2971
26,5.653070,9.9483,1526.3021
27,5.610302,9.9483,1526.3071
28,5.551864,9.9533,1526.3120
29,5.509862,9.9533,1526.3170
30,5.470601,9.9582,1526.3210
31,5.410961,9.9582,1526.3260
32,5.371705,9.9632,1526.3310
33,5.312715,9.9631,1526.3360
34,5.276068,9.9681,1526.3410
35,5.217756,9.9681,1526.3460
36,5.181814,9.9731,1526.3510
37,5.126659,9.9730,1526.3560
38,5.092780,9.9780,1526.3610
39,5.038378,9.9780,1526.3660
40,5.002670,9.9830,1526.3710
41,4.947889,9.9829,1526.3760
42,4.912008,9.9879,1526.3811
43,4.859200,9.9879,1526.3861
44,4.826439,9.9928,1526.3911
45,4.775993,9.9928,1526.3961
46,4.743942,9.9978,1526.4011
47,4.692398,9.9978,1526.4061
48,4.658953,10.0027,1526.4111
49,4.607889,10.0027,1526.4160
50,4.576237,10.0077,1526.4210
51,4.527215,10.0077,1526.4260
52,4.495315,10.0127,1526.4310
53,4.447628,10.0126,1526.4360
54,4.417344,10.0176,1526.4410
55,4.371663,10.0176,1526.4460
56,4.341085,10.0226,1526.4510
57,4.295094,10.0225,1526.4560
58,4.266056,10.0275,1526.4610
59,4.221459,10.0275,1526.4660
60,4.193510,10.0325,1526.4710
61,4.149800,10.0324,1526.4760
62,4.122077,10.0374,1526.4810
63,4.080454,10.0374,1526.4860
64,4.053701,10.0424,1526.4910
65,4.016030,10.0424,1526.4960
66,3.993168,10.0474,1526.5010
67,3.956526,10.0473,1526.5061
68,3.933070,10.0517,1526.5111
69,3.896283,10.0517,1526.5161
70,3.872949,10.0567,1526.5211
71,3.835441,10.0566,1526.5261
72,3.810222,10.0622,1526.5311
73,3.772565,10.0622,1526.5361
74,3.748090,10.0672,1526.5410
75,3.709282,10.0672,1526.5460
76,3.684227,10.0722,1526.5510
77,3.646486,10.0722,1526.5560
78,3.624218,10.0765,1526.5610
79,3.588791,10.0765,1526.5660
80,3.566023,10.0821,1526.5710
81,3.533056,10.0821,1526.5760
82,3.511802,10.0864,1526.5810
83,3.479084,10.0864,1526.5860
84,3.458186,10.0914,1526.5910
85,3.425317,10.0914,1526.5960
86,3.404312,10.0964,1526.6010
87,3.370494,10.0964,1526.6060
88,3.348609,10.1020,1526.6110
89,3.316194,10.1020,1526.6160
90,3.295455,10.1069,1526.6210
91,3.263259,10.1069,1526.6260
92,3.243404,10.1119,1526.6311
93,3.211597,10.1119,1526.6361
94,3.191195,10.1169,1526.6411
95,3.160216,10.1169,1526.6461
96,3.140958,10.1219,1526.6511
97,3.113524,10.1218,1526.6561
98,3.095881,10.1262,1526.6611
99,3.066893,10.1262,1526.6660
100,3.047847,10.1312,1526.6710
101,3.019916,10.1312,1526.6760
102,3.001866,10.1361,1526.6810
103,2.972743,10.1361,1526.6860
104,2.954225,10.1417,1526.6910
105,2.926631,10.1417,1526.6960
106,2.908483,10.1417,1526.7010
107,2.882067,10.1461,1526.7060
108,2.864625,10.1461,1526.7110
109,2.837564,10.1517,1526.7160
110,2.820154,10.1567,1526.7210
111,2.793112,10.1566,1526.7260
112,2.775890,10.1616,1526.7310
113,2.752495,10.1616,1526.7360
114,2.736325,10.1666,1526.7410
115,2.710053,10.1666,1526.7460
116,2.692761,10.1710,1526.7510
117,2.668240,10.1709,1526.7561
118,2.652467,10.1759,1526.7611
119,2.628048,10.1759,1526.7661
120,2.611073,10.1815,1526.7711
121,2.587188,10.1815,1526.7761
122,2.571073,10.1859,1526.7811
123,2.546435,10.1859,1526.7861
124,2.530474,10.1915,1526.7910
125,2.506968,10.1915,1526.7960
126,2.492009,10.1915,1526.8010
127,2.469381,10.1958,1526.8060
128,2.453514,10.1958,1526.8110
129,2.430755,10.2014,1526.8160
130,2.415478,10.2064,1526.8210
131,2.392509,10.2064,1526.8260
132,2.377756,10.2114,1526.8310
133,2.356432,10.2114,1526.8360
134,2.341258,10.2158,1526.8410
135,2.319476,10.2157,1526.8460
136,2.304330,10.2214,1526.8510
137,2.284616,10.2213,1526.8560
138,2.271223,10.2257,1526.8610
139,2.252210,10.2257,1526.8660
140,2.239612,10.2313,1526.8710
141,2.221333,10.2313,1526.8760
142,2.209918,10.2357,1526.8811
143,2.193168,10.2357,1526.8861
144,2.181436,10.2357,1526.8911
145,2.164045,10.2413,1526.8961
146,2.150671,10.2413,1526.9011
147,2.130788,10.2463,1526.9061
148,2.116685,10.2462,1526.9111
149,2.097283,10.2512,1526.9160
150,2.084363,10.2562,1526.9210
151,2.064185,10.2562,1526.9260
152,2.049839,10.2612,1526.9310
153,2.030928,10.2612,1526.9360
154,2.016993,10.2656,1526.9410
155,1.997199,10.2656,1526.9460
156,1.983002,10.2712,1526.9510
157,1.963489,10.2712,1526.9560
158,1.949820,10.2755,1526.9610
159,1.930236,10.2755,1526.9660
160,1.916811,10.2811,1526.9710
161,1.899168,10.2811,1526.9760
162,1.884536,10.2855,1526.9810
163,1.863840,10.2855,1526.9860
164,1.849507,10.2855,1526.9910
165,1.830924,10.2911,1526.9960
166,1.817353,10.2911,1527.0010
167,1.798747,10.2961,1527.0061
168,1.785149,10.2961,1527.0111
169,1.767683,10.3010,1527.0161
170,1.754150,10.3060,1527.0211
171,1.735286,10.3060,1527.0261
172,1.722586,10.3104,1527.0311
173,1.706014,10.3104,1527.0361
174,1.693496,10.3154,1527.0410
175,1.675689,10.3154,1527.0460
176,1.661244,10.3210,1527.0510
177,1.643114,10.3210,1527.0560
178,1.629563,10.3253,1527.0610
179,1.611676,10.3253,1527.0660
180,1.599266,10.3303,1527.0710
181,1.582918,10.3303,1527.0760
182,1.569965,10.3353,1527.0810
183,1.552462,10.3353,1527.0860
184,1.538766,10.3353,1527.0910
185,1.522909,10.3409,1527.0960
186,1.509871,10.3409,1527.1010
187,1.492317,10.3459,1527.1060
188,1.479341,10.3459,1527.1110
189,1.462586,10.3509,1527.1160
190,1.449970,10.3509,1527.1210
191,1.433000,10.3558,1527.1260
192,1.419827,10.3608,1527.1311
193,1.404414,10.3608,1527.1361
194,1.390531,10.3652,1527.1411
195,1.372429,10.3652,1527.1461
196,1.360070,10.3702,1527.1511
197,1.345443,10.3702,1527.1561
198,1.333552,10.3752,1527.1611
199,1.316783,10.3752,1527.1660
200,1.303339,10.3808,1527.1710
201,1.289362,10.3808,1527.1760
202,1.276909,10.3808,1527.1810
203,1.260627,10.3851,1527.1860
204,1.248118,10.3851,1527.1910
205,1.233682,10.3907,1527.1960
206,1.222670,10.3907,1527.2010
207,1.208197,10.3957,1527.2060
208,1.195675,10.3957,1527.2110
209,1.181782,10.4007,1527.2160
210,1.169048,10.4007,1527.2210
211,1.153879,10.4051,1527.2260
212,1.141885,10.4050,1527.2310
213,1.127650,10.4100,1527.2360
214,1.115993,10.4100,1527.2410
215,1.099771,10.4150,1527.2460
216,1.086561,10.4150,1527.2510
217,1.074010,10.4206,1527.2561
218,1.061838,10.4206,1527.2611
219,1.048024,10.4250,1527.2661
220,1.036488,10.4250,1527.2711
221,1.023199,10.4300,1527.2761
222,1.011629,10.4300,1527.2811
223,0.996268,10.4356,1527.2861
224,0.982815,10.4356,1527.2910
225,0.969970,10.4406,1527.2960
226,0.958055,10.4406,1527.3010
227,0.943068,10.4456,1527.3060
228,0.930550,10.4455,1527.3110
229,0.917017,10.4499,1527.3160
230,0.905948,10.4499,1527.3210
231,0.892855,10.4549,1527.3260
232,0.880949,10.4549,1527.3310
233,0.869960,10.4605,1527.3360
234,0.858695,10.4605,1527.3410
235,0.845756,10.4649,1527.3460
236,0.833846,10.4649,1527.3510
237,0.820524,10.4699,1527.3560
238,0.808885,10.4699,1527.3610
239,0.795731,10.4748,1527.3660
240,0.783928,10.4748,1527.3710
241,0.772284,10.4805,1527.3760
242,0.761202,10.4804,1527.3811
243,0.748726,10.4854,1527.3861
244,0.737199,10.4854,1527.3911
245,0.724255,10.4904,1527.3961
246,0.712411,10.4904,1527.4011
247,0.699177,10.4954,1527.4061
248,0.687080,10.4954,1527.4111
249,0.676647,10.5004,1527.4160
250,0.665943,10.5004,1527.4210
251,0.653388,10.5048,1527.4260
252,0.641754,10.5048,1527.4310
253,0.628913,10.5097,1527.4360
254,0.617522,10.5097,1527.4410
255,0.605668,10.5147,1527.4460
256,0.593954,10.5147,1527.4510
257,0.583559,10.5203,1527.4560
258,0.571125,10.5203,1527.4610
259,0.557152,10.5247,1527.4660
260,0.543587,10.5247,1527.4710
261,0.530007,10.5303,1527.4760
262,0.517101,10.5303,1527.4810
263,0.503783,10.5353,1527.4860
264,0.490722,10.5353,1527.4910
265,0.479532,10.5403,1527.4960
266,0.468469,10.5403,1527.5010
267,0.458139,10.5446,1527.5061
268,0.447622,10.5446,1527.5111
269,0.436778,10.5496,1527.5161
270,0.426953,10.5496,1527.5211
271,0.416694,10.5546,1527.5261
272,0.407108,10.5546,1527.5311
273,0.398083,10.5596,1527.5361
274,0.388221,10.5596,1527.5410
275,0.377615,10.5646,1527.5460
276,0.366757,10.5646,1527.5510
277,0.356086,10.5696,1527.5560
278,0.347435,10.5696,1527.5610
279,0.339242,10.5752,1527.5660
280,0.330671,10.5752,1527.5710
281,0.324728,10.5802,1527.5760
282,0.316451,10.5802,1527.5810
283,0.308249,10.5846,1527.5860
284,0.298976,10.5846,1527.5910
285,0.290648,10.5895,1527.5960
286,0.281319,10.5895,1527.6010
287,0.272008,10.5945,1527.6060
288,0.262165,10.5945,1527.6110
289,0.254973,10.5995,1527.6160
290,0.245616,10.5995,1527.6210
291,0.236830,10.6045,1527.6260
292,0.227061,10.6045,1527.6311
293,0.218457,10.6095,1527.6361
294,0.209062,10.6095,1527.6411
295,0.199032,10.6145,1527.6461
296,0.188749,10.6145,1527.6511
297,0.181595,10.6201,1527.6561
298,0.172065,10.6201,1527.6611
299,0.162726,10.6251,1527.6660
300,0.153453,10.6251,1527.6710
301,0.145756,10.6295,1527.6760
302,0.136923,10.6295,1527.6810
303,0.128571,10.6345,1527.6860
304,0.118564,10.6344,1527.6910
305,0.111199,10.6394,1527.6960
306,0.101351,10.6394,1527.7010
307,0.093014,10.6444,1527.7060
308,0.083881,10.6444,1527.7110
309,0.076914,10.6494,1527.7160
310,0.067856,10.6494,1527.7210
311,0.060061,10.6544,1527.7260
312,0.049862,10.6544,1527.7310
313,0.042675,10.6594,1527.7360
314,0.033711,10.6594,1527.7410
315,0.026996,10.6644,1527.7460
316,0.018101,10.6644,1527.7510
317,0.011139,10.6700,1527.7561
318,0.001866,10.6700,1527.7611
319,-0.006626,10.6744,1527.7661
320,-0.016119,10.6744,1527.7711
321,-0.022366,10.6794,1527.7761
322,-0.031312,10.6794,1527.7811
323,-0.039186,10.6844,1527.7861
324,-0.049067,10.6843,1527.7910
325,-0.056801,10.6893,1527.7960
326,-0.065251,10.6893,1527.8010
327,-0.071616,10.6943,1527.8060
328,-0.080136,10.6943,1527.8110
329,-0.085401,10.6993,1527.8160
330,-0.094015,10.6993,1527.8210
331,-0.101515,10.7043,1527.8260
332,-0.110783,10.7043,1527.8310
333,-0.117255,10.7093,1527.8360
334,-0.125452,10.7093,1527.8410
335,-0.132780,10.7149,1527.8460
336,-0.142137,10.7149,1527.8510
337,-0.148094,10.7199,1527.8560
338,-0.157405,10.7199,1527.8610
339,-0.163652,10.7243,1527.8660
340,-0.172635,10.7243,1527.8710
341,-0.179009,10.7293,1527.8760
342,-0.188085,10.7293,1527.8811
343,-0.194903,10.7343,1527.8861
344,-0.203685,10.7343,1527.8911
345,-0.208534,10.7393,1527.8961
346,-0.216942,10.7392,1527.9011
347,-0.223044,10.7442,1527.9061
348,-0.232686,10.7442,1527.9111
349,-0.239303,10.7492,1527.9160
350,-0.248169,10.7492,1527.9210
351,-0.254842,10.7542,1527.9260
352,-0.263587,10.7542,1527.9310
353,-0.267819,10.7598,1527.9360
354,-0.276474,10.7598,1527.9410
355,-0.282946,10.7642,1527.9460
356,-0.291747,10.7642,1527.9510
357,-0.297012,10.7692,1527.9560
358,-0.305350,10.7692,1527.9610
359,-0.311662,10.7742,1527.9660
360,-0.320388,10.7742,1527.9710
361,-0.324124,10.7792,1527.9760
362,-0.332467,10.7792,1527.9810
363,-0.337891,10.7842,1527.9860
364,-0.345929,10.7842,1527.9910
365,-0.350788,10.7892,1527.9960
366,-0.359603,10.7892,1528.0010
367,-0.366327,10.7942,1528.0061
368,-0.375226,10.7942,1528.0111
369,-0.378588,10.7992,1528.0161
370,-0.385971,10.7991,1528.0211
371,-0.390395,10.8041,1528.0261
372,-0.398868,10.8041,1528.0311
373,-0.404232,10.8091,1528.0361
374,-0.412499,10.8091,1528.0410
375,-0.417929,10.8141,1528.0460
376,-0.426205,10.8141,1528.0510
377,-0.430320,10.8191,1528.0560
378,-0.438274,10.8191,1528.0610
379,-0.443021,10.8241,1528.0660
380,-0.450910,10.8241,1528.0710
381,-0.454739,10.8291,1528.0760
382,-0.462160,10.8291,1528.0810
383,-0.466299,10.8341,1528.0860
384,-0.474281,10.8341,1528.0910
385,-0.478289,10.8391,1528.0960
386,-0.486930,10.8391,1528.1010
387,-0.492443,10.8441,1528.1060
388,-0.500846,10.8441,1528.1110
389,-0.504601,10.8491,1528.1160
390,-0.511868,10.8491,1528.1210
391,-0.516572,10.8541,1528.1260
392,-0.525345,10.8541,1528.1311
393,-0.529067,10.8591,1528.1361
394,-0.536395,10.8591,1528.1411
395,-0.539906,10.8641,1528.1461
396,-0.547814,10.8641,1528.1511
397,-0.552233,10.8691,1528.1561
398,-0.560383,10.8690,1528.1611
399,-0.564840,10.8734,1528.1660
400,-0.572771,10.8734,1528.1710
401,-0.575960,10.8790,1528.1760
402,-0.583498,10.8790,1528.1810
403,-0.586696,10.8834,1528.1860
404,-0.594220,10.8834,1528.1910
405,-0.597236,10.8884,1528.1960
406,-0.604251,10.8884,1528.2010
407,-0.608936,10.8934,1528.2060
408,-0.617162,10.8934,1528.2110
409,-0.620627,10.8990,1528.2160
410,-0.628473,10.8990,1528.2210
411,-0.632766,10.9040,1528.2260
412,-0.640790,10.9040,1528.2310
413,-0.643652,10.9090,1528.2360
414,-0.650049,10.9090,1528.2410
415,-0.652864,10.9134,1528.2460
416,-0.661987,10.9190,1528.2520
417,-0.663301,10.9190,1528.2570
418,-0.672462,10.9240,1528.2620
419,-0.675034,10.9240,1528.2670
420,-0.684583,10.9283,1528.2720
421,-0.686294,10.9283,1528.2770
422,-0.695198,10.9333,1528.2821
423,-0.697531,10.9333,1528.2871
424,-0.706766,10.9390,1528.2921
425,-0.707739,10.9390,1528.2971
426,-0.715567,10.9433,1528.3021
427,-0.717372,10.9433,1528.3071
428,-0.726505,10.9489,1528.3120
429,-0.728010,10.9489,1528.3170
430,-0.736853,10.9539,1528.3220
431,-0.739603,10.9539,1528.3270
432,-0.749273,10.9589,1528.3320
433,-0.749600,10.9589,1528.3370
434,-0.757232,10.9633,1528.3420
435,-0.758822,10.9633,1528.3470
436,-0.767870,10.9683,1528.3520
437,-0.769380,10.9683,1528.3570
438,-0.777335,10.9733,1528.3620
439,-0.778480,10.9733,1528.3670
440,-0.786986,10.9783,1528.3720
441,-0.787108,10.9783,1528.3770
442,-0.794739,10.9833,1528.3820
443,-0.796287,10.9833,1528.3870
444,-0.804424,10.9883,1528.3920
445,-0.805429,10.9883,1528.3970
446,-0.812513,10.9933,1528.4020
447,-0.814248,10.9933,1528.4071
448,-0.824209,10.9989,1528.4121
449,-0.824859,10.9989,1528.4171
450,-0.832869,11.0033,1528.4221
451,-0.834141,11.0033,1528.4271
452,-0.841202,11.0083,1528.4321
453,-0.840833,11.0083,1528.4370
454,-0.846837,11.0133,1528.4420
455,-0.847758,11.0133,1528.4470
456,-0.856343,11.0182,1528.4520
457,-0.856007,11.0182,1528.4570
458,-0.862184,11.0232,1528.4620
459,-0.861843,11.0232,1528.4670
460,-0.868838,11.0282,1528.4720
461,-0.868539,11.0282,1528.4770
462,-0.875020,11.0332,1528.4820
463,-0.875805,11.0332,1528.4870
464,-0.883549,11.0382,1528.4920
465,-0.882913,11.0382,1528.4970
466,-0.890358,11.0438,1528.5020
467,-0.891260,11.0438,1528.5070
468,-0.899734,11.0482,1528.5120
469,-0.899888,11.0482,1528.5170
470,-0.905855,11.0532,1528.5220
471,-0.905251,11.0532,1528.5270
472,-0.910433,11.0582,1528.5321
473,-0.907753,11.0582,1528.5371
474,-0.913584,11.0632,1528.5421
475,-0.914019,11.0632,1528.5471
476,-0.921464,11.0682,1528.5521
477,-0.921127,11.0682,1528.5571
478,-0.928988,11.0732,1528.5620
479,-0.930344,11.0732,1528.5670
480,-0.939462,11.0782,1528.5720
481,-0.938934,11.0782,1528.5770
482,-0.944980,11.0832,1528.5820
483,-0.944251,11.0832,1528.5870
484,-0.951583,11.0888,1528.5920
485,-0.951667,11.0888,1528.5970
486,-0.959565,11.0932,1528.6020
487,-0.961141,11.0932,1528.6070
488,-0.969577,11.0988,1528.6120
489,-0.967795,11.0988,1528.6170
490,-0.972355,11.1032,1528.6220
491,-0.971382,11.1032,1528.6270
492,-0.978003,11.1082,1528.6320
493,-0.976512,11.1082,1528.6370
494,-0.980299,11.1132,1528.6420
495,-0.978784,11.1132,1528.6470
496,-0.985826,11.1182,1528.6520
497,-0.984115,11.1182,1528.6571
498,-0.989483,11.1232,1528.6621
499,-0.989109,11.1232,1528.6671
500,-0.997255,11.1282,1528.6721
501,-0.997358,11.1282,1528.6771
502,-1.004723,11.1338,1528.6821
503,-1.005219,11.1338,1528.6870
504,-1.013402,11.1388,1528.6920
505,-1.012579,11.1388,1528.6970
506,-1.019547,11.1431,1528.7020
507,-1.019215,11.1431,1528.7070
508,-1.026266,11.1481,1528.7120
509,-1.025420,11.1481,1528.7170
510,-1.032247,11.1531,1528.7220
511,-1.032588,11.1531,1528.7270
512,-1.040323,11.1581,1528.7320
513,-1.038457,11.1581,1528.7370
514,-1.043811,11.1631,1528.7420
515,-1.042581,11.1631,1528.7470
516,-1.048436,11.1681,1528.7520
517,-1.045625,11.1681,1528.7570
518,-1.048590,11.1731,1528.7620
519,-1.046046,11.1731,1528.7670
520,-1.051064,11.1731,1528.7720
521,-1.049062,11.1781,1528.7770
522,-1.054805,11.1838,1528.7821
523,-1.054323,11.1838,1528.7871
524,-1.061744,11.1887,1528.7921
525,-1.060842,11.1887,1528.7971
526,-1.067603,11.1931,1528.8021
527,-1.067730,11.1931,1528.8071
528,-1.076105,11.1981,1528.8120
529,-1.074973,11.1981,1528.8170
530,-1.081221,11.2031,1528.8220
531,-1.080814,11.2031,1528.8270
532,-1.088904,11.2081,1528.8320
533,-1.088282,11.2081,1528.8370
534,-1.095076,11.2131,1528.8420
535,-1.094683,11.2131,1528.8470
536,-1.102628,11.2187,1528.8520
537,-1.101623,11.2187,1528.8570
538,-1.108090,11.2187,1528.8620
539,-1.107178,11.2231,1528.8670
540,-1.113351,11.2231,1528.8720
541,-1.112238,11.2287,1528.8770
542,-1.118186,11.2337,1528.8820
543,-1.115726,11.2337,1528.8870
544,-1.117559,11.2387,1528.8920
545,-1.112261,11.2387,1528.8970
546,-1.113692,11.2431,1528.9020
547,-1.111120,11.2431,1528.9071
548,-1.116203,11.2481,1528.9121
549,-1.114590,11.2481,1528.9171
550,-1.120304,11.2531,1528.9221
551,-1.120440,11.2531,1528.9271
552,-1.127800,11.2587,1528.9321
553,-1.125939,11.2587,1528.9370
554,-1.131433,11.2631,1528.9420
555,-1.130278,11.2631,1528.9470
556,-1.136409,11.2631,1528.9520
557,-1.135441,11.2681,1528.9570
558,-1.141599,11.2681,1528.9620
559,-1.141838,11.2737,1528.9670
560,-1.148796,11.2737,1528.9720
561,-1.147388,11.2787,1528.9770
562,-1.151078,11.2831,1528.9820
563,-1.149147,11.2831,1528.9870
564,-1.154697,11.2881,1528.9920
565,-1.154267,11.2881,1528.9970
566,-1.159556,11.2931,1529.0020
567,-1.159359,11.2931,1529.0070
568,-1.164713,11.2987,1529.0120
569,-1.162932,11.2987,1529.0170
570,-1.165808,11.3031,1529.0220
571,-1.163376,11.3031,1529.0270
572,-1.166201,11.3081,1529.0321
573,-1.164237,11.3081,1529.0371
574,-1.167748,11.3081,1529.0421
575,-1.166163,11.3131,1529.0471
576,-1.168426,11.3131,1529.0521
577,-1.163788,11.3187,1529.0571
578,-1.163283,11.3187,1529.0620
579,-1.159846,11.3237,1529.0670
580,-1.162955,11.3237,1529.0720
581,-1.161132,11.3287,1529.0770
582,-1.165471,11.3331,1529.0820
583,-1.165373,11.3331,1529.0870
584,-1.170395,11.3387,1529.0920
585,-1.169016,11.3387,1529.0970
586,-1.173388,11.3431,1529.1020
587,-1.172631,11.3431,1529.1070
588,-1.177526,11.3481,1529.1120
589,-1.176474,11.3481,1529.1170
590,-1.181141,11.3531,1529.1220
591,-1.180912,11.3531,1529.1270
592,-1.184784,11.3587,1529.1320
593,-1.180697,11.3587,1529.1370
594,-1.180075,11.3587,1529.1420
595,-1.176951,11.3631,1529.1470
596,-1.180426,11.3631,1529.1520
597,-1.179593,11.3687,1529.1571
598,-1.184583,11.3687,1529.1621
599,-1.184494,11.3731,1529.1671
600,-1.189507,11.3787,1529.1721
601,-1.187837,11.3787,1529.1771
602,-1.191644,11.3830,1529.1821
603,-1.190694,11.3830,1529.1870
604,-1.196137,11.3880,1529.1920
605,-1.196086,11.3880,1529.1970
606,-1.200486,11.3930,1529.2020
607,-1.198817,11.3930,1529.2070
608,-1.197727,11.3987,1529.2120
609,-1.192481,11.3987,1529.2170
610,-1.192687,11.4030,1529.2220
611,-1.190662,11.4030,1529.2270
612,-1.195212,11.4030,1529.2320
613,-1.194286,11.4080,1529.2370
614,-1.197601,11.4080,1529.2420
615,-1.196423,11.4137,1529.2470
616,-1.200323,11.4137,1529.2520
617,-1.198181,11.4187,1529.2570
618,-1.200921,11.4187,1529.2620
619,-1.199387,11.4230,1529.2670
620,-1.203938,11.4280,1529.2720
621,-1.202240,11.4280,1529.2770
622,-1.202006,11.4330,1529.2821
623,-1.197143,11.4330,1529.2871
624,-1.196610,11.4387,1529.2921
625,-1.192892,11.4387,1529.2971
626,-1.194136,11.4430,1529.3021
627,-1.191990,11.4430,1529.3071
628,-1.196661,11.4480,1529.3120
629,-1.195763,11.4480,1529.3170
630,-1.199818,11.4480,1529.3220
631,-1.198873,11.4530,1529.3270
632,-1.202820,11.4530,1529.3320
633,-1.201305,11.4587,1529.3370
634,-1.204924,11.4587,1529.3420
635,-1.204503,11.4630,1529.3470
636,-1.210012,11.4630,1529.3520
637,-1.209081,11.4680,1529.3570
638,-1.213009,11.4680,1529.3620
