Point No.,Normal Force [N],Gap [mm],Time [s]
1,6.478481,9.9063,3842.0292
2,6.478728,9.9063,3842.0341
3,6.479145,9.9063,3842.0390
4,6.480100,9.9063,3842.0441
5,6.480202,9.9063,3842.0490
6,6.478831,9.9063,3842.0541
7,6.477854,9.9063,3842.0590
8,6.475750,9.9069,3842.0642
9,6.472682,9.9069,3842.0681
10,6.466141,9.9088,3842.0732
11,6.443887,9.9088,3842.0781
12,6.423428,9.9119,3842.0832
13,6.385098,9.9119,3842.0881
14,6.351967,9.9162,3842.0932
15,6.299251,9.9162,3842.0981
16,6.229643,9.9218,3842.1042
17,6.185915,9.9218,3842.1091
18,6.109966,9.9267,3842.1142
19,6.065163,9.9267,3842.1191
20,5.993309,9.9317,3842.1242
21,5.949990,9.9316,3842.1291
22,5.880150,9.9360,3842.1342
23,5.839275,9.9359,3842.1391
24,5.773131,9.9415,3842.1442
25,5.735213,9.9415,3842.1491
26,5.671087,9.9465,3842.1542
27,5.633734,9.9464,3842.1591
28,5.570704,9.9514,3842.1640
29,5.532813,9.9514,3842.1691
30,5.490466,9.9557,3842.1730
31,5.432715,9.9557,3842.1782
32,5.391462,9.9613,3842.1831
33,5.335464,9.9613,3842.1882
34,5.293935,9.9662,3842.1931
35,5.239056,9.9662,3842.1982
36,5.198247,9.9712,3842.2031
37,5.144274,9.9712,3842.2082
38,5.105682,9.9755,3842.2131
39,5.056222,9.9755,3842.2182
40,5.018280,9.9811,3842.2231
41,4.965556,9.9811,3842.2282
42,4.926462,9.9860,3842.2331
43,4.875291,9.9860,3842.2382
44,4.838720,9.9910,3842.2431
45,4.790899,9.9910,3842.2482
46,4.754852,9.9959,3842.2531
47,4.707362,9.9959,3842.2583
48,4.670718,10.0009,3842.2631
49,4.623264,10.0009,3842.2680
50,4.587259,10.0058,3842.2731
51,4.541678,10.0058,3842.2780
52,4.507650,10.0108,3842.2832
53,4.463292,10.0108,3842.2880
54,4.429306,10.0151,3842.2932
55,4.384723,10.0151,3842.2980
56,4.351452,10.0207,3842.3032
57,4.308253,10.0207,3842.3081
58,4.275698,10.0256,3842.3132
59,4.233683,10.0256,3842.3181
60,4.201319,10.0306,3842.3232
61,4.160093,10.0306,3842.3281
62,4.128745,10.0356,3842.3332
63,4.089194,10.0355,3842.3381
64,4.061080,10.0405,3842.3432
65,4.025522,10.0405,3842.3481
66,3.999145,10.0455,3842.3532
67,3.966061,10.0455,3842.3581
68,3.939486,10.0504,3842.3632
69,3.904980,10.0504,3842.3681
70,3.877569,10.0548,3842.3732
71,3.843572,10.0548,3842.3781
72,3.817620,10.0604,3842.3833
73,3.783273,10.0604,3842.3881
74,3.755759,10.0653,3842.3930
75,3.719047,10.0653,3842.3981
76,3.691064,10.0703,3842.4030
77,3.657368,10.0703,3842.4082
78,3.631443,10.0746,3842.4130
79,3.599603,10.0746,3842.4182
80,3.573781,10.0802,3842.4230
81,3.542142,10.0802,3842.4282
82,3.517148,10.0852,3842.4331
83,3.485893,10.0852,3842.4382
84,3.461193,10.0902,3842.4431
85,3.431134,10.0901,3842.4482
86,3.406543,10.0945,3842.4531
87,3.375707,10.0945,3842.4582
88,3.350747,10.1001,3842.4631
89,3.320495,10.1001,3842.4682
90,3.296681,10.1051,3842.4731
91,3.268005,10.1051,3842.4782
92,3.244293,10.1100,3842.4831
93,3.215931,10.1100,3842.4882
94,3.192602,10.1144,3842.4931
95,3.164667,10.1144,3842.4982
96,3.142310,10.1200,3842.5031
97,3.114782,10.1200,3842.5083
98,3.093683,10.1249,3842.5131
99,3.067823,10.1249,3842.5180
100,3.046149,10.1299,3842.5231
101,3.020594,10.1299,3842.5280
102,3.000010,10.1343,3842.5332
103,2.975516,10.1343,3842.5380
104,2.954099,10.1399,3842.5432
105,2.927670,10.1399,3842.5480
106,2.906627,10.1448,3842.5532
107,2.882366,10.1448,3842.5581
108,2.862441,10.1498,3842.5632
109,2.839285,10.1498,3842.5681
110,2.819710,10.1542,3842.5732
111,2.795478,10.1541,3842.5781
112,2.775239,10.1598,3842.5832
113,2.751709,10.1597,3842.5881
114,2.732275,10.1647,3842.5932
115,2.708656,10.1647,3842.5981
116,2.688272,10.1697,3842.6032
117,2.665359,10.1697,3842.6081
118,2.646430,10.1747,3842.6132
119,2.624064,10.1747,3842.6181
120,2.605733,10.1797,3842.6232
121,2.584227,10.1797,3842.6281
122,2.566566,10.1846,3842.6333
123,2.545944,10.1846,3842.6381
124,2.527524,10.1896,3842.6430
125,2.506935,10.1896,3842.6481
126,2.489413,10.1940,3842.6530
127,2.467977,10.1940,3842.6582
128,2.450362,10.1996,3842.6630
129,2.430101,10.1996,3842.6682
130,2.412650,10.2046,3842.6730
131,2.390985,10.2045,3842.6782
132,2.373271,10.2095,3842.6831
133,2.353987,10.2095,3842.6882
134,2.337681,10.2145,3842.6931
135,2.318204,10.2145,3842.6982
136,2.302263,10.2195,3842.7031
137,2.282586,10.2195,3842.7082
138,2.267870,10.2245,3842.7131
139,2.250933,10.2245,3842.7182
140,2.236965,10.2294,3842.7231
141,2.221426,10.2294,3842.7282
142,2.207987,10.2338,3842.7331
143,2.192425,10.2338,3842.7382
144,2.178948,10.2394,3842.7431
145,2.163232,10.2394,3842.7482
146,2.148786,10.2444,3842.7531
147,2.131747,10.2444,3842.7583
148,2.115740,10.2494,3842.7631
149,2.098673,10.2494,3842.7680
150,2.083278,10.2537,3842.7731
151,2.064181,10.2537,3842.7780
152,2.047393,10.2593,3842.7832
153,2.027898,10.2593,3842.7880
154,2.013089,10.2643,3842.7932
155,1.995502,10.2643,3842.7980
156,1.979658,10.2693,3842.8032
157,1.962179,10.2693,3842.8081
158,1.947370,10.2743,3842.8132
159,1.929526,10.2743,3842.8181
160,1.913439,10.2793,3842.8232
161,1.895993,10.2792,3842.8281
162,1.881655,10.2842,3842.8332
163,1.863956,10.2842,3842.8381
164,1.848441,10.2892,3842.8432
165,1.832163,10.2892,3842.8481
166,1.818691,10.2942,3842.8532
167,1.801600,10.2942,3842.8581
168,1.785331,10.2992,3842.8632
169,1.766350,10.2992,3842.8681
170,1.751980,10.3042,3842.8732
171,1.736171,10.3041,3842.8781
172,1.722006,10.3091,3842.8833
173,1.705228,10.3091,3842.8881
174,1.691078,10.3141,3842.8930
175,1.674987,10.3141,3842.8981
176,1.661492,10.3191,3842.9030
177,1.645411,10.3191,3842.9082
178,1.632013,10.3241,3842.9130
179,1.615750,10.3241,3842.9182
180,1.601150,10.3291,3842.9230
181,1.584139,10.3291,3842.9282
182,1.570133,10.3334,3842.9331
183,1.552458,10.3334,3842.9382
184,1.537746,10.3390,3842.9431
185,1.521104,10.3390,3842.9482
186,1.508356,10.3440,3842.9531
187,1.492640,10.3440,3842.9582
188,1.478639,10.3490,3842.9631
189,1.462778,10.3490,3842.9682
190,1.449839,10.3540,3842.9731
191,1.434478,10.3540,3842.9782
192,1.420463,10.3590,3842.9831
193,1.403311,10.3590,3842.9882
194,1.389474,10.3639,3842.9931
195,1.372981,10.3639,3842.9982
196,1.359102,10.3689,3843.0031
197,1.343386,10.3689,3843.0083
198,1.330980,10.3739,3843.0131
199,1.315810,10.3739,3843.0180
200,1.302815,10.3789,3843.0231
201,1.287257,10.3789,3843.0280
202,1.275535,10.3839,3843.0332
203,1.261043,10.3839,3843.0380
204,1.248272,10.3889,3843.0432
205,1.233687,10.3889,3843.0480
206,1.221637,10.3932,3843.0532
207,1.207561,10.3932,3843.0581
208,1.195427,10.3988,3843.0632
209,1.180542,10.3988,3843.0681
210,1.168309,10.4038,3843.0732
211,1.153154,10.4038,3843.0781
212,1.140612,10.4088,3843.0832
213,1.126491,10.4088,3843.0881
214,1.114833,10.4138,3843.0932
215,1.099790,10.4138,3843.0981
216,1.087730,10.4188,3843.1032
217,1.072247,10.4188,3843.1081
218,1.060585,10.4238,3843.1132
219,1.045794,10.4237,3843.1181
220,1.033519,10.4287,3843.1232
221,1.020276,10.4287,3843.1281
222,1.009479,10.4337,3843.1333
223,0.995361,10.4337,3843.1381
224,0.982937,10.4387,3843.1430
225,0.967435,10.4387,3843.1481
226,0.956413,10.4437,3843.1530
227,0.943283,10.4437,3843.1582
228,0.932055,10.4487,3843.1630
229,0.918363,10.4487,3843.1682
230,0.906949,10.4537,3843.1730
231,0.892953,10.4537,3843.1782
232,0.881782,10.4586,3843.1831
233,0.868071,10.4586,3843.1882
234,0.858261,10.4636,3843.1931
235,0.845111,10.4636,3843.1982
236,0.834393,10.4686,3843.2031
237,0.820524,10.4686,3843.2082
238,0.809535,10.4736,3843.2131
239,0.795712,10.4736,3843.2182
240,0.784709,10.4786,3843.2231
241,0.770966,10.4786,3843.2282
242,0.761553,10.4836,3843.2331
243,0.748646,10.4836,3843.2382
244,0.737302,10.4886,3843.2431
245,0.723386,10.4886,3843.2482
246,0.713121,10.4935,3843.2531
247,0.699523,10.4935,3843.2583
248,0.688796,10.4992,3843.2631
249,0.675950,10.4991,3843.2680
250,0.667407,10.5035,3843.2731
251,0.653739,10.5035,3843.2780
252,0.642333,10.5085,3843.2832
253,0.628342,10.5085,3843.2880
254,0.618471,10.5135,3843.2932
255,0.605906,10.5135,3843.2980
256,0.596095,10.5185,3843.3032
257,0.582867,10.5185,3843.3081
258,0.572219,10.5235,3843.3132
259,0.555993,10.5235,3843.3181
260,0.544012,10.5284,3843.3232
261,0.529871,10.5284,3843.3281
262,0.520122,10.5328,3843.3332
263,0.506060,10.5328,3843.3381
264,0.495034,10.5384,3843.3432
265,0.479168,10.5384,3843.3481
266,0.469820,10.5434,3843.3532
267,0.457676,10.5434,3843.3581
268,0.449563,10.5484,3843.3632
269,0.437699,10.5484,3843.3681
270,0.429072,10.5534,3843.3732
271,0.416722,10.5534,3843.3781
272,0.407903,10.5584,3843.3833
273,0.396624,10.5584,3843.3881
274,0.389535,10.5634,3843.3930
275,0.378794,10.5633,3843.3981
276,0.368978,10.5683,3843.4030
277,0.355754,10.5683,3843.4082
278,0.348375,10.5727,3843.4130
279,0.339518,10.5727,3843.4182
280,0.332677,10.5783,3843.4230
281,0.323400,10.5783,3843.4282
282,0.317035,10.5833,3843.4331
283,0.306509,10.5833,3843.4382
284,0.297910,10.5883,3843.4431
285,0.287660,10.5883,3843.4482
286,0.281160,10.5933,3843.4531
287,0.271705,10.5933,3843.4582
288,0.264368,10.5983,3843.4631
289,0.252864,10.5983,3843.4682
290,0.245906,10.6033,3843.4731
291,0.234463,10.6033,3843.4782
292,0.226046,10.6083,3843.4831
293,0.215146,10.6083,3843.4882
294,0.208688,10.6126,3843.4931
295,0.198284,10.6126,3843.4982
296,0.190512,10.6182,3843.5031
297,0.179252,10.6182,3843.5083
298,0.172920,10.6232,3843.5131
299,0.161697,10.6232,3843.5180
300,0.153706,10.6282,3843.5231
301,0.143297,10.6282,3843.5280
302,0.136605,10.6326,3843.5332
303,0.126631,10.6326,3843.5380
304,0.119761,10.6382,3843.5432
305,0.108361,10.6382,3843.5480
306,0.101913,10.6432,3843.5532
307,0.090807,10.6432,3843.5581
308,0.083998,10.6482,3843.5632
309,0.073832,10.6482,3843.5681
310,0.067561,10.6525,3843.5732
311,0.057274,10.6525,3843.5781
312,0.050175,10.6582,3843.5832
313,0.039308,10.6581,3843.5881
314,0.034426,10.6631,3843.5932
315,0.025064,10.6631,3843.5981
316,0.018003,10.6681,3843.6032
317,0.007669,10.6681,3843.6081
318,0.001641,10.6725,3843.6132
319,-0.008913,10.6725,3843.6181
320,-0.015843,10.6781,3843.6232
321,-0.026107,10.6781,3843.6281
322,-0.031382,10.6831,3843.6333
323,-0.040903,10.6831,3843.6381
324,-0.047533,10.6881,3843.6430
325,-0.058003,10.6881,3843.6481
326,-0.063685,10.6925,3843.6530
327,-0.073351,10.6925,3843.6582
328,-0.078995,10.6981,3843.6630
329,-0.088459,10.6981,3843.6682
330,-0.092513,10.7031,3843.6730
331,-0.102058,10.7031,3843.6782
332,-0.108936,10.7081,3843.6831
333,-0.119617,10.7081,3843.6882
334,-0.125237,10.7124,3843.6931
335,-0.135712,10.7124,3843.6982
336,-0.141754,10.7180,3843.7031
337,-0.152434,10.7180,3843.7082
338,-0.156610,10.7224,3843.7131
339,-0.165551,10.7224,3843.7182
340,-0.171279,10.7274,3843.7231
341,-0.181066,10.7274,3843.7282
342,-0.186051,10.7324,3843.7331
343,-0.196563,10.7324,3843.7382
344,-0.202904,10.7380,3843.7431
345,-0.213173,10.7380,3843.7482
346,-0.216900,10.7430,3843.7531
347,-0.225784,10.7430,3843.7583
348,-0.231185,10.7474,3843.7631
349,-0.241071,10.7474,3843.7680
350,-0.246163,10.7524,3843.7731
351,-0.255684,10.7523,3843.7780
352,-0.260744,10.7580,3843.7832
353,-0.270101,10.7580,3843.7880
354,-0.273762,10.7623,3843.7932
355,-0.283110,10.7623,3843.7980
356,-0.289011,10.7673,3843.8032
357,-0.298990,10.7673,3843.8081
358,-0.303559,10.7723,3843.8132
359,-0.312939,10.7723,3843.8181
360,-0.317989,10.7779,3843.8232
361,-0.327459,10.7779,3843.8281
362,-0.330297,10.7829,3843.8332
363,-0.339009,10.7829,3843.8381
364,-0.344447,10.7873,3843.8432
365,-0.354361,10.7873,3843.8481
366,-0.359126,10.7923,3843.8532
367,-0.368843,10.7923,3843.8581
368,-0.373617,10.7979,3843.8632
369,-0.382722,10.7979,3843.8681
370,-0.385513,10.8023,3843.8732
371,-0.394089,10.8023,3843.8781
372,-0.398765,10.8073,3843.8833
373,-0.406902,10.8073,3843.8881
374,-0.410624,10.8123,3843.8930
375,-0.419691,10.8123,3843.8981
376,-0.424859,10.8172,3843.9030
377,-0.434978,10.8172,3843.9082
378,-0.438345,10.8229,3843.9130
379,-0.446257,10.8229,3843.9182
380,-0.449656,10.8279,3843.9230
381,-0.457812,10.8279,3843.9282
382,-0.461730,10.8322,3843.9331
383,-0.471237,10.8322,3843.9382
384,-0.475604,10.8372,3843.9431
385,-0.485032,10.8372,3843.9482
386,-0.487538,10.8422,3843.9531
387,-0.495291,10.8422,3843.9582
388,-0.499392,10.8472,3843.9631
389,-0.508660,10.8472,3843.9682
390,-0.511948,10.8522,3843.9731
391,-0.519846,10.8522,3843.9782
392,-0.523315,10.8572,3843.9831
393,-0.532672,10.8572,3843.9882
394,-0.535020,10.8622,3843.9931
395,-0.543694,10.8622,3843.9982
396,-0.547917,10.8672,3844.0031
397,-0.556287,10.8672,3844.0083
398,-0.559303,10.8722,3844.0131
399,-0.567164,10.8722,3844.0180
400,-0.571129,10.8772,3844.0231
401,-0.580112,10.8772,3844.0280
402,-0.581744,10.8822,3844.0332
403,-0.589189,10.8822,3844.0380
404,-0.592434,10.8872,3844.0432
405,-0.600603,10.8871,3844.0480
406,-0.602899,10.8921,3844.0532
407,-0.610531,10.8921,3844.0581
408,-0.613626,10.8971,3844.0632
409,-0.621833,10.8971,3844.0681
410,-0.623203,10.9021,3844.0732
411,-0.630620,10.9021,3844.0781
412,-0.633851,10.9071,3844.0832
413,-0.642404,10.9071,3844.0881
414,-0.644873,10.9121,3844.0932
415,-0.652144,10.9121,3844.0981
416,-0.658148,10.9171,3844.1042
417,-0.662062,10.9171,3844.1091
418,-0.667033,10.9221,3844.1142
419,-0.670409,10.9221,3844.1191
420,-0.677068,10.9271,3844.1242
421,-0.680094,10.9271,3844.1291
422,-0.685565,10.9321,3844.1342
423,-0.689170,10.9321,3844.1391
424,-0.695352,10.9377,3844.1442
425,-0.699322,10.9377,3844.1491
426,-0.703012,10.9421,3844.1542
427,-0.706196,10.9421,3844.1591
428,-0.711957,10.9471,3844.1640
429,-0.715338,10.9471,3844.1691
430,-0.721520,10.9514,3844.1740
431,-0.725569,10.9514,3844.1791
432,-0.732289,10.9571,3844.1840
433,-0.736357,10.9571,3844.1892
434,-0.740159,10.9621,3844.1940
435,-0.743386,10.9621,3844.1992
436,-0.749399,10.9671,3844.2041
437,-0.753472,10.9671,3844.2092
438,-0.759392,10.9714,3844.2141
439,-0.763142,10.9714,3844.2192
440,-0.770026,10.9777,3844.2241
441,-0.774220,10.9777,3844.2292
442,-0.777634,10.9820,3844.2341
443,-0.781183,10.9820,3844.2392
444,-0.786397,10.9870,3844.2441
445,-0.790292,10.9870,3844.2492
446,-0.794772,10.9920,3844.2541
447,-0.798036,10.9920,3844.2592
448,-0.802988,10.9970,3844.2641
449,-0.806874,10.9970,3844.2692
450,-0.810105,11.0020,3844.2741
451,-0.814131,11.0020,3844.2792
452,-0.819682,11.0070,3844.2841
453,-0.823451,11.0070,3844.2890
454,-0.827870,11.0114,3844.2941
455,-0.831349,11.0114,3844.2990
456,-0.836147,11.0170,3844.3041
457,-0.840351,11.0170,3844.3090
458,-0.843259,11.0220,3844.3142
459,-0.846252,11.0220,3844.3190
460,-0.849890,11.0270,3844.3242
461,-0.853332,11.0270,3844.3291
462,-0.857676,11.0320,3844.3342
463,-0.861183,11.0320,3844.3391
464,-0.865691,11.0370,3844.3442
465,-0.869858,11.0370,3844.3491
466,-0.873154,11.0420,3844.3542
467,-0.877250,11.0420,3844.3591
468,-0.882221,11.0470,3844.3642
469,-0.885813,11.0470,3844.3691
470,-0.889306,11.0514,3844.3742
471,-0.893037,11.0513,3844.3791
472,-0.898162,11.0570,3844.3842
473,-0.902591,11.0570,3844.3891
474,-0.905831,11.0620,3844.3942
475,-0.909586,11.0620,3844.3991
476,-0.913823,11.0670,3844.4042
477,-0.916516,11.0670,3844.4091
478,-0.916792,11.0720,3844.4140
479,-0.918228,11.0720,3844.4191
480,-0.918845,11.0770,3844.4240
481,-0.920861,11.0770,3844.4291
482,-0.921871,11.0820,3844.4340
483,-0.924667,11.0820,3844.4392
484,-0.925518,11.0870,3844.4440
485,-0.926504,11.0870,3844.4492
486,-0.924849,11.0913,3844.4541
487,-0.925672,11.0913,3844.4592
488,-0.925466,11.0970,3844.4641
489,-0.927286,11.0970,3844.4692
490,-0.926388,11.1020,3844.4741
491,-0.929039,11.1020,3844.4792
492,-0.932874,11.1069,3844.4841
493,-0.937297,11.1069,3844.4892
494,-0.940865,11.1113,3844.4941
495,-0.945139,11.1113,3844.4992
496,-0.949292,11.1169,3844.5041
497,-0.953210,11.1169,3844.5092
498,-0.954730,11.1219,3844.5141
499,-0.958055,11.1219,3844.5192
500,-0.961394,11.1269,3844.5241
501,-0.965476,11.1269,3844.5292
502,-0.968819,11.1313,3844.5341
503,-0.972841,11.1313,3844.5390
504,-0.977325,11.1369,3844.5441
505,-0.982319,11.1369,3844.5490
506,-0.984106,11.1419,3844.5541
507,-0.988637,11.1419,3844.5590
508,-0.992448,11.1469,3844.5642
509,-0.996390,11.1469,3844.5690
510,-0.998957,11.1513,3844.5742
511,-1.003213,11.1513,3844.5791
512,-1.007047,11.1569,3844.5842
513,-1.011742,11.1569,3844.5891
514,-1.013753,11.1619,3844.5942
515,-1.017690,11.1619,3844.5991
516,-1.020777,11.1669,3844.6042
517,-1.025060,11.1669,3844.6091
518,-1.027290,11.1719,3844.6142
519,-1.031709,11.1719,3844.6191
520,-1.035768,11.1769,3844.6242
521,-1.040641,11.1769,3844.6291
522,-1.042347,11.1819,3844.6342
523,-1.045845,11.1819,3844.6391
524,-1.048319,11.1869,3844.6442
525,-1.052551,11.1869,3844.6491
526,-1.054987,11.1913,3844.6542
527,-1.059018,11.1913,3844.6591
528,-1.061768,11.1969,3844.6640
529,-1.066247,11.1969,3844.6691
530,-1.067201,11.2019,3844.6740
531,-1.071293,11.2019,3844.6791
532,-1.074823,11.2069,3844.6840
533,-1.079790,11.2069,3844.6892
534,-1.082236,11.2119,3844.6940
535,-1.086636,11.2119,3844.6992
536,-1.088847,11.2169,3844.7041
537,-1.093734,11.2169,3844.7092
538,-1.094590,11.2219,3844.7141
539,-1.098494,11.2219,3844.7192
540,-1.100407,11.2269,3844.7241
541,-1.104110,11.2268,3844.7292
542,-1.104634,11.2312,3844.7341
543,-1.108104,11.2312,3844.7392
544,-1.110120,11.2368,3844.7441
545,-1.114604,11.2368,3844.7492
546,-1.114702,11.2418,3844.7541
547,-1.117966,11.2418,3844.7592
548,-1.119977,11.2468,3844.7641
549,-1.124082,11.2468,3844.7692
550,-1.125317,11.2512,3844.7741
551,-1.128342,11.2512,3844.7792
552,-1.127912,11.2575,3844.7841
553,-1.129549,11.2575,3844.7890
554,-1.125060,11.2618,3844.7941
555,-1.126280,11.2618,3844.7990
556,-1.125710,11.2668,3844.8041
557,-1.128782,11.2668,3844.8090
558,-1.129207,11.2712,3844.8142
559,-1.132537,11.2712,3844.8190
560,-1.134697,11.2768,3844.8242
561,-1.139803,11.2768,3844.8291
562,-1.140439,11.2818,3844.8342
563,-1.143666,11.2818,3844.8391
564,-1.144513,11.2868,3844.8442
565,-1.148450,11.2868,3844.8491
566,-1.149960,11.2912,3844.8542
567,-1.153664,11.2912,3844.8591
568,-1.156072,11.2968,3844.8642
569,-1.160472,11.2968,3844.8691
570,-1.159836,11.3018,3844.8742
571,-1.162348,11.3018,3844.8791
572,-1.162343,11.3068,3844.8842
573,-1.165649,11.3068,3844.8891
574,-1.167776,11.3118,3844.8942
575,-1.171615,11.3118,3844.8991
576,-1.173617,11.3168,3844.9042
577,-1.176816,11.3168,3844.9091
578,-1.176531,11.3218,3844.9140
579,-1.180010,11.3218,3844.9191
580,-1.181548,11.3268,3844.9240
581,-1.185378,11.3268,3844.9291
582,-1.187337,11.3312,3844.9340
583,-1.191167,11.3312,3844.9392
584,-1.192602,11.3368,3844.9440
585,-1.196002,11.3368,3844.9492
586,-1.196142,11.3418,3844.9541
587,-1.200131,11.3418,3844.9592
588,-1.202310,11.3468,3844.9641
589,-1.206313,11.3468,3844.9692
590,-1.206467,11.3518,3844.9741
591,-1.209161,11.3518,3844.9792
592,-1.209320,11.3568,3844.9841
593,-1.213037,11.3568,3844.9892
594,-1.212930,11.3618,3844.9941
595,-1.217279,11.3618,3844.9992
596,-1.218677,11.3668,3845.0041
597,-1.222081,11.3668,3845.0092
598,-1.222516,11.3712,3845.0141
599,-1.226215,11.3712,3845.0192
600,-1.227014,11.3768,3845.0241
601,-1.230755,11.3768,3845.0292
602,-1.229768,11.3818,3845.0341
603,-1.234183,11.3818,3845.0390
604,-1.235829,11.3868,3845.0441
605,-1.239677,11.3868,3845.0490
606,-1.239378,11.3911,3845.0541
607,-1.243002,11.3911,3845.0590
608,-1.243956,11.3974,3845.0642
609,-1.248618,11.3974,3845.0690
610,-1.246944,11.4018,3845.0742
611,-1.249642,11.4018,3845.0791
612,-1.247791,11.4068,3845.0842
613,-1.250147,11.4068,3845.0891
614,-1.248225,11.4111,3845.0942
615,-1.250793,11.4111,3845.0991
616,-1.248183,11.4168,3845.1042
617,-1.248193,11.4168,3845.1091
618,-1.234987,11.4218,3845.1142
619,-1.230142,11.4218,3845.1191
620,-1.220702,11.4268,3845.1242
621,-1.217106,11.4268,3845.1291
622,-1.207183,11.4312,3845.1342
623,-1.205855,11.4312,3845.1391
624,-1.201496,11.4368,3845.1442
625,-1.202951,11.4368,3845.1491
626,-1.200220,11.4418,3845.1542
627,-1.202764,11.4418,3845.1591
628,-1.202792,11.4468,3845.1640
629,-1.206472,11.4468,3845.1691
630,-1.206771,11.4518,3845.1740
631,-1.210152,11.4518,3845.1791
632,-1.210807,11.4568,3845.1840
633,-1.214515,11.4568,3845.1892
634,-1.211892,11.4618,3845.1940
635,-1.213711,11.4618,3845.1992
636,-1.210886,11.4668,3845.2041
637,-1.211134,11.4668,3845.2092
638,-1.203185,11.4712,3845.2141
