Point No.,Normal Force [N],Gap [mm],Time [s]
1,4.189227,12.0656,126.3930
2,4.188698,12.0656,126.3980
3,4.188866,12.0656,126.4030
4,4.188540,12.0656,126.4080
5,4.188587,12.0656,126.4130
6,4.188408,12.0656,126.4180
7,4.188202,12.0662,126.4230
8,4.183919,12.0662,126.4280
9,4.178372,12.0687,126.4320
10,4.170391,12.0687,126.4370
11,4.161266,12.0718,126.4420
12,4.152864,12.0718,126.4470
13,4.141146,12.0756,126.4520
14,4.128118,12.0756,126.4570
15,4.099308,12.0805,126.4620
16,4.072766,12.0805,126.4680
17,4.052915,12.0849,126.4730
18,4.026935,12.0849,126.4780
19,4.008502,12.0905,126.4830
20,3.986402,12.0905,126.4880
21,3.969063,12.0948,126.4930
22,3.946168,12.0948,126.4980
23,3.927688,12.0998,126.5030
24,3.906889,12.0998,126.5080
25,3.887936,12.1048,126.5130
26,3.865668,12.1048,126.5180
27,3.845486,12.1104,126.5230
28,3.824382,12.1104,126.5280
29,3.805649,12.1147,126.5330
30,3.792850,12.1147,126.5370
31,3.763993,12.1197,126.5420
32,3.753192,12.1197,126.5470
33,3.725729,12.1247,126.5520
34,3.714814,12.1247,126.5570
35,3.687599,12.1303,126.5620
36,3.678312,12.1303,126.5670
37,3.651807,12.1347,126.5720
38,3.641080,12.1346,126.5770
39,3.613599,12.1396,126.5820
40,3.604499,12.1396,126.5870
41,3.577129,12.1452,126.5920
42,3.566987,12.1452,126.5970
43,3.537766,12.1502,126.6020
44,3.528820,12.1502,126.6070
45,3.502605,12.1546,126.6120
46,3.493426,12.1546,126.6170
47,3.467973,12.1595,126.6220
48,3.460673,12.1595,126.6270
49,3.434824,12.1645,126.6320
50,3.426037,12.1645,126.6370
51,3.399481,12.1701,126.6420
52,3.392242,12.1701,126.6470
53,3.366458,12.1745,126.6520
54,3.357517,12.1745,126.6570
55,3.330512,12.1795,126.6620
56,3.322095,12.1795,126.6670
57,3.295521,12.1844,126.6720
58,3.287740,12.1844,126.6770
59,3.262156,12.1900,126.6820
60,3.256615,12.1900,126.6870
61,3.233697,12.1944,126.6920
62,3.225523,12.1944,126.6970
63,3.199523,12.2000,126.7020
64,3.192439,12.2000,126.7070
65,3.168240,12.2044,126.7120
66,3.161099,12.2044,126.7170
67,3.137073,12.2100,126.7220
68,3.131999,12.2100,126.7270
69,3.108582,12.2143,126.7320
70,3.100758,12.2143,126.7370
71,3.074239,12.2193,126.7420
72,3.068034,12.2193,126.7470
73,3.045294,12.2243,126.7520
74,3.038878,12.2243,126.7570
75,3.014337,12.2299,126.7620
76,3.009049,12.2299,126.7670
77,2.985724,12.2349,126.7720
78,2.978785,12.2349,126.7770
79,2.955024,12.2399,126.7820
80,2.949539,12.2399,126.7870
81,2.927505,12.2449,126.7920
82,2.920781,12.2448,126.7970
83,2.896250,12.2498,126.8020
84,2.891054,12.2498,126.8070
85,2.869605,12.2542,126.8120
86,2.862956,12.2542,126.8170
87,2.840439,12.2598,126.8220
88,2.835123,12.2598,126.8270
89,2.812453,12.2642,126.8320
90,2.805649,12.2642,126.8370
91,2.781220,12.2698,126.8420
92,2.776002,12.2698,126.8470
93,2.754978,12.2741,126.8520
94,2.748955,12.2741,126.8570
95,2.727267,12.2797,126.8620
96,2.722694,12.2797,126.8670
97,2.702002,12.2841,126.8720
98,2.695483,12.2841,126.8770
99,2.672907,12.2897,126.8820
100,2.668806,12.2897,126.8870
101,2.649904,12.2947,126.8920
102,2.644546,12.2947,126.8970
103,2.624031,12.2997,126.9020
104,2.618822,12.2997,126.9070
105,2.597817,12.3040,126.9120
106,2.591232,12.3040,126.9170
107,2.568235,12.3096,126.9220
108,2.563947,12.3096,126.9270
109,2.544938,12.3140,126.9320
110,2.539434,12.3140,126.9370
111,2.518219,12.3196,126.9420
112,2.513089,12.3196,126.9470
113,2.492856,12.3240,126.9520
114,2.486734,12.3240,126.9570
115,2.465967,12.3296,126.9620
116,2.462301,12.3296,126.9670
117,2.443849,12.3339,126.9720
118,2.438527,12.3339,126.9770
119,2.418653,12.3396,126.9820
120,2.413921,12.3395,126.9870
121,2.394753,12.3445,126.9920
122,2.389166,12.3445,126.9970
123,2.369367,12.3495,127.0020
124,2.365986,12.3495,127.0070
125,2.348394,12.3539,127.0120
126,2.343147,12.3539,127.0170
127,2.324760,12.3595,127.0220
128,2.320954,12.3595,127.0270
129,2.305574,12.3645,127.0320
130,2.301151,12.3645,127.0370
131,2.283554,12.3695,127.0420
132,2.279809,12.3695,127.0470
133,2.264610,12.3738,127.0520
134,2.259757,12.3738,127.0570
135,2.242670,12.3794,127.0620
136,2.239051,12.3794,127.0670
137,2.222933,12.3844,127.0720
138,2.217713,12.3844,127.0770
139,2.200472,12.3894,127.0820
140,2.197381,12.3894,127.0870
141,2.181698,12.3944,127.0920
142,2.177059,12.3944,127.0970
143,2.160248,12.3994,127.1020
144,2.157059,12.3994,127.1070
145,2.141581,12.4044,127.1120
146,2.138724,12.4044,127.1170
147,2.121614,12.4094,127.1220
148,2.118705,12.4094,127.1270
149,2.102160,12.4144,127.1320
150,2.097629,12.4144,127.1370
151,2.079050,12.4194,127.1420
152,2.074973,12.4193,127.1470
153,2.058766,12.4243,127.1520
154,2.054636,12.4243,127.1570
155,2.036862,12.4293,127.1620
156,2.034464,12.4293,127.1670
157,2.018359,12.4343,127.1720
158,2.014052,12.4343,127.1770
159,1.996138,12.4393,127.1820
160,1.992205,12.4393,127.1870
161,1.975937,12.4443,127.1920
162,1.971373,12.4443,127.1970
163,1.953673,12.4493,127.2020
164,1.950610,12.4493,127.2070
165,1.934319,12.4543,127.2120
166,1.929956,12.4543,127.2170
167,1.913599,12.4593,127.2220
168,1.910835,12.4593,127.2270
169,1.894141,12.4642,127.2320
170,1.889231,12.4642,127.2370
171,1.871873,12.4692,127.2420
172,1.869390,12.4692,127.2470
173,1.853295,12.4742,127.2520
174,1.848716,12.4742,127.2570
175,1.831742,12.4792,127.2620
176,1.828927,12.4792,127.2670
177,1.814515,12.4842,127.2720
178,1.810372,12.4842,127.2770
179,1.793799,12.4892,127.2820
180,1.791433,12.4892,127.2870
181,1.776540,12.4942,127.2920
182,1.771691,12.4942,127.2970
183,1.754637,12.4992,127.3020
184,1.751209,12.4992,127.3070
185,1.736554,12.5041,127.3120
186,1.732130,12.5041,127.3170
187,1.715740,12.5091,127.3220
188,1.713585,12.5091,127.3270
189,1.699855,12.5141,127.3320
190,1.695866,12.5141,127.3370
191,1.680748,12.5191,127.3420
192,1.677915,12.5191,127.3470
193,1.663063,12.5241,127.3520
194,1.658317,12.5241,127.3570
195,1.642020,12.5291,127.3620
196,1.639280,12.5291,127.3670
197,1.625537,12.5341,127.3720
198,1.621614,12.5341,127.3770
199,1.606093,12.5391,127.3820
200,1.603147,12.5391,127.3870
201,1.589507,12.5441,127.3920
202,1.585378,12.5441,127.3970
203,1.569128,12.5491,127.4020
204,1.565742,12.5490,127.4070
205,1.551195,12.5540,127.4120
206,1.547164,12.5540,127.4170
207,1.532097,12.5590,127.4220
208,1.529469,12.5590,127.4270
209,1.516329,12.5640,127.4320
210,1.512093,12.5640,127.4370
211,1.497026,12.5690,127.4420
212,1.494183,12.5690,127.4470
213,1.480757,12.5740,127.4520
214,1.476381,12.5740,127.4570
215,1.460491,12.5790,127.4620
216,1.457092,12.5790,127.4670
217,1.442885,12.5840,127.4720
218,1.437966,12.5840,127.4770
219,1.423741,12.5890,127.4820
220,1.421739,12.5890,127.4870
221,1.409362,12.5940,127.4920
222,1.404948,12.5940,127.4970
223,1.389563,12.5989,127.5020
224,1.385803,12.5989,127.5070
225,1.372766,12.6039,127.5120
226,1.368352,12.6039,127.5170
227,1.354459,12.6089,127.5220
228,1.352326,12.6089,127.5270
229,1.340505,12.6139,127.5320
230,1.336133,12.6139,127.5370
231,1.322563,12.6189,127.5420
232,1.319383,12.6189,127.5470
233,1.306725,12.6239,127.5520
234,1.301627,12.6239,127.5570
235,1.286402,12.6289,127.5620
236,1.283259,12.6289,127.5670
237,1.273033,12.6339,127.5720
238,1.269554,12.6339,127.5770
239,1.255876,12.6389,127.5820
240,1.252163,12.6389,127.5870
241,1.239738,12.6439,127.5920
242,1.234426,12.6439,127.5970
243,1.219200,12.6488,127.6020
244,1.215366,12.6488,127.6070
245,1.204190,12.6538,127.6120
246,1.201071,12.6538,127.6170
247,1.189839,12.6588,127.6220
248,1.187622,12.6588,127.6270
249,1.176390,12.6638,127.6320
250,1.171345,12.6638,127.6370
251,1.157718,12.6688,127.6420
252,1.154131,12.6688,127.6470
253,1.142511,12.6738,127.6520
254,1.138368,12.6738,127.6570
255,1.125364,12.6788,127.6620
256,1.121389,12.6788,127.6670
257,1.109338,12.6838,127.6720
258,1.104232,12.6838,127.6770
259,1.091003,12.6888,127.6820
260,1.087271,12.6888,127.6870
261,1.076371,12.6938,127.6920
262,1.071391,12.6938,127.6970
263,1.057746,12.6987,127.7020
264,1.053388,12.6987,127.7070
265,1.041076,12.7037,127.7120
266,1.035707,12.7037,127.7170
267,1.021936,12.7087,127.7220
268,1.017985,12.7087,127.7270
269,1.006626,12.7137,127.7320
270,1.001333,12.7137,127.7370
271,0.987463,12.7187,127.7420
272,0.983479,12.7187,127.7470
273,0.974075,12.7237,127.7520
274,0.969226,12.7237,127.7570
275,0.956493,12.7287,127.7620
276,0.952710,12.7287,127.7670
277,0.942128,12.7337,127.7720
278,0.936600,12.7337,127.7770
279,0.923512,12.7387,127.7820
280,0.918990,12.7387,127.7870
281,0.908328,12.7437,127.7920
282,0.902988,12.7437,127.7970
283,0.890409,12.7487,127.8020
284,0.885911,12.7486,127.8070
285,0.875202,12.7536,127.8120
286,0.869736,12.7536,127.8170
287,0.857611,12.7586,127.8220
288,0.853397,12.7586,127.8270
289,0.844012,12.7636,127.8320
290,0.839065,12.7636,127.8370
291,0.827066,12.7686,127.8420
292,0.822128,12.7686,127.8470
293,0.811466,12.7736,127.8520
294,0.805396,12.7736,127.8570
295,0.793215,12.7786,127.8620
296,0.789048,12.7786,127.8670
297,0.779359,12.7836,127.8720
298,0.772888,12.7836,127.8770
299,0.759939,12.7886,127.8820
300,0.755459,12.7886,127.8870
301,0.745700,12.7929,127.8920
302,0.740365,12.7929,127.8970
303,0.728511,12.7986,127.9020
304,0.723568,12.7985,127.9070
305,0.713327,12.8035,127.9120
306,0.707094,12.8035,127.9170
307,0.695974,12.8085,127.9220
308,0.691026,12.8085,127.9270
309,0.681665,12.8135,127.9320
310,0.676820,12.8135,127.9370
311,0.666449,12.8185,127.9420
312,0.661076,12.8185,127.9470
313,0.650722,12.8235,127.9520
314,0.643886,12.8235,127.9570
315,0.633201,12.8285,127.9620
316,0.628445,12.8285,127.9670
317,0.619509,12.8329,127.9720
318,0.613921,12.8329,127.9770
319,0.602670,12.8385,127.9820
320,0.596264,12.8385,127.9870
321,0.584438,12.8428,127.9920
322,0.576848,12.8428,127.9970
323,0.565275,12.8485,128.0020
324,0.559850,12.8485,128.0070
325,0.550643,12.8535,128.0120
326,0.544442,12.8534,128.0170
327,0.532022,12.8584,128.0220
328,0.525251,12.8584,128.0270
329,0.516114,12.8634,128.0320
330,0.509296,12.8634,128.0370
331,0.498073,12.8684,128.0420
332,0.492687,12.8684,128.0470
333,0.484527,12.8728,128.0520
334,0.478677,12.8728,128.0570
335,0.468628,12.8784,128.0620
336,0.462881,12.8784,128.0670
337,0.453636,12.8828,128.0720
338,0.446224,12.8828,128.0770
339,0.434071,12.8884,128.0820
340,0.428328,12.8884,128.0870
341,0.420094,12.8927,128.0920
342,0.414622,12.8927,128.0970
343,0.405986,12.8984,128.1020
344,0.400884,12.8984,128.1070
345,0.391232,12.9027,128.1120
346,0.383250,12.9027,128.1170
347,0.372813,12.9083,128.1220
348,0.368417,12.9083,128.1270
349,0.363068,12.9127,128.1320
350,0.358733,12.9127,128.1370
351,0.351906,12.9177,128.1420
352,0.347711,12.9177,128.1470
353,0.341384,12.9227,128.1520
354,0.336287,12.9227,128.1570
355,0.328960,12.9283,128.1620
356,0.324115,12.9283,128.1670
357,0.318579,12.9327,128.1720
358,0.314071,12.9327,128.1770
359,0.305864,12.9377,128.1820
360,0.299869,12.9377,128.1870
361,0.292719,12.9427,128.1920
362,0.286729,12.9427,128.1970
363,0.279126,12.9483,128.2020
364,0.274244,12.9483,128.2070
365,0.268693,12.9527,128.2120
366,0.263044,12.9527,128.2170
367,0.254351,12.9577,128.2220
368,0.248894,12.9576,128.2270
369,0.243502,12.9626,128.2320
370,0.237349,12.9626,128.2370
371,0.229217,12.9683,128.2420
372,0.223203,12.9683,128.2470
373,0.216465,12.9726,128.2520
374,0.210325,12.9726,128.2570
375,0.202656,12.9776,128.2620
376,0.197283,12.9776,128.2670
377,0.190956,12.9826,128.2720
378,0.183942,12.9826,128.2770
379,0.175244,12.9882,128.2820
380,0.169048,12.9882,128.2870
381,0.163886,12.9926,128.2920
382,0.158359,12.9926,128.2970
383,0.151372,12.9976,128.3020
384,0.145415,12.9976,128.3070
385,0.140051,13.0026,128.3120
386,0.133290,13.0026,128.3170
387,0.125317,13.0082,128.3220
388,0.119210,13.0082,128.3270
389,0.114608,13.0126,128.3320
390,0.109465,13.0126,128.3370
391,0.102558,13.0176,128.3420
392,0.095754,13.0176,128.3470
393,0.089114,13.0226,128.3520
394,0.082352,13.0225,128.3570
395,0.076007,13.0282,128.3620
396,0.070339,13.0282,128.3670
397,0.065466,13.0325,128.3720
398,0.058967,13.0325,128.3770
399,0.050774,13.0375,128.3820
400,0.044283,13.0375,128.3870
401,0.039341,13.0425,128.3920
402,0.032981,13.0425,128.3970
403,0.026332,13.0481,128.4020
404,0.020402,13.0481,128.4070
405,0.016334,13.0525,128.4120
406,0.010358,13.0525,128.4170
407,0.003549,13.0575,128.4220
408,-0.002754,13.0575,128.4270
409,-0.008015,13.0625,128.4320
410,-0.014454,13.0625,128.4370
411,-0.019696,13.0681,128.4420
412,-0.025172,13.0681,128.4470
413,-0.029451,13.0725,128.4520
414,-0.036647,13.0725,128.4570
415,-0.044101,13.0775,128.4620
416,-0.048955,13.0775,128.4680
417,-0.054047,13.0825,128.4730
418,-0.060056,13.0825,128.4780
419,-0.067155,13.0881,128.4830
420,-0.073112,13.0881,128.4880
421,-0.078527,13.0925,128.4930
422,-0.084625,13.0925,128.4980
423,-0.090961,13.0974,128.5030
424,-0.096086,13.0974,128.5080
425,-0.101417,13.1024,128.5130
426,-0.107538,13.1024,128.5180
427,-0.113720,13.1081,128.5230
428,-0.118976,13.1081,128.5280
429,-0.123755,13.1124,128.5330
430,-0.129703,13.1124,128.5380
431,-0.135749,13.1174,128.5430
432,-0.140814,13.1174,128.5480
433,-0.145102,13.1224,128.5530
434,-0.149825,13.1224,128.5580
435,-0.155085,13.1280,128.5630
436,-0.159177,13.1280,128.5680
437,-0.163521,13.1324,128.5730
438,-0.170283,13.1324,128.5780
439,-0.176596,13.1374,128.5830
440,-0.181295,13.1374,128.5880
441,-0.185092,13.1424,128.5930
442,-0.191092,13.1424,128.5980
443,-0.196217,13.1480,128.6030
444,-0.200683,13.1480,128.6080
445,-0.205144,13.1524,128.6130
446,-0.212317,13.1524,128.6180
447,-0.218934,13.1574,128.6230
448,-0.224166,13.1574,128.6280
449,-0.228141,13.1624,128.6330
450,-0.234089,13.1624,128.6380
451,-0.238480,13.1680,128.6430
452,-0.242946,13.1680,128.6480
453,-0.247215,13.1724,128.6530
454,-0.254674,13.1724,128.6580
455,-0.260818,13.1773,128.6630
456,-0.266392,13.1773,128.6680
457,-0.270138,13.1823,128.6730
458,-0.275698,13.1823,128.6780
459,-0.280514,13.1880,128.6830
460,-0.285845,13.1880,128.6880
461,-0.289432,13.1923,128.6930
462,-0.295927,13.1923,128.6980
463,-0.301655,13.1973,128.7030
464,-0.307449,13.1973,128.7080
465,-0.311111,13.2023,128.7130
466,-0.317040,13.2023,128.7180
467,-0.321768,13.2079,128.7230
468,-0.326434,13.2079,128.7280
469,-0.328894,13.2123,128.7330
470,-0.334113,13.2123,128.7380
471,-0.338990,13.2173,128.7430
472,-0.345761,13.2173,128.7480
473,-0.350073,13.2223,128.7530
474,-0.357349,13.2223,128.7580
475,-0.361590,13.2279,128.7630
476,-0.365452,13.2279,128.7680
477,-0.368356,13.2323,128.7730
478,-0.374608,13.2323,128.7780
479,-0.379995,13.2373,128.7830
480,-0.387295,13.2373,128.7880
481,-0.390166,13.2423,128.7930
482,-0.396652,13.2423,128.7980
483,-0.400729,13.2479,128.8030
484,-0.405696,13.2479,128.8080
485,-0.408604,13.2523,128.8130
486,-0.414996,13.2523,128.8180
487,-0.419266,13.2573,128.8230
488,-0.425471,13.2572,128.8280
489,-0.428450,13.2622,128.8330
490,-0.434529,13.2622,128.8380
491,-0.438307,13.2679,128.8430
492,-0.443979,13.2679,128.8480
493,-0.446902,13.2722,128.8530
494,-0.453341,13.2722,128.8580
495,-0.456989,13.2772,128.8630
496,-0.462577,13.2772,128.8680
497,-0.464779,13.2822,128.8730
498,-0.471447,13.2822,128.8780
499,-0.475156,13.2878,128.8830
500,-0.480781,13.2878,128.8880
501,-0.482675,13.2922,128.8930
502,-0.489315,13.2922,128.8980
503,-0.492972,13.2972,128.9030
504,-0.498985,13.2972,128.9080
505,-0.501221,13.3022,128.9130
506,-0.506883,13.3022,128.9180
507,-0.510217,13.3078,128.9230
508,-0.517148,13.3078,128.9280
509,-0.518836,13.3122,128.9330
510,-0.523858,13.3122,128.9380
511,-0.525476,13.3172,128.9430
512,-0.528581,13.3172,128.9480
513,-0.528988,13.3222,128.9530
514,-0.535001,13.3222,128.9580
515,-0.538279,13.3278,128.9630
516,-0.543774,13.3278,128.9680
517,-0.544737,13.3322,128.9730
518,-0.549511,13.3322,128.9780
519,-0.551793,13.3372,128.9830
520,-0.556516,13.3372,128.9880
521,-0.557148,13.3422,128.9930
522,-0.564064,13.3422,128.9980
523,-0.566916,13.3478,129.0030
524,-0.572471,13.3478,129.0080
525,-0.573220,13.3522,129.0130
526,-0.578672,13.3522,129.0180
527,-0.581543,13.3572,129.0230
528,-0.587192,13.3572,129.0280
529,-0.588497,13.3572,129.0330
530,-0.595806,13.3622,129.0380
531,-0.599046,13.3621,129.0430
532,-0.605817,13.3678,129.0480
533,-0.606336,13.3721,129.0530
534,-0.611246,13.3721,129.0580
535,-0.612560,13.3771,129.0630
536,-0.617222,13.3771,129.0680
537,-0.617358,13.3821,129.0730
538,-0.623255,13.3821,129.0780
539,-0.624255,13.3878,129.0830
540,-0.627870,13.3878,129.0880
541,-0.626678,13.3921,129.0930
542,-0.631597,13.3921,129.0980
543,-0.633832,13.3971,129.1030
544,-0.639467,13.3971,129.1080
545,-0.639116,13.4021,129.1130
546,-0.643923,13.4021,129.1180
547,-0.643858,13.4077,129.1230
548,-0.647538,13.4077,129.1280
549,-0.646271,13.4077,129.1330
550,-0.651742,13.4121,129.1380
551,-0.653865,13.4121,129.1430
552,-0.660790,13.4177,129.1480
553,-0.661347,13.4221,129.1530
554,-0.667627,13.4221,129.1580
555,-0.668099,13.4277,129.1630
556,-0.673439,13.4277,129.1680
557,-0.672897,13.4321,129.1730
558,-0.678663,13.4321,129.1780
559,-0.680407,13.4371,129.1830
560,-0.686397,13.4371,129.1880
561,-0.685920,13.4421,129.1930
562,-0.690989,13.4421,129.1980
563,-0.690666,13.4477,129.2030
564,-0.695782,13.4477,129.2080
565,-0.695240,13.4521,129.2130
566,-0.700631,13.4521,129.2180
567,-0.701693,13.4521,129.2230
568,-0.706860,13.4571,129.2280
569,-0.705630,13.4571,129.2330
570,-0.710980,13.4621,129.2380
571,-0.711153,13.4621,129.2430
572,-0.716236,13.4677,129.2480
573,-0.714936,13.4677,129.2530
574,-0.721712,13.4721,129.2580
575,-0.722806,13.4777,129.2630
576,-0.728193,13.4777,129.2680
577,-0.726673,13.4821,129.2730
578,-0.733000,13.4821,129.2780
579,-0.733828,13.4877,129.2830
580,-0.740444,13.4877,129.2880
581,-0.738569,13.4921,129.2930
582,-0.743002,13.4921,129.2980
583,-0.742885,13.4977,129.3030
584,-0.747561,13.4977,129.3080
585,-0.745981,13.5021,129.3130
586,-0.752280,13.5021,129.3180
587,-0.752238,13.5021,129.3230
588,-0.755693,13.5077,129.3280
589,-0.751209,13.5077,129.3330
590,-0.753051,13.5121,129.3380
591,-0.751859,13.5121,129.3430
592,-0.756175,13.5177,129.3480
593,-0.753902,13.5177,129.3530
594,-0.759902,13.5220,129.3580
595,-0.759972,13.5220,129.3630
596,-0.767454,13.5277,129.3680
597,-0.766056,13.5320,129.3730
598,-0.772158,13.5320,129.3780
599,-0.772387,13.5377,129.3830
600,-0.778667,13.5377,129.3880
601,-0.777442,13.5420,129.3930
602,-0.784849,13.5420,129.3980
603,-0.784372,13.5477,129.4030
604,-0.790938,13.5477,129.4080
605,-0.789011,13.5520,129.4130
606,-0.794375,13.5520,129.4180
607,-0.794688,13.5577,129.4230
608,-0.802927,13.5577,129.4280
609,-0.802132,13.5577,129.4330
610,-0.809030,13.5620,129.4380
611,-0.808066,13.5620,129.4430
612,-0.813687,13.5676,129.4480
613,-0.811176,13.5676,129.4530
614,-0.818101,13.5720,129.4580
615,-0.818279,13.5720,129.4630
616,-0.824634,13.5776,129.4680
617,-0.822525,13.5820,129.4730
618,-0.828361,13.5820,129.4780
619,-0.827276,13.5876,129.4830
620,-0.833720,13.5876,129.4880
621,-0.831438,13.5920,129.4930
622,-0.838471,13.5920,129.4980
623,-0.837910,13.5976,129.5030
624,-0.843629,13.5976,129.5080
625,-0.841431,13.5976,129.5130
626,-0.848487,13.6020,129.5180
627,-0.847309,13.6020,129.5230
628,-0.853828,13.6076,129.5280
629,-0.850788,13.6076,129.5330
630,-0.857858,13.6120,129.5380
631,-0.857461,13.6120,129.5430
632,-0.863376,13.6176,129.5480
633,-0.860832,13.6176,129.5530
634,-0.867646,13.6220,129.5580
635,-0.866598,13.6220,129.5630
636,-0.873818,13.6276,129.5680
637,-0.871031,13.6276,129.5730
638,-0.876867,13.6320,129.5780
639,-0.875595,13.6320,129.5830
