Data stamp = , 03-04-2022 19:28:28 853

Calibration Values: 
Slope = , 26.54 , g/V 
Offset Voltage at no contact = , -0.501760 , V 

No , Time , Stage Position ,   Mass , Force 
   ,  (s) ,      (mm)      ,   (g)  , (mN)  

1 ,0.0000 ,0.59955 ,5.27456 ,51.75401 
2 ,0.2129 ,0.59958 ,5.27456 ,51.75401 
3 ,0.4850 ,0.60037 ,5.29167 ,51.92190 
4 ,0.6932 ,0.60165 ,5.28141 ,51.82116 
5 ,0.8851 ,0.60319 ,5.26772 ,51.68685 
6 ,1.0614 ,0.60493 ,5.26772 ,51.68685 
7 ,1.2533 ,0.60680 ,5.29167 ,51.92190 
8 ,1.4295 ,0.60859 ,5.28483 ,51.85474 
9 ,1.6212 ,0.61050 ,5.24718 ,51.48538 
10 ,1.7976 ,0.61229 ,5.23692 ,51.38464 
11 ,1.9898 ,0.61429 ,5.24376 ,51.45180 
12 ,2.1658 ,0.61604 ,5.20612 ,51.08244 
13 ,2.3417 ,0.61774 ,5.17874 ,50.81381 
14 ,2.5340 ,0.61962 ,5.18901 ,50.91455 
15 ,2.7261 ,0.62150 ,5.15479 ,50.57876 
16 ,2.9021 ,0.62335 ,5.14452 ,50.47803 
17 ,3.0942 ,0.62516 ,5.13768 ,50.41087 
18 ,3.2703 ,0.62710 ,5.12741 ,50.31014 
19 ,3.4624 ,0.62885 ,5.09319 ,49.97436 
20 ,3.6382 ,0.63070 ,5.08634 ,49.90720 
21 ,3.8145 ,0.63243 ,5.07265 ,49.77289 
22 ,3.9906 ,0.63423 ,5.05212 ,49.57142 
23 ,4.1667 ,0.63598 ,5.03159 ,49.36995 
24 ,4.3426 ,0.63778 ,5.00763 ,49.13490 
25 ,4.5189 ,0.63952 ,5.00421 ,49.10132 
26 ,4.7108 ,0.64144 ,4.98710 ,48.93343 
27 ,4.9029 ,0.64338 ,4.95288 ,48.59764 
28 ,5.0788 ,0.64510 ,4.94261 ,48.49691 
29 ,5.2551 ,0.64686 ,4.93235 ,48.39618 
30 ,5.4309 ,0.64864 ,4.91181 ,48.19471 
31 ,5.6231 ,0.65054 ,4.87417 ,47.82534 
32 ,5.7993 ,0.65231 ,4.87075 ,47.79177 
33 ,6.0074 ,0.65430 ,4.83310 ,47.42240 
34 ,6.1990 ,0.65629 ,4.83652 ,47.45598 
35 ,6.3589 ,0.65801 ,4.81599 ,47.25451 
36 ,6.5352 ,0.65965 ,4.79204 ,47.01946 
37 ,6.7275 ,0.66148 ,4.78177 ,46.91873 
38 ,6.9518 ,0.66380 ,4.74755 ,46.58295 
39 ,7.1277 ,0.66553 ,4.72702 ,46.38148 
40 ,7.3039 ,0.66737 ,4.68937 ,46.01212 
41 ,7.4799 ,0.66911 ,4.69279 ,46.04569 
42 ,7.6556 ,0.67083 ,4.68253 ,45.94496 
43 ,7.8316 ,0.67260 ,4.64831 ,45.60918 
44 ,7.9922 ,0.67432 ,4.63804 ,45.50844 
45 ,8.1682 ,0.67596 ,4.61408 ,45.27339 
46 ,8.3600 ,0.67788 ,4.60040 ,45.13908 
47 ,8.5524 ,0.67969 ,4.59697 ,45.10550 
48 ,8.7285 ,0.68157 ,4.55933 ,44.73614 
49 ,8.9045 ,0.68338 ,4.55591 ,44.70256 
50 ,9.0646 ,0.68502 ,4.53880 ,44.53467 
51 ,9.2408 ,0.68677 ,4.51826 ,44.33320 
52 ,9.4328 ,0.68862 ,4.52169 ,44.36678 
53 ,9.6409 ,0.69065 ,4.47720 ,43.93026 
54 ,9.8490 ,0.69278 ,4.44640 ,43.62806 
55 ,10.0250 ,0.69455 ,4.42929 ,43.46016 
56 ,10.2008 ,0.69626 ,4.43271 ,43.49374 
57 ,10.3931 ,0.69820 ,4.41560 ,43.32585 
58 ,10.5692 ,0.70006 ,4.38822 ,43.05723 
59 ,10.7453 ,0.70174 ,4.37795 ,42.95649 
60 ,10.9375 ,0.70369 ,4.36084 ,42.78860 
61 ,11.1132 ,0.70541 ,4.33004 ,42.48639 
62 ,11.2894 ,0.70719 ,4.30951 ,42.28492 
63 ,11.4815 ,0.70910 ,4.30951 ,42.28492 
64 ,11.6577 ,0.71088 ,4.29240 ,42.11703 
65 ,11.8338 ,0.71267 ,4.26845 ,41.88198 
66 ,12.0260 ,0.71446 ,4.26502 ,41.84841 
67 ,12.2178 ,0.71640 ,4.22738 ,41.47905 
68 ,12.4099 ,0.71828 ,4.21711 ,41.37831 
69 ,12.6022 ,0.72031 ,4.21027 ,41.31115 
70 ,12.7782 ,0.72209 ,4.18974 ,41.10968 
71 ,12.9542 ,0.72379 ,4.15209 ,40.74032 
72 ,13.1303 ,0.72556 ,4.12814 ,40.50527 
73 ,13.2904 ,0.72731 ,4.11445 ,40.37096 
74 ,13.4665 ,0.72892 ,4.11103 ,40.33738 
75 ,13.6426 ,0.73066 ,4.10076 ,40.23665 
76 ,13.8188 ,0.73247 ,4.08365 ,40.06876 
77 ,13.9946 ,0.73423 ,4.06312 ,39.86729 
78 ,14.1869 ,0.73605 ,4.02889 ,39.53150 
79 ,14.3786 ,0.73809 ,4.03574 ,39.59866 
80 ,14.5708 ,0.73996 ,3.99125 ,39.16214 
81 ,14.7470 ,0.74175 ,3.98098 ,39.06141 
82 ,14.9230 ,0.74348 ,3.97072 ,38.96067 
83 ,15.0991 ,0.74529 ,3.96387 ,38.89352 
84 ,15.2753 ,0.74703 ,3.93992 ,38.65847 
85 ,15.4513 ,0.74876 ,3.91254 ,38.38984 
86 ,15.6433 ,0.75067 ,3.91938 ,38.45700 
87 ,15.8514 ,0.75268 ,3.87147 ,37.98690 
88 ,16.0435 ,0.75468 ,3.87832 ,38.05406 
89 ,16.2197 ,0.75646 ,3.85094 ,37.78543 
90 ,16.4114 ,0.75832 ,3.83041 ,37.58396 
91 ,16.5878 ,0.76017 ,3.83041 ,37.58396 
92 ,16.7637 ,0.76189 ,3.81330 ,37.41607 
93 ,16.9400 ,0.76367 ,3.80645 ,37.34891 
94 ,17.1320 ,0.76558 ,3.76196 ,36.91240 
95 ,17.3083 ,0.76736 ,3.76196 ,36.91240 
96 ,17.4837 ,0.76911 ,3.74143 ,36.71093 
97 ,17.6604 ,0.77080 ,3.73117 ,36.61019 
98 ,17.8682 ,0.77291 ,3.69694 ,36.27441 
99 ,18.0444 ,0.77468 ,3.69010 ,36.20725 
100 ,18.2205 ,0.77650 ,3.68325 ,36.14010 
101 ,18.3963 ,0.77822 ,3.66272 ,35.93863 
102 ,18.5727 ,0.77995 ,3.64561 ,35.77073 
103 ,18.7487 ,0.78172 ,3.63877 ,35.70358 
104 ,18.9248 ,0.78348 ,3.62850 ,35.60284 
105 ,19.1008 ,0.78526 ,3.60112 ,35.33422 
106 ,19.2769 ,0.78701 ,3.59086 ,35.23348 
107 ,19.4850 ,0.78909 ,3.57375 ,35.06559 
108 ,19.6611 ,0.79088 ,3.55663 ,34.89770 
109 ,19.8852 ,0.79295 ,3.53268 ,34.66265 
110 ,20.0613 ,0.79483 ,3.52584 ,34.59549 
111 ,20.2373 ,0.79666 ,3.50188 ,34.36045 
112 ,20.4137 ,0.79838 ,3.47450 ,34.09182 
113 ,20.6053 ,0.80036 ,3.47450 ,34.09182 
114 ,20.7816 ,0.80206 ,3.46766 ,34.02466 
115 ,20.9736 ,0.80402 ,3.42659 ,33.62172 
116 ,21.1497 ,0.80572 ,3.43686 ,33.72246 
117 ,21.3256 ,0.80752 ,3.41975 ,33.55457 
118 ,21.5019 ,0.80929 ,3.39921 ,33.35310 
119 ,21.6935 ,0.81116 ,3.36499 ,33.01731 
120 ,21.8699 ,0.81291 ,3.37184 ,33.08447 
121 ,22.0460 ,0.81472 ,3.37184 ,33.08447 
122 ,22.2220 ,0.81644 ,3.33762 ,32.74869 
123 ,22.3978 ,0.81823 ,3.32051 ,32.58080 
124 ,22.5743 ,0.82001 ,3.30339 ,32.41290 
125 ,22.7663 ,0.82190 ,3.30682 ,32.44648 
126 ,22.9425 ,0.82364 ,3.27944 ,32.17786 
127 ,23.1185 ,0.82544 ,3.27259 ,32.11070 
128 ,23.2945 ,0.82715 ,3.24180 ,31.80849 
129 ,23.4865 ,0.82900 ,3.23153 ,31.70776 
130 ,23.6625 ,0.83085 ,3.22126 ,31.60702 
131 ,23.8228 ,0.83259 ,3.19046 ,31.30482 
132 ,23.9988 ,0.83425 ,3.18704 ,31.27124 
133 ,24.1749 ,0.83594 ,3.18020 ,31.20409 
134 ,24.3671 ,0.83782 ,3.15282 ,30.93546 
135 ,24.5431 ,0.83968 ,3.13571 ,30.76757 
136 ,24.7512 ,0.84177 ,3.11860 ,30.59968 
137 ,24.9432 ,0.84363 ,3.09122 ,30.33105 
138 ,25.1354 ,0.84559 ,3.08780 ,30.29747 
139 ,25.3114 ,0.84738 ,3.08780 ,30.29747 
140 ,25.4873 ,0.84908 ,3.07069 ,30.12958 
141 ,25.6796 ,0.85095 ,3.05015 ,29.92811 
142 ,25.8554 ,0.85280 ,3.02278 ,29.65948 
143 ,26.0478 ,0.85465 ,3.02278 ,29.65948 
144 ,26.2397 ,0.85661 ,2.97829 ,29.22297 
145 ,26.4318 ,0.85841 ,2.99198 ,29.35728 
146 ,26.6080 ,0.86031 ,2.97487 ,29.18939 
147 ,26.7999 ,0.86214 ,2.94749 ,28.92076 
148 ,26.9920 ,0.86416 ,2.93722 ,28.82003 
149 ,27.1839 ,0.86595 ,2.92011 ,28.65213 
150 ,27.3761 ,0.86799 ,2.91327 ,28.58498 
151 ,27.5523 ,0.86971 ,2.89958 ,28.45066 
152 ,27.7284 ,0.87152 ,2.87905 ,28.24919 
153 ,27.9043 ,0.87332 ,2.85167 ,27.98057 
154 ,28.0966 ,0.87520 ,2.83456 ,27.81268 
155 ,28.2724 ,0.87694 ,2.82771 ,27.74552 
156 ,28.4487 ,0.87867 ,2.82087 ,27.67836 
157 ,28.6407 ,0.88063 ,2.76954 ,27.17469 
158 ,28.8168 ,0.88240 ,2.77638 ,27.24185 
159 ,28.9929 ,0.88415 ,2.77296 ,27.20827 
160 ,29.1690 ,0.88590 ,2.75243 ,27.00680 
161 ,29.3611 ,0.88786 ,2.73531 ,26.83891 
162 ,29.5370 ,0.88956 ,2.71478 ,26.63744 
163 ,29.7133 ,0.89134 ,2.71136 ,26.60386 
164 ,29.9049 ,0.89323 ,2.67714 ,26.26807 
165 ,30.0810 ,0.89503 ,2.66003 ,26.10018 
166 ,30.2574 ,0.89676 ,2.64634 ,25.96587 
167 ,30.4335 ,0.89857 ,2.64976 ,25.99945 
168 ,30.6254 ,0.90048 ,2.61554 ,25.66367 
169 ,30.8016 ,0.90223 ,2.59501 ,25.46220 
170 ,30.9773 ,0.90395 ,2.60185 ,25.52935 
171 ,31.1535 ,0.90571 ,2.57789 ,25.29430 
172 ,31.3135 ,0.90749 ,2.55052 ,25.02568 
173 ,31.4897 ,0.90914 ,2.54025 ,24.92494 
174 ,31.6820 ,0.91102 ,2.52314 ,24.75705 
175 ,31.8579 ,0.91277 ,2.51972 ,24.72347 
176 ,32.0342 ,0.91457 ,2.50261 ,24.55558 
177 ,32.2258 ,0.91648 ,2.47523 ,24.28696 
178 ,32.4023 ,0.91823 ,2.45127 ,24.05191 
179 ,32.5943 ,0.92013 ,2.46496 ,24.18622 
180 ,32.7865 ,0.92199 ,2.42732 ,23.81686 
181 ,33.0105 ,0.92416 ,2.42390 ,23.78328 
182 ,33.1865 ,0.92607 ,2.40336 ,23.58181 
183 ,33.3623 ,0.92778 ,2.38283 ,23.38034 
184 ,33.5387 ,0.92959 ,2.37256 ,23.27961 
185 ,33.7149 ,0.93131 ,2.35888 ,23.14529 
186 ,33.8909 ,0.93313 ,2.33492 ,22.91024 
187 ,34.0828 ,0.93502 ,2.32808 ,22.84309 
188 ,34.2591 ,0.93680 ,2.31439 ,22.70877 
189 ,34.4509 ,0.93872 ,2.29385 ,22.50731 
190 ,34.6432 ,0.94063 ,2.28017 ,22.37299 
191 ,34.8351 ,0.94247 ,2.26306 ,22.20510 
192 ,35.0273 ,0.94448 ,2.24937 ,22.07079 
193 ,35.1873 ,0.94617 ,2.22883 ,21.86932 
194 ,35.3631 ,0.94780 ,2.18777 ,21.46638 
195 ,35.5396 ,0.94961 ,2.20830 ,21.66785 
196 ,35.7157 ,0.95138 ,2.19119 ,21.49996 
197 ,35.9078 ,0.95320 ,2.17066 ,21.29849 
198 ,36.0996 ,0.95514 ,2.15355 ,21.13059 
199 ,36.2758 ,0.95696 ,2.14328 ,21.02986 
200 ,36.4516 ,0.95869 ,2.11932 ,20.79481 
201 ,36.6280 ,0.96047 ,2.09537 ,20.55976 
202 ,36.8040 ,0.96219 ,2.08510 ,20.45903 
203 ,36.9962 ,0.96413 ,2.09537 ,20.55976 
204 ,37.1721 ,0.96591 ,2.08510 ,20.45903 
205 ,37.3484 ,0.96770 ,2.04746 ,20.08967 
206 ,37.5402 ,0.96958 ,2.04404 ,20.05609 
207 ,37.7166 ,0.97136 ,2.03719 ,19.98893 
208 ,37.9084 ,0.97321 ,1.99955 ,19.61957 
209 ,38.1007 ,0.97513 ,1.99613 ,19.58599 
210 ,38.2766 ,0.97696 ,1.99270 ,19.55241 
211 ,38.4526 ,0.97869 ,1.95848 ,19.21663 
212 ,38.6128 ,0.98038 ,1.94479 ,19.08232 
213 ,38.7891 ,0.98210 ,1.91742 ,18.81369 
214 ,38.9649 ,0.98382 ,1.92426 ,18.88085 
215 ,39.1411 ,0.98558 ,1.91399 ,18.78011 
216 ,39.3331 ,0.98749 ,1.89688 ,18.61222 
217 ,39.5091 ,0.98923 ,1.86951 ,18.34360 
218 ,39.7013 ,0.99121 ,1.87293 ,18.37717 
219 ,39.9251 ,0.99327 ,1.86608 ,18.31002 
220 ,40.1174 ,0.99526 ,1.83528 ,18.00781 
221 ,40.2936 ,0.99707 ,1.80106 ,17.67203 
222 ,40.4697 ,0.99892 ,1.78737 ,17.53772 
223 ,40.6613 ,1.00076 ,1.80106 ,17.67203 
224 ,40.8378 ,1.00259 ,1.78737 ,17.53772 
225 ,41.0297 ,1.00443 ,1.74973 ,17.16836 
226 ,41.2219 ,1.00635 ,1.75315 ,17.20193 
227 ,41.3979 ,1.00815 ,1.74289 ,17.10120 
228 ,41.5741 ,1.00994 ,1.71551 ,16.83257 
229 ,41.7500 ,1.01170 ,1.69498 ,16.63110 
230 ,41.9263 ,1.01344 ,1.69498 ,16.63110 
231 ,42.1023 ,1.01522 ,1.68471 ,16.53037 
232 ,42.3103 ,1.01723 ,1.66418 ,16.32890 
233 ,42.4865 ,1.01904 ,1.65049 ,16.19458 
234 ,42.6624 ,1.02078 ,1.64364 ,16.12743 
235 ,42.8385 ,1.02255 ,1.61969 ,15.89238 
236 ,43.0149 ,1.02431 ,1.59916 ,15.69091 
237 ,43.1907 ,1.02608 ,1.59573 ,15.65733 
238 ,43.3668 ,1.02782 ,1.58204 ,15.52302 
239 ,43.5430 ,1.02960 ,1.58889 ,15.59018 
240 ,43.7188 ,1.03135 ,1.55809 ,15.28797 
241 ,43.8788 ,1.03306 ,1.53756 ,15.08650 
242 ,44.0550 ,1.03469 ,1.52729 ,14.98577 
243 ,44.2312 ,1.03648 ,1.49991 ,14.71714 
244 ,44.4233 ,1.03839 ,1.51360 ,14.85145 
245 ,44.5994 ,1.04018 ,1.49991 ,14.71714 
246 ,44.7914 ,1.04209 ,1.48622 ,14.58283 
247 ,44.9835 ,1.04390 ,1.46911 ,14.41493 
248 ,45.1596 ,1.04574 ,1.45885 ,14.31420 
249 ,45.3517 ,1.04760 ,1.42805 ,14.01199 
250 ,45.5437 ,1.04948 ,1.43831 ,14.11273 
251 ,45.7199 ,1.05142 ,1.40751 ,13.81053 
252 ,45.9276 ,1.05329 ,1.38356 ,13.57548 
253 ,46.1040 ,1.05520 ,1.39040 ,13.64263 
254 ,46.2961 ,1.05715 ,1.35618 ,13.30685 
255 ,46.4721 ,1.05889 ,1.34249 ,13.17254 
256 ,46.6482 ,1.06062 ,1.35276 ,13.27327 
257 ,46.8563 ,1.06260 ,1.33223 ,13.07180 
258 ,47.0320 ,1.06447 ,1.31169 ,12.87033 
259 ,47.2080 ,1.06623 ,1.30143 ,12.76960 
260 ,47.3683 ,1.06797 ,1.30143 ,12.76960 
261 ,47.5285 ,1.06955 ,1.28089 ,12.56813 
262 ,47.7047 ,1.07116 ,1.27405 ,12.50097 
263 ,47.8967 ,1.07314 ,1.23983 ,12.16519 
264 ,48.0726 ,1.07482 ,1.23298 ,12.09803 
265 ,48.2489 ,1.07664 ,1.22614 ,12.03088 
266 ,48.4248 ,1.07843 ,1.21245 ,11.89656 
267 ,48.6171 ,1.08021 ,1.20903 ,11.86298 
268 ,48.8092 ,1.08222 ,1.18850 ,11.66151 
269 ,48.9851 ,1.08404 ,1.17823 ,11.56078 
270 ,49.1610 ,1.08572 ,1.14058 ,11.19142 
271 ,49.3372 ,1.08756 ,1.13716 ,11.15784 
272 ,49.5130 ,1.08929 ,1.13716 ,11.15784 
273 ,49.6894 ,1.09104 ,1.12005 ,10.98995 
274 ,49.8654 ,1.09277 ,1.11663 ,10.95637 
275 ,50.0735 ,1.09481 ,1.09952 ,10.78848 
276 ,50.2336 ,1.09658 ,1.08925 ,10.68774 
277 ,50.4098 ,1.09827 ,1.07899 ,10.58701 
278 ,50.5857 ,1.10003 ,1.05845 ,10.38554 
279 ,50.7619 ,1.10172 ,1.03792 ,10.18407 
280 ,50.9381 ,1.10356 ,1.02081 ,10.01618 
281 ,51.1300 ,1.10540 ,1.03450 ,10.15049 
282 ,51.3221 ,1.10732 ,1.00028 ,9.81471 
283 ,51.5141 ,1.10923 ,1.00370 ,9.84829 
284 ,51.6903 ,1.11101 ,0.98317 ,9.64682 
285 ,51.8821 ,1.11292 ,0.95921 ,9.41177 
286 ,52.0744 ,1.11484 ,0.95237 ,9.34461 
287 ,52.2502 ,1.11663 ,0.94552 ,9.27745 
288 ,52.4423 ,1.11850 ,0.91472 ,8.97525 
289 ,52.6185 ,1.12029 ,0.90788 ,8.90809 
290 ,52.7947 ,1.12204 ,0.90446 ,8.87451 
291 ,52.9866 ,1.12401 ,0.88734 ,8.70662 
292 ,53.1628 ,1.12574 ,0.87366 ,8.57231 
293 ,53.3387 ,1.12752 ,0.85997 ,8.43800 
294 ,53.5309 ,1.12940 ,0.86339 ,8.47158 
295 ,53.7230 ,1.13135 ,0.82575 ,8.10221 
296 ,53.8991 ,1.13315 ,0.81890 ,8.03506 
297 ,54.0751 ,1.13484 ,0.81890 ,8.03506 
298 ,54.2511 ,1.13665 ,0.81206 ,7.96790 
299 ,54.4430 ,1.13851 ,0.77784 ,7.63212 
300 ,54.6196 ,1.14032 ,0.76415 ,7.49780 
301 ,54.8117 ,1.14226 ,0.76415 ,7.49780 
302 ,55.0036 ,1.14414 ,0.73677 ,7.22918 
303 ,55.1797 ,1.14595 ,0.74361 ,7.29633 
304 ,55.3557 ,1.14766 ,0.71966 ,7.06129 
305 ,55.5318 ,1.14940 ,0.72650 ,7.12844 
306 ,55.7077 ,1.15118 ,0.70597 ,6.92697 
307 ,55.8840 ,1.15294 ,0.67517 ,6.62477 
308 ,56.0599 ,1.15475 ,0.66148 ,6.49046 
309 ,56.2361 ,1.15648 ,0.66833 ,6.55761 
310 ,56.4122 ,1.15825 ,0.66490 ,6.52403 
311 ,56.5879 ,1.15995 ,0.64095 ,6.28899 
312 ,56.7643 ,1.16174 ,0.63068 ,6.18825 
313 ,56.9404 ,1.16348 ,0.60330 ,5.91962 
314 ,57.1320 ,1.16545 ,0.61357 ,6.02036 
315 ,57.3086 ,1.16718 ,0.58619 ,5.75173 
316 ,57.5006 ,1.16911 ,0.57935 ,5.68458 
317 ,57.7089 ,1.17104 ,0.55539 ,5.44953 
318 ,57.9006 ,1.17311 ,0.54513 ,5.34879 
319 ,58.0768 ,1.17485 ,0.55539 ,5.44953 
320 ,58.2529 ,1.17658 ,0.53828 ,5.28164 
321 ,58.4292 ,1.17838 ,0.51433 ,5.04659 
322 ,58.6209 ,1.18034 ,0.50406 ,4.94585 
323 ,58.7972 ,1.18209 ,0.49037 ,4.81154 
324 ,58.9732 ,1.18386 ,0.50064 ,4.91228 
325 ,59.1651 ,1.18571 ,0.47326 ,4.64365 
326 ,59.3414 ,1.18753 ,0.46300 ,4.54291 
327 ,59.5333 ,1.18937 ,0.45615 ,4.47576 
328 ,59.7096 ,1.19117 ,0.43904 ,4.30787 
329 ,59.9016 ,1.19307 ,0.43904 ,4.30787 
330 ,60.0775 ,1.19488 ,0.42877 ,4.20713 
331 ,60.2538 ,1.19665 ,0.41851 ,4.10640 
332 ,60.4299 ,1.19837 ,0.39455 ,3.87135 
333 ,60.6059 ,1.20015 ,0.37402 ,3.66988 
334 ,60.7818 ,1.20193 ,0.37060 ,3.63630 
335 ,60.9741 ,1.20382 ,0.36375 ,3.56914 
336 ,61.1661 ,1.20566 ,0.33980 ,3.33410 
337 ,61.3421 ,1.20751 ,0.35006 ,3.43483 
338 ,61.5179 ,1.20923 ,0.32953 ,3.23336 
339 ,61.6944 ,1.21104 ,0.32611 ,3.19978 
340 ,61.8700 ,1.21282 ,0.32269 ,3.16620 
341 ,62.0465 ,1.21455 ,0.29189 ,2.86400 
342 ,62.2705 ,1.21664 ,0.27820 ,2.72969 
343 ,62.4628 ,1.21866 ,0.26793 ,2.62895 
344 ,62.6388 ,1.22050 ,0.27478 ,2.69611 
345 ,62.8469 ,1.22238 ,0.26451 ,2.59537 
346 ,63.0068 ,1.22427 ,0.24055 ,2.36032 
347 ,63.1830 ,1.22592 ,0.23371 ,2.29317 
348 ,63.3909 ,1.22793 ,0.20291 ,1.99096 
349 ,63.5672 ,1.22978 ,0.20633 ,2.02454 
350 ,63.7431 ,1.23152 ,0.19607 ,1.92381 
351 ,63.9192 ,1.23335 ,0.18580 ,1.82307 
352 ,64.0953 ,1.23500 ,0.18238 ,1.78949 
353 ,64.2875 ,1.23693 ,0.15842 ,1.55445 
354 ,64.4796 ,1.23878 ,0.13789 ,1.35298 
355 ,64.6557 ,1.24066 ,0.16185 ,1.58802 
356 ,64.8797 ,1.24277 ,0.12762 ,1.25224 
357 ,65.0554 ,1.24461 ,0.12420 ,1.21866 
358 ,65.2319 ,1.24641 ,0.11051 ,1.08435 
359 ,65.4241 ,1.24834 ,0.11051 ,1.08435 
360 ,65.6161 ,1.25025 ,0.08656 ,0.84930 
361 ,65.8241 ,1.25223 ,0.08998 ,0.88288 
362 ,66.0002 ,1.25408 ,0.07287 ,0.71499 
363 ,66.2243 ,1.25618 ,0.05576 ,0.54710 
364 ,66.4167 ,1.25821 ,0.04891 ,0.47994 
365 ,66.5925 ,1.26004 ,0.02838 ,0.27847 
366 ,66.7840 ,1.26189 ,0.01811 ,0.17773 
367 ,66.9441 ,1.26361 ,0.00785 ,0.07700 
368 ,67.1202 ,1.26525 ,0.00100 ,0.00984 
369 ,67.3128 ,1.26711 ,-0.01611 ,-0.15805 
370 ,67.5045 ,1.26909 ,-0.01953 ,-0.19163 
371 ,67.6808 ,1.27083 ,-0.03322 ,-0.32594 
372 ,67.8731 ,1.27274 ,-0.05033 ,-0.49383 
373 ,68.0649 ,1.27466 ,-0.04691 ,-0.46025 
374 ,68.2407 ,1.27644 ,-0.06060 ,-0.59457 
375 ,68.4170 ,1.27823 ,-0.05717 ,-0.56099 
376 ,68.5932 ,1.28001 ,-0.07771 ,-0.76246 
377 ,68.7693 ,1.28177 ,-0.09824 ,-0.96393 
378 ,68.9454 ,1.28355 ,-0.09482 ,-0.93035 
379 ,69.1373 ,1.28537 ,-0.11535 ,-1.13182 
380 ,69.3134 ,1.28720 ,-0.12562 ,-1.23255 
381 ,69.5057 ,1.28899 ,-0.12562 ,-1.23255 
382 ,69.6976 ,1.29102 ,-0.13246 ,-1.29971 
383 ,69.8737 ,1.29281 ,-0.14957 ,-1.46760 
384 ,70.0658 ,1.29466 ,-0.15299 ,-1.50118 
385 ,70.2739 ,1.29679 ,-0.16668 ,-1.63549 
386 ,70.4501 ,1.29852 ,-0.18037 ,-1.76981 
387 ,70.6581 ,1.30059 ,-0.17353 ,-1.70265 
388 ,70.8502 ,1.30253 ,-0.19064 ,-1.87054 
389 ,71.0423 ,1.30447 ,-0.19064 ,-1.87054 
390 ,71.2342 ,1.30642 ,-0.23170 ,-2.27348 
391 ,71.4104 ,1.30817 ,-0.23513 ,-2.30706 
392 ,71.5862 ,1.30988 ,-0.22828 ,-2.23990 
393 ,71.7785 ,1.31183 ,-0.23855 ,-2.34064 
394 ,71.9545 ,1.31362 ,-0.25566 ,-2.50853 
395 ,72.1466 ,1.31543 ,-0.26250 ,-2.57569 
396 ,72.3387 ,1.31740 ,-0.27619 ,-2.71000 
397 ,72.5146 ,1.31915 ,-0.28304 ,-2.77716 
398 ,72.6911 ,1.32095 ,-0.29673 ,-2.91147 
399 ,72.8669 ,1.32270 ,-0.30699 ,-3.01220 
400 ,73.0429 ,1.32442 ,-0.30357 ,-2.97863 
401 ,73.2671 ,1.32661 ,-0.31384 ,-3.07936 
402 ,73.4428 ,1.32849 ,-0.31726 ,-3.11294 
403 ,73.6194 ,1.33022 ,-0.33437 ,-3.28083 
404 ,73.8433 ,1.33232 ,-0.34464 ,-3.38156 
405 ,74.0195 ,1.33428 ,-0.35832 ,-3.51588 
406 ,74.1954 ,1.33600 ,-0.37886 ,-3.71735 
407 ,74.3715 ,1.33773 ,-0.38912 ,-3.81808 
408 ,74.5473 ,1.33954 ,-0.38912 ,-3.81808 
409 ,74.7397 ,1.34137 ,-0.38912 ,-3.81808 
410 ,74.9158 ,1.34323 ,-0.40281 ,-3.95240 
411 ,75.0917 ,1.34495 ,-0.41992 ,-4.12029 
412 ,75.2679 ,1.34674 ,-0.41992 ,-4.12029 
413 ,75.4441 ,1.34846 ,-0.41650 ,-4.08671 
414 ,75.6357 ,1.35038 ,-0.44388 ,-4.35534 
415 ,75.8121 ,1.35219 ,-0.46441 ,-4.55681 
416 ,75.9882 ,1.35391 ,-0.45072 ,-4.42249 
417 ,76.1644 ,1.35569 ,-0.46099 ,-4.52323 
418 ,76.3404 ,1.35747 ,-0.46783 ,-4.59038 
419 ,76.5164 ,1.35929 ,-0.47810 ,-4.69112 
420 ,76.7082 ,1.36109 ,-0.48152 ,-4.72470 
421 ,76.8845 ,1.36289 ,-0.49179 ,-4.82543 
422 ,77.0767 ,1.36481 ,-0.50890 ,-4.99332 
423 ,77.2687 ,1.36675 ,-0.51232 ,-5.02690 
424 ,77.4449 ,1.36850 ,-0.50890 ,-4.99332 
425 ,77.6209 ,1.37025 ,-0.52601 ,-5.16121 
426 ,77.7970 ,1.37195 ,-0.53285 ,-5.22837 
427 ,77.9731 ,1.37378 ,-0.54997 ,-5.39626 
428 ,78.1811 ,1.37576 ,-0.54997 ,-5.39626 
429 ,78.3571 ,1.37759 ,-0.57392 ,-5.63131 
430 ,78.5333 ,1.37934 ,-0.58077 ,-5.69847 
431 ,78.7093 ,1.38111 ,-0.57734 ,-5.66489 
432 ,78.8854 ,1.38299 ,-0.58761 ,-5.76562 
433 ,79.0613 ,1.38463 ,-0.59788 ,-5.86636 
434 ,79.2537 ,1.38653 ,-0.60130 ,-5.89994 
435 ,79.4457 ,1.38851 ,-0.60472 ,-5.93352 
436 ,79.6218 ,1.39026 ,-0.61841 ,-6.06783 
437 ,79.8299 ,1.39217 ,-0.62868 ,-6.16856 
438 ,80.0220 ,1.39420 ,-0.65263 ,-6.40361 
439 ,80.2138 ,1.39616 ,-0.65605 ,-6.43719 
440 ,80.3899 ,1.39791 ,-0.66290 ,-6.50435 
441 ,80.5821 ,1.39981 ,-0.67659 ,-6.63866 
442 ,80.7740 ,1.40167 ,-0.68343 ,-6.70582 
443 ,80.9662 ,1.40367 ,-0.66632 ,-6.53793 
444 ,81.1421 ,1.40543 ,-0.70054 ,-6.87371 
445 ,81.3343 ,1.40733 ,-0.69712 ,-6.84013 
446 ,81.5263 ,1.40918 ,-0.70054 ,-6.87371 
447 ,81.7186 ,1.41109 ,-0.71765 ,-7.04160 
448 ,81.8946 ,1.41294 ,-0.74161 ,-7.27665 
449 ,82.1188 ,1.41504 ,-0.73476 ,-7.20949 
450 ,82.3269 ,1.41723 ,-0.73818 ,-7.24307 
451 ,82.5029 ,1.41908 ,-0.75530 ,-7.41096 
452 ,82.6790 ,1.42081 ,-0.78267 ,-7.67959 
453 ,82.8711 ,1.42268 ,-0.76898 ,-7.54527 
454 ,83.0467 ,1.42445 ,-0.77583 ,-7.61243 
455 ,83.2232 ,1.42626 ,-0.79978 ,-7.84748 
456 ,83.3992 ,1.42804 ,-0.78610 ,-7.71317 
457 ,83.5753 ,1.42975 ,-0.80663 ,-7.91464 
458 ,83.7514 ,1.43157 ,-0.81689 ,-8.01537 
459 ,83.9274 ,1.43326 ,-0.81347 ,-7.98179 
460 ,84.1032 ,1.43504 ,-0.82716 ,-8.11611 
461 ,84.2796 ,1.43680 ,-0.85112 ,-8.35115 
462 ,84.4557 ,1.43856 ,-0.84085 ,-8.25042 
463 ,84.6156 ,1.44027 ,-0.84427 ,-8.28400 
