Data stamp = , 01-04-2022 18:06:56 623

Calibration Values: 
Slope = , 26.54 , g/V 
Offset Voltage at no contact = , -0.501760 , V 

No , Time , Stage Position ,   Mass , Force 
   ,  (s) ,      (mm)      ,   (g)  , (mN)  

1 ,0.0000 ,0.64943 ,5.07265 ,49.77289 
2 ,0.2139 ,0.64950 ,5.06923 ,49.73931 
3 ,0.5185 ,0.65027 ,5.05897 ,49.63857 
4 ,0.7263 ,0.65173 ,5.07265 ,49.77289 
5 ,0.9185 ,0.65345 ,5.08292 ,49.87362 
6 ,1.1107 ,0.65517 ,5.07950 ,49.84004 
7 ,1.3186 ,0.65728 ,5.08977 ,49.94078 
8 ,1.4948 ,0.65912 ,5.06581 ,49.70573 
9 ,1.6864 ,0.66096 ,5.04870 ,49.53784 
10 ,1.8630 ,0.66284 ,5.05212 ,49.57142 
11 ,2.0549 ,0.66470 ,5.02132 ,49.26921 
12 ,2.2312 ,0.66654 ,5.00763 ,49.13490 
13 ,2.4231 ,0.66844 ,5.00079 ,49.06774 
14 ,2.5991 ,0.67020 ,5.01106 ,49.16848 
15 ,2.7912 ,0.67217 ,4.98026 ,48.86627 
16 ,2.9832 ,0.67400 ,4.96999 ,48.76554 
17 ,3.1595 ,0.67582 ,4.95630 ,48.63122 
18 ,3.3351 ,0.67756 ,4.94603 ,48.53049 
19 ,3.5113 ,0.67929 ,4.91523 ,48.22828 
20 ,3.6873 ,0.68106 ,4.89812 ,48.06039 
21 ,3.8637 ,0.68278 ,4.89128 ,47.99324 
22 ,4.0558 ,0.68472 ,4.89470 ,48.02681 
23 ,4.2320 ,0.68654 ,4.88786 ,47.95966 
24 ,4.4240 ,0.68836 ,4.86048 ,47.69103 
25 ,4.6001 ,0.69020 ,4.85021 ,47.59030 
26 ,4.7761 ,0.69199 ,4.82626 ,47.35525 
27 ,4.9520 ,0.69371 ,4.81257 ,47.22093 
28 ,5.1444 ,0.69563 ,4.78519 ,46.95231 
29 ,5.3364 ,0.69747 ,4.78177 ,46.91873 
30 ,5.5285 ,0.69945 ,4.73728 ,46.48221 
31 ,5.7205 ,0.70133 ,4.72702 ,46.38148 
32 ,5.8963 ,0.70310 ,4.73386 ,46.44863 
33 ,6.0726 ,0.70492 ,4.71333 ,46.24716 
34 ,6.2645 ,0.70686 ,4.67568 ,45.87780 
35 ,6.4406 ,0.70855 ,4.66884 ,45.81065 
36 ,6.6330 ,0.71054 ,4.64146 ,45.54202 
37 ,6.8248 ,0.71242 ,4.61751 ,45.30697 
38 ,7.0010 ,0.71416 ,4.61066 ,45.23981 
39 ,7.1771 ,0.71588 ,4.58671 ,45.00477 
40 ,7.3532 ,0.71769 ,4.58671 ,45.00477 
41 ,7.5293 ,0.71946 ,4.55591 ,44.70256 
42 ,7.7215 ,0.72142 ,4.52853 ,44.43394 
43 ,7.9134 ,0.72333 ,4.52169 ,44.36678 
44 ,8.0735 ,0.72500 ,4.49089 ,44.06457 
45 ,8.2492 ,0.72662 ,4.49089 ,44.06457 
46 ,8.4257 ,0.72844 ,4.46351 ,43.79595 
47 ,8.6176 ,0.73032 ,4.45666 ,43.72879 
48 ,8.8259 ,0.73231 ,4.43613 ,43.52732 
49 ,9.0019 ,0.73423 ,4.38822 ,43.05723 
50 ,9.1940 ,0.73608 ,4.39849 ,43.15796 
51 ,9.3861 ,0.73808 ,4.36769 ,42.85576 
52 ,9.5619 ,0.73983 ,4.35400 ,42.72144 
53 ,9.7380 ,0.74152 ,4.33347 ,42.51997 
54 ,9.9140 ,0.74331 ,4.32662 ,42.45282 
55 ,10.0900 ,0.74502 ,4.31293 ,42.31850 
56 ,10.2661 ,0.74684 ,4.29240 ,42.11703 
57 ,10.4583 ,0.74872 ,4.26160 ,41.81483 
58 ,10.6504 ,0.75061 ,4.25818 ,41.78125 
59 ,10.8266 ,0.75242 ,4.23422 ,41.54620 
60 ,11.0027 ,0.75423 ,4.21027 ,41.31115 
61 ,11.1784 ,0.75601 ,4.19316 ,41.14326 
62 ,11.3549 ,0.75774 ,4.17605 ,40.97537 
63 ,11.5469 ,0.75961 ,4.17262 ,40.94179 
64 ,11.7231 ,0.76144 ,4.14183 ,40.63959 
65 ,11.9150 ,0.76328 ,4.13840 ,40.60601 
66 ,12.0912 ,0.76506 ,4.12471 ,40.47170 
67 ,12.2832 ,0.76700 ,4.09391 ,40.16949 
68 ,12.4592 ,0.76874 ,4.06996 ,39.93444 
69 ,12.6349 ,0.77051 ,4.05285 ,39.76655 
70 ,12.8115 ,0.77226 ,4.04600 ,39.69940 
71 ,12.9874 ,0.77405 ,4.03574 ,39.59866 
72 ,13.1637 ,0.77576 ,4.00836 ,39.33003 
73 ,13.3395 ,0.77758 ,3.97756 ,39.02783 
74 ,13.4996 ,0.77924 ,3.98783 ,39.12856 
75 ,13.6757 ,0.78091 ,3.96045 ,38.85994 
76 ,13.8519 ,0.78269 ,3.93992 ,38.65847 
77 ,14.0280 ,0.78444 ,3.93992 ,38.65847 
78 ,14.2361 ,0.78648 ,3.90227 ,38.28911 
79 ,14.4121 ,0.78829 ,3.88858 ,38.15479 
80 ,14.5880 ,0.79001 ,3.86805 ,37.95332 
81 ,14.7642 ,0.79176 ,3.85094 ,37.78543 
82 ,14.9561 ,0.79371 ,3.83041 ,37.58396 
83 ,15.1323 ,0.79548 ,3.80987 ,37.38249 
84 ,15.3084 ,0.79721 ,3.80645 ,37.34891 
85 ,15.4845 ,0.79894 ,3.77565 ,37.04671 
86 ,15.6765 ,0.80087 ,3.75170 ,36.81166 
87 ,15.8527 ,0.80269 ,3.73801 ,36.67735 
88 ,16.0287 ,0.80440 ,3.72774 ,36.57661 
89 ,16.2049 ,0.80619 ,3.71063 ,36.40872 
90 ,16.3809 ,0.80797 ,3.68325 ,36.14010 
91 ,16.5567 ,0.80972 ,3.66957 ,36.00578 
92 ,16.7490 ,0.81161 ,3.65246 ,35.83789 
93 ,16.9257 ,0.81337 ,3.64219 ,35.73716 
94 ,17.1012 ,0.81520 ,3.60797 ,35.40137 
95 ,17.2771 ,0.81693 ,3.59428 ,35.26706 
96 ,17.4533 ,0.81869 ,3.57375 ,35.06559 
97 ,17.6452 ,0.82057 ,3.56690 ,34.99843 
98 ,17.8375 ,0.82251 ,3.54295 ,34.76338 
99 ,18.0295 ,0.82441 ,3.52926 ,34.62907 
100 ,18.2056 ,0.82623 ,3.52241 ,34.56192 
101 ,18.4135 ,0.82813 ,3.48477 ,34.19255 
102 ,18.6056 ,0.83024 ,3.48819 ,34.22613 
103 ,18.7818 ,0.83191 ,3.44713 ,33.82319 
104 ,18.9578 ,0.83372 ,3.43344 ,33.68888 
105 ,19.1339 ,0.83550 ,3.41633 ,33.52099 
106 ,19.3260 ,0.83735 ,3.40948 ,33.45383 
107 ,19.5019 ,0.83913 ,3.38210 ,33.18520 
108 ,19.6781 ,0.84105 ,3.36157 ,32.98374 
109 ,19.8542 ,0.84266 ,3.32393 ,32.61437 
110 ,20.0303 ,0.84442 ,3.34104 ,32.78227 
111 ,20.2065 ,0.84621 ,3.32051 ,32.58080 
112 ,20.3821 ,0.84798 ,3.30339 ,32.41290 
113 ,20.5586 ,0.84974 ,3.28628 ,32.24501 
114 ,20.7185 ,0.85146 ,3.25206 ,31.90923 
115 ,20.8943 ,0.85306 ,3.24522 ,31.84207 
116 ,21.0868 ,0.85487 ,3.24522 ,31.84207 
117 ,21.2947 ,0.85700 ,3.21784 ,31.57345 
118 ,21.4708 ,0.85881 ,3.19731 ,31.37198 
119 ,21.6470 ,0.86057 ,3.19046 ,31.30482 
120 ,21.8232 ,0.86235 ,3.17335 ,31.13693 
121 ,22.0150 ,0.86429 ,3.14940 ,30.90188 
122 ,22.1912 ,0.86604 ,3.13571 ,30.76757 
123 ,22.3670 ,0.86784 ,3.11518 ,30.56610 
124 ,22.5434 ,0.86952 ,3.11175 ,30.53252 
125 ,22.7670 ,0.87166 ,3.06042 ,30.02884 
126 ,22.9435 ,0.87354 ,3.07411 ,30.16316 
127 ,23.1195 ,0.87538 ,3.06384 ,30.06242 
128 ,23.2956 ,0.87706 ,3.03304 ,29.76022 
129 ,23.4717 ,0.87883 ,3.00567 ,29.49159 
130 ,23.6479 ,0.88055 ,3.01593 ,29.59233 
131 ,23.8236 ,0.88238 ,3.00224 ,29.45801 
132 ,23.9998 ,0.88414 ,2.98171 ,29.25654 
133 ,24.1920 ,0.88603 ,2.93722 ,28.82003 
134 ,24.3679 ,0.88778 ,2.93038 ,28.75287 
135 ,24.5601 ,0.88968 ,2.92696 ,28.71929 
136 ,24.7363 ,0.89147 ,2.89616 ,28.41709 
137 ,24.9123 ,0.89325 ,2.88589 ,28.31635 
138 ,25.0884 ,0.89500 ,2.86878 ,28.14846 
139 ,25.2644 ,0.89670 ,2.85851 ,28.04772 
140 ,25.4405 ,0.89850 ,2.84140 ,27.87983 
141 ,25.6166 ,0.90029 ,2.82771 ,27.74552 
142 ,25.7925 ,0.90205 ,2.80034 ,27.47689 
143 ,26.0007 ,0.90406 ,2.79007 ,27.37616 
144 ,26.1767 ,0.90584 ,2.77296 ,27.20827 
145 ,26.3528 ,0.90761 ,2.74900 ,26.97322 
146 ,26.5289 ,0.90940 ,2.73874 ,26.87248 
147 ,26.7212 ,0.91132 ,2.73531 ,26.83891 
148 ,26.9292 ,0.91323 ,2.70794 ,26.57028 
149 ,27.1051 ,0.91521 ,2.68740 ,26.36881 
150 ,27.2811 ,0.91692 ,2.69083 ,26.40239 
151 ,27.4413 ,0.91861 ,2.66687 ,26.16734 
152 ,27.6330 ,0.92043 ,2.64292 ,25.93229 
153 ,27.8094 ,0.92222 ,2.61896 ,25.69724 
154 ,27.9854 ,0.92393 ,2.61896 ,25.69724 
155 ,28.1775 ,0.92580 ,2.60185 ,25.52935 
156 ,28.3376 ,0.92760 ,2.56763 ,25.19357 
157 ,28.5137 ,0.92924 ,2.55394 ,25.05926 
158 ,28.6898 ,0.93098 ,2.53341 ,24.85779 
159 ,28.8656 ,0.93273 ,2.53341 ,24.85779 
160 ,29.0259 ,0.93447 ,2.53341 ,24.85779 
161 ,29.2016 ,0.93610 ,2.50261 ,24.55558 
162 ,29.3616 ,0.93785 ,2.49576 ,24.48842 
163 ,29.5217 ,0.93942 ,2.48892 ,24.42127 
164 ,29.6979 ,0.94104 ,2.45470 ,24.08549 
165 ,29.8743 ,0.94283 ,2.44101 ,23.95117 
166 ,30.0663 ,0.94474 ,2.42048 ,23.74970 
167 ,30.2261 ,0.94645 ,2.41021 ,23.64897 
168 ,30.4191 ,0.94824 ,2.41363 ,23.68255 
169 ,30.5946 ,0.95005 ,2.37599 ,23.31318 
170 ,30.7868 ,0.95192 ,2.36230 ,23.17887 
171 ,30.9787 ,0.95388 ,2.36914 ,23.24603 
172 ,31.1547 ,0.95563 ,2.33492 ,22.91024 
173 ,31.3307 ,0.95744 ,2.33150 ,22.87667 
174 ,31.5230 ,0.95928 ,2.30412 ,22.60804 
175 ,31.6991 ,0.96108 ,2.28701 ,22.44015 
176 ,31.9070 ,0.96307 ,2.25963 ,22.17152 
177 ,32.0992 ,0.96505 ,2.25621 ,22.13794 
178 ,32.2589 ,0.96675 ,2.23226 ,21.90290 
179 ,32.4354 ,0.96844 ,2.22883 ,21.86932 
180 ,32.6115 ,0.97021 ,2.21172 ,21.70143 
181 ,32.8036 ,0.97210 ,2.18777 ,21.46638 
182 ,32.9797 ,0.97392 ,2.18777 ,21.46638 
183 ,33.1557 ,0.97563 ,2.17066 ,21.29849 
184 ,33.3318 ,0.97739 ,2.14670 ,21.06344 
185 ,33.5079 ,0.97916 ,2.12275 ,20.82839 
186 ,33.6838 ,0.98091 ,2.12275 ,20.82839 
187 ,33.8921 ,0.98287 ,2.10564 ,20.66050 
188 ,34.0681 ,0.98471 ,2.07141 ,20.32472 
189 ,34.2440 ,0.98655 ,2.06799 ,20.29114 
190 ,34.4207 ,0.98828 ,2.06115 ,20.22398 
191 ,34.6284 ,0.99026 ,2.04404 ,20.05609 
192 ,34.8044 ,0.99213 ,2.00982 ,19.72031 
193 ,34.9964 ,0.99398 ,2.02008 ,19.82104 
194 ,35.1886 ,0.99586 ,2.00297 ,19.65315 
195 ,35.3803 ,0.99778 ,1.97902 ,19.41810 
196 ,35.5725 ,0.99968 ,1.97902 ,19.41810 
197 ,35.7805 ,1.00182 ,1.94479 ,19.08232 
198 ,35.9569 ,1.00364 ,1.93795 ,19.01516 
199 ,36.1328 ,1.00542 ,1.92084 ,18.84727 
200 ,36.3088 ,1.00714 ,1.90715 ,18.71296 
201 ,36.4847 ,1.00895 ,1.87635 ,18.41075 
202 ,36.6611 ,1.01067 ,1.88319 ,18.47791 
203 ,36.8370 ,1.01248 ,1.86951 ,18.34360 
204 ,37.0292 ,1.01436 ,1.84897 ,18.14213 
205 ,37.2053 ,1.01612 ,1.82502 ,17.90708 
206 ,37.3653 ,1.01781 ,1.81133 ,17.77276 
207 ,37.5411 ,1.01947 ,1.80449 ,17.70561 
208 ,37.7172 ,1.02124 ,1.80449 ,17.70561 
209 ,37.8936 ,1.02301 ,1.77369 ,17.40340 
210 ,38.0694 ,1.02476 ,1.78053 ,17.47056 
211 ,38.2617 ,1.02666 ,1.74289 ,17.10120 
212 ,38.4378 ,1.02844 ,1.73262 ,17.00046 
213 ,38.6296 ,1.03033 ,1.71551 ,16.83257 
214 ,38.8059 ,1.03210 ,1.69840 ,16.66468 
215 ,38.9821 ,1.03384 ,1.69155 ,16.59752 
216 ,39.1900 ,1.03593 ,1.67444 ,16.42963 
217 ,39.3661 ,1.03772 ,1.66760 ,16.36248 
218 ,39.5423 ,1.03950 ,1.64364 ,16.12743 
219 ,39.7343 ,1.04137 ,1.63338 ,16.02669 
220 ,39.9265 ,1.04326 ,1.62653 ,15.95954 
221 ,40.1025 ,1.04507 ,1.60600 ,15.75807 
222 ,40.2946 ,1.04695 ,1.60258 ,15.72449 
223 ,40.4867 ,1.04881 ,1.57520 ,15.45586 
224 ,40.6626 ,1.05066 ,1.56151 ,15.32155 
225 ,40.8388 ,1.05243 ,1.54098 ,15.12008 
226 ,41.0469 ,1.05444 ,1.53756 ,15.08650 
227 ,41.2390 ,1.05644 ,1.52387 ,14.95219 
228 ,41.4148 ,1.05826 ,1.51360 ,14.85145 
229 ,41.5910 ,1.05995 ,1.50676 ,14.78430 
230 ,41.7668 ,1.06170 ,1.48280 ,14.54925 
231 ,41.9430 ,1.06348 ,1.45885 ,14.31420 
232 ,42.1354 ,1.06536 ,1.46569 ,14.38136 
233 ,42.3271 ,1.06725 ,1.45200 ,14.24704 
234 ,42.5035 ,1.06913 ,1.42462 ,13.97842 
235 ,42.6955 ,1.07097 ,1.42805 ,14.01199 
236 ,42.8716 ,1.07278 ,1.40751 ,13.81053 
237 ,43.0476 ,1.07448 ,1.39725 ,13.70979 
238 ,43.2396 ,1.07643 ,1.35960 ,13.34043 
239 ,43.4157 ,1.07814 ,1.35618 ,13.30685 
240 ,43.6079 ,1.08012 ,1.35618 ,13.30685 
241 ,43.7839 ,1.08184 ,1.32538 ,13.00465 
242 ,43.9437 ,1.08358 ,1.31512 ,12.90391 
243 ,44.1203 ,1.08525 ,1.30485 ,12.80318 
244 ,44.2962 ,1.08697 ,1.29458 ,12.70244 
245 ,44.4723 ,1.08878 ,1.30143 ,12.76960 
246 ,44.6643 ,1.09069 ,1.28432 ,12.60171 
247 ,44.8403 ,1.09245 ,1.26036 ,12.36666 
248 ,45.0164 ,1.09419 ,1.24667 ,12.23235 
249 ,45.2086 ,1.09615 ,1.24667 ,12.23235 
250 ,45.3846 ,1.09786 ,1.21245 ,11.89656 
251 ,45.5765 ,1.09976 ,1.21929 ,11.96372 
252 ,45.7686 ,1.10169 ,1.20218 ,11.79583 
253 ,45.9447 ,1.10349 ,1.17823 ,11.56078 
254 ,46.1368 ,1.10537 ,1.15770 ,11.35931 
255 ,46.3289 ,1.10735 ,1.16112 ,11.39289 
256 ,46.5210 ,1.10920 ,1.13716 ,11.15784 
257 ,46.6972 ,1.11101 ,1.12005 ,10.98995 
258 ,46.8892 ,1.11295 ,1.12690 ,11.05710 
259 ,47.0653 ,1.11467 ,1.10979 ,10.88921 
260 ,47.2413 ,1.11642 ,1.08241 ,10.62059 
261 ,47.4334 ,1.11832 ,1.08583 ,10.65416 
262 ,47.6094 ,1.12009 ,1.07214 ,10.51985 
263 ,47.7857 ,1.12190 ,1.04134 ,10.21765 
264 ,47.9778 ,1.12380 ,1.03108 ,10.11691 
265 ,48.1698 ,1.12564 ,1.02765 ,10.08333 
266 ,48.3615 ,1.12764 ,1.00028 ,9.81471 
267 ,48.5379 ,1.12940 ,0.98659 ,9.68039 
268 ,48.7141 ,1.13115 ,0.98659 ,9.68039 
269 ,48.8900 ,1.13293 ,0.97632 ,9.57966 
270 ,49.0662 ,1.13465 ,0.97974 ,9.61324 
271 ,49.2582 ,1.13659 ,0.93868 ,9.21030 
272 ,49.4342 ,1.13835 ,0.93183 ,9.14314 
273 ,49.6104 ,1.14011 ,0.92499 ,9.07598 
274 ,49.7865 ,1.14185 ,0.91472 ,8.97525 
275 ,49.9625 ,1.14364 ,0.90446 ,8.87451 
276 ,50.1386 ,1.14536 ,0.88050 ,8.63947 
277 ,50.3307 ,1.14729 ,0.88050 ,8.63947 
278 ,50.5227 ,1.14927 ,0.85997 ,8.43800 
279 ,50.6988 ,1.15097 ,0.84628 ,8.30368 
280 ,50.8908 ,1.15288 ,0.84628 ,8.30368 
281 ,51.0668 ,1.15466 ,0.83943 ,8.23653 
282 ,51.2428 ,1.15641 ,0.80863 ,7.93432 
283 ,51.4188 ,1.15819 ,0.80179 ,7.86717 
284 ,51.5951 ,1.16003 ,0.78126 ,7.66570 
285 ,51.7712 ,1.16177 ,0.76415 ,7.49780 
286 ,51.9792 ,1.16374 ,0.74361 ,7.29633 
287 ,52.1711 ,1.16561 ,0.75046 ,7.36349 
288 ,52.3474 ,1.16744 ,0.73677 ,7.22918 
289 ,52.5236 ,1.16919 ,0.71281 ,6.99413 
290 ,52.6995 ,1.17102 ,0.69228 ,6.79266 
291 ,52.8757 ,1.17279 ,0.68544 ,6.72550 
292 ,53.0518 ,1.17456 ,0.67517 ,6.62477 
293 ,53.2278 ,1.17629 ,0.67175 ,6.59119 
294 ,53.4194 ,1.17820 ,0.65464 ,6.42330 
295 ,53.5959 ,1.17994 ,0.62726 ,6.15467 
296 ,53.7720 ,1.18170 ,0.62042 ,6.08752 
297 ,53.9641 ,1.18362 ,0.62384 ,6.12109 
298 ,54.1402 ,1.18542 ,0.59646 ,5.85247 
299 ,54.3161 ,1.18721 ,0.56908 ,5.58384 
300 ,54.4923 ,1.18890 ,0.56908 ,5.58384 
301 ,54.6842 ,1.19081 ,0.56908 ,5.58384 
302 ,54.8765 ,1.19273 ,0.53828 ,5.28164 
303 ,55.0524 ,1.19454 ,0.52117 ,5.11375 
304 ,55.2445 ,1.19643 ,0.53144 ,5.21448 
305 ,55.4207 ,1.19817 ,0.50748 ,4.97943 
306 ,55.5967 ,1.19996 ,0.48695 ,4.77796 
307 ,55.7727 ,1.20170 ,0.47326 ,4.64365 
308 ,55.9490 ,1.20349 ,0.46984 ,4.61007 
309 ,56.1411 ,1.20541 ,0.45957 ,4.50934 
310 ,56.3171 ,1.20718 ,0.43904 ,4.30787 
311 ,56.4928 ,1.20888 ,0.43220 ,4.24071 
312 ,56.6689 ,1.21065 ,0.41509 ,4.07282 
313 ,56.8454 ,1.21242 ,0.40482 ,3.97208 
314 ,57.0214 ,1.21425 ,0.39797 ,3.90493 
315 ,57.2135 ,1.21614 ,0.37060 ,3.63630 
316 ,57.4054 ,1.21805 ,0.37402 ,3.66988 
317 ,57.6136 ,1.22002 ,0.35006 ,3.43483 
318 ,57.8056 ,1.22199 ,0.35006 ,3.43483 
319 ,57.9818 ,1.22382 ,0.33638 ,3.30052 
320 ,58.1735 ,1.22572 ,0.30900 ,3.03189 
321 ,58.3495 ,1.22745 ,0.30900 ,3.03189 
322 ,58.5261 ,1.22926 ,0.29873 ,2.93116 
323 ,58.7021 ,1.23101 ,0.28504 ,2.79684 
324 ,58.9101 ,1.23309 ,0.27135 ,2.66253 
325 ,59.0862 ,1.23484 ,0.25767 ,2.52822 
326 ,59.2623 ,1.23665 ,0.25082 ,2.46106 
327 ,59.4378 ,1.23835 ,0.24055 ,2.36032 
328 ,59.6143 ,1.24010 ,0.20291 ,1.99096 
329 ,59.8066 ,1.24200 ,0.21318 ,2.09170 
330 ,59.9985 ,1.24394 ,0.20291 ,1.99096 
331 ,60.1748 ,1.24569 ,0.19264 ,1.89023 
332 ,60.3506 ,1.24745 ,0.16185 ,1.58802 
333 ,60.5428 ,1.24927 ,0.16185 ,1.58802 
334 ,60.7344 ,1.25140 ,0.14816 ,1.45371 
335 ,60.9108 ,1.25305 ,0.12420 ,1.21866 
336 ,61.0869 ,1.25482 ,0.12420 ,1.21866 
337 ,61.2626 ,1.25662 ,0.11051 ,1.08435 
338 ,61.4390 ,1.25831 ,0.11051 ,1.08435 
339 ,61.6151 ,1.26013 ,0.08998 ,0.88288 
340 ,61.7909 ,1.26182 ,0.06945 ,0.68141 
341 ,61.9673 ,1.26366 ,0.05234 ,0.51352 
342 ,62.1434 ,1.26538 ,0.05576 ,0.54710 
343 ,62.3034 ,1.26711 ,0.05918 ,0.58067 
344 ,62.4796 ,1.26880 ,0.04549 ,0.44636 
345 ,62.6718 ,1.27070 ,0.01469 ,0.14416 
346 ,62.8474 ,1.27243 ,0.01469 ,0.14416 
347 ,63.0240 ,1.27422 ,0.00100 ,0.00984 
348 ,63.2155 ,1.27612 ,0.00443 ,0.04342 
349 ,63.3915 ,1.27788 ,-0.02637 ,-0.25878 
350 ,63.5518 ,1.27957 ,-0.03322 ,-0.32594 
351 ,63.7281 ,1.28119 ,-0.04348 ,-0.42667 
352 ,63.9200 ,1.28320 ,-0.04006 ,-0.39310 
353 ,64.0962 ,1.28492 ,-0.04691 ,-0.46025 
354 ,64.2882 ,1.28685 ,-0.06060 ,-0.59457 
355 ,64.4640 ,1.28861 ,-0.07428 ,-0.72888 
356 ,64.6404 ,1.29035 ,-0.06402 ,-0.62814 
357 ,64.8164 ,1.29214 ,-0.08797 ,-0.86319 
358 ,64.9920 ,1.29389 ,-0.08797 ,-0.86319 
359 ,65.1687 ,1.29564 ,-0.11193 ,-1.09824 
360 ,65.3604 ,1.29759 ,-0.11193 ,-1.09824 
361 ,65.5368 ,1.29931 ,-0.11193 ,-1.09824 
362 ,65.7289 ,1.30125 ,-0.15984 ,-1.56834 
363 ,65.9050 ,1.30304 ,-0.16326 ,-1.60191 
364 ,66.0810 ,1.30473 ,-0.16326 ,-1.60191 
365 ,66.2569 ,1.30652 ,-0.15642 ,-1.53476 
366 ,66.4330 ,1.30827 ,-0.16668 ,-1.63549 
367 ,66.6091 ,1.31008 ,-0.19406 ,-1.90412 
368 ,66.8013 ,1.31195 ,-0.20090 ,-1.97128 
369 ,66.9773 ,1.31374 ,-0.20775 ,-2.03843 
370 ,67.1534 ,1.31547 ,-0.21802 ,-2.13917 
371 ,67.3453 ,1.31738 ,-0.22828 ,-2.23990 
372 ,67.5215 ,1.31916 ,-0.23855 ,-2.34064 
373 ,67.6977 ,1.32092 ,-0.23855 ,-2.34064 
374 ,67.8738 ,1.32269 ,-0.23855 ,-2.34064 
375 ,68.0656 ,1.32464 ,-0.26250 ,-2.57569 
376 ,68.2418 ,1.32633 ,-0.28304 ,-2.77716 
377 ,68.4341 ,1.32829 ,-0.28304 ,-2.77716 
378 ,68.6262 ,1.33014 ,-0.30699 ,-3.01220 
379 ,68.8180 ,1.33213 ,-0.30015 ,-2.94505 
380 ,68.9941 ,1.33385 ,-0.31041 ,-3.04578 
381 ,69.1701 ,1.33565 ,-0.31384 ,-3.07936 
382 ,69.3462 ,1.33742 ,-0.32410 ,-3.18010 
383 ,69.5223 ,1.33929 ,-0.34121 ,-3.34799 
384 ,69.6985 ,1.34091 ,-0.34464 ,-3.38156 
385 ,69.8906 ,1.34276 ,-0.34806 ,-3.41514 
386 ,70.0827 ,1.34464 ,-0.37544 ,-3.68377 
387 ,70.2745 ,1.34668 ,-0.37886 ,-3.71735 
388 ,70.4508 ,1.34846 ,-0.37544 ,-3.68377 
389 ,70.6430 ,1.35037 ,-0.40966 ,-4.01955 
390 ,70.8192 ,1.35216 ,-0.41650 ,-4.08671 
391 ,71.0110 ,1.35404 ,-0.41650 ,-4.08671 
392 ,71.2032 ,1.35585 ,-0.42677 ,-4.18744 
393 ,71.3792 ,1.35771 ,-0.43361 ,-4.25460 
394 ,71.5713 ,1.35956 ,-0.42335 ,-4.15387 
395 ,71.7474 ,1.36137 ,-0.45414 ,-4.45607 
396 ,71.9240 ,1.36319 ,-0.45757 ,-4.48965 
397 ,72.1157 ,1.36509 ,-0.47126 ,-4.62396 
398 ,72.3077 ,1.36701 ,-0.47810 ,-4.69112 
399 ,72.4677 ,1.36873 ,-0.49521 ,-4.85901 
400 ,72.6438 ,1.37039 ,-0.49863 ,-4.89259 
401 ,72.8358 ,1.37229 ,-0.51574 ,-5.06048 
402 ,73.0118 ,1.37404 ,-0.50548 ,-4.95975 
403 ,73.2039 ,1.37587 ,-0.53285 ,-5.22837 
404 ,73.3799 ,1.37773 ,-0.53970 ,-5.29553 
405 ,73.5721 ,1.37959 ,-0.53970 ,-5.29553 
406 ,73.7642 ,1.38156 ,-0.56023 ,-5.49700 
407 ,73.9402 ,1.38332 ,-0.55339 ,-5.42984 
408 ,74.1162 ,1.38503 ,-0.56023 ,-5.49700 
409 ,74.2924 ,1.38686 ,-0.57734 ,-5.66489 
410 ,74.4840 ,1.38873 ,-0.59445 ,-5.83278 
411 ,74.6605 ,1.39054 ,-0.59788 ,-5.86636 
412 ,74.8365 ,1.39229 ,-0.61156 ,-6.00067 
413 ,75.0126 ,1.39402 ,-0.60814 ,-5.96709 
414 ,75.1888 ,1.39577 ,-0.60472 ,-5.93352 
415 ,75.3648 ,1.39758 ,-0.62868 ,-6.16856 
416 ,75.5405 ,1.39931 ,-0.64579 ,-6.33646 
417 ,75.7330 ,1.40112 ,-0.64579 ,-6.33646 
418 ,75.9253 ,1.40317 ,-0.64921 ,-6.37003 
419 ,76.1011 ,1.40497 ,-0.67316 ,-6.60508 
420 ,76.2929 ,1.40686 ,-0.66974 ,-6.57150 
421 ,76.4691 ,1.40861 ,-0.67316 ,-6.60508 
422 ,76.6611 ,1.41049 ,-0.70054 ,-6.87371 
423 ,76.8534 ,1.41247 ,-0.68685 ,-6.73940 
424 ,77.0295 ,1.41419 ,-0.69712 ,-6.84013 
425 ,77.2216 ,1.41613 ,-0.71423 ,-7.00802 
426 ,77.3976 ,1.41790 ,-0.72450 ,-7.10876 
427 ,77.5738 ,1.41959 ,-0.73134 ,-7.17591 
428 ,77.7336 ,1.42136 ,-0.73134 ,-7.17591 
429 ,77.9263 ,1.42310 ,-0.73476 ,-7.20949 
430 ,78.1019 ,1.42491 ,-0.75530 ,-7.41096 
431 ,78.2781 ,1.42667 ,-0.76898 ,-7.54527 
432 ,78.4701 ,1.42862 ,-0.76214 ,-7.47812 
433 ,78.6621 ,1.43052 ,-0.77925 ,-7.64601 
434 ,78.8539 ,1.43237 ,-0.77583 ,-7.61243 
435 ,79.0302 ,1.43419 ,-0.78267 ,-7.67959 
436 ,79.1903 ,1.43591 ,-0.78952 ,-7.74674 
437 ,79.3664 ,1.43754 ,-0.80663 ,-7.91464 
438 ,79.5585 ,1.43948 ,-0.83058 ,-8.14968 
439 ,79.7502 ,1.44129 ,-0.83058 ,-8.14968 
440 ,79.9427 ,1.44321 ,-0.82716 ,-8.11611 
441 ,80.1346 ,1.44525 ,-0.85112 ,-8.35115 
442 ,80.3108 ,1.44702 ,-0.85454 ,-8.38473 
443 ,80.5028 ,1.44878 ,-0.86138 ,-8.45189 
444 ,80.6790 ,1.45065 ,-0.87507 ,-8.58620 
445 ,80.8549 ,1.45241 ,-0.88534 ,-8.68694 
446 ,81.0311 ,1.45416 ,-0.87849 ,-8.61978 
447 ,81.2230 ,1.45611 ,-0.88876 ,-8.72051 
448 ,81.3991 ,1.45783 ,-0.90587 ,-8.88841 
449 ,81.5754 ,1.45965 ,-0.92298 ,-9.05630 
450 ,81.7515 ,1.46145 ,-0.91614 ,-8.98914 
451 ,81.9434 ,1.46331 ,-0.92983 ,-9.12345 
452 ,82.1197 ,1.46508 ,-0.94694 ,-9.29135 
453 ,82.2956 ,1.46684 ,-0.95378 ,-9.35850 
454 ,82.4715 ,1.46863 ,-0.95036 ,-9.32492 
455 ,82.6639 ,1.47053 ,-0.95378 ,-9.35850 
456 ,82.8556 ,1.47245 ,-0.97774 ,-9.59355 
457 ,83.0159 ,1.47413 ,-0.96063 ,-9.42566 
458 ,83.2079 ,1.47591 ,-0.97431 ,-9.55997 
459 ,83.3840 ,1.47771 ,-0.98458 ,-9.66071 
460 ,83.5602 ,1.47945 ,-0.99143 ,-9.72786 
461 ,83.7363 ,1.48127 ,-1.00854 ,-9.89576 
462 ,83.9288 ,1.48315 ,-0.99827 ,-9.79502 
