Data stamp = , 02-04-2022 08:07:34 698

Calibration Values: 
Slope = , 26.54 , g/V 
Offset Voltage at no contact = , -0.501760 , V 

No , Time , Stage Position ,   Mass , Force 
   ,  (s) ,      (mm)      ,   (g)  , (mN)  

1 ,0.0000 ,0.64949 ,5.05212 ,49.57142 
2 ,0.2022 ,0.64953 ,5.06923 ,49.73931 
3 ,0.6984 ,0.65096 ,5.07950 ,49.84004 
4 ,0.8905 ,0.65319 ,5.07265 ,49.77289 
5 ,1.0825 ,0.65507 ,5.07608 ,49.80646 
6 ,1.2744 ,0.65695 ,5.07950 ,49.84004 
7 ,1.4829 ,0.65898 ,5.08292 ,49.87362 
8 ,1.6748 ,0.66097 ,5.04528 ,49.50426 
9 ,1.8509 ,0.66275 ,5.05897 ,49.63857 
10 ,2.0271 ,0.66453 ,5.03843 ,49.43710 
11 ,2.2191 ,0.66641 ,5.00421 ,49.10132 
12 ,2.4112 ,0.66832 ,5.02132 ,49.26921 
13 ,2.5871 ,0.67017 ,4.99394 ,49.00058 
14 ,2.7790 ,0.67202 ,4.96315 ,48.69838 
15 ,2.9555 ,0.67381 ,4.97341 ,48.79911 
16 ,3.1311 ,0.67559 ,4.94946 ,48.56407 
17 ,3.3237 ,0.67743 ,4.93577 ,48.42975 
18 ,3.5156 ,0.67944 ,4.91866 ,48.26186 
19 ,3.6916 ,0.68122 ,4.91866 ,48.26186 
20 ,3.8678 ,0.68289 ,4.90497 ,48.12755 
21 ,4.0439 ,0.68470 ,4.88786 ,47.95966 
22 ,4.2359 ,0.68663 ,4.86732 ,47.75819 
23 ,4.4119 ,0.68836 ,4.85364 ,47.62387 
24 ,4.5881 ,0.69014 ,4.85364 ,47.62387 
25 ,4.7642 ,0.69187 ,4.83310 ,47.42240 
26 ,4.9402 ,0.69367 ,4.81599 ,47.25451 
27 ,5.1163 ,0.69536 ,4.80230 ,47.12020 
28 ,5.3242 ,0.69737 ,4.77835 ,46.88515 
29 ,5.5004 ,0.69926 ,4.75439 ,46.65010 
30 ,5.6764 ,0.70097 ,4.74755 ,46.58295 
31 ,5.8524 ,0.70279 ,4.74413 ,46.54937 
32 ,6.0288 ,0.70450 ,4.73386 ,46.44863 
33 ,6.2048 ,0.70630 ,4.71675 ,46.28074 
34 ,6.4129 ,0.70836 ,4.69622 ,46.07927 
35 ,6.6048 ,0.71027 ,4.68595 ,45.97854 
36 ,6.7811 ,0.71207 ,4.64488 ,45.57560 
37 ,6.9570 ,0.71381 ,4.63804 ,45.50844 
38 ,7.1332 ,0.71556 ,4.62777 ,45.40771 
39 ,7.3089 ,0.71729 ,4.63119 ,45.44128 
40 ,7.5013 ,0.71919 ,4.57302 ,44.87045 
41 ,7.6933 ,0.72118 ,4.56617 ,44.80330 
42 ,7.8692 ,0.72290 ,4.54906 ,44.63541 
43 ,8.0615 ,0.72477 ,4.51484 ,44.29962 
44 ,8.2376 ,0.72662 ,4.50457 ,44.19889 
45 ,8.4296 ,0.72849 ,4.50115 ,44.16531 
46 ,8.6057 ,0.73025 ,4.46693 ,43.82953 
47 ,8.7817 ,0.73203 ,4.45324 ,43.69521 
48 ,8.9739 ,0.73388 ,4.43271 ,43.49374 
49 ,9.1500 ,0.73576 ,4.43613 ,43.52732 
50 ,9.3260 ,0.73751 ,4.40875 ,43.25870 
51 ,9.5020 ,0.73926 ,4.39164 ,43.09080 
52 ,9.6782 ,0.74101 ,4.36427 ,42.82218 
53 ,9.8703 ,0.74295 ,4.36427 ,42.82218 
54 ,10.0781 ,0.74497 ,4.32662 ,42.45282 
55 ,10.2544 ,0.74679 ,4.31293 ,42.31850 
56 ,10.4303 ,0.74856 ,4.32320 ,42.41924 
57 ,10.5905 ,0.75025 ,4.29240 ,42.11703 
58 ,10.7824 ,0.75200 ,4.25818 ,41.78125 
59 ,10.9587 ,0.75382 ,4.25476 ,41.74767 
60 ,11.1346 ,0.75555 ,4.23422 ,41.54620 
61 ,11.3109 ,0.75735 ,4.22738 ,41.47905 
62 ,11.5028 ,0.75926 ,4.18974 ,41.10968 
63 ,11.6790 ,0.76102 ,4.18631 ,41.07611 
64 ,11.8710 ,0.76293 ,4.17947 ,41.00895 
65 ,12.0472 ,0.76471 ,4.15894 ,40.80748 
66 ,12.2232 ,0.76643 ,4.13156 ,40.53885 
67 ,12.3991 ,0.76823 ,4.09734 ,40.20307 
68 ,12.5754 ,0.77001 ,4.10076 ,40.23665 
69 ,12.7674 ,0.77192 ,4.09391 ,40.16949 
70 ,12.9755 ,0.77389 ,4.04943 ,39.73297 
71 ,13.1675 ,0.77581 ,4.04600 ,39.69940 
72 ,13.3436 ,0.77768 ,4.02205 ,39.46435 
73 ,13.5357 ,0.77954 ,4.00836 ,39.33003 
74 ,13.7279 ,0.78151 ,3.98441 ,39.09499 
75 ,13.9038 ,0.78323 ,3.97072 ,38.96067 
76 ,14.0800 ,0.78504 ,3.94676 ,38.72562 
77 ,14.2880 ,0.78701 ,3.93650 ,38.62489 
78 ,14.4642 ,0.78884 ,3.92281 ,38.49058 
79 ,14.6562 ,0.79072 ,3.89543 ,38.22195 
80 ,14.8322 ,0.79250 ,3.88858 ,38.15479 
81 ,15.0243 ,0.79441 ,3.85779 ,37.85259 
82 ,15.2004 ,0.79625 ,3.83725 ,37.65112 
83 ,15.3925 ,0.79814 ,3.83383 ,37.61754 
84 ,15.5846 ,0.79997 ,3.82356 ,37.51681 
85 ,15.7763 ,0.80193 ,3.78934 ,37.18102 
86 ,15.9527 ,0.80373 ,3.77223 ,37.01313 
87 ,16.1448 ,0.80566 ,3.75170 ,36.81166 
88 ,16.3210 ,0.80743 ,3.73459 ,36.64377 
89 ,16.5130 ,0.80937 ,3.72774 ,36.57661 
90 ,16.6890 ,0.81114 ,3.70721 ,36.37514 
91 ,16.8648 ,0.81286 ,3.69694 ,36.27441 
92 ,17.0412 ,0.81466 ,3.66614 ,35.97220 
93 ,17.2333 ,0.81660 ,3.66272 ,35.93863 
94 ,17.4092 ,0.81833 ,3.65930 ,35.90505 
95 ,17.6013 ,0.82006 ,3.62166 ,35.53569 
96 ,17.7773 ,0.82196 ,3.60797 ,35.40137 
97 ,17.9532 ,0.82372 ,3.58743 ,35.19990 
98 ,18.1297 ,0.82549 ,3.58401 ,35.16632 
99 ,18.3217 ,0.82743 ,3.55663 ,34.89770 
100 ,18.4978 ,0.82917 ,3.53268 ,34.66265 
101 ,18.6896 ,0.83105 ,3.52584 ,34.59549 
102 ,18.8658 ,0.83283 ,3.50530 ,34.39402 
103 ,19.0419 ,0.83461 ,3.48477 ,34.19255 
104 ,19.2341 ,0.83642 ,3.46081 ,33.95751 
105 ,19.4100 ,0.83831 ,3.45055 ,33.85677 
106 ,19.6021 ,0.84024 ,3.41975 ,33.55457 
107 ,19.7783 ,0.84196 ,3.42317 ,33.58814 
108 ,19.9383 ,0.84371 ,3.40264 ,33.38667 
109 ,20.1143 ,0.84535 ,3.39237 ,33.28594 
110 ,20.3064 ,0.84712 ,3.38210 ,33.18520 
111 ,20.4984 ,0.84907 ,3.35815 ,32.95016 
112 ,20.6907 ,0.85107 ,3.33762 ,32.74869 
113 ,20.8825 ,0.85295 ,3.31708 ,32.54722 
114 ,21.0587 ,0.85474 ,3.30339 ,32.41290 
115 ,21.2348 ,0.85649 ,3.29655 ,32.34575 
116 ,21.4109 ,0.85830 ,3.28628 ,32.24501 
117 ,21.5870 ,0.86002 ,3.26233 ,32.00996 
118 ,21.7631 ,0.86181 ,3.23495 ,31.74134 
119 ,21.9392 ,0.86360 ,3.20757 ,31.47271 
120 ,22.1312 ,0.86550 ,3.20757 ,31.47271 
121 ,22.3074 ,0.86726 ,3.20757 ,31.47271 
122 ,22.4993 ,0.86921 ,3.15966 ,31.00262 
123 ,22.6753 ,0.87090 ,3.15282 ,30.93546 
124 ,22.8676 ,0.87283 ,3.14597 ,30.86830 
125 ,23.0756 ,0.87481 ,3.11860 ,30.59968 
126 ,23.2513 ,0.87672 ,3.10833 ,30.49894 
127 ,23.4278 ,0.87851 ,3.09464 ,30.36463 
128 ,23.6200 ,0.88033 ,3.06042 ,30.02884 
129 ,23.7959 ,0.88214 ,3.05015 ,29.92811 
130 ,23.9718 ,0.88392 ,3.04331 ,29.86095 
131 ,24.1480 ,0.88565 ,3.04673 ,29.89453 
132 ,24.3237 ,0.88742 ,3.01935 ,29.62590 
133 ,24.5001 ,0.88914 ,2.97144 ,29.15581 
134 ,24.6761 ,0.89106 ,2.98513 ,29.29012 
135 ,24.8523 ,0.89271 ,2.96118 ,29.05507 
136 ,25.0444 ,0.89462 ,2.94749 ,28.92076 
137 ,25.2041 ,0.89634 ,2.91669 ,28.61856 
138 ,25.3640 ,0.89793 ,2.90300 ,28.48424 
139 ,25.5402 ,0.89956 ,2.88931 ,28.34993 
140 ,25.7167 ,0.90132 ,2.86878 ,28.14846 
141 ,25.9086 ,0.90320 ,2.87220 ,28.18204 
142 ,26.0849 ,0.90500 ,2.85509 ,28.01415 
143 ,26.2768 ,0.90692 ,2.83114 ,27.77910 
144 ,26.4689 ,0.90879 ,2.82087 ,27.67836 
145 ,26.6449 ,0.91056 ,2.81745 ,27.64479 
146 ,26.8369 ,0.91242 ,2.78665 ,27.34258 
147 ,27.0132 ,0.91432 ,2.76611 ,27.14111 
148 ,27.1893 ,0.91606 ,2.75585 ,27.04038 
149 ,27.3653 ,0.91785 ,2.74558 ,26.93964 
150 ,27.5574 ,0.91970 ,2.70452 ,26.53670 
151 ,27.7494 ,0.92158 ,2.71136 ,26.60386 
152 ,27.9256 ,0.92343 ,2.69083 ,26.40239 
153 ,28.1177 ,0.92534 ,2.65660 ,26.06661 
154 ,28.2936 ,0.92708 ,2.65660 ,26.06661 
155 ,28.4697 ,0.92886 ,2.64292 ,25.93229 
156 ,28.6455 ,0.93063 ,2.62581 ,25.76440 
157 ,28.8219 ,0.93247 ,2.59501 ,25.46220 
158 ,28.9977 ,0.93416 ,2.58474 ,25.36146 
159 ,29.1740 ,0.93584 ,2.56421 ,25.15999 
160 ,29.3501 ,0.93763 ,2.56421 ,25.15999 
161 ,29.5263 ,0.93941 ,2.54367 ,24.95852 
162 ,29.7023 ,0.94119 ,2.52314 ,24.75705 
163 ,29.9102 ,0.94307 ,2.49576 ,24.48842 
164 ,30.0865 ,0.94499 ,2.49576 ,24.48842 
165 ,30.2625 ,0.94680 ,2.46839 ,24.21980 
166 ,30.4385 ,0.94850 ,2.45127 ,24.05191 
167 ,30.6146 ,0.95027 ,2.44443 ,23.98475 
168 ,30.7908 ,0.95212 ,2.42732 ,23.81686 
169 ,30.9828 ,0.95403 ,2.41363 ,23.68255 
170 ,31.1748 ,0.95591 ,2.38283 ,23.38034 
171 ,31.3510 ,0.95761 ,2.38625 ,23.41392 
172 ,31.5269 ,0.95942 ,2.36914 ,23.24603 
173 ,31.7027 ,0.96116 ,2.34519 ,23.01098 
174 ,31.8792 ,0.96295 ,2.32123 ,22.77593 
175 ,32.0711 ,0.96490 ,2.30412 ,22.60804 
176 ,32.2473 ,0.96661 ,2.30412 ,22.60804 
177 ,32.4233 ,0.96837 ,2.29385 ,22.50731 
178 ,32.5993 ,0.97011 ,2.25279 ,22.10437 
179 ,32.7752 ,0.97184 ,2.24252 ,22.00363 
180 ,32.9516 ,0.97362 ,2.22541 ,21.83574 
181 ,33.1438 ,0.97559 ,2.22199 ,21.80216 
182 ,33.3198 ,0.97735 ,2.21515 ,21.73500 
183 ,33.4959 ,0.97907 ,2.17750 ,21.36564 
184 ,33.6719 ,0.98089 ,2.17408 ,21.33206 
185 ,33.8476 ,0.98267 ,2.15012 ,21.09702 
186 ,34.0079 ,0.98433 ,2.13986 ,20.99628 
187 ,34.1842 ,0.98602 ,2.13986 ,20.99628 
188 ,34.3602 ,0.98774 ,2.11932 ,20.79481 
189 ,34.5362 ,0.98951 ,2.10564 ,20.66050 
190 ,34.7121 ,0.99123 ,2.08168 ,20.42545 
191 ,34.8880 ,0.99313 ,2.07141 ,20.32472 
192 ,35.0965 ,0.99493 ,2.04746 ,20.08967 
193 ,35.2725 ,0.99684 ,2.03377 ,19.95535 
194 ,35.4487 ,0.99864 ,2.02008 ,19.82104 
195 ,35.6247 ,1.00044 ,2.00982 ,19.72031 
196 ,35.8007 ,1.00210 ,1.98244 ,19.45168 
197 ,35.9765 ,1.00386 ,1.96533 ,19.28379 
198 ,36.1529 ,1.00566 ,1.94822 ,19.11590 
199 ,36.3446 ,1.00752 ,1.94479 ,19.08232 
200 ,36.5210 ,1.00933 ,1.93111 ,18.94801 
201 ,36.6971 ,1.01106 ,1.90373 ,18.67938 
202 ,36.8732 ,1.01290 ,1.89346 ,18.57864 
203 ,37.0648 ,1.01475 ,1.88319 ,18.47791 
204 ,37.2413 ,1.01656 ,1.87293 ,18.37717 
205 ,37.4174 ,1.01829 ,1.86266 ,18.27644 
206 ,37.6095 ,1.02017 ,1.84213 ,18.07497 
207 ,37.8013 ,1.02211 ,1.82160 ,17.87350 
208 ,37.9775 ,1.02386 ,1.80449 ,17.70561 
209 ,38.1537 ,1.02564 ,1.78053 ,17.47056 
210 ,38.3296 ,1.02740 ,1.77711 ,17.43698 
211 ,38.5059 ,1.02918 ,1.76342 ,17.30267 
212 ,38.7306 ,1.03128 ,1.74973 ,17.16836 
213 ,38.9060 ,1.03322 ,1.74289 ,17.10120 
214 ,39.0822 ,1.03491 ,1.70866 ,16.76542 
215 ,39.2419 ,1.03664 ,1.70182 ,16.69826 
216 ,39.4343 ,1.03839 ,1.67786 ,16.46321 
217 ,39.6264 ,1.04030 ,1.67102 ,16.39605 
218 ,39.8023 ,1.04220 ,1.66760 ,16.36248 
219 ,39.9945 ,1.04395 ,1.63680 ,16.06027 
220 ,40.1862 ,1.04599 ,1.63680 ,16.06027 
221 ,40.3626 ,1.04772 ,1.61969 ,15.89238 
222 ,40.5545 ,1.04959 ,1.60942 ,15.79164 
223 ,40.7468 ,1.05150 ,1.59573 ,15.65733 
224 ,40.9230 ,1.05333 ,1.57862 ,15.48944 
225 ,41.0989 ,1.05514 ,1.55124 ,15.22081 
226 ,41.2747 ,1.05690 ,1.54440 ,15.15366 
227 ,41.4511 ,1.05865 ,1.52387 ,14.95219 
228 ,41.6431 ,1.06053 ,1.52045 ,14.91861 
229 ,41.8190 ,1.06227 ,1.50333 ,14.75072 
230 ,42.0109 ,1.06422 ,1.46911 ,14.41493 
231 ,42.1869 ,1.06595 ,1.47253 ,14.44851 
232 ,42.3632 ,1.06778 ,1.46227 ,14.34778 
233 ,42.5715 ,1.06980 ,1.43147 ,14.04557 
234 ,42.7635 ,1.07168 ,1.43489 ,14.07915 
235 ,42.9393 ,1.07348 ,1.41436 ,13.87768 
236 ,43.1157 ,1.07522 ,1.39040 ,13.64263 
237 ,43.2913 ,1.07703 ,1.36303 ,13.37401 
238 ,43.4675 ,1.07872 ,1.36645 ,13.40759 
239 ,43.6437 ,1.08054 ,1.35618 ,13.30685 
240 ,43.8359 ,1.08245 ,1.33907 ,13.13896 
241 ,44.0120 ,1.08419 ,1.32196 ,12.97107 
242 ,44.1880 ,1.08600 ,1.30485 ,12.80318 
243 ,44.3642 ,1.08777 ,1.30827 ,12.83675 
244 ,44.5402 ,1.08948 ,1.28089 ,12.56813 
245 ,44.7163 ,1.09123 ,1.24667 ,12.23235 
246 ,44.8924 ,1.09299 ,1.25009 ,12.26592 
247 ,45.0844 ,1.09495 ,1.26378 ,12.40024 
248 ,45.2606 ,1.09668 ,1.22614 ,12.03088 
249 ,45.4366 ,1.09849 ,1.21929 ,11.96372 
250 ,45.6123 ,1.10024 ,1.18165 ,11.59436 
251 ,45.7884 ,1.10200 ,1.18507 ,11.62794 
252 ,45.9646 ,1.10371 ,1.18850 ,11.66151 
253 ,46.1730 ,1.10575 ,1.14058 ,11.19142 
254 ,46.3487 ,1.10758 ,1.14401 ,11.22500 
255 ,46.5251 ,1.10933 ,1.13716 ,11.15784 
256 ,46.7012 ,1.11108 ,1.12690 ,11.05710 
257 ,46.8771 ,1.11281 ,1.10636 ,10.85563 
258 ,47.0534 ,1.11462 ,1.08583 ,10.65416 
259 ,47.2293 ,1.11640 ,1.06872 ,10.48627 
260 ,47.4055 ,1.11815 ,1.07556 ,10.55343 
261 ,47.5976 ,1.12006 ,1.04819 ,10.28480 
262 ,47.7736 ,1.12182 ,1.03792 ,10.18407 
263 ,47.9657 ,1.12370 ,1.03108 ,10.11691 
264 ,48.1418 ,1.12552 ,1.03108 ,10.11691 
265 ,48.3340 ,1.12733 ,0.98659 ,9.68039 
266 ,48.5260 ,1.12927 ,0.97974 ,9.61324 
267 ,48.7021 ,1.13111 ,0.96948 ,9.51250 
268 ,48.8942 ,1.13293 ,0.94894 ,9.31103 
269 ,49.0862 ,1.13497 ,0.93868 ,9.21030 
270 ,49.2618 ,1.13670 ,0.93525 ,9.17672 
271 ,49.4381 ,1.13844 ,0.92499 ,9.07598 
272 ,49.6144 ,1.14026 ,0.90446 ,8.87451 
273 ,49.8061 ,1.14211 ,0.89761 ,8.80736 
274 ,49.9824 ,1.14389 ,0.88734 ,8.70662 
275 ,50.1586 ,1.14562 ,0.88734 ,8.70662 
276 ,50.3348 ,1.14745 ,0.83943 ,8.23653 
277 ,50.5269 ,1.14933 ,0.83601 ,8.20295 
278 ,50.7189 ,1.15121 ,0.82917 ,8.13579 
279 ,50.8949 ,1.15306 ,0.79837 ,7.83359 
280 ,51.0709 ,1.15473 ,0.80179 ,7.86717 
281 ,51.2471 ,1.15657 ,0.77441 ,7.59854 
282 ,51.4233 ,1.15835 ,0.76757 ,7.53138 
283 ,51.5992 ,1.16007 ,0.77099 ,7.56496 
284 ,51.7752 ,1.16186 ,0.76415 ,7.49780 
285 ,51.9512 ,1.16357 ,0.72308 ,7.09486 
286 ,52.1273 ,1.16532 ,0.71624 ,7.02771 
287 ,52.3035 ,1.16705 ,0.71966 ,7.06129 
288 ,52.4795 ,1.16887 ,0.71281 ,6.99413 
289 ,52.6557 ,1.17062 ,0.67859 ,6.65835 
290 ,52.8314 ,1.17244 ,0.67175 ,6.59119 
291 ,53.0078 ,1.17412 ,0.64779 ,6.35614 
292 ,53.1838 ,1.17584 ,0.65464 ,6.42330 
293 ,53.3597 ,1.17765 ,0.63753 ,6.25541 
294 ,53.5520 ,1.17956 ,0.61357 ,6.02036 
295 ,53.7277 ,1.18136 ,0.59988 ,5.88605 
296 ,53.9042 ,1.18310 ,0.59646 ,5.85247 
297 ,54.0641 ,1.18483 ,0.58962 ,5.78531 
298 ,54.2403 ,1.18644 ,0.58962 ,5.78531 
299 ,54.4482 ,1.18846 ,0.55882 ,5.48311 
300 ,54.6246 ,1.19033 ,0.55197 ,5.41595 
301 ,54.8166 ,1.19221 ,0.52802 ,5.18090 
302 ,55.0247 ,1.19425 ,0.52117 ,5.11375 
303 ,55.2007 ,1.19610 ,0.51433 ,5.04659 
304 ,55.3928 ,1.19798 ,0.49380 ,4.84512 
305 ,55.5848 ,1.19985 ,0.48011 ,4.71081 
306 ,55.7771 ,1.20181 ,0.46984 ,4.61007 
307 ,55.9530 ,1.20361 ,0.44246 ,4.34144 
308 ,56.1448 ,1.20549 ,0.44931 ,4.40860 
309 ,56.3371 ,1.20738 ,0.45273 ,4.44218 
310 ,56.5291 ,1.20936 ,0.42535 ,4.17355 
311 ,56.7053 ,1.21108 ,0.41509 ,4.07282 
312 ,56.8814 ,1.21286 ,0.41851 ,4.10640 
313 ,57.0574 ,1.21463 ,0.40140 ,3.93850 
314 ,57.2333 ,1.21635 ,0.36718 ,3.60272 
315 ,57.4095 ,1.21815 ,0.35006 ,3.43483 
316 ,57.6017 ,1.22000 ,0.36033 ,3.53557 
317 ,57.7777 ,1.22184 ,0.35006 ,3.43483 
318 ,57.9537 ,1.22355 ,0.32611 ,3.19978 
319 ,58.1459 ,1.22554 ,0.31926 ,3.13263 
320 ,58.3376 ,1.22742 ,0.30215 ,2.96473 
321 ,58.5140 ,1.22916 ,0.29189 ,2.86400 
322 ,58.7218 ,1.23121 ,0.29873 ,2.93116 
323 ,58.8982 ,1.23302 ,0.26793 ,2.62895 
324 ,59.0901 ,1.23503 ,0.26451 ,2.59537 
325 ,59.2821 ,1.23684 ,0.24740 ,2.42748 
326 ,59.4742 ,1.23872 ,0.23371 ,2.29317 
327 ,59.6665 ,1.24072 ,0.21660 ,2.12528 
328 ,59.8583 ,1.24252 ,0.21660 ,2.12528 
329 ,60.0343 ,1.24437 ,0.19607 ,1.92381 
330 ,60.2107 ,1.24612 ,0.18580 ,1.82307 
331 ,60.4024 ,1.24803 ,0.19264 ,1.89023 
332 ,60.5787 ,1.24984 ,0.17896 ,1.75592 
333 ,60.7709 ,1.25176 ,0.15158 ,1.48729 
334 ,60.9789 ,1.25373 ,0.15842 ,1.55445 
335 ,61.1551 ,1.25557 ,0.15158 ,1.48729 
336 ,61.3313 ,1.25732 ,0.12762 ,1.25224 
337 ,61.4908 ,1.25905 ,0.11393 ,1.11793 
338 ,61.6673 ,1.26067 ,0.10025 ,0.98361 
339 ,61.8591 ,1.26264 ,0.11051 ,1.08435 
340 ,62.0354 ,1.26436 ,0.08656 ,0.84930 
341 ,62.2273 ,1.26630 ,0.07287 ,0.71499 
342 ,62.4037 ,1.26804 ,0.06260 ,0.61425 
343 ,62.5794 ,1.26985 ,0.06260 ,0.61425 
344 ,62.7558 ,1.27156 ,0.05234 ,0.51352 
345 ,62.9637 ,1.27363 ,0.04549 ,0.44636 
346 ,63.1399 ,1.27548 ,0.04549 ,0.44636 
347 ,63.3477 ,1.27745 ,0.01127 ,0.11058 
348 ,63.5243 ,1.27927 ,0.00443 ,0.04342 
349 ,63.7001 ,1.28106 ,-0.00926 ,-0.09089 
350 ,63.8921 ,1.28298 ,-0.01953 ,-0.19163 
351 ,64.0682 ,1.28469 ,-0.03322 ,-0.32594 
352 ,64.2444 ,1.28648 ,-0.02295 ,-0.22520 
353 ,64.4365 ,1.28829 ,-0.03664 ,-0.35952 
354 ,64.6283 ,1.29029 ,-0.06744 ,-0.66172 
355 ,64.8046 ,1.29209 ,-0.07428 ,-0.72888 
356 ,64.9967 ,1.29397 ,-0.07771 ,-0.76246 
357 ,65.1727 ,1.29574 ,-0.08797 ,-0.86319 
358 ,65.3808 ,1.29775 ,-0.10166 ,-0.99751 
359 ,65.5569 ,1.29959 ,-0.11877 ,-1.16540 
360 ,65.7327 ,1.30132 ,-0.11877 ,-1.16540 
361 ,65.9092 ,1.30307 ,-0.13246 ,-1.29971 
362 ,66.1012 ,1.30504 ,-0.13588 ,-1.33329 
363 ,66.2932 ,1.30695 ,-0.16326 ,-1.60191 
364 ,66.4693 ,1.30872 ,-0.16668 ,-1.63549 
365 ,66.6453 ,1.31043 ,-0.17011 ,-1.66907 
366 ,66.8211 ,1.31222 ,-0.15984 ,-1.56834 
367 ,66.9976 ,1.31400 ,-0.17695 ,-1.73623 
368 ,67.1736 ,1.31576 ,-0.19064 ,-1.87054 
369 ,67.3654 ,1.31760 ,-0.20775 ,-2.03843 
370 ,67.5416 ,1.31939 ,-0.21117 ,-2.07201 
371 ,67.7177 ,1.32116 ,-0.22486 ,-2.20632 
372 ,67.8937 ,1.32297 ,-0.24197 ,-2.37422 
373 ,68.0859 ,1.32483 ,-0.25224 ,-2.47495 
374 ,68.2621 ,1.32659 ,-0.25566 ,-2.50853 
375 ,68.4542 ,1.32859 ,-0.26250 ,-2.57569 
376 ,68.6462 ,1.33037 ,-0.27619 ,-2.71000 
377 ,68.8381 ,1.33238 ,-0.27961 ,-2.74358 
378 ,69.0142 ,1.33412 ,-0.29330 ,-2.87789 
379 ,69.2063 ,1.33607 ,-0.30699 ,-3.01220 
380 ,69.3824 ,1.33779 ,-0.31041 ,-3.04578 
381 ,69.6065 ,1.33990 ,-0.31726 ,-3.11294 
382 ,69.7827 ,1.34183 ,-0.31041 ,-3.04578 
383 ,69.9743 ,1.34375 ,-0.33437 ,-3.28083 
384 ,70.1507 ,1.34554 ,-0.33779 ,-3.31441 
385 ,70.3429 ,1.34741 ,-0.34464 ,-3.38156 
386 ,70.5190 ,1.34922 ,-0.34806 ,-3.41514 
387 ,70.6948 ,1.35099 ,-0.36517 ,-3.58303 
388 ,70.8867 ,1.35282 ,-0.38912 ,-3.81808 
389 ,71.0628 ,1.35461 ,-0.39255 ,-3.85166 
390 ,71.2390 ,1.35640 ,-0.39939 ,-3.91882 
391 ,71.4311 ,1.35824 ,-0.42335 ,-4.15387 
392 ,71.6229 ,1.36010 ,-0.41992 ,-4.12029 
393 ,71.7991 ,1.36197 ,-0.42335 ,-4.15387 
394 ,71.9755 ,1.36375 ,-0.42677 ,-4.18744 
395 ,72.1355 ,1.36548 ,-0.44388 ,-4.35534 
396 ,72.3115 ,1.36706 ,-0.45757 ,-4.48965 
397 ,72.4875 ,1.36883 ,-0.47126 ,-4.62396 
398 ,72.6637 ,1.37058 ,-0.46099 ,-4.52323 
399 ,72.8398 ,1.37236 ,-0.47468 ,-4.65754 
400 ,73.0159 ,1.37414 ,-0.48837 ,-4.79185 
401 ,73.1917 ,1.37589 ,-0.49179 ,-4.82543 
402 ,73.3679 ,1.37764 ,-0.51232 ,-5.02690 
403 ,73.5442 ,1.37942 ,-0.51917 ,-5.09406 
404 ,73.7361 ,1.38133 ,-0.50548 ,-4.95975 
405 ,73.9123 ,1.38307 ,-0.53285 ,-5.22837 
406 ,74.1043 ,1.38507 ,-0.53970 ,-5.29553 
407 ,74.2964 ,1.38694 ,-0.52943 ,-5.19479 
408 ,74.4724 ,1.38870 ,-0.55339 ,-5.42984 
409 ,74.6487 ,1.39046 ,-0.57392 ,-5.63131 
410 ,74.8405 ,1.39246 ,-0.54997 ,-5.39626 
411 ,75.0167 ,1.39411 ,-0.55681 ,-5.46342 
412 ,75.2089 ,1.39596 ,-0.58761 ,-5.76562 
413 ,75.4009 ,1.39794 ,-0.58761 ,-5.76562 
414 ,75.5769 ,1.39971 ,-0.60814 ,-5.96709 
415 ,75.7530 ,1.40154 ,-0.60472 ,-5.93352 
416 ,75.9771 ,1.40360 ,-0.61156 ,-6.00067 
417 ,76.1531 ,1.40551 ,-0.62183 ,-6.10141 
418 ,76.3292 ,1.40726 ,-0.63894 ,-6.26930 
419 ,76.5049 ,1.40899 ,-0.65263 ,-6.40361 
420 ,76.6813 ,1.41072 ,-0.64236 ,-6.30288 
421 ,76.8413 ,1.41250 ,-0.65263 ,-6.40361 
422 ,77.0175 ,1.41414 ,-0.65263 ,-6.40361 
423 ,77.1936 ,1.41596 ,-0.65947 ,-6.47077 
424 ,77.3856 ,1.41781 ,-0.68343 ,-6.70582 
425 ,77.5616 ,1.41959 ,-0.69712 ,-6.84013 
426 ,77.7378 ,1.42134 ,-0.69370 ,-6.80655 
427 ,77.9300 ,1.42327 ,-0.72450 ,-7.10876 
428 ,78.1218 ,1.42521 ,-0.72107 ,-7.07518 
429 ,78.2978 ,1.42692 ,-0.71423 ,-7.00802 
430 ,78.4900 ,1.42887 ,-0.72107 ,-7.07518 
431 ,78.6660 ,1.43061 ,-0.75530 ,-7.41096 
432 ,78.8581 ,1.43247 ,-0.74503 ,-7.31023 
433 ,79.0344 ,1.43432 ,-0.75187 ,-7.37738 
434 ,79.2264 ,1.43617 ,-0.75872 ,-7.44454 
435 ,79.4183 ,1.43810 ,-0.77925 ,-7.64601 
436 ,79.5945 ,1.43990 ,-0.78267 ,-7.67959 
437 ,79.7866 ,1.44180 ,-0.79978 ,-7.84748 
438 ,79.9786 ,1.44377 ,-0.78267 ,-7.67959 
439 ,80.1547 ,1.44546 ,-0.79978 ,-7.84748 
440 ,80.3304 ,1.44727 ,-0.81005 ,-7.94821 
441 ,80.5065 ,1.44900 ,-0.83401 ,-8.18326 
442 ,80.6829 ,1.45082 ,-0.84427 ,-8.28400 
443 ,80.8750 ,1.45270 ,-0.83058 ,-8.14968 
444 ,81.0670 ,1.45454 ,-0.84085 ,-8.25042 
445 ,81.2430 ,1.45639 ,-0.86481 ,-8.48547 
446 ,81.4352 ,1.45831 ,-0.85796 ,-8.41831 
447 ,81.6113 ,1.46003 ,-0.86823 ,-8.51904 
448 ,81.7874 ,1.46178 ,-0.90587 ,-8.88841 
449 ,81.9796 ,1.46371 ,-0.87507 ,-8.58620 
450 ,82.1715 ,1.46565 ,-0.89560 ,-8.78767 
451 ,82.3476 ,1.46737 ,-0.91614 ,-8.98914 
452 ,82.5236 ,1.46917 ,-0.90929 ,-8.92198 
453 ,82.6997 ,1.47095 ,-0.91272 ,-8.95556 
454 ,82.9079 ,1.47285 ,-0.91272 ,-8.95556 
455 ,83.1000 ,1.47493 ,-0.94351 ,-9.25777 
456 ,83.2760 ,1.47674 ,-0.92640 ,-9.08988 
457 ,83.4682 ,1.47859 ,-0.94694 ,-9.29135 
458 ,83.6759 ,1.48060 ,-0.94694 ,-9.29135 
459 ,83.8683 ,1.48254 ,-0.96405 ,-9.45924 
460 ,84.0763 ,1.48462 ,-0.97774 ,-9.59355 
461 ,84.2684 ,1.48665 ,-0.99485 ,-9.76144 
462 ,84.4444 ,1.48837 ,-0.99143 ,-9.72786 
