Data stamp = , 04-04-2022 09:13:57 124

Calibration Values: 
Slope = , 26.54 , g/V 
Offset Voltage at no contact = , -0.501760 , V 

No , Time , Stage Position ,   Mass , Force 
   ,  (s) ,      (mm)      ,   (g)  , (mN)  

1 ,0.0000 ,0.59941 ,5.15136 ,50.54519 
2 ,0.2129 ,0.59948 ,5.15479 ,50.57876 
3 ,0.5173 ,0.60027 ,5.16848 ,50.71308 
4 ,0.7414 ,0.60177 ,5.15136 ,50.54519 
5 ,0.9335 ,0.60356 ,5.16848 ,50.71308 
6 ,1.1097 ,0.60528 ,5.16848 ,50.71308 
7 ,1.3176 ,0.60722 ,5.15821 ,50.61234 
8 ,1.4936 ,0.60903 ,5.16163 ,50.64592 
9 ,1.6535 ,0.61079 ,5.15479 ,50.57876 
10 ,1.8299 ,0.61244 ,5.13768 ,50.41087 
11 ,2.0061 ,0.61421 ,5.12399 ,50.27656 
12 ,2.1982 ,0.61617 ,5.10345 ,50.07509 
13 ,2.3903 ,0.61803 ,5.10003 ,50.04151 
14 ,2.5663 ,0.61984 ,5.08292 ,49.87362 
15 ,2.7260 ,0.62155 ,5.06239 ,49.67215 
16 ,2.9181 ,0.62325 ,5.03843 ,49.43710 
17 ,3.0782 ,0.62503 ,5.03843 ,49.43710 
18 ,3.2547 ,0.62668 ,5.02474 ,49.30279 
19 ,3.4466 ,0.62867 ,5.01448 ,49.20205 
20 ,3.6228 ,0.63039 ,4.99052 ,48.96701 
21 ,3.7984 ,0.63214 ,4.96657 ,48.73196 
22 ,3.9748 ,0.63386 ,4.95288 ,48.59764 
23 ,4.1511 ,0.63564 ,4.94603 ,48.53049 
24 ,4.3269 ,0.63746 ,4.93577 ,48.42975 
25 ,4.5027 ,0.63920 ,4.91181 ,48.19471 
26 ,4.6789 ,0.64092 ,4.88786 ,47.95966 
27 ,4.8389 ,0.64264 ,4.87075 ,47.79177 
28 ,5.0153 ,0.64431 ,4.85364 ,47.62387 
29 ,5.1914 ,0.64608 ,4.84679 ,47.55672 
30 ,5.3675 ,0.64781 ,4.83310 ,47.42240 
31 ,5.5435 ,0.64957 ,4.81599 ,47.25451 
32 ,5.7197 ,0.65132 ,4.79204 ,47.01946 
33 ,5.8954 ,0.65313 ,4.76808 ,46.78442 
34 ,6.0719 ,0.65491 ,4.74755 ,46.58295 
35 ,6.2799 ,0.65677 ,4.74755 ,46.58295 
36 ,6.4559 ,0.65871 ,4.72702 ,46.38148 
37 ,6.6321 ,0.66049 ,4.73044 ,46.41506 
38 ,6.8081 ,0.66221 ,4.70648 ,46.18001 
39 ,7.0162 ,0.66422 ,4.66542 ,45.77707 
40 ,7.1923 ,0.66606 ,4.65857 ,45.70991 
41 ,7.3681 ,0.66779 ,4.65857 ,45.70991 
42 ,7.5443 ,0.66963 ,4.63804 ,45.50844 
43 ,7.7204 ,0.67134 ,4.60724 ,45.20624 
44 ,7.8965 ,0.67311 ,4.60382 ,45.17266 
45 ,8.0725 ,0.67483 ,4.58671 ,45.00477 
46 ,8.2488 ,0.67663 ,4.57644 ,44.90403 
47 ,8.4247 ,0.67840 ,4.55249 ,44.66898 
48 ,8.6169 ,0.68027 ,4.52853 ,44.43394 
49 ,8.8086 ,0.68224 ,4.52169 ,44.36678 
50 ,8.9851 ,0.68397 ,4.50800 ,44.23247 
51 ,9.1929 ,0.68601 ,4.48062 ,43.96384 
52 ,9.3689 ,0.68784 ,4.47720 ,43.93026 
53 ,9.5453 ,0.68957 ,4.46693 ,43.82953 
54 ,9.7213 ,0.69132 ,4.44298 ,43.59448 
55 ,9.8973 ,0.69310 ,4.41560 ,43.32585 
56 ,10.0736 ,0.69483 ,4.39507 ,43.12438 
57 ,10.2656 ,0.69673 ,4.39507 ,43.12438 
58 ,10.4575 ,0.69869 ,4.35742 ,42.75502 
59 ,10.6336 ,0.70043 ,4.35058 ,42.68786 
60 ,10.8097 ,0.70227 ,4.33347 ,42.51997 
61 ,10.9858 ,0.70401 ,4.33004 ,42.48639 
62 ,11.1618 ,0.70578 ,4.31293 ,42.31850 
63 ,11.3541 ,0.70759 ,4.28556 ,42.04988 
64 ,11.5623 ,0.70971 ,4.26502 ,41.84841 
65 ,11.7380 ,0.71149 ,4.25476 ,41.74767 
66 ,11.9142 ,0.71327 ,4.22053 ,41.41189 
67 ,12.1061 ,0.71505 ,4.22396 ,41.44547 
68 ,12.2823 ,0.71691 ,4.22396 ,41.44547 
69 ,12.4584 ,0.71874 ,4.17605 ,40.97537 
70 ,12.6345 ,0.72048 ,4.15209 ,40.74032 
71 ,12.8109 ,0.72223 ,4.13840 ,40.60601 
72 ,12.9867 ,0.72398 ,4.14183 ,40.63959 
73 ,13.1626 ,0.72576 ,4.12129 ,40.43812 
74 ,13.3388 ,0.72750 ,4.10418 ,40.27023 
75 ,13.5147 ,0.72924 ,4.06996 ,39.93444 
76 ,13.6911 ,0.73104 ,4.04600 ,39.69940 
77 ,13.8987 ,0.73303 ,4.04943 ,39.73297 
78 ,14.0748 ,0.73481 ,4.02205 ,39.46435 
79 ,14.2513 ,0.73665 ,4.00836 ,39.33003 
80 ,14.4430 ,0.73854 ,4.00152 ,39.26288 
81 ,14.6351 ,0.74038 ,3.95703 ,38.82636 
82 ,14.8110 ,0.74223 ,3.94676 ,38.72562 
83 ,14.9872 ,0.74397 ,3.93307 ,38.59131 
84 ,15.1631 ,0.74582 ,3.92965 ,38.55773 
85 ,15.3553 ,0.74760 ,3.90570 ,38.32268 
86 ,15.5474 ,0.74952 ,3.88516 ,38.12122 
87 ,15.7235 ,0.75137 ,3.87490 ,38.02048 
88 ,15.9155 ,0.75324 ,3.86463 ,37.91975 
89 ,16.0916 ,0.75501 ,3.84067 ,37.68470 
90 ,16.2842 ,0.75688 ,3.82014 ,37.48323 
91 ,16.4758 ,0.75888 ,3.82014 ,37.48323 
92 ,16.6683 ,0.76071 ,3.78592 ,37.14744 
93 ,16.8762 ,0.76278 ,3.76539 ,36.94597 
94 ,17.0523 ,0.76465 ,3.76196 ,36.91240 
95 ,17.2284 ,0.76637 ,3.72090 ,36.50946 
96 ,17.4365 ,0.76835 ,3.72774 ,36.57661 
97 ,17.6126 ,0.77019 ,3.69694 ,36.27441 
98 ,17.8042 ,0.77211 ,3.69352 ,36.24083 
99 ,17.9807 ,0.77389 ,3.68325 ,36.14010 
100 ,18.1567 ,0.77568 ,3.66614 ,35.97220 
101 ,18.3330 ,0.77740 ,3.63192 ,35.63642 
102 ,18.5249 ,0.77936 ,3.60797 ,35.40137 
103 ,18.7169 ,0.78118 ,3.61139 ,35.43495 
104 ,18.9088 ,0.78312 ,3.58059 ,35.13275 
105 ,19.0852 ,0.78495 ,3.58059 ,35.13275 
106 ,19.2932 ,0.78698 ,3.55321 ,34.86412 
107 ,19.4695 ,0.78877 ,3.53952 ,34.72981 
108 ,19.6449 ,0.79053 ,3.51899 ,34.52834 
109 ,19.8054 ,0.79227 ,3.52584 ,34.59549 
110 ,19.9815 ,0.79387 ,3.49846 ,34.32687 
111 ,20.1576 ,0.79565 ,3.49161 ,34.25971 
112 ,20.3654 ,0.79769 ,3.46766 ,34.02466 
113 ,20.5418 ,0.79951 ,3.46766 ,34.02466 
114 ,20.7175 ,0.80139 ,3.44370 ,33.78961 
115 ,20.8938 ,0.80300 ,3.41290 ,33.48741 
116 ,21.0860 ,0.80499 ,3.38895 ,33.25236 
117 ,21.2776 ,0.80687 ,3.39579 ,33.31952 
118 ,21.4540 ,0.80858 ,3.38210 ,33.18520 
119 ,21.6301 ,0.81039 ,3.35130 ,32.88300 
120 ,21.7898 ,0.81209 ,3.33419 ,32.71511 
121 ,21.9661 ,0.81372 ,3.31366 ,32.51364 
122 ,22.1423 ,0.81549 ,3.30682 ,32.44648 
123 ,22.3345 ,0.81741 ,3.31024 ,32.48006 
124 ,22.5264 ,0.81925 ,3.28286 ,32.21143 
125 ,22.7506 ,0.82145 ,3.25548 ,31.94281 
126 ,22.9262 ,0.82332 ,3.25206 ,31.90923 
127 ,23.1023 ,0.82518 ,3.24180 ,31.80849 
128 ,23.2785 ,0.82683 ,3.22468 ,31.64060 
129 ,23.4713 ,0.82882 ,3.20073 ,31.40555 
130 ,23.6789 ,0.83081 ,3.17335 ,31.13693 
131 ,23.8868 ,0.83286 ,3.14940 ,30.90188 
132 ,24.0629 ,0.83470 ,3.14255 ,30.83472 
133 ,24.2553 ,0.83661 ,3.14255 ,30.83472 
134 ,24.4313 ,0.83842 ,3.12544 ,30.66683 
135 ,24.6235 ,0.84021 ,3.11175 ,30.53252 
136 ,24.7993 ,0.84206 ,3.08095 ,30.23031 
137 ,24.9753 ,0.84381 ,3.09122 ,30.33105 
138 ,25.1516 ,0.84562 ,3.07411 ,30.16316 
139 ,25.3438 ,0.84754 ,3.04331 ,29.86095 
140 ,25.5196 ,0.84932 ,3.01935 ,29.62590 
141 ,25.7117 ,0.85118 ,3.02620 ,29.69306 
142 ,25.8877 ,0.85292 ,2.98855 ,29.32370 
143 ,26.0479 ,0.85465 ,2.97487 ,29.18939 
144 ,26.2240 ,0.85624 ,2.95776 ,29.02150 
145 ,26.4001 ,0.85809 ,2.94407 ,28.88718 
146 ,26.6082 ,0.86016 ,2.93038 ,28.75287 
147 ,26.7844 ,0.86187 ,2.90300 ,28.48424 
148 ,26.9603 ,0.86373 ,2.89616 ,28.41709 
149 ,27.1363 ,0.86539 ,2.88931 ,28.34993 
150 ,27.3125 ,0.86723 ,2.88931 ,28.34993 
151 ,27.5044 ,0.86911 ,2.85509 ,28.01415 
152 ,27.6807 ,0.87088 ,2.84140 ,27.87983 
153 ,27.8566 ,0.87262 ,2.81745 ,27.64479 
154 ,28.0328 ,0.87437 ,2.82429 ,27.71194 
155 ,28.2087 ,0.87615 ,2.80718 ,27.54405 
156 ,28.4008 ,0.87800 ,2.77638 ,27.24185 
157 ,28.5927 ,0.87991 ,2.77980 ,27.27542 
158 ,28.7851 ,0.88179 ,2.75243 ,27.00680 
159 ,28.9612 ,0.88369 ,2.71820 ,26.67101 
160 ,29.1529 ,0.88557 ,2.72163 ,26.70459 
161 ,29.3294 ,0.88737 ,2.71478 ,26.63744 
162 ,29.5214 ,0.88920 ,2.68056 ,26.30165 
163 ,29.7135 ,0.89109 ,2.67029 ,26.20092 
164 ,29.9056 ,0.89313 ,2.65660 ,26.06661 
165 ,30.0815 ,0.89487 ,2.63607 ,25.86514 
166 ,30.2571 ,0.89660 ,2.62238 ,25.73082 
167 ,30.4336 ,0.89836 ,2.61554 ,25.66367 
168 ,30.6094 ,0.90016 ,2.59843 ,25.49577 
169 ,30.7857 ,0.90192 ,2.57447 ,25.26073 
170 ,30.9780 ,0.90371 ,2.55052 ,25.02568 
171 ,31.1701 ,0.90565 ,2.54025 ,24.92494 
172 ,31.3621 ,0.90763 ,2.52656 ,24.79063 
173 ,31.5382 ,0.90940 ,2.50945 ,24.62274 
174 ,31.7143 ,0.91118 ,2.49234 ,24.45485 
175 ,31.8904 ,0.91297 ,2.49918 ,24.52200 
176 ,32.0985 ,0.91486 ,2.45812 ,24.11906 
177 ,32.2906 ,0.91689 ,2.46839 ,24.21980 
178 ,32.4826 ,0.91878 ,2.43074 ,23.85044 
179 ,32.6907 ,0.92091 ,2.42732 ,23.81686 
180 ,32.8667 ,0.92272 ,2.41021 ,23.64897 
181 ,33.0589 ,0.92453 ,2.38968 ,23.44750 
182 ,33.2510 ,0.92647 ,2.37941 ,23.34676 
183 ,33.4429 ,0.92848 ,2.35888 ,23.14529 
184 ,33.6188 ,0.93017 ,2.33150 ,22.87667 
185 ,33.7950 ,0.93199 ,2.32123 ,22.77593 
186 ,33.9710 ,0.93378 ,2.30754 ,22.64162 
187 ,34.1469 ,0.93549 ,2.30412 ,22.60804 
188 ,34.3229 ,0.93725 ,2.29728 ,22.54088 
189 ,34.4989 ,0.93900 ,2.26306 ,22.20510 
190 ,34.6750 ,0.94079 ,2.25279 ,22.10437 
191 ,34.8513 ,0.94263 ,2.23226 ,21.90290 
192 ,35.0436 ,0.94447 ,2.23910 ,21.97005 
193 ,35.2195 ,0.94620 ,2.19119 ,21.49996 
194 ,35.3953 ,0.94798 ,2.19119 ,21.49996 
195 ,35.5878 ,0.94985 ,2.18777 ,21.46638 
196 ,35.7799 ,0.95174 ,2.17750 ,21.36564 
197 ,35.9723 ,0.95377 ,2.15012 ,21.09702 
198 ,36.1641 ,0.95570 ,2.14670 ,21.06344 
199 ,36.3403 ,0.95745 ,2.12959 ,20.89555 
200 ,36.5479 ,0.95948 ,2.10906 ,20.69408 
201 ,36.7243 ,0.96132 ,2.09537 ,20.55976 
202 ,36.9322 ,0.96326 ,2.07141 ,20.32472 
203 ,37.1083 ,0.96512 ,2.06115 ,20.22398 
204 ,37.2845 ,0.96686 ,2.04746 ,20.08967 
205 ,37.4606 ,0.96868 ,2.04061 ,20.02251 
206 ,37.6524 ,0.97056 ,2.00639 ,19.68673 
207 ,37.8606 ,0.97247 ,2.01324 ,19.75388 
208 ,38.0690 ,0.97464 ,2.00639 ,19.68673 
209 ,38.2448 ,0.97650 ,1.98244 ,19.45168 
210 ,38.4369 ,0.97837 ,1.93795 ,19.01516 
211 ,38.6129 ,0.98015 ,1.94137 ,19.04874 
212 ,38.7733 ,0.98187 ,1.92768 ,18.91443 
213 ,38.9492 ,0.98353 ,1.91399 ,18.78011 
214 ,39.1248 ,0.98525 ,1.90715 ,18.71296 
215 ,39.3010 ,0.98706 ,1.89688 ,18.61222 
216 ,39.4775 ,0.98878 ,1.86608 ,18.31002 
217 ,39.6697 ,0.99074 ,1.86951 ,18.34360 
218 ,39.8616 ,0.99268 ,1.84213 ,18.07497 
219 ,40.0377 ,0.99440 ,1.82844 ,17.94066 
220 ,40.2458 ,0.99637 ,1.80106 ,17.67203 
221 ,40.4219 ,0.99825 ,1.81817 ,17.83992 
222 ,40.6136 ,1.00015 ,1.77026 ,17.36983 
223 ,40.7901 ,1.00191 ,1.76684 ,17.33625 
224 ,40.9823 ,1.00373 ,1.76342 ,17.30267 
225 ,41.1583 ,1.00560 ,1.73946 ,17.06762 
226 ,41.3501 ,1.00751 ,1.72235 ,16.89973 
227 ,41.5423 ,1.00933 ,1.71893 ,16.86615 
228 ,41.7342 ,1.01138 ,1.68129 ,16.49679 
229 ,41.9102 ,1.01307 ,1.68129 ,16.49679 
230 ,42.0865 ,1.01488 ,1.67786 ,16.46321 
231 ,42.2628 ,1.01667 ,1.66418 ,16.32890 
232 ,42.4387 ,1.01839 ,1.64022 ,16.09385 
233 ,42.6143 ,1.02016 ,1.63338 ,16.02669 
234 ,42.7909 ,1.02192 ,1.60600 ,15.75807 
235 ,42.9826 ,1.02376 ,1.60600 ,15.75807 
236 ,43.1591 ,1.02562 ,1.60258 ,15.72449 
237 ,43.3671 ,1.02765 ,1.57178 ,15.42228 
238 ,43.5593 ,1.02950 ,1.56493 ,15.35513 
239 ,43.7513 ,1.03154 ,1.53413 ,15.05292 
240 ,43.9433 ,1.03345 ,1.53413 ,15.05292 
241 ,44.1194 ,1.03519 ,1.51702 ,14.88503 
242 ,44.3116 ,1.03715 ,1.48965 ,14.61640 
243 ,44.5037 ,1.03895 ,1.47253 ,14.44851 
244 ,44.6796 ,1.04084 ,1.48622 ,14.58283 
245 ,44.8877 ,1.04274 ,1.44858 ,14.21346 
246 ,45.0640 ,1.04464 ,1.44516 ,14.17989 
247 ,45.2559 ,1.04654 ,1.43489 ,14.07915 
248 ,45.4643 ,1.04858 ,1.43147 ,14.04557 
249 ,45.6400 ,1.05037 ,1.41778 ,13.91126 
250 ,45.8160 ,1.05215 ,1.39040 ,13.64263 
251 ,45.9923 ,1.05393 ,1.36987 ,13.44116 
252 ,46.1681 ,1.05569 ,1.34934 ,13.23969 
253 ,46.3443 ,1.05746 ,1.34934 ,13.23969 
254 ,46.5365 ,1.05937 ,1.35618 ,13.30685 
255 ,46.7126 ,1.06112 ,1.32196 ,12.97107 
256 ,46.8886 ,1.06286 ,1.29116 ,12.66886 
257 ,47.0649 ,1.06467 ,1.29116 ,12.66886 
258 ,47.2564 ,1.06654 ,1.28774 ,12.63528 
259 ,47.4329 ,1.06836 ,1.26720 ,12.43381 
260 ,47.6249 ,1.07025 ,1.23983 ,12.16519 
261 ,47.8010 ,1.07203 ,1.25009 ,12.26592 
262 ,47.9930 ,1.07388 ,1.21587 ,11.93014 
263 ,48.1691 ,1.07566 ,1.20903 ,11.86298 
264 ,48.3611 ,1.07756 ,1.20903 ,11.86298 
265 ,48.5533 ,1.07938 ,1.18507 ,11.62794 
266 ,48.7292 ,1.08133 ,1.17481 ,11.52720 
267 ,48.9055 ,1.08304 ,1.14743 ,11.25857 
268 ,49.1136 ,1.08506 ,1.14743 ,11.25857 
269 ,49.2895 ,1.08690 ,1.13374 ,11.12426 
270 ,49.4657 ,1.08865 ,1.12005 ,10.98995 
271 ,49.6577 ,1.09053 ,1.11321 ,10.92279 
272 ,49.8337 ,1.09232 ,1.10636 ,10.85563 
273 ,50.0100 ,1.09409 ,1.07556 ,10.55343 
274 ,50.1859 ,1.09588 ,1.06187 ,10.41912 
275 ,50.3781 ,1.09774 ,1.06187 ,10.41912 
276 ,50.5702 ,1.09964 ,1.03108 ,10.11691 
277 ,50.7623 ,1.10158 ,1.02765 ,10.08333 
278 ,50.9543 ,1.10340 ,1.01054 ,9.91544 
279 ,51.1464 ,1.10544 ,0.99001 ,9.71397 
280 ,51.3225 ,1.10716 ,0.99001 ,9.71397 
281 ,51.5141 ,1.10917 ,0.97290 ,9.54608 
282 ,51.6747 ,1.11082 ,0.95921 ,9.41177 
283 ,51.8506 ,1.11242 ,0.94894 ,9.31103 
284 ,52.0268 ,1.11420 ,0.93183 ,9.14314 
285 ,52.2029 ,1.11605 ,0.92499 ,9.07598 
286 ,52.3787 ,1.11781 ,0.91472 ,8.97525 
287 ,52.5546 ,1.11964 ,0.91814 ,9.00883 
288 ,52.7308 ,1.12127 ,0.89419 ,8.77378 
289 ,52.9069 ,1.12305 ,0.86681 ,8.50515 
290 ,53.1153 ,1.12500 ,0.87023 ,8.53873 
291 ,53.2911 ,1.12694 ,0.85997 ,8.43800 
292 ,53.4677 ,1.12869 ,0.84286 ,8.27011 
293 ,53.6593 ,1.13050 ,0.83259 ,8.16937 
294 ,53.8194 ,1.13226 ,0.82232 ,8.06864 
295 ,54.0115 ,1.13405 ,0.80863 ,7.93432 
296 ,54.1877 ,1.13579 ,0.78810 ,7.73285 
297 ,54.3798 ,1.13771 ,0.77784 ,7.63212 
298 ,54.5558 ,1.13947 ,0.77441 ,7.59854 
299 ,54.7318 ,1.14131 ,0.75046 ,7.36349 
300 ,54.9239 ,1.14312 ,0.73335 ,7.19560 
301 ,55.1321 ,1.14520 ,0.71624 ,7.02771 
302 ,55.3082 ,1.14708 ,0.72992 ,7.16202 
303 ,55.4842 ,1.14882 ,0.69913 ,6.85982 
304 ,55.6603 ,1.15058 ,0.68544 ,6.72550 
305 ,55.8361 ,1.15231 ,0.67517 ,6.62477 
306 ,56.0285 ,1.15418 ,0.65121 ,6.38972 
307 ,56.2204 ,1.15619 ,0.64095 ,6.28899 
308 ,56.4127 ,1.15797 ,0.63753 ,6.25541 
309 ,56.5886 ,1.15988 ,0.65121 ,6.38972 
310 ,56.7645 ,1.16157 ,0.60330 ,5.91962 
311 ,56.9407 ,1.16335 ,0.58962 ,5.78531 
312 ,57.1168 ,1.16507 ,0.59304 ,5.81889 
313 ,57.2930 ,1.16688 ,0.58277 ,5.71815 
314 ,57.4851 ,1.16880 ,0.55882 ,5.48311 
315 ,57.6770 ,1.17071 ,0.55882 ,5.48311 
316 ,57.8529 ,1.17250 ,0.54855 ,5.38237 
317 ,58.0293 ,1.17427 ,0.54513 ,5.34879 
318 ,58.2213 ,1.17616 ,0.50748 ,4.97943 
319 ,58.3975 ,1.17791 ,0.51433 ,5.04659 
320 ,58.5737 ,1.17969 ,0.50406 ,4.94585 
321 ,58.7495 ,1.18142 ,0.49380 ,4.84512 
322 ,58.9252 ,1.18329 ,0.46642 ,4.57649 
323 ,59.1015 ,1.18493 ,0.45615 ,4.47576 
324 ,59.2938 ,1.18690 ,0.46300 ,4.54291 
325 ,59.4859 ,1.18877 ,0.42877 ,4.20713 
326 ,59.6779 ,1.19072 ,0.42535 ,4.17355 
327 ,59.8540 ,1.19251 ,0.41509 ,4.07282 
328 ,60.0461 ,1.19434 ,0.40140 ,3.93850 
329 ,60.2382 ,1.19626 ,0.39455 ,3.87135 
330 ,60.4302 ,1.19823 ,0.39455 ,3.87135 
331 ,60.6061 ,1.20001 ,0.38086 ,3.73703 
332 ,60.7822 ,1.20178 ,0.35691 ,3.50199 
333 ,60.9744 ,1.20366 ,0.35006 ,3.43483 
334 ,61.1506 ,1.20544 ,0.34322 ,3.36767 
335 ,61.3427 ,1.20737 ,0.30900 ,3.03189 
336 ,61.5187 ,1.20913 ,0.29873 ,2.93116 
337 ,61.6947 ,1.21086 ,0.30558 ,2.99831 
338 ,61.8711 ,1.21266 ,0.28847 ,2.83042 
339 ,62.0627 ,1.21451 ,0.27478 ,2.69611 
340 ,62.2390 ,1.21630 ,0.25424 ,2.49464 
341 ,62.4310 ,1.21821 ,0.26109 ,2.56179 
342 ,62.6073 ,1.22002 ,0.25424 ,2.49464 
343 ,62.8150 ,1.22191 ,0.21660 ,2.12528 
344 ,62.9911 ,1.22382 ,0.22687 ,2.22601 
345 ,63.1671 ,1.22556 ,0.21660 ,2.12528 
346 ,63.3432 ,1.22738 ,0.20291 ,1.99096 
347 ,63.5356 ,1.22929 ,0.18580 ,1.82307 
348 ,63.7117 ,1.23108 ,0.18922 ,1.85665 
349 ,63.9038 ,1.23302 ,0.15842 ,1.55445 
350 ,64.0957 ,1.23486 ,0.15158 ,1.48729 
351 ,64.2558 ,1.23659 ,0.14816 ,1.45371 
352 ,64.4160 ,1.23818 ,0.14816 ,1.45371 
353 ,64.6079 ,1.23999 ,0.12078 ,1.18508 
354 ,64.7841 ,1.24175 ,0.11051 ,1.08435 
355 ,64.9762 ,1.24363 ,0.10709 ,1.05077 
356 ,65.1522 ,1.24544 ,0.08998 ,0.88288 
357 ,65.3281 ,1.24716 ,0.08656 ,0.84930 
358 ,65.5044 ,1.24895 ,0.07287 ,0.71499 
359 ,65.6805 ,1.25073 ,0.04891 ,0.47994 
360 ,65.8727 ,1.25262 ,0.03865 ,0.37920 
361 ,66.0648 ,1.25450 ,0.04891 ,0.47994 
362 ,66.2729 ,1.25665 ,0.04207 ,0.41278 
363 ,66.4486 ,1.25838 ,0.03865 ,0.37920 
364 ,66.6409 ,1.26036 ,-0.00926 ,-0.09089 
365 ,66.8167 ,1.26205 ,-0.01611 ,-0.15805 
366 ,66.9931 ,1.26385 ,-0.00584 ,-0.05731 
367 ,67.1850 ,1.26571 ,-0.02637 ,-0.25878 
368 ,67.3613 ,1.26755 ,-0.04348 ,-0.42667 
369 ,67.5532 ,1.26939 ,-0.04691 ,-0.46025 
370 ,67.7450 ,1.27138 ,-0.05375 ,-0.52741 
371 ,67.9371 ,1.27322 ,-0.07428 ,-0.72888 
372 ,68.1135 ,1.27506 ,-0.08455 ,-0.82961 
373 ,68.3056 ,1.27695 ,-0.08797 ,-0.86319 
374 ,68.4977 ,1.27882 ,-0.09482 ,-0.93035 
375 ,68.6739 ,1.28067 ,-0.11877 ,-1.16540 
376 ,68.8497 ,1.28237 ,-0.11193 ,-1.09824 
377 ,69.0259 ,1.28421 ,-0.10166 ,-0.99751 
378 ,69.2017 ,1.28593 ,-0.13931 ,-1.36687 
379 ,69.3780 ,1.28771 ,-0.14957 ,-1.46760 
380 ,69.5541 ,1.28943 ,-0.16668 ,-1.63549 
381 ,69.7300 ,1.29118 ,-0.15299 ,-1.50118 
382 ,69.9058 ,1.29297 ,-0.15984 ,-1.56834 
383 ,70.0823 ,1.29469 ,-0.19064 ,-1.87054 
384 ,70.2746 ,1.29657 ,-0.18379 ,-1.80338 
385 ,70.4505 ,1.29838 ,-0.19064 ,-1.87054 
386 ,70.6266 ,1.30018 ,-0.20090 ,-1.97128 
387 ,70.8348 ,1.30212 ,-0.24197 ,-2.37422 
388 ,71.0107 ,1.30397 ,-0.23170 ,-2.27348 
389 ,71.1869 ,1.30580 ,-0.24197 ,-2.37422 
390 ,71.3789 ,1.30770 ,-0.26935 ,-2.64284 
391 ,71.5708 ,1.30956 ,-0.25566 ,-2.50853 
392 ,71.7470 ,1.31136 ,-0.25566 ,-2.50853 
393 ,71.9231 ,1.31308 ,-0.27277 ,-2.67642 
394 ,72.0992 ,1.31486 ,-0.29673 ,-2.91147 
395 ,72.2756 ,1.31661 ,-0.31384 ,-3.07936 
396 ,72.4674 ,1.31849 ,-0.31041 ,-3.04578 
397 ,72.6595 ,1.32041 ,-0.32410 ,-3.18010 
398 ,72.8515 ,1.32232 ,-0.31726 ,-3.11294 
399 ,73.0596 ,1.32444 ,-0.34806 ,-3.41514 
400 ,73.2357 ,1.32629 ,-0.36517 ,-3.58303 
401 ,73.4118 ,1.32805 ,-0.36517 ,-3.58303 
402 ,73.6038 ,1.32989 ,-0.36175 ,-3.54946 
403 ,73.7794 ,1.33165 ,-0.37544 ,-3.68377 
404 ,73.9560 ,1.33342 ,-0.39939 ,-3.91882 
405 ,74.1479 ,1.33537 ,-0.38912 ,-3.81808 
406 ,74.3241 ,1.33713 ,-0.39255 ,-3.85166 
407 ,74.5162 ,1.33907 ,-0.42335 ,-4.15387 
408 ,74.6921 ,1.34079 ,-0.42677 ,-4.18744 
409 ,74.8683 ,1.34257 ,-0.42335 ,-4.15387 
410 ,75.0444 ,1.34433 ,-0.42677 ,-4.18744 
411 ,75.2365 ,1.34620 ,-0.46099 ,-4.52323 
412 ,75.4284 ,1.34809 ,-0.47126 ,-4.62396 
413 ,75.6366 ,1.35021 ,-0.46441 ,-4.55681 
414 ,75.8128 ,1.35200 ,-0.48152 ,-4.72470 
415 ,76.0048 ,1.35384 ,-0.47810 ,-4.69112 
416 ,76.1808 ,1.35566 ,-0.49863 ,-4.89259 
417 ,76.3409 ,1.35739 ,-0.50206 ,-4.92617 
418 ,76.5170 ,1.35907 ,-0.51574 ,-5.06048 
419 ,76.7090 ,1.36098 ,-0.51917 ,-5.09406 
420 ,76.8850 ,1.36270 ,-0.51574 ,-5.06048 
421 ,77.0772 ,1.36455 ,-0.54654 ,-5.36268 
422 ,77.2852 ,1.36666 ,-0.53285 ,-5.22837 
423 ,77.4612 ,1.36850 ,-0.55681 ,-5.46342 
424 ,77.6371 ,1.37020 ,-0.57050 ,-5.59773 
425 ,77.8136 ,1.37201 ,-0.58761 ,-5.76562 
426 ,77.9893 ,1.37389 ,-0.57734 ,-5.66489 
427 ,78.1656 ,1.37554 ,-0.57392 ,-5.63131 
428 ,78.3418 ,1.37730 ,-0.59103 ,-5.79920 
429 ,78.5177 ,1.37905 ,-0.59788 ,-5.86636 
430 ,78.7096 ,1.38096 ,-0.61499 ,-6.03425 
431 ,78.8858 ,1.38273 ,-0.61841 ,-6.06783 
432 ,79.0618 ,1.38452 ,-0.60814 ,-5.96709 
433 ,79.2540 ,1.38630 ,-0.63552 ,-6.23572 
434 ,79.4463 ,1.38832 ,-0.62868 ,-6.16856 
435 ,79.6383 ,1.39023 ,-0.65947 ,-6.47077 
436 ,79.8145 ,1.39197 ,-0.66974 ,-6.57150 
437 ,80.0064 ,1.39390 ,-0.66290 ,-6.50435 
438 ,80.1825 ,1.39564 ,-0.67316 ,-6.60508 
439 ,80.3590 ,1.39745 ,-0.69370 ,-6.80655 
440 ,80.5506 ,1.39931 ,-0.69370 ,-6.80655 
441 ,80.7266 ,1.40115 ,-0.70054 ,-6.87371 
442 ,80.9026 ,1.40288 ,-0.68685 ,-6.73940 
443 ,81.0787 ,1.40466 ,-0.72107 ,-7.07518 
444 ,81.2548 ,1.40638 ,-0.73134 ,-7.17591 
445 ,81.4470 ,1.40825 ,-0.73476 ,-7.20949 
446 ,81.6390 ,1.41013 ,-0.72792 ,-7.14233 
447 ,81.8472 ,1.41226 ,-0.75187 ,-7.37738 
448 ,82.0392 ,1.41422 ,-0.76556 ,-7.51170 
449 ,82.2150 ,1.41603 ,-0.77925 ,-7.64601 
450 ,82.3914 ,1.41778 ,-0.77925 ,-7.64601 
451 ,82.5834 ,1.41967 ,-0.77583 ,-7.61243 
452 ,82.7592 ,1.42144 ,-0.79294 ,-7.78032 
453 ,82.9357 ,1.42325 ,-0.81005 ,-7.94821 
454 ,83.1117 ,1.42502 ,-0.81689 ,-8.01537 
455 ,83.3032 ,1.42686 ,-0.81689 ,-8.01537 
456 ,83.4794 ,1.42861 ,-0.82716 ,-8.11611 
457 ,83.6555 ,1.43040 ,-0.83401 ,-8.18326 
458 ,83.8318 ,1.43215 ,-0.84427 ,-8.28400 
459 ,84.0561 ,1.43434 ,-0.86138 ,-8.45189 
460 ,84.2643 ,1.43632 ,-0.85112 ,-8.35115 
461 ,84.4563 ,1.43833 ,-0.89560 ,-8.78767 
462 ,84.6483 ,1.44025 ,-0.86481 ,-8.48547 
463 ,84.8244 ,1.44209 ,-0.87849 ,-8.61978 
