Data stamp = , 02-04-2022 01:01:26 792

Calibration Values: 
Slope = , 26.54 , g/V 
Offset Voltage at no contact = , -0.501760 , V 

No , Time , Stage Position ,   Mass , Force 
   ,  (s) ,      (mm)      ,   (g)  , (mN)  

1 ,0.0000 ,0.64952 ,4.99737 ,49.03416 
2 ,0.2183 ,0.64959 ,5.00763 ,49.13490 
3 ,0.5226 ,0.65038 ,5.00763 ,49.13490 
4 ,0.7144 ,0.65178 ,5.00079 ,49.06774 
5 ,0.9064 ,0.65335 ,5.00421 ,49.10132 
6 ,1.0986 ,0.65517 ,5.01106 ,49.16848 
7 ,1.2910 ,0.65714 ,5.00763 ,49.13490 
8 ,1.4831 ,0.65896 ,5.00421 ,49.10132 
9 ,1.6590 ,0.66090 ,5.01790 ,49.23563 
10 ,1.8509 ,0.66266 ,4.99394 ,49.00058 
11 ,2.0431 ,0.66465 ,4.99737 ,49.03416 
12 ,2.2191 ,0.66644 ,4.99394 ,49.00058 
13 ,2.3953 ,0.66822 ,4.98368 ,48.89985 
14 ,2.5714 ,0.66995 ,4.95972 ,48.66480 
15 ,2.7476 ,0.67173 ,4.95972 ,48.66480 
16 ,2.9236 ,0.67354 ,4.95972 ,48.66480 
17 ,3.0836 ,0.67523 ,4.93919 ,48.46333 
18 ,3.2597 ,0.67687 ,4.93235 ,48.39618 
19 ,3.4358 ,0.67862 ,4.91866 ,48.26186 
20 ,3.6118 ,0.68040 ,4.88786 ,47.95966 
21 ,3.7881 ,0.68211 ,4.90497 ,48.12755 
22 ,3.9638 ,0.68391 ,4.89128 ,47.99324 
23 ,4.1399 ,0.68563 ,4.87417 ,47.82534 
24 ,4.3161 ,0.68744 ,4.84679 ,47.55672 
25 ,4.5080 ,0.68935 ,4.84337 ,47.52314 
26 ,4.6842 ,0.69110 ,4.82968 ,47.38883 
27 ,4.8765 ,0.69297 ,4.80915 ,47.18736 
28 ,5.0524 ,0.69479 ,4.79546 ,47.05304 
29 ,5.2281 ,0.69654 ,4.78177 ,46.91873 
30 ,5.4045 ,0.69826 ,4.76808 ,46.78442 
31 ,5.5806 ,0.70005 ,4.75782 ,46.68368 
32 ,5.7726 ,0.70196 ,4.73386 ,46.44863 
33 ,5.9488 ,0.70372 ,4.71333 ,46.24716 
34 ,6.1246 ,0.70553 ,4.70306 ,46.14643 
35 ,6.3009 ,0.70724 ,4.68595 ,45.97854 
36 ,6.4932 ,0.70919 ,4.64831 ,45.60918 
37 ,6.6687 ,0.71095 ,4.63804 ,45.50844 
38 ,6.8450 ,0.71267 ,4.62435 ,45.37413 
39 ,7.0212 ,0.71451 ,4.60040 ,45.13908 
40 ,7.2129 ,0.71640 ,4.56960 ,44.83688 
41 ,7.3892 ,0.71812 ,4.55591 ,44.70256 
42 ,7.5813 ,0.72005 ,4.53880 ,44.53467 
43 ,7.7575 ,0.72181 ,4.50800 ,44.23247 
44 ,7.9496 ,0.72371 ,4.48746 ,44.03100 
45 ,8.1257 ,0.72551 ,4.49431 ,44.09815 
46 ,8.3173 ,0.72731 ,4.47378 ,43.89668 
47 ,8.4938 ,0.72919 ,4.42929 ,43.46016 
48 ,8.6855 ,0.73108 ,4.42929 ,43.46016 
49 ,8.8619 ,0.73287 ,4.40191 ,43.19154 
50 ,9.0379 ,0.73459 ,4.37795 ,42.95649 
51 ,9.2141 ,0.73639 ,4.36427 ,42.82218 
52 ,9.4061 ,0.73828 ,4.35400 ,42.72144 
53 ,9.5823 ,0.74007 ,4.33347 ,42.51997 
54 ,9.7740 ,0.74188 ,4.30951 ,42.28492 
55 ,9.9665 ,0.74376 ,4.29924 ,42.18419 
56 ,10.1424 ,0.74567 ,4.28213 ,42.01630 
57 ,10.3504 ,0.74757 ,4.26845 ,41.88198 
58 ,10.5266 ,0.74952 ,4.25133 ,41.71409 
59 ,10.7346 ,0.75153 ,4.21711 ,41.37831 
60 ,10.9107 ,0.75335 ,4.21369 ,41.34473 
61 ,11.0867 ,0.75512 ,4.20342 ,41.24400 
62 ,11.2789 ,0.75701 ,4.15894 ,40.80748 
63 ,11.4547 ,0.75876 ,4.15209 ,40.74032 
64 ,11.6311 ,0.76054 ,4.13840 ,40.60601 
65 ,11.8391 ,0.76253 ,4.11103 ,40.33738 
66 ,12.0152 ,0.76443 ,4.09391 ,40.16949 
67 ,12.2073 ,0.76634 ,4.08707 ,40.10233 
68 ,12.3994 ,0.76810 ,4.05969 ,39.83371 
69 ,12.5754 ,0.77000 ,4.02889 ,39.53150 
70 ,12.7515 ,0.77170 ,4.02547 ,39.49793 
71 ,12.9276 ,0.77350 ,4.01520 ,39.39719 
72 ,13.1035 ,0.77523 ,3.98098 ,39.06141 
73 ,13.2797 ,0.77701 ,3.95703 ,38.82636 
74 ,13.4559 ,0.77874 ,3.94676 ,38.72562 
75 ,13.6319 ,0.78054 ,3.93307 ,38.59131 
76 ,13.8079 ,0.78224 ,3.91938 ,38.45700 
77 ,13.9839 ,0.78408 ,3.91254 ,38.38984 
78 ,14.1441 ,0.78575 ,3.88174 ,38.08764 
79 ,14.3362 ,0.78744 ,3.86463 ,37.91975 
80 ,14.5124 ,0.78934 ,3.86463 ,37.91975 
81 ,14.6883 ,0.79110 ,3.84410 ,37.71828 
82 ,14.8643 ,0.79281 ,3.81330 ,37.41607 
83 ,15.0404 ,0.79459 ,3.79276 ,37.21460 
84 ,15.2165 ,0.79642 ,3.77908 ,37.08029 
85 ,15.3924 ,0.79813 ,3.77565 ,37.04671 
86 ,15.6006 ,0.80015 ,3.73459 ,36.64377 
87 ,15.7767 ,0.80199 ,3.71748 ,36.47588 
88 ,15.9528 ,0.80371 ,3.71405 ,36.44230 
89 ,16.1285 ,0.80550 ,3.71748 ,36.47588 
90 ,16.3049 ,0.80718 ,3.67983 ,36.10652 
91 ,16.4809 ,0.80900 ,3.66614 ,35.97220 
92 ,16.6731 ,0.81094 ,3.64903 ,35.80431 
93 ,16.8331 ,0.81265 ,3.63534 ,35.67000 
94 ,17.0092 ,0.81431 ,3.62508 ,35.56926 
95 ,17.1854 ,0.81603 ,3.60112 ,35.33422 
96 ,17.3613 ,0.81781 ,3.58401 ,35.16632 
97 ,17.5375 ,0.81960 ,3.57032 ,35.03201 
98 ,17.7134 ,0.82132 ,3.55663 ,34.89770 
99 ,17.8896 ,0.82308 ,3.52926 ,34.62907 
100 ,18.0656 ,0.82482 ,3.52241 ,34.56192 
101 ,18.2418 ,0.82662 ,3.48819 ,34.22613 
102 ,18.4178 ,0.82833 ,3.49504 ,34.29329 
103 ,18.5939 ,0.83017 ,3.46424 ,33.99108 
104 ,18.7859 ,0.83194 ,3.46081 ,33.95751 
105 ,18.9621 ,0.83379 ,3.41633 ,33.52099 
106 ,19.1382 ,0.83562 ,3.42659 ,33.62172 
107 ,19.3142 ,0.83740 ,3.39921 ,33.35310 
108 ,19.5063 ,0.83919 ,3.38210 ,33.18520 
109 ,19.6824 ,0.84107 ,3.35815 ,32.95016 
110 ,19.8585 ,0.84277 ,3.35815 ,32.95016 
111 ,20.0345 ,0.84460 ,3.33419 ,32.71511 
112 ,20.2267 ,0.84640 ,3.31024 ,32.48006 
113 ,20.4027 ,0.84825 ,3.29655 ,32.34575 
114 ,20.5948 ,0.85015 ,3.29313 ,32.31217 
115 ,20.7869 ,0.85199 ,3.27259 ,32.11070 
116 ,20.9787 ,0.85398 ,3.26233 ,32.00996 
117 ,21.1545 ,0.85576 ,3.23495 ,31.74134 
118 ,21.3306 ,0.85749 ,3.22468 ,31.64060 
119 ,21.5068 ,0.85924 ,3.19388 ,31.33840 
120 ,21.6992 ,0.86115 ,3.19731 ,31.37198 
121 ,21.8911 ,0.86306 ,3.16309 ,31.03619 
122 ,22.0670 ,0.86486 ,3.13913 ,30.80115 
123 ,22.2432 ,0.86662 ,3.12202 ,30.63325 
124 ,22.4196 ,0.86840 ,3.12886 ,30.70041 
125 ,22.5955 ,0.87018 ,3.11175 ,30.53252 
126 ,22.7877 ,0.87197 ,3.07411 ,30.16316 
127 ,22.9796 ,0.87398 ,3.07753 ,30.19674 
128 ,23.1553 ,0.87573 ,3.06384 ,30.06242 
129 ,23.3318 ,0.87751 ,3.03989 ,29.82737 
130 ,23.5078 ,0.87920 ,3.01935 ,29.62590 
131 ,23.6838 ,0.88099 ,3.00567 ,29.49159 
132 ,23.8759 ,0.88293 ,2.98855 ,29.32370 
133 ,24.0683 ,0.88478 ,2.96460 ,29.08865 
134 ,24.2601 ,0.88675 ,2.97144 ,29.15581 
135 ,24.4361 ,0.88851 ,2.95091 ,28.95434 
136 ,24.6119 ,0.89030 ,2.91669 ,28.61856 
137 ,24.7884 ,0.89202 ,2.90642 ,28.51782 
138 ,24.9802 ,0.89398 ,2.90300 ,28.48424 
139 ,25.1726 ,0.89587 ,2.87562 ,28.21562 
140 ,25.3325 ,0.89759 ,2.85509 ,28.01415 
141 ,25.5086 ,0.89927 ,2.83456 ,27.81268 
142 ,25.6848 ,0.90103 ,2.81745 ,27.64479 
143 ,25.8609 ,0.90281 ,2.83114 ,27.77910 
144 ,26.0368 ,0.90454 ,2.81402 ,27.61121 
145 ,26.2130 ,0.90631 ,2.79007 ,27.37616 
146 ,26.3890 ,0.90816 ,2.76611 ,27.14111 
147 ,26.5811 ,0.90998 ,2.75927 ,27.07395 
148 ,26.7573 ,0.91173 ,2.74558 ,26.93964 
149 ,26.9330 ,0.91349 ,2.71820 ,26.67101 
150 ,27.1094 ,0.91521 ,2.70109 ,26.50312 
151 ,27.3012 ,0.91717 ,2.69425 ,26.43597 
152 ,27.4935 ,0.91906 ,2.67372 ,26.23450 
153 ,27.6853 ,0.92102 ,2.66003 ,26.10018 
154 ,27.8617 ,0.92276 ,2.64976 ,25.99945 
155 ,28.0537 ,0.92470 ,2.61554 ,25.66367 
156 ,28.2298 ,0.92650 ,2.59843 ,25.49577 
157 ,28.4057 ,0.92823 ,2.60185 ,25.52935 
158 ,28.5980 ,0.93008 ,2.57447 ,25.26073 
159 ,28.7741 ,0.93193 ,2.55736 ,25.09283 
160 ,28.9502 ,0.93370 ,2.52998 ,24.82421 
161 ,29.1260 ,0.93540 ,2.52314 ,24.75705 
162 ,29.3023 ,0.93716 ,2.51630 ,24.68989 
163 ,29.4781 ,0.93896 ,2.50945 ,24.62274 
164 ,29.6544 ,0.94071 ,2.47865 ,24.32053 
165 ,29.8465 ,0.94267 ,2.46839 ,24.21980 
166 ,30.0224 ,0.94437 ,2.45812 ,24.11906 
167 ,30.1983 ,0.94614 ,2.44443 ,23.98475 
168 ,30.3747 ,0.94789 ,2.42390 ,23.78328 
169 ,30.5503 ,0.94969 ,2.38625 ,23.41392 
170 ,30.7268 ,0.95141 ,2.40336 ,23.58181 
171 ,30.9188 ,0.95329 ,2.37256 ,23.27961 
172 ,31.1109 ,0.95531 ,2.35203 ,23.07814 
173 ,31.3031 ,0.95719 ,2.33492 ,22.91024 
174 ,31.4950 ,0.95910 ,2.31439 ,22.70877 
175 ,31.6551 ,0.96081 ,2.30754 ,22.64162 
176 ,31.8312 ,0.96245 ,2.29728 ,22.54088 
177 ,32.0233 ,0.96439 ,2.29385 ,22.50731 
178 ,32.1991 ,0.96616 ,2.26306 ,22.20510 
179 ,32.3754 ,0.96789 ,2.24594 ,22.03721 
180 ,32.5515 ,0.96970 ,2.22541 ,21.83574 
181 ,32.7275 ,0.97142 ,2.23226 ,21.90290 
182 ,32.9034 ,0.97314 ,2.21172 ,21.70143 
183 ,33.0954 ,0.97503 ,2.17408 ,21.33206 
184 ,33.2716 ,0.97684 ,2.16381 ,21.23133 
185 ,33.4477 ,0.97859 ,2.16039 ,21.19775 
186 ,33.6399 ,0.98053 ,2.13301 ,20.92912 
187 ,33.8161 ,0.98231 ,2.11590 ,20.76123 
188 ,34.0241 ,0.98433 ,2.10221 ,20.62692 
189 ,34.2002 ,0.98615 ,2.09195 ,20.52619 
190 ,34.3762 ,0.98789 ,2.08168 ,20.42545 
191 ,34.5524 ,0.98961 ,2.06457 ,20.25756 
192 ,34.7441 ,0.99155 ,2.05088 ,20.12325 
193 ,34.9205 ,0.99334 ,2.04404 ,20.05609 
194 ,35.0965 ,0.99520 ,2.01666 ,19.78746 
195 ,35.2726 ,0.99684 ,2.01324 ,19.75388 
196 ,35.4488 ,0.99866 ,1.99955 ,19.61957 
197 ,35.6729 ,1.00070 ,1.99270 ,19.55241 
198 ,35.8488 ,1.00261 ,1.97902 ,19.41810 
199 ,36.0249 ,1.00439 ,1.95164 ,19.14948 
200 ,36.2168 ,1.00621 ,1.93111 ,18.94801 
201 ,36.4091 ,1.00824 ,1.93111 ,18.94801 
202 ,36.5851 ,1.01001 ,1.91399 ,18.78011 
203 ,36.7613 ,1.01175 ,1.89346 ,18.57864 
204 ,36.9372 ,1.01356 ,1.87635 ,18.41075 
205 ,37.1134 ,1.01528 ,1.87977 ,18.44433 
206 ,37.2894 ,1.01704 ,1.85924 ,18.24286 
207 ,37.4813 ,1.01893 ,1.82502 ,17.90708 
208 ,37.6736 ,1.02081 ,1.83186 ,17.97423 
209 ,37.8497 ,1.02264 ,1.81817 ,17.83992 
210 ,38.0578 ,1.02465 ,1.78737 ,17.53772 
211 ,38.2499 ,1.02661 ,1.78737 ,17.53772 
212 ,38.4259 ,1.02842 ,1.76000 ,17.26909 
213 ,38.6181 ,1.03024 ,1.75657 ,17.23551 
214 ,38.7941 ,1.03210 ,1.74289 ,17.10120 
215 ,38.9858 ,1.03396 ,1.72235 ,16.89973 
216 ,39.1623 ,1.03574 ,1.70182 ,16.69826 
217 ,39.3701 ,1.03769 ,1.68471 ,16.53037 
218 ,39.5464 ,1.03959 ,1.68129 ,16.49679 
219 ,39.7384 ,1.04154 ,1.66075 ,16.29532 
220 ,39.9305 ,1.04338 ,1.65391 ,16.22816 
221 ,40.1064 ,1.04520 ,1.63680 ,16.06027 
222 ,40.2827 ,1.04689 ,1.61969 ,15.89238 
223 ,40.4588 ,1.04877 ,1.61627 ,15.85880 
224 ,40.6349 ,1.05048 ,1.59573 ,15.65733 
225 ,40.8267 ,1.05234 ,1.58547 ,15.55660 
226 ,41.0030 ,1.05413 ,1.56836 ,15.38871 
227 ,41.1791 ,1.05591 ,1.55467 ,15.25439 
228 ,41.3712 ,1.05785 ,1.54440 ,15.15366 
229 ,41.5472 ,1.05958 ,1.52045 ,14.91861 
230 ,41.7233 ,1.06138 ,1.50333 ,14.75072 
231 ,41.9473 ,1.06348 ,1.49991 ,14.71714 
232 ,42.1394 ,1.06547 ,1.49307 ,14.64998 
233 ,42.3155 ,1.06730 ,1.46911 ,14.41493 
234 ,42.5076 ,1.06916 ,1.44516 ,14.17989 
235 ,42.6835 ,1.07094 ,1.42805 ,14.01199 
236 ,42.8597 ,1.07270 ,1.44174 ,14.14631 
237 ,43.0358 ,1.07444 ,1.42120 ,13.94484 
238 ,43.2115 ,1.07617 ,1.40409 ,13.77695 
239 ,43.3880 ,1.07802 ,1.39725 ,13.70979 
240 ,43.5801 ,1.07990 ,1.38014 ,13.54190 
241 ,43.7561 ,1.08167 ,1.36987 ,13.44116 
242 ,43.9322 ,1.08345 ,1.36303 ,13.37401 
243 ,44.1081 ,1.08518 ,1.32538 ,13.00465 
244 ,44.2841 ,1.08696 ,1.31854 ,12.93749 
245 ,44.4604 ,1.08875 ,1.29800 ,12.73602 
246 ,44.6680 ,1.09072 ,1.29800 ,12.73602 
247 ,44.8445 ,1.09253 ,1.28089 ,12.56813 
248 ,45.0206 ,1.09429 ,1.28089 ,12.56813 
249 ,45.1961 ,1.09607 ,1.26378 ,12.40024 
250 ,45.3725 ,1.09783 ,1.24325 ,12.19877 
251 ,45.5648 ,1.09976 ,1.22956 ,12.06445 
252 ,45.7408 ,1.10150 ,1.20903 ,11.86298 
253 ,45.9168 ,1.10327 ,1.21587 ,11.93014 
254 ,46.0930 ,1.10503 ,1.19876 ,11.76225 
255 ,46.2850 ,1.10694 ,1.17138 ,11.49362 
256 ,46.4768 ,1.10881 ,1.17481 ,11.52720 
257 ,46.6532 ,1.11066 ,1.14743 ,11.25857 
258 ,46.8293 ,1.11241 ,1.13374 ,11.12426 
259 ,47.0053 ,1.11414 ,1.11321 ,10.92279 
260 ,47.1974 ,1.11596 ,1.11663 ,10.95637 
261 ,47.3737 ,1.11784 ,1.10636 ,10.85563 
262 ,47.5654 ,1.11980 ,1.06530 ,10.45270 
263 ,47.7415 ,1.12150 ,1.07556 ,10.55343 
264 ,47.9177 ,1.12324 ,1.06530 ,10.45270 
265 ,48.0939 ,1.12503 ,1.04476 ,10.25123 
266 ,48.2699 ,1.12681 ,1.02081 ,10.01618 
267 ,48.4620 ,1.12872 ,1.02081 ,10.01618 
268 ,48.6378 ,1.13045 ,1.01396 ,9.94902 
269 ,48.8141 ,1.13224 ,0.99343 ,9.74755 
270 ,48.9901 ,1.13401 ,0.97290 ,9.54608 
271 ,49.1822 ,1.13592 ,0.97290 ,9.54608 
272 ,49.3745 ,1.13784 ,0.95579 ,9.37819 
273 ,49.5502 ,1.13965 ,0.93525 ,9.17672 
274 ,49.7424 ,1.14141 ,0.93525 ,9.17672 
275 ,49.9345 ,1.14334 ,0.91814 ,9.00883 
276 ,50.1103 ,1.14519 ,0.89077 ,8.74020 
277 ,50.3025 ,1.14708 ,0.88734 ,8.70662 
278 ,50.4787 ,1.14887 ,0.88734 ,8.70662 
279 ,50.6547 ,1.15059 ,0.85654 ,8.40442 
280 ,50.8308 ,1.15245 ,0.84970 ,8.33726 
281 ,51.0068 ,1.15411 ,0.82575 ,8.10221 
282 ,51.1989 ,1.15605 ,0.83259 ,8.16937 
283 ,51.3753 ,1.15781 ,0.80863 ,7.93432 
284 ,51.5671 ,1.15970 ,0.79152 ,7.76643 
285 ,51.7428 ,1.16145 ,0.78468 ,7.69927 
286 ,51.9194 ,1.16328 ,0.78468 ,7.69927 
287 ,52.0953 ,1.16508 ,0.75730 ,7.43065 
288 ,52.2716 ,1.16679 ,0.72650 ,7.12844 
289 ,52.4475 ,1.16855 ,0.72308 ,7.09486 
290 ,52.6236 ,1.17029 ,0.72650 ,7.12844 
291 ,52.7995 ,1.17209 ,0.71966 ,7.06129 
292 ,52.9918 ,1.17397 ,0.68886 ,6.75908 
293 ,53.1838 ,1.17590 ,0.68886 ,6.75908 
294 ,53.3600 ,1.17769 ,0.65806 ,6.45688 
295 ,53.5519 ,1.17961 ,0.64779 ,6.35614 
296 ,53.7280 ,1.18135 ,0.62726 ,6.15467 
297 ,53.8877 ,1.18304 ,0.64095 ,6.28899 
298 ,54.0642 ,1.18472 ,0.62042 ,6.08752 
299 ,54.2403 ,1.18644 ,0.61357 ,6.02036 
300 ,54.4164 ,1.18824 ,0.58962 ,5.78531 
301 ,54.5923 ,1.19004 ,0.56908 ,5.58384 
302 ,54.7683 ,1.19174 ,0.56566 ,5.55026 
303 ,54.9602 ,1.19356 ,0.56566 ,5.55026 
304 ,55.1365 ,1.19543 ,0.54171 ,5.31522 
305 ,55.3123 ,1.19721 ,0.52459 ,5.14732 
306 ,55.4885 ,1.19894 ,0.52459 ,5.14732 
307 ,55.6810 ,1.20075 ,0.52459 ,5.14732 
308 ,55.8733 ,1.20282 ,0.48011 ,4.71081 
309 ,56.0485 ,1.20457 ,0.48695 ,4.77796 
310 ,56.2250 ,1.20633 ,0.48011 ,4.71081 
311 ,56.4169 ,1.20823 ,0.45615 ,4.47576 
312 ,56.6090 ,1.21006 ,0.45615 ,4.47576 
313 ,56.7851 ,1.21187 ,0.44931 ,4.40860 
314 ,56.9612 ,1.21365 ,0.42877 ,4.20713 
315 ,57.1370 ,1.21537 ,0.40824 ,4.00566 
316 ,57.3135 ,1.21715 ,0.38429 ,3.77061 
317 ,57.4895 ,1.21897 ,0.38429 ,3.77061 
318 ,57.6816 ,1.22075 ,0.38086 ,3.73703 
319 ,57.8576 ,1.22264 ,0.35349 ,3.46841 
320 ,58.0337 ,1.22435 ,0.34664 ,3.40125 
321 ,58.2417 ,1.22631 ,0.32269 ,3.16620 
322 ,58.4179 ,1.22824 ,0.32269 ,3.16620 
323 ,58.6260 ,1.23025 ,0.33295 ,3.26694 
324 ,58.8180 ,1.23223 ,0.29531 ,2.89758 
325 ,58.9942 ,1.23397 ,0.28162 ,2.76326 
326 ,59.1699 ,1.23577 ,0.27820 ,2.72969 
327 ,59.3624 ,1.23754 ,0.27478 ,2.69611 
328 ,59.5542 ,1.23955 ,0.25767 ,2.52822 
329 ,59.7303 ,1.24134 ,0.25082 ,2.46106 
330 ,59.9225 ,1.24324 ,0.22002 ,2.15885 
331 ,60.1145 ,1.24518 ,0.21318 ,2.09170 
332 ,60.2906 ,1.24691 ,0.22344 ,2.19243 
333 ,60.4664 ,1.24870 ,0.19949 ,1.95738 
334 ,60.6428 ,1.25044 ,0.16869 ,1.65518 
335 ,60.8349 ,1.25232 ,0.17211 ,1.68876 
336 ,61.0109 ,1.25417 ,0.17211 ,1.68876 
337 ,61.1867 ,1.25589 ,0.14473 ,1.42013 
338 ,61.3630 ,1.25768 ,0.15158 ,1.48729 
339 ,61.5552 ,1.25959 ,0.13105 ,1.28582 
340 ,61.7471 ,1.26150 ,0.12078 ,1.18508 
341 ,61.9234 ,1.26329 ,0.09340 ,0.91646 
342 ,62.0994 ,1.26500 ,0.08314 ,0.81572 
343 ,62.2915 ,1.26685 ,0.07971 ,0.78214 
344 ,62.4992 ,1.26895 ,0.05234 ,0.51352 
345 ,62.6916 ,1.27084 ,0.04891 ,0.47994 
346 ,62.8678 ,1.27271 ,0.04891 ,0.47994 
347 ,63.0439 ,1.27449 ,0.03180 ,0.31205 
348 ,63.2358 ,1.27637 ,0.03180 ,0.31205 
349 ,63.3956 ,1.27810 ,0.01811 ,0.17773 
350 ,63.5719 ,1.27973 ,0.00785 ,0.07700 
351 ,63.7641 ,1.28166 ,-0.01953 ,-0.19163 
352 ,63.9559 ,1.28360 ,-0.02637 ,-0.25878 
353 ,64.1318 ,1.28535 ,-0.01953 ,-0.19163 
354 ,64.3241 ,1.28712 ,-0.05375 ,-0.52741 
355 ,64.5001 ,1.28900 ,-0.06060 ,-0.59457 
356 ,64.6924 ,1.29087 ,-0.06744 ,-0.66172 
357 ,64.8845 ,1.29285 ,-0.10166 ,-0.99751 
358 ,65.0605 ,1.29467 ,-0.10508 ,-1.03108 
359 ,65.2367 ,1.29641 ,-0.10166 ,-0.99751 
360 ,65.4288 ,1.29832 ,-0.11535 ,-1.13182 
361 ,65.6204 ,1.30020 ,-0.13588 ,-1.33329 
362 ,65.7968 ,1.30196 ,-0.13246 ,-1.29971 
363 ,65.9728 ,1.30374 ,-0.13246 ,-1.29971 
364 ,66.1648 ,1.30566 ,-0.17353 ,-1.70265 
365 ,66.3411 ,1.30744 ,-0.17353 ,-1.70265 
366 ,66.5171 ,1.30921 ,-0.18037 ,-1.76981 
367 ,66.6932 ,1.31095 ,-0.17695 ,-1.73623 
368 ,66.8853 ,1.31288 ,-0.20775 ,-2.03843 
369 ,67.0774 ,1.31476 ,-0.20090 ,-1.97128 
370 ,67.2535 ,1.31654 ,-0.20775 ,-2.03843 
371 ,67.4616 ,1.31853 ,-0.21802 ,-2.13917 
372 ,67.6374 ,1.32036 ,-0.22486 ,-2.20632 
373 ,67.8135 ,1.32213 ,-0.23855 ,-2.34064 
374 ,68.0058 ,1.32409 ,-0.25908 ,-2.54211 
375 ,68.2137 ,1.32598 ,-0.26935 ,-2.64284 
376 ,68.3898 ,1.32789 ,-0.27619 ,-2.71000 
377 ,68.5818 ,1.32976 ,-0.28304 ,-2.77716 
378 ,68.7741 ,1.33174 ,-0.27961 ,-2.74358 
379 ,68.9661 ,1.33371 ,-0.31041 ,-3.04578 
380 ,69.1583 ,1.33560 ,-0.30699 ,-3.01220 
381 ,69.3343 ,1.33729 ,-0.31726 ,-3.11294 
382 ,69.5264 ,1.33928 ,-0.34464 ,-3.38156 
383 ,69.7022 ,1.34102 ,-0.33779 ,-3.31441 
384 ,69.8790 ,1.34280 ,-0.34806 ,-3.41514 
385 ,70.0866 ,1.34481 ,-0.36175 ,-3.54946 
386 ,70.2788 ,1.34668 ,-0.36517 ,-3.58303 
387 ,70.4865 ,1.34876 ,-0.37886 ,-3.71735 
388 ,70.6629 ,1.35060 ,-0.38570 ,-3.78450 
389 ,70.8389 ,1.35239 ,-0.38570 ,-3.78450 
390 ,71.0149 ,1.35410 ,-0.39939 ,-3.91882 
391 ,71.1912 ,1.35591 ,-0.41650 ,-4.08671 
392 ,71.3831 ,1.35784 ,-0.41992 ,-4.12029 
393 ,71.5592 ,1.35959 ,-0.43703 ,-4.28818 
394 ,71.7513 ,1.36149 ,-0.45072 ,-4.42249 
395 ,71.9273 ,1.36330 ,-0.45757 ,-4.48965 
396 ,72.1034 ,1.36502 ,-0.44730 ,-4.38891 
397 ,72.2796 ,1.36676 ,-0.46099 ,-4.52323 
398 ,72.4873 ,1.36878 ,-0.48152 ,-4.72470 
399 ,72.6797 ,1.37077 ,-0.47468 ,-4.65754 
400 ,72.8554 ,1.37260 ,-0.50548 ,-4.95975 
401 ,73.0318 ,1.37433 ,-0.50548 ,-4.95975 
402 ,73.2075 ,1.37606 ,-0.50890 ,-4.99332 
403 ,73.3840 ,1.37783 ,-0.51574 ,-5.06048 
404 ,73.5919 ,1.37978 ,-0.51574 ,-5.06048 
405 ,73.7679 ,1.38168 ,-0.54312 ,-5.32911 
406 ,73.9438 ,1.38344 ,-0.54997 ,-5.39626 
407 ,74.1203 ,1.38520 ,-0.53628 ,-5.26195 
408 ,74.3122 ,1.38713 ,-0.56365 ,-5.53058 
409 ,74.4886 ,1.38886 ,-0.56365 ,-5.53058 
410 ,74.7125 ,1.39087 ,-0.56365 ,-5.53058 
411 ,74.8885 ,1.39286 ,-0.59445 ,-5.83278 
412 ,75.0646 ,1.39460 ,-0.58761 ,-5.76562 
413 ,75.2407 ,1.39638 ,-0.59103 ,-5.79920 
414 ,75.4168 ,1.39812 ,-0.61499 ,-6.03425 
415 ,75.5928 ,1.39985 ,-0.63552 ,-6.23572 
416 ,75.7689 ,1.40170 ,-0.63894 ,-6.26930 
417 ,75.9448 ,1.40347 ,-0.63894 ,-6.26930 
418 ,76.1209 ,1.40514 ,-0.63552 ,-6.23572 
419 ,76.2970 ,1.40696 ,-0.65947 ,-6.47077 
420 ,76.4893 ,1.40884 ,-0.66632 ,-6.53793 
421 ,76.6653 ,1.41067 ,-0.67659 ,-6.63866 
422 ,76.8574 ,1.41244 ,-0.67659 ,-6.63866 
423 ,77.0813 ,1.41465 ,-0.68001 ,-6.67224 
424 ,77.2572 ,1.41657 ,-0.69370 ,-6.80655 
425 ,77.4496 ,1.41844 ,-0.70739 ,-6.94086 
426 ,77.6416 ,1.42037 ,-0.70396 ,-6.90729 
427 ,77.8178 ,1.42214 ,-0.73134 ,-7.17591 
428 ,77.9937 ,1.42393 ,-0.73818 ,-7.24307 
429 ,78.1696 ,1.42566 ,-0.75187 ,-7.37738 
430 ,78.3460 ,1.42744 ,-0.75530 ,-7.41096 
431 ,78.5219 ,1.42921 ,-0.75187 ,-7.37738 
432 ,78.6979 ,1.43091 ,-0.77241 ,-7.57885 
433 ,78.8902 ,1.43279 ,-0.77583 ,-7.61243 
434 ,79.0662 ,1.43466 ,-0.77925 ,-7.64601 
435 ,79.2260 ,1.43632 ,-0.78267 ,-7.67959 
436 ,79.4022 ,1.43798 ,-0.78952 ,-7.74674 
437 ,79.5944 ,1.43993 ,-0.81347 ,-7.98179 
438 ,79.7865 ,1.44183 ,-0.80663 ,-7.91464 
439 ,79.9627 ,1.44359 ,-0.82032 ,-8.04895 
440 ,80.1546 ,1.44541 ,-0.83743 ,-8.21684 
441 ,80.3304 ,1.44724 ,-0.85112 ,-8.35115 
442 ,80.5068 ,1.44901 ,-0.84085 ,-8.25042 
443 ,80.6829 ,1.45076 ,-0.85112 ,-8.35115 
444 ,80.8752 ,1.45275 ,-0.87507 ,-8.58620 
445 ,81.0670 ,1.45463 ,-0.86481 ,-8.48547 
446 ,81.2431 ,1.45633 ,-0.87507 ,-8.58620 
447 ,81.4191 ,1.45812 ,-0.87849 ,-8.61978 
448 ,81.5949 ,1.45989 ,-0.89903 ,-8.82125 
449 ,81.7710 ,1.46167 ,-0.89903 ,-8.82125 
450 ,81.9469 ,1.46340 ,-0.89903 ,-8.82125 
451 ,82.1235 ,1.46522 ,-0.90587 ,-8.88841 
452 ,82.3315 ,1.46722 ,-0.91272 ,-8.95556 
453 ,82.5076 ,1.46903 ,-0.92983 ,-9.12345 
454 ,82.6837 ,1.47076 ,-0.92983 ,-9.12345 
455 ,82.8597 ,1.47254 ,-0.94009 ,-9.22419 
456 ,83.0359 ,1.47426 ,-0.96747 ,-9.49282 
457 ,83.2119 ,1.47607 ,-0.96405 ,-9.45924 
458 ,83.4038 ,1.47795 ,-0.95720 ,-9.39208 
459 ,83.5801 ,1.47974 ,-0.97774 ,-9.59355 
460 ,83.7720 ,1.48172 ,-0.98800 ,-9.69429 
461 ,83.9481 ,1.48341 ,-0.98458 ,-9.66071 
462 ,84.1242 ,1.48518 ,-0.98800 ,-9.69429 
