Data stamp = , 02-04-2022 03:25:57 645

Calibration Values: 
Slope = , 26.54 , g/V 
Offset Voltage at no contact = , -0.501760 , V 

No , Time , Stage Position ,   Mass , Force 
   ,  (s) ,      (mm)      ,   (g)  , (mN)  

1 ,0.0000 ,0.64955 ,4.99052 ,48.96701 
2 ,0.2176 ,0.64965 ,4.99394 ,49.00058 
3 ,0.5219 ,0.65042 ,5.00079 ,49.06774 
4 ,0.7136 ,0.65180 ,5.00079 ,49.06774 
5 ,0.8898 ,0.65329 ,5.01106 ,49.16848 
6 ,1.0816 ,0.65511 ,4.97683 ,48.83269 
7 ,1.2576 ,0.65694 ,5.00763 ,49.13490 
8 ,1.4176 ,0.65857 ,5.00079 ,49.06774 
9 ,1.5938 ,0.66026 ,5.00079 ,49.06774 
10 ,1.8018 ,0.66233 ,4.98368 ,48.89985 
11 ,1.9786 ,0.66411 ,4.97683 ,48.83269 
12 ,2.1540 ,0.66590 ,4.97341 ,48.79911 
13 ,2.3302 ,0.66758 ,4.93919 ,48.46333 
14 ,2.5062 ,0.66937 ,4.93919 ,48.46333 
15 ,2.6828 ,0.67112 ,4.91181 ,48.19471 
16 ,2.8745 ,0.67308 ,4.91866 ,48.26186 
17 ,3.0509 ,0.67483 ,4.88786 ,47.95966 
18 ,3.2269 ,0.67663 ,4.88101 ,47.89250 
19 ,3.4349 ,0.67854 ,4.86732 ,47.75819 
20 ,3.6110 ,0.68042 ,4.86390 ,47.72461 
21 ,3.7870 ,0.68219 ,4.82284 ,47.32167 
22 ,3.9792 ,0.68409 ,4.80573 ,47.15378 
23 ,4.1551 ,0.68585 ,4.79204 ,47.01946 
24 ,4.3474 ,0.68781 ,4.78519 ,46.95231 
25 ,4.5393 ,0.68961 ,4.76124 ,46.71726 
26 ,4.7154 ,0.69145 ,4.73386 ,46.44863 
27 ,4.8915 ,0.69321 ,4.73728 ,46.48221 
28 ,5.0516 ,0.69493 ,4.71675 ,46.28074 
29 ,5.2438 ,0.69671 ,4.68937 ,46.01212 
30 ,5.4198 ,0.69852 ,4.67568 ,45.87780 
31 ,5.5960 ,0.70022 ,4.65173 ,45.64275 
32 ,5.7721 ,0.70205 ,4.65515 ,45.67633 
33 ,5.9800 ,0.70398 ,4.62093 ,45.34055 
34 ,6.1561 ,0.70584 ,4.59013 ,45.03835 
35 ,6.3322 ,0.70764 ,4.59355 ,45.07192 
36 ,6.5081 ,0.70941 ,4.57986 ,44.93761 
37 ,6.7163 ,0.71140 ,4.54222 ,44.56825 
38 ,6.8925 ,0.71324 ,4.54222 ,44.56825 
39 ,7.0680 ,0.71495 ,4.52169 ,44.36678 
40 ,7.2443 ,0.71675 ,4.50800 ,44.23247 
41 ,7.4206 ,0.71846 ,4.46351 ,43.79595 
42 ,7.5967 ,0.72025 ,4.45666 ,43.72879 
43 ,7.7726 ,0.72203 ,4.44298 ,43.59448 
44 ,7.9488 ,0.72375 ,4.42929 ,43.46016 
45 ,8.1246 ,0.72554 ,4.41902 ,43.35943 
46 ,8.3010 ,0.72732 ,4.38138 ,42.99007 
47 ,8.4930 ,0.72920 ,4.38480 ,43.02365 
48 ,8.6691 ,0.73099 ,4.36769 ,42.85576 
49 ,8.8613 ,0.73283 ,4.35400 ,42.72144 
50 ,9.0692 ,0.73496 ,4.32320 ,42.41924 
51 ,9.2454 ,0.73672 ,4.31293 ,42.31850 
52 ,9.4215 ,0.73853 ,4.27529 ,41.94914 
53 ,9.5976 ,0.74029 ,4.26845 ,41.88198 
54 ,9.7734 ,0.74203 ,4.26160 ,41.81483 
55 ,9.9495 ,0.74373 ,4.24791 ,41.68051 
56 ,10.1259 ,0.74554 ,4.23765 ,41.57978 
57 ,10.3017 ,0.74730 ,4.20342 ,41.24400 
58 ,10.4781 ,0.74910 ,4.18974 ,41.10968 
59 ,10.6703 ,0.75096 ,4.18631 ,41.07611 
60 ,10.8457 ,0.75271 ,4.16920 ,40.90821 
61 ,11.0218 ,0.75455 ,4.13498 ,40.57243 
62 ,11.1821 ,0.75619 ,4.11787 ,40.40454 
63 ,11.3582 ,0.75787 ,4.10760 ,40.30380 
64 ,11.5504 ,0.75975 ,4.10076 ,40.23665 
65 ,11.7264 ,0.76159 ,4.08365 ,40.06876 
66 ,11.9021 ,0.76325 ,4.04943 ,39.73297 
67 ,12.0787 ,0.76504 ,4.03232 ,39.56508 
68 ,12.2703 ,0.76701 ,4.02889 ,39.53150 
69 ,12.4468 ,0.76876 ,4.01178 ,39.36361 
70 ,12.6546 ,0.77080 ,3.99467 ,39.19572 
71 ,12.8469 ,0.77274 ,3.98441 ,39.09499 
72 ,13.0229 ,0.77455 ,3.95361 ,38.79278 
73 ,13.2151 ,0.77634 ,3.92281 ,38.49058 
74 ,13.3909 ,0.77823 ,3.91938 ,38.45700 
75 ,13.5834 ,0.78005 ,3.89885 ,38.25553 
76 ,13.7753 ,0.78194 ,3.87490 ,38.02048 
77 ,13.9513 ,0.78380 ,3.85779 ,37.85259 
78 ,14.1593 ,0.78580 ,3.83725 ,37.65112 
79 ,14.3516 ,0.78768 ,3.82356 ,37.51681 
80 ,14.5275 ,0.78953 ,3.81672 ,37.44965 
81 ,14.7037 ,0.79125 ,3.78934 ,37.18102 
82 ,14.8795 ,0.79301 ,3.76881 ,36.97955 
83 ,15.0557 ,0.79485 ,3.75512 ,36.84524 
84 ,15.2318 ,0.79664 ,3.73459 ,36.64377 
85 ,15.4080 ,0.79835 ,3.73459 ,36.64377 
86 ,15.6000 ,0.80020 ,3.69694 ,36.27441 
87 ,15.7761 ,0.80202 ,3.69010 ,36.20725 
88 ,15.9522 ,0.80373 ,3.69352 ,36.24083 
89 ,16.1280 ,0.80556 ,3.66614 ,35.97220 
90 ,16.3044 ,0.80724 ,3.64903 ,35.80431 
91 ,16.4805 ,0.80910 ,3.63877 ,35.70358 
92 ,16.6564 ,0.81079 ,3.59428 ,35.26706 
93 ,16.8324 ,0.81254 ,3.59086 ,35.23348 
94 ,17.0085 ,0.81441 ,3.58743 ,35.19990 
95 ,17.1845 ,0.81609 ,3.56348 ,34.96485 
96 ,17.3768 ,0.81791 ,3.53268 ,34.66265 
97 ,17.5848 ,0.82004 ,3.53610 ,34.69623 
98 ,17.7769 ,0.82194 ,3.50188 ,34.36045 
99 ,17.9850 ,0.82407 ,3.48135 ,34.15898 
100 ,18.1611 ,0.82587 ,3.47450 ,34.09182 
101 ,18.3531 ,0.82775 ,3.44028 ,33.75604 
102 ,18.5451 ,0.82968 ,3.44028 ,33.75604 
103 ,18.7212 ,0.83158 ,3.40264 ,33.38667 
104 ,18.8973 ,0.83317 ,3.39237 ,33.28594 
105 ,19.0733 ,0.83500 ,3.37868 ,33.15163 
106 ,19.2496 ,0.83674 ,3.37526 ,33.11805 
107 ,19.4255 ,0.83850 ,3.35815 ,32.95016 
108 ,19.6015 ,0.84031 ,3.34788 ,32.84942 
109 ,19.7936 ,0.84216 ,3.31024 ,32.48006 
110 ,19.9697 ,0.84395 ,3.31708 ,32.54722 
111 ,20.1459 ,0.84573 ,3.30682 ,32.44648 
112 ,20.3219 ,0.84753 ,3.28286 ,32.21143 
113 ,20.4977 ,0.84920 ,3.25548 ,31.94281 
114 ,20.7060 ,0.85117 ,3.24864 ,31.87565 
115 ,20.8822 ,0.85306 ,3.23153 ,31.70776 
116 ,21.0580 ,0.85481 ,3.20415 ,31.43913 
117 ,21.2343 ,0.85658 ,3.19046 ,31.30482 
118 ,21.4263 ,0.85857 ,3.18020 ,31.20409 
119 ,21.5864 ,0.86019 ,3.15966 ,31.00262 
120 ,21.7625 ,0.86187 ,3.14597 ,30.86830 
121 ,21.9546 ,0.86381 ,3.11860 ,30.59968 
122 ,22.1467 ,0.86570 ,3.10149 ,30.43178 
123 ,22.3228 ,0.86749 ,3.10491 ,30.46536 
124 ,22.5149 ,0.86940 ,3.06384 ,30.06242 
125 ,22.6908 ,0.87118 ,3.04673 ,29.89453 
126 ,22.8826 ,0.87308 ,3.05358 ,29.96169 
127 ,23.0588 ,0.87483 ,3.02962 ,29.72664 
128 ,23.2511 ,0.87675 ,3.01251 ,29.55875 
129 ,23.4271 ,0.87850 ,2.99540 ,29.39086 
130 ,23.6033 ,0.88025 ,2.98513 ,29.29012 
131 ,23.7794 ,0.88207 ,2.96802 ,29.12223 
132 ,23.9711 ,0.88388 ,2.93038 ,28.75287 
133 ,24.1474 ,0.88573 ,2.92696 ,28.71929 
134 ,24.3554 ,0.88772 ,2.90642 ,28.51782 
135 ,24.5316 ,0.88955 ,2.89958 ,28.45066 
136 ,24.7073 ,0.89127 ,2.88931 ,28.34993 
137 ,24.8837 ,0.89307 ,2.86193 ,28.08130 
138 ,25.0594 ,0.89476 ,2.84140 ,27.87983 
139 ,25.2358 ,0.89657 ,2.82771 ,27.74552 
140 ,25.4118 ,0.89832 ,2.81402 ,27.61121 
141 ,25.5881 ,0.90011 ,2.80376 ,27.51047 
142 ,25.7637 ,0.90191 ,2.79349 ,27.40974 
143 ,25.9401 ,0.90361 ,2.76611 ,27.14111 
144 ,26.1159 ,0.90536 ,2.75243 ,27.00680 
145 ,26.2924 ,0.90717 ,2.72847 ,26.77175 
146 ,26.4844 ,0.90895 ,2.72505 ,26.73817 
147 ,26.6605 ,0.91086 ,2.71136 ,26.60386 
148 ,26.8526 ,0.91263 ,2.68398 ,26.33523 
149 ,27.0445 ,0.91467 ,2.68398 ,26.33523 
150 ,27.2206 ,0.91638 ,2.64976 ,25.99945 
151 ,27.3968 ,0.91817 ,2.62581 ,25.76440 
152 ,27.5730 ,0.91997 ,2.60869 ,25.59651 
153 ,27.7489 ,0.92169 ,2.60185 ,25.52935 
154 ,27.9409 ,0.92359 ,2.58816 ,25.39504 
155 ,28.1171 ,0.92533 ,2.56763 ,25.19357 
156 ,28.3252 ,0.92747 ,2.55394 ,25.05926 
157 ,28.5012 ,0.92928 ,2.54367 ,24.95852 
158 ,28.6934 ,0.93101 ,2.51287 ,24.65632 
159 ,28.8852 ,0.93300 ,2.50261 ,24.55558 
160 ,29.0614 ,0.93479 ,2.49234 ,24.45485 
161 ,29.2373 ,0.93654 ,2.46496 ,24.18622 
162 ,29.4136 ,0.93839 ,2.44785 ,24.01833 
163 ,29.5895 ,0.94008 ,2.43074 ,23.85044 
164 ,29.7657 ,0.94186 ,2.42048 ,23.74970 
165 ,29.9573 ,0.94380 ,2.39994 ,23.54823 
166 ,30.1334 ,0.94553 ,2.37941 ,23.34676 
167 ,30.3094 ,0.94728 ,2.35888 ,23.14529 
168 ,30.4855 ,0.94916 ,2.35888 ,23.14529 
169 ,30.6617 ,0.95084 ,2.34519 ,23.01098 
170 ,30.8378 ,0.95264 ,2.31439 ,22.70877 
171 ,31.0138 ,0.95433 ,2.30070 ,22.57446 
172 ,31.1900 ,0.95610 ,2.29385 ,22.50731 
173 ,31.3821 ,0.95798 ,2.28359 ,22.40657 
174 ,31.5582 ,0.95982 ,2.27332 ,22.30584 
175 ,31.7505 ,0.96170 ,2.22199 ,21.80216 
176 ,31.9265 ,0.96343 ,2.23568 ,21.93647 
177 ,32.1027 ,0.96524 ,2.21172 ,21.70143 
178 ,32.2787 ,0.96700 ,2.21515 ,21.73500 
179 ,32.4545 ,0.96872 ,2.16723 ,21.26491 
180 ,32.6309 ,0.97050 ,2.16381 ,21.23133 
181 ,32.8069 ,0.97226 ,2.15697 ,21.16417 
182 ,32.9991 ,0.97422 ,2.13986 ,20.99628 
183 ,33.1750 ,0.97594 ,2.12617 ,20.86197 
184 ,33.3672 ,0.97790 ,2.10564 ,20.66050 
185 ,33.5592 ,0.97977 ,2.09537 ,20.55976 
186 ,33.7353 ,0.98153 ,2.07141 ,20.32472 
187 ,33.9273 ,0.98340 ,2.06115 ,20.22398 
188 ,34.1194 ,0.98540 ,2.05430 ,20.15682 
189 ,34.2956 ,0.98716 ,2.03377 ,19.95535 
190 ,34.4875 ,0.98905 ,2.01324 ,19.75388 
191 ,34.6635 ,0.99083 ,2.00639 ,19.68673 
192 ,34.8558 ,0.99276 ,1.98586 ,19.48526 
193 ,35.0316 ,0.99451 ,1.96190 ,19.25021 
194 ,35.2080 ,0.99627 ,1.96190 ,19.25021 
195 ,35.3841 ,0.99805 ,1.94137 ,19.04874 
196 ,35.5917 ,1.00000 ,1.93111 ,18.94801 
197 ,35.7682 ,1.00188 ,1.90031 ,18.64580 
198 ,35.9602 ,1.00382 ,1.90715 ,18.71296 
199 ,36.1364 ,1.00550 ,1.87635 ,18.41075 
200 ,36.3284 ,1.00743 ,1.85582 ,18.20928 
201 ,36.5043 ,1.00920 ,1.85924 ,18.24286 
202 ,36.6804 ,1.01099 ,1.85582 ,18.20928 
203 ,36.8565 ,1.01278 ,1.83528 ,18.00781 
204 ,37.0487 ,1.01459 ,1.80791 ,17.73919 
205 ,37.2409 ,1.01660 ,1.80106 ,17.67203 
206 ,37.4168 ,1.01835 ,1.78737 ,17.53772 
207 ,37.6086 ,1.02032 ,1.75657 ,17.23551 
208 ,37.7846 ,1.02197 ,1.75657 ,17.23551 
209 ,37.9610 ,1.02376 ,1.74973 ,17.16836 
210 ,38.1370 ,1.02549 ,1.73262 ,17.00046 
211 ,38.3291 ,1.02743 ,1.70182 ,16.69826 
212 ,38.5212 ,1.02928 ,1.70524 ,16.73184 
213 ,38.7133 ,1.03131 ,1.67786 ,16.46321 
214 ,38.8734 ,1.03301 ,1.65733 ,16.26174 
215 ,39.0335 ,1.03462 ,1.64707 ,16.16101 
216 ,39.2096 ,1.03629 ,1.62995 ,15.99311 
217 ,39.3857 ,1.03803 ,1.63338 ,16.02669 
218 ,39.5778 ,1.03997 ,1.61969 ,15.89238 
219 ,39.7699 ,1.04177 ,1.59231 ,15.62375 
220 ,39.9460 ,1.04364 ,1.57520 ,15.45586 
221 ,40.1380 ,1.04558 ,1.58204 ,15.52302 
222 ,40.3140 ,1.04734 ,1.55124 ,15.22081 
223 ,40.4900 ,1.04911 ,1.53413 ,15.05292 
224 ,40.6823 ,1.05100 ,1.54098 ,15.12008 
225 ,40.8584 ,1.05271 ,1.52729 ,14.98577 
226 ,41.0502 ,1.05459 ,1.49649 ,14.68356 
227 ,41.2262 ,1.05655 ,1.49307 ,14.64998 
228 ,41.4025 ,1.05814 ,1.49649 ,14.68356 
229 ,41.5943 ,1.06012 ,1.45542 ,14.28062 
230 ,41.7706 ,1.06190 ,1.43831 ,14.11273 
231 ,41.9463 ,1.06361 ,1.43489 ,14.07915 
232 ,42.1228 ,1.06544 ,1.43147 ,14.04557 
233 ,42.3149 ,1.06735 ,1.40409 ,13.77695 
234 ,42.4909 ,1.06902 ,1.40409 ,13.77695 
235 ,42.6670 ,1.07084 ,1.37671 ,13.50832 
236 ,42.8430 ,1.07260 ,1.37671 ,13.50832 
237 ,43.0508 ,1.07458 ,1.33907 ,13.13896 
238 ,43.2272 ,1.07643 ,1.33907 ,13.13896 
239 ,43.4032 ,1.07817 ,1.32880 ,13.03822 
240 ,43.5795 ,1.07999 ,1.32880 ,13.03822 
241 ,43.7554 ,1.08175 ,1.30827 ,12.83675 
242 ,43.9474 ,1.08355 ,1.29458 ,12.70244 
243 ,44.1235 ,1.08534 ,1.28774 ,12.63528 
244 ,44.2996 ,1.08718 ,1.27405 ,12.50097 
245 ,44.4758 ,1.08891 ,1.26720 ,12.43381 
246 ,44.6517 ,1.09069 ,1.23983 ,12.16519 
247 ,44.8278 ,1.09247 ,1.22956 ,12.06445 
248 ,45.0039 ,1.09416 ,1.22272 ,11.99730 
249 ,45.1800 ,1.09594 ,1.20561 ,11.82941 
250 ,45.3560 ,1.09771 ,1.18850 ,11.66151 
251 ,45.5321 ,1.09946 ,1.18507 ,11.62794 
252 ,45.7081 ,1.10120 ,1.16454 ,11.42647 
253 ,45.9003 ,1.10315 ,1.16454 ,11.42647 
254 ,46.0923 ,1.10506 ,1.12690 ,11.05710 
255 ,46.2683 ,1.10680 ,1.11663 ,10.95637 
256 ,46.4605 ,1.10873 ,1.10636 ,10.85563 
257 ,46.6367 ,1.11056 ,1.10636 ,10.85563 
258 ,46.8126 ,1.11233 ,1.08583 ,10.65416 
259 ,46.9886 ,1.11402 ,1.06530 ,10.45270 
260 ,47.1807 ,1.11593 ,1.06872 ,10.48627 
261 ,47.3569 ,1.11768 ,1.06530 ,10.45270 
262 ,47.5488 ,1.11964 ,1.04476 ,10.25123 
263 ,47.7250 ,1.12144 ,1.02423 ,10.04976 
264 ,47.9010 ,1.12313 ,1.02423 ,10.04976 
265 ,48.0932 ,1.12506 ,0.99343 ,9.74755 
266 ,48.2689 ,1.12684 ,0.97632 ,9.57966 
267 ,48.4454 ,1.12861 ,0.97290 ,9.54608 
268 ,48.6375 ,1.13052 ,0.96605 ,9.47892 
269 ,48.8135 ,1.13230 ,0.93868 ,9.21030 
270 ,48.9896 ,1.13402 ,0.92841 ,9.10956 
271 ,49.1657 ,1.13582 ,0.91814 ,9.00883 
272 ,49.3573 ,1.13765 ,0.92157 ,9.04241 
273 ,49.5336 ,1.13944 ,0.89419 ,8.77378 
274 ,49.7097 ,1.14119 ,0.87366 ,8.57231 
275 ,49.9018 ,1.14315 ,0.87708 ,8.60589 
276 ,50.0778 ,1.14488 ,0.87023 ,8.53873 
277 ,50.2539 ,1.14662 ,0.82917 ,8.13579 
278 ,50.4297 ,1.14845 ,0.83259 ,8.16937 
279 ,50.6062 ,1.15022 ,0.82917 ,8.13579 
280 ,50.7982 ,1.15211 ,0.81890 ,8.03506 
281 ,50.9745 ,1.15390 ,0.79837 ,7.83359 
282 ,51.1501 ,1.15562 ,0.77784 ,7.63212 
283 ,51.3425 ,1.15743 ,0.77099 ,7.56496 
284 ,51.5345 ,1.15943 ,0.75730 ,7.43065 
285 ,51.7106 ,1.16119 ,0.74019 ,7.26276 
286 ,51.9028 ,1.16306 ,0.72992 ,7.16202 
287 ,52.0948 ,1.16507 ,0.71624 ,7.02771 
288 ,52.2708 ,1.16686 ,0.70939 ,6.96055 
289 ,52.4629 ,1.16864 ,0.69570 ,6.82624 
290 ,52.6389 ,1.17046 ,0.68544 ,6.72550 
291 ,52.8153 ,1.17230 ,0.67175 ,6.59119 
292 ,52.9911 ,1.17403 ,0.65806 ,6.45688 
293 ,53.1671 ,1.17578 ,0.64437 ,6.32256 
294 ,53.3434 ,1.17752 ,0.64437 ,6.32256 
295 ,53.5354 ,1.17950 ,0.62726 ,6.15467 
296 ,53.7274 ,1.18136 ,0.59304 ,5.81889 
297 ,53.9035 ,1.18308 ,0.61357 ,6.02036 
298 ,54.0791 ,1.18491 ,0.58619 ,5.75173 
299 ,54.2558 ,1.18667 ,0.57593 ,5.65100 
300 ,54.4318 ,1.18843 ,0.55882 ,5.48311 
301 ,54.6235 ,1.19033 ,0.55539 ,5.44953 
302 ,54.7998 ,1.19212 ,0.54855 ,5.38237 
303 ,54.9762 ,1.19388 ,0.53144 ,5.21448 
304 ,55.1681 ,1.19582 ,0.51775 ,5.08017 
305 ,55.3441 ,1.19753 ,0.49722 ,4.87870 
306 ,55.5198 ,1.19929 ,0.50064 ,4.91228 
307 ,55.6959 ,1.20106 ,0.49380 ,4.84512 
308 ,55.8721 ,1.20286 ,0.46642 ,4.57649 
309 ,56.0644 ,1.20476 ,0.45957 ,4.50934 
310 ,56.2403 ,1.20648 ,0.45273 ,4.44218 
311 ,56.4165 ,1.20824 ,0.42535 ,4.17355 
312 ,56.5926 ,1.20999 ,0.41166 ,4.03924 
313 ,56.7685 ,1.21180 ,0.40482 ,3.97208 
314 ,56.9448 ,1.21359 ,0.40140 ,3.93850 
315 ,57.1369 ,1.21549 ,0.38771 ,3.80419 
316 ,57.3128 ,1.21725 ,0.37060 ,3.63630 
317 ,57.4887 ,1.21897 ,0.35349 ,3.46841 
318 ,57.6812 ,1.22083 ,0.34322 ,3.36767 
319 ,57.8890 ,1.22292 ,0.32611 ,3.19978 
320 ,58.0652 ,1.22474 ,0.32953 ,3.23336 
321 ,58.2413 ,1.22650 ,0.32269 ,3.16620 
322 ,58.4333 ,1.22844 ,0.29873 ,2.93116 
323 ,58.6094 ,1.23016 ,0.28504 ,2.79684 
324 ,58.7855 ,1.23197 ,0.28847 ,2.83042 
325 ,58.9613 ,1.23369 ,0.27478 ,2.69611 
326 ,59.1376 ,1.23544 ,0.26793 ,2.62895 
327 ,59.3136 ,1.23725 ,0.25082 ,2.46106 
328 ,59.4896 ,1.23900 ,0.22002 ,2.15885 
329 ,59.6820 ,1.24082 ,0.21318 ,2.09170 
330 ,59.8578 ,1.24276 ,0.20633 ,2.02454 
331 ,60.0179 ,1.24436 ,0.18922 ,1.85665 
332 ,60.1941 ,1.24604 ,0.18238 ,1.78949 
333 ,60.3700 ,1.24780 ,0.17553 ,1.72234 
334 ,60.5622 ,1.24964 ,0.18580 ,1.82307 
335 ,60.7543 ,1.25165 ,0.15158 ,1.48729 
336 ,60.9463 ,1.25353 ,0.14131 ,1.38655 
337 ,61.1543 ,1.25557 ,0.11051 ,1.08435 
338 ,61.3465 ,1.25758 ,0.11393 ,1.11793 
339 ,61.5226 ,1.25930 ,0.10025 ,0.98361 
340 ,61.6981 ,1.26108 ,0.10025 ,0.98361 
341 ,61.8581 ,1.26278 ,0.07971 ,0.78214 
342 ,62.0183 ,1.26439 ,0.07629 ,0.74857 
343 ,62.1946 ,1.26611 ,0.06945 ,0.68141 
344 ,62.4025 ,1.26809 ,0.05234 ,0.51352 
345 ,62.5785 ,1.26985 ,0.04207 ,0.41278 
346 ,62.7546 ,1.27163 ,0.02838 ,0.27847 
347 ,62.9311 ,1.27334 ,0.01127 ,0.11058 
348 ,63.1228 ,1.27535 ,0.00443 ,0.04342 
349 ,63.2831 ,1.27704 ,0.01127 ,0.11058 
350 ,63.4753 ,1.27879 ,-0.02295 ,-0.22520 
351 ,63.6513 ,1.28056 ,-0.02980 ,-0.29236 
352 ,63.8275 ,1.28233 ,-0.04006 ,-0.39310 
353 ,64.0191 ,1.28422 ,-0.04006 ,-0.39310 
354 ,64.1952 ,1.28599 ,-0.05375 ,-0.52741 
355 ,64.3713 ,1.28778 ,-0.07086 ,-0.69530 
356 ,64.5474 ,1.28951 ,-0.08797 ,-0.86319 
357 ,64.7238 ,1.29126 ,-0.07428 ,-0.72888 
358 ,64.8998 ,1.29311 ,-0.08113 ,-0.79604 
359 ,65.0918 ,1.29497 ,-0.10508 ,-1.03108 
360 ,65.2680 ,1.29673 ,-0.12562 ,-1.23255 
361 ,65.4441 ,1.29851 ,-0.11877 ,-1.16540 
362 ,65.6202 ,1.30024 ,-0.12219 ,-1.19898 
363 ,65.7962 ,1.30203 ,-0.14273 ,-1.40045 
364 ,65.9722 ,1.30381 ,-0.15984 ,-1.56834 
365 ,66.1483 ,1.30550 ,-0.18037 ,-1.76981 
366 ,66.3244 ,1.30731 ,-0.18037 ,-1.76981 
367 ,66.5003 ,1.30905 ,-0.17695 ,-1.73623 
368 ,66.6765 ,1.31084 ,-0.18722 ,-1.83696 
369 ,66.8527 ,1.31253 ,-0.20090 ,-1.97128 
370 ,67.0447 ,1.31444 ,-0.21459 ,-2.10559 
371 ,67.2368 ,1.31645 ,-0.21802 ,-2.13917 
372 ,67.4287 ,1.31840 ,-0.23170 ,-2.27348 
373 ,67.6049 ,1.32012 ,-0.24197 ,-2.37422 
374 ,67.7811 ,1.32186 ,-0.23513 ,-2.30706 
375 ,67.9571 ,1.32362 ,-0.24881 ,-2.44137 
376 ,68.1489 ,1.32553 ,-0.27277 ,-2.67642 
377 ,68.3252 ,1.32731 ,-0.27619 ,-2.71000 
378 ,68.5333 ,1.32931 ,-0.30015 ,-2.94505 
379 ,68.7094 ,1.33117 ,-0.30357 ,-2.97863 
380 ,68.8855 ,1.33292 ,-0.31726 ,-3.11294 
381 ,69.0614 ,1.33467 ,-0.31384 ,-3.07936 
382 ,69.2374 ,1.33649 ,-0.33779 ,-3.31441 
383 ,69.4134 ,1.33815 ,-0.33779 ,-3.31441 
384 ,69.6057 ,1.34006 ,-0.34464 ,-3.38156 
385 ,69.7979 ,1.34202 ,-0.33779 ,-3.31441 
386 ,69.9897 ,1.34385 ,-0.35832 ,-3.51588 
387 ,70.1656 ,1.34585 ,-0.35832 ,-3.51588 
388 ,70.3420 ,1.34751 ,-0.37544 ,-3.68377 
389 ,70.5176 ,1.34922 ,-0.38228 ,-3.75093 
390 ,70.6940 ,1.35099 ,-0.38912 ,-3.81808 
391 ,70.8701 ,1.35271 ,-0.41992 ,-4.12029 
392 ,71.0463 ,1.35455 ,-0.42335 ,-4.15387 
393 ,71.2223 ,1.35628 ,-0.41308 ,-4.05313 
394 ,71.4304 ,1.35827 ,-0.41992 ,-4.12029 
395 ,71.6061 ,1.36009 ,-0.44388 ,-4.35534 
396 ,71.7826 ,1.36188 ,-0.44388 ,-4.35534 
397 ,71.9744 ,1.36378 ,-0.47126 ,-4.62396 
398 ,72.1666 ,1.36564 ,-0.47810 ,-4.69112 
399 ,72.3424 ,1.36749 ,-0.48494 ,-4.75828 
400 ,72.5188 ,1.36920 ,-0.47810 ,-4.69112 
401 ,72.7108 ,1.37112 ,-0.50206 ,-4.92617 
402 ,72.8869 ,1.37292 ,-0.50548 ,-4.95975 
403 ,73.0630 ,1.37464 ,-0.50206 ,-4.92617 
404 ,73.2390 ,1.37647 ,-0.51574 ,-5.06048 
405 ,73.4152 ,1.37819 ,-0.52259 ,-5.12764 
406 ,73.6070 ,1.38007 ,-0.52943 ,-5.19479 
407 ,73.7832 ,1.38198 ,-0.54312 ,-5.32911 
408 ,73.9911 ,1.38379 ,-0.54997 ,-5.39626 
409 ,74.1673 ,1.38573 ,-0.56023 ,-5.49700 
410 ,74.3434 ,1.38752 ,-0.56023 ,-5.49700 
411 ,74.5194 ,1.38920 ,-0.57392 ,-5.63131 
412 ,74.6956 ,1.39100 ,-0.58419 ,-5.73205 
413 ,74.8718 ,1.39274 ,-0.59788 ,-5.86636 
414 ,75.0477 ,1.39465 ,-0.60472 ,-5.93352 
415 ,75.2239 ,1.39631 ,-0.61499 ,-6.03425 
416 ,75.3998 ,1.39803 ,-0.61499 ,-6.03425 
417 ,75.5762 ,1.39979 ,-0.61841 ,-6.06783 
418 ,75.7519 ,1.40151 ,-0.64236 ,-6.30288 
419 ,75.9439 ,1.40338 ,-0.63894 ,-6.26930 
420 ,76.1202 ,1.40523 ,-0.64579 ,-6.33646 
421 ,76.2961 ,1.40698 ,-0.65947 ,-6.47077 
422 ,76.4883 ,1.40893 ,-0.68001 ,-6.67224 
423 ,76.6804 ,1.41083 ,-0.66974 ,-6.57150 
424 ,76.8561 ,1.41258 ,-0.69027 ,-6.77297 
425 ,77.0323 ,1.41437 ,-0.68343 ,-6.70582 
426 ,77.2246 ,1.41618 ,-0.70054 ,-6.87371 
427 ,77.4008 ,1.41806 ,-0.69027 ,-6.77297 
428 ,77.5927 ,1.41995 ,-0.72792 ,-7.14233 
429 ,77.7688 ,1.42171 ,-0.73818 ,-7.24307 
430 ,77.9446 ,1.42345 ,-0.72792 ,-7.14233 
431 ,78.1210 ,1.42526 ,-0.73818 ,-7.24307 
432 ,78.3131 ,1.42705 ,-0.75872 ,-7.44454 
433 ,78.4892 ,1.42890 ,-0.76556 ,-7.51170 
434 ,78.6653 ,1.43071 ,-0.78267 ,-7.67959 
435 ,78.8413 ,1.43247 ,-0.76556 ,-7.51170 
436 ,79.0171 ,1.43421 ,-0.77241 ,-7.57885 
437 ,79.2095 ,1.43606 ,-0.79294 ,-7.78032 
438 ,79.3855 ,1.43791 ,-0.78610 ,-7.71317 
439 ,79.5775 ,1.43977 ,-0.79636 ,-7.81390 
440 ,79.7537 ,1.44151 ,-0.82374 ,-8.08253 
441 ,79.9457 ,1.44349 ,-0.82374 ,-8.08253 
442 ,80.1057 ,1.44517 ,-0.82374 ,-8.08253 
443 ,80.2659 ,1.44677 ,-0.82374 ,-8.08253 
444 ,80.4418 ,1.44840 ,-0.82716 ,-8.11611 
445 ,80.6179 ,1.45020 ,-0.83743 ,-8.21684 
446 ,80.7941 ,1.45196 ,-0.86823 ,-8.51904 
447 ,80.9702 ,1.45374 ,-0.87165 ,-8.55262 
448 ,81.1620 ,1.45556 ,-0.86823 ,-8.51904 
449 ,81.3381 ,1.45737 ,-0.86823 ,-8.51904 
450 ,81.5143 ,1.45913 ,-0.88534 ,-8.68694 
451 ,81.6904 ,1.46095 ,-0.90245 ,-8.85483 
452 ,81.8827 ,1.46280 ,-0.89218 ,-8.75409 
453 ,82.0746 ,1.46467 ,-0.92298 ,-9.05630 
454 ,82.2506 ,1.46664 ,-0.93325 ,-9.15703 
455 ,82.4587 ,1.46843 ,-0.91956 ,-9.02272 
456 ,82.6346 ,1.47034 ,-0.94009 ,-9.22419 
457 ,82.8269 ,1.47226 ,-0.93667 ,-9.19061 
458 ,83.0030 ,1.47404 ,-0.93667 ,-9.19061 
459 ,83.1792 ,1.47578 ,-0.95378 ,-9.35850 
460 ,83.3711 ,1.47774 ,-0.97774 ,-9.59355 
461 ,83.5631 ,1.47964 ,-0.96405 ,-9.45924 
462 ,83.7388 ,1.48142 ,-0.97774 ,-9.59355 
