Data stamp = , 01-04-2022 23:29:26 047

Calibration Values: 
Slope = , 26.54 , g/V 
Offset Voltage at no contact = , -0.501760 , V 

No , Time , Stage Position ,   Mass , Force 
   ,  (s) ,      (mm)      ,   (g)  , (mN)  

1 ,0.0000 ,0.64952 ,5.00763 ,49.13490 
2 ,0.2141 ,0.64960 ,4.99737 ,49.03416 
3 ,0.5182 ,0.65041 ,5.01106 ,49.16848 
4 ,0.7101 ,0.65173 ,4.99052 ,48.96701 
5 ,0.8866 ,0.65320 ,5.00763 ,49.13490 
6 ,1.0785 ,0.65497 ,5.00763 ,49.13490 
7 ,1.2707 ,0.65689 ,4.99737 ,49.03416 
8 ,1.4627 ,0.65890 ,5.00763 ,49.13490 
9 ,1.6389 ,0.66064 ,4.99737 ,49.03416 
10 ,1.8150 ,0.66243 ,4.98026 ,48.86627 
11 ,2.0070 ,0.66431 ,4.96999 ,48.76554 
12 ,2.1828 ,0.66607 ,4.96315 ,48.69838 
13 ,2.3590 ,0.66787 ,4.94946 ,48.56407 
14 ,2.5353 ,0.66962 ,4.91866 ,48.26186 
15 ,2.7274 ,0.67153 ,4.93577 ,48.42975 
16 ,2.9035 ,0.67332 ,4.90155 ,48.09397 
17 ,3.0793 ,0.67502 ,4.88786 ,47.95966 
18 ,3.2553 ,0.67680 ,4.87759 ,47.85892 
19 ,3.4315 ,0.67861 ,4.85364 ,47.62387 
20 ,3.6079 ,0.68036 ,4.86390 ,47.72461 
21 ,3.7837 ,0.68209 ,4.85706 ,47.65745 
22 ,3.9599 ,0.68386 ,4.83310 ,47.42240 
23 ,4.1679 ,0.68581 ,4.81941 ,47.28809 
24 ,4.3600 ,0.68784 ,4.79546 ,47.05304 
25 ,4.5361 ,0.68961 ,4.78519 ,46.95231 
26 ,4.7121 ,0.69136 ,4.78519 ,46.95231 
27 ,4.8883 ,0.69314 ,4.76124 ,46.71726 
28 ,5.0482 ,0.69485 ,4.76808 ,46.78442 
29 ,5.2243 ,0.69645 ,4.74755 ,46.58295 
30 ,5.4002 ,0.69827 ,4.73044 ,46.41506 
31 ,5.5765 ,0.70001 ,4.69279 ,46.04569 
32 ,5.7526 ,0.70174 ,4.68937 ,46.01212 
33 ,5.9286 ,0.70353 ,4.67568 ,45.87780 
34 ,6.1048 ,0.70525 ,4.66199 ,45.74349 
35 ,6.2808 ,0.70706 ,4.63462 ,45.47486 
36 ,6.4405 ,0.70875 ,4.61066 ,45.23981 
37 ,6.6168 ,0.71034 ,4.58671 ,45.00477 
38 ,6.8090 ,0.71225 ,4.59355 ,45.07192 
39 ,7.0012 ,0.71417 ,4.57302 ,44.87045 
40 ,7.1931 ,0.71614 ,4.53195 ,44.46751 
41 ,7.3692 ,0.71792 ,4.52511 ,44.40036 
42 ,7.5771 ,0.71996 ,4.50115 ,44.16531 
43 ,7.7533 ,0.72175 ,4.48062 ,43.96384 
44 ,7.9295 ,0.72352 ,4.46351 ,43.79595 
45 ,8.1056 ,0.72522 ,4.45324 ,43.69521 
46 ,8.2816 ,0.72709 ,4.43271 ,43.49374 
47 ,8.4576 ,0.72878 ,4.39849 ,43.15796 
48 ,8.6334 ,0.73057 ,4.38480 ,43.02365 
49 ,8.8096 ,0.73229 ,4.38138 ,42.99007 
50 ,8.9859 ,0.73410 ,4.36769 ,42.85576 
51 ,9.1780 ,0.73602 ,4.33004 ,42.48639 
52 ,9.3698 ,0.73790 ,4.31293 ,42.31850 
53 ,9.5461 ,0.73971 ,4.30951 ,42.28492 
54 ,9.7382 ,0.74159 ,4.27187 ,41.91556 
55 ,9.9143 ,0.74335 ,4.24449 ,41.64694 
56 ,10.1064 ,0.74528 ,4.26502 ,41.84841 
57 ,10.2824 ,0.74703 ,4.23422 ,41.54620 
58 ,10.4586 ,0.74883 ,4.20000 ,41.21042 
59 ,10.6183 ,0.75054 ,4.17605 ,40.97537 
60 ,10.7948 ,0.75220 ,4.15894 ,40.80748 
61 ,10.9867 ,0.75411 ,4.15894 ,40.80748 
62 ,11.1626 ,0.75586 ,4.13498 ,40.57243 
63 ,11.3548 ,0.75768 ,4.11787 ,40.40454 
64 ,11.5308 ,0.75953 ,4.10418 ,40.27023 
65 ,11.7067 ,0.76130 ,4.09391 ,40.16949 
66 ,11.8831 ,0.76303 ,4.07680 ,40.00160 
67 ,12.0752 ,0.76491 ,4.03574 ,39.59866 
68 ,12.2513 ,0.76673 ,4.03574 ,39.59866 
69 ,12.4274 ,0.76848 ,4.01178 ,39.36361 
70 ,12.6195 ,0.77042 ,3.99809 ,39.22930 
71 ,12.8116 ,0.77234 ,3.96729 ,38.92709 
72 ,13.0036 ,0.77422 ,3.96045 ,38.85994 
73 ,13.1636 ,0.77594 ,3.92623 ,38.52415 
74 ,13.3716 ,0.77781 ,3.91254 ,38.38984 
75 ,13.5477 ,0.77966 ,3.92281 ,38.49058 
76 ,13.7398 ,0.78157 ,3.88174 ,38.08764 
77 ,13.9159 ,0.78333 ,3.86463 ,37.91975 
78 ,14.0920 ,0.78517 ,3.85094 ,37.78543 
79 ,14.2681 ,0.78689 ,3.84067 ,37.68470 
80 ,14.4761 ,0.78893 ,3.79619 ,37.24818 
81 ,14.6522 ,0.79077 ,3.78250 ,37.11387 
82 ,14.8282 ,0.79249 ,3.77908 ,37.08029 
83 ,15.0202 ,0.79434 ,3.74828 ,36.77808 
84 ,15.1966 ,0.79618 ,3.73459 ,36.64377 
85 ,15.3724 ,0.79795 ,3.71405 ,36.44230 
86 ,15.5482 ,0.79970 ,3.71063 ,36.40872 
87 ,15.7566 ,0.80167 ,3.68668 ,36.17367 
88 ,15.9324 ,0.80355 ,3.66614 ,35.97220 
89 ,16.1087 ,0.80530 ,3.65246 ,35.83789 
90 ,16.2848 ,0.80701 ,3.63534 ,35.67000 
91 ,16.4765 ,0.80902 ,3.61481 ,35.46853 
92 ,16.6530 ,0.81072 ,3.59770 ,35.30064 
93 ,16.8450 ,0.81263 ,3.59086 ,35.23348 
94 ,17.0211 ,0.81438 ,3.58743 ,35.19990 
95 ,17.1972 ,0.81611 ,3.55321 ,34.86412 
96 ,17.3892 ,0.81808 ,3.54979 ,34.83054 
97 ,17.5814 ,0.81998 ,3.52926 ,34.62907 
98 ,17.7573 ,0.82176 ,3.50188 ,34.36045 
99 ,17.9335 ,0.82356 ,3.47792 ,34.12540 
100 ,18.1096 ,0.82528 ,3.46766 ,34.02466 
101 ,18.3015 ,0.82715 ,3.45739 ,33.92393 
102 ,18.4775 ,0.82897 ,3.42659 ,33.62172 
103 ,18.6699 ,0.83088 ,3.42659 ,33.62172 
104 ,18.8616 ,0.83275 ,3.41290 ,33.48741 
105 ,19.0535 ,0.83464 ,3.38553 ,33.21878 
106 ,19.2298 ,0.83652 ,3.35473 ,32.91658 
107 ,19.4064 ,0.83831 ,3.36157 ,32.98374 
108 ,19.5820 ,0.83997 ,3.34788 ,32.84942 
109 ,19.7582 ,0.84178 ,3.31366 ,32.51364 
110 ,19.9502 ,0.84365 ,3.30339 ,32.41290 
111 ,20.1262 ,0.84540 ,3.30339 ,32.41290 
112 ,20.3026 ,0.84720 ,3.26917 ,32.07712 
113 ,20.4945 ,0.84913 ,3.23837 ,31.77492 
114 ,20.6704 ,0.85092 ,3.22811 ,31.67418 
115 ,20.8465 ,0.85261 ,3.22468 ,31.64060 
116 ,21.0227 ,0.85438 ,3.21100 ,31.50629 
117 ,21.2144 ,0.85623 ,3.19388 ,31.33840 
118 ,21.3908 ,0.85805 ,3.16993 ,31.10335 
119 ,21.5828 ,0.86003 ,3.15966 ,31.00262 
120 ,21.7589 ,0.86171 ,3.14597 ,30.86830 
121 ,21.9348 ,0.86359 ,3.12544 ,30.66683 
122 ,22.1111 ,0.86529 ,3.10149 ,30.43178 
123 ,22.2867 ,0.86701 ,3.09464 ,30.36463 
124 ,22.4633 ,0.86876 ,3.08095 ,30.23031 
125 ,22.6554 ,0.87071 ,3.05358 ,29.96169 
126 ,22.8315 ,0.87251 ,3.03989 ,29.82737 
127 ,23.0395 ,0.87458 ,3.02962 ,29.72664 
128 ,23.2156 ,0.87634 ,3.00909 ,29.52517 
129 ,23.4077 ,0.87824 ,2.98855 ,29.32370 
130 ,23.6156 ,0.88022 ,2.98513 ,29.29012 
131 ,23.7914 ,0.88205 ,2.95091 ,28.95434 
132 ,23.9678 ,0.88382 ,2.94407 ,28.88718 
133 ,24.1439 ,0.88561 ,2.92353 ,28.68571 
134 ,24.3201 ,0.88740 ,2.91669 ,28.61856 
135 ,24.5122 ,0.88924 ,2.90300 ,28.48424 
136 ,24.7042 ,0.89122 ,2.88247 ,28.28277 
137 ,24.8802 ,0.89296 ,2.85851 ,28.04772 
138 ,25.0564 ,0.89468 ,2.84482 ,27.91341 
139 ,25.2320 ,0.89650 ,2.82087 ,27.67836 
140 ,25.4085 ,0.89819 ,2.81060 ,27.57763 
141 ,25.5846 ,0.90004 ,2.79691 ,27.44332 
142 ,25.7766 ,0.90195 ,2.79007 ,27.37616 
143 ,25.9526 ,0.90377 ,2.75585 ,27.04038 
144 ,26.1288 ,0.90545 ,2.73874 ,26.87248 
145 ,26.3050 ,0.90718 ,2.72847 ,26.77175 
146 ,26.4806 ,0.90895 ,2.72163 ,26.70459 
147 ,26.6729 ,0.91086 ,2.69767 ,26.46954 
148 ,26.8650 ,0.91279 ,2.68398 ,26.33523 
149 ,27.0411 ,0.91454 ,2.66687 ,26.16734 
150 ,27.2171 ,0.91634 ,2.65318 ,26.03303 
151 ,27.3933 ,0.91810 ,2.61212 ,25.63009 
152 ,27.5848 ,0.91999 ,2.61896 ,25.69724 
153 ,27.7612 ,0.92173 ,2.61554 ,25.66367 
154 ,27.9375 ,0.92348 ,2.59501 ,25.46220 
155 ,28.1134 ,0.92530 ,2.56078 ,25.12641 
156 ,28.2895 ,0.92706 ,2.53683 ,24.89136 
157 ,28.4816 ,0.92896 ,2.54025 ,24.92494 
158 ,28.6733 ,0.93088 ,2.50603 ,24.58916 
159 ,28.8497 ,0.93260 ,2.48892 ,24.42127 
160 ,29.0259 ,0.93441 ,2.48550 ,24.38769 
161 ,29.2177 ,0.93628 ,2.47181 ,24.25338 
162 ,29.3940 ,0.93813 ,2.45127 ,24.05191 
163 ,29.5700 ,0.93985 ,2.42732 ,23.81686 
164 ,29.7461 ,0.94157 ,2.41021 ,23.64897 
165 ,29.9222 ,0.94334 ,2.41705 ,23.71612 
166 ,30.0983 ,0.94515 ,2.40679 ,23.61539 
167 ,30.2744 ,0.94693 ,2.36914 ,23.24603 
168 ,30.4503 ,0.94866 ,2.35545 ,23.11171 
169 ,30.6265 ,0.95044 ,2.34519 ,23.01098 
170 ,30.8027 ,0.95222 ,2.33492 ,22.91024 
171 ,31.0108 ,0.95419 ,2.31097 ,22.67520 
172 ,31.2026 ,0.95613 ,2.30070 ,22.57446 
173 ,31.3789 ,0.95793 ,2.28359 ,22.40657 
174 ,31.5708 ,0.95984 ,2.24937 ,22.07079 
175 ,31.7469 ,0.96162 ,2.24937 ,22.07079 
176 ,31.9231 ,0.96337 ,2.23226 ,21.90290 
177 ,32.1152 ,0.96531 ,2.21172 ,21.70143 
178 ,32.2913 ,0.96707 ,2.19461 ,21.53353 
179 ,32.4833 ,0.96894 ,2.19461 ,21.53353 
180 ,32.6594 ,0.97070 ,2.18092 ,21.39922 
181 ,32.8512 ,0.97266 ,2.14328 ,21.02986 
182 ,33.0272 ,0.97441 ,2.12959 ,20.89555 
183 ,33.2195 ,0.97631 ,2.12275 ,20.82839 
184 ,33.3954 ,0.97806 ,2.09879 ,20.59334 
185 ,33.5875 ,0.97999 ,2.09195 ,20.52619 
186 ,33.7633 ,0.98180 ,2.07484 ,20.35829 
187 ,33.9555 ,0.98362 ,2.05430 ,20.15682 
188 ,34.1155 ,0.98540 ,2.03035 ,19.92178 
189 ,34.2918 ,0.98709 ,2.02693 ,19.88820 
190 ,34.4841 ,0.98888 ,2.00982 ,19.72031 
191 ,34.6757 ,0.99082 ,2.00297 ,19.65315 
192 ,34.8519 ,0.99265 ,1.98244 ,19.45168 
193 ,35.0279 ,0.99442 ,1.96875 ,19.31737 
194 ,35.2040 ,0.99615 ,1.95164 ,19.14948 
195 ,35.3800 ,0.99792 ,1.95506 ,19.18305 
196 ,35.5400 ,0.99965 ,1.93795 ,19.01516 
197 ,35.7163 ,1.00133 ,1.91742 ,18.81369 
198 ,35.9088 ,1.00318 ,1.88319 ,18.47791 
199 ,36.0847 ,1.00506 ,1.87977 ,18.44433 
200 ,36.2608 ,1.00670 ,1.87635 ,18.41075 
201 ,36.4528 ,1.00856 ,1.86608 ,18.31002 
202 ,36.6451 ,1.01061 ,1.83871 ,18.04139 
203 ,36.8372 ,1.01249 ,1.82502 ,17.90708 
204 ,37.0290 ,1.01440 ,1.80106 ,17.67203 
205 ,37.2048 ,1.01622 ,1.81475 ,17.80634 
206 ,37.3648 ,1.01788 ,1.80106 ,17.67203 
207 ,37.5249 ,1.01947 ,1.77026 ,17.36983 
208 ,37.7017 ,1.02115 ,1.76000 ,17.26909 
209 ,37.8937 ,1.02300 ,1.73262 ,17.00046 
210 ,38.0857 ,1.02487 ,1.71209 ,16.79899 
211 ,38.2456 ,1.02669 ,1.71209 ,16.79899 
212 ,38.4376 ,1.02844 ,1.69155 ,16.59752 
213 ,38.6139 ,1.03024 ,1.67102 ,16.39605 
214 ,38.7739 ,1.03195 ,1.66075 ,16.29532 
215 ,38.9498 ,1.03360 ,1.65733 ,16.26174 
216 ,39.1260 ,1.03533 ,1.65391 ,16.22816 
217 ,39.3021 ,1.03709 ,1.64707 ,16.16101 
218 ,39.4941 ,1.03909 ,1.60600 ,15.75807 
219 ,39.6863 ,1.04097 ,1.59916 ,15.69091 
220 ,39.8945 ,1.04295 ,1.59231 ,15.62375 
221 ,40.0864 ,1.04494 ,1.57178 ,15.42228 
222 ,40.2464 ,1.04667 ,1.56151 ,15.32155 
223 ,40.4226 ,1.04835 ,1.55124 ,15.22081 
224 ,40.6146 ,1.05027 ,1.51702 ,14.88503 
225 ,40.7907 ,1.05205 ,1.51018 ,14.81787 
226 ,40.9829 ,1.05380 ,1.50676 ,14.78430 
227 ,41.1587 ,1.05569 ,1.48280 ,14.54925 
228 ,41.3348 ,1.05746 ,1.45542 ,14.28062 
229 ,41.5271 ,1.05935 ,1.45200 ,14.24704 
230 ,41.7033 ,1.06114 ,1.44858 ,14.21346 
231 ,41.8793 ,1.06291 ,1.44174 ,14.14631 
232 ,42.0713 ,1.06482 ,1.41094 ,13.84410 
233 ,42.2473 ,1.06654 ,1.41094 ,13.84410 
234 ,42.4390 ,1.06842 ,1.39040 ,13.64263 
235 ,42.6155 ,1.07028 ,1.36303 ,13.37401 
236 ,42.8077 ,1.07212 ,1.36645 ,13.40759 
237 ,42.9837 ,1.07396 ,1.35618 ,13.30685 
238 ,43.1755 ,1.07585 ,1.33223 ,13.07180 
239 ,43.3520 ,1.07757 ,1.31169 ,12.87033 
240 ,43.5276 ,1.07942 ,1.30485 ,12.80318 
241 ,43.7042 ,1.08116 ,1.30143 ,12.76960 
242 ,43.8962 ,1.08301 ,1.27747 ,12.53455 
243 ,44.0720 ,1.08479 ,1.25694 ,12.33308 
244 ,44.2482 ,1.08656 ,1.25009 ,12.26592 
245 ,44.4244 ,1.08828 ,1.23641 ,12.13161 
246 ,44.6002 ,1.09009 ,1.23641 ,12.13161 
247 ,44.7766 ,1.09187 ,1.20561 ,11.82941 
248 ,44.9526 ,1.09365 ,1.18507 ,11.62794 
249 ,45.1287 ,1.09541 ,1.18165 ,11.59436 
250 ,45.3048 ,1.09718 ,1.18850 ,11.66151 
251 ,45.4969 ,1.09908 ,1.14401 ,11.22500 
252 ,45.6729 ,1.10079 ,1.14058 ,11.19142 
253 ,45.8488 ,1.10255 ,1.13374 ,11.12426 
254 ,46.0250 ,1.10427 ,1.12005 ,10.98995 
255 ,46.2012 ,1.10608 ,1.11663 ,10.95637 
256 ,46.3772 ,1.10782 ,1.08241 ,10.62059 
257 ,46.5532 ,1.10959 ,1.07214 ,10.51985 
258 ,46.7292 ,1.11139 ,1.06530 ,10.45270 
259 ,46.9214 ,1.11321 ,1.05161 ,10.31838 
260 ,47.1135 ,1.11522 ,1.03450 ,10.15049 
261 ,47.2896 ,1.11694 ,1.03792 ,10.18407 
262 ,47.5136 ,1.11905 ,1.00370 ,9.84829 
263 ,47.6897 ,1.12098 ,1.00028 ,9.81471 
264 ,47.8818 ,1.12286 ,0.99001 ,9.71397 
265 ,48.0738 ,1.12483 ,0.95921 ,9.41177 
266 ,48.2500 ,1.12655 ,0.96263 ,9.44535 
267 ,48.4260 ,1.12835 ,0.96263 ,9.44535 
268 ,48.6020 ,1.13013 ,0.93183 ,9.14314 
269 ,48.7777 ,1.13184 ,0.91472 ,8.97525 
270 ,48.9700 ,1.13366 ,0.90103 ,8.84094 
271 ,49.1624 ,1.13573 ,0.89077 ,8.74020 
272 ,49.3542 ,1.13765 ,0.86681 ,8.50515 
273 ,49.5464 ,1.13953 ,0.86339 ,8.47158 
274 ,49.7065 ,1.14122 ,0.84286 ,8.27011 
275 ,49.8985 ,1.14303 ,0.82575 ,8.10221 
276 ,50.0745 ,1.14481 ,0.81548 ,8.00148 
277 ,50.2508 ,1.14656 ,0.80863 ,7.93432 
278 ,50.4427 ,1.14848 ,0.80863 ,7.93432 
279 ,50.6189 ,1.15024 ,0.77099 ,7.56496 
280 ,50.7950 ,1.15208 ,0.76072 ,7.46423 
281 ,50.9708 ,1.15387 ,0.75730 ,7.43065 
282 ,51.1471 ,1.15558 ,0.76415 ,7.49780 
283 ,51.3231 ,1.15733 ,0.73677 ,7.22918 
284 ,51.4991 ,1.15917 ,0.71624 ,7.02771 
285 ,51.6752 ,1.16080 ,0.70255 ,6.89340 
286 ,51.8513 ,1.16259 ,0.68886 ,6.75908 
287 ,52.0273 ,1.16432 ,0.70255 ,6.89340 
288 ,52.2195 ,1.16625 ,0.65806 ,6.45688 
289 ,52.3956 ,1.16800 ,0.65464 ,6.42330 
290 ,52.5875 ,1.16989 ,0.65806 ,6.45688 
291 ,52.7635 ,1.17170 ,0.63410 ,6.22183 
292 ,52.9557 ,1.17355 ,0.60330 ,5.91962 
293 ,53.1639 ,1.17556 ,0.61015 ,5.98678 
294 ,53.3559 ,1.17760 ,0.58277 ,5.71815 
295 ,53.5319 ,1.17935 ,0.56566 ,5.55026 
296 ,53.7086 ,1.18110 ,0.57251 ,5.61742 
297 ,53.8843 ,1.18288 ,0.56908 ,5.58384 
298 ,54.0759 ,1.18485 ,0.53144 ,5.21448 
299 ,54.2524 ,1.18655 ,0.52459 ,5.14732 
300 ,54.4445 ,1.18851 ,0.53144 ,5.21448 
301 ,54.6365 ,1.19033 ,0.50064 ,4.91228 
302 ,54.8125 ,1.19214 ,0.49380 ,4.84512 
303 ,55.0046 ,1.19412 ,0.48011 ,4.71081 
304 ,55.1806 ,1.19581 ,0.46984 ,4.61007 
305 ,55.3725 ,1.19770 ,0.44246 ,4.34144 
306 ,55.5490 ,1.19954 ,0.44588 ,4.37502 
307 ,55.7410 ,1.20152 ,0.41509 ,4.07282 
308 ,55.9171 ,1.20320 ,0.40824 ,4.00566 
309 ,56.1092 ,1.20515 ,0.39797 ,3.90493 
310 ,56.2852 ,1.20690 ,0.39455 ,3.87135 
311 ,56.4773 ,1.20881 ,0.36718 ,3.60272 
312 ,56.6533 ,1.21059 ,0.36718 ,3.60272 
313 ,56.8454 ,1.21256 ,0.35691 ,3.50199 
314 ,57.0215 ,1.21428 ,0.34322 ,3.36767 
315 ,57.2133 ,1.21614 ,0.32611 ,3.19978 
316 ,57.3897 ,1.21795 ,0.32269 ,3.16620 
317 ,57.5654 ,1.21971 ,0.31584 ,3.09905 
318 ,57.7419 ,1.22148 ,0.29531 ,2.89758 
319 ,57.9335 ,1.22334 ,0.27478 ,2.69611 
320 ,58.1097 ,1.22512 ,0.26451 ,2.59537 
321 ,58.2857 ,1.22690 ,0.26451 ,2.59537 
322 ,58.4781 ,1.22875 ,0.25424 ,2.49464 
323 ,58.6862 ,1.23079 ,0.23029 ,2.25959 
324 ,58.8782 ,1.23276 ,0.21318 ,2.09170 
325 ,59.0704 ,1.23471 ,0.20291 ,1.99096 
326 ,59.2466 ,1.23652 ,0.21318 ,2.09170 
327 ,59.4544 ,1.23850 ,0.19264 ,1.89023 
328 ,59.6305 ,1.24038 ,0.17211 ,1.68876 
329 ,59.8069 ,1.24210 ,0.15842 ,1.55445 
330 ,59.9827 ,1.24382 ,0.15842 ,1.55445 
331 ,60.1907 ,1.24576 ,0.14131 ,1.38655 
332 ,60.3826 ,1.24786 ,0.13447 ,1.31940 
333 ,60.5588 ,1.24965 ,0.12078 ,1.18508 
334 ,60.7510 ,1.25150 ,0.10025 ,0.98361 
335 ,60.9430 ,1.25343 ,0.09682 ,0.95004 
336 ,61.1352 ,1.25525 ,0.07629 ,0.74857 
337 ,61.3111 ,1.25713 ,0.05918 ,0.58067 
338 ,61.4873 ,1.25889 ,0.06945 ,0.68141 
339 ,61.6633 ,1.26063 ,0.06260 ,0.61425 
340 ,61.8395 ,1.26245 ,0.03522 ,0.34563 
341 ,62.0475 ,1.26433 ,0.02838 ,0.27847 
342 ,62.2235 ,1.26625 ,0.01811 ,0.17773 
343 ,62.3996 ,1.26804 ,0.00785 ,0.07700 
344 ,62.5595 ,1.26972 ,-0.01269 ,-0.12447 
345 ,62.7358 ,1.27140 ,-0.01611 ,-0.15805 
346 ,62.9120 ,1.27318 ,-0.04006 ,-0.39310 
347 ,63.1039 ,1.27507 ,-0.02637 ,-0.25878 
348 ,63.2800 ,1.27680 ,-0.04348 ,-0.42667 
349 ,63.4721 ,1.27874 ,-0.06402 ,-0.62814 
350 ,63.6481 ,1.28049 ,-0.06744 ,-0.66172 
351 ,63.8242 ,1.28223 ,-0.06744 ,-0.66172 
352 ,64.0004 ,1.28403 ,-0.08113 ,-0.79604 
353 ,64.1924 ,1.28594 ,-0.11193 ,-1.09824 
354 ,64.4004 ,1.28791 ,-0.09482 ,-0.93035 
355 ,64.5761 ,1.28976 ,-0.11535 ,-1.13182 
356 ,64.7526 ,1.29155 ,-0.14615 ,-1.43402 
357 ,64.9446 ,1.29344 ,-0.12219 ,-1.19898 
358 ,65.1207 ,1.29517 ,-0.14615 ,-1.43402 
359 ,65.3127 ,1.29699 ,-0.16668 ,-1.63549 
360 ,65.4889 ,1.29894 ,-0.17353 ,-1.70265 
361 ,65.6646 ,1.30074 ,-0.18037 ,-1.76981 
362 ,65.8410 ,1.30241 ,-0.18379 ,-1.80338 
363 ,66.0171 ,1.30416 ,-0.19748 ,-1.93770 
364 ,66.2088 ,1.30607 ,-0.21802 ,-2.13917 
365 ,66.3853 ,1.30786 ,-0.21459 ,-2.10559 
366 ,66.5773 ,1.30977 ,-0.23855 ,-2.34064 
367 ,66.7534 ,1.31152 ,-0.23855 ,-2.34064 
368 ,66.9294 ,1.31324 ,-0.24539 ,-2.40779 
369 ,67.1056 ,1.31505 ,-0.25224 ,-2.47495 
370 ,67.2976 ,1.31697 ,-0.25908 ,-2.54211 
371 ,67.4895 ,1.31887 ,-0.27961 ,-2.74358 
372 ,67.6657 ,1.32062 ,-0.28304 ,-2.77716 
373 ,67.8258 ,1.32232 ,-0.28646 ,-2.81073 
374 ,68.0018 ,1.32400 ,-0.28988 ,-2.84431 
375 ,68.1780 ,1.32575 ,-0.32752 ,-3.21367 
376 ,68.3541 ,1.32757 ,-0.32068 ,-3.14652 
377 ,68.5462 ,1.32935 ,-0.34121 ,-3.34799 
378 ,68.7221 ,1.33123 ,-0.33095 ,-3.24725 
379 ,68.8983 ,1.33299 ,-0.35832 ,-3.51588 
380 ,69.0743 ,1.33476 ,-0.36175 ,-3.54946 
381 ,69.2824 ,1.33671 ,-0.36517 ,-3.58303 
382 ,69.4586 ,1.33858 ,-0.37544 ,-3.68377 
383 ,69.6505 ,1.34047 ,-0.39597 ,-3.88524 
384 ,69.8267 ,1.34229 ,-0.38912 ,-3.81808 
385 ,70.0188 ,1.34416 ,-0.39939 ,-3.91882 
386 ,70.2107 ,1.34608 ,-0.42335 ,-4.15387 
387 ,70.3870 ,1.34785 ,-0.40623 ,-3.98597 
388 ,70.5789 ,1.34971 ,-0.43361 ,-4.25460 
389 ,70.7711 ,1.35165 ,-0.45072 ,-4.42249 
390 ,70.9789 ,1.35359 ,-0.46099 ,-4.52323 
391 ,71.1552 ,1.35550 ,-0.46783 ,-4.59038 
392 ,71.3312 ,1.35731 ,-0.47468 ,-4.65754 
393 ,71.5073 ,1.35907 ,-0.47468 ,-4.65754 
394 ,71.6995 ,1.36095 ,-0.48152 ,-4.72470 
395 ,71.8755 ,1.36273 ,-0.49179 ,-4.82543 
396 ,72.0516 ,1.36449 ,-0.51574 ,-5.06048 
397 ,72.2277 ,1.36621 ,-0.51574 ,-5.06048 
398 ,72.4037 ,1.36800 ,-0.50890 ,-4.99332 
399 ,72.5798 ,1.36977 ,-0.52259 ,-5.12764 
400 ,72.7559 ,1.37150 ,-0.54312 ,-5.32911 
401 ,72.9320 ,1.37329 ,-0.54654 ,-5.36268 
402 ,73.1081 ,1.37504 ,-0.54654 ,-5.36268 
403 ,73.3003 ,1.37689 ,-0.56365 ,-5.53058 
404 ,73.4760 ,1.37872 ,-0.57392 ,-5.63131 
405 ,73.6521 ,1.38050 ,-0.57050 ,-5.59773 
406 ,73.8441 ,1.38236 ,-0.57734 ,-5.66489 
407 ,74.0361 ,1.38428 ,-0.59788 ,-5.86636 
408 ,74.2119 ,1.38614 ,-0.59788 ,-5.86636 
409 ,74.3880 ,1.38786 ,-0.61156 ,-6.00067 
410 ,74.5646 ,1.38963 ,-0.60472 ,-5.93352 
411 ,74.7408 ,1.39141 ,-0.60814 ,-5.96709 
412 ,74.9328 ,1.39328 ,-0.63894 ,-6.26930 
413 ,75.1248 ,1.39517 ,-0.62868 ,-6.16856 
414 ,75.3009 ,1.39698 ,-0.64921 ,-6.37003 
415 ,75.4767 ,1.39870 ,-0.66632 ,-6.53793 
416 ,75.6526 ,1.40054 ,-0.67316 ,-6.60508 
417 ,75.8289 ,1.40223 ,-0.66974 ,-6.57150 
418 ,76.0208 ,1.40412 ,-0.68685 ,-6.73940 
419 ,76.1970 ,1.40591 ,-0.69027 ,-6.77297 
420 ,76.3730 ,1.40771 ,-0.69370 ,-6.80655 
421 ,76.5492 ,1.40944 ,-0.69712 ,-6.84013 
422 ,76.7253 ,1.41126 ,-0.69712 ,-6.84013 
423 ,76.9176 ,1.41309 ,-0.72107 ,-7.07518 
424 ,77.1094 ,1.41502 ,-0.71081 ,-6.97444 
425 ,77.2853 ,1.41677 ,-0.71765 ,-7.04160 
426 ,77.4617 ,1.41862 ,-0.73134 ,-7.17591 
427 ,77.6377 ,1.42034 ,-0.75187 ,-7.37738 
428 ,77.8136 ,1.42211 ,-0.76214 ,-7.47812 
429 ,78.0060 ,1.42392 ,-0.76214 ,-7.47812 
430 ,78.1819 ,1.42577 ,-0.75872 ,-7.44454 
431 ,78.3576 ,1.42753 ,-0.77925 ,-7.64601 
432 ,78.5342 ,1.42932 ,-0.78610 ,-7.71317 
433 ,78.7103 ,1.43106 ,-0.78610 ,-7.71317 
434 ,78.8863 ,1.43281 ,-0.78952 ,-7.74674 
435 ,79.0945 ,1.43479 ,-0.81005 ,-7.94821 
436 ,79.2706 ,1.43665 ,-0.82374 ,-8.08253 
437 ,79.4463 ,1.43842 ,-0.81689 ,-8.01537 
438 ,79.6222 ,1.44015 ,-0.83743 ,-8.21684 
439 ,79.7985 ,1.44195 ,-0.85112 ,-8.35115 
440 ,79.9745 ,1.44368 ,-0.84769 ,-8.31758 
441 ,80.1667 ,1.44546 ,-0.84769 ,-8.31758 
442 ,80.3428 ,1.44734 ,-0.85454 ,-8.38473 
443 ,80.5027 ,1.44907 ,-0.88192 ,-8.65336 
444 ,80.6627 ,1.45066 ,-0.88534 ,-8.68694 
445 ,80.8390 ,1.45234 ,-0.88876 ,-8.72051 
446 ,81.0310 ,1.45423 ,-0.88534 ,-8.68694 
447 ,81.2073 ,1.45601 ,-0.88876 ,-8.72051 
448 ,81.3831 ,1.45780 ,-0.89903 ,-8.82125 
449 ,81.5753 ,1.45968 ,-0.91614 ,-8.98914 
450 ,81.7514 ,1.46143 ,-0.92298 ,-9.05630 
451 ,81.9434 ,1.46336 ,-0.92983 ,-9.12345 
452 ,82.1195 ,1.46516 ,-0.93667 ,-9.19061 
453 ,82.2956 ,1.46690 ,-0.94694 ,-9.29135 
454 ,82.4877 ,1.46879 ,-0.94351 ,-9.25777 
455 ,82.6635 ,1.47059 ,-0.95720 ,-9.39208 
456 ,82.8397 ,1.47232 ,-0.97774 ,-9.59355 
457 ,83.0162 ,1.47410 ,-0.97774 ,-9.59355 
458 ,83.2080 ,1.47601 ,-0.98116 ,-9.62713 
459 ,83.3999 ,1.47789 ,-1.00854 ,-9.89576 
460 ,83.5757 ,1.47965 ,-0.99827 ,-9.79502 
461 ,83.7522 ,1.48146 ,-1.01196 ,-9.92933 
462 ,83.9442 ,1.48338 ,-1.00854 ,-9.89576 
