Data stamp = , 01-04-2022 23:55:36 664

Calibration Values: 
Slope = , 26.54 , g/V 
Offset Voltage at no contact = , -0.501760 , V 

No , Time , Stage Position ,   Mass , Force 
   ,  (s) ,      (mm)      ,   (g)  , (mN)  

1 ,0.0000 ,0.59943 ,5.43883 ,53.36576 
2 ,0.2010 ,0.59946 ,5.42856 ,53.26503 
3 ,0.5211 ,0.60031 ,5.44909 ,53.46650 
4 ,0.7133 ,0.60171 ,5.45594 ,53.53366 
5 ,0.8894 ,0.60318 ,5.45594 ,53.53366 
6 ,1.0653 ,0.60487 ,5.44909 ,53.46650 
7 ,1.2734 ,0.60681 ,5.45594 ,53.53366 
8 ,1.4494 ,0.60863 ,5.44567 ,53.43292 
9 ,1.6416 ,0.61058 ,5.42514 ,53.23145 
10 ,1.8498 ,0.61258 ,5.42856 ,53.26503 
11 ,2.0418 ,0.61467 ,5.39092 ,52.89567 
12 ,2.2177 ,0.61643 ,5.38065 ,52.79493 
13 ,2.4099 ,0.61830 ,5.37723 ,52.76135 
14 ,2.5859 ,0.62006 ,5.37723 ,52.76135 
15 ,2.7780 ,0.62188 ,5.33616 ,52.35841 
16 ,2.9700 ,0.62380 ,5.32932 ,52.29126 
17 ,3.1461 ,0.62564 ,5.31905 ,52.19052 
18 ,3.3222 ,0.62745 ,5.29167 ,51.92190 
19 ,3.5143 ,0.62930 ,5.29167 ,51.92190 
20 ,3.6904 ,0.63114 ,5.27114 ,51.72043 
21 ,3.8826 ,0.63306 ,5.23350 ,51.35107 
22 ,4.0585 ,0.63484 ,5.22323 ,51.25033 
23 ,4.2508 ,0.63657 ,5.22323 ,51.25033 
24 ,4.4266 ,0.63845 ,5.19585 ,50.98170 
25 ,4.6029 ,0.64023 ,5.17190 ,50.74666 
26 ,4.7949 ,0.64214 ,5.16505 ,50.67950 
27 ,4.9709 ,0.64392 ,5.14452 ,50.47803 
28 ,5.1470 ,0.64564 ,5.12399 ,50.27656 
29 ,5.3551 ,0.64774 ,5.10003 ,50.04151 
30 ,5.5312 ,0.64949 ,5.11030 ,50.14225 
31 ,5.7070 ,0.65122 ,5.08977 ,49.94078 
32 ,5.8994 ,0.65306 ,5.05554 ,49.60499 
33 ,6.0753 ,0.65497 ,5.03501 ,49.40352 
34 ,6.2515 ,0.65670 ,5.02474 ,49.30279 
35 ,6.4273 ,0.65842 ,5.00763 ,49.13490 
36 ,6.6036 ,0.66021 ,4.98368 ,48.89985 
37 ,6.7793 ,0.66196 ,4.95630 ,48.63122 
38 ,6.9558 ,0.66374 ,4.93577 ,48.42975 
39 ,7.1639 ,0.66578 ,4.93235 ,48.39618 
40 ,7.3398 ,0.66758 ,4.89470 ,48.02681 
41 ,7.5321 ,0.66951 ,4.88444 ,47.92608 
42 ,7.7082 ,0.67126 ,4.87075 ,47.79177 
43 ,7.9162 ,0.67335 ,4.83995 ,47.48956 
44 ,8.1082 ,0.67526 ,4.83652 ,47.45598 
45 ,8.2844 ,0.67703 ,4.81941 ,47.28809 
46 ,8.4764 ,0.67897 ,4.77493 ,46.85157 
47 ,8.6524 ,0.68075 ,4.77493 ,46.85157 
48 ,8.8286 ,0.68249 ,4.76466 ,46.75084 
49 ,9.0206 ,0.68432 ,4.73386 ,46.44863 
50 ,9.1966 ,0.68617 ,4.72017 ,46.31432 
51 ,9.3727 ,0.68791 ,4.69964 ,46.11285 
52 ,9.5647 ,0.68974 ,4.68937 ,46.01212 
53 ,9.7569 ,0.69176 ,4.65857 ,45.70991 
54 ,9.9325 ,0.69355 ,4.63462 ,45.47486 
55 ,10.1090 ,0.69530 ,4.63804 ,45.50844 
56 ,10.3011 ,0.69716 ,4.61066 ,45.23981 
57 ,10.4930 ,0.69910 ,4.57986 ,44.93761 
58 ,10.6692 ,0.70084 ,4.58671 ,45.00477 
59 ,10.8454 ,0.70260 ,4.57644 ,44.90403 
60 ,11.0372 ,0.70451 ,4.53537 ,44.50109 
61 ,11.2133 ,0.70629 ,4.51142 ,44.26604 
62 ,11.3896 ,0.70808 ,4.50115 ,44.16531 
63 ,11.5815 ,0.70996 ,4.48062 ,43.96384 
64 ,11.7573 ,0.71177 ,4.45666 ,43.72879 
65 ,11.9337 ,0.71347 ,4.43613 ,43.52732 
66 ,12.1097 ,0.71541 ,4.42929 ,43.46016 
67 ,12.3019 ,0.71715 ,4.40533 ,43.22512 
68 ,12.4779 ,0.71897 ,4.38822 ,43.05723 
69 ,12.6540 ,0.72070 ,4.37453 ,42.92291 
70 ,12.8457 ,0.72261 ,4.36769 ,42.85576 
71 ,13.0220 ,0.72439 ,4.34031 ,42.58713 
72 ,13.1823 ,0.72611 ,4.31978 ,42.38566 
73 ,13.3583 ,0.72771 ,4.30609 ,42.25135 
74 ,13.5504 ,0.72955 ,4.28213 ,42.01630 
75 ,13.7424 ,0.73161 ,4.27871 ,41.98272 
76 ,13.9185 ,0.73335 ,4.25476 ,41.74767 
77 ,14.1102 ,0.73526 ,4.22738 ,41.47905 
78 ,14.2864 ,0.73700 ,4.21369 ,41.34473 
79 ,14.4627 ,0.73876 ,4.19658 ,41.17684 
80 ,14.6549 ,0.74058 ,4.17605 ,40.97537 
81 ,14.8630 ,0.74277 ,4.16920 ,40.90821 
82 ,15.0389 ,0.74456 ,4.15209 ,40.74032 
83 ,15.2148 ,0.74628 ,4.10760 ,40.30380 
84 ,15.3910 ,0.74805 ,4.10760 ,40.30380 
85 ,15.5671 ,0.74977 ,4.09049 ,40.13591 
86 ,15.7752 ,0.75171 ,4.06996 ,39.93444 
87 ,15.9511 ,0.75364 ,4.03574 ,39.59866 
88 ,16.1434 ,0.75561 ,4.03232 ,39.56508 
89 ,16.3195 ,0.75733 ,4.02205 ,39.46435 
90 ,16.5276 ,0.75937 ,3.98783 ,39.12856 
91 ,16.7036 ,0.76121 ,3.98441 ,39.09499 
92 ,16.8957 ,0.76302 ,3.97072 ,38.96067 
93 ,17.0717 ,0.76491 ,3.92965 ,38.55773 
94 ,17.2477 ,0.76660 ,3.91254 ,38.38984 
95 ,17.4400 ,0.76853 ,3.90912 ,38.35626 
96 ,17.6318 ,0.77046 ,3.88858 ,38.15479 
97 ,17.8401 ,0.77242 ,3.87832 ,38.05406 
98 ,18.0159 ,0.77436 ,3.85779 ,37.85259 
99 ,18.1924 ,0.77610 ,3.81672 ,37.44965 
100 ,18.3842 ,0.77787 ,3.79961 ,37.28176 
101 ,18.5763 ,0.77979 ,3.79619 ,37.24818 
102 ,18.7524 ,0.78166 ,3.76881 ,36.97955 
103 ,18.9125 ,0.78336 ,3.75170 ,36.81166 
104 ,19.0885 ,0.78508 ,3.73459 ,36.64377 
105 ,19.2647 ,0.78679 ,3.72090 ,36.50946 
106 ,19.4407 ,0.78852 ,3.71063 ,36.40872 
107 ,19.6167 ,0.79026 ,3.69694 ,36.27441 
108 ,19.7929 ,0.79208 ,3.66957 ,36.00578 
109 ,20.0009 ,0.79405 ,3.65246 ,35.83789 
110 ,20.1770 ,0.79590 ,3.65246 ,35.83789 
111 ,20.3687 ,0.79778 ,3.61139 ,35.43495 
112 ,20.5452 ,0.79956 ,3.59086 ,35.23348 
113 ,20.7210 ,0.80139 ,3.58401 ,35.16632 
114 ,20.9131 ,0.80323 ,3.54637 ,34.79696 
115 ,21.0893 ,0.80510 ,3.56006 ,34.93128 
116 ,21.2655 ,0.80674 ,3.53610 ,34.69623 
117 ,21.4732 ,0.80884 ,3.50872 ,34.42760 
118 ,21.6656 ,0.81077 ,3.48477 ,34.19255 
119 ,21.8894 ,0.81292 ,3.46766 ,34.02466 
120 ,22.0658 ,0.81480 ,3.45397 ,33.89035 
121 ,22.2420 ,0.81655 ,3.44370 ,33.78961 
122 ,22.4179 ,0.81833 ,3.43344 ,33.68888 
123 ,22.5776 ,0.82001 ,3.39579 ,33.31952 
124 ,22.7541 ,0.82168 ,3.38895 ,33.25236 
125 ,22.9459 ,0.82356 ,3.35815 ,32.95016 
126 ,23.1224 ,0.82536 ,3.35473 ,32.91658 
127 ,23.2980 ,0.82712 ,3.34104 ,32.78227 
128 ,23.4741 ,0.82881 ,3.33077 ,32.68153 
129 ,23.6504 ,0.83063 ,3.30339 ,32.41290 
130 ,23.8264 ,0.83237 ,3.28971 ,32.27859 
131 ,24.0028 ,0.83417 ,3.26233 ,32.00996 
132 ,24.1787 ,0.83595 ,3.26233 ,32.00996 
133 ,24.3548 ,0.83770 ,3.25891 ,31.97639 
134 ,24.5309 ,0.83941 ,3.21442 ,31.53987 
135 ,24.7069 ,0.84121 ,3.21100 ,31.50629 
136 ,24.8831 ,0.84296 ,3.19046 ,31.30482 
137 ,25.0752 ,0.84483 ,3.17335 ,31.13693 
138 ,25.2672 ,0.84680 ,3.15282 ,30.93546 
139 ,25.4591 ,0.84865 ,3.14255 ,30.83472 
140 ,25.6354 ,0.85045 ,3.13229 ,30.73399 
141 ,25.8114 ,0.85220 ,3.10833 ,30.49894 
142 ,26.0035 ,0.85416 ,3.09122 ,30.33105 
143 ,26.1955 ,0.85608 ,3.07753 ,30.19674 
144 ,26.3716 ,0.85779 ,3.06042 ,30.02884 
145 ,26.5478 ,0.85962 ,3.04673 ,29.89453 
146 ,26.7236 ,0.86134 ,3.02962 ,29.72664 
147 ,26.9155 ,0.86324 ,3.02278 ,29.65948 
148 ,27.0919 ,0.86504 ,3.00909 ,29.52517 
149 ,27.2679 ,0.86678 ,2.98513 ,29.29012 
150 ,27.4441 ,0.86854 ,2.95433 ,28.98792 
151 ,27.6201 ,0.87031 ,2.94064 ,28.85360 
152 ,27.7961 ,0.87207 ,2.93038 ,28.75287 
153 ,27.9725 ,0.87383 ,2.92011 ,28.65213 
154 ,28.1803 ,0.87589 ,2.88589 ,28.31635 
155 ,28.3565 ,0.87764 ,2.88931 ,28.34993 
156 ,28.5325 ,0.87945 ,2.87220 ,28.18204 
157 ,28.6925 ,0.88112 ,2.85167 ,27.98057 
158 ,28.8685 ,0.88277 ,2.84140 ,27.87983 
159 ,29.0607 ,0.88463 ,2.81745 ,27.64479 
160 ,29.2365 ,0.88647 ,2.81745 ,27.64479 
161 ,29.4129 ,0.88823 ,2.79007 ,27.37616 
162 ,29.5890 ,0.89004 ,2.79349 ,27.40974 
163 ,29.7812 ,0.89195 ,2.74900 ,26.97322 
164 ,29.9568 ,0.89364 ,2.75243 ,27.00680 
165 ,30.1331 ,0.89541 ,2.73874 ,26.87248 
166 ,30.2932 ,0.89714 ,2.72505 ,26.73817 
167 ,30.4693 ,0.89880 ,2.70109 ,26.50312 
168 ,30.6454 ,0.90054 ,2.68740 ,26.36881 
169 ,30.8374 ,0.90243 ,2.65660 ,26.06661 
170 ,31.0132 ,0.90424 ,2.66003 ,26.10018 
171 ,31.2057 ,0.90609 ,2.62923 ,25.79798 
172 ,31.3817 ,0.90793 ,2.61554 ,25.66367 
173 ,31.5576 ,0.90968 ,2.60869 ,25.59651 
174 ,31.7337 ,0.91148 ,2.60869 ,25.59651 
175 ,31.9256 ,0.91329 ,2.57789 ,25.29430 
176 ,32.1015 ,0.91510 ,2.56763 ,25.19357 
177 ,32.2775 ,0.91688 ,2.54367 ,24.95852 
178 ,32.4541 ,0.91862 ,2.54367 ,24.95852 
179 ,32.6462 ,0.92058 ,2.52656 ,24.79063 
180 ,32.8222 ,0.92230 ,2.49918 ,24.52200 
181 ,32.9987 ,0.92403 ,2.48207 ,24.35411 
182 ,33.1901 ,0.92597 ,2.49918 ,24.52200 
183 ,33.3665 ,0.92775 ,2.46839 ,24.21980 
184 ,33.5426 ,0.92953 ,2.44101 ,23.95117 
185 ,33.7186 ,0.93128 ,2.43074 ,23.85044 
186 ,33.8950 ,0.93307 ,2.41363 ,23.68255 
187 ,34.0707 ,0.93480 ,2.42048 ,23.74970 
188 ,34.2307 ,0.93647 ,2.39994 ,23.54823 
189 ,34.4068 ,0.93816 ,2.39310 ,23.48108 
190 ,34.5828 ,0.93988 ,2.37256 ,23.27961 
191 ,34.7590 ,0.94165 ,2.33492 ,22.91024 
192 ,34.9671 ,0.94365 ,2.34519 ,23.01098 
193 ,35.1588 ,0.94571 ,2.30754 ,22.64162 
194 ,35.3352 ,0.94737 ,2.30070 ,22.57446 
195 ,35.5273 ,0.94939 ,2.30070 ,22.57446 
196 ,35.7035 ,0.95110 ,2.26990 ,22.27226 
197 ,35.8795 ,0.95289 ,2.25279 ,22.10437 
198 ,36.0715 ,0.95479 ,2.24937 ,22.07079 
199 ,36.2475 ,0.95661 ,2.23910 ,21.97005 
200 ,36.4397 ,0.95847 ,2.19803 ,21.56711 
201 ,36.6156 ,0.96021 ,2.18777 ,21.46638 
202 ,36.7919 ,0.96205 ,2.19461 ,21.53353 
203 ,36.9677 ,0.96374 ,2.18092 ,21.39922 
204 ,37.1440 ,0.96550 ,2.15697 ,21.16417 
205 ,37.3197 ,0.96731 ,2.13644 ,20.96270 
206 ,37.4962 ,0.96900 ,2.12275 ,20.82839 
207 ,37.6882 ,0.97098 ,2.11932 ,20.79481 
208 ,37.8642 ,0.97267 ,2.09879 ,20.59334 
209 ,38.0403 ,0.97445 ,2.07484 ,20.35829 
210 ,38.2165 ,0.97623 ,2.06115 ,20.22398 
211 ,38.4082 ,0.97811 ,2.06799 ,20.29114 
212 ,38.5686 ,0.97986 ,2.03377 ,19.95535 
213 ,38.7447 ,0.98152 ,2.04061 ,20.02251 
214 ,38.9207 ,0.98325 ,2.01324 ,19.75388 
215 ,39.0969 ,0.98506 ,2.00297 ,19.65315 
216 ,39.2726 ,0.98677 ,1.98928 ,19.51884 
217 ,39.4327 ,0.98850 ,1.98586 ,19.48526 
218 ,39.6086 ,0.99018 ,1.96533 ,19.28379 
219 ,39.7846 ,0.99190 ,1.96533 ,19.28379 
220 ,39.9772 ,0.99370 ,1.93111 ,18.94801 
221 ,40.2014 ,0.99592 ,1.91057 ,18.74654 
222 ,40.3774 ,0.99786 ,1.90715 ,18.71296 
223 ,40.5529 ,0.99962 ,1.88319 ,18.47791 
224 ,40.7295 ,1.00131 ,1.88319 ,18.47791 
225 ,40.9056 ,1.00313 ,1.88662 ,18.51149 
226 ,41.0978 ,1.00504 ,1.83871 ,18.04139 
227 ,41.2737 ,1.00685 ,1.82844 ,17.94066 
228 ,41.4655 ,1.00864 ,1.83186 ,17.97423 
229 ,41.6419 ,1.01045 ,1.80791 ,17.73919 
230 ,41.8179 ,1.01221 ,1.78395 ,17.50414 
231 ,41.9941 ,1.01398 ,1.77369 ,17.40340 
232 ,42.2022 ,1.01593 ,1.76684 ,17.33625 
233 ,42.3942 ,1.01791 ,1.73946 ,17.06762 
234 ,42.5864 ,1.01994 ,1.74973 ,17.16836 
235 ,42.7783 ,1.02178 ,1.71551 ,16.83257 
236 ,43.0025 ,1.02390 ,1.70182 ,16.69826 
237 ,43.2104 ,1.02612 ,1.68813 ,16.56395 
238 ,43.3865 ,1.02790 ,1.68129 ,16.49679 
239 ,43.5786 ,1.02975 ,1.66075 ,16.29532 
240 ,43.7547 ,1.03156 ,1.64364 ,16.12743 
241 ,43.9467 ,1.03348 ,1.63338 ,16.02669 
242 ,44.1229 ,1.03527 ,1.62653 ,15.95954 
243 ,44.2988 ,1.03702 ,1.59573 ,15.65733 
244 ,44.4751 ,1.03880 ,1.58204 ,15.52302 
245 ,44.6669 ,1.04071 ,1.58204 ,15.52302 
246 ,44.8431 ,1.04249 ,1.57178 ,15.42228 
247 ,45.0351 ,1.04434 ,1.54098 ,15.12008 
248 ,45.2113 ,1.04616 ,1.52729 ,14.98577 
249 ,45.4031 ,1.04803 ,1.52729 ,14.98577 
250 ,45.5793 ,1.04980 ,1.50333 ,14.75072 
251 ,45.7553 ,1.05158 ,1.47253 ,14.44851 
252 ,45.9474 ,1.05346 ,1.49649 ,14.68356 
253 ,46.1557 ,1.05543 ,1.46569 ,14.38136 
254 ,46.3314 ,1.05735 ,1.44858 ,14.21346 
255 ,46.5079 ,1.05915 ,1.43489 ,14.07915 
256 ,46.6839 ,1.06085 ,1.43489 ,14.07915 
257 ,46.8594 ,1.06275 ,1.40409 ,13.77695 
258 ,47.0360 ,1.06437 ,1.38698 ,13.60906 
259 ,47.2439 ,1.06642 ,1.39040 ,13.64263 
260 ,47.4201 ,1.06827 ,1.38014 ,13.54190 
261 ,47.6122 ,1.07006 ,1.35618 ,13.30685 
262 ,47.7882 ,1.07190 ,1.33223 ,13.07180 
263 ,47.9644 ,1.07371 ,1.33565 ,13.10538 
264 ,48.1564 ,1.07560 ,1.31169 ,12.87033 
265 ,48.3325 ,1.07737 ,1.29116 ,12.66886 
266 ,48.5084 ,1.07913 ,1.28089 ,12.56813 
267 ,48.7165 ,1.08110 ,1.29458 ,12.70244 
268 ,48.8927 ,1.08295 ,1.25694 ,12.33308 
269 ,49.0688 ,1.08474 ,1.23298 ,12.09803 
270 ,49.2449 ,1.08649 ,1.22956 ,12.06445 
271 ,49.4210 ,1.08828 ,1.23641 ,12.13161 
272 ,49.6131 ,1.09015 ,1.19876 ,11.76225 
273 ,49.8050 ,1.09206 ,1.18850 ,11.66151 
274 ,49.9809 ,1.09378 ,1.19534 ,11.72867 
275 ,50.1573 ,1.09559 ,1.17138 ,11.49362 
276 ,50.3332 ,1.09735 ,1.14401 ,11.22500 
277 ,50.5092 ,1.09907 ,1.13716 ,11.15784 
278 ,50.6855 ,1.10088 ,1.13032 ,11.09068 
279 ,50.8612 ,1.10263 ,1.12005 ,10.98995 
280 ,51.0371 ,1.10435 ,1.10294 ,10.82206 
281 ,51.2132 ,1.10624 ,1.07899 ,10.58701 
282 ,51.3734 ,1.10784 ,1.05503 ,10.35196 
283 ,51.5495 ,1.10948 ,1.04819 ,10.28480 
284 ,51.7258 ,1.11131 ,1.04134 ,10.21765 
285 ,51.9180 ,1.11321 ,1.04476 ,10.25123 
286 ,52.1257 ,1.11519 ,1.02423 ,10.04976 
287 ,52.3021 ,1.11707 ,1.00712 ,9.88186 
288 ,52.4781 ,1.11878 ,0.99685 ,9.78113 
289 ,52.6543 ,1.12051 ,0.99001 ,9.71397 
290 ,52.8463 ,1.12246 ,0.95921 ,9.41177 
291 ,53.0384 ,1.12427 ,0.95921 ,9.41177 
292 ,53.2143 ,1.12624 ,0.93525 ,9.17672 
293 ,53.4065 ,1.12800 ,0.92157 ,9.04241 
294 ,53.5986 ,1.13000 ,0.91814 ,9.00883 
295 ,53.7746 ,1.13172 ,0.90446 ,8.87451 
296 ,53.9509 ,1.13353 ,0.89077 ,8.74020 
297 ,54.1429 ,1.13544 ,0.87708 ,8.60589 
298 ,54.3186 ,1.13720 ,0.85654 ,8.40442 
299 ,54.4948 ,1.13895 ,0.85312 ,8.37084 
300 ,54.6710 ,1.14070 ,0.83259 ,8.16937 
301 ,54.8472 ,1.14242 ,0.81890 ,8.03506 
302 ,55.0231 ,1.14420 ,0.81206 ,7.96790 
303 ,55.1994 ,1.14602 ,0.80521 ,7.90074 
304 ,55.3913 ,1.14791 ,0.78810 ,7.73285 
305 ,55.5675 ,1.14969 ,0.75388 ,7.39707 
306 ,55.7595 ,1.15160 ,0.77441 ,7.59854 
307 ,55.9357 ,1.15336 ,0.75388 ,7.39707 
308 ,56.1276 ,1.15526 ,0.71624 ,7.02771 
309 ,56.3036 ,1.15705 ,0.70939 ,6.96055 
310 ,56.4638 ,1.15874 ,0.71281 ,6.99413 
311 ,56.6396 ,1.16045 ,0.68544 ,6.72550 
312 ,56.8320 ,1.16227 ,0.67859 ,6.65835 
313 ,57.0077 ,1.16406 ,0.66490 ,6.52403 
314 ,57.1840 ,1.16586 ,0.64779 ,6.35614 
315 ,57.3762 ,1.16775 ,0.64095 ,6.28899 
316 ,57.5683 ,1.16959 ,0.62726 ,6.15467 
317 ,57.7441 ,1.17141 ,0.59646 ,5.85247 
318 ,57.9204 ,1.17317 ,0.58619 ,5.75173 
319 ,58.0967 ,1.17499 ,0.58277 ,5.71815 
320 ,58.2726 ,1.17670 ,0.58277 ,5.71815 
321 ,58.4486 ,1.17846 ,0.56908 ,5.58384 
322 ,58.6247 ,1.18020 ,0.53828 ,5.28164 
323 ,58.8168 ,1.18217 ,0.53828 ,5.28164 
324 ,58.9927 ,1.18391 ,0.53486 ,5.24806 
325 ,59.1690 ,1.18566 ,0.51775 ,5.08017 
326 ,59.3450 ,1.18743 ,0.49037 ,4.81154 
327 ,59.5208 ,1.18919 ,0.49037 ,4.81154 
328 ,59.7127 ,1.19103 ,0.47668 ,4.67723 
329 ,59.8892 ,1.19288 ,0.46642 ,4.57649 
330 ,60.0813 ,1.19479 ,0.43562 ,4.27429 
331 ,60.2573 ,1.19658 ,0.43220 ,4.24071 
332 ,60.4333 ,1.19832 ,0.43562 ,4.27429 
333 ,60.6091 ,1.20009 ,0.43220 ,4.24071 
334 ,60.7855 ,1.20181 ,0.40482 ,3.97208 
335 ,60.9937 ,1.20388 ,0.39455 ,3.87135 
336 ,61.2019 ,1.20585 ,0.36718 ,3.60272 
337 ,61.3935 ,1.20791 ,0.36033 ,3.53557 
338 ,61.5697 ,1.20964 ,0.35006 ,3.43483 
339 ,61.7459 ,1.21140 ,0.34664 ,3.40125 
340 ,61.9221 ,1.21320 ,0.31584 ,3.09905 
341 ,62.0982 ,1.21500 ,0.30215 ,2.96473 
342 ,62.2742 ,1.21671 ,0.30558 ,2.99831 
343 ,62.4662 ,1.21858 ,0.28162 ,2.76326 
344 ,62.6423 ,1.22041 ,0.27135 ,2.66253 
345 ,62.8183 ,1.22209 ,0.26793 ,2.62895 
346 ,63.0103 ,1.22401 ,0.26109 ,2.56179 
347 ,63.1863 ,1.22591 ,0.23713 ,2.32675 
348 ,63.3627 ,1.22761 ,0.22687 ,2.22601 
349 ,63.5386 ,1.22936 ,0.22344 ,2.19243 
350 ,63.7148 ,1.23112 ,0.21318 ,2.09170 
351 ,63.9068 ,1.23298 ,0.20633 ,2.02454 
352 ,64.0991 ,1.23491 ,0.17896 ,1.75592 
353 ,64.2750 ,1.23675 ,0.18238 ,1.78949 
354 ,64.4510 ,1.23847 ,0.16869 ,1.65518 
355 ,64.6432 ,1.24041 ,0.14473 ,1.42013 
356 ,64.8188 ,1.24213 ,0.14816 ,1.45371 
357 ,64.9955 ,1.24392 ,0.11393 ,1.11793 
358 ,65.1874 ,1.24571 ,0.12420 ,1.21866 
359 ,65.3794 ,1.24776 ,0.11051 ,1.08435 
360 ,65.5874 ,1.24966 ,0.09682 ,0.95004 
361 ,65.7636 ,1.25157 ,0.08314 ,0.81572 
362 ,65.9556 ,1.25350 ,0.07971 ,0.78214 
363 ,66.1476 ,1.25545 ,0.07287 ,0.71499 
364 ,66.3398 ,1.25723 ,0.04891 ,0.47994 
365 ,66.5319 ,1.25928 ,0.03522 ,0.34563 
366 ,66.7240 ,1.26122 ,0.03865 ,0.37920 
367 ,66.8997 ,1.26297 ,0.01469 ,0.14416 
368 ,67.0761 ,1.26474 ,-0.00584 ,-0.05731 
369 ,67.2841 ,1.26673 ,-0.01269 ,-0.12447 
370 ,67.4602 ,1.26853 ,-0.01611 ,-0.15805 
371 ,67.6364 ,1.27032 ,-0.03664 ,-0.35952 
372 ,67.8282 ,1.27217 ,-0.02295 ,-0.22520 
373 ,68.0041 ,1.27409 ,-0.06402 ,-0.62814 
374 ,68.1805 ,1.27577 ,-0.06060 ,-0.59457 
375 ,68.3887 ,1.27777 ,-0.06744 ,-0.66172 
376 ,68.5806 ,1.27976 ,-0.07771 ,-0.76246 
377 ,68.7888 ,1.28170 ,-0.08455 ,-0.82961 
378 ,68.9807 ,1.28377 ,-0.10851 ,-1.06466 
379 ,69.1569 ,1.28546 ,-0.12562 ,-1.23255 
380 ,69.3330 ,1.28730 ,-0.12904 ,-1.26613 
381 ,69.5092 ,1.28905 ,-0.13246 ,-1.29971 
382 ,69.6851 ,1.29080 ,-0.13246 ,-1.29971 
383 ,69.8613 ,1.29253 ,-0.15299 ,-1.50118 
384 ,70.0533 ,1.29444 ,-0.17695 ,-1.73623 
385 ,70.2294 ,1.29622 ,-0.18037 ,-1.76981 
386 ,70.4054 ,1.29801 ,-0.17353 ,-1.70265 
387 ,70.5813 ,1.29976 ,-0.19406 ,-1.90412 
388 ,70.7736 ,1.30157 ,-0.19748 ,-1.93770 
389 ,70.9497 ,1.30340 ,-0.20775 ,-2.03843 
390 ,71.1255 ,1.30514 ,-0.21459 ,-2.10559 
391 ,71.3179 ,1.30699 ,-0.21802 ,-2.13917 
392 ,71.5099 ,1.30897 ,-0.23513 ,-2.30706 
393 ,71.6857 ,1.31079 ,-0.22828 ,-2.23990 
394 ,71.8620 ,1.31251 ,-0.25224 ,-2.47495 
395 ,72.0379 ,1.31428 ,-0.25908 ,-2.54211 
396 ,72.2298 ,1.31616 ,-0.26250 ,-2.57569 
397 ,72.4063 ,1.31795 ,-0.27277 ,-2.67642 
398 ,72.5823 ,1.31976 ,-0.26250 ,-2.57569 
399 ,72.7585 ,1.32155 ,-0.29330 ,-2.87789 
400 ,72.9344 ,1.32333 ,-0.30699 ,-3.01220 
401 ,73.1105 ,1.32503 ,-0.32068 ,-3.14652 
402 ,73.3026 ,1.32693 ,-0.31726 ,-3.11294 
403 ,73.4788 ,1.32869 ,-0.32410 ,-3.18010 
404 ,73.6548 ,1.33050 ,-0.34464 ,-3.38156 
405 ,73.8467 ,1.33237 ,-0.34464 ,-3.38156 
406 ,74.0387 ,1.33426 ,-0.35832 ,-3.51588 
407 ,74.2150 ,1.33607 ,-0.36175 ,-3.54946 
408 ,74.4070 ,1.33792 ,-0.37886 ,-3.71735 
409 ,74.5832 ,1.33976 ,-0.38228 ,-3.75093 
410 ,74.7750 ,1.34167 ,-0.40281 ,-3.95240 
411 ,74.9513 ,1.34341 ,-0.41650 ,-4.08671 
412 ,75.1431 ,1.34535 ,-0.39597 ,-3.88524 
413 ,75.3353 ,1.34728 ,-0.41992 ,-4.12029 
414 ,75.5274 ,1.34922 ,-0.44388 ,-4.35534 
415 ,75.7196 ,1.35113 ,-0.44046 ,-4.32176 
416 ,75.8957 ,1.35292 ,-0.44730 ,-4.38891 
417 ,76.0878 ,1.35468 ,-0.47468 ,-4.65754 
418 ,76.2797 ,1.35671 ,-0.47126 ,-4.62396 
419 ,76.4553 ,1.35847 ,-0.48494 ,-4.75828 
420 ,76.6320 ,1.36023 ,-0.49521 ,-4.85901 
421 ,76.8081 ,1.36201 ,-0.50206 ,-4.92617 
422 ,76.9841 ,1.36375 ,-0.50548 ,-4.95975 
423 ,77.1763 ,1.36560 ,-0.51232 ,-5.02690 
424 ,77.3523 ,1.36746 ,-0.52259 ,-5.12764 
425 ,77.5284 ,1.36918 ,-0.54654 ,-5.36268 
426 ,77.7203 ,1.37114 ,-0.53970 ,-5.29553 
427 ,77.8966 ,1.37287 ,-0.54997 ,-5.39626 
428 ,78.0725 ,1.37462 ,-0.55339 ,-5.42984 
429 ,78.2484 ,1.37643 ,-0.59103 ,-5.79920 
430 ,78.4246 ,1.37815 ,-0.58761 ,-5.76562 
431 ,78.5846 ,1.37987 ,-0.57734 ,-5.66489 
432 ,78.7607 ,1.38147 ,-0.58419 ,-5.73205 
433 ,78.9369 ,1.38328 ,-0.58761 ,-5.76562 
434 ,79.1289 ,1.38520 ,-0.61499 ,-6.03425 
435 ,79.3210 ,1.38713 ,-0.61841 ,-6.06783 
436 ,79.4975 ,1.38892 ,-0.60472 ,-5.93352 
437 ,79.6891 ,1.39071 ,-0.65263 ,-6.40361 
438 ,79.8813 ,1.39271 ,-0.64921 ,-6.37003 
439 ,80.0731 ,1.39463 ,-0.65263 ,-6.40361 
440 ,80.2493 ,1.39638 ,-0.66290 ,-6.50435 
441 ,80.4255 ,1.39812 ,-0.67659 ,-6.63866 
442 ,80.6173 ,1.40003 ,-0.67659 ,-6.63866 
443 ,80.7938 ,1.40185 ,-0.68001 ,-6.67224 
444 ,80.9857 ,1.40377 ,-0.70739 ,-6.94086 
445 ,81.1617 ,1.40556 ,-0.70739 ,-6.94086 
446 ,81.3378 ,1.40724 ,-0.70396 ,-6.90729 
447 ,81.5299 ,1.40919 ,-0.71423 ,-7.00802 
448 ,81.7058 ,1.41089 ,-0.72792 ,-7.14233 
449 ,81.8821 ,1.41272 ,-0.74845 ,-7.34380 
450 ,82.0581 ,1.41450 ,-0.75530 ,-7.41096 
451 ,82.2343 ,1.41621 ,-0.74161 ,-7.27665 
452 ,82.4103 ,1.41801 ,-0.75187 ,-7.37738 
453 ,82.6185 ,1.41997 ,-0.78267 ,-7.67959 
454 ,82.7785 ,1.42180 ,-0.76556 ,-7.51170 
455 ,82.9546 ,1.42339 ,-0.78952 ,-7.74674 
456 ,83.1307 ,1.42526 ,-0.78610 ,-7.71317 
457 ,83.3224 ,1.42705 ,-0.81347 ,-7.98179 
458 ,83.4984 ,1.42887 ,-0.81689 ,-8.01537 
459 ,83.6746 ,1.43059 ,-0.81347 ,-7.98179 
460 ,83.8509 ,1.43237 ,-0.82374 ,-8.08253 
461 ,84.0267 ,1.43419 ,-0.83058 ,-8.14968 
462 ,84.2032 ,1.43593 ,-0.85112 ,-8.35115 
463 ,84.3951 ,1.43779 ,-0.84427 ,-8.28400 
