Data stamp = , 01-04-2022 20:12:00 996

Calibration Values: 
Slope = , 26.54 , g/V 
Offset Voltage at no contact = , -0.501760 , V 

No , Time , Stage Position ,   Mass , Force 
   ,  (s) ,      (mm)      ,   (g)  , (mN)  

1 ,0.0000 ,0.59946 ,5.36696 ,52.66062 
2 ,0.2286 ,0.59954 ,5.37723 ,52.76135 
3 ,0.6930 ,0.60094 ,5.37038 ,52.69420 
4 ,0.9008 ,0.60319 ,5.35669 ,52.55988 
5 ,1.0770 ,0.60499 ,5.37038 ,52.69420 
6 ,1.2531 ,0.60668 ,5.37381 ,52.72778 
7 ,1.4291 ,0.60847 ,5.38749 ,52.86209 
8 ,1.6049 ,0.61026 ,5.38749 ,52.86209 
9 ,1.7972 ,0.61207 ,5.38065 ,52.79493 
10 ,1.9734 ,0.61392 ,5.39092 ,52.89567 
11 ,2.1492 ,0.61570 ,5.36696 ,52.66062 
12 ,2.3258 ,0.61746 ,5.35327 ,52.52631 
13 ,2.5173 ,0.61943 ,5.32247 ,52.22410 
14 ,2.6932 ,0.62115 ,5.32932 ,52.29126 
15 ,2.8698 ,0.62287 ,5.32247 ,52.22410 
16 ,3.0460 ,0.62469 ,5.29852 ,51.98905 
17 ,3.2378 ,0.62659 ,5.27456 ,51.75401 
18 ,3.4141 ,0.62835 ,5.26087 ,51.61969 
19 ,3.6061 ,0.63015 ,5.24718 ,51.48538 
20 ,3.7982 ,0.63213 ,5.20954 ,51.11602 
21 ,3.9902 ,0.63405 ,5.18901 ,50.91455 
22 ,4.1664 ,0.63589 ,5.16848 ,50.71308 
23 ,4.3425 ,0.63764 ,5.15479 ,50.57876 
24 ,4.5186 ,0.63940 ,5.12741 ,50.31014 
25 ,4.7107 ,0.64128 ,5.14110 ,50.44445 
26 ,4.8867 ,0.64309 ,5.11372 ,50.17583 
27 ,5.0788 ,0.64501 ,5.07608 ,49.80646 
28 ,5.2709 ,0.64692 ,5.07608 ,49.80646 
29 ,5.4470 ,0.64867 ,5.05554 ,49.60499 
30 ,5.6388 ,0.65055 ,5.03159 ,49.36995 
31 ,5.8307 ,0.65243 ,5.02474 ,49.30279 
32 ,6.0069 ,0.65422 ,5.00421 ,49.10132 
33 ,6.1992 ,0.65615 ,4.97341 ,48.79911 
34 ,6.3752 ,0.65793 ,4.96315 ,48.69838 
35 ,6.5674 ,0.65989 ,4.94946 ,48.56407 
36 ,6.7595 ,0.66182 ,4.90839 ,48.16113 
37 ,6.9353 ,0.66354 ,4.90155 ,48.09397 
38 ,7.1275 ,0.66543 ,4.89470 ,48.02681 
39 ,7.3034 ,0.66721 ,4.86390 ,47.72461 
40 ,7.4956 ,0.66916 ,4.85364 ,47.62387 
41 ,7.6718 ,0.67091 ,4.82968 ,47.38883 
42 ,7.8478 ,0.67265 ,4.81257 ,47.22093 
43 ,8.0240 ,0.67441 ,4.77150 ,46.81800 
44 ,8.2001 ,0.67617 ,4.76466 ,46.75084 
45 ,8.3761 ,0.67797 ,4.76124 ,46.71726 
46 ,8.5682 ,0.67985 ,4.75097 ,46.61653 
47 ,8.7443 ,0.68163 ,4.71333 ,46.24716 
48 ,8.9364 ,0.68355 ,4.69964 ,46.11285 
49 ,9.1122 ,0.68536 ,4.68253 ,45.94496 
50 ,9.3044 ,0.68714 ,4.66884 ,45.81065 
51 ,9.4804 ,0.68897 ,4.63804 ,45.50844 
52 ,9.6567 ,0.69076 ,4.64488 ,45.57560 
53 ,9.8487 ,0.69267 ,4.61408 ,45.27339 
54 ,10.0245 ,0.69439 ,4.60040 ,45.13908 
55 ,10.2008 ,0.69622 ,4.57644 ,44.90403 
56 ,10.3930 ,0.69810 ,4.58671 ,45.00477 
57 ,10.5847 ,0.70008 ,4.54222 ,44.56825 
58 ,10.7611 ,0.70177 ,4.52169 ,44.36678 
59 ,10.9530 ,0.70364 ,4.51484 ,44.29962 
60 ,11.1293 ,0.70547 ,4.49773 ,44.13173 
61 ,11.3053 ,0.70722 ,4.45666 ,43.72879 
62 ,11.4814 ,0.70903 ,4.43955 ,43.56090 
63 ,11.6575 ,0.71075 ,4.43955 ,43.56090 
64 ,11.8335 ,0.71250 ,4.42586 ,43.42659 
65 ,12.0094 ,0.71423 ,4.40191 ,43.19154 
66 ,12.1857 ,0.71600 ,4.37795 ,42.95649 
67 ,12.3777 ,0.71782 ,4.35742 ,42.75502 
68 ,12.5539 ,0.71968 ,4.35742 ,42.75502 
69 ,12.7299 ,0.72149 ,4.32662 ,42.45282 
70 ,12.9058 ,0.72321 ,4.30267 ,42.21777 
71 ,13.0821 ,0.72500 ,4.28556 ,42.04988 
72 ,13.2580 ,0.72681 ,4.28556 ,42.04988 
73 ,13.4503 ,0.72868 ,4.25476 ,41.74767 
74 ,13.6422 ,0.73057 ,4.22738 ,41.47905 
75 ,13.8184 ,0.73235 ,4.21027 ,41.31115 
76 ,13.9945 ,0.73414 ,4.21369 ,41.34473 
77 ,14.1864 ,0.73604 ,4.17262 ,40.94179 
78 ,14.3786 ,0.73790 ,4.17262 ,40.94179 
79 ,14.5706 ,0.73988 ,4.14867 ,40.70674 
80 ,14.7627 ,0.74174 ,4.11787 ,40.40454 
81 ,14.9385 ,0.74354 ,4.12471 ,40.47170 
82 ,15.1150 ,0.74532 ,4.10418 ,40.27023 
83 ,15.3070 ,0.74720 ,4.06312 ,39.86729 
84 ,15.4827 ,0.74894 ,4.04600 ,39.69940 
85 ,15.6591 ,0.75073 ,4.03574 ,39.59866 
86 ,15.8351 ,0.75249 ,4.02205 ,39.46435 
87 ,16.0113 ,0.75421 ,3.99467 ,39.19572 
88 ,16.2034 ,0.75612 ,3.97072 ,38.96067 
89 ,16.3789 ,0.75799 ,3.96045 ,38.85994 
90 ,16.5554 ,0.75968 ,3.95018 ,38.75920 
91 ,16.7156 ,0.76141 ,3.92965 ,38.55773 
92 ,16.9076 ,0.76319 ,3.88858 ,38.15479 
93 ,17.0837 ,0.76500 ,3.88858 ,38.15479 
94 ,17.2758 ,0.76688 ,3.88174 ,38.08764 
95 ,17.4679 ,0.76892 ,3.84410 ,37.71828 
96 ,17.6440 ,0.77062 ,3.82014 ,37.48323 
97 ,17.8202 ,0.77240 ,3.81330 ,37.41607 
98 ,17.9960 ,0.77425 ,3.80303 ,37.31534 
99 ,18.1880 ,0.77594 ,3.78250 ,37.11387 
100 ,18.3642 ,0.77780 ,3.75512 ,36.84524 
101 ,18.5243 ,0.77950 ,3.74143 ,36.71093 
102 ,18.7002 ,0.78112 ,3.73117 ,36.61019 
103 ,18.8764 ,0.78293 ,3.72432 ,36.54303 
104 ,19.0524 ,0.78468 ,3.69352 ,36.24083 
105 ,19.2446 ,0.78650 ,3.66957 ,36.00578 
106 ,19.4684 ,0.78868 ,3.64903 ,35.80431 
107 ,19.6448 ,0.79058 ,3.63192 ,35.63642 
108 ,19.8367 ,0.79247 ,3.62166 ,35.53569 
109 ,20.0448 ,0.79450 ,3.59086 ,35.23348 
110 ,20.2208 ,0.79632 ,3.58059 ,35.13275 
111 ,20.4131 ,0.79827 ,3.56006 ,34.93128 
112 ,20.6046 ,0.80010 ,3.54979 ,34.83054 
113 ,20.7812 ,0.80196 ,3.53610 ,34.69623 
114 ,20.9571 ,0.80368 ,3.52926 ,34.62907 
115 ,21.1334 ,0.80549 ,3.50188 ,34.36045 
116 ,21.3257 ,0.80738 ,3.47792 ,34.12540 
117 ,21.5014 ,0.80918 ,3.46766 ,34.02466 
118 ,21.6774 ,0.81084 ,3.46081 ,33.95751 
119 ,21.8697 ,0.81279 ,3.43344 ,33.68888 
120 ,22.0457 ,0.81460 ,3.41290 ,33.48741 
121 ,22.2216 ,0.81638 ,3.40606 ,33.42025 
122 ,22.4139 ,0.81824 ,3.38895 ,33.25236 
123 ,22.5900 ,0.82005 ,3.36499 ,33.01731 
124 ,22.7660 ,0.82177 ,3.34104 ,32.78227 
125 ,22.9742 ,0.82375 ,3.33419 ,32.71511 
126 ,23.1661 ,0.82579 ,3.31024 ,32.48006 
127 ,23.3422 ,0.82751 ,3.31024 ,32.48006 
128 ,23.5185 ,0.82932 ,3.29655 ,32.34575 
129 ,23.6943 ,0.83107 ,3.28628 ,32.24501 
130 ,23.8705 ,0.83282 ,3.24180 ,31.80849 
131 ,24.0624 ,0.83473 ,3.24522 ,31.84207 
132 ,24.2387 ,0.83655 ,3.22811 ,31.67418 
133 ,24.4307 ,0.83834 ,3.20415 ,31.43913 
134 ,24.6227 ,0.84032 ,3.19731 ,31.37198 
135 ,24.7984 ,0.84223 ,3.16651 ,31.06977 
136 ,24.9749 ,0.84384 ,3.14940 ,30.90188 
137 ,25.1670 ,0.84581 ,3.12886 ,30.70041 
138 ,25.3749 ,0.84776 ,3.11860 ,30.59968 
139 ,25.5672 ,0.84976 ,3.09122 ,30.33105 
140 ,25.7427 ,0.85155 ,3.08438 ,30.26389 
141 ,25.9188 ,0.85333 ,3.08095 ,30.23031 
142 ,26.0949 ,0.85505 ,3.05700 ,29.99527 
143 ,26.2714 ,0.85684 ,3.02962 ,29.72664 
144 ,26.4956 ,0.85903 ,3.02620 ,29.69306 
145 ,26.6716 ,0.86086 ,3.00224 ,29.45801 
146 ,26.8474 ,0.86257 ,2.99540 ,29.39086 
147 ,27.0239 ,0.86436 ,2.97829 ,29.22297 
148 ,27.2157 ,0.86627 ,2.96118 ,29.05507 
149 ,27.4080 ,0.86813 ,2.94064 ,28.85360 
150 ,27.6001 ,0.87009 ,2.94407 ,28.88718 
151 ,27.7761 ,0.87188 ,2.92353 ,28.68571 
152 ,27.9358 ,0.87356 ,2.89273 ,28.38351 
153 ,28.1122 ,0.87522 ,2.88589 ,28.31635 
154 ,28.3042 ,0.87716 ,2.87220 ,28.18204 
155 ,28.4803 ,0.87888 ,2.86536 ,28.11488 
156 ,28.6562 ,0.88063 ,2.84140 ,27.87983 
157 ,28.8324 ,0.88239 ,2.82087 ,27.67836 
158 ,29.0082 ,0.88417 ,2.80718 ,27.54405 
159 ,29.1846 ,0.88598 ,2.79691 ,27.44332 
160 ,29.3928 ,0.88794 ,2.76269 ,27.10753 
161 ,29.5849 ,0.88987 ,2.75927 ,27.07395 
162 ,29.7769 ,0.89186 ,2.74900 ,26.97322 
163 ,29.9529 ,0.89361 ,2.73531 ,26.83891 
164 ,30.1291 ,0.89539 ,2.72163 ,26.70459 
165 ,30.3050 ,0.89723 ,2.71136 ,26.60386 
166 ,30.4812 ,0.89886 ,2.70452 ,26.53670 
167 ,30.6572 ,0.90071 ,2.68740 ,26.36881 
168 ,30.8494 ,0.90252 ,2.67029 ,26.20092 
169 ,31.0414 ,0.90443 ,2.65318 ,26.03303 
170 ,31.2172 ,0.90629 ,2.64634 ,25.96587 
171 ,31.4094 ,0.90816 ,2.61554 ,25.66367 
172 ,31.5859 ,0.90994 ,2.61212 ,25.63009 
173 ,31.7614 ,0.91170 ,2.60869 ,25.59651 
174 ,31.9376 ,0.91342 ,2.57789 ,25.29430 
175 ,32.1139 ,0.91524 ,2.55052 ,25.02568 
176 ,32.3060 ,0.91709 ,2.55394 ,25.05926 
177 ,32.4821 ,0.91895 ,2.55052 ,25.02568 
178 ,32.6581 ,0.92069 ,2.51287 ,24.65632 
179 ,32.8662 ,0.92271 ,2.50945 ,24.62274 
180 ,33.0262 ,0.92443 ,2.48892 ,24.42127 
181 ,33.2339 ,0.92628 ,2.46839 ,24.21980 
182 ,33.4104 ,0.92822 ,2.45127 ,24.05191 
183 ,33.5862 ,0.93007 ,2.44785 ,24.01833 
184 ,33.7626 ,0.93174 ,2.43074 ,23.85044 
185 ,33.9546 ,0.93354 ,2.41705 ,23.71612 
186 ,34.1466 ,0.93555 ,2.39994 ,23.54823 
187 ,34.3228 ,0.93730 ,2.39310 ,23.48108 
188 ,34.5145 ,0.93925 ,2.35203 ,23.07814 
189 ,34.6908 ,0.94095 ,2.34861 ,23.04456 
190 ,34.8669 ,0.94276 ,2.34519 ,23.01098 
191 ,35.0591 ,0.94466 ,2.31781 ,22.74235 
192 ,35.2828 ,0.94674 ,2.29728 ,22.54088 
193 ,35.4593 ,0.94869 ,2.28017 ,22.37299 
194 ,35.6511 ,0.95059 ,2.26990 ,22.27226 
195 ,35.8279 ,0.95235 ,2.26648 ,22.23868 
196 ,36.0194 ,0.95431 ,2.23568 ,21.93647 
197 ,36.1956 ,0.95605 ,2.22883 ,21.86932 
198 ,36.3715 ,0.95782 ,2.19461 ,21.53353 
199 ,36.5474 ,0.95955 ,2.20146 ,21.60069 
200 ,36.7398 ,0.96145 ,2.16723 ,21.26491 
201 ,36.9319 ,0.96331 ,2.15012 ,21.09702 
202 ,37.1239 ,0.96531 ,2.16381 ,21.23133 
203 ,37.2999 ,0.96703 ,2.13986 ,20.99628 
204 ,37.4757 ,0.96878 ,2.10564 ,20.66050 
205 ,37.6522 ,0.97056 ,2.09537 ,20.55976 
206 ,37.8603 ,0.97261 ,2.08510 ,20.45903 
207 ,38.0524 ,0.97462 ,2.06457 ,20.25756 
208 ,38.2603 ,0.97665 ,2.05088 ,20.12325 
209 ,38.4366 ,0.97843 ,2.03035 ,19.92178 
210 ,38.6287 ,0.98032 ,2.03035 ,19.92178 
211 ,38.8047 ,0.98210 ,2.02350 ,19.85462 
212 ,38.9806 ,0.98391 ,1.99955 ,19.61957 
213 ,39.1568 ,0.98564 ,1.97902 ,19.41810 
214 ,39.3325 ,0.98738 ,1.96875 ,19.31737 
215 ,39.5088 ,0.98913 ,1.95848 ,19.21663 
216 ,39.6688 ,0.99085 ,1.95506 ,19.18305 
217 ,39.8607 ,0.99264 ,1.92768 ,18.91443 
218 ,40.0371 ,0.99442 ,1.89346 ,18.57864 
219 ,40.2295 ,0.99628 ,1.91399 ,18.78011 
220 ,40.4213 ,0.99828 ,1.87293 ,18.37717 
221 ,40.5974 ,1.00004 ,1.86266 ,18.27644 
222 ,40.7895 ,1.00189 ,1.85924 ,18.24286 
223 ,40.9976 ,1.00398 ,1.83528 ,18.00781 
224 ,41.1737 ,1.00576 ,1.82844 ,17.94066 
225 ,41.3815 ,1.00777 ,1.82502 ,17.90708 
226 ,41.5578 ,1.00963 ,1.79080 ,17.57129 
227 ,41.7339 ,1.01137 ,1.77369 ,17.40340 
228 ,41.9095 ,1.01313 ,1.76684 ,17.33625 
229 ,42.0860 ,1.01493 ,1.77026 ,17.36983 
230 ,42.2621 ,1.01672 ,1.75315 ,17.20193 
231 ,42.4542 ,1.01850 ,1.71893 ,16.86615 
232 ,42.6301 ,1.02036 ,1.72578 ,16.93331 
233 ,42.8222 ,1.02229 ,1.70182 ,16.69826 
234 ,42.9980 ,1.02405 ,1.67444 ,16.42963 
235 ,43.1745 ,1.02578 ,1.66760 ,16.36248 
236 ,43.3504 ,1.02758 ,1.66075 ,16.29532 
237 ,43.5425 ,1.02949 ,1.65049 ,16.19458 
238 ,43.7505 ,1.03144 ,1.63338 ,16.02669 
239 ,43.9428 ,1.03348 ,1.61627 ,15.85880 
240 ,44.1347 ,1.03527 ,1.59573 ,15.65733 
241 ,44.3105 ,1.03715 ,1.58547 ,15.55660 
242 ,44.4869 ,1.03892 ,1.57862 ,15.48944 
243 ,44.6788 ,1.04083 ,1.54782 ,15.18724 
244 ,44.8548 ,1.04260 ,1.53756 ,15.08650 
245 ,45.0313 ,1.04435 ,1.53071 ,15.01934 
246 ,45.2234 ,1.04631 ,1.51018 ,14.81787 
247 ,45.3994 ,1.04806 ,1.49991 ,14.71714 
248 ,45.5754 ,1.04980 ,1.47938 ,14.51567 
249 ,45.7514 ,1.05158 ,1.48280 ,14.54925 
250 ,45.9432 ,1.05351 ,1.44516 ,14.17989 
251 ,46.1357 ,1.05529 ,1.45200 ,14.24704 
252 ,46.2956 ,1.05715 ,1.43489 ,14.07915 
253 ,46.4715 ,1.05874 ,1.41778 ,13.91126 
254 ,46.6958 ,1.06081 ,1.41094 ,13.84410 
255 ,46.8715 ,1.06273 ,1.39725 ,13.70979 
256 ,47.0320 ,1.06444 ,1.39040 ,13.64263 
257 ,47.2080 ,1.06611 ,1.36987 ,13.44116 
258 ,47.3837 ,1.06783 ,1.34249 ,13.17254 
259 ,47.5602 ,1.06958 ,1.33223 ,13.07180 
260 ,47.7362 ,1.07138 ,1.32196 ,12.97107 
261 ,47.9124 ,1.07315 ,1.31512 ,12.90391 
262 ,48.0883 ,1.07490 ,1.30827 ,12.83675 
263 ,48.2645 ,1.07670 ,1.29116 ,12.66886 
264 ,48.4407 ,1.07845 ,1.26720 ,12.43381 
265 ,48.6327 ,1.08025 ,1.25694 ,12.33308 
266 ,48.8088 ,1.08216 ,1.26036 ,12.36666 
267 ,49.0009 ,1.08401 ,1.23641 ,12.13161 
268 ,49.1607 ,1.08578 ,1.21587 ,11.93014 
269 ,49.3529 ,1.08750 ,1.21929 ,11.96372 
270 ,49.5289 ,1.08928 ,1.20903 ,11.86298 
271 ,49.7209 ,1.09111 ,1.18507 ,11.62794 
272 ,49.8970 ,1.09299 ,1.16454 ,11.42647 
273 ,50.0732 ,1.09477 ,1.16454 ,11.42647 
274 ,50.2654 ,1.09661 ,1.13716 ,11.15784 
275 ,50.4576 ,1.09862 ,1.11321 ,10.92279 
276 ,50.6334 ,1.10037 ,1.11663 ,10.95637 
277 ,50.8095 ,1.10207 ,1.11321 ,10.92279 
278 ,50.9856 ,1.10388 ,1.09952 ,10.78848 
279 ,51.1933 ,1.10591 ,1.07899 ,10.58701 
280 ,51.3699 ,1.10771 ,1.07556 ,10.55343 
281 ,51.5617 ,1.10967 ,1.03108 ,10.11691 
282 ,51.7539 ,1.11152 ,1.05503 ,10.35196 
283 ,51.9461 ,1.11337 ,1.04134 ,10.21765 
284 ,52.1381 ,1.11541 ,1.00028 ,9.81471 
285 ,52.3141 ,1.11716 ,1.00712 ,9.88186 
286 ,52.4902 ,1.11888 ,1.00028 ,9.81471 
287 ,52.6664 ,1.12066 ,0.97974 ,9.61324 
288 ,52.8584 ,1.12261 ,0.95237 ,9.34461 
289 ,53.0345 ,1.12440 ,0.95237 ,9.34461 
290 ,53.2103 ,1.12614 ,0.94894 ,9.31103 
291 ,53.4025 ,1.12797 ,0.92499 ,9.07598 
292 ,53.5786 ,1.12978 ,0.90446 ,8.87451 
293 ,53.7547 ,1.13153 ,0.91130 ,8.94167 
294 ,53.9309 ,1.13334 ,0.89419 ,8.77378 
295 ,54.1229 ,1.13522 ,0.88050 ,8.63947 
296 ,54.3149 ,1.13719 ,0.87708 ,8.60589 
297 ,54.5071 ,1.13907 ,0.85997 ,8.43800 
298 ,54.6830 ,1.14083 ,0.83943 ,8.23653 
299 ,54.9072 ,1.14283 ,0.83601 ,8.20295 
300 ,55.0832 ,1.14482 ,0.81206 ,7.96790 
301 ,55.2754 ,1.14679 ,0.81890 ,8.03506 
302 ,55.4510 ,1.14848 ,0.79837 ,7.83359 
303 ,55.6278 ,1.15029 ,0.77784 ,7.63212 
304 ,55.8195 ,1.15213 ,0.76415 ,7.49780 
305 ,55.9957 ,1.15393 ,0.74704 ,7.32991 
306 ,56.1557 ,1.15567 ,0.75046 ,7.36349 
307 ,56.3321 ,1.15734 ,0.73335 ,7.19560 
308 ,56.5077 ,1.15906 ,0.71966 ,7.06129 
309 ,56.6840 ,1.16087 ,0.70939 ,6.96055 
310 ,56.8759 ,1.16278 ,0.68201 ,6.69193 
311 ,57.0520 ,1.16447 ,0.68886 ,6.75908 
312 ,57.2281 ,1.16628 ,0.67175 ,6.59119 
313 ,57.4043 ,1.16804 ,0.65121 ,6.38972 
314 ,57.5960 ,1.17001 ,0.64779 ,6.35614 
315 ,57.7723 ,1.17173 ,0.63753 ,6.25541 
316 ,57.9485 ,1.17345 ,0.61699 ,6.05394 
317 ,58.1247 ,1.17527 ,0.59646 ,5.85247 
318 ,58.3167 ,1.17714 ,0.59646 ,5.85247 
319 ,58.4927 ,1.17890 ,0.57593 ,5.65100 
320 ,58.6685 ,1.18063 ,0.56566 ,5.55026 
321 ,58.8445 ,1.18241 ,0.54171 ,5.31522 
322 ,59.0206 ,1.18416 ,0.52802 ,5.18090 
323 ,59.1969 ,1.18597 ,0.52459 ,5.14732 
324 ,59.4051 ,1.18792 ,0.51433 ,5.04659 
325 ,59.5970 ,1.18986 ,0.49380 ,4.84512 
326 ,59.7731 ,1.19173 ,0.49037 ,4.81154 
327 ,59.9653 ,1.19355 ,0.48011 ,4.71081 
328 ,60.1413 ,1.19537 ,0.44931 ,4.40860 
329 ,60.3175 ,1.19716 ,0.44588 ,4.37502 
330 ,60.4933 ,1.19890 ,0.43562 ,4.27429 
331 ,60.6696 ,1.20069 ,0.42535 ,4.17355 
332 ,60.8297 ,1.20240 ,0.40482 ,3.97208 
333 ,61.0058 ,1.20403 ,0.38771 ,3.80419 
334 ,61.1979 ,1.20587 ,0.37744 ,3.70346 
335 ,61.3899 ,1.20788 ,0.37744 ,3.70346 
336 ,61.5661 ,1.20963 ,0.36375 ,3.56914 
337 ,61.7420 ,1.21139 ,0.33980 ,3.33410 
338 ,61.9179 ,1.21314 ,0.32953 ,3.23336 
339 ,62.1101 ,1.21509 ,0.32953 ,3.23336 
340 ,62.2862 ,1.21686 ,0.30900 ,3.03189 
341 ,62.4624 ,1.21860 ,0.29189 ,2.86400 
342 ,62.6385 ,1.22037 ,0.27478 ,2.69611 
343 ,62.8304 ,1.22229 ,0.28162 ,2.76326 
344 ,63.0066 ,1.22407 ,0.26451 ,2.59537 
345 ,63.1986 ,1.22594 ,0.24055 ,2.36032 
346 ,63.3748 ,1.22773 ,0.23371 ,2.29317 
347 ,63.5509 ,1.22951 ,0.23371 ,2.29317 
348 ,63.7427 ,1.23136 ,0.20976 ,2.05812 
349 ,63.9187 ,1.23315 ,0.20291 ,1.99096 
350 ,64.0951 ,1.23490 ,0.18922 ,1.85665 
351 ,64.2711 ,1.23671 ,0.18580 ,1.82307 
352 ,64.4473 ,1.23843 ,0.15842 ,1.55445 
353 ,64.6233 ,1.24022 ,0.15158 ,1.48729 
354 ,64.8154 ,1.24210 ,0.14816 ,1.45371 
355 ,65.0071 ,1.24398 ,0.12762 ,1.25224 
356 ,65.1835 ,1.24576 ,0.10367 ,1.01719 
357 ,65.3595 ,1.24758 ,0.08656 ,0.84930 
358 ,65.5516 ,1.24945 ,0.10709 ,1.05077 
359 ,65.7277 ,1.25122 ,0.07629 ,0.74857 
360 ,65.9038 ,1.25300 ,0.07287 ,0.71499 
361 ,66.0799 ,1.25472 ,0.04891 ,0.47994 
362 ,66.2719 ,1.25663 ,0.04549 ,0.44636 
363 ,66.4481 ,1.25845 ,0.03180 ,0.31205 
364 ,66.6241 ,1.26022 ,0.00785 ,0.07700 
365 ,66.8162 ,1.26216 ,0.01811 ,0.17773 
366 ,66.9919 ,1.26386 ,0.01127 ,0.11058 
367 ,67.1684 ,1.26561 ,-0.01611 ,-0.15805 
368 ,67.3443 ,1.26736 ,-0.01953 ,-0.19163 
369 ,67.5365 ,1.26920 ,-0.05375 ,-0.52741 
370 ,67.7125 ,1.27106 ,-0.03664 ,-0.35952 
371 ,67.8887 ,1.27285 ,-0.05033 ,-0.49383 
372 ,68.0963 ,1.27481 ,-0.07771 ,-0.76246 
373 ,68.2729 ,1.27669 ,-0.06744 ,-0.66172 
374 ,68.4647 ,1.27861 ,-0.09140 ,-0.89677 
375 ,68.6410 ,1.28039 ,-0.10851 ,-1.06466 
376 ,68.8330 ,1.28217 ,-0.12219 ,-1.19898 
377 ,69.0251 ,1.28419 ,-0.13246 ,-1.29971 
378 ,69.2170 ,1.28605 ,-0.14273 ,-1.40045 
379 ,69.3934 ,1.28787 ,-0.13246 ,-1.29971 
380 ,69.5693 ,1.28967 ,-0.13931 ,-1.36687 
381 ,69.7455 ,1.29137 ,-0.15984 ,-1.56834 
382 ,69.9217 ,1.29320 ,-0.17353 ,-1.70265 
383 ,70.1136 ,1.29508 ,-0.16668 ,-1.63549 
384 ,70.2736 ,1.29683 ,-0.18037 ,-1.76981 
385 ,70.4497 ,1.29846 ,-0.19064 ,-1.87054 
386 ,70.6419 ,1.30037 ,-0.21459 ,-2.10559 
387 ,70.8339 ,1.30217 ,-0.21117 ,-2.07201 
388 ,71.0099 ,1.30399 ,-0.21117 ,-2.07201 
389 ,71.2022 ,1.30590 ,-0.23855 ,-2.34064 
390 ,71.3782 ,1.30772 ,-0.24881 ,-2.44137 
391 ,71.5700 ,1.30956 ,-0.25224 ,-2.47495 
392 ,71.7459 ,1.31144 ,-0.25566 ,-2.50853 
393 ,71.9224 ,1.31317 ,-0.28304 ,-2.77716 
394 ,72.0983 ,1.31492 ,-0.29330 ,-2.87789 
395 ,72.2744 ,1.31667 ,-0.28304 ,-2.77716 
396 ,72.4504 ,1.31842 ,-0.28646 ,-2.81073 
397 ,72.6266 ,1.32020 ,-0.30357 ,-2.97863 
398 ,72.8026 ,1.32193 ,-0.32410 ,-3.18010 
399 ,72.9789 ,1.32371 ,-0.33095 ,-3.24725 
400 ,73.1546 ,1.32550 ,-0.33095 ,-3.24725 
401 ,73.3314 ,1.32721 ,-0.33779 ,-3.31441 
402 ,73.5231 ,1.32915 ,-0.36175 ,-3.54946 
403 ,73.7151 ,1.33110 ,-0.36175 ,-3.54946 
404 ,73.9073 ,1.33288 ,-0.37544 ,-3.68377 
405 ,74.0992 ,1.33492 ,-0.39255 ,-3.85166 
406 ,74.2753 ,1.33668 ,-0.38570 ,-3.78450 
407 ,74.4674 ,1.33860 ,-0.39939 ,-3.91882 
408 ,74.6432 ,1.34031 ,-0.41992 ,-4.12029 
409 ,74.8197 ,1.34210 ,-0.42335 ,-4.15387 
410 ,74.9956 ,1.34388 ,-0.43361 ,-4.25460 
411 ,75.1716 ,1.34566 ,-0.43019 ,-4.22102 
412 ,75.3955 ,1.34771 ,-0.45072 ,-4.42249 
413 ,75.5719 ,1.34962 ,-0.45757 ,-4.48965 
414 ,75.7639 ,1.35156 ,-0.47810 ,-4.69112 
415 ,75.9401 ,1.35336 ,-0.48152 ,-4.72470 
416 ,76.1323 ,1.35521 ,-0.48837 ,-4.79185 
417 ,76.3245 ,1.35719 ,-0.51574 ,-5.06048 
418 ,76.5160 ,1.35897 ,-0.51574 ,-5.06048 
419 ,76.6923 ,1.36083 ,-0.52259 ,-5.12764 
420 ,76.8684 ,1.36257 ,-0.52943 ,-5.19479 
421 ,77.0446 ,1.36436 ,-0.53970 ,-5.29553 
422 ,77.2207 ,1.36615 ,-0.54997 ,-5.39626 
423 ,77.4447 ,1.36824 ,-0.57392 ,-5.63131 
424 ,77.6047 ,1.37009 ,-0.57392 ,-5.63131 
425 ,77.7809 ,1.37169 ,-0.58419 ,-5.73205 
426 ,77.9729 ,1.37367 ,-0.56365 ,-5.53058 
427 ,78.1810 ,1.37560 ,-0.60130 ,-5.89994 
428 ,78.3730 ,1.37765 ,-0.58761 ,-5.76562 
429 ,78.5490 ,1.37936 ,-0.61156 ,-6.00067 
430 ,78.7253 ,1.38114 ,-0.62525 ,-6.13499 
431 ,78.9172 ,1.38310 ,-0.62868 ,-6.16856 
432 ,79.0933 ,1.38485 ,-0.62183 ,-6.10141 
433 ,79.2692 ,1.38657 ,-0.63552 ,-6.23572 
434 ,79.4455 ,1.38837 ,-0.65947 ,-6.47077 
435 ,79.6372 ,1.39023 ,-0.66290 ,-6.50435 
436 ,79.8134 ,1.39205 ,-0.66632 ,-6.53793 
437 ,80.0057 ,1.39393 ,-0.68685 ,-6.73940 
438 ,80.1818 ,1.39573 ,-0.69370 ,-6.80655 
439 ,80.3579 ,1.39749 ,-0.69370 ,-6.80655 
440 ,80.5499 ,1.39940 ,-0.70054 ,-6.87371 
441 ,80.7256 ,1.40118 ,-0.72107 ,-7.07518 
442 ,80.9020 ,1.40290 ,-0.72107 ,-7.07518 
443 ,81.0780 ,1.40469 ,-0.72450 ,-7.10876 
444 ,81.2540 ,1.40641 ,-0.72450 ,-7.10876 
445 ,81.4304 ,1.40822 ,-0.73476 ,-7.20949 
446 ,81.6060 ,1.41000 ,-0.75530 ,-7.41096 
447 ,81.7820 ,1.41172 ,-0.76214 ,-7.47812 
448 ,81.9582 ,1.41345 ,-0.76556 ,-7.51170 
449 ,82.1505 ,1.41537 ,-0.76214 ,-7.47812 
450 ,82.3269 ,1.41717 ,-0.78267 ,-7.67959 
451 ,82.5026 ,1.41896 ,-0.79294 ,-7.78032 
452 ,82.6785 ,1.42064 ,-0.78952 ,-7.74674 
453 ,82.8549 ,1.42240 ,-0.79636 ,-7.81390 
454 ,83.0309 ,1.42416 ,-0.81347 ,-7.98179 
455 ,83.2230 ,1.42604 ,-0.82374 ,-8.08253 
456 ,83.3988 ,1.42787 ,-0.83401 ,-8.18326 
457 ,83.5752 ,1.42964 ,-0.83058 ,-8.14968 
458 ,83.7510 ,1.43139 ,-0.84085 ,-8.25042 
459 ,83.9269 ,1.43323 ,-0.86138 ,-8.45189 
460 ,84.1033 ,1.43486 ,-0.88192 ,-8.65336 
461 ,84.2793 ,1.43665 ,-0.86823 ,-8.51904 
462 ,84.4555 ,1.43848 ,-0.87165 ,-8.55262 
463 ,84.6316 ,1.44017 ,-0.88876 ,-8.72051 
