Data stamp = , 03-04-2022 14:15:56 211

Calibration Values: 
Slope = , 26.54 , g/V 
Offset Voltage at no contact = , -0.501760 , V 

No , Time , Stage Position ,   Mass , Force 
   ,  (s) ,      (mm)      ,   (g)  , (mN)  

1 ,0.0000 ,0.59941 ,5.24718 ,51.48538 
2 ,0.2241 ,0.59948 ,5.25061 ,51.51896 
3 ,0.5442 ,0.60035 ,5.24376 ,51.45180 
4 ,0.7685 ,0.60199 ,5.26430 ,51.65327 
5 ,0.9605 ,0.60382 ,5.24034 ,51.41822 
6 ,1.1526 ,0.60566 ,5.24718 ,51.48538 
7 ,1.3287 ,0.60736 ,5.24718 ,51.48538 
8 ,1.5208 ,0.60930 ,5.24034 ,51.41822 
9 ,1.6966 ,0.61111 ,5.24034 ,51.41822 
10 ,1.8730 ,0.61284 ,5.22665 ,51.28391 
11 ,2.0811 ,0.61480 ,5.21639 ,51.18317 
12 ,2.2731 ,0.61690 ,5.18901 ,50.91455 
13 ,2.4652 ,0.61876 ,5.17874 ,50.81381 
14 ,2.6571 ,0.62071 ,5.17532 ,50.78023 
15 ,2.8330 ,0.62245 ,5.14794 ,50.51161 
16 ,3.0094 ,0.62429 ,5.14452 ,50.47803 
17 ,3.1853 ,0.62601 ,5.12056 ,50.24298 
18 ,3.3775 ,0.62793 ,5.12056 ,50.24298 
19 ,3.5535 ,0.62965 ,5.10688 ,50.10867 
20 ,3.7133 ,0.63143 ,5.07950 ,49.84004 
21 ,3.8737 ,0.63302 ,5.07608 ,49.80646 
22 ,4.0495 ,0.63466 ,5.07265 ,49.77289 
23 ,4.2259 ,0.63640 ,5.05554 ,49.60499 
24 ,4.4180 ,0.63823 ,5.05554 ,49.60499 
25 ,4.6101 ,0.64028 ,5.01448 ,49.20205 
26 ,4.8015 ,0.64213 ,5.01790 ,49.23563 
27 ,4.9778 ,0.64392 ,5.00079 ,49.06774 
28 ,5.1538 ,0.64564 ,5.00079 ,49.06774 
29 ,5.3299 ,0.64745 ,4.95288 ,48.59764 
30 ,5.5383 ,0.64946 ,4.94946 ,48.56407 
31 ,5.7144 ,0.65128 ,4.94603 ,48.53049 
32 ,5.8903 ,0.65303 ,4.90497 ,48.12755 
33 ,6.0665 ,0.65482 ,4.89812 ,48.06039 
34 ,6.2427 ,0.65656 ,4.88786 ,47.95966 
35 ,6.4188 ,0.65836 ,4.87759 ,47.85892 
36 ,6.5948 ,0.66013 ,4.85706 ,47.65745 
37 ,6.7709 ,0.66183 ,4.83310 ,47.42240 
38 ,6.9626 ,0.66373 ,4.81257 ,47.22093 
39 ,7.1393 ,0.66551 ,4.79546 ,47.05304 
40 ,7.3150 ,0.66728 ,4.79204 ,47.01946 
41 ,7.4909 ,0.66902 ,4.74413 ,46.54937 
42 ,7.6672 ,0.67081 ,4.72017 ,46.31432 
43 ,7.8432 ,0.67256 ,4.71675 ,46.28074 
44 ,8.0350 ,0.67437 ,4.69964 ,46.11285 
45 ,8.2113 ,0.67626 ,4.67911 ,45.91138 
46 ,8.4036 ,0.67819 ,4.65515 ,45.67633 
47 ,8.5955 ,0.67999 ,4.64146 ,45.54202 
48 ,8.7877 ,0.68193 ,4.61408 ,45.27339 
49 ,8.9796 ,0.68380 ,4.58328 ,44.97119 
50 ,9.1398 ,0.68562 ,4.58328 ,44.97119 
51 ,9.3159 ,0.68727 ,4.54906 ,44.63541 
52 ,9.4916 ,0.68906 ,4.53195 ,44.46751 
53 ,9.6681 ,0.69082 ,4.51142 ,44.26604 
54 ,9.8441 ,0.69259 ,4.50457 ,44.19889 
55 ,10.0361 ,0.69439 ,4.48746 ,44.03100 
56 ,10.2122 ,0.69636 ,4.44982 ,43.66163 
57 ,10.3880 ,0.69804 ,4.42929 ,43.46016 
58 ,10.5644 ,0.69980 ,4.41560 ,43.32585 
59 ,10.7724 ,0.70175 ,4.38822 ,43.05723 
60 ,10.9485 ,0.70359 ,4.37111 ,42.88933 
61 ,11.1406 ,0.70552 ,4.37795 ,42.95649 
62 ,11.3327 ,0.70735 ,4.36427 ,42.82218 
63 ,11.5248 ,0.70928 ,4.31978 ,42.38566 
64 ,11.7169 ,0.71129 ,4.31293 ,42.31850 
65 ,11.8930 ,0.71307 ,4.29924 ,42.18419 
66 ,12.0686 ,0.71483 ,4.26845 ,41.88198 
67 ,12.2607 ,0.71661 ,4.25133 ,41.71409 
68 ,12.4370 ,0.71849 ,4.23765 ,41.57978 
69 ,12.6132 ,0.72028 ,4.21711 ,41.37831 
70 ,12.7893 ,0.72200 ,4.19658 ,41.17684 
71 ,12.9652 ,0.72379 ,4.18974 ,41.10968 
72 ,13.1413 ,0.72550 ,4.17947 ,41.00895 
73 ,13.3173 ,0.72731 ,4.13840 ,40.60601 
74 ,13.4936 ,0.72907 ,4.13840 ,40.60601 
75 ,13.6857 ,0.73099 ,4.11787 ,40.40454 
76 ,13.8777 ,0.73290 ,4.10418 ,40.27023 
77 ,14.0537 ,0.73461 ,4.06996 ,39.93444 
78 ,14.2459 ,0.73647 ,4.06312 ,39.86729 
79 ,14.4214 ,0.73834 ,4.06654 ,39.90087 
80 ,14.5980 ,0.74010 ,4.03232 ,39.56508 
81 ,14.7899 ,0.74195 ,4.02205 ,39.46435 
82 ,14.9662 ,0.74381 ,3.98783 ,39.12856 
83 ,15.1421 ,0.74550 ,3.98441 ,39.09499 
84 ,15.3183 ,0.74732 ,3.95361 ,38.79278 
85 ,15.4940 ,0.74904 ,3.93650 ,38.62489 
86 ,15.6703 ,0.75080 ,3.92965 ,38.55773 
87 ,15.8626 ,0.75275 ,3.91596 ,38.42342 
88 ,16.0386 ,0.75450 ,3.89543 ,38.22195 
89 ,16.2627 ,0.75647 ,3.87147 ,37.98690 
90 ,16.4707 ,0.75875 ,3.85779 ,37.85259 
91 ,16.6468 ,0.76055 ,3.85436 ,37.81901 
92 ,16.8389 ,0.76243 ,3.82014 ,37.48323 
93 ,17.0309 ,0.76444 ,3.80303 ,37.31534 
94 ,17.2071 ,0.76618 ,3.79961 ,37.28176 
95 ,17.4312 ,0.76826 ,3.77565 ,37.04671 
96 ,17.6068 ,0.77027 ,3.76196 ,36.91240 
97 ,17.7833 ,0.77189 ,3.75170 ,36.81166 
98 ,17.9762 ,0.77376 ,3.71748 ,36.47588 
99 ,18.1675 ,0.77577 ,3.71063 ,36.40872 
100 ,18.3436 ,0.77749 ,3.68668 ,36.17367 
101 ,18.5195 ,0.77931 ,3.67983 ,36.10652 
102 ,18.6956 ,0.78100 ,3.64219 ,35.73716 
103 ,18.8718 ,0.78280 ,3.63534 ,35.67000 
104 ,19.0638 ,0.78468 ,3.61823 ,35.50211 
105 ,19.2398 ,0.78653 ,3.60112 ,35.33422 
106 ,19.4320 ,0.78826 ,3.58743 ,35.19990 
107 ,19.6238 ,0.79023 ,3.56348 ,34.96485 
108 ,19.7840 ,0.79204 ,3.54637 ,34.79696 
109 ,19.9762 ,0.79381 ,3.52584 ,34.59549 
110 ,20.1682 ,0.79567 ,3.52584 ,34.59549 
111 ,20.3444 ,0.79752 ,3.52241 ,34.56192 
112 ,20.5204 ,0.79931 ,3.46766 ,34.02466 
113 ,20.7126 ,0.80119 ,3.45739 ,33.92393 
114 ,20.9046 ,0.80307 ,3.45397 ,33.89035 
115 ,21.0806 ,0.80488 ,3.42317 ,33.58814 
116 ,21.2568 ,0.80667 ,3.40606 ,33.42025 
117 ,21.4328 ,0.80840 ,3.40606 ,33.42025 
118 ,21.6250 ,0.81024 ,3.38553 ,33.21878 
119 ,21.8166 ,0.81222 ,3.36157 ,32.98374 
120 ,21.9928 ,0.81402 ,3.34104 ,32.78227 
121 ,22.1691 ,0.81576 ,3.34446 ,32.81584 
122 ,22.3450 ,0.81748 ,3.33077 ,32.68153 
123 ,22.5213 ,0.81932 ,3.30339 ,32.41290 
124 ,22.7135 ,0.82120 ,3.29655 ,32.34575 
125 ,22.8891 ,0.82299 ,3.28286 ,32.21143 
126 ,23.0655 ,0.82474 ,3.25548 ,31.94281 
127 ,23.2576 ,0.82670 ,3.22811 ,31.67418 
128 ,23.4337 ,0.82846 ,3.22468 ,31.64060 
129 ,23.6257 ,0.83031 ,3.21784 ,31.57345 
130 ,23.8017 ,0.83207 ,3.19388 ,31.33840 
131 ,23.9778 ,0.83396 ,3.18704 ,31.27124 
132 ,24.1379 ,0.83554 ,3.18020 ,31.20409 
133 ,24.3141 ,0.83721 ,3.15966 ,31.00262 
134 ,24.4901 ,0.83900 ,3.14255 ,30.83472 
135 ,24.6662 ,0.84073 ,3.12886 ,30.70041 
136 ,24.8581 ,0.84263 ,3.08438 ,30.26389 
137 ,25.0343 ,0.84438 ,3.09806 ,30.39821 
138 ,25.2101 ,0.84617 ,3.08780 ,30.29747 
139 ,25.3863 ,0.84792 ,3.06726 ,30.09600 
140 ,25.5625 ,0.84968 ,3.02962 ,29.72664 
141 ,25.7386 ,0.85145 ,3.01593 ,29.59233 
142 ,25.9146 ,0.85321 ,3.00567 ,29.49159 
143 ,26.0903 ,0.85497 ,3.01251 ,29.55875 
144 ,26.2668 ,0.85675 ,2.99882 ,29.42444 
145 ,26.4589 ,0.85862 ,2.97487 ,29.18939 
146 ,26.6507 ,0.86051 ,2.95433 ,28.98792 
147 ,26.8106 ,0.86226 ,2.94407 ,28.88718 
148 ,26.9870 ,0.86392 ,2.94064 ,28.85360 
149 ,27.1791 ,0.86579 ,2.91669 ,28.61856 
150 ,27.3553 ,0.86758 ,2.90300 ,28.48424 
151 ,27.5310 ,0.86945 ,2.87905 ,28.24919 
152 ,27.7074 ,0.87112 ,2.87905 ,28.24919 
153 ,27.8832 ,0.87290 ,2.84825 ,27.94699 
154 ,28.0754 ,0.87478 ,2.83798 ,27.84625 
155 ,28.2514 ,0.87652 ,2.83114 ,27.77910 
156 ,28.4276 ,0.87832 ,2.81745 ,27.64479 
157 ,28.6033 ,0.88007 ,2.78322 ,27.30900 
158 ,28.7794 ,0.88185 ,2.76611 ,27.14111 
159 ,28.9553 ,0.88363 ,2.75243 ,27.00680 
160 ,29.1315 ,0.88536 ,2.75927 ,27.07395 
161 ,29.3075 ,0.88714 ,2.74216 ,26.90606 
162 ,29.4841 ,0.88889 ,2.70794 ,26.57028 
163 ,29.6761 ,0.89087 ,2.71478 ,26.63744 
164 ,29.8521 ,0.89258 ,2.68056 ,26.30165 
165 ,30.0283 ,0.89430 ,2.66687 ,26.16734 
166 ,30.2202 ,0.89627 ,2.64634 ,25.96587 
167 ,30.3805 ,0.89797 ,2.64634 ,25.96587 
168 ,30.5566 ,0.89957 ,2.63265 ,25.83156 
169 ,30.7326 ,0.90138 ,2.62238 ,25.73082 
170 ,30.9248 ,0.90317 ,2.59843 ,25.49577 
171 ,31.1169 ,0.90522 ,2.59501 ,25.46220 
172 ,31.3089 ,0.90712 ,2.56763 ,25.19357 
173 ,31.4849 ,0.90886 ,2.54710 ,24.99210 
174 ,31.6610 ,0.91068 ,2.52314 ,24.75705 
175 ,31.8690 ,0.91268 ,2.51287 ,24.65632 
176 ,32.0452 ,0.91449 ,2.50945 ,24.62274 
177 ,32.2373 ,0.91635 ,2.49576 ,24.48842 
178 ,32.4131 ,0.91819 ,2.49234 ,24.45485 
179 ,32.5895 ,0.91992 ,2.46154 ,24.15264 
180 ,32.7816 ,0.92185 ,2.43074 ,23.85044 
181 ,32.9576 ,0.92364 ,2.44101 ,23.95117 
182 ,33.1333 ,0.92531 ,2.43074 ,23.85044 
183 ,33.3094 ,0.92715 ,2.42048 ,23.74970 
184 ,33.4853 ,0.92886 ,2.38283 ,23.38034 
185 ,33.6616 ,0.93062 ,2.35888 ,23.14529 
186 ,33.8376 ,0.93243 ,2.34861 ,23.04456 
187 ,34.0137 ,0.93416 ,2.34861 ,23.04456 
188 ,34.1898 ,0.93590 ,2.32808 ,22.84309 
189 ,34.3823 ,0.93781 ,2.32123 ,22.77593 
190 ,34.5579 ,0.93964 ,2.29728 ,22.54088 
191 ,34.7343 ,0.94141 ,2.29385 ,22.50731 
192 ,34.9263 ,0.94324 ,2.27674 ,22.33941 
193 ,35.0860 ,0.94498 ,2.25621 ,22.13794 
194 ,35.2784 ,0.94676 ,2.24594 ,22.03721 
195 ,35.4705 ,0.94869 ,2.23226 ,21.90290 
196 ,35.6463 ,0.95047 ,2.19803 ,21.56711 
197 ,35.8222 ,0.95224 ,2.20146 ,21.60069 
198 ,35.9987 ,0.95401 ,2.18435 ,21.43280 
199 ,36.1751 ,0.95575 ,2.17408 ,21.33206 
200 ,36.3510 ,0.95751 ,2.15012 ,21.09702 
201 ,36.5430 ,0.95945 ,2.13301 ,20.92912 
202 ,36.7028 ,0.96114 ,2.12617 ,20.86197 
203 ,36.8794 ,0.96285 ,2.11248 ,20.72766 
204 ,37.0715 ,0.96476 ,2.08168 ,20.42545 
205 ,37.2634 ,0.96656 ,2.06799 ,20.29114 
206 ,37.4396 ,0.96843 ,2.06799 ,20.29114 
207 ,37.6315 ,0.97032 ,2.05088 ,20.12325 
208 ,37.7911 ,0.97201 ,2.03035 ,19.92178 
209 ,37.9682 ,0.97371 ,2.02008 ,19.82104 
210 ,38.1438 ,0.97545 ,1.99270 ,19.55241 
211 ,38.3197 ,0.97723 ,1.99613 ,19.58599 
212 ,38.4959 ,0.97895 ,1.98928 ,19.51884 
213 ,38.6558 ,0.98067 ,1.95848 ,19.21663 
214 ,38.8318 ,0.98235 ,1.94822 ,19.11590 
215 ,39.0081 ,0.98411 ,1.92768 ,18.91443 
216 ,39.1842 ,0.98585 ,1.92426 ,18.88085 
217 ,39.3762 ,0.98768 ,1.90715 ,18.71296 
218 ,39.5681 ,0.98964 ,1.88662 ,18.51149 
219 ,39.7445 ,0.99144 ,1.87635 ,18.41075 
220 ,39.9202 ,0.99322 ,1.86608 ,18.31002 
221 ,40.0966 ,0.99500 ,1.85582 ,18.20928 
222 ,40.2887 ,0.99690 ,1.82844 ,17.94066 
223 ,40.4648 ,0.99863 ,1.84213 ,18.07497 
224 ,40.6407 ,1.00048 ,1.80791 ,17.73919 
225 ,40.8168 ,1.00210 ,1.78737 ,17.53772 
226 ,40.9926 ,1.00392 ,1.77026 ,17.36983 
227 ,41.1528 ,1.00564 ,1.74973 ,17.16836 
228 ,41.3130 ,1.00724 ,1.73946 ,17.06762 
229 ,41.4892 ,1.00886 ,1.73946 ,17.06762 
230 ,41.6810 ,1.01074 ,1.73262 ,17.00046 
231 ,41.8573 ,1.01255 ,1.70524 ,16.73184 
232 ,42.0492 ,1.01443 ,1.68813 ,16.56395 
233 ,42.2415 ,1.01635 ,1.69155 ,16.59752 
234 ,42.4495 ,1.01844 ,1.65049 ,16.19458 
235 ,42.6414 ,1.02033 ,1.65733 ,16.26174 
236 ,42.8178 ,1.02214 ,1.64707 ,16.16101 
237 ,42.9938 ,1.02393 ,1.61627 ,15.85880 
238 ,43.1698 ,1.02581 ,1.60942 ,15.79164 
239 ,43.3457 ,1.02742 ,1.60258 ,15.72449 
240 ,43.5220 ,1.02919 ,1.59573 ,15.65733 
241 ,43.6980 ,1.03103 ,1.57520 ,15.45586 
242 ,43.8743 ,1.03274 ,1.55809 ,15.28797 
243 ,44.0502 ,1.03453 ,1.53071 ,15.01934 
244 ,44.2261 ,1.03622 ,1.52729 ,14.98577 
245 ,44.4024 ,1.03797 ,1.52387 ,14.95219 
246 ,44.5944 ,1.03989 ,1.49307 ,14.64998 
247 ,44.7865 ,1.04182 ,1.48965 ,14.61640 
248 ,44.9629 ,1.04364 ,1.47596 ,14.48209 
249 ,45.1385 ,1.04539 ,1.45200 ,14.24704 
250 ,45.3145 ,1.04720 ,1.43831 ,14.11273 
251 ,45.4907 ,1.04889 ,1.42120 ,13.94484 
252 ,45.6669 ,1.05064 ,1.42462 ,13.97842 
253 ,45.8589 ,1.05250 ,1.39040 ,13.64263 
254 ,46.0348 ,1.05434 ,1.38014 ,13.54190 
255 ,46.2110 ,1.05612 ,1.36303 ,13.37401 
256 ,46.3870 ,1.05798 ,1.36987 ,13.44116 
257 ,46.5633 ,1.05963 ,1.36303 ,13.37401 
258 ,46.7551 ,1.06152 ,1.32538 ,13.00465 
259 ,46.9474 ,1.06346 ,1.34249 ,13.17254 
260 ,47.1233 ,1.06527 ,1.31854 ,12.93749 
261 ,47.2995 ,1.06695 ,1.28432 ,12.60171 
262 ,47.4916 ,1.06885 ,1.27747 ,12.53455 
263 ,47.6996 ,1.07091 ,1.26036 ,12.36666 
264 ,47.8757 ,1.07273 ,1.24325 ,12.19877 
265 ,48.0516 ,1.07447 ,1.23298 ,12.09803 
266 ,48.2439 ,1.07633 ,1.21245 ,11.89656 
267 ,48.4197 ,1.07814 ,1.20218 ,11.79583 
268 ,48.5961 ,1.07998 ,1.17823 ,11.56078 
269 ,48.7882 ,1.08186 ,1.19192 ,11.69509 
270 ,48.9642 ,1.08365 ,1.17481 ,11.52720 
271 ,49.1398 ,1.08537 ,1.15770 ,11.35931 
272 ,49.3163 ,1.08715 ,1.12690 ,11.05710 
273 ,49.4922 ,1.08893 ,1.11663 ,10.95637 
274 ,49.6840 ,1.09081 ,1.11663 ,10.95637 
275 ,49.8605 ,1.09258 ,1.09267 ,10.72132 
276 ,50.0364 ,1.09432 ,1.07556 ,10.55343 
277 ,50.1965 ,1.09604 ,1.08925 ,10.68774 
278 ,50.3887 ,1.09783 ,1.06187 ,10.41912 
279 ,50.5646 ,1.09964 ,1.05503 ,10.35196 
280 ,50.7568 ,1.10148 ,1.04476 ,10.25123 
281 ,50.9488 ,1.10340 ,1.03450 ,10.15049 
282 ,51.1247 ,1.10516 ,1.01054 ,9.91544 
283 ,51.3010 ,1.10698 ,0.99685 ,9.78113 
284 ,51.4772 ,1.10875 ,0.96948 ,9.51250 
285 ,51.6690 ,1.11056 ,0.97974 ,9.61324 
286 ,51.8614 ,1.11255 ,0.94894 ,9.31103 
287 ,52.0855 ,1.11462 ,0.92841 ,9.10956 
288 ,52.2933 ,1.11678 ,0.93183 ,9.14314 
289 ,52.4856 ,1.11879 ,0.91472 ,8.97525 
290 ,52.6614 ,1.12055 ,0.89419 ,8.77378 
291 ,52.8377 ,1.12233 ,0.88392 ,8.67305 
292 ,53.0137 ,1.12413 ,0.87366 ,8.57231 
293 ,53.1899 ,1.12585 ,0.87708 ,8.60589 
294 ,53.3818 ,1.12775 ,0.83259 ,8.16937 
295 ,53.5580 ,1.12956 ,0.81890 ,8.03506 
296 ,53.7181 ,1.13124 ,0.83259 ,8.16937 
297 ,53.8938 ,1.13286 ,0.81206 ,7.96790 
298 ,54.0702 ,1.13463 ,0.80863 ,7.93432 
299 ,54.2462 ,1.13637 ,0.78810 ,7.73285 
300 ,54.4222 ,1.13815 ,0.76415 ,7.49780 
301 ,54.5982 ,1.13994 ,0.75388 ,7.39707 
302 ,54.7746 ,1.14173 ,0.75388 ,7.39707 
303 ,54.9506 ,1.14355 ,0.74019 ,7.26276 
304 ,55.1266 ,1.14519 ,0.73677 ,7.22918 
305 ,55.3187 ,1.14714 ,0.71624 ,7.02771 
306 ,55.5106 ,1.14908 ,0.71281 ,6.99413 
307 ,55.7025 ,1.15096 ,0.69228 ,6.79266 
308 ,55.8790 ,1.15266 ,0.67859 ,6.65835 
309 ,56.0549 ,1.15460 ,0.67517 ,6.62477 
310 ,56.2470 ,1.15637 ,0.64095 ,6.28899 
311 ,56.4231 ,1.15817 ,0.63753 ,6.25541 
312 ,56.5991 ,1.15992 ,0.62726 ,6.15467 
313 ,56.7754 ,1.16169 ,0.63068 ,6.18825 
314 ,56.9673 ,1.16363 ,0.61357 ,6.02036 
315 ,57.1432 ,1.16537 ,0.58619 ,5.75173 
316 ,57.3355 ,1.16721 ,0.59304 ,5.81889 
317 ,57.5116 ,1.16903 ,0.58277 ,5.71815 
318 ,57.7034 ,1.17096 ,0.55197 ,5.41595 
319 ,57.8957 ,1.17291 ,0.55882 ,5.48311 
320 ,58.0717 ,1.17464 ,0.53144 ,5.21448 
321 ,58.2479 ,1.17644 ,0.52802 ,5.18090 
322 ,58.4400 ,1.17830 ,0.51433 ,5.04659 
323 ,58.6160 ,1.18011 ,0.50748 ,4.97943 
324 ,58.7920 ,1.18183 ,0.49722 ,4.87870 
325 ,58.9842 ,1.18367 ,0.49037 ,4.81154 
326 ,59.1758 ,1.18569 ,0.46984 ,4.61007 
327 ,59.3523 ,1.18743 ,0.46984 ,4.61007 
328 ,59.5283 ,1.18919 ,0.43562 ,4.27429 
329 ,59.7363 ,1.19110 ,0.42535 ,4.17355 
330 ,59.9125 ,1.19305 ,0.42535 ,4.17355 
331 ,60.1207 ,1.19499 ,0.41509 ,4.07282 
332 ,60.2966 ,1.19690 ,0.39113 ,3.83777 
333 ,60.4888 ,1.19869 ,0.38429 ,3.77061 
334 ,60.6648 ,1.20057 ,0.36375 ,3.56914 
335 ,60.8410 ,1.20235 ,0.36718 ,3.60272 
336 ,61.0168 ,1.20406 ,0.35691 ,3.50199 
337 ,61.1932 ,1.20585 ,0.35006 ,3.43483 
338 ,61.3850 ,1.20769 ,0.33295 ,3.26694 
339 ,61.5612 ,1.20948 ,0.33295 ,3.26694 
340 ,61.7373 ,1.21124 ,0.32611 ,3.19978 
341 ,61.8975 ,1.21299 ,0.30900 ,3.03189 
342 ,62.0735 ,1.21463 ,0.29189 ,2.86400 
343 ,62.2655 ,1.21646 ,0.27478 ,2.69611 
344 ,62.4577 ,1.21849 ,0.27135 ,2.66253 
345 ,62.6336 ,1.22025 ,0.26451 ,2.59537 
346 ,62.8099 ,1.22199 ,0.24740 ,2.42748 
347 ,63.0018 ,1.22385 ,0.24398 ,2.39390 
348 ,63.1779 ,1.22573 ,0.23371 ,2.29317 
349 ,63.3539 ,1.22744 ,0.20633 ,2.02454 
350 ,63.5301 ,1.22920 ,0.19264 ,1.89023 
351 ,63.7058 ,1.23096 ,0.18580 ,1.82307 
352 ,63.8819 ,1.23268 ,0.17896 ,1.75592 
353 ,64.0584 ,1.23454 ,0.17553 ,1.72234 
354 ,64.2505 ,1.23644 ,0.16185 ,1.58802 
355 ,64.4263 ,1.23821 ,0.14131 ,1.38655 
356 ,64.6184 ,1.24010 ,0.13447 ,1.31940 
357 ,64.8107 ,1.24195 ,0.12078 ,1.18508 
358 ,65.0028 ,1.24386 ,0.10025 ,0.98361 
359 ,65.1788 ,1.24571 ,0.11393 ,1.11793 
360 ,65.3544 ,1.24743 ,0.08656 ,0.84930 
361 ,65.5304 ,1.24921 ,0.06945 ,0.68141 
362 ,65.7065 ,1.25098 ,0.05918 ,0.58067 
363 ,65.8829 ,1.25277 ,0.06945 ,0.68141 
364 ,66.1070 ,1.25496 ,0.03865 ,0.37920 
365 ,66.2833 ,1.25673 ,0.03180 ,0.31205 
366 ,66.4756 ,1.25867 ,0.03180 ,0.31205 
367 ,66.6510 ,1.26052 ,0.00443 ,0.04342 
368 ,66.8275 ,1.26217 ,-0.00584 ,-0.05731 
369 ,67.0036 ,1.26393 ,0.00443 ,0.04342 
370 ,67.1956 ,1.26590 ,-0.00242 ,-0.02373 
371 ,67.3877 ,1.26772 ,-0.03322 ,-0.32594 
372 ,67.5638 ,1.26953 ,-0.03322 ,-0.32594 
373 ,67.7398 ,1.27140 ,-0.04691 ,-0.46025 
374 ,67.9158 ,1.27301 ,-0.06060 ,-0.59457 
375 ,68.0920 ,1.27482 ,-0.07771 ,-0.76246 
376 ,68.2682 ,1.27663 ,-0.08797 ,-0.86319 
377 ,68.4440 ,1.27835 ,-0.07428 ,-0.72888 
378 ,68.6202 ,1.28013 ,-0.09824 ,-0.96393 
379 ,68.7962 ,1.28180 ,-0.10851 ,-1.06466 
380 ,68.9730 ,1.28361 ,-0.12562 ,-1.23255 
381 ,69.1482 ,1.28542 ,-0.12904 ,-1.26613 
382 ,69.3242 ,1.28712 ,-0.11877 ,-1.16540 
383 ,69.5007 ,1.28889 ,-0.12904 ,-1.26613 
384 ,69.6926 ,1.29074 ,-0.16326 ,-1.60191 
385 ,69.8687 ,1.29260 ,-0.17011 ,-1.66907 
386 ,70.0449 ,1.29430 ,-0.17011 ,-1.66907 
387 ,70.2210 ,1.29615 ,-0.18037 ,-1.76981 
388 ,70.3968 ,1.29785 ,-0.18379 ,-1.80338 
389 ,70.5732 ,1.29964 ,-0.20433 ,-2.00485 
390 ,70.7813 ,1.30161 ,-0.21802 ,-2.13917 
391 ,70.9893 ,1.30367 ,-0.21459 ,-2.10559 
392 ,71.1813 ,1.30569 ,-0.22486 ,-2.20632 
393 ,71.3575 ,1.30749 ,-0.25566 ,-2.50853 
394 ,71.5496 ,1.30935 ,-0.24881 ,-2.44137 
395 ,71.7256 ,1.31113 ,-0.25224 ,-2.47495 
396 ,71.9173 ,1.31302 ,-0.27277 ,-2.67642 
397 ,72.1098 ,1.31488 ,-0.28304 ,-2.77716 
398 ,72.3015 ,1.31689 ,-0.28646 ,-2.81073 
399 ,72.4782 ,1.31862 ,-0.31041 ,-3.04578 
400 ,72.6858 ,1.32068 ,-0.30015 ,-2.94505 
401 ,72.8780 ,1.32262 ,-0.32410 ,-3.18010 
402 ,73.0539 ,1.32441 ,-0.33095 ,-3.24725 
403 ,73.2300 ,1.32614 ,-0.35490 ,-3.48230 
404 ,73.4222 ,1.32798 ,-0.34121 ,-3.34799 
405 ,73.6144 ,1.33002 ,-0.35832 ,-3.51588 
406 ,73.7903 ,1.33178 ,-0.36517 ,-3.58303 
407 ,73.9665 ,1.33352 ,-0.36175 ,-3.54946 
408 ,74.1426 ,1.33534 ,-0.37201 ,-3.65019 
409 ,74.3347 ,1.33716 ,-0.40281 ,-3.95240 
410 ,74.5267 ,1.33907 ,-0.37886 ,-3.71735 
411 ,74.7187 ,1.34105 ,-0.40966 ,-4.01955 
412 ,74.8949 ,1.34282 ,-0.42335 ,-4.15387 
413 ,75.0866 ,1.34467 ,-0.40966 ,-4.01955 
414 ,75.2630 ,1.34649 ,-0.42677 ,-4.18744 
415 ,75.4390 ,1.34830 ,-0.44388 ,-4.35534 
416 ,75.6151 ,1.35006 ,-0.46099 ,-4.52323 
417 ,75.7913 ,1.35174 ,-0.45414 ,-4.45607 
418 ,75.9674 ,1.35354 ,-0.46099 ,-4.52323 
419 ,76.1589 ,1.35553 ,-0.47810 ,-4.69112 
420 ,76.3355 ,1.35723 ,-0.50206 ,-4.92617 
421 ,76.5274 ,1.35905 ,-0.48837 ,-4.79185 
422 ,76.7035 ,1.36091 ,-0.49179 ,-4.82543 
423 ,76.8797 ,1.36267 ,-0.50890 ,-4.99332 
424 ,77.0878 ,1.36464 ,-0.50890 ,-4.99332 
425 ,77.2797 ,1.36666 ,-0.53628 ,-5.26195 
426 ,77.4560 ,1.36841 ,-0.54312 ,-5.32911 
427 ,77.6317 ,1.37019 ,-0.54312 ,-5.32911 
428 ,77.8080 ,1.37187 ,-0.54312 ,-5.32911 
429 ,78.0000 ,1.37382 ,-0.57050 ,-5.59773 
430 ,78.1762 ,1.37561 ,-0.58077 ,-5.69847 
431 ,78.3683 ,1.37754 ,-0.56365 ,-5.53058 
432 ,78.5603 ,1.37942 ,-0.59445 ,-5.83278 
433 ,78.7365 ,1.38121 ,-0.59788 ,-5.86636 
434 ,78.9125 ,1.38299 ,-0.59103 ,-5.79920 
435 ,79.0885 ,1.38471 ,-0.59103 ,-5.79920 
436 ,79.2803 ,1.38656 ,-0.61841 ,-6.06783 
437 ,79.4567 ,1.38841 ,-0.63210 ,-6.20214 
438 ,79.6648 ,1.39042 ,-0.64579 ,-6.33646 
439 ,79.8244 ,1.39223 ,-0.64921 ,-6.37003 
440 ,79.9846 ,1.39382 ,-0.65263 ,-6.40361 
441 ,80.1446 ,1.39539 ,-0.66632 ,-6.53793 
442 ,80.3207 ,1.39701 ,-0.66974 ,-6.57150 
443 ,80.4968 ,1.39879 ,-0.69027 ,-6.77297 
444 ,80.6728 ,1.40058 ,-0.67316 ,-6.60508 
445 ,80.8489 ,1.40227 ,-0.67316 ,-6.60508 
446 ,81.0250 ,1.40409 ,-0.69027 ,-6.77297 
447 ,81.2012 ,1.40581 ,-0.71081 ,-6.97444 
448 ,81.3772 ,1.40762 ,-0.72450 ,-7.10876 
449 ,81.5532 ,1.40935 ,-0.73476 ,-7.20949 
450 ,81.7293 ,1.41112 ,-0.71765 ,-7.04160 
451 ,81.8893 ,1.41282 ,-0.72792 ,-7.14233 
452 ,82.0654 ,1.41450 ,-0.74161 ,-7.27665 
453 ,82.2415 ,1.41626 ,-0.77241 ,-7.57885 
454 ,82.4176 ,1.41801 ,-0.76898 ,-7.54527 
455 ,82.5936 ,1.41973 ,-0.76898 ,-7.54527 
456 ,82.7697 ,1.42154 ,-0.77241 ,-7.57885 
457 ,82.9297 ,1.42329 ,-0.77241 ,-7.57885 
458 ,83.0897 ,1.42486 ,-0.78610 ,-7.71317 
459 ,83.2499 ,1.42644 ,-0.80321 ,-7.88106 
460 ,83.4099 ,1.42804 ,-0.81005 ,-7.94821 
461 ,83.5701 ,1.42964 ,-0.82032 ,-8.04895 
462 ,83.7301 ,1.43123 ,-0.82032 ,-8.04895 
463 ,83.8901 ,1.43285 ,-0.83058 ,-8.14968 
