Data stamp = , 01-04-2022 20:58:11 684

Calibration Values: 
Slope = , 26.54 , g/V 
Offset Voltage at no contact = , -0.501760 , V 

No , Time , Stage Position ,   Mass , Force 
   ,  (s) ,      (mm)      ,   (g)  , (mN)  

1 ,0.0000 ,0.64955 ,4.92550 ,48.32902 
2 ,0.2134 ,0.64962 ,4.92208 ,48.29544 
3 ,0.5337 ,0.65045 ,4.89812 ,48.06039 
4 ,0.7418 ,0.65195 ,4.90497 ,48.12755 
5 ,0.9499 ,0.65376 ,4.91181 ,48.19471 
6 ,1.1420 ,0.65578 ,4.89812 ,48.06039 
7 ,1.3178 ,0.65750 ,4.92208 ,48.29544 
8 ,1.4937 ,0.65927 ,4.91181 ,48.19471 
9 ,1.6863 ,0.66110 ,4.90155 ,48.09397 
10 ,1.8942 ,0.66323 ,4.89128 ,47.99324 
11 ,2.1023 ,0.66527 ,4.87417 ,47.82534 
12 ,2.2785 ,0.66709 ,4.87075 ,47.79177 
13 ,2.4701 ,0.66899 ,4.86048 ,47.69103 
14 ,2.6462 ,0.67080 ,4.82284 ,47.32167 
15 ,2.8386 ,0.67256 ,4.80915 ,47.18736 
16 ,3.0307 ,0.67462 ,4.80573 ,47.15378 
17 ,3.2224 ,0.67648 ,4.77835 ,46.88515 
18 ,3.3825 ,0.67824 ,4.78177 ,46.91873 
19 ,3.5589 ,0.67992 ,4.77150 ,46.81800 
20 ,3.7510 ,0.68182 ,4.75782 ,46.68368 
21 ,3.9271 ,0.68359 ,4.73728 ,46.48221 
22 ,4.1030 ,0.68531 ,4.72359 ,46.34790 
23 ,4.2791 ,0.68714 ,4.70990 ,46.21359 
24 ,4.4553 ,0.68881 ,4.69964 ,46.11285 
25 ,4.6314 ,0.69060 ,4.68595 ,45.97854 
26 ,4.8075 ,0.69237 ,4.66542 ,45.77707 
27 ,4.9992 ,0.69429 ,4.64831 ,45.60918 
28 ,5.1917 ,0.69611 ,4.62093 ,45.34055 
29 ,5.3993 ,0.69823 ,4.60040 ,45.13908 
30 ,5.5758 ,0.70003 ,4.60040 ,45.13908 
31 ,5.7678 ,0.70197 ,4.55591 ,44.70256 
32 ,5.9439 ,0.70375 ,4.53195 ,44.46751 
33 ,6.1200 ,0.70552 ,4.51826 ,44.33320 
34 ,6.2956 ,0.70737 ,4.52169 ,44.36678 
35 ,6.4721 ,0.70901 ,4.50457 ,44.19889 
36 ,6.6481 ,0.71076 ,4.47035 ,43.86310 
37 ,6.8402 ,0.71267 ,4.44640 ,43.62806 
38 ,7.0162 ,0.71448 ,4.43955 ,43.56090 
39 ,7.1923 ,0.71618 ,4.42929 ,43.46016 
40 ,7.3683 ,0.71795 ,4.40191 ,43.19154 
41 ,7.5445 ,0.71974 ,4.37795 ,42.95649 
42 ,7.7206 ,0.72155 ,4.35058 ,42.68786 
43 ,7.8966 ,0.72324 ,4.34031 ,42.58713 
44 ,8.0727 ,0.72499 ,4.33347 ,42.51997 
45 ,8.2647 ,0.72687 ,4.30267 ,42.21777 
46 ,8.4409 ,0.72875 ,4.28556 ,42.04988 
47 ,8.6330 ,0.73060 ,4.28213 ,42.01630 
48 ,8.8091 ,0.73239 ,4.26502 ,41.84841 
49 ,8.9850 ,0.73416 ,4.23765 ,41.57978 
50 ,9.1611 ,0.73588 ,4.21369 ,41.34473 
51 ,9.3372 ,0.73763 ,4.20685 ,41.27758 
52 ,9.5454 ,0.73971 ,4.17947 ,41.00895 
53 ,9.7214 ,0.74152 ,4.16578 ,40.87464 
54 ,9.9135 ,0.74343 ,4.16236 ,40.84106 
55 ,10.0895 ,0.74518 ,4.13498 ,40.57243 
56 ,10.2816 ,0.74703 ,4.11103 ,40.33738 
57 ,10.4577 ,0.74886 ,4.09734 ,40.20307 
58 ,10.6338 ,0.75064 ,4.08023 ,40.03518 
59 ,10.8257 ,0.75252 ,4.05627 ,39.80013 
60 ,11.0176 ,0.75449 ,4.03232 ,39.56508 
61 ,11.1941 ,0.75625 ,4.01863 ,39.43077 
62 ,11.3860 ,0.75816 ,4.00494 ,39.29646 
63 ,11.5621 ,0.75988 ,3.98441 ,39.09499 
64 ,11.7542 ,0.76181 ,3.97756 ,39.02783 
65 ,11.9303 ,0.76356 ,3.95703 ,38.82636 
66 ,12.1060 ,0.76532 ,3.93650 ,38.62489 
67 ,12.2825 ,0.76708 ,3.90570 ,38.32268 
68 ,12.4744 ,0.76895 ,3.88858 ,38.15479 
69 ,12.6825 ,0.77105 ,3.86805 ,37.95332 
70 ,12.8583 ,0.77284 ,3.85436 ,37.81901 
71 ,13.0344 ,0.77460 ,3.84067 ,37.68470 
72 ,13.2107 ,0.77637 ,3.83383 ,37.61754 
73 ,13.3872 ,0.77813 ,3.81330 ,37.41607 
74 ,13.5630 ,0.77988 ,3.79961 ,37.28176 
75 ,13.7552 ,0.78176 ,3.77908 ,37.08029 
76 ,13.9471 ,0.78368 ,3.76881 ,36.97955 
77 ,14.1392 ,0.78567 ,3.72432 ,36.54303 
78 ,14.3153 ,0.78742 ,3.71748 ,36.47588 
79 ,14.5075 ,0.78935 ,3.70721 ,36.37514 
80 ,14.6836 ,0.79109 ,3.67641 ,36.07294 
81 ,14.8756 ,0.79297 ,3.67299 ,36.03936 
82 ,15.0516 ,0.79489 ,3.65588 ,35.87147 
83 ,15.2275 ,0.79653 ,3.63534 ,35.67000 
84 ,15.4037 ,0.79832 ,3.61481 ,35.46853 
85 ,15.6118 ,0.80031 ,3.59770 ,35.30064 
86 ,15.7878 ,0.80218 ,3.58059 ,35.13275 
87 ,15.9477 ,0.80387 ,3.55663 ,34.89770 
88 ,16.1240 ,0.80553 ,3.53952 ,34.72981 
89 ,16.2998 ,0.80721 ,3.53268 ,34.66265 
90 ,16.4762 ,0.80903 ,3.51557 ,34.49476 
91 ,16.6842 ,0.81098 ,3.50188 ,34.36045 
92 ,16.8602 ,0.81284 ,3.48135 ,34.15898 
93 ,17.0363 ,0.81464 ,3.46081 ,33.95751 
94 ,17.2123 ,0.81636 ,3.46081 ,33.95751 
95 ,17.3882 ,0.81820 ,3.41633 ,33.52099 
96 ,17.5646 ,0.81988 ,3.42317 ,33.58814 
97 ,17.7566 ,0.82174 ,3.39921 ,33.35310 
98 ,17.9326 ,0.82355 ,3.38895 ,33.25236 
99 ,18.1089 ,0.82537 ,3.37868 ,33.15163 
100 ,18.2850 ,0.82712 ,3.36157 ,32.98374 
101 ,18.4769 ,0.82903 ,3.33077 ,32.68153 
102 ,18.6528 ,0.83078 ,3.32051 ,32.58080 
103 ,18.8611 ,0.83279 ,3.29997 ,32.37933 
104 ,19.0371 ,0.83464 ,3.27944 ,32.17786 
105 ,19.2294 ,0.83652 ,3.28286 ,32.21143 
106 ,19.4052 ,0.83834 ,3.27259 ,32.11070 
107 ,19.5975 ,0.84024 ,3.23495 ,31.74134 
108 ,19.8051 ,0.84219 ,3.24180 ,31.80849 
109 ,19.9816 ,0.84409 ,3.19731 ,31.37198 
110 ,20.1576 ,0.84582 ,3.18704 ,31.27124 
111 ,20.3333 ,0.84757 ,3.16993 ,31.10335 
112 ,20.5256 ,0.84938 ,3.15624 ,30.96904 
113 ,20.7019 ,0.85129 ,3.14940 ,30.90188 
114 ,20.8939 ,0.85315 ,3.13571 ,30.76757 
115 ,21.0699 ,0.85491 ,3.13571 ,30.76757 
116 ,21.2460 ,0.85671 ,3.10491 ,30.46536 
117 ,21.4222 ,0.85844 ,3.08780 ,30.29747 
118 ,21.5978 ,0.86022 ,3.06042 ,30.02884 
119 ,21.7744 ,0.86201 ,3.05015 ,29.92811 
120 ,21.9663 ,0.86384 ,3.04331 ,29.86095 
121 ,22.1427 ,0.86566 ,3.02620 ,29.69306 
122 ,22.3506 ,0.86768 ,3.02620 ,29.69306 
123 ,22.5267 ,0.86952 ,3.00567 ,29.49159 
124 ,22.7187 ,0.87141 ,2.96460 ,29.08865 
125 ,22.8948 ,0.87318 ,2.96118 ,29.05507 
126 ,23.0705 ,0.87494 ,2.95091 ,28.95434 
127 ,23.2309 ,0.87666 ,2.94064 ,28.85360 
128 ,23.4069 ,0.87826 ,2.92353 ,28.68571 
129 ,23.5832 ,0.88006 ,2.90985 ,28.55140 
130 ,23.7751 ,0.88198 ,2.89958 ,28.45066 
131 ,23.9513 ,0.88375 ,2.88589 ,28.31635 
132 ,24.1273 ,0.88554 ,2.88247 ,28.28277 
133 ,24.3194 ,0.88739 ,2.83114 ,27.77910 
134 ,24.4955 ,0.88917 ,2.83456 ,27.81268 
135 ,24.6876 ,0.89105 ,2.82429 ,27.71194 
136 ,24.8796 ,0.89307 ,2.79007 ,27.37616 
137 ,25.0714 ,0.89498 ,2.79691 ,27.44332 
138 ,25.2477 ,0.89666 ,2.77296 ,27.20827 
139 ,25.4239 ,0.89847 ,2.75585 ,27.04038 
140 ,25.5997 ,0.90023 ,2.73874 ,26.87248 
141 ,25.7756 ,0.90195 ,2.72163 ,26.70459 
142 ,25.9521 ,0.90379 ,2.71136 ,26.60386 
143 ,26.1442 ,0.90568 ,2.69083 ,26.40239 
144 ,26.3202 ,0.90742 ,2.67372 ,26.23450 
145 ,26.5439 ,0.90941 ,2.66687 ,26.16734 
146 ,26.7202 ,0.91138 ,2.64292 ,25.93229 
147 ,26.8965 ,0.91317 ,2.62581 ,25.76440 
148 ,27.0885 ,0.91511 ,2.62923 ,25.79798 
149 ,27.2644 ,0.91688 ,2.60869 ,25.59651 
150 ,27.4407 ,0.91857 ,2.58132 ,25.32788 
151 ,27.6167 ,0.92039 ,2.56421 ,25.15999 
152 ,27.7930 ,0.92218 ,2.56078 ,25.12641 
153 ,27.9688 ,0.92397 ,2.54710 ,24.99210 
154 ,28.1609 ,0.92581 ,2.53683 ,24.89136 
155 ,28.3370 ,0.92760 ,2.51630 ,24.68989 
156 ,28.5611 ,0.92969 ,2.48892 ,24.42127 
157 ,28.7372 ,0.93160 ,2.46496 ,24.18622 
158 ,28.9288 ,0.93342 ,2.45812 ,24.11906 
159 ,29.1049 ,0.93530 ,2.46154 ,24.15264 
160 ,29.2813 ,0.93705 ,2.43416 ,23.88402 
161 ,29.4572 ,0.93878 ,2.41021 ,23.64897 
162 ,29.6334 ,0.94055 ,2.40679 ,23.61539 
163 ,29.8252 ,0.94246 ,2.39652 ,23.51465 
164 ,30.0013 ,0.94422 ,2.37599 ,23.31318 
165 ,30.1938 ,0.94610 ,2.35888 ,23.14529 
166 ,30.3696 ,0.94804 ,2.35888 ,23.14529 
167 ,30.5458 ,0.94969 ,2.34519 ,23.01098 
168 ,30.7219 ,0.95146 ,2.32123 ,22.77593 
169 ,30.8978 ,0.95318 ,2.29728 ,22.54088 
170 ,31.0738 ,0.95506 ,2.30412 ,22.60804 
171 ,31.2501 ,0.95674 ,2.26990 ,22.27226 
172 ,31.4262 ,0.95847 ,2.27332 ,22.30584 
173 ,31.6023 ,0.96021 ,2.24594 ,22.03721 
174 ,31.7785 ,0.96202 ,2.23226 ,21.90290 
175 ,31.9864 ,0.96401 ,2.21515 ,21.73500 
176 ,32.1622 ,0.96579 ,2.20830 ,21.66785 
177 ,32.3382 ,0.96754 ,2.18092 ,21.39922 
178 ,32.5144 ,0.96932 ,2.17750 ,21.36564 
179 ,32.6906 ,0.97110 ,2.15355 ,21.13059 
180 ,32.8669 ,0.97283 ,2.15012 ,21.09702 
181 ,33.0589 ,0.97474 ,2.12617 ,20.86197 
182 ,33.2509 ,0.97669 ,2.11932 ,20.79481 
183 ,33.4270 ,0.97846 ,2.11590 ,20.76123 
184 ,33.6031 ,0.98021 ,2.09195 ,20.52619 
185 ,33.7954 ,0.98203 ,2.06457 ,20.25756 
186 ,33.9873 ,0.98395 ,2.04746 ,20.08967 
187 ,34.1631 ,0.98583 ,2.05430 ,20.15682 
188 ,34.3233 ,0.98751 ,2.01666 ,19.78746 
189 ,34.5315 ,0.98949 ,1.99955 ,19.61957 
190 ,34.7235 ,0.99143 ,2.01324 ,19.75388 
191 ,34.8994 ,0.99318 ,1.97902 ,19.41810 
192 ,35.0758 ,0.99493 ,1.96875 ,19.31737 
193 ,35.2675 ,0.99681 ,1.97217 ,19.35094 
194 ,35.4439 ,0.99862 ,1.94822 ,19.11590 
195 ,35.6520 ,1.00066 ,1.93453 ,18.98158 
196 ,35.8441 ,1.00254 ,1.92768 ,18.91443 
197 ,36.0363 ,1.00458 ,1.88662 ,18.51149 
198 ,36.2121 ,1.00630 ,1.87293 ,18.37717 
199 ,36.3881 ,1.00806 ,1.87293 ,18.37717 
200 ,36.5644 ,1.00982 ,1.86266 ,18.27644 
201 ,36.7401 ,1.01162 ,1.85582 ,18.20928 
202 ,36.9486 ,1.01351 ,1.83528 ,18.00781 
203 ,37.1405 ,1.01555 ,1.81817 ,17.83992 
204 ,37.3166 ,1.01734 ,1.80106 ,17.67203 
205 ,37.4929 ,1.01911 ,1.77369 ,17.40340 
206 ,37.6848 ,1.02102 ,1.78053 ,17.47056 
207 ,37.8604 ,1.02277 ,1.75315 ,17.20193 
208 ,38.0365 ,1.02455 ,1.74289 ,17.10120 
209 ,38.2126 ,1.02628 ,1.72235 ,16.89973 
210 ,38.4051 ,1.02813 ,1.72235 ,16.89973 
211 ,38.6129 ,1.03029 ,1.69155 ,16.59752 
212 ,38.8053 ,1.03218 ,1.70182 ,16.69826 
213 ,38.9975 ,1.03418 ,1.66760 ,16.36248 
214 ,39.1733 ,1.03593 ,1.65733 ,16.26174 
215 ,39.3492 ,1.03766 ,1.65049 ,16.19458 
216 ,39.5411 ,1.03951 ,1.63680 ,16.06027 
217 ,39.7177 ,1.04131 ,1.61969 ,15.89238 
218 ,39.8939 ,1.04313 ,1.59916 ,15.69091 
219 ,40.0698 ,1.04486 ,1.59231 ,15.62375 
220 ,40.2456 ,1.04660 ,1.58547 ,15.55660 
221 ,40.4540 ,1.04864 ,1.55467 ,15.25439 
222 ,40.6300 ,1.05045 ,1.55467 ,15.25439 
223 ,40.7901 ,1.05217 ,1.54782 ,15.18724 
224 ,40.9662 ,1.05383 ,1.53756 ,15.08650 
225 ,41.1421 ,1.05563 ,1.52045 ,14.91861 
226 ,41.3343 ,1.05752 ,1.49307 ,14.64998 
227 ,41.5263 ,1.05941 ,1.50333 ,14.75072 
228 ,41.7024 ,1.06114 ,1.48280 ,14.54925 
229 ,41.8948 ,1.06305 ,1.44858 ,14.21346 
230 ,42.1027 ,1.06504 ,1.44858 ,14.21346 
231 ,42.2787 ,1.06699 ,1.43489 ,14.07915 
232 ,42.4709 ,1.06887 ,1.41778 ,13.91126 
233 ,42.6465 ,1.07065 ,1.41436 ,13.87768 
234 ,42.8228 ,1.07238 ,1.40409 ,13.77695 
235 ,43.0312 ,1.07448 ,1.38014 ,13.54190 
236 ,43.2070 ,1.07622 ,1.36987 ,13.44116 
237 ,43.3832 ,1.07801 ,1.36303 ,13.37401 
238 ,43.5593 ,1.07980 ,1.34591 ,13.20612 
239 ,43.7351 ,1.08151 ,1.31854 ,12.93749 
240 ,43.9114 ,1.08327 ,1.30827 ,12.83675 
241 ,44.1033 ,1.08522 ,1.31169 ,12.87033 
242 ,44.2795 ,1.08699 ,1.30485 ,12.80318 
243 ,44.4556 ,1.08872 ,1.26720 ,12.43381 
244 ,44.6796 ,1.09079 ,1.26378 ,12.40024 
245 ,44.8557 ,1.09266 ,1.22956 ,12.06445 
246 ,45.0317 ,1.09445 ,1.23298 ,12.09803 
247 ,45.2238 ,1.09623 ,1.22956 ,12.06445 
248 ,45.4000 ,1.09815 ,1.21587 ,11.93014 
249 ,45.5921 ,1.09994 ,1.18850 ,11.66151 
250 ,45.8000 ,1.10199 ,1.18165 ,11.59436 
251 ,45.9766 ,1.10394 ,1.16454 ,11.42647 
252 ,46.1682 ,1.10580 ,1.14743 ,11.25857 
253 ,46.3444 ,1.10752 ,1.14401 ,11.22500 
254 ,46.5203 ,1.10935 ,1.12690 ,11.05710 
255 ,46.6964 ,1.11111 ,1.10979 ,10.88921 
256 ,46.8721 ,1.11281 ,1.08925 ,10.68774 
257 ,47.0486 ,1.11462 ,1.07556 ,10.55343 
258 ,47.2404 ,1.11658 ,1.07214 ,10.51985 
259 ,47.4164 ,1.11827 ,1.05161 ,10.31838 
260 ,47.5926 ,1.12007 ,1.03450 ,10.15049 
261 ,47.7688 ,1.12181 ,1.04476 ,10.25123 
262 ,47.9448 ,1.12354 ,1.03792 ,10.18407 
263 ,48.1367 ,1.12550 ,1.00370 ,9.84829 
264 ,48.3128 ,1.12727 ,0.97974 ,9.61324 
265 ,48.4890 ,1.12901 ,0.99343 ,9.74755 
266 ,48.6652 ,1.13077 ,0.97974 ,9.61324 
267 ,48.8251 ,1.13249 ,0.96263 ,9.44535 
268 ,49.0014 ,1.13414 ,0.95579 ,9.37819 
269 ,49.1934 ,1.13600 ,0.93525 ,9.17672 
270 ,49.3694 ,1.13777 ,0.92157 ,9.04241 
271 ,49.5456 ,1.13956 ,0.91814 ,9.00883 
272 ,49.7377 ,1.14151 ,0.89077 ,8.74020 
273 ,49.9136 ,1.14331 ,0.87023 ,8.53873 
274 ,50.0896 ,1.14501 ,0.86339 ,8.47158 
275 ,50.2658 ,1.14679 ,0.87023 ,8.53873 
276 ,50.4580 ,1.14876 ,0.83943 ,8.23653 
277 ,50.6340 ,1.15048 ,0.82232 ,8.06864 
278 ,50.8101 ,1.15223 ,0.82232 ,8.06864 
279 ,50.9863 ,1.15398 ,0.81890 ,8.03506 
280 ,51.1619 ,1.15577 ,0.79152 ,7.76643 
281 ,51.3384 ,1.15750 ,0.78468 ,7.69927 
282 ,51.5304 ,1.15940 ,0.76415 ,7.49780 
283 ,51.7066 ,1.16119 ,0.76072 ,7.46423 
284 ,51.8828 ,1.16300 ,0.74361 ,7.29633 
285 ,52.0587 ,1.16472 ,0.72992 ,7.16202 
286 ,52.2343 ,1.16661 ,0.70597 ,6.92697 
287 ,52.4108 ,1.16825 ,0.70597 ,6.92697 
288 ,52.5868 ,1.17010 ,0.70255 ,6.89340 
289 ,52.7629 ,1.17173 ,0.68544 ,6.72550 
290 ,52.9550 ,1.17368 ,0.65464 ,6.42330 
291 ,53.1309 ,1.17542 ,0.64779 ,6.35614 
292 ,53.3067 ,1.17730 ,0.64437 ,6.32256 
293 ,53.4833 ,1.17894 ,0.63068 ,6.18825 
294 ,53.6592 ,1.18078 ,0.61015 ,5.98678 
295 ,53.8353 ,1.18249 ,0.60330 ,5.91962 
296 ,54.0275 ,1.18440 ,0.60330 ,5.91962 
297 ,54.2195 ,1.18629 ,0.56908 ,5.58384 
298 ,54.3957 ,1.18807 ,0.55882 ,5.48311 
299 ,54.5715 ,1.18980 ,0.54855 ,5.38237 
300 ,54.7478 ,1.19160 ,0.54513 ,5.34879 
301 ,54.9400 ,1.19355 ,0.53486 ,5.24806 
302 ,55.1318 ,1.19543 ,0.51433 ,5.04659 
303 ,55.3081 ,1.19719 ,0.50406 ,4.94585 
304 ,55.4680 ,1.19891 ,0.50064 ,4.91228 
305 ,55.6441 ,1.20050 ,0.48353 ,4.74438 
306 ,55.8202 ,1.20231 ,0.45615 ,4.47576 
307 ,55.9962 ,1.20403 ,0.43904 ,4.30787 
308 ,56.1723 ,1.20581 ,0.43562 ,4.27429 
309 ,56.3485 ,1.20759 ,0.43904 ,4.30787 
310 ,56.5404 ,1.20948 ,0.42535 ,4.17355 
311 ,56.7326 ,1.21140 ,0.39455 ,3.87135 
312 ,56.9087 ,1.21323 ,0.39113 ,3.83777 
313 ,57.1007 ,1.21512 ,0.36718 ,3.60272 
314 ,57.2768 ,1.21691 ,0.36375 ,3.56914 
315 ,57.4529 ,1.21862 ,0.34322 ,3.36767 
316 ,57.6288 ,1.22041 ,0.33980 ,3.33410 
317 ,57.8368 ,1.22238 ,0.32269 ,3.16620 
318 ,58.0130 ,1.22424 ,0.30900 ,3.03189 
319 ,58.2212 ,1.22627 ,0.30558 ,2.99831 
320 ,58.4132 ,1.22822 ,0.27820 ,2.72969 
321 ,58.5889 ,1.22997 ,0.27820 ,2.72969 
322 ,58.7651 ,1.23172 ,0.28162 ,2.76326 
323 ,58.9414 ,1.23354 ,0.26451 ,2.59537 
324 ,59.1334 ,1.23542 ,0.22687 ,2.22601 
325 ,59.3096 ,1.23719 ,0.23713 ,2.32675 
326 ,59.4857 ,1.23897 ,0.23371 ,2.29317 
327 ,59.6456 ,1.24066 ,0.21318 ,2.09170 
328 ,59.8217 ,1.24230 ,0.20633 ,2.02454 
329 ,59.9977 ,1.24401 ,0.19264 ,1.89023 
330 ,60.1739 ,1.24586 ,0.16527 ,1.62160 
331 ,60.3659 ,1.24771 ,0.17211 ,1.68876 
332 ,60.5419 ,1.24946 ,0.15842 ,1.55445 
333 ,60.7340 ,1.25144 ,0.13789 ,1.35298 
334 ,60.9100 ,1.25321 ,0.13105 ,1.28582 
335 ,61.0860 ,1.25498 ,0.11393 ,1.11793 
336 ,61.2622 ,1.25670 ,0.11736 ,1.15151 
337 ,61.4384 ,1.25845 ,0.11051 ,1.08435 
338 ,61.6145 ,1.26026 ,0.06602 ,0.64783 
339 ,61.7904 ,1.26197 ,0.06945 ,0.68141 
340 ,61.9667 ,1.26374 ,0.06945 ,0.68141 
341 ,62.1586 ,1.26574 ,0.05234 ,0.51352 
342 ,62.3187 ,1.26740 ,0.02496 ,0.24489 
343 ,62.4948 ,1.26902 ,0.02838 ,0.27847 
344 ,62.6870 ,1.27096 ,0.01127 ,0.11058 
345 ,62.8790 ,1.27288 ,0.00443 ,0.04342 
346 ,63.0872 ,1.27484 ,0.00100 ,0.00984 
347 ,63.2630 ,1.27670 ,-0.00584 ,-0.05731 
348 ,63.4391 ,1.27848 ,-0.02295 ,-0.22520 
349 ,63.6633 ,1.28061 ,-0.04691 ,-0.46025 
350 ,63.8392 ,1.28245 ,-0.04006 ,-0.39310 
351 ,64.0153 ,1.28417 ,-0.07771 ,-0.76246 
352 ,64.1912 ,1.28599 ,-0.09482 ,-0.93035 
353 ,64.3676 ,1.28774 ,-0.08797 ,-0.86319 
354 ,64.5593 ,1.28966 ,-0.08797 ,-0.86319 
355 ,64.7357 ,1.29139 ,-0.12219 ,-1.19898 
356 ,64.9276 ,1.29325 ,-0.13246 ,-1.29971 
357 ,65.1196 ,1.29529 ,-0.12219 ,-1.19898 
358 ,65.3118 ,1.29711 ,-0.13931 ,-1.36687 
359 ,65.5041 ,1.29899 ,-0.15642 ,-1.53476 
360 ,65.6962 ,1.30096 ,-0.17353 ,-1.70265 
361 ,65.8885 ,1.30291 ,-0.16326 ,-1.60191 
362 ,66.0802 ,1.30483 ,-0.19748 ,-1.93770 
363 ,66.2722 ,1.30677 ,-0.20090 ,-1.97128 
364 ,66.4485 ,1.30861 ,-0.20433 ,-2.00485 
365 ,66.6246 ,1.31028 ,-0.20433 ,-2.00485 
366 ,66.8166 ,1.31225 ,-0.22828 ,-2.23990 
367 ,66.9926 ,1.31400 ,-0.24197 ,-2.37422 
368 ,67.1688 ,1.31578 ,-0.25224 ,-2.47495 
369 ,67.3605 ,1.31766 ,-0.24539 ,-2.40779 
370 ,67.5368 ,1.31941 ,-0.26935 ,-2.64284 
371 ,67.7129 ,1.32116 ,-0.28304 ,-2.77716 
372 ,67.8893 ,1.32292 ,-0.28304 ,-2.77716 
373 ,68.0648 ,1.32470 ,-0.27961 ,-2.74358 
374 ,68.2411 ,1.32649 ,-0.28988 ,-2.84431 
375 ,68.4493 ,1.32849 ,-0.30699 ,-3.01220 
376 ,68.6412 ,1.33040 ,-0.32410 ,-3.18010 
377 ,68.8173 ,1.33218 ,-0.35148 ,-3.44872 
378 ,68.9935 ,1.33397 ,-0.34806 ,-3.41514 
379 ,69.1695 ,1.33575 ,-0.35148 ,-3.44872 
380 ,69.3456 ,1.33748 ,-0.35148 ,-3.44872 
381 ,69.5216 ,1.33930 ,-0.36175 ,-3.54946 
382 ,69.6978 ,1.34104 ,-0.37886 ,-3.71735 
383 ,69.8735 ,1.34277 ,-0.40281 ,-3.95240 
384 ,70.0499 ,1.34452 ,-0.39597 ,-3.88524 
385 ,70.2258 ,1.34630 ,-0.39597 ,-3.88524 
386 ,70.4181 ,1.34815 ,-0.42335 ,-4.15387 
387 ,70.5939 ,1.35003 ,-0.43019 ,-4.22102 
388 ,70.7701 ,1.35177 ,-0.43019 ,-4.22102 
389 ,70.9623 ,1.35354 ,-0.42335 ,-4.15387 
390 ,71.1383 ,1.35543 ,-0.44388 ,-4.35534 
391 ,71.3304 ,1.35732 ,-0.45757 ,-4.48965 
392 ,71.5060 ,1.35913 ,-0.46099 ,-4.52323 
393 ,71.6826 ,1.36088 ,-0.46441 ,-4.55681 
394 ,71.8746 ,1.36284 ,-0.48837 ,-4.79185 
395 ,72.0507 ,1.36456 ,-0.48152 ,-4.72470 
396 ,72.2424 ,1.36636 ,-0.48837 ,-4.79185 
397 ,72.4188 ,1.36821 ,-0.50548 ,-4.95975 
398 ,72.6106 ,1.37010 ,-0.50890 ,-4.99332 
399 ,72.7869 ,1.37190 ,-0.51574 ,-5.06048 
400 ,72.9631 ,1.37366 ,-0.52601 ,-5.16121 
401 ,73.1551 ,1.37555 ,-0.54312 ,-5.32911 
402 ,73.3308 ,1.37735 ,-0.56365 ,-5.53058 
403 ,73.5073 ,1.37914 ,-0.55681 ,-5.46342 
404 ,73.6839 ,1.38098 ,-0.58419 ,-5.73205 
405 ,73.8594 ,1.38265 ,-0.57734 ,-5.66489 
406 ,74.0515 ,1.38449 ,-0.57734 ,-5.66489 
407 ,74.2432 ,1.38644 ,-0.58761 ,-5.76562 
408 ,74.4193 ,1.38822 ,-0.59445 ,-5.83278 
409 ,74.5958 ,1.38997 ,-0.61156 ,-6.00067 
410 ,74.7877 ,1.39191 ,-0.61499 ,-6.03425 
411 ,74.9797 ,1.39373 ,-0.62183 ,-6.10141 
412 ,75.1720 ,1.39577 ,-0.62525 ,-6.13499 
413 ,75.3480 ,1.39750 ,-0.63894 ,-6.26930 
414 ,75.5240 ,1.39937 ,-0.65947 ,-6.47077 
415 ,75.7161 ,1.40113 ,-0.66632 ,-6.53793 
416 ,75.9082 ,1.40309 ,-0.65605 ,-6.43719 
417 ,76.0843 ,1.40489 ,-0.66632 ,-6.53793 
418 ,76.2764 ,1.40677 ,-0.69712 ,-6.84013 
419 ,76.4525 ,1.40855 ,-0.69712 ,-6.84013 
420 ,76.6446 ,1.41037 ,-0.70396 ,-6.90729 
421 ,76.8367 ,1.41240 ,-0.72792 ,-7.14233 
422 ,77.0127 ,1.41419 ,-0.72450 ,-7.10876 
423 ,77.2048 ,1.41607 ,-0.72450 ,-7.10876 
424 ,77.3973 ,1.41794 ,-0.74845 ,-7.34380 
425 ,77.5889 ,1.41989 ,-0.74845 ,-7.34380 
426 ,77.7651 ,1.42170 ,-0.74845 ,-7.34380 
427 ,77.9407 ,1.42341 ,-0.76556 ,-7.51170 
428 ,78.1171 ,1.42523 ,-0.78952 ,-7.74674 
429 ,78.2931 ,1.42693 ,-0.78610 ,-7.71317 
430 ,78.4691 ,1.42871 ,-0.78267 ,-7.67959 
431 ,78.6454 ,1.43045 ,-0.79294 ,-7.78032 
432 ,78.8372 ,1.43241 ,-0.81347 ,-7.98179 
433 ,79.0294 ,1.43432 ,-0.82374 ,-8.08253 
434 ,79.2054 ,1.43604 ,-0.81347 ,-7.98179 
435 ,79.3816 ,1.43782 ,-0.83058 ,-8.14968 
436 ,79.5577 ,1.43963 ,-0.84769 ,-8.31758 
437 ,79.7337 ,1.44133 ,-0.85796 ,-8.41831 
438 ,79.9098 ,1.44313 ,-0.85796 ,-8.41831 
439 ,80.0858 ,1.44488 ,-0.85454 ,-8.38473 
440 ,80.2617 ,1.44661 ,-0.87849 ,-8.61978 
441 ,80.4379 ,1.44836 ,-0.88876 ,-8.72051 
442 ,80.6142 ,1.45014 ,-0.89903 ,-8.82125 
443 ,80.8063 ,1.45199 ,-0.89560 ,-8.78767 
444 ,80.9981 ,1.45391 ,-0.91272 ,-8.95556 
445 ,81.1904 ,1.45585 ,-0.90587 ,-8.88841 
446 ,81.3664 ,1.45766 ,-0.91272 ,-8.95556 
447 ,81.5263 ,1.45936 ,-0.92640 ,-9.08988 
448 ,81.7024 ,1.46107 ,-0.92640 ,-9.08988 
449 ,81.8786 ,1.46277 ,-0.95036 ,-9.32492 
450 ,82.0548 ,1.46458 ,-0.95720 ,-9.39208 
451 ,82.2468 ,1.46646 ,-0.95036 ,-9.32492 
452 ,82.4228 ,1.46823 ,-0.97431 ,-9.55997 
453 ,82.6149 ,1.47012 ,-0.97431 ,-9.55997 
454 ,82.7908 ,1.47191 ,-0.97089 ,-9.52639 
455 ,82.9831 ,1.47375 ,-0.98116 ,-9.62713 
456 ,83.1751 ,1.47578 ,-1.00169 ,-9.82860 
457 ,83.3511 ,1.47748 ,-1.00169 ,-9.82860 
458 ,83.5432 ,1.47946 ,-1.00511 ,-9.86218 
459 ,83.7194 ,1.48121 ,-1.02565 ,-10.06365 
460 ,83.9114 ,1.48317 ,-1.02565 ,-10.06365 
461 ,84.1035 ,1.48494 ,-1.02907 ,-10.09723 
462 ,84.2795 ,1.48679 ,-1.05302 ,-10.33227 
