Data stamp = , 02-04-2022 05:30:16 762

Calibration Values: 
Slope = , 26.54 , g/V 
Offset Voltage at no contact = , -0.501760 , V 

No , Time , Stage Position ,   Mass , Force 
   ,  (s) ,      (mm)      ,   (g)  , (mN)  

1 ,0.0000 ,0.64949 ,4.98026 ,48.86627 
2 ,0.2144 ,0.64957 ,4.99052 ,48.96701 
3 ,0.5026 ,0.65035 ,5.01790 ,49.23563 
4 ,0.6787 ,0.65153 ,4.98710 ,48.93343 
5 ,0.8867 ,0.65310 ,5.00421 ,49.10132 
6 ,1.0624 ,0.65488 ,5.00079 ,49.06774 
7 ,1.2548 ,0.65664 ,4.98710 ,48.93343 
8 ,1.4309 ,0.65852 ,5.01448 ,49.20205 
9 ,1.6069 ,0.66035 ,5.01448 ,49.20205 
10 ,1.7831 ,0.66208 ,4.99052 ,48.96701 
11 ,1.9750 ,0.66398 ,4.99052 ,48.96701 
12 ,2.1672 ,0.66590 ,4.99394 ,49.00058 
13 ,2.3433 ,0.66771 ,4.97683 ,48.83269 
14 ,2.5194 ,0.66950 ,4.95972 ,48.66480 
15 ,2.7114 ,0.67128 ,4.95630 ,48.63122 
16 ,2.9035 ,0.67329 ,4.94603 ,48.53049 
17 ,3.0796 ,0.67505 ,4.93235 ,48.39618 
18 ,3.2717 ,0.67699 ,4.93919 ,48.46333 
19 ,3.4638 ,0.67891 ,4.90839 ,48.16113 
20 ,3.6560 ,0.68080 ,4.90839 ,48.16113 
21 ,3.8319 ,0.68256 ,4.89470 ,48.02681 
22 ,4.0078 ,0.68442 ,4.87417 ,47.82534 
23 ,4.1837 ,0.68606 ,4.87759 ,47.85892 
24 ,4.3602 ,0.68782 ,4.84679 ,47.55672 
25 ,4.5683 ,0.68985 ,4.85706 ,47.65745 
26 ,4.7604 ,0.69186 ,4.81599 ,47.25451 
27 ,4.9364 ,0.69367 ,4.79888 ,47.08662 
28 ,5.1122 ,0.69537 ,4.80230 ,47.12020 
29 ,5.3045 ,0.69724 ,4.77150 ,46.81800 
30 ,5.4967 ,0.69926 ,4.74413 ,46.54937 
31 ,5.6727 ,0.70098 ,4.74413 ,46.54937 
32 ,5.8487 ,0.70286 ,4.72702 ,46.38148 
33 ,6.0248 ,0.70448 ,4.70990 ,46.21359 
34 ,6.2008 ,0.70627 ,4.67226 ,45.84422 
35 ,6.3609 ,0.70793 ,4.67226 ,45.84422 
36 ,6.5535 ,0.70976 ,4.65857 ,45.70991 
37 ,6.7450 ,0.71171 ,4.63462 ,45.47486 
38 ,6.9212 ,0.71343 ,4.61066 ,45.23981 
39 ,7.1133 ,0.71540 ,4.60040 ,45.13908 
40 ,7.3052 ,0.71728 ,4.56617 ,44.80330 
41 ,7.4814 ,0.71906 ,4.55249 ,44.66898 
42 ,7.6895 ,0.72113 ,4.53880 ,44.53467 
43 ,7.8655 ,0.72292 ,4.52169 ,44.36678 
44 ,8.0735 ,0.72481 ,4.49773 ,44.13173 
45 ,8.2498 ,0.72677 ,4.47720 ,43.93026 
46 ,8.4258 ,0.72850 ,4.45324 ,43.69521 
47 ,8.6177 ,0.73040 ,4.42586 ,43.42659 
48 ,8.7937 ,0.73216 ,4.41560 ,43.32585 
49 ,8.9700 ,0.73391 ,4.40533 ,43.22512 
50 ,9.1621 ,0.73589 ,4.36769 ,42.85576 
51 ,9.3378 ,0.73761 ,4.35058 ,42.68786 
52 ,9.5141 ,0.73940 ,4.34031 ,42.58713 
53 ,9.6901 ,0.74109 ,4.33004 ,42.48639 
54 ,9.8664 ,0.74289 ,4.29924 ,42.18419 
55 ,10.0583 ,0.74472 ,4.27529 ,41.94914 
56 ,10.2343 ,0.74659 ,4.27529 ,41.94914 
57 ,10.4265 ,0.74843 ,4.24791 ,41.68051 
58 ,10.6186 ,0.75042 ,4.21711 ,41.37831 
59 ,10.8106 ,0.75232 ,4.21027 ,41.31115 
60 ,10.9868 ,0.75410 ,4.18974 ,41.10968 
61 ,11.1947 ,0.75611 ,4.17947 ,41.00895 
62 ,11.3709 ,0.75791 ,4.15209 ,40.74032 
63 ,11.5467 ,0.75977 ,4.11103 ,40.33738 
64 ,11.7231 ,0.76149 ,4.10760 ,40.30380 
65 ,11.9151 ,0.76338 ,4.09049 ,40.13591 
66 ,12.0911 ,0.76513 ,4.08365 ,40.06876 
67 ,12.2673 ,0.76683 ,4.05969 ,39.83371 
68 ,12.4599 ,0.76872 ,4.03916 ,39.63224 
69 ,12.6516 ,0.77073 ,4.00836 ,39.33003 
70 ,12.8434 ,0.77264 ,3.99125 ,39.16214 
71 ,13.0196 ,0.77440 ,3.98098 ,39.06141 
72 ,13.1955 ,0.77615 ,3.96045 ,38.85994 
73 ,13.3877 ,0.77812 ,3.96387 ,38.89352 
74 ,13.5636 ,0.77982 ,3.92623 ,38.52415 
75 ,13.7559 ,0.78176 ,3.90570 ,38.32268 
76 ,13.9319 ,0.78352 ,3.89543 ,38.22195 
77 ,14.1081 ,0.78526 ,3.87832 ,38.05406 
78 ,14.2841 ,0.78707 ,3.86121 ,37.88617 
79 ,14.4762 ,0.78890 ,3.83383 ,37.61754 
80 ,14.6523 ,0.79074 ,3.82014 ,37.48323 
81 ,14.8284 ,0.79244 ,3.80645 ,37.34891 
82 ,15.0205 ,0.79444 ,3.77565 ,37.04671 
83 ,15.2125 ,0.79636 ,3.76196 ,36.91240 
84 ,15.3886 ,0.79813 ,3.75854 ,36.87882 
85 ,15.5645 ,0.79986 ,3.73459 ,36.64377 
86 ,15.7405 ,0.80157 ,3.70379 ,36.34157 
87 ,15.9169 ,0.80339 ,3.67641 ,36.07294 
88 ,16.1088 ,0.80526 ,3.68325 ,36.14010 
89 ,16.2846 ,0.80699 ,3.65930 ,35.90505 
90 ,16.4609 ,0.80883 ,3.63534 ,35.67000 
91 ,16.6370 ,0.81056 ,3.61481 ,35.46853 
92 ,16.8128 ,0.81237 ,3.60797 ,35.40137 
93 ,16.9893 ,0.81412 ,3.61139 ,35.43495 
94 ,17.1814 ,0.81603 ,3.57375 ,35.06559 
95 ,17.3574 ,0.81776 ,3.54637 ,34.79696 
96 ,17.5336 ,0.81954 ,3.54637 ,34.79696 
97 ,17.7096 ,0.82129 ,3.53268 ,34.66265 
98 ,17.8853 ,0.82302 ,3.51899 ,34.52834 
99 ,18.0618 ,0.82482 ,3.48819 ,34.22613 
100 ,18.2538 ,0.82675 ,3.47792 ,34.12540 
101 ,18.4300 ,0.82852 ,3.46424 ,33.99108 
102 ,18.6056 ,0.83025 ,3.44370 ,33.78961 
103 ,18.7821 ,0.83202 ,3.42659 ,33.62172 
104 ,18.9738 ,0.83394 ,3.40606 ,33.42025 
105 ,19.1502 ,0.83570 ,3.41975 ,33.55457 
106 ,19.3261 ,0.83744 ,3.38210 ,33.18520 
107 ,19.5024 ,0.83923 ,3.35130 ,32.88300 
108 ,19.6944 ,0.84117 ,3.33762 ,32.74869 
109 ,19.8861 ,0.84305 ,3.33762 ,32.74869 
110 ,20.0626 ,0.84481 ,3.29655 ,32.34575 
111 ,20.2546 ,0.84675 ,3.29313 ,32.31217 
112 ,20.4308 ,0.84852 ,3.27259 ,32.11070 
113 ,20.6229 ,0.85038 ,3.24522 ,31.84207 
114 ,20.7989 ,0.85222 ,3.22126 ,31.60702 
115 ,21.0067 ,0.85416 ,3.22468 ,31.64060 
116 ,21.1991 ,0.85615 ,3.20415 ,31.43913 
117 ,21.3912 ,0.85812 ,3.20073 ,31.40555 
118 ,21.5671 ,0.85986 ,3.16651 ,31.06977 
119 ,21.7433 ,0.86162 ,3.15282 ,30.93546 
120 ,21.9191 ,0.86337 ,3.12544 ,30.66683 
121 ,22.0951 ,0.86512 ,3.11175 ,30.53252 
122 ,22.2713 ,0.86690 ,3.11518 ,30.56610 
123 ,22.4635 ,0.86870 ,3.09806 ,30.39821 
124 ,22.6397 ,0.87057 ,3.07069 ,30.12958 
125 ,22.8315 ,0.87249 ,3.06384 ,30.06242 
126 ,23.0238 ,0.87442 ,3.03989 ,29.82737 
127 ,23.1999 ,0.87621 ,3.02278 ,29.65948 
128 ,23.3761 ,0.87797 ,3.00567 ,29.49159 
129 ,23.5522 ,0.87972 ,2.99540 ,29.39086 
130 ,23.7442 ,0.88160 ,2.97487 ,29.18939 
131 ,23.9202 ,0.88337 ,2.95776 ,29.02150 
132 ,24.0963 ,0.88513 ,2.93380 ,28.78645 
133 ,24.2881 ,0.88692 ,2.93380 ,28.78645 
134 ,24.4644 ,0.88882 ,2.91669 ,28.61856 
135 ,24.6567 ,0.89065 ,2.88589 ,28.31635 
136 ,24.8327 ,0.89245 ,2.89273 ,28.38351 
137 ,25.0087 ,0.89425 ,2.87562 ,28.21562 
138 ,25.1848 ,0.89606 ,2.85851 ,28.04772 
139 ,25.3610 ,0.89777 ,2.81402 ,27.61121 
140 ,25.5526 ,0.89960 ,2.81745 ,27.64479 
141 ,25.7291 ,0.90145 ,2.80376 ,27.51047 
142 ,25.9209 ,0.90335 ,2.77980 ,27.27542 
143 ,26.1132 ,0.90526 ,2.76269 ,27.10753 
144 ,26.3049 ,0.90715 ,2.75585 ,27.04038 
145 ,26.4974 ,0.90903 ,2.72847 ,26.77175 
146 ,26.7052 ,0.91116 ,2.72505 ,26.73817 
147 ,26.8813 ,0.91300 ,2.70109 ,26.50312 
148 ,27.0574 ,0.91467 ,2.67714 ,26.26807 
149 ,27.2336 ,0.91650 ,2.68056 ,26.30165 
150 ,27.4254 ,0.91838 ,2.65660 ,26.06661 
151 ,27.6018 ,0.92018 ,2.63607 ,25.86514 
152 ,27.7778 ,0.92193 ,2.63607 ,25.86514 
153 ,27.9545 ,0.92373 ,2.62581 ,25.76440 
154 ,28.1459 ,0.92564 ,2.60527 ,25.56293 
155 ,28.3221 ,0.92740 ,2.57789 ,25.29430 
156 ,28.4983 ,0.92913 ,2.57447 ,25.26073 
157 ,28.7063 ,0.93115 ,2.54710 ,24.99210 
158 ,28.8823 ,0.93300 ,2.54025 ,24.92494 
159 ,29.0744 ,0.93486 ,2.52314 ,24.75705 
160 ,29.2506 ,0.93664 ,2.50945 ,24.62274 
161 ,29.4422 ,0.93856 ,2.49234 ,24.45485 
162 ,29.6187 ,0.94036 ,2.47181 ,24.25338 
163 ,29.8107 ,0.94225 ,2.46839 ,24.21980 
164 ,30.0028 ,0.94425 ,2.44101 ,23.95117 
165 ,30.1784 ,0.94591 ,2.40679 ,23.61539 
166 ,30.3551 ,0.94770 ,2.41363 ,23.68255 
167 ,30.5307 ,0.94960 ,2.40336 ,23.58181 
168 ,30.7071 ,0.95124 ,2.38968 ,23.44750 
169 ,30.8828 ,0.95299 ,2.36230 ,23.17887 
170 ,31.0588 ,0.95474 ,2.35545 ,23.11171 
171 ,31.2348 ,0.95649 ,2.33834 ,22.94382 
172 ,31.4112 ,0.95823 ,2.32465 ,22.80951 
173 ,31.5711 ,0.95998 ,2.32808 ,22.84309 
174 ,31.7475 ,0.96164 ,2.30070 ,22.57446 
175 ,31.9235 ,0.96337 ,2.29043 ,22.47373 
176 ,32.0994 ,0.96515 ,2.26648 ,22.23868 
177 ,32.2916 ,0.96706 ,2.25963 ,22.17152 
178 ,32.4678 ,0.96884 ,2.24937 ,22.07079 
179 ,32.6597 ,0.97072 ,2.22199 ,21.80216 
180 ,32.8357 ,0.97244 ,2.21857 ,21.76858 
181 ,33.0120 ,0.97426 ,2.19119 ,21.49996 
182 ,33.1882 ,0.97604 ,2.18092 ,21.39922 
183 ,33.3643 ,0.97776 ,2.17066 ,21.29849 
184 ,33.5561 ,0.97971 ,2.15697 ,21.16417 
185 ,33.7323 ,0.98142 ,2.14670 ,21.06344 
186 ,33.9084 ,0.98318 ,2.13644 ,20.96270 
187 ,34.0845 ,0.98505 ,2.10906 ,20.69408 
188 ,34.2605 ,0.98677 ,2.09879 ,20.59334 
189 ,34.4365 ,0.98849 ,2.08510 ,20.45903 
190 ,34.6288 ,0.99038 ,2.08168 ,20.42545 
191 ,34.8046 ,0.99216 ,2.06457 ,20.25756 
192 ,34.9967 ,0.99405 ,2.04404 ,20.05609 
193 ,35.1728 ,0.99583 ,2.04404 ,20.05609 
194 ,35.3491 ,0.99767 ,2.03035 ,19.92178 
195 ,35.5249 ,0.99937 ,2.00297 ,19.65315 
196 ,35.7172 ,1.00127 ,1.99270 ,19.55241 
197 ,35.8932 ,1.00305 ,1.98244 ,19.45168 
198 ,36.0693 ,1.00481 ,1.96875 ,19.31737 
199 ,36.2613 ,1.00669 ,1.94822 ,19.11590 
200 ,36.4374 ,1.00850 ,1.93453 ,18.98158 
201 ,36.6134 ,1.01023 ,1.92768 ,18.91443 
202 ,36.7897 ,1.01201 ,1.92084 ,18.84727 
203 ,36.9816 ,1.01395 ,1.88662 ,18.51149 
204 ,37.1737 ,1.01586 ,1.89004 ,18.54507 
205 ,37.3498 ,1.01762 ,1.86608 ,18.31002 
206 ,37.5418 ,1.01953 ,1.84213 ,18.07497 
207 ,37.7177 ,1.02128 ,1.83528 ,18.00781 
208 ,37.8935 ,1.02306 ,1.82160 ,17.87350 
209 ,38.0701 ,1.02479 ,1.81817 ,17.83992 
210 ,38.2619 ,1.02673 ,1.78395 ,17.50414 
211 ,38.4548 ,1.02867 ,1.79080 ,17.57129 
212 ,38.6303 ,1.03043 ,1.77711 ,17.43698 
213 ,38.8062 ,1.03218 ,1.75657 ,17.23551 
214 ,38.9820 ,1.03393 ,1.73946 ,17.06762 
215 ,39.1421 ,1.03564 ,1.72235 ,16.89973 
216 ,39.3021 ,1.03727 ,1.70866 ,16.76542 
217 ,39.4622 ,1.03886 ,1.69155 ,16.59752 
218 ,39.6387 ,1.04046 ,1.68471 ,16.53037 
219 ,39.8146 ,1.04227 ,1.68813 ,16.56395 
220 ,39.9905 ,1.04403 ,1.67444 ,16.42963 
221 ,40.1828 ,1.04594 ,1.64707 ,16.16101 
222 ,40.3751 ,1.04787 ,1.64707 ,16.16101 
223 ,40.5511 ,1.04964 ,1.63680 ,16.06027 
224 ,40.7432 ,1.05147 ,1.60600 ,15.75807 
225 ,40.9191 ,1.05327 ,1.58547 ,15.55660 
226 ,41.0948 ,1.05511 ,1.58204 ,15.52302 
227 ,41.2713 ,1.05677 ,1.57520 ,15.45586 
228 ,41.4634 ,1.05872 ,1.53756 ,15.08650 
229 ,41.6556 ,1.06066 ,1.54440 ,15.15366 
230 ,41.8314 ,1.06241 ,1.53413 ,15.05292 
231 ,42.0075 ,1.06419 ,1.51360 ,14.85145 
232 ,42.1997 ,1.06607 ,1.48280 ,14.54925 
233 ,42.3758 ,1.06789 ,1.49307 ,14.64998 
234 ,42.5519 ,1.06963 ,1.46911 ,14.41493 
235 ,42.7434 ,1.07154 ,1.45885 ,14.31420 
236 ,42.9196 ,1.07327 ,1.44174 ,14.14631 
237 ,43.0796 ,1.07501 ,1.42462 ,13.97842 
238 ,43.2556 ,1.07670 ,1.42120 ,13.94484 
239 ,43.4159 ,1.07834 ,1.42462 ,13.97842 
240 ,43.5924 ,1.08002 ,1.40067 ,13.74337 
241 ,43.7844 ,1.08194 ,1.36645 ,13.40759 
242 ,43.9610 ,1.08372 ,1.35618 ,13.30685 
243 ,44.1365 ,1.08547 ,1.34934 ,13.23969 
244 ,44.3126 ,1.08732 ,1.35618 ,13.30685 
245 ,44.4883 ,1.08898 ,1.33907 ,13.13896 
246 ,44.6804 ,1.09083 ,1.31169 ,12.87033 
247 ,44.8564 ,1.09266 ,1.29116 ,12.66886 
248 ,45.0324 ,1.09444 ,1.28774 ,12.63528 
249 ,45.2085 ,1.09617 ,1.27405 ,12.50097 
250 ,45.3846 ,1.09795 ,1.27063 ,12.46739 
251 ,45.5930 ,1.09996 ,1.22614 ,12.03088 
252 ,45.8013 ,1.10203 ,1.22614 ,12.03088 
253 ,45.9771 ,1.10388 ,1.22272 ,11.99730 
254 ,46.1693 ,1.10582 ,1.20903 ,11.86298 
255 ,46.3613 ,1.10767 ,1.17481 ,11.52720 
256 ,46.5375 ,1.10946 ,1.17138 ,11.49362 
257 ,46.7135 ,1.11126 ,1.16112 ,11.39289 
258 ,46.8896 ,1.11296 ,1.15085 ,11.29215 
259 ,47.0658 ,1.11477 ,1.12347 ,11.02353 
260 ,47.2580 ,1.11666 ,1.10979 ,10.88921 
261 ,47.4335 ,1.11844 ,1.10294 ,10.82206 
262 ,47.6096 ,1.12018 ,1.10636 ,10.85563 
263 ,47.7861 ,1.12194 ,1.08583 ,10.65416 
264 ,47.9622 ,1.12375 ,1.06530 ,10.45270 
265 ,48.1382 ,1.12547 ,1.04819 ,10.28480 
266 ,48.3465 ,1.12740 ,1.04476 ,10.25123 
267 ,48.5220 ,1.12930 ,1.02081 ,10.01618 
268 ,48.6982 ,1.13108 ,1.00370 ,9.84829 
269 ,48.8744 ,1.13277 ,1.00712 ,9.88186 
270 ,49.0504 ,1.13461 ,0.99685 ,9.78113 
271 ,49.2266 ,1.13635 ,0.96948 ,9.51250 
272 ,49.4025 ,1.13807 ,0.95579 ,9.37819 
273 ,49.5786 ,1.13985 ,0.94894 ,9.31103 
274 ,49.7709 ,1.14173 ,0.94210 ,9.24388 
275 ,49.9626 ,1.14366 ,0.90788 ,8.90809 
276 ,50.1388 ,1.14542 ,0.89419 ,8.77378 
277 ,50.3311 ,1.14737 ,0.90446 ,8.87451 
278 ,50.5071 ,1.14917 ,0.87366 ,8.57231 
279 ,50.6668 ,1.15086 ,0.86339 ,8.47158 
280 ,50.8433 ,1.15256 ,0.84628 ,8.30368 
281 ,51.0354 ,1.15446 ,0.84628 ,8.30368 
282 ,51.2113 ,1.15622 ,0.84286 ,8.27011 
283 ,51.3873 ,1.15794 ,0.82232 ,8.06864 
284 ,51.5636 ,1.15966 ,0.78468 ,7.69927 
285 ,51.7392 ,1.16151 ,0.78126 ,7.66570 
286 ,51.9157 ,1.16326 ,0.77099 ,7.56496 
287 ,52.0916 ,1.16501 ,0.77099 ,7.56496 
288 ,52.2679 ,1.16674 ,0.74704 ,7.32991 
289 ,52.4439 ,1.16854 ,0.72650 ,7.12844 
290 ,52.6198 ,1.17027 ,0.72308 ,7.09486 
291 ,52.7957 ,1.17199 ,0.72308 ,7.09486 
292 ,52.9721 ,1.17381 ,0.70939 ,6.96055 
293 ,53.1801 ,1.17578 ,0.68201 ,6.69193 
294 ,53.3561 ,1.17762 ,0.68544 ,6.72550 
295 ,53.5322 ,1.17934 ,0.66490 ,6.52403 
296 ,53.7081 ,1.18116 ,0.65806 ,6.45688 
297 ,53.8840 ,1.18289 ,0.63753 ,6.25541 
298 ,54.0763 ,1.18470 ,0.61015 ,5.98678 
299 ,54.2846 ,1.18690 ,0.59646 ,5.85247 
300 ,54.4764 ,1.18878 ,0.61699 ,6.05394 
301 ,54.6528 ,1.19058 ,0.59988 ,5.88605 
302 ,54.8448 ,1.19247 ,0.56908 ,5.58384 
303 ,55.0048 ,1.19425 ,0.55539 ,5.44953 
304 ,55.1810 ,1.19591 ,0.53486 ,5.24806 
305 ,55.3570 ,1.19762 ,0.53486 ,5.24806 
306 ,55.5331 ,1.19941 ,0.52459 ,5.14732 
307 ,55.7252 ,1.20133 ,0.50406 ,4.94585 
308 ,55.9014 ,1.20313 ,0.48011 ,4.71081 
309 ,56.1093 ,1.20505 ,0.48353 ,4.74438 
310 ,56.2854 ,1.20690 ,0.47326 ,4.64365 
311 ,56.4614 ,1.20862 ,0.44246 ,4.34144 
312 ,56.6371 ,1.21038 ,0.45273 ,4.44218 
313 ,56.8297 ,1.21225 ,0.45273 ,4.44218 
314 ,57.0374 ,1.21439 ,0.43220 ,4.24071 
315 ,57.2139 ,1.21621 ,0.42877 ,4.20713 
316 ,57.4058 ,1.21817 ,0.38771 ,3.80419 
317 ,57.5818 ,1.21987 ,0.37744 ,3.70346 
318 ,57.7579 ,1.22162 ,0.37402 ,3.66988 
319 ,57.9340 ,1.22339 ,0.36375 ,3.56914 
320 ,58.1259 ,1.22528 ,0.34664 ,3.40125 
321 ,58.3021 ,1.22701 ,0.32611 ,3.19978 
322 ,58.4782 ,1.22881 ,0.31242 ,3.06547 
323 ,58.6862 ,1.23086 ,0.30558 ,2.99831 
324 ,58.8624 ,1.23266 ,0.28504 ,2.79684 
325 ,59.0385 ,1.23443 ,0.26793 ,2.62895 
326 ,59.2306 ,1.23634 ,0.28504 ,2.79684 
327 ,59.4227 ,1.23827 ,0.26451 ,2.59537 
328 ,59.5986 ,1.24004 ,0.24055 ,2.36032 
329 ,59.7748 ,1.24175 ,0.23371 ,2.29317 
330 ,59.9510 ,1.24357 ,0.23371 ,2.29317 
331 ,60.1270 ,1.24529 ,0.20976 ,2.05812 
332 ,60.3028 ,1.24706 ,0.19264 ,1.89023 
333 ,60.5110 ,1.24905 ,0.18580 ,1.82307 
334 ,60.6868 ,1.25086 ,0.18238 ,1.78949 
335 ,60.8631 ,1.25273 ,0.17553 ,1.72234 
336 ,61.0391 ,1.25442 ,0.16869 ,1.65518 
337 ,61.2314 ,1.25628 ,0.14816 ,1.45371 
338 ,61.4073 ,1.25818 ,0.12762 ,1.25224 
339 ,61.5835 ,1.25991 ,0.12078 ,1.18508 
340 ,61.7596 ,1.26169 ,0.10709 ,1.05077 
341 ,61.9515 ,1.26348 ,0.12420 ,1.21866 
342 ,62.1277 ,1.26530 ,0.11051 ,1.08435 
343 ,62.3194 ,1.26721 ,0.07629 ,0.74857 
344 ,62.5117 ,1.26905 ,0.06602 ,0.64783 
345 ,62.6879 ,1.27102 ,0.05234 ,0.51352 
346 ,62.8800 ,1.27281 ,0.03522 ,0.34563 
347 ,63.0718 ,1.27471 ,0.03180 ,0.31205 
348 ,63.2482 ,1.27651 ,0.03522 ,0.34563 
349 ,63.4403 ,1.27832 ,0.00443 ,0.04342 
350 ,63.6163 ,1.28019 ,0.00443 ,0.04342 
351 ,63.7922 ,1.28192 ,-0.00242 ,-0.02373 
352 ,63.9685 ,1.28373 ,-0.01269 ,-0.12447 
353 ,64.1608 ,1.28564 ,-0.04006 ,-0.39310 
354 ,64.3686 ,1.28766 ,-0.04691 ,-0.46025 
355 ,64.5283 ,1.28941 ,-0.06060 ,-0.59457 
356 ,64.7046 ,1.29106 ,-0.05375 ,-0.52741 
357 ,64.8808 ,1.29284 ,-0.07428 ,-0.72888 
358 ,65.0570 ,1.29459 ,-0.08113 ,-0.79604 
359 ,65.2489 ,1.29651 ,-0.09482 ,-0.93035 
360 ,65.4251 ,1.29829 ,-0.11193 ,-1.09824 
361 ,65.6171 ,1.30015 ,-0.12562 ,-1.23255 
362 ,65.7933 ,1.30198 ,-0.12562 ,-1.23255 
363 ,65.9854 ,1.30389 ,-0.12904 ,-1.26613 
364 ,66.1774 ,1.30577 ,-0.14957 ,-1.46760 
365 ,66.3536 ,1.30757 ,-0.15984 ,-1.56834 
366 ,66.5453 ,1.30942 ,-0.17011 ,-1.66907 
367 ,66.7216 ,1.31119 ,-0.18379 ,-1.80338 
368 ,66.8817 ,1.31292 ,-0.19748 ,-1.93770 
369 ,67.0578 ,1.31458 ,-0.20433 ,-2.00485 
370 ,67.2337 ,1.31633 ,-0.20433 ,-2.00485 
371 ,67.4100 ,1.31813 ,-0.19064 ,-1.87054 
372 ,67.6017 ,1.32011 ,-0.21117 ,-2.07201 
373 ,67.7781 ,1.32180 ,-0.22828 ,-2.23990 
374 ,67.9700 ,1.32368 ,-0.22486 ,-2.20632 
375 ,68.1302 ,1.32543 ,-0.22486 ,-2.20632 
376 ,68.3061 ,1.32703 ,-0.24539 ,-2.40779 
377 ,68.4984 ,1.32891 ,-0.27277 ,-2.67642 
378 ,68.6742 ,1.33073 ,-0.28304 ,-2.77716 
379 ,68.8666 ,1.33260 ,-0.28646 ,-2.81073 
380 ,69.0587 ,1.33451 ,-0.30015 ,-2.94505 
381 ,69.2346 ,1.33635 ,-0.30015 ,-2.94505 
382 ,69.4108 ,1.33812 ,-0.29673 ,-2.91147 
383 ,69.6028 ,1.34005 ,-0.32410 ,-3.18010 
384 ,69.8110 ,1.34204 ,-0.34464 ,-3.38156 
385 ,70.0030 ,1.34404 ,-0.34806 ,-3.41514 
386 ,70.1791 ,1.34581 ,-0.36175 ,-3.54946 
387 ,70.3549 ,1.34766 ,-0.35148 ,-3.44872 
388 ,70.5312 ,1.34932 ,-0.34806 ,-3.41514 
389 ,70.7234 ,1.35123 ,-0.39255 ,-3.85166 
390 ,70.8994 ,1.35299 ,-0.39939 ,-3.91882 
391 ,71.0753 ,1.35478 ,-0.39939 ,-3.91882 
392 ,71.2511 ,1.35661 ,-0.39939 ,-3.91882 
393 ,71.4274 ,1.35822 ,-0.39255 ,-3.85166 
394 ,71.6036 ,1.36000 ,-0.41992 ,-4.12029 
395 ,71.8116 ,1.36198 ,-0.44046 ,-4.32176 
396 ,72.0038 ,1.36397 ,-0.44046 ,-4.32176 
397 ,72.1958 ,1.36593 ,-0.46783 ,-4.59038 
398 ,72.3718 ,1.36773 ,-0.45072 ,-4.42249 
399 ,72.5640 ,1.36964 ,-0.46783 ,-4.59038 
400 ,72.7721 ,1.37165 ,-0.46783 ,-4.59038 
401 ,72.9482 ,1.37350 ,-0.47468 ,-4.65754 
402 ,73.1242 ,1.37519 ,-0.49863 ,-4.89259 
403 ,73.3003 ,1.37697 ,-0.49179 ,-4.82543 
404 ,73.4762 ,1.37870 ,-0.52259 ,-5.12764 
405 ,73.6684 ,1.38058 ,-0.50206 ,-4.92617 
406 ,73.8446 ,1.38242 ,-0.53285 ,-5.22837 
407 ,74.0205 ,1.38431 ,-0.53970 ,-5.29553 
408 ,74.1966 ,1.38590 ,-0.55339 ,-5.42984 
409 ,74.3728 ,1.38770 ,-0.55681 ,-5.46342 
410 ,74.5649 ,1.38958 ,-0.56708 ,-5.56415 
411 ,74.7409 ,1.39143 ,-0.57734 ,-5.66489 
412 ,74.9168 ,1.39315 ,-0.59103 ,-5.79920 
413 ,75.0930 ,1.39498 ,-0.57392 ,-5.63131 
414 ,75.2850 ,1.39679 ,-0.60130 ,-5.89994 
415 ,75.4616 ,1.39855 ,-0.59788 ,-5.86636 
416 ,75.6534 ,1.40048 ,-0.60472 ,-5.93352 
417 ,75.8293 ,1.40226 ,-0.61499 ,-6.03425 
418 ,76.0054 ,1.40402 ,-0.61499 ,-6.03425 
419 ,76.1973 ,1.40591 ,-0.63552 ,-6.23572 
420 ,76.3895 ,1.40778 ,-0.62183 ,-6.10141 
421 ,76.5656 ,1.40962 ,-0.64921 ,-6.37003 
422 ,76.7416 ,1.41138 ,-0.67659 ,-6.63866 
423 ,76.9338 ,1.41329 ,-0.65263 ,-6.40361 
424 ,77.1094 ,1.41517 ,-0.66290 ,-6.50435 
425 ,77.2859 ,1.41676 ,-0.68343 ,-6.70582 
426 ,77.4623 ,1.41858 ,-0.69370 ,-6.80655 
427 ,77.6378 ,1.42036 ,-0.70739 ,-6.94086 
428 ,77.8142 ,1.42206 ,-0.69712 ,-6.84013 
429 ,77.9902 ,1.42384 ,-0.70054 ,-6.87371 
430 ,78.1659 ,1.42562 ,-0.71765 ,-7.04160 
431 ,78.3423 ,1.42737 ,-0.72792 ,-7.14233 
432 ,78.5025 ,1.42908 ,-0.73818 ,-7.24307 
433 ,78.6786 ,1.43074 ,-0.75187 ,-7.37738 
434 ,78.8546 ,1.43256 ,-0.76556 ,-7.51170 
435 ,79.0307 ,1.43429 ,-0.75530 ,-7.41096 
436 ,79.2224 ,1.43613 ,-0.76214 ,-7.47812 
437 ,79.3988 ,1.43798 ,-0.77241 ,-7.57885 
438 ,79.5909 ,1.43990 ,-0.77241 ,-7.57885 
439 ,79.7670 ,1.44165 ,-0.77241 ,-7.57885 
440 ,79.9430 ,1.44343 ,-0.80663 ,-7.91464 
441 ,80.1187 ,1.44517 ,-0.81005 ,-7.94821 
442 ,80.2948 ,1.44687 ,-0.82032 ,-8.04895 
443 ,80.4713 ,1.44868 ,-0.81689 ,-8.01537 
444 ,80.6631 ,1.45056 ,-0.82374 ,-8.08253 
445 ,80.8394 ,1.45231 ,-0.83743 ,-8.21684 
446 ,81.0473 ,1.45428 ,-0.83401 ,-8.18326 
447 ,81.2236 ,1.45619 ,-0.84085 ,-8.25042 
448 ,81.4156 ,1.45815 ,-0.85112 ,-8.35115 
449 ,81.5916 ,1.45983 ,-0.85796 ,-8.41831 
450 ,81.7677 ,1.46164 ,-0.87165 ,-8.55262 
451 ,81.9759 ,1.46359 ,-0.88876 ,-8.72051 
452 ,82.1520 ,1.46550 ,-0.87165 ,-8.55262 
453 ,82.3441 ,1.46737 ,-0.90245 ,-8.85483 
454 ,82.5361 ,1.46933 ,-0.91614 ,-8.98914 
455 ,82.7282 ,1.47124 ,-0.90245 ,-8.85483 
456 ,82.9043 ,1.47302 ,-0.91956 ,-9.02272 
457 ,83.0963 ,1.47487 ,-0.93667 ,-9.19061 
458 ,83.2722 ,1.47669 ,-0.94009 ,-9.22419 
459 ,83.4805 ,1.47871 ,-0.93325 ,-9.15703 
460 ,83.6565 ,1.48053 ,-0.94694 ,-9.29135 
461 ,83.8325 ,1.48225 ,-0.95378 ,-9.35850 
462 ,84.0087 ,1.48407 ,-0.96405 ,-9.45924 
