Data stamp = , 01-04-2022 17:40:47 568

Calibration Values: 
Slope = , 26.54 , g/V 
Offset Voltage at no contact = , -0.501760 , V 

No , Time , Stage Position ,   Mass , Force 
   ,  (s) ,      (mm)      ,   (g)  , (mN)  

1 ,0.0000 ,0.64952 ,5.07950 ,49.84004 
2 ,0.2059 ,0.64959 ,5.06923 ,49.73931 
3 ,0.5104 ,0.65033 ,5.07265 ,49.77289 
4 ,0.7183 ,0.65179 ,5.07950 ,49.84004 
5 ,0.9105 ,0.65347 ,5.06923 ,49.73931 
6 ,1.1027 ,0.65532 ,5.06239 ,49.67215 
7 ,1.2787 ,0.65704 ,5.07608 ,49.80646 
8 ,1.4704 ,0.65893 ,5.07608 ,49.80646 
9 ,1.6628 ,0.66086 ,5.07265 ,49.77289 
10 ,1.8387 ,0.66260 ,5.06581 ,49.70573 
11 ,2.0310 ,0.66450 ,5.04870 ,49.53784 
12 ,2.2229 ,0.66654 ,5.03501 ,49.40352 
13 ,2.3990 ,0.66827 ,5.02132 ,49.26921 
14 ,2.5911 ,0.67014 ,4.99737 ,49.03416 
15 ,2.7834 ,0.67217 ,4.96999 ,48.76554 
16 ,2.9592 ,0.67393 ,4.97683 ,48.83269 
17 ,3.1514 ,0.67574 ,4.94603 ,48.53049 
18 ,3.3275 ,0.67757 ,4.92892 ,48.36260 
19 ,3.4873 ,0.67925 ,4.92892 ,48.36260 
20 ,3.6638 ,0.68096 ,4.90497 ,48.12755 
21 ,3.8558 ,0.68285 ,4.90497 ,48.12755 
22 ,4.0316 ,0.68456 ,4.88786 ,47.95966 
23 ,4.2079 ,0.68635 ,4.87075 ,47.79177 
24 ,4.3840 ,0.68811 ,4.86390 ,47.72461 
25 ,4.5757 ,0.69004 ,4.85021 ,47.59030 
26 ,4.7520 ,0.69179 ,4.82284 ,47.32167 
27 ,4.9281 ,0.69359 ,4.80573 ,47.15378 
28 ,5.1043 ,0.69531 ,4.79546 ,47.05304 
29 ,5.2962 ,0.69722 ,4.78861 ,46.98589 
30 ,5.4885 ,0.69920 ,4.74755 ,46.58295 
31 ,5.6641 ,0.70095 ,4.75097 ,46.61653 
32 ,5.8406 ,0.70269 ,4.74413 ,46.54937 
33 ,6.0167 ,0.70442 ,4.72359 ,46.34790 
34 ,6.2088 ,0.70639 ,4.68253 ,45.94496 
35 ,6.4008 ,0.70833 ,4.68595 ,45.97854 
36 ,6.5769 ,0.71003 ,4.67226 ,45.84422 
37 ,6.7525 ,0.71193 ,4.63462 ,45.47486 
38 ,6.9450 ,0.71365 ,4.62777 ,45.40771 
39 ,7.1373 ,0.71557 ,4.60382 ,45.17266 
40 ,7.3129 ,0.71738 ,4.58671 ,45.00477 
41 ,7.4892 ,0.71913 ,4.55591 ,44.70256 
42 ,7.6812 ,0.72105 ,4.55249 ,44.66898 
43 ,7.8739 ,0.72292 ,4.52169 ,44.36678 
44 ,8.0493 ,0.72474 ,4.51484 ,44.29962 
45 ,8.2255 ,0.72652 ,4.49089 ,44.06457 
46 ,8.4015 ,0.72828 ,4.47720 ,43.93026 
47 ,8.6097 ,0.73035 ,4.46351 ,43.79595 
48 ,8.8016 ,0.73225 ,4.43271 ,43.49374 
49 ,8.9777 ,0.73404 ,4.42929 ,43.46016 
50 ,9.1539 ,0.73582 ,4.40191 ,43.19154 
51 ,9.3460 ,0.73764 ,4.37111 ,42.88933 
52 ,9.5381 ,0.73962 ,4.39507 ,43.12438 
53 ,9.7302 ,0.74146 ,4.35400 ,42.72144 
54 ,9.9222 ,0.74347 ,4.33004 ,42.48639 
55 ,10.1142 ,0.74539 ,4.30609 ,42.25135 
56 ,10.2904 ,0.74717 ,4.27871 ,41.98272 
57 ,10.4825 ,0.74905 ,4.28213 ,42.01630 
58 ,10.6586 ,0.75089 ,4.26160 ,41.81483 
59 ,10.8346 ,0.75259 ,4.22738 ,41.47905 
60 ,11.0107 ,0.75439 ,4.20685 ,41.27758 
61 ,11.2028 ,0.75625 ,4.20342 ,41.24400 
62 ,11.3947 ,0.75813 ,4.18631 ,41.07611 
63 ,11.5866 ,0.76000 ,4.16578 ,40.87464 
64 ,11.7631 ,0.76188 ,4.15551 ,40.77390 
65 ,11.9388 ,0.76366 ,4.13498 ,40.57243 
66 ,12.1151 ,0.76539 ,4.11103 ,40.33738 
67 ,12.3068 ,0.76733 ,4.08365 ,40.06876 
68 ,12.4830 ,0.76904 ,4.08023 ,40.03518 
69 ,12.6589 ,0.77086 ,4.06996 ,39.93444 
70 ,12.8354 ,0.77258 ,4.02889 ,39.53150 
71 ,13.0112 ,0.77436 ,4.00152 ,39.26288 
72 ,13.1874 ,0.77608 ,3.99809 ,39.22930 
73 ,13.3636 ,0.77785 ,3.99125 ,39.16214 
74 ,13.5395 ,0.77957 ,3.96387 ,38.89352 
75 ,13.7318 ,0.78145 ,3.94676 ,38.72562 
76 ,13.9239 ,0.78349 ,3.93307 ,38.59131 
77 ,14.0834 ,0.78519 ,3.91938 ,38.45700 
78 ,14.2597 ,0.78679 ,3.89885 ,38.25553 
79 ,14.4359 ,0.78858 ,3.86805 ,37.95332 
80 ,14.6121 ,0.79029 ,3.85436 ,37.81901 
81 ,14.8042 ,0.79223 ,3.85779 ,37.85259 
82 ,14.9802 ,0.79399 ,3.82699 ,37.55038 
83 ,15.1723 ,0.79600 ,3.80303 ,37.31534 
84 ,15.3481 ,0.79771 ,3.78934 ,37.18102 
85 ,15.5245 ,0.79943 ,3.78250 ,37.11387 
86 ,15.7004 ,0.80125 ,3.76881 ,36.97955 
87 ,15.8766 ,0.80303 ,3.74143 ,36.71093 
88 ,16.0684 ,0.80492 ,3.70721 ,36.37514 
89 ,16.2287 ,0.80661 ,3.71405 ,36.44230 
90 ,16.4048 ,0.80830 ,3.69352 ,36.24083 
91 ,16.5968 ,0.81018 ,3.65930 ,35.90505 
92 ,16.7883 ,0.81205 ,3.64903 ,35.80431 
93 ,16.9650 ,0.81388 ,3.62850 ,35.60284 
94 ,17.1571 ,0.81582 ,3.60797 ,35.40137 
95 ,17.3331 ,0.81754 ,3.58743 ,35.19990 
96 ,17.5092 ,0.81934 ,3.56348 ,34.96485 
97 ,17.6851 ,0.82109 ,3.55663 ,34.89770 
98 ,17.8773 ,0.82295 ,3.53952 ,34.72981 
99 ,18.0695 ,0.82485 ,3.51557 ,34.49476 
100 ,18.2453 ,0.82667 ,3.50872 ,34.42760 
101 ,18.4374 ,0.82856 ,3.48135 ,34.15898 
102 ,18.6297 ,0.83046 ,3.47450 ,34.09182 
103 ,18.8214 ,0.83245 ,3.45055 ,33.85677 
104 ,18.9978 ,0.83419 ,3.43001 ,33.65530 
105 ,19.1738 ,0.83595 ,3.40264 ,33.38667 
106 ,19.3496 ,0.83770 ,3.38895 ,33.25236 
107 ,19.5420 ,0.83954 ,3.37868 ,33.15163 
108 ,19.7341 ,0.84155 ,3.33419 ,32.71511 
109 ,19.9102 ,0.84328 ,3.33419 ,32.71511 
110 ,20.0862 ,0.84511 ,3.32051 ,32.58080 
111 ,20.2623 ,0.84685 ,3.32393 ,32.61437 
112 ,20.4380 ,0.84862 ,3.27944 ,32.17786 
113 ,20.6142 ,0.85037 ,3.26233 ,32.00996 
114 ,20.8064 ,0.85223 ,3.26575 ,32.04354 
115 ,20.9825 ,0.85404 ,3.24180 ,31.80849 
116 ,21.1589 ,0.85576 ,3.21784 ,31.57345 
117 ,21.3348 ,0.85758 ,3.19388 ,31.33840 
118 ,21.5106 ,0.85927 ,3.19388 ,31.33840 
119 ,21.6869 ,0.86108 ,3.17335 ,31.13693 
120 ,21.8629 ,0.86283 ,3.15966 ,31.00262 
121 ,22.0707 ,0.86475 ,3.14597 ,30.86830 
122 ,22.2470 ,0.86663 ,3.12544 ,30.66683 
123 ,22.4392 ,0.86856 ,3.09122 ,30.33105 
124 ,22.6151 ,0.87038 ,3.08095 ,30.23031 
125 ,22.8073 ,0.87226 ,3.07411 ,30.16316 
126 ,22.9834 ,0.87404 ,3.04673 ,29.89453 
127 ,23.1755 ,0.87590 ,3.03989 ,29.82737 
128 ,23.3675 ,0.87786 ,3.01935 ,29.62590 
129 ,23.5432 ,0.87961 ,3.00567 ,29.49159 
130 ,23.7357 ,0.88147 ,2.98171 ,29.25654 
131 ,23.9277 ,0.88348 ,2.97487 ,29.18939 
132 ,24.1038 ,0.88525 ,2.95776 ,29.02150 
133 ,24.2959 ,0.88720 ,2.92696 ,28.71929 
134 ,24.4880 ,0.88909 ,2.92353 ,28.68571 
135 ,24.6639 ,0.89086 ,2.90985 ,28.55140 
136 ,24.8399 ,0.89255 ,2.87220 ,28.18204 
137 ,25.0161 ,0.89431 ,2.86193 ,28.08130 
138 ,25.1922 ,0.89608 ,2.85851 ,28.04772 
139 ,25.3682 ,0.89785 ,2.84825 ,27.94699 
140 ,25.5444 ,0.89963 ,2.81402 ,27.61121 
141 ,25.7519 ,0.90163 ,2.79349 ,27.40974 
142 ,25.9121 ,0.90344 ,2.79349 ,27.40974 
143 ,26.0883 ,0.90507 ,2.79349 ,27.40974 
144 ,26.3127 ,0.90718 ,2.74900 ,26.97322 
145 ,26.4888 ,0.90911 ,2.74216 ,26.90606 
146 ,26.6807 ,0.91102 ,2.72505 ,26.73817 
147 ,26.8734 ,0.91290 ,2.71478 ,26.63744 
148 ,27.0651 ,0.91485 ,2.69767 ,26.46954 
149 ,27.2409 ,0.91661 ,2.68056 ,26.30165 
150 ,27.4172 ,0.91835 ,2.64976 ,25.99945 
151 ,27.5932 ,0.92014 ,2.63265 ,25.83156 
152 ,27.7690 ,0.92196 ,2.61554 ,25.66367 
153 ,27.9454 ,0.92367 ,2.62923 ,25.79798 
154 ,28.1375 ,0.92558 ,2.58474 ,25.36146 
155 ,28.3296 ,0.92752 ,2.58132 ,25.32788 
156 ,28.5216 ,0.92935 ,2.55052 ,25.02568 
157 ,28.7135 ,0.93129 ,2.55394 ,25.05926 
158 ,28.8897 ,0.93304 ,2.53341 ,24.85779 
159 ,29.0659 ,0.93485 ,2.51287 ,24.65632 
160 ,29.2417 ,0.93661 ,2.49576 ,24.48842 
161 ,29.4179 ,0.93839 ,2.47523 ,24.28696 
162 ,29.5938 ,0.94008 ,2.47523 ,24.28696 
163 ,29.7702 ,0.94189 ,2.45812 ,24.11906 
164 ,29.9461 ,0.94364 ,2.45127 ,24.05191 
165 ,30.1222 ,0.94540 ,2.41705 ,23.71612 
166 ,30.2981 ,0.94713 ,2.39652 ,23.51465 
167 ,30.4903 ,0.94909 ,2.40679 ,23.61539 
168 ,30.6825 ,0.95101 ,2.36914 ,23.24603 
169 ,30.8585 ,0.95279 ,2.36914 ,23.24603 
170 ,31.0345 ,0.95451 ,2.33150 ,22.87667 
171 ,31.2267 ,0.95643 ,2.34177 ,22.97740 
172 ,31.4028 ,0.95823 ,2.30754 ,22.64162 
173 ,31.5787 ,0.96003 ,2.31781 ,22.74235 
174 ,31.7549 ,0.96172 ,2.29043 ,22.47373 
175 ,31.9148 ,0.96347 ,2.28359 ,22.40657 
176 ,32.0908 ,0.96508 ,2.26648 ,22.23868 
177 ,32.2829 ,0.96694 ,2.23568 ,21.93647 
178 ,32.4592 ,0.96872 ,2.22199 ,21.80216 
179 ,32.6348 ,0.97057 ,2.21515 ,21.73500 
180 ,32.8112 ,0.97228 ,2.20830 ,21.66785 
181 ,33.0189 ,0.97432 ,2.19119 ,21.49996 
182 ,33.1953 ,0.97610 ,2.18435 ,21.43280 
183 ,33.3875 ,0.97801 ,2.15355 ,21.13059 
184 ,33.5636 ,0.97980 ,2.14328 ,21.02986 
185 ,33.7556 ,0.98162 ,2.12275 ,20.82839 
186 ,33.9477 ,0.98362 ,2.11932 ,20.79481 
187 ,34.1397 ,0.98553 ,2.09195 ,20.52619 
188 ,34.3158 ,0.98732 ,2.08510 ,20.45903 
189 ,34.4920 ,0.98905 ,2.06799 ,20.29114 
190 ,34.6838 ,0.99090 ,2.05773 ,20.19040 
191 ,34.8600 ,0.99280 ,2.03035 ,19.92178 
192 ,35.0360 ,0.99451 ,2.03719 ,19.98893 
193 ,35.2121 ,0.99625 ,2.02350 ,19.85462 
194 ,35.3881 ,0.99806 ,2.00297 ,19.65315 
195 ,35.5642 ,0.99985 ,1.98244 ,19.45168 
196 ,35.7564 ,1.00165 ,1.97902 ,19.41810 
197 ,35.9486 ,1.00351 ,1.96875 ,19.31737 
198 ,36.1405 ,1.00552 ,1.94137 ,19.04874 
199 ,36.3323 ,1.00748 ,1.94137 ,19.04874 
200 ,36.5405 ,1.00953 ,1.91057 ,18.74654 
201 ,36.7164 ,1.01128 ,1.90031 ,18.64580 
202 ,36.9087 ,1.01321 ,1.87293 ,18.37717 
203 ,37.0846 ,1.01498 ,1.86608 ,18.31002 
204 ,37.2605 ,1.01676 ,1.85240 ,18.17570 
205 ,37.4371 ,1.01850 ,1.85240 ,18.17570 
206 ,37.6608 ,1.02065 ,1.82160 ,17.87350 
207 ,37.8368 ,1.02248 ,1.81133 ,17.77276 
208 ,38.0134 ,1.02425 ,1.82160 ,17.87350 
209 ,38.1894 ,1.02606 ,1.79080 ,17.57129 
210 ,38.3654 ,1.02782 ,1.75657 ,17.23551 
211 ,38.5415 ,1.02956 ,1.75657 ,17.23551 
212 ,38.7175 ,1.03126 ,1.75315 ,17.20193 
213 ,38.8935 ,1.03307 ,1.74631 ,17.13478 
214 ,39.0699 ,1.03485 ,1.71893 ,16.86615 
215 ,39.2775 ,1.03682 ,1.71893 ,16.86615 
216 ,39.4539 ,1.03863 ,1.69498 ,16.63110 
217 ,39.6299 ,1.04043 ,1.69155 ,16.59752 
218 ,39.8221 ,1.04237 ,1.66760 ,16.36248 
219 ,40.0141 ,1.04416 ,1.65733 ,16.26174 
220 ,40.2063 ,1.04620 ,1.62311 ,15.92596 
221 ,40.3823 ,1.04800 ,1.61969 ,15.89238 
222 ,40.5745 ,1.04988 ,1.61969 ,15.89238 
223 ,40.7824 ,1.05187 ,1.59573 ,15.65733 
224 ,40.9746 ,1.05389 ,1.58889 ,15.59018 
225 ,41.1506 ,1.05568 ,1.57862 ,15.48944 
226 ,41.3426 ,1.05750 ,1.55809 ,15.28797 
227 ,41.5182 ,1.05928 ,1.54782 ,15.18724 
228 ,41.6949 ,1.06103 ,1.53413 ,15.05292 
229 ,41.8870 ,1.06301 ,1.51018 ,14.81787 
230 ,42.0629 ,1.06477 ,1.50333 ,14.75072 
231 ,42.2391 ,1.06654 ,1.49991 ,14.71714 
232 ,42.4150 ,1.06829 ,1.48622 ,14.58283 
233 ,42.5913 ,1.07002 ,1.45885 ,14.31420 
234 ,42.7833 ,1.07194 ,1.43831 ,14.11273 
235 ,42.9593 ,1.07374 ,1.43147 ,14.04557 
236 ,43.1352 ,1.07549 ,1.43147 ,14.04557 
237 ,43.3115 ,1.07729 ,1.41094 ,13.84410 
238 ,43.4874 ,1.07903 ,1.39383 ,13.67621 
239 ,43.6791 ,1.08088 ,1.39040 ,13.64263 
240 ,43.8556 ,1.08263 ,1.38698 ,13.60906 
241 ,44.0317 ,1.08442 ,1.36303 ,13.37401 
242 ,44.2079 ,1.08617 ,1.34249 ,13.17254 
243 ,44.3838 ,1.08798 ,1.33565 ,13.10538 
244 ,44.5598 ,1.08967 ,1.32538 ,13.00465 
245 ,44.7360 ,1.09148 ,1.32880 ,13.03822 
246 ,44.9280 ,1.09337 ,1.28432 ,12.60171 
247 ,45.1042 ,1.09516 ,1.28089 ,12.56813 
248 ,45.2962 ,1.09706 ,1.26720 ,12.43381 
249 ,45.4882 ,1.09900 ,1.24325 ,12.19877 
250 ,45.6645 ,1.10079 ,1.23641 ,12.13161 
251 ,45.8730 ,1.10277 ,1.21929 ,11.96372 
252 ,46.0805 ,1.10487 ,1.21245 ,11.89656 
253 ,46.2566 ,1.10665 ,1.21587 ,11.93014 
254 ,46.4326 ,1.10846 ,1.18507 ,11.62794 
255 ,46.6246 ,1.11038 ,1.16796 ,11.46004 
256 ,46.7843 ,1.11207 ,1.16454 ,11.42647 
257 ,46.9607 ,1.11375 ,1.15427 ,11.32573 
258 ,47.1369 ,1.11548 ,1.15085 ,11.29215 
259 ,47.3130 ,1.11722 ,1.13032 ,11.09068 
260 ,47.5049 ,1.11916 ,1.10979 ,10.88921 
261 ,47.6812 ,1.12093 ,1.10294 ,10.82206 
262 ,47.8407 ,1.12264 ,1.08925 ,10.68774 
263 ,48.0173 ,1.12430 ,1.08583 ,10.65416 
264 ,48.2093 ,1.12625 ,1.05161 ,10.31838 
265 ,48.4015 ,1.12816 ,1.05503 ,10.35196 
266 ,48.5773 ,1.12988 ,1.04819 ,10.28480 
267 ,48.7696 ,1.13181 ,1.02081 ,10.01618 
268 ,48.9456 ,1.13356 ,1.00028 ,9.81471 
269 ,49.1217 ,1.13535 ,1.00712 ,9.88186 
270 ,49.2978 ,1.13705 ,0.98317 ,9.64682 
271 ,49.4898 ,1.13892 ,0.95579 ,9.37819 
272 ,49.6655 ,1.14077 ,0.94210 ,9.24388 
273 ,49.8416 ,1.14246 ,0.94894 ,9.31103 
274 ,50.0181 ,1.14423 ,0.94210 ,9.24388 
275 ,50.2101 ,1.14618 ,0.92157 ,9.04241 
276 ,50.3863 ,1.14796 ,0.91814 ,9.00883 
277 ,50.5784 ,1.14985 ,0.89761 ,8.80736 
278 ,50.7383 ,1.15160 ,0.88050 ,8.63947 
279 ,50.9145 ,1.15322 ,0.87366 ,8.57231 
280 ,51.0907 ,1.15500 ,0.84628 ,8.30368 
281 ,51.2827 ,1.15691 ,0.86339 ,8.47158 
282 ,51.4748 ,1.15882 ,0.82575 ,8.10221 
283 ,51.6509 ,1.16061 ,0.81548 ,8.00148 
284 ,51.8268 ,1.16239 ,0.80521 ,7.90074 
285 ,52.0186 ,1.16425 ,0.80863 ,7.93432 
286 ,52.1951 ,1.16604 ,0.76757 ,7.53138 
287 ,52.4031 ,1.16807 ,0.77441 ,7.59854 
288 ,52.6112 ,1.17013 ,0.73335 ,7.19560 
289 ,52.7712 ,1.17190 ,0.73677 ,7.22918 
290 ,52.9473 ,1.17358 ,0.72308 ,7.09486 
291 ,53.1393 ,1.17540 ,0.71624 ,7.02771 
292 ,53.3156 ,1.17722 ,0.69570 ,6.82624 
293 ,53.4916 ,1.17903 ,0.67859 ,6.65835 
294 ,53.6676 ,1.18077 ,0.68201 ,6.69193 
295 ,53.8436 ,1.18253 ,0.66833 ,6.55761 
296 ,54.0358 ,1.18441 ,0.63753 ,6.25541 
297 ,54.2119 ,1.18616 ,0.62042 ,6.08752 
298 ,54.4200 ,1.18820 ,0.63410 ,6.22183 
299 ,54.6121 ,1.19021 ,0.61015 ,5.98678 
300 ,54.7719 ,1.19192 ,0.59988 ,5.88605 
301 ,54.9483 ,1.19356 ,0.57593 ,5.65100 
302 ,55.1241 ,1.19531 ,0.56908 ,5.58384 
303 ,55.3163 ,1.19728 ,0.55882 ,5.48311 
304 ,55.4921 ,1.19899 ,0.53486 ,5.24806 
305 ,55.6686 ,1.20073 ,0.54171 ,5.31522 
306 ,55.8605 ,1.20269 ,0.52802 ,5.18090 
307 ,56.0367 ,1.20439 ,0.50406 ,4.94585 
308 ,56.2445 ,1.20640 ,0.50064 ,4.91228 
309 ,56.4208 ,1.20830 ,0.49037 ,4.81154 
310 ,56.5968 ,1.21005 ,0.46642 ,4.57649 
311 ,56.7729 ,1.21184 ,0.44931 ,4.40860 
312 ,56.9648 ,1.21372 ,0.45273 ,4.44218 
313 ,57.1411 ,1.21549 ,0.43562 ,4.27429 
314 ,57.3330 ,1.21737 ,0.41509 ,4.07282 
315 ,57.5091 ,1.21914 ,0.42193 ,4.13997 
316 ,57.6853 ,1.22092 ,0.41509 ,4.07282 
317 ,57.8773 ,1.22286 ,0.38429 ,3.77061 
318 ,58.0533 ,1.22458 ,0.35691 ,3.50199 
319 ,58.2294 ,1.22639 ,0.36718 ,3.60272 
320 ,58.4055 ,1.22808 ,0.36375 ,3.56914 
321 ,58.5818 ,1.22991 ,0.34664 ,3.40125 
322 ,58.7736 ,1.23178 ,0.33295 ,3.26694 
323 ,58.9337 ,1.23349 ,0.32953 ,3.23336 
324 ,59.1098 ,1.23516 ,0.31242 ,3.06547 
325 ,59.2859 ,1.23690 ,0.29531 ,2.89758 
326 ,59.4620 ,1.23872 ,0.29189 ,2.86400 
327 ,59.6541 ,1.24057 ,0.26109 ,2.56179 
328 ,59.8301 ,1.24230 ,0.25767 ,2.52822 
329 ,60.0221 ,1.24420 ,0.24398 ,2.39390 
330 ,60.1983 ,1.24602 ,0.22687 ,2.22601 
331 ,60.3743 ,1.24781 ,0.22002 ,2.15885 
332 ,60.5502 ,1.24949 ,0.21318 ,2.09170 
333 ,60.7425 ,1.25149 ,0.20633 ,2.02454 
334 ,60.9185 ,1.25318 ,0.18238 ,1.78949 
335 ,61.0947 ,1.25501 ,0.17553 ,1.72234 
336 ,61.2707 ,1.25676 ,0.16869 ,1.65518 
337 ,61.4468 ,1.25854 ,0.16185 ,1.58802 
338 ,61.6387 ,1.26038 ,0.13105 ,1.28582 
339 ,61.8309 ,1.26236 ,0.14816 ,1.45371 
340 ,62.0069 ,1.26412 ,0.13105 ,1.28582 
341 ,62.2150 ,1.26612 ,0.11051 ,1.08435 
342 ,62.3911 ,1.26797 ,0.08998 ,0.88288 
343 ,62.5830 ,1.26984 ,0.08314 ,0.81572 
344 ,62.7592 ,1.27159 ,0.06945 ,0.68141 
345 ,62.9352 ,1.27335 ,0.06260 ,0.61425 
346 ,63.1113 ,1.27514 ,0.05918 ,0.58067 
347 ,63.2875 ,1.27694 ,0.04207 ,0.41278 
348 ,63.4636 ,1.27867 ,0.02838 ,0.27847 
349 ,63.6556 ,1.28052 ,0.02838 ,0.27847 
350 ,63.8317 ,1.28237 ,0.00443 ,0.04342 
351 ,64.0078 ,1.28414 ,0.01127 ,0.11058 
352 ,64.2158 ,1.28615 ,-0.01269 ,-0.12447 
353 ,64.3920 ,1.28795 ,-0.01269 ,-0.12447 
354 ,64.5840 ,1.28991 ,-0.04006 ,-0.39310 
355 ,64.7922 ,1.29189 ,-0.03664 ,-0.35952 
356 ,64.9842 ,1.29389 ,-0.06060 ,-0.59457 
357 ,65.1603 ,1.29567 ,-0.07771 ,-0.76246 
358 ,65.3682 ,1.29765 ,-0.09140 ,-0.89677 
359 ,65.5444 ,1.29948 ,-0.09824 ,-0.96393 
360 ,65.7365 ,1.30145 ,-0.10508 ,-1.03108 
361 ,65.9126 ,1.30317 ,-0.11535 ,-1.13182 
362 ,66.0887 ,1.30492 ,-0.11877 ,-1.16540 
363 ,66.2806 ,1.30679 ,-0.13931 ,-1.36687 
364 ,66.4726 ,1.30874 ,-0.13246 ,-1.29971 
365 ,66.6487 ,1.31050 ,-0.14957 ,-1.46760 
366 ,66.8249 ,1.31225 ,-0.17011 ,-1.66907 
367 ,67.0009 ,1.31406 ,-0.17695 ,-1.73623 
368 ,67.1772 ,1.31576 ,-0.18379 ,-1.80338 
369 ,67.3692 ,1.31760 ,-0.18037 ,-1.76981 
370 ,67.5773 ,1.31969 ,-0.21117 ,-2.07201 
371 ,67.7691 ,1.32167 ,-0.21459 ,-2.10559 
372 ,67.9452 ,1.32348 ,-0.22486 ,-2.20632 
373 ,68.1375 ,1.32540 ,-0.22486 ,-2.20632 
374 ,68.3136 ,1.32719 ,-0.22828 ,-2.23990 
375 ,68.5056 ,1.32910 ,-0.24539 ,-2.40779 
376 ,68.6976 ,1.33098 ,-0.25908 ,-2.54211 
377 ,68.8896 ,1.33282 ,-0.26593 ,-2.60926 
378 ,69.0659 ,1.33467 ,-0.29330 ,-2.87789 
379 ,69.2419 ,1.33645 ,-0.29673 ,-2.91147 
380 ,69.4339 ,1.33823 ,-0.29673 ,-2.91147 
381 ,69.6101 ,1.34011 ,-0.28988 ,-2.84431 
382 ,69.7862 ,1.34188 ,-0.32068 ,-3.14652 
383 ,69.9782 ,1.34379 ,-0.33095 ,-3.24725 
384 ,70.1705 ,1.34569 ,-0.34121 ,-3.34799 
385 ,70.3784 ,1.34770 ,-0.34806 ,-3.41514 
386 ,70.5704 ,1.34965 ,-0.33779 ,-3.31441 
387 ,70.7623 ,1.35165 ,-0.35832 ,-3.51588 
388 ,70.9385 ,1.35337 ,-0.37886 ,-3.71735 
389 ,71.1147 ,1.35521 ,-0.37544 ,-3.68377 
390 ,71.3067 ,1.35707 ,-0.40281 ,-3.95240 
391 ,71.4827 ,1.35885 ,-0.41650 ,-4.08671 
392 ,71.6748 ,1.36075 ,-0.41650 ,-4.08671 
393 ,71.8510 ,1.36254 ,-0.41992 ,-4.12029 
394 ,72.0589 ,1.36456 ,-0.41650 ,-4.08671 
395 ,72.2348 ,1.36631 ,-0.44046 ,-4.32176 
396 ,72.4107 ,1.36809 ,-0.45072 ,-4.42249 
397 ,72.5710 ,1.36981 ,-0.46099 ,-4.52323 
398 ,72.7632 ,1.37162 ,-0.45414 ,-4.45607 
399 ,72.9393 ,1.37338 ,-0.46441 ,-4.55681 
400 ,73.1154 ,1.37516 ,-0.47810 ,-4.69112 
401 ,73.2915 ,1.37692 ,-0.49863 ,-4.89259 
402 ,73.4835 ,1.37883 ,-0.50206 ,-4.92617 
403 ,73.6597 ,1.38061 ,-0.51232 ,-5.02690 
404 ,73.8517 ,1.38252 ,-0.52259 ,-5.12764 
405 ,74.0279 ,1.38428 ,-0.53285 ,-5.22837 
406 ,74.2039 ,1.38599 ,-0.53285 ,-5.22837 
407 ,74.3959 ,1.38793 ,-0.53285 ,-5.22837 
408 ,74.5723 ,1.38975 ,-0.53628 ,-5.26195 
409 ,74.7478 ,1.39147 ,-0.56708 ,-5.56415 
410 ,74.9403 ,1.39337 ,-0.56708 ,-5.56415 
411 ,75.1480 ,1.39539 ,-0.58419 ,-5.73205 
412 ,75.3404 ,1.39730 ,-0.59103 ,-5.79920 
413 ,75.5482 ,1.39940 ,-0.60472 ,-5.93352 
414 ,75.7725 ,1.40157 ,-0.61841 ,-6.06783 
415 ,75.9485 ,1.40342 ,-0.62183 ,-6.10141 
416 ,76.1406 ,1.40539 ,-0.62868 ,-6.16856 
417 ,76.3165 ,1.40712 ,-0.62868 ,-6.16856 
418 ,76.5088 ,1.40906 ,-0.64921 ,-6.37003 
419 ,76.6848 ,1.41086 ,-0.64921 ,-6.37003 
420 ,76.8610 ,1.41255 ,-0.64921 ,-6.37003 
421 ,77.0530 ,1.41443 ,-0.69027 ,-6.77297 
422 ,77.2288 ,1.41629 ,-0.67659 ,-6.63866 
423 ,77.4050 ,1.41807 ,-0.69027 ,-6.77297 
424 ,77.5972 ,1.41994 ,-0.70396 ,-6.90729 
425 ,77.7733 ,1.42170 ,-0.71081 ,-6.97444 
426 ,77.9495 ,1.42346 ,-0.71765 ,-7.04160 
427 ,78.1255 ,1.42527 ,-0.71081 ,-6.97444 
428 ,78.3012 ,1.42703 ,-0.71765 ,-7.04160 
429 ,78.4934 ,1.42883 ,-0.73134 ,-7.17591 
430 ,78.6857 ,1.43087 ,-0.73818 ,-7.24307 
431 ,78.8458 ,1.43256 ,-0.74503 ,-7.31023 
432 ,79.0217 ,1.43422 ,-0.75872 ,-7.44454 
433 ,79.2138 ,1.43607 ,-0.77925 ,-7.64601 
434 ,79.3896 ,1.43785 ,-0.76214 ,-7.47812 
435 ,79.5663 ,1.43967 ,-0.77925 ,-7.64601 
436 ,79.7738 ,1.44161 ,-0.78952 ,-7.74674 
437 ,79.9502 ,1.44346 ,-0.79294 ,-7.78032 
438 ,80.1261 ,1.44523 ,-0.79636 ,-7.81390 
439 ,80.3023 ,1.44699 ,-0.79978 ,-7.84748 
440 ,80.4943 ,1.44888 ,-0.83743 ,-8.21684 
441 ,80.6704 ,1.45065 ,-0.82716 ,-8.11611 
442 ,80.8466 ,1.45240 ,-0.81689 ,-8.01537 
443 ,81.0546 ,1.45441 ,-0.85112 ,-8.35115 
444 ,81.2306 ,1.45627 ,-0.85796 ,-8.41831 
445 ,81.4068 ,1.45798 ,-0.86823 ,-8.51904 
446 ,81.5827 ,1.45977 ,-0.84769 ,-8.31758 
447 ,81.7749 ,1.46164 ,-0.87849 ,-8.61978 
448 ,81.9671 ,1.46359 ,-0.87507 ,-8.58620 
449 ,82.1591 ,1.46553 ,-0.88192 ,-8.65336 
450 ,82.3511 ,1.46748 ,-0.88876 ,-8.72051 
451 ,82.5271 ,1.46922 ,-0.88534 ,-8.68694 
452 ,82.7193 ,1.47114 ,-0.90245 ,-8.85483 
453 ,82.9274 ,1.47311 ,-0.91614 ,-8.98914 
454 ,83.1035 ,1.47500 ,-0.90587 ,-8.88841 
455 ,83.2795 ,1.47677 ,-0.92983 ,-9.12345 
456 ,83.4554 ,1.47850 ,-0.94009 ,-9.22419 
457 ,83.6311 ,1.48029 ,-0.95378 ,-9.35850 
458 ,83.8077 ,1.48207 ,-0.94694 ,-9.29135 
459 ,83.9997 ,1.48400 ,-0.97431 ,-9.55997 
460 ,84.1759 ,1.48569 ,-0.97431 ,-9.55997 
461 ,84.3679 ,1.48763 ,-0.97774 ,-9.59355 
462 ,84.5599 ,1.48951 ,-1.00169 ,-9.82860 
