Data stamp = , 03-04-2022 23:21:49 911

Calibration Values: 
Slope = , 26.54 , g/V 
Offset Voltage at no contact = , -0.501760 , V 

No , Time , Stage Position ,   Mass , Force 
   ,  (s) ,      (mm)      ,   (g)  , (mN)  

1 ,0.0000 ,0.59943 ,5.09661 ,50.00793 
2 ,0.2179 ,0.59951 ,5.11030 ,50.14225 
3 ,0.5062 ,0.60025 ,5.08292 ,49.87362 
4 ,0.7143 ,0.60165 ,5.10003 ,50.04151 
5 ,0.9223 ,0.60338 ,5.09319 ,49.97436 
6 ,1.1144 ,0.60521 ,5.09319 ,49.97436 
7 ,1.2905 ,0.60700 ,5.08292 ,49.87362 
8 ,1.4666 ,0.60881 ,5.06923 ,49.73931 
9 ,1.6583 ,0.61083 ,5.07265 ,49.77289 
10 ,1.8187 ,0.61249 ,5.07608 ,49.80646 
11 ,2.0108 ,0.61427 ,5.04528 ,49.50426 
12 ,2.2031 ,0.61612 ,5.04185 ,49.47068 
13 ,2.3951 ,0.61821 ,5.04528 ,49.50426 
14 ,2.5710 ,0.61991 ,5.03159 ,49.36995 
15 ,2.7471 ,0.62166 ,5.00421 ,49.10132 
16 ,2.9233 ,0.62343 ,5.00079 ,49.06774 
17 ,3.1151 ,0.62534 ,5.00421 ,49.10132 
18 ,3.3074 ,0.62714 ,4.96999 ,48.76554 
19 ,3.4832 ,0.62898 ,4.95972 ,48.66480 
20 ,3.6596 ,0.63079 ,4.95288 ,48.59764 
21 ,3.8355 ,0.63259 ,4.94261 ,48.49691 
22 ,4.0435 ,0.63456 ,4.90497 ,48.12755 
23 ,4.2197 ,0.63641 ,4.90839 ,48.16113 
24 ,4.3959 ,0.63810 ,4.89128 ,47.99324 
25 ,4.5880 ,0.63995 ,4.87417 ,47.82534 
26 ,4.7640 ,0.64181 ,4.85706 ,47.65745 
27 ,4.9561 ,0.64364 ,4.84679 ,47.55672 
28 ,5.1482 ,0.64561 ,4.82968 ,47.38883 
29 ,5.3241 ,0.64737 ,4.81257 ,47.22093 
30 ,5.5006 ,0.64917 ,4.79888 ,47.08662 
31 ,5.7084 ,0.65121 ,4.76808 ,46.78442 
32 ,5.8841 ,0.65303 ,4.75439 ,46.65010 
33 ,6.0605 ,0.65476 ,4.74413 ,46.54937 
34 ,6.2524 ,0.65669 ,4.72359 ,46.34790 
35 ,6.4287 ,0.65845 ,4.69964 ,46.11285 
36 ,6.6367 ,0.66042 ,4.70306 ,46.14643 
37 ,6.8128 ,0.66231 ,4.68937 ,46.01212 
38 ,7.0208 ,0.66427 ,4.66199 ,45.74349 
39 ,7.2129 ,0.66629 ,4.64488 ,45.57560 
40 ,7.3890 ,0.66809 ,4.62435 ,45.37413 
41 ,7.5651 ,0.66982 ,4.61066 ,45.23981 
42 ,7.7732 ,0.67182 ,4.61066 ,45.23981 
43 ,7.9650 ,0.67380 ,4.56275 ,44.76972 
44 ,8.1414 ,0.67558 ,4.54906 ,44.63541 
45 ,8.3174 ,0.67738 ,4.54564 ,44.60183 
46 ,8.4934 ,0.67919 ,4.52511 ,44.40036 
47 ,8.6695 ,0.68084 ,4.49773 ,44.13173 
48 ,8.8457 ,0.68263 ,4.48062 ,43.96384 
49 ,9.0374 ,0.68451 ,4.49089 ,44.06457 
50 ,9.2298 ,0.68641 ,4.44640 ,43.62806 
51 ,9.4059 ,0.68826 ,4.44982 ,43.66163 
52 ,9.5980 ,0.69017 ,4.44640 ,43.62806 
53 ,9.7738 ,0.69193 ,4.42586 ,43.42659 
54 ,9.9498 ,0.69362 ,4.39164 ,43.09080 
55 ,10.1097 ,0.69536 ,4.38138 ,42.99007 
56 ,10.2699 ,0.69697 ,4.36769 ,42.85576 
57 ,10.4462 ,0.69861 ,4.35742 ,42.75502 
58 ,10.6224 ,0.70036 ,4.33689 ,42.55355 
59 ,10.7985 ,0.70218 ,4.32320 ,42.41924 
60 ,10.9744 ,0.70388 ,4.31978 ,42.38566 
61 ,11.1504 ,0.70566 ,4.28556 ,42.04988 
62 ,11.3268 ,0.70738 ,4.28556 ,42.04988 
63 ,11.5346 ,0.70952 ,4.25476 ,41.74767 
64 ,11.7107 ,0.71124 ,4.24791 ,41.68051 
65 ,11.8868 ,0.71298 ,4.22396 ,41.44547 
66 ,12.1110 ,0.71511 ,4.20685 ,41.27758 
67 ,12.2869 ,0.71703 ,4.19316 ,41.14326 
68 ,12.4630 ,0.71876 ,4.16578 ,40.87464 
69 ,12.6552 ,0.72066 ,4.15894 ,40.80748 
70 ,12.8469 ,0.72263 ,4.12471 ,40.47170 
71 ,13.0234 ,0.72441 ,4.11445 ,40.37096 
72 ,13.1994 ,0.72620 ,4.12129 ,40.43812 
73 ,13.3754 ,0.72790 ,4.10418 ,40.27023 
74 ,13.5835 ,0.72984 ,4.06654 ,39.90087 
75 ,13.7596 ,0.73175 ,4.04600 ,39.69940 
76 ,13.9357 ,0.73352 ,4.04943 ,39.73297 
77 ,14.1278 ,0.73538 ,4.00836 ,39.33003 
78 ,14.3196 ,0.73733 ,4.00494 ,39.29646 
79 ,14.4956 ,0.73911 ,3.99809 ,39.22930 
80 ,14.6719 ,0.74089 ,3.97756 ,39.02783 
81 ,14.8641 ,0.74265 ,3.93992 ,38.65847 
82 ,15.0400 ,0.74453 ,3.92965 ,38.55773 
83 ,15.2163 ,0.74625 ,3.92965 ,38.55773 
84 ,15.4080 ,0.74822 ,3.89885 ,38.25553 
85 ,15.5843 ,0.74997 ,3.87490 ,38.02048 
86 ,15.7764 ,0.75195 ,3.87832 ,38.05406 
87 ,15.9685 ,0.75378 ,3.83725 ,37.65112 
88 ,16.1447 ,0.75560 ,3.82014 ,37.48323 
89 ,16.3367 ,0.75749 ,3.82699 ,37.55038 
90 ,16.5447 ,0.75952 ,3.79961 ,37.28176 
91 ,16.7368 ,0.76141 ,3.77223 ,37.01313 
92 ,16.9129 ,0.76328 ,3.77565 ,37.04671 
93 ,17.1046 ,0.76517 ,3.73459 ,36.64377 
94 ,17.2811 ,0.76694 ,3.72090 ,36.50946 
95 ,17.4730 ,0.76873 ,3.71405 ,36.44230 
96 ,17.6653 ,0.77074 ,3.67983 ,36.10652 
97 ,17.8732 ,0.77278 ,3.67641 ,36.07294 
98 ,18.0495 ,0.77466 ,3.66957 ,36.00578 
99 ,18.2414 ,0.77644 ,3.63877 ,35.70358 
100 ,18.4176 ,0.77832 ,3.62508 ,35.56926 
101 ,18.6094 ,0.78017 ,3.60454 ,35.36779 
102 ,18.7857 ,0.78198 ,3.57375 ,35.06559 
103 ,18.9617 ,0.78374 ,3.56690 ,34.99843 
104 ,19.1539 ,0.78554 ,3.54295 ,34.76338 
105 ,19.3298 ,0.78743 ,3.53610 ,34.69623 
106 ,19.5060 ,0.78914 ,3.52241 ,34.56192 
107 ,19.6660 ,0.79088 ,3.49161 ,34.25971 
108 ,19.8420 ,0.79249 ,3.48477 ,34.19255 
109 ,20.0182 ,0.79431 ,3.47792 ,34.12540 
110 ,20.2104 ,0.79619 ,3.44713 ,33.82319 
111 ,20.4183 ,0.79832 ,3.42659 ,33.62172 
112 ,20.5943 ,0.80007 ,3.42659 ,33.62172 
113 ,20.7704 ,0.80180 ,3.39579 ,33.31952 
114 ,20.9622 ,0.80370 ,3.37526 ,33.11805 
115 ,21.1386 ,0.80549 ,3.38895 ,33.25236 
116 ,21.3145 ,0.80724 ,3.35815 ,32.95016 
117 ,21.5065 ,0.80909 ,3.35815 ,32.95016 
118 ,21.6986 ,0.81107 ,3.32051 ,32.58080 
119 ,21.8748 ,0.81285 ,3.30339 ,32.41290 
120 ,22.0510 ,0.81466 ,3.29655 ,32.34575 
121 ,22.2270 ,0.81638 ,3.27944 ,32.17786 
122 ,22.4033 ,0.81818 ,3.25548 ,31.94281 
123 ,22.5954 ,0.82011 ,3.24522 ,31.84207 
124 ,22.8188 ,0.82208 ,3.23153 ,31.70776 
125 ,22.9957 ,0.82407 ,3.21784 ,31.57345 
126 ,23.1874 ,0.82595 ,3.19388 ,31.33840 
127 ,23.3634 ,0.82773 ,3.16309 ,31.03619 
128 ,23.5395 ,0.82954 ,3.15624 ,30.96904 
129 ,23.7157 ,0.83124 ,3.15282 ,30.93546 
130 ,23.8914 ,0.83305 ,3.13913 ,30.80115 
131 ,24.0679 ,0.83476 ,3.12544 ,30.66683 
132 ,24.2598 ,0.83668 ,3.09806 ,30.39821 
133 ,24.4519 ,0.83865 ,3.09806 ,30.39821 
134 ,24.6441 ,0.84043 ,3.05700 ,29.99527 
135 ,24.8361 ,0.84251 ,3.04331 ,29.86095 
136 ,25.0123 ,0.84422 ,3.04331 ,29.86095 
137 ,25.2041 ,0.84611 ,3.01251 ,29.55875 
138 ,25.3803 ,0.84787 ,3.00224 ,29.45801 
139 ,25.5563 ,0.84962 ,2.99540 ,29.39086 
140 ,25.7324 ,0.85140 ,2.96802 ,29.12223 
141 ,25.9086 ,0.85319 ,2.96802 ,29.12223 
142 ,26.1008 ,0.85508 ,2.92353 ,28.68571 
143 ,26.2767 ,0.85684 ,2.93380 ,28.78645 
144 ,26.4687 ,0.85869 ,2.90985 ,28.55140 
145 ,26.6449 ,0.86053 ,2.89616 ,28.41709 
146 ,26.8369 ,0.86238 ,2.87220 ,28.18204 
147 ,27.0127 ,0.86427 ,2.87220 ,28.18204 
148 ,27.1890 ,0.86598 ,2.87220 ,28.18204 
149 ,27.3973 ,0.86803 ,2.83456 ,27.81268 
150 ,27.5732 ,0.86980 ,2.82771 ,27.74552 
151 ,27.7492 ,0.87156 ,2.82087 ,27.67836 
152 ,27.9253 ,0.87338 ,2.80376 ,27.51047 
153 ,28.1173 ,0.87522 ,2.77296 ,27.20827 
154 ,28.3094 ,0.87708 ,2.76954 ,27.17469 
155 ,28.4855 ,0.87896 ,2.74216 ,26.90606 
156 ,28.6938 ,0.88089 ,2.72505 ,26.73817 
157 ,28.8856 ,0.88296 ,2.69425 ,26.43597 
158 ,29.0617 ,0.88466 ,2.68398 ,26.33523 
159 ,29.2379 ,0.88654 ,2.68740 ,26.36881 
160 ,29.4298 ,0.88835 ,2.66003 ,26.10018 
161 ,29.6061 ,0.89017 ,2.64292 ,25.93229 
162 ,29.7982 ,0.89205 ,2.62238 ,25.73082 
163 ,29.9743 ,0.89382 ,2.62581 ,25.76440 
164 ,30.1501 ,0.89560 ,2.61554 ,25.66367 
165 ,30.3422 ,0.89746 ,2.58474 ,25.36146 
166 ,30.5503 ,0.89953 ,2.58474 ,25.36146 
167 ,30.7265 ,0.90137 ,2.57447 ,25.26073 
168 ,30.9025 ,0.90315 ,2.53683 ,24.89136 
169 ,31.0944 ,0.90492 ,2.53341 ,24.85779 
170 ,31.2865 ,0.90692 ,2.51972 ,24.72347 
171 ,31.4628 ,0.90873 ,2.49576 ,24.48842 
172 ,31.6709 ,0.91065 ,2.46154 ,24.15264 
173 ,31.8628 ,0.91266 ,2.45470 ,24.08549 
174 ,32.0390 ,0.91446 ,2.43759 ,23.91759 
175 ,32.2149 ,0.91619 ,2.43759 ,23.91759 
176 ,32.3911 ,0.91800 ,2.42390 ,23.78328 
177 ,32.5671 ,0.91970 ,2.39310 ,23.48108 
178 ,32.7430 ,0.92158 ,2.39994 ,23.54823 
179 ,32.9192 ,0.92326 ,2.37256 ,23.27961 
180 ,33.0955 ,0.92507 ,2.35888 ,23.14529 
181 ,33.2873 ,0.92693 ,2.35203 ,23.07814 
182 ,33.4635 ,0.92868 ,2.34177 ,22.97740 
183 ,33.6396 ,0.93050 ,2.31097 ,22.67520 
184 ,33.8316 ,0.93240 ,2.31781 ,22.74235 
185 ,34.0077 ,0.93415 ,2.28701 ,22.44015 
186 ,34.1838 ,0.93587 ,2.26648 ,22.23868 
187 ,34.3599 ,0.93770 ,2.25963 ,22.17152 
188 ,34.5360 ,0.93942 ,2.24252 ,22.00363 
189 ,34.7280 ,0.94132 ,2.24252 ,22.00363 
190 ,34.9041 ,0.94308 ,2.21515 ,21.73500 
191 ,35.0803 ,0.94492 ,2.19803 ,21.56711 
192 ,35.2723 ,0.94678 ,2.20146 ,21.60069 
193 ,35.4480 ,0.94855 ,2.18777 ,21.46638 
194 ,35.6241 ,0.95028 ,2.16723 ,21.26491 
195 ,35.8164 ,0.95225 ,2.15355 ,21.13059 
196 ,36.0083 ,0.95407 ,2.14328 ,21.02986 
197 ,36.1846 ,0.95588 ,2.11590 ,20.76123 
198 ,36.3766 ,0.95782 ,2.09879 ,20.59334 
199 ,36.5523 ,0.95955 ,2.10221 ,20.62692 
200 ,36.7288 ,0.96136 ,2.08852 ,20.49261 
201 ,36.9049 ,0.96311 ,2.04746 ,20.08967 
202 ,37.0811 ,0.96487 ,2.05088 ,20.12325 
203 ,37.2730 ,0.96678 ,2.04061 ,20.02251 
204 ,37.4491 ,0.96856 ,2.02693 ,19.88820 
205 ,37.6252 ,0.97025 ,2.00639 ,19.68673 
206 ,37.8014 ,0.97206 ,1.98928 ,19.51884 
207 ,37.9773 ,0.97387 ,1.97559 ,19.38452 
208 ,38.1535 ,0.97557 ,1.97902 ,19.41810 
209 ,38.3454 ,0.97747 ,1.95164 ,19.14948 
210 ,38.5215 ,0.97922 ,1.93453 ,18.98158 
211 ,38.6815 ,0.98096 ,1.90715 ,18.71296 
212 ,38.8574 ,0.98258 ,1.90031 ,18.64580 
213 ,39.0498 ,0.98448 ,1.90373 ,18.67938 
214 ,39.2418 ,0.98649 ,1.86951 ,18.34360 
215 ,39.4179 ,0.98824 ,1.85240 ,18.17570 
216 ,39.6099 ,0.99012 ,1.85582 ,18.20928 
217 ,39.7855 ,0.99194 ,1.81817 ,17.83992 
218 ,39.9456 ,0.99362 ,1.81475 ,17.80634 
219 ,40.1217 ,0.99525 ,1.79764 ,17.63845 
220 ,40.2980 ,0.99700 ,1.79080 ,17.57129 
221 ,40.5062 ,0.99911 ,1.76684 ,17.33625 
222 ,40.6986 ,1.00099 ,1.74973 ,17.16836 
223 ,40.8746 ,1.00281 ,1.73604 ,17.03404 
224 ,41.0505 ,1.00455 ,1.74631 ,17.13478 
225 ,41.2268 ,1.00631 ,1.71551 ,16.83257 
226 ,41.4348 ,1.00829 ,1.69840 ,16.66468 
227 ,41.6108 ,1.01016 ,1.70524 ,16.73184 
228 ,41.7866 ,1.01194 ,1.69498 ,16.63110 
229 ,41.9629 ,1.01366 ,1.65733 ,16.26174 
230 ,42.1550 ,1.01561 ,1.64364 ,16.12743 
231 ,42.3312 ,1.01734 ,1.65733 ,16.26174 
232 ,42.5232 ,1.01917 ,1.60600 ,15.75807 
233 ,42.6993 ,1.02100 ,1.59573 ,15.65733 
234 ,42.9069 ,1.02306 ,1.59573 ,15.65733 
235 ,43.0834 ,1.02485 ,1.57178 ,15.42228 
236 ,43.2592 ,1.02664 ,1.54782 ,15.18724 
237 ,43.4355 ,1.02839 ,1.55124 ,15.22081 
238 ,43.6117 ,1.03014 ,1.54098 ,15.12008 
239 ,43.7877 ,1.03189 ,1.52045 ,14.91861 
240 ,43.9634 ,1.03365 ,1.49991 ,14.71714 
241 ,44.1399 ,1.03539 ,1.47938 ,14.51567 
242 ,44.3160 ,1.03721 ,1.48622 ,14.58283 
243 ,44.5077 ,1.03908 ,1.46911 ,14.41493 
244 ,44.6841 ,1.04086 ,1.44516 ,14.17989 
245 ,44.8761 ,1.04278 ,1.42120 ,13.94484 
246 ,45.0523 ,1.04453 ,1.43147 ,14.04557 
247 ,45.2282 ,1.04628 ,1.40751 ,13.81053 
248 ,45.4043 ,1.04803 ,1.39725 ,13.70979 
249 ,45.5804 ,1.04980 ,1.38014 ,13.54190 
250 ,45.7566 ,1.05161 ,1.37329 ,13.47474 
251 ,45.9487 ,1.05345 ,1.34934 ,13.23969 
252 ,46.1245 ,1.05530 ,1.33565 ,13.10538 
253 ,46.3168 ,1.05715 ,1.32196 ,12.97107 
254 ,46.5088 ,1.05913 ,1.31169 ,12.87033 
255 ,46.6849 ,1.06085 ,1.29800 ,12.73602 
256 ,46.8610 ,1.06267 ,1.26378 ,12.40024 
257 ,47.0369 ,1.06442 ,1.26378 ,12.40024 
258 ,47.2131 ,1.06609 ,1.25352 ,12.29950 
259 ,47.3892 ,1.06794 ,1.25694 ,12.33308 
260 ,47.5651 ,1.06973 ,1.22956 ,12.06445 
261 ,47.7412 ,1.07142 ,1.20561 ,11.82941 
262 ,47.9332 ,1.07324 ,1.21929 ,11.96372 
263 ,48.1094 ,1.07514 ,1.20218 ,11.79583 
264 ,48.3015 ,1.07703 ,1.16796 ,11.46004 
265 ,48.4934 ,1.07891 ,1.16454 ,11.42647 
266 ,48.6696 ,1.08072 ,1.16112 ,11.39289 
267 ,48.8457 ,1.08241 ,1.13716 ,11.15784 
268 ,49.0216 ,1.08422 ,1.11321 ,10.92279 
269 ,49.2137 ,1.08605 ,1.10294 ,10.82206 
270 ,49.4061 ,1.08799 ,1.08241 ,10.62059 
271 ,49.5980 ,1.09000 ,1.06872 ,10.48627 
272 ,49.7741 ,1.09171 ,1.07899 ,10.58701 
273 ,49.9663 ,1.09368 ,1.05161 ,10.31838 
274 ,50.1583 ,1.09547 ,1.04476 ,10.25123 
275 ,50.3341 ,1.09734 ,1.02423 ,10.04976 
276 ,50.5104 ,1.09910 ,1.02765 ,10.08333 
277 ,50.7025 ,1.10099 ,0.99343 ,9.74755 
278 ,50.8786 ,1.10283 ,0.99001 ,9.71397 
279 ,51.0707 ,1.10471 ,0.97632 ,9.57966 
280 ,51.2466 ,1.10645 ,0.96605 ,9.47892 
281 ,51.4384 ,1.10834 ,0.94210 ,9.24388 
282 ,51.6308 ,1.11028 ,0.94552 ,9.27745 
283 ,51.8067 ,1.11210 ,0.93183 ,9.14314 
284 ,51.9988 ,1.11392 ,0.91814 ,9.00883 
285 ,52.1750 ,1.11572 ,0.91130 ,8.94167 
286 ,52.3511 ,1.11751 ,0.89761 ,8.80736 
287 ,52.5270 ,1.11927 ,0.87366 ,8.57231 
288 ,52.7192 ,1.12114 ,0.85997 ,8.43800 
289 ,52.9113 ,1.12312 ,0.85654 ,8.40442 
290 ,53.0874 ,1.12484 ,0.82917 ,8.13579 
291 ,53.2633 ,1.12665 ,0.81890 ,8.03506 
292 ,53.4392 ,1.12841 ,0.81206 ,7.96790 
293 ,53.6312 ,1.13026 ,0.79837 ,7.83359 
294 ,53.8076 ,1.13207 ,0.79152 ,7.76643 
295 ,53.9836 ,1.13380 ,0.77441 ,7.59854 
296 ,54.1598 ,1.13557 ,0.75388 ,7.39707 
297 ,54.3359 ,1.13736 ,0.75730 ,7.43065 
298 ,54.5277 ,1.13927 ,0.73677 ,7.22918 
299 ,54.7042 ,1.14103 ,0.71281 ,6.99413 
300 ,54.8961 ,1.14293 ,0.70597 ,6.92697 
301 ,55.0882 ,1.14475 ,0.70939 ,6.96055 
302 ,55.2802 ,1.14682 ,0.68201 ,6.69193 
303 ,55.4564 ,1.14855 ,0.68201 ,6.69193 
304 ,55.6483 ,1.15046 ,0.67175 ,6.59119 
305 ,55.8084 ,1.15217 ,0.63068 ,6.18825 
306 ,56.0005 ,1.15392 ,0.63410 ,6.22183 
307 ,56.1767 ,1.15574 ,0.63068 ,6.18825 
308 ,56.3686 ,1.15765 ,0.62042 ,6.08752 
309 ,56.5447 ,1.15937 ,0.58962 ,5.78531 
310 ,56.7048 ,1.16113 ,0.56908 ,5.58384 
311 ,56.8808 ,1.16279 ,0.57251 ,5.61742 
312 ,57.0570 ,1.16450 ,0.56566 ,5.55026 
313 ,57.2491 ,1.16650 ,0.56224 ,5.51668 
314 ,57.4251 ,1.16826 ,0.54513 ,5.34879 
315 ,57.6170 ,1.17001 ,0.53486 ,5.24806 
316 ,57.8093 ,1.17205 ,0.52117 ,5.11375 
317 ,58.0016 ,1.17402 ,0.50748 ,4.97943 
318 ,58.1934 ,1.17587 ,0.50748 ,4.97943 
319 ,58.3693 ,1.17765 ,0.49037 ,4.81154 
320 ,58.5455 ,1.17943 ,0.47326 ,4.64365 
321 ,58.7213 ,1.18116 ,0.45273 ,4.44218 
322 ,58.8978 ,1.18297 ,0.44588 ,4.37502 
323 ,59.0897 ,1.18485 ,0.44931 ,4.40860 
324 ,59.2658 ,1.18660 ,0.42877 ,4.20713 
325 ,59.4418 ,1.18836 ,0.40140 ,3.93850 
326 ,59.6179 ,1.19012 ,0.40482 ,3.97208 
327 ,59.7937 ,1.19190 ,0.40824 ,4.00566 
328 ,59.9701 ,1.19367 ,0.40140 ,3.93850 
329 ,60.1621 ,1.19557 ,0.37402 ,3.66988 
330 ,60.3383 ,1.19737 ,0.36033 ,3.53557 
331 ,60.5303 ,1.19926 ,0.35691 ,3.50199 
332 ,60.7062 ,1.20104 ,0.34322 ,3.36767 
333 ,60.8821 ,1.20288 ,0.33980 ,3.33410 
334 ,61.0584 ,1.20461 ,0.30900 ,3.03189 
335 ,61.2505 ,1.20643 ,0.30558 ,2.99831 
336 ,61.4266 ,1.20820 ,0.29531 ,2.89758 
337 ,61.6187 ,1.21014 ,0.27478 ,2.69611 
338 ,61.8107 ,1.21199 ,0.27478 ,2.69611 
339 ,61.9868 ,1.21381 ,0.26109 ,2.56179 
340 ,62.1629 ,1.21560 ,0.23371 ,2.29317 
341 ,62.3390 ,1.21731 ,0.24398 ,2.39390 
342 ,62.5309 ,1.21926 ,0.23713 ,2.32675 
343 ,62.7070 ,1.22104 ,0.21318 ,2.09170 
344 ,62.8833 ,1.22280 ,0.19607 ,1.92381 
345 ,63.0751 ,1.22468 ,0.19949 ,1.95738 
346 ,63.2514 ,1.22648 ,0.18922 ,1.85665 
347 ,63.4273 ,1.22822 ,0.16527 ,1.62160 
348 ,63.6035 ,1.22997 ,0.15500 ,1.52087 
349 ,63.7956 ,1.23181 ,0.16527 ,1.62160 
350 ,63.9875 ,1.23385 ,0.14473 ,1.42013 
351 ,64.1475 ,1.23551 ,0.12078 ,1.18508 
352 ,64.3397 ,1.23732 ,0.10025 ,0.98361 
353 ,64.5157 ,1.23910 ,0.12078 ,1.18508 
354 ,64.6917 ,1.24089 ,0.11051 ,1.08435 
355 ,64.8679 ,1.24265 ,0.07971 ,0.78214 
356 ,65.0440 ,1.24439 ,0.07629 ,0.74857 
357 ,65.2201 ,1.24614 ,0.05576 ,0.54710 
358 ,65.4118 ,1.24811 ,0.04891 ,0.47994 
359 ,65.5879 ,1.24981 ,0.04891 ,0.47994 
360 ,65.7640 ,1.25156 ,0.03865 ,0.37920 
361 ,65.9400 ,1.25334 ,0.02154 ,0.21131 
362 ,66.1160 ,1.25507 ,0.02838 ,0.27847 
363 ,66.2923 ,1.25687 ,0.01127 ,0.11058 
364 ,66.5487 ,1.25928 ,-0.00584 ,-0.05731 
365 ,66.7408 ,1.26138 ,-0.03322 ,-0.32594 
366 ,66.9165 ,1.26310 ,-0.02637 ,-0.25878 
367 ,67.0928 ,1.26487 ,-0.02295 ,-0.22520 
368 ,67.2686 ,1.26659 ,-0.05033 ,-0.49383 
369 ,67.4606 ,1.26842 ,-0.07428 ,-0.72888 
370 ,67.6369 ,1.27027 ,-0.06402 ,-0.62814 
371 ,67.8289 ,1.27215 ,-0.07086 ,-0.69530 
372 ,68.0212 ,1.27409 ,-0.09482 ,-0.93035 
373 ,68.1972 ,1.27592 ,-0.09824 ,-0.96393 
374 ,68.3573 ,1.27761 ,-0.10508 ,-1.03108 
375 ,68.5333 ,1.27921 ,-0.11535 ,-1.13182 
376 ,68.7095 ,1.28100 ,-0.13588 ,-1.33329 
377 ,68.9017 ,1.28297 ,-0.14957 ,-1.46760 
378 ,69.0938 ,1.28491 ,-0.14615 ,-1.43402 
379 ,69.2857 ,1.28676 ,-0.16668 ,-1.63549 
380 ,69.4618 ,1.28851 ,-0.17011 ,-1.66907 
381 ,69.6538 ,1.29042 ,-0.18037 ,-1.76981 
382 ,69.8300 ,1.29223 ,-0.19406 ,-1.90412 
383 ,70.0217 ,1.29422 ,-0.19064 ,-1.87054 
384 ,70.1978 ,1.29590 ,-0.19406 ,-1.90412 
385 ,70.3739 ,1.29763 ,-0.22144 ,-2.17275 
386 ,70.5661 ,1.29957 ,-0.22144 ,-2.17275 
387 ,70.7584 ,1.30142 ,-0.22828 ,-2.23990 
388 ,70.9504 ,1.30336 ,-0.24197 ,-2.37422 
389 ,71.1266 ,1.30521 ,-0.24539 ,-2.40779 
390 ,71.3025 ,1.30693 ,-0.26250 ,-2.57569 
391 ,71.4783 ,1.30867 ,-0.25908 ,-2.54211 
392 ,71.6548 ,1.31047 ,-0.27277 ,-2.67642 
393 ,71.8627 ,1.31243 ,-0.28988 ,-2.84431 
394 ,72.0389 ,1.31431 ,-0.30015 ,-2.94505 
395 ,72.2150 ,1.31607 ,-0.30699 ,-3.01220 
396 ,72.3910 ,1.31783 ,-0.31041 ,-3.04578 
397 ,72.5665 ,1.31960 ,-0.32068 ,-3.14652 
398 ,72.7433 ,1.32132 ,-0.35148 ,-3.44872 
399 ,72.9352 ,1.32327 ,-0.35148 ,-3.44872 
400 ,73.1112 ,1.32499 ,-0.35490 ,-3.48230 
401 ,73.2875 ,1.32678 ,-0.36175 ,-3.54946 
402 ,73.4795 ,1.32871 ,-0.36859 ,-3.61661 
403 ,73.6395 ,1.33043 ,-0.38570 ,-3.78450 
404 ,73.8156 ,1.33209 ,-0.38570 ,-3.78450 
405 ,74.0078 ,1.33400 ,-0.40281 ,-3.95240 
406 ,74.1837 ,1.33576 ,-0.40966 ,-4.01955 
407 ,74.3758 ,1.33761 ,-0.41308 ,-4.05313 
408 ,74.5518 ,1.33944 ,-0.41308 ,-4.05313 
409 ,74.7279 ,1.34117 ,-0.43703 ,-4.28818 
410 ,74.9360 ,1.34311 ,-0.44730 ,-4.38891 
411 ,75.1122 ,1.34509 ,-0.44730 ,-4.38891 
412 ,75.3043 ,1.34690 ,-0.48152 ,-4.72470 
413 ,75.4803 ,1.34871 ,-0.47468 ,-4.65754 
414 ,75.6564 ,1.35047 ,-0.47468 ,-4.65754 
415 ,75.8485 ,1.35235 ,-0.48494 ,-4.75828 
416 ,76.0406 ,1.35435 ,-0.50890 ,-4.99332 
417 ,76.2326 ,1.35621 ,-0.49863 ,-4.89259 
418 ,76.4086 ,1.35796 ,-0.50890 ,-4.99332 
419 ,76.5848 ,1.35971 ,-0.52601 ,-5.16121 
420 ,76.7764 ,1.36163 ,-0.51574 ,-5.06048 
421 ,76.9529 ,1.36338 ,-0.53970 ,-5.29553 
422 ,77.1451 ,1.36538 ,-0.54654 ,-5.36268 
423 ,77.3211 ,1.36714 ,-0.55681 ,-5.46342 
424 ,77.5131 ,1.36894 ,-0.56365 ,-5.53058 
425 ,77.6893 ,1.37077 ,-0.58077 ,-5.69847 
426 ,77.8809 ,1.37271 ,-0.58761 ,-5.76562 
427 ,78.0734 ,1.37450 ,-0.57734 ,-5.66489 
428 ,78.2654 ,1.37653 ,-0.61499 ,-6.03425 
429 ,78.4575 ,1.37848 ,-0.60130 ,-5.89994 
430 ,78.6497 ,1.38039 ,-0.60130 ,-5.89994 
431 ,78.8255 ,1.38220 ,-0.61841 ,-6.06783 
432 ,79.0337 ,1.38414 ,-0.62868 ,-6.16856 
433 ,79.2097 ,1.38596 ,-0.63210 ,-6.20214 
434 ,79.4018 ,1.38784 ,-0.65605 ,-6.43719 
435 ,79.5779 ,1.38972 ,-0.64921 ,-6.37003 
436 ,79.7540 ,1.39140 ,-0.66632 ,-6.53793 
437 ,79.9458 ,1.39326 ,-0.67316 ,-6.60508 
438 ,80.1222 ,1.39513 ,-0.69370 ,-6.80655 
439 ,80.2983 ,1.39691 ,-0.69027 ,-6.77297 
440 ,80.4742 ,1.39871 ,-0.68685 ,-6.73940 
441 ,80.6661 ,1.40048 ,-0.71081 ,-6.97444 
442 ,80.8422 ,1.40229 ,-0.71765 ,-7.04160 
443 ,81.0340 ,1.40419 ,-0.72107 ,-7.07518 
444 ,81.2107 ,1.40600 ,-0.72107 ,-7.07518 
445 ,81.4026 ,1.40788 ,-0.75530 ,-7.41096 
446 ,81.5788 ,1.40969 ,-0.75187 ,-7.37738 
447 ,81.7548 ,1.41140 ,-0.74161 ,-7.27665 
448 ,81.9470 ,1.41338 ,-0.75187 ,-7.37738 
449 ,82.1227 ,1.41504 ,-0.77925 ,-7.64601 
450 ,82.2988 ,1.41683 ,-0.77583 ,-7.61243 
451 ,82.4752 ,1.41860 ,-0.77583 ,-7.61243 
452 ,82.6672 ,1.42048 ,-0.79294 ,-7.78032 
453 ,82.8753 ,1.42255 ,-0.81005 ,-7.94821 
454 ,83.0513 ,1.42438 ,-0.79978 ,-7.84748 
455 ,83.2274 ,1.42615 ,-0.81005 ,-7.94821 
456 ,83.4195 ,1.42792 ,-0.82032 ,-8.04895 
457 ,83.5956 ,1.42986 ,-0.83058 ,-8.14968 
458 ,83.7717 ,1.43157 ,-0.82374 ,-8.08253 
459 ,83.9637 ,1.43348 ,-0.85112 ,-8.35115 
460 ,84.1399 ,1.43527 ,-0.86481 ,-8.48547 
461 ,84.3319 ,1.43716 ,-0.85796 ,-8.41831 
462 ,84.5240 ,1.43910 ,-0.87507 ,-8.58620 
463 ,84.7001 ,1.44090 ,-0.89218 ,-8.75409 
